-38.94
-27.85
-16.22
-5.6
3.13
9.92
15.24
19.58
23.13
25.77
27.17
27.19
25.94
23.87
21.59
19.63
18.29
17.53
17.1
16.62
15.75
14.31
12.34
9.95
7.34
4.6
1.73
-1.33
-4.73
-8.53
-12.83
-17.71
-23.26
-29.51
-36.2
-42.68
-47.83
-50.35
-49.2
-44.04
-35.44
-24.79
-13.73
-3.67
4.67
11.26
16.49
20.83
24.47
27.33
29.19
29.89
29.45
28.14
26.41
24.68
23.25
22.19
21.32
20.33
18.91
16.89
14.33
11.5
8.68
6.02
3.48
0.82
-2.23
-5.86
-10.2
-15.3
-21.13
-27.57
-34.19
-40.2
-44.47
-45.82
-43.49
-37.44
-28.48
-18.02
-7.58
1.7
9.31
15.26
19.8
23.14
25.26
26.04
25.51
23.94
21.89
20.04
18.83
18.4
18.5
18.61
18.25
17.12
15.23
12.83
10.3
7.92
5.75
3.59
1.06
-2.25
-6.6
-12.05
-18.41
-25.25
-31.88
-37.38
-40.72
-40.99
-37.74
-31.18
-22.18
-12.03
-2.01
7.01
14.68
21.05
26.29
30.42
33.27
34.61
34.41
32.92
30.7
28.36
26.38
24.94
23.85
22.67
20.94
18.37
15.03
11.26
7.59
4.43
1.87
-0.37
-2.81
-5.97
-10.2
-15.54
-21.81
-28.57
-35.14
-40.58
-43.77
-43.71
-39.87
-32.53
-22.76
-12.1
-2.02
6.59
13.58
19.28
24.11
28.17
31.23
32.9
32.98
31.68
29.51
27.12
24.98
23.23
21.74
20.24
18.45
16.27
13.73
11.0
8.23
5.53
2.87
0.13
-2.89
-6.3
-10.2
-14.63
-19.59
-25.14
-31.14
-37.23
-42.63
-46.19
-46.75
-43.59
-36.73
-27.04
-15.93
-4.93
4.84
12.89
19.25
24.26
28.17
31.1
32.96
33.67
33.3
32.08
30.33
28.36
26.39
24.52
22.88
21.52
20.41
19.38
18.15
16.38
13.89
10.71
7.12
3.44
-0.11
-3.52
-6.98
-10.72
-14.93
-19.76
-25.23
-31.23
-37.31
-42.63
-46.05
-46.42
-43.12
-36.28
-26.88
-16.39
-6.26
2.54
9.67
15.3
19.74
23.2
25.68
27.04
27.25
26.44
24.95
23.16
21.44
19.98
18.83
17.85
16.87
15.71
14.25
12.45
10.35
8.03
5.63
3.25
0.92
-1.43
-3.95
-6.76
-10.0
-13.78
-18.17
-23.2
-28.63
-33.88
-37.96
-39.76
-38.37
-33.53
-25.84
-16.57
-7.2
1.09
7.76
12.86
16.76
19.8
22.05
23.41
23.76
23.19
21.99
20.62
19.5
18.82
18.53
18.36
17.91
16.86
15.0
12.41
9.33
6.08
2.97
0.09
-2.65
-5.51
-8.81
-12.78
-17.54
-22.99
-28.87
-34.65
-39.57
-42.71
-43.16
-40.35
-34.27
-25.58
-15.46
-5.29
3.84
11.36
17.24
21.8
25.39
28.14
29.93
30.56
29.96
28.37
26.24
24.13
22.41
21.24
20.47
19.82
18.98
17.73
15.92
13.53
10.6
7.3
3.8
0.32
-3.03
-6.26
-9.5
-13.01
-17.1
-22.04
-27.95
-34.62
-41.37
-47.1
-50.45
-50.32
-46.25
-38.71
-28.94
-18.49
-8.72
-0.39
6.4
11.92
16.48
20.24
23.1
24.93
25.74
25.66
24.95
23.86
22.54
21.03
19.41
17.8
16.35
15.21
14.4
13.71
12.79
11.28
8.96
5.9
2.38
-1.16
-4.38
-7.13
-9.59
-12.13
-15.27
-19.44
-24.79
-31.01
-37.21
-42.11
-44.32
-42.81
-37.4
-28.79
-18.44
-8.0
1.21
8.55
14.09
18.26
21.53
24.12
25.99
26.99
27.06
26.3
24.97
23.35
21.64
19.93
18.18
16.34
14.4
12.36
10.24
8.05
5.7
3.11
0.26
-2.81
-5.92
-8.91
-11.64
-14.18
-16.78
-19.83
-23.69
-28.52
-34.04
-39.49
-43.7
-45.38
-43.61
-38.19
-29.78
-19.75
-9.65
-0.7
6.52
12.06
16.33
19.75
22.41
24.19
24.84
24.25
22.61
20.39
18.17
16.45
15.49
15.14
15.02
14.65
13.59
11.69
9.05
6.0
2.89
-0.06
-2.86
-5.69
-8.78
-12.33
-16.45
-21.15
-26.34
-31.76
-36.88
-40.82
-42.53
-41.13
-36.27
-28.37
-18.57
-8.32
1.09
8.89
14.97
19.62
23.2
25.85
27.52
28.05
27.4
25.81
23.7
21.6
19.89
18.78
18.18
17.83
17.38
16.48
14.94
12.69
9.87
6.7
3.39
0.08
-3.3
-6.91
-10.99
-15.73
-21.22
-27.41
-34.03
-40.45
-45.74
-48.8
-48.63
-44.81
-37.67
-28.3
-18.11
-8.41
0.01
6.95
12.56
17.1
20.66
23.22
24.76
25.36
25.28
24.8
24.15
23.39
22.56
21.63
20.59
19.44
18.11
16.49
14.46
11.97
9.09
5.96
2.75
-0.43
-3.59
-6.82
-10.24
-14.0
-18.24
-23.1
-28.52
-34.17
-39.27
-42.68
-43.24
-40.17
-33.45
-23.88
-12.81
-1.67
8.45
17.02
24.02
29.65
34.13
37.54
39.86
41.12
41.46
41.16
40.5
39.7
38.89
38.06
37.14
36.01
34.61
32.91
31.0
29.05
27.27
25.75
24.48
23.3
21.95
20.27
18.2
15.73
12.86
9.44
5.26
0.24
-5.22
-10.15
-13.12
-12.75
-8.22
0.21
11.29
23.11
33.75
41.87
47.0
49.55
50.46
50.89
51.84
53.98
57.54
62.45
68.4
75.06
82.28
90.21
99.47
111.04
125.92
144.62
166.61
189.91
211.18
226.39
231.88
225.41
207.01
179.09
145.89
112.27
82.51
59.45
44.12
36.13
34.26
37.12
43.53
52.52
63.17
74.42
85.03
93.7
99.39
101.4
99.48
93.73
84.64
72.93
59.55
45.5
31.67
18.71
6.95
-3.49
-12.69
-20.82
-28.13
-34.95
-41.66
-48.55
-55.7
-63.01
-70.21
-77.08
-83.62
-90.05
-96.62
-103.47
-110.32
-116.49
-121.11
-123.38
-122.89
-119.8
-114.78
-108.82
-102.91
-97.73
-93.54
-90.22
-87.57
-85.47
-83.98
-83.23
-83.09
-83.04
-82.13
-79.29
-73.83
-65.78
-55.99
-45.94
-37.25
-31.22
-28.43
-28.75
-31.46
-35.54
-39.85
-43.52
-46.02
-47.3
-47.72
-47.88
-48.4
-49.65
-51.72
-54.48
-57.87
-62.04
-67.3
-73.99
-82.18
-91.53
-101.38
-110.86
-118.98
-124.78
-127.3
-125.81
-120.14
-110.94
-99.66
-88.21
-78.28
-70.8
-65.6
-61.72
-57.93
-53.36
-47.77
-41.43
-34.81
-28.15
-21.33
-14.05
-6.2
1.95
9.62
15.72
19.26
19.83
17.86
14.65
11.94
11.36
13.77
18.95
25.52
31.51
34.85
34.01
28.19
17.41
2.33
-15.85
-35.55
-54.96
-72.17
-85.54
-93.96
-97.1
-95.4
-89.77
-81.33
-71.09
-59.94
-48.62
-37.85
-28.26
-20.21
-13.85
-9.07
-5.69
-3.69
-3.24
-4.63
-8.02
-13.19
-19.38
-25.37
-29.68
-30.86
-27.93
-20.88
-10.92
-0.53
7.3
10.1
6.78
-1.85
-13.65
-26.12
-37.55
-47.49
-56.53
-65.53
-75.05
-85.11
-95.57
-106.54
-118.4
-131.4
-145.02
-157.78
-167.81
-173.89
-176.41
-177.44
-179.94
-186.29
-197.2
-211.5
-227.0
-241.65
-254.35
-264.75
-272.31
-275.62
-272.29
-259.84
-237.05
-204.7
-165.4
-122.42
-78.3
-33.97
10.99
57.32
104.76
151.51
194.54
230.74
258.21
276.79
287.91
293.63
295.7
295.05
291.87
286.14
278.07
268.27
257.5
246.36
235.04
223.36
211.02
197.85
183.88
169.43
154.97
141.06
128.22
116.87
107.27
99.54
93.65
89.54
87.09
86.11
86.22
86.77
86.89
85.6
82.11
76.09
67.79
57.99
47.72
37.94
29.25
21.77
15.22
9.17
3.24
-2.74
-8.74
-14.67
-20.49
-26.38
-32.73
-40.02
-48.6
-58.33
-68.5
-77.94
-85.4
-90.02
-91.59
-90.54
-87.51
-82.89
-76.67
-68.55
-58.37
-46.54
-34.13
-22.54
-13.12
-6.67
-3.44
-3.17
-5.24
-8.91
-13.29
-17.52
-20.83
-22.75
-23.18
-22.47
-21.16
-19.86
-19.06
-19.05
-20.0
-21.98
-24.96
-28.82
-33.45
-38.72
-44.48
-50.49
-56.19
-60.67
-62.75
-61.2
-55.22
-44.71
-30.39
-13.66
3.77
20.28
34.52
45.54
52.8
56.13
55.71
52.15
46.39
39.54
32.53
25.93
19.82
13.9
7.73
0.99
-6.34
-14.11
-22.07
-30.05
-38.12
-46.51
-55.61
-65.72
-76.9
-88.63
-99.87
-109.01
-114.3
-114.41
-108.78
-97.86
-82.91
-65.46
-46.96
-28.54
-11.16
4.19
16.24
23.54
24.86
19.71
8.93
-5.23
-19.41
-29.96
-33.85
-29.48
-16.93
2.23
25.43
49.79
72.71
92.25
107.45
118.39
126.02
131.73
136.79
141.92
147.21
152.46
157.66
163.34
170.36
179.45
190.61
202.92
214.8
224.79
232.15
237.19
240.88
244.29
247.78
250.72
251.69
249.13
241.95
230.08
214.49
196.8
178.83
162.14
147.93
136.89
129.06
123.5
118.1
109.72
95.08
72.08
41.12
5.43
-29.72
-58.98
-78.88
-89.07
-92.1
-91.87
-91.92
-94.13
-98.71
-104.99
-112.38
-120.8
-130.41
-140.81
-150.61
-157.55
-159.27
-154.42
-143.27
-127.76
-110.69
-94.77
-81.62
-71.5
-63.7
-57.2
-51.42
-46.46
-43.0
-41.72
-42.84
-45.94
-50.07
-54.17
-57.51
-59.84
-61.5
-63.15
-65.43
-68.68
-72.77
-77.09
-80.81
-83.25
-84.13
-83.78
-82.96
-82.57
-83.27
-85.31
-88.54
-92.63
-97.34
-102.62
-108.53
-114.83
-120.81
-125.23
-126.63
-123.98
-117.1
-106.89
-95.01
-83.34
-73.26
-65.46
-59.86
-56.17
-54.18
-54.01
-55.97
-60.21
-66.57
-74.53
-83.57
-93.49
-104.42
-116.67
-130.22
-144.53
-158.52
-170.94
-180.83
-187.85
-192.22
-194.38
-194.58
-192.69
-188.32
-181.14
-171.15
-158.63
-143.95
-127.15
-107.78
-85.09
-58.44
-27.89
5.56
40.12
73.68
104.55
131.8
155.43
175.89
193.55
208.42
220.13
228.2
232.49
233.3
231.17
226.6
219.66
210.0
196.99
180.13
159.43
135.66
110.12
84.31
59.48
36.26
14.75
-5.27
-23.98
-41.31
-56.97
-70.61
-82.05
-91.17
-97.89
-102.01
-103.22
-101.33
-96.54
-89.49
-81.1
-72.15
-62.98
-53.61
-43.82
-33.61
-23.36
-13.77
-5.58
0.75
5.21
8.19
10.27
11.98
13.59
14.99
15.92
16.08
15.43
14.16
12.71
11.48
10.65
10.06
9.25
7.7
4.97
0.84
-4.68
-11.38
-18.84
-26.29
-32.62
-36.6
-37.16
-33.82
-26.83
-17.14
-5.95
5.62
16.82
27.28
36.88
45.49
52.9
58.87
63.26
66.06
67.44
67.64
67.0
65.84
64.49
63.16
61.99
60.95
59.87
58.53
56.67
54.09
50.66
46.4
41.44
36.05
30.55
25.17
19.98
14.8
9.27
2.86
-4.81
-13.8
-23.63
-33.16
-40.76
-44.79
-44.13
-38.59
-29.01
-16.95
-4.07
8.38
19.78
30.02
39.19
47.21
53.83
58.74
61.86
63.45
64.09
64.44
64.93
65.65
66.34
66.64
66.31
65.36
64.07
62.79
61.67
60.52
58.85
56.11
51.99
46.63
40.54
34.43
28.76
23.63
18.71
13.41
7.16
-0.43
-9.42
-19.55
-30.11
-39.93
-47.53
-51.45
-50.69
-45.09
-35.5
-23.43
-10.53
1.89
13.17
23.2
32.1
39.91
46.46
51.43
54.62
56.1
56.28
55.77
55.17
54.8
54.7
54.61
54.23
53.4
52.18
50.8
49.47
48.15
46.58
44.32
41.02
36.59
31.3
25.65
20.17
15.14
10.52
5.87
0.61
-5.79
-13.51
-22.24
-31.08
-38.7
-43.61
-44.63
-41.25
-33.85
-23.66
-12.33
-1.41
8.12
15.97
22.37
27.71
32.22
35.79
38.14
39.06
38.66
37.37
35.85
34.67
34.16
34.27
34.72
35.17
35.33
35.09
34.42
33.29
31.58
29.14
25.83
21.7
16.94
11.86
6.73
1.66
-3.52
-9.17
-15.64
-23.0
-30.85
-38.19
-43.71
-46.1
-44.55
-39.04
-30.38
-19.9
-9.04
1.09
9.96
17.49
23.89
29.32
33.78
37.07
39.01
39.57
38.99
37.69
36.15
34.72
33.57
32.61
31.69
30.62
29.28
27.58
25.43
22.78
19.58
15.88
11.83
7.63
3.44
-0.64
-4.7
-8.94
-13.7
-19.24
-25.64
-32.66
-39.63
-45.55
-49.22
-49.64
-46.32
-39.48
-30.04
-19.33
-8.62
1.18
9.67
16.84
22.8
27.54
30.93
32.81
33.18
32.28
30.57
28.54
26.53
24.68
22.96
21.34
19.83
18.53
17.59
17.06
16.76
16.38
15.47
13.71
11.02
7.61
3.93
0.36
-2.9
-5.96
-9.22
-13.19
-18.28
-24.65
-32.05
-39.83
-46.94
-52.15
-54.31
-52.69
-47.29
-38.89
-28.81
-18.44
-8.86
-0.59
6.41
12.4
17.57
21.87
25.08
26.98
27.62
27.28
26.47
25.63
25.02
24.69
24.5
24.3
23.96
23.41
22.58
21.4
19.73
17.49
14.69
11.46
8.02
4.56
1.17
-2.24
-5.85
-9.96
-14.82
-20.56
-27.03
-33.72
-39.73
-43.92
-45.24
-43.13
-37.75
-29.99
-21.17
-12.53
-4.89
1.53
6.95
11.65
15.77
19.13
21.43
22.46
22.28
21.22
19.77
18.34
17.18
16.3
15.55
14.74
13.68
12.22
10.31
7.98
5.35
2.55
-0.25
-2.98
-5.65
-8.4
-11.48
-15.17
-19.69
-25.2
-31.57
-38.4
-44.9
-49.97
-52.49
-51.58
-46.99
-39.23
-29.42
-18.98
-9.13
-0.57
6.59
12.54
17.53
21.61
24.56
26.14
26.27
25.17
23.36
21.4
19.72
18.54
17.82
17.4
17.1
16.7
15.99
14.75
12.77
9.97
6.44
2.44
-1.72
-5.76
-9.6
-13.35
-17.26
-21.64
-26.75
-32.68
-39.24
-45.88
-51.65
-55.41
-56.15
-53.29
-47.01
-38.16
-28.01
-17.8
-8.36
-0.01
7.32
13.81
19.47
24.13
27.52
29.44
29.93
29.28
27.92
26.26
24.55
22.91
21.33
19.81
18.4
17.16
16.17
15.35
14.45
13.09
10.93
7.86
4.07
0.01
-3.86
-7.28
-10.36
-13.52
-17.32
-22.21
-28.31
-35.33
-42.54
-48.85
-53.05
-54.1
-51.46
-45.31
-36.52
-26.37
-16.14
-6.7
1.58
8.73
14.83
19.9
23.77
26.3
27.54
27.78
27.51
27.18
27.02
26.97
26.8
26.31
25.45
24.42
23.57
23.13
23.08
23.12
22.66
21.16
18.3
14.14
9.13
3.87
-1.1
-5.48
-9.34
-12.99
-16.89
-21.5
-27.08
-33.55
-40.42
-46.75
-51.35
-53.04
-51.13
-45.62
-37.29
-27.42
-17.33
-7.99
0.11
6.93
12.57
17.11
20.53
22.77
23.9
24.08
23.58
22.69
21.63
20.52
19.44
18.43
17.5
16.65
15.81
14.87
13.68
12.13
10.18
7.89
5.36
2.67
-0.17
-3.17
-6.41
-9.97
-13.94
-18.44
-23.59
-29.34
-35.44
-41.22
-45.66
-47.64
-46.25
-41.22
-33.04
-22.89
-12.22
-2.35
5.96
12.54
17.63
21.58
24.55
26.49
27.23
26.73
25.24
23.29
21.41
20.01
19.13
18.53
17.87
16.93
15.66
14.18
12.59
10.84
8.74
6.03
2.6
-1.41
-5.65
-9.68
-13.26
-16.37
-19.36
-22.7
-26.84
-31.97
-37.81
-43.63
-48.31
-50.7
-49.92
-45.7
-38.49
-29.26
-19.17
-9.31
-0.36
7.36
13.79
18.97
22.9
25.62
27.22
27.9
27.94
27.69
27.37
27.06
26.71
26.15
25.26
24.0
22.48
20.88
19.36
17.93
16.44
14.61
12.18
9.06
5.35
1.36
-2.54
-6.14
-9.45
-12.77
-16.58
-21.33
-27.24
-34.1
-41.21
-47.44
-51.57
-52.55
-49.87
-43.76
-35.14
-25.28
-15.46
-6.56
1.06
7.48
12.97
17.71
21.65
24.6
26.36
26.95
26.62
25.75
24.68
23.62
22.58
21.54
20.5
19.55
18.8
18.27
17.85
17.19
15.91
13.71
10.55
6.7
2.58
-1.38
-4.95
-8.19
-11.42
-15.04
-19.42
-24.74
-30.97
-37.71
-44.24
-49.53
-52.43
-52.02
-47.96
-40.67
-31.25
-21.09
-11.41
-2.96
4.1
9.86
14.48
17.96
20.23
21.3
21.46
21.17
20.95
21.05
21.46
21.96
22.3
22.41
22.4
22.45
22.63
22.76
22.47
21.37
19.24
16.16
12.44
8.5
4.73
1.32
-1.69
-4.46
-7.24
-10.39
-14.21
-18.83
-23.96
-28.86
-32.37
-33.32
-30.94
-25.19
-16.88
-7.35
1.97
10.08
16.52
21.4
25.05
27.78
29.66
30.58
30.45
29.35
27.65
25.82
24.32
23.4
23.0
22.86
22.58
21.85
20.49
18.51
16.03
13.19
10.15
6.99
3.72
0.3
-3.37
-7.41
-11.93
-17.02
-22.65
-28.64
-34.56
-39.7
-43.15
-44.05
-41.87
-36.62
-28.97
-20.07
-11.16
-3.25
3.18
8.07
11.62
14.09
15.56
16.03
15.53
14.21
12.42
10.58
9.1
8.19
7.88
7.98
8.16
8.08
7.44
6.08
3.96
1.21
-1.97
-5.35
-8.81
-12.28
-15.79
-19.44
-23.38
-27.81
-32.84
-38.41
-44.14
-49.22
-52.53
-52.99
-49.93
-43.43
-34.34
-24.04
-13.94
-5.06
2.22
8.03
12.67
16.41
19.26
21.14
21.94
21.77
20.9
19.67
18.43
17.38
16.61
16.15
15.93
15.8
15.54
14.84
13.45
11.26
8.37
5.01
1.48
-2.07
-5.59
-9.21
-13.15
-17.59
-22.69
-28.5
-34.74
-40.84
-45.82
-48.53
-48.0
-43.8
-36.29
-26.51
-15.87
-5.68
3.2
10.43
16.06
20.32
23.41
25.44
26.45
26.52
25.82
24.58
23.1
21.61
20.28
19.15
18.18
17.23
16.19
14.96
13.44
11.57
9.3
6.59
3.48
0.1
-3.34
-6.62
-9.63
-12.4
-15.17
-18.3
-22.17
-26.95
-32.53
-38.32
-43.31
-46.25
-46.01
-41.99
-34.43
-24.41
-13.47
-3.16
5.49
12.14
17.06
20.78
23.73
26.07
27.75
28.67
28.85
28.48
27.88
27.31
26.96
26.8
26.69
26.41
25.76
24.6
22.86
20.54
17.67
14.29
10.47
6.25
1.74
-2.88
-7.47
-11.97
-16.45
-21.18
-26.39
-32.1
-37.89
-42.86
-45.84
-45.75
-42.05
-35.05
-25.78
-15.74
-6.4
1.27
6.92
10.72
13.05
14.2
14.27
13.23
11.15
8.31
5.2
2.42
0.41
-0.67
-1.05
-1.17
-1.51
-2.29
-3.52
-4.92
-6.15
-6.98
-7.39
-7.58
-7.88
-8.68
-10.31
-13.01
-16.86
-21.72
-27.11
-32.18
-35.81
-36.94
-34.87
-29.56
-21.74
-12.67
-3.69
4.14
10.33
14.89
18.13
20.35
21.71
22.16
21.67
20.36
18.56
16.83
15.65
15.33
15.81
16.64
17.28
17.16
16.03
13.93
11.19
8.25
5.41
2.75
0.09
-2.85
-6.33
-10.55
-15.59
-21.47
-28.0
-34.72
-40.77
-44.96
-46.1
-43.48
-37.19
-28.21
-18.05
-8.18
0.39
7.36
12.95
17.53
21.34
24.34
26.34
27.2
27.0
26.01
24.62
23.2
21.99
21.08
20.42
19.83
19.08
17.9
16.09
13.6
10.51
7.05
3.43
-0.21
-3.88
-7.68
-11.72
-16.14
-21.03
-26.47
-32.37
-38.37
-43.72
-47.3
-48.02
-45.14
-38.68
-29.45
-18.81
-8.17
1.48
9.68
16.42
21.89
26.24
29.44
31.44
32.23
31.98
30.97
29.59
28.13
26.79
25.63
24.58
23.51
22.24
20.6
18.45
15.75
12.59
9.2
5.82
2.64
-0.26
-3.01
-5.79
-8.88
-12.49
-16.81
-21.95
-27.83
-34.06
-39.81
-43.91
-45.17
-42.74
-36.55
-27.36
-16.56
-5.66
4.11
12.17
18.56
23.58
27.62
30.81
33.07
34.25
34.3
33.34
31.72
29.82
27.97
26.39
25.09
24.01
22.99
21.9
20.56
18.83
16.59
13.79
10.45
6.71
2.76
-1.16
-4.88
-8.4
-11.82
-15.47
-19.75
-24.93
-30.99
-37.38
-43.08
-46.77
-47.26
-43.94
-37.01
-27.48
-16.83
-6.5
2.51
9.83
15.59
20.14
23.67
26.15
27.38
27.24
25.92
23.9
21.85
20.34
19.6
19.46
19.45
19.01
17.78
15.67
12.9
9.84
6.89
4.23
1.78
-0.69
-3.51
-6.9
-10.92
-15.51
-20.56
-25.96
-31.51
-36.77
-40.95
-42.96
-41.8
-36.97
-28.78
-18.4
-7.43
2.65
10.86
16.97
21.24
24.09
25.85
26.6
26.32
25.05
22.98
20.49
18.04
15.98
14.57
13.84
13.63
13.67
13.65
13.31
12.5
11.2
9.52
7.53
5.29
2.77
-0.13
-3.53
-7.55
-12.32
-17.91
-24.25
-30.97
-37.33
-42.27
-44.62
-43.54
-38.83
-31.06
-21.4
-11.25
-1.84
6.12
12.4
17.2
20.79
23.39
25.06
25.76
25.51
24.45
22.93
21.36
20.1
19.33
18.97
18.75
18.3
17.35
15.73
13.49
10.71
7.56
4.18
0.73
-2.69
-6.01
-9.26
-12.57
-16.19
-20.46
-25.61
-31.62
-37.96
-43.64
-47.34
-47.86
-44.55
-37.6
-28.02
-17.31
-6.95
2.03
9.26
14.87
19.23
22.66
25.3
27.15
28.12
28.25
27.67
26.55
25.12
23.58
22.05
20.62
19.31
18.05
16.71
15.11
13.12
10.66
7.77
4.58
1.27
-1.97
-4.98
-7.73
-10.32
-12.98
-16.08
-19.95
-24.78
-30.37
-36.04
-40.7
-43.17
-42.48
-38.33
-31.15
-22.0
-12.21
-2.94
5.09
11.62
16.7
20.54
23.24
24.87
25.49
25.27
24.51
23.55
22.7
22.12
21.75
21.48
21.14
20.63
19.9
18.88
17.46
15.51
12.92
9.75
6.2
2.52
-1.01
-4.34
-7.62
-11.08
-15.04
-19.65
-24.98
-30.87
-36.88
-42.28
-46.06
-47.17
-44.82
-38.89
-30.07
-19.72
-9.4
-0.41
6.64
11.83
15.64
18.52
20.62
21.81
21.86
20.77
18.85
16.72
14.99
14.03
13.8
13.89
13.75
12.93
11.29
8.94
6.24
3.51
0.98
-1.36
-3.67
-6.17
-9.04
-12.38
-16.24
-20.65
-25.62
-30.94
-36.08
-40.15
-42.02
-40.73
-35.89
-27.9
-17.91
-7.42
2.21
10.13
16.13
20.45
23.45
25.39
26.34
26.24
25.09
23.05
20.49
17.88
15.67
14.15
13.35
13.07
12.9
12.41
11.26
9.3
6.6
3.39
-0.1
-3.67
-7.24
-10.8
-14.39
-18.05
-21.88
-26.08
-30.81
-36.08
-41.48
-46.11
-48.76
-48.27
-44.09
-36.52
-26.65
-15.98
-5.86
2.89
10.1
16.0
20.85
24.73
27.49
28.97
29.12
28.15
26.42
24.32
22.17
20.12
18.26
16.6
15.13
13.84
12.63
11.36
9.88
8.06
5.86
3.26
0.35
-2.8
-6.11
-9.55
-13.15
-17.09
-21.62
-26.96
-33.09
-39.53
-45.27
-49.0
-49.46
-45.96
-38.67
-28.6
-17.27
-6.25
3.4
11.23
17.36
22.14
25.89
28.71
30.55
31.31
31.02
29.88
28.2
26.3
24.45
22.81
21.42
20.25
19.18
18.02
16.57
14.64
12.17
9.22
6.01
2.81
-0.22
-3.09
-5.96
-9.12
-12.83
-17.29
-22.56
-28.48
-34.6
-40.12
-44.0
-45.16
-42.86
-37.01
-28.29
-17.98
-7.58
1.68
9.11
14.6
18.38
20.79
22.05
22.26
21.48
19.88
17.8
15.71
14.05
13.07
12.74
12.72
12.55
11.8
10.25
7.95
5.18
2.29
-0.41
-2.84
-5.11
-7.45
-10.13
-13.43
-17.52
-22.48
-28.17
-34.08
-39.29
-42.65
-43.03
-39.79
-33.05
-23.71
-13.22
-3.0
5.9
13.06
18.55
22.69
25.67
27.5
28.07
27.34
25.53
23.13
20.75
18.87
17.71
17.12
16.74
16.11
14.92
13.02
10.52
7.6
4.49
1.37
-1.67
-4.69
-7.85
-11.41
-15.65
-20.78
-26.77
-33.23
-39.29
-43.79
-45.53
-43.68
-38.18
-29.72
-19.6
-9.3
0.01
7.73
13.82
18.54
22.24
25.06
26.96
27.86
27.74
26.78
25.31
23.73
22.33
21.23
20.34
19.4
18.14
16.39
14.13
11.5
8.73
5.95
3.22
0.39
-2.72
-6.28
-10.34
-14.88
-19.87
-25.27
-30.94
-36.49
-41.22
-44.12
-44.2
-40.88
-34.27
-25.18
-14.88
-4.65
4.61
12.48
18.95
24.16
28.17
30.92
32.3
32.33
31.2
29.29
27.1
25.02
23.35
22.14
21.29
20.59
19.81
18.77
17.36
15.55
13.38
10.9
8.18
5.25
2.13
-1.16
-4.66
-8.43
-12.64
-17.49
-23.15
-29.52
-36.11
-42.03
-46.02
-46.88
-43.87
-37.05
-27.36
-16.33
-5.54
3.79
11.14
16.63
20.75
23.95
26.46
28.23
29.06
28.83
27.69
25.96
24.13
22.61
21.59
20.97
20.46
19.64
18.18
15.98
13.19
10.11
7.01
4.08
1.37
-1.24
-3.89
-6.73
-9.9
-13.62
-18.09
-23.4
-29.35
-35.27
-40.04
-42.38
-41.26
-36.37
-28.25
-18.23
-7.92
1.3
8.65
14.08
17.96
20.81
22.91
24.27
24.75
24.3
23.09
21.55
20.12
19.17
18.7
18.44
17.92
16.78
14.83
12.22
9.27
6.36
3.67
1.16
-1.4
-4.32
-7.87
-12.17
-17.24
-22.97
-29.04
-34.87
-39.52
-41.93
-41.18
-36.9
-29.49
-20.03
-9.96
-0.6
7.22
13.33
17.96
21.46
24.03
25.65
26.18
25.58
24.05
22.05
20.13
18.74
17.98
17.67
17.36
16.59
15.04
12.66
9.61
6.22
2.75
-0.6
-3.79
-6.94
-10.23
-13.82
-17.93
-22.67
-28.07
-33.93
-39.72
-44.51
-47.14
-46.53
-42.11
-34.15
-23.69
-12.37
-1.78
7.02
13.69
18.56
22.2
25.09
27.32
28.68
28.87
27.84
25.87
23.53
21.43
19.98
19.21
18.85
18.47
17.72
16.44
14.71
12.65
10.38
7.93
5.33
2.54
-0.39
-3.44
-6.64
-10.18
-14.33
-19.35
-25.24
-31.54
-37.34
-41.36
-42.36
-39.61
-33.16
-23.92
-13.29
-2.77
6.55
14.17
20.1
24.61
27.97
30.29
31.53
31.7
30.96
29.61
28.03
26.51
25.23
24.16
23.23
22.38
21.52
20.6
19.5
18.04
16.08
13.57
10.59
7.38
4.14
0.99
-2.11
-5.36
-9.01
-13.31
-18.41
-24.26
-30.45
-36.18
-40.33
-41.75
-39.67
-34.05
-25.7
-16.04
-6.63
1.31
7.24
11.26
13.8
15.32
16.02
15.92
14.92
13.15
10.97
8.91
7.41
6.63
6.34
6.05
5.28
3.83
1.89
-0.11
-1.68
-2.58
-2.91
-3.09
-3.63
-4.96
-7.3
-10.69
-14.98
-19.89
-24.96
-29.51
-32.69
-33.65
-31.83
-27.16
-20.15
-11.76
-3.12
4.79
11.31
16.14
19.22
20.61
20.46
18.98
16.53
13.57
10.56
7.84
5.49
3.31
0.97
-1.83
-5.2
-8.99
-12.9
-16.57
-19.76
-22.47
-24.9
-27.37
-30.24
-33.8
-38.14
-43.03
-47.92
-51.93
-54.03
-53.33
-49.36
-42.2
-32.5
-21.27
-9.6
1.58
11.6
20.01
26.51
30.88
33.07
33.23
31.86
29.65
27.39
25.66
24.68
24.26
23.93
23.22
21.86
19.85
17.45
14.89
12.29
9.57
6.52
2.86
-1.59
-6.88
-12.89
-19.26
-25.31
-30.16
-32.8
-32.44
-28.78
-22.21
-13.69
-4.51
4.14
11.4
16.87
20.47
22.26
22.36
20.94
18.34
15.06
11.74
8.97
7.09
6.04
5.44
4.78
3.62
1.82
-0.46
-2.89
-5.2
-7.32
-9.49
-12.07
-15.5
-19.99
-25.37
-31.02
-35.92
-38.93
-39.11
-36.06
-30.0
-21.78
-12.5
-3.18
5.43
12.93
19.16
23.94
27.12
28.56
28.31
26.73
24.41
21.97
19.84
18.11
16.62
15.07
13.29
11.25
9.1
7.05
5.14
3.3
1.3
-1.19
-4.43
-8.64
-13.84
-19.8
-25.92
-31.24
-34.6
-35.03
-32.09
-26.08
-17.98
-9.03
-0.33
7.5
14.33
20.35
25.72
30.35
33.96
36.2
36.96
36.4
34.97
33.21
31.6
30.33
29.34
28.34
26.96
24.96
22.3
19.18
15.96
12.93
10.21
7.69
5.02
1.77
-2.38
-7.59
-13.69
-20.18
-26.26
-30.89
-33.06
-32.1
-27.91
-21.05
-12.52
-3.5
5.08
12.7
19.23
24.73
29.24
32.7
35.02
36.15
36.22
35.49
34.26
32.74
31.07
29.33
27.63
26.1
24.84
23.85
22.98
21.93
20.4
18.23
15.42
12.17
8.71
5.24
1.8
-1.68
-5.38
-9.53
-14.32
-19.78
-25.68
-31.43
-36.09
-38.58
-38.04
-34.16
-27.33
-18.57
-9.19
-0.35
