1.09
-1.34
-4.12
-7.43
-11.37
-15.97
-21.2
-26.9
-32.7
-37.9
-41.51
-42.58
-40.46
-35.14
-27.25
-17.92
-8.31
0.71
8.71
15.61
21.38
25.92
28.95
30.22
29.75
27.95
25.56
23.33
21.84
21.21
21.22
21.46
21.56
21.28
20.53
19.32
17.59
15.32
12.52
9.33
5.95
2.6
-0.67
-3.95
-7.46
-11.52
-16.4
-22.22
-28.87
-35.84
-42.21
-46.82
-48.53
-46.63
-41.07
-32.6
-22.44
-11.95
-2.15
6.38
13.54
19.44
24.15
27.66
29.9
30.87
30.73
29.82
28.52
27.18
25.97
24.95
24.02
23.12
22.2
21.24
20.23
19.07
17.63
15.74
13.32
10.37
7.05
3.57
0.13
-3.21
-6.53
-10.08
-14.21
-19.17
-24.96
-31.21
-37.09
-41.55
-43.51
-42.22
-37.55
-30.07
-20.8
-10.98
-1.6
6.71
13.79
19.7
24.51
28.21
30.67
31.84
31.81
30.91
29.57
28.15
26.87
25.73
24.62
23.47
22.23
20.97
19.69
18.35
16.79
14.82
12.32
9.34
6.07
2.84
-0.11
-2.69
-5.06
-7.62
-10.8
-14.98
-20.19
-26.11
-31.98
-36.77
-39.4
-39.01
-35.25
-28.46
-19.62
-10.02
-0.91
6.86
13.03
17.74
21.32
24.01
25.84
26.73
26.59
25.58
24.0
22.28
20.81
19.78
19.15
18.72
18.24
17.53
16.48
15.12
13.5
11.67
9.65
7.41
4.94
2.29
-0.48
-3.27
-6.09
-9.13
-12.7
-17.11
-22.44
-28.29
-33.78
-37.69
-38.92
-36.88
-31.77
-24.48
-16.25
-8.23
-1.15
4.75
9.55
13.41
16.43
18.52
19.61
19.7
18.97
17.71
16.28
14.93
13.82
12.98
12.37
11.95
11.66
11.46
11.21
10.76
9.95
8.64
6.85
4.7
2.44
0.28
-1.65
-3.38
-5.15
-7.3
-10.13
-13.85
-18.38
-23.32
-27.92
-31.24
-32.4
-30.82
-26.45
-19.83
-11.92
-3.72
3.97
10.76
16.64
21.78
26.28
30.1
33.05
34.97
35.85
35.87
35.4
34.86
34.53
34.52
34.72
34.83
34.5
33.46
31.55
28.73
25.11
20.79
15.93
10.69
5.25
-0.18
-5.45
-10.47
-15.3
-20.1
-25.08
-30.43
-36.27
-42.55
-49.14
-55.82
-62.23
-67.85
-71.95
-73.66
-72.05
-66.41
-56.46
-42.46
-25.15
-5.51
15.52
37.19
58.99
80.49
101.2
120.47
137.55
151.72
162.35
169.08
171.9
171.26
168.11
163.7
159.4
156.33
155.15
155.87
157.89
159.99
160.65
158.3
151.79
140.78
125.93
108.7
90.82
73.68
57.9
43.33
29.37
15.43
1.25
-12.98
-26.81
-39.66
-50.96
-60.21
-67.02
-71.22
-72.9
-72.48
-70.63
-68.13
-65.72
-63.99
-63.18
-63.27
-63.94
-64.76
-65.37
-65.54
-65.27
-64.73
-64.1
-63.48
-62.86
-62.08
-61.04
-59.69
-58.18
-56.74
-55.68
-55.27
-55.7
-57.11
-59.51
-62.86
-67.01
-71.74
-76.79
-81.89
-86.87
-91.62
-95.98
-99.69
-102.28
-103.11
-101.56
-97.27
-90.34
-81.43
-71.58
-61.88
-53.18
-45.94
-40.14
-35.54
-31.93
-29.23
-27.49
-26.72
-26.77
-27.2
-27.45
-27.04
-25.83
-23.99
-22.04
-20.51
-19.73
-19.69
-20.03
-20.34
-20.32
-19.97
-19.57
-19.51
-20.11
-21.57
-23.85
-26.81
-30.11
-33.24
-35.5
-36.12
-34.45
-30.2
-23.59
-15.3
-6.29
2.44
10.1
16.13
20.25
22.33
22.41
20.66
17.42
13.2
8.63
4.38
0.99
-1.27
-2.42
-2.77
-2.72
-2.67
-2.84
-3.25
-3.85
-4.61
-5.55
-6.81
-8.64
-11.28
-14.94
-19.69
-25.41
-31.69
-37.84
-42.9
-45.89
-45.98
-42.7
-36.14
-26.92
-16.1
-4.91
5.51
14.3
20.96
25.3
27.35
27.25
25.19
21.48
16.57
11.07
5.76
1.34
-1.73
-3.33
-3.77
-3.63
-3.47
-3.63
-4.08
-4.5
-4.48
-3.81
-2.6
-1.3
-0.53
-0.76
-2.2
-4.6
-7.26
-9.21
-9.34
-6.69
-0.74
8.55
20.59
34.36
48.59
62.0
73.5
82.26
87.8
89.96
88.94
85.24
79.64
73.04
66.37
60.33
55.36
51.51
48.55
46.18
44.21
42.74
42.19
43.14
46.03
50.74
56.43
61.5
63.94
61.9
54.33
41.43
24.77
6.94
-9.1
-20.87
-26.97
-27.4
-23.36
-16.88
-10.17
-5.23
-3.53
-6.01
-13.03
-24.4
-39.33
-56.49
-74.18
-90.62
-104.28
-114.19
-119.96
-121.76
-120.14
-115.97
-110.27
-104.08
-98.34
-93.62
-90.08
-87.43
-85.23
-83.09
-80.92
-78.95
-77.54
-76.99
-77.35
-78.33
-79.26
-79.3
-77.48
-73.0
-65.38
-54.72
-41.71
-27.55
-13.63
-1.16
9.13
17.02
22.66
26.31
28.17
28.32
26.9
24.26
21.03
18.05
16.07
15.52
16.29
17.83
19.36
20.27
20.28
19.56
18.53
17.54
16.7
15.7
13.97
10.94
6.26
-0.02
-7.5
-15.46
-22.99
-29.08
-32.68
-32.94
-29.39
-22.14
-11.91
0.08
12.44
23.89
33.54
40.85
45.64
47.91
47.86
45.9
42.67
38.98
35.63
33.19
31.79
31.07
30.35
28.93
26.38
22.81
18.74
14.97
12.15
10.46
9.58
8.84
7.52
5.12
1.49
-3.23
-8.54
-13.68
-17.47
-18.45
-15.18
-6.83
6.39
23.06
40.87
57.33
70.63
80.06
85.94
89.2
90.75
91.1
90.25
87.98
84.11
78.7
72.0
64.29
55.74
46.34
36.07
25.1
14.0
3.69
-4.78
-10.65
-13.78
-14.69
-14.31
-13.6
-13.18
-13.24
-13.62
-14.08
-14.42
-14.35
-13.34
-10.56
-5.08
3.73
15.76
30.02
44.84
58.44
69.36
76.83
80.76
81.58
79.9
76.39
71.62
66.09
60.2
54.33
48.8
43.86
39.65
36.14
33.06
30.04
26.73
23.02
19.04
15.08
11.42
8.15
5.12
2.12
-1.01
-4.15
-7.1
-9.73
-12.29
-15.41
-19.95
-26.53
-35.18
-45.16
-55.2
-63.94
-70.4
-74.31
-76.12
-76.71
-77.11
-78.16
-80.33
-83.79
-88.26
-93.06
-97.15
-99.42
-98.98
-95.47
-89.25
-81.25
-72.61
-64.37
-57.15
-51.14
-46.2
-42.0
-38.26
-34.67
-31.11
-27.56
-24.24
-21.54
-19.87
-19.4
-19.74
-19.89
-18.43
-13.96
-5.72
6.11
20.35
35.28
49.16
60.85
70.02
77.03
82.69
87.85
93.19
98.98
104.99
110.31
113.5
112.9
107.25
96.24
80.65
62.22
43.02
24.77
8.54
-5.23
-16.5
-25.22
-31.38
-35.16
-37.1
-38.11
-39.37
-41.89
-46.12
-51.84
-58.17
-63.8
-67.48
-68.19
-65.56
-59.88
-52.04
-43.27
-34.75
-27.24
-20.78
-14.8
-8.38
-0.72
8.44
18.7
29.24
39.1
47.63
54.48
59.34
61.64
60.48
54.92
44.59
30.09
12.87
-5.21
-22.74
-39.21
-54.9
-70.25
-85.21
-98.93
-110.14
-117.91
-122.25
-124.23
-125.46
-127.22
-129.83
-132.61
-134.07
-132.65
-127.16
-117.06
-102.44
-83.95
-62.59
-39.71
-16.81
4.66
23.57
39.32
51.77
61.02
67.04
69.57
68.14
62.44
52.61
39.39
23.96
7.62
-8.49
-23.49
-36.69
-47.51
-55.51
-60.52
-62.96
-63.88
-64.75
-67.05
-71.72
-78.81
-87.34
-95.53
-101.26
-102.64
-98.53
-88.79
-74.28
-56.59
-37.52
-18.76
-1.6
13.14
24.94
33.47
38.58
40.41
39.51
36.87
33.73
31.22
30.02
30.16
31.09
32.03
32.32
31.6
29.99
27.8
25.29
22.57
19.5
15.82
11.24
5.46
-1.71
-10.3
-19.94
-29.7
-38.11
-43.46
-44.28
-39.91
-30.71
-18.0
-3.58
10.72
23.48
33.78
41.14
45.36
46.45
44.65
40.49
34.74
28.37
22.36
17.41
13.8
11.25
9.07
6.39
2.47
-3.02
-9.88
-17.56
-25.4
-32.95
-40.14
-47.34
-55.21
-64.43
-75.59
-88.93
-104.23
-120.65
-136.74
-150.6
-160.34
-164.56
-162.75
-155.42
-143.88
-129.82
-114.85
-100.26
-86.99
-75.67
-66.64
-60.0
-55.48
-52.46
-50.01
-47.08
-42.68
-36.06
-26.85
-15.15
-1.49
13.34
28.44
43.12
57.04
70.12
82.47
94.16
105.08
114.96
123.45
130.3
135.48
139.11
141.4
142.44
142.24
140.75
138.04
134.49
130.77
127.68
125.79
125.15
125.24
125.09
123.67
120.26
114.62
106.88
97.36
86.29
73.85
60.11
45.24
29.63
13.89
-1.16
-14.7
-26.2
-35.5
-42.82
-48.74
-53.85
-58.65
-63.46
-68.49
-73.99
-80.21
-87.27
-95.03
-103.03
-110.63
-117.34
-123.03
-127.92
-132.14
-135.38
-136.57
-134.15
-126.67
-113.43
-94.96
-72.77
-48.88
-25.08
-2.45
18.62
38.15
56.11
72.2
85.84
96.45
103.84
108.28
110.47
111.24
111.33
111.13
110.66
109.75
108.24
106.12
103.48
100.48
97.14
93.36
88.94
83.75
77.81
71.25
64.2
56.58
48.17
38.64
27.9
16.4
5.25
-3.92
-9.36
-9.85
-5.11
4.12
16.29
29.61
42.53
54.06
63.77
71.55
77.31
80.89
82.19
81.28
78.6
74.96
71.26
68.21
66.12
64.75
63.48
61.59
58.58
54.32
49.13
43.51
37.97
32.78
27.88
23.0
17.72
11.66
4.58
-3.46
-12.12
-20.73
-28.29
-33.66
-35.74
-33.81
-27.76
-18.21
-6.37
6.31
18.44
29.08
37.81
44.64
49.75
53.3
55.31
55.77
54.79
52.69
50.05
47.48
45.43
43.99
42.96
41.86
40.22
37.74
34.36
30.31
25.93
21.54
17.33
13.25
9.08
4.54
-0.66
-6.75
-13.8
-21.69
-29.93
-37.67
-43.74
-46.82
-45.9
-40.6
-31.45
-19.7
-6.97
5.26
16.05
25.07
32.43
38.37
43.06
46.52
48.71
49.67
49.59
48.72
47.34
45.58
43.52
41.2
38.71
36.18
33.7
31.32
28.9
26.26
23.23
19.74
15.91
11.88
7.79
3.7
-0.48
-4.95
-9.96
-15.8
-22.65
-30.42
-38.53
-45.86
-50.9
-52.19
-48.88
-41.14
-30.11
-17.54
-5.17
5.83
15.07
22.67
28.95
34.01
37.76
39.98
40.71
40.3
39.34
38.45
37.95
37.76
37.52
36.8
35.34
33.21
30.74
28.29
26.05
23.92
21.53
18.48
14.52
9.65
4.23
-1.28
-6.46
-11.13
-15.33
-19.37
-23.62
-28.45
-34.09
-40.51
-47.24
-53.47
-58.02
-59.71
-57.74
-52.0
-43.16
-32.49
-21.36
-10.89
-1.62
6.31
13.02
18.6
23.02
26.19
28.15
29.12
29.48
29.64
29.86
30.19
30.49
30.52
30.08
29.09
27.65
25.98
24.29
22.7
21.15
19.42
17.18
14.2
10.42
6.02
1.38
-3.07
-7.04
-10.43
-13.44
-16.44
-19.92
-24.27
-29.69
-36.06
-42.83
-49.05
-53.55
-55.22
-53.34
-47.87
-39.51
-29.45
-19.03
-9.3
-0.84
6.21
11.95
16.49
19.79
21.76
22.39
21.88
20.69
19.38
18.35
17.78
17.53
17.33
16.87
16.03
14.89
13.65
12.52
11.51
10.42
8.89
6.59
3.39
-0.59
-5.03
-9.49
-13.65
-17.38
-20.88
-24.5
-28.68
-33.75
-39.71
-46.13
-52.16
-56.65
-58.47
-56.86
-51.71
-43.67
-33.86
-23.58
-13.91
-5.44
1.7
7.63
12.49
16.3
18.97
20.46
20.91
20.7
20.33
20.19
20.42
20.87
21.18
21.03
20.28
19.05
17.62
16.27
15.07
13.9
12.45
10.39
7.5
3.72
-0.82
-5.85
-10.99
-15.85
-20.17
-23.86
-27.14
-30.38
-34.08
-38.58
-43.96
-49.87
-55.56
-59.98
-62.05
-60.96
-56.42
-48.78
-38.94
-28.08
-17.28
-7.33
1.41
8.9
15.17
20.23
23.99
26.39
27.41
27.3
26.45
25.35
24.43
23.89
23.68
23.57
23.3
22.71
21.82
20.81
19.84
18.98
18.16
17.12
15.66
13.62
11.05
8.09
4.96
1.83
-1.21
-4.18
-7.2
-10.44
-14.13
-18.45
-23.55
-29.41
-35.72
-41.83
-46.77
-49.53
-49.36
-46.04
-40.01
-32.17
-23.66
-15.52
-8.53
-3.14
0.45
2.36
2.99
3.03
3.32
4.6
7.24
11.1
15.57
19.81
23.08
25.04
25.93
26.51
27.77
30.64
35.6
42.48
50.53
58.62
65.73
71.26
75.18
77.95
80.15
82.25
84.36
86.25
87.53
87.74
86.57
83.96
80.09
75.51
70.95
67.28
65.11
64.72
65.95
68.36
71.33
74.39
77.24
79.71
81.63
82.78
82.87
81.6
78.68
73.98
67.49
59.47
50.38
40.88
31.56
22.73
14.3
5.99
-2.53
-11.21
-19.69
-27.44
-34.17
-40.02
-45.5
-51.21
-57.41
-63.82
-69.75
-74.47
-77.67
-79.53
-80.68
-81.93
-83.89
-86.84
-90.7
-95.16
-99.71
-103.66
-106.19
-106.42
-103.73
-98.01
-89.82
-80.22
-70.27
-60.65
-51.39
-42.14
-32.61
-22.97
-13.92
-6.39
-1.01
2.2
3.81
4.59
5.03
5.14
4.47
2.46
-1.27
-6.66
-13.21
-20.21
-26.96
-32.97
-38.04
-42.28
-45.92
-49.13
-51.95
-54.28
-56.05
-57.4
-58.79
-60.92
-64.53
-70.04
-77.48
-86.4
-96.01
-105.26
-112.88
-117.48
-117.67
-112.47
-101.68
-86.12
-67.48
-47.8
-28.78
-11.38
4.22
18.17
30.55
41.16
49.66
55.9
60.1
62.77
64.39
65.15
64.9
63.24
59.88
54.78
48.08
39.89
30.24
18.96
5.88
-9.09
-25.81
-43.91
-62.85
-81.97
-100.59
-118.04
-133.67
-146.87
-157.11
-163.91
-166.73
-164.9
-157.72
-144.74
-125.98
-102.38
-75.75
-48.45
-22.76
-0.24
18.56
34.01
46.81
57.43
65.89
71.88
75.25
76.4
76.44
76.82
78.87
83.27
89.88
97.82
105.94
113.21
119.06
123.51
127.0
130.07
133.12
136.28
139.65
143.36
147.61
152.48
157.81
163.15
167.83
171.09
172.14
170.27
165.0
156.5
145.85
135.01
126.31
121.37
120.3
121.49
122.45
121.07
116.72
110.44
104.2
99.73
97.69
97.67
98.82
100.54
102.84
106.16
110.76
116.28
121.69
125.59
126.7
124.24
117.98
108.12
95.08
79.39
61.5
42.06
21.75
1.16
-19.39
-40.1
-61.85
-85.95
-113.54
-144.65
-177.39
-207.95
-231.49
-244.0
-243.99
-233.35
-216.68
-199.57
-186.46
-179.47
-178.33
-181.35
-186.5
-192.15
-197.02
-200.01
-200.02
-196.32
-188.78
-178.1
-165.51
-152.23
-139.19
-126.73
-114.71
-102.77
-90.51
-77.63
-64.1
-50.21
-36.64
-24.45
-14.81
-8.86
-7.3
-10.25
-17.08
-26.53
-36.86
-46.22
-53.06
-56.55
-56.9
-55.24
-53.33
-52.92
-55.26
-60.79
-69.17
-79.52
-90.79
-101.87
-111.59
-118.66
-121.72
-119.58
-111.7
-98.36
-80.8
-60.82
-40.38
-21.05
-3.76
11.29
24.42
36.23
47.26
57.85
67.88
76.83
83.71
87.13
85.6
77.82
63.18
42.17
16.46
-11.14
-37.4
-59.44
-75.42
-84.84
-88.47
-87.74
-84.18
-79.1
-73.47
-68.15
-63.98
-61.84
-62.43
-66.06
-72.6
-81.63
-92.62
-105.28
-119.52
-135.3
-152.44
-170.37
-188.22
-204.91
-219.55
-231.56
-240.8
-247.56
-252.45
-256.23
-259.7
-263.48
-267.91
-272.79
-277.29
-279.89
-278.75
-272.14
-258.94
-239.05
-213.43
-183.74
-151.93
-119.71
-88.32
-58.44
-30.37
-4.15
20.41
43.72
66.5
89.82
114.87
142.58
173.07
205.11
236.15
262.85
281.98
291.6
291.63
283.76
270.62
254.69
237.55
219.6
200.58
180.18
158.47
135.87
112.81
89.39
65.46
40.87
16.12
-7.46
-27.86
-43.0
-51.58
-53.65
-50.65
-44.82
-38.37
-32.77
-28.43
-24.93
-21.53
-17.73
-13.51
-9.27
-5.57
-2.87
-1.33
-0.74
-0.72
-0.88
-0.99
-1.06
-1.25
-1.76
-2.64
-3.74
-4.77
-5.42
-5.55
-5.32
-5.16
-5.68
-7.5
-11.11
-16.68
-23.93
-32.1
-39.89
-45.73
-48.07
-45.81
-38.55
-26.68
-11.22
6.51
25.16
43.65
61.16
77.05
90.87
102.23
110.87
116.74
119.99
121.0
120.26
118.34
115.76
112.94
110.13
107.51
105.09
102.76
100.31
97.53
94.24
90.42
86.23
81.9
77.65
73.43
69.04
64.06
58.02
50.59
41.7
31.64
21.15
11.46
4.08
0.53
1.84
8.2
18.85
32.25
46.59
60.31
72.39
82.43
90.39
96.35
100.31
102.32
102.55
101.57
100.28
99.79
101.04
104.56
110.31
117.67
125.77
133.68
140.68
146.27
150.2
152.36
152.88
152.14
150.81
149.81
149.97
151.81
155.17
159.23
162.62
163.91
162.2
157.55
151.11
144.86
141.02
141.39
146.76
156.8
170.12
184.76
198.59
209.81
217.22
220.47
220.1
217.37
213.96
211.36
210.34
210.67
211.14
209.96
205.33
195.95
181.26
161.55
137.69
110.97
82.79
54.3
26.25
-1.21
-28.54
-56.68
-86.67
-119.06
-153.47
-188.22
-220.67
-248.02
-268.25
-280.99
-287.61
-290.72
-293.13
-296.95
-303.09
-311.39
-320.99
-330.71
-339.16
-344.68
-345.3
-338.97
-324.09
-299.95
-267.12
-227.41
-183.63
-139.01
-96.69
-59.11
-27.63
-2.45
17.27
32.95
46.03
57.5
67.71
76.5
83.53
88.62
91.96
94.06
95.47
96.58
97.36
97.55
96.76
94.83
91.87
88.16
84.05
79.66
74.94
69.69
63.65
56.52
47.92
37.31
24.2
8.53
-8.96
-26.61
-42.24
-53.8
-60.21
-61.62
-59.29
-54.99
-50.27
-46.18
-43.15
-41.36
-40.96
-42.22
-45.33
-50.22
-56.47
-63.35
-70.06
-75.99
-80.83
-84.56
-87.36
-89.41
-90.84
-91.69
-91.95
-91.62
-90.75
-89.43
-87.8
-85.93
-83.78
-81.23
-78.05
-74.05
-69.14
-63.42
-57.18
-50.94
-45.28
-40.84
-38.05
-37.02
-37.24
-37.68
-36.95
-33.74
-27.21
-17.39
-5.07
8.48
21.94
34.32
45.04
53.91
60.86
65.81
68.67
69.46
68.43
66.12
63.25
60.53
58.38
56.87
55.71
54.49
52.86
50.74
48.26
45.68
43.13
40.56
37.68
34.14
29.72
24.51
18.86
13.34
8.43
4.37
1.02
-2.12
-5.69
-10.21
-15.85
-22.22
-28.45
-33.37
-35.84
-35.03
-30.71
-23.24
-13.51
-2.69
8.07
17.77
25.75
31.67
35.41
37.11
37.01
35.45
32.86
29.69
26.44
23.55
21.34
19.92
19.13
18.66
18.14
17.34
16.19
14.77
13.16
11.29
9.01
6.11
2.49
-1.69
-6.12
-10.4
-14.24
-17.57
-20.6
-23.67
-27.22
-31.57
-36.91
-43.08
-49.58
-55.58
-60.01
-61.76
-60.06
-54.67
-45.98
-34.98
-22.9
-10.88
0.22
9.95
18.16
24.72
29.54
32.5
33.61
33.15
31.65
29.84
28.35
27.55
27.44
27.71
27.87
27.55
26.58
25.05
23.19
21.19
19.11
16.74
13.83
10.08
5.42
0.04
-5.63
-11.13
-16.04
-20.23
-23.88
-27.43
-31.45
-36.49
-42.84
-50.41
-58.51
-65.92
-71.08
-72.44
-69.02
-60.72
-48.46
-33.94
-19.08
-5.49
5.91
14.93
21.79
26.85
30.26
32.03
32.13
30.77
28.4
25.72
23.39
21.84
21.17
21.19
21.55
21.92
22.11
22.04
21.74
21.2
20.41
19.32
17.89
16.07
13.84
11.15
7.91
4.14
-0.04
-4.46
-8.91
-13.3
-17.74
-22.56
-28.16
-34.86
-42.66
-51.03
-58.97
-65.02
-67.65
-65.65
-58.58
-46.94
-32.12
-15.99
-0.37
13.4
24.65
33.24
39.29
43.0
44.52
44.13
42.3
39.74
37.22
35.32
34.22
33.68
33.17
32.23
30.66
28.65
26.62
24.98
23.79
22.74
21.19
18.47
14.21
8.51
1.93
-4.75
-10.87
-16.12
-20.58
-24.72
-29.11
-34.3
-40.63
-48.17
-56.58
-65.02
-72.16
-76.4
-76.29
-71.03
-60.8
-46.83
-31.01
-15.35
-1.43
9.9
18.46
24.47
28.23
29.96
29.83
28.07
25.1
21.58
18.23
15.67
14.18
13.67
13.71
13.75
13.33
12.31
10.83
9.24
7.78
6.39
4.66
2.07
-1.79
-6.87
-12.64
-18.29
-23.13
-26.86
-29.76
-32.46
-35.74
-40.2
-46.15
-53.54
-61.9
-70.31
-77.38
-81.47
-81.03
-75.13
-63.9
-48.57
-31.21
-14.01
1.25
13.66
23.11
30.04
34.96
38.19
39.61
38.7
34.71
26.96
15.14
-0.32
-18.25
-36.85
-54.13
-68.51
-79.11
-85.86
-89.32
-90.32
-89.7
-88.15
-86.21
-84.24
-82.3
-80.07
-76.86
-71.88
-64.53
-54.74
-43.06
-30.45
-17.87
-6.05
4.63
14.15
22.63
30.35
37.72
45.31
53.67
63.11
73.47
84.09
94.0
102.19
107.93
110.76
110.47
106.93
100.13
90.27
77.85
63.65
48.55
33.32
18.38
3.82
-10.47
-24.65
-38.65
-52.28
-65.11
-76.74
-86.88
-95.41
-102.37
-107.75
-111.49
-113.32
-113.04
-110.63
-106.46
-101.21
-95.72
-90.73
-86.7
-83.79
-81.98
-81.12
-80.87
-80.55
-79.05
-75.01
-67.21
-55.08
-38.99
-20.21
-0.52
18.35
35.1
49.09
60.2
68.63
74.69
78.72
81.11
82.23
82.53
82.35
81.92
81.35
80.63
79.72
78.54
77.09
75.32
73.2
70.64
67.52
63.73
59.21
54.02
48.34
42.45
36.63
31.07
25.73
20.32
14.32
7.22
-1.12
-10.23
-18.95
-25.55
-28.38
-26.38
-19.61
-9.2
3.01
15.19
26.0
34.82
41.62
46.58
49.86
51.45
51.33
49.65
46.82
43.48
40.32
37.86
36.35
35.65
35.39
35.07
34.23
32.62
30.21
27.15
23.72
20.12
16.44
12.66
8.68
4.39
-0.22
-5.23
-10.73
-16.89
-23.74
-30.95
-37.68
-42.52
-43.97
-40.98
-33.42
-22.33
-9.49
3.11
14.0
22.53
28.79
33.23
36.26
38.05
38.57
37.83
36.09
33.86
31.74
30.23
29.5
29.4
29.52
29.38
28.62
27.04
24.66
21.67
18.29
14.7
10.98
7.12
3.05
-1.32
-6.11
-11.49
-17.65
-24.76
-32.7
-40.91
-48.22
-53.1
-54.1
-50.32
-41.93
-30.04
-16.43
-2.89
9.23
19.31
27.32
33.5
38.12
41.33
43.19
43.8
43.41
42.36
41.05
39.8
38.79
38.06
37.53
37.09
36.57
35.76
34.4
32.26
29.16
25.08
20.19
14.8
9.27
3.92
-1.11
-5.86
-10.56
-15.64
-21.55
-28.58
-36.52
-44.49
-51.0
-54.27
-52.98
-46.74
-36.31
-23.38
-9.91
2.51
13.02
21.48
28.09
33.11
36.67
38.8
39.63
39.44
38.63
37.56
36.41
35.17
33.76
32.08
30.21
28.34
26.67
25.31
24.23
23.15
21.75
19.67
16.72
12.93
8.57
4.05
-0.28
-4.25
-8.01
-12.03
-16.86
-22.97
-30.38
-38.5
-46.15
-51.77
-53.85
-51.47
-44.64
-34.25
-21.93
-9.43
1.82
11.09
18.29
23.74
27.84
30.8
32.67
33.44
33.25
32.43
31.42
30.52
29.86
29.28
28.52
27.37
25.81
23.99
22.08
20.15
18.06
15.54
12.35
8.4
3.87
-0.9
-5.5
-9.72
-13.56
-17.25
-21.15
-25.63
-30.91
-36.89
-43.06
-48.44
-51.73
-51.71
-47.64
-39.68
-28.83
-16.71
-4.97
5.16
13.19
19.2
23.57
26.64
28.56
29.34
29.08
28.05
26.64
25.25
24.11
23.21
22.38
21.4
20.2
18.81
17.35
15.9
14.41
12.69
10.51
7.72
4.37
0.69
-2.99
-6.41
-9.51
-12.49
-15.76
-19.81
-25.0
-31.39
-38.53
-45.46
-50.82
-53.22
-51.65
-45.88
-36.58
-25.17
-13.31
-2.4
6.71
13.84
19.22
23.19
26.01
27.76
28.5
28.4
27.75
26.91
26.18
25.69
25.32
24.84
24.03
22.82
21.35
19.86
18.51
17.32
15.99
14.1
11.27
7.38
2.63
-2.54
-7.59
-12.14
-16.08
-19.64
-23.21
-27.26
-32.16
-38.01
-44.56
-51.1
-56.47
-59.3
-58.46
-53.47
-44.73
-33.49
-21.37
-9.89
0.0
7.99
14.23
19.04
22.64
25.1
26.42
26.76
26.44
25.89
25.46
25.28
25.19
24.88
24.04
22.57
20.71
18.85
17.36
16.35
15.56
14.43
12.43
9.29
5.14
0.5
-4.03
-7.95
-11.13
-13.81
-16.48
-19.71
-23.99
-29.48
-35.96
-42.76
-48.79
-52.76
-53.5
-50.33
-43.31
-33.28
-21.61
-9.77
1.03
10.13
17.36
22.85
26.83
29.52
31.08
31.77
31.91
31.85
31.86
31.97
31.97
31.45
30.0
27.44
23.93
19.9
15.85
12.16
8.87
5.74
2.41
-1.35
-5.47
-9.64
-13.46
-16.66
-19.26
-21.62
-24.22
-27.57
-31.95
-37.36
-43.33
-49.01
-53.22
-54.72
-52.63
-46.69
-37.47
-26.19
-14.37
-3.39
5.84
12.97
18.07
21.46
23.46
24.36
24.38
23.77
22.73
21.48
20.21
19.01
17.96
17.07
16.33
15.71
15.15
14.54
13.73
12.54
10.81
8.41
5.41
2.02
-1.43
-4.63
-7.43
-9.95
-12.5
-15.57
-19.55
-24.61
-30.53
-36.61
-41.78
-44.78
-44.51
-40.46
-32.9
-22.93
-12.09
-1.99
6.27
12.32
16.41
19.11
20.95
22.17
22.76
22.63
21.79
20.45
18.95
17.63
16.67
16.09
15.72
15.36
14.78
13.81
12.3
10.13
7.29
3.86
0.03
-3.95
-7.86
-11.55
-15.02
-18.39
-21.93
-25.97
-30.73
-36.19
-41.81
-46.59
-49.23
-48.55
-43.92
-35.65
-24.85
-13.17
-2.2
6.93
13.78
18.5
21.55
23.41
24.39
24.66
24.29
23.42
22.24
21.02
20.0
19.29
18.86
18.56
18.17
17.55
16.58
15.24
13.48
11.24
8.48
5.18
1.49
-2.37
-6.13
-9.63
-12.9
-16.24
-20.08
-24.85
-30.73
-37.45
-44.15
-49.53
-52.16
-50.92
-45.51
-36.54
-25.38
-13.66
-2.79
6.41
13.71
19.29
23.42
26.36
28.21
29.07
29.07
28.46
27.48
26.38
25.31
24.27
23.23
22.11
20.85
19.44
17.88
16.14
14.16
11.79
8.93
5.54
1.75
-2.2
-6.0
-9.44
-12.53
-15.53
-18.96
-23.35
-29.02
-35.68
-42.42
-47.79
-50.23
-48.66
-42.89
-33.69
-22.55
-11.11
-0.68
8.07
15.04
20.48
24.67
27.75
29.74
30.69
30.74
30.2
29.38
28.52
27.68
26.77
25.67
24.31
22.7
20.9
18.97
16.82
14.33
11.37
7.89
3.98
-0.12
-4.16
-7.93
-11.4
-14.72
-18.21
-22.27
-27.14
-32.72
-38.38
-42.99
-45.25
-44.04
-38.98
-30.58
-20.15
-9.27
0.69
8.9
15.21
19.83
23.05
25.06
25.97
25.91
25.13
23.98
22.8
21.83
21.09
20.53
20.05
19.6
19.16
18.66
17.99
16.96
15.38
13.15
10.27
6.81
2.93
-1.16
-5.3
-9.37
-13.31
-17.24
-21.44
-26.21
-31.77
-37.92
-43.94
-48.6
-50.54
-48.71
-42.84
-33.58
-22.25
-10.45
0.43
9.6
16.74
21.96
25.51
27.64
28.56
28.51
27.73
26.51
25.07
23.59
22.14
20.74
19.34
17.91
16.42
14.91
13.39
11.87
10.29
8.48
6.28
3.6
0.55
-2.65
-5.66
-8.27
-10.46
-12.53
-14.91
-18.14
-22.54
-28.08
-34.28
-40.23
-44.75
-46.7
-45.25
-40.22
-32.17
-22.27
-11.93
-2.43
5.49
11.71
16.51
20.26
23.17
25.19
26.17
26.1
25.18
23.85
22.52
21.47
20.7
20.04
19.31
18.4
17.35
16.21
15.0
13.59
11.82
9.55
6.78
3.66
0.39
-2.75
-5.57
-8.03
-10.25
-12.55
-15.37
-19.17
-24.22
-30.36
-36.86
-42.47
-45.77
-45.62
-41.6
-34.21
-24.65
-14.41
-4.81
3.33
9.77
14.58
18.01
20.25
21.47
21.83
21.55
20.87
20.02
19.12
18.22
17.32
16.45
15.62
14.87
14.14
13.29
12.12
10.4
8.02
5.02
1.6
-2.0
-5.52
-8.79
-11.78
-14.56
-17.29
-20.2
