22.71
21.3
19.99
19.0
18.28
17.66
16.91
15.93
14.71
13.27
11.55
9.43
6.74
3.41
-0.43
-4.53
-8.57
-12.31
-15.72
-19.02
-22.61
-26.89
-32.1
-38.03
-43.95
-48.62
-50.63
-48.84
-42.89
-33.33
-21.54
-9.26
1.92
11.03
17.83
22.61
25.83
27.86
28.88
28.95
28.15
26.73
25.04
23.42
22.06
20.99
20.1
19.29
18.49
17.66
16.73
15.58
13.98
11.79
8.91
5.43
1.54
-2.47
-6.37
-10.04
-13.53
-17.12
-21.23
-26.26
-32.38
-39.23
-45.8
-50.64
-52.25
-49.64
-42.78
-32.64
-20.84
-9.12
1.22
9.62
16.1
21.0
24.64
27.21
28.77
29.45
29.45
29.03
28.38
27.57
26.55
25.25
23.68
21.98
20.28
18.68
17.09
15.33
13.19
10.51
7.26
3.59
-0.33
-4.29
-8.16
-11.93
-15.71
-19.74
-24.26
-29.47
-35.33
-41.37
-46.63
-49.84
-49.7
-45.47
-37.24
-26.08
-13.67
-1.79
8.22
15.79
21.06
24.63
27.09
28.81
29.9
30.26
29.89
28.92
27.64
26.37
25.27
24.35
23.47
22.49
21.34
20.01
18.53
16.8
14.66
11.91
8.49
4.54
0.4
-3.57
-7.11
-10.21
-13.16
-16.39
-20.36
-25.42
-31.53
-38.24
-44.58
-49.22
-50.8
-48.36
-41.76
-31.86
-20.23
-8.73
1.17
8.76
14.12
17.81
20.43
22.31
23.42
23.56
22.69
21.09
19.3
17.87
17.14
17.02
17.15
17.0
16.21
14.68
12.55
10.08
7.51
5.0
2.56
0.1
-2.48
-5.3
-8.44
-12.0
-16.07
-20.76
-26.1
-31.85
-37.4
-41.67
-43.43
-41.62
-35.87
-26.73
-15.58
-4.13
6.07
14.17
20.05
24.11
26.89
28.7
29.61
29.53
28.48
26.68
24.52
22.39
20.54
19.03
17.73
16.45
15.01
13.27
11.17
8.68
5.85
2.76
-0.4
-3.49
-6.39
-9.13
-11.9
-14.93
-18.5
-22.78
-27.83
-33.47
-39.19
-44.09
-47.0
-46.8
-42.81
-35.15
-24.81
-13.36
-2.46
6.67
13.56
18.38
21.66
23.94
25.5
26.38
26.55
26.04
25.01
23.7
22.31
20.98
19.75
18.61
17.56
16.56
15.52
14.3
12.63
10.34
7.35
3.81
0.01
-3.72
-7.18
-10.37
-13.51
-16.98
-21.16
-26.32
-32.39
-38.84
-44.65
-48.51
-49.13
-45.78
-38.57
-28.49
-17.15
-6.19
3.19
10.49
15.88
19.76
22.51
24.32
25.2
25.18
24.5
23.52
22.63
22.06
21.8
21.68
21.45
21.01
20.37
19.62
18.8
17.78
16.36
14.28
11.45
7.94
4.03
0.02
-3.84
-7.48
-11.06
-14.89
-19.37
-24.85
-31.39
-38.54
-45.27
-50.1
-51.53
-48.51
-40.99
-29.95
-17.19
-4.68
6.12
14.51
20.59
24.87
27.85
29.81
30.79
30.78
29.93
28.51
26.91
25.42
24.14
22.97
21.76
20.35
18.75
17.05
15.39
13.78
12.14
10.22
7.8
4.75
1.2
-2.6
-6.33
-9.85
-13.28
-16.95
-21.32
-26.73
-33.1
-39.84
-45.81
-49.57
-49.77
-45.64
-37.36
-26.07
-13.58
-1.75
8.06
15.34
20.36
23.77
26.13
27.65
28.21
27.62
25.89
23.37
20.61
18.19
16.42
15.32
14.65
14.04
13.19
11.91
10.17
8.07
5.77
3.46
1.24
-0.94
-3.22
-5.8
-8.92
-12.73
-17.32
-22.77
-28.96
-35.5
-41.55
-45.92
-47.27
-44.66
-37.9
-27.82
-15.97
-4.16
6.15
14.21
20.04
24.07
26.8
28.53
29.26
28.92
27.55
25.41
23.01
20.88
19.32
18.4
17.86
17.34
16.52
15.23
13.38
11.0
8.1
4.76
1.08
-2.71
-6.38
-9.75
-12.81
-15.79
-19.05
-23.03
-28.03
-34.03
-40.52
-46.51
-50.6
-51.46
-48.18
-40.77
-30.18
-18.01
-6.03
4.4
12.61
18.63
22.87
25.81
27.76
28.82
28.96
28.26
26.9
25.16
23.4
21.85
20.64
19.73
19.0
18.28
17.39
16.17
14.48
12.21
9.33
5.92
2.2
-1.55
-5.05
-8.15
-10.9
-13.56
-16.56
-20.37
-25.37
-31.6
-38.62
-45.34
-50.26
-51.81
-48.94
-41.53
-30.61
-17.97
-5.59
4.98
13.09
18.85
22.84
25.59
27.36
28.17
27.97
26.89
25.29
23.62
22.22
21.22
20.5
19.83
19.04
18.12
17.2
16.42
15.73
14.86
13.4
11.03
7.64
3.45
-1.08
-5.49
-9.5
-13.16
-16.82
-20.97
-26.06
-32.26
-39.31
-46.39
-52.2
-55.25
-54.23
-48.57
-38.69
-26.01
-12.49
0.01
10.27
17.96
23.38
27.19
29.86
31.57
32.28
31.92
30.62
28.72
26.63
24.69
23.06
21.72
20.59
19.56
18.55
17.46
16.1
14.29
11.81
8.62
4.76
0.48
-3.9
-8.09
-11.91
-15.38
-18.73
-22.37
-26.69
-31.87
-37.62
-43.08
-46.95
-47.86
-44.82
-37.69
-27.3
-15.23
-3.35
6.81
14.42
19.47
22.54
24.35
25.39
25.82
25.54
24.49
22.8
20.81
19.04
17.86
17.37
17.36
17.43
17.17
16.27
14.69
12.48
9.86
7.02
4.11
1.18
-1.8
-4.97
-8.47
-12.46
-17.09
-22.47
-28.53
-34.86
-40.61
-44.51
-45.23
-41.81
-34.21
-23.41
-11.12
0.75
10.72
18.14
23.13
26.22
28.0
28.81
28.77
27.89
26.26
24.15
21.9
19.81
18.08
16.71
15.6
14.58
13.49
12.21
10.63
8.7
6.38
3.68
0.67
-2.53
-5.75
-8.88
-11.88
-14.8
-17.92
-21.62
-26.29
-32.05
-38.49
-44.53
-48.59
-49.11
-45.16
-36.9
-25.55
-13.04
-1.24
8.56
15.89
20.95
24.23
26.21
27.18
27.34
26.88
26.08
25.19
24.4
23.77
23.23
22.71
22.11
21.38
20.46
19.24
17.6
15.42
12.62
9.18
5.21
0.88
-3.54
-7.77
-11.62
-15.1
-18.44
-22.11
-26.58
-32.16
-38.62
-45.13
-50.3
-52.56
-50.68
-44.26
-33.92
-21.19
-8.03
3.82
13.31
20.19
24.84
27.85
29.69
30.55
30.52
29.69
28.33
26.8
25.4
24.25
23.25
22.21
21.0
19.65
18.28
16.96
15.62
14.03
11.87
8.95
5.31
1.23
-2.88
-6.65
-9.9
-12.71
-15.39
-18.43
-22.27
-27.22
-33.19
-39.57
-45.19
-48.59
-48.44
-44.0
-35.5
-24.14
-11.7
-0.02
9.61
16.68
21.36
24.21
25.74
26.3
25.97
24.82
23.03
20.91
18.91
17.42
16.65
16.57
16.88
17.15
16.99
16.1
14.42
12.08
9.33
6.39
3.42
0.49
-2.44
-5.46
-8.64
-12.13
-16.12
-20.82
-26.32
-32.37
-38.23
-42.69
-44.37
-42.21
-35.93
-26.22
-14.54
-2.69
7.78
15.97
21.71
25.36
27.45
28.48
28.7
28.22
27.14
25.6
23.84
22.09
20.54
19.25
18.18
17.21
16.15
14.85
13.16
11.02
8.42
5.45
2.26
-1.04
-4.35
-7.66
-11.08
-14.74
-18.82
-23.5
-28.94
-35.08
-41.53
-47.47
-51.68
-52.85
-50.05
-43.12
-32.84
-20.7
-8.43
2.58
11.56
18.41
23.42
26.95
29.22
30.32
30.34
29.45
27.96
26.3
24.83
23.74
23.05
22.58
22.09
21.37
20.26
18.71
16.73
14.29
11.38
7.95
4.09
-0.03
-4.16
-8.07
-11.67
-15.12
-18.76
-23.07
-28.37
-34.67
-41.45
-47.61
-51.7
-52.31
-48.58
-40.57
-29.27
-16.35
-3.63
7.45
16.18
22.47
26.71
29.35
30.77
31.16
30.67
29.47
27.8
25.97
24.25
22.81
21.66
20.72
19.84
18.9
17.81
16.5
14.95
13.07
10.83
8.14
4.99
1.41
-2.44
-6.35
-10.11
-13.67
-17.24
-21.31
-26.39
-32.68
-39.8
-46.58
-51.38
-52.57
-49.2
-41.43
-30.47
-18.18
-6.39
3.64
11.47
17.31
21.59
24.69
26.77
27.84
27.97
27.31
26.2
24.92
23.69
22.63
21.73
20.97
20.3
19.62
18.77
17.55
15.75
13.28
10.17
6.57
2.71
-1.23
-5.16
-9.09
-13.08
-17.28
-21.88
-27.01
-32.7
-38.63
-44.04
-47.71
-48.35
-44.99
-37.51
-26.74
-14.28
-1.94
8.85
17.41
23.7
28.12
31.07
32.79
33.34
32.79
31.32
29.29
27.13
25.16
23.55
22.32
21.38
20.63
19.88
18.95
17.58
15.54
12.68
9.04
4.82
0.36
-4.08
-8.31
-12.3
-16.16
-20.09
-24.38
-29.34
-35.1
-41.44
-47.57
-52.15
-53.66
-50.96
-43.76
-32.86
-19.93
-6.92
4.5
13.47
19.9
24.23
27.07
28.89
29.91
30.17
29.7
28.64
27.23
25.76
24.42
23.29
22.31
21.38
20.45
19.5
18.52
17.41
15.96
13.88
10.94
7.1
2.57
-2.28
-7.02
-11.37
-15.26
-18.9
-22.73
-27.27
-32.86
-39.41
-46.2
-51.89
-54.88
-53.86
-48.32
-38.79
-26.7
-13.84
-1.81
8.42
16.57
22.81
27.4
30.53
32.28
32.76
32.24
31.1
29.74
28.4
27.13
25.85
24.43
22.86
21.21
19.57
18.01
16.39
14.54
12.22
9.33
5.88
2.05
-1.95
-5.91
-9.64
-13.1
-16.35
-19.61
-23.2
-27.47
-32.65
-38.61
-44.69
-49.68
-52.13
-50.81
-45.17
-35.7
-23.76
-11.15
0.5
10.18
17.61
23.03
26.84
29.3
30.55
30.63
29.77
28.37
26.92
25.85
25.3
25.15
25.08
24.75
23.99
22.83
21.49
20.09
18.64
16.89
14.51
11.23
7.08
2.36
-2.41
-6.81
-10.62
-14.01
-17.43
-21.46
-26.54
-32.75
-39.63
-46.19
-51.04
-52.78
-50.41
-43.76
-33.64
-21.56
-9.38
1.37
9.85
16.0
20.26
23.22
25.23
26.32
26.37
25.35
23.46
21.15
18.94
17.25
16.2
15.68
15.4
15.07
14.46
13.44
11.97
10.03
7.62
4.8
1.66
-1.66
-5.02
-8.32
-11.55
-14.89
-18.65
-23.13
-28.46
-34.26
-39.68
-43.43
-44.17
-41.08
-34.1
-24.13
-12.71
-1.56
7.98
15.22
20.21
23.4
25.27
26.1
25.91
24.64
22.37
19.51
16.64
14.38
13.06
12.65
12.76
12.92
12.68
11.82
10.33
8.31
5.95
3.41
0.8
-1.88
-4.71
-7.89
-11.64
-16.17
-21.6
-27.86
-34.57
-41.03
-46.15
-48.73
-47.74
-42.78
-34.24
-23.34
-11.7
-0.89
8.02
14.64
19.16
22.08
23.87
24.82
25.07
24.64
23.65
22.3
20.85
19.57
18.61
17.93
17.35
16.59
15.4
13.64
11.3
8.54
5.54
2.46
-0.62
-3.73
-6.96
-10.46
-14.37
-18.85
-24.08
-30.11
-36.75
-43.33
-48.73
-51.58
-50.67
-45.48
-36.44
-24.87
-12.57
-1.19
8.22
15.36
20.5
24.14
26.67
28.25
28.89
28.59
27.44
25.73
23.83
22.14
20.91
20.2
19.88
19.63
19.07
17.83
15.71
12.74
9.17
5.37
1.69
-1.66
-4.73
-7.74
-11.02
-14.89
-19.65
-25.47
-32.28
-39.67
-46.71
-52.05
-54.21
-52.09
-45.4
-34.89
-22.19
-9.21
2.41
11.76
18.7
23.66
27.18
29.64
31.13
31.65
31.21
30.03
28.49
26.99
25.74
24.71
23.68
22.42
20.83
18.96
16.97
14.93
12.82
10.44
7.64
4.32
0.57
-3.41
-7.42
-11.31
-15.09
-18.91
-23.05
-27.82
-33.35
-39.36
-45.04
-49.11
-50.15
-47.17
-40.02
-29.56
-17.41
-5.43
4.92
12.94
18.65
22.57
25.22
26.97
27.92
28.06
27.52
26.58
25.65
25.11
25.13
25.58
26.13
26.38
26.02
24.92
23.08
20.58
17.47
13.75
9.42
4.58
-0.58
-5.78
-10.82
-15.63
-20.39
-25.41
-30.96
-37.05
-43.19
-48.37
-51.28
-50.66
-45.88
-37.18
-25.71
-13.12
-1.12
9.13
17.12
22.94
26.97
29.51
30.72
30.63
29.34
27.17
24.57
22.08
20.09
18.75
18.0
17.61
17.32
16.9
16.14
14.88
12.99
10.4
7.17
3.47
-0.45
-4.35
-8.06
-11.56
-14.94
-18.44
-22.43
-27.23
-33.0
-39.48
-45.81
-50.7
-52.68
-50.65
-44.39
-34.64
-22.91
-10.88
0.09
9.29
16.67
22.46
26.93
30.2
32.29
33.25
33.3
32.77
32.02
31.28
30.6
29.9
29.03
27.91
26.55
25.04
23.43
21.67
19.58
16.96
13.66
9.72
5.39
1.03
-3.02
-6.55
-9.63
-12.55
-15.82
-19.98
-25.44
-32.23
-39.76
-46.83
-51.85
-53.31
-50.3
-42.93
-32.3
-20.15
-8.23
2.2
10.63
17.16
22.15
25.95
28.69
30.41
31.16
31.11
30.54
29.74
28.92
28.14
27.32
26.41
25.34
24.13
22.84
21.47
19.97
18.14
15.73
12.54
8.55
3.95
-0.83
-5.35
-9.3
-12.7
-15.91
-19.49
-23.96
-29.6
-36.2
-43.02
-48.89
-52.46
-52.53
-48.52
-40.6
-29.79
-17.65
-5.82
4.43
12.46
18.3
22.37
25.2
27.14
28.3
28.65
28.19
27.09
25.66
24.25
23.12
22.31
21.69
21.09
20.38
19.52
18.53
17.41
16.03
14.19
11.74
8.64
5.01
1.11
-2.82
-6.62
-10.36
-14.28
-18.74
-24.08
-30.37
-37.22
-43.72
-48.56
-50.31
-47.99
-41.42
-31.43
-19.61
-7.85
2.35
10.22
15.86
19.87
22.88
25.16
26.65
27.02
26.14
24.28
22.0
19.99
18.75
18.34
18.51
18.73
18.56
17.7
16.11
13.91
11.29
8.38
5.25
1.92
-1.55
-5.1
-8.67
-12.26
-15.99
-20.1
-24.85
-30.26
-35.88
-40.75
-43.52
-42.94
-38.33
-30.02
-19.25
-7.84
2.54
10.8
16.76
20.87
23.81
26.0
27.5
28.11
27.6
26.03
23.77
21.36
19.3
17.84
16.93
16.29
15.57
14.49
12.89
10.75
8.13
5.2
2.12
-0.95
-3.94
-6.93
-10.07
-13.56
-17.56
-22.19
-27.44
-33.16
-38.89
-43.84
-46.96
-47.14
-43.66
-36.52
-26.62
-15.46
-4.69
4.43
11.37
16.25
19.61
21.97
23.63
24.66
25.01
24.68
23.83
22.74
21.64
20.72
19.97
19.28
18.53
17.58
16.38
14.82
12.83
10.29
7.16
3.52
-0.4
-4.3
-7.91
-11.11
-14.01
-16.91
-20.23
-24.37
-29.53
-35.57
-41.81
-47.11
-50.05
-49.34
-44.41
-35.61
-24.25
-12.12
-0.91
8.26
15.09
19.9
23.23
25.51
26.93
27.48
27.18
26.21
24.89
23.58
22.49
21.61
20.78
19.82
18.66
17.44
16.32
15.41
14.52
13.27
11.2
8.08
3.99
-0.58
-5.02
-8.87
-11.99
-14.65
-17.38
-20.79
-25.31
-31.0
-37.46
-43.74
-48.52
-50.45
-48.5
-42.43
-32.88
-21.25
-9.22
1.74
10.74
17.54
22.38
25.71
27.84
28.96
29.12
28.39
26.89
24.92
22.83
20.95
19.49
18.46
17.72
16.98
16.0
14.61
12.78
10.56
7.99
5.16
2.09
-1.2
-4.63
-8.06
-11.43
-14.77
-18.27
-22.29
-27.12
-32.77
-38.7
-43.8
-46.64
-45.91
-40.99
-32.28
-21.14
-9.46
1.0
9.16
14.81
18.46
20.79
22.34
23.3
23.58
23.11
21.97
20.52
19.21
18.39
18.15
18.34
18.63
18.62
18.04
16.75
14.8
12.33
9.51
6.48
3.32
0.06
-3.29
-6.77
-10.47
-14.57
-19.29
-24.72
-30.66
-36.38
-40.74
-42.43
-40.47
-34.61
-25.54
-14.69
-3.75
5.85
13.38
18.72
22.26
24.48
25.73
26.16
25.79
24.67
22.98
21.04
19.22
17.79
16.79
16.07
15.34
14.31
12.77
10.68
8.14
5.29
2.32
-0.65
-3.54
-6.33
-9.03
-11.77
-14.76
-18.28
-22.62
-27.86
-33.68
-39.23
-43.26
-44.41
-41.65
-34.75
-24.38
-11.98
0.78
12.43
22.13
29.66
35.27
39.36
42.32
44.46
46.03
47.27
48.4
49.63
51.01
52.52
54.08
55.64
57.27
59.06
61.16
63.56
66.14
68.62
70.66
71.99
72.51
72.32
71.75
71.25
71.31
72.2
73.85
75.67
76.55
75.14
70.3
61.67
49.99
36.93
24.59
14.69
7.97
4.11
2.02
0.46
-1.35
-3.63
-6.1
-8.37
-10.28
-11.9
-13.46
-15.14
-16.98
-18.89
-20.73
-22.4
-23.92
-25.34
-26.71
-27.98
-29.08
-29.91
-30.47
-30.86
-31.3
-32.09
-33.57
-36.01
-39.55
-44.16
-49.6
-55.5
-61.55
-67.52
-73.36
-79.02
-84.2
-88.16
-89.74
-87.73
-81.37
-70.78
-57.08
-42.05
-27.59
-15.13
-5.33
1.82
6.69
9.69
11.01
10.7
8.84
5.63
1.53
-2.86
-6.89
-10.1
-12.28
-13.55
-14.27
-14.9
-15.83
-17.27
-19.19
-21.44
-23.84
-26.31
-28.86
-31.57
-34.44
-37.47
-40.69
-44.19
-48.18
-52.79
-57.77
-62.32
-65.08
-64.57
-59.74
-50.53
-37.92
-23.71
-9.84
2.18
11.6
18.35
22.75
25.17
25.87
25.03
22.85
19.73
16.24
13.0
10.49
8.9
8.01
7.34
6.29
4.45
1.77
-1.44
-4.66
-7.44
-9.65
-11.5
-13.44
-15.93
-19.28
-23.58
-28.75
-34.53
-40.44
-45.64
-49.07
-49.63
-46.58
-39.86
-30.29
-19.29
-8.39
1.2
8.88
14.63
18.72
21.42
22.84
23.0
21.94
19.96
17.58
15.4
13.89
13.21
13.16
13.25
12.95
11.84
9.82
7.06
3.95
0.83
-2.11
-4.97
-8.08
-11.76
-16.29
-21.71
-27.88
-34.46
-40.89
-46.36
-49.9
-50.49
-47.41
-40.55
-30.54
-18.68
-6.47
4.78
14.29
21.87
27.71
32.05
34.99
36.48
36.5
35.18
32.98
30.54
28.49
27.17
26.55
26.26
25.75
24.58
22.49
19.56
15.99
12.11
8.14
4.22
0.31
-3.68
-7.89
-12.45
-17.46
-23.05
-29.32
-36.2
-43.31
-49.79
-54.39
-55.79
-53.12
-46.31
-36.22
-24.33
-12.26
-1.24
8.13
15.8
22.01
26.96
30.69
33.16
34.32
34.3
33.38
31.96
30.38
28.95
27.78
26.87
26.07
25.21
24.1
22.55
20.43
17.66
14.24
10.25
5.87
1.41
-2.86
-6.73
-10.21
-13.53
-17.18
-21.65
-27.25
-33.88
-40.86
-46.99
-50.76
-50.9
-46.74
-38.53
-27.37
-14.82
-2.41
8.79
18.28
26.0
32.05
36.5
39.37
40.69
40.66
39.66
38.13
36.4
34.68
32.96
31.18
29.32
27.43
25.61
23.92
22.31
20.6
18.54
15.92
12.69
9.0
5.09
1.28
-2.26
-5.45
-8.45
-11.51
-14.99
-19.15
-24.09
-29.6
-35.0
-39.23
-41.08
-39.56
-34.35
-26.01
-15.78
-5.24
4.3
12.12
18.12
22.61
25.92
28.19
29.41
29.49
28.48
26.67
24.48
22.33
20.5
19.13
18.16
17.48
16.88
16.2
15.3
14.05
12.41
10.36
7.92
5.09
1.93
-1.47
-5.02
-8.68
-12.51
-16.7
-21.46
-26.87
-32.62
-37.88
-41.45
-42.11
-39.12
-32.52
-23.24
-12.7
-2.34
6.75
14.12
19.77
23.92
26.73
28.24
28.46
27.47
25.59
23.29
21.07
19.31
18.14
17.44
16.89
16.15
14.95
13.13
10.67
7.59
3.97
-0.05
-4.3
-8.58
-12.76
-16.81
-20.96
-25.5
-30.7
-36.63
-42.98
-49.01
-53.68
-55.86
-54.66
-49.76
-41.53
-30.95
-19.39
-8.18
1.7
9.77
16.0
20.58
23.8
25.93
27.22
27.93
28.34
28.69
29.07
29.42
29.58
29.38
28.77
27.77
26.48
24.92
23.04
20.72
17.81
14.29
10.29
6.1
2.08
-1.5
-4.55
-7.22
-9.91
-13.13
-17.37
-22.91
-29.63
-36.88
-43.55
-48.27
-49.82
-47.5
-41.32
-32.11
-21.12
-9.69
1.09
10.6
18.63
25.19
30.34
34.08
36.4
37.36
37.12
35.99
34.31
32.4
30.42
28.43
26.4
24.32
22.24
20.26
18.44
16.74
14.95
12.83
10.15
6.84
3.01
-1.02
-4.9
-8.37
-11.37
-14.1
-17.02
-20.68
-25.5
-31.52
-38.22
-44.47
-48.84
-49.97
-47.15
-40.52
-31.08
-20.26
-9.45
0.42
8.96
16.16
22.11
26.78
30.02
31.71
31.93
31.03
29.56
28.03
26.74
25.72
24.74
23.6
22.17
20.56
18.99
17.69
16.71
15.9
14.89
13.29
10.78
7.3
3.06
-1.53
-6.01
-10.06
-13.62
-16.97
-20.58
-24.98
-30.45
-36.82
-43.33
-48.7
-51.46
-50.42
-45.11
-36.04
-24.53
-12.32
-0.95
8.66
16.32
22.34
27.14
30.96
33.79
35.54
36.23
36.1
35.56
34.97
34.51
34.12
33.64
32.91
31.92
30.76
29.53
28.3
26.97
25.39
23.46
21.15
18.59
15.98
13.49
11.19
9.02
6.73
3.94
0.24
-4.68
-10.76
-17.51
-24.0
-29.13
-31.95
-32.08
-29.82
-26.05
-21.92
-18.36
-15.99
-15.01
-15.39
-17.09
-20.09
-24.34
-29.63
-35.55
-41.48
-46.72
-50.73
-53.18
-54.14
-53.89
-52.85
-51.43
-49.84
-48.11
-46.16
-43.84
-41.06
-37.76
-33.93
-29.53
-24.47
-18.7
-12.32
-5.65
0.93
7.19
13.43
20.64
30.34
44.04
62.7
86.1
112.88
141.08
168.79
194.81
218.74
240.57
260.05
276.36
288.2
294.35
294.13
287.62
275.36
258.07
236.57
211.96
186.01
161.07
139.57
123.12
111.88
104.43
98.35
91.31
81.82
69.68
55.66
40.99
26.73
13.42
1.08
-10.56
-21.81
-32.83
-43.5
-53.61
-62.92
-71.3
-78.66
-84.81
-89.45
-92.13
-92.48
-90.46
-86.54
-81.61
-76.72
-72.67
-69.85
-68.17
-67.31
-66.97
-67.11
-67.83
-69.22
-71.09
-72.94
-74.1
-74.0
-72.38
-69.52
-66.13
-63.2
-61.83
-62.86
-66.69
-72.98
-80.71
-88.44
-94.78
-98.99
-101.23
-102.42
-103.69
-105.84
-108.88
-112.11
-114.42
-114.79
-112.56
-107.48
-99.52
-88.76
-75.32
-59.57
-42.28
-24.78
-8.71
4.31
13.14
17.47
17.81
15.24
11.04
6.37
2.01
-1.64
-4.62
-7.23
-9.98
-13.28
-17.39
-22.16
-27.12
-31.73
-35.59
-38.66
-41.25
-43.89
-47.04
-50.96
-55.61
-60.64
-65.47
-69.24
-70.94
-69.59
-64.53
-55.69
-43.76
-29.97
-15.88
-2.92
7.91
16.02
21.29
23.8
23.83
21.81
18.38
14.29
10.32
7.1
4.87
3.47
2.46
1.37
-0.13
-2.01
-3.98
-5.64
-6.75
-7.33
-7.7
-8.35
-9.84
-12.52
-16.53
-21.56
-26.91
-31.5
-34.03
-33.35
-28.73
-20.15
-8.3
5.59
20.02
33.54
44.96
53.43
58.47
59.96
58.12
53.57
47.21
40.06
33.07
26.83
21.51
16.83
12.31
7.57
2.45
-2.97
-8.42
-13.68
-18.67
-23.44
-28.16
-32.98
-38.08
-43.58
-49.54
-55.69
-61.39
-65.52
-66.79
-64.17
-57.26
-46.59
-33.4
-19.29
-5.78
5.97
15.15
21.32
24.22
23.95
21.07
16.69
12.33
9.47
9.07
11.19
15.01
19.18
22.3
23.49
22.48
19.6
15.47
10.63
5.32
-0.5
-7.18
-15.05
-24.31
-34.75
-45.67
-55.84
-63.77
-68.09
-68.05
-63.7
-55.95
-46.19
-35.82
-25.91
-17.12
-9.73
-4.04
-0.36
0.94
-0.37
-4.2
-10.06
-17.23
-24.96
-32.73
-40.32
-47.79
-55.38
-63.36
-71.95
-81.37
-91.85
-103.62
-116.79
-131.26
-146.64
-162.33
-177.76
-192.61
-206.84
-220.51
-233.42
-244.89
-253.79
-258.76
-258.69
-252.97
-241.53
-224.68
-202.97
-177.28
-149.03
-120.23
-93.37
-70.72
-53.57
-41.77
-33.75
-27.21
-19.97
-10.61
1.3
15.54
31.64
49.04
67.13
85.12
102.03
116.81
128.68
137.29
142.77
145.53
146.18
145.42
144.15
143.47
144.57
148.34
155.05
164.13
174.34
184.18
192.38
198.2
201.48
202.42
201.29
198.17
193.05
185.85
176.65
165.73
153.53
140.45
126.78
112.62
98.0
83.0
67.83
52.86
38.4
24.62
11.45
-1.37
-14.19
-27.26
-40.82
-54.92
-69.48
-84.09
-98.01
-110.16
-119.44
-125.02
-126.62
-124.55
-119.46
-111.92
-102.12
-89.93
-75.3
-58.63
-41.0
-23.96
-8.98
3.02
11.96
18.35
22.96
26.25
28.34
29.1
28.48
26.75
24.45
22.18
20.31
18.86
17.38
15.3
11.99
7.03
0.31
-7.94
-16.99
-25.7
-32.62
-36.33
-35.82
-30.91
-22.26
-11.11
1.06
13.05
24.06
33.68
41.65
47.72
51.69
53.52
53.54
52.36
50.75
49.31
48.26
47.43
46.38
44.69
42.1
38.74
34.96
31.16
27.54
23.94
19.88
14.67
7.79
-0.98
-11.22
-21.86
-31.34
-37.87
-39.96
-36.84
-28.74
-16.83
-2.83
11.55
25.06
37.13
47.65
56.59
63.78
68.81
71.31
71.27
69.16
65.89
62.51
59.78
57.91
56.54
54.97
52.5
48.8
43.97
38.55
33.16
28.24
23.79
19.34
14.18
7.63
-0.71
-10.73
-21.71
-32.4
-41.24
-46.7
-47.6
-43.55
-35.04
-23.33
-10.07
3.16
15.28
25.82
34.69
42.02
47.73
51.64
53.48
53.22
51.22
48.21
45.06
42.55
41.02
40.33
39.97
39.34
37.96
35.73
32.85
29.7
26.59
23.61
20.61
17.29
13.33
8.47
2.53
-4.52
-12.56
-21.09
-29.18
-35.47
-38.53
-37.29
-31.51
-21.9
-9.87
2.9
15.04
25.71
34.62
41.82
47.39
51.31
53.54
54.11
53.33
51.72
49.92
48.43
47.45
46.78
45.89
44.26
41.57
37.85
33.47
28.95
24.67
20.75
16.96
12.86
7.98
1.94
-5.46
-14.14
-23.7
-33.34
-41.88
-47.98
-50.44
-48.48
-42.18
-32.41
-20.68
-8.68
2.12
10.84
17.23
21.48
23.94
24.96
24.77
23.66
21.98
20.22
18.84
18.06
17.7
17.26
16.15
14.06
11.09
7.75
4.64
2.09
0.0
-2.15
-5.04
-9.19
-14.68
-21.14
-27.84
-33.79
-37.94
-39.36
-37.43
-32.05
-23.75
-13.55
-2.7
7.69
17.01
25.03
31.87
37.57
41.99
44.84
45.86
45.16
43.2
40.71
38.31
36.25
34.26
31.81
28.39
23.89
18.67
13.47
8.93
5.36
2.54
-0.17
-3.49
-7.95
-13.69
-20.42
-27.55
-34.23
-39.5
-42.42
-42.26
-38.76
-32.22
