-5.72
4.72
13.63
20.78
26.21
30.02
32.33
33.25
32.93
31.65
29.81
27.87
26.14
24.71
23.47
22.26
20.99
19.79
18.78
18.01
17.3
16.22
14.37
11.52
7.81
3.67
-0.41
-4.08
-7.34
-10.5
-14.02
-18.28
-23.46
-29.35
-35.44
-40.91
-44.77
-46.06
-44.13
-38.88
-30.83
-21.01
-10.73
-1.13
7.03
13.46
18.24
21.56
23.57
24.38
24.06
22.83
20.97
18.92
17.02
15.51
14.51
14.0
13.88
14.02
14.21
14.22
13.78
12.69
10.84
8.33
5.34
2.12
-1.17
-4.53
-8.11
-12.17
-16.9
-22.36
-28.32
-34.21
-39.2
-42.26
-42.51
-39.42
-33.1
-24.27
-14.12
-3.9
5.34
12.98
18.83
22.94
25.44
26.42
25.96
24.25
21.66
18.71
15.9
13.67
12.15
11.25
10.71
10.15
9.29
7.97
6.22
4.18
2.02
-0.16
-2.38
-4.75
-7.37
-10.38
-13.85
-17.88
-22.58
-27.94
-33.7
-39.21
-43.35
-44.96
-43.14
-37.71
-29.3
-19.12
-8.53
1.35
9.87
16.75
21.95
25.45
27.28
27.53
26.49
24.54
22.15
19.73
17.63
16.06
15.16
14.9
15.1
15.39
15.31
14.49
12.71
10.0
6.57
2.69
-1.37
-5.44
-9.39
-13.23
-17.07
-21.08
-25.5
-30.46
-35.81
-41.04
-45.3
-47.56
-46.98
-43.16
-36.3
-27.19
-16.95
-6.81
2.25
9.68
15.37
19.55
22.53
24.53
25.61
25.73
24.88
23.21
21.06
18.87
17.02
15.7
14.88
14.32
13.77
13.02
11.94
10.49
8.64
6.39
3.72
0.69
-2.58
-5.93
-9.24
-12.5
-15.84
-19.55
-23.93
-29.05
-34.57
-39.65
-43.14
-43.87
-41.06
-34.68
-25.46
-14.69
-3.81
6.03
14.18
20.5
25.1
28.17
29.78
29.97
28.85
26.68
23.85
20.8
17.89
15.35
13.29
11.78
10.81
10.33
10.15
9.95
9.34
8.03
5.91
3.09
-0.13
-3.44
-6.67
-9.81
-13.11
-16.85
-21.32
-26.59
-32.4
-38.09
-42.71
-45.22
-44.81
-41.21
-34.79
-26.43
-17.26
-8.28
-0.19
6.68
12.25
16.51
19.42
20.89
20.83
19.37
16.83
13.81
10.99
8.99
8.11
8.25
8.97
9.71
9.99
9.6
8.57
7.11
5.37
3.4
1.16
-1.41
-4.38
-7.81
-11.82
-16.53
-21.87
-27.49
-32.6
-36.13
-37.03
-34.72
-29.29
-21.47
-12.4
-3.25
5.17
12.39
18.3
22.87
26.03
27.64
27.61
26.06
23.36
20.1
16.93
14.34
12.6
11.6
11.05
10.52
9.61
8.09
5.92
3.27
0.41
-2.37
-4.93
-7.35
-9.84
-12.74
-16.33
-20.78
-26.02
-31.65
-36.95
-40.88
-42.39
-40.64
-35.38
-27.11
-16.92
-6.17
3.89
12.46
19.22
24.19
27.53
29.37
29.84
29.11
27.47
25.26
22.86
20.56
18.57
16.94
15.68
14.72
13.92
13.13
12.19
10.97
9.44
7.62
5.6
3.36
0.84
-2.12
-5.7
-10.07
-15.29
-21.28
-27.78
-34.3
-40.07
-44.11
-45.46
-43.46
-38.04
-29.79
-19.79
-9.3
0.58
9.15
16.13
21.5
25.4
27.93
29.18
29.25
28.29
26.56
24.37
22.08
20.03
18.47
17.49
17.0
16.75
16.36
15.52
14.0
11.75
8.86
5.54
2.04
-1.46
-4.86
-8.18
-11.56
-15.24
-19.45
-24.36
-29.92
-35.74
-40.99
-44.59
-45.43
-42.74
-36.46
-27.27
-16.41
-5.31
4.89
13.51
20.33
25.47
29.1
31.34
32.25
31.96
30.7
28.82
26.66
24.53
22.59
20.87
19.43
18.31
17.56
17.16
16.94
16.53
15.53
13.61
10.73
7.12
3.19
-0.65
-4.21
-7.54
-10.89
-14.61
-18.95
-24.09
-29.94
-36.11
-41.81
-45.93
-47.31
-45.06
-39.03
-29.86
-18.91
-7.77
2.22
10.37
16.56
21.08
24.27
26.26
27.05
26.55
24.94
22.59
19.99
17.64
15.8
14.5
13.56
12.81
12.08
11.27
10.36
9.28
7.95
6.28
4.23
1.8
-0.92
-3.81
-6.82
-9.99
-13.54
-17.73
-22.7
-28.27
-33.76
-38.11
-40.13
-38.92
-34.2
-26.44
-16.72
-6.32
3.61
12.27
19.31
24.59
28.1
29.85
29.89
28.41
25.77
22.52
19.2
16.3
14.05
12.46
11.29
10.22
8.96
7.33
5.32
3.04
0.62
-1.86
-4.38
-6.99
-9.73
-12.64
-15.78
-19.26
-23.24
-27.73
-32.5
-36.88
-39.84
-40.35
-37.7
-31.87
-23.53
-13.86
-4.14
4.63
11.9
17.54
21.61
24.2
25.36
25.12
23.64
21.25
18.42
15.66
13.34
11.64
10.48
9.63
8.79
7.68
6.15
4.19
1.88
-0.61
-3.16
-5.7
-8.22
-10.84
-13.65
-16.8
-20.41
-24.6
-29.43
-34.82
-40.43
-45.51
-49.04
-49.97
-47.52
-41.6
-32.82
-22.4
-11.73
-1.97
6.22
12.72
17.72
21.47
24.1
25.63
26.0
25.27
23.71
21.69
19.66
17.95
16.64
15.66
14.76
13.7
12.35
10.62
8.53
6.14
3.44
0.47
-2.78
-6.26
-9.87
-13.55
-17.29
-21.22
-25.57
-30.46
-35.78
-40.96
-45.06
-46.95
-45.76
-41.12
-33.36
-23.36
-12.35
-1.46
8.43
16.84
23.55
28.55
31.88
33.61
33.86
32.88
31.03
28.82
26.76
25.28
24.55
24.43
24.51
24.27
23.29
21.37
18.63
15.38
11.98
8.71
5.66
2.81
0.01
-2.92
-6.14
-9.88
-14.35
-19.64
-25.69
-32.03
-37.8
-41.84
-43.04
-40.68
-34.74
-25.91
-15.45
-4.75
5.05
13.27
19.66
24.21
27.03
28.22
27.95
26.48
24.22
21.66
19.21
17.17
15.63
14.55
13.82
13.3
12.83
12.29
11.54
10.49
9.12
7.49
5.7
3.87
1.98
-0.15
-2.82
-6.45
-11.34
-17.55
-24.68
-31.88
-37.91
-41.48
-41.61
-37.96
-30.91
-21.45
-10.8
-0.15
9.64
17.98
24.51
29.0
31.3
31.49
29.85
26.97
23.64
20.64
18.59
17.81
18.15
19.12
19.94
19.88
18.48
15.7
11.92
7.73
3.61
-0.29
-4.17
-8.46
-13.57
-19.69
-26.62
-33.82
-40.54
-45.87
-48.92
-49.0
-45.76
-39.36
-30.49
-20.27
-9.9
-0.44
7.41
13.28
17.13
19.06
19.25
18.04
15.86
13.27
10.81
8.9
7.69
7.07
6.77
6.47
5.91
5.03
3.91
2.68
1.43
0.11
-1.47
-3.66
-6.79
-11.1
-16.61
-23.0
-29.62
-35.52
-39.62
-40.97
-39.02
-33.8
-25.94
-16.5
-6.6
2.82
11.26
18.5
24.45
28.99
31.87
32.9
32.06
29.7
26.5
23.19
20.24
17.75
15.47
13.04
10.28
7.31
4.45
2.02
0.08
-1.56
-3.29
-5.52
-8.52
-12.4
-17.16
-22.68
-28.66
-34.5
-39.32
-42.03
-41.69
-37.84
-30.68
-21.03
-10.11
0.8
10.73
19.08
25.6
30.22
32.89
33.61
32.47
29.8
26.19
22.33
18.87
16.15
14.19
12.64
11.09
9.24
7.06
4.78
2.69
0.94
-0.56
-2.18
-4.45
-7.83
-12.56
-18.56
-25.28
-31.81
-36.98
-39.67
-39.1
-35.08
-28.06
-18.96
-8.87
1.25
10.71
19.03
25.87
30.9
33.83
34.56
33.32
30.65
27.34
24.09
21.33
19.14
17.25
15.32
13.1
10.58
7.99
5.65
3.76
2.29
0.93
-0.83
-3.49
-7.41
-12.67
-18.96
-25.52
-31.24
-34.84
-35.28
-32.08
-25.49
-16.49
-6.46
3.25
11.64
18.24
22.98
26.01
27.51
27.66
26.64
24.72
22.33
19.91
17.8
16.16
14.91
13.82
12.63
11.18
9.44
7.52
5.56
3.66
1.78
-0.26
-2.8
-6.23
-10.82
-16.52
-22.79
-28.68
-32.96
-34.52
-32.72
-27.56
-19.73
-10.31
-0.45
8.88
17.09
23.84
29.02
32.56
34.44
34.71
33.58
31.37
28.55
25.6
22.94
20.86
19.45
18.64
18.18
17.78
17.14
16.03
14.36
12.1
9.31
6.12
2.63
-1.07
-4.97
-9.16
-13.84
-19.15
-25.08
-31.25
-36.94
-41.09
-42.62
-40.67
-34.82
-25.25
-12.81
0.99
14.28
25.12
32.0
34.25
32.25
27.18
20.65
14.17
8.77
4.98
2.9
2.45
3.39
5.35
7.75
9.9
11.11
10.97
9.46
6.86
3.68
0.35
-2.89
-5.98
-9.02
-12.17
-15.64
-19.57
-24.02
-28.82
-33.42
-36.94
-38.43
-37.09
-32.7
-25.67
-16.91
-7.52
1.51
9.53
16.18
21.22
24.53
26.0
25.7
23.91
21.15
18.07
15.31
13.35
12.36
12.15
12.26
12.09
11.21
9.46
7.02
4.28
1.6
-0.86
-3.2
-5.72
-8.75
-12.49
-17.01
-22.19
-27.72
-33.11
-37.63
-40.45
-40.83
-38.34
-33.13
-25.83
-17.4
-8.71
-0.35
7.47
14.65
20.99
26.01
29.09
29.8
28.18
24.77
20.55
16.46
13.2
11.04
9.95
9.72
10.09
10.8
11.54
11.92
11.56
10.2
7.8
4.57
0.83
-3.09
-6.92
-10.61
-14.22
-17.99
-22.21
-27.08
-32.48
-37.95
-42.6
-45.34
-45.22
-41.7
-34.93
-25.7
-15.22
-4.85
4.38
11.84
17.42
21.34
23.97
25.57
26.3
26.24
25.5
24.32
23.03
21.97
21.28
20.91
20.66
20.28
19.66
18.81
17.78
16.58
15.08
13.1
10.48
7.2
3.41
-0.61
-4.58
-8.35
-11.92
-15.52
-19.46
-24.08
-29.49
-35.48
-41.45
-46.42
-49.29
-49.1
-45.35
-38.2
-28.42
-17.23
-5.95
4.35
12.98
19.69
24.49
27.54
29.04
29.21
28.32
26.71
24.74
22.78
21.06
19.67
18.62
17.82
17.19
16.64
16.09
15.45
14.57
13.29
11.4
8.79
5.42
1.45
-2.82
-7.03
-10.93
-14.47
-17.88
-21.59
-26.02
-31.32
-37.12
-42.57
-46.49
-47.74
-45.6
-40.04
-31.68
-21.62
-11.06
-1.05
7.71
14.88
20.32
24.06
26.17
26.8
26.16
24.54
22.32
19.84
17.42
15.28
13.53
12.15
11.06
10.1
9.12
8.0
6.64
5.01
3.04
0.76
-1.82
-4.62
-7.61
-10.8
-14.3
-18.3
-22.91
-28.05
-33.28
-37.86
-40.79
-41.12
-38.28
-32.21
-23.47
-13.1
-2.34
7.67
16.08
22.48
26.8
29.21
29.97
29.34
27.57
24.91
21.72
18.37
15.25
12.63
10.61
9.12
8.02
7.1
6.2
5.17
3.88
2.17
-0.04
-2.72
-5.74
-8.85
-11.88
-14.79
-17.79
-21.24
-25.52
-30.78
-36.75
-42.69
-47.47
-49.84
-48.8
-44.01
-35.87
-25.44
-14.08
-3.07
6.75
15.02
21.71
26.92
30.66
32.88
33.53
32.71
30.74
28.08
25.26
22.66
20.49
18.75
17.34
16.06
14.73
13.16
11.21
8.77
5.87
2.63
-0.71
-3.94
-6.91
-9.7
-12.5
-15.64
-19.44
-24.13
-29.68
-35.75
-41.62
-46.24
-48.48
-47.42
-42.73
-34.75
-24.45
-13.14
-2.08
7.8
15.98
22.32
26.88
29.76
31.13
31.15
30.05
28.12
25.71
23.18
20.9
19.15
18.07
17.63
17.64
17.77
17.69
17.14
16.01
14.28
12.0
9.24
6.11
2.76
-0.6
-3.78
-6.73
-9.58
-12.77
-16.78
-21.95
-28.14
-34.64
-40.2
-43.42
-43.2
-39.08
-31.44
-21.36
-10.26
0.52
10.02
17.74
23.6
27.7
30.22
31.39
31.46
30.73
29.54
28.22
27.01
26.08
25.47
25.19
25.23
25.53
25.97
26.39
26.51
26.11
24.98
23.06
20.42
17.22
13.65
9.88
6.01
2.04
-2.21
-6.98
-12.5
-18.78
-25.42
-31.56
-35.98
-37.5
-35.36
-29.51
-20.64
-9.95
1.19
11.61
20.53
27.61
32.78
36.17
37.91
38.16
37.11
34.97
32.09
28.91
25.87
23.33
21.36
19.78
18.23
16.32
13.81
10.7
7.19
3.55
-0.03
-3.49
-6.94
-10.55
-14.49
-18.96
-24.09
-29.95
-36.38
-42.86
-48.49
-52.16
-52.87
-50.09
-44.03
-35.56
-25.88
-16.18
-7.28
0.4
6.66
11.35
14.23
15.13
14.06
11.44
8.0
4.58
1.81
-0.06
-1.22
-2.08
-3.04
-4.34
-5.97
-7.75
-9.46
-10.95
-12.25
-13.53
-15.14
-17.43
-20.71
-25.11
-30.46
-36.25
-41.71
-45.87
-47.83
-46.94
-42.97
-36.25
-27.45
-17.51
-7.31
2.36
10.97
18.03
23.17
26.1
26.74
25.33
22.47
18.99
15.67
13.08
11.36
10.29
9.44
8.42
6.97
5.08
2.87
0.54
-1.79
-4.07
-6.42
-9.01
-12.13
-16.03
-20.88
-26.61
-32.78
-38.59
-42.99
-44.88
-43.54
-38.82
-31.24
-21.76
-11.55
-1.6
7.45
15.3
21.79
26.79
30.09
31.48
30.96
28.86
25.81
22.62
19.92
18.07
16.95
16.21
15.38
14.13
12.31
10.03
7.42
4.66
1.81
-1.12
-4.2
-7.55
-11.35
-15.79
-20.98
-26.82
-32.86
-38.32
-42.18
-43.45
-41.44
-36.04
-27.73
-17.52
-6.59
3.94
13.31
21.13
27.33
31.94
35.01
36.49
36.38
34.85
32.3
29.32
26.5
24.26
22.7
21.6
20.61
19.44
17.95
16.18
14.25
12.23
10.13
7.85
5.3
2.41
-0.86
-4.57
-8.85
-13.93
-19.97
-26.83
-33.9
-40.13
-44.18
-44.88
-41.65
-34.72
-25.07
-14.13
-3.28
6.46
14.63
21.14
26.12
29.68
31.88
32.74
32.41
31.19
29.5
27.81
26.48
25.67
25.35
25.32
25.3
25.01
24.22
22.81
20.73
18.01
14.73
10.99
6.92
2.65
-1.68
-5.99
-10.27
-14.63
-19.3
-24.4
-29.84
-35.09
-39.22
-41.11
-39.79
-34.86
-26.65
-16.2
-4.89
5.95
15.37
22.95
28.62
32.52
34.77
35.46
34.69
32.73
29.93
26.82
23.88
21.49
19.81
18.82
18.32
18.02
17.63
16.93
15.78
14.2
12.28
10.13
7.8
5.26
2.41
-0.83
-4.54
-8.76
-13.55
-18.92
-24.7
-30.43
-35.25
-38.09
-37.93
-34.26
-27.3
-18.04
-7.91
1.73
9.92
16.29
20.84
23.73
25.06
24.91
23.41
20.92
18.0
15.32
13.37
12.36
12.17
12.43
12.76
12.82
12.43
11.56
10.28
8.7
6.9
4.94
2.79
0.4
-2.24
-5.13
-8.27
-11.78
-15.8
-20.41
-25.4
-30.14
-33.63
-34.81
-32.9
-27.77
-20.05
-10.83
-1.4
7.22
14.36
19.79
23.49
25.57
26.19
25.52
23.86
21.59
19.13
16.9
15.18
14.03
13.34
12.9
12.5
11.98
11.26
10.33
9.14
7.62
5.72
3.42
0.75
-2.22
-5.41
-8.82
-12.47
-16.46
-20.87
-25.72
-30.88
-35.96
-40.32
-43.09
-43.41
-40.78
-35.18
-27.22
-17.94
-8.44
0.32
7.78
13.75
18.22
21.24
22.85
23.11
22.16
20.29
17.88
15.38
13.16
11.48
10.41
9.92
9.88
10.06
10.18
9.97
9.22
7.86
5.94
3.63
1.12
-1.39
-3.79
-6.06
-8.29
-10.65
-13.36
-16.69
-20.81
-25.62
-30.63
-34.96
-37.51
-37.35
-34.04
-27.8
-19.54
-10.46
-1.73
5.85
11.93
16.55
19.84
21.91
22.78
22.53
21.36
19.59
17.64
15.92
14.62
13.77
13.3
13.12
13.18
13.4
13.66
13.72
13.26
12.06
10.03
7.3
4.08
0.62
-2.9
-6.46
-10.12
-14.06
-18.45
-23.38
-28.76
-34.15
-38.75
-41.57
-41.63
-38.42
-32.08
-23.44
-13.76
-4.32
3.9
10.41
15.18
18.38
20.2
20.76
20.18
18.63
16.41
13.96
11.71
10.0
8.97
8.51
8.36
8.23
7.86
7.13
6.01
4.51
2.66
0.53
-1.86
-4.44
-7.12
-9.81
-12.5
-15.3
-18.43
-22.11
-26.38
-30.9
-34.96
-37.57
-37.8
-35.11
-29.58
-21.96
-13.36
-4.96
2.35
8.11
12.25
14.92
16.29
16.49
15.66
13.98
11.8
9.54
7.64
6.37
5.76
5.62
5.59
5.31
4.55
3.27
1.58
-0.33
-2.31
-4.3
-6.31
-8.47
-10.9
-13.69
-16.95
-20.75
-25.09
-29.74
-34.23
-37.75
-39.39
-38.39
-34.48
-27.96
-19.67
-10.72
-2.11
5.45
11.59
16.23
19.37
21.1
21.5
20.76
19.16
17.07
14.92
13.04
11.69
10.94
10.63
10.46
10.02
8.99
7.21
4.79
2.0
-0.86
-3.58
-6.1
-8.53
-11.04
-13.86
-17.13
-20.99
-25.45
-30.33
-35.14
-39.13
-41.34
-40.94
-37.45
-31.0
-22.31
-12.51
-2.82
5.82
12.89
18.28
22.1
24.49
25.54
25.33
24.04
21.94
19.49
17.11
15.13
13.63
12.54
11.68
10.86
9.93
8.8
7.42
5.75
3.78
1.52
-1.0
-3.77
-6.77
-10.07
-13.74
-17.92
-22.7
-28.06
-33.73
-39.04
-43.09
-44.83
-43.46
-38.71
-30.92
-21.02
-10.19
0.4
9.89
17.73
23.73
27.86
30.24
31.03
30.47
28.86
26.55
23.91
21.33
19.14
17.53
16.54
15.97
15.51
14.77
13.48
11.59
9.24
6.66
4.1
1.64
-0.73
-3.16
-5.82
-8.87
-12.48
-16.83
-21.97
-27.77
-33.69
-38.83
-42.04
-42.29
-38.99
-32.25
-22.87
-12.09
-1.24
8.6
16.79
23.06
27.47
30.18
31.4
31.35
30.29
28.53
26.37
24.15
22.11
20.42
19.07
17.97
16.94
15.77
14.32
12.6
10.65
8.6
6.57
4.55
2.47
0.18
-2.49
-5.7
-9.6
-14.27
-19.74
-25.85
-32.12
-37.75
-41.71
-43.0
-40.96
-35.59
-27.49
-17.8
-7.76
1.57
9.54
15.91
20.68
23.93
25.65
25.88
24.74
22.58
19.94
17.45
15.62
14.67
14.5
14.7
14.79
14.31
13.05
11.07
8.58
5.93
3.37
0.96
-1.41
-4.0
-7.14
-11.09
-15.97
-21.65
-27.72
-33.39
-37.61
-39.35
-37.86
-32.98
-25.16
-15.42
-4.99
5.02
13.76
20.82
26.02
29.39
31.0
30.99
29.58
27.12
24.1
21.06
18.5
16.72
15.7
15.14
14.58
13.61
12.01
9.83
7.3
4.73
2.27
-0.09
-2.53
-5.3
-8.61
-12.49
-16.95
-21.95
-27.38
-33.05
-38.48
-42.84
-45.14
-44.43
-40.26
-32.85
-23.13
-12.38
-1.85
7.56
15.46
21.8
26.65
30.04
31.97
32.39
31.43
29.4
26.74
23.96
21.5
19.63
18.38
17.63
17.12
16.55
15.64
14.24
12.28
9.82
6.99
3.94
0.75
-2.58
-6.08
-9.92
-14.26
-19.21
-24.77
-30.7
-36.5
-41.33
-44.23
-44.32
-41.11
-34.68
-25.66
-15.14
-4.32
5.72
14.27
20.91
25.54
28.27
29.31
28.99
27.69
25.77
23.57
21.38
19.44
17.93
16.98
16.58
16.62
16.79
16.73
16.11
14.73
12.61
9.94
6.95
3.82
0.56
-2.95
-6.89
-11.43
-16.68
-22.66
-29.17
-35.79
-41.74
-45.97
-47.4
-45.27
-39.45
-30.53
-19.71
-8.38
2.28
11.54
19.1
25.02
29.39
32.29
33.72
33.72
32.49
30.38
27.9
25.58
23.8
22.71
22.19
21.97
21.65
20.93
19.6
17.6
15.01
12.0
8.76
5.45
2.18
-1.06
-4.39
-7.98
-12.05
-16.78
-22.22
-28.22
-34.3
-39.62
-43.16
-43.92
-41.25
-35.15
-26.29
-15.87
-5.24
4.42
12.38
18.41
22.6
25.21
26.48
26.58
25.66
23.94
21.76
19.54
17.67
16.43
15.87
15.89
16.29
16.76
17.01
16.72
15.66
13.75
11.1
8.01
4.8
1.74
-1.11
-3.88
-6.8
-10.13
-14.05
-18.65
-23.85
-29.41
-34.71
-38.85
-40.8
-39.67
-35.11
-27.5
-17.87
-7.6
2.06
10.29
16.8
21.72
25.29
27.65
28.79
28.63
27.27
25.03
22.46
20.17
18.55
17.75
17.59
17.74
17.86
17.71
17.15
16.09
14.47
12.23
9.34
5.87
1.99
-2.06
-6.12
-10.17
-14.35
-18.89
-23.98
-29.62
-35.5
-40.91
-44.87
-46.37
-44.59
-39.3
-30.97
-20.63
-9.64
0.72
9.6
16.69
22.0
25.73
27.97
28.77
28.19
26.48
24.09
21.62
19.55
18.16
17.46
17.27
17.3
17.36
17.27
16.9
16.12
14.79
12.81
10.16
6.97
3.47
-0.13
-3.7
-7.3
-11.14
-15.51
-20.58
-26.28
-32.17
-37.43
-41.06
-42.09
-39.87
-34.34
-25.97
-15.74
-4.88
5.31
13.85
20.16
24.14
26.05
26.37
25.55
23.99
22.0
19.9
18.11
17.1
17.22
18.57
20.8
23.31
25.41
26.57
26.6
25.56
23.68
21.14
18.02
14.36
10.19
5.67
0.96
-3.82
-8.76
-14.06
-19.89
-26.09
-32.01
-36.63
-38.8
-37.69
-33.21
-25.98
-17.23
-8.29
-0.23
6.29
11.07
14.13
15.56
15.48
14.03
11.5
8.4
5.3
2.75
1.05
0.22
-0.03
-0.1
-0.34
-0.9
-1.75
-2.72
-3.7
-4.65
-5.74
-7.2
-9.28
-12.18
-16.04
-20.87
-26.5
-32.5
-38.09
-42.24
-43.95
-42.5
-37.73
-30.13
-20.69
-10.61
-0.97
7.48
14.34
19.52
23.02
24.88
25.11
23.82
21.29
18.02
14.65
11.78
9.73
8.47
7.6
6.6
5.08
2.93
0.33
-2.38
-4.9
-7.13
-9.21
-11.43
-14.1
-17.46
-21.6
-26.45
-31.69
-36.77
-40.88
-43.1
-42.62
-39.01
-32.39
-23.48
-13.39
-3.26
5.98
13.88
20.3
25.27
28.77
30.65
30.75
29.12
26.11
22.39
18.76
15.84
13.92
12.87
12.27
11.65
10.65
9.1
7.1
4.85
2.55
0.33
-1.82
-4.12
-6.82
-10.27
-14.74
-20.37
-27.01
-34.13
-40.79
-45.8
-47.93
-46.34
-40.84
-32.01
-21.02
-9.32
1.8
11.5
19.38
25.37
29.56
31.98
32.69
31.81
29.7
26.93
24.13
21.84
20.31
19.5
19.1
18.72
18.01
16.76
14.92
12.58
9.92
7.1
4.24
1.29
-1.88
-5.48
-9.69
-14.65
-20.39
-26.73
-33.28
-39.39
-44.11
-46.38
-45.35
-40.62
-32.53
-22.09
-10.69
0.25
9.67
17.04
22.31
25.65
27.31
27.45
26.19
23.76
20.51
16.98
13.76
11.28
9.72
8.95
8.64
8.4
7.94
7.09
5.86
4.33
2.57
0.64
-1.41
-3.64
-6.12
-9.03
