3.6
12.42
19.63
25.05
28.59
30.2
29.96
28.13
25.22
21.91
18.88
16.66
15.48
15.16
15.27
15.24
14.57
12.96
10.43
7.25
3.79
0.38
-2.84
-5.97
-9.27
-13.08
-17.65
-23.1
-29.35
-36.01
-42.43
-47.62
-50.48
-50.03
-45.85
-38.15
-27.88
-16.37
-4.94
5.41
14.16
21.16
26.41
29.96
31.81
32.03
30.87
28.74
26.14
23.62
21.59
20.3
19.74
19.71
19.8
19.56
18.64
16.91
14.5
11.67
8.68
5.64
2.47
-1.05
-5.15
-10.05
-15.87
-22.59
-29.91
-37.14
-43.29
-47.11
-47.55
-44.05
-36.8
-26.72
-15.19
-3.6
6.94
15.81
22.79
27.96
31.39
33.15
33.27
31.87
29.35
26.28
23.38
21.21
20.02
19.71
19.84
19.93
19.6
18.62
16.96
14.67
11.81
8.49
4.79
0.86
-3.18
-7.27
-11.52
-16.15
-21.4
-27.39
-33.84
-40.0
-44.76
-46.93
-45.66
-40.73
-32.67
-22.57
-11.72
-1.31
7.85
15.29
20.82
24.37
25.96
25.73
23.95
21.17
18.05
15.28
13.37
12.51
12.45
12.69
12.61
11.82
10.21
8.04
5.74
3.68
1.98
0.49
-1.16
-3.39
-6.52
-10.71
-15.94
-21.93
-28.09
-33.56
-37.25
-38.16
-35.7
-29.9
-21.48
-11.57
-1.36
8.21
16.59
23.56
28.98
32.73
34.68
34.77
33.22
30.52
27.36
24.42
22.15
20.63
19.62
18.65
17.25
15.1
12.14
8.56
4.69
0.83
-2.84
-6.35
-9.86
-13.67
-18.06
-23.22
-29.17
-35.7
-42.26
-47.95
-51.7
-52.42
-49.43
-42.6
-32.61
-20.71
-8.39
2.99
12.52
19.84
25.02
28.29
29.92
30.08
28.94
26.77
23.96
21.07
18.66
17.1
16.45
16.4
16.42
15.98
14.77
12.78
10.23
7.47
4.7
1.98
-0.87
-4.06
-7.82
-12.3
-17.53
-23.51
-30.07
-36.8
-42.92
-47.35
-48.9
-46.69
-40.56
-31.17
-19.83
-8.08
2.8
12.09
19.62
25.54
30.04
33.14
34.78
34.94
33.76
31.65
29.14
26.79
24.98
23.84
23.22
22.84
22.33
21.44
20.0
17.99
15.49
12.61
9.42
5.98
2.29
-1.65
-5.83
-10.3
-15.16
-20.51
-26.39
-32.55
-38.37
-42.84
-44.83
-43.43
-38.27
-29.76
-18.93
-7.21
4.04
13.82
21.59
27.27
30.99
33.02
33.55
32.75
30.82
28.09
25.0
22.1
19.88
18.61
18.22
18.37
18.54
18.22
17.1
15.13
12.42
9.22
5.74
2.1
-1.59
-5.31
-9.04
-12.81
-16.82
-21.29
-26.45
-32.26
-38.23
-43.41
-46.55
-46.53
-42.75
-35.45
-25.6
-14.63
-3.93
5.51
13.2
19.07
23.19
25.64
26.42
25.61
23.5
20.6
17.62
15.2
13.79
13.39
13.68
14.07
14.05
13.24
11.59
9.31
6.75
4.21
1.83
-0.47
-2.93
-5.86
-9.57
-14.26
-19.95
-26.34
-32.76
-38.15
-41.29
-41.17
-37.34
-30.11
-20.5
-9.91
0.36
9.36
16.61
22.03
25.66
27.57
27.79
26.47
23.97
20.83
17.72
15.2
13.59
12.86
12.73
12.75
12.5
11.68
10.2
8.07
5.4
2.38
-0.82
-4.07
-7.3
-10.58
-14.11
-18.2
-23.15
-29.11
-35.8
-42.5
-48.06
-51.16
-50.79
-46.57
-38.92
-28.94
-18.01
-7.4
2.06
10.03
16.49
21.53
25.17
27.3
27.86
26.95
24.92
22.31
19.75
17.73
16.48
15.87
15.57
15.16
14.35
13.02
11.22
9.08
6.74
4.24
1.56
-1.33
-4.45
-7.81
-11.45
-15.5
-20.18
-25.65
-31.79
-38.04
-43.34
-46.37
-45.98
-41.62
-33.6
-23.06
-11.58
-0.62
8.87
16.53
22.47
26.95
30.14
32.09
32.78
32.31
30.93
29.01
26.87
24.75
22.77
20.98
19.41
18.07
16.96
15.95
14.85
13.42
11.43
8.82
5.61
1.99
-1.83
-5.64
-9.34
-13.0
-16.9
-21.42
-26.85
-33.22
-39.98
-46.09
-50.18
-51.0
-47.86
-40.87
-31.0
-19.68
-8.42
1.65
9.93
16.34
21.09
24.46
26.63
27.67
27.66
26.69
25.05
23.08
21.21
19.74
18.79
18.23
17.75
16.96
15.58
13.52
10.92
8.03
5.08
2.14
-0.83
-4.01
-7.53
-11.52
-16.07
-21.26
-27.1
-33.35
-39.36
-44.09
-46.35
-45.19
-40.3
-32.14
-21.85
-10.86
-0.46
8.46
15.48
20.53
23.72
25.22
25.23
24.0
21.86
19.21
16.5
14.13
12.41
11.49
11.34
11.72
12.21
12.38
11.87
10.56
8.55
6.12
3.55
0.93
-1.82
-4.95
-8.72
-13.33
-18.8
-25.05
-31.78
-38.47
-44.3
-48.28
-49.34
-46.75
-40.4
-30.93
-19.6
-7.95
2.65
11.35
17.91
22.53
25.59
27.36
27.96
27.43
25.91
23.7
21.3
19.18
17.68
16.87
16.56
16.42
16.11
15.37
14.06
12.15
9.7
6.79
3.54
-0.03
-3.86
-7.99
-12.42
-17.15
-22.22
-27.71
-33.74
-40.26
-46.95
-53.03
-57.38
-58.82
-56.6
-50.62
-41.58
-30.73
-19.46
-8.98
-0.05
7.04
12.26
15.76
17.71
18.24
17.56
15.92
13.66
11.15
8.77
6.8
5.37
4.45
3.91
3.53
3.13
2.52
1.57
0.16
-1.82
-4.37
-7.41
-10.77
-14.23
-17.67
-21.08
-24.69
-28.76
-33.53
-39.0
-44.73
-49.93
-53.57
-54.64
-52.51
-47.08
-38.84
-28.73
-17.85
-7.2
2.49
10.82
17.59
22.8
26.53
28.97
30.39
31.14
31.57
31.98
32.51
33.13
33.76
34.3
34.73
35.04
35.16
34.93
34.1
32.44
29.89
26.63
22.99
19.34
15.91
12.66
9.31
5.47
0.79
-4.89
-11.36
-18.03
-23.91
-27.77
-28.56
-25.67
-19.22
-10.14
0.16
10.25
19.0
25.88
30.84
34.07
35.75
35.99
34.86
32.59
29.65
26.67
24.29
22.82
22.23
22.09
21.9
21.15
19.68
17.58
15.12
12.58
10.09
7.58
4.9
1.82
-1.82
-6.11
-11.09
-16.72
-22.86
-29.12
-34.79
-38.92
-40.55
-39.0
-34.22
-26.75
-17.67
-8.2
0.6
8.06
13.83
17.79
19.9
20.14
18.67
15.81
12.21
8.62
5.77
4.05
3.46
3.59
3.86
3.72
2.9
1.44
-0.35
-2.16
-3.85
-5.49
-7.37
-9.83
-13.13
-17.35
-22.3
-27.52
-32.29
-35.71
-36.85
-35.03
-30.03
-22.25
-12.64
-2.44
7.16
15.37
21.82
26.44
29.28
30.31
29.52
27.02
23.26
18.97
14.97
11.89
9.93
8.83
8.05
7.08
5.58
3.54
1.18
-1.2
-3.45
-5.6
-7.88
-10.65
-14.24
-18.91
-24.64
-31.06
-37.45
-42.76
-45.86
-45.81
-42.18
-35.21
-25.78
-15.08
-4.32
5.62
14.24
21.37
26.96
30.93
33.13
33.52
32.24
29.78
26.88
24.33
22.64
21.93
21.85
21.75
21.01
19.28
16.58
13.29
9.88
6.66
3.63
0.55
-2.97
-7.21
-12.34
-18.31
-24.9
-31.65
-37.86
-42.56
-44.75
-43.64
-38.96
-31.16
-21.26
-10.55
-0.18
9.07
16.9
23.23
28.03
31.19
32.57
32.18
30.33
27.61
24.83
22.62
21.34
20.92
20.96
21.01
20.71
19.89
18.56
16.78
14.61
12.04
9.09
5.81
2.23
-1.64
-5.89
-10.64
-16.02
-21.93
-27.94
-33.28
-36.96
-37.97
-35.62
-29.86
-21.23
-10.84
-0.05
9.92
18.25
24.63
29.12
31.94
33.3
33.36
32.25
30.22
27.67
25.07
22.83
21.2
20.17
19.5
18.91
18.14
17.04
15.58
13.78
11.75
9.56
7.21
4.62
1.66
-1.78
-5.86
-10.71
-16.4
-22.87
-29.76
-36.31
-41.44
-43.95
-42.97
-38.27
-30.43
-20.61
-10.25
-0.51
7.87
14.63
19.73
23.21
25.08
25.34
24.13
21.78
18.81
15.83
13.4
11.85
11.25
11.28
11.45
11.25
10.29
8.52
6.17
3.62
1.15
-1.18
-3.54
-6.29
-9.75
-14.13
-19.4
-25.3
-31.26
-36.43
-39.79
-40.34
-37.46
-31.12
-21.94
-11.13
-0.0
10.26
18.87
25.47
29.94
32.31
32.66
31.13
28.05
23.95
19.55
15.56
12.51
10.57
9.53
8.92
8.17
6.87
4.95
2.57
0.09
-2.16
-4.07
-5.77
-7.63
-10.11
-13.62
-18.34
-24.21
-30.76
-37.21
-42.52
-45.57
-45.47
-41.8
-34.81
-25.32
-14.56
-3.81
5.89
13.93
20.09
24.4
26.97
27.92
27.37
25.57
22.92
19.99
17.38
15.52
14.59
14.45
14.72
14.93
14.69
13.79
12.18
10.0
7.38
4.47
1.33
-2.01
-5.58
-9.39
-13.54
-18.14
-23.33
-29.1
-35.14
-40.72
-44.77
-46.16
-44.07
-38.34
-29.56
-18.87
-7.63
2.95
12.08
19.39
24.88
28.67
30.96
31.92
31.75
30.65
28.9
26.84
24.79
23.01
21.61
20.56
19.75
19.05
18.35
17.51
16.36
14.63
12.1
8.73
4.71
0.46
-3.59
-7.11
-10.11
-12.89
-15.92
-19.69
-24.54
-30.44
-36.93
-43.11
-47.73
-49.55
-47.66
-41.87
-32.78
-21.61
-9.83
1.26
10.84
18.56
24.38
28.39
30.65
31.31
30.64
29.12
27.39
25.97
25.11
24.73
24.48
24.03
23.17
21.94
20.55
19.22
18.03
16.88
15.47
13.48
10.71
7.12
2.96
-1.39
-5.55
-9.25
-12.53
-15.69
-19.2
-23.5
-28.79
-34.92
-41.3
-47.0
-50.92
-51.99
-49.55
-43.51
-34.53
-23.8
-12.72
-2.48
6.17
13.02
18.18
21.83
24.11
25.09
24.9
23.86
22.43
21.09
20.17
19.71
19.55
19.5
19.49
19.62
20.1
20.99
22.09
22.95
22.97
21.71
18.99
15.04
10.39
5.62
1.17
-2.81
-6.44
-10.04
-13.97
-18.51
-23.81
-29.71
-35.69
-40.9
-44.17
-44.45
-41.11
-34.22
-24.61
-13.58
-2.59
7.22
15.18
21.05
24.9
26.89
27.29
26.42
24.72
22.65
20.61
18.8
17.27
15.98
14.87
14.09
13.79
14.12
15.05
16.28
17.34
17.72
17.04
15.18
12.31
8.76
4.93
1.14
-2.44
-5.82
-9.21
-12.91
-17.27
-22.53
-28.61
-35.0
-40.69
-44.46
-45.21
-42.35
-36.08
-27.34
-17.48
-7.8
0.76
7.77
13.18
17.12
19.73
21.07
21.24
20.38
18.78
16.87
15.0
13.48
12.48
12.01
11.96
12.14
12.26
12.02
11.15
9.54
7.24
4.45
1.43
-1.61
-4.59
-7.55
-10.59
-13.84
-17.48
-21.7
-26.68
-32.41
-38.59
-44.39
-48.67
-50.22
-48.19
-42.49
-33.8
-23.41
-12.78
-3.15
4.79
10.79
14.97
17.54
18.69
18.53
17.18
14.91
12.18
9.6
7.76
7.02
7.37
8.38
9.44
9.96
9.62
8.43
6.69
4.71
2.74
0.76
-1.42
-4.11
-7.53
-11.79
-16.83
-22.36
-27.86
-32.61
-35.73
-36.4
-34.02
-28.51
-20.35
-10.52
-0.24
9.33
17.37
23.5
27.67
29.97
30.5
29.36
26.72
22.97
18.77
14.88
11.91
10.1
9.19
8.61
7.75
6.22
4.0
1.37
-1.35
-3.92
-6.35
-8.8
-11.54
-14.76
-18.64
-23.29
-28.65
-34.39
-39.83
-43.96
-45.69
-44.2
-39.29
-31.49
-21.9
-11.81
-2.31
5.97
12.76
18.04
21.72
23.58
23.47
21.48
18.11
14.23
10.74
8.3
7.07
6.68
6.5
5.95
4.73
2.87
0.64
-1.66
-3.86
-5.97
-8.16
-10.71
-13.92
-18.04
-23.26
-29.56
-36.64
-43.76
-49.83
-53.59
-53.96
-50.39
-43.11
-33.04
-21.53
-9.94
0.69
9.83
17.29
23.07
27.17
29.53
30.13
29.19
27.14
24.61
22.2
20.24
18.77
17.49
16.03
14.08
11.61
8.79
5.9
3.17
0.65
-1.77
-4.32
-7.25
-10.73
-14.88
-19.75
-25.29
-31.25
-37.08
-41.88
-44.53
-44.04
-39.92
-32.4
-22.48
-11.54
-0.94
8.37
16.0
21.98
26.51
29.71
31.59
32.13
31.48
30.03
28.37
27.06
26.4
26.36
26.56
26.45
25.56
23.68
20.89
17.5
13.88
10.26
6.66
3.0
-0.87
-5.07
-9.63
-14.6
-20.07
-26.06
-32.41
-38.59
-43.69
-46.57
-46.24
-42.21
-34.74
-24.69
-13.34
-1.9
8.7
17.94
25.63
31.65
35.85
38.04
38.12
36.26
32.99
29.1
25.42
22.56
20.72
19.7
19.04
18.24
16.95
15.07
12.76
10.24
7.71
5.25
2.77
0.08
-3.09
-7.0
-11.88
-17.78
-24.52
-31.49
-37.71
-42.02
-43.28
-40.87
-34.86
-26.0
-15.5
-4.62
5.58
14.49
21.83
27.57
31.72
34.34
35.43
35.06
33.4
30.77
27.65
24.59
22.06
20.32
19.3
18.67
17.9
16.55
14.35
11.29
7.59
3.52
-0.65
-4.74
-8.7
-12.54
-16.32
-20.2
-24.42
-29.16
-34.42
-39.8
-44.48
-47.32
-47.23
-43.55
-36.31
-26.28
-14.74
-3.07
7.55
16.38
23.13
27.86
30.85
32.4
32.85
32.44
31.39
29.88
28.1
26.25
24.56
23.21
22.29
21.74
21.36
20.9
20.07
18.63
16.46
13.57
10.06
6.14
2.02
-2.2
-6.55
-11.21
-16.38
-22.21
-28.71
-35.57
-42.21
-47.75
-51.17
-51.5
-48.12
-41.01
-30.83
-18.84
-6.54
4.71
14.06
21.25
26.46
30.09
32.44
33.69
33.88
33.11
31.58
29.63
27.61
25.81
24.38
23.37
22.69
22.18
21.61
20.74
19.34
17.3
14.58
11.28
7.54
3.57
-0.41
-4.22
-7.8
-11.22
-14.82
-19.03
-24.27
-30.67
-37.77
-44.53
-49.51
-51.31
-49.03
-42.65
-33.01
-21.51
-9.67
1.34
10.91
18.86
25.24
30.04
33.16
34.54
34.28
32.78
30.61
28.35
26.39
24.84
23.56
22.41
21.3
20.25
19.33
18.53
17.64
16.35
14.35
11.46
7.76
3.48
-1.07
-5.62
-10.07
-14.47
-18.99
-23.84
-29.23
-35.16
-41.43
-47.43
-52.23
-54.74
-54.0
-49.54
-41.53
-30.84
-18.7
-6.39
5.07
15.11
23.47
30.09
34.93
37.88
38.93
38.25
36.25
33.53
30.67
28.12
26.05
24.38
22.94
21.56
20.17
18.76
17.33
15.82
14.1
11.96
9.27
5.96
2.13
-2.03
-6.26
-10.32
-14.11
-17.68
-21.25
-25.13
-29.59
-34.69
-40.11
-45.1
-48.59
-49.48
-47.04
-41.12
-32.31
-21.69
-10.53
0.01
9.18
16.57
22.09
25.78
27.77
28.23
27.45
25.83
23.87
21.97
20.44
19.35
18.6
17.99
17.36
16.61
15.77
14.91
14.0
12.91
11.43
9.34
6.53
3.11
-0.66
-4.41
-7.8
-10.69
-13.17
-15.56
-18.35
-22.03
-26.86
-32.74
-39.07
-44.74
-48.44
-48.99
-45.78
-38.97
-29.49
-18.67
-7.82
2.11
10.63
17.6
23.0
26.74
28.79
29.2
28.26
26.45
24.33
22.33
20.67
19.39
18.4
17.65
17.11
16.78
16.64
16.54
16.24
15.43
13.87
11.46
8.3
4.69
0.98
-2.56
-5.87
-9.09
-12.58
-16.71
-21.73
-27.68
-34.22
-40.7
-46.18
-49.62
-50.09
-47.07
-40.63
-31.47
-20.75
-9.78
0.3
8.77
15.34
20.02
22.96
24.35
24.4
23.36
21.59
19.55
17.66
16.23
15.36
14.96
14.8
14.67
14.33
13.67
12.58
10.98
8.82
6.14
3.07
-0.17
-3.35
-6.39
-9.36
-12.51
-16.17
-20.6
-25.87
-31.82
-37.97
-43.58
-47.66
-49.24
-47.55
-42.36
-34.11
-23.85
-12.95
-2.72
5.97
12.79
17.8
21.24
23.27
23.93
23.27
21.47
18.98
16.4
14.3
13.03
12.57
12.61
12.63
12.17
10.93
8.9
6.25
3.28
0.28
-2.62
-5.4
-8.14
-10.97
-14.06
-17.61
-21.79
-26.65
-31.97
-37.14
-41.17
-42.99
-41.72
-37.13
-29.71
-20.52
-10.86
-1.8
5.97
12.22
16.98
20.33
22.31
22.95
22.35
20.82
18.8
16.8
15.28
14.47
14.33
14.59
14.85
14.67
13.74
11.91
9.2
5.8
1.95
-2.13
-6.33
-10.58
-14.96
-19.56
-24.54
-30.05
-36.14
-42.6
-48.86
-53.92
-56.55
-55.69
-50.83
-42.31
-31.19
-18.98
-7.12
3.4
12.12
19.02
24.23
27.79
29.63
29.7
28.17
25.49
22.34
19.43
17.23
15.91
15.29
14.96
14.48
13.52
11.93
9.72
7.06
4.17
1.21
-1.74
-4.69
-7.71
-10.96
-14.59
-18.81
-23.81
-29.68
-36.17
-42.65
-48.03
-51.06
-50.69
-46.48
-38.79
-28.65
-17.41
-6.31
3.8
12.45
19.47
24.77
28.29
30.02
30.08
28.82
26.75
24.44
22.39
20.88
20.0
19.59
19.33
18.92
18.07
16.66
14.69
12.31
9.68
6.93
4.13
1.24
-1.87
-5.33
-9.28
-13.88
-19.33
-25.7
-32.84
-40.14
-46.48
-50.51
-51.01
-47.35
-39.79
-29.38
-17.6
-5.87
4.79
13.92
21.39
27.24
31.48
34.12
35.23
35.09
34.1
32.78
31.51
30.48
29.7
29.03
28.33
27.54
26.62
25.52
24.09
22.16
19.54
16.18
12.22
7.96
3.69
-0.35
-4.14
-7.85
-11.8
-16.38
-21.86
-28.24
-35.07
-41.47
-46.25
-48.2
-46.48
-40.9
-31.97
-20.79
-8.74
2.9
13.14
21.41
27.56
31.69
34.05
34.96
34.69
33.5
31.63
29.35
27.0
24.93
23.44
22.67
22.51
22.64
22.61
22.01
20.59
18.33
15.43
12.13
8.7
5.28
1.89
-1.51
-5.01
-8.77
-12.97
-17.85
-23.57
-30.04
-36.67
-42.45
-46.03
-46.24
-42.47
-34.96
-24.76
-13.34
-2.14
7.84
16.18
22.83
27.91
31.43
33.3
33.46
32.05
29.53
26.61
24.03
22.32
21.62
21.7
22.06
22.17
21.65
20.31
18.23
15.56
12.47
9.07
5.39
1.44
-2.76
-7.24
-12.11
-17.53
-23.65
-30.39
-37.28
-43.36
-47.42
-48.25
-45.15
-38.14
-28.06
-16.29
-4.29
6.74
16.12
23.6
29.22
33.04
35.1
35.43
34.21
31.85
28.97
26.24
24.15
22.89
22.34
22.13
21.87
21.23
20.04
18.2
15.67
12.49
8.71
4.46
-0.08
-4.71
-9.27
-13.72
-18.15
-22.84
-28.08
-34.1
-40.81
-47.61
-53.47
-57.05
-57.17
-53.19
-45.33
