12.33
12.93
14.04
15.25
16.14
16.28
15.35
13.2
9.89
5.69
1.06
-3.5
-7.61
-11.05
-13.86
-16.27
-18.6
-21.2
-24.32
-28.08
-32.41
-36.85
-40.65
-42.81
-42.35
-38.65
-31.76
-22.37
-11.74
-1.15
8.29
15.99
21.78
25.75
28.04
28.77
28.04
26.07
23.26
20.09
17.1
14.69
13.09
12.26
11.98
11.97
11.89
11.51
10.65
9.23
7.26
4.8
1.98
-1.02
-4.04
-7.0
-9.98
-13.16
-16.82
-21.25
-26.61
-32.82
-39.47
-45.71
-50.4
-52.31
-50.53
-44.81
-35.77
-24.7
-13.23
-2.8
5.74
12.14
16.66
19.71
21.59
22.48
22.42
21.51
19.97
18.12
16.29
14.75
13.63
12.92
12.54
12.38
12.31
12.13
11.64
10.54
8.61
5.8
2.26
-1.64
-5.46
-8.79
-11.47
-13.58
-15.5
-17.73
-20.79
-24.98
-30.22
-35.91
-41.06
-44.49
-45.18
-42.58
-36.74
-28.35
-18.46
-8.22
1.38
9.69
16.36
21.31
24.61
26.43
26.99
26.56
25.48
24.08
22.68
21.52
20.71
20.25
20.03
19.88
19.62
19.11
18.2
16.83
14.93
12.53
9.7
6.49
2.97
-0.79
-4.74
-8.8
-12.95
-17.23
-21.82
-26.92
-32.59
-38.54
-44.03
-47.92
-49.07
-46.69
-40.75
-31.95
-21.52
-10.79
-0.81
7.82
14.88
20.36
24.28
26.67
27.57
27.19
25.88
24.11
22.31
20.77
19.61
18.79
18.21
17.8
17.47
17.07
16.38
15.18
13.23
10.5
7.15
3.45
-0.26
-3.82
-7.21
-10.62
-14.35
-18.67
-23.8
-29.74
-36.19
-42.45
-47.5
-50.17
-49.48
-45.01
-37.11
-26.79
-15.47
-4.5
5.12
12.9
18.71
22.61
24.7
25.01
23.63
20.88
17.29
13.59
10.5
8.53
7.87
8.3
9.28
10.21
10.53
10.01
8.71
7.0
5.28
3.87
2.78
1.74
0.31
-2.03
-5.66
-10.8
-17.31
-24.66
-31.89
-37.7
-40.79
-40.18
-35.62
-27.68
-17.58
-6.73
3.62
12.66
19.99
25.49
29.1
30.79
30.63
28.9
26.11
22.97
20.15
18.13
17.04
16.62
16.4
15.87
14.7
12.86
10.54
8.04
5.59
3.25
0.94
-1.5
-4.23
-7.38
-11.1
-15.53
-20.76
-26.58
-32.49
-37.51
-40.56
-40.65
-37.32
-30.75
-21.77
-11.57
-1.34
8.0
15.88
22.08
26.56
29.32
30.45
30.12
28.64
26.47
24.16
22.16
20.74
19.92
19.46
18.98
18.11
16.57
14.29
11.38
8.08
4.62
1.1
-2.44
-6.1
-9.96
-14.13
-18.78
-24.07
-30.16
-36.98
-44.08
-50.5
-54.93
-56.09
-53.2
-46.26
-36.15
-24.28
-12.19
-1.09
8.36
15.96
21.8
26.05
28.81
30.14
30.12
29.01
27.19
25.15
23.38
22.25
21.85
22.07
22.57
22.91
22.7
21.67
19.75
16.98
13.57
9.73
5.63
1.38
-2.99
-7.54
-12.42
-17.79
-23.84
-30.55
-37.63
-44.36
-49.62
-52.16
-50.97
-45.66
-36.71
-25.3
-12.98
-1.14
9.27
17.87
24.64
29.74
33.24
35.21
35.78
35.22
33.96
32.46
31.06
29.92
28.99
28.16
27.36
26.54
25.64
24.53
23.04
21.0
18.3
14.99
11.22
7.24
3.23
-0.71
-4.63
-8.64
-12.98
-17.89
-23.53
-29.88
-36.46
-42.34
-46.23
-46.91
-43.6
-36.33
-25.97
-13.97
-1.86
9.12
18.29
25.4
30.53
33.82
35.41
35.49
34.37
32.49
30.37
28.43
26.94
25.92
25.22
24.67
24.1
23.44
22.61
21.54
20.06
18.0
15.22
11.74
7.71
3.43
-0.78
-4.74
-8.44
-12.06
-15.98
-20.58
-26.09
-32.36
-38.8
-44.35
-47.73
-47.79
-43.91
-36.32
-25.99
-14.38
-2.97
7.09
15.25
21.43
25.8
28.57
29.85
29.73
28.36
26.1
23.45
20.99
19.15
18.17
17.97
18.25
18.52
18.3
17.29
15.4
12.84
9.95
7.08
4.46
2.16
0.06
-1.99
-4.22
-6.87
-10.13
-14.11
-18.61
-22.99
-26.19
-26.94
-24.13
-17.32
-6.97
5.62
18.73
30.76
40.75
48.44
54.13
58.36
61.59
64.15
66.22
67.98
69.57
71.03
72.1
72.38
71.36
68.71
64.39
58.58
51.55
43.43
34.31
24.37
14.03
4.1
-4.47
-10.88
-14.75
-16.26
-16.0
-14.79
-13.44
-12.45
-11.91
-11.33
-9.71
-5.91
0.83
10.33
21.3
31.68
39.4
43.13
42.7
38.92
33.05
26.08
18.54
10.54
2.1
-6.49
-14.75
-22.15
-28.45
-33.72
-38.32
-42.56
-46.39
-49.42
-51.02
-50.72
-48.55
-45.23
-41.96
-40.05
-40.44
-43.35
-48.3
-54.39
-60.67
-66.57
-71.95
-77.13
-82.66
-89.13
-96.89
-105.93
-115.65
-124.94
-132.32
-136.28
-135.75
-130.36
-120.57
-107.47
-92.4
-76.7
-61.43
-47.37
-35.01
-24.61
-16.23
-9.71
-4.67
-0.7
2.59
5.46
8.01
10.31
12.38
14.32
16.22
18.1
19.87
21.33
22.23
22.36
21.63
20.09
17.93
15.41
12.77
10.19
7.72
5.29
2.6
-0.73
-5.1
-10.61
-16.87
-22.89
-27.33
-28.83
-26.58
-20.66
-12.06
-2.37
6.77
14.17
19.34
22.39
23.74
23.77
22.67
20.45
17.12
12.95
8.48
4.44
1.47
-0.03
-0.01
1.27
3.42
6.12
9.11
12.22
15.28
18.14
20.62
22.65
24.27
25.56
26.55
27.11
26.93
25.68
23.25
19.94
16.56
14.36
14.62
18.29
25.63
36.07
48.43
61.33
73.63
84.69
94.46
103.22
111.37
119.14
126.56
133.44
139.55
144.66
148.59
151.21
152.42
152.15
150.24
146.33
139.81
129.82
115.51
96.54
73.37
47.43
20.8
-4.38
-26.55
-45.1
-60.44
-73.52
-85.28
-96.18
-105.89
-113.42
-117.43
-116.72
-110.7
-99.6
-84.49
-66.97
-48.68
-30.97
-14.67
-0.19
12.23
22.3
29.65
33.94
35.07
33.32
29.37
24.07
18.29
12.62
7.27
2.11
-3.22
-9.12
-15.89
-23.63
-32.18
-41.15
-49.95
-57.89
-64.3
-68.74
-71.09
-71.63
-71.0
-70.08
-69.72
-70.51
-72.43
-74.78
-76.12
-74.73
-69.15
-58.73
-44.03
-26.59
-8.37
8.88
24.05
36.64
46.43
53.26
56.95
57.5
55.35
51.39
46.64
41.85
37.31
32.81
27.95
22.47
16.37
9.77
2.77
-4.72
-12.95
-22.27
-32.87
-44.7
-57.38
-70.25
-82.54
-93.6
-103.17
-111.48
-119.22
-127.22
-136.04
-145.66
-155.23
-163.21
-167.7
-167.04
-160.34
-147.75
-130.46
-110.3
-89.23
-68.86
-50.27
-34.04
-20.45
-9.7
-1.81
3.45
6.72
8.96
11.23
14.25
18.26
22.92
27.54
31.39
34.01
35.29
35.5
35.06
34.32
33.42
32.27
30.61
28.16
24.68
20.01
14.05
6.96
-0.77
-8.21
-14.05
-17.04
-16.25
-11.59
-3.75
6.04
16.39
26.13
34.6
41.51
46.83
50.57
52.73
53.34
52.49
50.48
47.77
44.9
42.38
40.52
39.33
38.5
37.58
36.17
34.07
31.37
28.33
25.24
22.22
19.26
16.11
12.47
8.01
2.48
-4.16
-11.69
-19.46
-26.47
-31.45
-33.23
-31.04
-24.86
-15.49
-4.3
7.05
17.18
25.15
30.64
33.76
34.89
34.43
32.76
30.27
27.43
24.75
22.69
21.47
20.96
20.72
20.16
18.78
16.44
13.38
10.09
7.06
4.5
2.24
-0.23
-3.5
-8.03
-13.9
-20.75
-27.77
-33.88
-37.85
-38.69
-35.88
-29.6
-20.68
-10.38
-0.01
9.46
17.52
24.06
29.12
32.7
34.67
34.99
33.77
31.51
28.91
26.7
25.34
24.82
24.67
24.23
22.93
20.56
17.34
13.81
10.52
7.84
5.7
3.72
1.31
-2.08
-6.79
-12.85
-19.97
-27.49
-34.38
-39.38
-41.31
-39.39
-33.62
-24.79
-14.25
-3.47
6.43
14.93
21.95
27.65
32.07
35.05
36.38
36.0
34.22
31.67
29.1
27.13
25.99
25.49
25.14
24.41
22.98
20.77
18.02
15.06
12.19
9.55
7.04
4.41
1.32
-2.56
-7.48
-13.56
-20.66
-28.28
-35.51
-41.08
-43.7
-42.47
-37.2
-28.56
-17.85
-6.57
4.02
13.18
20.68
26.63
31.17
34.35
36.1
36.4
35.39
33.39
30.92
28.47
26.45
25.06
24.23
23.67
23.02
21.92
20.15
17.66
14.62
11.25
7.81
4.48
1.35
-1.64
-4.64
-7.86
-11.61
-16.16
-21.69
-28.11
-34.82
-40.77
-44.57
-44.9
-41.04
-33.17
-22.38
-10.34
1.27
11.25
19.12
24.96
29.15
31.98
33.6
33.99
33.25
31.64
29.57
27.46
25.6
24.04
22.67
21.37
20.02
18.59
17.09
15.45
13.51
11.14
8.21
4.73
0.85
-3.17
-7.14
-10.93
-14.63
-18.5
-22.91
-28.14
-34.14
-40.31
-45.54
-48.43
-47.74
-42.91
-34.3
-23.13
-11.06
0.36
10.08
17.69
23.3
27.22
29.72
30.97
31.12
30.32
28.84
27.02
25.15
23.43
21.92
20.58
19.35
18.2
17.11
16.03
14.86
13.41
11.47
8.93
5.79
2.29
-1.25
-4.55
-7.5
-10.2
-13.0
-16.36
-20.72
-26.31
-32.97
-39.96
-46.08
-49.87
-50.06
-46.03
-38.13
-27.6
-16.16
-5.45
3.42
10.11
14.83
18.0
19.97
20.88
20.77
19.77
18.21
16.55
15.25
14.62
14.62
14.98
15.25
15.03
14.04
12.28
9.97
7.47
5.08
2.92
0.87
-1.35
-4.06
-7.48
-11.67
-16.55
-21.93
-27.46
-32.53
-36.29
-37.76
-36.17
-31.31
-23.69
-14.42
-4.88
3.74
10.72
15.9
19.43
21.53
22.34
21.94
20.47
18.22
15.69
13.48
12.06
11.61
11.94
12.53
12.72
11.97
10.07
7.16
3.7
0.17
-3.08
-6.03
-8.93
-12.19
-16.17
-21.07
-26.84
-33.17
-39.47
-44.87
-48.33
-48.89
-45.98
-39.62
-30.52
-19.92
-9.19
0.52
8.58
14.82
19.39
22.54
24.42
25.12
24.68
23.28
21.26
19.1
17.25
16.02
15.47
15.31
15.15
14.56
13.29
11.32
8.83
6.01
3.01
-0.15
-3.52
-7.14
-11.01
-15.11
-19.54
-24.5
-30.17
-36.49
-42.86
-48.17
-51.03
-50.21
-45.25
-36.61
-25.63
-13.96
-3.12
6.02
13.19
18.58
22.45
25.01
26.34
26.61
26.04
25.01
23.81
22.63
21.49
20.34
19.14
17.94
16.82
15.84
14.87
13.68
12.01
9.64
6.55
2.88
-1.12
-5.18
-9.13
-12.98
-16.93
-21.3
-26.41
-32.41
-39.03
-45.57
-50.86
-53.61
-52.75
-47.86
-39.3
-28.2
-16.07
-4.36
5.89
14.21
20.57
25.2
28.33
30.13
30.73
30.39
29.49
28.42
27.52
26.89
26.4
25.82
24.98
23.81
22.36
20.69
18.8
16.56
13.81
10.42
6.45
2.12
-2.25
-6.29
-9.76
-12.67
-15.27
-18.03
-21.52
-26.19
-32.06
-38.56
-44.52
-48.45
-48.93
-45.19
-37.37
-26.55
-14.37
-2.52
7.81
16.11
22.42
27.06
30.3
32.24
32.85
32.21
30.59
28.45
26.31
24.54
23.27
22.36
21.59
20.75
19.72
18.48
17.02
15.27
13.12
10.49
7.4
4.02
0.56
-2.83
-6.08
-9.25
-12.49
-16.03
-20.15
-25.13
-31.09
-37.74
-44.23
-49.22
-51.2
-49.07
-42.61
-32.64
-20.77
-8.86
1.63
9.94
16.05
20.37
23.43
25.51
26.73
27.08
26.62
25.57
24.29
23.14
22.36
21.99
21.88
21.71
21.2
20.1
18.3
15.82
12.79
9.41
5.91
2.42
-1.0
-4.34
-7.71
-11.25
-15.19
-19.74
-25.07
-31.07
-37.23
-42.57
-45.77
-45.63
-41.44
-33.4
-22.56
-10.5
1.15
11.21
19.12
24.88
28.73
31.03
32.01
31.87
30.88
29.37
27.7
26.2
25.06
24.28
23.76
23.37
22.95
22.36
21.48
20.2
18.38
15.94
12.79
8.95
4.53
-0.22
-5.04
-9.66
-13.9
-17.87
-21.86
-26.36
-31.82
-38.33
-45.36
-51.78
-56.03
-56.67
-52.92
-45.02
-34.14
-21.96
-10.07
0.48
9.3
16.43
22.06
26.24
28.9
30.05
29.89
28.89
27.68
26.8
26.5
26.66
26.93
26.87
26.23
25.03
23.53
22.07
20.79
19.53
17.9
15.44
11.9
7.42
2.48
-2.32
-6.55
-10.12
-13.34
-16.75
-20.87
-26.06
-32.36
-39.44
-46.55
-52.6
-56.32
-56.55
-52.67
-44.82
-33.94
-21.53
-9.15
2.01
11.28
18.56
23.99
27.8
30.11
31.05
30.82
29.79
28.45
27.25
26.46
26.09
25.88
25.49
24.69
23.49
22.12
20.91
20.04
19.34
18.37
16.58
13.57
9.33
4.21
-1.23
-6.45
-11.18
-15.4
-19.32
-23.27
-27.6
-32.66
-38.54
-44.92
-50.95
-55.29
-56.5
-53.55
-46.29
-35.57
-23.0
-10.35
0.98
10.28
17.49
22.85
26.63
28.96
29.9
29.6
28.42
26.87
25.5
24.61
24.27
24.27
24.24
23.91
23.14
21.97
20.56
19.07
17.49
15.67
13.36
10.36
6.64
2.41
-1.94
-6.05
-9.73
-13.06
-16.37
-20.15
-24.83
-30.65
-37.4
-44.33
-50.18
-53.42
-52.74
-47.51
-38.18
-26.12
-13.26
-1.39
8.31
15.51
20.45
23.62
25.44
26.12
25.72
24.41
22.51
20.43
18.64
17.42
16.88
16.92
17.29
17.67
17.75
17.27
16.04
13.98
11.17
7.76
3.96
0.0
-3.94
-7.79
-11.58
-15.42
-19.52
-24.1
-29.32
-35.04
-40.77
-45.5
-47.95
-46.93
-41.8
-32.78
-21.0
-8.19
3.9
13.93
21.31
26.1
28.76
29.85
29.82
28.93
27.4
25.41
23.24
21.13
19.33
17.94
16.95
16.24
15.65
14.96
13.95
12.44
10.32
7.58
4.31
0.7
-3.04
-6.74
-10.31
-13.76
-17.18
-20.83
-25.0
-30.03
-35.98
-42.45
-48.44
-52.52
-53.23
-49.64
-41.75
-30.53
-17.63
-4.82
6.58
15.88
23.04
28.29
31.89
33.96
34.55
33.78
31.93
29.44
26.78
24.38
22.41
20.88
19.66
18.54
17.38
16.08
14.55
12.73
10.58
8.1
5.33
2.36
-0.72
-3.82
-6.96
-10.22
-13.79
-17.97
-23.11
-29.41
-36.73
-44.29
-50.73
-54.43
-54.01
-48.91
-39.66
-27.69
-14.87
-2.83
7.4
15.53
21.73
26.32
29.5
31.31
31.76
30.99
29.33
27.28
25.3
23.67
22.43
21.47
20.62
19.75
18.82
17.86
16.81
15.56
13.87
11.59
8.61
5.07
1.27
-2.5
-6.02
-9.3
-12.56
-16.2
-20.66
-26.2
-32.81
-40.04
-46.92
-52.15
-54.34
-52.46
-46.22
-36.2
-23.82
-10.83
1.15
11.07
18.57
23.84
27.3
29.37
30.31
30.24
29.33
27.83
26.11
24.57
23.49
22.91
22.65
22.45
22.06
21.36
20.32
18.94
17.11
14.72
11.63
7.85
3.56
-0.94
-5.31
-9.37
-13.14
-16.89
-21.01
-25.91
-31.7
-38.08
-44.17
-48.63
-50.08
-47.52
-40.81
-30.73
-18.8
-6.76
4.0
12.64
19.02
23.35
26.0
27.23
27.21
26.14
24.28
22.04
19.86
18.14
17.1
16.75
16.91
17.21
17.29
16.78
15.47
13.33
10.53
7.32
4.0
0.75
-2.46
-5.73
-9.29
-13.34
-18.04
-23.47
-29.52
-35.79
-41.42
-45.27
-46.11
-43.07
-36.07
-25.89
-14.08
-2.39
7.74
15.54
20.91
24.22
25.94
26.42
25.91
24.57
22.63
20.45
18.42
16.87
15.97
15.68
15.77
15.91
15.77
15.03
13.53
11.28
8.45
5.29
2.02
-1.27
-4.58
-8.03
-11.71
-15.68
-20.07
-25.04
-30.82
-37.4
-44.32
-50.53
-54.56
-54.97
-50.96
-42.73
-31.48
-18.97
-6.93
3.49
11.86
18.3
23.14
26.67
29.01
30.21
30.36
29.63
28.3
26.62
24.83
23.07
21.45
20.04
18.88
17.93
17.09
16.18
14.98
13.24
10.85
7.78
4.16
0.2
-3.84
-7.8
-11.66
-15.58
-19.85
-24.8
-30.64
-37.24
-43.94
-49.58
-52.75
-52.21
-47.38
-38.62
-27.17
-14.77
-3.05
6.92
14.78
20.71
25.15
28.39
30.54
31.58
31.55
30.71
29.47
28.28
27.42
26.9
26.52
26.06
25.46
24.84
24.37
24.13
23.89
23.16
21.46
18.5
14.39
9.55
4.53
-0.23
-4.61
-8.71
-12.87
-17.42
-22.69
-28.82
-35.65
-42.58
-48.55
-52.22
-52.38
-48.35
-40.39
-29.52
-17.33
-5.32
5.39
14.28
21.26
26.46
29.98
31.9
32.32
31.46
29.75
27.69
25.77
24.3
23.35
22.83
22.49
22.11
21.55
20.79
19.84
18.69
17.23
15.28
12.7
9.49
5.81
1.99
-1.66
-4.95
-7.95
-10.95
-14.46
-18.97
-24.76
-31.72
-39.14
-45.78
-50.09
-50.7
-46.93
-39.08
-28.37
-16.58
-5.41
3.97
11.13
16.27
19.84
22.24
23.66
24.15
23.69
22.41
20.62
18.71
17.1
16.07
15.68
15.74
15.87
15.65
14.73
13.02
10.62
7.82
4.91
2.1
-0.58
-3.18
-5.84
-8.74
-12.07
-16.04
-20.83
-26.43
-32.44
-38.02
-41.96
-43.0
-40.3
-33.76
-24.17
-12.94
-1.7
8.21
16.09
21.81
25.7
28.18
29.58
30.06
29.75
28.77
27.36
25.83
24.48
23.51
22.88
22.43
21.85
20.83
19.16
16.77
13.75
10.25
6.4
2.33
-1.9
-6.24
-10.63
-14.98
-19.22
-23.39
-27.7
-32.46
-37.9
-43.9
-49.72
-54.1
-55.55
-52.91
-45.88
-35.25
-22.62
-9.93
1.29
10.25
16.94
21.85
25.48
28.13
29.81
30.45
30.1
29.05
27.68
26.36
25.27
24.38
23.51
22.53
21.37
20.03
18.55
16.87
14.82
12.16
8.74
4.62
0.04
-4.6
-8.9
-12.63
-15.87
-19.01
-22.61
-27.18
-32.94
-39.62
-46.33
-51.72
-54.3
-52.96
-47.29
-37.89
-26.09
-13.61
-1.97
7.83
15.46
21.09
25.1
27.84
29.55
30.35
30.38
29.79
28.78
27.54
26.21
24.88
23.61
22.48
21.53
20.76
20.1
19.31
18.15
16.36
13.79
10.48
6.62
2.45
-1.75
-5.81
-9.71
-13.56
-17.63
-22.23
-27.64
-33.89
-40.58
-46.81
-51.2
-52.36
-49.3
-41.93
-31.12
-18.53
-6.01
4.95
13.61
19.94
24.37
27.38
29.26
30.08
29.84
28.64
26.81
24.76
22.89
21.42
20.38
19.7
19.25
18.9
18.51
17.86
16.67
14.71
11.87
8.27
4.22
0.13
-3.7
-7.12
-10.27
-13.4
-16.94
-21.27
-26.64
-33.01
-39.85
-46.17
-50.58
-51.67
-48.53
-41.08
-30.23
-17.61
-5.08
5.8
14.22
20.06
23.77
25.94
26.99
27.16
26.51
25.11
23.17
21.05
19.16
17.81
17.13
16.94
16.87
16.49
15.45
13.61
11.13
8.26
5.3
