23.33
26.04
27.92
28.99
29.13
28.27
26.59
24.53
22.61
21.22
20.47
20.15
19.96
19.6
18.9
17.84
16.46
14.77
12.75
10.31
7.42
4.1
0.45
-3.46
-7.67
-12.39
-17.97
-24.68
-32.4
-40.4
-47.33
-51.53
-51.62
-47.0
-38.17
-26.56
-13.99
-2.15
7.94
15.91
21.89
26.2
29.09
30.67
31.01
30.28
28.73
26.71
24.6
22.66
21.12
20.03
19.36
18.91
18.45
17.66
16.26
14.12
11.27
7.93
4.38
0.87
-2.48
-5.68
-8.93
-12.51
-16.77
-22.0
-28.32
-35.46
-42.57
-48.31
-51.1
-49.68
-43.65
-33.72
-21.53
-9.06
1.99
10.72
17.08
21.53
24.62
26.64
27.59
27.36
25.98
23.78
21.34
19.24
17.91
17.4
17.43
17.48
17.04
15.77
13.64
10.88
7.88
4.98
2.34
-0.08
-2.46
-5.1
-8.26
-12.12
-16.81
-22.36
-28.53
-34.7
-39.84
-42.6
-41.84
-37.01
-28.52
-17.63
-6.05
4.56
13.18
19.47
23.69
26.3
27.65
27.96
27.25
25.64
23.39
20.95
18.81
17.38
16.8
16.89
17.15
17.08
16.19
14.34
11.63
8.44
5.13
1.95
-1.1
-4.14
-7.4
-11.02
-15.11
-19.8
-25.26
-31.57
-38.51
-45.36
-50.82
-53.32
-51.58
-45.16
-34.75
-22.02
-9.02
2.57
11.8
18.65
23.57
27.13
29.6
30.99
31.18
30.2
28.33
26.06
23.88
22.13
20.89
20.04
19.26
18.29
16.95
15.22
13.14
10.78
8.17
5.22
1.9
-1.78
-5.67
-9.6
-13.48
-17.53
-22.16
-27.86
-34.83
-42.59
-49.92
-55.09
-56.42
-52.88
-44.59
-32.68
-19.03
-5.55
6.32
15.87
23.04
28.17
31.63
33.7
34.56
34.34
33.25
31.57
29.6
27.61
25.81
24.28
23.0
21.85
20.66
19.21
17.3
14.79
11.68
8.09
4.19
0.17
-3.81
-7.63
-11.28
-14.81
-18.41
-22.45
-27.3
-33.19
-39.89
-46.52
-51.64
-53.63
-51.26
-44.25
-33.45
-20.55
-7.53
4.0
13.18
19.97
24.77
28.06
30.14
31.05
30.72
29.24
26.91
24.24
21.78
19.91
18.81
18.38
18.31
18.22
17.7
16.49
14.43
11.63
8.31
4.81
1.42
-1.75
-4.71
-7.65
-10.81
-14.5
-18.99
-24.44
-30.72
-37.26
-42.99
-46.52
-46.55
-42.35
-34.12
-22.99
-10.7
1.07
11.1
18.88
24.56
28.49
30.98
32.12
31.91
30.45
28.01
25.18
22.54
20.57
19.4
18.85
18.46
17.72
16.26
13.92
10.82
7.3
3.74
0.41
-2.6
-5.43
-8.34
-11.66
-15.63
-20.39
-25.96
-32.16
-38.47
-44.03
-47.64
-48.06
-44.49
-36.91
-26.21
-14.02
-2.1
8.15
16.06
21.65
25.32
27.49
28.37
28.01
26.44
23.91
20.97
18.22
16.22
15.22
15.05
15.29
15.37
14.83
13.45
11.26
8.49
5.44
2.38
-0.58
-3.47
-6.43
-9.65
-13.36
-17.75
-23.01
-29.17
-35.88
-42.38
-47.43
-49.6
-47.8
-41.7
-31.96
-20.09
-7.93
2.99
11.81
18.45
23.25
26.66
28.94
30.07
30.0
28.76
26.6
23.96
21.36
19.2
17.67
16.7
15.98
15.11
13.73
11.66
8.94
5.79
2.5
-0.7
-3.73
-6.66
-9.66
-12.89
-16.52
-20.77
-25.88
-31.94
-38.71
-45.43
-50.75
-53.12
-51.34
-45.03
-34.92
-22.61
-10.07
1.09
9.99
16.57
21.27
24.68
27.22
28.97
29.88
29.9
29.13
27.83
26.36
25.01
23.94
23.09
22.22
21.04
19.29
16.84
13.75
10.22
6.53
2.93
-0.43
-3.58
-6.7
-10.04
-13.87
-18.47
-23.99
-30.42
-37.37
-43.97
-48.91
-50.75
-48.41
-41.63
-31.25
-18.91
-6.56
4.26
12.75
18.95
23.34
26.46
28.55
29.61
29.46
28.08
25.73
22.94
20.35
18.51
17.58
17.37
17.37
17.04
15.99
14.21
11.88
9.32
6.77
4.26
1.66
-1.24
-4.61
-8.59
-13.32
-18.94
-25.46
-32.49
-39.18
-44.17
-46.06
-43.86
-37.47
-27.83
-16.6
-5.55
3.99
11.46
16.96
20.9
23.58
25.05
25.2
23.99
21.74
19.08
16.74
15.32
14.97
15.33
15.71
15.41
13.98
11.44
8.22
4.88
1.9
-0.61
-2.92
-5.53
-8.93
-13.45
-19.14
-25.77
-32.81
-39.45
-44.62
-47.14
-46.04
-40.87
-32.06
-20.75
-8.57
2.97
12.82
20.54
26.19
30.0
32.11
32.62
31.63
29.44
26.61
23.78
21.51
20.06
19.33
18.87
18.1
16.55
13.98
10.57
6.73
2.95
-0.48
-3.61
-6.79
-10.5
-15.11
-20.82
-27.52
-34.87
-42.23
-48.67
-53.01
-54.11
-51.18
-44.21
-34.08
-22.29
-10.5
0.06
8.84
15.91
21.61
26.24
29.76
31.94
32.58
31.71
29.73
27.29
25.02
23.36
22.32
21.61
20.69
19.14
16.78
13.72
10.29
6.8
3.4
0.03
-3.48
-7.31
-11.54
-16.2
-21.35
-27.07
-33.41
-40.05
-46.21
-50.57
-51.73
-48.68
-41.36
-30.72
-18.42
-6.26
4.46
13.18
19.98
25.21
29.13
31.76
32.98
32.79
31.4
29.3
27.06
25.13
23.74
22.89
22.36
21.92
21.29
20.23
18.61
16.36
13.52
10.22
6.58
2.73
-1.32
-5.59
-10.21
-15.38
-21.32
-28.15
-35.68
-43.2
-49.49
-53.02
-52.53
-47.46
-38.28
-26.37
-13.53
-1.39
9.01
17.35
23.76
28.55
31.92
33.88
34.42
33.61
31.71
29.13
26.41
24.07
22.43
21.53
21.06
20.52
19.39
17.39
14.56
11.24
7.83
4.65
1.75
-1.01
-3.92
-7.2
-11.09
-15.76
-21.34
-27.86
-34.95
-41.77
-47.03
-49.28
-47.49
-41.45
-31.94
-20.49
-8.83
1.61
10.08
16.43
20.92
23.81
25.29
25.39
24.3
22.44
20.5
19.24
19.22
20.51
22.66
24.82
26.06
25.79
23.87
20.75
17.16
13.81
11.1
8.97
7.01
4.66
1.38
-3.19
-9.15
-16.33
-24.17
-31.76
-37.84
-41.06
-40.4
-35.5
-26.94
-16.08
-4.66
5.78
14.3
20.62
24.96
27.65
28.91
28.8
27.38
24.95
22.02
19.29
17.3
16.27
15.99
15.97
15.61
14.5
12.47
9.67
6.47
3.24
0.22
-2.58
-5.4
-8.62
-12.65
-17.73
-23.89
-30.9
-38.2
-44.95
-50.03
-52.27
-50.74
-45.09
-35.76
-23.98
-11.4
0.32
10.07
17.38
22.49
25.89
28.07
29.22
29.34
28.38
26.48
24.09
21.8
20.16
19.36
19.16
19.01
18.31
16.7
14.2
11.14
7.97
5.04
2.45
0.04
-2.49
-5.48
-9.16
-13.75
-19.33
-25.88
-33.06
-40.14
-45.94
-49.01
-48.19
-42.97
-33.82
-22.06
-9.48
2.24
12.04
19.56
25.0
28.84
31.5
33.18
33.89
33.59
32.29
30.2
27.68
25.18
23.04
21.47
20.39
19.55
18.58
17.16
15.12
12.47
9.33
5.86
2.2
-1.55
-5.36
-9.21
-13.13
-17.21
-21.63
-26.65
-32.42
-38.77
-45.09
-50.25
-52.87
-51.84
-46.69
-37.87
-26.68
-14.81
-3.77
5.46
12.66
18.1
22.24
25.39
27.62
28.82
28.96
28.15
26.73
25.07
23.45
22.02
20.71
19.43
18.08
16.65
15.12
13.43
11.5
9.18
6.42
3.21
-0.27
-3.82
-7.24
-10.43
-13.47
-16.63
-20.35
-25.02
-30.66
-36.71
-41.98
-44.91
-44.08
-38.88
-29.79
-18.28
-6.29
4.45
12.94
19.05
23.22
26.07
27.99
29.04
29.06
28.0
26.05
23.67
21.47
19.9
19.16
19.02
19.0
18.57
17.29
15.06
12.04
8.63
5.22
2.03
-0.97
-3.98
-7.28
-11.11
-15.58
-20.72
-26.48
-32.75
-39.21
-45.19
-49.6
-51.19
-48.92
-42.44
-32.31
-19.94
-7.06
4.72
14.38
21.56
26.42
29.34
30.7
30.82
29.97
28.45
26.57
24.61
22.8
21.25
20.0
18.97
18.01
16.93
15.54
13.68
11.3
8.47
5.3
2.0
-1.28
-4.46
-7.56
-10.71
-14.12
-17.99
-22.57
-27.99
-34.28
-41.14
-47.8
-53.08
-55.55
-54.0
-47.91
-37.79
-25.07
-11.63
0.75
10.97
18.71
24.28
28.12
30.61
31.93
32.18
31.56
30.43
29.18
28.12
27.27
26.46
25.43
24.04
22.37
20.65
19.09
17.69
16.18
14.07
10.97
6.75
1.65
-3.72
-8.73
-12.95
-16.36
-19.32
-22.45
-26.36
-31.5
-37.92
-45.16
-52.2
-57.61
-59.86
-57.86
-51.37
-41.17
-28.84
-16.28
-5.03
4.06
10.85
15.7
19.08
21.32
22.59
22.99
22.67
21.92
21.05
20.27
19.71
19.29
18.91
18.46
17.91
17.31
16.61
15.71
14.36
12.27
9.26
5.37
0.87
-3.89
-8.53
-12.92
-17.11
-21.39
-26.13
-31.69
-38.11
-44.99
-51.32
-55.66
-56.49
-52.78
-44.46
-32.63
-19.13
-5.98
5.33
14.16
20.66
25.32
28.59
30.59
31.22
30.48
28.58
26.09
23.7
21.96
21.12
20.99
21.06
20.7
19.44
17.09
13.85
10.14
6.49
3.25
0.45
-2.15
-4.94
-8.27
-12.4
-17.4
-23.24
-29.69
-36.17
-41.7
-45.02
-44.92
-40.75
-32.79
-22.19
-10.65
0.22
9.42
16.63
22.05
25.99
28.64
29.93
29.78
28.28
25.84
23.08
20.61
18.82
17.81
17.3
16.87
16.03
14.47
12.11
9.09
5.69
2.23
-1.12
-4.31
-7.43
-10.65
-14.23
-18.39
-23.36
-29.27
-35.92
-42.66
-48.3
-51.35
-50.51
-45.18
-35.8
-23.73
-10.86
1.13
11.18
19.0
24.83
29.05
31.91
33.42
33.57
32.48
30.54
28.26
26.16
24.5
23.31
22.36
21.32
19.85
17.78
15.09
11.87
8.31
4.53
0.65
-3.32
-7.43
-11.75
-16.39
-21.51
-27.29
-33.88
-41.24
-48.9
-55.87
-60.77
-62.14
-59.03
-51.39
-40.21
-27.23
-14.34
-2.98
6.19
13.24
18.66
22.87
26.09
28.22
29.13
28.82
27.54
25.77
24.03
22.76
22.17
22.17
22.43
22.51
21.9
20.28
17.52
13.79
9.45
4.86
0.37
-3.89
-7.97
-12.04
-16.35
-21.17
-26.72
-33.13
-40.2
-47.3
-53.27
-56.63
-56.05
-50.86
-41.38
-28.96
-15.48
-2.77
7.95
16.28
22.48
27.02
30.23
32.17
32.73
31.86
29.82
27.17
24.63
22.83
22.05
22.09
22.41
22.33
21.31
19.17
16.14
12.66
9.2
6.07
3.25
0.51
-2.54
-6.23
-10.79
-16.34
-22.8
-29.81
-36.63
-42.14
-44.98
-44.02
-38.8
-29.79
-18.33
-6.16
5.13
14.56
21.81
27.06
30.52
32.3
32.34
30.69
27.74
24.22
21.09
19.1
18.51
18.99
19.71
19.79
18.63
16.17
12.85
9.34
6.15
3.43
0.88
-2.02
-5.74
-10.52
-16.39
-23.11
-30.26
-37.15
-42.8
-45.96
-45.46
-40.68
-31.88
-20.26
-7.61
4.31
14.32
22.03
27.69
31.68
34.24
35.31
34.75
32.64
29.49
26.13
23.36
21.68
21.05
20.94
20.63
19.52
17.33
14.19
10.52
6.78
3.3
0.16
-2.86
-6.12
-10.01
-14.84
-20.77
-27.75
-35.48
-43.28
-50.05
-54.44
-55.15
-51.4
-43.31
-31.95
-19.05
-6.38
4.76
13.78
20.77
26.08
30.01
32.62
33.82
33.54
31.99
29.66
27.21
25.15
23.77
22.92
22.26
21.33
19.83
17.67
14.98
11.98
8.85
5.65
2.31
-1.36
-5.45
-10.02
-15.06
-20.57
-26.6
-33.1
-39.76
-45.76
-49.86
-50.7
-47.28
-39.46
-28.08
-14.81
-1.44
10.54
20.34
27.78
33.08
36.56
38.44
38.89
38.11
36.37
34.06
31.58
29.3
27.48
26.19
25.35
24.71
23.91
22.61
20.59
17.79
14.34
10.45
6.4
2.39
-1.49
-5.29
-9.19
-13.45
-18.39
-24.26
-31.15
-38.77
-46.33
-52.54
-55.93
-55.2
-49.83
-40.28
-27.99
-14.85
-2.62
7.62
15.59
21.63
26.23
29.69
31.98
32.9
32.32
30.4
27.68
24.84
22.48
20.92
20.01
19.32
18.3
16.56
14.0
10.88
7.59
4.52
1.86
-0.48
-2.79
-5.38
-8.53
-12.4
-17.03
-22.38
-28.21
-34.01
-38.87
-41.63
-41.21
-37.02
-29.29
-19.11
-8.1
2.19
10.7
17.14
21.78
25.11
27.42
28.71
28.82
27.68
25.52
22.88
20.49
18.89
18.27
18.37
18.65
18.46
17.32
15.09
11.94
8.28
4.52
0.92
-2.46
-5.79
-9.3
-13.26
-17.9
-23.33
-29.58
-36.34
-42.95
-48.24
-50.86
-49.58
-43.84
-34.04
-21.56
-8.23
4.17
14.47
22.27
27.78
31.48
33.81
34.99
35.1
34.23
32.55
30.4
28.18
26.21
24.68
23.55
22.64
21.67
20.36
18.48
15.96
12.84
9.28
5.49
1.62
-2.26
-6.18
-10.24
-14.51
-19.07
-24.0
-29.44
-35.43
-41.76
-47.75
-52.18
-53.61
-50.87
-43.63
-32.63
-19.55
-6.32
5.44
14.93
22.07
27.22
30.77
32.92
33.73
33.33
31.98
30.16
28.28
26.61
25.21
23.95
22.72
21.52
20.36
19.24
18.02
16.49
14.39
11.57
8.04
3.98
-0.36
-4.72
-8.91
-12.91
-16.86
-21.1
-26.04
-31.96
-38.72
-45.59
-51.23
-54.04
-52.7
-46.72
-36.72
-24.22
-11.19
0.68
10.37
17.62
22.77
26.3
28.57
29.72
29.72
28.61
26.58
24.01
21.45
19.39
18.15
17.73
17.81
17.92
17.5
16.23
14.09
11.29
8.19
5.14
2.24
-0.54
-3.4
-6.51
-10.05
-14.18
-19.07
-24.84
-31.31
-37.82
-43.17
-45.88
-44.66
-38.98
-29.38
-17.37
-4.92
6.2
14.95
21.13
25.14
27.56
28.77
28.87
27.79
25.57
22.48
19.09
16.05
13.89
12.78
12.47
12.41
11.94
10.62
8.32
5.33
2.15
-0.8
-3.33
-5.58
-7.94
-10.82
-14.52
-19.16
-24.7
-30.94
-37.45
-43.45
-47.81
-49.24
-46.72
-39.97
-29.66
-17.33
-4.83
6.22
14.89
21.04
25.02
27.3
28.17
27.72
26.01
23.28
20.0
16.85
14.42
13.01
12.53
12.53
12.41
11.63
9.92
7.28
4.0
0.44
-3.06
-6.32
-9.39
-12.46
-15.85
-19.84
-24.61
-30.25
-36.61
-43.27
-49.44
-53.97
-55.58
-53.21
-46.46
-35.85
-22.76
-9.05
3.5
13.72
21.21
26.27
29.54
31.58
32.66
32.8
31.96
30.2
27.81
25.23
22.92
21.14
19.88
18.89
17.81
16.3
14.18
11.44
8.27
4.91
1.64
-1.39
-4.12
-6.61
-9.06
-11.76
-15.07
-19.35
-24.87
-31.51
-38.57
-44.81
-48.56
-48.36
-43.43
-34.07
-21.7
-8.32
4.16
14.54
22.51
28.46
33.01
36.52
38.94
40.01
39.5
37.53
34.64
31.57
28.98
27.21
26.19
25.53
24.71
23.3
21.12
18.22
14.78
11.04
7.21
3.36
-0.56
-4.66
-9.06
-13.83
-19.05
-24.77
-31.04
-37.71
-44.26
-49.69
-52.64
-51.84
-46.64
-37.42
-25.56
-12.98
-1.49
7.78
14.63
19.42
22.65
24.6
25.17
24.27
22.08
19.24
16.64
15.06
14.79
15.48
16.3
16.38
15.15
12.56
9.02
5.13
1.38
-2.0
-5.16
-8.41
-12.12
-16.57
-21.84
-27.85
-34.29
-40.58
-45.8
-48.85
-48.63
-44.42
-36.28
-25.1
-12.43
0.03
10.9
19.46
25.6
29.54
31.49
31.55
29.81
26.57
22.46
18.38
15.18
13.3
12.59
12.41
11.93
10.54
8.1
4.91
1.5
-1.73
-4.69
-7.67
-11.14
-15.57
-21.16
-27.75
-34.88
-41.7
-47.15
-50.11
-49.64
-45.26
-37.21
-26.45
-14.46
-2.79
7.38
15.51
21.63
26.07
29.1
30.7
30.77
29.28
26.55
23.26
20.24
18.03
16.71
15.83
14.66
12.62
9.54
5.72
1.76
-1.79
-4.67
-6.99
-9.23
-11.98
-15.83
-21.14
-27.9
-35.58
-43.11
-49.0
-51.71
-50.14
-44.01
-34.08
-21.84
-9.01
2.98
13.33
21.89
28.85
34.39
38.49
41.01
41.9
41.41
40.1
38.62
37.42
36.44
35.13
32.69
28.47
22.29
14.51
5.91
-2.71
-10.78
-18.14
-24.88
-31.16
-37.07
-42.6
-47.76
-52.62
-57.3
-61.62
-64.98
-66.3
-64.38
-58.4
-48.43
-35.53
-21.44
-7.92
3.87
13.62
21.66
28.49
34.33
38.91
41.72
42.39
41.03
38.24
35.0
32.18
30.27
29.24
28.66
27.95
26.61
24.42
21.43
17.91
14.13
10.33
6.61
2.93
-0.8
-4.76
-9.15
-14.19
-20.07
-26.77
-33.9
-40.53
-45.34
-46.88
-44.15
-37.02
-26.43
-14.05
-1.75
9.01
17.57
24.02
28.82
32.38
34.79
35.86
35.36
33.35
30.35
27.11
24.41
22.66
21.76
21.2
20.29
18.58
16.01
12.88
9.69
6.8
4.31
1.98
-0.59
-3.8
-7.91
-13.03
-19.11
-25.9
-32.9
-39.16
-43.45
-44.52
-41.54
-34.53
-24.42
-12.78
-1.33
8.71
16.8
22.97
27.56
30.74
32.45
32.54
30.96
28.07
24.56
21.29
18.86
17.49
16.85
16.29
15.18
13.18
10.4
7.29
4.37
1.95
-0.05
-2.04
-4.58
-8.17
-13.12
-19.4
-26.66
-34.17
-40.8
-45.22
-46.2
-42.99
-35.73
-25.45
-13.78
-2.44
7.36
15.17
21.16
25.81
29.46
32.13
33.53
33.4
31.73
28.93
25.68
22.76
20.67
19.48
18.85
18.18
16.91
14.75
11.73
8.15
4.39
0.69
-2.89
-6.43
-10.13
-14.12
-18.56
-23.6
-29.33
-35.6
-41.89
-47.15
-50.01
-49.21
-44.18
-35.32
-23.95
-11.87
-0.69
8.62
15.9
21.52
25.95
29.44
31.95
33.3
33.36
32.29
30.44
28.31
26.27
24.56
23.18
22.0
20.83
19.47
17.81
15.74
13.25
10.33
6.99
3.3
-0.62
-4.65
-8.72
-12.84
-17.16
-21.99
-27.61
-34.12
-41.18
-47.92
-52.97
-54.88
-52.57
-45.82
-35.41
-22.94
-10.24
1.2
10.59
17.89
23.53
27.98
31.49
34.06
35.57
35.98
35.49
34.42
33.09
31.73
30.37
28.95
27.39
25.7
23.89
22.0
19.94
17.56
14.63
11.05
6.88
2.35
-2.15
-6.31
-9.95
-13.14
-16.25
-19.8
-24.38
-30.36
-37.6
-45.22
-51.71
-55.3
-54.52
-48.82
-38.84
-26.24
-13.05
-1.02
8.89
16.5
22.2
26.46
29.58
31.58
32.39
32.04
30.7
28.72
26.46
24.19
22.07
20.16
18.43
16.83
15.23
13.51
11.5
9.11
6.28
3.14
-0.17
-3.45
-6.55
-9.42
-12.09
-14.72
-17.63
-21.23
-25.89
-31.72
-38.22
-44.27
-48.29
-48.77
-44.86
-36.82
-25.93
-14.06
-3.0
6.13
13.07
18.17
21.95
24.7
26.37
26.76
25.78
23.75
21.32
19.25
18.08
17.91
18.33
18.65
18.19
16.59
13.94
10.69
7.39
4.43
1.86
-0.55
-3.18
-6.34
-10.2
-14.77
-20.06
-26.0
-32.35
-38.51
-43.41
-45.77
-44.53
-39.32
-30.75
-20.2
-9.35
0.42
8.43
14.63
19.36
22.95
25.49
26.83
26.81
25.48
23.19
20.56
18.19
16.43
15.32
14.5
13.47
11.79
9.32
6.22
2.91
-0.19
-2.85
-5.11
-7.29
-9.81
-13.01
-17.1
-22.14
-28.05
-34.55
-41.13
-46.88
-50.59
-51.02
-47.39
-39.69
-28.9
-16.67
-4.78
5.46
13.48
19.39
23.65
26.63
28.39
28.81
27.81
25.62
22.79
20.1
18.19
17.31
17.23
17.36
16.98
15.6
13.16
9.95
6.47
3.17
0.21
-2.51
-5.32
-8.54
-12.42
-17.09
-22.61
-28.98
-36.03
-43.2
-49.49
-53.55
-54.04
-50.22
-42.22
-31.14
-18.65
-6.47
4.17
12.72
19.24
24.11
27.65
30.04
31.3
31.4
30.44
28.68
26.52
24.38
22.6
21.28
20.32
19.39
18.14
16.22
13.55
10.2
6.42
