22.16
19.51
16.51
13.2
9.63
5.86
2.01
-1.88
-5.9
-10.35
-15.59
-21.93
-29.31
-37.14
-44.28
-49.19
-50.49
-47.38
-39.98
-29.38
-17.2
-5.12
5.62
14.44
21.28
26.39
30.02
32.32
33.37
33.25
32.15
30.37
28.27
26.17
24.32
22.81
21.57
20.42
19.05
17.22
14.78
11.76
8.36
4.83
1.37
-1.96
-5.27
-8.73
-12.48
-16.64
-21.31
-26.62
-32.64
-39.22
-45.78
-51.17
-53.96
-52.85
-47.24
-37.62
-25.36
-12.35
-0.26
9.87
17.83
23.92
28.56
31.96
34.03
34.56
33.47
30.98
27.65
24.2
21.21
19.02
17.6
16.64
15.77
14.65
13.04
10.89
8.25
5.23
1.94
-1.51
-5.04
-8.55
-12.03
-15.54
-19.28
-23.55
-28.68
-34.71
-41.18
-47.01
-50.71
-50.84
-46.62
-38.3
-27.14
-14.98
-3.53
6.12
13.7
19.49
23.91
27.08
28.84
28.89
27.15
23.93
19.93
15.96
12.64
10.2
8.48
7.06
5.5
3.57
1.31
-1.06
-3.29
-5.23
-6.91
-8.51
-10.27
-12.38
-14.99
-18.17
-22.01
-26.49
-31.45
-36.34
-40.21
-41.84
-40.11
-34.5
-25.4
-14.1
-2.34
8.22
16.59
22.63
26.74
29.51
31.26
31.98
31.47
29.71
26.98
23.86
21.04
18.97
17.71
16.88
15.94
14.37
11.96
8.83
5.33
1.8
-1.54
-4.73
-8.0
-11.58
-15.66
-20.26
-25.37
-30.94
-36.88
-42.89
-48.31
-52.04
-52.84
-49.78
-42.66
-32.21
-19.93
-7.58
3.4
12.27
18.95
23.82
27.29
29.53
30.45
29.91
27.91
24.78
21.15
17.74
15.17
13.67
13.08
12.9
12.55
11.56
9.72
7.07
3.79
-0.0
-4.24
-8.91
-13.98
-19.36
-24.91
-30.55
-36.33
-42.23
-48.0
-52.94
-55.9
-55.62
-51.23
-42.72
-31.05
-17.88
-4.99
6.33
15.55
22.82
28.51
32.89
35.9
37.27
36.85
34.83
31.84
28.69
26.1
24.45
23.61
23.1
22.39
21.1
19.18
16.85
14.43
12.16
10.05
7.91
5.46
2.48
-1.15
-5.48
-10.5
-16.19
-22.37
-28.55
-33.74
-36.72
-36.37
-32.14
-24.39
-14.28
-3.38
6.98
16.0
23.55
29.84
34.99
38.78
40.76
40.47
37.88
33.45
28.13
22.96
18.78
15.97
14.36
13.48
12.68
11.47
9.58
6.99
3.85
0.35
-3.3
-6.91
-10.35
-13.55
-16.52
-19.48
-22.8
-26.82
-31.58
-36.61
-40.86
-42.94
-41.64
-36.38
-27.55
-16.37
-4.51
6.46
15.49
22.14
26.47
28.72
29.15
27.93
25.25
21.5
17.28
13.35
10.34
8.57
7.88
7.71
7.34
6.24
4.26
1.72
-0.87
-3.02
-4.58
-5.75
-7.03
-8.92
-11.81
-15.88
-21.09
-27.19
-33.67
-39.6
-43.79
-44.99
-42.29
-35.6
-25.72
-14.13
-2.48
7.96
16.55
23.22
28.09
31.21
32.47
31.73
29.16
25.35
21.21
17.61
15.08
13.63
12.76
11.85
10.41
8.29
5.76
3.25
1.16
-0.42
-1.72
-3.25
-5.57
-9.1
-14.02
-20.15
-27.02
-33.8
-39.38
-42.51
-42.19
-37.96
-30.13
-19.79
-8.4
2.67
12.49
20.7
27.34
32.47
35.99
37.67
37.3
35.02
31.4
27.31
23.62
20.82
18.93
17.52
15.95
13.76
10.84
7.44
4.02
0.99
-1.49
-3.58
-5.69
-8.27
-11.75
-16.41
-22.32
-29.25
-36.53
-43.09
-47.6
-48.78
-45.88
-38.97
-28.97
-17.33
-5.6
5.05
14.05
21.3
26.88
30.83
33.02
33.32
31.77
28.76
25.03
21.44
18.69
17.11
16.55
16.53
16.42
15.75
14.32
12.26
9.84
7.36
4.92
2.43
-0.34
-3.61
-7.5
-12.04
-17.22
-22.98
-29.13
-35.16
-40.15
-42.89
-42.23
-37.57
-29.23
-18.36
-6.65
4.33
13.56
20.72
26.01
29.79
32.34
33.71
33.91
33.0
31.23
29.0
26.7
24.66
23.07
21.93
21.08
20.28
19.25
17.75
15.65
12.94
9.75
6.24
2.62
-0.97
-4.42
-7.71
-10.89
-14.11
-17.66
-21.79
-26.63
-31.93
-36.98
-40.66
-41.71
-39.17
-32.77
-23.1
-11.52
0.3
10.84
19.16
24.99
28.62
30.55
31.26
31.04
30.1
28.55
26.57
24.43
22.36
20.55
19.03
17.74
16.51
15.2
13.76
12.22
10.6
8.92
7.1
4.99
2.45
-0.54
-3.87
-7.31
-10.64
-13.77
-16.88
-20.32
-24.5
-29.56
-35.11
-40.14
-43.24
-43.03
-38.81
-30.84
-20.37
-9.23
0.83
8.74
14.24
17.79
20.02
21.4
22.06
21.87
20.74
18.82
16.56
14.52
13.11
12.48
12.4
12.44
12.12
11.1
9.31
6.88
4.09
1.21
-1.53
-4.11
-6.62
-9.22
-12.06
-15.21
-18.69
-22.56
-26.86
-31.49
-36.03
-39.65
-41.2
-39.62
-34.47
-26.18
-16.05
-5.79
3.16
10.07
14.97
18.34
20.69
22.21
22.82
22.4
21.03
19.1
17.16
15.66
14.7
14.08
13.38
12.23
10.46
8.14
5.53
2.91
0.5
-1.67
-3.69
-5.74
-8.0
-10.57
-13.51
-16.84
-20.62
-24.96
-29.85
-34.95
-39.5
-42.34
-42.29
-38.63
-31.51
-22.0
-11.69
-2.15
5.66
11.5
15.71
18.81
21.07
22.47
22.82
22.07
20.43
18.37
16.39
14.81
13.74
13.02
12.44
11.78
10.88
9.62
7.93
5.73
3.04
-0.02
-3.24
-6.36
-9.2
-11.79
-14.37
-17.31
-21.0
-25.69
-31.26
-37.18
-42.42
-45.73
-45.89
-42.25
-34.91
-24.87
-13.65
-2.83
6.37
13.41
18.35
21.57
23.49
24.39
24.38
23.5
21.9
19.81
17.58
15.52
13.84
12.57
11.57
10.62
9.49
8.07
6.34
4.41
2.38
0.34
-1.71
-3.82
-6.04
-8.45
-11.12
-14.17
-17.76
-22.05
-27.07
-32.48
-37.52
-41.0
-41.69
-38.72
-32.04
-22.5
-11.59
-0.94
8.21
15.34
20.55
24.18
26.54
27.7
27.59
26.18
23.69
20.61
17.51
14.87
12.91
11.62
10.82
10.3
9.85
9.27
8.4
7.13
5.4
3.24
0.74
-2.02
-5.01
-8.26
-11.85
-15.9
-20.57
-25.98
-32.14
-38.71
-44.86
-49.34
-50.74
-48.04
-41.1
-30.81
-18.78
-6.83
3.63
11.91
17.98
22.11
24.49
25.17
24.18
21.77
18.56
15.37
12.93
11.59
11.16
11.07
10.64
9.41
7.3
4.53
1.54
-1.26
-3.63
-5.49
-7.0
-8.41
-10.04
-12.22
-15.26
-19.31
-24.27
-29.66
-34.57
-37.82
-38.29
-35.29
-28.87
-19.85
-9.52
0.76
9.97
17.61
23.56
27.84
30.44
31.24
30.17
27.47
23.7
19.71
16.32
14.12
13.14
12.99
12.92
12.26
10.6
8.0
4.86
1.69
-1.14
-3.54
-5.75
-8.17
-11.24
-15.25
-20.27
-26.13
-32.28
-37.87
-41.78
-42.9
-40.49
-34.46
-25.52
-14.96
-4.24
5.44
13.43
19.61
24.22
27.49
29.5
30.17
29.45
27.51
24.87
22.21
20.18
19.04
18.62
18.37
17.65
16.03
13.43
10.19
6.73
3.43
0.4
-2.52
-5.67
-9.33
-13.75
-19.04
-25.19
-31.94
-38.66
-44.31
-47.6
-47.37
-43.03
-34.91
-24.18
-12.42
-1.12
8.73
16.79
23.06
27.65
30.51
31.54
30.7
28.32
25.04
21.67
18.96
17.28
16.58
16.47
16.34
15.67
14.18
11.87
9.02
5.93
2.89
-0.05
-2.96
-6.11
-9.74
-14.06
-19.24
-25.27
-31.92
-38.57
-44.18
-47.4
-47.01
-42.35
-33.73
-22.36
-9.98
1.68
11.51
19.13
24.73
28.67
31.14
32.1
31.5
29.48
26.55
23.5
21.06
19.68
19.37
19.74
20.21
20.28
19.67
18.34
16.43
14.13
11.55
8.7
5.5
1.83
-2.35
-7.05
-12.26
-18.0
-24.27
-30.87
-37.21
-42.25
-44.62
-43.16
-37.42
-27.96
-16.23
-4.14
6.68
15.32
21.62
26.04
29.09
31.13
32.21
32.31
31.48
29.97
28.16
26.44
25.05
24.01
23.13
22.1
20.58
18.33
15.35
11.78
7.9
3.96
0.11
-3.65
-7.37
-11.11
-14.82
-18.46
-22.08
-25.88
-30.18
-35.18
-40.63
-45.69
-48.99
-49.11
-45.07
-36.86
-25.5
-12.7
-0.29
10.37
18.69
24.76
29.0
31.78
33.24
33.38
32.31
30.35
28.02
25.85
24.19
23.08
22.32
21.63
20.78
19.68
18.33
16.8
15.1
13.23
11.14
8.79
6.2
3.49
0.79
-1.82
-4.4
-7.23
-10.76
-15.39
-21.18
-27.58
-33.43
-37.2
-37.52
-33.69
-26.05
-15.82
-4.76
5.51
13.93
20.16
24.39
27.03
28.42
28.7
27.89
26.12
23.68
21.02
18.63
16.91
15.94
15.55
15.36
14.91
13.89
12.2
9.96
7.43
4.83
2.26
-0.27
-2.88
-5.67
-8.75
-12.2
-16.2
-20.91
-26.35
-32.15
-37.43
-40.94
-41.38
-37.98
-30.84
-20.98
-10.01
0.44
9.29
16.11
21.13
24.73
27.19
28.5
28.48
27.06
24.48
21.27
18.14
15.65
14.08
13.33
12.98
12.52
11.5
9.75
7.34
4.58
1.78
-0.83
-3.2
-5.5
-7.95
-10.83
-14.32
-18.59
-23.7
-29.62
-35.91
-41.74
-45.85
-46.89
-43.94
-36.92
-26.77
-15.1
-3.66
6.24
14.04
19.84
24.11
27.24
29.4
30.55
30.59
29.55
27.65
25.26
22.75
20.41
18.39
16.63
15.02
13.4
11.68
9.81
7.85
5.83
3.72
1.46
-1.03
-3.81
-6.91
-10.33
-14.15
-18.53
-23.74
-29.88
-36.74
-43.46
-48.71
-50.99
-49.17
-42.99
-33.24
-21.5
-9.57
1.13
9.88
16.66
21.8
25.61
28.18
29.4
29.19
27.67
25.27
22.64
20.41
18.99
18.46
18.54
18.69
18.41
17.34
15.46
12.97
10.18
7.35
4.52
1.55
-1.76
-5.6
-10.02
-15.04
-20.64
-26.84
-33.5
-40.14
-45.79
-49.12
-48.83
-44.26
-35.69
-24.37
-12.11
-0.58
9.14
16.74
22.45
26.64
29.53
31.08
31.2
30.01
27.86
25.33
22.97
21.17
19.99
19.29
18.81
18.3
17.6
16.6
15.3
13.68
11.77
9.57
7.08
4.31
1.25
-2.15
-5.96
-10.36
-15.61
-21.91
-29.2
-36.87
-43.75
-48.3
-49.12
-45.49
-37.72
-27.12
-15.5
-4.56
4.69
12.0
17.68
22.09
25.33
27.16
27.24
25.51
22.43
18.82
15.64
13.51
12.51
12.22
11.95
11.13
9.52
7.25
4.7
2.25
0.11
-1.77
-3.65
-5.93
-9.01
-13.16
-18.42
-24.64
-31.37
-37.84
-43.03
-45.85
-45.33
-41.04
-33.19
-22.75
-11.12
0.27
10.35
18.56
24.8
29.17
31.74
32.56
31.7
29.38
26.1
22.48
19.15
16.52
14.77
13.71
13.01
12.27
11.13
9.45
7.28
4.81
2.29
-0.13
-2.54
-5.21
-8.57
-12.99
-18.69
-25.61
-33.26
-40.77
-46.94
-50.49
-50.36
-46.14
-38.2
-27.65
-16.01
-4.73
5.17
13.22
19.43
23.97
27.03
28.63
28.75
27.51
25.2
22.36
19.61
17.48
16.22
15.72
15.57
15.25
14.29
12.49
9.96
7.02
4.07
1.34
-1.18
-3.74
-6.71
-10.46
-15.24
-21.13
-28.02
-35.45
-42.57
-48.17
-50.85
-49.53
-43.85
-34.4
-22.61
-10.27
1.05
10.48
17.8
23.27
27.2
29.69
30.68
30.16
28.34
25.78
23.12
20.95
19.48
18.58
17.83
16.76
15.02
12.57
9.63
6.55
3.66
1.1
-1.25
-3.7
-6.63
-10.34
-14.94
-20.41
-26.59
-33.15
-39.54
-44.88
-48.02
-47.91
-43.89
-36.15
-25.69
-14.06
-2.84
6.8
14.42
20.11
24.22
26.98
28.46
28.59
27.43
25.29
22.69
20.27
18.52
17.62
17.42
17.48
17.34
16.64
15.27
13.42
11.42
9.53
7.85
6.25
4.4
1.97
-1.32
-5.58
-10.83
-16.91
-23.42
-29.61
-34.32
-36.31
-34.63
-29.01
-20.13
-9.37
1.64
11.5
19.46
25.38
29.51
32.12
33.36
33.18
31.63
28.95
25.71
22.62
20.27
18.93
18.38
18.02
17.18
15.37
12.53
9.05
5.52
2.42
-0.09
-2.23
-4.5
-7.4
-11.33
-16.39
-22.49
-29.22
-35.88
-41.42
-44.63
-44.47
-40.45
-32.91
-23.0
-12.27
-2.17
6.37
13.02
17.88
21.17
22.96
23.23
22.05
19.74
16.94
14.41
12.72
12.01
11.97
11.97
11.35
9.73
7.12
3.85
0.41
-2.82
-5.71
-8.4
-11.27
-14.76
-19.25
-24.87
-31.41
-38.24
-44.3
-48.36
-49.32
-46.55
-40.17
-31.0
-20.32
-9.51
0.37
8.73
15.41
20.49
24.04
26.07
26.57
25.64
23.64
21.17
18.91
17.37
16.69
16.63
16.6
16.03
14.61
12.34
9.58
6.76
4.19
1.86
-0.42
-3.02
-6.18
-10.07
-14.73
-20.16
-26.23
-32.57
-38.37
-42.47
-43.64
-41.0
-34.47
-24.85
-13.55
-2.14
8.18
16.79
23.58
28.67
32.18
34.16
34.61
33.71
31.85
29.63
27.63
26.23
25.55
25.35
25.21
24.63
23.21
20.8
17.46
13.47
9.17
4.81
0.53
-3.67
-7.92
-12.38
-17.19
-22.49
-28.31
-34.54
-40.71
-45.95
-49.07
-48.89
-44.71
-36.67
-25.82
-13.74
-1.97
8.34
16.73
23.21
28.01
31.27
33.0
33.19
32.01
29.85
27.28
24.79
22.79
21.37
20.42
19.64
18.7
17.32
15.34
12.76
9.73
6.53
3.43
0.59
-2.01
-4.54
-7.35
-10.8
-15.16
-20.57
-26.95
-33.96
-40.87
-46.58
-49.84
-49.54
-45.19
-37.2
-26.78
-15.61
-5.24
3.36
9.96
14.85
18.49
21.15
22.83
23.33
22.59
20.79
18.37
15.96
14.06
12.95
12.5
12.38
12.15
11.55
10.58
9.43
8.36
7.5
6.75
5.81
4.27
1.77
-1.92
-6.88
-12.99
-19.89
-26.89
-32.98
-36.9
-37.54
-34.3
-27.34
-17.64
-6.66
4.13
13.64
21.36
27.25
31.41
33.9
34.68
33.72
31.22
27.72
23.98
20.77
18.58
17.43
16.91
16.4
15.27
13.2
10.26
6.83
3.41
0.37
-2.23
-4.66
-7.39
-10.88
-15.46
-21.22
-27.92
-34.98
-41.4
-45.9
-47.17
-44.31
-37.21
-26.7
-14.41
-2.2
8.46
16.83
22.94
27.18
29.99
31.47
31.53
30.07
27.23
23.51
19.64
16.31
13.91
12.44
11.54
10.75
9.65
8.03
6.02
3.88
1.9
0.23
-1.23
-2.76
-4.78
-7.65
-11.65
-16.81
-23.02
-29.9
-36.75
-42.59
-46.21
-46.54
-42.93
-35.59
-25.53
-14.32
-3.55
5.69
12.98
18.51
22.69
25.83
27.91
28.78
28.29
26.6
24.19
21.65
19.54
18.1
17.25
16.63
15.79
14.39
12.28
9.58
6.53
3.42
0.45
-2.34
-5.04
-7.83
-10.88
-14.36
-18.41
-23.13
-28.49
-34.1
-39.14
-42.41
-42.71
-39.29
-32.24
-22.53
-11.71
-1.28
7.7
14.88
20.38
24.51
27.39
28.95
29.04
27.68
25.22
22.26
19.48
17.34
15.97
15.09
14.25
13.02
11.17
8.76
6.09
3.52
1.3
-0.58
-2.36
-4.44
-7.21
-10.99
-15.85
-21.69
-28.06
-34.2
-39.1
-41.68
-41.15
-37.22
-30.29
-21.31
-11.48
-1.86
6.79
14.09
19.85
23.94
26.18
26.53
25.17
22.61
19.56
16.75
14.62
13.25
12.32
11.41
10.09
8.25
6.04
3.79
1.84
0.32
-0.94
-2.39
-4.53
-7.82
-12.47
-18.34
-24.93
-31.4
-36.68
-39.63
-39.36
-35.52
-28.43
-19.11
-8.92
0.85
9.29
16.03
21.08
24.56
26.53
26.96
25.87
23.55
20.6
17.77
15.64
14.4
13.77
13.19
12.18
10.53
8.45
6.37
4.68
3.52
2.67
1.63
-0.15
-3.16
-7.62
-13.5
-20.37
-27.38
-33.37
-37.01
-37.26
-33.64
-26.54
-17.05
-6.66
3.3
11.91
18.85
24.1
27.7
29.57
29.54
27.6
24.11
19.81
15.66
12.42
10.4
9.38
8.71
7.72
5.98
3.45
0.46
-2.52
-5.12
-7.19
-8.9
-10.61
-12.77
-15.81
-19.98
-25.25
-31.2
-36.92
-41.21
-42.8
-40.82
-35.09
-26.24
-15.55
-4.53
5.56
13.97
20.44
25.01
27.73
28.61
27.64
25.04
21.37
17.52
14.37
12.47
11.8
11.83
11.76
10.92
9.06
6.41
3.55
1.02
-0.85
-2.18
-3.42
-5.17
-7.97
-12.12
-17.58
-23.9
-30.26
-35.6
-38.74
-38.72
-35.07
-28.04
-18.6
-8.16
1.81
10.23
16.59
20.91
23.45
24.44
24.01
22.25
19.43
16.14
13.14
11.12
10.35
10.55
11.01
10.88
9.63
7.23
4.16
1.1
-1.45
-3.35
-4.94
-6.83
-9.61
-13.63
-18.98
-25.38
-32.18
-38.44
-42.93
-44.45
-42.16
-35.94
-26.56
-15.38
-3.95
6.43
15.11
21.92
26.94
30.23
31.69
31.25
29.07
25.62
21.72
18.17
15.53
13.87
12.86
11.89
10.47
8.36
5.68
2.81
0.12
-2.15
-4.08
-6.0
-8.35
-11.51
-15.77
-21.17
-27.5
-34.21
-40.35
-44.73
-46.1
-43.64
-37.24
-27.67
-16.34
-4.87
5.4
13.69
19.86
24.14
26.84
28.18
28.19
26.95
24.65
21.75
18.82
16.43
14.93
14.27
14.13
13.95
13.27
11.86
9.77
7.3
4.77
2.37
0.03
-2.5
-5.55
-9.37
-14.07
-19.64
-25.95
-32.66
-39.15
-44.43
-47.3
-46.65
-41.93
-33.43
-22.33
-10.33
0.97
10.46
17.79
23.17
26.97
29.45
30.61
30.37
28.77
26.14
23.12
20.36
18.36
17.24
16.76
16.42
15.69
14.2
11.87
8.9
5.63
2.41
-0.54
-3.24
-5.87
-8.68
-11.93
-15.82
-20.5
-26.0
-32.14
-38.33
-43.55
-46.5
-45.99
-41.46
-33.25
-22.62
-11.3
-0.89
7.61
13.94
18.34
21.17
22.63
22.66
21.25
18.68
15.56
12.75
10.99
10.56
11.15
12.02
12.35
11.63
9.85
7.39
4.77
2.37
0.26
-1.78
-4.08
-6.97
-10.66
-15.3
-20.84
-27.02
-33.19
-38.28
-41.03
-40.35
-35.74
-27.58
-17.04
-5.65
5.12
14.29
21.48
26.65
29.93
31.39
31.08
29.16
26.06
22.47
19.11
16.6
15.15
14.5
14.11
13.31
11.71
9.24
6.19
3.09
0.38
-1.84
-3.81
-6.05
-9.16
-13.56
-19.36
-26.36
-33.95
-41.24
-47.07
-50.22
-49.69
-45.06
-36.72
-25.83
-13.98
-2.7
6.98
14.69
20.57
24.97
28.12
29.98
30.43
29.44
27.32
24.65
22.15
20.38
19.51
19.27
19.1
18.41
16.88
14.54
11.74
8.96
6.5
4.34
2.17
-0.54
-4.21
-9.15
-15.37
-22.68
-30.64
-38.51
-45.23
-49.44
-49.93
-46.0
-37.85
-26.62
-14.01
-1.76
8.95
17.63
24.37
29.42
32.95
34.91
35.23
34.02
31.69
28.89
26.29
24.41
23.37
23.01
22.85
22.38
21.17
19.04
16.08
12.59
8.96
5.46
2.15
-1.11
-4.6
-8.56
-13.17
-18.48
-24.49
-31.08
-37.91
-44.23
-48.85
-50.42
-47.84
-40.83
-30.08
-17.13
-3.84
8.25
18.25
26.0
31.74
35.75
38.17
39.0
38.33
36.4
33.65
30.62
27.77
25.37
23.48
22.0
20.73
19.44
17.87
15.84
13.28
10.23
6.86
3.39
-0.01
-3.25
-6.4
-9.65
-13.28
-17.59
-22.82
-28.98
-35.68
-41.99
-46.58
-47.98
-45.15
-37.93
-27.19
-14.57
-1.97
9.13
17.98
24.55
29.21
32.3
33.99
34.23
33.11
30.95
28.34
26.0
24.4
23.68
23.5
23.29
22.44
20.59
17.76
14.26
10.59
7.13
4.07
1.24
-1.66
-5.03
-9.14
-14.11
-19.91
-26.37
-33.09
-39.34
-44.09
-46.16
-44.58
-39.02
-29.99
-18.75
-6.91
4.08
13.34
20.6
26.02
29.9
32.41
33.53
33.24
31.68
29.24
26.49
24.0
22.14
20.92
20.04
19.05
17.49
15.16
12.1
8.58
4.96
1.56
-1.49
-4.26
-6.97
-9.94
-13.46
-17.76
-22.93
-28.87
-35.18
-41.13
-45.64
-47.48
-45.63
-39.71
-30.19
-18.34
-5.81
5.89
15.77
23.52
29.3
33.39
35.97
37.03
36.55
34.72
31.96
28.9
26.11
23.95
22.42
21.23
19.99
18.34
16.13
13.4
10.32
7.08
3.8
0.46
-3.0
-6.65
-10.47
-14.48
-18.66
-23.16
-28.18
-33.91
-40.21
-46.42
-51.36
-53.55
-51.74
-45.51
-35.46
-23.1
-10.32
1.26
10.76
18.08
23.6
27.73
30.69
32.42
32.82
31.93
30.09
27.77
25.46
23.45
21.84
20.55
19.46
18.39
17.18
15.62
13.56
10.93
7.84
4.48
1.1
-2.15
-5.32
-8.53
-12.0
-15.97
-20.62
-26.07
-32.19
-38.51
-44.04
-47.45
-47.44
-43.28
-35.18
-24.32
-12.47
-1.38
7.8
14.77
19.8
23.43
25.99
27.55
27.99
27.25
25.55
23.3
21.03
19.15
17.87
17.08
16.53
15.85
14.75
13.0
10.58
7.6
4.26
0.81
-2.58
-5.86
-9.14
-12.57
-16.36
-20.68
-25.59
-30.91
-36.07
-40.15
-42.02
-40.65
-35.54
-26.99
-16.1
-4.41
6.58
15.82
22.94
28.03
31.42
33.36
33.94
33.25
31.48
29.05
26.57
24.63
23.57
23.39
23.72
24.06
23.94
23.2
21.95
20.52
19.18
17.94
16.5
14.31
10.82
5.77
-0.75
-8.33
-16.36
-24.09
-30.78
-35.67
-38.04
-37.46
-33.96
-28.18
-21.27
-14.55
-9.09
-5.3
-2.88
-1.05
1.13
4.3
8.72
14.31
20.81
28.0
35.69
43.65
51.53
58.81
64.92
69.4
72.1
73.29
73.58
73.64
73.96
74.62
75.23
75.18
73.79
70.61
65.47
58.35
49.28
38.32
25.64
11.71
-2.55
-15.91
-27.1
-35.22
-39.95
-41.56
-40.65
-37.84
-33.61
-28.34
-22.4
-16.36
-10.87
-6.53
-3.57
-1.85
-0.9
-0.18
0.73
2.0
3.68
5.8
8.45
11.7
15.51
19.62
23.58
26.83
28.84
29.25
27.93
24.92
20.35
14.41
7.26
-0.95
-10.08
-19.87
-29.86
-39.44
-47.77
-54.13
-58.06
-59.46
-58.58
-55.88
-51.88
-47.05
-41.99
-37.36
-33.94
-32.39
-33.14
-36.19
-41.21
-47.7
-55.2
-63.38
-72.07
-81.2
-90.74
-100.58
-110.45
-119.9
-128.24
-134.76
-138.95
-140.7
-140.34
-138.41
-135.46
-131.79
-127.56
-122.97
-118.34
-114.0
-109.91
-105.37
-99.12
-89.76
-76.5
-59.69
-40.9
-22.31
-5.95
7.1
16.95
24.54
30.94
36.7
41.59
44.81
45.53
43.48
39.23
33.93
28.91
25.11
22.83
21.83
21.65
22.04
22.96
24.58
26.93
29.79
32.61
34.8
35.87
35.61
33.99
30.96
26.39
20.2
12.54
4.14
-3.7
-9.35
-11.34
-8.81
-1.85
8.56
20.88
33.45
44.93
54.55
62.09
67.64
71.36
73.33
73.63
72.4
70.08
67.32
64.84
63.09
62.04
61.1
59.41
56.2
51.1
44.31
36.46
28.34
20.57
13.44
6.94
0.87
-5.06
-11.17
-17.85
-25.52
-34.49
-44.63
-55.14
-64.52
-70.92
-72.68
-68.94
-60.04
-47.47
-33.4
-20.06
-9.17
-1.64
2.4
3.48
2.54
0.87
-0.06
1.21
5.72
13.65
24.11
35.23
44.66
50.46
51.72
48.79
42.98
35.93
28.93
22.69
17.27
12.31
7.27
1.48
-5.7
-14.71
-25.53
-37.36
-48.69
-57.59
-62.23
-61.34
-54.53
-42.32
-26.04
-7.68
10.34
25.46
35.45
38.92
35.78
27.48
16.71
6.9
1.27
2.05
9.96
23.95
41.63
59.99
76.28
88.89
97.62
103.47
108.1
113.09
119.37
127.05
135.43
143.18
148.63
149.99
145.8
135.52
119.88
101.03
82.09
66.2
55.61
51.03
51.65
55.69
61.07
66.03
69.45
70.83
70.15
67.62
63.53
58.13
51.55
43.94
35.62
27.19
19.45
13.13
8.41
4.71
0.72
-5.0
-13.44
-24.54
-37.29
-49.99
-60.99
-69.24
-74.67
-78.2
-81.2
-85.0
-90.21
-96.5
-102.65
-107.17
-108.85
-107.14
-102.28
-94.92
-85.65
-74.78
-62.49
-49.17
-35.72
-23.4
-13.26
-5.66
0.16
5.66
12.36
21.11
31.67
42.98
53.74
63.01
70.45
76.29
80.96
84.75
87.73
89.7
90.25
88.78
84.52
76.64
64.58
48.3
28.66
7.37
-13.32
-31.18
-44.57
-52.82
-56.2
-55.63
-52.27
-47.2
-41.38
-35.61
-30.67
-27.28
-25.86
-26.39
-28.3
-30.76
-32.9
-34.28
-35.0
-35.71
-37.24
-40.22
-44.78
-50.35
-55.94
-60.45
-63.06
-63.61
-62.61
-61.06
-60.1
-60.56
-62.58
-65.54
-68.21
-69.13
-67.11
-61.6
-52.87
-41.85
-29.88
-18.27
-8.1
-0.08
5.4
8.18
8.25
5.84
1.44
-4.19
-10.15
-15.59
-19.95
-23.03
-25.11
-26.7
-28.42
-30.7
-33.64
-36.99
-40.32
-43.25
-45.75
-48.16
-51.18
-55.56
-61.74
-69.53
-78.01
-85.72
-91.06
-92.79
-90.4
-84.29
-75.48
-65.27
-54.78
-44.72
-35.38
-26.83
-19.2
-12.77
-7.89
-4.8
-3.46
-3.47
-4.29
-5.43
-6.73
-8.39
-10.94
-14.89
-20.52
-27.68
-35.81
-44.18
-52.21
-59.73
-67.02
-74.59
-82.91
-92.09
-101.76
-111.18
-119.34
-125.27
-128.22
-127.78
-123.93
-117.0
-107.47
-95.97
-83.01
-69.01
-54.23
-38.97
-23.61
-8.73
4.92
16.54
25.47
31.47
34.86
36.64
38.25
41.11
46.05
52.96
60.74
67.81
72.8
75.08
74.96
73.28
70.82
67.81
63.82
58.05
49.84
39.26
27.22
15.35
5.45
-1.02
-3.33
-1.64
3.29
10.42
18.85
28.0
37.58
47.36
57.01
66.05
74.09
81.04
87.27
93.46
100.31
108.25
117.18
126.53
135.39
142.88
148.4
151.8
153.35
153.5
152.51
150.36
146.64
140.95
133.16
123.68
113.32
102.92
93.17
84.48
77.25
72.12
69.67
69.95
71.97
73.66
72.57
66.95
56.61
42.93
28.18
14.33
2.31
-8.05
-17.49
-26.55
-35.29
-43.34
-50.43
-56.75
-62.84
-69.33
-76.47
-83.92
-90.86
-96.38
-99.94
-101.54
-101.77
-101.47
-101.25
-101.33
-101.56
-101.77
-102.12
-103.07
-105.01
-107.67
-109.81
-109.43
-104.58
-94.17
-78.42
-58.66
-36.82
-14.77
6.02
24.49
39.98
52.2
61.41
68.4
74.36
80.5
87.54
95.47
103.61
110.91
116.36
119.42
120.29
120.03
120.34
123.01
129.15
138.47
149.12
158.07
162.15
158.97
147.66
128.86
104.35
76.52
47.85
20.6
-3.6
-24.02
-40.99
-55.76
-69.85
-84.3
-98.96
-112.38
-122.38
-126.95
-125.17
-117.65
-106.15
-92.96
-80.16
-69.18
-60.81
-55.35
-52.77
-52.69
-54.28
-56.33
-57.62
-57.32
-55.35
-52.42
-49.64
-48.08
-48.3
-50.26
-53.5
-57.41
-61.44
-65.25
-68.64
-71.62
-74.35
-77.12
-80.15
-83.27
-85.69
-86.17
-83.37
-76.51
-65.81
-52.43
-38.07
-24.3
-12.06
-1.56
7.43
15.2
21.77
26.93
30.38
32.0
31.99
30.85
29.21
27.67
26.64
26.2
26.16
26.07
25.44
23.91
21.31
17.84
13.86
9.85
6.18
3.05
0.48
-1.78
-4.15
-7.14
-11.21
-16.6
-23.09
-29.88
-35.68
-39.11
-39.1
-35.3
-28.12
-18.37
-6.86
5.93
19.74
34.13
48.06
59.94
67.99
70.98
68.69
61.9
51.99
40.53
29.2
19.83
14.41
14.56
20.59
30.84
41.87
49.69
51.51
47.12
38.96
30.82
26.06
26.17
30.49
37.07
43.88
49.66
54.08
57.22
59.15
59.86
59.52
58.82
58.97
61.32
66.78
75.41
86.4
98.31
109.55
118.79
125.13
128.33
128.7
127.04
124.4
121.86
120.25
120.03
121.22
123.45
125.99
127.77
127.52
124.1
116.93
106.46
94.22
82.46
73.26
67.61
64.7
61.93
55.8
43.19
22.65
-5.1
-37.56
-71.55
-104.31
-133.97
-159.18
-178.35
-189.18
-189.0
-176.02
-150.6
-115.82
-76.86
-39.39
-7.9
15.4
30.48
38.89
42.66
43.69
43.51
43.29
43.77
45.15
46.89
47.81
46.46
41.79
33.55
22.39
9.55
-3.74
-16.68
-29.02
-40.97
-52.82
-64.67
-76.38
-87.56
-97.83
-106.88
-114.65
-121.26
-126.9
-131.81
-136.09
-139.76
-142.68
-144.67
-145.4
-144.48
-141.33
-135.41
-126.37
-114.35
-100.16
-85.24
-71.33
-60.0
-52.25
-48.27
-47.55
-49.16
-52.08
-55.53
-59.02
-62.35
-65.49
-68.38
-70.93
-72.93
-74.25
-74.81
-74.75
-74.31
-73.74
-73.17
-72.66
-72.12
-71.57
-71.17
-71.27
-72.35
-74.7
-78.24
-82.43
-86.29
-88.7
-88.74
-85.83
-79.84
-71.03
-59.85
-46.88
-32.76
-18.31
-4.61
7.07
15.45
19.56
19.08
14.5
7.02
-1.84
-10.66
-18.54
-25.21
-30.99
-36.55
-42.58
-49.69
-58.24
-68.33
-79.75
-92.01
-104.45
-116.39
-127.48
-137.88
-148.14
-158.78
-169.53
-178.89
-184.17
-182.26
-170.84
-149.32
-119.29
-83.95
-47.16
-12.39
18.0
42.81
61.69
74.83
82.69
86.09
86.19
84.45
82.31
80.86
80.51
80.84
80.79
78.9
73.93
65.33
53.46
39.6
25.45
12.5
1.58
-7.37
-15.15
-22.83
-31.43
-41.55
-53.28
-66.03
-78.56
-89.11
-95.66
-96.49
-90.69
-78.54
-61.43
-41.52
-21.04
-1.79
15.2
29.66
41.62
51.3
58.84
64.29
67.86
70.03
71.44
72.67
73.83
74.47
73.89
71.58
67.7
63.13
58.99
56.06
54.34
53.12
51.36
48.24
43.37
36.69
28.24
18.0
6.11
-6.73
-19.08
-28.88
-34.04
-33.15
-25.92
-13.17
3.46
22.12
41.2
59.53
76.34
91.17
103.68
113.7
121.32
126.94
131.25
135.0
138.75
142.64
146.35
149.27
150.79
150.75
149.58
148.25
147.99
149.72
153.67
159.25
165.36
170.85
175.1
178.26
181.18
184.98
190.74
199.07
210.07
223.25
237.72
252.17
265.11
275.11
281.22
283.25
281.82
277.82
271.75
263.03
250.1
231.16
205.31
173.53
138.62
104.28
73.68
48.3
27.72
10.25
-6.0
-22.31
-39.17
-56.58
-74.38
-92.42
-110.44
-127.86
-143.95
-157.95
-169.42
-178.28
-184.79
-189.35
-192.33
-194.05
-194.68
-194.16
-192.01
-187.35
-179.11
-166.45
-149.12
-127.7
-103.47
-78.04
-53.02
-29.77
-9.52
6.53
16.99
20.48
15.97
3.35
-16.22
-40.25
-65.27
-87.67
-104.67
-115.07
-119.54
-120.22
-119.95
-121.22
-125.45
-132.9
-142.93
-154.49
-166.39
-177.23
-185.13
-187.57
-181.85
-165.92
-139.31
-103.74
-62.82
-21.0
17.7
50.82
77.72
99.15
116.43
130.67
142.41
151.76
158.82
163.94
167.84
171.24
174.52
177.51
179.45
179.33
176.3
170.0
160.66
148.9
135.41
120.7
105.0
88.4
71.22
54.15
38.4
25.34
16.1
11.19
10.2
11.87
14.42
16.0
15.14
10.98
3.23
-7.92
-21.97
-38.28
-56.06
-74.34
-92.16
-108.64
-123.27
-135.91
-146.71
-155.89
-163.38
-168.67
-170.92
-169.22
-163.03
-152.46
-138.37
-122.22
-105.64
-90.02
-76.19
-64.34
-54.17
-45.31
-37.44
-30.42
-24.12
-18.12
-11.77
-4.3
4.76
15.36
27.02
39.08
50.91
62.2
72.8
82.68
91.72
99.85
107.06
113.49
119.36
124.75
129.64
133.91
137.62
141.23
145.59
151.88
161.21
174.1
189.88
206.28
219.65
225.69
220.9
203.94
176.24
141.61
104.7
69.25
36.92
7.23
-21.43
-50.3
-79.15
-106.1
-128.34
-143.28
-149.57
-147.54
-139.01
-126.72
-113.59
-102.3
-94.93
-92.75
-96.04
-104.02
-114.98
-126.66
-136.93
-144.49
-149.22
-152.14
-154.91
-159.09
-165.57
-174.24
-184.1
-193.61
-201.14
-205.4
-205.79
-202.5
-196.51
-189.4
-183.0
-178.94
-178.17
-180.6
-184.94
-188.78
-189.18
-183.39
-169.62
-147.58
-118.52
-84.85
-49.52
-15.34
15.37
40.94
60.35
73.28
80.12
82.11
81.22
79.85
80.16
83.52
90.03
98.55
107.0
113.01
114.71
111.21
102.83
90.85
76.96
62.51
48.04
33.3
17.52
0.14
-18.67
-37.77
-55.26
-69.05
-77.55
-80.07
-77.02
-69.67
-59.7
-48.68
-37.67
-27.07
-16.88
-7.01
2.37
10.63
16.93
20.52
21.05
18.83
14.71
9.78
5.06
1.23
-1.43
-2.98
-3.67
-3.86
-3.85
-3.97
-4.58
-6.07
-8.83
-13.09
-18.8
-25.61
-32.92
-40.21
-47.21
-54.14
-61.44
-69.46
-77.93
-85.77
-91.15
-92.19
-87.65
-77.48
-62.96
-46.33
-30.15
-16.73
-7.64
-3.62
-4.59
-9.89
-18.43
-28.92
-40.1
-50.77
-59.85
-66.34
-69.51
-69.06
-65.35
-59.35
-52.39
-45.9
-41.08
-38.86
-39.85
-44.35
-52.2
-62.81
-75.18
-88.12
-100.52
-111.51
-120.57
-127.37
-131.53
-132.53
-129.72
-122.56
-110.85
-94.83
-75.29
-53.38
-30.45
-7.79
13.65
33.31
50.92
66.25
78.95
88.52
94.67
97.64
98.31
98.06
98.26
99.78
102.62
105.99
108.76
110.01
109.45
107.48
104.95
102.68
101.0
99.66
97.88
94.71
89.45
81.97
72.91
63.61
