20.03
15.94
11.5
6.89
2.22
-2.48
-7.09
-11.41
-15.3
-18.77
-22.17
-26.0
-30.66
-35.99
-41.12
-44.56
-44.68
-40.4
-31.66
-19.47
-5.61
7.96
19.72
28.83
35.13
38.89
40.52
40.45
39.09
36.9
34.45
32.27
30.81
30.25
30.47
31.1
31.78
32.18
32.19
31.76
30.87
29.36
26.98
23.48
18.78
13.06
6.74
0.34
-5.73
-11.32
-16.57
-21.85
-27.6
-34.11
-41.31
-48.57
-54.73
-58.3
-57.87
-52.66
-42.79
-29.44
-14.43
0.24
12.97
22.92
30.0
34.58
37.24
38.43
38.43
37.49
35.9
34.03
32.3
30.95
30.0
29.22
28.27
26.96
25.32
23.57
21.94
20.5
18.99
17.03
14.21
10.44
5.91
1.07
-3.63
-7.95
-11.95
-16.01
-20.57
-26.09
-32.72
-40.21
-47.78
-54.19
-58.0
-57.89
-53.2
-44.13
-31.82
-17.98
-4.41
7.52
17.05
24.04
28.69
31.32
32.23
31.72
30.16
28.03
25.8
23.85
22.35
21.16
20.03
18.71
17.09
15.36
13.79
12.66
11.9
11.16
9.89
7.59
4.14
-0.13
-4.59
-8.59
-11.8
-14.33
-16.72
-19.65
-23.72
-29.13
-35.62
-42.43
-48.35
-51.98
-52.01
-47.72
-39.17
-27.34
-13.88
-0.61
10.98
20.02
26.37
30.32
32.36
32.9
32.26
30.78
28.84
26.87
25.23
24.13
23.57
23.39
23.39
23.45
23.56
23.74
23.98
24.15
24.03
23.34
21.89
19.66
16.83
13.73
10.7
8.01
5.69
3.48
0.9
-2.59
-7.34
-13.25
-19.55
-24.88
-27.58
-26.2
-20.02
-9.33
4.62
20.02
35.06
48.44
59.57
68.45
75.39
80.76
84.8
87.61
89.33
90.17
90.4
90.31
90.11
89.79
89.13
87.72
85.09
80.83
74.73
66.87
57.64
47.68
37.74
28.51
20.52
13.95
8.63
4.02
-0.66
-6.29
-13.56
-22.7
-33.33
-44.33
-54.08
-60.86
-63.28
-60.81
-53.87
-43.82
-32.51
-21.77
-12.95
-6.75
-3.26
-2.22
-3.26
-6.09
-10.41
-15.9
-22.13
-28.6
-34.82
-40.53
-45.7
-50.53
-55.29
-60.21
-65.43
-71.03
-77.08
-83.71
-91.01
-98.94
-107.16
-115.14
-122.26
-128.07
-132.52
-135.99
-139.14
-142.64
-146.73
-151.1
-154.74
-156.13
-153.64
-145.89
-132.16
-112.66
-88.52
-61.57
-33.99
-7.79
15.6
35.55
52.24
66.28
78.37
88.89
97.72
104.43
108.56
110.0
109.1
106.53
102.98
98.86
94.19
88.69
82.07
74.19
65.07
54.84
43.66
31.77
19.61
7.98
-2.11
-9.69
-14.33
-16.39
-17.01
-17.8
-20.15
-24.74
-31.17
-38.1
-43.74
-46.43
-45.16
-39.98
-31.74
-21.84
-11.78
-2.67
4.84
10.64
14.91
18.02
20.35
22.17
23.65
24.74
25.27
24.99
23.74
21.54
18.68
15.62
12.85
10.66
9.09
7.95
6.93
5.8
4.49
3.18
2.08
1.35
0.95
0.63
0.06
-1.08
-3.05
-5.95
-9.69
-13.86
-17.72
-20.24
-20.36
-17.36
-11.17
-2.5
7.41
17.17
25.57
31.91
35.89
37.52
36.92
34.36
30.21
24.97
19.27
13.69
8.65
4.26
0.36
-3.46
-7.7
-12.73
-18.74
-25.6
-32.99
-40.58
-48.13
-55.66
-63.37
-71.56
-80.48
-90.21
-100.64
-111.46
-122.12
-131.8
-139.44
-143.91
-144.34
-140.43
-132.61
-121.97
-109.86
-97.48
-85.63
-74.64
-64.54
-55.38
-47.26
-40.3
-34.46
-29.44
-24.67
-19.54
-13.55
-6.5
1.49
10.06
18.67
26.78
33.92
39.79
44.28
47.44
49.39
50.14
49.62
47.63
43.96
38.51
31.4
23.06
14.28
6.15
-0.07
-3.24
-2.64
1.75
9.28
18.71
28.64
37.82
45.5
51.4
55.61
58.33
59.74
59.97
59.17
57.65
55.79
54.05
52.74
51.92
51.39
50.79
49.8
48.36
46.77
45.64
45.71
47.52
51.08
55.66
59.93
62.39
61.88
58.03
51.24
42.54
33.25
24.73
18.26
14.94
15.58
20.34
28.61
38.99
49.73
59.26
66.68
71.93
75.51
78.11
80.14
81.7
82.56
82.47
81.16
78.45
74.25
68.56
61.51
53.35
44.52
35.57
27.08
19.47
12.89
7.12
1.67
-4.02
-10.33
-17.25
-24.45
-31.4
-37.68
-43.04
-47.6
-51.61
-55.39
-59.1
-62.61
-65.37
-66.42
-64.6
-58.94
-49.06
-35.49
-19.47
-2.56
13.99
29.55
44.1
57.84
70.76
82.46
92.27
99.58
104.19
106.46
107.2
107.33
107.69
108.78
110.67
113.06
115.33
116.69
116.36
113.87
109.16
102.69
95.33
88.07
81.74
76.78
73.18
70.53
68.38
66.28
63.88
60.92
57.23
52.8
47.89
43.23
39.85
38.8
40.71
45.34
51.48
57.19
60.36
59.36
53.53
43.22
29.54
13.91
-2.42
-18.55
-33.93
-48.22
-61.14
-72.35
-81.67
-89.09
-94.88
-99.42
-103.17
-106.51
-109.79
-113.34
-117.47
-122.49
-128.54
-135.61
-143.5
-151.9
-160.55
-169.25
-177.87
-186.33
-194.5
-202.18
-208.99
-214.4
-217.7
-218.05
-214.72
-207.3
-195.91
-181.34
-164.92
-148.28
-132.93
-119.8
-109.15
-100.48
-92.85
-85.2
-76.81
-67.36
-57.04
-46.32
-35.71
-25.59
-16.19
-7.75
-0.53
5.09
8.82
10.6
10.71
9.83
8.76
8.22
8.56
9.62
10.76
11.18
10.21
7.68
4.1
0.59
-1.41
-0.74
3.13
9.96
18.95
29.19
40.03
51.16
62.38
73.33
83.36
91.7
97.85
101.91
104.52
106.53
108.53
110.51
111.99
112.17
110.26
105.55
97.51
85.81
70.52
52.36
32.77
13.78
-2.63
-15.05
-23.2
-27.91
-30.67
-33.04
-36.06
-40.2
-45.5
-51.81
-58.87
-66.17
-72.73
-77.16
-78.03
-74.45
-66.57
-55.55
-43.29
-31.59
-21.56
-13.46
-6.87
-1.22
3.82
8.23
11.82
14.56
16.76
18.95
21.61
24.88
28.42
31.52
33.51
34.05
33.37
32.05
30.82
30.15
30.07
30.3
30.38
29.84
28.2
24.95
19.69
12.44
3.94
-4.23
-10.09
-12.01
-9.42
-3.15
4.98
12.88
19.05
23.0
25.01
25.7
25.4
23.97
20.96
15.88
8.54
-0.78
-11.45
-22.67
-33.66
-43.87
-52.98
-60.82
-67.31
-72.3
-75.57
-76.99
-76.57
-74.59
-71.46
-67.54
-62.93
-57.52
-51.32
-44.73
-38.87
-35.25
-35.15
-39.0
-45.96
-54.14
-61.26
-65.49
-65.84
-62.25
-55.25
-45.63
-34.29
-22.19
-10.45
-0.12
7.98
13.51
16.63
17.79
17.5
16.24
14.47
12.79
11.88
12.26
14.11
17.02
20.2
22.83
24.37
24.8
24.4
23.53
22.32
20.66
18.26
14.89
10.51
5.32
-0.29
-5.74
-10.31
-13.18
-13.54
-10.8
-4.86
3.86
14.46
25.77
36.73
46.58
54.9
61.56
66.54
69.86
71.57
71.77
70.67
68.62
66.01
63.19
60.45
57.89
55.5
53.16
50.64
47.65
43.93
39.34
33.91
27.8
21.33
14.8
8.45
2.45
-3.13
-8.29
-13.17
-17.94
-22.74
-27.44
-31.49
-33.88
-33.51
-29.57
-21.93
-11.34
0.83
13.07
24.12
33.32
40.49
45.73
49.23
51.1
51.43
50.38
48.27
45.45
42.31
39.15
36.14
33.34
30.78
28.47
26.48
24.77
23.19
21.46
19.21
16.22
12.45
8.12
3.55
-0.92
-5.1
-9.0
-12.81
-16.87
-21.55
-27.17
-33.74
-40.82
-47.53
-52.61
-54.86
-53.48
-48.49
-40.59
-31.03
-21.09
-11.75
-3.58
3.3
8.95
13.46
16.83
19.06
20.11
20.1
19.29
18.09
16.88
15.99
15.54
15.43
15.38
15.03
14.08
12.39
10.02
7.2
4.22
1.29
-1.47
-4.15
-6.93
-10.09
-13.89
-18.51
-23.99
-30.08
-36.15
-41.23
-44.15
-43.88
-39.9
-32.43
-22.42
-11.23
-0.23
9.57
17.7
24.15
29.15
32.89
35.4
36.61
36.39
34.8
32.08
28.65
25.01
21.59
18.65
16.27
14.33
12.58
10.75
8.58
5.91
2.74
-0.76
-4.33
-7.72
-10.75
-13.42
-15.87
-18.42
-21.41
-25.22
-30.07
-35.79
-41.75
-46.87
-49.82
-49.5
-45.4
-37.87
-27.9
-16.84
-5.96
3.84
12.15
18.79
23.78
27.16
29.02
29.53
28.99
27.78
26.24
24.59
22.95
21.31
19.65
18.0
16.45
15.04
13.73
12.33
10.55
8.12
4.95
1.18
-2.89
-6.94
-10.76
-14.3
-17.68
-21.12
-24.89
-29.28
-34.47
-40.36
-46.38
-51.46
-54.24
-53.52
-48.71
-40.13
-28.91
-16.55
-4.48
6.36
15.47
22.76
28.2
31.85
33.75
34.1
33.25
31.64
29.64
27.52
25.41
23.36
21.42
19.66
18.15
16.87
15.68
14.35
12.62
10.28
7.23
3.54
-0.56
-4.8
-8.91
-12.74
-16.27
-19.67
-23.27
-27.5
-32.67
-38.78
-45.25
-50.97
-54.48
-54.51
-50.44
-42.55
-31.94
-20.15
-8.62
1.67
10.33
17.31
22.65
26.35
28.32
28.61
27.51
25.56
23.4
21.57
20.31
19.59
19.22
19.0
18.85
18.83
18.93
19.02
18.78
17.82
15.84
12.78
8.86
4.44
-0.14
-4.64
-9.02
-13.38
-17.91
-22.85
-28.41
-34.66
-41.37
-47.76
-52.68
-54.74
-52.94
-47.0
-37.58
-26.06
-14.05
-2.91
6.6
14.27
20.17
24.43
27.06
28.04
27.52
25.85
23.61
21.39
19.59
18.37
17.59
16.99
16.37
15.6
14.74
13.85
12.94
11.89
10.53
8.74
6.51
3.96
1.28
-1.41
-4.15
-7.15
-10.83
-15.58
-21.65
-28.82
-36.38
-43.05
-47.38
-48.14
-44.76
-37.58
-27.72
-16.7
-5.91
3.69
11.67
17.95
22.59
25.61
27.04
27.02
25.91
24.19
22.42
20.9
19.72
18.74
17.77
16.71
15.63
14.67
13.84
13.01
11.85
10.04
7.39
3.93
-0.08
-4.37
-8.73
-13.13
-17.65
-22.48
-27.81
-33.82
-40.58
-47.99
-55.56
-62.39
-67.28
-69.03
-66.94
-61.05
-52.2
-41.83
-31.44
-22.27
-14.98
-9.73
-6.35
-4.51
-3.78
-3.67
-3.56
-2.93
-1.48
0.68
3.01
4.79
5.47
4.98
3.77
2.58
2.08
2.53
3.75
5.28
6.69
7.81
8.76
9.79
11.1
12.73
14.55
16.29
17.7
18.51
18.54
17.66
16.02
14.15
13.01
13.92
18.18
26.52
38.8
53.92
70.14
85.7
99.34
110.54
119.29
125.76
129.88
131.28
129.61
124.82
117.43
108.39
98.74
89.19
79.99
70.93
61.65
51.79
41.09
29.32
16.16
1.17
-16.02
-35.59
-57.26
-80.26
-103.46
-125.6
-145.63
-162.9
-177.31
-189.25
-199.5
-209.0
-218.5
-228.23
-237.57
-244.89
-247.9
-244.19
-232.19
-211.77
-184.45
-152.95
-120.34
-89.19
-61.1
-36.71
-16.09
0.88
14.4
24.7
32.31
38.0
42.67
47.03
51.42
55.81
59.96
63.6
66.55
68.73
70.06
70.42
69.67
67.71
64.62
60.66
56.17
51.44
46.61
41.63
36.28
30.35
23.69
16.3
8.4
0.46
-6.73
-12.11
-14.58
-13.32
-8.17
0.17
10.34
20.71
29.91
37.22
42.59
46.38
48.96
50.47
50.85
49.99
48.07
45.59
43.22
41.53
40.64
40.2
39.55
38.02
35.27
31.4
26.9
22.3
18.02
14.15
10.52
6.83
2.8
-1.8
-7.12
-13.3
-20.32
-27.79
-34.87
-40.23
-42.45
-40.47
-34.12
-24.17
-12.21
-0.05
10.84
19.67
26.31
31.03
34.14
35.83
36.13
35.07
32.93
30.22
27.62
25.75
24.92
24.99
25.41
25.49
24.65
22.73
19.96
16.88
13.94
11.28
8.64
5.38
0.87
-5.35
-13.39
-22.99
-33.57
-44.27
-53.99
-61.55
-65.94
-66.59
-63.63
-57.81
-50.25
-42.02
-33.74
-25.54
-17.25
-8.74
-0.14
8.02
15.09
20.55
24.25
26.43
27.54
28.08
28.33
28.41
28.21
27.66
26.75
25.58
24.29
22.99
21.61
19.95
17.73
14.78
11.06
6.69
1.78
-3.67
-9.74
-16.47
-23.57
-30.26
-35.31
-37.38
-35.51
-29.49
-20.01
-8.39
3.83
15.32
25.24
33.25
39.36
43.82
46.97
49.22
50.9
52.29
53.45
54.29
54.59
54.18
52.96
51.01
48.53
45.68
42.53
39.02
35.03
30.48
25.38
19.86
14.13
8.39
2.74
-2.82
-8.38
-14.14
-20.3
-27.03
-34.33
-41.79
-48.53
-53.28
-54.75
-52.08
-45.2
-34.87
-22.51
-9.65
2.47
13.16
22.2
29.71
35.81
40.61
44.12
46.37
47.45
47.54
46.83
45.56
43.91
42.0
39.94
37.78
35.59
33.42
31.25
29.01
26.53
23.61
20.12
16.08
11.69
7.22
2.95
-1.05
-4.91
-8.97
-13.65
-19.27
-25.79
-32.75
-39.22
-43.97
-45.8
-43.93
-38.24
-29.37
-18.48
-6.91
4.24
14.31
23.12
30.72
37.17
42.32
45.88
47.56
47.27
45.33
42.36
39.11
36.15
33.68
31.51
29.26
26.64
23.52
20.06
16.51
13.05
9.72
6.46
3.16
-0.25
-3.76
-7.45
-11.47
-16.13
-21.76
-28.5
-36.05
-43.53
-49.64
-52.96
-52.48
-47.92
-39.93
-29.79
-18.93
-8.55
0.71
8.74
15.68
21.67
26.71
30.63
33.35
34.85
35.31
35.02
34.29
33.33
32.29
31.25
30.27
29.32
28.33
27.11
25.42
23.04
19.83
15.83
11.25
6.38
1.55
-3.02
-7.3
-11.48
-15.97
-21.24
-27.59
-34.9
-42.49
-49.15
-53.5
-54.43
-51.49
-45.08
-36.24
-26.22
-16.11
-6.59
2.1
9.86
16.63
22.28
26.66
29.76
31.72
32.8
33.21
33.07
32.39
31.14
29.41
27.42
25.48
23.89
22.74
21.86
20.88
19.37
17.03
13.8
9.88
5.61
1.38
-2.57
-6.17
-9.52
-12.91
-16.68
-21.2
-26.68
-33.04
-39.78
-45.99
-50.48
-52.21
-50.55
-45.6
-38.07
-29.06
-19.7
-10.78
-2.74
4.33
10.48
15.73
20.05
23.43
25.89
27.52
28.5
28.98
29.06
28.8
28.17
27.2
25.92
24.43
22.87
21.37
19.98
18.61
17.07
15.11
12.58
9.45
5.88
2.12
-1.56
-4.97
-8.11
-11.16
-14.41
-18.21
-22.89
-28.53
-34.9
-41.38
-47.03
-50.77
-51.74
-49.54
-44.44
-37.22
-28.87
-20.32
-12.16
-4.59
2.34
8.62
14.13
18.65
22.0
24.15
25.27
25.66
25.62
25.3
24.7
23.72
22.27
20.45
18.45
16.6
15.12
14.0
12.96
11.56
9.41
6.35
2.57
-1.49
-5.34
-8.64
-11.37
-13.77
-16.22
-19.15
-22.89
-27.59
-33.13
-39.04
-44.42
-48.11
-49.02
-46.51
-40.68
-32.39
-22.9
-13.49
-5.03
2.06
7.84
12.49
16.17
18.97
20.87
21.9
22.15
21.82
21.14
20.31
19.44
18.52
17.46
16.17
14.61
12.86
11.08
9.38
7.75
6.02
3.98
1.54
-1.23
-4.07
-6.74
-9.15
-11.43
-13.92
-17.0
-20.93
-25.7
-31.05
-36.38
-40.89
-43.69
-44.07
-41.67
-36.63
-29.57
-21.4
-13.05
-5.2
1.77
7.72
12.66
16.58
19.47
21.35
22.3
22.49
22.11
21.31
20.15
18.67
16.95
15.13
13.47
12.21
11.44
11.04
10.67
9.88
8.33
5.92
2.79
-0.71
-4.23
-7.5
-10.46
-13.24
-16.03
-19.11
-22.77
-27.18
-32.27
-37.57
-42.2
-45.05
-45.1
-41.84
-35.47
-26.83
-17.1
-7.31
1.84
10.14
17.58
24.17
29.84
34.37
37.64
39.71
40.84
41.45
41.87
42.29
42.71
42.98
42.91
42.42
41.57
40.51
39.41
38.33
37.1
35.4
32.79
28.99
23.93
17.86
11.17
4.29
-2.52
-9.29
-16.24
-23.75
-32.12
-41.43
-51.52
-61.89
-71.73
-79.97
-85.44
-87.16
-84.62
-78.01
-68.22
-56.68
-44.9
-34.07
-24.86
-17.41
-11.53
-6.9
-3.23
-0.28
2.17
4.31
6.33
8.28
10.06
11.5
12.42
12.74
12.54
12.03
11.44
10.9
10.38
9.69
8.58
6.84
4.45
1.58
-1.43
-4.24
-6.64
-8.7
-10.71
-13.15
-16.47
-20.97
-26.56
-32.76
-38.55
-42.63
-43.73
-40.99
-34.35
-24.66
-13.42
-2.31
7.33
14.79
20.06
23.56
25.78
27.09
27.63
27.45
26.63
25.31
23.72
22.07
20.51
19.12
17.89
16.8
15.79
14.83
13.81
12.59
11.01
8.91
6.24
3.04
-0.49
-4.13
-7.67
-11.06
-14.38
-17.94
-22.11
-27.2
-33.2
-39.61
-45.35
-49.01
-49.24
-45.3
-37.38
-26.63
-14.79
-3.58
5.77
12.84
17.85
21.37
23.91
25.68
26.64
26.64
25.65
23.89
21.78
19.78
18.23
17.22
16.58
15.97
15.09
13.73
11.86
9.58
7.03
4.36
1.62
-1.21
-4.22
-7.48
-11.11
-15.17
-19.79
-25.1
-31.04
-37.18
-42.61
-46.04
-46.2
-42.33
-34.57
-24.0
-12.3
-1.12
8.32
15.6
20.88
24.64
27.34
29.27
30.49
30.97
30.7
29.74
28.31
26.73
25.35
24.49
24.3
24.66
25.27
25.7
25.58
24.7
23.04
20.78
18.14
15.33
12.51
9.75
6.96
3.96
0.41
-4.09
-9.83
-16.73
-24.21
-31.15
-36.18
-38.05
-36.1
-30.56
-22.45
-13.3
-4.63
2.48
7.63
11.0
13.06
14.34
15.16
15.57
15.49
14.84
13.69
12.21
10.6
8.95
7.25
5.4
3.36
1.21
-0.88
-2.82
-4.62
-6.52
-8.86
-11.86
-15.52
-19.54
-23.5
-27.1
-30.31
-33.45
-37.05
-41.63
-47.47
-54.34
-61.4
-67.32
-70.57
-69.93
-64.88
-55.86
-44.2
-31.65
-19.84
-9.84
-1.94
4.09
8.73
12.33
15.05
16.85
17.74
17.86
17.46
16.89
16.38
16.06
15.92
15.89
15.93
16.01
16.09
16.1
15.89
15.28
14.15
12.46
10.28
7.76
5.02
2.12
-0.94
-4.28
-8.09
-12.63
-18.1
-24.52
-31.46
-37.91
-42.49
-43.76
-40.85
-33.78
-23.66
-12.21
-1.26
7.89
14.75
19.58
23.0
25.65
27.89
29.76
31.14
31.89
31.95
31.43
30.51
29.44
28.4
27.49
26.66
25.72
24.43
22.54
19.94
16.67
12.93
9.0
5.13
1.46
-2.03
-5.5
-9.23
-13.48
-18.48
-24.3
-30.71
-37.13
-42.55
-45.76
-45.71
-41.8
-34.24
-24.02
-12.57
-1.41
8.31
15.99
21.59
25.4
27.8
29.12
29.62
29.48
28.91
28.1
27.22
26.36
25.52
24.63
23.67
22.65
21.7
20.9
20.2
19.42
18.22
16.29
13.49
9.88
5.75
1.48
-2.69
-6.63
-10.43
-14.34
-18.59
-23.27
-28.17
-32.72
-35.98
-36.87
-34.49
-28.46
-19.09
-7.35
5.45
18.06
29.55
39.51
47.86
54.75
60.3
64.59
67.69
69.82
71.35
72.82
74.69
77.17
80.01
82.49
83.6
82.37
78.22
71.15
61.72
50.87
39.56
28.55
18.3
8.99
0.67
-6.77
-13.44
-19.6
-25.66
-32.1
-39.4
-47.75
-56.88
-65.9
-73.38
-77.74
-77.74
-73.02
-64.26
-53.01
-41.18
-30.38
-21.53
-14.8
-9.86
-6.31
-3.96
-2.8
-2.91
-4.18
-6.24
-8.61
-10.78
-12.39
-13.33
-13.61
-13.33
-12.67
-11.79
-10.97
-10.53
-10.77
-11.89
-13.86
-16.48
-19.38
-22.21
-24.76
-27.01
-29.13
-31.46
-34.37
-38.12
-42.69
-47.58
-51.8
-54.09
-53.29
-48.78
-40.78
-30.4
-19.22
-8.85
-0.37
5.85
10.1
12.93
14.85
16.05
16.49
16.01
14.59
12.44
9.98
7.68
5.91
4.8
4.27
3.99
3.62
2.86
1.57
-0.21
-2.31
-4.5
-6.65
-8.76
-10.98
-13.52
-16.61
-20.38
-24.92
-30.19
-35.93
-41.54
-46.04
-48.17
-46.81
-41.41
-32.32
-20.75
-8.43
3.05
12.64
20.06
25.55
29.55
32.37
34.07
34.57
33.85
32.08
29.7
27.19
24.99
23.3
22.05
20.97
19.73
18.04
15.76
12.87
9.48
5.68
1.57
-2.72
-7.04
-11.24
-15.17
-18.86
-22.45
-26.29
-30.78
-36.11
-42.11
-48.0
-52.5
-54.15
-51.74
-44.83
-33.87
-20.14
-5.3
9.17
22.31
33.72
43.39
51.38
57.65
62.11
64.79
65.92
65.94
65.33
64.46
63.41
62.15
60.61
58.86
57.13
55.64
54.44
53.3
51.81
49.52
46.11
41.49
35.79
29.23
22.04
14.38
6.37
-2.0
-10.81
-20.2
-30.25
-40.82
-51.32
-60.72
-67.67
-70.93
-69.76
-64.32
-55.6
-45.11
-34.41
-24.67
-16.5
-10.03
-5.09
-1.46
1.05
2.6
3.44
3.85
4.19
4.69
5.43
6.3
7.03
7.4
7.3
6.8
6.09
5.35
4.62
3.69
2.22
-0.12
-3.46
-7.67
-12.39
-17.16
-21.63
-25.64
-29.29
-32.84
-36.65
-41.04
-46.11
-51.64
-56.94
-60.95
-62.46
-60.54
-54.9
-46.1
-35.36
-24.21
-13.96
-5.38
1.36
6.54
10.53
13.61
15.86
17.32
18.09
18.38
18.5
18.65
18.91
19.12
19.03
18.47
17.46
16.23
15.13
14.4
14.04
13.75
13.09
11.67
9.36
6.37
3.14
0.16
-2.29
-4.24
-6.03
-8.15
-11.13
-15.28
-20.57
-26.56
-32.38
-36.87
-38.87
-37.55
-32.7
-24.85
-15.12
-4.85
4.76
12.99
19.61
24.74
28.64
31.49
33.32
34.08
33.75
32.46
30.48
28.2
26.0
24.18
22.81
21.86
21.16
20.52
19.79
18.86
17.67
16.19
14.35
12.17
9.67
6.91
3.98
0.9
-2.35
-5.96
-10.19
-15.25
-21.15
-27.49
-33.41
-37.72
-39.21
-37.1
-31.33
-22.68
-12.53
-2.37
6.63
13.9
19.49
23.68
26.8
28.89
29.86
29.54
27.97
25.44
22.49
19.64
17.26
15.46
14.05
12.73
11.23
9.36
7.07
4.45
1.6
-1.33
-4.27
-7.2
-10.16
-13.32
-16.81
-20.84
-25.56
-31.02
-37.06
-43.28
-48.91
-52.99
-54.49
-52.72
-47.51
-39.42
-29.58
-19.35
-9.98
-2.27
3.5
7.45
9.86
11.0
11.02
10.02
8.13
5.5
2.37
-1.06
-4.65
-8.32
-11.98
-15.49
-18.7
-21.5
-23.89
-26.01
-28.1
-30.29
-32.64
-35.05
-37.39
-39.6
-41.73
-43.9
-46.28
-49.04
-52.39
-56.53
-61.57
-67.28
-73.02
-77.66
-79.9
-78.7
-73.69
-65.26
-54.34
-41.88
-28.47
-14.11
1.48
18.44
36.34
54.08
70.12
82.98
91.7
96.09
96.63
94.27
89.99
84.61
78.73
72.76
67.02
61.79
57.28
53.48
50.15
46.88
43.21
38.88
33.9
28.61
23.45
18.79
14.68
10.8
6.56
1.31
-5.32
-13.14
-21.37
-28.65
-33.45
-34.51
-31.2
-23.85
-13.63
-2.25
8.56
17.49
23.91
27.84
29.75
30.26
29.89
29.01
27.84
26.55
25.31
24.3
23.62
23.26
23.11
23.0
22.76
22.36
21.84
21.26
20.61
19.72
18.32
16.15
13.12
9.36
5.26
1.19
-2.6
-6.18
-9.86
-14.13
-19.43
-25.93
-33.44
-41.2
-48.07
-52.64
-53.69
-50.55
-43.46
-33.5
-22.29
-11.42
-1.98
5.63
11.62
16.41
20.37
23.58
25.93
27.27
27.58
27.03
25.91
24.56
23.28
22.24
21.49
20.97
20.55
20.1
19.51
18.68
17.56
16.05
14.02
11.35
7.99
3.99
-0.5
-5.39
-10.63
-16.29
-22.32
-28.39
-33.77
-37.36
-38.07
-35.21
-28.82
-19.73
-9.36
0.78
9.49
16.17
20.82
23.81
25.56
26.32
26.12
24.91
22.78
20.03
17.22
14.93
13.6
13.22
13.46
13.68
13.31
12.01
9.85
7.12
4.24
1.46
-1.22
-3.99
-7.19
-11.06
-15.73
-21.14
-27.13
-33.43
-39.5
-44.58
-47.67
-47.86
-44.6
-38.09
-29.26
-19.48
-10.15
-2.24
3.95
8.59
12.05
14.64
16.39
17.18
16.89
15.61
13.65
11.5
9.65
8.42
7.89
7.88
8.09
8.15
7.77
6.8
5.29
3.34
1.12
-1.29
-3.9
-6.85
-10.33
-14.55
-19.67
-25.7
-32.43
-39.27
-45.24
-49.16
-49.9
-46.82
-40.02
-30.46
-19.6
-8.96
0.35
7.87
13.68
18.12
21.49
23.88
25.23
25.51
24.86
23.6
22.15
20.88
19.93
19.23
18.54
17.59
16.19
14.26
11.91
9.28
6.54
3.78
1.02
-1.81
-4.78
-7.99
-11.57
-15.65
-20.39
-25.88
-31.98
-38.19
-43.52
-46.76
-46.82
-43.17
-36.11
-26.7
-16.39
-6.46
2.31
9.72
16.0
21.43
26.15
30.07
33.05
34.97
35.83
35.77
34.95
33.58
31.89
30.15
28.61
27.44
26.65
26.04
25.3
24.14
22.39
20.06
17.26
14.2
11.02
7.77
4.45
0.92
-3.02
-7.69
-13.38
-20.18
-27.78
-35.21
-41.02
-43.63
-41.96
-35.84
-26.23
-14.83
-3.57
6.12
13.54
18.84
22.56
25.29
27.4
28.93
29.76
29.78
29.04
27.74
26.16
24.56
23.05
21.65
20.27
18.83
17.28
15.62
13.81
11.81
9.5
6.81
3.71
0.3
-3.29
-6.95
-10.67
-14.64
-19.13
-24.38
-30.34
-36.5
-41.89
-45.26
-45.49
-41.97
-34.93
-25.36
-14.71
-4.39
4.61
11.93
17.71
22.32
26.03
28.91
30.81
31.59
31.24
30.05
28.46
27.0
26.08
25.81
26.01
26.24
26.0
24.96
23.08
20.64
18.11
15.89
14.13
12.69
11.21
9.31
6.73
3.39
-0.61
-4.97
-9.12
-12.18
-13.04
-10.62
-4.29
5.81
18.68
32.71
46.25
58.03
67.39
74.24
78.69
80.82
80.58
77.89
72.83
65.78
57.37
48.43
39.73
31.85
25.06
19.3
14.3
9.61
4.84
-0.25
-5.62
-11.0
-15.96
-19.94
-22.47
-23.21
-22.02
-19.0
-14.43
-8.8
-2.62
3.69
9.94
16.39
23.67
32.73
44.61
60.23
80.15
104.4
132.27
162.37
192.62
220.61
244.11
261.59
272.51
277.14
276.11
269.92
258.86
243.22
223.69
201.37
177.44
152.75
127.59
102.05
76.6
52.49
31.5
15.16
3.95
-3.03
-7.67
-11.98
-17.42
-24.56
-33.28
-43.24
-54.13
-65.74
-77.88
-90.24
-102.38
-113.8
-123.92
-132.14
-137.94
-140.98
-141.28
-139.15
-135.17
-130.09
-124.62
-119.5
-115.41
-112.83
-111.99
-112.79
-114.84
-117.71
-121.01
-124.56
-128.29
-132.11
-135.89
-139.44
-142.62
-145.43
-147.89
-149.96
-151.42
-151.84
-150.88
-148.52
-145.11
-141.35
-137.95
-135.33
-133.5
-132.14
-130.89
-129.53
-127.95
-125.96
-123.03
-118.26
-110.6
-99.24
-84.06
-65.68
-45.41
-24.91
-5.78
10.64
23.42
32.01
36.27
36.41
33.07
27.25
20.19
13.17
7.24
3.05
0.66
-0.38
-0.87
-1.64
-3.19
-5.51
-8.16
-10.44
-11.83
-12.24
-12.09
-12.1
-13.05
-15.41
-19.29
-24.44
-30.37
-36.41
-41.74
-45.26
-45.77
-42.25
-34.19
-21.89
-6.41
10.66
27.67
43.28
56.7
67.59
75.98
82.08
86.18
88.72
90.34
91.98
94.75
99.8
107.98
119.53
133.95
150.07
166.41
181.68
194.96
205.8
213.98
219.28
221.53
220.69
217.18
212.1
207.04
203.6
202.72
204.12
206.3
206.97
203.97
196.15
183.68
167.82
150.21
131.95
113.2
93.25
71.07
45.87
17.45
-13.76
-46.68
-79.62
-110.2
-135.64
-153.32
-161.67
-160.92
-153.29
-142.47
-132.44
-126.18
-124.88
-127.84
-133.13
-138.41
-141.8
-142.09
-138.7
-131.25
-119.32
-102.4
-80.18
-52.94
-22.12
9.48
38.03
59.33
69.98
68.24
54.48
30.81
0.09
-35.09
-72.97
-112.37
-152.03
-189.86
-223.19
-249.67
-268.47
-280.92
-290.01
-299.06
-310.25
-323.92
-338.88
-353.36
-365.99
-376.33
-384.7
-391.62
-397.33
-401.79
-404.94
-407.04
-408.82
-411.43
-415.78
-422.1
-429.45
-435.76
-438.21
-434.07
-421.64
-400.65
-372.41
-339.13
-303.28
-266.87
-231.14
-196.67
-163.59
-131.84
-101.27
-71.7
-42.96
-14.96
12.24
38.29
62.7
84.94
104.64
121.77
136.78
150.58
164.35
179.2
195.53
212.43
227.56
237.78
240.35
234.27
221.06
204.38
188.79
178.16
174.48
177.68
186.14
197.52
209.31
219.15
224.84
224.54
217.28
203.44
184.81
164.2
144.56
128.01
115.32
105.91
98.36
91.1
83.13
74.29
65.18
56.77
50.0
45.2
41.99
39.35
35.95
30.65
22.88
13.01
2.31
-7.15
-12.99
-12.9
-5.25
10.65
34.31
64.1
97.42
131.18
162.39
188.69
208.89
223.13
232.71
239.65
246.02
253.47
262.89
274.25
286.72
298.94
309.28
316.17
318.31
314.8
305.18
289.38
267.6
240.33
208.44
173.2
136.27
99.43
64.41
32.61
4.9
-18.38
-37.42
-52.89
-65.7
-76.85
-87.13
-96.97
-106.39
-115.12
-122.79
-129.09
-133.84
-136.9
-138.15
-137.42
-134.67
-130.02
-123.9
-116.98
-110.01
-103.63
-98.13
-93.5
-89.42
-85.5
-81.49
-77.37
-73.39
-69.98
-67.6
-66.6
-67.1
-68.84
-71.16
-73.02
-73.19
-70.53
-64.33
-54.55
-41.87
-27.48
-12.69
1.38
14.0
24.83
33.7
40.56
45.33
47.98
48.65
47.66
45.49
42.65
39.58
36.51
33.52
30.52
27.38
23.98
20.22
16.08
11.6
6.92
2.2
-2.43
-6.87
-11.13
-15.29
-19.46
-23.8
-28.5
-33.75
-39.62
-45.91
-51.97
-56.72
-58.95
-57.65
-52.52
-44.13
-33.67
-22.56
-11.88
-2.17
6.55
14.45
21.6
27.82
32.86
36.56
39.11
40.95
42.64
44.55
46.68
48.77
50.48
51.61
52.24
52.69
53.29
54.15
55.08
55.65
55.45
54.24
52.16
49.64
47.19
45.19
43.73
42.6
41.38
39.54
36.67
32.57
27.43
21.89
16.99
14.02
14.11
17.86
25.04
34.64
45.14
55.03
63.22
69.26
73.28
75.66
76.7
76.44
74.72
71.38
66.49
60.48
54.03
47.82
42.37
37.91
34.37
31.54
29.06
26.49
23.3
18.97
13.21
6.25
-1.04
-7.29
-11.1
-11.62
-8.94
-4.1
1.26
5.63
8.28
9.58
10.94
14.34
21.63
34.03
51.81
74.27
99.82
126.14
150.42
169.86
182.23
186.5
183.19
174.24
162.33
150.14
139.51
131.1
124.62
119.25
114.17
108.85
102.91
96.13
88.3
79.19
68.77
57.2
44.81
32.0
19.2
6.67
-5.54
-17.7
-30.25
-43.67
-58.26
-73.99
-90.47
-107.07
-123.07
-137.65
-149.9
-158.67
-162.74
-161.03
-153.17
-139.86
-122.85
-104.45
-86.77
-71.05
-57.5
-45.67
-35.0
-25.3
-16.79
-9.88
-4.86
-1.75
-0.46
-1.03
-3.71
-8.87
-16.7
-26.85
-38.38
-50.03
-60.57
-69.2
-75.77
-80.69
-84.69
-88.54
-92.82
-97.78
-103.35
-109.22
-115.04
-120.51
-125.36
-129.19
-131.35
-130.81
-126.45
-117.44
-103.61
-85.74
-65.32
-44.12
-23.64
-4.81
12.09
27.23
40.83
53.11
64.16
74.07
83.08
91.57
99.88
107.99
115.32
120.77
123.08
121.37
115.62
106.73
96.19
85.41
75.27
65.83
56.65
47.18
37.1
26.52
15.86
5.62
-3.78
-12.14
-19.57
-26.51
-33.68
-41.84
-51.49
-62.39
-73.48
-83.1
-89.43
-91.25
-88.27
-81.19
-71.29
-59.82
-47.59
-34.75
-21.12
-6.5
8.88
24.3
38.68
50.86
59.67
64.02
63.01
56.2
43.99
27.82
10.1
-6.36
-19.11
-26.71
-28.86
-26.23
-19.77
-10.25
1.88
16.43
33.11
51.43
70.73
90.29
109.51
127.85
144.78
159.77
172.31
182.04
188.74
192.28
192.47
188.91
181.09
168.68
151.95
131.9
109.96
87.44
64.92
42.18
18.59
-6.23
-32.01
-57.99
-83.55
-108.82
-134.67
-162.1
-191.28
-220.83
-248.04
-269.64
-283.13
-287.54
-283.68
-273.58
-259.7
-244.27
-228.82
-214.12
-200.34
-187.24
-174.56
-162.1
-149.89
-138.09
-126.95
-116.69
-107.67
-100.45
-95.83
-94.79
-98.18
-106.57
-120.0
-138.06
-159.92
-184.36
-209.72
-233.91
-254.51
-269.22
-276.23
-274.72
-264.98
-248.29
-226.62
-202.23
-177.41
-154.13
-133.86
-117.31
-104.28
-93.76
-84.24
-74.25
-62.82
-49.72
-35.46
-20.92
-7.0
5.61
16.56
25.69
32.87
37.9
40.55
40.82
39.1
36.22
33.24
31.08
30.09
29.92
29.67
28.25
24.94
19.67
13.08
6.37
1.08
-1.14
1.18
9.05
22.59
40.87
62.08
84.04
104.92
123.73
140.39
155.17
168.12
178.86
186.74
191.46
193.57
194.41
195.65
198.59
203.7
210.56
218.22
225.58
231.55
235.04
234.85
229.62
218.07
199.27
173.09
140.36
102.88
63.18
23.93
-12.58
-45.07
-73.43
-98.54
-121.73
-144.03
-165.73
-186.08
-203.43
-215.62
-220.58
-216.91
-204.45
-184.46
-159.41
-132.41
-106.31
-83.11
-63.67
-48.02
-35.77
-26.57
-20.21
-16.47
-14.95
-14.94
-15.58
-16.17
-16.31
-16.0
-15.52
-15.27
-15.69
-17.15
-19.85
-23.81
-28.78
-34.36
-40.1
-45.69
-51.11
-56.61
-62.58
-69.43
-77.25
-85.69
-93.82
-100.24
-103.29
-101.49
-93.96
-80.76
-62.88
-41.97
-19.92
1.6
21.36
38.56
52.7
63.55
71.07
75.5
77.37
77.42
76.41
75.03
73.75
72.84
72.35
72.17
72.02
71.57
70.44
68.44
65.53
61.86
57.66
53.11
48.29
43.15
37.63
31.62
25.01
17.58
9.03
-0.8
-11.58
-22.25
-31.02
-35.81
-34.87
-27.53
-14.49
2.43
20.86
38.64
54.34
67.31
77.52
85.14
90.35
93.3
94.22
93.48
91.61
89.22
86.88
84.99
83.71
82.93
82.37
81.65
80.36
78.24
75.15
71.12
66.25
60.73
54.71
48.37
41.86
35.28
28.65
21.8
14.39
6.0
-3.64
-14.38
-25.4
-35.16
-41.71
-43.22
-38.57
-27.84
-12.28
6.03
24.82
42.18
56.97
68.74
77.52
83.55
87.08
88.42
87.95
86.17
83.61
80.73
77.82
74.95
72.1
69.24
66.47
63.96
61.78
59.81
57.68
54.89
51.02
45.94
39.83
33.17
26.46
20.12
14.21
8.51
2.51
-4.39
-12.67
-22.33
-32.72
-42.47
-49.7
-52.58
-49.89
-41.48
-28.35
-12.37
4.37
20.02
33.41
44.07
52.02
57.49
60.72
61.88
61.14
58.75
55.16
50.95
46.74
43.02
40.05
37.8
36.06
34.46
32.7
30.61
28.14
25.32
22.16
18.66
14.76
10.48
5.88
1.09
-3.91
-9.27
-15.32
-22.29
-30.04
-37.74
-43.96
-47.03
-45.6
-39.27
-28.79
-15.83
-2.38
9.83
19.75
27.1
32.13
35.22
36.75
36.93
35.99
34.19
31.93
29.59
27.48
25.74
24.33
23.12
21.97
20.78
19.46
17.92
16.04
13.67
10.71
7.17
3.16
-1.17
-5.64
-10.14
-14.74
-19.66
-25.27
-31.88
-39.5
-47.64
-55.18
-60.57
-62.26
-59.24
-51.47
-39.91
-26.23
-12.29
0.43
11.07
19.42
25.64
29.99
32.74
34.06
34.19
33.41
32.06
30.43
28.72
27.0
25.32
23.77
22.46
21.48
20.77
20.07
19.0
17.2
14.48
10.88
6.68
2.24
-2.09
-6.1
-9.8
-13.35
-17.04
-21.22
-26.18
-31.97
-38.19
-44.01
-48.23
-49.6
-47.25
-40.97
-31.39
-19.77
-7.66
3.51
12.78
19.76
24.48
27.26
28.5
28.59
27.84
26.6
25.17
23.84
22.78
22.01
21.41
20.84
20.21
19.56
19.0
18.55
18.07
17.21
15.54
12.68
8.49
3.14
