0.07
-2.68
-5.72
-9.11
-13.07
-17.86
-23.64
-30.23
-36.95
-42.68
-46.05
-45.87
-41.61
-33.55
-22.79
-10.93
0.44
10.16
17.66
22.91
26.25
28.03
28.56
27.99
26.53
24.46
22.2
20.25
19.04
18.73
19.17
19.88
20.26
19.77
18.18
15.59
12.4
9.1
5.99
3.13
0.29
-2.88
-6.68
-11.31
-16.77
-22.9
-29.39
-35.64
-40.78
-43.69
-43.36
-39.19
-31.31
-20.68
-8.83
2.62
12.37
19.77
24.75
27.64
28.85
28.69
27.35
25.0
21.89
18.43
15.13
12.47
10.77
10.04
10.01
10.16
9.89
8.8
6.76
3.94
0.72
-2.47
-5.38
-7.96
-10.35
-12.83
-15.73
-19.36
-23.97
-29.59
-35.88
-41.99
-46.69
-48.63
-46.75
-40.76
-31.25
-19.55
-7.3
4.04
13.48
20.62
25.49
28.34
29.43
29.04
27.49
25.19
22.65
20.39
18.8
18.05
18.03
18.39
18.7
18.53
17.63
15.94
13.57
10.76
7.68
4.45
1.08
-2.45
-6.16
-10.06
-14.21
-18.74
-23.83
-29.47
-35.33
-40.57
-44.0
-44.45
-41.2
-34.28
-24.6
-13.53
-2.54
7.22
15.14
21.09
25.21
27.75
28.87
28.7
27.36
25.04
22.08
18.83
15.71
13.05
11.02
9.64
8.77
8.2
7.71
7.13
6.37
5.35
4.0
2.26
0.09
-2.52
-5.55
-9.03
-13.04
-17.77
-23.38
-29.78
-36.48
-42.5
-46.57
-47.48
-44.52
-37.75
-28.05
-16.84
-5.68
4.18
12.01
17.67
21.42
23.62
24.6
24.58
23.71
22.19
20.36
18.67
17.54
17.18
17.48
18.03
18.28
17.77
16.35
14.11
11.4
8.52
5.65
2.83
-0.02
-2.94
-6.0
-9.3
-13.07
-17.55
-22.81
-28.48
-33.7
-37.17
-37.66
-34.41
-27.48
-17.8
-6.83
3.87
13.17
20.46
25.67
28.99
30.65
30.74
29.34
26.62
22.96
19.0
15.4
12.71
11.15
10.55
10.47
10.39
9.88
8.73
6.93
4.65
2.09
-0.62
-3.43
-6.39
-9.6
-13.25
-17.5
-22.51
-28.2
-34.21
-39.78
-43.79
-45.1
-42.87
-36.94
-27.9
-16.99
-5.74
4.55
13.02
19.41
23.8
26.43
27.47
27.01
25.15
22.13
18.42
14.66
11.46
9.18
7.85
7.15
6.61
5.79
4.44
2.53
0.25
-2.14
-4.43
-6.54
-8.59
-10.82
-13.5
-16.85
-20.98
-25.87
-31.32
-36.93
-41.94
-45.34
-45.97
-42.97
-36.12
-26.04
-14.1
-2.02
8.71
17.19
23.26
27.27
29.73
31.03
31.38
30.84
29.51
27.61
25.49
23.55
22.07
21.16
20.68
20.37
19.88
18.95
17.44
15.34
12.75
9.78
6.5
2.98
-0.76
-4.66
-8.66
-12.75
-17.03
-21.71
-26.94
-32.56
-37.92
-41.93
-43.35
-41.19
-35.2
-26.02
-14.97
-3.62
6.68
15.15
21.58
26.12
29.05
30.53
30.67
29.52
27.3
24.37
21.27
18.56
16.68
15.84
15.9
16.47
17.03
17.1
16.35
14.68
12.22
9.12
5.63
1.9
-1.89
-5.64
-9.26
-12.84
-16.64
-21.01
-26.3
-32.52
-39.24
-45.41
-49.7
-50.77
-47.82
-40.88
-30.84
-19.18
-7.53
2.8
11.05
17.05
20.99
23.26
24.18
24.02
22.95
21.21
19.08
16.91
15.05
13.71
12.9
12.41
11.95
11.21
10.07
8.58
6.89
5.2
3.55
1.88
0.0
-2.24
-4.96
-8.18
-11.88
-16.03
-20.59
-25.28
-29.53
-32.47
-33.06
-30.52
-24.55
-15.63
-4.84
6.42
16.94
25.95
33.21
38.79
42.82
45.36
46.35
45.79
43.94
41.28
38.45
36.05
34.41
33.52
33.12
32.77
32.13
30.92
29.06
26.62
23.71
20.49
17.03
13.32
9.31
4.86
-0.11
-5.73
-12.04
-19.0
-26.34
-33.49
-39.48
-43.21
-43.68
-40.44
-33.77
-24.74
-14.81
-5.41
2.45
8.34
12.32
14.63
15.49
14.98
13.15
10.15
6.37
2.4
-1.1
-3.66
-5.16
-5.86
-6.3
-7.03
-8.4
-10.42
-12.82
-15.21
-17.27
-18.92
-20.27
-21.52
-22.91
-24.56
-26.56
-29.03
-32.05
-35.6
-39.29
-42.35
-43.66
-42.15
-37.22
-29.04
-18.57
-7.22
3.59
12.87
20.14
25.38
28.77
30.56
30.9
29.97
28.0
25.35
22.39
19.53
17.03
15.03
13.49
12.24
11.01
9.54
7.65
5.33
2.73
0.08
-2.39
-4.59
-6.59
-8.63
-11.03
-14.17
-18.24
-23.23
-28.76
-34.1
-38.25
-40.11
-38.88
-34.27
-26.71
-17.25
-7.25
1.94
9.41
14.77
18.07
19.61
19.68
18.52
16.29
13.25
9.83
6.61
4.19
3.01
3.1
4.13
5.5
6.53
6.76
5.98
4.37
2.25
-0.05
-2.36
-4.63
-7.01
-9.67
-12.82
-16.66
-21.31
-26.72
-32.46
-37.74
-41.41
-42.33
-39.77
-33.63
-24.6
-13.91
-2.98
7.04
15.43
21.89
26.37
28.93
29.63
28.64
26.28
23.13
19.89
17.22
15.49
14.66
14.3
13.8
12.65
10.62
7.87
4.8
1.85
-0.73
-2.98
-5.21
-7.81
-11.15
-15.42
-20.59
-26.34
-32.08
-36.95
-39.9
-40.0
-36.73
-30.22
-21.28
-11.14
-1.08
7.89
15.24
20.8
24.58
26.62
26.99
25.81
23.38
20.22
16.91
13.98
11.75
10.26
9.35
8.68
7.92
6.83
5.3
3.41
1.3
-0.86
-3.03
-5.24
-7.7
-10.67
-14.46
-19.26
-25.05
-31.44
-37.61
-42.39
-44.55
-43.14
-37.85
-29.17
-18.23
-6.44
4.86
14.78
22.86
28.96
33.08
35.26
35.51
34.02
31.16
27.53
23.86
20.78
18.68
17.59
17.22
17.1
16.73
15.81
14.21
12.06
9.56
6.92
4.26
1.6
-1.12
-4.05
-7.34
-11.17
-15.68
-20.91
-26.68
-32.4
-37.16
-39.78
-39.22
-34.93
-27.15
-16.9
-5.73
4.82
13.63
20.21
24.62
27.2
28.3
28.16
26.98
25.04
22.73
20.52
18.81
17.81
17.47
17.58
17.86
18.07
18.06
17.72
16.96
15.71
13.85
11.34
8.19
4.58
0.77
-2.97
-6.52
-9.98
-13.7
-18.11
-23.49
-29.63
-35.77
-40.65
-42.94
-41.6
-36.36
-27.79
-17.14
-5.99
4.25
12.61
18.74
22.74
24.98
25.85
25.72
24.82
23.38
21.69
20.03
18.67
17.78
17.43
17.51
17.87
18.31
18.65
18.72
18.35
17.39
15.7
13.22
10.04
6.35
2.43
-1.51
-5.3
-8.93
-12.52
-16.26
-20.39
-24.97
-29.77
-34.11
-36.99
-37.29
-34.27
-27.85
-18.74
-8.28
2.01
10.86
17.58
22.02
24.48
25.4
25.17
24.04
22.2
19.93
17.57
15.57
14.31
13.99
14.52
15.57
16.63
17.27
17.21
16.4
14.97
13.14
11.07
8.79
6.25
3.33
-0.06
-3.96
-8.39
-13.35
-18.82
-24.65
-30.4
-35.32
-38.41
-38.67
-35.49
-28.97
-19.87
-9.49
0.76
9.67
16.58
21.28
23.96
24.93
24.56
23.17
21.0
18.36
15.56
12.92
10.7
9.05
8.01
7.46
7.21
7.01
6.6
5.77
4.35
2.28
-0.35
-3.38
-6.56
-9.69
-12.64
-15.42
-18.14
-21.07
-24.46
-28.49
-33.05
-37.67
-41.49
-43.39
-42.39
-37.94
-30.27
-20.31
-9.43
0.92
9.69
16.4
20.99
23.69
24.83
24.65
23.35
21.25
18.71
16.17
14.01
12.44
11.5
11.06
10.94
10.98
11.05
11.06
10.89
10.37
9.34
7.67
5.33
2.37
-1.06
-4.75
-8.51
-12.23
-15.9
-19.66
-23.74
-28.37
-33.52
-38.78
-43.31
-45.94
-45.62
-41.8
-34.7
-25.27
-14.91
-4.97
3.64
10.52
15.7
19.35
21.6
22.47
22.03
20.54
18.48
16.45
14.94
14.17
14.04
14.2
14.29
14.1
13.66
13.16
12.76
12.47
12.1
11.33
9.83
7.45
4.26
0.58
-3.19
-6.73
-9.94
-13.01
-16.34
-20.37
-25.39
-31.32
-37.64
-43.42
-47.57
-49.05
-47.23
-42.07
-34.13
-24.45
-14.22
-4.53
3.81
10.43
15.17
18.12
19.4
19.24
17.96
15.99
13.84
11.97
10.78
10.39
10.7
11.42
12.22
12.86
13.23
13.4
13.44
13.37
13.06
12.31
10.86
8.62
5.65
2.2
-1.39
-4.78
-7.78
-10.45
-13.03
-15.95
-19.63
-24.34
-30.06
-36.3
-42.13
-46.37
-47.84
-45.74
-39.97
-31.11
-20.34
-9.04
1.54
10.54
17.58
22.63
25.83
27.37
27.51
26.56
24.93
23.07
21.4
20.2
19.61
19.59
20.03
20.74
21.52
22.17
22.47
22.22
21.21
19.36
16.72
13.47
9.91
6.32
2.88
-0.48
-4.06
-8.33
-13.75
-20.59
-28.65
-37.17
-44.94
-50.44
-52.31
-49.73
-42.74
-32.28
-19.91
-7.38
3.89
13.02
19.73
24.13
26.52
27.25
26.65
25.06
22.89
20.54
18.39
16.67
15.44
14.6
13.99
13.44
12.82
12.04
10.99
9.56
7.67
5.28
2.46
-0.6
-3.69
-6.64
-9.45
-12.27
-15.41
-19.16
-23.82
-29.46
-35.86
-42.32
-47.7
-50.62
-49.87
-44.84
-35.83
-24.02
-11.1
1.22
11.68
19.61
24.94
27.95
29.05
28.67
27.23
25.11
22.73
20.44
18.55
17.26
16.64
16.63
17.07
17.74
18.4
18.82
18.81
18.12
16.58
14.0
10.35
5.76
0.56
-4.78
-9.83
-14.32
-18.28
-22.07
-26.25
-31.34
-37.49
-44.27
-50.63
-55.09
-56.24
-53.16
-45.78
-34.92
-21.97
-8.54
4.0
14.75
23.26
29.41
33.26
34.97
34.79
33.11
30.49
27.52
24.75
22.55
21.05
20.15
19.63
19.28
18.95
18.57
18.1
17.38
16.2
14.31
11.55
7.96
3.79
-0.54
-4.71
-8.52
-12.05
-15.59
-19.58
-24.39
-30.24
-36.97
-43.96
-50.09
-53.96
-54.26
-50.19
-41.85
-30.21
-16.86
-3.51
8.49
18.34
25.79
30.87
33.7
34.4
33.18
30.5
27.07
23.72
21.1
19.48
18.71
18.37
18.02
17.44
16.67
15.93
15.38
14.96
14.43
13.46
11.78
9.33
6.25
2.79
-0.81
-4.37
-7.83
-11.28
-14.94
-19.11
-24.1
-30.01
-36.55
-42.94
-47.94
-50.17
-48.5
-42.5
-32.64
-20.18
-6.83
5.77
16.4
24.46
29.91
32.99
34.06
33.5
31.68
29.05
26.14
23.44
21.36
20.04
19.42
19.24
19.21
19.08
18.69
17.96
16.82
15.21
13.07
10.37
7.14
3.54
-0.23
-3.95
-7.49
-10.81
-14.12
-17.7
-21.9
-26.96
-32.83
-38.98
-44.46
-48.0
-48.35
-44.77
-37.29
-26.8
-14.79
-2.87
7.68
16.18
22.52
26.85
29.4
30.29
29.67
27.86
25.4
22.97
21.18
20.31
20.22
20.49
20.64
20.39
19.76
19.0
18.35
17.86
17.28
16.14
14.01
10.74
6.56
1.96
-2.5
-6.42
-9.74
-12.73
-15.86
-19.64
-24.46
-30.47
-37.4
-44.5
-50.54
-54.07
-53.87
-49.32
-40.74
-29.26
-16.45
-3.86
7.37
16.58
23.56
28.29
30.85
31.43
30.4
28.35
25.99
23.95
22.62
22.05
22.02
22.21
22.34
22.31
22.18
22.05
21.96
21.74
21.07
19.6
17.09
13.55
9.23
4.48
-0.36
-5.1
-9.7
-14.23
-18.8
-23.55
-28.68
-34.26
-40.13
-45.73
-50.07
-51.86
-50.03
-44.12
-34.56
-22.52
-9.57
2.82
13.66
22.45
29.08
33.55
35.93
36.35
35.13
32.73
29.77
26.81
24.21
22.13
20.5
19.19
18.1
17.2
16.49
15.92
15.34
14.52
13.16
11.05
8.16
4.7
0.98
-2.61
-5.81
-8.58
-11.16
-13.92
-17.36
-21.89
-27.66
-34.45
-41.5
-47.66
-51.54
-51.97
-48.32
-40.76
-30.21
-18.08
-5.86
5.25
14.48
21.54
26.4
29.22
30.24
29.8
28.35
26.41
24.47
22.9
21.86
21.3
21.08
21.04
21.05
21.08
21.03
20.78
20.17
19.01
17.16
14.59
11.41
7.8
4.04
0.43
-2.82
-5.66
-8.26
-11.06
-14.56
-19.15
-24.81
-30.97
-36.52
-40.06
-40.3
-36.5
-28.76
-18.04
-5.85
6.13
16.54
24.63
30.25
33.65
35.27
35.46
34.45
32.46
29.77
26.79
24.01
21.85
20.51
19.92
19.8
19.76
19.47
18.76
17.6
16.03
14.11
11.88
9.39
6.7
3.94
1.22
-1.43
-4.14
-7.17
-10.86
-15.34
-20.38
-25.23
-28.78
-29.84
-27.62
-21.97
-13.52
-3.48
6.78
16.16
23.98
30.07
34.56
37.66
39.45
39.86
38.8
36.27
32.52
28.03
23.43
19.24
15.74
12.85
10.16
7.2
3.55
-0.92
-6.11
-11.74
-17.47
-22.99
-28.05
-32.49
-36.26
-39.44
-42.28
-45.19
-48.61
-52.78
-57.55
-62.21
-65.61
-66.44
-63.68
-57.0
-46.93
-34.71
-21.88
-9.88
0.35
8.42
14.42
18.63
21.34
22.74
22.91
22.03
20.38
18.41
16.68
15.62
15.4
15.85
16.54
16.92
16.57
15.35
13.3
10.6
7.43
3.85
-0.11
-4.43
-9.06
-13.94
-19.11
-24.69
-30.82
-37.42
-43.93
-49.27
-52.01
-50.9
-45.27
-35.42
-22.49
-8.15
5.96
18.6
29.11
37.28
43.09
46.53
47.55
46.18
42.72
37.79
32.23
26.92
22.47
19.07
16.47
14.22
11.84
9.01
5.68
1.92
-2.06
-6.09
-9.99
-13.59
-16.85
-19.89
-23.08
-26.96
-32.14
-38.9
-47.01
-55.59
-63.21
-68.32
-69.67
-66.75
-59.89
-50.11
-38.77
-27.2
-16.45
-7.18
0.27
5.79
9.41
11.25
11.5
10.5
8.7
6.59
4.68
3.38
2.9
3.14
3.84
4.58
5.02
5.03
4.66
4.11
3.56
3.05
2.44
1.36
-0.61
-3.82
-8.4
-14.16
-20.47
-26.38
-30.78
-32.63
-31.23
-26.51
-18.95
-9.52
0.67
10.65
19.73
27.52
33.79
38.32
40.88
41.35
39.86
36.91
33.3
29.88
27.23
25.48
24.33
23.13
21.31
18.59
15.09
11.18
7.27
3.54
-0.13
-4.13
-8.87
-14.58
-21.27
-28.66
-36.28
-43.43
-49.29
-52.9
-53.41
-50.3
-43.62
-34.08
-22.83
-11.16
-0.11
9.64
17.79
24.22
28.81
31.47
32.19
31.15
28.83
25.89
22.94
20.41
18.4
16.76
15.18
13.39
11.27
8.85
6.28
3.73
1.28
-1.08
-3.44
-6.07
-9.31
-13.54
-19.0
-25.57
-32.61
-38.93
-43.08
-43.77
-40.32
-32.95
-22.69
-11.03
0.62
11.24
20.38
27.97
34.11
38.85
42.07
43.67
43.62
42.13
39.66
36.8
34.09
31.91
30.28
29.04
27.83
26.28
24.19
21.56
18.54
15.33
12.05
8.72
5.21
1.4
-2.82
-7.52
-12.83
-18.92
-25.8
-33.15
-40.17
-45.57
-47.97
-46.31
-40.33
-30.71
-18.84
-6.37
5.3
15.29
23.29
29.37
33.73
36.61
38.2
38.69
38.38
37.54
36.43
35.24
34.01
32.74
31.4
30.02
28.68
27.41
26.16
24.75
22.93
20.46
17.24
13.3
8.85
4.18
-0.45
-4.85
-9.05
-13.25
-17.83
-23.23
-29.68
-36.96
-44.28
-50.32
-53.6
-52.97
-48.1
-39.53
-28.56
-16.71
-5.25
5.15
14.27
22.17
28.87
34.23
38.01
40.09
40.62
40.02
38.79
37.42
36.16
35.09
34.14
33.23
32.33
31.46
30.53
29.41
27.82
25.53
22.38
18.43
13.89
9.07
4.21
-0.53
-5.1
-9.6
-14.21
-19.15
-24.7
-30.97
-37.82
-44.65
-50.45
-53.98
-54.21
-50.66
-43.66
-34.25
-23.82
-13.72
-4.86
2.39
8.11
12.58
16.05
18.61
20.23
20.86
20.53
19.46
17.95
16.4
15.1
14.28
13.97
14.02
14.21
14.24
13.84
12.88
11.32
9.25
6.82
4.2
1.51
-1.26
-4.14
-7.27
-10.83
-15.0
-19.91
-25.47
-31.23
-36.39
-39.9
-40.74
-38.29
-32.53
-24.11
-14.17
-3.98
5.42
13.41
19.78
24.63
28.14
30.41
31.52
31.56
30.7
29.22
27.48
25.78
24.3
23.06
21.98
21.0
20.06
19.12
18.12
16.89
15.2
12.84
9.76
6.09
2.13
-1.81
-5.47
-8.83
-12.07
-15.56
-19.68
-24.65
-30.38
-36.3
-41.42
-44.57
-44.71
-41.34
-34.68
-25.68
-15.62
-5.74
3.08
10.45
16.36
20.93
24.27
26.44
27.48
27.51
26.77
25.57
24.17
22.76
21.4
20.06
18.7
17.32
16.0
14.87
14.0
13.28
12.49
11.27
9.29
6.41
2.72
-1.43
-5.65
-9.58
-13.09
-16.32
-19.51
-23.04
-27.19
-32.1
-37.67
-43.48
-48.73
-52.38
-53.38
-50.99
-45.12
-36.38
-25.97
-15.31
-5.57
2.62
9.19
14.41
18.62
21.92
24.23
25.34
25.23
24.12
22.52
20.99
19.94
19.48
19.41
19.41
19.18
18.6
17.72
16.68
15.56
14.32
12.82
10.86
8.34
5.28
1.82
-1.82
-5.4
-8.77
-11.86
-14.74
-17.58
-20.66
-24.27
-28.63
-33.74
-39.23
-44.32
-47.95
-49.06
-46.94
-41.53
-33.44
-23.73
-13.63
-4.17
4.02
10.62
15.59
19.0
20.98
21.69
21.39
20.43
19.22
18.15
17.51
17.37
17.62
18.01
18.29
18.29
18.02
17.63
17.3
17.07
16.76
15.96
14.25
11.42
7.61
3.25
-1.11
-5.08
-8.6
-11.94
-15.56
-19.83
-24.97
-30.92
-37.33
-43.59
-48.86
-52.17
-52.69
-49.91
-43.97
-35.62
-26.05
-16.49
-7.91
-0.86
4.55
8.47
11.12
12.74
13.55
13.78
13.69
13.46
13.29
13.26
13.38
13.61
13.88
14.12
14.28
14.32
14.21
13.88
13.15
11.88
9.87
7.11
3.71
0.04
-3.53
-6.65
-9.24
-11.5
-13.84
-16.79
-20.74
-25.82
-31.74
-37.81
-43.05
-46.33
-46.68
-43.56
-37.09
-28.07
-17.75
-7.56
1.36
8.39
13.44
16.81
18.96
20.24
20.9
21.04
20.76
20.17
19.38
18.56
17.75
16.99
16.25
15.49
14.65
13.62
12.28
10.48
8.11
5.14
1.67
-2.09
-5.88
-9.45
-12.65
-15.53
-18.27
-21.23
-24.78
-29.16
-34.24
-39.37
-43.46
-45.24
-43.69
-38.48
-30.12
-19.82
-9.07
0.82
9.02
15.29
19.69
22.51
23.94
24.19
23.45
21.98
20.13
18.28
16.76
15.78
15.42
15.56
15.95
16.31
16.33
15.82
14.66
12.85
10.42
7.5
4.23
0.77
-2.68
-6.07
-9.46
-13.11
-17.4
-22.72
-29.15
-36.33
-43.37
-48.96
-51.75
-50.73
-45.65
-37.05
-26.18
-14.57
-3.6
5.75
13.04
18.3
21.75
23.68
24.37
24.04
22.96
21.45
19.84
18.42
17.4
16.85
16.68
16.74
16.82
16.74
16.36
15.6
14.38
12.63
10.34
7.56
4.43
1.13
-2.17
-5.44
-8.8
-12.49
-16.87
-22.21
-28.52
-35.4
-41.92
-46.8
-48.67
-46.55
-40.18
-30.28
-18.24
-5.75
5.75
15.35
22.75
28.08
31.62
33.58
34.08
33.3
31.5
29.07
26.47
24.09
22.17
20.8
19.97
19.57
19.45
19.4
19.09
18.21
16.5
13.88
10.49
6.65
2.74
-0.99
-4.47
-7.89
-11.62
-16.09
-21.62
-28.26
-35.56
-42.58
-47.95
-50.33
-48.72
-42.9
-33.49
-21.87
-9.65
1.72
11.26
18.64
23.95
27.51
29.64
30.54
30.37
29.29
27.54
25.44
23.32
21.45
19.95
18.83
18.03
17.45
16.93
16.28
15.22
13.5
10.96
7.61
3.68
-0.51
-4.66
-8.56
-12.21
-15.77
-19.53
-23.83
-28.94
-34.81
-40.98
-46.46
-49.91
-50.04
-46.11
-38.27
-27.6
-15.74
-4.4
5.25
12.73
18.23
22.2
25.06
27.0
27.98
27.9
26.81
24.93
22.66
20.49
18.82
17.84
17.49
17.5
17.46
16.97
15.77
13.8
11.17
8.11
4.85
1.52
-1.84
-5.28
-8.9
-12.8
-17.15
-22.05
-27.46
-33.02
-37.94
-41.08
-41.31
-37.9
-30.85
-20.98
-9.68
1.57
11.59
19.74
25.86
30.07
32.52
33.3
32.48
30.3
27.22
23.9
21.0
18.97
17.93
17.58
17.41
16.82
15.44
13.21
10.31
7.09
3.84
0.71
-2.3
-5.28
-8.34
-11.62
-15.32
-19.68
-24.87
-30.72
-36.55
-41.18
-43.23
-41.63
-36.08
-27.24
-16.49
-5.42
4.68
13.13
19.81
24.89
28.55
30.78
31.48
30.62
28.43
25.41
22.19
19.37
17.26
15.88
14.97
14.1
12.91
11.17
8.85
6.14
3.26
0.38
-2.52
-5.7
-9.49
-14.22
-20.03
-26.88
-34.5
-42.4
-49.82
-55.83
-59.29
-59.21
-55.03
-46.92
-35.76
-23.06
-10.4
0.91
10.16
17.13
21.95
24.87
26.09
25.79
24.25
21.86
19.16
16.73
15.03
14.27
14.31
14.73
14.93
14.44
13.08
11.0
8.6
6.24
4.05
1.87
-0.65
-3.8
-7.73
-12.37
-17.64
-23.48
-29.85
-36.48
-42.66
-47.18
-48.7
-46.19
-39.48
-29.38
-17.4
-5.27
5.71
14.84
22.01
27.39
31.13
33.31
33.92
33.09
31.16
28.68
26.17
24.05
22.54
21.64
21.18
20.94
20.65
20.05
18.9
17.04
14.45
11.25
7.64
3.87
0.1
-3.59
-7.26
-11.07
-15.3
-20.24
-26.05
-32.52
-38.95
-44.24
-47.06
-46.36
-41.72
-33.54
-22.92
-11.37
-0.32
9.16
16.56
21.79
25.08
26.79
27.26
26.83
25.78
24.4
22.98
21.79
21.0
20.65
20.66
20.78
20.82
20.58
19.95
18.87
17.32
15.25
12.64
9.55
6.1
2.47
-1.14
-4.66
-8.2
-12.04
-16.56
-22.06
-28.49
-35.34
-41.55
-45.79
-46.77
-43.74
-36.76
-26.78
-15.33
-4.1
5.61
13.12
18.42
21.85
23.85
24.8
24.89
24.3
23.23
21.98
20.88
20.11
19.73
19.64
19.62
19.48
19.06
18.26
17.04
15.42
13.43
11.09
8.48
5.64
2.59
-0.68
-4.18
-7.97
-12.22
-17.13
-22.85
-29.25
-35.72
-41.17
-44.28
-43.88
-39.43
-31.3
-20.63
-8.94
2.3
12.06
19.91
25.82
29.94
32.41
33.31
32.71
30.83
28.07
24.97
22.11
19.94
18.66
18.2
18.25
18.42
18.38
17.88
16.82
15.16
12.94
10.29
7.37
4.35
1.32
-1.75
-5.02
-8.75
-13.2
-18.53
-24.6
-31.01
-36.98
-41.48
-43.41
-41.9
-36.64
-28.08
-17.35
-5.98
4.56
13.28
19.82
24.35
27.26
28.9
29.4
28.78
27.08
24.54
21.57
18.71
16.34
14.64
13.54
12.79
12.1
11.22
9.96
8.22
6.02
3.4
0.52
-2.51
-5.57
-8.65
-11.77
-15.04
-18.56
-22.55
-27.19
-32.59
-38.63
-44.72
-49.81
-52.55
-51.77
-46.92
-38.37
-27.36
-15.57
-4.52
4.83
12.2
17.78
21.88
24.68
26.18
26.38
25.4
23.63
21.57
19.74
18.41
17.68
17.39
17.37
17.42
17.36
17.02
16.24
14.86
12.82
10.12
6.89
3.36
-0.25
-3.77
-7.13
-10.44
-13.93
-17.96
-22.84
-28.67
-35.08
-41.16
-45.58
-46.98
-44.45
-37.92
-28.26
-16.97
-5.69
4.27
12.2
18.05
22.1
24.7
26.13
26.51
25.94
24.66
23.0
21.37
20.08
19.29
18.93
18.79
18.68
18.44
18.0
17.27
16.1
14.3
11.72
8.35
4.39
0.22
-3.83
-7.52
-10.88
-14.15
-17.75
-22.11
-27.51
-33.88
-40.68
-46.83
-50.99
-51.85
-48.63
-41.37
-31.0
-19.06
-7.25
3.07
11.2
17.03
20.88
23.11
24.03
23.79
22.54
20.58
18.37
16.43
15.2
14.82
15.16
15.87
16.52
16.74
16.33
15.22
13.5
11.29
8.78
6.11
3.37
0.58
-2.33
-5.49
-9.07
-13.29
-18.3
-24.18
-30.67
-37.15
-42.51
-45.45
-44.84
-40.17
-31.81
-20.98
-9.36
1.48
10.46
17.22
21.94
25.0
26.78
27.48
27.21
26.16
24.58
22.86
21.33
20.16
19.33
18.7
18.1
17.44
16.62
15.61
14.3
12.5
10.04
6.85
3.01
-1.25
-5.58
-9.68
-13.42
-16.89
-20.43
-24.5
-29.47
-35.37
-41.73
-47.52
-51.35
-51.92
-48.33
-40.57
-29.49
-16.61
-3.68
7.88
17.21
24.1
28.77
31.55
32.73
32.46
30.95
28.51
25.68
23.02
20.99
19.75
19.11
18.72
18.21
17.42
16.36
15.13
13.75
12.11
10.02
7.34
4.09
0.47
-3.19
-6.61
-9.66
-12.4
-15.14
-18.33
-22.49
-27.92
-34.48
-41.38
-47.29
-50.56
-49.85
-44.62
-35.35
-23.45
-10.74
1.1
10.97
18.48
23.77
27.18
29.04
29.53
28.74
26.91
24.43
21.86
19.76
18.45
17.91
17.81
17.77
17.5
16.99
16.38
15.84
15.3
14.45
12.83
10.12
6.31
1.71
-3.13
-7.74
-11.88
-15.62
-19.3
-23.37
-28.24
-34.01
-40.37
-46.49
-51.1
-52.78
-50.48
-43.89
-33.7
-21.37
-8.78
2.46
11.4
17.8
21.98
24.41
25.49
25.42
24.36
22.55
20.36
18.24
16.57
15.55
15.14
15.17
15.43
15.71
15.84
15.66
15.01
13.76
11.83
9.26
6.2
2.85
-0.57
-4.0
-7.44
-11.06
-15.1
-19.86
-25.43
-31.59
-37.61
-42.35
-44.44
-42.77
-36.9
-27.35
-15.48
-3.05
8.25
17.34
23.87
28.08
30.47
31.49
31.4
30.32
28.4
25.89
23.15
20.57
18.44
16.86
15.8
15.13
14.68
14.32
13.87
13.12
11.9
10.04
7.49
4.32
0.68
-3.22
-7.24
-11.4
-15.84
-20.82
-26.57
-33.1
-40.0
-46.37
-50.97
-52.5
-50.04
-43.43
-33.4
-21.36
-8.99
2.22
11.36
18.12
22.68
25.4
26.64
26.68
25.75
24.18
22.37
20.73
19.56
18.97
18.81
18.76
18.49
17.75
16.42
14.5
12.02
9.03
5.6
1.81
-2.19
-6.22
-10.08
-13.64
-16.92
-20.12
-23.62
-27.86
-33.11
-39.18
-45.26
-50.0
-51.83
-49.62
-43.06
-32.88
-20.59
-7.95
3.6
13.24
20.68
25.98
29.27
30.64
30.27
28.47
25.78
22.8
20.07
17.89
16.36
15.38
14.85
14.69
14.8
15.07
15.33
15.27
14.61
13.13
10.77
7.63
3.97
0.11
-3.7
-7.3
-10.7
-14.13
-17.92
-22.44
-27.91
-34.18
-40.6
-46.1
-49.34
-49.11
-44.8
-36.64
-25.71
-13.61
-1.98
7.94
15.6
21.01
24.49
26.48
27.22
26.9
25.74
24.05
22.23
20.65
19.51
18.8
18.32
17.86
17.31
16.65
15.94
15.14
14.1
12.52
10.15
6.9
2.91
-1.4
-5.56
-9.23
-12.35
-15.1
-17.93
-21.36
-25.83
-31.49
-38.01
-44.54
-49.75
-52.16
-50.63
-44.73
-35.03
-22.93
-10.22
1.48
11.18
18.62
24.03
27.86
30.4
31.75
31.91
30.97
29.22
27.13
25.18
23.7
22.81
22.37
22.19
22.04
21.72
21.07
19.89
18.03
15.43
12.16
8.43
4.51
0.63
-3.09
-6.69
-10.36
-14.4
-19.15
-24.8
-31.25
-37.9
-43.59
-46.89
-46.46
-41.62
-32.7
-20.99
-8.31
3.54
13.34
20.65
25.69
28.92
30.74
31.3
30.59
28.66
25.78
22.46
19.38
17.12
15.93
15.77
16.26
16.9
17.16
16.72
15.4
13.21
10.3
6.86
3.11
-0.76
-4.61
-8.35
-12.06
-15.94
-20.3
-25.44
-31.39
-37.72
-43.47
-47.25
-47.74
-44.06
-36.24
-25.23
-12.68
-0.4
10.15
18.21
23.7
27.01
28.67
29.11
28.58
27.25
25.28
23.0
20.78
18.95
17.71
17.05
16.79
16.66
16.4
15.81
14.76
13.16
10.99
8.3
5.22
1.89
-1.55
-5.03
-8.57
-12.35
-16.66
-21.85
-28.08
-35.16
-42.38
-48.46
-51.95
-51.61
-46.89
-38.21
-26.85
-14.52
-2.82
7.21
15.17
21.21
25.64
28.72
30.48
30.9
29.98
27.99
25.4
22.79
20.7
19.41
18.95
19.05
19.35
19.46
19.1
18.06
16.26
13.72
10.55
6.92
3.02
-0.97
-4.99
-9.1
-13.51
-18.52
-24.4
-31.16
-38.39
-45.17
-50.22
-52.21
-50.19
-43.94
-34.11
-22.08
-9.5
2.09
11.67
18.78
23.51
26.24
27.38
27.34
26.4
24.8
22.78
20.61
18.58
16.93
15.84
15.33
15.26
15.38
15.41
15.1
14.31
13.0
11.19
8.95
6.32
3.35
0.03
-3.63
-7.74
-12.47
-18.05
-24.66
-32.08
-39.62
-46.05
-49.89
-49.94
-45.65
-37.48
-26.71
-15.01
-3.97
5.39
12.68
17.99
21.65
23.87
24.79
24.45
22.98
20.68
18.05
15.65
13.89
13.01
12.91
13.26
13.59
13.48
12.64
11.0
8.73
6.08
3.29
0.44
-2.53
-5.82
-9.69
-14.34
-19.87
-26.17
-32.84
-39.12
-43.92
-46.05
-44.56
-39.14
-30.27
-19.12
-7.22
4.03
13.65
21.22
26.68
30.2
31.93
32.04
30.75
28.43
25.57
22.77
20.5
19.05
18.4
18.27
18.17
17.6
16.18
13.82
10.74
7.32
3.97
0.95
-1.74
-4.31
-7.08
-10.34
-14.36
-19.35
-25.36
-32.12
-38.95
-44.69
-47.91
-47.43
-42.75
-34.31
-23.42
-11.7
-0.62
9.01
17.01
23.59
29.0
33.26
36.15
37.41
36.92
34.87
31.69
27.97
24.3
21.1
18.54
16.56
14.94
13.38
11.63
9.62
7.41
5.14
2.9
0.66
-1.77
-4.66
-8.29
-12.83
-18.36
-24.81
-31.84
-38.76
-44.48
-47.76
-47.51
-43.25
-35.3
-24.78
-13.21
-2.03
7.74
15.71
21.87
26.38
29.37
30.85
30.86
29.55
27.33
24.74
22.37
20.62
19.67
19.32
19.19
18.82
17.8
15.96
13.35
10.23
6.94
3.75
0.77
-2.08
-4.96
-8.09
-11.62
-15.68
-20.4
-25.87
-31.94
-38.05
-43.14
-45.81
-44.77
-39.41
-30.11
-18.25
-5.69
5.8
15.09
21.8
26.18
28.67
29.68
29.43
28.08
25.83
23.05
20.26
17.98
16.58
16.17
16.55
17.33
18.04
18.25
17.68
16.18
13.78
10.64
7.02
3.23
-0.47
-3.95
-7.26
-10.61
-14.33
-18.73
-24.04
-30.16
-36.63
-42.54
-46.64
-47.67
-44.74
-37.76
-27.58
-15.73
-3.94
6.38
14.56
20.59
24.85
27.75
29.49
30.05
29.37
27.56
24.99
22.2
19.79
18.16
17.43
17.43
17.77
17.99
17.71
16.71
14.95
12.54
9.62
6.38
2.92
-0.71
-4.46
-8.38
-12.59
-17.3
-22.69
-28.74
-35.01
-40.59
-44.18
-44.54
-40.9
-33.31
-22.8
-10.94
0.55
10.38
17.9
23.13
26.47
28.37
29.13
28.9
27.75
25.84
23.51
21.18
19.29
18.12
17.68
17.73
17.85
17.57
16.52
14.57
11.81
8.52
5.05
1.67
-1.5
-4.52
-7.56
-10.82
-14.48
-18.66
-23.49
-28.99
-34.96
-40.79
-45.45
-47.66
-46.28
-40.83
-31.74
-20.33
-8.35
2.56
11.42
18.0
22.62
25.83
28.0
29.16
29.22
28.21
26.36
24.18
22.22
20.87
20.18
19.93
19.78
19.39
18.57
17.21
15.26
12.69
9.48
5.69
1.52
-2.79
-6.99
-10.99
-14.86
-18.87
-23.41
-28.78
-35.09
-41.97
-48.59
-53.69
-55.87
-54.09
-47.99
-38.18
-26.02
-13.27
-1.49
8.31
15.82
21.26
25.03
27.47
28.74
28.91
28.07
26.45
24.4
22.29
20.48
19.2
18.53
18.41
18.68
19.06
19.21
18.79
17.57
15.44
12.53
9.13
5.59
2.24
-0.79
-3.54
-6.29
-9.48
-13.59
-18.93
-25.43
-32.45
-38.74
-42.75
-43.08
-39.06
-30.98
-20.13
-8.3
2.86
12.26
19.57
24.91
28.58
30.79
31.58
30.97
29.21
26.76
24.21
22.12
20.78
20.2
20.13
20.25
20.27
19.97
19.22
17.99
16.27
14.09
11.49
8.58
5.45
2.23
-1.03
-4.4
-8.0
-12.05
-16.73
-21.96
-27.35
-32.07
-35.04
-35.24
-32.11
-25.8
-17.17
-7.56
1.65
9.44
15.29
19.21
21.38
22.05
21.33
19.35
16.29
12.56
8.66
5.13
2.33
0.4
-0.76
-1.36
-1.69
-2.01
-2.56
-3.55
-5.09
-7.15
-9.61
-12.29
-15.06
-17.91
-20.94
-24.3
-28.13
-32.52
-37.48
-42.86
-48.27
-52.91
-55.73
-55.63
-51.86
-44.39
-33.94
-21.83
-9.5
1.89
11.63
19.48
25.39
29.36
31.36
31.42
29.74
26.8
23.22
19.73
16.89
14.98
13.94
13.4
12.81
11.68
9.75
7.01
3.69
0.07
-3.6
-7.25
-10.89
-14.58
-18.37
-22.33
-26.54
-31.18
-36.39
-42.14
-47.98
-53.03
-56.11
-56.11
-52.44
-45.28
-35.59
-24.82
-14.44
-5.54
1.38
6.35
9.68
11.68
12.57
