26.2
26.61
26.1
24.77
22.95
21.12
19.75
19.13
19.26
19.86
20.49
20.69
20.11
18.58
16.12
12.89
9.16
5.21
1.28
-2.48
-6.08
-9.66
-13.46
-17.65
-22.19
-26.6
-30.06
-31.51
-30.06
-25.35
-17.74
-8.29
1.61
10.66
18.0
23.26
26.52
28.03
28.06
26.83
24.62
21.75
18.67
15.85
13.63
12.18
11.4
10.97
10.48
9.49
7.73
5.17
2.07
-1.18
-4.23
-6.95
-9.52
-12.4
-16.1
-20.99
-27.13
-34.07
-41.0
-46.73
-50.03
-49.87
-45.76
-37.93
-27.29
-15.23
-3.17
7.71
16.72
23.52
28.09
30.48
30.85
29.47
26.81
23.45
20.08
17.3
15.52
14.87
15.15
15.9
16.51
16.42
15.3
13.1
10.05
6.48
2.65
-1.3
-5.42
-9.82
-14.61
-19.88
-25.59
-31.51
-37.1
-41.51
-43.71
-42.82
-38.45
-30.9
-21.1
-10.31
0.24
9.64
17.37
23.22
27.2
29.36
29.84
28.86
26.81
24.21
21.6
19.53
18.27
17.86
17.97
18.13
17.82
16.73
14.86
12.46
9.9
7.45
5.17
2.89
0.32
-2.85
-6.84
-11.8
-17.75
-24.49
-31.48
-37.8
-42.21
-43.52
-41.0
-34.65
-25.35
-14.5
-3.67
5.89
13.49
19.02
22.7
24.86
25.72
25.41
24.0
21.7
18.91
16.19
14.16
13.21
13.34
14.19
15.1
15.47
14.98
13.69
11.93
10.01
8.12
6.16
3.92
1.16
-2.27
-6.48
-11.58
-17.63
-24.49
-31.64
-38.08
-42.48
-43.61
-40.71
-33.88
-24.06
-12.8
-1.75
7.74
14.94
19.73
22.38
23.33
22.93
21.44
19.08
16.19
13.23
10.76
9.19
8.65
8.91
9.44
9.75
9.46
8.54
7.23
5.8
4.48
3.23
1.84
0.03
-2.48
-5.79
-9.91
-14.74
-20.16
-25.9
-31.48
-36.19
-39.13
-39.47
-36.75
-31.07
-23.17
-14.15
-5.19
2.79
9.21
13.85
16.65
17.68
17.07
15.09
12.19
9.0
6.15
4.14
3.18
3.13
3.59
4.07
4.19
3.75
2.83
1.65
0.47
-0.57
-1.55
-2.74
-4.54
-7.34
-11.37
-16.66
-22.92
-29.5
-35.41
-39.45
-40.53
-37.97
-31.77
-22.66
-11.84
-0.64
9.86
18.98
26.39
31.92
35.39
36.65
35.68
32.76
28.57
24.06
20.2
17.64
16.56
16.6
17.04
17.13
16.34
14.54
11.91
8.8
5.51
2.17
-1.26
-4.93
-9.04
-13.78
-19.26
-25.41
-31.87
-37.91
-42.4
-44.14
-42.23
-36.41
-27.28
-16.1
-4.39
6.54
15.87
23.3
28.86
32.61
34.53
34.55
32.71
29.44
25.44
21.61
18.71
17.08
16.56
16.57
16.43
15.59
13.89
11.45
8.62
5.7
2.83
-0.04
-3.1
-6.53
-10.55
-15.29
-20.88
-27.3
-34.3
-41.23
-47.07
-50.5
-50.38
-46.09
-37.83
-26.65
-14.13
-1.89
8.85
17.45
23.77
27.98
30.28
30.82
29.78
27.46
24.39
21.24
18.65
17.01
16.33
16.24
16.15
15.5
13.94
11.51
8.49
5.29
2.19
-0.73
-3.68
-6.92
-10.7
-15.13
-20.17
-25.7
-31.47
-37.01
-41.54
-44.03
-43.47
-39.19
-31.25
-20.5
-8.38
3.52
14.02
22.54
29.08
33.92
37.31
39.3
39.8
38.82
36.66
33.91
31.33
29.46
28.55
28.35
28.36
28.08
27.14
25.49
23.28
20.71
17.88
14.81
11.39
7.52
3.08
-2.0
-7.79
-14.37
-21.69
-29.5
-37.15
-43.68
-47.94
-49.03
-46.56
-40.91
-33.1
-24.45
-16.22
-9.27
-3.97
-0.28
2.09
3.47
4.3
4.99
6.02
7.83
10.69
14.65
19.5
24.85
30.23
35.22
39.56
43.18
46.13
48.52
50.4
51.71
52.31
51.97
50.45
47.54
43.19
37.54
31.14
24.86
19.83
17.19
17.67
21.36
27.56
34.94
41.95
47.2
49.77
49.25
45.7
39.49
31.19
21.54
11.5
2.08
-5.79
-11.47
-14.83
-16.19
-16.19
-15.54
-14.8
-14.19
-13.64
-12.91
-11.74
-10.0
-7.73
-5.17
-2.72
-0.85
-0.0
-0.38
-1.78
-3.54
-4.6
-3.85
-0.47
5.77
14.39
24.41
34.68
44.2
52.37
58.92
63.82
67.14
69.03
69.69
69.44
68.63
67.51
66.02
63.72
59.88
53.79
45.1
34.02
21.31
8.01
-4.94
-17.07
-28.4
-39.31
-50.22
-61.48
-73.29
-85.72
-98.52
-111.0
-121.98
-130.04
-133.95
-133.15
-128.04
-120.0
-111.17
-103.93
-100.31
-101.5
-107.34
-116.37
-126.21
-134.32
-138.94
-139.71
-137.74
-134.81
-132.42
-130.77
-128.61
-123.76
-114.07
-98.26
-76.53
-50.52
-22.97
2.91
24.15
38.74
46.14
47.47
45.24
42.63
42.37
45.84
52.62
60.73
67.5
70.57
68.63
61.5
49.71
34.05
15.17
-6.17
-28.9
-51.5
-72.33
-90.14
-104.61
-116.27
-125.91
-133.82
-139.28
-140.83
-137.08
-127.68
-113.79
-97.84
-82.62
-70.27
-61.63
-56.19
-52.58
-49.1
-44.3
-37.2
-27.31
-14.66
0.29
16.76
33.76
50.3
65.52
78.86
89.98
98.69
104.92
108.7
110.16
109.55
107.22
103.57
98.96
93.71
88.07
82.3
76.63
71.23
66.19
61.45
56.84
52.09
46.95
41.19
34.64
27.37
19.78
12.67
7.12
4.21
4.58
8.25
14.46
21.99
29.58
36.3
41.72
45.8
48.63
50.22
50.51
49.39
46.97
43.65
40.0
36.6
33.78
31.52
29.53
27.45
25.02
22.32
19.56
17.01
14.77
12.69
10.4
7.4
3.29
-2.06
-8.37
-14.89
-20.48
-23.83
-23.89
-20.27
-13.41
-4.45
5.14
14.14
21.88
28.31
33.69
38.24
41.88
44.26
44.98
43.98
41.57
38.44
35.3
32.64
30.49
28.51
26.18
23.14
19.33
15.09
10.91
7.25
4.27
1.81
-0.49
-3.04
-6.14
-9.88
-14.2
-18.85
-23.39
-27.07
-28.99
-28.3
-24.57
-18.02
-9.6
-0.56
7.85
14.93
20.47
24.74
28.03
30.51
32.09
32.58
31.94
30.29
28.0
25.53
23.23
21.31
19.73
18.36
16.92
15.24
13.23
10.93
8.47
5.93
3.36
0.66
-2.33
-5.8
-9.86
-14.56
-19.85
-25.46
-30.9
-35.43
-38.22
-38.53
-36.03
-30.95
-24.09
-16.5
-9.17
-2.77
2.5
6.76
10.19
12.9
14.84
15.85
15.81
14.81
13.06
10.99
9.03
7.53
6.62
6.19
5.96
5.59
4.85
3.7
2.28
0.77
-0.65
-1.98
-3.31
-4.83
-6.68
-8.95
-11.67
-14.82
-18.27
-21.75
-24.72
-26.46
-26.25
-23.7
-18.89
-12.44
-5.33
1.52
7.46
12.39
16.51
20.13
23.36
26.04
27.87
28.58
28.19
27.0
25.48
24.03
22.83
21.78
20.62
19.06
16.98
14.47
11.71
8.96
6.39
4.08
1.96
-0.14
-2.41
-5.06
-8.22
-11.95
-16.14
-20.6
-24.88
-28.38
-30.43
-30.48
-28.37
-24.35
-19.12
-13.57
-8.44
-4.15
-0.76
1.88
3.96
5.49
6.4
6.56
5.97
4.77
3.27
1.83
0.69
-0.11
-0.67
-1.23
-2.0
-3.09
-4.41
-5.78
-7.02
-8.04
-8.94
-9.95
-11.36
-13.43
-16.23
-19.62
-23.22
-26.49
-28.81
-29.66
-28.7
-25.97
-21.79
-16.74
-11.44
-6.42
-2.05
1.52
4.27
6.19
7.25
7.42
6.77
5.49
3.94
2.49
1.41
0.75
0.34
-0.15
-0.98
-2.28
-3.96
-5.78
-7.49
-8.92
-10.11
-11.27
-12.66
-14.49
-16.86
-19.76
-23.07
-26.57
-29.87
-32.45
-33.63
-32.77
-29.53
-24.07
-17.06
-9.5
-2.43
3.43
7.8
10.84
12.85
14.14
14.79
14.75
13.98
12.51
10.62
8.65
7.02
5.95
5.47
5.37
5.3
4.97
4.16
2.88
1.24
-0.59
-2.49
-4.43
-6.48
-8.72
-11.28
-14.23
-17.63
-21.55
-25.9
-30.47
-34.74
-38.0
-39.48
-38.67
-35.47
-30.31
-23.99
-17.39
-11.24
-5.98
-1.69
1.7
4.34
6.39
7.89
8.9
9.46
9.6
9.36
8.81
8.08
7.29
6.54
5.91
5.36
4.79
4.07
3.12
1.93
0.53
-1.0
-2.61
-4.32
-6.22
-8.42
-11.0
-14.03
-17.48
-21.34
-25.53
-29.88
-34.0
-37.2
-38.65
-37.63
-33.83
-27.55
-19.7
-11.46
-3.88
2.41
7.3
11.02
13.92
16.19
17.86
18.86
19.17
18.97
18.54
18.14
17.92
17.82
17.65
17.25
16.53
15.54
14.42
13.22
11.87
10.19
8.0
5.23
1.99
-1.47
-4.82
-7.86
-10.59
-13.15
-15.83
-18.96
-22.78
-27.29
-32.13
-36.58
-39.65
-40.37
-38.11
-32.88
-25.38
-16.75
-8.22
-0.69
5.46
10.3
14.08
17.05
19.28
20.72
21.36
21.33
20.9
20.42
20.12
20.06
20.11
20.06
19.8
19.29
18.61
17.8
16.79
15.42
13.47
10.87
7.71
4.27
0.89
-2.22
-5.06
-7.82
-10.86
-14.51
-19.04
-24.52
-30.71
-36.99
-42.41
-45.8
-46.1
-42.76
-35.95
-26.6
-16.09
-5.81
3.25
10.66
16.4
20.71
23.75
25.63
26.42
26.29
25.53
24.46
23.36
22.39
21.61
21.0
20.59
20.39
20.4
20.49
20.44
19.95
18.8
16.88
14.24
11.07
7.62
4.11
0.71
-2.57
-5.84
-9.33
-13.4
-18.38
-24.35
-31.04
-37.69
-43.12
-46.03
-45.4
-40.88
-32.98
-22.85
-12.0
-1.77
7.02
14.11
19.66
23.9
26.97
28.88
29.61
29.33
28.39
27.29
26.44
26.02
25.91
25.8
25.4
24.57
23.41
22.1
20.81
19.5
17.95
15.9
13.2
9.91
6.3
2.66
-0.78
-4.0
-7.16
-10.56
-14.44
-19.05
-24.48
-30.61
-36.98
-42.68
-46.5
-47.21
-44.05
-37.08
-27.24
-16.05
-5.07
4.59
12.49
18.69
23.49
27.1
29.52
30.73
30.8
30.02
28.75
27.31
25.86
24.37
22.81
21.21
19.71
18.45
17.5
16.7
15.77
14.38
12.36
9.69
6.58
3.31
0.18
-2.63
-5.11
-7.44
-10.0
-13.3
-17.79
-23.67
-30.59
-37.62
-43.35
-46.33
-45.52
-40.73
-32.64
-22.61
-12.14
-2.43
5.87
12.62
18.04
22.35
25.64
27.89
29.02
29.1
28.36
27.2
26.07
25.27
24.88
24.73
24.56
24.1
23.2
21.84
20.03
17.76
14.99
11.68
7.9
3.89
-0.05
-3.65
-6.8
-9.67
-12.62
-16.14
-20.63
-26.18
-32.37
-38.23
-42.42
-43.58
-40.88
-34.3
-24.79
-13.92
-3.35
5.72
12.77
17.95
21.73
24.55
26.55
27.64
27.63
26.49
24.44
21.9
19.34
17.1
15.26
13.69
12.16
10.48
8.58
6.53
4.47
2.53
0.76
-0.9
-2.59
-4.52
-6.92
-9.99
-13.93
-18.87
-24.75
-31.19
-37.45
-42.4
-44.82
-43.78
-39.0
-31.02
-21.07
-10.61
-0.9
7.34
13.94
19.0
22.63
24.8
25.45
24.6
22.61
20.11
17.86
16.4
15.86
15.96
16.08
15.59
14.09
11.55
8.31
4.85
1.55
-1.48
-4.41
-7.54
-11.2
-15.57
-20.67
-26.31
-32.06
-37.23
-40.95
-42.27
-40.52
-35.56
-27.92
-18.66
-9.02
-0.02
7.76
14.15
19.18
22.85
25.09
25.82
25.1
23.32
21.07
18.98
17.44
16.44
15.66
14.6
12.87
10.41
7.47
4.47
1.8
-0.44
-2.52
-4.91
-8.15
-12.65
-18.52
-25.54
-33.12
-40.28
-45.85
-48.6
-47.67
-42.82
-34.57
-24.1
-12.84
-2.08
7.41
15.34
21.75
26.65
29.95
31.47
31.21
29.45
26.79
23.96
21.48
19.54
17.93
16.22
14.05
11.28
8.09
4.78
1.63
-1.24
-3.98
-6.91
-10.41
-14.83
-20.36
-26.98
-34.31
-41.59
-47.66
-51.24
-51.25
-47.24
-39.57
-29.28
-17.81
-6.43
4.02
13.19
21.05
27.55
32.47
35.48
36.37
35.3
32.82
29.74
26.87
24.63
23.0
21.58
19.83
17.39
14.24
10.66
7.09
3.89
1.16
-1.31
-4.0
-7.5
-12.32
-18.67
-26.28
-34.34
-41.5
-46.22
-47.15
-43.64
-35.86
-24.92
-12.36
0.24
11.74
21.58
29.66
36.12
40.96
44.09
45.36
44.76
42.63
39.56
36.27
33.34
31.03
29.18
27.4
25.27
22.56
19.36
16.05
13.04
10.57
8.49
6.33
3.47
-0.61
-6.13
-12.93
-20.51
-28.1
-34.73
-39.32
-40.9
-38.86
-33.22
-24.7
-14.55
-4.14
5.39
13.43
19.84
24.77
28.33
30.45
31.02
30.06
27.92
25.24
22.79
21.12
20.26
19.74
18.85
17.02
14.13
10.53
6.92
3.8
1.33
-0.87
-3.45
-7.07
-12.05
-18.34
-25.48
-32.62
-38.73
-42.63
-43.33
-40.28
-33.59
-24.11
-13.19
-2.24
7.68
16.06
22.82
28.05
31.74
33.75
33.95
32.48
29.87
26.97
24.55
23.02
22.22
21.55
20.26
17.9
14.48
10.44
6.4
2.82
-0.19
-2.9
-5.79
-9.37
-14.02
-19.87
-26.75
-34.07
-40.8
-45.6
-47.1
-44.43
-37.61
-27.58
-16.01
-4.57
5.53
13.87
20.67
26.33
31.07
34.74
36.92
37.36
36.13
33.73
30.87
28.2
26.07
24.47
23.09
21.6
19.69
17.27
14.46
11.48
8.56
5.84
3.28
0.68
-2.28
-5.95
-10.63
-16.42
-23.23
-30.63
-37.83
-43.72
-47.1
-47.0
-43.04
-35.58
-25.68
-14.74
-4.1
5.4
13.46
20.21
25.88
30.56
34.12
36.31
36.96
36.22
34.46
32.21
29.93
27.86
25.95
23.97
21.65
18.88
15.73
12.44
9.27
6.36
3.73
1.25
-1.29
-4.06
-7.23
-10.98
-15.44
-20.79
-27.03
-33.82
-40.38
-45.48
-47.78
-46.27
-40.75
-31.91
-21.16
-10.16
-0.19
8.12
14.8
20.24
24.79
28.57
31.47
33.32
34.05
33.8
32.83
31.44
29.83
28.19
26.63
25.21
23.91
22.57
20.94
18.78
15.92
12.41
8.52
4.61
1.03
-2.03
-4.67
-7.18
-10.01
-13.62
-18.38
-24.35
-31.12
-37.77
-42.95
-45.27
-43.76
-38.28
-29.62
-19.24
-8.83
0.28
7.44
12.66
16.36
19.02
20.89
22.05
22.39
21.81
20.33
18.15
15.62
13.19
11.25
10.01
9.39
9.05
8.54
7.51
5.87
3.86
1.84
0.1
-1.34
-2.73
-4.45
-6.8
-9.91
-13.76
-18.29
-23.36
-28.74
-33.85
-37.79
-39.45
-37.91
-32.87
-24.93
-15.38
-5.82
2.43
8.74
13.19
16.35
18.8
20.85
22.42
23.19
22.91
21.56
19.48
17.19
15.18
13.73
12.82
12.13
11.3
9.99
8.11
5.75
3.18
0.67
-1.61
-3.72
-5.87
-8.38
-11.56
-15.65
-20.75
-26.78
-33.37
-39.76
-44.86
-47.47
-46.64
-42.09
-34.32
-24.56
-14.25
-4.66
3.46
9.98
15.14
19.24
22.49
24.89
26.39
26.94
26.62
25.59
24.09
22.38
20.71
19.27
18.08
17.04
15.87
14.24
11.93
8.89
5.25
1.29
-2.72
-6.54
-10.07
-13.35
-16.53
-19.89
-23.71
-28.21
-33.42
-38.99
-44.14
-47.82
-48.86
-46.43
-40.33
-31.14
-20.12
-8.81
1.39
9.62
15.6
19.59
22.08
23.53
24.26
24.47
24.24
23.64
22.72
21.52
20.1
18.5
16.84
15.29
13.98
12.92
11.97
10.86
9.33
7.22
4.57
1.53
-1.67
-4.86
-7.92
-10.83
-13.68
-16.61
-19.91
-23.86
-28.64
-33.99
-39.14
-42.87
-43.83
-41.12
-34.65
-25.31
-14.57
-4.08
4.97
12.08
17.38
21.34
24.37
26.67
28.16
28.69
28.19
26.76
24.67
22.24
19.73
17.26
14.89
12.58
10.33
8.16
6.07
3.99
1.82
-0.6
-3.35
-6.36
-9.46
-12.4
-15.04
-17.39
-19.67
-22.22
-25.39
-29.42
-34.28
-39.53
-44.29
-47.35
-47.51
-43.91
-36.47
-25.95
-13.77
-1.61
9.18
17.84
24.33
28.97
32.21
34.33
35.4
35.41
34.44
32.75
30.73
28.76
27.14
25.99
25.25
24.73
24.27
23.71
22.98
22.06
21.0
19.81
18.41
16.68
14.48
11.73
8.49
4.92
1.13
-2.95
-7.51
-12.8
-18.78
-24.98
-30.35
-33.65
-33.75
-30.11
-22.95
-13.18
-2.0
9.46
20.45
30.65
39.94
48.23
55.3
60.82
64.53
66.38
66.67
65.88
64.55
63.13
61.92
61.05
60.57
60.48
60.7
61.08
61.4
61.4
60.87
59.7
57.96
55.9
53.92
52.48
51.89
52.06
52.45
52.09
49.99
45.62
39.28
32.12
25.76
21.59
20.18
20.82
21.68
20.11
13.18
-1.66
-25.98
-59.83
-101.28
-146.48
-190.22
-226.89
-251.75
-261.95
-257.01
-238.82
-211.15
-178.77
-146.47
-118.01
-95.43
-78.72
-66.24
-55.87
-45.9
-35.85
-26.19
-17.54
-9.93
-2.52
5.88
15.85
26.8
37.32
46.0
52.55
58.04
64.19
72.05
80.99
88.74
92.49
90.57
83.37
73.24
63.13
54.99
48.81
42.81
34.51
22.24
6.08
-12.16
-29.73
-44.08
-53.72
-58.54
-59.5
-57.99
-55.45
-53.19
-52.52
-54.92
-61.65
-72.93
-86.92
-99.7
-106.76
-105.55
-97.34
-87.18
-81.45
-84.41
-95.76
-110.84
-123.27
-128.2
-124.31
-113.4
-98.26
-80.54
-60.05
-35.85
-7.87
22.07
50.84
75.62
95.35
111.09
125.23
140.24
157.15
175.09
191.61
203.76
209.45
208.35
202.1
193.61
185.95
181.17
179.78
180.97
183.35
185.77
187.73
189.26
190.36
190.65
189.4
186.01
180.67
174.66
170.01
168.62
171.43
178.06
186.86
195.61
202.13
204.66
202.02
193.63
179.6
160.76
138.71
115.56
93.36
73.62
56.99
43.34
32.06
22.47
14.09
6.58
-0.27
-6.75
-13.18
-19.89
-27.29
-35.9
-46.56
-60.27
-77.87
-99.43
-123.76
-148.38
-170.13
-186.16
-194.87
-196.47
-192.68
-186.03
-178.92
-173.0
-169.04
-167.07
-166.7
-167.34
-168.31
-168.88
-168.39
-166.42
-162.92
-158.26
-153.15
-148.46
-144.96
-143.06
-142.65
-143.16
-143.73
-143.58
-142.26
-139.9
-137.05
-134.5
-132.9
-132.65
-133.81
-136.3
-139.95
-144.62
-150.08
-155.87
-161.26
-165.19
-166.53
-164.28
-157.83
-147.2
-132.96
-116.18
-98.18
-80.29
-63.5
-48.42
-35.17
-23.49
-13.03
-3.59
4.7
11.43
16.09
18.41
18.53
17.08
14.97
13.1
12.07
12.02
12.68
13.46
13.76
13.03
11.05
7.99
4.54
1.88
1.45
4.61
12.12
23.91
38.83
54.98
70.13
82.26
90.0
92.76
90.74
84.65
75.42
64.04
51.33
37.83
23.81
9.35
-5.49
-20.49
-35.18
-48.83
-60.62
-69.87
-76.29
-80.1
-81.99
-82.97
-84.12
-86.27
-89.72
-94.1
-98.26
-100.56
-99.26
-93.04
-81.57
-65.68
-47.18
-28.43
-11.67
1.47
10.18
14.56
15.38
13.91
11.66
10.17
10.62
13.62
19.02
25.99
33.35
39.85
44.58
46.97
46.84
44.2
39.16
31.9
22.71
11.97
0.32
-11.38
-22.02
-30.33
-35.05
-35.28
-30.76
-22.06
-10.59
1.68
12.59
20.34
23.85
22.99
18.5
11.69
3.94
-3.66
-10.62
-17.02
-23.28
-29.75
-36.45
-42.95
-48.56
-52.65
-54.9
-55.47
-54.83
-53.66
-52.66
-52.44
-53.45
-55.85
-59.34
-62.95
-65.2
-64.42
-59.37
-49.71
-36.24
-20.69
-5.12
8.59
19.2
26.19
29.67
30.19
28.53
25.55
22.06
18.64
15.56
12.83
10.23
7.54
4.73
1.93
-0.5
-2.27
-3.29
-3.8
-4.4
-5.92
-9.28
-15.2
-23.9
-34.82
-46.46
-56.63
-62.94
-63.56
-57.79
-46.29
-30.81
-13.52
3.6
19.28
32.87
44.1
52.83
58.86
62.09
62.72
61.38
58.95
56.32
54.06
52.2
50.44
48.33
45.58
42.32
38.9
35.77
33.21
31.1
29.04
26.36
22.36
16.51
8.65
-0.77
-10.52
-18.8
-23.6
-23.34
-17.46
-6.57
7.66
23.2
38.26
51.71
63.09
72.39
79.62
84.66
87.34
87.63
85.83
82.61
78.83
75.32
72.56
70.64
69.24
67.79
65.78
63.0
59.52
55.67
51.79
48.0
44.14
39.84
34.69
28.44
21.04
12.61
3.45
-5.88
-14.47
-21.08
-24.41
-23.45
-17.99
-8.68
3.09
15.68
27.77
38.55
47.75
55.33
61.21
65.12
66.83
66.32
63.97
60.56
56.95
53.86
51.58
49.98
48.6
46.86
44.37
41.06
37.2
33.22
29.54
26.36
23.6
20.87
17.66
13.53
8.17
1.61
-5.75
-13.15
-19.5
-23.55
-24.17
-20.74
-13.34
-2.83
9.4
21.83
33.26
42.93
50.61
56.36
60.25
62.28
62.38
60.62
57.34
53.18
48.88
45.08
42.11
39.95
38.3
36.7
34.75
32.23
29.11
25.51
21.67
17.76
13.89
10.0
5.94
1.56
-3.32
-8.81
-14.97
-21.67
-28.52
-34.74
-39.25
-40.92
-38.92
-33.08
-24.02
-12.94
-1.22
9.95
19.83
28.15
34.87
40.01
43.47
45.15
45.07
43.43
40.7
37.49
34.37
31.7
29.63
28.11
27.03
26.3
25.82
25.41
24.81
23.62
21.48
18.19
13.82
8.71
3.41
-1.61
-6.03
-9.85
-13.4
-17.22
-21.88
-27.69
-34.54
-41.8
-48.32
-52.75
-53.86
-51.04
-44.37
-34.76
-23.53
-12.04
-1.34
8.05
16.0
22.6
27.83
31.58
33.68
34.09
33.02
30.96
28.5
26.17
24.25
22.75
21.51
20.32
19.06
17.73
16.43
15.27
14.25
13.21
11.84
9.78
6.79
2.89
-1.65
-6.31
-10.56
-14.07
-16.77
-18.98
-21.26
-24.18
-28.2
-33.44
-39.67
-46.23
-52.19
-56.46
-58.0
-56.17
-50.81
-42.45
-32.07
-20.92
-10.14
-0.55
7.51
14.02
19.07
22.79
25.16
26.2
26.05
25.01
23.56
22.13
21.0
20.17
19.52
18.85
18.11
17.35
16.7
16.21
15.78
15.15
14.03
12.17
9.48
6.03
2.03
-2.23
-6.43
-10.31
-13.75
-16.82
-19.74
-22.93
-26.79
-31.57
-37.25
-43.41
-49.26
-53.77
-55.93
-54.98
-50.7
-43.47
-34.17
-23.98
-13.96
-4.89
2.86
9.23
14.28
18.04
20.47
21.59
21.49
20.52
19.09
17.63
16.36
15.3
14.35
13.36
12.34
11.38
10.56
9.83
8.91
7.41
5.01
1.68
-2.33
-6.55
-10.56
-14.1
-17.18
-20.05
-23.04
-26.52
-30.8
-36.03
-42.03
-48.16
-53.33
-56.22
-55.69
-51.29
-43.45
-33.34
-22.5
-12.26
-3.42
3.82
9.6
14.17
17.67
20.13
21.52
21.95
21.64
20.92
20.06
19.25
18.53
17.82
16.97
15.86
14.46
12.88
11.29
9.86
8.64
7.52
6.21
4.37
1.75
-1.68
-5.75
-10.1
-14.41
-18.43
-22.17
-25.8
-29.6
-33.95
-39.15
-45.37
-52.46
-59.82
-66.39
-70.84
-71.9
-68.79
-61.49
-50.79
-38.0
-24.57
-11.73
-0.3
9.35
17.09
22.98
27.12
29.7
30.96
31.2
30.81
30.15
29.55
29.23
29.26
29.57
30.01
30.4
30.59
30.52
30.17
29.53
28.53
27.06
25.01
22.28
18.84
14.76
10.12
5.09
-0.14
-5.38
-10.44
-15.25
-19.82
-24.32
-29.08
-34.51
-41.01
-48.73
-57.42
-66.23
