16.79
14.04
10.64
6.69
2.27
-2.65
-8.21
-14.7
-22.44
-31.48
-41.37
-50.9
-58.24
-61.36
-58.72
-49.87
-35.7
-18.21
0.14
17.19
31.56
42.73
50.79
56.11
59.09
60.07
59.39
57.47
54.8
51.8
48.79
45.98
43.45
41.35
39.84
39.04
38.87
39.02
38.95
38.06
35.92
32.36
27.53
21.76
15.43
8.85
2.21
-4.48
-11.37
-18.78
-27.05
-36.3
-46.11
-55.32
-62.09
-64.4
-60.79
-50.94
-35.97
-18.08
0.11
16.39
29.47
39.01
45.38
49.19
51.01
51.27
50.35
48.65
46.63
44.7
43.15
42.01
41.18
40.47
39.72
38.83
37.74
36.3
34.33
31.56
27.79
22.97
17.27
11.03
4.72
-1.32
-6.89
-12.15
-17.51
-23.59
-30.9
-39.53
-48.89
-57.6
-63.72
-65.31
-61.05
-50.81
-35.73
-17.91
0.28
16.85
30.6
41.12
48.56
53.23
55.43
55.48
53.83
51.04
47.84
44.84
42.43
40.69
39.44
38.41
37.41
36.41
35.41
34.37
33.11
31.22
28.22
23.78
17.89
10.87
3.33
-4.07
-10.84
-16.79
-22.04
-27.0
-32.19
-38.07
-44.77
-51.91
-58.46
-62.88
-63.47
-59.0
-49.2
-34.95
-18.14
-1.01
14.51
27.28
37.02
44.12
49.1
52.35
54.03
54.14
52.83
50.49
47.73
45.15
43.16
41.88
41.2
40.95
41.05
41.52
42.35
43.38
44.14
43.97
42.17
38.28
32.16
23.94
13.79
1.86
-11.79
-27.0
-43.32
-59.9
-75.47
-88.52
-97.38
-100.5
-96.73
-85.63
-67.83
-45.08
-20.04
4.29
25.27
41.2
51.45
56.25
56.3
52.28
44.72
34.1
21.06
6.66
-7.66
-20.28
-29.77
-35.33
-37.05
-35.8
-32.97
-29.91
-27.49
-25.89
-24.75
-23.53
-21.78
-19.53
-17.26
-15.79
-16.14
-19.18
-25.31
-34.23
-44.8
-55.11
-62.91
-66.23
-63.94
-56.21
-44.36
-30.49
-16.73
-4.7
4.72
11.39
15.53
17.42
17.29
15.34
11.9
7.63
3.36
-0.04
-2.07
-2.71
-2.51
-2.29
-2.8
-4.36
-6.8
-9.62
-12.32
-14.66
-16.84
-19.34
-22.71
-27.33
-33.37
-40.72
-49.05
-57.72
-65.69
-71.55
-73.7
-70.83
-62.47
-49.26
-32.85
-15.42
0.97
14.96
26.02
34.28
40.05
43.55
44.77
43.68
40.53
36.01
31.13
26.9
23.97
22.38
21.62
20.85
19.35
16.78
13.26
9.27
5.3
1.6
-1.97
-5.84
-10.51
-16.39
-23.63
-32.17
-41.69
-51.57
-60.82
-68.02
-71.49
-69.79
-62.21
-49.19
-32.38
-14.09
3.4
18.52
30.64
39.83
46.48
50.76
52.6
51.89
48.74
43.77
37.98
32.47
28.07
25.05
23.14
21.76
20.33
18.45
16.06
13.32
10.44
7.55
4.64
1.59
-1.85
-5.93
-10.88
-16.96
-24.39
-33.21
-43.09
-53.07
-61.62
-66.87
-67.11
-61.44
-50.13
-34.61
-17.08
0.19
15.42
27.68
36.81
43.09
46.96
48.79
48.88
47.6
45.39
42.81
40.31
38.18
36.52
35.28
34.36
33.69
33.16
32.57
31.6
29.89
27.13
23.25
18.38
12.83
6.89
0.73
-5.68
-12.58
-20.32
-29.24
-39.5
-50.81
-62.29
-72.38
-79.11
-80.61
-75.84
-64.96
-49.46
-31.67
-14.04
1.57
14.21
23.77
30.56
34.88
36.83
36.41
33.77
29.4
24.15
19.06
15.07
12.76
12.24
13.1
14.63
16.05
16.74
16.42
15.12
13.1
10.65
7.89
4.79
1.22
-2.99
-7.94
-13.73
-20.42
-27.91
-35.74
-42.88
-47.8
-48.83
-44.78
-35.42
-21.72
-5.58
10.83
25.66
37.89
47.28
54.04
58.44
60.53
60.25
57.65
53.15
47.62
42.19
37.88
35.17
33.93
33.51
33.03
31.77
29.4
26.03
22.05
17.86
13.72
9.64
5.42
0.73
-4.72
-11.2
-18.78
-27.32
-36.34
-44.92
-51.74
-55.29
-54.26
-47.99
-36.85
-22.26
-6.34
8.65
20.99
29.85
35.34
38.18
39.28
39.25
38.35
36.61
34.12
31.16
28.25
25.91
24.45
23.8
23.58
23.25
22.39
20.76
18.36
15.29
11.73
7.82
3.71
-0.52
-4.88
-9.43
-14.33
-19.77
-25.97
-33.04
-40.83
-48.72
-55.59
-59.94
-60.24
-55.53
-45.8
-32.15
-16.56
-1.18
12.23
22.76
30.28
35.21
38.11
39.43
39.47
38.52
36.95
35.22
33.72
32.73
32.28
32.17
32.17
32.07
31.73
31.06
29.99
28.37
26.01
22.8
18.81
14.31
9.71
5.4
1.58
-1.82
-5.16
-8.89
-13.42
-18.96
-25.31
-31.85
-37.51
-41.01
-41.18
-37.37
-29.71
-19.16
-7.27
4.31
14.24
21.79
26.83
29.61
30.61
30.24
28.85
26.67
23.9
20.74
17.41
14.2
11.37
9.1
7.45
6.32
5.53
4.87
4.08
2.93
1.15
-1.42
-4.8
-8.76
-12.87
-16.65
-19.74
-22.15
-24.31
-26.89
-30.55
-35.67
-41.97
-48.49
-53.72
-55.98
-53.91
-47.03
-35.87
-21.92
-7.14
6.59
17.95
26.34
31.82
34.74
35.57
34.66
32.34
28.99
25.1
21.26
18.0
15.68
14.37
13.84
13.65
13.29
12.36
10.67
8.23
5.17
1.71
-2.03
-6.01
-10.28
-14.92
-20.0
-25.59
-31.75
-38.49
-45.62
-52.61
-58.45
-61.85
-61.55
-56.8
-47.76
-35.52
-21.79
-8.37
3.32
12.54
19.16
23.41
25.6
26.0
24.88
22.56
19.48
16.2
13.25
11.03
9.68
9.06
8.86
8.65
8.07
6.84
4.84
2.09
-1.33
-5.25
-9.42
-13.58
-17.46
-20.91
-23.92
-26.73
-29.78
-33.6
-38.58
-44.65
-51.13
-56.74
-59.89
-59.13
-53.75
-44.05
-31.3
-17.34
-3.99
7.45
16.4
22.89
27.31
30.07
31.44
31.56
30.58
28.75
26.47
24.16
22.14
20.58
19.43
18.56
17.79
16.97
16.01
14.79
13.15
10.98
8.21
4.89
1.16
-2.8
-6.85
-11.01
-15.4
-20.32
-26.1
-32.98
-40.94
-49.53
-57.7
-64.01
-66.84
-65.0
-58.09
-46.84
-32.89
-18.33
-5.04
5.81
13.88
19.49
23.26
25.8
27.52
28.64
29.29
29.61
29.76
29.91
30.1
30.3
30.38
30.2
29.62
28.58
27.01
24.88
22.14
18.74
14.72
10.21
5.4
0.54
-4.19
-8.76
-13.29
-18.07
-23.46
-29.69
-36.66
-43.77
-49.87
-53.48
-53.23
-48.29
-38.77
-25.76
-11.03
3.44
16.05
25.87
32.69
36.81
38.69
38.8
37.51
35.22
32.37
29.47
27.04
25.41
24.63
24.54
24.82
25.14
25.29
25.12
24.47
23.19
21.11
18.12
14.25
9.7
4.75
-0.31
-5.33
-10.35
-15.65
-21.6
-28.55
-36.55
-45.08
-52.97
-58.59
-60.29
-56.95
-48.48
-35.95
-21.25
-6.57
6.31
16.34
23.28
27.46
29.36
29.42
27.84
24.84
20.71
16.0
11.46
7.93
6.08
6.12
7.78
10.26
12.58
13.84
13.54
11.67
8.58
4.74
0.47
-4.11
-9.06
-14.48
-20.37
-26.64
-33.24
-40.08
-46.96
-53.35
-58.32
-60.58
-58.86
-52.45
-41.55
-27.39
-11.91
2.86
15.29
24.58
30.66
33.91
34.85
33.88
31.34
27.57
23.14
18.75
15.13
12.78
11.75
11.64
11.75
11.36
9.99
7.57
4.34
0.75
-2.8
-6.25
-9.75
-13.7
-18.51
-24.46
-31.62
-39.82
-48.67
-57.39
-64.85
-69.62
-70.35
-66.13
-57.0
-44.0
-28.89
-13.73
-0.23
10.6
18.5
23.76
26.84
28.17
28.0
26.49
23.91
20.66
17.35
14.63
12.96
12.45
12.78
13.27
13.24
12.22
10.13
7.27
4.08
0.91
-2.2
-5.48
-9.29
-13.94
-19.6
-26.29
-33.86
-42.06
-50.28
-57.53
-62.4
-63.41
-59.49
-50.51
-37.44
-22.08
-6.6
7.23
18.41
26.77
32.71
36.77
39.27
40.28
39.72
37.62
34.28
30.28
26.37
23.23
21.25
20.4
20.31
20.4
20.13
19.17
17.49
15.25
12.68
9.93
6.95
3.64
-0.15
-4.46
-9.28
-14.62
-20.52
-26.9
-33.28
-38.65
-41.51
-40.41
-34.48
-23.91
-9.98
5.35
20.06
32.72
42.66
49.89
54.72
57.46
58.28
57.28
54.65
50.81
46.36
42.03
38.45
36.0
34.68
34.19
33.98
33.44
32.09
29.73
26.38
22.24
17.54
12.45
7.07
1.48
-4.21
-9.89
-15.57
-21.48
-27.98
-35.34
-43.34
-51.0
-56.67
-58.55
-55.33
-46.81
-34.0
-18.84
-3.52
10.18
21.24
29.39
34.84
37.94
39.05
38.45
36.45
33.45
29.94
26.45
23.46
21.3
20.06
19.68
19.89
20.33
20.63
20.41
19.41
17.44
14.49
10.64
6.11
1.16
-3.91
-8.84
-13.53
-18.1
-22.92
-28.51
-35.26
-42.99
-50.81
-57.04
-59.77
-57.47
-49.69
-37.27
-22.09
-6.43
7.76
19.38
28.19
34.57
39.09
42.22
44.21
45.14
45.09
44.19
42.66
40.81
38.9
37.16
35.61
34.11
32.43
30.32
27.7
24.66
21.44
18.3
15.36
12.53
9.63
6.5
3.12
-0.42
-4.02
-7.68
-11.53
-15.56
-19.33
-21.89
-21.92
-18.31
-10.76
-0.1
11.89
23.05
31.72
37.09
39.27
38.75
36.01
31.24
24.5
16.15
7.08
-1.42
-8.0
-11.81
-12.77
-11.58
-9.31
-7.03
-5.34
-4.39
-3.9
-3.52
-2.99
-2.37
-1.96
-2.21
-3.49
-6.05
-9.94
-15.12
-21.47
-28.74
-36.35
-43.34
-48.31
-49.79
-46.69
-38.83
-27.08
-13.18
0.85
13.23
22.92
29.63
33.58
35.22
34.96
33.1
30.0
26.09
21.95
18.25
15.6
14.31
14.34
15.25
16.32
16.81
16.2
14.33
11.39
7.77
3.78
-0.43
-4.94
-9.9
-15.48
-21.73
-28.71
-36.43
-44.82
-53.49
-61.52
-67.53
-69.95
-67.52
-59.91
-47.88
-33.11
-17.73
-3.59
8.12
17.04
23.32
27.34
29.45
29.86
28.81
26.59
23.67
20.57
17.73
15.42
13.77
12.75
12.31
12.31
12.61
12.93
12.93
12.27
10.77
8.43
5.46
2.29
-0.64
-3.01
-4.77
-6.26
-8.15
-11.22
-15.9
-21.93
-28.07
-32.3
-32.43
-26.88
-15.36
0.86
19.32
37.17
52.07
62.84
69.73
74.12
77.93
83.01
90.69
101.4
114.65
128.9
141.96
151.46
155.82
154.95
150.5
145.31
142.35
143.5
148.91
157.21
166.28
174.27
180.18
183.83
185.56
185.86
185.28
184.49
184.28
185.21
187.18
189.21
189.56
186.32
178.09
164.51
146.33
125.15
102.85
81.04
60.85
42.75
26.67
12.13
-1.68
-15.85
-31.53
-49.67
-70.46
-93.02
-115.22
-134.03
-146.41
-150.04
-144.01
-129.11
-107.62
-82.97
-59.23
-40.45
-30.05
-30.16
-41.32
-62.45
-91.18
-124.38
-158.66
-190.86
-218.39
-239.54
-253.89
-262.42
-267.27
-271.09
-276.05
-283.09
-291.74
-300.38
-307.03
-310.01
-308.16
-300.98
-288.43
-270.95
-249.51
-225.67
-201.4
-178.6
-158.57
-141.58
-126.88
-113.08
-98.7
-82.83
-65.51
-47.98
-32.39
-21.23
-16.52
-18.96
-27.43
-39.05
-49.92
-56.19
-55.19
-46.01
-29.61
-8.29
15.26
38.85
61.58
83.97
107.54
133.83
163.48
195.8
229.12
261.66
292.38
321.18
348.33
373.52
395.21
410.74
417.26
413.05
398.31
375.3
347.41
317.92
288.88
260.74
232.6
203.07
171.28
137.34
102.23
67.38
34.0
2.87
-25.74
-52.02
-76.65
-100.98
-126.91
-156.28
-189.65
-225.35
-259.29
-286.16
-301.44
-303.48
-294.17
-278.09
-260.31
-244.37
-231.22
-219.82
-208.55
-196.77
-185.32
-176.14
-171.17
-171.43
-176.63
-185.49
-196.3
-207.47
-217.78
-226.36
-232.71
-236.55
-237.8
-236.46
-232.32
-224.83
-213.01
-195.77
-172.18
-141.93
-105.49
-64.13
-19.84
24.85
67.28
104.92
135.86
159.13
174.73
183.62
187.16
186.82
183.95
179.84
175.78
172.88
171.73
171.77
171.16
167.06
156.61
138.08
111.79
80.21
47.04
15.91
-10.9
-33.03
-51.52
-67.97
-83.52
-98.49
-112.76
-126.48
-140.5
-156.24
-174.82
-196.12
-218.34
-238.49
-253.49
-261.31
-261.66
-255.93
-246.64
-236.68
-228.81
-225.08
-226.56
-232.95
-242.3
-251.22
-255.59
-251.73
-237.56
-213.23
-180.93
-144.03
-106.08
-70.03
-37.87
-10.64
11.37
28.38
40.87
49.34
54.1
55.21
52.72
46.87
38.3
28.04
17.08
6.02
-5.19
-17.02
-29.91
-43.63
-57.3
-69.65
-79.69
-87.15
-92.63
-97.23
-101.99
-107.48
-113.62
-119.78
-124.87
-127.67
-126.96
-121.76
-111.54
-96.32
-76.77
-53.99
-29.39
-4.47
19.32
40.76
58.96
73.46
84.38
92.31
98.06
102.45
106.02
108.9
110.94
111.86
111.43
109.58
106.46
102.35
97.65
92.79
88.19
84.09
80.57
77.42
74.28
70.67
66.15
60.34
52.97
43.93
33.34
21.72
10.11
0.04
-6.67
-8.49
-4.65
4.56
17.89
33.49
49.64
65.07
79.21
91.94
103.17
112.67
119.95
124.59
126.49
126.1
124.28
122.05
120.25
119.34
119.3
119.83
120.51
120.92
120.8
119.95
118.22
115.45
111.36
105.64
97.95
88.07
76.05
62.23
47.16
31.45
15.58
-0.05
-14.92
-28.22
-38.72
-44.94
-45.68
-40.44
-29.77
-15.17
1.37
17.93
33.2
46.58
58.02
67.69
75.61
81.68
85.68
87.61
87.81
86.92
85.76
84.95
84.72
84.88
84.94
84.37
82.85
80.33
77.03
73.24
69.22
65.05
60.73
56.22
51.49
46.52
41.27
35.57
29.13
21.68
13.18
4.05
-4.76
-11.85
-15.69
-15.13
-9.78
-0.16
12.44
26.31
39.85
51.93
61.96
69.86
75.66
79.43
81.11
80.73
78.5
74.97
70.97
67.34
64.65
62.96
61.91
60.89
59.34
56.98
53.84
50.12
45.97
41.46
36.58
31.32
25.78
20.11
14.37
8.46
2.06
-5.16
-13.17
-21.41
-28.72
-33.64
-34.9
-31.9
-24.92
-15.08
-3.84
7.38
17.6
26.33
33.41
38.74
42.21
43.71
43.27
41.2
38.08
34.68
31.71
29.74
29.01
29.4
30.6
32.06
33.31
33.95
33.87
33.14
31.97
30.61
29.2
27.72
26.0
23.74
20.57
16.09
10.1
2.8
-5.08
-12.25
-17.19
-18.6
-15.87
-9.32
-0.09
10.25
20.21
28.77
35.48
40.23
43.12
44.26
43.8
42.0
39.32
36.43
33.97
32.45
32.05
32.63
33.84
35.32
36.87
38.43
40.15
42.14
44.36
46.59
48.42
49.51
49.62
48.76
47.04
44.61
41.64
38.4
35.45
33.71
34.24
37.87
44.8
54.46
65.65
76.99
87.31
95.89
102.42
106.89
109.35
109.99
108.98
106.52
102.66
97.32
90.24
81.27
70.61
58.83
46.89
35.79
26.28
18.68
12.97
8.93
6.27
4.74
4.0
3.67
3.31
2.69
1.89
1.43
2.06
4.46
8.76
14.3
19.8
23.79
25.37
24.65
22.88
22.0
23.86
29.53
38.8
50.36
62.17
72.18
78.84
81.42
80.1
75.75
69.68
63.1
56.71
50.3
42.74
32.45
18.02
-0.99
-23.65
-47.78
-70.59
-89.58
-103.48
-112.71
-119.22
-125.87
-135.44
-149.79
-169.19
-192.32
-216.57
-238.64
-255.29
-263.89
-262.93
-252.29
-233.24
-208.21
-180.33
-152.53
-126.81
-103.89
-83.4
-64.56
-47.05
-31.26
-18.07
-8.15
-1.31
3.62
8.25
13.76
20.28
26.81
31.88
34.32
33.86
31.03
26.78
21.83
16.43
10.33
3.18
-5.25
-14.87
-25.34
-36.14
-46.78
-56.99
-66.79
-76.48
-86.54
-97.21
-108.22
-118.68
-127.29
-132.8
-134.52
-132.62
-128.05
-122.18
-116.29
-111.33
-107.62
-104.91
-102.38
-98.78
-92.73
-83.14
-69.52
-52.3
-32.72
-12.7
5.57
19.91
28.75
31.39
28.24
20.76
11.14
1.73
-5.48
-9.34
-9.58
-6.82
-2.22
2.72
6.65
8.6
8.36
6.66
4.83
4.25
5.8
9.55
14.87
20.93
27.14
33.29
39.41
45.42
51.02
55.79
59.56
62.68
66.04
70.82
77.99
88.05
100.87
115.7
130.97
144.3
152.62
153.01
143.61
124.72
98.97
70.6
43.99
22.05
5.49
-6.93
-17.42
-27.9
-39.34
-51.71
-64.37
-76.73
-88.44
-99.41
-109.57
-118.67
-126.19
-131.43
-133.68
-132.62
-128.58
-122.53
-115.87
-109.89
-105.26
-101.77
-98.61
-94.94
-90.41
-85.4
-80.77
-77.31
-75.33
-74.48
-73.96
-73.07
-71.48
-69.34
-67.12
-65.19
-63.58
-61.93
-59.63
-56.12
-51.11
-44.61
-36.87
-28.25
-19.08
-9.73
-0.54
8.21
16.38
24.04
31.34
38.37
45.0
50.73
54.97
57.28
57.64
56.55
54.79
53.09
51.81
50.86
49.87
48.43
46.26
43.31
39.72
35.79
32.05
29.29
28.55
30.87
36.95
46.77
59.42
73.22
86.25
96.96
104.78
110.29
115.05
121.11
130.32
143.63
160.6
179.24
196.24
207.6
209.68
200.13
178.68
147.41
110.3
72.1
37.05
7.67
-15.69
-34.32
-50.12
-64.51
-77.71
-88.75
-96.15
-98.52
-95.23
-86.54
-73.35
-56.92
-38.5
-19.25
-0.22
17.59
33.37
46.63
57.31
65.73
72.27
77.13
80.1
80.64
78.08
72.08
62.73
50.67
36.86
22.2
7.33
-7.46
-22.22
-37.14
-52.56
-68.8
-86.07
-104.3
-123.23
-142.33
-160.82
-177.52
-190.85
-199.0
-200.44
-194.56
-182.01
-164.59
-144.63
-124.17
-104.5
-86.14
-69.3
-54.37
-42.02
-32.91
-27.08
-23.66
-21.01
-17.36
-11.42
-2.92
7.41
18.21
27.86
35.05
38.8
38.57
34.12
25.56
13.24
-2.17
-19.99
-39.65
-60.85
-83.5
-107.2
-130.86
-152.38
-168.96
-177.74
-176.77
-165.65
-145.71
-119.58
-90.42
-61.25
-34.46
-11.72
5.91
17.95
24.44
26.08
24.23
20.73
17.53
16.17
17.33
20.69
25.1
29.1
31.5
31.81
30.27
27.55
24.4
21.26
18.18
14.86
10.85
5.77
-0.66
-8.52
-17.62
-27.42
-36.9
-44.66
-49.23
-49.5
-45.01
-36.25
-24.49
-11.31
1.8
13.83
24.34
33.21
40.39
45.74
48.95
49.84
48.51
45.49
41.62
37.79
34.66
32.38
30.65
28.91
26.68
23.84
20.7
17.83
15.79
14.78
14.5
14.23
13.09
10.32
5.55
-1.13
-9.17
-17.63
-25.25
-30.68
-32.72
-30.61
-24.35
-14.66
-2.77
9.9
22.14
33.15
42.5
49.89
55.11
57.94
58.39
56.75
53.66
49.99
46.52
43.74
41.62
39.81
37.8
35.25
32.16
28.78
25.43
22.26
19.12
15.63
11.28
5.7
-1.22
-9.31
-18.04
-26.56
-33.73
-38.25
-39.08
-35.71
-28.5
-18.57
-7.43
3.53
13.47
22.16
29.77
36.48
42.13
46.32
48.61
48.85
47.39
45.03
42.73
41.22
40.72
40.94
41.28
41.07
39.91
37.78
34.95
31.77
28.49
25.15
21.59
17.56
12.81
7.19
0.67
-6.62
-14.28
-21.49
-27.13
-29.92
-28.79
-23.3
-13.81
-1.43
12.35
26.13
38.85
49.93
59.06
66.07
70.8
73.21
73.42
71.82
69.04
65.69
62.27
59.02
55.97
52.96
49.73
45.99
41.41
35.76
29.05
21.56
13.86
6.63
0.32
-5.03
-9.85
-14.86
-20.78
-28.05
-36.56
-45.7
-54.39
-61.22
-64.81
-64.14
-58.82
-49.38
-37.09
-23.63
-10.61
0.82
10.11
17.18
22.14
25.07
26.06
25.26
23.13
20.31
17.61
15.67
14.82
15.0
15.82
16.74
17.26
17.07
16.08
14.44
12.37
10.1
7.66
4.87
1.41
-3.13
-8.99
-16.13
-24.06
-31.83
-38.22
-41.92
-41.94
-37.92
-30.31
-20.22
-9.16
1.45
10.6
17.77
22.84
25.88
26.98
26.26
23.95
20.48
16.48
12.6
9.35
6.94
5.26
3.92
2.5
0.66
-1.69
-4.38
-7.11
-9.62
-11.88
-14.23
-17.34
-21.96
-28.56
-37.01
-46.42
-55.21
-61.55
-63.95
-61.79
-55.53
-46.49
-36.33
-26.36
-17.19
-8.74
-0.66
7.04
13.73
18.2
19.27
16.37
9.99
1.55
-7.08
-14.16
-18.63
-20.4
-20.34
-20.15
-21.99
-27.89
-39.04
-55.06
-73.56
-90.58
-101.72
-103.8
-96.25
-81.41
-63.66
-47.55
-35.91
-28.91
-24.35
-19.08
-10.57
2.02
17.91
35.5
53.47
71.28
89.04
106.86
124.25
139.98
152.48
160.56
163.99
163.55
160.73
157.03
153.49
150.42
147.55
144.37
140.51
135.87
130.69
125.35
120.19
115.36
110.64
105.48
99.11
90.75
79.84
66.24
50.09
31.79
11.74
-9.59
-31.43
-52.43
-70.66
-83.96
-90.64
-90.16
-83.41
-72.44
-59.7
-47.3
-36.64
-28.52
-23.43
-21.82
-24.05
-30.07
-39.06
-49.44
-59.15
-66.17
-68.98
-66.92
-60.13
-49.54
-36.5
-22.63
-9.45
1.81
10.41
16.15
19.32
20.48
20.29
19.35
18.02
16.34
14.1
10.81
5.82
-1.46
-11.3
-23.37
-36.61
-49.42
-60.05
-67.1
-70.04
-69.28
-66.09
-62.07
-58.78
-57.29
-58.07
-60.97
-65.34
-70.23
-74.71
-78.11
-80.23
-81.38
-82.06
-82.59
-82.86
-82.4
-80.65
-77.33
-72.62
-67.12
-61.56
-56.52
-52.3
-48.94
-46.37
-44.5
-43.28
-42.64
-42.47
-42.71
-43.49
-45.14
-48.15
-52.79
-58.75
-64.91
-69.52
-70.61
-66.79
-57.72
-44.3
-28.32
-11.82
3.49
16.61
27.23
35.47
41.56
45.7
47.99
48.55
47.62
45.61
43.07
40.56
38.6
37.42
37.01
37.05
37.05
36.51
35.11
32.79
29.71
26.16
22.39
18.52
14.53
10.32
5.72
0.49
-5.62
-12.82
-21.06
-29.9
-38.29
-44.76
-47.73
-46.04
-39.42
-28.65
-15.33
-1.35
11.64
22.63
31.32
37.78
42.16
44.52
44.77
42.98
39.53
35.23
31.1
27.99
26.32
25.86
25.92
25.65
24.42
22.0
18.52
14.41
10.03
5.63
1.2
-3.45
-8.64
-14.75
-22.04
-30.54
-39.84
-48.97
-56.44
-60.58
-60.02
-54.16
-43.46
-29.26
-13.43
2.27
16.52
28.65
38.4
45.73
50.56
52.74
52.22
49.28
44.56
39.04
33.72
29.4
26.36
24.4
22.99
21.5
19.49
16.8
13.57
10.05
6.43
2.75
-1.16
-5.57
-10.81
-17.15
-24.8
-33.79
-43.79
-54.03
-63.17
-69.54
-71.48
-67.94
-58.83
-45.16
-28.73
-11.56
4.63
18.85
30.7
40.2
47.45
52.45
55.17
55.71
54.43
51.98
49.12
46.52
44.62
43.52
43.04
42.78
42.27
41.05
38.83
35.52
31.27
26.39
21.19
15.93
10.64
5.23
-0.56
-6.99
-14.29
-22.57
-31.63
-40.82
-48.93
-54.38
-55.52
-51.33
-41.81
-28.06
-12.0
4.25
18.98
31.17
40.52
47.15
51.37
53.49
53.84
52.83
50.92
48.59
46.26
44.18
42.47
41.12
40.03
39.08
38.1
36.91
35.28
32.99
29.89
25.92
21.18
15.89
10.39
4.97
-0.23
-5.3
-10.55
-16.47
-23.51
-31.73
-40.63
-48.92
-54.8
-56.4
-52.47
-42.83
-28.51
-11.47
6.09
22.38
36.39
47.89
57.11
64.38
69.84
73.49
75.31
75.46
74.35
72.52
70.55
68.79
67.38
66.17
64.92
63.31
61.08
57.92
53.45
47.28
39.06
28.73
16.61
3.39
-9.99
-22.68
-34.22
-44.62
-54.39
-64.19
-74.49
-85.2
-95.4
-103.55
-107.81
-106.73
-99.69
-87.29
-71.19
-53.62
-36.78
-22.25
-10.77
-2.29
3.62
7.45
9.54
10.09
9.34
7.74
5.97
4.8
4.75
5.91
7.9
10.0
11.49
11.88
11.06
9.23
6.72
3.87
0.87
-2.23
-5.48
-8.99
-12.96
-17.67
-23.43
-30.41
-38.49
-46.95
-54.48
-59.39
