-33.52
-32.67
-29.0
-22.69
-14.54
-5.68
2.72
9.79
15.08
18.62
20.69
21.66
21.82
21.36
20.43
19.17
17.77
16.48
15.5
14.87
14.5
14.1
13.37
12.08
10.16
7.77
5.15
2.55
0.07
-2.35
-4.85
-7.56
-10.57
-13.94
-17.65
-21.68
-25.88
-29.79
-32.75
-33.84
-32.34
-27.96
-21.02
-12.45
-3.44
4.87
11.77
16.93
20.42
22.4
23.05
22.52
21.0
18.78
16.28
13.96
12.18
11.11
10.67
10.61
10.6
10.35
9.65
8.42
6.69
4.54
2.12
-0.47
-3.1
-5.69
-8.23
-10.74
-13.38
-16.4
-20.08
-24.53
-29.55
-34.44
-38.17
-39.61
-37.93
-32.95
-25.21
-15.85
-6.18
2.65
9.95
15.51
19.46
22.03
23.49
24.0
23.64
22.53
20.82
18.73
16.5
14.38
12.57
11.18
10.24
9.64
9.22
8.74
8.01
6.89
5.31
3.29
0.87
-1.84
-4.72
-7.65
-10.55
-13.45
-16.52
-19.98
-23.99
-28.37
-32.56
-35.65
-36.61
-34.74
-29.91
-22.67
-14.07
-5.34
2.52
8.91
13.75
17.22
19.59
21.1
21.84
21.81
21.03
19.59
17.68
15.53
13.42
11.57
10.07
8.94
8.08
7.32
6.55
5.64
4.54
3.21
1.62
-0.22
-2.29
-4.51
-6.74
-8.85
-10.82
-12.76
-14.97
-17.67
-20.92
-24.34
-27.13
-28.27
-26.89
-22.61
-15.69
-7.0
2.32
11.19
18.91
25.14
29.89
33.29
35.5
36.71
37.18
37.27
37.34
37.7
38.52
39.81
41.47
43.35
45.38
47.47
49.56
51.54
53.23
54.45
55.09
55.16
54.79
54.1
53.17
51.97
50.37
48.13
45.03
40.88
35.61
29.36
22.57
16.01
10.65
7.47
7.11
9.67
14.6
20.93
27.57
33.68
38.78
42.75
45.58
47.17
47.33
45.82
42.54
37.69
31.75
25.31
18.9
12.73
6.62
0.05
-7.6
-16.76
-27.42
-39.03
-50.7
-61.5
-70.88
-78.89
-86.12
-93.43
-101.6
-110.95
-121.27
-131.82
-141.35
-148.28
-150.9
-147.76
-138.13
-122.35
-101.98
-79.48
-57.54
-38.31
-22.9
-11.27
-2.54
4.45
10.61
16.49
22.28
28.13
34.29
41.06
48.56
56.4
63.67
69.07
71.42
70.05
65.07
57.19
47.39
36.42
24.62
11.84
-2.37
-18.53
-37.01
-57.95
-81.08
-105.63
-130.24
-153.06
-172.07
-185.48
-192.2
-192.04
-185.71
-174.48
-159.78
-142.89
-124.83
-106.41
-88.34
-71.37
-56.21
-43.38
-33.04
-24.89
-18.27
-12.44
-6.85
-1.33
3.95
8.63
12.43
15.31
17.44
19.09
20.43
21.45
21.93
21.59
20.18
17.51
13.56
8.45
2.5
-3.67
-9.19
-13.04
-14.32
-12.53
-7.76
-0.72
7.52
15.83
23.39
29.75
34.85
38.73
41.42
42.8
42.77
41.39
38.95
35.99
33.12
30.85
29.34
28.42
27.68
26.68
25.16
23.11
20.72
18.21
15.71
13.13
10.26
6.87
2.82
-1.93
-7.39
-13.52
-20.13
-26.77
-32.56
-36.34
-36.98
-33.81
-26.96
-17.39
-6.53
4.16
13.67
21.56
27.86
32.76
36.38
38.66
39.49
38.86
37.04
34.49
31.86
29.68
28.28
27.64
27.43
27.16
26.38
24.88
22.71
20.13
17.45
14.79
12.14
9.28
5.96
1.96
-2.85
-8.48
-14.85
-21.64
-28.17
-33.45
-36.37
-35.99
-31.94
-24.6
-15.01
-4.59
5.37
13.99
20.96
26.39
30.6
33.79
36.01
37.22
37.39
36.68
35.45
34.13
33.06
32.39
32.06
31.81
31.4
30.62
29.34
27.52
25.14
22.23
18.9
15.25
11.41
7.45
3.37
-0.94
-5.63
-10.85
-16.68
-22.96
-29.19
-34.51
-37.79
-38.03
-34.62
-27.7
-18.13
-7.25
3.53
13.15
21.03
27.05
31.29
33.91
35.03
34.79
33.48
31.5
29.33
27.36
25.83
24.74
23.98
23.31
22.54
21.49
20.07
18.24
15.99
13.35
10.4
7.18
3.71
-0.03
-4.08
-8.52
-13.41
-18.72
-24.26
-29.5
-33.65
-35.74
-34.95
-30.9
-23.9
-14.86
-5.03
4.45
12.77
19.65
25.11
29.23
32.02
33.38
33.26
31.85
29.66
27.37
25.58
24.64
24.46
24.63
24.59
23.9
22.4
20.22
17.65
14.95
12.25
9.46
6.38
2.79
-1.48
-6.51
-12.31
-18.73
-25.44
-31.8
-36.91
-39.74
-39.46
-35.71
-28.8
-19.6
-9.37
0.61
9.36
16.34
21.42
24.78
26.74
27.57
27.45
26.51
24.91
22.91
20.88
19.19
18.11
17.65
17.58
17.55
17.17
16.21
14.58
12.35
9.63
6.57
3.33
0.07
-3.07
-6.02
-8.86
-11.8
-15.19
-19.31
-24.16
-29.32
-33.95
-36.94
-37.31
-34.53
-28.72
-20.63
-11.37
-2.1
6.28
13.24
18.64
22.57
25.22
26.79
27.5
27.54
27.07
26.28
25.3
24.23
23.1
21.96
20.88
19.92
19.13
18.49
17.85
16.92
15.4
13.04
9.85
6.04
2.02
-1.75
-4.99
-7.67
-10.04
-12.53
-15.61
-19.59
-24.5
-29.95
-35.19
-39.15
-40.79
-39.35
-34.69
-27.31
-18.27
-8.82
-0.02
7.46
13.47
18.11
21.56
23.91
25.17
25.34
24.59
23.25
21.73
20.34
19.24
18.36
17.54
16.65
15.67
14.72
13.94
13.33
12.73
11.82
10.31
8.04
5.13
1.86
-1.37
-4.25
-6.71
-8.86
-11.03
-13.57
-16.8
-20.91
-25.89
-31.47
-37.02
-41.64
-44.31
-44.17
-40.85
-34.57
-26.19
-16.83
-7.65
0.53
7.29
12.53
16.35
18.87
20.21
20.51
19.99
18.93
17.65
16.42
15.41
14.62
13.98
13.4
12.83
12.27
11.75
11.23
10.57
9.56
7.99
5.8
3.14
0.3
-2.36
-4.59
-6.37
-7.9
-9.55
-11.72
-14.72
-18.71
-23.55
-28.7
-33.29
-36.26
-36.63
-33.92
-28.28
-20.5
-11.76
-3.21
4.34
10.53
15.33
18.87
21.24
22.47
22.56
21.67
20.11
18.32
16.71
15.53
14.8
14.37
13.98
13.46
12.72
11.74
10.48
8.87
6.8
4.24
1.27
-1.88
-4.97
-7.84
-10.49
-13.08
-15.91
-19.24
-23.18
-27.56
-31.92
-35.59
-37.77
-37.8
-35.3
-30.36
-23.53
-15.68
-7.8
-0.66
5.23
9.71
12.87
14.93
16.1
16.51
16.26
15.46
14.31
13.02
11.88
11.05
10.56
10.36
10.3
10.24
10.05
9.61
8.72
7.24
5.05
2.2
-1.05
-4.33
-7.3
-9.83
-12.02
-14.28
-17.01
-20.57
-25.03
-30.07
-35.03
-39.03
-41.13
-40.58
-37.12
-30.95
-22.84
-13.86
-5.09
2.62
8.81
13.38
16.49
18.36
19.24
19.32
18.78
17.76
16.45
15.03
13.66
12.47
11.54
10.95
10.67
10.65
10.74
10.72
10.36
9.45
7.85
5.55
2.65
-0.64
-4.07
-7.35
-10.31
-12.92
-15.32
-17.87
-21.0
-25.04
-30.0
-35.34
-40.0
-42.68
-42.3
-38.42
-31.46
-22.58
-13.23
-4.68
2.4
7.9
12.09
15.27
17.59
19.04
19.59
19.35
18.58
17.66
16.89
16.39
16.07
15.73
15.24
14.6
13.94
13.41
13.03
12.58
11.7
10.03
7.41
3.96
0.06
-3.82
-7.35
-10.42
-13.19
-15.95
-19.0
-22.58
-26.73
-31.24
-35.56
-38.88
-40.25
-38.9
-34.49
-27.32
-18.32
-8.75
0.15
7.49
12.94
16.6
18.79
19.86
20.09
19.64
18.68
17.38
15.95
14.59
13.47
12.68
12.23
12.11
12.24
12.52
12.74
12.69
12.11
10.81
8.72
5.94
2.65
-0.86
-4.28
-7.44
-10.34
-13.17
-16.28
-20.07
-24.73
-30.15
-35.72
-40.49
-43.43
-43.64
-40.7
-34.76
-26.53
-17.05
-7.47
1.23
8.37
13.65
17.06
18.84
19.32
18.87
17.83
16.53
15.17
13.93
12.87
12.02
11.39
10.98
10.8
10.74
10.66
10.31
9.49
8.11
6.2
3.93
1.52
-0.86
-3.14
-5.34
-7.6
-10.1
-13.08
-16.74
-21.13
-26.05
-30.85
-34.6
-36.2
-34.85
-30.25
-22.9
-13.88
-4.5
4.06
11.1
16.38
20.0
22.15
22.95
22.54
21.12
19.04
16.77
14.76
13.29
12.42
12.01
11.83
11.66
11.36
10.84
10.13
9.25
8.19
6.95
5.46
3.65
1.43
-1.31
-4.59
-8.51
-13.08
-18.28
-23.9
-29.4
-33.95
-36.52
-36.21
-32.56
-25.76
-16.68
-6.64
3.05
11.37
17.79
22.23
24.89
26.11
26.13
25.16
23.44
21.21
18.8
16.56
14.8
13.68
13.23
13.27
13.52
13.66
13.39
12.54
11.03
8.93
6.39
3.62
0.76
-2.12
-5.08
-8.3
-12.02
-16.44
-21.62
-27.34
-33.02
-37.72
-40.34
-39.89
-35.82
-28.28
-18.11
-6.59
4.94
15.43
24.3
31.44
37.01
41.27
44.45
46.77
48.43
49.71
50.85
52.06
53.46
55.1
57.01
59.27
61.94
65.04
68.43
71.86
75.05
77.77
79.97
81.8
83.53
85.42
87.68
90.31
93.1
95.52
96.76
95.82
91.85
84.48
74.09
61.79
49.1
37.46
27.75
20.16
14.36
9.76
5.88
2.47
-0.57
-3.31
-5.9
-8.63
-11.77
-15.48
-19.8
-24.54
-29.39
-34.0
-38.09
-41.59
-44.59
-47.34
-50.11
-53.09
-56.36
-59.95
-63.86
-68.07
-72.52
-77.09
-81.6
-85.83
-89.6
-92.87
-95.75
-98.46
-101.37
-104.76
-108.74
-113.07
-116.99
-119.38
-119.02
-115.01
-107.14
-96.01
-82.87
-69.26
-56.53
-45.58
-36.79
-30.03
-24.92
-20.94
-17.57
-14.45
-11.42
-8.48
-5.8
-3.53
-1.68
-0.09
1.58
3.67
6.39
9.77
13.61
17.61
21.38
24.5
26.62
27.43
26.82
24.88
21.95
18.51
15.0
11.57
8.0
3.85
-1.3
-7.48
-14.1
-20.08
-24.11
-25.14
-22.73
-17.2
-9.52
-0.97
7.25
14.27
19.68
23.45
25.81
27.03
27.31
26.82
25.73
24.25
22.69
21.3
20.23
19.44
18.78
17.98
16.87
15.44
13.78
12.07
10.48
9.05
7.73
6.41
4.89
2.98
0.47
-2.8
-6.9
-11.74
-16.93
-21.85
-25.6
-27.28
-26.17
-22.05
-15.31
-6.89
2.02
10.29
17.14
22.31
25.87
28.04
28.98
28.72
27.26
24.74
21.57
18.42
16.07
15.08
15.61
17.32
19.48
21.34
22.35
22.42
21.8
20.89
19.92
18.85
17.32
14.92
11.33
6.43
0.25
-7.06
-15.3
-24.02
-32.47
-39.55
-44.07
-45.19
-42.75
-37.38
-30.27
-22.71
-15.73
-9.86
-5.28
-1.99
0.01
0.78
0.46
-0.58
-1.8
-2.61
-2.57
-1.44
0.72
3.68
6.99
10.09
12.39
13.41
12.92
10.98
7.94
4.28
0.44
-3.27
-6.74
-9.96
-13.05
-16.17
-19.58
-23.59
-28.45
-34.17
-40.33
-46.04
-50.09
-51.29
-48.9
-42.86
-33.87
-23.15
-12.02
-1.59
7.46
14.82
20.38
24.12
26.06
26.34
25.3
23.5
21.63
20.3
19.91
20.49
21.74
23.21
24.41
25.06
25.11
24.65
23.8
22.5
20.5
17.5
13.37
8.31
2.8
-2.52
-7.22
-11.26
-14.98
-18.97
-23.74
-29.48
-35.87
-42.1
-47.03
-49.47
-48.49
-43.73
-35.53
-24.99
-13.6
-2.88
6.1
12.92
17.85
21.53
24.58
27.33
29.66
31.26
31.86
31.43
30.19
28.5
26.63
24.69
22.68
20.63
18.7
17.14
16.09
15.35
14.46
12.78
9.84
5.58
0.43
-4.83
-9.33
-12.5
-14.24
-14.99
-15.58
-16.99
-19.93
-24.65
-30.71
-36.99
-42.01
-44.27
-42.75
-37.26
-28.49
-17.8
-6.79
3.17
11.29
17.38
21.73
24.76
26.78
27.9
28.14
27.56
26.37
24.9
23.51
22.44
21.75
21.34
21.02
20.59
19.89
18.75
17.07
14.78
11.92
8.63
5.14
1.65
-1.68
-4.76
-7.64
-10.43
-13.35
-16.7
-20.76
-25.67
-31.13
-36.35
-40.11
-41.16
-38.62
-32.37
-23.17
-12.36
-1.48
8.17
15.83
21.24
24.56
26.08
26.17
25.18
23.47
21.4
19.3
17.43
15.95
14.89
14.21
13.81
13.61
13.53
13.47
13.31
12.87
11.93
10.34
8.03
5.12
1.81
-1.64
-5.07
-8.43
-11.82
-15.44
-19.49
-24.1
-29.24
-34.57
-39.38
-42.68
-43.47
-40.99
-35.08
-26.26
-15.58
-4.3
6.43
15.86
23.6
29.56
33.82
36.43
37.47
37.1
35.54
33.19
30.52
28.0
25.96
24.52
23.59
22.95
22.37
21.65
20.73
19.58
18.12
16.28
13.97
11.16
7.91
4.4
0.83
-2.68
-6.08
-9.44
-13.01
-17.12
-22.11
-28.1
-34.81
-41.42
-46.66
-49.1
-47.69
-42.11
-32.95
-21.52
-9.42
1.94
11.67
19.43
25.26
29.35
31.87
32.91
32.57
31.07
28.71
25.88
22.93
20.16
17.75
15.77
14.24
13.13
12.38
11.86
11.38
10.69
9.52
7.67
5.08
1.84
-1.82
-5.62
-9.31
-12.74
-15.95
-19.11
-22.5
-26.43
-31.05
-36.15
-41.15
-45.11
-46.91
-45.65
-40.96
-33.15
-23.22
-12.53
-2.43
6.05
12.41
16.58
18.81
19.42
18.74
17.1
14.86
12.42
10.22
8.69
8.09
8.49
9.69
11.28
12.71
13.49
13.3
12.19
10.52
8.76
7.35
6.37
5.52
4.31
2.28
-0.75
-4.69
-9.23
-14.11
-19.04
-23.69
-27.52
-29.75
-29.55
-26.37
-20.23
-11.87
-2.49
6.59
14.42
20.54
24.97
27.88
29.35
29.28
27.56
24.27
19.9
15.3
11.4
8.9
7.92
8.08
8.63
8.88
8.37
7.09
5.3
3.37
1.55
-0.09
-1.7
-3.54
-5.86
-8.84
-12.52
-16.94
-22.03
-27.67
-33.51
-38.84
-42.67
-43.93
-41.83
-36.21
-27.76
-17.71
-7.48
1.77
9.43
15.38
19.81
22.94
24.9
25.73
25.49
24.31
22.48
20.35
18.25
16.46
15.1
14.16
13.53
13.06
12.61
12.03
11.22
10.06
8.46
6.34
3.73
0.72
-2.5
-5.75
-8.98
-12.24
-15.82
-20.02
-24.94
-30.27
-35.18
-38.46
-38.81
-35.34
-27.98
-17.57
-5.63
6.1
16.21
23.91
29.14
32.28
33.9
34.45
34.24
33.43
32.15
30.55
28.75
26.86
24.97
23.21
21.88
21.39
22.03
23.77
26.07
27.96
28.39
26.64
22.61
16.86
10.24
3.55
-2.72
-8.53
-14.16
-19.99
-26.34
-33.32
-40.74
-47.99
-54.09
-57.79
-57.94
-53.95
-46.05
-35.28
-23.23
-11.51
-1.34
6.66
12.44
16.3
18.64
19.84
20.2
20.01
19.59
19.22
19.12
19.3
19.6
19.79
19.66
19.16
18.45
17.77
17.22
16.72
16.0
14.78
12.96
10.65
8.17
5.81
3.73
1.83
-0.19
-2.71
-6.05
-10.28
-15.1
-19.72
-22.9
-23.27
-19.71
-11.92
-0.61
12.59
25.68
36.9
45.3
50.83
54.15
56.17
57.58
58.67
59.4
59.57
59.09
58.11
57.0
56.24
56.17
56.8
57.8
58.5
58.11
55.92
51.49
44.63
35.41
24.14
11.29
-2.43
-16.1
-28.8
-39.85
-49.11
-57.08
-64.6
-72.39
-80.52
-88.23
-94.14
-96.91
-95.79
-91.03
-83.63
-74.92
-65.96
-57.36
-49.26
-41.72
-34.91
-29.23
-25.06
-22.51
-21.23
-20.51
-19.5
-17.62
-14.7
-11.14
-7.61
-4.8
-3.19
-2.88
-3.61
-4.9
-6.28
-7.41
-8.17
-8.66
-9.14
-9.97
-11.49
-14.04
-17.77
-22.49
-27.58
-31.95
-34.23
-33.18
-28.1
-19.14
-7.27
6.01
19.12
30.85
40.54
48.0
53.31
56.63
58.06
57.73
55.89
52.98
49.54
46.09
42.95
40.16
37.49
34.49
30.74
25.92
19.98
13.15
5.88
-1.27
-7.8
-13.37
-17.91
-21.61
-24.85
-28.07
-31.68
-35.96
-40.95
-46.44
-51.82
-56.17
-58.38
-57.47
-52.98
-45.2
-35.16
-24.31
-14.0
-5.08
2.22
8.1
12.88
16.68
19.37
20.74
20.78
19.74
18.2
16.83
16.19
16.52
17.68
19.29
20.81
21.82
22.06
21.52
20.35
18.75
16.89
14.9
12.89
11.01
9.39
8.16
7.27
6.54
5.72
4.74
3.91
4.04
6.22
11.38
19.82
30.84
42.9
54.0
62.44
67.36
68.97
68.28
66.57
64.72
62.98
60.99
58.2
54.28
49.4
44.12
39.12
34.91
31.53
28.7
25.88
22.59
18.54
13.65
7.99
1.55
-5.71
-13.87
-22.78
-31.95
-40.49
-47.49
-52.48
-55.78
-58.44
-61.65
-65.96
-70.84
-74.77
-75.98
-73.31
-66.72
-57.25
-46.39
-35.47
-25.27
-16.02
-7.74
-0.53
5.39
9.77
12.48
13.69
13.82
13.46
13.23
13.61
14.77
16.67
19.06
21.68
24.51
27.7
31.56
36.33
42.08
48.64
55.61
62.48
68.62
73.34
76.13
76.83
75.81
74.05
72.9
73.59
76.71
81.93
88.15
93.95
98.23
100.59
101.4
101.43
101.33
101.31
100.97
99.68
96.9
92.59
87.3
81.99
77.72
75.3
75.08
76.92
80.27
84.37
88.39
91.52
93.07
92.57
89.75
84.67
77.68
69.26
59.79
49.32
37.41
23.37
6.67
-12.55
-33.13
-53.02
-69.64
-80.69
-84.79
-81.79
-72.82
-59.86
-45.32
-31.46
-20.06
-12.12
-7.92
-7.09
-9.01
-13.09
-18.96
-26.44
-35.36
-45.34
-55.8
-66.06
-75.62
-84.37
-92.45
-100.16
-107.61
-114.58
-120.61
-125.28
-128.59
-131.14
-134.01
-138.43
-145.37
-155.29
-168.08
-183.27
-200.16
-217.87
-235.28
-250.82
-262.61
-268.67
-267.41
-257.95
-240.36
-215.56
-185.08
-150.79
-114.73
-78.9
-45.14
-14.94
10.75
31.63
48.03
60.77
70.93
79.56
87.57
95.58
103.92
112.61
121.4
129.84
137.39
143.58
148.06
150.65
151.3
149.98
146.72
141.48
134.26
124.96
113.43
99.45
82.93
64.07
43.56
22.56
2.45
-15.59
-30.79
-42.98
-52.47
-59.85
-65.9
-71.5
-77.62
-85.09
-94.38
-105.26
-116.84
-127.77
-136.6
-142.26
-144.21
-142.45
-137.36
-129.76
-120.82
-112.15
-105.65
-103.13
-105.78
-113.77
-126.07
-140.71
-155.43
-168.22
-177.92
-184.38
-188.22
-190.54
-192.44
-194.71
-197.78
-201.57
-205.45
-208.06
-207.26
-200.58
-185.9
-162.39
-131.08
-94.71
-56.94
-21.19
10.28
36.5
57.5
73.62
85.26
92.83
97.01
98.83
99.48
99.8
99.96
99.46
97.52
93.59
87.68
80.38
72.66
65.42
59.16
53.84
48.94
43.58
36.77
27.67
15.91
1.73
-13.93
-29.63
-43.67
-54.38
-60.38
-60.79
-55.29
-44.25
-28.75
-10.51
8.3
25.52
39.4
49.02
54.43
56.43
56.19
54.81
53.05
51.26
49.5
47.68
45.8
43.95
42.34
41.16
40.5
40.24
40.03
39.37
37.68
34.53
29.72
23.42
16.15
8.57
1.31
-5.31
-11.41
-17.52
-24.43
-32.8
-42.85
-54.09
-65.21
-74.34
-79.6
-79.64
-74.18
-64.15
-51.4
-38.18
-26.47
-17.54
-11.82
-8.98
-8.32
-9.03
-10.45
-12.09
-13.64
-14.91
-15.81
-16.31
-16.4
-16.15
-15.53
-14.51
-13.01
-11.0
-8.63
-6.24
-4.3
-3.29
-3.46
-4.74
-6.77
-9.01
-11.05
-12.71
-14.22
-16.06
-18.83
-22.93
-28.3
-34.19
-39.22
-41.65
-39.87
-32.91
-20.9
-4.88
13.42
32.2
49.99
65.97
79.79
91.32
100.38
106.67
109.93
110.18
107.92
104.1
99.93
96.41
94.13
93.0
92.47
91.75
90.11
87.2
83.04
77.98
72.49
66.97
61.68
56.65
51.73
46.61
40.83
33.91
25.47
15.5
4.64
-5.81
-14.12
-18.53
-17.85
-11.93
-1.72
11.11
24.61
37.21
47.99
56.7
63.51
68.66
72.19
73.99
73.98
72.31
69.49
66.28
63.4
61.27
59.82
58.63
57.13
54.92
51.86
48.08
43.88
39.49
35.04
30.48
25.71
20.58
14.96
8.68
1.53
-6.61
-15.66
-25.11
-33.88
-40.4
-42.99
-40.42
-32.35
-19.58
-3.81
12.86
28.6
42.16
52.98
61.0
66.33
69.09
69.44
67.65
64.2
59.76
55.03
50.58
46.72
43.52
40.85
38.5
36.21
33.78
30.99
27.63
23.49
18.45
12.5
5.82
-1.3
-8.56
-15.77
-23.05
-30.73
-39.3
-49.07
-59.79
-70.43
-79.25
-84.23
-83.69
-76.95
-64.59
-48.33
-30.36
-12.8
2.95
16.23
26.97
35.32
41.48
45.55
47.75
48.39
47.95
46.83
45.35
43.64
41.74
39.68
37.54
35.4
33.28
31.07
28.58
25.62
22.1
18.08
13.73
9.19
4.55
-0.2
-5.17
-10.57
-16.65
-23.59
-31.37
-39.55
-47.2
-52.92
-55.23
-53.03
-46.03
-34.88
-21.02
-6.26
7.78
20.0
29.89
37.42
42.82
46.33
48.16
48.47
47.54
45.63
43.11
40.32
37.52
34.85
32.33
29.93
27.54
25.07
22.36
19.24
15.61
11.44
6.82
1.99
-2.81
-7.42
-11.83
-16.22
-20.93
-26.4
-32.9
-40.32
-47.99
-54.6
-58.54
-58.29
-53.12
-43.34
-30.37
-16.28
-3.1
7.73
15.63
20.75
23.56
24.58
24.14
22.49
19.85
16.63
13.31
10.35
8.06
6.49
5.44
4.62
3.64
2.24
0.24
-2.38
-5.44
-8.72
-11.94
-14.93
-17.64
-20.24
-23.06
-26.52
-30.99
-36.69
-43.52
-50.88
-57.7
-62.6
-64.15
-61.44
-54.32
-43.64
-30.95
-18.03
-6.38
3.11
10.2
15.08
18.05
19.39
19.33
18.18
16.37
14.44
12.91
12.1
12.09
12.67
13.43
13.91
13.79
12.84
11.14
8.86
6.28
3.61
0.85
-2.11
-5.49
-9.54
-14.38
-20.12
-26.74
-34.11
-41.75
-48.76
-53.83
-55.56
-52.93
-45.75
-34.85
-21.86
-8.73
2.94
12.24
19.03
23.65
26.59
28.21
28.69
28.09
26.54
24.37
22.05
20.06
18.71
18.03
17.74
17.42
16.65
15.21
13.1
10.51
7.68
4.74
1.73
-1.44
-4.91
-8.81
-13.3
-18.57
-24.77
-31.93
-39.7
-47.25
-53.31
-56.4
-55.34
-49.71
-40.06
-27.81
-14.84
-2.84
7.09
14.66
20.15
24.07
26.86
28.64
29.41
29.1
27.84
25.96
23.92
22.11
20.83
20.12
19.82
19.69
19.43
18.77
17.56
15.71
13.23
10.19
6.71
2.92
-1.05
-5.12
-9.35
-13.96
-19.34
-25.77
-33.16
-40.85
-47.58
-51.76
-52.05
-47.76
-39.22
-27.62
-14.63
-1.96
9.16
18.11
24.8
29.51
32.58
34.35
35.09
35.04
34.39
33.38
32.22
31.11
30.22
29.58
29.14
28.69
28.02
26.88
25.12
22.74
19.8
16.42
12.68
8.67
4.39
-0.1
-4.78
-9.66
-14.86
-20.66
-27.3
-34.76
-42.42
-49.06
-53.01
-52.72
-47.34
-37.16
-23.55
-8.48
6.13
18.94
29.4
37.61
43.9
48.52
51.52
52.89
52.71
51.28
49.08
46.58
44.08
41.59
38.94
35.88
32.27
28.18
23.75
19.25
14.87
10.67
6.66
2.8
-0.94
-4.58
-8.14
-11.78
-15.71
-20.27
-25.7
-31.95
-38.46
-44.08
-47.44
-47.27
-43.0
-34.98
-24.44
-13.0
-2.16
7.13
14.56
20.17
24.11
26.37
26.9
25.73
23.26
20.2
17.44
15.72
15.37
16.14
17.36
18.17
17.83
15.93
12.47
7.78
2.32
-3.45
-9.2
-14.78
-20.2
-25.59
-31.21
-37.38
-44.35
-52.03
-59.84
-66.63
-70.88
-71.19
-66.75
-57.76
-45.36
-31.32
-17.42
-5.01
5.25
13.26
19.15
23.06
25.0
24.97
23.16
19.95
16.02
12.15
8.95
6.72
5.42
4.65
3.92
2.77
0.97
-1.41
-4.11
-6.82
-9.41
-11.94
-14.72
-18.16
-22.66
-28.49
-35.74
-44.2
-53.23
-61.73
-68.2
-71.04
-69.0
-61.68
-49.72
-34.69
-18.57
-3.25
10.04
20.76
28.95
34.92
38.94
41.21
41.84
41.06
39.27
37.04
34.97
33.51
32.89
33.02
33.55
34.02
34.01
33.18
31.43
28.84
25.54
21.73
17.43
12.63
7.17
0.9
-6.31
-14.55
-23.8
-33.82
-43.96
-53.14
-59.85
-62.64
-60.47
-53.25
-41.93
-28.21
-14.04
-1.04
9.86
18.42
24.87
29.56
32.7
34.38
34.66
33.67
31.75
29.36
26.99
24.99
23.51
22.49
21.75
21.09
20.35
19.39
18.14
16.52
14.46
11.93
8.93
5.54
1.84
-2.15
-6.47
-11.3
-16.93
-23.57
-31.22
-39.39
-47.0
-52.48
-54.19
-50.97
-42.69
-30.34
-15.83
-1.32
11.37
21.24
28.22
32.79
35.65
37.28
37.93
37.63
36.48
34.69
32.64
30.68
29.06
27.88
27.04
26.43
25.9
25.3
24.45
23.1
20.99
17.96
14.04
9.44
4.53
-0.4
-5.21
-10.01
-15.07
-20.71
-27.19
-34.49
-42.3
-49.83
-55.91
-59.14
-58.26
-52.62
-42.54
-29.31
-14.86
-1.12
10.47
19.35
25.65
29.88
32.47
33.66
33.54
32.26
30.2
27.93
26.01
24.76
24.18
24.02
23.9
23.54
22.74
21.44
19.62
17.24
14.27
10.66
6.42
1.65
-3.43
-8.6
-13.64
-18.51
-23.41
-28.84
-35.28
-42.95
-51.42
-59.4
-65.08
-66.55
-62.6
-53.13
-39.35
-23.32
-7.31
6.88
18.32
26.88
32.94
37.02
39.44
40.36
39.94
38.43
36.32
34.16
32.46
31.45
31.1
31.1
31.07
30.63
29.52
27.65
25.03
21.75
17.95
13.76
9.34
4.83
0.32
-4.17
-8.76
-13.73
-19.47
-26.25
-33.94
-41.82
-48.54
-52.46
-52.16
-47.01
-37.44
-24.86
-11.17
1.83
12.89
21.47
27.58
31.49
33.43
33.55
32.02
29.15
25.52
21.85
18.81
16.86
16.06
16.14
16.58
16.89
16.69
15.83
14.37
12.45
10.19
7.6
4.65
1.23
-2.71
-7.26
-12.53
-18.66
-25.74
-33.58
-41.47
-48.15
-52.03
-51.76
-46.72
-37.31
-24.91
-11.41
1.4
12.32
20.79
26.88
30.89
33.06
33.52
32.32
29.67
26.0
21.96
18.23
15.32
13.32
12.0
10.81
9.2
6.86
3.77
0.2
-3.52
-7.14
-10.65
-14.22
-18.11
-22.51
-27.52
-33.12
-39.24
-45.66
-51.91
-57.14
-60.15
-59.71
-54.96
-45.91
-33.51
-19.48
-5.66
6.51
16.41
24.13
30.13
34.74
37.95
39.45
38.96
36.6
32.98
29.02
25.6
23.27
21.97
21.21
20.36
18.95
16.88
14.34
11.64
9.0
6.44
3.81
0.93
-2.31
-5.96
-10.09
-14.89
-20.63
-27.49
-35.27
-43.14
-49.7
-53.26
-52.46
-46.74
-36.63
-23.59
-9.57
3.64
14.89
23.69
30.14
34.59
37.34
38.62
38.59
37.52
35.77
33.7
31.66
29.87
28.42
27.34
26.61
26.09
25.52
24.5
22.6
19.58
15.44
10.45
5.02
-0.47
-5.82
-11.01
-16.17
-21.59
-27.59
-34.46
-42.23
-50.49
-58.22
-63.91
-65.93
-63.1
-55.14
-42.85
-27.95
-12.58
1.38
12.68
20.94
26.43
29.75
31.49
32.03
31.52
30.03
27.68
24.78
21.74
18.96
16.7
14.95
13.55
12.3
10.99
9.48
7.71
5.61
3.19
0.42
-2.61
-5.83
-9.15
-12.5
-15.9
-19.51
-23.63
-28.56
-34.41
-40.82
-46.76
-50.78
-51.34
-47.51
-39.34
-27.99
-15.25
-2.99
7.47
15.6
21.52
25.64
28.31
29.7
29.81
28.66
26.48
23.74
21.09
19.11
18.12
18.01
18.29
18.33
17.63
16.03
13.71
11.05
8.41
5.88
3.32
0.46
-3.01
-7.3
-12.54
-18.84
-26.23
-34.5
-43.05
-50.72
-56.01
-57.44
-54.15
-46.25
-34.87
-21.78
-8.84
2.57
11.78
18.76
23.74
26.97
28.47
28.24
26.45
23.56
20.31
17.5
15.66
14.91
14.89
15.01
14.69
13.66
11.97
9.94
7.89
5.93
3.93
1.52
-1.69
-6.0
-11.57
-18.39
-26.22
-34.56
-42.58
-49.07
-52.7
-52.35
-47.52
-38.61
-26.85
-13.94
-1.49
9.35
18.08
24.67
29.26
31.95
32.7
31.55
28.75
24.9
20.82
17.32
14.86
13.43
12.57
11.61
9.99
7.41
3.94
-0.06
-4.18
-8.13
-11.84
-15.42
-19.16
-23.37
-28.35
-34.25
-41.02
-48.2
-54.88
-59.79
-61.58
-59.19
-52.27
-41.36
-27.77
-13.27
0.52
12.4
21.83
28.81
33.65
36.71
38.24
38.41
37.38
35.44
32.95
30.39
28.13
26.45
25.36
24.66
24.02
23.04
21.43
19.04
15.89
12.12
7.93
3.55
-0.91
-5.37
-9.92
-14.79
-20.31
-26.86
-34.54
-42.97
-51.14
-57.47
-60.26
-58.23
-51.07
-39.57
-25.41
-10.63
3.01
14.4
23.16
29.44
33.61
36.03
36.99
36.78
35.77
34.31
32.77
31.36
30.15
29.03
27.9
26.66
25.27
23.72
21.98
20.01
17.74
15.14
12.25
9.17
6.02
2.86
-0.37
-3.86
-7.97
-13.06
-19.46
-27.2
-35.87
-44.51
-51.7
-55.81
-55.52
-50.2
-40.23
-26.9
-12.03
2.57
15.52
26.06
34.0
39.44
42.61
43.8
43.38
41.78
39.56
37.2
35.08
33.4
32.2
31.46
31.12
31.11
31.25
31.28
30.86
29.63
27.31
23.79
19.18
13.74
7.84
1.87
-3.88
-9.23
-14.23
-19.15
-24.41
-30.46
-37.48
-45.07
-52.17
-57.15
-58.37
-54.73
-46.19
-33.86
-19.66
-5.66
6.55
16.15
23.08
27.71
30.48
31.71
31.61
30.47
28.7
26.8
25.23
24.22
23.69
23.37
22.96
22.32
21.5
20.69
19.98
19.22
18.04
16.02
12.92
8.82
4.11
-0.62
-4.88
-8.46
-11.51
-14.53
-18.17
-23.04
-29.39
-36.9
-44.56
-50.81
-53.95
-52.7
-46.64
-36.45
-23.71
-10.35
1.93
12.02
19.52
24.57
27.55
28.83
28.73
27.52
25.59
23.31
21.14
19.4
18.27
17.75
17.69
17.83
17.86
17.52
16.61
15.03
12.78
9.93
6.61
2.94
-0.92
-4.87
-8.77
-12.66
-16.67
-21.05
-26.07
-31.73
-37.56
-42.52
-45.16
-44.14
-38.65
-28.84
-15.87
-1.57
12.18
23.9
32.9
39.18
43.19
45.44
46.34
46.09
44.92
43.17
41.31
39.97
39.62
40.51
42.46
45.03
47.6
49.65
50.84
51.14
50.7
49.73
48.42
46.77
44.63
41.64
37.29
31.0
22.22
10.54
-4.08
-21.18
-39.78
-58.41
-75.5
-89.74
-100.62
-108.46
-114.25
-119.02
-123.2
-126.31
-127.22
-124.77
-118.53
-109.0
-97.49
-85.38
-73.55
-62.15
-50.78
-39.04
-26.85
-14.53
-2.54
8.88
19.92
31.03
42.59
54.5
66.08
76.22
83.84
88.3
89.58
88.19
84.76
79.73
73.18
64.95
55.01
43.66
31.64
19.91
9.33
0.36
-7.04
-13.28
-18.96
-24.58
-30.34
-36.09
-41.42
-45.95
-49.6
-52.69
-55.82
-59.65
-64.52
-70.29
-76.43
-82.27
-87.32
-91.44
-94.76
-97.49
-99.66
-101.01
-101.14
-99.62
-96.28
-91.32
-85.24
-78.77
-72.71
-67.79
-64.57
-63.36
-64.15
-66.52
-69.55
-71.94
-72.21
-69.18
-62.3
-51.89
-39.06
-25.3
-12.03
-0.14
10.07
18.7
25.97
31.92
36.45
39.43
40.88
41.11
40.66
40.15
40.0
40.37
41.1
41.81
42.12
41.76
40.61
38.74
36.3
33.47
30.35
26.95
23.22
19.02
14.22
8.71
2.44
-4.46
-11.56
-18.11
-23.12
-25.52
-24.55
-20.03
-12.44
-2.88
7.35
17.1
25.66
32.85
38.83
43.79
47.75
50.49
51.71
51.3
49.43
46.67
43.78
41.4
39.84
38.96
38.28
37.25
35.46
32.85
29.62
26.12
22.56
19.0
15.25
11.01
5.88
-0.4
-7.97
-16.64
-25.76
-34.15
-40.33
-42.88
-40.9
-34.38
-24.22
-12.02
0.52
12.01
21.58
28.92
34.1
37.31
38.8
38.82
37.71
35.94
34.08
32.65
31.98
32.08
32.54
32.7
31.94
29.88
26.59
22.51
18.28
14.38
10.95
7.78
4.34
0.1
-5.36
-12.12
-19.92
-28.05
-35.43
-40.74
-42.76
-40.66
-34.37
-24.66
-12.94
-0.88
10.14
19.25
26.23
31.27
34.69
36.7
37.4
36.89
35.39
33.36
31.36
29.85
29.0
28.63
28.28
27.43
25.76
23.21
20.06
16.69
13.41
10.3
7.16
3.63
-0.66
-5.93
-12.24
-19.34
-26.75
-33.68
-39.1
-41.93
-41.32
-36.96
-29.29
-19.31
-8.36
2.43
12.28
20.9
28.22
34.2
38.67
41.38
42.23
41.39
39.35
36.8
34.38
32.53
31.3
30.41
29.41
27.91
25.72
22.95
19.91
16.98
14.37
12.03
9.69
6.92
3.29
-1.47
-7.41
-14.17
-21.01
-26.83
-30.37
-30.63
-27.17
-20.43
-11.53
-1.94
7.01
14.54
20.46
24.99
28.44
30.9
32.25
32.26
30.88
28.31
25.08
21.83
19.11
17.21
16.09
15.49
15.02
14.38
13.38
12.0
10.37
8.6
6.79
4.92
2.88
0.51
-2.41
-6.12
-10.81
-16.54
-23.07
-29.74
-35.46
-38.92
-39.03
-35.34
-28.27
-19.02
-9.11
0.09
7.84
14.04
19.0
23.09
26.48
29.0
30.39
30.52
29.53
27.82
25.91
24.23
22.92
21.86
20.76
19.28
17.23
14.6
11.6
8.49
5.51
2.75
0.13
-2.55
-5.5
-8.81
-12.55
-16.68
-21.26
-26.33
-31.79
-37.19
-41.64
-43.91
-42.87
-37.99
-29.58
-18.83
-7.41
3.13
11.81
18.31
22.92
26.1
28.23
29.53
30.04
29.77
28.84
27.46
25.85
24.22
22.7
21.31
20.01
18.77
17.53
16.23
14.78
13.01
10.73
7.8
4.2
0.12
-4.11
-8.15
-11.73
-14.8
-17.54
-20.32
-23.56
-27.59
-32.33
-37.16
-41.03
-42.6
-40.83
-35.35
-26.69
-16.12
-5.25
4.56
12.47
18.3
22.28
24.75
25.96
26.03
25.01
23.1
20.64
18.02
15.61
13.55
11.84
10.37
9.07
7.93
7.02
6.34
5.8
5.11
3.96
2.14
-0.39
-3.4
-6.59
-9.64
-12.42
-14.99
-17.52
-20.3
-23.58
-27.5
-31.89
-36.22
-39.6
-40.9
-39.22
-34.12
-26.02
-16.05
-5.74
3.41
10.42
14.97
17.36
18.17
18.05
17.45
16.58
15.51
14.24
12.83
11.4
10.15
9.27
8.81
8.61
8.35
7.7
6.41
4.49
2.15
-0.31
-2.61
-4.66
-6.5
-8.27
-10.17
-12.32
-14.9
-18.05
-21.91
-26.42
-31.2
-35.47
-38.11
-38.07
-34.72
-28.18
-19.4
-9.86
-1.06
5.97
10.85
13.86
15.53
16.38
16.66
16.43
15.59
14.17
12.35
10.43
8.77
7.6
7.02
6.92
7.04
7.06
6.69
5.77
4.37
2.63
0.74
-1.18
-3.17
-5.38
-7.95
-10.94
-14.41
-18.42
-23.07
-28.36
-34.02
-39.31
-43.13
-44.26
-41.84
-35.76
-26.85
-16.55
-6.5
2.07
8.6
13.16
16.22
18.27
19.56
20.16
20.06
19.29
18.07
16.68
15.42
14.46
13.8
13.34
12.91
12.31
11.38
9.94
7.89
5.21
2.01
-1.49
-5.04
-8.45
-11.59
-14.52
-17.38
-20.4
-23.88
-28.07
-32.97
-38.23
-42.94
-45.91
-45.96
-42.36
-35.25
-25.62
-14.95
-4.75
3.94
10.7
15.66
19.17
21.53
22.91
23.34
22.89
21.76
20.22
18.54
16.88
15.29
13.73
12.24
10.93
9.92
9.25
8.8
8.27
7.35
5.8
3.56
0.78
-2.23
-5.27
-8.22
-11.18
-14.41
-18.25
-22.98
-28.65
-34.84
-40.64
-44.8
-46.07
-43.63
-37.47
-28.42
-17.95
-7.64
1.32
8.37
13.57
17.3
19.92
21.63
22.38
22.09
20.82
18.82
16.56
14.53
13.09
12.35
12.13
12.08
11.83
11.14
9.93
8.27
6.28
4.07
1.69
-0.85
-3.53
-6.34
-9.24
-12.3
-15.68
-19.59
-24.22
-29.47
-34.81
-39.25
-41.54
-40.64
-36.14
-28.46
-18.81
-8.76
0.28
7.51
12.76
16.32
18.57
19.78
19.98
19.25
17.74
15.82
13.93
12.46
11.61
11.31
11.26
11.06
10.38
9.0
6.91
4.32
1.55
-1.07
-3.37
-5.36
-7.33
-9.64
-12.62
-16.45
-21.15
-26.51
-32.08
-37.13
-40.7
-41.79
-39.6
-33.91
-25.26
-14.83
-4.13
5.54
13.39
19.26
23.36
25.95
27.13
26.81
24.97
21.83
18.02
14.32
11.48
9.84
9.25
9.15
8.85
7.85
6.03
3.59
0.9
-1.7
-4.12
-6.46
-8.95
-11.83
-15.24
-19.28
-23.86
-28.67
-33.08
-36.16
-36.95
-34.72
-29.34
-21.43
-12.08
