-18.41
-22.98
-28.21
-34.14
-40.25
-45.46
-48.36
-47.7
-42.98
-34.71
-24.26
-13.3
-3.23
5.21
11.96
17.29
21.5
24.69
26.83
27.92
28.1
27.75
27.23
26.78
26.43
26.05
25.48
24.65
23.65
22.62
21.65
20.71
19.58
17.93
15.51
12.22
8.23
3.83
-0.61
-4.85
-8.83
-12.69
-16.69
-21.16
-26.32
-32.11
-38.11
-43.46
-47.03
-47.75
-44.95
-38.68
-29.73
-19.44
-9.2
-0.14
7.19
12.77
16.85
19.74
21.64
22.63
22.76
22.18
21.17
20.05
19.1
18.42
17.96
17.54
17.01
16.29
15.37
14.25
12.91
11.27
9.22
6.72
3.86
0.81
-2.22
-5.1
-7.84
-10.65
-13.89
-17.94
-22.98
-28.68
-34.19
-38.17
-39.28
-36.67
-30.41
-21.53
-11.7
-2.58
4.74
10.02
13.67
16.38
18.64
20.6
22.0
22.56
22.13
20.85
19.09
17.28
15.76
14.65
13.88
13.23
12.38
11.08
9.21
6.79
4.02
1.17
-1.58
-4.17
-6.77
-9.6
-12.88
-16.78
-21.31
-26.39
-31.78
-37.02
-41.33
-43.75
-43.31
-39.5
-32.45
-23.1
-12.86
-3.14
5.07
11.43
16.15
19.73
22.56
24.74
26.11
26.45
25.65
23.92
21.71
19.57
17.96
17.03
16.63
16.37
15.83
14.68
12.84
10.41
7.59
4.59
1.5
-1.71
-5.13
-8.87
-13.01
-17.57
-22.57
-28.02
-33.78
-39.43
-44.19
-46.93
-46.6
-42.58
-35.05
-25.04
-14.08
-3.69
5.08
11.9
16.96
20.7
23.45
25.28
26.15
26.01
25.04
23.57
22.05
20.76
19.84
19.2
18.66
18.04
17.24
16.18
14.83
13.13
10.99
8.37
5.3
1.91
-1.68
-5.33
-9.01
-12.82
-16.94
-21.63
-27.02
-32.92
-38.72
-43.34
-45.55
-44.33
-39.37
-31.24
-21.24
-10.95
-1.68
5.91
11.8
16.36
19.97
22.77
24.67
25.48
25.14
23.82
21.89
19.81
17.96
16.57
15.66
15.11
14.68
14.14
13.27
11.96
10.19
8.01
5.52
2.82
0.03
-2.75
-5.55
-8.46
-11.71
-15.61
-20.41
-26.18
-32.62
-38.91
-43.83
-46.01
-44.46
-38.94
-30.16
-19.63
-9.11
-0.03
6.89
11.7
14.93
17.16
18.77
19.85
20.31
20.15
19.49
18.62
17.81
17.26
16.98
16.86
16.66
16.13
15.11
13.52
11.41
8.91
6.15
3.22
0.14
-3.11
-6.56
-10.21
-14.08
-18.22
-22.76
-27.76
-32.99
-37.82
-41.18
-41.88
-39.06
-32.61
-23.33
-12.72
-2.43
6.28
12.89
17.55
20.8
23.13
24.79
25.69
25.69
24.69
22.89
20.64
18.42
16.61
15.4
14.75
14.41
14.09
13.48
12.42
10.85
8.83
6.45
3.81
0.92
-2.21
-5.59
-9.21
-13.13
-17.44
-22.31
-27.89
-34.03
-40.19
-45.34
-48.23
-47.82
-43.68
-36.24
-26.67
-16.42
-6.79
1.5
8.31
13.88
18.54
22.47
25.65
27.93
29.2
29.5
29.01
28.02
26.86
25.82
25.03
24.46
23.92
23.12
21.82
19.86
17.22
13.98
10.3
6.35
2.32
-1.6
-5.28
-8.73
-12.06
-15.61
-19.75
-24.78
-30.65
-36.83
-42.27
-45.65
-45.78
-42.06
-34.73
-24.88
-14.05
-3.73
5.12
12.19
17.69
21.99
25.34
27.79
29.24
29.63
29.08
27.83
26.16
24.36
22.57
20.87
19.26
17.77
16.38
15.04
13.62
11.95
9.88
7.32
4.33
1.07
-2.25
-5.49
-8.59
-11.69
-15.03
-18.88
-23.42
-28.61
-34.04
-38.9
-42.16
-42.79
-40.11
-34.15
-25.66
-15.92
-6.33
2.06
8.76
13.79
17.54
20.36
22.53
24.11
25.12
25.57
25.52
25.02
24.13
22.92
21.42
19.78
18.15
16.68
15.43
14.35
13.26
11.93
10.15
7.87
5.16
2.19
-0.81
-3.68
-6.45
-9.28
-12.44
-16.2
-20.76
-26.06
-31.76
-37.13
-41.16
-42.77
-41.15
-36.09
-28.14
-18.53
-8.75
-0.08
6.78
11.8
15.38
17.98
19.82
20.86
20.9
19.92
18.17
16.16
14.44
13.31
12.75
12.43
11.92
10.93
9.4
7.51
5.54
3.72
2.11
0.59
-1.09
-3.16
-5.76
-8.95
-12.74
-17.13
-22.11
-27.51
-32.83
-37.16
-39.36
-38.45
-34.03
-26.57
-17.34
-7.9
0.41
6.98
11.9
15.72
18.96
21.72
23.74
24.6
24.09
22.48
20.38
18.47
17.2
16.57
16.2
15.53
14.16
11.98
9.15
6.05
2.98
0.18
-2.35
-4.74
-7.21
-9.95
-13.17
-16.99
-21.5
-26.73
-32.44
-38.06
-42.66
-45.06
-44.25
-39.77
-31.98
-22.02
-11.41
-1.58
6.55
12.74
17.25
20.5
22.82
24.36
25.08
24.94
24.02
22.54
20.77
19.03
17.54
16.39
15.5
14.7
13.72
12.36
10.47
8.08
5.33
2.37
-0.67
-3.78
-6.98
-10.34
-13.94
-17.9
-22.37
-27.52
-33.35
-39.44
-44.9
-48.45
-48.86
-45.42
-38.3
-28.54
-17.7
-7.3
1.65
8.81
14.36
18.69
22.06
24.55
26.11
26.71
26.47
25.63
24.46
23.2
21.97
20.86
19.87
18.97
18.09
17.08
15.8
14.09
11.88
9.18
6.05
2.61
-0.99
-4.55
-7.9
-10.96
-13.82
-16.79
-20.33
-24.83
-30.33
-36.3
-41.69
-45.14
-45.46
-42.12
-35.38
-26.33
-16.37
-6.85
1.37
7.97
13.09
17.01
19.97
22.1
23.45
24.11
24.25
24.07
23.72
23.28
22.71
22.01
21.21
20.36
19.51
18.55
17.28
15.41
12.83
9.6
5.95
2.23
-1.31
-4.63
-7.81
-11.11
-14.79
-19.12
-24.28
-30.21
-36.49
-42.21
-46.08
-46.88
-43.84
-37.07
-27.57
-16.9
-6.6
2.26
9.26
14.5
18.31
20.98
22.66
23.39
23.22
22.34
21.05
19.65
18.4
17.39
16.61
15.92
15.16
14.17
12.86
11.21
9.24
7.04
4.65
2.11
-0.56
-3.39
-6.39
-9.67
-13.43
-17.89
-23.19
-29.19
-35.3
-40.47
-43.46
-43.24
-39.4
-32.34
-23.15
-13.21
-3.8
4.29
10.83
15.96
19.92
22.91
24.95
26.0
26.06
25.33
24.12
22.84
21.82
21.21
20.88
20.54
19.86
18.61
16.77
14.46
11.9
9.24
6.51
3.67
0.61
-2.74
-6.47
-10.63
-15.34
-20.71
-26.75
-33.23
-39.52
-44.66
-47.5
-47.13
-43.22
-36.11
-26.78
-16.52
-6.48
2.55
10.23
16.57
21.73
25.86
29.0
31.14
32.27
32.42
31.72
30.38
28.7
26.93
25.29
23.89
22.68
21.53
20.2
18.5
16.27
13.44
10.04
6.25
2.26
-1.71
-5.49
-9.05
-12.52
-16.23
-20.6
-25.98
-32.38
-39.3
-45.66
-50.06
-51.2
-48.36
-41.69
-32.2
-21.41
-10.75
-1.24
6.74
13.26
18.59
22.91
26.23
28.5
29.69
29.98
29.63
28.99
28.32
27.69
27.01
26.14
25.01
23.66
22.24
20.87
19.51
17.97
15.95
13.25
9.86
5.98
1.91
-2.06
-5.81
-9.42
-13.09
-17.15
-21.87
-27.39
-33.64
-40.09
-45.79
-49.49
-49.98
-46.55
-39.28
-29.14
-17.64
-6.34
3.6
11.69
17.95
22.69
26.23
28.74
30.25
30.79
30.49
29.54
28.22
26.72
25.19
23.71
22.34
21.12
20.05
19.02
17.84
16.28
14.16
11.46
8.28
4.85
1.38
-1.97
-5.13
-8.12
-11.08
-14.27
-18.02
-22.68
-28.38
-34.77
-40.94
-45.51
-47.06
-44.67
-38.28
-28.77
-17.69
-6.65
3.11
11.05
17.17
21.8
25.26
27.68
29.07
29.41
28.79
27.5
25.88
24.23
22.74
21.46
20.35
19.29
18.16
16.84
15.21
13.18
10.73
7.92
4.82
1.6
-1.6
-4.71
-7.7
-10.7
-13.91
-17.68
-22.32
-27.9
-34.02
-39.77
-43.84
-44.95
-42.33
-36.05
-27.03
-16.71
-6.57
2.36
9.65
15.38
19.86
23.35
25.91
27.47
27.99
27.56
26.47
25.06
23.66
22.45
21.43
20.56
19.7
18.82
17.85
16.71
15.29
13.42
10.96
7.9
4.36
0.61
-3.05
-6.41
-9.45
-12.4
-15.64
-19.65
-24.79
-31.07
-37.98
-44.45
-49.1
-50.57
-48.09
-41.68
-32.25
-21.26
-10.25
-0.39
7.76
14.17
19.08
22.78
25.45
27.14
27.91
27.89
27.28
26.3
25.15
23.93
22.73
21.58
20.5
19.56
18.78
18.07
17.25
16.03
14.12
11.37
7.86
3.86
-0.22
-4.0
-7.33
-10.33
-13.4
-17.06
-21.78
-27.76
-34.8
-42.18
-48.72
-53.04
-53.9
-50.67
-43.54
-33.53
-22.13
-10.86
-0.8
7.56
14.27
19.58
23.75
26.92
29.09
30.32
30.79
30.73
30.38
29.86
29.18
28.2
26.86
25.16
23.24
21.36
19.71
18.34
17.04
15.44
13.13
9.9
5.9
1.55
-2.6
-6.19
-9.17
-11.84
-14.75
-18.42
-23.22
-29.16
-35.86
-42.52
-48.0
-51.07
-50.72
-46.53
-38.88
-28.87
-17.98
-7.6
1.37
8.63
14.37
18.9
22.44
25.02
26.56
27.08
26.73
25.85
24.73
23.56
22.41
21.23
20.05
18.96
18.13
17.59
17.24
16.73
15.62
13.57
10.47
6.49
2.04
-2.46
-6.68
-10.49
-13.98
-17.46
-21.36
-26.08
-31.8
-38.19
-44.39
-49.08
-50.81
-48.62
-42.34
-32.78
-21.47
-10.15
-0.21
7.64
13.39
17.42
20.2
22.08
23.19
23.59
23.36
22.69
21.89
21.21
20.84
20.76
20.81
20.73
20.27
19.2
17.46
15.09
12.22
8.99
5.5
1.83
-1.94
-5.78
-9.61
-13.43
-17.36
-21.62
-26.47
-31.94
-37.67
-42.79
-46.06
-46.28
-42.71
-35.43
-25.36
-13.99
-2.84
6.87
14.62
20.42
24.62
27.63
29.67
30.82
31.06
30.42
29.03
27.12
25.0
22.89
20.94
19.17
17.52
15.81
13.93
11.77
9.29
6.49
3.42
0.13
-3.26
-6.65
-9.91
-12.95
-15.79
-18.62
-21.83
-25.82
-30.83
-36.64
-42.45
-46.94
-48.66
-46.56
-40.43
-31.07
-20.02
-9.02
0.59
8.22
14.01
18.47
22.07
25.01
27.23
28.57
29.01
28.78
28.17
27.49
26.81
26.0
24.92
23.49
21.8
20.05
18.43
16.86
15.06
12.6
9.21
4.87
-0.0
-4.86
-9.19
-12.82
-15.94
-19.04
-22.68
-27.26
-32.85
-39.12
-45.3
-50.22
-52.61
-51.4
-46.14
-37.24
-25.9
-13.74
-2.27
7.53
15.33
21.31
25.81
29.08
31.19
32.15
32.06
31.16
29.81
28.37
27.01
25.75
24.48
23.09
21.56
19.99
18.46
17.0
15.43
13.4
10.6
6.93
2.57
-2.06
-6.44
-10.25
-13.46
-16.35
-19.41
-23.11
-27.73
-33.21
-39.1
-44.48
-48.18
-48.99
-46.09
-39.37
-29.59
-18.16
-6.73
3.34
11.34
17.24
21.4
24.3
26.23
27.26
27.4
26.73
25.51
24.13
22.97
22.27
22.07
22.19
22.26
21.94
20.92
19.07
16.46
13.33
9.93
6.44
2.96
-0.56
-4.19
-7.94
-11.82
-15.86
-20.24
-25.21
-30.93
-37.15
-43.08
-47.41
-48.76
-46.18
-39.64
-30.02
-18.89
-7.86
1.94
9.99
16.36
21.33
25.08
27.64
28.94
28.99
28.01
26.43
24.71
23.26
22.29
21.82
21.68
21.58
21.2
20.27
18.62
16.23
13.2
9.72
5.96
2.06
-1.91
-5.92
-9.97
-14.11
-18.45
-23.21
-28.56
-34.5
-40.61
-46.0
-49.47
-49.89
-46.6
-39.74
-30.23
-19.51
-9.0
0.26
7.81
13.72
18.32
21.92
24.66
26.56
27.59
27.82
27.44
26.7
25.84
24.98
24.14
23.28
22.34
21.28
20.02
18.48
16.55
14.1
11.08
7.47
3.38
-0.97
-5.35
-9.52
-13.34
-16.88
-20.5
-24.7
-29.94
-36.33
-43.29
-49.57
-53.53
-53.73
-49.49
-41.22
-30.29
-18.47
-7.36
2.13
9.82
16.0
21.05
25.13
28.18
30.06
30.79
30.54
29.67
28.56
27.44
26.39
25.42
24.51
23.7
23.08
22.66
22.3
21.73
20.56
18.48
15.38
11.38
6.81
2.09
-2.45
-6.65
-10.53
-14.33
-18.47
-23.36
-29.28
-36.09
-43.07
-48.99
-52.35
-51.91
-47.2
-38.71
-27.71
-15.89
-4.71
4.92
12.68
18.74
23.36
26.74
28.97
30.08
30.19
29.56
28.54
27.45
26.48
25.61
24.73
23.68
22.4
20.98
19.58
18.27
17.03
15.63
13.76
11.2
7.9
4.04
-0.06
-4.07
-7.75
-11.06
-14.13
-17.35
-21.19
-26.14
-32.36
-39.46
-46.39
-51.6
-53.48
-50.98
-44.05
-33.69
-21.62
-9.67
0.83
9.32
15.87
20.9
24.82
27.79
29.79
30.72
30.63
29.72
28.36
26.94
25.73
24.84
24.18
23.54
22.63
21.23
19.2
16.52
13.33
9.82
6.2
2.64
-0.79
-4.12
-7.48
-11.03
-15.0
-19.58
-24.83
-30.53
-36.14
-40.69
-43.06
-42.28
-37.92
-30.29
-20.48
-10.0
-0.27
7.79
13.91
18.36
21.58
23.94
25.54
26.3
26.1
25.02
23.31
21.36
19.56
18.05
16.8
15.63
14.32
12.76
10.93
8.94
6.92
4.95
3.1
1.33
-0.49
-2.49
-4.88
-7.86
-11.63
-16.38
-22.18
-28.85
-35.78
-41.91
-45.87
-46.42
-42.86
-35.44
-25.23
-13.89
-3.03
6.2
13.37
18.59
22.3
24.91
26.63
27.57
27.74
27.2
26.11
24.75
23.43
22.39
21.77
21.5
21.33
20.91
19.94
18.23
15.78
12.75
9.38
5.89
2.41
-1.0
-4.38
-7.8
-11.39
-15.35
-19.95
-25.46
-31.96
-39.12
-46.07
-51.43
-53.71
-51.78
-45.41
-35.4
-23.32
-11.04
-0.06
8.85
15.68
20.9
25.0
28.23
30.55
31.8
31.93
31.08
29.6
27.85
26.12
24.51
22.98
21.51
20.09
18.78
17.63
16.5
15.14
13.18
10.31
6.48
1.91
-2.96
-7.58
-11.58
-14.89
-17.74
-20.65
-24.22
-28.9
-34.77
-41.37
-47.61
-52.04
-53.28
-50.49
-43.71
-33.92
-22.66
-11.43
-1.32
7.24
14.29
20.06
24.66
28.04
30.13
30.96
30.79
30.01
29.04
28.13
27.36
26.66
25.93
25.11
24.2
23.26
22.3
21.24
19.92
18.11
15.57
12.23
8.18
3.74
-0.7
-4.75
-8.25
-11.36
-14.43
-17.96
-22.38
-27.9
-34.37
-41.19
-47.3
-51.37
-52.16
-48.94
-41.77
-31.62
-20.02
-8.62
1.37
9.39
15.5
20.07
23.47
25.89
27.38
27.95
27.75
27.03
26.09
25.12
24.17
23.16
21.97
20.54
18.89
17.13
15.36
13.53
11.53
9.14
6.16
2.55
-1.53
-5.79
-9.86
-13.54
-16.87
-20.18
-23.96
-28.58
-34.03
-39.71
-44.51
-47.07
-46.29
-41.72
-33.8
-23.73
-13.03
-3.07
5.32
11.88
16.82
20.46
23.03
24.58
25.09
24.65
23.48
21.98
20.54
19.46
18.84
18.59
18.5
18.32
17.8
16.81
15.23
13.09
10.47
7.53
4.41
1.2
-2.12
-5.61
-9.35
-13.43
-17.96
-23.02
-28.63
-34.57
-40.2
-44.44
-46.03
-43.98
-37.99
-28.72
-17.62
-6.45
3.35
11.07
16.67
20.62
23.43
25.33
26.37
26.51
25.78
24.43
22.77
21.13
19.74
18.64
17.8
17.12
16.48
15.72
14.69
13.26
11.34
8.93
6.1
2.96
-0.37
-3.81
-7.33
-10.98
-14.84
-19.13
-24.07
-29.78
-36.06
-42.19
-47.05
-49.31
-47.92
-42.59
-33.94
-23.36
-12.49
-2.65
5.46
11.82
16.76
20.67
23.67
25.74
26.82
26.94
26.37
25.44
24.45
23.57
22.84
22.21
21.61
21.0
20.31
19.44
18.21
16.41
13.86
10.48
6.35
1.7
-3.15
-7.9
-12.33
-16.43
-20.42
-24.65
-29.49
-35.08
-41.08
-46.59
-50.29
-50.9
-47.6
-40.44
-30.37
-18.87
-7.49
2.63
10.93
17.4
22.27
25.83
28.29
29.81
30.56
30.69
30.35
29.6
28.48
26.99
25.17
23.17
21.12
19.14
17.26
15.45
13.57
11.56
9.33
6.88
4.18
1.25
-1.87
-5.11
-8.35
-11.59
-14.93
-18.74
-23.43
-29.3
-36.16
-43.16
-48.88
-51.68
-50.33
-44.47
-34.88
-23.14
-11.14
-0.42
8.14
14.48
18.98
22.14
24.3
25.58
25.97
25.47
24.24
22.59
20.85
19.34
18.22
17.51
17.05
16.62
15.97
14.92
13.37
11.31
8.81
5.94
2.83
-0.4
-3.64
-6.78
-9.76
-12.66
-15.7
-19.25
-23.69
-29.16
-35.34
-41.27
-45.57
-46.79
-44.01
-37.25
-27.5
-16.46
-5.88
3.02
9.75
14.53
17.89
20.29
21.95
22.84
22.91
22.19
20.91
19.39
17.94
16.73
15.75
14.87
13.87
12.56
10.89
8.88
6.6
4.17
1.64
-1.0
-3.74
-6.59
-9.46
-12.31
-15.15
-18.2
-21.8
-26.23
-31.42
-36.75
-40.98
-42.73
-40.88
-35.15
-26.24
-15.63
-5.02
4.2
11.39
16.6
20.28
22.93
24.83
26.01
26.43
26.12
25.26
24.12
22.95
21.91
20.99
20.13
19.21
18.13
16.8
15.12
13.01
10.39
7.31
3.83
0.1
-3.76
-7.68
-11.64
-15.68
-19.92
-24.51
-29.65
-35.39
-41.4
-46.86
-50.58
-51.27
-48.09
-41.01
-30.93
-19.38
-7.99
2.01
10.03
16.09
20.53
23.71
25.88
27.17
27.69
27.64
27.24
26.71
26.13
25.46
24.57
23.36
21.82
20.06
18.21
16.33
14.33
12.03
9.25
5.94
2.24
-1.61
-5.35
-8.91
-12.35
-15.92
-19.94
-24.74
-30.45
-36.9
-43.47
-49.05
-52.23
-51.82
-47.18
-38.66
-27.49
-15.41
-4.07
5.49
12.98
18.69
23.11
26.55
29.09
30.66
31.19
30.79
29.71
28.3
26.82
25.4
24.05
22.73
21.42
20.11
18.84
17.55
16.05
14.11
11.48
8.12
4.19
0.08
-3.83
-7.32
-10.5
-13.73
-17.52
-22.3
-28.23
-34.93
-41.56
-46.85
-49.45
-48.28
-43.02
-34.19
-23.14
-11.54
-0.9
7.85
14.47
19.25
22.64
25.0
26.46
27.01
26.62
25.44
23.75
21.94
20.35
19.23
18.65
18.51
18.56
18.45
17.84
16.49
14.35
11.5
8.18
4.61
0.97
-2.69
-6.37
-10.14
-14.14
-18.54
-23.52
-29.08
-34.86
-40.01
-43.26
-43.33
-39.45
-31.7
-21.17
-9.57
1.34
10.39
17.21
22.15
25.78
28.5
30.26
30.77
29.75
27.33
24.08
20.84
18.31
16.82
16.19
15.92
15.45
14.43
12.76
10.61
8.2
5.71
3.21
0.58
-2.35
-5.79
-9.89
-14.74
-20.31
-26.45
-32.78
-38.57
-42.85
-44.57
-42.98
-37.93
-30.04
-20.55
-10.83
-2.02
5.31
11.09
15.51
18.66
20.46
20.76
19.61
17.38
14.79
12.66
11.57
11.63
12.47
13.43
13.84
13.35
12.0
10.13
8.17
6.38
4.71
2.9
0.48
-2.93
-7.56
-13.33
-19.82
-26.3
-31.77
-35.15
-35.57
-32.59
-26.4
-17.86
-8.21
1.29
9.72
16.59
21.79
25.33
27.16
27.25
25.7
22.91
19.57
16.53
14.37
13.3
13.03
12.98
12.52
11.3
9.34
6.94
4.5
2.29
0.31
-1.69
-4.17
-7.57
-12.18
-18.01
-24.69
-31.42
-37.07
-40.36
-40.28
-36.41
-29.18
-19.78
-9.74
-0.47
7.24
13.25
17.82
21.31
23.78
25.09
25.08
23.85
21.92
20.03
18.8
18.41
18.54
18.55
17.79
15.98
13.24
9.99
6.69
3.6
0.66
-2.42
-6.05
-10.53
-16.02
-22.38
-29.17
-35.57
-40.48
-42.71
-41.42
-36.4
-28.32
-18.47
-8.36
0.79
8.37
14.39
19.11
22.72
25.11
26.03
25.31
23.11
19.98
16.66
13.83
11.81
10.52
9.55
8.38
6.62
4.16
1.18
-1.89
-4.67
-6.94
-8.8
-10.6
-12.84
-15.92
-20.06
-25.13
-30.65
-35.83
-39.61
-40.89
-38.84
-33.17
-24.43
-13.83
-2.9
6.96
14.94
20.96
25.37
28.71
31.31
33.21
34.27
34.37
33.63
32.35
30.93
29.67
28.68
27.8
26.8
25.39
23.39
20.76
17.62
14.18
10.67
7.28
4.07
0.92
-2.35
-5.97
-10.14
-14.98
-20.48
-26.44
-32.4
-37.6
-40.99
-41.52
-38.48
-31.85
-22.37
-11.43
-0.55
9.03
16.68
22.37
26.44
29.31
31.28
32.46
32.87
32.58
31.72
30.49
29.15
27.86
26.72
25.75
24.87
24.03
23.1
21.94
20.4
18.34
15.71
12.59
9.17
5.69
2.34
-0.84
-3.98
-7.3
-11.11
-15.64
-20.95
-26.83
-32.64
-37.37
-39.77
-38.83
-34.11
-26.12
-16.12
-5.75
3.54
11.0
16.6
20.76
23.97
26.48
28.25
29.16
29.21
28.58
27.63
26.65
25.77
24.94
24.03
22.96
21.72
20.4
19.09
17.79
16.39
14.68
12.47
9.68
6.4
2.83
-0.74
-4.07
-7.03
-9.74
-12.48
-15.59
-19.39
-23.92
-28.85
-33.48
-36.82
-37.9
-36.11
-31.43
-24.45
-16.21
-7.85
-0.3
5.93
10.71
14.18
16.58
18.04
18.66
18.5
17.7
16.49
15.14
13.91
12.91
12.11
11.38
10.56
9.58
8.51
7.46
6.54
5.71
4.79
3.54
1.76
-0.57
-3.29
-6.13
-8.82
-11.22
-13.41
-15.63
-18.24
-21.52
-25.54
-30.01
-34.25
-37.3
-38.19
-36.3
-31.56
-24.55
-16.35
-8.13
-0.84
5.01
9.38
12.51
14.69
16.12
16.81
16.75
15.97
14.66
13.1
11.66
10.54
9.79
9.29
8.8
8.16
7.32
6.31
5.2
3.98
2.59
0.93
-1.05
-3.25
-5.48
-7.52
-9.25
-10.71
-12.1
-13.76
-15.99
-19.0
-22.73
-26.88
-30.79
-33.6
-34.42
-32.68
-28.29
-21.84
-14.37
-7.05
-0.83
3.86
7.05
9.06
10.2
10.66
10.41
9.49
8.01
6.29
4.7
3.51
2.82
2.5
2.35
2.19
1.94
1.6
1.21
0.73
0.09
-0.84
-2.11
-3.71
-5.5
-7.29
-8.89
-10.17
-11.15
-12.01
-13.09
-14.8
-17.42
-20.9
-24.76
-28.13
-29.97
-29.46
-26.31
-20.92
-14.26
-7.42
-1.35
3.47
7.0
9.43
11.02
11.91
12.12
11.62
10.49
8.94
7.26
5.72
4.51
3.64
3.03
2.54
2.03
1.46
0.83
0.16
-0.56
-1.42
-2.55
-4.02
-5.8
-7.72
-9.55
-11.1
-12.37
-13.55
-14.99
-17.04
-19.86
-23.28
-26.81
-29.66
-31.0
-30.2
-27.05
-21.85
-15.35
-8.48
-2.1
3.24
7.32
10.18
11.95
12.78
12.8
12.22
11.27
10.2
9.21
8.39
7.73
7.12
6.53
5.97
5.5
5.08
4.63
3.95
2.82
1.13
-1.11
-3.67
-6.25
-8.61
-10.64
-12.49
-14.45
-16.87
-20.0
-23.9
-28.35
-32.91
-36.86
-39.4
-39.75
-37.4
-32.39
-25.3
-17.17
-9.16
-2.16
3.37
7.5
10.53
12.8
14.51
15.69
16.29
16.36
16.0
15.37
14.61
13.74
12.76
11.66
10.48
9.32
8.24
7.28
6.3
5.16
3.68
1.77
-0.57
-3.17
-5.85
-8.45
-10.9
-13.23
-15.64
-18.42
-21.81
-25.91
-30.44
-34.75
-37.89
-38.87
-37.09
-32.48
-25.67
-17.68
-9.69
-2.61
3.1
7.4
10.59
13.03
14.99
16.53
17.6
18.0
17.64
16.58
15.05
13.41
12.02
11.09
10.58
10.26
9.87
9.14
7.99
6.45
4.61
2.64
0.62
-1.37
-3.33
-5.29
-7.34
-9.63
-12.44
-16.05
-20.61
-25.94
-31.35
-35.72
-37.82
-36.74
-32.3
-25.2
-16.75
-8.38
-1.13
4.62
9.07
12.66
15.67
18.09
19.72
20.29
19.82
18.57
17.01
15.6
14.6
14.01
13.58
12.93
11.75
9.89
7.43
4.61
1.79
-0.83
-3.19
-5.46
-7.89
-10.7
-14.01
-17.85
-22.16
-26.84
-31.58
-35.8
-38.68
-39.29
-36.97
-31.66
-23.96
-15.0
-5.99
2.15
9.01
14.63
19.23
22.95
25.76
27.51
28.12
27.71
26.57
25.1
23.62
22.34
21.3
20.42
19.54
18.52
17.21
15.61
13.73
11.64
9.41
7.08
4.64
2.02
-0.88
-4.18
-8.01
-12.53
-17.87
-24.0
-30.54
-36.69
-41.3
-43.2
-41.59
-36.42
-28.44
-18.91
-9.23
-0.45
6.92
12.87
17.62
21.43
24.42
26.6
27.96
28.59
28.61
28.2
27.51
26.63
25.62
24.55
23.48
22.46
21.47
20.41
19.1
17.31
14.87
11.76
8.1
4.11
0.1
-3.71
-7.24
-10.61
-14.06
-17.97
-22.66
-28.32
-34.75
-41.23
-46.56
-49.37
-48.52
-43.6
-35.13
-24.44
-13.18
-2.78
6.04
13.24
19.26
24.55
29.25
33.21
36.11
37.83
38.5
38.55
38.37
38.17
37.86
37.14
35.77
33.7
31.21
28.78
26.76
25.23
23.86
22.06
19.29
15.34
10.44
5.14
0.09
-4.25
-7.8
-10.85
-13.89
-17.51
-22.14
-27.92
-34.59
-41.36
-47.03
-50.25
-49.94
-45.65
-37.85
-27.72
-16.74
-6.17
3.18
11.12
17.76
23.25
27.63
30.77
32.61
33.19
32.82
31.92
30.89
29.97
29.19
28.46
27.62
26.61
25.45
24.26
23.15
22.14
21.14
19.93
18.3
16.09
13.25
9.88
6.19
2.43
-1.24
-4.8
-8.42
-12.44
-17.23
-23.04
-29.73
-36.74
-43.02
-47.28
-48.38
-45.73
-39.55
-30.74
-20.64
-10.53
-1.29
6.68
13.34
18.81
23.16
26.36
28.43
29.45
29.64
29.33
28.86
28.48
28.29
28.21
28.03
27.52
26.52
25.07
23.38
21.71
20.18
18.71
17.02
14.74
11.67
7.9
3.76
-0.27
-3.84
-6.85
-9.48
-12.1
-15.14
-18.9
-23.56
-29.07
-35.08
-40.89
-45.48
-47.7
-46.67
-42.1
-34.47
-24.91
-14.82
-5.34
2.86
9.72
15.44
20.23
24.09
26.88
28.46
28.97
28.77
28.38
28.25
28.45
28.74
28.64
27.79
26.1
23.91
21.73
20.0
18.77
17.73
16.31
14.03
10.73
6.65
2.28
-1.86
-5.46
-8.49
-11.16
-13.86
-17.01
-20.99
-26.0
-31.99
-38.47
-44.53
-48.94
-50.49
-48.44
-42.74
-34.15
-23.94
-13.48
-3.79
4.6
11.57
17.21
21.59
24.65
26.32
26.69
26.08
25.0
23.95
23.23
22.89
22.71
22.4
21.77
20.84
19.8
18.88
18.17
17.56
16.72
15.26
12.95
9.8
6.12
2.35
-1.18
-4.33
-7.26
-10.28
-13.82
-18.17
-23.48
-29.66
-36.31
-42.68
-47.69
-50.2
-49.25
-44.51
-36.44
-26.2
-15.3
-5.14
3.38
9.96
14.74
18.08
20.27
21.48
21.79
21.33
20.37
19.26
18.37
17.89
17.77
17.75
17.52
16.91
16.0
14.99
14.1
13.35
12.5
11.18
9.06
6.07
2.47
-1.33
-4.95
-8.18
-11.05
-13.82
-16.88
-20.6
-25.23
-30.74
-36.69
-42.17
-46.0
-47.02
-44.49
-38.44
-29.64
-19.42
-9.21
-0.11
7.3
12.97
17.14
20.12
22.08
23.11
23.28
22.71
21.65
20.44
19.39
18.63
18.12
17.67
17.13
16.42
15.62
14.83
14.04
13.08
11.65
9.52
6.63
3.18
-0.5
-4.1
-7.57
-11.06
-14.91
-19.45
-24.9
-31.21
-37.93
-44.23
-48.93
-50.83
-49.02
-43.31
-34.33
-23.43
-12.18
-1.92
6.58
13.18
18.14
21.87
24.63
26.54
27.59
27.78
27.19
26.04
24.63
23.23
22.05
21.09
20.23
19.21
17.8
15.84
13.37
10.53
7.5
4.4
1.28
-1.9
-5.12
-8.35
-11.56
-14.82
-18.31
-22.34
-27.18
-32.73
-38.39
-43.04
-45.37
-44.3
-39.48
-31.45
-21.5
-11.17
-1.81
5.81
11.5
15.59
18.49
20.54
21.87
22.42
22.16
21.19
19.76
18.26
17.04
16.33
16.11
16.14
16.08
15.61
14.55
12.88
10.74
8.25
5.54
2.66
-0.37
-3.56
-6.96
-10.65
-14.78
-19.56
-25.15
-31.5
-38.11
-43.98
-47.74
-48.14
-44.47
-37.02
-26.95
-15.95
-5.6
3.1
9.92
15.16
19.28
22.51
24.75
25.78
25.46
23.98
21.86
19.71
18.05
17.06
16.52
15.93
14.82
12.89
10.22
7.18
4.2
1.56
-0.76
-3.02
-5.63
-8.92
-13.05
-18.05
-23.76
-29.9
-35.88
-40.83
-43.7
-43.56
-40.03
-33.44
-24.86
-15.6
-6.78
1.03
7.73
13.46
18.27
21.92
24.05
24.42
23.21
20.98
18.5
16.43
15.08
14.33
13.73
12.78
11.1
8.64
5.69
2.68
-0.03
-2.31
-4.36
-6.65
-9.73
-14.02
-19.65
-26.42
-33.76
-40.76
-46.32
-49.34
-49.0
-44.98
-37.68
-28.09
-17.56
-7.32
1.81
9.55
16.01
21.4
25.83
29.17
31.21
31.85
31.27
29.93
28.41
27.14
26.27
25.59
24.68
23.13
20.79
17.78
14.4
10.99
7.72
4.54
1.19
-2.66
-7.27
-12.84
-19.41
-26.8
-34.56
-41.83
-47.47
-50.3
-49.48
-44.84
-36.95
-26.98
-16.25
-5.85
3.6
11.93
19.2
25.48
30.76
34.88
37.73
39.31
39.73
39.23
38.12
36.65
35.04
33.46
31.97
30.51
28.96
27.13
24.83
21.94
18.47
14.52
10.3
6.02
1.83
-2.21
-6.25
-10.59
-15.6
-21.64
-28.73
-36.44
-43.75
-49.27
-51.65
-50.03
-44.41
-35.63
-25.13
-14.34
-4.22
4.87
13.06
20.62
27.58
33.65
38.37
41.45
42.93
43.25
43.0
42.69
42.5
42.27
41.65
40.39
38.5
36.31
34.31
32.85
31.93
31.13
29.82
27.34
23.44
18.31
12.53
6.82
1.65
-2.89
-7.09
-11.46
-16.48
-22.44
-29.36
-37.0
-44.71
-51.49
-56.1
-57.36
-54.56
-47.81
-38.09
-26.88
-15.65
-5.38
3.69
11.78
19.19
25.89
31.5
35.56
37.78
38.35
37.82
36.88
36.07
35.61
35.37
35.05
34.38
33.28
31.87
30.39
29.05
27.87
26.65
25.03
22.65
19.29
14.97
10.0
4.83
-0.07
-4.44
-8.23
-11.61
-14.87
-18.36
-22.34
-27.0
-32.37
-38.19
-43.89
-48.52
-50.95
-50.25
-45.99
-38.51
-28.84
-18.31
-8.13
1.0
8.9
15.7
21.53
26.35
29.96
32.21
33.16
33.1
32.51
31.76
31.07
30.4
29.65
28.68
27.46
26.08
24.64
23.22
21.83
20.42
18.83
16.88
14.42
11.36
7.77
3.86
-0.07
-3.73
-7.03
-10.08
-13.24
-16.91
-21.46
-27.0
-33.25
-39.55
-44.86
-48.04
-48.11
-44.68
-38.01
-29.04
-19.04
-9.21
-0.35
7.15
13.28
18.11
21.68
23.94
24.92
24.81
24.03
23.06
22.32
21.99
21.98
22.0
21.74
21.03
19.93
18.66
17.46
16.38
15.25
13.67
11.3
8.01
4.06
-0.05
-3.79
-6.87
-9.45
-12.01
-15.19
-19.47
-24.96
-31.33
-37.79
-43.24
-46.52
-46.72
-43.46
-37.0
-28.26
-18.54
-9.04
-0.62
6.42
12.15
16.76
20.38
22.94
24.38
24.74
24.33
23.54
22.75
22.15
21.66
21.04
20.09
18.76
17.14
15.48
13.96
12.62
11.29
9.7
7.55
4.7
1.22
-2.6
-6.37
-9.79
-12.71
-15.28
-17.82
-20.78
-24.59
-29.47
-35.31
-41.54
-47.17
-50.96
-51.78
-49.02
-42.79
-34.0
-24.02
-14.18
-5.39
2.0
8.13
13.25
17.54
21.0
23.5
25.05
25.79
26.06
26.18
26.32
26.44
26.31
25.66
24.38
22.56
20.52
18.59
17.07
15.91
14.87
13.47
11.28
8.06
3.94
-0.66
-5.2
-9.2
-12.5
-15.27
-17.96
-21.09
-25.09
-30.12
-35.96
-42.03
-47.36
-50.87
-51.56
-48.86
-42.85
-34.29
-24.37
-14.36
-5.19
2.71
9.34
14.9
19.49
23.06
25.47
26.64
26.7
26.07
25.17
24.38
23.76
23.18
22.34
21.07
19.42
17.68
16.2
15.18
14.55
13.95
12.87
10.9
7.91
4.08
-0.21
-4.51
-8.51
-12.08
-15.3
-18.41
-21.76
-25.7
-30.5
-36.16
-42.33
-48.19
-52.61
-54.43
-52.87
-47.83
-39.97
-30.51
-20.76
-11.7
-3.8
3.0
8.91
14.12
18.59
22.08
24.4
25.56
25.81
25.62
25.39
25.39
25.58
25.75
25.62
25.03
24.06
22.95
21.94
21.17
20.48
19.51
17.84
15.15
11.38
6.8
1.83
-3.02
-7.37
-11.03
-14.13
-16.98
-20.1
-23.99
-28.97
-34.97
-41.38
-47.15
-50.99
-51.81
-49.02
-42.87
-34.28
-24.61
-15.15
-6.81
0.04
5.44
9.66
12.95
15.43
17.11
18.0
18.17
17.81
17.18
16.48
15.86
15.32
14.78
14.1
13.24
12.19
11.04
9.82
8.5
6.94
4.91
2.27
-1.01
-4.74
-8.64
-12.48
-16.14
-19.78
-23.66
-27.95
-32.52
-36.76
-39.66
-40.14
-37.47
-31.56
-23.13
-13.42
-3.82
4.61
11.35
16.38
20.0
22.52
24.16
24.95
24.89
23.99
22.36
20.24
17.96
15.84
14.17
13.02
12.31
11.75
11.02
9.81
8.04
5.82
3.43
1.16
-0.8
-2.55
-4.33
-6.48
-9.29
-12.89
-17.28
-22.33
-27.76
-33.13
-37.7
-40.54
-40.7
-37.59
-31.3
-22.67
-13.07
-3.91
3.84
9.89
14.51
18.16
21.16
23.53
25.01
25.37
24.6
22.98
21.01
19.17
17.82
16.98
16.49
16.04
15.35
14.17
12.41
10.07
7.25
4.05
0.59
-3.02
-6.71
-10.4
-14.15
-18.09
-22.5
-27.63
-33.48
-39.59
-44.93
-48.2
-48.17
-44.28
-36.85
-27.09
-16.65
-7.04
0.82
6.75
11.12
14.48
17.23
19.53
21.3
22.38
22.68
22.28
21.36
20.23
19.14
18.27
17.64
17.11
16.45
15.41
13.82
11.65
9.05
6.21
3.32
0.47
-2.33
-5.2
-8.27
-11.68
-15.58
-20.12
-25.32
-30.99
-36.51
-40.87
-42.86
-41.48
-36.4
-28.18
-18.14
-7.88
1.23
8.51
13.95
17.98
21.08
23.55
25.37
26.44
26.7
26.19
25.11
23.69
22.13
20.6
19.19
17.95
16.86
15.87
14.86
13.64
12.05
9.99
7.45
4.55
1.5
-1.52
-4.44
-7.34
-10.47
-14.16
-18.7
-24.24
-30.64
-37.3
-43.2
-47.03
-47.6
-44.24
-37.16
-27.48
-16.86
-6.88
1.44
7.91
12.96
17.17
20.93
24.16
26.5
27.6
27.39
26.21
24.64
23.28
22.47
22.22
22.25
22.12
21.45
20.04
17.87
15.12
12.02
8.8
5.61
2.49
-0.57
-3.66
-6.88
-10.37
-14.31
-18.84
-24.01
-29.6
-34.97
-39.19
-41.13
-39.92
-35.32
-27.87
-18.75
-9.37
-0.9
6.03
11.4
15.53
18.72
21.11
22.64
23.19
22.78
21.64
20.17
18.78
17.76
17.19
16.95
16.8
16.44
15.64
14.23
12.21
9.66
6.77
3.71
0.57
-2.59
-5.84
-9.29
-13.05
-17.18
-21.71
-26.53
-31.27
-35.29
-37.73
-37.73
-34.74
-28.83
-20.7
-11.56
-2.64
5.11
11.28
15.92
19.39
22.02
23.97
25.23
25.74
25.52
24.69
23.49
22.19
20.97
19.92
19.07
18.35
17.67
16.85
15.67
13.93
11.53
8.55
5.21
1.82
-1.4
-4.39
-7.29
-10.35
-13.87
-18.1
-23.13
-28.79
-34.52
-39.44
-42.48
-42.68
-39.62
-33.56
-25.42
-16.46
-7.83
-0.21
6.22
11.61
16.22
20.16
23.29
25.42
26.46
26.54
26.0
25.25
24.55
23.95
23.32
22.46
21.28
19.84
18.3
16.74
15.1
13.12
10.58
7.4
3.75
-0.04
-3.64
-6.9
-9.9
-12.92
-16.28
-20.22
-24.85
-30.0
-35.21
-39.72
-42.52
-42.7
-39.79
-33.91
-25.9
-16.97
-8.3
-0.67
5.68
10.9
15.26
18.9
21.76
23.66
24.55
24.58
24.08
23.4
22.8
22.29
21.71
20.89
19.78
18.49
17.23
16.14
15.2
14.2
12.89
11.07
8.76
6.1
3.31
0.55
-2.14
-4.9
-7.95
-11.54
-15.9
-21.16
-27.2
-33.57
-39.41
-43.59
-45.03
-43.08
-37.84
-30.16
-21.33
-12.65
-5.0
1.35
6.58
11.0
14.8
17.92
20.09
21.15
21.11
20.25
19.03
17.84
16.95
16.37
16.01
15.72
15.4
15.04
14.59
13.97
13.01
11.52
9.34
6.49
3.14
-0.43
-3.92
-7.19
-10.25
-13.39
-16.96
-21.29
-26.41
-31.93
-36.96
-40.37
-41.14
-38.69
-33.22
-25.56
-16.97
-8.66
-1.5
4.21
8.57
11.91
14.53
16.54
17.89
18.42
18.1
17.07
15.66
14.33
13.44
13.11
13.19
13.34
13.19
12.48
11.15
9.29
7.09
4.72
2.3
