-9.24
-12.18
-15.62
-19.87
-25.04
-30.9
-36.76
-41.47
-43.78
-42.68
-37.82
-29.74
-19.73
-9.39
-0.11
7.3
12.76
16.62
19.35
21.19
22.08
21.88
20.57
18.49
16.25
14.51
13.63
13.51
13.65
13.38
12.23
10.1
7.3
4.36
1.74
-0.39
-2.14
-3.83
-5.8
-8.32
-11.57
-15.67
-20.71
-26.52
-32.65
-38.15
-41.74
-42.22
-38.88
-31.87
-22.17
-11.37
-1.0
7.84
14.73
19.77
23.34
25.69
26.9
26.92
25.76
23.64
21.02
18.45
16.39
14.99
14.13
13.41
12.42
10.87
8.74
6.21
3.61
1.23
-0.84
-2.7
-4.65
-7.02
-10.05
-13.87
-18.55
-24.03
-30.09
-36.2
-41.49
-44.8
-45.04
-41.58
-34.58
-25.04
-14.47
-4.39
4.18
10.91
15.97
19.78
22.6
24.47
25.27
24.97
23.79
22.14
20.57
19.46
18.98
19.0
19.18
19.16
18.65
17.55
15.91
13.88
11.59
9.1
6.36
3.26
-0.32
-4.38
-8.87
-13.7
-18.9
-24.59
-30.87
-37.54
-43.88
-48.64
-50.45
-48.26
-41.91
-32.25
-20.88
-9.58
0.33
8.26
14.35
19.09
22.9
25.89
27.94
28.86
28.61
27.46
25.86
24.25
22.92
21.88
20.91
19.72
18.09
16.0
13.55
10.93
8.33
5.83
3.44
1.09
-1.31
-3.92
-6.94
-10.61
-15.12
-20.55
-26.8
-33.41
-39.56
-44.09
-45.82
-43.91
-38.14
-29.16
-18.32
-7.24
2.64
10.5
16.21
20.14
22.77
24.43
25.13
24.79
23.36
21.09
18.52
16.25
14.74
14.03
13.81
13.55
12.84
11.56
9.9
8.21
6.75
5.5
4.19
2.44
-0.03
-3.32
-7.36
-12.06
-17.4
-23.34
-29.61
-35.44
-39.68
-41.06
-38.72
-32.65
-23.76
-13.56
-3.62
4.97
11.82
17.07
21.06
23.94
25.64
25.98
24.97
22.94
20.5
18.3
16.8
16.07
15.78
15.39
14.43
12.63
10.12
7.28
4.56
2.25
0.36
-1.38
-3.39
-6.1
-9.74
-14.33
-19.66
-25.31
-30.73
-35.11
-37.59
-37.4
-34.08
-27.81
-19.33
-9.84
-0.59
7.42
13.72
18.3
21.43
23.4
24.36
24.33
23.31
21.47
19.17
16.91
15.13
14.04
13.55
13.27
12.79
11.76
10.1
7.95
5.53
3.09
0.72
-1.6
-4.04
-6.78
-9.97
-13.75
-18.22
-23.47
-29.37
-35.42
-40.65
-43.79
-43.65
-39.6
-31.92
-21.74
-10.68
-0.28
8.49
15.38
20.59
24.44
27.14
28.68
28.99
28.17
26.56
24.65
22.89
21.6
20.8
20.33
19.91
19.27
18.25
16.75
14.81
12.47
9.83
6.94
3.83
0.52
-3.0
-6.71
-10.61
-14.78
-19.4
-24.67
-30.65
-37.05
-43.11
-47.61
-49.27
-47.16
-41.13
-31.88
-20.83
-9.59
0.51
8.73
14.92
19.33
22.37
24.35
25.48
25.93
25.87
25.47
24.92
24.31
23.68
23.03
22.36
21.68
21.04
20.36
19.52
18.32
16.54
14.1
11.06
7.61
4.0
0.41
-3.1
-6.65
-10.5
-14.96
-20.27
-26.39
-32.9
-38.95
-43.34
-44.84
-42.63
-36.6
-27.48
-16.7
-5.85
3.76
11.43
17.12
21.26
24.37
26.72
28.36
29.12
28.94
27.93
26.46
24.93
23.64
22.64
21.77
20.8
19.58
18.11
16.52
14.86
13.09
11.03
8.47
5.38
1.92
-1.6
-4.91
-7.93
-10.84
-14.05
-18.06
-23.17
-29.29
-35.78
-41.5
-45.04
-45.15
-41.22
-33.51
-23.23
-12.09
-1.79
6.55
12.59
16.71
19.54
21.64
23.21
24.14
24.29
23.64
22.44
21.12
20.09
19.56
19.43
19.37
19.0
18.03
16.41
14.28
11.86
9.34
6.77
4.09
1.2
-1.9
-5.16
-8.48
-11.9
-15.65
-20.04
-25.26
-31.06
-36.61
-40.63
-41.79
-39.24
-32.98
-23.89
-13.49
-3.31
5.45
12.26
17.12
20.36
22.32
23.26
23.31
22.58
21.27
19.66
18.09
16.86
16.12
15.85
15.86
15.87
15.59
14.82
13.54
11.85
9.87
7.72
5.37
2.78
-0.16
-3.46
-7.08
-10.95
-15.12
-19.73
-24.94
-30.72
-36.61
-41.67
-44.64
-44.38
-40.37
-32.94
-23.24
-12.82
-3.11
5.04
11.38
16.17
19.77
22.4
24.1
24.83
24.6
23.66
22.36
21.1
20.08
19.34
18.73
18.08
17.26
16.23
15.01
13.56
11.82
9.7
7.12
4.09
0.69
-2.89
-6.47
-9.92
-13.22
-16.51
-20.09
-24.34
-29.5
-35.42
-41.34
-46.0
-47.94
-46.13
-40.37
-31.44
-20.82
-10.14
-0.65
7.09
13.12
17.73
21.24
23.77
25.39
26.11
26.06
25.43
24.4
23.14
21.78
20.4
19.12
17.99
17.04
16.26
15.56
14.82
13.84
12.39
10.28
7.51
4.25
0.82
-2.43
-5.33
-8.0
-10.82
-14.28
-18.77
-24.33
-30.6
-36.76
-41.7
-44.23
-43.45
-39.03
-31.43
-21.75
-11.47
-1.93
5.95
11.92
16.17
19.1
21.04
22.17
22.57
22.33
21.64
20.83
20.13
19.67
19.36
19.01
18.42
17.54
16.48
15.41
14.39
13.3
11.82
9.62
6.51
2.65
-1.55
-5.58
-9.02
-11.78
-14.1
-16.45
-19.38
-23.29
-28.31
-34.09
-39.8
-44.24
-46.11
-44.43
-38.95
-30.29
-19.83
-9.19
0.25
7.79
13.36
17.32
20.09
21.9
22.79
22.74
21.85
20.43
18.89
17.53
16.51
15.78
15.16
14.48
13.61
12.53
11.25
9.7
7.8
5.45
2.58
-0.72
-4.27
-7.84
-11.25
-14.51
-17.8
-21.5
-25.93
-31.2
-36.91
-42.2
-45.82
-46.51
-43.55
-36.98
-27.7
-17.19
-6.95
1.91
8.95
14.28
18.26
21.17
23.08
23.93
23.68
22.48
20.67
18.72
17.06
15.92
15.31
14.98
14.54
13.64
12.04
9.72
6.9
3.89
0.93
-1.92
-4.73
-7.7
-11.02
-14.81
-19.16
-24.12
-29.6
-35.17
-40.02
-43.01
-43.07
-39.56
-32.65
-23.3
-12.98
-3.13
5.21
11.66
16.31
19.5
21.55
22.58
22.65
21.8
20.22
18.29
16.37
14.8
13.73
13.06
12.56
11.92
10.91
9.42
7.48
5.28
2.98
0.64
-1.75
-4.33
-7.22
-10.49
-14.13
-18.22
-22.85
-28.17
-34.08
-40.02
-44.93
-47.44
-46.37
-41.25
-32.63
-21.86
-10.7
-0.61
7.56
13.74
18.27
21.59
23.94
25.37
25.81
25.33
24.18
22.77
21.52
20.7
20.36
20.3
20.19
19.71
18.63
16.9
14.6
11.87
8.87
5.71
2.49
-0.76
-4.04
-7.43
-11.05
-15.13
-19.91
-25.57
-32.02
-38.75
-44.8
-48.89
-49.78
-46.68
-39.64
-29.56
-17.99
-6.57
3.45
11.51
17.68
22.35
25.92
28.53
30.19
30.85
30.66
29.92
29.01
28.21
27.58
26.98
26.22
25.19
23.88
22.36
20.63
18.58
16.06
12.93
9.21
5.1
0.89
-3.16
-6.96
-10.58
-14.26
-18.3
-23.01
-28.56
-34.89
-41.55
-47.59
-51.74
-52.69
-49.57
-42.39
-32.07
-20.16
-8.35
2.09
10.63
17.33
22.56
26.59
29.46
31.05
31.26
30.21
28.29
26.04
23.95
22.3
21.19
20.51
20.05
19.59
18.94
17.97
16.62
14.87
12.71
10.12
7.11
3.67
-0.19
-4.42
-8.97
-13.84
-19.15
-24.96
-31.15
-37.18
-42.07
-44.57
-43.62
-38.75
-30.43
-19.87
-8.69
1.68
10.38
17.26
22.6
26.77
29.92
31.98
32.76
32.21
30.56
28.29
25.94
23.94
22.45
21.39
20.52
19.56
18.26
16.49
14.18
11.41
8.31
5.04
1.74
-1.53
-4.86
-8.4
-12.33
-16.83
-21.96
-27.74
-33.93
-39.97
-44.93
-47.59
-46.88
-42.24
-34.02
-23.39
-12.0
-1.37
7.56
14.62
20.14
24.56
28.12
30.72
32.18
32.4
31.59
30.18
28.65
27.29
26.13
25.06
23.91
22.61
21.21
19.77
18.22
16.34
13.86
10.62
6.69
2.4
-1.83
-5.67
-9.05
-12.16
-15.42
-19.26
-24.01
-29.75
-36.18
-42.61
-47.97
-51.01
-50.67
-46.4
-38.51
-28.02
-16.36
-4.96
5.21
13.69
20.45
25.62
29.26
31.38
32.04
31.48
30.11
28.46
26.94
25.71
24.69
23.66
22.41
20.91
19.33
17.89
16.72
15.75
14.68
13.1
10.72
7.53
3.8
-0.0
-3.5
-6.56
-9.37
-12.35
-15.99
-20.66
-26.38
-32.81
-39.14
-44.24
-46.88
-46.1
-41.51
-33.51
-23.19
-12.04
-1.48
7.54
14.66
19.97
23.77
26.29
27.66
27.96
27.34
26.08
24.53
23.01
21.66
20.5
19.49
18.64
17.96
17.45
17.02
16.46
15.51
13.91
11.52
8.36
4.58
0.46
-3.71
-7.7
-11.38
-14.84
-18.35
-22.33
-27.14
-32.86
-39.07
-44.77
-48.54
-49.05
-45.49
-37.96
-27.53
-15.84
-4.58
5.05
12.59
18.24
22.46
25.6
27.78
28.84
28.68
27.37
25.27
22.89
20.7
18.99
17.82
17.08
16.54
15.95
15.06
13.68
11.75
9.31
6.47
3.41
0.26
-2.94
-6.19
-9.53
-13.05
-16.86
-21.19
-26.19
-31.75
-37.33
-41.85
-44.02
-42.76
-37.66
-29.26
-18.84
-7.96
2.02
10.31
16.76
21.6
25.13
27.51
28.77
28.91
28.06
26.53
24.71
22.98
21.61
20.69
20.11
19.67
19.1
18.11
16.47
14.11
11.13
7.73
4.2
0.75
-2.58
-5.85
-9.24
-12.91
-17.03
-21.77
-27.26
-33.43
-39.83
-45.51
-49.14
-49.42
-45.62
-37.89
-27.35
-15.63
-4.34
5.44
13.35
19.51
24.16
27.5
29.52
30.24
29.8
28.54
26.89
25.2
23.66
22.25
20.9
19.57
18.24
16.9
15.5
13.88
11.9
9.49
6.67
3.61
0.55
-2.36
-5.03
-7.57
-10.28
-13.57
-17.88
-23.46
-30.15
-37.24
-43.49
-47.43
-47.77
-43.93
-36.21
-25.79
-14.3
-3.34
6.0
13.31
18.69
22.52
25.14
26.71
27.27
26.84
25.6
23.85
21.94
20.21
18.82
17.79
17.02
16.38
15.74
14.97
13.92
12.5
10.63
8.33
5.71
2.9
0.01
-2.96
-6.08
-9.55
-13.61
-18.47
-24.26
-30.81
-37.48
-43.18
-46.54
-46.36
-42.12
-34.26
-24.09
-13.36
-3.58
4.35
10.39
15.0
18.71
21.8
24.17
25.51
25.6
24.5
22.65
20.63
18.95
17.88
17.36
17.12
16.79
16.09
14.93
13.32
11.35
9.08
6.54
3.73
0.6
-2.86
-6.69
-10.92
-15.59
-20.74
-26.33
-32.16
-37.63
-41.81
-43.55
-41.93
-36.6
-28.09
-17.65
-6.87
2.87
10.77
16.71
20.92
23.7
25.24
25.6
24.83
23.16
20.99
18.85
17.25
16.46
16.44
16.84
17.07
16.57
14.99
12.38
9.13
5.81
2.86
0.42
-1.73
-4.01
-6.82
-10.47
-15.04
-20.5
-26.62
-32.87
-38.34
-41.88
-42.36
-39.13
-32.33
-22.97
-12.59
-2.75
5.47
11.68
16.08
19.13
21.21
22.46
22.84
22.37
21.2
19.73
18.38
17.48
17.1
17.09
17.07
16.72
15.79
14.23
12.14
9.69
7.07
4.4
1.69
-1.15
-4.25
-7.74
-11.71
-16.22
-21.29
-26.86
-32.69
-38.2
-42.51
-44.52
-43.29
-38.49
-30.54
-20.61
-10.17
-0.54
7.54
13.91
18.77
22.41
24.97
26.46
26.9
26.42
25.3
23.87
22.42
21.14
20.11
19.32
18.72
18.2
17.6
16.74
15.47
13.75
11.64
9.2
6.48
3.45
0.03
-3.84
-8.18
-12.93
-18.07
-23.62
-29.6
-35.91
-42.07
-47.18
-50.05
-49.59
-45.27
-37.38
-27.06
-15.88
-5.33
3.59
10.52
15.64
19.33
21.92
23.63
24.55
24.81
24.6
24.16
23.68
23.21
22.68
21.97
20.99
19.8
18.6
17.54
16.7
15.84
14.59
12.52
9.39
5.29
0.6
-4.14
-8.44
-12.11
-15.25
-18.27
-21.66
-25.85
-30.97
-36.68
-42.15
-46.12
-47.32
-44.82
-38.47
-29.01
-17.85
-6.63
3.31
11.2
16.96
20.92
23.54
25.2
26.06
26.18
25.65
24.62
23.35
22.09
21.01
20.1
19.27
18.32
17.08
15.49
13.53
11.28
8.84
6.23
3.46
0.47
-2.76
-6.21
-9.81
-13.51
-17.31
-21.35
-25.84
-30.91
-36.38
-41.61
-45.51
-46.84
-44.64
-38.62
-29.4
-18.33
-7.07
2.96
10.98
16.88
21.04
23.97
25.97
27.08
27.19
26.25
24.45
22.21
20.07
18.47
17.55
17.08
16.63
15.7
14.0
11.54
8.64
5.7
3.01
0.66
-1.55
-3.9
-6.61
-9.8
-13.52
-17.77
-22.66
-28.11
-33.77
-38.79
-41.95
-42.02
-38.3
-30.98
-21.2
-10.66
-0.96
6.85
12.57
16.57
19.44
21.55
22.92
23.36
22.73
21.13
19.01
16.94
15.41
14.63
14.44
14.48
14.33
13.7
12.52
10.9
8.98
6.88
4.59
2.04
-0.85
-4.1
-7.65
-11.39
-15.29
-19.45
-24.07
-29.24
-34.75
-39.9
-43.58
-44.59
-42.08
-36.02
-27.19
-17.03
-7.08
1.51
8.26
13.28
17.02
19.88
22.01
23.36
23.82
23.41
22.36
21.05
19.82
18.88
18.22
17.66
16.98
16.05
14.82
13.31
11.55
9.52
7.2
4.57
1.68
-1.36
-4.46
-7.58
-10.77
-14.23
-18.24
-23.04
-28.62
-34.55
-39.94
-43.56
-44.24
-41.27
-34.74
-25.53
-15.06
-4.79
4.2
11.38
16.76
20.62
23.28
24.94
25.64
25.42
24.39
22.77
20.9
19.09
17.59
16.47
15.68
15.09
14.52
13.81
12.82
11.45
9.62
7.28
4.43
1.17
-2.31
-5.8
-9.18
-12.43
-15.71
-19.36
-23.66
-28.72
-34.24
-39.42
-43.07
-43.97
-41.3
-35.05
-26.08
-15.9
-6.12
2.07
8.24
12.62
15.8
18.29
20.26
21.56
21.94
21.34
20.04
18.56
17.42
16.92
17.03
17.4
17.58
17.17
15.92
13.83
11.06
7.86
4.51
1.23
-1.85
-4.7
-7.45
-10.3
-13.54
-17.43
-22.11
-27.45
-32.93
-37.7
-40.61
-40.63
-37.18
-30.39
-21.18
-10.93
-1.05
7.46
14.18
19.22
22.9
25.51
27.11
27.66
27.13
25.68
23.68
21.62
19.94
18.85
18.31
17.99
17.47
16.37
14.51
11.93
8.94
5.83
2.84
-0.0
-2.79
-5.71
-8.88
-12.38
-16.29
-20.76
-25.88
-31.5
-37.03
-41.42
-43.4
-41.94
-36.74
-28.39
-18.17
-7.63
1.94
9.88
16.06
20.76
24.31
26.86
28.4
28.9
28.41
27.17
25.55
23.93
22.59
21.61
20.93
20.38
19.78
18.97
17.83
16.24
14.12
11.45
8.25
4.68
0.94
-2.77
-6.37
-9.93
-13.69
-17.96
-23.04
-28.98
-35.49
-41.8
-46.79
-49.22
-48.16
-43.26
-35.01
-24.57
-13.44
-2.97
5.93
12.98
18.37
22.46
25.55
27.77
29.08
29.43
28.92
27.79
26.38
24.99
23.76
22.64
21.46
20.13
18.64
17.06
15.42
13.65
11.6
9.1
6.14
2.88
-0.35
-3.3
-5.89
-8.29
-10.92
-14.22
-18.52
-23.9
-30.02
-36.12
-41.05
-43.6
-42.8
-38.27
-30.49
-20.6
-10.08
-0.25
8.1
14.8
20.1
24.38
27.82
30.44
32.12
32.82
32.64
31.88
30.88
29.94
29.21
28.7
28.36
28.05
27.68
27.1
26.16
24.68
22.47
19.42
15.56
11.06
6.23
1.38
-3.18
-7.35
-11.16
-14.85
-18.78
-23.31
-28.56
-34.26
-39.57
-43.23
-44.0
-41.04
-34.39
-24.95
-14.21
-3.7
5.46
12.81
18.41
22.59
25.61
27.6
28.54
28.42
27.33
25.45
22.98
20.03
16.65
12.87
8.75
4.52
0.5
-2.94
-5.56
-7.31
-8.4
-9.18
-10.06
-11.29
-12.99
-15.15
-17.76
-20.93
-24.83
-29.59
-35.07
-40.75
-45.71
-48.99
-49.81
-48.0
-43.99
-38.67
-33.03
-27.79
-23.26
-19.42
-16.15
-13.43
-11.36
-10.08
-9.65
-9.87
-10.37
-10.77
-10.81
-10.47
-9.88
-9.24
-8.62
-7.93
-6.92
-5.38
-3.23
-0.6
2.21
4.79
6.74
7.75
7.53
5.84
2.56
-2.15
-7.67
-12.93
-16.64
-17.65
-15.44
-10.22
-2.9
5.29
13.27
20.35
26.29
31.04
34.61
36.88
37.64
36.81
34.56
31.37
27.96
25.08
23.2
22.42
22.43
22.56
22.17
20.83
18.5
15.49
12.3
9.3
6.64
4.17
1.56
-1.57
-5.52
-10.44
-16.3
-22.8
-29.33
-34.92
-38.43
-38.89
-35.85
-29.61
-21.17
-11.9
-3.07
4.51
10.61
15.38
19.09
21.83
23.51
23.98
23.28
21.71
19.78
18.05
16.87
16.24
15.89
15.34
14.2
12.27
9.68
6.77
3.96
1.57
-0.35
-2.01
-3.85
-6.35
-9.92
-14.74
-20.65
-27.12
-33.3
-38.09
-40.41
-39.49
-35.12
-27.81
-18.62
-8.86
0.31
8.13
14.39
19.19
22.7
25.06
26.21
26.12
24.92
22.98
20.89
19.23
18.32
18.14
18.26
18.09
17.15
15.28
12.67
9.72
6.87
4.4
2.31
0.39
-1.69
-4.27
-7.57
-11.71
-16.67
-22.22
-27.86
-32.8
-36.04
-36.67
-34.11
-28.44
-20.44
-11.37
-2.57
4.96
10.8
15.04
18.04
20.17
21.62
22.37
22.37
21.66
20.42
19.0
17.76
16.95
16.6
16.51
16.36
15.82
14.73
13.14
11.29
9.51
8.0
6.79
5.71
4.5
2.96
1.0
-1.39
-4.12
-7.1
-10.07
-12.62
-14.07
-13.64
-10.77
-5.42
1.76
9.54
16.53
21.68
24.6
25.59
25.29
24.32
22.99
21.26
18.94
15.97
12.59
9.27
6.57
4.82
4.02
3.85
3.85
3.59
2.91
1.9
0.81
-0.09
-0.73
-1.26
-2.03
-3.47
-5.86
-9.36
-13.97
-19.55
-25.83
-32.23
-37.9
-41.74
-42.7
-40.17
-34.3
-26.0
-16.73
-7.93
-0.63
4.81
8.57
11.05
12.56
13.26
13.14
12.26
10.95
9.73
9.11
9.32
10.2
11.23
11.76
11.33
9.86
7.64
5.15
2.81
0.76
-1.18
-3.39
-6.28
-10.13
-15.0
-20.74
-26.95
-32.97
-37.87
-40.62
-40.36
-36.7
-29.99
-21.22
-11.75
-2.83
4.77
10.84
15.55
19.12
21.59
22.8
22.59
21.02
18.53
15.78
13.47
12.01
11.45
11.42
11.42
10.97
9.87
8.19
6.2
4.18
2.33
0.65
-1.07
-3.12
-5.8
-9.39
-14.03
-19.78
-26.33
-33.04
-38.85
-42.5
-42.91
-39.56
-32.71
-23.33
-12.72
-2.09
7.74
16.41
23.85
29.98
34.68
37.7
38.94
38.56
37.03
35.01
33.2
32.03
31.68
31.95
32.47
32.91
33.06
32.91
32.56
32.07
31.43
30.47
29.02
26.98
24.44
21.63
18.88
16.45
14.42
12.75
11.28
9.85
8.33
6.64
4.78
2.77
0.73
-1.18
-2.73
-3.72
-4.03
-3.75
-3.12
-2.5
-2.18
-2.36
-3.15
-4.59
-6.72
-9.52
-12.86
-16.37
-19.49
-21.6
-22.19
-21.11
-18.68
-15.62
-12.81
-11.03
-10.64
-11.55
-13.24
-15.08
-16.57
-17.57
-18.26
-19.06
-20.43
-22.71
-26.08
-30.57
-35.99
-41.81
-47.13
-50.7
-51.28
-48.07
-41.07
-31.15
-19.83
-8.67
1.2
9.29
15.72
20.82
24.8
27.66
29.26
29.56
28.82
27.53
26.24
25.37
24.92
24.64
24.17
23.23
21.83
20.17
18.51
16.97
15.42
13.52
10.92
7.45
3.26
-1.29
-5.76
-9.85
-13.56
-17.14
-21.05
-25.74
-31.47
-38.15
-45.25
-51.86
-56.85
-59.21
-58.3
-54.17
-47.53
-39.56
-31.49
-24.18
-17.94
-12.54
-7.49
-2.45
2.65
7.48
11.6
14.65
16.55
17.46
17.72
17.59
17.26
16.75
16.03
15.06
13.82
12.34
10.66
8.71
6.43
3.71
0.53
-2.97
-6.44
-9.42
-11.53
-12.65
-13.1
-13.53
-14.72
-17.15
-20.64
-24.28
-26.72
-26.66
-23.41
-17.2
-9.04
-0.32
7.71
14.33
19.45
23.34
26.37
28.68
30.2
30.75
30.19
28.62
26.34
23.78
21.35
19.34
17.82
16.64
15.51
14.13
12.31
10.03
7.42
4.65
1.82
-1.03
-3.96
-7.02
-10.24
-13.66
-17.42
-21.73
-26.84
-32.74
-39.01
-44.7
-48.48
-49.05
-45.67
-38.48
-28.49
-17.28
-6.39
3.12
10.85
16.95
21.8
25.67
28.58
30.46
31.25
31.09
30.29
29.21
28.07
26.95
25.73
24.29
22.54
20.55
18.42
16.24
13.96
11.42
8.46
4.99
1.13
-2.9
-6.83
-10.5
-13.98
-17.51
-21.47
-26.18
-31.75
-37.92
-43.97
-48.86
-51.4
-50.66
-46.29
-38.68
-28.88
-18.2
-7.86
1.35
9.14
15.52
20.67
24.66
27.5
29.13
29.63
29.24
28.31
27.2
26.14
25.22
24.33
23.37
22.27
21.05
19.75
18.39
16.92
15.15
12.93
10.12
6.73
2.92
-1.07
-4.96
-8.6
-11.97
-15.24
-18.71
-22.72
-27.51
-33.01
-38.72
-43.69
-46.71
-46.65
-42.88
-35.55
-25.67
-14.76
-4.37
4.44
11.3
16.46
20.42
23.56
26.01
27.66
28.39
28.31
27.77
27.19
26.87
26.82
26.8
26.5
25.75
24.58
23.19
21.79
20.44
18.97
17.07
14.45
11.02
6.95
2.61
-1.56
-5.31
-8.6
-11.69
-14.95
-18.73
-23.22
-28.41
-33.98
-39.29
-43.46
-45.47
-44.39
-39.84
-32.13
-22.32
-11.9
-2.27
5.66
11.72
16.23
19.64
22.2
23.89
24.54
24.12
22.87
21.23
19.71
18.57
17.85
17.35
16.81
16.08
15.13
13.98
12.64
11.01
8.91
6.17
2.75
-1.25
-5.54
-9.79
-13.72
-17.24
-20.51
-23.88
-27.75
-32.37
-37.57
-42.64
-46.41
-47.67
-45.56
-39.94
-31.55
-21.69
-11.83
-3.1
3.94
9.31
13.35
16.48
18.93
20.78
21.98
22.55
22.55
22.16
21.58
20.97
20.37
19.74
18.95
17.89
16.46
14.58
12.25
9.41
6.08
2.33
-1.74
-5.92
-9.99
-13.8
-17.33
-20.7
-24.2
-28.15
-32.81
-38.18
-43.83
-48.86
-52.02
-52.1
-48.34
-40.85
-30.6
-19.15
-8.12
1.39
8.95
14.72
19.12
22.44
24.75
25.97
26.1
25.39
24.23
23.04
22.03
21.17
20.26
19.15
17.83
16.42
15.1
13.87
12.58
10.91
8.61
5.61
2.09
-1.55
-4.94
-7.89
-10.49
-13.1
-16.21
-20.27
-25.52
-31.78
-38.38
-44.26
-48.12
-48.84
-45.83
-39.26
-30.07
-19.63
-9.33
-0.13
7.54
13.75
18.78
22.85
25.97
28.06
29.06
29.08
28.45
27.54
26.67
25.99
25.43
24.87
24.23
23.53
22.93
22.52
22.25
21.86
20.9
18.93
15.75
11.48
6.6
1.71
-2.71
-6.51
-9.95
-13.54
-17.86
-23.31
-29.98
-37.45
-44.83
-50.89
-54.28
-53.92
-49.43
-41.25
-30.62
-19.17
-8.32
1.02
8.62
14.68
19.57
23.47
26.44
28.41
29.41
29.59
29.21
28.49
27.53
26.4
25.09
23.69
22.32
21.08
19.95
18.79
17.34
15.36
12.68
9.32
5.45
1.34
-2.72
-6.49
-9.92
-13.14
-16.49
-20.45
-25.4
-31.47
-38.22
-44.62
-49.27
-50.76
-48.23
-41.73
-32.23
-21.31
-10.55
-1.04
6.77
13.02
17.99
21.91
24.76
26.45
26.99
26.57
25.58
24.4
23.27
22.25
21.27
20.22
19.04
17.68
16.12
14.29
12.13
9.59
6.73
3.66
0.49
-2.69
-5.93
-9.33
-13.09
-17.39
-22.37
-28.03
-34.11
-40.0
-44.75
-47.23
-46.48
-42.04
-34.24
-24.15
-13.28
-3.08
5.44
11.95
16.65
19.98
22.34
23.95
24.85
25.07
24.71
23.97
23.1
22.31
21.7
21.26
20.89
20.45
19.82
18.91
17.65
15.98
13.86
11.3
8.33
5.02
1.44
-2.33
-6.36
-10.8
-15.96
-22.02
-28.92
-36.13
-42.57
-46.88
-47.76
-44.49
-37.28
-27.2
-15.91
-5.04
4.3
11.67
17.28
21.52
24.72
26.96
28.18
28.37
27.67
26.41
25.01
23.78
22.89
22.33
21.95
21.51
20.76
19.46
17.45
14.67
11.25
7.45
3.56
-0.16
-3.6
-6.84
-10.08
-13.59
-17.67
-22.52
-28.25
-34.64
-41.08
-46.56
-49.78
-49.57
-45.29
-37.2
-26.39
-14.49
-3.1
6.68
14.48
20.52
25.21
28.85
31.5
33.06
33.49
32.98
31.87
30.52
29.13
27.69
26.05
24.08
21.82
19.49
17.35
15.53
13.88
12.07
9.69
6.54
2.69
-1.48
-5.51
-9.07
-12.07
-14.74
-17.57
-21.08
-25.7
-31.48
-38.02
-44.36
-49.15
-50.98
-48.82
-42.49
-32.69
-20.87
-8.7
2.42
11.7
18.97
24.43
28.39
31.05
32.54
32.97
32.54
31.5
30.14
28.66
27.18
25.75
24.36
23.0
21.54
19.8
17.6
14.81
11.46
7.74
3.92
0.24
-3.17
-6.38
-9.55
-12.93
-16.71
-21.11
-26.22
-31.98
-38.02
-43.57
-47.46
-48.48
-45.75
-39.14
-29.38
-17.86
-6.16
4.38
13.04
19.65
24.41
27.6
29.47
30.15
29.81
28.67
27.05
25.28
23.61
22.2
21.05
20.1
19.17
18.14
16.84
15.16
13.01
10.37
7.27
3.79
0.08
-3.7
-7.5
-11.36
-15.51
-20.23
-25.72
-31.88
-38.16
-43.54
-46.78
-46.78
-43.01
-35.7
-25.82
-14.83
-4.13
5.23
12.83
18.74
23.25
26.65
29.02
30.29
30.38
29.41
27.7
25.74
24.0
22.76
21.98
21.39
20.62
19.33
17.33
14.6
11.24
7.45
3.45
-0.52
-4.28
-7.74
-10.99
-14.22
-17.76
-21.94
-27.0
-32.97
-39.47
-45.69
-50.42
-52.31
-50.34
-44.19
-34.5
-22.64
-10.39
0.78
9.99
17.12
22.49
26.56
29.58
31.62
32.67
32.79
32.2
31.21
30.14
29.16
28.34
27.66
27.06
26.43
25.64
24.52
22.9
20.68
17.89
14.65
11.17
7.68
4.3
1.13
-1.95
-5.18
-8.92
-13.54
-19.21
-25.7
-32.22
-37.51
-40.2
-39.17
-34.06
-25.38
-14.38
-2.69
8.29
17.65
25.17
31.05
35.67
39.29
41.93
43.47
43.81
43.02
41.35
39.15
36.74
34.26
31.74
29.04
26.01
22.51
18.4
13.58
7.98
1.68
-5.08
-11.89
-18.27
-23.77
-28.2
-31.66
-34.61
-37.69
-41.56
-46.66
-52.91
-59.68
-65.85
-70.05
-71.18
-68.69
-62.85
-54.62
-45.29
-36.07
-27.81
-20.91
-15.44
-11.42
-8.88
-7.85
-8.31
-10.0
-12.42
-14.82
-16.47
-16.72
-15.33
-12.4
-8.47
-4.35
-0.89
1.19
1.57
0.26
-2.34
-5.75
-9.59
-13.64
-18.03
-22.98
-28.7
-35.13
-41.77
-47.73
-51.89
-53.21
-51.1
-45.54
-37.14
-26.9
-15.91
-5.06
5.06
14.13
21.9
28.15
32.59
35.11
35.81
35.17
33.9
32.72
32.1
32.15
32.54
32.78
32.4
31.21
29.31
27.02
24.7
22.5
20.31
17.83
14.61
10.28
4.65
-2.15
-9.62
-16.92
-22.92
-26.48
-26.74
-23.43
-16.92
-8.18
1.57
11.17
19.8
27.03
32.65
36.59
38.75
39.1
37.81
35.3
32.22
29.2
26.67
24.67
22.94
21.05
18.71
15.91
12.92
10.15
7.88
6.06
4.36
2.22
-0.9
-5.35
-11.22
-18.24
-25.76
-32.78
-38.06
-40.38
-38.85
-33.32
-24.44
-13.52
-2.11
8.47
17.39
24.3
29.17
32.03
32.97
32.14
29.94
27.02
24.11
21.82
20.35
19.48
18.72
17.58
15.78
13.33
10.51
7.63
4.9
2.25
-0.57
-3.99
-8.44
-14.18
-21.18
-28.92
-36.42
-42.29
-45.15
-43.98
-38.54
-29.47
-18.15
-6.2
4.98
14.53
22.21
28.14
32.51
35.4
36.77
36.63
35.22
33.0
30.59
28.46
26.75
25.27
23.61
21.38
18.43
14.91
11.22
7.77
4.8
2.3
-0.02
-2.64
-6.04
-10.58
-16.41
-23.33
-30.74
-37.62
-42.61
-44.4
-42.1
-35.67
-25.96
-14.5
-2.93
7.49
16.2
23.25
28.92
33.41
36.66
38.48
38.78
37.77
35.94
33.92
32.2
31.0
30.25
29.68
29.0
27.9
26.27
24.04
21.28
18.08
14.62
11.0
7.29
3.51
-0.43
-4.65
-9.37
-14.81
-21.05
-27.93
-34.86
-40.79
-44.43
-44.66
-40.91
-33.5
-23.49
-12.37
-1.55
8.08
16.16
22.79
28.16
32.37
35.4
37.18
37.77
37.37
36.35
35.01
33.6
32.24
30.92
29.68
28.48
27.32
26.16
24.86
23.25
21.13
18.36
14.97
11.16
7.26
3.54
0.16
-3.01
-6.31
-10.21
-15.11
-21.14
-27.98
-34.86
-40.6
-43.94
-43.95
-40.32
-33.49
-24.56
-14.82
-5.43
2.89
9.91
15.66
20.3
23.9
26.44
27.94
28.53
28.46
28.06
27.62
27.27
26.99
26.64
26.09
25.27
24.15
22.81
21.24
19.41
17.2
14.51
11.28
7.58
3.6
-0.4
-4.22
-7.77
-11.15
-14.65
-18.63
-23.43
-29.01
-34.88
-40.08
-43.38
-43.68
-40.45
-33.97
-25.25
-15.66
-6.49
1.44
7.87
12.92
16.84
19.74
21.62
22.44
22.31
21.48
20.29
19.08
18.04
17.2
16.46
15.67
14.74
13.62
12.36
11.04
9.67
8.17
6.4
4.17
1.45
-1.62
-4.73
-7.57
-9.94
-11.98
-13.99
-16.41
-19.57
-23.54
-28.08
-32.6
-36.25
-38.08
-37.36
-33.8
-27.73
-20.04
-11.93
-4.5
1.53
5.94
8.91
10.79
11.87
12.3
12.13
11.42
10.26
8.85
7.44
6.27
5.52
5.23
5.32
5.51
5.54
5.2
4.42
3.32
2.09
0.86
-0.34
-1.67
-3.3
-5.36
-7.92
-10.95
-14.43
-18.37
-22.69
-27.11
-31.04
-33.64
-34.07
-31.83
-26.98
-20.28
-12.87
-5.88
-0.12
4.16
7.14
9.18
10.59
11.41
11.56
10.96
9.7
8.1
6.57
5.47
4.93
4.86
4.99
5.0
4.64
3.84
2.62
1.06
-0.72
-2.65
-4.71
-6.9
-9.23
-11.72
-14.32
-17.03
-19.92
-23.12
-26.75
-30.71
-34.53
-37.34
-38.14
-36.17
-31.3
-24.18
-16.04
-8.19
-1.58
3.45
7.11
9.82
11.87
13.31
13.97
13.78
12.85
11.54
10.25
9.21
8.42
7.72
6.94
6.06
5.18
4.43
3.87
3.32
2.54
1.3
-0.52
-2.77
-5.23
-7.65
-9.93
-12.1
-14.36
-16.96
-20.11
-23.94
-28.32
-32.85
-36.84
-39.41
-39.75
-37.4
-32.44
-25.51
-17.61
-9.8
-2.87
2.78
7.12
10.31
12.52
13.83
14.28
13.93
12.95
11.62
10.22
8.91
7.77
6.72
5.69
4.69
3.78
3.08
2.63
2.3
1.86
0.97
-0.6
-2.88
-5.67
-8.61
-11.33
-13.58
-15.41
-17.04
-18.89
-21.31
-24.53
-28.44
-32.57
-36.08
-38.03
-37.57
-34.3
-28.43
-20.79
-12.56
-4.85
1.55
6.42
9.92
12.4
14.17
15.35
15.91
15.83
15.18
14.13
12.97
11.86
10.91
10.07
9.26
8.42
7.56
6.76
6.09
5.5
4.77
3.66
1.94
-0.4
-3.16
-6.02
-8.67
-11.0
-13.17
-15.54
-18.55
-22.5
-27.4
-32.9
-38.21
-42.3
-44.12
-42.89
-38.47
-31.37
-22.64
-13.55
-5.18
1.85
7.39
11.64
14.86
17.23
18.82
19.63
19.73
19.29
18.49
17.56
16.64
15.8
15.08
14.43
13.72
12.77
11.38
9.42
6.94
4.13
1.28
-1.36
-3.72
-5.85
-8.01
-10.48
-13.63
-17.73
-22.87
-28.86
-35.09
-40.59
-44.18
-44.85
-42.03
-35.89
-27.28
-17.46
-7.75
0.87
7.91
13.41
17.57
20.62
22.63
23.49
23.12
21.65
19.45
17.09
15.09
13.76
13.06
12.64
12.06
10.94
9.15
6.84
4.27
1.7
-0.75
-3.14
-5.64
-8.43
-11.65
-15.37
-19.69
-24.66
-30.14
-35.69
-40.45
-43.27
-43.11
-39.46
-32.6
-23.55
-13.7
-4.29
3.92
10.74
16.32
20.9
24.48
26.92
28.0
27.69
26.24
24.14
21.92
20.04
18.69
17.79
17.07
16.19
14.92
13.15
10.99
8.61
6.19
3.83
1.53
-0.77
-3.23
-6.05
-9.49
-13.76
-18.96
-24.92
-31.11
-36.57
-40.17
-40.85
-38.0
-31.72
-22.82
-12.62
-2.47
6.53
13.87
19.52
23.75
26.88
29.1
30.43
30.87
30.46
29.36
27.89
26.36
25.04
24.1
23.54
23.23
22.94
22.36
21.24
19.39
16.82
13.68
10.2
6.6
3.04
-0.45
-3.96
-7.7
-11.9
-16.8
-22.55
-29.0
-35.62
-41.45
-45.23
-45.76
-42.34
-35.11
-24.99
-13.44
-2.01
8.16
16.51
23.04
28.01
31.73
34.41
36.14
36.99
37.07
36.55
35.64
34.53
33.35
32.17
31.03
29.88
28.69
27.4
25.91
24.09
21.77
18.8
15.11
10.8
6.18
1.66
-2.44
-6.02
-9.33
-12.87
-17.19
-22.65
-29.17
-36.09
-42.32
-46.53
-47.54
-44.7
-38.1
-28.64
-17.73
-6.89
2.67
10.37
16.22
20.62
23.99
26.56
28.35
29.23
29.16
28.3
26.98
25.65
24.63
24.02
23.71
23.43
22.89
21.91
20.41
18.45
16.13
13.54
10.74
7.78
4.69
1.5
-1.81
-5.36
-9.38
-14.14
-19.8
-26.17
-32.63
-38.13
-41.43
-41.5
-37.84
-30.75
-21.22
-10.67
-0.53
8.15
14.88
19.66
22.84
24.84
25.97
26.44
26.35
25.84
25.06
24.21
23.44
22.8
22.15
21.32
20.13
18.49
16.38
13.87
11.01
7.87
4.52
1.02
-2.46
-5.79
-8.87
-11.76
-14.68
-17.94
-21.86
-26.6
-32.03
-37.55
-42.17
-44.7
-44.13
-39.96
-32.51
-22.82
-12.33
-2.39
6.12
12.87
18.0
21.87
24.8
26.91
28.22
28.73
28.44
27.47
25.98
24.22
22.47
20.97
19.92
19.36
19.16
19.06
18.72
17.86
16.34
14.15
11.46
8.46
5.33
2.18
-0.97
-4.2
-7.69
-11.67
-16.42
-22.04
-28.31
-34.52
-39.49
-41.94
-40.88
-36.03
-28.0
-18.02
-7.56
2.18
10.51
17.27
22.57
26.62
29.52
31.3
31.99
31.74
30.78
29.35
27.68
25.94
24.21
22.57
21.03
19.59
18.15
16.62
14.85
12.76
10.29
7.51
4.51
1.4
-1.69
-4.71
-7.69
-10.7
-13.9
-17.52
-21.79
-26.83
-32.47
-38.15
-42.88
-45.49
-44.99
-40.93
-33.67
-24.22
-13.97
-4.18
4.32
11.28
16.82
21.17
24.48
26.72
27.82
27.78
26.76
25.09
23.17
21.32
19.73
18.42
17.25
16.02
14.5
12.6
10.33
7.83
5.26
2.76
0.36
-2.01
-4.5
-7.24
-10.32
-13.82
-17.79
-22.3
-27.27
-32.37
-36.87
-39.79
-40.1
-37.22
-31.26
-23.1
-14.07
-5.47
1.79
7.44
11.71
14.97
17.46
19.21
20.13
20.15
19.41
18.23
16.99
15.97
15.3
14.86
14.45
13.77
12.64
10.95
8.73
6.1
3.24
0.3
-2.62
-5.56
-8.57
-11.82
-15.47
-19.71
-24.66
-30.24
-36.02
-41.19
-44.63
-45.22
-42.28
-35.88
-26.85
-16.58
-6.49
2.36
9.52
15.04
19.21
22.26
24.27
25.2
25.07
24.02
22.38
20.55
18.85
17.48
16.46
15.63
14.76
13.56
11.8
9.39
6.44
3.26
0.19
-2.51
-4.83
-6.98
-9.35
-12.33
-16.18
-20.95
-26.5
-32.51
-38.43
-43.47
-46.65
-47.01
-43.93
-37.45
-28.33
-17.87
-7.54
1.52
8.76
14.19
18.17
21.06
23.08
24.23
24.47
23.86
22.62
21.04
19.47
18.1
17.04
16.28
15.73
15.24
14.62
13.65
12.17
10.15
7.69
4.97
2.16
-0.69
-3.62
-6.76
-10.24
-14.23
-18.91
-24.45
-30.79
-37.46
-43.46
-47.47
-48.17
-44.82
-37.59
-27.58
-16.42
-5.73
3.4
10.58
16.02
20.16
23.36
25.69
27.07
27.33
26.52
24.89
22.84
20.84
19.22
18.09
17.38
16.88
16.37
15.68
14.69
13.34
11.57
9.36
6.73
3.79
0.73
-2.31
-5.27
-8.29
-11.69
-15.87
-21.15
-27.48
-34.31
-40.59
-44.98
-46.27
-43.76
-37.61
-28.7
-18.45
-8.25
0.9
8.57
14.8
19.83
23.86
26.9
28.83
29.54
29.07
27.65
25.7
23.67
21.89
20.54
19.5
18.51
17.24
15.52
13.31
10.8
8.18
5.6
3.08
0.46
-2.42
-5.7
-9.41
-13.58
-18.24
-23.44
-29.12
-34.89
-39.93
-43.15
-43.5
-40.39
-33.98
-25.16
-15.28
-5.59
3.01
