-7.71
-12.02
-17.16
-23.21
-30.0
-37.06
-43.43
-47.9
-49.25
-46.73
-40.35
-30.86
-19.6
-7.96
2.95
12.47
20.34
26.51
30.88
33.4
34.04
32.98
30.64
27.67
24.66
22.08
20.12
18.7
17.57
16.42
15.04
13.29
11.1
8.51
5.56
2.32
-1.16
-4.87
-8.83
-13.14
-17.95
-23.38
-29.53
-36.3
-43.27
-49.61
-54.15
-55.69
-53.31
-46.81
-36.79
-24.54
-11.62
0.57
11.16
19.85
26.73
31.97
35.61
37.55
37.73
36.29
33.74
30.81
28.2
26.36
25.28
24.58
23.73
22.28
20.08
17.24
14.01
10.67
7.31
3.91
0.32
-3.61
-8.04
-13.12
-18.98
-25.68
-33.08
-40.69
-47.59
-52.53
-54.27
-51.94
-45.42
-35.38
-23.15
-10.29
1.8
12.24
20.68
27.18
31.9
35.04
36.66
36.79
35.58
33.36
30.59
27.78
25.31
23.34
21.77
20.34
18.76
16.78
14.26
11.23
7.83
4.29
0.79
-2.61
-6.05
-9.77
-14.06
-19.12
-25.06
-31.88
-39.38
-47.07
-54.12
-59.31
-61.34
-59.22
-52.68
-42.32
-29.42
-15.49
-1.81
10.88
22.34
32.59
41.54
48.87
54.01
56.46
56.08
53.32
49.14
44.82
41.42
39.53
39.06
39.38
39.68
39.3
37.97
35.75
32.84
29.39
25.4
20.72
15.22
8.87
1.7
-6.21
-14.82
-24.01
-33.48
-42.53
-50.03
-54.64
-55.27
-51.45
-43.62
-32.99
-21.07
-9.26
1.53
10.89
18.8
25.24
30.14
33.37
34.86
34.78
33.51
31.61
29.54
27.65
26.01
24.49
22.87
20.92
18.54
15.79
12.86
9.98
7.29
4.7
1.98
-1.24
-5.36
-10.57
-16.86
-23.79
-30.55
-35.97
-38.81
-38.0
-33.01
-24.07
-12.06
1.62
15.51
28.35
39.27
47.75
53.49
56.35
56.33
53.66
48.91
42.92
36.62
30.79
25.8
21.54
17.58
13.42
8.73
3.53
-1.98
-7.53
-13.02
-18.55
-24.35
-30.76
-38.02
-46.33
-55.72
-65.98
-76.48
-86.17
-93.7
-97.73
-97.4
-92.59
-84.0
-72.87
-60.54
-48.12
-36.25
-25.22
-15.2
-6.49
0.5
5.35
7.87
8.32
7.31
5.67
4.09
2.97
2.29
1.74
0.95
-0.31
-2.04
-4.1
-6.27
-8.51
-10.86
-13.5
-16.63
-20.43
-25.06
-30.66
-37.28
-44.75
-52.5
-59.52
-64.5
-66.21
-63.86
-57.38
-47.48
-35.35
-22.3
-9.49
2.38
12.89
21.81
29.0
34.28
37.62
39.18
39.37
38.87
38.35
38.35
39.07
40.38
41.89
43.12
43.72
43.58
42.75
41.44
39.83
38.04
36.08
33.86
31.27
28.12
24.21
19.29
13.16
5.91
-1.99
-9.5
-15.25
-17.92
-16.62
-11.28
-2.72
7.64
18.25
27.85
35.75
41.76
46.07
48.91
50.44
50.73
49.93
48.28
46.14
43.95
42.05
40.57
39.43
38.4
37.16
35.45
33.13
30.22
26.85
23.21
19.51
15.82
12.07
8.01
3.39
-2.08
-8.52
-15.88
-23.88
-31.91
-39.09
-44.29
-46.43
-44.76
-39.23
-30.48
-19.74
-8.42
2.27
11.54
19.02
24.59
28.26
30.02
29.94
28.27
25.48
22.19
18.97
16.26
14.14
12.45
10.83
8.99
6.76
4.21
1.56
-0.99
-3.32
-5.49
-7.68
-10.17
-13.27
-17.24
-22.31
-28.44
-35.23
-41.81
-46.9
-49.18
-47.69
-42.27
-33.57
-22.88
-11.63
-0.98
8.38
16.13
22.06
25.97
27.67
27.16
24.86
21.56
18.18
15.47
13.74
12.82
12.2
11.3
9.74
7.46
4.71
1.89
-0.7
-2.92
-4.94
-7.13
-10.0
-14.04
-19.52
-26.35
-34.02
-41.53
-47.59
-50.92
-50.55
-46.21
-38.38
-28.16
-16.88
-5.79
4.27
12.83
19.64
24.61
27.6
28.59
27.79
25.66
22.85
20.05
17.75
16.08
14.87
13.76
12.41
10.64
8.5
6.21
4.03
2.13
0.49
-1.13
-3.13
-5.97
-10.11
-15.8
-22.91
-30.82
-38.4
-44.23
-47.04
-46.06
-41.29
-33.53
-23.93
-13.7
-3.71
5.59
14.04
21.5
27.7
32.25
34.8
35.26
33.92
31.37
28.33
25.41
22.93
20.88
19.01
17.02
14.71
12.06
9.23
6.42
3.74
1.16
-1.49
-4.47
-8.06
-12.49
-17.87
-24.16
-31.06
-37.91
-43.75
-47.41
-47.97
-44.97
-38.69
-29.98
-20.02
-9.83
-0.15
8.69
16.57
23.32
28.74
32.53
34.49
34.67
33.39
31.18
28.6
26.13
24.03
22.33
20.77
19.01
16.77
13.95
10.7
7.3
4.03
1.0
-1.87
-4.81
-8.09
-11.95
-16.57
-22.01
-28.21
-34.82
-41.12
-46.09
-48.59
-47.77
-43.39
-35.9
-26.3
-15.79
-5.41
4.14
12.52
19.52
24.94
28.6
30.39
30.39
28.99
26.7
24.16
21.87
20.05
18.7
17.56
16.29
14.61
12.37
9.66
6.67
3.65
0.7
-2.21
-5.28
-8.7
-12.65
-17.2
-22.37
-28.14
-34.32
-40.53
-46.0
-49.69
-50.57
-47.96
-41.82
-32.83
-22.13
-10.97
-0.41
8.94
16.81
23.1
27.76
30.67
31.75
31.12
29.17
26.46
23.64
21.21
19.35
17.94
16.64
15.15
13.3
11.18
8.93
6.72
4.61
2.5
0.24
-2.35
-5.37
-8.97
-13.28
-18.42
-24.36
-30.78
-36.98
-41.91
-44.39
-43.54
-39.09
-31.49
-21.83
-11.5
-1.67
6.91
13.95
19.45
23.48
26.01
27.01
26.56
25.02
22.94
20.94
19.43
18.51
17.91
17.18
15.92
13.94
11.33
8.35
5.28
2.25
-0.75
-3.91
-7.4
-11.33
-15.75
-20.66
-26.02
-31.7
-37.3
-42.06
-44.96
-45.03
-41.69
-35.07
-25.98
-15.63
-5.23
4.36
12.75
19.83
25.62
30.01
32.84
33.95
33.38
31.43
28.6
25.47
22.56
20.16
18.27
16.7
15.1
13.2
10.92
8.37
5.76
3.24
0.8
-1.71
-4.48
-7.67
-11.37
-15.69
-20.83
-26.97
-34.07
-41.56
-48.35
-52.97
-54.11
-51.11
-44.2
-34.39
-23.07
-11.53
-0.64
9.14
17.62
24.68
30.2
33.99
36.0
36.3
35.11
32.83
29.95
26.97
24.33
22.3
20.88
19.83
18.8
17.45
15.63
13.36
10.8
8.08
5.23
2.19
-1.18
-4.96
-9.19
-13.91
-19.19
-25.17
-31.86
-38.97
-45.71
-50.92
-53.31
-51.97
-46.68
-38.1
-27.42
-16.05
-5.09
4.78
13.29
20.36
25.95
29.99
32.44
33.39
33.07
31.81
29.96
27.87
25.84
24.1
22.75
21.76
20.9
19.88
18.43
16.39
13.79
10.74
7.39
3.87
0.26
-3.4
-7.13
-11.08
-15.51
-20.75
-26.98
-33.99
-41.04
-46.93
-50.29
-50.04
-45.8
-38.03
-27.8
-16.49
-5.31
4.89
13.68
20.85
26.31
30.06
32.11
32.62
31.91
30.35
28.31
26.11
23.96
22.01
20.33
18.92
17.73
16.61
15.38
13.92
12.19
10.2
8.0
5.58
2.88
-0.18
-3.65
-7.57
-12.01
-17.1
-23.0
-29.69
-36.74
-43.26
-47.93
-49.48
-47.13
-40.88
-31.58
-20.59
-9.31
1.19
10.35
18.01
24.13
28.65
31.48
32.56
32.05
30.29
27.82
25.13
22.59
20.36
18.42
16.68
15.04
13.44
11.83
10.15
8.31
6.23
3.85
1.18
-1.71
-4.71
-7.71
-10.67
-13.71
-17.14
-21.32
-26.56
-32.76
-39.33
-45.1
-48.67
-48.86
-45.16
-37.88
-28.1
-17.25
-6.61
2.93
10.94
17.32
22.06
25.14
26.55
26.39
24.94
22.68
20.12
17.73
15.81
14.4
13.35
12.38
11.23
9.75
7.91
5.86
3.8
1.87
0.07
-1.77
-3.94
-6.74
-10.36
-14.89
-20.25
-26.25
-32.5
-38.36
-42.94
-45.23
-44.42
-40.17
-32.83
-23.32
-12.92
-2.81
6.19
13.7
19.67
24.11
26.99
28.21
27.83
26.11
23.56
20.8
18.37
16.57
15.37
14.55
13.72
12.58
10.95
8.85
6.46
3.99
1.58
-0.81
-3.39
-6.47
-10.33
-15.12
-20.85
-27.37
-34.36
-41.3
-47.42
-51.7
-53.07
-50.78
-44.67
-35.35
-24.05
-12.24
-1.22
8.23
15.87
21.77
26.12
29.02
30.45
30.46
29.21
27.06
24.5
22.0
19.85
18.1
16.59
15.08
13.33
11.28
8.93
6.41
3.84
1.23
-1.48
-4.44
-7.76
-11.59
-16.02
-21.19
-27.25
-34.12
-41.35
-48.01
-52.79
-54.4
-52.03
-45.65
-36.1
-24.76
-13.08
-2.17
7.38
15.43
22.07
27.33
31.18
33.55
34.44
34.05
32.72
30.92
29.05
27.4
26.06
24.95
23.83
22.4
20.4
17.75
14.48
10.8
6.92
2.98
-0.97
-5.04
-9.39
-14.23
-19.8
-26.27
-33.57
-41.28
-48.51
-53.98
-56.42
-54.92
-49.34
-40.38
-29.3
-17.54
-6.28
3.76
12.36
19.51
25.24
29.45
32.02
32.9
32.28
30.59
28.4
26.29
24.59
23.38
22.51
21.69
20.69
19.41
17.84
16.07
14.15
12.03
9.61
6.8
3.51
-0.28
-4.68
-9.85
-16.03
-23.26
-31.15
-38.81
-44.89
-47.99
-47.14
-42.15
-33.71
-23.1
-11.74
-0.8
9.05
17.54
24.57
30.08
33.85
35.71
35.63
33.89
31.04
27.74
24.65
22.21
20.5
19.34
18.33
17.04
15.2
12.77
9.91
6.95
4.13
1.51
-1.1
-4.03
-7.69
-12.39
-18.23
-25.02
-32.21
-38.96
-44.19
-46.86
-46.23
-42.08
-34.86
-25.47
-15.04
-4.58
5.14
13.65
20.7
26.05
29.56
31.17
31.1
29.79
27.91
26.06
24.65
23.67
22.81
21.64
19.86
17.41
14.54
11.58
8.77
6.12
3.44
0.37
-3.4
-8.08
-13.73
-20.2
-27.18
-34.01
-39.77
-43.36
-43.86
-40.78
-34.31
-25.26
-14.78
-3.98
6.29
15.58
23.65
30.28
35.16
37.98
38.61
37.28
34.59
31.37
28.35
25.91
23.98
22.15
19.94
17.1
13.71
10.14
6.8
3.94
1.47
-0.93
-3.69
-7.19
-11.66
-17.2
-23.74
-31.02
-38.5
-45.25
-50.13
-51.97
-50.03
-44.28
-35.37
-24.5
-12.91
-1.62
8.81
18.08
26.05
32.51
37.15
39.73
40.25
38.97
36.5
33.52
30.61
28.09
25.96
23.99
21.86
19.33
16.36
13.1
9.74
6.48
3.31
0.08
-3.53
-7.83
-13.03
-19.16
-26.03
-33.14
-39.7
-44.73
-47.21
-46.39
-42.02
-34.43
-24.52
-13.41
-2.13
8.56
18.19
26.55
33.42
38.55
41.67
42.65
41.59
38.95
35.4
31.69
28.38
25.73
23.63
21.72
19.62
17.08
14.11
10.91
7.78
4.89
2.24
-0.38
-3.28
-6.8
-11.21
-16.65
-23.09
-30.2
-37.24
-43.15
-46.72
-46.91
-43.25
-36.03
-26.16
-14.95
-3.61
6.96
16.28
24.18
30.57
35.32
38.29
39.38
38.67
36.51
33.41
29.99
26.76
24.03
21.86
20.01
18.18
16.1
13.67
11.03
8.43
6.09
4.02
2.02
-0.24
-3.1
-6.76
-11.32
-16.73
-22.86
-29.4
-35.7
-40.8
-43.54
-42.99
-38.8
-31.36
-21.77
-11.42
-1.51
7.23
14.61
20.69
25.52
29.01
30.94
31.21
29.95
27.62
24.87
22.33
20.41
19.21
18.48
17.81
16.8
15.19
13.04
10.58
8.16
5.96
3.98
1.97
-0.38
-3.39
-7.19
-11.81
-17.14
-22.91
-28.68
-33.73
-37.15
-38.05
-35.83
-30.48
-22.59
-13.19
-3.45
5.68
13.64
20.19
25.29
28.9
30.99
31.53
30.66
28.73
26.22
23.64
21.36
19.51
17.96
16.43
14.65
12.47
9.9
7.14
4.39
1.82
-0.58
-2.96
-5.6
-8.77
-12.66
-17.36
-22.82
-28.84
-35.07
-40.94
-45.65
-48.35
-48.28
-45.09
-38.9
-30.37
-20.48
-10.22
-0.4
8.5
16.18
22.48
27.25
30.33
31.69
31.47
30.02
27.83
25.39
23.1
21.13
19.47
17.91
16.24
14.31
12.12
9.75
7.35
4.92
2.38
-0.43
-3.67
-7.39
-11.57
-16.19
-21.26
-26.84
-32.84
-38.89
-44.3
-48.07
-49.23
-47.2
-41.92
-33.99
-24.44
-14.4
-4.82
3.74
11.13
17.35
22.48
26.46
29.16
30.46
30.38
29.18
27.32
25.3
23.52
22.14
21.04
19.94
18.52
16.58
14.13
11.36
8.52
5.77
3.11
0.37
-2.68
-6.19
-10.23
-14.84
-20.01
-25.83
-32.19
-38.71
-44.57
-48.63
-49.72
-47.09
-40.75
-31.5
-20.72
-9.84
0.03
8.36
15.12
20.51
24.66
27.54
28.98
28.87
27.35
24.8
21.81
18.92
16.47
14.55
13.06
11.83
10.68
9.55
8.38
7.15
5.75
4.07
1.99
-0.52
-3.4
-6.6
-10.11
-13.98
-18.35
-23.31
-28.65
-33.8
-37.88
-39.89
-39.06
-35.19
-28.71
-20.56
-11.91
-3.71
3.44
9.35
14.06
17.64
20.12
21.45
21.64
20.86
19.48
17.93
16.62
15.68
14.99
14.25
13.14
11.49
9.34
6.91
4.41
2.02
-0.27
-2.57
-5.11
-8.08
-11.72
-16.19
-21.51
-27.5
-33.63
-39.06
-42.81
-43.97
-42.05
-37.12
-29.75
-20.91
-11.6
-2.63
5.49
12.49
18.21
22.5
25.22
26.31
25.92
24.36
22.15
19.78
17.58
15.68
13.95
12.12
9.92
7.24
4.19
1.06
-1.82
-4.28
-6.3
-8.15
-10.2
-12.87
-16.5
-21.27
-27.1
-33.55
-39.85
-44.94
-47.73
-47.42
-43.79
-37.28
-28.83
-19.56
-10.39
-1.92
5.59
12.03
17.31
21.28
23.75
24.68
24.23
22.8
20.86
18.9
17.22
15.85
14.58
13.05
10.95
8.16
4.81
1.31
-1.9
-4.57
-6.75
-8.84
-11.36
-14.76
-19.22
-24.63
-30.69
-36.91
-42.67
-47.18
-49.6
-49.2
-45.61
-39.03
-30.2
-20.21
-10.21
-1.05
6.75
13.02
17.76
21.03
22.89
23.43
22.74
21.0
18.5
15.63
12.81
10.44
8.7
7.53
6.64
5.72
4.61
3.35
2.2
1.38
0.94
0.69
0.25
-0.76
-2.58
-5.33
-8.87
-12.9
-16.88
-20.03
-21.4
-20.09
-15.53
-7.68
2.93
15.42
28.81
42.3
55.33
67.59
78.86
88.92
97.62
104.84
110.63
115.14
118.56
121.12
122.9
123.93
124.0
122.82
120.07
115.49
109.0
100.76
91.12
80.46
69.06
57.02
44.27
30.62
15.98
0.42
-15.64
-31.44
-45.88
-57.69
-65.68
-69.04
-67.64
-62.05
-53.48
-43.43
-33.21
-23.71
-15.28
-7.92
-1.58
3.67
7.69
10.5
12.5
14.42
17.14
21.24
26.63
32.58
37.93
41.5
42.5
40.65
36.15
29.47
21.11
11.51
0.91
-10.63
-23.22
-37.04
-52.07
-67.88
-83.52
-97.57
-108.51
-115.27
-117.55
-116.08
-112.4
-108.36
-105.62
-105.11
-106.89
-110.3
-114.26
-117.73
-119.99
-120.86
-120.66
-119.93
-119.19
-118.57
-117.75
-115.99
-112.45
-106.53
-98.17
-87.87
-76.52
-64.97
-53.75
-43.02
-32.68
-22.73
-13.43
-5.23
1.46
6.66
10.92
15.23
20.58
27.56
36.11
45.63
55.23
64.15
71.9
78.3
83.36
87.1
89.45
90.24
89.28
86.4
81.54
74.77
66.28
56.37
45.44
33.92
22.22
10.7
-0.41
-11.0
-21.12
-30.87
-40.45
-50.1
-60.02
-70.23
-80.48
-90.19
-98.54
-104.64
-107.84
-107.9
-105.09
-100.07
-93.57
-86.28
-78.68
-71.03
-63.45
-56.1
-49.11
-42.62
-36.79
-31.73
-27.51
-24.24
-22.0
-20.86
-20.8
-21.69
-23.28
-25.2
-27.05
-28.52
-29.44
-29.86
-30.05
-30.44
-31.47
-33.39
-36.06
-38.88
-40.79
-40.59
-37.33
-30.69
-21.12
-9.69
2.3
13.81
24.26
33.59
41.93
49.31
55.52
60.2
63.01
63.91
63.28
61.74
59.93
58.29
56.92
55.63
54.09
52.04
49.4
46.29
42.98
39.67
36.48
33.31
29.95
26.17
21.75
16.54
10.54
3.93
-2.79
-8.78
-12.94
-14.24
-12.08
-6.56
1.46
10.69
19.87
28.13
35.18
41.11
46.11
50.25
53.37
55.24
55.69
54.8
52.8
50.09
47.06
44.02
41.2
38.68
36.42
34.29
32.15
29.9
27.58
25.3
23.21
21.28
19.3
16.9
13.71
9.43
4.02
-2.33
-9.19
-15.89
-21.55
-25.2
-26.0
-23.52
-17.97
-10.18
-1.35
7.36
15.15
21.77
27.27
31.81
35.34
37.69
38.68
38.36
37.06
35.37
33.84
32.82
32.31
31.98
31.38
30.14
28.12
25.48
22.59
19.79
17.29
14.98
12.62
9.89
6.57
2.65
-1.78
-6.53
-11.4
-16.06
-20.0
-22.55
-22.97
-20.78
-15.98
-9.11
-1.12
6.93
14.23
20.3
24.98
28.28
30.2
30.74
29.99
28.21
25.88
23.56
21.72
20.58
20.06
19.86
19.6
18.99
17.9
16.42
14.71
12.96
11.23
9.45
7.41
4.85
1.56
-2.55
-7.32
-12.37
-17.1
-20.7
-22.44
-21.77
-18.59
-13.29
-6.69
0.25
6.69
12.16
16.48
19.7
21.93
23.21
23.55
23.03
21.85
20.35
18.89
17.69
16.76
15.88
14.75
13.2
11.2
8.99
6.87
5.03
3.39
1.63
-0.67
-3.87
-8.08
-13.06
-18.29
-23.04
-26.53
-28.06
-27.23
-24.05
-18.96
-12.72
-6.16
0.07
5.61
10.35
14.26
17.24
19.15
19.83
19.4
18.16
16.64
15.3
14.36
13.76
13.18
12.23
10.67
8.51
6.04
3.63
1.64
0.17
-0.96
-2.09
-3.65
-5.95
-9.12
-13.08
-17.56
-22.04
-25.83
-28.15
-28.39
-26.27
-22.05
-16.46
-10.38
-4.58
0.6
5.16
9.23
12.87
15.88
17.87
18.52
17.82
16.15
14.14
12.42
11.33
10.82
10.53
10.03
9.01
7.45
5.53
3.53
1.61
-0.24
-2.18
-4.44
-7.11
-10.22
-13.69
-17.46
-21.51
-25.72
-29.79
-33.07
-34.74
-34.0
-30.52
-24.63
-17.25
-9.64
-2.83
2.62
6.76
9.97
12.67
14.94
16.63
17.4
17.07
15.77
13.9
11.99
10.47
9.52
9.03
8.7
8.19
7.21
5.68
3.65
1.3
-1.12
-3.4
-5.43
-7.23
-8.92
-10.66
-12.72
-15.27
-18.42
-22.08
-25.93
-29.33
-31.46
-31.47
-28.88
-23.73
-16.72
-9.01
-1.79
4.07
8.27
11.03
12.8
13.98
14.72
14.98
14.63
13.7
12.39
11.01
9.86
9.03
8.43
7.82
6.96
5.72
4.13
2.34
0.54
-1.16
-2.78
-4.46
-6.39
-8.76
-11.73
-15.32
-19.49
-24.06
-28.67
-32.79
-35.73
-36.83
-35.58
-31.89
-26.13
-19.07
-11.65
-4.67
1.4
6.45
10.6
13.93
16.43
17.95
18.39
17.85
16.67
15.36
14.36
13.81
13.47
12.86
11.51
9.26
6.37
3.35
0.72
-1.25
-2.66
-3.87
-5.35
-7.41
-10.17
-13.56
-17.44
-21.55
-25.51
-28.72
-30.48
-30.2
-27.67
-23.18
-17.44
-11.34
-5.54
-0.38
4.1
8.0
11.28
13.74
15.09
15.18
14.16
12.44
10.61
9.14
8.23
7.76
7.35
6.62
5.28
3.36
1.12
-1.1
-3.04
-4.67
-6.18
-7.85
-9.95
-12.66
-16.03
-20.0
-24.38
-28.73
-32.39
-34.56
-34.49
-31.84
-26.8
-20.13
-12.83
-5.78
0.53
6.03
10.83
15.03
18.44
20.76
21.73
21.34
19.9
17.97
16.09
14.59
13.46
12.48
11.33
9.81
7.9
5.76
3.57
1.46
-0.58
-2.67
-5.02
-7.76
-11.01
-14.84
-19.3
-24.37
-29.85
-35.14
-39.35
-41.44
-40.61
-36.66
-30.13
-22.06
-13.62
-5.68
1.41
7.71
13.37
18.33
22.29
24.93
26.06
25.85
24.75
23.31
21.96
20.89
20.04
19.19
18.09
16.52
14.38
11.71
8.72
5.68
2.85
0.38
-1.79
-3.91
-6.28
-9.18
-12.8
-17.2
-22.28
-27.74
-33.03
-37.33
-39.76
-39.58
-36.48
-30.78
-23.35
-15.3
-7.67
-1.07
4.34
8.78
12.54
15.81
18.62
20.83
22.31
23.03
23.09
22.67
21.99
21.18
20.29
19.3
18.12
16.7
15.03
13.21
11.37
9.6
8.0
6.48
4.91
3.05
0.69
-2.3
-6.03
-10.53
-15.7
-21.22
-26.49
-30.59
-32.57
-31.7
-27.89
-21.71
-14.24
-6.66
0.23
6.15
11.27
15.84
19.9
23.22
25.39
26.19
25.72
24.41
22.81
21.39
20.38
19.78
19.41
19.06
18.53
17.68
16.46
14.85
12.9
10.67
8.23
5.58
2.68
-0.57
-4.27
-8.52
-13.37
-18.77
-24.42
-29.75
-33.91
-35.94
-35.09
-31.09
-24.4
-16.01
-7.14
1.13
8.19
13.92
18.42
21.85
24.15
25.21
24.93
23.52
21.42
19.22
17.39
16.1
15.21
14.32
13.09
11.38
9.32
7.22
5.37
3.9
2.66
1.35
-0.38
-2.74
-5.8
-9.51
-13.79
-18.53
-23.5
-28.26
-32.05
-33.98
-33.36
-29.97
-24.24
-17.08
-9.52
-2.38
3.95
9.45
14.24
18.38
21.75
24.16
25.42
25.55
24.73
23.32
21.69
20.15
18.88
17.83
16.77
15.42
13.5
10.96
7.94
4.72
1.59
-1.32
-4.09
-6.91
-10.02
-13.54
-17.52
-21.95
-26.71
-31.5
-35.76
-38.66
-39.32
-37.08
-31.89
-24.36
-15.6
-6.84
1.02
7.59
12.94
17.35
21.0
23.9
25.87
26.78
26.67
25.76
24.4
22.85
21.29
19.76
18.25
16.7
15.11
13.45
11.69
9.74
7.58
5.19
2.61
-0.1
-2.89
-5.7
-8.53
-11.44
-14.6
-18.26
-22.57
-27.41
-32.2
-35.95
-37.54
-36.19
-31.78
-24.98
-16.96
-8.94
-1.75
4.3
9.3
13.43
16.75
19.14
20.47
20.79
20.33
19.48
18.57
17.8
17.15
16.55
15.87
15.05
14.09
12.98
11.69
10.18
8.44
6.53
4.56
2.68
0.94
-0.71
-2.45
-4.5
-7.12
-10.52
-14.78
-19.79
-25.15
-30.14
-33.79
-35.14
-33.58
-29.09
-22.33
-14.43
-6.56
0.37
5.99
10.37
13.8
16.53
18.66
20.15
20.97
21.16
20.87
20.33
19.73
19.23
18.8
18.33
17.67
16.63
15.11
13.12
10.75
8.16
5.48
2.82
0.23
-2.27
-4.74
-7.26
-9.97
-13.08
-16.81
-21.25
-26.23
-31.19
-35.21
-37.24
-36.45
-32.55
-25.92
-17.55
-8.67
-0.4
6.55
11.99
16.08
19.14
21.42
22.95
23.63
23.35
22.1
20.1
17.8
15.65
14.0
12.92
12.18
11.38
10.22
8.58
6.63
4.65
2.87
1.28
-0.32
-2.23
-4.65
-7.65
-11.13
-15.04
-19.35
-24.06
-28.97
-33.55
-36.95
-38.25
-36.79
-32.53
-26.06
-18.41
-10.66
-3.63
2.33
7.17
11.04
14.03
16.09
17.12
17.07
16.08
14.47
12.69
11.14
10.07
9.44
9.02
8.48
7.57
6.2
4.49
2.64
0.87
-0.75
-2.29
-3.94
-5.93
-8.48
-11.74
-15.8
-20.55
-25.65
-30.44
-34.02
-35.49
-34.21
-30.15
-23.86
-16.35
-8.68
-1.64
4.44
9.51
13.72
17.08
19.45
20.7
20.83
20.09
18.92
17.79
17.0
16.58
16.33
15.92
15.0
13.36
10.93
7.84
4.36
0.83
-2.44
-5.29
-7.82
-10.33
-13.19
-16.7
-20.96
-25.8
-30.77
-35.23
-38.34
-39.33
-37.65
-33.21
-26.5
-18.43
-10.11
-2.43
4.14
9.58
14.15
18.01
21.14
23.27
24.12
23.64
22.12
20.12
18.29
17.06
16.51
16.3
15.94
14.96
13.15
10.64
7.71
4.71
1.84
-0.88
-3.59
-6.49
-9.7
-13.32
-17.46
-22.18
-27.49
-33.19
-38.72
-43.16
-45.45
-44.76
-40.83
-34.14
-25.74
-16.87
-8.52
-1.16
5.17
10.68
15.46
19.41
22.26
23.82
24.16
23.66
22.81
22.05
21.6
21.43
21.34
21.07
20.39
19.17
17.35
14.97
12.12
8.96
5.66
2.38
-0.83
-4.0
-7.31
-10.96
-15.19
-20.09
-25.54
-31.05
-35.86
-39.02
-39.65
-37.3
-32.08
-24.65
-16.02
-7.24
0.87
7.94
13.89
18.85
22.95
26.18
28.45
29.68
29.9
29.32
28.31
27.29
26.53
26.07
25.68
25.0
23.68
21.61
18.91
15.9
12.88
10.06
7.44
4.84
2.05
-1.12
-4.78
-8.98
-13.74
-19.01
-24.56
-29.79
-33.82
-35.64
-34.52
-30.33
-23.71
-15.78
-7.75
-0.49
5.68
10.89
15.38
19.21
22.17
23.91
24.23
23.22
21.34
19.16
17.21
15.77
14.79
14.05
13.26
12.22
10.88
9.34
7.71
6.0
4.17
2.06
-0.44
-3.38
-6.74
-10.53
-14.77
-19.47
-24.46
-29.28
-33.09
-34.9
-33.86
-29.7
-22.84
-14.29
-5.3
3.08
10.26
16.08
20.67
24.12
26.4
27.37
27.0
25.47
23.21
20.77
18.64
17.07
16.04
15.31
14.54
13.44
11.84
9.75
7.28
4.61
1.97
-0.54
-2.87
-5.13
-7.49
-10.15
-13.38
-17.38
-22.24
-27.74
-33.21
-37.62
-39.77
-38.73
-34.28
-27.01
-18.16
-9.18
-1.13
5.52
10.92
15.48
19.45
22.82
25.27
26.48
26.37
25.22
23.57
21.95
20.71
19.81
18.96
17.75
15.9
13.43
10.59
7.78
5.32
3.27
1.46
-0.47
-2.82
-5.77
-9.28
-13.27
-17.66
-22.4
-27.4
-32.31
-36.43
-38.84
-38.64
-35.38
-29.3
-21.3
-12.62
-4.44
2.53
8.1
12.5
16.04
18.87
20.95
22.09
22.22
21.51
20.27
19.0
18.0
17.39
17.03
16.64
15.92
14.75
13.07
10.99
8.59
5.93
3.0
-0.18
-3.59
-7.12
-10.67
-14.19
-17.75
-21.48
-25.57
-29.98
-34.38
-38.06
-40.06
-39.53
-36.07
-29.91
-21.88
-13.1
-4.62
2.89
9.23
14.5
18.9
22.52
25.27
26.98
27.57
27.14
26.0
24.64
23.49
22.79
22.58
22.64
22.67
22.39
21.66
20.36
18.56
16.28
13.67
10.85
7.94
5.04
2.15
-0.88
-4.27
-8.28
-13.07
-18.54
-24.19
-29.17
-32.39
-32.89
-30.14
-24.31
-16.22
-7.08
1.92
9.91
16.46
21.49
25.06
27.19
27.83
27.02
24.97
22.15
19.12
16.47
14.55
13.39
12.75
12.23
11.46
10.22
8.52
6.51
4.35
2.15
-0.13
-2.6
-5.37
-8.47
-11.87
-15.51
-19.36
-23.44
-27.63
-31.53
-34.45
-35.48
-33.87
-29.33
-22.26
-13.64
-4.67
3.6
10.59
16.2
20.54
23.75
25.8
26.59
26.12
24.59
22.42
20.14
18.19
16.7
15.57
14.45
12.97
10.9
8.21
5.11
1.95
-0.97
-3.46
-5.56
-7.55
-9.81
-12.72
-16.48
-20.97
-25.73
-29.97
-32.75
-33.24
-30.94
-25.93
-18.76
-10.4
-1.87
5.96
12.59
17.78
21.52
23.77
24.58
24.0
22.3
19.93
17.45
15.39
14.02
13.27
12.79
12.13
10.9
8.97
6.5
3.83
1.31
-0.87
-2.76
-4.65
-6.93
-9.95
-13.89
-18.64
-23.8
-28.65
-32.31
-33.86
-32.68
-28.62
-22.14
-14.16
-5.82
1.93
8.51
13.74
17.68
20.37
21.79
21.89
20.75
18.72
16.36
14.26
12.77
11.91
11.34
10.56
9.16
7.0
4.24
1.25
-1.59
-4.03
-6.05
-7.85
-9.81
-12.31
-15.64
-19.85
-24.76
-29.79
-34.14
-36.81
-36.87
-33.84
-27.8
-19.52
-10.21
-1.16
6.71
12.99
17.81
21.48
24.21
25.97
26.53
25.74
23.81
21.28
18.89
17.18
16.29
15.82
15.14
13.67
11.19
7.97
4.58
1.59
-0.7
-2.4
-3.91
-5.8
-8.5
-12.28
-17.17
-22.94
-29.09
-34.84
-39.12
-40.9
-39.42
-34.55
-26.9
-17.67
-8.2
0.45
7.74
13.65
18.38
22.05
24.59
25.74
25.34
23.51
20.74
17.77
15.29
13.72
12.96
12.55
11.85
10.36
7.98
4.94
1.68
-1.38
-4.04
-6.35
-8.53
-10.81
-13.43
-16.62
-20.52
-25.19
-30.33
-35.27
-38.97
-40.39
-38.8
-34.15
-27.12
-18.86
-10.63
-3.36
2.5
6.89
9.97
11.87
12.62
12.24
10.82
8.65
6.1
3.53
1.13
-1.09
-3.29
-5.62
-8.06
-10.43
-12.42
-13.69
-14.05
-13.58
-12.59
-11.54
-10.93
-11.16
-12.49
-15.0
-18.63
-23.11
-27.92
-32.35
-35.53
-36.64
-35.16
-31.07
-24.88
-17.49
-9.84
-2.67
3.65
9.05
13.59
17.3
20.07
21.75
22.29
21.83
20.77
19.59
18.69
18.24
18.1
17.99
17.61
16.81
15.57
14.05
12.37
10.6
8.72
6.63
4.21
1.4
-1.91
-5.77
-10.25
-15.36
-20.92
-26.54
-31.53
-35.09
-36.48
-35.28
-31.54
-25.76
-18.73
-11.26
-4.01
2.62
8.41
13.24
17.01
19.6
21.03
21.39
20.99
20.23
19.5
18.99
18.68
18.3
17.55
16.16
14.16
11.79
9.45
7.5
6.03
4.89
3.65
1.84
-0.89
-4.71
-9.5
-14.87
-20.14
-24.49
-27.08
-27.25
-24.79
-20.01
-13.67
-6.67
0.19
6.43
11.87
16.46
20.13
22.72
24.08
24.23
23.43
22.14
20.86
19.89
19.28
18.79
18.08
16.86
15.01
12.65
10.03
7.43
5.01
2.75
0.44
-2.18
-5.38
-9.3
-13.97
-19.15
-24.34
-28.77
-31.54
-31.87
-29.37
-24.22
-17.16
-9.21
-1.35
5.79
12.02
17.44
22.16
26.1
29.02
30.65
30.87
29.87
28.09
26.04
24.17
22.62
21.29
19.96
18.32
16.25
13.75
10.97
8.11
5.31
2.61
-0.08
-2.87
-5.94
-9.43
-13.43
-17.98
-22.99
-28.14
-32.83
-36.23
-37.47
-36.01
-31.8
-25.41
-17.76
-9.84
-2.33
4.44
10.44
15.69
20.09
23.46
25.59
26.43
26.16
25.12
23.71
22.24
20.88
19.65
18.48
17.26
15.91
14.36
12.59
10.65
8.58
6.48
4.39
2.33
0.23
-2.04
-4.67
-7.84
-11.74
-16.45
-21.84
-27.49
-32.63
-36.29
-37.53
-35.8
-31.15
-24.25
-16.13
-7.87
-0.25
6.36
11.88
16.4
20.01
22.71
24.45
25.3
25.4
24.96
24.24
23.38
22.47
21.45
20.28
18.93
17.42
15.81
14.12
12.3
10.27
7.95
5.4
2.7
0.06
-2.42
-4.73
-7.04
-9.61
-12.74
-16.65
-21.38
-26.7
-32.04
-36.51
-39.12
-39.06
-35.99
-30.28
-22.88
-14.96
-7.57
-1.23
4.01
8.43
12.29
15.63
18.25
19.88
20.4
19.94
18.87
17.64
16.55
15.72
15.06
14.43
13.63
12.64
11.44
10.11
8.73
7.29
5.77
4.07
2.12
-0.11
-2.61
-5.4
-8.55
-12.24
-16.59
-21.54
-26.62
-30.97
-33.53
-33.45
-30.39
-24.74
-17.47
-9.72
-2.48
3.73
8.8
12.88
16.1
18.42
19.69
19.77
18.72
16.82
14.55
12.41
10.8
9.86
9.5
9.43
9.3
8.82
7.85
6.42
4.69
2.84
0.96
-0.92
-2.93
-5.23
-8.03
-11.5
-15.7
-20.53
-25.6
-30.19
-33.43
-34.52
-33.02
-29.05
-23.21
-16.39
-9.44
-2.93
2.84
7.77
11.78
14.75
16.57
17.21
16.8
15.64
14.11
12.57
11.25
10.21
9.41
8.7
7.87
6.74
5.2
3.3
1.2
-0.9
-2.79
-4.46
-6.12
-8.1
-10.8
-14.51
-19.25
-24.73
-30.31
-35.12
-38.28
-39.04
-37.08
-32.58
-26.18
-18.76
-11.18
-4.01
2.44
8.11
12.93
16.71
19.21
20.24
19.88
18.54
16.81
15.2
13.97
13.03
12.07
10.78
9.01
6.86
4.59
2.49
0.69
-0.85
-2.3
-3.88
-5.78
-8.14
-11.04
-14.57
-18.72
-23.34
-28.02
-32.03
-34.51
-34.68
-32.11
-26.97
-19.91
-11.91
-3.93
3.35
9.59
14.73
18.83
21.86
23.75
24.41
23.88
22.37
20.28
18.09
16.17
14.7
13.59
12.65
11.6
10.3
8.74
7.06
5.44
3.96
2.63
1.26
-0.37
-2.54
-5.43
-9.2
-13.73
-18.72
-23.53
-27.35
-29.39
-29.13
-26.51
-21.9
-15.96
-9.42
-2.86
3.38
9.12
14.23
18.52
21.74
23.73
24.43
24.03
22.87
21.34
19.82
18.46
17.29
16.13
14.82
13.21
11.31
9.25
7.18
5.25
3.5
1.88
0.23
-1.67
-4.01
-6.98
-10.68
-15.09
-19.93
-24.63
-28.43
-30.54
-30.43
-27.97
-23.52
-17.73
-11.35
-4.97
1.05
6.51
11.28
15.19
18.06
19.76
20.36
20.09
19.32
18.42
17.62
16.98
16.38
15.62
14.54
13.07
11.21
9.08
6.81
4.49
2.27
0.21
-1.68
-3.53
-5.62
-8.28
-11.76
-15.95
-20.34
-24.08
-26.24
-26.19
-23.78
-19.43
-13.87
-7.84
-1.92
3.63
8.74
13.29
17.12
19.93
21.5
21.81
21.09
19.78
18.37
17.21
16.39
15.75
15.01
13.85
12.09
9.75
6.99
4.08
1.25
-1.34
-3.71
-5.98
-8.36
-11.06
-14.28
-18.07
-22.33
-26.68
-30.51
-32.99
-33.41
-31.35
-26.89
-20.61
-13.39
-6.09
0.71
6.76
12.11
16.79
20.7
23.63
25.36
25.82
25.2
23.88
22.3
20.75
19.36
18.03
16.57
14.79
12.61
10.08
7.45
4.96
2.82
1.06
-0.5
-2.15
-4.19
-6.86
-10.26
-14.39
-19.13
-24.21
-29.09
-33.07
-35.33
-35.24
-32.59
-27.68
-21.27
-14.28
-7.51
-1.45
3.78
8.23
12.06
15.3
17.88
19.68
20.62
20.7
20.09
19.02
17.77
16.58
15.59
14.82
14.18
13.46
12.47
11.06
9.17
6.86
4.28
1.62
-0.95
-3.34
-5.53
-7.65
-9.92
-12.64
-16.1
-20.36
-25.09
-29.52
-32.61
-33.39
-31.39
-26.83
-20.52
-13.5
-6.72
-0.68
4.51
8.93
12.7
15.79
18.09
19.55
20.23
20.34
20.1
19.65
19.06
18.3
17.37
16.33
15.26
14.2
13.12
11.89
10.38
8.46
6.09
3.39
0.49
-2.42
-5.21
-7.89
-10.52
-13.33
-16.54
-20.33
-24.68
-29.29
-33.55
-36.65
-37.82
-36.55
-32.84
-27.13
-20.22
-12.98
-6.13
-0.05
5.13
9.48
13.04
15.82
17.74
18.75
18.92
18.41
17.54
16.56
15.64
14.82
14.0
13.06
11.88
10.46
8.85
7.13
5.4
3.72
2.07
0.41
-1.32
-3.23
-5.45
-8.17
-11.6
-15.83
-20.72
-25.75
-30.06
-32.71
-32.94
-30.51
-25.77
-19.48
-12.58
-5.85
0.2
5.37
9.64
13.06
15.67
17.54
18.73
19.33
19.42
19.09
18.43
17.56
16.6
15.67
14.76
13.78
12.58
11.04
9.14
6.97
4.66
2.34
0.01
-2.41
-5.04
-8.02
-11.4
-15.21
-19.37
-23.74
-28.06
-31.86
-34.53
-35.42
-34.04
-30.28
-24.5
-17.46
-10.05
-3.09
2.94
7.94
12.01
15.34
18.0
19.97
21.15
21.48
21.07
20.11
18.91
17.71
16.71
15.93
15.3
14.61
13.65
12.27
10.37
8.0
5.3
2.48
-0.26
-2.81
-5.21
-7.58
-10.15
-13.1
-16.59
-20.68
-25.27
-30.07
-34.49
-37.72
-38.95
-37.59
-33.56
-27.38
-19.98
-12.36
-5.29
0.89
6.16
10.67
14.49
17.61
19.94
21.41
22.09
22.16
21.83
21.27
20.57
19.76
18.81
17.76
16.63
15.51
14.43
13.37
12.22
10.8
8.95
6.6
3.87
0.92
-2.02
-4.88
-7.75
-10.89
-14.62
-19.12
-24.31
-29.69
-34.45
-37.64
-38.47
-36.58
-32.11
-25.73
-18.31
-10.73
-3.57
2.83
8.39
13.15
17.12
20.28
22.58
24.05
24.73
24.73
24.2
23.36
22.42
21.55
20.8
20.15
19.42
18.45
17.1
15.33
13.18
10.71
7.99
5.05
1.95
-1.27
-4.51
-7.7
-10.86
-14.18
-17.87
-22.14
-26.88
-31.55
-35.26
-37.02
-36.06
-32.21
-25.95
-18.3
-10.43
-3.3
2.61
7.3
11.06
14.17
16.71
18.55
19.45
19.3
18.24
16.69
15.16
14.08
13.59
13.51
13.5
13.21
12.44
11.22
9.7
8.06
6.4
4.7
2.85
0.74
-1.71
-4.51
-7.7
-11.36
-15.59
-20.37
-25.4
-30.0
-33.25
-34.25
-32.47
-27.99
-21.49
-14.0
-6.53
0.24
6.03
10.85
14.81
17.94
20.12
21.23
21.27
20.41
19.01
17.54
16.36
15.65
15.32
15.04
14.43
13.2
11.28
8.91
6.43
4.17
2.24
0.51
-1.3
-3.48
-6.23
-9.62
-13.66
-18.23
-23.12
-27.82
-31.6
-33.66
-33.32
-30.35
-25.07
-18.24
-10.77
-3.48
3.1
8.72
13.3
16.85
19.35
20.8
21.29
21.02
20.26
19.32
18.47
17.79
17.24
16.58
15.58
14.07
11.99
9.49
6.77
4.07
1.47
-1.01
-3.49
-6.07
-8.9
-12.09
-15.78
-20.04
-24.81
-29.72
-34.11
-37.04
-37.66
-35.44
-30.51
-23.61
-15.82
-8.22
-1.52
4.08
8.72
12.64
15.98
18.69
20.58
21.55
21.65
21.11
20.22
19.22
18.18
17.09
15.82
14.28
12.44
10.37
8.19
6.05
4.05
2.19
0.36
-1.63
-3.95
-6.71
-9.96
-13.67
-17.84
-22.38
-27.05
-31.32
-34.4
-35.44
-33.85
-29.55
-23.07
-15.35
-7.4
0.01
6.44
11.83
16.27
19.87
22.65
24.55
25.54
25.61
24.89
23.59
21.98
20.35
18.94
17.85
17.0
16.17
15.05
13.38
11.06
8.22
5.14
2.15
-0.56
-2.99
-5.33
-7.81
-10.6
-13.86
-17.64
-22.01
-26.88
-31.93
-36.48
-39.56
-40.2
-37.79
-32.38
-24.68
-15.86
-7.13
0.68
7.19
12.4
16.51
19.66
21.92
23.28
23.79
23.62
22.91
21.87
20.63
19.3
18.0
16.81
15.82
15.0
14.19
13.19
11.76
9.76
7.23
4.32
1.27
-1.73
-4.57
-7.27
-10.01
-13.03
-16.62
-20.93
-25.84
-30.85
-35.15
-37.76
-37.83
-34.95
-29.32
-21.71
-13.23
-4.95
2.35
8.36
13.14
16.91
19.86
22.01
23.28
23.61
23.1
22.05
20.9
20.0
19.48
19.2
18.85
18.08
16.71
14.8
12.57
10.32
8.26
6.42
4.66
2.77
0.55
-2.14
-5.47
-9.56
-14.57
-20.46
-26.89
-33.08
-37.97
-40.43
-39.78
-35.96
-29.61
-21.84
-13.76
-6.15
0.65
6.66
11.95
16.51
20.12
22.56
23.73
23.76
22.97
21.77
20.49
19.32
18.26
17.2
16.01
14.54
12.76
10.68
8.43
6.14
3.92
1.75
-0.46
-2.91
-5.8
-9.23
-13.28
-17.92
-22.97
-28.09
-32.64
-35.81
-36.77
-34.97
-30.44
-23.75
-15.88
-7.82
-0.31
6.33
12.09
17.03
21.16
24.33
26.35
27.11
26.7
25.46
23.79
22.08
20.56
19.3
18.19
17.07
15.79
14.28
12.5
10.44
8.05
5.29
2.22
-1.04
-4.3
-7.39
-10.3
-13.19
-16.44
-20.36
-25.1
-30.4
-35.54
-39.51
-41.29
-40.2
-36.14
-29.63
-21.63
-13.24
-5.33
1.59
7.42
12.26
16.28
19.5
21.87
23.32
23.84
23.63
22.98
22.25
21.69
21.39
21.27
21.14
20.74
19.9
18.55
16.74
14.49
11.87
8.89
5.59
2.04
-1.6
-5.24
-8.89
-12.75
-17.19
-22.47
-28.56
-34.9
-40.4
-43.83
-44.19
-41.13
-35.07
-26.99
-18.07
-9.28
-1.22
5.87
11.94
17.0
21.0
23.88
25.66
26.48
26.52
26.01
25.17
24.2
23.25
22.45
21.84
21.32
20.74
19.85
18.46
16.46
13.84
10.68
7.13
3.39
-0.37
-3.95
-7.23
-10.23
-13.14
-16.36
-20.25
-25.03
-30.46
-35.79
-39.88
-41.53
-39.93
-34.99
-27.36
-18.24
-8.98
-0.59
6.39
11.89
16.13
19.36
21.74
23.34
24.18
24.32
23.9
23.14
22.23
21.37
20.66
20.07
19.5
18.77
17.74
16.36
14.64
12.68
10.57
8.34
5.98
3.45
0.67
-2.41
-5.93
-10.02
-14.81
-20.22
-25.88
-31.06
-34.76
-36.04
-34.33
-29.68
-22.78
-14.71
-6.59
0.75
6.94
12.0
16.12
19.43
21.94
23.49
23.95
23.38
22.04
20.35
18.75
17.57
16.87
16.5
16.13
15.44
14.22
12.41
10.14
7.61
4.98
2.38
-0.21
-2.87
-5.72
-8.94
-12.71
-17.13
-22.21
-27.61
-32.64
-36.31
-37.65
-36.04
-31.44
-24.47
-16.19
-7.71
0.08
6.72
12.12
16.38
19.62
21.84
23.06
23.29
22.67
21.46
19.97
18.47
17.16
16.13
15.34
14.68
13.92
12.88
11.38
9.38
7.0
4.44
1.92
-0.45
-2.71
-5.03
-7.65
-10.85
-14.81
-19.63
-25.19
