-41.38
-37.48
-30.77
-22.37
-13.61
-5.65
0.9
5.97
9.86
12.94
15.47
17.45
18.77
19.33
19.15
18.4
17.42
16.56
16.07
15.98
16.13
16.18
15.81
14.81
13.15
10.94
8.37
5.58
2.67
-0.35
-3.49
-6.75
-10.13
-13.68
-17.44
-21.45
-25.58
-29.37
-32.08
-32.87
-31.12
-26.73
-20.25
-12.67
-5.13
1.48
6.79
10.88
14.07
16.61
18.55
19.75
20.07
19.54
18.47
17.27
16.31
15.72
15.33
14.79
13.77
12.15
10.06
7.78
5.59
3.6
1.71
-0.29
-2.64
-5.52
-8.98
-13.04
-17.69
-22.78
-28.0
-32.76
-36.22
-37.53
-36.15
-32.01
-25.68
-18.14
-10.45
-3.44
2.54
7.48
11.56
14.9
17.41
18.84
19.08
18.22
16.69
15.06
13.82
13.21
13.08
13.09
12.8
11.96
10.52
8.63
6.5
4.31
2.13
-0.06
-2.33
-4.79
-7.55
-10.74
-14.53
-19.02
-24.11
-29.36
-34.0
-37.03
-37.54
-35.12
-29.97
-22.87
-14.9
-7.05
0.05
6.16
11.34
15.66
19.05
21.38
22.49
22.43
21.46
20.03
18.62
17.54
16.85
16.34
15.7
14.62
12.91
10.64
8.05
5.41
2.98
0.82
-1.14
-3.09
-5.29
-8.0
-11.43
-15.68
-20.69
-26.11
-31.35
-35.58
-37.94
-37.78
-34.89
-29.58
-22.63
-15.02
-7.68
-1.23
4.11
8.44
11.97
14.82
16.95
18.18
18.37
17.57
16.11
14.48
13.14
12.33
11.93
11.58
10.84
9.45
7.44
5.05
2.62
0.4
-1.53
-3.33
-5.22
-7.46
-10.27
-13.73
-17.83
-22.33
-26.81
-30.63
-33.04
-33.36
-31.21
-26.68
-20.32
-12.99
-5.62
1.07
6.68
11.12
14.38
16.59
17.8
18.14
17.79
17.09
16.34
15.77
15.43
15.18
14.79
14.03
12.78
11.07
9.04
6.88
4.83
3.03
1.49
0.08
-1.49
-3.59
-6.54
-10.52
-15.39
-20.69
-25.64
-29.34
-30.93
-29.94
-26.41
-20.85
-14.19
-7.33
-0.98
4.53
9.18
13.07
16.23
18.55
19.86
20.11
19.46
18.3
17.08
16.12
15.48
14.99
14.37
13.36
11.92
10.08
7.98
5.79
3.59
1.46
-0.64
-2.76
-5.05
-7.7
-10.89
-14.7
-19.08
-23.66
-27.89
-31.01
-32.29
-31.21
-27.63
-21.87
-14.7
-7.03
0.26
6.62
11.85
16.03
19.34
21.83
23.48
24.18
23.95
22.96
21.56
20.2
19.17
18.59
18.31
18.0
17.32
16.04
14.11
11.7
9.12
6.6
4.26
2.02
-0.37
-3.18
-6.58
-10.59
-15.16
-20.08
-25.11
-29.8
-33.55
-35.59
-35.27
-32.28
-26.88
-19.81
-12.11
-4.64
2.09
7.95
13.08
17.59
21.4
24.35
26.26
27.12
27.1
26.47
25.54
24.55
23.63
22.87
22.26
21.7
20.99
19.88
18.16
15.75
12.76
9.43
6.04
2.79
-0.23
-3.07
-5.91
-8.94
-12.45
-16.66
-21.64
-27.11
-32.41
-36.55
-38.49
-37.49
-33.44
-26.9
-18.9
-10.61
-2.92
3.7
9.24
13.85
17.68
20.72
22.91
24.18
24.62
24.44
23.88
23.15
22.31
21.35
20.24
19.0
17.7
16.4
15.12
13.76
12.21
10.36
8.16
5.65
2.92
0.07
-2.82
-5.74
-8.8
-12.16
-16.04
-20.53
-25.41
-30.13
-33.85
-35.68
-34.95
-31.46
-25.6
-18.15
-10.13
-2.41
4.4
10.01
14.42
17.75
20.11
21.57
22.19
22.07
21.4
20.44
19.48
18.64
17.9
17.13
16.11
14.73
12.99
11.07
9.15
7.3
5.51
3.64
1.49
-1.04
-3.97
-7.23
-10.76
-14.56
-18.64
-22.97
-27.24
-30.9
-33.14
-33.25
-30.79
-25.88
-19.14
-11.47
-3.82
3.16
9.12
14.01
17.93
20.92
22.94
23.93
23.88
22.91
21.37
19.64
18.1
16.96
16.17
15.51
14.64
13.32
11.49
9.26
6.84
4.41
2.01
-0.44
-3.04
-5.87
-8.89
-12.02
-15.2
-18.5
-22.03
-25.82
-29.58
-32.7
-34.35
-33.75
-30.57
-25.06
-18.01
-10.43
-3.23
3.07
8.35
12.75
16.43
19.38
21.49
22.58
22.62
21.76
20.34
18.68
17.05
15.56
14.23
13.04
11.92
10.8
9.55
8.03
6.17
3.98
1.62
-0.73
-2.94
-5.01
-7.04
-9.18
-11.56
-14.29
-17.45
-21.13
-25.3
-29.68
-33.63
-36.27
-36.75
-34.58
-29.87
-23.29
-15.86
-8.55
-2.0
3.56
8.19
12.03
15.21
17.72
19.54
20.72
21.35
21.6
21.57
21.3
20.76
19.98
19.06
18.2
17.59
17.29
17.15
16.84
15.91
14.05
11.17
7.48
3.4
-0.6
-4.17
-7.21
-9.82
-12.34
-15.17
-18.69
-23.12
-28.34
-33.83
-38.71
-41.88
-42.43
-39.93
-34.62
-27.37
-19.33
-11.53
-4.58
1.35
6.38
10.66
14.15
16.66
18.01
18.18
17.44
16.21
14.92
13.84
13.05
12.49
12.0
11.43
10.66
9.6
8.24
6.58
4.7
2.7
0.64
-1.44
-3.55
-5.77
-8.24
-11.07
-14.39
-18.25
-22.56
-26.92
-30.68
-33.05
-33.28
-31.06
-26.58
-20.51
-13.75
-7.1
-1.05
4.27
8.88
12.82
16.0
18.28
19.54
19.85
19.44
18.61
17.65
16.72
15.9
15.22
14.68
14.21
13.67
12.87
11.61
9.87
7.76
5.51
3.35
1.38
-0.53
-2.63
-5.18
-8.42
-12.49
-17.41
-23.0
-28.8
-34.02
-37.66
-38.79
-36.89
-32.15
-25.39
-17.79
-10.42
-3.99
1.3
5.61
9.22
12.31
14.9
16.9
18.21
18.82
18.84
18.43
17.83
17.22
16.7
16.22
15.67
14.91
13.78
12.24
10.28
7.96
5.33
2.46
-0.56
-3.67
-6.79
-9.92
-13.12
-16.55
-20.37
-24.59
-28.99
-33.03
-35.92
-36.84
-35.3
-31.29
-25.35
-18.41
-11.37
-4.9
0.8
5.79
10.26
14.26
17.59
19.98
21.2
21.25
20.41
19.07
17.64
16.39
15.37
14.53
13.74
12.88
11.88
10.69
9.32
7.71
5.86
3.79
1.52
-0.89
-3.4
-6.02
-8.85
-12.03
-15.77
-20.17
-25.14
-30.24
-34.68
-37.51
-37.85
-35.28
-30.04
-22.92
-15.02
-7.34
-0.48
5.37
10.39
14.79
18.62
21.76
23.97
25.09
25.12
24.27
22.89
21.26
19.6
18.02
16.56
15.22
13.97
12.77
11.49
9.97
8.06
5.71
3.0
0.12
-2.66
-5.16
-7.35
-9.42
-11.71
-14.65
-18.53
-23.24
-28.19
-32.34
-34.6
-34.15
-30.84
-25.19
-18.21
-10.95
-4.17
1.76
6.84
11.14
14.71
17.47
19.35
20.33
20.55
20.23
19.61
18.89
18.17
17.43
16.59
15.47
13.88
11.74
9.09
6.19
3.37
0.94
-1.03
-2.7
-4.41
-6.52
-9.26
-12.72
-16.8
-21.28
-25.79
-29.8
-32.57
-33.37
-31.71
-27.58
-21.56
-14.59
-7.65
-1.36
4.05
8.68
12.69
16.04
18.51
19.9
20.15
19.5
18.38
17.22
16.27
15.58
14.96
14.22
13.22
11.92
10.42
8.86
7.36
5.89
4.25
2.18
-0.57
-4.08
-8.21
-12.76
-17.51
-22.31
-27.01
-31.24
-34.41
-35.77
-34.7
-31.05
-25.25
-18.2
-10.91
-4.17
1.68
6.61
10.73
14.09
16.57
18.02
18.42
17.99
17.09
16.2
15.6
15.34
15.19
14.83
13.97
12.54
10.68
8.71
6.91
5.41
4.14
2.86
1.3
-0.7
-3.2
-6.22
-9.81
-14.1
-19.16
-24.82
-30.5
-35.26
-38.02
-37.92
-34.76
-28.99
-21.59
-13.7
-6.18
0.56
6.49
11.75
16.35
20.15
22.83
24.2
24.32
23.58
22.51
21.58
21.02
20.74
20.48
19.93
18.91
17.41
15.51
13.35
11.01
8.53
5.88
2.97
-0.29
-3.95
-8.04
-12.5
-17.22
-22.15
-27.19
-32.16
-36.66
-39.94
-41.12
-39.5
-34.93
-27.91
-19.52
-10.93
-3.07
3.68
9.4
14.33
18.58
22.06
24.53
25.85
26.11
25.62
24.77
23.86
23.02
22.14
21.05
19.59
17.68
15.39
12.84
10.2
7.59
5.1
2.69
0.31
-2.13
-4.74
-7.64
-11.01
-15.05
-19.83
-25.13
-30.34
-34.46
-36.47
-35.62
-31.79
-25.54
-17.84
-9.79
-2.15
4.65
10.56
15.57
19.66
22.64
24.36
24.78
24.11
22.72
21.05
19.51
18.27
17.35
16.6
15.81
14.77
13.37
11.57
9.45
7.14
4.74
2.32
-0.15
-2.79
-5.77
-9.31
-13.54
-18.46
-23.79
-28.92
-32.93
-34.85
-33.98
-30.21
-24.06
-16.52
-8.69
-1.38
5.06
10.59
15.31
19.15
21.95
23.58
24.08
23.74
23.04
22.41
22.07
21.94
21.81
21.31
20.19
18.38
15.95
13.16
10.29
7.56
4.99
2.42
-0.45
-3.92
-8.19
-13.26
-18.89
-24.61
-29.71
-33.39
-34.85
-33.57
-29.52
-23.18
-15.44
-7.29
0.44
7.27
13.02
17.67
21.19
23.51
24.56
24.34
23.1
21.21
19.15
17.3
15.89
14.83
13.89
12.79
11.33
9.47
7.34
5.16
3.1
1.16
-0.8
-3.08
-5.95
-9.66
-14.22
-19.42
-24.74
-29.47
-32.78
-33.97
-32.68
-29.05
-23.63
-17.2
-10.5
-4.0
2.06
7.6
12.45
16.31
18.87
19.98
19.84
18.95
17.91
17.19
16.86
16.71
16.33
15.4
13.81
11.66
9.26
6.87
4.65
2.58
0.51
-1.78
-4.52
-7.89
-11.89
-16.37
-20.92
-24.91
-27.58
-28.27
-26.61
-22.72
-17.18
-10.77
-4.26
1.81
7.23
11.94
15.91
18.96
20.86
21.47
20.88
19.46
17.72
16.12
14.87
13.91
12.99
11.86
10.43
8.77
7.05
5.38
3.77
2.07
0.03
-2.56
-5.89
-9.98
-14.63
-19.44
-23.71
-26.64
-27.5
-25.89
-21.94
-16.27
-9.74
-3.2
2.8
8.02
12.42
15.94
18.51
19.98
20.33
19.7
18.45
16.94
15.53
14.34
13.33
12.32
11.14
9.67
7.9
5.93
3.89
1.85
-0.22
-2.51
-5.27
-8.74
-13.05
-18.04
-23.31
-28.17
-31.79
-33.43
-32.64
-29.48
-24.45
-18.36
-12.01
-5.91
-0.24
5.06
10.06
14.63
18.39
20.93
21.95
21.54
20.15
18.43
16.96
16.01
15.49
15.03
14.18
12.67
10.55
8.11
5.72
3.62
1.78
-0.05
-2.18
-4.82
-8.03
-11.76
-15.92
-20.39
-24.87
-28.83
-31.54
-32.26
-30.55
-26.51
-20.73
-14.08
-7.35
-0.99
4.9
10.33
15.23
19.35
22.31
23.89
24.17
23.54
22.49
21.47
20.6
19.76
18.64
16.99
14.75
12.06
9.17
6.33
3.67
1.2
-1.2
-3.69
-6.43
-9.58
-13.23
-17.41
-21.97
-26.6
-30.71
-33.61
-34.56
-33.16
-29.41
-23.77
-16.97
-9.8
-2.87
3.5
9.15
13.98
17.85
20.58
22.03
22.3
21.63
20.46
19.18
18.03
17.02
15.97
14.64
12.89
10.71
8.27
5.84
3.64
1.73
-0.04
-1.94
-4.27
-7.29
-11.09
-15.58
-20.43
-25.06
-28.74
-30.71
-30.42
-27.72
-22.95
-16.87
-10.33
-4.1
1.43
6.23
10.48
14.29
17.56
20.05
21.48
21.7
20.86
19.37
17.74
16.38
15.44
14.77
14.04
12.96
11.42
9.48
7.39
5.32
3.32
1.28
-0.99
-3.59
-6.57
-9.84
-13.38
-17.22
-21.42
-25.92
-30.35
-33.98
-35.91
-35.34
-31.94
-26.06
-18.58
-10.6
-3.05
3.59
9.27
14.14
18.36
21.84
24.38
25.77
25.98
25.2
23.78
22.07
20.36
18.78
17.35
16.07
14.89
13.73
12.47
10.99
9.18
7.0
4.53
1.92
-0.65
-3.07
-5.32
-7.52
-9.85
-12.61
-16.06
-20.39
-25.5
-30.94
-35.85
-39.16
-39.92
-37.61
-32.39
-25.08
-16.84
-8.79
-1.69
4.25
9.16
13.28
16.76
19.58
21.64
22.92
23.5
23.48
23.01
22.15
20.96
19.58
18.24
17.15
16.36
15.7
14.81
13.35
11.17
8.37
5.27
2.16
-0.79
-3.61
-6.41
-9.32
-12.44
-15.87
-19.76
-24.23
-29.15
-34.02
-37.91
-39.75
-38.69
-34.48
-27.63
-19.23
-10.54
-2.64
3.95
9.15
13.2
16.34
18.67
20.2
20.93
20.9
20.33
19.5
18.64
17.82
16.98
16.0
14.75
13.21
11.44
9.56
7.66
5.78
3.92
2.06
0.16
-1.74
-3.64
-5.56
-7.59
-9.89
-12.67
-16.11
-20.2
-24.66
-28.9
-32.03
-33.17
-31.7
-27.54
-21.23
-13.77
-6.29
0.31
5.56
9.48
12.36
14.52
16.16
17.23
17.64
17.3
16.33
15.06
13.89
13.12
12.82
12.76
12.53
11.8
10.42
8.56
6.53
4.61
2.84
1.07
-0.97
-3.45
-6.37
-9.6
-13.03
-16.65
-20.57
-24.85
-29.3
-33.35
-36.16
-36.85
-34.87
-30.26
-23.64
-16.02
-8.45
-1.68
3.96
8.48
12.07
14.88
16.94
18.23
18.76
18.66
18.17
17.54
16.93
16.4
15.87
15.22
14.32
13.1
11.55
9.73
7.7
5.5
3.15
0.67
-1.89
-4.47
-6.99
-9.42
-11.87
-14.57
-17.81
-21.76
-26.35
-31.05
-35.04
-37.28
-36.94
-33.67
-27.83
-20.32
-12.3
-4.81
1.56
6.67
10.74
14.04
16.72
18.74
19.96
20.32
19.9
18.95
17.76
16.58
15.54
14.66
13.89
13.14
12.35
11.47
10.43
9.16
7.6
5.71
3.53
1.14
-1.36
-3.86
-6.34
-8.84
-11.56
-14.75
-18.67
-23.39
-28.62
-33.63
-37.32
-38.58
-36.67
-31.55
-23.91
-14.97
-6.05
1.87
8.39
13.54
17.57
20.74
23.1
24.62
25.28
25.19
24.54
23.58
22.46
21.25
19.91
18.47
17.01
15.69
14.66
13.96
13.44
12.79
11.65
9.76
7.04
3.64
-0.17
-4.04
-7.82
-11.46
-15.19
-19.26
-23.88
-28.97
-34.07
-38.34
-40.77
-40.52
-37.23
-31.2
-23.29
-14.67
-6.45
0.64
6.34
10.75
14.06
16.4
17.8
18.29
18.03
17.33
16.62
16.23
16.29
16.65
17.0
16.99
16.4
15.21
13.54
11.56
9.43
7.2
4.92
2.56
0.11
-2.43
-5.14
-8.1
-11.5
-15.53
-20.27
-25.58
-30.94
-35.47
-38.14
-38.07
-34.88
-28.88
-21.0
-12.5
-4.55
2.13
7.38
11.43
14.64
17.24
19.24
20.49
20.87
20.43
19.38
18.01
16.62
15.39
14.38
13.5
12.64
11.63
10.38
8.84
7.05
5.12
3.14
1.22
-0.67
-2.63
-4.86
-7.6
-11.09
-15.44
-20.66
-26.44
-32.22
-37.16
-40.32
-40.92
-38.61
-33.56
-26.48
-18.33
-10.07
-2.4
4.36
10.11
14.91
18.77
21.68
23.64
24.73
25.1
24.96
24.49
23.85
23.11
22.32
21.53
20.74
19.95
19.03
17.8
16.08
13.73
10.75
7.29
3.6
-0.06
-3.54
-6.75
-9.79
-12.83
-16.12
-19.94
-24.49
-29.74
-35.31
-40.35
-43.77
-44.5
-41.97
-36.34
-28.45
-19.52
-10.69
-2.72
4.18
10.13
15.29
19.73
23.31
25.85
27.25
27.65
27.32
26.62
25.78
24.89
23.92
22.77
21.42
19.94
18.44
17.08
15.84
14.64
13.23
11.4
9.03
6.18
3.04
-0.19
-3.36
-6.5
-9.81
-13.58
-18.01
-23.13
-28.6
-33.75
-37.65
-39.39
-38.39
-34.56
-28.38
-20.73
-12.62
-4.88
1.94
7.69
12.45
16.35
19.43
21.65
22.91
23.18
22.6
21.46
20.11
18.86
17.87
17.14
16.58
16.09
15.52
14.8
13.88
12.66
11.08
9.14
6.83
4.24
1.47
-1.39
-4.31
-7.37
-10.79
-14.81
-19.57
-24.83
-29.88
-33.67
-35.1
-33.49
-28.92
-22.15
-14.36
-6.66
0.23
6.12
11.15
15.5
19.2
22.06
23.82
24.37
23.82
22.54
20.98
19.57
18.51
17.76
17.14
16.35
15.17
13.5
11.4
9.01
6.53
4.08
1.7
-0.64
-3.04
-5.6
-8.46
-11.75
-15.63
-20.16
-25.16
-30.12
-34.21
-36.47
-36.15
-32.97
-27.31
-20.03
-12.2
-4.69
1.98
7.7
12.57
16.71
20.09
22.57
24.01
24.38
23.84
22.73
21.47
20.42
19.81
19.62
19.66
19.63
19.24
18.29
16.74
14.64
12.09
9.19
6.01
2.61
-0.93
-4.53
-8.19
-11.95
-15.98
-20.52
-25.68
-31.3
-36.83
-41.36
-43.85
-43.46
-39.91
-33.55
-25.32
-16.34
-7.67
0.09
6.73
12.34
17.06
20.93
23.9
25.9
26.94
27.19
26.93
26.43
25.83
25.15
24.29
23.22
21.93
20.53
19.13
17.76
16.34
14.64
12.46
9.67
6.34
2.69
-0.98
-4.47
-7.73
-10.86
-14.15
-17.86
-22.23
-27.26
-32.63
-37.67
-41.43
-42.91
-41.47
-37.02
-30.11
-21.78
-13.19
-5.24
1.6
7.26
11.85
15.53
18.33
20.25
21.38
21.91
22.11
22.22
22.33
22.37
22.16
21.58
20.67
19.62
18.65
17.82
17.02
15.98
14.43
12.27
9.6
6.66
3.68
0.83
-1.87
-4.53
-7.28
-10.37
-14.0
-18.4
-23.53
-29.0
-33.99
-37.42
-38.2
-35.77
-30.25
-22.48
-13.73
-5.25
2.1
8.0
12.54
16.04
18.74
20.76
22.08
22.65
22.53
21.84
20.8
19.68
18.66
17.89
17.41
17.15
16.98
16.68
16.05
14.92
13.21
10.95
8.25
5.29
2.2
-0.95
-4.13
-7.41
-10.91
-14.8
-19.21
-24.15
-29.4
-34.35
-38.11
-39.67
-38.31
-33.89
-26.95
-18.56
-9.94
-2.05
4.65
10.16
14.75
18.61
21.77
24.05
25.28
25.44
24.75
23.57
22.25
21.03
20.0
19.14
18.37
17.68
16.99
16.18
15.03
13.25
10.65
7.28
3.42
-0.5
-4.09
-7.17
-9.85
-12.54
-15.72
-19.74
-24.69
-30.19
-35.4
-39.22
-40.56
-38.74
-33.74
-26.24
-17.41
-8.52
-0.54
6.0
11.05
14.82
17.58
19.59
20.96
21.8
22.19
22.18
21.83
21.14
20.11
18.76
17.21
15.61
14.1
12.76
11.53
10.23
8.65
6.63
4.17
1.42
-1.41
-4.14
-6.68
-9.13
-11.63
-14.46
-17.84
-21.95
-26.77
-31.97
-36.87
-40.47
-41.79
-40.21
-35.67
-28.79
-20.63
-12.28
-4.58
2.09
7.71
12.44
16.39
19.57
21.92
23.38
24.0
23.94
23.37
22.49
21.42
20.28
19.11
17.97
16.91
15.93
15.0
14.01
12.82
11.26
9.2
6.65
3.74
0.68
-2.34
-5.27
-8.21
-11.44
-15.25
-19.83
-25.19
-30.97
-36.52
-40.91
-43.11
-42.37
-38.41
-31.67
-23.17
-14.19
-5.85
1.21
6.9
11.5
15.33
18.48
20.87
22.34
22.83
22.53
21.8
21.0
20.36
19.87
19.4
18.76
17.84
16.58
15.03
13.26
11.32
9.22
6.96
4.55
1.98
-0.73
-3.6
-6.68
-10.14
-14.18
-18.96
-24.44
-30.2
-35.4
-38.93
-39.79
-37.43
-32.0
-24.29
-15.48
-6.71
1.26
8.09
13.8
18.49
22.17
24.71
25.95
25.88
24.72
22.9
20.91
19.2
17.95
17.1
16.42
15.57
14.26
12.38
9.91
7.03
3.97
0.97
-1.81
-4.32
-6.65
-9.03
-11.73
-15.05
-19.16
-24.02
-29.23
-34.04
-37.46
-38.5
-36.53
-31.52
-24.07
-15.29
-6.36
1.74
8.51
13.88
18.04
21.23
23.6
25.2
26.05
26.2
25.79
24.98
23.94
22.79
21.58
20.3
18.88
17.26
15.4
13.34
11.15
8.96
6.81
4.69
2.51
0.17
-2.38
-5.14
-8.15
-11.48
-15.33
-19.92
-25.3
-31.12
-36.56
-40.53
-41.91
-40.05
-35.05
-27.68
-19.17
-10.72
-3.17
3.2
8.5
12.99
16.81
19.91
22.12
23.33
23.59
23.15
22.35
21.5
20.75
20.19
19.74
19.33
18.83
18.1
17.01
15.46
13.38
10.79
7.78
4.5
1.14
-2.14
-5.24
-8.22
-11.24
-14.6
-18.62
-23.48
-29.02
-34.63
-39.29
-41.84
-41.35
-37.6
-31.05
-22.81
-14.16
-6.12
0.83
6.67
11.63
15.89
19.44
22.09
23.7
24.28
24.03
23.29
22.33
21.32
20.29
19.17
17.93
16.57
15.16
13.74
12.3
10.77
9.08
7.15
4.93
2.43
-0.32
-3.28
-6.44
-9.84
-13.6
-17.9
-22.76
-27.94
-32.76
-36.24
-37.4
-35.61
-30.92
-24.08
-16.21
-8.41
-1.41
4.53
9.54
13.88
17.65
20.74
22.92
23.96
23.9
22.94
21.51
20.04
18.82
17.89
17.1
16.18
14.91
13.22
11.18
8.94
6.66
4.43
2.23
0.02
-2.26
-4.7
-7.41
-10.52
-14.19
-18.52
-23.4
-28.38
-32.66
-35.24
-35.23
-32.19
-26.32
-18.43
-9.68
-1.16
6.34
12.51
17.4
21.2
24.07
26.09
27.24
27.55
27.08
25.98
24.39
22.51
20.51
18.61
17.01
15.8
14.94
14.23
13.42
12.25
10.6
8.5
6.09
3.51
0.83
-1.96
-4.87
-8.0
-11.48
-15.48
-20.19
-25.56
-31.25
-36.45
-40.1
-41.18
-39.1
-34.02
-26.77
-18.53
-10.46
-3.28
2.81
7.96
12.41
16.29
19.51
21.89
23.31
23.86
23.78
23.4
22.9
22.34
21.57
20.43
18.92
17.17
15.46
13.95
12.6
11.14
9.2
6.53
3.2
-0.41
-3.82
-6.67
-8.98
-11.09
-13.62
-17.07
-21.68
-27.25
-33.13
-38.37
-41.92
-42.89
-40.81
-35.78
-28.49
-20.0
-11.44
-3.74
2.64
7.69
11.68
14.93
17.63
19.76
21.16
21.69
21.35
20.29
18.78
17.13
15.59
14.26
13.19
12.3
11.5
10.67
9.66
8.39
6.82
4.99
2.97
0.88
-1.23
-3.39
-5.68
-8.29
-11.42
-15.28
-19.94
-25.17
-30.39
-34.62
-36.8
-36.09
-32.29
-25.94
-18.18
-10.35
-3.51
1.9
6.08
9.51
12.64
15.52
17.87
19.26
19.45
18.56
17.06
15.55
14.45
13.88
13.65
13.38
12.78
11.7
10.17
8.35
6.38
4.38
2.39
0.4
-1.68
-3.94
-6.54
-9.66
-13.47
-17.97
-22.91
-27.65
-31.33
-33.02
-32.1
-28.48
-22.66
-15.53
-8.09
-1.13
4.94
10.0
14.1
17.28
19.53
20.8
21.09
20.47
19.14
17.36
15.38
13.45
11.75
10.36
9.24
8.23
7.11
5.69
3.85
1.64
-0.8
-3.28
-5.69
-7.99
-10.27
-12.66
-15.32
-18.36
-21.92
-26.01
-30.48
-34.82
-38.18
-39.53
-38.06
-33.52
-26.41
-17.84
-9.11
-1.27
5.2
10.35
14.46
17.76
20.34
22.12
23.07
23.3
23.08
22.7
22.33
21.97
21.44
20.6
19.29
17.49
15.25
12.67
9.8
6.75
3.6
0.46
-2.51
-5.24
-7.72
-10.04
-12.4
-15.12
-18.52
-22.81
-27.96
-33.54
-38.66
-42.16
-43.02
-40.73
-35.52
-28.29
-20.22
-12.37
-5.31
0.83
6.18
10.89
14.95
18.26
20.74
22.46
23.57
24.26
24.61
24.64
24.32
23.64
22.64
21.39
19.91
18.17
16.11
13.68
10.86
7.68
4.25
0.7
-2.81
-6.18
-9.36
-12.45
-15.7
-19.4
-23.78
-28.85
-34.22
-39.06
-42.33
-43.03
-40.63
-35.25
-27.72
-19.22
-10.92
-3.59
2.52
7.56
11.83
15.47
18.42
20.47
21.48
21.49
20.73
19.55
18.29
17.25
16.54
16.12
15.82
15.4
14.67
13.55
12.13
10.55
8.9
7.17
5.22
2.86
-0.07
-3.61
-7.8
-12.65
-18.14
-24.1
-30.09
-35.32
-38.77
-39.54
-37.18
-31.92
-24.62
-16.49
-8.62
-1.74
3.96
8.63
12.49
15.65
18.0
19.33
19.5
18.64
17.11
15.44
14.11
13.39
13.23
13.32
13.29
12.79
11.67
9.97
7.89
5.61
3.32
1.09
-1.1
-3.32
-5.72
-8.46
-11.74
-15.69
-20.24
-25.02
-29.32
-32.21
-32.83
-30.68
-25.88
-19.13
-11.51
-4.07
2.43
7.73
11.92
15.23
17.82
19.69
20.76
21.03
20.61
19.8
18.93
18.26
17.87
17.67
17.4
16.84
15.83
14.31
12.37
10.18
7.88
5.54
3.13
0.53
-2.38
-5.62
-9.12
-12.78
-16.62
-20.72
-25.17
-29.81
-34.07
-37.04
-37.72
-35.46
-30.35
-23.18
-15.22
-7.64
-1.14
4.17
8.63
12.6
16.24
19.4
21.81
23.26
23.76
23.54
22.94
22.29
21.71
21.21
20.66
19.93
18.87
17.46
15.66
13.52
11.06
8.36
5.47
2.46
-0.56
-3.52
-6.38
-9.18
-12.08
-15.32
-19.12
-23.58
-28.48
-33.21
-36.86
-38.38
-37.01
-32.58
-25.65
-17.33
-8.94
-1.48
4.56
9.26
12.99
16.11
18.73
20.75
21.93
22.17
21.58
20.42
19.06
17.75
16.61
15.62
14.63
13.55
12.27
10.77
9.07
7.19
5.15
2.98
0.69
-1.72
-4.26
-7.01
-10.1
-13.7
-17.96
-22.82
-27.95
-32.66
-35.95
-36.83
-34.66
-29.46
-21.99
-13.51
-5.31
1.72
7.34
11.79
15.53
18.76
21.39
23.06
23.47
22.69
21.1
19.37
18.07
17.44
17.31
17.24
16.78
15.63
13.82
11.56
9.15
6.76
4.4
1.97
-0.71
-3.71
-7.07
-10.78
-14.91
-19.48
-24.42
-29.34
-33.5
-35.94
-35.81
-32.74
-26.97
-19.38
-11.09
-3.11
3.89
9.69
14.3
17.81
20.27
21.68
22.06
21.56
20.47
19.11
17.77
16.63
15.74
14.94
14.0
12.7
10.83
8.4
5.58
2.65
-0.08
-2.42
-4.35
-6.01
-7.69
-9.67
-12.25
-15.59
-19.7
-24.33
-28.94
-32.74
-34.78
-34.33
-31.11
-25.41
-18.09
-10.24
-2.82
3.57
8.74
12.85
16.06
18.51
20.18
20.98
20.89
20.02
18.63
17.05
15.61
14.53
13.87
13.49
13.11
12.38
11.08
9.13
6.65
3.91
1.13
-1.54
-4.12
-6.75
-9.59
-12.81
-16.58
-21.03
-26.08
-31.38
-36.16
-39.39
-40.06
-37.59
-32.09
-24.34
-15.51
-6.78
1.04
7.59
12.88
17.04
20.18
22.34
23.52
23.8
23.39
22.54
21.48
20.46
19.58
18.91
18.4
17.96
17.42
16.61
15.41
13.82
11.91
9.83
7.65
5.37
2.9
0.11
-3.07
-6.69
-10.77
-15.4
-20.59
-26.15
-31.53
-35.77
-37.82
-36.88
-32.85
-26.4
-18.71
-11.01
-4.13
1.66
6.51
10.64
14.14
16.87
18.61
19.3
19.12
18.47
17.71
17.14
16.8
16.58
16.28
15.69
14.65
13.1
11.08
8.69
6.12
3.53
0.95
-1.63
-4.36
-7.37
-10.77
-14.63
-18.96
-23.65
-28.4
-32.64
-35.54
-36.25
-34.21
-29.4
-22.41
-14.28
-6.07
1.41
7.77
13.01
17.26
20.61
23.03
24.46
24.94
24.64
23.89
23.03
22.36
21.93
21.6
21.05
19.98
18.21
15.76
12.91
10.0
7.27
4.79
2.4
-0.16
-3.11
-6.58
-10.58
-15.07
-19.98
-25.11
-30.04
-34.03
-36.14
-35.54
-31.86
-25.46
-17.33
-8.79
-1.0
5.45
10.51
14.53
17.88
20.7
22.88
24.18
24.47
23.84
22.63
21.23
19.95
18.9
17.97
16.97
15.7
14.08
12.13
9.99
7.78
5.59
3.38
1.06
-1.52
-4.41
-7.61
-11.05
-14.75
-18.79
-23.32
-28.34
-33.52
-38.1
-41.0
-41.24
-38.28
-32.35
-24.36
-15.55
-7.06
0.48
6.9
12.41
17.2
21.31
24.55
26.71
27.73
27.77
27.18
26.34
25.54
24.88
24.32
23.76
23.12
22.36
21.4
20.17
18.52
16.32
13.54
10.3
6.83
3.45
0.36
-2.4
-5.01
-7.82
-11.2
-15.44
-20.59
-26.37
-32.13
-36.95
-39.85
-40.1
-37.45
-32.26
-25.31
-17.61
-10.02
-3.05
3.14
8.58
13.33
17.33
20.42
22.48
23.49
23.65
23.27
22.65
22.01
21.41
20.8
20.11
19.3
18.41
17.46
16.4
15.09
13.32
10.95
7.99
4.65
1.23
-1.95
-4.75
-7.23
-9.6
-12.25
-15.51
-19.61
-24.47
-29.63
-34.26
-37.3
-37.76
-35.14
-29.62
-22.02
-13.53
-5.26
2.12
8.46
14.01
19.03
23.57
27.35
29.95
31.07
30.73
29.32
27.48
25.82
24.73
24.21
23.93
23.45
22.37
20.58
18.27
15.81
13.58
11.79
10.4
9.16
7.65
5.41
2.09
-2.55
-8.54
-15.73
-23.66
-31.54
-38.35
-42.94
-44.36
-42.21
-36.79
-29.06
-20.3
-11.71
-4.08
2.34
7.68
12.15
15.87
18.71
20.55
21.34
21.21
20.47
19.42
18.29
17.21
16.16
15.13
14.03
12.81
11.37
9.65
7.61
5.31
2.84
0.33
-2.13
-4.54
-6.94
-9.45
-12.19
-15.35
-19.1
-23.54
-28.49
-33.39
-37.34
-39.28
-38.44
-34.64
-28.41
-20.83
-13.04
-5.92
0.14
5.22
9.54
13.23
16.26
18.48
19.78
20.23
20.03
19.46
18.71
17.77
16.55
14.93
12.92
10.71
8.56
6.71
5.15
3.69
2.0
-0.18
-2.88
-5.91
-8.92
-11.6
-13.86
-15.87
-17.99
-20.65
-24.17
-28.6
-33.69
-38.77
-42.92
-45.08
-44.41
-40.6
-34.01
-25.58
-16.54
-7.93
-0.35
6.13
11.75
16.71
21.0
24.43
26.75
27.95
28.29
28.14
27.86
27.52
27.0
26.14
24.86
23.35
21.9
20.75
19.95
19.24
18.17
16.35
13.59
10.03
6.02
2.0
-1.73
-5.11
-8.33
-11.69
-15.52
-20.06
-25.37
-31.23
-37.12
-42.18
-45.39
-45.82
-42.98
-37.07
-28.99
-19.98
-11.25
-3.58
2.77
8.0
12.39
16.12
19.17
21.42
22.78
23.32
23.21
22.7
21.98
21.18
20.41
19.67
18.99
18.3
17.52
16.49
15.08
13.21
10.89
8.18
5.23
2.18
-0.83
-3.72
-6.45
-9.11
-11.91
-15.16
-19.12
-23.84
-28.95
-33.66
-36.91
-37.69
-35.5
-30.47
-23.42
-15.5
-7.81
-1.06
4.53
9.1
12.93
16.19
18.81
20.62
21.47
21.4
20.67
19.7
18.83
18.24
17.86
17.44
16.73
15.54
13.85
11.76
9.42
6.94
4.45
1.99
-0.39
-2.74
-5.09
-7.52
-10.12
-13.0
-16.31
-20.16
-24.55
-29.11
-33.09
-35.51
-35.44
-32.42
-26.69
-19.17
-11.08
-3.56
2.73
7.63
11.35
14.2
16.37
17.91
18.83
19.2
19.13
18.81
18.39
17.89
17.23
16.31
15.09
13.63
12.11
10.7
9.46
8.24
6.8
4.91
2.44
-0.46
-3.52
-6.45
-9.11
-11.62
-14.3
-17.56
-21.71
-26.82
-32.6
-38.4
-43.32
-46.36
-46.73
-44.09
-38.71
-31.33
-22.97
-14.61
-6.89
-0.08
5.82
10.84
14.98
18.15
20.3
21.53
22.05
22.16
22.12
22.04
21.92
21.68
21.28
20.72
20.08
19.45
18.83
18.15
17.22
15.85
13.87
11.22
7.97
4.34
0.59
-3.07
-6.6
-10.14
-14.02
-18.62
-24.12
-30.38
-36.79
-42.32
-45.79
-46.27
-43.34
-37.3
-29.02
-19.64
-10.29
-1.73
5.65
11.77
16.71
20.52
23.24
24.88
25.53
25.4
24.7
23.69
22.52
21.24
19.88
18.46
17.02
15.63
14.32
13.05
11.72
10.19
8.33
6.14
3.68
1.12
-1.43
-3.89
-6.3
-8.88
-11.88
-15.56
-20.11
-25.46
-31.2
-36.54
-40.44
-41.88
-40.18
-35.28
-27.79
-18.84
-9.73
-1.49
5.32
10.7
14.96
18.47
21.42
23.72
25.15
25.51
24.81
23.32
21.47
19.74
18.42
17.53
16.89
16.19
15.19
13.79
12.02
10.02
7.9
5.73
3.49
1.09
-1.55
-4.53
-7.85
-11.55
-15.67
-20.27
-25.32
-30.49
-35.1
-38.14
-38.62
-35.99
-30.36
-22.6
-13.96
-5.64
1.57
7.49
12.28
16.21
19.37
21.69
23.02
23.33
22.82
21.85
20.8
19.95
19.44
19.16
18.94
18.57
17.91
16.89
15.51
13.78
11.7
9.27
6.49
3.41
0.13
-3.23
-6.61
-10.02
-13.67
-17.83
-22.7
-28.23
-33.92
-38.86
-41.86
-41.93
-38.63
-32.3
-23.96
-14.95
-6.49
0.77
6.71
11.56
15.59
18.89
21.32
22.7
22.98
22.38
21.3
20.13
19.12
18.29
17.58
16.93
16.34
15.9
15.65
15.51
15.21
14.43
12.89
10.48
7.36
3.83
0.21
-3.25
-6.52
-9.8
-13.45
-17.79
-23.06
-29.07
-35.23
-40.51
-43.76
-43.97
-40.72
-34.29
-25.63
-16.06
-6.83
1.19
7.7
12.84
16.98
20.44
23.35
25.7
27.4
28.37
28.64
28.34
27.59
26.51
25.15
23.56
21.76
19.85
17.96
16.16
14.4
12.53
10.33
7.6
4.29
0.58
-3.2
-6.73
-9.84
-12.65
-15.52
-18.9
-23.16
-28.33
-34.01
-39.32
-43.13
-44.4
-42.47
-37.39
-29.86
-21.05
-12.14
-4.0
3.02
8.96
14.06
18.46
22.15
25.0
26.87
27.77
27.88
27.44
26.71
25.91
25.16
24.5
23.9
23.29
22.54
21.51
20.05
18.08
15.57
12.54
9.08
5.32
1.41
-2.51
-6.33
-10.07
-13.82
-17.83
-22.3
-27.25
-32.34
-36.79
-39.58
-39.73
-36.71
-30.71
-22.58
-13.6
-5.0
2.39
8.31
12.93
16.64
19.66
22.05
23.63
24.24
23.85
22.61
20.87
19.02
17.36
16.04
15.05
14.26
13.44
12.43
11.11
9.46
7.49
5.29
2.93
0.47
-2.02
-4.52
-7.02
-9.66
-12.67
-16.39
-20.98
-26.3
-31.7
-36.1
-38.31
-37.44
-33.31
-26.5
-18.17
-9.58
-1.71
5.0
10.59
15.33
19.39
22.77
25.23
26.55
26.69
25.83
24.39
22.8
21.37
20.23
19.3
18.42
17.42
16.19
14.68
12.88
10.8
8.48
5.95
3.25
0.44
-2.46
-5.45
-8.6
-12.0
-15.88
-20.45
-25.84
-31.9
-38.08
-43.35
-46.55
-46.65
-43.25
-36.7
-28.03
-18.55
-9.46
-1.48
5.17
10.61
15.0
18.49
21.06
22.74
23.56
23.7
23.39
22.87
22.31
21.76
21.25
20.76
20.27
19.8
19.28
18.64
17.69
16.23
14.08
11.18
7.65
3.77
-0.12
-3.73
-6.95
-9.91
-12.95
-16.49
-20.84
-26.05
-31.72
-37.03
-40.88
-42.19
-40.34
-35.37
-28.07
-19.59
-11.15
-3.58
2.78
8.0
12.33
15.97
18.95
21.21
22.7
23.46
23.61
23.31
22.71
21.96
21.11
20.23
19.36
18.44
17.42
16.2
14.71
12.87
10.67
8.12
5.26
2.22
-0.9
-4.01
-7.14
-10.47
-14.26
-18.74
-23.95
-29.52
-34.69
-38.37
-39.51
-37.43
-32.15
-24.39
-15.4
-6.54
1.2
7.36
12.06
15.7
18.66
21.09
22.86
23.74
23.66
22.81
21.58
20.43
19.62
19.17
18.84
18.26
17.17
15.47
13.19
10.48
7.52
4.48
1.46
-1.49
-4.39
-7.32
-10.45
-14.02
-18.23
-23.14
-28.48
-33.64
-37.68
-39.53
-38.39
-34.0
-26.83
-17.96
-8.73
-0.28
6.71
12.1
16.12
19.04
21.03
22.09
22.22
21.51
20.22
18.69
17.26
16.14
15.34
14.72
14.09
13.3
12.23
10.86
9.16
7.19
4.97
2.56
0.06
-2.5
-5.11
-7.84
-10.81
-14.2
-18.19
-22.86
-28.05
-33.23
-37.51
-39.87
-39.45
-35.91
-29.6
-21.44
-12.65
-4.32
2.87
8.68
13.16
16.52
18.9
20.41
21.16
21.27
20.9
20.18
19.23
18.15
17.05
16.03
15.19
14.52
14.0
13.46
12.78
11.82
10.52
8.85
6.79
4.32
1.41
-1.92
-5.66
-9.83
-14.48
-19.71
-25.54
-31.73
-37.64
-42.32
-44.69
-43.95
-39.89
-33.02
-24.37
-15.17
-6.43
1.2
7.54
12.65
16.69
19.77
21.93
23.21
23.7
23.54
22.91
21.98
20.9
19.76
18.66
17.67
16.86
16.23
15.66
15.01
14.08
12.73
10.94
8.79
6.43
3.98
1.51
-1.01
-3.76
-6.96
-10.89
-15.72
-21.4
-27.49
-33.15
-37.3
-38.92
-37.38
-32.72
-25.65
-17.31
-8.92
-1.43
4.68
9.38
12.95
15.67
17.79
19.34
20.28
20.52
20.14
19.35
18.46
17.8
17.53
17.57
17.69
17.57
16.93
15.72
14.05
12.13
10.09
8.0
5.78
3.37
0.66
-2.4
-5.87
-9.84
-14.39
-19.46
-24.8
-29.8
-33.62
-35.36
-34.38
-30.62
-24.6
-17.3
-9.79
-2.88
3.07
8.08
12.35
16.01
19.01
21.17
22.33
22.49
21.81
20.62
19.23
17.93
16.86
16.07
15.51
15.1
14.67
14.09
13.19
11.88
10.08
7.81
5.14
2.22
-0.79
-3.81
-6.87
-10.19
-14.11
-18.91
-24.61
-30.76
-36.45
-40.45
-41.68
-39.54
-34.16
-26.44
-17.67
-9.09
-1.55
4.65
9.63
13.67
16.95
19.51
21.29
22.3
22.7
22.74
22.64
22.53
22.39
22.12
21.65
20.96
20.12
19.17
18.08
16.73
14.96
12.62
9.67
6.18
2.35
-1.54
-5.24
-8.62
-11.76
-14.92
-18.46
-22.68
-27.69
-33.24
-38.71
-43.15
-45.49
-44.88
-41.03
-34.3
-25.68
-16.43
-7.7
-0.16
6.0
11.01
15.13
18.51
21.08
22.76
23.56
23.63
23.24
22.6
21.82
20.84
19.64
18.23
16.78
15.47
14.43
13.59
12.75
11.6
9.87
7.46
4.46
1.05
-2.49
-5.93
-9.16
-12.16
-15.16
-18.42
-22.26
-26.76
-31.61
-36.07
-39.09
-39.68
-37.31
-32.12
-24.93
-16.92
-9.25
-2.65
2.66
6.9
10.43
13.49
16.13
18.24
19.65
20.31
20.26
19.71
18.89
18.0
17.17
16.38
15.6
14.7
13.58
12.18
10.44
8.37
5.97
3.3
0.45
-2.44
-5.23
-7.85
-10.33
-12.88
-15.8
-19.31
-23.37
-27.53
-30.99
-32.8
-32.21
-28.96
-23.39
-16.34
-8.81
-1.74
4.33
9.2
12.96
15.79
17.83
19.15
19.74
19.64
18.95
17.86
16.66
15.61
14.88
14.51
14.43
14.47
14.42
14.1
13.37
12.12
10.32
7.97
5.15
1.98
-1.36
-4.71
-7.99
-11.25
-14.67
-18.54
-23.1
-28.36
-33.95
-39.05
-42.52
-43.35
-40.98
-35.58
-28.03
-19.59
-11.47
-4.39
1.45
6.28
10.42
14.03
17.05
19.27
20.55
20.88
20.46
19.57
18.52
17.52
16.67
15.97
15.36
14.76
14.11
13.33
12.33
11.0
9.19
6.87
4.13
1.16
-1.75
-4.42
-6.88
-9.36
-12.29
-16.01
-20.68
-26.05
-31.49
-36.06
-38.76
-38.84
-36.0
-30.55
-23.32
-15.37
-7.7
-1.02
4.42
8.65
11.9
14.38
16.23
17.5
18.24
18.52
18.48
18.29
18.12
18.05
18.06
18.08
17.98
17.67
17.11
16.3
15.24
13.95
12.41
10.62
8.67
6.61
4.57
2.62
0.68
-1.43
-4.07
-7.48
-11.68
-16.23
-20.26
-22.64
-22.4
-19.1
-13.06
-5.36
2.63
9.64
14.93
18.38
20.35
21.33
21.65
21.39
20.44
18.73
16.42
13.89
11.65
10.04
9.12
8.55
7.82
6.42
4.07
0.82
-3.0
-6.98
-10.81
-14.34
-17.71
-21.16
-24.92
-29.09
-33.61
-38.31
-42.98
-47.34
-50.94
-53.16
-53.24
-50.46
-44.46
-35.39
-23.94
-11.1
2.11
15.0
27.19
38.63
49.3
59.22
68.33
76.63
84.27
91.49
98.61
105.83
113.25
120.81
128.33
135.62
142.57
149.25
155.99
163.25
171.4
180.34
189.35
197.16
202.39
203.99
201.59
195.45
186.15
174.19
159.94
143.77
126.36
108.78
92.21
77.46
64.54
52.74
41.04
28.84
16.29
4.22
-6.37
-14.9
-21.53
-26.99
-32.07
-37.19
-42.23
-46.71
-50.18
-52.45
-53.66
-54.14
-54.16
-53.9
-53.47
-52.94
-52.45
-52.2
-52.42
-53.36
-55.2
-58.03
-61.77
-66.14
-70.71
-75.04
-78.74
-81.52
-83.15
-83.41
-82.07
-79.02
-74.28
-68.07
-60.72
-52.66
-44.26
-35.89
-27.87
-20.55
-14.34
-9.79
-7.53
-8.16
-12.14
-19.44
-29.49
-41.16
-53.1
-64.16
-73.73
-81.83
-88.86
-95.24
-101.1
-106.25
-110.38
-113.32
-115.33
-117.01
-119.14
-122.27
-126.35
-130.69
-133.99
-134.76
-131.78
-124.51
-113.28
-99.17
-83.67
-68.26
-54.14
-42.12
-32.75
-26.36
-23.22
-23.37
-26.42
-31.56
-37.53
-42.96
-46.7
-48.2
-47.6
-45.64
-43.31
-41.44
-40.47
-40.32
-40.61
-40.91
-41.04
-41.16
-41.75
-43.28
-45.94
-49.38
-52.66
-54.51
-53.67
-49.34
-41.4
-30.38
-17.23
-2.97
11.59
25.88
39.5
52.03
62.93
71.64
77.75
81.27
82.61
82.51
81.71
80.67
79.46
77.8
75.23
71.42
66.26
59.8
52.1
43.04
32.32
19.62
4.91
-11.48
-28.75
-45.87
-61.72
-75.21
-85.35
-91.25
-92.31
-88.33
-79.74
-67.6
-53.33
-38.34
-23.65
-9.8
3.04
14.79
25.24
33.95
40.47
44.58
46.45
46.6
45.66
44.05
41.78
38.45
33.51
26.64
18.09
8.75
-0.07
-7.12
-11.71
-14.0
-15.0
-16.13
-18.81
-24.02
-32.04
-42.36
-53.74
-64.33
-72.02
-74.86
-71.68
-62.44
-48.24
-30.91
-12.39
5.88
23.21
39.47
54.57
68.17
79.58
88.06
93.29
95.58
95.9
95.51
95.59
96.79
99.19
102.36
105.64
108.52
110.85
112.94
115.35
118.66
123.07
128.21
133.15
136.67
137.66
135.5
130.32
123.07
115.41
109.39
106.97
109.53
117.41
129.55
143.56
156.15
163.81
163.69
154.15
135.05
107.45
73.21
34.5
-6.35
-46.94
-84.8
-117.66
-143.79
-162.44
-174.11
-180.29
-183.05
-184.34
-185.5
-187.04
-188.78
-190.1
-190.25
-188.64
-185.04
-179.67
-173.26
-166.88
-161.7
-158.63
-158.07
-159.92
-163.57
-168.2
-172.97
-177.27
-180.74
-183.28
-184.91
-185.56
-184.91
-182.45
-177.69
-170.47
-161.14
-150.49
-139.33
-128.16
-116.82
-104.68
-91.04
-75.72
-59.3
-43.02
-28.24
-15.87
-6.03
1.83
8.6
14.97
21.12
26.77
31.37
34.37
35.5
34.73
32.35
28.95
25.43
23.01
22.96
26.36
33.73
44.83
58.68
73.86
88.89
102.54
113.94
122.59
128.21
130.76
130.52
128.06
124.31
120.34
117.09
115.05
114.17
113.92
113.57
112.55
110.72
108.33
105.85
103.63
101.61
99.21
95.5
89.46
80.38
68.13
53.28
37.1
21.46
8.42
-0.06
-2.7
0.6
8.42
17.93
25.46
27.44
21.41
6.6
-15.97
-43.96
-74.46
-104.63
-132.14
-155.27
-172.97
-184.85
-191.21
-193.05
-191.96
-189.77
-188.13
-188.07
-189.85
-192.97
-196.43
-199.27
-200.87
-201.24
-200.84
-200.24
-199.74
-199.18
-197.92
-195.14
-189.93
-181.54
-169.36
-152.94
-132.18
-107.42
-79.61
-50.0
-19.92
9.56
37.78
64.32
88.78
110.57
129.09
143.92
155.19
163.6
170.17
175.84
181.09
185.77
189.3
190.98
190.37
187.46
182.68
176.7
170.22
163.68
157.23
150.68
143.67
135.85
126.97
116.89
105.6
93.21
79.89
66.01
52.16
39.07
27.49
18.0
10.9
6.11
3.25
1.81
1.22
1.0
0.74
0.22
-0.81
-2.54
-5.2
-8.85
-13.38
-18.4
-23.35
-27.68
-31.09
-33.75
-36.11
-38.79
-42.19
-46.42
-51.21
-56.16
-60.9
-65.17
-68.81
-71.8
-74.22
-76.3
-78.42
-81.02
-84.37
-88.23
-91.74
-93.57
-92.27
-86.85
-77.19
-64.04
-48.74
-32.69
-16.95
-2.12
11.53
23.77
34.23
42.49
48.28
51.74
53.47
54.33
55.12
56.26
57.69
58.99
59.72
59.57
58.55
56.88
54.85
52.63
50.24
47.51
44.2
40.11
35.07
29.04
22.08
14.5
6.96
0.47
-3.73
-4.54
-1.35
5.6
15.28
26.17
36.82
46.2
53.95
60.21
65.18
68.92
71.23
71.9
71.01
69.02
66.69
64.78
63.75
63.54
63.73
63.69
62.89
61.07
58.31
54.92
51.26
47.57
43.92
40.15
36.02
31.34
26.01
20.04
13.48
6.44
-0.84
-7.86
-13.81
-17.69
-18.63
-16.18
-10.54
-2.49
6.84
16.36
25.25
33.02
39.45
44.47
48.01
50.06
50.68
50.13
48.79
47.13
45.56
44.31
43.45
42.84
42.27
41.55
40.45
38.85
36.64
33.78
30.26
26.11
21.47
16.54
11.55
6.71
2.12
-2.33
-6.93
-12.11
-18.22
-25.31
-32.87
-39.87
-44.96
-46.85
-44.8
-38.88
-29.89
-19.14
-7.97
2.61
12.01
20.02
26.61
31.74
35.39
37.58
38.49
38.45
37.82
36.93
36.01
35.15
34.32
33.5
32.7
31.93
31.29
30.77
30.24
29.45
28.08
25.91
22.94
19.36
15.55
11.81
8.26
4.82
1.22
-2.89
-7.83
-13.81
-20.8
-28.4
-35.75
-41.68
-44.87
-44.4
-40.05
-32.43
-22.81
-12.68
-3.26
4.78
11.3
16.44
20.41
23.23
24.9
25.42
25.02
24.12
23.15
22.49
22.2
22.14
22.08
21.87
21.5
21.08
20.71
20.28
19.58
18.27
16.18
13.32
9.94
6.42
3.12
0.2
-2.42
-5.02
-7.99
-11.74
-16.47
-22.1
-28.07
-33.43
-36.98
-37.64
-34.87
-28.89
-20.69
-11.64
-3.1
4.06
9.56
13.58
16.42
18.24
19.02
18.65
17.19
14.98
12.6
10.59
9.38
9.0
9.21
9.6
9.75
9.4
8.49
7.13
5.52
3.87
2.33
0.95
-0.36
-1.76
-3.44
-5.61
-8.45
-12.11
-16.6
-21.73
-26.98
-31.55
-34.47
-34.87
-32.31
-26.95
-19.57
-11.28
-3.25
3.68
9.12
13.02
15.59
17.06
17.64
17.49
16.77
15.71
14.55
13.51
12.76
12.33
12.12
11.9
11.41
10.43
8.81
6.58
3.91
1.06
-1.73
-4.35
-6.81
-9.25
-11.88
-14.86
-18.32
-22.36
-26.97
-32.01
-37.09
-41.5
-44.28
-44.46
-41.39
-35.09
-26.24
-16.08
-5.94
3.13
10.54
16.21
20.34
23.19
24.97
25.79
25.75
25.04
23.98
22.93
22.31
22.39
23.19
24.51
25.96
27.14
27.78
27.9
27.74
27.6
27.74
28.19
28.86
29.51
29.93
29.96
29.54
28.66
27.36
25.8
24.29
23.26
23.2
24.44
27.12
31.03
35.83
41.17
46.89
53.09
59.92
67.49
75.56
83.63
91.11
97.68
103.52
109.35
116.12
124.73
135.6
148.51
162.45
175.75
186.26
191.67
190.08
180.48
163.06
139.2
111.04
80.93
50.89
22.37
-3.66
-26.6
-46.04
-61.95
-74.67
-84.99
-93.94
-102.32
-110.56
-118.56
-125.92
-132.23
-137.28
-141.21
-144.45
-147.59
-151.25
-155.69
-160.57
-164.76
-166.46
-163.69
-155.04
-140.28
-120.56
-98.11
-75.51
-54.96
-37.75
-24.31
-14.37
-7.31
-2.51
0.5
1.96
1.89
0.26
-2.74
-6.55
-10.15
-12.4
-12.4
-9.86
-5.18
0.61
6.21
10.34
12.0
10.74
6.68
0.56
-6.26
-12.07
-15.17
-14.48
-10.09
-3.41
3.19
7.35
7.8
4.95
0.76
-2.27
-2.29
1.06
6.66
12.62
17.38
20.22
21.24
20.82
19.08
15.82
10.76
4.06
-3.51
-10.81
-16.71
-20.66
-22.81
-23.89
-24.91
-26.74
-29.88
-34.31
-39.59
-44.93
-49.47
-52.47
-53.35
-51.85
-47.91
-41.69
-33.52
-23.92
-13.52
-3.05
6.77
15.35
22.3
27.45
30.89
32.87
33.7
33.65
32.87
31.36
29.12
26.23
22.91
19.46
16.06
12.71
9.07
4.54
-1.5
-9.56
-19.88
-32.41
-46.84
-62.71
-79.34
-95.83
-111.1
-123.92
-133.08
-137.5
-136.39
-129.35
-116.48
-98.48
-76.79
-53.34
-30.26
-9.28
8.68
23.64
36.3
47.56
58.12
68.15
77.41
85.37
91.48
95.47
97.47
97.89
97.29
96.01
94.06
91.21
87.22
82.05
75.97
69.39
62.57
55.47
47.77
39.18
29.73
19.9
10.44
2.0
-5.17
-11.26
-16.74
-22.1
-27.63
-33.36
-39.12
-44.71
-50.0
-54.97
-59.76
-64.5
-69.32
-74.26
-79.32
-84.52
-89.79
-94.97
-99.73
-103.65
-106.38
-107.83
-108.22
-107.97
-107.54
-107.18
-106.95
-106.8
-106.72
-106.76
-107.09
-107.83
-108.92
-110.09
-110.87
-110.67
-108.99
-105.4
-99.61
-91.5
-81.12
-68.75
-54.98
-40.62
-26.66
-14.01
-3.38
4.89
10.83
14.7
16.81
17.39
16.54
14.38
11.17
7.33
3.41
-0.11
-2.96
-5.11
-6.83
-8.48
-10.47
-13.13
-16.74
-21.59
-27.83
-35.45
-44.07
-52.9
-60.71
-66.12
-67.86
-65.19
-58.03
-47.07
-33.55
-18.92
-4.59
8.25
18.69
26.07
30.05
30.71
28.6
24.72
20.28
16.39
13.76
12.57
12.52
13.12
13.83
14.27
14.2
13.5
12.07
9.8
6.56
2.25
-3.2
-9.77
-17.25
-25.09
-32.38
-37.94
-40.57
-39.4
-34.23
-25.59
-14.53
-2.32
9.87
21.25
31.29
39.68
46.12
50.35
52.21
51.76
49.39
45.8
41.76
38.01
34.94
32.55
30.52
28.41
25.9
22.93
19.67
16.41
13.35
10.43
7.35
3.66
-1.08
-7.14
-14.53
-22.82
-31.16
-38.3
-42.74
-43.12
-38.67
-29.53
-16.86
-2.5
11.6
23.99
33.99
41.69
47.51
51.76
54.47
55.4
54.45
51.87
48.4
44.93
42.24
40.58
39.67
38.87
37.56
35.41
32.51
29.21
25.94
22.91
20.07
17.08
13.59
9.29
4.03
-2.19
-9.27
-16.98
-24.84
-31.99
-37.23
-39.25
-37.06
-30.38
-19.84
-6.77
7.15
20.42
32.02
41.5
48.84
54.21
57.85
59.95
60.73
60.48
59.58
58.45
57.45
56.83
56.68
56.96
57.49
58.07
58.46
58.49
58.05
57.16
55.86
54.15
51.93
49.02
45.16
40.19
34.08
26.92
18.94
10.52
2.26
-4.92
-9.79
-11.12
-7.98
-0.14
11.74
26.3
41.82
56.71
69.83
80.65
89.11
95.44
99.95
103.02
105.0
106.37
107.67
109.54
112.5
116.78
122.21
128.25
134.16
139.26
143.11
145.66
147.09
147.68
147.59
146.78
144.97
141.73
136.6
129.11
118.91
105.79
89.88
71.76
52.47
33.43
16.14
1.82
-8.93
-16.22
-20.7
-23.29
-24.86
-26.02
-27.19
-28.7
-30.87
-33.97
-38.16
-43.33
-49.12
-54.99
-60.35
-64.68
-67.67
-69.2
-69.38
-68.54
-67.12
-65.56
-64.14
-62.94
-61.83
-60.65
-59.33
-57.95
-56.73
-55.93
-55.75
-56.25
-57.35
-58.76
-59.98
-60.28
-58.84
-54.91
-48.17
-38.81
-27.66
-15.85
-4.6
5.11
12.65
17.66
19.95
19.44
16.19
10.57
3.31
-4.62
-12.25
-18.89
-24.3
-28.66
-32.44
-36.07
-39.83
-43.79
-47.8
-51.62
-55.02
-57.81
-59.93
-61.47
-62.65
-63.83
-65.4
-67.73
-71.07
-75.42
-80.45
-85.36
-88.93
-89.67
-86.27
-78.05
-65.24
-49.08
-31.39
-14.09
1.31
13.97
23.69
30.58
34.85
36.67
36.21
33.78
29.93
25.33
20.69
16.54
13.11
10.32
7.87
5.42
2.75
-0.19
-3.36
-6.72
-10.27
-14.07
-18.18
-22.54
-27.07
-31.71
-36.54
-41.73
-47.42
-53.48
-59.38
-64.2
-66.82
-66.23
-61.85
-53.72
-42.5
-29.36
-15.67
-2.75
8.35
16.99
22.92
26.19
27.04
25.84
23.06
19.27
15.09
11.11
7.76
5.29
3.62
2.49
1.5
0.27
-1.46
-3.71
-6.28
-8.9
-11.32
-13.5
-15.61
-17.97
-20.95
-24.75
-29.29
-34.18
-38.79
-42.29
-43.78
-42.46
-37.69
-29.21
-17.22
-2.48
13.79
30.15
45.25
58.09
68.2
75.65
80.88
84.53
87.23
89.52
91.81
94.46
97.73
101.78
106.55
111.62
116.25
119.4
120.03
117.29
110.67
100.07
85.71
67.98
47.36
24.48
0.19
-24.47
-48.31
-70.26
-89.54
-105.8
-118.94
-128.98
-135.85
-139.39
-139.51
-136.39
-130.65
-123.26
-115.4
-108.1
-102.06
-97.5
-94.28
-91.93
-89.83
-87.38
-84.04
-79.5
-73.73
-67.04
-59.97
-53.15
-47.12
-42.18
-38.41
-35.71
-33.85
-32.63
-31.89
-31.5
-31.43
-31.69
-32.41
-33.74
-35.82
-38.59
-41.68
-44.43
-46.02
-45.64
-42.78
-37.33
-29.55
-19.86
-8.78
3.22
15.65
27.87
39.04
48.2
54.56
57.7
57.77
55.45
51.68
47.42
43.34
39.81
36.91
34.52
32.47
30.58
28.68
26.6
24.23
21.45
18.26
14.71
10.94
7.14
3.47
-0.02
-3.42
-6.97
-10.9
-15.25
-19.66
-23.33
-25.1
-23.77
-18.48
-8.97
4.22
19.91
36.52
52.52
66.72
78.41
87.41
93.9
98.26
100.91
102.26
102.67
102.42
101.68
100.46
98.49
95.37
90.64
84.04
75.7
66.16
56.35
47.37
40.22
35.63
33.9
34.84
37.68
41.12
43.35
42.38
36.42
24.48
6.79
-15.13
-38.67
-60.83
-78.84
-90.8
-95.92
-94.5
-87.68
-77.19
-65.21
-54.13
-46.36
-43.89
-47.83
-57.96
-72.61
-89.05
-104.15
-115.34
-121.19
-121.72
-118.05
-111.89
-104.98
-98.71
-93.98
-91.16
-90.2
-90.65
-91.79
-92.84
-93.16
-92.54
-91.24
-89.91
-89.29
-89.91
-91.81
-94.43
-96.76
-97.55
-95.64
-90.22
-80.99
-68.08
-52.04
-33.6
-13.72
6.43
25.48
42.07
55.04
63.7
67.98
68.29
65.37
60.01
53.01
45.15
37.22
29.92
23.71
18.67
14.51
10.87
7.64
5.06
3.52
3.25
3.89
4.33
3.1
-1.24
-9.61
-22.02
-37.62
-54.77
-71.3
-84.91
-93.52
-95.82
-91.6
-81.87
-68.54
-53.85
-39.79
-27.65
-18.04
-11.13
-6.91
-5.34
-6.31
-9.47
-14.17
-19.52
-24.62
-28.83
-32.01
-34.57
-37.44
-41.71
-48.31
-57.64
-69.43
-82.86
-96.84
-110.39
-122.87
-134.06
-144.01
-152.96
-161.13
-168.69
-175.46
-180.85
-183.62
-182.18
-174.99
-161.25
-141.28
-116.56
-89.16
-61.04
-33.4
-6.52
20.12
47.45
76.26
106.94
139.07
171.39
201.87
228.16
248.2
260.95
266.72
267.05
264.16
260.06
255.98
252.12
247.95
242.63
235.56
226.54
215.68
203.23
189.36
174.14
157.62
139.99
121.62
102.98
84.45
66.15
48.07
30.16
12.66
-3.76
-18.15
-29.66
-37.8
-42.76
-45.33
-46.57
-47.57
-49.16
-51.86
-55.86
-61.14
-67.45
-74.42
-81.51
-88.14
-93.78
-98.01
-100.58
-101.45
-100.75
-98.72
-95.68
-91.95
-87.85
-83.69
-79.79
-76.51
-74.23
-73.28
-73.89
-76.14
-79.83
-84.47
-89.24
-92.98
-94.37
-92.2
-85.67
-74.66
-59.91
-42.71
-24.61
-6.97
9.3
23.73
36.08
46.22
54.0
59.38
62.68
64.53
65.8
67.31
69.51
72.36
75.31
77.67
78.85
78.59
77.05
74.71
72.09
69.57
67.23
64.73
61.49
56.78
49.99
40.83
29.56
17.14
5.2
-4.2
-9.1
-8.19
-1.29
10.52
25.3
40.83
55.34
67.82
78.03
86.12
92.18
96.05
97.41
96.11
92.49
87.44
82.16
77.72
74.64
72.72
71.19
69.14
65.94
61.55
56.44
51.35
46.88
43.24
40.15
36.95
32.88
27.33
19.98
10.94
0.76
-9.54
-18.58
-24.74
-26.48
-22.93
-14.18
-1.48
13.18
27.66
40.34
50.53
58.3
64.06
68.13
70.44
70.75
68.97
65.46
61.09
56.86
53.62
51.59
50.41
49.26
47.29
44.0
39.43
34.09
28.76
24.0
19.99
16.41
12.69
8.2
2.53
-4.48
-12.78
-22.11
-31.87
-41.03
-48.11
-51.55
-50.11
-43.56
-32.74
-19.36
-5.38
7.58
18.68
27.74
34.9
40.27
43.8
45.4
45.19
43.68
41.6
39.72
38.47
37.87
37.5
36.79
35.24
32.66
29.22
25.35
21.51
18.0
14.81
11.59
7.81
2.91
-3.52
-11.5
-20.65
-30.04
-38.34
-44.05
-45.89
-43.15
-36.0
-25.39
-12.82
0.19
12.47
23.34
32.53
39.94
45.43
48.87
50.18
49.56
47.46
44.58
41.62
39.06
37.02
35.25
33.27
30.63
27.12
22.89
18.32
13.86
9.78
6.04
2.3
-1.92
-7.07
-13.43
-21.05
-29.62
-38.45
-46.42
-52.12
-54.16
-51.65
-44.5
-33.57
-20.42
-6.82
5.76
16.52
25.32
32.43
38.24
42.89
46.26
48.08
48.21
46.81
44.35
41.49
38.76
36.41
34.3
32.0
29.13
25.54
21.38
17.03
12.82
8.91
5.12
1.11
-3.49
-8.91
-15.14
-22.08
-29.5
-37.2
-44.75
-51.46
-56.31
-58.13
-56.01
-49.7
-39.79
-27.58
-14.67
-2.5
8.08
16.76
23.68
29.07
33.13
35.9
37.39
37.71
37.06
35.72
34.0
32.09
30.14
28.27
26.53
24.92
23.34
21.6
19.47
16.79
13.51
9.71
5.56
1.23
-3.16
-7.57
-12.05
-16.73
-21.78
-27.45
-33.92
-41.04
-48.17
-54.19
-57.65
-57.32
-52.67
-44.1
-32.87
-20.64
-8.93
1.24
9.5
15.95
20.83
24.32
26.51
27.44
27.25
26.3
25.0
23.74
22.77
22.05
21.39
20.56
19.43
18.02
16.47
14.91
13.28
11.44
9.09
6.07
2.34
-1.91
-6.35
-10.6
-14.47
-17.95
-21.32
-25.03
-29.61
-35.34
-42.14
-49.31
-55.66
-59.73
-60.27
-56.63
-49.03
-38.52
-26.57
-14.68
-3.94
5.11
12.38
18.01
22.14
24.84
26.16
26.24
25.32
23.75
21.89
20.02
18.31
16.79
15.49
14.35
13.31
12.25
11.03
9.46
7.4
4.78
1.67
-1.75
-5.25
-8.61
-11.75
-14.72
-17.71
-21.07
-25.17
-30.28
-36.41
-43.09
-49.33
-53.76
-54.99
-52.13
-45.16
-35.04
-23.41
-12.05
-2.32
5.19
10.59
14.37
17.03
18.86
19.84
19.81
18.76
16.88
14.66
12.6
11.11
10.33
10.02
9.8
9.32
8.33
6.8
4.83
2.46
-0.25
-3.35
-6.82
-10.57
-14.46
-18.36
-22.33
-26.61
-31.47
-36.93
-42.61
-47.57
-50.61
-50.55
-46.79
-39.51
-29.69
-18.74
-8.09
1.25
8.8
14.58
18.79
21.62
23.18
23.53
22.8
21.27
19.26
17.09
15.0
13.12
11.5
10.14
8.95
7.79
6.45
4.79
2.72
0.28
-2.39
-5.16
-7.96
-10.83
-13.87
-17.22
-21.05
-25.53
-30.81
-36.86
-43.32
-49.38
-53.88
-55.53
-53.43
-47.35
-37.93
-26.46
-14.5
-3.44
5.86
13.05
18.25
21.76
23.89
24.91
24.99
24.3
23.03
21.38
19.6
17.88
16.36
15.04
13.83
12.57
11.06
9.19
6.93
4.34
1.53
-1.36
-4.26
-7.1
-9.9
-12.69
-15.56
-18.68
-22.27
-26.65
-31.97
-38.06
-44.25
-49.38
-52.05
-51.1
-46.04
-37.35
-26.27
-14.44
-3.4
5.91
13.14
18.47
22.3
24.95
26.6
27.3
27.09
26.09
24.57
22.84
21.18
19.8
18.73
17.9
17.13
16.23
15.06
13.52
11.55
9.12
6.23
2.93
-0.66
-4.37
-8.1
-11.82
-15.7
-20.04
-25.18
