38.56
39.98
40.33
40.11
39.76
39.62
39.81
40.29
40.92
41.53
41.95
42.01
41.6
40.56
38.79
36.13
32.47
27.68
21.74
14.81
7.18
-0.69
-8.28
-15.2
-21.27
-26.53
-31.27
-35.92
-40.97
-46.83
-53.72
-61.42
-69.19
-75.77
-79.64
-79.47
-74.54
-65.07
-52.11
-37.26
-22.16
-8.1
4.22
14.64
23.35
30.66
36.86
42.1
46.38
49.61
51.69
52.58
52.33
51.15
49.36
47.36
45.52
44.09
43.14
42.5
41.87
40.89
39.29
36.97
33.98
30.46
26.52
22.14
17.24
11.77
5.76
-0.6
-7.0
-13.17
-18.93
-24.3
-29.47
-34.82
-40.75
-47.7
-55.87
-65.09
-74.63
-83.25
-89.37
-91.49
-88.65
-80.75
-68.63
-53.78
-37.87
-22.34
-8.05
4.65
15.81
25.59
34.08
41.25
46.95
51.09
53.65
54.79
54.77
53.87
52.38
50.51
48.43
46.29
44.24
42.39
40.72
39.1
37.22
34.82
31.78
28.18
24.28
20.34
16.49
12.67
8.61
4.08
-1.02
-6.6
-12.37
-18.01
-23.3
-28.21
-32.97
-38.01
-43.82
-50.78
-58.92
-67.69
-75.94
-82.13
-84.76
-82.8
-76.12
-65.47
-52.26
-38.05
-24.14
-11.35
0.01
9.87
18.28
25.17
30.44
34.02
35.94
36.37
35.62
34.04
31.95
29.62
27.28
25.14
23.42
22.38
22.17
22.89
24.41
26.45
28.59
30.43
31.64
32.1
31.9
31.31
30.63
30.08
29.72
29.33
28.48
26.58
22.98
17.14
8.82
-1.67
-13.42
-24.9
-34.31
-40.01
-41.03
-37.35
-29.85
-20.0
-9.31
1.08
10.55
18.92
26.17
32.24
36.93
40.0
41.35
41.12
39.7
37.59
35.19
32.71
30.11
27.22
23.87
20.04
15.88
11.63
7.5
3.58
-0.23
-4.19
-8.53
-13.46
-19.05
-25.23
-31.8
-38.53
-45.16
-51.44
-57.18
-62.42
-67.46
-72.89
-79.49
-87.82
-97.88
-108.81
-118.78
-125.31
-125.82
-118.25
-101.62
-76.29
-43.89
-7.18
30.47
65.65
95.48
118.17
133.16
140.89
142.29
138.29
129.7
117.32
102.28
86.13
70.68
57.47
47.46
40.86
37.39
36.61
38.12
41.47
45.94
50.48
53.9
55.25
54.17
50.96
46.39
41.32
36.4
31.96
28.01
24.39
20.87
17.27
13.46
9.35
4.83
-0.34
-6.44
-13.61
-21.5
-29.07
-34.68
-36.47
-33.07
-24.18
-10.86
4.73
19.97
32.45
40.57
43.67
41.9
36.08
27.6
18.14
9.44
2.87
-1.0
-2.46
-2.47
-2.06
-1.87
-1.81
-1.36
0.05
2.57
5.78
8.96
11.41
12.79
13.08
12.43
10.88
8.33
4.64
-0.14
-5.61
-11.07
-15.79
-19.35
-21.9
-24.12
-26.97
-31.33
-37.55
-45.24
-53.32
-60.33
-64.87
-65.98
-63.43
-57.68
-49.72
-40.74
-31.79
-23.58
-16.41
-10.27
-5.03
-0.56
3.19
6.21
8.45
9.93
10.71
10.89
10.55
9.76
8.55
6.97
5.14
3.22
1.41
-0.22
-1.78
-3.56
-5.95
-9.3
-13.72
-19.01
-24.7
-30.22
-35.12
-39.33
-43.17
-47.27
-52.33
-58.73
-66.31
-74.21
-81.08
-85.43
-86.11
-82.67
-75.48
-65.58
-54.29
-42.82
-32.03
-22.33
-13.81
-6.43
-0.15
5.02
9.01
11.85
13.59
14.45
14.71
14.69
14.61
14.59
14.57
14.41
13.95
13.16
12.16
11.18
10.39
9.8
9.15
8.08
6.25
3.52
0.11
-3.57
-7.03
-9.97
-12.39
-14.58
-16.99
-20.07
-24.17
-29.41
-35.67
-42.53
-49.23
-54.68
-57.72
-57.36
-53.06
-45.03
-34.09
-21.52
-8.63
3.57
14.53
24.14
32.52
39.88
46.31
51.8
56.3
59.72
62.05
63.31
63.6
63.05
61.8
60.04
57.97
55.81
53.74
51.86
50.07
48.23
46.11
43.54
40.46
36.93
33.06
28.93
24.59
20.07
15.45
10.81
6.26
1.87
-2.43
-6.77
-11.34
-16.32
-21.89
-28.16
-35.12
-42.48
-49.57
-55.31
-58.5
-58.15
-53.92
-46.23
-36.18
-25.11
-14.22
-4.23
4.61
12.41
19.4
25.68
31.19
35.72
39.02
40.94
41.48
40.81
39.24
37.14
34.87
32.75
31.11
30.15
29.95
30.36
31.04
31.55
31.44
30.4
28.29
25.07
20.79
15.62
9.78
3.64
-2.39
-7.98
-13.04
-17.71
-22.31
-27.17
-32.48
-38.28
-44.54
-51.17
-58.0
-64.67
-70.48
-74.52
-75.8
-73.64
-67.91
-59.13
-48.25
-36.34
-24.29
-12.58
-1.4
9.22
19.18
28.17
35.66
41.02
43.7
43.38
40.1
34.19
26.18
16.65
6.14
-4.89
-16.02
-26.84
-36.95
-46.02
-53.86
-60.44
-65.87
-70.35
-74.01
-76.9
-78.9
-79.78
-79.25
-77.08
-73.19
-67.79
-61.39
-54.71
-48.53
-43.37
-39.36
-36.03
-32.48
-27.7
-20.95
-12.05
-1.46
9.87
20.88
30.73
39.06
45.91
51.6
56.46
60.59
63.92
66.24
67.4
67.39
66.4
64.71
62.6
60.28
57.82
55.27
52.66
50.03
47.42
44.83
42.17
39.31
36.18
32.75
29.08
25.28
21.45
17.66
13.88
10.08
6.19
2.23
-1.79
-5.8
-9.77
-13.71
-17.72
-21.97
-26.7
-32.13
-38.34
-45.08
-51.66
-57.04
-59.99
-59.53
-55.24
-47.45
-37.14
-25.63
-14.13
-3.52
5.79
13.71
20.33
25.81
30.3
33.94
36.82
39.0
40.52
41.36
41.55
41.16
40.29
39.04
37.59
36.05
34.55
33.19
31.95
30.7
29.29
27.52
25.29
22.61
19.56
16.31
12.99
9.66
6.33
2.91
-0.73
-4.69
-8.97
-13.46
-17.91
-22.06
-25.72
-28.9
-31.89
-35.13
-39.16
-44.35
-50.71
-57.74
-64.39
-69.31
-71.19
-69.24
-63.41
-54.42
-43.51
-31.94
-20.7
-10.29
-0.9
7.46
14.69
20.68
25.31
28.58
30.7
31.93
32.51
32.62
32.32
31.69
30.82
29.87
28.96
28.15
27.36
26.41
25.1
23.36
21.22
18.83
16.31
13.66
10.77
7.47
3.66
-0.6
-5.02
-9.33
-13.27
-16.81
-20.07
-23.32
-26.84
-30.87
-35.61
-41.08
-47.06
-53.01
-58.01
-60.95
-60.87
-57.24
-50.2
-40.52
-29.38
-17.99
-7.26
2.3
10.58
17.63
23.48
28.09
31.36
33.28
34.04
33.99
33.56
33.08
32.6
32.0
31.02
29.55
27.67
25.68
23.9
22.48
21.26
19.82
17.67
14.4
9.93
4.54
-1.27
-6.95
-12.11
-16.63
-20.73
-24.8
-29.29
-34.59
-40.9
-48.13
-55.86
-63.29
-69.34
-72.87
-72.93
-69.18
-61.91
-52.03
-40.78
-29.31
-18.45
-8.6
0.13
7.77
14.28
19.54
23.4
25.83
26.97
27.2
26.94
26.64
26.54
26.7
26.96
27.08
26.86
26.25
25.32
24.28
23.29
22.35
21.28
19.75
17.42
14.15
10.03
5.36
0.53
-4.13
-8.45
-12.48
-16.42
-20.58
-25.32
-30.98
-37.76
-45.59
-53.98
-61.96
-68.21
-71.48
-70.88
-66.24
-58.11
-47.55
-35.81
-23.92
-12.57
-2.06
7.52
16.13
23.66
29.98
34.97
38.63
41.05
42.43
42.99
42.99
42.65
42.12
41.5
40.86
40.21
39.57
38.95
38.32
37.61
36.68
35.27
33.12
30.0
25.81
20.68
14.93
8.99
3.27
-1.95
-6.66
-11.06
-15.59
-20.8
-27.21
-35.21
-44.74
-55.22
-65.48
-73.94
-78.98
-79.5
-75.2
-66.66
-55.16
-42.19
-29.06
-16.63
-5.29
4.83
13.76
21.49
28.02
33.38
37.7
41.19
44.1
46.64
48.89
50.83
52.31
53.24
53.57
53.38
52.79
51.9
50.68
48.98
46.56
43.21
38.88
33.69
27.92
21.95
16.11
10.57
5.28
0.02
-5.63
-12.11
-19.73
-28.51
-38.07
-47.52
-55.68
-61.23
-63.09
-60.68
-54.12
-44.19
-32.14
-19.35
-7.0
4.12
13.71
21.8
28.51
33.95
38.09
40.86
42.25
42.42
41.72
40.53
39.16
37.73
36.19
34.45
32.5
30.43
28.34
26.26
23.97
21.13
17.4
12.66
7.11
1.24
-4.4
-9.46
-13.92
-18.17
-22.82
-28.48
-35.47
-43.62
-52.21
-59.98
-65.51
-67.51
-65.31
-59.02
-49.48
-37.98
-25.8
-13.93
-2.89
7.13
16.13
24.07
30.81
36.17
40.03
42.48
43.74
44.14
43.99
43.48
42.64
41.41
39.72
37.61
35.24
32.91
30.89
29.36
28.24
27.21
25.79
23.52
20.14
15.71
10.57
5.26
0.22
-4.31
-8.41
-12.39
-16.69
-21.77
-27.93
-35.27
-43.55
-52.11
-59.87
-65.53
-67.87
-66.11
-60.17
-50.72
-38.94
-26.19
-13.65
-2.09
8.14
17.05
24.77
31.44
37.11
41.75
45.29
47.71
49.08
49.55
49.3
48.54
47.43
46.14
44.82
43.59
42.47
41.39
40.12
38.45
36.21
33.41
30.19
26.77
23.28
19.74
16.01
11.9
7.32
2.32
-2.93
-8.17
-13.2
-17.94
-22.39
-26.7
-31.16
-36.07
-41.78
-48.48
-55.95
-63.47
-69.82
-73.55
-73.45
-68.95
-60.38
-48.83
-35.78
-22.61
-10.32
0.62
10.13
18.27
25.15
30.8
35.29
38.68
41.06
42.54
43.23
43.22
42.65
41.68
40.54
39.43
38.5
37.76
37.08
36.18
34.8
32.74
29.99
26.72
23.19
19.65
16.22
12.83
9.31
5.46
1.16
-3.6
-8.74
-14.05
-19.32
-24.36
-29.06
-33.52
-38.04
-43.11
-49.18
-56.44
-64.53
-72.47
-78.86
-82.31
-81.88
-77.39
-69.46
-59.29
-48.21
-37.3
-27.18
-18.01
-9.65
-1.91
5.23
11.65
17.06
21.24
24.11
25.79
26.55
26.67
26.34
25.66
24.61
23.16
21.32
19.15
16.75
14.25
11.78
9.34
6.78
3.75
-0.15
-5.27
-11.68
-19.04
-26.65
-33.51
-38.65
-41.31
-41.23
-38.72
-34.6
-29.95
-25.71
-22.33
-19.59
-16.65
-12.45
-6.14
2.54
13.17
24.8
36.26
46.54
54.98
61.35
65.77
68.53
69.93
70.18
69.44
67.83
65.51
62.78
59.98
57.41
55.23
53.35
51.48
49.32
46.66
43.52
40.14
36.86
33.88
31.13
28.29
24.9
20.59
15.28
9.22
2.83
-3.47
-9.44
-15.09
-20.56
-26.02
-31.67
-37.68
-44.34
-51.98
-60.85
-70.7
-80.65
-89.17
-94.47
-95.12
-90.6
-81.51
-69.35
-55.93
-42.75
-30.68
-19.89
-10.22
-1.46
6.38
13.13
18.6
22.76
25.74
27.82
29.26
30.23
30.77
30.92
30.69
30.17
29.49
28.72
27.86
26.84
25.51
23.73
21.49
18.89
16.13
13.38
10.72
8.05
5.13
1.7
-2.37
-7.03
-12.02
-16.96
-21.53
-25.59
-29.27
-32.97
-37.21
-42.51
-49.19
-57.06
-65.3
-72.58
-77.28
-78.04
-74.2
-66.06
-54.77
-41.94
-29.09
-17.26
-6.89
2.1
9.94
16.78
22.65
27.41
30.95
33.28
34.53
34.95
34.8
34.33
33.74
33.12
32.53
31.94
31.27
30.46
29.43
28.19
26.7
24.93
22.76
20.0
16.55
12.4
7.75
2.9
-1.85
-6.33
-10.59
-14.82
-19.32
-24.36
-30.19
-36.98
-44.74
-53.19
-61.68
-69.13
-74.24
-75.8
-73.1
-66.21
-55.89
-43.44
-30.26
-17.57
-6.13
3.71
11.94
18.64
23.87
27.7
30.23
31.67
32.36
32.71
32.99
33.29
33.47
33.33
32.76
31.82
30.79
29.93
29.34
28.79
27.78
25.73
22.25
17.37
11.5
5.27
-0.66
-5.93
-10.5
-14.71
-19.09
-24.23
-30.58
-38.24
-46.72
-54.96
-61.43
-64.55
-63.2
-57.13
-47.09
-34.56
-21.24
-8.54
2.74
12.47
20.89
28.3
34.79
40.16
44.12
46.47
47.29
46.96
46.05
45.1
44.4
43.96
43.52
42.79
41.56
39.81
37.64
35.18
32.49
29.55
26.27
22.53
18.25
13.44
8.19
2.68
-2.84
-8.14
-13.12
-17.84
-22.53
-27.5
-33.04
-39.43
-46.81
-55.18
-64.19
-73.06
-80.52
-85.02
-85.22
-80.42
-70.91
-57.94
-43.22
-28.46
-14.8
-2.74
7.8
17.09
25.31
32.51
38.58
43.43
47.08
49.65
51.27
52.07
52.12
51.51
50.39
49.0
47.63
46.53
45.76
45.18
44.5
43.34
41.43
38.65
35.1
31.0
26.6
22.11
17.58
12.93
7.99
2.6
-3.27
-9.53
-15.91
-22.12
-27.93
-33.37
-38.77
-44.67
-51.68
-60.1
-69.64
-79.25
-87.29
-91.9
-91.63
-85.93
-75.34
-61.33
-45.79
-30.41
-16.33
-3.98
6.73
16.07
24.28
31.43
37.49
42.4
46.18
48.91
50.74
51.82
52.29
52.25
51.82
51.12
50.29
49.42
48.55
47.63
46.46
44.79
42.36
39.03
34.91
30.32
25.72
21.5
17.79
14.38
10.79
6.51
1.26
-4.86
-11.37
-17.68
-23.33
-28.21
-32.58
-36.95
-41.95
-48.14
-55.87
-64.99
-74.74
-83.68
-89.94
-91.75
-88.07
-79.0
-65.78
-50.34
-34.62
-20.03
-7.22
3.77
13.21
21.32
28.21
33.87
38.33
41.64
43.93
45.31
45.91
45.89
45.43
44.78
44.1
43.5
42.96
42.35
41.47
40.14
38.21
35.63
32.48
28.89
25.02
20.98
16.76
12.27
7.37
1.97
-3.89
-10.03
-16.2
-22.13
-27.7
-32.94
-38.1
-43.56
-49.79
-57.12
-65.5
-74.3
-82.27
-87.78
-89.25
-85.68
-77.05
-64.33
-49.17
-33.41
-18.52
-5.42
5.54
14.4
21.31
26.45
29.99
32.17
33.27
33.65
33.63
33.41
33.03
32.41
31.45
30.13
28.56
26.95
25.49
24.19
22.81
20.85
17.82
13.42
7.84
1.74
-3.97
-8.49
-11.44
-13.07
-14.16
-15.77
-18.93
-24.22
-31.58
-40.18
-48.53
-54.79
-57.27
-54.95
-47.77
-36.65
-23.15
-8.97
4.46
16.32
26.29
34.4
40.79
45.58
48.87
50.79
51.54
51.42
50.78
49.91
49.02
48.15
47.16
45.88
44.1
41.8
39.1
36.28
33.61
31.18
28.83
26.15
22.67
18.01
12.15
5.42
-1.58
-8.29
-14.34
-19.75
-24.85
-30.21
-36.43
-44.01
-53.22
-63.9
-75.29
-86.02
-94.28
-98.28
-96.77
-89.55
-77.52
-62.4
-46.16
-30.44
-16.19
-3.69
7.22
16.82
25.29
32.65
38.79
43.59
46.98
49.04
49.96
50.03
49.56
48.8
47.89
46.81
45.49
43.89
42.04
40.03
37.98
35.85
33.47
30.61
27.0
22.58
17.43
11.83
6.08
0.44
-5.0
-10.3
-15.64
-21.27
-27.42
-34.35
-42.31
-51.41
-61.46
-71.74
-80.95
-87.36
-89.32
-85.84
-76.99
-63.92
-48.51
-32.72
-18.0
-5.03
6.17
15.9
24.45
31.88
38.03
42.74
45.95
47.79
48.61
48.76
48.54
48.07
47.32
46.14
44.44
42.26
39.81
37.35
35.1
33.07
31.09
28.76
25.67
21.51
16.27
10.23
3.9
-2.21
-7.77
-12.74
-17.38
-22.11
-27.4
-33.64
-41.05
-49.66
-59.16
-68.81
-77.34
-83.22
-84.96
-81.66
-73.35
-61.02
-46.34
-31.1
-16.72
-4.0
6.9
16.15
24.03
30.69
36.1
40.12
42.62
43.63
43.34
42.1
40.32
38.34
36.43
34.7
33.2
31.91
30.7
29.4
27.71
25.28
21.88
17.45
12.2
6.55
0.96
-4.26
-9.05
-13.72
-18.85
-25.09
-32.87
-42.12
-52.02
-61.07
-67.44
-69.47
-66.28
-58.03
-45.92
-31.7
-17.14
-3.58
8.29
18.3
26.61
33.38
38.72
42.67
45.24
46.53
46.73
46.08
44.86
43.29
41.53
39.62
37.58
35.42
33.12
30.7
28.05
24.99
21.3
16.78
11.42
5.43
-0.79
-6.86
-12.53
-17.82
-23.11
-29.0
-36.11
-44.81
-54.87
-65.32
-74.57
-80.69
-82.08
-78.0
-68.82
-55.92
-41.16
-26.27
-12.42
-0.09
10.74
20.26
28.58
35.66
41.41
45.78
48.86
50.83
51.89
52.16
51.66
50.35
48.26
45.55
42.52
39.56
36.94
34.71
32.62
30.15
26.79
22.2
16.44
9.93
3.3
-2.88
-8.33
-13.19
-17.94
-23.29
-29.88
-38.08
-47.73
-58.06
-67.72
-75.06
-78.49
-77.0
-70.47
-59.72
-46.25
-31.75
-17.58
-4.56
7.08
17.46
26.69
34.74
41.43
46.52
49.91
51.75
52.37
52.17
51.49
50.49
49.13
47.3
44.95
42.26
39.53
37.14
35.25
33.7
31.98
29.44
25.6
20.35
14.04
7.28
0.69
-5.33
-10.76
-15.89
-21.19
-27.15
-34.15
-42.32
-51.41
-60.65
-68.81
-74.39
-76.01
-72.92
-65.26
-54.1
-41.0
-27.55
-14.89
-3.53
6.55
15.51
23.46
30.29
35.79
39.81
42.37
43.65
43.95
43.48
42.47
41.02
39.33
37.58
35.98
34.62
33.42
32.15
30.44
27.98
24.57
20.29
15.4
10.3
5.38
0.84
-3.38
-7.61
-12.39
-18.25
-25.46
-33.83
-42.56
-50.31
-55.56
-57.05
-54.17
-47.16
-37.04
-25.18
-12.97
-1.36
9.12
18.36
26.38
33.2
38.69
42.71
45.16
46.14
45.96
45.04
43.86
42.67
41.51
40.15
38.32
35.88
32.95
29.93
27.25
25.14
23.45
21.64
19.09
15.35
10.38
4.55
-1.51
-7.25
-12.35
-16.86
-21.14
-25.67
-30.91
-37.24
-44.8
-53.38
-62.33
-70.49
-76.41
-78.66
-76.33
-69.3
-58.35
-44.93
-30.62
-16.8
-4.28
6.62
15.99
23.98
30.75
36.33
40.73
43.98
46.18
47.45
47.95
47.82
47.13
45.98
44.49
42.83
41.15
39.56
38.01
36.34
34.31
31.75
28.68
25.22
21.6
17.95
14.24
10.31
5.94
0.99
-4.45
-10.14
-15.75
-21.03
-25.94
-30.62
-35.4
-40.7
-46.91
-54.19
-62.32
-70.52
-77.53
-81.82
-82.09
-77.67
-68.78
-56.52
-42.5
-28.32
-15.19
-3.67
6.25
14.84
22.35
28.86
34.26
38.36
41.08
42.5
42.89
42.56
41.83
40.87
39.81
38.73
37.71
36.8
36.0
35.21
34.22
32.79
30.76
28.06
24.78
21.05
17.03
12.84
8.55
4.14
-0.42
-5.14
-9.99
-14.89
-19.67
-24.22
-28.51
-32.7
-37.19
-42.48
-48.98
-56.71
-65.06
-72.81
-78.31
-80.03
-77.01
-69.24
-57.66
-43.83
-29.45
-15.88
-3.93
6.15
14.43
21.03
26.06
29.58
31.74
32.79
33.11
33.06
32.85
32.5
31.92
30.96
29.59
27.94
26.27
24.85
23.74
22.77
21.54
19.54
16.42
12.1
6.87
1.26
-4.13
-8.87
-12.89
-16.48
-20.22
-24.79
-30.68
-38.01
-46.33
-54.62
-61.42
-65.25
-64.95
-60.12
-51.18
-39.3
-26.02
-12.82
-0.76
9.65
18.31
25.32
30.82
34.86
37.44
38.65
38.73
38.04
37.05
36.05
35.16
34.29
33.24
31.87
30.14
28.19
26.18
24.21
22.24
20.05
17.32
13.77
9.26
3.86
-2.15
-8.38
-14.43
-20.06
-25.21
-30.03
-34.86
-40.16
-46.35
-53.74
-62.32
-71.58
-80.48
-87.5
-91.01
-89.78
-83.37
-72.39
-58.29
-42.92
-27.91
-14.3
-2.43
7.93
17.12
25.33
32.45
38.22
42.36
44.87
45.94
45.94
45.26
44.23
43.04
41.81
40.56
39.28
37.89
36.27
34.34
32.05
29.42
26.53
23.4
19.96
16.04
11.48
6.23
0.42
-5.68
-11.71
-17.42
-22.75
-27.9
-33.2
-39.05
-45.81
-53.72
-62.73
-72.35
-81.6
-89.01
-92.91
-91.95
-85.54
-74.14
-59.15
-42.47
-25.91
-10.76
2.38
13.48
22.74
30.44
36.72
41.65
45.29
47.72
49.13
49.75
49.85
49.63
49.23
48.71
48.0
47.02
45.68
43.98
41.98
39.75
37.3
34.53
31.22
27.2
22.38
16.89
10.98
5.01
-0.76
-6.24
-11.51
-16.81
-22.35
-28.34
-34.95
-42.4
-50.9
-60.38
-70.31
-79.48
-86.22
-88.79
-86.0
-77.69
-64.84
-49.22
-32.81
-17.22
-3.38
8.43
18.29
26.38
32.78
37.55
40.76
42.64
43.48
43.64
43.33
42.66
41.61
40.17
38.46
36.68
35.09
33.84
32.83
31.73
30.02
27.26
23.26
18.18
12.45
6.65
1.21
-3.69
-8.24
-12.92
-18.33
-25.03
-33.25
-42.67
-52.32
-60.65
-65.91
-66.63
-62.19
-53.01
-40.48
-26.47
-12.72
-0.39
10.05
18.66
25.68
31.26
35.39
38.01
39.16
39.09
38.24
37.08
35.94
34.92
33.87
32.58
30.94
28.99
26.94
24.99
23.15
21.19
18.72
15.36
10.91
5.49
-0.53
-6.64
-12.45
-17.85
-23.05
-28.59
-35.1
-43.11
-52.65
-63.12
-73.16
-80.94
-84.65
-83.03
-75.87
-64.04
-49.24
-33.38
-18.08
-4.31
7.64
17.81
26.35
33.26
38.47
41.97
43.94
44.77
44.92
44.77
44.47
43.99
43.22
42.08
40.64
39.05
37.51
36.13
34.81
33.27
31.15
28.03
23.67
18.02
11.37
4.22
-2.84
-9.4
-15.34
-20.96
-26.84
-33.7
-42.05
-51.86
-62.48
-72.56
-80.36
-84.2
-82.93
-76.32
-65.12
-50.83
-35.26
-20.01
-6.11
6.06
16.6
25.76
33.73
40.49
45.83
49.55
51.62
52.24
51.83
50.91
49.88
48.95
48.12
47.23
46.11
44.66
42.88
40.84
38.62
36.19
33.5
30.4
26.77
22.46
17.46
11.83
5.73
-0.6
-6.93
-13.12
-19.15
-25.18
-31.46
-38.25
-45.79
-54.23
-63.5
-73.2
-82.44
-89.82
-93.78
-92.96
-86.77
-75.64
-61.0
-44.75
-28.72
-14.16
-1.51
9.34
18.78
27.09
34.3
40.27
44.83
48.0
49.95
51.05
51.65
51.98
52.09
51.92
51.32
50.22
48.62
46.59
44.25
41.68
38.87
35.74
32.13
27.87
22.86
17.13
10.88
4.41
-1.94
-7.93
-13.46
-18.59
-23.48
-28.41
-33.76
-40.0
-47.51
-56.36
-66.04
-75.33
-82.5
-85.75
-83.9
-76.75
-65.2
-50.91
-35.69
-21.05
-7.86
3.61
13.4
21.71
28.62
34.18
38.4
41.41
43.38
44.53
45.07
45.09
44.58
43.5
41.88
39.82
37.59
35.4
33.36
31.36
29.05
26.03
22.02
16.98
11.18
5.05
-0.99
-6.65
-11.94
-17.12
-22.67
-29.12
-36.89
-45.98
-55.8
-65.11
-72.2
-75.41
-73.62
-66.65
-55.4
-41.43
-26.52
-12.11
0.95
12.43
22.42
31.07
38.39
44.24
48.42
50.91
51.94
51.96
51.52
51.04
50.65
50.22
49.43
47.97
45.78
43.08
40.27
37.68
35.39
33.14
30.42
26.71
21.75
15.64
8.8
1.81
-4.81
-10.78
-16.19
-21.41
-27.0
-33.6
-41.66
-51.34
-62.22
-73.29
-82.97
-89.49
-91.35
-87.78
-78.98
-66.08
-50.8
-34.92
-19.89
-6.56
4.82
14.36
22.32
28.89
34.16
38.14
40.84
42.28
42.54
41.75
40.03
37.57
34.62
31.56
28.79
26.75
25.67
25.53
26.04
26.84
27.53
27.91
27.85
27.27
26.04
24.0
21.07
17.33
13.07
8.75
4.77
1.26
-1.98
-5.38
-9.51
-14.87
-21.85
-30.51
-40.45
-50.62
-59.39
-64.82
-65.24
-59.82
-48.94
-34.12
-17.48
-1.11
13.56
25.91
36.04
44.34
51.18
56.73
61.0
63.93
65.53
65.99
65.57
64.57
63.23
61.67
59.96
58.14
56.3
54.56
52.95
51.41
49.7
47.52
44.61
40.89
36.51
31.77
26.95
22.09
17.03
11.45
5.12
-1.95
-9.46
-16.92
-23.93
-30.38
-36.55
-43.09
-50.82
-60.43
-72.27
-85.97
-100.34
-113.32
-122.43
-125.45
-121.13
-109.74
-92.99
-73.48
-53.82
-35.91
-20.62
-7.91
2.68
11.59
18.99
24.82
28.97
31.52
32.79
33.24
33.36
33.46
33.63
33.81
33.92
34.04
34.38
35.11
36.2
37.2
37.34
35.84
32.24
26.67
19.81
12.63
6.0
0.39
-4.31
-8.74
-13.8
-20.39
-29.11
-39.96
-52.15
-64.11
-73.76
-79.03
-78.5
-71.85
-60.04
-44.94
-28.72
-13.23
0.41
11.83
21.13
28.55
34.21
38.13
40.38
41.18
41.06
40.6
40.26
40.23
40.31
40.12
39.32
37.84
35.93
34.01
32.44
31.23
29.97
27.95
24.5
19.34
12.67
5.2
-2.21
-8.96
-14.92
-20.54
-26.64
-34.2
-43.91
-55.96
-69.77
-83.81
-95.88
-103.51
-104.69
-98.61
-86.0
-68.86
-49.84
-31.31
-14.71
-0.46
11.7
22.19
31.12
38.3
43.49
46.7
48.36
49.17
49.75
50.42
51.11
51.43
50.98
49.59
47.4
44.8
42.23
39.98
38.05
36.12
33.64
30.05
24.97
18.39
10.75
2.74
-4.92
-11.78
-17.82
-23.45
-29.37
-36.31
-44.92
-55.6
-68.24
-82.04
-95.33
-105.75
-110.87
-109.0
-99.86
-84.76
-66.16
-46.73
-28.53
-12.52
1.32
13.46
24.27
33.8
41.76
47.86
52.0
54.4
55.44
55.56
55.09
54.23
53.03
51.46
49.48
47.08
44.33
41.4
38.46
35.66
33.03
30.42
27.56
24.11
19.85
14.73
8.87
2.56
-3.93
-10.32
-16.46
-22.29
-27.87
-33.4
-39.32
-46.23
-54.74
-65.0
-76.43
-87.47
-95.9
-99.44
-96.64
-87.4
-73.09
-56.03
-38.71
-23.02
-9.8
1.06
10.23
18.43
26.0
32.79
38.38
42.34
44.6
45.49
45.61
45.48
45.19
44.42
42.64
39.48
35.06
29.88
24.58
19.57
14.78
9.83
4.29
-1.95
-8.54
-14.84
-20.26
-24.57
-28.06
-31.41
-35.42
-40.76
-47.63
-55.61
-63.71
-70.52
-74.5
-74.43
-69.79
-60.92
-48.92
-35.27
-21.45
-8.52
2.95
12.83
21.2
28.13
33.66
37.78
40.54
42.02
42.32
41.52
39.61
36.58
32.47
27.42
21.66
15.55
9.42
3.49
-2.26
-8.1
-14.56
-22.17
-31.23
-41.65
-52.89
-64.15
-74.6
-83.66
-91.14
-97.23
-102.41
-107.28
-112.43
-118.15
-124.28
-129.99
-133.87
-134.25
-129.77
-119.81
-104.81
-86.04
-65.22
-43.94
-23.3
-3.82
14.34
31.08
46.2
59.36
70.14
78.35
84.13
87.94
90.39
92.03
93.13
93.65
93.43
92.29
90.31
87.78
85.07
82.45
79.88
77.02
73.38
68.49
62.17
54.55
46.06
37.24
28.56
20.24
12.27
4.34
-3.94
-12.93
-22.81
-33.37
-43.99
-53.56
-60.74
-64.27
-63.35
-57.89
-48.59
-36.7
-23.57
-10.35
2.26
13.94
24.58
34.07
42.23
48.89
54.03
57.82
60.6
62.69
64.26
65.24
65.42
64.64
62.93
60.56
57.94
55.45
53.23
51.11
48.7
45.54
41.35
36.18
30.35
24.38
18.73
13.62
9.0
4.56
-0.14
-5.54
-11.94
-19.31
-27.25
-34.91
-41.13
-44.72
-44.78
-41.0
-33.8
-24.12
-13.15
-1.96
8.74
18.6
27.46
35.21
41.71
46.82
50.46
52.64
53.5
53.17
51.85
49.75
47.08
44.11
41.07
38.12
35.33
32.64
29.93
27.04
23.84
20.19
16.05
11.47
6.61
1.7
-3.09
-7.72
-12.37
-17.35
-22.97
-29.33
-36.07
-42.37
-47.03
-48.84
-46.93
-41.09
-31.92
-20.58
-8.49
3.09
13.31
21.84
28.65
33.86
37.57
39.81
40.67
40.35
39.19
37.55
35.77
34.05
32.45
30.97
29.61
28.42
27.42
26.5
25.47
24.04
22.01
19.32
16.14
12.72
9.29
5.92
2.51
-1.17
-5.38
-10.39
-16.4
-23.41
-31.12
-38.83
-45.4
-49.54
-50.19
-46.91
-40.08
-30.76
-20.31
-9.95
-0.45
7.87
15.03
21.04
25.87
29.4
31.54
32.34
31.95
30.63
28.65
26.25
23.68
21.14
18.8
16.71
14.82
12.98
11.0
8.76
6.21
3.36
0.3
-2.94
-6.31
-9.79
-13.4
-17.27
-21.59
-26.54
-32.14
-38.01
-43.41
-47.27
-48.57
-46.6
-41.22
-32.9
-22.6
-11.48
-0.67
8.97
16.9
22.91
27.04
29.52
30.65
30.76
30.12
28.99
27.57
26.02
24.44
22.84
21.16
19.38
17.51
15.67
13.91
12.23
10.48
8.33
5.53
1.97
-2.18
-6.52
-10.6
-14.11
-17.07
-19.78
-22.74
-26.44
-31.16
-36.8
-42.82
-48.31
-52.16
-53.37
-51.34
-46.04
-37.99
-28.09
-17.31
-6.44
4.0
13.74
22.62
30.44
36.99
42.01
45.39
47.23
47.89
47.88
47.77
47.92
48.38
48.9
49.04
48.48
47.22
45.67
44.45
44.11
44.78
46.04
47.08
47.01
45.33
42.13
38.14
34.51
32.44
32.9
36.34
42.32
49.23
54.31
54.06
45.41
26.85
-0.67
-33.68
-67.25
-96.5
-117.96
-130.22
-133.71
-129.94
-120.65
-107.38
-91.39
-73.89
-56.12
-39.42
-24.94
-13.39
-4.89
1.02
5.19
8.58
11.81
15.02
17.85
19.8
20.6
20.38
19.74
19.34
19.6
20.52
21.71
22.65
22.97
22.53
21.44
19.91
18.15
16.33
14.5
12.65
10.73
8.65
6.3
3.55
0.35
-3.34
-7.53
-12.2
-17.42
-23.32
-30.01
-37.5
-45.46
-53.2
-59.69
-63.84
-64.79
-62.21
-56.44
-48.35
-39.14
-29.97
-21.74
-14.99
-9.95
-6.64
-4.94
-4.68
-5.58
-7.3
-9.35
-11.24
-12.45
-12.69
-11.93
-10.4
-8.57
-6.91
-5.77
-5.21
-5.09
-5.17
-5.33
-5.62
-6.24
-7.4
-9.05
-10.9
-12.45
-13.19
-12.9
-11.67
-9.92
-8.21
-7.13
-7.14
-8.63
-11.78
-16.53
-22.4
-28.54
-33.78
-36.96
-37.26
-34.42
-28.9
-21.59
-13.62
-6.01
0.52
5.57
9.06
11.06
11.84
11.72
11.1
10.44
10.12
10.38
11.27
12.58
13.98
15.08
15.59
15.39
14.43
12.77
10.43
7.39
3.64
-0.79
-5.79
-11.18
-16.77
-22.39
-27.97
-33.57
-39.33
-45.48
-52.13
-59.18
-66.21
-72.39
-76.66
-77.93
-75.46
-69.06
-59.23
-47.0
-33.61
-20.18
-7.52
3.97
14.12
22.8
29.85
35.09
38.43
40.0
40.18
39.51
38.47
37.4
36.38
35.3
33.99
32.39
30.54
28.62
26.88
25.44
24.25
23.0
21.25
18.61
14.88
10.16
4.86
-0.51
-5.56
-10.15
-14.45
-18.86
-23.8
-29.59
-36.36
-44.03
-52.22
-60.21
-66.98
-71.32
-72.09
-68.56
-60.71
-49.25
-35.43
-20.78
-6.6
6.22
17.29
26.6
34.25
40.33
44.8
47.65
48.98
49.1
48.47
47.52
46.52
45.49
44.25
42.59
40.44
37.91
35.27
32.8
30.67
28.81
27.02
24.95
22.28
18.76
14.32
9.01
3.05
-3.28
-9.71
-16.01
-22.07
-27.88
-33.58
-39.41
-45.69
-52.71
-60.54
-68.9
-77.05
-83.81
-87.75
-87.63
-82.71
-73.04
-59.5
-43.6
-26.96
-11.02
3.3
15.64
26.01
34.59
41.57
47.14
51.52
54.93
57.64
59.79
61.45
62.51
62.82
62.3
61.0
59.06
56.74
54.26
51.79
49.39
47.02
44.49
41.51
37.81
33.26
28.01
22.43
17.05
12.23
8.13
4.54
1.01
-3.0
-8.0
-14.31
-21.98
-30.67
-39.68
-47.88
-54.0
-56.89
-55.83
-50.81
-42.5
-32.05
-20.75
-9.66
0.51
9.43
16.99
23.11
27.7
30.68
32.05
32.04
31.07
29.63
28.16
26.86
25.72
24.63
23.51
22.4
21.46
20.77
20.26
19.67
18.6
16.72
13.91
10.29
6.2
1.99
-2.15
-6.21
-10.39
-15.03
-20.47
-26.87
-34.12
-41.67
-48.54
-53.51
-55.38
-53.37
-47.41
-38.15
-26.73
-14.44
-2.36
8.84
18.81
27.38
34.42
39.7
43.11
44.69
44.75
43.8
42.43
41.09
39.99
39.11
38.26
37.23
35.92
34.33
32.57
30.77
28.98
27.2
25.33
23.23
20.75
17.77
14.26
10.26
5.89
1.3
-3.39
-8.08
-12.76
-17.46
-22.34
-27.56
-33.34
-39.75
-46.66
-53.49
-59.31
-62.96
-63.43
-60.15
-53.3
-43.64
-32.36
-20.62
-9.35
0.89
9.84
17.41
23.57
28.35
31.8
34.06
35.3
35.73
35.5
34.78
33.65
32.23
30.64
29.0
27.44
26.01
24.71
23.45
22.02
20.17
17.7
14.53
10.77
6.7
2.59
-1.34
-5.08
-8.72
-12.38
-16.17
-20.03
-23.85
-27.48
-30.86
-34.03
-37.19
-40.62
-44.59
-49.21
-54.24
-59.01
-62.49
-63.54
-61.23
-55.16
-45.65
-33.58
-20.17
-6.61
6.12
17.42
26.96
34.62
40.38
44.29
46.45
47.07
46.41
44.83
42.67
40.29
37.97
35.92
34.23
32.94
32.0
31.32
30.76
30.17
29.37
28.2
26.53
24.29
21.48
18.16
14.41
10.32
5.97
1.47
-3.08
-7.53
-11.77
-15.71
-19.32
-22.72
-26.11
-29.79
-34.11
-39.22
-44.94
-50.58
-55.09
-57.3
-56.32
-51.86
-44.3
-34.6
-23.91
-13.3
-3.58
4.71
11.26
15.94
18.82
20.15
20.31
19.72
18.71
17.49
16.12
14.63
13.07
11.52
10.08
8.82
7.77
6.91
6.22
5.59
4.89
3.91
2.45
0.42
-2.11
-4.94
-7.77
-10.41
-12.85
-15.39
-18.43
-22.4
-27.48
-33.53
-40.0
-46.03
-50.58
-52.7
-51.72
-47.39
-39.99
-30.28
-19.27
-8.05
2.45
11.61
19.16
25.09
29.44
32.34
33.86
34.15
33.44
32.12
30.61
29.29
28.31
27.65
27.05
26.26
25.11
23.63
21.95
20.28
18.74
17.33
15.91
14.29
12.24
9.66
6.54
2.99
-0.8
-4.62
-8.35
-11.96
-15.54
-19.28
-23.43
-28.22
-33.82
-40.2
-47.04
-53.64
-58.97
-61.96
-61.71
-57.85
-50.67
-40.96
-29.81
-18.26
-7.1
3.14
12.13
19.68
25.69
30.16
33.29
35.38
36.71
37.44
37.62
37.16
36.02
34.27
32.13
29.89
27.84
26.18
24.98
24.09
23.26
22.23
20.75
18.75
16.31
13.62
10.87
8.16
5.47
2.66
-0.41
-3.81
-7.51
-11.4
-15.31
-19.08
-22.65
-26.0
-29.34
-32.95
-37.21
-42.33
-48.12
-53.89
-58.51
-60.68
-59.4
-54.34
-45.89
-35.09
-23.19
-11.33
-0.31
9.41
17.59
24.19
29.23
32.85
35.31
36.9
37.94
38.61
39.0
39.07
38.79
38.14
37.21
36.15
35.14
34.26
33.49
32.69
31.64
30.18
28.28
26.0
23.53
21.01
18.54
16.1
13.6
10.92
7.97
4.68
1.09
-2.73
-6.6
-10.33
-13.79
-16.95
-19.98
-23.18
-26.99
-31.73
-37.47
-43.81
-49.9
-54.6
-56.76
-55.64
-51.13
-43.76
-34.53
-24.59
-14.94
-6.27
1.03
6.79
10.98
13.65
14.95
15.17
14.7
