-57.12
-42.23
-26.68
-11.8
1.59
13.19
23.01
31.25
38.08
43.62
47.95
51.15
53.31
54.56
55.02
54.79
53.95
52.64
50.99
49.24
47.57
46.09
44.77
43.42
41.73
39.39
36.23
32.28
27.84
23.3
19.04
15.21
11.71
8.17
4.24
-0.32
-5.5
-11.06
-16.65
-22.03
-27.13
-32.14
-37.41
-43.32
-50.14
-57.83
-65.9
-73.41
-79.08
-81.55
-79.82
-73.48
-62.94
-49.31
-34.09
-18.81
-4.67
7.63
17.86
26.16
32.75
37.87
41.67
44.28
45.82
46.46
46.37
45.73
44.68
43.38
42.01
40.77
39.81
39.11
38.53
37.79
36.58
34.77
32.34
29.48
26.39
23.25
20.08
16.82
13.34
9.57
5.44
0.98
-3.71
-8.46
-13.05
-17.34
-21.35
-25.32
-29.71
-34.96
-41.29
-48.39
-55.36
-60.9
-63.66
-62.66
-57.63
-49.09
-38.08
-25.9
-13.72
-2.38
7.61
16.04
22.82
27.94
31.42
33.34
33.87
33.29
31.97
30.32
28.72
27.45
26.56
25.95
25.39
24.67
23.71
22.59
21.47
20.48
19.54
18.4
16.7
14.12
10.51
5.96
0.77
-4.69
-10.05
-15.11
-19.86
-24.53
-29.5
-35.19
-41.86
-49.41
-57.22
-64.17
-68.87
-70.04
-66.88
-59.37
-48.25
-34.82
-20.48
-6.51
6.18
17.07
25.87
32.5
37.01
39.61
40.7
40.75
40.25
39.59
38.93
38.32
37.72
37.07
36.38
35.7
35.08
34.53
33.96
33.24
32.22
30.89
29.3
27.55
25.69
23.62
21.17
18.23
14.82
11.22
7.86
5.14
3.23
2.04
1.21
0.23
-1.39
-4.09
-8.12
-13.43
-19.57
-25.65
-30.46
-32.8
-31.86
-27.46
-20.16
-11.05
-1.43
7.56
15.09
20.76
24.46
26.26
26.35
25.0
22.48
19.13
15.28
11.31
7.53
4.26
1.63
-0.31
-1.69
-2.7
-3.52
-4.26
-4.98
-5.66
-6.28
-6.86
-7.4
-7.9
-8.33
-8.7
-9.02
-9.38
-9.96
-10.97
-12.56
-14.78
-17.57
-20.79
-24.3
-28.08
-32.18
-36.81
-42.17
-48.39
-55.22
-62.02
-67.76
-71.26
-71.51
-68.06
-61.2
-51.87
-41.41
-31.11
-21.89
-14.16
-7.96
-3.12
0.52
3.04
4.45
4.82
4.34
3.29
2.01
0.76
-0.37
-1.42
-2.55
-3.87
-5.34
-6.83
-8.16
-9.25
-10.16
-11.13
-12.47
-14.42
-17.05
-20.2
-23.57
-26.78
-29.62
-32.06
-34.33
-36.77
-39.72
-43.31
-47.47
-51.91
-56.27
-60.13
-63.03
-64.48
-64.03
-61.39
-56.52
-49.71
-41.44
-32.07
-21.65
-9.74
4.3
20.87
39.5
58.67
76.08
89.44
97.33
99.79
98.23
94.75
91.26
88.91
87.92
87.95
88.54
89.41
90.38
91.18
91.33
90.16
87.2
82.34
75.97
68.83
61.74
55.27
49.62
44.54
39.41
33.43
25.87
16.27
4.64
-8.44
-21.9
-34.39
-44.64
-51.67
-55.05
-54.76
-51.17
-44.82
-36.34
-26.44
-15.95
-5.82
2.91
9.25
12.44
12.12
8.45
2.07
-5.97
-14.45
-22.27
-28.63
-33.13
-35.75
-36.73
-36.42
-35.2
-33.36
-31.14
-28.71
-26.17
-23.64
-21.24
-19.13
-17.47
-16.35
-15.8
-15.75
-16.11
-16.82
-17.85
-19.24
-21.05
-23.35
-26.22
-29.73
-33.86
-38.39
-42.79
-46.22
-47.68
-46.29
-41.6
-33.75
-23.47
-11.84
-0.02
11.02
20.67
28.73
35.28
40.52
44.65
47.77
49.89
51.01
51.16
50.47
49.11
47.31
45.24
43.05
40.81
38.55
36.31
34.1
31.93
29.74
27.47
25.02
22.3
19.22
15.77
11.96
7.85
3.56
-0.78
-5.04
-9.13
-13.04
-16.87
-20.75
-24.91
-29.6
-35.02
-41.32
-48.39
-55.79
-62.67
-67.9
-70.32
-69.12
-64.08
-55.68
-44.99
-33.23
-21.51
-10.59
-0.82
7.74
15.11
21.28
26.2
29.81
32.13
33.34
33.69
33.46
32.84
31.91
30.68
29.17
27.46
25.74
24.22
23.04
22.28
21.84
21.54
21.15
20.38
18.9
16.38
12.62
7.65
1.79
-4.39
-10.26
-15.29
-19.23
-22.09
-24.13
-25.69
-27.16
-28.86
-30.99
-33.5
-36.04
-37.98
-38.58
-37.23
-33.73
-28.32
-21.61
-14.33
-7.08
-0.16
6.35
12.45
18.18
23.41
27.98
31.69
34.46
36.27
37.23
37.51
37.29
36.66
35.68
34.35
32.66
30.7
28.61
26.56
24.67
22.99
21.43
19.84
18.01
15.78
13.05
9.8
6.09
2.05
-2.14
-6.3
-10.29
-14.08
-17.76
-21.62
-26.05
-31.45
-38.06
-45.77
-53.99
-61.64
-67.4
-70.01
-68.69
-63.33
-54.48
-43.23
-30.82
-18.4
-6.77
3.6
12.51
19.93
25.92
30.52
33.77
35.72
36.47
36.19
35.13
33.59
31.84
30.12
28.52
27.08
25.72
24.35
22.79
20.93
18.61
15.76
12.37
8.54
4.43
0.28
-3.69
-7.35
-10.72
-13.9
-17.07
-20.33
-23.72
-27.11
-30.38
-33.46
-36.53
-39.96
-44.24
-49.76
-56.57
-64.2
-71.65
-77.59
-80.62
-79.74
-74.57
-65.51
-53.59
-40.17
-26.63
-13.97
-2.76
6.85
14.99
21.84
27.53
32.15
35.77
38.5
40.52
41.99
43.02
43.71
44.08
44.18
44.07
43.8
43.36
42.63
41.42
39.58
37.06
33.96
30.47
26.75
22.85
18.72
14.22
9.28
3.97
-1.53
-7.0
-12.32
-17.49
-22.7
-28.21
-34.28
-41.13
-48.78
-57.05
-65.42
-73.03
-78.76
-81.47
-80.28
-74.87
-65.62
-53.49
-39.79
-25.8
-12.48
-0.41
10.18
19.2
26.65
32.5
36.78
39.66
41.47
42.62
43.5
44.31
45.02
45.42
45.24
44.32
42.68
40.52
38.12
35.64
33.08
30.25
26.9
22.88
18.24
13.24
8.19
3.32
-1.41
-6.32
-11.83
-18.39
-26.25
-35.39
-45.49
-55.88
-65.62
-73.6
-78.67
-79.95
-77.03
-70.17
-60.19
-48.33
-35.84
-23.71
-12.52
-2.48
6.42
14.19
20.73
25.92
29.64
31.91
33.0
33.28
33.15
32.88
32.61
32.25
31.72
30.94
29.93
28.76
27.5
26.13
24.53
22.54
20.0
16.82
13.01
8.7
4.09
-0.65
-5.31
-9.82
-14.16
-18.49
-23.05
-28.18
-34.23
-41.39
-49.56
-58.16
-66.16
-72.2
-74.93
-73.39
-67.29
-57.1
-43.92
-29.14
-14.07
0.27
13.26
24.6
34.23
42.19
48.55
53.44
56.97
59.24
60.38
60.53
59.89
58.73
57.31
55.93
54.77
53.88
53.18
52.43
51.32
49.52
46.84
43.22
38.81
33.85
28.61
23.27
17.84
12.22
6.31
0.12
-6.21
-12.43
-18.28
-23.66
-28.69
-33.69
-39.08
-45.32
-52.66
-61.05
-69.94
-78.3
-84.68
-87.6
-85.94
-79.31
-68.18
-53.75
-37.58
-21.2
-5.79
7.91
19.58
29.18
36.82
42.71
47.0
49.87
51.44
51.86
51.34
50.17
48.68
47.16
45.81
44.6
43.42
42.13
40.65
39.0
37.31
35.63
33.92
32.01
29.65
26.61
22.77
18.19
13.08
7.72
2.38
-2.7
-7.39
-11.63
-15.47
-19.15
-23.06
-27.64
-33.23
-39.75
-46.55
-52.48
-56.12
-56.3
-52.47
-44.89
-34.49
-22.53
-10.24
1.46
12.02
21.12
28.6
34.34
38.26
40.45
41.09
40.52
39.16
37.41
35.6
33.89
32.25
30.58
28.75
26.75
24.7
22.77
21.11
19.69
18.26
16.43
13.84
10.3
5.88
0.87
-4.32
-9.36
-14.09
-18.58
-23.16
-28.23
-34.22
-41.37
-49.62
-58.43
-66.86
-73.56
-77.16
-76.61
-71.48
-62.15
-49.69
-35.54
-21.14
-7.6
4.5
14.96
23.82
31.15
36.96
41.21
43.92
45.24
45.43
44.88
43.92
42.78
41.6
40.4
39.24
38.19
37.28
36.47
35.62
34.45
32.71
30.22
26.99
23.15
18.95
14.55
10.04
5.34
0.31
-5.19
-11.2
-17.55
-23.95
-30.08
-35.75
-41.09
-46.46
-52.42
-59.33
-67.21
-75.47
-83.01
-88.43
-90.39
-88.01
-81.05
-70.03
-56.1
-40.7
-25.27
-10.9
1.77
12.62
21.8
29.57
36.11
41.48
45.71
48.81
50.87
51.98
52.23
51.65
50.32
48.39
46.15
44.05
42.47
41.67
41.56
41.74
41.64
40.72
38.61
35.27
30.94
25.95
20.66
15.29
9.95
4.64
-0.62
-5.79
-10.72
-15.24
-19.23
-22.71
-25.91
-29.23
-33.23
-38.43
-45.2
-53.57
-63.08
-72.7
-80.95
-86.15
-86.92
-82.56
-73.34
-60.4
-45.41
-30.03
-15.5
-2.46
8.95
18.81
27.18
34.05
39.3
42.9
44.96
45.78
45.73
45.19
44.41
43.48
42.37
40.97
39.23
37.19
35.01
32.85
30.83
28.86
26.66
23.88
20.21
15.6
10.17
4.29
-1.66
-7.39
-12.79
-17.96
-23.15
-28.66
-34.77
-41.69
-49.41
-57.56
-65.36
-71.68
-75.2
-74.82
-70.02
-61.06
-49.01
-35.36
-21.66
-9.11
1.66
10.49
17.54
22.99
26.91
29.3
30.22
29.86
28.66
27.15
25.82
24.95
24.57
24.52
24.55
24.49
24.26
23.86
23.31
22.55
21.49
19.98
17.94
15.32
12.1
8.31
4.0
-0.76
-5.84
-11.07
-16.26
-21.28
-26.07
-30.72
-35.48
-40.7
-46.69
-53.46
-60.58
-67.07
-71.62
-72.85
-69.8
-62.19
-50.55
-36.07
-20.24
-4.49
10.09
22.92
33.76
42.63
49.64
54.88
58.46
60.56
61.44
61.47
60.96
60.14
59.09
57.81
56.25
54.48
52.58
50.67
48.75
46.69
44.34
41.53
38.27
34.7
31.07
27.56
24.28
21.16
18.01
14.59
10.71
6.22
1.1
-4.57
-10.63
-16.87
-23.11
-29.34
-35.75
-42.77
-50.82
-60.08
-70.18
-80.06
-88.19
-92.89
-92.91
-87.77
-77.9
-64.47
-49.01
-32.96
-17.47
-3.2
9.56
20.79
30.62
39.18
46.56
52.77
57.77
61.52
64.04
65.45
65.94
65.81
65.34
64.76
64.26
63.91
63.7
63.51
63.09
62.17
60.5
57.96
54.52
50.27
45.33
39.76
33.52
26.54
18.76
10.21
1.09
-8.27
-17.42
-25.91
-33.42
-39.86
-45.44
-50.69
-56.23
-62.56
-69.7
-77.05
-83.43
-87.36
-87.59
-83.48
-75.22
-63.78
-50.49
-36.75
-23.6
-11.6
-0.96
8.37
16.48
23.38
29.01
33.27
36.14
37.71
38.16
37.76
36.76
35.28
33.4
31.15
28.61
25.94
23.38
21.07
19.03
17.08
14.88
12.09
8.48
4.05
-1.01
-6.36
-11.64
-16.59
-21.11
-25.3
-29.38
-33.67
-38.45
-43.87
-49.78
-55.73
-60.89
-64.24
-64.84
-62.09
-55.99
-47.14
-36.59
-25.49
-14.77
-5.03
3.47
10.68
16.55
20.97
23.87
25.28
25.46
24.82
23.8
22.77
21.86
21.02
20.14
19.15
18.1
17.13
16.41
15.92
15.43
14.53
12.77
9.84
5.73
0.72
-4.67
-9.92
-14.7
-18.96
-22.98
-27.24
-32.24
-38.3
-45.35
-52.83
-59.69
-64.64
-66.39
-64.08
-57.55
-47.37
-34.71
-20.98
-7.49
4.81
15.37
24.01
30.77
35.81
39.36
41.68
43.03
43.63
43.66
43.2
42.33
41.16
39.76
38.24
36.67
35.09
33.51
31.95
30.41
28.87
27.19
25.13
22.44
18.86
14.31
8.93
3.03
-2.96
-8.7
-14.01
-18.98
-23.88
-29.04
-34.75
-41.19
-48.36
-56.08
-63.9
-71.01
-76.27
-78.44
-76.56
-70.32
-60.28
-47.72
-34.25
-21.31
-9.75
0.24
8.92
16.62
23.48
29.39
34.09
37.37
39.28
40.09
40.18
39.96
39.67
39.44
39.3
39.27
39.34
39.46
39.56
39.47
39.03
38.09
36.56
34.39
31.49
27.79
23.26
18.02
12.33
6.52
0.88
-4.4
-9.28
-13.82
-18.17
-22.59
-27.39
-32.98
-39.6
-47.18
-55.13
-62.29
-67.23
-68.63
-65.71
-58.53
-47.95
-35.32
-22.09
-9.36
2.19
12.3
20.93
28.09
33.73
37.78
40.23
41.23
41.05
40.07
38.58
36.81
34.86
32.79
30.68
28.69
26.98
25.71
24.85
24.21
23.37
21.84
19.23
15.39
10.51
5.08
-0.31
-5.2
-9.44
-13.28
-17.27
-22.05
-28.07
-35.37
-43.51
-51.52
-58.17
-62.14
-62.43
-58.55
-50.75
-39.9
-27.3
-14.37
-2.27
8.19
16.66
23.07
27.51
30.15
31.2
30.98
29.93
28.61
27.51
27.01
27.2
27.83
28.48
28.67
28.09
26.73
24.78
22.59
20.4
18.21
15.79
12.76
8.87
4.12
-1.18
-6.51
-11.33
-15.35
-18.6
-21.44
-24.45
-28.24
-33.3
-39.71
-47.1
-54.54
-60.68
-64.08
-63.56
-58.61
-49.56
-37.47
-23.8
-10.0
2.84
14.13
23.66
31.51
37.74
42.37
45.41
46.87
46.94
45.94
44.28
42.33
40.37
38.49
36.73
35.1
33.62
32.34
31.26
30.31
29.34
28.16
26.64
24.67
22.24
19.38
16.16
12.63
8.82
4.74
0.42
-4.12
-8.86
-13.74
-18.75
-23.94
-29.5
-35.68
-42.72
-50.66
-59.16
-67.38
-74.02
-77.63
-76.97
-71.47
-61.42
-47.95
-32.72
-17.44
-3.42
8.61
18.5
26.39
32.56
37.22
40.51
42.58
43.61
43.83
43.41
42.52
41.2
39.52
37.58
35.57
33.73
32.3
31.42
31.01
30.76
30.27
29.18
27.35
24.89
22.1
19.28
16.53
13.7
10.45
6.48
1.68
-3.8
-9.62
-15.38
-20.79
-25.74
-30.23
-34.47
-38.7
-43.24
-48.35
-54.07
-60.01
-65.36
-68.94
-69.53
-66.31
-59.14
-48.7
-36.26
-23.31
-11.06
-0.28
8.81
16.33
22.42
27.17
30.56
32.64
33.62
33.84
33.69
33.42
33.08
32.53
31.61
30.31
28.79
27.29
26.03
25.07
24.33
23.61
22.74
21.5
19.73
17.25
13.92
9.76
4.93
-0.24
-5.42
-10.35
-14.97
-19.4
-23.85
-28.53
-33.54
-38.79
-43.93
-48.35
-51.2
-51.59
-48.91
-43.06
-34.6
-24.63
-14.42
-5.1
2.67
8.76
13.37
16.85
19.5
21.45
22.77
23.48
23.7
23.58
23.3
22.92
22.36
21.45
19.96
17.79
15.08
12.15
9.4
7.03
4.97
2.93
0.54
-2.37
-5.67
-8.94
-11.8
-14.01
-15.74
-17.38
-19.52
-22.65
-27.12
-32.99
-40.05
-47.69
-54.94
-60.55
-63.27
-62.21
-57.13
-48.62
-37.82
-26.14
-14.81
-4.61
4.18
11.57
17.67
22.53
26.11
28.32
29.16
28.8
27.54
25.78
23.93
22.26
20.91
19.89
19.12
18.46
17.81
17.13
16.38
15.52
14.43
12.94
10.84
7.98
4.36
0.15
-4.36
-8.82
-12.95
-16.62
-19.84
-22.79
-25.71
-28.92
-32.74
-37.4
-42.89
-48.84
-54.44
-58.52
-59.9
-57.68
-51.6
-42.12
-30.26
-17.33
-4.53
7.25
17.54
26.19
33.23
38.74
42.81
45.56
47.13
47.77
47.74
47.31
46.72
46.14
45.64
45.23
44.88
44.51
44.04
43.4
42.49
41.22
39.51
37.28
34.51
31.18
27.32
23.01
18.38
13.57
8.72
3.97
-0.57
-4.85
-8.84
-12.59
-16.27
-20.13
-24.51
-29.69
-35.74
-42.36
-48.78
-53.91
-56.56
-55.87
-51.53
-43.93
-34.03
-23.05
-12.16
-2.24
6.17
12.84
17.71
20.85
22.47
22.88
22.39
21.32
19.86
18.05
15.91
13.45
10.76
8.0
5.3
2.76
0.33
-2.11
-4.72
-7.71
-11.26
-15.51
-20.55
-26.33
-32.56
-38.79
-44.38
-48.74
-51.51
-52.68
-52.69
-52.21
-51.89
-52.02
-52.29
-51.89
-49.7
-44.84
-36.95
-26.36
-14.0
-0.99
11.71
23.5
34.18
43.83
52.53
60.28
67.0
72.53
76.74
79.6
81.19
81.72
81.5
80.87
80.15
79.54
79.02
78.39
77.32
75.47
72.62
68.72
63.85
58.15
51.75
44.78
37.37
29.71
22.01
14.36
6.67
-1.34
-10.06
-19.8
-30.69
-42.57
-54.96
-67.16
-78.21
-87.08
-92.71
-94.29
-91.42
-84.32
-73.79
-61.13
-47.8
-35.05
-23.7
-14.06
-5.98
0.9
6.9
12.19
16.72
20.34
22.88
24.31
24.74
24.42
23.66
22.79
22.08
21.74
21.81
22.25
22.83
23.26
23.21
22.41
20.71
18.07
14.64
10.62
6.29
1.88
-2.45
-6.65
-10.76
-14.83
-18.94
-23.06
-27.12
-31.03
-34.74
-38.37
-42.24
-46.78
-52.3
-58.72
-65.36
-71.04
-74.33
-74.08
-69.81
-61.86
-51.27
-39.41
-27.51
-16.47
-6.73
1.63
8.71
14.69
19.75
24.04
27.66
30.62
32.86
34.26
34.77
34.45
33.51
32.22
30.91
29.82
29.03
28.48
27.99
27.32
26.27
24.73
22.74
20.39
17.83
15.13
12.25
9.08
5.44
1.2
-3.64
-8.92
-14.37
-19.69
-24.64
-29.18
-33.49
-37.97
-43.05
-48.96
-55.53
-61.98
-67.16
-69.8
-68.94
-64.2
-55.98
-45.23
-33.14
-20.83
-9.15
1.39
10.49
18.05
24.0
28.35
31.18
32.67
33.06
32.65
31.73
30.55
29.26
27.91
26.5
25.03
23.57
22.26
21.24
20.57
20.09
19.47
18.28
16.13
12.84
8.44
3.21
-2.44
-8.11
-13.5
-18.51
-23.26
-28.02
-33.18
-39.14
-46.12
-54.03
-62.3
-69.87
-75.36
-77.43
-75.19
-68.54
-58.17
-45.32
-31.43
-17.73
-5.02
6.3
16.15
24.53
31.44
36.88
40.89
43.62
45.28
46.17
46.52
46.47
46.04
45.2
43.95
42.45
40.99
39.83
39.11
38.64
38.02
36.72
34.39
30.97
26.78
22.37
18.28
14.87
12.11
9.64
6.93
3.49
-0.94
-6.26
-12.07
-17.85
-23.21
-28.05
-32.63
-37.46
-43.1
-49.9
-57.84
-66.43
-74.68
-81.3
-84.94
-84.5
-79.5
-70.14
-57.36
-42.52
-27.14
-12.45
0.74
12.07
21.55
29.35
35.65
40.59
44.27
46.82
48.42
49.29
49.62
49.55
49.12
48.36
47.33
46.15
45.02
44.09
43.4
42.79
41.96
40.54
38.25
34.98
30.83
26.13
21.33
16.87
12.97
9.64
6.59
3.4
-0.3
-4.68
-9.64
-14.82
-19.83
-24.4
-28.55
-32.58
-36.99
-42.33
-48.95
-56.85
-65.54
-74.01
-80.9
-84.77
-84.47
-79.49
-70.07
-57.22
-42.38
-27.05
-12.5
0.44
11.43
20.45
27.75
33.64
38.39
42.25
45.36
47.86
49.84
51.4
52.59
53.44
53.97
54.17
54.06
53.64
52.93
51.89
50.42
48.38
45.7
42.37
38.51
34.36
30.23
26.33
22.75
19.37
15.94
12.14
7.77
2.86
-2.35
-7.54
-12.46
-17.09
-21.69
-26.7
-32.58
-39.59
-47.64
-56.16
-64.05
-69.92
-72.36
-70.37
-63.66
-52.82
-39.17
-24.37
-10.03
2.63
12.89
20.46
25.37
27.84
28.22
27.02
24.79
22.09
19.32
16.76
14.49
12.5
10.76
9.24
7.94
6.82
5.82
4.82
3.72
2.4
0.82
-1.0
-2.97
-4.9
-6.5
-7.43
-7.44
-6.46
-4.71
-2.71
-1.21
-1.01
-2.81
-6.99
-13.46
-21.56
-30.06
-37.42
-42.07
-42.91
-39.59
-32.58
-22.94
-12.02
-1.0
9.34
18.67
26.97
34.33
40.72
45.96
49.77
51.87
52.2
50.92
48.38
45.06
41.36
37.58
33.84
30.21
26.77
23.58
20.71
18.15
15.8
13.49
10.99
8.11
4.76
0.95
-3.18
-7.4
-11.51
-15.37
-19.0
-22.55
-26.36
-30.8
-36.25
-43.01
-51.11
-60.27
-69.73
-78.36
-84.77
-87.66
-86.12
-79.91
-69.56
-56.2
-41.24
-26.09
-11.84
0.85
11.7
20.71
28.01
33.75
38.09
41.14
43.07
44.04
44.25
43.96
43.4
42.82
42.45
42.42
42.71
43.13
43.35
42.94
41.6
39.18
35.8
31.74
27.37
22.93
18.49
13.93
9.07
3.78
-1.93
-7.87
-13.75
-19.33
-24.49
-29.3
-34.04
-39.14
-45.08
-52.18
-60.38
-69.09
-77.11
-82.92
-85.0
-82.37
-74.87
-63.23
-48.8
-33.12
-17.55
-3.07
9.78
20.73
29.66
36.59
41.66
45.15
47.43
48.9
49.8
50.22
50.14
49.53
48.44
47.09
45.75
44.63
43.79
43.12
42.36
41.28
39.68
37.49
34.72
31.51
27.96
24.24
20.46
16.68
12.86
8.89
4.67
0.2
-4.45
-9.07
-13.48
-17.62
-21.65
-25.93
-31.03
-37.36
-45.02
-53.5
-61.63
-67.84
-70.55
-68.67
-61.97
-51.18
-37.65
-23.04
-8.81
4.01
14.93
23.9
31.07
36.64
40.71
43.34
44.6
44.65
43.82
42.53
41.15
39.86
38.62
37.25
35.6
33.67
31.64
29.74
28.08
26.46
24.45
21.57
17.51
12.34
6.51
0.69
-4.5
-8.76
-12.2
-15.33
-18.88
-23.53
-29.69
-37.29
-45.67
-53.68
-59.88
-62.89
-61.79
-56.43
-47.44
-36.1
-23.85
-11.95
-1.13
8.43
17.02
25.0
32.59
39.6
45.48
49.45
50.86
49.47
45.62
40.2
34.33
29.0
24.79
21.76
19.61
17.95
16.53
15.27
14.26
13.53
12.95
12.26
11.11
9.24
6.59
3.29
-0.4
-4.19
-7.89
-11.46
-14.97
-18.64
-22.7
-27.42
-33.01
-39.63
-47.21
-55.28
-62.97
-69.02
-72.15
-71.34
-66.27
-57.34
-45.62
-32.48
-19.22
-6.8
4.26
13.85
22.07
29.09
35.06
40.02
43.92
46.63
48.04
48.09
46.82
44.42
41.2
37.53
33.82
30.4
27.51
25.26
23.62
22.47
21.6
20.77
19.71
18.23
16.23
13.73
10.83
7.62
4.18
0.52
-3.35
-7.41
-11.58
-15.81
-20.1
-24.57
-29.5
-35.16
-41.7
-48.94
-56.31
-62.79
-67.11
-68.09
-64.96
-57.62
-46.76
-33.66
-19.8
-6.49
5.4
15.56
24.04
31.03
36.67
41.0
43.98
45.63
46.08
45.63
44.61
43.3
41.86
40.38
38.86
37.29
35.67
33.99
32.23
30.3
28.1
25.58
22.65
19.34
15.69
11.79
7.74
3.64
-0.44
-4.37
-8.06
-11.42
-14.46
-17.34
-20.35
-23.91
-28.4
-33.98
-40.41
-46.96
-52.57
-56.03
-56.42
-53.31
-46.9
-37.95
-27.46
-16.49
-5.88
3.78
12.19
19.15
24.53
28.25
30.32
30.89
30.28
28.87
27.06
25.09
23.09
21.03
18.92
16.83
14.88
13.2
11.75
10.35
8.64
6.28
3.06
-1.03
-5.78
-10.85
-15.9
-20.6
-24.82
-28.64
-32.38
-36.52
-41.47
-47.35
-53.72
-59.56
-63.52
-64.27
-61.02
-53.76
-43.31
-31.0
-18.27
-6.26
4.41
13.59
21.36
27.84
33.0
36.73
38.95
39.72
39.34
38.26
36.95
35.71
34.63
33.58
32.31
30.64
28.52
26.09
23.55
21.09
18.74
16.37
13.72
10.6
6.92
2.82
-1.45
-5.6
-9.45
-13.01
-16.43
-19.96
-23.93
-28.63
-34.34
-41.17
-48.96
-57.13
-64.6
-70.0
-71.99
-69.68
-62.95
-52.52
-39.67
-25.9
-12.49
-0.31
10.25
19.16
26.56
32.63
37.48
41.14
43.63
44.98
45.33
44.85
43.79
42.38
40.8
39.15
37.46
35.75
33.98
32.1
30.08
27.9
25.53
22.99
20.3
17.49
14.51
11.32
7.85
4.09
0.09
-4.05
-8.23
-12.39
-16.58
-20.92
-25.65
-31.03
-37.3
-44.56
-52.6
-60.78
-68.02
-72.99
-74.38
-71.41
-64.03
-53.07
-39.92
-26.15
-13.07
-1.48
8.36
16.5
23.12
28.34
32.18
34.66
35.82
35.87
35.13
33.96
32.7
31.57
30.68
29.99
29.45
28.94
28.36
27.63
26.7
25.53
24.11
22.47
20.58
18.43
15.94
13.08
9.85
6.31
2.58
-1.23
-4.99
-8.68
-12.33
-16.04
-20.0
-24.49
-29.76
-35.85
-42.39
-48.52
-53.03
-54.65
-52.58
-46.7
-37.67
-26.69
-15.07
-3.92
6.05
14.45
21.13
26.11
29.48
31.41
32.14
31.97
31.16
29.93
28.49
26.96
25.42
23.88
22.35
20.87
19.5
18.29
17.24
16.17
14.84
12.98
10.44
7.23
3.55
-0.42
-4.48
-8.57
-12.74
-17.16
-22.11
-27.92
-34.81
-42.65
-50.79
-58.02
-62.9
-64.16
-61.2
-54.29
-44.39
-32.88
-21.02
-9.7
0.62
9.73
17.55
23.91
28.64
31.63
32.97
32.96
32.05
30.7
29.28
27.93
26.62
25.2
23.53
21.57
19.45
17.35
15.47
13.84
12.36
10.81
8.95
6.65
3.88
0.78
-2.5
-5.77
-8.89
-11.85
-14.76
-17.89
-21.64
-26.5
-32.83
-40.72
-49.8
-59.11
-67.24
-72.63
-73.96
-70.56
-62.64
-51.2
-37.74
-23.82
-10.66
1.01
10.93
19.23
26.15
31.95
36.84
40.93
44.27
46.82
48.52
49.3
49.17
48.26
46.8
45.15
43.59
42.3
41.29
40.41
39.38
38.01
36.19
33.95
31.39
28.57
25.46
21.99
18.11
13.83
9.33
4.83
0.57
-3.38
-7.07
-10.77
-14.88
-19.8
-25.84
-33.05
-41.06
-49.06
-55.85
-60.18
-61.03
-57.98
-51.33
-41.97
-31.1
-19.87
-9.14
0.56
9.01
16.15
22.01
26.66
30.17
32.59
33.94
34.2
33.35
31.47
28.79
25.7
22.65
20.06
18.2
17.16
16.83
17.01
17.44
17.91
18.26
18.41
18.33
17.97
17.27
16.08
14.23
11.54
7.95
3.54
-1.36
-6.33
-10.98
-15.13
-18.92
-22.79
-27.32
-33.04
-40.15
-48.37
-56.89
-64.45
-69.65
-71.28
-68.66
-61.83
-51.58
-39.17
-26.06
-13.49
-2.31
7.07
14.62
20.47
24.82
27.82
29.61
30.32
30.19
29.47
28.48
27.45
26.46
25.51
24.52
23.44
22.34
21.28
20.28
19.21
17.74
15.49
12.22
7.93
2.9
-2.37
-7.41
-11.87
-15.7
-19.15
-22.71
-26.94
-32.27
-38.79
-46.01
-52.92
-58.18
-60.51
-59.11
-53.92
-45.63
-35.38
-24.42
-13.72
-3.85
4.93
12.53
18.9
23.88
27.37
29.34
29.93
29.48
28.43
27.19
26.04
25.02
24.0
22.77
21.19
19.32
17.38
15.63
14.24
13.12
11.97
10.34
7.88
4.45
0.23
-4.42
-9.08
-13.44
-17.43
-21.2
-25.08
-29.47
-34.77
-41.24
-48.85
-57.16
-65.23
-71.74
-75.23
-74.54
-69.18
-59.55
-46.77
-32.42
-18.04
-4.77
6.77
16.44
24.4
30.85
35.96
39.79
42.38
43.77
44.12
43.64
42.62
41.32
39.92
38.5
37.08
35.63
34.12
32.55
30.87
29.06
27.02
24.64
21.83
18.54
14.77
10.58
6.09
1.42
-3.32
-8.02
-12.64
-17.18
-21.67
-26.28
-31.27
-36.96
-43.63
-51.34
-59.72
-67.88
-74.51
-78.23
-77.94
-73.22
-64.39
-52.44
-38.68
-24.47
-10.92
1.21
11.53
19.95
26.61
31.82
35.85
38.9
41.04
42.24
42.49
41.89
40.65
39.02
37.22
35.43
33.72
32.11
30.54
28.9
27.03
24.83
22.28
19.51
16.75
14.23
12.05
10.12
8.22
6.02
3.22
-0.31
-4.56
-9.32
-14.33
-19.33
-24.22
-29.04
-34.07
-39.7
-46.28
-53.89
-62.1
-69.91
-75.93
-78.71
-77.23
-71.2
-61.16
-48.3
-34.09
-19.87
-6.61
5.18
15.31
23.77
30.6
35.8
39.47
41.8
43.08
43.66
43.88
43.91
43.77
43.36
42.57
41.39
39.92
38.34
36.81
35.32
33.71
31.7
28.97
25.3
20.65
15.18
9.25
3.28
-2.34
-7.49
-12.32
-17.23
-22.75
-29.33
-37.07
-45.61
-54.02
-61.02
-65.23
-65.59
-61.66
-53.78
-42.92
-30.45
-17.74
-5.88
4.46
12.99
19.7
24.75
28.33
30.66
32.02
32.69
33.01
33.25
33.61
34.1
34.59
34.77
34.3
32.95
30.64
27.52
23.9
20.09
16.36
12.8
9.31
5.75
1.97
-2.02
-6.05
-9.86
-13.23
-16.08
-18.6
-21.15
-24.14
-27.95
-32.85
-38.93
-46.01
-53.6
-60.79
-66.3
-68.71
-66.83
-60.12
-48.94
-34.43
-18.22
-1.96
13.11
26.32
37.49
46.75
54.28
60.16
64.42
67.05
68.13
67.91
66.69
64.82
62.6
60.2
57.75
55.31
52.9
50.5
48.03
45.29
42.14
38.47
34.39
30.04
25.61
21.17
16.66
11.98
7.03
1.83
-3.46
-8.69
-13.76
-18.67
-23.52
-28.52
-33.9
-39.97
-47.0
-55.06
-63.83
-72.45
-79.6
-83.75
-83.63
-78.65
-69.15
-56.3
-41.76
-27.15
-13.65
-1.8
8.41
17.27
25.01
31.69
37.2
41.35
44.1
45.59
46.05
45.8
45.05
43.96
42.59
41.02
39.35
37.67
36.07
34.55
33.05
31.49
29.78
27.83
25.6
23.04
20.13
16.83
13.14
9.06
4.68
0.11
-4.5
-9.04
-13.47
-17.87
-22.43
-27.42
-33.1
-39.59
-46.7
-53.82
-59.92
-63.74
-64.09
-60.28
-52.39
-41.23
-28.14
-14.57
-1.73
9.62
19.15
26.8
32.69
36.98
39.86
41.58
42.37
42.47
42.03
41.19
40.03
38.64
37.11
35.5
33.81
32.04
30.18
28.22
26.12
23.81
21.07
17.71
13.56
8.67
3.35
-1.94
-6.78
-10.99
-14.77
-18.59
-23.1
-28.79
-35.81
-43.77
-51.78
-58.57
-62.74
-63.19
-59.4
-51.62
-40.81
-28.33
-15.56
-3.58
7.05
16.11
23.67
29.83
34.61
38.01
40.02
40.77
40.51
39.55
38.23
36.8
35.42
34.12
32.88
31.68
30.5
29.27
27.87
26.15
23.97
21.32
18.28
15.02
11.7
8.39
5.0
1.4
-2.56
-6.92
-11.58
-16.35
-21.04
-25.56
-30.01
-34.73
-40.13
-46.55
-54.04
-62.16
-69.94
-76.02
-79.0
-77.83
-72.15
-62.39
-49.65
-35.4
-21.03
-7.6
4.26
14.38
22.84
29.82
35.48
39.96
43.31
45.58
46.76
46.87
46.0
44.33
42.12
39.73
37.46
35.56
34.08
32.92
31.84
30.59
28.92
26.68
23.87
20.57
16.96
13.17
9.3
5.32
1.18
-3.2
-7.78
-12.44
-17.01
-21.31
-25.34
-29.23
-33.3
-37.99
-43.64
-50.41
-58.0
-65.63
-72.09
-76.03
-76.24
-72.12
-63.81
-52.16
-38.52
-24.32
-10.74
1.45
11.88
20.48
27.33
32.54
36.24
38.64
39.96
40.5
40.49
40.09
39.33
38.16
36.56
34.62
32.52
30.5
28.8
27.45
26.33
25.15
23.63
21.6
19.04
16.15
13.15
10.24
7.43
4.59
1.47
-2.12
-6.25
-10.76
-15.34
-19.64
-23.44
-26.73
-29.81
-33.17
-37.33
-42.56
-48.67
-54.86
-59.9
-62.41
-61.29
-56.1
-47.22
-35.76
-23.11
-10.63
0.78
10.69
19.03
25.86
31.16
34.85
36.81
37.16
36.22
34.55
32.73
31.15
29.89
28.79
27.53
25.9
23.86
21.57
19.3
17.22
15.3
13.33
10.99
8.0
4.3
0.07
-4.33
-8.5
-12.22
-15.52
-18.67
-22.09
-26.18
-31.2
-37.19
-43.86
-50.57
-56.38
-60.15
-60.86
-57.88
-51.26
-41.67
-30.29
-18.4
-7.08
3.0
11.58
18.65
24.28
28.48
31.21
32.48
32.43
31.36
29.76
28.14
26.88
26.1
25.69
25.35
24.8
23.83
22.44
20.7
18.75
16.64
14.39
11.97
9.37
6.62
3.75
0.77
-2.33
-5.57
-8.99
-12.62
-16.43
-20.49
-24.86
-29.71
-35.21
-41.5
-48.57
-56.13
-63.52
-69.76
-73.72
-74.33
-70.94
-63.54
-52.77
-39.77
-25.91
-12.38
-0.0
10.86
20.17
28.03
34.52
39.6
43.19
45.27
45.98
45.63
44.64
43.44
42.35
41.54
41.04
40.82
40.76
40.77
40.67
40.26
39.32
37.68
35.26
32.1
28.35
24.14
19.6
14.75
9.63
4.29
-1.16
-6.53
-11.64
-16.34
-20.64
-24.7
-28.87
-33.63
-39.4
-46.37
-54.21
-61.97
-68.21
-71.38
-70.31
-64.62
-54.9
-42.46
-28.91
-15.72
-3.84
6.28
14.6
21.3
26.59
30.65
33.61
35.57
36.65
36.96
36.6
35.71
34.43
32.91
31.36
29.97
28.92
28.28
28.02
27.95
27.79
27.28
26.24
24.63
22.55
20.15
17.52
14.7
11.65
8.31
4.67
0.82
-3.08
-6.81
-10.24
-13.38
-16.46
-19.88
-24.11
-29.51
-36.09
-43.36
-50.34
-55.74
-58.24
-56.96
-51.66
-42.89
-31.75
-19.55
-7.51
3.51
13.02
20.84
26.97
31.47
34.42
35.97
36.37
35.93
35.02
33.9
32.77
31.63
30.41
29.0
27.39
25.65
23.94
22.41
21.08
19.83
18.4
16.47
13.77
10.18
5.78
0.82
-4.31
-9.21
-13.63
-17.54
-21.18
-24.98
-29.37
-34.64
-40.76
-47.29
-53.4
-58.06
-60.18
-59.04
-54.36
-46.54
-36.44
-25.21
-13.97
-3.55
5.54
13.12
19.14
23.58
26.48
27.93
28.17
27.59
26.64
25.72
25.06
24.7
24.49
24.21
23.67
22.8
21.62
20.24
18.8
17.38
16.0
14.57
12.97
11.0
8.5
5.37
1.6
-2.68
-7.28
-11.95
-16.49
-20.83
-25.04
-29.31
-33.93
-39.17
-45.21
-51.95
-58.94
-65.31
-69.86
-71.39
-69.01
-62.5
-52.4
-39.89
-26.46
-13.51
-1.99
7.67
15.5
21.8
26.86
30.87
33.89
35.92
37.04
37.42
37.28
36.83
36.2
35.43
34.5
33.45
32.33
31.23
30.16
29.05
27.75
26.13
24.12
21.71
18.99
16.04
12.93
9.67
6.21
2.46
-1.67
-6.22
-11.11
-16.19
-21.27
-26.21
-31.06
-36.06
-41.57
-47.9
-55.06
-62.55
-69.31
-73.98
-75.22
-72.18
-64.8
-53.87
-40.81
-27.21
-14.4
-3.15
6.3
14.08
20.44
25.52
29.3
31.74
32.82
32.72
31.71
30.15
28.36
26.56
24.93
23.61
22.76
22.5
22.82
23.55
24.32
24.71
24.38
23.19
21.19
18.58
15.58
12.32
8.83
5.06
0.99
-3.33
-7.77
-12.14
-16.32
-20.29
-24.2
-28.33
-33.06
-38.65
-45.07
-51.84
-58.0
-62.3
-63.52
-60.87
-54.28
-44.4
-32.47
-19.86
-7.74
