40.57
38.6
36.43
34.09
31.76
29.64
27.94
26.71
25.72
24.51
22.5
19.26
14.68
8.98
2.68
-3.63
-9.51
-14.83
-19.76
-24.75
-30.33
-36.96
-44.84
-53.65
-62.54
-70.15
-74.97
-75.72
-71.76
-63.31
-51.38
-37.45
-23.06
-9.43
2.7
13.07
21.72
28.79
34.36
38.4
40.88
41.84
41.54
40.43
39.02
37.74
36.79
36.11
35.47
34.59
33.32
31.69
29.83
27.95
26.11
24.19
21.88
18.8
14.66
9.41
3.26
-3.38
-10.01
-16.31
-22.13
-27.58
-32.94
-38.62
-45.03
-52.51
-61.11
-70.35
-79.2
-86.11
-89.43
-87.92
-81.15
-69.73
-55.08
-38.98
-23.09
-8.59
3.96
14.46
23.06
29.95
35.25
39.09
41.61
43.03
43.67
43.89
43.95
44.02
44.09
44.04
43.79
43.33
42.73
42.14
41.59
41.02
40.25
39.04
37.12
34.31
30.47
25.6
19.83
13.44
6.82
0.32
-5.83
-11.61
-17.16
-22.77
-28.79
-35.55
-43.31
-52.1
-61.52
-70.58
-77.78
-81.42
-80.18
-73.61
-62.35
-47.94
-32.3
-17.12
-3.46
8.34
18.36
26.83
33.88
39.46
43.47
45.88
46.87
46.77
46.07
45.17
44.35
43.57
42.67
41.41
39.73
37.76
35.83
34.21
32.92
31.63
29.78
26.79
22.43
16.9
10.82
4.97
-0.04
-3.94
-6.89
-9.38
-12.02
-15.42
-20.01
-25.94
-32.95
-40.26
-46.67
-50.72
-51.13
-47.18
-39.03
-27.63
-14.47
-1.07
11.39
22.23
31.22
38.35
43.63
47.04
48.63
48.57
47.26
45.22
42.99
40.94
39.2
37.72
36.33
34.87
33.3
31.66
29.97
28.11
25.88
22.96
19.16
14.43
8.99
3.22
-2.48
-7.8
-12.69
-17.35
-22.26
-28.0
-35.07
-43.55
-52.88
-61.74
-68.33
-70.91
-68.34
-60.56
-48.57
-34.09
-18.97
-4.7
7.84
18.34
26.83
33.39
38.09
40.99
42.21
42.02
40.91
39.37
37.87
36.65
35.7
34.82
33.71
32.14
30.05
27.56
24.87
22.15
19.51
16.85
13.98
10.68
6.75
2.16
-2.89
-8.12
-13.15
-17.76
-21.94
-25.96
-30.25
-35.33
-41.58
-49.09
-57.62
-66.42
-74.39
-80.15
-82.37
-80.08
-73.01
-61.72
-47.48
-31.94
-16.69
-2.89
8.87
18.49
26.14
32.05
36.36
39.17
40.64
41.03
40.74
40.18
39.68
39.38
39.16
38.83
38.18
37.12
35.69
34.04
32.34
30.65
28.93
26.95
24.37
20.84
16.15
10.33
3.69
-3.24
-9.87
-15.79
-20.84
-25.23
-29.34
-33.73
-38.88
-45.13
-52.47
-60.4
-67.92
-73.65
-76.23
-74.69
-68.81
-59.21
-47.16
-34.16
-21.6
-10.4
-0.99
6.65
12.71
17.49
21.22
24.02
26.01
27.29
28.04
28.45
28.74
29.0
29.2
29.17
28.74
27.82
26.52
25.04
23.66
22.48
21.38
20.02
18.01
15.08
11.23
6.81
2.29
-1.92
-5.61
-8.88
-12.04
-15.46
-19.45
-24.21
-29.77
-35.95
-42.21
-47.64
-51.06
-51.29
-47.57
-39.86
-28.93
-16.09
-2.81
9.71
20.75
30.02
37.46
43.06
46.8
48.69
48.94
47.93
46.2
44.22
42.28
40.45
38.65
36.8
34.94
33.19
31.69
30.41
29.17
27.63
25.48
22.53
18.79
14.44
9.74
4.92
0.11
-4.63
-9.38
-14.35
-19.87
-26.25
-33.53
-41.26
-48.4
-53.53
-55.27
-52.82
-46.24
-36.48
-24.95
-13.13
-2.11
7.49
15.43
21.68
26.2
28.99
30.13
29.87
28.66
27.03
25.47
24.28
23.5
22.96
22.36
21.48
20.26
18.85
17.47
16.28
15.28
14.19
12.59
10.04
6.31
1.47
-4.09
-9.8
-15.1
-19.69
-23.65
-27.43
-31.67
-37.01
-43.79
-51.8
-60.23
-67.74
-72.77
-73.97
-70.59
-62.81
-51.59
-38.43
-24.89
-12.15
-0.86
8.85
17.08
23.99
29.57
33.76
36.47
37.74
37.83
37.15
36.16
35.2
34.4
33.62
32.63
31.23
29.47
27.58
25.86
24.5
23.38
22.12
20.2
17.21
13.05
7.95
2.36
-3.21
-8.33
-12.82
-16.75
-20.44
-24.42
-29.25
-35.42
-43.06
-51.77
-60.58
-68.04
-72.59
-73.0
-68.73
-60.12
-48.28
-34.72
-20.96
-8.14
3.09
12.58
20.37
26.53
31.11
34.06
35.4
35.27
33.93
31.73
29.05
26.26
23.62
21.33
19.41
17.85
16.56
15.48
14.59
13.87
13.25
12.52
11.42
9.61
6.88
3.22
-1.15
-5.83
-10.45
-14.71
-18.49
-21.85
-24.97
-28.11
-31.61
-35.84
-41.04
-47.12
-53.52
-59.08
-62.38
-62.14
-57.7
-49.26
-37.83
-24.89
-11.81
0.38
11.15
20.36
27.97
33.93
38.2
40.78
41.87
41.79
40.97
39.81
38.6
37.46
36.39
35.38
34.49
33.84
33.57
33.71
34.1
34.33
33.88
32.33
29.46
25.39
20.46
15.16
9.84
4.73
-0.17
-5.1
-10.41
-16.52
-23.66
-31.71
-39.99
-47.31
-52.25
-53.6
-50.74
-43.92
-34.12
-22.74
-11.14
-0.34
9.09
16.94
23.17
27.75
30.63
31.84
31.52
30.05
27.96
25.84
24.15
23.08
22.44
21.86
20.95
19.53
17.73
15.91
14.41
13.29
12.29
10.84
8.39
4.68
-0.18
-5.71
-11.34
-16.67
-21.59
-26.3
-31.17
-36.62
-43.01
-50.51
-58.98
-67.84
-75.99
-81.95
-84.2
-81.69
-74.18
-62.42
-47.94
-32.53
-17.77
-4.71
6.31
15.37
22.74
28.64
33.14
36.23
37.97
38.53
38.26
37.56
36.77
36.07
35.43
34.74
33.86
32.73
31.38
29.93
28.47
27.03
25.5
23.6
20.98
17.33
12.58
6.95
0.95
-4.81
-9.89
-14.22
-18.11
-22.17
-27.02
-33.14
-40.7
-49.5
-58.98
-68.1
-75.48
-79.65
-79.36
-74.1
-64.22
-50.96
-36.06
-21.22
-7.68
3.99
13.75
21.84
28.48
33.74
37.51
39.71
40.43
39.9
38.58
36.9
35.21
33.6
31.99
30.23
28.23
26.08
24.01
22.26
20.95
19.94
18.83
17.15
14.47
10.66
5.95
0.75
-4.37
-9.04
-13.14
-16.83
-20.52
-24.62
-29.55
-35.55
-42.68
-50.62
-58.74
-65.94
-70.87
-72.24
-69.15
-61.47
-49.9
-35.8
-20.82
-6.42
6.4
17.17
25.79
32.39
37.14
40.22
41.88
42.39
42.07
41.26
40.23
39.17
38.16
37.23
36.4
35.69
35.13
34.73
34.41
33.95
33.02
31.35
28.79
25.43
21.57
17.57
13.73
10.09
6.43
2.31
-2.77
-9.19
-17.05
-25.92
-34.82
-42.33
-46.93
-47.41
-43.32
-35.08
-23.87
-11.23
1.34
12.77
22.45
30.17
35.93
39.81
41.9
42.38
41.49
39.58
37.0
34.08
31.07
28.13
25.35
22.75
20.39
18.26
16.3
14.38
12.33
9.95
7.1
3.75
-0.06
-4.15
-8.36
-12.52
-16.62
-20.85
-25.58
-31.28
-38.32
-46.57
-55.3
-63.15
-68.44
-69.72
-66.22
-58.18
-46.68
-33.31
-19.65
-6.91
4.26
13.63
21.23
27.16
31.46
34.21
35.52
35.64
34.95
33.84
32.61
31.41
30.24
29.03
27.78
26.56
25.48
24.64
23.91
22.99
21.39
18.6
14.3
8.47
1.47
-6.11
-13.58
-20.49
-26.74
-32.66
-38.9
-46.14
-54.77
-64.67
-75.03
-84.47
-91.32
-94.04
-91.66
-84.11
-72.22
-57.52
-41.76
-26.45
-12.53
-0.41
9.94
18.64
25.7
31.03
34.47
35.98
35.67
33.83
30.87
27.27
23.53
20.16
17.7
16.61
17.22
19.61
23.56
28.53
33.73
38.29
41.43
42.61
41.58
38.36
33.09
25.96
17.13
6.78
-4.77
-17.1
-29.63
-41.67
-52.38
-60.8
-65.91
-66.78
-62.9
-54.43
-42.29
-27.98
-13.23
0.5
12.32
21.98
29.69
35.89
40.9
44.86
47.76
49.49
50.02
49.5
48.23
46.64
45.1
43.87
43.03
42.53
42.16
41.68
40.76
39.07
36.35
32.52
27.71
22.28
16.65
11.14
5.87
0.65
-4.86
-11.09
-18.27
-26.27
-34.47
-41.78
-46.88
-48.57
-46.16
-39.74
-30.13
-18.69
-6.86
4.16
13.7
21.48
27.52
31.9
34.64
35.73
35.31
33.61
31.02
27.96
24.74
21.53
18.42
15.44
12.7
10.35
8.47
7.03
5.77
4.29
2.15
-0.98
-5.23
-10.48
-16.42
-22.6
-28.55
-33.96
-38.75
-43.18
-47.78
-53.17
-59.8
-67.68
-76.25
-84.42
-90.77
-94.0
-93.24
-88.32
-79.82
-68.86
-56.81
-44.89
-34.0
-24.64
-17.03
-11.27
-7.41
-5.4
-4.98
-5.58
-6.38
-6.46
-5.06
-1.86
2.97
8.76
14.6
19.51
22.83
24.35
24.38
23.52
22.35
21.06
19.28
16.29
11.46
4.7
-3.3
-11.37
-18.28
-23.34
-26.66
-29.06
-31.68
-35.56
-41.24
-48.57
-56.71
-64.15
-68.98
-69.22
-63.25
-50.21
-30.45
-5.64
21.34
46.92
67.67
81.11
86.41
84.58
78.06
69.88
62.74
58.26
56.82
57.76
59.94
62.19
63.69
64.0
63.12
61.36
59.16
56.96
55.02
53.41
51.95
50.33
48.18
45.14
40.9
35.29
28.36
20.43
12.06
3.97
-3.25
-9.31
-14.32
-18.73
-23.16
-28.1
-33.69
-39.59
-45.04
-49.1
-50.88
-49.89
-46.02
-39.52
-30.77
-20.13
-7.94
5.33
18.97
32.01
43.47
52.69
59.64
64.89
69.41
74.07
79.36
85.16
90.98
96.17
100.25
103.11
104.92
106.0
106.56
106.57
105.72
103.63
100.09
95.26
89.77
84.5
80.32
77.82
77.06
77.63
78.81
79.89
80.38
80.1
79.17
77.82
76.29
74.68
73.02
71.33
69.68
68.25
67.18
66.58
66.26
65.85
64.8
62.68
59.24
54.53
48.82
42.43
35.61
28.47
20.99
13.18
5.09
-3.12
-11.28
-19.19
-26.67
-33.53
-39.6
-44.77
-49.06
-52.69
-55.92
-59.04
-62.19
-65.35
-68.35
-71.0
-73.19
-74.92
-76.35
-77.66
-79.01
-80.43
-81.78
-82.73
-82.92
-81.97
-79.63
-75.87
-70.87
-64.96
-58.6
-52.24
-46.31
-41.14
-36.94
-33.75
-31.48
-29.88
-28.71
-27.73
-26.81
-25.88
-25.01
-24.29
-23.87
-23.89
-24.43
-25.5
-27.01
-28.84
-30.84
-32.88
-34.9
-36.88
-38.84
-40.82
-42.95
-45.37
-48.25
-51.72
-55.74
-60.07
-64.18
-67.34
-68.77
-67.86
-64.29
-58.17
-49.99
-40.44
-30.34
-20.43
-11.32
-3.55
2.52
6.69
8.96
9.61
9.11
8.01
6.83
5.91
5.31
4.86
4.25
3.16
1.37
-1.14
-4.21
-7.55
-10.85
-13.91
-16.67
-19.23
-21.82
-24.7
-28.07
-32.07
-36.76
-42.03
-47.58
-52.83
-56.92
-58.83
-57.69
-53.07
-45.2
-34.94
-23.5
-12.06
-1.49
7.76
15.53
21.77
26.39
29.26
30.39
29.95
28.38
26.26
24.08
22.17
20.57
19.12
17.54
15.63
13.29
10.53
7.43
4.0
0.19
-4.06
-8.79
-13.9
-19.18
-24.38
-29.3
-33.94
-38.52
-43.37
-48.69
-54.34
-59.67
-63.63
-65.07
-63.11
-57.5
-48.74
-37.84
-26.06
-14.45
-3.77
5.54
13.2
18.98
22.73
24.48
24.55
23.46
21.78
19.89
17.9
15.69
13.17
10.35
7.5
4.98
3.06
1.78
0.84
-0.18
-1.75
-4.15
-7.35
-11.21
-15.42
-19.76
-24.11
-28.51
-33.11
-38.09
-43.65
-49.82
-56.41
-62.86
-68.34
-71.82
-72.41
-69.57
-63.31
-54.13
-42.89
-30.49
-17.75
-5.25
6.55
17.26
26.49
33.83
38.99
41.89
42.76
42.08
40.48
38.56
36.74
35.15
33.7
32.22
30.55
28.68
26.7
24.76
22.95
21.28
19.66
17.95
16.01
13.78
11.31
8.73
6.23
3.92
1.83
-0.15
-2.23
-4.6
-7.41
-10.73
-14.54
-18.74
-23.14
-27.36
-30.78
-32.68
-32.32
-29.23
-23.33
-15.0
-4.98
5.84
16.59
26.51
35.0
41.63
46.15
48.53
48.97
47.9
45.87
43.41
40.91
38.57
36.42
34.36
32.3
30.19
28.0
25.74
23.42
21.02
18.5
15.86
13.14
10.4
7.72
5.08
2.44
-0.33
-3.3
-6.48
-9.71
-12.82
-15.68
-18.28
-20.73
-23.19
-25.69
-28.07
-30.09
-31.48
-32.22
-32.44
-32.37
-32.06
-31.31
-29.69
-26.79
-22.5
-17.16
-11.47
-6.27
-2.26
0.25
1.3
1.23
0.5
-0.52
-1.59
-2.73
-4.08
-5.9
-8.4
-11.7
-15.71
-20.14
-24.66
-28.91
-32.62
-35.66
-38.13
-40.3
-42.68
-45.94
-50.75
-57.65
-66.8
-77.99
-90.52
-103.4
-115.55
-126.02
-134.27
-140.21
-144.05
-146.03
-146.03
-143.48
-137.54
-127.51
-113.28
-95.52
-75.57
-54.99
-35.08
-16.67
-0.08
14.65
27.54
38.51
47.48
54.43
59.49
62.94
65.23
66.81
68.11
69.42
70.91
72.58
74.36
76.14
77.89
79.7
81.74
84.18
87.06
90.28
93.63
96.85
99.75
102.21
104.17
105.62
106.55
107.0
107.09
106.99
106.84
106.62
106.06
104.77
102.29
98.37
93.04
86.66
79.84
73.26
67.5
62.89
59.37
56.55
53.75
50.18
45.18
38.36
29.74
19.73
9.04
-1.57
-11.36
-19.78
-26.49
-31.34
-34.33
-35.5
-35.01
-33.11
-30.21
-26.82
-23.56
-20.93
-19.19
-18.28
-17.75
-16.94
-15.15
-11.8
-6.62
0.4
9.02
18.9
29.74
41.28
53.28
65.42
77.18
87.79
96.22
101.31
102.09
97.98
89.09
76.26
60.94
44.92
29.84
16.87
6.43
-1.76
-8.45
-14.44
-20.3
-26.13
-31.73
-36.79
-41.12
-44.77
-47.91
-50.68
-52.99
-54.62
-55.4
-55.49
-55.46
-56.07
-57.98
-61.35
-65.77
-70.35
-74.08
-76.2
-76.39
-74.77
-71.83
-68.06
-63.83
-59.26
-54.25
-48.7
-42.58
-36.11
-29.79
-24.19
-19.83
-17.0
-15.68
-15.64
-16.56
-18.13
-20.1
-22.12
-23.79
-24.63
-24.33
-22.91
-20.83
-18.89
-17.86
-18.3
-20.21
-23.21
-26.61
-29.77
-32.3
-34.04
-35.12
-35.7
-35.95
-35.93
-35.73
-35.41
-35.09
-34.86
-34.78
-34.86
-35.08
-35.41
-35.82
-36.28
-36.74
-37.1
-37.28
-37.2
-36.86
-36.29
-35.57
-34.71
-33.68
-32.43
-30.87
-28.96
-26.65
-23.95
-20.89
-17.58
-14.16
-10.78
-7.61
-4.81
-2.54
-0.92
0.01
0.33
0.27
0.1
0.07
0.31
0.76
1.2
1.32
0.85
-0.36
-2.29
-4.81
-7.66
-10.62
-13.45
-15.99
-18.12
-19.81
-21.02
-21.76
-22.06
-21.95
-21.49
-20.78
-19.97
-19.31
-19.08
-19.49
-20.67
-22.55
-24.89
-27.4
-29.86
-32.15
-34.25
-36.17
-37.89
-39.3
-40.24
-40.5
-39.87
-38.1
-34.9
-30.02
-23.31
-14.84
-4.94
5.84
16.94
27.88
38.4
48.42
57.87
66.64
74.49
81.11
86.23
89.73
91.66
92.14
91.39
89.63
87.06
83.9
80.36
76.6
72.72
68.81
64.9
61.05
57.29
53.6
49.85
45.83
41.31
36.13
30.26
23.85
17.2
10.72
4.92
0.32
-2.6
-3.41
-1.83
2.21
8.55
16.78
26.22
36.09
45.64
54.31
61.83
68.31
74.06
79.46
84.74
89.93
94.71
98.56
100.73
100.53
97.42
91.26
82.44
71.89
60.91
50.85
42.71
36.82
32.83
29.78
26.62
22.54
17.31
11.29
5.17
-0.33
-4.8
-8.21
-10.78
-12.79
-14.38
-15.6
-16.5
-17.3
-18.45
-20.41
-23.52
-27.71
-32.53
-37.44
-42.08
-46.52
-51.18
-56.45
-62.3
-67.95
-72.14
-73.61
-71.74
-66.93
-60.42
-53.75
-48.1
-43.78
-40.36
-36.93
-32.65
-27.05
-20.09
-12.01
-3.21
5.83
14.59
22.47
28.93
33.63
36.57
38.08
38.76
39.23
39.97
41.16
42.71
44.29
45.51
46.12
46.03
45.43
44.66
44.06
43.81
43.9
44.17
44.36
44.33
44.09
43.78
43.59
43.6
43.79
44.05
44.26
44.28
43.98
43.09
41.22
37.96
33.06
26.64
19.18
11.4
4.02
-2.42
-7.71
-11.83
-14.85
-16.81
-17.69
-17.51
-16.36
-14.49
-12.28
-10.14
-8.43
-7.34
-6.85
-6.72
-6.63
-6.36
-5.93
-5.59
-5.71
-6.52
-7.96
-9.77
-11.63
-13.44
-15.36
-17.7
-20.71
-24.34
-28.28
-32.05
-35.34
-38.11
-40.63
-43.34
-46.58
-50.54
-55.14
-60.1
-65.05
-69.54
-73.16
-75.6
-76.68
-76.35
-74.69
-71.82
-67.92
-63.15
-57.71
-51.85
-45.84
-39.95
-34.35
-29.13
-24.25
-19.59
-15.01
-10.39
-5.67
-0.88
3.85
8.3
12.27
15.57
18.12
19.92
21.03
21.57
21.63
21.3
20.64
19.69
18.52
17.16
15.67
14.05
12.3
10.42
8.42
6.37
4.39
2.58
1.01
-0.29
-1.31
-2.07
-2.55
-2.73
-2.56
-2.02
-1.16
-0.09
1.06
2.15
3.12
3.97
4.75
5.53
6.32
7.09
7.75
8.19
8.42
8.48
8.48
8.42
8.24
7.75
6.79
5.32
3.39
1.16
-1.32
-4.08
-7.27
-11.04
-15.44
-20.28
-25.19
-29.69
-33.31
-35.74
-36.85
-36.73
-35.68
-34.12
-32.42
-30.88
-29.55
-28.32
-27.01
-25.47
-23.63
-21.57
-19.43
-17.32
-15.35
-13.52
-11.79
-10.07
-8.33
-6.52
-4.65
-2.87
-1.37
-0.41
-0.15
-0.6
-1.57
-2.77
-3.87
-4.71
-5.35
-6.0
-6.94
-8.38
-10.38
-12.79
-15.41
-17.96
-20.28
-22.26
-23.87
-25.15
-26.11
-26.75
-27.06
-27.05
-26.7
-26.0
-24.98
-23.63
-21.98
-20.06
-17.89
-15.57
-13.21
-11.03
-9.23
-7.99
-7.3
-7.03
-6.9
-6.59
-5.91
-4.81
-3.41
-1.88
-0.4
0.93
2.01
2.81
3.26
3.35
3.1
2.6
1.96
1.3
0.73
0.35
0.26
0.55
1.33
2.6
4.33
6.43
8.76
11.2
13.63
16.0
18.28
20.43
22.39
24.1
25.48
26.47
27.05
27.23
27.08
26.67
26.06
25.31
24.44
23.47
22.36
21.12
19.76
18.38
17.12
16.1
15.32
14.67
13.99
13.09
11.86
10.29
8.41
6.27
3.89
1.37
-1.14
-3.33
-4.89
-5.53
-5.18
-3.92
-2.05
0.1
2.28
4.34
6.28
8.18
10.1
12.05
13.96
15.75
17.36
18.76
19.96
20.94
21.61
21.85
21.59
20.85
19.75
18.48
17.21
16.03
14.9
13.76
12.53
11.2
9.82
8.49
7.27
6.19
5.22
4.23
3.03
1.44
-0.56
-2.83
-5.04
-6.8
-7.82
-8.07
-7.73
-7.1
-6.4
-5.75
-5.1
-4.37
-3.55
-2.72
-2.0
-1.47
-1.13
-0.92
-0.76
-0.62
-0.49
-0.39
-0.29
-0.15
0.09
0.44
0.81
1.1
1.23
1.16
0.97
0.82
0.87
1.2
1.8
2.51
3.07
3.21
2.67
1.35
-0.68
-3.19
-5.87
-8.4
-10.58
-12.25
-13.3
-13.55
-12.87
-11.2
-8.68
-5.59
-2.35
0.75
3.58
6.21
8.78
11.35
13.83
16.03
17.75
18.92
19.59
19.91
20.02
20.0
19.88
19.71
19.51
19.3
19.06
18.66
17.92
16.65
14.76
12.34
9.59
6.84
4.37
2.37
0.85
-0.3
-1.28
-2.35
-3.69
-5.37
-7.36
-9.45
-11.32
-12.65
-13.17
-12.79
-11.56
-9.73
-7.54
-5.22
-2.9
-0.65
1.49
3.43
5.01
6.16
6.86
7.24
7.53
7.95
8.58
9.38
10.2
10.88
11.32
11.52
11.51
11.35
11.0
10.42
9.54
8.36
6.94
5.39
3.83
2.35
0.93
-0.53
-2.2
-4.17
-6.46
-8.98
-11.57
-14.16
-16.73
-19.37
-22.12
-24.92
-27.53
-29.57
-30.72
-30.78
-29.82
-28.11
-26.05
-23.97
-22.1
-20.47
-18.99
-17.55
-16.1
-14.67
-13.39
-12.44
-11.92
-11.83
-12.1
-12.6
-13.18
-13.75
-14.28
-14.79
-15.34
-15.96
-16.65
-17.36
-18.0
-18.49
-18.79
-18.83
-18.52
-17.84
-16.78
-15.46
-14.09
-12.92
-12.09
-11.6
-11.3
-10.93
-10.27
-9.25
-7.91
-6.42
-4.91
-3.41
-1.83
-0.03
2.13
4.69
7.56
10.6
13.7
16.86
20.2
23.85
27.87
32.14
36.35
40.13
43.15
45.28
46.6
47.38
47.94
48.58
49.45
50.6
51.93
53.22
54.22
54.67
54.33
53.08
50.94
48.05
44.58
40.77
36.84
32.96
29.21
25.61
22.05
18.3
14.11
9.31
3.9
-1.96
-7.98
-13.9
-19.65
-25.35
-31.26
-37.52
-44.11
-50.72
-56.87
-62.14
-66.3
-69.43
-71.88
-74.13
-76.71
-80.05
-84.5
-90.19
-97.13
-105.05
-113.5
-121.71
-128.79
-133.8
-136.06
-135.3
-131.9
-126.75
-120.99
-115.57
-110.87
-106.59
-101.9
-95.93
-88.14
-78.65
-68.08
-57.29
-46.92
-37.21
-28.03
-19.11
-10.27
-1.48
7.15
15.56
23.8
31.97
40.0
47.59
54.17
59.14
62.2
63.51
63.75
63.88
64.75
66.85
70.14
74.23
78.54
82.56
85.96
88.57
90.28
91.06
90.87
89.77
87.92
85.56
82.98
80.43
78.12
76.12
74.43
72.97
71.57
70.04
68.23
66.04
63.5
60.72
57.86
55.07
52.47
50.14
48.16
46.61
45.51
44.79
44.23
43.54
42.37
40.45
37.67
34.17
30.21
26.14
22.26
18.77
15.75
13.23
11.28
9.98
9.44
9.74
10.85
12.6
14.68
16.71
18.31
19.14
19.04
17.95
16.0
13.4
10.44
7.38
4.45
1.83
-0.4
-2.21
-3.7
-5.02
-6.39
-8.01
-9.96
-12.17
-14.35
-16.06
-16.85
-16.39
-14.55
-11.53
-7.79
-3.97
-0.67
1.65
2.8
2.86
2.09
0.74
-1.0
-3.02
-5.25
-7.6
-9.89
-11.97
-13.77
-15.34
-16.83
-18.48
-20.53
-23.15
-26.4
-30.27
-34.65
-39.37
-44.27
-49.15
-53.78
-57.84
-60.99
-62.94
-63.53
-62.85
-61.12
-58.65
-55.63
-52.16
-48.3
-44.21
-40.24
-36.91
-34.7
-33.97
-34.87
-37.39
-41.43
-46.9
-53.63
-61.22
-68.88
-75.24
-78.53
-76.83
-68.66
-53.56
-32.47
-7.62
17.92
41.08
59.63
72.6
80.27
83.75
84.41
83.39
81.44
79.0
76.34
73.69
71.22
68.98
66.81
64.42
61.48
57.86
53.65
49.19
44.87
40.95
37.42
33.98
30.16
25.5
19.75
13.0
5.64
-1.68
-8.28
-13.65
-17.53
-19.97
-21.24
-21.72
-21.75
-21.5
-20.99
-20.11
-18.77
-16.93
-14.76
-12.54
-10.62
-9.23
-8.47
-8.22
-8.28
-8.41
-8.45
-8.42
-8.46
-8.85
-9.85
-11.65
-14.23
-17.39
-20.8
-24.14
-27.27
-30.3
-33.61
-37.64
-42.72
-48.89
-55.87
-63.21
-70.49
-77.51
-84.42
-91.65
-99.71
-109.09
-120.13
-133.04
-147.62
-163.04
-177.59
-188.78
-193.95
-191.13
-179.86
-161.38
-138.17
-112.89
-87.52
-62.88
-38.99
-15.77
6.35
26.35
43.01
55.65
64.43
70.38
74.88
78.99
83.15
87.08
90.13
91.73
91.73
90.5
88.72
86.98
85.51
84.0
81.79
78.15
72.6
65.15
56.31
46.85
37.52
28.72
20.43
12.23
3.43
-6.63
-18.45
-32.28
-47.93
-64.64
-80.97
-94.91
-104.25
-107.21
-103.03
-92.17
-76.2
-57.16
-36.94
-16.86
2.39
20.53
37.33
52.48
65.54
76.16
84.24
89.96
93.75
96.12
97.55
98.37
98.73
98.63
98.05
97.0
95.59
93.93
92.11
90.07
87.62
84.54
80.6
75.68
69.75
62.84
55.03
46.5
37.47
28.3
19.34
10.83
2.86
-4.79
-12.57
-21.08
-30.87
-42.18
-54.66
-67.26
-78.28
-85.75
-88.01
-84.22
-74.64
-60.54
-43.75
-26.1
-8.95
6.88
21.03
33.34
43.68
51.91
57.95
61.88
63.9
64.36
63.62
62.0
59.74
57.02
53.95
50.61
47.16
43.76
40.54
37.52
34.51
31.21
27.3
22.65
17.35
11.77
6.28
1.1
-3.92
-9.29
-15.67
-23.66
-33.49
-44.78
-56.45
-66.83
-74.02
-76.4
-73.08
-64.2
-50.8
-34.52
-17.02
0.38
16.91
32.2
46.08
58.33
68.59
76.44
81.6
84.09
84.33
82.96
80.66
77.92
74.92
71.55
67.6
62.98
57.78
52.24
46.73
41.45
36.44
31.56
26.56
21.2
15.41
9.27
3.04
-2.95
-8.49
-13.55
-18.35
-23.31
-28.9
-35.52
-43.35
-52.23
-61.49
-69.97
-76.1
-78.27
-75.29
-66.8
-53.42
-36.59
-18.1
0.5
18.21
34.63
49.72
63.45
75.54
85.5
92.81
97.19
98.72
97.86
95.28
91.63
87.45
83.07
78.68
74.39
70.25
66.32
62.59
59.0
55.44
51.71
47.6
42.9
37.47
31.28
24.42
17.06
9.45
1.8
-5.72
-13.01
-20.08
-27.0
-33.94
-41.17
-49.02
-57.74
-67.33
-77.31
-86.66
-93.89
-97.47
-96.29
-90.08
-79.49
-65.86
-50.78
-35.6
-21.18
-7.94
3.97
14.47
23.52
31.07
37.2
42.03
45.73
48.39
50.07
50.78
50.65
49.91
48.9
47.98
47.39
47.2
47.28
47.35
47.09
46.21
44.56
42.15
39.08
35.57
31.77
27.73
23.4
18.64
13.32
7.48
1.25
-5.09
-11.31
-17.3
-23.13
-29.11
-35.63
-43.02
-51.3
-60.06
-68.31
-74.73
-77.91
-76.87
-71.34
-61.88
-49.7
-36.24
-22.77
-10.16
1.19
11.18
19.8
27.04
32.84
37.15
40.04
41.68
42.31
42.19
41.48
40.24
38.47
36.21
33.65
31.07
28.79
27.03
25.72
24.54
22.99
20.6
17.13
12.69
7.65
2.53
-2.26
-6.58
-10.62
-14.79
-19.59
-25.47
-32.62
-40.88
-49.61
-57.72
-63.85
-66.64
-65.26
-59.6
-50.44
-39.11
-27.05
-15.41
-4.75
4.82
13.41
21.07
27.67
32.9
36.55
38.57
39.2
38.88
38.09
37.19
36.28
35.31
34.12
32.6
30.8
28.9
27.07
25.42
23.85
22.1
19.83
16.73
12.63
7.55
1.74
-4.35
-10.28
-15.7
-20.57
-25.1
-29.71
-34.93
-41.16
-48.59
-57.03
-65.89
-74.13
-80.42
-83.43
-82.21
-76.47
-66.8
-54.45
-40.93
-27.6
-15.31
-4.32
5.47
14.29
22.19
29.03
34.54
38.53
40.98
42.16
42.43
42.17
41.58
40.71
39.5
37.95
36.15
34.29
32.52
30.87
29.24
27.41
25.12
22.21
18.6
14.29
9.36
3.97
-1.72
-7.45
-12.96
-18.03
-22.56
-26.63
-30.49
-34.58
-39.36
-45.2
-52.13
-59.7
-66.9
-72.29
-74.41
-72.22
-65.41
-54.57
-40.98
-26.19
-11.53
2.09
14.33
25.17
34.73
43.03
49.98
55.53
59.76
62.99
65.72
