58.96
58.5
57.31
55.77
54.32
53.25
52.61
52.13
51.38
49.92
47.52
44.24
40.3
36.0
31.52
26.87
21.94
16.59
10.73
4.43
-2.18
-8.88
-15.46
-21.79
-27.86
-33.81
-39.91
-46.54
-54.01
-62.33
-71.07
-79.17
-85.21
-87.73
-85.76
-79.15
-68.69
-55.75
-41.82
-28.08
-15.12
-3.08
8.09
18.4
27.65
35.57
41.95
46.81
50.35
52.87
54.55
55.43
55.47
54.67
53.23
51.53
50.01
48.92
48.18
47.41
46.08
43.78
40.43
36.3
31.81
27.4
23.23
19.2
15.01
10.32
4.97
-0.98
-7.24
-13.44
-19.25
-24.53
-29.36
-34.01
-38.89
-44.42
-50.92
-58.43
-66.51
-74.18
-79.99
-82.46
-80.48
-73.77
-62.99
-49.51
-34.9
-20.48
-7.01
5.25
16.34
26.29
35.04
42.46
48.46
53.11
56.55
58.95
60.39
60.87
60.34
58.73
56.13
52.76
49.0
45.29
42.03
39.37
37.12
34.72
31.41
26.4
19.21
9.79
-1.41
-13.6
-25.87
-37.4
-47.65
-56.43
-63.81
-70.02
-75.28
-79.64
-82.85
-84.41
-83.7
-80.14
-73.47
-63.89
-52.0
-38.68
-24.79
-10.99
2.44
15.49
28.27
40.73
52.6
63.33
72.26
78.92
83.16
85.24
85.66
84.98
83.56
81.51
78.7
74.98
70.3
64.81
58.87
52.86
47.04
41.4
35.64
29.32
22.05
13.77
4.83
-4.07
-12.11
-18.7
-23.7
-27.41
-30.53
-33.87
-38.18
-44.02
-51.6
-60.66
-70.44
-79.75
-87.29
-92.04
-93.6
-92.33
-89.12
-85.0
-80.79
-76.85
-73.16
-69.45
-65.46
-61.09
-56.4
-51.64
-47.14
-43.19
-39.93
-37.19
-34.5
-31.23
-26.96
-21.69
-16.01
-10.8
-6.95
-4.93
-4.63
-5.53
-7.0
-8.7
-10.67
-13.25
-16.66
-20.72
-24.76
-27.84
-29.16
-28.47
-26.2
-23.21
-20.46
-18.58
-17.81
-18.16
-19.67
-22.63
-27.46
-34.33
-42.69
-51.15
-57.69
-60.29
-57.58
-49.35
-36.54
-20.89
-4.33
11.63
26.15
39.09
50.8
61.77
72.37
82.71
92.57
101.49
108.9
114.26
117.2
117.64
115.71
111.82
106.48
100.27
93.71
87.26
81.11
75.32
69.77
64.3
58.78
53.19
47.57
41.92
36.18
30.19
23.87
17.21
10.38
3.63
-2.92
-9.33
-15.84
-22.78
-30.49
-39.16
-48.79
-59.1
-69.41
-78.66
-85.45
-88.46
-86.78
-80.32
-69.84
-56.69
-42.33
-27.9
-14.06
-1.01
11.2
22.48
32.63
41.44
48.8
54.69
59.12
61.99
63.03
61.97
58.75
53.65
47.32
40.54
33.96
27.94
22.39
16.96
11.16
4.57
-3.07
-11.81
-21.45
-31.57
-41.57
-50.81
-58.8
-65.43
-70.99
-76.15
-81.72
-88.41
-96.43
-105.28
-113.53
-119.12
-119.78
-113.78
-100.63
-81.32
-58.07
-33.63
-10.42
10.04
27.29
41.54
53.26
62.71
69.92
74.88
77.81
79.18
79.71
79.99
80.34
80.69
80.7
80.03
78.52
76.31
73.75
71.29
69.27
67.75
66.5
65.0
62.66
59.03
54.01
47.94
41.48
35.3
29.84
25.08
20.66
15.97
10.49
3.91
-3.77
-12.22
-20.72
-28.28
-33.78
-36.26
-35.2
-30.75
-23.64
-14.91
-5.53
3.9
13.14
22.15
30.76
38.44
44.24
47.11
46.28
41.66
34.06
24.94
16.08
9.05
4.72
3.23
4.12
6.6
9.95
13.66
17.52
21.52
25.77
30.28
34.96
39.59
43.87
47.47
50.16
51.76
52.07
50.88
47.93
43.06
36.32
27.96
18.42
8.0
-3.21
-15.35
-28.57
-42.66
-56.84
-69.76
-79.87
-85.92
-87.46
-84.98
-79.73
-73.18
-66.59
-60.68
-55.63
-51.25
-47.3
-43.57
-40.05
-36.81
-33.91
-31.44
-29.45
-27.96
-27.03
-26.64
-26.71
-27.1
-27.6
-28.01
-28.12
-27.77
-26.78
-25.08
-22.69
-19.82
-16.84
-14.26
-12.52
-11.96
-12.67
-14.5
-17.18
-20.38
-23.85
-27.46
-31.17
-35.08
-39.37
-44.32
-50.2
-57.17
-64.99
-72.93
-79.67
-83.46
-82.63
-76.12
-64.06
-48.01
-30.56
-14.58
-2.21
5.89
10.65
14.01
18.04
23.95
31.73
40.3
48.19
54.3
58.25
60.39
61.39
61.74
61.56
60.62
58.68
55.71
52.02
48.08
44.36
41.12
38.42
36.25
34.58
33.4
32.51
31.46
29.52
26.05
20.76
13.94
6.35
-1.19
-8.2
-14.78
-21.46
-28.84
-37.13
-45.88
-53.94
-59.69
-61.42
-57.83
-48.55
-34.44
-17.63
-1.05
12.42
20.84
23.8
22.36
18.4
13.77
9.64
6.45
4.23
3.09
3.46
5.84
10.32
16.22
22.19
26.58
28.15
26.51
22.15
16.17
9.71
3.59
-1.87
-6.69
-11.08
-15.17
-19.06
-22.77
-26.44
-30.22
-34.35
-38.94
-43.88
-48.74
-52.77
-55.04
-54.72
-51.31
-44.86
-36.0
-25.73
-15.11
-4.94
4.42
13.12
21.58
30.26
39.37
48.68
57.61
65.32
71.01
74.23
75.0
73.85
71.63
69.21
67.17
65.65
64.4
62.88
60.59
57.26
52.93
47.84
42.38
36.81
31.22
25.56
19.64
13.31
6.48
-0.87
-8.74
-17.13
-26.09
-35.66
-45.93
-56.93
-68.65
-80.93
-93.37
-105.2
-115.35
-122.59
-125.84
-124.46
-118.51
-108.61
-95.85
-81.39
-66.26
-51.17
-36.61
-22.82
-9.97
1.81
12.37
21.55
29.18
35.17
39.49
42.3
43.86
44.55
44.7
44.58
44.3
43.88
43.24
42.33
41.12
39.58
37.66
35.32
32.46
28.99
24.81
19.84
14.09
7.66
0.76
-6.36
-13.46
-20.37
-27.09
-33.73
-40.49
-47.63
-55.36
-63.82
-72.86
-81.93
-90.0
-95.73
-97.81
-95.38
-88.35
-77.42
-63.79
-48.71
-33.2
-17.86
-3.02
11.08
24.11
35.71
45.51
53.26
58.93
62.67
64.75
65.5
65.26
64.28
62.79
61.0
59.09
57.25
55.56
53.98
52.36
50.47
48.16
45.46
42.56
39.76
37.25
34.96
32.69
30.08
26.92
23.18
18.98
14.57
10.09
5.53
0.73
-4.51
-10.42
-17.18
-24.8
-33.03
-41.22
-48.32
-53.02
-54.22
-51.34
-44.66
-35.17
-24.22
-12.99
-2.12
8.32
18.6
28.91
39.12
48.74
57.12
63.78
68.49
71.34
72.56
72.35
70.89
68.27
64.59
60.1
55.16
50.2
45.65
41.67
38.19
34.83
31.11
26.61
21.17
14.92
8.21
1.47
-5.04
-11.3
-17.51
-24.02
-31.19
-39.23
-48.11
-57.4
-66.25
-73.43
-77.65
-77.87
-73.75
-65.76
-55.03
-42.97
-30.79
-19.18
-8.34
1.81
11.33
20.06
27.62
33.56
37.65
39.92
40.74
40.6
39.98
39.19
38.3
37.18
35.72
33.85
31.67
29.42
27.33
25.48
23.75
21.8
19.23
15.74
11.25
6.01
0.43
-5.07
-10.2
-14.99
-19.66
-24.55
-30.0
-36.28
-43.53
-51.82
-60.9
-70.12
-78.37
-84.18
-86.16
-83.48
-76.2
-65.27
-52.2
-38.48
-25.17
-12.72
-1.15
9.66
19.7
28.73
36.35
42.23
46.2
48.38
49.06
48.65
47.54
45.99
44.14
42.01
39.63
37.04
34.39
31.81
29.37
26.91
24.16
20.75
16.44
11.17
5.14
-1.3
-7.78
-14.04
-20.03
-25.84
-31.7
-37.87
-44.59
-52.11
-60.61
-70.15
-80.5
-90.94
-100.27
-106.93
-109.51
-107.12
-99.84
-88.63
-75.06
-60.71
-46.75
-33.8
-22.01
-11.39
-2.0
5.96
12.24
16.71
19.51
20.93
21.35
20.98
19.87
17.91
15.03
11.41
7.49
3.9
1.14
-0.55
-1.38
-1.82
-2.43
-3.63
-5.5
-7.8
-10.02
-11.46
-11.46
-9.6
-5.94
-1.25
3.06
5.31
4.1
-1.1
-9.75
-20.24
-30.51
-38.54
-42.94
-43.11
-39.21
-31.96
-22.41
-11.71
-0.98
8.87
17.21
23.81
28.77
32.45
35.19
37.23
38.46
38.53
36.96
33.38
27.82
20.86
13.55
7.12
2.54
0.16
-0.49
-0.46
-1.02
-3.1
-7.02
-12.34
-18.16
-23.4
-27.22
-29.17
-29.32
-28.19
-26.68
-25.88
-26.82
-30.12
-35.65
-42.26
-47.92
-50.22
-47.19
-38.11
-23.9
-6.81
10.46
25.77
38.21
48.08
56.34
63.77
70.53
76.19
80.16
82.16
82.39
81.27
79.18
76.24
72.39
67.72
62.65
57.89
54.09
51.53
49.87
48.28
45.84
41.93
36.51
30.04
23.25
16.77
10.87
5.44
0.03
-5.97
-13.18
-22.04
-32.59
-44.2
-55.5
-64.57
-69.46
-68.8
-62.38
-51.12
-36.79
-21.38
-6.45
7.08
18.91
29.1
37.73
44.81
50.27
54.05
56.22
56.96
56.5
55.1
52.91
49.96
46.23
41.77
36.72
31.4
26.14
21.2
16.53
11.83
6.62
0.48
-6.8
-15.09
-24.04
-33.15
-42.0
-50.33
-58.01
-65.11
-71.83
-78.48
-85.38
-92.71
-100.31
-107.48
-113.04
-115.59
-113.96
-107.62
-96.96
-83.08
-67.44
-51.34
-35.59
-20.45
-5.91
8.0
21.01
32.61
42.26
49.59
54.58
57.56
59.07
59.73
60.0
60.11
60.04
59.55
58.41
56.5
53.88
50.8
47.51
44.17
40.67
36.79
32.27
26.97
20.97
14.5
7.91
1.47
-4.68
-10.59
-16.44
-22.5
-29.05
-36.33
-44.46
-53.25
-62.16
-70.16
-75.97
-78.29
-76.27
-69.79
-59.54
-46.77
-32.88
-19.01
-5.86
6.34
17.57
27.76
36.7
44.13
49.83
53.8
56.23
57.47
57.85
57.61
56.88
55.72
54.18
52.35
50.33
48.25
46.17
44.11
42.0
39.71
37.02
33.73
29.68
24.85
19.42
13.71
8.08
2.78
-2.16
-6.95
-11.92
-17.5
-23.96
-31.36
-39.41
-47.42
-54.35
-58.99
-60.31
-57.73
-51.35
-41.86
-30.39
-18.13
-6.02
5.34
15.68
24.82
32.64
38.97
43.69
46.78
48.39
48.77
48.25
47.09
45.46
43.5
41.26
38.88
36.51
34.25
32.15
30.1
27.9
25.29
22.08
18.25
13.9
9.25
4.49
-0.21
-4.84
-9.48
-14.34
-19.73
-25.97
-33.12
-40.82
-48.11
-53.66
-56.07
-54.37
-48.42
-38.92
-27.13
-14.44
-1.99
9.47
19.55
27.99
34.58
39.2
41.93
43.08
43.16
42.66
41.89
40.87
39.38
37.1
33.84
29.61
24.66
19.45
14.46
10.07
6.43
3.41
0.68
-2.19
-5.53
-9.43
-13.73
-18.13
-22.31
-26.14
-29.65
-33.07
-36.7
-40.84
-45.71
-51.42
-57.9
-64.71
-71.04
-75.78
-77.8
-76.23
-70.81
-61.95
-50.63
-38.07
-25.28
-12.99
-1.45
9.29
19.26
28.35
36.29
42.69
47.28
49.97
50.94
50.6
49.46
47.95
46.35
44.71
42.99
41.06
38.86
36.35
33.57
30.62
27.61
24.63
21.75
18.92
16.0
12.76
9.01
4.66
-0.26
-5.63
-11.25
-16.96
-22.66
-28.39
-34.28
-40.58
-47.57
-55.26
-63.23
-70.54
-75.86
-77.89
-75.86
-69.79
-60.51
-49.27
-37.28
-25.41
-14.07
-3.46
6.36
15.23
22.98
29.41
34.5
38.26
40.85
42.39
43.04
42.94
42.2
40.94
39.24
37.27
35.26
33.44
31.95
30.75
29.6
28.14
26.12
23.45
20.22
16.63
12.83
8.83
4.55
-0.09
-5.05
-10.17
-15.21
-20.02
-24.62
-29.18
-34.0
-39.42
-45.64
-52.67
-60.19
-67.45
-73.39
-76.83
-76.78
-72.81
-65.15
-54.69
-42.64
-30.21
-18.29
-7.42
2.27
10.85
18.4
24.96
30.45
34.74
37.69
39.36
39.92
39.71
39.1
38.32
37.47
36.48
35.27
33.81
32.24
30.7
29.26
27.85
26.19
23.96
20.95
17.12
12.65
7.84
2.98
-1.77
-6.4
-11.04
-15.83
-20.92
-26.41
-32.48
-39.31
-47.0
-55.28
-63.41
-70.18
-74.22
-74.48
-70.61
-63.1
-53.02
-41.63
-30.01
-18.83
-8.44
0.98
9.25
16.19
21.63
25.58
28.18
29.67
30.3
30.24
29.57
28.32
26.55
24.38
22.03
19.78
17.83
16.27
14.93
13.46
11.42
8.46
4.5
-0.26
-5.41
-10.52
-15.33
-19.88
-24.53
-29.83
-36.28
-44.13
-53.13
-62.46
-70.87
-76.93
-79.48
-77.93
-72.41
-63.71
-52.92
-41.16
-29.26
-17.74
-6.85
3.21
12.27
20.1
26.51
31.35
34.65
36.54
37.24
37.03
36.15
34.78
33.07
31.09
29.02
27.05
25.4
24.21
23.42
22.74
21.72
19.94
17.18
13.47
9.09
4.4
-0.27
-4.73
-8.93
-12.96
-17.04
-21.61
-27.22
-34.45
-43.52
-53.93
-64.35
-72.79
-77.16
-75.95
-68.84
-56.72
-41.36
-24.78
-8.73
5.65
17.8
27.46
34.51
38.93
40.9
40.92
39.84
38.65
38.19
38.83
40.38
42.13
43.15
42.67
40.38
36.53
31.85
27.23
23.48
20.97
19.51
18.42
16.67
13.2
7.31
-1.15
-11.61
-22.97
-33.9
-43.25
-50.43
-55.52
-59.23
-62.7
-67.15
-73.49
-81.83
-91.08
-98.9
-102.21
-98.21
-85.54
-64.99
-39.49
-13.18
9.95
27.3
38.23
43.86
46.34
47.96
50.49
54.87
61.24
69.03
77.19
84.44
89.52
91.42
89.58
83.97
75.14
64.11
52.06
40.05
28.77
18.38
8.64
-0.86
-10.5
-20.35
-30.19
-39.54
-47.75
-54.27
-58.75
-61.21
-62.08
-62.18
-62.48
-63.8
-66.5
-70.2
-73.79
-75.65
-74.25
-68.64
-58.78
-45.51
-30.25
-14.44
0.78
14.81
27.5
38.85
48.98
57.91
65.67
72.29
77.85
82.39
85.85
88.09
88.92
88.28
86.35
83.54
80.38
77.3
74.43
71.52
68.1
63.69
58.03
51.19
43.52
35.48
27.42
19.56
11.88
4.25
-3.55
-11.78
-20.56
-29.74
-38.79
-46.71
-52.25
-54.24
-51.96
-45.42
-35.38
-23.1
-10.03
2.65
14.17
24.19
32.62
39.42
44.49
47.67
48.87
48.22
46.05
42.88
39.26
35.61
32.12
28.81
25.63
22.53
19.56
16.81
14.36
12.12
9.92
7.48
4.6
1.22
-2.58
-6.54
-10.41
-14.0
-17.28
-20.39
-23.58
-27.21
-31.64
-37.11
-43.58
-50.64
-57.48
-63.0
-66.1
-66.01
-62.53
-56.08
-47.58
-38.12
-28.7
-19.98
-12.28
-5.6
0.14
5.04
9.1
12.23
14.33
15.39
15.5
14.92
13.98
12.97
12.14
11.63
11.51
11.83
12.59
13.82
15.47
17.48
19.71
22.0
24.21
26.2
27.87
29.1
29.81
30.0
29.73
29.1
28.26
27.28
26.15
24.76
22.93
20.44
17.1
12.85
7.85
2.64
-1.9
-4.72
-4.84
-1.71
4.58
13.33
23.4
33.57
42.79
50.38
56.02
59.68
61.48
61.6
60.26
57.67
54.06
49.63
44.61
39.26
33.88
28.72
23.99
19.73
15.82
12.05
8.18
4.1
-0.14
-4.37
-8.39
-12.15
-15.7
-19.17
-22.63
-26.03
-29.16
-31.8
-33.83
-35.33
-36.56
-37.89
-39.65
-42.12
-45.43
-49.55
-54.18
-58.71
-62.2
-63.65
-62.2
-57.47
-49.78
-40.02
-29.46
-19.34
-10.52
-3.4
2.09
6.2
9.12
10.88
11.35
10.47
8.44
5.75
3.11
1.12
0.07
-0.25
-0.42
-1.06
-2.64
-5.2
-8.5
-12.1
-15.57
-18.58
-20.97
-22.7
-23.95
-25.01
-26.27
-28.07
-30.49
-33.41
-36.49
-39.47
-42.29
-45.11
-48.2
-51.63
-55.04
-57.5
-57.56
-53.7
-44.77
-30.59
-12.22
8.11
27.54
43.37
53.89
58.7
58.58
54.96
49.31
42.85
36.45
30.76
26.3
23.35
21.76
21.01
20.29
18.96
16.83
14.27
12.05
10.99
11.6
13.88
17.27
20.85
23.56
24.48
23.12
19.5
14.14
7.84
1.37
-4.75
-10.27
-15.12
-19.2
-22.25
-23.75
-23.16
-19.95
-13.85
-4.86
6.7
20.31
35.25
50.7
65.87
80.14
93.09
104.5
114.29
122.37
128.63
132.93
135.2
135.5
133.98
130.8
125.99
119.39
110.73
99.72
86.25
70.47
52.77
33.72
13.9
-6.18
-26.12
-45.65
-64.57
-82.81
-100.47
-117.78
-135.08
-152.53
-169.86
-186.2
-200.09
-209.85
-214.09
-212.18
-204.4
-191.73
-175.41
-156.43
-135.34
-112.38
-87.85
-62.47
-37.49
-14.44
5.33
21.12
33.04
41.83
48.36
53.25
56.56
57.91
56.86
53.32
47.8
41.33
35.07
29.85
25.77
22.26
18.33
13.14
6.36
-1.65
-10.12
-18.2
-25.3
-31.26
-36.24
-40.59
-44.66
-48.73
-52.94
-57.23
-61.22
-64.21
-65.37
-63.88
-59.29
-51.66
-41.52
-29.72
-17.21
-4.89
6.51
16.38
24.3
30.06
33.59
35.04
34.67
32.86
30.1
26.91
23.79
21.11
18.99
17.36
15.97
14.52
12.76
10.55
7.83
4.61
0.95
-3.05
-7.27
-11.57
-15.86
-20.07
-24.24
-28.42
-32.63
-36.73
-40.33
-42.86
-43.61
-42.03
-37.84
-31.22
-22.76
-13.31
-3.77
5.18
13.13
19.9
25.52
29.97
33.22
35.18
35.8
35.13
33.41
31.02
28.45
26.12
24.37
23.28
22.74
22.46
22.16
21.59
20.6
19.1
17.13
14.71
11.96
9.05
6.2
3.61
1.26
-1.11
-4.0
-7.92
-13.02
-18.88
-24.48
-28.48
-29.63
-27.25
-21.45
-13.05
-3.23
6.81
16.18
24.37
31.21
36.72
40.94
43.94
45.81
46.69
46.76
46.2
45.11
43.48
41.24
38.37
34.98
31.33
27.76
24.52
21.68
19.04
16.23
12.84
8.64
3.61
-2.0
-7.82
-13.51
-18.88
-23.93
-28.79
-33.66
-38.74
-44.14
-49.79
-55.29
-59.96
-62.9
-63.29
-60.56
-54.72
-46.3
-36.21
-25.4
-14.61
-4.26
5.52
14.66
23.11
30.66
37.06
42.11
45.65
47.68
48.33
47.84
46.49
44.61
42.49
40.34
38.3
36.44
34.77
33.27
31.85
30.38
28.61
26.29
23.14
19.09
14.22
8.87
3.46
-1.59
-6.09
-10.12
-13.98
-18.14
-23.01
-28.83
-35.5
-42.58
-49.23
-54.42
-57.15
-56.74
-53.04
-46.51
-38.09
-28.9
-19.95
-11.92
-5.17
0.27
4.45
7.48
9.42
10.34
10.35
9.59
8.24
6.48
4.5
2.45
0.51
-1.17
-2.49
-3.44
-4.14
-4.81
-5.69
-6.95
-8.63
-10.69
-12.97
-15.32
-17.61
-19.77
-21.85
-24.02
-26.56
-29.79
-33.91
-38.84
-44.12
-48.84
-51.88
-52.26
-49.39
-43.33
-34.73
-24.65
-14.17
-4.19
4.79
12.58
19.15
24.48
28.49
31.08
32.21
32.04
30.89
29.21
27.4
25.67
24.02
22.31
20.39
18.28
16.11
14.12
12.44
11.01
9.54
7.68
5.11
1.74
-2.29
-6.67
-11.05
-15.2
-18.98
-22.46
-25.8
-29.3
-33.33
-38.23
-44.1
-50.58
-56.83
-61.58
-63.52
-61.69
-55.85
-46.61
-35.15
-22.86
-10.88
0.09
9.82
18.34
25.73
31.97
36.94
40.51
42.63
43.39
43.06
41.96
40.44
38.78
37.13
35.5
33.86
32.16
30.41
28.67
26.99
25.32
23.55
21.5
19.01
16.01
12.55
8.71
4.59
0.24
-4.27
-8.87
-13.45
-17.92
-22.31
-26.82
-31.77
-37.4
-43.72
-50.22
-55.94
-59.65
-60.14
-56.69
-49.2
-38.31
-25.15
-11.02
2.93
15.88
27.42
37.46
46.03
53.26
59.22
63.95
67.49
69.9
71.34
72.06
72.49
73.19
74.82
77.99
83.07
90.03
98.3
106.8
114.05
118.43
118.49
113.31
102.67
87.21
68.31
47.81
27.65
9.46
-5.61
-17.08
-25.12
-30.5
-34.47
-38.46
-43.87
-51.64
-61.99
-74.3
-87.18
-98.83
-107.38
-111.42
-110.25
-104.02
-93.68
-80.68
-66.68
-53.12
-41.03
-30.98
-23.11
-17.29
-13.31
-10.9
-9.77
-9.63
-10.18
-11.17
-12.41
-13.81
-15.3
-16.86
-18.42
-19.86
-21.05
-21.94
-22.6
-23.27
-24.3
-26.04
-28.69
-32.27
-36.51
-40.99
-45.28
-49.08
-52.32
-55.17
-57.99
-61.14
-64.83
-68.98
-73.09
-76.3
-77.58
-75.99
-70.97
-62.51
-51.22
-38.09
-24.22
-10.47
2.57
14.6
25.39
34.66
42.08
47.4
50.66
52.24
52.87
53.32
54.17
55.49
56.96
58.05
58.32
57.62
56.18
54.52
53.16
52.3
51.78
51.17
50.05
48.17
45.55
42.31
38.92
35.64
32.43
28.91
24.58
19.0
11.98
3.54
-6.03
-15.4
-22.89
-26.76
-25.79
-19.75
-9.39
3.58
16.96
28.66
38.3
46.42
54.04
61.75
69.48
76.68
82.78
87.47
91.06
95.68
103.68
116.79
135.1
157.03
180.01
201.41
219.33
224.7
211.76
179.41
132.58
79.88
29.74
-11.85
-41.51
-58.39
-64.24
-61.22
-53.68
-45.76
-40.54
-39.28
-41.49
-45.84
-51.34
-57.9
-64.95
-71.47
-76.0
-77.43
-75.4
-70.51
-64.1
-57.82
-52.98
-49.39
-46.02
-41.45
-34.66
-25.3
-13.66
-0.49
13.08
25.64
36.13
43.8
48.43
50.32
50.11
48.46
45.81
42.2
37.39
31.41
24.61
17.67
11.2
5.41
-0.08
-5.99
-13.1
-21.73
-31.68
-42.28
-52.74
-62.39
-70.82
-77.87
-83.41
-87.26
-89.13
-88.8
-86.28
-82.01
-76.87
-71.83
-67.58
-63.99
-59.97
-53.76
-43.5
-28.04
-7.37
17.31
43.97
70.33
94.37
114.55
129.89
139.84
144.28
143.54
138.35
129.72
118.68
106.03
92.13
77.01
60.77
43.88
27.55
13.54
3.71
-0.65
0.65
6.6
15.49
25.57
35.74
45.79
56.05
66.91
78.24
89.25
98.58
104.62
105.83
100.98
89.4
71.24
47.77
21.29
-5.13
-28.51
-46.71
-59.06
-66.28
-69.96
-71.78
-72.87
-73.68
-74.16
-74.19
-73.89
-73.61
-73.77
-74.59
-76.05
-77.99
-80.27
-82.93
-86.09
-89.83
-93.96
-97.92
-100.93
-102.14
-101.04
-97.56
-92.15
-85.62
-78.85
-72.5
-66.87
-61.8
-56.92
-51.81
-46.21
-40.14
-33.86
-27.72
-21.98
-16.66
-11.46
-5.79
1.04
9.53
19.67
30.73
41.33
49.61
53.84
52.95
46.9
36.73
24.24
11.43
-0.16
-9.7
-17.04
-22.39
-25.92
-27.61
-27.39
-25.5
-22.7
-20.24
-19.45
-21.2
-25.59
-31.94
-39.25
-46.7
-53.99
-61.31
-69.0
-77.15
-85.38
-92.86
-98.56
-101.68
-101.77
-98.93
-93.59
-86.4
-78.04
-69.11
-60.05
-50.9
-41.29
-30.28
-16.62
0.84
22.52
47.64
74.1
98.93
119.14
132.78
139.52
140.7
138.62
135.68
133.51
132.75
133.23
134.53
136.45
139.2
143.19
148.59
154.95
160.98
164.76
164.1
157.13
142.9
121.75
95.25
65.78
35.6
6.11
-22.66
-51.7
-82.24
-114.62
-147.57
-178.38
-203.85
-221.64
-231.35
-234.63
-234.55
-234.32
-236.21
-240.88
-247.42
-253.75
-257.31
-255.78
-247.62
-232.49
-211.27
-185.91
-158.81
-132.24
-107.83
-86.45
-68.42
-53.75
-42.41
-34.25
-28.93
-25.84
-24.2
-23.26
-22.53
-21.84
-21.31
-21.16
-21.52
-22.3
-23.17
-23.67
-23.32
-21.86
-19.44
-16.6
-14.24
-13.28
-14.29
-17.3
-21.77
-26.78
-31.5
-35.45
-38.67
-41.6
-44.88
-49.1
-54.63
-61.61
-69.81
-78.64
-87.08
-93.79
-97.38
-96.73
-91.35
-81.47
-68.03
-52.33
-35.8
-19.64
-4.71
8.41
19.33
27.74
33.41
36.25
36.5
34.66
31.57
28.05
24.69
21.62
18.55
14.92
10.2
4.2
-2.89
-10.59
-18.29
-25.56
-32.26
-38.49
-44.39
-49.9
-54.58
-57.76
-58.85
-57.66
-54.82
-51.61
-49.55
-49.69
-51.99
-55.12
-56.8
-54.5
-46.25
-31.25
-9.99
15.91
44.18
72.36
98.29
120.26
137.17
148.54
154.41
155.33
152.28
146.61
139.86
133.64
129.28
127.64
128.82
132.22
136.69
140.93
143.84
144.88
144.03
141.72
138.46
134.57
129.94
124.12
116.54
106.88
95.29
82.47
69.46
57.33
46.8
38.0
30.37
22.88
14.39
4.16
-7.72
-20.11
-31.09
-38.47
-40.49
-36.44
-26.79
-13.01
2.91
19.09
34.14
47.29
58.29
67.18
74.12
79.29
82.79
84.75
85.36
84.9
83.8
82.51
81.39
80.63
80.15
79.75
79.25
78.65
78.09
77.78
77.73
77.65
76.97
75.05
71.59
66.71
61.07
55.55
50.93
47.58
45.39
43.81
42.11
39.59
35.75
30.36
23.5
15.67
7.86
1.57
-1.41
0.44
7.76
19.72
34.1
47.91
58.4
64.04
64.95
62.54
58.59
54.36
50.03
44.91
38.02
28.83
17.59
5.24
-7.02
-18.23
-27.88
-35.79
-41.9
-46.04
-47.98
-47.62
-45.3
-41.87
-38.57
-36.51
-36.29
-37.69
-39.85
-41.58
-41.92
-40.49
-37.59
-34.0
-30.69
-28.44
-27.65
-28.22
-29.69
-31.38
-32.72
-33.42
-33.58
-33.73
-34.63
-37.02
-41.22
-46.94
-53.06
-57.88
-59.52
-56.53
-48.41
-35.79
-20.26
-3.86
11.57
24.85
35.57
43.93
50.36
55.18
58.44
60.02
59.79
57.9
54.85
51.36
48.23
45.98
44.77
44.36
44.36
44.4
44.35
44.24
44.19
44.17
43.94
43.11
41.32
38.37
34.29
29.35
23.85
18.09
12.32
6.76
1.62
-2.87
-6.65
-9.84
-12.83
-16.13
-20.08
-24.6
-28.95
-31.88
-31.96
-28.06
-19.76
-7.49
7.62
24.07
40.39
55.45
68.56
79.38
87.88
94.18
98.52
101.21
102.63
103.2
103.35
103.42
103.66
104.15
104.83
105.53
105.91
105.5
103.75
100.08
94.1
85.73
75.3
63.48
51.07
38.74
26.83
15.33
4.02
-7.33
-18.84
-30.4
-41.76
-52.54
-62.42
-71.22
-79.01
-86.16
-93.29
-101.07
-109.87
-119.5
-129.06
-137.04
-141.72
-141.66
-136.13
-125.38
-110.59
-93.56
-76.33
-60.75
-48.22
-39.51
-34.81
-33.77
-35.87
-40.59
-47.6
-56.78
-67.91
-80.4
-92.96
-103.74
-110.88
-113.32
-111.33
-106.66
-101.85
-99.35
-100.65
-106.08
-115.08
-126.55
-139.14
-151.18
-160.64
-165.32
-163.49
-154.51
-139.25
-119.75
-98.54
-77.74
-58.71
-42.07
-28.07
-16.96
-8.97
-4.06
-1.56
-0.13
2.1
7.07
16.17
29.84
47.2
66.25
84.3
98.75
107.83
111.1
109.45
104.72
98.93
93.62
89.54
86.56
84.06
81.35
78.05
74.16
69.88
65.41
60.73
55.72
50.29
44.58
38.96
33.82
29.43
25.72
22.4
19.12
15.71
12.31
9.37
7.42
6.85
7.8
10.05
13.09
16.29
18.93
20.36
19.94
17.06
11.19
2.09
-9.99
-23.98
-37.99
-49.56
-56.32
-56.64
-50.21
-38.12
-22.48
-5.73
10.1
23.76
34.84
43.48
49.87
54.07
55.93
55.32
52.46
47.99
42.87
38.01
33.87
30.28
26.47
21.5
14.73
6.19
-3.44
-13.19
-22.22
-30.24
-37.46
-44.32
-51.12
-57.67
-63.33
-67.28
-68.97
-68.4
-66.29
-63.81
-62.23
-62.5
-65.0
-69.4
-74.85
-80.15
-84.03
-85.52
-84.02
-79.48
-72.38
-63.49
-53.66
-43.66
-33.96
-24.8
-16.23
-8.27
-1.03
5.29
10.42
14.27
16.99
19.03
20.95
23.19
25.78
28.27
29.84
29.55
26.76
21.28
13.49
4.29
-4.99
-12.63
-16.8
-15.85
-8.76
4.54
23.13
45.42
69.58
93.8
116.39
135.51
149.15
155.23
152.24
139.75
118.79
91.76
61.83
32.19
5.4
-16.93
-34.11
-46.17
-53.59
-57.05
-57.34
-55.33
-51.99
-48.36
-45.46
-44.07
-44.48
-46.37
-48.87
-50.89
-51.53
-50.42
-47.9
-44.89
-42.56
-41.88
-43.12
-45.4
-46.55
-43.46
-32.98
-13.13
15.69
50.21
84.72
112.59
128.22
128.83
115.15
90.86
61.07
30.59
2.53
-21.89
-42.89
-61.04
-76.43
-88.43
-95.95
-98.17
-95.06
-87.51
-76.99
-64.95
-52.37
-39.64
-26.75
-13.75
-1.08
10.39
19.63
25.81
28.71
28.85
27.3
25.25
23.65
22.94
23.02
23.56
24.23
24.97
25.94
27.4
29.4
31.72
33.73
34.62
33.65
30.4
24.88
17.6
9.42
1.37
-5.64
-11.09
-14.95
-17.67
-20.04
-22.87
-26.84
-32.3
-39.22
-47.17
-55.34
-62.53
-67.37
-68.63
-65.59
-58.32
-47.71
-35.24
-22.45
-10.51
-0.0
9.0
16.59
22.74
27.18
29.54
29.65
27.7
24.32
20.32
16.52
13.43
11.32
10.21
10.05
10.77
12.25
14.23
16.3
17.96
18.74
18.39
16.85
14.24
10.82
6.84
2.62
-1.46
-4.93
-7.37
-8.48
-8.31
-7.28
-6.12
-5.69
-6.66
-9.26
-13.09
-17.14
-19.97
-20.21
-16.9
-9.82
0.41
12.55
25.05
36.4
45.36
51.12
53.27
51.91
47.57
41.23
34.15
27.6
22.61
19.74
19.07
20.28
22.8
26.02
29.32
32.19
34.18
34.96
34.38
32.43
29.29
25.24
20.63
15.81
11.1
6.76
2.9
-0.47
-3.59
-6.74
-10.22
-14.12
-18.25
-22.21
-25.57
-28.01
-29.43
-29.85
-29.23
-27.22
-23.25
-16.72
-7.36
4.48
17.75
31.02
42.81
52.07
58.44
62.25
64.28
65.44
66.28
66.8
66.38
64.11
59.33
52.14
43.65
35.9
31.25
31.62
37.6
48.05
60.1
69.79
73.06
66.93
50.43
25.2
-4.67
-33.45
-55.21
-65.33
-61.74
-45.3
-19.45
10.92
40.6
65.17
81.58
88.54
86.49
77.49
64.84
52.39
43.63
40.77
44.16
52.37
62.75
72.4
79.05
81.53
79.92
75.22
68.91
62.39
56.62
51.91
47.98
44.18
39.89
34.77
28.88
22.61
16.48
10.9
5.91
1.08
-4.45
-11.81
-21.93
-35.11
-50.63
-66.83
-81.66
-93.41
-101.43
-106.35
-109.65
-112.84
-116.66
-120.7
-123.72
-124.31
-121.54
-115.36
-106.43
-95.85
-84.72
-73.94
-64.22
-56.07
-49.86
-45.8
-43.83
-43.58
-44.44
-45.7
-46.73
-47.09
-46.7
-45.71
-44.49
-43.35
-42.47
-41.85
-41.36
-40.86
-40.34
-39.86
-39.52
-39.38
-39.45
-39.7
-40.11
-40.7
-41.55
-42.78
-44.56
-47.14
-50.65
-54.98
-59.57
-63.37
-65.06
-63.47
-57.99
-48.83
-36.95
-23.71
-10.51
1.61
12.07
20.69
27.55
32.86
36.86
39.8
41.91
43.42
44.53
45.42
46.19
46.9
47.57
48.22
48.82
49.3
49.51
49.24
48.22
46.18
42.97
38.6
33.24
27.26
21.08
15.16
9.77
5.01
0.67
-3.72
-8.72
-14.8
-22.05
-30.07
-37.92
-44.37
-48.2
-48.55
-45.16
-38.36
-28.95
-17.93
-6.25
5.27
15.96
25.28
32.8
38.22
41.49
42.83
42.72
41.73
40.33
38.77
37.08
35.17
32.98
30.64
28.39
26.5
25.07
23.91
22.6
20.6
17.53
13.28
8.09
2.4
-3.25
-8.47
-13.1
-17.23
-21.23
-25.61
-30.9
-37.41
-45.02
-53.07
-60.35
-65.45
-67.17
-64.87
-58.74
-49.71
-39.08
-28.19
-18.03
-9.13
-1.61
4.58
9.51
13.16
15.46
16.4
16.16
15.05
13.52
11.94
10.63
9.7
9.14
8.83
8.65
8.43
7.97
7.1
5.68
3.65
1.06
-1.96
-5.26
-8.71
-12.28
-16.02
-20.11
-24.74
-30.04
-35.87
-41.76
-46.84
-50.02
-50.3
-47.07
-40.34
-30.79
-19.55
-7.83
3.35
13.39
22.04
29.27
35.09
39.49
42.44
43.99
44.34
43.85
42.86
41.66
40.31
38.74
36.86
34.66
32.25
29.83
27.6
25.63
23.82
21.98
19.84
17.15
13.76
9.62
4.84
-0.4
-5.84
-11.19
-16.24
-20.84
-25.01
-28.96
-33.05
-37.74
-43.42
-50.16
-57.54
-64.65
-70.22
-72.99
-72.11
-67.4
-59.42
-49.2
-38.02
-26.98
-16.89
-8.18
-0.98
4.71
8.97
11.8
13.16
13.01
11.41
8.54
4.76
0.47
-3.98
-8.37
-12.63
-16.74
-20.75
-24.65
-28.38
-31.73
-34.22
-35.12
-33.56
-28.9
-21.14
-11.09
-0.17
10.02
18.33
24.33
28.34
31.0
32.86
34.13
34.67
34.25
32.68
29.93
26.06
21.14
15.28
8.74
2.12
-3.68
-7.55
-8.55
-6.18
-0.65
7.27
16.42
25.65
34.08
41.24
46.99
51.4
54.58
56.61
57.62
57.71
57.05
55.81
54.13
52.1
49.83
47.45
45.11
42.95
41.1
39.58
38.33
37.23
36.09
34.72
32.9
30.46
27.38
23.83
20.11
16.62
13.59
11.07
8.84
6.52
3.79
0.46
-3.41
-7.56
-11.64
-15.36
-18.65
-21.64
-24.7
-28.23
-32.56
-37.75
-43.48
-49.02
-53.43
-55.69
-55.04
-51.15
-44.21
-34.92
-24.19
-13.03
-2.27
7.48
15.86
22.68
27.87
31.43
33.49
34.19
33.74
32.32
30.19
27.61
24.91
22.37
20.18
18.38
16.84
15.39
13.95
12.49
11.06
9.69
8.24
6.47
4.11
1.03
-2.73
-6.9
-11.14
-15.17
-18.84
-22.16
-25.24
-28.27
-31.41
-34.88
-38.92
-43.68
-49.13
-54.87
-60.09
-63.71
-64.68
-62.33
-56.57
-47.93
-37.39
-26.03
-14.79
-4.32
4.96
12.81
19.05
23.6
26.45
27.76
27.85
27.16
26.11
25.05
24.14
23.46
22.96
22.59
22.29
22.02
21.74
21.36
20.8
19.99
18.83
17.28
15.27
12.76
9.76
6.4
2.9
-0.48
-3.52
-6.2
-8.71
-11.41
-14.72
-19.03
-24.59
-31.42
-39.29
-47.64
-55.5
-61.67
-64.91
-64.29
-59.5
