30.22
29.26
28.46
27.79
27.12
26.29
25.1
23.43
21.3
18.78
16.02
13.13
10.19
7.17
3.98
0.52
-3.27
-7.34
-11.55
-15.7
-19.63
-23.27
-26.73
-30.3
-34.33
-39.16
-44.89
-51.27
-57.62
-62.9
-65.97
-65.92
-62.38
-55.6
-46.43
-35.97
-25.29
-15.14
-5.92
2.28
9.52
15.88
21.34
25.84
29.3
31.73
33.18
33.82
33.84
33.43
32.7
31.73
30.59
29.42
28.36
27.59
27.11
26.78
26.33
25.48
24.03
22.0
19.57
17.0
14.51
12.16
9.84
7.35
4.41
0.92
-3.1
-7.42
-11.75
-15.81
-19.48
-22.82
-26.05
-29.52
-33.56
-38.44
-44.25
-50.8
-57.47
-63.27
-66.98
-67.51
-64.28
-57.44
-47.84
-36.74
-25.41
-14.8
-5.41
2.65
9.51
15.38
20.41
24.68
28.2
30.91
32.78
33.78
33.95
33.45
32.51
31.34
30.13
28.99
27.99
27.14
26.4
25.66
24.75
23.48
21.71
19.44
16.76
13.83
10.79
7.73
4.65
1.46
-1.88
-5.4
-9.11
-12.92
-16.76
-20.54
-24.27
-28.07
-32.23
-37.06
-42.72
-48.89
-54.75
-59.1
-60.69
-58.81
-53.48
-45.57
-36.37
-27.16
-18.75
-11.4
-4.96
0.84
6.1
10.7
14.4
17.05
18.66
19.42
19.63
19.49
19.14
18.56
17.75
16.69
15.49
14.31
13.28
12.49
11.81
11.03
9.79
7.82
5.0
1.46
-2.47
-6.42
-10.17
-13.68
-17.16
-20.91
-25.23
-30.33
-36.26
-42.88
-49.77
-56.25
-61.37
-64.14
-63.86
-60.41
-54.26
-46.39
-37.79
-29.17
-20.77
-12.4
-3.84
4.95
13.66
21.69
28.43
33.45
36.72
38.49
39.22
39.36
39.25
39.06
38.81
38.51
38.19
37.89
37.68
37.52
37.17
36.18
34.06
30.39
25.12
18.61
11.52
4.57
-1.75
-7.37
-12.58
-17.88
-23.73
-30.39
-37.86
-45.92
-54.1
-61.7
-67.79
-71.34
-71.52
-68.02
-61.18
-51.97
-41.62
-31.26
-21.53
-12.59
-4.21
3.85
11.65
18.96
25.38
30.49
34.07
36.19
37.13
37.35
37.31
37.38
37.73
38.29
38.91
39.35
39.45
39.14
38.41
37.2
35.4
32.82
29.33
24.96
19.93
14.66
9.58
5.0
1.02
-2.54
-6.05
-9.94
-14.62
-20.41
-27.47
-35.74
-44.79
-53.76
-61.46
-66.55
-68.01
-65.37
-58.95
-49.66
-38.67
-27.09
-15.67
-4.79
5.4
14.86
23.51
31.2
37.76
43.03
46.94
49.47
50.76
51.01
50.51
49.5
48.17
46.61
44.93
43.28
41.86
40.84
40.3
40.09
39.86
39.12
37.45
34.59
30.53
25.49
19.83
13.86
7.83
1.85
-4.01
-9.79
-15.56
-21.49
-27.84
-34.81
-42.32
-49.87
-56.48
-60.91
-62.09
-59.51
-53.43
-44.74
-34.64
-24.2
-14.14
-4.79
3.77
11.47
18.17
23.65
27.75
30.37
31.6
31.65
30.81
29.39
27.68
25.93
24.32
23.0
22.06
21.52
21.27
21.07
20.54
19.28
17.0
13.62
9.36
4.6
-0.19
-4.68
-8.76
-12.63
-16.65
-21.29
-26.93
-33.6
-40.87
-47.84
-53.28
-55.99
-55.2
-50.82
-43.47
-34.24
-24.28
-14.47
-5.28
3.21
11.07
18.38
25.01
30.73
35.3
38.57
40.57
41.51
41.69
41.37
40.68
39.62
38.11
36.12
33.8
31.38
29.14
27.21
25.53
23.83
21.77
19.07
15.64
11.56
7.05
2.38
-2.23
-6.66
-10.89
-14.99
-19.17
-23.66
-28.77
-34.75
-41.69
-49.34
-57.0
-63.65
-68.09
-69.33
-66.88
-60.93
-52.24
-41.88
-30.88
-19.99
-9.62
0.1
9.12
17.35
24.66
30.88
35.91
39.71
42.33
43.83
44.33
43.95
42.94
41.58
40.18
38.98
38.06
37.33
36.55
35.47
33.89
31.75
29.14
26.19
23.08
19.91
16.64
13.15
9.25
4.8
-0.19
-5.58
-11.04
-16.31
-21.21
-25.79
-30.25
-34.9
-40.05
-45.9
-52.45
-59.35
-65.91
-71.14
-73.95
-73.51
-69.51
-62.25
-52.6
-41.62
-30.33
-19.4
-9.19
0.23
8.83
16.58
23.35
29.07
33.65
37.12
39.56
41.08
41.78
41.75
41.11
39.99
38.57
37.09
35.77
34.79
34.17
33.74
33.17
32.06
30.16
27.46
24.22
20.85
17.68
14.78
11.94
8.8
5.05
0.64
-4.26
-9.31
-14.22
-18.86
-23.24
-27.51
-31.85
-36.46
-41.56
-47.34
-53.83
-60.74
-67.34
-72.53
-75.13
-74.26
-69.66
-61.84
-51.85
-40.92
-30.07
-19.89
-10.55
-1.94
6.06
13.44
20.03
25.55
29.77
32.59
34.13
34.67
34.53
34.04
33.42
32.76
32.08
31.41
30.77
30.19
29.65
29.02
28.08
26.61
24.41
21.42
17.67
13.33
8.63
3.82
-0.86
-5.3
-9.47
-13.53
-17.75
-22.47
-28.0
-34.46
-41.62
-48.84
-55.12
-59.32
-60.43
-57.94
-51.94
-43.17
-32.72
-21.73
-11.04
-1.14
7.88
16.02
23.3
29.61
34.78
38.68
41.25
42.62
42.97
42.54
41.56
40.23
38.75
37.33
36.17
35.32
34.73
34.12
33.18
31.63
29.35
26.44
23.13
19.65
16.13
12.56
8.75
4.52
-0.21
-5.39
-10.84
-16.32
-21.63
-26.65
-31.36
-35.89
-40.5
-45.58
-51.47
-58.27
-65.62
-72.54
-77.7
-79.71
-77.71
-71.62
-62.17
-50.57
-38.07
-25.67
-13.93
-3.07
6.81
15.69
23.53
30.31
36.08
40.85
44.6
47.29
48.85
49.25
48.6
47.12
45.13
43.0
41.04
39.48
38.35
37.52
36.7
35.55
33.82
31.4
28.41
25.06
21.62
18.23
14.91
11.5
7.79
3.58
-1.18
-6.36
-11.71
-16.9
-21.77
-26.31
-30.68
-35.21
-40.24
-46.07
-52.81
-60.23
-67.69
-74.15
-78.38
-79.3
-76.34
-69.63
-59.98
-48.56
-36.56
-24.82
-13.82
-3.67
5.62
14.08
21.61
28.09
33.43
37.59
40.66
42.75
44.0
44.51
44.35
43.66
42.6
41.44
40.39
39.53
38.76
37.81
36.39
34.33
31.67
28.57
25.29
21.93
18.47
14.74
10.57
5.88
0.75
-4.59
-9.88
-14.91
-19.58
-23.97
-28.32
-32.99
-38.36
-44.69
-51.88
-59.4
-66.2
-70.98
-72.49
-70.01
-63.58
-53.97
-42.41
-30.19
-18.27
-7.22
2.71
11.43
18.83
24.83
29.36
32.5
34.46
35.49
35.84
35.66
35.02
34.0
32.64
31.11
29.56
28.16
27.02
26.13
25.3
24.24
22.58
20.01
16.38
11.8
6.55
1.08
-4.2
-9.06
-13.5
-17.75
-22.19
-27.22
-33.14
-39.98
-47.37
-54.48
-60.14
-63.14
-62.56
-58.09
-50.16
-39.77
-28.2
-16.61
-5.74
4.09
12.9
20.81
27.85
33.91
38.79
42.28
44.29
44.97
44.6
43.58
42.27
40.94
39.7
38.55
37.44
36.29
34.99
33.46
31.59
29.31
26.6
23.51
20.1
16.41
12.42
8.07
3.31
-1.83
-7.22
-12.66
-18.02
-23.25
-28.43
-33.74
-39.45
-45.81
-52.97
-60.77
-68.59
-75.39
-79.86
-80.8
-77.54
-70.15
-59.48
-46.83
-33.54
-20.66
-8.81
1.79
11.15
19.38
26.57
32.76
37.99
42.26
45.56
47.92
49.37
49.96
49.82
49.07
47.91
46.54
45.16
43.9
42.79
41.73
40.51
38.9
36.7
33.86
30.44
26.59
22.44
18.07
13.46
8.57
3.41
-1.92
-7.31
-12.61
-17.78
-22.87
-28.07
-33.66
-39.97
-47.26
-55.48
-64.15
-72.26
-78.38
-81.08
-79.41
-73.23
-63.28
-50.92
-37.66
-24.71
-12.77
-2.06
7.49
15.97
23.44
29.84
35.07
39.08
41.87
43.53
44.25
44.26
43.77
42.96
41.96
40.8
39.52
38.17
36.82
35.53
34.32
33.04
31.47
29.29
26.27
22.34
17.66
12.59
7.5
2.7
-1.72
-5.9
-10.08
-14.52
-19.46
-25.04
-31.33
-38.24
-45.41
-52.14
-57.41
-60.11
-59.4
-55.02
-47.4
-37.56
-26.67
-15.81
-5.66
3.49
11.58
18.6
24.51
29.23
32.74
35.13
36.57
37.31
37.56
37.45
37.02
36.23
35.04
33.44
31.51
29.49
27.59
25.98
24.62
23.27
21.54
19.1
15.8
11.76
7.33
2.89
-1.3
-5.27
-9.27
-13.71
-19.01
-25.41
-32.87
-40.95
-48.82
-55.39
-59.46
-60.12
-56.94
-50.19
-40.72
-29.77
-18.56
-8.02
1.35
9.46
16.46
22.59
28.0
32.69
36.55
39.38
41.03
41.48
40.88
39.55
37.87
36.2
34.81
33.77
33.02
32.38
31.63
30.58
29.12
27.22
24.9
22.2
19.15
15.75
12.0
7.92
3.55
-1.03
-5.72
-10.43
-15.07
-19.62
-24.1
-28.71
-33.71
-39.4
-45.88
-52.85
-59.54
-64.83
-67.48
-66.63
-62.06
-54.27
-44.32
-33.38
-22.49
-12.26
-2.9
5.59
13.27
20.09
25.94
30.7
34.31
36.82
38.35
39.09
39.18
38.76
37.92
36.82
35.63
34.56
33.77
33.31
33.04
32.7
31.96
30.6
28.49
25.71
22.44
18.93
15.38
11.9
8.46
4.97
1.27
-2.68
-6.81
-10.95
-14.9
-18.56
-22.0
-25.46
-29.33
-34.03
-39.86
-46.83
-54.51
-61.96
-67.88
-70.94
-70.17
-65.36
-57.09
-46.57
-35.14
-23.92
-13.57
-4.32
3.85
11.0
17.17
22.37
26.61
29.95
32.41
34.0
34.68
34.46
33.5
32.07
30.56
29.3
28.45
27.95
27.55
26.96
25.94
24.4
22.44
20.22
17.92
15.62
13.31
10.87
8.15
4.98
1.31
-2.79
-7.13
-11.47
-15.59
-19.44
-23.1
-26.84
-30.96
-35.69
-41.12
-47.06
-52.99
-58.11
-61.46
-62.14
-59.59
-53.82
-45.41
-35.38
-24.86
-14.79
-5.73
2.12
8.83
14.51
19.23
23.0
25.8
27.69
28.8
29.35
29.55
29.49
29.13
28.3
26.85
24.78
22.32
19.9
17.9
16.45
15.31
13.94
11.77
8.52
4.34
-0.25
-4.65
-8.44
-11.56
-14.27
-17.04
-20.38
-24.67
-30.1
-36.55
-43.5
-50.03
-54.96
-57.15
-55.89
-51.14
-43.55
-34.19
-24.22
-14.5
-5.46
2.77
10.17
16.7
22.2
26.54
29.66
31.69
32.85
33.33
33.34
32.97
32.29
31.39
30.33
29.18
27.95
26.64
25.26
23.86
22.44
20.91
19.05
16.6
13.39
9.41
4.89
0.13
-4.55
-9.05
-13.4
-17.78
-22.34
-27.15
-32.3
-37.94
-44.26
-51.37
-59.08
-66.69
-73.0
-76.66
-76.55
-72.3
-64.35
-53.84
-42.14
-30.38
-19.23
-8.9
0.64
9.4
17.28
24.11
29.74
34.13
37.34
39.49
40.71
41.12
40.91
40.24
39.34
38.37
37.4
36.42
35.38
34.25
33.04
31.76
30.36
28.7
26.53
23.61
19.79
15.13
9.83
4.24
-1.31
-6.58
-11.5
-16.19
-20.85
-25.77
-31.26
-37.58
-44.82
-52.87
-61.21
-68.87
-74.64
-77.29
-75.97
-70.57
-61.71
-50.58
-38.52
-26.62
-15.51
-5.36
3.92
12.45
20.24
27.16
33.01
37.65
41.06
43.28
44.46
44.74
44.26
43.17
41.63
39.84
38.06
36.53
35.4
34.64
34.01
33.13
31.58
29.11
25.71
21.57
17.0
12.32
7.73
3.34
-0.88
-5.12
-9.68
-14.95
-21.29
-28.74
-36.94
-44.94
-51.45
-55.16
-55.17
-51.28
-44.01
-34.38
-23.62
-12.79
-2.64
6.44
14.4
21.29
27.23
32.3
36.53
39.91
42.39
43.95
44.62
44.47
43.61
42.17
40.29
38.14
35.94
33.92
32.23
30.84
29.51
27.85
25.43
22.03
17.64
12.55
7.2
2.03
-2.71
-7.0
-11.16
-15.68
-21.15
-27.94
-36.08
-44.96
-53.45
-60.06
-63.39
-62.53
-57.37
-48.64
-37.61
-25.65
-13.89
-2.98
6.89
15.77
23.7
30.63
36.36
40.67
43.48
44.85
45.06
44.48
43.46
42.28
41.07
39.88
38.65
37.34
35.92
34.41
32.82
31.19
29.46
27.48
25.04
21.92
17.98
13.23
7.88
2.28
-3.2
-8.26
-12.78
-16.87
-20.8
-24.96
-29.71
-35.37
-42.05
-49.58
-57.36
-64.38
-69.38
-71.13
-68.87
-62.59
-53.05
-41.55
-29.45
-17.8
-7.1
2.58
11.4
19.43
26.59
32.63
37.32
40.58
42.53
43.45
43.62
43.28
42.56
41.54
40.29
38.93
37.65
36.59
35.75
34.94
33.86
32.16
29.69
26.53
22.95
19.25
15.61
11.98
8.2
4.08
-0.44
-5.29
-10.26
-15.19
-20.02
-24.75
-29.52
-34.53
-40.01
-46.14
-52.84
-59.65
-65.64
-69.62
-70.52
-67.79
-61.59
-52.74
-42.39
-31.6
-21.06
-11.11
-1.85
6.65
14.29
20.86
26.22
30.25
32.98
34.56
35.21
35.23
34.9
34.47
34.01
33.42
32.54
31.27
29.69
27.96
26.35
24.92
23.57
21.98
19.82
16.88
13.17
8.95
4.5
0.11
-4.14
-8.29
-12.46
-16.84
-21.6
-26.89
-32.82
-39.33
-46.04
-52.25
-56.96
-59.11
-57.97
-53.36
-45.77
-36.17
-25.68
-15.23
-5.42
3.55
11.63
18.81
24.96
29.9
33.41
35.43
36.08
35.66
34.57
33.21
31.85
30.59
29.35
28.01
26.49
24.82
23.12
21.52
20.05
18.62
16.98
14.88
12.15
8.78
4.91
0.8
-3.34
-7.38
-11.32
-15.25
-19.34
-23.75
-28.68
-34.26
-40.52
-47.23
-53.86
-59.55
-63.29
-64.15
-61.63
-55.81
-47.36
-37.22
-26.43
-15.76
-5.69
3.61
12.06
19.58
26.05
31.31
35.29
37.96
39.45
39.93
39.62
38.73
37.5
36.14
34.81
33.6
32.5
31.41
30.19
28.7
26.84
24.64
22.19
19.61
16.98
14.27
11.37
8.1
4.31
-0.0
-4.73
-9.63
-14.46
-19.05
-23.36
-27.49
-31.66
-36.12
-41.11
-46.76
-52.91
-59.1
-64.48
-67.98
-68.6
-65.74
-59.4
-50.25
-39.39
-28.0
-17.06
-7.07
1.79
9.61
16.47
22.36
27.21
30.92
33.52
35.17
36.11
36.58
36.74
36.63
36.26
35.63
34.75
33.63
32.27
30.65
28.82
26.85
24.84
22.86
20.86
18.68
16.11
12.97
9.21
4.94
0.31
-4.48
-9.3
-14.06
-18.73
-23.32
-27.99
-32.97
-38.58
-45.02
-52.16
-59.43
-65.78
-70.0
-71.03
-68.32
-62.06
-53.08
-42.57
-31.74
-21.46
-12.18
-3.94
3.4
9.94
15.67
20.45
24.11
26.62
28.08
28.68
28.64
28.11
27.16
25.86
24.44
23.16
22.31
22.0
22.11
22.19
21.68
20.1
17.24
13.28
8.72
4.15
0.11
-3.2
-5.91
-8.46
-11.46
-15.49
-20.9
-27.66
-35.31
-42.97
-49.42
-53.44
-54.08
-51.0
-44.56
-35.69
-25.58
-15.31
-5.65
3.04
10.63
17.09
22.36
26.34
29.05
30.61
31.29
31.4
31.19
30.69
29.83
28.44
26.45
24.01
21.49
19.37
17.95
17.25
16.86
16.17
14.6
11.82
7.9
3.21
-1.73
-6.47
-10.72
-14.43
-17.81
-21.19
-25.07
-29.88
-35.8
-42.51
-49.14
-54.42
-57.09
-56.27
-51.81
-44.26
-34.64
-24.03
-13.33
-3.08
6.49
15.29
23.27
30.3
36.19
40.72
43.76
45.31
45.58
44.9
43.62
42.05
40.28
38.3
36.11
33.74
31.4
29.29
27.56
26.15
24.77
23.03
20.56
17.2
13.03
8.35
3.53
-1.11
-5.41
-9.41
-13.32
-17.45
-22.11
-27.58
-34.05
-41.54
-49.88
-58.51
-66.51
-72.72
-75.99
-75.51
-71.07
-63.14
-52.69
-40.85
-28.65
-16.76
-5.53
4.89
14.42
22.96
30.37
36.51
41.36
44.93
47.35
48.74
49.24
49.07
48.47
47.74
47.12
46.8
46.78
46.88
46.76
46.06
44.48
41.95
38.65
34.94
31.16
27.49
23.84
19.94
15.51
10.49
5.05
-0.44
-5.65
-10.41
-14.78
-19.0
-23.36
-28.14
-33.63
-39.95
-46.98
-54.16
-60.47
-64.56
-65.22
-61.84
-54.67
-44.72
-33.42
-22.02
-11.36
-1.74
6.86
14.46
20.97
26.2
29.99
32.36
33.55
33.94
33.94
33.84
33.74
33.55
33.09
32.22
30.94
29.36
27.75
26.37
25.3
24.4
23.32
21.66
19.14
15.73
11.65
7.32
3.13
-0.68
-4.08
-7.3
-10.67
-14.57
-19.28
-24.95
-31.48
-38.5
-45.32
-51.03
-54.61
-55.21
-52.42
-46.4
-37.87
-27.89
-17.49
-7.5
1.61
9.7
16.79
22.87
27.93
31.88
34.68
36.36
37.06
36.99
36.4
35.5
34.47
33.38
32.28
31.12
29.89
28.57
27.16
25.66
24.02
22.14
19.92
17.3
14.27
10.88
7.18
3.24
-0.94
-5.33
-9.86
-14.41
-18.84
-23.06
-27.05
-31.01
-35.28
-40.21
-46.04
-52.65
-59.46
-65.43
-69.29
-69.91
-66.71
-59.84
-50.16
-38.9
-27.25
-16.05
-5.68
3.75
12.29
19.9
26.46
31.87
36.09
39.18
41.29
42.56
43.05
42.77
41.77
40.17
38.24
36.37
34.91
34.01
33.58
33.27
32.59
31.16
28.79
25.6
21.88
17.98
14.16
10.52
6.99
3.4
-0.42
-4.58
-9.07
-13.76
-18.48
-23.03
-27.27
-31.21
-35.05
-39.13
-43.89
-49.63
-56.32
-63.39
-69.81
-74.26
-75.55
-72.99
-66.6
-57.14
-45.76
-33.7
-21.9
-10.94
-1.06
7.74
15.5
22.23
27.94
32.61
36.25
38.89
40.55
41.31
41.24
40.5
39.34
38.02
36.79
35.81
35.07
34.45
33.71
32.61
30.95
28.68
25.83
22.57
19.1
15.62
12.25
8.96
5.59
1.93
-2.15
-6.69
-11.54
-16.48
-21.3
-25.9
-30.39
-35.06
-40.3
-46.38
-53.22
-60.24
-66.45
-70.58
-71.55
-68.83
-62.61
-53.73
-43.34
-32.54
-22.11
-12.37
-3.37
4.93
12.52
19.23
24.8
29.02
31.83
33.35
33.89
33.79
33.36
32.7
31.76
30.47
28.8
26.91
25.06
23.55
22.51
21.8
21.07
19.82
17.64
14.35
10.04
5.05
-0.16
-5.23
-9.92
-14.24
-18.42
-22.85
-27.94
-34.0
-41.09
-48.78
-56.25
-62.29
-65.66
-65.47
-61.41
-53.89
-43.83
-32.37
-20.6
-9.31
1.09
10.39
18.53
25.5
31.27
35.87
39.29
41.58
42.81
43.11
42.68
41.75
40.56
39.27
38.0
36.77
35.56
34.26
32.76
30.94
28.71
26.08
23.1
19.9
16.58
13.18
9.62
5.76
1.48
-3.28
-8.42
-13.76
-19.11
-24.35
-29.52
-34.81
-40.62
-47.33
-55.15
-63.88
-72.73
-80.45
-85.53
-86.76
-83.48
-75.91
-64.99
-52.05
-38.4
-25.05
-12.59
-1.26
8.91
17.9
25.73
32.42
38.01
42.54
46.0
48.34
49.51
49.56
48.68
47.2
45.51
43.96
42.74
41.89
41.31
40.83
40.23
39.27
37.77
35.6
32.76
29.43
25.8
22.05
18.18
14.02
9.32
3.93
-2.09
-8.42
-14.7
-20.61
-26.11
-31.45
-37.04
-43.37
-50.73
-59.08
-67.88
-76.05
-82.2
-84.93
-83.32
-77.2
-67.27
-54.82
-41.27
-27.81
-15.09
-3.31
7.53
17.45
26.32
33.94
40.1
44.71
47.87
49.77
50.68
50.83
50.42
49.61
48.57
47.44
46.36
45.38
44.52
43.63
42.53
41.01
38.93
36.28
33.18
29.79
26.25
22.57
18.65
14.34
9.57
4.35
-1.17
-6.76
-12.22
-17.4
-22.31
-27.06
-31.94
-37.34
-43.64
-50.97
-59.02
-66.89
-73.22
-76.56
-75.83
-70.73
-61.83
-50.33
-37.65
-24.99
-13.11
-2.3
7.37
15.88
23.11
28.89
33.14
35.96
37.67
38.69
39.36
39.87
40.16
40.03
39.32
38.07
36.48
34.89
33.57
32.57
31.71
30.58
28.78
25.99
22.19
17.55
12.46
7.26
2.2
-2.7
-7.62
-12.85
-18.68
-25.36
-32.94
-41.23
-49.65
-57.29
-62.98
-65.64
-64.54
-59.56
-51.26
-40.65
-28.95
-17.22
-6.21
3.69
12.43
20.13
26.9
32.8
37.73
41.47
43.87
44.92
44.87
44.17
43.26
42.41
41.65
40.8
39.68
38.22
36.52
34.75
33.04
31.32
29.36
26.86
23.6
19.52
14.73
9.44
3.91
-1.68
-7.2
-12.61
-17.9
-23.11
-28.32
-33.71
-39.57
-46.22
-53.78
-62.0
-70.07
-76.73
-80.54
-80.38
-75.8
-67.26
-55.87
-43.05
-30.05
-17.67
-6.27
4.1
13.44
21.73
28.8
34.57
39.03
42.27
44.45
45.74
46.26
46.12
45.4
44.25
42.83
41.32
39.86
38.5
37.19
35.77
34.07
31.92
29.24
26.08
22.57
18.9
15.14
11.3
7.25
2.85
-1.97
-7.09
-12.31
-17.41
-22.29
-27.05
-32.03
-37.67
-44.32
-52.01
-60.32
-68.28
-74.65
-78.12
-77.79
-73.38
-65.33
-54.58
-42.36
-29.76
-17.6
-6.4
3.65
12.51
20.27
27.02
32.83
37.71
41.57
44.32
45.94
46.48
46.17
45.32
44.23
43.15
42.19
41.34
40.49
39.44
38.0
36.06
33.6
30.72
27.62
24.49
21.37
18.2
14.71
10.67
5.91
0.46
-5.41
-11.32
-16.89
-21.9
-26.41
-30.7
-35.23
-40.47
-46.74
-54.03
-61.87
-69.31
-75.02
-77.65
-76.24
-70.55
-61.19
-49.43
-36.76
-24.44
-13.21
-3.25
5.6
13.55
20.65
26.78
31.74
35.41
37.82
39.17
39.69
39.59
38.98
37.89
36.36
34.5
32.54
30.74
29.31
28.21
27.21
25.89
23.79
20.6
16.33
11.27
5.92
0.79
-3.81
-7.91
-11.84
-16.17
-21.43
-27.95
-35.63
-43.88
-51.63
-57.55
-60.39
-59.34
-54.28
-45.79
-35.02
-23.26
-11.65
-0.9
8.69
17.09
24.38
30.53
35.46
39.05
41.29
42.28
42.27
41.56
40.43
39.09
37.63
36.17
34.74
33.38
32.05
30.67
29.06
27.08
24.68
21.91
18.89
15.74
12.49
9.02
5.18
0.85
-3.93
-8.94
-13.91
-18.57
-22.9
-27.1
-31.58
-36.79
-43.11
-50.6
-58.88
-67.08
-74.01
-78.32
-78.94
-75.37
-67.85
-57.24
-44.77
-31.67
-18.91
-7.07
3.61
13.12
21.54
28.89
35.16
40.27
44.09
46.54
47.67
47.68
46.92
45.72
44.36
42.98
41.65
40.41
39.28
38.21
37.05
35.6
33.62
31.01
27.81
24.18
20.33
16.36
12.22
7.79
2.97
-2.18
-7.48
-12.67
-17.53
-22.09
-26.58
-31.45
-37.2
-44.18
-52.33
-61.1
-69.39
-75.82
-79.08
-78.28
-73.24
-64.53
-53.25
-40.72
-28.09
-16.15
-5.29
4.43
13.11
20.83
27.62
33.42
38.12
41.65
43.98
45.16
45.37
44.84
43.88
42.78
41.74
40.81
39.95
39.03
37.9
36.51
34.85
32.89
30.59
27.8
24.38
20.24
15.4
10.09
4.61
-0.72
-5.68
-10.18
-14.31
-18.32
-22.58
-27.51
-33.42
-40.38
-48.06
-55.65
-62.01
-65.89
-66.34
-62.95
-56.01
-46.43
-35.36
-23.93
-12.91
-2.74
6.51
14.79
22.09
28.27
33.2
36.84
39.26
40.7
41.42
41.61
41.39
40.76
39.69
38.2
36.41
34.54
32.81
31.33
30.02
28.58
26.6
23.74
19.86
15.13
9.91
4.63
-0.39
-5.0
-9.27
-13.41
-17.74
-22.65
-28.47
-35.38
-43.2
-51.25
-58.38
-63.21
-64.54
-61.78
-55.13
-45.51
-34.27
-22.65
-11.56
-1.41
7.76
16.08
23.66
30.45
36.27
40.92
44.27
46.32
47.21
47.17
46.44
45.25
43.78
42.2
40.6
39.07
37.61
36.16
34.62
32.88
30.87
28.53
25.82
22.66
19.0
14.81
10.14
5.17
0.06
-5.0
-9.95
-14.77
-19.5
-24.25
-29.17
-34.51
-40.57
-47.55
-55.36
-63.46
-70.77
-75.9
-77.59
-75.11
-68.53
-58.67
-46.82
-34.28
-22.05
-10.69
-0.36
8.97
17.35
24.74
31.05
36.17
40.08
42.83
44.53
45.31
45.3
44.66
43.56
42.2
40.83
39.63
38.67
37.91
37.08
35.9
34.08
31.53
28.34
24.76
21.06
17.37
13.65
9.7
5.33
0.44
-4.87
-10.37
-15.76
-20.8
-25.4
-29.66
-33.78
-38.16
-43.21
-49.22
-56.11
-63.23
-69.4
-73.23
-73.56
-69.9
-62.58
-52.62
-41.28
-29.67
-18.5
-8.08
1.54
10.32
18.14
24.84
30.26
34.33
37.13
38.81
39.58
39.72
39.42
38.81
37.95
36.79
35.32
33.56
31.69
29.89
28.33
26.98
25.59
23.73
20.97
17.16
12.43
7.25
2.16
-2.45
-6.45
-10.05
-13.58
-17.44
-21.92
-27.19
-33.28
-39.98
-46.76
-52.74
-56.76
-57.76
-55.09
-48.85
-39.81
-29.25
-18.37
-8.08
1.21
9.44
16.71
23.07
28.38
32.48
35.26
36.77
37.22
36.94
36.22
35.32
34.31
33.14
31.75
30.09
28.23
26.33
24.63
23.22
22.03
20.75
18.97
16.35
12.72
8.23
3.26
-1.72
-6.32
-10.37
-13.96
-17.34
-20.88
-24.94
-29.86
-35.78
-42.62
-49.94
-56.9
-62.38
-65.24
-64.68
-60.47
-53.05
-43.33
-32.47
-21.45
-10.99
-1.45
7.05
14.5
20.96
26.47
31.07
34.8
37.66
39.64
40.69
40.85
40.21
38.98
37.43
35.85
34.46
33.35
32.47
31.63
30.58
29.15
27.24
24.91
22.27
19.42
16.42
13.24
9.84
6.13
2.09
-2.26
-6.8
-11.39
-15.89
-20.19
-24.29
-28.35
-32.69
-37.72
-43.78
-50.92
-58.66
-65.98
-71.49
-73.83
-72.1
-66.21
-56.86
-45.32
-32.99
-21.02
-10.07
-0.37
8.14
15.59
22.03
27.42
31.7
34.87
37.02
38.29
38.83
38.73
38.03
36.79
35.14
33.3
31.6
30.26
29.33
28.66
27.93
26.84
25.22
23.06
20.5
17.66
14.62
11.34
7.71
3.67
-0.8
-5.6
-10.57
-15.48
-20.13
-24.42
-28.42
-32.41
-36.77
-41.92
-48.05
-55.01
-62.09
-68.19
-72.0
-72.45
-69.05
-62.09
-52.5
-41.53
-30.32
-19.61
-9.7
-0.62
7.61
14.89
20.99
25.68
28.91
30.81
31.7
31.91
31.72
31.28
30.66
29.84
28.84
27.71
26.58
25.54
24.62
23.69
22.49
20.73
18.2
14.84
10.78
6.3
1.68
-2.83
-7.11
-11.17
-15.16
-19.35
-24.07
-29.63
-36.15
-43.37
-50.59
-56.72
-60.59
-61.27
-58.4
-52.24
-43.61
-33.52
-22.92
-12.5
-2.71
6.23
14.13
20.88
26.38
30.62
33.7
35.71
36.8
37.06
36.61
35.58
34.17
32.6
31.11
29.82
28.76
27.83
26.85
25.66
24.14
22.21
19.84
17.02
13.72
9.96
5.81
1.36
-3.24
-7.89
-12.53
-17.12
-21.68
-26.27
-31.01
-36.06
-41.67
-48.04
-55.2
-62.81
-70.1
-75.92
-79.04
-78.45
-73.82
-65.49
-54.47
-41.98
-29.22
-17.0
-5.76
4.36
13.32
21.12
27.73
33.16
37.49
40.8
43.14
44.59
45.16
44.91
44.0
42.66
41.15
39.71
38.46
37.38
36.31
35.03
33.37
31.25
28.69
25.8
22.67
19.34
15.77
11.87
7.55
2.81
-2.23
-7.42
-12.54
-17.47
-22.2
-26.85
-31.69
-37.09
-43.36
-50.59
-58.46
-66.07
-72.15
-75.31
-74.53
-69.5
-60.79
-49.56
-37.21
-24.89
-13.26
-2.55
7.27
16.2
24.12
30.77
35.93
39.52
41.62
42.48
42.44
41.79
40.79
39.6
38.31
36.95
35.53
34.12
32.79
31.59
30.53
29.47
28.18
26.36
23.75
20.25
15.99
11.22
6.28
1.43
-3.19
-7.61
-11.92
-16.28
-20.93
-26.13
-32.15
-39.08
-46.63
-54.03
-60.07
-63.41
-63.0
-58.47
-50.27
-39.5
-27.54
-15.66
-4.68
5.05
13.54
20.92
27.25
32.48
36.48
39.16
40.6
41.02
40.73
40.03
39.09
37.97
36.64
35.11
33.45
31.83
30.37
29.07
27.69
25.79
22.91
18.79
13.52
7.54
1.49
-4.09
-8.98
-13.33
-17.58
-22.24
-27.72
-34.21
-41.56
-49.27
-56.49
-62.08
-64.87
-63.97
-59.09
-50.71
-39.89
-28.0
-16.2
-5.24
4.61
13.39
21.2
28.06
33.88
38.52
41.85
43.84
44.62
44.39
43.5
42.26
40.93
39.59
38.15
36.51
34.6
32.47
30.26
28.11
26.02
23.86
21.37
18.28
14.45
9.86
4.7
-0.76
-6.26
-11.58
-16.61
-21.39
-26.08
-30.93
-36.3
-42.53
-49.8
-57.85
-65.93
-72.75
-76.85
-77.01
-72.76
-64.52
-53.45
-41.04
-28.51
-16.61
-5.58
4.62
13.98
22.35
29.48
35.17
39.38
42.31
44.21
45.31
45.73
45.54
44.82
43.75
42.55
41.43
40.5
39.7
38.85
37.71
36.12
34.02
31.46
28.53
25.32
21.83
18.0
13.75
9.09
4.11
-1.0
-6.03
-10.82
-15.4
-19.9
-24.53
-29.51
-35.06
-41.35
-48.41
-56.06
-63.66
-70.19
-74.4
-75.13
-71.84
-64.79
-54.97
-43.76
-32.36
-21.47
-11.25
-1.51
7.93
17.04
25.55
33.0
39.02
43.36
46.0
47.08
46.87
45.73
44.03
42.16
40.42
38.97
37.89
37.12
36.55
35.99
35.24
34.05
32.17
29.41
25.68
21.08
15.86
10.38
4.98
-0.12
-4.85
-9.35
-13.83
-18.57
-23.82
-29.78
-36.58
-44.14
-52.07
-59.55
-65.42
-68.41
-67.56
-62.58
-53.99
-43.01
-31.13
-19.67
-9.38
-0.47
7.25
14.03
20.03
25.21
29.49
32.9
35.61
37.83
39.64
40.92
41.34
40.6
38.63
35.75
32.53
29.55
27.14
25.22
23.36
21.04
17.88
13.83
9.12
4.16
-0.69
-5.19
-9.39
-13.55
-18.1
-23.49
-30.02
-37.64
-45.82
-53.59
-59.68
-62.85
-62.28
-57.77
-49.86
-39.59
-28.18
-16.71
-5.85
4.11
13.13
21.2
28.19
33.86
37.99
40.51
41.64
41.79
41.41
40.85
40.2
39.37
38.21
36.64
34.74
32.71
30.78
29.09
27.61
26.11
24.24
21.67
18.15
13.68
8.43
2.76
-2.91
-8.23
-13.03
-17.38
-21.61
-26.21
-31.67
-38.27
-45.9
-53.9
-61.1
-66.13
-67.79
-65.39
-59.04
-49.5
-37.98
-25.74
-13.84
-2.93
6.71
15.03
22.12
28.07
32.93
36.73
39.44
41.1
41.82
41.8
41.31
40.62
39.86
39.07
38.17
37.06
35.65
33.93
31.94
29.74
27.36
24.84
22.12
19.08
15.57
11.52
6.96
2.05
-2.96
-7.8
-12.32
-16.49
-20.43
-24.4
-28.66
-33.51
-39.17
-45.7
-52.83
-59.9
-65.88
-69.53
-69.83
-66.3
-59.15
-49.27
-37.85
-26.08
-14.79
-4.41
4.95
13.32
20.67
26.94
32.05
35.95
38.7
40.37
41.08
40.9
39.96
38.46
36.69
34.97
33.55
32.47
31.58
30.62
29.33
27.58
25.41
22.96
20.36
17.67
14.8
11.62
7.98
3.83
-0.81
-5.81
-10.98
-16.12
-21.06
-25.72
-30.15
-34.62
-39.51
-45.18
-51.7
-58.68
-65.19
-69.94
-71.7
-69.72
-63.98
-55.2
-44.52
-33.13
-21.96
-11.56
-2.18
6.05
13.04
18.72
23.03
26.04
27.88
28.77
28.95
28.61
27.89
26.88
25.58
24.01
22.23
20.37
18.65
17.25
16.24
15.43
14.42
12.72
10.0
6.25
1.87
-2.59
-6.51
-9.64
-12.07
-14.27
-16.88
-20.5
-25.49
-31.86
-39.13
-46.38
-52.35
-55.76
-55.63
-51.63
-44.19
-34.32
-23.27
-12.11
-1.59
7.99
16.53
23.99
30.27
35.25
38.85
41.13
42.27
42.55
42.21
41.48
40.5
39.37
38.17
36.97
35.77
34.56
33.23
31.68
29.79
27.51
24.8
21.7
18.25
14.47
10.35
5.87
1.03
-4.15
-9.56
-15.09
-20.58
-25.95
-31.23
-36.54
-42.15
-48.36
-55.42
-63.24
-71.31
-78.55
-83.59
-85.14
-82.44
-75.53
-65.25
-52.91
-39.87
-27.13
-15.24
-4.36
5.55
14.49
22.41
29.22
34.83
39.26
42.55
44.76
45.96
46.26
45.82
44.87
43.71
42.59
41.64
40.89
40.17
39.25
37.89
35.95
33.4
30.33
26.88
23.17
19.27
15.15
10.74
5.95
0.75
-4.72
-10.23
-15.54
-20.52
-25.24
-29.99
-35.24
-41.45
-48.85
-57.24
-65.82
-73.34
-78.28
-79.34
-75.87
-68.05
-56.85
-43.73
-30.1
-17.05
-5.16
5.41
14.73
22.89
29.97
36.0
40.99
44.96
47.96
49.99
51.06
51.15
50.38
48.97
47.25
45.59
44.24
43.22
42.35
41.28
39.7
37.45
34.59
31.34
27.93
24.43
20.77
16.74
12.2
7.11
1.67
-3.86
-9.2
-14.17
-18.81
-23.3
-28.0
-33.33
-39.68
-47.19
-55.54
-63.84
-70.73
-74.73
-74.69
-70.22
-61.81
-50.63
-38.07
-25.34
-13.24
-2.14
7.83
16.6
24.06
30.12
34.73
37.99
40.05
41.14
41.43
41.06
40.12
38.73
37.0
35.1
33.24
31.57
30.13
28.83
27.46
25.7
23.29
20.08
16.11
11.56
6.76
2.04
-2.34
-6.32
-10.07
-14.03
-18.78
-24.75
-32.03
-40.15
-48.05
-54.33
-57.61
-56.96
-52.2
-43.95
-33.4
-21.96
-10.82
-0.69
8.23
16.1
23.15
29.42
34.77
38.9
41.59
42.83
42.8
41.87
40.4
38.71
36.97
35.25
33.54
31.83
30.12
28.43
26.75
25.05
23.23
21.13
18.59
15.48
11.74
7.45
2.74
-2.2
-7.24
-12.29
-17.35
-22.46
-27.69
-33.15
-39.01
-45.47
-52.64
-60.33
-67.87
-74.06
-77.51
-77.0
-72.06
-63.13
-51.46
-38.65
-26.06
-14.49
-4.1
5.32
14.01
22.0
29.1
35.04
39.6
42.76
44.61
45.32
45.08
44.06
42.46
40.48
38.34
36.2
34.19
32.37
30.71
29.14
27.53
25.77
23.69
21.18
18.13
14.53
10.43
5.98
1.32
-3.38
-7.99
-12.45
-16.76
-21.02
-25.47
-30.48
-36.42
-43.53
-51.65
-60.09
-67.64
-72.85
-74.43
-71.7
-64.82
-54.67
-42.66
-30.15
-18.21
-7.38
2.23
10.77
18.43
25.24
31.11
35.85
39.31
41.49
42.5
42.56
41.94
40.87
39.54
38.11
36.72
35.46
34.35
33.28
32.08
30.56
28.65
26.39
23.92
21.36
18.69
15.77
12.38
8.43
3.94
-0.84
-5.61
-10.16
-14.41
-18.49
-22.7
-27.37
-32.83
-39.27
-46.56
-54.22
-61.28
-66.51
-68.69
-67.02
-61.43
-52.56
-41.6
-29.81
-18.28
-7.65
1.8
9.97
16.88
22.52
26.95
30.27
32.65
34.26
35.21
35.52
35.17
34.17
32.62
30.75
28.83
27.18
26.02
25.38
25.04
24.61
23.61
21.64
18.53
14.42
9.68
4.8
0.2
-3.93
-7.66
-11.3
-15.23
-19.88
-25.51
-32.11
-39.32
-46.36
-52.11
-55.39
-55.31
-51.53
-44.43
-34.94
-24.31
-13.66
-3.76
5.08
12.9
19.86
26.05
31.39
35.67
38.61
40.1
40.24
39.36
37.94
36.39
34.95
33.65
32.37
31.02
29.58
28.13
26.75
25.4
23.89
21.89
19.15
15.52
11.09
6.16
1.09
-3.78
-8.25
-12.33
-16.17
-20.01
-24.16
-28.98
-34.73
-41.53
-49.19
-57.05
-64.04
-68.85
-70.28
-67.66
-61.1
-51.45
-39.99
-27.99
-16.38
-5.65
4.12
12.94
20.86
27.78
33.58
38.13
41.35
43.31
44.11
43.94
43.02
41.64
40.03
38.43
36.91
35.47
34.0
32.41
30.66
28.77
26.76
24.6
22.17
19.3
15.86
11.82
7.29
2.51
-2.28
-6.93
-11.38
-15.71
-20.04
-24.5
-29.32
-34.71
-40.94
-48.06
-55.8
-63.36
-69.57
-73.1
-72.92
-68.6
-60.54
-49.76
-37.62
-25.38
-13.91
-3.6
5.5
13.53
20.55
26.61
31.64
35.6
38.45
40.23
41.03
40.99
40.32
39.31
38.22
37.27
36.48
35.75
34.9
33.77
32.34
30.66
28.78
26.68
24.25
21.32
17.81
13.72
9.18
4.35
-0.63
-5.65
-10.62
-15.43
-20.0
-24.34
-28.58
-33.03
-38.08
-44.05
-50.91
-58.12
-64.63
-69.07
-70.22
-67.45
-60.93
-51.63
-40.87
-29.88
-19.44
-9.77
-0.79
7.61
15.3
21.91
27.03
30.46
32.28
32.89
32.77
32.29
31.62
30.78
29.7
28.42
27.04
25.74
24.61
23.6
22.51
21.09
19.09
16.36
12.91
8.85
4.44
-0.05
-4.4
-8.53
-12.57
-16.83
-21.73
-27.59
-34.46
-42.01
-49.44
-55.7
-59.63
-60.32
-57.35
-50.92
-41.78
-31.05
-19.81
-8.89
1.29
10.61
19.09
26.69
33.19
38.34
41.93
44.02
44.84
44.77
44.15
43.2
42.01
40.6
39.0
37.28
35.53
33.83
32.18
30.51
28.7
26.61
24.09
20.99
17.21
12.73
7.67
2.31
-3.06
-8.21
-13.05
-17.69
-22.34
-27.23
-32.54
-38.39
-44.85
-51.85
-59.06
-65.78
-70.97
-73.47
-72.36
-67.31
-58.78
-47.77
-35.59
-23.32
-11.69
-0.96
8.84
17.7
25.57
32.22
37.49
41.27
43.65
44.83
45.1
44.73
43.95
42.86
41.56
40.15
38.75
37.51
36.52
35.74
34.97
33.91
32.28
29.93
26.94
23.51
19.87
16.21
12.51
8.67
4.51
-0.05
-4.99
-10.14
-15.3
-20.33
-25.21
-30.09
-35.31
-41.24
-48.13
-55.81
-63.55
-70.15
-74.15
-74.4
-70.4
-62.56
-51.94
-39.95
-27.78
-16.23
-5.62
3.98
12.6
20.19
26.7
32.08
36.38
39.71
42.13
43.67
44.3
44.05
43.06
41.59
40.0
38.63
37.66
37.03
36.51
35.72
34.34
32.22
29.42
26.19
22.82
19.53
16.38
13.23
9.85
6.07
1.8
-2.85
-7.7
-12.53
-17.23
-21.8
-26.37
-31.13
-36.34
-42.21
-48.78
-55.76
-62.46
-67.78
-70.5
-69.65
-64.9
-56.66
-46.02
-34.32
-22.8
-12.25
-3.0
5.01
11.97
18.04
23.23
27.45
30.58
32.63
33.73
34.12
34.07
33.71
33.04
31.98
30.5
28.73
26.97
25.52
24.54
23.86
23.09
21.7
19.34
15.94
11.75
7.23
2.78
-1.34
-5.16
-8.91
-12.89
-17.41
-22.71
-28.93
-36.01
-43.56
-50.79
-56.53
-59.55
-58.88
-54.26
-46.19
-35.82
-24.53
-13.48
-3.4
5.52
13.37
20.29
26.33
31.36
35.21
37.74
38.97
39.08
38.36
37.17
35.77
34.33
32.92
31.52
30.14
28.79
27.48
26.21
24.89
23.42
21.64
19.45
16.76
13.58
9.93
5.87
1.51
-3.07
-7.77
-12.5
-17.23
-22.0
-26.87
-31.98
-37.53
-43.73
-50.71
-58.36
-66.08
-72.85
-77.39
-78.52
-75.61
-68.77
-58.88
-47.18
-34.96
-23.13
-12.17
-2.18
6.87
15.0
22.16
28.23
33.15
36.9
39.54
41.17
41.89
41.83
41.1
39.93
38.55
37.19
36.01
35.07
34.27
33.42
32.33
30.86
29.0
26.79
24.35
21.74
18.92
15.78
12.12
7.81
2.81
-2.76
-8.65
-14.56
-20.25
-25.66
-30.91
-36.32
-42.34
-49.31
-57.24
-65.59
-73.31
-78.96
-81.23
-79.31
-73.19
-63.67
-52.0
-39.51
-27.27
-15.9
-5.66
3.44
11.46
18.49
24.62
29.83
34.11
37.38
39.59
40.77
41.07
40.72
39.95
38.91
37.67
36.22
34.59
32.82
31.01
29.21
27.38
25.38
22.97
19.97
16.27
11.95
7.2
2.3
-2.57
-7.26
-11.82
-16.35
-20.98
-25.93
-31.4
-37.59
-44.55
-52.05
-59.43
-65.67
-69.57
-70.09
-66.73
-59.7
-49.83
-38.29
-26.23
-14.51
-3.6
6.3
15.1
22.65
28.8
33.42
36.51
38.33
39.25
39.63
39.69
39.45
38.79
37.57
35.84
33.8
31.8
30.11
28.77
27.56
26.03
23.69
20.24
15.65
10.2
4.39
-1.31
-6.59
-11.4
-15.94
-20.58
-25.77
-31.89
-39.15
-47.44
-56.17
-64.31
-70.51
-73.53
-72.55
-67.5
-58.99
-48.16
-36.16
-23.96
-12.08
-0.78
9.85
19.69
28.5
36.0
41.92
46.16
48.76
49.96
50.15
49.73
49.04
48.27
47.45
46.54
45.5
44.33
43.06
41.66
40.06
38.06
35.5
32.32
28.51
24.16
19.34
14.06
8.32
2.15
-4.25
-10.61
-16.63
-22.18
-27.43
-32.79
-38.82
-45.98
-54.4
-63.65
-72.8
-80.51
-85.4
-86.41
-83.03
-75.49
-64.6
-51.56
-37.61
-23.81
-10.9
0.78
11.12
20.22
28.23
35.25
41.25
46.13
49.71
51.91
52.78
52.56
51.65
50.43
49.26
48.32
47.65
47.11
46.49
45.54
44.09
42.06
39.47
36.39
32.88
28.91
24.43
19.34
13.66
7.47
0.99
-5.54
-11.87
-17.85
-23.43
-28.77
-34.16
-40.07
-46.92
