-26.83
-15.71
-4.85
5.07
13.76
21.2
27.39
32.3
35.88
38.12
39.1
39.06
38.26
36.97
35.4
33.65
31.81
29.9
27.93
25.92
23.9
21.88
19.86
17.82
15.77
13.66
11.49
9.15
6.55
3.56
0.13
-3.7
-7.75
-11.79
-15.65
-19.24
-22.62
-25.94
-29.4
-33.22
-37.61
-42.68
-48.39
-54.41
-59.96
-63.96
-65.26
-62.98
-56.85
-47.36
-35.66
-23.17
-11.18
-0.58
8.3
15.58
21.55
26.5
30.61
33.93
36.45
38.21
39.33
39.91
40.07
39.85
39.3
38.45
37.38
36.2
34.96
33.64
32.13
30.32
28.17
25.72
23.12
20.57
18.15
15.85
13.5
10.91
7.86
4.24
0.04
-4.63
-9.56
-14.5
-19.25
-23.71
-27.97
-32.33
-37.21
-42.93
-49.51
-56.42
-62.65
-66.89
-67.95
-65.16
-58.59
-49.02
-37.68
-25.88
-14.69
-4.8
3.51
10.19
15.34
19.12
21.73
23.34
24.12
24.2
23.69
22.65
21.19
19.41
17.49
15.64
14.08
12.92
12.18
11.66
11.1
10.23
8.92
7.2
5.24
3.19
1.09
-1.15
-3.72
-6.75
-10.23
-14.02
-17.92
-21.72
-25.33
-28.75
-32.05
-35.39
-39.03
-43.22
-48.16
-53.71
-59.3
-63.89
-66.2
-65.11
-60.08
-51.33
-39.82
-26.93
-14.01
-2.07
8.35
17.08
24.23
29.94
34.38
37.68
39.98
41.41
42.11
42.19
41.7
40.73
39.31
37.52
35.5
33.39
31.35
29.48
27.82
26.27
24.6
22.53
19.78
16.19
11.75
6.71
1.43
-3.7
-8.45
-12.87
-17.23
-21.96
-27.45
-33.83
-40.84
-47.73
-53.42
-56.71
-56.66
-52.82
-45.45
-35.34
-23.65
-11.56
0.01
10.45
19.4
26.7
32.25
36.01
38.1
38.77
38.41
37.44
36.2
34.84
33.37
31.74
29.92
28.0
26.14
24.5
23.13
21.85
20.3
18.07
14.9
10.76
5.95
0.98
-3.67
-7.69
-11.12
-14.27
-17.7
-21.95
-27.36
-33.83
-40.75
-47.05
-51.37
-52.5
-49.73
-43.09
-33.36
-21.85
-9.97
1.12
10.72
18.63
24.97
29.95
33.76
36.5
38.21
39.01
39.06
38.61
37.91
37.15
36.41
35.65
34.77
33.67
32.31
30.72
28.97
27.12
25.16
23.01
20.57
17.7
14.4
10.73
6.88
3.03
-0.66
-4.19
-7.67
-11.28
-15.24
-19.71
-24.81
-30.58
-36.89
-43.38
-49.4
-53.99
-56.1
-54.89
-49.94
-41.53
-30.52
-18.11
-5.55
6.16
16.43
25.09
32.22
37.99
42.59
46.07
48.43
49.65
49.75
48.83
47.17
45.07
42.87
40.87
39.23
38.03
37.2
36.61
36.05
35.32
34.27
32.81
30.92
28.64
26.02
23.13
20.01
16.71
13.23
9.53
5.6
1.44
-2.83
-7.03
-11.03
-14.77
-18.39
-22.21
-26.64
-31.93
-37.99
-44.25
-49.71
-53.2
-53.69
-50.64
-44.18
-35.11
-24.59
-13.85
-3.87
4.84
12.17
18.23
23.22
27.22
30.21
32.12
32.93
32.75
31.81
30.41
28.83
27.21
25.54
23.72
21.65
19.33
16.84
14.34
11.94
9.62
7.25
4.63
1.6
-1.91
-5.82
-9.95
-14.12
-18.16
-22.02
-25.73
-29.4
-33.14
-37.09
-41.34
-45.89
-50.48
-54.6
-57.45
-58.14
-55.97
-50.71
-42.71
-32.86
-22.3
-12.06
-2.8
5.2
11.99
17.65
22.19
25.51
27.49
28.13
27.61
26.28
24.56
22.83
21.28
19.93
18.72
17.52
16.31
15.19
14.32
13.8
13.59
13.48
13.11
12.11
10.24
7.42
3.78
-0.41
-4.82
-9.14
-13.12
-16.67
-19.81
-22.7
-25.61
-28.83
-32.57
-36.81
-41.22
-45.13
-47.66
-47.94
-45.32
-39.68
-31.4
-21.31
-10.48
0.09
9.65
17.77
24.37
29.53
33.43
36.25
38.15
39.24
39.66
39.49
38.81
37.64
36.0
33.94
31.61
29.21
27.03
25.25
23.92
22.86
21.77
20.33
18.32
15.73
12.67
9.38
6.06
2.83
-0.29
-3.36
-6.49
-9.79
-13.32
-17.06
-20.92
-24.71
-28.27
-31.51
-34.48
-37.46
-40.78
-44.73
-49.25
-53.84
-57.54
-59.22
-57.93
-53.25
-45.45
-35.39
-24.17
-12.86
-2.18
7.49
16.05
23.52
29.86
34.97
38.71
41.03
41.97
41.74
40.67
39.07
37.15
35.01
32.65
30.13
27.58
25.22
23.25
21.68
20.33
18.86
16.93
14.38
11.3
7.98
4.73
1.77
-0.89
-3.46
-6.2
-9.31
-12.8
-16.5
-20.14
-23.51
-26.54
-29.37
-32.29
-35.63
-39.66
-44.47
-49.86
-55.32
-60.0
-62.92
-63.19
-60.28
-54.21
-45.62
-35.56
-25.18
-15.45
-6.92
0.25
6.15
10.96
14.78
17.56
19.24
19.82
19.43
18.35
16.91
15.42
14.04
12.82
11.74
10.77
9.93
9.27
8.8
8.5
8.17
7.57
6.38
4.4
1.6
-1.83
-5.52
-9.12
-12.37
-15.31
-18.22
-21.54
-25.7
-30.87
-36.81
-42.85
-47.91
-50.85
-50.72
-47.1
-40.17
-30.73
-19.88
-8.77
1.69
10.92
18.67
24.92
29.78
33.38
35.9
37.45
38.18
38.19
37.6
36.52
35.1
33.48
31.84
30.3
28.96
27.82
26.78
25.69
24.37
22.63
20.41
17.71
14.64
11.3
7.73
3.96
-0.04
-4.23
-8.48
-12.66
-16.67
-20.51
-24.35
-28.39
-32.89
-38.04
-43.9
-50.31
-56.8
-62.53
-66.41
-67.38
-64.73
-58.38
-48.9
-37.34
-24.91
-12.64
-1.31
8.63
16.93
23.57
28.7
32.67
35.86
38.58
40.88
42.6
43.5
43.43
42.44
40.81
38.93
37.13
35.63
34.45
33.48
32.53
31.34
29.71
27.48
24.63
21.23
17.47
13.53
9.55
5.59
1.59
-2.51
-6.74
-11.07
-15.4
-19.54
-23.35
-26.81
-30.02
-33.31
-37.04
-41.51
-46.7
-52.14
-56.91
-59.79
-59.69
-55.92
-48.49
-38.07
-25.79
-13.0
-0.84
9.85
18.69
25.63
30.92
34.84
37.71
39.75
41.06
41.68
41.63
40.91
39.64
37.98
36.17
34.41
32.88
31.61
30.52
29.39
28.01
26.2
23.94
21.29
18.37
15.25
11.97
8.46
4.67
0.55
-3.86
-8.44
-13.03
-17.45
-21.56
-25.35
-28.98
-32.75
-37.01
-42.03
-47.79
-53.94
-59.7
-64.06
-65.97
-64.6
-59.63
-51.35
-40.6
-28.63
-16.72
-5.95
3.08
10.21
15.6
19.55
22.25
23.82
24.31
23.87
22.77
21.38
20.01
18.81
17.79
16.84
15.9
15.03
14.39
14.07
14.0
13.89
13.32
11.88
9.43
6.11
2.28
-1.58
-5.11
-8.2
-11.06
-14.12
-17.88
-22.68
-28.5
-34.84
-40.75
-45.05
-46.66
-44.87
-39.58
-31.27
-20.91
-9.67
1.36
11.36
19.89
26.84
32.34
36.61
39.83
42.09
43.39
43.73
43.17
41.87
40.08
38.09
36.12
34.25
32.49
30.79
29.08
27.35
25.6
23.81
21.93
19.81
17.31
14.27
10.64
6.52
2.09
-2.36
-6.61
-10.51
-14.09
-17.45
-20.79
-24.35
-28.36
-33.07
-38.63
-44.99
-51.75
-58.09
-62.86
-64.88
-63.27
-57.79
-48.93
-37.72
-25.44
-13.26
-1.95
8.08
16.74
24.09
30.21
35.15
38.96
41.71
43.49
44.36
44.4
43.65
42.25
40.4
38.44
36.71
35.46
34.74
34.34
33.92
33.09
31.59
29.34
26.47
23.26
20.01
16.9
13.95
11.02
7.86
4.29
0.3
-3.94
-8.15
-12.09
-15.65
-18.93
-22.24
-25.93
-30.36
-35.71
-41.96
-48.71
-55.16
-60.22
-62.69
-61.62
-56.65
-48.16
-37.19
-25.1
-13.18
-2.4
6.8
14.33
20.38
25.17
28.9
31.66
33.48
34.37
34.37
33.6
32.27
30.61
28.88
27.22
25.66
24.15
22.59
20.95
19.22
17.46
15.67
13.8
11.69
9.16
6.08
2.45
-1.6
-5.84
-10.03
-13.98
-17.62
-20.99
-24.26
-27.66
-31.45
-35.87
-41.02
-46.79
-52.76
-58.15
-62.0
-63.33
-61.43
-56.12
-47.77
-37.27
-25.69
-14.1
-3.27
6.34
14.57
21.37
26.71
30.59
33.05
34.23
34.44
34.02
33.3
32.48
31.58
30.51
29.16
27.51
25.67
23.85
22.25
20.93
19.75
18.39
16.44
13.62
9.89
5.48
0.83
-3.63
-7.59
-10.97
-13.91
-16.71
-19.79
-23.58
-28.39
-34.29
-40.92
-47.38
-52.44
-54.79
-53.5
-48.33
-39.79
-28.99
-17.23
-5.69
4.86
14.07
21.89
28.45
33.85
38.15
41.35
43.42
44.41
44.42
43.65
42.35
40.77
39.13
37.55
36.09
34.73
33.41
32.09
30.65
29.0
26.99
24.55
21.61
18.22
14.49
10.6
6.66
2.75
-1.15
-5.13
-9.24
-13.48
-17.75
-21.94
-25.91
-29.68
-33.38
-37.36
-41.99
-47.53
-53.88
-60.5
-66.39
-70.27
-70.94
-67.65
-60.32
-49.59
-36.66
-22.97
-9.84
1.82
11.55
19.4
25.66
30.67
34.71
37.89
40.23
41.7
42.31
42.14
41.39
40.22
38.85
37.42
36.04
34.76
33.56
32.33
30.97
29.36
27.42
25.17
22.62
19.84
16.88
13.78
10.57
7.23
3.76
0.09
-3.79
-7.81
-11.86
-15.8
-19.54
-23.16
-26.89
-31.08
-36.07
-41.96
-48.5
-54.93
-60.16
-62.91
-62.14
-57.34
-48.74
-37.31
-24.41
-11.47
0.38
10.51
18.78
25.37
30.57
34.62
37.64
39.6
40.48
40.31
39.25
37.55
35.48
33.26
31.02
28.78
26.56
24.42
22.45
20.73
19.27
17.91
16.38
14.38
11.68
8.22
4.16
-0.24
-4.69
-8.92
-12.89
-16.65
-20.37
-24.33
-28.75
-33.83
-39.62
-45.92
-52.21
-57.63
-61.15
-61.8
-58.97
-52.64
-43.45
-32.49
-21.06
-10.28
-0.91
6.78
12.82
17.43
20.76
22.9
23.9
23.89
23.13
21.94
20.61
19.26
17.89
16.44
14.86
13.3
11.91
10.78
9.83
8.77
7.28
5.13
2.33
-0.95
-4.47
-8.12
-11.93
-16.06
-20.74
-26.13
-32.24
-38.83
-45.37
-50.99
-54.63
-55.29
-52.31
-45.7
-36.15
-24.88
-13.27
-2.43
6.95
14.69
20.88
25.72
29.37
31.97
33.66
34.58
34.88
34.62
33.81
32.39
30.42
28.08
25.71
23.68
22.19
21.23
20.49
19.56
18.04
15.73
12.65
8.98
4.99
0.92
-3.05
-6.89
-10.72
-14.83
-19.56
-25.15
-31.53
-38.08
-43.78
-47.35
-47.66
-44.19
-37.13
-27.36
-16.12
-4.64
6.14
15.73
24.01
31.0
36.78
41.35
44.69
46.8
47.78
47.78
47.0
45.57
43.52
40.88
37.71
34.23
30.79
27.78
25.44
23.73
22.33
20.73
18.42
15.12
10.86
5.94
0.85
-3.93
-8.12
-11.72
-15.03
-18.53
-22.75
-28.07
-34.5
-41.6
-48.51
-54.03
-57.01
-56.61
-52.53
-45.17
-35.48
-24.63
-13.75
-3.6
5.38
13.11
19.55
24.66
28.35
30.58
31.41
31.11
30.01
28.48
26.74
24.88
22.94
20.98
19.16
17.62
16.49
15.7
15.05
14.25
12.98
11.05
8.38
5.02
1.13
-3.08
-7.37
-11.63
-15.86
-20.25
-25.07
-30.52
-36.51
-42.55
-47.79
-51.19
-51.89
-49.44
-43.96
-36.09
-26.78
-17.04
-7.69
0.75
8.07
14.25
19.33
23.31
26.11
27.63
27.85
26.9
25.06
22.69
20.14
17.7
15.52
13.63
12.01
10.61
9.35
8.15
6.91
5.46
3.62
1.22
-1.78
-5.22
-8.71
-11.75
-13.98
-15.36
-16.3
-17.48
-19.49
-22.4
-25.5
-27.49
-26.9
-22.74
-14.98
-4.6
6.75
17.35
26.09
32.7
37.73
42.13
46.78
52.26
58.82
66.43
74.7
82.62
88.43
89.83
84.95
73.34
56.76
38.76
23.4
13.5
9.53
9.6
10.72
10.28
7.17
1.76
-4.89
-11.99
-19.44
-27.61
-36.71
-46.32
-55.36
-62.51
-66.76
-67.79
-66.0
-62.25
-57.27
-51.31
-44.01
-34.6
-22.34
-7.08
10.46
28.71
45.6
59.19
68.13
71.93
70.93
66.0
58.27
48.87
38.74
28.66
19.13
10.38
2.47
-4.75
-11.47
-17.89
-24.17
-30.43
-36.74
-43.15
-49.61
-56.0
-62.13
-67.89
-73.29
-78.6
-84.27
-90.77
-98.26
-106.3
-113.85
-119.5
-121.87
-120.25
-114.76
-106.4
-96.56
-86.54
-77.09
-68.33
-59.9
-51.27
-42.04
-32.12
-21.72
-11.32
-1.51
7.13
14.15
19.26
22.46
23.9
23.92
22.89
21.2
19.26
17.43
16.01
15.2
15.06
15.49
16.27
17.15
18.02
19.0
20.43
22.87
26.77
32.32
39.18
46.55
53.22
57.94
59.66
57.88
52.81
45.36
37.01
29.42
24.09
21.98
23.38
27.9
34.73
42.79
50.99
58.38
64.22
68.09
69.87
69.79
68.33
66.11
63.71
61.59
60.08
59.38
59.61
60.83
62.98
65.87
69.05
71.97
74.07
75.02
74.85
74.02
73.13
72.66
72.77
73.3
74.06
75.03
76.45
78.65
81.6
84.7
86.86
86.76
83.4
76.36
65.84
52.44
36.85
19.76
1.84
-16.14
-33.37
-49.06
-62.64
-73.84
-82.72
-89.66
-95.12
-99.57
-103.27
-106.1
-107.5
-106.69
-103.07
-96.64
-88.1
-78.68
-69.67
-62.0
-56.1
-51.99
-49.46
-48.28
-48.19
-48.77
-49.46
-49.68
-49.12
-47.93
-46.71
-46.23
-47.02
-49.11
-51.95
-54.51
-55.67
-54.46
-50.27
-43.12
-33.47
-22.23
-10.43
0.97
11.24
19.97
27.01
32.28
35.75
37.35
37.04
34.98
31.57
27.43
23.25
19.51
16.23
13.04
9.36
4.71
-0.95
-7.27
-13.66
-19.57
-24.78
-29.42
-33.75
-37.95
-41.98
-45.55
-48.39
-50.46
-52.1
-53.99
-56.9
-61.43
-67.82
-75.81
-84.64
-93.16
-100.05
-104.04
-104.23
-100.28
-92.52
-81.89
-69.6
-56.88
-44.69
-33.59
-23.69
-14.83
-6.68
1.06
8.58
15.9
22.82
29.01
34.15
38.04
40.62
41.97
42.21
41.41
39.67
37.17
34.24
31.34
28.91
27.16
25.94
24.78
23.04
20.23
16.2
11.23
5.87
0.72
-3.84
-7.77
-11.33
-14.94
-19.03
-23.85
-29.44
-35.49
-41.4
-46.27
-49.04
-48.73
-44.73
-37.06
-26.4
-13.94
-1.01
11.24
22.12
31.37
39.12
45.64
51.16
55.9
59.92
63.24
65.81
67.58
68.53
68.75
68.38
67.61
66.66
65.66
64.71
63.84
63.06
62.33
61.48
60.3
58.48
55.79
52.08
47.39
41.94
36.05
30.04
24.18
18.62
13.4
8.43
3.48
-1.77
-7.68
-14.45
-22.02
-29.89
-37.17
-42.73
-45.55
-45.01
-41.05
-34.18
-25.29
-15.4
-5.47
3.75
11.75
18.22
23.06
26.31
28.15
28.81
28.53
27.54
26.02
24.11
21.95
19.67
17.46
15.47
13.86
12.66
11.79
11.03
10.04
8.52
6.28
3.34
-0.15
-3.84
-7.41
-10.63
-13.41
-15.9
-18.41
-21.34
-25.08
-29.82
-35.36
-41.07
-45.96
-48.89
-49.01
-45.94
-40.02
-32.12
-23.39
-14.89
-7.33
-1.0
4.05
7.86
10.39
11.56
11.4
10.14
8.2
6.09
4.21
2.75
1.65
0.77
-0.02
-0.76
-1.35
-1.68
-1.66
-1.37
-1.01
-0.92
-1.44
-2.8
-5.01
-7.85
-10.95
-13.99
-16.79
-19.45
-22.28
-25.65
-29.91
-35.11
-40.95
-46.69
-51.23
-53.4
-52.29
-47.57
-39.65
-29.57
-18.61
-7.93
1.71
10.05
17.15
23.17
28.25
32.43
35.7
38.09
39.66
40.49
40.68
40.37
39.66
38.68
37.59
36.49
35.44
34.4
33.3
32.02
30.5
28.74
26.73
24.5
21.99
19.09
15.66
11.69
7.29
2.72
-1.71
-5.79
-9.43
-12.76
-16.09
-19.79
-24.15
-29.3
-35.06
-40.92
-46.02
-49.34
-49.93
-47.2
-41.15
-32.37
-21.9
-10.9
-0.29
9.34
17.82
25.17
31.5
36.83
41.13
44.35
46.48
47.55
47.63
46.77
45.07
42.67
39.8
36.7
33.58
30.55
27.61
24.66
21.62
18.41
15.07
11.61
8.06
4.39
0.64
-3.13
-6.8
-10.22
-13.32
-16.15
-18.9
-21.74
-24.75
-27.84
-30.82
-33.63
-36.37
-39.36
-42.86
-46.81
-50.61
-53.3
-53.86
-51.58
-46.43
-38.94
-30.02
-20.61
-11.46
-3.08
4.18
10.08
14.45
17.22
18.46
18.39
17.36
15.76
13.89
12.03
10.3
8.77
7.42
6.18
5.02
3.87
2.71
1.5
0.16
-1.44
-3.38
-5.65
-8.09
-10.42
-12.34
-13.64
-14.35
-14.71
-15.2
-16.35
-18.59
-22.05
-26.39
-30.85
-34.32
-35.76
-34.42
-30.16
-23.41
-15.02
-5.92
3.09
11.46
18.89
25.19
30.24
33.92
36.23
37.26
37.22
36.4
35.04
33.34
31.45
29.49
27.56
25.78
24.23
22.95
21.89
20.96
20.01
18.83
17.2
14.95
11.97
8.32
4.26
0.14
-3.63
-6.83
-9.49
-11.93
-14.63
-18.08
-22.5
-27.66
-32.86
-37.08
-39.23
-38.51
-34.68
-28.16
-19.82
-10.76
-1.9
6.19
13.31
19.51
24.87
29.44
33.14
35.86
37.54
38.24
38.1
37.33
36.1
34.58
32.88
31.09
29.28
27.56
25.98
24.58
23.31
22.02
20.51
18.54
15.92
12.54
8.4
3.63
-1.52
-6.71
-11.6
-15.94
-19.68
-23.05
-26.44
-30.38
-35.27
-41.25
-48.02
-54.82
-60.59
-64.2
-64.71
-61.67
-55.22
-46.06
-35.26
-24.01
-13.32
-3.81
4.27
11.02
16.67
21.39
25.25
28.17
30.05
30.87
30.76
29.98
28.86
27.68
26.6
25.7
24.98
24.38
23.86
23.31
22.64
21.73
20.47
18.82
16.76
14.29
11.42
8.2
4.71
1.03
-2.72
-6.49
-10.27
-14.06
-17.9
-21.8
-25.84
-30.19
-35.07
-40.59
-46.6
-52.52
-57.34
-59.96
-59.49
-55.6
-48.68
-39.59
-29.44
-19.24
-9.77
-1.48
5.4
10.84
14.9
17.8
19.78
21.14
22.1
22.76
23.11
23.06
22.51
21.37
19.69
17.6
15.39
13.32
11.6
10.25
9.05
7.7
5.89
3.49
0.57
-2.66
-5.96
-9.16
-12.23
-15.22
-18.27
-21.46
-24.9
-28.67
-32.76
-37.02
-41.05
-44.15
-45.48
-44.26
-40.06
-33.0
-23.76
-13.34
-2.85
6.85
15.31
22.41
28.24
32.94
36.54
39.03
40.38
40.68
40.13
39.05
37.76
36.49
35.35
34.31
33.24
32.05
30.63
28.93
26.94
24.64
22.0
18.97
15.56
11.82
7.87
3.89
-0.0
-3.74
-7.42
-11.23
-15.43
-20.21
-25.64
-31.51
-37.32
-42.24
-45.27
-45.54
-42.57
-36.45
-27.9
-18.05
-8.07
1.15
9.13
15.82
21.37
25.92
29.52
32.09
33.59
34.06
33.65
32.63
31.24
29.7
28.1
26.53
25.05
23.71
22.54
21.49
20.44
19.18
17.57
15.5
12.98
10.07
6.87
3.51
0.1
-3.27
-6.56
-9.74
-12.82
-15.86
-18.93
-22.14
-25.63
-29.58
-34.1
-39.12
-44.28
-48.9
-52.04
-52.77
-50.46
-44.99
-36.82
-26.86
-16.2
-5.83
3.51
11.47
18.01
23.25
27.39
30.65
33.13
34.89
35.95
36.34
36.1
35.34
34.2
32.79
31.22
29.56
27.85
26.15
24.51
22.96
21.49
20.01
18.4
16.53
14.35
11.86
9.13
6.27
3.33
0.36
-2.68
-5.78
-8.91
-12.03
-15.11
-18.22
-21.5
-25.24
-29.68
-34.96
-40.9
-46.92
-52.07
-55.24
-55.51
-52.41
-46.13
-37.44
-27.45
-17.29
-7.83
0.47
7.49
13.34
18.17
22.07
25.07
27.08
28.05
27.96
26.93
25.22
23.15
21.06
19.15
17.54
16.19
15.0
13.84
12.51
10.79
8.42
5.23
1.21
-3.45
-8.34
-13.0
-17.04
-20.21
-22.45
-23.87
-24.71
-25.32
-26.25
-28.16
-31.58
-36.72
-43.17
-49.87
-55.37
-58.29
-57.77
-53.71
-46.71
-37.79
-28.01
-18.24
-8.99
-0.58
6.83
13.13
18.29
22.33
25.41
27.69
29.3
30.26
30.51
30.01
28.81
27.11
25.24
23.57
22.4
21.81
21.67
21.58
21.09
19.81
17.57
14.46
10.84
7.18
3.84
0.98
-1.51
-3.97
-6.81
-10.36
-14.7
-19.53
-24.21
-27.79
-29.29
-27.95
-23.51
-16.37
-7.44
2.11
11.2
19.15
25.71
30.96
35.14
38.4
40.77
42.21
42.72
42.43
41.56
40.38
39.02
37.47
35.62
33.36
30.72
27.94
25.35
23.23
21.63
20.3
18.78
16.59
13.4
9.19
4.22
-1.12
-6.45
-11.59
-16.54
-21.54
-26.89
-32.89
-39.63
-46.81
-53.77
-59.53
-63.07
-63.6
-60.86
-55.16
-47.28
-38.19
-28.82
-19.88
-11.81
-4.85
0.9
5.44
8.86
11.3
12.91
13.85
14.25
14.19
13.73
12.88
11.6
9.84
7.6
4.97
2.19
-0.49
-2.83
-4.82
-6.62
-8.52
-10.79
-13.53
-16.69
-20.03
-23.29
-26.27
-28.93
-31.3
-33.47
-35.57
-37.74
-40.13
-42.84
-45.86
-48.9
-51.35
-52.26
-50.64
-45.69
-37.27
-25.92
-12.91
0.28
12.33
22.46
30.59
37.14
42.72
47.9
53.1
58.67
64.78
71.38
77.86
82.99
85.14
82.81
75.38
63.51
49.01
34.22
21.18
10.97
3.65
-1.36
-4.8
-7.15
-8.57
-9.23
-9.47
-9.88
-11.09
-13.52
-17.23
-21.92
-27.21
-32.84
-38.77
-45.08
-51.66
-58.01
-63.18
-65.98
-65.36
-60.84
-52.72
-42.0
-30.13
-18.55
-8.33
-0.04
6.32
11.0
14.37
16.72
18.21
18.95
18.99
18.43
17.39
16.06
14.65
13.37
12.41
11.81
11.53
11.35
11.03
10.33
9.06
7.19
4.74
1.87
-1.3
-4.62
-8.05
-11.57
-15.29
-19.31
-23.73
-28.48
-33.2
-37.24
-39.74
-39.81
-36.88
-30.94
-22.61
-12.93
-3.06
6.14
14.3
21.5
28.0
33.98
39.33
43.76
46.94
48.71
49.17
48.58
47.26
45.45
43.27
40.77
38.02
35.14
32.3
29.66
27.27
25.05
22.83
20.32
17.32
13.78
9.83
5.78
2.02
-1.19
-3.81
-6.08
-8.4
-11.21
-14.83
-19.31
-24.39
-29.46
-33.68
-36.1
-35.86
-32.48
-26.03
-17.12
-6.81
3.75
13.58
22.11
29.17
34.87
39.42
42.95
45.49
46.96
47.37
46.79
45.43
43.56
41.44
39.28
37.15
35.13
33.19
31.31
29.44
27.51
25.45
23.21
20.77
18.1
15.16
11.85
8.14
4.06
-0.18
-4.29
-7.99
-11.15
-13.87
-16.41
-19.09
-22.16
-25.75
-29.84
-34.33
-38.93
-43.14
-46.24
-47.37
-45.88
-41.51
-34.57
-25.88
-16.46
-7.28
1.01
8.12
14.02
18.8
22.56
25.4
27.39
28.64
29.25
29.35
29.07
28.53
27.79
26.89
25.81
24.53
23.06
21.46
19.83
18.23
16.61
14.83
12.67
10.03
6.91
3.51
0.06
-3.25
-6.4
-9.54
-12.79
-16.25
-19.83
-23.36
-26.61
-29.48
-31.98
-34.28
-36.62
-39.27
-42.47
-46.26
-50.46
-54.5
-57.55
-58.66
-57.06
-52.5
-45.3
-36.34
-26.7
-17.34
-8.87
-1.54
4.68
9.84
13.89
16.68
18.07
18.13
17.18
15.72
14.29
13.22
12.56
12.11
11.52
10.53
9.07
7.26
5.37
3.66
2.26
1.11
-0.03
-1.41
-3.28
-5.67
-8.4
-11.2
-13.8
-16.06
-18.05
-19.99
-22.12
-24.64
-27.59
-30.87
-34.25
-37.36
-39.67
-40.52
-39.31
-35.64
-29.6
-21.76
-13.06
-4.52
3.05
9.27
14.16
17.97
20.99
23.35
25.01
25.92
26.05
25.6
24.81
24.01
23.3
22.68
21.97
21.03
19.84
18.55
17.37
16.39
15.56
14.59
13.17
11.06
8.24
4.87
1.21
-2.52
-6.2
-9.85
-13.53
-17.3
-21.16
-25.1
-29.12
-33.31
-37.79
-42.63
-47.68
-52.48
-56.26
-58.14
-57.39
-53.8
-47.8
-40.39
-32.84
-26.37
-21.71
-18.98
-17.76
-17.32
-16.97
-16.33
-15.43
-14.66
-14.59
-15.73
-18.38
-22.44
-27.3
-31.71
-33.87
-31.84
-24.11
-10.35
8.32
29.48
50.19
67.94
81.3
90.1
94.98
96.76
96.02
93.0
87.92
81.26
73.88
66.71
60.4
55.0
49.9
44.2
37.06
28.06
17.45
6.07
-4.86
-13.99
-20.18
-22.74
-21.59
-17.19
-10.48
-2.53
5.68
13.42
20.26
25.95
30.33
33.33
34.94
35.21
34.29
32.26
29.17
25.04
19.95
14.2
8.29
2.84
-1.66
-5.0
-7.32
-8.99
-10.36
-11.66
-12.9
-14.04
-15.09
-16.25
-17.8
-20.0
-22.87
-26.19
-29.62
-32.84
-35.74
-38.46
-41.21
-44.12
-47.16
-50.18
-53.03
-55.75
-58.44
-61.13
-63.5
-64.87
-64.32
-61.08
-54.86
-45.99
-35.3
-23.81
-12.41
-1.79
7.59
15.41
21.39
25.42
27.67
28.54
28.65
28.62
28.92
29.82
31.37
33.48
35.94
38.5
40.88
42.83
44.25
45.13
45.55
45.53
45.06
44.05
42.5
40.57
38.58
36.85
35.55
34.59
33.59
32.06
29.54
25.81
20.99
15.51
10.08
5.51
2.47
1.29
1.82
3.43
5.21
6.23
5.86
3.91
0.55
-3.75
-8.51
-13.37
-18.19
-22.97
-27.74
-32.46
-36.98
-41.05
-44.37
-46.72
-47.92
-47.87
-46.47
-43.66
-39.53
-34.41
-28.87
-23.71
-19.63
-17.1
-16.17
-16.51
-17.57
-18.91
-20.33
-21.91
-23.98
-26.85
-30.73
-35.56
-41.02
-46.52
-51.27
-54.36
-54.98
-52.63
-47.31
-39.64
-30.61
-21.37
-12.89
-5.7
0.11
4.74
8.51
11.66
14.26
16.32
17.83
18.89
19.62
20.16
20.53
20.62
20.26
19.29
17.71
15.72
13.65
11.85
10.46
9.34
8.12
6.34
3.62
-0.21
-5.11
-10.82
-16.94
-23.09
-28.95
-34.33
-39.31
-44.24
-49.56
-55.69
-62.64
-69.85
-76.23
-80.33
-80.87
-77.08
-68.95
-57.19
-42.95
-27.55
-12.19
2.22
15.06
25.99
34.93
41.99
47.42
51.49
54.47
56.51
57.73
58.21
58.04
57.32
56.19
54.78
53.24
51.77
50.57
49.79
49.52
49.66
50.06
50.47
50.69
50.6
50.14
49.27
47.88
45.73
42.46
37.68
31.1
22.75
13.05
2.95
-6.29
-13.27
-16.87
-16.43
-12.02
-4.34
5.5
16.26
26.92
36.82
45.58
52.92
58.51
61.92
62.73
60.81
56.5
50.58
44.1
38.04
33.04
29.36
26.96
25.7
25.41
25.92
26.86
27.62
27.42
25.56
21.65
15.88
8.93
1.74
-4.8
-10.07
-13.81
-16.08
-17.14
-17.38
-17.34
-17.67
-19.08
-22.15
-27.18
-34.0
-41.9
-49.75
-56.2
-59.97
-60.14
-56.43
-49.23
-39.54
-28.62
-17.69
-7.59
1.24
8.73
14.91
19.79
23.26
25.24
25.79
25.19
23.89
22.33
20.79
19.33
17.81
16.1
14.14
12.05
9.98
8.05
6.22
4.28
1.94
-1.07
-4.89
-9.52
-14.8
-20.49
-26.29
-31.97
-37.34
-42.36
-47.09
-51.67
-56.27
-60.93
-65.59
-69.95
-73.5
-75.42
-74.71
-70.52
-62.47
-50.95
-36.99
-21.89
-6.61
8.57
23.97
40.03
56.75
73.47
89.05
102.37
112.74
119.91
123.75
123.91
119.77
110.74
96.78
78.65
57.81
36.09
15.24
-3.38
-18.82
-30.48
-38.0
-41.33
-40.81
-37.32
-32.27
-27.29
-23.99
-23.39
-25.77
-30.6
-36.9
-43.62
-50.05
-56.01
-61.64
-67.16
-72.49
-77.13
-80.24
-80.91
-78.59
-73.22
-65.32
-55.81
-45.73
-35.94
-26.97
-18.97
-11.84
-5.37
0.53
5.84
10.43
14.14
16.86
18.67
19.71
20.21
20.39
20.36
20.18
19.89
19.51
19.16
18.97
18.94
18.96
18.74
