23.62
21.07
17.97
14.05
9.27
3.79
-2.06
-7.98
-13.77
-19.41
-25.07
-31.09
-37.83
-45.52
-54.06
-62.85
-70.8
-76.55
-78.88
-77.07
-71.07
-61.51
-49.35
-35.6
-21.06
-6.34
8.08
21.69
33.86
44.01
51.67
56.69
59.25
59.79
58.82
56.85
54.19
51.04
47.48
43.63
39.68
35.92
32.61
29.87
27.53
25.21
22.38
18.64
13.84
8.15
1.93
-4.38
-10.51
-16.44
-22.3
-28.38
-34.93
-42.11
-49.9
-58.1
-66.19
-73.38
-78.65
-81.01
-79.74
-74.64
-66.08
-54.9
-42.12
-28.75
-15.56
-3.09
8.29
18.31
26.77
33.6
38.88
42.83
45.63
47.5
48.47
48.53
47.64
45.85
43.35
40.45
37.47
34.63
32.02
29.56
27.11
24.43
21.33
17.69
13.51
8.93
4.14
-0.67
-5.4
-10.08
-14.95
-20.33
-26.56
-33.77
-41.69
-49.61
-56.39
-60.75
-61.56
-58.19
-50.64
-39.57
-26.08
-11.49
2.91
16.04
27.11
35.71
41.7
45.19
46.47
45.88
43.78
40.54
36.57
32.35
28.34
24.9
22.22
20.21
18.66
17.27
15.83
14.26
12.57
10.78
8.8
6.44
3.47
-0.27
-4.82
-10.14
-16.22
-23.09
-30.76
-39.0
-47.13
-54.08
-58.57
-59.49
-56.3
-49.17
-38.89
-26.62
-13.6
-0.89
10.67
20.5
28.23
33.65
36.85
38.13
37.98
36.98
35.61
34.16
32.67
31.02
29.07
26.79
24.36
22.06
20.12
18.57
17.21
15.65
13.53
10.6
6.83
2.35
-2.64
-7.97
-13.55
-19.38
-25.59
-32.41
-40.11
-48.78
-58.1
-67.19
-74.67
-79.01
-78.97
-74.11
-64.95
-52.72
-38.99
-25.09
-11.92
0.12
10.9
20.34
28.3
34.61
39.17
42.09
43.64
44.18
44.02
43.31
42.07
40.26
37.87
35.04
32.0
29.06
26.43
24.11
21.84
19.22
15.87
11.6
6.53
1.01
-4.54
-9.79
-14.67
-19.44
-24.53
-30.46
-37.61
-46.0
-55.19
-64.21
-71.73
-76.36
-76.99
-73.18
-65.24
-54.15
-41.27
-27.98
-15.38
-4.14
5.49
13.59
20.46
26.5
32.11
37.64
43.25
48.88
54.28
59.01
62.61
64.71
65.11
63.82
61.06
57.16
52.55
47.66
42.83
38.27
34.07
30.16
26.43
22.69
18.77
14.45
9.51
3.65
-3.47
-12.14
-22.51
-34.36
-46.99
-59.16
-69.26
-75.68
-77.29
-73.77
-65.73
-54.48
-41.57
-28.36
-15.77
-4.29
5.82
14.35
21.06
25.69
28.2
28.88
28.31
27.23
26.35
26.17
26.87
28.38
30.42
32.59
34.44
35.52
35.42
33.88
30.8
26.33
20.84
14.79
8.6
2.55
-3.35
-9.34
-15.84
-23.28
-31.89
-41.33
-50.72
-58.6
-63.43
-64.01
-59.95
-51.84
-41.01
-29.11
-17.61
-7.5
0.84
7.37
12.28
15.73
17.83
18.7
18.53
17.57
16.16
14.66
13.34
12.42
11.98
11.97
12.25
12.64
12.94
13.01
12.71
11.94
10.63
8.72
6.24
3.24
-0.23
-4.16
-8.73
-14.22
-20.88
-28.59
-36.74
-44.15
-49.36
-51.04
-48.47
-41.74
-31.74
-19.82
-7.41
4.31
14.6
23.07
29.59
34.16
36.86
37.79
37.15
35.25
32.5
29.45
26.64
24.48
23.14
22.48
22.09
21.54
20.56
19.12
17.39
15.6
13.83
12.0
9.8
6.92
3.13
-1.68
-7.52
-14.33
-21.99
-30.11
-38.0
-44.66
-48.98
-50.01
-47.32
-41.14
-32.27
-21.89
-11.22
-1.23
7.46
14.55
19.98
23.77
25.97
26.65
25.98
24.24
21.82
19.15
16.51
13.99
11.42
8.58
5.32
1.73
-1.91
-5.29
-8.24
-10.87
-13.53
-16.65
-20.58
-25.5
-31.42
-38.21
-45.7
-53.54
-61.06
-67.34
-71.25
-71.83
-68.56
-61.58
-51.61
-39.7
-26.96
-14.32
-2.42
8.38
17.96
26.33
33.61
39.94
45.44
50.14
54.11
57.39
60.14
62.49
64.5
66.06
66.82
66.37
64.37
60.76
55.72
49.65
42.91
35.71
28.16
20.25
11.98
3.39
-5.47
-14.57
-23.8
-32.82
-40.99
-47.34
-50.84
-50.66
-46.57
-38.94
-28.74
-17.17
-5.36
5.89
16.1
25.04
32.57
38.52
42.74
45.19
45.98
45.37
43.71
41.3
38.31
34.81
30.84
26.52
22.06
17.67
13.43
9.22
4.74
-0.37
-6.33
-13.13
-20.54
-28.2
-35.77
-43.04
-50.02
-56.91
-64.05
-71.78
-80.3
-89.42
-98.53
-106.58
-112.31
-114.57
-112.68
-106.58
-96.84
-84.5
-70.77
-56.71
-43.11
-30.35
-18.51
-7.49
2.87
12.64
21.8
30.2
37.7
44.09
49.19
52.77
54.68
54.84
53.39
50.61
46.98
42.99
39.09
35.59
32.65
30.35
28.56
27.08
25.63
23.93
21.77
19.05
15.78
12.08
8.11
4.08
0.16
-3.59
-7.21
-10.81
-14.49
-18.15
-21.43
-23.68
-24.11
-22.03
-17.07
-9.35
0.61
11.96
23.7
34.84
44.56
52.22
57.43
60.03
60.17
58.22
54.74
50.38
45.75
41.27
37.27
33.9
31.27
29.34
27.91
26.57
24.8
22.09
18.2
13.19
7.44
1.44
-4.34
-9.62
-14.29
-18.42
-22.21
-25.95
-30.07
-34.91
-40.63
-46.96
-53.14
-58.04
-60.47
-59.5
-54.77
-46.56
-35.79
-23.67
-11.47
-0.25
9.32
16.93
22.54
26.33
28.5
29.27
28.89
27.56
25.46
22.78
19.69
16.42
13.26
10.52
8.49
7.23
6.61
6.24
5.63
4.34
2.05
-1.32
-5.66
-10.72
-16.22
-21.92
-27.79
-33.91
-40.45
-47.43
-54.53
-60.97
-65.64
-67.45
-65.68
-60.25
-51.7
-41.05
-29.4
-17.74
-6.8
2.85
10.82
16.79
20.58
22.26
22.13
20.67
18.41
15.86
13.4
11.32
9.78
8.88
8.57
8.64
8.77
8.56
7.6
5.58
2.34
-2.09
-7.43
-13.2
-18.75
-23.5
-27.07
-29.52
-31.34
-33.32
-36.36
-41.06
-47.48
-55.0
-62.43
-68.24
-71.02
-69.76
-64.18
-54.72
-42.39
-28.49
-14.27
-0.69
11.63
22.35
31.32
38.45
43.71
47.16
48.95
49.37
48.78
47.52
45.85
43.95
41.92
39.89
37.99
36.38
35.19
34.46
34.03
33.57
32.64
30.81
27.86
23.78
18.88
13.56
8.21
3.03
-1.99
-7.06
-12.51
-18.7
-25.93
-34.42
-44.1
-54.49
-64.65
-73.22
-78.76
-80.14
-76.83
-69.12
-57.92
-44.49
-30.12
-15.84
-2.35
9.94
20.77
29.96
37.41
43.03
46.82
48.9
49.48
48.89
47.5
45.67
43.67
41.69
39.79
37.9
35.93
33.71
31.12
28.12
24.77
21.16
17.39
13.49
9.37
4.89
-0.06
-5.41
-10.95
-16.35
-21.33
-25.7
-29.52
-33.0
-36.47
-40.31
-44.9
-50.48
-57.06
-64.19
-71.0
-76.25
-78.68
-77.31
-71.78
-62.33
-49.74
-34.91
-18.74
-1.84
15.29
32.18
48.13
62.11
72.85
79.09
80.02
75.56
66.59
54.7
41.77
29.49
18.99
10.81
5.02
1.48
0.02
0.38
2.13
4.59
6.93
8.29
8.11
6.21
2.84
-1.5
-6.26
-10.99
-15.55
-20.02
-24.73
-29.97
-35.81
-41.92
-47.52
-51.55
-52.96
-51.05
-45.67
-37.26
-26.6
-14.61
-2.14
10.12
21.66
32.0
40.74
47.54
52.23
54.82
55.56
54.81
52.96
50.3
47.02
43.16
38.8
34.11
29.41
25.15
21.77
19.52
18.41
18.14
18.2
18.03
17.08
14.95
11.36
6.17
-0.5
-8.29
-16.62
-24.81
-32.35
-39.05
-45.09
-50.75
-56.11
-60.79
-63.91
-64.37
-61.25
-54.2
-43.62
-30.53
-16.22
-1.89
11.61
23.9
34.94
44.95
54.26
63.22
72.13
80.98
89.23
95.82
99.4
98.83
93.84
85.21
74.61
63.93
54.56
46.99
40.91
35.56
30.28
24.63
18.35
11.2
2.89
-6.81
-17.86
-29.78
-41.8
-53.04
-62.8
-70.75
-76.9
-81.66
-85.67
-89.72
-94.47
-100.24
-106.72
-113.0
-117.72
-119.46
-117.16
-110.4
-99.52
-85.43
-69.33
-52.44
-35.76
-20.05
-5.82
6.64
17.19
25.81
32.56
37.59
41.16
43.56
45.16
46.28
47.17
47.95
48.6
49.12
49.55
50.01
50.69
51.74
53.14
54.63
55.78
56.04
54.97
52.32
48.18
42.94
37.13
31.25
25.59
20.19
14.87
9.33
3.22
-3.74
-11.79
-20.96
-30.97
-41.09
-50.18
-56.85
-59.87
-58.47
-52.67
-43.22
-31.41
-18.67
-6.28
4.88
14.31
21.87
27.58
31.6
34.12
35.35
35.52
34.87
33.56
31.72
29.43
26.76
23.86
20.96
18.3
16.07
14.3
12.8
11.22
9.19
6.45
2.97
-1.07
-5.34
-9.52
-13.47
-17.25
-21.18
-25.67
-31.08
-37.52
-44.69
-51.81
-57.75
-61.26
-61.32
-57.44
-49.82
-39.22
-26.75
-13.55
-0.53
11.61
22.34
31.21
37.8
41.83
43.33
42.73
40.72
38.11
35.55
33.38
31.64
30.18
28.87
27.68
26.67
25.88
25.27
24.7
23.9
22.59
20.45
17.24
12.76
7.05
0.37
-6.76
-13.74
-20.06
-25.49
-30.24
-34.87
-40.05
-46.2
-53.15
-60.03
-65.42
-67.78
-66.05
-60.0
-50.37
-38.55
-25.99
-13.63
-1.68
10.18
22.26
34.48
46.13
56.13
63.53
67.94
69.71
69.78
69.2
68.69
68.38
67.85
66.48
63.8
59.78
54.85
49.7
45.08
41.56
39.45
38.91
39.82
41.76
43.8
44.45
42.0
35.05
23.13
7.02
-11.41
-29.89
-46.58
-60.64
-72.16
-81.69
-89.55
-95.39
-98.3
-97.26
-91.71
-81.92
-68.95
-54.27
-39.21
-24.65
-10.91
2.03
14.26
25.65
35.83
44.31
50.72
55.0
57.49
58.78
59.54
60.17
60.73
60.92
60.3
58.58
55.8
52.36
48.84
45.75
43.26
41.16
39.01
36.34
32.73
27.92
21.66
13.68
3.78
-7.98
-21.14
-34.73
-47.54
-58.42
-66.79
-72.81
-77.4
-81.82
-87.23
-94.05
-101.81
-109.17
-114.32
-115.55
-111.78
-102.85
-89.47
-72.99
-54.95
-36.73
-19.32
-3.31
10.96
23.28
33.46
41.33
46.86
50.26
52.0
52.72
52.96
53.01
52.8
52.12
50.78
48.86
46.68
44.63
42.99
41.72
40.6
39.32
37.67
35.58
33.03
29.91
25.96
20.86
14.37
6.51
-2.46
-12.15
-22.17
-32.22
-42.02
-51.14
-58.96
-64.56
-67.12
-66.11
-61.6
-54.32
-45.35
-35.81
-26.5
-17.73
-9.42
-1.45
6.18
13.22
19.27
24.02
27.46
29.88
31.77
33.57
35.41
37.09
38.25
38.48
37.63
35.86
33.47
30.83
28.16
25.47
22.62
19.45
15.87
11.92
7.72
3.48
-0.63
-4.51
-8.21
-11.86
-15.69
-19.98
-24.97
-30.85
-37.59
-44.88
-52.0
-57.9
-61.41
-61.57
-57.97
-50.96
-41.49
-30.86
-20.23
-10.38
-1.59
6.19
13.09
19.14
24.21
28.07
30.63
31.95
32.25
31.85
31.05
30.03
28.84
27.46
25.89
24.11
22.18
20.14
18.04
15.92
13.76
11.48
8.93
5.92
2.3
-1.98
-6.78
-11.8
-16.71
-21.21
-25.18
-28.72
-32.0
-35.29
-38.83
-42.89
-47.71
-53.34
-59.5
-65.41
-69.88
-71.6
-69.57
-63.5
-53.92
-42.0
-29.1
-16.35
-4.41
6.48
16.3
24.99
32.31
37.94
41.62
43.32
43.28
41.92
39.76
37.27
34.79
32.51
30.46
28.58
26.77
24.94
23.02
20.97
18.73
16.25
13.4
10.07
6.27
2.14
-2.01
-5.84
-9.12
-11.86
-14.33
-17.0
-20.38
-24.92
-30.85
-38.08
-46.11
-54.04
-60.63
-64.64
-65.1
-61.62
-54.49
-44.6
-33.17
-21.33
-9.98
0.37
9.44
17.14
23.42
28.25
31.68
33.79
34.74
34.69
33.81
32.24
30.15
27.78
25.39
23.26
21.55
20.24
19.16
18.04
16.64
14.79
12.46
9.67
6.46
2.87
-1.08
-5.36
-9.97
-14.99
-20.66
-27.21
-34.77
-43.1
-51.39
-58.43
-62.84
-63.57
-60.17
-52.99
-42.94
-31.18
-18.76
-6.36
5.59
16.81
26.94
35.46
41.79
45.54
46.67
45.56
42.91
39.51
36.0
32.72
29.69
26.79
23.95
21.26
18.99
17.46
16.8
16.85
17.15
17.06
16.01
13.64
9.92
5.03
-0.7
-7.02
-13.77
-20.97
-28.72
-37.12
-46.19
-55.72
-65.14
-73.54
-79.76
-82.69
-81.59
-76.31
-67.35
-55.68
-42.41
-28.51
-14.72
-1.48
10.87
22.05
31.77
39.76
45.9
50.24
53.0
54.56
55.26
55.4
55.13
54.5
53.48
52.06
50.27
48.22
46.07
43.92
41.84
39.7
37.3
34.34
30.58
25.95
20.57
14.72
8.75
2.95
-2.61
-8.01
-13.48
-19.31
-25.78
-33.09
-41.27
-50.12
-59.07
-67.2
-73.37
-76.47
-75.71
-70.88
-62.4
-51.19
-38.44
-25.28
-12.64
-1.15
8.83
17.09
23.58
28.29
31.39
33.14
33.9
34.03
33.75
33.06
31.84
29.98
27.56
24.86
22.34
20.35
18.98
17.96
16.77
14.88
12.01
8.22
3.92
-0.41
-4.36
-7.76
-10.75
-13.61
-16.73
-20.44
-24.91
-30.01
-35.25
-39.81
-42.64
-42.71
-39.41
-32.64
-22.95
-11.31
1.15
13.46
24.9
35.01
43.45
49.91
54.16
56.14
56.1
54.62
52.55
50.73
49.75
49.76
50.43
51.13
51.22
50.23
48.07
44.95
41.24
37.28
33.24
29.06
24.52
19.34
13.41
6.87
0.1
-6.39
-12.21
-17.3
-21.96
-26.76
-32.24
-38.6
-45.46
-51.91
-56.68
-58.52
-56.53
-50.51
-40.91
-28.84
-15.61
-2.45
9.79
20.66
30.02
37.72
43.51
47.0
48.0
46.67
43.79
40.51
38.08
37.32
38.38
40.72
43.44
45.65
46.79
46.78
45.76
43.77
40.58
35.63
28.4
18.7
7.03
-5.53
-17.64
-28.17
-36.65
-43.38
-49.17
-54.95
-61.38
-68.7
-76.77
-85.36
-94.24
-103.15
-111.67
-118.94
-123.73
-124.7
-120.88
-112.03
-98.86
-82.72
-65.21
-47.67
-30.96
-15.46
-1.26
11.59
22.93
32.53
40.17
45.73
49.29
51.05
51.36
50.56
48.99
46.96
44.67
42.33
40.03
37.86
35.78
33.73
31.55
29.11
26.29
23.02
19.29
15.14
10.62
5.85
0.93
-4.03
-9.0
-14.01
-19.2
-24.68
-30.54
-36.77
-43.28
-50.07
-57.06
-64.11
-70.79
-76.29
-79.58
-79.66
-75.98
-68.59
-58.16
-45.69
-32.15
-18.28
-4.53
8.83
21.53
33.16
43.26
51.43
57.44
61.26
63.1
63.31
62.26
60.27
57.54
54.2
50.39
46.38
42.48
39.04
36.24
34.01
32.05
29.88
27.06
23.37
18.88
13.9
8.81
3.88
-0.92
-5.86
-11.39
-17.9
-25.59
-34.32
-43.5
-52.19
-59.21
-63.36
-63.71
-59.86
-52.03
-41.01
-27.98
-14.21
-0.8
11.39
21.74
29.77
35.18
37.88
38.14
36.6
34.15
31.65
29.73
28.59
28.07
27.8
27.51
27.1
26.64
26.27
26.01
25.67
24.92
23.37
20.83
17.28
12.96
8.19
3.28
-1.58
-6.34
-11.11
-16.07
-21.48
-27.6
-34.6
-42.41
-50.57
-58.17
-63.98
-66.73
-65.5
-60.02
-50.75
-38.75
-25.35
-11.78
1.05
12.6
22.64
31.12
37.99
43.24
46.85
48.89
49.56
49.15
48.03
46.55
44.92
43.26
41.55
39.73
37.77
35.65
33.35
30.84
28.01
24.76
20.92
16.41
11.17
5.23
-1.27
-8.16
-15.2
-22.18
-28.92
-35.33
-41.43
-47.38
-53.4
-59.81
-66.87
-74.66
-82.96
-91.06
-97.88
-102.15
-102.77
-99.11
-91.21
-79.74
-65.69
-50.14
-33.98
-17.88
-2.36
12.08
24.99
35.94
44.71
51.25
55.73
58.38
59.47
59.22
57.84
55.56
52.73
49.68
46.74
44.11
41.77
39.49
36.87
33.45
28.92
23.25
16.7
9.82
3.23
-2.55
-7.2
-10.71
-13.28
-15.36
-17.5
-20.31
-24.25
-29.35
-35.01
-40.07
-43.08
-42.76
-38.51
-30.55
-19.79
-7.46
5.24
17.31
27.97
36.57
42.61
45.85
46.44
45.02
42.5
39.84
37.71
36.42
35.9
35.88
36.02
35.99
35.53
34.42
32.56
29.95
26.61
22.63
18.01
12.71
6.74
0.21
-6.59
-13.32
-19.61
-25.32
-30.55
-35.69
-41.24
-47.68
-55.28
-63.92
-72.98
-81.42
-87.94
-91.28
-90.53
-85.35
-76.12
-63.71
-49.3
-34.02
-18.75
-4.11
9.52
21.79
32.35
40.87
47.18
51.39
53.93
55.44
56.52
57.6
58.77
59.86
60.63
60.9
60.68
60.13
59.45
58.75
57.94
56.68
54.5
50.98
45.9
39.39
31.91
24.07
16.4
9.19
2.36
-4.42
-11.61
-19.6
-28.5
-38.07
-47.6
-56.01
-62.11
-64.84
-63.61
-58.46
-50.01
-39.27
-27.36
-15.23
-3.6
7.08
16.51
24.49
30.87
35.62
38.76
40.43
40.86
40.37
39.32
38.08
36.91
35.89
34.94
33.82
32.32
30.34
27.98
25.47
23.08
20.9
18.78
16.43
13.45
9.62
4.92
-0.43
-6.09
-11.69
-17.02
-22.04
-26.88
-31.8
-37.12
-43.1
-49.86
-57.19
-64.51
-70.9
-75.26
-76.59
-74.3
-68.35
-59.29
-48.1
-35.93
-23.84
-12.61
-2.68
5.75
12.63
17.94
21.71
23.99
24.96
24.93
24.23
23.19
22.03
20.84
19.66
18.55
17.61
16.9
16.38
15.82
14.89
13.33
11.0
8.04
4.73
1.39
-1.8
-4.84
-7.92
-11.38
-15.6
-20.88
-27.33
-34.65
-42.11
-48.53
-52.63
-53.32
-50.13
-43.32
-33.81
-22.86
-11.66
-1.09
8.3
16.29
22.74
27.57
30.77
32.45
32.89
32.5
31.71
30.8
29.86
28.78
27.41
25.63
23.52
21.3
19.27
17.62
16.33
15.12
13.57
11.3
8.16
4.29
0.05
-4.14
-7.95
-11.3
-14.38
-17.51
-21.1
-25.44
-30.61
-36.43
-42.34
-47.47
-50.78
-51.31
-48.53
-42.57
-34.19
-24.56
-14.83
-5.77
2.43
9.93
17.0
23.59
29.3
33.54
35.84
36.18
35.07
33.31
31.7
30.71
30.33
30.24
30.0
29.34
28.27
26.97
25.71
24.61
23.56
22.18
20.01
16.69
12.15
6.65
0.74
-5.01
-10.23
-14.82
-19.0
-23.1
-27.46
-32.28
-37.69
-43.64
-49.96
-56.18
-61.56
-65.16
-66.09
-63.75
-58.06
-49.47
-38.81
-27.02
-14.95
-3.28
7.51
17.01
24.91
30.95
35.03
37.23
37.85
37.3
35.99
34.25
32.3
30.23
28.09
25.94
23.84
21.86
20.0
18.24
16.49
14.59
12.37
9.7
6.5
2.84
-1.13
-5.2
-9.15
-12.88
-16.38
-19.8
-23.3
-27.1
-31.4
-36.37
-42.11
-48.51
-55.13
-61.19
-65.63
-67.36
-65.59
-60.1
-51.29
-40.07
-27.56
-14.8
-2.59
8.56
18.35
26.6
33.26
38.38
42.14
44.8
46.61
47.76
48.35
48.4
47.93
46.99
45.68
44.12
42.42
40.63
38.67
36.37
33.51
29.91
25.5
20.42
14.89
9.23
3.75
-1.39
-6.22
-10.93
-15.91
-21.46
-27.66
-34.16
-40.12
-44.43
-46.02
-44.25
-39.12
-31.29
-21.75
-11.56
-1.55
7.74
16.01
23.04
28.65
32.74
35.32
36.59
36.85
36.5
35.88
35.22
34.59
33.98
33.34
32.62
31.82
30.95
29.97
28.82
27.41
25.65
23.44
20.73
17.48
13.68
9.38
4.74
0.01
-4.6
-8.9
-12.88
-16.73
-20.75
-25.26
-30.49
-36.45
-42.95
-49.59
-55.8
-60.94
-64.35
-65.5
-64.02
-59.8
-53.03
-44.11
-33.65
-22.36
-11.0
-0.26
9.28
17.16
23.19
27.38
29.93
31.18
31.49
31.17
30.37
29.2
27.73
26.13
24.66
23.63
23.26
23.63
24.61
25.89
27.08
27.72
27.47
26.05
23.35
19.46
14.63
9.24
3.71
-1.63
-6.58
-11.12
-15.37
-19.52
-23.81
-28.5
-33.85
-40.01
-46.92
-54.13
-60.78
-65.7
-67.75
-66.16
-60.85
-52.42
-42.02
-30.92
-20.17
-10.35
-1.64
6.08
12.93
18.92
23.94
27.83
30.5
32.01
32.55
32.41
31.84
31.05
30.14
29.15
28.03
26.76
25.37
23.93
22.58
21.35
20.13
18.64
16.55
13.62
9.87
5.55
1.06
-3.28
-7.34
-11.23
-15.14
-19.23
-23.58
-28.24
-33.29
-38.86
-44.93
-51.18
-56.88
-61.03
-62.63
-61.04
-56.18
-48.55
-39.03
-28.59
-18.11
-8.2
0.73
8.46
14.82
19.73
23.17
25.24
26.11
26.07
25.39
24.35
23.15
21.89
20.61
19.28
17.88
16.4
14.81
13.02
10.87
8.1
4.45
-0.24
-5.94
-12.39
-19.2
-25.98
-32.47
-38.66
-44.76
-51.1
-57.98
-65.48
-73.28
-80.62
-86.47
-89.72
-89.56
-85.79
-78.79
-69.42
-58.59
-46.98
-34.92
-22.5
-9.81
2.83
14.8
25.38
33.99
40.37
44.67
47.33
48.88
49.71
50.03
49.91
49.37
48.54
47.61
46.75
45.94
44.92
43.27
40.5
36.39
31.0
24.75
18.23
12.01
6.46
1.72
-2.35
-6.03
-9.72
-13.81
-18.57
-24.0
-29.67
-34.62
-37.62
-37.37
-33.02
-24.46
-12.45
1.63
16.18
29.77
41.55
51.18
58.71
64.3
68.06
69.96
69.89
67.83
63.95
58.63
52.41
45.82
39.26
32.99
27.16
21.87
17.27
13.49
10.56
8.28
6.25
3.92
0.78
-3.4
-8.49
-14.14
-19.85
-25.2
-29.96
-34.14
-37.96
-41.84
-46.29
-51.74
-58.4
-66.05
-73.89
-80.64
-84.9
-85.49
-81.88
-74.32
-63.73
-51.32
-38.24
-25.26
-12.7
-0.64
10.94
21.91
31.98
40.69
47.65
52.62
55.56
56.64
56.14
54.33
51.48
47.81
43.59
39.15
34.79
30.78
27.22
24.04
21.0
17.75
13.98
9.49
4.22
-1.71
-8.07
-14.57
-20.94
-27.02
-32.82
-38.48
-44.29
-50.58
-57.67
-65.7
-74.6
-83.86
-92.62
-99.67
-103.73
-103.78
-99.34
-90.64
-78.5
-64.13
-48.7
-33.15
-18.06
-3.75
9.59
21.7
32.3
41.08
47.85
52.59
55.51
56.97
57.38
57.03
56.13
54.75
52.97
50.89
48.7
46.56
44.57
42.61
40.39
37.53
33.73
28.91
23.27
17.22
11.21
5.61
0.55
-4.1
-8.68
-13.65
-19.54
-26.77
-35.45
-45.23
-55.16
-63.81
-69.57
-71.11
-67.76
-59.68
-47.82
-33.53
-18.29
-3.31
10.53
22.7
32.92
41.09
47.24
51.49
54.06
55.25
55.34
54.59
53.19
51.32
49.11
46.76
44.5
42.5
40.83
39.33
37.67
35.38
32.14
27.79
22.48
16.58
10.52
4.57
-1.22
-7.1
-13.52
-20.89
-29.4
-38.72
-48.02
-56.01
-61.24
-62.48
-59.1
-51.27
-39.88
-26.29
-11.95
1.97
14.69
25.84
35.27
42.94
48.78
52.74
54.89
55.45
54.81
53.34
51.39
49.1
46.52
43.7
40.78
38.06
35.84
34.29
33.25
32.28
30.8
28.33
24.78
20.44
15.94
11.86
8.53
5.79
3.04
-0.61
-6.06
-13.83
-23.92
-35.6
-47.56
-58.12
-65.59
-68.7
-66.86
-60.27
-49.83
-36.87
-22.77
-8.79
4.18
15.62
25.34
33.35
39.77
44.74
48.39
50.82
52.13
52.44
51.86
50.49
48.4
45.65
42.39
38.87
35.4
32.33
29.81
27.77
25.87
23.65
20.7
16.88
12.38
7.66
3.19
-0.72
-4.1
-7.32
-11.01
-15.83
-22.27
-30.45
-39.98
-49.92
-58.92
-65.54
-68.57
-67.33
-61.85
-52.71
-40.86
-27.35
-13.19
0.78
13.82
25.4
35.14
42.92
48.73
52.68
54.94
55.68
55.13
53.6
51.38
48.7
45.58
41.85
37.25
31.57
24.8
17.21
9.21
1.21
-6.54
-14.02
-21.27
-28.23
-34.7
-40.39
-45.06
-48.69
-51.6
-54.19
-56.8
-59.61
-62.55
-65.51
-68.31
-70.67
-72.08
-71.72
-68.56
-61.7
-50.62
-35.46
-16.98
3.49
24.37
44.02
61.09
74.66
84.39
90.41
93.19
93.19
90.84
86.6
81.13
75.42
70.64
67.81
67.43
69.26
72.44
75.81
78.35
79.39
78.68
76.27
72.26
66.73
59.74
51.47
42.25
32.6
23.0
13.71
4.65
-4.49
-13.95
-23.57
-32.62
-40.0
-44.6
-45.73
-43.37
-38.09
-30.74
-22.18
-13.1
-4.07
4.36
11.57
16.94
19.94
20.39
18.44
14.61
9.65
4.36
-0.56
-4.64
-7.67
-9.71
-10.97
-11.77
-12.34
-12.87
-13.48
-14.32
-15.57
-17.47
-20.17
-23.74
-28.12
-33.17
-38.69
-44.51
-50.49
-56.56
-62.79
-69.35
-76.4
-83.9
-91.4
-97.97
-102.37
-103.4
-100.36
-93.24
-82.75
-69.95
-55.91
-41.42
-26.95
-12.77
0.77
13.24
24.09
32.81
38.99
42.44
43.22
41.66
38.36
34.17
29.97
26.52
24.32
23.47
23.78
24.87
26.41
28.16
30.07
32.12
34.25
36.29
37.93
38.84
38.76
37.66
35.79
33.6
31.6
30.15
29.35
29.03
28.85
28.46
27.7
26.54
25.13
23.6
22.11
20.72
19.47
18.23
16.65
14.13
9.91
3.36
-5.66
-16.6
-28.25
-39.09
-47.78
-53.6
-56.49
-56.94
-55.69
-53.37
-50.48
-47.36
-44.31
-41.59
-39.41
-37.88
-36.89
-36.2
-35.46
-34.38
-32.82
-30.89
-28.86
-27.19
-26.3
-26.45
-27.7
-29.87
-32.63
-35.66
-38.68
-41.59
-44.42
-47.34
-50.66
-54.7
-59.7
-65.59
-71.86
-77.5
-81.2
-81.7
-78.15
-70.41
-59.08
-45.27
-30.34
-15.55
-1.93
9.86
19.46
26.82
32.11
35.66
37.89
39.17
39.77
39.85
39.41
38.44
36.95
34.99
32.77
30.54
28.54
26.91
25.56
24.14
22.21
19.37
15.46
10.54
4.84
-1.32
-7.68
-14.05
-20.31
-26.43
-32.49
-38.65
-45.09
-51.77
-58.3
-63.83
-67.28
-67.64
-64.32
-57.4
-47.57
-35.93
-23.63
-11.64
-0.62
9.02
17.0
23.15
27.37
29.75
30.61
30.49
30.0
29.64
29.65
30.01
30.48
30.84
31.0
31.04
31.09
31.19
31.13
30.53
29.02
26.34
22.54
17.88
12.73
7.43
2.11
-3.23
-8.72
-14.52
-20.81
-27.77
-35.54
-44.03
-52.82
-61.06
-67.51
-70.87
-70.11
-64.86
-55.48
-42.95
-28.56
-13.57
0.99
14.37
25.99
35.45
42.5
47.08
49.5
50.28
50.12
49.63
49.16
48.79
48.32
47.51
46.21
44.43
42.36
40.26
38.31
36.54
34.75
32.63
29.87
26.27
21.87
16.84
11.47
5.98
0.44
-5.22
-11.18
-17.6
-24.65
-32.49
-41.21
-50.72
-60.63
-70.05
-77.67
-82.08
-82.2
-77.72
-69.21
-57.98
-45.61
-33.48
-22.39
-12.6
-4.04
3.48
9.96
15.3
19.33
22.07
23.73
24.7
25.39
26.04
26.61
26.86
26.49
25.35
23.53
21.42
19.48
18.05
17.19
16.6
15.79
14.27
11.79
8.47
4.65
0.77
-2.86
-6.27
-9.71
-13.53
-18.06
-23.49
-29.82
-36.89
-44.31
-51.44
-57.39
-61.15
-61.85
-59.05
-52.85
-43.9
-33.18
-21.66
-10.07
1.13
11.76
21.72
30.85
38.9
45.5
50.34
53.23
54.15
53.26
50.91
47.51
43.54
39.46
35.69
32.49
29.95
27.92
26.03
23.89
21.15
17.64
13.43
8.73
3.83
-1.07
-5.9
-10.8
-16.12
-22.31
-29.75
-38.42
-47.78
-56.63
-63.41
-66.55
-65.01
-58.55
-47.89
-34.35
-19.49
-4.68
9.17
21.59
32.36
41.37
48.44
53.37
56.03
56.45
54.87
51.76
47.64
42.99
38.15
33.3
28.57
24.09
20.01
16.47
13.48
10.86
8.27
5.25
1.43
-3.36
-9.0
-15.16
-21.39
-27.34
-32.84
-37.96
-42.98
-48.33
-54.45
-61.64
-69.81
-78.36
-86.13
-91.61
-93.35
-90.4
-82.61
-70.68
-55.92
-39.85
-23.72
-8.35
5.91
18.98
30.83
41.33
50.21
57.24
62.3
65.51
67.19
67.72
67.41
66.42
64.77
62.48
59.69
56.66
53.78
51.31
49.4
47.88
46.45
44.69
42.21
38.71
34.07
28.36
21.78
14.68
7.43
0.3
-6.59
-13.34
-20.17
-27.45
-35.52
-44.54
-54.27
-64.0
-72.52
-78.31
-79.98
-76.64
-68.33
-55.94
-40.99
-25.17
-9.85
4.1
16.27
26.57
34.93
41.27
45.55
47.87
48.64
48.4
47.81
47.39
47.38
47.75
48.29
48.73
48.86
48.62
48.14
47.57
47.1
46.74
46.39
45.75
44.5
42.41
39.46
35.86
31.98
28.1
24.32
20.48
16.24
11.24
5.2
-2.03
-10.57
-20.43
-31.4
-42.85
-53.59
-62.01
-66.43
-65.63
-59.31
-48.22
-33.95
-18.48
-3.59
9.43
20.01
28.07
33.84
37.6
39.55
39.8
38.45
35.77
32.21
28.37
24.85
22.14
20.46
19.82
20.09
21.03
22.34
23.63
24.44
24.29
22.75
19.66
15.11
9.46
3.2
-3.23
-9.58
-15.84
-22.24
-29.04
-36.35
-43.86
-50.82
-56.06
-58.29
-56.53
-50.4
-40.32
-27.33
-12.89
1.53
14.68
25.67
34.06
39.74
42.91
44.01
43.58
42.15
40.17
37.86
35.32
32.55
29.56
26.45
23.33
20.34
17.53
14.88
12.25
9.46
6.29
2.55
-1.84
-6.8
-12.05
-17.15
-21.66
-25.25
-27.87
-29.86
-31.85
-34.65
-38.91
-44.94
-52.42
-60.43
-67.58
-72.36
-73.5
-70.33
-62.86
-51.77
-38.04
-22.78
-6.98
8.5
22.87
35.38
45.41
52.59
56.97
58.92
59.09
58.11
56.49
54.48
52.16
49.53
46.57
43.25
39.63
35.81
31.96
28.34
25.16
22.47
20.11
17.75
15.0
11.63
7.58
3.03
-1.81
-6.81
-11.94
-17.28
-22.98
-29.16
-35.95
-43.38
-51.27
-59.09
-65.96
-70.75
-72.37
-70.11
-63.88
-54.23
-42.18
-29.0
-15.81
-3.51
7.35
16.48
23.77
29.22
32.92
34.98
35.57
34.96
33.49
31.58
29.57
27.73
26.14
24.75
23.5
22.33
21.21
20.01
18.49
16.27
12.94
8.22
2.12
-5.03
-12.61
-19.91
-26.34
-31.5
-35.31
-37.98
-39.97
-41.91
-44.51
-48.33
-53.57
-59.87
-66.34
-71.64
-74.4
-73.54
-68.54
-59.62
-47.57
-33.53
-18.73
-4.25
9.07
20.67
30.21
37.5
42.51
45.38
46.38
45.88
44.34
42.09
39.4
36.41
33.25
30.14
27.37
25.26
24.0
23.52
23.45
23.22
22.32
20.43
17.5
13.72
9.33
4.51
-0.7
-6.37
-12.54
-19.2
-26.21
-33.2
-39.61
-44.78
-48.0
-48.63
-46.32
-41.04
-33.17
-23.45
-12.79
-2.13
7.73
16.26
23.21
28.56
32.46
35.16
36.96
38.15
38.96
39.53
39.85
39.74
38.99
37.41
35.03
32.09
28.96
25.92
23.07
20.23
17.1
13.37
8.91
3.83
-1.65
-7.26
-12.89
-18.62
-24.7
-31.48
-39.25
-48.11
-57.79
-67.64
-76.54
-83.2
-86.39
-85.3
-79.76
-70.35
-58.17
-44.59
-30.9
-18.09
-6.75
2.93
10.94
17.37
22.33
25.83
27.96
28.9
29.01
28.78
28.65
28.89
29.44
30.02
30.21
29.71
28.47
26.67
24.6
22.43
20.12
17.38
13.88
9.36
3.89
-2.23
-8.47
-14.39
-19.7
-24.55
-29.42
-34.99
-41.8
-49.95
-58.87
-67.34
-73.78
-76.72
-75.24
-69.23
-59.37
-46.84
-32.99
-18.97
-5.62
6.56
17.26
26.28
33.5
38.84
42.36
44.27
44.93
44.76
44.14
43.35
42.5
41.66
40.87
40.19
39.67
39.34
39.07
38.63
37.75
36.17
33.68
30.19
25.71
20.38
14.48
8.35
2.36
-3.21
-8.27
-12.9
-17.36
-22.01
-27.23
-33.35
-40.52
-48.56
-56.83
-64.26
-69.47
-71.12
-68.29
-60.83
-49.4
-35.29
-20.1
-5.26
8.18
19.67
29.03
36.25
41.39
44.54
45.88
45.74
44.59
42.91
41.04
39.14
37.19
35.12
32.91
30.64
28.44
26.36
24.32
22.11
19.51
16.35
12.62
8.43
3.93
-0.73
-5.47
-10.23
-14.94
-19.59
-24.27
-29.23
-34.79
-41.17
-48.2
-55.2
-60.96
-64.11
-63.51
-58.67
-49.95
-38.39
-25.38
-12.22
0.16
11.31
21.06
29.37
36.13
41.17
44.37
45.79
45.79
44.91
43.74
42.68
41.84
41.08
40.15
38.9
37.33
35.61
33.93
32.34
30.72
28.73
26.06
22.53
18.15
13.15
7.86
2.58
-2.48
-7.23
-11.72
-16.1
-20.54
-25.27
-30.52
-36.49
-43.23
-50.53
-57.84
-64.26
-68.63
-69.86
-67.16
-60.38
-50.03
-37.17
-23.13
-9.11
4.04
15.82
26.02
34.46
40.98
45.45
47.9
48.67
48.29
47.34
46.2
45.0
43.64
42.04
40.25
38.5
37.07
36.1
35.47
34.9
34.03
32.67
30.78
28.43
25.73
22.69
19.19
15.12
10.39
5.07
-0.65
-6.47
-12.1
-17.3
-21.99
-26.29
-30.52
-35.15
-40.62
-47.11
-54.37
-61.59
-67.58
-70.99
-70.81
-66.52
-58.33
-47.01
-33.63
-19.37
-5.25
7.88
19.35
28.71
35.8
40.72
43.82
45.6
46.51
46.88
46.84
46.41
45.62
44.58
43.45
42.36
41.38
40.44
39.45
38.29
36.95
35.45
33.84
32.14
30.31
28.25
25.86
23.06
19.76
15.94
11.55
6.68
1.43
-4.01
-9.44
-14.74
-19.87
-25.0
-30.41
-36.47
-43.49
-51.46
-59.92
-67.92
-74.16
-77.29
-76.33
-70.97
-61.73
-49.73
-36.44
-23.29
-11.37
-1.34
6.45
11.89
15.03
16.07
15.43
13.71
11.61
9.66
8.13
6.94
5.87
4.69
3.38
2.15
1.24
0.8
0.73
0.69
0.23
-1.04
-3.31
-6.57
-10.59
-15.0
-19.41
-23.49
-27.19
-30.7
-34.46
-38.96
-44.58
-51.3
-58.6
-65.55
-70.97
-73.8
-73.28
-69.21
-61.93
-52.19
-40.88
-28.86
-16.75
-4.89
6.59
17.61
27.96
37.25
44.89
50.33
53.28
53.87
52.76
50.85
49.07
48.04
47.95
48.64
49.77
50.95
51.82
52.07
51.45
49.7
46.69
42.44
37.13
31.01
24.37
17.45
10.45
3.52
-3.22
-9.76
-16.16
-22.62
-29.4
-36.75
-44.81
-53.48
-62.42
-70.96
-78.2
-83.1
-84.62
-81.93
-74.68
-63.2
-48.54
-32.33
-16.39
-2.31
8.97
17.24
22.99
26.96
29.86
32.06
33.62
34.45
34.47
33.8
32.69
31.48
30.45
29.73
29.35
29.21
29.15
29.03
28.71
28.08
27.04
25.47
23.28
20.37
16.73
12.47
7.85
3.19
-1.22
-5.25
-8.99
-12.79
-17.09
-22.4
-29.05
-37.1
-46.16
-55.38
-63.5
-69.07
-70.84
-68.06
-60.71
-49.49
-35.65
-20.69
-6.05
7.1
17.95
26.13
31.61
34.63
35.62
35.05
33.44
31.28
29.02
27.03
25.55
24.59
24.0
23.49
22.8
21.82
20.61
19.34
18.16
17.12
16.06
14.7
