26.27
24.36
20.89
16.13
10.44
4.27
-1.99
-8.15
-14.3
-20.71
-27.74
-35.53
-43.83
-51.88
-58.48
-62.29
-62.21
-57.72
-49.05
-37.19
-23.57
-9.71
3.12
14.13
23.02
29.85
34.84
38.25
40.27
41.05
40.78
39.68
38.06
36.22
34.39
32.7
31.11
29.49
27.75
25.82
23.8
21.86
20.16
18.71
17.32
15.68
13.46
10.51
6.91
2.99
-0.89
-4.44
-7.61
-10.59
-13.66
-17.19
-21.46
-26.67
-32.79
-39.48
-45.99
-51.23
-53.96
-53.2
-48.51
-40.24
-29.39
-17.32
-5.37
5.41
14.38
21.31
26.17
29.09
30.31
30.12
28.86
26.89
24.49
21.87
19.15
16.44
13.85
11.54
9.62
8.18
7.17
6.39
5.56
4.36
2.56
0.08
-3.01
-6.52
-10.2
-13.81
-17.18
-20.27
-23.22
-26.34
-30.07
-34.77
-40.53
-46.87
-52.79
-56.94
-58.04
-55.3
-48.72
-39.05
-27.54
-15.57
-4.27
5.58
13.6
19.65
23.77
26.09
26.84
26.34
25.04
23.36
21.71
20.35
19.36
18.68
18.14
17.63
17.1
16.58
16.11
15.57
14.77
13.38
11.13
7.98
4.07
-0.24
-4.55
-8.54
-12.08
-15.26
-18.37
-21.89
-26.3
-31.88
-38.47
-45.32
-51.18
-54.63
-54.46
-50.11
-41.81
-30.46
-17.37
-3.92
8.71
19.73
28.7
35.55
40.37
43.44
45.02
45.4
44.82
43.57
41.91
40.12
38.42
36.94
35.71
34.62
33.54
32.35
31.0
29.51
27.93
26.25
24.35
22.08
19.24
15.75
11.67
7.17
2.48
-2.21
-6.78
-11.17
-15.38
-19.5
-23.76
-28.57
-34.33
-41.22
-48.98
-56.71
-63.07
-66.57
-66.1
-61.26
-52.47
-40.87
-27.93
-15.06
-3.32
6.73
14.95
21.44
26.42
30.01
32.33
33.46
33.57
32.92
31.8
30.51
29.23
27.99
26.78
25.55
24.32
23.2
22.28
21.59
21.04
20.42
19.47
17.97
15.75
12.83
9.34
5.5
1.52
-2.42
-6.24
-9.89
-13.38
-16.73
-20.01
-23.42
-27.28
-31.93
-37.53
-43.86
-50.2
-55.39
-58.16
-57.5
-53.0
-44.98
-34.38
-22.45
-10.41
0.73
10.33
18.04
23.74
27.47
29.34
29.59
28.54
26.63
24.35
22.13
20.25
18.81
17.69
16.7
15.61
14.33
12.91
11.48
10.18
8.99
7.72
6.11
3.86
0.83
-2.92
-7.14
-11.5
-15.73
-19.66
-23.34
-26.92
-30.75
-35.24
-40.77
-47.46
-54.99
-62.49
-68.62
-71.98
-71.52
-66.93
-58.68
-47.81
-35.56
-23.04
-11.04
-0.07
9.48
17.38
23.52
28.03
31.21
33.47
35.15
36.43
37.38
38.06
38.54
38.91
39.18
39.2
38.69
37.4
35.23
32.27
28.73
24.81
20.55
15.84
10.49
4.38
-2.42
-9.63
-16.87
-23.78
-30.23
-36.35
-42.59
-49.47
-57.42
-66.41
-75.87
-84.64
-91.25
-94.29
-92.84
-86.65
-76.29
-62.91
-47.87
-32.49
-17.79
-4.39
7.38
17.4
25.61
32.04
36.8
40.07
42.11
43.27
43.87
44.15
44.28
44.34
44.34
44.27
44.15
43.94
43.55
42.87
41.8
40.28
38.38
36.17
33.73
31.06
28.03
24.51
20.4
15.77
10.84
5.86
0.97
-3.88
-8.97
-14.71
-21.46
-29.45
-38.54
-48.2
-57.43
-64.94
-69.39
-69.7
-65.36
-56.62
-44.34
-29.88
-14.61
0.3
14.08
26.31
36.85
45.69
52.86
58.37
62.25
64.58
65.54
65.35
64.31
62.7
60.72
58.48
56.02
53.36
50.57
47.71
44.85
42.02
39.12
36.04
32.65
28.89
24.75
20.26
15.48
10.45
5.26
0.01
-5.17
-10.18
-14.96
-19.6
-24.34
-29.53
-35.54
-42.59
-50.57
-58.92
-66.56
-72.16
-74.39
-72.39
-66.0
-55.85
-43.12
-29.24
-15.48
-2.78
8.32
17.52
24.69
29.79
32.83
34.03
33.71
32.34
30.38
28.21
26.08
24.04
22.09
20.15
18.2
16.23
14.25
12.18
9.85
7.05
3.55
-0.72
-5.62
-10.84
-15.99
-20.77
-25.08
-29.05
-33.02
-37.46
-42.72
-48.9
-55.67
-62.26
-67.54
-70.28
-69.49
-64.69
-56.03
-44.28
-30.64
-16.4
-2.76
9.37
19.42
27.17
32.64
36.07
37.82
38.27
37.81
36.76
35.41
33.98
32.65
31.5
30.53
29.67
28.73
27.52
25.84
23.52
20.5
16.78
12.47
7.76
2.87
-1.99
-6.67
-11.18
-15.74
-20.79
-26.83
-34.2
-42.79
-51.91
-60.27
-66.31
-68.6
-66.32
-59.48
-48.87
-35.79
-21.63
-7.59
5.5
17.1
26.86
34.58
40.13
43.54
45.06
45.11
44.21
42.87
41.48
40.21
39.04
37.88
36.59
35.12
33.47
31.7
29.85
27.92
25.81
23.31
20.22
16.36
11.68
6.31
0.51
-5.36
-11.0
-16.25
-21.16
-26.02
-31.24
-37.19
-43.99
-51.35
-58.48
-64.23
-67.33
-66.77
-62.15
-53.71
-42.28
-29.0
-15.0
-1.23
11.6
22.95
32.45
39.88
45.23
48.68
50.61
51.46
51.59
51.18
50.33
49.1
47.58
45.94
44.31
42.76
41.26
39.73
38.09
36.29
34.28
31.94
29.06
25.37
20.72
15.18
9.14
3.14
-2.3
-6.98
-11.14
-15.37
-20.41
-26.86
-34.86
-44.0
-53.25
-61.23
-66.51
-67.92
-64.89
-57.53
-46.57
-33.18
-18.62
-4.06
9.58
21.61
31.63
39.39
44.84
48.13
49.58
49.61
48.67
47.17
45.41
43.56
41.66
39.67
37.53
35.23
32.82
30.45
28.25
26.23
24.22
21.86
18.72
14.52
9.24
3.26
-2.86
-8.56
-13.49
-17.67
-21.44
-25.36
-29.99
-35.75
-42.72
-50.51
-58.25
-64.74
-68.66
-68.93
-65.06
-57.27
-46.44
-33.89
-20.99
-8.87
1.74
10.5
17.3
22.22
25.37
26.91
27.07
26.18
24.63
22.84
21.15
19.75
18.64
17.74
16.91
16.0
14.91
13.5
11.69
9.4
6.58
3.27
-0.41
-4.29
-8.2
-12.04
-15.83
-19.77
-24.21
-29.51
-35.78
-42.67
-49.26
-54.23
-56.16
-54.06
-47.69
-37.62
-25.07
-11.47
1.96
14.39
25.39
34.74
42.31
47.95
51.56
53.23
53.23
52.07
50.3
48.42
46.75
45.38
44.21
43.02
41.61
39.82
37.66
35.18
32.44
29.43
25.98
21.89
17.0
11.33
5.17
-1.03
-6.79
-11.81
-16.09
-19.92
-23.84
-28.47
-34.35
-41.7
-50.29
-59.28
-67.39
-73.09
-75.05
-72.49
-65.4
-54.55
-41.22
-26.87
-12.81
0.05
11.24
20.61
28.26
34.32
38.9
42.07
43.91
44.61
44.5
43.99
43.45
43.04
42.69
42.07
40.86
38.91
36.3
33.36
30.46
27.82
25.4
22.92
19.98
16.34
11.94
7.02
1.98
-2.79
-7.02
-10.67
-13.93
-17.15
-20.85
-25.5
-31.45
-38.69
-46.71
-54.51
-60.72
-63.96
-63.17
-58.02
-48.96
-37.1
-23.88
-10.7
1.38
11.77
20.22
26.75
31.52
34.71
36.56
37.31
37.24
36.6
35.61
34.4
33.04
31.55
29.91
28.11
26.15
24.11
22.09
20.16
18.3
16.3
13.87
10.67
6.56
1.68
-3.61
-8.88
-13.79
-18.32
-22.69
-27.29
-32.55
-38.76
-45.94
-53.76
-61.49
-68.07
-72.26
-73.02
-69.78
-62.73
-52.71
-41.03
-29.07
-17.9
-8.14
-0.03
6.47
11.48
15.11
17.47
18.74
19.17
19.08
18.75
18.37
18.01
17.66
17.29
16.92
16.62
16.42
16.23
15.84
14.92
13.2
10.52
7.03
3.06
-0.96
-4.65
-7.86
-10.73
-13.64
-17.1
-21.55
-27.12
-33.45
-39.66
-44.51
-46.71
-45.3
-39.94
-31.03
-19.62
-7.06
5.33
16.55
26.07
33.74
39.64
43.92
46.65
47.91
47.76
46.42
44.24
41.68
39.14
36.88
34.95
33.19
31.4
29.42
27.21
24.82
22.35
19.88
17.34
14.59
11.39
7.55
3.03
-2.05
-7.4
-12.67
-17.58
-21.99
-25.97
-29.75
-33.73
-38.37
-43.99
-50.62
-57.83
-64.65
-69.71
-71.69
-69.62
-63.3
-53.3
-40.8
-27.19
-13.71
-1.23
9.78
19.12
26.77
32.74
37.14
40.07
41.73
42.36
42.2
41.49
40.44
39.22
37.95
36.72
35.51
34.27
32.87
31.17
29.09
26.62
23.84
20.86
17.72
14.38
10.79
6.85
2.61
-1.76
-6.06
-10.09
-13.81
-17.27
-20.69
-24.28
-28.31
-33.03
-38.6
-45.02
-51.91
-58.44
-63.48
-65.79
-64.42
-59.08
-50.15
-38.63
-25.81
-12.93
-0.97
9.52
18.27
25.28
30.67
34.63
37.37
39.09
39.98
40.17
39.8
38.99
37.87
36.56
35.18
33.82
32.5
31.19
29.81
28.28
26.5
24.4
21.95
19.08
15.75
11.92
7.58
2.79
-2.3
-7.5
-12.59
-17.4
-21.89
-26.1
-30.22
-34.48
-39.17
-44.55
-50.71
-57.4
-63.97
-69.37
-72.4
-72.01
-67.73
-59.79
-49.1
-36.98
-24.79
-13.58
-3.96
3.84
9.92
14.46
17.68
19.73
20.78
21.05
20.79
20.27
19.77
19.49
19.52
19.85
20.4
21.04
21.65
22.08
22.2
21.85
20.91
19.3
17.1
14.45
11.6
8.73
5.88
2.88
-0.58
-4.86
-10.23
-16.68
-23.81
-30.86
-36.74
-40.31
-40.64
-37.32
-30.61
-21.37
-10.87
-0.38
9.0
16.62
22.19
25.72
27.39
27.47
26.35
24.45
22.21
20.02
18.1
16.5
15.1
13.73
12.27
10.68
9.06
7.53
6.09
4.66
2.97
0.74
-2.23
-5.91
-10.06
-14.35
-18.41
-22.04
-25.27
-28.45
-32.11
-36.78
-42.79
-50.01
-57.76
-64.85
-69.91
-71.76
-69.66
-63.59
-54.14
-42.37
-29.5
-16.7
-4.9
5.31
13.69
20.28
25.25
28.84
31.22
32.56
33.05
32.89
32.33
31.52
30.45
29.01
27.12
24.79
22.26
19.89
17.97
16.57
15.42
14.12
12.2
9.42
5.8
1.57
-2.92
-7.33
-11.4
-15.01
-18.23
-21.3
-24.65
-28.81
-34.17
-40.79
-48.13
-55.1
-60.22
-62.05
-59.56
-52.58
-41.71
-28.25
-13.73
0.41
13.18
24.09
33.04
40.22
45.81
49.94
52.67
54.05
54.24
53.53
52.32
50.97
49.66
48.37
46.93
45.18
43.04
40.62
38.13
35.75
33.5
31.24
28.74
25.73
22.08
17.84
13.21
8.46
3.85
-0.51
-4.62
-8.64
-12.77
-17.27
-22.44
-28.49
-35.57
-43.46
-51.57
-58.87
-64.07
-65.99
-63.95
-57.95
-48.74
-37.51
-25.6
-14.13
-3.89
4.72
11.53
16.55
19.87
21.65
22.15
21.68
20.55
19.09
17.51
15.95
14.44
13.0
11.6
10.31
9.19
8.26
7.44
6.51
5.15
3.09
0.23
-3.3
-7.14
-10.85
-14.12
-16.87
-19.36
-22.1
-25.63
-30.32
-36.07
-42.27
-47.75
-51.19
-51.41
-47.79
-40.45
-30.21
-18.3
-6.02
5.58
15.85
24.5
31.52
36.99
40.94
43.45
44.59
44.57
43.74
42.55
41.39
40.48
39.8
39.13
38.23
36.91
35.21
33.34
31.54
29.89
28.28
26.35
23.69
20.05
15.46
10.25
4.92
-0.04
-4.37
-8.12
-11.56
-15.2
-19.53
-24.96
-31.58
-39.08
-46.66
-53.13
-57.17
-57.68
-54.14
-46.72
-36.27
-24.02
-11.29
0.81
11.57
20.63
27.92
33.54
37.67
40.48
42.13
42.78
42.59
41.81
40.66
39.36
38.06
36.82
35.62
34.35
32.93
31.26
29.3
27.04
24.53
21.79
18.87
15.76
12.43
8.84
4.94
0.68
-3.87
-8.61
-13.31
-17.74
-21.73
-25.26
-28.49
-31.78
-35.57
-40.27
-46.05
-52.65
-59.36
-65.06
-68.47
-68.45
-64.41
-56.42
-45.24
-32.14
-18.51
-5.57
5.88
15.5
23.35
29.67
34.7
38.62
41.51
43.44
44.53
44.99
45.03
44.81
44.38
43.74
42.86
41.75
40.47
39.08
37.6
35.96
34.1
31.93
29.41
26.5
23.18
19.45
15.32
10.88
6.27
1.68
-2.78
-7.02
-11.06
-14.95
-18.8
-22.78
-27.19
-32.33
-38.43
-45.38
-52.64
-59.19
-63.78
-65.3
-63.11
-57.26
-48.42
-37.72
-26.41
-15.59
-6.12
1.56
7.23
10.96
12.95
13.48
12.94
11.73
10.19
8.6
7.09
5.72
4.47
3.37
2.47
1.83
1.45
1.25
1.03
0.56
-0.34
-1.77
-3.76
-6.25
-9.09
-12.04
-14.82
-17.22
-19.19
-20.95
-22.99
-25.85
-29.91
-35.17
-41.09
-46.64
-50.57
-51.73
-49.4
-43.51
-34.65
-23.88
-12.43
-1.4
8.46
16.78
23.46
28.55
32.12
34.22
34.98
34.67
33.67
32.48
31.51
31.05
31.11
31.48
31.84
31.86
31.34
30.26
28.77
27.0
25.01
22.67
19.79
16.16
11.75
6.73
1.41
-3.87
-8.89
-13.58
-18.04
-22.41
-26.9
-31.76
-37.35
-43.93
-51.55
-59.79
-67.67
-73.81
-76.79
-75.64
-70.15
-60.93
-49.21
-36.4
-23.78
-12.2
-2.12
6.38
13.38
19.07
23.59
27.07
29.58
31.18
32.03
32.31
32.29
32.23
32.26
32.42
32.58
32.6
32.32
31.67
30.67
29.34
27.68
25.67
23.18
20.13
16.47
12.31
7.88
3.45
-0.76
-4.64
-8.25
-11.76
-15.41
-19.47
-24.25
-29.99
-36.81
-44.47
-52.26
-58.99
-63.21
-63.7
-59.78
-51.64
-40.24
-27.02
-13.5
-0.89
10.06
19.06
26.14
31.45
35.18
37.52
38.66
38.9
38.54
37.89
37.18
36.49
35.77
34.88
33.69
32.17
30.43
28.6
26.75
24.76
22.33
19.08
14.77
9.43
3.42
-2.67
-8.3
-13.18
-17.44
-21.56
-26.18
-31.87
-38.93
-47.18
-55.96
-64.15
-70.38
-73.36
-72.25
-66.85
-57.74
-46.02
-33.05
-20.07
-8.04
2.47
11.19
18.01
22.94
26.13
27.8
28.3
27.97
27.17
26.18
25.2
24.35
23.63
22.99
22.32
21.48
20.33
18.76
16.62
13.78
10.17
5.78
0.74
-4.66
-10.07
-15.21
-19.94
-24.45
-29.15
-34.63
-41.33
-49.36
-58.23
-66.83
-73.62
-77.06
-76.03
-70.14
-59.93
-46.59
-31.6
-16.44
-2.18
10.53
21.4
30.38
37.44
42.63
46.01
47.83
48.53
48.68
48.85
49.39
50.32
51.36
52.11
52.24
51.65
50.47
48.99
47.44
45.83
43.97
41.54
38.22
33.91
28.76
23.1
17.36
11.83
6.58
1.46
-3.85
-9.73
-16.53
-24.45
-33.45
-43.05
-52.3
-59.86
-64.21
-64.15
-59.21
-49.9
-37.68
-24.55
-12.45
-2.73
4.13
8.51
11.27
13.32
15.36
17.7
20.42
23.48
26.75
29.97
32.67
34.24
34.1
32.08
28.67
25.09
22.94
23.65
27.9
35.37
44.84
54.71
63.54
70.27
74.16
74.47
70.4
61.29
47.34
30.08
12.31
-2.72
-12.67
-17.11
-17.62
-16.78
-16.68
-17.81
-18.89
-17.78
-12.92
-4.24
6.67
17.4
25.86
31.05
33.21
33.27
32.18
30.4
27.83
24.21
19.47
14.01
8.61
4.16
1.21
-0.2
-0.53
-0.45
-0.55
-1.11
-2.11
-3.34
-4.59
-5.79
-7.05
-8.54
-10.47
-12.94
-15.93
-19.27
-22.77
-26.29
-29.91
-33.97
-38.84
-44.7
-51.19
-57.33
-61.67
-62.79
-59.8
-52.71
-42.4
-30.32
-18.01
-6.68
2.96
10.65
16.39
20.29
22.48
23.12
22.46
20.84
18.71
16.52
14.65
13.36
12.74
12.68
12.96
13.24
13.16
12.42
10.83
8.38
5.21
1.58
-2.22
-5.94
-9.48
-12.84
-16.22
-19.93
-24.41
-29.94
-36.56
-43.77
-50.51
-55.39
-56.99
-54.4
-47.49
-37.03
-24.32
-10.91
1.88
13.16
22.45
29.6
34.63
37.71
39.12
39.26
38.57
37.48
36.26
35.05
33.86
32.63
31.33
29.99
28.63
27.3
25.95
24.48
22.67
20.27
17.06
12.9
7.86
2.17
-3.76
-9.52
-14.83
-19.63
-24.2
-29.04
-34.69
-41.51
-49.35
-57.52
-64.8
-69.72
-70.98
-67.8
-60.23
-49.12
-35.88
-22.08
-9.09
2.26
11.65
19.18
25.1
29.62
32.86
34.9
35.85
35.97
35.59
35.05
34.56
34.15
33.72
33.08
32.12
30.84
29.34
27.73
26.1
24.42
22.52
20.15
17.07
13.18
8.54
3.43
-1.76
-6.67
-11.1
-15.11
-19.01
-23.34
-28.6
-35.2
-43.09
-51.72
-60.01
-66.5
-69.77
-68.79
-63.24
-53.64
-41.15
-27.27
-13.45
-0.74
10.3
19.53
27.09
33.15
37.84
41.23
43.35
44.35
44.49
44.16
43.68
43.31
43.07
42.85
42.46
41.74
40.63
39.16
37.48
35.71
33.89
31.93
29.61
26.68
22.98
18.52
13.55
8.37
3.33
-1.36
-5.69
-9.77
-13.79
-18.07
-22.97
-28.85
-35.86
-43.73
-51.64
-58.25
-62.12
-62.1
-57.78
-49.62
-38.71
-26.49
-14.28
-3.09
6.41
13.87
19.17
22.38
23.82
23.97
23.4
22.55
21.66
20.74
19.69
18.44
17.05
15.65
14.42
13.4
12.46
11.39
9.92
7.91
5.32
2.24
-1.24
-5.0
-8.9
-12.84
-16.71
-20.46
-24.23
-28.35
-33.26
-39.28
-46.32
-53.71
-60.23
-64.41
-65.0
-61.39
-53.77
-43.06
-30.56
-17.62
-5.34
5.57
14.73
21.99
27.37
30.99
33.05
33.9
33.91
33.48
32.93
32.44
32.03
31.63
31.13
30.42
29.43
28.12
26.44
24.37
21.85
18.78
15.08
10.62
5.43
-0.32
-6.25
-11.87
-16.77
-20.81
-24.27
-27.74
-31.95
-37.34
-43.78
-50.48
-56.17
-59.43
-59.12
-54.74
-46.49
-35.22
-22.09
-8.35
4.93
16.95
27.19
35.29
41.11
44.71
46.35
46.52
45.79
44.65
43.42
42.12
40.58
38.61
36.11
33.22
30.19
27.27
24.57
22.02
19.37
16.37
12.86
8.79
4.19
-0.83
-6.17
-11.62
-16.93
-21.85
-26.21
-30.07
-33.84
-38.11
-43.46
-50.13
-57.67
-64.99
-70.46
-72.49
-69.98
-62.71
-51.44
-37.59
-22.84
-8.67
3.92
14.49
22.96
29.46
34.17
37.25
38.9
39.39
39.11
38.45
37.76
37.21
36.8
36.41
35.91
35.27
34.54
33.87
33.32
32.84
32.19
31.01
28.97
25.87
21.76
16.94
11.86
6.92
2.39
-1.74
-5.76
-10.07
-15.17
-21.43
-28.98
-37.62
-46.72
-55.24
-61.9
-65.48
-65.15
-60.74
-52.81
-42.45
-31.04
-19.85
-9.81
-1.41
5.22
10.13
13.45
15.32
15.85
15.22
13.71
11.61
9.25
6.87
4.61
2.55
0.71
-0.92
-2.39
-3.8
-5.28
-6.93
-8.77
-10.71
-12.61
-14.36
-15.96
-17.56
-19.36
-21.6
-24.5
-28.25
-32.96
-38.51
-44.46
-49.94
-53.77
-54.73
-51.96
-45.32
-35.46
-23.69
-11.45
0.03
10.04
18.35
25.02
30.14
33.77
35.93
36.77
36.61
35.86
34.87
33.88
32.91
31.93
30.94
30.03
29.27
28.64
27.91
26.79
24.99
22.35
18.9
14.82
10.34
5.7
1.11
-3.31
-7.57
-11.88
-16.69
-22.42
-29.29
-36.93
-44.32
-49.99
-52.44
-50.69
-44.59
-34.88
-22.88
-10.07
2.34
13.54
23.19
31.2
37.6
42.48
45.9
48.0
48.95
48.99
48.36
47.25
45.77
43.94
41.75
39.18
36.34
33.4
30.57
27.98
25.59
23.19
20.44
17.05
12.85
7.89
2.45
-3.05
-8.21
-12.75
-16.63
-20.15
-23.84
-28.31
-33.99
-40.83
-48.22
-55.01
-59.86
-61.62
-59.64
-53.89
-44.97
-33.84
-21.59
-9.19
2.6
13.32
22.78
30.9
37.69
43.11
47.12
49.68
50.87
50.94
50.24
49.15
47.93
46.7
45.39
43.87
42.07
40.04
37.9
35.8
33.78
31.72
29.35
26.36
22.53
17.87
12.57
7.02
1.64
-3.27
-7.58
-11.4
-15.03
-18.87
-23.36
-28.79
-35.21
-42.3
-49.25
-54.92
-58.06
-57.73
-53.55
-45.93
-35.87
-24.69
-13.61
-3.5
5.19
12.34
17.99
22.22
25.05
26.58
26.96
26.46
25.43
24.13
22.73
21.27
19.71
18.0
16.21
14.43
12.79
11.29
9.82
8.1
5.86
2.89
-0.82
-5.07
-9.49
-13.68
-17.36
-20.5
-23.31
-26.26
-29.82
-34.27
-39.48
-44.83
-49.33
-51.87
-51.53
-47.9
-41.19
-32.13
-21.75
-11.13
-1.13
7.69
15.08
20.96
25.38
28.38
30.03
30.45
29.89
28.67
27.16
25.71
24.51
23.55
22.69
21.74
20.57
19.18
17.65
16.06
14.39
12.5
10.19
7.27
3.7
-0.38
-4.66
-8.73
-12.27
-15.14
-17.46
-19.65
-22.23
-25.73
-30.46
-36.37
-42.91
-49.15
-53.92
-56.05
-54.74
-49.74
-41.49
-30.93
-19.35
-7.93
2.45
11.34
18.69
24.61
29.27
32.74
35.01
36.08
36.0
35.0
33.44
31.76
30.28
29.12
28.18
27.21
25.95
24.29
22.29
20.17
18.15
16.32
14.59
12.71
10.4
7.5
4.03
0.19
-3.76
-7.59
-11.21
-14.63
-17.99
-21.45
-25.2
-29.4
-34.17
-39.55
-45.35
-51.12
-56.09
-59.32
-59.95
-57.38
-51.51
-42.77
-31.99
-20.21
-8.44
2.5
12.09
20.12
26.6
31.67
35.47
38.14
39.78
40.54
40.58
40.12
39.37
38.45
37.4
36.21
34.83
33.26
31.5
29.61
27.63
25.56
23.38
21.0
18.34
15.33
11.95
8.28
4.41
0.44
-3.53
-7.5
-11.44
-15.36
-19.22
-23.02
-26.89
-31.09
-35.96
-41.81
-48.62
-55.9
-62.69
-67.77
-70.0
-68.63
-63.57
-55.41
-45.19
-34.15
-23.41
-13.77
-5.63
0.87
5.84
9.46
11.93
13.42
14.09
14.12
13.7
13.02
12.26
11.5
10.7
9.81
8.77
7.64
6.58
5.72
5.1
4.53
3.67
2.16
-0.18
-3.27
-6.74
-10.13
-13.11
-15.56
-17.65
-19.77
-22.41
-25.98
-30.69
-36.5
-42.95
-49.21
-54.24
-56.94
-56.5
-52.55
-45.27
-35.38
-23.87
-11.86
-0.34
9.96
18.6
25.39
30.35
33.63
35.44
36.09
35.93
35.38
34.79
34.4
34.2
34.06
33.71
32.93
31.66
29.98
28.07
26.06
23.99
21.75
19.16
16.03
12.25
7.87
3.06
-1.93
-6.87
-11.55
-15.89
-19.89
-23.68
-27.53
-31.75
-36.7
-42.53
-49.07
-55.71
-61.46
-65.18
-65.88
-63.05
-56.68
-47.32
-35.81
-23.1
-10.09
2.5
14.12
24.45
33.26
40.5
46.2
50.42
53.26
54.8
55.15
54.48
53.04
51.15
49.14
47.24
45.57
44.05
42.5
40.68
38.45
35.78
32.81
29.71
26.6
23.45
20.15
16.55
12.58
8.31
3.88
-0.56
-4.92
-9.25
-13.69
-18.37
-23.43
-28.98
-35.11
-41.81
-48.84
-55.56
-61.01
-64.03
-63.63
-59.31
-51.24
-40.25
-27.53
-14.33
-1.73
9.57
19.14
26.87
32.72
36.81
39.27
40.38
40.43
39.77
38.7
37.4
35.92
34.21
32.18
29.87
27.42
25.05
22.97
21.21
19.62
17.82
15.43
12.17
7.99
3.11
-2.06
-7.08
-11.65
-15.69
-19.43
-23.3
-27.81
-33.37
-40.06
-47.55
-55.03
-61.38
-65.36
-65.98
-62.71
-55.69
-45.67
-33.81
-21.45
-9.74
0.52
8.96
15.57
20.55
24.12
26.45
27.62
27.78
27.17
26.11
24.9
23.73
22.64
21.53
20.34
19.05
17.76
16.5
15.22
13.69
11.63
8.82
5.21
1.01
-3.4
-7.63
-11.43
-14.78
-17.94
-21.31
-25.34
-30.26
-35.87
-41.52
-46.18
-48.66
-48.0
-43.7
-35.92
-25.41
-13.25
-0.58
11.64
22.73
32.28
40.05
45.89
49.77
51.76
52.15
51.39
49.98
48.35
46.75
45.19
43.53
41.66
39.56
37.3
35.01
32.7
30.26
27.48
24.13
20.12
15.49
10.45
5.27
0.25
-4.48
-8.92
-13.32
-18.04
-23.5
-29.99
-37.45
-45.39
-52.83
-58.56
-61.39
-60.52
-55.78
-47.68
-37.25
-25.74
-14.28
-3.74
5.42
12.95
18.84
23.12
25.91
27.39
27.81
27.42
26.41
24.9
22.95
20.64
18.12
15.63
13.42
11.64
10.26
9.06
7.68
5.78
3.12
-0.32
-4.35
-8.64
-12.89
-16.87
-20.55
-24.13
-27.93
-32.36
-37.69
-43.87
-50.44
-56.45
-60.74
-62.2
-60.13
-54.41
-45.57
-34.52
-22.35
-10.03
1.74
12.5
21.97
29.92
36.2
40.71
43.52
44.89
45.28
45.26
45.3
45.7
46.4
47.09
47.4
47.06
46.11
44.92
43.98
43.63
43.79
43.95
43.25
40.86
36.25
29.38
20.76
11.25
1.89
-6.32
-12.72
-17.23
-20.43
-23.41
-27.23
-32.32
-38.09
-43.13
-45.79
-44.94
-40.48
-33.46
-25.86
-19.95
-17.61
-19.73
-26.06
-35.28
-45.49
-54.87
-62.27
-67.64
-71.71
-75.12
-77.87
-79.05
-77.43
-72.01
-62.51
-49.39
-33.79
-17.0
0.02
16.86
33.47
49.22
62.57
71.79
75.6
73.06
63.69
48.16
28.9
9.91
-4.46
-10.91
-9.5
-2.39
6.77
14.45
18.49
18.81
16.93
15.04
15.17
17.8
23.22
31.16
41.0
52.25
64.66
78.25
93.09
109.14
126.03
143.09
158.87
171.24
177.85
176.56
166.19
146.85
120.16
88.83
56.06
24.31
-5.17
-32.19
-56.91
-78.91
-96.62
-107.52
-109.11
-99.99
-80.96
-55.05
-26.77
-0.84
19.05
30.98
34.76
31.54
23.06
11.08
-2.88
-17.59
-32.05
-45.48
-57.51
-68.37
-78.76
-89.49
-100.76
-111.44
-118.93
-119.74
-110.67
-90.25
-59.61
-22.28
16.88
53.2
83.31
105.46
119.07
124.06
120.49
108.86
90.6
68.35
45.48
25.14
9.19
-2.15
-9.93
-15.54
-19.86
-23.07
-25.07
-26.01
-26.72
-28.47
-32.41
-39.06
-48.05
-58.36
-68.75
-78.19
-85.99
-91.72
-94.95
-95.1
-91.51
-83.58
-71.19
-54.9
-35.97
-16.18
2.63
19.03
32.19
41.97
48.66
52.81
55.05
55.95
56.04
55.78
55.31
54.57
53.2
50.72
46.77
41.24
34.45
27.08
19.99
13.87
8.92
4.55
-0.56
-8.05
-19.28
-34.69
-53.48
-73.67
-92.56
-107.38
-115.89
-116.81
-109.98
-96.29
-77.59
-56.32
-35.14
-16.39
-1.59
8.83
15.5
19.75
23.04
26.4
30.17
34.05
37.29
39.2
39.37
37.78
34.73
30.62
25.87
20.8
15.69
10.67
5.56
-0.16
-7.33
-16.69
-28.54
-42.26
-56.33
-68.6
-76.83
-79.32
-75.29
-65.0
-49.55
-30.65
-10.19
10.03
28.47
44.04
56.1
64.37
68.82
69.63
67.21
62.11
54.99
46.41
36.59
25.39
12.53
-2.05
-17.84
-33.64
-47.78
-58.65
-65.17
-67.11
-65.03
-60.05
-53.5
-46.61
-40.42
-35.69
-32.91
-32.34
-34.04
-37.88
-43.62
-50.92
-59.32
-68.17
-76.55
-83.34
-87.26
-87.16
-82.36
-72.92
-59.74
-44.37
-28.59
-13.88
-1.18
9.11
16.76
21.46
22.76
20.37
14.58
6.45
-2.48
-10.76
-17.63
-23.26
-28.45
-33.98
-40.12
-46.41
-51.91
-55.57
-56.48
-53.78
-46.52
-33.77
-14.96
9.56
38.12
67.9
95.53
118.1
133.85
142.52
145.21
143.72
139.96
135.33
130.45
125.04
118.19
108.69
95.62
78.78
58.91
37.58
16.83
-1.43
-15.92
-26.48
-34.11
-40.78
-48.87
-60.45
-76.48
-96.4
-118.09
-138.54
-154.91
-165.54
-170.45
-171.0
-168.98
-165.59
-160.93
-154.3
-144.96
-132.87
-118.9
-104.39
-90.45
-77.36
-64.67
-51.79
-38.75
-26.49
-16.5
-10.01
-7.31
-7.41
-8.54
-8.89
-7.43
-4.17
-0.0
3.97
6.99
9.0
10.46
11.98
13.84
15.84
17.38
17.86
16.95
14.77
11.76
8.48
5.29
2.16
-1.4
-6.16
-12.84
-21.82
-32.72
-44.41
-55.08
-62.7
-65.56
-62.71
-54.2
-40.92
-24.28
-5.8
13.24
31.97
49.78
66.25
81.0
93.64
103.86
111.51
116.68
119.69
121.03
121.24
120.68
119.59
117.99
115.87
113.21
110.09
106.65
102.99
99.09
94.85
90.1
84.71
78.68
72.11
65.18
58.03
50.63
42.69
33.71
23.16
10.69
-3.49
-18.46
-32.6
-43.99
-50.88
-52.2
-47.89
-38.78
-26.26
-11.89
2.99
17.43
30.81
42.73
52.87
60.94
66.7
70.04
71.05
70.0
67.35
63.67
59.5
55.33
51.4
47.79
44.38
41.0
37.46
33.7
29.72
25.54
21.19
16.67
11.95
6.96
1.68
-3.98
-10.14
-17.01
-24.8
-33.49
-42.66
-51.34
-58.14
-61.6
-60.64
-54.92
-44.94
-31.79
-16.79
-1.08
14.5
29.41
43.09
54.95
64.31
70.63
73.73
73.92
71.93
68.71
65.1
61.62
58.42
55.34
52.11
48.49
44.42
40.02
35.5
31.04
26.71
22.44
18.03
13.26
7.95
1.92
-4.96
-12.75
-21.37
-30.43
-39.09
-46.13
-50.17
-50.12
-45.6
-37.14
-26.03
-13.93
-2.31
7.95
16.61
23.82
29.82
34.62
38.03
39.81
39.92
38.64
36.48
34.03
31.74
29.81
28.22
26.77
25.28
23.58
21.59
19.27
16.65
13.73
10.5
6.9
2.83
-1.86
-7.31
-13.67
-21.02
-29.39
-38.58
-48.04
-56.82
-63.7
-67.38
-66.97
-62.23
-53.7
-42.49
-29.96
-17.26
-5.18
5.95
16.04
25.07
32.89
39.26
43.9
46.64
47.56
46.97
45.31
43.09
40.69
38.25
35.71
32.86
29.43
25.27
20.39
14.96
9.18
3.28
-2.63
-8.52
-14.45
-20.56
-27.11
-34.4
-42.69
-52.04
-62.07
-71.87
-80.13
-85.42
-86.68
-83.47
-76.21
-65.89
-53.79
-41.1
-28.6
-16.69
-5.48
4.97
14.48
22.77
29.56
34.69
38.24
40.53
41.92
42.66
42.81
42.26
40.89
38.7
35.88
32.7
29.38
25.96
22.36
18.37
13.89
8.87
3.31
-2.82
-9.6
-17.13
-25.3
-33.64
-41.28
-47.04
-49.8
-48.76
-43.78
-35.32
-24.41
-12.28
-0.07
11.32
21.35
29.77
36.48
41.52
44.94
46.85
47.37
46.7
45.07
42.84
40.37
38.08
36.25
34.95
34.01
33.01
31.5
29.13
25.8
21.68
17.13
12.51
8.06
3.81
-0.33
-4.64
-9.4
-14.83
-20.9
-27.22
-33.07
-37.54
-39.79
-39.25
-35.78
-29.57
-21.06
-10.81
0.52
12.17
23.34
33.31
41.57
47.95
52.54
55.59
57.26
57.64
56.7
54.45
51.01
46.61
41.5
35.93
30.08
24.15
18.32
12.81
7.78
3.26
-0.86
-4.89
-9.25
-14.45
-20.95
-28.99
-38.47
-48.88
-59.33
-68.66
-75.68
-79.37
-79.12
-74.8
-66.8
-55.95
-43.38
-30.26
-17.59
-6.07
3.87
12.03
18.24
22.38
24.48
24.77
23.73
22.04
20.3
18.87
17.74
16.69
15.37
13.59
11.29
8.58
5.6
2.49
-0.66
-3.81
-6.91
-9.97
-13.08
-16.44
-20.36
-25.09
-30.73
-36.97
-43.11
-48.08
-50.76
-50.29
-46.4
-39.42
-30.22
-19.89
-9.46
0.27
8.76
15.69
20.87
24.24
25.84
25.88
24.67
22.57
19.94
17.12
14.4
11.99
10.0
8.41
7.05
5.67
4.04
2.05
-0.26
-2.75
-5.24
-7.61
-9.81
-11.92
-14.08
-16.55
-19.7
-23.82
-29.08
-35.27
-41.74
-47.49
-51.35
-52.3
-49.72
-43.58
-34.46
-23.39
-11.58
-0.2
9.89
18.15
24.35
28.45
30.54
30.81
29.55
27.17
24.2
21.14
18.35
16.0
14.02
12.19
10.33
8.35
6.33
4.41
2.65
1.0
-0.8
-2.99
-5.75
-9.08
-12.77
-16.53
-20.07
-23.23
-26.05
-28.75
-31.65
-35.14
-39.41
-44.39
-49.55
-53.95
-56.46
-56.06
-52.21
-44.94
-34.9
-23.07
-10.51
1.86
13.33
23.41
31.8
38.31
42.87
45.56
46.61
46.36
45.27
43.8
42.36
41.2
40.37
39.77
39.2
38.44
37.38
35.99
34.38
32.66
30.89
29.0
26.78
23.94
20.23
15.59
10.19
4.45
-1.2
-6.41
-11.17
-15.72
-20.47
-25.8
-31.89
-38.67
-45.78
-52.65
-58.51
-62.54
-63.94
-62.12
-56.96
-48.82
-38.6
-27.43
-16.44
-6.5
1.85
8.38
13.07
15.99
17.33
17.34
16.4
14.93
13.28
11.72
10.37
9.27
8.39
7.73
7.26
6.94
6.64
6.2
5.41
4.1
2.21
-0.19
-2.89
-5.65
-8.25
-10.64
-12.96
-15.53
-18.68
-22.66
-27.5
-32.88
-38.18
-42.53
-44.96
-44.66
-41.19
-34.64
-25.68
-15.34
-4.76
5.14
13.77
20.86
26.34
30.16
32.3
32.76
31.69
29.43
26.51
23.47
20.77
18.67
17.2
16.2
15.43
14.62
13.59
12.21
10.41
8.13
5.37
2.12
-1.56
-5.59
-9.85
-14.29
-18.93
-23.88
-29.3
-35.21
-41.43
-47.45
-52.45
-55.55
-55.93
-53.15
-47.26
-38.82
-28.79
-18.29
-8.37
0.12
6.66
11.01
13.22
13.55
12.36
10.06
7.04
3.64
0.11
-3.41
-6.84
-10.16
-13.33
-16.26
-18.82
-20.9
-22.48
-23.69
-24.8
-26.06
-27.6
-29.35
-31.09
-32.56
-33.65
-34.44
-35.19
-36.28
-38.01
-40.58
-43.94
-47.73
-51.28
-53.62
-53.73
-50.83
-44.65
-35.5
-24.28
-12.06
0.14
11.6
21.93
30.97
38.59
44.63
48.95
51.48
52.37
52.02
51.01
49.92
49.22
49.08
49.42
49.98
50.49
50.77
50.71
50.23
49.18
47.33
44.47
40.52
35.64
30.15
24.52
19.18
14.45
10.49
7.19
4.21
0.98
-3.12
-8.46
-14.92
-21.65
-27.28
-30.3
-29.63
-24.99
-17.02
-7.04
3.44
13.16
21.35
27.69
32.18
34.9
35.91
35.29
33.22
30.04
26.22
22.25
18.47
15.01
11.83
8.83
5.96
3.32
1.1
-0.6
-1.84
-2.93
-4.31
-6.37
-9.31
-13.05
-17.25
-21.49
-25.42
-28.86
-31.88
-34.77
-37.99
