14.0
23.84
31.41
36.65
39.68
40.74
40.13
38.33
35.84
33.21
30.9
29.25
28.37
28.18
28.42
28.78
28.95
28.75
28.1
26.94
25.17
22.62
19.08
14.42
8.73
2.39
-4.03
-9.89
-14.77
-18.6
-21.71
-24.72
-28.29
-33.0
-39.04
-46.13
-53.43
-59.68
-63.43
-63.44
-59.07
-50.55
-38.89
-25.63
-12.33
-0.19
10.11
18.44
24.89
29.61
32.71
34.23
34.28
33.14
31.28
29.2
27.33
25.87
24.8
23.93
23.03
21.92
20.55
18.96
17.21
15.36
13.4
11.24
8.75
5.78
2.21
-1.94
-6.51
-11.22
-15.78
-19.99
-23.81
-27.4
-31.05
-35.13
-39.99
-45.83
-52.62
-59.93
-66.92
-72.36
-74.9
-73.43
-67.43
-57.2
-43.78
-28.7
-13.52
0.51
12.66
22.69
30.72
36.96
41.65
44.93
46.89
47.69
47.54
46.77
45.73
44.7
43.83
43.1
42.37
41.5
40.38
38.98
37.34
35.51
33.47
31.16
28.41
25.05
20.97
16.18
10.82
5.14
-0.6
-6.15
-11.36
-16.24
-20.92
-25.7
-30.93
-36.97
-43.97
-51.78
-59.71
-66.68
-71.34
-72.48
-69.39
-62.06
-51.17
-37.94
-23.78
-9.97
2.48
12.95
21.15
27.1
31.02
33.2
34.0
33.73
32.66
31.04
29.12
27.17
25.4
23.93
22.8
21.94
21.27
20.76
20.36
19.99
19.44
18.41
16.57
13.74
9.95
5.52
0.91
-3.49
-7.5
-11.27
-15.24
-19.9
-25.61
-32.32
-39.49
-46.11
-50.93
-52.83
-51.11
-45.73
-37.36
-27.12
-16.31
-5.98
3.17
10.84
17.0
21.68
24.91
26.72
27.19
26.55
25.18
23.5
21.84
20.34
18.96
17.59
16.18
14.73
13.32
12.02
10.78
9.45
7.73
5.38
2.22
-1.74
-6.3
-11.16
-16.0
-20.58
-24.84
-28.96
-33.28
-38.28
-44.31
-51.4
-59.01
-66.09
-71.21
-72.96
-70.38
-63.25
-52.22
-38.61
-23.99
-9.8
2.93
13.71
22.45
29.35
34.64
38.49
41.02
42.33
42.58
42.03
40.97
39.72
38.43
37.19
35.94
34.57
33.01
31.25
29.34
27.4
25.48
23.61
21.67
19.49
16.87
13.67
9.92
5.81
1.64
-2.32
-5.93
-9.21
-12.38
-15.77
-19.73
-24.58
-30.47
-37.21
-44.16
-50.26
-54.2
-54.77
-51.23
-43.62
-32.7
-19.74
-6.18
6.73
18.15
27.7
35.28
41.02
45.11
47.69
48.86
48.66
47.24
44.78
41.63
38.15
34.72
31.59
28.85
26.51
24.49
22.69
20.99
19.31
17.55
15.68
13.69
11.6
9.42
7.08
4.49
1.55
-1.76
-5.41
-9.26
-13.19
-17.08
-20.93
-24.82
-28.97
-33.67
-39.2
-45.68
-52.84
-59.93
-65.73
-68.87
-68.17
-63.14
-54.08
-41.99
-28.3
-14.37
-1.26
10.35
20.13
27.98
33.89
37.95
40.34
41.32
41.23
40.4
39.1
37.51
35.75
33.86
31.91
30.01
28.3
26.91
25.84
24.92
23.81
22.09
19.46
15.86
11.51
6.81
2.16
-2.17
-6.18
-10.09
-14.22
-18.96
-24.58
-31.14
-38.38
-45.6
-51.73
-55.49
-55.73
-51.82
-43.91
-32.91
-20.26
-7.5
4.16
14.07
22.11
28.43
33.21
36.53
38.34
38.62
37.56
35.57
33.21
31.07
29.53
28.72
28.48
28.55
28.58
28.34
27.7
26.66
25.27
23.59
21.6
19.2
16.3
12.85
8.96
4.86
0.84
-2.89
-6.3
-9.57
-13.01
-16.93
-21.55
-26.97
-33.16
-39.96
-47.04
-53.78
-59.25
-62.39
-62.26
-58.31
-50.69
-40.17
-27.96
-15.34
-3.42
7.1
15.92
23.01
28.57
32.82
36.01
38.34
39.98
41.07
41.74
42.1
42.22
42.13
41.73
40.92
39.63
37.86
35.68
33.2
30.53
27.72
24.72
21.49
17.96
14.09
9.88
5.32
0.42
-4.76
-10.12
-15.44
-20.47
-24.93
-28.61
-31.45
-33.64
-35.62
-38.03
-41.48
-46.28
-52.17
-58.25
-63.17
-65.49
-64.13
-58.75
-49.76
-38.18
-25.27
-12.23
0.04
11.0
20.37
28.05
34.06
38.43
41.27
42.76
43.14
42.68
41.6
40.13
38.39
36.51
34.57
32.65
30.77
28.87
26.81
24.39
21.46
18.03
14.24
10.37
6.66
3.24
0.03
-3.15
-6.56
-10.39
-14.74
-19.6
-24.87
-30.36
-35.79
-40.84
-45.26
-49.0
-52.36
-55.84
-59.9
-64.67
-69.69
-74.0
-76.41
-75.94
-72.16
-65.28
-56.01
-45.22
-33.77
-22.31
-11.34
-1.26
7.57
14.89
20.53
24.52
27.02
28.32
28.68
28.29
27.28
25.76
23.9
21.94
20.17
18.83
17.98
17.52
17.15
16.47
15.11
12.82
9.57
5.56
1.11
-3.39
-7.64
-11.48
-14.94
-18.24
-21.73
-25.75
-30.51
-35.93
-41.47
-46.2
-48.93
-48.62
-44.66
-37.15
-26.91
-15.18
-3.29
7.65
16.99
24.45
30.0
33.7
35.67
36.02
35.01
32.96
30.32
27.49
24.75
22.22
19.88
17.73
15.8
14.17
12.88
11.85
10.81
9.36
7.18
4.12
0.33
-3.89
-8.16
-12.21
-15.97
-19.55
-23.17
-27.12
-31.68
-37.04
-43.21
-49.82
-56.06
-60.75
-62.64
-60.75
-54.74
-45.08
-32.93
-19.71
-6.79
4.94
15.0
23.36
30.08
35.25
38.88
40.98
41.62
41.04
39.59
37.69
35.73
33.97
32.49
31.21
29.96
28.54
26.85
24.94
22.9
20.81
18.62
16.11
13.0
9.1
4.4
-0.79
-6.07
-11.07
-15.62
-19.77
-23.73
-27.82
-32.35
-37.69
-44.11
-51.69
-60.09
-68.43
-75.36
-79.39
-79.38
-74.87
-66.2
-54.37
-40.69
-26.43
-12.64
-0.06
10.86
19.89
27.0
32.31
36.07
38.52
39.89
40.42
40.38
40.01
39.56
39.13
38.71
38.1
37.09
35.53
33.45
31.04
28.52
26.04
23.58
20.92
17.74
13.81
9.07
3.71
-1.91
-7.36
-12.26
-16.43
-19.92
-23.02
-26.25
-30.19
-35.34
-41.87
-49.4
-57.02
-63.4
-67.17
-67.25
-63.21
-55.28
-44.27
-31.31
-17.61
-4.17
8.27
19.26
28.59
36.17
41.98
46.05
48.48
49.43
49.21
48.16
46.58
44.68
42.52
40.12
37.57
35.04
32.78
31.0
29.72
28.68
27.47
25.61
22.77
18.87
14.13
8.93
3.67
-1.4
-6.22
-10.92
-15.76
-21.01
-26.9
-33.53
-40.67
-47.73
-53.67
-57.21
-57.16
-52.88
-44.52
-33.06
-20.0
-6.92
4.96
15.02
23.14
29.5
34.3
37.61
39.4
39.64
38.46
36.21
33.36
30.38
27.64
25.35
23.58
22.33
21.5
20.93
20.36
19.5
18.07
15.92
13.1
9.8
6.27
2.65
-1.07
-5.08
-9.65
-15.05
-21.39
-28.53
-35.95
-42.71
-47.58
-49.31
-46.95
-40.26
-29.8
-16.84
-3.03
10.07
21.32
30.09
36.26
40.03
41.73
41.78
40.6
38.58
36.04
33.2
30.15
26.99
23.82
20.82
18.23
16.19
14.7
13.56
12.45
11.05
9.18
6.85
4.18
1.35
-1.54
-4.52
-7.76
-11.52
-16.15
-21.94
-29.04
-37.27
-45.96
-53.98
-59.87
-62.23
-60.14
-53.52
-43.14
-30.44
-17.04
-4.27
7.13
16.94
25.27
32.3
38.03
42.34
45.1
46.37
46.38
45.5
44.07
42.28
40.15
37.62
34.66
31.4
28.04
24.82
21.92
19.28
16.73
13.92
10.53
6.39
1.56
-3.71
-9.0
-13.88
-18.1
-21.64
-24.76
-27.95
-31.78
-36.71
-42.87
-49.9
-56.93
-62.67
-65.76
-65.2
-60.63
-52.45
-41.69
-29.69
-17.68
-6.57
3.17
11.43
18.38
24.31
29.51
34.18
38.42
42.19
45.37
47.82
49.45
50.29
50.48
50.22
49.69
49.02
48.22
47.21
45.86
44.01
41.52
38.38
34.67
30.54
26.18
21.66
16.95
11.9
6.33
0.16
-6.57
-13.59
-20.59
-27.24
-33.33
-38.82
-43.83
-48.66
-53.64
-59.08
-65.05
-71.17
-76.6
-80.1
-80.41
-76.61
-68.52
-56.7
-42.35
-26.89
-11.67
2.35
14.56
24.7
32.77
38.89
43.28
46.2
47.87
48.42
47.97
46.55
44.25
41.22
37.74
34.2
31.01
28.46
26.68
25.53
24.73
23.9
22.72
20.98
18.6
15.57
11.93
7.75
3.16
-1.7
-6.64
-11.54
-16.38
-21.29
-26.47
-32.1
-38.26
-44.88
-51.78
-58.62
-64.9
-70.0
-73.25
-74.05
-72.06
-67.37
-60.4
-51.83
-42.34
-32.42
-22.39
-12.44
-2.79
6.23
14.27
21.03
26.44
30.61
33.79
36.23
38.13
39.67
41.09
42.7
44.85
47.79
51.48
55.52
59.16
61.56
62.01
60.22
56.34
50.94
44.75
38.41
32.33
26.66
21.32
16.09
10.82
5.39
-0.23
-6.0
-11.86
-17.82
-23.95
-30.41
-37.43
-45.17
-53.51
-61.93
-69.42
-74.66
-76.43
-73.97
-67.27
-57.11
-44.74
-31.54
-18.6
-6.58
4.29
13.99
22.52
29.8
35.66
39.88
42.38
43.26
42.81
41.45
39.58
37.44
35.18
32.82
30.45
28.26
26.49
25.29
24.63
24.26
23.77
22.82
21.28
19.23
16.87
14.43
11.9
9.13
5.82
1.7
-3.34
-9.18
-15.47
-21.73
-27.49
-32.45
-36.54
-40.01
-43.33
-47.12
-51.94
-58.06
-65.23
-72.54
-78.62
-81.94
-81.25
-76.01
-66.57
-53.98
-39.66
-25.03
-11.15
1.29
11.94
20.65
27.35
32.05
34.86
35.99
35.8
34.71
33.22
31.74
30.53
29.67
29.02
28.38
27.55
26.45
25.09
23.58
21.9
19.95
17.5
14.32
10.27
5.39
-0.11
-5.94
-11.86
-17.71
-23.46
-29.16
-34.91
-40.83
-47.08
-53.8
-60.91
-68.05
-74.46
-79.07
-80.79
-78.84
-72.96
-63.55
-51.51
-37.94
-23.92
-10.32
2.24
13.3
22.51
29.67
34.76
37.97
39.73
40.54
40.92
41.22
41.55
41.88
42.05
41.96
41.6
41.09
40.56
40.1
39.66
39.01
37.92
36.11
33.48
29.99
25.75
20.88
15.49
9.69
3.52
-2.97
-9.79
-17.01
-24.79
-33.23
-42.22
-51.28
-59.48
-65.56
-68.26
-66.71
-60.77
-51.04
-38.73
-25.25
-11.85
0.55
11.48
20.75
28.34
34.26
38.54
41.25
42.53
42.6
41.76
40.31
38.59
36.84
35.25
33.9
32.76
31.73
30.64
29.35
27.73
25.68
23.21
20.37
17.19
13.72
9.93
5.76
1.14
-3.93
-9.4
-15.15
-21.0
-26.81
-32.49
-38.05
-43.62
-49.45
-55.8
-62.85
-70.48
-78.22
-85.1
-89.89
-91.32
-88.44
-80.95
-69.27
-54.44
-37.8
-20.74
-4.41
10.39
23.2
33.81
42.2
48.43
52.66
55.1
56.01
55.73
54.61
52.98
51.12
49.21
47.37
45.69
44.28
43.19
42.41
41.78
41.05
39.92
38.18
35.75
32.76
29.44
26.03
22.72
19.53
16.37
13.03
9.31
5.13
0.57
-4.18
-8.81
-13.18
-17.37
-21.73
-26.83
-33.21
-41.12
-50.27
-59.79
-68.31
-74.26
-76.28
-73.6
-66.22
-54.89
-40.94
-25.84
-10.97
2.67
14.48
24.18
31.73
37.24
40.91
43.02
43.95
44.11
43.89
43.62
43.48
43.49
43.51
43.3
42.61
41.27
39.26
36.73
33.87
30.76
27.37
23.52
19.02
13.77
7.92
1.82
-4.06
-9.28
-13.64
-17.14
-20.07
-22.86
-25.99
-29.83
-34.55
-39.93
-45.33
-49.74
-51.96
-50.98
-46.29
-38.06
-27.14
-14.84
-2.56
8.62
18.07
25.63
31.47
35.88
39.06
41.09
42.0
41.86
40.91
39.5
38.03
36.79
35.9
35.24
34.64
33.91
33.01
31.99
30.95
29.9
28.68
27.08
24.83
21.82
18.05
13.66
8.84
3.78
-1.34
-6.36
-11.14
-15.53
-19.47
-22.98
-26.33
-29.93
-34.34
-40.01
-47.06
-55.07
-63.02
-69.43
-72.77
-71.89
-66.37
-56.67
-43.98
-29.84
-15.74
-2.84
8.16
17.04
23.8
28.66
31.83
33.59
34.24
34.15
33.7
33.21
32.9
32.8
32.85
32.92
32.95
32.86
32.62
32.16
31.4
30.23
28.59
26.55
24.24
21.94
19.84
18.09
16.58
15.07
13.14
10.39
6.55
1.6
-4.17
-10.27
-16.12
-21.32
-25.74
-29.62
-33.5
-38.04
-43.76
-50.72
-58.42
-65.73
-71.22
-73.53
-71.82
-66.02
-56.83
-45.44
-33.17
-21.18
-10.19
-0.6
7.5
14.23
19.82
24.59
28.85
32.79
36.37
39.34
41.37
42.16
41.63
39.99
37.7
35.31
33.31
32.0
31.39
31.22
31.09
30.61
29.52
27.82
25.65
23.2
20.56
17.69
14.51
10.94
7.02
2.88
-1.3
-5.4
-9.36
-13.15
-16.8
-20.39
-24.11
-28.25
-33.03
-38.44
-44.04
-48.95
-52.06
-52.37
-49.35
-43.03
-33.98
-23.12
-11.45
0.06
10.56
19.41
26.14
30.52
32.62
32.77
31.45
29.2
26.47
23.58
20.69
17.89
15.21
12.67
10.26
7.93
5.63
3.31
0.96
-1.34
-3.53
-5.62
-7.66
-9.81
-12.17
-14.72
-17.39
-20.03
-22.59
-25.11
-27.75
-30.73
-34.27
-38.59
-43.85
-50.03
-56.84
-63.58
-69.23
-72.59
-72.69
-69.04
-61.81
-51.78
-40.11
-27.98
-16.37
-5.95
2.99
10.37
16.26
20.78
24.06
26.26
27.55
28.14
28.28
28.17
27.96
27.74
27.56
27.44
27.39
27.41
27.4
27.2
26.6
25.43
23.66
21.36
18.7
15.85
12.89
9.79
6.48
2.86
-1.07
-5.29
-9.7
-14.25
-18.88
-23.59
-28.37
-33.28
-38.48
-44.2
-50.61
-57.61
-64.63
-70.61
-74.22
-74.28
-70.14
-61.99
-50.77
-37.87
-24.71
-12.38
-1.46
7.89
15.78
22.39
27.87
32.31
35.75
38.23
39.82
40.62
40.76
40.35
39.52
38.41
37.16
35.91
34.75
33.66
32.52
31.12
29.24
26.72
23.57
19.89
15.84
11.53
6.96
2.09
-3.07
-8.4
-13.65
-18.46
-22.51
-25.62
-27.86
-29.51
-31.08
-33.2
-36.47
-41.27
-47.58
-54.82
-61.83
-67.13
-69.29
-67.34
-61.06
-50.99
-38.24
-24.21
-10.18
2.83
14.18
23.59
31.01
36.53
40.33
42.67
43.8
44.08
43.87
43.55
43.31
43.12
42.72
41.76
40.05
37.66
34.92
32.22
29.75
27.37
24.72
21.43
17.33
12.61
7.64
2.88
-1.41
-5.24
-8.86
-12.66
-17.08
-22.49
-29.11
-36.89
-45.35
-53.6
-60.4
-64.43
-64.66
-60.67
-52.76
-41.92
-29.5
-16.84
-5.03
5.32
13.94
20.77
25.84
29.15
30.8
30.96
30.03
28.48
26.82
25.4
24.4
23.76
23.36
23.07
22.82
22.65
22.6
22.62
22.5
21.88
20.38
17.68
13.69
8.65
2.98
-2.81
-8.36
-13.59
-18.66
-23.95
-29.89
-36.82
-44.84
-53.63
-62.41
-69.98
-74.94
-76.13
-72.94
-65.51
-54.66
-41.6
-27.56
-13.58
-0.35
11.74
22.49
31.78
39.55
45.81
50.57
53.92
56.05
57.23
57.77
57.95
57.91
57.65
57.05
55.96
54.3
52.09
49.38
46.24
42.69
38.72
34.29
29.4
24.07
18.37
12.37
6.2
0.0
-6.08
-11.92
-17.47
-22.73
-27.81
-32.94
-38.45
-44.69
-51.74
-59.29
-66.47
-72.04
-74.63
-73.17
-67.32
-57.5
-44.86
-30.87
-16.93
-4.1
7.05
16.41
24.1
30.34
35.3
39.01
41.48
42.7
42.79
42.01
40.7
39.18
37.71
36.44
35.38
34.48
33.66
32.82
31.87
30.78
29.52
28.05
26.37
24.4
22.01
19.11
15.69
11.87
7.88
3.94
0.13
-3.61
-7.47
-11.73
-16.58
-22.17
-28.52
-35.47
-42.61
-49.19
-54.13
-56.32
-54.88
-49.51
-40.66
-29.35
-16.87
-4.44
7.01
16.96
25.17
31.58
36.23
39.22
40.75
41.11
40.68
39.8
38.73
37.59
36.35
34.98
33.53
32.12
30.94
30.05
29.35
28.46
26.91
24.23
20.19
14.85
8.63
2.12
-4.05
-9.38
-13.69
-17.13
-20.2
-23.59
-27.94
-33.56
-40.14
-46.76
-52.0
-54.42
-52.95
-47.38
-38.34
-27.12
-15.2
-3.76
6.61
15.77
23.84
30.83
36.5
40.52
42.71
43.21
42.55
41.37
40.21
39.23
38.2
36.75
34.58
31.71
28.46
25.32
22.66
20.59
18.86
17.03
14.62
11.3
7.04
1.99
-3.52
-9.18
-14.76
-20.15
-25.42
-30.76
-36.44
-42.75
-49.86
-57.59
-65.31
-71.99
-76.33
-77.19
-73.87
-66.39
-55.43
-42.22
-28.11
-14.3
-1.61
9.64
19.45
28.0
35.4
41.66
46.6
50.06
52.03
52.61
52.12
50.86
49.08
46.88
44.31
41.38
38.2
34.94
31.78
28.82
26.07
23.45
20.81
18.06
15.08
11.86
8.42
4.82
1.18
-2.41
-5.9
-9.36
-12.96
-16.95
-21.58
-27.05
-33.49
-40.91
-49.11
-57.59
-65.51
-71.68
-74.85
-73.99
-68.72
-59.39
-47.12
-33.41
-19.81
-7.56
2.59
10.4
16.03
19.9
22.52
24.36
25.78
26.97
28.05
29.1
30.17
31.27
32.35
33.33
34.11
34.59
34.7
34.4
33.62
32.35
30.58
28.4
25.98
23.55
21.23
19.03
16.82
14.45
11.82
8.99
6.12
3.35
0.76
-1.78
-4.53
-7.87
-12.2
-17.82
-24.83
-32.92
-41.29
-48.68
-53.63
-54.84
-51.64
-44.2
-33.51
-21.06
-8.36
3.41
13.54
21.76
28.05
32.49
35.15
36.17
35.82
34.46
32.48
30.27
28.07
26.0
24.02
22.08
20.17
18.35
16.74
15.4
14.27
13.08
11.5
9.19
5.94
1.84
-2.82
-7.63
-12.2
-16.28
-19.88
-23.22
-26.69
-30.78
-35.86
-42.07
-49.08
-56.03
-61.61
-64.46
-63.57
-58.64
-50.2
-39.39
-27.57
-15.87
-5.0
4.72
13.24
20.51
26.41
30.83
33.73
35.22
35.53
34.97
33.82
32.36
30.81
29.35
28.14
27.23
26.56
25.93
25.13
23.96
22.36
20.4
18.16
15.72
13.05
10.01
6.48
2.38
-2.22
-7.16
-12.2
-17.11
-21.71
-25.95
-29.88
-33.68
-37.66
-42.19
-47.54
-53.78
-60.53
-66.96
-71.82
-73.84
-72.09
-66.3
-56.95
-45.12
-32.14
-19.22
-7.2
3.47
12.7
20.54
27.09
32.42
36.54
39.45
41.13
41.64
41.14
39.85
38.07
36.1
34.24
32.69
31.56
30.86
30.47
30.16
29.64
28.59
26.77
24.05
20.44
16.06
11.14
5.91
0.62
-4.51
-9.38
-13.89
-17.97
-21.58
-24.74
-27.58
-30.37
-33.56
-37.64
-42.89
-49.23
-56.0
-62.09
-66.16
-67.05
-64.05
-57.16
-47.02
-34.75
-21.69
-9.11
2.02
11.06
17.81
22.42
25.28
26.88
27.7
28.11
28.33
28.45
28.46
28.29
27.88
27.18
26.14
24.81
23.32
21.84
20.56
19.61
18.93
18.28
17.27
15.55
12.91
9.35
5.09
0.43
-4.32
-9.04
-13.78
-18.72
-24.16
-30.27
-36.95
-43.7
-49.61
-53.53
-54.39
-51.62
-45.31
-36.2
-25.42
-14.12
-3.19
6.81
15.59
23.0
28.9
33.19
35.87
37.14
37.35
36.9
36.19
35.47
34.81
34.14
33.31
32.15
30.57
28.61
26.43
24.26
22.23
20.31
18.22
15.59
12.1
7.65
2.44
-3.11
-8.53
-13.51
-18.0
-22.18
-26.42
-31.15
-36.71
-43.25
-50.56
-57.96
-64.35
-68.44
-69.12
-65.8
-58.63
-48.45
-36.51
-24.09
-12.21
-1.46
7.88
15.79
22.28
27.35
30.98
33.15
33.99
33.8
33.01
32.12
31.5
31.26
31.27
31.26
30.97
30.29
29.27
28.02
26.63
25.04
23.11
20.67
17.64
14.03
9.91
5.4
0.6
-4.39
-9.46
-14.49
-19.33
-23.92
-28.28
-32.54
-36.96
-41.81
-47.23
-53.04
-58.6
-62.89
-64.74
-63.16
-57.74
-48.78
-37.24
-24.41
-11.55
0.41
10.92
19.72
26.74
31.97
35.47
37.42
38.15
38.05
37.51
36.76
35.86
34.76
33.4
31.81
30.17
28.68
27.52
26.69
26.04
25.32
24.3
22.81
20.81
18.29
15.26
11.73
7.72
3.31
-1.32
-5.95
-10.31
-14.25
-17.75
-20.96
-24.17
-27.71
-31.92
-37.01
-42.99
-49.47
-55.72
-60.64
-63.01
-61.87
-56.77
-48.06
-36.76
-24.25
-11.92
-0.79
8.62
16.17
21.95
26.13
28.84
30.28
30.68
30.42
29.86
29.32
28.94
28.62
28.14
27.33
26.16
24.8
23.49
22.41
21.48
20.37
18.68
16.08
12.5
8.12
3.32
-1.49
-5.97
-9.91
-13.37
-16.61
-20.12
-24.43
-29.92
-36.49
-43.41
-49.48
-53.33
-53.89
-50.74
-44.19
-35.16
-24.79
-14.18
-4.11
4.94
12.72
19.11
24.0
27.35
29.23
29.85
29.59
28.94
28.35
28.11
28.25
28.55
28.67
28.31
27.33
25.79
23.92
21.93
19.98
18.06
16.04
13.72
10.86
7.33
3.09
-1.75
-6.94
-12.18
-17.18
-21.74
-25.86
-29.76
-33.81
-38.47
-44.07
-50.61
-57.59
-64.07
-68.79
-70.61
-68.76
-63.12
-54.23
-43.09
-30.88
-18.66
-7.2
3.04
11.84
19.18
25.11
29.7
33.09
35.42
36.83
37.53
37.72
37.6
37.37
37.2
37.15
37.18
37.15
36.9
36.27
35.19
33.67
31.78
29.54
26.9
23.74
19.95
15.5
10.5
5.16
-0.29
-5.68
-10.95
-16.06
-21.02
-25.84
-30.59
-35.48
-40.89
-47.18
-54.48
-62.36
-69.81
-75.38
-77.58
-75.45
-68.81
-58.31
-45.17
-30.74
-16.23
-2.46
10.02
20.9
29.99
37.24
42.69
46.53
48.9
49.94
49.75
48.46
46.34
43.77
41.2
38.97
37.28
36.07
35.13
34.23
33.11
31.63
29.69
27.24
24.28
20.84
17.0
12.93
8.78
4.77
1.0
-2.47
-5.76
-9.06
-12.59
-16.54
-21.03
-26.15
-32.03
-38.71
-46.09
-53.72
-60.68
-65.76
-67.67
-65.54
-59.21
-49.33
-37.1
-23.96
-11.15
0.49
10.51
18.72
25.06
29.48
32.0
32.81
32.33
31.17
30.01
29.37
29.44
30.05
30.78
31.17
30.93
30.02
28.66
27.11
25.48
23.66
21.32
18.12
13.85
8.57
2.65
-3.46
-9.3
-14.64
-19.49
-24.1
-28.88
-34.2
-40.34
-47.24
-54.43
-61.02
-65.84
-67.73
-65.87
-60.0
-50.57
-38.54
-25.18
-11.76
0.74
11.68
20.83
28.22
34.0
38.37
41.44
43.31
44.08
43.94
43.15
42.0
40.7
39.34
37.9
36.29
34.5
32.59
30.61
28.6
26.48
24.11
21.39
18.33
15.0
11.55
8.06
4.47
0.67
-3.49
-8.11
-13.18
-18.58
-24.22
-30.04
-36.2
-43.04
-50.95
-60.13
-70.24
-80.23
-88.5
-93.25
-93.13
-87.7
-77.62
-64.52
-50.44
-37.26
-26.11
-17.21
-9.93
-3.15
4.21
12.84
22.74
33.16
42.71
49.66
52.35
49.76
41.97
30.44
17.78
6.97
0.49
-0.64
2.87
9.05
15.52
20.48
23.28
24.36
24.73
25.44
27.15
30.13
34.42
39.89
46.2
52.69
58.2
61.21
60.24
54.32
43.5
29.0
13.06
-1.63
-12.55
-17.92
-17.07
-10.43
0.61
14.17
28.21
40.94
51.03
57.76
60.96
61.02
58.64
54.71
50.06
45.33
40.8
36.51
32.28
27.92
23.36
18.63
13.83
9.04
4.26
-0.57
-5.46
-10.29
-14.82
-18.84
-22.27
-25.23
-28.05
-31.03
-34.39
-38.12
-42.03
-45.95
-49.77
-53.62
-57.78
-62.53
-67.92
-73.53
-78.5
-81.6
-81.62
-77.79
-70.01
-58.96
-45.85
-32.03
-18.68
-6.53
4.06
13.06
20.52
26.5
31.04
34.19
36.07
36.88
36.89
36.4
35.64
34.77
33.88
32.98
32.1
31.25
30.49
29.87
29.38
28.98
28.52
27.79
26.52
24.49
21.57
17.74
13.14
7.96
2.46
-3.14
-8.64
-13.89
-18.79
-23.39
-27.89
-32.67
-38.14
-44.53
-51.64
-58.73
-64.64
-68.08
-68.0
-63.95
-56.19
-45.52
-33.07
-19.96
-7.08
4.89
15.52
24.51
31.7
37.04
40.56
42.39
42.72
41.79
39.96
37.64
35.27
33.27
31.89
31.17
30.95
30.91
30.75
30.27
29.37
28.11
26.55
24.67
22.36
19.47
15.9
11.7
7.12
2.52
-1.76
-5.55
-8.9
-12.07
-15.4
-19.26
-23.9
-29.48
-35.94
-42.9
-49.63
-55.08
-58.07
-57.7
-53.55
-45.91
-35.66
-24.04
-12.27
-1.27
8.41
16.56
23.15
28.22
31.75
33.74
34.29
33.62
32.13
30.27
28.44
26.87
25.62
24.56
23.6
22.62
21.55
20.27
18.63
16.42
13.47
9.76
5.46
0.89
-3.6
-7.69
-11.29
-14.51
-17.68
-21.24
-25.61
-30.99
-37.14
-43.42
-48.78
-52.07
-52.33
-49.13
-42.66
-33.71
-23.36
-12.69
-2.51
6.69
14.69
21.37
26.6
30.21
32.17
32.58
31.8
30.34
28.67
27.1
25.73
24.49
23.26
22.0
20.76
19.64
18.71
17.93
17.1
15.96
14.18
11.47
7.73
2.99
-2.47
-8.23
-13.86
-19.0
-23.54
-27.64
-31.68
-36.16
-41.48
-47.8
-54.82
-61.83
-67.73
-71.33
-71.63
-68.18
-61.17
-51.39
-39.94
-27.93
-16.22
-5.29
4.62
13.47
21.17
27.64
32.71
36.3
38.41
39.15
38.75
37.52
35.79
33.83
31.85
29.94
28.1
26.31
24.55
22.86
21.27
19.75
18.19
16.38
14.13
11.38
8.19
4.75
1.28
-2.11
-5.42
-8.81
-12.49
-16.69
-21.63
-27.45
-34.19
