-25.86
-30.82
-36.78
-43.83
-51.71
-59.67
-66.54
-71.01
-72.0
-68.94
-62.02
-52.07
-40.3
-27.95
-15.96
-4.94
4.85
13.35
20.56
26.48
31.04
34.23
36.04
36.55
35.98
34.62
32.85
31.05
29.53
28.47
27.89
27.63
27.49
27.23
26.69
25.8
24.53
22.86
20.77
18.18
15.01
11.22
6.81
1.89
-3.37
-8.69
-13.8
-18.46
-22.59
-26.31
-29.94
-33.92
-38.64
-44.22
-50.33
-56.18
-60.62
-62.49
-60.93
-55.65
-47.02
-35.92
-23.56
-11.12
0.41
10.39
18.49
24.62
28.9
31.51
32.71
32.78
32.05
30.8
29.27
27.63
25.9
24.05
22.07
20.04
18.23
16.9
16.19
15.96
15.78
15.02
13.16
9.97
5.56
0.35
-5.2
-10.68
-15.94
-20.97
-26.0
-31.22
-36.82
-42.76
-48.72
-54.03
-57.8
-59.08
-57.18
-51.89
-43.57
-33.08
-21.52
-9.98
0.7
9.98
17.64
23.61
27.92
30.65
31.95
32.05
31.3
30.09
28.78
27.54
26.35
25.02
23.38
21.38
19.2
17.12
15.4
14.05
12.83
11.3
9.02
5.73
1.47
-3.48
-8.73
-13.96
-19.01
-23.96
-29.06
-34.66
-41.08
-48.46
-56.57
-64.81
-72.11
-77.25
-79.09
-76.91
-70.66
-60.93
-48.82
-35.58
-22.34
-9.93
1.25
11.07
19.54
26.69
32.48
36.81
39.67
41.2
41.68
41.56
41.24
40.96
40.68
40.19
39.25
37.73
35.72
33.44
31.12
28.86
26.58
24.06
21.14
17.69
13.71
9.3
4.53
-0.5
-5.7
-11.0
-16.32
-21.71
-27.32
-33.47
-40.56
-48.74
-57.84
-67.09
-75.24
-80.83
-82.53
-79.63
-72.14
-60.84
-46.97
-31.95
-17.01
-3.05
9.4
20.09
29.01
36.29
42.09
46.57
49.8
51.81
52.63
52.39
51.33
49.77
48.12
46.68
45.6
44.88
44.36
43.82
43.02
41.76
39.93
37.47
34.42
30.85
26.84
22.46
17.67
12.39
6.56
0.18
-6.52
-13.17
-19.4
-24.98
-29.97
-34.74
-39.86
-45.87
-53.0
-61.02
-69.1
-75.96
-80.15
-80.42
-76.1
-67.33
-55.0
-40.51
-25.32
-10.59
2.95
14.95
25.28
33.81
40.36
44.81
47.23
47.94
47.46
46.42
45.28
44.27
43.36
42.42
41.37
40.23
39.16
38.28
37.59
36.94
36.01
34.49
32.13
28.84
24.7
19.89
14.71
9.52
4.61
0.18
-3.86
-7.89
-12.54
-18.4
-25.75
-34.31
-43.12
-50.76
-55.75
-57.01
-54.12
-47.46
-38.02
-27.03
-15.63
-4.68
5.31
14.04
21.35
27.1
31.2
33.71
34.88
35.12
34.92
34.65
34.42
34.1
33.42
32.18
30.28
27.81
24.94
21.79
18.4
14.73
10.74
6.41
1.82
-2.91
-7.65
-12.32
-16.89
-21.42
-26.1
-31.26
-37.26
-44.37
-52.54
-61.3
-69.76
-76.72
-81.06
-82.0
-79.28
-73.18
-64.29
-53.37
-41.1
-28.1
-14.99
-2.39
9.05
18.77
26.34
31.59
34.63
35.77
35.49
34.35
32.86
31.38
30.12
29.08
28.22
27.53
27.08
27.02
27.38
28.03
28.58
28.51
27.34
24.79
20.89
15.9
10.21
4.16
-2.03
-8.34
-14.82
-21.63
-28.95
-36.99
-45.92
-55.76
-66.15
-76.23
-84.7
-90.06
-91.01
-86.94
-78.13
-65.66
-51.1
-36.0
-21.51
-8.17
3.93
14.97
25.04
34.0
41.5
47.17
50.83
52.65
53.11
52.78
52.09
51.23
50.16
48.76
47.07
45.27
43.65
42.37
41.39
40.4
38.91
36.46
32.76
27.82
21.82
15.16
8.26
1.49
-4.89
-10.84
-16.51
-22.17
-28.22
-35.12
-43.2
-52.62
-63.11
-73.87
-83.63
-90.73
-93.57
-91.04
-82.85
-69.67
-52.94
-34.5
-16.13
0.88
15.81
28.49
39.02
47.49
53.93
58.29
60.58
61.02
60.06
58.3
56.24
54.17
52.16
50.08
47.84
45.44
42.98
40.62
38.38
36.2
33.92
31.32
28.23
24.53
20.16
15.18
9.73
4.05
-1.58
-6.96
-12.1
-17.21
-22.72
-29.1
-36.71
-45.53
-55.05
-64.26
-71.76
-76.09
-76.1
-71.26
-61.82
-48.77
-33.52
-17.58
-2.2
11.78
23.96
34.15
42.31
48.37
52.34
54.3
54.49
53.3
51.21
48.6
45.73
42.7
39.55
36.36
33.27
30.44
27.96
25.7
23.37
20.54
16.82
12.06
6.35
0.02
-6.55
-13.07
-19.51
-26.16
-33.45
-41.83
-51.39
-61.63
-71.41
-79.09
-82.93
-81.64
-74.84
-63.13
-48.0
-31.27
-14.65
0.65
14.01
25.24
34.31
41.21
45.92
48.51
49.27
48.67
47.3
45.69
44.11
42.56
40.86
38.8
36.36
33.67
30.95
28.37
25.89
23.26
20.13
16.2
11.38
5.82
-0.11
-5.95
-11.26
-15.79
-19.6
-23.09
-26.9
-31.81
-38.38
-46.7
-56.13
-65.4
-72.79
-76.57
-75.5
-69.1
-57.84
-42.89
-25.87
-8.39
8.23
23.15
36.01
46.74
55.41
62.12
66.94
69.96
71.37
71.48
70.7
69.44
68.02
66.49
64.78
62.65
59.95
56.65
52.89
48.9
44.86
40.79
36.48
31.65
26.05
19.61
12.57
5.37
-1.48
-7.61
-12.96
-17.88
-22.99
-29.07
-36.73
-46.16
-56.94
-67.92
-77.5
-83.88
-85.56
-81.76
-72.6
-59.03
-42.57
-24.89
-7.46
8.63
22.73
34.48
43.78
50.7
55.41
58.2
59.43
59.4
58.33
56.34
53.52
49.99
45.96
41.71
37.52
33.59
29.97
26.57
23.24
19.74
15.85
11.4
6.33
0.71
-5.21
-11.15
-16.86
-22.36
-27.94
-34.11
-41.43
-50.11
-59.79
-69.42
-77.43
-82.08
-82.02
-76.64
-66.34
-52.36
-36.39
-20.14
-4.91
8.57
20.01
29.43
36.89
42.52
46.42
48.78
49.85
49.91
49.17
47.78
45.87
43.56
41.07
38.64
36.41
34.39
32.37
30.02
26.99
23.05
18.17
12.52
6.4
0.13
-6.02
-11.97
-17.82
-23.9
-30.66
-38.43
-47.23
-56.53
-65.23
-71.83
-74.83
-73.18
-66.62
-55.79
-41.98
-26.78
-11.56
2.74
15.64
26.96
36.57
44.29
49.85
53.08
54.01
52.91
50.22
46.47
42.1
37.5
33.01
28.95
25.59
23.05
21.24
19.83
18.33
16.28
13.37
9.59
5.14
0.37
-4.37
-8.89
-13.23
-17.61
-22.45
-28.18
-35.13
-43.25
-51.99
-60.24
-66.48
-69.19
-67.31
-60.61
-49.78
-36.26
-21.75
-7.79
4.62
15.02
23.37
29.87
34.65
37.83
39.51
39.81
38.98
37.33
35.21
32.87
30.48
28.07
25.63
23.1
20.42
17.61
14.66
11.6
8.4
5.05
1.53
-2.15
-5.97
-9.93
-14.08
-18.6
-23.76
-29.85
-36.93
-44.67
-52.25
-58.44
-61.94
-61.72
-57.36
-49.13
-37.93
-24.99
-11.6
1.11
12.35
21.62
28.75
33.71
36.62
37.65
37.07
35.21
32.47
29.26
25.92
22.7
19.78
17.22
15.08
13.36
11.95
10.66
9.16
7.09
4.19
0.32
-4.43
-9.8
-15.49
-21.27
-27.08
-33.09
-39.62
-46.86
-54.71
-62.45
-68.89
-72.54
-72.13
-67.07
-57.61
-44.87
-30.4
-15.77
-2.16
9.79
19.84
28.02
34.35
38.81
41.4
42.32
41.9
40.66
39.09
37.47
35.88
34.16
32.13
29.74
27.09
24.46
22.05
19.91
17.81
15.4
12.28
8.3
3.56
-1.59
-6.74
-11.54
-15.94
-20.12
-24.44
-29.32
-35.08
-41.91
-49.74
-58.1
-66.08
-72.37
-75.57
-74.56
-68.91
-59.09
-46.33
-32.17
-18.04
-4.87
6.92
17.25
26.17
33.59
39.4
43.52
46.04
47.23
47.47
47.14
46.48
45.63
44.6
43.35
41.84
40.05
37.99
35.69
33.25
30.74
28.22
25.66
22.93
19.83
16.14
11.76
6.75
1.33
-4.2
-9.58
-14.68
-19.6
-24.59
-30.0
-36.13
-43.1
-50.67
-58.25
-64.87
-69.38
-70.72
-68.21
-61.75
-51.89
-39.68
-26.33
-12.98
-0.49
10.64
20.16
27.99
34.09
38.51
41.34
42.78
43.12
42.69
41.84
40.77
39.56
38.15
36.46
34.44
32.16
29.78
27.45
25.22
22.94
20.32
17.06
13.01
8.24
3.12
-1.88
-6.36
-10.23
-13.69
-17.21
-21.37
-26.62
-33.06
-40.3
-47.48
-53.42
-56.89
-56.94
-53.22
-46.03
-36.23
-24.96
-13.38
-2.4
7.38
15.57
22.01
26.6
29.43
30.69
30.77
30.1
29.09
28.04
27.0
25.93
24.74
23.38
21.91
20.44
19.07
17.8
16.52
14.97
12.89
10.08
6.47
2.16
-2.6
-7.48
-12.19
-16.55
-20.59
-24.51
-28.74
-33.71
-39.71
-46.63
-53.82
-60.15
-64.26
-64.97
-61.65
-54.45
-44.17
-32.07
-19.46
-7.37
3.55
13.03
20.98
27.43
32.37
35.81
37.8
38.46
38.02
36.82
35.17
33.36
31.51
29.65
27.72
25.68
23.56
21.45
19.49
17.74
16.11
14.39
12.3
9.62
6.28
2.39
-1.8
-6.04
-10.16
-14.06
-17.76
-21.31
-24.81
-28.41
-32.39
-37.09
-42.83
-49.74
-57.55
-65.51
-72.45
-76.98
-77.89
-74.49
-66.87
-55.81
-42.65
-28.83
-15.53
-3.48
7.06
16.13
23.83
30.18
35.08
38.46
40.39
41.14
41.15
40.81
40.39
39.93
39.33
38.51
37.47
36.36
35.3
34.35
33.38
32.13
30.29
27.67
24.3
20.38
16.19
12.0
7.93
3.96
0.03
-3.88
-7.72
-11.38
-14.83
-18.16
-21.67
-25.8
-30.96
-37.39
-44.96
-53.01
-60.46
-66.01
-68.43
-66.95
-61.46
-52.59
-41.44
-29.29
-17.3
-6.27
3.35
11.35
17.68
22.29
25.25
26.68
26.81
25.99
24.58
22.92
21.22
19.6
18.09
16.72
15.54
14.63
14.05
13.76
13.56
13.13
12.14
10.35
7.65
4.16
0.1
-4.2
-8.41
-12.33
-15.91
-19.34
-23.0
-27.4
-32.91
-39.54
-46.75
-53.47
-58.37
-60.23
-58.37
-52.86
-44.47
-34.42
-23.99
-14.21
-5.68
1.39
7.0
11.27
14.28
16.15
17.03
17.18
16.93
16.64
16.59
16.88
17.41
17.98
18.35
18.38
18.15
17.88
17.84
18.17
18.72
19.07
18.62
16.9
13.72
9.3
4.18
-1.02
-5.85
-10.18
-14.25
-18.55
-23.63
-29.93
-37.57
-46.29
-55.31
-63.46
-69.36
-71.78
-69.95
-63.84
-54.15
-42.04
-28.86
-15.74
-3.44
7.63
17.36
25.66
32.44
37.54
40.88
42.45
42.46
41.25
39.3
37.05
34.88
32.99
31.43
30.11
28.89
27.59
26.08
24.27
22.15
19.68
16.86
13.66
10.03
5.95
1.42
-3.48
-8.6
-13.75
-18.74
-23.43
-27.82
-32.08
-36.53
-41.6
-47.71
-55.1
-63.75
-73.14
-82.24
-89.62
-93.71
-93.23
-87.61
-77.2
-63.18
-47.23
-31.08
-16.08
-3.02
7.85
16.63
23.63
29.2
33.77
37.73
41.53
45.51
49.87
54.55
59.32
63.8
67.6
70.44
72.16
72.7
72.05
70.22
67.28
63.37
58.8
53.93
49.05
44.34
39.73
35.02
29.99
24.5
18.56
12.29
5.85
-0.7
-7.36
-14.29
-21.66
-29.68
-38.48
-48.05
-58.04
-67.68
-75.78
-80.94
-81.88
-77.96
-69.36
-57.12
-42.84
-28.18
-14.42
-2.22
8.3
17.28
24.86
31.02
35.65
38.72
40.39
41.05
41.15
40.99
40.64
39.96
38.79
37.07
35.01
32.94
31.18
29.84
28.72
27.31
25.03
21.43
16.44
10.39
3.99
-2.01
-7.09
-11.18
-14.69
-18.37
-22.98
-29.01
-36.5
-44.93
-53.32
-60.4
-64.89
-65.8
-62.62
-55.55
-45.33
-33.11
-20.11
-7.35
4.66
15.88
26.53
36.77
46.31
54.39
60.01
62.41
61.61
58.45
54.41
50.93
48.88
48.3
48.58
48.92
48.82
48.14
47.09
45.8
44.13
41.64
37.84
32.42
25.5
17.63
9.61
2.18
-4.23
-9.63
-14.39
-19.09
-24.27
-30.3
-37.3
-45.13
-53.38
-61.37
-68.08
-72.4
-73.25
-70.0
-62.64
-51.86
-38.86
-25.02
-11.58
0.66
11.28
20.24
27.62
33.54
38.11
41.4
43.5
44.56
44.74
44.23
43.19
41.81
40.3
38.84
37.57
36.54
35.68
34.83
33.81
32.48
30.75
28.56
25.87
22.6
18.72
14.26
9.33
4.16
-1.03
-6.07
-10.85
-15.32
-19.5
-23.45
-27.39
-31.67
-36.76
-42.99
-50.33
-58.17
-65.31
-70.23
-71.57
-68.58
-61.39
-50.99
-38.9
-26.72
-15.71
-6.6
0.39
5.47
9.09
11.84
14.32
16.95
19.9
22.99
25.84
28.12
29.8
31.14
32.6
34.47
36.64
38.61
39.67
39.25
37.26
34.12
30.56
27.3
24.81
23.17
22.11
21.18
19.95
18.09
15.48
12.1
8.0
3.22
-2.27
-8.44
-15.24
-22.5
-30.0
-37.44
-44.5
-50.71
-55.51
-58.26
-58.4
-55.63
-50.0
-41.93
-32.15
-21.49
-10.75
-0.61
8.39
15.84
21.46
25.14
26.95
27.2
26.3
24.72
22.84
20.89
18.94
17.0
15.14
13.5
12.28
11.6
11.37
11.26
10.77
9.46
7.1
3.82
-0.04
-4.05
-7.95
-11.76
-15.82
-20.55
-26.36
-33.36
-41.36
-49.88
-58.25
-65.78
-71.74
-75.5
-76.54
-74.55
-69.51
-61.7
-51.59
-39.54
-25.6
-9.61
8.39
27.58
46.06
61.16
70.3
72.15
67.32
58.24
48.23
40.2
35.67
34.59
35.92
38.45
41.44
44.7
48.19
51.65
54.42
55.67
54.83
51.9
47.38
42.05
36.55
31.17
25.86
20.44
14.79
8.96
3.06
-2.94
-9.33
-16.57
-25.09
-34.9
-45.48
-55.67
-64.0
-69.03
-69.78
-66.0
-58.22
-47.56
-35.48
-23.38
-12.37
-3.14
4.06
9.3
12.84
14.95
15.9
15.87
15.05
13.64
11.93
10.24
8.88
8.05
7.78
7.9
8.17
8.32
8.15
7.59
6.67
5.53
4.25
2.89
1.4
-0.31
-2.38
-4.83
-7.59
-10.52
-13.47
-16.34
-19.17
-22.07
-25.19
-28.73
-32.87
-37.8
-43.61
-50.15
-56.84
-62.64
-66.21
-66.27
-62.14
-53.93
-42.62
-29.73
-16.82
-5.08
4.87
12.97
19.47
24.68
28.82
31.87
33.75
34.34
33.68
31.97
29.57
26.88
24.19
21.65
19.24
16.87
14.46
11.98
9.5
7.07
4.74
2.46
0.12
-2.4
-5.18
-8.19
-11.32
-14.37
-17.13
-19.4
-21.05
-22.09
-22.58
-22.76
-23.0
-23.75
-25.44
-28.22
-31.79
-35.33
-37.6
-37.27
-33.39
-25.65
-14.61
-1.42
12.44
25.57
37.0
46.16
52.88
57.22
59.36
59.59
58.35
56.22
53.77
51.49
49.56
47.88
46.12
43.93
41.15
37.8
34.1
30.3
26.57
22.95
19.38
15.82
12.27
8.75
5.3
1.91
-1.52
-5.18
-9.32
-14.31
-20.43
-27.79
-36.13
-44.67
-52.18
-57.22
-58.58
-55.67
-48.7
-38.65
-26.91
-14.86
-3.59
6.26
14.4
20.75
25.34
28.22
29.53
29.51
28.58
27.19
25.8
24.72
23.99
23.5
22.96
22.13
20.85
19.17
17.27
15.33
13.45
11.52
9.33
6.62
3.3
-0.56
-4.67
-8.73
-12.49
-15.91
-19.2
-22.64
-26.63
-31.48
-37.4
-44.29
-51.73
-58.81
-64.31
-66.93
-65.63
-60.1
-50.79
-38.86
-25.74
-12.77
-0.82
9.74
18.87
26.64
33.08
38.13
41.73
43.97
45.07
45.33
45.06
44.4
43.39
41.93
39.97
37.5
34.65
31.63
28.68
26.0
23.65
21.56
19.51
17.18
14.31
10.74
6.5
1.82
-2.98
-7.63
-11.96
-16.06
-20.14
-24.49
-29.38
-34.95
-41.21
-47.96
-54.75
-60.84
-65.25
-66.91
-65.05
-59.4
-50.41
-39.09
-26.7
-14.41
-3.03
7.04
15.66
22.81
28.44
32.48
34.94
35.97
35.82
34.83
33.36
31.67
29.98
28.45
27.16
26.16
25.41
24.82
24.29
23.69
22.92
21.89
20.46
18.49
15.85
12.5
8.54
4.16
-0.33
-4.66
-8.64
-12.22
-15.46
-18.55
-21.77
-25.48
-30.03
-35.57
-41.9
-48.34
-53.76
-56.89
-56.64
-52.49
-44.64
-34.01
-21.86
-9.52
1.96
11.95
20.19
26.66
31.42
34.56
36.19
36.49
35.74
34.27
32.41
30.42
28.48
26.68
25.07
23.69
22.58
21.66
20.78
19.65
18.0
15.59
12.41
8.61
4.45
0.26
-3.72
-7.4
-10.9
-14.49
-18.63
-23.75
-30.06
-37.35
-44.85
-51.29
-55.21
-55.45
-51.5
-43.75
-33.31
-21.62
-10.01
0.59
9.7
17.17
22.99
27.19
29.84
31.12
31.32
30.82
29.99
29.08
28.17
27.19
26.0
24.48
22.59
20.44
18.2
16.04
14.02
11.96
9.59
6.58
2.79
-1.71
-6.6
-11.5
-16.12
-20.37
-24.41
-28.54
-33.11
-38.4
-44.58
-51.55
-58.87
-65.72
-70.96
-73.34
-71.89
-66.23
-56.71
-44.35
-30.6
-16.93
-4.5
6.06
14.57
21.26
26.43
30.35
33.11
34.71
35.13
34.49
33.05
31.16
29.13
27.19
25.42
23.85
22.48
21.36
20.51
19.96
19.61
19.35
19.08
18.78
18.48
18.14
17.6
16.43
14.14
10.31
4.87
-1.87
-9.28
-16.68
-23.66
-30.19
-36.56
-43.12
-49.9
-56.45
-61.82
-64.86
-64.56
-60.44
-52.65
-41.95
-29.47
-16.4
-3.73
7.85
17.96
26.42
33.2
38.29
41.74
43.65
44.2
43.6
42.19
40.29
38.21
36.24
34.52
33.1
31.92
30.86
29.79
28.62
27.33
25.94
24.45
22.8
20.82
18.33
15.13
11.2
6.64
1.74
-3.17
-7.81
-12.1
-16.09
-20.01
-24.12
-28.68
-33.87
-39.69
-45.93
-52.04
-57.18
-60.34
-60.58
-57.34
-50.64
-41.11
-29.78
-17.85
-6.3
4.2
13.32
20.92
26.95
31.41
34.33
35.89
36.41
36.27
35.79
35.17
34.41
33.43
32.15
30.55
28.72
26.8
24.86
22.83
20.51
17.67
14.18
10.14
5.83
1.7
-1.92
-4.89
-7.44
-10.02
-13.18
-17.37
-22.78
-29.28
-36.36
-43.2
-48.72
-51.8
-51.57
-47.61
-40.18
-30.1
-18.6
-6.91
4.01
13.6
21.67
28.23
33.31
36.91
39.09
39.95
39.72
38.7
37.17
35.34
33.37
31.3
29.21
27.2
25.32
23.69
22.3
21.09
19.93
18.61
16.9
14.59
11.6
7.97
3.86
-0.42
-4.66
-8.7
-12.56
-16.35
-20.25
-24.44
-29.11
-34.37
-40.28
-46.65
-52.96
-58.38
-61.88
-62.51
-59.67
-53.32
-43.95
-32.42
-19.73
-6.76
5.82
17.52
27.95
36.8
43.81
48.8
51.72
52.67
51.88
49.69
46.49
42.71
38.75
34.97
31.62
28.87
26.74
25.15
23.9
22.77
21.48
19.79
17.56
14.7
11.29
7.42
3.25
-1.11
-5.56
-10.0
-14.3
-18.34
-22.0
-25.26
-28.26
-31.28
-34.66
-38.77
-43.87
-50.0
-56.84
-63.69
-69.47
-72.91
-72.85
-68.62
-60.29
-48.68
-35.17
-21.28
-8.25
3.16
12.76
20.71
27.31
32.72
36.98
39.98
41.68
42.14
41.57
40.28
38.55
36.64
34.68
32.79
31.06
29.56
28.37
27.5
26.89
26.45
26.05
25.47
24.5
22.82
20.18
16.4
11.57
6.0
0.15
-5.46
-10.47
-14.74
-18.33
-21.52
-24.71
-28.37
-32.83
-38.16
-43.96
-49.4
-53.31
-54.6
-52.57
-47.19
-39.12
-29.45
-19.31
-9.61
-0.85
6.76
13.21
18.48
22.57
25.51
27.41
28.51
29.04
29.23
29.11
28.63
27.64
26.11
24.15
22.0
19.97
18.24
16.81
15.46
13.9
11.78
8.88
5.12
0.59
-4.45
-9.65
-14.63
-19.16
-23.15
-26.82
-30.51
-34.63
-39.4
-44.73
-50.08
-54.62
-57.37
-57.49
-54.58
-48.75
-40.58
-30.94
-20.75
-10.77
-1.5
6.7
13.64
19.18
23.23
25.84
27.14
27.38
26.87
25.94
24.88
23.94
23.23
22.77
22.42
22.02
21.44
20.65
19.73
18.81
17.92
16.98
15.78
14.07
11.62
8.35
4.32
-0.25
-5.09
-9.88
-14.36
-18.37
-21.84
-24.85
-27.65
-30.57
-34.01
-38.33
-43.61
-49.58
-55.48
-60.16
-62.39
-61.19
-56.18
-47.68
-36.68
-24.43
-12.16
-0.74
9.39
18.12
25.5
31.57
36.28
39.53
41.33
41.79
41.23
40.02
38.5
36.88
35.24
33.58
31.9
30.26
28.74
27.37
26.11
24.82
23.35
21.59
19.51
17.13
14.49
11.61
8.44
4.94
1.01
-3.38
-8.21
-13.37
-18.67
-23.94
-29.04
-33.96
-38.87
-43.98
-49.51
-55.49
-61.6
-67.17
-71.25
-72.87
-71.3
-66.28
-58.15
-47.7
-35.97
-23.95
-12.38
-1.72
7.78
15.96
22.67
27.77
31.18
33.0
33.48
32.95
31.78
30.25
28.53
26.76
25.06
23.54
22.35
21.62
21.38
21.56
22.0
22.38
22.32
21.4
19.31
15.95
11.48
6.32
0.95
-4.22
-9.03
-13.64
-18.44
-23.89
-30.31
-37.64
-45.35
-52.39
-57.49
-59.44
-57.48
-51.54
-42.3
-30.93
-18.77
-6.98
3.63
12.63
19.82
25.14
28.57
30.17
30.16
28.95
27.08
25.15
23.63
22.72
22.33
22.15
21.85
21.21
20.26
19.16
18.08
17.09
16.07
14.74
12.81
10.03
6.36
1.92
-3.01
-8.11
-13.12
-17.92
-22.6
-27.43
-32.81
-39.05
-46.32
-54.35
-62.5
-69.68
-74.64
-76.19
-73.55
-66.57
-55.86
-42.58
-28.21
-14.11
-1.23
10.0
19.58
27.71
34.55
40.09
44.18
46.67
47.61
47.29
46.22
44.89
43.65
42.58
41.53
40.28
38.69
36.79
34.72
32.73
30.92
29.27
27.55
25.41
22.54
18.78
14.18
8.98
3.56
-1.75
-6.75
-11.44
-16.03
-20.88
-26.38
-32.89
-40.58
-49.26
-58.27
-66.51
-72.6
-75.2
-73.39
-66.97
-56.55
-43.4
-29.08
-15.01
-2.15
9.09
18.72
26.97
34.02
39.94
44.67
48.13
50.28
51.19
51.01
49.99
48.39
46.47
44.51
42.69
41.14
39.87
38.83
37.93
37.07
36.11
34.83
33.02
30.44
26.97
22.62
17.56
12.04
6.38
0.82
-4.46
-9.43
-14.19
-18.95
-23.99
-29.61
-36.02
-43.22
-50.86
-58.2
-64.12
-67.37
-66.97
-62.47
-54.21
-43.19
-30.81
-18.38
-6.87
3.2
11.65
18.48
23.72
27.43
29.79
31.11
31.78
32.2
32.61
33.05
33.42
33.57
33.44
33.15
32.88
32.78
32.79
32.66
31.88
29.97
26.66
21.98
16.28
10.09
3.95
-1.82
-7.11
-12.03
-16.91
-22.06
-27.78
-34.13
-40.84
-47.12
-51.85
-53.78
-51.97
-46.19
-36.97
-25.54
-13.31
-1.49
9.21
18.48
26.3
32.64
37.37
40.35
41.58
41.37
40.25
38.83
37.58
36.66
35.92
35.11
34.01
32.58
30.95
29.34
27.86
26.48
24.99
23.07
20.44
16.98
12.71
7.86
2.71
-2.47
-7.54
-12.51
-17.61
-23.11
-29.3
-36.31
-43.96
-51.73
-58.66
-63.58
-65.31
-63.05
-56.64
-46.66
-34.3
-20.95
-7.9
4.02
14.46
23.42
31.02
37.34
42.3
45.85
47.99
48.92
48.98
48.53
47.8
46.84
45.52
43.71
41.38
38.71
36.01
33.61
31.68
30.17
28.78
27.13
24.82
21.63
17.52
12.63
7.26
1.74
-3.63
-8.65
-13.3
-17.68
-22.05
-26.71
-31.98
-37.94
-44.38
-50.69
-55.92
-58.99
-59.02
-55.56
-48.81
-39.48
-28.62
-17.3
-6.38
3.62
12.41
19.92
26.17
31.21
35.11
37.92
39.65
40.34
40.05
38.91
37.18
35.13
33.01
30.99
29.15
27.48
25.97
24.61
23.3
21.93
20.34
18.43
16.23
13.87
11.53
9.25
6.96
4.45
1.51
-1.91
-5.67
-9.54
-13.26
-16.72
-20.07
-23.57
-27.6
-32.45
-38.21
-44.63
-51.04
-56.45
-59.74
-59.97
-56.68
-50.13
-41.12
-30.82
-20.34
-10.45
-1.57
6.23
12.96
18.57
22.96
26.01
27.75
28.39
28.32
27.92
27.47
27.01
26.43
25.59
24.46
23.2
22.05
21.22
20.73
20.38
19.85
18.78
16.95
14.33
11.09
7.45
3.69
-0.02
-3.65
-7.28
-11.15
-15.52
-20.63
-26.47
-32.72
-38.74
-43.63
-46.52
-46.65
-43.74
-37.94
-29.91
-20.59
-11.0
-2.03
5.71
11.93
16.63
19.92
21.96
22.86
22.76
21.84
20.38
18.72
17.21
16.03
15.19
14.51
13.8
12.96
12.02
11.17
10.55
10.17
9.82
9.11
7.64
5.19
1.73
-2.46
-7.01
-11.51
-15.72
-19.58
-23.17
-26.73
-30.52
-34.79
-39.69
-45.16
-50.84
-56.01
-59.7
-60.92
-58.96
-53.62
-45.35
-35.09
-24.01
-13.18
-3.36
5.11
12.2
18.07
22.93
26.89
30.03
32.32
33.75
34.36
34.19
33.39
32.08
30.42
28.56
26.65
24.84
23.21
21.83
20.71
19.77
18.89
17.85
16.41
14.32
11.42
7.67
3.22
-1.65
-6.59
-11.31
-15.69
-19.73
-23.55
-27.33
-31.27
-35.58
-40.47
-46.06
-52.23
-58.43
-63.7
-66.8
-66.65
-62.71
-55.24
-45.22
-34.03
-22.96
-12.84
-3.93
3.92
11.0
17.44
23.19
28.03
31.77
34.34
35.78
36.24
35.87
34.85
33.39
31.72
30.08
28.64
27.45
26.44
25.45
24.34
22.98
21.32
19.34
17.02
14.33
11.25
7.74
3.85
-0.34
-4.71
-9.1
-13.37
-17.4
-21.14
-24.59
-27.88
-31.27
-35.15
-39.86
-45.51
-51.78
-57.86
-62.52
-64.51
-62.92
-57.51
-48.84
-38.0
-26.31
-14.94
-4.65
4.18
11.49
17.37
21.95
25.35
27.65
28.96
29.34
28.86
27.58
25.55
22.93
19.96
17.02
14.49
12.68
11.71
11.44
11.53
11.5
10.93
9.55
7.27
4.25
0.75
-2.96
-6.67
-10.32
-14.11
-18.36
-23.43
-29.47
-36.28
-43.16
-48.98
-52.45
-52.51
-48.7
-41.27
-31.15
-19.61
-7.89
3.08
12.8
21.09
27.96
33.43
37.51
40.21
41.64
41.97
41.52
40.55
39.3
37.87
36.29
34.51
32.51
30.33
28.12
26.0
24.07
22.26
20.35
18.02
14.98
11.08
6.36
1.06
-4.52
-10.04
-15.25
-20.02
-24.4
-28.6
-33.02
-38.14
-44.33
-51.63
-59.58
-67.19
-73.12
-76.01
-74.94
-69.62
-60.53
-48.7
-35.39
-21.82
-8.89
2.83
13.08
21.77
28.91
34.53
38.71
41.61
43.45
44.51
45.02
45.14
44.91
44.33
43.38
42.12
40.59
38.82
36.82
34.61
32.23
29.73
27.19
24.61
21.91
18.91
15.44
11.44
6.97
2.22
-2.63
-7.4
-12.08
-16.72
-21.44
-26.47
-32.07
-38.5
-45.83
-53.76
-61.49
-67.76
-71.19
-70.68
-65.78
-56.88
-45.06
-31.72
-18.2
-5.47
5.95
15.87
24.3
31.29
36.84
40.96
43.65
44.97
45.1
44.36
43.09
41.68
40.4
39.35
38.49
37.68
36.81
35.79
34.58
33.23
31.71
29.98
27.94
25.42
22.33
18.59
14.3
9.63
4.84
0.15
-4.35
-8.68
-13.05
-17.67
-22.78
-28.53
-34.93
-41.75
-48.46
-54.21
-57.91
-58.54
-55.44
-48.56
-38.53
-26.45
-13.65
-1.3
9.74
19.0
26.34
31.84
35.68
38.09
39.35
39.71
39.39
38.53
37.17
35.32
33.01
30.39
27.68
25.16
23.06
21.41
20.02
18.58
16.74
14.3
11.27
7.82
4.16
0.46
-3.19
-6.84
-10.65
-14.86
-19.77
-25.6
-32.31
-39.37
-45.78
-50.21
-51.46
-48.8
-42.31
-32.79
-21.51
-9.85
1.08
10.58
18.3
24.21
28.42
31.08
32.41
32.66
32.14
31.16
30.01
28.94
28.06
27.35
26.74
26.08
25.32
24.49
23.61
22.71
21.66
20.2
18.0
14.77
10.43
5.13
-0.72
-6.63
-12.12
-16.97
-21.21
-25.16
-29.3
-34.13
-39.93
-46.69
-53.87
-60.56
-65.56
-67.74
-66.32
-61.12
-52.61
-41.76
-29.81
-17.95
-7.18
1.87
8.95
14.06
17.44
19.41
20.27
20.29
19.62
18.32
16.46
14.06
11.13
7.71
3.95
0.08
-3.5
-6.3
-7.94
-8.24
-7.38
-5.76
-3.94
-2.34
-1.22
-0.57
-0.22
0.06
0.47
1.07
1.77
2.31
2.36
1.56
-0.32
-3.39
-7.55
-12.52
-17.9
-23.02
-27.04
-29.01
-28.14
-24.0
-16.8
-7.35
3.16
13.49
22.66
30.11
35.71
39.54
41.76
42.48
41.81
39.88
37.01
33.69
30.51
28.0
26.47
25.89
25.92
26.1
26.07
25.73
25.27
24.95
24.89
24.99
24.83
23.93
21.94
18.77
14.6
9.77
4.65
-0.48
-5.44
-10.13
-14.58
-18.92
-23.4
-28.3
-33.77
-39.66
-45.4
-50.12
-52.87
-52.92
-49.96
-44.17
-36.1
-26.55
-16.36
-6.32
2.98
11.1
17.81
23.04
26.83
29.29
30.51
30.64
29.83
28.33
26.42
24.38
22.41
20.65
19.13
17.81
16.64
15.53
14.28
12.65
10.36
7.19
3.12
-1.69
-6.9
-12.17
-17.23
-22.03
-26.7
-31.5
-36.69
-42.36
-48.3
-53.94
-58.42
-60.77
-60.21
-56.36
-49.44
-40.16
-29.56
-18.69
-8.39
0.81
8.7
15.21
20.4
24.28
26.92
28.42
28.95
28.77
28.14
27.3
26.34
25.26
23.99
22.46
20.7
18.85
17.1
15.61
14.39
13.23
11.77
9.6
6.45
2.3
-2.57
-7.71
-12.67
-17.18
-21.29
-25.37
-29.93
-35.47
-42.14
-49.65
-57.13
-63.32
-66.81
-66.55
-62.06
-53.59
-42.05
-28.69
-14.75
-1.3
10.95
21.54
30.25
36.96
41.66
44.42
45.46
45.1
43.76
41.91
39.97
38.22
36.71
35.34
33.94
32.38
30.67
28.91
27.24
25.69
24.13
22.33
20.03
17.04
13.28
8.87
4.0
-1.04
-5.94
-10.48
-14.55
-18.21
-21.7
-25.38
-29.71
-35.03
-41.46
-48.69
-55.91
-61.92
-65.35
-65.13
-60.77
-52.58
-41.52
-28.9
-15.95
-3.58
7.67
17.57
25.98
32.83
38.05
41.64
43.73
44.54
44.37
43.52
42.27
40.79
39.21
37.55
35.86
34.16
32.57
31.2
30.11
29.19
28.15
26.59
24.16
20.73
16.4
11.51
6.44
1.48
-3.22
-7.72
-12.16
-16.72
-21.63
-27.12
-33.37
-40.34
-47.66
-54.5
-59.68
-61.99
-60.55
-55.17
-46.36
-35.19
-22.95
-10.82
0.37
10.14
18.26
24.63
29.25
32.21
33.73
34.05
33.46
32.18
30.33
28.06
25.53
23.01
20.75
18.98
17.73
16.85
16.03
14.88
13.11
10.57
7.3
3.49
-0.66
-4.98
-9.38
-13.9
-18.62
-23.71
-29.32
-35.53
-42.2
-48.84
-54.53
-58.06
-58.2
-54.23
-46.22
-35.14
-22.51
-9.94
1.44
11.16
19.28
26.07
31.72
36.15
39.14
40.59
40.66
39.75
38.37
36.86
35.34
33.69
31.74
29.43
26.89
24.37
22.13
20.25
18.55
16.7
14.27
10.93
6.56
1.33
-4.39
-10.12
-15.43
-20.14
-24.31
-28.26
-32.46
-37.35
-43.17
-49.79
-56.64
-62.71
-66.73
-67.48
-64.19
-56.81
-46.05
-33.16
-19.55
-6.36
5.7
16.33
25.47
33.05
38.92
42.99
45.32
46.2
46.13
45.56
44.79
43.88
42.66
40.94
38.66
35.87
32.81
29.75
26.93
24.43
22.18
19.97
17.48
14.41
10.58
6.0
0.88
-4.41
-9.55
-14.35
-18.81
-23.13
-27.65
-32.74
-38.72
-45.71
-53.44
-61.2
-67.8
-71.88
-72.24
-68.25
-60.05
-48.55
-35.13
-21.22
-7.95
3.97
14.23
22.76
29.55
34.57
37.85
39.48
39.79
39.19
38.14
36.97
35.76
34.42
32.77
30.78
28.58
26.48
24.74
23.45
22.38
21.13
19.26
16.52
12.91
8.66
4.1
-0.46
-4.83
-8.98
-12.98
-17.07
-21.55
-26.74
-32.78
-39.42
-45.94
-51.2
-53.94
-53.19
-48.59
-40.53
-30.0
-18.3
-6.65
4.02
13.19
20.64
26.36
30.4
32.86
33.86
33.59
32.31
30.37
28.1
25.77
23.55
21.5
19.65
18.01
16.58
15.29
14.02
12.5
10.42
7.56
3.83
-0.6
-5.42
-10.24
-14.78
-18.91
-22.79
-26.78
-31.31
-36.72
-42.94
-49.41
-55.06
-58.6
-58.85
-55.13
-47.53
-36.81
-24.22
-11.09
1.48
12.76
22.43
30.41
36.7
41.3
44.18
45.34
44.97
43.41
41.17
38.79
36.57
34.61
32.76
30.78
28.56
26.16
23.81
21.76
20.12
18.77
17.39
15.54
12.87
9.25
4.8
-0.13
-5.09
-9.66
-13.68
-17.25
-20.76
-24.7
-29.55
-35.55
-42.6
-50.14
-57.24
-62.7
-65.33
-64.28
-59.23
-50.55
-39.18
-26.38
-13.36
-1.07
9.97
19.57
27.69
34.29
39.29
42.6
44.25
44.41
43.44
41.8
39.86
37.88
35.95
34.06
32.17
30.28
28.42
26.64
24.95
23.38
21.93
20.55
19.17
17.6
15.57
12.85
9.3
4.94
-0.0
-5.17
-10.21
-14.84
-18.98
-22.7
-26.29
-30.13
-34.65
-40.14
-46.55
-53.37
-59.57
-63.83
-64.9
-61.98
-55.03
-44.76
-32.42
-19.4
-6.85
4.5
14.35
22.66
29.44
34.65
38.24
40.2
40.66
39.93
38.46
36.71
35.08
33.77
32.81
32.1
31.48
30.78
29.89
28.74
27.31
25.57
23.51
21.09
18.31
15.19
11.8
8.26
4.66
1.14
-2.21
-5.32
-8.2
-10.91
-13.63
-16.59
-20.07
-24.35
-29.6
-35.72
-42.21
-48.18
-52.44
-53.8
-51.47
-45.3
-35.9
-24.48
-12.5
-1.32
8.07
15.14
19.81
22.24
22.85
22.17
20.82
19.47
18.63
18.56
19.18
20.14
20.96
21.18
20.55
19.04
16.81
14.13
11.27
8.39
5.52
2.57
-0.62
-4.18
-8.09
-12.23
-16.32
-20.15
-23.65
-26.93
-30.3
-34.04
-38.32
-42.97
-47.52
-51.2
-53.14
-52.54
-48.93
-42.26
-32.99
-21.99
-10.35
0.89
10.95
19.45
26.3
31.63
35.56
38.11
39.26
39.06
37.71
35.58
33.16
30.82
28.75
26.91
25.14
23.27
21.29
19.29
17.43
15.81
14.31
12.65
10.49
7.57
3.83
-0.52
-5.12
-9.6
-13.77
-17.6
-21.31
-25.18
-29.52
-34.55
-40.39
-47.02
-54.19
-61.31
-67.45
-71.51
-72.41
-69.54
-62.9
-53.18
-41.49
-29.11
-17.08
-6.03
3.73
12.14
19.21
24.91
29.17
31.95
33.32
33.49
32.8
31.65
30.39
29.29
28.43
27.79
27.26
26.74
26.11
25.31
24.24
22.83
21.03
18.81
16.22
13.33
10.15
6.67
2.8
-1.56
-6.41
-11.64
-17.01
-22.2
-26.92
-31.03
-34.6
-37.96
-41.61
-46.03
-51.51
-57.88
-64.46
-70.1
-73.49
-73.54
-69.64
-61.96
-51.27
-38.78
-25.72
-13.08
-1.44
8.94
18.03
25.81
32.23
37.22
40.8
43.1
44.35
44.76
44.51
43.66
42.28
40.53
38.68
36.99
35.62
34.53
33.48
32.13
30.21
27.64
24.54
21.17
17.78
14.58
11.6
8.73
5.77
2.53
-1.08
-5.0
-9.07
-13.07
-16.89
-20.55
-24.24
-28.24
-32.86
-38.26
-44.41
-50.9
-56.95
-61.53
-63.56
-62.27
-57.43
-49.49
-39.39
-28.28
-17.18
-6.76
2.72
11.25
18.92
25.7
31.48
36.11
39.51
41.69
42.82
43.11
42.68
41.61
39.93
37.74
35.26
32.78
30.57
28.74
27.12
25.36
23.03
19.84
15.71
10.79
