-7.33
0.73
7.52
12.97
17.04
19.81
21.42
22.16
22.32
22.23
22.18
22.38
22.9
23.61
24.32
24.84
25.09
25.18
25.21
25.25
25.18
24.78
23.77
22.04
19.67
16.96
14.22
11.65
9.26
6.85
4.17
1.06
-2.44
-6.12
-9.74
-13.11
-16.26
-19.38
-22.75
-26.65
-31.25
-36.56
-42.31
-47.93
-52.48
-54.9
-54.27
-50.21
-43.04
-33.72
-23.47
-13.4
-4.2
3.85
10.78
16.6
21.23
24.52
26.4
26.95
26.53
25.64
24.83
24.47
24.74
25.51
26.52
27.46
28.11
28.46
28.6
28.67
28.62
28.25
27.23
25.36
22.62
19.31
15.88
12.67
9.82
7.13
4.24
0.82
-3.22
-7.68
-12.18
-16.33
-20.04
-23.43
-26.85
-30.69
-35.21
-40.46
-46.25
-52.2
-57.68
-61.89
-63.94
-63.02
-58.72
-51.17
-41.07
-29.58
-17.94
-7.13
2.23
9.94
16.08
20.79
24.21
26.4
27.42
27.46
26.85
26.04
25.47
25.47
26.11
27.21
28.44
29.45
30.06
30.26
30.15
29.87
29.46
28.83
27.83
26.31
24.25
21.77
19.09
16.43
13.87
11.34
8.61
5.45
1.7
-2.52
-6.92
-11.14
-14.86
-18.02
-20.8
-23.65
-27.09
-31.56
-37.27
-43.94
-50.83
-56.78
-60.51
-60.98
-57.75
-51.07
-41.83
-31.25
-20.5
-10.49
-1.71
5.64
11.59
16.21
19.67
22.11
23.73
24.69
25.18
25.33
25.25
25.04
24.79
24.6
24.55
24.78
25.34
26.28
27.53
28.9
30.04
30.55
30.07
28.43
25.78
22.53
19.15
15.92
12.88
9.82
6.45
2.65
-1.5
-5.67
-9.51
-12.83
-15.63
-18.08
-20.4
-22.9
-25.83
-29.54
-34.24
-39.93
-46.14
-51.97
-56.26
-57.84
-56.0
-50.71
-42.64
-32.87
-22.6
-12.72
-3.75
4.12
10.87
16.43
20.72
23.59
25.08
25.34
24.79
23.88
23.0
22.41
22.12
22.04
22.05
22.11
22.31
22.76
23.49
24.35
24.96
24.89
23.86
21.89
19.26
16.46
13.86
11.56
9.36
6.95
4.04
0.56
-3.31
-7.33
-11.26
-15.03
-18.71
-22.46
-26.46
-30.94
-36.03
-41.75
-47.88
-53.79
-58.51
-60.94
-60.17
-55.83
-48.26
-38.38
-27.38
-16.4
-6.2
2.81
10.53
16.96
22.08
25.83
28.19
29.25
29.28
28.69
27.92
27.36
27.19
27.41
27.87
28.38
28.79
29.05
29.16
29.1
28.76
27.98
26.56
24.43
21.69
18.58
15.44
12.52
9.89
7.42
4.83
1.86
-1.63
-5.56
-9.64
-13.53
-16.93
-19.76
-22.16
-24.55
-27.45
-31.38
-36.66
-43.21
-50.42
-57.18
-62.1
-63.91
-61.87
-56.03
-47.14
-36.45
-25.23
-14.48
-4.82
3.58
10.71
16.6
21.24
24.65
26.84
27.93
28.12
27.74
27.15
26.67
26.56
26.87
27.57
28.54
29.67
30.84
31.98
32.99
33.64
33.68
32.86
31.12
28.57
25.53
22.43
19.58
17.09
14.82
12.46
9.68
6.3
2.32
-2.01
-6.35
-10.4
-14.03
-17.3
-20.44
-23.82
-27.79
-32.62
-38.39
-44.87
-51.46
-57.22
-60.99
-61.77
-59.01
-52.82
-43.95
-33.55
-22.8
-12.61
-3.46
4.45
11.1
16.41
20.33
22.79
23.91
24.02
23.58
23.13
23.05
23.55
24.59
25.91
27.15
28.12
28.75
29.15
29.49
29.79
29.9
29.5
28.29
26.19
23.42
20.43
17.66
15.35
13.35
11.26
8.58
5.06
0.79
-3.83
-8.27
-12.17
-15.44
-18.4
-21.5
-25.26
-30.02
-35.86
-42.63
-49.82
-56.63
-62.0
-64.86
-64.36
-60.2
-52.71
-42.75
-31.5
-20.08
-9.37
0.05
7.9
14.1
18.69
21.79
23.61
24.36
24.38
24.0
23.57
23.37
23.58
24.27
25.36
26.72
28.22
29.73
31.11
32.17
32.7
32.48
31.38
29.44
26.85
23.89
20.82
17.79
14.82
11.79
8.52
4.83
0.7
-3.75
-8.25
-12.56
-16.56
-20.36
-24.34
-28.99
-34.71
-41.47
-48.68
-55.19
-59.67
-60.94
-58.42
-52.28
-43.32
-32.69
-21.54
-10.75
-0.89
7.73
14.95
20.65
24.83
27.6
29.2
29.96
30.21
30.21
30.12
30.04
30.03
30.14
30.45
31.04
31.91
32.99
34.07
34.86
35.08
34.48
32.98
30.67
27.79
24.59
21.29
17.9
14.34
10.43
6.03
1.1
-4.25
-9.79
-15.25
-20.42
-25.19
-29.62
-33.88
-38.21
-42.88
-48.07
-53.75
-59.54
-64.62
-67.89
-68.21
-64.87
-57.76
-47.57
-35.49
-22.96
-11.21
-1.02
7.33
13.89
18.86
22.48
24.92
26.32
26.9
26.91
26.69
26.56
26.71
27.19
27.95
28.85
29.82
30.88
32.03
33.28
34.42
35.14
35.05
33.89
31.6
28.44
24.87
21.37
18.25
15.53
12.94
10.13
6.74
2.68
-1.86
-6.52
-10.91
-14.81
-18.24
-21.51
-25.01
-29.22
-34.44
-40.72
-47.81
-55.05
-61.34
-65.43
-66.17
-62.91
-55.85
-45.88
-34.39
-22.76
-12.02
-2.64
5.33
12.02
17.51
21.72
24.54
25.91
25.96
25.03
23.61
22.15
21.0
20.34
20.21
20.5
21.07
21.81
22.69
23.59
24.31
24.53
23.91
22.29
19.77
16.73
13.68
10.95
8.54
6.16
3.42
0.08
-3.76
-7.78
-11.6
-14.99
-17.96
-20.73
-23.5
-26.53
-30.06
-34.28
-39.14
-44.27
-48.81
-51.6
-51.51
-47.85
-40.76
-31.11
-20.21
-9.36
0.48
8.84
15.58
20.81
24.69
27.38
29.0
29.74
29.8
29.43
28.91
28.49
28.32
28.48
28.93
29.56
30.24
30.9
31.51
31.97
32.09
31.61
30.27
27.97
24.88
21.4
18.0
14.99
12.38
9.89
7.09
3.7
-0.33
-4.72
-9.09
-13.14
-16.87
-20.57
-24.71
-29.74
-35.83
-42.77
-49.81
-55.86
-59.68
-60.24
-57.05
-50.29
-40.81
-29.74
-18.28
-7.34
2.5
10.95
17.86
23.1
26.7
28.77
29.63
29.67
29.3
28.8
28.35
28.02
27.88
27.97
28.29
28.83
29.48
30.14
30.68
30.93
30.72
29.85
28.23
25.89
23.08
20.15
17.42
15.03
12.83
10.53
7.8
4.5
0.69
-3.4
-7.51
-11.51
-15.36
-19.19
-23.15
-27.47
-32.37
-37.97
-44.14
-50.34
-55.57
-58.58
-58.25
-54.04
-46.28
-36.03
-24.8
-13.95
-4.33
3.8
10.62
16.41
21.31
25.25
28.09
29.73
30.33
30.2
29.8
29.52
29.61
30.1
30.88
31.72
32.47
33.01
33.34
33.49
33.49
33.29
32.72
31.56
29.67
27.01
23.8
20.31
16.82
13.46
10.13
6.59
2.61
-1.8
-6.36
-10.64
-14.27
-17.12
-19.39
-21.51
-23.98
-27.2
-31.37
-36.44
-42.0
-47.31
-51.33
-53.01
-51.63
-47.07
-39.92
-31.26
-22.28
-13.8
-6.2
0.51
6.46
11.65
15.94
19.11
21.04
21.77
21.55
20.71
19.65
18.71
18.16
18.16
18.72
19.74
21.06
22.47
23.76
24.69
25.05
24.62
23.3
21.18
18.52
15.73
13.19
11.06
9.25
7.43
5.16
2.22
-1.39
-5.41
-9.48
-13.36
-16.98
-20.52
-24.26
-28.53
-33.48
-39.03
-44.72
-49.72
-52.99
-53.52
-50.66
-44.46
-35.63
-25.36
-14.94
-5.37
2.8
9.4
14.5
18.23
20.69
22.0
22.33
21.97
21.21
20.35
19.62
19.15
19.01
19.22
19.73
20.48
21.39
22.32
23.16
23.75
23.91
23.43
22.21
20.26
17.73
14.92
12.07
9.41
6.99
4.77
2.6
0.34
-2.17
-5.04
-8.24
-11.73
-15.39
-19.12
-22.85
-26.65
-30.7
-35.23
-40.36
-45.87
-51.14
-55.16
-56.87
-55.48
-50.79
-43.27
-33.93
-23.98
-14.46
-6.09
0.79
6.12
10.04
12.77
14.64
15.98
17.09
18.14
19.16
20.12
20.96
21.65
22.24
22.84
23.51
24.32
25.29
26.35
27.38
28.19
28.48
27.96
26.46
23.95
20.68
17.07
13.55
10.41
7.7
5.2
2.62
-0.29
-3.56
-7.04
-10.48
-13.67
-16.58
-19.34
-22.23
-25.5
-29.43
-34.21
-39.84
-46.06
-52.15
-57.06
-59.6
-58.83
-54.37
-46.67
-36.76
-25.97
-15.43
-5.89
2.37
9.34
15.09
19.66
22.99
25.1
26.11
26.29
26.02
25.62
25.37
25.38
25.66
26.13
26.73
27.39
28.06
28.7
29.18
29.31
28.89
27.76
25.9
23.44
20.64
17.78
15.11
12.66
10.3
7.72
4.62
0.9
-3.33
-7.74
-11.93
-15.6
-18.69
-21.36
-23.93
-26.77
-30.16
-34.37
-39.45
-45.26
-51.24
-56.48
-59.86
-60.31
-57.22
-50.66
-41.36
-30.5
-19.26
-8.62
0.84
8.88
15.42
20.43
23.87
25.76
26.23
25.54
24.11
22.41
20.88
19.85
19.36
19.33
19.57
19.97
20.51
21.27
22.27
23.34
24.14
24.22
23.29
21.34
18.69
15.81
13.07
10.56
8.12
5.41
2.21
-1.49
-5.49
-9.55
-13.52
-17.5
-21.67
-26.18
-31.07
-36.31
-41.84
-47.64
-53.54
-59.09
-63.41
-65.4
-64.11
-59.17
-50.97
-40.54
-29.13
-17.86
-7.38
1.94
9.99
16.66
21.8
25.37
27.42
28.19
28.03
27.37
26.62
26.16
26.18
26.76
27.78
28.99
30.19
31.21
32.02
32.61
32.94
32.8
31.95
30.23
27.69
24.61
21.41
18.46
15.93
13.66
11.29
8.4
4.75
0.37
-4.49
-9.4
-14.02
-18.11
-21.63
-24.74
-27.73
-31.03
-35.14
-40.44
-47.0
-54.34
-61.38
-66.68
-68.81
-66.92
-60.96
-51.75
-40.63
-28.98
-17.82
-7.7
1.26
9.09
15.85
21.46
25.84
28.91
30.71
31.44
31.42
30.98
30.45
30.04
29.8
29.7
29.66
29.73
30.0
30.62
31.57
32.63
33.39
33.33
32.17
29.86
26.7
23.13
19.63
16.42
13.47
10.5
7.16
3.22
-1.23
-5.87
-10.25
-14.1
-17.52
-21.05
-25.4
-31.21
-38.61
-47.32
-56.66
-65.79
-73.87
-79.99
-83.24
-82.82
-78.28
-69.75
-58.1
-44.69
-30.97
-18.02
-6.34
4.1
13.5
21.94
29.3
35.29
39.72
42.68
44.52
45.77
46.97
48.41
50.05
51.65
52.85
53.46
53.47
53.12
52.67
52.28
51.85
50.94
48.91
45.06
38.98
30.78
21.12
11.02
1.51
-6.72
-13.51
-19.1
-23.9
-28.23
-32.16
-35.62
-38.53
-41.0
-43.39
-46.21
-49.93
-54.74
-60.37
-65.94
-70.24
-71.93
-70.09
-64.48
-55.63
-44.59
-32.61
-20.76
-9.74
0.12
8.72
16.11
22.36
27.57
31.83
35.22
37.8
39.71
41.09
42.11
42.92
43.53
43.94
44.21
44.51
45.17
46.47
48.43
50.58
52.11
52.14
50.1
46.07
40.7
34.92
29.53
24.81
20.51
16.15
11.34
6.06
0.69
-4.26
-8.45
-11.96
-15.24
-19.0
-23.9
-30.39
-38.55
-48.1
-58.37
-68.26
-76.4
-81.32
-81.87
-77.59
-68.92
-57.12
-43.85
-30.7
-18.7
-8.25
0.77
8.68
15.72
21.82
26.77
30.31
32.39
33.24
33.33
33.17
33.18
33.56
34.3
35.26
36.31
37.39
38.49
39.57
40.47
40.93
40.59
39.13
36.44
32.68
28.29
23.82
19.74
16.22
13.12
10.04
6.61
2.68
-1.68
-6.16
-10.53
-14.68
-18.78
-23.08
-27.87
-33.35
-39.61
-46.64
-54.19
-61.67
-68.02
-71.91
-72.07
-67.79
-59.23
-47.46
-34.11
-20.78
-8.66
1.7
10.23
17.05
22.25
25.84
27.82
28.4
28.02
27.2
26.57
26.54
27.3
28.79
30.79
32.98
35.07
36.9
38.42
39.64
40.59
41.13
41.0
39.91
37.65
34.32
30.26
26.03
22.12
18.73
15.76
12.85
9.58
5.75
1.39
-3.26
-7.87
-12.2
-16.16
-19.76
-23.21
-26.84
-31.08
-36.37
-42.85
-50.2
-57.42
-63.14
-65.89
-64.74
-59.57
-51.1
-40.56
-29.24
-18.14
-7.85
1.32
9.24
15.83
21.04
24.93
27.62
29.34
30.32
30.71
30.67
30.36
29.9
29.39
28.97
28.77
28.93
29.55
30.57
31.69
32.43
32.27
30.89
28.31
24.91
21.26
17.84
14.86
12.25
9.76
7.12
4.2
0.98
-2.47
-6.15
-10.05
-14.22
-18.68
-23.5
-28.77
-34.58
-40.96
-47.65
-53.99
-58.91
-61.22
-59.97
-54.8
-46.2
-35.27
-23.45
-12.05
-1.94
6.55
13.49
19.11
23.65
27.19
29.7
31.14
31.63
31.45
31.07
30.93
31.25
32.01
32.96
33.78
34.34
34.72
35.17
35.87
36.73
37.39
37.29
36.05
33.57
30.1
26.11
22.09
18.29
14.79
11.47
8.2
4.9
1.54
-1.88
-5.36
-8.94
-12.63
-16.46
-20.5
-24.88
-29.78
-35.49
-42.15
-49.69
-57.62
-65.0
-70.58
-73.16
-71.94
-66.79
-58.35
-47.73
-36.21
-24.86
-14.39
-5.08
2.99
9.82
15.44
19.83
22.99
24.98
25.95
26.18
26.02
25.88
26.04
26.61
27.49
28.52
29.53
30.5
31.54
32.68
33.85
34.76
35.06
34.39
32.63
29.9
26.46
22.67
18.82
15.14
11.76
8.67
5.81
3.09
0.4
-2.35
-5.16
-8.0
-10.78
-13.41
-15.86
-18.29
-20.93
-24.2
-28.48
-34.04
-40.78
-48.09
-54.95
-60.0
-62.03
-60.28
-54.78
-46.31
-36.15
-25.66
-15.84
-7.23
0.1
6.3
11.51
15.69
18.74
20.58
21.3
21.23
20.85
20.63
20.85
21.59
22.67
23.87
25.01
25.99
26.86
27.65
28.35
28.85
28.97
28.59
27.63
26.05
23.87
21.12
17.87
14.23
10.34
6.35
2.44
-1.25
-4.6
-7.51
-9.94
-11.94
-13.69
-15.39
-17.26
-19.46
-22.08
-25.17
-28.81
-33.1
-38.11
-43.67
-49.27
-54.08
-57.13
-57.54
-54.88
-49.26
-41.35
-32.17
-22.78
-13.99
-6.22
0.48
6.26
11.27
15.53
18.9
21.17
22.32
22.53
22.24
21.95
22.06
22.61
23.48
24.4
25.19
25.86
26.52
27.26
28.0
28.49
28.36
27.35
25.44
22.84
19.93
17.04
14.4
12.02
9.76
7.4
4.74
1.63
-1.94
-5.86
-9.95
-13.97
-17.76
-21.3
-24.73
-28.35
-32.55
-37.57
-43.36
-49.43
-54.89
-58.63
-59.61
-57.23
-51.48
-43.04
-32.97
-22.44
-12.45
-3.61
3.8
9.76
14.37
17.76
20.07
21.46
22.1
22.21
22.03
21.82
21.82
22.2
23.01
24.14
25.42
26.59
27.5
28.12
28.48
28.6
28.36
27.57
26.01
23.62
20.57
17.25
14.13
11.5
9.39
7.58
5.7
3.4
0.52
-2.93
-6.79
-10.82
-14.76
-18.41
-21.69
-24.56
-27.22
-30.04
-33.45
-37.8
-43.23
-49.37
-55.43
-60.26
-62.66
-61.74
-57.26
-49.67
-40.0
-29.52
-19.36
-10.24
-2.44
4.12
9.6
14.13
17.71
20.31
21.98
22.86
23.23
23.41
23.66
24.14
24.91
25.91
27.0
28.02
28.88
29.5
29.88
30.0
29.82
29.23
28.09
26.26
23.75
20.75
17.6
14.65
12.13
10.03
8.08
5.93
3.24
-0.1
-3.95
-8.05
-12.09
-15.9
-19.45
-22.91
-26.45
-30.3
-34.63
-39.56
-45.06
-50.84
-56.2
-60.17
-61.71
-60.05
-55.04
-47.16
-37.37
-26.79
-16.35
-6.68
1.85
9.06
14.86
19.16
22.06
23.76
24.59
24.92
25.07
25.16
25.24
25.24
25.13
24.99
25.06
25.63
26.88
28.79
30.97
32.84
33.77
33.35
31.53
28.59
24.99
21.2
17.53
14.08
10.8
7.52
4.11
0.53
-3.18
-6.89
-10.46
-13.87
-17.19
-20.55
-24.2
-28.33
-33.14
-38.66
-44.66
-50.51
-55.19
-57.56
-56.68
-52.16
-44.38
-34.34
-23.33
-12.52
-2.7
5.76
12.77
18.34
22.47
25.18
26.53
26.76
26.21
25.36
24.63
24.3
24.43
24.9
25.52
26.17
26.87
27.67
28.59
29.48
30.0
29.78
28.53
26.21
23.03
19.35
15.6
12.04
8.78
5.69
2.54
-0.93
-4.82
-9.05
-13.38
-17.56
-21.42
-25.03
-28.65
-32.52
-36.92
-42.0
-47.79
-54.18
-60.77
-66.78
-71.13
-72.65
-70.45
-64.37
-55.03
-43.69
-31.82
-20.66
-10.92
-2.76
4.0
9.62
14.31
18.12
21.11
23.38
25.09
26.46
27.63
28.69
29.63
30.4
31.02
31.61
32.41
33.57
35.05
36.52
37.41
37.17
35.48
32.44
28.53
24.41
20.66
17.5
14.82
12.27
9.4
5.89
1.64
-3.19
-8.2
-12.96
-17.04
-20.28
-22.79
-24.97
-27.36
-30.47
-34.54
-39.44
-44.66
-49.27
-52.24
-52.59
-49.68
-43.45
-34.45
-23.74
-12.66
-2.43
6.14
12.74
17.57
21.16
24.03
26.51
28.65
30.17
30.78
30.35
29.09
27.51
26.25
25.73
26.03
26.91
27.95
28.92
29.8
30.69
31.62
32.37
32.48
31.48
29.16
25.73
21.75
17.81
14.28
11.2
8.31
5.28
2.02
-1.41
-4.85
-8.14
-11.28
-14.44
-17.81
-21.66
-26.18
-31.53
-37.62
-44.05
-50.05
-54.51
-56.32
-54.7
-49.49
-41.27
-31.17
-20.46
-10.21
-1.12
6.53
12.78
17.76
21.62
24.38
26.0
26.48
25.9
24.58
22.94
21.5
20.68
20.7
21.56
23.0
24.67
26.21
27.37
27.98
27.98
27.31
26.02
24.17
21.89
19.31
16.57
13.74
10.82
7.76
4.5
1.05
-2.52
-6.19
-9.93
-13.75
-17.8
-22.25
-27.29
-32.99
-39.16
-45.13
-49.9
-52.25
-51.24
-46.56
-38.66
-28.69
-17.98
-7.7
1.44
9.2
15.59
20.71
24.66
27.56
29.51
30.66
31.12
31.0
30.4
29.53
28.66
28.05
27.88
28.08
28.44
28.74
28.83
28.7
28.33
27.64
26.47
24.69
22.24
19.28
16.07
12.8
9.51
6.07
2.2
-2.24
-7.13
-12.15
-16.82
-20.78
-23.99
-26.75
-29.61
-33.18
-37.85
-43.59
-49.84
-55.59
-59.58
-60.75
-58.44
-52.61
-43.82
-33.01
-21.31
-9.82
0.57
9.27
15.91
20.47
23.26
24.77
25.58
26.13
26.56
26.77
26.56
25.85
24.76
23.6
22.69
22.22
22.27
22.75
23.47
24.24
24.81
24.94
24.37
22.97
20.76
17.98
14.95
11.95
9.1
6.36
3.59
0.69
-2.35
-5.44
-8.46
-11.38
-14.24
-17.2
-20.44
-24.1
-28.32
-33.14
-38.52
-44.14
-49.41
-53.49
-55.46
-54.62
-50.7
-44.05
-35.42
-25.79
-16.07
-6.94
1.19
8.08
13.62
17.76
20.57
22.21
22.93
23.06
22.97
22.99
23.36
24.18
25.3
26.42
27.24
27.57
27.45
27.13
26.91
26.94
27.12
27.06
26.35
24.7
22.15
19.01
15.7
12.51
9.53
6.59
3.49
0.13
-3.4
-6.94
-10.35
-13.65
-17.01
-20.64
-24.62
-28.91
-33.39
-37.96
-42.62
-47.29
-51.66
-55.07
-56.64
-55.57
-51.47
-44.56
-35.59
-25.56
-15.44
-5.88
2.74
10.23
16.49
21.36
24.74
26.6
27.08
26.53
25.45
24.31
23.5
23.23
23.54
24.31
25.4
26.62
27.78
28.67
29.06
28.78
27.75
26.05
23.82
21.23
18.4
15.38
12.22
8.99
5.79
2.65
-0.45
-3.66
-7.09
-10.76
-14.6
-18.47
-22.33
-26.39
-31.06
-36.62
-42.97
-49.4
-54.64
-57.29
-56.32
-51.45
-43.26
-32.92
-21.75
-10.82
-0.84
7.9
15.23
21.03
25.22
27.77
28.76
28.49
27.39
25.96
24.68
23.83
23.49
23.59
24.0
24.55
25.19
25.89
26.6
27.21
27.46
27.07
25.89
23.94
21.41
18.62
15.8
12.94
9.86
6.24
1.95
-2.87
-7.83
-12.45
-16.43
-19.84
-23.02
-26.44
-30.5
-35.38
-41.07
-47.34
-53.73
-59.48
-63.64
-65.19
-63.4
-58.04
-49.54
-38.85
-27.12
-15.39
-4.46
5.09
12.94
18.88
22.9
25.2
26.14
26.18
25.74
25.1
24.47
24.02
23.93
24.36
25.38
26.88
28.62
30.2
31.29
31.64
31.21
30.08
28.44
26.51
24.46
22.43
20.46
18.55
16.61
14.45
11.88
8.7
4.82
0.31
-4.59
-9.54
-14.2
-18.36
-22.03
-25.49
-29.21
-33.64
-39.01
-45.14
-51.33
-56.48
-59.34
-58.93
-54.83
-47.3
-37.22
-25.75
-14.16
-3.46
5.65
12.77
17.82
20.92
22.41
22.75
22.48
22.07
21.83
21.89
22.2
22.63
23.09
23.61
24.37
25.63
27.55
30.09
32.88
35.19
36.23
35.37
32.48
27.96
22.6
17.24
12.43
8.22
4.32
0.33
-3.94
-8.35
-12.57
-16.33
-19.61
-22.61
-25.64
-28.96
-32.64
-36.66
-40.94
-45.27
-49.26
-52.29
-53.58
-52.48
-48.69
-42.44
-34.37
-25.31
-15.96
-6.79
1.88
9.8
16.67
22.15
26.02
28.25
29.06
28.9
28.33
27.85
27.78
28.22
28.98
29.72
30.11
29.95
29.26
28.25
27.18
26.16
25.14
23.9
22.19
19.93
17.24
14.33
11.39
8.43
5.23
1.53
-2.75
-7.52
-12.34
-16.82
-20.71
-24.12
-27.53
-31.56
-36.65
-42.79
-49.39
-55.29
-59.15
-59.8
-56.62
-49.72
-39.97
-28.59
-16.92
-6.05
3.31
10.82
16.49
20.51
23.18
24.81
25.69
26.02
25.96
25.67
25.33
25.11
25.15
25.42
25.82
26.2
26.43
26.48
26.37
26.06
25.45
24.36
22.63
20.24
17.36
14.31
11.39
8.81
6.48
4.11
1.34
-2.06
-6.03
-10.24
-14.25
-17.69
-20.49
-22.97
-25.72
-29.34
-34.2
-40.22
-46.75
-52.74
-56.99
-58.39
-56.29
-50.69
-42.18
-31.8
-20.73
-10.01
-0.39
7.77
14.37
19.48
23.21
25.65
26.97
27.39
27.27
26.97
26.82
27.02
27.56
28.31
29.05
29.63
29.99
30.17
30.24
30.18
29.91
29.25
27.97
25.96
23.24
20.09
16.88
13.88
11.18
8.55
5.66
2.22
-1.78
-6.05
-10.15
-13.75
-16.72
-19.33
-22.02
-25.29
-29.47
-34.65
-40.57
-46.58
-51.76
-55.02
-55.43
-52.48
-46.29
-37.52
-27.22
-16.55
-6.47
2.41
9.83
15.81
20.5
24.02
26.49
27.9
28.28
27.73
26.53
25.06
23.73
22.81
22.37
22.37
22.7
23.28
24.11
25.08
25.93
26.28
25.72
24.11
21.59
18.56
15.43
12.49
9.68
6.79
3.55
-0.16
-4.25
-8.48
-12.59
-16.39
-19.87
-23.2
-26.68
-30.67
-35.46
-41.04
-46.94
-52.26
-55.82
-56.54
-53.84
-47.76
-38.99
-28.56
-17.58
-6.96
2.67
10.87
17.42
22.16
25.12
26.48
26.6
25.95
24.96
23.96
23.11
22.43
21.88
21.45
21.17
21.12
21.39
21.99
22.76
23.44
23.73
23.42
22.52
21.15
19.53
17.76
15.82
13.54
10.71
7.24
3.24
-0.98
-5.05
-8.73
-11.99
-15.09
-18.41
-22.38
-27.28
-33.19
-39.92
-46.96
-53.53
-58.63
-61.24
-60.56
-56.26
-48.7
-38.75
-27.63
-16.45
-6.03
3.25
11.25
17.88
23.02
26.47
28.19
28.42
27.68
26.67
25.93
25.72
25.97
26.42
26.83
27.15
27.52
28.1
28.9
29.65
29.92
29.29
27.54
24.8
21.48
18.03
14.8
11.86
9.07
6.19
3.01
-0.55
-4.45
-8.51
-12.52
-16.28
-19.67
-22.73
-25.65
-28.82
-32.65
-37.41
-43.07
-49.15
-54.68
-58.5
-59.5
-57.02
-51.03
-42.18
-31.47
-20.11
-9.08
1.05
9.99
17.69
24.12
29.1
32.41
33.87
33.54
31.82
29.43
27.14
25.57
24.95
25.16
25.87
26.8
27.8
28.91
30.1
31.22
31.92
31.8
30.56
28.2
25.04
21.53
18.09
14.94
12.01
9.06
5.82
2.16
-1.88
-6.15
-10.4
-14.41
-18.04
-21.34
-24.42
-27.6
-31.31
-35.94
-41.67
-48.27
-54.96
-60.51
-63.61
-63.2
-58.91
-51.13
-40.81
-29.21
-17.53
-6.62
3.01
11.12
17.72
22.76
26.29
28.3
28.87
28.22
26.73
24.89
23.2
21.99
21.39
21.32
21.61
22.13
22.76
23.5
24.22
24.67
24.62
23.85
22.3
20.14
17.65
15.08
12.57
10.06
7.43
4.54
1.38
-1.97
-5.38
-8.76
-12.07
-15.33
-18.61
-21.95
-25.47
-29.39
-33.97
-39.28
-45.1
-50.62
-54.67
-56.01
-53.82
-47.98
-39.17
-28.59
-17.51
-6.97
2.41
10.34
16.77
21.66
25.03
26.93
27.51
27.08
25.99
24.63
23.29
22.15
21.25
20.63
20.33
20.44
21.09
22.32
23.92
25.43
26.25
25.86
24.08
21.12
17.55
13.97
10.82
8.17
5.8
3.28
0.29
-3.31
-7.43
-11.83
-16.21
-20.37
-24.23
-27.88
-31.6
-35.77
-40.7
-46.48
-52.78
-58.69
-63.03
-64.56
-62.47
-56.67
-47.81
-37.05
-25.65
-14.64
-4.61
4.16
11.6
17.67
22.28
25.41
27.12
27.63
27.33
26.63
25.92
25.44
25.3
25.43
25.77
26.22
26.78
27.46
28.25
29.05
29.67
29.85
29.34
28.0
25.9
23.25
20.35
17.45
14.64
11.82
8.81
5.41
1.62
-2.4
-6.37
-9.98
-13.16
-16.08
-19.12
-22.76
-27.45
-33.33
-40.2
-47.36
-53.68
-57.86
-58.76
-55.79
-49.07
-39.47
-28.2
-16.58
-5.63
4.06
12.28
18.93
24.0
27.45
29.28
29.72
29.18
28.21
27.31
26.77
26.6
26.63
26.65
26.56
26.46
26.49
26.78
27.2
27.46
27.18
26.14
24.32
21.93
19.25
16.47
13.65
10.74
7.65
4.37
0.95
-2.57
-6.1
-9.62
-13.09
-16.48
-19.79
-23.15
-26.8
-31.08
-36.21
-42.14
-48.39
-54.15
-58.34
-59.96
-58.36
-53.38
-45.48
-35.54
-24.7
-14.05
-4.45
3.64
10.07
14.97
18.54
20.95
22.35
22.89
22.84
22.57
22.45
22.8
23.73
25.15
26.78
28.33
29.59
30.47
30.98
31.12
30.84
30.0
28.47
26.23
23.36
20.1
16.65
13.17
9.66
6.03
2.18
-1.89
-6.06
-10.12
-13.93
-17.52
-21.13
-25.16
-30.04
-35.95
-42.65
-49.4
-55.02
-58.22
-57.96
-53.87
-46.3
-36.27
-25.13
-14.1
-4.07
4.53
11.6
17.22
21.5
24.49
26.27
27.02
27.04
26.71
26.43
26.45
26.82
27.39
27.94
28.34
28.62
28.94
29.39
29.92
30.23
29.93
28.74
26.64
23.89
20.88
17.94
15.15
12.39
9.41
6.06
2.26
-1.84
-6.05
-10.13
-13.97
-17.58
-21.06
-24.7
-28.82
-33.72
-39.59
-46.3
-53.23
-59.33
-63.3
-63.92
-60.56
-53.34
-43.1
-31.17
-18.92
-7.44
2.66
11.14
18.01
23.26
26.94
29.13
30.06
30.08
29.61
29.01
28.47
28.08
27.8
27.63
27.58
27.68
27.97
28.42
28.91
29.31
29.43
29.12
28.24
26.73
24.66
22.2
19.56
16.84
14.08
11.14
7.91
4.32
0.44
-3.58
-7.49
-11.2
-14.71
-18.18
-21.86
-26.03
-30.91
-36.55
-42.71
-48.75
-53.7
-56.46
-56.11
-52.27
-45.26
-35.98
-25.63
-15.34
-5.88
2.43
9.51
15.42
20.15
23.58
25.65
26.42
26.21
25.48
24.74
24.28
24.19
24.34
24.55
24.75
25.05
25.59
26.43
27.4
28.11
28.15
27.24
25.39
22.86
20.02
17.16
14.4
11.66
8.8
5.64
2.12
-1.72
-5.7
-9.63
-13.35
-16.82
-20.18
-23.7
-27.74
-32.57
-38.29
-44.57
-50.75
-55.8
-58.6
-58.31
-54.56
-47.64
-38.39
-27.92
-17.25
-7.17
1.85
9.59
15.85
20.51
23.48
24.83
24.88
24.09
22.97
21.97
21.33
21.06
21.09
21.33
21.78
22.49
23.54
24.84
26.14
27.05
27.18
26.37
24.68
22.35
19.68
16.84
13.8
10.46
6.73
2.64
-1.65
-5.9
-9.96
-13.83
-17.67
-21.7
-26.13
-31.13
-36.75
-42.93
-49.4
-55.6
-60.66
-63.53
-63.29
-59.46
-52.23
-42.41
-31.18
-19.73
-8.96
0.63
8.81
15.52
20.7
24.35
26.54
27.51
27.66
27.39
27.06
26.84
26.76
26.75
26.75
26.74
26.82
27.13
27.72
28.49
29.18
29.39
28.79
27.22
24.81
21.89
18.86
15.97
13.28
10.6
7.63
4.15
0.08
-4.45
-9.13
-13.66
-17.79
-21.49
-24.92
-28.45
-32.44
-37.2
-42.78
-48.85
-54.68
-59.23
-61.37
-60.23
-55.51
-47.48
-37.07
-25.48
-13.96
-3.48
5.35
12.37
17.68
21.57
24.3
26.1
27.15
27.59
27.63
27.49
27.43
27.65
28.25
29.15
30.19
31.25
32.19
32.99
33.55
33.71
33.22
31.84
29.49
26.29
22.61
18.86
15.33
12.11
9.02
5.78
2.14
-1.9
-6.15
-10.3
-14.07
-17.35
-20.23
-23.0
-26.01
-29.62
-34.11
-39.53
-45.61
-51.69
-56.76
-59.64
-59.37
-55.49
-48.25
-38.48
-27.44
-16.34
-6.13
2.62
9.74
15.22
19.2
21.81
23.19
23.55
23.17
22.39
21.55
20.93
20.63
20.63
20.86
21.23
21.75
22.46
23.38
24.4
25.26
25.64
25.31
24.23
22.54
20.52
18.36
16.16
13.8
11.13
8.0
4.46
0.71
-3.05
-6.64
-10.09
-13.55
-17.32
-21.68
-26.91
-33.07
-39.98
-47.03
-53.22
-57.36
-58.38
-55.73
-49.55
-40.64
-30.16
-19.21
-8.64
1.08
9.72
17.07
22.91
27.04
29.39
30.12
29.64
28.47
27.13
25.99
25.29
25.08
25.28
25.8
26.51
27.32
28.13
28.81
29.2
29.1
28.39
27.02
25.09
22.81
20.37
17.84
15.11
12.0
8.3
3.98
-0.81
-5.77
-10.62
-15.17
-19.38
-23.41
-27.46
-31.85
-36.86
-42.75
-49.47
-56.61
-63.2
-67.9
-69.41
-66.86
-60.2
-50.17
-38.08
-25.34
-13.06
-1.96
7.72
15.87
22.46
27.43
30.81
32.72
33.47
33.45
33.1
32.77
32.65
32.77
33.09
33.49
33.94
34.45
35.03
35.67
36.21
36.37
35.8
34.23
31.61
28.21
24.43
20.76
17.52
14.71
12.07
9.2
5.83
1.84
-2.52
-6.93
-11.05
-14.75
-18.15
-21.55
-25.43
-30.2
-36.17
-43.3
-51.12
-58.68
-64.65
-67.69
-66.8
-61.69
-52.88
-41.54
-29.06
-16.71
-5.34
4.62
13.01
19.84
25.11
28.83
31.03
31.86
31.58
30.54
29.2
27.91
26.9
26.2
25.8
25.66
25.8
26.34
27.37
28.83
30.35
31.44
31.57
30.46
28.18
25.12
21.82
18.69
15.92
13.4
10.88
8.12
4.98
1.52
-2.12
-5.81
-9.49
-13.17
-16.92
-20.84
-25.09
-29.89
-35.45
-41.85
-48.76
-55.44
-60.73
-63.44
-62.66
-58.17
-50.41
-40.36
-29.18
-17.91
-7.29
2.25
10.49
17.29
22.59
26.32
28.54
29.46
29.45
28.95
28.35
27.88
27.59
27.43
27.35
27.36
27.53
27.93
28.46
28.87
28.84
28.09
26.54
24.32
21.7
18.93
16.15
13.3
10.25
6.89
3.15
-0.84
-4.91
-8.89
-12.69
-16.34
-19.96
-23.73
-27.88
-32.68
-38.3
-44.67
-51.24
-56.96
-60.48
-60.58
-56.63
-48.89
-38.41
-26.61
-14.82
-3.92
5.68
13.87
20.59
25.72
29.14
30.85
31.09
30.32
29.11
28.02
27.38
27.33
27.74
28.39
29.01
29.46
29.71
29.89
30.1
30.36
30.5
30.21
29.19
27.28
24.59
21.44
18.21
15.18
12.39
9.69
6.79
3.48
-0.28
-4.31
-8.36
-12.16
-15.63
-18.92
-22.32
-26.21
-30.97
-36.76
-43.51
-50.79
-57.83
-63.59
-67.02
-67.28
-63.97
-57.3
-48.01
-37.12
-25.7
-14.66
-4.6
4.16
11.54
17.55
22.21
25.48
27.35
27.88
27.37
26.33
25.37
24.99
25.43
26.56
28.05
29.56
30.87
31.96
32.9
33.66
34.05
33.75
32.52
30.34
27.46
24.26
21.13
18.22
15.46
12.57
9.32
5.56
1.39
-2.96
-7.19
-11.06
-14.5
-17.57
-20.47
-23.49
-27.04
-31.53
-37.2
-43.94
-51.14
-57.65
-62.15
-63.48
-61.07
-55.1
-46.42
-36.19
-25.52
-15.23
-5.78
2.63
9.91
15.96
20.65
23.9
25.77
26.44
26.29
25.71
25.08
24.63
24.38
24.23
24.11
24.01
24.11
24.55
25.43
26.52
27.43
27.69
26.95
25.15
22.54
19.51
16.44
13.54
10.76
7.94
4.85
1.39
-2.38
-6.26
-10.05
-13.58
-16.78
-19.76
-22.72
-25.99
-29.9
-34.77
-40.6
-47.02
-53.16
-57.85
-59.91
-58.51
-53.52
-45.45
-35.31
-24.28
-13.34
-3.22
5.66
13.09
18.97
23.31
26.17
27.74
28.26
28.05
27.43
26.66
25.98
25.46
25.15
25.01
25.04
25.29
25.76
26.35
26.81
26.78
25.95
24.24
21.81
19.09
16.44
14.04
11.77
9.33
6.4
2.8
-1.36
-5.79
-10.17
-14.29
-18.12
-21.77
-25.46
-29.41
-33.8
-38.76
-44.26
-50.08
-55.62
-59.98
-62.11
-61.1
-56.57
-48.81
-38.72
-27.53
-16.48
-6.41
2.24
9.39
15.17
19.71
23.1
25.38
26.67
27.14
27.19
27.21
27.52
28.26
29.28
30.34
31.16
31.69
32.07
32.51
33.15
33.83
34.19
33.74
32.2
29.55
26.13
22.4
18.78
15.47
12.38
9.29
5.93
2.17
-1.92
-6.12
-10.09
-13.63
-16.62
-19.16
-21.57
-24.3
-27.8
-32.44
-38.3
-45.03
-51.88
-57.72
-61.35
-61.79
-58.6
-52.02
-42.86
-32.17
-20.99
-10.14
-0.16
8.6
15.94
21.69
25.82
28.37
29.56
29.73
29.29
28.67
28.21
28.11
28.43
29.04
29.75
30.41
31.03
31.73
32.62
33.64
34.49
34.73
33.92
31.94
28.96
25.46
21.93
18.74
15.87
13.09
10.03
6.49
2.45
-1.89
-6.2
-10.29
-14.04
-17.53
-20.95
-24.53
-28.51
-33.12
-38.49
-44.56
-50.97
-56.93
-61.38
-63.25
-61.81
-56.95
-49.22
-39.64
-29.37
-19.34
-10.12
-1.94
5.17
11.15
15.88
19.24
21.22
21.99
21.95
21.6
21.35
21.43
21.85
22.47
23.19
23.95
24.8
25.79
26.87
27.84
28.37
28.19
27.14
25.33
23.02
20.46
17.87
15.31
12.76
10.07
7.1
3.8
0.17
-3.61
-7.35
-10.79
-13.8
-16.47
-19.12
-22.26
-26.44
-31.95
-38.64
-45.8
-52.23
-56.64
-57.91
-55.52
-49.68
-41.18
-31.11
-20.54
-10.25
-0.76
7.63
14.72
20.38
24.54
27.22
28.53
28.7
28.07
27.03
25.96
25.19
24.88
25.0
25.43
25.95
26.46
26.92
27.3
27.51
27.36
26.65
25.23
23.18
20.72
18.19
15.85
13.74
11.69
9.4
6.58
3.07
-1.02
-5.45
-9.87
-14.0
-17.73
-21.1
-24.33
-27.7
-31.54
-36.1
-41.52
-47.63
-53.78
-59.0
-62.02
-61.87
-58.1
-51.07
-41.71
-31.3
-20.95
-11.39
-2.95
4.31
10.39
15.25
18.86
21.25
22.58
23.15
23.25
23.18
23.16
23.33
23.78
24.57
25.69
27.08
28.63
30.16
31.49
32.47
32.92
32.75
31.86
30.29
28.16
25.64
22.92
20.11
17.14
13.86
10.15
6.0
1.54
-2.98
-7.3
-11.25
-14.76
-17.9
-20.87
-23.96
-27.5
-31.86
-37.2
-43.36
-49.76
-55.32
-58.75
-59.02
-55.59
-48.76
-39.46
-28.9
-18.21
-8.19
0.76
8.52
15.01
20.17
23.88
26.08
26.92
26.75
26.02
25.21
24.66
24.48
24.63
24.89
25.1
25.24
25.42
25.81
26.53
27.43
28.22
28.49
27.96
26.53
24.36
21.73
18.91
16.12
13.38
10.63
7.73
4.56
1.1
-2.59
-6.3
-9.85
-13.07
-15.94
-18.62
-21.4
-24.52
-28.23
-32.65
-37.77
-43.38
-48.97
-53.71
-56.56
-56.62
-53.37
-47.0
-38.29
-28.42
-18.51
-9.35
-1.24
5.85
11.99
17.18
21.21
23.85
25.03
24.95
24.04
22.86
21.84
21.21
20.93
20.85
20.83
20.84
20.99
21.34
21.85
22.36
22.57
22.25
21.31
19.79
17.89
15.8
13.6
11.28
8.72
5.8
2.52
-1.09
-4.89
-8.73
-12.54
-16.36
-20.23
-24.33
-28.86
-34.0
-39.79
-46.05
-52.09
-56.96
-59.55
-58.95
-54.86
-47.65
-38.25
-27.8
-17.31
-7.46
1.32
8.79
14.8
19.25
22.18
23.78
24.4
24.41
24.19
24.0
23.98
24.2
24.6
25.12
25.66
26.17
26.65
27.17
27.74
28.25
28.52
28.2
27.12
25.24
22.7
19.79
16.79
13.84
10.95
8.03
4.88
1.44
-2.29
-6.2
-10.11
-13.92
-17.6
-21.22
-24.93
-28.93
-33.42
-38.6
-44.5
-50.84
-56.95
-61.77
-64.1
-62.96
-58.05
-49.82
-39.35
-28.01
-16.94
-6.85
1.99
9.53
15.73
20.44
23.57
25.11
25.33
24.77
23.99
23.44
23.34
23.62
24.11
24.6
25.06
25.6
26.47
27.83
29.62
31.52
33.02
33.63
33.03
31.23
28.53
25.39
22.18
19.12
16.24
13.47
10.7
7.85
4.89
1.77
-1.55
-5.09
-8.76
-12.47
-16.13
-19.77
-23.66
-28.19
-33.74
-40.4
-47.79
-55.01
-60.79
-63.92
-63.53
-59.39
-51.95
-42.16
-31.19
-20.11
-9.79
-0.72
6.82
12.75
17.08
19.92
21.46
21.98
21.88
21.56
21.38
21.56
22.14
22.98
23.87
24.73
25.62
26.66
27.88
29.1
29.93
29.94
28.86
26.81
24.19
21.53
19.23
17.36
15.68
13.77
11.27
8.06
4.23
0.04
-4.25
-8.48
-12.55
-16.46
-20.24
-24.0
-27.92
-32.26
-37.23
-42.79
-48.47
-53.34
-56.25
-56.25
-52.93
-46.55
-37.97
-28.27
-18.42
-9.1
-0.69
6.6
12.64
17.3
20.6
22.63
23.61
23.86
23.7
23.4
23.22
23.27
23.57
24.08
24.77
25.66
26.84
28.37
30.16
31.91
33.12
33.34
32.26
29.94
26.74
23.15
19.56
16.15
12.89
9.59
6.05
2.2
-1.91
-6.12
-10.24
-14.12
-17.71
-21.08
-24.39
-27.92
-31.98
-36.94
-42.91
-49.68
-56.54
-62.4
-66.04
-66.47
-63.25
-56.56
-47.21
-36.27
-24.84
-13.83
-3.79
4.97
12.36
18.41
23.17
26.72
29.12
30.48
30.97
30.85
30.46
30.11
30.03
30.29
30.81
31.49
32.23
33.01
33.87
34.75
35.49
35.79
35.3
33.83
31.39
28.28
24.93
21.75
18.92
16.38
13.84
10.91
7.37
3.22
-1.27
-5.68
-9.66
-13.09
-16.15
-19.22
-22.85
-27.5
-33.4
-40.49
-48.25
-55.75
-61.82
-65.31
-65.37
-61.73
-54.79
-45.39
-34.59
-23.41
-12.63
-2.76
5.85
12.98
18.52
22.48
24.99
26.32
26.88
27.1
27.4
28.08
29.27
30.87
32.65
