3.09
1.24
-0.72
-2.68
-4.57
-6.31
-7.93
-9.42
-10.78
-12.1
-13.49
-15.14
-17.28
-20.08
-23.51
-27.23
-30.63
-32.95
-33.51
-31.95
-28.33
-23.18
-17.27
-11.37
-6.11
-1.78
1.55
3.99
5.68
6.78
7.43
7.82
8.16
8.69
9.62
11.08
13.04
15.34
17.7
19.91
21.87
23.63
25.31
27.03
28.76
30.3
31.39
31.81
31.49
30.56
29.28
27.94
26.79
25.85
24.98
23.82
21.94
18.98
14.79
9.53
3.61
-2.43
-8.19
-13.45
-18.24
-22.69
-26.97
-31.15
-35.19
-38.92
-42.02
-44.1
-44.7
-43.46
-40.28
-35.4
-29.37
-22.93
-16.79
-11.45
-7.19
-4.07
-1.99
-0.81
-0.26
-0.09
0.03
0.27
0.7
1.2
1.65
1.95
2.14
2.41
3.01
4.2
6.13
8.85
12.2
15.83
19.14
21.45
22.21
21.22
18.79
15.66
12.72
10.66
9.73
9.7
10.02
10.15
9.71
8.59
6.83
4.5
1.59
-1.94
-6.07
-10.52
-14.7
-17.88
-19.29
-18.5
-15.57
-11.0
-5.61
-0.21
4.63
8.65
11.79
14.13
15.75
16.65
16.84
16.25
14.85
12.65
9.82
6.72
3.91
2.02
1.51
2.5
4.78
7.86
11.22
14.49
17.42
19.93
21.86
22.96
22.96
21.71
19.32
16.23
13.02
10.26
8.26
7.03
6.29
5.64
4.76
3.42
1.59
-0.71
-3.43
-6.61
-10.24
-14.26
-18.38
-22.1
-24.79
-25.85
-24.94
-22.01
-17.44
-11.8
-5.76
0.03
5.12
9.2
12.11
13.8
14.35
13.89
12.66
10.95
9.1
7.43
6.19
5.52
5.46
5.92
6.78
7.9
9.18
10.48
11.69
12.64
13.21
13.31
12.98
12.3
11.44
10.5
9.52
8.48
7.29
5.9
4.24
2.35
0.26
-1.92
-4.08
-6.17
-8.17
-10.2
-12.41
-14.93
-17.75
-20.73
-23.52
-25.68
-26.73
-26.25
-24.0
-20.0
-14.62
-8.48
-2.39
2.9
6.87
9.4
10.68
11.11
11.13
11.07
11.08
11.14
11.16
11.01
10.63
10.07
9.44
8.91
8.61
8.59
8.79
9.04
9.18
9.05
8.58
7.75
6.62
5.27
3.76
2.11
0.32
-1.65
-3.86
-6.3
-8.88
-11.45
-13.84
-15.95
-17.79
-19.5
-21.3
-23.4
-25.92
-28.83
-31.98
-35.07
-37.73
-39.44
-39.67
-37.96
-34.17
-28.54
-21.75
-14.72
-8.36
-3.26
0.46
3.11
5.2
7.15
9.15
11.04
12.55
13.41
13.57
13.19
12.63
12.22
12.18
12.54
13.17
13.88
14.52
15.06
15.5
15.85
16.04
15.96
15.48
14.55
13.19
11.53
9.75
7.94
6.18
4.46
2.77
1.05
-0.77
-2.82
-5.22
-8.06
-11.34
-14.88
-18.36
-21.34
-23.28
-23.7
-22.24
-18.79
-13.68
-7.58
-1.39
4.0
8.05
10.7
12.27
13.26
14.05
14.76
15.27
15.39
14.99
14.19
13.21
12.34
11.8
11.6
11.64
11.75
11.78
11.68
11.44
11.11
10.69
10.17
9.47
8.53
7.35
5.96
4.4
2.7
0.87
-1.06
-3.09
-5.18
-7.28
-9.34
-11.34
-13.33
-15.37
-17.61
-20.14
-23.02
-26.14
-29.14
-31.43
-32.34
-31.29
-28.12
-23.08
-16.83
-10.16
-3.82
1.64
6.0
9.17
11.24
12.4
12.89
13.03
13.14
13.4
13.83
14.29
14.59
14.61
14.43
14.25
14.29
14.67
15.28
15.91
16.31
16.32
15.91
15.16
14.13
12.84
11.33
9.58
7.67
5.7
3.76
1.94
0.25
-1.34
-2.89
-4.47
-6.15
-7.97
-9.9
-11.94
-14.08
-16.4
-18.98
-21.9
-24.98
-27.74
-29.49
-29.51
-27.34
-23.01
-17.05
-10.37
-3.89
1.63
5.79
8.56
10.14
10.87
11.09
11.05
10.9
10.71
10.45
10.11
9.72
9.35
9.09
9.0
9.1
9.37
9.79
10.32
10.93
11.51
11.92
12.03
11.78
11.24
10.62
10.11
9.79
9.56
9.16
8.32
6.88
4.86
2.37
-0.34
-3.03
-5.55
-7.79
-9.78
-11.66
-13.62
-15.89
-18.59
-21.66
-24.74
-27.29
-28.65
-28.24
-25.8
-21.49
-15.92
-9.94
-4.45
-0.12
2.79
4.45
5.2
5.43
5.39
5.12
4.6
3.84
2.95
2.13
1.6
1.38
1.42
1.6
1.81
2.08
2.47
3.01
3.61
4.11
4.31
4.08
3.48
2.6
1.63
0.67
-0.25
-1.12
-1.93
-2.66
-3.33
-4.0
-4.85
-6.04
-7.68
-9.82
-12.38
-15.24
-18.25
-21.27
-24.06
-26.3
-27.52
-27.22
-25.08
-21.05
-15.49
-9.08
-2.61
3.25
8.11
11.95
14.96
17.39
19.36
20.86
21.76
21.98
21.57
20.78
19.89
19.2
18.79
18.63
18.57
18.43
18.12
17.6
16.92
16.12
15.22
14.25
13.24
12.18
11.04
9.77
8.34
6.76
5.1
3.43
1.74
-0.02
-1.97
-4.18
-6.52
-8.77
-10.73
-12.34
-13.85
-15.66
-18.19
-21.52
-25.27
-28.61
-30.53
-30.27
-27.59
-22.86
-16.96
-10.95
-5.64
-1.44
1.68
3.94
5.6
6.84
7.74
8.33
8.72
9.09
9.59
10.31
11.2
12.09
12.84
13.38
13.76
14.16
14.79
15.72
16.83
17.86
18.43
18.26
17.23
15.48
13.36
11.26
9.51
8.3
7.59
7.18
6.79
6.15
5.08
3.61
1.84
-0.06
-1.9
-3.65
-5.39
-7.3
-9.59
-12.41
-15.76
-19.37
-22.78
-25.31
-26.32
-25.37
-22.38
-17.75
-12.18
-6.49
-1.36
2.79
5.85
7.91
9.12
9.71
9.86
9.8
9.74
9.81
10.1
10.6
11.26
11.97
12.65
13.19
13.51
13.59
13.46
13.2
12.92
12.68
12.39
11.87
10.92
9.44
7.57
5.55
3.67
2.06
0.66
-0.81
-2.59
-4.81
-7.38
-10.02
-12.44
-14.42
-15.99
-17.3
-18.58
-20.06
-21.87
-24.02
-26.42
-28.81
-30.76
-31.76
-31.32
-29.12
-25.18
-19.87
-13.86
-7.94
-2.78
1.27
4.17
6.15
7.55
8.65
9.57
10.26
10.62
10.55
10.06
9.31
8.54
7.96
7.68
7.73
8.03
8.47
8.97
9.44
9.79
9.94
9.81
9.31
8.48
7.42
6.28
5.24
4.34
3.52
2.59
1.44
0.03
-1.51
-2.98
-4.2
-5.15
-5.97
-6.96
-8.38
-10.45
-13.19
-16.45
-19.82
-22.75
-24.58
-24.77
-23.04
-19.51
-14.69
-9.36
-4.28
-0.02
3.15
5.27
6.56
7.2
7.34
7.08
6.5
5.71
4.89
4.21
3.81
3.77
4.04
4.51
5.07
5.66
6.29
7.02
7.85
8.71
9.44
9.83
9.74
9.16
8.22
7.09
5.96
4.96
4.14
3.45
2.79
2.06
1.11
-0.15
-1.72
-3.56
-5.53
-7.51
-9.39
-11.18
-12.98
-14.95
-17.25
-19.95
-22.86
-25.51
-27.25
-27.39
-25.49
-21.58
-16.2
-10.22
-4.58
0.06
3.41
5.55
6.79
7.39
7.54
7.28
6.61
5.58
4.39
3.32
2.65
2.59
3.13
4.14
5.38
6.67
7.95
9.27
10.7
12.15
13.47
14.34
14.49
13.77
12.32
10.4
8.37
6.47
4.78
3.25
1.7
0.05
-1.78
-3.74
-5.71
-7.6
-9.32
-10.85
-12.17
-13.3
-14.36
-15.52
-17.01
-19.01
-21.59
-24.51
-27.21
-28.92
-28.9
-26.69
-22.36
-16.55
-10.24
-4.42
0.21
3.47
5.52
6.79
7.65
8.32
8.86
9.21
9.32
9.21
8.99
8.77
8.65
8.65
8.74
8.87
9.08
9.43
10.04
10.92
11.96
12.96
13.63
13.82
13.45
12.65
11.57
10.37
9.16
7.99
6.87
5.73
4.43
2.75
0.53
-2.28
-5.49
-8.72
-11.61
-13.85
-15.43
-16.62
-17.84
-19.54
-21.94
-24.95
-28.06
-30.51
-31.41
-30.13
-26.46
-20.83
-14.11
-7.38
-1.58
2.8
5.68
7.4
8.41
9.05
9.51
9.77
9.77
9.52
9.18
8.96
9.07
9.62
10.52
11.57
12.53
13.31
13.92
14.43
14.83
14.96
14.61
13.59
11.94
9.92
7.92
6.26
5.02
4.07
3.14
2.0
0.55
-1.12
-2.85
-4.41
-5.65
-6.52
-7.14
-7.73
-8.64
-10.21
-12.59
-15.66
-18.96
-21.78
-23.35
-23.11
-20.86
-16.83
-11.62
-5.99
-0.71
3.69
6.96
9.19
10.59
11.46
12.05
12.47
12.76
12.89
12.82
12.6
12.32
12.07
11.93
12.01
12.37
13.09
14.11
15.24
16.23
16.78
16.74
16.09
15.0
13.7
12.4
11.2
10.11
9.09
8.12
7.18
6.23
5.17
3.81
2.05
-0.1
-2.5
-4.86
-6.94
-8.61
-9.83
-10.81
-11.8
-13.11
-14.96
-17.37
-20.13
-22.73
-24.5
-24.8
-23.26
-19.87
-15.03
-9.41
-3.76
1.26
5.2
7.93
9.54
10.29
10.48
10.34
10.02
9.59
9.09
8.53
8.04
7.68
7.54
7.66
8.04
8.65
9.47
10.51
11.72
13.07
14.42
15.66
16.6
17.07
16.9
16.02
14.52
12.6
10.56
8.61
6.85
5.19
3.43
1.43
-0.8
-3.1
-5.28
-7.18
-8.85
-10.39
-12.0
-13.83
-15.87
-18.12
-20.55
-23.12
-25.68
-27.9
-29.24
-29.11
-27.14
-23.35
-18.23
-12.6
-7.35
-3.05
0.06
2.17
3.62
4.68
5.48
5.95
6.0
5.58
4.83
3.96
3.27
2.99
3.23
3.95
4.98
6.05
6.97
7.58
7.86
7.87
7.72
7.45
7.02
6.4
5.61
4.75
4.02
3.53
3.3
3.22
3.08
2.74
2.08
1.11
-0.1
-1.47
-2.93
-4.38
-5.76
-7.09
-8.49
-10.2
-12.43
-15.2
-18.2
-20.87
-22.48
-22.45
-20.59
-17.14
-12.7
-7.98
-3.6
0.12
3.03
5.19
6.64
7.41
7.55
7.12
6.33
5.41
4.62
4.04
3.66
3.36
2.99
2.5
1.88
1.23
0.64
0.21
-0.04
-0.17
-0.31
-0.65
-1.33
-2.43
-3.89
-5.53
-7.1
-8.44
-9.53
-10.47
-11.51
-12.81
-14.43
-16.32
-18.31
-20.26
-22.08
-23.76
-25.36
-27.02
-28.86
-30.97
-33.33
-35.73
-37.69
-38.65
-38.0
-35.4
-30.9
-24.99
-18.42
-12.08
-6.61
-2.37
0.65
2.71
4.12
5.13
5.89
6.46
6.87
7.19
7.49
7.82
8.2
8.61
8.95
9.09
8.99
8.65
8.21
7.86
7.73
7.82
7.9
7.54
6.3
3.88
0.28
-4.1
-8.64
-12.75
-16.06
-18.59
-20.69
-22.89
-25.71
-29.42
-34.03
-39.19
-44.38
-48.91
-52.25
-54.15
-54.84
-55.0
-55.67
-57.77
-61.68
-66.87
-71.66
-73.64
-70.37
-60.42
-44.11
-23.67
-2.62
15.39
27.8
33.86
34.55
31.81
27.39
22.13
15.75
7.33
-4.0
-18.47
-35.51
-53.98
-72.5
-89.66
-104.27
-115.55
-123.43
-129.08
-134.95
-144.41
-160.63
-184.96
-215.69
-247.85
-274.5
-289.03
-287.64
-270.5
-241.4
-205.96
-169.42
-135.36
-105.28
-79.47
-57.76
-40.48
-28.1
-20.84
-18.08
-18.35
-19.94
-21.51
-22.41
-22.5
-21.88
-20.47
-17.71
-12.54
-3.65
9.87
28.24
50.65
75.58
101.52
127.95
155.82
186.71
221.14
256.38
285.79
299.98
289.98
250.7
182.83
92.33
-12.05
-120.81
-225.32
-317.62
-390.28
-437.19
-454.81
-444.05
-410.55
-363.27
-311.48
-261.96
-217.93
-179.65
-145.92
-115.47
-87.53
-61.52
-36.51
-11.13
16.2
46.65
80.4
116.11
150.89
181.02
203.12
215.67
219.91
219.6
219.65
224.12
234.61
249.93
267.01
282.51
294.28
301.79
305.71
306.98
306.08
302.89
297.1
288.76
278.47
267.38
256.73
247.29
239.21
231.93
224.62
216.6
207.59
197.81
187.75
177.78
167.99
158.14
147.83
136.78
124.94
112.58
100.08
87.86
76.15
64.95
54.06
43.18
32.11
20.84
9.58
-1.44
-12.12
-22.68
-33.62
-45.49
-58.48
-72.12
-85.03
-95.24
-100.63
-99.66
-91.93
-78.41
-61.24
-43.14
-26.65
-13.49
-4.23
1.57
5.02
7.33
9.42
11.78
14.52
17.57
20.84
24.31
28.01
31.96
36.11
40.26
44.18
47.61
50.34
52.22
53.14
53.05
51.96
49.91
46.94
43.08
38.41
32.97
26.92
20.43
13.77
7.23
1.03
-4.76
-10.23
-15.62
-21.31
-27.65
-34.84
-42.7
-50.5
-56.92
-60.29
-58.97
-52.01
-39.52
-22.85
-4.24
13.79
29.1
40.45
47.63
51.17
51.94
50.75
48.21
44.66
40.38
35.6
30.63
25.85
21.61
18.17
15.63
13.97
13.07
12.76
12.93
13.46
14.29
15.23
16.04
16.37
15.84
14.2
11.35
7.44
2.78
-2.24
-7.3
-12.21
-16.93
-21.57
-26.3
-31.33
-36.91
-43.22
-50.38
-58.15
-65.76
-71.84
-74.72
-72.86
-65.56
-53.18
-37.21
-19.8
-3.11
11.32
22.79
31.31
37.31
41.29
43.58
44.37
43.74
41.84
38.95
35.46
31.86
28.57
25.84
23.69
22.0
20.58
19.31
18.21
17.38
16.89
16.73
16.76
16.72
16.38
15.55
14.14
12.15
9.67
6.79
3.69
0.48
-2.81
-6.26
-10.07
-14.51
-19.88
-26.38
-34.06
-42.64
-51.36
-58.95
-63.79
-64.35
-59.71
-50.03
-36.58
-21.43
-6.75
5.77
15.34
22.03
26.39
29.07
30.48
30.8
30.07
28.38
25.95
23.14
20.3
17.71
15.5
13.66
12.09
10.72
9.55
8.6
7.89
7.33
6.75
5.88
4.46
2.32
-0.6
-4.21
-8.3
-12.58
-16.73
-20.47
-23.65
-26.23
-28.36
-30.28
-32.3
-34.75
-37.87
-41.71
-46.01
-50.02
-52.56
-52.24
-47.92
-39.15
-26.47
-11.36
4.23
18.44
30.03
38.52
44.09
47.2
48.36
47.9
46.06
43.11
39.39
35.33
31.34
27.77
24.79
22.43
20.56
19.02
17.63
16.24
14.84
13.41
11.96
10.38
8.43
5.83
2.36
-1.94
-6.76
-11.54
-15.73
-19.01
-21.4
-23.31
-25.26
-27.78
-31.22
-35.72
-41.13
-46.92
-52.2
-55.68
-56.03
-52.15
-43.76
-31.53
-16.97
-1.99
11.67
22.94
31.4
37.2
40.72
42.32
42.3
40.91
38.43
35.22
31.67
28.2
25.09
22.55
20.57
19.03
17.73
16.48
15.18
13.85
12.61
11.47
10.39
9.13
7.39
4.89
1.51
-2.66
-7.31
-11.98
-16.3
-20.01
-23.11
-25.81
-28.46
-31.44
-35.05
-39.46
-44.52
-49.75
-54.2
-56.55
-55.45
-49.93
-39.94
-26.38
-11.01
4.15
17.34
27.54
34.51
38.65
40.59
40.94
40.12
38.37
35.87
32.83
29.55
26.36
23.58
21.43
19.97
19.12
18.66
18.3
17.78
16.88
15.52
13.72
11.57
9.15
6.51
3.64
0.5
-2.88
-6.48
-10.16
-13.77
-17.15
-20.23
-23.01
-25.62
-28.27
-31.21
-34.75
-39.02
-43.96
-49.09
-53.52
-56.01
-55.29
-50.46
-41.39
-28.82
-14.3
0.31
13.28
23.49
30.54
34.64
36.37
36.38
35.18
33.15
30.55
27.6
24.59
21.76
19.38
17.66
16.69
16.36
16.41
16.45
16.17
15.37
14.04
12.27
10.19
7.86
5.26
2.33
-0.94
-4.49
-8.17
-11.79
-15.25
-18.47
-21.44
-24.16
-26.58
-28.73
-30.7
-32.71
-35.1
-38.18
-41.98
-46.11
-49.56
-50.96
-48.92
-42.6
-32.02
-18.27
-3.19
11.2
23.19
31.88
37.22
39.79
40.39
39.74
38.25
36.08
33.31
30.1
26.82
23.91
21.73
20.45
19.89
19.66
19.32
18.6
17.44
16.02
14.47
12.86
11.04
8.74
5.77
2.07
-2.19
-6.73
-11.22
-15.39
-19.1
-22.33
-25.12
-27.58
-29.9
-32.33
-35.21
-38.81
-43.24
-48.2
-52.92
-56.17
-56.52
-52.85
-44.76
-32.82
-18.45
-3.54
10.14
21.34
29.54
34.87
37.78
38.86
38.57
37.28
35.26
32.78
30.15
27.64
25.5
23.83
22.62
21.77
21.15
20.69
20.37
20.15
19.91
19.41
18.34
16.41
13.53
9.83
5.66
1.39
-2.73
-6.66
-10.51
-14.44
-18.47
-22.46
-26.19
-29.4
-32.01
-34.11
-36.0
-38.09
-40.83
-44.51
-49.07
-53.98
-58.14
-60.06
-58.32
-52.05
-41.36
-27.4
-12.08
2.61
15.13
24.7
31.36
35.6
38.02
39.04
38.86
37.61
35.52
32.91
30.19
27.77
25.81
24.31
23.08
21.95
20.84
19.86
19.19
18.92
18.99
19.06
18.64
17.29
14.78
11.24
7.1
2.88
-1.0
-4.35
-7.31
-10.17
-13.2
-16.52
-20.01
-23.4
-26.42
-28.9
-30.88
-32.62
-34.56
-37.16
-40.84
-45.71
-51.4
-56.97
-60.98
-61.87
-58.44
-50.32
-38.16
-23.51
-8.36
5.44
16.66
24.82
30.13
33.12
34.35
34.26
33.1
31.1
28.55
25.82
23.31
21.3
19.86
18.89
18.2
17.64
17.22
17.04
17.17
17.59
18.02
18.02
17.19
15.26
12.32
8.73
5.0
1.59
-1.29
-3.73
-6.05
-8.56
-11.46
-14.7
-17.98
-20.97
-23.39
-25.18
-26.59
-28.06
-30.12
-33.19
-37.38
-42.22
-46.72
-49.5
-49.15
-44.7
-36.06
-24.05
-10.26
3.5
15.65
25.24
32.0
36.12
38.05
38.23
37.0
34.71
31.72
28.46
25.34
22.72
20.77
19.51
18.84
18.59
18.6
18.72
18.78
18.6
17.96
16.68
14.64
11.84
8.45
4.76
1.08
-2.32
-5.34
-8.03
-10.57
-13.21
-16.11
-19.31
-22.65
-25.85
-28.66
-30.96
-32.87
-34.75
-37.11
-40.46
-45.04
-50.62
-56.28
-60.52
-61.62
-58.15
-49.57
-36.47
-20.55
-4.01
11.07
23.3
32.2
38.01
41.3
42.63
42.41
40.98
38.68
35.96
33.27
30.99
29.28
28.11
27.3
26.61
25.87
25.01
24.08
23.18
22.42
21.76
21.04
19.9
17.93
14.9
10.83
6.11
1.33
-2.89
-6.21
-8.67
-10.66
-12.72
-15.27
-18.45
-22.15
-26.02
-29.7
-32.95
-35.7
-38.1
-40.42
-43.03
-46.25
-50.23
-54.69
-58.87
-61.52
-61.2
-56.81
-48.04
-35.59
-21.03
-6.33
6.8
17.32
24.95
30.06
33.2
34.88
35.39
34.94
33.69
31.92
29.93
27.98
26.31
24.98
24.0
23.3
22.79
22.37
22.01
21.69
21.43
21.17
20.73
19.81
18.12
15.42
11.81
7.66
3.5
-0.16
-3.04
-5.19
-6.95
-8.8
-11.19
-14.29
-17.99
-21.95
-25.72
-28.92
-31.42
-33.4
-35.28
-37.6
-40.79
-45.01
-50.04
-55.16
-59.25
-60.96
-59.11
-53.09
-43.08
-30.11
-15.79
-1.91
10.11
19.47
26.07
30.3
32.72
33.86
34.05
33.46
32.22
30.47
28.43
26.34
24.46
22.95
21.86
21.16
20.81
20.83
21.22
21.95
22.79
23.37
23.22
21.96
19.49
16.07
12.2
8.44
5.15
2.34
-0.28
-3.12
-6.47
-10.34
-14.47
-18.46
-21.97
-24.83
-27.15
-29.24
-31.51
-34.34
-37.92
-42.19
-46.66
-50.4
-52.22
-50.92
-45.72
-36.56
-24.27
-10.31
3.56
15.81
25.48
32.25
36.34
38.18
38.24
36.88
34.44
31.31
27.95
24.84
22.38
20.76
19.95
19.68
19.64
19.55
19.28
18.86
18.39
17.97
17.55
16.94
15.82
13.89
11.07
7.55
3.73
0.11
-2.97
-5.44
-7.51
-9.57
-12.06
-15.2
-18.98
-23.11
-27.19
-30.85
-33.89
-36.35
-38.52
-40.84
-43.79
-47.64
-52.28
-57.06
-60.83
-62.21
-59.95
-53.37
-42.68
-28.96
-13.88
0.74
13.42
23.32
30.22
34.46
36.58
37.13
36.6
35.36
33.71
31.94
30.31
29.01
28.12
27.56
27.13
26.62
25.89
24.9
23.76
22.61
21.48
20.24
18.64
16.38
13.32
9.52
5.3
1.14
-2.5
-5.35
-7.42
-8.98
-10.48
-12.31
-14.7
-17.64
-20.84
-23.94
-26.59
-28.67
-30.26
-31.72
-33.5
-36.13
-39.96
-44.98
-50.65
-55.82
-58.94
-58.51
-53.62
-44.31
-31.68
-17.49
-3.61
8.5
18.06
24.95
29.47
32.01
33.0
32.79
31.75
30.23
28.54
26.88
25.36
24.01
22.85
21.92
21.32
21.1
21.28
21.82
22.6
23.39
23.9
23.79
22.8
20.82
17.92
14.42
10.74
7.31
4.38
1.97
-0.17
-2.37
-4.95
-8.02
-11.44
-14.86
-17.96
-20.51
-22.58
-24.5
-26.74
-29.75
-33.74
-38.52
-43.39
-47.27
-48.84
-46.98
-41.12
-31.53
-19.27
-5.96
6.76
17.62
25.91
31.58
34.93
36.42
36.49
35.44
33.53
31.01
28.2
25.44
23.07
21.34
20.39
20.18
20.52
21.17
21.87
22.43
22.72
22.6
21.9
20.45
18.11
14.96
11.23
7.31
3.61
0.35
-2.51
-5.24
-8.23
-11.73
-15.75
-20.01
-24.06
-27.5
-30.15
-32.16
-33.88
-35.85
-38.56
-42.31
-47.04
-52.23
-56.83
-59.49
-58.86
-54.01
-44.89
-32.39
-18.11
-3.88
8.75
18.88
26.24
31.08
33.85
35.01
34.95
34.01
32.51
30.77
29.09
27.65
26.54
25.7
24.99
24.29
23.6
22.98
22.56
22.43
22.55
22.71
22.55
21.68
19.85
17.08
13.57
9.79
6.18
3.1
0.6
-1.5
-3.56
-5.9
-8.67
-11.75
-14.78
-17.42
-19.47
-20.98
-22.25
-23.69
-25.77
-28.81
-32.87
-37.73
-42.66
-46.57
-48.13
-46.21
-40.32
-30.86
-19.08
-6.6
5.05
14.93
22.81
28.97
33.76
37.34
39.64
40.41
39.53
37.15
33.66
29.57
25.38
21.51
18.24
15.75
14.12
13.28
13.0
12.97
12.82
12.27
11.13
9.33
6.88
3.87
0.49
-2.97
-6.14
-8.73
-10.72
-12.38
-14.23
-16.86
-20.67
-25.64
-31.35
-37.1
-42.14
-45.93
-48.31
-49.55
-50.34
-51.51
-53.8
-57.61
-62.78
-68.52
-73.48
-76.07
-74.89
-69.13
-58.91
-45.19
-29.52
-13.6
1.13
13.78
24.0
31.84
37.56
41.44
43.79
44.84
44.86
44.1
42.82
41.24
39.58
38.01
36.72
35.82
35.36
35.3
35.47
35.54
35.13
33.9
31.68
28.55
24.78
20.69
16.53
12.4
8.27
4.09
-0.13
-4.27
-8.2
-11.82
-15.21
-18.51
-21.91
-25.56
-29.54
-33.94
-38.82
-44.08
-49.31
-53.64
-55.81
-54.55
-49.05
-39.37
-26.57
-12.42
1.19
12.76
21.56
27.6
31.33
33.35
34.13
33.92
32.9
31.21
29.12
26.94
25.03
23.57
22.59
21.96
21.47
21.02
20.59
20.25
20.07
19.94
19.63
18.83
17.28
14.94
12.03
8.86
5.77
2.94
0.33
-2.24
-5.06
-8.35
-12.14
-16.29
-20.48
-24.36
-27.62
-30.22
-32.37
-34.54
-37.25
-40.92
-45.66
-51.03
-56.06
