-35.22
-37.48
-40.55
-44.57
-49.21
-53.68
-56.7
-56.91
-53.28
-45.53
-34.29
-21.01
-7.56
4.4
13.74
20.13
23.76
25.19
24.94
23.43
21.01
18.09
15.17
12.81
11.47
11.36
12.34
14.03
15.93
17.64
18.99
19.95
20.59
20.86
20.59
19.55
17.64
14.95
11.85
8.77
6.0
3.53
1.04
-1.92
-5.67
-10.18
-15.11
-19.9
-24.0
-27.17
-29.5
-31.43
-33.54
-36.4
-40.33
-45.35
-51.01
-56.36
-60.07
-60.66
-56.92
-48.39
-35.65
-20.3
-4.47
9.77
21.06
28.96
33.84
36.43
37.43
37.18
35.8
33.42
30.36
27.28
24.86
23.64
23.71
24.72
26.12
27.33
28.04
28.25
28.14
27.82
27.33
26.46
24.94
22.6
19.49
15.91
12.21
8.75
5.64
2.81
0.03
-2.89
-6.09
-9.5
-12.96
-16.35
-19.58
-22.68
-25.75
-28.95
-32.44
-36.34
-40.52
-44.61
-47.98
-49.83
-49.4
-46.14
-39.89
-30.96
-20.08
-8.31
3.21
13.44
21.65
27.44
30.81
32.04
31.56
29.85
27.44
24.87
22.61
21.08
20.41
20.49
20.99
21.49
21.7
21.5
20.92
20.03
18.85
17.32
15.3
12.76
9.74
6.4
2.9
-0.6
-4.07
-7.55
-11.13
-14.9
-18.86
-22.89
-26.76
-30.28
-33.37
-36.15
-39.0
-42.37
-46.6
-51.77
-57.55
-63.14
-67.43
-69.12
-67.03
-60.48
-49.57
-35.24
-19.18
-3.39
10.4
21.11
28.41
32.64
34.36
34.13
32.39
29.56
26.19
22.96
20.59
19.51
19.8
21.12
22.98
24.91
26.7
28.27
29.59
30.47
30.62
29.71
27.57
24.32
20.3
16.0
11.84
8.03
4.52
1.11
-2.49
-6.48
-10.89
-15.56
-20.2
-24.52
-28.32
-31.6
-34.58
-37.62
-41.18
-45.65
-51.19
-57.49
-63.6
-67.98
-68.87
-64.86
-55.45
-41.43
-24.68
-7.54
7.88
20.31
29.41
35.59
39.45
41.46
41.84
40.71
38.37
35.36
32.43
30.27
29.26
29.33
30.09
31.04
31.84
32.46
33.02
33.64
34.26
34.56
34.05
32.35
29.36
25.34
20.8
16.24
12.05
8.32
4.88
1.41
-2.43
-6.8
-11.62
-16.57
-21.22
-25.19
-28.3
-30.71
-32.87
-35.41
-38.97
-43.98
-50.43
-57.7
-64.53
-69.16
-69.8
-65.23
-55.32
-41.11
-24.56
-7.92
6.98
19.05
28.05
34.24
38.03
39.76
39.67
38.03
35.32
32.25
29.59
27.99
27.78
28.88
30.87
33.17
35.24
36.82
37.89
38.63
39.17
39.46
39.21
38.05
35.71
32.21
27.84
23.18
18.77
14.94
11.71
8.72
5.5
1.65
-2.9
-7.92
-12.91
-17.42
-21.23
-24.44
-27.4
-30.59
-34.43
-39.19
-44.92
-51.32
-57.79
-63.25
-66.28
-65.46
-59.87
-49.48
-35.37
-19.46
-3.95
9.37
19.54
26.45
30.56
32.49
32.69
31.47
29.01
25.7
22.07
18.73
16.2
14.73
14.3
14.71
15.71
17.09
18.72
20.48
22.14
23.37
23.73
22.9
20.75
17.48
13.6
9.7
6.27
3.37
0.75
-2.1
-5.61
-9.9
-14.66
-19.38
-23.53
-26.9
-29.65
-32.29
-35.42
-39.57
-45.03
-51.68
-58.91
-65.5
-69.79
-69.99
-64.79
-53.89
-38.33
-20.24
-2.25
13.33
25.14
32.96
37.39
39.36
39.63
38.62
36.55
33.65
30.36
27.32
25.15
24.18
24.33
25.17
26.18
26.96
27.45
27.76
28.09
28.48
28.68
28.24
26.71
23.92
20.09
15.77
11.55
7.85
4.67
1.65
-1.69
-5.71
-10.39
-15.38
-20.18
-24.42
-27.97
-31.01
-33.9
-37.1
-41.07
-46.15
-52.37
-59.23
-65.54
-69.59
-69.54
-64.17
-53.34
-38.26
-21.09
-4.27
10.22
21.39
29.17
34.09
36.82
37.8
37.3
35.53
32.91
30.04
27.65
26.28
26.14
27.03
28.52
30.14
31.6
32.83
33.89
34.83
35.52
35.67
34.89
32.9
29.69
25.56
21.04
16.68
12.91
9.76
7.01
4.2
0.94
-2.95
-7.32
-11.79
-15.89
-19.28
-21.88
-23.98
-26.11
-28.96
-33.1
-38.77
-45.67
-52.8
-58.54
-61.03
-58.73
-50.92
-38.13
-21.96
-4.68
11.44
24.73
34.39
40.43
43.35
43.85
42.53
39.94
36.56
32.91
29.55
26.92
25.28
24.61
24.64
25.02
25.46
25.91
26.42
27.09
27.77
28.02
27.26
24.98
21.11
16.01
10.43
5.14
0.67
-2.92
-6.0
-9.23
-13.19
-18.18
-24.05
-30.33
-36.39
-41.7
-46.11
-49.8
-53.29
-57.23
-62.06
-67.83
-74.01
-79.36
-82.3
-81.25
-75.2
-64.23
-49.62
-33.52
-18.29
-5.84
2.95
8.12
10.39
10.64
9.63
7.93
5.94
4.15
3.03
3.04
4.38
6.95
10.36
14.05
17.5
20.41
22.68
24.4
25.76
26.79
27.38
27.3
26.32
24.39
21.68
18.52
15.18
11.79
8.26
4.36
-0.02
-4.8
-9.71
-14.38
-18.58
-22.27
-25.64
-29.06
-32.92
-37.59
-43.25
-49.67
-56.1
-61.21
-63.49
-61.79
-55.89
-46.58
-35.43
-24.09
-13.67
-4.6
3.27
10.14
16.02
20.58
23.47
24.64
24.42
23.42
22.19
21.04
19.94
18.7
17.12
15.13
12.91
10.74
9.01
7.92
7.51
7.53
7.7
7.84
7.91
8.14
8.76
9.81
10.95
11.66
11.44
10.31
8.78
7.78
8.24
10.75
15.41
22.01
30.51
40.93
53.49
68.03
83.93
100.3
116.37
131.91
147.16
162.71
178.32
193.4
206.87
218.18
228.05
238.49
251.89
269.17
288.65
304.33
307.8
290.42
246.63
176.37
85.65
-14.92
-113.47
-199.24
-266.23
-306.98
-315.4
-288.79
-230.4
-149.62
-59.16
24.52
95.66
152.6
195.97
226.89
246.85
257.76
261.37
259.38
253.24
244.57
233.5
219.99
203.73
184.54
162.65
138.7
113.75
88.98
65.95
45.15
26.83
10.91
-2.76
-14.25
-23.55
-30.5
-34.99
-36.82
-36.55
-35.01
-33.12
-31.77
-31.54
-32.81
-35.73
-40.35
-46.54
-54.49
-64.32
-76.05
-89.5
-104.18
-119.47
-134.7
-149.32
-162.91
-175.35
-186.6
-196.59
-205.13
-211.9
-216.69
-219.51
-220.74
-221.01
-220.86
-220.58
-220.12
-219.45
-218.87
-219.41
-222.54
-229.62
-241.6
-258.9
-282.08
-312.11
-350.08
-395.8
-446.13
-494.21
-530.22
-544.0
-528.19
-480.5
-404.71
-310.11
-209.66
-117.63
-47.11
-7.61
-2.89
-29.46
-76.86
-129.79
-172.07
-191.07
-180.56
-141.11
-78.5
-1.37
80.94
159.43
226.32
276.26
307.8
323.74
330.09
333.57
338.63
346.33
355.36
364.69
375.53
390.72
411.53
434.48
450.62
448.73
420.96
367.48
297.02
222.91
157.3
106.6
70.6
45.02
25.33
9.24
-3.32
-11.88
-17.62
-24.12
-36.16
-57.75
-90.24
-131.5
-176.32
-218.19
-251.4
-272.97
-283.93
-289.25
-295.97
-309.94
-332.79
-360.52
-384.7
-395.85
-387.21
-357.36
-310.17
-252.64
-192.14
-134.42
-83.16
-40.59
-8.1
13.94
26.82
33.86
39.78
48.89
63.34
82.15
102.02
119.11
130.96
137.6
141.11
144.4
149.57
157.03
165.44
172.73
177.26
178.68
178.15
177.59
178.66
181.91
186.52
190.73
192.68
191.12
185.63
176.6
164.93
151.86
138.68
126.45
115.48
105.02
93.27
78.0
57.45
31.13
0.16
-32.87
-64.47
-90.89
-108.77
-115.85
-111.55
-97.41
-76.97
-54.87
-35.59
-22.08
-15.05
-13.08
-13.48
-13.4
-10.62
-4.18
5.6
17.16
28.0
35.16
36.02
29.19
15.08
-4.08
-24.87
-43.77
-58.13
-66.72
-69.77
-68.44
-64.24
-58.49
-52.06
-45.31
-38.07
-29.97
-20.83
-11.12
-2.11
4.27
6.08
2.12
-7.49
-21.21
-36.49
-50.41
-60.37
-64.72
-63.12
-56.57
-46.98
-36.43
-26.41
-17.3
-8.58
0.53
10.13
19.32
26.4
29.74
28.74
24.1
17.57
11.05
5.84
2.27
-0.01
-1.67
-3.2
-4.84
-6.61
-8.48
-10.32
-11.93
-12.94
-12.88
-11.32
-7.95
-2.79
3.88
11.45
19.06
25.74
30.64
33.26
33.69
32.5
30.63
28.99
28.1
27.96
28.04
27.52
25.58
21.74
16.04
9.17
2.26
-3.4
-6.88
-7.99
-7.32
-6.06
-5.5
-6.51
-9.26
-13.24
-17.65
-21.71
-25.1
-27.96
-30.75
-33.9
-37.64
-41.94
-46.58
-51.31
-55.68
-59.1
-60.77
-59.98
-56.42
-50.5
-43.13
-35.32
-27.62
-19.88
-11.65
-2.66
6.64
15.14
21.58
25.21
26.3
25.86
25.13
24.88
25.19
25.61
25.62
25.07
24.31
24.09
25.17
28.04
32.71
38.74
45.52
52.47
59.14
65.16
70.05
73.1
73.69
71.55
67.12
61.56
56.27
52.21
49.4
46.99
43.72
38.74
32.09
24.63
17.64
12.27
9.24
8.71
10.04
11.51
10.32
3.26
-12.0
-35.33
-63.44
-90.62
-110.71
-119.41
-115.84
-102.35
-83.02
-61.86
-41.52
-23.22
-7.44
5.43
14.89
20.66
23.19
23.73
23.99
25.48
28.88
33.81
39.07
43.3
45.51
45.61
44.27
42.52
41.3
40.95
41.12
41.08
40.02
37.47
33.45
28.36
22.79
17.3
12.2
7.56
3.31
-0.7
-4.58
-8.53
-12.68
-17.24
-22.38
-28.2
-34.61
-41.32
-47.76
-53.07
-56.3
-56.58
-53.51
-47.3
-38.78
-29.07
-19.19
-9.7
-0.68
7.9
15.81
22.42
26.86
28.57
27.73
25.35
22.87
21.6
22.12
24.13
26.73
28.87
29.93
29.86
29.1
28.26
27.76
27.58
27.36
26.66
25.09
22.64
19.59
16.23
12.76
9.05
4.78
-0.4
-6.49
-13.16
-19.69
-25.36
-29.72
-32.79
-35.05
-37.18
-39.89
-43.63
-48.5
-54.13
-59.62
-63.75
-65.16
-62.77
-56.12
-45.61
-32.39
-18.11
-4.41
7.43
16.73
23.41
27.78
30.31
31.5
31.7
31.22
30.23
28.95
27.58
26.39
25.58
25.37
25.92
27.32
29.48
32.13
34.82
36.95
38.02
37.79
36.37
34.11
31.49
28.83
26.19
23.47
20.45
17.0
13.08
8.76
4.14
-0.64
-5.35
-9.79
-13.84
-17.61
-21.5
-26.1
-31.97
-39.34
-47.78
-56.12
-62.69
-65.67
-63.77
-56.68
-45.3
-31.46
-17.34
-4.75
5.42
13.15
19.0
23.48
26.78
28.78
29.41
28.92
27.87
26.97
26.69
27.12
28.12
29.4
30.79
32.21
33.6
34.74
35.38
35.27
34.29
32.46
29.89
26.73
23.11
19.21
15.14
10.88
6.19
0.78
-5.48
-12.3
-18.91
-24.47
-28.37
-30.69
-32.22
-34.11
-37.3
-41.97
-47.39
-52.12
-54.61
-53.8
-49.42
-41.96
-32.32
-21.37
-9.73
2.15
13.82
24.61
33.83
40.96
45.89
48.99
50.8
51.67
51.54
50.17
47.39
43.52
39.25
35.45
32.85
31.75
31.98
33.08
34.44
35.4
35.32
33.72
30.38
25.49
19.68
13.71
8.29
3.73
-0.12
-3.68
-7.41
-11.59
-16.24
-21.09
-25.79
-29.97
-33.42
-36.21
-38.72
-41.52
-45.17
-49.75
-54.65
-58.54
-59.84
-57.25
-50.37
-39.8
-26.9
-13.27
-0.27
11.13
20.39
27.2
31.47
33.29
33.11
31.58
29.48
27.42
25.69
24.28
22.99
21.67
20.25
18.86
17.68
16.97
16.9
17.48
18.46
19.22
19.03
17.18
13.48
8.48
3.39
-0.31
-1.53
-0.04
3.3
6.95
9.26
9.21
6.62
2.12
-3.39
-9.21
-15.12
-21.41
-28.49
-36.54
-45.2
-53.49
-60.0
-63.3
-62.41
-57.15
-48.3
-37.31
-25.85
-15.33
-6.47
0.65
6.4
11.16
15.16
18.32
20.54
21.84
22.43
22.75
23.06
23.4
23.53
23.14
22.03
20.46
18.94
18.06
18.16
19.05
20.13
20.64
20.08
18.48
16.37
14.43
13.14
12.44
11.86
10.72
8.62
5.66
2.38
-0.57
-2.77
-4.24
-5.39
-6.67
-8.35
-10.41
-12.68
-15.04
-17.49
-20.0
-22.29
-23.69
-23.3
-20.46
-15.02
-7.61
0.68
8.65
15.48
20.82
24.72
27.39
28.99
29.57
29.2
28.04
26.43
24.75
23.34
22.31
21.66
21.28
21.15
21.36
22.0
23.05
24.24
25.1
25.11
24.01
21.86
18.99
15.82
12.62
9.4
6.01
2.32
-1.65
-5.66
-9.45
-12.8
-15.65
-18.0
-19.96
-21.7
-23.46
-25.57
-28.31
-31.71
-35.34
-38.27
-39.35
-37.63
-32.84
-25.46
-16.54
-7.24
1.55
9.38
16.1
21.6
25.7
28.09
28.55
27.09
24.1
20.23
16.18
12.54
9.59
7.36
5.66
4.3
3.15
2.28
1.9
2.21
3.23
4.71
6.2
7.24
7.56
7.16
6.32
5.32
4.23
2.86
0.83
-2.07
-5.68
-9.39
-12.46
-14.33
-15.04
-15.08
-15.16
-15.83
-17.27
-19.33
-21.68
-23.99
-25.87
-26.9
-26.61
-24.7
-21.35
-17.31
-13.69
-11.43
-10.8
-11.28
-11.86
-11.63
-10.35
-8.47
-6.86
-6.2
-6.54
-7.27
-7.46
-6.39
-4.03
-1.0
1.71
3.31
3.6
2.95
2.01
1.27
0.65
-0.41
-2.65
-6.53
-11.92
-18.22
-24.58
-30.38
-35.33
-39.4
-42.49
-44.2
-43.78
-40.43
-33.75
-24.11
-12.71
-1.29
8.34
14.89
17.82
17.31
13.95
8.56
1.97
-4.83
-10.64
-14.24
-14.64
-11.54
-5.54
1.95
9.18
14.67
17.67
18.31
17.33
15.67
14.06
12.85
12.09
11.69
11.58
11.82
12.49
13.58
15.01
16.53
18.02
19.45
20.96
22.65
24.46
26.13
27.22
27.41
26.63
25.09
23.21
21.39
19.82
18.41
16.89
14.97
12.47
9.43
6.1
2.79
-0.17
-2.64
-4.62
-6.38
-8.39
-11.17
-15.14
-20.38
-26.48
-32.54
-37.48
-40.26
-40.28
-37.55
-32.58
-26.17
-19.21
-12.53
-6.88
-2.9
-1.03
-1.49
-4.11
-8.26
-12.88
-16.55
-17.72
-14.97
-7.42
4.99
21.35
39.91
58.5
75.03
87.9
96.16
99.29
97.17
89.89
77.98
62.56
45.4
28.59
14.09
3.13
-4.06
-8.18
-10.46
-12.11
-13.97
-16.39
-19.38
-22.71
-26.11
-29.35
-32.26
-34.8
-37.08
-39.34
-41.84
-44.64
-47.46
-49.59
-50.15
-48.35
-43.95
-37.38
-29.53
-21.5
-14.1
-7.65
-2.1
2.78
7.11
10.73
13.38
14.89
15.4
15.35
15.31
15.7
16.67
18.02
19.3
20.04
19.98
19.14
17.92
16.82
16.25
16.28
16.61
16.67
15.97
14.32
11.84
8.97
6.14
3.57
1.26
-1.04
-3.67
-6.81
-10.46
-14.44
-18.45
-22.19
-25.51
-28.43
-31.13
-33.79
-36.57
-39.55
-42.8
-46.33
-49.96
-53.2
-55.22
-55.02
-51.85
-45.52
-36.64
-26.36
-15.91
-6.23
2.25
9.46
15.44
20.09
23.21
24.65
24.59
23.54
22.21
21.26
21.05
21.52
22.27
22.89
23.14
23.05
22.86
22.8
22.84
22.67
21.78
19.78
16.56
12.36
7.7
3.18
-0.71
-3.7
-5.76
-7.08
-8.05
-9.12
-10.75
-13.23
-16.52
-20.25
-23.81
-26.62
-28.35
-29.08
-29.31
-29.71
-30.9
-33.16
-36.23
-39.31
-41.22
-40.8
-37.23
-30.41
-20.98
-10.13
0.72
10.38
18.03
23.36
26.45
27.61
27.29
26.09
24.64
23.56
23.3
24.01
25.4
26.95
28.03
28.29
27.78
26.92
26.31
26.4
27.2
28.3
29.04
28.86
27.58
25.4
22.76
19.99
17.15
13.99
10.23
5.75
0.73
-4.38
-9.14
-13.32
-16.91
-20.09
-23.05
-25.85
-28.52
-31.13
-33.88
-36.96
-40.42
-43.89
-46.5
-47.14
-44.84
-39.25
-30.78
-20.49
-9.75
0.25
8.67
15.19
19.79
22.63
23.9
23.82
22.75
21.13
19.47
18.17
17.51
17.49
17.96
18.63
19.22
19.61
19.81
19.95
20.11
20.25
20.13
19.45
18.05
16.0
13.68
11.58
10.03
9.01
8.1
6.7
4.27
0.65
-3.85
-8.63
-13.09
-16.9
-20.1
-22.98
-25.81
-28.71
-31.63
-34.55
-37.55
-40.8
-44.26
-47.47
-49.47
-49.1
-45.52
-38.62
-29.17
-18.52
-8.1
1.07
8.55
14.34
18.61
21.47
22.98
23.2
22.37
20.96
19.57
18.73
18.66
19.18
19.78
19.87
19.13
17.63
15.84
14.42
13.83
14.07
14.67
14.86
13.95
11.63
8.03
3.7
-0.7
-4.56
-7.51
-9.44
-10.4
-10.63
-10.32
-9.7
-8.88
-8.07
-7.54
-7.62
-8.64
-10.86
-14.32
-18.86
-24.08
-29.4
-34.05
-37.18
-37.96
-35.77
-30.48
-22.61
-13.13
-3.31
5.75
13.37
19.35
23.85
27.09
29.28
30.43
30.56
29.81
28.51
27.18
26.39
26.49
27.47
28.8
29.47
28.26
24.14
16.81
6.94
-3.87
-13.59
-20.48
-23.69
-23.45
-20.81
-17.07
-13.26
-9.97
-7.44
-5.82
-5.29
-5.99
-7.82
-10.34
-12.98
-15.29
-17.08
-18.45
-19.59
-20.62
-21.62
-22.74
-24.27
-26.51
-29.42
-32.41
-34.39
-34.1
-30.71
-24.13
-15.14
-5.06
4.81
13.56
20.88
26.84
31.65
35.33
37.74
38.63
38.0
