26.04
27.13
27.24
26.59
25.58
24.7
24.4
24.85
25.91
27.26
28.5
29.35
29.79
29.87
29.71
29.26
28.35
26.69
24.12
20.69
16.7
12.6
8.78
5.41
2.43
-0.4
-3.3
-6.36
-9.54
-12.65
-15.5
-18.02
-20.27
-22.42
-24.75
-27.57
-31.15
-35.68
-41.08
-46.9
-52.25
-55.94
-56.72
-53.72
-46.83
-36.74
-24.83
-12.69
-1.67
7.37
14.21
19.02
22.18
23.96
24.65
24.45
23.6
22.46
21.36
20.63
20.44
20.75
21.33
21.94
22.35
22.51
22.53
22.57
22.77
23.07
23.21
22.8
21.51
19.22
16.11
12.55
8.98
5.74
2.9
0.34
-2.21
-5.01
-8.2
-11.71
-15.32
-18.81
-21.9
-24.5
-26.7
-28.75
-31.1
-34.23
-38.48
-43.81
-49.71
-55.12
-58.74
-59.34
-56.23
-49.5
-39.95
-28.85
-17.52
-6.99
2.16
9.68
15.5
19.63
22.08
22.97
22.61
21.46
20.08
18.96
18.43
18.58
19.31
20.39
21.57
22.75
23.9
25.04
26.13
26.98
27.28
26.71
25.14
22.69
19.76
16.79
14.12
11.79
9.63
7.31
4.58
1.35
-2.29
-6.12
-9.85
-13.28
-16.37
-19.23
-22.11
-25.3
-29.0
-33.28
-38.0
-42.75
-46.85
-49.41
-49.53
-46.51
-40.19
-31.06
-20.27
-9.26
0.68
8.76
14.81
19.04
21.88
23.6
24.32
24.14
23.25
22.04
20.98
20.49
20.7
21.46
22.42
23.21
23.67
23.82
23.91
24.1
24.48
24.86
24.85
24.0
22.05
19.02
15.27
11.32
7.69
4.67
2.22
0.03
-2.35
-5.27
-8.79
-12.7
-16.58
-19.99
-22.69
-24.76
-26.62
-28.87
-32.11
-36.69
-42.51
-48.96
-54.95
-59.14
-60.23
-57.42
-50.62
-40.58
-28.68
-16.49
-5.4
3.74
10.66
15.58
18.89
21.01
22.22
22.65
22.38
21.53
20.31
19.07
18.22
18.13
18.94
20.53
22.46
24.24
25.49
26.11
26.26
26.18
25.94
25.44
24.38
22.51
19.82
16.63
13.41
10.57
8.28
6.3
4.24
1.67
-1.65
-5.64
-9.95
-14.16
-17.86
-20.96
-23.63
-26.27
-29.4
-33.4
-38.44
-44.37
-50.64
-56.38
-60.51
-61.91
-59.73
-53.7
-44.27
-32.59
-20.21
-8.59
1.26
8.89
14.41
18.14
20.45
21.61
21.86
21.48
20.82
20.24
20.0
20.22
20.84
21.69
22.55
23.31
23.89
24.3
24.62
24.89
25.13
25.21
24.91
23.96
22.18
19.58
16.44
13.15
10.08
7.38
4.94
2.38
-0.65
-4.4
-8.75
-13.35
-17.68
-21.33
-24.18
-26.48
-28.75
-31.55
-35.36
-40.32
-46.17
-52.24
-57.47
-60.64
-60.59
-56.65
-48.81
-37.86
-25.2
-12.41
-0.84
8.76
16.22
21.74
25.65
28.17
29.34
29.24
28.09
26.31
24.4
22.84
21.98
21.92
22.59
23.8
25.33
26.98
28.53
29.79
30.47
30.37
29.35
27.4
24.71
21.57
18.27
14.98
11.69
8.25
4.46
0.19
-4.56
-9.6
-14.67
-19.38
-23.36
-26.28
-28.05
-28.92
-29.53
-30.82
-33.66
-38.5
-44.94
-51.71
-57.01
-59.03
-56.72
-50.1
-40.22
-28.71
-17.24
-6.98
1.58
8.49
14.0
18.33
21.47
23.37
24.06
23.82
23.14
22.57
22.49
22.95
23.77
24.67
25.53
26.48
27.82
29.81
32.41
35.14
37.28
38.11
37.23
34.76
31.2
27.18
23.24
19.57
16.08
12.49
8.55
4.11
-0.72
-5.69
-10.47
-14.82
-18.67
-22.15
-25.58
-29.42
-34.09
-39.81
-46.41
-53.28
-59.32
-63.22
-63.75
-60.11
-52.31
-41.16
-28.09
-14.73
-2.48
7.79
15.77
21.63
25.73
28.39
29.78
30.04
29.32
27.89
26.27
24.93
24.25
24.33
24.98
25.91
26.86
27.74
28.56
29.37
30.06
30.32
29.79
28.15
25.37
21.72
17.62
13.53
9.79
6.46
3.4
0.34
-3.02
-6.84
-11.02
-15.31
-19.34
-22.86
-25.88
-28.66
-31.71
-35.55
-40.53
-46.64
-53.34
-59.5
-63.62
-64.21
-60.28
-51.76
-39.61
-25.54
-11.47
1.01
11.04
18.49
23.7
27.09
28.98
29.54
28.93
27.5
25.71
24.1
23.14
23.03
23.68
24.8
26.03
27.1
27.97
28.7
29.3
29.63
29.37
28.17
25.85
22.52
18.6
14.57
10.79
7.32
3.99
0.57
-3.02
-6.76
-10.47
-13.99
-17.23
-20.23
-23.14
-26.22
-29.8
-34.11
-39.21
-44.74
-49.89
-53.47
-54.27
-51.38
-44.59
-34.48
-22.3
-9.56
2.29
12.25
19.89
25.25
28.69
30.67
31.54
31.62
31.08
30.14
29.08
28.25
27.94
28.27
29.12
30.19
31.16
31.8
32.03
31.93
31.51
30.69
29.28
27.09
24.09
20.48
16.62
12.87
9.42
6.24
3.13
-0.19
-3.88
-7.91
-12.04
-15.95
-19.38
-22.24
-24.7
-27.14
-30.09
-34.07
-39.36
-45.87
-52.92
-59.33
-63.57
-64.2
-60.28
-51.81
-39.76
-25.77
-11.71
0.9
11.16
18.89
24.37
27.96
30.04
30.79
30.45
29.3
27.8
26.47
25.7
25.65
26.18
26.94
27.59
27.99
28.19
28.43
28.84
29.31
29.53
29.05
27.6
25.19
22.12
18.83
15.71
12.88
10.18
7.28
3.9
-0.02
-4.29
-8.57
-12.49
-15.84
-18.64
-21.08
-23.45
-26.07
-29.26
-33.33
-38.43
-44.44
-50.68
-55.93
-58.6
-57.35
-51.59
-41.87
-29.68
-16.9
-5.17
4.61
12.26
18.13
22.59
25.78
27.68
28.23
27.63
26.33
24.96
24.06
23.9
24.43
25.31
26.2
26.88
27.36
27.78
28.3
28.89
29.28
29.1
28.02
25.91
22.92
19.42
15.76
12.26
9.0
5.89
2.78
-0.45
-3.87
-7.42
-10.96
-14.33
-17.42
-20.22
-22.92
-25.8
-29.26
-33.66
-39.15
-45.49
-51.95
-57.32
-60.22
-59.48
-54.53
-45.73
-34.22
-21.62
-9.54
0.83
8.98
14.91
18.92
21.42
22.69
22.95
22.41
21.33
20.05
18.95
18.38
18.44
19.11
20.16
21.37
22.62
23.9
25.22
26.52
27.55
27.92
27.3
25.54
22.81
19.53
16.12
12.8
9.55
6.17
2.45
-1.67
-6.07
-10.5
-14.66
-18.37
-21.62
-24.55
-27.51
-30.9
-35.05
-40.07
-45.63
-50.87
-54.59
-55.53
-52.82
-46.29
-36.59
-24.96
-12.9
-1.73
7.69
14.98
20.2
23.57
25.4
25.97
25.59
24.61
23.46
22.55
22.24
22.65
23.64
24.86
25.91
26.52
26.63
26.47
26.3
26.21
26.02
25.26
23.53
20.71
17.11
13.29
9.84
7.0
4.65
2.36
-0.33
-3.62
-7.4
-11.37
-15.19
-18.71
-21.93
-24.98
-28.1
-31.53
-35.54
-40.33
-45.9
-51.84
-57.29
-60.99
-61.6
-58.23
-50.76
-39.98
-27.34
-14.55
-3.0
6.45
13.54
18.44
21.51
23.12
23.61
23.34
22.7
22.09
21.88
22.25
23.16
24.38
25.6
26.54
27.13
27.45
27.69
27.94
28.16
28.09
27.42
25.91
23.52
20.42
16.96
13.5
10.31
7.51
4.99
2.49
-0.33
-3.74
-7.75
-12.14
-16.53
-20.58
-24.11
-27.27
-30.43
-34.06
-38.54
-43.94
-49.86
-55.39
-59.26
-60.13
-57.05
-49.83
-39.15
-26.42
-13.34
-1.37
8.6
16.34
22.02
25.99
28.53
29.78
29.87
29.02
27.62
26.21
25.25
25.02
25.5
26.44
27.47
28.27
28.76
29.0
29.18
29.36
29.39
28.9
27.52
25.04
21.61
17.68
13.8
10.36
7.35
4.45
1.18
-2.76
-7.3
-12.03
-16.4
-20.03
-22.82
-25.09
-27.36
-30.18
-33.95
-38.78
-44.41
-50.1
-54.81
-57.26
-56.34
-51.45
-42.81
-31.47
-19.03
-7.13
3.0
10.79
16.31
19.97
22.29
23.62
24.09
23.77
22.82
21.49
20.19
19.31
19.12
19.65
20.74
22.06
23.3
24.17
24.52
24.29
23.53
22.36
20.88
19.22
17.39
15.34
12.98
10.19
6.92
3.19
-0.88
-5.12
-9.31
-13.3
-16.97
-20.34
-23.58
-26.98
-30.89
-35.61
-41.09
-46.82
-51.82
-54.76
-54.43
-50.12
-41.9
-30.7
-18.02
-5.52
5.47
14.19
20.51
24.7
27.18
28.33
28.44
27.71
26.43
24.93
23.63
22.89
22.9
23.6
24.75
26.04
27.18
28.07
28.67
28.95
28.8
27.99
26.28
23.57
20.02
16.03
12.11
8.6
5.54
2.67
-0.44
-4.06
-8.15
-12.39
-16.3
-19.55
-22.1
-24.33
-26.8
-30.18
-34.86
-40.89
-47.82
-54.72
-60.22
-62.87
-61.53
-55.71
-45.93
-33.42
-19.93
-7.12
3.85
12.5
18.85
23.22
25.97
27.38
27.73
27.35
26.63
25.97
25.64
25.77
26.28
27.02
27.83
28.62
29.43
30.27
31.16
31.95
32.38
32.07
30.72
28.23
24.8
20.85
16.89
13.32
10.2
7.35
4.39
1.03
-2.8
-6.88
-10.88
-14.42
-17.32
-19.7
-21.86
-24.31
-27.59
-32.12
-38.01
-44.85
-51.66
-56.98
-59.26
-57.32
-50.81
-40.38
-27.49
-13.95
-1.34
9.3
17.58
23.55
27.53
29.78
30.52
30.01
28.55
26.61
24.69
23.23
22.52
22.6
23.3
24.35
25.5
26.56
27.47
28.24
28.8
29.01
28.67
27.51
25.41
22.44
18.89
15.17
11.65
8.43
5.37
2.11
-1.66
-5.99
-10.61
-15.05
-18.86
-21.9
-24.45
-26.98
-30.03
-34.0
-38.96
-44.55
-50.14
-54.67
-56.93
-55.85
-50.81
-41.97
-30.34
-17.48
-5.03
5.7
14.02
19.87
23.58
25.6
26.36
26.2
25.43
24.31
23.09
22.02
21.26
20.94
21.11
21.75
22.75
23.87
24.88
25.47
25.48
24.83
23.52
21.64
19.27
16.47
13.31
9.88
6.27
2.62
-1.0
-4.57
-8.08
-11.5
-14.79
-17.91
-20.83
-23.68
-26.67
-30.12
-34.35
-39.45
-45.13
-50.63
-54.75
-56.16
-53.83
-47.44
-37.54
-25.48
-12.94
-1.45
8.0
15.08
19.99
23.1
24.83
25.5
25.32
24.51
23.35
22.17
21.31
20.99
21.27
22.05
23.13
24.3
25.39
26.34
27.12
27.69
27.87
27.43
26.15
23.92
20.88
17.38
13.85
10.59
7.64
4.78
1.68
-1.91
-6.03
-10.42
-14.69
-18.51
-21.74
-24.46
-27.05
-29.95
-33.62
-38.36
-44.1
-50.3
-55.91
-59.6
-60.03
-56.4
-48.7
-37.82
-25.32
-12.86
-1.8
7.14
13.82
18.5
21.54
23.25
23.8
23.43
22.43
21.23
20.3
19.99
20.43
21.46
22.81
24.18
25.39
26.42
27.35
28.24
29.0
29.38
29.09
27.85
25.61
22.53
18.98
15.29
11.7
8.27
4.88
1.36
-2.4
-6.39
-10.42
-14.23
-17.62
-20.51
-23.01
-25.42
-28.15
-31.63
-36.18
-41.76
-47.91
-53.64
-57.6
-58.5
-55.5
-48.58
-38.61
-27.08
-15.52
-5.1
3.57
10.43
15.66
19.46
21.93
23.15
23.24
22.5
21.34
20.15
19.27
18.85
18.95
19.54
20.58
21.91
23.39
24.76
25.79
26.27
26.01
24.89
22.94
20.29
17.15
13.8
10.45
7.15
3.87
0.45
-3.19
-7.0
-10.78
-14.28
-17.32
-19.92
-22.32
-24.88
-28.05
-32.12
-37.15
-42.8
-48.3
-52.49
-54.09
-52.15
-46.29
-36.99
-25.43
-13.16
-1.63
8.19
15.87
21.46
25.17
27.23
27.79
26.98
25.11
22.65
20.25
18.51
17.85
18.34
19.75
21.62
23.47
25.02
26.12
26.79
26.99
26.64
25.56
23.67
21.02
17.89
14.68
11.72
9.17
6.83
4.29
1.12
-2.88
-7.63
-12.71
-17.61
-21.93
-25.57
-28.74
-31.94
-35.67
-40.29
-45.72
-51.5
-56.62
-59.82
-59.92
-56.16
-48.6
-38.1
-26.06
-14.03
-3.25
5.63
12.48
17.54
21.1
23.38
24.54
24.75
24.31
23.6
23.05
22.92
23.35
24.26
25.49
26.86
28.26
29.67
31.02
32.2
32.92
32.84
31.69
29.37
26.09
22.25
18.38
14.82
11.67
8.7
5.5
1.74
-2.68
-7.5
-12.31
-16.67
-20.34
-23.37
-26.1
-28.94
-32.3
-36.44
-41.38
-46.76
-51.86
-55.58
-56.75
-54.45
-48.39
-39.06
-27.65
-15.68
-4.56
4.74
11.84
16.89
20.26
22.4
23.69
24.41
24.85
25.22
25.7
26.4
27.36
28.53
29.77
30.94
31.89
32.53
32.85
32.86
32.6
32.0
30.93
29.2
26.7
23.47
19.75
15.94
12.38
9.24
6.42
3.6
0.43
-3.25
-7.4
-11.66
-15.61
-18.89
-21.37
-23.26
-25.03
-27.3
-30.61
-35.25
-40.98
-46.99
-52.02
-54.64
-53.72
-48.83
-40.4
-29.61
-17.98
-6.9
2.66
10.23
15.78
19.53
21.78
22.86
23.07
22.72
22.14
21.64
21.48
21.78
22.59
23.81
25.28
26.78
28.16
29.33
30.31
31.01
31.23
30.68
29.14
26.59
23.25
19.58
15.97
12.64
9.51
6.36
2.96
-0.74
-4.61
-8.42
-11.95
-15.13
-18.1
-21.06
-24.32
-28.14
-32.69
-37.89
-43.34
-48.23
-51.45
-51.91
-48.8
-42.01
-32.17
-20.62
-8.91
1.59
10.05
16.23
20.41
23.07
24.62
25.28
25.12
24.23
22.85
21.44
20.48
20.39
21.3
23.03
25.17
27.22
28.82
29.74
29.88
29.24
27.82
25.68
22.91
19.74
16.42
13.2
10.17
7.23
4.15
0.7
-3.27
-7.65
-12.13
-16.37
-20.15
-23.54
-26.81
-30.4
-34.67
-39.85
-45.85
-52.12
-57.67
-61.27
-61.67
-58.03
-50.3
-39.31
-26.53
-13.64
-1.99
7.67
15.21
20.86
24.92
27.65
29.19
29.68
29.35
28.57
27.73
27.21
27.2
27.65
28.34
28.94
29.18
28.96
28.4
27.67
26.9
26.06
24.87
23.08
20.56
17.48
14.21
11.17
8.51
6.13
3.71
0.87
-2.54
-6.44
-10.48
-14.27
-17.6
-20.47
-23.17
-26.14
-29.83
-34.51
-40.2
-46.37
-52.06
-55.96
-56.81
-53.79
-46.81
-36.68
-24.85
-12.94
-2.28
6.37
12.83
17.34
20.22
21.8
22.34
22.12
21.49
20.89
20.67
21.02
21.93
23.16
24.44
25.51
26.3
26.92
27.55
28.32
29.2
29.93
30.09
29.32
27.42
24.5
20.94
17.2
13.61
10.29
7.1
3.8
0.23
-3.61
-7.56
-11.4
-14.92
-18.03
-20.78
-23.32
-25.93
-28.95
-32.78
-37.58
-43.12
-48.62
-52.82
-54.34
-52.17
-46.14
-36.96
-26.03
-14.95
-4.95
3.3
9.76
14.67
18.3
20.81
22.26
22.77
22.61
22.17
21.86
21.93
22.4
23.13
23.91
24.64
25.31
25.96
26.58
26.98
26.9
26.03
24.27
21.78
18.86
15.86
13.03
10.43
7.96
5.42
2.69
-0.3
-3.46
-6.73
-9.96
-13.1
-16.18
-19.24
-22.45
-26.01
-30.14
-34.93
-40.19
-45.3
-49.32
-51.12
-49.78
-44.94
-36.96
-26.86
-15.98
-5.61
3.39
10.62
16.08
19.99
22.6
24.09
24.67
24.59
24.14
23.63
23.35
23.49
24.06
24.98
26.04
27.08
27.92
28.49
28.69
28.45
27.64
26.14
23.92
21.09
17.9
14.67
11.61
8.74
5.92
2.86
-0.62
-4.56
-8.85
-13.2
-17.32
-20.95
-24.01
-26.58
-28.99
-31.72
-35.31
-40.08
-45.95
-52.2
-57.62
-60.74
-60.34
-55.83
-47.5
-36.38
-23.95
-11.66
-0.65
8.45
15.5
20.66
24.24
26.52
27.74
28.05
27.64
26.77
25.71
24.81
24.29
24.22
24.51
24.96
25.39
25.71
25.93
26.08
26.13
25.9
25.17
23.71
21.48
18.65
15.55
12.57
10.0
7.89
6.05
4.1
1.68
-1.41
-5.14
-9.24
-13.33
-17.07
-20.3
-23.11
-25.84
-28.96
-32.91
-37.93
-43.82
-49.87
-54.9
-57.6
-56.82
-52.03
-43.5
-32.24
-19.75
-7.45
3.54
12.61
19.59
24.57
27.73
29.28
29.47
28.59
27.07
25.38
23.95
23.06
22.76
22.87
23.12
23.29
23.29
23.24
23.33
23.59
23.87
23.82
23.03
21.22
18.4
14.87
11.15
7.68
4.76
2.37
0.27
-1.91
-4.47
-7.51
-10.87
-14.26
-17.37
-20.05
-22.38
-24.61
-27.15
-30.37
-34.52
-39.58
-45.18
-50.48
-54.36
-55.63
-53.41
-47.49
-38.42
-27.36
-15.73
-4.79
4.64
12.15
17.65
21.24
23.08
23.42
22.68
21.33
19.82
18.55
17.69
17.31
17.36
17.79
18.56
19.62
20.79
21.88
22.68
22.98
22.66
21.67
20.03
17.79
15.05
11.96
8.7
5.42
2.21
-0.94
-4.09
-7.35
-10.74
-14.17
-17.48
-20.5
-23.16
-25.53
-27.89
-30.6
-34.07
-38.52
-43.8
-49.19
-53.5
-55.35
-53.64
-47.97
-38.9
-27.84
-16.45
-6.17
2.22
8.63
13.42
17.04
19.75
21.55
22.39
22.33
21.66
20.87
20.42
20.59
21.37
22.51
23.67
24.63
25.37
26.04
26.77
27.53
28.05
27.93
26.78
24.52
21.34
17.68
14.02
10.69
7.78
5.13
2.4
-0.68
-4.24
-8.15
-12.1
-15.74
-18.83
-21.39
-23.68
-26.17
-29.29
-33.37
-38.54
-44.63
-51.17
-57.31
-61.87
-63.52
-61.18
-54.49
-43.99
-31.13
-17.75
-5.58
4.33
11.68
16.79
20.19
22.32
23.44
23.63
23.08
22.13
21.27
20.99
21.57
22.94
24.72
26.43
27.68
28.35
28.63
28.84
29.19
29.6
29.71
28.99
27.14
24.19
20.55
16.82
13.48
10.75
8.49
6.39
4.06
1.33
-1.82
-5.26
-8.78
-12.27
-15.68
-19.11
-22.69
-26.63
-31.18
-36.5
-42.56
-48.96
-54.86
-59.07
-60.35
-57.77
-51.12
-41.12
-29.17
-16.98
-5.96
3.04
9.89
14.91
18.51
20.99
22.4
22.75
22.19
21.07
19.91
19.22
19.31
20.18
21.69
23.51
25.43
27.3
29.05
30.59
31.77
32.33
32.01
30.64
28.2
24.93
21.13
17.1
13.04
8.98
4.83
0.5
-3.99
-8.55
-12.97
-17.09
-20.8
-24.13
-27.26
-30.47
-34.07
-38.3
-43.16
-48.23
-52.6
-55.06
-54.41
-49.91
-41.61
-30.42
-17.85
-5.51
5.39
14.26
21.02
25.91
29.12
30.76
30.92
29.85
27.99
25.88
23.99
22.59
21.78
21.53
21.76
22.41
23.34
24.31
24.97
25.01
24.23
22.67
20.49
17.88
14.95
11.73
8.18
4.29
0.17
-4.01
-8.01
-11.68
-14.97
-17.95
-20.79
-23.65
-26.78
-30.42
-34.81
-39.95
-45.47
-50.49
-53.74
-53.95
-50.25
-42.61
-31.87
-19.46
-6.94
4.43
13.91
21.25
26.53
29.96
31.78
32.29
31.79
30.63
29.09
27.48
26.05
24.98
24.43
24.45
24.95
25.67
26.34
26.66
26.44
25.56
24.01
21.84
19.2
16.32
13.42
10.61
7.9
5.14
2.11
-1.3
-5.05
-8.91
-12.61
-15.94
-18.9
-21.67
-24.56
-27.93
-32.01
-36.9
-42.4
-48.01
-52.81
-55.67
-55.44
-51.4
-43.53
-32.62
-20.09
-7.55
3.69
12.84
19.76
24.69
27.98
29.91
30.68
30.43
29.47
28.25
27.26
26.91
27.31
28.28
29.46
30.5
31.14
31.41
31.44
31.32
30.98
30.21
28.73
26.38
23.3
19.75
16.15
12.75
9.63
6.62
3.54
0.24
-3.29
-6.92
-10.52
-13.98
-17.29
-20.55
-23.92
-27.61
-31.88
-36.93
-42.75
-48.94
-54.55
-58.23
-58.57
-54.62
-46.37
-34.82
-21.69
-8.88
2.13
10.63
16.62
20.52
22.83
23.83
23.69
22.6
20.9
19.08
17.64
16.87
16.79
17.24
18.14
19.62
22.04
25.73
30.63
36.16
41.24
44.67
45.6
43.81
39.76
34.27
28.16
21.94
15.73
9.49
3.21
-2.91
-8.51
-13.26
-17.04
-20.01
-22.57
-25.19
-28.3
-32.15
-36.81
-42.18
-47.83
-52.98
-56.6
-57.51
-54.84
-48.37
-38.64
-26.87
-14.63
-3.34
6.11
13.35
18.46
21.75
23.47
23.89
23.28
21.98
20.42
19.07
18.29
18.26
18.95
20.23
21.86
23.63
25.3
26.66
27.42
27.37
26.38
24.45
21.73
18.53
15.14
11.78
8.57
5.44
2.25
-1.13
-4.75
-8.55
-12.37
-16.01
-19.35
-22.41
-25.37
-28.55
-32.28
-36.78
-41.96
-47.31
-51.89
-54.46
-53.88
-49.46
-41.28
-30.26
-17.9
-5.79
4.8
13.25
19.48
23.79
26.52
27.9
28.13
27.41
26.15
24.84
23.95
23.75
24.21
25.1
26.07
26.88
27.4
27.69
27.76
27.61
27.19
26.37
25.06
23.22
20.88
18.1
15.01
11.74
8.42
5.14
1.94
-1.17
-4.3
-7.45
-10.64
-13.78
-16.79
-19.64
-22.44
-25.44
-28.99
-33.45
-38.96
-45.31
-51.73
-57.02
-59.78
-58.81
-53.64
-44.67
-33.15
-20.73
-8.97
1.12
9.2
15.41
20.11
23.56
25.9
27.16
27.41
26.87
25.96
25.1
24.64
24.75
25.38
26.37
27.49
28.57
29.53
30.32
30.81
30.82
30.09
28.37
