13.42
11.63
9.31
6.69
4.0
1.4
-0.99
-3.17
-5.19
-7.2
-9.38
-11.82
-14.47
-17.09
-19.37
-21.02
-22.04
-22.73
-23.64
-25.39
-28.35
-32.56
-37.55
-42.47
-46.22
-47.68
-46.05
-41.04
-33.06
-23.08
-12.44
-2.45
5.89
12.13
16.33
18.84
20.14
20.55
20.33
19.65
18.75
17.91
17.41
17.45
18.01
18.87
19.73
20.37
20.68
20.78
20.84
20.95
21.04
20.89
20.23
18.87
16.77
14.04
10.91
7.64
4.43
1.38
-1.52
-4.32
-7.15
-10.1
-13.15
-16.19
-18.98
-21.27
-22.93
-24.06
-24.96
-26.16
-28.14
-31.21
-35.29
-39.8
-43.76
-45.96
-45.35
-41.35
-34.1
-24.48
-13.8
-3.45
5.49
12.47
17.4
20.52
22.14
22.57
22.09
20.96
19.47
18.02
16.91
16.33
16.28
16.6
17.03
17.34
17.47
17.47
17.55
17.82
18.21
18.49
18.29
17.34
15.54
13.05
10.16
7.21
4.43
1.93
-0.28
-2.33
-4.41
-6.71
-9.29
-12.16
-15.12
-17.96
-20.53
-22.79
-24.95
-27.3
-30.19
-33.81
-38.12
-42.75
-46.96
-49.77
-50.12
-47.22
-40.86
-31.54
-20.47
-9.22
0.79
8.64
14.1
17.57
19.65
20.94
21.77
22.3
22.54
22.6
22.58
22.64
22.81
23.06
23.26
23.35
23.28
23.06
22.76
22.41
22.02
21.58
20.95
19.95
18.36
16.04
13.05
9.66
6.33
3.48
1.28
-0.4
-2.01
-4.02
-6.78
-10.32
-14.38
-18.53
-22.39
-25.69
-28.42
-30.72
-32.9
-35.29
-38.15
-41.54
-45.17
-48.43
-50.33
-49.88
-46.3
-39.45
-29.87
-18.76
-7.53
2.55
10.71
16.66
20.55
22.74
23.62
23.56
22.87
21.85
20.75
19.79
19.11
18.78
18.82
19.18
19.76
20.4
20.97
21.41
21.75
22.08
22.4
22.56
22.26
21.19
19.11
16.07
12.37
8.48
4.89
1.89
-0.47
-2.43
-4.38
-6.72
-9.61
-12.96
-16.42
-19.5
-21.86
-23.45
-24.55
-25.71
-27.52
-30.39
-34.35
-38.92
-43.18
-45.89
-45.9
-42.41
-35.39
-25.58
-14.29
-3.04
6.88
14.69
20.09
23.2
24.31
23.76
21.98
19.49
16.81
14.44
12.72
11.7
11.24
11.1
11.08
11.13
11.32
11.76
12.5
13.49
14.46
15.06
14.96
13.99
12.15
9.69
6.9
4.08
1.4
-1.14
-3.63
-6.21
-8.96
-11.89
-14.87
-17.77
-20.41
-22.69
-24.62
-26.36
-28.17
-30.41
-33.27
-36.64
-40.04
-42.61
-43.35
-41.4
-36.38
-28.59
-18.98
-8.87
0.45
8.11
13.78
17.64
20.1
21.6
22.42
22.67
22.42
21.83
21.12
20.52
20.17
19.99
19.88
19.7
19.41
19.04
18.65
18.26
17.81
17.2
16.3
15.06
13.41
11.35
8.94
6.36
3.93
1.9
0.41
-0.71
-1.86
-3.52
-5.93
-8.99
-12.28
-15.32
-17.83
-19.84
-21.71
-23.85
-26.63
-30.16
-34.29
-38.54
-42.18
-44.31
-43.94
-40.45
-33.71
-24.31
-13.46
-2.6
6.94
14.36
19.43
22.46
23.94
24.4
24.25
23.73
23.0
22.15
21.29
20.39
19.45
18.35
17.08
15.73
14.53
13.81
13.77
14.29
14.89
14.91
13.66
10.83
6.61
1.64
-3.19
-7.14
-9.78
-11.19
-11.78
-12.1
-12.7
-13.9
-15.78
-18.18
-20.79
-23.22
-25.2
-26.64
-27.72
-28.83
-30.45
-32.88
-36.01
-39.26
-41.61
-41.94
-39.36
-33.62
-25.21
-15.26
-5.22
3.64
10.5
15.2
18.03
19.6
20.49
21.14
21.77
22.49
23.3
24.16
25.03
25.82
26.5
27.05
27.54
28.13
28.95
30.07
31.41
32.66
33.34
32.93
30.96
27.27
22.06
15.88
9.45
3.51
-1.48
-5.38
-8.4
-10.93
-13.37
-15.93
-18.61
-21.2
-23.45
-25.17
-26.4
-27.34
-28.3
-29.6
-31.43
-33.78
-36.39
-38.69
-39.89
-39.08
-35.57
-29.19
-20.36
-10.1
0.24
9.44
16.68
21.68
24.6
25.87
25.97
25.3
24.17
22.83
21.49
20.32
19.44
18.84
18.47
18.23
18.01
17.75
17.42
17.0
16.46
15.72
14.66
13.24
11.43
9.29
6.87
4.19
1.27
-1.86
-5.12
-8.34
-11.36
-14.05
-16.33
-18.17
-19.67
-20.97
-22.36
-24.17
-26.71
-30.12
-34.14
-38.08
-40.88
-41.4
-38.88
-33.28
-25.25
-16.05
-7.08
0.62
6.56
10.84
13.91
16.21
18.05
19.52
20.58
21.25
21.61
21.79
21.9
21.95
21.89
21.68
21.38
21.14
21.17
21.56
22.21
22.75
22.73
21.77
19.79
17.03
13.85
10.67
7.66
4.76
1.8
-1.38
-4.78
-8.27
-11.65
-14.77
-17.64
-20.35
-23.02
-25.73
-28.48
-31.3
-34.24
-37.3
-40.41
-43.23
-45.18
-45.5
-43.51
-38.85
-31.7
-22.76
-13.07
-3.71
4.55
11.27
16.36
19.97
22.3
23.53
23.83
23.39
22.52
21.61
21.04
21.02
21.53
22.28
22.88
23.04
22.68
21.96
21.19
20.57
20.13
19.61
18.64
16.89
14.29
11.06
7.64
4.5
1.95
0.07
-1.33
-2.62
-4.17
-6.2
-8.75
-11.66
-14.67
-17.54
-20.12
-22.38
-24.46
-26.56
-28.94
-31.79
-35.07
-38.39
-40.95
-41.76
-39.95
-35.12
-27.61
-18.42
-8.91
-0.26
6.83
12.25
16.29
19.32
21.56
23.03
23.68
23.55
22.84
21.95
21.24
20.92
20.96
21.13
21.15
20.85
20.23
19.44
18.68
18.04
17.48
16.79
15.73
14.13
12.0
9.43
6.66
3.91
1.38
-0.87
-2.86
-4.78
-6.87
-9.32
-12.18
-15.31
-18.47
-21.39
-23.93
-26.13
-28.17
-30.29
-32.72
-35.53
-38.55
-41.33
-43.16
-43.17
-40.67
-35.38
-27.61
-18.3
-8.7
-0.06
6.77
11.42
14.03
15.05
15.05
14.54
13.85
13.14
12.44
11.76
11.13
10.67
10.48
10.61
10.97
11.4
11.8
12.15
12.5
12.86
13.12
12.95
12.05
10.22
7.59
4.6
1.74
-0.65
-2.54
-4.23
-6.18
-8.74
-12.0
-15.8
-19.78
-23.58
-26.97
-29.93
-32.62
-35.4
-38.66
-42.75
-47.77
-53.38
-58.78
-62.7
-63.79
-61.07
-54.32
-44.33
-32.72
-21.51
-12.34
-6.07
-2.46
-0.52
1.02
3.05
5.79
8.76
11.23
12.78
13.52
14.17
15.54
18.26
22.61
28.79
37.21
48.52
63.37
81.85
103.12
125.38
146.34
163.72
175.56
180.29
176.53
163.24
140.21
108.72
71.96
34.75
2.46
-20.32
-31.17
-30.66
-22.17
-10.99
-2.6
-0.98
-7.41
-20.22
-35.78
-50.03
-60.1
-64.9
-64.86
-61.15
-54.82
-46.56
-37.14
-27.76
-20.17
-16.09
-16.31
-20.24
-25.95
-31.01
-33.47
-32.63
-29.2
-24.89
-21.72
-21.28
-24.29
-30.43
-38.46
-46.63
-53.24
-57.19
-58.21
-56.79
-53.85
-50.14
-46.06
-41.65
-36.85
-31.9
-27.23
-23.42
-20.87
-19.65
-19.45
-19.78
-20.23
-20.56
-20.76
-20.86
-20.93
-21.09
-21.34
-21.56
-21.43
-20.59
-18.75
-15.89
-12.16
-8.13
-4.72
-2.91
-3.3
-5.67
-8.99
-11.53
-11.38
-6.67
3.19
17.2
33.15
48.63
62.13
73.38
83.14
92.51
102.84
114.31
125.81
135.54
142.16
145.48
146.32
146.0
145.83
147.67
152.44
159.46
166.22
168.95
163.63
146.96
117.53
71.85
13.54
-47.31
-98.48
-131.95
-147.02
-148.19
-141.05
-129.58
-115.83
-99.9
-82.35
-64.91
-49.88
-38.68
-31.16
-25.74
-20.2
-12.86
-2.39
11.07
25.98
40.19
52.1
60.95
66.96
71.21
74.55
77.81
81.12
83.97
85.71
86.15
85.35
84.1
83.47
84.28
87.14
92.09
98.72
106.37
114.61
122.57
129.89
136.42
141.95
146.22
148.63
148.16
143.06
136.0
127.59
118.2
108.11
97.5
86.56
75.49
64.46
53.58
42.95
31.95
20.15
7.42
-6.06
-19.76
-32.73
-43.92
-52.24
-56.85
-57.83
-55.51
-50.45
-43.35
-34.94
-25.92
-17.06
-9.12
-2.89
0.61
0.64
-3.18
-10.89
-22.18
-36.37
-52.22
-67.98
-81.51
-90.99
-95.24
-94.22
-89.09
-81.76
-74.17
-67.59
-62.32
-57.85
-53.44
-48.43
-42.49
-35.65
-28.15
-20.37
-12.82
-6.1
-0.85
2.39
3.39
2.3
-0.37
-3.94
-7.85
-11.88
-16.23
-21.38
-27.77
-35.46
-44.01
-52.63
-60.47
-67.07
-72.57
-77.62
-83.16
-90.04
-98.75
-109.22
-120.62
-131.31
-138.97
-141.04
-135.39
-121.14
-99.07
-71.59
-42.07
-14.07
9.7
27.65
39.38
45.42
46.66
43.95
38.0
29.61
20.29
12.47
9.05
12.45
23.3
39.91
58.58
75.15
86.57
91.89
92.13
89.17
84.46
78.45
70.82
61.3
50.25
38.75
27.95
18.41
9.72
0.87
-9.2
-21.07
-34.34
-47.88
-60.39
-70.98
-79.68
-87.47
-95.97
-106.81
-120.88
-137.77
-155.5
-170.85
-180.13
-180.32
-170.17
-150.8
-125.45
-98.51
-74.23
-55.53
-43.56
-38.01
-37.81
-41.87
-49.41
-59.82
-72.41
-86.02
-99.14
-110.15
-117.73
-121.19
-120.5
-116.25
-109.34
-100.9
-92.06
-83.86
-77.18
-72.55
-70.07
-69.38
-69.84
-70.82
-71.89
-73.07
-74.64
-76.97
-80.25
-84.22
-88.34
-91.92
-94.4
-95.56
-95.68
-95.52
-96.19
-98.74
-103.67
-110.35
-116.69
-119.32
-114.58
-99.8
-74.53
-40.96
-3.36
33.32
64.95
89.24
105.88
116.06
121.68
124.77
126.98
129.35
132.1
134.66
136.02
135.5
133.51
132.05
134.13
142.81
159.92
185.23
216.52
250.13
282.03
308.38
326.22
333.65
330.05
316.22
294.42
267.97
240.44
214.8
192.65
174.17
158.54
144.78
132.37
121.41
112.24
104.76
97.78
89.24
76.95
59.84
39.0
17.71
0.69
-7.58
-4.54
9.5
31.26
55.59
76.88
90.65
94.39
87.59
71.25
46.99
16.53
-18.35
-55.56
-92.48
-126.33
-154.89
-177.44
-195.18
-210.62
-226.36
-243.69
-262.07
-279.5
-293.6
-302.94
-307.43
-308.16
-306.47
-303.25
-298.55
-291.91
-282.84
-271.42
-258.59
-246.06
-235.82
-229.53
-227.91
-230.36
-235.1
-239.85
-242.66
-242.79
-240.88
-238.71
-238.33
-241.12
-247.08
-254.58
-260.62
-261.47
-253.53
-234.04
-201.77
-157.51
-104.16
-46.48
9.83
59.32
98.19
125.0
140.82
148.34
150.68
150.37
148.85
146.68
144.05
141.35
139.04
137.38
136.09
134.35
131.34
126.87
121.62
116.85
113.76
112.61
112.59
111.99
109.0
102.44
92.12
78.8
63.7
48.03
32.69
18.2
4.89
-7.04
-17.44
-26.31
-33.96
-40.96
-47.9
-55.16
-62.62
-69.59
-75.06
-77.96
-77.46
-73.06
-64.52
-51.58
-33.87
-10.98
17.07
49.36
83.98
118.4
150.16
177.36
198.77
213.2
219.21
215.21
200.39
176.07
146.21
116.69
93.3
79.36
74.4
74.68
75.19
71.89
63.13
49.44
32.47
13.96
-4.68
-21.97
-35.98
-44.58
-46.4
-41.99
-34.23
-27.65
-26.63
-33.53
-47.66
-65.48
-82.26
-94.0
-98.97
-98.21
-94.85
-92.89
-95.66
-104.75
-119.45
-136.89
-152.71
-162.37
-162.48
-151.94
-132.33
-107.34
-81.48
-58.61
-40.95
-28.94
-21.85
-18.69
-18.69
-21.32
-25.86
-31.1
-35.35
-37.01
-35.11
-29.65
-21.42
-11.3
0.31
13.7
29.53
48.18
69.17
91.07
111.85
129.68
143.46
153.0
158.73
161.21
160.83
157.7
151.99
144.08
134.57
123.98
112.48
99.6
84.23
65.02
40.99
12.47
-18.53
-48.38
-72.46
-86.26
-86.46
-71.68
-42.69
-2.15
45.94
96.79
145.37
186.95
217.66
235.28
239.6
232.37
216.66
195.84
172.68
149.02
125.75
103.22
81.49
60.49
40.02
19.87
0.37
-17.2
-30.43
-36.53
-33.44
-20.86
-0.81
22.76
44.78
60.04
63.77
52.51
25.2
-15.36
-61.79
-103.14
-127.93
-128.38
-103.94
-62.29
-16.88
18.01
32.46
23.86
-3.17
-39.95
-77.83
-111.29
-138.85
-161.58
-180.72
-195.75
-204.13
-202.64
-189.41
-165.58
-135.25
-103.88
-76.09
-54.09
-37.4
-23.88
-11.37
1.13
13.03
22.82
29.06
31.44
31.07
30.12
30.86
34.63
41.19
48.66
54.32
55.65
51.4
42.01
29.31
15.66
2.9
-8.25
-18.28
-28.28
-39.29
-51.62
-64.83
-77.84
-89.52
-99.17
-106.72
-112.73
-118.29
-124.69
-133.25
-144.92
-159.94
-177.33
-194.62
-207.98
-213.12
-206.52
-186.8
-155.45
-116.68
-76.24
-39.74
-11.2
7.92
18.58
23.42
25.56
27.61
31.09
36.4
43.21
50.88
58.88
66.94
74.97
82.85
90.4
97.41
103.74
109.38
114.38
118.7
122.14
124.39
125.17
124.42
122.31
119.07
114.84
109.51
102.86
94.68
85.03
74.31
63.17
52.36
42.41
33.48
25.18
16.52
6.05
-7.62
-25.12
-45.51
-65.95
-82.14
-89.49
-84.84
-67.8
-41.02
-9.48
21.24
46.75
64.83
75.55
80.41
81.21
79.33
75.57
70.52
64.92
59.93
56.72
56.11
58.21
62.35
67.45
72.49
76.85
80.39
83.23
85.37
86.47
85.91
83.03
77.53
69.65
60.16
50.11
40.42
31.6
23.56
15.83
7.89
-0.56
-9.34
-17.86
-25.48
-31.86
-37.21
-42.4
-48.71
-57.46
-69.39
-84.12
-99.76
-113.06
-120.05
-117.27
-103.04
-78.2
-46.16
-11.81
19.87
45.21
62.63
72.45
76.2
75.65
72.25
66.95
60.47
53.6
47.34
42.71
40.48
40.91
43.58
47.6
51.9
55.56
58.01
59.03
58.64
56.9
53.96
49.84
44.65
38.49
31.5
23.74
15.24
6.12
-3.38
-12.8
-21.57
-29.2
-35.44
-40.49
-44.89
-49.45
-55.08
-62.6
-72.48
-84.47
-97.23
-108.23
-114.14
-111.68
-98.91
-76.14
-46.13
-13.31
17.55
42.74
60.41
70.59
74.56
74.04
70.58
65.33
59.13
52.7
46.78
42.12
39.34
38.77
40.28
43.3
46.95
50.3
52.54
53.24
52.25
49.62
45.52
40.09
33.59
26.39
18.96
11.78
5.12
-1.1
-7.25
-13.8
-21.07
-28.99
-37.11
-44.76
-51.37
-56.75
-61.32
-66.06
-72.31
-81.22
-93.09
-106.75
-119.43
-127.26
-126.49
-114.89
-92.74
-62.99
-30.28
0.54
25.91
44.28
56.03
62.58
65.49
65.89
64.4
61.51
57.84
54.26
51.71
50.82
51.65
53.73
56.28
58.59
60.32
61.53
62.46
63.27
63.74
63.35
61.39
57.4
51.34
43.72
35.38
27.22
19.86
13.43
7.66
1.96
-4.15
-10.83
-17.79
-24.45
-30.2
-34.7
-38.15
-41.22
-45.0
-50.65
-59.02
-70.19
-83.03
-95.07
-102.73
-102.28
-91.03
-68.44
-36.63
0.13
36.74
68.88
94.07
112.07
124.23
132.52
138.65
143.64
148.03
152.36
157.54
164.84
175.59
190.73
210.52
234.47
261.59
290.74
320.91
350.95
379.02
402.1
416.18
417.37
403.33
374.44
333.91
286.58
237.15
188.56
141.47
94.85
47.4
-1.35
-50.59
-98.77
-144.54
-187.65
-229.03
-270.4
-313.39
-358.82
-406.38
-454.78
-502.08
-545.77
-582.55
-608.02
-617.01
-604.74
-568.72
-510.43
-435.87
-354.27
-275.51
-207.13
-152.48
-110.74
-78.62
-52.69
-30.99
-13.29
-0.21
8.06
12.53
15.37
18.85
24.44
32.14
40.79
48.85
55.2
59.59
62.58
65.02
67.49
70.16
72.86
75.32
77.38
79.03
80.23
80.87
80.67
79.47
77.56
75.79
75.31
76.97
80.8
85.67
89.66
90.61
86.94
78.24
65.43
50.61
36.7
26.82
23.47
27.88
39.5
56.1
74.24
90.46
102.12
108.17
108.97
105.73
99.69
91.73
82.35
71.83
60.56
49.07
37.98
27.83
18.99
11.92
7.12
4.97
5.36
7.3
8.86
7.75
2.17
-8.36
-22.68
-38.31
-52.47
-63.01
-69.06
-71.16
-70.73
-69.43
-68.69
-69.39
-71.89
-75.98
-80.85
-85.17
-87.37
-86.22
-81.32
-73.5
-64.61
-56.86
-51.86
-49.85
-49.42
-48.03
-42.86
-31.92
-14.78
7.23
31.51
55.03
75.27
90.77
101.22
107.07
108.96
107.38
102.54
94.73
84.45
72.6
60.29
48.46
37.65
27.95
19.2
11.28
4.3
-1.48
-5.9
-9.22
-12.09
-15.41
-19.85
-25.52
-31.92
-38.22
-43.69
-48.05
-51.5
-54.48
-57.35
-60.06
-62.08
-62.72
-61.4
-57.99
-53.02
-47.47
-42.61
-39.73
-39.81
-43.36
-50.18
-59.12
-68.13
-74.49
-75.48
-69.28
-55.78
-36.8
-15.69
3.72
18.38
26.84
29.39
27.58
23.36
18.3
13.35
8.8
4.64
0.79
-2.83
-6.33
-9.92
-13.84
-18.3
-23.15
-27.91
-31.86
-34.41
-35.49
-35.68
-36.07
-37.71
-41.19
-46.3
-52.22
-57.83
-62.2
-64.93
-66.17
-66.44
-66.33
-66.25
-66.23
-65.81
-64.14
-60.24
-53.37
-43.48
-31.41
-18.79
-7.5
1.19
7.4
12.92
20.69
33.75
53.78
80.34
110.75
140.97
167.01
186.11
197.27
200.98
198.49
191.1
179.78
165.39
149.0
132.09
116.26
102.63
91.35
81.4
71.08
58.86
44.21
27.99
12.06
-1.6
-11.9
-19.03
-24.36
-29.66
-36.09
-43.67
-51.33
-57.46
-60.92
-61.47
-59.9
-57.59
-55.83
-55.32
-56.11
-57.85
-60.16
-62.98
-66.62
-71.68
-78.86
-88.76
-101.59
-116.76
-132.49
-145.57
-151.99
-148.03
-131.79
-104.17
-68.9
-31.41
2.86
30.09
48.85
59.77
64.59
65.05
62.31
56.88
49.16
39.87
30.13
21.38
14.77
10.83
9.29
9.21
9.55
9.57
9.16
8.68
8.68
9.3
10.09
10.19
8.63
4.98
-0.45
-6.57
-12.07
-15.9
-17.81
-18.5
-19.3
-21.75
-26.93
-35.09
-45.46
-56.64
-66.89
-74.89
-80.11
-82.96
-84.73
-87.05
-91.59
-99.43
-110.75
-124.36
-137.69
-147.27
-149.55
-142.13
-124.65
-99.07
-69.01
-38.54
-10.96
11.97
30.0
43.79
54.15
61.58
66.12
67.79
66.91
64.49
62.15
61.69
64.55
71.11
80.52
90.89
100.12
106.67
110.08
110.93
110.19
108.53
105.82
101.31
94.16
84.09
71.72
58.42
45.73
34.72
25.67
18.03
10.76
2.87
-6.13
-16.08
-26.17
-35.37
-42.8
-48.19
-51.89
-54.88
-58.41
-63.69
-71.69
-82.91
-97.17
-113.22
-128.47
-139.33
-141.91
-133.33
-112.98
-83.02
-47.76
-12.27
19.21
44.36
62.77
75.39
83.44
87.77
88.76
86.6
81.78
75.25
68.39
62.55
58.76
57.36
58.04
60.01
62.34
64.3
65.54
65.98
65.66
64.54
62.28
58.36
52.26
43.72
32.97
20.86
8.72
-2.03
-10.28
-15.73
-19.08
-21.71
-25.2
-30.62
-38.12
-46.95
-55.78
-63.43
-69.26
-73.44
-76.82
-80.6
-86.03
-94.15
-105.58
-120.1
-136.28
-151.27
-161.13
-161.96
-151.17
-128.81
-97.78
-63.09
-30.21
-3.4
15.3
26.15
30.78
31.15
28.78
24.55
18.99
12.7
6.5
1.45
-1.49
-1.75
0.69
5.33
11.32
17.76
24.11
30.26
36.56
43.41
50.84
58.2
64.26
67.67
67.57
64.23
58.86
53.21
48.66
45.53
42.94
39.37
33.4
24.51
13.43
1.69
-9.06
-17.85
-24.73
-30.65
-37.09
-45.59
-57.51
-73.78
-94.59
-118.87
-143.85
-165.08
-177.25
-175.83
-158.73
-127.35
-86.39
-42.25
-1.0
33.42
59.69
78.71
92.18
101.62
107.77
110.85
111.2
109.69
107.85
107.31
109.28
114.11
121.27
129.65
137.99
145.12
150.07
152.07
150.55
145.28
136.56
125.19
112.33
99.16
86.57
74.97
64.35
54.36
44.5
34.07
22.38
8.9
-6.42
-22.83
-38.8
-52.35
-61.71
-66.0
-65.69
-62.57
-59.18
-58.23
-61.87
-71.17
-85.76
-103.54
-120.77
-132.72
-134.8
-124.12
-100.57
-67.19
-29.12
7.89
39.34
62.93
78.59
87.67
91.92
92.67
90.72
86.54
80.69
73.96
67.33
61.78
57.95
56.08
55.89
56.8
58.22
59.7
61.09
62.22
62.78
61.97
58.79
52.33
42.39
29.75
16.1
3.46
-6.47
-13.06
-16.86
-19.42
-22.55
-27.61
-34.97
-43.93
-53.13
-61.23
-67.43
-71.96
-75.83
-80.57
-87.71
-98.18
-111.9
-127.28
-141.16
-149.29
-147.58
-133.53
-107.4
-72.52
-34.23
1.76
31.14
51.86
64.08
69.35
69.62
66.71
62.1
57.14
53.04
50.77
50.78
52.9
56.42
60.38
63.93
66.44
67.75
67.87
66.94
64.97
61.85
57.46
51.78
44.98
37.47
29.75
22.22
15.05
8.13
1.19
-6.04
-13.68
-21.66
-29.76
-37.7
-45.32
-52.72
-60.23
-68.48
-78.28
-90.25
-104.41
-119.54
-132.87
-140.47
-138.32
-123.73
-96.72
-60.32
-19.8
18.89
50.96
73.88
87.51
93.32
93.45
89.76
83.72
76.37
68.7
61.68
56.28
53.17
52.62
54.37
57.6
61.24
64.18
65.52
64.84
62.21
58.0
52.71
46.62
39.78
31.94
22.91
12.71
1.67
-9.57
-20.33
-30.07
-38.52
-45.69
-51.8
-57.14
-62.14
-67.29
-73.19
-80.57
-90.09
-101.86
-114.98
-127.16
-134.96
-134.78
-124.08
-102.53
-72.43
-38.05
-4.2
25.21
47.99
63.76
73.19
77.19
76.45
71.45
62.9
52.0
40.45
30.16
22.67
18.75
18.18
19.89
22.36
24.3
24.98
24.46
23.31
22.11
21.05
19.63
17.0
12.24
5.02
-4.31
-14.74
-24.93
-33.84
-40.95
-46.5
-51.21
-56.1
-62.15
-70.14
-80.43
-92.63
-105.27
-115.64
-120.33
-116.2
-101.64
-77.47
-46.94
-14.82
14.21
36.83
51.83
59.68
61.72
59.21
53.03
43.86
32.7
21.21
11.52
5.62
4.54
7.9
13.98
20.47
25.41
28.0
28.77
29.08
30.32
33.06
36.74
39.91
40.85
38.38
32.34
23.58
13.5
3.46
-5.84
-14.55
-23.53
-33.79
-46.16
-60.95
-77.96
-96.34
-114.42
-129.55
-138.33
-137.35
-124.44
-99.71
-66.08
-28.53
7.4
37.37
59.24
73.14
80.64
83.64
83.64
81.64
78.4
74.8
71.87
70.54
71.31
74.03
77.91
81.9
85.08
86.92
87.31
86.35
83.99
79.85
73.24
63.4
50.02
33.5
15.1
-3.42
-20.45
-35.06
-47.41
-58.57
-70.16
-83.69
-100.03
-118.9
-138.65
-156.37
-168.47
-171.5
-163.29
-143.75
-115.04
-80.96
-45.81
-13.13
14.97
37.87
55.78
69.0
77.62
81.51
80.97
77.05
71.59
66.67
63.91
63.85
65.98
69.09
72.06
74.31
75.77
76.49
76.03
73.32
66.87
55.56
39.31
19.33
-2.21
-22.98
-41.35
-56.82
-70.04
-82.4
-95.41
-110.09
-126.52
-143.46
-158.29
-167.36
-166.89
-154.06
-128.34
-91.86
-49.13
-5.84
32.81
63.32
84.48
97.02
102.68
103.27
100.17
94.34
86.68
78.37
70.8
65.28
62.53
62.26
63.24
63.77
62.4
58.54
52.54
45.4
38.05
30.74
22.9
13.45
1.46
-13.2
-29.58
-45.87
-60.01
-70.41
-76.44
-78.67
-78.58
-78.17
-79.42
-83.64
-90.83
-99.42
-106.41
-108.22
-101.93
-86.43
-62.96
-34.76
-5.99
19.75
40.26
55.09
65.08
71.46
75.22
76.77
76.19
73.64
69.78
65.77
62.93
62.26
63.86
66.83
69.69
70.94
69.8
66.41
61.66
56.64
52.03
47.78
43.19
37.26
29.23
18.97
7.16
-4.91
-15.78
-24.34
-30.24
-33.85
-36.14
-38.3
-41.46
-46.46
-53.73
-63.06
-73.23
-81.99
-86.3
-83.22
-71.05
-50.22
-23.35
5.45
32.1
53.8
69.63
80.28
87.1
91.17
92.84
91.95
88.39
82.59
75.75
69.36
64.74
62.44
62.12
62.84
63.53
63.44
62.38
60.61
58.54
56.41
54.13
51.26
47.24
41.66
34.37
25.65
16.16
6.83
-1.43
-7.97
-12.72
-16.25
-19.6
-24.06
-30.69
-40.1
-52.3
-66.6
-81.46
-94.58
-103.11
-104.27
-96.3
-79.15
-54.82
-26.96
0.39
23.96
42.12
55.0
63.85
70.09
74.63
77.68
79.02
78.5
76.38
73.26
69.98
67.12
64.92
63.22
61.71
60.15
58.54
56.96
55.38
53.49
50.63
46.11
39.48
30.88
21.05
11.12
2.11
-5.44
-11.7
-17.4
-23.35
-30.03
-37.38
-44.78
-51.44
-56.83
-61.04
-64.9
-69.83
-77.41
-88.69
-103.64
-120.64
-136.48
-146.93
-148.03
-137.44
-115.49
-85.3
-51.84
-20.26
5.64
24.44
36.82
44.69
49.9
53.47
55.49
55.61
53.71
50.26
46.27
42.8
40.53
39.44
39.0
38.51
37.56
36.12
34.45
32.68
30.5
27.24
22.14
14.85
5.73
-4.19
-13.61
-21.48
-27.46
-31.99
-36.04
-40.62
-46.43
-53.5
-61.35
-69.16
-76.18
-82.08
-87.11
-92.07
-98.21
-106.82
-118.78
-133.81
-150.08
-164.2
-171.97
-169.76
-155.98
-131.92
-101.37
-69.42
-40.5
-17.1
0.63
14.21
25.57
36.0
45.65
53.85
59.68
62.69
63.1
61.83
60.13
59.26
59.99
62.47
66.17
70.06
72.86
73.4
70.97
65.37
57.01
46.7
35.44
24.17
13.66
4.38
-3.52
-10.16
-16.01
-21.8
-28.38
-36.45
-46.17
-56.95
-67.58
-76.61
-83.0
-86.57
-88.03
-88.67
-89.79
-92.26
-96.18
-100.89
-105.09
-106.94
-104.52
-96.17
-81.19
-60.21
-35.28
-9.34
14.68
34.62
49.46
59.14
64.15
65.21
63.11
58.8
53.4
48.03
43.57
40.47
38.8
38.56
39.88
42.98
48.0
54.68
62.19
69.42
75.28
79.02
80.35
79.3
76.03
70.75
63.68
55.17
45.76
36.22
27.46
20.36
15.41
12.56
11.12
9.78
7.08
1.9
-6.13
-16.52
-28.12
-39.7
-50.47
-60.4
-70.1
-80.53
-92.53
-106.56
-122.39
-138.82
-153.62
-163.63
-165.54
-157.05
-137.86
-110.18
-78.07
-46.16
-18.12
4.37
21.55
34.88
45.9
55.57
64.06
71.14
76.57
80.37
82.86
84.52
85.87
87.3
89.1
91.32
93.84
96.37
98.55
100.05
100.52
99.59
96.84
91.91
84.6
75.08
63.99
52.37
41.44
32.28
25.55
21.17
18.38
15.91
12.42
6.9
-1.15
-11.7
-24.37
-38.44
-52.81
-65.97
-76.22
-82.39
-84.47
-84.17
-84.26
-87.3
-93.91
-101.81
-106.27
-101.87
-84.86
-54.73
-14.41
31.08
76.48
117.9
153.52
183.42
208.61
230.12
248.28
262.52
271.64
274.34
269.82
257.98
239.47
215.19
185.75
151.27
111.47
66.2
15.85
-38.43
-94.83
-151.14
-204.9
-253.86
-296.29
-331.63
-360.71
-385.52
-408.28
-430.05
-449.78
-464.1
-468.48
-458.97
-433.91
-394.71
-345.31
-290.75
-235.51
-182.48
-132.78
-86.26
-42.16
0.39
42.16
83.5
123.84
161.28
192.73
214.92
225.94
226.5
220.12
211.82
206.08
205.16
208.67
214.4
219.84
223.28
224.0
221.84
216.5
207.5
194.5
177.8
158.54
138.47
119.6
103.86
92.83
87.6
88.45
94.65
104.54
115.81
126.33
134.8
140.96
145.32
148.47
150.35
150.02
146.12
137.69
124.89
109.32
93.56
80.29
71.47
67.83
69.1
74.34
82.34
91.66
100.32
105.67
104.62
94.42
73.73
43.16
5.16
-37.0
-80.32
-122.75
-163.1
-200.32
-232.87
-258.56
-275.04
-280.47
-274.25
-257.31
-231.94
-201.37
-169.16
-138.42
-111.33
-88.82
-70.56
-55.38
-41.8
-28.32
-13.62
3.34
22.85
43.72
62.69
74.76
74.74
59.6
30.67
-5.65
-39.64
-61.43
-64.6
-48.18
-16.52
22.89
62.26
95.45
118.67
129.89
128.25
113.85
88.13
54.16
16.26
-21.05
-54.34
-82.07
-104.36
-122.17
-136.5
-147.95
-156.93
-164.11
-170.51
-177.26
-185.15
-194.06
-202.58
-208.13
-207.31
-196.9
-174.95
-141.89
-101.05
-58.01
-18.91
11.55
31.45
41.7
44.96
43.98
40.61
35.65
29.56
23.11
17.57
14.39
14.47
17.8
23.42
29.93
35.98
40.66
43.62
44.86
44.55
42.75
39.48
34.85
29.41
24.2
20.56
19.51
21.15
24.36
27.13
27.38
23.88
16.62
6.62
-4.83
-16.73
-28.5
-39.68
-49.52
-56.9
-60.83
-60.99
-58.23
-54.47
-52.15
-53.29
-58.59
-66.84
-75.07
-79.25
-75.56
-61.76
-37.97
-6.89
26.98
58.81
84.88
103.58
115.52
122.75
127.42
130.79
132.86
132.75
129.73
124.1
117.35
111.65
108.74
108.93
110.95
112.59
111.84
107.97
101.78
95.09
89.7
86.42
84.56
82.29
77.57
69.18
57.47
44.29
32.18
23.13
17.63
14.42
11.17
5.88
-2.24
-12.28
-22.35
-30.72
-36.72
-41.07
-45.34
-51.18
-59.62
-70.92
-84.65
-99.88
-115.08
-127.98
-135.74
-135.46
-125.31
-105.43
-78.21
-47.71
-18.35
6.37
24.7
36.62
43.28
46.19
46.74
45.96
44.58
43.07
41.73
40.74
40.27
40.56
41.83
44.13
47.21
50.57
53.78
56.67
59.34
61.76
63.34
62.97
59.41
52.19
42.36
32.57
26.2
25.97
32.56
43.75
54.9
60.2
54.66
36.02
5.82
-31.0
-67.75
-98.5
-120.15
-133.14
-140.53
-146.02
-152.22
-159.87
-168.11
-175.3
-179.66
-179.41
-172.87
-158.96
-137.96
-112.18
-85.75
-63.34
-48.33
-41.37
-40.03
-39.74
-35.48
-23.48
-2.12
27.76
63.51
101.22
136.55
165.46
185.04
194.1
193.3
184.93
172.19
158.49
146.63
138.26
133.53
131.07
128.51
123.3
113.46
98.19
78.07
54.87
31.11
9.45
-8.08
-20.63
-28.87
-34.68
-40.51
-48.32
-58.84
-71.24
-83.62
-94.07
-101.63
-106.77
-110.96
-115.93
-122.9
-132.27
-143.71
-156.23
-168.16
-176.98
-179.56
-173.01
-155.96
-129.52
-97.41
-64.82
-36.36
-14.21
2.28
15.24
26.08
33.89
35.85
29.31
14.13
-6.33
-26.12
-39.03
-40.87
-30.61
-10.08
17.41
48.04
77.88
102.92
119.13
123.5
115.43
97.82
76.73
59.56
52.32
57.58
73.56
94.85
114.39
125.87
125.52
112.78
89.81
60.41
28.92
-0.45
-24.28
-40.41
-48.59
-50.69
-50.25
-51.26
-56.74
-67.73
-83.07
-100.11
-115.52
-126.09
-129.19
-123.17
-107.77
-84.67
-57.47
-31.08
-10.21
2.42
7.16
7.32
7.65
12.13
22.26
36.5
51.29
62.79
68.7
69.19
66.56
64.0
64.16
68.12
75.28
83.92
92.09
98.39
102.19
103.39
101.99
97.73
90.18
79.01
64.44
47.53
30.17
14.61
2.84
-4.08
-6.35
-5.38
-3.34
-2.49
-4.39
-9.53
-17.36
-26.86
-37.24
-48.61
-61.96
-78.56
-99.15
-123.08
-148.06
-170.62
-186.78
-192.98
-186.85
-167.7
-136.9
-97.77
-55.09
-14.15
20.39
45.63
60.91
67.57
68.16
65.36
61.19
56.68
52.02
47.22
42.54
38.93
37.79
40.47
47.36
57.32
67.88
75.97
79.32
77.29
71.21
63.57
56.77
52.03
48.97
46.09
41.78
35.32
27.14
18.58
10.94
4.9
0.13
-4.34
-9.54
-15.96
-23.21
-30.36
-36.4
-40.99
-44.79
-49.22
-55.89
-65.8
-79.02
-94.62
-111.11
-126.67
-139.27
-146.57
-146.09
-135.87
-115.3
-85.9
-51.31
-16.42
14.17
37.54
53.17
62.48
67.76
70.88
72.52
72.29
69.51
64.05
56.93
50.22
46.25
46.48
50.67
56.7
61.43
61.93
56.71
46.25
32.68
18.9
7.57
0.51
-1.57
1.13
7.81
17.24
27.92
37.97
45.26
47.3
41.85
27.69
5.35
-22.8
-53.29
-82.82
-109.23
-131.48
-148.85
-160.09
-163.62
-158.81
-147.59
-134.62
-125.5
-123.72
-128.03
-132.25
-127.73
-107.59
-70.34
-21.08
30.31
72.69
97.4
100.81
85.08
56.99
25.66
-0.28
-14.96
-16.26
-5.55
13.7
37.53
62.49
86.04
106.44
122.7
134.46
141.89
145.24
144.37
138.64
127.33
110.37
88.87
65.07
41.72
21.14
4.94
-5.95
-10.9
-9.68
-2.98
7.06
16.7
21.58
18.17
5.23
-15.68
-40.81
-65.77
-87.07
-103.08
-114.21
-122.31
-129.58
-137.53
-145.98
-152.9
-154.87
-148.3
-130.98
-103.12
-67.7
-29.65
5.6
33.68
52.4
61.83
63.69
60.33
53.81
45.69
37.22
29.67
24.35
22.19
23.13
25.92
28.63
29.59
28.35
25.84
23.67
23.18
24.76
27.76
30.93
32.72
31.52
25.53
13.0
-7.06
-33.76
-63.79
-91.76
-112.01
-120.81
-117.92
-106.67
-92.34
-79.92
-72.12
-69.04
-69.14
-71.03
-74.95
-83.28
-99.51
-126.4
-164.18
-209.57
-256.23
-296.48
-323.42
-332.98
-324.73
-301.57
-268.13
-229.08
-187.68
-145.47
-102.8
-59.75
-16.93
24.58
63.71
100.2
134.84
169.12
204.45
241.41
279.45
317.02
352.16
383.2
409.18
429.86
445.45
455.95
460.76
458.68
448.44
429.49
402.57
369.81
334.2
298.93
266.71
239.53
218.69
204.82
197.66
195.68
195.84
194.13
186.68
171.38
148.77
121.74
94.17
69.22
47.98
29.45
11.41
-8.18
-30.04
-53.4
-76.15
-95.27
-107.27
-108.49
-95.89
-68.07
-26.57
23.64
74.78
118.39
147.84
160.5
158.32
146.74
132.34
120.23
112.4
107.48
101.98
92.2
75.94
53.27
26.09
-3.05
-32.25
-60.9
-89.54
-119.2
-150.78
-184.77
-221.3
-260.0
-299.55
-337.35
-369.5
-391.94
-402.24
-401.17
-392.96
-383.74
-378.99
-380.94
-387.88
-395.35
-398.66
-395.21
-385.16
-370.46
-353.39
-334.53
-312.34
-284.25
-248.36
-204.49
-154.01
-98.85
-40.46
20.14
82.81
147.84
215.76
286.91
361.24
438.06
515.44
589.58
653.68
700.79
726.25
729.45
713.79
685.12
649.82
613.27
578.74
543.74
505.55
463.58
419.75
376.39
333.88
290.56
243.96
192.0
126.44
42.87
-56.01
-160.9
-261.16
-349.36
-422.16
-479.18
-521.94
-564.54
-618.06
-684.57
-756.34
-823.09
-878.3
-919.96
-948.91
-967.46
-993.34
-1039.76
-1108.31
-1188.79
-1269.67
-1345.64
-1417.19
-1486.13
-1457.15
-1275.43
-953.29
-565.76
-194.16
113.35
342.32
498.64
598.02
659.59
686.3
680.93
649.24
607.04
568.78
542.36
529.78
529.98
540.99
549.38
545.42
528.69
508.93
497.85
500.71
516.25
537.82
555.69
552.77
517.23
448.12
356.07
255.93
160.02
74.63
-0.26
-68.67
-138.34
-212.58
-287.02
-350.4
-390.74
-400.92
-381.22
-338.75
-284.23
-229.22
-180.95
-140.97
-106.36
-73.26
-39.57
-5.66
26.67
55.86
81.57
104.98
127.96
152.25
178.9
208.24
240.59
276.36
315.44
355.98
393.53
421.06
430.87
417.17
378.38
317.9
242.64
160.35
76.88
-5.21
-86.57
-169.28
-254.31
-339.67
-419.73
-486.4
-531.77
-551.0
-544.18
-516.48
-476.08
-430.96
-386.71
-345.62
-307.64
-272.32
-239.92
-211.46
-187.75
-168.38
-151.43
-134.27
-114.72
-91.97
-66.72
-40.87
-16.53
4.74
22.39
36.98
49.8
62.39
76.01
91.18
107.44
123.48
137.48
147.37
151.49
148.98
140.05
126.2
110.42
96.79
89.96
93.39
107.47
128.42
148.66
158.84
150.93
121.09
71.35
9.3
-53.99
-107.2
-141.82
-154.26
-146.32
-123.97
-95.14
-67.27
-45.44
-31.73
-25.74
-25.71
-29.57
-35.46
-41.46
-45.67
-46.52
-43.35
-36.85
-28.96
-22.05
-18.06
-17.71
-20.23
-23.94
-26.99
-28.06
-26.75
-23.45
-18.84
-13.44
-7.35
-0.26
8.18
18.03
28.94
40.25
51.45
62.39
73.42
85.19
98.17
112.3
126.98
141.37
154.95
167.99
181.53
197.07
215.97
238.97
266.0
296.3
328.45
360.42
389.63
413.29
429.24
436.94
437.76
434.44
429.48
423.59
415.07
400.65
377.52
345.4
307.47
269.52
237.77
216.49
206.36
204.36
205.18
203.18
194.53
178.29
156.23
131.47
106.88
83.82
62.12
40.91
19.83
-0.38
-18.36
-33.26
-45.62
-57.21
-69.8
-83.69
-97.1
-106.85
-110.09
-105.99
-96.34
-84.81
-75.2
-69.98
-69.39
-71.93
-75.39
-77.91
-78.52
-77.04
-73.7
-68.91
-63.25
-57.55
-52.79
-49.75
-48.58
-48.59
-48.56
-47.44
-45.1
-42.35
-40.41
-39.86
-39.74
-37.62
-30.58
-16.76
3.45
27.27
50.6
69.87
83.5
92.39
98.94
105.36
112.04
117.09
117.15
109.13
92.16
68.44
42.9
21.47
8.87
6.88
13.77
25.17
35.98
42.24
42.3
36.89
28.06
18.09
8.6
0.31
-6.74
-12.83
-18.5
-24.55
-32.03
-41.9
-54.39
-68.51
-82.07
-92.37
-97.41
-96.64
-91.27
-83.5
-75.31
-67.34
-58.78
-48.46
-36.36
-24.75
-17.89
-20.51
-35.38
-61.95
-96.56
-134.23
-171.25
-206.89
-243.53
-284.79
-332.53
-384.34
-433.05
-468.59
-481.82
-468.25
-429.89
-374.44
-311.96
-251.01
-195.78
-146.0
-98.69
-50.82
-1.29
48.61
96.0
137.65
171.02
194.7
208.29
212.32
207.98
196.61
179.68
158.59
134.89
110.44
87.32
67.31
51.35
39.11
29.17
19.83
9.9
-0.73
-11.24
-20.52
-27.83
-33.22
-37.27
-40.49
-42.55
-42.22
-37.77
-27.74
-11.76
9.2
33.14
57.58
80.15
98.77
111.68
117.47
115.58
106.67
93.12
78.55
66.73
60.21
59.18
61.51
63.64
62.19
55.24
43.0
27.44
11.33
-2.96
-14.28
-22.91
-30.16
-37.47
-45.77
-55.06
-64.53
-73.11
-79.85
-84.28
-86.33
-86.42
-85.38
-84.6
-85.7
-89.78
-96.3
-102.2
-102.3
-91.15
-65.88
-28.25
15.11
54.88
82.63
94.07
90.38
76.97
60.77
47.25
39.06
36.19
37.55
42.26
50.08
60.89
73.8
86.83
97.36
103.26
103.66
99.23
91.71
82.95
74.29
66.38
