-3.03
-4.06
-5.31
-6.81
-8.42
-9.92
-11.11
-11.88
-12.29
-12.56
-12.95
-13.7
-14.9
-16.43
-18.01
-19.26
-19.71
-19.01
-16.97
-13.66
-9.42
-4.76
-0.27
3.59
6.55
8.56
9.73
10.28
10.38
10.18
9.82
9.4
9.05
8.91
9.04
9.47
10.12
10.89
11.67
12.39
13.01
13.51
13.88
14.08
14.05
13.75
13.14
12.24
11.09
9.77
8.31
6.73
5.03
3.22
1.35
-0.48
-2.19
-3.71
-5.04
-6.21
-7.28
-8.33
-9.45
-10.74
-12.27
-14.09
-16.1
-18.01
-19.37
-19.67
-18.54
-15.9
-12.05
-7.57
-3.11
0.78
3.85
6.07
7.6
8.57
9.07
9.1
8.74
8.15
7.6
7.38
7.65
8.38
9.32
10.13
10.54
10.5
10.15
9.77
9.59
9.63
9.71
9.53
8.88
7.77
6.41
5.08
3.96
3.0
1.99
0.7
-1.02
-3.1
-5.35
-7.54
-9.5
-11.16
-12.5
-13.55
-14.38
-15.05
-15.72
-16.62
-17.91
-19.62
-21.53
-23.14
-23.84
-23.06
-20.54
-16.43
-11.31
-5.96
-1.11
2.74
5.49
7.26
8.31
8.86
9.0
8.8
8.35
7.85
7.53
7.59
8.1
8.96
9.96
10.89
11.64
12.2
12.66
13.1
13.52
13.79
13.74
13.21
12.12
10.54
8.63
6.66
4.86
3.33
2.07
0.91
-0.33
-1.82
-3.55
-5.46
-7.35
-9.06
-10.47
-11.59
-12.52
-13.46
-14.62
-16.16
-18.09
-20.21
-22.13
-23.28
-23.13
-21.33
-17.93
-13.3
-8.13
-3.17
1.02
4.12
6.14
7.29
7.86
8.09
8.15
8.13
8.08
8.1
8.28
8.68
9.29
10.0
10.68
11.17
11.41
11.44
11.4
11.34
11.23
10.89
10.09
8.67
6.65
4.3
1.99
0.05
-1.36
-2.31
-3.01
-3.73
-4.65
-5.79
-7.05
-8.29
-9.37
-10.22
-10.81
-11.22
-11.59
-12.12
-13.03
-14.47
-16.42
-18.61
-20.59
-21.72
-21.48
-19.61
-16.18
-11.67
-6.77
-2.12
1.84
4.93
7.25
8.98
10.23
11.06
11.46
11.45
11.15
10.78
10.51
10.43
10.54
10.77
11.06
11.41
11.86
12.4
12.97
13.43
13.63
13.5
13.0
12.21
11.16
9.96
8.66
7.3
5.95
4.61
3.29
1.97
0.61
-0.76
-2.12
-3.38
-4.49
-5.44
-6.33
-7.31
-8.59
-10.28
-12.42
-14.82
-17.06
-18.59
-18.82
-17.4
-14.28
-9.87
-4.86
-0.02
4.04
7.0
8.89
9.91
10.33
10.3
9.91
9.22
8.36
7.49
6.8
6.39
6.19
6.13
6.11
6.12
6.27
6.66
7.33
8.16
8.96
9.45
9.45
8.9
7.84
6.43
4.81
3.12
1.44
-0.21
-1.87
-3.57
-5.32
-7.05
-8.66
-10.03
-11.13
-11.97
-12.65
-13.3
-14.08
-15.17
-16.68
-18.61
-20.75
-22.6
-23.52
-22.93
-20.52
-16.44
-11.28
-5.85
-0.91
3.05
5.91
7.82
9.03
9.74
10.08
10.08
9.78
9.33
8.89
8.69
8.85
9.38
10.16
10.99
11.67
12.11
12.29
12.24
12.02
11.64
10.99
10.02
8.65
6.96
5.13
3.42
2.0
0.95
0.15
-0.64
-1.63
-2.95
-4.57
-6.34
-8.07
-9.63
-10.94
-12.03
-12.94
-13.74
-14.59
-15.64
-17.01
-18.64
-20.21
-21.16
-20.87
-18.89
-15.24
-10.4
-5.11
-0.17
3.86
6.75
8.56
9.47
9.72
9.45
8.8
7.93
7.0
6.17
5.62
5.44
5.68
6.3
7.2
8.18
9.02
9.55
9.74
9.67
9.48
9.22
8.83
8.15
7.12
5.74
4.16
2.57
1.13
-0.2
-1.53
-2.99
-4.65
-6.41
-8.07
-9.44
-10.38
-10.88
-11.09
-11.25
-11.7
-12.69
-14.33
-16.48
-18.7
-20.41
-20.95
-19.93
-17.25
-13.22
-8.45
-3.56
0.89
4.6
7.52
9.71
11.27
12.3
12.86
12.95
12.66
12.16
11.65
11.35
11.37
11.74
12.43
13.34
14.29
15.13
15.68
15.81
15.48
14.72
13.62
12.35
11.06
9.84
8.71
7.58
6.35
4.94
3.33
1.58
-0.2
-1.88
-3.37
-4.67
-5.81
-6.9
-8.03
-9.35
-10.9
-12.7
-14.62
-16.37
-17.54
-17.69
-16.53
-13.99
-10.32
-6.02
-1.65
2.29
5.46
7.77
9.24
9.97
10.11
9.78
9.13
8.34
7.63
7.17
7.08
7.37
7.95
8.63
9.22
9.57
9.62
9.37
8.88
8.23
7.44
6.5
5.39
4.12
2.75
1.38
0.09
-1.1
-2.23
-3.42
-4.76
-6.26
-7.81
-9.23
-10.38
-11.22
-11.85
-12.5
-13.4
-14.68
-16.37
-18.31
-20.17
-21.52
-21.9
-20.91
-18.38
-14.44
-9.54
-4.36
0.42
4.28
6.99
8.63
9.44
9.73
9.73
9.55
9.27
8.92
8.54
8.24
8.08
8.09
8.23
8.43
8.61
8.73
8.8
8.86
8.89
8.84
8.57
7.95
6.95
5.61
4.1
2.61
1.26
0.13
-0.84
-1.73
-2.65
-3.67
-4.81
-6.06
-7.36
-8.64
-9.8
-10.83
-11.77
-12.73
-13.85
-15.13
-16.43
-17.38
-17.56
-16.57
-14.3
-10.96
-7.03
-3.1
0.33
2.99
4.84
5.97
6.59
6.83
6.83
6.67
6.45
6.22
6.02
5.87
5.77
5.69
5.66
5.7
5.79
5.95
6.12
6.26
6.29
6.12
5.74
5.15
4.47
3.83
3.35
3.1
3.0
2.93
2.7
2.26
1.6
0.83
0.03
-0.79
-1.68
-2.75
-4.07
-5.67
-7.56
-9.71
-12.03
-14.35
-16.37
-17.67
-17.84
-16.55
-13.77
-9.76
-5.0
-0.12
4.37
8.1
10.91
12.81
13.91
14.35
14.27
13.82
13.13
12.38
11.67
11.08
10.61
10.23
9.87
9.53
9.27
9.12
9.1
9.15
9.14
8.95
8.49
7.73
6.7
5.47
4.11
2.65
1.14
-0.4
-1.92
-3.38
-4.8
-6.17
-7.51
-8.76
-9.88
-10.85
-11.77
-12.81
-14.12
-15.79
-17.64
-19.27
-20.11
-19.67
-17.73
-14.46
-10.3
-5.85
-1.66
1.93
4.73
6.69
7.78
8.03
7.45
6.17
4.45
2.62
1.06
0.05
-0.26
0.16
1.16
2.54
4.07
5.58
6.91
7.97
8.68
9.01
8.93
8.5
7.77
6.87
5.92
5.03
4.26
3.58
2.86
1.94
0.66
-1.02
-2.95
-4.87
-6.52
-7.7
-8.45
-9.0
-9.62
-10.57
-11.9
-13.52
-15.18
-16.55
-17.32
-17.17
-15.9
-13.44
-9.92
-5.67
-1.19
2.99
6.45
9.0
10.63
11.49
11.75
11.54
10.95
10.08
9.1
8.24
7.72
7.64
7.96
8.49
9.0
9.29
9.29
9.05
8.71
8.4
8.16
7.95
7.65
7.16
6.35
5.21
3.79
2.22
0.66
-0.76
-1.98
-3.04
-4.04
-5.1
-6.25
-7.42
-8.47
-9.28
-9.86
-10.33
-10.89
-11.72
-12.92
-14.43
-16.1
-17.64
-18.73
-19.01
-18.18
-16.1
-12.93
-9.04
-4.98
-1.22
1.9
4.34
6.19
7.62
8.7
9.41
9.72
9.64
9.26
8.74
8.28
7.97
7.84
7.86
7.96
8.06
8.15
8.19
8.19
8.14
8.0
7.71
7.21
6.49
5.62
4.71
3.83
3.02
2.23
1.38
0.44
-0.58
-1.61
-2.58
-3.42
-4.15
-4.81
-5.45
-6.16
-7.06
-8.29
-9.96
-12.03
-14.26
-16.2
-17.33
-17.26
-15.82
-13.23
-9.86
-6.23
-2.71
0.44
3.11
5.23
6.75
7.66
7.99
7.92
7.68
7.51
7.54
7.78
8.11
8.38
8.46
8.32
8.03
7.66
7.29
6.93
6.51
5.95
5.18
4.21
3.16
2.17
1.37
0.78
0.32
-0.17
-0.85
-1.8
-2.99
-4.31
-5.59
-6.67
-7.47
-8.02
-8.42
-8.9
-9.7
-11.01
-12.87
-15.14
-17.51
-19.51
-20.66
-20.53
-18.91
-15.85
-11.65
-6.78
-1.75
3.03
7.34
11.11
14.34
17.06
19.29
21.02
22.28
23.14
23.72
24.14
24.56
25.06
25.66
26.29
26.83
27.17
27.29
27.23
27.09
26.87
26.49
25.72
24.29
22.04
19.05
15.59
12.02
8.66
5.6
2.76
-0.06
-2.99
-6.02
-8.96
-11.53
-13.48
-14.56
-14.71
-13.92
-12.35
-10.22
-7.84
-5.45
-3.16
-0.78
2.1
5.95
11.06
17.36
24.29
31.06
36.83
41.06
43.64
44.8
45.03
44.79
44.45
44.09
43.56
42.41
39.91
35.28
28.0
18.12
6.49
-5.41
-15.93
-23.87
-28.95
-31.88
-34.07
-37.0
-41.68
-48.37
-56.68
-65.82
-74.97
-83.49
-91.0
-97.3
-102.26
-105.68
-107.24
-106.49
-102.94
-96.26
-86.35
-73.47
-58.14
-41.1
-23.16
-5.1
12.27
28.2
42.05
53.47
62.58
70.03
76.8
83.89
91.84
100.57
109.27
116.81
122.07
124.36
123.57
120.07
114.56
107.76
100.31
92.79
85.66
79.32
74.04
69.87
66.62
63.96
61.49
58.9
56.0
52.76
49.21
45.4
41.41
37.27
33.01
28.56
23.84
18.75
13.25
7.44
1.53
-4.22
-9.66
-14.73
-19.56
-24.27
-28.88
-33.36
-37.6
-41.52
-45.16
-48.57
-51.77
-54.59
-56.65
-57.45
-56.59
-53.94
-49.73
-44.54
-39.2
-34.48
-30.94
-28.78
-27.82
-27.64
-27.62
-27.19
-25.94
-23.63
-20.24
-15.91
-10.85
-5.3
0.46
6.21
11.76
16.96
21.73
26.06
29.87
33.04
35.26
36.06
35.01
31.71
25.97
17.81
7.43
-4.92
-18.96
-34.31
-50.5
-66.87
-82.68
-97.2
-109.87
-120.38
-128.61
-134.57
-138.28
-139.8
-139.16
-136.52
-131.96
-125.57
-117.33
-107.19
-95.21
-81.73
-67.54
-53.74
-41.54
-31.9
-25.29
-21.52
-19.77
-18.86
-17.55
-14.79
-10.03
-3.23
5.09
14.1
22.82
30.32
35.91
39.28
40.51
40.02
38.37
36.12
33.57
30.72
27.41
23.56
19.4
15.56
12.92
12.21
13.66
16.92
21.21
25.72
29.88
33.46
36.34
38.36
39.19
38.51
36.29
32.99
29.55
27.2
27.03
29.68
35.23
43.22
52.8
62.99
72.79
81.31
87.8
91.63
92.34
89.7
83.74
74.9
64.08
52.48
41.39
31.85
24.38
18.87
14.74
11.12
7.21
2.45
-3.38
-10.17
-17.63
-25.33
-32.82
-39.62
-45.33
-49.57
-52.06
-52.67
-51.41
-48.51
-44.36
-39.52
-34.59
-30.06
-26.32
-23.52
-21.77
-21.12
-21.65
-23.45
-26.51
-30.69
-35.69
-40.95
-45.63
-48.73
-49.2
-46.25
-39.72
-30.24
-19.18
-8.24
0.93
7.07
9.42
7.73
2.29
-5.97
-15.5
-24.33
-30.54
-32.9
-31.19
-26.15
-19.05
-11.28
-4.04
1.59
4.56
3.84
-1.18
-10.22
-21.97
-34.25
-44.89
-52.52
-56.95
-58.94
-59.55
-59.46
-58.75
-57.12
-54.4
-50.93
-47.52
-45.06
-44.0
-44.05
-44.3
-43.7
-41.63
-38.2
-34.07
-30.16
-27.1
-24.96
-23.2
-20.94
-17.22
-11.49
-3.7
5.79
16.37
27.35
38.16
48.24
57.03
63.91
68.34
70.06
69.37
67.19
64.95
64.25
66.31
71.52
79.31
88.31
96.93
103.99
109.15
112.9
116.24
120.0
124.5
129.39
133.86
136.93
137.69
135.33
129.31
120.0
109.35
101.22
100.38
110.51
131.91
160.55
189.04
209.39
216.33
209.17
191.39
168.43
144.89
122.94
102.05
80.44
56.27
28.64
-2.44
-36.72
-74.32
-116.13
-163.36
-216.41
-273.26
-328.78
-375.32
-404.89
-412.08
-395.95
-359.78
-308.93
-248.32
-181.2
-110.18
-39.34
24.45
72.5
97.58
97.4
76.57
45.34
15.84
-2.47
-5.79
3.74
19.96
36.06
47.27
51.89
51.06
47.15
42.24
37.29
32.2
26.56
20.73
15.87
13.39
14.07
17.37
21.64
24.81
25.47
23.41
19.64
15.75
13.1
12.44
13.65
16.04
18.57
20.18
20.13
18.3
15.44
12.9
12.28
14.67
20.21
28.02
36.64
44.73
51.57
57.28
62.43
67.65
73.13
78.38
82.11
82.34
76.71
63.04
40.17
8.6
-29.07
-68.68
-105.5
-135.64
-157.15
-170.37
-177.48
-181.29
-184.02
-186.51
-188.25
-187.97
-184.49
-177.4
-167.29
-155.42
-143.26
-131.91
-121.82
-112.83
-104.44
-96.08
-87.6
-79.27
-71.59
-65.05
-59.69
-54.97
-49.88
-43.25
-34.05
-22.03
-7.79
7.05
20.07
28.69
31.07
26.99
18.26
8.53
2.13
2.72
11.92
28.77
50.18
72.07
90.55
102.93
108.15
106.64
100.05
90.73
81.11
73.26
68.4
66.68
67.29
68.78
69.41
67.78
63.19
55.83
46.68
37.13
28.39
21.1
15.09
9.61
3.82
-2.67
-9.66
-16.59
-23.15
-29.64
-36.85
-45.37
-54.81
-63.45
-68.84
-68.96
-63.45
-54.18
-44.77
-39.26
-40.61
-49.76
-65.54
-85.41
-106.43
-125.9
-141.69
-152.4
-157.41
-156.97
-152.21
-144.74
-136.0
-126.78
-116.77
-104.57
-88.22
-65.85
-36.53
-0.84
38.93
78.96
114.46
140.77
154.54
154.82
143.41
124.41
102.98
83.77
69.72
61.63
58.43
57.9
57.53
55.17
49.38
39.69
26.62
11.61
-3.48
-16.96
-27.93
-36.55
-43.55
-49.54
-54.44
-57.26
-56.61
-51.46
-41.87
-29.19
-15.74
-3.95
4.38
8.47
8.59
5.78
1.37
-3.29
-7.23
-9.91
-11.45
-12.6
-14.38
-17.32
-20.55
-21.33
-15.91
-1.57
21.29
48.23
72.15
86.48
88.35
79.84
66.41
53.59
43.96
36.28
27.03
13.17
-5.75
-27.46
-48.65
-67.06
-82.6
-96.89
-111.79
-127.88
-144.32
-159.75
-173.76
-187.67
-203.77
-223.67
-246.39
-267.73
-281.58
-282.61
-268.78
-242.44
-209.21
-175.51
-146.0
-122.41
-104.0
-89.01
-76.03
-64.39
-53.84
-43.91
-33.46
-21.1
-5.6
13.45
35.49
59.12
82.41
103.27
119.87
131.0
136.33
136.51
132.96
127.49
121.68
116.6
112.55
109.41
106.88
104.73
102.7
100.33
96.83
91.3
83.1
72.27
59.64
46.51
34.16
23.25
13.57
4.22
-5.79
-16.91
-28.55
-39.04
-46.11
-47.62
-42.3
-30.12
-12.08
10.15
34.78
60.02
84.1
105.21
121.78
132.84
138.29
138.94
135.98
130.39
122.55
112.31
99.43
84.02
66.72
48.48
30.36
13.3
-1.85
-14.24
-22.92
-27.03
-26.04
-19.94
-9.4
4.43
20.07
36.0
50.89
63.71
73.7
80.44
83.8
83.94
81.3
76.52
70.33
63.39
56.15
48.6
40.39
30.96
19.91
7.32
-6.02
-18.63
-28.72
-34.68
-35.69
-31.93
-24.52
-15.1
-5.24
3.98
12.14
19.22
25.25
29.96
32.91
33.61
31.94
28.37
23.91
19.84
17.28
16.85
18.6
22.18
27.01
32.51
38.18
43.54
48.09
51.3
52.72
52.11
49.55
45.37
40.09
34.29
28.43
22.83
17.58
12.62
7.84
3.14
-1.53
-6.28
-11.25
-16.74
-22.99
-30.09
-37.75
-45.24
-51.49
-55.31
-55.69
-52.02
-44.31
-33.14
-19.62
-5.12
8.99
21.71
32.55
41.55
49.1
55.69
61.86
68.04
74.55
81.51
88.59
95.07
99.92
102.26
101.65
98.43
93.45
87.64
81.65
75.57
69.14
62.05
54.17
45.57
36.46
27.02
17.4
7.81
-1.41
-9.7
-16.52
-21.55
-24.85
-26.76
-27.91
-28.86
-30.05
-31.8
-34.32
-37.75
-42.06
-46.94
-51.66
-55.2
-56.5
-54.77
-49.9
-42.45
-33.56
-24.53
-16.54
-10.28
-5.96
-3.39
-2.17
-1.82
-1.83
-1.71
-1.04
0.34
2.33
4.51
6.27
7.11
6.86
5.88
4.99
5.17
7.28
11.63
17.91
25.23
32.37
38.05
41.3
41.62
39.02
33.93
26.99
18.81
9.83
0.29
-9.69
-19.83
-29.6
-38.09
-44.18
-46.85
-45.52
-40.32
-32.02
-21.89
-11.34
-1.63
6.43
12.55
16.94
20.11
22.69
25.19
27.84
30.58
33.12
35.13
36.31
36.47
35.48
33.25
29.76
25.22
20.1
15.07
10.8
7.7
5.75
4.57
3.66
2.65
1.46
0.24
-0.75
-1.31
-1.39
-1.13
-0.73
-0.4
-0.36
-0.84
-2.07
-4.28
-7.59
-11.88
-16.81
-21.79
-26.17
-29.5
-31.65
-32.97
-34.18
-36.03
-39.09
-43.48
-48.9
-54.76
-60.3
-64.66
-66.95
-66.32
-62.16
-54.33
-43.34
-30.2
-16.19
-2.44
10.35
21.88
32.02
40.52
46.84
50.26
50.2
46.57
40.0
31.66
23.06
15.53
9.98
6.69
5.5
5.96
7.58
9.92
12.55
15.07
17.13
18.51
19.2
19.36
19.2
18.82
18.13
16.79
14.49
11.04
6.57
1.48
-3.77
-8.73
-13.15
-16.9
-20.03
-22.69
-25.08
-27.39
-29.74
-32.06
-33.98
-34.97
-34.41
-31.9
-27.37
-21.2
-14.12
-6.98
-0.52
4.85
9.03
12.17
14.49
16.14
17.25
17.9
18.17
18.24
18.37
18.76
19.54
20.68
22.09
23.68
25.37
27.02
28.38
29.09
28.64
26.55
22.61
17.24
11.53
6.89
4.37
4.24
5.82
7.63
7.95
5.62
0.82
-4.73
-8.72
-9.48
-6.71
-1.76
2.77
4.14
0.55
-7.6
-17.52
-25.27
-27.68
-23.45
-13.54
-0.93
10.1
14.87
9.87
-5.92
-30.78
-59.99
-85.53
-96.63
-82.27
-36.85
33.78
112.26
179.1
222.22
239.32
236.41
223.68
208.25
195.08
185.39
178.28
173.06
169.83
168.6
168.37
166.57
159.44
143.71
117.78
82.94
43.37
4.56
-28.9
-54.35
-71.46
-81.99
-88.78
-94.91
-102.37
-111.42
-121.3
-131.35
-141.58
-152.4
-163.86
-174.87
-183.46
-187.59
-186.21
-180.18
-172.04
-164.8
-160.48
-159.45
-160.57
-162.3
-163.5
-163.68
-162.75
-160.48
-156.38
-149.77
-140.16
-127.59
-112.82
-97.25
-82.45
-69.58
-58.75
-48.74
-37.36
-22.37
-2.73
20.76
45.51
68.24
86.22
98.39
105.29
108.46
109.38
108.83
106.81
102.99
97.39
90.53
83.37
76.86
71.55
67.45
64.11
60.92
57.35
53.21
48.63
44.0
39.7
35.98
32.9
30.18
27.47
24.36
20.61
16.3
11.84
7.77
4.6
2.55
1.44
0.82
0.15
-1.02
-2.87
-5.3
-7.99
-10.52
-12.43
-13.41
-13.33
-12.28
-10.56
-8.58
-6.74
-5.34
-4.51
-4.16
-4.12
-4.1
-3.83
-3.14
-1.85
0.02
2.39
5.14
8.16
11.38
14.71
17.92
20.51
21.81
21.0
17.44
10.9
1.78
-8.98
-20.06
-30.13
-38.16
-43.54
-46.14
-46.12
-43.77
-39.4
-33.4
-26.21
-18.4
-10.65
-3.61
2.2
6.52
9.36
10.91
11.49
11.42
10.91
10.08
8.93
7.43
5.62
3.63
1.66
-0.07
-1.49
-2.61
-3.51
-4.19
-4.54
-4.38
-3.6
-2.23
-0.48
1.37
3.13
4.65
5.7
5.82
4.31
0.46
-6.07
-14.94
-25.05
-34.88
-43.0
-48.45
-50.96
-50.74
-48.31
-44.11
-38.54
-31.99
-24.94
-18.04
-11.92
-7.04
-3.55
-1.33
-0.03
0.7
1.12
1.34
1.33
1.0
0.28
-0.82
-2.17
-3.45
-4.27
-4.24
-3.17
-1.17
1.38
3.94
5.94
7.01
7.01
6.03
4.32
2.17
-0.12
-2.33
-4.27
-5.83
-7.02
-7.98
-8.86
-9.85
-11.01
-12.35
-13.82
-15.31
-16.73
-18.03
-19.22
-20.39
-21.66
-23.14
-24.73
-26.06
-26.52
-25.38
-22.15
-16.86
-10.14
-3.01
3.42
8.39
11.63
13.36
14.02
14.02
13.55
12.65
11.3
9.63
7.91
6.52
5.75
5.72
6.31
7.24
8.23
9.1
9.8
10.38
10.86
11.14
11.06
10.4
9.11
7.3
5.21
3.13
1.29
-0.27
-1.65
-3.02
-4.51
-6.13
-7.76
-9.2
-10.29
-10.96
-11.31
-11.55
-12.0
-12.95
-14.67
-17.18
-20.24
-23.24
-25.33
-25.6
-23.43
-18.79
-12.27
-4.99
1.86
7.36
11.16
13.42
14.56
14.99
14.95
14.51
13.69
12.59
11.44
10.45
9.7
9.14
8.58
7.89
7.08
6.27
5.6
5.17
4.95
4.87
4.8
4.66
4.34
3.76
2.82
1.47
-0.25
-2.15
-4.02
-5.67
-7.01
-8.05
-8.77
-9.1
-8.93
-8.23
-7.13
-5.97
-5.16
-4.99
-5.44
-6.14
-6.38
-5.24
-1.81
4.67
14.59
27.81
43.61
60.74
77.74
93.23
106.22
116.21
123.14
127.25
128.84
128.09
124.94
119.11
110.29
98.34
83.55
66.7
48.83
30.93
13.47
-3.78
-21.53
-40.43
-60.52
-80.87
-99.76
-115.28
-126.03
-131.45
-131.84
-127.94
-120.54
-110.3
-98.03
-84.66
-71.23
-58.48
-46.48
-34.6
-22.14
-9.03
3.61
13.59
18.66
17.64
11.09
1.07
-9.83
-19.62
-27.42
-33.29
-37.55
-40.18
-40.73
-38.61
-33.57
-25.99
-16.74
-6.85
2.67
11.12
18.04
23.17
26.47
28.09
28.31
27.5
26.01
24.19
22.39
20.98
20.17
19.9
19.72
18.89
16.69
12.8
7.45
1.41
-4.31
-8.93
-12.05
-13.78
-14.62
-15.2
-16.11
-17.61
-19.64
-21.87
-24.03
-26.01
-28.0
-30.31
-33.18
-36.59
-40.24
-43.79
-47.04
-50.03
-52.97
-55.92
-58.55
-60.18
-60.01
-57.56
-52.9
-46.62
-39.68
-32.91
-26.95
-22.09
-18.46
-16.09
-14.87
-14.51
-14.51
-14.24
-13.12
-10.85
-7.43
-3.13
1.72
6.84
12.05
17.24
22.15
26.32
29.17
30.09
28.73
25.19
20.08
14.41
9.3
5.59
3.6
3.11
3.53
4.21
4.72
4.98
5.16
5.53
6.28
7.34
8.41
9.02
8.64
6.75
2.93
-2.98
-10.79
-19.76
-28.62
-35.78
-39.7
-39.3
-34.36
-25.51
-14.04
-1.46
10.95
22.33
32.35
41.01
48.49
55.04
60.91
66.39
71.8
77.47
83.62
90.33
97.57
105.2
113.05
121.01
129.04
137.17
145.42
153.63
161.44
168.33
173.74
177.26
178.7
178.06
175.4
170.7
163.73
154.02
140.95
123.77
101.89
75.07
43.65
8.81
-27.54
-63.06
-95.4
-122.77
-144.14
-159.37
-168.85
-173.35
-173.71
-170.9
-165.97
-159.87
-153.38
-146.86
-140.28
-133.28
-125.48
-116.65
-106.81
-96.11
-84.62
-72.25
-58.86
-44.52
-29.74
-15.55
-3.21
6.2
12.2
15.14
15.96
15.83
15.67
15.82
16.09
16.01
15.18
13.5
11.12
8.3
5.24
1.98
-1.54
-5.35
-9.33
-13.21
-16.67
-19.47
-21.55
-23.0
-24.13
-25.3
-26.82
-28.94
-31.83
-35.52
-40.02
-45.28
-51.19
-57.55
-63.97
-69.81
-74.28
-76.55
-76.11
-72.95
-67.61
-61.11
-54.62
-49.23
-45.66
-44.23
-44.73
-46.62
-49.1
-51.31
-52.56
-52.44
-50.82
-47.79
-43.53
-38.09
-31.51
-23.7
-14.54
-3.94
7.98
20.81
33.81
46.03
56.64
65.2
71.75
76.72
80.49
83.17
84.47
83.89
81.15
76.32
69.77
61.95
53.24
43.89
34.26
24.89
16.33
9.01
3.07
-1.5
-4.55
-5.5
-3.51
2.09
11.25
22.79
34.75
45.05
52.37
56.55
58.43
59.12
59.47
59.76
59.86
59.66
59.28
59.03
59.1
59.27
58.91
57.27
54.02
49.36
43.92
38.19
32.15
25.17
16.37
5.24
-7.99
-22.32
-36.32
-48.63
-58.28
-64.66
-67.35
-66.04
-60.82
-52.62
-43.31
-35.16
-29.8
-27.17
-25.34
-21.24
-12.39
1.82
19.68
38.12
54.42
67.36
77.49
86.04
93.71
100.01
103.71
103.94
101.03
96.5
92.16
89.1
87.13
85.11
81.78
76.54
69.67
62.01
54.48
47.81
42.28
37.93
34.58
31.98
29.89
28.22
27.08
26.72
27.33
28.65
29.85
29.74
27.33
22.41
15.79
8.93
3.35
-0.17
-1.8
-2.52
-3.63
-6.23
-11.11
-18.82
-29.75
-43.93
-60.72
-78.49
-94.82
-107.33
-114.6
-116.75
-115.27
-112.17
-108.86
-105.58
-101.56
-95.73
-87.6
-77.6
-66.79
-56.29
-46.72
-38.0
-29.81
-21.93
-14.54
-8.16
-3.22
0.22
2.67
4.9
7.56
10.78
14.03
16.41
17.07
15.68
12.65
8.92
5.58
3.35
2.37
2.24
2.29
1.9
0.75
-1.17
-3.69
-6.62
-9.82
-13.04
-15.94
-18.16
-19.47
-20.05
-20.6
-21.99
-24.98
-29.69
-35.44
-40.96
-44.86
-46.12
-44.38
-39.98
-33.61
-26.08
-18.05
-9.96
-2.21
4.83
10.72
15.13
18.0
19.55
20.23
20.5
20.63
20.68
20.51
20.01
19.26
18.48
17.97
17.97
18.52
19.49
20.61
21.56
21.98
21.6
20.19
17.74
14.37
10.37
6.18
2.28
-0.81
-2.7
-3.24
-2.65
-1.49
-0.5
-0.34
-1.32
-3.27
-5.65
-7.82
-9.29
-9.89
-9.64
-8.65
-7.01
-4.68
-1.67
1.9
5.67
9.11
11.6
12.7
12.35
10.84
8.78
6.8
5.35
4.55
4.28
4.3
4.49
4.88
5.6
6.77
8.26
9.78
10.91
11.26
10.64
9.08
6.79
3.96
0.84
-2.34
-5.28
-7.61
-9.05
-9.63
-9.71
-9.99
-11.28
-14.04
-18.25
-23.35
-28.53
-32.96
-36.12
-37.85
-38.17
-37.26
-35.24
-32.3
-28.64
-24.53
-20.22
-15.92
-11.77
-7.8
-4.05
-0.58
2.39
4.61
5.92
6.32
5.98
5.21
4.34
3.55
2.94
2.54
2.37
2.52
3.03
3.86
4.87
5.82
6.43
6.58
6.37
6.01
5.83
5.99
6.53
7.23
7.72
7.64
6.77
5.23
3.35
1.61
0.3
-0.49
-0.99
-1.54
-2.48
-3.99
-6.07
-8.64
-11.56
-14.69
-17.78
-20.49
-22.47
-23.39
-23.2
-22.02
-20.12
-17.78
-15.21
-12.58
-9.99
-7.59
-5.47
-3.74
-2.42
-1.49
-0.89
-0.57
-0.5
-0.61
-0.77
-0.88
-0.84
-0.67
-0.48
-0.37
-0.41
-0.59
-0.87
-1.23
-1.68
-2.28
-3.04
-3.85
-4.57
-5.0
-5.05
-4.73
-4.17
-3.52
-2.91
-2.45
-2.16
-2.04
-2.11
-2.4
-2.97
-3.9
-5.24
-6.99
-9.0
-10.92
-12.35
-12.87
-12.26
-10.59
-8.13
-5.32
-2.54
-0.07
2.02
3.69
4.96
5.83
6.29
6.35
6.11
5.71
5.27
4.82
4.31
3.68
2.86
1.91
0.96
0.17
-0.37
-0.68
-0.88
-1.09
-1.38
-1.76
-2.24
-2.74
-3.22
-3.55
-3.64
-3.42
-2.94
-2.39
-2.0
-1.99
-2.39
-3.09
-3.85
-4.48
-4.9
-5.2
-5.53
-6.07
-6.85
-7.77
-8.57
-8.92
-8.54
-7.3
-5.26
-2.69
0.04
2.63
4.9
6.8
8.44
9.89
11.12
12.01
12.43
12.25
11.52
10.38
9.1
7.98
7.2
6.81
6.75
6.89
7.11
7.33
7.45
7.4
7.09
6.41
5.32
3.85
2.09
0.29
-1.34
-2.56
-3.27
-3.49
-3.43
-3.37
-3.56
-4.15
-5.06
-6.06
-6.91
-7.47
-7.75
-7.93
-8.21
-8.72
-9.44
-10.18
-10.63
-10.49
-9.6
-7.91
-5.56
-2.77
0.19
3.05
5.63
7.79
9.48
10.69
11.44
11.69
11.44
10.68
9.48
8.03
6.64
5.6
5.08
5.04
5.29
5.6
5.78
5.83
5.79
5.69
5.48
5.0
4.08
2.71
1.02
-0.78
