34.92
33.21
31.33
29.91
29.38
29.95
31.49
33.71
36.23
38.71
41.01
43.05
44.87
46.4
47.48
47.78
46.97
44.8
41.25
36.6
31.33
26.03
21.17
17.03
13.57
10.53
7.56
4.29
0.57
-3.55
-7.8
-11.81
-15.31
-18.22
-20.74
-23.25
-26.22
-30.01
-34.87
-40.74
-47.16
-53.14
-57.21
-57.78
-53.64
-44.57
-31.63
-16.95
-3.0
8.13
15.38
18.8
19.11
17.28
13.97
9.63
4.54
-0.92
-6.23
-10.81
-14.23
-16.27
-17.01
-16.69
-15.58
-13.9
-11.73
-9.14
-6.25
-3.31
-0.73
1.04
1.64
0.97
-0.75
-3.06
-5.44
-7.56
-9.37
-11.17
-13.38
-16.32
-19.95
-23.95
-27.8
-30.99
-33.29
-34.82
-35.97
-37.37
-39.65
-43.21
-47.99
-53.22
-57.42
-58.76
-55.64
-47.3
-34.31
-18.41
-2.0
12.68
24.14
31.93
36.39
38.23
38.12
36.58
34.0
30.76
27.32
24.14
21.62
19.94
19.06
18.76
18.85
19.2
19.85
20.85
22.21
23.81
25.26
26.07
25.76
24.07
21.05
17.1
12.81
8.78
5.38
2.64
0.29
-2.14
-5.08
-8.77
-13.07
-17.58
-21.78
-25.31
-28.08
-30.33
-32.56
-35.37
-39.23
-44.33
-50.26
-55.97
-59.85
-60.12
-55.43
-45.53
-31.43
-15.2
0.7
14.34
24.63
31.52
35.53
37.3
37.33
35.93
33.39
30.13
26.75
23.8
21.67
20.51
20.2
20.52
21.22
22.18
23.35
24.77
26.41
28.11
29.54
30.21
29.65
27.62
24.2
19.85
15.26
11.12
7.82
5.38
3.4
1.33
-1.18
-4.2
-7.45
-10.42
-12.7
-14.08
-14.68
-14.95
-15.51
-17.07
-20.19
-25.15
-31.49
-38.02
-42.84
-43.95
-39.95
-30.65
-17.26
-1.96
12.84
25.27
34.43
40.36
43.57
44.64
43.99
41.86
38.52
34.4
30.14
26.39
23.66
22.19
21.93
22.57
23.75
25.22
26.85
28.66
30.6
32.48
33.77
33.84
32.07
28.19
22.48
15.7
8.82
2.68
-2.31
-6.32
-9.92
-13.77
-18.34
-23.63
-29.23
-34.57
-39.16
-42.84
-45.77
-48.41
-51.32
-55.03
-59.87
-65.8
-72.2
-77.75
-80.66
-79.14
-72.06
-59.59
-43.24
-25.49
-8.92
4.6
14.28
20.36
23.64
24.91
24.67
23.22
20.79
17.77
14.69
12.1
10.4
9.75
10.13
11.36
13.24
15.6
18.19
20.73
22.84
24.11
24.24
23.1
20.81
17.69
14.14
10.48
6.88
3.24
-0.6
-4.8
-9.36
-14.1
-18.69
-22.79
-26.15
-28.68
-30.57
-32.21
-34.21
-37.18
-41.49
-46.83
-52.09
-55.49
-55.19
-49.96
-39.76
-25.89
-10.47
4.27
16.67
25.98
32.29
36.05
37.81
37.91
36.66
34.41
31.68
29.07
27.05
25.91
25.6
25.88
26.41
26.96
27.44
27.94
28.57
29.34
30.02
30.24
29.57
27.69
24.55
20.46
15.91
11.47
7.56
4.28
1.45
-1.34
-4.48
-8.17
-12.25
-16.34
-19.96
-22.73
-24.65
-26.02
-27.45
-29.67
-33.36
-38.77
-45.55
-52.52
-57.88
-59.7
-56.63
-48.41
-36.08
-21.61
-7.14
5.66
15.96
23.65
28.99
32.28
33.71
33.43
31.74
29.14
26.22
23.51
21.36
19.89
19.1
18.87
19.04
19.49
20.12
20.87
21.72
22.58
23.23
23.31
22.37
20.1
16.51
11.91
6.88
2.01
-2.34
-6.15
-9.73
-13.52
-17.78
-22.48
-27.27
-31.65
-35.18
-37.67
-39.16
-39.97
-40.56
-41.45
-43.16
-45.99
-49.78
-53.7
-56.32
-55.99
-51.44
-42.37
-29.67
-15.07
-0.51
12.44
22.99
31.05
36.9
40.89
43.27
44.18
43.89
42.82
41.51
40.49
40.06
40.28
40.93
41.69
42.3
42.69
43.0
43.39
43.92
44.36
44.18
42.75
39.55
34.51
27.98
20.64
13.21
6.24
-0.1
-5.96
-11.68
-17.59
-23.85
-30.39
-36.96
-43.28
-49.13
-54.43
-59.35
-64.14
-69.16
-74.77
-81.14
-88.06
-94.76
-99.88
-101.72
-98.85
-90.66
-77.7
-61.67
-44.74
-28.84
-15.03
-3.36
6.74
15.88
24.3
31.72
37.62
41.62
43.69
44.17
43.52
42.09
40.0
37.25
33.91
30.29
26.99
24.65
23.68
24.05
25.21
26.35
26.75
26.05
24.32
22.01
19.56
17.21
14.86
12.19
8.89
4.87
0.32
-4.36
-8.75
-12.57
-15.77
-18.47
-20.96
-23.63
-26.92
-31.23
-36.7
-42.93
-48.92
-53.25
-54.41
-51.46
-44.28
-33.74
-21.34
-8.72
2.77
12.26
19.43
24.31
27.13
28.2
27.92
26.71
25.07
23.52
22.46
22.19
22.75
24.0
25.64
27.42
29.19
30.93
32.69
34.41
35.92
36.86
36.83
35.57
33.05
29.49
25.31
20.97
16.83
13.0
9.39
5.71
1.71
-2.67
-7.38
-12.18
-16.84
-21.27
-25.48
-29.59
-33.78
-38.22
-43.14
-48.73
-55.0
-61.56
-67.54
-71.8
-73.22
-71.17
-65.75
-57.64
-47.77
-36.88
-25.44
-13.71
-2.03
9.0
18.66
26.29
31.61
34.82
36.47
37.19
37.5
37.68
37.86
38.11
38.56
39.38
40.7
42.53
44.7
46.88
48.65
49.64
49.58
48.41
46.23
43.24
39.7
35.85
31.87
27.87
23.95
20.2
16.75
13.69
11.01
8.61
6.29
3.76
0.72
-3.03
-7.62
-13.16
-19.69
-27.23
-35.5
-43.85
-51.12
-55.93
-57.01
-53.72
-46.3
-35.79
-23.71
-11.48
-0.13
9.83
18.33
25.42
31.09
35.18
37.57
38.2
37.32
35.36
32.86
30.35
28.17
26.47
25.25
24.39
23.79
23.36
23.0
22.57
21.84
20.52
18.43
15.53
11.98
8.07
4.12
0.35
-3.16
-6.49
-9.75
-13.01
-16.28
-19.47
-22.54
-25.47
-28.3
-31.16
-34.14
-37.41
-41.14
-45.48
-50.42
-55.65
-60.5
-64.01
-65.25
-63.56
-58.77
-51.21
-41.45
-30.13
-17.88
-5.29
6.98
18.14
27.45
34.38
38.74
40.78
41.07
40.24
38.89
37.45
36.16
35.17
34.62
34.54
35.0
35.97
37.35
38.92
40.4
41.49
41.96
41.66
40.52
38.53
35.75
32.33
28.46
24.34
20.1
15.75
11.08
5.81
-0.23
-7.06
-14.35
-21.66
-28.55
-34.86
-40.79
-46.88
-53.78
-61.86
-71.04
-80.57
-89.16
-95.09
-96.59
-92.25
-81.34
-64.2
-42.36
-18.28
5.29
25.86
41.88
52.94
59.51
62.61
63.28
62.36
60.47
58.17
56.01
54.46
53.82
54.04
54.85
55.76
56.36
56.39
55.82
54.76
53.36
51.63
49.4
46.44
42.52
37.54
31.68
25.33
18.97
13.07
7.88
3.32
-0.88
-5.16
-9.86
-15.11
-20.77
-26.48
-31.81
-36.54
-40.79
-45.01
-49.82
-55.65
-62.47
-69.55
-75.62
-78.97
-77.97
-71.42
-58.93
-41.21
-19.84
2.95
24.81
43.76
58.68
69.26
75.88
79.31
80.32
79.59
77.71
75.23
72.68
70.55
69.04
68.13
67.59
67.13
66.55
65.85
65.11
64.4
63.65
62.59
60.85
58.11
54.2
49.22
43.5
37.52
31.72
26.32
21.31
16.43
11.41
6.06
0.41
-5.35
-10.9
-16.01
-20.6
-24.82
-29.05
-33.78
-39.52
-46.52
-54.54
-62.6
-69.16
-72.5
-71.28
-65.2
-55.13
-42.87
-30.47
-19.61
-11.18
-5.35
-1.79
-0.08
0.14
-0.81
-2.53
-4.53
-6.3
-7.47
-7.94
-7.76
-7.12
-6.17
-4.97
-3.54
-1.9
-0.07
1.8
3.49
4.73
5.21
4.69
3.07
0.51
-2.62
-5.84
-8.78
-11.32
-13.63
-16.03
-18.82
-22.06
-25.59
-29.09
-32.25
-34.97
-37.34
-39.61
-42.14
-45.24
-49.07
-53.46
-57.81
-61.11
-62.21
-60.19
-54.71
-46.2
-35.65
-24.24
-12.88
-2.14
7.75
16.57
23.97
29.54
32.95
34.26
33.94
32.71
31.31
30.16
29.41
28.94
28.59
28.27
28.0
27.84
27.84
27.93
27.99
27.81
27.17
25.97
24.17
21.83
19.13
16.3
13.53
10.92
8.38
5.68
2.54
-1.24
-5.63
-10.43
-15.29
-19.85
-23.92
-27.45
-30.63
-33.74
-37.13
-41.15
-46.02
-51.72
-57.74
-63.12
-66.6
-66.99
-63.63
-56.6
-46.59
-34.63
-21.74
-8.76
3.64
14.86
24.27
31.34
35.79
37.76
37.79
36.6
34.94
33.3
31.97
31.06
30.54
30.42
30.64
31.23
32.15
33.38
34.82
36.2
37.28
37.74
37.37
36.16
34.27
31.97
29.6
27.42
25.49
23.77
22.01
19.96
17.42
14.4
11.06
7.69
4.58
1.77
-0.9
-3.78
-7.25
-11.68
-17.28
-24.09
-31.83
-39.72
-46.54
-50.7
-50.8
-46.15
-37.15
-25.29
-12.67
-1.25
7.7
13.75
17.17
18.4
17.81
15.55
11.7
6.48
0.35
-6.06
-12.1
-17.3
-21.46
-24.66
-27.15
-29.25
-31.18
-33.09
-35.02
-37.04
-39.38
-42.37
-46.48
-52.06
-59.19
-67.6
-76.76
-85.91
-94.48
-102.15
-109.01
-115.37
-121.62
-127.95
-134.19
-139.92
-144.55
-147.65
-149.15
-149.47
-149.41
-149.86
-151.53
-154.63
-158.66
-162.32
-163.67
-160.39
-150.35
-132.25
-106.19
-73.94
-38.77
-4.74
24.42
46.23
59.95
66.53
67.85
65.93
62.38
58.18
53.89
50.01
47.11
45.76
46.29
48.51
51.79
55.25
58.12
59.89
60.42
59.68
57.58
53.95
48.65
41.76
33.71
25.2
16.97
9.53
2.95
-3.13
-9.16
-15.49
-22.13
-28.72
-34.79
-39.99
-44.33
-48.23
-52.42
-57.74
-64.95
-74.38
-85.64
-97.26
-106.79
-111.28
-108.18
-96.3
-76.39
-51.14
-24.21
0.94
22.15
38.85
51.74
61.94
70.25
76.84
81.45
83.88
84.36
83.68
82.8
82.5
83.03
84.08
85.16
85.93
86.49
87.29
88.79
91.06
93.63
95.6
95.99
94.19
90.2
84.57
78.14
71.63
65.4
59.37
53.17
46.39
38.88
30.82
22.76
15.31
8.9
3.55
-1.17
-6.06
-12.02
-19.73
-29.35
-40.25
-50.83
-58.82
-61.81
-57.97
-46.8
-29.38
-8.12
14.01
34.29
51.01
63.56
72.19
77.58
80.4
81.11
80.04
77.49
73.89
69.82
65.91
62.76
60.76
59.95
60.08
60.78
61.58
62.19
62.36
61.92
60.69
58.49
55.21
50.95
45.97
40.66
35.33
30.09
24.82
19.32
13.48
7.34
1.18
-4.62
-9.81
-14.34
-18.48
-22.68
-27.5
-33.34
-40.26
-47.76
-54.71
-59.46
-60.22
-55.67
-45.5
-30.64
-13.13
4.54
20.18
32.47
41.14
46.7
49.96
51.62
51.99
51.16
49.25
46.58
43.67
41.13
39.41
38.68
38.78
39.31
39.84
39.96
39.45
38.22
36.26
33.66
30.45
26.73
22.48
17.7
12.35
6.42
0.04
-6.53
-12.9
-18.67
-23.51
-27.37
-30.44
-33.2
-36.26
-40.22
-45.52
-52.24
-59.93
-67.48
-73.12
-74.87
-71.11
-61.26
-46.08
-27.56
-8.28
9.35
23.76
34.39
41.54
45.84
47.86
47.99
46.51
43.78
40.27
36.65
33.53
31.39
30.42
30.48
31.21
32.15
32.85
33.02
32.52
31.31
29.4
26.82
23.58
19.82
15.72
11.54
7.47
3.57
-0.21
-3.95
-7.63
-11.12
-14.21
-16.78
-18.87
-20.74
-22.87
-25.84
-30.14
-36.08
-43.53
-51.8
-59.51
-64.79
-65.72
-60.95
-50.22
-34.51
-15.74
3.75
21.86
37.11
48.7
56.45
60.5
61.18
58.99
54.6
48.91
42.94
37.66
33.81
31.73
31.32
32.13
33.6
35.27
36.94
38.61
40.33
41.99
43.22
43.42
41.98
38.44
32.83
25.69
18.04
11.1
6.02
3.5
3.63
5.91
9.25
12.25
13.4
11.45
5.61
-4.1
-16.83
-31.07
-45.1
-57.34
-66.67
-72.35
-73.86
-70.69
-62.49
-49.34
-32.1
-12.58
6.88
24.04
37.43
46.76
52.76
56.63
59.44
61.67
63.2
63.58
62.54
60.17
56.99
53.77
51.09
49.23
48.04
47.11
46.0
44.38
42.13
39.26
35.91
32.23
28.38
24.51
20.74
17.14
13.68
10.26
6.79
3.32
0.09
-2.63
-4.62
-5.89
-6.74
-7.71
-9.38
-12.13
-16.01
-20.62
-25.12
-28.35
-29.08
-26.24
-19.32
-8.58
4.86
19.29
32.82
43.9
51.65
56.0
57.42
56.62
54.21
50.55
45.8
40.12
33.81
27.38
21.39
16.3
12.37
9.59
7.71
6.4
5.32
4.17
2.7
0.69
-2.03
-5.57
-9.91
-14.89
-20.25
-25.69
-30.99
-36.08
-40.96
-45.73
-50.38
-54.75
-58.6
-61.6
-63.65
-64.9
-65.83
-67.07
-69.18
-72.42
-76.56
-80.77
-83.75
-83.93
-79.94
-71.03
-57.48
-40.7
-22.88
-6.4
6.84
15.88
20.72
22.08
20.86
17.91
13.87
9.34
4.89
1.09
-1.58
-2.97
-3.25
-2.78
-2.04
-1.3
-0.65
-0.05
0.57
1.15
1.49
1.28
0.27
-1.67
-4.42
-7.64
-10.93
-13.89
-16.39
-18.55
-20.75
-23.34
-26.51
-30.12
-33.78
-37.03
-39.56
-41.36
-42.78
-44.38
-46.73
-50.21
-54.74
-59.71
-63.88
-65.62
-63.33
-56.03
-43.81
-27.94
-10.58
5.89
19.48
29.16
34.81
37.01
36.64
34.43
30.93
26.47
21.44
16.35
11.73
8.09
5.62
4.21
3.51
3.09
2.66
2.16
1.69
1.24
0.63
-0.56
-2.82
-6.41
-11.3
-17.09
-23.18
-29.01
-34.3
-39.06
-43.59
-48.23
-53.15
-58.29
-63.36
-68.02
-72.08
-75.61
-78.97
-82.65
-87.09
-92.46
-98.5
-104.36
-108.7
-109.87
-106.32
-97.21
-82.76
-64.42
-44.45
-25.33
-8.94
3.86
13.21
19.9
24.84
28.69
31.67
33.81
35.05
35.57
35.65
35.74
36.17
37.18
38.74
40.65
42.71
44.75
46.78
48.99
51.57
54.67
58.2
61.85
65.04
67.21
67.9
67.0
64.78
61.95
59.42
58.05
58.33
60.16
62.86
65.33
66.38
65.14
61.36
55.72
49.74
45.51
45.06
49.6
58.88
71.14
83.5
92.99
97.53
96.48
90.32
79.89
65.4
46.11
20.79
-11.32
-49.63
-91.85
-134.41
-173.46
-206.04
-230.8
-248.11
-259.46
-266.6
-270.74
-272.11
-269.95
-262.81
-248.89
-226.74
-196.02
-158.45
-118.18
-81.23
-53.73
-39.51
-38.41
-46.1
-55.83
-61.52
-60.13
-52.36
-41.27
-29.87
-19.39
-9.14
2.18
14.84
27.42
37.38
42.58
42.41
37.98
31.48
25.05
19.98
16.54
14.55
13.99
15.48
19.96
28.18
39.9
53.61
66.77
76.56
80.85
78.94
71.69
61.13
49.87
40.35
34.41
33.03
36.24
43.2
52.24
61.29
68.41
72.48
73.54
72.55
70.81
69.26
68.01
66.44
63.53
58.26
49.98
38.58
24.57
9.13
-5.98
-18.83
-27.88
-32.52
-33.31
-31.72
-29.43
-27.65
-26.78
-26.59
-26.78
-27.39
-28.91
-31.81
-36.08
-41.0
-45.34
-47.86
-47.96
-45.98
-43.02
-40.51
-39.56
-40.68
-43.68
-47.88
-52.52
-57.03
-61.17
-64.97
-68.58
-72.22
-76.11
-80.38
-84.95
-89.47
-93.33
-95.82
-96.45
-95.19
-92.52
-89.26
-86.17
-83.67
-81.81
-80.38
-79.23
-78.48
-78.49
-79.71
-82.4
-86.53
-91.61
-96.65
-100.17
-100.29
-95.11
-83.2
-64.08
-38.59
-8.79
22.47
52.17
77.81
97.78
111.4
118.87
120.91
118.56
112.91
105.14
96.32
87.53
79.76
73.78
70.05
68.59
68.99
70.47
72.2
73.49
73.99
73.68
72.72
71.26
69.21
66.29
62.05
56.17
48.59
39.69
30.22
21.03
12.98
6.53
1.76
-1.6
-4.14
-6.59
-9.68
-14.09
-20.19
-27.81
-36.07
-43.38
-47.7
-47.14
-40.67
-28.5
-12.14
6.07
23.67
38.84
50.68
59.24
65.06
68.78
70.84
71.47
70.88
69.43
67.67
66.22
65.59
65.93
67.04
68.42
69.44
69.63
68.7
66.71
63.88
60.59
57.15
53.72
50.31
46.73
42.83
38.49
33.8
28.94
24.14
19.49
14.97
10.42
5.64
0.44
-5.3
-11.7
-18.78
-26.35
-33.8
-40.02
-43.46
-42.59
-36.41
-24.94
-9.34
8.34
25.74
40.89
52.54
60.32
64.47
65.57
64.24
61.01
56.4
50.93
45.22
39.92
35.64
32.81
31.61
31.9
33.21
34.92
36.4
37.15
36.91
35.68
33.63
30.93
27.71
23.92
19.44
14.21
8.3
2.01
-4.19
-9.84
-14.59
-18.34
-21.21
-23.55
-25.81
-28.47
-31.98
-36.59
-42.23
-48.34
-53.74
-56.88
-56.16
-50.51
-39.8
-24.99
-7.94
9.14
24.26
36.12
44.18
48.59
49.87
48.58
45.29
40.58
35.12
29.71
25.17
22.12
20.75
20.86
21.79
22.82
23.38
23.27
22.59
21.6
20.47
19.15
17.37
14.8
11.23
6.72
1.65
-3.48
-8.2
-12.21
-15.52
-18.38
-21.19
-24.42
-28.42
-33.33
-38.91
-44.46
-48.9
-50.92
-49.38
-43.68
-34.03
-21.5
-7.68
5.77
17.52
26.81
33.4
37.44
39.15
38.76
36.47
32.64
27.79
22.7
18.27
15.2
13.9
14.29
15.88
17.91
19.72
20.83
21.14
20.82
20.18
19.39
18.42
16.98
14.7
11.26
6.65
1.14
-4.65
-10.08
-14.65
-18.11
-20.59
-22.5
-24.41
-26.92
-30.55
-35.46
-41.4
-47.48
-52.3
-54.26
-52.03
-45.13
-34.11
-20.45
-6.05
7.3
18.45
26.96
32.89
36.56
38.23
38.07
36.26
33.13
29.22
25.23
21.85
19.49
18.29
18.01
18.21
18.41
18.24
17.57
16.41
14.99
13.45
11.9
10.24
8.26
5.67
2.19
-2.27
-7.61
-13.48
-19.41
-24.85
-29.35
-32.65
-34.68
-35.62
-35.88
-35.97
-36.48
-37.83
-40.03
-42.53
-44.21
-43.65
-39.72
-32.05
-21.24
-8.75
3.6
14.2
22.09
27.01
29.31
29.55
28.28
25.97
23.02
19.82
16.79
14.33
12.71
12.07
12.37
13.42
14.91
16.44
17.65
18.22
17.99
16.9
15.03
12.59
9.75
6.71
3.52
0.25
-3.12
-6.58
-10.1
-13.66
-17.19
-20.59
-23.71
-26.4
-28.53
-30.19
-31.62
-33.24
-35.48
-38.5
-41.95
-44.93
-46.15
-44.34
-38.78
-29.59
-17.77
-4.94
7.17
17.23
24.54
29.03
31.04
31.06
29.53
26.81
23.28
19.37
15.64
12.63
10.77
10.27
11.07
12.81
15.01
17.16
18.86
19.87
20.11
19.58
18.35
16.43
13.84
10.53
6.45
1.6
-3.89
-9.78
-15.69
-21.23
-26.07
-30.06
-33.25
-35.87
-38.33
-41.0
-44.16
-47.75
-51.28
-53.83
-54.22
-51.41
-44.83
-34.79
-22.42
-9.39
2.62
12.38
19.34
23.6
25.55
25.73
24.52
22.28
19.39
16.33
13.64
11.81
11.13
11.62
13.06
15.04
17.17
19.1
20.58
21.45
21.61
21.0
19.63
17.55
14.9
11.88
8.6
5.09
1.3
-2.79
-7.09
-11.36
-15.26
-18.49
-20.94
-22.72
-24.17
-25.7
-27.71
-30.51
-34.23
-38.74
-43.49
-47.45
-49.25
-47.57
-41.6
-31.47
-18.28
-3.81
9.97
21.54
30.09
35.49
38.14
38.65
37.64
35.65
33.19
30.69
28.53
26.92
25.9
25.34
25.07
24.89
24.69
24.42
24.08
23.65
23.05
22.1
20.58
18.33
15.27
11.56
7.48
3.38
-0.47
-4.01
-7.4
-10.86
-14.58
-18.5
-22.36
-25.81
-28.58
-30.7
-32.43
-34.3
-36.82
-40.41
-45.15
-50.65
-56.03
-59.98
-61.02
-57.94
-50.23
-38.37
-23.76
-8.33
6.0
17.8
26.36
31.71
34.27
34.69
33.54
31.29
28.38
25.26
22.39
20.22
19.04
18.94
19.78
21.2
22.87
24.47
25.89
27.04
27.81
27.98
27.2
25.23
22.01
17.78
13.07
8.47
4.44
1.11
-1.67
-4.24
-6.88
-9.76
-12.77
-15.74
-18.45
-20.76
-22.76
-24.66
-26.81
-29.58
-33.24
-37.85
-43.02
-47.95
-51.38
-51.95
-48.61
-41.03
-29.79
-16.3
-2.33
10.43
20.83
28.41
33.25
35.74
36.29
35.3
33.09
29.98
26.4
22.86
19.87
17.87
17.13
17.69
19.3
21.51
23.75
25.53
26.44
26.28
24.98
22.61
19.35
15.48
11.32
7.17
3.24
-0.4
-3.82
-7.13
-10.4
-13.62
-16.72
-19.54
-22.05
-24.28
-26.41
-28.73
-31.59
-35.31
-39.98
-45.28
-50.29
-53.61
-53.73
-49.54
-40.8
-28.31
-13.76
0.88
13.86
24.11
31.28
35.58
37.46
37.42
35.89
33.26
29.96
26.46
23.26
20.78
19.29
18.81
19.2
20.13
21.27
22.36
23.27
23.88
24.09
23.66
22.32
19.9
16.42
12.16
7.59
3.19
-0.7
-4.02
-6.95
-9.79
-12.77
-15.99
-19.34
-22.59
-25.44
-27.71
-29.32
-30.45
-31.47
-32.9
-35.28
-38.91
-43.63
-48.68
-52.68
-54.02
-51.29
-43.86
-32.14
-17.57
-2.16
12.07
23.64
31.87
36.83
39.05
39.16
37.69
35.03
31.53
27.6
23.79
20.68
18.77
18.27
19.02
20.53
22.21
23.58
24.41
24.74
24.71
24.41
23.67
22.22
19.77
16.29
12.09
7.73
3.81
0.73
-1.47
-3.09
-4.55
-6.25
-8.36
-10.81
-13.43
-15.95
-18.18
-20.05
-21.65
-23.22
-25.15
-27.88
-31.66
-36.4
-41.44
-45.6
-47.35
-45.4
-39.05
-28.65
-15.43
-1.23
12.11
23.17
31.25
36.27
38.58
38.69
37.08
34.17
30.4
26.29
22.4
19.29
17.29
16.46
16.57
17.24
18.06
18.78
19.31
19.62
19.64
19.19
17.95
15.66
12.26
7.92
3.13
-1.52
-5.57
-8.81
-11.35
-13.55
-15.86
-18.55
-21.64
-24.84
-27.74
-30.02
-31.66
-32.9
-34.23
-36.14
-39.0
-42.84
-47.35
-51.8
-55.14
-56.14
-53.73
-47.34
-37.17
-24.25
-10.25
3.03
14.12
22.21
27.24
29.62
29.96
28.82
26.59
23.59
20.12
16.61
13.55
11.38
10.37
10.51
11.57
13.14
14.81
16.21
17.13
17.41
16.95
15.64
13.45
10.47
6.92
3.2
-0.36
-3.48
-6.14
-8.48
-10.7
-12.97
-15.29
-17.56
-19.64
-21.5
-23.15
-24.78
-26.65
-29.02
-32.16
-36.13
-40.77
-45.44
-49.03
-50.21
-47.78
-41.16
-30.63
-17.43
-3.29
9.97
21.01
29.18
34.46
37.21
37.9
36.99
34.77
31.55
27.68
23.66
20.03
17.28
15.71
15.36
16.03
17.32
18.85
20.28
21.46
22.27
22.61
22.29
21.11
18.89
15.7
11.85
7.79
3.95
0.53
-2.57
-5.63
-8.94
-12.58
-16.31
-19.73
-22.51
-24.52
-25.98
-27.28
-28.9
-31.2
-34.42
-38.53
-43.18
-47.63
-50.77
-51.26
-48.03
-40.61
-29.48
-15.98
-1.98
10.72
20.87
27.99
32.26
34.26
34.56
33.61
31.72
29.13
26.19
23.32
20.95
19.42
18.88
19.23
20.25
21.65
23.14
24.51
25.58
26.21
26.24
25.52
23.92
21.43
18.2
14.57
10.96
7.73
5.03
2.76
0.54
-2.03
-5.22
-9.01
-13.11
-17.05
-20.44
-23.1
-25.14
-26.94
-29.02
-31.88
-35.77
-40.5
-45.3
-48.89
-49.81
-46.84
-39.5
-28.34
-14.82
-0.88
11.64
21.48
28.18
31.93
33.27
32.8
30.96
28.08
24.57
20.88
17.54
15.04
13.67
13.45
14.13
15.3
16.54
17.57
18.24
18.55
18.53
18.11
17.16
15.48
12.99
9.76
6.04
2.18
-1.51
-4.92
-8.21
-11.65
-15.43
-19.51
-23.6
-27.24
-30.08
-32.01
-33.25
-34.3
-35.76
-38.11
-41.5
-45.61
-49.62
-52.35
-52.46
-48.98
-41.58
-30.82
-18.0
-4.8
7.2
16.91
23.91
28.3
30.5
30.97
30.1
28.19
25.56
22.58
19.67
17.27
15.7
15.08
15.33
16.24
17.52
18.92
20.24
21.32
21.94
21.85
20.82
18.75
15.76
12.19
8.45
4.9
1.66
-1.36
-4.39
-7.64
-11.16
-14.81
-18.33
-21.41
-23.91
-25.95
-27.85
-30.1
-33.2
-37.41
-42.6
-48.07
-52.64
-54.86
-53.44
-47.68
-37.74
-24.66
-10.11
4.1
16.47
26.09
32.69
36.47
37.89
37.46
35.68
33.03
29.95
26.88
24.21
22.22
21.09
20.86
21.4
22.51
23.9
25.27
26.33
26.85
26.61
25.49
23.37
20.3
16.42
12.07
7.67
3.64
0.29
-2.32
-4.42
-6.41
-8.73
-11.62
-14.99
-18.52
-21.79
-24.51
-26.72
-28.73
-31.03
-34.06
-37.93
-42.3
-46.37
-48.99
-48.97
-45.38
-37.92
-27.05
-13.98
-0.34
12.19
22.38
29.69
34.21
36.43
36.97
36.33
34.8
32.6
29.97
27.28
24.98
23.46
22.89
23.24
24.29
25.69
27.17
28.49
29.48
30.0
29.85
28.87
26.96
24.08
20.37
16.12
11.68
7.37
3.39
-0.26
-3.69
-7.08
-10.5
-13.85
-16.93
-19.5
-21.5
-23.01
-24.33
-25.9
-28.18
-31.52
-35.99
-41.16
-46.08
-49.41
-49.69
-45.97
-38.16
-27.16
-14.63
-2.4
8.05
15.96
21.29
24.44
25.92
26.06
24.99
22.8
19.67
16.0
12.38
9.45
7.7
7.36
8.33
10.21
12.45
14.52
15.99
16.62
16.34
15.21
13.36
10.93
8.12
5.08
1.97
-1.09
-4.06
-6.95
-9.84
-12.77
-15.72
-18.57
-21.22
-23.62
-25.84
-28.05
-30.53
-33.54
-37.19
-41.2
-44.86
-47.05
-46.53
-42.31
-34.16
-22.76
-9.57
3.59
15.1
23.97
29.9
33.16
34.28
33.8
32.18
29.79
26.95
23.99
21.19
18.8
16.97
15.81
15.36
15.56
16.28
17.25
18.19
18.78
18.81
18.15
16.76
14.7
12.13
9.24
6.23
3.25
0.35
-2.58
-5.68
-9.04
-12.67
-16.37
-19.9
-23.05
-25.76
-28.16
-30.6
-33.49
-37.14
-41.53
-46.18
-50.05
-51.8
-50.16
-44.41
-34.71
-22.15
-8.44
4.65
15.73
24.03
29.45
32.28
32.99
32.06
29.96
27.2
24.3
21.72
19.83
18.77
18.53
18.93
19.76
20.82
21.9
22.89
23.62
23.99
23.89
23.2
21.88
19.91
17.39
14.49
11.43
8.42
5.6
3.03
0.66
-1.6
-3.83
-5.99
-7.92
-9.43
-10.39
-10.85
-11.1
-11.61
-12.84
-14.92
-17.38
-19.17
-18.86
-15.04
-6.87
5.68
21.57
38.9
55.25
68.17
75.67
76.69
71.33
60.83
47.28
33.06
20.1
9.49
1.4
-4.49
-8.41
-10.06
-8.72
-3.52
5.96
19.23
34.81
50.37
63.22
70.79
71.16
63.6
48.89
29.32
8.24
-10.91
-25.52
-34.53
-38.3
-38.01
-34.82
-29.32
-21.5
-11.32
0.8
13.7
25.58
34.56
39.1
38.39
32.41
21.92
8.45
-5.83
-18.38
-26.9
-29.99
-27.67
-21.51
-14.07
-8.01
-5.13
-5.93
-9.64
-14.88
-20.28
-24.97
-28.68
-31.45
-33.37
-34.38
-34.42
-33.6
-32.32
-31.24
-30.92
-31.51
-32.62
-33.55
-33.57
-32.38
-30.23
-27.8
-25.84
-24.76
-24.52
-24.71
-24.85
-24.68
-24.29
-24.05
-24.4
-25.57
-27.59
-30.24
-33.29
-36.58
-40.15
-44.14
-48.65
-53.48
-58.0
-61.15
-61.73
-58.75
-51.87
-41.63
-29.28
-16.43
-4.55
5.45
13.23
18.85
22.47
24.19
24.09
22.4
19.64
16.58
14.0
12.44
12.07
12.67
13.83
15.16
16.37
17.27
17.74
17.7
17.11
16.02
14.6
13.07
11.66
10.46
9.44
8.42
7.14
5.35
2.91
-0.2
-3.87
-7.88
-11.97
-15.89
-19.47
-22.68
-25.68
-28.73
-32.18
-36.3
-41.08
-46.06
-50.28
-52.52
-51.6
-46.86
-38.45
-27.36
-15.12
-3.36
6.67
14.37
19.77
23.31
25.51
26.75
27.19
26.91
26.02
24.77
23.56
22.78
22.7
23.33
24.42
25.58
26.48
26.95
27.01
26.7
26.02
24.82
22.89
20.1
16.55
12.58
8.65
5.13
2.2
-0.23
-2.45
-4.75
-7.29
-10.04
-12.8
-15.36
-17.59
-19.5
-21.3
-23.28
-25.75
-28.92
-32.82
-37.22
-41.6
-45.13
-46.8
-45.58
-40.78
-32.31
-20.86
-7.83
5.05
16.18
24.57
29.91
32.57
33.16
32.3
30.39
27.73
24.62
21.52
19.0
17.54
17.36
18.24
19.69
21.11
22.09
22.5
22.48
22.26
22.0
21.65
20.98
19.77
17.96
15.71
13.34
11.18
9.35
7.68
5.81
3.35
0.03
-4.08
-8.73
-13.5
-18.04
-22.16
-25.9
-29.42
-32.98
-36.79
-41.0
-45.63
-50.46
-54.95
-58.21
-59.16
-56.84
-50.77
-41.23
-29.26
-16.36
-4.07
6.47
14.71
20.6
24.36
26.32
26.72
25.86
24.1
21.98
20.1
18.95
18.75
19.44
20.71
22.19
23.63
24.9
25.98
26.83
27.21
26.87
25.58
23.28
20.17
16.63
13.07
9.76
6.73
3.8
0.77
-2.5
-6.0
-9.59
-13.01
-16.08
-18.7
-20.95
-23.12
-25.63
-28.88
-33.16
-38.3
-43.67
-48.13
-50.32
-49.03
-43.64
-34.41
-22.4
-9.16
3.71
14.9
23.66
29.74
33.31
34.78
34.63
33.36
31.44
29.29
27.28
25.71
24.77
24.54
24.92
25.73
26.71
27.63
28.34
28.77
28.88
28.6
27.75
26.15
23.72
20.43
16.51
12.31
8.2
4.53
1.45
-1.04
-3.16
-5.22
-7.58
-10.42
-13.73
-17.24
-20.57
-23.35
-25.43
-26.98
-28.46
-30.5
-33.6
-37.82
-42.66
-47.0
-49.41
-48.54
-43.66
-34.9
-23.33
-10.61
1.56
11.86
19.65
24.91
28.03
29.46
29.56
28.57
26.72
24.4
22.09
20.34
19.55
19.84
21.01
22.66
24.27
25.42
25.96
25.95
25.56
24.98
24.2
23.08
21.4
18.95
15.75
12.04
8.22
4.74
1.88
-0.34
-2.14
-3.86
-5.75
-7.91
-10.22
-12.51
-14.57
-16.33
-17.88
-19.41
-21.18
-23.45
-26.48
-30.33
-34.83
-39.41
-43.13
-44.83
-43.44
-38.4
-29.91
-18.99
-7.12
4.08
13.42
20.28
24.63
26.84
27.36
26.58
24.82
22.39
19.68
17.14
15.18
14.07
13.85
14.35
15.27
16.3
17.24
17.99
18.61
19.13
19.53
19.68
19.36
18.32
16.47
13.86
10.78
7.58
4.52
1.67
-1.12
-4.07
-7.34
-10.91
-14.53
-17.82
-20.46
-22.36
-23.68
-24.77
-26.07
-27.92
-30.55
-33.97
-37.92
-41.82
-44.82
-45.89
-44.1
-38.96
-30.63
-19.96
-8.31
2.83
12.28
19.41
24.09
26.61
27.41
26.87
25.31
22.99
20.22
17.34
14.78
12.89
11.86
11.71
12.27
13.31
14.59
15.97
17.3
18.44
19.18
19.29
18.57
16.95
14.57
11.74
8.81
6.02
3.47
1.05
-1.47
-4.28
-7.44
-10.87
-14.34
-17.59
-20.42
-22.77
-24.77
-26.75
-29.12
-32.25
-36.24
-40.7
-44.71
-46.95
-46.12
-41.42
-32.94
-21.7
-9.27
2.64
12.73
20.36
25.46
28.32
29.35
28.94
27.51
25.43
23.14
21.02
19.34
18.24
17.75
17.79
18.22
18.9
19.69
20.48
21.19
21.73
21.96
21.71
20.77
18.95
16.27
12.88
9.12
5.37
2.01
-0.8
-3.06
-4.93
-6.65
-8.43
-10.36
-12.42
-14.5
-16.5
-18.34
-20.12
-22.0
-24.3
-27.32
-31.24
-35.87
-40.61
-44.35
-45.8
-43.82
-37.86
-28.26
-16.24
-3.5
8.25
17.75
24.41
28.31
29.92
29.85
28.69
26.87
24.79
22.78
21.15
20.12
19.82
20.19
21.09
22.3
23.64
24.96
26.13
27.01
27.49
27.4
26.61
25.08
22.81
19.93
16.64
13.22
9.89
6.83
4.03
1.35
-1.42
-4.42
-7.64
-10.92
-13.95
-16.5
-18.49
-20.09
-21.64
-23.58
-26.27
-29.84
-34.08
-38.34
-41.64
-42.87
-41.1
-35.97
-27.79
-17.58
-6.75
3.31
11.55
17.52
21.23
23.0
23.22
22.24
20.31
17.73
14.88
12.2
10.14
8.97
8.8
9.48
10.75
12.28
13.8
15.01
15.71
15.68
14.8
13.09
10.73
8.01
5.23
2.6
0.14
-2.25
-4.77
-7.56
-10.65
-13.92
-17.15
-20.09
-22.56
-24.53
-26.13
-27.67
-29.51
-31.98
-35.13
-38.65
-41.83
-43.67
-43.16
-39.6
-32.84
-23.44
-12.51
-1.42
8.61
16.75
22.68
26.45
28.33
28.6
27.52
25.35
22.48
19.44
16.81
15.04
14.38
14.78
15.95
17.46
18.96
20.15
20.87
21.05
20.61
19.48
17.65
15.18
12.26
9.17
6.13
3.23
0.43
-2.39
-5.33
-8.38
-11.41
-14.26
-16.84
-19.16
-21.36
-23.61
-26.14
-29.23
-33.05
-37.53
-42.18
-46.05
-47.89
-46.56
-41.41
-32.65
-21.3
-8.89
2.99
13.11
20.85
26.05
28.94
29.88
29.29
27.6
25.27
22.74
20.38
18.48
17.23
16.66
16.73
17.34
18.32
19.51
20.69
21.65
22.2
22.14
21.37
19.84
17.61
14.81
11.67
8.34
4.97
1.57
-1.87
-5.37
-8.91
-12.37
-15.61
-18.43
-20.72
-22.45
-23.83
-25.23
-27.1
-29.79
-33.32
-37.16
-40.34
-41.57
-39.74
-34.31
-25.55
-14.54
-2.77
8.3
17.58
24.59
29.33
32.1
33.31
33.28
32.27
30.53
28.32
26.0
23.91
22.38
21.59
21.53
22.03
22.79
23.54
24.07
24.3
24.15
23.56
22.44
20.74
18.53
16.02
13.45
11.05
8.86
6.69
4.29
1.5
-1.67
-5.02
-8.29
-11.28
-13.95
-16.39
-18.77
-21.33
-24.28
-27.8
-31.96
-36.57
-41.02
-44.29
-45.19
-42.78
-36.75
-27.68
-16.87
-5.91
3.81
11.46
16.82
20.13
21.8
22.2
21.55
20.02
17.82
15.3
12.9
11.07
10.09
10.04
10.81
12.02
13.27
14.16
14.5
14.23
13.45
12.3
10.85
9.1
6.96
4.38
1.33
-2.1
-5.74
-9.35
-12.69
-15.58
-17.99
-20.02
-21.85
-23.75
-25.92
-28.52
-31.56
-34.9
-38.2
-40.93
-42.34
-41.63
-38.14
-31.69
-22.68
-12.06
-1.14
8.8
16.81
22.44
25.67
26.81
26.29
24.53
21.97
19.05
16.22
13.87
12.36
11.84
12.31
13.63
15.48
17.51
19.28
20.44
20.73
20.05
18.47
16.18
13.43
10.36
7.11
3.71
0.21
-3.29
-6.65
-9.76
-12.52
-14.91
-17.03
-19.0
-20.96
-23.06
-25.52
-28.52
-32.15
-36.23
-40.19
-43.04
-43.63
-40.98
-34.76
-25.46
-14.28
-2.83
7.4
15.39
20.75
23.68
24.61
24.08
22.55
20.37
17.9
15.49
13.5
12.16
11.61
11.75
12.35
13.18
14.05
14.83
15.48
15.89
15.91
15.34
14.03
11.95
9.24
6.15
3.02
0.15
-2.27
-4.22
-5.77
-7.14
-8.54
-10.13
-12.01
-14.16
-16.55
-19.03
-21.49
-23.79
-25.86
-27.6
-28.87
-29.43
-28.88
-26.71
-22.41
-15.76
-7.01
3.12
13.49
22.91
30.34
35.23
37.42
37.19
35.05
31.59
27.43
23.18
19.44
16.68
15.09
14.53
14.54
14.49
13.96
12.89
11.8
11.53
12.85
16.05
20.6
25.37
29.03
30.78
30.87
30.71
32.28
37.27
46.07
57.41
68.62
76.57
78.68
73.69
61.95
45.24
26.45
9.02
-3.84
-9.95
-9.05
-3.24
3.41
6.26
1.97
-9.89
-26.65
-43.63
-56.31
-62.23
-61.85
-58.06
-54.44
-53.58
-55.96
-59.95
-62.87
-62.29
-56.96
-47.0
-33.31
-16.74
2.26
23.65
47.15
71.69
95.19
114.99
128.87
135.99
137.23
134.87
131.66
129.83
130.45
133.47
137.96
142.77
146.78
149.1
149.19
146.87
142.57
137.42
133.39
132.89
138.12
150.18
168.17
188.92
207.49
218.26
216.43
199.54
168.05
125.16
75.86
25.36
-21.99
-63.61
-98.66
-127.75
-152.32
-174.22
-195.21
-216.65
-239.51
-264.09
-290.27
-317.5
-345.25
-373.52
-403.48
-437.66
-479.18
-529.89
-588.16
-647.72
-698.47
-729.56
-733.46
-708.99
-661.86
-602.03
-539.57
-481.02
-427.86
-377.6
-326.16
-270.0
-206.74
-134.96
-54.04
35.02
128.27
218.25
295.67
352.65
386.06
399.19
400.35
399.11
402.24
411.5
423.99
434.87
440.13
438.06
429.14
414.76
396.07
373.69
348.27
321.0
293.85
269.08
248.48
232.56
220.34
209.64
198.05
183.83
166.47
146.87
126.8
108.01
91.51
77.16
63.91
50.59
36.55
21.71
6.9
-6.58
-17.57
-25.63
-31.38
-36.34
-42.35
-50.8
-62.67
-77.55
-93.93
-109.78
-123.44
-134.22
-142.58
-149.65
-156.56
-164.51
-173.51
-182.43
-189.03
-190.52
-184.35
-168.99
-144.5
-108.85
-64.01
-15.24
30.34
67.05
92.83
109.13
118.8
123.87
124.54
118.6
104.96
84.44
60.19
36.45
16.83
2.96
-5.82
-11.6
-17.3
-23.3
-29.55
-35.38
-40.21
-44.07
-47.61
-51.67
-56.84
-63.56
-71.71
-81.01
-90.92
-100.88
-110.39
-119.06
-126.58
-132.54
-136.58
-138.04
-136.31
-130.81
-121.26
-107.97
-91.87
-74.32
-56.68
-40.09
-25.1
-11.89
-0.34
9.66
18.06
24.61
29.21
32.08
33.93
35.75
38.34
42.0
46.37
50.71
54.31
56.9
58.76
60.38
61.99
63.31
63.63
62.24
58.74
53.32
46.46
38.69
30.17
20.75
10.3
-0.99
-12.55
-23.71
-33.96
-43.09
-51.12
-58.08
-63.85
-67.98
-69.64
-67.76
-61.31
-49.66
-32.91
-12.06
11.22
35.06
57.89
78.66
96.64
111.19
121.61
127.5
129.21
128.25
126.81
126.73
128.46
130.68
131.01
127.2
118.07
103.74
85.11
63.24
39.09
13.76
-11.12
-33.46
-51.37
-64.19
-72.92
-79.69
-86.47
-93.61
-99.4
-100.88
-95.49
-82.61
-64.04
-43.14
-23.46
-7.34
4.6
13.15
19.67
25.17
29.98
33.81
36.25
37.19
36.95
36.14
35.38
34.94
34.57
33.58
31.06
26.49
20.12
13.24
7.77
5.63
7.82
13.95
22.37
30.84
37.54
41.6
43.37
43.81
43.91
44.16
44.5
44.67
44.71
45.14
46.82
50.64
57.06
65.91
76.42
87.35
97.32
105.09
109.82
111.16
109.31
104.85
98.52
91.04
82.91
74.44
65.83
57.28
49.09
41.56
34.92
29.14
23.9
18.67
12.9
6.15
-1.71
-10.53
-19.9
-29.38
-38.47
-46.7
-53.65
-58.98
-62.5
-64.28
-64.72
-64.45
-64.15
-64.29
-64.92
-65.71
-66.01
-65.23
-62.96
-59.19
-54.18
-48.43
-42.47
-36.78
-31.89
-28.25
-26.28
-26.16
-27.73
-30.46
-33.57
-36.34
-38.39
-39.81
-41.09
-42.82
-45.43
-48.84
-52.36
-54.85
-55.08
-52.07
-45.53
-35.99
-24.65
-13.06
-2.65
5.64
11.46
15.0
16.84
17.63
18.0
18.44
19.29
20.74
22.82
25.34
27.99
30.38
32.22
33.37
33.92
34.11
34.24
34.48
34.8
35.03
34.88
34.11
32.62
30.53
28.09
25.57
23.22
21.06
18.92
16.49
13.38
9.27
4.05
-2.19
-9.11
-16.14
-22.57
-27.58
-30.5
-30.98
-29.11
-25.47
-20.87
-16.13
-11.82
-8.21
-5.29
-3.04
-1.48
-0.71
-0.88
-1.94
-3.7
-5.79
-7.88
-9.72
-11.27
-12.64
-13.94
-15.23
-16.42
-17.34
-17.77
-17.55
-16.66
-15.23
-13.46
-11.63
-10.06
-9.08
-8.94
-9.74
-11.36
-13.45
-15.57
-17.31
-18.46
-19.01
-19.17
-19.23
-19.49
-20.17
-21.3
-22.66
-23.8
-24.1
-22.99
-20.13
-15.64
-10.01
-4.0
1.6
6.23
9.6
11.69
12.6
12.53
11.63
10.12
8.2
6.14
4.19
2.54
1.26
0.33
-0.35
-0.9
-1.36
-1.75
-2.02
-2.18
-2.31
-2.59
-3.22
-4.35
-6.06
-8.26
-10.8
-13.44
-15.99
-18.32
-20.4
-22.3
-24.14
-26.1
-28.34
-30.94
-33.81
-36.65
-38.89
-39.91
-39.22
-36.67
-32.55
-27.47
-22.18
-17.25
-13.0
-9.48
-6.61
-4.35
-2.72
-1.85
-1.83
-2.65
-4.16
-6.07
-8.04
-9.75
-11.02
-11.85
-12.41
-13.0
-13.89
-15.18
-16.76
-18.43
-19.94
-21.2
-22.31
-23.49
-25.05
-27.15
-29.84
-32.94
-36.2
-39.29
-42.04
-44.38
-46.44
-48.57
-51.23
-54.97
-60.19
-66.94
-74.52
-81.49
-85.8
-85.38
-78.88
-66.21
-48.77
-28.96
-9.4
7.85
21.76
32.29
39.91
45.1
48.07
48.83
47.48
44.45
40.57
36.84
34.04
32.5
31.94
31.77
31.33
30.24
28.52
26.49
24.57
22.91
21.3
19.18
15.87
10.93
4.42
-3.12
-10.79
-17.75
-23.53
-28.25
-32.54
-37.24
-43.09
-50.47
-59.27
-68.88
-78.12
-85.38
-88.79
-86.65
-78.1
-63.49
-44.47
-23.56
-3.38
14.09
27.83
37.74
44.16
47.48
47.97
45.96
41.99
36.97
31.99
28.01
25.52
24.46
24.29
24.34
24.13
23.6
23.11
23.17
24.07
25.56
26.92
27.04
25.01
20.48
13.81
5.97
-1.89
-8.96
-15.03
-20.43
-25.94
-32.38
-40.36
-50.1
-61.06
-71.94
-80.7
-84.92
-82.6
-72.86
-56.39
-35.32
-12.59
9.02
27.56
42.09
52.5
59.05
62.0
61.66
58.55
53.53
47.8
42.6
38.81
36.78
36.27
36.63
37.18
37.53
37.67
37.99
38.98
40.82
43.24
45.37
46.1
44.47
40.08
33.34
25.26
17.02
9.52
3.03
-2.79
-8.67
-15.29
-23.08
-31.91
-41.15
-49.56
-55.41
-56.82
-52.21
-40.95
-23.76
-2.7
19.4
39.79
56.58
69.04
77.31
81.95
83.46
82.2
78.53
73.14
67.04
61.28
56.63
53.32
51.03
49.25
47.51
45.63
43.74
42.02
40.6
39.36
38.04
36.22
33.54
29.79
25.04
19.57
13.84
8.29
3.21
-1.36
-5.66
-10.02
-14.69
-19.59
-24.31
-28.09
-30.1
-29.57
-26.15
-20.0
-11.78
-2.53
6.56
14.49
20.61
24.64
26.7
27.1
26.27
24.68
22.75
20.82
19.1
17.67
16.45
15.24
13.92
12.41
10.83
9.31
7.96
6.8
5.75
4.66
3.38
1.82
-0.04
-2.15
-4.44
-6.87
-9.39
-11.99
-14.7
-17.57
-20.66
-24.0
-27.43
-30.55
-32.75
-33.32
-31.72
-27.77
-21.69
-14.16
-5.96
2.12
9.55
15.97
21.17
25.1
27.87
29.86
31.69
34.14
37.8
42.88
49.06
55.6
61.57
66.18
68.98
69.91
69.13
66.89
63.3
58.3
51.68
43.24
32.99
21.32
8.96
-3.02
-13.63
-22.07
-27.91
-31.06
-31.66
-30.01
-26.64
-22.29
-17.87
-14.32
-12.3
-12.09
-13.45
-15.8
-18.43
-20.67
-21.99
-21.96
-20.3
-16.99
-12.34
-6.92
-1.45
3.5
7.64
10.97
13.62
15.7
17.18
17.92
17.73
16.46
14.08
10.71
6.73
2.78
-0.34
-1.75
-0.83
2.69
8.61
16.55
26.08
36.81
48.26
59.71
70.1
78.33
83.71
86.25
86.8
86.56
86.44
86.57
86.16
83.99
78.93
70.56
59.3
46.17
32.41
18.99
6.49
-4.86
-15.06
-24.25
-32.56
-40.13
-47.09
-53.42
-59.07
-63.89
-67.86
-71.21
-74.41
-78.05
-82.68
-88.44
-95.0
-101.76
-107.98
-113.27
-117.61
-121.39
-125.12
-129.23
-134.02
-139.51
-145.58
-151.9
-157.95
-163.08
-166.66
-168.23
-167.7
-165.33
-161.6
-156.91
-151.39
-144.7
-136.33
-126.06
-114.43
-102.92
-93.72
-88.96
-89.87
-96.26
-106.65
-119.09
-132.2
-145.89
-161.08
-178.83
-199.05
-219.91
-238.25
-250.7
-255.19
-251.71
-242.15
-229.23
-215.2
-200.83
-185.44
-167.67
-146.58
-122.59
-97.57
-74.24
-55.13
-41.43
-32.49
-26.02
-18.98
-8.7
6.37
26.38
50.49
77.54
106.52
136.88
168.27
200.13
231.52
261.08
287.43
309.72
328.0
343.4
357.54
371.95
387.35
403.33
418.54
431.37
440.68
446.26
448.87
449.76
450.07
450.39
450.39
448.9
444.1
434.12
417.5
393.71
363.37
328.21
290.49
252.33
215.31
180.16
147.09
115.88
86.11
56.91
26.89
-5.55
-41.4
-80.04
-118.85
-153.58
-179.82
-194.69
-198.02
-192.59
-183.22
-175.35
-173.55
-180.41
-196.18
-218.85
-244.88
-270.05
-290.45
-303.17
-306.85
-301.55
-288.52
-269.57
-246.77
-222.27
-197.96
-175.4
-155.54
-138.48
-123.58
-109.73
-95.78
-80.89
-64.86
-48.01
-31.31
-16.16
-4.32
2.47
3.04
-2.4
-11.83
-21.64
-27.7
-26.89
-18.32
-3.6
14.03
31.23
45.81
57.18
65.82
72.57
78.05
82.69
86.83
90.69
94.07
95.95
94.6
88.21
75.82
57.93
36.39
13.64
-8.21
-27.9
-44.98
-59.39
-71.05
-79.74
-85.29
-87.89
-88.1
-86.82
-85.04
-83.61
-83.02
-83.26
-83.78
-83.71
-82.22
-78.92
-74.2
-69.08
-64.78
-62.07
-60.76
-59.72
-57.18
-51.32
-40.7
-24.58
-2.92
23.61
53.76
85.8
117.89
148.54
177.04
203.74
229.63
255.56
281.18
304.33
321.35
328.21
322.07
302.44
271.36
232.34
188.92
143.53
97.4
51.54
7.71
-31.11
-61.5
-80.97
-89.23
-88.57
-82.95
-76.54
-72.36
-71.68
-74.18
-78.66
-83.82
-88.8
-93.26
-97.31
-101.24
-105.35
-109.82
-114.61
-119.52
-124.16
-127.91
-129.78
-128.32
-121.82
-108.91
-89.22
-64.06
-36.43
-10.31
10.47
23.48
28.38
26.65
20.87
13.63
6.77
1.19
-2.89
-5.49
-6.6
-6.14
-4.19
-1.11
2.44
5.67
7.92
8.93
8.87
8.23
7.58
7.26
7.29
7.37
6.95
5.49
2.67
-1.51
-6.65
-12.05
-16.92
-20.65
-22.87
-23.63
-23.26
-22.24
-21.11
-20.46
-20.79
-22.41
-25.24
-28.63
-31.44
-32.38
-30.45
-25.53
-18.4
-10.5
-3.35
2.06
5.45
7.2
7.88
7.91
7.39
6.18
4.17
1.43
-1.7
-4.79
-7.51
-9.66
-11.24
-12.3
-12.9
-13.0
-12.52
-11.4
-9.77
-7.9
-6.26
-5.28
-5.28
-6.31
-8.16
-10.46
-12.84
-15.17
-17.5
-19.99
-22.79
-25.82
-28.76
-31.19
-32.73
-33.3
-33.13
-32.74
-32.8
-33.92
-36.43
-40.17
-44.37
-47.71
-48.63
-45.88
-38.94
-28.32
-15.47
-2.19
9.88
19.76
27.2
32.49
36.13
38.63
40.34
41.58
42.6
43.72
45.14
46.99
49.2
51.58
53.81
55.64
56.95
57.87
58.81
60.21
62.33
64.92
67.15
67.81
65.8
60.59
52.51
42.66
32.41
22.93
14.55
6.73
-1.66
-11.78
-24.24
-38.85
-54.66
-70.51
-85.56
-99.73
-113.76
-128.86
-146.11
-165.99
-187.93
-210.32
-230.6
-245.64
-252.3
-248.28
-232.98
-207.97
-176.74
-143.57
-111.97
-83.31
-56.55
-29.04
1.84
37.07
75.44
114.11
150.08
181.46
207.93
230.18
248.83
263.65
273.51
277.15
274.13
265.36
252.88
238.91
224.8
210.34
193.85
172.84
144.87
108.27
62.7
9.77
-46.59
-100.3
-144.2
-172.07
-180.78
-171.3
-148.27
-117.96
-85.78
-54.92
-26.42
-0.86
20.06
33.02
34.06
20.5
-7.6
-47.12
-92.87
-138.97
-180.11
-212.15
-232.42
-239.78
-234.7
-219.22
-196.6
-170.7
-145.14
-122.73
-105.17
-93.02
-85.78
-82.07
-79.79
-76.62
-70.78
-61.91
-51.58
-43.09
-40.43
-46.99
-64.0
-89.72
-119.47
-146.68
-164.76
-169.15
-158.67
-135.8
-105.7
-74.33
-46.61
-25.23
-10.5
-1.12
4.81
8.98
12.66
16.85
22.49
30.35
40.6
52.48
64.38
74.44
81.4
85.41
88.14
92.23
100.11
112.94
130.07
149.17
167.17
181.29
189.8
192.28
189.33
182.03
171.52
158.8
144.76
130.31
116.46
104.22
94.4
87.27
82.51
79.19
76.13
72.26
67.07
60.75
53.99
47.59
42.07
37.37
32.92
27.91
21.64
13.94
5.2
-3.77
-12.06
-19.01
-24.53
-29.01
-33.26
-38.17
-44.46
-52.5
-62.09
-72.38
-81.78
-88.19
-89.38
-83.7
-70.78
-51.73
-29.06
-5.81
15.23
32.34
44.98
53.58
58.99
61.98
63.06
62.53
60.64
57.79
54.55
51.56
49.3
48.02
47.61
47.74
48.02
48.13
47.98
47.63
47.2
46.72
46.1
45.03
43.13
40.08
35.71
30.15
23.76
17.09
10.67
4.92
-0.11
-4.61
-9.06
-14.0
-19.98
-27.34
-36.06
-45.59
-54.63
-61.36
-63.71
-60.06
-49.94
-34.28
-15.27
4.29
21.84
35.75
45.5
51.51
54.63
55.67
55.24
53.72
51.43
48.75
46.12
43.98
42.6
42.02
42.05
42.31
42.4
42.0
40.96
39.32
37.22
34.81
32.16
29.19
25.7
21.45
16.29
10.25
3.57
-3.35
-10.09
-16.3
-21.88
-26.92
-31.74
-36.7
-42.22
-48.62
-56.08
-64.45
-73.06
-80.65
-85.41
-85.45
-79.32
-66.71
-48.61
-27.26
-5.41
14.38
30.4
42.03
49.51
53.64
55.28
55.19
53.9
51.85
49.41
46.98
44.9
43.41
42.61
42.41
42.63
43.11
43.69
44.25
44.67
44.68
43.98
42.28
39.47
35.68
31.22
26.47
21.62
16.7
11.58
6.12
0.37
-5.41
-10.83
-15.5
-19.26
-22.2
-24.74
-27.49
-31.06
-35.88
-41.82
-48.02
-52.9
-54.48
-50.87
-40.98
-25.05
-4.65
17.62
38.83
56.55
69.27
76.57
78.95
77.31
72.7
65.99
57.86
48.77
39.08
29.12
19.2
9.66
0.8
-7.14
-14.01
-19.78
-24.49
-28.21
-31.07
-33.2
-34.74
-35.88
-36.79
-37.59
-38.31
-38.94
-39.38
-39.59
-39.6
-39.54
-39.64
-40.08
-40.97
-42.27
-43.79
-45.37
-46.99
-48.89
-51.48
-55.18
-59.93
-65.0
-68.84
-69.48
-65.16
-55.02
-39.52
-20.43
-0.33
18.19
33.22
43.89
50.35
53.33
53.79
52.5
50.05
46.81
43.13
39.41
36.06
33.42
31.65
30.66
30.24
30.15
30.15
30.1
29.87
29.24
27.96
25.77
22.58
18.46
13.75
8.8
3.9
-0.86
-5.6
-10.52
-15.74
-21.17
-26.51
-31.32
-35.28
-38.35
-40.89
-43.49
-46.86
-51.62
-57.99
-65.61
-73.38
-79.58
-82.22
-79.58
-70.85
-56.55
-38.52
-19.39
-1.8
12.41
22.47
28.68
31.91
33.14
33.09
32.22
30.85
29.31
28.02
27.34
27.46
28.29
29.45
30.49
31.09
31.23
31.11
31.05
31.16
31.26
30.89
29.49
26.72
22.64
17.71
12.55
7.73
3.46
-0.4
-4.19
-8.25
-12.66
-17.23
-21.57
-25.34
-28.45
-31.13
-33.85
-37.14
-41.47
-47.1
-53.94
-61.48
-68.65
-73.94
-75.6
-72.15
-62.96
-48.62
-30.86
-12.16
5.05
19.0
28.9
34.93
37.83
38.5
37.69
35.91
33.6
31.16
28.97
27.4
26.64
26.69
27.27
28.01
28.52
28.61
28.32
27.85
27.44
27.15
26.78
25.84
23.86
20.52
15.92
10.62
5.36
0.82
-2.71
-5.48
-8.13
-11.31
-15.38
-20.25
-25.42
-30.26
-34.27
-37.32
-39.74
-42.11
-45.14
-49.46
-55.36
-62.5
-69.85
-75.71
-78.07
-75.25
-66.47
-52.28
-34.5
-15.65
1.76
15.92
26.01
32.21
35.22
35.96
35.24
33.65
31.68
29.75
28.26
27.54
27.75
28.83
30.55
32.49
34.3
35.75
36.85
37.75
38.64
39.57
40.34
40.52
39.68
37.53
34.2
30.25
26.45
23.51
21.8
21.15
21.04
20.78
19.91
18.35
16.45
14.82
13.96
14.11
15.02
16.11
16.58
15.57
12.38
6.6
-1.71
-11.83
-22.41
-31.63
-37.68
-39.39
-36.61
-30.37
-22.48
-14.83
-8.78
-4.81
-2.63
-1.46
-0.56
0.62
2.4
4.98
8.52
13.05
18.28
23.5
27.73
29.96
29.59
26.6
21.6
15.54
9.37
3.69
-1.32
-5.83
-10.12
-14.36
-18.55
-22.5
-26.06
-29.14
-31.79
-34.15
-36.34
-38.37
-40.16
-41.58
-42.51
-42.88
-42.78
-42.35
-41.82
-41.38
-41.24
-41.55
-42.37
-43.68
-45.29
-46.83
-47.75
-47.42
-45.27
-41.08
-35.03
-27.77
-20.21
-13.18
-7.26
-2.62
0.84
3.37
5.17
6.38
7.13
7.53
7.8
8.12
8.67
9.47
10.45
11.47
12.39
13.1
13.52
13.61
13.31
12.59
11.41
9.78
7.73
5.35
2.69
-0.2
-3.3
-6.59
-10.02
-13.47
-16.77
-19.84
-22.64
-25.29
-27.91
-30.65
-33.58
-36.79
-40.37
-44.49
-49.31
-54.91
-60.99
-66.85
-71.37
-73.28
-71.45
-65.29
-54.82
-40.72
-24.14
-6.44
11.03
27.07
40.71
51.31
58.53
62.46
63.52
62.36
59.69
56.05
51.76
46.93
41.6
35.87
29.97
24.29
19.24
15.11
11.92
9.42
7.17
4.72
1.76
-1.7
-5.38
-8.8
-11.55
-13.51
-14.87
-16.14
-17.91
-20.51
-23.9
-27.69
-31.3
-34.32
-36.64
-38.52
-40.43
-42.89
-46.24
-50.62
-55.83
-61.26
-65.82
-67.95
-66.1
-59.16
-47.07
-30.96
-12.95
4.57
19.69
31.42
39.81
45.56
49.48
52.21
54.04
55.04
55.27
54.85
54.05
53.18
52.47
51.99
51.69
51.39
51.01
50.61
50.41
50.7
51.6
52.95
54.34
55.28
55.43
54.8
53.71
52.59
51.73
51.17
50.74
50.18
49.36
48.33
47.27
46.36
45.66
45.01
44.11
42.55
39.96
36.08
30.87
24.58
17.8
11.46
6.55
3.91
3.89
6.22
10.01
14.05
17.19
18.71
18.46
16.78
14.19
11.14
7.79
4.14
0.1
-4.26
-8.8
-13.33
-17.85
-22.52
-27.65
-33.57
-40.41
-48.1
-56.33
-64.69
-72.78
-80.38
-87.55
-94.61
-101.97
-109.91
-118.33
-126.74
-134.46
-141.08
-146.64
-151.84
-157.56
-164.51
-172.81
-182.05
-191.53
-200.68
-209.32
-217.54
-225.55
-233.43
-240.97
-247.7
-252.97
-255.93
-255.55
-250.64
-240.09
-223.12
-199.66
-170.57
-137.47
-102.43
-67.46
-34.14
-3.27
25.05
51.09
75.15
97.12
116.35
131.92
143.01
149.3
151.14
149.41
145.18
139.38
132.61
125.22
117.44
109.55
101.85
94.62
88.04
82.17
76.9
72.02
67.23
62.26
56.9
51.11
44.95
38.63
32.33
26.2
20.28
14.6
9.12
3.83
-1.4
-6.88
-13.0
-20.13
-28.25
-36.69
-44.08
-48.65
-48.78
-43.56
-33.29
-19.29
-3.56
11.96
25.88
37.6
47.13
54.75
60.75
65.2
68.05
69.25
68.99
67.73
66.14
64.95
64.71
65.61
67.4
69.59
71.55
72.82
73.23
72.79
71.68
70.01
67.82
65.01
61.46
57.1
52.0
46.39
40.61
35.07
30.08
25.71
21.8
17.95
13.73
8.71
2.57
-4.81
-13.25
-22.1
-30.15
-35.81
-37.53
-34.33
-26.22
-14.29
-0.34
13.69
26.24
36.47
44.2
49.71
53.45
55.88
57.31
58.0
58.11
57.72
56.97
55.96
54.88
53.9
53.12
52.57
52.12
51.6
50.81
49.61
47.85
45.49
42.52
39.02
35.15
31.04
26.86
22.64
18.42
14.14
9.75
5.27
0.7
-3.89
-8.45
-12.92
-17.36
-21.89
-26.79
-32.4
-38.85
-45.92
-52.79
-58.2
-60.68
-59.12
-53.15
-43.33
-31.0
-17.85
-5.46
5.15
13.54
19.8
24.24
27.23
29.06
29.9
29.91
29.3
28.4
27.6
27.23
27.46
28.21
29.2
30.07
30.55
30.61
30.39
30.08
29.76
29.34
28.6
27.21
24.97
21.9
18.22
14.29
10.46
7.02
4.08
1.57
-0.71
-2.99
-5.47
-8.15
-10.99
-13.89
-16.51
-18.21
-18.02
-14.94
-8.13
2.56
16.87
33.63
51.12
67.63
81.91
93.46
102.24
109.01
114.68
120.95
128.9
138.83
150.42
162.88
175.38
186.79
197.19
207.06
218.4
232.51
249.74
269.5
290.27
310.3
327.03
340.01
349.83
359.89
373.2
391.39
413.94
437.72
458.07
469.33
469.88
447.03
395.66
317.21
220.03
116.88
19.64
-54.94
-108.0
-144.69
-169.74
-184.46
-190.25
-191.87
-194.29
-203.01
-222.5
-256.07
-302.12
-356.18
-411.17
-461.0
-501.8
-532.26
-553.73
-568.88
-581.59
-593.38
-603.76
-609.46
-605.75
-587.47
-550.51
-494.35
-423.29
-346.89
-276.06
-220.17
-183.36
-163.43
-153.29
-144.62
-132.11
-115.23
-97.63
-83.39
-74.47
-69.47
-64.27
-53.98
-35.04
-6.41
30.91
74.58
121.95
170.55
215.16
249.42
268.12
269.31
254.41
227.02
191.24
150.89
109.57
70.75
37.73
13.1
-1.9
-8.09
-7.13
-1.09
7.72
16.79
23.43
25.57
22.33
14.42
3.82
-6.89
-15.53
-20.97
-23.19
-22.82
-20.62
-17.08
-12.53
-7.4
-2.41
1.52
3.55
3.41
1.39
-1.66
-4.67
-6.89
-8.13
-8.78
-9.46
-10.75
-12.8
-15.24
-17.44
-18.78
-18.97
-18.28
-17.36
-16.89
-17.24
-18.16
-18.9
-18.49
-16.18
-11.75
-5.58
1.42
8.23
13.94
18.11
20.73
22.18
23.07
23.95
25.14
26.74
28.6
30.5
32.25
33.71
34.85
35.68
36.3
36.83
37.45
38.34
39.55
40.98
42.34
43.29
43.53
42.88
41.32
38.9
35.72
31.78
27.09
21.67
15.59
9.01
2.14
-4.78
-11.5
-17.79
-23.46
-28.46
-32.88
-36.9
-40.76
-44.59
-48.27
-51.4
-53.45
-53.85
-52.2
-48.37
-42.54
-35.1
-26.69
-18.04
-9.86
-2.74
3.01
7.37
10.56
12.87
14.58
15.78
16.52
16.85
16.87
16.79
16.8
17.04
17.47
18.02
18.62
19.2
19.79
20.33
20.7
20.71
20.18
19.04
17.36
15.33
13.14
10.92
8.59
5.96
2.8
-1.07
-5.71
-10.99
-16.63
-22.33
-27.74
-32.64
-36.95
-40.73
-44.18
-47.52
-50.82
-53.88
-56.17
-56.92
-55.3
-50.76
-43.26
-33.37
-22.11
-10.71
-0.28
8.41
14.95
19.32
21.64
22.18
21.29
19.48
17.31
15.39
14.16
13.81
14.19
14.94
15.66
16.1
16.28
16.39
16.76
17.58
18.83
20.29
21.63
22.59
23.02
22.93
22.39
21.53
20.36
18.86
16.99
14.75
12.22
9.57
7.0
4.67
2.66
0.94
-0.65
-2.29
-4.22
-6.57
-9.38
-12.54
-15.74
-18.48
-20.12
-20.05
-17.87
-13.57
-7.59
-0.75
6.06
12.06
16.78
20.08
22.09
23.02
23.08
22.5
21.44
20.12
18.75
17.55
16.68
16.23
16.2
16.5
16.97
17.48
17.97
18.41
18.8
19.12
19.28
19.11
18.47
17.25
15.47
13.22
10.7
8.06
5.46
2.98
0.64
-1.55
-3.61
-5.52
-7.27
-8.85
-10.29
-11.7
-13.22
-15.01
-17.17
-19.73
-22.6
-25.53
-28.15
-29.97
-30.48
-29.28
-26.26
-21.64
-16.0
-10.07
-4.55
0.09
3.66
6.23
7.97
9.05
9.61
9.77
9.63
9.37
9.18
9.27
9.77
10.64
11.76
12.91
13.87
14.53
14.87
14.92
14.76
14.39
13.77
12.82
11.55
9.99
8.28
6.56
4.88
3.27
1.67
0.01
-1.74
-3.53
-5.3
-6.95
-8.44
-9.81
-11.23
-12.89
-14.99
-17.51
-20.16
-22.4
-23.53
-23.02
-20.66
-16.68
-11.68
-6.4
-1.47
2.69
5.92
8.27
9.86
10.81
11.24
11.24
10.91
10.39
9.84
9.49
9.5
10.0
10.91
12.04
13.13
13.91
14.31
14.32
14.07
13.64
13.03
12.21
11.15
9.86
8.41
6.84
5.11
3.14
0.88
-1.6
-4.08
-6.31
-8.09
-9.39
-10.44
-11.64
-13.34
-15.73
-18.75
-21.97
-24.79
-26.5
-26.52
-24.55
-20.72
-15.5
-9.65
-3.9
1.23
5.51
8.97
11.74
13.94
15.56
16.5
16.68
16.09
14.91
13.5
12.33
11.87
12.42
14.0
16.32
18.96
21.49
23.64
25.43
27.12
29.03
31.41
34.24
37.23
39.94
41.86
42.61
41.95
39.84
36.42
31.89
26.49
20.55
14.51
8.86
4.08
0.51
-1.79
-2.99
-3.41
-3.45
-3.3
-2.91
-1.9
0.17
3.69
8.73
15.18
22.64
30.54
38.27
45.32
51.42
56.53
60.86
64.69
68.6
72.96
77.74
82.52
86.65
89.61
91.21
91.63
91.27
90.78
90.61
90.79
91.02
90.75
89.37
86.32
81.11
70.87
54.12
31.33
5.18
-19.98
-39.74
-51.33
-54.39
-50.69
-42.72
-33.3
-24.81
-19.09
-17.4
-20.44
-28.2
-39.76
-53.47
-66.79
-76.98
-82.02
-81.36
-75.76
-66.91
-56.63
-46.22
-36.32
-27.31
-19.66
-14.26
-12.07
-13.47
-17.69
-22.92
-26.8
-27.42
-24.25
-18.53
-13.17
-12.01
-18.64
-35.28
-61.58
-94.1
-126.72
-152.01
-163.52
-158.01
-136.68
-104.76
-69.53
-37.71
-13.3
3.17
13.72
21.02
26.69
30.68
31.91
29.51
23.78
16.21
8.59
2.09
-3.36
-8.76
-15.26
-23.34
-32.5
-41.35
-48.17
-51.62
-50.97
-46.23
-38.04
-27.52
-15.98
-4.43
6.85
18.18
29.75
41.0
50.29
55.59
55.52
50.4
42.29
34.13
28.31
25.55
24.81
24.19
22.19
18.52
14.16
10.5
8.35
7.38
6.38
4.05
-0.41
-6.83
-14.09
-20.84
-26.0
-29.24
-31.0
-32.07
-33.11
-34.47
-36.21
-38.28
-40.67
-43.45
-46.54
-49.56
-51.82
-52.59
-51.44
-48.47
-44.23
-39.51
-34.83
-30.26
-25.34
-19.5
-12.36
-4.06
4.77
13.19
20.32
25.63
29.09
31.05
32.0
32.35
32.19
31.4
29.86
27.55
24.79
22.09
19.97
18.76
18.43
18.67
18.98
19.0
18.55
17.69
16.63
15.52
14.39
13.09
11.4
9.14
6.28
3.0
-0.45
-3.79
-6.85
-9.55
-11.96
-14.2
-16.36
-18.53
-20.78
-23.21
-25.93
-28.99
-32.26
-35.34
-37.58
-38.18
-36.52
-32.34
-25.97
-18.22
-10.12
-2.64
3.63
8.41
11.79
13.98
15.19
15.51
15.0
13.71
11.79
9.55
7.39
5.73
4.81
4.63
4.95
5.4
5.67
5.61
5.23
4.66
3.95
3.06
1.86
0.23
-1.86
-4.32
-6.97
-9.6
-12.06
-14.3
-16.28
-18.1
-19.83
-21.67
-23.83
-26.54
-29.97
-34.08
-38.51
-42.52
-45.2
-45.63
-43.28
-38.18
-30.92
-22.49
-13.94
-6.15
0.34
5.31
8.79
10.98
12.17
12.64
12.69
12.55
12.39
12.3
12.35
12.59
13.09
13.84
14.76
15.66
16.3
16.49
16.15
15.29
14.02
12.44
10.56
8.35
5.73
2.63
-0.92
-4.81
-8.9
-13.06
-17.18
-21.22
-25.12
-28.82
-32.28
-35.57
-38.85
-42.39
-46.36
-50.6
-54.49
-56.99
-56.9
-53.41
-46.39
-36.6
-25.34
-14.11
-4.04
4.25
10.7
15.56
19.1
21.58
23.07
23.7
23.61
23.1
22.47
21.95
21.72
21.78
22.12
22.64
23.28
23.97
24.59
24.99
24.93
24.21
22.74
20.58
17.95
15.14
12.38
9.75
7.17
4.46
1.42
-2.04
-5.85
-9.85
-13.85
-17.7
-21.41
-25.11
-29.12
-33.71
-39.07
-45.03
-50.96
-55.76
-58.13
-56.95
-51.7
-42.72
-31.1
-18.4
-6.14
4.54
13.11
19.52
24.05
27.1
29.02
30.1
30.57
30.66
30.59
30.53
30.62
30.9
31.32
31.82
32.33
32.84
33.41
34.06
34.69
34.99
34.61
33.26
30.88
27.76
24.28
20.82
17.5
14.23
10.73
6.8
2.46
-2.15
-6.78
-11.23
-15.42
-19.33
-23.03
-26.66
-30.45
-34.65
-39.43
-44.71
-49.92
-54.02
-55.79
-54.11
-48.52
-39.33
-27.61
-14.87
-2.56
8.19
16.83
23.25
27.6
30.15
31.18
30.97
29.84
28.22
26.51
25.07
24.12
23.71
23.74
24.07
24.49
24.88
25.17
25.38
25.45
25.29
24.78
23.73
22.08
19.83
17.17
14.33
11.53
8.82
6.09
3.13
-0.23
-4.05
-8.23
-12.55
-16.77
-20.77
-24.62
-28.52
-32.83
-37.86
-43.76
-50.32
-56.86
-62.26
-65.12
-64.2
-58.88
-49.43
-36.99
-23.18
-9.63
2.49
12.62
20.71
26.96
31.54
34.54
36.03
36.22
35.46
34.28
33.11
32.29
31.92
31.91
32.1
32.33
32.55
32.72
32.82
32.71
32.18
31.01
29.03
26.29
22.98
19.48
16.13
13.07
10.21
7.27
3.96
0.14
-4.11
-8.55
-12.9
-17.01
-20.88
-24.63
-28.45
-32.55
-37.18
-42.55
-48.7
-55.27
-61.35
-65.53
-66.28
-62.55
-54.23
-42.28
-28.42
-14.53
-2.06
8.25
16.33
22.47
26.96
30.06
31.9
32.65
32.64
32.25
31.92
31.95
32.52
33.55
34.86
36.15
37.21
37.91
38.29
38.49
38.64
38.66
38.33
37.35
35.45
32.61
29.11
25.38
21.84
18.73
16.02
13.39
10.44
6.87
2.61
-2.14
-7.05
-11.75
-16.02
-19.81
-23.34
-26.95
-31.06
-36.01
-41.84
-48.2
-54.16
-58.46
-59.76
-57.09
-50.29
-40.02
-27.65
-14.8
-2.88
7.23
15.2
21.13
25.32
28.05
29.56
30.05
29.84
29.29
28.8
28.67
29.04
29.82
30.81
31.77
32.54
33.1
33.48
33.74
33.84
33.64
32.93
31.49
29.2
26.02
22.15
17.89
13.59
9.55
5.91
2.62
-0.53
-3.79
-7.3
-11.04
-14.83
-18.42
-21.6
-24.3
-26.63
-28.87
-31.37
-34.5
-38.56
-43.52
-48.97
-54.05
-57.57
-58.28
-55.36
-48.65
-38.78
-27.03
-14.91
-3.76
5.53
12.62
17.55
20.59
22.02
22.16
21.31
19.89
18.33
17.02
16.22
15.97
16.17
16.67
17.36
18.24
19.4
20.86
22.51
24.13
25.36
25.87
25.45
24.05
21.77
18.85
15.62
12.35
9.22
6.22
3.19
-0.07
-3.64
-7.46
-11.26
-14.76
-17.76
-20.3
-22.62
-25.12
-28.17
-32.05
-36.84
-42.28
-47.72
-52.11
-54.2
-52.9
-47.68
-38.87
-27.61
-15.45
-3.94
5.87
13.55
19.19
23.11
25.61
26.89
27.12
26.58
25.61
24.58
23.85
23.55
23.64
23.97
24.32
24.56
24.66
24.68
24.7
24.76
24.74
24.41
23.45
21.63
18.88
15.41
11.62
7.92
4.61
1.72
-0.98
-3.83
-7.08
-10.87
-15.0
-19.15
-22.98
-26.21
-28.84
-31.07
-33.32
-36.08
-39.82
-44.76
-50.7
-56.88
-62.08
-64.88
-64.03
-58.96
-49.99
-38.26
-25.39
-12.98
-2.21
6.4
12.88
17.56
20.83
22.99
24.23
24.75
24.75
24.5
24.27
24.26
24.53
25.02
25.55
25.9
25.95
25.69
25.24
24.79
24.48
24.31
24.07
23.44
22.09
19.85
16.8
13.21
9.48
5.88
2.53
-0.64
-3.82
-7.19
-10.83
-14.67
-18.54
-22.24
-25.67
-28.83
-31.82
-34.82
-38.09
-41.87
-46.34
-51.5
-57.03
-62.14
-65.67
-66.31
-63.01
-55.49
-44.32
-30.89
-16.91
-3.93
7.08
15.82
22.5
27.59
31.41
34.15
35.85
36.64
36.8
36.77
37.02
37.79
39.12
40.76
42.42
43.9
45.2
46.45
47.8
49.18
50.3
50.74
50.12
48.3
45.48
42.12
38.86
36.29
34.7
34.03
33.91
33.82
33.34
32.32
30.92
29.59
29.09
30.27
33.95
40.62
50.05
61.27
72.83
83.66
93.97
105.75
122.22
146.37
179.15
218.12
257.33
288.44
302.93
294.31
259.63
199.92
119.77
26.59
-70.25
-160.6
-235.18
-287.66
-316.43
-325.02
-320.7
-311.72
-304.42
-301.54
-302.18
-303.13
-300.75
-292.34
-276.73
-254.17
-226.03
-194.54
-162.59
-133.07
-108.26
-89.22
-75.66
-66.33
-59.58
-53.92
-48.24
-42.0
-35.29
-28.84
-23.8
-21.36
-22.17
-26.03
-32.12
-39.27
-46.58
-53.62
-60.31
-66.63
-72.2
-76.2
-77.5
-75.13
-68.61
-58.22
-44.93
-30.15
-15.37
-1.87
9.43
18.12
24.26
28.34
31.1
33.33
35.71
38.75
42.93
48.79
57.08
68.61
84.06
103.54
126.46
151.52
176.9
200.62
220.76
235.69
244.22
245.94
241.28
231.46
218.21
203.16
187.48
171.65
155.75
139.85
124.56
111.1
101.24
96.86
99.31
108.71
123.48
140.45
155.58
165.38
168.14
164.65
157.51
149.56
142.32
135.13
125.79
112.01
92.96
69.75
44.79
20.29
-2.89
-25.47
-49.09
-75.26
-104.67
-136.96
-170.92
-204.39
-234.08
-255.56
-263.91
-255.25
-228.47
-186.27
-134.69
-81.35
-32.94
6.54
36.07
56.72
70.11
77.39
79.16
75.99
68.98
59.81
50.21
41.26
33.1
24.98
15.99
5.69
-5.52
-16.55
-26.13
-33.51
-38.74
-42.53
-45.97
-49.92
-54.79
-60.48
-66.47
-71.9
-75.69
-76.71
-74.02
-67.42
-57.5
-45.6
-33.3
-21.79
-11.51
-2.22
6.65
15.51
24.22
32.28
39.13
44.55
48.8
52.58
56.77
62.12
69.04
77.47
86.95
96.76
106.11
114.43
121.44
127.19
131.85
135.62
138.5
140.47
141.56
142.06
142.57
143.74
145.92
148.87
151.79
153.65
153.83
152.54
150.89
150.18
150.88
151.89
150.46
143.06
126.76
100.53
65.74
25.63
-15.89
-55.78
-92.53
-126.32
-158.19
-189.34
-220.66
-253.02
-287.38
-324.17
-361.99
-396.63
-421.06
-427.44
-410.5
-370.68
-315.15
-255.47
-203.33
-166.41
-146.63
-141.38
-145.79
-154.96
-164.87
-172.02
-172.94
-164.55
-145.42
-116.96
-84.13
-53.42
-30.63
-19.1
-19.3
-29.23
-45.69
-65.32
-85.41
-105.73
-126.93
-149.95
-174.99
-201.43
-227.76
-252.25
-273.71
-291.78
-309.01
-327.24
-346.45
-364.34
-377.56
-383.3
-380.62
-370.74
-356.22
-342.43
-332.61
-326.84
-322.14
-314.78
-302.17
-284.01
-262.39
-223.1
-160.97
-78.3
15.21
106.77
185.01
243.32
280.23
297.81
300.49
291.12
273.81
251.23
228.77
211.17
201.53
201.72
212.28
232.93
260.54
292.02
324.66
356.54
385.92
408.74
421.96
423.73
414.01
393.15
363.53
329.24
295.57
267.27
247.14
235.87
231.14
228.4
221.78
207.07
183.34
153.4
122.26
95.09
76.28
67.66
68.59
76.51
88.68
102.94
117.87
132.05
140.14
137.63
121.84
93.79
58.38
22.83
-6.51
-26.41
-37.08
-40.56
-38.13
-30.02
-15.04
5.71
29.04
50.26
65.0
70.82
68.01
59.41
48.56
38.08
28.77
20.22
10.97
0.71
-10.07
-20.43
-29.27
-35.96
-40.68
-44.68
-49.82
-58.2
-71.4
-89.86
-112.37
-135.93
-156.67
-170.93
-176.69
-173.78
-163.96
-150.01
-134.99
-121.37
-110.59
-103.14
-98.8
-97.1
-97.08
-97.78
-98.21
-97.58
-95.41
-91.59
-86.44
-80.69
-75.47
-71.61
-69.8
-70.54
-73.93
-79.51
-86.08
-91.78
-94.38
-92.22
-83.88
-69.45
-50.95
-31.97
-16.47
-7.04
-3.59
-2.97
-0.32
10.32
33.09
68.83
114.99
166.76
218.88
267.03
308.38
335.96
344.24
330.34
295.7
246.06
189.31
133.04
82.74
43.16
13.52
-7.31
-20.31
-26.12
-25.25
-18.88
-9.33
-0.63
2.0
-6.95
-30.04
-66.16
-109.88
-151.5
-180.35
-188.3
-172.95
-138.23
-92.76
-45.75
-5.41
22.56
36.43
37.05
28.12
16.18
9.3
14.16
33.6
64.41
96.95
117.89
114.74
81.37
21.41
-52.26
-121.75
-170.43
-188.9
-177.39
-144.18
-101.06
-58.08
-20.56
10.61
36.53
57.35
71.59
77.8
77.03
73.81
75.07
86.65
108.57
135.08
156.3
162.69
150.14
121.85
86.06
51.84
25.17
6.96
-6.3
-20.76
-41.58
-70.41
-104.83
-139.37
-167.55
-184.48
-188.7
-182.54
-168.93
-152.29
-135.86
-120.53
-105.08
-87.47
-66.43
-42.51
-17.82
4.97
23.64
37.46
46.96
52.97
55.74
54.68
48.85
38.16
24.1
9.57
-1.77
-7.08
-5.56
1.25
10.25
18.28
23.41
25.51
25.6
25.2
25.3
26.05
26.98
27.43
26.99
25.59
23.62
21.62
20.14
19.51
19.46
19.03
16.68
10.73
0.07
-15.11
-33.05
-50.61
-63.95
-69.39
-64.29
-47.73
-20.69
14.31
53.86
94.55
133.72
169.81
202.06
229.83
251.93
266.39
270.95
263.97
245.44
217.35
183.36
147.78
114.27
84.85
59.73
37.86
17.96
-0.58
-17.43
-31.76
-43.06
-51.64
-58.61
-65.21
-72.04
-78.73
-84.09
-86.78
-86.1
-82.43
-77.0
-71.38
-66.72
-63.46
-61.34
-59.82
-58.45
-57.14
-56.05
-55.34
-54.76
-53.64
-51.04
-46.24
-39.15
-30.46
-21.46
-13.56
-7.83
-4.77
-4.24
-5.71
-8.52
-12.09
-15.98
-19.97
-23.88
-27.67
-31.22
-34.39
-36.92
-38.52
-39.04
-38.54
-37.31
-35.64
-33.65
-31.11
-27.59
-22.73
-16.67
-10.09
-4.04
0.51
3.1
3.88
3.44
2.4
1.19
-0.12
-1.57
-3.14
-4.56
-5.45
-5.52
-4.75
-3.44
-2.09
-1.2
-1.07
-1.7
-2.88
-4.29
-5.76
-7.31
-9.17
-11.64
-14.84
-18.66
-22.65
-26.22
-28.83
-30.28
-30.77
-30.94
-31.52
-33.17
-36.18
-40.33
-44.91
-48.79
-50.68
-49.49
-44.64
-36.31
-25.47
-13.6
-2.32
7.13
14.12
18.75
21.6
23.49
25.09
26.83
28.82
30.97
33.04
34.74
35.79
35.99
35.36
34.07
32.5
31.01
29.83
28.9
27.87
26.33
23.93
20.65
16.76
12.69
8.82
5.32
2.16
-0.82
-3.73
-6.52
-9.0
-10.94
-12.2
-12.82
-13.06
-13.33
-14.14
-15.89
-18.78
-22.7
-27.05
-30.9
-33.09
-32.62
-28.95
-22.32
-13.66
-4.4
4.07
10.76
15.33
17.98
19.15
19.3
18.62
17.11
14.66
11.26
7.14
2.7
-1.49
-4.95
-7.33
-8.55
-8.75
-8.22
-7.23
-5.97
-4.57
-3.02
-1.33
0.44
2.15
3.6
4.52
4.66
3.92
2.34
0.14
-2.38
-4.93
-7.33
-9.65
-12.09
-14.92
-18.32
-22.36
-26.9
-31.63
-36.01
-39.24
-40.4
-38.6
-33.31
-24.64
-13.42
-1.02
11.06
21.62
30.08
36.44
41.1
44.5
46.9
48.31
48.52
47.32
44.59
40.37
34.97
28.96
23.11
18.17
14.72
12.8
11.89
11.08
9.47
6.59
2.63
-1.78
-5.92
-9.47
-12.67
-16.04
-19.97
-24.28
-28.18
-30.52
-30.19
-26.42
-18.87
-7.52
7.3
24.66
42.57
57.81
66.4
64.82
51.53
27.87
-1.94
-32.0
-56.47
-71.19
-74.5
-67.19
-51.78
-31.62
-10.05
10.16
27.1
39.92
48.73
54.43
58.28
61.62
65.63
71.08
78.28
86.86
95.7
103.22
107.72
107.98
103.55
94.87
82.96
69.04
54.19
39.31
25.14
12.38
1.61
-6.8
-12.88
-17.09
-20.26
-23.33
-27.1
-32.08
-38.43
-45.97
-54.31
-62.84
-70.76
-77.31
-81.88
-84.27
-84.75
-83.86
-82.15
-79.72
-76.25
-71.18
-64.11
-55.16
-45.08
-35.05
-26.21
-19.27
-14.34
-10.98
-8.57
-6.56
-4.67
-2.82
-1.05
0.63
2.21
3.63
4.7
5.14
4.7
3.29
1.21
-0.97
-2.6
-3.2
-2.81
-1.91
-1.33
-1.83
-3.83
-7.24
-11.49
-15.88
-19.77
-22.88
-25.27
-27.24
-29.18
-31.4
-34.04
-37.02
-40.08
-42.65
-43.99
-43.27
-39.84
-33.56
-24.97
-15.18
-5.6
2.52
8.41
11.86
13.12
12.72
11.22
9.12
6.83
4.68
2.94
1.8
1.33
1.46
2.06
2.96
4.01
5.08
6.11
7.07
7.95
8.7
9.2
9.31
8.87
7.8
6.18
4.22
2.16
0.24
-1.44
-2.97
-4.56
-6.52
-9.1
-12.31
-15.89
-19.23
-21.53
-21.94
-19.98
-15.59
-9.35
-2.19
4.81
10.72
14.93
17.22
17.65
16.49
14.1
10.92
7.43
4.07
1.19
-1.03
-2.55
-3.49
-4.02
-4.41
-4.91
-5.73
-6.97
-8.57
-10.32
-11.9
-13.1
-13.9
-14.5
-15.18
-16.18
-17.52
-19.05
-20.51
-21.68
-22.5
-23.08
-23.62
-24.42
-25.66
-27.38
-29.4
-31.32
-32.61
-32.77
-31.48
-28.73
-24.94
-20.77
-16.94
-14.09
-12.53
-12.29
-13.18
-14.93
-17.37
-20.55
-24.57
-29.42
-34.82
-40.14
-44.61
-47.54
-48.73
-48.44
-47.38
-46.28
-45.6
-45.24
-44.45
-41.91
-35.94
-24.87
-7.65
15.52
42.84
71.07
96.34
115.22
125.68
127.54
122.23
111.96
98.9
84.74
70.58
57.14
45.01
34.59
26.07
19.36
14.12
10.0
6.81
4.54
3.28
3.06
3.79
5.14
6.77
8.39
9.94
11.51
13.15
14.82
16.36
17.68
18.88
20.28
22.19
24.7
27.45
29.64
30.35
29.04
25.81
21.4
16.88
13.19
10.75
9.35
8.33
6.92
4.55
1.06
-3.32
-8.17
-13.13
-18.13
-23.38
-29.35
-36.53
-45.25
-55.56
-67.12
-79.2
-90.7
-100.07
-105.58
-105.56
-99.01
-86.02
-68.04
-47.63
-27.77
-11.05
1.0
8.15
11.19
11.45
10.16
8.21
6.05
3.95
2.17
1.0
0.73
1.41
2.83
4.5
5.89
6.64
6.61
5.96
5.01
4.12
3.48
3.09
2.73
2.06
0.69
-1.63
-4.88
-8.73
-12.61
-15.97
-18.46
-20.16
-21.45
-22.92
-25.12
-28.36
-32.69
-37.87
-43.33
-48.12
-50.97
-50.53
-45.81
-36.68
-24.06
-9.82
3.86
15.17
23.19
27.95
30.17
30.75
30.36
29.39
27.95
26.15
24.2
22.39
21.04
20.37
20.48
21.27
22.54
24.01
25.46
26.74
27.72
28.36
28.51
28.02
26.72
24.63
21.95
19.12
16.56
14.53
12.97
11.51
9.7
7.21
4.07
0.58
-2.81
-5.71
-8.0
-9.82
-11.56
-13.67
-16.61
-20.54
-25.22
-29.82
-32.94
-33.07
-29.0
-20.46
-8.32
5.61
19.14
30.4
38.39
43.0
44.79
44.59
43.17
41.1
38.81
36.64
34.87
33.65
32.95
32.58
32.29
31.79
30.97
29.86
28.66
27.56
26.73
26.23
25.94
25.6
24.86
23.39
21.0
17.68
13.66
9.32
5.12
1.42
-1.57
-3.9
-5.78
-7.55
-9.49
-11.76
-14.38
-17.22
-20.1
-22.8
-25.19
-27.22
-29.0
-30.74
-32.7
-35.11
-37.97
-41.03
-43.61
-44.77
-43.59
-39.48
-32.52
-23.47
-13.68
-4.54
2.82
7.92
10.83
11.95
11.75
10.54
8.53
5.99
3.36
1.19
0.01
0.12
1.52
3.97
7.07
10.38
13.48
15.96
17.47
17.83
17.01
15.17
12.64
9.75
6.95
4.85
4.23
5.87
10.26
17.12
25.23
32.67
37.39
37.98
34.21
27.06
18.29
9.7
2.62
-2.5
-5.89
-8.22
-10.2
-12.36
-15.04
-18.45
-22.7
-27.74
-33.18
-38.09
-41.14
-40.94
-36.6
-28.29
-17.35
-5.89
3.87
10.47
13.6
14.0
12.85
11.19
9.38
7.15
3.93
-0.62
-6.35
-12.56
-18.27
-22.67
-25.41
-26.79
-27.59
-28.84
-31.32
-35.33
-40.57
-46.22
-51.35
-55.17
-57.44
-58.5
-59.2
-60.61
-63.6
-68.44
-74.49
-79.97
-82.08
-77.67
-64.23
-41.04
-9.86
25.24
58.98
86.58
105.1
114.15
115.35
111.16
103.73
94.29
83.2
70.38
55.77
39.5
21.96
3.76
-14.31
-31.26
-46.09
-58.01
-66.7
-72.23
-74.79
-74.5
-71.39
-65.92
-59.31
-53.57
-50.9
-52.55
-58.0
-65.0
-70.66
-72.96
-71.95
-69.69
-69.07
-72.19
-79.24
-88.48
-97.32
-103.61
-106.33
-105.54
-101.67
-95.04
-85.68
-73.72
-59.78
-45.0
-30.5
-16.81
-3.6
9.95
24.42
39.54
54.24
67.2
77.69
85.92
92.92
99.73
106.73
113.38
118.56
121.23
121.09
118.56
114.44
109.35
103.43
96.42
88.09
78.59
68.62
59.32
52.03
47.9
47.61
50.98
56.85
63.25
67.88
68.91
65.78
59.51
52.26
46.39
43.37
43.13
44.28
44.97
43.89
40.9
36.94
33.36
31.16
30.49
30.67
30.77
30.14
28.7
26.89
25.38
24.55
24.32
24.28
23.85
22.65
20.68
18.31
16.05
14.35
13.3
12.62
11.81
10.34
8.0
4.98
1.77
-1.07
-3.23
-4.84
-6.33
-8.19
-10.7
-13.65
-16.48
-18.45
-18.91
-17.61
-14.68
-10.58
-5.9
-1.25
2.97
6.48
9.23
11.26
12.7
13.71
14.44
14.99
15.5
16.14
17.03
18.28
19.88
21.69
23.55
25.27
26.69
27.76
28.44
28.74
28.59
27.95
26.78
25.15
23.14
20.93
18.69
16.61
14.79
13.22
11.76
10.18
8.25
5.8
2.82
-0.53
-4.01
-7.38
-10.52
-13.51
-16.54
-19.94
-23.93
-28.58
-33.68
-38.74
-43.02
-45.76
-46.34
-44.44
-40.13
-33.86
-26.28
-18.09
-9.92
-2.23
4.7
10.72
15.8
20.06
23.72
27.0
30.07
32.98
35.66
37.98
39.86
41.26
42.24
42.88
43.22
