17.76
17.58
17.33
17.29
17.55
18.03
18.5
18.75
18.73
18.54
18.36
18.34
18.46
18.56
18.36
17.67
16.41
14.71
12.76
10.71
8.6
6.35
3.91
1.21
-1.65
-4.53
-7.26
-9.74
-11.96
-13.99
-15.97
-18.13
-20.7
-23.92
-27.87
-32.39
-36.98
-40.85
-43.1
-42.99
-40.16
-34.77
-27.42
-19.0
-10.51
-2.77
3.66
8.55
11.94
14.1
15.36
16.04
16.37
16.43
16.23
15.79
15.18
14.57
14.14
14.03
14.3
14.91
15.77
16.73
17.62
18.27
18.51
18.16
17.13
15.41
13.14
10.48
7.7
4.96
2.33
-0.23
-2.87
-5.75
-8.92
-12.3
-15.68
-18.88
-21.79
-24.56
-27.49
-30.98
-35.25
-40.23
-45.44
-50.08
-53.23
-54.11
-52.2
-47.42
-40.14
-31.06
-21.08
-11.11
-1.91
6.05
12.67
18.1
22.63
26.43
29.54
31.84
33.17
33.55
33.12
32.24
31.23
30.36
29.73
29.37
29.23
29.31
29.58
29.92
30.13
29.91
29.03
27.38
25.04
22.2
19.13
16.05
13.04
10.05
6.88
3.35
-0.62
-4.93
-9.28
-13.28
-16.57
-19.09
-21.01
-22.82
-25.09
-28.26
-32.45
-37.3
-42.06
-45.67
-47.15
-45.78
-41.4
-34.45
-25.74
-16.33
-7.14
1.21
8.37
14.19
18.65
21.75
23.59
24.39
24.4
23.98
23.38
22.75
22.19
21.75
21.43
21.27
21.33
21.52
21.81
22.12
22.42
22.67
22.82
22.73
22.21
21.11
19.37
17.12
14.59
11.97
9.34
6.64
3.66
0.25
-3.57
-7.61
-11.53
-15.03
-18.0
-20.56
-22.96
-25.56
-28.61
-32.21
-36.38
-40.97
-45.68
-49.96
-53.01
-53.87
-51.74
-46.36
-38.1
-27.99
-17.31
-7.23
1.52
8.7
14.4
18.76
21.9
23.86
24.72
24.68
24.09
23.34
22.8
22.7
23.07
23.85
24.82
25.82
26.7
27.42
28.02
28.5
28.83
28.88
28.48
27.47
25.76
23.41
20.6
17.61
14.71
12.14
9.99
8.2
6.57
4.79
2.66
0.09
-2.8
-5.76
-8.6
-11.2
-13.66
-16.15
-18.9
-22.08
-25.7
-29.66
-33.67
-37.22
-39.64
-40.15
-38.11
-33.28
-25.96
-17.02
-7.61
1.15
8.52
14.22
18.32
21.08
22.74
23.45
23.35
22.67
21.76
21.01
20.77
21.14
21.99
23.0
23.81
24.16
24.02
23.58
23.14
22.94
23.03
23.26
23.34
23.0
22.11
20.74
19.04
17.22
15.34
13.41
11.34
9.04
6.5
3.73
0.75
-2.41
-5.72
-9.12
-12.49
-15.66
-18.52
-21.0
-23.25
-25.51
-28.07
-31.12
-34.67
-38.36
-41.54
-43.36
-42.97
-39.93
-34.31
-26.72
-18.12
-9.56
-1.84
4.57
9.58
13.29
15.83
17.31
17.82
17.51
16.61
15.41
14.25
13.39
12.92
12.83
12.97
13.22
13.51
13.82
14.16
14.48
14.61
14.35
13.57
12.25
10.52
8.6
6.74
5.11
3.83
2.86
2.09
1.31
0.28
-1.25
-3.4
-6.07
-9.03
-11.96
-14.56
-16.71
-18.47
-20.16
-22.19
-24.97
-28.67
-33.07
-37.54
-41.06
-42.6
-41.43
-37.36
-30.9
-23.02
-14.85
-7.3
-0.87
4.37
8.6
12.04
14.74
16.69
17.84
18.29
18.28
18.15
18.19
18.49
18.97
19.41
19.63
19.58
19.34
19.1
19.0
19.08
19.25
19.35
19.19
18.65
17.72
16.46
15.0
13.45
11.88
10.29
8.64
6.83
4.76
2.37
-0.33
-3.24
-6.22
-9.13
-11.9
-14.52
-17.03
-19.52
-22.15
-25.11
-28.52
-32.38
-36.39
-39.88
-41.94
-41.67
-38.5
-32.51
-24.41
-15.34
-6.52
1.12
7.14
11.5
14.44
16.25
17.15
17.33
17.01
16.39
15.77
15.39
15.37
15.73
16.42
17.36
18.5
19.82
21.22
22.6
23.78
24.57
24.87
24.68
24.08
23.14
21.93
20.42
18.61
16.49
14.17
11.76
9.36
7.0
4.59
1.98
-0.97
-4.24
-7.7
-11.08
-14.15
-16.82
-19.14
-21.31
-23.6
-26.17
-29.07
-32.19
-35.35
-38.22
-40.43
-41.49
-40.92
-38.32
-33.51
-26.73
-18.57
-9.97
-1.85
5.07
10.44
14.29
16.84
18.35
18.96
18.74
17.77
16.25
14.51
12.94
11.89
11.56
11.95
12.87
14.04
15.2
16.17
16.87
17.33
17.58
17.61
17.33
16.6
15.32
13.52
11.36
9.11
7.02
5.23
3.69
2.18
0.45
-1.75
-4.5
-7.69
-11.05
-14.22
-16.97
-19.23
-21.17
-23.12
-25.44
-28.4
-32.01
-36.0
-39.8
-42.73
-44.1
-43.41
-40.43
-35.29
-28.46
-20.61
-12.52
-4.85
1.86
7.35
11.53
14.49
16.39
17.43
17.76
17.53
16.92
16.13
15.37
14.8
14.52
14.48
14.58
14.7
14.71
14.62
14.43
14.16
13.76
13.09
12.03
10.52
8.61
6.45
4.22
2.04
-0.09
-2.3
-4.71
-7.37
-10.26
-13.2
-16.01
-18.51
-20.62
-22.42
-24.07
-25.8
-27.84
-30.37
-33.46
-37.02
-40.66
-43.73
-45.34
-44.66
-41.16
-34.87
-26.4
-16.78
-7.17
1.49
8.71
14.38
18.67
21.78
23.82
24.85
24.92
24.17
22.91
21.55
20.49
19.97
19.98
20.31
20.64
20.71
20.47
20.09
19.83
19.89
20.22
20.54
20.44
19.59
17.9
15.53
12.87
10.28
7.94
5.81
3.66
1.19
-1.73
-5.07
-8.64
-12.14
-15.35
-18.13
-20.47
-22.46
-24.33
-26.36
-28.86
-32.1
-36.11
-40.57
-44.72
-47.57
-48.11
-45.68
-40.15
-32.08
-22.45
-12.45
-3.13
4.81
11.09
15.8
19.21
21.61
23.16
23.9
23.85
23.13
22.1
21.28
21.19
22.16
24.15
26.79
29.52
31.87
33.49
34.32
34.42
33.93
32.9
31.36
29.27
26.61
23.46
19.95
16.38
13.0
10.02
7.44
5.08
2.66
-0.08
-3.2
-6.59
-9.97
-13.09
-15.84
-18.22
-20.39
-22.6
-25.11
-28.19
-32.01
-36.52
-41.33
-45.71
-48.67
-49.22
-46.72
-41.07
-32.74
-22.68
-12.07
-2.03
6.62
13.38
18.2
21.26
22.83
23.23
22.74
21.66
20.28
18.98
18.09
17.77
17.94
18.34
18.66
18.73
18.64
18.67
19.1
19.98
21.05
21.87
21.95
21.02
19.12
16.56
13.76
11.05
8.62
6.44
4.37
2.24
-0.1
-2.71
-5.58
-8.64
-11.8
-14.93
-17.93
-20.81
-23.67
-26.72
-30.16
-34.12
-38.48
-42.8
-46.33
-48.22
-47.67
-44.23
-37.95
-29.43
-19.67
-9.79
-0.78
6.76
12.62
16.92
19.87
21.66
22.43
22.31
21.54
20.47
19.47
18.88
18.85
19.32
20.02
20.67
21.05
21.09
20.88
20.55
20.23
19.91
19.45
18.57
17.09
14.93
12.26
9.4
6.68
4.36
2.42
0.67
-1.26
-3.61
-6.45
-9.6
-12.76
-15.65
-18.11
-20.23
-22.25
-24.52
-27.37
-31.04
-35.6
-40.78
-46.06
-50.47
-52.95
-52.52
-48.67
-41.51
-31.89
-21.06
-10.39
-0.97
6.64
12.31
16.34
19.12
21.03
22.28
22.98
23.15
22.85
22.24
21.5
20.89
20.53
20.46
20.61
20.91
21.34
21.93
22.72
23.67
24.58
25.11
24.86
23.6
21.31
18.27
14.87
11.54
8.54
6.01
3.8
1.72
-0.47
-2.93
-5.71
-8.77
-11.89
-14.93
-17.68
-20.08
-22.21
-24.27
-26.53
-29.32
-32.86
-37.24
-42.21
-47.09
-50.86
-52.35
-50.64
-45.38
-36.97
-26.5
-15.35
-4.84
4.16
11.36
16.88
21.04
24.12
26.26
27.49
27.85
27.47
26.64
25.76
25.17
25.12
25.54
26.25
26.95
27.52
27.99
28.5
29.18
29.99
30.74
31.08
30.73
29.6
27.83
25.72
23.58
21.66
20.03
18.6
17.16
15.49
13.47
11.1
8.53
6.06
3.99
2.53
1.66
1.15
0.62
-0.33
-1.98
-4.42
-7.51
-10.84
-13.79
-15.57
-15.38
-12.67
-7.29
0.38
9.55
19.19
28.33
36.24
42.45
46.77
49.13
49.57
48.13
44.97
40.35
34.62
28.27
21.77
15.58
9.95
5.0
0.64
-3.19
-6.49
-9.09
-10.72
-11.26
-10.72
-9.49
-8.11
-7.12
-6.9
-7.54
-8.94
-10.82
-12.91
-15.02
-17.07
-19.07
-20.96
-22.66
-24.0
-24.86
-25.22
-25.26
-25.3
-25.69
-26.77
-28.67
-31.34
-34.5
-37.76
-40.54
-42.26
-42.34
-40.33
-36.11
-29.86
-22.12
-13.6
-5.09
2.81
9.58
15.03
19.12
21.95
23.7
24.55
24.71
24.36
23.66
22.81
21.94
21.16
20.48
19.9
19.38
18.95
18.68
18.62
18.78
19.07
19.3
19.2
18.63
17.51
15.88
13.89
11.71
9.44
7.07
4.56
1.77
-1.37
-4.88
-8.62
-12.38
-15.93
-19.1
-21.9
-24.49
-27.15
-30.17
-33.72
-37.82
-42.24
-46.54
-50.1
-52.25
-52.34
-50.01
-45.21
-38.35
-30.16
-21.49
-13.12
-5.55
0.99
6.43
10.82
14.22
16.67
18.23
19.04
19.24
19.02
18.52
17.79
16.89
15.91
14.98
14.22
13.74
13.54
13.5
13.44
13.15
12.5
11.37
9.79
7.84
5.71
3.62
1.77
0.23
-1.05
-2.27
-3.67
-5.4
-7.45
-9.66
-11.81
-13.67
-15.17
-16.35
-17.35
-18.36
-19.55
-21.11
-23.08
-25.38
-27.65
-29.31
-29.68
-28.17
-24.55
-18.96
-11.99
-4.44
2.87
9.3
14.45
18.2
20.63
21.88
22.21
21.85
21.04
20.02
18.93
17.89
16.92
16.02
15.19
14.49
14.04
13.95
14.27
14.92
15.68
16.23
16.28
15.62
14.19
12.07
9.5
6.76
4.09
1.67
-0.5
-2.54
-4.64
-6.94
-9.53
-12.3
-15.1
-17.81
-20.39
-22.93
-25.65
-28.74
-32.28
-36.17
-40.08
-43.43
-45.56
-45.83
-43.81
-39.44
-33.03
-25.19
-16.66
-8.19
-0.37
6.39
11.89
16.07
18.98
20.74
21.57
21.71
21.38
20.77
20.01
19.22
18.5
17.91
17.51
17.28
17.12
16.83
16.27
15.29
13.86
12.07
10.1
8.14
6.35
4.79
3.36
1.91
0.25
-1.72
-4.03
-6.59
-9.28
-11.99
-14.62
-17.17
-19.72
-22.45
-25.57
-29.27
-33.58
-38.19
-42.52
-45.72
-46.96
-45.59
-41.43
-34.74
-26.19
-16.71
-7.21
1.5
8.91
14.77
19.07
21.97
23.64
24.31
24.18
23.42
22.27
20.97
19.75
18.76
18.08
17.7
17.57
17.62
17.8
18.0
18.13
18.01
17.44
16.36
14.82
13.01
11.19
9.5
7.96
6.38
4.47
2.0
-1.07
-4.6
-8.28
-11.77
-14.84
-17.49
-19.96
-22.64
-25.95
-30.14
-35.18
-40.67
-45.88
-49.88
-51.74
-50.8
-46.79
-39.98
-31.03
-20.9
-10.6
-1.02
7.26
13.97
19.1
22.85
25.42
27.01
27.77
27.79
27.18
26.05
24.6
23.03
21.54
20.33
19.54
19.26
19.49
20.11
20.85
21.46
21.6
21.12
19.95
18.17
15.97
13.53
10.99
8.42
5.81
3.05
0.01
-3.36
-7.06
-10.91
-14.66
-18.09
-21.03
-23.56
-25.91
-28.47
-31.58
-35.41
-39.75
-44.0
-47.26
-48.52
-47.03
-42.51
-35.24
-26.03
-16.0
-6.27
2.31
9.24
14.42
18.03
20.38
21.82
22.62
23.0
23.17
23.28
23.44
23.72
24.08
24.48
24.88
25.3
25.83
26.6
27.57
28.61
29.43
29.73
29.24
27.88
25.72
22.98
19.94
16.78
13.58
10.31
6.88
3.26
-0.5
-4.25
-7.82
-11.06
-13.96
-16.62
-19.24
-22.07
-25.28
-29.0
-33.16
-37.47
-41.39
-44.2
-45.17
-43.76
-39.86
-33.74
-26.0
-17.47
-8.91
-0.98
5.88
11.45
15.7
18.72
20.66
21.69
21.96
21.62
20.81
19.71
18.54
17.52
16.81
16.46
16.42
16.57
16.77
16.89
16.85
16.58
16.02
15.11
13.81
12.19
10.35
8.43
6.52
4.59
2.56
0.31
-2.27
-5.16
-8.23
-11.34
-14.35
-17.28
-20.26
-23.51
-27.28
-31.63
-36.35
-40.89
-44.41
-46.02
-45.0
-41.04
-34.41
-25.8
-16.25
-6.76
1.88
9.18
14.98
19.36
22.44
24.37
25.29
25.34
24.77
23.82
22.75
21.77
20.98
20.41
20.04
19.89
19.93
20.12
20.38
20.54
20.47
20.05
19.21
17.91
16.23
14.21
11.95
9.58
7.18
4.81
2.37
-0.31
-3.37
-6.83
-10.57
-14.33
-17.89
-21.13
-24.17
-27.33
-30.92
-35.07
-39.59
-43.98
-47.45
-49.19
-48.53
-45.13
-39.04
-30.71
-20.87
-10.41
-0.26
8.82
16.26
21.77
25.35
27.26
27.84
27.49
26.47
24.97
23.1
20.99
18.82
16.8
15.19
14.14
13.75
14.0
14.8
15.93
17.07
17.83
17.84
16.92
15.14
12.79
10.32
8.09
6.21
4.61
3.01
1.17
-1.02
-3.54
-6.27
-9.08
-11.94
-14.86
-17.89
-21.05
-24.38
-27.95
-31.87
-36.15
-40.63
-44.88
-48.14
-49.51
-48.21
-43.86
-36.62
-27.25
-16.85
-6.57
2.68
10.45
16.66
21.46
25.04
27.53
28.97
29.41
29.07
28.26
27.34
26.58
26.08
25.76
25.51
25.2
24.85
24.56
24.45
24.57
24.86
25.12
25.07
24.45
23.07
20.92
18.17
15.08
11.93
8.92
6.08
3.33
0.52
-2.49
-5.72
-9.06
-12.33
-15.31
-17.86
-20.05
-22.04
-24.16
-26.73
-30.02
-34.11
-38.71
-43.22
-46.72
-48.29
-47.21
-43.23
-36.68
-28.32
-19.1
-9.91
-1.39
6.06
12.22
16.99
20.34
22.38
23.32
23.49
23.16
22.6
21.95
21.31
20.7
20.11
19.53
18.96
18.4
17.93
17.65
17.6
17.79
18.06
18.17
17.87
16.99
15.48
13.49
11.16
8.66
6.13
3.63
1.22
-1.06
-3.2
-5.2
-7.1
-8.97
-10.88
-12.92
-15.11
-17.52
-20.19
-23.27
-26.86
-31.03
-35.65
-40.3
-44.36
-47.02
-47.54
-45.4
-40.54
-33.33
-24.48
-14.93
-5.5
3.13
10.54
16.55
21.09
24.19
25.83
26.15
25.34
23.86
22.17
20.68
19.64
19.07
18.82
18.67
18.55
18.48
18.62
19.03
19.67
20.31
20.66
20.46
19.65
18.35
16.8
15.23
13.75
12.29
10.69
8.77
6.43
3.72
0.73
-2.4
-5.58
-8.75
-11.91
-15.08
-18.34
-21.82
-25.7
-30.08
-34.88
-39.65
-43.69
-46.12
-46.2
-43.55
-38.26
-30.83
-22.03
-12.7
-3.59
4.69
11.68
17.11
20.89
23.16
24.2
24.38
24.02
23.39
22.65
21.91
21.24
20.66
20.22
19.94
19.85
19.94
20.18
20.5
20.74
20.77
20.44
19.7
18.49
16.83
14.76
12.38
9.84
7.33
4.98
2.78
0.56
-1.98
-5.02
-8.6
-12.47
-16.27
-19.74
-22.75
-25.49
-28.32
-31.68
-35.85
-40.85
-46.31
-51.53
-55.61
-57.58
-56.71
-52.67
-45.66
-36.35
-25.76
-14.94
-4.82
3.97
11.12
16.59
20.48
23.04
24.48
25.04
24.99
24.64
24.27
24.16
24.44
25.1
26.03
26.99
27.8
28.36
28.67
28.86
28.98
28.98
28.69
27.9
26.46
24.4
21.9
19.26
16.76
14.55
12.58
10.62
8.38
5.57
2.1
-1.91
-6.19
-10.3
-13.96
-17.1
-19.89
-22.68
-25.88
-29.73
-34.29
-39.37
-44.5
-49.07
-52.31
-53.51
-52.12
-47.96
-41.24
-32.6
-22.94
-13.18
-4.12
3.75
10.2
15.25
19.08
21.89
23.88
25.13
25.73
25.78
25.43
24.98
24.65
24.64
24.98
25.57
26.29
27.07
27.88
28.7
29.48
30.07
30.29
30.02
29.18
27.81
26.03
23.96
21.66
19.2
16.55
13.7
10.6
7.24
3.67
-0.01
-3.63
-7.06
-10.19
-13.08
-15.85
-18.73
-22.01
-25.9
-30.49
-35.67
-41.03
-45.88
-49.38
-50.71
-49.33
-45.18
-38.59
-30.3
-21.2
-12.09
-3.57
3.96
10.31
15.39
19.13
21.51
22.65
22.78
22.27
21.56
21.01
20.83
21.06
21.54
22.07
22.47
22.66
22.65
22.45
22.08
21.52
20.71
19.58
18.11
16.36
14.44
12.54
10.82
9.31
7.92
6.46
4.73
2.61
0.14
-2.54
-5.28
-7.98
-10.69
-13.55
-16.71
-20.26
-24.22
-28.49
-32.93
-37.26
-41.03
-43.67
-44.5
-43.04
-39.11
-33.01
-25.4
-17.11
-8.89
-1.28
5.41
11.08
15.7
19.27
21.79
23.34
24.07
24.22
24.07
23.9
23.88
24.07
24.39
24.7
24.9
24.99
25.02
25.1
25.19
25.16
24.73
23.65
21.82
19.36
16.58
13.8
11.28
9.09
7.15
5.24
3.17
0.8
-1.92
-4.93
-8.18
-11.58
-15.03
-18.47
-21.88
-25.27
-28.75
-32.48
-36.58
-41.03
-45.48
-49.28
-51.62
-51.75
-49.24
-44.09
-36.77
-28.03
-18.65
-9.36
-0.72
6.88
13.16
17.96
21.29
23.22
24.01
23.97
23.48
22.87
22.37
22.16
22.28
22.72
23.38
24.19
25.03
25.85
26.57
27.11
27.42
27.41
26.96
25.94
24.26
21.95
19.17
16.15
13.15
10.31
7.68
5.14
2.53
-0.22
-3.15
-6.19
-9.28
-12.35
-15.34
-18.22
-20.99
-23.75
-26.73
-30.18
-34.23
-38.7
-43.04
-46.4
-47.86
-46.74
-42.8
-36.31
-27.98
-18.71
-9.41
-0.79
6.69
12.81
17.55
20.99
23.3
24.64
25.25
25.43
25.49
25.75
26.39
27.42
28.68
29.95
30.98
31.65
31.98
32.1
32.26
32.65
33.32
34.12
34.76
34.83
33.91
31.74
28.21
23.42
17.63
11.15
4.34
-2.46
-8.96
-14.9
-20.05
-24.34
-27.79
-30.52
-32.69
-34.45
-35.96
-37.47
-39.26
-41.59
-44.56
-47.98
-51.26
-53.65
-54.31
-52.68
-48.61
-42.38
-34.63
-26.13
-17.6
-9.56
-2.29
4.13
9.63
14.12
17.5
19.72
20.88
21.26
21.28
21.26
21.4
21.65
21.89
22.02
22.07
22.15
22.37
22.72
23.04
23.11
22.74
21.79
20.29
18.34
16.12
13.82
11.58
9.44
7.41
5.4
3.32
1.11
-1.24
-3.68
-6.19
-8.75
-11.33
-13.93
-16.57
-19.32
-22.28
-25.56
-29.18
-33.02
-36.73
-39.73
-41.33
-40.94
-38.27
