22.33
22.48
22.37
22.02
21.54
21.03
20.6
20.31
20.09
19.84
19.47
18.9
18.15
17.26
16.27
15.15
13.81
12.15
10.11
7.75
5.19
2.59
0.09
-2.28
-4.58
-6.88
-9.24
-11.71
-14.27
-17.0
-19.91
-23.05
-26.32
-29.49
-32.11
-33.65
-33.61
-31.72
-28.02
-22.82
-16.67
-10.16
-3.81
2.03
7.2
11.62
15.28
18.15
20.26
21.63
22.38
22.68
22.7
22.57
22.31
21.91
21.35
20.66
19.94
19.3
18.87
18.66
18.61
18.59
18.44
18.06
17.4
16.48
15.38
14.17
12.9
11.56
10.11
8.53
6.82
5.01
3.12
1.2
-0.76
-2.72
-4.7
-6.71
-8.81
-11.14
-13.82
-16.92
-20.29
-23.57
-26.22
-27.66
-27.48
-25.58
-22.18
-17.78
-12.94
-8.16
-3.76
0.15
3.57
6.65
9.45
11.96
14.05
15.52
16.19
16.03
15.2
14.02
12.87
12.01
11.55
11.44
11.53
11.68
11.81
11.87
11.85
11.72
11.53
11.3
11.1
10.94
10.76
10.51
10.14
9.59
8.82
7.81
6.54
5.07
3.46
1.85
0.36
-1.06
-2.53
-4.3
-6.57
-9.4
-12.66
-16.06
-19.24
-21.84
-23.53
-24.07
-23.31
-21.26
-18.1
-14.2
-9.93
-5.64
-1.56
2.19
5.56
8.42
10.68
12.24
13.04
13.16
12.75
11.98
11.09
10.28
9.72
9.49
9.61
9.98
10.44
10.83
11.02
10.97
10.67
10.12
9.33
8.33
7.14
5.89
4.69
3.71
2.98
2.46
2.02
1.46
0.67
-0.39
-1.56
-2.72
-3.7
-4.49
-5.19
-5.99
-7.04
-8.46
-10.25
-12.32
-14.55
-16.78
-18.74
-20.08
-20.46
-19.6
-17.43
-14.22
-10.45
-6.71
-3.51
-1.07
0.63
1.79
2.64
3.35
3.98
4.51
4.91
5.13
5.19
5.14
5.07
5.04
5.11
5.3
5.55
5.83
6.06
6.2
6.28
6.32
6.36
6.36
6.23
5.82
5.02
3.81
2.27
0.57
-1.12
-2.67
-4.05
-5.27
-6.4
-7.46
-8.43
-9.27
-9.93
-10.41
-10.73
-10.98
-11.26
-11.69
-12.35
-13.3
-14.48
-15.67
-16.57
-16.84
-16.25
-14.79
-12.63
-10.1
-7.46
-4.92
-2.5
-0.21
1.92
3.79
5.28
6.34
7.0
7.35
7.48
7.42
7.18
6.76
6.19
5.6
5.09
4.75
4.53
4.38
4.23
4.04
3.82
3.58
3.35
3.12
2.87
2.53
2.05
1.4
0.58
-0.31
-1.19
-1.99
-2.74
-3.54
-4.47
-5.55
-6.68
-7.68
-8.4
-8.81
-8.96
-9.04
-9.22
-9.67
-10.48
-11.71
-13.29
-15.07
-16.69
-17.71
-17.75
-16.61
-14.38
-11.44
-8.31
-5.42
-3.05
-1.22
0.18
1.29
2.19
2.85
3.2
3.16
2.74
2.11
1.48
1.09
1.07
1.38
1.85
2.27
2.48
2.49
2.4
2.36
2.4
2.44
2.37
2.05
1.48
0.73
-0.05
-0.76
-1.39
-2.0
-2.71
-3.53
-4.48
-5.51
-6.58
-7.69
-8.85
-10.06
-11.27
-12.42
-13.43
-14.3
-15.13
-16.1
-17.38
-19.01
-20.79
-22.36
-23.23
-23.02
-21.59
-19.12
-16.01
-12.74
-9.69
-7.0
-4.63
-2.46
-0.41
1.46
3.06
4.23
4.9
5.11
5.01
4.77
4.56
4.46
4.48
4.57
4.64
4.61
4.46
4.2
3.95
3.81
3.87
4.14
4.52
4.83
4.91
4.64
4.05
3.23
2.32
1.39
0.38
-0.83
-2.43
-4.49
-6.94
-9.55
-12.01
-14.04
-15.6
-16.83
-17.99
-19.41
-21.27
-23.63
-26.38
-29.26
-31.91
-33.94
-34.96
-34.63
-32.82
-29.57
-25.19
-20.09
-14.8
-9.76
-5.3
-1.6
1.35
3.69
5.65
7.39
9.0
10.4
11.42
11.99
12.13
12.02
11.82
11.7
11.68
11.77
11.95
12.29
12.84
13.62
14.54
15.36
15.87
15.9
15.41
14.53
13.43
12.32
11.31
10.44
9.64
8.74
7.56
5.94
3.9
1.53
-0.94
-3.37
-5.67
-7.88
-10.09
-12.37
-14.81
-17.48
-20.53
-24.06
-28.06
-32.29
-36.21
-39.07
-40.2
-39.16
-35.91
-30.83
-24.59
-17.92
-11.4
-5.4
-0.04
4.7
8.89
12.58
15.71
18.19
19.97
21.1
21.68
21.9
21.94
21.9
21.89
21.93
22.04
22.21
22.38
22.47
22.38
22.11
21.66
21.07
20.33
19.42
18.35
17.1
15.75
14.36
12.97
11.56
10.0
8.21
6.17
3.95
1.7
-0.46
-2.48
-4.42
-6.38
-8.49
-10.83
-13.49
-16.53
-20.0
-23.87
-27.92
-31.78
-34.93
-36.79
-36.89
-35.01
-31.2
-25.76
-19.18
-12.0
-4.74
2.15
8.37
13.72
18.09
21.45
23.83
25.3
26.0
26.15
25.98
25.68
25.39
25.14
24.92
24.74
24.62
24.63
24.78
25.03
25.27
25.34
25.13
24.58
23.68
22.43
20.83
18.86
16.57
14.09
11.58
9.17
6.88
4.69
2.49
0.25
-2.04
-4.34
-6.57
-8.78
-11.06
-13.55
-16.4
-19.75
-23.51
-27.46
-31.1
-33.81
-34.89
-33.84
-30.51
-25.21
-18.61
-11.57
-4.85
1.07
6.03
10.11
13.45
16.16
18.25
19.7
20.55
20.92
20.97
20.84
20.64
20.41
20.19
20.05
20.11
20.46
21.11
21.95
22.77
23.3
23.29
22.62
21.25
19.34
17.13
14.92
12.96
11.29
9.82
8.31
6.51
4.32
1.8
-0.84
-3.34
-5.53
-7.4
-9.06
-10.74
-12.72
-15.22
-18.37
-22.13
-26.25
-30.27
-33.58
-35.56
-35.71
-33.84
-30.06
-24.79
-18.63
-12.18
-5.92
-0.19
4.84
9.11
12.63
15.41
17.48
18.88
19.68
20.0
19.98
19.77
19.47
19.16
18.83
18.46
18.04
17.57
17.15
16.84
16.73
16.78
16.88
16.86
16.58
15.95
14.99
13.82
12.52
11.16
9.76
8.21
6.39
4.22
1.7
-1.04
-3.72
-6.09
-7.99
-9.49
-10.86
-12.52
-14.79
-17.78
-21.37
-25.16
-28.62
-31.19
-32.37
-31.79
-29.32
-25.06
-19.43
-13.03
-6.57
-0.62
4.49
8.7
12.12
14.91
17.14
18.78
19.79
20.19
20.08
19.65
19.13
18.65
18.31
18.08
17.9
17.75
17.59
17.43
17.26
17.05
16.73
16.16
15.19
13.76
11.91
9.85
7.82
6.06
4.65
3.48
2.34
1.01
-0.64
-2.58
-4.7
-6.8
-8.76
-10.52
-12.1
-13.57
-15.12
-16.97
-19.34
-22.33
-25.82
-29.37
-32.33
-33.96
-33.67
-31.31
-27.13
-21.74
-15.87
-10.12
-4.83
-0.12
3.99
7.51
10.33
12.37
13.62
14.21
14.4
14.46
14.54
14.66
14.66
14.39
13.78
12.97
12.18
11.71
11.72
12.16
12.81
13.36
13.55
13.25
12.51
11.5
10.41
9.37
8.41
7.45
6.35
4.96
3.22
1.09
-1.38
-4.05
-6.78
-9.4
-11.82
-14.06
-16.23
-18.51
-21.1
-24.0
-27.0
-29.63
-31.23
-31.24
-29.31
-25.49
-20.23
-14.24
-8.23
-2.76
1.94
5.83
9.01
11.55
13.44
14.63
15.12
15.01
14.5
13.86
13.33
13.05
12.99
13.05
13.12
13.16
13.17
13.22
13.38
13.67
13.96
14.07
13.81
13.1
11.99
10.6
9.12
7.66
6.2
4.64
2.86
0.8
-1.51
-3.95
-6.37
-8.66
-10.78
-12.73
-14.58
-16.41
-18.38
-20.65
-23.31
-26.27
-29.25
-31.79
-33.34
-33.44
-31.93
-28.9
-24.72
-19.86
-14.78
-9.85
-5.32
-1.31
2.21
5.28
7.98
10.37
12.42
14.04
15.09
15.55
15.53
15.3
15.11
15.13
15.33
15.55
15.66
15.65
15.65
15.84
16.3
16.9
17.31
17.18
16.3
14.72
12.74
10.75
9.02
7.65
6.5
5.3
3.83
1.96
-0.28
-2.73
-5.2
-7.58
-9.83
-11.94
-13.95
-15.91
-17.93
-20.15
-22.72
-25.69
-28.82
-31.62
-33.41
-33.57
-31.76
-28.07
-22.96
-17.12
-11.22
-5.76
-0.99
3.01
6.25
8.83
10.82
12.34
13.51
14.42
15.12
15.66
16.02
16.19
16.22
16.18
16.14
16.13
16.16
16.22
16.3
16.37
16.42
16.32
15.99
15.33
14.34
13.11
11.83
10.68
9.74
8.98
8.24
7.31
6.03
4.35
2.33
0.06
-2.33
-4.78
-7.25
-9.75
-12.34
-15.1
-18.1
-21.39
-24.95
-28.57
-31.91
-34.46
-35.72
-35.26
-32.97
-29.01
-23.82
-18.0
-12.11
-6.55
-1.53
2.89
6.73
10.02
12.7
14.66
15.81
16.16
15.82
15.07
14.21
13.47
12.96
12.67
12.54
12.49
12.48
12.52
12.61
12.77
12.94
13.08
13.09
12.88
12.41
11.63
10.61
9.39
8.08
6.69
5.16
3.36
1.2
-1.3
-3.94
-6.45
-8.55
-10.07
-11.06
-11.76
-12.52
-13.77
-15.78
-18.64
-22.13
-25.77
-28.87
-30.71
-30.79
-28.89
-25.17
-20.11
-14.33
-8.46
-3.0
1.8
5.85
9.18
11.88
13.94
15.33
15.98
15.9
15.26
14.34
13.48
12.91
12.69
12.74
12.87
13.01
13.13
13.34
13.69
14.14
14.49
14.53
14.15
13.33
12.2
10.9
9.52
8.07
6.53
4.88
3.09
1.19
-0.86
-3.06
-5.42
-7.85
-10.21
-12.33
-14.15
-15.7
-17.18
-18.86
-20.95
-23.57
-26.58
-29.6
-32.07
-33.43
-33.17
-31.13
-27.42
-22.47
-16.9
-11.28
-6.02
-1.31
2.83
6.44
9.52
12.01
13.82
14.94
15.45
15.64
15.73
15.94
16.3
16.7
17.01
17.15
17.16
17.15
17.23
17.4
17.56
17.53
17.13
16.32
15.2
13.94
12.72
11.6
10.55
9.43
8.11
6.5
4.58
2.37
-0.07
-2.66
-5.27
-7.69
-9.75
-11.37
-12.68
-13.98
-15.61
-17.86
-20.81
-24.25
-27.76
-30.81
-32.84
-33.45
-32.44
-29.81
-25.82
-20.88
-15.45
-9.97
-4.77
-0.07
4.02
7.45
10.21
12.33
13.87
14.91
15.52
15.83
15.98
16.11
16.29
16.57
16.93
17.33
17.76
18.2
18.59
18.9
19.04
18.9
18.37
17.39
15.98
14.21
12.2
10.12
8.13
6.36
4.86
3.62
2.56
1.52
0.41
-0.88
-2.39
-4.1
-5.97
-7.91
-9.84
-11.73
-13.57
-15.45
-17.51
-19.89
-22.61
-25.46
-28.0
-29.67
-29.91
-28.41
-25.18
-20.59
-15.19
-9.61
-4.31
0.42
4.45
7.76
10.35
12.26
13.53
14.29
14.6
14.57
14.25
13.67
12.92
12.11
11.43
11.02
11.01
11.36
11.94
12.6
13.19
13.63
13.85
13.82
13.49
12.82
11.77
10.36
8.68
6.92
5.26
3.81
2.57
1.38
0.06
-1.54
-3.42
-5.45
-7.41
-9.13
-10.57
-11.88
-13.35
-15.23
-17.74
-20.87
-24.41
-27.95
-30.89
-32.57
-32.47
-30.34
-26.35
-21.03
-15.11
-9.25
-3.95
0.66
4.6
8.0
10.91
13.26
14.97
15.99
16.38
16.27
15.86
15.34
14.82
14.32
13.83
13.31
12.75
12.24
11.92
11.96
12.44
13.25
14.12
14.67
14.57
13.64
12.0
9.92
7.78
5.83
4.17
2.71
1.29
-0.25
-2.0
-3.94
-6.0
-8.08
-10.14
-12.2
-14.3
-16.51
-18.92
-21.64
-24.7
-28.04
-31.37
-34.26
-36.12
-36.42
-34.83
-31.34
-26.35
-20.44
-14.25
-8.34
-3.05
1.5
5.31
8.43
10.92
12.81
14.07
14.7
14.77
14.49
14.08
13.84
13.93
14.42
15.2
16.08
16.9
17.51
17.89
18.09
18.19
18.23
18.24
18.13
17.8
17.1
15.94
14.34
12.42
10.33
8.2
6.07
3.87
1.49
-1.09
-3.84
-6.61
-9.22
-11.54
-13.56
-15.37
-17.16
-19.12
-21.37
-23.95
-26.75
-29.56
-32.03
-33.75
-34.3
-33.29
-30.58
-26.29
-20.81
-14.75
-8.67
-3.01
2.01
6.35
10.05
13.14
15.55
17.19
18.02
18.14
17.77
17.18
16.63
16.27
16.12
16.04
15.93
15.76
15.61
15.62
15.91
16.44
17.0
17.26
16.93
15.86
14.11
11.94
9.63
7.49
5.62
3.99
2.5
0.93
-0.83
-2.82
-4.98
-7.13
-9.15
-10.99
-12.73
-14.5
-16.47
-18.73
-21.37
-24.31
-27.38
-30.3
-32.68
-34.07
-34.04
-32.37
-29.07
-24.44
-18.97
-13.2
-7.59
-2.44
2.08
5.93
9.04
11.39
12.93
13.64
13.61
13.02
12.13
11.17
10.4
9.99
10.02
10.46
11.21
12.08
12.84
13.36
13.53
13.37
12.91
12.24
11.39
10.39
9.25
7.94
6.45
4.74
2.8
0.61
-1.76
-4.22
-6.63
-8.84
-10.8
-12.54
-14.23
-16.05
-18.2
-20.74
-23.59
-26.53
-29.12
-30.83
-31.19
-29.85
-26.77
-22.2
-16.67
-10.79
-5.13
-0.04
4.38
8.15
11.38
14.1
16.24
17.72
18.47
18.56
18.12
17.38
16.51
15.67
14.91
14.26
13.74
13.44
13.41
13.67
14.18
14.76
15.19
15.23
14.7
13.61
12.07
10.3
8.47
6.67
4.88
3.0
0.91
-1.43
-3.97
-6.57
-9.07
-11.32
-13.24
-14.82
-16.19
-17.6
-19.37
-21.77
-24.86
-28.4
-31.79
-34.34
-35.37
-34.5
-31.66
-27.17
-21.55
-15.37
-9.15
-3.27
1.97
6.44
10.05
12.81
14.77
16.0
16.61
16.73
16.54
16.2
15.89
15.67
15.61
15.68
15.84
16.09
16.45
16.93
17.54
18.2
18.74
18.97
18.7
17.85
16.43
14.54
12.37
10.11
7.9
5.88
4.09
2.51
1.03
-0.5
-2.25
-4.24
-6.4
-8.61
-10.79
-13.01
-15.48
-18.43
-22.01
-26.09
-30.25
-33.79
-35.98
-36.21
-34.2
-30.08
-24.3
-17.56
-10.59
-3.99
1.84
6.69
10.55
13.44
15.42
16.59
17.0
16.79
16.11
15.19
14.24
13.44
12.88
12.58
12.49
12.59
12.89
13.35
13.93
14.56
15.09
15.35
15.21
14.65
13.71
12.5
11.11
9.62
8.02
6.29
4.37
2.25
-0.02
-2.4
-4.81
-7.18
-9.44
-11.55
-13.49
-15.39
-17.46
-19.92
-22.89
-26.17
-29.25
-31.38
-31.85
-30.24
-26.57
-21.36
-15.31
-9.15
-3.4
1.67
5.98
9.56
12.47
14.74
16.43
17.58
18.26
18.56
18.55
18.26
17.72
16.95
16.02
15.08
14.31
13.83
13.68
13.71
13.69
13.4
12.74
11.75
10.58
9.36
8.22
7.2
6.29
5.45
4.6
3.61
2.32
0.57
-1.64
-4.26
-7.13
-10.07
-12.94
-15.66
-18.23
-20.7
-23.18
-25.83
-28.68
-31.61
-34.2
-35.83
-35.84
-33.84
-29.82
-24.17
-17.62
-10.92
-4.66
0.8
5.35
9.01
11.85
13.93
15.31
16.07
16.34
16.33
16.21
16.11
16.07
16.07
16.06
16.03
16.0
16.05
16.27
16.68
17.26
17.85
18.23
18.15
17.47
16.15
14.35
12.35
10.41
8.68
7.16
5.7
4.11
2.23
0.05
-2.36
-4.81
-7.2
-9.46
-11.64
-13.81
-16.0
-18.26
-20.6
-23.07
-25.7
-28.41
-30.88
-32.59
-32.91
-31.28
-27.54
-21.98
-15.26
-8.2
-1.56
4.24
9.06
12.93
15.97
18.22
19.67
20.34
20.26
19.58
18.51
17.31
16.18
15.27
14.68
14.38
14.35
14.5
14.73
14.92
14.98
14.82
14.36
13.59
12.49
11.11
9.56
7.99
6.52
5.22
4.02
2.8
1.37
-0.39
-2.44
-4.64
-6.75
-8.63
-10.26
-11.82
-13.57
-15.8
-18.64
-22.06
-25.79
-29.38
-32.26
-33.84
-33.69
-31.58
-27.65
-22.31
-16.16
-9.82
-3.8
1.58
6.18
10.0
13.1
15.51
17.23
18.21
18.42
17.91
16.84
15.5
14.18
13.15
12.54
12.29
12.27
12.37
12.52
12.72
12.98
13.22
13.32
13.13
12.54
11.55
10.31
8.98
7.68
6.44
5.14
3.62
1.73
-0.58
-3.26
-6.13
-9.01
-11.72
-14.12
-16.19
-18.07
-19.97
-22.2
-24.98
-28.31
-31.84
-34.92
-36.72
-36.56
-34.13
-29.59
-23.53
-16.74
-9.96
-3.7
1.81
6.57
10.59
13.88
16.38
18.04
18.89
19.04
18.65
17.92
17.06
16.14
15.26
14.53
14.04
13.93
14.23
14.9
15.79
16.72
17.46
17.88
17.86
17.35
16.32
14.8
12.87
10.65
8.34
6.05
3.87
1.75
-0.38
-2.59
-4.87
-7.15
-9.32
-11.3
-13.07
-14.7
-16.35
-18.24
-20.57
-23.46
-26.88
-30.51
-33.8
-36.05
-36.6
-35.06
-31.42
-26.03
-19.54
-12.69
-6.1
-0.2
4.78
8.78
11.84
14.01
15.39
16.16
16.49
16.56
16.51
16.45
16.44
16.51
16.63
16.76
16.85
16.86
16.8
16.71
16.64
16.62
16.58
16.4
15.93
15.04
13.69
11.99
10.17
8.46
7.0
5.77
4.56
3.16
1.41
-0.68
-2.95
-5.18
-7.23
-9.11
-10.98
-12.98
-15.22
-17.69
-20.36
-23.24
-26.31
-29.46
-32.41
-34.62
-35.47
-34.46
-31.43
-26.66
-20.77
-14.49
-8.43
-2.93
1.95
6.23
9.93
12.99
15.29
16.79
17.55
17.71
17.49
17.06
16.56
16.06
15.65
15.37
15.29
15.44
15.79
16.29
16.83
17.29
17.5
17.3
16.55
15.18
13.26
10.97
8.55
6.21
4.02
1.92
-0.21
-2.49
-4.82
-7.02
-8.85
-10.19
-11.12
-11.9
-12.86
-14.31
-16.46
-19.34
-22.84
-26.65
-30.23
-32.89
-33.93
-32.9
-29.72
-24.82
-18.92
-12.78
-6.96
-1.68
3.1
7.47
11.42
14.76
17.25
18.74
19.31
19.25
18.99
18.88
19.07
19.45
19.79
19.87
19.59
19.02
18.31
17.6
16.92
16.22
15.44
14.56
13.59
12.47
11.09
9.21
