-32.57
-27.9
-21.8
-15.0
-8.23
-2.06
3.19
7.46
10.79
13.3
15.12
16.31
16.92
17.07
16.88
16.55
16.21
15.93
15.66
15.32
14.84
14.29
13.83
13.63
13.76
14.11
14.41
14.33
13.65
12.36
10.63
8.78
7.07
5.62
4.36
3.09
1.55
-0.42
-2.9
-5.77
-8.81
-11.77
-14.47
-16.87
-19.09
-21.36
-23.91
-26.88
-30.21
-33.58
-36.47
-38.2
-38.12
-35.82
-31.3
-24.97
-17.57
-9.95
-2.8
3.4
8.5
12.46
15.35
17.21
18.2
18.49
18.36
18.12
17.94
17.93
18.0
18.05
17.97
17.77
17.46
17.11
16.82
16.65
16.62
16.66
16.67
16.44
15.8
14.63
12.92
10.82
8.56
6.4
4.51
2.9
1.47
-0.01
-1.73
-3.74
-5.97
-8.3
-10.56
-12.7
-14.77
-16.86
-19.12
-21.68
-24.59
-27.82
-31.22
-34.42
-36.91
-38.02
-37.2
-34.19
-29.18
-22.75
-15.7
-8.81
-2.58
2.78
7.33
11.17
14.4
16.98
18.8
19.81
20.1
19.88
19.46
19.12
19.01
19.13
19.34
19.52
19.54
19.43
19.26
19.13
19.08
18.97
18.68
17.99
16.8
15.15
13.21
11.21
9.35
7.71
6.19
4.62
2.82
0.68
-1.76
-4.36
-6.9
-9.2
-11.15
-12.82
-14.34
-15.96
-17.94
-20.45
-23.53
-27.06
-30.66
-33.75
-35.67
-35.81
-33.84
-29.82
-24.23
-17.78
-11.21
-5.08
0.29
4.83
8.59
11.61
13.88
15.39
16.18
16.39
16.19
15.78
15.32
14.91
14.57
14.31
14.13
14.06
14.15
14.45
14.91
15.45
15.92
16.12
15.85
15.06
13.77
12.14
10.4
8.73
7.23
5.83
4.34
2.55
0.29
-2.42
-5.4
-8.36
-11.03
-13.33
-15.35
-17.37
-19.67
-22.46
-25.76
-29.34
-32.74
-35.31
-36.35
-35.28
-31.88
-26.36
-19.36
-11.79
-4.45
2.09
7.63
12.2
15.9
18.73
20.62
21.46
21.26
20.26
18.8
17.28
16.05
15.26
14.89
14.82
14.89
15.0
15.11
15.23
15.38
15.5
15.42
14.98
14.02
12.54
10.72
8.82
7.13
5.82
4.87
4.02
2.96
1.4
-0.82
-3.57
-6.59
-9.56
-12.25
-14.62
-16.77
-18.92
-21.29
-24.09
-27.4
-31.14
-35.02
-38.5
-40.89
-41.44
-39.67
-35.46
-29.21
-21.62
-13.6
-5.91
0.98
6.81
11.56
15.26
17.98
19.76
20.69
20.9
20.59
20.03
19.42
18.94
18.61
18.41
18.22
17.95
17.6
17.25
17.07
17.14
17.45
17.74
17.66
16.88
15.24
12.86
10.06
7.24
4.71
2.58
0.76
-0.94
-2.73
-4.71
-6.83
-9.0
-11.13
-13.18
-15.19
-17.23
-19.39
-21.73
-24.29
-27.06
-29.96
-32.75
-35.02
-36.15
-35.56
-32.86
-28.02
-21.53
-14.17
-6.86
-0.28
5.21
9.63
13.17
16.02
18.27
19.88
20.83
21.11
20.88
20.34
19.71
19.12
18.65
18.29
18.01
17.78
17.55
17.26
16.82
16.17
15.3
14.25
13.13
12.05
11.09
10.25
9.46
8.57
7.47
6.04
4.21
2.01
-0.54
-3.34
-6.27
-9.17
-11.87
-14.25
-16.31
-18.22
-20.22
-22.54
-25.27
-28.17
-30.72
-32.18
-31.91
-29.47
-24.9
-18.65
-11.44
-4.1
2.67
8.46
13.13
16.75
19.5
21.45
22.61
22.96
22.52
21.47
20.09
18.76
17.72
17.1
16.86
16.89
17.1
17.44
17.84
18.17
18.22
17.76
16.66
14.95
12.84
10.58
8.39
6.39
4.54
2.72
0.79
-1.39
-3.87
-6.63
-9.55
-12.49
-15.28
-17.83
-20.24
-22.71
-25.56
-29.03
-33.15
-37.57
-41.61
-44.39
-45.05
-43.13
-38.66
-32.19
-24.57
-16.69
-9.19
-2.44
3.43
8.36
12.31
15.26
17.24
18.39
18.92
19.02
18.8
18.3
17.51
16.43
15.21
14.04
13.11
12.61
12.59
12.92
13.34
13.47
13.01
11.8
9.94
7.71
5.54
3.75
2.47
1.61
0.85
-0.15
-1.64
-3.67
-6.15
-8.84
-11.56
-14.22
-16.79
-19.3
-21.78
-24.25
-26.71
-29.23
-31.86
-34.52
-36.91
-38.41
-38.32
-36.02
-31.38
-24.8
-17.12
-9.32
-2.21
3.74
8.47
12.09
14.82
16.81
18.2
19.09
19.61
19.93
20.16
20.38
20.52
20.5
20.23
19.68
18.92
18.12
17.49
17.2
17.27
17.56
17.75
17.55
16.7
15.21
13.27
11.17
9.18
7.45
5.9
4.36
2.66
0.71
-1.42
-3.6
-5.74
-7.81
-9.83
-11.89
-14.02
-16.24
-18.6
-21.12
-23.89
-26.93
-30.07
-32.92
-34.87
-35.25
-33.56
-29.72
-24.09
-17.37
-10.39
-3.85
1.83
6.56
10.4
13.51
15.99
17.9
19.26
20.09
20.5
20.55
20.33
19.92
19.39
18.79
18.2
17.73
17.39
17.2
17.09
16.93
16.6
16.02
15.18
14.11
12.87
11.55
10.26
9.03
7.86
6.64
5.22
3.49
1.38
-1.02
-3.57
-6.1
-8.53
-10.86
-13.22
-15.79
-18.72
-22.07
-25.72
-29.35
-32.41
-34.3
-34.42
-32.4
-28.27
-22.41
-15.48
-8.23
-1.33
4.73
9.69
13.45
16.08
17.69
18.47
18.61
18.32
17.83
17.27
16.72
16.08
15.21
13.95
12.29
10.44
8.78
7.73
7.55
8.26
9.59
11.15
12.54
13.47
13.84
13.6
12.77
11.41
9.54
7.28
4.7
1.93
-0.92
-3.74
-6.41
-8.83
-10.97
-12.88
-14.71
-16.69
-19.04
-21.9
-25.25
-28.94
-32.63
-35.83
-37.89
-38.2
-36.32
-32.2
-26.24
-19.13
-11.71
-4.65
1.64
7.11
11.86
15.98
19.47
22.21
24.01
24.77
24.51
23.47
21.99
20.51
19.35
18.63
18.29
18.18
18.14
18.13
18.17
18.32
18.54
18.68
18.52
17.86
16.61
14.87
12.84
10.79
8.91
7.24
5.69
4.06
2.16
-0.13
-2.77
-5.59
-8.33
-10.83
-13.0
-14.96
-16.9
-19.07
-21.66
-24.75
-28.31
-32.08
-35.65
-38.44
-39.82
-39.21
-36.33
-31.28
-24.51
-16.8
-8.93
-1.58
4.79
9.98
13.93
16.74
18.54
19.5
19.84
19.77
19.43
18.89
18.2
17.38
16.45
15.5
14.61
13.86
13.32
13.05
13.02
13.11
13.14
12.89
12.19
11.02
9.46
7.71
5.94
4.2
2.43
0.52
-1.62
-3.94
-6.31
-8.51
-10.39
-11.91
-13.19
-14.43
-15.89
-17.74
-20.08
-22.86
-25.87
-28.74
-30.93
-31.86
-31.03
-28.24
-23.64
-17.74
-11.19
-4.66
1.38
6.69
11.18
14.82
17.59
19.48
20.54
20.9
20.73
20.19
19.4
18.42
17.31
16.13
14.99
14.04
13.38
13.05
12.97
13.01
13.02
12.87
12.5
11.88
11.03
9.98
8.73
7.23
5.47
3.39
1.01
-1.6
-4.33
-6.99
-9.44
-11.61
-13.5
-15.22
-16.94
-18.86
-21.19
-24.09
-27.61
-31.52
-35.28
-38.09
-39.12
-37.75
-33.85
-27.84
-20.48
-12.7
-5.28
1.29
6.85
11.46
15.2
18.13
20.2
21.32
21.46
20.76
19.46
17.94
16.49
15.32
14.44
13.81
13.35
13.02
12.88
12.94
13.18
13.42
13.46
13.09
12.26
11.04
9.61
8.21
6.91
5.67
4.32
2.65
0.55
-1.97
-4.77
-7.64
-10.37
-12.85
-15.06
-17.08
-19.07
-21.25
-23.85
-27.03
-30.74
-34.61
-38.02
-40.1
-40.08
-37.51
-32.51
-25.69
-18.01
-10.38
-3.45
2.49
7.48
11.68
15.16
17.89
19.76
20.72
20.86
20.46
19.82
19.16
18.54
17.9
17.15
16.3
15.55
15.1
15.17
15.75
16.59
17.29
17.45
16.86
15.54
13.76
11.83
10.02
8.4
6.92
5.37
3.57
1.45
-0.98
-3.59
-6.18
-8.6
-10.8
-12.8
-14.7
-16.72
-19.03
-21.8
-25.06
-28.7
-32.33
-35.36
-37.1
-36.91
-34.46
-29.86
-23.66
-16.67
-9.74
-3.5
1.8
6.17
9.8
12.78
15.12
16.78
17.76
18.19
18.23
18.1
17.91
17.66
17.35
16.99
16.69
16.55
16.59
16.67
16.57
16.09
15.16
13.85
12.37
10.89
9.49
8.14
6.67
4.94
2.81
0.34
-2.35
-5.03
-7.53
-9.72
-11.65
-13.45
-15.36
-17.61
-20.34
-23.54
-27.0
-30.33
-32.97
-34.32
-33.85
-31.29
-26.74
-20.69
-13.83
-6.89
-0.44
5.2
9.96
13.86
16.93
19.11
20.35
20.67
20.22
19.33
18.34
17.52
16.98
16.66
16.38
16.06
15.7
15.4
15.28
15.34
15.4
15.24
14.68
13.7
12.45
11.1
9.8
8.54
7.17
5.48
3.3
0.59
-2.53
-5.84
-9.08
-12.03
-14.61
-16.86
-18.96
-21.18
-23.8
-26.96
-30.55
-34.19
-37.27
-39.08
-39.02
-36.79
-32.43
-26.32
-19.11
-11.57
-4.37
2.0
7.29
11.5
14.75
17.21
19.02
20.24
20.93
21.2
21.17
21.0
20.8
20.62
20.44
20.18
19.8
19.37
18.99
18.76
18.76
18.91
19.01
18.81
18.06
16.67
14.72
12.4
9.94
7.48
4.99
2.37
-0.49
-3.55
-6.66
-9.57
-12.08
-14.15
-15.84
-17.34
-18.89
-20.69
-22.98
-25.85
-29.23
-32.73
-35.68
-37.2
-36.55
-33.39
-27.91
-20.86
-13.16
-5.68
1.03
6.74
11.44
15.21
18.09
20.11
21.27
21.67
21.5
21.01
20.42
19.91
19.57
19.36
19.18
18.91
18.5
18.0
17.57
17.32
17.28
17.34
17.28
16.87
16.0
14.69
13.08
11.36
9.68
8.03
6.33
4.39
2.1
-0.53
-3.38
-6.2
-8.73
-10.81
-12.44
-13.81
-15.23
-17.01
-19.45
-22.61
-26.34
-30.22
-33.55
-35.59
-35.69
-33.53
-29.25
-23.41
-16.78
-10.15
-4.07
1.23
5.73
9.57
12.78
15.34
17.13
18.09
18.28
17.88
17.18
16.43
15.84
15.49
15.37
15.4
15.51
15.66
15.83
15.98
16.01
15.79
15.18
14.13
12.69
11.01
9.29
7.64
6.03
4.32
2.32
-0.04
-2.67
-5.35
-7.85
-10.09
-12.12
-14.14
-16.36
-18.92
-21.84
-25.01
-28.2
-31.06
-33.11
-33.88
-32.94
-30.12
-25.58
-19.75
-13.28
-6.81
-0.84
4.32
8.59
12.04
14.73
16.76
18.22
19.17
19.66
19.76
19.59
19.23
18.76
18.18
17.51
16.79
16.11
15.59
15.31
15.26
15.31
15.26
14.89
14.08
12.85
11.29
9.56
7.74
5.88
4.0
2.11
0.23
-1.59
-3.35
-5.03
-6.63
-8.17
-9.71
-11.29
-12.96
-14.82
-17.0
-19.62
-22.73
-26.21
-29.69
-32.54
-34.03
-33.51
-30.73
-25.93
-19.8
-13.26
-7.13
-1.87
2.48
6.14
9.36
12.27
14.72
16.49
17.39
17.46
16.94
16.24
15.7
15.46
15.48
15.55
15.51
15.29
15.02
14.89
15.01
15.32
15.57
15.46
14.78
13.53
11.93
10.29
8.84
7.63
6.5
5.18
3.47
1.25
-1.36
-4.15
-6.89
-9.41
-11.66
-13.68
-15.62
-17.58
-19.73
-22.16
-24.95
-28.07
-31.31
-34.26
-36.28
-36.7
-35.02
-31.14
-25.39
-18.46
-11.22
-4.41
1.52
6.41
10.29
13.24
15.32
16.58
17.13
17.15
16.9
16.62
16.46
16.44
16.48
16.46
16.33
16.08
15.78
15.53
15.35
15.25
15.11
14.83
14.28
13.45
12.39
11.2
10.02
8.89
7.79
6.64
5.31
3.74
1.87
-0.24
-2.51
-4.82
-7.12
-9.37
-11.59
-13.84
-16.17
-18.64
-21.3
-24.09
-26.82
-29.12
-30.48
-30.35
-28.39
-24.53
-19.17
-12.98
-6.72
-1.06
3.65
7.37
10.26
12.53
14.37
15.79
16.7
17.01
16.77
16.15
15.46
14.97
14.77
14.78
14.78
14.59
14.19
13.75
13.48
13.54
13.84
14.07
13.91
13.13
11.75
9.99
8.11
6.3
4.59
2.89
1.06
-0.99
-3.21
-5.48
-7.65
-9.61
-11.34
-12.92
-14.5
-16.24
-18.28
-20.7
-23.51
-26.55
-29.59
-32.2
-33.83
-33.94
-32.16
-28.43
-23.07
-16.7
-10.02
-3.72
1.81
6.38
10.03
12.8
14.73
15.85
16.2
15.93
15.28
14.5
13.81
13.39
13.29
13.49
13.91
14.45
15.01
15.48
15.81
15.92
15.79
15.38
14.73
13.84
12.75
11.51
10.15
8.7
7.2
5.66
4.15
2.67
1.23
-0.27
-1.91
-3.77
-5.82
-7.97
-10.09
-12.12
-14.11
-16.22
-18.64
-21.52
-24.79
-28.29
-31.64
-34.44
-36.2
-36.5
-34.99
-31.61
-26.52
-20.25
-13.48
-6.91
-1.04
3.91
7.98
11.38
14.23
16.56
18.25
19.14
19.14
18.39
17.15
15.8
14.7
14.01
13.74
13.75
13.88
14.0
14.04
14.03
14.01
13.98
13.9
13.64
13.08
12.13
10.77
9.06
7.19
5.33
3.61
2.03
0.49
-1.13
-2.88
-4.73
-6.61
-8.4
-10.11
-11.77
-13.46
-15.24
-17.16
-19.25
-21.55
-24.08
-26.8
-29.52
-31.86
-33.28
-33.23
-31.31
-27.46
-22.0
-15.57
-8.9
-2.67
2.73
7.18
10.75
13.57
15.69
17.06
17.66
17.55
16.87
15.87
14.83
13.86
13.03
12.25
11.49
10.73
10.06
9.61
9.48
9.7
10.17
10.7
11.05
11.05
10.64
9.88
8.95
8.06
7.28
6.59
5.84
4.83
3.37
1.43
-0.9
-3.41
-5.83
-7.97
-9.75
-11.24
-12.58
-13.99
-15.66
-17.76
-20.32
-23.25
-26.26
-28.84
-30.36
-30.21
-28.05
-23.92
-18.3
-11.9
-5.51
0.34
5.39
9.58
12.97
15.59
17.39
18.37
18.62
18.42
18.08
17.84
17.74
17.6
17.1
15.98
14.13
11.69
9.02
6.53
4.54
3.21
2.46
2.15
2.07
2.1
2.18
2.35
2.58
2.81
2.87
2.59
1.81
0.49
-1.27
-3.33
-5.46
-7.55
-9.49
-11.26
-12.89
-14.48
-16.21
-18.29
-20.92
-24.18
-27.92
-31.72
-34.85
-36.57
-36.25
-33.59
-28.78
-22.4
-15.27
-8.19
-1.78
3.6
7.86
11.1
13.48
15.22
16.47
17.37
18.02
18.46
18.71
18.76
18.64
18.38
18.06
17.74
17.44
17.15
16.84
16.48
16.01
15.44
14.74
13.85
12.71
11.29
9.63
7.87
6.25
4.97
4.09
3.52
2.99
2.21
1.0
-0.63
-2.57
-4.59
-6.6
-8.59
-10.67
-12.96
-15.55
-18.48
-21.76
-25.38
-29.22
-33.0
-36.17
-38.07
-38.07
-35.77
-31.32
-25.24
-18.37
-11.47
-5.08
0.58
5.5
9.73
13.3
16.13
18.15
19.37
19.88
19.84
19.4
18.76
18.04
17.39
16.89
16.56
16.35
16.19
16.02
15.85
15.75
15.77
15.87
15.9
15.66
14.97
13.8
12.25
10.54
8.8
7.1
5.39
3.56
1.58
-0.53
-2.71
-4.87
-6.94
-8.92
-10.8
-12.59
-14.32
-16.06
-17.95
-20.19
-22.94
-26.21
-29.78
-33.18
-35.76
-36.86
-36.01
-33.02
-28.13
-21.86
-14.94
-8.09
-1.85
3.48
7.82
11.26
13.93
15.97
17.49
18.5
19.02
19.04
18.63
17.89
16.96
16.02
15.17
14.5
14.01
13.75
13.75
14.04
14.57
15.17
15.54
15.41
14.64
13.31
11.71
10.15
8.82
7.68
6.51
5.02
3.02
0.53
-2.22
-4.89
-7.2
-9.0
-10.37
-11.5
-12.69
-14.23
-16.32
-19.04
-22.31
-25.8
-29.01
-31.19
-31.66
-29.94
-26.01
-20.28
-13.57
-6.73
-0.44
4.95
9.42
13.08
16.0
18.14
19.4
19.73
19.26
18.27
17.1
16.04
15.21
14.59
14.09
13.65
13.25
12.97
12.85
12.88
12.94
12.92
12.67
12.12
11.2
9.92
8.33
6.57
4.75
3.01
1.39
-0.16
-1.77
-3.58
-5.63
-7.84
-10.04
-12.08
-13.9
-15.59
-17.37
-19.56
-22.41
-26.01
-30.18
-34.4
-37.91
-39.87
-39.66
-37.04
-32.29
-26.01
-19.02
-12.02
-5.55
0.12
4.89
8.8
11.9
14.33
16.17
17.51
18.36
18.73
18.65
18.21
17.6
17.04
16.68
16.56
16.62
16.74
16.85
16.94
17.01
17.04
16.95
16.58
15.83
14.68
13.22
11.63
10.07
8.6
7.16
5.61
3.8
1.62
-0.88
-3.61
-6.4
-9.14
-11.77
-14.28
-16.72
-19.15
-21.7
-24.5
-27.66
-31.1
-34.49
-37.19
-38.44
-37.59
-34.39
-29.14
-22.57
-15.57
-8.86
-2.81
2.53
7.27
11.48
15.11
17.97
19.91
20.92
21.16
20.92
20.5
20.08
19.71
19.39
19.07
18.74
18.45
18.21
18.06
17.93
17.73
17.36
16.76
15.91
14.84
13.59
12.21
10.74
9.2
7.57
5.81
3.84
1.62
-0.82
-3.37
-5.89
-8.22
-10.29
-12.09
-13.69
-15.26
-16.99
-19.1
-21.78
-24.99
-28.48
-31.68
-33.85
-34.26
-32.5
-28.57
-22.96
-16.46
-9.86
-3.76
1.55
6.02
9.72
12.7
14.97
16.48
17.26
17.43
17.18
16.72
16.21
15.78
15.46
15.25
15.14
15.1
15.15
15.25
15.38
15.48
15.44
15.11
14.39
13.24
11.75
10.08
8.45
6.94
5.52
4.0
2.17
-0.07
-2.64
-5.35
-7.97
-10.32
-12.4
-14.29
-16.22
-18.44
-21.19
-24.54
-28.38
-32.3
-35.57
-37.38
-37.0
-34.12
-28.99
-22.29
-14.92
-7.7
-1.17
4.49
9.26
13.19
16.29
18.49
19.74
20.15
19.97
19.57
19.24
19.13
19.22
19.36
19.45
19.43
19.37
19.34
19.38
19.4
19.23
18.74
17.85
16.57
15.01
13.26
11.39
9.42
7.37
5.24
3.05
0.84
-1.39
-3.63
-5.88
-8.18
-10.5
-12.78
-14.96
-17.03
-19.1
-21.32
-23.92
-27.0
-30.4
-33.63
-35.99
-36.78
-35.49
-32.02
-26.66
-20.06
-12.94
-5.93
0.55
6.29
11.19
15.17
18.17
20.15
21.16
21.37
21.06
20.51
19.92
19.32
18.71
18.03
17.31
16.62
16.1
15.82
15.79
15.94
16.13
16.22
16.02
15.45
14.5
13.28
11.97
10.74
9.7
8.75
7.69
6.24
4.24
1.72
-1.13
-3.99
-6.63
-8.9
-10.87
-12.73
-14.73
-17.13
-20.11
-23.68
-27.65
-31.57
-34.74
-36.37
-35.82
-32.83
-27.67
-21.06
-13.95
-7.18
-1.25
3.71
7.81
11.22
13.99
16.09
17.42
17.98
17.9
17.34
16.55
15.66
14.84
14.2
13.86
13.9
14.38
15.19
16.15
17.04
17.55
17.52
16.84
15.54
13.75
11.67
9.52
7.43
5.48
3.63
1.8
-0.1
-2.13
-4.31
-6.59
-8.9
-11.21
-13.5
-15.86
-18.36
-21.13
-24.18
-27.33
-30.2
-32.17
-32.62
-31.07
-27.46
-22.1
-15.66
-8.95
-2.6
2.96
7.6
11.34
14.23
16.31
17.62
18.25
18.35
18.13
17.79
17.43
17.1
16.78
16.44
16.03
15.51
14.88
14.19
13.53
13.0
12.68
12.52
12.37
11.99
11.21
10.0
8.56
7.12
5.87
4.79
3.69
2.3
0.43
-1.87
-4.37
-6.79
-8.95
-10.87
-12.73
-14.77
-17.21
-20.14
-23.49
-27.07
-30.52
-33.35
-34.99
-34.96
-33.05
-29.36
-24.3
-18.43
-12.29
-6.27
-0.65
4.39
8.66
12.01
14.35
15.69
16.16
16.0
15.43
14.73
14.09
13.67
13.58
13.83
14.34
14.99
15.66
16.3
16.9
17.42
17.81
17.95
17.67
16.89
15.63
14.03
12.3
10.63
9.08
7.58
6.0
4.18
2.04
-0.41
-3.12
-5.93
-8.67
-11.16
-13.34
-15.23
-17.03
-18.98
-21.32
-24.18
-27.4
-30.49
-32.77
-33.55
-32.36
-29.17
-24.37
-18.62
-12.6
-6.84
-1.58
3.13
7.28
10.84
13.68
15.7
16.86
17.25
17.07
16.53
15.83
15.08
14.35
13.68
13.13
12.75
12.6
12.74
13.14
13.71
14.25
14.57
14.46
13.82
12.67
11.11
9.34
7.55
5.84
4.24
2.66
0.97
-0.87
-2.86
-4.9
-6.91
-8.83
-10.74
-12.76
-15.05
-17.73
-20.79
-24.1
-27.35
-30.06
-31.66
-31.6
-29.54
-25.49
-19.86
-13.37
-6.82
-0.8
4.37
8.67
12.23
15.17
17.5
19.11
19.95
20.01
19.41
18.35
17.06
15.73
14.52
13.52
12.79
12.32
12.08
11.94
11.78
11.51
11.08
10.5
9.81
9.04
8.23
7.41
6.57
5.64
4.53
3.06
1.1
-1.36
-4.2
-7.16
-9.92
-12.27
-14.2
-15.82
-17.35
-19.03
-20.95
-23.19
-25.67
-28.23
-30.54
-32.17
-32.57
-31.33
-28.29
-23.66
-17.97
-11.84
-5.88
-0.44
4.3
8.33
11.65
14.27
16.14
17.26
17.7
17.62
17.27
16.91
16.73
16.78
16.93
16.99
16.74
16.14
15.33
14.5
13.85
13.35
12.85
12.12
11.04
9.67
8.21
6.87
5.74
4.77
3.81
2.7
1.36
-0.21
-1.95
-3.78
-5.69
-7.66
-9.67
-11.73
-13.83
-15.98
-18.27
-20.77
-23.56
-26.56
-29.51
-31.94
-33.33
-33.18
-31.26
-27.59
-22.53
-16.58
-10.28
-4.11
1.59
6.59
10.77
14.09
16.57
18.31
19.41
19.94
19.96
19.54
18.75
17.72
16.63
15.65
14.9
14.42
14.16
14.02
13.9
13.77
13.6
13.36
12.93
12.22
11.12
9.63
7.9
6.18
4.68
3.55
2.67
1.82
0.7
-0.86
-2.81
-4.94
-7.0
-8.85
-10.48
-12.05
-13.71
-15.54
-17.54
-19.68
-21.92
-24.3
-26.81
-29.25
-31.19
-32.05
-31.27
-28.58
-24.16
-18.54
-12.44
-6.52
-1.21
3.31
7.05
10.06
12.38
13.96
14.81
14.94
14.53
13.83
13.1
12.53
12.21
12.09
12.07
12.07
12.09
12.16
12.3
12.47
12.52
12.31
11.69
10.66
9.32
7.86
6.51
5.37
4.43
3.54
2.48
1.06
-0.82
-3.07
-5.51
-7.87
-9.98
-11.8
-13.45
-15.14
-17.07
-19.42
-22.17
-25.2
-28.21
-30.73
-32.22
-32.09
-30.02
-25.95
-20.28
-13.68
-7.0
-0.9
4.18
8.14
11.1
13.22
14.69
15.63
16.14
16.28
16.18
15.96
15.65
15.32
14.92
