19.95
11.63
5.15
-0.42
-6.41
-13.98
-23.38
-33.92
-44.23
-52.9
-59.13
-63.22
-66.45
-70.72
-77.91
-89.19
-104.52
-122.33
-139.7
-152.85
-158.21
-153.57
-138.9
-116.55
-90.43
-64.75
-42.75
-26.06
-14.84
-8.47
-6.22
-7.53
-11.94
-18.69
-26.7
-34.7
-41.67
-47.18
-51.58
-55.75
-60.73
-67.32
-75.74
-85.54
-95.85
-105.82
-115.16
-124.42
-135.01
-148.71
-166.97
-190.14
-216.99
-244.75
-269.52
-287.3
-294.93
-290.86
-275.4
-250.25
-217.85
-180.5
-139.99
-97.54
-54.22
-11.15
30.33
69.06
104.48
136.88
167.28
196.84
226.26
255.22
282.43
306.0
324.1
335.68
340.74
340.4
336.51
331.46
327.78
327.69
332.24
340.63
349.77
354.89
351.04
334.91
306.19
267.51
223.32
178.04
134.75
94.75
58.13
24.63
-5.82
-33.15
-57.46
-79.24
-99.12
-117.41
-133.63
-146.61
-154.89
-157.19
-152.9
-142.24
-126.31
-106.83
-85.92
-65.67
-47.88
-33.74
-23.87
-18.39
-17.19
-20.24
-27.68
-39.75
-56.47
-77.32
-100.83
-124.7
-145.96
-161.53
-168.91
-166.75
-155.16
-135.72
-111.16
-84.78
-59.73
-38.34
-21.56
-8.82
1.61
11.81
23.39
37.0
52.18
67.77
82.48
95.27
105.58
113.28
118.45
121.24
121.76
120.13
116.45
110.85
103.4
94.21
83.41
71.2
57.86
43.75
29.47
15.72
3.3
-7.16
-15.4
-21.61
-26.29
-29.91
-32.69
-34.43
-34.85
-33.85
-31.92
-30.13
-29.96
-32.78
-39.41
-49.78
-62.73
-76.17
-87.28
-93.13
-91.33
-80.79
-62.15
-37.72
-10.91
14.77
36.55
52.99
63.94
70.15
72.68
72.54
70.37
66.56
61.38
55.24
48.74
42.71
38.0
35.21
34.44
35.24
36.73
38.05
38.52
37.88
36.15
33.42
29.79
25.31
20.06
14.13
7.67
0.67
-7.02
-15.63
-25.21
-35.44
-45.57
-54.68
-62.15
-67.95
-72.82
-78.04
-84.95
-94.38
-106.13
-118.67
-129.31
-134.76
-131.98
-119.27
-96.92
-67.38
-34.68
-3.24
23.39
43.38
56.83
65.24
70.57
74.3
77.0
78.31
77.62
74.72
70.18
65.3
61.57
59.95
60.45
62.11
63.58
63.75
62.24
59.41
55.97
52.53
49.12
45.26
40.19
33.24
24.19
13.38
1.67
-9.84
-20.17
-28.78
-35.79
-41.84
-47.9
-54.91
-63.56
-74.16
-86.5
-99.72
-112.08
-120.97
-123.34
-116.71
-100.14
-74.93
-44.4
-12.95
15.34
37.79
53.63
63.66
69.4
72.42
73.87
74.41
74.33
73.82
72.95
71.81
70.57
69.5
68.9
69.0
69.75
70.82
71.66
71.64
70.26
67.37
63.07
57.69
51.49
44.58
36.91
28.34
18.84
8.57
-2.08
-12.57
-22.41
-31.3
-39.3
-46.7
-54.0
-61.78
-70.61
-80.96
-92.99
-106.19
-118.95
-128.62
-131.95
-126.11
-109.91
-84.51
-53.33
-21.01
8.01
30.91
46.87
56.85
62.6
65.82
67.57
68.27
68.01
66.87
65.17
63.35
61.85
60.92
60.59
60.68
60.97
61.24
61.3
60.98
60.01
58.1
54.95
50.39
44.44
37.4
29.71
21.82
14.06
6.49
-1.01
-8.61
-16.39
-24.28
-32.08
-39.54
-46.62
-53.51
-60.74
-69.04
-79.1
-91.04
-103.93
-115.54
-122.69
-122.16
-111.85
-91.79
-64.4
-33.8
-4.43
20.23
38.59
50.86
58.31
62.47
64.4
64.57
63.14
60.27
56.43
52.4
49.03
46.94
46.37
47.09
48.53
50.07
51.15
51.42
50.64
48.73
45.64
41.37
36.04
29.84
23.04
15.85
8.38
0.66
-7.22
-15.1
-22.76
-29.99
-36.73
-43.05
-49.19
-55.48
-62.33
-70.22
-79.45
-89.91
-100.55
-109.25
-113.06
-109.18
-96.05
-74.28
-46.74
-17.67
8.77
29.8
44.63
54.18
60.1
63.77
65.82
66.15
64.57
61.2
56.77
52.33
48.89
47.03
46.71
47.36
48.24
48.67
48.25
46.84
44.42
41.04
36.71
31.46
25.35
18.56
11.25
3.57
-4.36
-12.42
-20.39
-28.01
-35.01
-41.25
-46.81
-52.05
-57.46
-63.58
-70.97
-80.01
-90.74
-102.41
-113.3
-120.69
-121.59
-113.65
-96.32
-71.28
-42.06
-12.94
12.44
32.09
45.85
54.88
60.73
64.64
67.19
68.49
68.47
67.24
65.21
62.88
60.74
59.04
57.74
56.66
55.62
54.58
53.52
52.38
50.87
48.44
44.57
38.97
31.8
23.66
15.36
7.5
0.35
-6.29
-12.85
-19.63
-26.71
-33.84
-40.65
-46.82
-52.36
-57.61
-63.21
-69.99
-78.68
-89.55
-101.99
-114.23
-123.36
-126.1
-119.78
-103.52
-78.79
-49.06
-18.8
8.1
29.33
44.5
54.6
61.12
65.29
67.67
68.41
67.57
65.52
62.88
60.39
58.56
57.5
57.01
56.74
56.48
56.27
56.27
56.57
56.96
56.75
54.99
50.89
44.16
35.29
25.41
15.82
7.56
0.97
-4.39
-9.46
-15.19
-22.15
-30.25
-38.85
-47.07
-54.31
-60.44
-65.99
-71.94
-79.38
-89.21
-101.53
-115.2
-127.78
-135.84
-135.92
-125.76
-105.36
-77.21
-45.6
-15.17
10.55
29.94
43.3
52.0
57.53
60.83
62.32
62.09
60.38
57.76
54.92
52.55
50.99
50.22
49.94
49.86
49.78
49.75
49.86
50.08
50.01
48.98
46.22
41.25
34.22
25.85
17.22
9.24
2.32
-3.81
-9.83
-16.43
-23.87
-31.85
-39.62
-46.47
-52.03
-56.5
-60.62
-65.47
-72.13
-81.31
-92.97
-105.94
-117.8
-125.2
-124.78
-114.33
-93.87
-65.87
-34.59
-4.62
20.54
39.39
52.3
60.75
66.23
69.67
71.27
70.99
69.01
65.95
62.76
60.39
59.35
59.57
60.47
61.21
61.21
60.31
58.89
57.45
56.33
55.33
53.77
50.78
45.74
38.67
30.22
21.51
13.61
7.15
2.0
-2.52
-7.43
-13.52
-21.0
-29.46
-38.04
-45.87
-52.54
-58.25
-63.73
-69.99
-78.0
-88.44
-101.38
-116.01
-130.23
-140.88
-144.33
-137.69
-120.09
-93.29
-61.33
-29.19
-1.15
20.46
35.46
45.22
51.52
55.7
58.32
59.52
59.41
58.4
57.19
56.44
56.49
57.18
57.98
58.23
57.55
56.07
54.32
52.97
52.37
52.31
51.89
49.93
45.48
38.3
29.02
18.94
9.49
1.59
-4.73
-10.35
-16.54
-24.37
-34.11
-45.17
-56.3
-66.14
-73.86
-79.37
-83.35
-86.88
-91.24
-97.41
-105.81
-115.9
-125.92
-133.01
-133.87
-125.84
-107.99
-81.76
-50.65
-19.09
9.0
31.27
47.27
57.97
64.86
69.15
71.5
72.07
70.99
68.6
65.59
62.77
60.81
59.93
59.9
60.23
60.47
60.47
60.51
60.97
61.94
62.98
63.08
61.12
56.39
48.98
39.84
30.4
21.91
14.99
9.33
3.98
-2.19
-9.84
-18.86
-28.45
-37.44
-44.95
-50.7
-55.22
-59.61
-65.21
-73.12
-83.79
-96.67
-109.95
-120.72
-125.52
-121.31
-106.7
-82.63
-52.3
-20.19
9.32
33.28
50.62
61.94
68.63
72.04
72.96
71.77
68.78
64.52
59.89
55.88
53.29
52.4
52.9
54.11
55.35
56.19
56.62
56.76
56.59
55.73
53.46
49.03
42.12
33.09
22.92
12.84
3.86
-3.74
-10.38
-16.92
-24.14
-32.41
-41.44
-50.47
-58.6
-65.27
-70.56
-75.16
-80.24
-87.1
-96.74
-109.35
-123.86
-137.72
-147.26
-148.67
-139.24
-118.55
-88.86
-54.47
-20.4
9.27
32.38
48.86
59.99
67.5
72.65
76.06
77.95
78.46
77.97
77.0
76.13
75.66
75.57
75.48
74.97
73.78
72.04
70.16
68.65
67.7
66.97
65.58
62.39
56.6
48.12
37.76
26.94
17.13
9.21
3.14
-1.99
-7.46
-14.32
-22.92
-32.75
-42.68
-51.58
-58.76
-64.37
-69.33
-74.94
-82.56
-93.02
-106.35
-121.27
-135.23
-144.69
-146.03
-136.66
-116.14
-86.63
-52.37
-18.32
11.35
34.4
50.66
61.41
68.38
72.91
75.7
77.0
76.98
76.01
74.76
73.86
73.71
74.23
74.95
75.29
74.93
73.95
72.83
72.15
72.06
72.08
71.11
67.88
61.58
52.31
41.1
29.49
18.95
10.25
3.29
-2.78
-9.03
-16.23
-24.51
-33.38
-42.01
-49.66
-56.09
-61.6
-66.97
-73.25
-81.49
-92.39
-105.96
-121.07
-135.29
-145.14
-146.92
-138.02
-118.03
-89.16
-55.61
-22.26
6.95
29.87
46.32
57.39
64.55
68.91
71.12
71.57
70.63
68.82
66.78
65.02
63.8
63.11
62.69
62.32
61.88
61.46
61.22
61.18
61.06
60.21
57.84
53.32
46.59
38.16
28.98
20.04
11.91
4.52
-2.67
-10.32
-18.83
-28.07
-37.49
-46.34
-54.11
-60.73
-66.69
-72.89
-80.35
-89.84
-101.46
-114.18
-125.71
-132.79
-132.11
-121.44
-100.72
-72.26
-40.17
-9.0
17.66
38.05
52.25
61.43
67.03
69.98
70.8
69.71
67.18
64.01
61.19
59.5
59.24
60.08
61.34
62.35
62.8
62.8
62.72
62.7
62.45
61.18
57.92
52.03
43.57
33.42
22.84
13.07
4.71
-2.4
-9.01
-16.06
-24.12
-33.13
-42.46
-51.28
-58.94
-65.28
-70.76
-76.25
-82.85
-91.56
-102.89
-116.53
-130.88
-143.06
-149.37
-146.39
-132.24
-107.51
-75.37
-40.59
-8.01
18.95
39.06
52.96
62.26
68.54
72.74
75.16
75.88
75.16
73.56
71.82
70.5
69.81
69.54
69.32
68.92
68.38
68.0
68.04
68.5
68.81
68.05
65.21
59.64
51.44
41.39
30.75
20.68
11.87
4.26
-2.77
-10.05
-18.18
-27.13
-36.34
-44.97
-52.34
-58.25
-63.1
-67.85
-73.62
-81.5
-92.07
-104.95
-118.5
-129.73
-134.96
-130.83
-115.66
-90.3
-58.18
-24.18
6.9
31.83
49.63
61.17
68.26
72.6
75.25
76.55
76.64
75.7
74.2
72.68
71.55
70.92
70.52
69.97
68.92
67.32
65.45
63.7
62.33
61.17
59.59
56.6
51.4
43.71
34.06
23.62
13.75
5.42
-1.22
-6.84
-12.61
-19.5
-27.82
-37.1
-46.31
-54.51
-61.17
-66.57
-71.59
-77.39
-85.08
-95.36
-108.15
-122.38
-135.69
-144.75
-146.0
-136.82
-116.69
-87.64
-53.81
-20.11
9.3
32.11
48.06
58.36
64.69
68.44
70.36
70.74
69.73
67.65
64.96
62.23
59.95
58.36
57.55
57.37
57.67
58.23
58.74
58.81
57.98
55.7
51.63
45.76
38.42
30.24
21.85
13.66
5.78
-1.99
-9.94
-18.24
-26.83
-35.44
-43.71
-51.37
-58.39
-65.0
-71.76
-79.47
-88.91
-100.35
-113.16
-125.32
-133.69
-134.77
-125.83
-106.28
-78.01
-45.05
-12.26
16.24
38.17
53.32
62.91
68.65
71.88
73.27
73.05
71.42
68.84
66.08
63.84
62.58
62.27
62.45
62.61
62.42
61.88
61.26
60.8
60.34
59.27
56.67
51.71
44.19
34.64
24.24
14.36
5.93
-0.91
-6.81
-12.83
-19.88
-28.26
-37.48
-46.61
-54.7
-61.28
-66.62
-71.56
-77.32
-85.1
-95.64
-108.83
-123.26
-136.17
-143.84
-142.59
-130.12
-106.6
-74.94
-39.87
-6.44
21.56
42.53
56.86
66.11
71.97
75.53
77.23
77.26
75.93
73.87
71.91
70.72
70.58
71.21
71.98
72.24
71.68
70.45
69.05
67.93
67.1
66.0
63.62
59.0
51.69
42.14
31.51
21.27
12.57
5.73
0.21
-5.1
-11.35
-19.12
-28.23
-37.84
-46.9
-54.6
-60.79
-65.97
-71.09
-77.33
-85.78
-97.02
-110.71
-125.18
-137.38
-143.47
-139.92
-124.93
-99.28
-66.4
-31.25
1.24
27.59
46.54
58.64
65.52
68.89
69.98
69.52
67.96
65.71
63.3
61.23
59.84
59.21
59.17
59.41
59.68
59.91
60.21
60.67
61.12
61.01
59.49
55.72
49.32
40.66
30.76
20.93
12.19
4.86
-1.46
-7.66
-14.58
-22.63
-31.52
-40.53
-48.78
-55.69
-61.22
-65.96
-71.02
-77.71
-87.11
-99.44
-113.64
-127.08
-136.08
-136.88
-127.05
-106.48
-77.72
-45.19
-13.69
13.0
33.12
46.77
55.18
59.8
61.66
61.31
59.16
55.79
52.01
48.77
46.8
46.38
47.38
49.4
52.03
54.91
57.81
60.41
62.26
62.76
61.28
57.47
51.38
43.53
34.74
25.91
17.6
9.95
2.69
-4.71
-12.67
-21.24
-30.05
-38.45
-45.82
-51.92
-57.17
-62.58
-69.57
-79.43
-92.68
-108.58
-124.79
-137.74
-143.52
-139.03
-123.24
-97.6
-65.82
-32.63
-2.4
21.99
39.62
51.15
58.1
62.02
64.04
64.79
64.62
63.82
62.76
61.8
61.19
60.92
60.8
60.57
60.14
59.7
59.57
60.02
60.86
61.45
60.81
57.99
52.61
44.99
36.07
27.06
18.92
12.01
5.96
-0.0
-6.73
-14.61
-23.43
-32.44
-40.67
-47.47
-52.81
-57.42
-62.58
-69.69
-79.8
-93.04
-108.19
-122.52
-132.22
-133.41
-123.44
-102.0
-71.61
-36.81
-2.8
26.29
48.42
63.68
73.55
79.74
83.45
85.11
84.83
82.83
79.72
76.4
73.74
72.21
71.71
71.72
71.58
70.86
69.6
68.15
66.91
66.01
65.05
63.19
59.52
53.37
44.79
34.52
23.75
13.76
5.34
-1.44
-7.23
-13.11
-20.02
-28.37
-37.82
-47.44
-56.14
-63.22
-68.71
-73.36
-78.46
-85.34
-95.02
-107.75
-122.6
-137.24
-148.22
-151.68
-144.58
-125.95
-97.42
-63.0
-27.72
3.91
29.14
47.27
59.13
66.24
69.9
70.98
70.0
67.52
64.23
61.03
58.63
57.4
57.29
57.91
58.81
59.66
60.43
61.21
62.04
62.68
62.56
60.87
56.91
50.41
41.74
31.8
21.76
12.64
4.91
-1.63
-7.7
-14.17
-21.63
-30.01
-38.69
-46.73
-53.39
-58.53
-62.72
-67.11
-73.07
-81.72
-93.44
-107.48
-121.68
-132.66
-136.57
-130.26
-112.54
-84.89
-51.21
-16.6
14.26
38.52
55.5
66.27
72.58
75.88
76.92
75.89
72.96
68.68
64.11
60.38
58.39
58.29
59.53
61.13
62.18
62.23
61.44
60.37
59.54
59.04
58.28
56.27
52.06
45.17
35.96
25.53
15.33
6.63
-0.01
-4.96
-9.28
-14.24
-20.79
-29.13
-38.66
-48.32
-56.98
-63.96
-69.23
-73.44
-77.6
-82.98
-90.68
-101.38
-114.89
-129.7
-142.89
-150.58
-149.02
-135.91
-111.54
-78.91
-42.95
-8.89
19.31
39.88
53.17
60.81
64.63
65.88
65.13
62.63
58.75
54.31
50.38
48.0
47.69
49.29
52.05
55.02
57.45
59.04
59.92
60.42
60.73
60.71
59.86
57.54
53.19
46.65
38.22
28.69
19.1
10.4
3.1
-2.89
-8.19
-13.68
-20.1
-27.65
-35.96
-44.2
-51.51
-57.44
-62.06
-66.03
-70.29
-75.86
-83.58
-93.87
-106.43
-119.9
-131.7
-138.37
-136.43
-123.65
-100.11
-68.45
-33.25
0.51
28.98
50.3
64.66
73.47
78.38
80.57
80.66
79.02
76.13
72.76
69.85
68.2
68.11
69.3
70.98
72.29
72.59
71.77
70.21
68.5
66.98
65.46
63.16
59.05
52.41
43.26
32.43
21.35
11.42
3.43
-2.67
-7.74
-12.94
-19.22
-26.91
-35.61
-44.46
-52.54
-59.29
-64.7
-69.35
-74.16
-80.22
-88.5
-99.54
-113.02
-127.36
-139.63
-145.94
-142.68
-127.83
-102.09
-68.91
-33.44
-0.84
25.3
43.81
55.56
62.43
66.19
67.89
67.84
66.13
63.06
59.31
55.74
53.13
51.8
51.5
51.62
51.41
50.4
48.51
46.14
43.78
41.76
39.95
37.75
34.33
29.04
21.85
13.4
4.94
-2.02
-6.23
-7.09
-4.91
-0.85
3.39
6.11
6.15
3.21
-2.14
-8.78
-15.57
-21.81
-27.52
-33.35
-40.46
-49.99
-62.66
-78.27
-95.25
-110.65
-120.62
-121.44
-110.91
-89.31
-59.56
-26.34
5.4
31.97
51.66
64.71
72.39
76.16
77.1
75.95
73.32
69.97
66.85
64.69
63.83
64.01
64.59
64.92
64.67
64.01
63.43
63.47
64.26
65.38
65.83
64.46
60.34
53.28
43.77
32.92
22.02
12.13
3.75
-3.3
-9.7
-16.25
-23.52
-31.52
-39.67
-47.1
-53.08
-57.4
-60.61
-63.86
-68.56
-75.91
-86.46
-99.62
-113.49
-125.03
-130.55
-126.88
-112.46
-88.14
-57.1
-23.97
6.73
31.89
50.36
62.73
70.44
74.8
76.61
76.21
73.88
70.27
66.44
63.5
62.25
62.77
64.46
66.27
67.27
66.94
65.46
63.45
61.52
59.85
57.96
54.91
49.75
42.04
32.2
21.32
10.78
1.67
-5.7
-11.76
-17.51
-23.85
-31.19
-39.26
-47.26
-54.3
-59.83
-63.91
-67.22
-70.81
-75.79
-83.11
-93.27
-105.9
-119.5
-131.29
-137.62
-135.03
-121.45
-97.28
-65.46
-30.68
2.11
29.26
49.13
62.08
69.59
73.36
74.63
74.08
72.1
69.14
65.86
62.96
60.96
59.99
59.73
59.64
59.26
58.46
57.52
56.91
56.93
57.4
57.61
56.5
53.13
47.08
38.75
29.17
19.69
11.39
4.7
-0.75
-5.86
-11.6
-18.52
-26.53
-34.91
-42.76
-49.43
-54.81
-59.46
-64.37
-70.7
-79.38
-90.78
-104.31
-118.11
-129.19
-133.93
-129.24
-113.72
-88.4
-56.7
-23.38
6.93
31.05
47.75
57.57
61.99
62.64
60.86
57.59
53.52
49.3
45.47
42.42
40.29
38.99
38.33
38.17
38.52
39.54
41.35
43.86
46.61
48.81
49.45
47.66
42.96
35.43
25.72
14.71
3.34
-7.72
-18.14
-27.84
-36.88
-45.22
-52.72
-59.19
-64.65
-69.4
-74.11
-79.67
-86.91
-96.34
-107.56
-119.03
-128.03
-131.19
-125.5
-109.5
-84.11
-52.62
-19.67
10.25
34.1
50.93
61.51
67.4
70.06
70.35
68.65
65.26
60.76
56.0
51.89
49.07
47.77
47.8
48.8
50.41
52.33
54.27
55.79
56.17
54.73
50.94
44.81
36.93
28.27
19.73
11.81
4.34
-3.26
-11.59
-20.93
-31.03
-41.24
-50.8
-59.17
-66.23
-72.23
-77.74
-83.54
-90.53
-99.39
-110.14
-121.56
-130.96
-134.67
-129.19
-112.61
-85.77
-52.19
-17.03
14.65
39.55
56.79
67.52
73.81
77.45
79.4
79.85
78.82
76.56
73.79
71.42
70.14
70.13
71.03
72.2
73.13
73.58
73.59
73.2
72.2
70.02
65.92
59.37
50.39
39.7
28.48
17.86
8.53
0.5
-6.82
-14.19
-22.13
-30.72
-39.49
-47.76
-54.86
-60.58
-65.23
-69.66
-75.08
-82.69
-93.18
-106.22
-120.0
-131.42
-136.69
-132.58
-117.64
-92.95
-61.94
-29.38
0.19
23.66
39.99
49.83
54.74
56.32
55.76
53.75
50.7
47.08
43.4
40.15
37.71
36.15
35.45
35.5
36.3
37.92
40.39
43.53
46.77
49.27
50.11
48.76
45.31
40.45
35.14
30.17
25.84
21.83
17.55
12.5
6.61
0.23
-6.01
-11.58
-16.28
-20.34
-24.31
-28.93
-34.97
-43.14
-53.71
-66.11
-78.46
-87.68
-90.12
-82.9
-65.19
-39.0
-8.77
20.19
43.52
59.25
68.08
72.53
75.34
78.3
81.56
84.16
84.91
83.31
79.84
75.77
72.42
70.57
70.19
70.53
70.65
69.81
67.78
64.75
61.07
56.93
52.22
46.6
39.69
31.3
21.57
10.9
-0.06
-10.74
-20.69
-29.74
-37.94
-45.49
-52.67
-59.82
-67.41
-75.97
-86.02
-97.66
-110.09
-121.33
-128.41
-128.13
-118.28
-98.79
-72.0
-42.15
-13.93
8.98
24.97
34.54
39.54
41.97
43.18
43.5
42.7
40.48
37.03
33.06
29.58
27.43
26.9
27.62
28.81
29.64
29.57
28.55
26.85
24.86
22.69
20.08
16.39
10.89
3.12
-6.81
-18.17
-29.78
-40.4
-49.2
-55.99
-61.33
-66.21
-71.65
-78.44
-86.98
-97.31
-109.0
-120.94
-131.07
-136.52
-134.31
-122.4
-100.76
-71.75
-39.56
-8.85
16.76
35.59
47.96
55.34
59.3
60.76
59.92
56.72
51.41
44.91
38.64
34.01
31.82
31.92
33.29
34.48
34.3
32.32
28.91
24.99
21.34
18.04
14.38
9.13
1.24
-9.52
-22.25
-35.24
-46.58
-54.94
-60.06
-62.76
-64.42
-66.52
-70.23
-76.18
-84.4
-94.17
-103.82
-110.7
-111.69
-104.06
-86.68
-60.71
-29.43
2.64
31.28
53.77
69.34
78.87
83.94
86.06
86.13
84.55
81.57
77.63
73.55
70.29
68.67
68.95
70.73
73.0
74.56
74.53
72.62
69.2
65.02
60.77
56.69
52.41
47.18
40.17
30.95
19.71
7.31
-5.02
-16.15
-25.42
-32.87
-39.14
-45.24
-52.22
-60.93
-71.81
-84.64
-98.33
-110.69
-118.66
-118.99
-109.35
-89.37
-61.15
-28.78
2.94
29.93
50.04
63.24
70.91
74.89
76.49
76.22
74.04
70.01
64.64
59.02
54.46
51.92
51.63
53.04
55.1
56.73
57.26
56.6
55.05
53.01
50.58
47.51
43.21
37.11
28.92
18.87
7.65
-3.74
-14.38
-23.67
-31.49
-38.21
-44.49
-51.04
-58.52
-67.45
-78.13
-90.44
-103.45
-115.07
-122.3
-121.86
-111.46
-90.85
-62.34
-30.2
0.7
26.47
45.21
57.11
63.69
66.72
67.43
66.3
63.41
58.9
53.34
47.69
42.99
40.03
39.02
39.57
40.91
42.19
42.72
42.14
40.44
37.82
34.48
30.45
25.59
19.61
12.32
3.72
-5.82
-15.68
-25.11
-33.53
-40.68
-46.72
-52.15
-57.7
-64.11
-72.1
-82.16
-94.34
-107.82
-120.67
-129.92
-132.26
-125.15
-107.93
-82.32
-52.02
-21.57
5.12
25.78
40.0
48.78
53.65
55.95
56.49
55.69
53.82
51.24
48.49
46.19
44.9
44.97
46.4
48.85
51.77
54.51
56.57
57.61
57.46
56.07
53.38
49.41
44.29
38.28
31.75
25.04
18.36
11.65
4.74
-2.53
-10.06
-17.52
-24.43
-30.42
-35.48
-40.02
-44.89
-51.08
-59.41
-69.96
-81.62
-91.98
-97.72
-95.53
-83.43
-61.67
-33.02
-1.97
26.65
49.16
63.86
71.13
72.65
70.53
66.51
61.71
56.75
52.0
47.83
44.66
42.8
42.27
42.78
43.77
44.73
45.49
46.28
47.59
49.76
52.63
55.38
56.73
55.54
51.22
44.08
35.1
25.49
16.09
7.08
-1.95
-11.63
-22.22
-33.37
-44.16
-53.52
-60.74
-65.86
-69.64
-73.39
-78.53
-86.1
-96.32
-108.17
-119.27
-126.14
-125.12
-113.69
-91.56
-61.18
-27.1
5.46
32.25
51.12
62.15
67.0
67.7
65.92
62.56
57.99
52.5
46.59
40.98
36.38
33.28
31.66
31.18
31.37
31.86
32.59
33.6
34.9
36.14
36.61
35.47
32.12
26.56
19.47
11.91
4.87
-1.16
-6.35
-11.38
-17.02
-23.69
-31.2
-38.94
-46.11
-52.26
-57.4
-62.09
-67.28
-74.03
-83.06
-94.28
-106.42
-116.88
-122.27
-119.35
-106.29
-83.55
-53.96
-21.91
8.09
32.79
50.91
62.94
70.36
74.59
76.54
76.46
74.37
70.49
65.42
60.2
55.89
53.25
52.45
53.09
54.4
55.55
55.93
55.23
53.45
50.66
46.85
41.94
35.76
28.27
19.56
9.89
-0.39
-10.85
-21.08
-30.72
-39.5
-47.33
-54.34
-60.81
-67.2
-74.1
-82.15
-91.9
-103.51
-116.23
-128.11
-136.07
-136.62
-127.1
-106.92
-78.12
-44.86
-12.11
16.02
37.33
51.85
61.0
66.65
70.13
72.05
72.52
71.58
69.6
67.22
65.16
63.88
63.43
63.43
63.44
63.11
62.46
61.74
61.13
60.47
59.13
56.31
51.3
43.97
34.92
25.2
15.97
7.9
0.99
-5.38
-11.98
-19.39
-27.65
-36.26
-44.5
-51.74
-57.87
-63.25
-68.75
-75.43
-84.25
-95.54
-108.55
-121.2
-130.2
-131.9
-123.54
-104.38
-76.32
-43.44
-10.67
17.81
39.67
54.71
64.18
69.78
72.78
73.77
72.91
70.39
66.79
62.92
59.65
57.55
56.6
56.34
56.18
55.7
54.87
54.04
53.52
53.33
52.95
51.46
47.95
41.98
33.83
24.38
14.81
6.0
-1.76
-8.83
-15.87
-23.42
-31.56
-39.81
-47.49
-53.91
-58.8
-62.44
-65.62
-69.43
-75.01
-83.27
-94.39
-107.45
-120.11
-128.91
-130.1
-120.99
-101.05
-72.37
-39.11
-6.17
22.32
44.07
58.74
67.43
71.81
73.27
72.74
70.72
67.64
63.97
60.36
57.42
55.52
54.71
54.68
55.05
55.46
55.8
56.01
56.01
55.46
53.77
50.34
44.88
37.58
29.18
20.67
12.83
5.94
-0.27
-6.42
-13.1
-20.47
-28.26
-35.81
-42.55
-48.2
-53.0
-57.64
-63.05
-70.14
-79.52
-91.09
-103.67
-114.89
-121.47
-120.1
-108.72
-87.48
-58.91
-27.29
2.77
27.8
46.21
58.22
65.06
68.16
68.44
66.43
62.56
57.44
52.05
47.42
44.32
43.01
43.22
44.3
45.65
46.84
47.74
48.27
48.25
47.21
44.46
39.43
31.97
22.55
12.2
2.11
-6.78
-14.26
-20.8
-27.23
-34.31
-42.23
-50.55
-58.35
-64.8
-69.52
-72.89
-75.92
-79.96
-86.3
-95.69
-107.89
-121.36
-133.14
-139.47
-136.79
-123.07
-98.76
-66.89
-32.21
0.41
27.37
47.2
60.37
68.44
73.06
75.38
75.96
75.08
73.14
70.7
68.42
66.77
65.88
65.49
65.2
64.7
63.93
63.11
62.45
61.93
61.14
59.37
55.83
50.0
41.94
32.24
21.91
11.97
3.06
-4.73
-11.83
-18.9
-26.4
-34.3
-42.12
-49.04
-54.41
-58.05
-60.43
-62.59
-65.88
-71.52
-80.2
-91.65
-104.27
-115.17
-120.71
-117.6
-104.04
-80.63
-50.32
-17.56
13.12
38.44
57.04
69.35
76.83
81.06
83.16
83.67
82.75
80.61
77.68
74.54
71.85
69.96
68.83
68.05
67.14
65.85
64.34
63.02
62.17
61.61
60.53
57.83
52.58
44.58
34.56
23.88
13.98
5.76
-0.73
-6.26
-11.95
-18.7
-26.79
-35.74
-44.58
-52.34
-58.43
-63.01
-66.88
-71.29
-77.55
-86.61
-98.56
-112.27
-125.25
-134.03
-135.07
-125.93
-106.32
-78.39
-46.18
-14.28
13.49
35.05
50.13
59.67
65.0
67.24
67.13
65.18
62.03
58.43
55.24
53.13
52.33
52.68
53.78
55.15
56.43
57.44
58.03
57.97
56.85
54.17
49.57
42.98
34.84
25.86
16.86
8.45
0.79
-6.38
-13.54
-21.05
-28.97
-36.99
-44.61
-51.4
-57.27
-62.59
-68.15
-75.01
-84.07
-95.66
-108.97
-121.74
-130.58
-131.81
-122.78
-103.01
-74.63
-41.82
-9.39
18.72
40.49
55.87
66.14
72.8
76.96
79.08
79.33
77.94
75.51
72.86
70.72
69.5
69.03
68.86
68.44
67.54
66.25
64.92
63.79
62.7
61.09
58.07
52.95
45.52
36.26
26.18
16.4
7.73
0.32
-6.32
-13.04
-20.56
-29.15
-38.45
-47.61
-55.78
-62.43
-67.76
-72.54
-78.0
-85.35
-95.35
-107.91
-121.65
-133.89
-141.04
-139.59
-127.32
-104.39
-73.5
-39.2
-6.36
21.31
42.21
56.74
66.44
72.99
77.42
80.03
80.76
79.69
77.38
74.77
72.81
72.02
72.31
73.0
73.29
72.63
71.04
69.07
67.38
66.29
65.47
64.01
60.82
55.13
46.9
36.9
26.48
17.02
9.41
3.71
-0.87
-5.57
-11.54
-19.32
-28.59
-38.33
-47.28
-54.51
-59.86
-63.97
-68.03
-73.45
-81.37
-92.33
-105.88
-120.33
-132.8
-139.7
-137.72
-125.0
-101.98
-71.48
-37.84
-5.51
22.2
43.81
59.43
70.0
76.58
79.89
80.41
78.63
75.3
71.4
67.87
65.35
63.89
63.14
62.55
61.71
60.56
59.4
58.64
58.47
58.57
58.06
55.9
51.29
44.11
35.06
25.34
16.25
8.61
2.55
-2.54
-7.64
-13.64
-20.95
-29.32
-38.0
-46.06
-52.88
-58.33
-62.92
-67.54
-73.29
-81.09
-91.29
-103.28
-115.27
-124.36
-127.11
-120.75
-104.21
-78.83
-48.09
-16.47
11.93
34.63
51.0
61.86
68.48
71.93
72.74
71.17
67.64
62.96
58.35
54.98
53.57
54.09
55.86
57.91
59.43
60.13
60.2
60.0
59.65
58.76
56.52
52.07
45.02
35.74
25.32
15.12
6.26
-0.8
-6.45
-11.58
-17.19
-23.95
-31.91
-40.52
-48.96
-56.46
-62.69
-67.93
-73.04
-79.18
-87.5
-98.62
-112.14
-126.26
-137.9
-143.32
-139.22
-123.97
-98.44
-65.94
-31.2
1.03
27.45
46.76
59.56
67.45
72.05
74.46
75.12
74.16
71.79
68.57
65.33
62.9
61.76
61.84
62.63
63.38
63.53
62.92
61.84
60.74
59.88
59.09
57.64
54.63
49.32
41.6
32.06
21.91
12.42
4.58
-1.37
-5.96
-10.21
-15.19
-21.55
-29.24
-37.63
-45.8
-52.99
-58.88
-63.8
-68.53
-74.11
-81.58
-91.68
-104.49
-119.05
-133.14
-143.35
-145.96
-138.13
-119.09
-90.72
-57.13
-23.27
6.54
29.8
46.16
56.76
63.34
67.3
69.45
70.1
69.51
68.05
66.37
65.19
64.95
65.78
67.34
69.03
70.29
70.81
70.57
69.76
68.63
67.16
65.1
61.97
57.22
50.6
42.27
32.89
23.44
14.94
7.97
2.6
-1.82
-6.28
-11.72
-18.64
-26.88
-35.72
-44.2
-51.59
-57.63
-62.66
-67.53
-73.25
-80.8
-90.85
-103.37
-117.34
-130.52
-139.64
-141.17
-132.51
-113.02
-84.6
-51.23
-17.73
11.72
34.69
50.81
61.16
67.35
70.68
71.84
71.06
68.6
64.99
61.06
57.73
55.61
54.8
54.94
55.43
55.81
55.98
56.13
56.47
56.99
57.19
56.18
