56.48
53.53
52.3
52.83
54.73
57.37
60.09
62.4
63.9
64.27
63.19
60.28
55.3
48.32
39.78
30.43
21.07
12.17
3.76
-4.49
-13.03
-22.06
-31.41
-40.6
-49.07
-56.51
-63.04
-69.23
-75.99
-84.38
-95.18
-108.44
-122.95
-136.1
-144.25
-143.76
-132.36
-110.1
-79.64
-45.36
-11.99
16.8
39.25
55.28
65.86
72.15
75.06
75.25
73.36
70.19
66.68
63.65
61.62
60.66
60.56
60.96
61.64
62.51
63.57
64.76
65.76
66.03
64.85
61.61
56.01
48.33
39.27
29.79
20.73
12.46
4.76
-2.98
-11.4
-20.77
-30.8
-40.78
-49.88
-57.67
-64.31
-70.54
-77.5
-86.31
-97.63
-111.2
-125.41
-137.35
-143.35
-140.09
-125.83
-101.29
-69.62
-35.45
-3.37
23.37
43.47
57.31
66.15
71.28
73.66
73.9
72.58
70.41
68.27
66.9
66.71
67.64
69.26
71.0
72.43
73.46
74.23
74.95
75.56
75.6
74.25
70.74
64.65
56.31
46.62
36.79
27.86
20.22
13.62
7.32
0.53
-7.18
-15.62
-24.16
-32.0
-38.52
-43.58
-47.59
-51.4
-56.09
-62.67
-71.63
-82.51
-93.57
-101.8
-103.6
-95.94
-77.54
-49.56
-15.31
20.9
55.2
85.25
110.37
130.91
147.27
159.45
167.09
170.16
169.41
166.35
162.81
160.1
158.48
157.27
155.35
151.79
146.39
139.65
132.28
124.61
116.18
105.83
92.23
74.71
53.75
31.04
8.94
-10.44
-25.94
-37.68
-46.7
-54.21
-60.9
-66.59
-70.3
-70.56
-65.74
-54.06
-33.97
-4.78
32.39
73.91
113.88
145.77
164.69
169.47
163.11
151.35
139.94
132.15
127.68
123.7
117.09
106.65
94.04
83.09
77.86
80.63
90.9
105.35
119.14
127.54
127.38
117.69
99.52
75.11
46.99
17.41
-11.84
-39.16
-62.99
-81.94
-95.33
-103.53
-108.18
-111.79
-116.84
-124.92
-136.18
-149.47
-162.98
-175.08
-184.97
-192.71
-198.88
-203.98
-208.07
-210.82
-211.78
-210.85
-208.49
-205.62
-203.27
-202.2
-202.48
-203.26
-202.83
-198.87
-189.07
-171.85
-147.16
-116.64
-83.38
-50.95
-22.4
0.55
17.48
28.91
35.53
37.72
35.56
29.13
19.01
6.41
-7.07
-19.9
-31.06
-40.28
-47.86
-54.39
-60.32
-65.72
-70.42
-74.09
-76.49
-77.69
-77.95
-77.54
-76.63
-75.19
-73.13
-70.39
-67.12
-63.6
-60.24
-57.44
-55.51
-54.56
-54.47
-54.84
-55.04
-54.33
-52.21
-48.75
-44.68
-41.3
-40.04
-41.86
-46.69
-53.13
-58.68
-60.53
-56.51
-45.98
-30.12
-11.46
7.04
23.03
35.37
44.17
50.26
54.52
57.53
59.56
60.9
62.02
63.54
65.95
69.31
73.11
76.5
78.62
78.98
77.66
75.27
72.6
70.26
68.34
66.38
63.56
59.09
52.58
44.17
34.51
24.39
14.46
4.95
-4.28
-13.54
-23.04
-32.71
-42.18
-50.87
-58.2
-63.79
-67.61
-70.02
-71.7
-73.57
-76.46
-80.81
-86.27
-91.43
-94.08
-91.88
-83.24
-68.1
-48.17
-26.35
-5.88
10.86
22.81
30.32
34.49
36.54
37.29
37.01
35.69
33.35
30.27
27.01
24.21
22.4
21.8
22.25
23.32
24.5
25.36
25.7
25.48
24.75
23.59
22.01
19.94
17.31
14.05
10.15
5.7
0.9
-3.97
-8.59
-12.76
-16.39
-19.59
-22.53
-25.43
-28.55
-32.23
-36.89
-42.86
-49.99
-57.29
-62.85
-64.28
-59.6
-48.21
-31.33
-11.72
7.35
23.22
34.73
42.18
46.84
50.08
52.82
55.33
57.51
59.23
60.6
61.92
63.47
65.32
67.27
68.87
69.66
69.31
67.76
65.08
61.41
56.78
51.08
44.22
36.26
27.51
18.52
9.85
1.9
-5.18
-11.53
-17.36
-22.82
-27.91
-32.49
-36.33
-39.29
-41.35
-42.67
-43.7
-45.06
-47.43
-51.15
-55.87
-60.25
-62.24
-59.62
-51.08
-36.8
-18.69
0.3
17.2
29.93
37.85
41.52
42.14
40.81
38.31
34.95
30.95
26.59
22.33
18.66
15.87
13.98
12.76
11.87
11.11
10.44
10.01
10.0
10.32
10.6
10.2
8.49
5.14
0.4
-5.05
-10.21
-14.25
-16.81
-18.13
-18.89
-19.83
-21.47
-23.91
-26.92
-30.04
-32.8
-34.92
-36.3
-37.23
-38.35
-40.49
-44.27
-49.62
-55.4
-59.44
-59.26
-53.12
-40.86
-24.2
-6.14
10.18
22.54
30.3
34.17
35.59
35.81
35.43
34.43
32.51
29.64
26.22
22.97
20.56
19.14
18.24
16.89
14.17
9.69
3.88
-2.22
-7.52
-11.48
-14.46
-17.53
-21.87
-28.14
-36.07
-44.6
-52.46
-58.84
-63.78
-68.14
-73.08
-79.36
-86.87
-94.55
-100.76
-103.97
-103.37
-99.27
-93.01
-86.53
-81.62
-79.29
-79.3
-80.17
-79.49
-74.34
-62.04
-40.8
-10.41
27.34
68.8
109.26
144.16
170.3
186.47
193.31
192.5
185.87
174.9
160.77
144.84
129.01
115.53
106.4
102.56
103.31
106.53
109.26
108.75
103.35
92.96
78.9
63.15
47.62
33.39
20.63
8.84
-2.47
-13.34
-23.18
-31.12
-36.44
-39.06
-39.67
-39.28
-39.01
-39.6
-41.39
-44.48
-48.82
-54.13
-59.71
-64.21
-65.83
-62.82
-54.29
-40.7
-24.0
-6.89
8.1
19.39
26.72
30.82
32.72
33.26
32.81
31.36
28.91
25.66
22.04
18.64
15.95
14.2
13.27
12.93
12.83
12.83
12.88
12.99
13.02
12.64
11.35
8.73
4.67
-0.49
-6.11
-11.49
-16.25
-20.37
-24.19
-28.11
-32.36
-36.9
-41.4
-45.53
-49.07
-52.09
-54.91
-58.11
-62.35
-68.18
-75.82
-84.67
-93.24
-99.08
-99.54
-92.52
-77.52
-56.04
-31.16
-6.64
14.34
30.07
40.44
46.53
49.74
51.23
51.62
51.16
50.04
48.62
47.37
46.67
46.6
46.93
47.2
47.03
46.29
45.15
43.98
43.02
42.2
41.09
39.05
35.55
30.44
24.08
17.18
10.62
4.98
0.41
-3.39
-7.01
-10.95
-15.36
-19.96
-24.21
-27.51
-29.62
-30.66
-31.23
-32.21
-34.54
-38.92
-45.38
-53.09
-60.2
-64.24
-62.82
-54.6
-39.95
-20.99
-0.95
16.99
30.64
39.35
43.74
45.06
44.54
42.92
40.5
37.31
33.46
29.25
25.16
21.68
19.19
17.91
17.77
18.57
19.95
21.58
23.08
24.15
24.51
23.92
22.21
19.39
15.64
11.27
6.68
2.19
-1.95
-5.68
-9.07
-12.23
-15.23
-18.03
-20.57
-22.8
-24.82
-26.94
-29.67
-33.63
-39.21
-46.33
-54.0
-60.33
-62.9
-59.53
-49.18
-32.58
-12.09
9.04
27.68
41.86
51.0
55.72
57.13
56.26
53.78
50.13
45.72
41.08
36.81
33.44
31.24
30.14
29.86
29.99
30.13
29.98
29.38
28.24
26.53
24.18
21.06
17.07
12.25
6.88
1.38
-3.79
-8.36
-12.32
-15.94
-19.59
-23.48
-27.58
-31.57
-35.05
-37.73
-39.6
-41.0
-42.54
-44.99
-49.12
-55.34
-63.4
-72.08
-79.22
-82.23
-78.94
-68.5
-51.91
-31.8
-11.5
6.06
19.35
28.31
33.94
37.42
39.52
40.49
40.24
38.87
36.8
34.73
33.31
32.93
33.55
34.82
36.3
37.72
39.03
40.3
41.58
42.69
43.12
42.24
39.47
34.65
28.19
21.01
14.13
8.33
3.8
0.15
-3.38
-7.49
-12.54
-18.36
-24.46
-30.28
-35.4
-39.74
-43.58
-47.45
-52.04
-58.02
-65.7
-74.68
-83.58
-90.05
-91.44
-85.64
-72.11
-52.33
-29.48
-7.42
10.6
22.99
29.99
33.25
34.88
36.52
38.98
42.19
45.64
48.88
51.71
54.22
56.53
58.69
60.42
61.38
61.37
60.46
58.95
57.22
55.39
53.24
50.41
46.63
42.1
37.35
32.99
29.31
26.02
22.27
17.02
9.56
-0.16
-11.3
-22.55
-32.54
-40.32
-45.68
-49.06
-51.38
-53.68
-56.91
-61.62
-67.82
-74.79
-80.98
-84.34
-82.84
-75.24
-61.65
-43.72
-24.06
-5.46
10.12
21.88
30.07
35.56
39.1
41.09
41.52
40.37
37.96
35.21
33.51
34.15
37.91
44.5
52.6
60.32
65.83
68.03
66.78
62.7
56.64
49.38
41.36
32.9
24.41
16.41
9.47
3.86
-0.6
-4.47
-8.44
-12.95
-18.09
-23.49
-28.54
-32.75
-35.87
-38.14
-40.23
-43.07
-47.58
-54.23
-62.53
-70.82
-76.53
-76.93
-70.21
-56.35
-37.38
-16.73
2.0
16.25
25.18
29.53
30.88
30.74
29.95
28.75
27.08
25.07
23.15
21.89
21.66
22.42
23.71
24.89
25.48
25.34
24.69
23.93
23.29
22.69
21.75
19.91
16.75
12.19
6.59
0.65
-4.8
-9.18
-12.37
-14.75
-16.98
-19.7
-23.21
-27.29
-31.4
-34.91
-37.47
-39.22
-40.77
-43.03
-46.92
-52.98
-61.05
-69.94
-77.47
-80.92
-77.84
-67.09
-49.43
-27.43
-4.68
15.41
30.66
40.55
45.86
48.02
48.31
47.52
45.99
43.92
41.61
39.46
37.91
37.19
37.22
37.68
38.13
38.28
38.07
37.66
37.3
37.05
36.68
35.69
33.5
29.8
24.71
18.83
13.08
8.24
4.65
2.04
-0.36
-3.46
-7.87
-13.63
-20.17
-26.59
-32.04
-36.09
-38.89
-41.06
-43.48
-47.09
-52.47
-59.68
-67.81
-75.0
-78.7
-76.38
-66.51
-49.4
-27.32
-3.85
17.29
33.42
43.62
48.56
49.77
48.85
46.86
44.26
41.17
37.69
34.13
30.94
28.56
27.27
27.1
27.9
29.34
31.1
32.81
34.1
34.61
33.99
32.02
28.63
24.07
18.77
13.26
7.92
2.88
-1.98
-6.9
-11.92
-16.93
-21.56
-25.45
-28.43
-30.63
-32.46
-34.55
-37.58
-42.1
-48.29
-55.63
-62.72
-67.36
-67.14
-60.34
-46.78
-28.1
-7.38
11.99
27.34
37.55
43.0
45.02
45.02
43.97
42.25
39.87
36.87
33.52
30.35
27.92
26.56
26.28
26.77
27.62
28.5
29.21
29.66
29.66
28.91
26.99
23.63
18.86
13.1
7.04
1.3
-3.77
-8.26
-12.5
-16.83
-21.34
-25.84
-29.94
-33.27
-35.69
-37.38
-38.83
-40.71
-43.78
-48.67
-55.73
-64.59
-73.93
-81.46
-84.37
-80.29
-68.24
-49.28
-26.32
-3.21
16.56
30.91
39.54
43.54
44.6
44.16
43.05
41.49
39.54
37.33
35.15
33.36
32.17
31.51
31.09
30.64
30.05
29.45
29.07
29.08
29.28
29.2
28.14
25.57
21.3
15.65
9.32
3.17
-2.1
-6.23
-9.4
-12.17
-15.17
-18.8
-23.08
-27.64
-31.94
-35.56
-38.36
-40.6
-42.92
-46.1
-50.8
-57.16
-64.39
-70.61
-73.24
-69.71
-58.58
-40.3
-17.22
7.12
29.29
47.05
59.73
68.0
73.03
75.8
76.8
76.21
74.14
70.94
67.08
62.99
58.95
55.0
51.07
47.16
43.33
39.76
36.65
34.05
31.8
29.49
26.56
22.58
17.34
11.07
4.35
-2.05
-7.51
-11.77
-15.04
-17.89
-20.91
-24.49
-28.64
-33.04
-37.23
-40.88
-43.91
-46.57
-49.39
-53.03
-57.98
-64.32
-71.41
-77.7
-81.03
-79.18
-70.67
-55.61
-35.82
-14.34
5.49
21.14
31.57
37.21
39.41
39.64
38.87
37.43
35.27
32.35
28.89
25.41
22.61
21.01
20.82
21.86
23.62
25.53
27.06
27.81
27.56
26.23
23.83
20.47
16.27
11.4
6.11
0.61
-4.88
-10.2
-15.21
-19.79
-23.81
-27.18
-29.91
-32.12
-34.12
-36.37
-39.41
-43.77
-49.75
-57.06
-64.65
-70.63
-72.67
-68.69
-57.7
-40.4
-19.06
3.04
22.75
37.93
47.95
53.44
55.71
56.03
55.21
53.51
51.01
47.77
44.08
40.41
37.21
34.71
32.91
31.63
30.66
29.9
29.39
29.14
29.02
28.62
27.35
24.69
20.45
14.96
9.03
3.6
-0.59
-3.44
-5.51
-7.74
-11.0
-15.72
-21.62
-27.92
-33.72
-38.36
-41.74
-44.27
-46.75
-50.04
-54.87
-61.5
-69.42
-77.16
-82.36
-82.4
-75.27
-60.57
-39.85
-16.3
6.34
25.0
38.14
45.88
49.38
50.08
48.99
46.64
43.27
39.24
35.17
31.74
29.51
28.58
28.63
29.07
29.36
29.21
28.68
27.99
27.37
26.76
25.82
23.97
20.7
15.88
9.87
3.45
-2.44
-7.17
-10.6
-13.17
-15.62
-18.62
-22.41
-26.73
-31.04
-34.76
-37.66
-39.88
-41.91
-44.42
-48.04
-53.26
-60.2
-68.33
-76.25
-81.85
-82.62
-76.63
-63.31
-43.92
-21.35
0.81
19.49
32.98
41.2
45.24
46.61
46.44
45.31
43.37
40.66
37.45
34.22
31.51
29.7
28.89
28.89
29.44
30.23
31.09
31.89
32.45
32.55
31.86
30.05
26.94
22.62
17.4
11.82
6.36
1.32
-3.29
-7.68
-12.11
-16.67
-21.21
-25.37
-28.77
-31.25
-33.01
-34.59
-36.75
-40.28
-45.64
-52.64
-60.24
-66.47
-68.9
-65.42
-55.03
-38.47
-18.13
2.7
20.88
34.41
42.81
46.82
47.77
46.85
44.76
41.77
38.06
33.96
30.02
26.88
24.95
24.36
24.83
25.89
27.06
27.97
28.46
28.46
27.88
26.59
24.35
21.04
16.67
11.53
6.06
0.78
-3.99
-8.19
-12.09
-16.07
-20.4
-25.12
-29.92
-34.34
-37.95
-40.63
-42.67
-44.79
-47.95
-53.03
-60.34
-69.18
-77.71
-83.13
-82.61
-74.24
-57.99
-35.92
-11.5
11.41
29.94
42.78
50.25
53.58
54.14
52.91
50.42
46.98
43.03
39.22
36.24
34.52
34.08
34.48
35.13
35.49
35.38
34.94
34.52
34.3
34.18
33.7
32.17
29.03
24.09
17.72
10.72
4.1
-1.41
-5.56
-8.77
-11.87
-15.64
-20.49
-26.2
-32.07
-37.25
-41.18
-43.82
-45.66
-47.57
-50.55
-55.37
-62.4
-71.18
-80.26
-87.22
-89.26
-84.06
-70.81
-50.74
-26.91
-3.29
16.6
30.72
38.8
41.97
41.97
40.31
37.88
35.06
32.01
28.93
26.29
24.6
24.34
25.69
28.42
32.0
35.75
39.14
41.83
43.71
44.68
44.51
42.79
39.05
33.01
24.92
15.56
6.09
-2.28
-8.78
-13.33
-16.49
-19.21
-22.26
-25.98
-30.12
-34.06
-37.19
-39.3
-40.78
-42.49
-45.5
-50.73
-58.65
-69.05
-80.79
-91.77
-99.18
-100.2
-92.86
-77.0
-54.43
-28.63
-3.52
17.69
33.38
43.65
49.76
53.25
55.3
56.42
56.68
56.07
54.67
52.82
50.94
49.39
48.39
47.91
47.75
47.64
47.27
46.39
44.82
42.4
39.08
34.86
29.9
24.48
18.96
13.65
8.68
3.95
-0.75
-5.6
-10.56
-15.34
-19.55
-22.85
-25.22
-26.92
-28.47
-30.56
-33.87
-38.98
-45.99
-54.2
-61.92
-66.68
-65.94
-58.06
-43.13
-23.18
-1.54
18.25
33.64
43.62
48.67
50.13
49.37
47.38
44.62
41.27
37.58
33.96
30.96
28.99
28.2
28.41
29.26
30.35
31.39
32.2
32.57
32.2
30.71
27.76
23.29
17.57
11.21
4.91
-0.77
-5.63
-9.83
-13.7
-17.57
-21.54
-25.47
-29.14
-32.32
-35.05
-37.58
-40.37
-43.96
-48.86
-55.47
-63.77
-73.02
-81.54
-86.87
-86.42
-78.45
-62.92
-41.82
-18.64
2.81
19.64
30.63
36.25
38.02
37.7
36.55
35.18
33.67
31.94
30.05
28.26
27.02
26.76
27.73
29.87
32.89
36.41
40.16
43.98
47.45
49.78
49.69
45.77
37.15
24.19
8.54
-7.3
-20.86
-30.76
-36.99
-40.72
-43.51
-46.48
-49.92
-53.34
-55.98
-57.29
-57.29
-56.35
-55.09
-54.09
-53.77
-54.42
-55.95
-57.82
-58.91
-57.71
-52.85
-43.73
-30.88
-15.88
-0.84
12.36
22.71
30.12
35.21
38.76
41.34
43.19
44.37
45.03
45.47
46.11
47.24
48.95
50.97
52.79
53.86
53.79
52.49
50.11
46.91
43.14
39.0
34.62
30.14
25.79
21.75
18.15
14.91
11.78
8.44
4.63
0.28
-4.48
-9.34
-13.97
-18.07
-21.54
-24.5
-27.35
-30.75
-35.41
-41.73
-49.34
-56.89
-62.14
-62.63
-56.66
-44.01
-26.28
-6.32
12.7
28.37
39.57
46.44
49.9
50.97
50.36
48.37
45.16
40.96
36.31
31.95
28.72
27.21
27.5
29.12
31.14
32.57
32.71
31.44
29.22
26.79
24.79
23.35
22.12
20.32
17.23
12.46
6.11
-1.2
-8.67
-15.57
-21.55
-26.67
-31.33
-36.01
-41.13
-46.97
-53.63
-60.97
-68.4
-74.66
-77.89
-76.1
-67.87
-53.16
-33.57
-11.89
8.75
25.96
38.65
47.1
52.35
55.51
57.26
57.73
56.81
54.45
50.89
46.67
42.49
38.94
36.42
34.99
34.44
34.42
34.57
34.58
34.25
33.49
32.21
30.36
27.77
24.32
19.88
14.41
8.04
1.04
-6.23
-13.48
-20.47
-27.21
-33.91
-40.93
-48.82
-58.16
-69.47
-83.01
-98.56
-115.14
-131.1
-144.14
-151.8
-152.11
-144.21
-128.77
-107.82
-84.31
-61.27
-41.09
-24.97
-12.85
-3.72
3.93
11.45
19.75
29.06
39.11
49.44
59.76
70.34
81.91
95.44
111.57
130.3
150.92
172.32
193.46
213.44
231.34
245.67
254.34
255.25
247.71
233.62
217.4
204.29
197.43
195.82
194.11
185.1
163.38
128.09
83.3
35.74
-8.44
-46.12
-77.43
-104.25
-128.07
-148.8
-165.03
-175.06
-177.98
-173.99
-164.01
-149.17
-130.55
-109.27
-86.57
-63.95
-42.9
-24.64
-9.89
1.03
8.16
11.69
11.91
9.34
4.7
-1.05
-6.98
-12.32
-16.68
-19.96
-22.32
-23.89
-24.72
-24.76
-24.06
-22.84
-21.71
-21.38
-22.51
-25.51
-30.36
-36.69
-43.94
-51.45
-58.66
-65.23
-71.04
-76.15
-80.83
-85.41
-90.28
-95.96
-103.04
-112.01
-122.84
-134.46
-144.48
-149.63
-146.76
-134.08
-112.11
-83.63
-52.79
-23.73
0.51
18.58
30.39
36.62
38.14
35.85
30.8
24.32
17.96
13.19
11.13
12.18
16.03
21.81
28.32
34.46
39.55
43.35
46.0
47.78
48.91
49.41
49.18
48.02
45.71
42.11
37.2
31.14
24.35
17.52
11.38
6.48
2.94
0.34
-2.01
-4.93
-9.11
-15.07
-23.11
-33.14
-44.31
-54.76
-61.8
-62.69
-55.77
-41.37
-21.99
-1.58
15.87
27.69
33.2
33.38
30.07
24.87
18.69
11.87
4.58
-2.73
-9.24
-14.02
-16.45
-16.42
-14.49
-11.6
-8.69
-6.48
-5.18
-4.6
-4.34
-4.08
-3.84
-4.05
-5.39
-8.34
-12.93
-18.46
-23.85
-27.94
-30.11
-30.42
-29.63
-28.81
-28.88
-30.45
-33.8
-38.95
-45.62
-53.05
-59.69
-63.31
-61.52
-52.73
-36.95
-16.08
6.65
27.81
44.79
56.45
63.01
65.45
64.83
61.89
57.09
50.85
43.8
36.76
30.6
26.01
23.24
22.09
21.92
21.87
21.2
19.49
16.87
13.76
10.59
7.38
3.61
-1.68
-9.3
-19.36
-30.83
-41.68
-49.48
-52.28
-49.47
-42.15
-32.87
-24.81
-20.6
-21.55
-27.24
-36.0
-45.4
-52.8
-55.5
-50.97
-37.28
-13.89
17.49
52.85
86.77
114.22
132.38
141.43
143.87
142.9
140.76
138.06
134.34
129.32
123.73
119.13
117.04
117.86
120.5
122.76
122.37
117.9
109.25
97.44
83.93
69.94
55.97
41.69
26.31
9.01
-10.42
-31.33
-52.36
-71.94
-88.93
-103.09
-115.08
-126.0
-136.94
-148.45
-160.54
-172.78
-184.71
-195.89
-205.96
-214.49
-220.97
-225.13
-227.34
-229.04
-232.53
-240.08
-252.48
-267.94
-282.02
-288.9
-283.61
-263.91
-231.08
-188.99
-142.2
-94.4
-48.22
-5.96
29.4
54.21
65.43
62.37
47.71
26.91
6.08
-10.36
-20.96
-26.76
-29.64
-30.59
-28.97
-23.22
-12.33
2.93
19.95
35.06
45.1
48.62
46.33
40.88
35.76
34.17
37.87
46.6
58.23
69.7
78.28
82.71
83.56
82.72
82.33
83.73
86.99
91.24
95.43
99.01
101.94
104.32
105.99
106.33
104.67
100.73
94.87
87.94
80.8
73.96
67.54
61.54
56.12
51.76
49.09
48.52
49.93
52.46
54.8
55.6
54.06
50.1
44.46
38.23
32.4
27.4
22.93
18.29
12.78
6.2
-1.0
-7.92
-13.72
-18.1
-21.39
-24.34
-27.54
-31.11
-34.62
-37.38
-38.75
-38.43
-36.4
-32.78
-27.66
-21.12
-13.4
-4.93
3.65
11.79
19.25
26.08
32.42
38.2
43.12
46.81
49.11
50.41
51.54
53.29
55.89
58.8
60.74
60.45
57.17
50.98
42.72
33.54
24.6
16.97
11.64
9.42
10.71
15.02
20.78
25.6
27.09
23.75
15.62
4.13
-8.64
-20.88
-31.58
-40.52
-47.8
-53.27
-56.42
-56.58
-53.41
-47.26
-39.14
-30.33
-21.94
-14.57
-8.25
-2.71
2.29
6.74
10.34
12.69
13.5
12.83
11.12
9.01
7.13
5.85
5.13
4.56
3.49
1.38
-1.96
-6.28
-11.05
-15.75
-20.28
-25.06
-30.9
-38.63
-48.64
-60.59
-73.58
-86.5
-98.67
-110.04
-121.14
-132.75
-145.56
-159.92
-175.96
-193.49
-211.69
-228.83
-242.09
-248.21
-244.64
-230.78
-208.45
-181.2
-152.7
-125.13
-98.53
-71.5
-42.77
-12.54
17.09
43.09
62.81
75.34
81.62
83.94
84.84
86.3
89.34
94.12
100.32
107.39
114.74
121.85
128.1
132.95
135.8
136.2
133.88
128.82
121.32
111.83
100.87
88.87
76.18
63.1
49.9
36.82
24.05
11.55
-1.04
-14.4
-29.4
-46.62
-65.81
-85.43
-102.54
-113.37
-114.24
-102.76
-78.65
-44.03
-2.91
39.82
79.51
112.69
137.49
153.53
161.42
162.42
157.96
149.64
139.2
128.5
119.48
113.64
111.79
113.68
118.21
123.7
128.44
131.11
130.91
127.63
121.49
113.05
103.01
92.09
80.84
69.49
57.95
45.94
33.28
19.96
6.33
-7.09
-19.78
-31.37
-41.8
-51.31
-60.53
-70.32
-81.73
-95.46
-111.27
-127.34
-140.16
-145.24
-138.44
-117.68
-83.9
-41.17
4.63
47.56
83.23
109.6
126.68
135.67
137.99
134.75
126.89
115.46
101.95
88.26
76.32
67.61
62.77
61.48
62.7
64.99
67.03
67.93
67.29
65.11
61.58
56.83
50.84
43.46
34.52
23.99
12.05
-0.88
-14.13
-27.02
-38.89
-49.36
-58.38
-66.3
-73.78
-81.74
-91.14
-102.74
-116.62
-131.72
-145.57
-154.45
-154.27
-141.89
-116.41
-79.83
-36.71
7.13
46.3
77.21
98.54
110.89
115.81
114.93
109.49
100.45
88.87
76.21
64.26
54.82
49.2
47.71
49.71
53.73
58.09
61.33
62.63
61.84
59.33
55.61
51.07
45.77
39.43
31.64
22.06
10.76
-1.81
-14.83
-27.41
-38.9
-49.0
-57.87
-65.95
-73.89
-82.46
-92.42
-104.36
-118.23
-132.75
-145.12
-151.35
-147.34
-130.42
-100.65
-61.17
-17.39
24.65
60.04
86.16
102.75
111.17
113.33
110.89
105.0
96.55
86.48
76.1
66.92
60.29
57.01
57.05
59.58
63.28
66.78
69.04
69.42
67.76
64.12
58.73
51.85
43.81
34.9
25.37
15.41
5.16
-5.18
-15.33
-24.92
-33.6
-41.22
-47.87
-53.96
-60.14
-67.19
-75.92
-86.99
-100.49
-115.5
-129.66
-139.38
-140.64
-130.32
-107.57
-74.46
-35.57
3.43
37.48
63.43
80.47
89.51
92.29
90.43
85.12
77.18
67.54
57.38
48.16
41.24
37.51
37.16
39.56
43.5
47.56
50.55
51.71
50.83
48.08
43.8
38.29
31.71
24.09
15.39
5.61
-5.09
-16.45
-28.01
-39.22
-49.47
-58.35
-65.69
-71.76
-77.18
-82.82
-89.65
-98.48
-109.7
-122.77
-135.99
-146.33
-150.02
-143.67
-125.56
-96.56
-60.16
-21.48
14.26
43.36
64.29
77.47
84.33
86.31
84.36
78.99
70.78
60.88
51.03
43.21
38.93
38.65
41.58
46.01
50.03
52.23
52.17
50.32
47.58
44.64
41.52
37.56
31.78
23.47
12.7
0.38
-11.98
-22.83
-31.23
-37.13
-41.27
-44.95
-49.44
-55.72
-64.22
-74.62
-85.68
-95.07
-99.64
-95.95
-81.48
-55.69
-20.55
19.76
60.15
96.11
124.84
145.43
158.26
164.12
163.66
157.56
147.11
134.7
123.81
118.25
121.2
134.26
156.93
186.42
217.97
245.65
263.58
267.42
255.58
229.62
193.49
151.96
108.83
65.78
22.49
-22.47
-70.41
-121.87
-176.53
-233.48
-291.22
-347.44
-398.95
-442.21
-474.64
-495.86
-508.16
-515.48
-521.3
-526.5
-528.57
-522.58
-503.71
-469.68
-422.0
-365.28
-305.42
-247.54
-194.96
-149.27
-111.08
-80.76
-58.68
-44.85
-38.38
-37.42
-39.55
-42.53
-44.93
-46.37
-47.17
-47.84
-48.55
-49.01
-48.65
-47.1
-44.45
-41.37
-38.81
-37.51
-37.67
-38.87
-40.32
-41.29
-41.47
-40.96
-40.14
-39.2
-37.78
-34.87
-28.92
-18.14
-0.98
23.15
53.28
86.49
118.2
143.23
157.5
159.73
152.28
140.64
131.5
130.43
140.01
159.27
184.62
211.54
236.3
256.68
271.89
281.92
286.83
286.56
281.13
271.02
257.59
242.88
229.12
218.01
210.18
205.08
201.29
197.19
191.51
183.77
174.11
162.98
150.78
137.68
123.61
108.5
92.5
75.99
59.36
42.96
27.02
11.7
-2.67
-15.61
-26.58
-35.27
-41.83
-46.95
-51.7
-57.21
-64.4
-73.85
-85.64
-99.16
-112.89
-124.29
-130.14
-127.38
-114.3
-91.46
-61.86
-30.07
-0.71
22.94
39.65
50.03
55.56
57.66
57.16
54.44
49.88
44.27
38.91
35.28
34.55
37.07
42.25
48.71
54.76
58.94
60.53
59.79
57.72
55.62
54.37
54.03
53.73
52.13
48.1
41.24
32.14
22.14
12.65
4.55
-2.15
-8.23
-14.92
-23.34
-34.12
-47.24
-62.01
-77.11
-90.64
-100.3
-103.76
-99.19
-85.95
-64.92
-38.56
-10.24
16.52
38.95
55.56
66.09
71.27
72.23
70.1
65.82
60.16
53.78
47.36
41.59
37.06
34.16
32.89
32.96
33.83
34.91
35.71
35.89
35.2
33.37
30.14
25.39
19.27
12.26
4.98
-2.06
-8.72
-15.31
-22.3
-30.01
-38.19
-46.14
-52.93
-58.03
-61.59
-64.54
-68.29
-74.12
-82.61
-93.14
-103.88
-112.06
-114.75
-109.62
-95.8
-74.22
-47.45
-19.04
7.51
29.62
46.07
56.9
62.93
65.2
64.66
62.07
58.1
53.51
49.06
45.39
42.92
41.68
41.4
41.69
42.22
42.79
43.33
43.73
43.74
42.88
40.62
36.57
30.69
23.46
15.66
8.13
1.42
-4.42
-9.74
-15.12
-20.92
-27.19
-33.58
-39.62
-44.88
-49.29
-53.17
-57.15
-62.03
-68.54
-76.99
-86.96
-97.05
-105.0
-108.18
-104.36
-92.56
-73.5
-49.49
-23.74
0.58
21.16
36.94
48.02
55.14
59.18
60.78
60.33
58.11
54.53
50.26
46.08
42.72
40.61
39.8
39.98
40.74
41.65
42.34
42.5
41.74
39.67
36.0
30.75
24.27
17.18
10.11
3.4
-2.94
-9.21
-15.74
-22.67
-29.79
-36.67
-42.89
-48.27
-53.03
-57.66
-62.86
-69.27
-77.32
-86.91
-97.22
-106.66
-112.99
-113.85
-107.51
-93.5
-72.92
-48.21
-22.38
1.71
22.09
37.85
48.95
55.91
59.38
59.98
58.33
55.09
51.03
46.94
43.53
41.31
40.4
40.63
41.59
42.81
43.9
44.58
44.65
43.89
41.98
38.63
33.61
27.01
19.24
10.96
2.88
-4.49
-11.02
-17.02
-22.98
-29.34
-36.17
-43.2
-49.86
-55.69
-60.45
-64.35
-68.02
-72.28
-77.95
-85.48
-94.59
-104.03
-111.59
-114.58
-110.66
-98.73
-79.41
-55.04
-28.84
-3.97
17.34
34.14
46.55
55.21
60.79
63.76
64.47
63.32
60.93
58.01
55.3
53.25
52.02
51.43
51.17
50.93
50.58
50.16
49.71
49.23
48.46
46.93
44.1
39.56
33.29
25.67
17.5
9.68
2.87
-2.75
-7.51
-12.1
-17.16
-23.05
-29.6
-36.3
-42.48
-47.68
-51.86
-55.46
-59.25
-64.15
-70.93
-79.84
-90.34
-100.87
-109.09
-112.38
-108.64
-97.01
-78.31
-54.76
-29.36
-5.01
16.22
33.31
46.16
55.12
60.67
63.2
63.11
60.96
57.52
53.73
50.46
48.26
47.27
47.21
47.61
48.01
48.19
48.12
47.89
47.53
46.86
45.47
42.84
38.55
32.46
24.9
16.6
8.45
1.19
-4.84
-9.85
-14.46
-19.4
-25.09
-31.51
-38.26
-44.69
-50.32
-55.02
-59.05
-63.03
-67.7
-73.79
-81.74
-91.45
-102.07
-111.82
-118.32
-119.09
-112.37
-97.78
-76.67
-51.66
-25.97
-2.44
17.11
32.06
42.68
49.7
53.83
55.59
55.42
53.77
51.21
48.44
46.12
44.71
44.37
45.01
46.33
48.0
49.69
51.09
51.86
51.66
50.12
46.94
42.07
35.7
28.33
20.65
13.26
6.57
0.53
-5.21
-11.19
-17.75
-24.96
-32.49
-39.78
-46.39
-52.09
-57.14
-62.15
-67.95
-75.34
-84.67
-95.48
-106.27
-114.67
-117.92
-113.82
-101.6
-82.25
-58.33
-33.05
-9.39
10.77
26.71
38.7
47.37
53.29
56.84
58.23
57.79
56.03
53.7
51.56
50.24
50.03
50.88
52.51
54.49
56.49
58.28
59.63
60.33
60.0
58.19
54.5
48.8
41.27
32.5
23.34
14.67
7.17
1.07
-3.89
-8.33
-13.0
-18.45
-24.81
-31.75
-38.7
-45.06
-50.52
-55.17
-59.47
-64.16
-70.03
-77.68
-87.24
-98.05
-108.47
-116.11
-118.27
-112.88
-99.24
-78.44
-53.04
-26.38
-1.44
19.75
36.4
48.66
57.12
62.44
65.12
65.6
64.39
62.1
59.44
57.09
55.55
55.04
55.52
56.71
58.23
59.73
60.95
61.77
62.08
61.68
60.24
57.37
52.76
46.41
38.68
30.28
22.03
14.56
8.11
2.46
-2.94
-8.73
-15.34
-22.81
-30.77
-38.57
-45.54
-51.25
-55.69
-59.31
-62.99
-67.74
-74.44
-83.47
-94.32
-105.44
-114.39
-118.47
-115.41
-104.25
-85.63
-61.74
-35.64
-10.34
11.84
29.72
43.06
52.24
57.89
60.62
60.97
59.5
56.9
53.87
51.15
49.32
48.66
49.07
50.23
51.7
53.11
54.31
55.28
56.02
56.36
55.87
54.01
50.31
44.68
37.44
29.35
21.26
13.88
7.52
1.97
-3.28
-8.83
-15.12
-22.18
-29.65
-36.91
-43.33
-48.58
-52.84
-56.68
-60.96
-66.49
-73.76
-82.74
-92.71
-102.17
-109.07
-111.19
-106.78
-95.09
-76.84
-54.06
-29.58
-6.24
13.81
29.55
40.95
48.58
53.19
55.35
55.53
54.1
51.54
48.47
45.57
43.43
42.39
42.52
43.63
45.42
47.54
49.63
51.38
52.4
52.27
50.54
46.9
41.3
34.08
25.92
17.66
9.98
3.19
-2.82
-8.48
-14.24
-20.33
-26.65
-32.81
-38.47
-43.43
-47.83
-52.16
-57.06
-63.22
-70.99
-80.06
-89.2
-96.29
-98.85
-94.8
-83.34
-65.32
-43.08
-19.67
2.15
20.58
35.02
45.76
53.49
58.78
61.98
63.3
62.99
61.52
59.58
57.93
57.21
57.76
59.51
62.12
65.1
68.01
70.59
72.62
73.83
73.77
71.88
67.8
61.6
53.96
45.94
38.59
32.34
26.83
20.98
13.53
3.67
-8.54
-22.23
-36.1
-49.0
-60.32
-70.07
-78.64
-86.52
-94.12
-101.78
-109.73
-117.88
-125.54
-131.17
-132.6
-127.74
-115.49
-96.44
-72.83
-47.9
-24.75
-5.46
9.27
19.81
27.0
31.67
34.42
35.73
36.14
36.23
36.53
37.37
38.78
40.6
42.59
44.54
46.35
47.9
49.07
49.68
49.49
48.27
45.77
41.86
36.44
29.67
21.9
13.69
5.57
-2.13
-9.42
-16.53
-23.71
-31.0
-38.04
-44.25
-49.07
-52.37
-54.53
-56.35
-58.74
-62.37
-67.42
-73.47
-79.52
-84.07
-85.42
-81.9
-72.36
-56.45
-34.99
-9.8
16.6
41.62
63.13
79.93
91.77
99.23
103.32
105.1
105.44
104.81
103.36
100.99
97.6
93.18
87.93
82.16
76.21
70.26
64.31
58.13
51.49
44.23
36.39
28.2
19.95
11.84
3.86
-4.15
-12.44
-21.12
-30.05
-38.83
-46.93
-53.96
-59.81
-64.7
-69.0
-73.14
-77.41
-82.08
-87.35
-93.34
-99.84
-106.03
-110.41
-111.02
-106.12
-94.9
-77.96
-57.17
-35.15
-14.39
3.43
17.65
28.36
36.11
41.39
44.6
46.01
45.97
44.95
43.51
42.2
41.4
41.3
41.86
42.84
43.92
44.77
45.13
44.83
43.78
41.94
39.32
35.88
31.72
26.93
21.72
16.27
10.77
5.28
-0.24
-5.86
-11.67
-17.65
-23.64
-29.47
-34.94
-40.08
-45.13
-50.58
-56.93
-64.43
-72.7
-80.56
-86.27
-87.93
-84.12
-74.48
-59.8
-41.85
-22.84
-4.8
10.8
23.24
32.39
38.55
42.21
43.91
44.19
43.57
42.49
41.38
40.57
40.33
40.77
41.84
43.33
44.93
46.4
47.5
48.09
47.98
46.99
44.89
41.56
37.16
32.04
26.71
21.57
16.76
12.08
7.17
1.72
-4.3
-10.62
-16.73
-22.15
-26.62
-30.27
-33.5
-36.94
-41.26
-46.99
-54.27
-62.66
-71.0
-77.51
-80.21
-77.53
-68.87
-54.95
-37.64
-19.35
-2.37
11.82
22.57
30.04
34.72
37.16
37.81
37.08
35.47
33.55
31.92
31.05
31.18
32.24
33.98
36.01
37.99
39.71
40.98
41.7
41.63
40.5
38.07
34.28
29.39
23.9
18.43
13.38
8.88
4.64
0.24
-4.69
-10.25
-16.22
-22.16
-27.65
-32.5
-36.74
-40.65
-44.7
-49.42
-55.26
-62.39
-70.39
-78.1
-83.76
-85.39
-81.53
-71.78
-57.05
-39.32
-21.0
-4.18
9.81
20.49
28.05
32.89
35.43
36.08
35.27
33.57
31.61
29.98
29.07
29.07
29.97
31.62
33.84
36.38
38.91
41.04
42.35
42.55
41.55
39.5
36.65
33.24
29.36
25.0
20.1
14.66
8.79
2.73
-3.28
-9.07
-14.57
-19.81
-24.96
-30.22
-35.84
-42.07
-49.08
-56.81
-64.75
-71.85
-76.64
-77.56
-73.5
-64.24
-50.57
-34.16
-17.05
-1.1
12.35
22.7
29.89
34.27
36.29
36.51
35.44
33.65
31.66
29.92
28.76
28.33
28.65
29.54
30.71
31.9
32.89
33.54
33.71
33.23
31.9
29.53
26.06
21.62
16.51
11.11
5.74
0.57
-4.45
-9.43
-14.48
-19.56
-24.49
-29.03
-33.03
-36.52
-39.77
-43.27
-47.54
-52.97
-59.62
-67.02
-74.09
-79.31
-81.02
-77.9
-69.51
-56.52
-40.61
-24.04
-8.92
3.34
12.24
18.15
21.81
23.92
24.89
24.87
23.94
22.27
20.26
18.42
17.18
16.64
16.7
17.02
17.36
17.66
17.99
18.41
18.77
18.62
17.31
14.31
9.51
3.44
-2.85
-8.07
-11.22
-12.06
-11.27
-10.22
-10.36
-12.65
-17.22
-23.33
-29.86
-35.79
-40.62
-44.4
-47.63
-50.77
-54.02
-57.06
-59.04
-58.89
-55.54
-48.3
-37.06
-22.42
-5.57
11.93
28.5
42.86
54.11
61.85
66.07
67.0
65.06
60.77
54.74
47.67
40.34
33.42
27.41
22.64
19.13
16.75
15.26
14.42
14.0
13.8
13.6
13.18
12.34
10.96
8.97
6.48
3.65
0.71
-2.1
-4.65
-6.95
-9.11
-11.3
-13.67
-16.29
-19.23
-22.53
-26.3
-30.65
-35.63
-40.91
-45.71
-48.81
-48.84
-44.77
-36.41
-24.54
-10.73
3.22
15.84
26.32
34.46
40.42
44.43
46.53
46.77
45.28
42.47
39.03
35.71
33.16
31.71
31.37
31.84
32.73
33.65
34.34
34.63
34.43
33.63
32.16
29.86
26.67
22.61
17.8
12.48
6.93
1.36
-4.06
-9.21
-14.01
-18.41
-22.41
-26.16
-29.96
-34.27
-39.52
-45.97
-53.41
-61.03
-67.46
-71.07
-70.43
-64.77
-54.36
-40.41
-24.79
-9.47
4.01
14.83
22.87
28.46
32.05
34.04
34.7
34.31
33.19
31.76
30.49
29.71
29.63
30.26
31.38
32.7
33.91
34.7
34.87
34.29
32.93
30.88
28.26
25.24
21.91
18.29
14.3
9.86
4.94
-0.36
-5.84
-11.2
-16.2
-20.74
-24.83
-28.57
-32.18
-35.94
-40.16
-45.17
-50.98
-57.1
-62.38
-65.19
-63.96
-57.79
-46.92
-32.76
-17.4
-2.92
9.2
18.45
24.97
29.33
32.07
33.52
33.9
33.4
32.32
31.02
29.85
29.04
28.64
28.59
28.77
29.07
29.4
29.72
29.93
29.91
29.44
28.28
26.31
23.49
19.99
16.07
12.04
8.1
4.31
0.59
-3.2
-7.1
-11.08
-14.96
-18.58
-21.8
-24.71
-27.59
-30.88
-35.07
-40.44
-46.9
-53.74
-59.64
-62.95
-62.19
-56.62
-46.52
-33.24
-18.71
-4.85
6.94
16.04
22.5
26.77
29.29
30.41
30.39
29.46
27.91
26.17
24.63
23.62
23.29
23.65
24.53
25.75
27.15
28.57
29.87
30.83
31.13
30.47
28.65
25.73
21.96
17.81
13.66
9.72
5.99
2.29
-1.59
-5.74
-10.17
-14.67
-19.07
-23.22
-27.1
-30.84
-34.64
-38.78
-43.52
-48.93
-54.73
-60.17
-64.04
-64.92
-61.67
-53.85
-42.06
-27.84
-13.2
-0.04
10.4
17.78
22.47
25.16
26.49
26.86
26.43
25.33
23.78
22.14
20.86
20.27
20.5
21.45
22.85
24.36
25.62
26.38
26.45
25.75
24.28
22.08
19.28
16.0
12.41
8.61
4.71
0.76
-3.19
-7.13
-11.04
-14.89
-18.68
-22.39
-26.0
-29.47
-32.92
-36.57
-40.81
-45.92
-51.73
-57.42
-61.53
-62.46
-59.04
-51.16
-39.9
-27.14
-14.89
-4.63
3.04
8.29
11.59
13.4
13.92
13.17
11.17
8.05
4.09
-0.37
-4.96
-9.38
-13.33
-16.46
-18.42
-18.83
-17.5
-14.44
-9.93
-4.48
1.22
6.44
10.53
13.08
14.07
13.76
12.63
11.17
9.69
8.29
6.96
5.72
4.72
4.2
4.22
4.5
4.36
2.95
-0.48
-6.21
-13.84
-22.37
-30.35
-36.15
-38.33
-35.99
-29.08
-18.51
-5.94
6.69
17.76
26.4
32.57
36.74
39.47
41.08
41.65
41.17
39.8
37.96
36.2
34.95
34.43
34.54
35.04
35.71
36.47
37.33
38.23
38.96
39.11
38.19
35.8
31.93
26.91
21.42
16.14
11.58
7.81
4.58
1.45
-1.96
-5.79
-9.91
-14.06
-17.92
-21.34
-24.3
-27.0
-29.8
-33.1
-37.28
-42.45
-48.26
-53.78
-57.64
-58.4
-55.08
-47.62
-36.94
-24.63
-12.45
-1.77
6.68
12.8
16.87
19.26
20.25
20.16
19.26
17.88
16.39
15.1
14.19
13.78
13.93
14.62
15.84
17.46
19.27
21.0
22.3
22.84
22.37
20.8
18.14
14.66
10.63
6.36
2.06
-2.18
-6.36
-10.49
-14.53
-18.44
-22.11
-25.5
-28.58
-31.37
-33.99
-36.69
-39.79
-43.64
-48.33
-53.43
-57.85
-60.08
-58.55
-52.34
-41.56
-27.43
-11.93
2.86
15.39
24.96
31.64
35.94
38.37
39.28
38.81
37.05
34.31
31.09
28.08
25.88
24.87
25.03
26.05
27.47
28.77
29.63
29.88
29.49
28.47
26.88
24.71
21.95
18.63
14.78
10.51
5.92
1.09
-3.89
-8.97
-14.05
-19.02
-23.68
-27.92
-31.7
-35.19
-38.79
-42.97
-48.07
-53.95
-59.89
-64.59
-66.53
-64.46
-57.88
-47.3
-34.01
-19.77
-6.28
5.19
14.0
20.03
23.59
25.17
25.31
24.56
23.35
22.03
20.85
19.99
19.53
19.41
19.45
19.43
19.25
19.07
19.31
20.48
22.85
26.19
29.73
32.45
33.49
32.51
29.69
25.66
21.04
16.23
11.36
6.42
1.45
-3.34
-7.64
-11.29
-14.36
-17.2
-20.35
-24.39
-29.66
-36.16
-43.38
-50.3
-55.46
-57.37
-54.91
-47.73
-36.53
-22.81
-8.43
4.93
16.22
25.07
31.63
36.18
39.0
40.22
40.02
38.74
36.87
35.02
33.64
32.94
32.84
33.06
33.36
33.57
33.68
33.68
33.5
32.97
31.85
29.98
27.37
24.18
20.66
17.05
13.49
9.99
6.49
2.93
-0.77
-4.62
-8.56
-12.45
-16.09
-19.28
-21.96
-24.28
-26.67
-29.73
-34.05
-39.84
-46.74
-53.64
-58.96
-60.99
-58.49
-51.18
-39.87
-26.22
-12.18
0.53
10.89
18.64
24.02
27.47
29.37
29.94
29.39
27.97
26.04
24.06
22.39
21.26
20.73
20.76
21.22
21.99
22.86
23.63
24.07
23.98
23.21
21.74
19.64
17.06
14.2
11.16
8.02
4.77
1.35
-2.31
-6.19
-10.17
-14.04
-17.57
-20.68
-23.46
-26.19
-29.3
-33.19
-38.07
-43.82
-49.8
-54.89
-57.7
-56.96
-51.93
-42.82
-30.74
-17.43
-4.69
6.14
14.44
20.2
23.82
25.73
26.26
25.66
24.25
22.43
20.69
19.45
18.98
19.31
20.24
21.51
22.85
24.04
24.96
25.46
25.43
24.72
23.25
20.99
18.02
14.53
10.78
7.05
3.5
0.17
-3.02
-6.22
-9.57
-13.07
-16.59
-19.93
-22.91
-25.49
-27.81
-30.19
-33.06
-36.83
-41.56
-46.87
-51.79
-54.89
-54.77
-50.53
-42.13
-30.54
-17.4
-4.5
6.76
15.66
22.13
26.51
29.23
30.62
30.89
30.25
28.96
27.36
25.83
24.65
23.92
23.62
23.63
23.86
24.31
24.96
25.82
26.72
27.35
27.33
26.33
24.22
21.12
17.38
13.38
9.43
5.64
1.94
-1.85
-5.88
-10.18
-14.59
-18.84
-22.71
-26.09
-29.11
-32.08
-35.4
-39.41
-44.29
-49.85
-55.48
-60.15
-62.52
-61.38
-55.99
-46.45
-33.78
-19.66
-5.96
5.86
14.97
21.36
25.45
27.8
28.88
28.95
28.21
26.89
25.38
24.08
23.35
23.3
23.84
24.73
25.69
26.62
27.51
28.47
29.48
30.38
30.81
30.33
28.65
25.77
21.98
17.79
13.69
9.92
6.5
3.2
-0.3
-4.16
-8.39
-12.8
-17.08
-20.96
-24.25
-26.99
-29.42
-31.99
-35.15
-39.27
-44.34
-49.82
-54.67
-57.54
-57.19
-52.87
-44.67
-33.52
-20.92
-8.51
2.37
11.01
17.31
21.58
24.28
25.72
26.1
25.49
24.05
22.07
19.99
18.29
17.34
17.31
18.12
19.51
21.16
22.76
24.05
24.81
24.92
24.26
22.81
20.61
17.79
14.5
10.92
7.2
3.46
-0.27
-4.01
-7.79
-11.58
-15.25
-18.65
-21.62
-24.17
-26.52
-29.07
-32.31
-36.56
-41.74
-47.17
-51.7
-53.92
-52.6
-47.18
-38.01
-26.25
-13.57
-1.65
8.35
15.87
20.99
24.08
25.53
25.69
24.81
23.17
21.16
19.24
17.81
17.12
17.19
17.83
18.82
19.96
21.14
22.31
23.38
24.15
24.3
23.57
21.79
19.02
15.54
11.73
7.95
4.42
1.14
-2.08
-5.46
-9.19
-13.3
-17.6
-21.83
-25.72
-29.21
-32.52
-36.03
-40.24
-45.44
-51.58
-57.99
-63.53
-66.74
-66.3
-61.48
-52.4
-40.16
-26.39
-12.86
-0.89
8.8
16.11
21.3
24.71
26.67
27.43
27.32
26.65
25.81
25.0
24.38
24.03
24.0
24.34
25.08
26.2
27.53
28.81
29.74
30.0
29.35
27.65
24.97
21.53
17.7
13.91
10.47
7.47
4.73
1.92
-1.29
-5.02
-9.21
-13.59
-17.83
-21.71
-25.2
-28.53
-32.08
-36.33
-41.66
-48.1
-55.23
-61.99
-66.9
-68.42
-65.38
-57.5
-45.51
-31.06
-16.13
-2.54
8.59
16.91
22.7
26.54
29.0
30.43
31.06
31.09
30.81
30.59
30.79
31.58
32.89
34.47
35.96
37.13
37.88
38.25
38.31
38.03
37.25
35.75
33.36
30.08
26.16
22.03
18.04
14.37
10.88
7.24
3.17
-1.46
-6.48
-11.47
-16.09
-20.16
-23.75
-27.18
-30.87
-35.21
-40.45
-46.57
-53.11
-59.19
-63.5
-64.62
-61.49
-53.77
-42.13
-28.06
-13.41
0.1
11.33
19.88
25.9
29.84
32.14
33.09
32.9
31.81
30.18
28.43
27.04
26.35
26.51
27.43
28.78
30.18
31.27
31.86
31.91
31.47
30.65
29.47
27.93
25.99
23.57
20.66
17.25
13.39
9.17
4.71
0.22
-4.07
-7.91
-11.16
-13.83
-16.13
-18.47
-21.35
-25.29
-30.53
-36.84
-43.3
-48.41
-50.51
-48.18
-40.88
-29.16
-14.51
1.05
15.65
28.09
37.97
45.54
51.32
55.78
59.15
61.55
63.13
64.3
65.62
67.72
70.92
75.16
79.99
84.74
88.87
92.09
94.47
96.19
97.39
97.98
97.66
96.05
92.87
88.05
81.63
73.77
64.62
54.42
43.61
32.84
22.79
14.02
6.72
0.66
-4.68
-9.87
-15.37
-21.42
-28.06
-35.03
-41.8
-47.4
-50.65
-50.51
-46.48
-38.88
-28.84
-17.87
-7.13
3.13
13.76
26.52
43.45
66.29
96.1
133.26
177.28
226.65
278.22
326.99
366.39
389.68
391.74
370.67
328.6
270.87
204.51
136.34
71.77
14.33
-34.11
-72.86
-102.15
-122.87
-136.42
-144.34
-147.91
-147.88
-144.52
-137.9
-128.08
-115.45
-100.87
-85.68
-71.38
-59.34
-50.28
-44.03
-39.6
-35.85
-32.18
-29.01
-27.64
-29.45
-35.03
-43.67
-53.45
-62.0
-67.43
-68.99
-67.05
-62.72
-57.3
-51.9
-47.37
-44.24
-42.81
-43.04
-44.59
-46.94
-49.65
-52.61
-56.01
-59.97
-64.3
-68.32
-71.05
-71.6
-69.69
-65.76
-60.77
-55.64
-50.83
-46.24
-41.49
-36.21
-30.53
-25.09
-20.78
-18.38
-18.34
-20.57
-24.62
-29.83
-35.39
-40.38
-43.89
-45.22
-44.14
-41.13
-37.22
-33.69
-31.53
-31.04
-31.71
-32.48
-32.46
-31.5
-30.69
-31.96
-37.28
-47.48
-61.54
-76.64
-89.04
-95.5
-94.47
-86.74
-75.03
-63.18
-54.95
-53.07
-58.67
-70.99
-87.36
-103.71
-115.56
-119.45
-114.33
-102.15
-87.38
-75.31
-70.12
-73.22
-82.65
-93.73
-100.61
-98.36
-84.68
-60.82
-31.3
-2.39
19.87
31.6
32.04
23.25
8.84
-7.57
-23.41
-37.39
-49.09
-58.4
-65.24
-69.69
-72.25
-73.81
-75.31
-77.12
-78.84
-79.32
-77.23
-71.79
-63.24
-52.83
-42.37
-33.48
-27.0
-22.71
-19.57
-16.28
-11.86
-6.01
0.88
7.95
14.27
19.3
22.9
25.48
27.65
30.0
32.81
35.99
39.21
42.02
44.1
45.29
45.6
45.07
43.75
41.67
38.9
35.55
31.87
28.1
24.55
21.45
18.87
16.69
14.61
12.26
9.32
5.7
1.52
-3.06
-7.96
-13.27
-19.18
-25.65
-32.12
-37.5
-40.41
-39.68
-34.84
-26.34
-15.44
-3.8
7.07
16.21
23.28
28.45
32.0
34.15
34.91
34.26
32.34
29.69
27.15
25.63
25.7
27.33
29.91
32.57
34.56
35.51
35.57
35.0
34.02
32.54
30.22
26.8
22.34
17.31
12.46
8.52
5.74
3.87
2.23
0.07
-3.05
-7.13
-11.76
-16.37
-20.55
-24.29
-27.92
-31.94
-36.82
-42.76
-49.57
-56.74
-63.5
-68.89
-71.91
-71.63
-67.41
-59.18
-47.59
-33.99
-20.14
-7.67
2.37
9.73
14.81
18.29
20.65
22.0
22.17
21.02
18.72
15.87
13.22
11.39
10.62
10.7
11.22
11.78
12.23
12.64
13.11
13.63
14.0
13.87
12.97
11.22
8.8
6.01
3.11
0.1
-3.17
-6.92
-11.21
-15.78
-20.12
-23.71
-26.23
-27.77
-28.89
-30.39
-33.15
-37.82
-44.55
-52.86
-61.52
-68.64
-72.06
-69.94
-61.31
-46.6
-27.52
-6.66
13.31
30.41
43.65
53.08
59.32
63.18
65.35
66.24
66.12
65.24
63.91
62.49
61.32
60.65
60.56
60.91
61.42
61.7
61.4
60.28
58.29
55.55
52.27
48.67
44.87
40.87
36.54
31.68
26.07
19.61
12.35
4.63
-3.04
-10.15
-16.41
-21.9
-27.08
-32.65
-39.35
-47.66
-57.57
-68.48
-78.98
-87.0
-90.18
-86.55
-75.27
-57.16
-34.61
-10.96
10.54
27.7
39.87
47.69
52.48
55.47
57.4
58.46
58.64
57.94
56.65
55.21
54.05
53.44
53.43
53.82
54.38
54.89
55.22
55.32
55.15
54.54
53.34
51.32
48.46
44.87
40.84
36.7
32.57
28.32
23.6
18.17
12.06
5.67
-0.37
-5.55
-9.8
-13.57
-17.67
-22.98
-30.02
-38.77
-48.5
-57.79
-64.77
-67.37
-63.95
-53.88
-37.85
-17.87
3.25
22.67
38.3
49.19
55.52
58.16
58.28
56.85
54.62
52.13
49.8
48.02
47.04
46.92
47.55
48.62
49.69
50.5
50.86
50.83
50.54
50.04
49.19
47.71
45.28
41.77
37.34
32.41
27.46
22.82
18.49
14.2
9.61
4.56
-0.76
-5.91
-10.5
-14.39
-17.84
-21.47
-26.02
-32.13
-40.16
-49.92
-60.56
-70.42
-77.21
-78.48
-72.53
-59.07
-39.7
-17.47
4.0
21.73
34.2
41.52
44.88
45.72
45.07
43.33
40.49
36.58
32.05
27.76
24.75
23.8
25.07
28.07
31.81
35.17
37.37
38.11
37.5
35.83
33.33
29.99
25.65
20.18
13.56
6.09
-1.75
-9.35
-16.16
-21.78
-26.12
-29.33
-31.83
-34.14
-36.77
-40.15
-44.63
-50.44
-57.53
-65.39
-72.81
-77.92
-78.62
-73.34
-61.72
-45.06
-25.92
-7.31
8.3
19.66
26.77
30.45
31.6
30.83
28.37
24.4
19.37
14.12
9.66
6.91
6.31
7.66
10.29
13.32
15.95
17.64
18.21
17.68
16.23
14.04
11.25
7.99
4.4
0.58
-3.41
-7.6
-12.09
-16.98
-22.26
-27.7
-32.93
-37.49
-41.13
-43.98
-46.62
-49.93
-54.88
-62.19
-71.96
-83.45
-94.97
-104.07
-108.06
-104.84
-93.72
-75.74
-53.48
-30.24
-9.02
8.26
20.93
29.29
34.06
35.81
35.01
32.21
28.3
24.48
22.02
21.74
23.73
27.4
31.74
35.82
39.18
41.87
44.38
47.19
50.52
54.13
57.48
60.04
61.63
62.63
63.86
66.55
71.79
80.29
92.11
106.7
122.69
137.78
148.98
153.23
148.67
135.46
115.97
93.81
72.3
53.15
36.09
19.81
3.27
-13.26
-28.31
-40.2
-48.27
-53.55
-58.21
-64.54
-73.81
-85.81
-99.07
-111.55
-121.13
-126.06
-125.06
-117.12
-101.52
-77.8
-46.06
-7.33
36.37
82.12
126.61
166.71
200.09
225.48
242.72
252.47
255.92
254.41
249.1
240.71
229.49
215.39
198.37
178.78
157.44
135.33
113.09
90.67
67.1
41.06
11.5
-21.63
-57.1
-92.61
-125.31
-152.52
-171.99
-182.34
-183.05
-174.57
-158.4
-137.08
-114.04
-92.99
-77.16
-68.36
-66.6
-70.12
-76.24
-82.28
-86.49
-88.33
-88.3
-87.34
-86.31
-85.76
-85.85
-86.58
-87.75
-88.9
-89.42
-88.68
-86.43
-82.96
-79.03
-75.4
-72.4
-69.78
-66.78
-62.59
-56.61
-48.64
-38.79
-27.48
-15.44
-3.78
6.12
13.0
16.16
15.81
12.88
8.62
3.94
-0.93
-6.2
-12.04
-18.07
-23.29
-26.4
-26.6
-24.04
-19.88
-15.85
-13.43
-13.24
-14.76
-16.56
-16.96
-14.58
-8.78
0.24
11.54
23.81
35.58
45.6
52.97
57.27
58.51
57.03
53.3
47.92
41.51
34.83
28.71
23.95
21.03
19.93
20.08
20.58
20.56
19.61
17.81
15.68
13.82
12.61
11.98
11.53
10.71
9.06
6.37
2.64
-1.96
-7.17
-12.68
-18.02
-22.58
-25.66
-26.64
-25.21
-21.58
-16.44
-10.79
-5.63
-1.68
0.79
1.9
2.03
1.59
0.82
-0.18
-1.48
-3.14
-5.14
-7.21
-8.98
-10.0
-10.07
-9.28
-8.03
-6.9
-6.29
-6.34
-6.88
-7.56
-8.13
-8.5
-8.77
-9.11
-9.67
-10.47
-11.49
-12.76
-14.29
-16.11
-18.17
-20.31
-22.35
-24.19
-25.83
-27.41
-29.03
-30.67
-32.15
-33.15
-33.43
-32.82
-31.28
-28.79
-25.39
-21.14
-16.25
-11.05
-5.98
-1.52
2.03
4.57
6.22
7.2
7.69
7.89
7.89
7.83
7.81
7.94
8.24
8.66
9.06
9.29
9.29
9.08
8.76
8.41
8.04
7.55
6.76
5.56
3.86
1.77
-0.62
-3.14
-5.72
-8.34
-10.97
-13.52
-15.83
-17.76
-19.28
-20.59
-22.07
-24.24
-27.43
-31.65
-36.39
-40.67
-43.34
-43.37
-40.21
-33.95
-25.21
-14.98
-4.26
6.02
15.14
22.62
28.16
31.71
33.41
33.57
32.56
30.72
28.26
25.32
22.07
18.91
16.41
15.2
15.64
17.68
20.69
23.69
25.64
25.76
23.72
19.7
14.24
8.02
1.71
-4.07
-8.83
-12.18
-13.92
-14.19
-13.42
-12.28
-11.47
-11.52
-12.58
-14.46
-16.76
-19.04
-21.02
-22.47
-23.27
-23.19
-22.0
-19.58
-16.03
-11.78
-7.44
-3.65
-0.82
0.94
1.89
2.43
2.97
3.82
5.11
6.8
8.72
10.68
12.43
13.81
14.8
15.42
15.76
15.91
15.89
15.7
15.33
14.83
14.26
13.62
12.83
11.68
9.9
7.4
4.29
0.93
-2.19
-4.7
-6.5
-7.74
-8.74
-9.78
-11.04
-12.51
-14.18
-16.05
-18.23
-20.78
-23.65
-26.46
-28.64
-29.52
-28.52
-25.44
-20.43
-14.02
-6.91
0.19
6.67
12.09
16.14
18.73
19.91
19.95
19.25
18.35
17.67
17.51
17.94
18.82
19.89
20.9
21.63
21.93
21.67
20.84
19.46
17.67
15.73
13.88
12.3
11.0
9.8
8.4
6.49
3.84
0.49
-3.32
-7.16
-10.56
-13.21
-15.02
-16.25
-17.39
-18.97
-21.3
-24.39
-27.82
-30.93
-32.97
-33.36
-31.77
-28.24
-23.1
-16.94
-10.44
-4.31
0.93
4.99
7.88
9.84
11.17
12.07
12.66
12.94
12.94
12.82
12.76
12.94
13.39
13.98
14.52
14.79
14.77
14.5
14.1
13.6
13.01
12.26
11.32
10.27
9.21
8.2
7.15
5.84
4.0
1.49
-1.61
-5.0
-8.26
-11.05
-13.23
-14.94
-16.5
-18.21
-20.27
-22.62
-25.06
-27.25
-28.83
-29.56
-29.34
-28.16
-26.07
-23.18
-19.55
-15.31
-10.62
-5.76
-1.04
3.16
6.58
9.12
10.85
11.96
12.69
13.28
13.92
14.8
15.99
17.48
19.05
