8.98
9.89
10.31
10.15
9.53
8.72
8.02
7.64
7.64
7.94
8.35
8.67
8.8
8.69
8.34
7.76
6.98
6.05
5.07
4.14
3.37
2.77
2.3
1.9
1.45
0.93
0.29
-0.44
-1.24
-2.06
-2.91
-3.78
-4.77
-6.02
-7.68
-9.81
-12.32
-14.89
-16.99
-18.05
-17.63
-15.71
-12.64
-9.07
-5.68
-2.96
-1.01
0.37
1.48
2.58
3.7
4.69
5.33
5.56
5.54
5.59
6.06
7.1
8.64
10.34
11.82
12.8
13.26
13.4
13.49
13.74
14.17
14.61
14.81
14.55
13.81
12.69
11.36
9.97
8.5
6.88
5.01
2.94
0.83
-1.03
-2.42
-3.24
-3.62
-3.82
-4.14
-4.82
-6.02
-7.84
-10.27
-13.18
-16.23
-18.92
-20.68
-21.04
-19.88
-17.38
-14.01
-10.35
-6.88
-3.91
-1.55
0.27
1.65
2.75
3.66
4.42
5.01
5.39
5.58
5.69
5.94
6.43
7.19
8.1
8.98
9.68
10.16
10.52
10.85
11.16
11.3
11.06
10.25
8.87
7.13
5.34
3.83
2.76
2.1
1.58
0.86
-0.37
-2.26
-4.69
-7.3
-9.56
-10.91
-10.92
-9.52
-7.03
-4.15
-1.75
-0.57
-0.91
-2.55
-4.83
-6.94
-8.22
-8.38
-7.55
-6.1
-4.48
-2.99
-1.75
-0.75
0.14
0.99
1.82
2.59
3.22
3.67
3.95
4.18
4.5
5.0
5.69
6.47
7.16
7.62
7.83
7.91
8.02
8.29
8.68
9.03
9.11
8.78
8.02
6.99
5.88
4.81
3.82
2.84
1.84
0.86
-0.01
-0.69
-1.19
-1.63
-2.2
-3.08
-4.44
-6.3
-8.64
-11.27
-13.86
-15.96
-17.04
-16.71
-14.81
-11.65
-7.84
-4.15
-1.21
0.72
1.76
2.33
2.87
3.67
4.7
5.76
6.57
6.97
7.02
6.94
7.02
7.45
8.27
9.4
10.69
12.02
13.29
14.42
15.35
15.97
16.2
15.99
15.38
14.47
13.44
12.43
11.49
10.58
9.58
8.31
6.68
4.71
2.54
0.36
-1.65
-3.44
-5.05
-6.6
-8.26
-10.2
-12.56
-15.45
-18.76
-22.15
-25.02
-26.66
-26.56
-24.65
-21.34
-17.38
-13.47
-10.05
-7.18
-4.73
-2.53
-0.6
0.93
1.93
2.41
2.57
2.68
2.96
3.48
4.19
5.0
5.87
6.81
7.83
8.92
9.96
10.79
11.25
11.24
10.75
9.8
8.46
6.89
5.26
3.79
2.7
2.04
1.74
1.56
1.19
0.37
-0.99
-2.83
-4.95
-7.13
-9.21
-11.2
-13.24
-15.54
-18.16
-20.9
-23.3
-24.72
-24.61
-22.8
-19.57
-15.57
-11.58
-8.13
-5.42
-3.34
-1.58
0.11
1.8
3.47
4.98
6.22
7.12
7.65
7.83
7.79
7.69
7.72
7.99
8.53
9.21
9.87
10.34
10.48
10.26
9.66
8.7
7.44
6.04
4.67
3.54
2.78
2.37
2.19
2.01
1.6
0.86
-0.26
-1.66
-3.22
-4.81
-6.32
-7.72
-9.07
-10.48
-12.07
-13.95
-16.04
-18.15
-19.87
-20.75
-20.39
-18.67
-15.8
-12.22
-8.58
-5.42
-3.04
-1.38
-0.18
0.93
2.23
3.71
5.23
6.5
7.35
7.71
7.71
7.55
7.49
7.75
8.43
9.56
11.02
12.64
14.11
15.16
15.57
15.3
14.43
13.13
11.57
9.87
8.14
6.45
4.87
3.43
2.11
0.84
-0.45
-1.8
-3.22
-4.69
-6.27
-8.07
-10.24
-12.83
-15.68
-18.39
-20.43
-21.27
-20.61
-18.49
-15.26
-11.53
-7.85
-4.64
-2.03
0.05
1.78
3.32
4.71
5.89
6.73
7.12
7.06
6.66
6.13
5.71
5.6
5.87
6.47
7.23
7.92
8.42
8.73
8.95
9.25
9.7
10.29
10.92
11.45
11.79
11.93
11.86
11.54
10.86
9.66
7.84
5.45
2.74
0.03
-2.33
-4.16
-5.48
-6.5
-7.56
-9.01
-11.1
-13.83
-16.93
-19.81
-21.77
-22.21
-20.87
-17.96
-14.08
-9.99
-6.33
-3.39
-1.11
0.73
2.43
4.11
5.78
7.32
8.61
9.6
10.29
10.78
11.15
11.47
11.81
12.17
12.57
13.0
13.49
14.01
14.47
14.75
14.7
14.21
13.32
12.16
10.97
9.95
9.15
8.45
7.6
6.38
4.68
2.59
0.34
-1.78
-3.59
-5.08
-6.37
-7.65
-9.14
-10.92
-13.06
-15.47
-18.02
-20.42
-22.27
-23.12
-22.63
-20.71
-17.63
-13.96
-10.35
-7.33
-5.1
-3.55
-2.37
-1.19
0.21
1.84
3.52
5.0
6.1
6.76
7.09
7.35
7.77
8.46
9.37
10.31
11.06
11.49
11.64
11.61
11.59
11.61
11.57
11.33
10.76
9.86
8.79
7.72
6.79
5.91
4.86
3.38
1.33
-1.12
-3.62
-5.76
-7.3
-8.24
-8.87
-9.57
-10.62
-12.14
-14.03
-16.01
-17.68
-18.66
-18.62
-17.39
-15.05
-11.92
-8.52
-5.38
-2.86
-1.01
0.35
1.52
2.7
3.9
4.98
5.78
6.24
6.45
6.65
7.01
7.6
8.32
8.97
9.37
9.43
9.21
8.83
8.42
8.02
7.64
7.22
6.73
6.15
5.45
4.64
3.66
2.52
1.25
-0.0
-1.1
-1.97
-2.65
-3.27
-4.0
-4.93
-5.99
-7.05
-7.96
-8.76
-9.64
-10.84
-12.45
-14.18
-15.52
-15.85
-14.76
-12.28
-8.9
-5.38
-2.38
-0.24
1.11
2.01
2.89
3.97
5.24
6.5
7.5
8.11
8.39
8.53
8.75
9.19
9.85
10.57
11.16
11.44
11.36
11.0
10.55
10.19
10.04
10.04
10.05
9.9
9.46
8.71
7.72
6.64
5.55
4.48
3.38
2.11
0.63
-1.04
-2.7
-4.09
-5.07
-5.63
-6.0
-6.59
-7.78
-9.76
-12.44
-15.48
-18.27
-20.22
-20.87
-19.98
-17.68
-14.38
-10.63
-6.99
-3.81
-1.21
0.93
2.81
4.57
6.23
7.71
8.9
9.76
10.35
10.79
11.18
11.55
11.89
12.09
12.09
11.87
11.46
10.94
10.38
9.84
9.35
8.96
8.64
8.34
8.0
7.57
7.05
6.5
5.98
5.53
5.07
4.43
3.42
1.85
-0.28
-2.79
-5.41
-7.82
-9.76
-11.14
-12.06
-12.77
-13.61
-14.85
-16.54
-18.46
-20.08
-20.81
-20.13
-17.9
-14.33
-10.02
-5.71
-2.03
0.7
2.47
3.54
4.27
4.91
5.59
6.23
6.66
6.77
6.56
6.23
6.02
6.1
6.43
6.81
7.03
6.98
6.77
6.65
6.88
7.48
8.26
8.86
9.02
8.67
8.01
7.33
6.83
6.54
6.28
5.82
5.03
3.92
2.62
1.24
-0.13
-1.51
-2.94
-4.41
-5.88
-7.32
-8.79
-10.43
-12.41
-14.77
-17.23
-19.26
-20.25
-19.77
-17.78
-14.68
-11.14
-7.81
-5.09
-3.03
-1.42
-0.02
1.37
2.77
4.08
5.17
5.97
6.49
6.79
7.03
7.34
7.83
8.5
9.22
9.81
10.16
10.25
10.16
10.0
9.74
9.32
8.63
7.64
6.53
5.55
4.9
4.57
4.32
3.83
2.89
1.46
-0.27
-2.13
-3.96
-5.74
-7.49
-9.16
-10.71
-12.15
-13.64
-15.36
-17.47
-19.79
-21.87
-23.01
-22.61
-20.47
-16.94
-12.75
-8.71
-5.42
-3.02
-1.33
0.04
1.43
2.95
4.54
6.02
7.2
8.01
8.51
8.84
9.17
9.63
10.19
10.74
11.13
11.26
11.13
10.86
10.58
10.32
9.98
9.37
8.38
7.05
5.58
4.29
3.39
2.85
2.49
1.99
1.1
-0.23
-1.86
-3.56
-5.14
-6.48
-7.62
-8.66
-9.76
-11.12
-12.9
-15.2
-17.97
-20.93
-23.56
-25.22
-25.38
-23.85
-20.84
-16.93
-12.8
-9.01
-5.88
-3.42
-1.45
0.28
1.92
3.52
5.02
6.3
7.28
7.96
8.41
8.74
8.98
9.14
9.15
8.97
8.71
8.51
8.56
8.9
9.38
9.69
9.53
8.76
7.44
5.88
4.45
3.4
2.76
2.3
1.66
0.5
-1.34
-3.79
-6.6
-9.45
-12.06
-14.3
-16.17
-17.76
-19.3
-21.05
-23.33
-26.32
-29.92
-33.64
-36.65
-38.07
-37.32
-34.44
-30.15
-25.61
-21.95
-19.77
-18.98
-18.89
-18.6
-17.33
-14.75
-10.97
-6.38
-1.55
3.01
6.86
9.74
11.68
12.9
13.81
14.82
16.2
17.97
19.98
21.97
23.75
25.21
26.27
26.85
26.85
26.16
24.74
22.73
20.33
17.79
15.28
12.81
10.34
7.82
5.27
2.79
0.5
-1.55
-3.47
-5.49
-7.87
-10.84
-14.43
-18.56
-22.96
-27.26
-31.02
-33.78
-35.13
-34.81
-32.84
-29.44
-25.11
-20.36
-15.63
-11.18
-7.08
-3.3
0.18
3.29
5.93
7.91
9.12
9.52
9.24
8.52
7.7
7.12
7.04
7.62
8.75
10.16
11.48
12.33
12.49
11.89
10.69
9.05
7.17
5.15
3.08
1.08
-0.74
-2.26
-3.54
-4.78
-6.27
-8.16
-10.22
-11.8
-12.08
-10.43
-6.77
-1.7
3.73
8.37
11.45
12.75
12.52
11.21
9.17
6.65
3.95
1.61
0.47
1.41
4.9
10.53
16.9
21.82
23.04
18.98
9.42
-4.42
-20.25
-35.46
-47.92
-56.5
-61.08
-62.17
-60.32
-55.54
-47.14
-34.0
-15.29
8.74
36.28
64.04
88.08
105.1
113.48
113.87
108.65
100.87
92.95
85.87
79.32
72.38
64.43
55.53
46.32
37.39
28.84
20.18
10.79
0.35
-10.92
-22.5
-34.04
-45.66
-57.76
-70.5
-83.27
-94.57
-102.45
-105.23
-102.01
-92.87
-78.69
-60.78
-40.73
-20.25
-1.1
15.23
27.85
36.76
42.79
47.22
51.24
55.63
60.73
66.56
73.0
79.77
86.29
91.54
94.16
92.72
86.05
73.62
55.8
33.89
10.09
-12.72
-31.53
-43.94
-48.83
-46.78
-39.91
-31.22
-23.52
-18.69
-17.15
-17.99
-19.47
-19.7
-17.16
-11.15
-1.93
9.19
20.18
28.78
33.12
32.24
26.44
16.94
5.45
-6.39
-17.56
-27.66
-36.81
-45.23
-52.93
-59.49
-64.25
-66.51
-65.84
-62.34
-56.52
-49.19
-41.22
-33.42
-26.44
-20.8
-16.78
-14.17
-12.14
-9.27
-3.91
5.1
17.91
33.47
49.77
64.58
76.08
83.31
86.25
85.59
82.34
77.62
72.43
67.54
63.39
59.97
56.82
53.31
48.87
43.32
36.96
30.34
23.88
17.56
11.0
3.61
-4.97
-14.62
-24.76
-34.58
-43.38
-50.76
-56.64
-61.12
-64.28
-66.08
-66.39
-65.03
-61.92
-57.16
-51.1
-44.22
-36.99
-29.66
-22.2
-14.48
-6.59
1.0
7.41
11.7
13.26
12.17
9.2
5.59
2.56
1.01
1.37
3.57
7.25
11.85
16.77
21.49
25.72
29.48
33.02
36.67
40.57
44.48
47.83
49.89
50.08
48.09
44.0
38.21
31.36
24.19
17.38
11.49
6.75
3.08
0.04
-2.88
-6.17
-10.06
-14.52
-19.36
-24.23
-28.67
-32.07
-33.82
-33.52
-31.2
-27.52
-23.58
-20.52
-19.01
-19.06
-20.04
-21.03
-21.24
-20.2
-17.76
-14.01
-9.05
-3.04
3.69
10.62
16.98
21.84
24.45
24.44
22.02
18.03
13.69
10.26
8.57
8.71
9.94
11.06
10.84
8.58
4.4
-0.98
-6.51
-11.38
-15.17
-17.9
-19.77
-20.85
-20.98
-19.77
-16.84
-12.17
-6.28
-0.24
4.55
6.81
5.69
1.05
-6.55
-16.11
-26.36
-36.07
-44.07
-49.41
-51.42
-49.82
-44.98
-37.8
-29.63
-21.84
-15.53
-11.24
-8.94
-8.19
-8.22
-8.12
-6.78
-3.14
3.59
13.52
25.75
38.37
48.83
54.68
54.38
47.85
36.41
22.46
8.52
-3.44
-12.42
-18.49
-22.25
-24.46
-25.53
-25.64
-24.8
-23.04
-20.41
-16.79
-11.87
-5.24
3.12
12.47
21.17
27.3
29.4
27.27
22.15
16.06
10.7
6.53
2.6
-2.77
-10.8
-21.3
-32.58
-42.11
-47.86
-49.09
-46.71
-42.63
-38.83
-36.41
-35.22
-34.16
-31.81
-27.14
-19.97
-11.02
-1.64
6.68
12.69
15.77
15.99
13.96
10.62
6.91
3.58
1.11
-0.2
-0.23
1.05
3.49
6.67
9.99
12.83
14.77
15.82
16.46
17.42
19.27
22.02
24.97
26.99
26.9
24.05
18.6
11.49
4.07
-2.33
-6.86
-9.37
-10.25
-10.29
-10.36
-11.15
-13.05
-16.09
-19.99
-24.18
-27.96
-30.52
-31.25
-29.82
-26.26
-20.97
-14.59
-7.82
-1.27
4.61
9.57
13.47
16.24
17.89
18.49
18.22
17.39
16.38
15.56
15.25
15.61
16.54
17.8
19.01
19.84
20.11
19.85
19.2
18.35
17.4
16.4
15.39
14.45
13.7
13.21
12.85
12.26
11.03
8.88
5.87
2.37
-1.13
-4.22
-6.75
-8.81
-10.62
-12.42
-14.41
-16.79
-19.75
-23.38
-27.58
-31.96
-35.87
-38.57
-39.58
-38.81
-36.64
-33.68
-30.53
-27.57
-24.84
-22.1
-19.07
-15.57
-11.73
-7.93
-4.64
-2.3
-1.09
-0.9
-1.26
-1.5
-0.98
0.83
4.1
8.73
14.38
20.59
26.88
32.77
37.69
41.07
42.43
41.54
38.62
34.37
29.77
25.69
22.59
20.27
18.09
15.21
11.02
5.38
-1.33
-8.43
-15.2
-21.05
-25.72
-29.2
-31.77
-33.87
-36.01
-38.68
-42.17
-46.49
-51.21
-55.48
-58.08
-57.72
-53.39
-44.8
-32.54
-18.06
-3.19
10.29
21.15
28.91
33.74
36.18
36.8
36.08
34.41
32.17
29.85
27.94
26.84
26.66
27.14
27.79
28.08
27.68
26.64
25.37
24.36
24.01
24.32
24.9
25.19
24.67
23.1
20.57
17.45
14.14
10.95
8.02
5.28
2.62
-0.07
-2.79
-5.5
-8.11
-10.63
-13.16
-15.9
-19.0
-22.44
-25.97
-29.07
-31.11
-31.61
-30.43
-27.86
-24.53
-21.09
-17.99
-15.32
-12.83
-10.14
-7.0
-3.38
0.42
4.0
6.92
9.01
10.31
11.12
11.81
12.64
13.69
14.83
15.85
16.6
17.09
17.45
17.83
18.23
18.52
18.48
17.92
16.86
15.51
14.18
13.16
12.53
12.16
11.73
10.96
9.66
7.86
5.78
3.75
2.0
0.59
-0.63
-2.0
-3.83
-6.41
-9.81
-13.81
-18.0
-21.82
-24.63
-25.99
-25.69
-23.87
-20.99
-17.63
-14.29
-11.32
-8.75
-6.4
-4.03
-1.47
1.26
3.97
6.38
8.24
9.39
9.86
9.86
9.69
9.62
9.87
10.5
11.45
12.54
13.49
14.06
14.08
13.48
12.38
10.97
9.52
8.29
7.45
7.03
7.04
7.33
7.7
7.88
7.58
6.59
4.83
2.42
-0.37
-3.17
-5.71
-7.85
-9.63
-11.14
-12.53
-13.9
-15.3
-16.75
-18.2
-19.57
-20.58
-20.85
-19.99
-17.84
-14.56
-10.67
-6.84
-3.65
-1.38
0.05
1.02
1.93
3.04
4.36
5.73
6.87
7.62
7.93
7.93
7.82
7.83
8.07
8.47
8.92
9.3
9.6
9.9
10.35
10.91
11.48
11.79
11.66
11.06
10.14
9.21
8.53
8.18
8.05
7.89
7.47
6.67
5.5
4.06
2.43
0.64
-1.29
-3.38
-5.59
-7.89
-10.26
-12.67
-15.11
-17.36
-19.07
-19.81
-19.23
-17.26
-14.22
-10.66
-7.16
-4.2
-1.92
-0.28
0.84
1.58
2.01
2.21
2.29
2.36
2.5
2.74
3.05
3.4
3.77
4.21
4.73
5.35
6.03
6.71
7.39
8.07
8.75
9.43
9.98
10.29
10.26
9.89
9.25
8.5
7.73
6.96
6.13
5.14
3.89
2.35
0.57
-1.4
-3.45
-5.58
-7.84
-10.33
-13.13
-16.12
-18.98
-21.21
-22.27
-21.81
-19.82
-16.64
-12.82
-8.99
-5.6
-2.84
-0.73
0.88
2.12
3.05
3.72
4.17
4.43
4.58
4.74
5.06
5.65
6.57
7.78
9.1
10.34
11.24
11.67
11.6
11.08
10.24
9.17
7.92
6.53
5.08
3.66
2.38
1.34
0.56
0.01
-0.41
-0.8
-1.25
-1.82
-2.51
-3.29
-4.09
-4.88
-5.63
-6.44
-7.48
-8.96
-10.97
-13.44
-16.04
-18.25
-19.59
-19.66
-18.39
-16.01
-12.93
-9.64
-6.53
-3.83
-1.58
0.26
1.88
3.42
4.96
6.49
7.88
8.96
9.65
10.0
10.13
10.27
10.5
10.81
11.03
10.99
10.58
9.85
8.96
8.06
7.24
6.47
5.69
4.85
3.98
3.17
2.51
2.07
1.75
1.41
0.89
0.08
-0.99
-2.18
-3.36
-4.37
-5.19
-5.9
-6.65
-7.61
-8.96
-10.84
-13.23
-15.89
-18.43
-20.29
-20.99
-20.24
-18.11
-14.98
-11.41
-7.95
-4.93
-2.46
-0.39
1.42
3.12
4.72
6.15
7.29
8.05
8.43
8.54
8.55
8.56
8.65
8.75
8.76
8.52
8.0
7.27
6.48
5.83
5.44
5.35
5.49
5.75
6.01
6.16
6.12
5.79
5.14
4.14
2.85
1.38
-0.11
-1.46
-2.56
-3.36
-3.92
-4.4
-5.07
-6.24
-8.15
-10.81
-13.91
-16.87
-18.95
-19.58
-18.54
-16.12
-12.88
-9.49
-6.41
-3.78
-1.5
0.6
2.56
4.29
5.6
6.34
6.58
6.5
6.36
6.43
6.85
7.62
8.6
9.56
10.3
10.68
10.68
10.39
9.97
9.52
9.09
8.6
7.9
6.91
5.64
4.24
2.92
1.83
0.99
0.32
-0.37
-1.27
-2.46
-3.89
-5.38
-6.75
-7.89
-8.84
-9.8
-11.04
-12.83
-15.21
-17.99
-20.67
-22.65
-23.32
-22.4
-19.97
-16.5
-12.69
-9.19
-6.45
-4.55
-3.28
-2.24
-1.12
0.24
1.76
3.27
4.55
5.53
6.22
6.71
7.12
7.5
7.8
8.0
8.12
8.23
8.41
8.7
9.06
9.32
9.35
9.06
8.49
7.76
7.0
6.34
5.78
5.27
4.74
4.09
3.26
2.22
0.97
-0.46
-1.97
-3.43
-4.67
-5.62
-6.39
-7.24
-8.51
-10.44
-13.05
-15.98
-18.63
-20.31
-20.55
-19.25
-16.7
-13.51
-10.3
-7.51
-5.25
-3.38
-1.66
0.11
1.94
3.68
5.13
6.09
6.55
6.65
6.64
6.76
7.19
7.92
8.86
9.85
10.71
11.37
11.8
12.02
12.08
11.98
11.67
11.04
10.03
8.66
7.08
5.52
4.22
3.29
2.7
2.22
1.54
0.46
-1.04
-2.77
-4.44
-5.86
-7.03
-8.17
-9.68
-11.83
-14.56
-17.45
-19.78
-20.87
-20.3
-18.14
-14.84
-11.05
-7.32
-4.0
-1.2
1.12
3.06
4.63
5.88
6.83
7.5
7.91
8.12
8.16
8.1
8.08
8.22
8.63
9.29
10.01
10.6
10.81
10.53
9.8
8.74
7.52
6.28
5.11
4.03
3.06
2.18
1.42
0.74
0.07
-0.72
-1.7
-2.84
-4.06
-5.17
-6.05
-6.66
-7.15
-7.79
-8.95
-10.87
-13.54
-16.66
-19.62
-21.74
-22.47
-21.58
-19.25
-15.94
-12.23
-8.65
-5.54
-2.99
-0.9
0.88
2.52
4.13
5.67
7.08
8.28
9.24
10.04
10.81
11.64
12.55
13.46
14.18
14.58
14.61
14.32
13.78
13.07
12.18
11.13
9.95
8.73
7.65
6.86
6.41
6.2
5.99
5.46
4.44
2.9
0.97
-1.09
-3.02
-4.64
-5.93
-6.99
-8.05
-9.38
-11.22
-13.67
-16.63
-19.71
-22.3
-23.77
-23.62
-21.69
-18.28
-14.0
-9.63
-5.81
-2.84
-0.68
1.0
2.53
4.14
5.74
7.09
7.93
8.17
8.01
7.81
7.97
8.66
9.78
10.98
11.92
12.4
12.45
12.26
12.0
11.78
11.53
11.15
10.52
9.62
8.55
7.39
6.2
5.03
3.88
2.73
1.56
0.38
-0.79
-1.88
-2.84
-3.61
-4.19
-4.64
-5.15
-6.0
-7.47
-9.72
-12.7
-16.04
-19.13
-21.29
-21.98
-21.02
-18.63
-15.39
-11.89
-8.66
-5.9
-3.6
-1.62
0.16
1.78
3.2
4.3
5.04
5.41
5.49
5.43
5.41
5.56
5.98
6.64
7.47
8.33
9.13
9.77
10.25
10.54
10.64
10.56
10.28
9.79
9.09
8.2
7.14
5.97
4.73
3.46
2.16
0.76
-0.78
-2.5
-4.33
-6.12
-7.74
-9.22
-10.68
-12.35
-14.34
-16.54
-18.56
-19.87
-20.03
-18.89
-16.63
-13.63
-10.27
-6.87
-3.59
-0.57
2.09
4.25
5.86
7.0
7.82
8.5
9.13
9.66
10.0
10.06
9.88
9.58
9.31
9.2
9.25
9.41
9.61
9.77
9.84
9.79
9.67
9.48
9.23
8.9
8.42
7.7
6.72
5.49
4.08
2.56
0.95
-0.77
-2.58
-4.42
-6.16
-7.68
-8.98
-10.23
-11.72
-13.74
-16.31
-19.15
-21.74
-23.47
-23.91
-23.0
-20.99
-18.33
-15.48
-12.77
-10.33
-8.16
-6.23
-4.49
-2.98
-1.7
-0.69
0.03
0.46
0.64
0.68
0.72
0.95
1.48
2.32
3.31
4.15
4.5
4.2
3.27
1.98
0.69
-0.32
-1.01
-1.63
-2.59
-4.22
-6.6
-9.49
-12.47
-15.12
-17.3
-19.19
-21.23
-23.89
-27.44
-31.83
-36.67
-41.42
-45.54
-48.7
-50.83
-52.16
-53.18
-54.46
-56.54
-59.66
-63.63
-67.67
-70.58
-70.94
-67.55
-59.85
-48.16
-33.72
-18.26
-3.49
9.33
19.64
27.53
33.36
37.57
40.54
42.55
43.96
45.21
46.68
48.54
50.64
52.58
53.9
54.28
53.65
52.19
50.17
47.9
45.61
43.43
41.47
39.66
37.9
36.05
34.04
31.88
29.67
27.53
25.53
23.6
21.54
19.13
16.2
12.65
8.47
3.68
-1.76
-7.91
-14.77
-22.1
-29.34
-35.57
-39.73
-41.04
-39.25
-34.84
-28.89
-22.62
-17.0
-12.44
-8.82
-5.66
-2.47
1.02
4.83
8.67
12.22
15.18
17.38
18.84
19.73
20.33
20.9
21.67
22.71
23.95
25.21
26.25
26.84
26.88
26.34
25.3
23.89
22.25
20.51
18.79
17.13
15.52
13.88
12.03
9.69
6.66
2.85
-1.56
-6.19
-10.61
-14.47
-17.66
-20.31
-22.65
-24.78
-26.65
-28.02
-28.54
-27.94
-26.13
-23.15
-19.25
-14.71
-9.84
-4.92
-0.17
4.26
8.18
11.46
13.93
15.47
16.1
16.04
15.66
15.42
15.62
16.33
17.38
18.47
19.46
20.37
21.39
22.69
24.19
25.57
26.29
25.95
24.42
22.0
19.22
16.69
14.74
13.34
12.15
10.62
8.33
5.05
0.94
-3.61
-8.11
-12.19
-15.77
-19.02
-22.36
-26.19
-30.72
-35.77
-40.8
-45.05
-47.71
-48.21
-46.29
-42.09
-36.01
-28.69
-20.76
-12.85
-5.42
1.29
7.23
12.52
17.24
21.39
24.82
27.39
29.06
29.97
30.4
30.5
30.25
29.41
27.69
25.02
21.72
18.42
15.8
14.37
14.16
14.86
16.0
17.14
18.0
18.43
18.33
17.53
15.89
13.41
10.35
7.17
4.39
2.36
1.1
0.31
-0.52
-1.9
-4.25
-7.75
-12.4
-17.98
-24.08
-30.01
-34.92
-38.0
-38.63
-36.68
-32.49
-26.74
-20.25
-13.64
-7.23
-1.14
4.58
9.76
14.07
17.12
18.63
18.57
17.25
15.3
13.47
12.49
12.8
14.5
17.25
20.42
23.2
24.95
25.35
24.5
22.83
20.86
18.94
17.25
15.71
14.17
12.51
10.72
8.84
6.91
4.93
2.87
0.78
-1.17
-2.66
-3.4
-3.31
-2.72
-2.33
-3.04
-5.62
-10.27
-16.49
-23.11
-28.67
-31.9
-32.13
-29.44
-24.6
-18.7
-12.79
-7.57
-3.34
-0.02
2.67
5.12
7.63
10.35
13.26
16.22
19.02
21.46
23.43
24.88
25.82
26.27
26.29
26.01
25.66
25.45
25.48
25.69
25.79
25.45
24.4
22.64
20.45
18.2
16.29
14.82
13.64
12.38
10.64
8.14
4.84
0.89
-3.45
-7.87
-12.1
-15.96
-19.39
-22.37
-25.04
-27.57
-30.08
-32.63
-35.03
-36.97
-38.08
-38.1
-36.96
-34.77
-31.71
-27.93
-23.51
-18.48
-12.95
-7.22
-1.74
3.01
6.66
9.09
10.48
11.19
11.71
12.47
13.73
15.56
17.83
20.25
22.49
24.32
25.58
26.23
26.27
25.72
24.59
22.91
20.8
18.51
16.3
14.37
12.76
11.34
9.89
8.22
6.21
3.87
1.28
-1.4
-4.07
-6.62
-9.03
-11.37
-13.77
-16.41
-19.42
-22.7
-25.97
-28.79
-30.65
-31.2
-30.37
-28.33
-25.46
-22.1
-18.51
-14.8
-11.03
-7.3
-3.8
-0.71
1.8
3.7
5.08
6.05
6.73
7.23
7.67
8.21
9.03
10.19
11.59
12.95
13.97
14.43
14.35
13.91
13.29
12.6
11.82
10.88
9.74
8.47
7.23
6.14
5.17
4.13
2.8
1.04
-1.1
-3.43
-5.67
-7.68
-9.45
-11.18
-13.15
-15.56
-18.5
-21.84
-25.28
-28.41
-30.79
-32.04
-31.94
-30.52
-28.01
-24.8
-21.32
-17.88
-14.62
-11.5
-8.49
-5.53
-2.72
-0.26
1.67
2.97
3.72
4.13
4.47
5.0
5.81
6.83
7.91
8.93
9.8
10.55
11.22
11.8
12.18
12.18
11.64
10.45
8.68
6.45
3.9
1.08
-2.02
-5.49
-9.35
-13.53
-17.85
-22.08
-26.1
-29.89
-33.55
-37.21
-40.97
-44.89
-48.95
-53.15
-57.4
-61.44
-64.81
-66.9
-67.17
-65.33
-61.52
-56.28
-50.38
-44.51
-39.09
-34.15
-29.44
-24.58
-19.2
-13.09
-6.22
1.26
9.13
17.07
24.75
31.78
37.7
42.07
44.56
45.04
43.75
41.26
38.34
35.71
33.92
33.17
33.37
34.23
35.37
36.41
37.0
36.83
35.69
33.54
30.42
26.45
21.81
16.66
11.22
5.76
0.64
-3.83
-7.53
-10.59
-13.41
-16.5
-20.22
-24.57
-29.15
-33.27
-36.22
-37.53
-37.07
-35.04
-31.83
-27.77
-23.09
-17.82
-11.98
-5.62
1.08
7.74
13.88
19.03
22.84
25.23
26.4
26.84
27.09
27.6
28.52
29.75
31.01
32.09
32.97
33.78
34.69
35.7
36.56
36.72
35.65
33.09
29.26
24.81
20.6
17.32
15.13
13.68
12.3
10.38
7.7
4.49
1.24
-1.61
-3.96
-6.13
-8.71
-12.26
-17.12
-23.11
-29.61
-35.57
-39.78
-41.2
-39.26
-34.04
-26.27
-17.08
-7.64
1.05
8.36
14.05
18.13
20.82
22.43
23.37
24.01
24.72
25.73
27.29
29.6
32.82
37.06
42.2
47.87
53.52
58.49
62.14
64.01
63.85
61.63
57.64
52.36
46.41
40.27
34.19
27.98
21.26
13.64
5.06
-4.12
-13.29
-21.84
-29.38
-35.84
-41.36
-46.15
-50.4
-54.26
-57.76
-60.83
-63.22
-64.47
-64.08
-61.65
-57.11
-50.81
-43.43
-35.7
-28.27
-21.51
-15.48
-10.12
-5.29
-0.87
3.1
6.46
9.0
10.57
11.17
11.08
10.77
10.75
11.39
12.81
14.84
17.16
19.42
21.33
22.73
23.52
23.68
23.17
22.07
20.49
18.57
16.43
14.14
11.66
8.97
6.15
3.38
0.94
-0.81
-1.67
-1.6
-0.81
0.26
0.98
0.7
-1.08
-4.52
-9.33
-14.78
-19.83
-23.52
-25.12
-24.4
-21.66
-17.59
-13.06
-8.83
-5.43
-3.07
-1.75
-1.33
-1.69
-2.72
-4.31
-6.21
-8.02
-9.32
-9.72
-9.09
-7.54
-5.43
-3.18
-1.11
0.62
2.04
3.27
4.49
5.78
7.11
8.28
9.03
9.09
8.36
6.89
4.84
2.46
-0.07
-2.66
-5.3
-7.96
-10.5
-12.7
-14.28
-15.03
-14.98
-14.52
-14.2
-14.7
-16.38
-19.16
-22.41
-25.16
-26.46
-25.77
-23.23
-19.49
-15.49
-12.02
-9.43
-7.65
-6.25
-4.8
-3.0
-0.79
1.65
4.1
6.34
8.24
9.78
11.04
12.12
13.15
14.19
15.21
16.07
16.58
16.57
15.97
14.87
13.43
11.88
10.35
8.8
7.12
5.18
2.9
0.36
-2.22
-4.55
-6.42
-7.75
-8.72
-9.62
-10.84
-12.66
-15.17
-18.2
-21.45
-24.52
-27.06
-28.8
-29.55
-29.2
-27.75
-25.27
-21.98
-18.08
-13.75
-9.0
-3.68
2.34
9.03
16.02
22.61
27.95
31.4
32.81
32.56
31.4
30.13
29.32
29.14
29.45
29.97
30.47
30.82
30.96
30.85
30.41
29.62
28.48
27.14
25.85
24.86
24.35
24.26
24.36
24.29
23.71
22.46
20.68
18.65
16.68
14.95
13.36
11.61
9.28
5.94
1.26
-4.91
-12.44
-20.9
-29.44
-37.09
-42.87
-46.15
-46.74
-44.91
-41.15
-36.07
-30.26
-24.27
-18.65
-13.93
-10.42
-8.15
-6.89
-6.2
-5.65
-4.9
-3.76
-2.2
-0.27
1.87
4.05
6.05
7.7
8.92
9.73
10.28
10.72
11.08
11.29
11.15
10.46
9.03
6.81
3.88
0.42
-3.35
-7.28
-11.25
-15.16
-18.88
-22.18
-24.75
-26.28
-26.69
-26.16
-25.18
-24.37
-24.2
-24.84
-25.98
-27.0
-27.17
-25.95
-23.18
-19.16
-14.55
-10.12
-6.49
-3.94
-2.35
-1.35
-0.45
0.67
2.1
3.73
5.31
6.67
7.71
8.44
8.88
9.1
9.2
9.33
9.65
10.34
11.39
12.65
13.85
14.62
14.73
14.07
12.72
10.85
8.74
6.64
4.79
3.37
2.39
1.75
1.24
0.61
-0.28
-1.43
-2.75
-4.15
-5.61
-7.29
-9.38
-12.03
-15.19
-18.49
-21.42
-23.44
-24.22
-23.65
-21.9
-19.27
-16.08
-12.58
-8.98
-5.49
-2.38
0.04
1.49
1.85
1.23
-0.06
-1.63
-3.15
-4.49
-5.61
-6.58
-7.41
-8.08
-8.57
-8.91
-9.21
-9.58
-10.09
-10.73
-11.43
-12.17
-13.01
-14.08
-15.37
-16.64
-17.36
-16.84
-14.49
-10.17
-4.3
2.19
8.22
12.99
16.11
17.72
18.08
17.31
15.2
11.35
5.43
-2.36
-11.23
-19.92
-27.09
-31.71
-33.3
-32.05
-28.58
-23.73
-18.28
-12.77
-7.44
-2.27
2.82
7.84
12.63
16.86
20.26
22.66
24.19
25.22
26.23
27.56
29.21
30.87
32.04
32.25
31.38
29.69
27.77
26.23
25.5
25.61
26.24
26.88
27.02
26.33
24.63
21.89
18.25
13.89
9.16
4.52
0.47
-2.5
-4.16
-4.52
-3.88
-2.76
-1.74
-1.35
-1.92
-3.59
-6.25
-9.64
-13.33
-16.77
-19.38
-20.65
-20.35
-18.61
-15.96
-13.05
-10.45
-8.38
-6.71
-5.1
-3.27
-1.12
1.2
3.43
5.33
6.82
7.94
8.85
9.7
10.64
11.72
12.84
13.77
14.23
14.06
13.28
12.2
11.19
10.58
10.42
10.49
10.42
9.97
9.12
8.09
7.19
6.64
6.42
6.28
5.9
5.03
3.65
1.95
0.25
-1.21
-2.32
-3.18
-4.04
-5.16
-6.78
-9.1
-12.17
-15.83
-19.63
-22.87
-24.76
-24.63
-22.27
-18.0
-12.61
-7.06
-2.14
1.77
4.66
6.78
8.39
9.65
10.58
11.1
11.19
10.92
10.44
10.01
9.8
9.82
9.95
9.92
9.49
8.61
7.42
6.16
5.12
4.36
3.78
3.19
2.52
1.87
1.54
1.83
2.79
4.16
5.41
5.96
5.5
4.12
2.22
0.37
-1.04
-1.85
-2.2
-2.32
-2.47
-2.82
-3.5
-4.56
-5.88
-7.15
-7.79
-7.12
-4.6
-0.14
5.83
12.49
18.99
24.82
29.89
34.54
39.24
44.27
49.58
54.8
59.38
62.85
64.99
65.77
65.4
64.14
62.18
59.66
56.66
53.32
49.81
46.38
43.18
40.14
36.98
33.23
28.46
22.41
15.15
6.99
-1.58
-10.19
-18.58
-26.71
-34.57
-42.11
-49.13
-55.36
-60.6
-64.85
-68.28
-71.26
-74.18
-77.43
-81.22
-85.65
-90.65
-95.83
-100.5
-103.56
-103.85
-100.43
-93.07
-82.32
-69.47
-56.13
-43.73
-33.16
-24.81
-18.73
-14.96
-13.59
-14.71
-18.16
-23.39
-29.5
-35.5
-40.68
-44.79
-48.0
-50.66
-53.08
-55.37
-57.51
-59.48
-61.43
-63.66
-66.5
-70.13
-74.46
-79.23
-84.17
-89.16
-94.29
-99.79
-105.83
-112.38
-119.19
-125.74
-131.34
-135.17
-136.37
-134.2
-128.23
-118.67
-106.58
-93.88
-82.98
-76.11
-74.55
-78.27
-86.07
-96.2
-107.17
-118.26
-129.33
-140.2
-149.8
-155.97
-155.96
-147.63
-130.54
-106.43
-78.59
-50.66
-25.29
-3.56
14.89
30.97
45.44
58.46
69.8
79.32
87.34
94.69
102.43
111.32
121.47
132.3
142.66
151.29
157.27
160.23
160.44
158.56
155.21
150.67
144.77
137.08
127.24
115.33
101.93
88.0
74.65
62.81
53.1
45.79
40.79
37.7
35.91
34.63
33.18
31.2
28.95
27.26
27.12
29.3
33.76
39.68
45.8
51.08
55.23
58.91
63.25
69.13
76.53
84.36
90.94
94.88
95.72
94.15
91.47
88.71
86.0
82.59
77.39
69.87
60.66
51.46
44.41
41.09
41.85
45.62
50.47
54.4
56.22
55.91
54.65
54.34
56.98
64.06
76.06
92.22
110.61
128.48
142.79
150.95
151.45
144.3
131.04
114.22
96.64
80.37
66.31
54.09
42.56
30.53
17.37
3.37
-10.5
-22.88
-32.65
-39.18
-42.47
-43.0
-41.44
-38.43
-34.38
-29.62
-24.46
-19.38
-14.96
-11.74
-9.86
-8.9
-8.03
-6.27
-3.15
1.1
5.56
9.12
11.01
11.17
10.26
9.15
8.48
8.35
8.42
8.27
7.64
6.58
5.23
3.61
1.61
-1.02
-4.35
-8.18
-11.99
-15.22
-17.46
-18.71
-19.38
-20.11
-21.55
-24.15
-27.99
-32.77
-37.86
-42.46
-45.81
-47.4
-47.0
-44.77
-41.05
-36.33
-31.06
-25.6
-20.21
-15.11
-10.49
-6.52
-3.33
-0.95
0.69
1.74
2.41
2.99
3.67
4.61
5.81
7.14
8.41
9.49
10.26
10.64
10.58
9.92
8.56
6.44
3.64
0.43
-2.83
-5.9
-8.76
-11.59
-14.73
-18.5
-23.06
-28.35
-34.24
-40.43
-46.66
-52.76
-58.66
-64.43
-70.26
-76.32
-82.6
-88.7
-93.67
-96.15
-94.64
-87.98
-75.85
-58.92
-38.84
-17.79
2.1
19.28
32.97
43.17
50.26
54.74
56.98
57.28
56.0
53.76
51.37
49.54
48.66
48.52
48.46
47.65
45.52
42.02
37.66
33.24
29.49
26.81
25.21
24.4
23.96
23.5
22.69
21.25
18.94
15.63
11.31
6.16
0.51
-5.24
-10.76
-15.87
-20.56
-25.02
-29.52
-34.35
-39.64
-45.28
-50.75
-55.31
-58.11
-58.49
-56.21
-51.45
-44.8
-37.04
-29.06
-21.62
-15.3
-10.34
-6.63
-3.76
-1.17
1.62
4.87
8.52
12.29
15.84
18.87
21.11
22.38
22.53
21.57
19.73
17.48
15.42
14.05
13.53
13.62
13.81
13.54
12.45
10.39
7.45
3.66
-1.03
-6.71
-13.25
-20.13
-26.34
-30.63
-31.99
-30.04
-25.31
-19.18
-13.37
-9.53
-8.66
-10.94
-15.71
-21.74
-27.61
-32.02
-34.11
-33.49
-30.21
-24.66
-17.46
-9.34
-1.06
6.64
13.17
18.17
21.6
23.66
24.65
24.8
24.27
23.16
21.72
20.37
19.64
19.98
21.57
24.12
27.04
29.53
30.91
30.76
29.03
26.0
22.18
18.17
14.5
11.55
9.43
8.01
6.97
5.94
4.62
2.86
0.73
-1.64
-4.05
-6.43
-8.89
-11.7
-15.24
-19.8
-25.45
-31.89
-38.46
-44.27
-48.39
-50.13
-49.23
-45.88
-40.64
-34.26
-27.48
-20.88
-14.85
-9.59
-5.19
-1.62
1.23
3.52
5.52
7.47
9.54
11.82
14.24
16.65
18.79
20.48
21.62
22.24
22.48
22.53
22.51
22.4
22.06
21.3
19.98
18.07
15.69
13.05
10.36
7.78
5.32
2.94
0.6
-1.74
-4.1
-6.52
-9.03
-11.7
-14.5
-17.49
-20.7
-24.26
-28.28
-32.73
-37.31
-41.35
-44.0
-44.46
-42.33
-37.79
-31.52
-24.44
-17.38
-10.88
-5.09
0.08
4.82
9.25
13.35
16.99
19.95
22.1
23.39
24.07
24.51
25.17
26.47
28.53
31.19
33.97
36.15
36.97
35.88
32.64
27.5
21.15
14.62
8.99
5.04
3.12
2.97
3.97
5.24
6.07
6.07
5.3
4.17
3.3
3.24
4.18
6.0
8.3
10.65
12.67
14.25
15.62
17.45
20.81
26.94
36.82
50.56
66.98
83.37
96.05
101.39
97.07
82.77
60.35
33.19
5.33
-19.56
-39.07
-52.27
-59.52
-62.14
-61.91
-60.61
-59.77
-59.96
-61.21
-63.37
-66.33
-70.08
-74.65
-80.23
-87.39
-97.15
-109.7
-124.47
-140.11
-154.43
-164.81
-168.98
-165.89
-156.67
-144.45
-131.82
-120.68
-112.3
-107.21
-104.86
-103.2
-98.66
-87.0
-64.63
-27.78
25.14
92.11
167.78
245.23
318.17
382.28
435.02
460.73
447.2
390.74
298.99
187.87
74.22
-29.79
-117.92
-188.72
-241.91
-280.05
-304.42
-315.73
-315.18
-304.63
-286.17
-261.64
-232.58
-201.45
-169.27
-136.24
-102.72
-69.64
-38.12
-8.74
19.07
46.85
76.12
108.07
141.96
173.75
196.72
203.85
190.63
157.2
108.18
50.98
-6.29
-56.84
-96.59
-123.95
-139.04
-142.97
-137.53
-125.2
-108.9
-91.08
-72.88
-54.11
-33.65
-10.36
16.03
44.43
72.85
99.18
122.03
141.06
156.58
168.97
178.27
184.08
185.88
183.52
177.43
168.61
158.38
147.96
138.32
130.08
123.45
118.19
113.59
108.64
102.15
93.21
81.66
68.46
55.73
46.13
41.79
43.11
48.23
53.55
55.46
52.27
45.33
39.16
39.62
51.47
76.12
109.99
144.48
167.87
168.54
139.26
80.74
2.77
-77.71
-141.35
-172.2
-161.85
-110.81
-27.03
77.14
188.05
292.72
380.27
442.87
476.7
482.6
465.8
434.19
396.03
357.86
323.2
292.86
265.85
240.39
215.01
189.11
162.97
137.74
114.98
95.86
80.69
68.58
57.68
45.98
31.94
15.08
-3.94
-23.75
-43.01
-60.89
-77.37
-93.11
-108.91
-125.19
-141.8
-158.02
-173.11
-186.85
-199.92
-213.72
-230.02
-250.13
-274.43
-302.27
-332.25
-362.88
-393.18
-422.94
-452.7
-483.65
-517.47
-556.08
-600.66
-650.42
-701.4
-746.36
-776.3
-783.34
-763.75
-719.48
-657.49
-586.98
-516.11
-449.78
-389.3
-333.78
-281.89
-233.09
-187.46
-145.06
-105.25
-66.67
-27.9
11.85
52.49
93.34
133.89
174.47
216.1
259.64
304.7
348.9
388.15
417.89
434.72
437.61
428.28
410.43
388.59
366.89
348.23
334.14
324.83
319.56
316.89
315.2
313.11
309.94
305.93
301.93
298.84
296.96
295.66
293.5
288.84
280.57
268.66
254.17
238.72
223.83
210.31
198.13
186.78
175.66
164.29
152.34
139.4
124.9
108.42
89.99
70.32
50.69
32.42
16.2
1.84
-11.57
-25.12
-39.39
-54.12
-68.35
-80.89
-90.79
-97.68
-101.79
-103.81
-104.68
-105.27
-106.15
-107.3
-108.11
-107.38
-103.89
-96.7
-85.75
-71.9
-56.82
-42.66
-31.47
-24.77
-23.29
-26.89
-34.6
-44.98
-56.39
-67.4
-76.99
-84.62
-90.14
-93.57
-94.97
-94.37
-91.85
-87.62
-82.13
-76.04
-70.14
-65.15
-61.6
-59.69
-59.31
-60.22
-62.16
-65.02
-68.96
-74.3
-81.41
-90.54
-101.58
-113.97
-126.73
-138.71
-148.78
-156.01
-159.87
-160.29
-157.67
-152.82
-146.51
-139.06
-129.86
-117.39
-99.78
-75.62
-44.69
-8.21
31.52
71.67
109.36
141.83
166.41
180.73
183.21
174.08
155.77
132.55
109.08
88.84
73.23
61.57
52.1
42.84
32.54
20.83
8.0
-5.3
-18.36
-30.51
-41.5
-51.71
-62.66
-76.07
-92.93
-112.55
-132.49
-149.51
-161.05
-166.88
-169.71
-175.65
-190.98
-219.56
-261.29
-312.28
-366.45
-417.49
-460.81
-494.5
-521.59
-546.19
-571.19
-596.77
-620.64
-639.24
-649.07
-647.69
-634.27
-613.18
-588.92
-563.93
-537.88
-508.94
-475.71
-438.23
-397.86
-356.61
-320.78
-294.49
-277.72
-266.54
-255.87
-242.33
-225.75
-208.41
-162.34
-75.86
45.23
179.76
303.1
398.97
462.78
497.9
511.05
505.93
485.65
452.79
411.16
366.57
325.19
291.61
268.06
255.15
252.21
254.21
256.34
256.02
253.26
249.31
245.22
241.3
237.28
232.67
224.85
211.35
191.03
164.46
133.47
100.56
68.78
41.55
22.22
12.47
12.57
21.82
39.13
63.3
93.55
129.72
172.23
221.79
278.61
342.2
411.0
481.71
548.62
603.73
638.14
644.31
618.6
562.61
482.36
386.07
281.22
172.38
60.94
-53.36
-169.82
-284.69
-390.62
-478.17
-538.58
-566.62
-562.19
-529.98
-477.52
-412.5
-340.59
-264.98
-187.11
-108.0
-29.34
46.42
116.65
179.37
233.49
278.6
314.45
340.56
356.21
360.69
353.87
336.72
311.63
282.39
253.69
230.04
214.53
207.95
208.49
212.51
215.9
215.52
209.93
199.4
185.08
167.93
148.22
125.56
99.69
71.13
41.34
12.27
-14.32
-37.51
-57.39
-74.83
-91.07
-107.28
-124.25
-142.08
-159.94
-175.8
-186.53
-188.56
-178.95
-156.41
-122.05
-79.13
-32.39
13.19
53.54
86.17
110.37
126.82
136.85
141.55
141.38
136.4
126.81
113.59
98.68
84.41
72.48
63.37
55.94
47.72
35.28
15.14
-15.15
-55.52
-102.24
-148.04
-183.92
-202.39
-200.44
-180.82
-150.54
-117.6
-87.61
-62.32
-40.52
-20.66
-2.83
10.93
18.09
17.53
10.67
0.93
-7.73
-12.15
-11.12
-5.61
1.9
8.2
10.51
7.56
0.15
-8.96
-16.28
-19.21
-17.27
-12.16
-6.65
-2.94
-1.51
-1.12
0.18
3.81
9.95
17.84
26.5
35.42
44.66
54.33
63.97
72.16
76.58
74.32
62.73
40.55
9.26
-26.18
-58.37
-80.22
-88.25
-84.4
-75.0
-67.62
-67.37
-74.79
-86.31
-96.73
-101.89
-99.94
-90.79
-74.86
-52.42
-24.25
7.43
38.67
64.94
82.98
92.15
94.4
92.97
90.75
89.12
87.85
85.99
82.92
79.14
76.17
75.81
79.3
86.98
98.47
113.15
130.45
149.7
169.79
188.93
205.03
216.65
223.74
227.64
230.14
232.1
232.78
230.28
223.04
211.29
197.47
185.19
177.46
175.24
177.13
180.52
183.23
184.66
185.78
188.13
192.49
198.37
204.19
208.15
209.17
207.28
203.4
198.71
193.95
189.04
183.43
176.45
167.73
157.5
146.35
135.05
124.13
113.77
103.73
93.54
82.88
71.7
60.33
49.31
39.2
30.34
22.71
16.0
9.78
3.67
-2.55
-8.81
-14.92
-20.55
-25.4
-29.24
-32.22
-34.44
-35.96
-36.79
-36.95
-36.73
-36.61
-37.15
-38.77
-42.02
-47.12
-54.01
-62.53
-72.62
-84.41
-98.12
-113.81
-131.02
-149.6
-168.92
-188.01
-205.91
-222.17
-237.03
-251.23
-265.34
-279.25
-294.45
-311.4
-329.72
-348.54
-367.29
-386.33
-406.74
-429.51
-454.64
-486.35
-527.19
-576.86
-631.86
-686.75
-736.59
-778.83
-813.86
-843.46
-877.61
-921.97
-974.53
-1025.69
-1063.0
-1077.31
-1066.49
-1034.61
-987.49
-940.74
-904.29
-880.01
-863.04
-846.75
-827.48
-805.83
-784.4
-708.26
-550.18
-312.36
-28.51
254.63
499.86
689.2
820.44
892.96
926.83
931.47
915.71
889.75
865.54
853.92
860.94
887.01
923.28
957.12
967.41
941.85
881.98
801.52
718.43
648.93
594.91
551.48
513.66
472.76
425.09
372.2
318.8
269.66
227.29
189.82
153.04
113.22
65.59
10.26
-46.97
-96.33
-127.84
-135.34
-119.06
-84.19
-38.3
9.56
52.2
85.01
105.9
114.81
113.22
103.43
88.34
70.64
51.92
32.95
14.33
-2.91
-17.43
-28.59
-37.31
-46.01
-57.9
-75.54
-99.21
-126.33
-151.93
-169.7
-173.63
-159.63
-127.15
-80.4
-28.28
17.41
45.65
50.08
31.41
-2.94
-41.85
-74.83
-95.71
-103.95
-103.73
-101.2
-101.39
-105.81
-111.86
-113.96
-106.07
-84.35
-49.04
-4.55
42.12
84.25
117.59
141.06
155.51
161.71
159.08
146.23
122.78
91.17
56.76
25.81
2.67
-12.58
-24.01
-37.7
-58.54
-87.45
-120.83
-152.22
-175.37
-186.76
-186.67
-178.28
-165.75
-152.5
-140.29
-129.47
-119.6
-109.75
-98.65
-84.92
-67.58
-47.04
-25.57
-6.53
7.3
15.87
22.64
33.03
51.23
77.63
108.36
137.63
161.1
177.98
190.69
202.19
213.13
221.03
221.89
213.12
195.72
174.37
155.16
142.68
137.99
138.44
139.31
136.13
126.37
110.26
90.28
69.96
52.42
39.43
31.08
26.4
23.92
21.98
18.91
12.89
2.13
-14.46
-36.34
-61.0
-84.45
-102.62
-112.96
-115.36
-111.85
-105.5
-98.78
-92.63
-86.48
-79.09
-69.63
-58.35
-46.63
-36.3
-28.91
-25.2
-24.93
-27.21
-30.96
-35.31
-39.76
-44.11
-48.18
-51.63
-53.97
-54.83
-54.27
-52.99
-52.13
-52.89
-56.01
-61.43
-68.33
-75.39
-81.2
-84.56
-84.52
-80.39
-71.6
-57.96
-39.79
-18.28
4.61
26.56
45.4
59.69
68.94
73.47
74.06
71.69
67.18
61.31
54.85
48.59
43.27
39.47
37.45
37.19
38.37
40.41
42.6
44.24
44.88
44.51
43.54
42.52
41.74
40.95
39.24
35.5
28.94
19.72
9.22
-0.22
-6.06
-6.51
-1.26
8.22
19.13
28.31
33.27
33.12
28.7
22.28
16.84
15.1
18.85
28.47
42.72
59.06
74.35
85.76
91.67
92.13
88.61
83.29
77.99
73.42
68.92
62.86
53.62
40.47
24.13
6.47
-10.26
-24.66
-36.74
-47.62
-58.75
-71.02
-84.36
-98.01
-111.06
-122.73
-132.41
-139.43
-143.13
-143.36
-140.78
-136.96
-133.81
-132.79
-134.24
-137.32
-140.59
-142.7
-142.95
-141.25
-137.59
-131.58
-122.25
-108.44
-89.54
-66.18
-40.5
-15.58
6.0
23.29
37.26
50.05
63.22
76.37
87.23
93.01
92.26
85.93
76.81
68.0
61.42
57.23
54.46
52.1
49.77
47.65
46.04
44.73
43.0
40.0
35.21
28.66
20.87
12.53
4.22
-3.78
-11.55
-19.37
-27.6
-36.38
-45.43
-54.11
-61.53
-66.97
-70.22
-71.76
-72.6
-73.9
-76.51
-80.56
-85.39
-89.7
-92.04
-91.2
-86.67
-78.76
-68.54
-57.54
-47.26
-38.81
-32.7
-28.86
-26.84
-26.0
-25.74
-25.51
-24.83
-23.28
-20.56
-16.58
-11.56
-5.95
-0.31
4.87
9.24
12.61
14.81
15.77
15.39
13.65
10.6
6.44
1.54
-3.59
-8.26
-11.66
-12.96
-11.42
-6.72
0.81
10.12
19.79
28.48
35.47
40.78
45.01
48.76
52.37
56.0
60.01
65.42
73.64
85.44
99.88
113.87
123.28
125.24
120.1
111.74
105.63
105.72
112.03
120.64
126.55
127.07
123.73
121.02
122.77
128.79
134.17
131.84
116.76
88.97
53.6
18.03
-12.02
-34.7
-51.85
-66.72
-81.34
-95.23
-106.31
-113.02
-116.2
-119.62
-128.42
-146.77
-175.63
-212.16
-250.98
-286.82
-316.95
-342.14
-365.53
-390.26
-417.17
-443.87
-465.62
-477.48
-476.35
-461.87
-436.19
-402.75
-365.03
-325.72
-286.52
-248.35
-211.91
-177.85
-146.78
-119.05
-94.41
-71.94
-50.24
-27.98
-4.31
20.84
46.84
72.74
97.68
121.23
143.55
165.42
188.04
212.63
239.71
268.51
296.71
320.83
337.37
344.07
340.7
329.04
312.08
292.92
274.07
257.27
243.66
234.1
228.84
227.13
226.92
225.34
219.86
209.59
196.0
182.37
172.34
168.22
169.88
174.73
178.95
179.08
173.18
161.29
144.89
126.03
106.5
87.5
69.7
53.56
39.55
28.16
19.86
14.92
13.34
14.86
18.9
24.69
31.29
37.85
43.7
48.57
52.44
55.4
57.39
58.13
57.09
53.78
47.91
39.53
29.04
17.06
4.28
-8.53
-20.67
-31.6
-41.19
-49.96
-59.06
-69.82
-83.15
-98.76
-114.77
-127.87
-134.12
-130.22
-114.78
-89.0
-56.55
-22.59
7.67
30.43
44.08
49.18
47.75
42.17
34.41
25.72
16.72
7.96
0.12
-5.95
-9.5
-10.22
-8.43
-4.92
-0.74
3.2
6.31
8.35
9.38
9.55
9.06
8.11
6.84
5.32
3.39
0.83
-2.68
-7.37
-13.24
-20.11
-27.76
-36.07
-45.23
-55.65
-67.8
-82.09
-98.51
-116.47
-134.41
-149.74
-159.07
-159.04
-147.45
-124.38
-92.72
-57.54
-24.8
0.46
15.35
19.45
14.21
1.95
-15.16
-35.43
-57.56
-80.3
-102.31
-122.29
-139.32
-153.12
-164.06
-172.88
-180.41
-187.16
-193.18
-198.22
-201.84
-203.94
-204.93
-205.68
-207.07
-209.29
-211.11
-209.66
-201.15
-182.25
-151.8
-111.69
-66.63
-22.64
14.86
42.35
58.44
63.41
58.58
46.15
29.32
12.42
0.18
-3.38
3.84
21.56
47.72
79.62
114.71
150.67
184.9
214.1
234.72
244.12
241.73
229.66
212.07
193.86
179.33
171.14
170.08
175.13
183.95
193.31
199.85
200.86
194.96
182.47
165.09
145.06
124.35
104.01
84.18
64.44
44.44
24.14
3.97
-15.5
-33.8
-50.69
-66.18
-80.49
-93.94
-106.78
-118.98
-129.97
-138.37
-142.04
-138.36
-125.06
-100.96
-66.71
-24.9
20.37
64.41
103.01
133.34
154.34
166.56
171.67
171.67
168.44
163.45
157.87
152.79
149.23
147.98
149.2
152.25
155.73
158.09
158.14
155.68
151.42
146.56
142.07
138.16
134.13
128.68
120.65
109.51
95.6
79.96
63.8
48.05
32.97
18.19
2.91
-13.74
-32.43
-53.34
-75.89
-98.39
-118.07
-131.41
-135.09
-127.28
-108.4
-81.34
-50.48
-20.14
6.81
29.71
49.68
68.49
87.15
105.09
120.19
129.63
130.96
123.05
106.48
83.28
56.28
28.22
1.14
-23.91
-46.58
-66.78
-84.31
-98.72
-109.49
-116.27
-119.01
-117.9
-113.14
-104.79
-92.86
-77.79
-60.84
-44.29
-31.2
-24.65
-26.91
-38.98
-60.44
-89.82
-124.92
-163.0
-200.77
-234.35
-259.63
-272.85
-271.37
-254.38
-223.04
-180.35
-130.47
-78.03
-27.37
18.07
55.99
85.32
105.98
118.43
123.35
121.5
113.84
101.74
87.18
72.48
59.85
50.85
46.05
44.99
46.51
49.08
51.27
52.07
50.98
48.11
43.86
38.82
33.42
27.88
22.33
16.88
11.8
7.33
3.59
0.18
-3.7
-9.2
-17.44
-29.2
-44.64
-63.21
-83.53
-103.26
-119.17
-127.43
-124.49
-108.13
-78.55
-38.75
6.0
49.62
86.84
114.47
131.77
139.97
141.13
137.22
129.6
119.19
106.76
93.41
80.58
69.69
61.83
57.36
55.83
56.25
57.46
58.4
58.38
57.07
54.36
50.35
45.24
39.36
33.16
27.04
21.34
16.23
11.69
7.61
3.81
0.03
-4.04
-8.73
-14.32
-20.92
-28.47
-36.82
-45.79
-55.13
-64.39
-72.62
-78.37
-80.04
-76.37
-67.09
-53.14
-36.43
-19.2
-3.3
10.21
21.05
29.35
35.27
38.8
39.79
38.25
34.5
29.22
23.24
17.34
11.99
7.36
3.4
0.04
-2.77
-5.09
-7.09
-9.2
-11.99
-15.95
-21.3
-27.86
-35.17
-42.78
-50.38
-57.94
-65.62
-73.49
-81.4
-88.92
-95.53
-100.77
-104.51
-107.09
-109.31
-112.22
-116.86
-123.8
-132.67
-141.91
-148.88
-150.39
-143.63
-127.16
-101.55
-69.44
-34.86
-2.14
25.31
45.81
59.43
67.56
72.04
74.53
76.08
77.27
78.33
79.46
80.88
82.66
84.66
86.43
87.35
86.85
84.63
80.74
75.56
69.64
63.48
57.35
51.19
44.61
37.05
28.01
17.35
5.41
-7.03
-18.95
-29.51
-38.21
-45.13
-50.92
-56.57
-63.24
-71.88
-82.93
-95.98
-109.52
-120.93
-127.05
-124.94
-112.94
-91.33
-62.43
-29.99
1.9
29.91
52.04
67.75
77.56
82.5
83.68
82.13
78.75
74.39
69.82
65.79
62.83
61.29
61.19
62.27
63.95
65.45
65.98
64.89
61.86
56.92
50.43
42.92
34.94
26.89
18.92
10.94
2.65
-6.2
-15.68
-25.57
-35.32
-44.26
-51.85
-57.94
-62.87
-67.4
-72.61
-79.65
-89.26
-101.29
-114.18
-124.82
-129.08
-123.0
-104.34
-73.72
-34.77
6.85
45.27
76.16
97.65
110.26
115.87
116.56
113.91
108.91
102.31
95.04
88.28
83.19
80.52
80.37
82.19
85.16
88.49
91.71
94.58
96.99
98.69
99.21
97.98
94.55
88.85
81.3
72.71
64.1
56.33
49.9
44.86
40.92
37.63
34.64
31.88
29.55
28.04
27.73
28.66
30.39
31.99
32.34
30.75
27.58
24.58
24.66
30.98
45.86
69.75
100.96
136.06
171.01
202.26
227.44
245.5
256.53
261.5
261.9
259.58
256.26
252.99
249.86
245.93
239.87
230.69
218.45
204.23
189.74
176.5
165.25
155.96
148.12
141.24
135.09
129.58
124.55
119.52
113.72
106.36
96.95
85.46
72.39
58.55
44.73
31.45
18.72
6.07
-7.26
-22.0
-38.6
-56.98
-76.65
-96.79
-116.59
-135.48
-153.29
-170.48
-188.11
-207.66
-230.47
-256.83
-285.12
-311.64
-331.48
-340.09
-335.09
-317.2
-290.07
-258.96
-229.22
-204.93
-188.58
-181.1
-182.17
-190.22
-202.41
-214.86
-223.5
-225.1
-218.2
-203.44
-183.01
-159.85
-136.77
-116.19
-99.93
-89.29
-84.94
-86.67
-92.91
-100.06
-102.8
-95.38
-73.96
-38.82
4.7
47.54
80.31
96.75
95.92
81.88
61.3
40.54
23.62
12.02
5.91
5.35
10.58
21.23
35.25
48.77
57.11
56.27
44.23
21.25
-10.43
-47.65
-87.08
-125.78
-161.22
-191.51
-215.55
-233.43
-246.62
-257.91
-270.67
-287.67
-310.1
-336.97
-364.95
-389.3
-405.08
-408.8
-399.56
-379.11
-351.17
-319.87
-288.19
-257.09
-225.64
-191.52
-152.27
-106.47
-55.05
-2.43
43.12
70.64
69.61
34.28
-32.69
-119.34
-207.47
-278.65
-320.58
-330.62
-314.97
-284.24
-248.16
-212.07
-176.86
-141.48
-105.88
-72.42
-44.82
-25.84
-15.17
-8.82
-0.65
15.25
42.38
81.11
128.92
181.73
234.58
282.4
320.52
345.45
356.13
354.95
347.78
342.16
344.16
355.4
372.1
386.7
391.56
382.67
361.5
334.22
308.45
289.72
279.4
274.85
271.56
265.72
255.96
243.63
231.68
223.0
219.06
219.3
221.02
219.92
211.13
190.81
157.48
113.16
63.62
17.43
-16.09
-29.8
-21.04
7.3
47.6
89.88
124.75
145.87
151.02
141.59
120.89
92.43
58.88
22.07
-16.08
-52.91
-85.02
-109.08
-123.06
-126.96
-122.51
-112.17
-98.26
-82.44
-66.13
-51.02
-39.3
-33.02
-33.11
-38.64
-47.16
-55.94
-63.47
-70.16
-77.99
-89.14
-104.72
-124.28
-146.29
-169.12
-191.81
-214.1
-235.7
-255.41
-270.86
-278.99
-277.33
-265.29
-244.7
-219.43
-194.05
-172.32
-156.1
-145.19
-138.09
-133.08
-129.09
-125.79
-123.12
-120.59
-117.01
-110.7
-100.24
-85.22
-66.41
-45.37
-23.67
-2.12
19.51
41.94
65.67
90.1
113.24
132.11
143.66
145.92
138.83
124.23
105.21
85.2
67.17
53.29
44.98
42.75
45.72
51.08
54.26
50.21
35.62
10.61
-20.82
-52.48
-78.79
-97.15
-108.4
-115.52
-121.18
-126.0
-128.59
-126.97
-120.2
-109.32
-96.76
-84.97
-75.13
-66.71
-58.0
-47.18
-33.02
-15.24
5.52
28.33
52.23
76.39
100.03
122.23
141.7
156.79
165.66
166.76
159.52
144.94
125.85
106.48
91.41
83.98
85.03
92.41
101.73
108.04
107.53
98.54
81.46
57.8
29.31
-2.39
-35.55
-67.69
-95.51
-115.56
-125.45
-124.98
-116.36
-103.44
-90.33
-80.0
-73.69
-71.03
-70.95
-72.44
-75.08
-78.95
-84.23
-90.84
-98.22
-105.54
-111.95
-116.89
-120.18
-122.01
-122.62
-122.23
-120.64
-117.27
-111.18
-101.41
-87.33
-68.82
-46.19
-19.7
10.66
44.91
82.28
120.21
154.03
177.81
186.27
176.73
150.28
111.36
66.22
21.05
-19.18
-50.86
-71.47
-79.17
-73.04
-53.57
-22.97
15.34
57.5
99.97
139.61
173.29
197.62
209.33
206.37
189.08
160.84
127.39
95.14
69.24
52.23
43.87
41.87
43.25
45.28
45.97
43.93
38.11
27.64
12.17
-7.79
-30.39
-52.38
-69.6
-78.18
-76.04
-63.89
-45.56
-26.81
-13.55
-9.65
-15.95
-30.46
-49.68
-70.31
-90.16
-108.26
-124.03
-136.71
-145.14
-148.31
-146.14
-139.71
-130.93
-121.54
-112.21
-102.27
-89.94
-73.29
-51.08
-23.21
9.5
45.79
84.48
124.4
164.0
200.85
231.52
252.3
260.29
254.7
237.21
211.6
182.43
153.53
127.1
103.6
82.35
62.37
43.06
24.23
5.97
-11.75
-29.1
-46.27
-63.32
-80.0
-95.85
-110.41
-123.34
-134.41
-143.29
-149.31
-151.52
-148.76
-140.03
-124.66
-102.53
-74.21
-41.31
-6.52
26.48
53.71
72.02
80.04
78.84
71.52
62.24
54.81
51.65
53.39
59.29
67.93
77.91
88.21
98.05
106.77
113.66
118.09
119.8
119.15
117.13
114.87
113.09
111.54
108.96
103.57
93.93
79.72
62.1
43.34
26.07
12.46
3.67
-0.26
-0.12
2.83
7.26
11.93
15.72
17.79
17.65
15.39
11.67
7.71
4.9
4.43
6.8
11.66
17.9
24.0
28.52
30.58
30.01
27.28
23.17
18.48
13.75
9.31
5.36
2.16
0.14
-0.18
1.58
5.51
11.14
17.51
23.38
27.48
28.88
27.19
22.6
15.94
8.47
1.64
-3.25
-5.38
-4.78
-2.46
-0.15
0.17
-3.18
-11.01
-23.15
-38.63
-55.93
-73.46
-89.8
-103.96
-115.41
-124.19
-130.91
-136.52
-141.84
-147.04
-151.19
-152.32
-148.06
-136.6
-117.61
-92.58
-64.43
-36.54
-11.6
8.94
24.98
37.18
46.29
52.77
56.83
58.68
58.84
58.21
57.73
58.21
60.04
63.15
67.1
71.37
75.52
79.39
83.08
86.8
90.7
94.59
97.87
99.74
99.48
96.91
92.52
87.41
82.76
79.42
77.55
76.68
76.03
74.96
73.19
70.8
68.14
65.55
63.38
61.84
61.01
60.73
60.44
59.26
56.24
50.67
42.5
32.38
21.56
11.36
2.86
-3.42
-7.43
-9.38
-9.4
-7.52
-3.62
2.24
9.71
18.02
25.96
32.09
35.04
33.82
28.11
18.36
5.73
-8.24
-21.94
-34.14
-44.12
-51.69
-57.08
-60.68
-62.88
-64.03
-64.41
-64.18
-63.37
-61.71
-58.77
-53.97
-46.84
-37.35
-26.08
-14.19
-3.22
5.37
10.65
12.41
11.2
8.01
3.8
-0.88
-6.1
-12.32
-19.93
-28.78
-38.02
-46.3
-52.32
-55.39
-55.73
-54.36
-52.52
-51.11
-50.35
-49.81
-48.79
-46.87
-44.05
-40.78
-37.54
-34.56
-31.63
-28.24
-23.91
-18.53
-12.55
-6.75
-1.95
1.42
3.43
4.62
5.64
6.96
8.69
10.61
12.38
13.68
14.36
14.34
13.65
12.38
10.74
9.03
7.6
6.68
6.31
6.28
6.27
6.0
5.36
4.44
3.44
2.57
1.93
1.46
0.93
-0.07
-2.1
-5.71
-11.23
-18.65
-27.49
-36.84
-45.55
-52.43
-56.55
-57.35
-54.76
-49.16
-41.24
-31.85
-21.87
-12.01
-2.78
5.49
12.63
18.63
23.63
27.89
31.78
35.56
39.33
42.84
45.61
47.14
47.09
45.48
42.67
39.24
35.73
32.57
29.98
28.04
26.76
26.03
25.68
25.41
24.84
23.57
21.38
18.22
14.3
9.97
5.66
1.69
-1.74
-4.61
-6.99
-9.07
-11.05
-13.17
-15.69
-18.89
-23.02
-28.11
-34.03
-40.31
-46.25
-51.07
-54.06
-54.78
-53.15
-49.42
-44.04
-37.49
-30.16
-22.35
-14.29
-6.22
1.51
8.44
14.15
18.34
20.97
22.21
22.46
22.13
21.6
21.13
20.87
20.93
21.33
22.08
23.11
24.31
25.48
26.44
27.02
27.08
26.53
25.35
23.64
21.59
19.53
17.76
16.54
15.88
15.6
15.34
14.68
13.34
11.15
8.19
4.62
0.65
-3.58
-8.04
-12.81
-18.05
-23.86
-30.13
-36.49
-42.32
-46.84
-49.37
-49.45
-47.0
-42.28
-35.76
-28.11
-19.97
-11.94
-4.56
1.8
6.96
10.89
13.67
15.51
16.6
17.18
17.53
17.89
18.4
19.12
19.89
20.53
20.84
20.78
20.38
19.8
19.13
18.39
17.62
16.86
16.23
15.79
15.55
15.35
14.98
14.23
13.06
11.51
9.67
7.6
5.32
2.76
-0.1
-3.23
-6.6
-10.14
-13.85
-17.71
-21.73
-25.86
-30.1
-34.36
-38.42
-41.93
-44.39
-45.28
-44.2
-41.05
-36.05
-29.7
-22.63
-15.39
-8.47
-2.12
3.47
8.23
12.08
14.99
17.03
18.31
19.13
19.81
20.68
21.95
23.71
25.84
28.12
30.29
32.1
33.41
34.16
34.36
34.06
33.31
32.19
30.77
29.14
27.41
25.66
23.9
22.1
20.17
18.03
15.64
12.97
9.99
6.67
3.02
-0.89
-4.91
-8.85
-12.54
-15.86
-18.85
-21.69
-24.65
-27.96
-31.71
-35.72
-39.52
-42.46
-43.9
-43.37
-40.79
-36.45
-30.96
-24.96
-18.97
-13.28
-7.96
-3.0
1.54
5.53
8.84
11.36
13.2
14.64
15.98
17.51
19.24
21.02
22.56
23.68
24.34
24.75
25.17
25.8
26.67
27.61
28.32
28.51
27.96
26.68
24.79
22.57
20.34
18.37
16.85
15.77
14.95
14.07
12.79
10.89
8.35
5.38
2.4
-0.17
-1.94
-2.82
-3.07
-3.36
-4.7
-8.14
-14.4
-23.48
-34.51
-45.92
-55.85
-62.7
-65.57
-64.46
-60.0
-53.19
-44.96
-36.05
-26.94
-17.94
-9.28
-1.19
6.07
12.32
17.38
21.14
23.58
24.74
24.73
23.68
21.78
19.19
16.16
12.98
10.04
7.71
6.32
5.91
6.28
6.99
7.52
7.5
6.76
5.4
3.68
1.85
0.07
-1.72
-3.65
-5.86
-8.37
-11.14
-13.99
-16.76
-19.39
-21.94
-24.62
-27.65
-31.26
-35.41
-39.9
-44.21
-47.61
-49.39
-48.98
-46.16
-41.09
-34.3
-26.49
-18.43
-10.75
-3.84
2.11
7.05
11.04
14.11
16.33
17.81
18.77
19.5
20.28
21.24
22.32
23.27
23.84
23.9
23.58
23.13
22.91
23.1
23.63
24.24
24.58
24.35
23.4
21.75
19.55
