-26.74
-30.05
-33.17
-36.47
-40.37
-45.17
-50.91
-57.05
-62.46
-65.56
-64.82
-59.35
-49.32
-35.95
-21.13
-6.8
5.65
15.57
22.98
28.18
31.51
33.19
33.43
32.55
30.99
29.28
27.87
27.06
26.96
27.48
28.49
29.79
31.18
32.47
33.43
33.88
33.6
32.46
30.36
27.35
23.58
19.36
15.04
10.87
6.98
3.23
-0.68
-5.03
-9.94
-15.28
-20.77
-26.01
-30.79
-35.1
-39.24
-43.74
-49.13
-55.71
-63.24
-70.72
-76.55
-78.91
-76.36
-68.41
-55.76
-40.15
-23.71
-8.34
4.71
14.99
22.67
28.16
31.85
34.08
35.06
35.05
34.35
33.35
32.44
31.92
31.97
32.58
33.62
34.89
36.2
37.39
38.33
38.9
38.85
37.92
35.87
32.66
28.52
23.89
19.25
14.97
11.1
7.39
3.45
-0.97
-5.83
-10.82
-15.53
-19.64
-23.13
-26.31
-29.71
-33.95
-39.48
-46.43
-54.39
-62.32
-68.58
-71.34
-69.1
-61.29
-48.53
-32.52
-15.57
0.16
13.22
23.08
29.91
34.32
36.88
37.97
37.84
36.72
34.93
32.93
31.19
30.07
29.72
30.08
30.86
31.74
32.49
32.92
33.0
32.71
31.98
30.75
28.89
26.34
23.09
19.25
15.0
10.46
5.72
0.79
-4.35
-9.65
-15.0
-20.17
-24.95
-29.19
-33.03
-36.8
-41.04
-46.28
-52.69
-59.82
-66.51
-71.06
-71.76
-67.47
-58.06
-44.56
-28.8
-12.85
1.61
13.62
22.91
29.68
34.27
36.95
37.88
37.23
35.33
32.68
29.91
27.68
26.39
26.21
26.93
28.15
29.43
30.45
31.01
31.1
30.71
29.83
28.38
26.26
23.41
19.85
15.62
10.78
5.43
-0.3
-6.18
-11.95
-17.37
-22.31
-26.86
-31.31
-36.08
-41.62
-48.19
-55.67
-63.36
-69.98
-73.87
-73.41
-67.67
-56.71
-41.75
-24.8
-7.99
6.99
19.22
28.56
35.32
39.92
42.66
43.74
43.41
41.99
39.94
37.76
35.89
34.63
34.1
34.31
35.12
36.29
37.53
38.52
38.94
38.58
37.32
35.16
32.22
28.64
24.56
20.14
15.41
10.39
5.1
-0.46
-6.22
-12.0
-17.58
-22.75
-27.38
-31.52
-35.47
-39.69
-44.75
-50.96
-58.04
-64.97
-70.07
-71.5
-67.89
-58.92
-45.47
-29.34
-12.64
2.85
15.96
26.27
33.79
38.78
41.57
42.52
42.02
40.51
38.48
36.37
34.57
33.3
32.68
32.64
33.09
33.84
34.75
35.7
36.56
37.12
37.1
36.2
34.21
31.16
27.28
22.91
18.38
13.8
9.13
4.24
-0.94
-6.3
-11.59
-16.45
-20.62
-24.06
-27.04
-30.0
-33.49
-38.03
-43.85
-50.71
-57.73
-63.48
-66.26
-64.62
-57.9
-46.51
-31.9
-16.11
-1.1
11.71
21.72
29.0
33.99
37.12
38.67
38.81
37.68
35.6
33.06
30.58
28.63
27.48
27.1
27.36
28.02
28.88
29.77
30.48
30.76
30.34
28.98
26.61
23.38
19.56
15.46
11.31
7.22
3.15
-1.0
-5.36
-10.0
-14.82
-19.63
-24.15
-28.13
-31.47
-34.39
-37.38
-41.08
-45.97
-52.03
-58.52
-63.98
-66.65
-64.99
-58.33
-47.15
-32.95
-17.73
-3.36
8.86
18.44
25.41
30.09
32.79
33.76
33.23
31.54
29.2
26.76
24.77
23.51
23.07
23.29
23.9
24.62
25.22
25.58
25.65
25.39
24.71
23.47
21.54
18.88
15.54
11.67
7.49
3.17
-1.15
-5.42
-9.61
-13.74
-17.81
-21.85
-25.88
-29.96
-34.21
-38.78
-43.86
-49.48
-55.28
-60.39
-63.47
-63.15
-58.43
-49.23
-36.52
-22.02
-7.64
5.08
15.33
22.98
28.29
31.64
33.27
33.39
32.22
30.13
27.65
25.27
23.41
22.28
21.91
22.2
23.0
24.12
25.33
26.34
26.84
26.54
25.28
23.08
20.12
16.71
13.2
9.82
6.68
3.69
0.65
-2.69
-6.49
-10.75
-15.31
-19.85
-24.06
-27.75
-30.98
-34.05
-37.48
-41.8
-47.34
-53.91
-60.66
-66.12
-68.55
-66.52
-59.44
-47.85
-33.28
-17.74
-3.11
9.37
19.19
26.42
31.39
34.41
35.7
35.47
34.05
31.88
29.51
27.47
26.12
25.61
25.86
26.68
27.82
29.07
30.24
31.17
31.63
31.4
30.28
28.19
25.25
21.73
18.0
14.37
10.94
7.57
3.99
-0.06
-4.69
-9.74
-14.87
-19.71
-23.98
-27.65
-30.98
-34.43
-38.53
-43.68
-49.97
-56.94
-63.56
-68.31
-69.63
-66.33
-58.17
-45.87
-30.98
-15.4
-0.86
11.52
21.24
28.3
32.99
35.59
36.41
35.72
33.92
31.5
29.04
27.07
25.97
25.82
26.43
27.47
28.6
29.58
30.31
30.75
30.78
30.22
28.81
26.36
22.89
18.68
14.1
9.6
5.4
1.51
-2.23
-6.0
-9.94
-14.04
-18.14
-22.07
-25.68
-28.96
-32.04
-35.22
-38.93
-43.62
-49.58
-56.61
-63.96
-70.15
-73.41
-72.2
-65.75
-54.52
-40.0
-24.28
-9.31
3.5
13.61
21.09
26.29
29.54
31.04
30.94
29.55
27.32
24.81
22.61
21.15
20.65
21.07
22.22
23.81
25.5
26.99
28.02
28.42
28.1
26.99
25.14
22.64
19.62
16.18
12.37
8.16
3.5
-1.57
-6.92
-12.19
-17.04
-21.2
-24.71
-27.87
-31.17
-35.18
-40.3
-46.58
-53.57
-60.32
-65.47
-67.52
-65.27
-58.2
-46.75
-32.26
-16.6
-1.64
11.19
21.22
28.36
32.95
35.42
36.17
35.47
33.67
31.22
28.68
26.67
25.6
25.71
26.85
28.66
30.71
32.56
33.91
34.56
34.4
33.36
31.42
28.63
25.12
21.14
16.91
12.61
8.26
3.82
-0.85
-5.82
-11.03
-16.3
-21.38
-26.06
-30.28
-34.19
-38.11
-42.45
-47.58
-53.55
-59.96
-65.75
-69.45
-69.44
-64.68
-54.99
-41.31
-25.4
-9.33
5.15
17.01
25.96
32.27
36.33
38.56
39.21
38.53
36.87
34.74
32.7
31.26
30.76
31.22
32.44
34.09
35.83
37.43
38.7
39.51
39.71
39.13
37.58
35.02
31.58
27.53
23.23
18.97
14.8
10.58
6.11
1.26
-3.98
-9.39
-14.74
-19.85
-24.68
-29.33
-34.02
-39.09
-44.84
-51.44
-58.61
-65.57
-71.02
-73.45
-71.75
-65.5
-55.33
-42.6
-29.09
-16.48
-6.03
1.52
5.98
7.54
6.77
4.45
1.53
-1.06
-2.56
-2.36
-0.05
4.59
11.52
20.44
30.66
41.22
51.07
59.45
66.16
71.59
76.52
81.62
87.16
92.81
98.04
102.58
106.74
111.34
117.2
124.72
133.64
143.22
152.47
160.38
165.87
167.63
164.21
154.4
137.95
116.03
91.23
66.8
45.73
29.77
19.07
12.53
8.5
5.53
2.74
-0.1
-2.92
-5.73
-8.8
-12.62
-17.59
-23.73
-30.59
-37.46
-43.63
-48.68
-52.38
-54.57
-54.89
-52.72
-47.46
-38.91
-27.51
-14.49
-1.51
9.85
18.54
24.35
27.83
29.92
31.47
32.91
34.1
34.47
33.29
29.94
24.1
15.92
6.07
-4.25
-13.43
-19.85
-22.45
-21.39
-18.23
-15.58
-16.15
-21.56
-31.51
-43.88
-55.51
-63.49
-66.26
-64.01
-58.3
-51.31
-44.94
-40.39
-38.09
-37.9
-39.47
-42.4
-46.34
-50.84
-55.34
-59.15
-61.58
-62.17
-60.85
-58.09
-54.65
-51.36
-48.71
-46.79
-45.28
-43.83
-42.28
-40.83
-39.91
-39.96
-41.13
-43.19
-45.57
-47.71
-49.27
-50.25
-50.96
-51.78
-52.84
-53.97
-54.67
-54.43
-53.0
-50.62
-48.01
-46.18
-46.02
-47.89
-51.41
-55.39
-58.22
-58.29
-54.62
-47.16
-36.86
-25.3
-14.15
-4.78
2.09
6.33
8.46
9.5
10.8
13.57
18.4
24.78
31.02
34.81
34.1
27.96
16.97
2.93
-11.98
-26.04
-38.47
-49.29
-58.86
-67.41
-74.93
-81.39
-87.01
-92.47
-98.68
-106.34
-115.45
-125.05
-133.36
-138.48
-139.17
-135.4
-128.42
-120.31
-113.19
-108.52
-106.73
-107.38
-109.66
-112.74
-115.82
-117.96
-117.79
-113.55
-103.61
-87.15
-64.77
-38.64
-11.89
12.25
31.49
44.97
53.18
57.36
58.66
57.78
54.93
50.26
44.27
37.99
32.75
29.65
29.05
30.51
33.02
35.53
37.39
38.51
39.09
39.4
39.42
38.86
37.39
34.69
30.63
25.22
18.6
10.95
2.55
-6.2
-14.82
-22.79
-29.76
-35.64
-40.71
-45.52
-50.81
-57.31
-65.51
-75.27
-85.61
-94.67
-100.03
-99.34
-91.18
-75.53
-53.88
-28.81
-3.2
20.52
40.78
56.94
69.04
77.38
82.4
84.46
84.01
81.66
78.22
74.65
71.88
70.59
71.01
72.89
75.66
78.57
80.95
82.35
82.55
81.54
79.42
76.34
72.4
67.62
61.88
55.07
47.16
38.32
28.98
19.73
11.11
3.4
-3.44
-9.75
-16.1
-23.14
-31.44
-41.29
-52.37
-63.57
-72.9
-77.86
-76.25
-66.89
-50.29
-28.61
-4.93
17.63
36.83
51.77
62.65
70.23
75.3
78.39
79.81
79.89
79.11
78.09
77.53
77.91
79.4
81.82
84.78
87.77
90.29
91.97
92.5
91.79
89.81
86.62
82.33
77.06
70.92
64.07
56.62
48.68
40.4
31.95
23.58
15.55
8.04
1.1
-5.42
-11.84
-18.63
-26.29
-35.07
-44.74
-54.38
-62.42
-66.87
-65.93
-58.59
-45.08
-26.87
-6.28
14.2
32.52
47.49
58.79
66.7
71.77
74.54
75.4
74.59
72.34
69.0
65.07
61.12
57.72
55.18
53.63
52.92
52.79
52.96
53.15
53.17
52.81
51.86
50.07
47.23
43.21
38.0
31.77
24.79
17.41
9.94
2.61
-4.41
-10.99
-16.97
-22.31
-27.07
-31.59
-36.43
-42.2
-49.22
-57.26
-65.27
-71.61
-74.41
-72.12
-64.12
-50.91
-34.0
-15.56
2.24
17.65
29.76
38.34
43.78
46.61
47.37
46.46
44.2
41.01
37.44
34.13
31.68
30.49
30.56
31.54
32.88
33.97
34.39
34.0
32.88
31.23
29.19
26.74
23.71
19.86
15.04
9.38
3.21
-2.97
-8.74
-13.83
-18.19
-22.0
-25.54
-29.22
-33.43
-38.56
-44.79
-51.94
-59.27
-65.44
-68.85
-68.01
-62.1
-51.29
-36.8
-20.53
-4.5
9.64
20.96
29.25
34.8
38.05
39.42
39.2
37.66
35.11
31.95
28.71
25.88
23.8
22.68
22.47
23.02
24.05
25.31
26.47
27.25
27.41
26.76
25.2
22.79
19.72
16.23
12.53
8.68
4.65
0.33
-4.3
-9.13
-13.94
-18.52
-22.75
-26.65
-30.42
-34.35
-38.72
-43.77
-49.55
-55.77
-61.67
-66.04
-67.46
-64.71
-57.34
-45.86
-31.72
-16.83
-3.0
8.54
17.29
23.35
27.16
29.14
29.65
28.98
27.45
25.45
23.39
21.58
20.22
19.36
18.93
18.82
18.95
19.25
19.65
20.05
20.33
20.29
19.75
18.53
16.59
13.99
10.91
7.57
4.15
0.76
-2.62
-6.05
-9.68
-13.5
-17.39
-21.17
-24.6
-27.59
-30.21
-32.8
-35.85
-39.86
-44.95
-50.7
-56.0
-59.3
-59.09
-54.45
-45.45
-33.18
-19.43
-6.14
5.15
13.65
19.33
22.62
24.11
24.29
23.49
21.91
19.79
17.44
15.25
13.57
12.59
12.32
12.61
13.28
14.11
14.96
15.67
16.04
15.9
15.07
13.56
11.42
8.86
6.05
3.07
-0.05
-3.39
-7.0
-10.81
-14.68
-18.41
-21.81
-24.75
-27.22
-29.35
-31.41
-33.8
-36.95
-41.13
-46.25
-51.64
-56.02
-57.85
-55.78
-49.29
-38.85
-25.91
-12.34
0.09
10.26
17.74
22.64
25.35
26.22
25.56
23.7
21.08
18.25
15.73
13.87
12.75
12.28
12.25
12.5
12.97
13.66
14.49
15.27
15.69
15.42
14.29
12.26
9.53
6.35
2.99
-0.39
-3.74
-7.05
-10.39
-13.8
-17.31
-20.92
-24.51
-27.97
-31.21
-34.24
-37.24
-40.6
-44.73
-49.89
-55.88
-61.83
-66.36
-67.86
-65.04
-57.48
-45.82
-31.59
-16.74
-3.07
8.26
16.77
22.56
25.99
27.47
27.39
26.12
24.09
21.75
19.54
17.78
16.64
16.14
16.18
16.63
17.37
18.3
19.32
20.32
21.11
21.43
20.99
19.52
16.91
13.33
9.13
4.83
0.85
-2.66
-5.88
-9.14
-12.75
-16.81
-21.15
-25.44
-29.37
-32.81
-35.89
-38.92
-42.37
-46.7
-52.14
-58.56
-65.26
-70.92
-73.85
-72.51
-66.0
-54.52
-39.4
-22.6
-6.29
7.83
18.88
26.71
31.77
34.64
35.89
35.87
34.85
33.12
31.0
28.93
27.29
26.35
26.17
26.62
27.48
28.57
29.79
31.04
32.17
32.79
32.49
30.86
27.81
23.55
18.64
13.64
8.95
4.62
0.37
-4.18
-9.3
-14.96
-20.86
-26.53
-31.56
-35.76
-39.3
-42.63
-46.43
-51.39
-57.9
-65.75
-74.0
-80.96
-84.66
-83.4
-76.36
-63.94
-47.7
-29.83
-12.5
2.7
15.06
24.53
31.44
36.08
38.63
39.2
38.11
35.92
33.4
31.36
30.31
30.44
31.61
33.53
35.88
38.36
40.62
42.31
43.02
42.51
40.74
37.89
34.32
30.32
26.07
21.54
16.61
11.2
5.33
-0.83
-7.0
-12.89
-18.33
-23.28
-27.91
-32.56
-37.72
-43.86
-51.22
-59.48
-67.58
-73.83
-76.21
-73.15
-64.08
-49.79
-32.16
-13.62
3.61
18.07
29.2
37.14
42.34
45.25
46.2
45.44
43.23
39.95
36.12
32.34
29.19
27.13
26.35
26.75
28.05
29.74
31.33
32.34
32.4
31.3
28.99
25.65
21.58
17.13
12.55
7.92
3.14
-1.92
-7.36
-13.11
-18.96
-24.67
-30.03
-34.99
-39.63
-44.22
-49.14
-54.84
-61.64
-69.46
-77.62
-84.62
-88.55
-87.55
-80.52
-67.66
-50.43
-31.13
-12.15
4.71
18.58
29.37
37.42
43.1
46.62
48.09
47.72
45.97
43.53
41.19
39.61
39.2
40.02
41.88
44.44
47.26
49.92
51.96
53.01
52.97
52.0
50.59
49.3
48.58
48.45
48.57
48.35
47.38
45.79
44.4
44.43
47.08
52.91
61.55
71.71
81.65
89.72
94.86
96.8
96.07
93.81
91.51
90.62
92.1
95.79
100.15
102.39
99.25
88.32
69.16
43.92
16.8
-7.33
-24.62
-33.45
-34.69
-30.87
-25.0
-19.54
-15.94
-14.79
-16.16
-19.98
-26.04
-33.85
-42.48
-50.71
-57.41
-61.9
-64.21
-65.05
-65.56
-67.01
-70.24
-75.36
-81.46
-86.8
-89.52
-88.39
-83.47
-76.02
-67.99
-60.97
-55.61
-51.43
-47.4
-42.75
-37.4
-32.01
-27.43
-24.2
-22.16
-20.61
-18.63
-15.44
-10.75
-4.75
2.01
8.86
15.18
20.65
25.11
28.57
31.04
32.45
32.67
31.6
29.3
26.03
22.25
18.51
15.22
12.64
10.71
9.3
8.19
7.3
6.66
6.38
6.53
7.02
7.61
7.91
7.61
6.52
4.69
2.36
-0.11
-2.33
-4.02
-5.09
-5.65
-5.94
-6.31
-7.09
-8.5
-10.63
-13.36
-16.39
-19.21
-21.21
-21.79
-20.49
-17.22
-12.3
-6.41
-0.41
4.95
9.15
11.99
13.46
13.64
12.59
10.38
7.17
3.23
-1.0
-5.03
-8.45
-11.04
-12.73
-13.62
-13.85
-13.6
-12.99
-12.07
-10.91
-9.61
-8.29
-7.17
-6.4
-6.1
-6.34
-7.06
-8.06
-9.11
-9.94
-10.34
-10.35
-10.17
-10.15
-10.58
-11.58
-12.97
-14.38
-15.4
-15.67
-15.0
-13.28
-10.42
-6.25
-0.65
6.38
14.66
23.77
33.2
42.39
50.87
58.23
64.18
68.47
70.96
71.72
71.13
69.84
68.54
67.64
66.87
65.26
61.44
54.31
43.58
30.01
15.18
0.82
-11.85
-22.53
-31.85
-41.07
-51.69
-65.11
-82.17
-102.93
-126.38
-150.56
-173.1
-192.02
-206.38
-216.44
-223.11
-227.18
-228.64
-226.65
-219.87
-207.14
-187.9
-162.33
-131.28
-96.14
-58.81
-21.6
12.99
42.66
65.76
81.55
90.22
92.67
90.18
84.23
76.33
67.96
60.42
54.6
50.9
49.24
49.3
50.55
52.39
54.13
54.98
54.39
52.17
48.71
44.82
41.42
39.08
37.78
36.88
35.43
32.64
28.15
22.13
15.1
7.59
-0.05
-7.77
-15.73
-24.27
-33.78
-44.58
-56.74
-69.82
-82.71
-93.59
-100.32
-101.0
-94.71
-81.99
-64.7
-45.45
-26.61
-9.67
5.01
17.81
29.26
39.44
47.88
53.85
56.9
57.19
55.59
53.28
51.33
50.35
50.34
50.81
51.16
50.98
50.26
49.31
48.49
47.91
47.24
45.74
42.64
37.46
30.41
22.31
14.3
7.38
1.99
-2.09
-5.53
-9.09
-13.29
-18.28
-23.81
-29.34
-34.06
-36.97
-37.03
-33.38
-25.67
-14.33
-0.55
13.99
27.62
39.09
47.83
53.86
57.51
59.15
58.99
57.16
53.79
49.27
44.32
39.82
36.59
35.08
35.2
36.34
37.61
38.23
37.76
36.31
34.33
32.4
30.93
29.89
28.78
26.82
23.34
18.14
11.69
4.9
-1.28
-6.39
-10.65
-14.75
-19.42
-25.0
-31.29
-37.8
-43.94
-49.14
-52.68
-53.61
-50.81
-43.35
-31.15
-15.16
2.72
20.29
35.79
48.37
57.95
64.88
69.37
71.32
70.53
67.05
61.54
55.2
49.47
45.42
43.41
42.98
43.12
42.89
41.71
39.65
37.1
34.5
32.04
29.55
26.72
23.21
18.89
13.61
7.27
-0.27
-8.84
-17.92
-26.52
-33.59
-38.5
-41.4
-43.26
-45.46
-49.26
-55.13
-62.62
-70.35
-76.39
-78.84
-76.33
-68.48
-56.0
-40.64
-24.66
-10.2
1.26
9.19
13.86
15.99
16.28
15.21
13.01
9.91
6.26
2.64
-0.23
-1.83
-1.91
-0.73
1.23
3.41
5.47
7.35
9.18
11.05
12.81
14.1
14.4
13.34
10.8
7.05
2.59
-2.0
-6.26
-9.93
-12.96
-15.5
-17.81
-20.26
-23.22
-27.11
-32.2
-38.44
-45.15
-50.99
-54.27
-53.42
-47.65
-37.33
-23.96
-9.66
3.45
13.97
21.37
25.93
28.34
29.15
28.67
26.98
24.11
20.36
16.3
12.66
10.18
9.27
9.9
11.59
13.65
15.42
16.51
16.88
16.72
16.29
15.73
14.99
13.86
12.08
9.37
5.58
0.66
-5.22
-11.64
-18.02
-23.75
-28.37
-31.74
-34.21
-36.41
-39.11
-42.92
-47.97
-53.86
-59.59
-63.68
-64.55
-60.99
-52.59
-40.02
-24.92
-9.44
4.43
15.39
23.09
27.89
30.46
31.39
30.99
29.42
26.91
23.87
20.86
18.42
16.87
16.19
16.18
16.58
17.21
18.04
19.07
20.2
21.14
21.5
20.93
19.25
16.51
12.89
8.65
3.99
-0.99
-6.15
-11.3
-16.19
-20.48
-23.97
-26.63
-28.62
-30.25
-31.91
-34.0
-36.87
-40.82
-45.86
-51.55
-56.83
-60.15
-59.86
-54.87
-45.07
-31.51
-16.14
-1.15
11.69
21.45
28.02
31.9
33.77
34.21
33.63
32.25
30.26
27.92
25.53
23.41
21.82
20.93
20.75
21.17
22.05
23.17
24.33
25.27
25.68
25.22
23.62
20.76
16.77
12.05
7.11
2.44
-1.71
-5.39
-8.85
-12.41
-16.23
-20.26
-24.21
-27.75
-30.68
-33.07
-35.29
-37.89
-41.47
-46.35
-52.34
-58.51
-63.32
-64.95
-61.95
-53.7
-40.78
-24.85
-8.11
7.35
20.09
29.51
35.7
39.1
40.28
39.7
37.72
34.74
31.21
27.6
24.36
21.79
20.05
19.13
18.96
19.31
19.98
20.69
21.2
21.27
20.76
19.6
17.8
15.45
12.59
9.27
5.49
1.27
-3.27
-7.96
-12.55
-16.84
-20.68
-24.07
-27.08
-29.9
-32.86
-36.4
-40.93
-46.63
-53.13
-59.33
-63.53
-63.94
-59.26
-49.27
-34.96
-18.25
-1.37
13.75
25.92
34.73
40.4
43.35
44.07
42.98
40.5
37.12
33.45
30.11
27.61
26.21
25.89
26.36
27.25
28.21
28.99
29.42
29.35
28.63
27.14
24.84
21.82
18.27
14.44
10.52
6.58
2.57
-1.63
-6.08
-10.78
-15.57
-20.28
-24.67
-28.62
-32.2
-35.61
-39.26
-43.64
-49.19
-56.0
-63.58
-70.74
-75.69
-76.57
-72.02
-61.83
-47.02
-29.68
-12.25
3.16
15.33
23.99
29.55
32.77
34.25
34.41
33.48
31.68
29.34
26.92
24.88
23.5
22.86
22.81
23.15
23.75
24.57
25.59
26.67
27.5
27.58
26.47
23.95
20.18
15.64
10.96
6.7
3.07
0.02
-2.74
-5.55
-8.61
-11.98
-15.53
-19.07
-22.44
-25.6
-28.73
-32.19
-36.44
-41.9
-48.58
-55.77
-62.07
-65.52
-64.29
-57.37
-45.04
-28.89
-11.29
5.37
19.39
30.03
37.35
41.84
44.03
44.31
43.02
40.55
37.45
34.37
31.83
30.06
29.03
28.58
28.56
28.93
29.73
30.93
32.37
33.64
34.18
33.51
31.37
27.84
23.28
18.18
13.04
8.2
3.75
-0.33
-4.23
-8.07
-11.9
-15.7
-19.4
-22.94
-26.29
-29.57
-32.94
-36.76
-41.37
-46.98
-53.31
-59.38
-63.58
-64.08
-59.52
-49.56
-35.17
-18.35
-1.51
13.29
24.85
32.91
37.86
40.41
41.2
40.67
39.09
36.72
33.84
30.87
28.22
26.31
25.36
25.38
26.14
27.25
28.34
29.08
29.27
28.72
27.33
24.98
21.61
17.37
12.46
7.26
1.96
-3.38
-8.99
-15.12
-21.91
-29.22
-36.67
-43.82
-50.26
-55.87
-60.7
-65.0
-69.05
-73.08
-77.09
-80.64
-82.83
-82.36
-77.95
-68.81
-55.04
-37.82
-19.05
-0.83
15.11
27.78
36.89
42.72
45.82
46.79
46.17
44.54
42.54
40.91
40.34
41.24
43.51
46.43
48.92
49.96
49.13
46.75
43.77
41.24
39.66
38.85
38.02
36.31
33.32
29.2
24.51
19.77
15.19
10.6
5.7
0.31
-5.39
-11.03
-16.18
-20.68
-24.77
-28.93
-33.75
-39.78
-47.23
-55.9
-64.96
-73.02
-78.24
-78.9
-73.88
-63.22
-48.09
-30.56
-12.83
3.29
16.77
27.36
35.21
40.58
43.66
44.66
43.91
41.92
39.39
36.99
35.2
34.29
34.26
34.99
36.28
37.93
39.72
41.43
42.82
43.62
43.54
42.39
40.11
36.85
32.91
28.63
24.3
20.0
15.72
11.35
6.92
2.57
-1.45
-4.86
-7.55
-9.53
-11.12
-12.78
-15.15
-18.83
-24.17
-31.07
-38.63
-45.31
-49.21
-48.76
-43.27
-33.29
-20.54
-7.19
4.72
14.01
20.38
24.25
26.22
26.72
25.85
23.57
19.98
15.48
10.82
6.82
4.18
3.22
3.84
5.68
8.16
10.73
12.92
14.38
14.89
14.41
12.99
10.72
7.76
4.2
0.09
-4.51
-9.43
-14.44
-19.2
-23.38
-26.78
-29.41
-31.47
-33.37
-35.63
-38.77
-43.19
-48.87
-55.28
-61.15
-64.75
-64.31
-58.66
-47.7
-32.53
-15.2
1.99
17.12
29.13
37.8
43.51
46.79
48.11
47.82
46.26
43.86
41.16
38.61
36.52
34.91
33.67
32.68
31.88
31.29
30.83
30.33
29.42
27.76
25.12
21.52
17.18
12.4
7.41
2.28
-3.04
-8.68
-14.65
-20.89
-27.14
-33.06
-38.31
-42.69
-46.24
-49.29
-52.41
-56.2
-61.12
-67.12
-73.45
-78.63
-80.8
-78.23
-70.0
-56.39
-38.9
-19.81
-1.5
14.24
26.49
35.19
40.79
43.93
45.07
44.59
42.79
40.05
36.89
33.9
31.66
30.57
30.82
32.26
34.48
36.92
38.95
40.11
40.11
38.98
36.87
34.06
30.72
26.98
22.81
18.21
13.2
7.85
2.33
-3.19
-8.55
-13.62
-18.27
-22.53
-26.51
-30.48
-34.88
-40.11
-46.41
-53.58
-60.77
-66.51
-69.04
-66.82
-59.13
-46.44
-30.32
-12.97
3.37
17.1
27.48
34.56
38.82
40.79
40.92
39.49
36.84
33.38
29.7
26.45
24.14
23.11
23.35
24.57
26.27
27.89
28.99
29.29
28.76
27.54
25.8
23.68
21.16
18.13
14.47
10.15
5.3
0.2
-4.8
-9.42
-13.52
-17.15
-20.48
-23.81
-27.44
-31.68
-36.81
-42.99
-50.09
-57.48
-63.93
-67.72
-67.17
-61.25
-50.06
-34.97
-18.19
-2.01
11.85
22.63
30.46
35.86
39.35
41.18
41.41
40.05
37.37
33.87
30.21
27.06
24.9
23.95
24.19
25.33
26.93
28.48
29.5
29.68
28.93
27.32
25.05
22.28
19.03
15.25
10.87
5.91
0.52
-5.01
-10.4
-15.43
-20.03
-24.29
-28.42
-32.66
-37.34
-42.74
-49.0
-55.91
-62.72
-68.08
-70.35
-68.07
-60.55
-48.22
-32.58
-15.79
0.04
13.37
23.57
30.76
35.48
38.32
39.65
39.65
38.44
36.24
33.47
30.69
28.38
26.9
26.37
26.63
27.42
28.38
29.21
29.65
29.54
28.75
27.23
25.01
22.1
18.55
14.46
9.91
5.03
-0.01
-5.05
-9.91
-14.48
-18.72
-22.64
-26.31
-29.88
-33.56
-37.64
-42.45
-48.11
-54.39
-60.43
-64.81
-65.87
-62.29
-53.59
-40.48
-24.64
-8.23
6.8
19.17
28.37
34.59
38.24
39.83
39.82
38.58
36.52
34.04
31.59
29.51
28.12
27.58
27.91
29.02
30.61
32.31
33.75
34.61
34.64
33.68
31.63
28.55
24.62
20.17
15.6
11.22
7.14
3.2
-0.83
-5.16
-9.78
-14.45
-18.81
-22.56
-25.6
-28.12
-30.57
-33.47
-37.35
-42.5
-48.75
-55.35
-60.92
-63.71
-62.15
-55.36
-43.64
-28.49
-12.19
2.95
15.24
24.04
29.58
32.58
33.79
33.62
32.26
29.79
26.53
23.07
20.13
18.32
17.93
18.76
20.33
21.98
23.15
23.6
23.29
22.37
21.01
19.26
17.12
14.45
11.22
