18.92
17.37
15.72
14.25
13.11
12.29
11.71
11.25
10.77
10.15
9.25
7.86
5.86
3.21
0.05
-3.29
-6.5
-9.34
-11.71
-13.62
-15.16
-16.44
-17.56
-18.7
-20.04
-21.79
-24.03
-26.67
-29.39
-31.74
-33.3
-33.79
-33.19
-31.67
-29.51
-26.91
-23.97
-20.7
-17.04
-13.07
-9.05
-5.36
-2.43
-0.5
0.45
0.74
0.86
1.27
2.2
3.61
5.23
6.78
8.14
9.37
10.64
12.02
13.42
14.61
15.29
15.34
14.87
14.12
13.37
12.74
12.14
11.27
9.85
7.71
4.92
1.73
-1.57
-4.66
-7.36
-9.57
-11.2
-12.15
-12.28
-11.5
-9.84
-7.52
-4.86
-2.25
0.07
1.98
3.54
4.86
6.0
6.94
7.6
7.97
8.09
8.09
8.12
8.24
8.38
8.4
8.22
7.89
7.58
7.5
7.78
8.36
9.01
9.39
9.14
8.08
6.24
3.79
1.01
-1.84
-4.55
-7.08
-9.5
-11.9
-14.35
-16.79
-19.02
-20.76
-21.75
-21.83
-21.08
-19.7
-17.95
-16.03
-14.02
-11.87
-9.48
-6.81
-3.9
-0.88
2.1
4.95
7.59
9.98
12.06
13.77
15.07
15.93
16.35
16.37
16.02
15.3
14.26
12.98
11.58
10.18
8.88
7.69
6.55
5.38
4.15
2.84
1.47
0.02
-1.55
-3.37
-5.58
-8.27
-11.43
-14.96
-18.58
-21.92
-24.58
-26.19
-26.53
-25.56
-23.38
-20.24
-16.4
-12.15
-7.71
-3.32
0.78
4.42
7.39
9.62
11.12
11.99
12.37
12.42
12.31
12.15
12.01
11.88
11.76
11.65
11.6
11.57
11.52
11.28
10.71
9.66
8.09
6.1
3.88
1.64
-0.47
-2.34
-3.96
-5.32
-6.45
-7.5
-8.61
-10.01
-11.8
-13.92
-16.05
-17.75
-18.55
-18.16
-16.55
-13.91
-10.57
-6.86
-3.02
0.78
4.44
7.82
10.77
13.17
14.96
16.17
16.94
17.47
17.98
18.59
19.27
19.91
20.25
20.09
19.36
18.13
16.67
15.26
14.06
13.1
12.25
11.28
10.07
8.58
6.87
5.12
3.51
2.23
1.33
0.84
0.6
0.38
-0.15
-1.26
-3.14
-5.76
-8.87
-12.02
-14.71
-16.49
-17.05
-16.26
-14.16
-10.9
-6.71
-1.85
3.39
8.66
13.58
17.8
21.02
23.04
23.87
23.62
22.49
20.77
18.74
16.65
14.68
12.97
11.6
10.66
10.18
10.15
10.45
10.9
11.21
11.19
10.71
9.84
8.68
7.34
5.84
4.18
2.36
0.46
-1.39
-3.02
-4.38
-5.56
-6.71
-8.0
-9.52
-11.2
-12.85
-14.13
-14.69
-14.25
-12.64
-9.82
-5.89
-1.04
4.42
10.09
15.56
20.43
24.42
27.5
29.82
31.73
33.56
35.52
37.65
39.82
41.86
43.63
45.12
46.33
47.3
48.01
48.47
48.67
48.62
48.36
47.79
46.67
44.66
41.39
36.63
30.44
23.18
15.42
7.81
0.93
-4.88
-9.49
-13.04
-15.81
-18.15
-20.42
-23.01
-26.28
-30.51
-35.79
-41.85
-47.96
-53.09
-56.21
-56.66
-54.56
-50.68
-46.22
-42.22
-39.2
-37.06
-35.34
-33.55
-31.53
-29.41
-27.51
-26.05
-25.03
-24.24
-23.42
-22.46
-21.42
-20.52
-19.95
-19.73
-19.65
-19.35
-18.51
-16.98
-14.83
-12.3
-9.74
-7.55
-6.06
-5.62
-6.58
-9.14
-13.28
-18.65
-24.58
-30.27
-35.04
-38.54
-40.89
-42.66
-44.64
-47.57
-51.75
-56.77
-61.54
-64.58
-64.55
-60.82
-53.64
-44.05
-33.43
-23.06
-13.7
-5.7
0.88
6.04
9.75
12.06
13.21
13.63
13.87
14.37
15.28
16.39
17.17
17.07
15.6
12.58
8.14
2.62
-3.43
-9.53
-15.31
-20.48
-24.8
-27.96
-29.56
-29.27
-27.07
-23.35
-19.04
-15.3
-13.15
-13.14
-15.12
-18.29
-21.37
-22.86
-21.18
-14.92
-3.15
14.14
35.64
58.66
79.52
94.47
100.71
97.36
85.66
68.59
49.99
33.49
21.67
15.65
15.13
18.59
23.9
28.71
30.95
29.17
22.76
12.06
-1.7
-16.55
-30.16
-40.34
-45.49
-45.07
-39.77
-31.3
-21.87
-13.43
-7.16
-3.19
-0.9
0.46
1.33
1.65
1.1
-0.47
-2.68
-4.73
-5.73
-5.17
-3.13
-0.18
3.01
5.89
8.15
9.62
10.11
9.41
7.46
4.52
1.29
-1.32
-2.46
-1.81
0.39
3.36
6.25
8.48
9.92
10.83
11.55
12.23
12.63
12.33
10.91
8.24
4.62
0.67
-2.89
-5.44
-6.53
-6.0
-3.88
-0.42
3.93
8.56
12.73
15.75
17.16
16.81
14.85
11.71
7.95
4.04
0.32
-3.11
-6.31
-9.45
-12.63
-15.87
-19.12
-22.34
-25.58
-28.96
-32.74
-37.16
-42.34
-48.03
-53.48
-57.44
-58.35
-54.81
-46.2
-33.09
-17.23
-1.05
13.2
24.09
31.41
35.83
38.36
39.78
40.34
39.97
38.62
36.52
34.22
32.38
31.44
31.48
32.14
32.92
33.38
33.25
32.55
31.39
29.9
28.11
25.93
23.22
19.89
15.94
11.38
6.29
0.76
-5.09
-11.12
-17.05
-22.56
-27.27
-30.88
-33.26
-34.52
-35.0
-35.3
-36.13
-38.13
-41.58
-46.15
-50.8
-53.9
-53.72
-49.08
-39.82
-27.0
-12.53
1.47
13.36
22.36
28.61
32.75
35.45
37.16
37.99
37.91
36.97
35.44
33.7
32.13
30.94
30.06
29.32
28.46
27.31
25.84
24.11
22.21
20.16
17.97
15.61
13.05
10.33
7.53
4.68
1.86
-1.0
-3.99
-7.21
-10.72
-14.46
-18.26
-21.89
-25.08
-27.66
-29.65
-31.25
-32.9
-35.07
-38.04
-41.56
-44.82
-46.51
-45.24
-40.17
-31.33
-19.79
-7.28
4.39
13.95
20.88
25.33
27.8
28.71
28.27
26.57
23.75
20.26
16.8
14.1
12.67
12.6
13.6
15.12
16.62
17.68
18.12
17.94
17.26
16.24
15.01
13.64
12.13
10.3
7.92
4.78
0.82
-3.82
-8.78
-13.6
-17.94
-21.6
-24.67
-27.42
-30.24
-33.46
-37.34
-41.91
-47.0
-52.07
-56.21
-58.2
-56.84
-51.3
-41.61
-28.73
-14.36
-0.4
11.6
20.94
27.72
32.54
36.03
38.51
39.88
39.96
38.67
36.25
33.29
30.43
28.21
26.8
26.04
25.53
24.88
23.84
22.41
20.78
19.18
17.75
16.47
15.15
13.62
11.77
9.62
7.3
4.94
2.6
0.24
-2.24
-4.92
-7.75
-10.55
-13.15
-15.46
-17.49
-19.44
-21.51
-23.85
-26.38
-28.78
-30.44
-30.71
-29.07
-25.35
-19.82
-13.2
-6.36
-0.13
4.97
8.75
11.39
13.14
14.24
14.81
14.88
14.5
13.8
13.01
12.36
12.03
12.02
12.24
12.49
12.63
12.6
12.41
12.07
11.57
10.92
10.12
9.23
8.33
7.48
6.68
5.8
4.66
3.12
1.16
-1.1
-3.43
-5.55
-7.31
-8.66
-9.68
-10.62
-11.76
-13.38
-15.57
-18.15
-20.73
-22.77
-23.73
-23.29
-21.39
-18.26
-14.35
-10.17
-6.17
-2.64
0.26
2.59
4.43
5.92
7.15
8.13
8.88
9.43
9.86
10.3
10.87
11.59
12.4
13.13
13.65
13.89
13.92
13.9
13.98
14.21
14.44
14.46
14.04
13.07
11.64
9.99
8.35
6.84
5.47
4.09
2.58
0.9
-0.89
-2.65
-4.27
-5.72
-7.1
-8.57
-10.31
-12.41
-14.81
-17.3
-19.48
-20.97
-21.39
-20.56
-18.54
-15.62
-12.24
-8.84
-5.75
-3.08
-0.79
1.24
3.12
4.91
6.5
7.74
8.51
8.83
8.84
8.79
8.93
9.36
10.01
10.71
11.24
11.48
11.46
11.32
11.22
11.27
11.44
11.57
11.4
10.74
9.45
7.61
5.46
3.24
1.26
-0.36
-1.59
-2.56
-3.45
-4.51
-6.01
-8.15
-11.03
-14.54
-18.33
-21.83
-24.46
-25.77
-25.54
-23.82
-20.89
-17.16
-13.16
-9.39
-6.27
-4.03
-2.62
-1.81
-1.27
-0.76
-0.33
-0.22
-0.7
-1.85
-3.45
-5.03
-6.17
-6.67
-6.71
-6.72
-7.19
-8.37
-10.27
-12.7
-15.4
-18.26
-21.26
-24.44
-27.94
-31.92
-36.55
-42.04
-48.43
-55.66
-63.51
-71.68
-79.88
-87.94
-95.64
-102.68
-108.67
-113.33
-116.61
-118.94
-120.93
-123.1
-125.56
-127.94
-129.65
-130.36
-130.2
-129.75
-129.74
-130.52
-132.04
-134.0
-136.26
-139.09
-142.97
-148.0
-153.38
-157.33
-157.47
-151.62
-138.55
-118.39
-92.63
-63.76
-34.63
-7.88
14.72
32.76
47.23
60.05
73.2
87.6
102.48
115.56
123.9
125.17
118.44
104.33
84.56
61.2
36.14
10.98
-12.96
-34.5
-52.82
-67.72
-79.73
-89.7
-98.18
-104.78
-107.87
-105.09
-94.26
-74.47
-46.67
-13.56
21.27
54.47
83.93
108.95
129.87
147.28
161.31
171.57
177.52
179.17
177.45
174.2
171.6
171.45
174.54
180.46
187.76
194.42
198.47
198.52
194.15
185.99
175.45
164.08
152.96
142.28
131.36
119.28
105.43
90.05
74.13
58.93
45.44
33.93
24.02
14.91
5.76
-4.08
-14.89
-26.44
-37.93
-48.0
-54.91
-56.94
-52.93
-42.68
-27.1
-7.98
12.45
32.06
49.23
62.94
72.82
78.86
81.43
81.03
78.37
74.33
69.85
65.85
62.98
61.48
61.06
61.09
60.87
60.0
58.46
56.51
54.48
52.42
50.04
46.76
42.04
35.59
27.55
18.48
9.16
0.42
-7.21
-13.61
-19.15
-24.57
-30.74
-38.32
-47.44
-57.46
-66.88
-73.63
-75.54
-71.01
-59.63
-42.34
-21.25
0.99
21.85
39.61
53.39
63.09
69.07
71.84
71.95
70.01
66.73
62.86
59.09
55.89
53.41
51.55
49.99
48.39
46.49
44.23
41.72
39.08
36.3
33.14
29.14
23.8
16.88
8.54
-0.53
-9.37
-17.09
-23.24
-27.99
-32.13
-36.79
-42.95
-51.1
-60.85
-70.96
-79.58
-84.67
-84.62
-78.65
-67.11
-51.31
-33.25
-15.11
1.25
14.59
24.41
30.77
34.07
34.81
33.48
30.58
26.67
22.43
18.56
15.67
14.05
13.6
13.96
14.72
15.56
16.36
17.04
17.49
17.39
16.28
13.71
9.45
3.6
-3.34
-10.65
-17.64
-23.83
-29.2
-34.11
-39.23
-45.26
-52.63
-61.17
-69.93
-77.27
-81.19
-79.93
-72.54
-59.28
-41.65
-22.0
-2.85
13.79
26.83
36.03
41.73
44.42
44.52
42.36
38.38
33.29
28.03
23.59
20.62
19.29
19.22
19.75
20.22
20.28
19.91
19.25
18.42
17.28
15.45
12.5
8.14
2.4
-4.32
-11.41
-18.26
-24.44
-29.84
-34.74
-39.66
-45.29
-52.18
-60.44
-69.41
-77.6
-82.87
-83.06
-76.7
-63.67
-45.33
-24.12
-2.81
16.27
31.69
43.04
50.54
54.72
56.14
55.26
52.59
48.74
44.46
40.54
37.61
36.04
35.76
36.37
37.19
37.64
37.3
36.11
34.29
32.16
29.86
27.2
23.78
19.07
12.86
5.4
-2.63
-10.32
-16.92
-22.14
-26.3
-30.07
-34.33
-39.75
-46.66
-54.94
-63.93
-72.46
-78.92
-81.55
-78.9
-70.4
-56.61
-39.21
-20.58
-3.01
11.81
23.15
31.07
36.05
38.58
38.99
37.49
34.33
30.01
25.27
20.98
17.86
16.29
16.18
17.07
18.35
19.44
20.02
20.02
19.52
18.64
17.36
15.58
13.13
9.89
5.8
0.92
-4.59
-10.5
-16.5
-22.26
-27.53
-32.23
-36.47
-40.62
-45.16
-50.52
-56.92
-64.15
-71.39
-77.21
-79.85
-77.58
-69.42
-55.45
-37.06
-16.56
3.46
20.79
34.14
43.24
48.57
50.97
51.18
49.77
47.09
43.45
39.2
34.86
31.04
28.27
26.89
26.92
28.0
29.61
31.2
32.33
32.75
32.34
31.07
28.87
25.66
21.37
16.0
9.69
2.71
-4.58
-11.79
-18.59
-24.75
-30.2
-34.99
-39.34
-43.59
-48.17
-53.54
-60.01
-67.54
-75.49
-82.56
-87.01
-87.05
-81.56
-70.45
-54.81
-36.62
-18.21
-1.49
12.3
22.72
29.89
34.12
35.76
35.15
32.69
28.95
24.68
20.65
17.56
15.79
15.42
16.17
17.6
19.22
20.61
21.48
21.68
21.17
20.01
18.24
15.86
12.82
9.03
4.46
-0.81
-6.56
-12.42
-17.95
-22.86
-27.09
-30.9
-34.79
-39.32
-44.88
-51.52
-58.74
-65.55
-70.59
-72.39
-69.84
-62.48
-50.81
-36.12
-20.3
-5.2
7.73
17.72
24.66
28.84
30.75
30.78
29.37
26.91
23.92
21.01
18.71
17.44
17.29
18.12
19.55
21.17
22.61
23.62
24.06
23.77
22.63
20.54
17.5
13.66
9.28
4.68
0.03
-4.6
-9.33
-14.25
-19.32
-24.37
-29.17
-33.53
-37.42
-41.01
-44.57
-48.46
-52.98
-58.3
-64.22
-70.03
-74.46
-75.86
-72.75
-64.35
-51.03
-34.3
-16.38
0.43
14.52
25.09
32.15
36.11
37.55
36.97
34.86
31.7
28.01
24.39
21.33
19.26
18.35
18.6
19.78
21.52
23.38
24.91
25.85
26.04
25.46
24.08
21.86
18.76
14.79
10.11
4.99
-0.28
-5.52
-10.71
-15.96
-21.36
-26.84
-32.18
-37.04
-41.28
-44.93
-48.41
-52.29
-57.13
-63.25
-70.4
-77.59
-83.18
-85.23
-82.02
-72.76
-57.88
-39.04
-18.67
0.78
17.42
30.34
39.4
45.01
47.68
47.95
46.31
43.34
39.73
36.2
33.44
31.81
31.43
32.08
33.39
34.94
36.39
37.5
38.08
37.98
37.06
35.17
32.17
28.12
23.24
17.87
12.45
7.28
2.44
-2.22
-6.96
-11.97
-17.24
-22.45
-27.19
-31.13
-34.24
-36.83
-39.5
-42.96
-47.78
-54.14
-61.61
-69.05
-74.75
-76.74
-73.41
-64.11
-49.51
-31.37
-12.18
5.62
20.33
31.16
38.19
42.02
43.39
42.89
40.97
37.98
34.36
30.64
27.47
25.44
24.84
25.69
27.61
30.06
32.4
34.14
34.97
34.79
33.66
31.72
29.15
26.11
22.71
18.95
14.74
9.94
4.44
-1.73
-8.36
-15.1
-21.56
-27.39
-32.46
-36.81
-40.76
-44.77
-49.39
-54.99
-61.43
-67.89
-72.85
-74.44
-71.01
-61.83
-47.45
-29.68
-10.97
6.3
20.44
30.82
37.58
41.33
42.71
42.21
40.17
36.97
33.16
29.41
26.4
24.64
24.3
25.25
27.08
29.33
31.51
33.26
34.31
34.47
33.59
31.62
28.6
24.67
20.04
14.95
9.57
3.99
-1.8
-7.84
-14.09
-20.4
-26.55
-32.23
-37.27
-41.7
-45.9
-50.46
-56.04
-62.96
-70.85
-78.51
-84.04
-85.36
-80.94
-70.36
-54.57
-35.66
-16.16
1.7
16.48
27.7
35.65
40.87
43.88
45.04
44.6
42.89
40.43
37.9
35.98
35.14
35.5
36.82
38.63
40.44
41.94
42.91
43.28
42.94
41.72
39.4
35.91
31.42
26.31
21.07
16.08
11.47
7.03
2.45
-2.62
-8.33
-14.53
-20.89
-26.97
-32.43
-37.17
-41.49
-45.92
-51.21
-57.86
-65.73
-73.77
-80.13
-82.63
-79.51
-70.16
-55.41
-37.26
-18.25
-0.6
14.22
25.69
33.92
39.31
42.22
42.99
42.02
39.82
37.12
34.64
32.97
32.42
32.94
34.3
36.14
38.18
40.19
42.05
43.55
44.47
44.53
43.53
41.37
38.18
34.26
29.95
25.54
21.11
16.56
11.73
6.56
1.17
-4.16
-9.03
-13.22
-16.77
-20.11
-23.91
-28.92
-35.69
-44.38
-54.58
-65.18
-74.54
-80.67
-81.77
-76.74
-65.61
-49.65
-31.05
-12.37
4.23
17.39
26.81
32.88
36.41
38.2
38.83
38.68
37.97
36.97
35.97
35.32
35.28
35.9
37.02
38.29
39.34
39.86
39.74
38.94
37.54
35.56
32.98
29.85
26.22
22.23
17.98
13.58
9.03
4.24
-0.89
-6.54
-12.79
-19.75
-27.33
-35.37
-43.6
-51.85
-60.13
-68.7
-77.85
-87.42
-96.54
-103.59
-106.59
-103.94
-95.11
-80.91
-63.29
-44.67
-27.17
-12.14
-0.03
9.26
16.1
20.8
23.55
24.59
24.22
23.02
21.71
20.99
21.39
23.13
26.08
29.82
33.8
37.44
40.27
41.99
42.49
41.83
40.14
37.6
34.35
30.46
25.93
20.79
15.14
9.16
3.17
-2.55
-7.8
-12.59
-17.07
-21.55
-26.36
-31.8
-38.12
-45.38
-53.31
-61.12
-67.41
-70.44
-68.61
-61.05
-48.11
-31.33
-13.08
4.23
18.79
29.77
37.26
41.89
44.42
45.51
45.53
44.77
43.48
41.9
40.36
39.17
38.64
38.93
40.06
41.89
44.12
46.35
48.16
49.11
48.89
47.29
44.32
40.21
35.43
30.51
25.87
21.69
17.8
13.78
9.13
3.48
-3.19
-10.56
-18.11
-25.3
-31.87
-37.89
-43.79
-50.17
-57.51
-65.86
-74.54
-82.11
-86.62
-86.18
-79.58
-66.88
-49.47
-29.79
-10.54
6.06
18.8
27.55
32.9
35.72
36.74
36.5
35.41
33.85
32.28
31.04
30.39
30.35
30.82
31.6
32.57
33.64
34.73
35.73
36.48
36.75
36.31
34.99
32.67
29.41
25.41
20.92
16.23
11.46
6.64
1.67
-3.51
-8.84
-14.06
-18.88
-23.07
-26.65
-29.91
-33.37
-37.64
-43.2
-50.15
-58.0
-65.56
-71.15
-72.92
-69.51
-60.54
-46.86
-30.39
-13.4
2.06
14.7
24.13
30.64
34.75
36.94
37.53
36.75
34.96
32.65
30.43
28.83
28.2
28.58
29.76
31.44
33.28
35.02
36.47
37.39
37.54
36.67
34.61
31.36
27.22
22.61
17.98
13.62
9.57
5.61
1.47
-3.02
-7.86
-12.78
-17.5
-21.8
-25.67
-29.33
-33.16
-37.64
-43.11
-49.73
-57.23
-64.9
-71.48
-75.43
-75.39
-70.54
-61.06
-48.07
-33.35
-18.74
-5.58
5.57
14.87
22.86
29.93
36.1
40.89
43.73
44.29
42.83
40.2
37.6
36.02
36.0
37.39
39.65
42.09
44.25
45.98
47.26
48.11
48.41
47.97
46.61
44.28
41.0
36.85
31.88
26.13
19.74
13.0
6.37
0.29
-4.88
-8.99
-12.12
-14.51
-16.51
-18.47
-20.6
-22.78
-24.41
-24.45
-21.63
-14.9
-3.85
10.98
28.17
45.81
62.15
76.14
87.66
97.4
106.38
115.48
125.04
134.82
144.3
152.92
160.37
166.68
172.1
176.94
181.45
185.76
189.7
192.66
193.41
190.13
180.87
164.18
139.89
109.38
75.34
40.95
8.97
-19.0
-42.58
-62.22
-78.7
-92.56
-103.9
-112.56
-118.31
-121.18
-121.51
-120.03
-117.63
-115.26
-113.67
-113.33
-114.31
-116.33
-118.77
-120.93
-121.95
-121.09
-117.75
-111.65
-102.91
-92.07
-79.94
-67.36
-55.09
-43.64
-33.32
-24.27
-16.47
-9.8
-4.03
1.12
5.91
10.47
14.83
18.94
22.81
26.55
30.4
34.71
39.71
45.46
51.7
58.0
63.72
68.16
70.68
70.81
68.41
63.8
57.76
51.26
45.22
40.08
35.81
32.05
28.53
25.44
23.37
23.01
24.58
27.45
30.16
30.75
27.42
19.11
5.91
-10.84
-28.78
-45.16
-57.5
-64.34
-65.57
-62.33
-56.47
-49.76
-43.34
-37.56
-32.36
-27.66
-23.68
-20.91
-19.89
-20.87
-23.77
-28.21
-33.65
-39.57
-45.58
-51.35
-56.62
-61.14
-64.61
-66.71
-67.17
-65.82
-62.85
-58.79
-54.59
-51.28
-49.69
-50.25
-52.82
-56.89
-61.81
-66.93
-71.68
-75.68
-78.71
-80.75
-81.96
-82.69
-83.27
-84.0
-85.04
-86.48
-88.36
-90.64
-93.1
-95.19
-96.1
-94.9
-90.94
-84.09
-74.87
-64.29
-53.54
-43.59
-35.08
-28.23
-22.99
-19.21
-16.74
-15.44
-15.19
-15.73
-16.6
-17.07
-16.29
-13.5
-8.32
-1.03
7.49
15.87
22.75
27.15
28.66
27.54
24.49
20.43
16.32
12.99
10.99
10.47
11.12
12.23
12.89
12.32
10.13
6.47
1.92
-2.8
-7.2
-11.16
-14.94
-18.93
-23.26
-27.66
-31.49
-33.98
-34.53
-33.0
-29.68
-25.15
-20.07
-15.02
-10.4
-6.55
-3.76
-2.31
-2.3
-3.68
-6.05
-8.87
-11.51
-13.44
-14.39
-14.37
-13.66
-12.64
-11.65
-10.88
-10.32
-9.86
-9.42
-9.06
-9.08
-9.9
-11.87
-15.18
-19.71
-25.07
-30.77
-36.33
-41.29
-45.25
-47.85
-48.88
-48.42
-46.93
-45.29
-44.56
-45.73
-49.29
-55.07
-62.14
-69.03
-73.99
-75.35
-71.86
-62.95
-48.86
-30.7
-10.26
10.34
29.08
44.53
56.0
63.63
68.06
70.25
71.09
71.29
71.25
71.2
71.18
71.2
71.19
71.08
70.8
70.25
69.3
67.73
65.34
61.91
57.34
51.7
45.32
38.73
32.51
27.19
23.02
19.91
17.37
14.75
11.5
7.27
2.12
-3.64
-9.64
-15.64
-21.64
-27.96
-35.04
-43.21
-52.46
-62.14
-70.87
-76.75
-77.9
-72.99
-61.86
-45.69
-26.64
-7.33
9.96
23.77
33.62
39.73
42.71
43.17
41.54
38.18
33.53
28.18
22.84
18.18
14.61
12.05
9.98
7.6
4.09
-1.12
-8.21
-16.96
-26.88
-37.3
-47.61
-57.28
-65.97
-73.5
-79.94
-85.53
-90.59
-95.47
-100.32
-105.16
-109.83
-114.14
-117.94
-121.29
-124.46
-127.9
-132.18
-137.68
-144.15
-150.45
-154.44
-153.27
-144.17
-125.4
-96.96
-60.86
-20.74
19.07
54.54
82.75
102.19
112.68
115.08
110.89
102.04
90.75
79.35
69.97
64.31
63.16
66.35
72.76
80.79
88.81
95.59
100.52
103.43
104.5
103.82
101.33
96.72
89.68
80.07
68.13
54.58
40.52
27.09
15.18
5.12
-3.34
-10.94
-18.6
-27.21
-37.33
-49.01
-61.53
-73.37
-82.23
-85.56
-81.34
-68.84
-49.04
-24.34
2.08
27.29
49.34
67.37
81.37
91.6
98.3
101.57
101.65
99.09
94.79
89.83
85.12
81.27
78.41
76.48
75.29
74.72
74.74
75.25
76.01
76.61
76.53
75.34
72.87
69.17
64.48
59.08
53.12
46.64
39.6
31.95
23.74
15.2
6.61
-1.67
-9.39
-16.44
-22.98
-29.43
-36.39
-44.34
-53.31
-62.5
-70.17
-74.03
-71.85
-62.34
-45.7
-23.72
0.74
24.71
45.76
62.5
74.52
82.05
85.63
85.81
83.22
78.56
72.67
66.48
60.95
56.92
54.97
55.26
57.48
60.87
64.33
66.85
67.69
66.64
63.98
60.26
56.06
51.82
47.75
43.77
39.69
35.34
30.66
25.9
21.52
18.12
16.11
15.49
15.64
15.62
14.5
11.85
7.91
3.39
-0.94
-4.64
-7.66
-9.94
-11.01
-9.83
-5.06
4.37
18.8
37.73
60.13
84.78
110.15
133.88
152.27
160.63
154.91
133.65
99.43
58.53
18.88
-12.99
-34.1
-45.64
-51.6
-56.58
-63.84
-74.57
-88.33
-103.96
-120.33
-136.4
-150.98
-162.42
-168.72
-167.82
-158.02
-138.5
-109.76
-74.07
-35.28
1.79
32.32
52.77
61.67
59.82
49.73
34.59
17.33
-0.0
-16.32
-31.24
-44.67
-56.46
-66.19
-73.13
-76.43
-75.4
-69.88
-60.35
-47.78
-33.32
-17.89
-2.1
13.66
28.92
42.87
54.52
62.99
67.91
69.68
69.42
68.6
68.63
70.42
74.1
79.08
84.29
88.54
90.9
90.97
88.86
85.08
80.23
74.76
68.85
62.48
55.64
48.57
41.8
36.07
32.06
30.06
29.87
30.76
31.65
31.48
29.38
24.8
17.5
7.64
-4.09
-16.38
-27.3
-34.85
-37.46
-34.62
-27.19
-17.09
-6.72
1.86
7.45
9.87
9.75
8.07
5.73
3.35
1.17
-0.77
-2.54
-4.11
-5.35
-6.06
-6.02
-5.08
-3.35
-1.13
1.13
2.94
3.97
4.16
3.7
2.92
2.05
1.12
-0.1
-1.97
-4.74
-8.38
-12.52
-16.62
-20.2
-23.17
-25.86
-28.92
-33.02
-38.59
-45.63
-53.8
-62.47
-70.82
-77.87
-82.43
-83.27
-79.45
-70.78
-58.07
-43.11
-28.08
-14.92
-4.74
2.28
6.63
8.98
9.86
9.49
8.05
5.85
3.37
1.23
-0.1
-0.36
0.39
1.95
3.99
6.15
8.11
9.52
10.13
9.8
8.54
6.52
4.04
1.37
-1.28
-3.84
-6.33
-8.83
-11.38
-13.99
-16.63
-19.23
-21.68
-23.86
-25.72
-27.32
-28.91
-30.89
-33.71
-37.54
-42.07
-46.33
-48.87
-48.16
-43.24
-34.08
-21.8
-8.21
4.67
15.31
22.93
27.57
29.71
29.93
28.65
26.11
22.59
18.45
14.21
10.41
7.47
5.56
4.62
4.46
4.87
5.66
6.7
7.77
8.58
8.79
8.12
6.46
3.93
0.81
-2.6
-6.07
-9.48
-12.84
-16.17
-19.45
-22.6
-25.46
-27.93
-29.98
-31.75
-33.49
-35.57
-38.33
-41.94
-46.24
-50.54
-53.74
-54.43
-51.47
-44.32
-33.42
-20.11
-6.26
6.3
16.22
22.94
26.62
27.83
27.22
25.35
22.62
19.32
15.82
12.54
9.92
8.3
7.77
8.22
9.28
10.57
11.73
12.56
12.96
12.87
12.19
10.81
8.71
5.94
2.69
-0.81
-4.35
-7.83
-11.21
-14.5
-17.68
-20.61
-23.15
-25.17
-26.7
-27.94
-29.24
-31.06
-33.79
-37.64
-42.33
-47.05
-50.51
-51.16
-47.8
-39.98
-28.34
-14.45
-0.37
12.0
21.47
27.73
31.14
32.36
31.96
30.32
27.63
24.12
20.19
16.45
13.5
11.76
11.31
11.91
13.11
14.44
15.55
16.28
16.57
16.38
15.69
14.45
12.65
10.31
7.51
4.3
0.66
-3.44
-7.98
-12.78
-17.5
-21.72
-25.18
-27.78
-29.76
-31.53
-33.59
-36.38
-40.17
-44.92
-50.22
-55.13
-58.29
-58.2
-53.69
-44.48
-31.38
-16.22
-1.29
11.41
20.7
26.4
29.09
29.68
28.88
27.15
24.64
21.52
18.11
14.94
12.57
11.43
11.59
12.76
14.44
16.09
17.33
17.98
18.01
17.52
16.51
14.99
12.88
10.19
6.94
3.21
-0.81
-4.98
-9.11
-13.06
-16.75
-20.18
-23.41
-26.54
-29.73
-33.12
-36.98
-41.54
-46.88
-52.65
-57.94
-61.33
-61.27
-56.6
-47.07
-33.55
-17.85
-2.13
11.71
22.5
29.9
34.25
36.11
36.05
34.43
31.51
27.63
23.29
19.11
15.76
13.7
13.13
13.9
15.57
17.59
19.5
20.92
21.65
21.61
20.81
19.31
17.15
14.35
10.92
6.89
2.3
-2.68
-7.86
-12.94
-17.71
-22.01
-25.81
-29.21
-32.47
-35.96
-40.1
-45.34
-51.84
-59.28
-66.59
-72.08
-73.82
-70.24
-60.8
-46.29
-28.63
-10.3
6.44
20.05
29.96
36.37
39.84
41.0
40.36
38.33
35.35
31.95
28.7
26.15
24.68
24.39
25.13
26.54
28.22
29.83
31.11
31.9
32.04
31.36
29.7
27.05
23.56
19.51
15.19
10.84
6.49
2.1
-2.46
-7.22
-12.06
-16.8
-21.23
-25.26
-28.92
-32.43
-36.22
-40.8
-46.65
-53.91
-62.04
-69.73
-75.08
-76.16
-71.67
-61.46
-46.7
-29.47
-12.16
3.31
15.8
25.06
31.39
35.37
37.54
38.31
38.03
37.01
35.58
34.1
32.91
32.25
32.3
33.04
34.35
36.01
37.75
39.29
40.36
40.65
39.87
37.85
34.54
30.18
25.16
19.96
14.92
10.18
5.64
1.11
-3.53
-8.27
-12.94
-17.33
-21.32
-25.01
-28.63
-32.59
-37.33
-43.27
-50.59
-58.96
-67.35
-73.99
-76.81
-74.06
-65.05
-50.49
-32.39
-13.38
4.11
18.5
29.23
36.54
41.02
43.23
43.55
42.27
39.75
36.55
33.28
30.56
28.85
28.32
28.87
30.21
31.99
33.84
35.44
36.52
36.83
36.2
34.53
31.88
28.35
24.16
19.53
14.64
9.63
4.6
-0.35
-5.14
-9.71
-14.01
-18.02
-21.79
-25.48
-29.38
-33.86
-39.31
-46.02
-53.8
-61.87
-68.76
-72.56
-71.49
-64.54
-51.88
-35.0
-16.22
1.96
17.57
29.55
37.82
42.88
45.44
46.11
45.29
43.22
40.22
36.74
33.4
30.83
29.47
29.44
30.49
32.2
34.08
35.8
37.12
37.9
37.94
37.02
35.0
31.91
28.0
23.58
18.93
14.11
9.07
3.69
-2.0
-7.85
-13.56
-18.88
-23.66
-27.96
-32.06
-36.38
-41.42
-47.6
-55.03
-63.22
-70.97
-76.47
-77.74
-73.35
-62.94
-47.54
-29.2
-10.4
6.65
20.56
30.88
37.85
42.03
43.99
44.19
43.02
40.96
38.58
36.49
35.15
34.73
35.08
35.85
36.69
37.34
37.84
38.27
38.71
39.04
38.86
37.73
35.33
31.69
27.21
22.54
18.28
14.65
11.45
8.08
3.97
-1.14
-7.04
-13.14
-18.75
-23.45
-27.28
-30.71
-34.48
-39.29
-45.61
-53.39
-61.89
-69.67
-74.84
-75.44
-70.17
-58.92
-42.9
-24.37
-5.9
10.42
23.42
32.84
39.05
42.62
43.98
43.5
41.62
38.94
36.18
33.97
32.7
32.4
32.85
33.7
34.68
35.65
36.59
37.51
38.34
38.86
38.69
37.43
34.8
30.82
25.81
20.35
15.02
10.21
5.94
1.92
-2.26
-6.89
-11.95
-17.16
-22.12
-26.52
-30.29
-33.63
-36.96
-40.81
-45.69
-51.82
-58.87
-65.84
-71.01
-72.43
-68.53
-58.81
-44.16
-26.66
-8.92
6.81
19.19
27.92
33.45
36.48
37.65
37.33
35.77
33.24
30.13
26.92
24.05
21.91
20.67
20.41
21.04
22.38
24.18
26.14
27.86
28.93
28.99
27.76
25.22
21.56
17.13
12.38
7.65
3.09
-1.31
-5.62
-9.98
-14.37
-18.71
-22.83
-26.6
-30.0
-33.16
-36.41
-40.23
-45.08
-51.02
-57.49
-63.24
-66.48
-65.53
-59.37
-48.12
-33.05
-16.24
0.12
14.33
25.45
33.31
38.13
40.31
40.24
38.29
34.92
30.79
26.66
23.19
20.9
19.92
20.09
21.08
22.5
24.1
25.7
27.12
28.08
28.25
27.27
25.03
21.65
17.55
13.27
9.19
5.45
1.86
-1.91
-6.16
-10.95
-16.1
-21.25
-25.97
-30.01
-33.33
-36.15
-38.98
-42.47
-47.23
-53.54
-61.05
-68.62
-74.45
-76.54
-73.35
-64.35
-50.4
-33.41
-15.78
0.33
13.5
23.23
29.73
33.55
35.29
35.4
34.27
32.33
30.03
27.84
26.13
25.11
24.79
25.06
25.75
26.71
27.82
28.99
30.1
30.92
31.15
30.51
28.8
26.06
22.56
18.6
14.43
10.19
5.81
1.14
-3.91
-9.27
-14.71
-19.95
-24.7
-28.89
-32.56
-35.96
-39.42
-43.4
-48.34
-54.45
-61.44
-68.29
-73.27
-74.4
-70.06
-59.75
-44.41
-26.2
-7.8
8.46
21.22
30.23
35.99
39.23
40.51
40.19
38.45
35.66
32.37
29.29
27.06
25.98
26.0
26.76
27.87
29.05
30.14
31.15
32.03
32.61
32.58
31.58
29.4
26.06
21.84
17.17
12.46
7.92
3.51
-0.97
-5.72
-10.77
-15.93
-20.88
-25.33
-29.2
-32.64
-36.09
-40.05
-45.01
-51.21
-58.48
-66.12
-72.79
-76.74
-76.28
-70.34
-59.0
-43.53
-26.07
-8.99
5.8
17.31
25.46
30.77
33.92
35.38
35.35
33.93
31.27
27.85
24.34
21.56
20.07
20.15
21.54
23.69
25.88
27.53
28.38
28.43
27.86
26.84
25.39
23.43
20.74
17.16
12.66
7.4
1.67
-4.18
-9.84
-15.1
-19.93
-24.43
-28.78
-33.18
-37.87
-43.07
-48.98
-55.59
-62.43
-68.44
-72.06
-71.65
-66.01
-54.99
-39.67
-22.02
-4.38
11.29
23.83
32.94
38.95
42.46
44.0
43.98
42.69
40.38
37.44
34.33
31.58
29.62
28.77
29.05
30.25
31.98
33.7
34.9
35.14
34.17
31.95
28.68
24.7
20.37
15.99
11.66
7.31
2.81
-1.97
-6.98
-12.1
-17.06
-21.67
-25.81
-29.57
-33.22
-37.13
-41.78
-47.56
-54.67
-62.68
-70.52
-76.43
-78.48
-75.18
-66.02
-51.85
-34.48
-16.26
0.72
15.1
26.39
34.74
40.53
44.16
45.85
45.83
44.41
42.11
39.6
37.51
36.28
35.99
36.39
37.06
37.55
37.56
36.84
35.16
32.26
27.83
21.6
13.55
4.0
-6.43
-17.0
-27.04
-36.11
-44.08
-51.02
-57.08
-62.38
-66.89
-70.5
-73.04
-74.45
-74.82
-74.56
-74.29
-74.73
-76.36
-79.1
-82.12
-83.87
-82.56
-76.79
-66.07
-51.11
-33.64
-15.83
0.22
13.02
21.89
26.79
28.13
26.51
22.6
17.17
11.04
5.15
0.44
-2.26
-2.41
0.32
5.96
14.35
25.14
37.75
51.21
64.26
75.43
83.34
87.18
86.81
82.88
76.54
69.04
61.4
54.23
47.8
42.16
37.33
33.26
29.74
26.35
22.39
17.13
10.02
0.95
-9.68
-21.1
-32.24
-41.92
-48.95
-52.39
-51.62
-46.7
-38.2
-27.22
-14.98
-2.58
9.27
20.14
29.78
37.97
44.43
49.0
51.68
52.67
52.35
51.16
49.6
48.19
47.46
47.82
49.5
52.38
56.01
59.76
62.94
65.08
65.91
65.38
63.6
60.79
57.28
53.42
49.53
45.67
41.61
36.96
31.28
24.47
16.84
9.14
2.24
-3.17
-6.95
-9.63
-12.25
-16.08
-22.01
-30.07
-39.11
-46.95
-50.91
-48.73
-39.49
-24.13
-5.23
13.77
29.74
40.84
46.86
48.89
48.49
46.88
44.51
41.26
36.89
31.59
26.17
21.83
19.68
20.32
23.74
29.38
36.18
42.47
45.91
43.75
33.69
14.96
-10.84
-39.79
-66.66
-86.64
-96.68
-96.23
-86.82
-71.11
-52.05
-32.24
-13.81
1.56
12.69
19.04
20.75
18.6
13.63
6.82
-1.19
-10.13
-20.02
-30.8
-41.94
-52.27
-59.94
-62.97
-59.98
-50.77
-36.66
-20.13
-4.02
9.39
18.89
24.51
27.07
27.61
26.92
25.35
22.95
19.81
16.23
12.71
9.86
8.09
7.52
8.0
9.29
11.12
13.25
15.35
16.93
17.52
16.81
14.84
12.03
8.96
6.1
3.6
1.33
-1.01
-3.69
-6.87
-10.58
-14.73
-19.14
-23.52
-27.52
-30.9
-33.64
-36.06
-38.7
-42.13
-46.69
-52.33
-58.53
-64.39
-68.8
-70.55
-68.6
-62.31
-51.72
-37.63
-21.58
-5.45
9.09
20.96
29.89
36.23
40.54
43.28
44.69
44.82
43.81
41.95
39.65
37.31
35.08
32.92
30.75
28.69
27.21
26.95
28.27
30.89
33.77
35.41
34.53
30.63
24.24
16.6
9.08
2.5
-3.12
-8.33
-13.84
-19.96
-26.45
-32.73
-38.24
-42.73
-46.38
-49.6
-52.79
-56.12
-59.45
-62.39
-64.41
-64.94
-63.42
-59.41
-52.61
-42.95
-30.72
-16.59
-1.55
13.16
26.38
37.22
45.27
50.6
53.7
55.2
55.69
55.49
54.79
53.75
52.61
51.7
51.27
51.39
51.73
51.72
50.77
48.53
44.99
40.49
35.45
30.19
24.89
19.52
14.05
8.49
3.03
-2.03
-6.41
-9.97
-12.79
-15.26
-17.89
-21.11
-25.07
-29.53
-34.04
-38.16
-41.81
-45.28
-49.01
-53.24
-57.56
-60.96
-62.07
-59.71
-53.48
-43.85
-32.06
-19.65
-7.97
2.05
9.9
15.31
18.07
18.04
15.26
10.15
3.44
-3.92
-11.03
-17.22
-22.11
-25.51
-27.29
-27.32
-25.54
-22.09
-17.35
-11.9
-6.42
-1.49
2.48
5.32
6.99
7.56
7.11
5.75
3.64
1.01
-1.86
-4.7
-7.32
-9.7
-11.97
-14.36
-17.14
-20.54
-24.75
-29.94
-36.23
-43.59
-51.61
-59.46
-65.95
-69.8
-70.16
-66.82
-60.28
-51.53
-41.65
-31.56
-21.95
-13.41
-6.57
-2.07
-0.42
-1.65
-5.22
-10.11
-15.14
-19.51
-23.02
-26.11
-29.39
-33.2
-37.29
-40.89
-43.07
-43.29
-41.8
-39.63
-38.26
-39.22
-43.53
-51.46
-62.57
-75.71
-89.01
-100.14
-106.85
-107.71
-102.92
-94.6
-86.07
-80.5
-79.39
-81.77
-84.82
-85.55
-82.59
-77.25
-73.1
-74.36
-83.87
-101.5
-123.8
-144.86
-158.2
-158.52
-143.24
-112.72
-69.66
-17.72
39.98
101.72
167.14
236.22
307.76
378.25
442.08
492.57
523.61
531.47
515.69
479.26
427.74
367.92
306.04
246.45
191.13
140.22
93.22
50.31
12.73
-17.75
-40.07
-54.83
-64.11
-70.5
-75.52
-78.93
-79.23
-75.0
-66.13
-53.93
-40.23
-26.04
-11.02
6.09
26.08
48.04
69.17
85.47
93.28
90.88
79.47
63.25
48.29
40.41
42.8
54.47
70.0
81.58
81.82
66.64
36.65
-3.52
-47.37
-89.0
-124.42
-151.82
-170.66
-181.01
-183.22
-178.22
-167.8
-154.46
-140.87
-128.96
-119.52
-112.05
-105.24
-97.7
-88.54
-77.77
-66.2
-55.17
-45.92
-39.13
-34.69
-31.7
-28.78
-24.45
-17.52
-7.24
6.6
23.66
43.02
63.36
83.26
101.34
116.52
127.84
134.34
135.05
129.43
117.77
101.57
83.4
66.05
51.53
40.27
30.96
21.06
7.85
-10.68
-35.04
-64.08
-95.33
-125.72
-152.5
-174.21
-190.92
-204.1
-215.68
-227.26
-239.35
-251.57
-263.08
-273.16
-281.44
-287.71
-291.59
-292.57
-290.44
-285.88
-280.6
-276.61
-275.0
-274.71
-272.29
-262.87
-242.02
-207.47
-160.0
-103.04
-41.36
20.46
78.96
132.01
178.6
218.59
252.67
282.58
311.07
341.15
374.61
410.38
443.84
467.54
473.37
455.36
411.87
346.0
264.18
173.76
80.58
-12.29
-104.37
-196.54
-289.34
-381.6
-469.78
-548.17
-610.27
-650.51
-666.13
-658.18
-631.21
-591.6
-545.64
-498.02
-451.36
-406.77
-364.78
-325.77
-289.99
-257.05
-225.85
-194.81
-162.55
-128.56
-93.35
-58.31
-24.95
5.66
33.33
58.79
83.44
108.87
136.29
165.81
196.08
224.68
248.98
267.37
279.92
288.13
293.77
297.72
299.53
298.02
292.68
284.52
275.97
269.49
266.01
264.18
260.92
253.12
239.09
219.18
195.38
170.45
147.31
128.74
117.3
114.98
122.53
138.86
161.02
184.84
206.1
221.68
230.05
231.19
226.09
216.2
203.02
188.01
172.37
156.99
142.33
128.46
115.19
102.18
89.12
75.65
61.48
46.34
30.13
12.98
-4.53
-21.36
-36.04
-46.83
-52.13
-50.8
-42.68
-28.69
-10.76
8.71
27.37
43.47
56.08
65.0
70.53
73.11
73.13
70.97
66.96
61.61
55.55
49.57
44.42
40.69
38.68
38.34
39.38
41.23
43.21
44.59
44.79
43.41
40.34
35.75
29.99
23.52
16.74
9.95
3.28
-3.25
-9.69
-16.1
-22.36
-28.31
-33.69
-38.49
-42.93
-47.62
-53.28
-60.51
-69.44
-79.67
-90.29
-99.98
-107.26
-110.67
-109.08
-102.14
-90.47
-75.66
-59.73
-44.45
-30.71
-18.42
-6.93
4.34
15.44
26.01
35.63
44.33
52.58
61.0
69.87
78.8
86.95
93.38
97.62
99.79
100.59
100.81
100.99
101.15
100.76
98.96
94.85
87.86
78.0
65.81
52.22
38.17
24.4
11.2
-1.42
-13.64
-25.68
-37.6
-49.28
-60.25
-69.73
-76.66
-79.95
-78.88
-73.33
-64.03
-52.34
-39.92
-28.28
-18.49
-11.07
-6.1
-3.44
-2.83
-4.0
-6.59
-10.1
-13.8
-16.79
-18.13
-17.12
-13.47
-7.54
-0.23
7.25
13.78
18.67
21.81
23.49
24.18
24.19
23.58
22.3
20.3
17.73
14.87
12.04
9.37
6.71
3.74
0.1
-4.36
-9.51
-15.03
-20.6
-26.1
-31.63
-37.33
-43.04
-48.03
-51.02
-50.59
-45.76
-36.51
-23.88
-9.65
4.25
16.35
25.94
33.0
37.86
40.83
42.1
41.8
40.17
37.65
34.88
32.43
30.76
29.95
29.78
29.83
29.67
28.99
27.69
25.85
23.64
21.22
18.67
15.89
12.69
8.89
4.34
-0.95
-6.8
-12.88
-18.81
-24.26
-29.02
-33.01
-36.36
-39.3
-42.12
-45.17
-48.76
-53.05
-57.83
-62.43
-65.71
-66.46
-63.73
-57.31
-47.83
-36.59
-25.09
-14.65
-6.06
0.45
4.95
7.71
8.93
8.79
7.5
5.43
3.01
0.72
-1.03
-2.02
-2.21
-1.74
-0.89
0.1
1.04
1.84
2.48
2.95
3.16
2.92
2.01
0.24
-2.39
-5.65
-9.12
-12.36
-15.07
-17.22
-19.07
-21.01
-23.51
-26.89
-31.27
-36.52
-42.16
-47.37
-51.02
-51.96
-49.38
-43.13
-33.85
-22.86
-11.68
-1.6
6.65
12.89
17.34
20.27
21.87
22.19
21.28
19.34
16.71
13.88
11.28
9.21
7.74
6.76
6.09
5.53
4.95
4.3
3.63
2.97
2.36
1.7
0.82
-0.46
-2.29
-4.68
-7.48
-10.4
-13.15
-15.61
-17.86
-20.14
-22.76
-25.96
-29.89
-34.53
-39.75
-45.2
-50.29
-54.17
-55.85
-54.49
-49.77
-42.01
-32.17
-21.54
-11.33
-2.34
5.15
11.23
16.1
19.84
22.39
23.61
23.45
22.13
20.1
17.95
16.21
15.11
14.61
14.4
14.11
13.44
12.29
10.72
8.91
7.03
5.18
3.33
1.39
-0.84
-3.51
-6.67
-10.26
-14.12
-17.99
-21.73
-25.33
-28.95
-32.88
-37.46
-42.91
-49.31
-56.48
-63.85
-70.49
-75.12
-76.44
-73.55
-66.27
-55.28
-41.98
-28.06
-15.03
-3.87
5.08
12.01
17.38
21.63
25.09
27.87
29.97
31.36
32.2
32.94
34.32
37.18
42.14
49.23
57.79
66.62
74.32
79.77
82.47
82.63
81.03
78.78
77.01
76.74
78.67
83.04
89.48
97.04
104.36
110.04
112.96
112.52
108.82
102.49
94.57
86.25
78.7
73.09
70.61
72.45
79.7
93.11
112.78
137.95
167.0
197.6
227.23
253.59
274.94
290.21
298.94
301.16
297.43
288.82
276.89
263.47
250.31
238.6
228.64
219.86
210.98
200.55
187.5
171.34
152.23
130.71
107.42
82.92
57.56
31.47
4.56
-23.51
-53.24
-85.01
-118.66
-152.96
-185.51
-213.17
-233.04
-243.44
-244.65
-238.76
-228.87
-218.16
-208.95
-202.33
-198.22
-195.72
-193.4
-189.78
-183.68
-174.56
-162.79
-149.56
-136.4
-124.55
-114.57
-106.42
-99.66
-93.84
-88.92
-85.29
-83.61
-84.21
-86.65
-89.52
-91.04
-89.62
-84.65
-76.83
-68.24
-61.72
-59.92
-64.12
-73.84
-87.31
-101.71
-113.97
-121.65
-124.17
-123.47
-124.11
-131.43
-148.78
-176.56
-208.95
-234.21
-237.77
-207.89
-141.32
-46.2
59.82
155.26
218.23
235.66
206.43
140.5
53.8
-38.17
-124.94
-201.77
-267.82
-329.88
-394.58
-465.15
-539.26
-609.49
-665.99
-699.94
-705.96
-683.85
-647.3
-615.32
-606.46
-632.62
-695.18
-786.77
-895.2
-1006.88
-1062.52
-1017.43
-854.08
-594.25
-288.29
12.83
275.78
486.77
644.9
756.09
821.82
844.23
832.09
795.55
746.18
693.13
640.6
588.03
532.27
464.94
382.47
288.97
195.46
117.61
68.52
52.96
65.81
95.28
124.88
140.27
138.76
123.87
102.92
82.58
66.36
54.56
46.23
39.23
32.55
26.57
21.66
18.75
17.04
15.43
12.87
8.98
3.45
-3.66
-12.16
-22.64
-35.79
-52.24
-72.17
-95.04
-119.46
-143.39
-164.66
-181.52
-193.51
-201.09
-205.29
-207.24
-207.93
-208.02
-207.83
-207.44
-206.7
-205.55
-203.83
-201.13
-196.68
-189.41
-178.2
-162.07
-140.48
-113.39
-81.48
-45.95
-8.43
29.3
65.48
98.5
127.0
150.04
167.1
178.11
183.37
183.37
178.76
170.15
158.12
143.16
125.76
106.55
86.37
66.37
47.83
32.04
20.08
12.66
10.07
12.15
18.48
28.46
41.49
56.97
74.31
92.88
112.02
131.11
149.67
167.43
184.42
201.0
217.85
235.97
256.64
280.99
309.43
341.0
373.13
401.94
423.08
432.93
429.59
413.35
386.45
352.41
315.14
278.35
245.04
217.09
195.09
178.24
164.62
151.83
137.75
121.19
102.06
81.23
59.99
39.7
21.39
5.65
-7.4
-17.98
-26.63
-33.99
-40.64
-46.93
-52.89
-58.36
-63.22
-67.3
-70.61
-73.23
-75.09
-75.85
-74.86
-71.31
-64.62
-54.78
-42.35
-28.55
-14.87
-2.64
7.39
15.07
20.79
24.96
27.82
29.64
30.6
30.9
30.94
31.21
32.13
33.9
36.43
39.34
43.1
48.11
54.64
62.61
71.57
80.71
89.2
96.25
101.28
105.77
111.27
118.96
129.24
141.63
155.08
168.46
180.8
191.33
202.37
215.95
233.21
253.79
276.07
297.91
317.89
335.54
351.23
369.33
393.2
423.93
459.6
495.9
528.04
552.89
570.07
557.72
502.89
401.32
260.48
97.76
-66.38
-215.62
-340.9
-439.85
-514.5
-565.26
-593.75
-602.62
-595.79
-578.22
-554.98
-530.27
-506.96
-486.79
-467.7
-447.47
-424.48
-398.41
-370.46
-342.58
-316.66
-293.94
-274.99
-258.09
-241.56
-224.31
-206.12
-187.57
-169.41
-152.08
-135.66
-120.08
-104.73
-89.49
-74.83
-61.55
-50.44
-41.8
-35.44
-30.68
-26.86
-23.2
-19.32
-15.13
-10.6
-5.7
-0.25
5.89
12.7
19.77
26.3
31.62
34.78
35.38
33.52
29.68
24.46
18.37
11.78
4.84
-2.32
-9.53
-16.41
-22.4
-26.88
-29.42
-29.94
-28.76
-26.53
-24.14
-22.42
-21.81
-22.45
-24.03
-25.96
-27.33
-26.92
-23.53
-16.44
-5.98
6.4
18.38
27.75
33.3
35.34
35.37
35.15
35.81
37.33
38.87
39.3
38.12
35.6
32.62
30.06
28.35
27.47
27.2
27.42
27.85
28.41
29.0
29.39
29.23
27.96
25.03
19.79
13.11
5.58
-2.07
-9.14
-15.14
-19.94
-23.83
-27.37
-31.26
-36.07
-42.3
-50.1
-59.42
-70.02
-81.43
-92.86
-103.03
-110.42
-113.77
-112.7
-107.74
-100.12
-91.11
-81.46
-71.27
-60.27
-48.43
-36.23
-24.68
-14.69
-6.62
-0.2
5.19
10.01
14.3
17.77
20.21
21.72
22.74
23.85
25.39
27.32
29.33
30.93
31.73
31.61
30.61
28.92
26.75
24.31
21.71
18.97
15.98
12.56
8.55
4.0
-0.88
-5.71
-10.07
-13.72
-16.59
-18.88
-20.85
-22.85
-25.07
-27.51
-29.85
-31.45
-31.43
-28.92
-23.4
-14.94
-4.36
7.01
17.66
26.45
32.73
36.53
38.27
38.61
38.16
37.38
36.49
35.53
34.43
33.11
31.53
29.78
27.94
26.13
24.34
22.45
20.29
17.76
14.88
11.71
8.44
5.21
2.16
-0.6
-3.0
-4.91
-6.31
-7.26
-7.96
-8.69
-9.66
-10.95
-12.47
-14.04
-15.47
-16.77
-18.03
-19.44
-21.15
-23.25
-25.65
-28.01
-29.74
-30.05
-28.29
-24.13
-17.86
-10.35
-2.78
3.72
8.5
11.48
12.97
13.42
13.21
12.53
11.44
10.04
8.49
7.07
6.11
5.77
6.06
6.74
7.43
7.72
7.44
6.58
5.31
3.81
2.15
0.22
-2.18
-5.35
-9.46
-14.48
-20.37
-27.1
-34.6
-42.7
-51.11
-59.07
-65.68
-69.93
-70.9
-68.17
-61.82
-52.33
-40.68
-28.0
-15.41
-3.96
5.65
13.19
18.97
23.7
28.22
33.04
38.2
43.37
47.83
50.92
52.33
52.09
50.59
48.4
45.87
43.2
40.52
37.84
35.22
32.85
30.83
29.24
28.15
27.34
26.59
25.73
24.6
23.27
21.83
20.36
18.87
17.32
15.52
13.42
11.06
8.54
6.16
4.14
2.47
1.06
-0.2
-1.49
-2.82
-4.08
-5.24
-6.23
-7.17
-8.34
-10.01
-12.39
-15.57
-19.37
-23.31
-26.7
-28.64
-28.39
-25.58
-20.36
-13.45
-5.96
1.06
6.78
10.81
13.21
14.18
14.13
13.46
12.49
11.6
11.13
11.22
11.86
12.99
14.39
15.9
17.3
18.33
18.86
18.69
17.73
16.0
13.68
10.97
8.11
5.23
2.41
-0.12
-2.2
-3.76
-4.7
-5.16
-5.46
-5.83
-6.48
-7.42
-8.45
-9.44
-10.38
-11.3
-12.49
-14.27
-16.78
-20.0
-23.57
-26.79
-28.9
-29.1
-26.87
-22.27
-15.91
-8.75
-1.91
3.71
7.66
9.85
10.6
10.47
9.87
9.12
8.41
7.62
6.72
5.84
5.13
4.99
5.73
7.38
9.66
12.11
14.15
15.42
15.95
15.91
15.62
15.29
14.95
14.47
13.72
12.51
10.8
8.59
5.89
2.8
-0.57
-4.04
-7.29
-9.97
-11.95
-13.26
-14.22
-15.4
-17.23
-19.87
-23.2
-26.62
-29.31
-30.51
-29.67
-26.56
-21.49
-15.08
-8.17
-1.75
3.49
7.21
9.45
10.54
11.01
11.24
11.42
11.63
11.79
11.96
12.24
12.79
13.79
15.28
17.11
19.1
20.9
22.24
23.0
23.02
22.26
20.73
18.48
15.5
11.86
7.69
3.23
-1.06
-4.69
-7.25
-8.57
-8.75
-8.21
-7.44
-6.97
-7.33
-8.95
-12.14
-17.05
-23.54
-30.96
-38.21
-43.88
-46.8
-46.42
-43.02
-37.71
-31.83
-26.52
-22.29
-18.91
-15.74
-12.23
-8.2
-3.87
0.22
3.76
6.64
9.04
11.15
13.08
14.8
16.07
16.73
16.58
15.64
14.0
11.84
9.33
6.59
3.7
0.67
-2.36
-5.3
-7.88
-9.9
-11.25
-12.14
-13.04
-14.62
-17.63
-22.53
-29.64
-38.91
-50.07
-62.49
-75.02
-86.28
-94.63
-98.61
-97.13
-89.94
-77.49
-60.93
-41.81
-21.68
-1.99
16.17
31.94
44.7
53.94
59.54
61.69
60.95
58.26
54.65
51.04
48.01
45.76
44.1
42.76
41.51
40.22
38.94
37.71
36.63
35.57
34.33
32.63
30.31
27.38
23.99
20.41
16.8
13.19
9.55
5.9
2.3
-1.18
-4.53
-7.82
-11.11
-14.21
-16.71
-17.95
-17.32
-14.57
-10.02
-4.42
1.25
6.16
9.87
12.35
13.83
14.65
15.05
15.08
14.77
14.12
13.28
12.47
11.91
11.76
11.97
12.3
12.46
12.18
11.37
10.12
8.6
7.06
5.71
4.67
3.89
3.2
2.41
1.29
-0.28
-2.22
-4.38
-6.5
-8.38
-9.97
-11.3
-12.43
-13.57
-14.93
-16.63
-18.73
-20.96
-22.87
-23.87
-23.39
-21.17
-17.41
-12.62
-7.55
-2.9
0.92
3.78
5.88
7.56
9.11
10.61
11.97
13.0
13.51
13.52
13.15
12.63
12.16
11.79
11.4
10.87
10.07
8.94
7.58
6.12
4.75
3.65
2.91
2.52
2.39
2.34
2.16
1.7
0.85
-0.37
-1.88
-3.56
-5.23
-6.8
-8.25
-9.75
-11.58
-13.97
-16.99
-20.37
-23.59
-25.92
-26.78
-25.83
-23.16
-19.24
-14.89
-11.07
-8.58
-7.85
-8.68
-10.33
-11.74
-12.0
-10.7
-8.11
-4.93
-1.88
0.7
3.01
5.45
8.34
11.53
14.54
16.74
17.75
17.73
17.22
16.85
16.97
17.49
17.98
17.98
17.22
15.71
13.74
11.66
9.76
8.11
6.59
4.97
2.95
0.41
-2.68
-6.22
-10.05
-13.87
-17.24
-19.57
-20.24
-18.81
-15.17
-9.68
-3.2
3.25
8.74
12.67
14.94
15.8
15.57
14.6
13.1
11.22
9.13
7.04
5.27
4.04
3.57
3.88
4.9
6.38
8.03
9.57
10.72
11.39
11.55
11.32
10.81
10.06
9.04
7.73
6.11
4.3
2.46
0.75
-0.75
-2.03
-3.15
-4.21
-5.28
-6.38
-7.62
-9.1
-11.02
-13.53
-16.56
-19.87
-22.82
-24.65
-24.61
-22.32
-17.93
-12.12
-5.89
-0.18
4.33
7.52
9.59
10.89
11.72
12.28
12.61
12.73
12.73
12.73
12.83
13.06
13.38
13.67
13.85
13.83
13.56
13.0
12.12
10.88
9.22
7.19
4.9
2.58
0.48
-1.19
-2.35
-3.02
-3.38
-3.58
-3.77
-4.0
-4.3
-4.62
-5.01
-5.49
-6.14
-7.04
-8.22
-9.77
-11.75
-14.11
-16.56
-18.62
-19.61
-18.92
-16.22
-11.61
-5.73
0.41
5.82
9.79
12.04
12.77
12.44
11.58
10.56
9.62
8.79
8.1
7.65
7.59
8.09
9.24
10.86
12.69
14.38
15.66
16.39
16.58
16.39
15.9
15.13
14.0
12.44
10.49
8.36
6.25
4.4
2.87
1.62
0.49
-0.65
-1.88
-3.14
-4.24
-5.0
-5.31
-5.19
-4.88
-4.68
-4.91
-5.82
-7.47
-9.67
-12.04
-14.09
-15.25
-15.05
-13.19
-9.69
-4.97
0.27
5.23
9.24
12.01
13.62
14.47
15.03
15.5
15.75
15.42
14.09
11.61
8.19
4.37
0.84
-1.87
-3.48
-4.16
-4.21
-3.97
-3.69
-3.4
-3.04
-2.59
-2.22
-2.1
-2.44
-3.2
-4.09
-4.73
-4.76
-4.07
-2.9
-1.72
-0.96
-0.92
-1.61
-2.73
-3.92
-4.84
-5.39
-5.73
-6.18
-7.08
-8.58
-10.77
-13.43
-16.22
-18.56
-19.88
-19.63
-17.59
-13.91
-9.16
-4.14
0.35
3.79
6.06
7.32
7.86
8.0
7.92
7.66
7.26
6.8
6.37
6.09
6.12
6.44
6.96
7.47
7.83
7.9
7.77
7.54
7.34
7.25
7.16
6.86
6.2
5.08
3.6
1.95
0.37
-0.93
-1.94
-2.72
-3.44
-4.24
-5.17
-6.1
-6.83
-7.26
-7.38
-7.38
-7.57
-8.22
-9.57
-11.65
-14.2
-16.73
-18.62
-19.3
-18.37
-15.89
-12.29
-8.35
-4.83
-2.21
-0.59
0.28
0.84
1.49
2.37
3.46
4.53
5.37
5.92
6.2
6.33
6.48
6.71
6.92
7.04
6.94
6.59
6.04
5.36
4.64
3.88
3.02
2.01
0.96
-0.03
-0.84
-1.41
-1.8
-2.14
-2.56
-3.15
-3.91
-4.67
-5.32
-5.8
-6.08
-6.29
-6.55
-7.05
-8.0
-9.51
-11.46
-13.49
-15.1
-15.7
-14.92
-12.71
-9.35
-5.4
-1.53
1.75
4.19
5.74
6.62
7.07
7.35
7.61
7.85
8.0
7.97
7.77
7.44
7.14
6.96
6.9
6.93
6.91
6.77
6.48
6.08
5.64
5.2
4.71
4.07
3.14
1.82
0.02
-2.24
-4.77
-7.28
-9.48
-11.17
-12.32
-13.01
-13.4
-13.64
-13.83
-14.04
-14.33
-14.8
-15.54
-16.49
-17.31
-17.55
-16.67
-14.32
-10.63
-6.04
-1.25
3.08
6.54
9.08
10.83
12.05
12.92
13.45
13.66
13.51
13.05
12.35
11.47
10.44
9.29
8.08
6.94
6.13
5.8
5.98
6.56
7.19
7.54
7.4
6.72
5.63
4.33
2.92
1.42
-0.17
-1.88
-3.6
-5.12
-6.31
-7.08
-7.51
-7.76
-8.1
-8.65
-9.52
-10.72
-12.19
-13.98
-15.97
-17.98
-19.57
-20.19
-19.31
-16.71
-12.53
-7.37
-2.11
2.48
5.89
7.99
9.02
9.31
9.17
8.78
8.2
7.45
6.64
5.94
5.54
5.68
6.39
7.55
8.96
10.4
11.63
12.56
13.12
13.29
13.07
12.38
11.24
9.71
7.9
5.97
4.08
2.33
0.69
-0.84
-2.38
-3.89
-5.37
-6.72
-7.86
-8.7
-9.29
-9.81
-10.45
-11.49
-13.07
-15.11
-17.35
-19.31
-20.39
-20.11
-18.23
-14.84
-10.43
-5.65
-1.1
2.74
5.78
8.07
9.8
11.07
11.92
12.34
12.33
11.97
11.38
10.77
10.2
9.69
9.16
8.6
7.99
7.35
6.71
6.08
5.47
4.82
4.03
3.05
1.97
0.83
-0.19
-1.01
-1.61
-2.07
-2.49
-2.96
-3.48
-3.98
-4.39
-4.63
-4.7
-4.72
-4.88
-5.37
-6.41
-8.11
-10.43
-13.11
-15.64
-17.36
-17.73
-16.41
-13.47
-9.29
-4.56
0.06
4.01
7.03
9.11
10.35
10.97
11.07
10.78
10.18
9.4
8.55
7.83
7.34
7.1
7.09
7.16
7.26
7.3
7.28
7.2
7.12
7.09
7.13
7.22
7.31
7.3
7.04
6.44
5.46
4.11
2.49
0.66
-1.31
-3.36
-5.41
-7.44
-9.39
-11.2
-12.88
-14.51
-16.24
-18.1
-19.98
-21.53
-22.23
-21.56
-19.15
-15.08
-9.82
-4.21
0.91
4.96
7.75
9.46
10.45
11.02
11.3
11.31
10.98
10.31
9.4
8.41
7.5
6.78
6.3
6.05
6.02
6.2
6.52
6.92
7.31
7.62
7.76
7.61
7.15
6.42
5.54
4.66
3.87
3.22
2.68
2.2
1.69
1.1
0.42
-0.34
-1.16
-2.08
-3.18
-4.53
-6.29
-8.55
-11.3
-14.39
-17.39
-19.76
-20.94
-20.47
-18.25
-14.54
-9.98
-5.34
-1.33
1.65
3.61
4.83
5.7
6.51
7.29
7.93
8.29
8.34
8.21
8.13
8.27
8.62
9.1
9.54
9.87
10.1
10.3
10.55
10.85
11.14
11.26
11.06
10.44
9.34
7.82
6.05
4.17
2.37
0.7
-0.81
-2.21
-3.52
-4.76
-5.88
-6.87
-7.72
-8.45
-9.17
-10.03
-11.19
-12.75
-14.66
-16.57
-17.94
-18.18
-16.84
-13.92
-9.87
-5.4
-1.23
2.13
4.46
5.85
6.5
6.67
6.54
6.24
5.89
5.57
5.37
5.26
5.28
5.44
5.78
6.35
7.1
7.94
8.74
9.41
9.88
10.07
9.83
9.05
7.69
5.78
3.6
1.49
-0.28
-1.56
-2.34
-2.8
-3.09
-3.33
-3.59
-3.92
-4.34
-4.87
-5.48
-6.13
-6.85
-7.67
-8.74
-10.18
-12.05
-14.29
-16.59
-18.46
-19.46
-19.25
-17.77
-15.27
-12.23
-9.19
-6.62
-4.78
-3.63
-3.06
-2.82
-2.7
-2.62
-2.51
-2.36
-2.13
-1.76
-1.08
-0.05
1.43
3.31
5.4
7.56
9.53
11.15
12.29
12.89
12.95
12.62
11.91
10.97
9.92
8.88
7.99
7.38
7.06
6.97
7.01
6.95
6.66
6.12
5.34
4.46
3.57
2.67
1.69
0.5
-1.05
-3.12
-5.65
-8.44
-11.06
-12.97
-13.78
-13.27
-11.67
-9.45
-7.17
-5.23
-3.84
-2.92
-2.32
-1.9
-1.59
-1.37
-1.23
-1.11
-0.92
-0.6
-0.06
0.7
1.68
2.84
4.07
5.26
6.38
7.34
8.14
8.82
9.33
9.69
9.77
9.56
9.1
8.51
7.92
7.41
7.0
6.54
5.87
4.8
3.31
1.56
-0.17
-1.66
-2.8
-3.64
-4.43
-5.37
-6.68
-8.42
-10.49
-12.71
-14.81
-16.39
-17.05
-16.45
-14.38
-11.05
-7.02
-3.06
0.09
1.99
2.6
2.15
1.02
-0.45
-2.04
-3.59
-4.93
-5.84
-6.15
-5.76
-4.81
-3.5
-2.03
-0.55
0.94
2.44
3.98
5.49
6.87
7.91
8.48
8.53
8.11
7.35
6.41
5.41
4.41
3.4
2.26
0.86
-0.85
-2.9
-5.16
-7.48
-9.65
-11.51
-12.94
-13.96
-14.72
-15.4
-16.24
-17.37
-18.95
-20.99
-23.52
-26.43
-29.6
-33.01
-36.73
-40.85
-45.29
-49.75
-53.56
-55.8
-55.57
-52.17
-45.38
-35.49
-23.23
-9.57
4.48
17.93
30.0
40.09
47.9
53.31
56.45
57.51
56.83
54.84
51.96
48.6
45.04
41.42
37.83
34.32
30.88
27.58
24.53
21.88
19.69
17.97
16.58
15.34
14.1
12.73
11.17
9.45
7.56
5.49
3.2
0.68
-1.87
-4.12
-5.64
-6.08
-5.34
-3.63
-1.41
0.77
2.49
3.61
4.25
4.65
5.08
5.66
6.39
7.19
7.96
8.64
9.18
9.53
9.59
9.3
8.58
7.43
6.0
4.45
2.95
1.67
0.66
-0.09
-0.67
-1.24
-1.98
-2.98
-4.24
-5.66
-7.05
-8.23
-9.12
-9.69
-10.04
-10.35
-10.7
-11.18
-11.74
-12.37
-13.08
-13.91
-14.88
-15.94
-16.83
-17.09
-16.28
-14.13
-10.73
-6.57
-2.37
1.23
3.83
5.35
5.97
6.01
5.7
5.19
4.57
3.89
3.27
2.88
2.81
3.11
3.72
4.56
5.46
6.34
7.08
7.57
7.77
7.58
6.99
6.0
4.7
3.21
1.68
0.21
-1.17
-2.49
-3.8
-5.1
-6.37
-7.56
-8.63
-9.54
-10.36
-11.17
-12.05
-13.16
-14.6
-16.37
-18.43
-20.5
-22.14
-22.87
-22.22
-19.88
-15.94
-10.79
-5.05
0.56
5.48
9.4
12.27
14.2
15.38
15.9
15.84
15.3
14.46
13.55
12.79
12.35
12.29
12.58
13.16
13.95
14.81
15.52
15.89
15.72
14.92
13.54
11.74
9.72
7.69
5.77
4.0
2.4
0.96
-0.37
-1.59
-2.7
-3.73
-4.67
-5.59
-6.6
-7.8
-9.26
-10.94
-12.68
-14.24
-15.3
-15.57
-14.74
-12.57
-9.06
-4.45
0.69
5.67
9.8
12.64
14.11
14.46
14.09
13.33
12.41
11.41
10.4
9.41
8.59
8.02
7.77
7.87
8.27
8.88
9.59
10.19
10.48
10.4
9.9
9.05
8.0
6.83
5.57
4.21
2.71
1.14
-0.39
-1.75
-2.87
-3.7
-4.32
-4.85
-5.43
-6.22
-7.33
-8.84
-10.72
-12.8
-14.76
-16.21
-16.69
-15.85
-13.53
-9.85
-5.11
0.1
5.16
9.54
12.87
15.02
16.09
16.26
15.72
14.62
13.08
11.21
9.24
7.43
6.06
5.32
5.21
5.62
6.29
7.04
7.65
8.0
8.01
7.68
7.01
6.1
5.03
3.85
2.56
1.09
-0.56
-2.33
-4.12
-5.77
-7.23
-8.47
-9.52
-10.46
-11.29
-12.01
-12.64
-13.24
-13.83
-14.42
-14.78
-14.63
-13.64
-11.55
-8.38
-4.42
-0.23
3.62
6.6
8.51
9.41
9.58
9.34
8.87
8.25
7.46
6.53
5.54
4.66
4.07
3.83
3.87
4.09
4.43
4.92
5.64
6.66
7.92
9.25
10.34
10.9
10.72
9.84
8.4
6.52
4.35
1.94
-0.69
-3.51
-6.39
-9.15
-11.66
-13.82
-15.63
-17.11
-18.3
-19.22
-19.93
-20.51
-21.03
-21.57
-22.01
-22.09
-21.42
-19.7
-16.82
-13.04
-8.9
-5.03
-1.99
-0.02
0.96
1.24
1.11
0.82
0.43
-0.02
-0.48
-0.85
-0.94
-0.64
0.06
1.09
2.32
3.65
5.02
6.37
7.65
8.81
9.74
10.3
10.43
10.12
9.45
8.54
7.53
6.45
5.27
3.92
2.35
0.65
-0.97
-2.25
-3.04
-3.35
-3.27
-2.91
-2.41
-1.91
-1.56
-1.38
-1.22
-0.76
0.44
2.8
6.5
11.27
16.49
21.53
25.94
29.6
32.68
35.5
38.35
41.43
44.5
47.04
48.66
49.33
49.39
49.37
49.82
51.12
53.54
56.48
58.87
59.72
58.7
56.18
52.89
49.57
46.9
45.6
45.32
44.84
43.08
39.85
35.73
31.43
27.19
22.91
18.62
13.21
4.87
-7.83
-25.36
-47.61
-74.57
-106.72
-143.93
-176.52
-192.62
-184.31
-152.47
-105.27
-52.13
-0.03
46.13
84.22
112.7
133.43
146.74
152.28
150.24
141.76
128.23
108.82
82.71
53.04
22.97
-5.36
-30.69
-51.91
-67.91
-77.95
-85.04
-91.82
-99.24
-107.61
-118.17
-132.83
-152.63
-176.6
-202.04
-229.81
-260.29
-292.29
-323.69
-352.8
-378.68
-400.49
-417.37
-404.01
-349.55
-262.96
-166.81
-80.0
-9.1
48.05
95.66
136.31
170.55
193.74
204.82
205.95
201.97
197.47
194.78
194.01
194.29
194.95
193.2
186.37
175.8
165.24
157.89
154.37
152.83
150.28
143.95
130.52
108.97
81.45
52.24
25.76
5.2
-7.81
-12.92
-10.88
-4.27
4.09
12.32
19.7
26.52
33.42
40.85
48.71
56.25
62.06
65.21
65.84
65.01
63.93
63.29
62.9
62.14
60.48
57.96
55.35
53.68
53.67
55.33
58.08
61.0
63.38
64.95
65.85
66.58
67.61
69.31
71.84
75.17
79.05
83.04
86.5
88.66
88.79
86.27
80.83
72.68
62.48
51.18
39.91
29.57
20.66
13.13
6.42
-0.2
-7.15
-14.45
-21.58
-27.7
-32.31
-35.6
-38.71
-43.44
-51.62
-64.13
-80.35
-97.68
-111.97
-118.8
-114.86
-99.38
-74.61
-45.12
-16.19
7.87
25.25
36.83
45.44
54.31
65.58
79.18
92.82
102.46
103.49
92.24
67.32
30.54
-13.21
-57.16
-95.1
-123.32
-141.93
-154.18
-164.52
-176.13
-189.28
-201.18
-207.47
-204.74
-192.3
-173.28
-153.58
-140.16
-138.99
-152.94
-180.56
-216.08
-250.95
-276.28
-285.84
-277.99
-256.05
-226.7
-197.05
-171.85
-152.05
-135.32
-117.97
-97.18
-72.14
-43.79
-13.82
16.61
47.03
77.29
106.77
134.35
158.7
178.81
194.63
206.57
215.25
221.06
224.36
225.85
226.85
229.24
235.1
246.07
262.77
284.05
306.64
324.97
332.09
321.72
290.93
241.97
182.04
120.83
66.55
22.75
-12.4
-44.0
-77.04
-113.45
-151.51
-187.31
-217.2
-239.69
-255.82
-268.45
-280.53
-294.07
-309.44
-325.36
-338.99
-346.41
-343.59
-327.83
-298.87
-259.1
-212.45
-162.98
-113.79
-67.17
-25.5
8.13
30.75
41.23
41.82
38.09
36.65
42.16
55.06
72.1
88.6
101.28
109.49
114.39
116.97
116.89
113.07
104.91
93.39
80.21
66.15
49.81
28.39
0.11
-33.31
-66.2
-91.27
-103.61
-103.57
-96.99
-92.02
-94.72
-105.95
-121.48
-134.91
-141.46
-140.15
-133.39
-124.59
-115.54
-105.79
-93.68
-78.31
-60.86
-44.22
-31.15
-22.26
-15.52
-7.17
5.71
23.45
43.52
61.72
74.36
79.84
79.11
74.58
68.95
63.87
59.7
56.18
53.26
51.51
52.14
56.13
63.39
72.28
79.89
83.23
80.42
71.59
58.66
44.48
31.5
20.93
12.75
6.03
-0.49
-7.99
-17.43
-29.23
-43.08
-57.91
-72.33
-85.22
-96.3
-106.09
-114.96
-122.33
-126.32
-124.7
-116.36
-102.29
-85.21
-68.18
-52.88
-39.16
-25.76
-11.76
2.54
15.77
26.45
34.22
40.03
45.55
52.26
60.7
70.31
79.85
87.94
93.6
96.64
97.76
98.44
100.41
104.9
111.82
119.64
125.75
127.64
124.12
115.75
104.77
93.96
85.54
80.38
77.77
75.93
72.83
67.24
59.05
49.28
39.27
29.77
20.63
11.05
0.44
-10.57
-19.87
-24.62
-22.48
-13.02
1.87
18.74
34.12
45.93
54.07
59.74
64.36
68.49
71.74
73.2
72.31
69.34
65.32
61.47
58.61
56.98
56.32
56.26
56.37
56.28
55.59
53.88
50.92
46.74
41.63
35.87
29.67
23.03
16.0
8.79
1.8
-4.65
-10.35
-15.47
-20.21
-24.7
-28.8
-32.31
-35.17
-37.64
-40.34
-43.85
-48.62
-54.61
-61.25
-67.39
-71.51
-72.06
-68.03
-59.49
-47.64
-34.56
-22.32
-12.1
-3.85
3.39
10.67
18.32
25.62
31.25
34.12
34.02
31.86
29.13
27.28
27.02
28.17
29.82
30.92
30.76
29.22
26.78
24.15
21.96
20.4
19.21
17.78
15.56
12.27
8.03
3.3
-1.53
-6.28
-11.08
-16.21
-21.79
-27.62
-33.25
-38.27
-42.5
-46.19
-49.87
-53.74
-57.54
-60.31
-60.91
-58.48
-52.85
-44.66
-34.99
-24.96
-15.3
-6.3
2.03
9.73
16.74
22.78
27.53
30.7
32.15
32.04
30.68
28.51
26.01
23.61
21.68
20.49
20.29
21.14
22.85
24.84
26.26
26.33
24.69
21.59
17.71
13.8
10.27
7.06
3.83
0.28
-3.61
-7.64
-11.71
-15.99
-20.96
-27.06
-34.42
-42.62
-50.78
-57.89
-63.12
-66.04
-66.48
-64.65
-60.78
-55.2
-48.22
-40.21
-31.7
-23.45
-16.42
-11.61
-9.82
-11.33
-15.84
-22.56
-30.51
-38.74
-46.52
-53.25
-58.54
-62.2
-64.6
-66.81
-70.45
-77.22
-88.17
-103.03
-120.16
-137.17
-151.87
-163.17
-171.59
-178.99
-187.57
-198.96
-213.37
-229.65
-245.71
-259.3
-268.35
-271.27
-266.87
-254.36
-233.48
-204.67
-168.94
-127.4
-80.8
-29.28
27.36
88.73
152.9
216.09
273.3
319.9
353.3
373.94
384.84
390.35
394.17
398.0
401.16
401.25
395.55
382.48
362.26
336.93
309.5
282.92
259.34
239.96
225.38
215.93
211.84
212.78
217.31
222.46
224.14
218.21
201.86
174.52
137.97
95.56
51.06
7.71
-32.0
-66.38
-94.06
-114.08
-126.13
-130.68
-129.12
-123.3
-114.9
-104.85
-93.32
-79.81
-63.9
-45.62
-25.65
-5.32
13.8
30.26
43.05
51.58
55.73
55.52
51.12
42.82
31.23
17.44
2.98
-10.47
-21.54
-29.59
-34.86
-38.24
-40.71
-42.95
-45.05
-46.68
-47.44
-47.14
-46.0
-44.46
-43.03
-42.04
-41.55
-41.53
-42.01
-43.13
-45.08
-48.0
-51.75
-55.94
-60.02
-63.55
-66.21
-67.95
-68.9
-69.19
-68.96
-68.27
-67.23
-66.0
-64.87
-64.08
-63.7
-63.58
-63.35
-62.58
-60.83
-57.89
-53.76
-48.67
-43.04
-37.28
-31.74
-26.64
-22.08
-18.04
-14.58
-11.65
-9.27
-7.37
-5.93
-4.72
-3.63
-2.54
-1.5
-0.67
-0.21
-0.22
-0.58
-1.11
-1.52
-1.73
-1.85
-2.28
-3.4
-5.42
-8.2
-11.31
-14.24
-16.63
-18.44
-19.8
-20.91
-21.9
-22.78
-23.56
-24.28
-25.13
-26.33
-27.96
-29.84
-31.54
-32.66
-32.92
-32.33
-31.03
-29.26
-27.18
-24.81
-22.13
-19.17
-16.1
-13.15
-10.54
-8.28
-6.35
-4.64
-3.09
-1.77
-0.76
-0.1
0.29
0.56
0.9
1.31
1.64
1.64
1.02
-0.26
-2.09
-4.17
-6.21
-7.99
-9.46
-10.66
-11.7
-12.73
-13.77
-14.78
-15.67
-16.29
-16.59
-16.55
-16.31
-16.07
-16.13
-16.7
-17.84
-19.45
-21.14
-22.42
-22.64
-21.22
-17.79
-12.52
-6.03
0.64
6.36
10.37
12.39
12.69
11.92
10.74
9.61
8.63
7.64
6.47
5.15
3.87
2.86
2.32
2.23
2.4
2.5
2.23
1.41
0.1
-1.49
-3.12
-4.63
-5.95
-7.08
-8.04
-8.87
-9.66
-10.41
-11.1
-11.68
-12.02
-12.06
-11.76
-11.13
-10.4
-9.84
-9.76
-10.32
-11.52
-13.17
-15.02
-16.62
-17.44
-16.86
-14.39
-9.88
-3.71
3.18
9.58
14.41
17.12
17.86
17.26
16.11
14.96
14.0
13.09
12.13
11.02
9.88
8.83
7.88
6.89
5.65
4.05
2.14
0.21
-1.4
-2.49
-2.96
-3.03
-2.93
-2.94
-3.16
-3.6
-4.27
-5.17
-6.45
-8.14
-10.24
-12.5
-14.57
-16.01
-16.55
-16.19
-15.26
-14.26
-13.71
-13.96
-15.06
-16.78
-18.55
-19.6
-19.09
-16.39
-11.35
-4.43
3.32
10.58
16.23
19.64
20.85
20.35
18.83
16.76
14.42
11.88
9.23
6.76
4.79
3.59
3.19
3.34
3.69
3.96
4.06
4.11
4.28
4.66
5.15
5.49
5.49
5.05
4.29
3.44
2.63
1.81
0.81
-0.59
-2.42
-4.48
-6.45
-7.97
-8.97
-9.61
-10.35
-11.62
-13.68
-16.51
-19.85
-23.29
-26.15
-27.62
-26.8
-23.11
-16.51
-7.73
1.86
10.69
17.42
21.44
22.87
22.26
20.33
17.7
14.78
11.93
9.5
7.74
6.78
6.49
6.53
6.56
6.33
5.74
4.93
4.18
3.64
3.44
3.46
3.47
3.21
2.46
1.16
-0.59
-2.55
-4.53
-6.34
-7.89
-9.1
-9.96
-10.48
-10.74
-10.86
-10.92
-11.02
-11.24
-11.6
-12.24
-13.3
-14.96
-17.31
-20.23
-23.2
-25.34
-25.54
-22.88
-16.98
-8.36
1.66
11.33
19.11
24.11
26.37
26.58
25.6
24.04
22.05
19.56
16.45
12.92
9.36
6.28
3.99
2.54
1.72
1.28
1.1
1.14
1.53
2.33
3.56
5.06
6.56
7.66
8.07
7.6
6.33
4.57
2.77
1.3
0.27
-0.55
-1.53
-2.94
-4.71
-6.53
-7.95
-8.7
-8.93
-9.05
-9.65
-11.06
-13.32
-16.14
-19.12
-21.65
-23.17
-23.03
-20.64
-15.72
-8.52
0.04
8.59
15.64
20.22
22.0
21.31
18.91
15.63
12.14
8.92
6.29
4.5
3.68
3.81
4.65
5.83
7.01
8.01
8.81
9.54
10.34
11.25
12.15
12.83
13.1
12.72
11.58
9.66
7.09
4.1
1.03
-1.85
-4.3
-6.17
-7.55
-8.63
-9.62
-10.57
-11.44
-12.13
-12.6
-12.96
-13.46
-14.42
-16.02
-18.08
-19.96
-20.69
-19.31
-15.27
-8.79
-0.83
7.17
13.78
18.08
19.88
19.66
18.28
16.53
14.86
13.39
12.15
11.22
10.76
10.89
11.58
12.47
13.06
12.83
11.64
9.76
7.75
6.25
5.58
5.68
6.11
6.36
6.01
4.98
3.47
1.85
0.5
-0.4
-0.9
-1.23
-1.69
-2.5
-3.72
-5.28
-6.95
-8.53
-9.82
-10.83
-11.66
-12.48
-13.49
-14.89
-16.78
-19.12
-21.58
-23.49
-23.94
-22.08
-17.48
-10.39
-1.83
6.78
14.05
19.08
21.65
22.1
21.05
19.07
16.58
13.85
11.11
8.62
6.6
5.25
4.63
4.68
5.23
6.01
6.77
7.33
7.65
7.86
8.12
8.5
8.87
8.93
8.3
6.68
4.06
0.77
-2.57
-5.31
-7.11
-8.01
-8.5
-9.37
-11.29
-14.48
-18.56
-22.79
-26.27
-28.5
-29.43
-29.49
-29.38
-29.66
-30.55
-31.81
-32.83
-32.6
-29.98
-23.83
-13.54
0.69
17.65
35.13
50.42
60.97
65.28
63.36
56.64
47.44
38.14
30.34
24.61
20.58
17.6
15.18
13.33
12.29
12.3
13.21
14.5
15.48
15.59
14.59
12.5
9.44
5.44
0.71
-4.3
-8.87
-12.18
-13.56
-12.87
-10.58
-7.73
-5.46
-4.65
-5.49
-7.5
-9.58
-10.5
-9.25
-5.43
0.42
7.09
12.96
16.72
18.0
17.74
17.75
20.06
25.78
34.56
44.63
53.55
59.22
60.66
58.23
52.96
46.02
38.22
30.08
22.15
15.19
10.02
7.1
6.09
5.77
4.67
1.6
-3.77
-10.79
-18.28
-25.09
-30.48
-34.16
-36.15
-36.42
-35.05
-32.22
-28.31
-24.1
-20.3
-17.39
-15.5
-14.4
-13.74
-13.36
-13.37
-13.93
-15.23
-17.19
-19.47
-21.67
-23.5
-24.89
-25.88
-26.53
-26.75
-26.43
-25.46
-23.81
-21.57
-18.96
-16.22
-13.45
-10.7
-7.88
-5.02
-2.26
0.21
2.17
3.49
4.17
4.36
4.28
4.16
4.15
4.29
4.53
4.81
5.09
5.39
5.74
6.21
6.83
7.54
8.21
8.71
8.96
8.97
8.86
8.78
8.75
8.77
8.71
8.38
7.68
6.53
4.95
3.07
1.04
-0.93
-2.7
-4.11
-5.03
-5.37
-5.06
-4.16
-2.89
-1.56
-0.47
0.15
0.3
0.18
0.04
0.08
0.31
0.59
0.72
0.69
0.68
0.96
1.74
2.91
4.14
4.94
5.02
4.31
3.05
1.65
0.4
-0.51
-1.19
-1.81
-2.62
-3.65
-4.86
-6.09
-7.1
-7.72
-7.95
-7.99
-8.15
-8.73
-9.69
-10.78
-11.52
-11.41
-10.23
-8.05
-5.24
-2.22
0.67
3.25
5.41
7.05
8.06
8.26
7.56
6.04
3.96
1.7
-0.29
-1.69
-2.38
-2.41
-2.02
-1.47
-0.95
-0.51
-0.13
0.22
0.57
0.86
1.11
1.36
1.62
1.89
2.07
2.1
1.91
1.57
1.19
0.96
0.92
1.02
1.13
1.04
0.61
-0.25
-1.55
-3.28
-5.33
-7.6
-9.85
-11.84
-13.44
-14.64
-15.67
-16.85
-18.47
-20.67
-23.38
-26.39
-29.42
-32.24
-34.76
-37.05
-39.23
-41.48
-43.91
-46.61
-49.65
-52.99
-56.61
-60.36
-64.03
-67.41
-70.22
-72.14
-73.02
-72.79
-71.51
-69.42
-66.69
-63.45
-59.63
-55.02
-49.34
-42.38
-34.31
-25.48
-16.53
-7.9
0.16
7.74
15.1
22.48
29.93
37.27
44.25
50.65
56.41
61.66
66.41
70.52
73.74
75.87
77.09
77.95
79.19
81.41
84.61
88.17
91.13
92.58
92.23
90.4
87.94
85.69
84.21
83.57
83.45
83.42
82.85
81.25
78.24
73.9
68.88
64.5
62.37
63.75
69.0
77.19
86.41
94.37
99.27
100.04
96.6
89.3
78.71
65.4
50.04
33.47
16.7
0.78
-13.55
-25.94
-36.36
-44.93
-51.7
-56.54
-59.32
-60.1
-59.22
-57.19
-54.59
-51.75
-48.79
-45.76
-42.68
-39.84
-37.65
-36.63
-37.06
-38.97
-42.04
-45.84
-49.94
-54.02
-58.01
-61.94
-65.93
-70.07
-74.25
-78.16
-81.35
-83.24
-83.23
-80.83
-75.77
-68.11
-58.47
-47.81
-37.4
-28.57
-22.24
-18.67
-17.34
-17.17
-16.92
-15.63
-12.72
-7.95
-1.16
8.06
20.24
35.63
53.81
73.35
92.02
107.58
118.39
123.97
124.89
122.12
116.37
107.86
96.44
82.23
65.99
49.16
33.39
19.94
9.2
0.77
-6.18
-12.57
-19.02
-25.72
-32.57
-39.17
-45.12
-50.12
-53.99
-56.81
-58.83
-60.35
-61.52
-62.29
-62.34
-61.39
-59.5
-57.06
-54.87
-53.76
-54.38
-56.87
-60.93
-65.85
-71.03
-76.13
-81.35
-87.26
-94.47
-103.15
-112.97
-123.11
-132.59
-140.84
-147.94
-154.64
-161.96
-170.64
-180.62
-191.17
-201.03
-208.76
-212.83
-211.73
-204.0
-188.55
-165.13
-134.93
-100.88
-67.16
-38.29
-17.52
-5.93
-2.15
-3.27
-6.07
-8.41
-9.61
-10.01
-10.2
-10.18
-9.18
-6.2
-0.62
7.43
16.98
26.95
36.62
45.82
54.74
63.62
72.49
81.14
89.23
96.38
102.39
107.16
110.67
113.05
114.59
115.59
116.34
116.92
117.24
117.17
116.59
115.51
114.26
113.19
112.63
112.77
113.53
114.64
115.75
116.4
115.94
113.83
109.44
102.33
92.39
79.96
65.87
51.16
36.75
23.06
10.1
-2.67
-15.75
-29.42
-43.51
-57.33
-69.81
-79.67
-85.71
-87.05
-83.62
-76.0
-65.45
-53.7
-42.3
-32.33
-24.14
-17.49
-11.77
-6.57
-1.68
2.91
6.93
10.23
12.66
14.17
14.91
15.12
15.2
15.55
16.49
18.01
19.82
21.4
22.15
21.71
19.95
16.95
12.78
7.52
1.12
-6.31
-14.72
-23.87
-33.5
-43.34
-53.13
-62.72
-71.96
-80.77
-89.12
-97.12
-105.09
-113.38
-122.17
-131.08
-138.97
-143.92
-143.71
-136.37
-121.01
-98.27
-70.2
-39.75
-9.88
17.13
39.95
58.16
71.84
81.37
87.17
89.8
90.03
88.87
87.33
86.2
85.95
86.57
87.75
89.04
90.02
90.4
90.14
89.3
87.97
86.19
83.75
80.27
75.25
68.33
59.42
48.81
37.17
25.33
14.07
3.75
-5.72
-14.99
-24.97
-36.53
-50.18
-65.7
-81.95
-96.97
-108.28
-113.42
-110.67
-99.6
-81.18
-57.65
-31.7
-5.93
17.81
38.52
55.89
69.94
80.74
88.35
92.92
94.91
95.02
94.21
93.46
93.49
94.64
96.73
99.31
101.76
103.6
104.64
104.99
104.76
103.97
102.25
98.96
93.52
85.61
75.49
63.96
52.06
40.58
29.89
19.78
9.72
-0.84
-12.37
-24.97
-38.36
-51.76
-63.77
-72.54
-76.06
-72.77
-62.21
-45.3
-24.11
-1.25
20.98
41.01
58.24
72.59
84.05
92.59
97.99
100.27
99.82
97.4
94.01
90.66
87.98
86.16
85.14
84.6
84.26
83.8
82.97
81.6
79.61
76.95
73.53
69.21
63.86
57.29
49.47
40.6
31.11
21.58
12.52
4.23
-3.32
-10.34
-17.16
-24.04
-31.31
-39.28
-48.14
-57.75
-67.37
-75.59
-80.59
-80.59
-74.55
-62.55
-45.91
-26.67
-7.04
11.2
26.99
39.93
49.99
57.24
61.8
63.72
63.25
60.82
57.21
53.25
49.75
47.17
45.57
44.74
44.18
43.55
42.6
41.4
40.11
38.85
37.54
35.89
33.64
30.41
26.08
20.75
14.67
8.31
2.04
-3.91
-9.6
-15.17
-20.98
-27.28
-34.28
-42.11
-50.68
-59.65
-68.21
-75.08
-78.65
-77.48
-70.72
-58.67
-42.66
-24.71
-7.01
8.79
21.75
31.66
38.66
43.1
45.27
45.41
43.92
41.39
38.54
36.05
34.39
33.71
33.93
34.74
35.73
36.52
36.81
36.44
35.36
33.65
31.43
28.83
25.86
22.51
18.71
14.35
9.49
4.14
-1.6
-7.58
-13.57
-19.41
-24.93
-30.1
-35.05
-39.98
-45.23
-51.13
-57.87
-65.31
-72.8
-79.1
-82.66
-82.07
-76.46
-66.03
-51.97
-36.1
-20.35
-6.27
5.3
14.07
20.25
24.2
26.3
27.02
26.83
26.3
25.88
25.97
26.7
27.96
29.58
31.31
33.01
34.61
36.02
37.14
37.78
37.68
36.53
34.17
30.6
26.0
20.72
15.08
9.36
3.76
-1.71
-7.11
-12.49
-17.89
-23.16
-28.16
-32.69
-36.7
-40.27
-43.71
-47.43
-51.85
-57.28
-63.63
-70.21
-75.77
-78.75
-77.7
-71.77
-61.18
-47.11
-31.44
-16.14
-2.66
8.18
16.22
21.77
25.27
27.1
27.62
27.12
25.93
24.5
23.26
22.52
22.44
22.91
23.64
24.29
24.67
24.78
24.75
24.73
24.77
24.72
24.38
23.57
22.31
20.77
19.19
17.75
16.4
14.9
12.9
10.13
6.57
2.45
-1.88
-6.01
-9.73
-12.95
-15.82
-18.57
-21.55
-25.08
-29.44
-34.69
-40.53
-46.23
-50.62
-52.52
-50.98
-45.75
-37.45
-27.28
-16.69
-6.97
1.15
7.4
11.88
14.84
16.49
17.01
16.55
15.38
13.76
12.03
10.43
9.0
7.65
6.24
4.65
2.89
1.14
-0.4
-1.62
-2.63
-3.73
-5.25
-7.41
-10.16
-13.29
-16.56
-19.82
-23.14
-26.65
-30.47
-34.45
-38.29
-41.57
-43.99
-45.73
-47.47
-50.26
-55.33
-63.64
-75.58
-90.7
-107.72
-124.73
-139.62
-150.49
-156.11
-156.02
-150.68
-141.25
-129.21
-116.08
-103.15
-91.25
-80.71
-71.42
-62.79
-54.18
-45.0
-34.8
-23.52
-11.19
2.04
16.14
30.99
46.37
61.72
76.22
89.05
99.57
107.58
113.19
116.61
117.94
117.17
114.27
109.48
103.34
96.53
89.72
83.18
76.85
70.46
63.77
56.72
49.45
42.12
34.63
26.75
18.18
8.64
-1.81
-12.88
-24.18
-35.28
-45.67
-54.84
-62.0
-66.16
-66.48
-62.5
-54.44
-43.28
-30.57
-17.9
-6.75
2.08
8.23
11.95
13.78
14.4
14.49
14.6
15.23
16.69
19.32
23.29
28.63
35.15
42.43
49.95
57.18
63.69
69.11
73.11
75.53
76.34
75.82
74.32
72.27
69.73
66.52
62.08
55.77
47.24
36.49
24.05
10.77
-2.25
-14.07
-24.05
-31.96
-38.08
-42.98
-47.44
-52.1
-57.29
-62.87
-68.22
-72.35
-74.19
-72.84
-68.01
-60.07
-50.0
-39.11
-28.73
-19.85
-12.97
-8.11
-4.89
-2.83
-1.42
-0.37
0.48
1.14
1.58
1.81
1.79
1.5
0.92
0.09
-0.95
-2.02
-2.99
-3.86
-4.81
-6.13
-8.08
-10.73
-13.84
-16.97
-19.65
-21.57
-22.81
-23.75
-24.85
-26.54
-29.0
-32.1
-35.56
-39.01
-42.1
-44.72
-46.89
-48.81
-50.88
-53.56
-57.19
-61.71
-66.58
-70.6
-72.31
-70.37
-64.11
-53.86
-40.84
-26.83
-13.54
-2.16
6.86
13.67
18.63
22.09
24.18
24.89
24.27
22.49
19.96
17.17
14.68
12.89
11.92
11.73
12.1
12.75
13.42
13.89
14.0
13.66
12.72
11.08
8.6
5.2
0.94
-4.03
-9.42
-14.93
-20.25
-25.21
-29.77
-33.94
-37.87
-41.68
-45.66
-50.1
-55.26
-61.07
-67.02
-72.04
-74.69
-73.57
-67.81
-57.47
-43.64
-28.15
-12.94
0.45
11.28
19.54
25.72
30.36
33.77
36.02
37.0
36.7
35.37
33.57
31.96
31.11
31.32
32.52
34.38
36.43
38.17
39.28
39.52
38.76
36.92
34.03
30.28
26.01
21.66
17.55
13.84
10.4
7.02
3.43
-0.42
-4.41
-8.31
-12.01
-15.7
-19.89
-25.34
-32.61
-41.71
-51.72
-61.0
-67.5
-69.53
-66.3
-58.18
-46.55
-33.29
-20.15
-8.35
1.52
9.34
15.24
19.39
22.01
23.35
23.74
23.55
23.09
22.67
22.5
22.76
23.57
24.99
26.82
28.84
30.69
32.06
32.82
32.97
32.61
31.81
30.62
28.91
26.57
23.47
19.55
14.86
9.54
3.86
-1.95
-7.71
-13.34
-18.84
-24.28
-29.85
-35.69
-42.0
-48.76
-55.63
-61.82
-66.08
-67.03
-63.6
-55.54
-43.49
-28.99
-13.84
0.36
12.58
22.51
30.28
36.17
40.41
43.06
44.18
43.91
42.6
40.75
38.85
37.33
36.36
35.97
36.01
36.3
36.68
37.04
37.3
37.41
37.17
36.38
34.87
32.52
29.36
25.47
20.97
16.0
10.67
5.1
-0.5
-5.93
-10.98
-15.51
-19.58
-23.4
-27.27
-31.59
-36.66
-42.54
-48.9
-54.85
-59.07
-60.12
-57.01
-49.61
-38.78
-26.17
-13.53
-2.31
6.86
13.95
19.39
23.49
26.41
28.12
28.58
28.06
26.94
25.76
24.98
24.86
25.36
26.3
27.41
28.52
29.47
30.11
30.3
29.88
28.77
26.99
24.72
22.12
19.37
16.41
13.06
9.16
4.7
-0.16
-5.07
-9.66
-13.67
-17.08
-20.13
-23.22
-26.85
-31.33
-36.8
-43.05
-49.38
-54.73
-57.81
-57.51
-53.25
-45.26
-34.52
-22.59
-11.06
-1.1
6.8
12.79
17.36
21.0
23.87
25.8
26.4
25.43
23.03
19.81
16.7
14.62
14.24
15.72
18.72
22.61
26.65
30.19
32.78
34.17
34.32
33.39
31.54
29.05
26.09
22.86
19.5
16.04
12.58
9.21
6.01
2.96
-0.02
-3.06
-6.3
-9.9
-13.95
-18.53
-23.72
-29.47
-35.52
-41.22
-45.46
-47.07
-45.11
-39.36
-30.39
-19.52
-8.33
1.8
10.04
16.13
20.19
22.6
23.67
23.79
23.32
22.56
21.8
21.14
20.61
20.19
19.87
19.72
19.84
20.27
20.89
21.41
21.39
20.47
18.46
15.43
11.76
7.89
4.2
0.82
-2.31
-5.4
-8.65
-12.1
-15.65
-19.06
-22.14
-24.86
-27.34
-29.79
-32.49
-35.71
-39.63
-44.3
-49.46
-54.46
-58.31
-59.84
-57.98
-52.21
-42.77
-30.63
-17.28
-4.25
7.23
16.45
23.25
27.85
30.7
32.21
32.7
32.32
31.27
29.68
27.89
26.26
25.11
24.64
24.78
25.23
25.6
25.69
25.37
24.7
23.67
22.15
20.01
17.13
13.7
10.07
6.67
3.82
1.4
-1.03
-4.12
-8.28
-13.6
-19.6
-25.51
-30.62
-34.48
-37.04
-38.64
-39.94
-41.54
-44.0
-47.52
-51.81
-56.06
-58.97
-59.09
-55.43
-47.81
-37.05
-24.71
-12.51
-1.85
6.58
12.85
17.43
20.84
23.43
25.36
26.64
27.36
27.65
27.71
27.71
27.7
27.62
27.42
27.15
26.89
26.85
27.09
27.5
27.71
27.25
25.73
23.01
19.32
15.06
10.74
6.61
2.72
-1.2
-5.39
-10.01
-14.97
-19.95
-24.52
-28.3
-31.13
-33.07
-34.46
-35.87
-37.97
-41.35
-46.23
-52.23
-58.34
-63.11
-65.0
-62.91
-56.55
-46.47
-33.96
-20.61
-7.91
3.09
11.89
18.45
23.04
26.04
27.87
28.86
29.35
29.57
29.72
29.99
30.35
30.76
31.1
31.29
31.29
31.2
31.15
31.21
31.37
31.35
30.86
29.56
27.27
24.08
20.36
16.54
13.02
9.99
7.25
4.5
1.4
-2.24
-6.38
-10.71
-14.87
-18.6
-21.8
-24.62
-27.39
-30.46
-34.23
-38.86
-44.2
-49.59
-53.94
-55.98
-54.66
-49.54
-40.89
-29.85
-17.82
-6.27
3.79
11.99
18.38
23.25
26.84
29.24
30.38
30.35
29.36
27.8
26.3
25.3
24.99
25.26
25.8
26.3
26.64
26.82
26.84
26.64
26.03
24.76
22.66
19.77
16.36
12.8
9.35
6.08
2.9
-0.39
-3.94
-7.67
-11.42
-14.93
-17.95
-20.48
-22.68
-24.93
-27.72
-31.46
-36.34
-42.25
-48.67
-54.56
-58.61
-59.5
-56.32
-48.91
-38.0
-24.96
-11.49
0.9
11.24
19.07
24.45
27.62
29.01
29.09
28.38
27.35
26.45
25.94
25.86
26.09
26.42
26.6
26.51
26.15
25.63
25.15
24.94
24.97
25.1
24.95
24.09
22.14
18.98
14.78
9.95
5.05
0.55
-3.2
-6.26
-8.82
-11.28
-14.03
-17.23
-20.88
-24.74
-28.51
-31.96
-35.09
-38.22
-41.8
-46.2
-51.4
-56.73
-60.93
-62.53
-60.3
-53.83
-43.72
-31.35
-18.4
-6.22
4.41
13.34
20.71
26.68
31.3
34.51
36.32
36.93
36.76
36.31
36.0
36.04
36.42
36.91
37.25
37.26
36.85
36.12
35.17
34.12
32.96
31.64
29.92
27.63
24.67
21.05
16.98
12.66
8.39
4.26
0.25
-3.77
-7.98
-12.47
-17.19
-21.87
-26.09
-29.34
-31.29
-31.82
-31.26
-30.29
-29.73
-30.39
-32.66
-36.31
-40.48
-43.83
-44.92
-42.76
-37.16
-28.75
-18.82
-8.74
0.51
8.5
15.36
21.23
26.17
29.88
32.06
32.6
31.76
30.18
28.49
27.2
26.31
25.71
25.17
24.64
24.21
23.92
23.78
23.52
22.8
21.31
18.97
15.99
12.72
9.53
6.6
3.89
1.11
-2.1
-5.95
-10.52
-15.59
-20.75
-25.46
-29.35
-32.18
-34.1
-35.58
-37.25
-39.84
-43.74
-48.89
-54.43
-59.02
-61.11
-59.37
-53.34
-43.45
-31.03
-17.8
-5.43
4.98
12.96
18.61
22.38
24.77
26.28
27.27
28.03
28.81
29.73
30.85
32.09
33.24
34.05
34.38
34.15
33.5
32.75
32.18
31.93
31.9
31.73
30.94
29.18
26.31
22.57
18.42
14.28
10.35
6.57
2.6
-1.87
-6.98
-12.61
-18.32
-23.6
-28.0
-31.25
-33.4
-34.92
-36.5
-38.96
-43.0
-48.77
-55.74
-62.65
-67.66
-69.05
-65.77
-57.68
-45.65
-31.32
-16.43
-2.54
9.41
19.08
26.45
31.73
35.19
37.07
37.56
37.0
35.74
34.2
32.79
31.69
30.92
30.32
29.75
29.12
28.64
28.54
29.03
30.08
31.29
32.1
31.94
30.51
27.89
24.59
21.2
18.21
15.78
13.65
11.39
8.53
4.78
0.17
-4.94
-10.16
-15.18
-19.85
-24.3
-28.77
-33.57
-39.04
-45.49
-52.91
-60.92
-68.55
-74.35
-76.72
-74.35
-66.86
-54.93
-40.15
-24.54
-10.0
2.28
11.79
18.61
23.14
25.78
26.92
26.9
26.16
25.14
24.32
24.07
24.46
25.39
26.6
27.86
29.06
30.26
31.55
32.99
34.49
35.7
36.13
35.36
33.17
29.77
25.6
21.23
17.16
13.68
10.78
8.22
5.65
2.81
-0.46
-4.19
-8.2
-12.29
-16.21
-19.88
-23.4
-27.09
-31.48
-37.11
-44.16
-52.21
-60.18
-66.43
-69.33
-67.72
-61.4
-51.19
-38.65
-25.47
-13.01
-1.97
7.47
15.36
21.68
26.24
28.85
29.5
28.57
26.69
24.58
22.81
21.68
21.2
21.24
21.77
22.76
24.25
26.19
28.33
30.36
31.87
32.49
31.97
30.26
27.55
24.15
20.43
16.65
12.92
9.14
5.1
0.62
-4.38
-9.72
-15.23
-20.67
-26.06
-31.48
-37.24
-43.72
-51.25
-59.97
-69.61
-79.35
-87.79
-93.39
-94.72
-91.24
-83.51
-73.03
-61.83
-51.65
-43.59
-37.77
-33.8
-30.97
-28.57
-26.05
-22.92
-18.83
-13.39
-6.38
2.22
12.1
22.65
33.17
43.04
51.99
59.98
67.19
73.6
78.88
82.42
83.52
81.86
77.65
71.76
65.26
59.0
53.23
47.61
41.44
34.12
25.51
15.93
6.14
-3.03
-10.96
-17.43
-22.55
-26.73
-30.58
-34.64
-39.42
-45.2
-51.85
-58.68
-64.42
-67.51
-66.61
-61.16
-51.58
-39.31
-26.28
-14.35
-4.73
2.3
7.1
10.3
12.42
13.73
14.32
14.38
14.29
14.59
15.75
17.95
20.94
24.26
27.48
30.38
33.07
35.78
38.6
41.37
43.7
45.09
45.22
44.09
41.91
39.13
36.15
33.17
30.12
26.69
22.51
17.21
10.66
2.98
-5.46
-14.01
-21.9
-28.34
-32.79
-35.09
-35.63
-35.34
-35.42
-36.91
-40.28
-45.18
-50.46
-54.49
-55.65
-52.71
-45.09
-33.07
-17.55
-0.08
17.37
32.71
43.96
49.63
49.19
43.12
33.08
21.51
11.16
4.34
2.48
5.77
13.09
22.54
31.91
39.35
43.84
45.21
44.13
41.65
38.92
36.68
35.25
34.31
33.22
31.26
27.91
23.1
17.21
10.88
4.71
-0.98
-6.25
-11.38
-16.65
-22.24
-28.23
-34.53
-40.96
-47.06
-51.91
-54.32
-53.11
-47.6
-37.99
-25.52
-11.96
0.87
11.74
20.24
26.58
31.07
34.03
35.43
35.27
33.72
31.29
28.69
26.63
25.62
25.69
26.66
28.09
29.61
30.95
31.87
32.23
31.91
30.87
29.2
27.2
25.17
23.46
22.25
21.44
20.75
19.81
18.22
15.76
12.36
8.04
2.85
-3.16
-9.84
-16.92
-24.04
-30.89
-37.4
-43.86
-50.76
-58.47
-66.67
-74.07
-78.69
-78.57
-72.57
-61.04
-45.83
-29.56
-14.77
-3.1
5.03
10.08
12.93
14.37
14.85
14.43
13.06
10.69
7.44
3.79
0.35
-2.11
-2.95
-1.84
1.2
5.92
11.81
18.05
23.4
26.23
25.05
19.18
9.33
-2.12
-11.89
-17.0
-16.01
-9.41
0.62
11.56
21.59
30.01
37.29
44.2
51.31
58.63
65.77
72.15
77.17
80.36
81.06
78.6
72.36
62.11
48.32
32.28
15.98
1.83
-7.72
-10.76
-6.37
4.86
20.84
38.34
53.77
64.31
68.55
66.78
60.52
51.72
41.86
31.76
21.92
12.99
6.12
2.61
3.25
7.61
14.25
21.34
27.71
33.45
39.51
46.73
54.94
62.59
67.51
68.07
64.29
57.82
51.07
45.8
41.98
37.77
30.51
18.5
2.25
-15.11
-29.1
-35.99
-34.85
-27.96
-19.84
-15.1
-16.14
-22.5
-31.66
-40.84
-48.78
-56.25
-65.03
-76.34
-89.45
-101.32
-107.92
-105.97
-94.6
-76.0
-54.77
-36.26
-24.67
-21.93
-27.54
-39.59
-56.19
-76.15
-98.77
-122.67
-144.82
-160.34
-163.65
-150.35
-119.21
-72.95
-17.52
39.52
91.35
133.47
164.24
184.16
194.73
197.27
192.44
180.45
161.31
135.5
103.8
67.17
26.39
-17.76
-64.12
-110.63
-153.9
-189.82
-214.39
-224.99
-221.5
-206.54
-184.78
-161.64
-141.68
-127.06
-117.35
-109.99
-101.58
-89.55
-72.98
-52.64
-30.32
-7.92
13.16
32.03
48.05
60.45
68.29
70.96
68.57
62.31
54.07
45.84
39.0
33.98
30.44
27.65
25.21
23.07
21.31
19.63
16.94
11.54
1.87
-12.54
-30.5
-49.27
-65.39
-75.92
-79.19
-74.94
-63.92
-47.32
-26.44
-2.69
22.23
46.42
68.11
86.42
101.8
115.8
130.49
147.36
166.63
187.0
206.12
221.43
230.97
233.82
230.07
220.65
207.1
191.36
175.75
162.67
154.17
151.4
154.16
160.8
168.81
175.85
180.54
183.13
185.11
188.45
194.34
202.39
210.45
215.15
213.09
201.84
180.78
150.99
114.93
75.63
36.22
-0.43
-32.12
-57.39
-76.05
-89.12
-98.64
-107.09
-116.4
-127.37
-139.36
-150.9
-160.55
-167.91
-173.77
-179.55
-186.48
-194.5
-202.13
-206.95
-206.75
-200.53
-189.0
-174.18
-158.32
-143.24
-129.83
-118.47
-109.62
-104.32
-103.96
-109.58
-121.01
-136.45
-152.99
-167.74
-179.02
-187.1
-193.94
-202.2
-213.99
-230.32
-251.09
-275.56
-303.07
-333.11
-364.94
-397.09
-427.36
-453.35
-473.45
-487.07
-494.16
-494.29
-485.76
-465.82
-431.78
-382.7
-320.19
-248.28
-172.02
-96.03
-23.62
43.39
104.36
159.54
210.1
258.13
306.07
355.27
404.39
448.67
481.02
494.54
485.24
453.79
404.97
345.53
281.63
217.39
155.1
96.59
44.47
2.39
-25.98
-38.65
-36.46
-23.21
-4.53
13.71
26.76
31.98
28.91
19.03
5.02
-10.09
-23.82
-34.63
-41.85
-45.41
-45.39
-41.89
-35.3
-26.62
-17.68
-10.78
-8.1
-10.78
-18.71
-30.62
-44.74
-59.19
-72.11
-81.52
-84.93
-79.48
-62.46
-32.4
10.19
62.48
119.89
177.21
229.91
275.26
312.59
343.16
369.32
393.64
418.17
443.92
470.68
497.24
521.31
539.86
549.33
546.22
527.99
494.02
445.92
387.17
322.18
255.04
188.84
125.49
66.1
11.34
-38.27
-82.6
-122.38
-159.06
-194.27
-229.05
-263.52
-297.23
-329.79
-361.2
-392.42
-425.71
-464.15
-510.57
-565.62
-626.28
-685.87
-734.74
-762.25
-760.0
-725.1
-660.96
-575.43
-477.7
-375.8
-277.02
-187.16
-109.53
-44.61
9.32
55.41
97.58
139.26
182.26
224.09
260.33
288.49
309.91
327.72
344.57
361.15
375.8
384.64
379.92
353.4
301.33
226.53
135.96
37.89
-59.7
-150.23
-212.28
-226.45
-193.34
-134.02
-70.55
-14.19
32.31
69.46
98.13
119.18
131.37
133.65
128.3
121.02
117.2
119.11
125.79
134.67
142.05
142.96
133.77
114.64
89.58
63.31
38.62
17.01
-1.74
-18.88
-36.62
-56.19
-76.26
-93.17
-103.52
-105.9
-101.5
-93.37
-84.99
-79.6
-79.16
-83.78
-91.61
-99.45
-103.26
-98.75
-82.6
-53.95
-15.97
24.16
57.51
76.82
79.7
69.6
54.18
41.48
36.26
38.38
43.92
48.19
48.61
45.69
41.91
39.45
38.51
37.36
33.53
25.99
16.04
6.75
1.32
1.28
5.85
12.27
17.2
18.2
14.84
8.47
1.51
-3.85
-6.57
-6.99
-6.61
-6.56
-7.51
-9.23
-10.97
-11.94
-11.76
-10.67
-9.47
-9.13
-10.41
-13.57
-18.08
-22.86
-26.66
-28.69
-28.97
-28.46
-28.59
-30.59
-34.93
-41.02
-47.67
-53.58
-57.88
-60.33
-61.15
-60.75
-59.41
-57.63
-55.09
-51.67
-47.18
-41.4
-33.93
-24.55
-13.3
-0.83
11.68
22.75
30.98
35.64
36.94
35.99
34.29
33.13
33.14
34.07
35.15
35.51
34.78
33.21
31.46
30.05
29.01
27.88
26.1
23.61
20.98
19.34
19.65
22.05
25.6
28.68
29.79
28.25
24.59
20.02
15.92
13.22
12.22
12.71
14.24
16.32
18.49
20.4
21.87
23.16
24.96
27.93
32.05
36.22
38.5
36.83
30.34
19.88
8.12
-1.64
-6.96
-7.22
-3.76
0.93
4.3
5.16
3.14
-1.08
-6.21
-10.96
-14.48
-16.48
-17.1
-16.78
-15.94
-15.02
-14.34
-14.24
-15.09
-17.25
-20.83
-25.5
-30.49
-34.65
-36.97
-36.85
-34.32
-30.07
-25.1
-20.37
-16.52
-13.74
-11.78
-10.2
-8.47
-6.19
-3.23
0.18
3.53
6.16
7.48
7.12
4.99
1.31
-3.35
-8.18
-12.04
-13.73
-12.26
-7.31
0.52
9.82
18.83
26.17
31.24
34.35
36.42
38.46
41.13
44.51
48.03
50.68
51.38
49.38
44.57
37.65
29.84
22.39
16.04
10.74
5.78
0.33
-6.13
-13.47
-20.99
-27.83
-33.23
-36.76
-38.3
-37.88
-35.71
-31.97
-27.03
-21.25
-15.19
-9.44
-4.55
-1.08
0.63
0.53
-1.08
-3.62
-6.34
-8.64
-10.21
-11.1
-11.64
-12.3
-13.32
-14.66
-15.98
-16.72
-16.49
-15.15
-13.02
-10.7
-8.96
-8.36
-9.15
-11.22
-14.11
-17.29
-20.35
-23.08
-25.57
-28.12
-31.03
-34.61
-38.98
-43.99
-49.2
-53.82
-56.78
-56.98
-53.57
-46.26
-35.59
-22.81
-9.52
2.78
13.19
21.55
28.25
33.93
38.98
43.43
46.96
49.17
49.81
48.93
46.8
43.78
40.19
36.25
32.12
28.04
24.29
21.18
18.88
17.4
16.46
15.61
14.35
12.27
9.19
5.18
0.61
-4.02
-8.16
-11.51
-14.02
-16.01
-17.97
-20.38
-23.65
-28.02
-33.54
-39.95
-46.59
-52.26
-55.44
-54.69
-49.12
-38.89
-25.23
-10.1
4.38
16.6
25.77
31.78
35.06
36.15
35.54
33.63
30.84
27.69
24.77
22.64
21.61
21.65
22.41
23.33
23.9
23.9
23.35
22.54
21.73
20.97
20.07
18.62
16.26
12.83
8.5
3.75
-0.87
-4.96
-8.45
-11.6
-14.85
-18.62
-23.17
-28.6
-34.81
-41.42
-47.78
-52.82
-55.24
-53.8
-47.78
-37.32
-23.58
-8.37
6.36
19.02
28.78
35.52
39.56
41.41
41.47
40.01
37.21
33.33
28.72
23.94
19.58
16.18
14.11
13.47
14.07
15.54
17.45
19.45
21.29
22.8
23.76
23.88
22.81
20.29
16.28
11.07
5.2
-0.73
-6.18
-10.93
-14.99
-18.54
-21.83
-25.06
-28.43
-32.11
-36.17
-40.48
-44.56
-47.54
-48.37
-46.09
-40.21
-30.91
-19.13
-6.24
6.35
17.48
26.49
33.18
37.6
39.93
40.37
39.11
36.47
32.86
28.81
24.9
21.61
19.29
18.12
18.04
18.78
19.98
21.23
22.16
22.53
22.2
21.18
19.55
17.4
14.79
11.8
8.43
4.67
0.58
-3.76
-8.16
-12.43
-16.45
-20.17
-23.65
-27.11
-30.76
-34.79
-39.28
-44.02
-48.47
-51.75
-52.74
-50.45
-44.41
-34.86
-22.86
-10.0
2.06
12.11
19.62
24.73
28.01
30.02
31.12
31.39
30.69
28.98
26.44
23.44
20.52
18.11
16.47
15.69
15.74
16.62
18.26
20.48
22.93
25.04
26.13
25.72
23.61
20.0
15.42
10.55
5.99
2.16
-0.81
-2.99
-4.72
-6.34
-8.2
-10.4
-12.8
-15.0
-16.54
-17.13
-16.79
-15.89
-14.92
-14.17
-13.26
-10.92
-5.06
6.75
26.45
54.69
90.22
130.11
170.64
208.42
241.1
267.38
286.22
296.14
295.19
281.69
255.37
218.12
173.62
126.34
80.46
39.61
7.29
-12.54
-16.02
-0.98
30.89
73.03
115.24
146.7
159.52
150.95
123.4
82.53
34.65
-15.15
-63.52
-108.24
-147.42
-179.24
-202.2
-215.81
-220.83
-219.09
-212.96
-204.65
-195.76
-187.13
-179.05
-171.46
-164.22
-157.34
-150.87
-144.79
-138.8
-132.33
-124.61
-114.89
-102.8
-88.62
-73.26
-57.93
-43.77
-31.7
-22.46
-16.69
-14.84
-16.78
-21.45
-26.84
-30.44
-30.19
-25.51
-17.61
-9.0
-2.3
0.86
0.41
-2.44
-6.05
-9.22
-11.65
-13.72
-15.97
-18.57
-21.18
-23.08
-23.7
-22.92
-21.3
-19.83
-19.39
-20.42
-22.75
-25.69
-28.44
-30.37
-31.37
-31.82
-32.43
-33.87
-36.59
-40.63
-45.59
-50.79
-55.36
-58.43
-59.23
-57.18
-52.02
-43.98
-33.77
-22.49
-11.33
-1.21
7.39
14.45
20.14
24.56
27.64
29.33
29.82
29.55
29.22
29.36
30.15
31.34
32.45
33.08
33.11
