-33.12
-37.42
-42.51
-48.04
-53.23
-56.94
-58.02
-55.68
-49.83
-41.02
-30.34
-19.03
-8.17
1.44
9.38
15.43
19.63
22.15
23.35
23.63
23.39
22.9
22.34
21.83
21.58
21.76
22.5
23.72
25.22
26.67
27.84
28.68
29.22
29.48
29.31
28.49
26.82
24.36
21.38
18.32
15.44
12.78
10.08
6.96
3.2
-1.12
-5.62
-9.81
-13.32
-16.09
-18.39
-20.7
-23.58
-27.4
-32.14
-37.18
-41.32
-43.13
-41.4
-35.7
-26.61
-15.61
-4.49
5.22
12.74
18.05
21.58
23.78
24.93
25.14
24.47
23.14
21.47
19.81
18.38
17.23
16.31
15.54
14.95
14.65
14.7
15.06
15.53
15.74
15.35
14.17
12.21
9.71
7.07
4.66
2.71
1.22
0.01
-1.25
-2.92
-5.28
-8.43
-12.26
-16.41
-20.41
-23.85
-26.57
-28.71
-30.74
-33.26
-36.8
-41.53
-47.14
-52.77
-57.19
-59.12
-57.56
-52.18
-43.37
-32.22
-20.15
-8.57
1.43
9.22
14.72
18.16
20.0
20.75
20.88
20.74
20.54
20.34
20.14
19.97
19.92
20.1
20.59
21.37
22.32
23.22
23.87
24.15
24.02
23.45
22.48
21.12
19.44
17.56
15.63
13.73
11.83
9.79
7.4
4.5
1.05
-2.79
-6.76
-10.61
-14.16
-17.42
-20.55
-23.9
-27.82
-32.54
-37.99
-43.67
-48.64
-51.74
-51.93
-48.62
-41.94
-32.73
-22.25
-11.79
-2.36
5.49
11.66
16.23
19.36
21.18
21.83
21.56
20.64
19.42
18.16
17.1
16.38
16.04
16.04
16.38
17.03
17.97
19.1
20.24
21.05
21.16
20.3
18.44
15.8
12.86
10.03
7.49
5.11
2.52
-0.56
-4.21
-8.18
-12.12
-15.68
-18.78
-21.55
-24.27
-27.24
-30.71
-34.8
-39.43
-44.3
-48.76
-51.85
-52.52
-50.0
-44.1
-35.37
-24.94
-14.18
-4.28
4.1
10.74
15.81
19.56
22.18
23.77
24.42
24.27
23.55
22.58
21.68
21.08
20.89
21.02
21.27
21.48
21.56
21.56
21.61
21.72
21.73
21.31
20.13
18.03
15.16
11.86
8.54
5.4
2.4
-0.67
-4.03
-7.71
-11.53
-15.19
-18.45
-21.27
-23.88
-26.67
-30.12
-34.53
-39.88
-45.7
-51.07
-54.81
-55.74
-53.16
-46.98
-37.89
-27.13
-16.08
-5.87
2.83
9.84
15.3
19.37
22.23
23.99
24.79
24.84
24.38
23.64
22.82
22.12
21.67
21.58
21.91
22.61
23.53
24.47
25.22
25.63
25.64
25.16
24.14
22.51
20.29
17.61
14.68
11.73
8.84
5.98
2.97
-0.34
-3.97
-7.83
-11.65
-15.2
-18.4
-21.35
-24.36
-27.86
-32.24
-37.7
-44.03
-50.51
-55.91
-58.88
-58.28
-53.59
-45.17
-34.2
-22.24
-10.83
-1.05
6.71
12.55
16.85
20.04
22.36
23.9
24.74
24.98
24.79
24.46
24.26
24.38
24.9
25.7
26.62
27.47
28.14
28.59
28.87
28.96
28.75
28.03
26.55
24.23
21.17
17.66
14.0
10.44
7.0
3.56
-0.0
-3.84
-7.9
-12.03
-15.97
-19.48
-22.4
-24.84
-27.15
-29.84
-33.44
-38.2
-43.84
-49.43
-53.65
-55.16
-53.09
-47.41
-38.8
-28.51
-17.82
-7.74
1.17
8.67
14.76
19.44
22.68
24.5
25.04
24.57
23.51
22.4
21.64
21.53
22.09
23.06
24.09
24.88
25.31
25.5
25.62
25.79
25.9
25.64
24.65
22.8
20.2
17.14
13.95
10.74
7.47
3.95
0.09
-4.03
-8.16
-11.99
-15.32
-18.17
-20.77
-23.54
-26.98
-31.49
-37.18
-43.65
-50.0
-54.9
-56.96
-55.25
-49.51
-40.38
-29.15
-17.32
-6.15
3.57
11.61
18.02
22.96
26.48
28.6
29.32
28.84
27.52
25.87
24.36
23.34
22.89
22.97
23.4
24.03
24.76
25.52
26.22
26.69
26.7
26.02
24.52
22.21
19.31
16.19
13.19
10.47
7.99
5.43
2.39
-1.31
-5.64
-10.13
-14.25
-17.6
-20.17
-22.37
-24.92
-28.5
-33.45
-39.64
-46.42
-52.79
-57.59
-59.75
-58.5
-53.59
-45.34
-34.64
-22.8
-11.18
-0.88
7.47
13.82
18.49
21.9
24.46
26.3
27.44
27.85
27.64
27.07
26.52
26.31
26.59
27.3
28.24
29.16
29.96
30.59
31.08
31.36
31.26
30.49
28.86
26.37
23.23
19.82
16.45
13.29
10.27
7.17
3.78
-0.03
-4.17
-8.48
-12.7
-16.64
-20.24
-23.63
-27.13
-31.13
-35.97
-41.69
-47.9
-53.7
-57.85
-59.16
-56.81
-50.75
-41.67
-30.85
-19.66
-9.26
-0.33
6.95
12.71
17.21
20.55
22.79
23.9
24.02
23.47
22.74
22.37
22.69
23.8
25.45
27.24
28.83
30.03
30.88
31.47
31.84
31.86
31.24
29.75
27.33
24.23
20.86
17.68
14.94
12.58
10.28
7.64
4.36
0.44
-3.84
-8.02
-11.66
-14.61
-17.05
-19.47
-22.44
-26.4
-31.52
-37.51
-43.71
-49.18
-52.86
-53.81
-51.47
-45.86
-37.6
-27.74
-17.41
-7.59
1.1
8.41
14.26
18.71
21.86
23.82
24.78
24.92
24.45
23.61
22.62
21.73
21.18
21.1
21.47
22.13
22.87
23.5
23.96
24.22
24.21
23.77
22.67
20.83
18.32
15.44
12.46
9.59
6.79
3.84
0.59
-2.99
-6.71
-10.3
-13.58
-16.55
-19.41
-22.4
-25.79
-29.73
-34.26
-39.25
-44.27
-48.59
-51.24
-51.27
-48.06
-41.67
-32.76
-22.51
-12.13
-2.54
5.74
12.62
18.15
22.42
25.46
27.28
27.97
27.75
26.93
25.86
24.85
24.05
23.52
23.26
23.31
23.71
24.47
25.48
26.49
27.12
26.98
25.81
23.6
20.55
17.07
13.56
10.24
7.11
3.97
0.5
-3.46
-7.85
-12.38
-16.61
-20.17
-22.97
-25.19
-27.33
-29.97
-33.59
-38.37
-44.04
-49.87
-54.76
-57.54
-57.26
-53.42
-46.23
-36.48
-25.44
-14.45
-4.55
3.65
10.04
14.87
18.51
21.2
23.11
24.23
24.59
24.35
23.8
23.26
23.03
23.2
23.67
24.23
24.7
25.05
25.32
25.64
26.01
26.24
26.04
25.09
23.28
20.81
18.05
15.38
12.95
10.65
8.2
5.35
2.02
-1.66
-5.43
-9.01
-12.29
-15.3
-18.26
-21.48
-25.33
-30.13
-35.92
-42.36
-48.63
-53.54
-55.85
-54.67
-49.76
-41.67
-31.5
-20.6
-10.14
-0.89
6.84
13.06
17.91
21.51
23.91
25.19
25.49
25.1
24.43
23.87
23.74
24.16
25.04
26.17
27.28
28.22
28.97
29.56
30.0
30.14
29.71
28.45
26.32
23.46
20.21
16.96
13.98
11.3
8.78
6.15
3.16
-0.29
-4.15
-8.17
-12.03
-15.4
-18.16
-20.44
-22.65
-25.4
-29.2
-34.22
-40.14
-46.08
-50.88
-53.33
-52.52
-48.19
-40.76
-31.19
-20.76
-10.69
-1.85
5.33
10.87
15.02
18.07
20.21
21.54
22.11
22.06
21.69
21.32
21.24
21.56
22.12
22.69
23.09
23.29
23.42
23.66
24.03
24.34
24.21
23.29
21.44
18.77
15.63
12.38
9.3
6.49
3.89
1.37
-1.22
-3.9
-6.66
-9.4
-12.02
-14.45
-16.77
-19.18
-22.02
-25.66
-30.29
-35.83
-41.74
-47.09
-50.78
-51.77
-49.38
-43.58
-34.96
-24.62
-13.86
-3.8
4.79
11.63
16.74
20.35
22.69
23.88
24.06
23.4
22.15
20.66
19.28
18.26
17.69
17.57
17.8
18.33
19.1
20.1
21.24
22.29
22.92
22.83
21.79
19.84
17.27
14.48
11.86
9.54
7.38
5.04
2.17
-1.35
-5.38
-9.59
-13.65
-17.37
-20.79
-24.13
-27.71
-31.77
-36.48
-41.78
-47.32
-52.42
-56.11
-57.35
-55.4
-50.02
-41.66
-31.31
-20.25
-9.68
-0.39
7.2
13.06
17.33
20.23
21.99
22.84
23.01
22.79
22.44
22.19
22.2
22.51
23.11
23.92
24.79
25.61
26.28
26.77
27.05
27.08
26.72
25.76
24.0
21.4
18.14
14.61
11.2
8.18
5.52
3.0
0.27
-2.85
-6.31
-9.82
-13.05
-15.75
-17.93
-19.87
-21.99
-24.76
-28.5
-33.23
-38.64
-44.09
-48.68
-51.43
-51.5
-48.46
-42.37
-33.88
-24.01
-13.96
-4.72
3.06
9.21
13.95
17.57
20.3
22.2
23.23
23.46
23.13
22.66
22.52
22.96
23.9
25.02
25.93
26.43
26.59
26.63
26.75
26.95
26.94
26.31
24.77
22.26
19.07
15.69
12.56
9.93
7.72
5.63
3.28
0.49
-2.7
-6.03
-9.14
-11.83
-14.13
-16.29
-18.65
-21.53
-25.1
-29.43
-34.45
-39.89
-45.16
-49.36
-51.36
-50.19
-45.44
-37.53
-27.6
-17.14
-7.42
0.83
7.47
12.76
16.9
19.99
21.93
22.69
22.38
21.4
20.24
19.37
19.04
19.23
19.75
20.32
20.73
20.92
21.0
21.12
21.38
21.7
21.82
21.4
20.2
18.2
15.61
12.79
10.01
7.36
4.72
1.89
-1.22
-4.49
-7.64
-10.38
-12.66
-14.65
-16.82
-19.65
-23.51
-28.58
-34.65
-41.14
-47.15
-51.58
-53.34
-51.72
-46.6
-38.52
-28.57
-18.02
-7.97
0.85
8.17
14.05
18.63
22.05
24.35
25.52
25.63
24.87
23.61
22.35
21.55
21.45
22.09
23.21
24.45
25.47
26.07
26.21
25.91
25.2
24.02
22.29
19.96
17.07
13.81
10.45
7.2
4.17
1.34
-1.44
-4.29
-7.27
-10.28
-13.17
-15.8
-18.19
-20.52
-23.19
-26.65
-31.24
-36.98
-43.41
-49.53
-54.11
-55.91
-54.16
-48.79
-40.48
-30.42
-19.98
-10.2
-1.67
5.52
11.52
16.45
20.37
23.18
24.86
25.49
25.33
24.72
24.07
23.67
23.68
24.11
24.9
25.94
27.13
28.43
29.75
30.98
31.91
32.26
31.76
30.25
27.82
24.69
21.25
17.75
14.31
10.86
7.22
3.28
-0.96
-5.34
-9.58
-13.48
-16.99
-20.23
-23.44
-26.83
-30.54
-34.65
-39.21
-44.15
-49.18
-53.65
-56.57
-56.79
-53.46
-46.46
-36.6
-25.36
-14.4
-4.93
2.57
8.3
12.78
16.42
19.39
21.58
22.87
23.28
23.09
22.7
22.52
22.81
23.62
24.81
26.12
27.33
28.27
28.91
29.37
29.69
29.83
29.55
28.54
26.55
23.64
20.13
16.55
13.38
10.7
8.33
5.8
2.79
-0.83
-4.86
-8.96
-12.84
-16.37
-19.64
-22.82
-26.16
-29.85
-34.08
-38.93
-44.21
-49.4
-53.47
-55.23
-53.67
-48.44
-40.01
-29.57
-18.63
-8.49
0.1
6.99
12.45
16.88
20.48
23.29
25.16
26.0
25.89
25.11
24.16
23.5
23.44
23.96
24.82
25.69
26.36
26.85
27.26
27.63
27.83
27.48
26.22
23.89
20.68
17.03
13.45
10.26
7.46
4.83
2.04
-1.09
-4.56
-8.24
-11.91
-15.39
-18.6
-21.58
-24.46
-27.46
-30.85
-34.91
-39.72
-44.95
-49.83
-53.24
-54.02
-51.43
-45.47
-36.88
-26.94
-16.97
-7.93
-0.25
6.07
11.18
15.24
18.22
20.1
20.91
20.86
20.28
19.51
18.83
18.44
18.41
18.74
19.37
20.19
21.07
21.95
22.77
23.49
24.0
24.1
23.59
22.33
20.36
17.83
14.95
11.83
8.48
4.81
0.81
-3.39
-7.54
-11.38
-14.82
-18.02
-21.32
-25.07
-29.46
-34.4
-39.47
-44.05
-47.43
-48.96
-48.16
-44.78
-38.83
-30.72
-21.2
-11.29
-2.04
5.75
11.7
15.95
18.9
21.01
22.51
23.4
23.54
22.87
21.65
20.35
19.49
19.39
20.01
21.09
22.26
23.29
24.1
24.69
25.04
25.02
24.46
23.24
21.44
19.3
17.12
15.05
13.07
10.88
8.14
4.64
0.41
-4.22
-8.83
-13.05
-16.74
-19.97
-23.06
-26.43
-30.4
-35.17
-40.58
-46.07
-50.68
-53.26
-52.71
-48.49
-40.77
-30.41
-18.77
-7.18
3.29
12.14
19.26
24.8
28.94
31.75
33.36
33.88
33.6
32.89
32.15
31.67
31.65
32.1
32.89
33.91
34.96
35.93
36.74
37.31
37.61
37.55
37.05
36.0
34.37
32.07
29.13
25.55
21.32
16.47
11.09
5.33
-0.59
-6.32
-11.59
-16.16
-19.96
-23.17
-26.19
-29.57
-33.86
-39.39
-46.09
-53.37
-60.18
-65.22
-67.37
-65.86
-60.66
-52.39
-42.15
-31.26
-20.85
-11.67
-4.05
2.01
6.72
10.28
12.81
14.38
15.08
15.08
14.72
14.35
14.23
14.5
15.07
15.78
16.53
17.34
18.34
19.61
21.01
22.14
22.53
21.81
19.96
17.3
14.34
11.54
9.06
6.8
4.53
2.03
-0.75
-3.71
-6.71
-9.61
-12.43
-15.27
-18.28
-21.68
-25.66
-30.42
-35.97
-42.02
-47.9
-52.52
-54.76
-53.73
-49.18
-41.58
-31.97
-21.58
-11.43
-2.18
5.9
12.69
18.08
21.93
24.13
24.8
24.24
22.94
21.42
20.12
19.3
19.01
19.17
19.59
20.1
20.62
21.12
21.67
22.29
22.9
23.25
23.06
22.11
20.37
17.98
15.19
12.2
9.08
5.86
2.54
-0.78
-3.99
-7.05
-10.06
-13.2
-16.76
-20.93
-25.77
-31.18
-36.88
-42.44
-47.16
-50.14
-50.44
-47.48
-41.24
-32.41
-22.17
-11.82
-2.36
5.65
12.14
17.22
21.03
23.72
25.35
26.11
26.21
25.91
25.35
24.62
23.76
22.87
22.19
21.98
22.44
23.58
25.19
26.89
28.25
28.93
28.73
27.63
25.71
23.17
20.21
16.96
13.49
9.74
5.61
1.11
-3.66
-8.48
-13.06
-17.19
-20.84
-24.15
-27.48
-31.22
-35.73
-41.07
-46.93
-52.53
-56.81
-58.66
-57.24
-52.35
-44.4
-34.37
-23.44
-12.69
-2.89
5.49
12.33
17.66
21.55
24.14
25.57
26.02
25.75
25.09
24.42
24.06
24.2
24.81
25.72
26.69
27.56
28.31
29.03
29.79
30.46
30.76
30.3
28.77
26.11
22.58
18.59
14.59
10.78
7.12
3.38
-0.66
-4.98
-9.34
-13.34
-16.67
-19.22
-21.31
-23.43
-26.16
-29.96
-34.86
-40.56
-46.32
-51.16
-54.0
-54.03
-50.8
-44.46
-35.73
-25.63
-15.29
-5.62
2.86
9.96
15.74
20.34
23.84
26.23
27.52
27.75
27.15
26.06
24.98
24.31
24.35
25.09
26.32
27.71
28.94
29.82
30.31
30.44
30.18
29.45
28.08
25.98
23.24
20.1
16.83
13.65
10.53
7.31
3.75
-0.29
-4.7
-9.15
-13.3
-16.88
-19.84
-22.46
-25.12
-28.3
-32.35
-37.37
-43.1
-48.84
-53.62
-56.27
-55.89
-52.07
-45.1
-35.86
-25.57
-15.43
-6.24
1.58
8.0
13.17
17.2
20.17
22.08
22.94
22.89
22.24
21.42
20.92
21.06
21.93
23.32
24.78
25.94
26.59
26.76
26.6
26.25
25.71
24.82
23.46
21.56
19.2
16.55
13.76
10.81
7.61
4.04
0.06
-4.14
-8.25
-11.95
-15.08
-17.73
-20.28
-23.27
-27.15
-32.15
-37.99
-43.94
-48.96
-51.92
-51.86
-48.31
-41.43
-31.96
-21.14
-10.28
-0.52
7.43
13.43
17.71
20.74
22.91
24.43
25.27
25.42
24.97
24.22
23.65
23.68
24.51
26.01
27.78
29.38
30.51
31.09
31.17
30.79
29.85
28.15
25.58
22.28
18.6
15.05
11.93
9.23
6.59
3.53
-0.24
-4.67
-9.34
-13.74
-17.45
-20.39
-22.77
-25.02
-27.61
-30.87
-35.02
-40.02
-45.53
-50.84
-54.87
-56.43
-54.58
-49.04
-40.34
-29.68
-18.54
-8.13
0.89
8.43
14.7
19.93
24.14
27.2
28.95
29.44
28.94
27.89
26.73
25.83
25.37
25.37
25.72
26.27
26.89
27.5
28.12
28.73
29.24
29.4
28.87
27.37
24.83
21.56
18.07
14.89
12.26
10.06
7.82
5.07
1.62
-2.38
-6.5
-10.22
-13.27
-15.75
-18.03
-20.57
-23.77
-27.81
-32.67
-38.14
-43.76
-48.8
-52.28
-53.18
-50.78
-44.95
-36.23
-25.81
-15.08
-5.23
2.97
9.25
13.74
16.71
18.43
19.13
19.03
18.36
17.44
16.6
16.18
16.37
17.15
18.35
19.68
20.93
22.0
22.93
23.78
24.49
24.82
24.42
23.04
20.71
17.72
14.52
11.49
8.74
6.14
3.38
0.2
-3.45
-7.41
-11.38
-15.04
-18.23
-20.9
-23.28
-25.67
-28.49
-32.1
-36.61
-41.69
-46.58
-50.14
-51.15
-48.78
-42.88
-34.14
-23.88
-13.58
-4.39
3.13
9.03
13.69
17.48
20.53
22.75
24.01
24.31
23.92
23.26
22.8
22.81
23.33
24.19
25.09
25.77
26.17
26.28
26.21
25.92
25.26
24.05
22.13
19.62
16.81
14.07
11.64
9.52
7.39
4.87
1.73
-2.02
-6.04
-9.91
-13.3
-16.17
-18.67
-21.16
-24.06
-27.7
-32.3
-37.86
-44.07
-50.23
-55.27
-57.95
-57.28
-52.84
-45.01
-34.9
-23.92
-13.4
-4.17
3.49
9.72
14.8
18.94
22.19
24.52
25.91
26.42
26.19
25.52
24.73
24.07
23.73
23.74
23.98
24.34
24.72
25.12
25.51
25.81
25.72
24.9
23.05
20.15
16.54
12.82
9.48
6.78
4.57
2.46
0.05
-2.81
-5.97
-9.05
-11.78
-14.08
-16.09
-18.17
-20.65
-23.78
-27.77
-32.66
-38.33
-44.3
-49.7
-53.4
-54.3
-51.69
-45.62
-36.85
-26.68
-16.45
-7.22
0.56
6.9
12.05
16.29
19.69
22.15
23.52
23.84
23.35
22.52
21.87
21.76
22.33
23.36
24.59
25.67
26.49
27.08
27.51
27.81
27.85
27.34
26.02
23.78
20.81
17.48
14.3
11.6
9.45
7.61
5.71
3.4
0.56
-2.71
-6.18
-9.56
-12.7
-15.58
-18.33
-21.18
-24.36
-28.11
-32.58
-37.79
-43.45
-48.9
-53.08
-54.87
-53.34
-48.2
-39.99
-29.83
-19.19
-9.33
-1.02
5.59
10.7
14.63
17.59
19.67
20.87
21.29
21.15
20.79
20.52
20.54
20.8
21.1
21.21
21.04
20.64
20.23
19.99
19.95
19.92
19.53
18.44
16.55
14.03
11.23
8.52
6.08
3.86
1.66
-0.74
-3.4
-6.2
-8.88
-11.29
-13.47
-15.65
-18.25
-21.6
-25.91
-31.1
-36.78
-42.25
-46.64
-49.0
-48.6
-45.11
-38.73
-30.2
-20.58
-10.97
-2.24
5.12
11.03
15.6
19.06
21.58
23.3
24.25
24.44
23.94
22.93
21.66
20.41
19.41
18.73
18.36
18.23
18.35
18.75
19.5
20.51
21.57
22.27
22.2
21.14
19.11
16.4
13.42
10.5
7.73
4.95
1.83
-1.91
-6.29
-11.05
-15.7
-19.74
-22.95
-25.5
-27.88
-30.76
-34.65
-39.65
-45.36
-50.86
-54.94
-56.45
-54.61
-49.26
-40.96
-30.75
-19.92
-9.65
-0.71
6.58
12.25
16.54
19.68
21.83
23.13
23.69
23.63
23.21
22.69
22.37
22.46
23.03
23.96
25.02
26.01
26.76
27.26
27.58
27.71
27.51
26.77
25.22
22.84
19.86
16.66
13.6
10.85
8.32
5.68
2.67
-0.86
-4.77
-8.79
-12.59
-16.04
-19.14
-22.14
-25.33
-28.97
-33.31
-38.31
-43.75
-49.02
-53.29
-55.49
-54.75
-50.65
-43.39
-33.83
-23.19
-12.74
-3.44
4.21
10.12
14.47
17.5
19.45
20.53
21.03
21.26
21.49
21.95
22.71
23.7
24.78
25.78
26.55
27.06
27.37
27.58
27.75
27.86
27.73
27.13
25.88
23.94
21.43
18.66
15.88
