-94.78
-106.35
-112.69
-112.04
-103.89
-89.14
-69.79
-48.31
-26.89
-7.06
10.45
25.5
38.23
48.9
57.81
65.23
71.45
76.69
81.06
84.62
87.34
89.2
90.2
90.37
89.84
88.79
87.47
86.14
84.92
83.78
82.51
80.84
78.52
75.41
71.51
66.87
61.62
55.83
49.66
43.26
36.86
30.62
24.54
18.46
12.07
5.11
-2.47
-10.48
-18.52
-26.21
-33.38
-40.24
-47.25
-55.06
-64.23
-75.11
-87.57
-100.96
-114.02
-125.05
-132.19
-133.97
-129.68
-119.72
-105.38
-88.51
-70.9
-53.89
-38.22
-24.15
-11.68
-0.74
8.75
16.91
23.92
30.02
35.43
40.21
44.29
47.44
49.41
50.03
49.33
47.55
45.09
42.33
39.63
37.18
35.05
33.22
31.52
29.72
27.45
24.38
20.25
15.12
9.33
3.42
-2.02
-6.64
-10.36
-13.5
-16.58
-20.27
-25.18
-31.65
-39.55
-48.19
-56.27
-62.21
-64.44
-61.98
-54.62
-43.03
-28.5
-12.55
3.4
18.36
31.79
43.44
53.24
61.15
67.07
70.96
72.88
73.08
71.93
69.92
67.44
64.73
61.88
58.91
55.84
52.82
50.03
47.62
45.48
43.3
40.5
36.55
31.14
24.38
16.73
8.85
1.34
-5.53
-11.83
-17.95
-24.39
-31.58
-39.83
-49.13
-59.14
-69.09
-77.79
-83.84
-85.87
-83.0
-75.11
-62.89
-47.69
-31.13
-14.61
0.92
15.03
27.71
39.0
48.88
57.19
63.71
68.28
70.96
71.99
71.74
70.6
68.84
66.72
64.4
62.09
59.95
58.1
56.54
55.09
53.46
51.33
48.41
44.53
39.69
34.05
27.88
21.45
15.02
8.72
2.57
-3.51
-9.61
-15.76
-21.94
-28.01
-33.86
-39.45
-44.96
-50.79
-57.4
-65.1
-73.64
-82.09
-88.89
-92.26
-90.78
-83.78
-71.55
-55.09
-35.74
-14.8
6.58
27.37
46.65
63.61
77.73
89.02
97.94
105.14
110.98
115.22
117.05
115.58
110.39
101.93
91.56
81.03
71.93
65.24
61.2
59.52
59.53
60.34
60.87
59.88
56.25
49.42
39.8
28.82
18.42
10.35
5.38
3.19
2.74
2.87
2.82
2.12
0.34
-3.17
-9.07
-17.45
-27.36
-36.97
-44.36
-48.57
-50.19
-50.94
-52.74
-56.64
-62.48
-69.5
-77.28
-86.24
-97.4
-111.31
-127.12
-142.44
-154.06
-159.36
-157.38
-148.99
-136.26
-121.32
-105.51
-89.12
-71.87
-53.56
-34.55
-15.79
1.58
16.62
28.93
38.61
46.04
51.63
55.72
58.6
60.66
62.42
64.5
67.4
71.27
75.82
80.32
83.81
85.37
84.41
80.85
75.04
67.61
59.22
50.29
40.89
30.87
19.99
8.23
-4.09
-16.42
-28.17
-39.02
-49.02
-58.62
-68.25
-78.06
-87.51
-95.47
-100.46
-101.22
-97.23
-88.92
-77.5
-64.54
-51.45
-39.17
-28.12
-18.44
-10.23
-3.57
1.43
4.87
7.07
8.54
9.79
11.2
12.94
15.0
17.29
19.84
22.76
26.27
30.51
35.47
40.93
46.37
51.16
54.69
56.49
56.42
54.59
51.37
47.24
42.71
38.15
33.68
29.15
24.26
18.7
12.35
5.41
-1.76
-8.71
-15.13
-20.89
-26.09
-30.94
-35.73
-40.88
-46.86
-54.01
-62.31
-71.03
-78.74
-83.6
-84.0
-79.16
-69.41
-56.01
-40.53
-24.45
-8.77
5.83
18.83
29.75
38.23
44.26
48.23
50.79
52.49
53.53
53.67
52.55
50.01
46.32
42.13
38.19
34.98
32.48
30.28
27.79
24.62
20.72
16.45
12.35
8.84
6.09
3.92
1.98
-0.11
-2.57
-5.54
-9.11
-13.45
-18.83
-25.44
-33.27
-42.03
-51.21
-60.14
-68.02
-73.82
-76.3
-74.15
-66.37
-52.76
-34.31
-13.22
7.39
24.17
34.17
35.49
27.68
11.77
-9.83
-33.83
-56.6
-74.9
-86.41
-90.16
-86.51
-77.02
-64.09
-50.32
-37.96
-28.22
-21.01
-15.09
-8.65
-0.12
11.17
24.76
39.31
53.14
64.65
72.71
76.75
76.92
74.08
69.82
66.11
64.75
66.69
71.55
77.8
83.39
86.76
87.58
86.72
85.52
84.8
84.28
82.87
79.55
74.3
68.3
63.32
60.54
59.71
59.06
56.07
48.52
35.22
16.19
-7.61
-34.65
-62.86
-89.63
-111.86
-126.48
-131.25
-125.53
-110.68
-89.8
-66.97
-46.1
-29.92
-19.46
-14.01
-11.83
-11.07
-10.45
-9.49
-8.27
-6.89
-5.12
-2.43
1.61
6.92
12.81
18.42
23.23
27.39
31.52
36.08
40.79
44.39
45.02
41.1
32.15
19.01
3.7
-11.35
-24.11
-33.44
-39.25
-42.11
-42.94
-42.56
-41.7
-41.03
-41.29
-43.32
-47.87
-55.31
-65.34
-76.81
-87.96
-96.78
-101.45
-100.93
-95.17
-85.08
-72.26
-58.45
-45.02
-32.62
-21.16
-10.07
1.24
12.92
24.6
35.51
44.8
51.85
56.41
58.63
58.89
57.7
55.64
53.27
50.99
49.0
47.25
45.52
43.55
41.24
38.62
35.83
32.93
29.85
26.32
22.07
16.91
10.89
4.19
-2.92
-10.27
-17.7
-25.08
-32.25
-38.98
-45.12
-50.63
-55.64
-60.19
-64.13
-66.88
-67.49
-65.04
-58.93
-49.27
-36.92
-23.24
-9.69
2.6
13.01
21.46
28.21
33.61
37.92
41.32
43.85
45.58
46.56
46.91
46.76
46.23
45.4
44.26
42.81
41.06
39.05
36.88
34.69
32.49
30.22
27.65
24.48
20.49
15.6
9.94
3.8
-2.48
-8.58
-14.29
-19.54
-24.4
-29.08
-33.94
-39.39
-45.86
-53.52
-62.18
-71.01
-78.72
-83.73
-84.72
-81.02
-72.88
-61.34
-47.89
-33.95
-20.55
-8.15
3.15
13.41
22.64
30.77
37.66
43.25
47.54
50.62
52.63
53.63
53.7
52.89
51.28
49.0
46.19
43.06
39.82
36.69
33.84
31.24
28.75
25.97
22.48
17.93
12.24
5.61
-1.5
-8.57
-15.2
-21.29
-26.99
-32.67
-38.83
-45.86
-53.91
-62.72
-71.48
-78.88
-83.4
-83.77
-79.39
-70.63
-58.65
-45.07
-31.33
-18.41
-6.65
4.0
13.68
22.42
30.02
36.21
40.81
43.78
45.36
45.84
45.54
44.65
43.25
41.32
38.88
36.1
33.29
30.83
28.94
27.49
26.04
23.95
20.62
15.88
10.0
3.6
-2.65
-8.27
-13.2
-17.78
-22.56
-28.14
-34.93
-43.02
-52.07
-61.21
-69.17
-74.44
-75.7
-72.2
-64.05
-52.22
-38.18
-23.51
-9.39
3.54
15.07
25.28
34.26
41.97
48.33
53.24
56.68
58.77
59.68
59.59
58.68
57.11
55.04
52.75
50.53
48.67
47.32
46.41
45.62
44.53
42.72
39.97
36.25
31.77
26.79
21.61
16.48
11.58
6.94
2.44
-2.13
-7.01
-12.37
-18.13
-24.04
-29.7
-34.89
-39.61
-44.2
-49.23
-55.26
-62.63
-71.18
-80.22
-88.49
-94.39
-96.38
-93.37
-85.15
-72.47
-56.84
-40.08
-23.83
-9.11
3.66
14.58
23.92
31.93
38.72
44.28
48.64
51.82
53.89
54.94
55.03
54.24
52.69
50.6
48.25
46.01
44.17
42.88
42.05
41.38
40.42
38.75
36.12
32.53
28.21
23.57
19.0
14.75
10.82
7.01
2.94
-1.7
-7.06
-12.96
-19.02
-24.82
-30.05
-34.69
-38.99
-43.35
-48.21
-53.93
-60.62
-67.99
-75.27
-81.17
-84.19
-83.0
-76.97
-66.46
-52.7
-37.43
-22.3
-8.4
3.82
14.42
23.62
31.55
38.22
43.52
47.43
50.04
51.49
51.94
51.45
50.07
47.96
45.5
43.34
42.2
42.6
44.64
47.85
51.41
54.38
56.09
56.32
55.24
53.23
50.65
47.7
44.45
40.94
37.23
33.39
29.46
25.34
20.9
16.01
10.7
5.14
-0.38
-5.63
-10.51
-15.16
-19.82
-24.69
-29.82
-35.06
-40.19
-44.98
-49.35
-53.41
-57.39
-61.62
-66.49
-72.32
-79.27
-87.14
-95.19
-102.06
-106.09
-105.76
-100.27
-89.87
-75.81
-59.87
-43.75
-28.62
-14.96
-2.71
8.36
18.39
27.31
34.91
41.02
45.62
48.86
50.96
52.1
52.42
51.99
50.97
49.61
48.23
47.14
46.51
46.3
46.27
46.09
45.51
44.38
42.74
40.68
38.36
35.91
33.44
31.03
28.65
26.29
23.85
21.3
18.63
15.85
12.99
10.0
6.82
3.35
-0.39
-4.29
-8.16
-11.81
-15.19
-18.41
-21.73
-25.39
-29.5
-33.99
-38.66
-43.27
-47.67
-51.86
-56.0
-60.37
-65.29
-71.06
-77.78
-85.16
-92.34
-97.99
-100.54
-98.66
-91.78
-80.34
-65.68
-49.63
-33.86
-19.54
-7.11
3.48
12.57
20.43
27.14
32.69
37.0
40.08
42.04
43.08
43.41
43.2
42.59
41.64
40.49
39.32
38.41
38.03
38.31
39.13
40.03
40.39
39.6
37.33
33.69
29.11
24.2
19.47
15.18
11.3
7.59
3.72
-0.56
-5.4
-10.76
-16.45
-22.16
-27.57
-32.46
-36.83
-40.91
-45.16
-50.15
-56.33
-63.8
-72.13
-80.21
-86.48
-89.28
-87.36
-80.36
-68.9
-54.44
-38.78
-23.52
-9.68
2.37
12.71
21.61
29.27
35.7
40.84
44.61
47.09
48.48
49.04
49.02
48.58
47.87
47.05
46.36
46.01
46.11
46.64
47.33
47.8
47.67
46.7
44.8
42.07
38.71
34.94
30.96
26.85
22.62
18.26
13.8
9.3
4.9
0.69
-3.38
-7.47
-11.85
-16.74
-22.23
-28.19
-34.34
-40.38
-46.1
-51.45
-56.6
-61.9
-67.85
-74.91
-83.27
-92.58
-101.84
-109.46
-113.67
-113.03
-106.91
-95.71
-80.68
-63.52
-45.84
-28.81
-13.09
1.06
13.61
24.57
34.01
42.04
48.84
54.57
59.33
63.08
65.69
67.08
67.35
66.81
65.93
65.13
64.71
64.71
65.0
65.32
65.47
65.26
64.56
63.25
61.25
58.56
55.29
51.67
47.99
44.46
41.13
37.91
34.57
30.88
26.7
22.03
17.0
11.85
6.84
2.09
-2.36
-6.68
-11.1
-15.89
-21.2
-27.04
-33.23
-39.52
-45.61
-51.3
-56.6
-61.69
-66.92
-72.73
-79.58
-87.77
-97.18
-107.12
-116.21
-122.61
-124.44
-120.43
-110.39
-95.31
-77.05
-57.71
-39.0
-21.9
-6.71
6.64
18.33
28.44
36.98
44.04
49.8
54.49
58.29
61.23
63.22
64.15
64.12
63.44
62.63
62.2
62.48
63.46
64.82
66.06
66.67
66.32
64.87
62.42
59.17
55.44
51.49
47.54
43.64
39.73
35.61
31.1
26.15
20.88
15.6
10.61
6.04
1.79
-2.49
-7.24
-12.74
-18.97
-25.58
-32.07
-38.01
-43.25
-48.06
-52.94
-58.58
-65.52
-73.97
-83.58
-93.32
-101.59
-106.49
-106.41
-100.52
-89.07
-73.34
-55.18
-36.43
-18.55
-2.37
11.78
23.87
34.06
42.51
49.44
55.03
59.38
62.53
64.52
65.41
65.41
64.78
63.81
62.76
61.81
61.11
60.79
60.89
61.29
61.68
61.59
60.59
58.44
55.19
51.22
47.02
43.02
39.39
36.05
32.68
28.9
24.45
19.34
13.81
8.29
3.19
-1.31
-5.35
-9.33
-13.76
-19.0
-25.13
-31.86
-38.73
-45.27
-51.22
-56.58
-61.6
-66.69
-72.31
-78.91
-86.84
-96.11
-106.16
-115.69
-122.85
-125.63
-122.58
-113.34
-98.83
-80.91
-61.64
-42.63
-24.67
-7.85
7.99
22.86
36.49
48.4
58.23
65.88
71.49
75.33
77.61
78.51
78.16
76.79
74.76
72.49
70.38
68.75
67.75
67.36
67.34
67.32
66.86
65.61
63.4
60.32
56.63
52.63
48.55
44.5
40.51
36.57
32.69
28.88
25.07
21.13
16.91
12.33
7.45
2.49
-2.3
-6.76
-10.92
-15.04
-19.43
-24.37
-29.9
-35.89
-42.06
-48.16
-54.02
-59.6
-65.06
-70.72
-77.04
-84.54
-93.48
-103.54
-113.56
-121.68
-125.72
-123.94
-115.71
-101.64
-83.42
-63.2
-42.91
-23.88
-6.77
8.23
21.11
31.91
40.74
47.78
53.36
57.77
61.27
63.91
65.66
66.5
66.5
65.92
65.05
64.2
63.51
62.97
62.47
61.83
60.86
59.38
57.26
54.43
50.86
46.67
42.0
37.02
31.87
26.64
21.4
16.17
10.99
5.86
0.71
-4.55
-10.05
-15.86
-21.91
-28.03
-33.99
-39.6
-44.83
-49.85
-55.02
-60.81
-67.68
-75.86
-85.14
-94.66
-102.9
-107.99
-108.18
-102.46
-90.93
-74.78
-55.94
-36.44
-17.9
-1.26
13.17
25.46
35.79
44.4
51.46
57.17
61.68
65.09
67.43
68.68
68.87
68.12
66.67
64.89
63.15
61.82
61.06
60.87
60.94
60.8
59.89
57.8
54.41
49.98
44.98
39.93
35.14
30.63
26.18
21.54
16.57
11.33
6.01
0.79
-4.3
-9.4
-14.72
-20.43
-26.51
-32.82
-39.11
-45.19
-51.0
-56.63
-62.28
-68.3
-75.09
-83.05
-92.4
-102.87
-113.51
-122.59
-128.03
-127.94
-121.33
-108.51
-90.98
-70.91
-50.44
-31.09
-13.65
1.75
15.24
27.0
37.14
45.76
53.01
59.09
64.18
68.31
71.41
73.35
74.03
73.59
72.38
70.88
69.56
68.72
68.4
68.4
68.4
68.06
67.09
65.36
62.82
59.53
55.62
51.27
46.71
42.15
37.72
33.39
29.03
24.48
19.62
14.49
9.28
4.26
-0.31
-4.36
-7.98
-11.49
-15.27
-19.66
-24.85
-30.78
-37.14
-43.54
-49.63
-55.2
-60.31
-65.28
-70.57
-76.78
-84.37
-93.54
-103.88
-114.28
-122.93
-127.73
-126.93
-119.69
-106.46
-88.75
-68.68
-48.29
-29.1
-11.91
3.0
15.71
26.49
35.66
43.57
50.5
56.59
61.78
65.85
68.61
69.96
70.01
69.03
67.41
65.55
63.82
62.53
61.8
61.55
61.43
61.0
59.81
57.63
54.49
50.67
46.52
42.27
38.01
33.63
29.04
24.2
19.23
14.33
9.64
5.11
0.51
-4.48
-10.15
-16.55
-23.47
-30.51
-37.26
-43.39
-48.86
-53.91
-59.09
-65.06
-72.38
-81.21
-91.07
-100.69
-108.21
-111.64
-109.51
-101.39
-88.05
-71.25
-53.03
-35.19
-18.82
-4.27
8.55
19.9
29.88
38.51
45.72
51.52
56.04
59.4
61.72
62.98
63.18
62.35
60.74
58.77
56.93
55.62
54.9
54.52
53.97
52.69
50.27
46.65
42.04
36.84
31.43
26.12
20.98
15.92
10.74
5.18
-0.9
-7.48
-14.29
-20.97
-27.19
-32.81
-38.09
-43.54
-49.87
-57.67
-67.1
-77.66
-88.1
-96.59
-101.17
-100.32
-93.53
-81.45
-65.68
-48.26
-31.01
-15.11
-0.99
11.46
22.57
32.61
41.71
49.89
57.07
63.1
67.78
70.95
72.53
72.67
71.72
70.21
68.66
67.47
66.84
66.73
66.97
67.24
67.21
66.5
64.83
62.02
58.14
53.42
48.25
43.06
38.19
33.78
29.81
26.15
22.59
19.0
15.29
11.41
7.4
3.26
-0.96
-5.2
-9.42
-13.57
-17.68
-21.85
-26.24
-31.03
-36.32
-42.08
-48.11
-54.13
-59.87
-65.22
-70.3
-75.5
-81.36
-88.4
-96.74
-105.84
-114.43
-120.67
-122.69
-119.22
-109.99
-95.87
-78.55
-59.91
-41.55
-24.42
-8.9
5.01
17.42
28.38
37.86
45.84
52.39
57.63
61.77
64.92
67.19
68.57
69.09
68.84
68.01
66.91
65.82
64.93
64.25
63.61
62.72
61.32
59.25
56.46
53.09
49.34
45.43
41.6
37.94
34.43
30.9
27.13
22.92
18.2
13.1
7.88
2.88
-1.65
-5.65
-9.28
-12.88
-16.88
-21.61
-27.17
-33.36
-39.71
-45.7
-50.95
-55.38
-59.27
-63.17
-67.71
-73.45
-80.65
-89.04
-97.77
-105.37
-110.09
-110.36
-105.26
-94.89
-80.39
-63.49
-45.99
-29.31
-14.21
-0.86
10.85
21.11
30.06
37.75
44.18
49.34
53.23
55.87
57.35
57.79
57.45
56.68
55.86
55.34
55.32
55.76
56.4
56.84
56.67
55.61
53.62
50.88
47.65
44.14
40.45
36.51
32.18
27.39
22.17
16.7
11.26
6.07
1.27
-3.23
-7.64
-12.24
-17.26
-22.74
-28.58
-34.53
-40.38
-45.99
-51.42
-56.84
-62.55
-68.91
-76.22
-84.55
-93.5
-102.03
-108.57
-111.32
-108.91
-100.87
-87.87
-71.53
-53.78
-36.32
-20.2
-5.8
6.9
18.08
27.86
36.29
43.48
49.57
54.7
58.98
62.34
64.67
65.84
65.83
64.82
63.19
61.43
60.01
59.22
59.13
59.46
59.76
59.53
58.39
56.25
53.24
49.7
45.96
42.29
38.77
35.34
31.84
28.09
23.94
19.38
14.48
9.43
4.45
-0.3
-4.75
-8.93
-12.96
-17.06
-21.43
-26.26
-31.6
-37.34
-43.22
-48.89
-54.09
-58.78
-63.22
-67.88
-73.38
-80.18
-88.42
-97.7
-107.0
-114.74
-119.11
-118.57
-112.34
-100.73
-85.05
-67.14
-48.83
-31.42
-15.58
-1.48
10.9
21.57
30.51
37.75
43.52
48.19
52.13
55.52
58.35
60.4
61.44
61.4
60.44
58.91
57.22
55.7
54.49
53.53
52.57
51.29
49.36
46.54
42.76
38.12
32.88
27.42
22.1
17.15
12.56
8.05
3.23
-2.26
-8.54
-15.39
-22.37
-28.97
-34.89
-40.09
-44.9
-49.81
-55.37
-62.01
-69.86
-78.62
-87.4
-94.83
-99.33
-99.51
-94.64
-84.86
-71.19
-55.08
-38.07
-21.38
-5.83
8.15
20.36
30.77
39.48
46.69
52.58
57.27
60.73
62.82
63.44
62.66
60.8
58.38
55.94
53.92
52.45
51.38
50.37
49.0
46.91
43.89
39.93
35.19
29.95
24.49
18.99
13.48
7.83
1.83
-4.67
-11.64
-18.87
-26.07
-32.97
-39.46
-45.67
-51.91
-58.64
-66.26
-74.9
-84.22
-93.28
-100.57
-104.43
-103.48
-97.1
-85.67
-70.42
-53.06
-35.31
-18.46
-3.28
10.02
21.54
31.57
40.38
48.14
54.87
60.5
64.9
68.0
69.83
70.52
70.27
69.3
67.85
66.23
64.77
63.74
63.24
63.15
63.12
62.66
61.39
59.09
55.77
51.65
47.02
42.17
37.29
32.45
27.62
22.73
17.72
12.62
7.54
2.61
-2.12
-6.72
-11.44
-16.64
-22.52
-29.07
-36.03
-42.96
-49.47
-55.42
-60.94
-66.45
-72.48
-79.52
-87.84
-97.23
-106.91
-115.4
-120.89
-121.63
-116.6
-105.87
-90.57
-72.53
-53.63
-35.28
-18.25
-2.79
11.08
23.36
34.05
43.22
51.07
57.86
63.77
68.73
72.53
74.85
75.51
74.63
72.62
70.13
67.79
66.0
64.83
64.04
63.2
61.92
59.94
57.23
53.87
50.01
45.72
41.02
35.94
30.56
25.06
19.65
14.49
9.62
4.93
0.21
-4.73
-10.0
-15.62
-21.42
-27.22
-32.84
-38.25
-43.52
-48.81
-54.4
-60.6
-67.76
-76.1
-85.51
-95.26
-103.95
-109.77
-110.97
-106.56
-96.62
-82.37
-65.64
-48.3
-31.71
-16.56
-2.98
9.16
19.95
29.42
37.52
44.22
49.51
53.46
56.11
57.55
57.92
57.45
56.42
55.08
53.66
52.27
50.94
49.62
48.16
46.36
44.03
41.03
37.31
32.94
28.03
22.64
16.81
10.53
3.86
-3.06
-9.96
-16.59
-22.81
-28.74
-34.73
-41.35
-49.12
-58.26
-68.42
-78.58
-87.15
-92.39
-92.89
-88.06
-78.28
-64.77
-49.15
-32.93
-17.21
-2.6
10.71
22.71
33.43
42.84
50.88
57.48
62.62
66.34
68.74
69.98
70.27
69.88
69.06
68.1
67.24
66.6
66.15
65.73
65.04
63.78
61.75
58.94
55.54
51.83
48.01
44.15
40.18
35.92
31.22
26.05
20.52
14.84
9.19
3.71
-1.62
-6.92
-12.3
-17.88
-23.63
-29.52
-35.41
-41.18
-46.74
-52.0
-57.07
-62.17
-67.72
-74.23
-82.08
-91.26
-101.02
-109.91
-116.03
-117.55
-113.35
-103.41
-88.8
-71.28
-52.73
-34.68
-18.03
-3.16
9.89
21.25
31.05
39.52
46.86
53.27
58.78
63.28
66.52
68.34
68.69
67.82
66.19
64.29
62.58
61.3
60.41
59.69
58.78
57.38
55.29
52.46
48.95
44.92
40.53
35.92
31.21
26.49
21.8
17.18
12.65
8.2
3.84
-0.48
-4.82
-9.34
-14.2
-19.55
-25.39
-31.57
-37.82
-43.85
-49.53
-54.93
-60.41
-66.49
-73.68
-82.24
-91.83
-101.45
-109.43
-113.92
-113.38
-107.18
-95.8
-80.68
-63.71
-46.66
-30.71
-16.34
-3.56
7.85
18.0
26.84
34.24
40.04
44.25
46.97
48.41
48.82
48.43
47.42
45.98
44.31
42.59
41.03
39.71
38.59
37.5
36.19
34.39
31.88
28.53
24.31
19.24
13.5
7.34
1.08
-4.97
-10.65
-15.94
-21.09
-26.48
-32.6
-39.85
-48.36
-57.77
-67.14
-75.04
-79.86
-80.28
-75.68
-66.37
-53.48
-38.56
-23.16
-8.42
5.03
16.96
27.39
36.38
43.96
50.14
54.97
58.5
60.84
62.07
62.28
61.55
60.04
57.99
55.71
53.49
51.52
49.83
48.24
46.47
44.17
41.1
37.16
32.44
27.13
21.49
15.75
10.02
4.28
-1.63
-7.82
-14.33
-21.0
-27.56
-33.69
-39.21
-44.2
-49.0
-54.12
-60.16
-67.55
-76.31
-85.8
-94.71
-101.24
-103.58
-100.49
-91.77
-78.3
-61.76
-44.1
-26.88
-11.06
3.08
15.65
26.87
36.89
45.72
53.31
59.6
64.59
68.27
70.67
71.85
71.93
71.1
69.65
67.86
66.05
64.49
63.3
62.48
61.86
61.11
59.85
57.78
54.76
50.85
46.31
41.51
36.81
32.43
28.46
24.77
21.13
17.29
13.05
8.4
3.46
-1.47
-6.14
-10.42
-14.4
-18.35
-22.62
-27.45
-32.83
-38.52
-44.12
-49.3
-53.87
-57.93
-61.77
-65.89
-70.85
-77.19
-85.2
-94.62
-104.47
-113.14
-118.67
-119.4
-114.47
-104.11
-89.51
-72.36
-54.34
-36.69
-20.15
-5.05
8.47
20.39
30.7
39.49
46.93
53.18
58.35
62.42
65.32
66.96
67.37
66.71
65.32
63.6
61.91
60.49
59.42
58.57
57.78
56.78
55.37
53.37
50.68
47.3
43.28
38.75
33.85
28.71
23.5
18.3
13.25
8.37
3.66
-1.01
-5.81
-10.93
-16.44
-22.31
-28.37
-34.35
-40.05
-45.35
-50.31
-55.09
-60.05
-65.66
-72.36
-80.32
-89.21
-97.99
-105.02
-108.47
-106.9
-99.76
-87.57
-71.75
-54.07
-36.11
-18.99
-3.27
10.86
23.33
34.13
43.26
50.68
56.42
60.55
63.15
64.43
64.65
64.1
63.05
61.7
60.18
58.63
57.19
55.97
55.03
54.27
53.44
52.2
50.24
47.38
43.57
38.87
33.46
27.58
21.53
15.59
9.95
4.61
-0.63
-6.07
-11.98
-18.39
-25.13
-31.8
-38.04
-43.6
-48.55
-53.2
-58.03
-63.61
-70.41
-78.64
-88.1
-97.94
-106.74
-112.68
-114.08
-109.9
-100.09
-85.66
-68.3
-49.85
-31.75
-14.87
0.52
14.41
26.88
37.93
47.51
55.57
62.12
67.19
70.82
73.06
73.96
73.65
72.37
70.5
68.51
66.85
65.82
65.48
65.63
65.82
65.52
64.31
61.98
58.65
54.63
50.32
46.05
41.98
38.13
34.39
30.65
26.75
22.59
18.11
13.33
8.4
3.53
-1.09
-5.37
-9.37
-13.32
-17.55
-22.33
-27.8
-33.94
-40.56
-47.32
-53.85
-59.88
-65.3
-70.32
-75.44
-81.36
-88.69
-97.66
-107.83
-117.93
-126.06
-130.18
-128.69
-120.94
-107.48
-89.78
-69.79
-49.35
-29.79
-11.83
4.24
18.4
30.66
41.08
49.79
56.99
62.89
67.62
71.19
73.5
74.43
74.04
72.58
70.51
68.36
66.57
65.33
64.58
64.04
63.35
62.22
60.43
57.96
54.85
51.29
47.45
43.57
39.77
36.04
32.25
28.19
23.71
18.77
13.54
8.27
3.27
-1.34
-5.63
-9.84
-14.35
-19.45
-25.24
-31.57
-38.12
-44.51
-50.49
-56.0
-61.23
-66.54
-72.44
-79.44
-87.85
-97.58
-107.82
-117.09
-123.45
-125.05
-120.77
-110.6
-95.63
-77.63
-58.44
-39.38
-21.09
-3.68
12.91
28.58
42.94
55.4
65.4
72.63
77.18
79.38
79.72
78.63
76.41
73.32
69.62
65.72
62.11
59.23
57.26
56.05
55.09
53.72
51.38
47.81
43.09
37.65
32.0
26.52
21.34
16.31
11.11
5.41
-0.92
-7.81
-14.99
-22.09
-28.83
-35.06
-40.79
-46.24
-51.79
-57.94
-65.23
-73.97
-83.97
-94.37
-103.61
-109.78
-111.11
-106.57
-96.2
-81.02
-62.74
-43.16
-23.8
-5.63
10.84
25.39
37.94
48.47
57.03
63.74
68.78
72.33
74.51
75.38
74.96
73.39
70.93
68.06
65.27
62.99
61.43
60.51
59.91
59.2
58.01
56.14
53.58
50.39
46.63
42.26
37.16
31.28
24.73
17.79
10.88
4.33
-1.74
-7.49
-13.24
-19.31
-25.88
-32.85
-39.96
-46.91
-53.5
-59.69
-65.6
-71.49
-77.71
-84.67
-92.71
-101.98
-112.1
-122.0
-129.99
-134.12
-132.78
-125.24
-111.89
-94.13
-73.83
-52.84
-32.51
-13.66
3.34
18.37
31.41
42.45
51.57
58.87
64.45
68.42
70.85
71.81
71.52
70.3
68.61
66.89
65.45
64.37
63.5
62.54
61.14
59.1
56.38
53.09
49.35
45.24
40.71
35.6
29.72
23.0
15.5
7.51
-0.6
-8.46
-15.86
-22.83
-29.68
-36.95
-45.25
-54.97
-65.95
-77.22
-87.09
-93.56
-94.93
-90.48
-80.67
-67.02
-51.53
-35.9
-21.1
-7.28
5.95
19.07
32.22
45.09
57.05
67.41
75.72
81.92
86.42
89.97
93.45
97.68
103.07
109.51
116.27
122.03
125.34
124.87
119.92
110.58
97.7
82.58
66.61
50.92
36.23
22.91
11.11
0.88
-7.81
-15.08
-21.14
-26.27
-30.7
-34.62
-38.05
-41.0
-43.51
-45.68
-47.68
-49.68
-51.89
-54.45
-57.48
-61.04
-65.16
-69.88
-75.42
-82.17
-90.64
-101.1
-113.09
-125.16
-135.01
-140.08
-138.48
-129.67
-114.66
-95.61
-74.98
-54.81
-36.25
-19.68
-5.02
7.96
19.43
29.53
38.42
46.3
53.34
59.57
64.89
69.09
71.97
73.5
73.85
73.4
72.63
71.99
71.72
71.83
72.06
72.02
71.31
69.62
66.87
63.19
58.87
54.26
49.67
45.25
40.94
36.5
31.65
26.24
20.31
14.15
8.15
2.61
-2.43
-7.21
-12.16
-17.65
-23.87
-30.66
-37.66
-44.47
-50.78
-56.57
-62.06
-67.63
-73.74
-80.87
-89.39
-99.33
-110.12
-120.43
-128.28
-131.45
-128.2
-117.9
-101.26
-80.2
-57.19
-34.53
-13.86
4.08
19.23
31.93
42.64
51.79
59.7
66.54
72.36
77.05
80.47
82.49
83.1
82.49
80.97
78.97
76.94
75.2
73.93
73.04
72.24
71.09
69.19
66.31
62.47
57.93
53.0
47.89
42.69
37.32
31.71
25.89
20.03
14.37
9.06
4.14
-0.56
-5.35
-10.53
-16.29
-22.61
-29.29
-36.02
-42.55
-48.8
-54.9
-61.19
-68.12
-76.12
-85.33
-95.34
-105.12
-113.03
-117.19
-116.03
-108.79
-95.85
-78.63
-59.13
-39.32
-20.65
-3.84
10.97
23.9
35.1
44.49
51.95
57.39
60.93
62.83
63.48
63.18
62.16
60.53
58.43
56.07
53.72
51.58
49.67
47.79
45.67
43.02
39.76
35.95
31.67
26.94
21.66
15.68
8.93
1.55
-6.15
-13.79
-21.02
-27.67
-33.81
-39.71
-45.8
-52.61
-60.58
-69.88
-80.12
-90.25
-98.58
-103.2
-102.53
-95.87
-83.62
-67.15
-48.37
-29.14
-10.86
5.58
19.87
31.96
41.98
50.16
56.71
61.84
65.66
68.19
69.37
69.22
67.87
65.63
62.94
60.25
57.9
56.0
54.48
53.06
51.37
49.07
45.91
41.83
36.91
31.37
25.47
19.38
13.19
6.81
0.16
-6.82
-14.05
-21.3
-28.27
-34.73
-40.62
-46.18
-51.88
-58.36
-66.18
-75.57
-86.14
-96.69
-105.38
-110.1
-109.17
-101.85
-88.65
-71.18
-51.59
-31.96
-13.74
2.34
16.23
28.14
38.34
46.99
54.11
59.72
63.86
66.66
68.29
68.94
68.8
67.94
66.48
64.52
62.23
59.85
57.64
55.81
54.38
53.17
51.8
49.85
46.92
42.86
37.78
32.04
26.14
20.5
15.31
10.43
5.46
-0.05
-6.43
-13.65
-21.39
-29.15
-36.49
-43.15
-49.18
-54.83
-60.54
-66.8
-74.11
-82.75
-92.57
-102.71
-111.63
-117.35
-118.04
-112.62
-101.2
-84.99
-65.91
-46.01
-26.88
-9.5
5.75
18.84
29.86
38.93
46.19
51.77
55.83
58.5
59.9
60.17
59.49
58.07
56.15
53.92
51.51
48.97
46.36
43.74
41.18
38.69
36.16
33.34
29.91
25.57
20.2
13.9
6.99
-0.15
-7.15
-13.76
-19.89
-25.6
-31.09
-36.75
-43.01
-50.35
-58.99
-68.67
-78.44
-86.69
-91.55
-91.36
-85.33
-73.78
-58.08
-40.21
-22.1
-5.15
9.97
23.15
34.53
44.2
52.12
58.18
62.35
64.76
65.72
65.55
64.54
62.86
60.61
57.97
55.18
52.58
50.48
48.98
47.89
46.7
44.8
41.68
37.2
31.62
25.46
19.29
13.46
7.97
2.55
-3.16
-9.39
-16.12
-23.16
-30.2
-36.95
-43.28
-49.19
-54.89
-60.75
-67.32
-75.14
-84.42
-94.78
-104.95
-112.99
-116.73
-114.48
-105.62
-90.91
-72.19
-51.76
-31.64
-13.15
3.23
17.58
30.2
41.27
50.81
58.75
65.03
69.73
73.0
75.06
76.06
76.07
75.19
73.54
71.4
69.13
67.1
65.53
64.4
63.43
62.23
60.41
57.74
54.23
50.08
45.62
41.14
36.75
32.38
27.79
22.79
17.27
11.39
5.51
-0.03
-5.01
-9.53
-13.98
-18.84
-24.44
-30.84
-37.78
-44.78
-51.41
-57.39
-62.73
-67.71
-72.85
-78.81
-86.18
-95.23
-105.57
-115.94
-124.32
-128.42
-126.39
-117.51
-102.48
-83.2
-62.02
-41.08
-21.72
-4.46
10.71
23.99
35.47
45.15
53.03
59.23
63.93
67.37
69.69
70.92
71.13
70.39
68.94
67.12
65.27
63.68
62.45
61.49
60.56
59.43
57.87
55.73
52.95
49.49
45.32
40.48
35.09
29.39
23.71
18.33
13.38
8.76
4.12
-0.93
-6.69
-13.21
-20.23
-27.31
-34.0
-39.99
-45.26
-50.04
-54.76
-59.94
-66.15
-73.8
-82.85
-92.59
-101.54
-107.7
-109.11
-104.51
-93.83
-78.25
-59.74
-40.43
-21.96
-5.21
9.56
22.44
33.56
42.93
50.51
56.29
60.41
63.05
64.47
64.87
64.43
63.34
61.8
60.04
58.28
56.72
55.47
54.53
53.76
52.9
51.58
49.43
46.18
41.76
36.32
30.26
24.1
18.31
13.18
8.7
4.53
0.15
-4.92
-10.85
-17.46
-24.23
-30.59
-36.15
-40.91
-45.31
-49.96
-55.55
-62.57
-71.14
-80.82
-90.55
-98.66
-103.24
-102.63
-95.97
-83.53
-66.66
-47.28
-27.39
-8.53
8.31
22.64
34.22
43.0
49.06
52.66
54.28
54.53
54.05
53.37
52.84
52.65
52.81
53.24
53.77
54.24
54.55
54.59
54.27
53.54
52.33
50.58
48.33
45.68
42.8
39.86
37.01
34.3
31.66
28.9
25.8
22.2
18.08
13.61
9.04
4.64
0.53
-3.33
-7.15
-11.21
-15.71
-20.78
-26.36
-32.25
-38.18
-43.89
-49.22
-54.29
-59.46
-65.31
-72.44
-81.07
-90.77
-100.23
-107.45
-110.35
-107.42
-98.32
-84.07
-66.67
-48.42
-31.18
-15.99
-3.07
7.87
17.15
24.97
31.32
36.18
39.63
41.93
43.42
44.35
44.86
44.88
44.3
43.03
41.16
38.97
36.88
35.33
34.54
34.5
34.85
35.07
34.63
33.19
30.67
27.29
23.37
19.25
15.16
11.13
7.14
3.08
-1.08
-5.41
-9.91
-14.62
-19.58
-24.76
-30.03
-35.17
-39.98
-44.34
-48.35
-52.34
-56.78
-62.22
-68.99
-77.01
-85.59
-93.42
-98.74
-99.84
-95.56
-85.7
-71.17
-53.67
-35.15
-17.26
-0.99
13.33
25.8
36.6
45.8
53.33
59.04
62.86
64.86
65.26
64.32
62.33
59.57
56.31
52.83
49.45
46.43
43.95
42.01
40.43
38.86
36.91
34.26
30.73
26.32
21.14
15.35
9.12
2.61
-4.04
-10.67
-17.07
-23.03
-28.43
-33.27
-37.8
-42.5
-48.03
-54.96
-63.5
-73.16
-82.67
-90.17
-93.76
-92.05
-84.68
-72.42
-56.81
-39.68
-22.6
-6.59
7.85
20.59
31.64
41.03
48.79
54.99
59.74
63.1
65.17
66.05
65.85
64.77
63.05
60.97
58.85
56.98
55.54
54.56
53.86
53.09
51.86
49.92
47.24
44.02
40.5
36.83
33.03
28.97
24.53
19.72
14.66
9.59
4.75
0.21
-4.11
-8.43
-13.02
-18.17
-24.0
-30.44
-37.23
-43.96
-50.25
-55.9
-61.01
-65.98
-71.47
-78.11
-86.24
-95.6
-105.14
-113.14
-117.54
-116.62
-109.56
-96.75
-79.66
-60.39
-40.95
-22.79
-6.63
7.42
19.56
30.03
38.97
46.48
52.61
57.46
61.13
63.72
65.31
65.97
65.76
64.82
63.39
61.8
60.43
59.61
59.48
59.9
