33.71
37.26
40.08
42.31
44.06
45.32
46.06
46.22
45.82
44.98
43.95
43.0
42.38
42.29
42.72
43.43
43.97
43.8
42.56
40.19
37.03
33.63
30.62
28.29
26.55
24.95
22.89
20.02
16.39
12.46
8.93
6.38
5.08
4.86
5.24
5.56
5.36
4.37
2.53
0.04
-2.68
-4.92
-5.8
-4.5
-0.6
5.79
13.92
22.69
31.07
38.43
44.45
48.98
51.58
51.44
47.82
40.27
29.26
16.2
3.36
-6.65
-11.47
-9.54
-2.19
8.48
19.31
27.69
32.3
32.73
28.56
19.42
5.32
-12.88
-32.99
-52.15
-67.58
-78.29
-83.86
-84.64
-81.52
-75.73
-68.77
-61.76
-55.38
-49.62
-43.83
-37.17
-29.53
-21.91
-15.71
-13.36
-16.6
-25.69
-39.04
-53.93
-67.46
-77.55
-83.13
-83.96
-80.23
-72.19
-60.34
-45.63
-29.49
-13.49
1.05
13.43
23.51
31.59
38.17
43.68
48.41
52.44
55.72
58.06
59.24
59.04
57.36
54.37
50.46
46.2
42.17
38.84
36.43
34.89
33.96
33.2
32.23
30.73
28.43
25.07
20.41
14.34
7.03
-0.96
-8.71
-15.25
-19.88
-22.48
-23.51
-23.76
-23.98
-24.55
-25.56
-26.84
-28.26
-29.85
-31.7
-33.92
-36.49
-39.28
-42.2
-45.3
-48.77
-52.74
-57.03
-61.01
-63.62
-63.75
-60.58
-53.92
-44.18
-32.23
-19.12
-5.86
6.65
17.64
26.47
32.8
36.7
38.67
39.51
39.96
40.47
41.06
41.36
40.92
39.35
36.58
32.77
28.23
23.36
18.57
14.32
11.06
9.14
8.71
9.59
11.31
13.19
14.61
15.16
14.73
13.42
11.38
8.69
5.34
1.28
-3.47
-8.74
-14.32
-20.03
-25.81
-31.79
-38.12
-44.89
-51.96
-58.82
-64.59
-68.19
-68.61
-65.22
-58.01
-47.64
-35.22
-22.02
-9.07
3.01
13.98
23.87
32.67
40.26
46.4
50.9
53.79
55.33
55.96
56.05
55.81
55.2
54.08
52.45
50.55
48.8
47.67
47.37
47.78
48.43
48.74
48.19
46.51
43.7
39.98
35.67
31.17
26.84
22.94
19.57
16.55
13.54
10.14
6.05
1.17
-4.37
-10.3
-16.37
-22.4
-28.41
-34.57
-41.14
-48.36
-56.3
-64.66
-72.67
-79.13
-82.69
-82.22
-77.32
-68.42
-56.71
-43.66
-30.52
-18.12
-6.75
3.55
12.76
20.74
27.26
32.18
35.55
37.68
39.03
40.02
40.9
41.66
42.17
42.31
42.13
41.82
41.69
41.94
42.57
43.3
43.74
43.53
42.49
40.69
38.36
35.78
33.18
30.69
28.36
26.1
23.77
21.18
18.19
14.79
11.16
7.61
4.48
2.02
0.26
-1.06
-2.36
-4.13
-6.71
-10.13
-14.12
-18.22
-21.96
-25.19
-28.06
-31.15
-35.22
-40.94
-48.56
-57.63
-66.97
-74.91
-79.77
-80.38
-76.4
-68.43
-57.74
-45.77
-33.77
-22.48
-12.22
-3.01
5.21
12.58
19.24
25.33
30.9
35.94
40.3
43.71
45.9
46.65
46.03
44.27
41.77
38.93
36.09
33.55
31.52
30.11
29.33
29.13
29.23
29.17
28.42
26.6
23.72
20.15
16.42
13.01
10.34
8.38
6.57
4.02
0.0
-5.56
-12.08
-18.56
-23.97
-27.32
-28.51
-28.72
-29.87
-33.62
-40.34
-49.01
-57.62
-63.84
-65.03
-59.49
-47.1
-29.26
-8.34
12.95
31.55
44.35
49.44
47.81
42.57
37.59
35.88
38.85
46.21
55.95
65.18
66.07
54.69
34.15
12.53
-3.84
-14.02
-20.29
-24.02
-26.13
-25.34
-18.79
-5.03
14.25
34.65
49.44
54.31
48.6
35.24
19.38
6.38
-0.93
-3.17
-3.28
-4.0
-5.87
-7.65
-7.8
-5.79
-2.32
0.76
1.36
-1.83
-8.77
-18.07
-28.18
-38.22
-48.01
-57.72
-67.65
-78.06
-89.12
-100.76
-112.4
-123.02
-131.32
-135.72
-134.49
-126.22
-110.24
-87.07
-58.41
-26.93
4.32
32.37
54.83
70.05
77.27
76.8
70.25
60.46
50.79
43.98
40.94
40.4
39.86
37.26
32.5
27.55
25.19
27.04
32.39
38.64
43.13
44.86
45.05
45.91
48.84
53.15
56.42
56.06
51.1
42.84
34.16
27.81
25.0
24.93
25.45
24.39
20.64
14.5
7.29
0.47
-5.1
-9.4
-13.06
-16.86
-21.33
-26.61
-32.49
-38.71
-45.11
-51.71
-58.51
-65.2
-70.98
-74.54
-74.39
-69.36
-59.15
-44.62
-27.73
-10.89
3.65
14.48
21.29
24.64
25.49
24.78
23.19
21.18
19.15
17.52
16.62
16.55
16.98
17.28
16.84
15.28
12.73
9.71
6.86
4.72
3.5
3.11
3.33
3.92
4.72
5.62
6.47
7.06
7.17
6.66
5.59
4.25
3.01
2.17
1.8
1.67
1.42
0.76
-0.38
-1.9
-3.59
-5.38
-7.34
-9.64
-12.3
-15.2
-18.03
-20.51
-22.56
-24.32
-26.09
-28.17
-30.71
-33.78
-37.42
-41.75
-46.82
-52.35
-57.62
-61.42
-62.41
-59.65
-52.99
-43.16
-31.55
-19.67
-8.7
0.8
8.77
15.47
21.17
25.98
29.87
32.83
34.94
36.43
37.57
38.57
39.45
40.04
40.14
39.59
38.49
37.12
35.87
35.04
34.7
34.63
34.43
33.68
32.1
29.62
26.38
22.65
18.75
14.93
11.34
8.01
4.86
1.74
-1.5
-4.96
-8.65
-12.47
-16.28
-19.96
-23.47
-26.89
-30.43
-34.4
-39.01
-44.29
-49.92
-55.15
-58.95
-60.28
-58.39
-53.14
-45.01
-35.02
-24.37
-14.05
-4.76
3.25
9.97
15.47
19.81
22.98
25.0
25.96
26.05
25.53
24.64
23.56
22.36
21.06
19.64
18.16
16.74
15.55
14.72
14.25
13.98
13.57
12.62
10.78
7.92
4.13
-0.26
-4.8
-9.09
-12.91
-16.3
-19.55
-23.07
-27.28
-32.44
-38.53
-45.17
-51.61
-56.82
-59.69
-59.36
-55.44
-48.22
-38.53
-27.53
-16.43
-6.14
2.82
10.29
16.36
21.28
25.27
28.5
31.01
32.78
33.73
33.84
33.24
32.14
30.79
29.36
27.9
26.4
24.84
23.28
21.83
20.59
19.54
18.47
17.01
14.82
11.65
7.49
2.6
-2.64
-7.79
-12.56
-16.81
-20.66
-24.34
-28.2
-32.59
-37.77
-43.78
-50.3
-56.59
-61.54
-63.93
-62.85
-57.98
-49.71
-39.03
-27.2
-15.37
-4.36
5.38
13.74
20.83
26.84
31.92
36.18
39.58
42.08
43.64
44.32
44.29
43.73
42.81
41.6
40.14
38.52
36.92
35.63
34.82
34.43
34.12
33.3
31.48
28.44
24.38
19.8
15.32
11.35
7.97
4.9
1.7
-1.98
-6.25
-10.98
-15.84
-20.52
-24.86
-28.85
-32.69
-36.65
-41.02
-46.1
-52.02
-58.66
-65.43
-71.31
-74.93
-75.07
-71.06
-63.08
-52.11
-39.63
-27.04
-15.33
-4.93
4.12
11.92
18.55
23.96
28.15
31.18
33.26
34.63
35.44
35.74
35.45
34.45
32.72
30.35
27.59
24.76
22.25
20.29
18.9
17.84
16.73
15.18
13.0
10.27
7.34
4.69
2.65
1.41
0.78
0.39
-0.17
-1.15
-2.56
-4.17
-5.62
-6.65
-7.19
-7.47
-7.93
-9.12
-11.54
-15.57
-21.31
-28.47
-36.22
-43.26
-48.05
-49.28
-46.34
-39.59
-30.24
-19.92
-10.09
-1.66
5.16
10.63
15.13
18.91
21.97
24.19
25.44
25.71
25.08
23.7
21.63
18.93
15.62
11.83
7.73
3.52
-0.66
-4.79
-8.87
-12.85
-16.48
-19.41
-21.25
-21.78
-20.98
-18.92
-15.62
-10.84
-4.15
4.82
16.05
28.95
42.35
54.75
64.63
70.66
71.93
68.0
59.13
46.43
31.82
17.81
6.82
0.53
-0.59
2.74
9.09
16.9
24.94
32.42
38.86
43.93
47.34
49.07
49.34
48.65
47.5
46.2
44.73
42.89
40.47
37.48
34.17
30.93
28.12
25.9
24.23
22.92
21.77
20.58
19.21
17.53
15.39
12.72
9.56
6.04
2.29
-1.68
-6.08
-11.26
-17.51
-24.82
-32.75
-40.54
-47.47
-53.14
-57.61
-61.34
-64.89
-68.68
-72.99
-77.91
-83.45
-89.32
-94.78
-98.57
-99.17
-95.25
-86.31
-73.09
-57.41
-41.52
-27.27
-15.53
-6.07
2.01
9.51
16.76
23.5
29.21
33.57
36.64
38.86
40.6
41.99
42.76
42.52
41.05
38.56
35.64
32.97
31.04
29.87
29.13
28.35
27.1
25.21
22.72
19.82
16.72
13.64
10.8
8.42
6.64
5.46
4.64
3.74
2.29
0.09
-2.7
-5.58
-7.94
-9.38
-9.96
-10.24
-11.13
-13.63
-18.53
-26.14
-36.28
-48.11
-60.22
-70.69
-77.47
-78.9
-74.28
-64.27
-50.79
-36.42
-23.56
-13.62
-6.81
-2.45
0.43
2.52
4.09
5.14
5.73
6.2
6.98
8.38
10.31
12.33
13.86
14.56
14.53
14.23
14.27
15.05
16.51
18.17
19.33
19.41
18.17
15.89
13.17
10.68
8.84
7.63
6.64
5.3
3.08
-0.21
-4.38
-8.94
-13.28
-16.9
-19.74
-22.25
-25.26
-29.68
-35.96
-43.68
-51.47
-57.39
-59.53
-56.78
-49.16
-38.0
-25.53
-14.35
-6.81
-4.3
-6.75
-12.49
-18.82
-22.87
-22.82
-18.45
-11.14
-3.19
3.14
6.39
6.23
3.58
0.5
-0.15
4.59
16.74
36.36
61.07
86.85
109.57
126.73
138.16
145.32
149.64
151.18
148.45
139.51
123.71
102.58
79.57
58.46
41.72
29.68
20.94
13.65
6.64
-0.19
-6.32
-11.52
-16.59
-23.2
-33.05
-46.74
-63.04
-79.02
-91.04
-96.23
-93.63
-84.48
-71.55
-57.88
-45.71
-35.87
-28.04
-21.36
-15.14
-9.03
-3.04
2.81
8.53
14.07
19.09
22.96
24.89
24.33
21.29
16.53
11.34
7.15
5.08
5.48
7.87
11.04
13.47
13.92
11.85
7.67
2.47
-2.47
-6.27
-8.79
-10.5
-12.18
-14.43
-17.56
-21.66
-26.65
-32.19
-37.48
-41.38
-42.94
-42.26
-40.72
-40.46
-42.94
-47.71
-52.29
-53.61
-50.08
-43.11
-36.9
-36.43
-44.87
-61.83
-83.47
-104.25
-119.2
-125.53
-122.84
-112.45
-96.18
-75.69
-52.3
-27.33
-2.42
20.28
38.48
50.36
55.3
54.18
49.23
43.26
38.81
37.33
39.06
43.3
49.04
55.53
62.51
70.08
78.3
86.82
94.69
100.65
103.6
103.08
99.4
93.46
86.37
78.95
71.67
64.67
58.02
51.81
46.18
41.23
36.92
33.11
29.6
26.26
23.0
19.73
16.33
12.64
8.52
3.89
-1.18
-6.5
-11.86
-17.14
-22.43
-28.05
-34.5
-42.25
-51.44
-61.6
-71.58
-79.71
-84.33
-84.31
-79.44
-70.54
-59.12
-46.87
-35.13
-24.69
-15.72
-8.01
-1.2
5.11
11.2
17.24
23.31
29.34
35.14
40.45
45.02
48.58
51.02
52.3
52.49
51.76
50.37
48.6
46.66
44.7
42.68
40.47
37.9
34.83
31.25
27.28
23.17
19.16
15.47
12.16
9.17
6.31
3.37
0.12
-3.58
-7.82
-12.62
-17.92
-23.62
-29.53
-35.47
-41.21
-46.63
-51.66
-56.48
-61.46
-67.1
-73.74
-81.2
-88.62
-94.45
-96.97
-94.89
-87.89
-76.82
-63.44
-49.83
-37.69
-27.94
-20.54
-14.81
-9.83
-4.83
0.48
6.0
11.28
15.86
19.38
21.79
23.3
24.34
25.6
27.89
31.93
38.16
46.37
55.58
64.15
70.17
72.1
69.36
62.58
53.46
44.13
36.36
30.94
27.6
25.42
23.44
21.21
18.65
15.68
11.72
5.6
-3.96
-17.5
-34.23
-51.98
-67.88
-79.43
-85.29
-85.53
-81.27
-74.09
-65.45
-56.44
-47.67
-39.34
-31.39
-23.57
-15.75
-8.07
-0.99
4.91
9.17
11.74
12.96
13.34
13.28
12.91
12.11
10.78
9.04
7.3
6.05
5.59
5.9
6.61
7.16
6.89
5.19
1.56
-4.27
-12.08
-21.14
-30.35
-38.68
-45.54
-51.06
-55.93
-61.0
-66.79
-73.37
-80.47
-87.93
-95.96
-104.99
-115.16
-125.75
-134.83
-139.68
-137.6
-126.88
-107.36
-80.34
-47.88
-12.08
25.36
63.01
99.27
132.05
158.81
177.19
185.67
184.14
174.01
157.9
139.04
120.69
105.56
95.41
90.81
91.05
94.49
99.02
102.61
103.6
100.84
93.7
82.17
67.01
49.76
32.5
17.16
4.89
-4.35
-11.62
-18.28
-25.2
-32.33
-38.86
-43.83
-46.81
-48.25
-49.28
-51.18
-54.76
-60.02
-66.1
-71.65
-75.25
-75.87
-73.23
-67.73
-60.28
-51.86
-43.17
-34.47
-25.65
-16.59
-7.49
0.98
7.87
12.35
14.1
13.5
11.47
9.02
6.93
5.57
5.09
5.77
8.14
12.95
20.72
31.42
44.36
58.46
72.7
86.44
99.29
110.72
119.6
124.23
122.83
114.46
99.67
80.5
59.92
40.66
24.39
11.32
0.55
-9.27
-19.23
-29.85
-41.09
-52.55
-63.54
-73.27
-80.78
-85.14
-85.62
-81.93
-74.42
-64.02
-52.01
-39.73
-28.29
-18.36
-10.19
-3.68
1.54
5.82
9.4
12.39
14.65
16.03
16.41
15.8
14.41
12.62
10.94
9.84
9.7
10.63
12.39
14.39
15.84
16.0
14.4
11.06
6.43
1.28
-3.65
-7.94
-11.62
-15.11
-19.04
-24.0
-30.24
-37.57
-45.33
-52.52
-58.02
-60.84
-60.42
-56.73
-50.3
-42.01
-32.78
-23.21
-13.53
-3.6
6.7
17.1
26.83
34.68
39.5
40.63
38.28
33.51
27.76
22.38
18.17
15.22
13.15
11.47
9.88
8.38
7.14
6.28
5.71
5.17
4.27
2.76
0.72
-1.49
-3.33
-4.38
-4.5
-4.03
-3.75
-4.69
-7.84
-13.71
-22.18
-32.52
-43.35
-52.97
-59.51
-61.45
-58.1
-49.74
-37.59
-23.5
-9.54
2.66
12.29
19.45
24.84
29.0
32.44
35.66
39.05
42.83
47.1
52.03
57.77
64.34
70.92
76.94
82.42
87.78
92.85
96.79
98.38
96.94
93.06
88.0
84.51
85.62
92.36
101.66
107.16
102.14
82.72
49.5
5.56
-43.66
-92.12
-134.82
-168.87
-192.65
-204.54
-203.05
-180.26
-137.19
-85.88
-41.29
-10.88
6.4
15.41
20.76
24.74
27.3
25.98
20.6
12.09
3.36
-2.81
-5.1
-3.71
-0.13
3.69
5.16
3.24
-1.1
-5.71
-8.83
-10.02
-9.88
-9.31
-8.86
-9.06
-9.57
-9.59
-8.48
-6.62
-5.23
-5.35
-7.29
-10.54
-14.47
-18.39
-21.8
-24.37
-26.18
-27.69
-29.45
-31.91
-35.25
-39.36
-43.61
-46.88
-47.85
-45.5
-39.53
-30.41
-19.25
-7.41
3.9
13.94
22.43
29.49
35.38
40.24
44.06
46.71
48.12
48.36
47.6
46.04
43.79
40.87
37.22
32.87
28.07
23.24
18.85
15.22
12.34
9.89
7.35
4.27
0.43
-4.06
-8.93
-13.86
-18.73
-23.58
-28.57
-33.92
-39.83
-46.34
-53.33
-60.36
-66.63
-71.04
-72.53
-70.38
-64.58
-55.91
-45.68
-35.33
-25.94
-18.01
-11.46
-5.89
-0.89
3.67
7.55
10.22
11.09
9.84
6.6
2.04
-2.82
-6.94
-9.59
-10.59
-10.33
-9.51
-8.88
-8.99
-10.05
-11.98
-14.38
-16.6
-17.91
-17.63
-15.38
-11.2
-5.53
1.04
8.03
15.28
22.94
31.2
39.91
48.41
55.49
59.8
60.36
57.01
50.53
42.36
34.08
26.79
20.87
15.99
11.55
7.11
2.6
-1.92
-6.61
-12.13
-19.43
-29.15
-40.98
-53.3
-63.53
-69.02
-68.08
-60.65
-48.23
-33.19
-17.82
-3.58
9.07
20.32
30.54
39.87
48.18
55.22
60.81
64.92
67.53
68.48
67.42
63.98
58.09
50.36
42.11
35.15
31.22
31.32
35.28
41.69
48.29
52.73
53.28
49.33
41.34
30.5
18.27
6.15
-4.47
-12.28
-16.2
-15.71
-11.17
-3.97
3.8
9.98
13.04
12.56
9.17
4.11
-1.38
-6.55
-11.32
-16.09
-21.55
-28.32
-36.74
-46.65
-57.22
-66.99
-74.05
-76.58
-73.53
-64.97
-52.3
-37.7
-23.48
-11.3
-1.77
5.4
11.04
15.99
20.73
25.41
29.9
33.98
37.43
40.04
41.74
42.59
42.87
42.93
43.11
43.5
43.91
44.0
43.39
41.83
39.26
35.68
31.18
26.04
20.76
16.09
12.85
11.54
12.07
13.67
15.17
15.47
13.97
10.74
6.44
1.92
-2.18
-5.7
-8.98
-12.61
-17.07
-22.53
-28.79
-35.51
-42.43
-49.47
-56.63
-63.73
-70.1
-74.69
-76.44
-74.81
-70.11
-63.39
-55.88
-48.29
-40.36
-31.04
-19.04
-3.71
14.39
33.48
51.05
64.73
73.04
75.79
73.94
69.06
62.73
56.1
49.75
43.85
38.5
33.92
30.42
28.22
27.21
26.87
26.46
25.3
23.14
20.2
17.05
14.18
11.74
9.45
6.78
3.29
-1.1
-6.08
-11.17
-16.01
-20.59
-25.26
-30.54
-36.75
-43.77
-50.89
-56.93
-60.68
-61.23
-58.35
-52.47
-44.51
-35.56
-26.56
-18.2
-10.84
-4.67
0.28
4.17
7.36
10.37
13.77
17.88
22.6
27.44
31.69
34.81
36.63
37.59
38.62
40.94
45.61
53.11
63.03
73.97
83.88
90.67
92.85
90.06
82.98
73.01
61.62
49.86
38.11
26.22
13.75
0.33
-14.21
-29.73
-45.73
-61.33
-75.27
-86.09
-92.45
-93.53
-89.37
-80.94
-69.85
-57.86
-46.36
-36.06
-27.07
-19.12
-11.89
-5.23
0.83
6.26
11.03
15.25
19.07
22.59
25.87
28.88
31.55
33.72
35.18
35.65
34.93
33.02
30.3
27.44
25.16
23.99
23.87
24.27
24.36
23.45
21.34
18.37
15.25
12.69
11.1
10.48
10.52
10.68
10.28
8.56
4.81
-1.38
-9.74
-19.22
-28.31
-35.62
-40.54
-43.4
-45.24
-47.1
-49.39
-51.81
-53.48
-53.57
-51.78
-48.44
-44.21
-39.56
-34.52
-28.87
-22.57
-15.9
-9.51
-4.15
-0.4
1.64
2.28
1.96
0.98
-0.93
-4.07
-8.47
-13.71
-19.16
-24.26
-28.76
-32.84
-36.89
-41.84
-48.0
-54.89
-61.72
-68.08
-74.23
-80.8
-88.21
-96.39
-105.88
-116.3
-126.45
-135.15
-142.06
-147.58
-152.02
-155.02
-155.53
-154.25
-151.35
-146.21
-138.05
-126.91
-113.48
-98.45
-82.35
-65.67
-51.77
-42.95
-39.22
-38.78
-39.46
-39.48
-37.58
-33.4
-12.43
27.92
77.92
123.57
157.38
179.39
192.41
198.72
198.95
194.26
183.26
166.6
147.39
129.5
115.0
103.56
94.5
86.39
78.28
67.94
54.9
40.61
27.35
16.54
8.42
2.63
-1.46
-4.17
-7.05
-11.04
-16.23
-22.22
-28.71
-35.41
-41.58
-46.1
-47.6
-45.69
-40.46
-32.37
-22.29
-11.44
-0.99
8.32
16.3
23.18
29.1
34.19
38.55
42.18
45.02
46.96
47.99
48.2
47.77
46.91
45.81
44.67
43.6
42.7
41.93
41.17
40.22
38.87
37.03
34.78
32.32
29.86
27.47
24.98
21.97
17.91
12.39
5.29
-3.12
-12.16
-20.9
-28.33
-33.67
-36.68
-37.82
-38.19
-39.21
-42.07
-47.38
-54.95
-63.92
-73.0
-80.82
-86.13
-87.93
-85.63
-79.22
-69.45
-57.82
-46.28
-36.59
-29.75
-25.65
-23.25
-21.11
-18.06
-13.58
-7.82
-1.35
5.26
11.62
17.57
23.05
27.94
32.11
35.42
37.86
39.57
40.8
41.9
43.17
44.9
47.21
49.96
52.79
55.14
56.51
56.55
55.2
52.6
49.02
44.77
40.14
35.37
30.64
26.03
21.51
16.93
12.02
6.4
-0.33
-8.46
-17.92
-27.98
-37.22
-43.8
-46.01
-43.01
-35.22
-24.22
-12.11
-0.69
9.09
17.21
24.2
30.63
36.79
42.6
47.81
52.31
56.11
59.35
62.12
64.38
66.01
66.82
66.74
65.73
63.9
61.48
58.82
56.36
54.43
53.07
51.9
50.16
46.92
41.42
33.28
22.77
10.68
-1.84
-13.69
-24.15
-33.12
-41.09
-48.94
-57.57
-67.55
-78.95
-91.3
-103.7
-115.03
-124.13
-129.99
-131.88
-129.55
-123.18
-113.41
-101.13
-87.3
-72.86
-58.62
-45.36
-33.62
-23.63
-15.18
-7.62
-0.12
8.06
17.31
27.54
38.3
48.95
58.89
67.71
75.26
81.69
87.31
92.48
97.39
101.85
105.42
107.47
107.53
105.44
101.45
96.02
89.55
82.27
74.14
65.01
54.85
43.85
32.45
21.16
10.45
0.55
-8.58
-17.28
-26.14
-35.87
-46.93
-59.32
-72.31
-84.5
-94.25
-100.15
-101.51
-98.56
-92.21
-83.65
-73.93
-63.75
-53.46
-43.26
-33.3
-23.79
-14.91
-6.86
0.2
6.08
10.63
13.82
15.82
16.96
17.59
17.88
17.7
16.79
14.97
12.5
10.01
8.37
8.18
9.46
11.67
13.96
15.66
16.52
16.65
16.27
15.4
13.74
10.87
6.54
0.82
-5.82
-12.7
-19.15
-24.64
-28.91
-31.96
-34.1
-35.95
-38.28
-41.81
-46.89
-53.24
-59.87
-65.28
-67.85
-66.38
-60.42
-50.44
-37.62
-23.48
-9.41
3.7
15.51
26.1
35.69
44.38
52.01
58.24
62.68
65.1
65.48
64.09
61.29
57.53
53.14
48.42
43.62
39.03
35.01
31.87
29.81
28.77
28.34
27.87
26.57
23.76
19.14
12.86
5.46
-2.33
-9.87
-16.8
-23.17
-29.25
-35.4
-41.87
-48.68
-55.6
-62.13
-67.53
-70.88
-71.26
-68.0
-60.96
-50.7
-38.31
-25.21
-12.61
-1.28
8.52
16.92
24.13
30.22
35.07
38.5
40.4
40.85
40.14
38.62
36.63
34.38
31.99
29.53
27.08
24.77
22.83
21.4
20.52
19.93
19.11
17.38
14.14
9.2
2.85
-4.15
-10.81
-16.34
-20.42
-23.29
-25.65
-28.32
-31.92
-36.56
-41.66
-46.07
-48.36
-47.26
-42.09
-33.08
-21.26
-8.17
4.67
16.22
26.07
34.33
41.19
46.51
49.66
49.59
45.43
36.93
24.94
11.24
-2.02
-13.0
-20.7
-24.93
-25.96
-24.09
-19.63
-13.12
-5.67
1.05
5.37
6.31
3.98
-0.73
-6.95
-14.46
-23.81
-35.63
-49.81
-64.94
-78.7
-88.65
-93.26
-92.32
-86.81
-78.27
-68.14
-57.16
-45.05
-30.61
-12.34
10.47
36.69
63.09
85.19
99.07
103.13
98.72
89.28
78.47
68.51
59.68
51.36
43.28
36.39
32.44
32.57
36.21
40.77
42.71
39.22
29.53
15.3
-0.12
-13.15
-21.54
-25.11
-25.65
-25.74
-27.4
-31.06
-35.58
-39.15
-40.53
-39.93
-38.94
-39.56
-42.91
-48.41
-53.98
-56.94
-55.33
-48.73
-38.34
-26.34
-14.99
-5.93
-0.04
2.36
1.21
-3.46
-11.21
-20.99
-30.95
-38.79
-42.4
-40.58
-33.42
-22.26
-9.06
4.21
16.15
26.13
34.19
40.74
46.3
51.32
56.04
60.48
64.46
67.63
69.6
70.14
69.28
67.33
64.83
62.28
60.0
58.0
56.08
53.96
51.5
48.72
45.82
42.96
40.17
37.25
33.9
29.9
25.19
19.94
14.43
8.93
3.6
-1.51
-6.43
-11.16
-15.69
-20.0
-24.12
-28.07
-31.91
-35.65
-39.3
-42.93
-46.76
-51.14
-56.43
-62.66
-69.32
-75.25
-78.92
-78.85
-74.21
-65.14
-52.76
-38.78
-24.95
-12.58
-2.29
5.89
12.26
17.16
20.86
23.53
25.31
26.4
27.03
27.39
27.57
27.51
27.07
26.1
24.56
22.55
20.31
18.16
16.41
15.22
14.53
14.04
13.3
11.83
9.27
5.54
0.9
-4.21
-9.26
-13.87
-17.94
-21.61
-25.15
-28.9
-33.11
-37.97
-43.55
-49.67
-55.81
-61.0
-63.98
-63.5
-58.88
-50.26
-38.67
-25.69
-12.93
-1.5
8.12
16.02
22.54
27.94
32.34
35.72
38.08
39.52
40.22
40.38
40.12
39.5
38.52
37.27
35.85
34.41
33.02
31.65
30.19
28.54
26.63
24.46
22.09
19.52
16.7
13.53
9.93
5.85
1.36
-3.42
-8.32
-13.16
-17.75
-21.97
-25.83
-29.48
-33.26
-37.63
-43.04
-49.69
-57.29
-65.01
-71.45
-75.07
-74.56
-69.29
-59.61
-46.7
-32.26
-17.98
-5.15
5.6
14.24
21.09
26.64
31.27
35.29
38.84
41.98
44.71
46.95
48.6
49.53
49.65
48.99
47.76
46.33
45.13
44.48
44.49
45.0
45.59
45.78
45.16
43.58
41.11
38.03
34.68
31.34
28.19
25.24
22.43
19.65
16.81
13.87
10.79
7.56
4.18
0.67
-2.87
-6.33
-9.59
-12.59
-15.41
-18.23
-21.3
-24.83
-28.89
-33.33
-37.89
-42.25
-46.16
-49.65
-52.98
-56.69
-61.36
-67.37
-74.58
-82.19
-88.74
-92.46
-91.86
-86.16
-75.6
-61.44
-45.47
-29.54
-15.05
-2.76
7.2
15.08
21.3
26.31
30.43
33.92
36.97
39.66
41.94
43.69
44.72
44.91
44.29
43.08
41.62
40.29
39.4
39.03
39.06
39.18
39.06
38.43
37.18
35.34
33.07
30.51
27.77
24.85
21.71
18.31
14.69
10.98
7.37
4.0
0.88
-2.12
-5.25
-8.73
-12.67
-17.07
-21.77
-26.54
-31.14
-35.41
-39.31
-42.94
-46.62
-50.81
-55.97
-62.29
-69.41
-76.27
-81.28
-82.75
-79.54
-71.46
-59.41
-45.01
-30.03
-15.94
-3.58
6.74
15.04
21.46
26.21
29.58
31.93
33.67
35.11
36.37
37.37
37.92
37.89
37.26
36.15
34.84
33.6
32.62
31.91
31.37
30.76
29.81
28.31
26.17
23.46
20.34
16.99
13.49
9.78
5.66
0.96
-4.36
-10.09
-15.82
-21.05
-25.48
-29.1
-32.3
-35.68
-39.91
-45.5
-52.57
-60.75
-69.11
-76.21
-80.37
-80.15
-74.79
-64.54
-50.64
-34.97
-19.45
-5.57
5.94
15.08
22.3
28.19
33.19
37.52
41.17
44.09
46.2
47.54
48.25
48.45
48.25
47.66
46.7
45.44
44.01
42.62
41.44
40.55
39.83
39.03
37.85
36.02
33.41
30.1
26.29
22.27
18.27
14.45
10.77
7.14
3.37
-0.72
-5.23
-10.19
-15.48
-20.92
-26.25
-31.26
-35.88
-40.2
-44.54
-49.37
-55.17
-62.24
-70.42
-78.97
-86.5
-91.31
-91.83
-87.15
-77.33
-63.44
-47.18
-30.37
-14.48
-0.41
11.49
21.19
28.92
34.95
39.63
43.35
46.44
49.12
51.43
53.25
54.39
54.68
54.13
52.92
51.41
49.97
48.9
48.27
47.92
47.54
46.79
45.51
43.69
41.46
38.96
36.24
33.25
29.88
26.01
21.71
17.15
12.6
8.34
4.46
0.89
-2.67
-6.56
-11.03
-16.16
-21.77
-27.5
-32.98
-37.94
-42.38
-46.54
-50.87
-55.92
-62.12
-69.57
-77.75
-85.49
-91.11
-92.84
-89.37
-80.4
-66.73
-50.1
-32.65
-16.28
-2.28
8.87
17.36
23.72
28.57
32.38
35.46
37.91
39.75
40.95
41.53
41.52
41.02
40.13
38.94
37.51
35.91
34.22
32.53
30.93
29.44
27.96
26.32
24.28
21.67
18.34
14.32
9.7
4.66
-0.55
-5.75
-10.75
-15.46
-19.92
-24.28
-28.81
-33.86
-39.8
-46.83
-54.83
-63.08
-70.34
-74.98
-75.42
-70.71
-60.87
-46.98
-30.84
-14.43
0.67
13.49
23.74
31.59
37.44
41.74
44.94
47.42
49.41
51.0
52.07
52.48
52.09
50.94
49.2
47.18
45.19
43.45
42.07
40.98
39.97
38.69
36.79
34.02
30.36
26.04
21.43
16.83
12.33
7.78
2.89
-2.56
-8.59
-14.97
-21.3
-27.24
-32.62
-37.52
-42.24
-47.24
-52.97
-59.87
-68.06
-77.15
-86.08
-93.1
-96.25
-93.9
-85.49
-71.73
-54.45
-35.98
-18.36
-2.88
10.06
20.67
29.34
36.43
42.16
46.72
50.33
53.24
55.65
57.57
58.9
59.49
59.24
58.27
56.83
55.2
53.65
52.34
51.33
50.56
49.85
48.98
47.7
45.78
43.05
39.53
35.32
30.64
25.73
20.83
16.06
11.48
7.05
2.66
-1.87
-6.71
-12.03
-17.82
-23.98
-30.21
-36.22
-41.76
-46.82
-51.61
-56.61
-62.4
-69.47
-77.95
-87.3
-96.25
-102.94
-105.38
-102.07
-92.56
-77.72
-59.44
-40.13
-21.91
-6.18
6.61
16.69
24.68
31.17
36.54
41.0
44.57
47.22
48.92
49.7
49.63
48.82
47.47
45.73
43.8
41.82
39.94
38.27
36.85
35.65
34.53
33.22
31.44
28.88
25.31
20.69
15.14
8.94
2.5
-3.79
-9.6
-14.81
-19.49
-23.92
-28.57
-33.95
-40.47
-48.26
-56.85
-65.14
-71.56
-74.38
-72.3
-64.92
-52.87
-37.7
-21.4
-5.77
7.93
19.19
28.11
35.13
40.71
45.16
48.65
51.17
52.74
53.36
53.15
52.29
51.01
49.53
47.99
46.52
45.16
43.93
42.76
41.52
40.0
37.98
35.31
31.94
27.98
23.59
18.92
14.05
8.94
3.55
-2.1
-7.94
-13.78
-19.43
-24.77
-29.8
-34.65
-39.63
-45.13
-51.58
-59.18
-67.73
-76.32
-83.4
-87.1
-85.82
-78.83
-66.57
-50.66
-33.25
-16.4
-1.48
10.97
21.08
29.31
36.07
41.67
46.25
49.93
52.84
55.06
56.67
57.66
58.01
57.71
56.81
55.36
53.54
51.54
49.58
47.87
46.5
45.41
44.41
43.14
41.28
38.55
34.9
30.45
25.53
20.51
15.77
11.52
7.77
4.31
0.8
-3.11
-7.63
-12.74
-18.23
-23.77
-29.05
-33.86
-38.23
-42.38
-46.72
-51.77
-57.96
-65.44
-73.77
-81.84
-88.0
-90.41
-87.69
-79.45
-66.44
-50.4
-33.48
-17.57
-3.89
7.2
15.94
22.86
28.52
33.31
37.48
41.15
44.34
46.99
48.93
49.97
49.96
48.92
47.05
44.75
42.46
40.56
39.24
38.47
38.05
37.61
36.83
35.42
33.23
30.29
26.74
22.82
18.8
14.91
11.3
7.92
4.68
1.36
-2.22
-6.2
-10.59
-15.33
-20.23
-25.05
-29.57
-33.63
-37.27
-40.76
-44.51
-49.06
-54.78
-61.65
-69.06
-75.78
-80.23
-80.89
-76.86
-68.16
-55.81
-41.48
-26.97
-13.73
-2.56
6.4
13.42
18.95
23.35
26.82
29.47
31.32
32.42
32.87
32.75
32.21
31.38
30.37
29.27
28.12
26.97
25.8
24.6
23.32
21.92
20.36
18.61
16.6
14.21
11.28
7.69
3.43
-1.34
-6.33
-11.21
-15.69
-19.68
-23.24
-26.64
-30.25
-34.48
-39.68
-45.93
-52.88
-59.65
-64.88
-67.05
-65.03
-58.45
-47.94
-35.01
-21.46
-8.91
1.7
10.13
16.74
22.07
26.53
30.3
33.35
35.64
37.16
38.04
38.42
38.44
38.1
37.31
35.98
34.15
32.05
30.05
28.53
27.65
27.27
26.95
26.09
24.24
21.24
17.34
13.05
8.91
5.25
2.04
-1.04
-4.37
-8.25
-12.69
-17.44
-22.13
-26.38
-30.06
-33.28
-36.4
-39.91
-44.31
-49.9
-56.66
-64.05
-71.08
-76.33
-78.37
-76.11
-69.26
-58.43
-45.03
-30.79
-17.3
-5.57
4.02
11.68
17.84
22.97
27.38
31.24
34.62
37.49
39.79
41.42
42.27
42.33
41.66
40.45
38.93
37.37
35.96
34.81
33.94
33.24
32.57
31.73
30.5
28.73
26.35
23.39
19.97
16.28
12.53
8.9
5.45
2.15
-1.16
-4.68
-8.57
-12.86
-17.45
-22.13
-26.63
-30.69
-34.17
-37.07
-39.64
-42.3
-45.63
-50.16
-56.14
-63.29
-70.7
-76.95
-80.37
-79.62
-74.03
-63.89
-50.37
-35.17
-20.04
-6.37
5.05
14.02
20.77
25.71
29.34
32.09
34.35
36.31
38.04
39.4
40.15
40.09
39.15
37.48
35.44
33.43
31.74
30.48
29.48
28.47
27.22
25.57
23.53
21.18
18.57
15.7
12.47
8.78
4.63
0.1
-4.63
-9.35
-13.9
-18.2
-22.27
-26.23
-30.31
-34.8
-40.05
-46.2
-53.0
-59.58
-64.56
-66.38
-63.84
-56.68
-45.69
-32.49
-18.94
-6.53
4.01
12.6
19.54
25.19
29.7
33.16
35.65
37.32
38.4
39.02
39.2
38.86
37.96
36.61
35.02
33.49
32.24
31.29
30.53
29.68
28.47
26.74
24.43
21.64
18.53
15.2
11.65
7.8
3.48
-1.36
-6.67
-12.21
-17.71
-22.87
-27.55
-31.75
-35.61
-39.41
-43.54
-48.44
-54.44
-61.49
-68.93
-75.45
-79.34
-78.97
-73.46
-63.03
-49.0
-33.35
-18.07
-4.6
6.41
15.03
21.7
27.0
31.4
35.21
38.63
41.69
44.33
46.45
47.92
48.68
48.75
48.26
47.4
46.38
45.43
44.7
44.24
43.98
43.71
43.13
42.0
40.18
37.74
34.88
31.85
28.85
25.95
23.08
20.11
16.9
13.4
9.68
5.89
2.21
-1.19
-4.31
-7.31
-10.48
-14.13
-18.37
-23.15
-28.13
-32.92
-37.21
-40.93
-44.36
-48.01
-52.48
-58.2
-65.24
-73.04
-80.42
-85.81
-87.61
-84.75
-77.01
-65.17
-50.67
-35.23
-20.38
-7.14
3.97
12.86
19.71
24.88
28.87
32.2
35.32
38.42
41.41
43.94
45.63
46.23
45.77
44.5
42.83
41.15
39.72
38.69
38.03
37.65
37.32
36.76
35.65
33.74
30.97
27.5
23.67
19.87
16.34
13.1
9.92
6.48
2.53
-2.02
-7.0
-12.11
-16.98
-21.34
-25.11
-28.42
-31.61
-35.14
-39.51
-45.05
-51.73
-59.01
-65.77
-70.53
-71.81
-68.66
-60.98
-49.64
-36.2
-22.37
-9.56
1.46
10.48
17.69
23.37
27.7
30.8
32.8
33.92
34.45
34.65
34.71
34.66
34.37
33.71
32.64
31.24
29.67
28.14
26.74
25.47
24.21
22.76
20.97
18.71
15.88
12.44
8.44
4.01
-0.59
-5.05
-9.14
-12.78
-16.09
-19.36
-22.97
-27.25
-32.5
-38.81
-45.99
-53.39
-59.87
-64.02
-64.47
-60.45
-52.05
-40.36
-27.02
-13.76
-1.89
7.97
15.75
21.79
26.48
30.15
33.06
35.42
37.42
39.15
40.63
41.72
42.21
41.92
40.79
38.98
36.8
34.64
32.88
31.76
31.24
31.03
30.64
29.56
27.44
24.22
20.18
15.74
11.37
7.31
3.61
0.09
-3.46
-7.2
-11.18
-15.37
-19.67
-23.98
-28.17
-32.14
-35.85
-39.43
-43.22
-47.72
-53.34
-60.04
-67.15
-73.3
-76.82
-76.23
-70.83
-60.96
-47.89
-33.45
-19.36
-6.84
3.54
11.86
18.49
23.88
28.4
32.26
35.59
38.45
40.87
42.86
44.35
45.29
45.6
45.3
44.49
43.4
42.29
41.4
40.81
40.49
40.25
39.86
39.06
37.74
35.88
33.55
30.93
28.2
25.49
22.84
20.23
17.52
14.58
11.3
7.7
3.89
0.09
-3.48
-6.66
-9.47
-12.09
-14.81
-17.94
-21.69
-26.07
-30.89
-35.83
-40.58
-44.93
-48.92
-52.82
-57.12
-62.31
-68.62
-75.71
-82.55
-87.57
-89.09
-85.92
-77.82
-65.63
-51.0
-35.81
-21.67
-9.53
0.31
8.06
14.12
18.94
22.87
26.16
28.95
31.25
32.96
33.95
34.13
33.54
32.36
30.92
29.54
28.47
27.8
27.46
27.22
26.86
26.16
25.0
23.34
21.17
18.5
15.35
11.74
7.67
3.24
-1.41
-6.07
-10.55
-14.7
-18.5
-22.08
-25.72
-29.76
-34.56
-40.36
-47.13
-54.43
-61.32
-66.46
-68.43
-66.16
-59.34
-48.63
-35.44
-21.54
-8.45
2.88
12.16
19.61
25.64
30.56
34.58
37.72
40.04
41.61
42.55
43.0
43.05
42.73
41.99
40.81
39.26
37.53
35.91
34.69
33.99
33.65
33.25
32.24
30.18
26.92
22.71
18.08
13.56
9.5
5.9
2.47
-1.2
-5.42
-10.22
-15.37
-20.52
-25.33
-29.69
-33.71
-37.71
-42.11
-47.35
-53.73
-61.29
-69.6
-77.61
-83.83
-86.56
-84.49
-77.14
-65.12
-49.98
-33.7
-18.13
-4.51
6.66
15.56
22.68
28.55
33.56
37.93
41.74
45.06
47.86
50.09
51.61
52.32
52.17
51.29
49.99
48.74
47.92
47.74
48.06
48.48
48.51
47.73
45.98
43.39
40.25
36.95
33.76
30.77
27.92
25.05
21.95
18.53
14.78
10.81
6.77
2.83
-0.96
-4.63
-8.32
-12.26
-16.59
-21.37
-26.51
-31.76
-36.86
-41.6
-45.99
-50.27
-54.88
-60.36
-67.11
-75.13
-83.71
-91.47
-96.64
-97.47
-92.92
-83.0
-68.86
-52.38
-35.57
-20.09
-6.87
3.82
12.22
18.81
24.14
28.73
32.91
36.81
40.3
43.06
44.73
45.18
44.54
43.22
41.71
40.41
39.48
38.86
38.31
37.54
36.31
34.5
32.07
29.13
25.81
22.27
18.57
14.71
10.57
6.06
1.14
-4.09
-9.4
-14.56
-19.36
-23.8
-28.1
-32.67
-37.98
-44.37
-51.74
-59.34
-65.86
-69.62
-69.18
-63.8
-53.78
-40.38
-25.43
-10.77
2.35
13.36
22.32
29.59
35.47
40.12
43.56
45.83
47.09
47.58
47.61
47.37
46.95
46.3
45.39
44.26
43.03
41.91
41.01
40.34
39.7
38.76
37.18
34.73
31.4
27.38
23.06
18.78
14.75
10.93
7.06
2.81
-2.05
-7.56
-13.49
-19.42
-25.0
-29.99
-34.41
-38.5
-42.67
-47.38
-53.03
-59.89
-67.79
-76.02
-83.27
-87.82
-88.04
-82.93
-72.59
-58.19
-41.71
-25.19
-10.2
2.51
12.9
21.39
28.42
34.32
39.31
43.55
47.25
50.53
53.4
55.7
57.21
57.75
57.36
56.29
54.93
53.65
52.68
52.08
51.74
51.45
50.96
50.01
48.43
46.12
43.17
39.8
36.31
32.96
29.9
27.1
24.39
21.52
18.25
14.49
10.28
5.88
1.63
-2.2
-5.54
-8.6
-11.8
-15.62
-20.33
-25.85
-31.77
-37.53
-42.71
-47.13
-51.01
-54.81
-59.11
-64.42
-71.05
-78.88
-87.22
-94.76
-99.73
-100.36
-95.51
-85.12
-70.31
-53.05
-35.5
-19.41
-5.73
5.36
14.17
21.22
26.98
31.8
35.94
39.55
42.71
45.44
47.6
49.08
49.73
49.52
48.54
47.02
45.32
43.82
42.78
42.22
41.93
41.49
40.49
38.65
35.91
32.43
28.47
24.34
20.28
16.45
12.84
9.32
5.64
1.53
-3.19
-8.51
-14.17
-19.8
-24.99
-29.54
-33.5
-37.14
-40.97
-45.52
-51.23
-58.3
-66.4
-74.57
-81.29
-84.73
-83.37
-76.49
-64.54
-49.05
-32.13
-15.85
-1.64
9.9
18.89
25.81
31.19
35.37
38.53
40.75
42.13
42.84
43.08
43.07
42.92
42.63
42.11
41.26
40.1
38.75
37.45
36.41
35.72
35.25
34.68
33.66
31.87
29.2
25.75
21.76
17.56
13.45
9.61
6.1
2.77
-0.57
-4.13
-8.04
-12.29
-16.73
-21.11
-25.22
-28.97
-32.42
-35.86
-39.71
-44.48
-50.62
-58.32
-67.32
-76.7
-84.97
-90.26
-90.86
-85.83
-75.36
-60.77
-44.13
-27.58
-12.75
-0.39
9.53
17.5
24.03
29.52
34.15
38.03
41.3
44.04
46.32
48.05
49.03
49.08
48.11
46.25
43.9
41.59
39.85
38.98
38.97
39.4
39.65
39.06
37.23
34.14
30.14
25.82
21.7
18.08
14.86
11.67
8.0
3.44
-2.09
-8.31
-14.73
-20.74
-25.99
-30.43
-34.35
-38.29
-42.86
-48.57
-55.69
-64.1
-73.11
-81.44
-87.35
-89.08
-85.39
-76.02
-61.9
-44.89
-27.2
-10.74
3.31
14.63
23.53
30.6
36.4
41.27
45.32
48.53
50.81
52.13
52.49
52.01
50.88
49.3
47.49
45.6
43.78
42.11
40.63
39.36
38.28
37.32
36.35
35.14
33.38
30.71
26.8
21.39
14.43
6.05
-3.37
-13.29
-23.17
-32.58
-41.36
-49.66
-57.88
-66.42
-75.45
-84.52
-92.49
-97.79
-98.84
-94.66
-85.3
-71.85
-56.12
-39.99
-24.93
-11.64
-0.23
9.52
17.85
24.8
30.27
34.21
36.69
38.03
38.69
39.09
39.51
39.96
40.24
40.13
39.46
38.24
36.69
35.05
33.51
32.09
30.59
28.69
26.04
22.42
17.73
12.11
5.83
-0.73
-7.17
-13.19
-18.67
-23.74
-28.75
-34.25
-40.82
-48.77
-57.92
-67.35
-75.47
-80.41
-80.52
-74.97
-64.09
-49.22
-32.34
-15.45
-0.06
13.03
23.64
32.05
38.69
44.03
48.44
52.19
55.36
57.95
59.83
60.88
61.03
60.27
58.71
56.53
54.04
51.58
49.45
47.81
46.55
45.31
43.58
40.97
37.34
32.9
28.06
23.24
18.61
14.06
9.3
4.04
-1.87
-8.27
-14.82
-21.11
-26.85
-31.98
-36.73
-41.58
-47.07
-53.64
-61.37
-69.82
-77.93
-84.14
-86.76
-84.53
-76.94
-64.55
-48.81
-31.61
-14.78
0.35
13.11
23.46
31.7
38.32
43.79
48.46
52.55
56.14
59.17
61.51
62.98
63.42
62.81
61.27
59.09
56.67
54.42
52.64
51.44
50.67
49.99
49.01
47.37
44.93
41.73
38.04
34.16
30.38
26.82
23.42
19.99
16.34
12.35
8.08
3.71
-0.49
-4.33
-7.74
-10.88
-14.05
-17.59
-21.72
-26.5
-31.7
-36.98
-41.94
-46.36
-50.3
-54.12
-58.45
-63.9
-70.76
-78.74
-86.74
-93.0
-95.55
-92.87
-84.45
-71.02
-54.37
-36.76
-20.18
-5.95
5.46
14.21
20.81
25.81
29.67
32.72
35.14
37.03
38.38
39.16
39.33
38.87
37.87
36.48
34.89
33.33
31.95
30.82
29.88
28.95
27.79
26.22
24.14
21.53
18.43
14.86
10.81
6.29
1.34
-3.87
-9.08
-14.06
-18.62
-22.76
-26.69
-30.79
-35.56
-41.41
-48.44
-56.21
-63.66
-69.21
-71.22
-68.49
-60.7
-48.63
-33.92
-18.55
-4.26
7.87
17.5
24.89
30.56
35.01
38.56
41.38
43.51
44.93
45.67
45.75
45.22
44.13
42.59
40.7
38.61
36.5
34.58
33.02
31.92
31.15
30.4
29.24
27.25
24.24
20.33
15.9
11.43
7.27
3.5
-0.11
-3.89
-8.1
-12.81
-17.82
-22.86
-27.65
-32.07
-36.14
-40.0
-43.89
-48.19
-53.27
-59.45
-66.66
-74.21
-80.75
-84.52
-83.93
-78.14
-67.42
-53.14
-37.26
-21.7
-7.85
3.72
13.04
20.54
26.64
31.64
35.7
38.95
41.49
43.45
44.93
45.98
46.55
46.58
46.06
45.04
43.69
42.27
41.01
40.11
39.59
39.36
39.14
38.62
37.47
35.56
32.96
29.95
26.87
24.01
21.46
19.1
16.68
13.93
10.72
7.07
3.2
-0.66
-4.29
-7.6
-10.7
-13.78
-17.13
-20.94
-25.26
-29.93
-34.65
-39.09
-43.03
-46.49
-49.72
-53.15
-57.27
-62.49
-68.93
-76.31
-83.8
-90.05
-93.42
-92.48
-86.45
-75.54
-61.01
-44.74
-28.7
-14.4
-2.66
6.48
13.39
18.63
22.73
26.07
28.92
31.47
33.76
35.73
37.17
37.88
37.68
36.61
34.89
32.96
31.31
30.28
29.94
30.04
30.06
29.49
27.99
25.52
22.38
18.99
15.66
12.49
9.28
5.71
1.53
-3.25
-8.39
-13.47
-18.14
-22.24
-25.88
-29.38
-33.14
-37.59
-43.06
-49.61
-56.9
-63.98
-69.45
-71.69
-69.41
-62.2
-50.71
-36.52
-21.55
-7.52
4.55
14.35
22.09
28.13
32.79
36.27
38.73
40.36
41.41
42.11
42.58
42.85
42.79
42.31
41.39
40.15
38.78
37.53
36.53
35.76
35.11
34.38
33.32
31.76
29.54
26.58
22.93
18.76
14.37
10.09
6.17
2.67
-0.6
-3.97
-7.78
-12.24
-17.32
-22.83
-28.41
-33.73
-38.52
-42.72
-46.48
-50.2
-54.45
-59.78
-66.45
-74.16
-81.82
-87.73
-89.97
-87.09
-78.63
-65.37
-49.11
-32.07
-16.14
-2.44
8.72
17.68
24.92
30.85
35.71
39.66
42.89
45.65
48.13
50.33
52.1
53.14
53.24
52.41
50.93
49.24
47.77
46.76
46.21
45.91
45.56
44.85
43.57
41.6
38.95
35.76
32.32
28.94
25.92
23.38
21.2
19.03
16.38
12.81
8.18
2.68
-3.11
-8.48
-12.9
-16.25
-18.82
-21.25
-24.17
-27.91
-32.42
-37.26
-41.9
-45.91
-49.21
-52.06
-54.97
-58.58
-63.42
-69.71
-77.2
-84.94
-91.45
-94.98
-94.0
-87.74
-76.48
-61.53
-44.77
-28.1
-12.93
0.0
10.59
19.05
25.69
30.81
34.73
37.8
40.43
42.9
45.29
47.41
48.9
49.41
48.84
47.32
45.28
43.2
41.48
40.27
39.46
38.73
37.67
36.0
33.63
30.66
27.34
23.86
20.32
16.65
12.69
8.33
3.57
-1.43
-6.43
-11.21
-15.63
-19.75
-23.78
-28.05
-32.99
-38.91
-45.92
-53.64
-61.11
-66.88
-69.32
-67.16
-59.95
-48.28
-33.66
-18.04
-3.22
9.57
19.83
27.66
33.46
37.69
40.7
42.76
44.04
44.7
44.82
44.5
43.82
42.82
41.57
40.13
38.57
36.98
35.42
33.9
32.38
30.72
28.77
26.39
23.53
20.24
16.67
12.94
9.1
5.11
0.8
-3.97
-9.2
-14.75
-20.28
-25.44
-29.99
-34.0
-37.82
-42.08
-47.43
-54.21
-62.15
-70.25
-76.83
-80.0
-78.27
-71.09
-59.12
-44.03
-27.92
-12.68
0.53
11.4
20.25
27.59
33.81
39.07
43.36
46.66
49.02
50.63
51.66
52.25
52.44
52.23
51.61
50.65
49.5
48.35
47.4
46.72
46.3
45.95
45.42
44.47
42.94
40.84
38.26
35.38
32.34
29.17
25.83
22.17
18.12
13.68
8.98
4.24
-0.3
-4.46
-8.22
-11.69
-15.11
-18.75
-22.84
-27.49
-32.63
-38.07
-43.47
-48.57
-53.15
-57.26
-61.14
-65.21
-69.98
-75.88
-82.93
-90.56
-97.52
-102.09
-102.54
-97.71
-87.51
-72.94
-55.83
-38.16
-21.59
-7.14
4.85
14.47
22.02
27.92
32.63
36.59
40.14
43.46
46.46
48.91
50.49
51.04
50.62
49.49
48.05
46.73
45.81
45.42
45.44
45.62
45.65
45.24
44.25
42.59
40.3
37.5
34.34
31.05
27.8
24.65
21.51
18.15
14.35
10.12
5.66
1.31
-2.63
-6.12
-9.42
-12.97
-17.08
-21.8
-26.86
-31.84
-36.38
-40.39
-44.03
-47.7
-51.89
-57.01
-63.27
-70.5
-77.98
-84.41
-88.13
-87.55
-81.74
-70.81
-55.96
-39.1
-22.27
-7.06
5.67
15.73
23.39
29.06
33.16
36.08
38.23
39.99
41.64
43.26
44.69
45.68
45.91
45.23
43.68
41.6
39.42
37.59
36.35
35.65
35.12
34.27
32.67
30.16
26.87
23.14
19.33
15.66
12.15
8.63
4.86
0.61
-4.19
-9.48
-15.01
-20.46
-25.49
-29.97
-34.03
-38.04
-42.56
-48.08
-54.84
-62.58
-70.47
-77.13
-80.93
-80.4
-74.7
-63.99
-49.44
-32.94
-16.47
-1.66
10.64
20.29
27.67
33.3
37.67
41.11
43.82
45.96
47.6
48.77
49.44
49.53
49.01
47.9
46.32
44.52
42.78
41.42
40.62
40.36
40.4
40.32
39.66
38.14
35.77
32.83
29.75
26.9
24.36
21.96
19.36
16.31
12.71
8.7
4.57
0.54
-3.29
-7.0
-10.82
-14.94
-19.49
-24.41
-29.51
-34.52
-39.22
-43.53
-47.48
-51.3
-55.29
-59.82
-65.18
-71.44
-78.2
-84.49
-88.76
-89.33
-84.93
-75.24
-61.15
-44.43
-27.2
-11.18
2.61
13.97
23.11
30.38
36.08
40.41
43.6
45.99
47.88
49.47
50.75
51.49
51.45
50.49
48.71
46.46
44.16
42.24
40.93
40.23
39.88
39.48
38.63
37.09
34.85
32.09
29.1
26.16
23.39
20.75
18.05
15.07
11.73
8.09
4.4
0.96
-2.05
-4.67
-7.13
-9.77
-12.86
-16.48
-20.52
-24.72
-28.85
-32.81
-36.65
-40.56
-44.84
-49.84
-55.91
-63.2
-71.42
-79.66
-86.44
-89.98
-88.77
-82.13
-70.52
-55.43
-38.89
-22.89
-8.82
2.67
11.57
18.28
23.32
27.14
30.13
32.5
34.3
35.5
35.99
35.7
34.68
33.1
31.23
29.27
27.34
25.5
23.73
22.05
20.46
18.96
17.48
15.88
14.0
11.64
8.7
5.1
0.89
-3.75
-8.54
-13.16
-17.35
-20.98
-24.2
-27.33
-30.78
-34.95
-40.1
-46.21
-52.91
-59.36
-64.27
-66.18
-63.86
-56.75
-45.27
-30.77
-15.12
-0.15
12.84
23.28
31.22
37.08
41.35
44.45
46.64
48.09
48.93
49.27
49.16
48.63
47.69
46.29
44.43
42.2
39.88
37.88
36.6
36.23
36.62
37.22
37.35
36.43
34.22
30.91
26.95
22.85
18.93
15.24
11.55
7.53
2.89
-2.49
-8.44
-14.63
-20.6
-25.99
-30.62
-34.64
-38.43
-42.56
-47.59
-53.88
-61.37
-69.28
-76.25
-80.54
-80.53
-75.35
-65.14
-51.12
-35.14
-19.11
-4.49
7.94
18.0
25.87
31.87
36.33
39.65
42.17
44.24
46.05
47.58
48.65
49.03
48.59
47.4
45.71
43.86
42.15
40.76
39.72
39.0
38.47
37.98
37.34
36.34
34.84
32.8
30.33
27.61
24.8
21.89
18.81
15.41
11.66
7.68
3.67
-0.15
-3.75
-7.28
-11.01
-15.18
-19.86
-24.87
-29.9
-34.61
-38.79
-42.49
-46.03
-49.9
-54.67
-60.67
-67.75
-75.13
-81.41
-84.83
-83.9
-77.83
-66.93
-52.54
-36.6
-21.08
-7.41
3.71
12.27
18.69
23.53
27.32
30.42
33.05
35.3
37.15
38.49
39.18
39.15
38.37
36.97
35.17
33.25
31.47
29.96
28.7
27.5
26.14
24.49
22.51
20.25
17.78
15.06
11.94
8.26
3.92
-0.97
-6.14
-11.25
-16.0
-20.28
-24.17
-27.93
-31.96
-36.64
-42.21
-48.56
-55.1
-60.75
-64.2
-64.19
-60.05
-51.88
-40.53
-27.4
-13.98
-1.52
9.2
17.88
24.56
29.53
33.18
35.91
38.02
39.73
41.07
41.99
42.39
42.18
41.35
40.0
38.32
36.54
34.92
33.62
32.68
31.96
31.19
30.05
28.26
25.75
22.55
18.84
14.86
10.85
6.98
3.33
-0.16
-3.69
-7.5
-11.8
-16.61
-21.73
-26.79
-31.41
-35.34
-38.62
-41.61
-44.86
-48.96
-54.35
-60.95
-68.09
-74.44
-78.32
-78.16
-73.1
-63.3
-50.0
-35.01
-20.2
-6.92
4.19
13.12
20.18
25.79
30.28
33.95
37.01
39.64
41.94
43.87
45.28
46.01
45.99
45.28
44.07
42.66
41.29
40.17
39.34
38.77
38.34
37.89
37.23
36.22
34.73
32.69
30.09
27.05
23.76
20.46
17.38
14.61
12.08
9.61
6.95
3.97
0.69
-2.71
-5.98
-8.94
-11.58
-14.07
-16.7
-19.78
-23.46
-27.74
-32.42
-37.18
-41.69
-45.74
-49.29
-52.54
-55.93
-60.04
-65.37
-72.08
-79.7
-87.09
-92.54
-94.25
-90.91
-82.22
-69.04
-53.12
-36.6
-21.3
-8.33
2.01
10.01
16.22
21.18
25.26
28.73
31.73
34.4
36.73
38.63
39.9
40.32
39.81
38.49
36.68
34.79
33.18
32.05
31.33
30.79
30.05
28.79
26.81
24.13
20.95
17.53
14.08
10.61
6.96
2.85
-1.93
-7.32
-13.04
-18.61
-23.63
-27.95
-31.73
