-44.02
-74.84
-97.14
-107.08
-103.17
-84.3
-54.87
-24.94
-3.55
6.78
8.88
7.11
4.76
3.39
3.05
2.63
1.16
-1.74
-6.56
-14.19
-25.19
-38.77
-52.71
-64.51
-72.83
-77.65
-79.62
-79.5
-77.64
-73.54
-67.0
-57.58
-46.63
-36.97
-31.23
-30.3
-33.19
-37.82
-42.07
-44.64
-45.25
-44.36
-42.57
-40.0
-36.41
-31.74
-26.68
-22.27
-19.59
-19.05
-20.44
-23.16
-26.52
-29.86
-32.43
-34.15
-34.38
-32.41
-27.57
-19.68
-9.21
2.8
14.92
25.82
34.51
40.75
44.9
47.65
49.78
51.76
53.59
54.71
54.31
51.66
46.71
40.04
32.8
26.15
20.81
16.9
14.05
11.72
9.46
7.08
4.34
0.92
-3.6
-9.49
-16.64
-24.48
-32.25
-39.29
-45.43
-51.05
-56.82
-63.35
-70.69
-78.13
-84.22
-87.14
-85.22
-77.45
-63.79
-45.26
-23.75
-1.55
19.1
36.44
49.45
58.04
62.86
65.14
66.21
67.11
68.29
69.54
70.17
69.4
66.65
61.84
55.38
47.99
40.52
33.76
28.28
24.36
21.87
20.27
18.7
16.28
12.4
7.05
0.77
-5.59
-11.22
-15.79
-19.49
-22.88
-26.64
-31.27
-36.99
-43.64
-50.71
-57.27
-62.06
-63.81
-61.56
-55.05
-44.82
-31.98
-17.8
-3.26
11.0
24.57
37.03
47.76
56.18
62.03
65.6
67.75
69.5
71.61
74.14
76.5
77.77
77.14
74.4
69.96
64.8
60.01
56.57
55.03
55.44
57.33
59.67
61.1
60.16
55.8
47.77
36.83
24.46
12.42
2.18
-5.44
-10.2
-12.25
-11.85
-9.4
-5.65
-1.85
0.38
-0.44
-4.99
-12.68
-21.66
-29.45
-33.85
-33.75
-29.36
-21.88
-12.77
-3.15
6.35
15.28
22.98
28.45
30.79
29.85
26.68
23.3
21.93
23.93
29.15
36.09
42.67
47.3
49.48
49.83
49.5
49.55
50.56
52.75
56.24
61.13
67.19
73.48
78.19
79.1
74.55
64.36
50.19
34.94
21.45
11.2
3.75
-2.79
-10.47
-20.17
-31.02
-40.86
-47.37
-49.24
-46.69
-41.19
-34.67
-28.8
-24.69
-23.07
-24.46
-29.11
-36.65
-45.66
-53.84
-58.71
-58.72
-54.08
-46.71
-39.3
-33.99
-31.34
-30.26
-28.77
-25.19
-18.92
-10.52
-1.17
8.11
16.89
25.18
33.05
40.19
45.82
49.1
49.63
47.75
44.37
40.54
36.94
33.62
30.25
26.46
22.17
17.72
13.67
10.54
8.64
7.91
8.06
8.63
9.12
9.12
8.33
6.72
4.5
2.04
-0.3
-2.34
-4.2
-6.19
-8.65
-11.69
-15.16
-18.71
-22.01
-24.89
-27.38
-29.58
-31.49
-33.01
-33.97
-34.26
-33.94
-33.23
-32.4
-31.75
-31.5
-31.86
-32.94
-34.7
-36.89
-39.04
-40.57
-40.96
-39.87
-37.22
-33.13
-27.88
-21.78
-15.16
-8.36
-1.68
4.63
10.43
15.67
20.31
24.29
27.54
29.99
31.66
32.65
33.12
33.21
33.01
32.59
32.05
31.57
31.44
31.91
33.09
34.83
36.81
38.58
39.76
40.09
39.46
37.81
35.14
31.5
27.07
22.18
17.24
12.59
8.41
4.72
1.44
-1.49
-4.1
-6.51
-8.93
-11.74
-15.27
-19.67
-24.73
-29.97
-34.83
-38.92
-42.2
-44.95
-47.55
-50.32
-53.25
-56.09
-58.42
-59.77
-59.85
-58.56
-56.0
-52.43
-48.19
-43.6
-38.91
-34.33
-29.97
-25.93
-22.29
-19.06
-16.29
-14.04
-12.38
-11.4
-11.09
-11.29
-11.67
-11.83
-11.47
-10.51
-9.12
-7.63
-6.37
-5.51
-5.07
-4.97
-5.11
-5.46
-5.97
-6.59
-7.21
-7.73
-8.13
-8.54
-9.12
-10.02
-11.26
-12.67
-13.98
-14.95
-15.47
-15.61
-15.61
-15.74
-16.21
-17.09
-18.32
-19.78
-21.33
-22.9
-24.45
-25.98
-27.46
-28.84
-30.13
-31.45
-33.0
-34.92
-37.15
-39.26
-40.56
-40.3
-38.04
-33.85
-28.35
-22.4
-16.79
-11.94
-7.83
-4.21
-0.86
2.2
4.8
6.74
8.0
8.73
9.19
9.58
9.97
10.27
10.37
10.23
9.9
9.46
9.06
8.77
8.64
8.69
8.83
8.93
8.75
8.11
6.96
5.43
3.85
2.5
1.53
0.83
0.17
-0.66
-1.72
-2.88
-3.96
-4.87
-5.69
-6.65
-7.96
-9.73
-11.87
-14.17
-16.39
-18.34
-19.92
-21.17
-22.18
-23.09
-24.07
-25.33
-27.02
-29.29
-32.12
-35.38
-38.78
-41.84
-44.0
-44.7
-43.52
-40.37
-35.47
-29.37
-22.75
-16.23
-10.26
-5.0
-0.45
3.47
6.8
9.53
11.68
13.33
14.61
15.66
16.6
17.43
18.13
18.66
19.03
19.28
19.46
19.63
19.81
20.02
20.26
20.49
20.58
20.42
19.89
19.01
17.87
16.64
15.4
14.1
12.6
10.74
8.52
6.1
3.74
1.66
-0.12
-1.78
-3.54
-5.58
-7.89
-10.29
-12.58
-14.7
-16.73
-18.87
-21.32
-24.12
-27.24
-30.65
-34.36
-38.39
-42.63
-46.66
-49.72
-50.93
-49.62
-45.67
-39.59
-32.32
-24.91
-18.12
-12.16
-6.86
-1.85
3.11
7.97
12.42
16.04
18.62
20.19
21.0
21.39
21.53
21.45
21.07
20.43
19.73
19.3
19.46
20.27
21.49
22.64
23.21
22.91
21.68
19.76
17.46
15.05
12.68
10.33
7.93
5.37
2.56
-0.54
-3.92
-7.56
-11.36
-15.19
-18.91
-22.41
-25.67
-28.8
-32.03
-35.63
-39.84
-44.68
-49.84
-54.59
-57.93
-58.82
-56.57
-51.11
-43.04
-33.42
-23.41
-13.88
-5.31
2.19
8.7
14.31
19.05
22.93
25.98
28.23
29.76
30.65
31.0
31.0
30.89
30.93
31.31
32.07
33.09
34.18
35.13
35.75
35.89
35.4
34.14
32.06
29.22
25.9
22.46
19.23
16.32
13.58
10.71
7.38
3.43
-1.03
-5.74
-10.4
-14.78
-18.84
-22.65
-26.38
-30.29
-34.7
-39.87
-45.93
-52.67
-59.43
-65.18
-68.7
-68.94
-65.33
-57.99
-47.69
-35.59
-22.95
-10.79
0.26
9.92
18.16
25.05
30.67
35.08
38.38
40.69
42.19
43.07
43.48
43.57
43.47
43.28
43.07
42.94
42.94
43.05
43.23
43.37
43.32
42.93
42.1
40.71
38.71
36.04
32.7
28.75
24.42
20.03
15.91
12.23
8.87
5.51
1.71
-2.79
-7.93
-13.33
-18.54
-23.2
-27.27
-31.02
-34.88
-39.31
-44.6
-50.82
-57.69
-64.56
-70.4
-73.98
-74.17
-70.28
-62.32
-51.08
-37.81
-23.88
-10.38
2.03
13.06
22.62
30.65
37.11
41.96
45.27
47.24
48.15
48.34
48.11
47.67
47.21
46.85
46.69
46.83
47.23
47.79
48.26
48.38
47.91
46.75
44.94
42.58
39.78
36.58
32.98
29.0
24.76
20.5
16.45
12.72
9.22
5.64
1.66
-2.9
-8.01
-13.39
-18.67
-23.59
-28.08
-32.27
-36.44
-40.92
-46.02
-51.96
-58.81
-66.28
-73.6
-79.44
-82.24
-80.62
-73.95
-62.68
-48.21
-32.46
-17.25
-3.79
7.52
16.84
24.59
31.14
36.61
40.98
44.21
46.38
47.73
48.62
49.32
49.98
50.59
51.05
51.31
51.36
51.31
51.24
51.12
50.82
50.12
48.82
46.77
43.95
40.45
36.4
32.03
27.56
23.2
19.1
15.27
11.55
7.75
3.64
-0.89
-5.84
-11.03
-16.22
-21.12
-25.55
-29.54
-33.35
-37.43
-42.29
-48.31
-55.53
-63.44
-71.04
-76.93
-79.66
-78.2
-72.19
-62.12
-49.14
-34.75
-20.35
-6.96
4.85
14.93
23.36
30.29
35.88
40.28
43.64
46.09
47.76
48.79
49.34
49.53
49.45
49.18
48.74
48.19
47.6
47.02
46.49
45.89
45.01
43.57
41.35
38.27
34.47
30.26
25.94
21.79
17.9
14.21
10.5
6.55
2.16
-2.7
-7.94
-13.32
-18.53
-23.34
-27.67
-31.63
-35.54
-39.84
-44.99
-51.28
-58.64
-66.49
-73.73
-78.87
-80.51
-77.72
-70.37
-59.19
-45.55
-30.96
-16.78
-3.87
7.33
16.7
24.35
30.4
35.06
38.48
40.86
42.37
43.21
43.62
43.86
44.15
44.6
45.1
45.47
45.51
45.2
44.7
44.22
43.88
43.51
42.68
40.92
37.95
33.86
29.11
24.34
20.04
16.37
13.11
9.79
5.96
1.39
-3.85
-9.43
-14.89
-19.88
-24.28
-28.24
-32.11
-36.32
-41.23
-47.1
-53.98
-61.67
-69.53
-76.55
-81.37
-82.6
-79.28
-71.25
-59.33
-44.99
-30.0
-15.79
-3.2
7.51
16.51
24.05
30.32
35.38
39.24
41.97
43.75
44.83
45.46
45.81
45.95
45.88
45.55
44.99
44.3
43.65
43.16
42.81
42.4
41.61
40.06
37.52
33.99
29.72
25.17
20.77
16.82
13.32
9.95
6.24
1.75
-3.63
-9.69
-15.87
-21.6
-26.49
-30.57
-34.18
-37.86
-42.16
-47.46
-53.87
-61.16
-68.68
-75.32
-79.68
-80.4
-76.55
-68.01
-55.65
-41.01
-25.88
-11.73
0.62
11.03
19.79
27.27
33.65
38.94
42.96
45.64
47.13
47.77
48.02
48.24
48.6
49.0
49.17
48.92
48.18
47.14
46.04
45.04
44.13
43.05
41.54
39.37
36.51
33.06
29.22
25.17
21.08
17.08
13.23
9.55
5.95
2.25
-1.79
-6.3
-11.29
-16.56
-21.83
-26.82
-31.38
-35.51
-39.35
-43.15
-47.3
-52.25
-58.38
-65.71
-73.71
-81.12
-86.22
-87.31
-83.35
-74.39
-61.52
-46.53
-31.21
-16.85
-4.04
7.12
16.75
24.95
31.68
36.93
40.8
43.58
45.57
47.02
48.05
48.64
48.77
48.48
47.91
47.23
46.57
45.99
45.38
44.58
43.39
41.73
39.6
37.07
34.22
31.1
27.73
24.11
20.32
16.5
12.8
9.32
5.98
2.65
-0.9
-4.82
-9.17
-13.85
-18.67
-23.43
-27.97
-32.22
-36.24
-40.21
-44.42
-49.2
-54.86
-61.46
-68.69
-75.73
-81.32
-84.08
-82.86
-77.19
-67.4
-54.59
-40.24
-25.8
-12.34
-0.48
9.58
17.87
24.52
29.66
33.48
36.16
37.94
39.07
39.74
40.1
40.26
40.23
40.03
39.66
39.17
38.63
38.12
37.62
37.04
36.18
34.86
32.9
30.31
27.18
23.7
20.06
16.41
12.83
9.36
5.89
2.24
-1.85
-6.51
-11.68
-17.01
-22.0
-26.23
-29.56
-32.28
-34.93
-38.14
-42.42
-48.01
-54.77
-62.22
-69.45
-75.23
-78.16
-77.04
-71.29
-61.22
-48.03
-33.41
-19.01
-6.02
5.04
14.18
21.63
27.64
32.35
35.83
38.22
39.74
40.71
41.39
41.95
42.42
42.69
42.66
42.27
41.54
40.58
39.58
38.67
37.86
37.04
35.97
34.38
32.08
29.02
25.35
21.31
17.17
13.16
9.41
5.94
2.58
-0.93
-4.9
-9.49
-14.63
-20.0
-25.17
-29.8
-33.84
-37.58
-41.45
-45.89
-51.14
-57.19
-63.82
-70.56
-76.69
-81.19
-82.87
-80.71
-74.22
-63.77
-50.48
-35.93
-21.56
-8.41
3.1
12.92
21.15
27.87
33.14
37.09
39.98
42.13
43.82
45.19
46.23
46.87
47.05
46.8
46.21
45.44
44.62
43.82
43.08
42.38
41.63
40.66
39.29
37.31
34.59
31.13
27.04
22.58
18.05
13.72
9.78
6.26
3.07
0.0
-3.2
-6.77
-10.85
-15.47
-20.45
-25.47
-30.19
-34.36
-38.05
-41.63
-45.69
-50.86
-57.4
-65.01
-72.71
-78.98
-82.25
-81.32
-75.77
-66.08
-53.41
-39.28
-25.06
-11.8
-0.06
9.98
18.36
25.23
30.81
35.32
38.97
41.87
44.05
45.53
46.36
46.67
46.63
46.37
45.95
45.37
44.63
43.81
43.0
42.23
41.41
40.31
38.68
36.36
33.38
29.9
26.13
22.21
18.18
14.06
9.92
5.91
2.16
-1.32
-4.74
-8.46
-12.79
-17.87
-23.45
-29.08
-34.21
-38.51
-42.01
-45.12
-48.46
-52.62
-57.98
-64.47
-71.55
-78.19
-83.08
-84.88
-82.58
-75.88
-65.31
-52.09
-37.79
-23.81
-11.07
0.06
9.57
17.58
24.15
29.23
32.87
35.23
36.65
37.52
38.08
38.39
38.36
37.95
37.27
36.59
36.17
36.13
36.28
36.26
35.61
34.03
31.46
28.03
24.05
19.84
15.66
11.65
7.83
4.04
0.09
-4.26
-9.08
-14.21
-19.34
-24.09
-28.26
-31.96
-35.63
-39.87
-45.14
-51.56
-58.7
-65.58
-70.85
-73.1
-71.23
-64.88
-54.55
-41.46
-27.21
-13.33
-0.91
9.58
18.18
25.24
31.14
36.15
40.35
43.68
46.01
47.28
47.55
47.02
45.98
44.73
43.47
42.27
41.15
40.04
38.91
37.62
36.05
34.03
31.43
28.26
24.61
20.64
16.45
12.06
7.43
2.53
-2.56
-7.71
-12.73
-17.5
-22.01
-26.39
-30.87
-35.73
-41.25
-47.54
-54.4
-61.18
-66.82
-69.98
-69.51
-64.82
-56.15
-44.55
-31.51
-18.49
-6.52
3.96
12.96
20.72
27.44
33.27
38.23
42.3
45.47
47.68
48.83
48.93
48.08
46.59
44.87
43.32
42.18
41.47
41.01
40.48
39.57
38.05
35.78
32.79
29.26
25.42
21.54
17.73
13.96
10.06
5.82
1.16
-3.89
-9.19
-14.58
-19.91
-25.04
-29.84
-34.25
-38.38
-42.57
-47.32
-53.06
-59.71
-66.51
-72.04
-74.66
-73.1
-67.02
-57.1
-44.81
-31.82
-19.5
-8.61
0.69
8.58
15.34
21.16
26.1
30.15
33.28
35.48
36.78
37.26
37.04
36.35
35.43
34.53
33.82
33.33
32.94
32.42
31.55
30.17
28.21
25.72
22.78
19.49
15.92
12.1
8.03
3.72
-0.77
-5.34
-9.81
-14.0
-17.83
-21.32
-24.7
-28.32
-32.6
-37.81
-43.9
-50.34
-56.15
-60.06
-60.87
-57.87
-51.08
-41.28
-29.73
-17.75
-6.35
3.92
12.92
20.71
27.39
32.97
37.44
40.79
43.08
44.44
44.99
44.88
44.25
43.21
41.91
40.47
39.04
37.76
36.72
35.96
35.38
34.73
33.7
32.02
29.57
26.49
23.08
19.73
16.71
14.02
11.45
8.59
5.12
0.93
-3.72
-8.39
-12.54
-15.86
-18.32
-20.27
-22.25
-24.89
-28.68
-33.81
-40.03
-46.62
-52.43
-56.13
-56.55
-53.1
-45.95
-36.07
-24.94
-14.11
-4.75
2.7
8.57
13.68
18.91
24.67
30.71
36.13
39.87
41.14
39.8
36.32
31.55
26.34
21.33
16.97
13.59
11.4
10.37
10.1
9.85
8.76
6.26
2.35
-2.49
-7.5
-12.02
-15.61
-18.14
-19.72
-20.61
-21.28
-22.35
-24.52
-28.24
-33.48
-39.61
-45.61
-50.48
-53.67
-55.31
-56.03
-56.71
-58.04
-60.29
-63.29
-66.43
-68.91
-69.88
-68.67
-65.0
-59.05
-51.35
-42.62
-33.54
-24.62
-16.26
-8.78
-2.43
2.76
7.08
11.11
15.36
19.85
23.87
26.35
26.46
24.32
21.08
18.47
17.83
19.53
22.86
26.63
29.9
32.42
34.64
37.16
40.37
44.24
48.45
52.69
56.78
60.57
63.72
65.66
65.7
63.31
58.31
50.84
41.3
30.19
18.11
5.89
-5.43
-14.73
-21.07
-24.13
-24.33
-22.74
-20.71
-19.28
-18.93
-19.46
-20.27
-20.65
-20.11
-18.56
-16.22
-13.6
-11.29
-9.73
-9.08
-9.11
-9.35
-9.2
-8.18
-6.07
-2.84
1.32
6.11
11.21
16.19
20.69
24.38
27.13
28.94
29.85
29.81
28.71
26.45
23.03
18.63
13.53
7.94
1.9
-4.67
-11.84
-19.47
-27.1
-33.93
-39.0
-41.36
-40.42
-36.12
-29.07
-20.45
-11.66
-3.92
2.17
6.65
9.97
12.67
14.98
16.8
17.91
18.2
17.83
17.11
16.22
15.16
13.72
11.76
9.36
6.92
4.98
3.94
3.85
4.32
4.68
4.23
2.45
-0.85
-5.48
-10.92
-16.38
-21.0
-24.06
-25.17
-24.41
-22.25
-19.42
-16.73
-15.0
-14.9
-16.91
-21.05
-26.75
-32.9
-38.09
-41.12
-41.38
-39.08
-34.96
-29.97
-24.81
-19.78
-14.86
-9.91
-4.86
0.24
5.22
9.81
13.7
16.61
18.35
18.95
18.58
17.53
16.01
14.08
11.61
8.6
5.23
2.02
-0.24
-0.78
0.91
4.81
10.27
16.09
20.77
22.86
21.44
16.48
8.95
0.58
-6.76
-11.8
-14.34
-15.28
-16.06
-17.84
-20.9
-24.39
-26.85
-26.93
-24.11
-18.89
-12.44
-5.92
0.12
5.85
11.8
18.3
25.05
31.07
35.21
36.68
35.54
32.61
29.17
26.36
24.81
24.53
25.05
25.66
25.79
25.07
23.39
20.93
18.05
15.23
12.97
11.72
11.67
12.71
14.3
15.63
15.86
14.4
11.25
6.88
2.04
-2.62
-6.89
-11.0
-15.33
-19.98
-24.53
-28.09
-29.76
-29.07
-26.21
-21.98
-17.34
-13.1
-9.52
-6.39
-3.14
0.95
6.42
13.44
21.6
29.96
37.26
42.39
44.79
44.72
43.07
40.86
38.68
36.48
33.77
30.17
25.84
21.62
18.62
17.69
18.83
21.28
23.81
25.28
24.89
22.3
17.45
10.44
1.72
-7.93
-17.33
-25.19
-30.61
-33.41
-34.23
-34.22
-34.57
-36.06
-38.94
-42.87
-47.23
-51.22
-54.06
-55.16
-54.21
-51.29
-46.7
-40.87
-34.22
-27.25
-20.41
-14.12
-8.62
-3.85
0.49
4.8
9.19
13.33
16.44
17.92
17.85
17.14
17.02
18.31
20.79
23.18
23.73
20.93
14.42
5.15
-5.0
-14.04
-20.65
-24.44
-25.97
-26.25
-26.71
-28.14
-30.41
-32.75
-34.46
-35.45
-36.21
-37.36
-39.03
-41.3
-43.24
-43.27
-40.43
-35.62
-31.77
-32.46
-40.22
-55.05
-75.73
-98.87
-120.06
-135.73
-144.68
-147.91
-147.02
-142.74
-134.62
-123.9
-112.22
-101.27
-92.4
-86.51
-83.65
-82.86
-82.81
-71.17
-43.47
-4.9
33.55
64.01
85.33
100.25
111.61
120.45
126.47
127.28
122.03
112.52
102.67
96.27
95.55
100.54
109.21
118.4
123.53
121.73
113.03
100.3
85.83
71.12
57.04
44.21
33.65
25.71
20.96
20.06
23.34
30.52
39.82
49.2
56.46
59.57
56.56
46.9
32.31
16.33
2.81
-5.83
-9.42
-10.36
-11.03
-13.21
-16.93
-20.58
-21.94
-19.65
-14.06
-6.99
-0.81
2.74
3.16
1.22
-1.51
-3.61
-4.39
-4.11
-3.48
-3.3
-3.97
-5.54
-7.87
-10.79
-14.47
-18.5
-22.88
-27.55
-32.29
-36.74
-40.72
-44.11
-46.84
-48.74
-49.45
-48.63
-45.91
-41.18
-34.66
-26.87
-18.46
-10.07
-2.19
4.76
10.42
14.61
17.5
19.55
21.4
23.6
26.22
28.89
31.01
32.15
32.33
32.05
31.97
32.43
33.38
34.36
34.86
34.51
33.09
30.49
26.61
21.42
15.08
7.98
0.59
-6.63
-13.4
-19.51
-24.79
-29.01
-32.05
-34.16
-35.98
-38.45
-42.44
-48.44
-56.36
-65.65
-75.42
-84.68
-92.38
-97.38
-98.67
-95.58
-88.13
-77.12
-64.06
-50.71
-38.65
-28.8
-21.27
-15.51
-10.56
-5.5
0.3
6.98
14.31
