-13.97
-7.71
-1.8
3.27
6.65
7.52
5.48
0.85
-5.43
-11.86
-16.77
-18.67
-14.51
-3.1
13.8
32.14
48.02
59.01
65.11
67.13
65.74
61.59
55.04
46.33
35.29
22.08
6.67
-10.95
-29.33
-45.18
-54.79
-56.7
-52.32
-44.58
-36.07
-28.17
-21.11
-14.51
-8.18
-2.44
1.72
3.55
2.85
0.21
-3.32
-6.39
-7.47
-5.33
0.5
9.22
19.32
29.11
37.44
44.0
49.07
52.94
55.29
55.52
51.98
44.02
32.38
19.1
6.6
-3.29
-9.88
-13.59
-15.34
-16.09
-16.33
-16.36
-16.39
-16.6
-16.94
-17.05
-16.19
-13.7
-9.41
-3.76
2.1
6.83
9.43
9.45
7.07
2.81
-2.66
-8.81
-14.29
-17.86
-18.53
-15.81
-9.97
-1.98
6.79
15.01
21.79
26.91
30.54
33.08
34.85
35.95
36.32
35.88
34.61
32.7
30.41
27.91
25.24
22.35
19.25
16.07
13.1
10.72
9.19
8.56
8.53
8.65
8.42
7.51
5.79
3.35
0.44
-2.68
-5.78
-8.81
-11.84
-15.02
-18.56
-22.68
-27.5
-32.97
-38.76
-44.23
-48.45
-50.42
-49.31
-44.81
-37.21
-27.37
-16.49
-5.72
4.09
12.51
19.5
25.21
29.81
33.42
36.0
37.54
38.05
37.64
36.54
35.03
33.36
31.71
30.18
28.8
27.59
26.52
25.58
24.72
23.84
22.78
21.37
19.49
17.14
14.43
11.49
8.42
5.22
1.79
-1.97
-6.07
-10.4
-14.7
-18.73
-22.29
-25.42
-28.35
-31.48
-35.21
-39.75
-44.97
-50.22
-54.55
-56.9
-56.48
-53.0
-46.76
-38.49
-29.1
-19.46
-10.23
-1.9
5.18
10.78
14.8
17.3
18.53
18.86
18.73
18.53
18.55
18.87
19.41
19.97
20.35
20.42
20.26
20.06
20.04
20.29
20.73
21.05
20.93
20.15
18.63
16.5
13.97
11.25
8.46
5.7
3.03
0.45
-2.03
-4.46
-6.92
-9.5
-12.29
-15.34
-18.61
-22.04
-25.59
-29.27
-33.21
-37.55
-42.37
-47.52
-52.5
-56.58
-58.91
-58.74
-55.68
-49.81
-41.69
-32.19
-22.32
-12.92
-4.59
2.37
7.97
12.41
15.89
18.62
20.67
22.08
22.83
22.99
22.69
22.14
21.48
20.81
20.13
19.36
18.49
17.58
16.71
15.97
15.34
14.72
13.9
12.69
10.95
8.66
5.87
2.69
-0.74
-4.28
-7.79
-11.16
-14.37
-17.46
-20.58
-23.93
-27.76
-32.18
-37.11
-42.12
-46.47
-49.24
-49.64
-47.22
-42.06
-34.71
-26.03
-16.96
-8.25
-0.42
6.24
11.6
15.62
18.3
19.72
20.06
19.63
18.79
17.85
16.98
16.19
15.34
14.28
13.03
11.72
10.59
9.79
9.24
8.63
7.54
5.64
2.89
-0.42
-3.86
-7.11
-10.16
-13.38
-17.28
-22.23
-28.14
-34.41
-40.11
-44.33
-46.53
-46.69
-45.23
-42.69
-39.65
-36.52
-33.57
-30.95
-28.67
-26.56
-24.26
-21.45
-18.22
-15.3
-14.05
-16.01
-22.04
-31.45
-41.69
-48.81
-48.54
-37.83
-15.87
15.56
52.66
90.7
125.22
152.9
171.91
181.8
183.23
177.72
167.42
154.94
143.06
134.36
130.74
133.24
141.98
156.33
174.87
195.24
214.1
227.4
231.17
222.67
201.44
169.66
131.41
91.38
53.29
18.85
-12.22
-41.85
-72.81
-108.25
-150.8
-201.21
-256.98
-311.5
-354.82
-376.22
-367.84
-327.85
-261.74
-180.84
-98.83
-27.83
24.42
55.43
66.94
63.08
48.7
28.27
5.43
-17.21
-38.35
-57.98
-77.15
-97.35
-119.87
-144.94
-171.41
-196.71
-217.41
-230.1
-232.09
-222.02
-200.07
-167.99
-128.99
-87.59
-49.17
-19.15
-1.7
1.43
-8.31
-26.74
-48.33
-68.04
-82.87
-92.31
-97.64
-100.68
-102.58
-103.63
-103.66
-102.68
-101.3
-100.52
-101.01
-102.42
-103.16
-100.65
-92.25
-76.2
-52.16
-20.91
16.42
58.91
105.88
155.97
206.13
251.48
286.29
306.05
309.3
298.15
277.1
250.79
222.05
191.49
158.82
124.77
92.58
67.54
55.15
58.54
76.89
105.36
136.82
164.15
182.3
189.3
185.77
173.78
155.62
133.09
107.49
80.01
52.04
25.26
1.22
-19.04
-35.34
-48.2
-58.46
-66.82
-73.49
-78.2
-80.4
-79.54
-75.46
-68.48
-59.47
-49.74
-40.7
-33.48
-28.63
-25.94
-24.51
-23.26
-21.29
-18.25
-14.37
-10.18
-6.24
-2.86
-0.08
2.2
3.99
5.07
5.07
3.58
0.45
-4.15
-9.65
-15.34
-20.53
-24.88
-28.43
-31.57
-34.86
-38.86
-43.91
-50.06
-56.87
-63.39
-68.32
-70.29
-68.36
-62.31
-52.77
-40.99
-28.33
-15.89
-4.28
6.31
15.83
24.15
31.01
36.12
39.38
40.95
41.24
40.77
40.01
39.24
38.48
37.63
36.48
34.92
33.0
30.88
28.74
26.65
24.54
22.21
19.44
16.12
12.32
8.25
4.11
0.02
-4.1
-8.43
-13.22
-18.64
-24.8
-31.73
-39.35
-47.33
-55.02
-61.33
-64.94
-64.58
-59.58
-50.18
-37.57
-23.52
-9.87
2.04
11.63
18.95
24.42
28.44
31.24
32.86
33.39
33.02
32.08
30.93
29.76
28.53
26.99
24.89
22.17
19.04
15.95
13.36
11.51
10.31
9.35
8.23
6.75
5.1
3.67
2.8
2.4
1.85
0.15
-3.84
-10.95
-21.51
-35.19
-51.08
-67.78
-83.5
-96.24
-103.99
-105.0
-98.27
-83.9
-63.29
-39.0
-14.18
8.15
25.84
38.02
45.08
48.17
48.65
47.58
45.61
43.02
40.08
37.08
34.39
32.21
30.52
28.99
27.19
24.75
21.55
17.69
13.47
9.2
5.03
0.98
-3.13
-7.5
-12.32
-17.64
-23.41
-29.58
-36.09
-42.75
-49.21
-54.74
-58.34
-58.98
-55.99
-49.36
-39.82
-28.58
-16.91
-5.81
4.21
13.07
20.89
27.8
33.76
38.6
42.13
44.25
45.04
44.77
43.83
42.55
41.15
39.65
37.93
35.91
33.6
31.17
28.84
26.79
25.04
23.42
21.63
19.38
16.47
12.85
8.64
4.06
-0.67
-5.35
-9.89
-14.23
-18.41
-22.49
-26.6
-30.98
-35.94
-41.75
-48.34
-55.16
-61.15
-64.94
-65.33
-61.7
-54.3
-44.1
-32.45
-20.61
-9.42
0.78
9.99
18.28
25.67
32.03
37.2
41.11
43.8
45.48
46.37
46.7
46.63
46.21
45.45
44.4
43.15
41.86
40.74
39.88
39.25
38.64
37.77
36.37
34.29
31.59
28.43
25.03
21.58
18.19
14.92
11.79
8.82
6.0
3.22
0.34
-2.86
-6.5
-10.63
-15.08
-19.61
-23.98
-28.0
-31.71
-35.23
-38.79
-42.64
-47.02
-52.12
-57.92
-64.13
-69.96
-74.28
-75.83
-73.65
-67.48
-57.9
-46.11
-33.56
-21.47
-10.56
-1.12
6.9
13.63
19.22
23.81
27.59
30.74
33.36
35.43
36.78
37.28
36.91
35.8
34.29
32.7
31.27
30.07
29.0
27.86
26.45
24.64
22.42
19.86
17.09
14.22
11.3
8.27
5.04
1.46
-2.54
-6.93
-11.58
-16.22
-20.57
-24.44
-27.82
-30.95
-34.24
-38.11
-42.79
-48.06
-53.28
-57.4
-59.29
-58.08
-53.41
-45.58
-35.38
-23.9
-12.29
-1.53
7.7
15.06
20.56
24.55
27.48
29.84
31.87
33.53
34.58
34.76
34.02
32.6
30.92
29.43
28.37
27.7
27.19
26.57
25.67
24.44
22.89
21.01
18.68
15.77
12.17
7.84
2.93
-2.33
-7.64
-12.71
-17.33
-21.42
-25.04
-28.39
-31.77
-35.46
-39.72
-44.75
-50.56
-56.97
-63.41
-68.93
-72.31
-72.36
-68.34
-60.31
-49.16
-36.34
-23.39
-11.51
-1.21
7.54
15.08
21.72
27.61
32.66
36.7
39.62
41.49
42.53
43.01
43.1
42.89
42.32
41.32
39.98
38.48
37.15
36.14
35.42
34.64
33.34
31.19
28.13
24.4
20.45
16.66
13.21
9.97
6.65
2.93
-1.39
-6.28
-11.49
-16.66
-21.48
-25.77
-29.54
-33.06
-36.74
-41.03
-46.33
-52.84
-60.37
-68.28
-75.41
-80.29
-81.49
-78.11
-70.11
-58.4
-44.54
-30.21
-16.74
-4.83
5.38
14.11
21.62
28.06
33.45
37.77
41.06
43.39
44.9
45.72
45.93
45.63
44.9
43.88
42.68
41.41
40.11
38.73
37.14
35.14
32.64
29.65
26.37
23.02
19.84
16.9
14.06
11.05
7.52
3.26
-1.72
-7.21
-12.83
-18.2
-23.12
-27.65
-32.11
-37.01
-42.78
-49.58
-57.05
-64.23
-69.78
-72.25
-70.62
-64.63
-54.85
-42.58
-29.35
-16.53
-5.03
4.83
13.14
20.15
26.05
30.89
34.57
37.01
38.23
38.41
37.82
36.84
35.71
34.58
33.44
32.23
30.89
29.43
27.94
26.52
25.23
24.01
22.67
20.92
18.46
15.1
10.82
5.82
0.42
-5.01
-10.2
-15.03
-19.6
-24.15
-29.03
-34.59
-41.07
-48.39
-56.03
-62.94
-67.79
-69.2
-66.31
-59.03
-48.15
-35.03
-21.26
-8.09
3.7
13.89
22.62
30.08
36.39
41.58
45.63
48.53
50.37
51.29
51.46
51.05
50.19
48.97
47.47
45.81
44.08
42.39
40.77
39.15
37.36
35.21
32.57
29.45
25.96
22.22
18.32
14.2
9.72
4.77
-0.62
-6.27
-11.91
-17.37
-22.61
-27.73
-32.95
-38.5
-44.6
-51.43
-59.03
-67.12
-74.93
-81.26
-84.73
-84.25
-79.46
-70.91
-59.87
-47.86
-36.16
-25.48
-16.08
-7.92
-0.98
4.64
8.81
11.4
12.4
11.88
9.91
6.5
1.63
-4.61
-11.96
-19.91
-27.87
-35.22
-41.49
-46.46
-50.11
-52.57
-54.08
-54.91
-55.31
-55.51
-55.52
-55.26
-54.54
-53.21
-51.27
-48.9
-46.45
-44.28
-42.8
-42.36
-43.37
-46.28
-51.47
-59.06
-68.65
-79.14
-88.93
-96.24
-99.56
-98.05
-91.66
-81.12
-67.54
-52.14
-35.93
-19.51
-3.04
13.8
31.63
51.15
72.71
95.94
119.51
141.29
158.94
170.65
175.76
174.88
169.54
161.38
151.54
140.37
127.76
113.7
98.73
83.96
70.66
59.63
50.71
42.95
35.08
26.27
16.56
6.88
-1.43
-7.22
-9.96
-9.81
-7.47
-3.93
-0.46
1.54
0.71
-3.78
-11.63
-21.15
-29.55
-33.89
-32.26
-24.57
-12.49
1.35
14.44
25.17
33.07
38.48
42.06
44.45
46.1
47.31
48.26
48.95
49.22
48.83
47.67
45.85
43.61
41.24
38.82
36.32
33.65
30.79
27.81
24.71
21.29
17.27
12.4
6.79
0.89
-4.67
-9.41
-13.34
-16.94
-20.99
-26.1
-32.52
-40.15
-48.8
-58.45
-69.33
-81.61
-94.9
-107.97
-118.83
-125.29
-125.75
-119.79
-108.23
-92.71
-74.93
-56.17
-37.13
-18.17
0.3
17.67
33.18
46.3
56.88
65.11
71.3
75.6
77.91
77.98
75.64
70.99
64.56
57.1
49.49
42.45
36.43
31.58
27.74
24.63
21.87
19.04
15.81
11.9
7.2
1.74
-4.2
-10.22
-15.84
-20.72
-24.68
-27.8
-30.34
-32.75
-35.51
-39.14
-44.06
-50.38
-57.74
-65.27
-71.64
-75.43
-75.49
-71.33
-63.21
-52.03
-39.0
-25.34
-12.1
-0.07
10.16
18.14
23.59
26.38
26.55
24.26
19.94
14.2
7.93
2.14
-2.28
-4.82
-5.16
-3.49
-0.28
3.75
7.91
11.49
13.9
14.86
14.67
14.53
15.9
19.73
25.93
33.41
40.69
46.71
51.26
54.8
58.35
62.05
64.81
64.78
60.63
52.42
41.74
31.08
23.13
21.7
29.29
46.05
69.69
96.49
122.37
143.62
157.57
163.18
164.42
165.6
168.99
174.07
178.97
182.07
182.33
179.18
172.38
167.44
168.83
177.43
190.45
204.37
217.37
229.42
241.14
252.97
271.45
300.23
337.13
374.94
406.55
428.81
442.8
451.62
416.14
317.68
167.22
0.58
-148.1
-263.11
-344.35
-398.41
-433.38
-456.28
-465.32
-458.5
-437.01
-405.76
-370.31
-334.58
-301.13
-271.61
-247.79
-225.74
-202.09
-176.35
-151.24
-130.15
-116.69
-110.37
-110.03
-114.51
-119.31
-120.94
-118.57
-114.05
-109.85
-107.77
-107.45
-107.67
-107.0
-102.7
-93.21
-79.14
-63.08
-48.14
-36.61
-29.03
-24.96
-23.3
-22.27
-20.64
-18.28
-16.09
-14.79
-15.13
-17.15
-20.59
-24.91
-29.5
-33.8
-37.56
-40.78
-43.61
-46.24
-48.48
-49.93
-49.97
-47.93
-43.31
-36.01
-26.36
-15.06
-3.09
8.73
19.69
29.36
37.43
43.81
48.56
51.8
53.76
54.66
54.72
54.08
52.83
51.05
48.87
46.47
44.05
41.79
39.79
38.04
36.45
34.85
33.08
31.0
28.52
25.63
22.36
18.78
14.97
11.03
7.0
2.97
-1.05
-5.05
-9.06
-13.1
-17.18
-21.29
-25.36
-29.36
-33.28
-37.26
-41.52
-46.32
-51.77
-57.62
-63.1
-67.06
-68.26
-65.8
-59.48
-49.93
-38.39
-26.28
-14.8
-4.63
4.04
11.38
17.59
22.79
26.93
29.88
31.56
32.12
31.85
31.19
30.52
30.05
29.74
29.39
28.76
27.7
26.24
24.55
22.86
21.35
20.07
18.89
17.53
15.72
13.21
9.95
6.06
1.81
-2.5
-6.66
-10.54
-14.16
-17.62
-21.08
-24.71
-28.71
-33.27
-38.36
-43.68
-48.49
-51.78
-52.49
-49.86
-43.73
-34.59
-23.52
-11.79
-0.61
9.2
17.3
23.77
28.93
33.13
36.59
39.33
41.25
42.26
42.32
41.6
40.34
38.83
37.24
35.63
33.96
32.2
30.35
28.38
26.19
23.52
20.04
15.49
9.88
3.57
-2.82
-8.67
-13.6
-17.65
-21.33
-25.35
-30.35
-36.66
-44.12
-52.16
-60.02
-67.03
-72.83
-77.54
-81.67
-85.96
-91.1
-97.39
-104.5
-111.43
-116.66
-118.54
-115.9
-108.31
-96.33
-81.24
-64.66
-48.09
-32.55
-18.52
-6.0
5.3
15.77
25.77
35.53
45.07
54.22
62.63
69.96
75.98
80.66
84.17
86.83
88.89
90.49
91.57
91.96
91.52
90.22
88.25
85.85
83.21
80.3
76.91
72.8
67.86
62.27
56.36
50.5
44.88
39.43
33.89
27.98
21.59
14.79
7.82
0.95
-5.63
-11.93
-18.1
-24.31
-30.7
-37.23
-43.81
-50.21
-56.21
-61.51
-65.65
-68.01
-67.88
-64.73
-58.44
-49.48
-38.78
-27.44
-16.43
-6.32
2.71
10.72
17.86
24.17
29.6
34.02
37.3
39.36
40.3
40.31
39.7
38.78
37.78
36.81
35.87
34.9
33.85
32.65
31.29
29.74
27.94
25.81
23.26
20.26
16.83
13.07
9.1
5.0
0.88
-3.23
-7.28
-11.23
-15.03
-18.7
-22.35
-26.28
-30.85
-36.32
-42.6
-49.08
-54.67
-58.07
-58.2
-54.56
-47.46
-37.82
-26.93
-15.93
-5.62
3.63
11.7
18.55
24.12
28.3
31.08
32.63
33.29
33.41
33.3
33.07
32.72
32.17
31.35
30.29
29.07
27.8
26.48
25.06
23.36
21.24
18.62
15.58
12.33
9.06
5.9
2.72
-0.66
-4.44
-8.71
-13.3
-17.97
-22.45
-26.59
-30.39
-33.97
-37.54
-41.34
-45.64
-50.62
-56.24
-62.09
-67.27
-70.56
-70.82
-67.33
-60.12
-49.93
-37.97
-25.56
-13.75
-3.19
5.88
13.5
19.86
25.17
29.57
33.18
35.98
37.98
39.23
39.82
39.88
39.57
39.0
38.26
37.41
36.55
35.75
35.08
34.53
33.96
33.14
31.76
29.58
26.52
22.7
18.44
14.11
9.96
6.02
2.16
-1.86
-6.15
-10.6
-14.96
-18.97
-22.57
-25.96
-29.54
-33.7
-38.74
-44.72
-51.47
-58.53
-65.13
-70.3
-72.92
-72.05
-67.26
-58.79
-47.57
-34.92
-22.21
-10.49
-0.28
8.32
15.54
21.65
26.85
31.22
34.7
37.25
38.85
39.6
39.64
39.15
38.29
37.2
36.06
35.04
34.24
33.67
33.18
32.46
31.16
29.07
26.18
22.73
19.07
15.52
12.22
9.1
5.93
2.47
-1.42
-5.7
-10.22
-14.72
-18.99
-22.9
-26.48
-29.96
-33.73
-38.26
-43.82
-50.28
-56.91
-62.49
-65.59
-65.07
-60.47
-52.15
-41.16
-28.91
-16.68
-5.41
4.38
12.57
19.23
24.53
28.65
31.74
33.92
35.25
35.8
35.7
35.12
34.32
33.51
32.84
32.36
31.99
31.58
30.97
30.08
28.87
27.32
25.43
23.12
20.26
16.77
12.64
7.98
3.02
-1.97
-6.77
-11.26
-15.45
-19.42
-23.32
-27.32
-31.6
-36.36
-41.76
-47.86
-54.36
-60.56
-65.35
-67.44
-65.82
-60.13
-50.86
-39.21
-26.65
-14.46
-3.41
6.26
14.65
21.92
28.07
33.02
36.68
39.12
40.6
41.47
42.03
42.39
42.48
42.11
41.14
39.64
37.87
36.23
34.98
34.19
33.63
32.88
31.52
29.3
26.24
22.6
18.73
14.96
11.47
8.24
5.12
1.87
-1.72
-5.76
-10.18
-14.77
-19.27
-23.45
-27.22
-30.67
-34.1
-37.93
-42.62
-48.42
-55.23
-62.42
-68.91
-73.31
-74.34
-71.26
-64.05
-53.55
-41.06
-28.04
-15.66
-4.62
4.84
12.78
19.41
24.93
29.51
33.31
36.44
38.94
40.79
41.9
42.23
41.81
40.82
39.49
38.11
36.89
35.95
35.28
34.73
34.11
33.14
31.6
29.36
26.45
23.05
19.47
15.95
12.62
9.4
6.01
2.16
-2.31
-7.34
-12.58
-17.59
-21.99
-25.61
-28.6
-31.37
-34.47
-38.47
-43.68
-50.02
-56.88
-63.13
-67.4
-68.44
-65.53
-58.73
-48.83
-37.07
-24.78
-12.99
-2.38
6.78
14.35
20.23
24.34
26.66
27.4
27.03
26.32
26.04
26.83
28.89
31.93
35.24
37.95
39.34
39.12
37.5
35.0
32.25
29.65
27.2
24.61
21.42
17.3
12.26
6.65
0.96
-4.37
-9.2
-13.71
-18.25
-23.1
-28.4
-34.08
-40.03
-46.16
-52.28
-57.91
-62.11
-63.54
-60.89
-53.48
-41.71
-27.03
-11.53
2.93
15.25
25.34
33.76
41.1
47.66
53.25
57.46
60.04
61.08
61.0
60.31
59.37
58.26
56.85
54.89
52.26
48.9
44.82
40.0
34.3
27.65
20.14
12.22
4.65
-1.78
-6.58
-9.8
-12.04
-14.17
-16.89
-20.52
-24.9
-29.63
-34.37
-39.03
-43.73
-48.72
-54.18
-60.23
-66.91
-74.16
-81.64
-88.69
-94.22
-96.99
-95.93
-90.52
-80.96
-68.15
-53.39
-38.07
-23.47
-10.58
-0.07
7.82
13.37
17.36
20.74
24.32
28.33
32.45
36.08
38.86
40.94
42.95
45.55
48.95
52.79
56.31
58.78
59.83
59.52
58.0
55.29
51.16
45.38
38.11
30.05
22.18
15.37
9.85
5.14
0.34
-5.35
-12.21
-19.91
-27.72
-34.91
-41.12
-46.49
-51.48
-56.67
-62.46
-68.91
-75.64
-81.83
-86.35
-87.99
-85.78
-79.29
-68.86
-55.45
-40.49
-25.43
-11.39
1.0
11.6
20.55
28.11
34.41
39.46
43.24
45.74
47.11
47.63
47.61
47.3
46.87
46.31
45.58
44.6
43.35
41.82
40.04
37.99
35.64
32.96
29.96
26.67
23.18
19.55
15.8
11.87
7.69
3.22
-1.47
-6.25
-10.97
-15.47
-19.76
-23.93
-28.23
-33.0
-38.55
-44.94
-51.76
-58.1
-62.58
-63.83
-60.93
-53.83
-43.36
-30.92
-17.99
-5.72
5.3
14.88
23.05
29.84
35.22
39.14
41.62
42.81
42.98
42.44
41.51
40.41
39.32
38.31
37.36
36.38
35.24
33.87
32.24
30.36
28.27
25.95
23.36
20.34
16.74
12.45
7.49
2.01
-3.69
-9.27
-14.49
-19.27
-23.73
-28.13
-32.75
-37.82
-43.47
-49.75
-56.53
-63.42
-69.66
-74.14
-75.59
-73.01
-66.07
-55.31
-41.99
-27.76
-14.04
-1.69
9.06
18.4
26.64
33.92
40.13
45.03
48.47
50.49
51.37
51.54
51.4
51.21
50.98
50.63
50.0
49.05
47.85
46.6
45.42
44.32
43.15
41.61
39.39
36.31
32.32
27.56
22.32
16.95
11.78
6.99
2.63
-1.49
-5.6
-9.97
-14.73
-19.83
-25.01
-29.99
-34.52
-38.62
-42.55
-46.78
-51.82
-58.01
-65.32
-73.13
-80.29
-85.29
-86.71
-83.62
