-21.37
-8.98
0.7
8.19
14.19
19.18
23.39
26.88
29.66
31.81
33.4
34.5
35.14
35.29
34.97
34.16
32.92
31.35
29.63
27.95
26.48
25.3
24.26
23.05
21.22
18.38
14.37
9.33
3.63
-2.19
-7.71
-12.69
-17.14
-21.25
-25.33
-29.7
-34.73
-40.73
-47.86
-55.92
-64.15
-71.17
-75.25
-74.87
-69.32
-59.06
-45.62
-31.04
-17.2
-5.22
4.6
12.59
19.25
24.94
29.76
33.7
36.75
39.03
40.66
41.72
42.16
41.95
41.1
39.82
38.45
37.33
36.63
36.23
35.8
34.85
33.02
30.16
26.44
22.23
17.93
13.84
10.0
6.26
2.31
-2.09
-7.06
-12.48
-18.11
-23.62
-28.74
-33.37
-37.61
-41.84
-46.64
-52.61
-60.09
-68.84
-77.81
-85.28
-89.23
-88.06
-81.16
-69.19
-53.88
-37.46
-21.9
-8.42
2.68
11.74
19.33
25.89
31.63
36.59
40.8
44.39
47.48
50.15
52.26
53.58
53.85
53.02
51.33
49.23
47.29
45.9
45.16
44.81
44.36
43.27
41.14
37.88
33.7
28.99
24.18
19.62
15.45
11.64
7.94
4.04
-0.39
-5.54
-11.37
-17.59
-23.77
-29.5
-34.57
-39.1
-43.54
-48.54
-54.69
-62.31
-71.16
-80.28
-88.07
-92.61
-92.25
-86.19
-74.88
-59.92
-43.54
-27.87
-14.29
-3.21
5.74
13.27
19.95
26.01
31.35
35.73
39.02
41.24
42.55
43.18
43.32
43.07
42.49
41.57
40.32
38.78
37.04
35.2
33.38
31.56
29.63
27.34
24.41
20.59
15.82
10.24
4.2
-1.88
-7.6
-12.75
-17.34
-21.56
-25.78
-30.39
-35.82
-42.39
-50.2
-58.87
-67.46
-74.38
-77.83
-76.33
-69.32
-57.49
-42.54
-26.67
-11.81
0.97
11.44
20.0
27.13
33.13
38.03
41.76
44.34
45.98
46.96
47.5
47.69
47.46
46.73
45.49
43.92
42.33
41.05
40.23
39.76
39.23
38.1
35.92
32.51
28.07
23.09
18.07
13.37
9.0
4.71
0.12
-5.04
-10.81
-16.97
-23.13
-28.92
-34.15
-38.9
-43.54
-48.66
-54.85
-62.52
-71.51
-81.0
-89.4
-94.76
-95.26
-89.94
-79.03
-64.02
-47.11
-30.52
-15.8
-3.49
6.61
15.11
22.58
29.3
35.34
40.66
45.3
49.29
52.62
55.18
56.81
57.37
56.92
55.7
54.11
52.56
51.35
50.56
50.08
49.64
48.94
47.73
45.89
43.34
40.05
36.04
31.42
26.43
21.43
16.81
12.79
9.3
5.98
2.32
-2.15
-7.59
-13.83
-20.42
-26.89
-32.85
-38.17
-42.97
-47.57
-52.42
-58.05
-64.94
-73.28
-82.67
-91.96
-99.25
-102.41
-99.71
-90.65
-76.17
-58.49
-40.24
-23.62
-9.75
1.33
10.32
18.01
24.9
31.13
36.62
41.33
45.33
48.78
51.74
54.13
55.74
56.32
55.78
54.29
52.26
50.26
48.75
47.96
47.71
47.52
46.78
45.02
42.03
37.95
33.17
28.19
23.45
19.23
15.56
12.18
8.65
4.49
-0.58
-6.56
-13.1
-19.65
-25.72
-31.07
-35.79
-40.27
-45.0
-50.5
-57.18
-65.24
-74.45
-83.93
-92.1
-96.98
-96.73
-90.4
-78.4
-62.44
-44.94
-28.2
-13.71
-1.97
7.34
14.86
21.18
26.65
31.41
35.5
38.93
41.69
43.75
45.07
45.66
45.6
45.08
44.31
43.5
42.81
42.27
41.77
41.04
39.72
37.54
34.43
30.57
26.37
22.17
18.14
14.16
9.89
4.98
-0.76
-7.23
-14.12
-20.95
-27.33
-33.1
-38.39
-43.63
-49.48
-56.53
-65.05
-74.67
-84.23
-91.87
-95.54
-93.65
-85.67
-72.4
-55.77
-38.16
-21.61
-7.34
4.41
14.03
22.12
29.15
35.34
40.75
45.43
49.44
52.79
55.42
57.19
57.96
57.7
56.62
55.06
53.46
52.19
51.44
51.09
50.86
50.35
49.21
47.28
44.58
41.26
37.51
33.44
29.11
24.55
19.76
14.84
9.9
5.05
0.37
-4.17
-8.67
-13.28
-18.17
-23.4
-28.86
-34.36
-39.64
-44.52
-49.0
-53.33
-57.96
-63.48
-70.44
-79.11
-89.18
-99.53
-108.25
-113.04
-111.92
-103.96
-89.69
-71.06
-50.7
-31.13
-13.99
0.14
11.58
21.04
29.2
36.49
43.05
48.93
54.12
58.68
62.64
65.98
68.56
70.22
70.8
70.3
68.92
67.02
65.02
63.26
61.83
60.6
59.23
57.32
54.62
51.0
46.6
41.64
36.44
31.25
26.25
21.45
16.73
11.89
6.69
1.0
-5.18
-11.69
-18.25
-24.56
-30.44
-35.85
-41.02
-46.35
-52.38
-59.63
-68.41
-78.51
-88.99
-98.2
-104.03
-104.54
-98.65
-86.64
-70.1
-51.47
-33.17
-16.93
-3.42
7.55
16.6
24.26
30.7
35.83
39.49
41.71
42.79
43.17
43.27
43.31
43.28
42.97
42.2
40.88
39.16
37.32
35.67
34.36
33.25
31.98
29.96
26.69
21.86
15.56
8.25
0.59
-6.72
-13.23
-18.83
-23.76
-28.49
-33.54
-39.36
-46.29
-54.39
-63.29
-72.0
-78.92
-82.17
-80.18
-72.34
-59.4
-43.17
-25.98
-9.83
4.17
15.82
25.51
33.71
40.64
46.29
50.57
53.5
55.28
56.21
56.51
56.33
55.71
54.72
53.49
52.13
50.75
49.29
47.66
45.68
43.24
40.28
36.79
32.77
28.23
23.17
17.62
11.68
5.44
-0.93
-7.31
-13.6
-19.72
-25.68
-31.48
-37.28
-43.38
-50.26
-58.35
-67.78
-78.01
-87.66
-94.7
-97.02
-93.19
-83.05
-67.82
-49.76
-31.33
-14.47
-0.15
11.55
21.11
29.13
36.03
42.03
47.26
51.8
55.7
58.97
61.5
63.17
63.92
63.8
62.97
61.72
60.34
59.08
58.08
57.32
56.67
55.83
54.49
52.36
49.27
45.21
40.36
35.0
29.47
24.06
18.95
14.14
9.47
4.66
-0.57
-6.36
-12.66
-19.21
-25.66
-31.67
-37.11
-42.06
-46.86
-52.04
-58.18
-65.75
-74.91
-85.13
-95.12
-102.95
-106.46
-104.0
-95.11
-80.75
-63.05
-44.6
-27.52
-13.02
-1.25
8.31
16.35
23.38
29.62
35.17
40.06
44.35
48.04
51.0
52.97
53.71
53.2
51.64
49.5
47.25
45.25
43.58
42.07
40.45
38.46
35.99
33.06
29.74
26.06
21.95
17.29
12.01
6.17
-0.01
-6.22
-12.14
-17.59
-22.55
-27.21
-31.89
-37.0
-42.98
-50.12
-58.36
-66.99
-74.65
-79.52
-79.84
-74.59
-63.96
-49.36
-32.98
-17.06
-3.17
8.05
16.81
23.74
29.46
34.33
38.42
41.59
43.77
44.94
45.23
44.85
44.06
43.09
42.09
41.11
40.06
38.81
37.24
35.33
33.15
30.78
28.27
25.52
22.35
18.53
13.9
8.48
2.49
-3.73
-9.85
-15.63
-21.02
-26.12
-31.13
-36.26
-41.82
-48.15
-55.54
-64.04
-73.1
-81.52
-87.44
-88.97
-84.82
-74.91
-60.52
-43.83
-27.23
-12.49
-0.38
9.3
17.24
24.17
30.49
36.25
41.29
45.41
48.57
50.79
52.23
52.98
53.11
52.65
51.67
50.27
48.69
47.2
46.05
45.29
44.75
44.02
42.64
40.2
36.57
31.93
26.71
21.44
16.56
12.29
8.57
5.08
1.37
-2.98
-8.22
-14.24
-20.66
-26.94
-32.64
-37.57
-41.9
-46.1
-50.8
-56.55
-63.77
-72.46
-82.07
-91.41
-98.69
-101.91
-99.5
-90.96
-77.13
-59.98
-41.98
-25.28
-11.14
0.25
9.39
17.08
23.94
30.27
36.05
41.15
45.44
48.91
51.61
53.62
54.95
55.59
55.56
54.97
54.02
53.03
52.23
51.66
51.17
50.43
49.11
47.06
44.35
41.2
37.9
34.63
31.38
27.99
24.2
19.85
14.97
9.83
4.81
0.23
-3.81
-7.58
-11.51
-16.03
-21.26
-27.01
-32.82
-38.26
-43.2
-47.83
-52.65
-58.26
-65.18
-73.55
-83.01
-92.55
-100.52
-104.98
-104.22
-97.41
-85.03
-68.76
-50.97
-33.93
-19.14
-7.12
2.41
10.07
16.43
21.84
26.47
30.45
33.83
36.63
38.72
39.93
40.21
39.69
38.73
37.72
36.92
36.34
35.76
34.92
33.67
32.02
30.05
27.82
25.22
22.03
18.02
13.09
7.36
1.11
-5.25
-11.37
-17.03
-22.19
-27.03
-31.85
-36.99
-42.86
-49.7
-57.54
-65.92
-73.83
-79.75
-81.99
-79.26
-71.15
-58.39
-42.66
-26.03
-10.33
3.33
14.69
24.04
31.8
38.23
43.36
47.12
49.56
50.91
51.5
51.66
51.6
51.32
50.76
49.88
48.74
47.56
46.55
45.8
45.22
44.45
43.06
40.71
37.29
33.01
28.28
23.49
18.88
14.34
9.6
4.31
-1.71
-8.37
-15.36
-22.23
-28.63
-34.38
-39.57
-44.55
-49.84
-56.0
-63.51
-72.49
-82.38
-91.88
-99.05
-101.8
-98.65
-89.25
-74.66
-57.01
-38.71
-21.74
-7.16
4.92
14.96
23.54
31.05
37.63
43.34
48.22
52.39
55.96
58.94
61.21
62.6
63.01
62.5
61.34
59.93
58.66
57.75
57.21
56.81
56.22
55.17
53.53
51.32
48.65
45.63
42.29
38.56
34.35
29.59
24.37
18.89
13.48
8.44
3.96
-0.07
-3.96
-8.19
-13.11
-18.84
-25.14
-31.56
-37.67
-43.23
-48.35
-53.41
-59.0
-65.65
-73.7
-83.01
-92.81
-101.66
-107.63
-108.78
-103.9
-92.93
-77.18
-58.91
-40.57
-24.09
-10.39
0.59
9.48
17.01
23.7
29.73
35.06
39.6
43.27
46.06
47.98
49.05
49.31
48.87
47.91
46.66
45.34
44.12
43.03
41.91
40.52
38.58
35.93
32.61
28.81
24.78
20.65
16.39
11.82
6.77
1.21
-4.69
-10.62
-16.3
-21.58
-26.55
-31.54
-37.02
-43.43
-51.04
-59.58
-68.17
-75.31
-79.18
-78.23
-71.79
-60.33
-45.45
-29.3
-13.84
-0.3
10.95
20.22
28.02
34.71
40.35
44.83
48.04
50.04
51.11
51.58
51.72
51.63
51.28
50.56
49.41
47.93
46.33
44.87
43.73
42.87
42.02
40.71
38.52
35.22
30.91
25.93
20.84
16.09
11.95
8.33
4.85
1.05
-3.47
-8.83
-14.85
-21.1
-27.15
-32.69
-37.7
-42.38
-47.15
-52.47
-58.79
-66.37
-75.08
-84.17
-92.19
-97.22
-97.43
-91.77
-80.42
-64.87
-47.33
-30.06
-14.62
-1.67
8.96
17.8
25.38
32.05
37.96
43.18
47.73
51.62
54.79
57.18
58.69
59.28
59.01
58.01
56.5
54.78
53.16
51.97
51.34
51.16
51.05
50.47
48.96
46.32
42.76
38.77
34.93
31.64
28.92
26.48
23.86
20.69
16.85
12.51
8.05
3.81
-0.05
-3.64
-7.25
-11.25
-15.96
-21.42
-27.43
-33.61
-39.53
-44.9
-49.66
-54.03
-58.44
-63.44
-69.54
-76.98
-85.59
-94.48
-102.14
-106.69
-106.4
-100.33
-88.77
-73.23
-55.97
-39.24
-24.63
-12.71
-3.19
4.61
11.4
17.54
23.18
28.28
32.88
37.06
40.88
44.26
46.96
48.69
49.28
48.81
47.71
46.55
45.89
46.03
46.91
48.11
49.06
49.18
48.12
45.83
42.53
38.56
34.37
30.14
25.72
20.77
14.9
8.01
0.32
-7.69
-15.49
-22.66
-29.05
-34.92
-40.74
-47.02
-54.22
-62.65
-72.45
-83.47
-94.87
-105.38
-113.58
-118.33
-119.06
-116.02
-110.21
-103.05
-95.79
-88.52
-80.73
-71.98
-62.27
-51.98
-41.64
-31.85
-23.1
-15.79
-8.92
-1.72
5.52
11.57
15.28
16.35
15.36
13.49
12.06
14.19
22.04
35.27
51.06
65.92
77.22
83.77
85.95
85.26
86.29
93.0
106.53
125.26
146.95
170.07
193.61
216.43
221.8
198.89
150.89
92.84
39.19
-2.73
-31.57
-49.25
-58.18
-62.58
-62.76
-58.57
-51.37
-44.1
-39.27
-37.66
-39.6
-43.74
-48.52
-50.66
-48.15
-41.54
-33.54
-26.95
-23.37
-23.07
-25.19
-28.66
-31.1
-30.84
-27.8
-23.42
-19.46
-17.1
-16.75
-18.05
-20.45
-22.77
-24.27
-25.06
-25.93
-27.67
-30.62
-34.65
-39.33
-44.32
-49.11
-53.3
-56.69
-59.25
-61.24
-63.21
-65.92
-69.9
-75.0
-80.07
-83.25
-82.67
-77.29
-67.31
-54.01
-39.03
-23.63
-8.41
6.54
21.12
34.92
47.35
57.92
66.66
74.0
80.55
86.66
92.28
97.09
100.67
102.78
103.42
102.77
101.19
99.08
96.9
94.93
93.24
91.49
89.12
85.51
80.38
73.88
66.5
58.83
51.26
43.84
36.33
28.42
19.94
10.97
1.76
-7.4
-16.32
-25.02
-33.68
-42.55
-51.92
-62.01
-72.99
-84.82
-97.02
-108.56
-117.8
-122.82
-122.03
-114.82
-101.94
-85.34
-67.46
-50.47
-35.58
-22.96
-12.11
-2.32
6.88
15.74
24.36
32.82
41.13
49.12
56.38
62.37
66.68
69.18
70.05
69.67
68.4
66.49
64.13
61.55
58.95
56.42
53.78
50.59
46.35
40.84
34.29
27.3
20.53
14.37
8.72
3.12
-2.94
-9.71
-17.12
-24.97
-33.09
-41.39
-49.73
-57.67
-64.3
-68.43
-69.06
-65.77
-58.92
-49.52
-38.67
-27.2
-15.49
-3.63
8.22
19.58
29.71
37.96
44.0
47.98
50.33
51.4
51.23
49.54
46.02
40.71
34.14
27.26
21.06
16.08
12.19
8.58
4.21
-1.67
-9.13
-17.34
-24.89
-30.27
-32.48
-31.41
-27.84
-23.2
-19.12
-17.06
-17.96
-22.14
-29.08
-37.57
-45.81
-51.97
-54.67
-53.54
-49.26
-43.27
-37.12
-31.86
-27.8
-24.59
-21.69
-18.77
-15.88
-13.37
-11.59
-10.7
-10.59
-11.06
-11.92
-13.1
-14.47
-15.7
-16.17
-15.02
-11.61
-5.79
1.82
10.01
17.37
22.78
25.73
26.39
25.38
23.49
21.37
19.43
17.85
16.74
16.13
16.02
16.28
16.58
16.37
15.05
12.19
7.8
2.43
-3.02
-7.4
-9.78
-9.58
-6.72
-1.61
4.94
11.97
18.64
24.61
30.16
36.02
42.86
50.68
58.56
64.82
67.77
66.44
60.95
52.27
41.71
30.58
20.39
13.23
11.71
17.98
32.22
51.76
71.54
86.27
92.86
91.71
85.87
78.71
71.76
63.89
52.72
36.54
15.79
-7.24
-29.86
-50.55
-69.15
-86.02
-100.8
-111.9
-117.18
-115.33
-106.74
-93.59
-78.97
-65.57
-54.93
-47.15
-41.3
-36.05
-30.39
-23.98
-17.19
-10.76
-5.34
-1.22
1.78
4.09
6.08
7.9
9.42
10.41
10.69
10.24
9.18
7.63
5.63
3.13
0.09
-3.38
-6.99
-10.34
-13.15
-15.4
-17.46
-19.82
-22.87
-26.51
-30.22
-33.39
-35.7
-37.3
-38.57
-39.75
-40.7
-41.1
-40.77
-39.94
-39.15
-38.74
-38.44
-37.26
-33.98
-27.88
-19.21
-9.15
0.74
9.16
15.44
19.52
21.71
22.44
22.19
21.46
20.86
21.02
22.51
25.59
30.12
35.47
40.59
44.25
45.39
43.54
38.98
32.67
25.8
19.34
13.7
8.73
4.08
-0.5
-4.87
-8.64
-11.46
-13.33
-14.66
-16.16
-18.45
-21.73
-25.62
-29.17
-31.17
-30.54
-26.73
-19.93
-11.06
-1.34
8.16
17.06
25.68
34.79
44.93
55.96
66.82
75.82
81.22
81.78
77.09
67.61
54.38
38.85
22.66
7.7
-4.18
-11.47
-13.56
-11.09
-5.84
-0.17
3.87
5.19
3.87
0.76
-3.02
-6.66
-9.79
-12.36
-14.51
-16.34
-17.94
-19.44
-20.91
-22.28
-23.34
-23.7
-22.99
-21.03
-17.95
-14.34
-11.15
-9.48
-10.16
-13.39
-18.41
-23.6
-27.02
-27.12
-23.26
-15.93
-6.44
3.6
12.74
19.98
24.78
27.04
26.97
25.11
22.35
19.85
18.94
20.82
26.21
34.91
45.66
56.41
64.87
69.39
69.48
65.86
59.91
53.02
45.96
38.86
31.46
23.56
15.27
7.03
-0.59
-7.07
-12.04
-15.27
-16.72
-16.43
-14.65
-11.98
-9.4
-8.34
-10.37
-16.64
-27.27
-40.91
-54.98
-66.63
-73.88
-76.4
-75.41
-72.74
-69.61
-65.97
-60.81
-53.14
-42.93
-31.44
-20.65
-12.25
-6.76
-3.5
-1.1
1.65
5.07
8.61
11.31
12.41
11.93
10.67
9.83
10.45
12.92
16.84
21.19
24.85
26.99
27.38
26.29
24.27
21.78
19.04
16.0
12.53
8.64
4.55
0.6
-2.9
-5.87
-8.52
-11.17
-14.17
-17.66
-21.53
-25.4
-28.7
-30.64
-30.39
-27.23
-20.88
-11.74
-0.96
9.85
19.2
26.29
31.21
34.55
36.83
37.99
37.48
34.7
29.69
23.38
17.33
13.0
11.1
11.39
13.0
15.0
16.8
18.15
18.8
18.28
15.97
11.55
5.36
-1.45
-7.37
-11.02
-11.73
-9.68
-5.79
-1.35
2.41
4.56
4.72
2.99
-0.14
-3.97
-7.79
-11.06
-13.51
-15.11
-16.02
-16.55
-17.09
-18.11
-20.14
-23.6
-28.57
-34.67
-40.98
-46.29
-49.44
-49.7
-46.96
-41.74
-34.93
-27.43
-19.93
-12.89
-6.61
-1.32
2.83
5.87
8.08
9.91
11.73
13.68
15.58
17.08
17.96
18.25
18.23
18.26
18.5
18.86
19.08
18.89
18.18
17.06
15.79
14.66
13.86
13.42
13.23
13.11
12.88
12.37
11.45
10.03
8.04
5.38
1.98
-2.17
-7.02
-12.41
-18.16
-24.07
-30.08
-36.21
-42.49
-48.84
-54.95
-60.21
-63.86
-65.13
-63.53
-58.95
-51.71
-42.43
-31.94
-21.12
-10.83
-1.81
5.42
10.56
13.66
15.01
15.15
14.62
13.97
13.56
13.57
13.98
14.55
15.01
15.13
14.8
14.1
13.22
12.38
11.74
11.34
11.11
10.93
10.66
10.14
9.23
7.75
5.56
2.57
-1.15
-5.39
-9.83
-14.21
-18.39
-22.45
-26.57
-30.91
-35.47
-40.07
-44.42
-48.24
-51.29
-53.37
-54.22
-53.54
-51.12
-46.99
-41.57
-35.63
-29.93
-25.03
-21.07
-17.8
-14.85
-12.01
-9.27
-6.89
-5.13
-4.14
-3.79
-3.81
-3.83
-3.61
-3.12
-2.52
-2.06
-1.96
-2.28
-2.87
-3.47
-3.79
-3.65
-2.94
-1.62
0.35
3.0
6.35
10.37
14.91
19.75
24.59
29.2
33.34
36.78
39.29
40.67
40.76
39.54
37.12
33.73
29.73
25.45
21.22
17.19
13.4
9.72
5.96
1.92
-2.53
-7.45
-12.76
-18.19
-23.22
-27.15
-29.26
-29.01
-26.33
-21.62
-15.63
-9.21
-3.04
2.53
7.43
11.71
15.47
18.77
21.64
24.18
26.42
28.41
30.1
31.38
32.2
32.51
32.37
31.9
31.27
30.63
30.15
29.99
30.17
30.58
31.0
31.15
30.8
29.87
28.4
26.57
24.51
22.36
20.14
17.85
15.5
13.07
10.59
8.06
5.51
2.97
0.5
-1.84
-4.06
-6.21
-8.4
-10.73
-13.23
-15.85
-18.47
-21.04
-23.59
-26.21
-29.07
-32.3
-35.98
-40.2
-44.96
-50.11
-55.25
-59.71
-62.64
-63.3
-61.36
-57.08
-51.17
-44.53
-37.93
-31.79
-26.22
-21.13
-16.4
-11.94
-7.66
-3.43
0.91
5.46
10.2
14.84
18.99
22.24
24.41
25.62
26.39
27.41
29.27
32.26
36.12
40.12
43.29
44.76
44.08
41.35
37.14
32.22
27.3
22.79
18.78
15.17
11.82
8.75
6.1
4.07
2.78
2.21
2.14
2.3
2.38
2.08
1.13
-0.68
-3.43
-6.9
-10.51
-13.38
-14.61
-13.62
-10.36
-5.36
0.58
6.59
12.04
16.63
20.3
23.14
25.27
26.81
27.95
28.87
29.75
30.65
31.48
32.02
32.05
31.45
30.27
28.72
27.06
25.51
24.17
22.98
21.85
20.65
19.28
17.69
