10.27
17.81
24.78
30.95
36.02
39.79
42.22
43.41
43.6
43.06
42.01
40.68
39.29
38.04
37.05
36.32
35.66
34.76
33.35
31.25
28.49
25.2
21.54
17.55
13.21
8.51
3.58
-1.33
-5.93
-10.07
-13.76
-17.27
-20.9
-24.95
-29.63
-35.05
-41.23
-47.98
-54.77
-60.67
-64.47
-65.08
-61.87
-54.94
-45.15
-33.76
-22.08
-11.05
-1.19
7.4
14.79
21.09
26.34
30.55
33.73
35.96
37.38
38.18
38.52
38.51
38.19
37.53
36.58
35.44
34.31
33.42
32.84
32.45
31.89
30.75
28.71
25.73
22.07
18.16
14.36
10.79
7.34
3.74
-0.22
-4.6
-9.24
-13.95
-18.55
-22.94
-27.13
-31.17
-35.12
-39.13
-43.45
-48.41
-54.17
-60.58
-66.87
-71.83
-74.12
-72.76
-67.51
-58.96
-48.3
-36.81
-25.46
-14.74
-4.74
4.59
13.23
21.04
27.81
33.44
37.94
41.47
44.14
46.06
47.26
47.75
47.63
47.06
46.23
45.34
44.53
43.85
43.27
42.69
41.93
40.79
39.09
36.76
33.91
30.76
27.64
24.79
22.27
19.92
17.47
14.64
11.35
7.71
4.0
0.46
-2.73
-5.57
-8.2
-10.85
-13.75
-17.05
-20.81
-24.94
-29.26
-33.55
-37.6
-41.34
-44.88
-48.53
-52.69
-57.75
-63.87
-70.8
-77.84
-83.82
-87.42
-87.56
-83.78
-76.42
-66.49
-55.26
-43.86
-32.98
-22.8
-13.22
-4.12
4.54
12.65
20.06
26.69
32.53
37.56
41.76
45.08
47.43
48.81
49.29
49.06
48.31
47.26
46.03
44.74
43.42
42.03
40.53
38.8
36.74
34.28
31.42
28.23
24.87
21.5
18.26
15.15
12.05
8.77
5.09
0.92
-3.69
-8.52
-13.33
-17.87
-22.06
-25.97
-29.81
-33.83
-38.32
-43.52
-49.5
-56.06
-62.59
-68.08
-71.35
-71.37
-67.68
-60.52
-50.81
-39.87
-28.98
-19.06
-10.51
-3.25
3.07
8.82
14.25
19.33
23.87
27.59
30.27
31.87
32.53
32.46
31.88
30.93
29.68
28.19
26.61
25.08
23.8
22.83
22.12
21.51
20.79
19.75
18.24
16.14
13.32
9.64
5.07
-0.31
-6.22
-12.27
-18.08
-23.38
-28.19
-32.69
-37.26
-42.25
-47.92
-54.16
-60.46
-65.9
-69.3
-69.65
-66.42
-59.78
-50.54
-39.81
-28.57
-17.5
-6.89
3.17
12.55
21.04
28.39
34.4
39.07
42.59
45.15
46.93
48.0
48.38
48.09
47.27
46.11
44.87
43.73
42.8
42.03
41.24
40.18
38.61
36.37
33.41
29.86
25.95
21.98
18.17
14.59
11.13
7.55
3.6
-0.83
-5.65
-10.6
-15.35
-19.63
-23.36
-26.66
-29.83
-33.29
-37.47
-42.68
-48.97
-56.05
-63.22
-69.4
-73.39
-74.16
-71.19
-64.67
-55.4
-44.57
-33.32
-22.43
-12.25
-2.77
6.11
14.46
22.17
29.07
35.0
39.88
43.76
46.7
48.8
50.06
50.43
49.91
48.6
46.79
44.87
43.26
42.21
41.7
41.43
40.87
39.58
37.27
34.01
30.11
26.0
22.01
18.31
14.81
11.33
7.62
3.53
-0.93
-5.69
-10.59
-15.5
-20.33
-25.03
-29.62
-34.17
-38.85
-43.93
-49.69
-56.28
-63.5
-70.65
-76.52
-79.75
-79.19
-74.43
-65.96
-55.03
-43.21
-31.81
-21.49
-12.25
-3.69
4.55
12.51
19.88
26.2
31.16
34.68
36.98
38.38
39.13
39.39
39.24
38.72
37.9
36.9
35.81
34.72
33.65
32.52
31.23
29.56
27.35
24.47
20.88
16.66
11.99
7.04
2.0
-3.0
-7.87
-12.56
-17.12
-21.66
-26.42
-31.74
-37.91
-45.03
-52.85
-60.62
-67.21
-71.28
-71.78
-68.29
-61.15
-51.4
-40.27
-28.86
-17.77
-7.19
2.94
12.6
21.58
29.51
36.05
41.12
44.85
47.52
49.41
50.66
51.26
51.24
50.64
49.66
48.54
47.52
46.73
46.09
45.49
44.7
43.53
41.84
39.49
36.48
32.85
28.77
24.51
20.3
16.34
12.6
8.93
5.1
0.9
-3.79
-8.93
-14.37
-19.93
-25.4
-30.7
-35.8
-40.84
-46.1
-51.95
-58.74
-66.55
-74.98
-83.02
-89.22
-92.09
-90.63
-84.68
-75.03
-63.06
-50.23
-37.62
-25.69
-14.46
-3.78
6.43
16.08
24.99
33.03
40.12
46.24
51.33
55.27
57.99
59.47
59.84
59.4
58.54
57.64
57.03
56.9
57.25
57.89
58.44
58.46
57.61
55.78
53.09
49.85
46.38
42.88
39.38
35.78
31.98
27.92
23.64
19.19
14.66
10.07
5.44
0.69
-4.3
-9.62
-15.35
-21.4
-27.58
-33.59
-39.18
-44.21
-48.79
-53.22
-57.97
-63.53
-70.22
-77.99
-86.27
-93.9
-99.38
-101.27
-98.66
-91.53
-80.77
-67.91
-54.54
-41.82
-30.29
-19.87
-10.23
-1.06
7.72
15.96
23.4
29.83
35.13
39.26
42.24
44.09
44.86
44.7
43.86
42.72
41.64
40.88
40.48
40.27
39.9
39.06
37.51
35.21
32.26
28.85
25.1
21.09
16.77
12.08
7.03
1.74
-3.63
-8.87
-13.84
-18.48
-22.91
-27.4
-32.39
-38.27
-45.24
-53.03
-60.83
-67.27
-70.86
-70.39
-65.5
-56.85
-45.71
-33.73
-22.38
-12.58
-4.65
1.62
6.64
10.83
14.42
17.78
21.17
24.53
27.56
29.87
31.21
31.37
30.34
28.18
25.77
24.06
23.66
24.59
26.56
29.08
31.55
33.28
33.71
33.55
33.84
35.18
37.44
40.08
42.4
43.55
42.67
38.99
33.5
27.61
22.33
18.13
15.61
15.83
20.05
29.15
35.5
33.61
22.91
7.35
-8.74
-22.99
-34.57
-43.4
-49.85
-53.09
-52.74
-47.86
-37.99
-23.68
-6.2
12.65
30.89
47.14
56.86
59.37
56.23
49.79
41.98
33.81
25.29
15.82
4.88
-7.48
-19.5
-29.32
-36.2
-40.74
-44.05
-46.88
-49.15
-50.26
-49.72
-46.86
-41.63
-34.44
-25.73
-15.82
-5.26
4.59
11.5
13.15
8.91
0.42
-8.64
-13.83
-11.81
-1.42
16.03
37.76
60.51
81.51
98.39
109.11
112.08
106.63
93.45
74.53
52.35
28.88
4.96
-19.41
-44.1
-67.9
-88.31
-102.43
-108.36
-106.24
-98.34
-88.19
-79.28
-73.9
-72.72
-74.93
-78.85
-82.61
-84.74
-84.52
-82.22
-79.02
-76.6
-76.52
-79.43
-84.71
-90.72
-95.58
-98.23
-98.89
-98.75
-98.96
-99.67
-99.6
-96.67
-89.16
-76.81
-61.15
-44.74
-29.9
-17.59
-7.11
3.21
14.84
28.08
41.84
54.23
63.58
69.22
71.81
72.89
74.12
76.54
80.11
83.98
86.88
87.86
86.66
83.72
79.95
76.2
72.92
70.01
66.96
63.13
58.05
51.65
44.25
36.43
28.85
22.01
16.12
11.02
6.3
1.47
-3.95
-10.22
-17.35
-25.04
-32.65
-39.26
-43.73
-45.03
-42.48
-36.11
-26.6
-15.21
-3.27
8.14
18.43
27.51
35.52
42.65
48.92
54.24
58.44
61.39
63.11
63.7
63.36
62.25
60.58
58.51
56.26
54.09
52.24
50.84
49.85
49.01
47.88
46.08
43.36
39.73
35.49
31.04
26.79
22.97
19.58
16.39
13.04
9.22
4.76
-0.2
-5.34
-10.24
-14.6
-18.4
-21.93
-25.72
-30.34
-36.14
-43.08
-50.56
-57.52
-62.69
-64.88
-63.4
-58.18
-49.81
-39.28
-27.73
-16.22
-5.5
3.98
12.07
18.79
24.32
28.78
32.24
34.73
36.21
36.78
36.6
35.92
34.94
33.73
32.3
30.6
28.73
26.91
25.46
24.62
24.38
24.45
24.3
23.41
21.46
18.44
14.68
10.71
7.03
3.98
1.59
-0.36
-2.25
-4.49
-7.42
-11.26
-16.06
-21.63
-27.45
-32.69
-36.34
-37.51
-35.64
-30.78
-23.5
-14.72
-5.44
3.53
11.64
18.65
24.49
29.27
33.11
36.15
38.4
39.83
40.31
39.81
38.39
36.33
33.98
31.68
29.68
28.07
26.81
25.81
24.93
23.97
22.68
20.77
18.12
14.76
10.96
7.12
3.6
0.52
-2.23
-4.97
-7.97
-11.36
-15.0
-18.66
-22.07
-25.14
-27.95
-30.74
-33.81
-37.43
-41.76
-46.77
-52.16
-57.32
-61.32
-63.15
-62.0
-57.59
-50.27
-40.97
-30.82
-20.86
-11.74
-3.67
3.44
9.78
15.46
20.5
24.83
28.39
31.17
33.19
34.53
35.28
35.55
35.42
34.99
34.33
33.58
32.9
32.44
32.27
32.28
32.17
31.54
30.1
27.79
24.83
21.59
18.41
15.47
12.69
9.95
7.11
4.15
1.18
-1.72
-4.5
-7.27
-10.21
-13.51
-17.22
-21.25
-25.39
-29.36
-33.0
-36.32
-39.48
-42.78
-46.51
-50.9
-55.98
-61.57
-67.21
-72.16
-75.54
-76.5
-74.48
-69.43
-61.8
-52.43
-42.27
-32.17
-22.7
-14.17
-6.67
-0.18
5.37
10.03
13.87
16.92
19.25
20.95
22.13
22.91
23.38
23.54
23.41
22.99
22.37
21.7
21.09
20.59
20.08
19.33
18.14
16.39
14.21
11.8
9.4
7.14
5.0
2.83
0.44
-2.21
-5.1
-8.04
-10.89
-13.53
-15.92
-18.06
-19.95
-21.63
-23.27
-25.17
-27.69
-30.95
-34.61
-37.82
-39.4
-38.36
-34.39
-27.96
-20.16
-12.14
-4.55
2.59
9.71
17.17
24.96
32.48
38.94
43.68
46.51
47.66
47.61
46.78
45.35
43.36
40.77
37.71
34.41
31.21
28.35
25.87
23.58
21.17
18.3
14.77
10.53
5.73
0.58
-4.71
-10.04
-15.48
-21.09
-26.9
-32.76
-38.36
-43.28
-47.2
-49.97
-51.72
-52.8
-53.66
-54.74
-56.4
-58.84
-62.06
-65.78
-69.41
-72.12
-72.99
-71.28
-66.64
-59.29
-49.91
-39.46
-28.86
-18.83
-9.77
-1.8
5.15
11.2
16.5
21.14
25.13
28.43
30.96
32.65
33.5
33.68
33.44
33.09
32.91
33.03
33.45
34.03
34.57
34.83
34.66
33.94
32.65
30.86
28.68
26.35
24.08
22.07
20.38
18.87
17.22
15.12
12.37
9.05
5.47
2.03
-1.01
-3.62
-6.11
-8.84
-12.04
-15.71
-19.56
-23.26
-26.64
-29.8
-33.08
-36.9
-41.54
-47.06
-53.23
-59.6
-65.51
-70.17
-72.75
-72.53
-69.18
-62.84
-54.15
-44.09
-33.64
-23.56
-14.2
-5.65
2.15
9.18
15.31
20.4
24.37
27.3
29.39
30.92
32.04
32.84
33.28
33.34
33.12
32.83
32.69
32.85
33.22
33.51
33.32
32.3
30.32
27.51
24.23
20.92
17.89
15.23
12.82
10.37
7.65
4.53
0.99
-2.86
-6.88
-10.91
-14.83
-18.53
-21.91
-25.06
-28.27
-32.05
-36.91
-43.04
-49.97
-56.61
-61.45
-63.14
-60.91
-54.87
-45.94
-35.36
-24.34
-13.74
-3.98
4.77
12.48
19.09
24.5
28.69
31.71
33.71
34.89
35.51
35.72
35.64
35.3
34.75
34.04
33.34
32.84
32.65
32.71
32.79
32.51
31.54
29.68
26.95
23.51
19.61
15.49
11.31
7.17
3.12
-0.84
-4.74
-8.72
-12.93
-17.47
-22.3
-27.27
-32.22
-37.15
-42.31
-48.03
-54.41
-61.06
-66.95
-70.68
-70.93
-67.03
-59.25
-48.64
-36.68
-24.68
-13.49
-3.48
5.42
13.34
20.4
26.62
31.94
36.29
39.62
41.97
43.43
44.22
44.61
44.81
44.91
44.89
44.71
44.31
43.79
43.24
42.75
42.2
41.38
40.01
37.88
34.97
31.4
27.42
23.28
19.18
15.26
11.55
8.02
4.57
1.0
-2.84
-7.0
-11.42
-15.92
-20.31
-24.46
-28.32
-31.99
-35.61
-39.44
-43.78
-48.95
-55.13
-62.13
-69.24
-75.16
-78.42
-77.78
-72.77
-63.87
-52.33
-39.66
-27.12
-15.4
-4.71
5.03
13.85
21.68
28.36
33.83
38.17
41.53
44.06
45.83
46.82
47.01
46.45
45.32
43.86
42.41
41.21
40.48
40.25
40.36
40.49
40.19
39.1
37.01
34.0
30.33
26.42
22.63
19.16
16.0
12.91
9.54
5.57
0.88
-4.38
-9.77
-14.78
-19.02
-22.45
-25.44
-28.6
-32.59
-37.91
-44.72
-52.77
-61.34
-69.26
-75.05
-77.28
-74.96
-67.91
-56.96
-43.62
-29.68
-16.58
-5.17
4.39
12.33
18.97
24.52
29.02
32.47
34.92
36.49
37.42
37.92
38.21
38.37
38.39
38.18
37.63
36.67
35.36
33.84
32.28
30.83
29.49
28.13
26.54
24.43
21.55
17.76
13.06
7.66
1.85
-4.02
-9.67
-14.99
-20.0
-24.87
-29.75
-34.88
-40.49
-46.83
-53.97
-61.6
-68.83
-74.28
-76.4
-74.05
-66.98
-55.91
-42.36
-28.06
-14.47
-2.4
7.93
16.67
24.09
30.35
35.63
40.07
43.85
47.14
49.94
52.06
53.26
53.32
52.27
50.45
48.4
46.63
45.51
45.04
44.93
44.68
43.8
41.95
39.12
35.59
31.82
28.27
25.17
22.44
19.74
16.61
12.72
8.04
2.83
-2.49
-7.5
-12.13
-16.6
-21.48
-27.46
-35.1
-44.65
-55.82
-67.78
-79.26
-88.85
-95.32
-98.12
-97.47
-94.32
-89.9
-85.19
-80.55
-75.69
-70.0
-62.94
-54.38
-44.7
-34.55
-24.69
-15.77
-8.2
-2.04
3.02
7.67
12.74
18.92
26.49
35.27
44.7
54.21
63.33
71.72
78.98
84.47
87.44
87.35
84.23
78.8
72.3
65.95
60.5
56.02
52.02
47.9
43.23
37.95
32.23
26.23
19.9
12.99
5.18
-3.69
-13.38
-23.27
-32.36
-39.47
-43.51
-43.73
-40.03
-32.95
-23.58
-13.06
-2.36
8.0
17.84
27.01
35.25
42.1
47.12
50.1
51.24
51.1
50.26
49.08
47.54
45.29
41.95
37.38
31.76
25.6
19.6
14.36
10.26
7.33
5.29
3.63
1.82
-0.63
-4.02
-8.41
-13.67
-19.45
-25.32
-30.87
-35.95
-40.72
-45.61
-51.01
-56.99
-62.96
-67.75
-70.0
-68.63
-63.34
-54.68
-43.84
-32.11
-20.54
-9.74
0.02
8.59
15.85
21.67
26.01
29.01
30.95
32.04
32.4
31.98
30.68
28.6
26.1
23.78
22.23
21.84
22.64
24.24
26.05
27.49
28.15
27.89
26.82
25.14
22.98
20.37
17.18
13.3
8.68
3.36
-2.5
-8.77
-15.42
-22.51
-30.16
-38.39
-46.91
-55.15
-62.22
-67.21
-69.3
-68.0
-63.19
-55.21
-44.78
-32.95
-20.91
-9.78
-0.25
7.59
14.18
20.36
26.9
34.15
41.86
49.37
55.89
60.82
63.96
65.41
65.48
64.46
62.64
60.25
57.48
54.43
51.08
47.26
42.81
37.66
32.0
26.24
20.87
16.15
12.07
8.18
3.85
-1.59
-8.53
-17.05
-26.85
-37.35
-47.89
-57.74
-66.26
-73.07
-78.14
-81.96
-85.37
-89.19
-93.68
-98.19
-101.22
-101.01
-96.33
-87.19
-74.86
-61.36
-48.53
-37.33
-27.62
-18.66
-9.71
-0.56
8.46
16.76
24.0
30.15
35.46
40.09
43.92
46.55
47.64
47.21
45.84
44.47
44.1
45.28
47.8
50.74
52.78
52.7
49.9
44.52
37.45
30.02
23.63
19.3
17.21
16.56
15.64
12.38
5.2
-6.23
-20.69
-35.76
-48.78
-57.78
-62.18
-62.69
-60.81
-58.02
-55.27
-52.76
-50.17
-46.93
-42.52
-36.69
-29.57
-21.53
-13.11
-4.78
3.15
10.57
17.46
23.76
29.35
34.04
37.77
40.62
42.82
44.63
46.22
47.56
48.5
48.76
48.16
46.6
44.23
41.34
38.34
35.64
33.45
31.76
30.24
28.4
25.74
21.93
16.98
11.22
5.22
-0.48
-5.51
-9.88
-13.9
-18.06
-22.83
-28.56
-35.34
-43.0
-50.99
-58.44
-64.23
-67.17
-66.36
-61.45
-52.82
-41.44
-28.6
-15.56
-3.23
7.87
17.55
25.76
32.5
37.78
41.65
44.28
45.87
46.65
46.78
46.35
45.45
44.15
42.57
40.91
39.35
37.99
36.87
35.85
34.68
33.07
30.78
27.74
24.07
20.02
15.9
11.92
8.11
4.36
0.4
-4.0
-8.97
-14.45
-20.14
-25.67
-30.65
-34.93
-38.63
-42.22
-46.35
-51.62
-58.24
-65.8
-73.31
-79.34
-82.45
-81.58
-76.36
-67.21
-55.16
-41.53
-27.63
-14.42
-2.46
8.11
17.33
25.33
32.19
37.87
42.34
45.58
47.68
48.78
49.13
48.91
48.28
47.35
46.21
44.95
43.67
42.5
41.49
40.6
39.7
38.51
36.77
34.27
30.98
27.04
22.79
18.51
14.41
10.51
6.65
2.62
-1.75
-6.46
-11.4
-16.39
-21.23
-25.83
-30.14
-34.17
-38.0
-41.77
-45.74
-50.23
-55.56
-61.78
-68.57
-75.11
-80.19
-82.56
-81.25
-75.97
-67.19
-55.92
-43.41
-30.77
-18.76
-7.75
2.09
10.72
18.11
24.23
29.13
32.89
35.68
37.64
38.88
39.53
39.66
39.37
38.74
37.86
36.78
35.54
34.18
32.73
31.18
29.49
27.61
25.52
23.27
20.95
18.64
16.33
13.86
10.99
7.5
3.29
-1.52
-6.65
-11.75
-16.5
-20.76
-24.58
-28.22
-32.09
-36.58
-41.91
-47.92
-53.98
-59.02
-61.78
-61.21
-56.84
-48.95
-38.45
-26.6
-14.62
-3.44
6.4
14.71
21.53
27.0
31.31
34.6
36.98
38.5
39.2
39.18
38.58
37.56
36.25
34.73
33.08
31.41
29.93
28.84
28.22
27.93
27.59
26.75
25.11
22.6
19.45
15.97
12.46
9.02
5.62
2.16
-1.42
-5.13
-8.89
-12.67
-16.46
-20.27
-24.1
-27.89
-31.53
-35.01
-38.45
-42.16
-46.53
-51.88
-58.19
-64.9
-70.91
-74.83
-75.41
-71.98
-64.65
-54.28
-42.14
-29.51
-17.29
-5.98
4.3
13.49
21.53
28.27
33.61
37.52
40.17
41.79
42.66
42.98
42.84
42.34
41.55
40.61
39.72
39.03
38.59
38.27
37.82
36.97
35.54
33.54
31.13
28.51
25.81
23.03
20.06
16.81
13.28
9.61
5.96
2.45
-0.92
-4.27
-7.76
-11.46
-15.36
-19.39
-23.44
-27.42
-31.29
-35.06
-38.75
-42.5
-46.57
-51.3
-56.93
-63.39
-70.02
-75.63
-78.75
-78.12
-73.21
-64.35
-52.7
-39.75
-26.92
-15.11
-4.75
4.16
11.74
18.09
23.26
27.3
30.31
32.45
33.9
34.76
35.05
34.74
33.83
32.38
30.62
28.8
27.15
25.8
24.7
23.69
22.6
21.27
19.62
17.62
15.2
12.28
8.79
4.75
0.31
-4.26
-8.66
-12.68
-16.38
-19.96
-23.78
-28.16
-33.28
-39.14
-45.48
-51.77
-57.2
-60.79
-61.58
-58.9
-52.65
-43.36
-32.08
-20.09
-8.52
1.9
10.93
18.58
24.98
30.12
33.94
36.36
37.5
37.66
37.22
36.56
35.83
35.02
34.06
33.0
32.01
31.31
30.93
30.67
30.1
28.75
26.4
23.17
19.41
15.58
11.92
8.48
5.07
1.46
-2.52
-6.92
-11.7
-16.75
-21.9
-26.92
-31.6
-35.84
-39.75
-43.73
-48.33
-53.95
-60.55
-67.42
-73.28
-76.68
-76.39
-71.87
-63.41
-52.01
-39.03
-25.8
-13.37
-2.36
7.02
14.86
21.4
26.91
31.61
35.63
38.98
41.63
43.59
44.94
45.75
46.11
46.06
45.68
45.12
44.55
44.13
43.8
43.3
42.24
40.31
37.56
34.37
31.32
28.89
27.18
25.88
24.35
21.99
18.43
13.63
7.86
1.51
-5.01
-11.34
-17.26
-22.69
-27.78
-32.9
-38.5
-44.96
-52.27
-59.87
-66.63
-71.14
-72.12
-68.89
-61.65
-51.36
-39.43
-27.24
-15.78
-5.5
3.54
11.5
18.48
24.46
29.3
32.87
35.12
36.15
36.22
35.61
34.61
33.39
32.04
30.61
29.15
27.75
26.51
25.49
24.64
23.81
22.75
21.16
18.85
15.7
11.76
7.23
2.42
-2.31
-6.68
-10.54
-13.99
-17.29
-20.84
-25.08
-30.31
-36.58
-43.53
-50.37
-55.93
-58.95
-58.45
-54.05
-46.09
-35.57
-23.78
-11.96
-1.01
8.59
16.73
23.5
29.01
33.38
36.63
38.77
39.84
39.91
39.13
37.76
36.05
34.24
32.51
30.91
29.44
28.07
26.75
25.45
24.09
22.53
20.53
17.79
14.09
9.37
3.89
-1.85
-7.23
-11.8
-15.48
-18.57
-21.74
-25.7
-30.96
-37.54
-44.89
-51.95
-57.41
-60.03
-59.04
-54.26
-46.19
-35.82
-24.29
-12.62
-1.54
8.5
17.33
24.88
31.13
36.12
39.88
42.45
43.91
44.37
44.0
43.03
41.72
40.3
38.92
37.64
36.48
35.4
34.34
33.18
31.78
29.95
27.61
24.77
21.57
18.16
14.65
11.02
7.2
3.07
-1.36
-5.99
-10.65
-15.16
-19.43
-23.44
-27.28
-31.11
-35.15
-39.63
-44.75
-50.53
-56.62
-62.24
-66.26
-67.49
-65.05
-58.7
-48.94
-36.84
-23.75
-10.92
0.77
10.84
19.18
25.85
31.03
34.9
37.64
39.49
40.7
41.49
42.08
42.54
42.86
42.91
42.57
41.79
40.62
39.23
37.84
36.61
35.58
34.63
33.5
31.94
29.76
26.89
23.43
19.63
15.71
11.87
8.17
4.58
0.97
-2.75
-6.64
-10.64
-14.67
-18.63
-22.42
-26.02
-29.41
-32.7
-36.06
-39.78
-44.19
-49.47
-55.45
-61.47
-66.4
-68.94
-68.02
-63.26
-55.08
-44.58
-33.13
-21.96
-11.78
-2.81
5.09
12.11
18.33
23.68
28.01
31.23
33.36
34.53
34.96
34.81
34.2
33.2
31.88
30.36
28.81
27.39
26.21
25.23
24.32
23.29
21.91
20.08
17.74
14.91
11.63
7.93
3.86
-0.48
-4.89
-9.1
-12.86
-16.01
-18.63
-21.0
-23.54
-26.7
-30.83
-35.92
-41.58
-46.99
-51.02
-52.57
-50.83
-45.62
-37.41
-27.21
-16.26
-5.67
3.78
11.77
18.24
23.35
27.22
29.97
31.72
32.63
32.95
32.96
32.88
32.78
32.58
32.13
31.33
30.23
28.98
27.8
26.81
25.94
24.99
23.66
21.76
19.23
16.2
12.91
9.63
6.53
3.66
0.91
-1.88
-4.88
-8.19
-11.79
-15.58
-19.41
-23.13
-26.66
-29.95
-33.08
-36.27
-39.84
-44.11
-49.25
-55.0
-60.66
-65.06
-66.97
-65.45
-60.21
-51.71
-40.99
-29.35
-17.92
-7.47
1.67
9.47
16.04
21.55
26.09
29.76
32.64
34.82
36.4
37.47
38.1
38.28
37.95
37.08
35.71
34.06
32.48
31.29
30.69
30.56
30.54
30.16
29.1
27.29
24.92
22.33
19.82
17.53
15.42
13.29
10.93
8.2
5.1
1.76
-1.56
-4.65
-7.45
-10.06
-12.68
-15.53
-18.66
-22.0
-25.39
-28.68
-31.84
-34.89
-37.97
-41.23
-44.9
-49.17
-54.18
-59.74
-65.22
-69.6
-71.66
-70.44
-65.58
-57.46
-47.03
-35.47
-23.85
-12.9
-3.05
5.49
12.65
18.4
22.86
26.24
28.79
30.79
32.39
33.65
34.52
34.98
35.0
34.68
34.13
33.51
32.94
32.48
32.13
31.77
31.26
30.47
29.3
27.72
25.75
23.45
20.88
18.1
15.17
12.15
9.13
6.21
3.49
1.01
-1.31
-3.61
-6.1
-8.95
-12.22
-15.83
-19.57
-23.22
-26.62
-29.76
-32.77
-35.89
-39.4
-43.58
-48.5
-53.9
-59.13
-63.18
-64.9
-63.41
-58.39
-50.24
-39.92
-28.68
-17.65
-7.59
1.16
8.56
14.71
19.75
23.79
26.92
29.27
30.97
32.17
32.93
33.29
33.24
32.8
32.04
31.13
30.28
29.64
29.31
29.22
29.17
28.83
27.87
26.09
23.45
20.15
16.52
12.91
9.57
6.56
3.78
1.03
-1.89
-5.12
-8.67
-12.5
-16.49
-20.47
-24.29
-27.89
-31.31
-34.76
-38.56
-43.04
-48.38
-54.46
-60.78
-66.44
-70.33
-71.42
-69.0
-62.98
-53.92
-42.88
-31.08
-19.6
-9.16
-0.05
7.76
14.41
20.08
24.87
28.87
32.1
34.65
36.54
37.83
38.5
38.57
38.08
37.19
36.14
35.21
34.59
34.36
34.38
34.39
34.07
33.18
31.64
29.53
27.02
24.23
21.28
18.18
14.97
11.7
8.44
5.19
1.9
-1.61
-5.47
-9.75
-14.33
-18.96
-23.37
-27.35
-30.88
-34.08
-37.26
-40.82
-45.16
-50.52
-56.82
-63.5
-69.51
-73.5
-74.15
-70.7
-63.18
-52.42
-39.86
-26.98
-14.88
-4.15
5.18
13.3
20.45
26.68
31.93
36.11
39.19
41.28
42.56
43.24
43.51
43.48
43.28
42.96
42.59
42.18
41.74
41.21
40.54
39.68
38.58
37.22
35.62
33.7
31.42
28.69
25.51
21.97
18.25
14.57
11.08
7.83
4.69
1.54
-1.81
-5.45
-9.39
-13.6
-17.99
-22.44
-26.79
-30.93
-34.94
-39.09
-43.81
-49.49
-56.16
-63.24
-69.61
-73.81
-74.55
-71.1
-63.56
-52.8
-40.21
-27.26
-15.16
-4.64
4.12
11.29
17.23
22.24
26.45
29.85
32.36
33.97
34.8
35.07
34.98
34.64
34.06
33.24
32.21
31.05
29.95
29.01
28.27
27.61
26.8
25.59
23.71
21.0
17.4
12.99
7.98
2.68
-2.52
-7.31
-11.52
-15.19
-18.53
-21.97
-25.91
-30.73
-36.56
-43.14
-49.78
-55.33
-58.5
-58.19
-53.89
-45.89
-35.17
-23.12
-11.08
-0.04
9.54
17.55
24.15
29.52
33.8
37.11
39.57
41.27
42.34
42.88
42.95
42.59
41.84
40.76
39.48
38.17
37.03
36.17
35.57
35.01
34.2
32.79
30.57
27.55
23.92
20.03
16.16
12.48
8.87
5.08
0.83
-4.02
-9.35
-14.85
-20.07
-24.73
-28.72
-32.29
-35.91
-40.19
-45.58
-52.16
-59.42
-66.3
-71.37
-73.27
-71.11
-64.79
-55.0
-42.96
-29.96
-17.11
-5.13
5.58
14.83
22.5
28.6
33.26
36.74
39.38
41.45
43.08
44.29
45.01
45.21
44.89
44.14
43.07
41.81
40.54
39.42
38.61
38.08
37.69
37.11
35.96
33.99
31.13
27.5
23.36
19.01
14.73
10.73
7.15
3.95
0.99
-2.01
-5.35
-9.2
-13.52
-18.08
-22.57
-26.76
-30.65
-34.48
-38.62
-43.47
-49.24
-55.8
-62.64
-68.88
-73.36
-74.98
-72.92
-66.99
-57.67
-46.02
-33.38
-21.03
-9.86
-0.29
7.68
14.3
19.84
24.52
28.44
31.61
34.03
35.7
36.62
36.83
36.4
35.46
34.18
32.75
31.33
30.0
28.77
27.55
26.23
24.7
22.86
20.63
17.96
14.78
11.12
7.06
2.77
-1.53
-5.67
-9.56
-13.27
-17.0
-21.03
-25.65
-31.02
-37.1
-43.51
-49.51
-54.13
-56.31
-55.28
-50.74
-43.04
-33.03
-21.8
-10.41
0.35
9.97
18.2
24.95
30.23
34.17
37.0
38.97
40.27
40.98
41.07
40.52
39.38
37.83
36.17
34.68
33.59
32.88
32.4
31.82
30.82
29.16
26.79
23.8
20.41
16.8
13.05
9.14
5.01
0.6
-4.03
-8.79
-13.57
-18.28
-22.8
-27.08
-31.09
-34.94
-38.93
-43.49
-48.99
-55.48
-62.4
-68.61
-72.63
-73.12
-69.37
-61.56
-50.67
-38.16
-25.39
-13.37
-2.58
6.9
15.15
22.29
28.34
33.34
37.36
40.49
42.86
44.58
45.7
46.24
46.23
45.69
44.72
43.41
41.92
40.46
39.2
38.24
37.57
36.96
36.1
34.63
32.34
29.2
25.4
21.27
17.15
13.28
9.76
6.5
3.3
-0.04
-3.7
-7.76
-12.17
-16.83
-21.6
-26.31
-30.87
-35.23
-39.42
-43.6
-48.03
-53.03
-58.82
-65.33
-71.98
-77.69
-81.09
-80.91
-76.47
-67.93
-56.27
-42.98
-29.5
-16.91
-5.73
3.97
12.29
19.37
25.27
30.07
33.91
36.98
39.46
41.37
42.62
43.05
42.57
41.32
39.61
37.88
36.45
35.51
34.93
34.4
33.55
32.06
29.8
26.83
23.33
19.51
15.52
11.41
7.2
2.88
-1.5
-5.84
-9.98
-13.85
-17.48
-21.01
-24.68
-28.79
-33.58
-39.18
-45.47
-51.96
-57.8
-61.83
-62.87
-60.08
-53.27
-43.04
-30.66
-17.62
-5.29
5.51
14.53
21.9
27.94
32.88
36.79
39.67
41.51
42.42
42.59
42.24
41.59
40.74
39.78
38.76
37.77
36.88
36.1
35.33
34.35
32.88
30.73
27.87
24.45
20.76
17.01
13.28
9.48
5.45
1.08
-3.62
-8.5
-13.36
-18.06
-22.54
-26.86
-31.12
-35.51
-40.25
-45.58
-51.6
-58.08
-64.32
-69.17
-71.3
-69.64
-63.77
-54.16
-41.95
-28.61
-15.46
-3.35
7.37
16.65
24.57
31.14
36.37
40.31
43.13
45.06
46.36
47.18
47.59
47.62
47.28
46.63
45.8
44.92
44.11
43.41
42.8
42.14
41.23
39.84
37.78
35.02
31.69
28.03
24.31
20.71
17.25
13.83
10.38
6.89
3.42
0.08
-3.08
-6.12
-9.24
-12.61
-16.36
-20.48
-24.84
-29.22
-33.44
-37.41
-41.2
-45.03
-49.28
-54.28
-60.18
-66.74
-73.19
-78.31
-80.77
-79.47
-73.95
-64.53
-52.22
-38.38
-24.4
-11.37
0.05
9.63
17.47
23.85
29.1
33.54
37.32
40.52
43.04
44.77
45.6
45.54
44.73
43.44
42.0
40.73
39.86
39.44
39.33
39.29
38.97
38.11
