-3.9
-8.36
-12.88
-17.17
-21.09
-24.7
-28.21
-31.91
-36.11
-41.05
-46.82
-53.25
-59.79
-65.53
-69.32
-70.13
-67.4
-61.28
-52.58
-42.54
-32.33
-22.79
-14.25
-6.63
0.32
6.83
12.95
18.64
23.73
28.09
31.67
34.41
36.29
37.22
37.12
35.97
33.89
31.25
28.58
26.41
25.03
24.4
24.14
23.74
22.78
21.15
18.99
16.57
14.09
11.5
8.59
5.03
0.63
-4.56
-10.26
-16.11
-21.88
-27.5
-33.16
-39.03
-45.24
-51.75
-58.4
-65.01
-71.46
-77.67
-83.53
-88.88
-93.51
-97.35
-100.54
-103.33
-105.89
-107.99
-108.9
-107.63
-103.35
-95.83
-85.62
-73.86
-61.93
-51.06
-42.18
-35.95
-32.86
-33.07
-36.13
-40.76
-44.83
-45.82
-41.58
-30.99
-14.19
7.69
33.06
60.18
87.23
112.15
132.7
146.92
153.84
154.08
149.86
144.19
139.79
137.93
138.13
138.62
137.4
133.14
125.66
115.73
104.4
92.43
79.96
66.53
51.54
34.63
15.97
-3.63
-23.04
-41.13
-57.11
-70.83
-82.88
-94.46
-107.03
-121.61
-138.09
-154.87
-169.08
-177.53
-177.86
-169.54
-153.99
-133.9
-112.25
-91.4
-72.76
-56.91
-43.75
-32.52
-21.76
-9.5
6.13
25.84
48.17
69.12
83.27
86.02
76.08
56.75
35.03
18.75
13.13
18.53
30.87
44.11
53.66
58.53
61.08
64.72
71.2
79.2
85.14
85.59
79.68
70.09
61.83
59.83
66.47
80.42
97.03
110.47
116.14
112.46
101.22
86.58
73.22
64.66
62.46
66.44
75.47
88.15
102.9
117.51
128.9
133.35
127.72
110.78
84.19
52.47
21.62
-2.84
-17.65
-22.53
-19.76
-12.87
-5.14
1.33
5.85
8.7
10.51
11.7
12.32
12.11
10.78
8.2
4.51
0.11
-4.43
-8.45
-11.27
-12.32
-11.32
-8.5
-4.65
-0.98
1.3
1.47
-0.44
-3.65
-7.09
-9.91
-11.82
-13.01
-13.83
-14.39
-14.44
-13.47
-11.06
-7.17
-2.24
3.01
7.74
11.22
12.99
12.97
11.55
9.65
8.46
9.12
12.37
18.16
25.73
33.71
40.48
44.51
44.81
41.45
35.77
30.19
27.45
29.33
35.73
44.39
51.77
54.43
50.53
40.42
26.31
11.22
-2.22
-12.49
-19.14
-22.6
-23.74
-23.75
-24.03
-26.08
-30.99
-38.88
-48.61
-58.03
-64.89
-67.87
-67.16
-64.29
-61.17
-59.14
-58.44
-58.49
-58.73
-59.09
-59.99
-61.73
-63.76
-64.56
-62.31
-55.84
-45.34
-32.31
-18.84
-6.61
3.73
12.38
19.9
26.51
31.94
35.62
37.32
37.42
36.87
36.56
36.89
37.56
37.87
37.38
36.3
35.41
35.53
36.92
39.04
40.8
41.17
39.63
36.34
31.83
26.82
22.02
18.2
16.16
16.53
19.32
23.75
28.35
31.59
32.5
31.09
28.18
24.75
21.35
17.78
13.39
7.61
0.46
-7.39
-14.94
-21.5
-27.05
-32.36
-38.49
-46.22
-55.52
-65.33
-73.96
-79.7
-81.53
-79.45
-74.37
-67.57
-60.07
-52.18
-43.55
-33.62
-22.15
-9.64
2.79
13.83
22.51
28.67
32.84
35.9
38.55
40.95
42.71
43.23
42.08
39.35
35.62
31.72
28.36
25.85
24.02
22.38
20.44
17.88
14.75
11.36
8.1
5.23
2.8
0.63
-1.53
-3.88
-6.55
-9.56
-12.8
-16.16
-19.5
-22.69
-25.72
-28.71
-31.84
-35.33
-39.23
-43.3
-46.95
-49.41
-49.96
-48.21
-44.24
-38.56
-31.96
-25.2
-18.84
-13.17
-8.21
-3.88
-0.11
3.1
5.68
7.59
8.85
9.55
9.83
9.82
9.62
9.27
8.82
8.3
7.76
7.27
6.86
6.53
6.31
6.12
5.9
5.5
4.71
3.37
1.39
-1.17
-4.07
-6.99
-9.71
-12.17
-14.55
-17.14
-20.25
-24.02
-28.35
-32.91
-37.15
-40.45
-42.2
-41.92
-39.42
-34.86
-28.76
-21.91
-15.13
-9.04
-3.92
0.26
3.72
6.69
9.2
11.16
12.41
12.91
12.8
12.4
12.05
11.96
12.12
12.31
12.26
11.76
10.81
9.56
8.27
7.15
6.27
5.5
4.63
3.42
1.75
-0.46
-3.12
-6.13
-9.33
-12.52
-15.52
-18.22
-20.61
-22.79
-25.02
-27.58
-30.66
-34.3
-38.28
-42.08
-44.97
-46.17
-45.13
-41.71
-36.28
-29.6
-22.51
-15.72
-9.6
-4.22
0.52
4.73
8.47
11.72
14.48
16.78
18.69
20.21
21.31
21.88
21.82
21.16
20.04
18.75
17.62
16.94
16.8
17.07
17.42
17.42
16.76
15.39
13.48
11.36
9.33
7.52
5.8
3.97
1.79
-0.88
-4.0
-7.46
-11.03
-14.53
-17.8
-20.77
-23.5
-26.19
-29.14
-32.65
-36.88
-41.63
-46.37
-50.26
-52.48
-52.38
-49.78
-44.92
-38.4
-30.94
-23.24
-15.88
-9.29
-3.66
0.94
4.66
7.74
10.45
12.99
15.34
17.38
18.9
19.8
20.11
19.99
19.65
19.28
18.97
18.8
18.76
18.83
18.93
18.94
18.7
18.11
17.14
15.89
14.51
13.14
11.8
10.34
8.61
6.49
4.05
1.46
-1.06
-3.44
-5.82
-8.44
-11.48
-14.95
-18.6
-22.09
-25.23
-28.01
-30.67
-33.56
-36.98
-41.08
-45.87
-51.18
-56.7
-61.88
-65.93
-68.0
-67.37
-63.75
-57.43
-49.19
-40.0
-30.74
-21.94
-13.79
-6.3
0.57
6.77
12.17
16.7
20.36
23.26
25.55
27.34
28.68
29.55
29.92
29.82
29.41
28.88
28.49
28.33
28.35
28.26
27.71
26.42
24.33
21.64
18.71
15.84
13.21
10.77
8.32
5.63
2.53
-1.02
-4.96
-9.09
-13.21
-17.17
-20.89
-24.44
-28.01
-31.89
-36.35
-41.6
-47.58
-53.93
-59.86
-64.25
-65.99
-64.24
-58.82
-50.25
-39.62
-28.16
-16.94
-6.6
2.56
10.53
17.36
23.14
27.96
31.92
35.13
37.67
39.61
40.98
41.82
42.15
42.03
41.52
40.71
39.75
38.86
38.21
37.89
37.76
37.5
36.71
35.03
32.36
28.87
24.94
21.02
17.39
14.09
10.85
7.33
3.22
-1.51
-6.64
-11.79
-16.61
-20.93
-24.88
-28.81
-33.09
-38.08
-44.02
-50.93
-58.6
-66.45
-73.5
-78.48
-80.16
-77.71
-71.06
-60.96
-48.71
-35.73
-23.16
-11.58
-1.17
8.2
16.63
24.16
30.74
36.35
41.04
44.86
47.9
50.18
51.7
52.48
52.61
52.28
51.76
51.28
51.0
50.9
50.83
50.53
49.83
48.61
46.87
44.68
42.13
39.24
36.06
32.57
28.79
24.83
20.8
16.87
13.16
9.69
6.32
2.81
-1.16
-5.84
-11.24
-17.15
-23.19
-28.96
-34.23
-39.1
-43.88
-49.08
-55.14
-62.28
-70.32
-78.6
-85.98
-91.08
-92.6
-89.71
-82.36
-71.27
-57.71
-43.15
-28.79
-15.43
-3.42
7.18
16.41
24.4
31.27
37.21
42.37
46.83
50.52
53.32
55.11
55.91
55.94
55.56
55.08
54.65
54.22
53.55
52.45
50.88
48.97
46.95
44.98
43.0
40.73
37.77
33.81
28.81
23.12
17.3
11.97
7.49
3.81
0.51
-2.99
-7.12
-11.95
-17.17
-22.41
-27.48
-32.52
-37.92
-43.98
-50.77
-58.13
-65.79
-73.39
-80.33
-85.5
-87.23
-83.82
-74.39
-59.61
-41.85
-24.2
-9.08
3.03
13.83
26.26
42.85
64.43
89.67
115.74
139.54
158.62
171.68
178.38
178.98
174.23
165.36
153.84
140.91
127.04
111.92
95.31
78.06
62.51
51.72
47.8
50.29
55.73
59.04
55.72
43.89
24.88
2.17
-20.5
-40.62
-57.26
-70.61
-81.2
-89.45
-95.76
-100.48
-104.24
-107.91
-112.48
-118.77
-127.16
-137.25
-147.69
-156.27
-160.19
-157.36
-147.41
-132.04
-114.22
-96.98
-82.28
-70.29
-59.69
-47.78
-32.75
-14.95
3.02
17.58
25.7
25.9
18.69
6.39
-6.19
-14.84
-17.83
-16.01
-11.3
-5.38
0.77
6.8
12.68
20.79
32.58
47.06
61.53
73.76
83.1
90.06
95.51
100.18
107.7
120.65
138.74
159.53
180.98
202.53
224.44
246.83
248.97
219.15
163.15
99.34
42.86
-0.61
-31.83
-54.06
-70.86
-85.14
-95.31
-99.5
-97.73
-92.13
-84.98
-77.57
-70.98
-65.99
-63.15
-60.28
-55.46
-48.69
-41.51
-35.42
-30.91
-27.89
-26.02
-25.1
-23.4
-19.59
-14.53
-9.89
-7.16
-6.99
-9.36
-13.79
-19.59
-25.28
-29.62
-32.28
-33.61
-34.24
-34.65
-35.15
-35.99
-37.42
-39.42
-42.01
-45.33
-49.45
-54.17
-59.06
-63.66
-67.73
-71.4
-75.25
-80.04
-86.42
-94.47
-103.51
-111.95
-117.62
-118.33
-112.6
-100.24
-82.45
-61.46
-39.75
-19.3
-1.2
14.31
27.42
38.26
46.78
52.79
56.29
57.72
57.92
57.79
58.01
58.79
59.79
60.47
60.23
58.69
55.77
51.83
47.49
43.37
39.86
36.97
34.43
31.67
28.18
23.64
18.13
12.13
6.23
0.95
-3.45
-6.84
-9.53
-12.12
-15.44
-20.16
-26.36
-33.38
-39.78
-43.6
-42.48
-34.99
-21.26
-3.0
17.22
36.71
53.26
65.38
72.56
76.08
77.55
78.24
78.86
79.92
81.73
84.2
86.46
87.63
88.35
89.1
89.55
88.68
85.77
81.01
75.18
69.06
63.69
61.73
64.62
71.72
80.68
89.1
95.74
100.35
103.17
93.05
65.73
26.37
-13.98
-47.56
-73.27
-93.4
-108.1
-119.06
-125.42
-123.7
-112.09
-92.01
-67.22
-42.77
-22.16
-6.99
2.46
7.35
10.5
13.69
16.93
18.89
18.21
14.49
7.8
-1.68
-13.26
-24.98
-35.06
-42.23
-45.88
-45.92
-42.64
-37.13
-30.97
-25.53
-21.26
-18.52
-17.8
-19.38
-22.83
-27.22
-31.91
-36.33
-40.93
-45.05
-48.27
-50.72
-52.94
-55.83
-58.73
-61.72
-64.97
-68.64
-72.41
-75.59
-76.95
-75.07
-68.95
-58.48
-44.8
-29.52
-14.22
0.17
13.17
24.65
34.55
42.63
48.66
52.3
53.66
53.18
51.48
49.04
46.1
42.76
39.01
34.86
30.21
25.04
19.43
13.59
7.82
2.57
-1.68
-4.47
-5.58
-5.09
-3.38
-1.04
1.4
3.55
5.24
6.56
7.59
8.35
8.65
8.28
7.19
5.61
4.04
2.91
2.38
2.12
1.37
-0.8
-5.15
-11.92
-20.71
-30.44
-39.61
-46.6
-50.12
-49.45
-44.62
-36.34
-25.74
-14.06
-2.45
8.29
17.71
25.64
32.16
37.45
41.68
44.98
47.39
48.88
49.42
49.01
47.77
45.92
43.75
41.52
39.45
37.62
36.0
34.44
32.74
30.69
28.19
25.22
21.89
18.37
14.84
11.39
8.03
4.59
0.88
-3.31
-8.02
-13.13
-18.32
-23.23
-27.55
-31.21
-34.45
-37.74
-41.69
-46.76
-53.01
-59.91
-66.38
-70.97
-72.3
-69.57
-62.78
-52.81
-41.08
-29.08
-17.94
-8.2
0.09
7.07
12.86
17.47
20.84
23.01
24.2
24.75
25.0
25.11
25.15
25.01
24.63
23.99
23.18
22.32
21.53
20.87
20.31
19.78
19.08
17.96
16.19
13.63
10.32
6.44
2.24
-2.04
-6.25
-10.31
-14.22
-18.01
-21.8
-25.8
-30.24
-35.27
-40.63
-45.67
-49.31
-50.44
-48.22
-42.53
-33.95
-23.61
-12.78
-2.47
6.73
14.66
21.38
26.99
31.52
34.95
37.28
38.59
39.07
38.91
38.27
37.31
36.12
34.82
33.51
32.25
31.0
29.7
28.24
26.55
24.58
22.31
19.74
16.84
13.62
10.09
6.31
2.3
-1.92
-6.35
-10.9
-15.37
-19.5
-23.01
-25.87
-28.28
-30.66
-33.53
-37.33
-42.27
-48.3
-55.04
-61.72
-67.27
-70.46
-70.22
-65.94
-57.78
-46.6
-33.76
-20.74
-8.75
1.51
9.8
16.28
21.25
25.07
28.0
30.21
31.79
32.78
33.25
33.23
32.7
31.6
29.8
27.31
24.32
21.26
18.65
16.93
16.15
15.95
15.7
14.77
12.88
10.22
7.3
4.68
2.6
0.95
-0.71
-2.8
-5.52
-8.74
-12.1
-15.25
-17.99
-20.37
-22.51
-24.54
-26.47
-28.19
-29.67
-30.93
-32.11
-33.23
-34.11
-34.29
-33.13
-29.98
-24.45
-16.54
-6.61
4.75
16.89
29.24
41.22
52.29
61.9
69.54
74.85
77.76
78.48
77.43
75.15
72.12
68.62
64.71
60.32
55.36
49.85
43.98
38.03
32.33
27.03
22.16
17.61
13.25
9.0
4.82
0.71
-3.36
-7.42
-11.43
-15.34
-19.1
-22.78
-26.54
-30.61
-35.1
-39.86
-44.5
-48.49
-51.38
-52.97
-53.31
-52.67
-51.39
-49.78
-48.12
-46.57
-45.17
-43.73
-41.75
-38.4
-32.78
-24.16
-12.37
2.11
18.21
34.64
50.29
64.44
76.85
87.46
96.21
102.88
107.17
108.85
107.99
104.95
100.23
94.38
87.83
80.9
73.82
66.76
59.83
53.12
46.64
40.34
34.12
27.76
20.95
13.4
4.93
-4.41
-14.34
-24.48
-34.42
-43.9
-52.76
-60.89
-68.16
-74.46
-79.79
-84.37
-88.67
-93.3
-98.74
-105.2
-112.43
-119.7
-125.88
-129.74
-130.17
-126.61
-119.17
-108.63
-96.25
-83.35
-71.05
-60.04
-50.6
-42.62
-35.8
-29.74
-24.08
-18.62
-13.32
-8.38
-3.99
-0.26
2.88
5.74
8.68
12.03
15.9
20.28
25.02
29.91
34.66
38.92
42.25
44.25
44.66
43.48
41.02
37.79
34.4
31.37
28.99
27.32
26.22
25.49
24.92
24.38
23.82
23.25
22.68
22.02
21.09
19.57
17.2
13.92
10.03
6.25
3.48
2.69
4.65
9.56
16.92
25.62
34.39
42.14
48.22
52.26
54.29
54.71
54.09
53.07
52.14
51.54
51.22
50.81
49.38
46.34
41.76
36.45
31.46
27.59
25.17
23.95
23.27
21.29
16.88
10.41
3.39
-2.65
-6.97
-9.9
-12.81
-17.64
-28.53
-47.81
-74.5
-104.77
-134.08
-158.78
-176.67
-187.08
-190.83
-193.67
-200.44
-212.83
-229.36
-247.48
-264.65
-278.29
-286.02
-286.22
-283.22
-280.65
-279.01
-276.35
-271.38
-264.69
-257.7
-251.16
-215.43
-138.75
-34.0
70.42
152.27
203.89
228.48
234.75
233.05
231.95
231.15
227.63
219.22
206.18
190.16
173.31
158.07
145.93
137.15
127.36
113.56
96.56
80.47
69.4
65.39
67.81
74.08
80.87
83.09
78.06
66.78
52.91
39.76
29.42
22.31
17.79
15.09
12.71
10.03
7.4
5.42
3.88
1.83
-1.73
-6.98
-13.03
-18.81
-23.33
-26.07
-27.3
-27.9
-28.77
-30.35
-32.38
-34.11
-34.85
-34.31
-32.66
-30.15
-26.71
-21.74
-14.5
-4.71
6.87
18.53
28.17
34.3
36.65
36.17
34.3
32.15
30.06
27.88
25.51
23.39
22.3
22.78
24.6
26.63
27.34
25.53
20.82
13.76
5.51
-2.51
-8.97
-12.88
-13.76
-11.72
-7.43
-1.75
4.6
11.33
18.48
25.98
33.25
39.12
42.09
40.95
35.27
25.51
12.81
-1.49
-16.16
-30.04
-42.01
-50.76
-55.05
-54.08
-47.95
-37.81
-25.63
-13.58
-3.4
4.04
8.72
11.08
11.72
11.11
9.7
8.08
6.95
7.03
8.65
11.68
15.55
19.46
22.73
24.97
26.25
27.18
28.88
32.76
40.13
51.58
66.68
83.91
101.13
116.23
127.71
134.87
137.59
135.93
129.96
119.75
105.67
88.55
69.67
50.43
31.92
14.73
-1.07
-15.6
-29.01
-41.3
-52.3
-61.75
-69.25
-74.27
-76.27
-74.84
-70.05
-62.58
-53.63
-44.51
-36.24
-29.33
-23.85
-19.65
-16.57
-14.5
-13.31
-12.75
-12.45
-12.01
-11.08
-9.4
-6.82
-3.31
0.89
5.26
9.05
11.53
12.28
11.34
9.1
6.02
2.36
-1.87
-6.8
-12.44
-18.67
-25.21
-31.73
-37.96
-43.59
-48.43
-52.41
-55.83
-59.42
-64.08
-70.47
-78.35
-86.31
-92.02
-93.1
-88.12
-77.31
-62.53
-46.57
-32.02
-20.4
-11.81
-5.32
0.36
6.21
12.61
19.38
26.18
32.73
38.9
44.59
49.6
53.66
56.52
58.16
58.84
59.02
59.22
59.83
61.06
62.92
65.34
68.2
71.39
74.86
78.51
82.15
85.33
87.3
87.18
84.22
78.17
69.46
59.15
48.51
38.53
29.63
21.63
13.99
6.28
-1.64
-9.55
-17.1
-24.12
-30.72
-37.26
-44.19
-51.89
-60.52
-69.92
-79.53
-88.41
-95.28
-98.76
-97.71
-91.65
-80.94
-66.76
-50.81
-34.84
-20.18
-7.57
2.9
11.52
18.7
24.76
29.8
33.75
36.49
37.95
38.17
37.32
35.68
33.6
31.52
29.86
29.06
29.36
30.77
32.92
35.08
36.42
36.25
34.37
31.14
27.27
23.38
19.73
16.1
12.06
7.37
2.15
-3.1
-7.93
-12.14
-16.04
-20.2
-25.23
-31.52
-39.12
-47.75
-56.71
-64.93
-70.93
-73.3
-71.14
-64.63
-55.08
-44.48
-34.85
-27.44
-22.53
-19.48
-17.2
-14.63
-10.99
-5.99
0.37
7.87
16.17
24.78
33.0
39.95
44.68
46.55
45.53
42.46
38.87
36.68
37.51
42.12
50.09
59.87
69.17
75.68
77.66
74.44
66.53
55.42
43.03
31.13
20.87
12.72
6.65
2.3
-0.72
-2.93
-5.01
-7.74
-11.9
-17.97
-25.94
-35.15
-44.47
-52.59
-58.53
-62.03
-63.56
-63.88
-63.52
-62.31
-59.58
-54.72
-47.73
-39.42
-30.93
-22.95
-15.18
-6.56
3.89
16.11
28.59
38.95
45.09
46.27
43.51
38.94
34.62
31.73
30.18
29.05
27.39
24.85
21.86
19.28
17.83
17.65
18.22
18.7
18.38
17.06
15.13
13.26
12.0
11.5
11.43
11.21
10.35
8.64
6.21
3.45
0.71
-1.81
-4.14
-6.43
-8.84
-11.47
-14.25
-17.05
-19.7
-22.11
-24.3
-26.46
-28.83
-31.65
-34.92
-38.33
-41.22
-42.76
-42.25
-39.36
-34.22
-27.27
-19.08
-10.23
-1.31
7.01
13.87
18.41
20.09
18.95
15.72
11.47
7.29
3.76
0.96
-1.39
-3.58
-5.65
-7.38
-8.55
-9.08
-9.18
-9.23
-9.55
-10.28
-11.3
-12.36
-13.26
-13.93
-14.48
-15.07
-15.9
-17.04
-18.55
-20.35
-22.33
-24.38
-26.37
-28.22
-29.98
-31.75
-33.75
-36.19
-39.22
-42.81
-46.7
-50.33
-52.96
-53.82
-52.38
-48.48
-42.4
-34.82
-26.49
-18.12
-10.19
-2.97
3.43
8.96
13.61
17.39
20.34
22.57
24.19
25.32
26.05
26.38
26.31
25.82
24.97
23.85
22.66
21.62
20.87
20.42
20.08
19.6
18.67
17.12
15.0
12.5
9.91
7.46
5.25
3.17
1.04
-1.37
-4.21
-7.5
-11.17
-15.01
-18.8
-22.38
-25.65
-28.7
-31.73
-35.09
-39.08
-43.82
-49.15
-54.49
-59.0
-61.77
-62.05
-59.48
-54.18
-46.69
-37.81
-28.43
-19.29
-10.91
-3.52
2.93
8.61
13.73
18.4
22.58
26.13
28.81
30.47
31.04
30.66
29.6
28.26
27.04
26.34
26.34
27.03
28.11
29.16
29.67
29.29
27.88
25.54
22.56
19.3
16.08
13.07
10.3
7.64
4.85
1.7
-1.94
-6.02
-10.37
-14.78
-19.14
-23.56
-28.35
-33.82
-39.96
-46.26
-51.71
-55.14
-55.57
-52.67
-46.8
-38.87
-29.92
-20.81
-12.06
-3.82
3.89
11.03
17.5
23.09
27.61
30.94
33.13
34.36
34.92
35.06
34.94
34.56
33.81
32.66
31.16
29.54
28.05
26.82
25.74
24.51
22.72
20.12
16.61
12.39
7.81
3.26
-1.0
-4.87
-8.44
-11.95
-15.72
-20.06
-25.21
-31.15
-37.53
-43.62
-48.44
-50.98
-50.49
-46.77
-40.15
-31.47
-21.75
-11.89
-2.58
5.89
13.38
19.86
25.29
29.59
32.75
34.84
36.11
36.8
37.13
37.15
36.75
35.81
34.28
32.27
30.02
27.85
25.99
24.46
23.09
21.55
19.47
16.6
12.88
8.47
3.71
-1.0
-5.41
-9.47
-13.35
-17.36
-21.83
-26.97
-32.83
-39.18
-45.51
-51.02
-54.73
-55.73
-53.47
-47.94
-39.78
-29.99
-19.67
-9.67
-0.46
7.87
15.35
22.02
27.77
32.45
35.93
38.21
39.44
39.84
39.66
39.09
38.28
37.35
36.42
35.53
34.68
33.81
32.8
31.57
30.11
28.46
26.64
24.61
22.23
19.39
16.1
12.48
8.78
5.22
1.87
-1.29
-4.39
-7.54
-10.71
-13.73
-16.3
-17.95
-18.23
-16.83
-13.76
-9.53
-5.09
-1.63
-0.23
-1.62
-5.97
-12.92
-21.59
-30.74
-38.88
-44.62
-46.94
-45.51
-40.73
-33.66
-25.62
-17.81
-11.03
-5.61
-1.53
1.43
3.47
4.8
5.6
6.08
6.48
6.97
7.65
8.48
9.34
10.06
10.57
10.94
11.33
11.89
12.74
13.93
15.41
17.14
18.98
20.71
22.07
22.75
22.57
21.5
19.79
17.78
15.82
14.11
12.6
10.97
8.75
5.52
1.04
-4.55
-10.94
-17.66
-24.24
-30.22
-35.08
-38.25
-39.2
-37.67
-33.84
-28.37
-22.13
-15.85
-9.89
-4.18
1.56
7.49
13.49
19.11
23.82
27.25
29.33
30.32
30.64
30.7
30.74
30.83
30.96
31.22
31.83
33.02
34.84
36.98
38.7
39.12
37.48
33.65
28.16
22.07
16.51
12.22
9.25
7.05
4.74
1.57
-2.75
-8.06
-13.91
-19.85
-25.65
-31.38
-37.3
-43.78
-51.14
-59.5
-68.56
-77.45
-84.76
-88.82
-88.24
-82.49
-72.15
-58.73
-44.19
-30.13
-17.47
-6.26
3.84
13.17
21.73
29.18
35.11
39.29
41.85
43.19
43.74
43.83
43.56
42.87
41.74
40.28
38.73
37.33
36.12
34.77
32.72
29.44
24.78
19.17
13.46
8.51
4.75
1.93
-0.67
-3.82
-7.85
-12.62
-17.71
-22.78
-27.87
-33.24
-39.0
-44.8
-49.83
-53.12
-54.0
-52.3
-48.35
-42.7
-35.93
-28.53
-20.91
-13.42
-6.36
0.16
6.17
11.8
17.19
22.39
27.27
31.63
35.31
38.15
40.14
41.32
41.86
41.96
41.82
41.52
40.93
39.81
37.96
35.37
32.3
29.19
26.41
24.17
22.45
21.17
20.2
19.47
18.84
18.1
16.98
15.25
12.86
9.96
6.82
3.64
0.49
-2.82
-6.54
-10.84
-15.69
-20.86
-26.01
-30.86
-35.25
-39.26
-43.11
-47.1
-51.51
-56.33
-61.1
-64.87
-66.31
-64.13
-57.58
-46.82
-32.95
-17.69
-2.81
10.4
21.42
30.29
37.4
43.07
47.46
50.55
52.35
53.03
52.91
52.38
51.67
50.84
49.72
48.13
45.99
43.45
40.88
38.67
37.08
36.03
35.18
34.01
32.12
29.3
25.72
21.75
17.9
14.56
11.92
9.89
8.18
6.42
4.38
2.01
-0.54
-3.05
-5.39
-7.56
-9.75
-12.19
-15.04
-18.31
-21.83
-25.34
-28.51
-30.99
-32.46
-32.66
-31.46
-28.92
-25.36
-21.28
-17.26
-13.73
-10.94
-8.84
-7.25
-5.98
-4.94
-4.12
-3.51
-3.02
-2.42
-1.45
0.04
2.01
4.22
6.35
8.11
9.35
10.07
10.4
10.54
10.71
11.08
11.78
12.83
14.11
15.39
16.41
16.92
16.8
16.1
14.99
13.77
12.75
12.2
12.31
13.07
14.28
15.55
16.36
16.21
14.75
11.89
7.79
2.84
-2.56
-8.06
-13.43
-18.52
-23.24
-27.46
-31.14
-34.22
-36.7
-38.47
-39.23
-38.53
-35.9
-31.18
-24.71
-17.41
-10.45
-4.95
-1.68
-0.84
-2.17
-5.06
-8.82
-12.74
-16.34
-19.35
-21.68
-23.36
-24.36
-24.53
-23.68
-21.7
-18.79
-15.51
-12.66
-10.97
-10.83
-12.06
-14.06
-16.05
-17.4
-17.87
-17.6
-17.03
-16.65
-16.84
-17.76
-19.39
-21.65
-24.42
-27.61
-31.11
-34.81
-38.6
-42.5
-46.58
-51.0
-55.72
-60.39
-64.27
-66.36
-65.72
-61.78
-54.64
-44.99
-33.89
-22.45
-11.54
-1.62
7.16
14.81
21.38
26.84
31.09
34.1
36.03
37.16
37.92
38.66
39.52
40.37
40.9
40.82
40.04
38.74
37.28
36.0
35.04
34.22
33.17
31.45
28.78
25.17
20.87
16.32
12.03
8.37
5.47
3.2
1.22
-0.94
-3.72
-7.39
-11.99
-17.18
-22.36
-26.64
-29.04
-28.77
-25.44
-19.21
-10.81
-1.35
8.09
16.73
24.32
31.05
37.34
43.48
49.4
54.65
58.6
60.76
61.02
59.71
57.42
54.73
52.04
49.51
47.11
44.82
42.62
40.5
38.3
35.75
32.48
28.32
23.39
18.1
12.91
8.17
3.94
0.03
-3.92
-8.25
-13.06
-18.19
-23.32
-28.25
-32.85
-37.14
-41.22
-45.27
-49.57
-54.27
-59.31
-64.51
-69.53
-73.77
-76.41
-76.69
-74.14
-68.84
-61.13
-51.54
-40.71
-29.44
-18.35
-7.74
2.5
13.07
23.68
33.17
40.3
44.59
46.28
46.27
45.55
44.9
44.33
43.2
40.95
37.62
34.51
32.4
31.97
33.32
35.7
37.45
36.68
32.2
24.05
13.44
2.23
-7.6
-14.76
-17.67
-16.09
-11.02
-4.08
3.23
9.85
15.15
18.74
20.25
19.44
16.47
12.54
10.02
11.74
19.74
33.85
51.26
67.02
75.85
74.12
61.54
41.41
19.11
-0.05
-12.75
-18.14
-17.22
-11.53
-2.5
8.64
20.65
32.09
41.85
49.66
56.23
62.28
67.37
69.2
64.53
50.99
28.81
1.14
-27.27
-52.23
-71.82
-86.49
-97.97
-107.62
-115.51
-120.67
-122.22
-120.26
-116.16
-111.91
-109.04
-107.86
-107.42
-106.12
-102.62
-96.51
-88.38
-79.38
-70.52
-62.12
-53.77
-44.79
-34.75
-23.98
-13.56
-4.91
0.85
3.36
3.28
2.02
1.26
2.41
6.17
12.41
20.33
28.72
36.4
42.47
46.59
48.97
50.26
51.17
52.26
53.73
55.37
56.8
57.56
57.35
56.09
53.93
51.14
48.01
44.76
41.44
38.04
34.52
30.98
27.71
25.02
23.08
21.77
20.62
19.04
16.63
13.41
9.77
6.32
3.47
1.23
-0.76
-2.97
-5.8
-9.27
-13.15
-17.14
-21.05
-24.87
-28.58
-32.02
-34.73
-36.14
-35.81
-33.66
-29.97
-25.23
-19.87
-14.13
-8.19
-2.36
2.86
6.79
8.85
8.81
6.85
3.44
-0.86
-5.61
-10.51
-15.27
-19.57
-23.05
-25.47
-26.77
-27.12
-26.84
-26.11
-24.93
-23.05
-20.16
-16.14
-11.23
-6.03
-1.28
2.41
4.84
6.2
6.94
7.46
7.92
8.15
7.86
6.82
5.07
2.82
0.37
-2.14
-4.75
-7.53
-10.49
-13.44
-16.06
-18.24
-20.16
-22.35
-25.26
-28.84
-32.33
-34.35
-33.51
-29.03
-21.12
-10.93
0.02
10.36
19.32
26.74
32.79
37.68
41.48
44.14
45.69
46.33
46.31
45.84
44.94
43.43
41.12
37.96
34.17
30.17
26.48
23.48
21.3
19.8
18.69
17.6
16.23
14.37
11.96
9.06
5.86
2.57
-0.64
-3.67
-6.57
-9.52
-12.7
-16.28
-20.3
-24.66
-29.13
-33.37
-37.08
-40.11
-42.59
-44.94
-47.72
-51.42
-56.11
-61.26
-65.78
-68.3
-67.64
-63.24
-55.36
-44.96
-33.4
-21.98
-11.64
-2.81
4.47
10.4
15.16
18.89
21.6
23.31
24.1
24.17
23.85
23.46
23.23
23.22
23.3
23.26
22.92
22.27
21.4
20.5
19.64
18.77
17.65
16.0
13.6
10.38
6.46
2.14
-2.23
-6.37
-10.12
-13.53
-16.86
-20.44
-24.63
-29.7
-35.7
-42.34
-48.92
-54.42
-57.69
-57.82
-54.42
-47.8
-38.87
-28.83
-18.82
-9.59
-1.48
5.51
11.49
16.51
20.57
23.65
25.8
27.23
28.19
28.89
29.45
29.85
29.97
29.72
29.14
28.38
27.66
27.16
26.93
26.85
26.71
26.27
25.32
23.76
21.58
18.9
15.9
12.88
10.08
7.68
5.58
3.45
0.79
-2.85
-7.64
-13.34
-19.3
-24.73
-29.04
-32.09
-34.24
-36.1
-38.28
-41.18
-44.86
-49.16
-53.67
-57.78
-60.58
-60.93
-57.8
-50.6
-39.64
-26.14
-11.89
1.35
12.42
21.05
27.7
33.08
37.82
42.16
45.93
48.85
50.64
51.21
50.61
48.95
46.46
43.37
40.08
37.09
34.91
33.89
34.03
34.95
36.01
36.53
36.04
34.43
31.93
28.96
26.02
23.5
21.63
20.47
19.83
19.31
18.35
16.47
13.44
9.44
5.03
0.88
-2.54
-5.17
-7.4
-9.78
-12.72
-16.21
-19.93
-23.41
-26.34
-28.74
-30.9
-33.2
-35.96
-39.39
-43.58
-48.47
-53.84
-59.08
-63.23
-65.09
-63.58
-58.17
-49.11
-37.46
-24.68
-12.3
-1.44
7.34
14.02
19.03
22.96
26.36
29.53
32.5
35.07
36.98
38.07
38.33
37.94
37.14
36.12
35.02
33.93
32.97
32.23
31.75
31.39
30.8
29.53
27.2
23.74
19.41
14.7
10.12
5.92
2.01
-1.92
-6.2
-10.93
-15.93
-20.89
-25.51
-29.76
-33.84
-38.14
-43.06
-48.86
-55.6
-63.04
-70.59
-77.31
-81.95
-83.27
-80.44
-73.4
-62.99
-50.74
-38.4
-27.37
-18.37
-11.39
-5.95
-1.38
2.88
7.24
11.91
16.95
22.25
27.61
32.71
37.26
41.08
44.16
46.68
48.82
50.74
52.48
54.04
55.42
56.61
57.65
58.5
59.05
59.09
58.39
56.77
54.11
50.43
45.86
40.66
35.14
29.65
24.41
19.49
14.78
10.05
5.09
-0.24
-5.96
-12.01
-18.2
-24.38
-30.33
-35.89
-41.02
-45.86
-50.85
-56.44
-62.92
-70.0
-76.74
-81.63
-83.13
-80.2
-72.72
-61.6
-48.41
-34.83
-22.17
-11.1
-1.71
6.26
13.14
19.21
24.63
29.47
33.74
37.36
40.17
41.96
