-21.29
-10.86
0.37
12.52
25.04
36.57
45.18
48.87
46.33
37.57
24.28
9.5
-3.22
-10.99
-12.53
-8.5
-1.04
7.19
13.96
18.02
19.08
17.43
13.58
8.16
2.0
-3.73
-7.72
-8.83
-6.6
-1.47
5.41
12.64
19.07
24.07
27.47
29.24
29.26
27.25
22.93
16.18
7.26
-3.13
-14.0
-24.2
-32.81
-39.44
-44.48
-49.07
-54.83
-63.32
-75.43
-91.1
-109.22
-127.94
-145.1
-158.67
-167.03
-169.19
-164.88
-154.58
-139.42
-120.92
-100.73
-80.24
-60.35
-41.56
-24.08
-8.09
6.11
18.2
28.05
35.92
42.46
48.53
54.78
61.48
68.47
75.33
81.73
87.53
92.78
97.56
101.83
105.32
107.73
108.78
108.41
106.76
104.14
100.95
97.5
93.94
90.19
86.03
81.23
75.67
69.49
62.98
56.53
50.41
44.67
39.13
33.45
27.33
20.6
13.3
5.64
-2.06
-9.55
-16.66
-23.45
-30.1
-36.96
-44.47
-53.06
-62.95
-73.9
-84.95
-94.43
-100.3
-100.79
-95.02
-83.38
-67.4
-49.22
-30.88
-13.81
1.34
14.43
25.56
34.9
42.54
48.71
53.7
57.86
61.47
64.6
67.15
68.96
69.9
69.99
69.42
68.47
67.44
66.58
66.06
65.92
66.1
66.49
67.0
67.57
68.25
69.1
70.13
71.26
72.23
72.69
72.19
70.35
66.92
61.89
55.55
48.38
40.95
33.69
26.86
20.4
14.1
7.73
1.15
-5.59
-12.29
-18.8
-25.06
-31.24
-37.65
-44.72
-52.88
-62.4
-73.26
-84.95
-96.35
-105.78
-111.34
-111.38
-105.11
-92.88
-76.15
-57.01
-37.61
-19.54
-3.63
9.93
21.3
30.65
38.02
43.38
46.77
48.38
48.57
47.74
46.25
44.38
42.35
40.31
38.39
36.62
34.92
33.15
31.11
28.76
26.19
23.56
21.01
18.44
15.57
12.02
7.47
1.91
-4.42
-11.0
-17.28
-22.9
-27.81
-32.33
-37.06
-42.72
-49.91
-58.82
-69.0
-79.32
-88.06
-93.41
-93.95
-89.21
-79.76
-67.03
-52.69
-38.29
-24.76
-12.5
-1.66
7.77
15.75
22.2
26.98
29.74
30.13
28.06
24.12
19.78
17.06
17.78
22.46
29.77
36.85
40.52
38.82
32.03
22.51
13.57
7.82
6.06
7.07
8.48
7.99
4.44
-1.94
-9.83
-17.59
-24.11
-28.94
-32.19
-34.07
-34.61
-33.65
-31.03
-26.83
-21.41
-15.2
-8.43
-0.95
7.6
17.4
28.05
38.35
46.6
51.24
51.69
48.97
45.88
46.3
53.86
70.29
94.08
120.26
141.52
150.62
143.03
118.73
82.46
41.96
5.37
-21.31
-35.56
-38.19
-32.11
-20.84
-7.54
5.33
15.78
22.15
23.2
18.54
8.95
-3.63
-16.62
-27.63
-35.19
-39.22
-40.79
-41.65
-43.47
-47.31
-53.37
-61.09
-69.41
-77.02
-82.66
-85.19
-83.76
-78.03
-68.21
-55.12
-40.01
-24.26
-9.08
4.74
16.79
27.01
35.42
42.1
47.1
50.52
52.56
53.51
53.66
53.26
52.44
51.17
49.32
46.77
43.49
39.62
35.51
31.59
28.25
25.62
23.5
21.4
18.7
14.91
9.88
3.83
-2.72
-9.18
-15.09
-20.28
-24.88
-29.21
-33.62
-38.4
-43.68
-49.4
-55.23
-60.52
-64.29
-65.37
-62.7
-55.76
-44.8
-30.85
-15.47
-0.29
13.41
24.83
33.66
39.87
43.6
45.17
45.1
44.13
43.04
42.38
42.16
41.86
40.6
37.6
32.57
25.96
18.88
12.74
8.78
7.59
8.87
11.48
13.72
13.95
11.01
4.64
-4.52
-15.19
-25.99
-35.82
-44.19
-51.24
-57.5
-63.54
-69.64
-75.57
-80.53
-83.33
-82.76
-78.04
-69.13
-56.79
-42.39
-27.42
-13.12
-0.21
11.04
20.61
28.49
34.62
39.01
41.82
43.43
44.31
44.8
44.97
44.61
43.42
41.19
38.02
34.24
30.36
26.79
23.76
21.17
18.67
15.79
12.05
7.21
1.33
-5.19
-11.73
-17.71
-22.76
-26.88
-30.44
-34.02
-38.27
-43.64
-50.22
-57.59
-64.72
-70.21
-72.55
-70.64
-64.16
-53.69
-40.52
-26.18
-12.01
1.14
12.92
23.24
32.1
39.46
45.26
49.49
52.25
53.75
54.18
53.65
52.17
49.71
46.32
42.19
37.74
33.52
30.04
27.6
26.22
25.62
25.34
24.94
24.04
22.47
20.14
17.1
13.42
9.16
4.34
-1.12
-7.24
-13.93
-20.75
-26.97
-31.73
-34.33
-34.61
-33.11
-30.95
-29.51
-29.94
-32.81
-37.82
-43.91
-49.44
-52.66
-52.19
-47.42
-38.61
-26.88
-13.77
-0.83
10.77
20.42
28.01
33.71
37.8
40.53
42.05
42.47
41.83
40.25
37.93
35.15
32.14
29.14
26.33
23.83
21.66
19.77
18.07
16.5
14.92
12.99
10.5
7.43
3.9
0.05
-4.09
-8.46
-12.97
-17.49
-22.17
-26.96
-31.61
-35.88
-39.88
-44.06
-48.99
-55.11
-62.42
-71.08
-80.2
-88.15
-92.98
-93.4
-89.25
-81.47
-71.64
-61.49
-53.19
-47.48
-43.93
-41.16
-37.93
-33.53
-27.72
-20.48
-6.79
13.77
36.74
55.19
64.81
65.32
59.16
49.91
40.86
34.14
28.17
22.5
16.87
11.7
7.52
4.54
2.56
1.09
-0.64
-4.16
-8.06
-11.66
-14.19
-15.41
-15.77
-16.04
-16.83
-18.29
-20.45
-22.66
-24.63
-26.28
-28.31
-31.94
-38.3
-47.78
-59.61
-72.13
-82.68
-88.73
-88.29
-80.68
-66.98
-49.77
-32.41
-18.21
-9.56
-7.38
-11.47
-20.62
-33.16
-47.19
-60.57
-70.94
-76.06
-74.41
-65.69
-51.21
-33.38
-14.99
1.61
14.96
24.65
31.06
35.12
38.07
41.11
45.23
50.98
58.39
67.15
76.84
87.17
97.95
108.84
119.3
128.46
135.48
139.81
141.39
140.5
137.39
131.95
123.72
112.14
97.1
79.15
59.52
39.68
20.84
3.73
-11.53
-25.11
-37.27
-48.12
-57.64
-65.73
-72.25
-77.03
-79.85
-80.43
-78.59
-74.34
-68.04
-60.36
-52.13
-44.15
-37.0
-30.93
-25.96
-21.93
-18.63
-15.85
-13.36
-10.98
-8.58
-6.16
-3.85
-1.81
-0.15
1.19
2.5
4.17
6.48
9.49
12.97
16.56
19.92
22.9
25.59
28.2
30.9
33.66
36.29
38.48
39.94
40.55
40.3
39.35
37.88
36.04
34.0
31.83
29.57
27.15
24.54
21.75
19.13
17.44
17.72
20.99
27.8
37.88
50.09
62.66
73.76
82.0
86.8
88.36
87.3
84.24
79.56
73.4
65.79
56.86
47.0
36.81
26.88
17.46
8.38
-0.67
-9.93
-19.3
-28.33
-36.45
-43.02
-47.78
-51.12
-53.91
-57.01
-60.88
-65.48
-70.38
-75.02
-78.42
-79.88
-79.42
-77.77
-75.88
-74.51
-74.19
-75.25
-77.78
-80.78
-82.86
-82.96
-80.64
-75.8
-68.47
-58.96
-47.7
-35.24
-20.94
-3.98
15.55
36.63
57.9
78.44
97.72
115.57
125.35
122.06
106.42
84.79
63.77
46.41
32.88
22.12
13.46
6.89
4.02
6.7
14.27
24.09
32.5
36.41
34.07
25.93
13.59
0.29
-11.25
-20.32
-27.71
-35.12
-42.69
-50.16
-56.67
-61.86
-64.81
-64.9
-62.3
-57.82
-52.22
-45.66
-39.77
-33.62
-27.56
-22.47
-19.41
-19.07
-21.17
-24.53
-27.48
-28.98
-26.98
-21.7
-14.25
-6.09
1.54
7.92
12.79
16.17
18.07
18.8
18.33
16.93
15.12
13.5
12.51
12.27
12.66
13.32
14.06
14.51
14.58
14.45
14.36
14.48
14.68
14.62
13.79
11.91
8.8
4.74
0.26
-4.12
-8.11
-11.82
-15.48
-19.37
-23.49
-27.62
-31.38
-34.54
-37.16
-39.61
-42.3
-45.18
-47.68
-48.49
-45.92
-38.58
-25.97
-8.87
10.69
29.84
45.75
56.1
59.86
57.64
51.57
44.84
40.92
42.69
50.02
61.44
73.27
81.01
81.48
73.61
58.12
36.84
12.35
-12.23
-33.54
-49.17
-58.45
-62.53
-63.73
-63.7
-62.04
-56.52
-45.03
-27.84
-8.98
5.38
10.02
3.26
-11.9
-29.44
-43.59
-50.94
-51.21
-46.38
-38.77
-29.49
-18.68
-5.99
8.29
22.65
34.76
42.26
43.79
38.94
30.18
20.8
13.6
9.89
9.24
10.45
12.4
14.71
17.8
22.28
27.89
33.35
37.19
37.84
34.86
29.08
22.23
16.17
12.07
9.8
8.38
6.59
3.72
-0.08
-3.92
-6.82
-8.15
-7.88
-6.71
-5.5
-4.89
-5.12
-6.01
-7.29
-8.99
-11.61
-15.22
-20.08
-26.04
-32.22
-37.15
-39.13
-36.94
-30.33
-20.21
-8.27
3.56
13.89
22.18
28.63
33.73
37.9
41.26
43.65
44.95
45.06
44.15
42.52
40.49
38.24
35.89
33.46
31.02
28.74
26.81
25.39
24.56
24.24
24.13
23.87
23.13
21.68
19.56
16.99
14.32
11.92
10.04
8.72
7.75
6.82
5.61
3.94
1.82
-0.59
-3.11
-5.66
-8.25
-11.0
-14.02
-17.3
-20.74
-24.17
-27.43
-30.42
-33.13
-35.64
-38.1
-40.77
-44.01
-48.17
-53.43
-59.51
-65.58
-70.3
-72.2
-70.14
-63.83
-53.92
-41.79
-29.05
-16.97
-6.21
3.15
11.31
18.42
24.36
28.82
31.53
32.52
32.19
31.08
29.67
28.16
26.49
24.52
22.25
19.97
18.21
17.45
17.93
19.52
21.76
24.05
25.89
27.01
27.45
27.44
27.25
26.9
26.07
24.13
20.42
14.53
6.63
-2.56
-11.93
-20.43
-27.38
-32.63
-36.45
-39.42
-42.24
-45.57
-49.87
-55.24
-61.2
-66.78
-70.81
-72.3
-70.77
-66.38
-59.79
-51.83
-43.33
-34.93
-27.07
-20.04
-13.91
-8.64
-4.13
-0.43
2.23
3.58
3.49
2.21
0.42
-1.03
-1.43
-0.42
1.93
5.33
9.45
14.09
18.99
23.83
28.04
30.96
32.03
31.04
28.24
24.33
20.17
16.53
13.78
11.83
10.16
8.18
5.45
1.84
-2.42
-6.95
-11.31
-15.25
-18.7
-21.77
-24.71
-27.81
-31.4
-35.84
-41.39
-48.13
-55.75
-63.45
-69.93
-73.71
-73.54
-68.83
-59.93
-48.05
-34.82
-21.73
-9.72
0.91
10.33
18.81
26.43
33.05
38.45
42.56
45.54
47.73
49.49
51.07
52.53
53.88
55.1
56.19
57.16
58.0
58.61
58.94
58.98
58.9
58.94
59.34
60.27
61.7
63.45
65.24
66.76
67.74
68.02
67.52
66.16
63.87
60.64
56.57
52.05
47.69
44.21
42.14
41.5
41.76
41.97
41.2
38.9
35.1
30.29
25.12
20.08
15.37
10.79
5.85
-0.16
-7.94
-17.94
-30.17
-43.91
-57.75
-69.74
-77.99
-81.2
-79.27
-73.39
-65.8
-59.12
-55.41
-55.64
-59.39
-65.09
-70.61
-73.85
-73.37
-68.58
-59.83
-48.19
-35.15
-22.2
-10.51
-0.74
6.92
12.56
16.24
17.91
17.43
14.73
10.01
3.84
-2.95
-9.44
-14.91
-18.95
-21.61
-23.32
-24.71
-26.37
-28.65
-31.53
-34.73
-37.92
-40.87
-43.6
-46.25
-49.02
-52.08
-55.5
-59.29
-63.33
-67.15
-69.97
-70.66
-68.13
-61.67
-51.35
-38.06
-23.26
-8.57
4.73
15.88
24.68
31.33
36.21
39.74
42.33
44.25
45.62
46.4
46.45
45.64
43.96
41.6
38.92
36.39
34.42
33.29
33.03
33.45
34.09
34.38
33.79
32.0
29.01
25.15
20.96
16.91
13.23
9.84
6.39
2.48
-2.12
-7.35
-12.83
-18.07
-22.67
-26.47
-29.73
-33.04
-37.17
-42.82
-50.3
-59.25
-68.59
-76.67
-81.59
-81.8
-76.54
-66.1
-51.75
-35.31
-18.63
-3.17
10.25
21.37
30.34
37.47
43.11
47.55
51.05
53.76
55.75
57.04
57.6
57.44
56.61
55.28
53.68
52.06
50.64
49.57
48.84
48.34
47.84
47.06
45.82
44.11
42.01
39.69
37.22
34.55
31.53
28.04
24.09
19.89
15.74
11.95
8.66
5.79
3.09
0.22
-3.07
-6.9
-11.21
-15.77
-20.32
-24.6
-28.48
-31.98
-35.26
-38.62
-42.41
-46.96
-52.49
-58.97
-65.9
-72.37
-77.02
-78.45
-75.54
-67.94
-56.17
-41.52
-25.63
-10.04
4.24
16.83
27.74
37.14
45.07
51.4
55.95
58.69
59.95
60.27
60.22
60.05
59.58
58.38
55.98
52.23
47.43
42.14
36.98
32.28
27.95
23.54
18.45
12.23
4.84
-3.21
-10.95
-17.23
-21.31
-23.3
-24.32
-25.99
-29.71
-35.92
-43.93
-52.3
-59.58
-64.64
-66.72
-64.98
-58.3
-45.64
-26.96
-4.12
19.13
38.32
49.85
52.19
46.06
33.55
17.15
-0.75
-17.74
-31.03
-37.51
-34.42
-20.47
3.43
33.99
66.35
95.28
116.3
126.45
124.49
110.95
88.03
59.17
28.29
-0.98
-25.96
-45.21
-58.31
-65.55
-67.64
-65.53
-60.33
-53.22
-45.24
-37.07
-28.84
-20.29
-11.03
-1.07
9.0
17.93
24.22
26.74
25.13
19.94
12.41
4.02
-3.96
-10.69
-15.81
-19.34
-21.52
-22.75
-23.47
-24.05
-24.68
-25.27
-25.43
-24.65
-22.49
-18.79
-13.7
-7.63
-1.1
5.42
11.58
17.13
21.9
25.78
28.68
30.53
31.26
30.85
29.38
27.06
24.19
21.15
18.27
15.74
13.65
11.95
10.5
9.13
7.61
5.76
3.44
0.56
-2.83
-6.63
-10.67
-14.81
-18.88
-22.68
-26.04
-28.77
-30.72
-31.81
-32.03
-31.43
-30.08
-28.14
-25.85
-23.59
-21.85
-21.18
-22.06
-24.76
-29.14
-34.63
-40.23
-44.78
-47.23
-46.94
-43.8
-38.23
-30.97
-22.79
-14.39
-6.27
1.24
7.91
13.62
18.36
22.19
25.25
27.66
29.52
30.82
31.58
31.82
31.63
31.12
30.46
29.83
29.37
29.14
29.06
28.97
28.62
27.8
26.41
24.5
22.25
19.86
17.47
15.12
12.69
10.04
7.03
3.62
-0.11
-3.98
-7.75
-11.24
-14.39
-17.37
-20.46
-23.97
-28.08
-32.74
-37.68
-42.57
-47.08
-51.09
-54.74
-58.32
-62.26
-66.9
-72.37
-78.43
-84.47
-89.5
-92.42
-92.3
-88.67
-81.63
-71.86
-60.29
-47.89
-35.39
-23.17
-11.45
-0.38
9.71
18.35
24.92
28.93
30.2
28.99
26.0
22.19
18.57
15.91
14.63
14.77
16.09
18.2
20.65
23.04
24.99
26.14
26.17
24.88
22.26
18.43
13.7
8.38
2.68
-3.28
-9.53
-16.05
-22.74
-29.29
-35.22
-40.04
-43.36
-45.09
-45.44
-44.77
-43.47
-41.64
-39.05
-35.13
-29.17
-20.57
-9.06
5.11
21.28
38.4
55.32
70.91
84.18
94.39
101.05
103.99
103.41
99.89
94.35
87.92
81.7
76.53
72.79
70.36
68.76
67.36
65.68
63.5
60.93
58.18
55.44
52.72
49.83
46.53
42.6
38.02
32.9
27.42
21.75
15.97
10.09
4.09
-2.09
-8.54
-15.36
-22.68
-30.54
-38.88
-47.52
-56.27
-65.01
-73.76
-82.64
-91.79
-101.26
-110.82
-119.99
-127.95
-133.7
-136.22
-134.72
-128.94
-119.19
-106.36
-91.6
-76.04
-60.53
-45.63
-31.65
-18.79
-7.2
3.0
11.82
19.36
25.75
31.04
35.23
38.28
40.19
41.06
41.08
40.44
39.32
37.93
36.48
35.19
34.25
33.68
33.34
32.94
32.18
30.91
29.2
27.36
25.79
24.88
24.95
26.13
28.34
31.25
34.4
37.25
39.29
40.11
39.52
37.59
34.51
30.47
25.61
19.94
13.49
6.38
-1.15
-8.76
-15.97
-22.51
-28.49
-34.45
-41.13
-49.11
-58.48
-68.64
-78.2
-84.98
-87.09
-83.76
-75.7
-64.71
-52.95
-42.1
-32.89
-24.94
-16.39
-5.71
7.28
21.22
33.99
43.54
48.48
48.29
43.59
37.16
32.04
30.53
33.84
42.47
56.08
73.3
91.6
108.09
121.97
133.2
142.02
148.71
154.08
159.19
164.93
171.38
167.17
145.36
107.55
62.7
19.42
-17.81
-47.93
-70.94
-89.18
-103.66
-113.22
-117.22
-116.77
-114.73
-112.78
-112.74
-115.61
-121.45
-128.97
-134.78
-135.56
-129.45
-116.73
-99.15
-79.45
-60.4
-44.21
-31.85
-22.41
-14.4
-6.72
0.88
8.12
14.32
18.93
21.6
22.42
22.21
21.81
21.8
22.28
23.11
23.98
24.63
24.9
24.82
24.67
24.62
24.61
24.3
23.29
21.28
18.36
14.87
11.34
8.14
5.33
2.69
-0.16
-3.51
-7.48
-12.1
-17.41
-23.52
-30.52
-38.12
-45.4
-50.98
-53.42
-51.78
-46.05
-37.1
-26.27
-14.79
-3.46
7.38
17.56
26.84
34.76
40.87
44.92
47.09
47.84
47.71
47.09
46.13
44.87
43.39
41.87
40.54
39.59
38.97
38.48
37.79
36.65
34.97
32.74
29.97
26.56
22.36
17.24
11.29
4.92
-1.38
-7.08
-11.95
-16.1
-19.88
-23.78
-28.25
-33.57
-39.81
-46.72
-53.64
-59.5
-62.95
-62.72
-58.04
-49.07
-36.87
-23.13
-9.64
2.3
12.15
20.1
26.86
33.22
39.76
46.7
53.86
60.81
67.02
72.01
75.5
77.42
77.82
76.8
74.48
70.98
66.57
61.7
56.94
52.86
49.8
47.66
45.92
43.81
40.63
36.04
30.12
23.35
16.31
9.5
3.15
-2.7
-8.19
-13.52
-18.87
-24.36
-30.05
-35.86
-41.62
-47.13
-52.25
-56.95
-61.31
-65.44
-69.47
-73.41
-77.26
-80.87
-83.94
-85.94
-86.2
-84.12
-79.4
-72.18
-63.05
-52.75
-41.9
-30.8
-19.51
-8.01
3.58
14.91
25.45
34.69
42.27
48.01
51.96
54.28
55.23
55.16
54.39
53.28
52.06
50.84
49.62
48.3
46.72
44.85
42.7
40.41
38.17
36.06
34.01
31.77
28.93
25.12
20.16
14.13
7.42
0.54
-6.03
-12.01
-17.34
-22.07
-26.3
-30.08
-33.56
-37.06
-41.07
-46.15
-52.49
-59.65
-66.47
-71.34
-72.75
-69.86
-62.78
-52.55
-40.63
-28.42
-16.84
-6.25
3.33
12.0
19.72
26.34
31.64
35.6
38.42
40.57
42.58
44.85
47.42
49.9
51.6
51.87
50.37
47.29
43.27
39.15
35.58
32.76
30.45
28.16
25.44
22.08
18.12
13.81
9.41
5.11
1.0
-2.96
-6.89
-10.94
-15.22
-19.87
-24.98
-30.71
-37.26
-44.68
-52.73
-60.62
-67.08
-70.73
-70.45
-65.91
-57.66
-46.9
-35.04
-23.24
-12.15
-2.01
7.18
15.36
22.41
28.13
32.44
35.35
37.11
38.06
38.56
38.83
38.89
38.58
37.64
35.94
33.59
30.94
28.48
26.64
25.57
25.09
24.82
24.4
23.61
22.44
21.04
19.56
18.11
16.74
15.45
14.2
12.97
11.68
10.22
8.46
6.33
3.85
1.1
-1.83
-4.91
-8.24
-11.94
-16.12
-20.76
-25.7
-30.69
-35.47
-39.85
-43.76
-47.36
-50.92
-54.88
-59.65
-65.36
-71.69
-77.73
-82.14
-83.54
-80.93
-74.14
-63.81
-51.2
-37.66
-24.32
-11.77
-0.2
10.45
20.27
29.25
37.26
44.14
49.69
53.72
56.13
56.93
56.27
54.47
52.01
49.41
47.19
45.74
45.16
45.31
45.81
46.19
46.01
45.02
43.21
40.78
37.98
35.09
32.26
29.61
27.16
24.86
22.63
20.34
17.82
14.93
11.6
7.94
4.18
0.62
-2.5
-5.15
-7.57
-10.2
-13.45
-17.51
-22.19
-27.0
-31.37
-34.92
-37.69
-40.04
-42.55
-45.75
-50.04
-55.54
-62.03
-68.87
-75.04
-79.23
-80.16
-77.0
-69.67
-58.92
-46.18
-33.04
-20.88
-10.51
-2.12
4.56
9.98
14.65
18.87
22.76
26.24
29.11
31.18
32.34
32.62
32.24
31.46
30.59
29.88
29.43
29.25
29.17
28.95
28.34
27.16
25.37
23.06
20.4
17.54
14.54
11.4
8.09
4.58
0.92
-2.84
-6.7
-10.64
-14.68
-18.74
-22.71
-26.51
-30.23
-34.15
-38.67
-44.04
-50.03
-55.84
-60.2
-61.78
-59.7
-53.82
-44.83
-33.93
-22.48
-11.6
-1.97
6.14
12.86
18.43
23.15
27.24
30.81
33.83
36.23
37.92
38.84
39.04
38.64
37.8
36.72
35.61
34.61
33.81
33.2
32.66
32.03
31.13
29.85
28.13
25.96
23.4
20.53
17.4
14.09
10.68
7.25
3.89
0.68
-2.34
-5.19
-7.97
-10.87
-14.09
-17.79
-22.01
-26.55
-31.09
-35.25
-38.8
-41.76
-44.46
-47.41
-51.14
-55.92
-61.59
-67.5
-72.56
-75.52
-75.27
-71.2
-63.37
-52.55
-39.95
-26.9
-14.52
-3.47
6.04
14.1
20.95
26.83
31.87
36.12
39.59
42.27
44.15
45.25
45.63
45.38
44.61
43.51
42.26
41.08
40.18
39.71
39.66
39.9
40.12
40.0
39.26
37.82
35.78
33.34
30.75
28.17
25.68
23.21
20.64
17.87
14.8
11.47
7.99
4.57
1.4
-1.42
-3.95
-6.41
-9.09
-12.2
-15.83
-19.86
-24.04
-28.14
-31.99
-35.6
-39.05
-42.52
-46.22
-50.38
-55.2
-60.71
-66.61
-72.13
-76.12
-77.31
-74.78
-68.3
-58.48
-46.54
-33.85
-21.59
-10.43
-0.64
7.78
14.89
20.74
25.43
29.16
32.18
34.71
36.81
38.41
39.37
39.62
39.24
38.43
37.44
36.44
35.51
34.65
33.84
33.05
32.21
31.17
29.73
27.67
24.9
21.48
17.71
13.98
10.61
7.75
5.29
2.95
0.37
-2.7
-6.31
-10.27
-14.27
-17.96
-21.17
-23.98
-26.7
-29.76
-33.59
-38.34
-43.86
-49.6
-54.68
-58.06
-58.79
-56.25
-50.34
-41.51
-30.68
-18.98
-7.49
2.97
11.95
19.3
25.16
29.73
33.24
35.86
37.69
38.79
39.22
39.06
38.42
37.48
36.34
35.06
33.69
32.24
30.77
29.38
28.15
27.1
26.17
25.17
23.89
22.1
19.71
16.72
13.33
9.77
6.28
3.01
-0.06
-3.11
-6.38
-10.07
-14.26
-18.84
-23.6
-28.27
-32.63
-36.59
-40.17
-43.55
-47.04
-50.99
-55.74
-61.46
-67.98
-74.65
-80.4
-84.0
-84.39
-81.05
-74.16
-64.49
-53.19
-41.37
-29.88
-19.21
-9.54
-0.89
6.81
13.66
19.79
25.3
30.3
34.79
38.82
42.43
45.73
48.83
51.79
54.52
56.84
58.56
59.6
60.09
60.3
60.4
60.35
59.89
58.59
56.2
52.73
48.48
43.92
39.47
35.26
31.13
26.81
22.16
17.25
12.4
7.99
4.35
1.51
-0.93
-3.65
-7.12
-11.39
-16.04
-20.61
-24.96
-29.3
-34.17
-40.18
-47.63
-56.13
-64.85
-72.91
-79.93
-85.92
-90.47
-92.63
-91.16
-85.03
-73.91
-58.45
-40.27
-21.63
-4.67
9.74
21.85
32.47
42.33
51.8
60.9
69.17
75.91
77.67
72.44
61.65
49.76
40.68
35.13
31.33
27.02
21.21
14.66
9.72
8.43
11.03
15.93
20.19
21.5
18.96
13.08
5.12
-3.11
-10.17
-15.66
-20.19
-24.8
-30.22
-36.67
-42.98
-48.1
-50.94
-50.67
-47.05
-40.6
-32.62
-24.97
-19.79
-18.94
-23.21
-31.37
-40.36
-46.47
-46.85
-40.7
-29.38
-15.61
-2.1
9.42
18.55
25.74
31.41
35.48
37.63
37.84
36.85
35.97
36.48
38.93
42.79
46.57
48.5
47.27
42.67
35.69
28.32
22.83
21.08
23.99
31.31
41.75
53.33
63.77
70.75
72.12
66.37
53.14
33.79
11.27
-10.76
-29.08
-42.02
-49.58
-52.92
-53.63
-53.06
-52.11
-51.28
-50.61
-49.52
-46.86
-41.21
-31.69
-18.73
-4.16
9.32
19.39
25.06
26.94
26.73
26.4
27.46
30.67
36.01
42.78
49.72
55.41
58.65
58.81
56.04
51.15
45.37
40.0
36.09
34.27
34.58
36.41
38.56
39.57
38.17
33.67
26.18
16.35
5.1
-6.82
-18.89
-30.83
-42.31
-52.93
-62.19
-69.69
-75.42
-79.73
-83.32
-86.99
-91.36
-96.5
-101.9
-106.51
-109.1
-108.65
-104.68
-97.27
-86.99
-74.72
-61.4
-47.89
-34.81
-22.48
-10.86
0.3
11.14
21.47
30.72
38.13
43.13
45.58
45.83
44.52
42.39
40.19
38.73
38.8
40.89
44.93
50.05
54.93
58.34
59.67
59.03
56.88
53.52
48.84
42.52
34.54
25.46
16.16
7.36
-0.83
-8.82
-17.09
-25.51
-33.34
-39.56
-43.59
-45.76
-47.21
-49.42
-53.53
-59.93
-68.23
-77.32
-85.7
-91.63
-93.52
-90.25
-81.55
-68.18
-51.8
-34.49
-18.14
-3.95
7.63
16.8
24.03
29.82
34.48
38.15
40.8
42.31
42.57
41.59
39.61
37.07
34.48
32.32
30.79
29.82
29.18
28.62
28.08
27.73
27.78
28.28
28.96
29.25
28.47
26.15
22.23
17.1
11.46
6.05
1.42
-2.18
-4.81
-6.87
-9.0
-12.06
-16.86
-23.81
-32.58
-41.91
-49.83
-54.22
-53.58
-47.52
-37.03
-24.03
-10.76
1.06
10.61
18.05
24.16
29.82
35.62
41.67
47.68
53.28
58.21
62.5
66.36
70.0
73.46
76.6
79.11
80.75
81.42
81.13
79.82
77.26
72.97
66.51
57.81
47.49
36.77
27.2
20.08
16.11
15.23
16.83
20.03
23.94
27.77
30.82
32.45
32.22
30.02
26.16
21.28
16.1
11.12
6.39
1.46
-4.34
-11.43
-19.49
-27.26
-32.69
-33.54
-28.32
-16.87
-0.59
17.95
35.93
51.13
62.52
70.21
75.1
78.27
80.55
82.36
83.8
84.8
85.14
84.43
82.11
77.54
70.37
60.75
49.36
37.09
24.57
11.69
-2.4
-18.79
-38.15
-60.1
-83.06
-104.69
-122.52
-134.68
-140.31
-139.65
-133.74
-124.11
-112.35
-99.8
-87.42
-75.78
-65.2
-55.9
-48.01
-41.57
-36.44
-32.39
-29.12
-26.52
-24.8
-24.48
-26.19
-30.52
-37.71
-47.54
-59.19
-71.24
-81.92
-89.56
-93.13
-92.61
-89.01
-83.93
-78.82
-74.4
-70.47
-66.13
-60.39
-52.66
-42.98
-31.96
-20.39
-8.96
1.89
11.94
21.04
28.97
35.39
39.9
42.24
42.49
41.16
39.03
36.93
35.4
34.59
34.27
34.08
33.78
33.33
32.8
32.21
31.46
30.31
28.59
26.31
23.68
20.95
18.27
15.56
12.58
9.03
4.73
-0.42
-6.39
-13.18
-20.8
-29.15
-37.97
-46.86
-55.42
-63.37
-70.64
-77.24
-82.97
-87.28
-89.29
-88.09
-83.15
-74.57
-63.12
-50.04
-36.59
-23.84
-12.42
-2.63
5.5
12.07
17.28
21.35
24.48
26.84
28.55
29.66
30.23
30.3
29.93
29.19
28.16
26.96
25.74
24.66
23.81
23.18
22.61
21.87
20.72
19.01
16.7
13.89
10.73
7.42
4.06
0.66
-2.88
-6.76
-11.07
-15.8
-20.71
-25.44
-29.66
-33.2
-36.21
-39.13
-42.56
-47.04
-52.72
-59.16
-65.35
-69.88
-71.45
-69.24
-63.2
-54.04
-42.95
-31.15
-19.63
-8.96
0.59
8.94
16.11
22.18
27.26
31.55
35.21
38.34
40.96
42.99
44.4
45.18
45.41
45.27
44.97
44.68
44.51
44.47
44.42
44.19
43.56
42.4
40.66
38.37
35.62
32.51
29.16
25.71
22.26
18.86
15.56
12.35
9.23
6.19
3.18
0.14
-3.05
-6.56
-10.55
-15.11
-20.23
-25.77
-31.54
-37.34
-42.98
-48.32
-53.33
-58.09
-62.85
-67.93
-73.54
-79.49
-85.02
-88.83
-89.41
-85.61
-77.12
-64.65
-49.76
-34.32
-19.86
-7.28
3.28
12.11
19.66
26.26
32.07
37.13
41.48
45.2
48.36
50.96
52.93
54.13
54.47
53.99
52.92
51.65
50.61
50.13
50.28
50.86
51.47
51.61
50.92
49.25
46.75
43.73
40.58
37.59
34.84
32.25
29.58
26.61
23.21
19.38
15.21
10.86
6.56
2.44
-1.44
-5.16
-8.96
-13.12
-17.89
-23.28
-29.09
-34.92
-40.43
-45.42
-50.02
-54.61
-59.75
-65.84
-72.93
-80.47
-87.34
-92.03
-93.09
-89.59
-81.46
-69.52
-55.22
-40.21
-25.92
-13.25
-2.58
6.13
13.14
18.84
23.55
27.52
30.81
33.35
34.95
35.44
34.76
33.08
30.73
28.13
25.73
23.79
22.38
21.34
20.33
18.91
16.78
13.82
10.17
6.1
1.85
-2.46
-6.93
-11.71
-16.94
-22.56
-28.27
-33.62
-38.15
-41.61
-44.1
-46.06
-48.25
-51.56
-56.75
-64.12
-73.22
-82.7
-90.48
-94.23
-92.12
-83.45
-68.93
-50.47
-30.49
-11.2
6.01
20.65
32.85
42.95
51.22
57.8
62.83
66.63
69.62
72.21
74.61
76.76
78.37
79.14
78.98
78.15
77.2
76.78
77.31
78.75
80.52
81.72
81.45
79.17
74.88
69.02
62.21
54.98
47.69
40.56
33.73
27.3
21.34
15.8
10.49
5.17
-0.38
-6.26
-12.45
-18.79
-25.03
-30.87
-36.0
-40.17
-43.3
-45.53
-47.29
-49.26
-52.28
-57.1
-63.99
-72.47
-81.14
-87.92
-90.59
-87.56
-78.42
-64.06
-46.39
-27.65
-9.82
5.83
18.81
29.18
37.33
43.74
48.91
53.23
57.02
60.4
63.32
65.56
66.83
66.9
65.72
63.45
60.41
56.94
53.22
49.39
45.53
41.89
38.85
36.78
35.83
35.75
35.96
35.74
34.64
32.7
30.48
28.74
28.09
28.64
29.88
30.9
30.79
28.98
25.4
20.42
14.55
8.19
1.48
-5.58
-12.99
-20.49
-27.67
-34.17
-39.92
-45.35
-51.21
-58.26
-66.74
-76.04
-84.74
-90.86
-92.57
-88.74
-79.41
-65.79
-49.81
-33.58
-18.8
-6.38
3.49
11.17
17.19
22.0
25.8
28.61
30.38
31.15
31.1
30.48
29.57
28.51
27.34
26.01
24.48
22.74
20.89
19.08
17.45
16.02
14.67
13.08
10.85
7.6
3.14
-2.31
-8.23
-13.91
-18.82
-22.81
-26.24
-29.77
-34.17
-39.99
-47.41
-56.18
-65.56
-74.38
-81.21
-84.61
-83.5
-77.54
-67.26
-53.85
-38.87
-23.79
-9.72
2.7
13.23
21.93
29.0
34.77
39.51
43.39
46.41
48.43
49.31
49.07
47.98
46.51
45.19
44.39
44.24
44.64
45.31
45.88
45.98
45.27
43.48
40.55
36.58
31.89
26.92
22.02
17.28
12.57
7.58
2.05
-3.99
-10.22
-16.18
-21.46
-25.96
-29.96
-34.04
-38.86
-44.98
-52.61
-61.45
-70.6
-78.66
-83.95
-84.94
-80.7
-71.27
-57.65
-41.53
-24.83
-9.16
4.4
15.41
23.91
30.32
35.2
39.19
42.79
46.28
49.62
52.55
54.69
55.79
55.82
54.95
53.53
51.92
50.44
49.35
48.8
48.82
49.17
49.48
49.29
48.27
46.32
43.64
40.52
37.24
33.88
30.3
26.31
21.77
16.79
11.65
6.72
2.27
-1.69
-5.39
-9.17
-13.28
-17.73
-22.26
-26.5
-30.16
-33.18
-35.75
-38.27
-41.17
-44.78
-49.36
-55.02
-61.62
-68.63
-75.01
-79.32
-80.04
-76.11
-67.37
-54.69
-39.71
-24.38
-10.33
1.54
11.04
18.53
24.57
29.66
34.12
38.09
41.6
44.69
47.29
49.28
50.43
50.52
49.36
47.05
43.96
40.68
37.84
35.93
35.03
34.84
34.77
34.18
32.7
30.32
27.4
24.45
21.84
19.59
17.39
14.69
11.08
6.45
1.07
-4.5
-9.71
-14.22
-18.09
-21.68
-25.52
-30.14
-35.8
-42.42
-49.45
-55.88
-60.4
-61.71
-58.88
-51.72
-40.94
-27.99
-14.59
-2.26
8.09
16.25
22.51
27.35
31.21
34.3
36.67
38.29
39.09
39.06
