30.87
30.46
29.9
29.3
28.64
27.88
26.93
25.76
24.38
22.87
21.31
19.74
18.13
16.41
14.43
12.0
8.97
5.28
1.02
-3.58
-8.22
-12.6
-16.57
-20.1
-23.34
-26.54
-30.04
-34.15
-38.97
-44.27
-49.33
-53.06
-54.29
-52.23
-46.75
-38.54
-28.79
-18.77
-9.41
-1.1
6.17
12.62
18.39
23.47
27.75
31.1
33.44
34.76
35.09
34.53
33.22
31.41
29.4
27.51
25.99
24.95
24.38
24.17
24.16
24.15
23.92
23.16
21.58
19.01
15.46
11.19
6.59
2.08
-2.09
-5.86
-9.33
-12.69
-16.11
-19.75
-23.74
-28.19
-33.1
-38.25
-43.07
-46.67
-48.02
-46.32
-41.3
-33.42
-23.71
-13.47
-3.86
4.53
11.61
17.68
23.07
27.89
32.04
35.29
37.53
38.79
39.24
39.07
38.4
37.33
36.01
34.62
33.35
32.28
31.31
30.2
28.74
26.84
24.65
22.47
20.59
19.03
17.49
15.36
11.93
6.68
-0.5
-9.21
-18.69
-27.95
-36.17
-42.85
-47.91
-51.65
-54.61
-57.35
-60.3
-63.6
-67.05
-70.08
-71.89
-71.71
-68.99
-63.6
-55.89
-46.5
-36.26
-25.92
-16.07
-7.03
1.02
8.0
13.87
18.54
21.94
24.09
25.08
25.01
23.98
22.05
19.31
16.05
12.78
10.29
9.41
10.85
14.93
21.47
29.89
39.46
49.53
59.76
70.0
80.23
90.17
99.21
106.35
110.45
110.61
106.48
98.48
87.67
75.48
63.08
51.01
38.84
25.34
9.01
-11.21
-35.23
-61.54
-87.39
-109.53
-125.08
-132.35
-131.15
-122.72
-109.24
-93.23
-77.06
-62.49
-50.59
-41.79
-36.06
-33.09
-32.44
-33.59
-35.88
-38.56
-40.84
-42.08
-41.86
-40.12
-37.15
-33.45
-29.59
-25.94
-22.62
-19.44
-16.02
-11.94
-6.96
-1.09
5.34
11.83
17.91
23.25
27.69
31.23
33.92
35.81
36.97
37.54
37.61
37.18
36.07
34.05
31.1
27.62
24.54
23.06
24.23
28.46
35.47
44.4
54.24
64.11
73.23
80.8
85.74
86.83
83.02
73.97
60.33
43.66
25.98
9.2
-5.5
-17.79
-28.11
-37.34
-46.34
-55.57
-64.92
-73.7
-80.85
-85.35
-86.52
-84.32
-79.4
-72.9
-66.19
-60.49
-56.59
-54.73
-54.69
-55.86
-57.56
-59.17
-60.28
-60.73
-60.74
-60.74
-61.28
-62.74
-65.09
-67.73
-69.53
-69.25
-65.88
-59.17
-49.62
-38.3
-26.44
-14.93
-4.18
5.82
15.25
24.21
32.53
39.86
45.84
50.27
53.21
54.95
55.89
56.35
56.5
56.35
55.78
54.71
53.09
51.03
48.71
46.36
44.15
42.15
40.27
38.35
36.21
33.66
30.68
27.26
23.5
19.45
15.19
10.8
6.37
1.98
-2.4
-6.97
-12.1
-18.13
-25.17
-32.83
-40.14
-45.8
-48.57
-47.76
-43.48
-36.57
-28.23
-19.55
-11.2
-3.34
4.12
11.32
18.19
24.48
29.81
33.9
36.65
38.14
38.63
38.38
37.65
36.6
35.34
33.9
32.34
30.81
29.52
28.65
28.27
28.17
27.85
26.65
24.04
19.78
14.16
7.84
1.64
-3.78
-8.19
-11.77
-15.02
-18.45
-22.42
-27.04
-32.2
-37.67
-43.09
-47.86
-51.17
-52.08
-49.78
-43.88
-34.61
-22.77
-9.54
3.94
16.81
28.51
38.67
46.89
52.72
55.73
55.76
53.12
48.64
43.4
38.38
34.14
30.74
27.88
25.26
22.83
20.82
19.6
19.31
19.7
20.17
20.02
18.75
16.29
12.99
9.37
5.86
2.62
-0.48
-3.69
-7.34
-11.6
-16.59
-22.41
-29.13
-36.65
-44.49
-51.69
-56.91
-58.79
-56.44
-49.79
-39.7
-27.62
-15.11
-3.36
7.09
16.23
24.25
31.27
37.15
41.62
44.43
45.56
45.24
43.86
41.83
39.38
36.62
33.6
30.41
27.21
24.19
21.43
18.82
16.11
13.01
9.28
4.91
-0.03
-5.38
-11.07
-17.08
-23.39
-30.0
-36.86
-43.94
-51.22
-58.7
-66.25
-73.63
-80.48
-86.37
-90.99
-94.16
-95.85
-96.01
-94.4
-90.57
-83.99
-74.3
-61.56
-46.34
-29.59
-12.3
4.64
20.59
35.11
47.76
58.06
65.59
70.16
71.93
71.36
69.09
65.66
61.5
56.98
52.57
48.92
46.66
46.17
47.34
49.59
52.13
54.18
55.29
55.21
53.89
51.31
47.55
42.85
37.72
32.81
28.62
25.19
22.05
18.43
13.62
7.38
-0.01
-7.91
-15.77
-23.26
-30.46
-37.61
-45.01
-52.75
-60.65
-68.27
-74.86
-79.58
-81.61
-80.44
-76.07
-69.02
-60.21
-50.57
-40.81
-31.21
-21.75
-12.43
-3.41
4.89
11.97
17.52
21.56
24.51
26.95
29.41
32.15
35.07
37.87
40.22
41.9
42.94
43.49
43.7
43.58
43.03
41.86
39.87
37.03
33.42
29.25
24.74
20.03
15.12
9.81
3.78
-3.38
-11.92
-21.79
-32.48
-43.02
-52.22
-58.91
-62.26
-61.94
-58.06
-51.15
-41.91
-31.11
-19.62
-8.27
2.1
10.83
17.48
21.96
24.51
25.62
25.91
25.92
26.08
26.59
27.5
28.77
30.31
32.05
33.82
35.33
36.14
35.78
33.85
30.25
25.19
19.16
12.74
6.46
0.66
-4.56
-9.27
-13.77
-18.41
-23.59
-29.55
-36.17
-42.83
-48.42
-51.65
-51.45
-47.36
-39.76
-29.72
-18.64
-7.74
2.18
10.85
18.35
24.85
30.41
35.05
38.73
41.53
43.54
44.92
45.72
45.99
45.79
45.23
44.51
43.84
43.26
42.65
41.71
40.08
37.63
34.55
31.39
28.94
27.88
28.38
29.84
30.86
29.55
24.15
13.59
-2.08
-21.54
-42.45
-61.95
-77.24
-86.24
-88.01
-82.93
-72.53
-58.98
-44.46
-30.65
-18.49
-8.23
0.34
7.58
13.92
19.75
25.37
30.94
36.41
41.46
45.68
48.73
50.53
51.28
51.42
51.36
51.3
51.28
51.13
50.6
49.43
47.36
44.19
39.85
34.56
28.91
23.8
20.21
18.79
19.49
21.37
22.78
21.79
16.9
7.63
-5.23
-19.68
-33.08
-42.86
-47.27
-45.9
-39.69
-30.62
-21.0
-12.81
-7.18
-4.27
-3.51
-3.95
-4.77
-5.52
-6.24
-7.32
-9.29
-12.69
-17.94
-25.33
-34.99
-46.74
-60.12
-74.35
-88.45
-101.42
-112.48
-121.1
-127.02
-130.11
-130.23
-127.26
-121.15
-112.06
-100.46
-87.12
-72.94
-58.87
-45.67
-33.92
-23.96
-15.98
-10.07
-6.25
-4.51
-4.74
-6.79
-10.37
-14.99
-19.91
-24.11
-26.44
-25.89
-21.87
-14.48
-4.49
6.87
18.31
28.83
37.89
45.43
51.61
56.61
60.47
63.14
64.58
64.85
64.16
62.78
60.97
58.86
56.5
53.87
50.95
47.78
44.49
41.21
38.07
35.08
32.18
29.2
25.94
22.24
18.05
13.48
8.73
4.07
-0.29
-4.3
-8.1
-12.01
-16.41
-21.63
-27.73
-34.33
-40.57
-45.27
-47.24
-45.7
-40.59
-32.59
-22.91
-12.81
-3.25
5.3
12.81
19.4
25.19
30.11
34.03
36.82
38.43
38.96
38.58
37.55
36.21
34.9
33.91
33.36
33.14
32.96
32.42
31.27
29.48
27.22
24.75
22.26
19.8
17.26
14.51
11.46
8.17
4.75
1.3
-2.15
-5.61
-9.14
-12.66
-16.05
-19.13
-21.82
-24.25
-26.79
-29.97
-34.26
-39.85
-46.37
-52.86
-57.98
-60.37
-59.1
-54.02
-45.77
-35.54
-24.7
-14.34
-5.14
2.69
9.22
14.63
19.13
22.91
26.16
29.02
31.53
33.62
35.19
36.1
36.32
35.92
35.07
33.96
32.81
31.8
31.05
30.58
30.31
30.08
29.66
28.85
27.53
25.75
23.73
21.72
19.9
18.26
16.52
14.26
11.15
7.14
2.59
-1.88
-5.65
-8.38
-10.21
-11.64
-13.32
-15.72
-18.91
-22.64
-26.48
-30.07
-33.29
-36.26
-39.22
-42.44
-46.07
-50.19
-54.79
-59.7
-64.53
-68.54
-70.69
-69.89
-65.42
-57.27
-46.3
-34.0
-21.98
-11.54
-3.21
3.11
7.99
12.06
15.76
19.31
22.73
25.97
28.94
31.53
33.54
34.73
34.89
34.0
32.3
30.23
28.33
26.96
26.23
25.9
25.49
24.55
22.84
20.44
17.69
14.99
12.61
10.56
8.59
6.34
3.53
0.1
-3.75
-7.69
-11.36
-14.57
-17.26
-19.56
-21.76
-24.26
-27.52
-31.87
-37.24
-42.99
-47.9
-50.5
-49.63
-44.84
-36.68
-26.42
-15.62
-5.51
3.21
10.44
16.41
21.41
25.63
29.12
31.82
33.7
34.75
35.0
34.58
33.64
32.39
31.05
29.83
28.86
28.17
27.7
27.25
26.53
25.29
23.37
20.81
17.84
14.78
11.9
9.32
6.92
4.43
1.54
-2.0
-6.25
-11.06
-16.14
-21.12
-25.68
-29.67
-33.12
-36.29
-39.59
-43.44
-48.14
-53.62
-59.34
-64.3
-67.29
-67.18
-63.37
-55.94
-45.68
-33.86
-21.85
-10.8
-1.42
6.05
11.73
16.03
19.4
22.22
24.75
27.09
29.19
30.93
32.18
32.84
32.91
32.46
31.69
30.88
30.33
30.29
30.76
31.51
32.06
31.86
30.5
27.88
24.22
20.02
15.82
11.99
8.68
5.76
3.0
0.14
-3.02
-6.51
-10.29
-14.23
-18.16
-21.91
-25.33
-28.37
-31.16
-33.99
-37.26
-41.35
-46.37
-52.01
-57.46
-61.52
-62.92
-60.75
-54.74
-45.42
-33.96
-21.84
-10.38
-0.45
7.58
13.85
18.72
22.64
25.96
28.95
31.73
34.28
36.44
37.97
38.62
38.31
37.15
35.52
33.91
32.83
32.6
33.32
34.85
36.78
38.5
39.3
38.58
36.04
31.84
26.56
20.95
15.48
10.16
4.54
-1.99
-9.72
-18.36
-27.16
-35.24
-42.06
-47.55
-52.03
-55.87
-59.23
-61.82
-63.13
-62.59
-59.83
-54.76
-47.55
-38.55
-28.26
-17.34
-6.55
3.36
11.83
18.55
23.54
26.99
29.2
30.44
30.99
31.16
31.31
31.73
32.52
33.52
34.24
34.05
32.44
29.23
24.78
19.81
15.32
12.14
10.71
10.9
12.04
13.18
13.51
12.64
10.78
8.53
6.58
5.31
4.59
3.89
2.43
-0.47
-5.19
-11.67
-19.36
-27.33
-34.31
-39.05
-40.49
-38.08
-31.92
-22.75
-11.67
0.06
11.4
21.6
30.31
37.48
43.25
47.91
51.76
55.12
58.23
61.2
63.96
66.27
67.79
68.28
67.73
66.42
64.85
63.57
62.88
62.74
62.76
62.39
61.11
58.61
54.91
50.24
45.03
39.63
34.3
29.13
24.13
19.29
14.62
10.16
5.79
1.31
-3.65
-9.51
-16.56
-24.87
-34.29
-44.4
-54.48
-63.58
-70.57
-74.45
-74.6
-71.1
-64.73
-56.73
-48.46
-41.02
-35.11
-31.1
-29.13
-29.25
-31.41
-35.38
-40.68
-46.64
-52.5
-57.67
-61.78
-64.74
-66.74
-68.06
-68.97
-69.58
-69.71
-68.9
-66.52
-62.02
-55.17
-46.18
-35.62
-24.22
-12.64
-1.34
9.35
19.07
27.32
33.46
36.94
37.58
35.72
32.16
27.85
23.49
19.24
14.71
9.2
2.14
-6.6
-16.55
-26.83
-36.44
-44.65
-51.16
-56.11
-59.86
-62.81
-65.32
-67.61
-69.69
-71.28
-71.8
-70.43
-66.35
-59.08
-48.76
-36.15
-22.46
-8.95
3.34
13.78
22.21
28.72
33.62
37.31
40.24
42.85
45.43
48.06
50.57
52.63
53.9
54.2
53.62
52.44
51.04
49.64
48.27
46.73
44.72
42.05
38.77
35.15
31.54
28.19
25.09
22.0
18.54
14.42
9.56
4.16
-1.42
-6.77
-11.6
-15.8
-19.44
-22.69
-25.78
-28.97
-32.51
-36.58
-41.12
-45.7
-49.46
-51.26
-50.09
-45.4
-37.42
-27.14
-15.89
-4.94
4.89
13.3
20.35
26.19
30.94
34.64
37.31
38.97
39.72
39.64
38.84
37.46
35.71
33.9
32.32
31.16
30.36
29.78
29.19
28.43
27.41
26.09
24.42
22.31
19.74
16.73
13.47
10.17
6.99
3.95
0.86
-2.52
-6.43
-10.91
-15.76
-20.61
-25.08
-28.96
-32.34
-35.65
-39.44
-44.16
-49.88
-56.02
-61.48
-64.89
-65.01
-61.18
-53.57
-43.09
-31.13
-19.14
-8.24
1.03
8.6
14.79
20.02
24.56
28.54
31.89
34.49
36.3
37.41
38.02
38.37
38.63
38.87
39.02
38.99
38.72
38.25
37.71
37.2
36.76
36.28
35.55
34.29
32.24
29.32
25.7
21.72
17.84
14.35
11.23
8.09
4.32
-0.64
-6.97
-14.35
-22.06
-29.3
-35.46
-40.42
-44.4
-47.84
-51.16
-54.63
-58.4
-62.56
-67.14
-71.95
-76.46
-79.73
-80.63
-78.19
-71.97
-62.35
-50.39
-37.54
-25.08
-13.88
-4.21
4.1
11.4
17.93
23.73
28.66
32.55
35.28
36.9
37.58
37.58
37.15
36.56
36.0
35.61
35.41
35.32
35.25
35.07
34.77
34.34
33.73
32.81
31.26
28.72
24.99
20.1
14.44
8.59
3.12
-1.69
-5.89
-9.82
-13.87
-18.27
-23.08
-28.2
-33.62
-39.4
-45.5
-51.55
-56.67
-59.55
-58.97
-54.25
-45.74
-34.7
-22.86
-11.79
-2.36
5.33
11.73
17.37
22.54
27.17
31.0
33.77
35.44
36.15
36.21
35.92
35.52
35.13
34.83
34.67
34.64
34.66
34.58
34.22
33.42
32.06
30.17
27.79
25.06
22.03
18.74
15.16
11.18
6.73
1.85
-3.35
-8.57
-13.54
-18.09
-22.27
-26.37
-30.81
-36.01
-42.21
-49.32
-56.85
-63.92
-69.36
-71.92
-70.64
-65.13
-55.81
-43.76
-30.47
-17.39
-5.55
4.58
13.04
20.13
26.16
31.32
35.67
39.17
41.85
43.82
45.3
46.53
47.67
48.72
49.56
50.03
50.02
49.59
48.87
48.01
47.07
45.99
44.67
42.97
40.88
38.41
35.57
32.32
28.55
24.22
19.4
14.31
9.28
4.55
0.22
-3.8
-7.71
-11.68
-15.77
-19.91
-23.97
-27.81
-31.44
-34.95
-38.53
-42.4
-46.74
-51.63
-57.04
-62.62
-67.73
-71.4
-72.56
-70.35
-64.42
-55.18
-43.65
-31.18
-19.03
-8.08
1.25
8.98
15.28
20.42
24.6
28.05
30.97
33.52
35.75
37.58
38.78
39.1
38.39
36.72
34.42
32.03
30.07
28.9
28.51
28.54
28.43
27.62
25.83
23.1
19.8
16.4
13.27
10.51
7.93
5.14
1.73
-2.51
-7.53
-12.98
-18.42
-23.45
-27.85
-31.72
-35.37
-39.3
-43.97
-49.63
-56.13
-62.8
-68.62
-72.38
-73.12
-70.47
-64.82
-57.28
-49.26
-42.04
-36.33
-32.18
-29.04
-26.05
-22.27
-16.98
-9.7
-0.35
10.75
22.94
35.25
46.6
56.01
62.75
66.48
67.26
65.57
62.2
58.13
54.29
51.28
49.13
47.37
45.25
42.13
37.8
32.54
26.9
21.37
16.22
11.43
6.86
2.36
-2.13
-6.68
-11.5
-16.87
-23.01
-29.73
-36.34
-41.68
-44.53
-44.01
-39.94
-32.89
-23.89
-14.15
-4.66
3.94
11.31
17.37
22.14
25.74
28.34
30.19
31.54
32.65
33.63
34.56
35.35
35.86
35.87
35.24
33.95
32.16
30.25
28.61
27.54
27.07
27.0
26.91
26.39
25.12
23.03
20.33
17.33
14.41
11.71
9.13
6.27
2.64
-2.1
-8.0
-14.68
-21.59
-28.11
-33.85
-38.67
-42.72
-46.3
-49.88
-53.95
-58.84
-64.57
-70.51
-75.42
-77.67
-75.79
-69.03
-57.74
-43.27
-27.56
-12.49
0.65
11.31
19.65
26.16
31.39
35.78
39.58
42.94
45.9
48.43
50.46
51.83
52.38
51.94
50.43
47.87
44.46
40.53
36.44
32.5
28.84
25.47
22.31
19.25
16.2
13.11
9.88
6.46
2.83
-0.83
-4.22
-6.95
-8.78
-9.82
-10.5
-11.57
-13.76
-17.43
-22.4
-27.89
-32.84
-36.25
-37.63
-37.18
-35.75
-34.63
-35.23
-38.65
-45.35
-54.89
-65.83
-75.99
-82.94
-84.69
-80.25
-69.94
-55.22
-38.17
-20.89
-4.99
8.55
19.39
27.59
33.48
37.54
40.35
42.5
44.43
46.4
48.36
50.04
51.07
51.18
50.31
48.59
46.33
43.78
41.05
38.13
34.94
31.41
27.55
23.41
18.96
14.07
8.49
2.08
-5.12
-12.8
-20.48
-27.65
-33.99
-39.46
-44.28
-48.83
-53.37
-57.85
-61.81
-64.49
-65.02
-62.71
-57.36
-49.23
-39.03
-27.66
-16.03
-4.87
5.22
13.78
20.46
25.11
27.82
29.04
29.45
29.81
30.71
32.36
34.54
36.67
37.97
37.78
35.81
32.2
27.63
23.06
19.54
17.89
18.44
20.91
24.54
28.17
30.62
30.96
28.74
24.11
17.76
10.73
3.98
-1.84
-6.64
-10.77
-14.81
-19.26
-24.35
-30.15
-36.56
-43.45
-50.55
-57.32
-62.89
-66.17
-66.16
-62.37
-55.06
-45.18
-33.99
-22.63
-11.88
-2.07
6.67
14.25
20.49
25.24
28.48
30.43
31.52
32.17
32.67
33.07
33.19
32.75
31.52
29.52
27.02
24.55
22.73
22.02
22.43
23.49
24.39
24.37
23.09
20.76
17.98
15.27
12.79
10.21
7.05
3.07
-1.46
-5.84
-9.29
-11.4
-12.36
-12.83
-13.69
-15.65
-19.2
-24.56
-31.73
-40.36
-49.51
-57.55
-62.31
-61.71
-54.58
-41.24
-23.58
-4.52
13.04
27.05
36.84
43.01
46.88
49.82
52.73
55.87
58.94
61.27
62.24
61.38
58.56
53.99
48.02
41.09
33.61
25.95
18.5
11.72
6.07
1.88
-0.91
-2.79
-4.59
-7.19
-11.13
-16.36
-22.28
-28.06
-32.96
-36.7
-39.46
-41.76
-44.16
-47.12
-50.91
-55.6
-61.12
-67.13
-72.9
-77.35
-79.23
-77.49
-71.68
-62.15
-49.97
-36.62
-23.52
-11.69
-1.58
6.88
14.02
20.21
25.65
30.33
34.11
36.82
38.42
38.98
38.73
37.89
36.67
35.25
33.83
32.57
31.61
30.99
30.57
30.11
29.31
27.94
25.94
23.39
20.42
17.15
13.58
9.63
5.23
0.43
-4.58
-9.5
-14.08
-18.23
-22.08
-25.93
-30.19
-35.18
-41.05
-47.6
-54.26
-60.09
-63.94
-64.71
-61.64
-54.65
-44.35
-31.94
-18.9
-6.53
4.31
13.33
20.71
26.81
31.96
36.26
39.64
41.98
43.28
43.68
43.44
42.79
41.9
40.84
39.66
38.49
37.48
36.76
36.36
36.13
35.84
35.22
34.11
32.49
30.45
28.15
25.73
23.25
20.62
17.73
14.5
10.98
7.34
3.85
0.66
-2.18
-4.86
-7.64
-10.72
-14.14
-17.78
-21.47
-25.02
-28.39
-31.64
-34.91
-38.43
-42.45
-47.12
-52.39
-57.85
-62.61
-65.55
-65.56
-61.95
-54.69
-44.52
-32.65
-20.45
-9.07
0.81
8.97
15.53
20.8
25.11
28.74
31.88
34.6
36.88
38.63
39.74
40.13
39.76
38.69
37.06
35.07
33.01
31.15
29.72
28.83
28.41
28.19
27.78
26.77
24.89
22.15
18.81
15.3
12.01
9.15
6.68
4.34
1.86
-1.03
-4.38
-8.13
-12.1
-16.07
-19.82
-23.2
-26.18
-28.85
-31.47
-34.38
-37.97
-42.44
-47.7
-53.22
-58.13
-61.32
-61.82
-59.1
-53.27
-45.05
-35.53
-25.82
-16.83
-9.08
-2.8
2.01
5.48
7.88
9.63
11.25
13.25
15.92
19.13
22.37
24.9
26.03
25.41
23.08
19.36
14.77
9.79
4.91
0.61
-2.55
-4.04
-3.57
-1.29
2.21
6.13
9.7
12.45
14.14
14.55
13.33
10.08
4.62
-2.75
-11.14
-19.38
-26.51
-32.14
-36.52
-40.21
-43.51
-46.15
-47.37
-46.32
-42.53
-36.21
-28.08
-19.11
-10.14
-1.7
5.95
12.66
18.34
22.93
26.47
29.14
31.17
32.77
34.05
35.01
35.63
35.93
35.88
35.46
34.62
33.37
31.92
30.65
29.92
29.89
30.31
30.59
30.06
28.34
25.44
21.78
17.94
14.47
11.77
10.03
9.33
9.61
10.61
11.79
12.49
12.02
10.01
6.5
1.91
-3.09
-7.92
-12.18
-15.77
-18.81
-21.61
-24.58
-28.16
-32.71
-38.27
-44.4
-50.17
-54.33
-55.68
-53.54
-48.01
-39.93
-30.61
-21.32
-13.02
-6.12
-0.55
3.96
7.79
11.21
14.37
17.3
19.94
22.15
23.81
24.82
25.15
24.87
24.15
23.26
22.46
21.98
21.88
22.1
22.43
22.62
22.46
21.83
20.73
19.29
17.66
15.95
14.27
12.62
10.96
9.21
7.28
5.14
2.82
0.41
-2.03
-4.5
-7.09
-9.95
-13.15
-16.68
-20.39
-24.08
-27.54
-30.71
-33.71
-36.8
-40.32
-44.53
-49.47
-54.86
-60.06
-64.13
-66.09
-65.13
-60.96
-53.9
-44.79
-34.79
-24.93
-15.96
-8.18
-1.55
4.11
8.92
12.92
16.07
18.34
19.78
20.57
20.94
21.08
21.15
21.18
21.1
20.84
20.34
19.6
18.69
17.66
16.53
15.29
13.88
12.27
10.52
8.72
6.98
5.33
3.65
1.7
-0.75
-3.82
-7.44
-11.33
-15.12
-18.48
-21.32
-23.86
-26.57
-29.97
-34.35
-39.52
-44.76
-48.99
-51.04
-50.08
-45.85
-38.8
-29.82
-20.06
-10.53
-1.9
5.52
11.74
16.9
21.18
24.68
27.42
29.39
30.6
31.16
31.23
31.0
30.62
30.12
29.39
28.33
26.88
25.13
23.3
21.64
20.31
19.24
18.18
16.76
14.66
11.74
8.07
3.94
-0.31
-4.35
-8.0
-11.19
-13.96
-16.3
-18.24
-19.84
-21.27
-22.85
-24.97
-27.93
-31.78
-36.23
-40.79
-45.05
-48.79
-52.1
-55.17
-58.07
-60.5
-61.78
-61.09
-57.8
-51.71
-43.21
-33.11
-22.41
-12.0
-2.45
6.07
13.62
20.39
26.51
31.98
36.68
40.45
43.2
44.93
45.78
45.99
45.81
45.49
45.21
45.03
44.98
45.02
45.04
44.96
44.71
44.21
43.41
42.25
40.67
38.65
36.18
33.27
30.02
26.6
23.23
20.12
17.44
15.16
13.0
10.54
7.3
3.02
-2.21
-7.93
-13.49
-18.32
-22.16
-25.2
-28.02
-31.35
-35.85
-41.85
-49.16
-56.99
-64.1
-69.01
-70.46
-67.76
-61.02
-51.12
-39.4
-27.28
-15.89
-5.94
2.27
8.72
13.6
17.21
19.95
22.21
24.23
26.04
27.39
27.99
27.63
26.38
24.6
22.71
21.07
19.72
18.52
17.24
15.82
14.35
13.03
11.96
10.96
9.58
7.31
3.78
-0.97
-6.51
-12.15
-17.27
-21.47
-24.81
-27.65
-30.63
-34.36
-39.21
-45.15
-51.67
-57.8
-62.38
-64.24
-62.57
-57.16
-48.48
-37.52
-25.55
-13.82
-3.24
5.66
12.76
18.21
22.31
25.34
27.5
28.94
29.73
29.88
29.38
28.18
26.3
23.89
21.24
18.83
17.15
16.52
16.87
17.69
18.14
17.35
14.76
10.35
4.66
-1.45
-7.11
-11.71
-15.06
-17.35
-18.99
-20.43
-22.03
-23.99
-26.39
-29.2
-32.36
-35.82
-39.53
-43.44
-47.43
-51.17
-54.06
-55.23
-53.71
-48.69
-39.77
-27.22
-11.88
4.98
21.98
38.01
52.3
64.53
74.64
82.78
89.19
94.17
98.13
101.48
104.57
107.57
110.36
112.57
113.72
113.36
111.29
107.57
102.56
96.78
90.79
85.13
80.15
75.95
72.33
68.77
64.58
59.17
52.28
44.13
35.42
27.01
19.6
13.45
8.29
3.48
-1.82
-8.28
-16.19
-25.3
-34.87
-43.89
-51.46
-57.12
-61.08
-64.16
-67.49
-72.03
-78.22
-85.74
-93.54
-100.17
-104.17
-104.43
-100.53
-92.84
-82.36
-70.47
-58.53
-47.5
-37.88
-29.7
-22.72
-16.65
-11.23
-6.31
-1.87
2.04
5.34
7.97
9.92
11.31
12.27
12.99
13.6
14.18
14.76
15.36
15.96
16.58
17.14
17.5
17.45
16.76
15.3
13.0
10.01
6.56
2.92
-0.67
-4.13
-7.48
-10.85
-14.43
-18.4
-22.97
-28.27
-34.26
-40.56
-46.28
-50.22
-51.16
-48.25
-41.45
-31.6
-20.08
-8.46
2.1
10.99
18.19
23.97
28.66
32.48
35.47
37.58
38.76
38.98
38.34
37.03
35.33
33.57
31.97
30.6
29.42
28.27
27.0
25.55
23.94
22.19
20.27
18.12
15.6
12.64
9.21
5.33
1.1
-3.35
-7.87
-12.22
-16.18
-19.63
-22.57
-25.23
-28.05
-31.5
-36.0
-41.65
-48.08
-54.46
-59.55
-62.03
-60.82
-55.47
-46.35
-34.55
-21.63
-9.09
1.98
11.09
18.32
24.08
28.86
33.01
36.67
39.82
42.36
44.21
45.3
45.65
45.28
44.28
42.78
40.96
39.08
37.4
36.1
35.23
34.62
33.93
32.78
30.89
28.18
24.76
20.91
16.91
12.97
9.17
5.5
1.89
-1.68
-5.24
-8.81
-12.41
-16.06
-19.73
-23.39
-27.03
-30.7
-34.59
-38.97
-44.05
-49.79
-55.69
-60.84
-64.09
-64.43
-61.29
-54.72
-45.35
-34.21
-22.48
-11.34
-1.76
5.64
10.73
13.92
16.09
18.2
21.02
24.81
29.32
33.99
38.16
41.36
43.27
43.74
42.71
40.25
36.61
32.25
27.8
23.89
20.99
19.23
18.38
17.88
17.1
15.41
12.46
8.24
3.0
-2.84
-8.9
-14.85
-20.48
-25.57
-29.95
-33.51
-36.35
-38.89
-41.77
-45.71
-51.08
-57.68
-64.66
-70.68
-74.24
-74.1
-69.51
-60.33
-47.03
-30.58
-12.32
6.23
23.59
38.62
50.81
60.31
67.71
73.58
78.07
80.9
81.59
79.94
76.34
71.61
66.64
61.86
57.0
51.29
44.05
35.17
25.47
16.3
9.06
4.53
2.61
2.47
2.94
2.95
1.76
-0.92
-4.98
-10.13
-15.97
-22.16
-28.37
-34.43
-40.3
-46.08
-51.87
-57.64
-63.05
-67.38
-69.71
-69.15
-65.12
-57.65
-47.41
-35.6
-23.62
-12.64
-3.37
4.13
10.25
15.55
20.49
25.19
29.51
33.07
35.42
36.19
35.13
32.25
27.81
22.43
16.92
12.15
8.69
6.65
5.65
5.08
4.32
3.03
1.19
-1.04
-3.5
-6.17
-9.17
-12.65
-16.72
-21.39
-26.57
-32.09
-37.75
-43.27
-48.35
-52.78
-56.54
-59.89
-63.29
-67.19
-71.71
-76.5
-80.61
-82.73
-81.53
-76.09
-66.2
-52.45
-36.11
-18.69
-1.42
15.09
30.92
46.59
62.5
78.44
93.45
106.2
115.53
121.12
123.53
123.95
123.53
123.02
122.67
122.38
122.02
121.43
120.38
118.35
114.56
108.3
99.34
88.16
75.79
63.35
51.58
40.71
30.57
20.92
11.5
2.05
-7.91
-18.92
-31.33
-44.95
-58.9
-71.93
-82.94
-91.55
-98.19
-103.8
-109.17
-114.44
-118.98
-121.67
-121.46
-117.77
-110.7
-100.9
-89.33
-76.98
-64.66
-52.97
-42.26
-32.69
-24.3
-17.03
-10.78
-5.44
-0.98
2.51
4.92
6.24
6.65
6.61
6.64
7.03
7.76
8.54
9.03
9.1
8.91
8.73
8.7
8.67
8.23
6.93
4.49
0.96
-3.4
-8.18
-13.02
-17.55
