-17.55
-21.96
-26.69
-32.12
-38.44
-45.58
-53.12
-60.21
-65.7
-68.38
-67.27
-61.99
-53.03
-41.6
-29.33
-17.69
-7.58
0.86
8.05
14.61
20.93
27.12
32.98
38.19
42.47
45.64
47.6
48.3
47.77
46.14
43.7
40.81
37.84
35.06
32.53
30.17
27.79
25.22
22.37
19.2
15.74
12.02
8.08
3.94
-0.32
-4.69
-9.11
-13.57
-18.07
-22.53
-26.82
-30.81
-34.4
-37.76
-41.28
-45.48
-50.75
-56.99
-63.45
-68.77
-71.45
-70.3
-64.88
-55.7
-44.0
-31.29
-18.9
-7.71
1.92
9.98
16.64
22.1
26.55
30.14
33.03
35.29
36.95
37.99
38.36
38.08
37.23
35.94
34.41
32.78
31.19
29.72
28.4
27.2
25.96
24.46
22.39
19.54
15.9
11.73
7.54
3.88
1.03
-1.13
-3.11
-5.68
-9.5
-14.89
-21.68
-29.26
-36.68
-42.77
-46.41
-46.67
-43.09
-35.81
-25.61
-13.76
-1.65
9.52
19.08
26.83
32.95
37.74
41.43
44.15
45.9
46.66
46.42
45.28
43.42
41.06
38.35
35.37
32.1
28.5
24.62
20.63
16.69
12.94
9.37
5.85
2.28
-1.34
-4.92
-8.38
-11.77
-15.32
-19.29
-23.73
-28.41
-32.81
-36.39
-38.88
-40.45
-41.66
-43.24
-45.83
-49.73
-54.79
-60.4
-65.59
-69.15
-69.91
-67.09
-60.5
-50.66
-38.67
-25.88
-13.57
-2.64
6.44
13.68
19.36
23.87
27.58
30.7
33.27
35.2
36.35
36.69
36.33
35.57
34.7
33.96
33.41
32.9
32.26
31.26
29.65
27.14
23.45
18.48
12.51
6.34
1.04
-2.35
-3.35
-2.28
-0.12
2.0
3.28
3.59
3.37
3.33
4.07
5.79
8.26
10.92
12.98
13.62
12.17
8.24
1.83
-6.56
-15.96
-24.95
-31.98
-35.67
-35.35
-31.2
-24.27
-16.05
-7.9
-0.59
5.81
11.66
17.26
22.61
27.37
31.15
33.74
35.19
35.74
35.54
34.65
33.01
30.65
27.75
24.7
21.96
19.94
18.81
18.43
18.38
18.12
17.18
15.37
12.9
10.22
7.83
5.96
4.44
2.78
0.41
-3.06
-7.64
-12.91
-18.23
-22.95
-26.66
-29.33
-31.29
-33.16
-35.65
-39.33
-44.5
-50.93
-57.86
-64.11
-68.35
-69.41
-66.67
-60.21
-50.81
-39.71
-28.23
-17.46
-8.04
-0.12
6.45
11.97
16.69
20.74
24.12
26.84
28.89
30.35
31.33
31.94
32.22
32.14
31.59
30.45
28.69
26.42
23.88
21.31
18.89
16.62
14.35
11.88
9.15
6.19
3.2
0.38
-2.17
-4.47
-6.7
-9.08
-11.79
-15.02
-18.88
-23.46
-28.72
-34.39
-39.88
-44.37
-46.97
-47.05
-44.43
-39.42
-32.58
-24.49
-15.65
-6.46
2.61
10.93
17.81
22.75
25.59
26.62
26.32
25.22
23.65
21.82
19.86
17.97
16.36
15.23
14.62
14.44
14.46
14.47
14.23
13.57
12.36
10.56
8.25
5.6
2.83
0.11
-2.53
-5.13
-7.75
-10.46
-13.23
-16.07
-19.02
-22.16
-25.56
-29.16
-32.8
-36.24
-39.33
-42.19
-45.2
-48.93
-53.82
-59.87
-66.4
-72.13
-75.55
-75.35
-70.94
-62.65
-51.66
-39.57
-27.83
-17.37
-8.38
-0.6
6.39
12.89
18.98
24.59
29.72
34.5
39.14
43.76
48.29
52.48
56.11
59.17
61.89
64.64
67.64
70.84
73.91
76.51
78.42
79.63
80.18
80.06
79.08
77.0
73.76
69.54
64.78
59.9
55.08
50.08
44.43
37.67
29.68
20.72
11.33
2.03
-6.85
-15.37
-23.84
-32.67
-42.23
-52.67
-63.85
-75.34
-86.42
-96.05
-103.04
-106.27
-104.98
-99.13
-89.47
-77.41
-64.59
-52.45
-41.82
-32.89
-25.3
-18.59
-12.35
-6.5
-1.13
3.64
7.78
11.39
14.67
17.74
20.65
23.36
25.82
27.99
29.81
31.2
32.05
32.25
31.79
30.77
29.35
27.71
25.98
24.17
22.17
19.66
16.16
11.17
4.38
-4.12
-13.81
-24.05
-34.51
-45.43
-57.46
-71.06
-85.85
-100.39
-112.6
-120.61
-123.44
-121.25
-115.05
-106.13
-95.77
-85.17
-75.66
-68.55
-64.74
-64.23
-65.75
-67.16
-66.25
-61.78
-53.98
-44.44
-35.17
-27.76
-22.76
-19.55
-16.86
-13.32
-8.05
-0.77
8.24
18.46
29.3
40.21
50.63
59.96
67.61
73.16
76.5
77.88
77.76
76.52
74.28
70.79
65.48
57.79
47.64
35.53
22.71
10.77
1.18
-5.18
-8.17
-8.31
-6.37
-3.01
1.33
6.42
11.87
17.08
21.2
23.43
23.43
21.48
18.46
15.45
13.35
12.65
13.32
14.92
16.9
18.7
19.87
20.14
19.4
17.8
15.64
13.33
11.22
9.48
8.09
6.88
5.71
4.56
3.54
2.83
2.46
2.27
1.81
0.49
-2.19
-6.23
-10.98
-15.11
-17.0
-15.32
-9.55
-0.25
11.22
23.17
34.27
43.8
51.65
58.06
63.24
67.26
70.06
71.61
71.99
71.38
69.97
67.92
65.31
62.08
58.17
53.52
48.16
42.23
36.06
30.01
24.47
19.64
15.48
11.77
8.09
4.06
-0.61
-5.94
-11.75
-17.64
-23.18
-28.05
-32.19
-35.78
-39.16
-42.74
-46.82
-51.49
-56.51
-61.3
-64.94
-66.34
-64.63
-59.46
-51.28
-41.21
-30.68
-20.84
-12.25
-4.82
1.88
8.23
14.29
19.78
24.34
27.73
29.99
31.37
32.12
32.37
32.08
31.15
29.54
27.4
25.09
23.02
21.53
20.7
20.31
19.91
18.97
17.08
14.09
10.19
5.77
1.3
-2.91
-6.75
-10.36
-14.1
-18.37
-23.43
-29.23
-35.3
-40.72
-44.44
-45.49
-43.35
-38.13
-30.55
-21.64
-12.49
-3.89
3.75
10.36
16.02
20.87
24.94
28.19
30.55
31.98
32.57
32.49
32.01
31.32
30.56
29.71
28.64
27.22
25.42
23.35
21.25
19.35
17.77
16.43
15.07
13.33
10.89
7.64
3.68
-0.65
-4.93
-8.8
-12.07
-14.83
-17.39
-20.2
-23.68
-28.07
-33.28
-38.81
-43.78
-47.15
-47.94
-45.54
-39.96
-31.87
-22.44
-13.02
-4.72
1.91
6.94
10.93
14.57
18.36
22.38
26.34
29.81
32.44
34.13
35.02
35.39
35.45
35.21
34.45
32.9
30.39
27.0
23.11
19.28
15.94
13.28
11.14
9.18
7.08
4.68
2.13
-0.39
-2.68
-4.77
-6.81
-8.94
-11.17
-13.34
-15.22
-16.65
-17.66
-18.52
-19.63
-21.38
-24.02
-27.55
-31.69
-35.89
-39.34
-41.2
-40.67
-37.3
-31.14
-22.75
-13.08
-3.23
5.91
13.86
20.54
26.18
31.11
35.62
39.85
43.8
47.37
50.31
52.36
53.2
52.62
50.55
47.16
42.82
38.04
33.28
28.84
24.78
21.01
17.34
13.7
10.11
6.78
3.85
1.33
-0.99
-3.49
-6.52
-10.24
-14.53
-19.05
-23.4
-27.26
-30.49
-33.14
-35.35
-37.34
-39.32
-41.55
-44.27
-47.57
-51.25
-54.75
-57.24
-57.81
-55.82
-51.13
-44.1
-35.53
-26.35
-17.38
-9.23
-2.2
3.59
8.14
11.56
13.98
15.54
16.35
16.48
16.02
15.11
13.96
12.74
11.6
10.5
9.24
7.57
5.36
2.71
-0.1
-2.72
-4.95
-6.94
-9.07
-11.79
-15.29
-19.22
-22.78
-24.97
-25.05
-23.01
-19.65
-16.38
-14.76
-15.96
-20.46
-27.94
-37.46
-47.7
-57.1
-64.07
-67.28
-65.86
-59.84
-50.18
-38.54
-26.85
-16.67
-8.81
-3.18
0.85
4.16
7.4
10.86
14.46
17.86
20.68
22.65
23.75
24.28
24.71
25.49
26.82
28.59
30.45
31.99
32.92
33.13
32.59
31.28
29.23
26.62
23.79
21.21
19.27
18.03
17.13
15.97
14.13
11.59
8.87
6.63
5.31
4.77
4.3
2.95
-0.1
-5.17
-11.99
-19.77
-27.33
-33.26
-36.22
-35.27
-30.28
-22.09
-12.34
-2.94
4.64
9.83
13.03
15.17
17.06
18.98
20.6
21.38
21.0
19.61
17.76
16.07
14.82
13.84
12.73
11.13
9.07
6.97
5.4
4.77
5.05
5.87
6.64
6.93
6.54
5.55
4.19
2.75
1.48
0.59
0.25
0.48
1.11
1.83
2.25
2.11
1.37
0.21
-1.1
-2.43
-3.86
-5.66
-8.08
-11.19
-14.88
-18.85
-22.91
-26.99
-31.11
-35.17
-38.77
-41.18
-41.53
-39.17
-33.98
-26.37
-17.17
-7.33
2.41
11.59
20.01
27.56
34.12
39.55
43.65
46.33
47.61
47.65
46.72
45.15
43.2
41.04
38.71
36.15
33.29
30.1
26.63
23.0
19.3
15.61
11.92
8.17
4.24
0.02
-4.57
-9.49
-14.59
-19.61
-24.26
-28.29
-31.63
-34.45
-37.1
-40.07
-43.76
-48.24
-53.18
-57.78
-61.01
-61.88
-59.72
-54.42
-46.46
-36.74
-26.41
-16.64
-8.38
-2.2
1.82
4.13
5.48
6.66
8.24
10.39
12.89
15.34
17.36
18.81
19.68
20.08
20.06
19.57
18.48
16.69
14.17
11.07
7.67
4.35
1.45
-0.84
-2.61
-4.24
-6.34
-9.46
-13.89
-19.45
-25.59
-31.63
-37.02
-41.59
-45.44
-48.85
-51.94
-54.59
-56.44
-57.06
-56.14
-53.62
-49.66
-44.5
-38.33
-31.29
-23.51
-15.18
-6.63
1.67
9.22
15.64
20.73
24.52
27.19
28.93
29.85
29.97
29.29
27.92
26.06
24.0
21.98
20.13
18.46
16.94
15.6
14.68
14.59
15.7
18.14
21.56
25.13
27.84
28.9
28.09
25.82
22.93
20.25
18.2
16.65
15.1
12.98
10.0
6.29
2.27
-1.59
-4.94
-7.76
-10.24
-12.71
-15.49
-18.81
-22.81
-27.52
-32.79
-38.32
-43.46
-47.38
-49.14
-47.96
-43.54
-36.13
-26.59
-16.07
-5.75
3.47
11.16
17.29
22.15
26.12
29.51
32.46
34.94
36.86
38.09
38.59
38.36
37.5
36.09
34.32
32.36
30.46
28.78
27.44
26.42
25.59
24.78
23.8
22.44
20.53
17.89
14.45
10.31
5.77
1.26
-2.78
-6.06
-8.65
-10.91
-13.41
-16.66
-20.91
-25.92
-31.05
-35.34
-37.79
-37.64
-34.64
-29.0
-21.38
-12.64
-3.58
5.13
13.05
19.92
25.59
30.01
33.19
35.21
36.19
36.32
35.8
34.85
33.71
32.53
31.42
30.38
29.33
28.16
26.83
25.34
23.81
22.42
21.33
20.59
20.11
19.63
18.83
17.51
15.71
13.74
11.99
10.65
9.59
8.3
6.2
2.86
-1.84
-7.65
-14.07
-20.53
-26.37
-30.86
-33.24
-32.92
-29.65
-23.74
-16.01
-7.54
0.67
7.97
14.11
19.19
23.37
26.79
29.46
31.34
32.34
32.47
31.78
30.41
28.55
26.41
24.21
22.14
20.36
19.0
18.07
17.5
17.04
16.35
15.06
12.98
10.14
6.8
3.3
-0.09
-3.33
-6.58
-10.08
-14.01
-18.37
-22.99
-27.62
-32.02
-36.05
-39.68
-43.0
-46.28
-49.86
-54.16
-59.38
-65.3
-71.11
-75.57
-77.39
-75.68
-70.32
-61.95
-51.75
-40.9
-30.32
-20.45
-11.44
-3.21
4.36
11.43
18.15
24.68
30.97
36.76
41.5
44.64
45.81
45.04
42.74
39.55
36.12
32.9
30.16
28.05
26.68
26.12
26.25
26.74
27.0
26.38
24.43
21.14
16.97
12.69
8.93
5.96
3.54
1.07
-2.06
-6.15
-11.1
-16.47
-21.76
-26.72
-31.38
-35.97
-40.79
-45.99
-51.63
-57.66
-63.91
-70.0
-75.29
-78.82
-79.62
-77.01
-70.97
-62.19
-51.91
-41.44
-31.78
-23.43
-16.48
-10.89
-6.58
-3.48
-1.41
0.04
1.4
3.09
5.26
7.68
9.88
11.46
12.26
12.45
12.38
12.35
12.41
12.45
12.35
12.17
12.1
12.28
12.53
12.41
11.32
8.9
5.29
1.13
-2.71
-5.62
-7.58
-9.2
-11.4
-14.98
-20.19
-26.59
-33.15
-38.57
-41.66
-41.63
-38.23
-31.78
-23.03
-12.96
-2.63
7.05
15.38
21.99
26.84
30.13
32.24
33.51
34.24
34.52
34.39
33.87
33.0
31.91
30.7
29.39
27.95
26.3
24.42
22.43
20.51
18.89
17.65
16.73
15.82
14.5
12.38
9.24
5.11
0.28
-4.82
-9.73
-14.12
-17.89
-21.15
-24.14
-27.2
-30.64
-34.7
-39.43
-44.6
-49.61
-53.5
-55.15
-53.62
-48.48
-40.0
-29.15
-17.23
-5.57
4.9
13.68
20.78
26.51
31.36
35.81
40.16
44.48
48.49
51.74
53.75
54.24
53.3
51.36
48.99
46.73
44.9
43.62
42.91
42.69
42.82
43.08
43.11
42.54
41.08
38.67
35.47
31.74
27.69
23.45
18.99
14.27
9.31
4.23
-0.84
-5.81
-10.7
-15.54
-20.41
-25.3
-30.17
-35.01
-39.74
-44.18
-47.92
-50.31
-50.62
-48.32
-43.25
-35.8
-26.78
-17.23
-8.05
0.18
7.33
13.53
19.05
24.01
28.4
32.09
35.07
37.49
39.68
41.93
44.28
46.41
47.71
47.71
46.34
44.14
42.01
40.76
40.67
41.33
41.85
41.33
39.21
35.5
30.59
24.93
18.81
12.26
5.25
-2.21
-10.01
-18.1
-26.5
-35.28
-44.21
-52.57
-59.07
-62.32
-61.4
-56.33
-48.14
-38.52
-29.09
-20.94
-14.35
-9.02
-4.43
-0.24
3.55
6.68
8.76
9.52
8.96
7.38
5.36
3.5
2.2
1.41
0.7
-0.5
-2.53
-5.28
-8.18
-10.54
-11.82
-11.98
-11.41
-10.73
-10.52
-11.07
-12.26
-13.72
-15.09
-16.15
-17.07
-18.27
-20.29
-23.56
-28.2
-33.95
-40.3
-46.6
-52.16
-56.3
-58.29
-57.43
-53.28
-45.9
-35.99
-24.82
-13.88
-4.41
2.88
7.9
11.01
12.75
13.64
14.07
14.33
14.66
15.19
15.94
16.74
17.25
17.13
16.22
14.66
12.91
11.67
11.57
12.91
15.51
18.76
21.81
23.98
24.88
24.57
23.42
21.89
20.4
19.23
18.44
17.93
17.45
16.72
15.49
13.71
11.54
9.23
7.07
5.18
3.48
1.77
-0.17
-2.4
-4.83
-7.24
-9.43
-11.27
-12.68
-13.6
-13.84
-13.18
-11.44
-8.59
-4.83
-0.58
3.65
7.54
10.98
14.13
17.17
20.15
22.84
24.84
25.78
25.54
24.32
22.49
20.45
18.44
16.49
14.52
12.42
10.15
7.74
5.21
2.63
0.06
-2.4
-4.62
-6.52
-8.11
-9.5
-10.88
-12.41
-14.12
-15.94
-17.68
-19.19
-20.3
-20.98
-21.28
-21.38
-21.54
-22.1
-23.35
-25.43
-28.2
-31.19
-33.65
-34.66
-33.41
-29.42
-22.73
-13.91
-3.95
6.06
15.22
23.03
29.45
34.77
39.41
43.68
47.69
51.21
53.8
54.9
54.15
51.52
47.4
42.53
37.66
33.31
29.63
26.47
23.61
20.96
18.62
16.71
15.17
13.69
11.78
9.04
5.35
0.96
-3.68
-8.18
-12.4
-16.4
-20.36
-24.36
-28.35
-32.18
-35.76
-39.15
-42.43
-45.57
-48.24
-49.71
-49.14
-45.81
-39.53
-30.76
-20.49
-9.93
-0.1
8.4
15.42
21.06
25.49
28.81
31.07
32.41
33.08
33.38
33.6
33.79
33.83
33.52
32.74
31.58
30.3
29.19
28.47
28.23
28.43
29.01
29.88
30.9
31.85
32.39
32.19
31.01
28.79
25.61
21.61
16.92
11.58
5.64
-0.74
-7.25
-13.49
-19.09
-23.87
-27.86
-31.32
-34.54
-37.82
-41.35
-45.17
-49.18
-53.05
-56.27
-58.17
-58.13
-55.76
-51.08
-44.58
-36.99
-29.12
-21.58
-14.73
-8.64
-3.28
1.43
5.49
8.84
11.41
13.15
14.05
14.17
13.61
12.52
11.03
9.28
7.38
5.47
3.72
2.23
1.05
0.08
-0.92
-2.19
-3.89
-5.98
-8.28
-10.52
-12.49
-14.1
-15.39
-16.46
-17.36
-18.1
-18.71
-19.23
-19.81
-20.57
-21.55
-22.64
-23.61
-24.33
-24.83
-25.36
-26.36
-28.24
-31.16
-34.85
-38.65
-41.65
-42.92
-41.76
-37.9
-31.54
-23.29
-14.01
-4.65
3.98
11.32
17.19
21.65
24.95
27.38
29.09
30.16
30.55
30.22
29.23
27.75
26.05
24.36
22.88
21.66
20.65
19.73
18.81
17.85
16.89
15.95
15.0
13.94
12.58
10.78
8.48
5.76
2.78
-0.27
-3.28
-6.21
-9.11
-12.07
-15.2
-18.59
-22.3
-26.28
-30.35
-34.13
-37.12
-38.7
-38.38
-35.84
-31.11
-24.62
-17.11
-9.46
-2.45
3.41
8.0
11.5
14.18
16.27
17.81
18.75
19.08
18.9
18.44
17.99
17.72
17.66
17.76
17.98
18.33
18.9
19.68
20.56
21.3
21.66
21.56
21.12
20.71
20.82
21.83
23.9
26.81
29.93
32.33
32.92
30.75
25.27
16.49
5.09
-7.82
-20.82
-32.64
-42.3
-49.24
-53.3
-54.52
-53.02
-48.92
-42.41
-33.86
-23.9
-13.4
-3.34
5.49
12.64
18.11
22.28
25.66
28.66
31.48
34.06
36.18
37.64
38.35
38.39
37.97
37.28
36.41
35.29
33.78
31.75
29.27
26.58
24.03
21.87
20.12
18.48
16.52
13.88
10.5
6.6
2.59
-1.21
-4.66
-7.85
-10.97
-14.14
-17.33
-20.46
-23.5
-26.5
-29.61
-32.96
-36.61
-40.49
-44.54
-48.74
-53.09
-57.55
-61.94
-65.87
-68.78
-70.08
-69.28
-66.11
-60.58
-52.97
-43.74
-33.48
-22.79
-12.3
-2.62
5.56
11.58
14.95
15.61
13.98
10.9
7.31
3.78
0.29
-3.67
-8.69
-14.99
-22.15
-29.38
-35.76
-40.56
-43.24
-43.34
-40.47
-34.51
-25.99
-16.13
-6.62
1.07
6.25
9.32
11.42
13.77
17.03
21.07
25.23
28.79
31.32
32.79
33.37
33.12
31.92
29.56
26.03
21.71
17.49
14.52
13.85
15.95
20.5
26.48
32.62
37.83
41.6
44.0
45.38
46.1
46.23
45.65
44.12
41.56
38.1
34.06
29.8
25.62
21.67
18.03
14.7
11.68
8.93
6.4
4.05
1.88
-0.13
-1.99
-3.79
-5.73
-8.06
-10.97
-14.42
-18.14
-21.66
-24.52
-26.53
-27.95
-29.34
-31.38
-34.46
-38.48
-42.68
-45.92
-47.04
-45.29
-40.64
-33.73
-25.61
-17.4
-9.84
-3.23
2.54
7.7
12.45
16.77
20.53
23.6
25.92
27.48
28.37
28.64
28.42
27.89
27.23
26.67
26.3
26.07
25.83
25.37
24.51
23.08
20.95
18.04
14.32
9.89
5.06
0.22
-4.22
-7.99
-11.04
-13.56
-15.87
-18.37
-21.39
-25.17
-29.65
-34.48
-38.97
-42.23
-43.4
-41.92
-37.72
-31.29
-23.54
-15.47
-7.95
-1.52
3.68
7.78
11.04
13.71
15.93
17.74
19.1
19.93
20.17
19.69
18.45
16.46
13.83
10.77
7.62
4.71
2.29
0.49
-0.79
-1.8
-2.85
-4.21
-5.99
-8.1
-10.37
-12.63
-14.81
-17.07
-19.62
-22.57
-25.84
-29.09
-31.76
-33.31
-33.3
-31.5
-27.94
-22.89
-16.84
-10.45
-4.41
0.71
4.53
6.97
8.24
8.65
8.56
8.21
7.69
