25.43
20.76
15.69
10.39
4.86
-0.92
-6.95
-13.09
-19.02
-24.41
-29.01
-32.85
-36.16
-39.31
-42.66
-46.5
-50.95
-55.95
-61.12
-65.8
-69.0
-69.68
-67.06
-60.93
-51.76
-40.58
-28.65
-17.01
-6.33
3.16
11.51
18.81
25.06
30.21
34.19
37.01
38.83
39.84
40.24
40.23
39.95
39.57
39.21
38.96
38.78
38.57
38.14
37.39
36.27
34.83
33.12
31.12
28.64
25.52
21.63
16.99
11.79
6.25
0.53
-5.39
-11.64
-18.36
-25.54
-32.99
-40.37
-47.3
-53.45
-58.49
-62.0
-63.43
-62.21
-58.0
-50.93
-41.74
-31.57
-21.55
-12.45
-4.48
2.59
9.16
15.45
21.43
26.85
31.44
35.06
37.72
39.52
40.64
41.21
41.37
41.22
40.83
40.26
39.56
38.79
38.0
37.2
36.32
35.23
33.78
31.84
29.42
26.56
23.35
19.84
15.96
11.63
6.83
1.7
-3.47
-8.3
-12.51
-16.09
-19.3
-22.69
-26.8
-31.97
-38.11
-44.66
-50.66
-54.96
-56.56
-54.86
-49.81
-41.95
-32.19
-21.63
-11.2
-1.55
7.05
14.56
21.09
26.74
31.63
35.85
39.49
42.61
45.13
46.89
47.73
47.6
46.7
45.38
44.11
43.16
42.59
42.18
41.65
40.8
39.59
38.12
36.51
34.8
32.91
30.7
28.17
25.39
22.57
19.9
17.46
15.18
12.94
10.58
8.04
5.35
2.58
-0.21
-2.96
-5.67
-8.33
-10.97
-13.64
-16.46
-19.56
-23.01
-26.79
-30.74
-34.64
-38.35
-41.81
-45.14
-48.58
-52.39
-56.83
-61.99
-67.75
-73.6
-78.74
-82.15
-82.86
-80.28
-74.37
-65.78
-55.67
-45.38
-36.11
-28.54
-22.81
-18.58
-15.32
-12.48
-9.67
-6.63
-3.13
1.04
6.14
12.33
19.56
27.51
35.64
43.27
49.84
54.97
58.63
61.05
62.71
64.16
65.88
68.14
70.91
73.94
76.8
79.02
80.16
79.83
77.75
73.78
68.03
60.81
52.59
43.82
34.78
25.57
16.1
6.24
-4.1
-14.97
-26.3
-37.9
-49.38
-59.98
-68.6
-74.03
-75.34
-72.37
-65.88
-57.34
-48.33
-40.01
-32.75
-26.24
-19.94
-13.56
-7.27
-1.61
2.93
6.16
8.32
9.89
11.29
12.68
13.93
14.84
15.26
15.28
15.18
15.25
15.65
16.34
17.05
17.43
17.13
15.98
14.03
11.49
8.73
6.08
3.8
1.9
0.21
-1.6
-3.87
-6.82
-10.43
-14.45
-18.56
-22.45
-25.98
-29.22
-32.47
-36.07
-40.38
-45.55
-51.39
-57.31
-62.37
-65.46
-65.67
-62.54
-56.28
-47.63
-37.64
-27.3
-17.36
-8.24
-0.09
7.01
13.02
17.94
21.85
24.94
27.46
29.62
31.49
33.02
34.09
34.61
34.62
34.31
33.91
33.69
33.77
34.13
34.59
34.92
34.89
34.36
33.36
32.04
30.63
29.31
28.15
27.07
25.88
24.4
22.56
20.4
18.09
15.73
13.38
10.96
8.36
5.56
2.67
-0.12
-2.64
-4.88
-7.03
-9.43
-12.34
-15.88
-19.93
-24.25
-28.47
-32.21
-35.05
-36.55
-36.26
-33.87
-29.32
-22.96
-15.49
-7.84
-0.9
4.77
9.05
12.35
15.32
18.61
22.53
26.97
31.45
35.36
38.16
39.56
39.42
37.76
34.64
30.24
24.95
19.39
14.27
10.18
7.38
5.7
4.69
3.79
2.57
0.79
-1.55
-4.37
-7.59
-11.16
-15.14
-19.61
-24.6
-30.01
-35.59
-40.99
-45.86
-50.05
-53.71
-57.36
-61.66
-67.22
-74.26
-82.44
-90.84
-98.13
-102.96
-104.31
-101.8
-95.8
-87.27
-77.45
-67.47
-58.14
-49.82
-42.57
-36.31
-30.94
-26.44
-22.76
-19.82
-17.47
-15.53
-13.82
-12.26
-10.91
-9.94
-9.54
-9.77
-10.43
-11.01
-10.93
-9.88
-8.1
-6.45
-6.07
-7.8
-11.73
-16.96
-21.93
-24.9
-24.54
-20.37
-12.84
-3.24
6.61
14.77
19.59
20.2
16.93
11.4
6.18
4.15
7.47
16.86
31.09
47.31
61.9
71.76
75.47
73.75
69.05
64.46
62.39
63.71
67.78
73.18
78.46
82.76
85.68
86.96
86.22
83.03
77.29
69.5
60.73
52.19
44.73
38.47
32.79
26.79
19.72
11.43
2.46
-6.19
-13.41
-18.38
-20.88
-21.41
-20.97
-20.76
-21.69
-24.06
-27.67
-31.99
-36.56
-41.13
-45.63
-50.01
-54.11
-57.72
-60.71
-63.19
-65.51
-68.07
-70.97
-73.83
-75.8
-75.8
-72.93
-66.74
-57.42
-45.72
-32.76
-19.7
-7.53
3.13
12.1
19.57
25.94
31.64
36.97
42.04
46.79
51.02
54.54
57.14
58.67
59.07
58.4
56.9
54.91
52.83
50.97
49.38
47.88
45.98
43.18
39.19
34.16
28.66
23.52
19.43
16.63
14.79
13.16
10.99
7.89
3.97
-0.3
-4.49
-8.42
-12.29
-16.31
-20.41
-24.07
-26.58
-27.53
-27.16
-26.38
-26.37
-27.93
-31.08
-35.18
-39.37
-43.07
-46.23
-49.02
-51.38
-52.74
-52.11
-48.58
-41.84
-32.42
-21.53
-10.56
-0.56
7.98
15.12
21.14
26.32
30.68
34.04
36.16
36.89
36.4
35.11
33.6
32.33
31.51
31.01
30.5
29.69
28.48
27.07
25.77
24.89
24.57
24.67
24.9
24.86
24.18
22.59
20.0
16.41
12.05
7.17
2.12
-2.82
-7.46
-11.8
-16.03
-20.5
-25.57
-31.43
-37.89
-44.25
-49.43
-52.2
-51.57
-47.19
-39.45
-29.43
-18.48
-7.88
1.54
9.52
16.18
21.86
26.86
31.32
35.3
38.79
41.75
44.13
45.86
46.86
47.11
46.68
45.83
44.91
44.24
44.02
44.2
44.45
44.36
43.54
41.82
39.3
36.3
33.28
30.57
28.3
26.4
24.64
22.81
20.77
18.5
16.05
13.52
10.99
8.55
6.28
4.21
2.26
0.27
-1.99
-4.61
-7.46
-10.2
-12.44
-14.06
-15.43
-17.27
-20.35
-24.95
-30.43
-35.16
-37.04
-34.15
-25.55
-11.54
6.37
26.03
45.35
62.73
77.25
88.59
96.67
101.55
103.3
102.12
98.29
92.04
83.39
72.01
57.56
40.15
20.89
1.97
-13.78
-23.85
-27.03
-23.74
-15.83
-5.65
4.85
14.6
23.23
30.42
35.44
37.15
34.63
27.86
18.16
7.76
-1.02
-6.79
-9.58
-10.54
-11.19
-12.53
-14.67
-17.02
-18.94
-20.3
-21.55
-23.47
-26.47
-30.36
-34.33
-37.47
-39.3
-40.14
-40.99
-43.0
-46.88
-52.46
-58.72
-64.26
-67.83
-68.83
-67.41
-64.23
-60.06
-55.52
-50.92
-46.38
-42.04
-38.16
-35.16
-33.51
-33.55
-35.41
-38.94
-43.72
-49.12
-54.35
-58.61
-61.25
-61.9
-60.61
-57.77
-54.09
-50.34
-47.21
-45.17
-44.34
-44.51
-45.09
-45.2
-43.76
-39.75
-32.48
-21.9
-8.74
5.54
19.11
30.18
37.47
40.35
38.91
33.71
25.55
15.39
4.28
-6.49
-15.53
-21.51
-23.56
-21.55
-16.2
-8.85
-1.04
6.05
11.84
16.36
20.07
23.41
26.64
29.68
32.27
34.13
35.03
34.87
33.63
31.31
28.03
24.03
19.77
15.8
12.67
10.67
9.79
9.68
9.85
9.8
9.23
8.06
6.4
4.44
2.35
0.26
-1.76
-3.71
-5.61
-7.6
-9.87
-12.67
-16.17
-20.34
-24.76
-28.7
-31.19
-31.36
-28.71
-23.3
-15.71
-6.86
2.27
10.95
18.72
25.46
31.17
35.92
39.71
42.45
44.07
44.58
44.05
42.63
40.48
37.73
34.48
30.9
27.18
23.58
20.39
17.74
15.61
13.83
12.16
10.34
8.19
5.64
2.62
-0.87
-4.82
-9.14
-13.67
-18.18
-22.44
-26.25
-29.5
-32.13
-34.11
-35.43
-36.06
-35.9
-34.87
-32.83
-29.71
-25.54
-20.48
-14.83
-8.99
-3.37
1.71
6.05
9.66
12.66
15.29
17.71
20.02
22.17
24.06
25.58
26.6
27.08
26.93
26.14
24.71
22.79
20.65
18.61
16.92
15.63
14.59
13.48
11.95
9.79
6.92
3.42
-0.63
-5.06
-9.73
-14.48
-19.17
-23.71
-28.03
-32.08
-35.74
-38.91
-41.54
-43.77
-45.94
-48.56
-52.0
-56.32
-61.07
-65.33
-67.96
-67.96
-64.84
-58.74
-50.43
-40.97
-31.4
-22.43
-14.35
-7.09
-0.53
5.38
10.57
14.86
18.19
20.65
22.45
23.84
24.96
25.78
26.15
25.92
25.05
23.69
22.09
20.5
19.08
17.82
16.62
15.3
13.7
11.74
9.35
6.51
3.25
-0.36
-4.16
-7.98
-11.68
-15.23
-18.75
-22.51
-26.76
-31.69
-37.32
-43.46
-49.66
-55.28
-59.54
-61.61
-61.0
-57.61
-51.87
-44.66
-36.97
-29.68
-23.3
-17.97
-13.57
-9.85
-6.57
-3.53
-0.55
2.5
5.7
9.07
12.58
16.18
19.86
23.64
27.49
31.35
35.07
38.45
41.28
43.33
44.4
44.29
42.94
40.42
36.98
33.05
29.03
25.24
21.77
18.57
15.5
12.6
10.05
8.15
7.15
7.08
7.66
8.35
8.49
7.44
4.81
0.53
-4.97
-10.82
-15.8
-18.61
-18.27
-14.4
-7.33
2.0
12.31
22.44
31.52
39.09
44.96
49.14
51.64
52.47
51.67
49.33
45.64
40.8
35.05
28.71
22.11
15.72
10.06
5.67
2.96
2.06
2.82
4.76
7.23
9.52
11.04
11.37
10.3
7.8
3.99
-0.8
-6.12
-11.53
-16.69
-21.45
-25.74
-29.46
-32.35
-34.05
-34.32
-33.38
-31.99
-31.34
-32.54
-36.14
-41.8
-48.37
-54.31
-58.26
-59.34
-57.3
-52.36
-45.04
-35.95
-25.78
-15.18
-4.69
5.4
15.21
25.11
35.47
46.3
57.02
66.53
73.59
77.35
77.59
74.83
69.99
63.98
57.41
50.59
43.71
37.02
30.87
25.56
21.14
17.35
13.69
9.76
5.4
0.78
-3.74
-7.87
-11.55
-14.99
-18.47
-22.22
-26.25
-30.38
-34.33
-37.85
-40.81
-43.23
-45.21
-46.99
-48.86
-51.11
-53.97
-57.37
-60.9
-63.79
-65.1
-64.08
-60.42
-54.4
-46.75
-38.44
-30.28
-22.79
-16.1
-10.13
-4.7
0.32
4.95
9.11
12.67
15.52
17.62
19.0
19.81
20.18
20.21
19.89
19.2
18.14
16.82
15.42
14.11
12.93
11.72
10.14
7.84
4.59
0.42
-4.33
-9.16
-13.61
-17.42
-20.71
-23.8
-27.12
-30.96
-35.37
-40.23
-45.22
-49.94
-53.87
-56.39
-56.84
-54.77
-50.11
-43.29
-35.16
-26.67
-18.59
-11.32
-4.87
0.95
6.26
11.02
15.02
18.0
19.84
20.56
20.31
19.32
17.76
15.75
13.34
10.63
7.79
5.0
2.51
0.43
-1.23
-2.67
-4.21
-6.2
-8.86
-12.25
-16.23
-20.55
-24.98
-29.39
-33.74
-38.09
-42.43
-46.72
-50.81
-54.57
-57.86
-60.49
-62.1
-62.22
-60.37
-56.24
-49.9
-41.7
-32.12
-21.49
-9.89
2.75
16.47
31.02
45.94
60.63
74.63
87.72
99.85
110.87
120.34
127.52
131.57
131.89
128.41
121.71
112.81
102.83
92.65
82.68
72.93
63.16
53.15
42.82
32.35
22.04
12.24
3.28
-4.62
-11.35
-16.93
-21.54
-25.4
-28.75
-31.74
-34.47
-36.95
-39.16
-41.15
-43.0
-44.86
-46.93
-49.39
-52.4
-56.02
-60.01
-63.84
-66.64
-67.37
-65.2
-59.78
-51.39
-40.86
-29.3
-17.72
-6.79
3.21
12.34
20.75
28.56
35.81
42.41
48.25
53.26
57.45
60.9
63.72
66.03
67.9
69.33
70.39
71.19
71.97
73.0
74.51
76.58
79.15
82.07
85.13
88.01
90.2
90.99
89.61
85.44
78.33
68.78
57.84
46.8
36.77
28.35
21.46
15.43
9.31
2.27
-6.13
-15.79
-26.04
-36.0
-44.69
-51.31
-55.43
-57.1
-56.95
-56.15
-56.13
-58.13
-62.66
-69.25
-76.45
-82.31
-84.98
-83.25
-76.88
-66.39
-52.84
-37.43
-21.24
-5.2
10.0
23.79
35.83
45.97
54.41
61.67
68.54
75.85
84.09
93.18
102.43
110.74
117.01
120.53
120.94
118.27
112.6
103.95
92.4
78.21
61.94
44.35
26.07
7.43
-11.57
-30.99
-50.68
-70.09
-88.42
-104.81
-118.61
-129.37
-136.77
-140.54
-140.43
-136.45
-129.01
-119.11
-108.18
-97.76
-89.1
-82.84
-78.93
-76.75
-75.4
-73.97
-71.76
-68.37
-63.71
-57.89
-51.16
-43.84
-36.35
-29.11
-22.55
-16.97
-12.49
-9.04
-6.4
-4.32
-2.59
-1.17
-0.1
0.47
0.42
-0.29
-1.6
-3.38
-5.46
-7.7
-10.01
-12.35
-14.67
-17.02
-19.54
-22.47
-26.0
-30.1
-34.36
-37.94
-39.84
-39.22
-35.72
-29.59
-21.58
-12.58
-3.41
5.45
13.77
21.5
28.63
35.09
40.78
45.58
49.4
52.18
53.92
54.7
54.69
54.1
53.16
52.01
50.72
49.32
47.88
46.52
45.35
44.43
43.67
42.88
41.84
40.44
38.7
36.81
34.95
33.27
31.79
30.42
28.98
27.31
25.33
23.04
20.55
18.01
15.47
12.82
9.82
6.16
1.65
-3.66
-9.46
-15.28
-20.71
-25.48
-29.6
-33.25
-36.66
-40.05
-43.6
-47.45
-51.68
-56.16
-60.48
-63.88
-65.43
-64.3
-60.12
-53.14
-44.18
-34.33
-24.56
-15.52
-7.42
-0.21
6.3
12.24
17.66
22.54
26.82
30.47
33.47
35.8
37.47
38.51
38.92
38.76
38.11
37.18
36.25
35.65
35.57
36.03
36.79
37.43
37.57
36.96
35.55
33.39
30.49
26.85
22.48
17.47
12.1
6.74
1.74
-2.71
-6.67
-10.32
-13.9
-17.51
-21.13
-24.61
-27.77
-30.49
-32.79
-34.82
-36.87
-39.34
-42.59
-46.7
-51.38
-55.83
-58.96
-59.73
-57.47
-52.2
-44.54
-35.47
-25.95
-16.72
-8.21
-0.61
5.99
11.51
15.87
19.12
21.4
22.97
24.1
24.98
25.67
26.16
26.38
26.31
25.98
25.52
25.11
24.88
24.84
24.86
24.67
24.03
22.77
20.94
18.75
16.46
14.3
12.32
10.44
8.44
6.07
3.17
-0.28
-4.16
-8.24
-12.33
-16.36
-20.38
-24.52
-29.0
-34.0
-39.57
-45.59
-51.58
-56.73
-60.01
-60.5
-57.71
-51.82
-43.67
-34.41
-25.09
-16.34
-8.29
-0.75
6.5
13.51
20.11
26.05
31.11
35.2
38.32
40.53
41.87
42.41
42.22
41.45
40.35
39.2
38.19
37.45
36.97
36.6
36.17
35.48
34.43
33.0
31.24
29.22
26.98
24.49
21.72
18.69
15.46
12.18
8.95
5.8
2.65
-0.66
-4.31
-8.32
-12.6
-16.92
-21.07
-24.93
-28.56
-32.12
-35.87
-40.03
-44.77
-50.11
-55.84
-61.5
-66.27
-69.17
-69.31
-66.17
-59.89
-51.18
-41.09
-30.67
-20.61
-11.14
-2.22
6.31
14.45
22.03
28.78
34.5
39.11
42.69
45.32
47.09
47.96
47.89
46.88
45.1
42.87
40.61
38.68
37.29
36.42
35.86
35.34
34.65
33.72
32.59
31.27
29.75
27.88
25.52
22.61
19.22
15.6
12.05
8.78
5.82
2.99
-0.04
-3.53
-7.62
-12.24
-17.12
-21.99
-26.62
-30.98
-35.15
-39.34
-43.81
-48.77
-54.35
-60.41
-66.43
-71.48
-74.41
-74.15
-70.13
-62.51
-52.16
-40.41
-28.58
-17.68
-8.19
-0.16
6.66
12.62
18.0
22.92
27.31
30.96
33.63
35.19
35.68
35.36
34.55
33.57
32.61
31.76
31.03
30.38
29.75
29.06
28.17
26.91
25.11
22.72
19.79
16.45
12.84
9.08
5.18
1.16
-3.0
-7.3
-11.63
-15.93
-20.15
-24.33
-28.65
-33.41
-38.93
-45.31
-52.26
-58.96
-64.15
-66.47
-64.93
-59.29
-50.18
-38.84
-26.68
-14.83
-3.86
6.13
15.25
23.52
30.81
36.89
41.62
45.04
47.36
48.86
49.75
50.18
50.19
49.83
49.18
48.34
47.4
46.47
45.59
44.81
44.09
43.32
42.34
40.95
39.02
36.52
33.59
30.4
27.09
23.69
20.16
16.44
12.58
8.67
4.84
1.12
-2.58
-6.43
-10.58
-15.11
-19.91
-24.82
-29.64
-34.23
-38.55
-42.71
-46.93
-51.55
-56.94
-63.27
-70.37
-77.44
-83.22
-86.23
-85.26
-79.83
-70.4
-58.18
-44.71
-31.41
-19.16
-8.28
1.33
9.99
17.92
25.2
31.73
37.38
42.06
45.75
48.54
50.51
51.73
52.21
52.05
51.38
50.49
49.71
49.26
49.18
49.25
49.1
48.35
46.84
44.64
42.04
39.38
36.85
34.48
32.14
29.59
26.65
23.26
19.49
15.53
11.59
7.84
4.37
1.07
-2.22
-5.74
-9.65
-13.97
-18.64
-23.5
-28.44
-33.38
-38.31
-43.3
-48.48
-54.04
-60.13
-66.7
-73.26
-78.81
-82.01
-81.65
-77.1
-68.65
-57.38
-44.84
-32.43
-21.07
-11.08
-2.38
5.23
11.9
17.66
22.49
26.39
29.42
31.65
33.17
34.06
34.43
34.4
34.06
33.47
32.64
31.59
30.36
29.05
27.8
26.65
25.51
24.18
22.44
20.1
17.12
13.63
9.81
5.85
1.85
-2.18
-6.22
-10.33
-14.55
-19.02
-23.92
-29.5
-35.89
-42.97
-50.17
-56.55
-60.92
-62.22
-59.86
-53.9
-45.0
-34.22
-22.69
-11.33
-0.8
8.51
16.47
23.07
28.44
32.81
36.37
39.25
41.44
42.83
43.32
42.95
41.91
40.52
39.12
37.93
37.01
36.27
35.51
34.53
33.2
31.44
29.24
26.64
23.72
20.47
16.94
13.13
9.05
4.77
0.34
-4.21
-8.91
-13.76
-18.7
-23.55
-28.12
-32.32
-36.34
-40.66
-45.9
-52.44
-60.11
-67.96
-74.47
-77.98
-77.33
-72.24
-63.42
-52.22
-40.16
-28.39
-17.55
-7.76
1.13
9.26
16.69
23.34
29.1
33.99
38.08
41.45
44.11
45.98
46.95
46.96
46.1
44.67
43.05
41.63
40.66
40.15
39.87
39.45
38.47
36.65
33.91
30.42
26.51
22.56
18.84
15.44
12.19
8.76
4.83
0.24
-4.96
-10.48
-15.96
-21.06
-25.68
-29.94
-34.2
-38.92
-44.53
-51.23
-58.81
-66.57
-73.31
-77.64
-78.32
-74.76
-67.2
-56.67
-44.64
-32.49
-21.17
-11.05
-2.01
6.16
13.67
20.54
26.64
31.83
35.96
38.98
40.9
41.8
41.81
41.06
39.69
37.85
35.7
33.46
31.33
29.5
27.98
26.62
25.09
22.97
19.94
15.91
11.08
5.82
0.57
-4.32
-8.77
-12.93
-17.17
-21.96
-27.71
-34.64
-42.53
-50.72
-58.1
-63.36
-65.32
-63.32
-57.47
-48.58
-37.92
-26.77
-16.04
-6.14
2.91
11.23
18.85
25.63
31.29
35.57
38.45
40.12
40.96
41.34
41.47
41.31
40.69
39.43
37.54
35.3
33.07
31.17
29.66
28.27
26.56
24.05
20.5
15.94
10.64
4.99
-0.63
-5.96
-10.86
-15.37
-19.67
-24.06
-28.92
-34.63
-41.44
-49.23
-57.46
-65.05
-70.65
-72.93
-71.04
-64.94
-55.37
-43.64
-31.18
-19.05
-7.8
2.51
12.05
21.0
29.32
36.85
43.37
48.71
52.84
55.84
57.82
58.87
59.09
58.59
57.55
56.22
54.88
53.74
52.87
52.19
51.52
50.6
49.28
47.42
45.06
42.29
39.3
36.29
33.42
30.73
28.11
25.32
22.12
18.39
14.22
9.9
5.81
2.18
-1.05
-4.22
-7.81
-12.2
-17.44
-23.23
-29.02
-34.33
-38.87
-42.74
-46.29
-50.02
-54.44
-59.92
-66.66
-74.46
-82.62
-89.9
-94.77
-95.74
-92.01
-83.7
-71.9
-58.26
-44.4
-31.48
-19.93
-9.67
-0.36
8.27
16.32
23.72
30.39
36.22
41.14
45.1
48.03
49.94
50.9
51.07
50.72
50.05
49.29
48.58
48.05
47.74
47.57
47.34
46.77
45.58
43.65
41.07
38.13
35.19
32.51
30.08
27.72
25.09
21.97
18.29
14.23
10.13
6.3
2.88
-0.15
-3.05
-6.13
-9.67
-13.72
-18.19
-22.82
-27.32
-31.48
-35.28
-38.86
-42.56
-46.78
-51.87
-57.93
-64.69
-71.38
-76.75
-79.41
-78.16
-72.44
-62.51
-49.46
-34.84
-20.23
-6.81
4.83
14.56
22.61
29.21
34.59
38.91
42.27
44.78
46.51
47.44
47.54
46.82
45.39
43.47
41.38
39.41
37.73
36.39
35.32
34.33
33.23
31.83
29.97
27.53
24.45
20.71
16.32
11.34
5.84
-0.04
-6.07
-12.01
-17.66
-22.96
-28.08
-33.35
-39.18
-45.89
-53.47
-61.42
-68.79
-74.27
-76.69
-75.27
-70.02
-61.73
-51.61
-40.95
-30.69
-21.26
-12.68
-4.78
2.55
9.28
15.24
20.19
23.99
26.59
28.09
28.72
28.79
28.64
28.5
28.41
28.18
27.51
26.08
23.75
20.6
16.87
12.93
9.13
5.79
3.17
1.39
0.45
0.2
0.34
0.48
0.24
-0.66
-2.36
-4.87
-8.13
-12.14
-16.97
-22.8
-29.81
-38.03
-47.12
-56.27
-64.23
-69.62
-71.34
-68.96
-62.86
-54.13
-44.1
-33.93
-24.3
-15.43
-7.22
0.44
7.52
13.85
19.22
23.56
26.89
29.34
31.05
32.13
32.64
32.66
32.29
31.63
30.8
29.92
29.07
28.31
27.6
26.8
25.69
23.99
21.52
18.24
14.3
10.0
5.63
1.42
-2.53
-6.3
-10.07
-14.09
-18.67
-24.12
-30.63
-38.2
-46.41
-54.36
-60.81
-64.41
-64.17
-59.78
-51.77
-41.29
-29.75
-18.37
-7.86
1.52
9.82
17.18
23.6
29.05
33.45
36.78
39.1
40.46
40.98
40.73
39.82
38.37
36.56
34.61
32.77
31.2
29.96
28.89
27.59
25.53
22.29
17.74
12.16
6.2
0.55
-4.3
-8.33
-11.93
-15.77
-20.49
-26.5
-33.82
-41.98
-50.07
-56.86
-61.08
-61.71
-58.3
-51.15
-41.24
-29.88
-18.34
-7.54
2.12
10.6
18.02
24.46
29.89
34.23
37.38
39.37
40.28
40.27
39.46
37.99
35.93
33.39
30.6
27.84
25.46
23.67
22.44
21.43
20.09
17.87
14.48
9.99
4.82
-0.48
-5.46
-9.98
-14.2
-18.53
-23.45
-29.32
-36.26
-44.05
-52.04
-59.2
-64.26
-66.06
-63.9
-57.81
-48.57
-37.46
-25.81
-14.64
-4.41
4.79
13.13
20.71
27.45
33.19
37.82
41.34
43.87
45.54
46.34
46.19
44.98
42.75
39.75
36.45
33.37
30.85
28.93
27.27
25.32
22.53
18.61
13.65
8.07
2.46
-2.67
-7.14
-11.14
-15.13
-19.7
-25.31
-32.17
-40.04
-48.26
-55.74
-61.2
-63.44
-61.72
-56.03
-47.03
-35.93
-24.01
-12.36
-1.59
8.07
16.69
24.36
31.09
36.85
41.52
45.02
47.34
48.57
48.92
48.63
48.0
47.22
46.43
45.67
44.92
44.15
43.31
42.34
41.12
39.49
37.35
34.69
31.55
28.01
24.08
19.65
14.57
8.71
2.13
-4.92
-12.02
-18.72
-24.71
-29.87
-34.37
-38.56
-42.96
-48.04
-54.07
-60.9
-67.85
-73.75
-77.2
-77.02
-72.6
-64.16
-52.68
-39.53
-26.05
-13.2
-1.41
9.31
