-21.58
-28.81
-36.95
-45.37
-52.94
-58.23
-59.94
-57.45
-50.98
-41.59
-30.76
-19.9
-9.99
-1.44
5.76
11.79
16.79
20.74
23.52
25.03
25.27
24.37
22.56
20.12
17.3
14.24
11.01
7.57
3.82
-0.29
-4.75
-9.45
-14.19
-18.8
-23.2
-27.43
-31.72
-36.27
-41.21
-46.45
-51.7
-56.56
-60.68
-63.86
-66.1
-67.53
-68.31
-68.62
-68.59
-68.34
-67.92
-67.23
-65.84
-63.01
-57.82
-49.53
-37.96
-23.67
-7.84
8.13
23.1
36.46
48.14
58.33
67.17
74.5
80.04
83.56
85.16
85.32
84.68
83.73
82.51
80.62
77.42
72.52
66.18
59.42
53.77
50.75
51.25
55.1
61.11
67.39
72.05
73.75
72.04
67.24
60.18
51.79
42.83
33.83
25.2
17.29
10.46
4.95
0.71
-2.62
-5.67
-9.2
-13.83
-19.97
-27.64
-36.44
-45.47
-53.41
-58.88
-60.79
-58.75
-53.25
-45.41
-36.67
-28.18
-20.59
-13.93
-7.92
-2.18
3.5
9.05
14.24
18.72
22.22
24.66
26.14
26.9
27.23
27.31
27.27
27.12
26.87
26.55
26.13
25.58
24.82
23.75
22.32
20.53
18.44
16.14
13.64
10.92
7.89
4.47
0.68
-3.39
-7.51
-11.4
-14.88
-17.95
-20.87
-24.09
-28.1
-33.12
-38.94
-44.84
-49.7
-52.35
-51.88
-47.95
-40.91
-31.63
-21.27
-10.91
-1.31
7.15
14.42
20.53
25.56
29.51
32.41
34.31
35.33
35.62
35.3
34.48
33.22
31.58
29.6
27.34
24.87
22.28
19.71
17.39
15.51
14.17
13.26
12.44
11.23
9.15
5.95
1.67
-3.32
-8.57
-13.64
-18.29
-22.46
-26.29
-30.03
-34.03
-38.6
-43.92
-49.8
-55.57
-60.16
-62.33
-61.13
-56.24
-48.15
-37.89
-26.73
-15.73
-5.51
3.68
11.84
19.02
25.25
30.56
34.97
38.61
41.55
43.81
45.33
46.04
45.89
44.95
43.43
41.58
39.72
38.09
36.8
35.85
35.09
34.35
33.43
32.22
30.63
28.63
26.24
23.45
20.35
17.06
13.75
10.56
7.59
4.8
2.09
-0.68
-3.62
-6.78
-10.21
-13.89
-17.83
-21.95
-26.12
-30.18
-33.97
-37.43
-40.67
-43.98
-47.76
-52.37
-57.89
-64.0
-69.85
-74.23
-75.93
-74.1
-68.58
-59.91
-49.16
-37.58
-26.27
-15.95
-6.94
0.71
7.14
12.57
17.24
21.38
25.11
28.47
31.36
33.55
34.86
35.19
34.65
33.51
32.18
31.0
30.22
29.88
29.84
29.86
29.66
29.04
27.83
25.99
23.59
20.75
17.72
14.75
12.04
9.66
7.55
5.5
3.33
0.88
-1.81
-4.6
-7.27
-9.64
-11.68
-13.46
-15.16
-16.9
-18.79
-20.88
-23.16
-25.64
-28.3
-31.11
-34.01
-37.02
-40.22
-43.8
-47.97
-52.73
-57.76
-62.33
-65.42
-66.01
-63.42
-57.54
-48.88
-38.4
-27.26
-16.55
-7.05
0.82
6.94
11.47
14.68
16.91
18.54
19.9
21.31
22.99
24.99
27.2
29.28
30.87
31.67
31.63
30.94
29.95
28.96
28.05
27.07
25.8
24.08
21.99
19.7
17.32
14.78
11.84
8.28
4.07
-0.53
-5.1
-9.25
-12.84
-15.99
-18.96
-22.03
-25.39
-29.19
-33.63
-38.86
-44.76
-50.8
-55.89
-58.77
-58.33
-54.18
-46.77
-37.19
-26.82
-16.79
-7.76
0.08
6.86
12.71
17.68
21.76
25.01
27.51
29.52
31.23
32.72
33.89
34.54
34.45
33.61
32.21
30.64
29.33
28.49
28.13
28.02
27.82
27.18
25.89
23.87
21.12
17.79
14.07
10.3
6.79
3.8
1.35
-0.79
-3.0
-5.68
-9.01
-12.94
-17.22
-21.6
-26.01
-30.57
-35.61
-41.44
-48.3
-56.14
-64.55
-72.79
-79.78
-84.37
-85.55
-82.81
-76.29
-66.83
-55.71
-44.29
-33.64
-24.3
-16.31
-9.31
-2.89
3.27
9.27
14.94
20.02
24.17
27.23
29.14
30.03
30.16
29.89
29.66
29.86
30.72
32.24
34.09
35.8
36.86
36.98
36.17
34.71
32.98
31.32
29.8
28.27
26.5
24.3
21.67
18.78
15.88
13.19
10.82
8.71
6.69
4.54
2.07
-0.84
-4.21
-7.98
-12.02
-16.22
-20.53
-25.05
-29.98
-35.59
-42.14
-49.67
-57.86
-65.94
-72.75
-76.93
-77.34
-73.41
-65.34
-54.09
-41.03
-27.57
-14.78
-3.26
6.8
15.44
22.79
28.93
34.0
38.1
41.37
43.89
45.64
46.52
46.46
45.47
43.77
41.66
39.47
37.4
35.5
33.62
31.56
29.16
26.41
23.45
20.46
17.55
14.72
11.79
8.51
4.69
0.29
-4.58
-9.63
-14.59
-19.31
-23.74
-28.02
-32.37
-37.08
-42.35
-48.23
-54.45
-60.36
-64.92
-66.99
-65.61
-60.34
-51.48
-39.98
-27.14
-14.28
-2.35
8.17
17.21
24.91
31.41
36.78
40.99
43.98
45.77
46.44
46.18
45.19
43.69
41.94
40.19
38.65
37.46
36.57
35.81
34.94
33.74
32.11
30.06
27.61
24.74
21.43
17.61
13.32
8.68
3.88
-0.92
-5.65
-10.32
-14.98
-19.58
-24.05
-28.38
-32.76
-37.63
-43.56
-50.9
-59.45
-68.24
-75.67
-80.02
-79.98
-75.21
-66.32
-54.69
-41.89
-29.23
-17.5
-7.01
2.27
10.45
17.67
23.98
29.44
34.06
37.77
40.52
42.25
43.05
43.13
42.87
42.64
42.79
43.52
44.81
46.49
48.19
49.43
49.75
48.77
46.38
42.78
38.45
34.05
30.18
27.19
25.03
23.32
21.54
19.25
16.29
12.82
9.15
5.64
2.47
-0.34
-2.9
-5.4
-8.04
-11.13
-15.13
-20.63
-28.11
-37.53
-48.04
-58.01
-65.32
-68.17
-65.65
-58.09
-46.88
-33.79
-20.37
-7.56
4.29
15.07
24.66
32.69
38.83
43.07
45.87
48.09
50.55
53.69
57.4
61.11
63.9
64.99
64.07
61.4
57.66
53.6
49.62
46.0
42.68
39.36
35.71
31.59
26.96
21.68
15.51
8.11
0.15
-6.99
-11.8
-13.19
-11.05
-6.42
-1.29
2.11
1.73
-2.67
-10.2
-19.68
-29.84
-39.34
-46.74
-50.69
-50.2
-45.37
-35.93
-21.82
-3.45
15.76
31.24
39.78
41.32
41.68
40.83
38.04
33.16
24.29
11.91
-2.15
-15.57
-26.37
-33.64
-38.24
-40.9
-42.5
-43.91
-45.35
-46.46
-46.48
-44.8
-41.41
-37.52
-34.08
-31.89
-31.52
-32.81
-35.07
-37.31
-38.79
-39.27
-39.4
-39.67
-40.52
-42.33
-45.29
-49.51
-54.95
-61.15
-67.22
-71.92
-73.74
-71.55
-65.24
-55.65
-44.3
-32.74
-21.97
-12.35
-3.78
3.98
10.98
16.98
21.68
24.93
26.92
28.18
29.29
30.68
32.39
34.15
35.55
36.25
36.2
35.6
34.68
33.55
32.16
30.47
28.59
26.87
25.78
25.52
25.82
25.98
25.15
22.84
19.17
14.77
10.37
6.31
2.41
-1.83
-6.76
-12.27
-17.8
-22.73
-26.86
-30.64
-34.93
-40.35
-46.67
-52.63
-56.36
-56.19
-51.47
-42.79
-31.72
-19.99
-8.9
1.08
10.12
18.62
26.84
34.6
41.47
47.02
51.04
53.65
55.19
56.04
56.43
56.41
55.87
54.72
53.0
50.91
48.67
46.44
44.3
42.16
39.94
37.51
34.76
31.61
27.94
23.7
18.92
13.75
8.4
3.03
-2.25
-7.45
-12.56
-17.64
-22.74
-28.0
-33.65
-39.84
-46.42
-52.81
-57.96
-60.7
-60.09
-55.85
-48.4
-38.78
-28.16
-17.58
-7.71
1.14
8.86
15.41
20.72
24.72
27.44
28.99
29.59
29.49
28.88
27.85
26.43
24.58
22.35
19.91
17.6
15.77
14.66
14.23
14.15
13.88
12.89
10.88
7.82
3.96
-0.31
-4.61
-8.7
-12.52
-16.21
-19.99
-24.16
-28.97
-34.48
-40.49
-46.39
-51.28
-54.08
-53.93
-50.38
-43.61
-34.34
-23.62
-12.57
-2.05
7.37
15.48
22.31
28.03
32.88
37.06
40.73
43.88
46.42
48.13
48.82
48.4
46.91
44.56
41.68
38.63
35.78
33.39
31.57
30.25
29.21
28.15
26.76
24.85
22.39
19.42
16.1
12.57
8.89
5.08
1.11
-3.01
-7.27
-11.55
-15.71
-19.61
-23.21
-26.59
-29.99
-33.73
-38.14
-43.37
-49.26
-55.2
-60.24
-63.17
-62.96
-59.08
-51.71
-41.73
-30.44
-19.09
-8.59
0.68
8.72
15.72
21.8
26.99
31.26
34.64
37.25
39.22
40.6
41.33
41.33
40.55
39.12
37.37
35.7
34.42
33.68
33.41
33.34
33.14
32.52
31.35
29.69
27.76
25.84
24.15
22.74
21.49
20.16
18.51
16.44
14.01
11.39
8.75
6.12
3.39
0.36
-3.19
-7.33
-11.96
-16.87
-21.78
-26.46
-30.83
-34.91
-38.87
-42.9
-47.23
-52.07
-57.38
-62.86
-67.77
-71.12
-71.88
-69.4
-63.64
-55.24
-45.25
-34.77
-24.61
-15.12
-6.39
1.61
8.8
15.01
20.05
23.83
26.45
28.14
29.1
29.49
29.35
28.69
27.55
26.05
24.41
22.83
21.47
20.39
19.51
18.69
17.75
16.54
14.97
13.01
10.67
7.99
4.99
1.72
-1.77
-5.35
-8.9
-12.27
-15.39
-18.31
-21.18
-24.25
-27.77
-31.91
-36.64
-41.71
-46.55
-50.36
-52.24
-51.41
-47.5
-40.7
-31.73
-21.61
-11.42
-1.94
6.4
13.49
19.42
24.31
28.25
31.27
33.4
34.66
35.16
34.99
34.27
33.11
31.6
29.87
28.07
26.38
24.96
23.9
23.12
22.39
21.4
19.88
17.67
14.87
11.69
8.41
5.22
2.16
-0.86
-4.0
-7.42
-11.17
-15.17
-19.24
-23.13
-26.7
-29.92
-32.99
-36.2
-39.93
-44.46
-49.78
-55.49
-60.75
-64.42
-65.39
-62.91
-56.86
-47.84
-36.95
-25.46
-14.48
-4.67
3.72
10.76
16.65
21.61
25.77
29.24
32.07
34.31
35.98
37.04
37.47
37.25
36.45
35.24
33.86
32.59
31.61
31.0
30.68
30.48
30.17
29.55
28.5
26.96
25.0
22.7
20.2
17.52
14.69
11.66
8.43
5.06
1.72
-1.4
-4.24
-6.83
-9.36
-12.03
-14.92
-17.96
-20.94
-23.64
-25.94
-27.89
-29.59
-31.2
-32.91
-34.96
-37.69
-41.37
-46.09
-51.53
-56.88
-60.93
-62.41
-60.36
-54.32
-44.48
-31.44
-16.0
1.04
18.85
36.46
52.73
66.47
76.81
83.38
86.45
86.64
84.7
81.22
76.59
71.04
64.74
57.84
50.43
42.51
34.14
25.55
17.24
9.73
3.3
-2.28
-7.65
-13.48
-20.0
-26.84
-33.21
-38.48
-42.53
-45.85
-49.07
-52.55
-56.13
-59.31
-61.61
-63.02
-64.14
-65.82
-68.6
-72.2
-75.6
-77.47
-76.85
-73.32
-67.23
-59.44
-51.07
-43.03
-35.78
-29.45
-23.98
-19.47
-15.97
-13.58
-12.61
-13.34
-15.78
-19.39
-23.19
-26.08
-27.32
-26.21
-22.35
-15.79
-6.98
3.34
14.5
25.77
37.29
47.4
54.26
57.36
57.76
56.96
55.79
54.5
52.93
50.87
48.23
45.62
43.86
43.42
44.88
47.51
50.49
53.03
54.27
53.57
51.23
48.04
44.84
42.13
39.91
37.96
35.88
33.09
28.58
22.96
17.44
13.03
9.98
7.89
6.11
3.94
0.44
-4.56
-9.9
-14.05
-15.98
-15.85
-14.65
-13.78
-14.74
-19.37
-28.34
-40.44
-53.28
-64.11
-70.58
-70.64
-62.9
-43.3
-13.93
16.34
37.18
43.29
35.93
20.32
2.87
-11.25
-19.65
-23.42
-24.75
-24.95
-25.06
-23.79
-20.57
-15.75
-10.36
-5.7
-3.21
-3.25
-4.8
-6.36
-6.84
-6.44
-6.11
-6.46
-8.07
-11.42
-16.23
-21.38
-25.42
-27.29
-27.14
-26.12
-25.86
-27.45
-31.2
-36.24
-40.78
-43.04
-41.96
-38.01
-32.65
-27.47
-23.01
-19.26
-16.09
-13.27
-10.41
-6.5
-0.66
7.75
18.91
33.4
50.72
69.09
86.05
99.37
108.49
113.9
116.92
119.25
123.56
130.95
140.22
148.67
153.51
153.76
149.29
140.33
119.69
86.29
45.9
7.44
-21.69
-43.02
-58.61
-70.58
-79.48
-86.21
-90.49
-92.43
-92.84
-92.77
-92.89
-92.57
-91.25
-88.79
-85.45
-80.52
-73.46
-64.39
-54.02
-43.22
-32.16
-21.08
-10.18
0.25
10.6
20.89
30.43
38.1
43.03
45.33
45.57
44.42
42.28
39.53
36.32
32.55
28.23
23.54
19.03
15.07
11.78
8.92
6.27
3.55
0.56
-2.77
-6.42
-10.2
-13.94
-17.57
-21.15
-24.8
-28.64
-32.82
-37.42
-42.34
-47.22
-51.38
-53.9
-53.9
-50.82
-44.67
-36.09
-26.13
-15.88
-6.19
2.51
10.09
16.6
21.99
26.17
29.04
30.6
31.04
30.7
29.88
28.77
27.4
25.71
23.64
21.31
18.97
16.93
15.39
14.32
13.48
12.46
10.91
8.61
5.63
2.19
-1.4
-4.88
-8.18
-11.38
-14.67
-18.31
-22.51
-27.31
-32.47
-37.42
-41.25
-43.02
-41.96
-37.86
-31.12
-22.64
-13.53
-4.74
3.18
10.09
16.08
21.27
25.67
29.13
31.46
32.55
32.47
31.45
29.8
27.85
25.82
23.87
22.08
20.48
19.1
17.97
17.05
16.21
15.27
13.94
11.99
9.34
6.13
2.7
-0.53
-3.21
-5.29
-6.98
-8.74
-11.09
-14.43
-18.93
-24.51
-30.7
-36.77
-41.72
-44.56
-44.57
-41.54
-35.91
-28.61
-20.69
-13.03
-6.08
0.09
5.56
10.44
14.69
18.21
20.92
22.91
24.35
25.44
26.31
26.94
27.25
27.15
26.77
26.36
26.22
26.52
27.15
27.74
27.86
27.13
25.46
23.0
20.03
16.81
13.52
10.21
6.82
3.28
-0.49
-4.5
-8.66
-12.79
-16.66
-20.1
-23.09
-25.76
-28.42
-31.37
-34.88
-39.02
-43.67
-48.36
-52.37
-54.81
-54.88
-52.09
-46.5
-38.71
-29.65
-20.25
-11.21
-2.89
4.64
11.37
17.3
22.34
26.4
29.48
31.62
32.99
33.72
33.94
33.74
33.17
32.32
31.24
30.02
28.67
27.23
25.7
24.08
22.37
20.54
18.58
16.45
14.18
11.77
9.28
6.72
4.15
1.55
-1.12
-3.93
-6.97
-10.27
-13.85
-17.65
-21.56
-25.46
-29.21
-32.7
-35.86
-38.76
-41.56
-44.57
-48.19
-52.7
-58.14
-64.1
-69.78
-74.07
-75.99
-74.9
-70.76
-64.04
-55.55
-46.23
-36.86
-28.07
-20.25
-13.61
-8.16
-3.71
0.06
3.54
7.02
10.62
14.28
17.85
21.18
24.18
26.86
29.26
31.47
33.56
35.58
37.55
39.41
41.05
42.32
43.04
43.05
42.25
40.6
38.16
35.03
31.4
27.48
23.46
19.49
15.59
11.73
7.78
3.59
-1.03
-6.24
-12.02
-18.1
-23.8
-28.15
-30.15
-29.12
-25.05
-18.62
-10.98
-3.33
3.45
9.04
13.53
17.22
20.37
23.03
25.1
26.41
26.88
26.55
25.56
24.07
22.21
20.1
17.79
15.35
12.85
10.42
8.16
6.13
4.25
2.31
0.03
-2.74
-5.98
-9.45
-12.81
-15.84
-18.58
-21.29
-24.3
-27.79
-31.65
-35.49
-38.9
-41.62
-43.67
-45.29
-46.74
-48.2
-49.7
-51.18
-52.54
-53.61
-54.03
-53.27
-50.61
-45.44
-37.54
-27.27
-15.53
-3.43
8.01
18.23
27.1
34.76
41.31
46.65
50.48
52.52
52.73
51.52
49.61
47.73
46.41
45.67
45.18
44.45
43.13
41.26
39.18
37.36
36.1
35.39
34.85
33.97
32.34
29.87
26.78
23.47
20.33
17.52
14.9
12.22
9.28
6.05
2.78
-0.25
-2.88
-5.2
-7.52
-10.19
-13.43
-17.2
-21.24
-25.25
-29.09
-32.93
-37.21
-42.39
-48.65
-55.6
-62.26
-67.27
-69.38
-67.94
-63.12
-55.87
-47.47
-39.01
-31.13
-23.91
-17.16
-10.68
-4.49
1.19
6.04
9.86
12.64
14.57
15.88
16.81
17.51
18.05
18.48
18.86
19.29
19.85
20.5
21.15
21.59
21.6
21.04
19.89
18.28
16.35
14.23
11.92
9.34
6.34
2.86
-1.08
-5.33
-9.7
-14.03
-18.23
-22.36
-26.57
-31.07
-36.06
-41.57
-47.37
-52.84
-57.09
-59.15
-58.31
-54.35
-47.66
-39.11
-29.77
-20.56
-12.08
-4.55
2.06
7.84
12.84
16.99
20.21
22.47
23.88
24.64
25.01
25.21
25.36
25.5
25.63
25.74
25.87
26.02
26.22
26.4
26.46
26.23
25.51
24.1
21.85
18.76
14.99
10.87
6.8
3.13
0.01
-2.67
-5.27
-8.21
-11.85
-16.37
-21.71
-27.55
-33.34
-38.32
-41.61
-42.35
-39.93
-34.26
-25.77
-15.37
-4.17
6.84
16.97
25.9
33.61
40.25
45.95
50.82
54.84
57.87
59.73
60.24
59.34
57.16
54.03
50.43
46.79
43.43
40.46
37.84
35.45
33.11
30.63
27.79
24.44
20.48
15.98
11.17
6.31
1.6
-2.95
-7.54
-12.43
-17.84
-23.77
-30.05
-36.38
-42.51
-48.35
-53.9
-59.26
-64.6
-70.1
-76.0
-82.52
-89.64
-96.98
-103.61
-108.25
-109.66
-107.06
-100.39
-90.4
-78.27
-65.25
-52.32
-40.06
-28.72
-18.34
-8.95
-0.55
6.86
13.35
19.04
24.12
28.75
33.05
37.06
40.76
44.15
47.24
50.18
53.13
56.27
59.64
63.07
66.28
68.85
70.44
70.78
69.84
67.77
64.82
61.34
57.62
53.83
50.02
46.05
41.72
36.83
31.25
24.98
18.16
10.99
3.71
-3.46
-10.32
-16.81
-22.98
-29.1
-35.58
-42.82
-50.92
-59.41
-67.22
-72.87
-74.93
-72.64
-66.12
-56.38
-44.9
-33.16
-22.14
-12.3
-3.71
3.76
10.13
15.39
19.5
22.54
24.75
26.4
27.76
28.94
29.88
30.42
30.43
29.89
28.95
27.89
27.04
26.63
26.64
26.81
26.61
25.54
23.23
19.66
15.12
10.15
5.27
0.86
-2.99
-6.48
-9.95
-13.76
