10.37
10.19
10.24
10.36
10.41
10.33
10.09
9.71
9.2
8.57
7.86
7.1
6.36
5.65
4.97
4.27
3.48
2.51
1.24
-0.47
-2.71
-5.5
-8.69
-11.96
-14.8
-16.64
-16.98
-15.52
-12.32
-7.75
-2.44
2.92
7.74
11.65
14.63
16.85
18.58
20.05
21.34
22.32
22.87
22.86
22.3
21.33
20.23
19.23
18.52
18.12
17.96
17.86
17.64
17.18
16.47
15.6
14.64
13.6
12.3
10.39
7.48
3.18
-2.65
-9.88
-18.09
-26.64
-34.75
-41.69
-46.92
-50.19
-51.69
-51.97
-51.8
-51.88
-52.57
-53.66
-54.49
-54.12
-51.77
-47.05
-40.12
-31.6
-22.38
-13.29
-4.98
2.19
8.14
12.98
16.9
20.1
22.68
24.64
25.93
26.52
26.54
26.17
25.61
25.01
24.36
23.62
22.79
21.95
21.23
20.74
20.5
20.39
20.28
20.03
19.58
18.95
18.12
17.09
15.82
14.26
12.42
10.31
7.95
5.41
2.74
0.05
-2.55
-5.04
-7.55
-10.27
-13.4
-16.99
-20.82
-24.51
-27.64
-29.94
-31.48
-32.6
-33.86
-35.79
-38.64
-42.21
-45.86
-48.67
-49.66
-48.16
-43.93
-37.28
-28.93
-19.83
-10.85
-2.63
4.51
10.53
15.55
19.75
23.23
26.1
28.34
29.95
30.91
31.19
30.8
29.78
28.23
26.33
24.34
22.46
20.86
19.59
18.59
17.7
16.79
15.73
14.45
12.94
11.18
9.19
7.03
4.81
2.62
0.56
-1.39
-3.3
-5.33
-7.58
-10.04
-12.59
-15.07
-17.32
-19.32
-21.13
-22.94
-24.93
-27.32
-30.23
-33.72
-37.62
-41.46
-44.51
-45.97
-45.18
-41.93
-36.52
-29.66
-22.2
-14.86
-8.11
-2.09
3.19
7.8
11.78
15.18
18.0
20.25
21.91
22.94
23.33
23.13
22.46
21.52
20.48
19.45
18.43
17.37
16.24
15.05
13.87
12.77
11.74
10.65
9.29
7.43
4.97
2.02
-1.18
-4.25
-6.94
-9.15
-11.01
-12.77
-14.72
-17.12
-20.13
-23.87
-28.3
-33.16
-37.9
-41.67
-43.6
-42.99
-39.63
-33.91
-26.64
-18.8
-11.17
-4.2
1.97
7.38
12.08
16.08
19.32
21.73
23.28
24.02
24.05
23.54
22.66
21.63
20.65
19.85
19.35
19.2
19.4
19.87
20.49
21.07
21.38
21.18
20.29
18.64
16.28
13.41
10.33
7.37
4.82
2.72
0.95
-0.8
-2.81
-5.29
-8.17
-11.23
-14.15
-16.69
-18.78
-20.46
-21.94
-23.46
-25.29
-27.62
-30.52
-33.85
-37.16
-39.73
-40.71
-39.35
-35.34
-28.86
-20.55
-11.29
-1.95
6.85
14.75
21.62
27.43
32.18
35.94
38.81
40.95
42.49
43.54
44.14
44.24
43.81
42.8
41.25
39.27
37.05
34.8
32.74
30.99
29.56
28.38
27.28
26.12
24.78
23.17
21.26
19.04
16.56
13.91
11.24
8.74
6.51
4.51
2.54
0.27
-2.61
-6.22
-10.47
-15.08
-19.78
-24.38
-28.88
-33.35
-37.86
-42.4
-47.0
-51.75
-56.82
-62.3
-67.94
-73.05
-76.53
-77.3
-74.68
-68.74
-60.27
-50.47
-40.46
-31.03
-22.49
-14.82
-7.86
-1.5
4.3
9.55
14.25
18.39
21.89
24.62
26.42
27.26
27.22
26.56
25.65
24.81
24.28
24.13
24.27
24.51
24.59
24.27
23.4
21.91
19.86
17.36
14.51
11.38
7.98
4.33
0.5
-3.36
-7.11
-10.65
-14.0
-17.34
-20.93
-25.06
-29.94
-35.61
-41.76
-47.73
-52.56
-55.22
-54.89
-51.29
-44.78
-36.27
-26.88
-17.57
-8.9
-0.94
6.46
13.53
20.29
26.6
32.15
36.69
40.09
42.41
43.84
44.64
45.05
45.2
45.11
44.71
43.92
42.68
40.96
38.78
36.14
33.03
29.37
25.07
20.05
14.31
8.07
1.7
-4.31
-9.54
-13.74
-16.91
-19.38
-21.65
-24.24
-27.63
-32.1
-37.58
-43.62
-49.35
-53.64
-55.4
-53.88
-48.98
-41.25
-31.67
-21.31
-11.09
-1.56
7.0
14.47
20.8
25.98
30.07
33.21
35.56
37.25
38.33
38.83
38.79
38.31
37.58
36.76
35.95
35.2
34.49
33.8
33.09
32.29
31.3
29.96
28.15
25.8
23.0
19.89
16.68
13.53
10.49
7.51
4.5
1.37
-1.94
-5.42
-9.01
-12.7
-16.5
-20.47
-24.69
-29.23
-34.11
-39.36
-44.92
-50.55
-55.79
-59.86
-61.86
-60.99
-56.89
-49.79
-40.49
-30.11
-19.67
-9.88
-1.03
6.87
13.93
20.24
25.84
30.68
34.73
37.94
40.24
41.57
41.96
41.48
40.34
38.76
36.93
34.97
32.91
30.8
28.67
26.61
24.64
22.69
20.53
17.93
14.74
10.99
6.92
2.84
-0.99
-4.48
-7.74
-11.02
-14.53
-18.42
-22.65
-27.0
-31.13
-34.71
-37.5
-39.43
-40.69
-41.66
-42.84
-44.69
-47.51
-51.29
-55.67
-59.88
-62.86
-63.56
-61.13
-55.33
-46.53
-35.66
-23.94
-12.45
-1.94
7.3
15.33
22.41
28.75
34.49
39.59
43.94
47.35
49.72
51.04
51.48
51.32
50.88
50.4
49.95
49.33
48.1
45.76
41.89
36.28
29.04
20.48
11.0
1.06
-8.87
-18.28
-26.58
-33.33
-38.36
-41.93
-44.58
-46.91
-49.31
-51.73
-53.84
-55.23
-55.7
-55.31
-54.24
-52.59
-50.12
-46.44
-41.19
-34.39
-26.52
-18.52
-11.43
-6.11
-2.96
-1.9
-2.55
-4.4
-6.98
-9.88
-12.72
-15.16
-16.97
-17.94
-17.78
-16.14
-12.73
-7.54
-0.88
6.57
14.08
21.2
28.02
35.12
42.98
51.49
59.92
67.54
73.76
78.2
80.62
80.76
78.64
74.52
69.25
64.34
61.96
63.36
67.78
72.52
74.08
70.34
61.13
48.31
34.79
24.02
17.92
16.12
16.56
16.75
15.72
13.48
10.59
7.87
7.02
9.31
14.85
22.7
31.15
39.41
46.6
51.71
47.88
32.05
7.67
-17.39
-34.36
-44.3
-49.49
-51.71
-52.26
-51.41
-48.21
-42.15
-34.19
-26.47
-21.39
-19.27
-19.32
-20.42
-21.78
-22.6
-22.79
-22.77
-22.84
-22.86
-21.73
-19.16
-16.27
-14.97
-16.18
-19.26
-22.17
-22.38
-18.29
-9.57
2.15
14.13
23.87
30.4
34.21
36.47
38.09
39.1
38.92
36.64
31.68
24.42
16.24
8.94
3.86
1.27
0.31
-0.45
-2.4
-6.27
-11.9
-18.46
-24.94
-30.53
-34.91
-38.17
-40.66
-42.77
-44.82
-47.0
-49.37
-51.78
-53.86
-55.04
-54.73
-52.53
-48.46
-42.95
-36.69
-30.35
-24.28
-18.47
-12.73
-6.85
-0.81
5.33
11.48
17.64
23.78
29.68
34.85
38.65
40.51
40.18
37.7
33.28
27.19
19.87
12.11
5.2
0.56
-0.81
1.04
5.02
9.48
13.15
15.75
18.01
21.08
25.67
31.51
37.43
41.85
43.36
41.13
34.89
24.93
11.99
-2.71
-17.53
-30.56
-40.03
-44.72
-44.3
-39.38
-31.29
-21.71
-12.24
-4.09
2.1
6.24
8.61
9.76
10.27
10.74
11.61
13.13
15.29
17.77
20.08
21.68
22.3
21.94
20.8
19.02
16.54
13.19
8.86
3.74
-1.62
-6.47
-10.15
-12.36
-13.19
-12.99
-12.16
-11.04
-9.9
-9.02
-8.71
-9.26
-10.87
-13.49
-16.93
-20.89
-25.1
-29.38
-33.59
-37.64
-41.35
-44.41
-46.37
-46.82
-45.45
-42.18
-37.15
-30.69
-23.25
-15.37
-7.61
-0.5
5.55
10.32
13.76
16.18
18.1
20.14
22.79
26.25
30.39
34.89
39.66
44.89
50.93
57.8
64.93
71.31
76.03
78.81
79.84
79.17
76.16
69.75
59.63
47.43
36.77
31.86
35.12
45.29
57.78
66.74
67.93
60.58
47.15
31.65
17.16
4.71
-6.81
-18.9
-32.1
-45.66
-58.19
-68.54
-76.49
-82.98
-89.6
-98.32
-109.63
-122.32
-134.28
-143.71
-149.95
-153.28
-154.24
-152.99
-150.05
-145.07
-137.59
-127.75
-116.75
-106.3
-97.59
-90.77
-85.09
-80.65
-76.72
-71.83
-64.51
-54.18
-41.59
-28.46
-17.1
-1.78
17.52
36.9
52.23
62.79
70.43
76.65
81.65
84.87
85.96
83.53
79.19
75.28
73.29
72.81
71.88
68.83
63.23
56.16
48.46
42.22
39.57
41.98
49.43
60.44
72.76
83.83
91.0
91.83
84.29
70.9
58.71
54.05
57.28
63.05
65.0
59.21
45.38
26.61
7.44
-8.98
-21.51
-30.99
-38.97
-46.31
-52.82
-57.56
-59.48
-57.77
-52.8
-45.96
-38.97
-32.93
-28.0
-23.93
-20.58
-18.04
-16.21
-14.75
-13.11
-10.78
-7.35
-2.71
2.74
8.22
13.04
16.94
20.07
22.76
25.1
26.76
27.0
24.74
19.07
9.89
-1.8
-13.98
-24.2
-30.37
-31.21
-26.51
-17.21
-5.25
6.81
16.38
21.66
22.31
19.77
16.89
16.89
22.1
32.81
47.08
61.45
72.36
77.49
76.46
70.6
62.04
52.73
43.76
35.5
28.12
22.22
18.97
19.56
24.33
31.98
39.8
44.67
44.39
38.87
30.37
22.69
19.83
24.35
36.2
52.53
68.58
79.42
81.83
75.44
62.61
47.19
32.58
20.44
10.27
0.25
-11.39
-25.26
-40.63
-56.02
-70.23
-82.92
-94.6
-105.87
-116.74
-126.29
-132.93
-135.18
-132.36
-124.95
-114.5
-103.0
-92.22
-83.17
-75.9
-69.68
-63.43
-56.17
-47.42
-37.47
-27.21
-17.85
-10.34
-5.09
-1.75
0.48
2.42
4.5
6.6
8.27
9.09
9.0
8.32
7.55
7.03
6.72
6.22
5.07
2.99
0.08
-3.28
-6.64
-9.69
-12.46
-15.12
-17.9
-20.92
-24.18
-27.62
-31.17
-34.87
-38.79
-43.02
-47.6
-52.56
-57.94
-63.71
-69.71
-75.45
-80.18
-82.98
-83.09
-80.27
-74.84
-67.68
-59.83
-52.15
-45.12
-38.9
-33.38
-28.44
-24.06
-20.31
-17.3
-15.17
-13.98
-13.72
-14.19
-15.03
-15.74
-15.86
-15.08
-13.39
-10.94
-8.03
-4.85
-1.54
1.83
5.19
8.51
11.8
15.18
18.82
22.76
26.83
30.58
33.46
34.97
34.95
33.62
31.49
29.07
26.68
24.3
21.75
18.95
16.19
14.19
13.94
16.17
20.99
27.65
34.79
40.97
45.34
47.93
49.57
51.37
54.09
57.79
61.88
65.47
67.84
68.69
68.01
65.89
62.56
58.51
54.72
52.48
52.87
55.99
60.58
64.35
64.98
61.29
53.77
44.22
34.69
26.26
18.59
10.41
0.62
-10.77
-22.4
-32.3
-38.98
-42.23
-43.27
-44.08
-46.44
-51.1
-57.59
-64.55
-70.4
-73.89
-74.4
-71.83
-66.36
-58.21
-47.6
-34.9
-20.68
-5.84
8.53
21.36
31.77
39.36
44.21
46.89
48.21
48.99
49.78
50.75
51.71
52.32
52.28
51.48
50.05
48.29
46.5
44.85
43.32
41.73
39.82
37.45
34.66
31.7
28.91
26.56
24.66
22.93
20.88
18.01
14.1
9.23
3.79
-1.8
-7.19
-12.23
-16.95
-21.45
-25.89
-30.45
-35.32
-40.61
-46.18
-51.56
-55.93
-58.26
-57.62
-53.47
-45.94
-35.71
-23.89
-11.71
-0.23
9.91
18.52
25.8
32.14
37.82
42.88
47.14
50.31
52.25
53.06
53.07
52.72
52.25
51.64
50.58
48.85
46.52
44.05
41.99
40.5
39.15
37.04
33.33
27.8
21.01
14.03
7.83
2.74
-1.57
-5.79
-10.38
-15.29
-20.06
-24.26
-27.87
-31.34
-35.32
-40.31
-46.36
-52.97
-59.24
-64.03
-66.27
-65.23
-60.8
-53.47
-44.27
-34.34
-24.56
-15.39
-6.8
1.41
9.32
16.73
23.2
28.25
31.57
33.17
33.29
32.35
30.74
28.78
26.64
24.44
22.3
20.45
19.22
18.94
19.75
21.4
23.22
24.3
23.8
21.34
17.12
11.8
6.27
1.2
-3.13
-6.88
-10.48
-14.43
-19.14
-24.83
-31.42
-38.49
-45.25
-50.7
-53.77
-53.68
-50.15
-43.51
-34.57
-24.39
-14.02
-4.29
4.28
11.49
17.41
22.27
26.37
29.9
32.94
35.35
36.94
37.61
37.44
36.69
35.7
34.73
33.84
32.95
31.92
30.73
29.4
28.03
26.65
25.15
23.33
20.98
17.95
14.27
10.12
5.69
1.2
-3.24
-7.6
-11.88
-16.12
-20.29
-24.43
-28.64
-33.09
-38.05
-43.67
-49.83
-56.02
-61.29
-64.52
-64.7
-61.28
-54.34
-44.6
-33.2
-21.36
-10.11
-0.12
8.38
15.48
21.42
26.52
30.95
34.76
37.83
40.03
41.28
41.65
41.32
40.53
39.5
38.36
37.2
36.06
35.05
34.25
33.69
33.3
32.87
32.13
30.89
29.1
26.82
24.18
21.29
18.19
14.91
11.52
8.11
4.81
1.65
-1.41
-4.53
-7.92
-11.68
-15.76
-20.03
-24.29
-28.37
-32.21
-35.82
-39.26
-42.69
-46.32
-50.43
-55.2
-60.56
-66.01
-70.6
-73.15
-72.61
-68.46
-60.94
-50.99
-39.91
-28.94
-18.93
-10.25
-2.87
3.42
8.86
13.67
17.97
21.81
25.16
27.88
29.79
30.8
30.9
30.33
29.38
28.36
27.43
26.62
25.83
24.92
23.84
22.56
21.12
19.57
17.88
16.02
13.9
11.45
8.62
5.42
1.92
-1.79
-5.56
-9.29
-12.95
-16.58
-20.32
-24.37
-28.89
-33.96
-39.42
-44.78
-49.23
-51.8
-51.62
-48.18
-41.59
-32.53
-22.09
-11.44
-1.56
6.96
13.93
19.48
23.9
27.5
30.51
33.02
35.01
36.38
37.03
36.89
35.98
34.4
32.29
29.89
27.51
25.5
24.25
23.91
24.4
25.25
25.74
25.14
23.02
19.37
14.66
9.61
4.87
0.79
-2.59
-5.56
-8.41
-11.37
-14.47
-17.65
-20.84
-24.03
-27.27
-30.68
-34.33
-38.32
-42.75
-47.74
-53.26
-58.93
-63.94
-67.18
-67.52
-64.29
-57.54
-48.08
-37.12
-25.88
-15.22
-5.55
2.98
10.34
16.47
21.36
25.12
28.0
30.29
32.19
33.72
34.74
35.09
34.71
33.69
32.33
30.93
29.79
29.04
28.64
28.37
27.95
27.14
25.77
23.81
21.36
18.54
15.47
12.2
8.83
5.4
2.0
-1.37
-4.74
-8.23
-11.93
-15.86
-19.96
-24.08
-28.03
-31.69
-35.08
-38.39
-41.99
-46.3
-51.51
-57.4
-63.18
-67.58
-69.29
-67.33
-61.47
-52.29
-41.01
-29.02
-17.5
-7.18
1.66
9.06
15.23
20.42
24.87
28.73
32.08
34.92
37.17
38.85
40.02
40.83
41.44
41.92
42.22
42.28
42.03
41.45
40.6
39.52
38.3
36.98
35.73
34.76
34.33
34.59
35.42
36.46
37.13
36.89
35.42
32.74
29.2
25.25
21.34
17.69
14.37
11.31
8.49
5.9
3.38
0.49
-3.55
-9.6
-18.16
-28.88
-40.47
-50.99
-58.53
-61.89
-60.97
-56.65
-50.19
-42.66
-34.56
-25.93
-16.74
-7.29
1.65
8.97
13.69
15.26
13.73
9.63
3.68
-3.38
-10.92
-18.39
-25.28
-31.18
-35.88
-39.6
-42.92
-46.72
-51.91
-59.16
-68.67
-80.01
-92.28
-104.12
-113.97
-120.37
-122.2
-119.08
-111.46
-100.57
-88.05
-75.48
-63.99
-54.15
-46.04
-39.47
-34.15
-29.73
-25.69
-21.38
-16.09
-9.33
-1.16
7.87
16.9
25.1
32.01
37.6
42.22
46.32
50.27
54.28
58.44
62.86
67.63
72.85
78.48
84.27
89.73
94.3
97.57
99.41
100.13
100.37
100.83
101.94
103.59
105.13
105.69
104.68
102.09
98.55
94.98
92.09
89.93
87.93
85.22
81.06
75.09
67.31
57.71
46.15
32.33
16.26
-1.37
-19.05
-34.7
-46.41
-52.99
-54.34
-51.39
-45.58
-38.34
-30.68
-23.03
-15.44
-7.8
-0.21
7.03
13.37
18.25
21.31
22.51
22.07
20.38
17.82
14.67
11.16
7.5
3.91
0.62
-2.26
-4.73
-6.95
-9.11
-11.38
-13.81
-16.42
-19.18
-22.1
-25.2
-28.48
-31.85
-35.14
-38.19
-40.91
-43.31
-45.58
-47.98
-50.86
-54.51
-59.1
-64.51
-70.24
-75.4
-78.85
-79.63
-77.13
-71.43
-63.2
-53.47
-43.32
-33.6
-24.79
-17.08
-10.45
-4.79
0.03
4.09
7.46
10.17
12.2
13.55
14.28
14.51
14.39
14.07
13.66
13.22
12.84
12.62
12.6
12.77
12.92
12.76
11.96
10.32
7.88
4.87
1.66
-1.41
-4.11
-6.45
-8.64
-11.1
-14.3
-18.62
-24.11
-30.37
-36.52
-41.41
-43.89
-43.25
-39.41
-32.94
-24.8
-16.05
-7.52
0.37
7.48
13.89
19.61
24.58
28.7
31.87
34.08
35.42
36.0
35.93
35.34
34.33
33.0
31.47
29.83
28.17
26.56
25.06
23.68
22.33
20.82
18.84
16.14
12.62
8.42
3.91
-0.48
-4.42
-7.83
-10.9
-14.04
-17.66
-22.09
-27.35
-33.12
-38.67
-43.02
-45.17
-44.44
-40.64
-34.2
-25.99
-17.05
-8.25
-0.15
7.04
13.36
18.91
23.73
27.76
30.86
32.94
33.98
34.07
33.44
32.38
31.19
30.07
29.1
28.2
27.16
25.76
23.81
21.25
18.21
14.88
11.5
8.2
5.01
1.81
-1.52
-5.03
-8.65
-12.27
-15.78
-19.22
-22.76
-26.63
-31.05
-36.1
-41.75
-47.79
-53.85
-59.36
-63.58
-65.66
-64.85
-60.72
-53.32
-43.3
-31.73
-19.77
-8.44
1.65
10.3
17.64
23.92
29.34
33.92
37.58
40.17
41.57
41.82
41.1
39.66
37.74
35.52
33.06
30.4
27.56
24.67
21.82
19.14
16.67
14.36
12.05
9.57
6.71
3.34
-0.59
-5.0
-9.67
-14.28
-18.52
-22.2
-25.35
-28.25
-31.37
-35.18
-39.99
-45.76
-51.96
-57.65
-61.66
-62.93
-60.82
-55.4
-47.32
-37.61
-27.38
-17.47
-8.4
-0.35
6.66
12.73
17.94
22.39
26.15
29.29
31.84
33.79
35.16
35.99
36.35
36.33
36.03
35.55
35.01
34.55
34.26
34.09
33.88
33.37
32.34
30.7
28.48
25.83
22.9
19.85
16.78
13.81
11.02
8.45
5.97
3.35
0.27
-3.44
-7.78
-12.48
-17.12
-21.36
-25.08
-28.38
-31.61
-35.17
-39.44
-44.67
-50.92
-57.91
-64.96
-70.98
-74.66
-74.87
-71.05
-63.46
-53.09
-41.36
-29.58
-18.68
-9.03
-0.63
6.67
13.02
18.58
23.47
27.87
31.91
35.6
38.79
41.21
42.62
42.95
42.4
41.34
40.23
39.42
39.06
39.07
39.17
39.03
38.41
37.25
35.66
33.82
31.86
29.75
27.36
24.53
21.22
17.57
13.9
10.45
7.37
4.54
1.69
-1.47
-5.1
-9.14
-13.35
-17.42
-21.1
-24.28
-27.09
-29.77
-32.68
-36.22
-40.72
-46.29
-52.63
-58.94
-63.98
-66.37
-65.06
-59.73
-51.02
-40.24
-29.02
-18.71
-10.1
-3.34
1.82
5.8
8.97
11.58
13.8
15.74
17.52
19.17
20.73
22.13
23.33
24.28
24.98
25.41
25.65
25.72
25.65
25.41
24.93
24.1
22.85
21.14
19.01
16.55
13.79
10.72
7.27
3.41
-0.8
-5.21
-9.54
-13.56
-17.13
-20.36
-23.52
-27.07
-31.43
-36.84
-43.11
-49.54
-55.01
-58.19
-58.02
-54.01
-46.45
-36.24
-24.64
-12.84
-1.75
8.13
16.6
23.65
29.36
33.86
37.3
39.87
41.71
42.95
43.6
43.73
43.41
42.76
41.94
41.04
40.12
39.22
38.39
37.71
37.24
36.91
36.51
35.7
34.14
31.68
28.37
24.51
20.51
16.71
13.22
9.93
6.6
3.01
-0.95
-5.2
-9.55
-13.8
-17.8
-21.58
-25.25
-29.03
-33.18
-37.93
-43.43
-49.62
-56.06
-61.96
-66.2
-67.7
-65.71
-60.1
-51.44
-40.78
-29.32
-18.14
-7.93
1.03
8.7
15.26
20.94
25.95
30.43
34.4
37.78
40.38
42.09
42.87
42.83
42.21
41.29
40.32
39.47
38.83
38.43
38.18
37.91
37.41
36.45
34.92
32.81
30.29
27.52
24.67
21.79
18.88
15.97
13.06
10.18
7.31
4.37
1.2
-2.34
-6.28
-10.48
-14.76
-18.89
-22.74
-26.32
-29.75
-33.25
-37.03
-41.35
-46.36
-52.07
-58.14
-63.86
-68.16
-69.92
-68.29
-63.06
-54.76
-44.44
-33.38
-22.67
-12.99
-4.55
2.71
8.99
14.41
19.03
22.84
25.8
27.93
29.29
30.01
30.24
30.13
29.84
29.43
28.94
28.37
27.71
26.94
26.08
25.13
24.09
22.93
21.59
19.96
17.95
15.48
12.53
9.18
5.53
1.71
-2.19
-6.1
-10.0
-13.88
-17.82
-21.99
-26.65
-32.01
-38.02
-44.18
-49.54
-52.89
-53.13
-49.76
-43.0
-33.82
-23.55
-13.42
-4.25
3.65
10.38
16.17
21.21
25.53
29.11
31.89
33.91
35.24
36.01
36.3
36.17
35.66
34.83
33.81
32.76
31.85
31.17
30.72
30.38
29.89
28.98
27.42
25.09
22.1
18.65
15.05
11.55
8.3
5.22
2.13
-1.21
-4.97
-9.16
-13.68
-18.27
-22.71
-26.79
-30.44
-33.69
-36.73
-39.89
-43.59
-48.16
-53.58
-59.29
-64.17
-66.88
-66.29
-61.93
-54.26
-44.38
-33.67
-23.21
-13.6
-4.97
2.77
9.7
15.79
20.98
25.3
28.92
32.07
34.9
37.39
39.31
40.41
40.54
39.8
38.53
37.2
36.24
35.88
