50.92
49.21
47.97
47.24
46.78
46.24
45.28
43.74
41.66
39.21
36.58
33.93
31.3
28.64
25.83
22.77
19.35
15.54
11.41
7.17
3.07
-0.66
-3.96
-6.97
-10.04
-13.51
-17.6
-22.29
-27.31
-32.3
-36.91
-41.03
-44.75
-48.35
-52.21
-56.76
-62.35
-69.13
-76.87
-84.75
-91.39
-95.13
-94.54
-88.95
-78.76
-65.34
-50.55
-36.11
-23.13
-11.98
-2.48
5.73
12.93
19.22
24.58
28.98
32.42
34.96
36.62
37.4
37.32
36.48
35.09
33.52
32.13
31.26
31.02
31.26
31.6
31.54
30.64
28.74
25.95
22.63
19.23
16.02
13.07
10.13
6.87
2.94
-1.81
-7.26
-13.1
-18.89
-24.28
-29.09
-33.4
-37.52
-41.9
-47.0
-53.08
-60.02
-67.17
-73.33
-77.03
-76.97
-72.46
-63.79
-52.02
-38.72
-25.3
-12.69
-1.18
9.34
19.08
28.03
35.98
42.68
47.94
51.8
54.4
55.87
56.31
55.74
54.21
51.92
49.24
46.64
44.54
43.15
42.4
41.99
41.52
40.63
39.14
37.06
34.54
31.79
29.02
26.33
23.68
20.96
18.01
14.73
11.14
7.41
3.79
0.48
-2.52
-5.4
-8.51
-12.13
-16.37
-21.13
-26.17
-31.26
-36.25
-41.12
-45.95
-50.83
-55.9
-61.36
-67.52
-74.59
-82.48
-90.48
-97.28
-101.18
-100.64
-94.89
-84.25
-70.05
-54.16
-38.37
-23.81
-10.83
0.76
11.33
21.1
30.01
37.81
44.31
49.49
53.49
56.52
58.69
59.94
60.2
59.47
57.98
56.17
54.55
53.47
52.98
52.85
52.57
51.69
49.92
47.31
44.16
40.87
37.8
35.04
32.45
29.69
26.41
22.41
17.79
12.85
8.04
3.71
-0.06
-3.46
-6.89
-10.73
-15.19
-20.21
-25.57
-30.98
-36.27
-41.44
-46.57
-51.79
-57.17
-62.86
-69.08
-76.04
-83.74
-91.63
-98.51
-102.75
-102.85
-98.05
-88.67
-76.01
-61.81
-47.68
-34.62
-23.03
-12.86
-4.0
3.62
10.0
15.16
19.23
22.34
24.58
25.88
26.08
25.07
22.91
20.0
17.0
14.71
13.8
14.59
16.95
20.35
24.11
27.62
30.62
33.18
35.55
38.01
40.67
43.37
45.77
47.41
47.88
46.93
44.49
40.75
36.04
30.79
25.26
19.5
13.25
6.04
-2.46
-12.2
-22.5
-32.06
-39.41
-43.37
-43.63
-40.77
-36.04
-30.72
-25.7
-21.17
-16.74
-11.94
-6.51
-0.6
5.43
11.2
16.53
21.4
25.81
29.59
32.45
34.05
34.33
33.53
32.2
30.95
30.22
30.12
30.51
31.03
31.37
31.3
30.74
29.7
28.22
26.32
24.0
21.23
18.03
14.52
10.84
7.16
3.56
-0.02
-3.79
-7.97
-12.72
-18.02
-23.67
-29.39
-34.95
-40.27
-45.44
-50.73
-56.44
-62.94
-70.52
-79.25
-88.78
-98.13
-105.73
-109.74
-108.61
-101.72
-89.67
-74.09
-57.04
-40.33
-24.96
-11.11
1.57
13.43
24.61
34.92
44.05
51.79
58.11
63.09
66.82
69.36
70.72
70.98
70.37
69.25
68.03
67.05
66.48
66.28
66.25
66.06
65.46
64.31
62.64
60.6
58.37
56.05
53.66
51.11
48.28
45.11
41.65
38.02
34.34
30.71
27.13
23.52
19.79
15.84
11.69
7.4
3.1
-1.06
-4.96
-8.6
-12.06
-15.56
-19.31
-23.47
-28.05
-32.89
-37.73
-42.33
-46.55
-50.5
-54.45
-58.87
-64.26
-70.99
-79.03
-87.66
-95.45
-100.43
-100.69
-95.05
-83.55
-67.51
-49.1
-30.59
-13.65
0.99
13.4
24.07
33.46
41.79
49.02
55.04
59.75
63.08
64.95
65.23
63.81
60.68
56.04
50.31
44.05
37.79
31.98
26.93
22.79
19.62
17.39
16.0
15.24
14.9
14.74
14.56
14.29
13.95
13.62
13.45
13.53
13.85
14.28
14.6
14.53
13.93
12.79
11.23
9.41
7.32
4.77
1.41
-3.09
-8.82
-15.54
-22.75
-29.86
-36.48
-42.51
-48.18
-53.92
-60.13
-67.01
-74.28
-81.15
-86.29
-88.21
-85.71
-78.37
-66.78
-52.38
-37.05
-22.35
-9.23
2.09
11.96
20.8
28.98
36.56
43.38
49.21
53.79
56.97
58.7
59.11
58.44
57.02
55.22
53.43
52.02
51.23
51.16
51.7
52.57
53.36
53.67
53.28
52.12
50.26
47.79
44.81
41.45
37.85
34.22
30.73
27.44
24.19
20.81
17.09
13.01
8.71
4.36
0.09
-4.19
-8.68
-13.63
-19.14
-25.12
-31.27
-37.24
-42.75
-47.62
-51.81
-55.31
-58.16
-60.4
-62.26
-64.12
-66.67
-70.72
-76.94
-85.52
-95.78
-106.2
-114.66
-119.13
-118.22
-111.66
-100.2
-85.34
-68.74
-51.87
-35.76
-20.94
-7.55
4.57
15.73
26.19
36.0
44.84
52.09
57.03
59.16
58.41
55.25
50.58
45.53
41.23
38.53
37.85
38.99
41.18
43.33
44.36
43.68
41.3
37.82
34.05
30.62
27.87
25.86
24.59
24.19
24.82
26.48
28.78
30.98
32.28
32.12
30.48
27.71
24.35
20.67
16.6
11.84
6.09
-0.68
-8.14
-15.69
-22.73
-28.88
-34.08
-38.64
-43.16
-48.28
-54.58
-62.23
-70.81
-79.34
-86.35
-90.34
-90.17
-85.44
-76.63
-64.87
-51.62
-38.21
-25.64
-14.35
-4.38
4.47
12.49
19.86
26.6
32.58
37.56
41.33
43.81
45.04
45.2
44.53
43.27
41.67
39.98
38.42
37.21
36.42
35.97
35.6
34.94
33.66
31.64
28.96
25.91
22.8
19.8
16.86
13.74
10.1
5.74
0.67
-4.85
-10.42
-15.59
-20.04
-23.62
-26.5
-29.14
-32.26
-36.7
-43.05
-51.42
-61.06
-70.49
-77.74
-81.04
-79.34
-72.68
-62.02
-48.82
-34.54
-20.25
-6.63
5.96
17.27
27.11
35.43
42.3
47.96
52.65
56.46
59.37
61.26
62.07
61.85
60.77
59.03
56.81
54.36
51.87
49.49
47.22
44.84
41.92
38.03
32.97
26.92
20.42
14.19
8.8
4.47
1.02
-2.05
-5.25
-8.94
-13.19
-17.77
-22.24
-26.05
-28.74
-30.08
-30.2
-29.54
-28.71
-28.25
-28.51
-29.59
-31.46
-34.13
-37.74
-42.6
-48.98
-57.03
-66.6
-77.11
-87.57
-96.57
-102.61
-104.37
-101.2
-93.32
-81.76
-67.98
-53.38
-38.96
-25.24
-12.37
-0.41
10.59
20.56
29.48
37.41
44.37
50.3
55.02
58.31
60.09
60.48
59.86
58.69
57.46
56.52
56.1
56.19
56.67
57.28
57.69
57.57
56.7
54.98
52.5
49.44
46.01
42.36
38.54
34.56
30.41
26.17
21.92
17.74
13.64
9.52
5.22
0.61
-4.36
-9.64
-15.2
-21.08
-27.43
-34.45
-42.32
-50.98
-60.19
-69.55
-78.68
-87.34
-95.58
-103.8
-112.61
-122.62
-134.01
-146.21
-157.8
-166.78
-171.18
-169.79
-162.63
-150.96
-136.79
-122.23
-108.86
-97.38
-87.58
-78.37
-67.96
-54.21
-35.09
-9.38
22.74
59.37
97.17
132.08
160.35
179.49
188.75
189.09
182.58
171.79
159.07
146.25
134.52
124.5
116.42
110.24
105.75
102.51
99.99
97.57
94.69
91.04
86.53
81.39
75.96
70.56
65.25
59.78
53.63
46.29
37.51
27.41
16.47
5.15
-6.27
-17.71
-29.05
-39.7
-48.52
-54.0
-54.83
-50.51
-41.65
-29.78
-16.87
-4.57
6.21
15.43
23.62
31.4
39.07
46.39
52.69
57.12
59.04
58.21
54.99
50.12
44.49
38.86
33.69
29.18
25.32
22.01
19.01
15.94
12.17
7.12
0.52
-7.16
-14.74
-20.7
-23.87
-24.14
-22.65
-21.43
-22.56
-27.28
-35.62
-46.47
-58.22
-69.41
-79.21
-87.45
-94.33
-100.25
-105.62
-110.94
-116.75
-123.46
-131.0
-138.49
-144.3
-146.46
-143.35
-134.31
-119.92
-101.74
-81.78
-61.82
-43.11
-26.2
-11.13
2.35
14.61
25.93
36.47
46.06
54.35
60.84
65.22
67.51
68.15
67.88
67.47
67.47
68.08
69.13
70.21
70.89
70.86
70.04
68.48
66.34
63.79
60.94
57.87
54.61
51.17
47.5
43.54
39.25
34.62
29.76
24.78
19.77
14.7
9.31
3.33
-3.47
-11.1
-19.34
-27.75
-35.89
-43.42
-50.3
-56.79
-63.42
-70.89
-79.75
-90.12
-101.39
-112.11
-120.26
-123.79
-121.38
-112.85
-99.26
-82.5
-64.58
-47.1
-30.89
-16.19
-2.9
9.16
20.11
30.06
39.18
47.64
55.51
62.63
68.64
73.09
75.71
76.51
75.93
74.63
73.28
72.34
71.88
71.7
71.49
71.14
70.82
70.91
71.77
73.46
75.68
77.89
79.52
80.21
79.82
78.35
75.86
72.39
68.01
62.92
57.36
51.5
45.23
38.21
29.92
20.1
8.89
-3.1
-15.07
-26.41
-37.04
-47.46
-58.54
-71.12
-85.53
-101.26
-116.86
-130.2
-138.94
-141.19
-136.05
-123.81
-105.83
-84.11
-60.66
-37.21
-14.97
5.2
22.74
37.29
48.72
57.27
63.39
67.76
70.87
72.99
74.08
73.99
72.71
70.45
67.7
64.95
62.53
60.48
58.53
56.34
53.58
50.03
45.42
39.27
30.87
19.34
4.02
-15.19
-37.5
-61.23
-84.09
-103.71
-118.36
-127.41
-131.61
-132.84
-133.53
-135.99
-141.68
-150.77
-162.03
-173.11
-181.19
-183.72
-179.09
-167.08
-148.76
-126.15
-101.46
-76.68
-53.09
-31.39
-11.78
5.81
21.52
35.54
48.05
59.15
68.76
76.68
82.67
86.54
88.36
88.42
87.26
85.46
83.59
82.06
81.09
80.62
80.37
79.84
78.53
76.1
72.46
67.82
62.54
57.03
51.52
46.04
40.45
34.5
28.06
21.11
13.84
6.5
-0.67
-7.57
-14.23
-20.8
-27.48
-34.47
-42.05
-50.55
-60.2
-70.92
-81.98
-91.91
-98.72
-100.59
-96.46
-86.54
-72.14
-55.22
-37.58
-20.42
-4.19
11.09
25.42
38.62
50.32
60.21
68.18
74.42
79.18
82.69
85.0
86.08
85.96
84.77
82.82
80.5
78.13
75.91
73.91
72.05
70.23
68.29
66.04
63.3
59.9
55.77
50.96
45.69
40.22
34.81
29.65
24.75
19.98
15.1
9.81
3.89
-2.73
-9.94
-17.44
-24.86
-31.88
-38.37
-44.45
-50.52
-57.12
-64.85
-74.0
-84.41
-95.22
-104.95
-111.76
-114.02
-110.77
-102.11
-89.1
-73.41
-56.68
-40.18
-24.56
-10.04
3.37
15.62
26.58
36.03
43.76
49.68
53.78
56.18
57.15
57.03
56.24
55.11
53.85
52.49
51.0
49.31
47.43
45.44
43.36
41.11
38.45
35.04
30.61
25.05
18.52
11.46
4.36
-2.37
-8.61
-14.5
-20.4
-26.69
-33.7
-41.68
-50.75
-60.84
-71.45
-81.54
-89.57
-93.79
-92.87
-86.39
-75.04
-60.35
-44.11
-27.81
-12.3
2.11
15.39
27.44
38.09
47.11
54.38
59.94
63.94
66.5
67.74
67.71
66.58
64.65
62.34
60.07
58.18
56.79
55.82
55.01
53.99
52.35
49.74
46.02
41.33
36.03
30.61
25.39
20.4
15.37
9.88
3.56
-3.66
-11.57
-19.74
-27.77
-35.38
-42.53
-49.4
-56.33
-63.82
-72.34
-82.17
-93.12
-104.31
-114.22
-120.93
-122.8
-118.95
-109.6
-95.92
-79.65
-62.48
-45.64
-29.75
-14.94
-1.17
11.64
23.43
34.13
43.63
51.87
58.78
64.27
68.26
70.72
71.76
71.67
70.89
69.88
69.04
68.58
68.46
68.48
68.32
67.7
66.45
64.54
62.08
59.29
56.37
53.55
50.93
48.49
46.09
43.44
40.25
36.34
31.77
26.82
21.91
17.4
13.43
9.84
6.24
2.25
-2.37
-7.62
-13.31
-19.16
-24.92
-30.47
-35.79
-41.01
-46.33
-52.1
-58.69
-66.36
-74.89
-83.46
-90.66
-94.85
-94.68
-89.65
-80.24
-67.71
-53.61
-39.24
-25.41
-12.38
-0.2
11.07
21.26
30.16
37.6
43.59
48.21
51.57
53.71
54.6
54.24
52.71
50.26
47.19
43.89
40.65
37.64
34.92
32.44
30.05
27.57
24.74
21.31
17.05
11.89
5.96
-0.46
-6.97
-13.26
-19.15
-24.7
-30.04
-35.41
-40.92
-46.63
-52.38
-57.91
-62.93
-67.17
-70.56
-73.24
-75.63
-78.29
-81.77
-86.38
-91.9
-97.49
-101.74
-102.98
-99.8
-91.55
-78.56
-62.05
-43.71
-25.13
-7.41
8.9
23.67
36.87
48.45
58.35
66.55
73.2
78.49
82.56
85.42
86.99
87.35
86.77
85.78
85.0
84.83
85.33
86.15
86.67
86.25
84.42
81.02
76.15
70.1
63.21
55.83
48.15
40.19
31.86
22.95
13.3
2.9
-7.99
-18.96
-29.59
-39.6
-49.0
-58.03
-67.03
-76.33
-86.1
-96.39
-107.01
-117.37
-126.48
-132.9
-135.09
-131.89
-123.03
-109.32
-92.38
-74.14
-56.14
-39.25
-23.61
-9.01
4.75
17.69
29.56
40.06
48.98
56.21
61.78
65.74
68.19
69.27
69.16
68.19
66.74
65.23
64.03
63.31
63.01
62.82
62.28
60.98
58.74
55.69
52.2
48.65
45.24
41.91
38.37
34.38
29.86
24.97
19.99
15.15
10.51
5.92
1.15
-3.97
-9.47
-15.23
-21.08
-26.88
-32.57
-38.17
-43.73
-49.31
-54.99
-60.94
-67.46
-74.78
-82.9
-91.29
-98.78
-103.8
-104.88
-101.18
-92.85
-80.9
-66.83
-52.03
-37.46
-23.57
-10.48
1.71
12.86
22.78
31.41
38.77
45.0
50.13
54.11
56.82
58.19
58.36
57.62
56.4
55.09
53.9
52.91
52.05
51.19
50.22
49.0
47.42
45.44
43.06
40.39
37.54
34.58
31.5
28.17
24.46
20.35
15.97
11.55
7.32
3.35
-0.46
-4.37
-8.65
-13.47
-18.81
-24.47
-30.14
-35.55
-40.54
-45.14
-49.59
-54.28
-59.73
-66.29
-73.91
-81.95
-89.15
-93.97
-95.01
-91.48
-83.52
-72.05
-58.5
-44.32
-30.6
-17.94
-6.54
3.63
12.67
20.65
27.61
33.51
38.28
41.78
43.93
44.74
44.41
43.31
41.88
40.49
39.35
38.51
37.85
37.19
36.28
34.91
32.93
30.27
26.99
23.22
19.15
14.86
10.34
5.5
0.33
-5.12
-10.68
-16.09
-21.25
-26.2
-31.24
-36.74
-43.09
-50.47
-58.7
-67.08
-74.49
-79.53
-80.95
-78.0
-70.72
-59.99
-47.14
-33.57
-20.29
-7.83
3.66
14.17
23.64
31.88
38.67
43.93
47.8
50.53
52.4
53.57
54.07
53.81
52.77
51.04
48.9
46.75
44.91
43.56
42.57
41.55
40.05
37.72
34.47
30.51
26.26
22.13
18.39
15.04
11.84
8.42
4.46
-0.27
-5.81
-11.98
-18.51
-25.09
-31.41
-37.35
-42.93
-48.39
-54.15
-60.6
-68.0
-76.17
-84.37
-91.36
-95.69
-96.12
-92.1
-83.87
-72.4
-59.0
-44.86
-30.88
-17.5
-4.94
6.75
17.47
27.09
35.5
42.57
48.26
52.56
55.56
57.41
58.34
58.57
58.34
57.8
57.05
56.15
55.04
53.67
51.97
49.9
47.52
45.03
42.59
40.36
38.32
36.29
34.05
31.47
28.53
25.29
21.82
18.07
13.83
8.9
3.14
-3.37
-10.28
-17.15
-23.59
-29.41
-34.67
-39.66
-44.78
-50.46
-57.11
-64.93
-73.83
-83.21
-91.85
-98.15
-100.51
-97.93
-90.4
-78.93
-65.21
-50.97
-37.44
-25.13
-13.95
-3.54
6.35
15.71
24.3
31.79
37.92
42.57
45.77
47.64
48.38
48.21
47.33
45.91
44.07
41.95
39.7
37.48
35.43
33.58
31.77
29.71
27.04
23.51
19.04
13.84
8.24
2.59
-2.88
-8.09
-13.1
-18.06
-23.16
-28.64
-34.79
-41.88
-49.96
-58.64
-66.97
-73.6
-77.07
-76.33
-71.09
-61.94
-50.03
-36.75
-23.21
-10.16
2.04
13.23
23.25
31.96
39.2
44.92
49.15
52.04
53.77
54.51
54.4
53.56
52.12
50.28
48.27
46.35
44.72
43.42
42.25
40.87
38.92
36.14
32.51
28.23
23.54
18.65
13.6
8.26
2.47
-3.77
-10.34
-16.95
-23.25
-29.06
-34.41
-39.59
-45.04
-51.24
-58.56
-67.05
-76.26
-85.18
-92.34
-96.13
-95.33
-89.54
-79.37
-66.21
-51.71
-37.22
-23.47
-10.6
1.53
13.05
23.86
33.74
42.45
49.84
55.84
60.44
63.58
65.27
65.58
64.79
63.29
61.5
59.78
58.31
57.14
56.18
55.28
54.29
52.96
51.06
48.42
44.91
40.62
35.79
30.73
25.74
21.0
16.49
12.06
7.46
2.5
-2.93
-8.84
-15.11
-21.56
-28.0
-34.22
-40.14
-45.79
-51.45
-57.55
-64.6
-72.86
-82.12
-91.45
-99.34
-104.05
-104.2
-99.29
-89.82
-77.09
-62.64
-47.79
-33.28
-19.41
-6.22
6.25
17.85
28.32
37.52
45.36
51.86
57.03
60.84
63.23
64.23
63.95
62.67
60.74
58.55
56.48
54.8
53.61
52.83
52.11
51.03
49.13
46.15
42.12
37.32
32.23
27.32
22.83
18.67
14.52
9.94
4.63
-1.43
-7.98
-14.59
-20.92
-26.76
-32.17
-37.36
-42.62
-48.3
-54.78
-62.33
-70.94
-80.06
-88.46
-94.51
-96.58
-93.67
-85.83
-74.13
-60.21
-45.66
-31.52
-18.17
-5.54
6.44
17.62
27.64
36.1
42.79
47.81
51.39
53.78
55.06
55.22
54.29
52.48
50.19
47.92
46.03
44.6
43.41
42.03
40.1
37.4
33.95
29.98
25.71
21.29
16.71
11.88
6.72
1.22
-4.57
-10.54
-16.61
-22.72
-28.9
-35.24
-41.91
-49.17
-57.19
-65.96
-75.02
-83.39
-89.63
-92.28
-90.31
-83.49
-72.55
-58.84
-43.91
-29.02
-14.89
-1.73
10.48
21.75
32.03
41.14
48.94
55.31
60.22
63.66
65.69
66.39
65.96
64.65
62.74
60.53
58.34
56.44
55.0
53.99
53.15
52.03
50.16
47.19
43.08
38.08
32.64
27.24
22.19
17.53
13.01
8.23
2.8
-3.47
-10.5
-17.91
-25.18
-31.86
-37.77
-43.07
-48.22
-53.82
-60.39
-68.29
-77.48
-87.39
-96.85
-104.23
-107.85
-106.55
-100.04
-89.06
-75.1
-59.78
-44.42
-29.69
-15.75
-2.51
10.1
21.99
32.94
42.69
51.08
57.95
63.23
66.89
69.0
69.75
69.46
68.5
67.16
65.64
64.04
62.37
60.64
58.84
56.89
54.67
51.99
48.7
44.77
40.34
35.7
31.13
26.74
22.47
18.06
13.19
7.66
1.43
-5.31
-12.25
-19.05
-25.42
-31.24
-36.58
-41.69
-46.91
-52.65
-59.28
-67.03
-75.86
-85.23
-94.01
-100.64
-103.48
-101.4
-94.24
-82.84
-68.79
-53.79
-39.08
-25.27
-12.42
-0.37
10.91
21.33
30.67
38.72
45.37
50.56
54.22
56.31
56.88
56.08
54.24
51.78
49.16
46.76
44.8
43.27
41.98
40.61
38.82
36.41
33.33
29.7
25.63
21.2
16.38
11.12
5.44
-0.57
-6.65
-12.6
-18.31
-23.83
-29.37
-35.26
-41.85
-49.38
-57.92
-67.05
-75.86
-82.94
-86.73
-86.04
-80.49
-70.66
-57.85
-43.61
-29.13
-15.06
-1.57
11.28
23.28
33.98
42.89
49.72
54.55
57.73
59.68
60.68
60.81
60.03
58.34
55.93
53.21
50.65
48.66
47.38
46.57
45.72
44.19
41.55
37.74
33.14
28.35
23.93
20.09
16.59
12.9
8.41
2.78
-3.95
-11.38
-18.93
-26.14
-32.73
-38.73
-44.35
-49.99
-56.19
-63.43
-71.96
-81.48
-90.94
-98.64
-102.7
-101.71
-95.28
-84.18
-69.95
-54.31
-38.56
-23.4
-9.01
4.58
17.26
28.77
38.84
47.27
54.02
59.17
62.8
65.04
66.05
66.09
65.48
64.51
63.37
62.13
60.8
59.41
58.0
56.64
55.27
53.71
51.71
48.97
45.34
40.9
35.96
30.92
26.16
21.86
17.99
14.24
10.23
5.56
0.03
-6.33
-13.23
-20.29
-27.12
-33.52
-39.49
-45.24
-51.08
-57.36
-64.39
-72.39
-81.25
-90.38
-98.63
-104.48
-106.41
-103.49
-95.72
-84.02
-69.86
-54.75
-39.75
-25.38
-11.76
1.02
12.82
23.34
32.35
39.79
45.86
50.72
54.46
56.99
58.17
57.93
56.5
54.32
51.95
49.88
48.3
47.13
46.03
44.64
42.69
40.09
36.89
33.27
29.32
25.1
20.51
15.39
9.62
3.21
-3.66
-10.63
-17.3
-23.37
-28.73
-33.64
-38.56
-44.16
-51.0
-59.25
-68.51
-77.69
-85.17
-89.23
-88.64
-83.05
-73.08
-60.11
-45.7
-31.13
-17.12
-3.93
8.42
19.85
30.14
38.89
45.84
50.84
54.02
55.63
55.96
55.29
53.83
51.8
49.46
47.07
44.92
43.17
41.8
40.61
39.25
37.38
34.79
31.49
27.6
23.28
18.61
13.57
8.1
2.16
-4.18
-10.71
-17.19
-23.45
-29.41
-35.19
-41.1
-47.57
-55.04
-63.73
-73.41
-83.19
-91.59
-96.89
-97.63
-93.17
-83.91
-71.07
-56.25
-40.89
-25.94
-11.81
1.47
13.92
25.46
35.87
44.85
52.14
57.61
61.34
63.55
64.59
64.74
64.2
63.04
61.32
59.17
56.91
54.9
53.42
52.47
51.69
50.5
48.32
44.82
40.1
34.6
28.92
23.58
18.76
14.32
9.86
4.96
-0.63
-6.89
-13.6
-20.44
-27.12
-33.47
-39.44
-45.12
-50.81
-56.93
-64.04
-72.52
-82.25
-92.4
-101.41
-107.41
-108.77
-104.78
-95.77
-82.97
-68.0
-52.26
-36.63
-21.5
-7.0
6.72
19.42
30.79
40.62
48.86
55.62
61.04
65.23
68.21
69.98
70.59
70.17
68.96
67.32
65.61
64.14
63.06
62.28
61.52
60.38
58.56
55.91
52.54
48.71
44.67
40.59
36.44
32.1
27.45
22.49
17.29
12.0
6.72
1.42
-3.99
-9.65
-15.58
-21.68
-27.75
-33.61
-39.15
-44.45
-49.67
-55.08
-60.98
-67.64
-75.26
-83.72
-92.43
-100.2
-105.48
-106.74
-103.01
-94.28
-81.47
-66.16
-50.03
-34.35
-19.78
-6.46
5.7
16.77
26.63
35.1
42.0
47.31
51.12
53.58
54.83
55.0
54.21
52.66
50.64
48.46
46.39
44.58
42.97
41.44
39.78
37.84
35.53
32.83
29.79
26.44
22.8
18.78
14.28
9.21
3.58
-2.47
-8.66
-14.74
-20.51
-25.97
-31.33
-36.95
-43.26
-50.6
-58.9
-67.54
-75.25
-80.41
-81.51
-77.74
-69.3
-57.3
-43.38
-29.01
-15.12
-2.08
10.1
21.37
31.47
40.02
46.7
51.42
54.4
55.94
56.35
55.83
54.52
52.59
50.29
47.98
46.04
44.75
44.22
44.25
44.47
44.33
43.36
41.27
38.05
34.0
29.53
25.0
20.59
16.19
11.55
6.41
0.67
-5.55
-11.97
-18.3
-24.35
-30.1
-35.66
-41.19
-46.93
-53.17
-60.24
-68.33
-77.18
-85.87
-92.89
-96.49
-95.34
-89.05
-78.3
-64.6
-49.65
-34.81
-20.8
-7.79
4.3
15.58
26.0
35.39
43.55
50.32
55.6
59.35
61.59
62.43
62.05
60.72
58.85
56.82
55.05
53.83
53.23
53.08
53.03
52.65
51.59
49.68
46.98
43.7
40.12
36.53
33.13
30.03
27.17
24.38
21.41
17.98
13.96
9.44
4.68
-0.01
-4.41
-8.5
-12.48
-16.62
-21.18
-26.21
-31.59
-37.06
-42.38
-47.36
-52.02
-56.49
-61.06
-66.16
-72.21
-79.43
-87.59
-95.83
-102.68
-106.41
-105.64
-99.77
-89.32
-75.62
-60.4
-45.16
-30.75
-17.46
-5.16
6.29
16.85
26.34
34.57
41.45
47.03
51.43
54.7
56.83
57.79
57.6
56.46
54.72
52.79
51.04
49.68
48.7
47.98
47.27
46.32
44.92
43.02
40.63
37.9
34.98
31.96
28.82
25.43
21.67
17.49
13.03
8.53
4.25
0.32
-3.35
-7.0
-10.92
-15.3
-20.11
-25.2
-30.37
-35.49
-40.52
-45.52
-50.59
-55.85
-61.51
-67.81
-74.88
-82.41
-89.53
-94.82
-96.73
-94.22
-87.09
-76.18
-62.91
-48.77
-34.83
-21.61
-9.22
2.29
12.8
22.04
29.78
35.94
40.61
43.96
46.09
47.04
46.85
45.68
43.8
41.63
39.54
37.79
36.41
35.28
34.1
32.64
30.74
28.37
25.54
22.31
18.69
14.61
10.07
5.11
-0.16
-5.53
-10.86
-16.07
-21.19
-26.33
-31.65
-37.37
-43.72
-50.91
-58.92
-67.29
-75.01
-80.65
-82.8
-80.54
-73.84
-63.48
-50.78
-37.03
-23.2
-9.79
2.95
14.83
25.6
34.93
42.61
48.56
52.9
55.81
57.46
57.98
57.49
56.17
54.26
52.06
49.88
47.96
46.43
45.26
44.26
43.07
41.32
38.67
35.01
30.51
25.5
20.39
15.44
10.65
5.77
0.49
-5.37
-11.75
-18.34
-24.8
-30.91
-36.66
-42.26
-47.98
-54.11
-60.88
-68.52
-77.01
-85.94
-94.3
-100.55
-103.05
-100.63
-93.09
-81.27
-66.74
-51.16
-35.71
-20.98
-7.01
6.28
18.85
30.41
40.61
49.18
56.04
61.3
65.13
67.7
69.11
69.43
68.78
67.36
65.48
63.49
61.71
60.33
59.35
58.61
57.82
56.69
55.01
52.64
49.51
45.64
41.12
36.09
30.83
25.6
20.62
15.95
11.39
6.63
1.28
-4.83
-11.62
-18.74
-25.77
-32.37
-38.4
-43.96
-49.29
-54.72
-60.6
-67.3
-75.15
-84.12
-93.65
-102.44
-108.7
-110.7
-107.45
-99.02
-86.58
-71.84
-56.41
-41.36
-27.1
-13.63
-0.83
11.23
22.37
32.35
40.97
48.13
53.73
57.64
59.77
60.2
59.19
57.23
54.9
52.71
50.94
49.62
48.53
47.3
45.62
43.28
40.3
36.83
33.1
29.23
25.25
21.0
16.26
10.9
4.92
-1.48
-7.98
-14.28
-20.18
-25.77
-31.34
-37.42
-44.53
-52.99
-62.61
-72.54
-81.27
-87.03
-88.3
-84.31
-75.3
-62.44
-47.31
-31.41
-15.81
-1.09
12.5
24.78
35.53
44.57
51.81
57.3
61.2
63.62
64.61
64.16
62.46
59.92
57.18
54.9
53.54
53.25
53.82
54.77
55.51
55.58
54.74
52.99
50.52
47.64
44.74
42.06
39.53
36.76
33.17
28.23
21.6
13.29
3.63
-6.54
-16.41
-25.54
-33.98
-41.96
-49.79
-57.79
-66.31
-75.72
-85.67
-95.9
-106.37
-117.23
-128.21
-138.36
-146.15
-149.73
-147.18
-135.77
-113.79
-81.41
-41.16
2.92
46.14
83.99
113.03
131.58
141.34
145.22
145.84
144.81
143.49
143.42
146.25
153.41
156.26
148.79
130.26
105.31
79.4
56.3
37.95
24.69
15.35
7.48
-0.34
-9.06
-18.3
-28.54
-39.26
-49.32
-57.79
-64.19
-68.47
-69.54
-66.42
-59.05
-48.76
-37.6
-27.08
-19.39
-16.1
-17.65
-22.54
-28.68
-34.44
-39.45
-43.96
-48.5
-53.55
-59.0
-64.36
-68.65
-71.24
-72.13
-72.1
-72.24
-73.83
-78.19
-86.02
-96.98
-109.25
-119.93
-125.95
-125.01
-116.26
-100.43
-79.46
-55.69
-31.33
-8.21
12.28
29.19
42.09
51.18
57.21
61.06
63.46
64.72
64.81
63.67
61.41
58.41
55.1
51.75
48.44
45.17
42.05
39.31
37.18
35.7
34.58
33.3
31.36
28.52
24.94
21.0
17.06
13.25
9.38
5.12
0.26
-5.17
-10.85
-16.39
-21.52
-26.29
-31.08
-36.51
-43.22
-51.63
-61.67
-72.63
-83.17
-91.57
-96.14
-95.78
-90.27
-80.31
-67.19
-52.28
-36.71
-21.13
-5.91
8.74
22.51
35.05
45.98
55.07
62.24
67.5
70.95
72.66
72.74
71.3
68.6
65.05
61.19
57.6
54.76
52.89
51.82
51.13
50.26
48.77
46.55
43.76
40.75
37.77
34.84
31.73
28.12
23.79
18.72
13.16
7.45
1.89
-3.37
-8.43
-13.51
-18.95
-25.13
-32.37
-40.77
-49.95
-58.97
-66.36
-70.49
-70.06
-64.61
-54.7
-41.67
-27.2
-12.77
0.67
12.74
23.48
33.06
41.62
49.18
55.66
60.93
64.9
67.5
68.75
68.77
67.75
65.95
63.63
61.12
58.66
56.49
54.71
53.33
52.16
50.96
49.42
47.34
44.65
41.42
37.86
34.21
30.71
27.49
24.58
21.83
19.02
15.86
12.25
8.22
4.04
0.03
-3.6
-6.87
-10.09
-13.64
-17.83
-22.66
-27.85
-32.96
-37.64
-41.78
-45.53
-49.21
-53.13
-57.57
-62.75
-68.82
-75.77
-83.2
-90.23
-95.46
-97.35
-94.74
-87.26
-75.54
-60.94
-45.09
-29.4
-14.74
-1.45
10.47
21.11
30.48
38.59
45.38
50.88
55.13
58.19
60.11
60.95
60.78
59.77
58.15
56.2
54.21
52.44
51.02
49.93
48.99
47.91
46.39
44.24
41.5
38.35
35.07
31.82
28.64
25.41
21.98
18.24
14.24
10.05
5.8
1.51
-2.86
-7.38
-12.07
-16.94
-21.86
-26.66
-31.16
-35.26
-38.96
-42.41
-45.99
-50.15
-55.36
-61.77
-69.02
-76.17
-81.8
-84.43
-83.0
-77.19
-67.54
-55.26
-41.76
-28.31
-15.73
-4.39
5.67
14.53
22.22
28.74
34.01
38.01
40.75
42.31
42.85
42.58
41.72
40.5
39.13
37.78
36.56
35.57
34.77
34.05
33.24
32.15
30.59
28.43
25.64
22.27
18.38
14.07
9.41
4.53
-0.44
-5.36
-10.12
-14.68
-19.08
-23.47
-28.02
-32.94
-38.47
-44.79
-51.8
-59.01
-65.44
-69.8
-70.81
-67.7
-60.5
-50.07
-37.76
-24.92
-12.55
-1.17
9.08
18.23
26.3
33.28
39.11
43.79
47.37
49.91
51.46
52.1
51.91
51.02
49.64
47.99
46.28
44.69
43.31
42.15
41.14
40.14
38.99
37.52
35.64
33.26
30.36
26.95
23.1
18.97
14.77
10.69
6.82
3.11
-0.64
-4.67
-9.16
-14.15
-19.48
-24.92
-30.19
-35.1
-39.56
-43.61
-47.37
-51.1
-55.11
-59.8
-65.41
-71.85
-78.49
-84.17
-87.47
-87.11
-82.46
-73.77
-62.07
-48.76
-35.13
-22.04
-9.81
1.51
11.88
21.14
29.08
35.52
40.51
44.29
47.15
49.29
50.74
51.43
51.28
50.34
48.83
47.09
45.48
44.28
43.56
43.22
43.0
42.52
41.47
39.66
37.18
34.32
31.43
28.82
26.51
24.26
21.7
18.54
14.75
10.58
6.44
2.65
-0.73
-3.91
-7.28
-11.12
-15.51
-20.29
-25.17
-29.91
-34.38
-38.62
-42.71
-46.78
-50.98
-55.53
-60.7
-66.66
-73.2
-79.63
-84.71
-86.99
-85.28
-79.14
-69.03
-56.2
-42.25
-28.57
-16.01
-4.82
5.13
14.1
22.21
29.39
35.5
40.42
44.16
46.79
48.48
49.34
49.48
49.0
48.04
46.84
45.64
44.63
43.86
43.21
42.45
41.33
39.7
37.6
35.18
32.68
30.26
27.95
25.63
23.07
20.07
16.57
12.68
8.65
4.78
1.22
-2.11
-5.48
-9.22
-13.54
-18.41
-23.58
-28.68
-33.39
-37.5
-41.06
-44.26
-47.45
-51.03
-55.36
-60.55
-66.28
-71.71
-75.6
-76.64
-73.92
-67.26
-57.32
-45.31
-32.65
-20.48
-9.49
0.13
8.46
15.68
21.89
27.11
31.32
34.51
36.71
37.98
38.4
38.04
36.98
35.33
33.27
31.02
28.8
26.81
25.16
23.86
22.81
21.81
20.62
18.99
16.72
13.69
9.9
5.49
0.7
-4.17
-8.87
-13.21
-17.23
-21.09
-25.1
-29.65
-35.05
-41.37
-48.25
-54.87
-60.01
-62.4
-61.15
-56.07
-47.77
-37.42
-26.35
-15.6
-5.74
3.13
11.08
18.22
24.53
29.89
34.17
37.3
39.26
40.08
39.79
38.52
36.5
34.08
31.66
29.59
28.03
26.92
26.03
25.1
23.94
22.44
20.63
18.54
16.19
13.51
10.44
6.9
2.9
-1.44
-5.97
-10.49
-14.85
-18.98
-22.94
-26.92
-31.2
-36.18
-42.1
-49.05
-56.62
-63.97
-69.89
-73.09
-72.62
-68.18
-60.21
-49.73
-37.96
-26.02
-14.68
-4.37
4.77
12.73
19.61
25.5
30.55
34.89
38.57
41.57
43.78
45.08
45.48
45.06
44.06
42.79
41.54
40.5
39.71
39.11
38.54
37.84
36.92
35.73
34.23
32.39
30.15
27.51
24.49
21.22
17.81
14.38
10.96
7.53
4.01
0.31
-3.63
-7.87
-12.39
-17.12
-21.96
-26.72
-31.21
-35.35
-39.17
-42.95
-47.14
-52.23
-58.47
-65.61
-72.79
-78.63
-81.6
-80.59
-75.24
-66.07
-54.22
-41.09
-27.87
-15.31
-3.8
6.54
15.68
23.59
30.28
35.84
40.4
44.08
46.95
48.94
49.91
49.81
48.7
46.84
44.62
42.45
40.61
39.24
38.25
37.46
36.64
35.59
34.16
32.28
29.91
27.08
23.84
20.33
16.73
13.23
9.97
6.94
3.99
0.83
-2.83
-7.14
-12.03
-17.22
-22.31
-26.99
-31.17
-34.97
-38.72
-42.78
-47.47
-52.95
-59.16
-65.73
-71.91
-76.64
-78.74
-77.27
-71.83
-62.78
-51.15
-38.29
-25.48
-13.52
-2.71
6.98
15.67
23.35
29.85
34.94
38.49
40.58
41.44
41.37
40.64
39.46
37.99
36.36
34.72
33.2
31.84
30.62
29.47
28.24
26.83
25.13
23.06
20.55
17.6
14.2
10.43
6.39
2.16
-2.21
-6.69
-11.26
-15.89
-20.55
-25.26
-30.21
-35.66
-41.82
-48.57
-55.3
-60.92
-64.12
-63.84
-59.6
-51.72
-41.06
-28.85
-16.2
-4.0
7.22
17.15
25.69
32.86
38.78
43.61
47.49
50.48
52.55
53.66
53.82
53.12
51.77
50.05
48.2
46.44
44.9
43.63
42.59
41.64
40.63
39.35
37.64
35.44
32.76
29.71
26.42
23.05
19.65
16.19
12.6
8.84
4.92
0.95
-2.94
-6.73
-10.51
-14.49
-18.82
-23.52
-28.4
-33.19
-37.58
-41.46
-44.96
-48.4
-52.2
-56.79
-62.39
-68.95
-75.89
-82.19
-86.44
-87.31
-83.87
-76.03
-64.56
-50.81
-36.25
-22.02
-8.79
3.24
14.1
23.85
32.48
39.91
46.05
50.8
54.08
55.9
56.41
55.88
54.65
53.06
51.3
49.52
47.83
46.35
45.27
44.68
44.51
44.49
44.22
43.32
41.63
39.21
36.27
33.05
29.71
26.35
23.01
19.68
16.35
12.94
9.36
5.55
1.59
-2.35
-6.09
-9.45
-12.46
-15.31
-18.25
-21.5
-25.14
-29.07
-33.07
-36.93
-40.5
-43.73
-46.71
-49.64
-52.86
-56.77
-61.74
-67.83
-74.59
-81.0
-85.63
-87.03
-84.2
-77.01
-66.17
-52.96
-38.84
-25.0
-12.18
-0.76
9.15
17.51
24.34
29.75
33.97
37.27
39.83
41.67
42.64
42.58
41.43
39.4
36.87
34.36
32.28
30.83
29.97
29.46
28.97
28.2
26.92
25.02
22.48
19.36
15.8
11.95
7.96
3.93
-0.14
-4.32
-8.66
-13.16
-17.73
-22.24
-26.62
-30.99
-35.66
-41.02
-47.27
-54.14
-60.81
-65.94
-68.15
-66.48
-60.7
-51.44
-39.87
-27.32
-14.92
-3.37
7.03
16.19
24.1
30.74
36.11
40.24
43.22
45.24
46.49
47.13
47.29
46.96
46.11
44.67
42.7
40.41
38.13
36.18
34.75
33.75
32.88
31.74
29.96
27.4
24.12
20.38
16.49
12.75
9.26
5.96
2.58
-1.2
-5.63
-10.7
-16.19
-21.7
-26.82
-31.32
-35.27
-38.96
-42.81
-47.26
-52.62
-58.95
-65.91
-72.7
-78.12
-80.8
-79.66
-74.27
-64.99
-52.91
-39.4
-25.73
-12.74
-0.86
9.8
19.22
27.37
34.23
39.84
44.34
47.91
50.66
52.61
53.71
53.92
53.31
52.07
50.52
48.96
47.67
46.77
46.26
45.97
45.69
45.16
44.16
42.61
40.58
38.2
35.64
33.01
30.31
27.51
24.57
21.47
18.21
14.82
11.33
7.79
4.27
0.88
-2.35
-5.44
-8.54
-11.86
-15.56
-19.65
-24.01
-28.39
-32.56
-36.42
-39.97
-43.38
-46.82
-50.48
-54.56
-59.27
-64.8
-71.04
-77.52
-83.24
-86.85
-87.04
-82.99
-74.74
-63.12
-49.52
-35.36
-21.71
-9.12
2.25
12.37
