-85.69
-96.4
-106.13
-112.92
-114.92
-111.04
-101.33
-86.94
-69.75
-51.6
-33.88
-17.27
-1.94
12.11
24.83
36.04
45.58
53.41
59.69
64.66
68.5
71.3
73.01
73.57
73.06
71.73
70.02
68.37
67.16
66.55
66.48
66.68
66.78
66.41
65.31
63.3
60.39
56.72
52.53
48.15
43.89
39.88
36.09
32.22
27.95
23.04
17.52
11.69
5.94
0.63
-4.18
-8.7
-13.33
-18.52
-24.5
-31.23
-38.4
-45.57
-52.4
-58.74
-64.7
-70.58
-76.75
-83.58
-91.38
-100.26
-109.96
-119.61
-127.74
-132.49
-132.14
-125.76
-113.55
-96.88
-77.75
-58.14
-39.4
-22.14
-6.39
8.02
21.2
33.07
43.44
52.17
59.2
64.57
68.38
70.82
72.08
72.36
71.91
70.93
69.64
68.3
67.12
66.26
65.72
65.31
64.71
63.57
61.59
58.68
54.91
50.45
45.49
40.2
34.7
29.09
23.47
17.93
12.5
7.07
1.39
-4.78
-11.61
-18.99
-26.56
-33.83
-40.46
-46.39
-51.96
-57.74
-64.35
-72.18
-81.21
-90.87
-100.05
-107.29
-111.05
-110.13
-104.06
-93.23
-78.79
-62.21
-44.93
-27.98
-11.99
2.73
15.92
27.37
36.9
44.48
50.22
54.33
57.01
58.38
58.55
57.65
55.89
53.6
51.06
48.48
45.98
43.55
41.23
39.0
36.84
34.6
32.02
28.75
24.52
19.26
13.13
6.45
-0.42
-7.19
-13.74
-20.12
-26.51
-33.19
-40.5
-48.8
-58.32
-68.89
-79.76
-89.51
-96.36
-98.62
-95.3
-86.48
-73.24
-57.28
-40.26
-23.45
-7.46
7.48
21.3
33.78
44.66
53.66
60.7
65.89
69.44
71.52
72.17
71.42
69.37
66.37
62.94
59.71
57.19
55.55
54.59
53.78
52.54
50.38
47.15
43.02
38.35
33.47
28.54
23.49
18.08
12.07
5.33
-2.02
-9.76
-17.6
-25.28
-32.68
-39.81
-46.83
-54.06
-61.99
-71.07
-81.49
-92.86
-104.0
-113.06
-118.02
-117.3
-110.38
-97.93
-81.56
-63.22
-44.57
-26.66
-9.88
5.67
19.99
33.0
44.53
54.44
62.7
69.28
74.2
77.49
79.2
79.49
78.65
77.1
75.29
73.63
72.42
71.75
71.5
71.41
71.14
70.35
68.85
66.55
63.55
60.03
56.22
52.33
48.52
44.85
41.2
37.37
33.13
28.29
22.85
16.96
10.9
4.98
-0.61
-5.86
-10.95
-16.21
-21.94
-28.3
-35.21
-42.41
-49.58
-56.48
-63.07
-69.53
-76.2
-83.48
-91.73
-101.18
-111.72
-122.72
-132.91
-140.52
-143.74
-141.25
-132.8
-119.24
-102.23
-83.64
-64.92
-46.88
-29.73
-13.47
1.9
16.16
29.02
40.24
49.73
57.54
63.71
68.27
71.2
72.49
72.28
70.9
68.85
66.72
64.98
63.88
63.33
62.94
62.16
60.52
57.74
53.91
49.33
44.38
39.36
34.33
29.18
23.69
17.69
11.15
4.17
-3.08
-10.43
-17.76
-25.03
-32.22
-39.37
-46.61
-54.19
-62.45
-71.58
-81.26
-90.48
-97.61
-100.82
-98.75
-91.05
-78.5
-62.73
-45.53
-28.39
-12.09
3.04
16.93
29.41
40.2
48.99
55.67
60.38
63.42
65.17
65.92
65.8
64.88
63.13
60.61
57.52
54.16
50.98
48.43
46.74
45.88
45.47
44.92
43.61
41.19
37.65
33.28
28.47
23.5
18.4
13.01
7.12
0.63
-6.37
-13.65
-20.95
-28.09
-35.05
-41.91
-48.85
-56.12
-63.98
-72.6
-81.82
-90.93
-98.63
-103.29
-103.4
-98.17
-87.81
-73.48
-56.82
-39.4
-22.28
-5.98
9.39
23.82
37.22
49.41
60.13
69.21
76.52
82.02
85.69
87.54
87.65
86.2
83.5
80.03
76.43
73.33
71.23
70.33
70.4
70.9
71.1
70.42
68.52
65.39
61.19
56.21
50.68
44.8
38.66
32.29
25.62
18.59
11.14
3.37
-4.52
-12.28
-19.82
-27.23
-34.85
-43.07
-52.15
-62.11
-72.69
-83.5
-94.21
-104.56
-114.44
-123.74
-132.46
-140.62
-148.13
-154.57
-159.11
-160.51
-157.48
-149.24
-135.81
-118.17
-97.83
-76.32
-54.75
-33.69
-13.35
6.11
24.42
41.15
55.97
68.69
79.3
87.87
94.42
98.98
101.58
102.33
101.46
99.34
96.4
93.07
89.7
86.5
83.5
80.6
77.64
74.43
70.88
66.92
62.49
57.57
52.13
46.2
39.94
33.58
27.41
21.58
16.08
10.68
5.1
-0.96
-7.57
-14.62
-21.83
-28.89
-35.6
-41.95
-48.07
-54.23
-60.72
-67.88
-75.94
-84.89
-94.28
-103.05
-109.69
-112.58
-110.56
-103.38
-91.79
-77.28
-61.54
-45.91
-31.13
-17.32
-4.4
7.73
18.92
28.91
37.43
44.33
49.61
53.37
55.77
56.97
57.17
56.59
55.46
53.97
52.24
50.3
48.17
45.85
43.34
40.69
37.88
34.84
31.4
27.38
22.64
17.18
11.12
4.73
-1.76
-8.14
-14.36
-20.5
-26.76
-33.36
-40.58
-48.66
-57.7
-67.43
-77.09
-85.27
-90.31
-90.68
-85.6
-75.33
-61.08
-44.6
-27.58
-11.21
3.92
17.7
30.24
41.64
51.89
60.89
68.56
74.81
79.6
82.93
84.84
85.41
84.84
83.38
81.44
79.41
77.69
76.48
75.8
75.35
74.61
73.0
69.99
65.36
59.13
51.68
43.56
35.35
27.47
20.06
12.93
5.72
-1.98
-10.42
-19.55
-29.13
-38.78
-48.21
-57.22
-65.82
-74.16
-82.46
-91.05
-100.26
-110.43
-121.75
-134.01
-146.35
-157.25
-164.76
-167.06
-163.16
-153.2
-138.4
-120.53
-101.29
-81.76
-62.36
-43.05
-23.81
-4.88
13.19
29.73
44.19
56.35
66.23
74.05
80.07
84.55
87.73
89.84
91.18
92.08
92.86
93.75
94.79
95.83
96.6
96.85
96.41
95.24
93.34
90.7
87.26
82.96
77.84
72.08
65.91
59.58
53.11
46.33
38.93
30.6
21.26
11.08
0.48
-10.08
-20.24
-29.81
-38.78
-47.24
-55.34
-63.33
-71.56
-80.41
-90.07
-100.18
-109.64
-116.79
-119.85
-117.65
-110.17
-98.45
-84.25
-69.3
-54.78
-41.19
-28.59
-16.96
-6.46
2.61
9.96
15.47
19.27
21.56
22.56
22.37
21.06
18.61
15.11
10.7
5.64
0.38
-4.48
-8.32
-10.64
-11.32
-10.68
-9.41
-8.32
-8.02
-8.69
-10.17
-12.08
-14.11
-16.16
-18.32
-20.79
-23.71
-27.2
-31.42
-36.56
-42.82
-50.13
-57.93
-65.04
-69.85
-70.75
-66.71
-57.66
-44.44
-28.6
-11.76
4.73
20.1
33.99
46.29
56.93
65.74
72.58
77.33
80.05
80.92
80.2
78.2
75.24
71.65
67.81
64.04
60.66
57.8
55.43
53.33
51.17
48.59
45.35
41.39
36.83
31.88
26.7
21.3
15.57
9.34
2.51
-4.84
-12.48
-20.06
-27.3
-34.04
-40.31
-46.33
-52.47
-59.22
-67.03
-76.15
-86.29
-96.45
-104.95
-109.84
-109.49
-103.22
-91.54
-75.93
-58.26
-40.16
-22.66
-6.17
9.23
23.47
36.35
47.57
56.92
64.35
69.97
74.0
76.64
78.03
78.31
77.62
76.12
74.04
71.63
69.16
66.89
64.95
63.31
61.72
59.82
57.25
53.83
49.62
44.85
39.79
34.68
29.59
24.47
19.27
13.92
8.37
2.58
-3.5
-9.93
-16.67
-23.64
-30.63
-37.47
-44.01
-50.24
-56.3
-62.5
-69.25
-77.0
-86.02
-96.03
-106.08
-114.52
-119.49
-119.43
-113.7
-102.82
-88.15
-71.43
-54.13
-37.15
-20.88
-5.44
8.94
21.94
33.2
42.51
49.9
55.56
59.66
62.29
63.42
63.1
61.49
59.0
56.17
53.48
51.24
49.5
48.05
46.6
44.88
42.71
40.08
37.03
33.6
29.73
25.3
20.18
14.3
7.77
0.85
-6.15
-12.96
-19.44
-25.62
-31.72
-38.07
-45.08
-53.11
-62.3
-72.31
-82.11
-90.11
-94.46
-93.69
-87.24
-75.71
-60.54
-43.59
-26.42
-10.02
5.21
19.19
31.83
42.97
52.33
59.7
65.08
68.69
70.83
71.82
71.82
70.87
68.96
66.14
62.69
59.07
55.84
53.45
52.03
51.35
50.88
50.01
48.23
45.32
41.35
36.63
31.52
26.38
21.42
16.6
11.71
6.41
0.48
-6.12
-13.17
-20.29
-27.1
-33.37
-39.09
-44.46
-49.86
-55.75
-62.6
-70.7
-80.03
-89.96
-99.22
-106.15
-109.07
-106.88
-99.46
-87.61
-72.81
-56.65
-40.43
-24.91
-10.41
3.0
15.3
26.44
36.33
44.87
51.98
57.6
61.72
64.34
65.64
65.85
65.3
64.28
63.02
61.63
60.2
58.75
57.32
55.84
54.17
52.1
49.44
46.11
42.15
37.73
33.06
28.32
23.63
19.1
14.73
10.51
6.34
2.01
-2.68
-7.89
-13.6
-19.65
-25.79
-31.78
-37.47
-42.81
-47.89
-52.91
-58.19
-64.15
-71.11
-79.1
-87.57
-95.36
-100.86
-102.5
-99.28
-91.12
-78.87
-63.93
-47.84
-31.79
-16.51
-2.29
10.73
22.48
32.8
41.49
48.39
53.49
56.87
58.7
59.21
58.59
57.0
54.57
51.46
47.95
44.35
40.96
37.92
35.09
32.07
28.41
23.76
18.08
11.62
4.81
-1.87
-8.03
-13.39
-17.82
-21.31
-24.01
-26.32
-28.81
-32.2
-37.18
-44.12
-52.85
-62.48
-71.54
-78.27
-81.15
-79.35
-73.02
-63.17
-51.24
-38.57
-26.07
-14.14
-2.85
7.72
17.41
25.91
32.95
38.42
42.42
45.18
46.96
47.98
48.26
47.74
46.2
43.46
39.49
34.47
28.88
23.34
18.37
14.19
10.63
7.2
3.35
-1.35
-7.0
-13.45
-20.39
-27.53
-34.68
-41.8
-48.88
-55.93
-62.98
-70.16
-77.77
-86.13
-95.34
-104.98
-113.89
-120.37
-122.67
-119.6
-110.93
-97.51
-80.87
-62.69
-44.34
-26.67
-10.07
5.25
19.11
31.32
41.74
50.41
57.49
63.2
67.69
70.92
72.77
73.13
72.13
70.1
67.55
64.99
62.7
60.71
58.79
56.55
53.68
50.02
45.66
40.89
36.08
31.48
27.13
22.81
18.18
12.97
7.06
0.64
-6.01
-12.6
-18.98
-25.17
-31.38
-37.96
-45.32
-53.68
-62.9
-72.23
-80.25
-85.22
-85.63
-80.78
-71.06
-57.74
-42.51
-26.84
-11.67
2.6
15.84
27.91
38.53
47.42
54.44
59.67
63.32
65.62
66.73
66.69
65.54
63.41
60.49
57.09
53.48
49.89
46.47
43.32
40.46
37.85
35.33
32.59
29.21
24.89
19.48
13.15
6.28
-0.67
-7.31
-13.57
-19.67
-26.07
-33.3
-41.75
-51.5
-62.05
-72.33
-80.81
-85.78
-85.88
-80.53
-70.12
-55.94
-39.72
-23.13
-7.38
6.95
19.7
30.95
40.75
49.04
55.64
60.42
63.37
64.6
64.38
63.1
61.17
58.97
56.77
54.71
52.77
50.84
48.78
46.43
43.7
40.57
37.03
33.05
28.57
23.53
17.87
11.62
4.9
-2.1
-9.21
-16.25
-23.18
-29.97
-36.72
-43.62
-50.91
-58.92
-67.82
-77.34
-86.61
-94.16
-98.24
-97.4
-91.05
-79.65
-64.61
-47.7
-30.52
-14.12
1.03
14.82
27.19
38.03
47.15
54.45
60.01
64.07
66.91
68.7
69.51
69.33
68.18
66.24
63.88
61.54
59.66
58.47
57.91
57.64
57.19
56.13
54.24
51.54
48.22
44.52
40.55
36.23
31.45
26.06
20.1
13.75
7.29
0.95
-5.16
-11.05
-16.8
-22.48
-28.12
-33.82
-39.8
-46.35
-53.61
-61.26
-68.35
-73.34
-74.55
-70.78
-61.8
-48.45
-32.35
-15.29
1.31
16.65
30.46
42.77
53.54
62.67
69.97
75.41
79.12
81.37
82.36
82.2
80.86
78.35
74.85
70.84
66.93
63.68
61.35
59.79
58.48
56.78
54.16
50.42
45.73
40.5
35.25
30.35
25.97
21.99
18.11
13.93
9.15
3.67
-2.38
-8.67
-14.86
-20.69
-26.18
-31.62
-37.61
-44.87
-53.98
-64.99
-77.14
-88.82
-97.93
-102.52
-101.55
-95.21
-84.94
-72.71
-60.42
-49.22
-39.47
-30.98
-23.41
-16.6
-10.56
-5.39
-1.1
2.35
5.02
6.81
7.49
6.83
4.75
1.5
-2.37
-6.13
-9.09
-10.77
-11.08
-10.3
-9.07
-8.14
-8.27
-9.92
-13.19
-17.76
-23.04
-28.37
-33.22
-37.38
-40.94
-44.26
-47.82
-52.09
-57.44
-63.9
-71.06
-77.99
-83.35
-85.7
-83.95
-77.82
-67.87
-55.37
-41.82
-28.47
-16.04
-4.65
5.86
15.72
24.96
33.46
40.94
47.17
51.96
55.22
56.93
57.13
55.95
53.66
50.66
47.45
44.49
42.12
40.45
39.34
38.42
37.29
35.55
33.0
29.59
25.5
20.97
16.22
11.37
6.38
1.12
-4.51
-10.49
-16.62
-22.62
-28.24
-33.4
-38.29
-43.22
-48.61
-54.78
-61.87
-69.83
-78.26
-86.35
-92.91
-96.55
-96.11
-91.02
-81.61
-68.96
-54.57
-39.81
-25.55
-12.14
0.43
12.23
23.16
32.98
41.36
48.12
53.22
56.82
59.15
60.46
60.91
60.63
59.69
58.21
56.37
54.48
52.84
51.68
50.99
50.55
49.95
48.81
46.92
44.35
41.36
38.26
35.23
32.26
29.13
25.61
21.56
17.06
12.37
7.79
3.55
-0.32
-3.99
-7.76
-11.9
-16.57
-21.72
-27.14
-32.59
-37.88
-42.99
-48.07
-53.3
-58.94
-65.17
-72.14
-79.89
-88.11
-96.08
-102.55
-106.03
-105.23
-99.58
-89.46
-76.09
-61.08
-45.86
-31.3
-17.7
-4.99
6.9
17.91
27.78
36.24
43.11
48.37
52.12
54.53
55.78
56.0
55.33
53.9
51.92
49.68
47.51
45.74
44.5
43.66
42.86
41.63
39.62
36.73
33.16
29.32
25.61
22.24
19.17
16.09
12.59
8.32
3.16
-2.74
-8.97
-15.06
-20.65
-25.67
-30.32
-35.01
-40.16
-46.1
-53.0
-60.87
-69.43
-77.97
-85.35
-90.08
-90.8
-86.68
-77.84
-65.35
-50.78
-35.77
-21.44
-8.34
3.48
14.13
23.62
31.82
38.52
43.59
47.05
49.04
49.77
49.48
48.41
46.8
44.88
42.87
40.94
39.18
37.58
36.05
34.42
32.52
30.22
27.48
24.28
20.61
16.45
11.75
6.5
0.78
-5.23
-11.34
-17.34
-23.17
-28.88
-34.65
-40.72
-47.38
-54.87
-63.23
-72.1
-80.54
-87.14
-90.34
-88.95
-82.69
-72.22
-58.97
-44.53
-30.08
-16.17
-2.87
9.89
21.98
32.99
42.44
49.97
55.52
59.33
61.67
62.79
62.81
61.81
59.96
57.54
54.96
52.63
50.82
49.59
48.8
48.07
46.92
44.93
41.87
37.82
33.13
28.29
23.68
19.45
15.44
11.29
6.61
1.18
-4.98
-11.65
-18.47
-25.15
-31.44
-37.3
-42.79
-48.12
-53.64
-59.79
-67.01
-75.53
-85.09
-94.82
-103.19
-108.45
-109.06
-104.31
-94.51
-80.83
-64.87
-48.11
-31.53
-15.61
-0.54
13.54
26.41
37.81
47.55
55.62
62.05
66.97
70.44
72.5
73.23
72.78
71.37
69.33
67.09
65.07
63.61
62.8
62.42
61.98
60.96
59.05
56.31
53.05
49.62
46.17
42.55
38.49
33.79
28.5
22.93
17.49
12.42
7.72
3.15
-1.65
-6.94
-12.84
-19.27
-25.99
-32.73
-39.24
-45.34
-51.01
-56.45
-62.03
-68.31
-75.79
-84.69
-94.72
-104.85
-113.47
-118.74
-119.19
-114.15
-104.02
-90.05
-73.9
-57.06
-40.58
-24.9
-10.17
3.54
16.09
27.23
36.76
44.58
50.73
55.26
58.23
59.64
59.59
58.35
56.36
54.18
52.27
50.81
49.72
48.73
47.51
45.8
43.55
40.75
37.46
33.75
29.63
25.05
19.95
14.22
7.85
0.91
-6.4
-13.77
-20.96
-27.84
-34.55
-41.48
-49.13
-57.92
-67.86
-78.29
-87.9
-94.92
-97.66
-95.02
-86.88
-74.13
-58.31
-41.12
-23.93
-7.6
7.5
21.24
33.56
44.37
53.52
60.89
66.45
70.2
72.29
72.87
72.18
70.54
68.29
65.79
63.37
61.28
59.65
58.42
57.36
56.07
54.1
51.12
47.03
42.01
36.45
30.72
25.09
19.52
13.73
7.39
0.29
-7.52
-15.7
-23.8
-31.42
-38.42
-44.97
-51.48
-58.57
-66.84
-76.61
-87.63
-98.88
-108.64
-114.85
-115.8
-110.68
-99.85
-84.7
-67.04
-48.55
-30.32
-12.92
3.45
18.6
32.28
44.25
54.38
62.73
69.46
74.71
78.49
80.75
81.54
81.07
79.73
78.02
76.35
74.98
73.95
73.12
72.22
70.99
69.19
66.73
63.66
60.11
56.29
52.28
48.09
43.57
38.58
33.06
27.12
20.98
14.85
8.82
2.79
-3.47
-10.15
-17.28
-24.65
-31.97
-38.98
-45.58
-51.91
-58.25
-64.93
-72.23
-80.44
-89.71
-99.92
-110.47
-120.12
-127.1
-129.63
-126.47
-117.47
-103.6
-86.62
-68.38
-50.3
-33.07
-16.92
-1.85
12.04
24.55
35.44
44.63
52.19
58.2
62.7
65.58
66.79
66.43
64.82
62.48
59.95
57.62
55.62
53.9
52.25
50.47
48.39
45.89
42.89
39.31
35.1
30.19
24.56
18.25
11.39
4.21
-3.04
-10.16
-17.06
-23.79
-30.6
-37.79
-45.74
-54.73
-64.78
-75.44
-85.66
-93.9
-98.45
-97.99
-91.98
-80.94
-66.2
-49.46
-32.25
-15.54
0.22
14.91
28.47
40.67
51.18
59.65
65.93
70.12
72.54
73.6
73.63
72.84
71.34
69.23
66.74
64.21
62.01
60.34
59.08
57.84
56.06
53.31
49.43
44.57
39.12
33.49
27.93
22.48
16.99
11.24
5.03
-1.68
-8.87
-16.39
-24.04
-31.64
-39.03
-46.19
-53.16
-60.2
-67.71
-76.12
-85.69
-96.18
-106.6
-115.35
-120.52
-120.58
-114.82
-103.64
-88.33
-70.56
-51.9
-33.47
-15.9
0.53
15.64
29.27
41.27
51.57
60.19
67.2
72.61
76.43
78.64
79.33
78.73
77.24
75.34
73.47
71.91
70.76
69.89
69.07
67.99
66.37
64.03
60.93
57.11
52.71
47.9
42.76
37.38
31.76
25.96
20.02
14.04
8.03
1.97
-4.27
-10.82
-17.77
-25.07
-32.53
-39.87
-46.84
-53.33
-59.49
-65.74
-72.67
-80.84
-90.51
-101.36
-112.29
-121.57
-127.29
-127.85
-122.62
-112.01
-97.31
-80.16
-62.01
-43.86
-26.22
-9.39
6.35
20.58
32.93
43.17
51.31
57.54
62.04
64.93
66.3
66.26
65.09
63.22
61.16
59.3
57.88
56.82
55.83
54.49
52.44
49.53
45.87
41.8
37.67
33.72
29.88
25.85
21.2
15.63
9.06
1.68
-6.12
-13.98
-21.63
-28.99
-36.15
-43.35
-50.96
-59.36
-68.81
-79.07
-89.24
-97.73
-102.63
-102.33
-96.15
-84.61
-69.24
-52.01
-34.59
-17.97
-2.42
12.13
25.78
38.32
49.36
58.43
65.29
69.96
72.71
73.92
73.95
73.12
71.72
69.97
68.11
66.3
64.67
63.23
61.91
60.58
59.04
57.14
54.75
51.77
48.13
43.81
38.87
33.48
27.85
22.27
16.91
11.78
6.68
1.28
-4.73
-11.5
-18.9
-26.58
-34.11
-41.14
-47.52
-53.39
-59.07
-64.99
-71.6
-79.33
-88.43
-98.71
-109.35
-118.81
-125.11
-126.42
-121.69
-111.08
-95.88
-77.98
-59.16
-40.63
-22.86
-5.95
10.02
24.76
37.8
48.79
57.65
64.59
70.0
74.12
77.03
78.6
78.78
77.7
75.8
73.7
71.95
70.88
70.41
70.18
69.68
68.46
66.37
63.47
60.06
56.47
52.89
49.33
45.61
41.47
36.69
31.25
25.3
19.16
13.17
7.61
2.54
-2.23
-7.02
-12.19
-17.96
-24.39
-31.26
-38.28
-45.16
-51.72
-57.96
-64.01
-70.17
-76.79
-84.29
-92.93
-102.6
-112.55
-121.36
-127.19
-128.31
-123.75
-113.61
-99.08
-81.93
-63.87
-46.08
-29.11
-13.11
1.9
15.68
27.93
38.32
46.75
53.35
58.36
61.98
64.28
65.24
64.86
63.27
60.8
57.96
55.23
53.01
51.4
50.25
49.16
47.66
45.42
42.34
38.62
34.55
30.43
26.34
22.09
17.36
11.86
5.48
-1.62
-9.07
-16.49
-23.59
-30.26
-36.62
-42.9
-49.45
-56.69
-64.94
-74.21
-83.97
-92.98
-99.53
-101.88
-98.84
-90.27
-77.12
-61.0
-43.69
-26.55
-10.32
4.69
18.41
30.68
41.28
49.96
56.66
61.46
64.62
66.37
66.95
66.53
65.3
63.44
61.19
58.87
56.72
54.94
53.57
52.44
51.2
49.44
46.78
43.11
38.54
33.41
28.12
22.92
17.88
12.85
7.52
1.61
-5.01
-12.29
-19.94
-27.56
-34.78
-41.41
-47.5
-53.44
-59.77
-67.09
-75.79
-85.77
-96.25
-105.79
-112.55
-114.78
-111.41
-102.43
-88.85
-72.32
-54.56
-36.85
-19.89
-3.95
10.87
24.39
36.38
46.61
55.02
61.67
66.73
70.31
72.49
73.35
73.05
71.87
70.2
68.33
66.5
64.78
63.12
61.49
59.84
58.17
56.44
54.55
52.3
49.46
45.86
41.48
36.46
31.08
25.67
20.45
15.45
10.51
5.34
-0.36
-6.72
-13.65
-20.89
-28.08
-34.98
-41.48
-47.68
-53.81
-60.15
-67.01
-74.7
-83.44
-93.23
-103.46
-112.87
-119.65
-121.99
-118.65
-109.58
-95.83
-79.29
-61.83
-44.82
-28.84
-13.9
0.21
13.49
25.69
36.4
45.22
52.01
56.81
59.82
61.27
61.38
60.33
58.37
55.76
52.86
49.97
47.3
44.87
42.57
40.2
37.56
34.54
31.04
26.92
22.05
16.28
9.57
2.0
-6.19
-14.74
-23.36
-31.82
-39.94
-47.64
-55.03
-62.44
-70.36
-79.21
-88.95
-98.89
-107.67
-113.75
-115.96
-113.93
-108.23
-99.96
-90.2
-79.42
-67.4
-53.41
-36.73
-17.26
4.2
25.95
45.86
62.01
73.39
80.13
83.44
84.99
86.23
87.71
88.95
88.84
86.37
81.19
73.67
64.65
54.99
45.36
36.08
27.25
18.94
11.2
3.98
-2.82
-9.07
-14.1
-16.3
-13.75
-5.11
9.41
27.49
44.95
56.84
58.97
49.41
29.59
3.32
-24.56
-49.59
-68.61
-80.21
-84.79
-84.03
-79.97
-72.99
-62.65
-48.26
-29.61
-7.37
16.46
38.76
56.28
67.02
72.87
77.35
83.76
93.61
106.38
119.79
130.67
136.25
135.3
130.67
125.7
122.44
121.05
120.9
121.6
123.48
127.54
121.92
101.41
69.04
33.44
1.4
-24.77
-45.22
-60.56
-71.58
-79.63
-84.55
-87.55
-90.98
-97.07
-106.11
-116.28
-125.0
-130.54
-133.65
-133.74
-131.17
-127.02
-122.15
-116.41
-108.68
-97.74
-83.18
-65.79
-45.87
-24.87
-4.98
11.78
24.58
33.92
41.09
47.54
51.75
53.89
54.15
52.89
50.81
48.83
47.66
47.16
46.27
43.52
38.49
31.57
24.1
17.75
13.93
13.04
14.4
16.62
18.2
18.42
16.91
13.56
8.24
0.7
-9.17
-21.02
-33.91
-46.48
-57.33
-65.88
-72.61
-78.72
-85.28
-92.41
-98.87
-102.47
-101.03
-93.43
-80.29
-63.66
-46.07
-29.45
-14.53
-0.99
11.82
24.23
35.92
46.11
54.07
59.47
62.47
63.53
63.07
61.38
58.57
54.83
50.52
46.16
42.29
39.26
37.1
35.53
34.06
32.21
29.66
26.32
22.29
17.74
12.84
7.69
2.42
-2.87
-8.12
-13.3
-18.49
-23.83
-29.48
-35.52
-42.0
-48.98
-56.51
-64.57
-72.83
-80.47
-86.19
-88.47
-86.03
-78.41
-66.05
-50.28
-32.71
-14.82
2.46
18.7
33.74
47.37
59.15
68.51
74.93
78.1
78.07
75.12
69.76
62.63
54.57
46.64
40.0
35.75
34.53
36.3
40.23
44.98
49.11
51.56
51.91
50.4
47.56
43.87
39.58
34.61
28.83
22.23
15.09
7.81
0.7
-6.12
-12.85
-19.74
-26.87
-34.04
-40.83
-46.8
-51.82
-56.15
-60.39
-65.07
-70.21
-75.03
-78.01
-77.42
-72.0
-61.49
-46.83
-29.74
-12.17
4.32
18.77
30.79
40.33
47.45
52.39
55.6
57.77
59.67
61.79
64.12
66.09
66.9
65.99
63.34
59.53
55.4
51.61
48.4
45.53
42.63
39.45
36.04
32.61
29.32
26.05
22.5
18.32
13.42
7.92
2.15
-3.58
-9.07
-14.21
-18.91
-23.07
-26.69
-30.0
-33.52
-37.9
-43.7
-51.0
-59.28
-67.43
-73.97
-77.45
-76.83
-71.74
-62.56
-50.25
-36.11
-21.44
-7.31
5.55
16.71
25.96
33.23
38.56
42.11
44.13
44.9
44.74
43.86
42.34
40.15
37.2
33.54
29.41
25.32
21.9
19.59
18.5
18.24
18.09
17.35
15.62
12.93
9.65
6.24
2.9
-0.47
-4.11
-8.2
-12.72
-17.4
-21.95
-26.16
-30.05
-33.78
-37.59
-41.7
-46.28
-51.47
-57.28
-63.55
-69.71
-74.77
-77.54
-76.89
-72.24
-63.72
-52.15
-38.74
-24.73
-11.12
1.43
12.53
21.97
29.62
35.43
39.48
41.94
43.06
43.08
42.19
40.58
38.42
35.92
33.33
30.91
28.87
27.32
26.25
25.43
24.57
23.33
21.49
19.0
16.0
12.71
9.33
5.95
2.52
-1.1
-5.02
-9.26
-13.67
-18.03
-22.1
-25.77
-29.06
-32.2
-35.5
-39.3
-43.87
-49.3
-55.3
-61.23
-66.04
-68.5
-67.54
-62.65
-54.07
-42.76
-30.09
-17.43
-5.76
4.38
12.89
19.84
25.3
29.31
31.91
33.19
33.36
32.69
31.42
29.73
27.73
25.53
23.25
21.02
18.97
17.15
15.53
14.01
12.5
10.93
9.27
7.47
5.46
3.08
0.22
-3.17
-6.98
-11.0
-14.98
-18.71
-22.11
-25.24
-28.32
-31.67
-35.62
-40.36
-45.74
-51.15
-55.62
-57.99
-57.28
-53.06
-45.53
-35.48
-23.97
-12.09
-0.68
9.68
18.62
25.91
31.35
34.89
36.65
36.92
36.15
34.76
33.1
31.31
29.43
27.4
25.24
23.04
20.99
19.28
18.04
17.24
16.65
15.97
14.88
13.18
10.86
8.04
4.92
1.65
-1.67
-5.04
-8.5
-12.14
-16.01
-20.12
-24.42
-28.8
-33.14
-37.41
-41.68
-46.14
-50.97
-56.18
-61.48
-66.25
-69.62
-70.72
-68.89
-63.89
-55.93
-45.63
-33.85
-21.51
-9.44
1.77
11.73
20.19
27.05
32.27
35.89
38.05
39.0
39.04
38.46
37.47
36.23
34.81
33.28
31.76
30.4
29.36
28.74
28.48
28.35
27.99
26.99
25.1
22.29
18.82
15.13
11.61
8.47
5.63
2.82
-0.32
-4.07
-8.49
-13.45
-18.7
-23.98
-29.03
-33.71
-37.94
-41.78
-45.39
-49.09
-53.16
-57.65
-62.15
-65.8
-67.46
-66.05
-61.05
-52.65
-41.69
-29.35
-16.79
-4.86
5.87
15.14
22.77
28.69
32.89
35.52
36.79
37.01
36.47
35.46
34.2
32.83
31.41
29.94
28.42
26.87
25.4
24.11
23.04
22.1
21.09
19.7
17.69
14.92
11.36
7.15
2.5
-2.31
-6.99
-11.3
-15.13
-18.53
-21.71
-24.96
-28.6
-32.88
-37.97
-43.79
-49.95
-55.68
-59.91
-61.52
-59.73
-54.33
-45.83
-35.25
-23.74
-12.32
-1.65
7.95
16.29
23.22
28.61
32.37
34.54
35.35
35.1
34.1
32.54
30.51
28.01
25.11
21.99
18.98
16.47
14.74
13.83
13.44
12.98
11.77
9.26
5.28
0.08
-5.77
-11.65
-17.12
-22.08
-26.75
-31.53
-36.84
-42.93
-49.9
-57.56
-65.46
-72.85
-78.68
-81.88
-81.6
-77.46
-69.81
-59.51
-47.71
-35.5
-23.68
-12.62
-2.47
6.82
15.29
23.05
30.17
36.76
42.92
48.66
53.88
58.42
62.09
64.79
66.52
67.41
67.62
67.25
66.29
64.7
62.42
59.44
55.8
51.56
46.8
41.58
36.02
30.24
24.4
18.56
12.72
6.82
0.84
-5.13
-10.88
-16.19
-20.99
-25.47
-30.13
-35.57
-42.22
-50.0
-58.17
-65.38
-70.05
-70.78
-66.91
-58.61
-46.9
-33.2
-18.96
-5.32
7.09
17.98
27.31
35.09
41.27
45.83
48.75
50.14
50.23
49.29
47.67
45.64
43.45
41.23
39.11
37.18
35.51
34.16
33.06
32.04
30.85
29.22
26.95
23.98
20.42
16.48
12.36
8.18
3.93
-0.47
-5.08
-9.92
-14.89
-19.9
-24.87
-29.86
-35.04
-40.67
-46.82
-53.27
-59.39
-64.13
-66.28
-64.8
-59.19
-49.72
-37.38
-23.57
-9.7
3.17
14.47
24.06
31.96
38.2
42.76
45.61
46.84
46.71
45.57
43.82
41.77
39.66
37.63
35.8
34.24
32.99
32.02
31.19
30.3
29.13
27.49
25.31
22.61
19.49
16.06
12.39
8.5
4.32
-0.21
-5.13
-10.37
-15.7
-20.85
-25.58
-29.84
-33.8
-37.85
-42.52
-48.14
-54.67
-61.48
-67.45
-71.17
-71.46
-67.63
-59.75
-48.58
-35.27
-21.07
-7.0
6.17
17.98
28.11
36.36
42.66
47.08
49.88
51.39
51.95
51.86
51.29
50.4
49.33
48.2
47.15
46.26
45.5
44.73
43.8
42.58
41.04
39.24
37.3
35.27
33.15
30.84
28.21
25.18
21.78
18.09
14.22
10.27
6.26
2.15
-2.05
-6.33
-10.62
-14.87
-19.06
-23.2
-27.31
-31.4
-35.46
-39.52
-43.69
-48.18
-53.29
-59.14
-65.52
-71.68
-76.39
-78.3
-76.32
-70.07
-59.98
-47.18
-33.05
-18.85
-5.46
6.65
17.31
26.48
34.05
39.93
44.1
46.68
47.93
48.16
47.69
46.7
45.3
43.58
41.68
39.79
38.14
36.89
36.03
35.38
34.61
33.39
31.53
28.99
25.97
22.77
19.67
16.83
14.19
11.5
8.44
4.8
0.59
-3.97
-8.54
-12.83
-16.73
-20.3
-23.76
-27.4
-31.49
-36.24
-41.6
-47.19
-52.21
-55.54
-56.02
-52.87
-45.98
-36.0
-24.11
-11.63
0.3
10.95
19.98
27.31
33.0
37.14
39.84
41.25
41.51
40.79
39.28
37.18
34.73
32.19
29.78
27.67
25.93
24.53
23.38
22.32
21.2
19.83
18.09
15.87
13.18
10.04
6.52
2.65
-1.53
-5.92
-10.39
-14.75
-18.84
-22.61
-26.14
-29.61
-33.24
-37.21
-41.66
-46.65
-52.14
-57.87
-63.26
-67.35
-69.05
-67.43
-62.07
-53.28
-41.98
-29.41
-16.75
-4.9
5.67
14.77
22.35
28.43
33.0
36.09
37.83
38.4
38.08
37.16
35.92
34.59
33.26
31.98
30.71
29.48
28.29
27.21
26.25
25.37
24.42
23.2
21.5
19.19
16.27
12.87
9.27
5.72
2.39
-0.73
-3.82
-7.16
-10.94
-15.21
-19.76
-24.27
-28.39
-31.95
-34.98
-37.78
-40.74
-44.23
-48.54
-53.71
-59.51
-65.36
-70.37
-73.53
-73.85
-70.66
-63.83
-53.82
-41.61
-28.43
-15.48
-3.65
6.62
15.27
22.51
28.62
33.76
37.94
41.06
43.02
43.8
43.56
42.53
41.03
39.31
37.59
36.04
34.79
33.9
33.31
32.85
32.31
31.49
30.27
28.61
26.48
23.9
20.91
17.62
14.25
11.03
8.09
5.39
2.74
-0.11
-3.33
-6.92
-10.68
-14.4
-17.88
-21.11
-24.16
-27.21
-30.42
-33.94
-37.93
-42.53
-47.78
-53.55
-59.32
-64.22
-67.12
-66.92
-62.95
-55.27
-44.63
-32.35
-19.77
-8.0
2.38
11.28
18.83
25.17
30.31
34.2
36.73
37.98
38.14
37.51
36.43
35.14
33.75
32.31
30.85
29.41
28.1
26.97
26.01
25.1
24.05
22.69
20.92
18.75
16.21
13.34
10.14
6.61
2.76
-1.29
-5.4
-9.41
-13.23
-16.85
-20.38
-24.0
-27.9
-32.26
-37.23
-42.9
-49.09
-55.27
-60.53
-63.72
-63.75
-59.98
-52.46
-41.93
-29.61
-16.8
-4.58
6.3
15.51
22.94
28.69
32.92
35.86
37.76
38.84
39.3
39.26
38.83
38.08
37.04
35.77
34.34
32.88
31.58
30.59
29.94
29.45
28.8
27.59
25.56
22.69
19.2
15.47
11.85
8.52
5.47
2.49
-0.68
-4.24
-8.33
-12.91
-17.8
-22.76
-27.51
-31.87
-35.78
-39.38
-43.0
-47.08
-52.03
-57.94
-64.42
-70.52
-74.91
-76.25
-73.61
-66.81
-56.49
-43.89
-30.43
-17.31
-5.26
5.48
14.96
23.3
30.49
36.44
41.04
44.26
46.27
47.32
47.71
47.61
47.1
46.2
44.97
43.54
42.11
40.86
39.89
39.19
38.58
37.88
36.86
35.34
33.2
30.41
27.04
23.27
19.35
15.49
11.82
8.31
4.84
1.22
-2.68
-6.89
-11.34
-15.89
-20.43
-24.86
-29.16
-33.3
-37.33
-41.37
-45.63
-50.4
-55.86
-61.92
-68.01
-73.06
-75.82
-75.14
-70.46
-62.01
-50.72
-37.92
-24.89
-12.53
-1.26
8.87
17.91
25.84
32.45
37.52
40.95
42.89
43.7
43.85
43.68
43.32
42.69
41.64
40.15
38.37
36.61
35.23
34.39
34.01
33.77
33.26
32.13
30.22
27.61
24.48
21.07
17.54
13.99
10.45
6.85
3.16
-0.7
-4.77
-9.07
-13.53
-18.01
-22.32
-26.32
-29.92
-33.18
-36.28
-39.5
-43.17
-47.61
-52.92
-58.83
-64.55
-68.87
-70.45
-68.29
-62.07
-52.3
-40.13
-26.94
-13.96
-2.0
8.54
17.59
25.17
31.36
36.24
39.89
42.44
44.01
44.73
44.71
44.07
42.96
41.56
40.02
38.53
37.19
36.08
35.23
34.62
34.15
33.63
32.86
31.57
29.62
26.94
23.65
19.99
16.25
12.64
9.23
5.92
2.52
-1.17
-5.23
-9.67
-14.34
-19.07
-23.68
-28.02
-31.98
-35.52
-38.73
-41.84
-45.28
-49.49
-54.84
-61.25
-68.1
-74.21
-78.15
-78.64
-75.0
-67.34
-56.54
-43.82
-30.42
-17.22
-4.73
6.84
17.35
26.63
34.52
40.91
45.89
49.61
52.34
54.24
55.47
56.14
56.4
56.45
56.46
56.49
56.45
56.12
55.28
53.76
51.6
48.98
46.14
43.32
40.65
38.06
35.32
32.13
28.22
23.47
17.97
12.0
5.88
-0.12
-5.82
-11.17
-16.15
-20.77
-25.02
-28.95
-32.73
-36.59
-40.79
-45.49
-50.7
-56.34
-62.33
-68.68
-75.43
-82.5
-89.46
-95.42
-99.18
-99.6
-95.96
-88.27
-77.19
-63.85
-49.52
-35.41
-22.52
-11.58
-2.99
3.2
7.24
9.51
10.36
10.01
8.6
6.48
4.27
2.86
3.08
5.31
9.21
13.79
17.81
20.36
21.23
20.94
20.5
20.76
21.99
23.83
25.55
26.5
26.53
25.94
25.2
24.52
23.69
22.14
19.37
15.1
9.38
2.36
-5.81
-14.88
-24.24
-32.69
-38.54
-40.22
-36.82
-28.63
-17.0
-3.84
9.03
20.32
29.32
35.77
39.56
40.67
39.26
35.72
30.71
25.06
19.56
14.78
10.96
8.03
5.83
4.22
3.15
2.57
2.26
1.82
0.85
-0.68
-2.14
-2.36
-0.23
4.66
11.59
18.87
24.55
27.18
26.11
21.35
13.05
1.22
-13.91
-31.15
-47.88
-60.5
-65.74
-62.41
-52.2
-38.99
-26.94
-18.54
-13.53
-9.6
-4.09
4.35
15.13
26.34
36.19
43.98
50.24
55.92
61.46
66.37
69.68
70.62
69.24
66.5
63.78
62.32
62.74
64.98
68.53
72.75
77.31
82.33
88.27
95.52
103.94
112.49
119.33
122.31
119.79
111.29
97.68
80.85
62.92
45.52
29.33
14.22
-0.29
-14.45
-27.99
-40.1
-49.64
-55.47
-56.8
-53.41
-45.68
-34.55
-21.26
-7.13
6.69
19.31
30.12
38.71
44.87
48.62
50.17
49.98
48.49
45.97
42.38
37.44
30.86
22.69
13.47
4.2
-3.99
-10.18
-13.92
-15.4
-15.38
-15.06
-15.73
-18.41
-23.48
-30.53
-38.54
-46.41
-53.39
-59.45
-65.1
-71.0
-77.52
-84.59
-92.04
-99.86
-108.41
-118.17
-129.26
-141.04
-152.06
-160.51
-164.82
-164.04
-157.99
-147.05
-131.92
-113.52
-93.0
-71.74
-51.21
-32.61
-16.64
-3.38
7.61
16.89
24.92
31.93
38.04
43.42
48.35
53.23
58.27
63.4
68.27
72.45
75.77
78.48
81.07
83.93
86.95
89.36
90.0
87.88
82.78
75.51
67.69
61.09
56.83
54.99
54.52
53.72
50.75
44.25
33.64
19.41
3.0
-13.38
-27.36
-37.08
-41.88
-42.48
-40.69
-38.66
-37.96
-39.04
-41.3
-43.6
-44.92
-44.84
-43.51
-41.4
-39.0
-36.71
-34.89
-33.88
-33.91
-34.86
-36.24
-37.37
-37.74
-37.3
-36.51
-36.03
-36.33
-37.29
-38.04
-37.02
-32.46
-23.05
-8.8
8.53
25.64
38.79
45.24
44.44
38.18
29.51
21.04
13.74
6.84
-1.12
-10.82
-21.49
-31.53
-39.85
-46.91
-54.53
-64.58
-77.27
-90.43
-100.31
-103.36
-98.11
-85.87
-69.98
-54.03
-40.28
-29.06
-19.44
-10.4
-1.74
5.85
11.54
15.24
17.92
21.23
26.65
34.69
44.59
54.78
63.59
70.05
74.17
76.71
78.67
80.74
83.06
85.37
87.27
88.44
88.78
88.27
86.95
84.76
81.66
77.61
72.63
66.87
60.54
53.94
47.38
41.01
34.79
28.48
21.73
14.27
6.01
-2.9
-12.18
-21.58
-30.93
-40.22
-49.45
-58.7
-68.07
-77.74
-87.79
-98.01
-107.64
-115.37
-119.73
-119.55
-114.46
-105.01
-92.46
-78.42
-64.32
-51.21
-39.61
-29.6
-20.95
-13.25
-6.07
0.85
7.44
13.33
17.98
21.01
22.41
22.56
22.07
21.45
20.96
20.54
20.05
19.41
18.72
18.16
17.74
17.2
16.01
13.71
10.14
5.59
0.67
-4.02
-8.15
-11.7
-14.81
-17.42
-19.17
-19.51
-18.11
-15.2
-11.69
-8.88
-7.96
-9.64
-14.03
-20.71
-29.1
-38.45
-47.78
-55.81
-60.95
-61.7
-57.22
-47.72
-34.58
-19.84
-5.52
7.04
17.42
25.89
32.92
38.72
43.12
45.8
46.64
46.0
44.69
43.61
43.47
44.4
46.03
47.67
48.74
48.96
48.49
47.77
47.26
47.24
47.68
48.27
48.55
48.13
46.81
44.69
42.12
39.52
37.23
35.35
33.76
32.15
30.28
27.94
25.07
21.65
17.68
13.16
8.19
2.97
-2.2
-7.23
-12.38
-18.3
-25.88
-35.79
-48.13
-62.18
-76.51
-89.3
-98.79
-103.74
-103.64
-98.78
-90.09
-78.88
-66.53
-54.25
-42.94
-33.08
-24.84
-18.1
-12.55
-7.75
-3.27
1.26
5.96
10.75
15.36
19.46
22.78
25.21
26.79
27.7
28.17
28.41
28.56
28.69
28.75
28.63
28.19
27.25
25.68
23.47
20.78
18.06
15.92
14.99
15.67
17.88
21.06
24.27
26.55
27.21
26.05
23.35
19.66
15.52
11.22
6.77
1.96
-3.41
-9.32
-15.47
-21.29
-26.2
-29.73
-31.76
-32.53
-32.75
-33.45
-35.89
-41.31
-50.39
-62.83
-77.13
-90.79
-100.92
-105.22
-102.58
-93.37
-79.08
-61.72
-43.22
-25.15
-8.67
5.34
16.19
23.5
27.4
28.63
28.5
28.65
30.57
35.06
41.96
50.11
57.74
63.26
65.95
66.23
65.42
64.89
65.27
66.13
66.23
64.42
60.3
54.52
48.38
43.09
39.2
36.52
34.49
32.65
30.82
28.95
26.8
23.86
19.64
14.06
7.71
1.62
-3.26
-6.63
-8.99
-11.4
-14.8
-19.42
-24.6
-29.07
-31.51
-31.11
-27.81
-22.11
-14.83
-6.63
2.19
11.58
21.57
31.96
42.14
51.28
58.58
63.61
66.49
67.76
68.12
68.03
67.51
66.08
63.03
57.91
50.86
42.77
35.0
28.88
25.11
23.42
22.78
21.82
19.48
15.39
9.83
3.42
-3.33
-10.25
-17.48
-25.23
-33.47
-41.89
-50.0
-57.38
-63.81
-69.39
-74.42
-79.28
-84.46
-90.44
-97.66
-106.31
-115.98
-125.5
-132.99
-136.41
-134.21
-125.98
-112.64
-96.05
-78.39
-61.38
-45.95
-32.22
-19.95
-8.88
1.01
9.55
16.59
22.14
26.42
29.79
32.42
34.34
35.26
34.89
33.08
30.06
26.42
22.93
20.25
18.66
17.88
17.27
16.01
13.48
9.39
3.89
-2.6
-9.53
-16.42
-22.96
-29.05
-34.81
-40.61
-46.93
-54.33
-63.17
-73.46
-84.54
-95.06
-103.24
-107.22
-105.73
-98.48
-86.25
-70.64
-53.54
-36.58
-20.81
-6.73
5.54
16.06
24.88
32.07
37.72
42.0
45.11
47.21
48.39
48.69
48.13
46.78
44.79
42.44
40.04
37.94
36.42
35.49
34.93
34.2
32.61
29.56
24.78
18.41
10.97
3.18
-4.36
-11.37
-17.98
-24.69
-32.16
-40.99
-51.35
-62.73
-73.83
-82.72
-87.35
-86.18
-78.7
-65.62
-48.65
-29.92
-11.36
5.72
20.73
33.61
44.55
53.76
61.38
67.42
71.9
74.84
76.34
76.65
76.12
75.11
73.89
72.63
71.3
69.83
68.12
66.13
63.88
61.37
58.54
55.25
51.3
46.53
40.85
34.32
27.11
19.48
11.69
4.0
-3.47
-10.7
-17.82
-25.08
-32.84
-41.48
-51.25
-62.01
-73.04
-82.93
-89.86
-92.0
-88.11
-77.96
-62.49
-43.47
-23.09
-3.34
14.35
29.27
41.35
50.93
58.55
64.73
69.81
73.93
77.1
79.27
80.46
80.79
80.44
79.53
78.15
76.34
74.19
71.92
69.83
68.24
67.3
66.84
66.42
65.37
62.94
58.52
51.76
42.72
31.82
19.8
7.52
-4.29
-15.18
-25.09
-34.28
-43.25
-52.51
-62.4
-72.92
-83.44
-92.78
-99.25
-101.19
-97.42
-87.74
-73.1
-55.32
-36.53
-18.54
-2.43
11.49
23.4
33.57
42.1
48.86
53.67
56.52
57.64
57.52
56.67
55.49
54.1
52.49
50.62
48.6
46.73
45.36
44.74
44.79
45.08
44.9
43.53
40.52
35.81
29.83
23.28
16.95
11.33
6.54
2.26
-2.04
-6.91
-12.57
-18.91
-25.56
-32.1
-38.26
-44.04
-49.66
-55.43
-61.74
-68.97
-77.48
-87.33
-98.03
-108.25
-115.94
-118.86
-115.37
-105.15
-89.38
-70.32
-50.48
-31.84
-15.41
-1.3
10.88
21.58
31.09
39.58
47.07
53.6
59.11
63.52
66.72
68.67
69.44
69.22
68.28
66.89
65.35
63.91
62.8
62.16
61.92
61.76
61.18
59.69
57.02
53.2
48.63
43.85
39.37
35.4
31.85
28.38
24.58
20.13
14.99
9.39
3.77
-1.45
-6.02
-10.03
-13.86
-18.03
-22.98
-28.82
-35.33
-42.07
-48.54
-54.43
-59.74
-64.74
-69.87
-75.69
-82.64
-90.92
-100.15
-109.27
-116.58
-120.1
-118.15
-110.0
-96.14
-78.17
-58.33
-38.75
-21.05
-5.97
6.42
16.52
24.81
31.75
37.61
42.52
46.52
49.62
51.89
53.38
54.17
54.27
53.67
52.45
50.82
49.18
47.97
47.55
47.99
48.96
49.89
50.08
49.03
46.53
42.69
37.8
32.18
26.02
19.39
12.27
4.69
-3.23
-11.32
-19.47
-27.69
-36.15
-44.95
-53.93
-62.49
-69.82
-75.08
-77.92
-78.64
-78.06
-77.2
-76.85
-77.39
-78.79
-80.81
-83.01
-84.71
-84.91
-82.46
-76.44
-66.68
-53.94
-39.76
-25.87
-13.59
-3.48
4.57
10.94
15.87
19.37
21.25
21.49
20.36
18.44
16.48
15.2
15.1
16.37
18.91
22.36
26.22
30.01
33.32
35.88
37.63
38.72
39.54
40.66
42.55
45.41
48.92
52.24
54.35
54.38
52.0
47.53
41.72
35.39
29.07
22.96
16.99
11.08
5.2
-0.83
-7.52
-15.81
-26.71
-40.57
-56.49
-72.15
-84.34
-90.2
-88.28
-79.06
-64.51
-47.11
-28.81
-10.61
7.16
24.22
39.96
53.36
63.57
70.28
73.91
75.4
75.67
75.34
74.6
73.37
71.51
69.03
65.98
62.47
58.62
54.62
50.67
47.04
43.85
41.08
38.57
36.08
33.44
30.59
27.48
24.0
19.95
15.07
9.26
2.68
-4.21
-10.89
-16.98
-22.46
-27.59
-32.77
-38.23
-43.91
-49.44
-54.33
-58.19
-60.93
-62.78
-64.3
-66.22
-69.26
-73.78
-79.59
-85.74
-90.69
-92.63
-90.02
-82.13
-69.26
-52.64
-34.11
-15.54
1.5
16.01
27.57
36.18
42.1
45.75
47.59
48.14
47.84
47.05
46.02
44.8
43.36
41.55
39.24
36.39
33.18
29.94
27.13
25.14
24.07
23.68
23.44
22.72
21.08
18.46
15.15
11.65
8.38
5.45
2.69
-0.27
-3.8
-8.04
-12.93
-18.2
-23.54
-28.68
-33.45
-37.81
-41.81
-45.57
-49.34
-53.5
-58.46
-64.44
-71.17
-77.7
-82.48
-83.8
-80.32
-71.65
-58.49
-42.44
-25.48
-9.45
4.37
15.37
23.48
28.99
32.35
34.12
34.8
34.81
34.44
33.85
33.13
32.38
31.74
31.37
31.36
31.64
32.05
32.35
32.35
31.91
30.96
29.49
27.49
24.97
21.95
18.5
14.67
10.5
6.02
1.32
-3.52
-8.33
-12.98
-17.42
-21.78
-26.3
-31.33
-37.12
-43.66
-50.59
-57.03
-61.73
-63.3
-60.62
-53.28
-41.77
-27.38
-11.88
3.08
16.32
27.37
36.29
43.41
49.06
53.43
56.57
58.5
59.26
58.99
57.87
56.11
53.98
51.71
49.51
47.58
46.0
44.76
43.79
42.98
42.2
41.35
40.33
39.03
37.31
34.98
31.91
28.06
23.56
18.66
13.66
8.81
4.25
-0.06
-4.25
-8.5
-12.91
-17.51
-22.3
-27.16
-31.97
-36.57
-40.88
-44.96
-49.06
-53.68
-59.32
-66.28
-74.29
-82.33
-88.83
-92.02
-90.55
-83.96
-72.89
-58.81
-43.52
-28.59
-15.06
-3.33
6.59
14.84
21.59
26.99
31.28
34.73
37.64
40.17
42.29
43.87
44.74
44.89
44.52
43.95
43.49
43.33
43.46
43.76
44.01
44.01
43.53
42.4
40.46
37.64
34.04
29.95
25.79
21.97
18.74
16.04
13.58
10.95
7.9
4.44
0.82
-2.58
-5.52
-8.0
-10.32
-12.96
-16.44
-21.08
-26.84
-33.3
-39.84
-45.81
-50.84
-54.96
-58.57
-62.29
-66.77
-72.49
-79.63
-87.95
-96.62
-104.23
-108.97
-109.03
-103.27
-91.63
-75.35
-56.54
-37.56
-20.32
-5.92
5.43
14.16
20.95
26.49
31.25
35.47
39.23
42.42
44.94
46.68
47.63
47.8
47.28
46.2
44.72
43.1
41.59
40.41
39.65
39.2
38.68
37.59
35.5
32.18
27.78
22.69
17.37
12.14
7.02
1.81
-3.68
-9.41
-15.11
-20.35
-24.87
-28.71
-32.23
-35.97
-40.4
-45.87
-52.46
-60.08
-68.33
-76.34
-82.78
-86.01
-84.55
-77.64
-65.62
-49.9
-32.47
-15.34
0.06
13.06
23.57
31.85
38.14
42.67
45.57
47.08
47.52
47.26
46.65
45.9
45.14
44.44
43.81
43.31
42.98
42.88
43.0
43.28
43.53
43.5
42.92
41.59
39.41
36.46
32.89
28.9
24.63
20.14
15.47
10.64
5.73
0.75
-4.29
-9.52
-15.03
-20.9
-27.09
-33.45
-39.76
-45.85
-51.69
-57.33
-63.01
-69.07
-75.9
-83.78
-92.63
-101.72
-109.62
-114.42
-114.34
-108.34
-96.58
-80.4
-61.9
-43.19
-25.93
-11.0
1.37
11.37
19.34
25.67
30.74
34.9
38.45
41.55
44.23
46.42
48.03
49.08
49.73
50.22
50.83
51.8
53.21
54.99
56.91
58.71
60.14
61.05
61.39
61.19
60.47
59.26
57.55
55.27
52.35
48.77
44.52
39.68
34.38
28.8
23.14
17.64
12.47
7.78
3.62
-0.1
-3.65
-7.43
-11.9
-17.35
-23.78
-30.89
-38.17
-45.14
-51.56
-57.52
-63.37
-69.7
-77.09
-85.9
-96.01
-106.63
-116.24
-122.86
-124.57
-120.11
-109.4
-93.51
-74.42
-54.32
-35.09
-17.95
-3.39
8.57
18.26
26.14
32.69
38.36
43.48
48.14
52.23
55.48
57.64
58.61
58.52
57.67
56.5
55.44
54.8
54.74
55.19
55.83
56.28
56.14
55.23
53.64
51.69
49.71
47.91
46.12
43.93
40.85
36.62
31.36
25.57
19.88
14.76
10.35
6.37
2.35
-2.19
-7.46
-13.39
-19.63
-25.75
-31.43
-36.59
-41.4
-46.33
-52.01
-59.09
-67.96
-78.53
-89.91
-100.46
-108.06
-110.68
-107.02
-96.94
-81.56
-62.88
-43.2
-24.44
-7.86
6.07
17.43
26.56
33.88
39.75
44.47
48.25
51.29
53.68
55.44
56.58
57.14
57.28
57.24
57.33
57.79
58.66
59.75
60.7
61.06
60.47
58.77
56.09
52.78
49.28
45.97
43.01
40.29
37.53
34.37
30.62
26.26
21.46
16.37
11.04
5.36
-0.89
-7.77
-15.21
-22.85
-30.28
-37.11
-43.22
-48.77
-54.25
-60.4
-67.99
-77.51
-88.84
-100.98
-112.08
-119.79
-121.91
-117.12
-105.42
-88.16
-67.59
-46.16
-25.92
-8.1
6.8
18.85
28.48
36.2
42.62
48.25
53.46
58.35
62.76
66.37
68.87
70.17
70.41
69.94
69.16
68.41
67.89
67.64
67.58
67.51
67.17
66.27
64.61
62.08
58.75
54.89
50.85
46.98
43.53
40.5
37.7
34.75
31.25
26.93
21.75
16.03
10.28
4.98
0.49
-3.23
-6.56
-10.11
-14.44
-19.86
-26.26
-33.21
-40.15
-46.64
-52.6
-58.26
-64.08
-70.59
-78.18
-87.02
-96.84
-106.8
-115.43
-120.86
-121.23
-115.36
-103.17
-85.83
-65.39
-44.15
-23.97
-5.97
9.46
22.37
32.97
41.41
47.88
52.65
56.13
58.74
60.79
62.3
63.06
62.76
61.24
58.65
55.51
52.55
50.46
49.54
49.57
49.85
49.51
47.85
44.62
40.13
35.01
29.88
25.08
20.55
15.96
10.93
5.22
-1.24
-8.3
-15.72
-23.17
-30.33
-36.9
-42.78
-48.13
-53.5
-59.67
-67.32
-76.61
-86.85
-96.49
-103.42
-105.64
-101.84
-91.88
-76.8
-58.42
-38.85
-19.92
-2.9
11.55
23.23
32.29
39.0
43.77
47.01
49.13
50.42
51.07
51.18
50.78
49.93
48.72
47.31
45.88
44.59
43.57
42.77
42.05
41.11
39.7
37.63
34.87
31.49
27.56
23.07
17.94
12.09
5.51
-1.64
-9.11
-16.58
-23.84
-30.83
-37.66
-44.61
-52.12
-60.67
-70.57
-81.6
-92.8
-102.4
-108.2
-108.23
-101.47
-88.27
-70.29
-49.93
-29.58
-11.0
4.95
18.18
29.06
38.07
45.63
52.0
57.36
61.81
65.38
68.07
69.82
70.59
70.38
69.27
67.49
65.38
63.29
61.48
60.06
58.94
57.89
56.62
54.89
52.55
49.55
45.84
41.39
36.26
30.55
24.52
18.49
12.72
7.25
1.92
-3.63
-9.74
-16.52
-23.79
-31.13
-38.1
-44.45
-50.17
-55.54
-60.99
-67.0
-74.05
-82.47
-92.28
-102.9
-113.03
-120.73
-123.89
-120.88
-111.15
-95.51
-75.91
-54.8
-34.38
-16.14
-0.64
12.23
22.94
32.02
39.87
46.8
52.97
58.42
63.07
66.75
69.24
70.46
70.54
69.85
68.87
68.13
67.96
68.48
69.59
71.0
72.37
73.39
73.83
73.62
72.85
71.63
70.06
68.07
65.48
62.04
57.64
52.37
46.64
40.97
35.84
31.48
27.65
23.74
18.89
12.36
3.86
-6.33
-17.46
-28.58
-38.9
-48.05
-56.14
-63.67
-71.31
-79.76
-89.54
-100.73
-112.83
-124.52
-133.89
-138.85
-137.79
-130.17
-116.76
-99.34
-80.13
-61.11
-43.62
-28.29
-15.25
-4.4
4.45
11.58
17.33
22.16
26.45
30.36
33.81
36.5
38.12
38.59
38.12
37.18
36.31
35.91
36.09
36.67
37.22
37.27
36.45
34.64
31.95
28.6
24.78
20.55
15.81
10.44
4.42
-2.12
-8.86
-15.47
-21.76
-27.72
-33.53
-39.54
-46.19
-53.9
-62.92
-72.99
-83.24
-92.04
-97.43
-97.63
-91.69
-79.82
-63.38
-44.41
-24.97
-6.7
9.47
23.19
34.49
43.56
50.62
55.96
59.87
62.66
64.63
65.97
66.77
67.01
66.57
65.4
63.55
61.27
58.9
56.84
55.34
54.37
53.66
52.73
51.07
48.29
44.24
39.06
33.13
26.96
21.01
15.53
10.41
5.28
-0.35
-6.83
-14.2
-22.12
-30.05
-37.48
-44.18
-50.25
-56.08
-62.29
-69.45
-78.04
-88.09
-99.04
-109.62
-117.95
-121.96
-120.03
-111.48
-96.9
-77.92
-56.79
-35.74
-16.48
0.03
13.61
24.54
33.41
40.81
47.24
52.97
58.07
62.42
65.83
68.16
69.35
69.52
68.9
67.8
66.59
65.57
64.97
64.83
65.03
65.31
65.3
64.65
63.14
60.67
57.36
53.42
49.12
44.65
40.08
35.29
30.15
24.58
18.69
12.75
7.08
1.85
-3.03
-7.93
-13.24
-19.24
-25.92
-32.95
-39.9
-46.38
-52.28
-57.81
-63.43
-69.84
-77.71
-87.39
-98.5
-109.78
-119.12
-124.13
-122.89
-114.61
-100.03
-81.02
-60.03
-39.26
-20.23
-3.68
10.2
21.53
30.54
37.6
43.16
47.75
51.8
55.51
58.81
61.45
63.16
63.85
63.66
62.92
62.03
61.29
60.85
60.64
60.46
60.03
59.04
57.31
54.77
51.55
47.86
43.95
40.01
36.04
31.91
27.5
22.72
17.69
12.61
7.73
3.17
-1.15
-5.46
-10.11
-15.3
-21.09
-27.31
-33.68
-39.93
-45.91
-51.64
-57.33
-63.3
-70.02
-77.92
-87.24
-97.66
-108.11
-116.73
-121.33
-120.04
-112.08
-98.1
-80.0
-60.22
-40.99
-23.71
-8.9
3.56
14.02
22.8
30.1
36.08
40.91
44.74
47.65
49.61
50.49
50.22
48.83
46.58
43.89
41.29
39.25
37.99
37.42
37.13
36.57
35.2
32.78
29.33
25.1
20.35
15.23
9.74
3.82
-2.52
-9.14
-15.78
-22.24
-28.41
-34.25
-39.82
-45.24
-50.77
-56.8
-63.78
-71.91
-80.7
-88.88
-94.52
-95.61
-90.86
-80.13
-64.58
-46.14
-26.91
-8.52
8.1
22.64
35.16
45.79
54.62
61.71
67.14
71.08
73.75
75.43
76.32
76.55
76.12
74.99
73.15
70.67
67.78
64.82
62.12
59.91
58.16
56.56
54.58
51.66
47.4
41.78
35.15
28.17
21.51
15.65
10.62
6.05
1.32
-4.18
-10.69
-18.07
-25.85
-33.44
-40.44
-46.76
-52.57
-58.31
-64.46
-71.52
-79.82
-89.33
-99.36
-108.48
-114.63
-115.76
-110.45
-98.56
-81.37
-61.11
-40.25
-20.76
-3.74
10.56
22.42
32.24
40.4
47.16
52.71
57.24
60.87
63.65
65.59
66.66
66.84
66.24
65.03
63.53
62.05
60.9
60.22
59.95
59.86
59.57
58.77
57.23
54.9
51.77
47.88
43.19
37.69
31.51
24.93
18.4
12.33
6.91
2.01
-2.77
-7.83
-13.44
-19.57
-25.96
-32.24
-38.16
-43.66
-48.84
-54.01
-59.56
-66.0
-73.81
-83.23
-93.87
-104.6
-113.52
-118.46
-117.65
-110.3
-96.9
-79.09
-59.09
-39.1
-20.73
-4.93
8.06
18.42
26.59
33.06
38.32
42.71
46.39
49.31
51.29
52.13
51.8
50.49
48.56
46.47
44.59
43.1
41.93
40.88
39.62
37.85
35.33
31.94
27.76
23.01
18.01
13.01
8.13
3.25
-1.82
-7.25
-13.02
-18.94
-24.7
-30.04
-34.9
-39.5
-44.35
-50.16
-57.55
-66.63
-76.67
-86.0
-92.34
-93.51
-88.23
-76.7
-60.49
-41.97
-23.42
-6.41
8.4
21.01
31.65
40.5
47.66
53.32
57.74
61.26
64.15
66.42
67.9
68.38
67.79
66.29
64.28
62.26
60.64
59.62
59.13
58.81
58.19
56.78
54.27
50.6
45.89
40.49
34.74
28.92
23.2
17.53
11.72
5.49
-1.38
-8.93
-16.9
-24.81
-32.12
-38.5
-43.94
-48.85
-53.95
-60.06
-67.79
-77.32
-88.07
-98.7
-107.21
-111.51
-109.96
-102.01
-88.34
-70.69
-51.3
-32.2
-14.79
0.31
13.11
23.92
33.12
40.99
47.69
53.25
57.69
61.02
63.31
64.67
65.21
65.08
64.42
63.43
62.42
61.7
61.47
61.72
62.15
62.32
61.72
60.08
57.36
53.8
49.8
45.71
41.77
38.0
34.22
30.15
25.53
20.26
14.47
8.47
2.63
-2.79
-7.75
-12.49
-17.37
-22.69
-28.65
-35.14
-41.94
-48.74
-55.34
-61.67
-67.9
-74.31
-81.33
-89.3
-98.27
-107.77
-116.7
-123.4
-126.02
-123.11
-114.12
-99.71
-81.55
-61.8
-42.47
-24.89
-9.62
3.41
14.55
24.15
32.39
39.34
45.02
49.52
52.99
55.56
57.34
58.36
58.58
58.01
56.76
55.13
53.56
52.51
52.26
52.71
53.36
53.48
52.39
49.76
45.76
40.96
36.03
31.46
27.34
23.29
18.75
13.24
6.66
-0.74
-8.39
-15.69
-22.26
-28.0
-33.17
-38.14
-43.42
-49.48
-56.75
-65.45
-75.34
-85.45
-94.12
-99.26
-98.99
-92.36
-79.74
-62.75
-43.71
-24.88
-7.88
6.54
18.36
27.94
35.72
42.05
47.17
51.24
54.35
56.62
58.08
58.78
58.71
57.85
56.26
54.06
51.53
49.1
47.21
46.12
45.79
45.78
45.46
44.2
41.61
37.71
32.84
27.55
22.29
17.36
12.74
8.19
3.36
-2.12
-8.43
-15.55
-23.16
-30.84
-38.11
-44.73
-50.71
-56.36
-62.22
-68.9
-76.92
-86.42
-96.93
-107.28
-115.67
-120.11
-119.05
-111.94
-99.45
-83.25
-65.48
-47.98
-31.97
-17.9
-5.69
4.98
14.42
22.86
30.46
37.33
43.47
48.81
53.22
56.56
58.77
59.94
60.23
59.93
59.35
58.85
58.72
59.1
59.87
60.66
60.91
60.11
58.03
54.79
50.84
46.68
42.68
38.89
35.1
31.02
26.44
21.4
16.19
11.13
6.42
1.99
-2.48
-7.34
-12.8
-18.83
-25.21
-31.6
-37.78
-43.67
-49.32
-54.88
-60.58
-66.75
-73.83
-82.09
-91.41
-100.92
-109.01
-113.63
-112.99
-106.21
-93.65
-76.86
-57.98
-39.08
-21.64
-6.42
6.44
17.09
25.79
32.81
38.39
42.78
46.2
48.77
50.5
51.33
51.26
50.43
49.14
47.75
46.61
45.9
45.63
45.61
45.53
45.07
43.98
42.15
39.62
36.51
32.92
28.87
24.29
19.1
13.26
6.81
-0.03
-6.97
-13.67
-19.86
-25.45
-30.58
-35.7
-41.44
-48.45
-57.04
-66.84
-76.67
-84.71
-88.9
-87.71
-80.61
-68.3
-52.47
-35.28
-18.68
-3.91
8.57
18.94
27.61
34.96
41.15
46.16
49.91
52.4
53.75
54.18
53.94
53.24
52.25
51.03
49.65
48.15
46.57
44.94
43.25
41.45
39.46
37.15
34.36
30.87
26.49
21.07
14.63
7.35
-0.4
-8.15
-15.49
-22.13
-28.06
-33.57
-39.16
-45.49
-53.11
-62.25
-72.53
-82.83
-91.42
-96.36
-96.07
-89.84
-78.12
-62.33
-44.41
-26.27
-9.35
5.52
18.06
28.32
36.58
43.2
48.59
53.13
56.99
60.16
62.4
63.47
63.23
61.84
59.66
57.16
54.71
52.55
50.76
49.31
48.11
46.98
45.65
43.77
41.01
37.22
32.5
27.21
21.77
16.52
11.6
6.88
2.06
-3.12
-8.77
-14.77
-20.76
-26.33
-31.14
-35.1
-38.44
-41.7
-45.63
-51.0
-58.35
-67.61
-77.88
-87.48
-94.25
-96.27
-92.41
-82.78
-68.62
-51.88
-34.51
-18.05
-3.34
9.24
19.72
28.22
35.02
40.46
44.91
48.7
51.97
54.6
56.36
57.0
56.45
54.85
52.61
50.24
48.21
46.86
46.23
46.11
46.07
45.65
44.55
42.66
40.12
37.13
33.88
30.39
26.6
22.43
17.9
13.23
8.69
4.55
0.9
-2.48
-5.94
-9.92
-14.7
-20.3
-26.44
-32.73
-38.8
-44.44
-49.71
-54.9
-60.48
-66.96
-74.75
-83.88
-93.83
-103.42
-110.9
-114.44
-112.58
-104.77
-91.58
-74.53
-55.63
-36.88
-19.73
-4.96
7.28
17.28
25.52
32.41
38.26
43.23
47.35
50.56
52.85
54.17
54.57
54.11
52.98
51.43
49.8
48.42
47.47
46.9
46.4
45.5
43.73
40.93
37.24
33.1
29.02
25.27
21.72
17.91
13.25
7.36
0.25
-7.75
-16.1
-24.31
-32.12
-39.54
-46.85
-54.51
-63.0
-72.52
-82.61
-92.06
-98.97
-101.39
-97.89
-88.16
-73.1
-54.51
-34.5
-14.95
2.76
17.87
30.1
39.59
46.74
52.06
56.01
58.8
60.41
60.69
59.58
57.25
54.1
50.59
47.15
44.11
41.72
40.14
39.44
39.46
39.75
39.65
38.46
35.74
31.47
26.08
20.25
14.59
9.43
4.76
0.29
-4.31
-9.21
-14.39
-19.58
-24.45
-28.68
-32.18
-35.04
-37.62
-40.47
-44.19
-49.29
-55.95
-63.77
-71.74
-78.26
-81.56
-80.14
-73.28
-61.27
-45.41
-27.64
-10.01
5.82
18.86
28.85
36.07
41.1
44.52
46.74
48.02
48.43
48.02
46.86
45.06
42.83
40.4
38.07
36.17
34.98
34.71
35.36
36.69
38.28
39.57
40.05
39.36
37.39
34.22
30.12
25.36
20.17
14.63
8.71
2.41
-4.11
-10.51
-16.39
-21.44
-25.67
-29.38
-33.05
-37.07
-41.5
-46.1
-50.41
-54.05
-56.96
-59.47
-62.2
-65.93
-71.37
-78.86
-88.18
-98.37
-107.78
-114.31
-115.95
-111.33
-100.09
-83.03
-61.77
-38.35
-14.67
7.77
28.0
45.52
60.23
72.36
82.36
90.72
97.79
103.67
108.21
111.23
112.65
112.65
111.59
109.81
107.63
105.19
102.72
100.5
98.86
98.08
98.24
99.19
100.59
101.88
102.41
101.49
98.51
93.04
84.92
74.35
61.83
48.01
33.33
17.79
0.72
-19.08
-42.9
-71.38
-103.85
-137.96
-169.98
-195.69
-211.55
-215.7
-208.35
-191.61
-168.7
-143.25
-118.5
-96.75
-79.04
-65.2
-54.08
-44.14
-34.06
-23.19
-11.67
-0.18
10.43
19.5
26.61
31.62
34.59
35.8
35.86
35.57
35.76
37.08
39.65
43.13
46.82
50.04
52.34
53.62
53.98
53.49
52.03
49.29
44.91
38.76
31.12
22.65
14.21
6.52
-0.11
-5.82
-11.08
-16.39
-22.06
-28.12
-34.4
-40.67
-46.79
-52.77
-58.82
-65.39
-72.95
-81.76
-91.49
-100.98
-108.36
-111.48
-108.66
-99.36
-84.43
-65.83
-45.94
-26.85
-9.89
4.51
16.54
26.63
35.25
42.72
49.29
55.11
60.3
64.81
68.51
71.18
72.61
72.69
71.5
69.35
66.72
64.11
61.92
60.26
59.0
57.76
56.13
53.82
50.75
47.09
43.11
39.05
35.02
30.97
26.71
22.16
17.34
12.46
7.79
3.52
-0.39
-4.2
-8.3
-13.03
-18.53
-24.68
-31.18
-37.66
-43.84
-49.59
-54.94
-60.1
-65.43
-71.38
-78.38
-86.57
-95.55
-104.17
-110.62
-112.93
-109.52
-99.92
-84.9
-66.36
-46.65
-27.86
-11.4
2.23
13.11
21.65
28.28
33.35
37.14
39.85
41.63
42.57
42.73
42.15
40.91
39.18
37.17
35.14
33.34
31.97
31.07
30.54
30.11
29.36
27.93
25.6
22.41
18.58
14.42
10.12
5.67
0.89
-4.42
-10.33
-16.67
-23.13
-29.39
-35.33
-41.14
-47.36
-54.68
-63.65
-74.34
-86.07
-97.28
-105.88
-109.69
-107.19
-97.97
-82.91
-63.94
-43.42
-23.46
-5.52
9.75
22.38
32.68
41.09
47.98
53.6
58.15
61.73
64.4
66.21
67.23
67.56
67.31
66.65
65.74
64.8
64.04
63.64
63.59
63.7
63.55
62.62
60.43
56.77
51.71
45.65
39.16
32.8
26.91
21.51
16.33
10.92
4.89
-1.94
-9.41
-17.09
-24.49
-31.24
-37.23
-42.67
-47.99
-53.81
-60.72
-69.16
-79.11
-89.87
-99.97
-107.35
-109.89
-106.11
-95.67
-79.63
-60.0
-39.19
-19.24
-1.46
13.66
26.15
36.34
44.61
51.29
56.76
61.34
65.3
68.68
71.35
73.08
73.68
73.16
71.74
69.88
68.06
66.72
66.09
66.13
66.53
66.76
66.29
64.68
61.82
57.91
53.41
48.84
44.6
40.78
37.2
33.49
29.29
24.49
19.26
13.99
9.1
4.79
0.95
-2.81
-6.92
-11.67
-17.11
-23.07
-29.31
-35.66
-42.1
-48.7
-55.61
-63.07
-71.3
-80.47
-90.41
-100.39
-108.99
-114.32
-114.56
-108.67
-96.83
-80.46
-61.76
-43.06
-26.02
-11.53
0.38
10.04
17.86
24.11
28.93
32.47
34.87
36.38
37.18
37.36
36.89
35.72
33.88
31.53
28.93
26.42
24.28
22.65
21.47
20.55
19.6
18.39
16.77
14.69
12.15
9.16
5.66
1.62
-2.93
-7.82
-12.75
-17.44
-21.76
-25.82
-29.93
-34.5
-40.0
-46.72
-54.82
-64.04
-73.63
-82.19
-87.88
-88.87
-83.95
-73.02
-57.22
-38.61
-19.48
-1.68
13.76
26.59
37.06
45.56
52.39
57.74
61.78
64.76
66.92
68.46
69.41
69.64
68.97
67.33
64.84
61.86
58.92
56.49
54.89
54.08
53.68
53.12
51.81
49.36
45.69
41.03
35.8
30.47
25.39
20.67
16.17
11.56
6.48
0.65
-5.98
-13.2
-20.63
-27.85
-34.52
-40.56
-46.15
-51.73
-57.89
-65.23
-74.08
-84.18
-94.46
-103.09
-107.87
-106.96
-99.52
-86.09
-68.42
-48.88
-29.68
-12.34
2.52
14.9
25.11
33.53
40.46
46.22
51.13
55.45
59.28
62.5
64.79
65.84
65.56
64.16
62.08
59.88
57.95
56.47
55.35
54.37
53.26
51.82
49.93
47.56
44.71
41.44
37.8
33.83
29.61
25.16
20.51
15.68
10.68
5.56
0.32
-5.05
-10.61
-16.5
-22.84
-29.69
-36.99
-44.49
-51.88
-58.82
-65.13
-70.84
-76.11
-81.19
-86.3
-91.56
-96.91
-101.96
-105.94
-107.72
-106.02
-99.78
-88.51
-72.59
-53.18
-31.96
-10.66
9.28
26.91
41.74
53.65
62.81
69.65
74.81
79.09
83.16
87.41
91.72
95.51
97.94
98.25
96.07
91.59
85.5
78.64
71.71
65.06
58.66
52.32
45.86
39.24
32.56
25.92
19.36
12.87
6.49
0.35
-5.33
-10.41
-15.0
-19.43
-24.17
-29.63
-36.04
-43.4
-51.56
-60.22
-68.87
-76.65
-82.23
-83.99
-80.42
-70.75
-55.4
-36.08
-15.3
4.49
21.63
35.6
46.81
55.92
63.32
68.87
72.18
73.05
71.74
68.93
65.37
61.54
57.5
53.1
48.27
43.28
38.63
34.87
32.18
30.33
28.63
26.24
22.51
17.23
10.74
3.79
-2.75
-8.31
-12.74
-16.34
-19.53
-22.6
-25.39
-27.36
-27.88
-26.54
-23.42
-19.1
-14.51
-10.56
-8.01
-7.3
-8.47
-11.2
-14.68
-17.75
-19.15
-17.84
-13.47
-6.48
1.92
10.12
16.64
20.47
21.26
19.22
14.86
8.74
1.43
-6.41
-13.96
-20.26
-24.46
-26.15
-25.68
-24.08
-22.7
-22.62
-24.09
-26.29
-27.66
-26.62
-22.3
-14.93
-5.83
3.14
10.22
14.39
15.59
14.58
12.59
10.74
9.63
9.16
8.75
7.65
5.43
2.16
-1.67
-5.43
-8.68
-11.26
-13.17
-14.32
-14.42
-13.11
-10.27
-6.34
-2.28
0.68
1.51
-0.31
-4.67
-11.01
-18.55
-26.27
-33.02
-37.43
-38.18
-34.25
-25.5
-12.78
2.15
17.13
30.3
40.39
47.21
51.47
54.17
55.95
56.93
56.81
55.27
52.19
47.35
40.62
31.82
20.79
7.61
-7.13
-22.18
-35.85
-46.53
-53.76
-57.87
-59.88
-61.27
-63.74
-68.48
-75.56
-83.72
-90.79
-95.87
-98.22
-97.29
-93.07
-86.54
-79.39
-73.13
-68.72
-66.6
-69.42
-78.11
-90.88
-104.14
-115.03
-122.4
-126.57
-128.76
-130.68
-137.91
-152.99
-173.53
-193.95
-209.59
-218.4
-220.86
-219.16
-216.58
-221.21
-236.82
-260.42
-284.83
-304.25
-316.32
-321.47
-321.53
-282.38
-191.95
-67.64
57.1
159.28
233.89
286.61
324.26
354.87
379.76
390.82
381.9
353.51
312.38
263.76
212.49
167.56
137.46
124.2
118.73
111.35
98.29
82.34
68.56
61.12
61.48
67.1
74.44
77.77
74.35
65.62
55.42
46.7
40.59
36.58
33.41
30.35
27.06
25.87
30.45
43.37
63.85
87.9
109.97
124.66
128.71
121.38
104.88
83.22
60.68
40.47
24.5
13.41
6.72
3.29
1.68
0.65
-0.71
-2.81
-5.6
-8.59
-11.16
-12.87
-13.52
-13.28
-12.48
-11.53
-10.84
-10.75
-11.47
-13.1
-15.58
-18.73
-22.31
-26.05
-29.74
-33.23
-36.51
-39.65
-42.76
-46.0
-49.53
-53.52
-58.11
-63.28
-68.7
-73.68
-77.2
-78.18
-75.81
-69.83
-60.61
-48.97
-35.93
-22.41
-9.07
3.66
15.5
26.25
35.7
43.7
50.22
55.29
59.0
61.46
62.75
62.92
62.03
60.25
57.77
54.96
52.14
49.66
47.68
46.2
44.97
43.63
41.79
39.18
35.75
31.68
27.27
22.86
18.66
14.7
10.85
6.87
2.57
-2.19
-7.39
-12.89
-18.48
-23.95
-29.15
-34.04
-38.76
-43.6
-48.95
-55.17
-62.44
-70.52
-78.64
-85.52
-89.69
-89.91
-85.56
-76.89
-64.88
-50.9
-36.29
-22.09
-8.92
2.91
13.28
22.14
29.44
35.21
39.53
42.54
44.44
45.42
45.6
45.08
43.87
42.02
39.63
36.94
34.27
31.97
30.25
29.12
28.28
27.28
25.64
22.99
19.18
14.36
8.83
2.99
-2.83
-8.42
-13.78
-19.04
-24.4
-30.16
-36.61
-43.95
-52.13
-60.64
-68.48
-74.21
-76.41
-74.09
-67.09
-56.16
-42.71
-28.29
-14.23
-1.31
10.21
20.34
29.17
36.75
43.03
47.94
51.47
53.66
54.62
54.55
53.65
52.14
50.26
48.25
46.26
44.4
42.71
41.12
39.53
37.76
35.68
33.22
30.35
27.09
23.49
19.54
15.21
10.42
5.14
-0.56
-6.52
-12.54
-18.42
-24.08
-29.57
-35.13
-41.08
-47.74
-55.3
-63.6
-72.01
-79.43
-84.49
-85.93
-83.01
-75.71
-64.81
-51.51
-37.13
-22.77
-9.13
3.46
14.84
24.96
33.75
41.1
46.99
51.43
54.54
56.49
57.45
57.59
57.04
55.95
54.5
52.89
51.31
49.87
48.57
47.3
45.91
44.23
42.15
39.55
36.42
32.78
28.8
24.67
20.6
16.65
12.72
8.6
4.02
-1.15
-6.89
-13.01
-19.25
-25.33
-31.06
-36.36
-41.31
-46.17
-51.37
-57.39
-64.5
-72.53
-80.66
-87.49
-91.4
-91.05
-85.88
-76.31
-63.52
-49.09
-34.43
-20.51
-7.74
3.76
14.01
23.0
30.62
36.78
41.49
44.85
47.04
48.25
48.63
48.35
47.5
46.21
44.61
42.83
40.94
38.98
36.94
34.78
32.45
29.9
27.06
23.79
19.95
15.39
10.12
4.26
-1.92
-8.1
-14.06
-19.72
-25.17
-30.63
-36.34
-42.56
-49.52
-57.3
-65.72
-74.2
-81.66
-86.76
-88.15
-85.01
-77.27
-65.79
-52.02
-37.56
-23.71
-11.18
-0.2
9.34
17.57
24.51
30.12
34.32
37.18
38.86
39.56
39.47
38.75
37.52
35.94
34.14
32.25
30.33
28.37
26.4
24.49
22.7
21.08
19.5
17.75
15.5
12.43
8.34
3.27
-2.58
-8.81
-14.99
-20.77
-25.96
-30.61
-35.0
-39.61
-45.0
-51.58
-59.41
-67.95
-76.01
-81.97
-84.23
-81.67
-74.1
-62.3
-47.71
-32.04
-16.68
-2.53
10.05
21.04
30.58
38.77
45.69
51.41
55.97
59.46
61.94
63.44
63.97
63.56
62.29
60.35
58.08
55.82
53.89
52.41
51.26
50.13
48.63
46.4
43.25
39.21
34.5
29.45
24.37
19.39
14.45
9.29
3.62
-2.69
-9.51
-16.52
-23.32
-29.68
-35.62
-41.4
-47.42
-54.06
-61.61
-70.09
-79.11
-87.75
-94.6
-98.01
-96.64
-89.91
-78.25
-63.0
-46.0
-28.99
-13.21
0.73
12.73
22.95
31.68
39.13
45.5
50.91
55.38
58.89
61.36
62.74
63.05
62.4
60.96
59.0
56.82
54.71
52.93
51.61
50.71
49.98
49.04
47.48
45.04
41.68
37.61
33.18
28.73
24.44
20.29
16.09
11.55
6.44
0.67
-5.65
-12.24
-18.72
-24.75
-30.18
-35.13
-39.94
-45.13
-51.18
-58.44
-66.91
-76.12
