41.32
40.04
38.77
37.7
36.88
36.28
35.85
35.44
34.89
33.94
32.32
29.86
26.56
22.64
18.51
14.59
11.14
8.21
5.53
2.67
-0.8
-5.12
-10.22
-15.72
-21.15
-26.08
-30.34
-34.11
-37.74
-41.7
-46.43
-52.23
-59.15
-66.91
-74.72
-81.26
-84.99
-84.53
-79.24
-69.48
-56.56
-42.29
-28.4
-16.02
-5.55
3.16
10.5
16.81
22.29
26.92
30.67
33.46
35.32
36.35
36.7
36.62
36.26
35.72
34.99
34.0
32.78
31.42
30.1
28.93
27.9
26.8
25.3
23.04
19.79
15.55
10.53
5.11
-0.3
-5.43
-10.2
-14.69
-19.13
-23.72
-28.67
-34.14
-40.24
-46.95
-53.94
-60.45
-65.25
-66.96
-64.5
-57.61
-46.96
-33.95
-20.24
-7.16
4.51
14.56
23.06
30.14
35.89
40.33
43.53
45.63
46.77
47.1
46.7
45.64
44.05
42.11
40.04
38.09
36.41
35.07
34.02
33.08
32.0
30.52
28.44
25.67
22.14
17.89
12.98
7.53
1.71
-4.26
-10.12
-15.69
-20.83
-25.5
-29.81
-33.97
-38.34
-43.38
-49.55
-57.06
-65.7
-74.6
-82.36
-87.31
-88.03
-83.83
-75.02
-62.76
-48.68
-34.35
-20.83
-8.62
2.26
11.88
20.35
27.63
33.75
38.8
43.01
46.54
49.46
51.65
52.9
53.03
52.12
50.51
48.7
47.18
46.18
45.6
45.08
44.13
42.42
39.85
36.59
32.89
28.99
25.0
20.9
16.6
12.07
7.24
2.17
-3.11
-8.52
-13.95
-19.31
-24.53
-29.65
-34.78
-40.15
-46.06
-52.83
-60.59
-69.14
-77.77
-85.17
-89.75
-90.07
-85.33
-75.76
-62.55
-47.47
-32.32
-18.35
-6.13
4.41
13.58
21.69
28.82
34.88
39.73
43.36
45.85
47.37
48.11
48.21
47.76
46.85
45.66
44.37
43.16
42.07
41.03
39.81
38.2
36.06
33.38
30.25
26.83
23.19
19.29
15.05
10.34
5.17
-0.36
-6.07
-11.71
-17.09
-22.16
-27.01
-31.93
-37.35
-43.67
-51.03
-59.06
-66.74
-72.6
-75.1
-73.21
-66.71
-56.28
-43.25
-29.13
-15.19
-2.25
9.25
19.23
27.64
34.49
39.81
43.69
46.31
47.9
48.71
48.96
48.8
48.28
47.41
46.2
44.74
43.14
41.51
39.93
38.31
36.52
34.38
31.86
28.93
25.61
21.82
17.45
12.38
6.63
0.44
-5.85
-11.87
-17.41
-22.48
-27.32
-32.32
-37.9
-44.46
-52.19
-60.91
-69.91
-77.9
-83.24
-84.42
-80.57
-71.75
-58.99
-43.9
-28.18
-13.14
0.43
12.27
22.34
30.77
37.7
43.3
47.77
51.35
54.14
56.16
57.27
57.34
56.4
54.7
52.68
50.82
49.46
48.67
48.25
47.8
46.86
45.09
42.35
38.7
34.39
29.77
25.14
20.67
16.38
12.08
7.49
2.33
-3.51
-9.98
-16.78
-23.49
-29.73
-35.24
-40.07
-44.6
-49.47
-55.33
-62.59
-70.99
-79.54
-86.58
-90.27
-89.16
-82.69
-71.45
-56.86
-40.74
-24.69
-9.78
3.5
15.05
24.89
33.07
39.64
44.7
48.48
51.28
53.34
54.8
55.66
55.83
55.23
53.87
51.89
49.62
47.43
45.61
44.25
43.2
42.05
40.39
37.89
34.51
30.47
26.12
21.81
17.72
13.84
9.96
5.79
1.11
-4.16
-9.9
-15.81
-21.56
-26.9
-31.74
-36.25
-40.73
-45.61
-51.23
-57.83
-65.27
-72.89
-79.55
-83.7
-83.95
-79.47
-70.41
-57.89
-43.6
-29.22
-15.91
-4.17
6.0
14.79
22.22
28.21
32.65
35.59
37.29
38.15
38.54
38.69
38.59
38.15
37.19
35.67
33.67
31.46
29.39
27.74
26.6
25.77
24.82
23.25
20.73
17.23
12.97
8.32
3.57
-1.14
-5.83
-10.64
-15.72
-21.26
-27.47
-34.47
-42.13
-49.89
-56.71
-61.2
-62.09
-58.69
-51.19
-40.57
-28.34
-15.95
-4.41
5.83
14.74
22.46
29.03
34.33
38.19
40.52
41.44
41.24
40.37
39.2
38.0
36.8
35.5
33.94
32.01
29.78
27.44
25.26
23.41
21.85
20.3
18.29
15.4
11.37
6.29
0.55
-5.3
-10.79
-15.68
-20.01
-24.07
-28.27
-32.98
-38.53
-45.15
-52.83
-61.13
-69.07
-75.14
-77.71
-75.61
-68.6
-57.52
-44.01
-29.92
-16.66
-5.02
4.9
13.32
20.52
26.72
32.03
36.55
40.33
43.32
45.39
46.32
45.96
44.38
41.91
39.08
36.45
34.42
33.11
32.34
31.74
30.85
29.36
27.14
24.26
20.94
17.37
13.64
9.71
5.52
1.0
-3.88
-9.07
-14.48
-19.99
-25.5
-30.97
-36.47
-42.18
-48.38
-55.28
-62.8
-70.39
-76.98
-81.15
-81.56
-77.41
-68.78
-56.63
-42.48
-27.98
-14.44
-2.59
7.37
15.6
22.33
27.76
32.04
35.36
37.94
40.0
41.66
42.88
43.42
42.97
41.38
38.75
35.55
32.39
29.87
28.27
27.46
26.9
25.89
23.82
20.37
15.64
10.1
4.33
-1.09
-5.89
-10.11
-14.12
-18.48
-23.75
-30.33
-38.28
-47.21
-56.22
-63.95
-68.86
-69.65
-65.65
-57.14
-45.28
-31.76
-18.23
-5.86
4.88
14.02
21.85
28.55
34.12
38.48
41.57
43.5
44.52
44.91
44.84
44.29
43.1
41.14
38.46
35.37
32.34
29.82
28.01
26.69
25.34
23.3
20.12
15.68
10.32
4.6
-0.89
-5.78
-10.02
-13.89
-17.91
-22.69
-28.7
-36.08
-44.39
-52.53
-59.02
-62.32
-61.35
-55.85
-46.48
-34.53
-21.52
-8.75
2.92
13.11
21.68
28.68
34.11
38.03
40.56
41.96
42.54
42.57
42.16
41.25
39.71
37.44
34.55
31.36
28.31
25.81
24.04
22.91
22.07
21.03
19.25
16.38
12.26
7.02
1.08
-4.99
-10.64
-15.54
-19.72
-23.56
-27.64
-32.52
-38.44
-45.2
-52.02
-57.72
-60.99
-60.73
-56.43
-48.3
-37.27
-24.67
-11.9
-0.12
10.02
18.34
25.0
30.28
34.41
37.52
39.61
40.66
40.75
40.0
38.61
36.77
34.63
32.28
29.83
27.4
25.13
23.03
20.98
18.64
15.66
11.74
6.92
1.47
-4.09
-9.24
-13.61
-17.18
-20.2
-23.15
-26.56
-30.9
-36.44
-43.18
-50.71
-58.19
-64.39
-67.95
-67.8
-63.47
-55.37
-44.61
-32.67
-20.9
-10.2
-0.86
7.27
14.44
20.79
26.25
30.57
33.57
35.22
35.7
35.31
34.41
33.21
31.86
30.39
28.81
27.13
25.41
23.74
22.17
20.74
19.36
17.88
16.03
13.59
10.41
6.5
2.06
-2.65
-7.33
-11.8
-15.98
-19.9
-23.64
-27.38
-31.4
-36.08
-41.73
-48.46
-55.85
-62.97
-68.4
-70.76
-69.06
-63.1
-53.55
-41.71
-29.03
-16.75
-5.63
4.02
12.21
19.06
24.72
29.32
33.01
35.96
38.31
40.09
41.21
41.53
40.91
39.4
37.22
34.78
32.53
30.8
29.65
28.9
28.17
27.08
25.38
23.03
20.15
16.94
13.55
10.03
6.33
2.33
-2.08
-6.93
-12.14
-17.5
-22.73
-27.58
-31.95
-35.9
-39.71
-43.77
-48.5
-54.16
-60.7
-67.6
-73.88
-78.24
-79.42
-76.64
-69.92
-60.12
-48.62
-36.91
-26.08
-16.51
-8.05
-0.25
7.22
14.28
20.42
24.94
27.28
27.36
25.73
23.38
21.31
20.06
19.34
18.05
14.68
8.01
-2.19
-14.86
-27.7
-37.62
-41.5
-36.99
-23.25
-1.21
26.67
57.11
86.87
113.32
134.64
149.74
157.98
159.13
153.42
141.65
125.08
104.93
81.96
56.57
29.71
4.05
-15.82
-24.8
-19.88
-2.52
21.24
43.1
56.42
59.31
55.16
50.3
50.21
56.6
67.17
77.66
84.77
87.93
88.87
89.74
91.18
91.71
88.72
80.23
66.3
49.22
32.48
19.11
10.27
4.97
0.8
-4.7
-12.92
-23.57
-35.15
-45.89
-54.69
-61.64
-67.82
-74.79
-83.89
-95.74
-110.03
-125.63
-140.81
-153.51
-161.63
-163.16
-156.69
-141.93
-120.37
-95.37
-71.44
-52.65
-41.19
-36.63
-36.57
-38.24
-40.09
-42.21
-45.55
-50.44
-55.55
-58.2
-55.66
-46.58
-31.48
-12.18
9.24
31.0
51.64
69.52
82.8
89.91
90.34
85.03
76.01
65.45
54.73
44.18
33.29
21.46
8.48
-5.25
-18.89
-31.33
-41.41
-48.18
-51.12
-50.3
-46.58
-41.29
-36.09
-32.58
-32.02
-35.01
-41.26
-49.52
-57.86
-64.18
-66.81
-65.03
-59.05
-49.74
-38.2
-25.58
-13.07
-1.82
7.26
13.89
18.67
22.81
27.53
33.32
39.57
44.94
48.08
48.35
46.25
43.07
40.34
39.28
40.41
43.59
48.16
53.08
57.1
59.0
57.77
52.87
44.3
32.57
18.54
3.24
-12.38
-27.49
-41.58
-54.48
-66.36
-77.58
-88.55
-99.55
-110.79
-122.3
-133.88
-144.96
-154.42
-160.72
-162.18
-157.62
-146.96
-131.5
-113.79
-96.92
-83.7
-75.79
-73.38
-75.15
-78.83
-81.72
-81.36
-76.16
-65.82
-51.6
-36.08
-22.46
-13.52
-10.66
-13.4
-19.62
-26.2
-29.86
-28.01
-19.29
-3.99
15.9
37.03
55.43
67.56
71.34
66.67
55.29
39.91
23.29
7.54
-6.09
-16.99
-24.97
-30.1
-32.62
-32.97
-31.53
-28.53
-24.01
-17.95
-10.44
-1.73
7.72
17.45
27.03
36.23
44.9
52.91
60.11
66.27
71.16
74.63
76.73
77.67
77.78
77.4
76.71
75.72
74.26
72.16
69.32
65.86
62.1
58.47
55.37
52.99
51.3
49.95
48.36
45.88
41.95
36.37
29.35
21.57
13.89
7.09
1.52
-2.96
-6.91
-10.93
-15.24
-19.43
-22.66
-23.92
-22.49
-18.31
-11.94
-4.31
3.64
11.32
18.55
25.38
31.92
38.09
43.63
48.16
51.41
53.27
53.86
53.43
52.22
50.43
48.2
45.67
43.04
40.54
38.39
36.68
35.4
34.39
33.44
32.38
31.04
29.31
27.05
24.18
20.66
16.58
12.11
7.49
2.98
-1.24
-5.12
-8.71
-12.17
-15.67
-19.43
-23.62
-28.4
-33.74
-39.38
-44.72
-48.8
-50.62
-49.4
-44.93
-37.67
-28.59
-18.83
-9.36
-0.68
7.06
13.95
20.08
25.45
29.99
33.64
36.44
38.47
39.87
40.7
40.98
40.7
39.87
38.6
37.09
35.6
34.34
33.41
32.73
32.11
31.34
30.3
28.96
27.38
25.62
23.63
21.32
18.57
15.39
11.97
8.56
5.37
2.46
-0.28
-3.06
-6.09
-9.53
-13.37
-17.43
-21.5
-25.41
-29.1
-32.62
-36.13
-39.82
-44.0
-48.83
-54.16
-59.57
-64.4
-67.79
-68.9
-67.09
-62.18
-54.76
-45.72
-36.0
-26.52
-17.97
-10.72
-4.81
-0.01
3.95
6.88
8.65
9.24
8.58
6.55
3.17
-1.33
-6.51
-11.83
-17.16
-22.03
-25.44
-26.45
-24.66
-20.37
-14.7
-9.25
-2.59
4.83
11.61
16.67
19.55
20.07
18.1
13.76
7.68
1.13
-4.87
-10.38
-14.59
-17.2
-18.68
-19.6
-20.29
-20.78
-20.82
-20.41
-19.36
-17.32
-13.05
-6.58
1.54
10.46
19.27
27.12
33.12
36.74
38.05
37.47
35.56
33.22
31.45
31.01
32.05
33.97
35.72
36.26
34.92
31.51
26.59
21.16
16.2
12.43
10.07
9.14
9.7
11.88
15.68
20.81
26.44
31.23
33.68
32.64
27.77
19.7
9.77
-0.49
-9.82
-17.54
-23.64
-28.51
-32.77
-36.93
-41.27
-45.73
-49.81
-52.65
-53.17
-50.34
-43.64
-33.25
-20.2
-6.09
7.35
18.75
27.52
33.84
38.47
42.36
46.24
50.25
53.93
56.43
56.89
54.88
50.52
44.45
37.48
30.34
23.51
17.26
11.82
7.39
4.08
1.75
-0.03
-1.82
-4.07
-6.88
-9.94
-12.83
-15.25
-17.18
-18.84
-20.43
-22.08
-23.79
-25.56
-27.52
-29.85
-32.63
-35.7
-38.71
-41.27
-43.28
-45.04
-47.18
-50.3
-54.67
-59.85
-64.83
-68.3
-69.04
-66.43
-60.41
-51.5
-40.53
-28.39
-15.95
-3.95
6.99
16.39
23.98
29.72
33.81
36.52
38.18
39.02
39.17
38.72
37.7
36.11
34.01
31.5
28.79
26.13
23.81
22.01
20.74
19.84
19.02
17.98
16.48
14.39
11.84
9.11
6.58
4.52
2.83
0.97
-1.89
-6.56
-13.46
-22.38
-32.5
-42.63
-51.57
-58.35
-62.26
-62.9
-60.14
-54.2
-45.65
-35.44
-24.63
-14.16
-4.64
3.66
10.65
16.32
20.64
23.67
25.59
26.73
27.41
27.79
27.81
27.27
26.02
24.14
21.87
19.51
17.22
15.05
12.91
10.78
8.64
6.5
4.19
1.5
-1.83
-5.83
-10.21
-14.5
-18.19
-21.07
-23.36
-25.63
-28.54
-32.6
-37.98
-44.44
-51.38
-57.96
-63.2
-66.18
-66.2
-62.93
-56.51
-47.49
-36.67
-24.93
-13.05
-1.55
9.25
19.22
28.28
36.31
43.13
48.52
52.35
54.62
55.54
55.5
54.97
54.39
54.02
53.88
53.75
53.29
52.16
50.16
47.28
43.62
39.27
34.22
28.44
21.91
14.81
7.53
0.58
-5.68
-11.1
-15.79
-19.97
-23.81
-27.33
-30.43
-33.09
-35.38
-37.59
-40.16
-43.6
-48.25
-54.14
-60.74
-66.93
-71.2
-72.11
-68.8
-61.25
-50.3
-37.14
-22.98
-8.69
5.08
17.78
28.78
37.55
43.88
48.04
50.76
52.81
54.69
56.47
57.89
58.68
58.78
58.38
57.81
57.29
56.82
56.26
55.46
54.4
53.2
52.09
51.23
50.65
50.23
49.66
48.57
46.6
43.5
39.18
33.7
27.22
19.93
12.04
3.81
-4.41
-12.19
-19.12
-24.94
-29.64
-33.53
-37.05
-40.66
-44.67
-49.21
-54.34
-60.05
-66.23
-72.51
-78.15
-82.09
-83.22
-80.74
-74.51
-65.17
-53.86
-41.88
-30.21
-19.37
-9.44
-0.43
7.54
14.12
18.94
21.79
22.91
22.93
22.72
23.08
24.47
26.85
29.73
32.36
34.09
34.59
33.91
32.5
30.89
29.48
28.37
27.37
26.14
24.44
22.16
19.43
16.42
13.29
10.1
6.83
3.36
-0.39
-4.54
-9.12
-14.17
-19.71
-25.82
-32.55
-39.78
-47.08
-53.58
-58.12
-59.56
-57.17
-50.91
-41.5
-30.16
-18.22
-6.78
3.48
12.33
19.8
26.04
31.16
35.24
38.28
40.22
41.02
40.77
39.67
38.08
36.36
34.77
33.35
31.95
30.25
28.01
25.2
22.04
19.0
16.52
14.87
13.98
13.43
12.55
10.65
7.23
2.11
-4.39
-11.57
-18.48
-24.24
-28.38
-30.99
-32.8
-34.87
-38.35
-43.99
-51.93
-61.52
-71.39
-79.63
-84.21
-83.52
-76.87
-64.78
-48.92
-31.62
-15.2
-1.34
9.21
16.58
21.39
24.44
26.44
28.04
29.77
32.13
35.42
39.76
44.9
50.33
55.34
59.17
61.26
61.33
59.5
56.29
52.49
48.86
45.93
43.76
41.93
39.79
36.75
32.58
27.5
22.06
16.81
12.03
7.55
2.92
-2.34
-8.37
-14.88
-21.32
-27.13
-32.05
-36.17
-39.79
-43.22
-46.68
-50.32
-54.29
-58.78
-63.84
-69.12
-73.82
-76.82
-77.03
-73.87
-67.41
-58.34
-47.67
-36.3
-24.9
-13.84
-3.28
6.65
15.85
24.19
31.56
37.82
42.8
46.31
48.2
48.48
47.46
45.63
43.56
41.71
40.23
39.06
37.95
36.71
35.22
33.45
31.37
28.93
26.08
22.86
19.47
16.26
13.59
11.72
10.68
10.22
9.85
9.07
7.46
4.95
1.77
-1.62
-4.73
-7.35
-9.58
-11.91
-14.94
-19.25
-25.11
-32.46
-40.77
-49.11
-56.22
-60.84
-62.14
-60.04
-55.33
-49.3
-43.2
-37.62
-32.36
-26.62
-19.57
-10.81
-0.53
10.53
21.46
31.37
39.61
45.67
49.16
49.83
47.74
43.5
38.26
33.58
30.92
31.23
34.54
39.99
46.15
51.5
54.9
55.83
54.31
50.68
45.38
38.84
31.4
23.39
15.08
6.68
-1.72
-10.02
-18.16
-26.1
-33.87
-41.59
-49.44
-57.44
-65.32
-72.39
-77.66
-80.15
-79.22
-74.83
-67.51
-58.19
-47.82
-37.21
-26.92
-17.35
-8.82
-1.58
4.29
8.97
12.88
16.52
20.17
23.84
27.21
29.94
31.86
33.09
33.95
34.75
35.63
36.5
37.11
37.22
36.71
35.53
33.74
31.4
28.61
25.48
22.18
18.89
15.7
12.6
9.42
5.93
1.99
-2.39
-7.02
-11.64
-15.99
-19.94
-23.51
-26.93
-30.53
-34.7
-39.81
-45.97
-52.9
-59.74
-65.23
-68.0
-67.07
-62.17
-53.87
-43.27
-31.66
-20.09
-9.23
0.6
9.27
16.72
22.91
27.93
31.96
35.27
38.06
40.36
42.06
42.96
43.0
42.31
41.19
40.06
39.26
38.94
39.02
39.28
39.42
39.22
38.55
37.4
35.82
33.84
31.5
28.82
25.83
22.64
19.38
16.19
13.13
10.22
7.43
4.72
2.04
-0.64
-3.46
-6.59
-10.21
-14.41
-19.08
-23.96
-28.62
-32.76
-36.24
-39.27
-42.3
-45.92
-50.65
-56.66
-63.63
-70.71
-76.67
-80.2
-80.32
-76.61
-69.33
-59.3
-47.6
-35.35
-23.4
-12.34
-2.5
6.01
13.27
19.44
24.69
29.21
33.02
36.09
38.3
39.58
39.97
39.63
38.81
37.78
36.75
35.88
35.25
34.8
34.46
34.02
33.27
31.97
29.98
27.35
24.28
21.03
17.83
14.77
11.71
8.4
4.61
0.23
-4.63
-9.65
-14.49
-18.87
-22.77
-26.36
-30.04
-34.22
-39.22
-45.08
-51.45
-57.59
-62.44
-64.88
-64.03
-59.56
-51.81
-41.67
-30.35
-18.97
-8.3
1.28
9.7
17.01
23.23
28.29
32.16
34.83
36.43
37.16
37.21
36.76
35.91
34.72
33.25
31.59
29.83
28.09
26.49
25.02
23.65
22.21
20.52
18.4
15.77
12.59
8.88
4.7
0.16
-4.54
-9.18
-13.58
-17.68
-21.61
-25.68
-30.26
-35.6
-41.79
-48.54
-55.24
-60.96
-64.64
-65.33
-62.5
-56.19
-47.01
-36.02
-24.38
-13.05
-2.62
6.7
14.92
22.14
28.42
33.75
38.07
41.36
43.62
44.97
45.57
45.6
45.19
44.38
43.23
41.85
40.45
39.27
38.45
37.97
37.55
36.78
35.31
32.93
29.69
25.85
21.74
17.69
13.93
10.59
7.61
4.78
1.76
-1.79
-6.11
-11.17
-16.76
-22.48
-27.96
-32.95
-37.47
-41.74
-46.18
-51.24
-57.21
-64.01
-71.09
-77.43
-81.74
-82.82
-79.93
-72.99
-62.67
-50.19
-36.92
-24.04
-12.34
-2.16
6.55
14.02
20.49
26.15
31.07
35.25
38.63
41.15
42.81
43.59
43.54
42.81
41.63
40.37
39.4
39.05
39.46
40.52
41.87
43.01
43.54
43.3
42.43
41.27
40.14
39.13
38.03
36.49
34.16
30.96
27.03
22.7
18.28
13.88
9.48
5.06
0.61
-3.78
-8.04
-12.22
-16.47
-20.99
-25.87
-31.0
-36.14
-41.1
-45.9
-50.8
-56.23
-62.44
-69.2
-75.73
-80.78
-83.07
-81.74
-76.57
-68.06
-57.12
-44.74
-31.79
-19.04
-7.15
3.23
11.6
17.87
22.34
25.68
28.54
31.26
33.74
35.58
36.4
36.12
34.99
33.43
31.81
30.28
28.78
27.23
25.61
24.03
22.62
21.36
20.1
18.53
16.36
13.45
9.86
5.87
1.77
-2.2
-5.97
-9.62
-13.27
-17.07
-21.12
-25.55
-30.5
-36.09
-42.3
-48.78
-54.82
-59.46
-61.74
-60.98
-57.01
-50.16
-41.12
-30.71
-19.68
-8.69
1.71
11.11
19.21
25.88
31.16
35.26
38.44
40.88
42.63
43.63
43.82
43.15
41.74
39.8
37.65
35.67
34.13
33.22
32.94
33.11
33.45
33.63
33.37
32.57
31.27
29.71
28.16
26.87
25.91
25.16
24.34
23.1
21.16
18.4
14.89
10.86
6.52
1.97
-2.95
-8.56
-15.3
-23.48
-32.99
-43.23
-53.08
-61.22
-66.49
-68.26
-66.61
-62.2
-55.97
-48.74
-41.05
-33.13
-25.08
-17.07
-9.41
-2.52
3.22
7.65
10.92
13.47
15.81
18.37
21.29
24.47
27.65
30.56
33.11
35.33
37.32
39.1
40.54
41.37
41.35
40.38
38.55
36.15
33.46
30.74
28.11
25.48
22.67
19.48
15.81
11.75
7.59
3.68
0.25
-2.65
-5.28
-8.07
-11.38
-15.37
-19.9
-24.63
-29.17
-33.24
-36.75
-39.85
-42.88
-46.25
-50.39
-55.63
-61.94
-68.88
-75.43
-80.28
-82.09
-80.0
-73.89
-64.44
-52.8
-40.27
-27.89
-16.34
-5.92
3.27
11.21
17.87
23.29
27.52
30.67
32.86
34.19
34.74
34.61
33.98
33.01
31.93
30.89
29.95
29.07
28.14
27.06
25.74
24.16
22.4
20.54
18.61
16.51
14.06
11.04
7.34
3.03
-1.62
-6.26
-10.6
-14.5
-18.05
-21.53
-25.3
-29.71
-34.98
-41.01
-47.31
-53.01
-56.92
-57.9
-55.18
-48.69
-39.11
-27.65
-15.65
-4.19
6.08
14.98
22.55
28.89
34.03
37.99
40.78
42.52
43.35
43.43
42.87
41.76
40.18
38.28
36.27
34.38
32.75
31.4
30.23
29.0
27.48
25.51
23.06
20.19
17.0
13.55
9.8
5.68
1.12
-3.81
-8.97
-14.11
-19.06
-23.74
-28.19
-32.6
-37.24
-42.39
-48.27
-54.86
-61.78
-68.26
-73.15
-75.24
-73.64
-68.0
-58.76
-46.92
-33.82
-20.69
-8.46
2.4
11.77
19.75
26.49
32.09
36.64
40.2
42.86
44.75
45.99
46.61
46.6
45.93
44.66
43.02
41.37
40.09
39.4
39.2
39.16
38.78
37.7
35.74
33.04
29.87
26.5
23.08
19.64
16.16
12.65
9.21
5.9
2.77
-0.25
-3.25
-6.33
-9.5
-12.81
-16.26
-19.93
-23.84
-27.92
-31.98
-35.8
-39.24
-42.38
-45.53
-49.18
-53.75
-59.35
-65.65
-71.77
-76.49
-78.51
-76.84
-71.08
-61.59
-49.38
-35.79
-22.08
-9.18
2.38
12.43
20.93
27.9
33.39
37.55
40.64
42.97
44.79
46.19
47.13
47.48
47.18
46.29
44.95
43.34
41.6
39.76
37.84
35.8
33.67
31.46
29.18
26.83
24.37
21.78
19.01
16.02
12.75
9.13
5.13
0.8
-3.72
-8.26
-12.65
-16.81
-20.78
-24.77
-29.13
-34.25
-40.36
-47.27
-54.29
-60.18
-63.59
-63.39
-59.13
-51.2
-40.66
-28.88
-17.09
-6.12
3.62
12.05
19.18
24.99
29.44
32.5
34.25
34.88
34.71
34.06
33.22
32.35
31.48
30.53
29.35
27.84
25.99
23.93
21.87
20.01
18.39
16.79
14.8
11.96
8.01
3.05
-2.47
-7.93
-12.82
-16.99
-20.69
-24.46
-28.85
-34.24
-40.73
-48.03
-55.54
-62.37
-67.43
-69.62
-68.14
-62.72
-53.82
-42.44
-29.89
-17.33
-5.6
4.88
13.97
21.62
27.84
32.67
36.26
38.88
40.8
42.24
43.27
43.84
43.88
43.36
42.39
41.18
40.01
39.16
38.84
39.04
39.57
40.05
40.07
39.34
37.79
35.51
32.7
29.49
25.88
21.76
17.01
11.65
5.89
-0.01
-5.75
-11.17
-16.27
-21.22
-26.27
-31.71
-37.9
-45.03
-53.08
-61.56
-69.5
-75.56
-78.38
-77.0
-71.19
-61.57
-49.33
-35.92
-22.58
-10.13
1.07
11.0
19.73
27.37
33.94
39.41
43.73
46.9
48.95
49.97
50.09
49.44
48.23
46.7
45.14
43.76
42.68
41.84
41.0
39.98
38.64
37.02
35.19
33.22
31.02
28.43
25.36
21.87
18.25
14.85
11.84
9.11
6.31
3.06
-0.8
-5.08
-9.33
-13.05
-16.0
-18.23
-20.11
-22.07
-24.42
-27.24
-30.37
-33.55
-36.54
-39.25
-41.72
-44.12
-46.71
-49.78
-53.65
-58.54
-64.46
-70.98
-77.18
-81.71
-83.13
-80.42
-73.3
-62.43
-49.15
-35.02
-21.32
-8.86
2.11
11.59
19.64
26.28
31.48
35.29
37.91
39.61
40.71
41.41
41.77
41.71
41.04
39.64
37.6
35.19
32.85
31.04
29.94
29.43
29.05
28.31
26.81
24.48
21.5
18.22
14.97
11.87
8.89
5.85
2.59
-1.01
-4.9
-8.97
-13.0
-16.8
-20.25
-23.36
-26.36
-29.6
-33.51
-38.44
-44.46
-51.18
-57.74
-62.87
-65.29
-64.01
-58.76
-50.03
-38.91
-26.72
-14.59
-3.29
6.86
15.73
23.27
29.42
34.14
37.49
39.64
40.86
41.44
41.55
41.3
40.73
39.86
38.8
37.7
36.71
36.05
35.88
36.3
37.25
38.47
39.48
39.76
38.9
36.76
33.53
29.66
25.62
21.71
17.95
14.11
9.86
4.97
-0.54
-6.41
-12.26
-17.76
-22.79
-27.56
-32.5
-38.17
-44.98
-53.09
-62.17
-71.43
-79.71
-85.67
-88.13
-86.33
-80.19
-70.31
-57.8
-44.02
-30.24
-17.38
-5.95
3.87
12.16
19.1
24.89
29.72
33.75
37.1
39.83
41.96
43.48
44.33
44.5
44.08
43.26
42.27
41.36
40.68
40.21
39.81
39.24
38.29
36.88
35.02
32.86
30.56
28.18
25.69
22.95
19.84
16.31
12.45
8.51
4.73
1.23
-2.05
-5.34
-8.91
-12.89
-17.23
-21.75
-26.28
-30.73
-35.12
-39.52
-44.0
-48.67
-53.73
-59.43
-65.97
-73.22
-80.47
-86.45
-89.65
-88.8
-83.37
-73.75
-61.06
-46.78
-32.23
-18.38
-5.83
5.14
14.4
21.94
27.92
32.6
36.37
39.53
42.24
44.45
45.97
46.63
46.38
45.39
44.0
42.56
41.38
40.54
39.91
39.25
38.25
36.75
34.71
32.26
29.58
26.81
23.94
20.87
17.42
13.4
8.77
3.6
-1.92
-7.51
-12.93
-18.0
-22.68
-27.04
-31.31
-35.89
-41.15
-47.37
-54.43
-61.72
-68.08
-72.13
-72.64
-68.96
-61.25
-50.45
-37.89
-24.94
-12.62
-1.51
8.21
16.58
23.7
29.63
34.39
38.03
40.6
42.19
42.93
42.92
42.32
41.26
39.92
38.48
37.09
35.86
34.77
33.73
32.59
31.2
29.43
27.19
24.44
21.12
17.2
12.71
7.77
2.53
-2.82
-8.13
-13.31
-18.33
-23.17
-27.86
-32.55
-37.5
-43.09
-49.62
-57.1
-65.01
-72.26
-77.38
-78.95
-76.08
-68.74
-57.77
-44.61
-30.81
-17.62
-5.76
4.61
13.58
21.38
28.14
33.93
38.78
42.7
45.7
47.83
49.12
49.63
49.47
48.82
47.97
47.15
46.53
46.1
45.81
45.48
44.84
43.65
41.81
39.41
36.66
33.8
30.9
28.05
25.17
22.12
18.79
15.27
11.72
8.22
4.6
0.49
-4.05
-8.94
-14.13
-19.58
-25.06
-30.18
-34.62
-38.32
-41.57
-44.13
-46.32
-49.02
-53.15
-58.83
-65.0
-69.88
-71.64
-69.1
-60.77
-46.8
-29.15
-10.65
6.45
21.24
33.93
45.49
57.32
72.6
93.27
118.61
145.34
169.19
186.62
195.79
197.04
181.36
146.94
100.49
52.84
11.5
-21.25
-45.65
-62.33
-72.25
-77.15
-77.9
-75.94
-73.14
-71.02
-69.94
-69.44
-69.24
-70.48
-74.19
-80.32
-88.7
-98.89
-109.56
-117.86
-120.0
-112.97
-96.23
-72.47
-46.22
-23.05
-7.83
-3.0
-7.74
-18.76
-32.03
-43.14
-48.7
-46.89
-37.72
-22.7
-4.04
16.09
36.0
54.45
70.41
82.92
91.28
95.16
94.68
90.42
83.35
74.52
64.97
55.63
47.3
40.67
36.3
34.44
34.68
35.83
36.06
33.41
26.42
14.74
-0.64
-17.52
-33.18
-45.31
-52.71
-55.64
-55.44
-53.91
-52.49
-51.95
-52.41
-53.63
-55.54
-58.26
-61.97
-66.57
-71.42
-75.3
-76.85
-74.94
-69.16
-59.84
-47.87
-34.38
-20.35
-6.46
6.88
19.37
30.69
40.44
48.27
53.98
57.6
59.39
59.67
58.8
57.04
54.59
51.67
48.48
45.26
42.23
39.52
37.19
35.12
33.12
30.95
28.41
25.45
22.11
18.52
14.78
10.86
6.62
1.9
-3.41
-9.22
-15.26
-21.19
-26.68
-31.6
-36.07
-40.4
-45.03
-50.45
-56.98
-64.55
-72.56
-79.85
-84.9
-86.26
-82.97
-75.0
-63.18
-48.96
-33.9
-19.25
-5.75
6.38
17.16
26.71
35.11
42.39
48.6
53.77
57.92
61.02
63.04
63.92
63.72
62.6
60.89
58.97
57.22
55.95
55.24
54.98
54.83
54.38
53.27
51.28
48.44
45.0
41.29
37.6
34.06
30.63
27.13
23.32
19.07
14.44
9.66
5.04
0.81
-3.0
-6.59
-10.33
-14.59
-19.53
-25.05
-30.84
-36.5
-41.73
-46.44
-50.81
-55.2
-60.07
-65.85
-72.77
-80.66
-88.77
-95.82
-100.2
-100.43
-95.63
-85.89
-72.26
-56.35
-39.94
-24.41
-10.62
1.17
11.04
19.29
26.24
32.22
37.45
42.06
45.98
49.04
50.99
51.71
51.23
49.82
47.89
45.88
44.15
42.85
41.94
41.18
40.26
38.86
36.77
33.95
30.52
26.69
22.63
18.44
14.09
9.48
4.45
-1.0
-6.77
-12.58
-18.09
-23.04
-27.38
-31.38
-35.53
-40.46
-46.59
-53.91
-61.74
-68.75
-73.29
-73.87
-69.71
-60.97
-48.73
-34.6
-20.18
-6.67
5.28
15.5
24.03
31.03
36.57
40.73
43.62
45.35
46.07
45.94
45.12
43.79
42.17
40.44
38.75
37.12
35.54
34.01
32.48
30.92
29.23
27.25
24.82
21.79
18.08
13.74
8.9
3.77
-1.46
-6.6
-11.56
-16.34
-21.0
-25.63
-30.33
-35.25
-40.63
-46.75
-53.78
-61.54
-69.3
-75.74
-79.29
-78.63
-73.2
-63.35
-50.31
-35.7
-21.08
-7.54
4.34
14.51
23.13
30.42
36.5
41.44
45.24
48.0
49.87
51.08
51.78
52.0
51.66
50.65
49.02
47.0
45.02
43.46
42.47
41.89
41.28
40.22
38.4
35.85
32.78
29.44
26.03
22.55
18.97
15.23
11.41
7.64
4.05
0.67
-2.68
-6.25
-10.26
-14.76
-19.6
-24.45
-29.05
-33.26
-37.24
-41.34
-45.95
-51.39
-57.82
-65.15
-73.05
-80.79
-87.27
-91.09
-90.93
-85.95
-76.18
-62.58
-46.83
-30.74
-15.79
-2.8
8.07
17.04
24.45
30.58
35.52
39.36
42.18
44.12
45.4
46.22
46.66
46.68
46.2
45.18
43.78
42.29
41.11
40.48
40.38
40.51
40.37
39.58
37.97
35.65
32.87
29.86
26.76
23.55
20.19
16.71
13.25
10.04
7.27
4.97
2.95
0.86
-1.69
-5.01
-9.2
-14.14
-19.54
-25.02
-30.2
-34.83
-38.86
-42.55
-46.38
-50.99
-56.93
-64.31
-72.65
-80.74
-86.96
-89.63
-87.59
-80.58
-69.33
-55.34
-40.37
-25.98
-13.14
-2.21
6.95
14.67
21.23
26.76
31.22
34.56
36.75
37.89
38.13
37.72
36.88
35.78
34.55
33.28
31.99
30.74
29.54
28.4
27.27
26.06
24.67
22.96
20.8
18.11
14.85
10.99
6.56
1.64
-3.6
-8.95
-14.18
-19.13
-23.79
-28.35
-33.15
-38.63
-45.11
-52.57
-60.42
-67.47
-72.23
-73.28
-69.78
-61.8
-50.3
-36.73
-22.68
-9.31
2.71
13.2
22.26
30.0
36.48
41.65
45.45
47.89
49.08
49.27
48.73
47.74
46.46
44.96
43.27
41.43
39.59
37.93
36.67
35.84
35.32
34.77
33.77
31.98
29.24
25.64
21.47
17.17
13.09
9.44
6.11
2.81
-0.91
-5.34
-10.58
-16.41
-22.41
-28.18
-33.41
-38.07
-42.33
-46.56
-51.16
-56.57
-63.11
-70.82
-79.24
-87.3
-93.37
-95.72
-93.0
-84.84
-71.98
-56.12
-39.26
-23.17
-8.87
3.37
13.81
22.84
30.74
37.56
43.24
47.73
51.14
53.64
55.36
56.36
56.59
56.03
54.78
53.13
51.46
50.1
49.23
48.8
48.57
48.19
47.35
45.82
43.58
40.78
37.69
34.58
31.62
28.82
25.99
22.88
19.29
15.18
10.73
6.27
2.15
-1.38
-4.31
-6.89
-9.52
-12.59
-16.34
-20.76
-25.66
-30.76
-35.91
-41.08
-46.48
-52.39
-59.18
-67.18
-76.57
-87.12
-98.02
-107.79
-114.47
-116.15
-111.64
-100.91
-85.23
-66.69
-47.61
-29.79
-14.19
-0.99
10.09
19.47
27.39
34.03
39.51
43.96
47.51
50.2
51.93
52.55
51.97
50.27
47.73
44.75
41.72
38.91
36.43
34.24
32.24
30.27
28.22
26.01
23.57
20.85
17.77
14.23
10.11
5.34
-0.06
-5.86
-11.73
-17.35
-22.51
-27.29
-32.02
-37.24
-43.47
-50.98
-59.51
-68.22
-75.62
-79.98
-79.79
