52.16
50.26
47.25
43.15
38.2
32.84
27.5
22.45
17.69
12.97
7.93
2.21
-4.28
-11.36
-18.62
-25.58
-31.92
-37.6
-42.9
-48.36
-54.56
-62.0
-70.87
-80.85
-90.99
-99.74
-105.22
-105.79
-100.48
-89.46
-73.94
-55.82
-37.06
-19.19
-3.07
11.01
23.11
33.33
41.76
48.45
53.49
57.02
59.2
60.12
59.88
58.62
56.58
54.17
51.77
49.71
48.08
46.77
45.48
43.94
41.93
39.34
36.21
32.55
28.39
23.76
18.71
13.32
7.72
1.95
-3.98
-10.14
-16.56
-23.17
-29.84
-36.43
-42.9
-49.47
-56.6
-64.71
-73.97
-83.86
-93.07
-99.75
-101.98
-98.43
-88.84
-74.11
-56.0
-36.52
-17.44
0.06
15.33
28.14
38.54
46.68
52.85
57.46
60.88
63.41
65.16
66.07
66.01
64.98
63.13
60.73
58.17
55.75
53.62
51.82
50.24
48.68
46.97
44.95
42.55
39.79
36.75
33.54
30.21
26.73
22.97
18.8
14.16
9.17
4.02
-1.07
-6.0
-10.88
-15.94
-21.44
-27.43
-33.78
-40.18
-46.33
-52.07
-57.42
-62.55
-67.77
-73.42
-79.95
-87.72
-96.82
-106.73
-116.12
-123.05
-125.41
-121.66
-111.44
-95.67
-76.3
-55.56
-35.37
-16.91
-0.65
13.49
25.77
36.45
45.66
53.45
59.81
64.79
68.48
71.03
72.6
73.31
73.23
72.47
71.18
69.68
68.32
67.39
67.02
66.99
66.86
66.12
64.43
61.77
58.39
54.73
51.13
47.74
44.46
41.02
37.15
32.71
27.75
22.42
16.94
11.45
6.09
0.92
-4.01
-8.76
-13.49
-18.5
-24.07
-30.32
-37.15
-44.16
-50.93
-57.1
-62.6
-67.69
-72.9
-78.85
-86.04
-94.68
-104.41
-114.23
-122.44
-127.1
-126.48
-119.68
-106.94
-89.61
-69.62
-48.96
-29.2
-11.27
4.45
17.95
29.38
38.94
46.89
53.45
58.83
63.15
66.42
68.63
69.74
69.84
69.09
67.8
66.31
64.95
63.95
63.36
63.02
62.6
61.74
60.14
57.68
54.5
50.91
47.23
43.69
40.28
36.79
32.89
28.34
23.11
17.42
11.65
6.16
1.1
-3.65
-8.42
-13.61
-19.44
-25.89
-32.7
-39.51
-46.0
-52.05
-57.75
-63.41
-69.46
-76.36
-84.44
-93.64
-103.32
-112.11
-118.17
-119.62
-115.16
-104.59
-88.84
-69.76
-49.46
-29.77
-11.93
3.51
16.48
27.15
35.78
42.67
48.1
52.3
55.42
57.49
58.46
58.32
57.17
55.26
52.98
50.73
48.83
47.4
46.33
45.36
44.12
42.31
39.72
36.34
32.25
27.62
22.59
17.25
11.58
5.53
-0.94
-7.81
-14.89
-21.95
-28.75
-35.17
-41.37
-47.77
-54.97
-63.47
-73.32
-83.8
-93.37
-100.01
-101.8
-97.66
-87.64
-72.95
-55.43
-37.03
-19.19
-2.78
11.9
24.77
35.88
45.26
52.96
59.07
63.69
66.89
68.66
69.05
68.16
66.23
63.62
60.76
58.07
55.86
54.26
53.19
52.35
51.35
49.75
47.23
43.67
39.2
34.13
28.85
23.64
18.6
13.59
8.29
2.39
-4.31
-11.72
-19.57
-27.41
-34.89
-41.82
-48.28
-54.69
-61.57
-69.51
-78.82
-89.28
-99.88
-108.89
-114.23
-114.07
-107.54
-94.99
-77.95
-58.52
-38.73
-19.98
-2.94
12.28
25.76
37.54
47.61
55.94
62.63
67.89
71.89
74.74
76.44
76.96
76.39
74.92
72.84
70.42
67.88
65.38
63.06
61.06
59.4
57.95
56.36
54.17
50.91
46.38
40.71
34.39
28.0
22.02
16.61
11.54
6.36
0.57
-6.12
-13.65
-21.66
-29.63
-37.12
-43.91
-50.06
-55.88
-61.82
-68.36
-75.92
-84.7
-94.46
-104.32
-112.79
-117.96
-118.11
-112.24
-100.53
-84.26
-65.37
-45.87
-27.27
-10.43
4.39
17.26
28.31
37.62
45.23
51.19
55.53
58.34
59.73
59.89
59.08
57.59
55.62
53.29
50.64
47.68
44.55
41.49
38.77
36.48
34.47
32.35
29.59
25.78
20.77
14.73
8.06
1.19
-5.5
-11.87
-17.98
-24.03
-30.27
-36.96
-44.35
-52.65
-61.91
-71.78
-81.35
-89.06
-93.08
-91.78
-84.44
-71.56
-54.74
-36.13
-17.75
-0.98
13.6
26.03
36.59
45.51
52.87
58.64
62.76
65.22
66.11
65.63
64.08
61.84
59.27
56.64
54.09
51.63
49.23
46.83
44.4
41.86
39.08
35.86
32.02
27.41
22.03
15.98
9.45
2.67
-4.18
-10.98
-17.72
-24.45
-31.25
-38.22
-45.44
-53.1
-61.44
-70.75
-81.05
-91.72
-101.38
-108.01
-109.58
-104.73
-93.43
-77.0
-57.64
-37.67
-18.79
-1.77
13.36
26.94
39.19
50.08
59.43
67.03
72.9
77.2
80.21
82.13
83.11
83.18
82.36
80.74
78.48
75.86
73.16
70.6
68.28
66.23
64.36
62.61
60.93
59.3
57.57
55.37
52.08
47.02
39.7
30.03
18.46
5.87
-6.74
-18.54
-29.06
-38.23
-46.33
-53.89
-61.64
-70.41
-80.94
-93.49
-107.45
-121.13
-132.07
-137.81
-136.73
-128.8
-115.61
-99.86
-84.35
-71.04
-60.61
-52.64
-46.18
-40.56
-35.83
-32.82
-32.65
-36.11
-43.11
-52.49
-62.27
-70.13
-73.93
-72.23
-64.56
-51.68
-35.53
-19.11
-5.88
1.02
-0.37
-10.05
-26.03
-44.81
-62.55
-76.12
-83.74
-84.9
-79.74
-68.44
-51.15
-28.47
-2.19
24.37
46.87
61.17
64.9
58.57
45.64
31.28
20.55
16.63
19.99
28.73
39.82
50.56
59.53
66.76
73.08
79.23
85.3
90.57
94.08
95.18
93.98
91.25
88.15
85.64
84.18
83.57
83.01
81.49
78.18
72.75
65.62
57.78
50.39
44.36
39.93
36.61
33.38
29.12
23.07
15.12
5.88
-3.63
-12.43
-19.97
-26.4
-32.38
-38.91
-46.8
-56.41
-67.45
-79.03
-89.8
-98.18
-102.76
-102.5
-97.07
-86.72
-72.22
-54.45
-34.23
-12.27
10.54
33.01
53.59
70.66
83.23
91.28
95.8
98.36
100.44
102.9
105.84
108.84
111.29
112.45
111.26
106.43
96.87
82.7
66.02
50.68
40.81
38.53
42.48
48.05
49.57
43.26
29.19
11.06
-5.98
-18.23
-25.18
-29.28
-34.08
-41.94
-52.81
-64.53
-74.32
-80.26
-82.34
-82.38
-83.11
-87.03
-95.37
-107.57
-121.46
-133.98
-142.31
-144.66
-140.72
-131.4
-118.11
-101.99
-83.6
-63.0
-40.34
-16.44
7.05
28.03
44.74
56.61
64.4
69.83
74.61
79.57
84.39
87.95
89.24
88.12
85.52
83.02
82.01
82.99
85.37
87.84
88.99
87.96
84.7
79.83
74.26
68.81
63.89
59.49
55.21
50.54
45.0
38.36
30.6
21.93
12.65
3.05
-6.62
-16.2
-25.69
-35.33
-45.5
-56.45
-67.95
-79.0
-87.86
-92.58
-91.7
-84.98
-73.49
-59.31
-44.67
-31.14
-19.24
-8.51
1.92
12.66
23.64
34.13
43.07
49.64
53.57
55.14
54.93
53.48
51.06
47.8
44.0
40.2
37.13
35.3
34.62
34.31
33.17
30.21
25.08
18.24
10.66
3.31
-3.12
-8.36
-12.42
-15.43
-17.73
-19.91
-22.91
-27.76
-35.23
-45.24
-56.68
-67.49
-75.27
-78.07
-75.02
-66.54
-54.06
-39.46
-24.39
-9.95
3.38
15.5
26.4
35.97
43.95
50.02
53.83
55.1
53.63
49.45
42.93
34.87
26.43
18.81
12.93
9.14
7.24
6.65
6.68
6.67
6.12
4.63
2.02
-1.6
-5.72
-9.52
-12.17
-13.23
-12.9
-11.94
-11.35
-11.88
-13.71
-16.47
-19.58
-22.61
-25.6
-29.01
-33.59
-40.02
-48.53
-58.72
-69.37
-78.72
-84.84
-86.27
-82.5
-74.1
-62.43
-49.1
-35.32
-21.74
-8.48
4.42
16.71
27.97
37.8
46.12
53.14
59.18
64.28
68.05
69.95
69.58
67.07
63.15
58.79
54.84
51.7
49.36
47.55
46.06
44.75
43.5
42.06
40.05
37.16
33.33
28.83
24.16
19.78
15.81
12.03
8.06
3.64
-1.17
-6.02
-10.43
-14.06
-16.85
-19.07
-21.19
-23.68
-26.78
-30.46
-34.4
-38.24
-41.79
-45.24
-49.09
-53.96
-60.31
-68.24
-77.36
-86.87
-95.61
-102.14
-105.02
-103.01
-95.56
-83.06
-66.94
-49.25
-32.04
-16.71
-3.75
7.08
16.27
24.2
30.87
36.12
39.79
41.94
42.83
42.81
42.21
41.28
40.27
39.33
38.6
38.12
37.79
37.41
36.83
36.0
35.01
34.01
33.03
31.95
30.52
28.48
25.7
22.25
18.31
14.14
9.94
5.79
1.7
-2.41
-6.64
-11.06
-15.74
-20.69
-25.86
-31.13
-36.34
-41.39
-46.25
-51.07
-56.12
-61.73
-68.18
-75.45
-83.0
-89.69
-93.91
-94.03
-88.97
-78.63
-63.99
-46.81
-29.06
-12.39
2.19
14.38
24.3
32.2
38.36
42.93
46.03
47.76
48.25
47.67
46.21
44.09
41.52
38.69
35.73
32.76
29.91
27.3
25.0
23.01
21.23
19.38
17.2
14.4
10.8
6.26
0.79
-5.56
-12.61
-20.02
-27.45
-34.62
-41.45
-48.15
-55.1
-62.71
-71.31
-80.94
-91.27
-101.61
-110.82
-117.49
-120.13
-117.59
-109.48
-96.36
-79.65
-61.16
-42.48
-24.59
-7.75
8.19
23.43
37.86
51.06
62.48
71.65
78.45
83.03
85.78
87.15
87.55
87.29
86.59
85.59
84.31
82.65
80.38
77.19
72.73
66.79
59.38
50.86
41.87
33.17
25.34
18.55
12.48
6.48
-0.08
-7.46
-15.46
-23.51
-31.03
-37.73
-43.73
-49.43
-55.31
-61.75
-69.03
-77.33
-86.62
-96.49
-105.89
-113.21
-116.6
-114.63
-106.87
-94.09
-78.0
-60.56
-43.29
-26.92
-11.52
3.07
16.76
29.05
39.25
46.79
51.62
54.2
55.23
55.3
54.62
53.06
50.47
47.05
43.48
40.78
39.88
41.13
44.03
47.36
49.62
49.62
47.03
42.45
37.16
32.45
29.08
27.0
25.46
23.58
20.74
16.91
12.52
8.17
4.24
0.71
-2.86
-7.27
-13.4
-21.87
-32.76
-45.4
-58.32
-69.63
-77.51
-80.81
-79.37
-73.92
-65.66
-55.72
-44.74
-32.92
-20.29
-7.11
5.94
17.77
27.31
33.82
37.2
37.87
36.5
33.66
29.72
25.04
20.17
16.03
13.65
13.7
16.16
20.29
25.14
30.18
35.62
42.02
49.49
57.02
62.59
64.04
60.31
52.1
41.73
31.9
24.49
19.78
16.66
13.53
9.1
2.78
-5.45
-15.39
-26.73
-38.88
-50.69
-60.46
-66.4
-67.15
-62.37
-52.8
-40.0
-25.85
-11.99
0.55
11.35
20.47
28.11
34.4
39.25
42.45
43.91
43.79
42.52
40.62
38.5
36.29
33.97
31.46
28.83
26.27
24.07
22.37
21.02
19.62
17.61
14.48
10.01
4.34
-2.12
-8.77
-15.1
-20.81
-25.95
-30.82
-35.93
-41.8
-48.79
-56.97
-65.86
-74.44
-81.26
-84.73
-83.6
-77.4
-66.58
-52.36
-36.33
-20.02
-4.55
9.48
21.87
32.65
41.96
49.88
56.41
61.51
65.08
67.11
67.74
67.29
66.14
64.61
62.87
60.93
58.72
56.21
53.49
50.76
48.19
45.82
43.53
41.1
38.26
34.85
30.85
26.35
21.5
16.39
10.94
4.98
-1.77
-9.49
-18.25
-27.95
-38.52
-49.88
-61.94
-74.31
-86.08
-95.81
-101.82
-102.74
-98.06
-88.36
-75.09
-60.02
-44.81
-30.64
-18.25
-8.06
-0.24
5.32
9.11
12.0
15.03
19.02
24.29
30.55
36.97
42.5
46.22
47.69
47.09
45.18
42.97
41.3
40.49
40.26
39.86
38.58
36.07
32.56
28.62
24.78
21.14
17.25
12.31
5.68
-2.8
-12.59
-22.6
-31.62
-38.68
-43.38
-45.96
-47.08
-47.49
-47.7
-47.82
-47.53
-46.37
-43.95
-40.26
-35.66
-30.76
-25.99
-21.41
-16.67
-11.21
-4.68
2.75
10.31
16.93
21.6
23.76
23.56
21.7
19.22
17.04
15.68
15.09
14.79
14.12
12.6
10.17
7.19
4.28
1.98
0.43
-0.64
-1.79
-3.55
-6.16
-9.48
-13.13
-16.7
-20.02
-23.18
-26.48
-30.32
-35.03
-40.84
-47.79
-55.65
-63.82
-71.2
-76.38
-77.93
-74.82
-66.83
-54.61
-39.53
-23.23
-7.18
7.56
20.46
31.37
40.37
47.59
53.12
57.0
59.25
59.9
59.09
57.06
54.24
51.08
48.01
45.3
43.01
41.0
39.04
36.91
34.47
31.71
28.66
25.34
21.69
17.59
12.92
7.67
1.99
-3.87
-9.64
-15.21
-20.59
-25.92
-31.39
-37.14
-43.26
-49.88
-57.14
-65.11
-73.48
-81.43
-87.58
-90.37
-88.51
-81.53
-69.95
-55.16
-38.9
-22.78
-7.87
5.39
16.95
26.98
35.59
42.83
48.73
53.33
56.75
59.1
60.43
60.72
59.9
58.0
55.21
51.92
48.63
45.81
43.75
42.43
41.52
40.5
38.82
36.13
32.35
27.71
22.67
17.65
12.94
8.53
4.15
-0.55
-5.9
-11.94
-18.49
-25.15
-31.51
-37.32
-42.57
-47.48
-52.49
-58.09
-64.66
-72.27
-80.47
-88.19
-93.91
-95.98
-93.19
-85.2
-72.62
-56.92
-39.89
-23.1
-7.62
6.06
17.83
27.82
36.14
42.92
48.28
52.36
55.27
57.07
57.84
57.62
56.55
54.8
52.58
50.08
47.46
44.84
42.3
39.89
37.59
35.3
32.89
30.18
26.98
23.18
18.66
13.43
7.57
1.28
-5.14
-11.37
-17.18
-22.53
-27.57
-32.68
-38.32
-44.91
-52.67
-61.42
-70.38
-78.28
-83.46
-84.4
-80.17
-70.82
-57.35
-41.5
-25.13
-9.74
3.79
15.26
24.82
32.73
39.1
43.94
47.24
49.05
49.6
49.18
48.17
46.79
45.14
43.14
40.72
37.89
34.82
31.82
29.24
27.21
25.61
23.99
21.77
18.45
13.84
8.1
1.71
-4.77
-10.9
-16.5
-21.66
-26.68
-31.96
-37.94
-44.98
-53.14
-62.06
-70.74
-77.69
-81.26
-80.13
-73.77
-62.63
-47.99
-31.52
-14.81
0.88
14.81
26.63
36.26
43.8
49.5
53.63
56.49
58.3
59.18
59.13
58.13
56.26
53.7
50.78
47.85
45.19
42.92
40.93
38.97
36.74
34.03
30.77
27.04
23.02
18.82
14.44
9.76
4.63
-1.03
-7.18
-13.61
-20.06
-26.26
-32.07
-37.5
-42.75
-48.13
-54.09
-61.02
-69.1
-77.96
-86.57
-93.29
-96.27
-94.04
-86.09
-73.07
-56.61
-38.73
-21.23
-5.29
8.65
20.63
30.87
39.56
46.79
52.64
57.15
60.47
62.71
63.98
64.37
63.92
62.73
60.89
58.62
56.15
53.71
51.5
49.57
47.86
46.16
44.22
41.8
38.77
35.07
30.82
26.21
21.47
16.78
12.27
7.87
3.43
-1.25
-6.36
-11.95
-17.87
-23.9
-29.77
-35.3
-40.41
-45.22
-49.94
-54.92
-60.6
-67.36
-75.35
-84.22
-92.93
-99.8
-102.97
-100.94
-93.14
-80.16
-63.59
-45.43
-27.56
-11.24
2.97
15.05
25.23
33.74
40.76
46.41
50.78
54.01
56.2
57.43
57.71
57.04
55.44
53.04
50.13
47.13
44.51
42.57
41.34
40.52
39.57
37.92
35.23
31.48
26.96
22.09
17.22
12.48
7.69
2.61
-2.94
-8.9
-14.96
-20.74
-25.95
-30.59
-34.93
-39.48
-44.79
-51.26
-58.98
-67.53
-75.89
-82.53
-85.74
-84.14
-77.2
-65.41
-50.23
-33.55
-17.1
-2.07
11.03
22.15
31.4
38.85
44.54
48.51
50.91
52.01
52.11
51.49
50.33
48.77
46.89
44.83
42.71
40.65
38.7
36.81
34.87
32.7
30.18
27.26
23.96
20.39
16.59
12.57
8.21
3.42
-1.86
-7.57
-13.52
-19.46
-25.14
-30.42
-35.34
-40.18
-45.41
-51.58
-59.05
-67.71
-76.74
-84.63
-89.5
-89.64
-84.14
-73.21
-58.17
-40.97
-23.57
-7.44
6.72
18.79
29.03
37.7
44.98
50.91
55.5
58.79
60.87
61.85
61.87
61.11
59.73
57.95
55.96
53.99
52.19
50.64
49.34
48.18
46.96
45.49
43.63
41.33
38.59
35.45
31.94
28.06
23.81
19.23
14.41
9.49
4.59
-0.17
-4.78
-9.28
-13.79
-18.49
-23.49
-28.84
-34.4
-39.95
-45.23
-50.13
-54.74
-59.38
-64.55
-70.7
-78.04
-86.26
-94.35
-100.75
-103.67
-101.67
-94.14
-81.57
-65.34
-47.33
-29.26
-12.36
2.76
15.92
27.14
36.48
44.02
49.91
54.43
57.9
60.55
62.49
63.67
63.97
63.4
62.06
60.29
58.45
56.89
55.77
55.05
54.51
53.84
52.77
51.12
48.84
46.01
42.79
39.38
35.94
32.57
29.25
25.87
22.29
18.39
14.11
9.57
4.95
0.46
-3.7
-7.53
-11.14
-14.77
-18.67
-23.01
-27.79
-32.86
-37.99
-42.92
-47.53
-51.84
-55.99
-60.24
-64.91
-70.34
-76.78
-84.22
-92.18
-99.51
-104.55
-105.56
-101.24
-91.38
-76.94
-59.73
-41.84
-24.9
-9.77
3.39
14.8
24.65
32.93
39.54
44.46
47.87
50.11
51.53
52.28
52.35
51.6
50.02
47.75
45.19
42.78
40.89
39.67
38.91
38.21
37.07
35.14
32.32
28.78
24.91
21.13
17.66
14.45
11.15
7.33
2.65
-2.9
-8.98
-15.04
-20.6
-25.42
-29.63
-33.65
-38.05
-43.32
-49.76
-57.31
-65.47
-73.25
-79.23
-81.85
-79.86
-72.75
-60.99
-45.96
-29.55
-13.6
0.58
12.42
22.0
29.76
36.16
41.46
45.66
48.63
50.29
50.68
50.02
48.64
46.8
44.68
42.38
39.97
37.6
35.42
33.54
31.91
30.3
28.39
25.93
22.87
19.36
15.59
11.72
7.68
3.29
-1.68
-7.25
-13.24
-19.28
-25.03
-30.3
-35.19
-40.04
-45.31
-51.45
-58.71
-66.95
-75.5
-83.12
-88.18
-89.08
-84.84
-75.47
-62.02
-46.22
-29.88
-14.37
-0.37
11.95
22.65
31.78
39.3
45.2
49.59
52.75
54.96
56.45
57.26
57.3
56.44
54.69
52.18
49.24
46.27
43.66
41.64
40.22
39.11
37.86
36.02
33.29
29.68
25.46
21.04
16.77
12.74
8.8
4.63
-0.1
-5.54
-11.6
-17.98
-24.28
-30.14
-35.32
-39.88
-44.07
-48.39
-53.43
-59.7
-67.36
-75.98
-84.43
-91.05
-94.1
-92.29
-85.21
-73.49
-58.54
-42.07
-25.57
-10.07
3.92
16.2
26.72
35.45
42.46
47.89
52.03
55.17
57.52
59.09
59.76
59.36
57.86
55.42
52.45
49.42
46.8
44.85
43.54
42.56
41.46
39.77
37.22
33.78
29.65
25.16
20.68
16.4
12.35
8.34
4.1
-0.63
-5.94
-11.69
-17.56
-23.18
-28.32
-32.97
-37.38
-41.96
-47.16
-53.35
-60.59
-68.51
-76.21
-82.24
-85.01
-83.18
-76.21
-64.64
-49.91
-33.88
-18.22
-4.0
8.42
19.13
28.29
35.94
41.97
46.26
48.88
50.12
50.44
50.29
49.93
49.35
48.41
46.85
44.56
41.61
38.26
34.89
31.81
29.16
26.8
24.41
21.56
17.96
13.54
8.47
3.08
-2.29
-7.38
-12.1
-16.57
-20.98
-25.61
-30.75
-36.66
-43.44
-50.92
-58.45
-64.89
-68.83
-69.02
-64.75
-56.15
-44.17
-30.2
-15.72
-1.91
10.51
21.25
30.27
37.68
43.56
48.02
51.12
52.94
53.56
53.1
51.72
49.64
47.14
44.47
41.86
39.46
37.32
35.39
33.52
31.48
29.09
26.21
22.85
19.14
15.25
11.33
7.43
3.47
-0.69
-5.18
-10.03
-15.16
-20.36
-25.43
-30.24
-34.82
-39.36
-44.16
-49.54
-55.72
-62.65
-69.82
-76.19
-80.4
-81.08
-77.34
-69.14
-57.34
-43.43
-28.97
-15.12
-2.42
9.07
19.5
28.87
36.98
43.57
48.47
51.79
53.84
54.96
55.41
55.25
54.39
52.83
50.65
48.15
45.71
43.66
42.21
41.34
40.85
40.45
39.81
38.62
36.65
33.78
30.06
25.68
20.94
16.14
11.49
7.0
2.52
-2.18
-7.2
-12.46
-17.65
-22.43
-26.57
-30.11
-33.32
-36.68
-40.64
-45.58
-51.59
-58.37
-65.11
-70.6
-73.52
-72.86
-68.33
-60.44
-50.34
-39.31
-28.38
-18.05
-8.41
0.56
8.77
15.93
21.64
25.68
28.06
29.01
28.85
27.84
26.13
23.75
20.76
17.21
13.28
9.18
5.16
1.49
-1.62
-3.97
-5.49
-6.31
-6.74
-7.21
-8.15
-9.77
-11.97
-14.34
-16.42
-17.9
-18.87
-19.8
-21.39
-24.29
-28.79
-34.73
-41.43
-47.9
-53.01
-55.75
-55.39
-51.65
-44.66
-34.95
-23.32
-10.68
1.99
13.78
23.87
31.65
36.76
39.24
39.55
38.42
36.66
34.86
33.32
31.96
30.57
28.91
26.89
24.63
22.4
20.51
19.21
18.52
18.2
17.74
16.53
14.13
10.36
5.47
-0.03
-5.6
-10.9
-15.85
-20.6
-25.4
-30.51
-36.21
-42.72
-50.08
-57.99
-65.56
-71.41
-73.98
-72.07
-65.33
-54.4
-40.77
-26.3
-12.72
-1.21
7.74
14.31
19.09
22.87
26.4
30.17
34.23
38.08
40.8
41.33
39.02
33.96
27.15
20.28
15.12
12.81
13.32
15.37
16.84
15.64
10.65
2.23
-7.82
-16.93
-22.83
-24.58
-23.05
-20.61
-20.06
-23.41
-31.07
-41.82
-53.52
-63.98
-71.61
-75.52
-75.2
-70.48
-61.79
-50.58
-39.2
-29.85
-23.02
-16.74
-7.21
8.93
32.36
60.16
86.97
107.71
119.97
124.9
125.63
124.67
122.16
116.39
105.88
91.32
75.83
63.31
56.72
56.26
59.21
61.4
59.38
51.99
40.3
26.38
11.85
-1.84
-13.78
-23.62
-31.45
-37.42
-41.53
-43.8
-44.63
-45.06
-45.12
-44.17
-41.27
-35.53
-25.93
-11.29
9.31
35.63
61.77
80.45
87.3
84.05
75.48
64.97
53.11
38.77
22.76
3.39
-17.96
-37.98
-53.37
-62.66
-66.43
-66.52
-63.85
-59.7
-55.51
-51.42
-47.2
-42.99
-39.64
-38.19
-39.01
-41.53
-44.78
-48.17
-51.05
-53.51
-56.36
-60.66
-66.9
-74.47
-81.93
-87.8
-91.09
-90.95
-86.86
-78.67
-66.64
-51.46
-34.21
-16.27
0.84
15.8
28.0
37.47
44.58
49.82
53.55
55.92
57.0
56.81
55.5
53.43
51.0
48.39
45.48
41.88
37.31
31.9
26.28
21.35
17.79
15.64
14.29
12.77
10.26
6.46
1.65
-3.66
-9.09
-14.67
-20.73
-27.64
-35.55
-44.26
-53.4
-62.52
-71.25
-79.19
-85.74
-89.98
-90.85
-87.38
-79.12
-66.41
-50.36
-32.59
-14.77
1.72
16.04
27.84
37.07
43.91
48.63
51.66
53.59
55.08
56.75
58.9
61.44
63.86
65.5
65.83
64.73
62.41
59.31
55.77
51.84
47.32
41.96
35.73
28.87
21.9
15.33
9.46
4.23
-0.77
-6.13
-12.44
-20.09
-29.05
-38.73
-47.91
-55.01
-58.45
-57.14
-50.84
-40.22
-26.66
-11.81
2.81
16.1
27.46
36.73
44.08
49.87
54.53
58.4
61.62
64.01
65.19
64.83
62.85
59.62
55.85
52.37
49.7
47.9
46.56
45.08
42.94
39.98
36.35
32.42
28.51
24.74
21.01
17.08
12.74
7.87
2.55
-2.99
-8.52
-13.89
-19.12
-24.38
-29.97
-36.1
-42.92
-50.37
-58.21
-65.97
-72.83
-77.7
-79.34
-76.75
-69.57
-58.33
-44.42
-29.67
-15.87
-4.25
4.72
11.28
16.08
19.86
23.22
26.52
29.9
33.36
36.84
40.23
43.35
46.0
47.91
48.87
48.79
47.8
46.26
44.72
43.67
43.37
43.74
44.37
44.68
44.16
42.52
39.75
36.03
31.66
26.87
21.87
16.83
11.91
7.28
3.03
-0.93
-4.81
-8.92
-13.52
-18.72
-24.4
-30.33
-36.16
-41.64
-46.7
-51.5
-56.44
-61.93
-68.15
-74.73
-80.68
-84.54
-84.85
-80.74
-72.19
-60.08
-45.83
-30.88
-16.37
-2.96
9.01
19.36
27.95
34.67
39.55
42.79
44.76
45.8
46.15
45.9
44.96
43.25
40.82
37.94
35.13
32.98
31.92
31.96
32.62
33.07
32.52
30.51
27.12
22.89
18.48
14.32
10.51
6.8
2.87
-1.47
-6.2
-11.08
-15.86
-20.33
-24.41
-28.14
-31.71
-35.4
-39.54
-44.44
-50.15
-56.26
-61.83
-65.53
-66.02
-62.44
-54.75
-43.77
-30.95
-17.83
-5.63
4.95
13.75
20.91
26.63
31.05
34.28
36.41
37.65
38.22
38.3
37.95
37.1
35.69
33.75
31.53
29.38
27.61
26.28
25.16
23.82
21.84
19.08
15.69
12.05
8.54
5.25
2.04
-1.46
-5.48
-10.06
-14.89
-19.58
-23.79
-27.45
-30.74
-34.01
-37.61
-41.82
-46.76
-52.37
-58.34
-64.05
-68.51
-70.58
-69.24
-64.01
-55.13
-43.56
-30.63
-17.66
-5.63
4.96
13.98
21.56
27.91
33.23
37.68
41.3
44.05
45.81
46.46
46.02
44.69
42.72
40.47
38.27
36.43
35.1
34.28
33.86
33.66
33.43
32.87
31.71
29.88
27.55
24.93
22.18
19.33
16.28
12.92
9.03
4.56
-0.29
-4.99
-9.21
-12.84
-15.98
-18.84
-21.68
-25.03
-29.22
-34.09
-38.68
-42.52
-45.51
-48.01
-50.54
-53.72
-58.78
-66.36
-75.81
-84.42
-90.05
-91.14
-87.19
-78.38
-65.61
-51.57
-38.73
-28.34
-19.04
-10.68
-3.59
1.34
3.86
4.14
1.01
-6.44
-18.14
-31.47
-45.76
-60.83
-76.81
-92.68
-96.81
-82.22
-51.52
-25.06
-7.7
0.88
6.11
10.63
16.34
23.96
31.18
34.92
33.27
28.08
20.59
14.98
13.94
18.44
27.17
36.76
45.12
52.43
61.44
72.47
83.61
90.94
91.05
82.65
66.61
46.31
25.94
10.69
3.1
2.94
7.34
12.63
16.1
16.65
15.3
14.64
17.98
26.91
40.91
58.56
76.44
91.31
101.35
106.71
108.83
109.45
109.11
107.06
101.98
92.98
80.65
66.56
52.43
39.16
26.95
15.78
6.08
-1.12
-4.93
-5.32
-3.75
-3.04
-6.21
-14.89
-28.32
-43.38
-55.8
-62.06
-60.8
-53.5
-44.01
-37.12
-36.65
-44.03
-57.96
-75.06
-91.5
-104.42
-112.91
-118.17
-122.66
-128.74
-137.42
-147.76
-157.17
-162.42
-160.91
-151.61
-135.4
-114.32
-90.64
-66.01
-41.43
-17.71
4.02
22.15
35.25
42.72
45.61
46.32
47.45
50.44
54.94
59.12
60.84
58.87
52.99
44.59
36.13
30.2
28.49
31.37
37.99
46.7
55.6
62.08
64.47
62.52
57.14
49.53
40.69
31.62
23.5
17.52
12.9
8.55
3.61
-2.55
-10.83
-22.41
-38.29
-58.5
-81.58
-106.57
-130.89
-150.97
-163.97
-169.81
-170.96
-170.43
-169.41
-154.04
-117.0
-62.38
-3.65
46.24
80.89
100.45
109.02
111.53
111.38
107.53
98.36
84.3
68.71
55.13
46.38
43.54
45.78
51.05
55.54
56.68
54.17
49.5
44.45
40.28
37.55
36.14
35.78
35.02
32.6
28.0
21.46
13.54
4.96
-3.58
-11.49
-18.49
-25.12
-32.07
-39.79
-48.36
-57.74
-67.65
-77.4
-85.7
-90.85
-91.59
-87.67
-80.2
-71.51
-64.38
-60.95
-61.88
-66.38
-72.77
-79.49
-85.68
-91.08
-95.47
-98.07
-97.48
-92.1
-80.86
-63.65
-41.25
-14.82
14.57
46.04
78.53
110.43
139.39
162.82
178.63
185.92
185.26
178.4
167.61
155.13
142.73
131.54
122.01
113.99
106.85
99.66
91.63
82.52
72.86
63.75
56.33
51.22
48.08
45.85
43.18
39.1
33.38
26.44
18.97
11.37
3.58
-4.82
-14.23
-24.83
-36.54
-49.23
-62.83
-77.09
-91.23
-103.66
-112.22
-114.87
-110.71
-100.44
-86.23
-70.84
-56.52
-44.28
-33.94
-24.74
-16.07
-7.92
-0.75
4.93
8.86
11.09
11.75
10.76
7.84
2.75
-4.3
-12.51
-20.58
-27.18
-31.35
-32.81
-31.82
-28.89
-24.43
-18.63
-11.62
-3.84
3.84
10.24
14.25
15.35
13.88
10.88
7.65
5.08
3.25
1.43
-1.51
-6.53
-13.9
-22.89
-31.93
-39.01
-42.11
-39.59
-30.39
-14.09
9.0
37.57
69.11
99.94
125.97
143.67
151.4
149.99
142.45
132.87
124.84
120.25
118.93
119.22
118.79
115.56
108.15
96.12
80.11
61.93
44.36
30.47
22.53
21.01
24.37
29.71
34.12
35.88
34.83
31.73
27.24
21.28
13.15
2.49
-9.97
-22.34
-32.41
-38.82
-41.7
-42.59
-43.55
-46.08
-50.5
-56.05
-61.46
-65.51
-67.52
-67.29
-64.93
-60.69
-54.88
-48.06
-41.19
-35.59
-32.54
-32.6
-35.16
-38.38
-39.88
-37.73
-31.18
-20.9
-8.61
3.8
14.89
23.98
31.18
37.01
42.23
47.73
54.45
63.03
73.35
83.99
92.34
95.11
89.45
74.05
49.81
19.81
-11.57
-39.85
-61.61
-75.15
-80.3
-77.94
-69.38
-56.19
-40.27
-23.97
-10.02
-0.98
1.43
-3.1
-13.43
-27.44
-42.83
-57.88
-71.83
-84.66
-96.75
-108.47
-120.06
-131.59
-142.88
-153.4
-162.08
-167.36
-167.57
-161.46
-148.82
-130.57
-108.59
-85.02
-61.59
-39.35
-18.62
0.59
18.24
34.02
47.47
58.25
66.32
72.0
75.78
78.11
79.21
78.99
77.29
73.99
69.23
63.43
57.06
50.6
44.25
38.0
31.64
24.89
17.54
9.51
0.96
-7.74
-16.04
-23.38
-29.32
-33.77
-37.09
-40.15
-44.06
-49.8
-57.73
-67.23
-76.6
-83.56
-85.88
-82.24
-72.72
-58.75
-42.57
-26.44
-11.94
0.28
10.33
18.68
25.73
31.62
36.26
39.52
41.43
42.22
42.14
41.42
40.14
38.3
35.97
33.32
30.67
28.32
26.46
25.11
24.11
23.36
22.8
22.49
22.49
22.73
22.95
22.75
21.66
19.26
15.27
9.6
2.35
-6.19
-15.56
-25.29
-35.0
-44.56
-53.99
-63.32
-72.35
-80.34
-86.12
-88.28
-85.61
-77.41
-63.73
-45.3
-23.36
0.57
24.84
47.78
67.82
83.6
94.2
99.3
99.24
95.0
87.94
79.51
70.96
63.14
56.44
50.96
46.62
43.34
41.08
39.78
39.28
39.32
39.52
39.56
39.24
38.53
37.5
36.2
34.59
32.54
29.91
26.58
22.52
17.73
12.27
6.26
-0.03
-6.19
-11.74
-16.26
-19.64
-22.13
-24.28
-26.74
-29.99
-34.16
-38.97
-43.91
-48.48
-52.36
-55.53
-58.33
-61.31
-65.13
-70.34
-77.09
-84.88
-92.47
-98.05
-99.74
-96.19
-87.05
-73.16
-56.2
-38.19
-20.88
-5.37
7.9
18.94
28.0
35.35
41.27
46.04
49.96
53.27
56.05
58.24
59.63
60.08
59.52
58.12
56.21
54.19
52.43
51.17
50.45
50.13
49.92
49.49
48.52
46.87
44.54
41.73
38.7
35.64
32.58
29.34
25.67
21.39
16.55
11.43
6.43
1.91
-2.04
-5.67
-9.41
-13.66
-18.55
-23.9
-29.3
-34.36
-38.92
-43.13
-47.41
-52.26
-58.12
-65.18
-73.27
-81.77
-89.56
-95.15
-97.01
-93.97
-85.69
-72.8
-56.73
-39.35
-22.4
-7.16
5.72
16.12
24.26
30.52
35.36
39.19
42.26
44.66
46.29
47.02
46.76
45.64
43.92
41.98
40.13
38.56
37.34
36.4
35.62
34.85
33.93
32.73
31.07
28.77
25.63
21.54
16.51
10.68
4.39
-1.96
-8.02
-13.56
-18.63
-23.42
-28.3
-33.66
-39.88
-47.25
-55.81
-65.21
-74.46
-82.05
-86.2
-85.46
-79.22
-67.94
-53.05
-36.47
-19.95
-4.72
8.62
19.95
29.39
37.11
43.24
47.96
51.42
53.78
55.2
55.77
55.62
54.91
53.75
52.28
50.56
48.71
46.94
45.49
44.59
44.27
44.26
44.03
42.98
40.66
36.96
32.19
26.9
21.62
16.68
12.08
7.54
2.69
-2.69
-8.6
-14.79
-20.9
-26.66
-32.02
-37.09
-42.07
-47.18
-52.56
-58.41
-65.01
-72.61
-81.09
-89.69
-96.81
-100.4
-98.63
-90.59
-76.77
-58.88
-39.26
-20.08
-2.78
12.09
24.63
35.22
44.24
51.91
58.4
63.84
68.39
72.2
75.43
78.21
80.68
82.93
84.96
86.72
88.18
89.4
90.6
92.15
94.37
97.38
100.97
104.64
107.75
109.76
110.45
110.05
109.17
108.64
109.26
111.55
115.48
120.38
124.92
127.19
125.16
117.1
102.17
80.63
53.77
23.5
-8.19
-39.73
-70.17
-99.12
-126.53
-152.45
-176.85
-199.68
-220.98
-241.05
-260.49
-280.15
-300.66
-321.92
-342.64
-360.17
-370.98
-371.59
-359.64
-334.55
-297.68
-251.83
-200.54
-147.46
-95.92
-48.75
-8.04
25.06
50.63
69.87
84.78
97.42
109.23
120.55
130.67
138.36
142.47
142.49
138.76
132.21
124.08
115.47
107.17
99.6
92.89
86.97
81.63
76.55
71.36
65.65
59.14
51.64
43.19
34.02
24.47
14.96
5.87
-2.54
-10.21
-17.34
-24.36
-31.87
-40.42
-50.32
-61.27
-72.26
-81.65
-87.51
-88.18
-82.85
-71.8
-56.35
-38.37
-19.76
-2.0
14.01
27.9
39.6
49.14
56.63
62.2
66.07
68.54
69.9
70.39
70.12
69.15
67.53
65.42
63.09
60.93
59.25
58.19
57.64
57.24
56.52
55.0
52.36
48.5
43.57
37.91
31.89
25.88
20.07
14.38
8.58
2.33
-4.62
-12.26
-20.35
-28.45
-36.16
-43.24
-49.77
-56.15
-63.01
-70.98
-80.44
-91.11
-101.8
-110.59
-115.2
-113.76
-105.46
-90.89
-71.82
-50.61
-29.47
-9.97
7.11
21.58
33.58
43.33
51.11
57.25
62.08
65.88
68.82
70.88
72.06
72.34
71.82
70.68
69.14
67.45
65.8
64.33
63.11
62.08
61.04
59.73
57.86
55.24
51.84
47.79
43.3
38.61
33.86
29.13
24.39
19.59
14.72
9.76
4.71
-0.51
-6.0
-11.9
-18.3
-25.14
-32.23
-39.29
-46.06
-52.44
-58.56
-64.85
-71.88
-80.21
-90.09
-101.1
-112.0
-120.85
-125.42
-123.93
-115.67
-101.24
-82.39
-61.38
-40.3
-20.57
-2.92
12.48
25.69
36.77
45.8
52.92
58.37
62.5
65.65
68.03
69.75
70.78
71.06
70.51
69.19
67.26
65.02
62.86
61.06
59.74
58.73
57.62
55.93
53.26
49.45
44.63
39.17
33.55
28.19
23.28
18.72
14.13
9.01
3.01
-3.93
-11.48
-19.06
-26.06
-32.11
-37.3
-42.06
-47.11
-53.14
-60.61
-69.59
-79.56
-89.4
-97.43
-101.81
-100.97
-94.14
-81.69
-64.99
-46.07
-27.01
-9.43
5.79
18.4
28.58
36.65
42.9
47.58
50.9
53.06
54.26
54.66
54.4
53.61
52.37
50.76
48.86
46.77
44.6
42.5
40.57
38.82
37.12
35.17
32.59
29.02
24.26
18.42
11.85
5.04
-1.52
-7.56
-13.1
-18.43
-23.95
-30.1
-37.21
-45.42
-54.62
-64.29
-73.37
-80.36
-83.65
-82.01
-75.01
-63.3
-48.38
-32.09
-16.03
-1.22
11.93
23.46
33.45
41.93
48.81
54.02
57.58
59.69
60.69
60.9
60.62
59.94
58.86
57.33
55.37
53.21
51.17
49.61
48.66
48.16
47.59
46.36
44.02
40.43
35.86
30.79
25.68
20.82
16.2
11.6
6.7
1.25
-4.83
-11.37
-18.11
-24.69
-30.82
-36.38
-41.49
-46.48
-51.87
-58.19
-65.78
-74.5
-83.52
-91.38
-96.29
-96.69
-91.77
-81.72
-67.7
-51.37
-34.43
-18.27
-3.77
8.65
18.89
27.11
33.67
39.04
43.65
47.77
51.38
54.29
56.24
57.07
56.84
55.77
54.2
52.53
51.06
50.0
49.39
49.12
48.92
48.48
47.49
45.77
43.25
40.0
36.22
32.19
28.12
24.16
20.31
16.5
12.62
8.64
4.57
0.44
-3.81
-8.3
-13.18
-18.46
-23.96
-29.36
-34.28
-38.53
-42.21
-45.69
-49.5
-54.18
-60.1
-67.24
-75.08
-82.58
-88.27
-90.66
-88.6
-81.74
-70.65
-56.66
-41.41
-26.4
-12.67
-0.74
9.32
17.63
24.39
29.79
33.98
37.09
39.22
40.46
40.9
40.66
39.96
39.03
38.07
37.21
36.46
35.73
34.89
33.79
32.35
30.52
28.32
25.82
23.14
20.36
17.55
14.69
11.68
8.39
4.68
0.5
-4.1
-8.97
-13.85
-18.51
-22.78
-26.68
-30.47
-34.58
-39.5
-45.45
-52.16
-58.73
-63.76
-65.75
-63.64
-57.16
-46.94
-34.32
-20.84
-7.85
3.74
13.57
21.59
27.93
32.79
36.32
38.71
40.12
40.69
40.55
39.78
38.51
36.9
35.14
33.47
32.04
30.94
30.13
29.47
28.71
27.57
25.79
23.28
20.15
16.68
13.2
9.93
6.83
3.64
0.01
-4.35
-9.39
-14.83
-20.21
-25.14
-29.42
-33.13
-36.54
-40.0
-43.92
-48.62
-54.23
-60.47
-66.57
-71.22
-72.96
-70.63
-63.81
-53.06
-39.72
-25.5
-11.86
0.23
10.46
18.85
25.67
31.12
35.42
38.74
41.27
43.15
44.45
45.12
45.1
44.35
42.99
41.25
39.45
37.87
36.66
35.79
35.09
34.3
33.24
31.8
29.98
27.84
25.47
22.88
20.05
16.93
13.49
9.75
5.83
1.92
-1.78
-5.12
-8.08
-10.74
-13.36
-16.19
-19.46
-23.2
-27.32
-31.57
-35.69
-39.51
-42.99
-46.26
-49.57
-53.27
-57.67
-62.95
-68.95
-75.05
-80.24
-83.23
-82.8
-78.21
-69.48
-57.36
-43.17
-28.43
-14.51
-2.35
7.61
15.37
21.25
25.74
29.37
32.53
35.42
37.97
39.97
41.19
41.52
41.0
39.84
38.32
36.72
35.28
34.16
33.43
33.05
32.84
32.53
31.87
30.67
28.9
26.61
23.86
20.65
16.96
12.85
8.48
4.16
0.18
-3.32
-6.43
-9.41
-12.59
-16.18
-20.21
-24.52
-28.89
-33.13
-37.12
-40.87
-44.46
-48.08
-51.96
-56.44
-61.78
-67.88
-74.13
-79.36
-82.09
-81.0
-75.46
-65.8
-53.23
-39.38
-25.81
-13.53
-2.92
6.06
13.66
20.04
25.25
29.25
32.04
33.72
34.46
34.53
34.16
33.55
32.79
31.88
30.76
29.43
27.96
26.52
25.27
24.26
23.33
22.17
20.47
17.98
14.7
10.75
6.32
1.52
-3.56
-8.84
-14.16
-19.29
-23.99
-28.18
-32.05
-36.06
-40.78
-46.65
-53.73
-61.49
-68.86
-74.41
-76.69
-74.74
-68.31
-57.99
-44.99
-30.81
-16.79
-3.86
7.5
17.21
25.29
31.85
36.93
40.63
43.13
44.69
45.61
46.13
46.33
46.16
45.53
44.37
42.77
41.0
39.39
38.2
37.48
37.03
36.43
35.2
33.01
29.79
25.76
21.31
16.88
12.76
9.0
5.41
1.67
-2.53
-7.37
-12.83
-18.74
-24.82
-30.78
-36.35
-41.39
-45.92
-50.17
-54.61
-59.83
-66.31
-74.08
-82.5
-90.21
-95.38
-96.38
-92.15
-82.65
-68.8
-52.14
-34.39
-17.03
-1.1
12.78
24.36
33.62
40.73
46.05
50.0
53.03
55.42
57.3
58.63
59.33
59.34
58.71
57.61
56.29
55.0
53.99
53.4
53.25
53.38
53.5
53.25
52.3
50.46
47.74
44.35
40.59
36.76
33.02
29.32
25.5
21.38
16.9
12.19
7.55
3.26
-0.59
-4.14
-7.76
-11.83
-16.56
-21.93
-27.68
-33.47
-39.03
-44.22
-49.02
-53.59
-58.22
-63.37
-69.54
-77.05
-85.66
-94.46
-101.78
-105.71
-104.63
-97.82
-85.65
-69.5
-51.22
-32.66
-15.23
0.18
13.18
23.67
31.78
37.82
42.23
45.52
48.12
50.24
51.84
52.68
52.52
51.33
49.35
47.07
45.0
43.49
42.53
41.88
41.09
39.78
37.77
35.08
31.88
28.39
24.71
20.86
16.75
12.24
7.25
1.8
-3.97
-9.83
-15.51
-20.79
-25.64
-30.24
-34.98
-40.38
-46.89
-54.66
-63.25
-71.56
-78.0
-80.85
-78.81
-71.44
-59.28
-43.72
-26.56
-9.51
6.11
19.56
30.58
39.22
45.72
50.34
53.39
55.15
55.94
56.03
55.65
54.93
53.96
52.74
51.31
49.75
48.18
46.79
45.67
44.87
44.25
43.58
42.57
40.89
38.32
34.79
30.37
25.33
20.02
14.77
9.8
5.11
0.55
-4.13
-9.16
-14.61
-20.42
-26.36
-32.15
-37.55
-42.49
-47.03
-51.46
-56.23
-61.81
-68.6
-76.61
-85.29
-93.41
-99.25
-101.03
-97.43
-88.06
-73.62
-55.65
-36.14
-16.95
0.5
15.36
27.33
36.49
43.2
48.06
51.71
54.75
57.51
60.06
62.16
63.46
63.71
62.82
60.96
58.49
55.87
53.58
51.97
51.17
51.0
51.05
50.76
49.66
47.5
44.36
40.54
36.44
32.35
28.34
24.34
20.16
15.71
11.0
6.21
1.56
-2.75
-6.68
-10.38
-14.13
-18.24
-22.89
-28.07
-33.56
-38.98
-44.04
-48.6
-52.76
-56.88
-61.46
-67.08
-74.06
-82.3
-91.01
-98.73
-103.62
-103.94
-98.62
-87.64
-72.05
-53.65
-34.43
-16.08
0.34
14.29
25.7
34.67
41.48
46.43
49.99
52.61
54.69
56.4
57.71
58.39
58.26
57.23
55.45
53.21
50.86
48.68
46.88
45.53
44.58
43.88
43.13
41.94
39.95
36.89
32.79
27.89
22.63
17.42
12.51
7.88
3.37
-1.28
-6.28
-11.67
-17.32
-23.03
-28.53
-33.62
-38.19
-42.25
-46.02
-49.89
-54.35
-59.92
-66.84
-74.88
-83.11
-90.03
-93.82
-92.9
-86.41
-74.57
-58.62
-40.48
-22.19
-5.4
8.89
20.34
29.09
35.56
40.19
43.46
45.71
47.25
48.23
48.65
48.5
47.7
46.32
