-58.11
-65.42
-71.79
-75.89
-76.41
-72.5
-64.08
-51.92
-37.44
-22.17
-7.47
5.79
17.2
26.65
34.23
40.1
44.51
47.71
49.95
51.41
52.14
52.13
51.37
49.93
47.99
45.81
43.68
41.81
40.34
39.24
38.29
37.21
35.6
33.23
30.1
26.42
22.6
18.97
15.64
12.46
9.06
5.08
0.22
-5.55
-12.14
-19.32
-26.81
-34.37
-41.85
-49.25
-56.77
-64.63
-72.84
-80.91
-87.7
-91.72
-91.53
-86.38
-76.49
-63.01
-47.57
-31.73
-16.6
-2.71
9.79
20.86
30.44
38.4
44.67
49.34
52.65
54.92
56.39
57.2
57.41
57.07
56.27
55.16
53.91
52.7
51.63
50.76
50.06
49.47
48.87
48.1
47.05
45.59
43.66
41.26
38.43
35.27
31.92
28.59
25.46
22.69
20.28
18.08
15.79
13.04
9.56
5.34
0.61
-4.24
-8.78
-12.81
-16.38
-19.8
-23.43
-27.51
-32.1
-37.06
-42.14
-47.1
-51.77
-56.07
-60.07
-63.97
-68.13
-73.03
-79.05
-86.21
-93.85
-100.67
-104.98
-105.15
-100.22
-90.21
-76.08
-59.41
-41.91
-25.01
-9.68
3.64
14.85
24.08
31.6
37.75
42.86
47.14
50.67
53.41
55.24
56.13
56.12
55.42
54.27
52.94
51.65
50.56
49.73
49.15
48.71
48.27
47.66
46.72
45.35
43.46
41.09
38.28
35.17
31.92
28.71
25.64
22.71
19.81
16.77
13.45
9.83
6.0
2.17
-1.48
-4.86
-8.07
-11.33
-14.84
-18.74
-23.02
-27.53
-32.11
-36.67
-41.16
-45.61
-50.03
-54.43
-58.91
-63.68
-69.08
-75.34
-82.25
-89.01
-94.17
-96.06
-93.34
-85.54
-73.26
-57.96
-41.38
-25.07
-10.05
3.2
14.55
23.98
31.54
37.4
41.86
45.28
47.99
50.14
51.68
52.52
52.65
52.19
51.36
50.36
49.3
48.21
47.16
46.24
45.56
45.15
44.89
44.55
43.87
42.66
40.88
38.59
35.91
32.94
29.73
26.39
22.98
19.63
16.43
13.37
10.42
7.46
4.36
1.01
-2.59
-6.35
-10.12
-13.69
-17.0
-20.14
-23.39
-27.08
-31.42
-36.35
-41.58
-46.71
-51.38
-55.5
-59.33
-63.33
-68.05
-73.89
-80.85
-88.36
-95.27
-100.04
-101.16
-97.58
-89.1
-76.47
-61.12
-44.69
-28.6
-13.74
-0.46
11.2
21.27
29.74
36.56
41.81
45.73
48.64
50.84
52.47
53.48
53.75
53.26
52.16
50.77
49.46
48.48
47.91
47.68
47.6
47.49
47.17
46.45
45.22
43.4
41.03
38.29
35.42
32.59
29.91
27.29
24.5
21.3
17.52
13.2
8.6
4.09
0.04
-3.37
-6.28
-9.08
-12.24
-16.12
-20.78
-26.0
-31.42
-36.66
-41.52
-46.02
-50.3
-54.55
-59.04
-64.09
-70.0
-76.93
-84.6
-92.14
-98.08
-100.72
-98.7
-91.52
-79.71
-64.7
-48.25
-31.9
-16.63
-2.87
9.3
19.86
28.73
35.76
40.93
44.41
46.59
47.96
48.88
49.52
49.78
49.46
48.44
46.78
44.8
42.93
41.57
40.85
40.6
40.39
39.76
38.34
36.04
32.98
29.42
25.62
21.79
17.98
14.13
10.12
5.77
0.93
-4.43
-10.19
-16.07
-21.73
-26.88
-31.44
-35.58
-39.72
-44.39
-50.06
-56.96
-64.81
-72.76
-79.42
-83.13
-82.51
-76.88
-66.55
-52.74
-37.13
-21.35
-6.51
6.83
18.55
28.64
37.07
43.7
48.49
51.56
53.24
53.99
54.18
54.03
53.57
52.68
51.29
49.39
47.18
44.96
43.08
41.75
41.0
40.6
40.13
39.15
37.3
34.47
30.76
26.44
21.84
17.21
12.61
7.94
3.02
-2.31
-8.1
-14.24
-20.48
-26.55
-32.23
-37.48
-42.41
-47.24
-52.31
-58.0
-64.66
-72.48
-81.24
-90.1
-97.62
-102.06
-101.87
-96.24
-85.41
-70.59
-53.48
-35.79
-18.77
-3.13
10.79
22.81
32.83
40.86
47.08
51.84
55.56
58.5
60.74
62.16
62.64
62.17
60.93
59.22
57.38
55.65
54.15
52.92
51.87
50.9
49.85
48.58
46.95
44.86
42.25
39.02
35.13
30.56
25.44
20.04
14.68
9.6
4.84
0.24
-4.55
-9.86
-15.82
-22.31
-28.97
-35.39
-41.25
-46.5
-51.36
-56.31
-61.93
-68.69
-76.79
-85.83
-94.78
-102.08
-105.95
-104.96
-98.43
-86.69
-70.99
-53.09
-34.73
-17.26
-1.44
12.38
24.16
33.95
41.87
48.1
52.89
56.55
59.34
61.39
62.68
63.09
62.57
61.16
59.07
56.65
54.31
52.35
50.92
50.01
49.36
48.53
47.05
44.6
41.14
36.85
32.08
27.2
22.46
17.85
13.09
7.86
2.04
-4.27
-10.69
-16.87
-22.59
-27.79
-32.72
-37.81
-43.43
-49.8
-56.97
-64.9
-73.34
-81.59
-88.12
-91.31
-90.0
-83.71
-72.67
-57.74
-40.25
-21.72
-3.69
13.4
28.84
41.71
51.52
58.77
64.67
70.26
75.72
80.01
82.72
82.75
78.97
71.62
62.95
56.59
55.96
63.15
78.3
101.33
129.28
156.44
176.35
184.36
179.14
162.91
140.89
108.21
68.43
30.32
0.86
-20.13
-37.41
-54.82
-72.82
-89.1
-101.14
-106.13
-104.65
-100.26
-97.24
-98.2
-102.95
-109.83
-115.23
-115.62
-107.07
-88.25
-61.09
-29.72
1.39
28.85
50.31
64.72
71.94
73.44
70.62
64.68
57.0
48.2
40.4
35.02
32.09
30.44
29.1
27.27
24.54
20.98
16.89
12.84
9.04
5.48
2.05
-1.45
-5.66
-11.71
-20.71
-33.2
-48.43
-64.69
-79.73
-91.54
-99.03
-102.36
-102.73
-101.75
-100.86
-100.84
-101.92
-103.88
-106.09
-107.67
-107.49
-104.44
-97.59
-86.59
-71.71
-53.93
-34.62
-15.12
3.48
20.52
35.66
48.81
59.99
69.36
77.16
83.64
89.08
93.63
97.33
100.06
101.56
101.58
99.86
96.23
90.66
83.26
74.24
63.87
52.43
40.15
27.29
14.23
1.5
-10.2
-20.21
-28.06
-33.67
-37.38
-39.85
-41.84
-43.93
-46.4
-49.19
-52.1
-55.0
-57.98
-61.35
-65.56
-71.0
-77.66
-85.0
-91.91
-96.86
-98.35
-95.33
-87.5
-75.44
-60.3
-43.49
-26.35
-9.87
5.27
18.69
30.2
39.75
47.45
53.46
57.97
61.16
63.07
63.71
63.1
61.35
58.7
55.46
52.02
48.69
45.67
43.0
40.59
38.29
35.97
33.56
30.98
28.12
24.82
20.89
16.24
10.94
5.22
-0.68
-6.53
-12.26
-17.92
-23.58
-29.31
-35.25
-41.6
-48.62
-56.43
-64.68
-72.35
-77.87
-79.57
-76.27
-67.83
-55.24
-40.22
-24.62
-9.84
3.42
15.05
25.18
33.91
41.19
46.93
51.04
53.58
54.7
54.58
53.44
51.51
49.02
46.21
43.27
40.36
37.54
34.87
32.39
30.14
28.08
26.08
23.91
21.3
18.02
13.98
9.19
3.79
-1.97
-7.88
-13.68
-19.25
-24.54
-29.66
-34.83
-40.37
-46.61
-53.75
-61.72
-69.97
-77.5
-82.92
-84.86
-82.35
-75.14
-63.86
-49.8
-34.47
-19.24
-4.98
7.89
19.29
29.21
37.62
44.43
49.63
53.29
55.59
56.77
57.0
56.37
54.92
52.7
49.91
46.87
43.95
41.44
39.43
37.79
36.21
34.36
32.0
29.08
25.71
22.06
18.29
14.38
10.26
5.78
0.85
-4.56
-10.33
-16.25
-22.04
-27.5
-32.51
-37.19
-41.86
-46.98
-53.01
-60.09
-67.86
-75.36
-81.18
-83.88
-82.37
-76.34
-66.28
-53.3
-38.77
-23.91
-9.63
3.56
15.35
25.53
33.95
40.56
45.43
48.8
51.01
52.36
53.05
53.12
52.49
51.06
48.89
46.17
43.28
40.65
38.62
37.33
36.64
36.18
35.46
34.04
31.65
28.26
24.06
19.46
14.85
10.53
6.58
2.87
-0.85
-4.86
-9.24
-13.96
-18.84
-23.7
-28.43
-33.01
-37.5
-42.04
-46.79
-51.98
-57.87
-64.54
-71.69
-78.5
-83.66
-85.71
-83.58
-76.94
-66.36
-53.08
-38.59
-24.17
-10.7
1.35
11.75
20.36
27.13
32.08
35.43
37.48
38.58
38.98
38.79
38.05
36.79
35.08
33.07
30.94
28.88
27.0
25.32
23.79
22.25
20.53
18.45
15.89
12.81
9.24
5.19
0.78
-3.88
-8.63
-13.3
-17.76
-21.98
-26.09
-30.33
-35.04
-40.53
-46.87
-53.79
-60.59
-66.15
-69.2
-68.65
-63.93
-55.29
-43.66
-30.42
-16.93
-4.18
7.29
17.34
25.94
33.09
38.69
42.67
45.05
46.07
46.04
45.28
44.04
42.44
40.48
38.15
35.49
32.61
29.66
26.84
24.31
22.14
20.26
18.48
16.5
14.01
10.8
6.8
2.12
-3.03
-8.36
-13.65
-18.78
-23.73
-28.58
-33.48
-38.65
-44.39
-50.99
-58.53
-66.64
-74.39
-80.37
-83.11
-81.5
-75.25
-64.99
-52.01
-37.83
-23.73
-10.53
1.39
11.93
21.02
28.54
34.37
38.5
41.15
42.64
43.37
43.59
43.36
42.52
40.86
38.28
34.97
31.31
27.83
24.91
22.66
20.84
18.99
16.61
13.37
9.26
4.53
-0.44
-5.32
-9.98
-14.52
-19.19
-24.25
-29.94
-36.41
-43.72
-51.75
-60.01
-67.56
-73.06
-75.07
-72.57
-65.35
-54.15
-40.4
-25.76
-11.62
1.24
12.5
22.18
30.31
36.86
41.8
45.19
47.26
48.32
48.62
48.21
46.96
44.7
41.42
37.41
33.19
29.36
26.29
23.96
22.0
19.83
16.94
13.09
8.34
3.0
-2.58
-8.08
-13.38
-18.57
-23.94
-29.92
-36.94
-45.23
-54.49
-63.83
-71.75
-76.57
-76.9
-72.14
-62.66
-49.7
-34.84
-19.61
-5.12
8.04
19.65
29.68
38.14
44.99
50.21
53.81
55.84
56.5
55.98
54.54
52.4
49.74
46.66
43.33
39.91
36.63
33.69
31.09
28.62
25.86
22.34
17.76
12.16
5.85
-0.71
-7.12
-13.17
-18.9
-24.52
-30.35
-36.72
-43.97
-52.29
-61.61
-71.32
-80.28
-86.95
-89.82
-87.95
-81.21
-70.32
-56.51
-41.0
-24.78
-8.55
7.16
21.81
34.82
45.69
54.14
60.23
64.18
66.3
66.82
65.84
63.45
59.83
55.33
50.42
45.66
41.52
38.25
35.87
34.07
32.34
30.04
26.65
21.92
15.97
9.26
2.39
-4.13
-10.12
-15.74
-21.49
-27.95
-35.6
-44.57
-54.47
-64.4
-72.95
-78.55
-79.84
-76.04
-67.28
-54.52
-39.25
-23.08
-7.33
7.19
20.06
31.16
40.37
47.61
52.78
55.96
57.35
57.29
56.16
54.27
51.8
48.8
45.31
41.47
37.54
33.84
30.59
27.85
25.37
22.72
19.44
15.18
9.85
3.64
-3.13
-10.06
-16.87
-23.41
-29.71
-35.95
-42.49
-49.76
-58.12
-67.59
-77.55
-86.73
-93.37
-95.79
-92.86
-84.48
-71.45
-55.18
-37.17
-18.64
-0.44
16.76
32.33
45.68
56.36
64.28
69.73
73.32
75.68
77.24
78.14
78.29
77.59
76.01
73.76
71.19
68.71
66.7
65.35
64.65
64.33
64.05
63.42
62.12
59.87
56.41
51.46
44.8
36.38
26.5
15.75
4.91
-5.32
-14.52
-22.64
-29.99
-37.02
-44.28
-52.27
-61.4
-71.83
-83.17
-94.36
-103.71
-109.24
-109.44
-103.77
-92.96
-78.74
-63.18
-47.97
-34.05
-21.54
-10.14
0.44
10.16
18.71
25.61
30.55
33.51
34.78
34.81
34.04
32.81
31.33
29.77
28.33
27.25
26.81
27.15
28.23
29.77
31.3
32.35
32.58
31.85
30.25
28.01
25.41
22.71
20.04
17.42
14.68
11.59
7.87
3.35
-1.94
-7.8
-13.89
-19.91
-25.64
-31.08
-36.37
-41.77
-47.62
-54.29
-62.1
-71.06
-80.66
-89.67
-96.26
-98.48
-94.96
-85.48
-71.08
-53.72
-35.54
-18.23
-2.66
11.05
23.16
33.9
43.3
51.23
57.49
61.99
64.71
65.69
65.02
62.84
59.39
55.06
50.27
45.47
41.02
37.12
33.81
30.99
28.46
26.02
23.46
20.68
17.61
14.24
10.56
6.53
2.13
-2.63
-7.71
-12.97
-18.29
-23.61
-29.02
-34.76
-41.23
-48.74
-57.41
-66.88
-76.17
-83.79
-87.98
-87.33
-81.18
-69.94
-55.0
-38.23
-21.43
-5.9
7.76
19.48
29.43
37.8
44.68
50.09
54.1
56.8
58.34
58.82
58.35
57.01
54.92
52.3
49.43
46.64
44.24
42.35
40.89
39.58
38.01
35.77
32.66
28.72
24.19
19.42
14.69
10.13
5.64
0.95
-4.25
-10.16
-16.78
-23.85
-30.96
-37.66
-43.68
-49.04
-54.1
-59.51
-66.01
-74.12
-83.77
-94.09
-103.34
-109.35
-110.04
-104.24
-92.11
-75.16
-55.7
-36.07
-17.98
-2.22
11.24
22.78
32.82
41.57
49.12
55.49
60.74
64.95
68.12
70.21
71.14
70.89
69.62
67.64
65.4
63.36
61.83
60.9
60.38
59.85
58.82
56.91
54.03
50.37
46.35
42.36
38.59
34.93
31.1
26.78
21.82
16.36
10.67
5.08
-0.29
-5.53
-10.88
-16.65
-23.0
-29.85
-36.95
-43.89
-50.37
-56.2
-61.47
-66.54
-72.03
-78.62
-86.86
-96.72
-107.37
-117.09
-123.58
-124.63
-118.92
-106.48
-88.82
-68.37
-47.63
-28.51
-11.88
2.2
14.1
24.24
32.78
39.75
45.17
49.16
51.96
53.77
54.72
54.83
54.05
52.41
50.07
47.31
44.44
41.76
39.43
37.43
35.63
33.81
31.78
29.39
26.51
23.02
18.76
13.68
7.79
1.29
-5.47
-12.15
-18.48
-24.4
-30.07
-35.84
-42.23
-49.74
-58.71
-68.97
-79.61
-88.97
-94.9
-95.5
-89.73
-77.9
-61.54
-42.87
-24.06
-6.65
8.66
21.75
32.75
41.78
48.89
54.14
57.73
59.97
61.21
61.66
61.41
60.44
58.75
56.51
54.01
51.56
49.45
47.76
46.39
45.11
43.62
41.61
38.89
35.41
31.24
26.51
21.31
15.64
9.43
2.61
-4.81
-12.67
-20.68
-28.52
-35.98
-43.02
-49.83
-56.81
-64.46
-73.23
-83.23
-93.94
-104.04
-111.55
-114.34
-110.85
-100.7
-84.94
-65.63
-45.18
-25.59
-7.99
7.33
20.58
32.1
42.11
50.69
57.87
63.75
68.44
72.01
74.49
75.83
76.05
75.28
73.82
72.09
70.52
69.4
68.81
68.55
68.22
67.36
65.62
62.91
59.38
55.37
51.19
46.98
42.68
38.08
33.0
27.43
21.59
15.83
10.44
5.46
0.67
-4.4
-10.17
-16.84
-24.24
-31.93
-39.37
-46.14
-52.12
-57.55
-62.91
-68.84
-75.94
-84.66
-95.0
-106.33
-117.17
-125.4
-128.74
-125.51
-115.2
-98.83
-78.57
-57.05
-36.45
-18.07
-2.26
11.25
22.89
32.98
41.61
48.9
54.96
59.99
64.13
67.36
69.53
70.43
69.98
68.29
65.71
62.72
59.82
57.39
55.61
54.35
53.22
51.69
49.29
45.77
41.25
36.15
31.02
26.35
22.29
18.64
14.97
10.76
5.69
-0.27
-6.83
-13.51
-19.88
-25.69
-31.01
-36.15
-41.56
-47.68
-54.84
-63.18
-72.51
-82.1
-90.66
-96.46
-97.73
-93.24
-82.76
-67.22
-48.49
-28.74
-9.85
7.07
21.7
34.31
45.3
54.95
63.19
69.67
73.9
75.53
74.54
71.31
66.54
61.01
55.38
50.0
44.96
40.17
35.55
31.05
26.67
22.3
17.73
12.67
6.92
0.5
-6.33
-13.2
-19.75
-25.87
-31.61
-37.12
-42.48
-47.6
-52.29
-56.41
-60.04
-63.54
-67.5
-72.57
-79.06
-86.62
-94.09
-99.7
-101.46
-97.91
-88.56
-74.17
-56.47
-37.52
-19.14
-2.48
12.03
24.42
34.93
43.77
51.09
57.02
61.69
65.22
67.67
69.06
69.35
68.61
67.0
64.82
62.41
60.08
58.0
56.21
54.67
53.23
51.75
50.07
48.04
45.49
42.37
38.7
34.61
30.3
25.95
21.69
17.55
13.43
9.21
4.73
-0.12
-5.42
-11.13
-17.11
-23.14
-28.98
-34.46
-39.61
-44.63
-49.95
-56.1
-63.56
-72.5
-82.6
-92.79
-101.38
-106.38
-106.1
-99.76
-87.77
-71.66
-53.51
-35.33
-18.53
-3.68
9.25
20.58
30.63
39.5
47.15
53.53
58.65
62.59
65.45
67.29
68.08
67.83
66.62
64.76
62.66
60.79
59.43
58.6
58.05
57.39
56.27
54.47
52.01
49.02
45.72
42.32
38.93
35.59
32.22
28.69
24.84
20.59
15.99
11.19
6.47
2.09
-1.85
-5.46
-9.04
-13.04
-17.81
-23.46
-29.8
-36.42
-42.78
-48.52
-53.57
-58.12
-62.65
-67.68
-73.73
-81.13
-89.8
-99.07
-107.57
-113.42
-114.69
-110.1
-99.54
-84.16
-66.08
-47.59
-30.49
-15.69
-3.2
7.4
16.62
24.74
31.78
37.71
42.51
46.24
48.96
50.68
51.33
50.83
49.27
46.93
44.3
41.94
40.18
39.08
38.31
37.34
35.7
33.21
30.0
26.49
23.02
19.74
16.44
12.75
8.29
2.97
-3.01
-9.2
-15.19
-20.77
-26.03
-31.28
-36.92
-43.31
-50.66
-58.96
-67.89
-76.64
-83.88
-88.0
-87.55
-81.78
-71.04
-56.71
-40.7
-24.84
-10.29
2.6
14.02
24.31
33.6
41.73
48.37
53.34
56.69
58.72
59.77
60.11
59.8
58.81
57.05
54.64
51.87
49.21
47.07
45.62
44.73
43.91
42.6
40.33
36.9
32.46
27.45
22.34
17.54
13.18
9.14
5.0
0.33
-5.19
-11.61
-18.65
-25.83
-32.63
-38.77
-44.25
-49.36
-54.57
-60.44
-67.42
-75.74
-85.2
-94.92
-103.35
-108.5
-108.58
-102.6
-90.85
-74.84
-56.74
-38.62
-21.85
-6.94
6.24
18.0
28.53
37.81
45.74
52.34
57.75
62.18
65.76
68.49
70.25
70.93
70.56
69.29
67.44
65.35
63.31
61.49
59.93
58.58
57.29
55.87
54.14
51.94
49.2
45.99
42.49
38.94
35.49
32.16
28.78
25.13
21.0
16.38
11.44
6.46
1.77
-2.44
-6.24
-9.89
-13.81
-18.35
-23.69
-29.73
-36.13
-42.5
-48.53
-54.1
-59.38
-64.63
-70.21
-76.48
-83.75
-92.18
-101.58
-111.12
-119.3
-124.16
-123.93
-117.6
-105.45
-88.97
-70.31
-51.54
-34.08
-18.47
-4.65
7.67
18.68
28.37
36.64
43.45
48.87
53.06
56.15
58.18
59.13
58.99
57.85
55.96
53.68
51.42
49.54
48.21
47.34
46.58
45.4
43.38
40.32
36.4
32.08
27.81
23.83
19.99
15.87
10.97
5.06
-1.74
-8.97
-16.04
-22.56
-28.43
-33.87
-39.3
-45.2
-51.99
-59.93
-68.94
-78.44
-87.23
-93.65
-95.95
-92.93
-84.36
-71.15
-55.04
-38.0
-21.58
-6.61
6.79
18.85
29.78
39.54
47.87
54.5
59.31
62.41
64.05
64.49
63.95
62.55
60.48
58.01
55.49
53.3
51.62
50.39
49.31
47.95
45.95
43.12
39.47
35.19
30.53
25.74
20.9
15.93
10.6
4.61
-2.24
-9.87
-17.9
-25.8
-33.05
-39.46
-45.19
-50.78
-56.94
-64.35
-73.4
-83.86
-94.76
-104.41
-110.72
-111.8
-106.65
-95.54
-79.96
-62.05
-43.89
-26.84
-11.36
2.71
15.72
27.82
38.88
48.59
56.7
63.2
68.2
71.91
74.46
75.85
76.08
75.2
73.47
71.35
69.34
67.9
67.21
67.13
67.23
66.97
65.88
63.73
60.61
56.83
52.79
48.79
44.99
41.25
37.3
32.83
27.68
21.91
15.82
9.81
4.18
-0.97
-5.82
-10.69
-15.95
-21.82
-28.29
-35.21
-42.27
-49.22
-55.92
-62.38
-68.74
-75.35
-82.63
-90.99
-100.59
-110.98
-120.97
-128.71
-132.17
-129.76
-121.01
-106.71
-88.64
-68.97
-49.52
-31.4
-14.97
-0.15
13.24
25.3
35.98
45.24
53.13
59.75
65.22
69.57
72.73
74.57
75.06
74.34
72.75
70.79
68.98
67.65
66.86
66.33
65.58
64.19
61.93
58.89
55.36
51.7
48.07
44.41
40.51
36.09
31.09
25.61
19.93
14.35
9.03
3.9
-1.25
-6.77
-12.88
-19.61
-26.74
-33.89
-40.67
-46.88
-52.58
-58.14
-64.09
-71.0
-79.26
-88.88
-99.19
-108.83
-115.93
-118.52
-115.24
-105.78
-91.13
-73.2
-54.17
-35.78
-18.97
-3.92
9.6
21.8
32.65
41.96
49.55
55.39
59.63
62.54
64.4
65.37
65.54
65.0
63.86
62.28
60.5
58.77
57.28
56.11
55.15
54.11
52.61
50.24
46.81
42.45
37.49
32.42
27.56
22.94
18.26
13.0
6.77
-0.53
-8.57
-16.78
-24.54
-31.45
-37.48
-42.98
-48.51
-54.68
-62.01
-70.8
-80.98
-91.9
-102.24
-110.11
-113.49
-110.9
-101.94
-87.55
-69.69
-50.69
-32.41
-15.84
-1.06
12.29
24.58
35.85
45.87
54.36
61.17
66.42
70.34
73.14
74.89
75.56
75.17
73.84
71.91
69.81
67.99
66.72
66.02
65.69
65.35
64.58
63.05
60.62
57.32
53.37
49.09
44.77
40.59
36.48
32.26
27.68
22.6
17.09
11.37
5.75
0.39
-4.75
-9.93
-15.45
-21.55
-28.22
-35.26
-42.36
-49.18
-55.52
-61.36
-66.89
-72.55
-78.9
-86.48
-95.57
-105.84
-116.14
-124.62
-129.12
-127.86
-120.03
-106.19
-88.03
-67.83
-47.69
-29.06
-12.53
1.92
14.58
25.73
35.57
44.19
51.74
58.32
63.95
68.51
71.8
73.61
73.93
72.98
71.21
69.13
67.16
65.48
64.08
62.77
61.34
59.64
57.6
55.22
52.55
49.55
46.18
42.37
38.06
33.26
28.07
22.64
17.13
11.66
6.27
0.85
-4.78
-10.79
-17.22
-23.97
-30.73
-37.2
-43.17
-48.63
-53.81
-59.09
-64.98
-72.0
-80.5
-90.36
-100.78
-110.2
-116.5
-117.69
-112.56
-101.24
-85.17
-66.61
-47.79
-30.31
-14.84
-1.32
10.61
21.22
30.61
38.69
45.37
50.65
54.56
57.19
58.56
58.76
57.9
56.21
53.98
51.51
49.04
46.69
44.48
42.36
40.24
38.0
35.5
32.6
29.13
24.95
19.97
14.22
7.85
1.06
-5.83
-12.61
-19.17
-25.54
-31.91
-38.55
-45.84
-54.12
-63.54
-73.82
-84.02
-92.56
-97.52
-97.31
-91.17
-79.54
-63.98
-46.58
-29.25
-13.25
0.96
13.51
24.68
34.68
43.47
50.95
57.05
61.81
65.37
67.84
69.22
69.44
68.46
66.34
63.39
60.13
57.17
54.94
53.54
52.68
51.76
50.13
47.32
43.24
38.21
32.75
27.37
22.32
17.51
12.57
7.04
0.6
-6.74
-14.67
-22.69
-30.3
-37.19
-43.37
-49.12
-54.95
-61.44
-69.12
-78.25
-88.56
-99.12
-108.27
-114.01
-114.59
-109.1
-97.87
-82.33
-64.5
-46.27
-28.94
-13.04
1.4
14.52
26.37
36.88
45.99
53.7
60.13
65.38
69.48
72.36
73.95
74.25
73.41
71.74
69.63
67.52
65.82
64.75
64.3
64.16
63.82
62.73
60.53
57.21
53.12
48.76
44.58
40.71
36.96
32.96
28.34
22.98
17.1
11.11
5.44
0.36
-4.2
-8.59
-13.24
-18.52
-24.5
-31.03
-37.75
-44.37
-50.66
-56.63
-62.39
-68.2
-74.41
-81.44
-89.64
-98.99
-108.82
-117.63
-123.41
-124.15
-118.68
-107.11
-90.93
-72.37
-53.66
-36.3
-20.85
-7.12
5.33
16.74
27.09
36.11
43.61
49.6
54.27
57.86
60.47
62.07
62.48
61.61
59.59
56.85
53.99
51.62
50.12
49.48
49.35
49.1
48.13
46.01
42.67
38.38
33.67
29.04
24.79
20.91
17.06
12.8
7.74
1.78
-4.88
-11.81
-18.56
-24.8
-30.48
-35.79
-41.17
-47.19
-54.38
-63.0
-72.76
-82.61
-90.85
-95.52
-95.03
-88.76
-77.33
-62.32
-45.73
-29.31
-14.11
-0.47
11.69
22.51
32.03
40.15
46.77
51.94
55.83
58.62
60.45
61.31
61.16
60.03
58.11
55.74
53.36
51.31
49.79
48.73
47.8
46.5
44.38
41.15
36.88
31.9
26.66
21.55
16.71
11.92
6.87
1.24
-5.04
-11.8
-18.65
-25.25
-31.41
-37.17
-42.81
-48.71
-55.32
-63.01
-71.91
-81.64
-91.2
-98.97
-103.11
-102.11
-95.39
-83.52
-68.06
-50.95
-33.91
-18.0
-3.59
9.38
21.05
31.51
40.71
48.62
55.27
60.73
65.06
68.23
70.21
70.97
70.62
69.37
67.55
65.54
63.67
62.2
61.26
60.75
60.37
59.66
58.19
55.74
52.36
48.4
44.3
40.39
36.76
33.23
29.45
25.11
20.09
14.55
8.83
3.35
-1.63
-6.11
-10.37
-14.81
-19.78
-25.4
-31.53
-37.87
-44.04
-49.85
-55.26
-60.4
-65.54
-71.03
-77.29
-84.66
-93.18
-102.3
-110.74
-116.6
-117.97
-113.6
-103.4
-88.56
-71.11
-53.16
-36.28
-21.17
-7.83
4.09
14.92
24.79
33.7
41.6
48.5
54.4
59.26
62.95
65.33
66.35
66.12
64.92
63.16
61.26
59.59
58.36
57.52
56.84
55.96
54.54
52.38
49.53
46.24
42.85
39.63
36.65
33.72
30.49
26.63
21.98
16.69
11.15
5.83
1.06
-3.09
-6.9
-10.79
-15.15
-20.16
-25.73
-31.58
-37.35
-42.79
-47.82
-52.57
-57.32
-62.47
-68.42
-75.52
-83.79
-92.73
-101.2
-107.51
-109.9
-107.09
-98.76
-85.78
-69.87
-52.97
-36.68
-21.85
-8.69
3.0
13.4
22.56
30.35
36.72
41.68
45.4
48.05
49.74
50.48
50.28
49.22
47.52
45.49
43.46
41.65
40.11
38.75
37.37
35.76
33.77
31.33
28.46
25.14
21.36
17.07
12.2
6.72
0.67
-5.76
-12.34
-18.78
-24.86
-30.55
-36.04
-41.76
-48.24
-55.93
-64.81
-74.13
-82.43
-87.81
-88.57
-83.84
-73.98
-60.4
-45.04
-29.65
-15.32
-2.37
9.37
20.15
29.99
38.66
45.87
51.48
55.61
58.52
60.5
61.68
62.03
61.45
59.93
57.64
55.01
52.5
50.49
49.04
47.93
46.7
44.89
42.18
38.49
33.99
29.02
23.96
19.16
14.77
10.65
6.42
1.54
-4.36
-11.35
-19.1
-26.97
-34.31
-40.7
-46.15
-51.05
-56.09
-62.02
-69.4
-78.35
-88.34
-98.08
-105.75
-109.43
-107.73
-100.26
-87.77
-71.91
-54.58
-37.39
-21.35
-6.83
6.16
17.76
28.06
37.14
45.09
52.05
58.11
63.23
67.27
70.03
71.36
71.36
70.28
68.54
66.59
64.79
63.37
62.35
61.57
60.72
59.47
57.52
54.81
51.5
47.9
44.3
40.89
37.57
34.07
30.07
25.44
20.24
14.78
9.42
4.4
-0.24
-4.74
-9.41
-14.57
-20.32
-26.55
-32.99
-39.32
-45.33
-50.98
-56.39
-61.79
-67.54
-74.06
-81.71
-90.57
-100.09
-108.99
-115.35
-117.2
-113.19
-103.22
-88.44
-70.94
-52.86
-35.79
-20.42
-6.8
5.37
16.28
25.93
34.27
41.28
47.13
51.97
55.83
58.59
60.03
60.03
58.68
56.36
53.59
50.87
48.52
46.62
45.01
43.39
41.45
38.98
35.93
32.4
28.51
24.33
19.82
14.85
9.32
3.28
-3.04
-9.29
-15.18
-20.62
-25.79
-31.1
-37.07
-44.15
-52.56
-62.03
-71.7
-80.13
-85.59
-86.6
-82.4
-73.27
-60.45
-45.64
-30.47
-16.02
-2.73
9.4
20.47
30.42
38.99
45.91
51.04
54.47
56.48
57.39
57.38
56.54
54.9
52.55
49.73
46.86
44.28
42.26
40.76
39.47
37.99
35.92
33.14
29.75
26.12
22.6
19.4
16.47
13.51
10.15
6.11
1.35
-3.97
-9.57
-15.17
-20.67
-26.07
-31.51
-37.23
-43.61
-51.07
-59.88
-69.85
-80.1
-89.02
-94.69
-95.45
-90.51
-80.25
-66.02
-49.64
-32.77
-16.57
-1.64
11.8
23.67
33.9
42.43
49.36
54.88
59.26
62.66
65.12
66.54
66.76
65.79
63.75
61.0
57.96
55.06
52.63
50.84
49.64
48.79
47.88
46.47
44.16
40.76
36.33
31.18
25.73
20.39
15.35
10.59
5.88
0.91
-4.52
-10.45
-16.7
-23.01
-29.15
-35.01
-40.63
-46.12
-51.68
-57.58
-64.16
-71.7
-80.18
-88.98
-96.79
-101.85
-102.47
-97.66
-87.55
-73.33
-56.83
-39.84
-23.66
-8.91
4.3
16.04
26.31
35.05
42.2
47.78
51.97
54.96
56.88
57.74
57.54
56.34
54.36
51.93
49.49
47.3
45.45
43.77
42.04
40.0
37.51
34.55
31.19
27.49
23.45
19.0
14.03
8.48
2.35
-4.17
-10.85
-17.35
-23.42
-28.94
-33.99
-38.86
-44.06
-50.12
-57.4
-65.83
-74.7
-82.65
-87.98
-89.1
-85.14
-76.19
-63.27
-48.0
-32.05
-16.72
-2.81
9.4
19.88
28.71
35.99
41.78
46.15
49.16
50.92
51.55
51.21
50.13
48.52
46.56
44.4
42.1
39.76
37.44
35.17
32.95
30.71
28.3
25.54
22.26
18.35
13.79
8.64
2.97
-3.07
-9.34
-15.64
-21.78
-27.56
-32.89
-37.87
-42.86
-48.4
-55.05
-63.03
-71.99
-80.86
-88.05
-91.86
-91.01
-85.05
-74.44
-60.42
-44.55
-28.32
-12.81
1.37
13.98
24.99
34.46
42.46
49.07
54.37
58.43
61.27
62.88
63.31
62.7
61.34
59.63
57.96
56.62
55.72
55.15
54.7
54.06
52.96
51.23
48.83
45.84
42.46
38.95
35.47
32.05
28.58
24.87
20.76
16.23
11.39
6.47
1.7
-2.79
-7.02
-11.19
-15.53
-20.3
-25.58
-31.31
-37.27
-43.19
-48.88
-54.3
-59.62
-65.14
-71.25
-78.32
-86.53
-95.63
-104.79
-112.57
-117.21
-117.13
-111.49
-100.46
-85.22
-67.51
-49.09
-31.31
-14.92
-0.18
12.9
24.37
34.31
42.76
49.83
55.64
60.29
63.9
66.52
68.2
68.99
68.96
68.22
66.97
65.47
64.0
62.79
61.93
61.33
60.69
59.65
57.89
55.26
51.89
48.08
44.18
40.45
36.95
33.56
30.04
26.16
21.84
17.11
12.15
7.2
2.46
-2.01
-6.29
-10.56
-15.04
-19.86
-25.08
-30.62
-36.31
-41.95
-47.36
-52.47
-57.34
-62.25
-67.68
-74.15
-82.0
-91.05
-100.46
-108.73
-114.1
-115.01
-110.62
-101.02
-87.19
-70.64
-52.99
-35.6
-19.38
-4.82
7.88
18.73
27.81
35.23
41.16
45.8
49.31
51.77
53.23
53.7
53.21
51.91
50.09
48.12
46.37
45.09
44.31
43.78
43.14
41.98
40.05
37.26
33.76
29.82
25.69
21.52
17.26
12.8
7.93
2.49
-3.55
-10.09
-16.9
-23.7
-30.21
-36.29
-42.0
-47.68
-53.83
-60.95
-69.19
-78.01
-86.13
-91.77
-93.2
-89.35
-80.2
-66.75
-50.69
-33.74
-17.29
-2.13
11.42
23.31
33.55
42.13
49.04
54.33
58.11
60.58
61.93
62.36
62.03
61.07
59.56
57.59
55.33
53.02
50.95
49.38
48.33
47.58
46.66
45.06
42.43
38.68
34.05
28.94
23.77
18.81
14.14
9.64
5.08
0.2
-5.25
-11.37
-18.08
-25.12
-32.1
-38.63
-44.52
-49.87
-55.15
-61.04
-68.18
-76.86
-86.73
-96.61
-104.77
-109.26
-108.57
-102.03
-90.11
-74.15
-55.99
-37.36
-19.55
-3.27
11.2
23.79
34.52
43.43
50.66
56.44
61.08
64.81
67.72
69.75
70.76
70.66
69.56
67.76
65.75
64.03
62.93
62.51
62.52
62.48
61.87
60.3
57.65
54.13
50.19
46.28
42.77
39.66
36.73
33.58
29.88
25.5
20.53
15.3
10.11
5.16
0.42
-4.29
-9.23
-14.6
-20.48
-26.79
-33.37
-40.02
-46.51
-52.69
-58.46
-63.9
-69.25
-74.96
-81.55
-89.43
-98.56
-108.15
-116.64
-122.09
-122.67
-117.34
-106.22
-90.54
-72.1
-52.77
-33.95
-16.51
-0.87
12.77
24.29
33.7
41.16
46.95
51.46
54.96
57.62
59.45
60.35
60.27
59.25
57.44
55.18
52.89
51.0
49.77
49.13
48.68
47.81
45.97
42.88
38.69
33.83
28.85
24.13
19.72
15.38
10.71
5.35
-0.82
-7.65
-14.74
-21.64
-28.04
-33.89
-39.43
-45.07
-51.32
-58.61
-67.13
-76.65
-86.29
-94.58
-99.68
-99.92
-94.38
-83.28
-67.9
-50.14
-31.9
-14.55
1.21
15.21
27.47
37.98
46.62
53.3
58.07
61.12
62.8
63.45
63.37
62.71
61.55
59.9
57.85
55.56
53.27
51.27
49.69
48.49
47.37
45.89
43.67
40.5
36.41
31.68
26.66
21.64
16.73
11.85
6.75
1.17
-5.09
-12.03
-19.45
-26.95
-34.12
-40.69
-46.64
-52.3
-58.18
-64.88
-72.87
-82.3
-92.81
-103.43
-112.67
-118.7
-119.92
-115.29
-104.82
-89.46
-70.89
-50.97
-31.31
-13.0
3.43
17.85
30.31
40.98
50.03
57.67
64.03
69.19
73.11
75.76
77.13
77.35
76.65
75.36
73.81
72.31
71.07
70.2
69.7
69.43
69.1
68.36
66.88
64.45
61.1
57.06
52.67
48.26
44.07
40.16
36.43
32.69
28.71
24.33
19.51
14.35
9.06
3.87
-1.07
-5.77
-10.43
-15.35
-20.77
-26.8
-33.34
-40.09
-46.75
-53.03
-58.88
-64.39
-69.82
-75.57
-82.11
-89.86
-98.96
-109.02
-118.86
-126.67
-130.46
-128.64
-120.61
-106.98
-89.29
-69.49
-49.27
-29.81
-11.72
4.68
19.2
31.67
42.02
50.42
57.18
62.69
67.17
70.65
72.99
74.06
73.88
72.7
70.97
69.19
67.75
66.83
66.35
66.03
65.46
64.29
62.3
59.54
56.22
52.68
49.16
45.73
42.21
38.3
33.74
28.44
22.59
16.58
10.8
5.48
0.56
-4.26
-9.37
-15.03
-21.24
-27.79
-34.34
-40.62
-46.52
-52.13
-57.7
-63.6
-70.25
-77.97
-86.8
-96.15
-104.78
-110.91
-112.74
-109.03
-99.56
-85.23
-67.73
-48.94
-30.5
-13.44
1.72
14.79
25.78
34.74
41.84
47.32
51.46
54.53
56.69
57.98
58.36
57.83
56.49
54.59
52.45
50.43
48.77
47.56
46.63
45.66
44.24
42.07
39.01
35.13
30.6
25.58
20.12
14.14
7.59
0.49
-6.96
-14.45
-21.63
-28.23
-34.21
-39.75
-45.32
-51.54
-59.01
-68.1
-78.5
-89.15
-98.2
-103.53
-103.35
-96.79
-84.31
-67.39
-48.16
-28.65
-10.34
