11.53
13.33
17.79
24.04
30.48
35.39
37.47
36.31
32.35
26.68
20.62
15.32
11.5
9.4
8.89
9.57
10.92
12.5
14.01
15.36
16.72
18.36
20.53
23.23
26.07
28.31
29.06
27.68
24.04
18.62
12.38
6.36
1.4
-2.11
-4.22
-5.21
-5.42
-5.12
-4.47
-3.51
-2.21
-0.56
1.28
2.82
3.32
1.92
-1.9
-7.96
-15.39
-22.82
-29.13
-34.1
-38.65
-44.42
-52.87
-64.16
-76.7
-87.62
-94.05
-94.34
-88.83
-79.34
-68.06
-56.98
-47.92
-43.35
-46.77
-61.28
-87.33
-120.82
-153.89
-178.38
-190.31
-192.14
-191.26
-195.16
-206.5
-221.32
-231.49
-229.8
-214.24
-188.77
-160.31
-134.41
-112.42
-91.59
-67.65
-37.65
-1.62
37.48
74.97
106.29
128.27
140.12
143.42
141.18
136.35
130.66
124.27
116.55
107.47
98.39
91.74
89.58
92.04
96.8
100.13
98.77
91.61
80.18
67.69
57.44
51.54
50.25
52.4
56.24
60.09
62.89
64.17
63.93
62.41
59.9
56.66
52.85
48.63
44.11
39.4
34.58
29.69
24.69
19.5
14.1
8.56
3.11
-2.02
-6.57
-10.4
-13.43
-15.63
-16.95
-17.33
-16.78
-15.39
-13.34
-10.85
-8.11
-5.21
-2.18
0.95
4.16
7.33
10.32
12.93
15.03
16.55
17.52
18.07
18.4
18.72
19.16
19.72
20.3
20.75
20.89
20.63
19.91
18.71
17.05
15.05
12.88
10.76
8.88
7.27
5.8
4.15
2.01
-0.88
-4.53
-8.7
-12.98
-16.96
-20.29
-22.91
-24.96
-26.75
-28.47
-30.1
-31.2
-31.12
-29.19
-25.17
-19.49
-13.25
-8.06
-5.63
-7.17
-12.97
-22.03
-32.02
-39.84
-42.63
-38.91
-29.49
-17.63
-8.05
-5.61
-13.94
-34.55
-66.54
-106.67
-149.74
-189.57
-220.13
-236.83
-237.69
-223.62
-198.03
-165.54
-130.72
-97.15
-67.14
-41.71
-20.75
-2.99
14.11
33.87
59.23
91.36
128.67
166.83
200.05
222.95
232.22
227.71
212.31
190.56
167.27
146.2
129.5
117.82
110.78
107.47
106.75
107.44
108.4
108.66
107.63
105.18
101.55
97.26
92.88
88.73
84.75
80.53
75.45
69.04
61.22
52.39
43.33
34.84
27.48
21.38
16.24
11.62
7.04
2.29
-2.6
-7.39
-11.75
-15.4
-18.22
-20.28
-21.82
-23.21
-24.8
-26.82
-29.31
-32.06
-34.72
-36.82
-37.95
-37.78
-36.25
-33.47
-29.7
-25.23
-20.27
-14.96
-9.45
-3.94
1.26
5.81
9.44
12.17
14.25
16.13
18.22
20.76
23.75
26.92
29.92
32.38
34.1
35.11
35.58
35.72
35.6
35.11
34.01
32.12
29.5
26.47
23.53
21.11
19.37
18.12
17.01
15.69
14.02
12.09
10.12
8.28
6.63
5.06
3.43
1.66
-0.19
-1.91
-3.23
-4.0
-4.27
-4.29
-4.4
-4.93
-6.0
-7.5
-9.11
-10.44
-11.19
-11.32
-11.04
-10.72
-10.77
-11.4
-12.59
-14.06
-15.45
-16.58
-17.6
-19.0
-21.36
-25.12
-30.21
-36.12
-42.07
-47.27
-51.38
-54.57
-57.42
-60.42
-63.76
-67.45
-71.83
-77.87
-86.65
-98.47
-111.86
-123.55
-129.65
-127.43
-116.57
-99.17
-78.4
-56.88
-35.95
-16.21
1.26
14.21
19.93
16.91
6.41
-7.44
-19.25
-24.9
-23.08
-15.65
-6.24
1.66
5.92
5.93
2.13
-4.25
-11.26
-16.3
-16.84
-11.48
-0.61
13.6
28.45
42.02
53.85
64.34
73.51
80.12
82.11
78.07
68.89
58.11
50.57
50.12
57.72
71.04
85.63
96.96
102.01
99.94
91.93
80.36
67.77
56.03
45.94
37.22
28.97
20.32
10.93
1.14
-8.28
-16.53
-23.09
-27.72
-30.36
-30.94
-29.38
-25.7
-20.17
-13.37
-6.02
1.26
8.22
15.06
22.41
31.16
42.09
55.59
71.13
86.95
100.07
106.92
104.58
92.3
72.23
49.03
27.97
12.7
3.66
-1.8
-7.59
-16.48
-28.78
-42.61
-55.81
-67.67
-79.37
-92.69
-108.13
-123.73
-135.92
-141.66
-140.67
-135.93
-132.16
-133.07
-139.23
-147.81
-154.44
-155.82
-151.36
-143.19
-134.49
-127.61
-122.84
-118.69
-113.08
-104.65
-93.6
-81.37
-69.91
-60.66
-53.98
-49.15
-44.7
-39.07
-31.26
-21.25
-10.07
0.63
9.36
15.4
19.06
21.29
23.0
24.46
25.23
24.78
23.18
21.42
21.12
23.6
29.16
37.0
45.75
54.43
63.01
72.27
83.22
96.31
111.03
126.15
140.23
152.2
161.58
168.48
173.37
176.77
179.17
180.93
182.25
183.22
183.68
183.14
180.62
174.68
163.68
146.44
122.9
94.43
63.56
33.24
6.0
-16.79
-34.92
-49.11
-60.43
-70.0
-78.67
-86.9
-94.7
-101.57
-106.67
-109.17
-108.63
-105.35
-100.4
-95.2
-90.89
-87.95
-86.09
-84.54
-82.52
-79.51
-75.48
-70.64
-65.2
-59.2
-52.57
-45.28
-37.58
-29.96
-23.03
-17.19
-12.52
-8.67
-5.11
-1.42
2.57
6.72
10.69
14.1
16.67
18.29
18.95
18.75
17.85
16.46
14.81
13.1
11.47
9.94
8.43
6.85
5.07
3.05
0.73
-1.93
-4.92
-8.22
-11.76
-15.42
-19.05
-22.51
-25.67
-28.37
-30.42
-31.65
-31.9
-31.15
-29.44
-26.89
-23.63
-19.8
-15.57
-11.14
-6.81
-2.86
0.5
3.22
5.38
7.15
8.71
10.14
11.41
12.31
12.61
12.06
10.56
8.21
5.32
2.3
-0.44
-2.61
-4.11
-4.99
-5.39
-5.49
-5.46
-5.47
-5.71
-6.26
-7.14
-8.21
-9.14
-9.56
-9.13
-7.74
-5.49
-2.74
0.13
2.8
5.13
7.09
8.72
10.01
10.86
11.19
11.01
10.48
9.84
9.37
9.16
9.16
9.19
9.08
8.76
8.28
7.8
7.43
7.19
7.01
6.72
6.14
5.15
3.66
1.68
-0.74
-3.46
-6.27
-8.87
-10.92
-12.07
-12.07
-10.87
-8.64
-5.67
-2.33
1.06
4.31
7.31
9.98
12.22
13.88
14.87
15.15
14.85
14.19
13.42
12.74
12.21
11.8
11.44
11.01
10.44
9.62
8.53
7.14
5.5
3.71
1.9
0.14
-1.51
-3.07
-4.58
-6.15
-7.85
-9.77
-11.86
-13.99
-15.86
-17.08
-17.32
-16.34
-14.16
-11.0
-7.28
-3.42
0.2
3.34
5.9
7.83
9.18
9.96
10.19
9.9
9.21
8.27
7.33
6.56
6.06
5.76
5.49
5.06
4.37
3.44
2.43
1.47
0.65
-0.07
-0.81
-1.73
-2.97
-4.64
-6.81
-9.46
-12.45
-15.48
-18.12
-19.89
-20.39
-19.42
-17.02
-13.52
-9.4
-5.17
-1.23
2.22
5.18
7.74
9.98
11.93
13.47
14.46
14.79
14.55
13.93
13.25
12.75
12.49
12.36
12.14
11.65
10.8
9.66
8.31
6.83
5.23
3.46
1.51
-0.54
-2.57
-4.47
-6.24
-8.03
-10.11
-12.66
-15.63
-18.63
-21.01
-22.1
-21.48
-19.16
-15.64
-11.59
-7.61
-4.04
-0.8
2.29
5.36
8.35
10.94
12.78
13.67
13.65
13.01
12.14
11.37
10.87
10.63
10.54
10.45
10.31
10.13
9.91
9.57
8.97
7.95
6.42
4.46
2.29
0.18
-1.67
-3.23
-4.61
-6.06
-7.81
-10.05
-12.81
-15.92
-19.04
-21.69
-23.33
-23.52
-22.12
-19.23
-15.26
-10.71
-6.06
-1.65
2.29
5.65
8.33
10.28
11.46
11.92
11.81
11.34
10.72
10.09
9.56
9.13
8.82
8.64
8.61
8.72
8.91
9.04
8.93
8.45
7.51
6.19
4.63
3.02
1.49
0.06
-1.38
-2.98
-4.85
-7.02
-9.45
-12.05
-14.73
-17.35
-19.67
-21.35
-22.0
-21.36
-19.38
-16.28
-12.45
-8.25
-3.94
0.33
4.44
8.14
11.14
13.17
14.17
14.29
13.91
13.41
13.06
12.94
12.98
13.02
12.93
12.66
12.19
11.59
10.97
10.39
9.82
9.15
8.21
6.87
5.15
3.21
1.29
-0.43
-1.92
-3.34
-4.94
-6.95
-9.47
-12.43
-15.59
-18.58
-21.0
-22.47
-22.73
-21.68
-19.45
-16.31
-12.55
-8.47
-4.28
-0.13
3.79
7.32
10.29
12.57
14.12
15.0
15.3
15.16
14.75
14.2
13.63
13.12
12.69
12.36
12.16
12.1
12.21
12.42
12.57
12.41
11.72
10.41
8.63
6.67
4.84
3.32
2.06
0.85
-0.54
-2.24
-4.25
-6.46
-8.76
-11.16
-13.68
-16.38
-19.16
-21.76
-23.72
-24.59
-24.1
-22.19
-19.08
-15.16
-10.86
-6.56
-2.53
1.08
4.18
6.78
8.9
10.59
11.96
13.09
14.04
14.8
15.32
15.53
15.43
15.1
14.74
14.55
14.67
15.11
15.63
15.93
15.71
14.85
13.48
11.89
10.39
9.21
8.38
7.78
7.16
6.18
4.48
1.68
-2.47
-7.94
-14.32
-20.91
-26.93
-31.82
-35.46
-38.14
-40.32
-42.22
-43.67
-44.17
-43.12
-40.15
-35.3
-28.99
-21.79
-14.18
-6.42
1.35
9.02
16.32
22.87
28.33
32.47
35.29
36.99
37.85
38.11
37.91
37.3
36.31
34.96
33.3
31.42
29.45
27.58
25.96
24.72
23.85
23.2
22.5
21.43
19.79
17.54
14.81
11.86
8.9
6.08
3.42
0.91
-1.41
-3.5
-5.32
-6.94
-8.55
-10.43
-12.75
-15.51
-18.43
-21.1
-23.05
-23.98
-23.77
-22.48
-20.29
-17.38
-13.99
-10.37
-6.78
-3.5
-0.76
1.34
2.8
3.67
4.08
4.11
3.83
3.33
2.71
2.1
1.64
1.37
1.26
1.21
1.11
0.92
0.7
0.52
0.44
0.44
0.41
0.25
-0.12
-0.71
-1.44
-2.25
-3.03
-3.76
-4.45
-5.17
-6.03
-7.17
-8.71
-10.7
-13.01
-15.41
-17.58
-19.18
-19.98
-19.86
-18.79
-16.85
-14.21
-11.06
-7.72
-4.42
-1.38
1.29
3.59
5.57
7.24
8.51
9.24
9.3
8.71
7.64
6.41
5.37
4.78
4.72
5.07
5.62
6.14
6.47
6.55
6.42
6.12
5.67
5.05
4.2
3.12
1.89
0.67
-0.4
-1.24
-1.89
-2.52
-3.3
-4.32
-5.58
-6.98
-8.47
-10.06
-11.81
-13.76
-15.84
-17.78
-19.17
-19.66
-19.07
-17.4
-14.85
-11.75
-8.39
-5.03
-1.9
0.83
3.06
4.76
5.94
6.68
7.05
7.12
6.95
6.64
6.25
5.88
5.59
5.42
5.35
5.34
5.34
5.31
5.22
5.05
4.78
4.43
3.96
3.41
2.77
2.02
1.16
0.17
-0.99
-2.38
-4.02
-5.84
-7.68
-9.39
-10.82
-12.04
-13.28
-14.79
-16.72
-18.92
-20.93
-22.19
-22.21
-20.82
-18.18
-14.69
-10.86
-7.12
-3.72
-0.74
1.83
4.04
5.9
7.38
8.45
9.08
9.31
9.25
9.04
8.82
8.69
8.68
8.79
9.01
9.33
9.76
10.27
10.79
11.19
11.31
11.04
10.31
9.18
7.8
6.35
4.97
3.7
2.49
1.27
0.0
-1.29
-2.59
-3.9
-5.32
-6.99
-9.03
-11.43
-13.97
-16.33
-18.05
-18.79
-18.36
-16.85
-14.58
-12.0
-9.47
-7.17
-5.03
-2.9
-0.63
1.72
3.89
5.57
6.52
6.76
6.55
6.24
6.11
6.21
6.43
6.58
6.59
6.51
6.52
6.79
7.26
7.75
7.94
7.58
6.62
5.21
3.67
2.31
1.32
0.73
0.37
-0.1
-1.16
-3.24
-6.68
-11.53
-17.47
-23.89
-30.04
-35.24
-39.11
-41.65
-43.18
-44.14
-44.87
-45.47
-45.84
-45.73
-44.93
-43.44
-41.38
-38.95
-36.35
-33.74
-31.23
-28.82
-26.23
-22.84
-17.86
-10.76
-1.6
8.72
18.82
27.39
33.83
38.44
42.15
45.97
50.37
55.12
59.41
62.22
62.67
60.3
55.18
47.97
39.89
32.44
26.95
24.1
23.69
24.76
25.95
25.76
22.92
16.46
6.01
-7.95
-24.2
-41.06
-57.04
-71.18
-82.98
-91.9
-96.9
-96.53
-89.46
-75.45
-55.94
-34.03
-13.81
0.65
6.27
1.62
-12.68
-33.7
-56.48
-75.0
-83.94
-80.53
-65.68
-43.66
-20.41
-1.29
10.67
15.37
15.14
13.42
13.23
16.15
21.87
28.75
34.73
38.35
39.15
37.65
34.92
32.09
30.08
29.7
31.56
35.93
42.46
50.03
56.99
61.81
63.71
62.94
60.49
57.48
54.7
52.49
50.92
49.93
49.3
48.56
47.0
43.93
38.95
32.23
24.36
16.19
8.46
1.64
-4.14
-8.92
-12.83
-15.86
-17.82
-18.27
-16.68
-12.64
-6.19
2.15
11.34
20.19
27.67
33.17
36.53
37.91
37.65
36.09
33.59
30.45
26.98
23.41
19.79
16.02
11.85
7.03
1.47
-4.63
-10.77
-16.36
-20.93
-24.31
-26.59
-28.08
-28.96
-29.23
-28.6
-26.72
-23.4
-18.82
-13.51
-8.18
-3.49
0.17
2.71
4.2
4.85
4.8
4.21
3.22
2.09
1.11
0.6
0.75
1.53
2.75
4.09
5.23
6.06
6.62
7.09
7.59
8.08
8.3
7.9
6.58
4.33
1.37
-1.9
-5.08
-7.96
-10.52
-12.9
-15.2
-17.38
-19.25
-20.55
-21.06
-20.71
-19.58
-17.83
-15.63
-13.06
-10.19
-7.1
-3.9
-0.82
1.95
4.2
5.85
6.9
7.49
7.76
7.9
8.03
8.27
8.66
9.19
9.84
10.56
11.28
11.94
12.41
12.48
11.92
10.54
8.26
5.23
1.73
-1.81
-5.01
-7.56
-9.31
-10.29
-10.65
-10.61
-10.46
-10.42
-10.64
-11.22
-12.15
-13.44
-15.04
-16.95
-19.08
-21.26
-23.26
-24.8
-25.61
-25.5
-24.38
-22.3
-19.4
-15.9
-12.06
-8.13
-4.33
-0.81
2.32
4.94
6.95
8.27
8.92
9.02
8.81
8.53
8.4
8.5
8.78
9.17
9.59
10.06
10.62
11.34
12.17
12.98
13.54
13.66
13.26
12.41
11.3
10.17
9.12
8.13
7.06
5.76
4.23
2.62
1.12
-0.09
-1.07
-2.0
-3.16
-4.77
-6.85
-9.28
-11.82
-14.24
-16.31
-17.83
-18.58
-18.37
-17.04
-14.59
-11.21
-7.25
-3.17
0.69
4.07
6.97
9.43
11.53
13.25
14.49
15.19
15.35
15.13
14.75
14.44
14.31
14.46
14.92
15.74
16.91
18.37
19.92
21.33
22.45
23.3
24.19
25.52
27.6
30.37
33.38
35.95
37.42
37.54
36.46
34.67
32.67
30.74
28.87
26.89
24.62
21.99
19.02
15.68
11.86
7.37
2.14
-3.77
-10.08
-16.48
-22.75
-28.81
-34.62
-40.09
-45.0
-49.03
-51.91
-53.56
-54.13
-53.88
-53.09
-51.88
-50.18
-47.69
-44.01
-38.67
-31.32
-21.86
-10.55
1.88
14.43
26.02
35.81
43.37
48.59
51.55
52.33
51.05
48.14
44.37
40.74
38.11
36.71
36.02
35.08
33.0
29.47
24.82
19.81
15.03
10.56
5.99
0.59
-6.25
-14.82
-25.04
-36.57
-48.9
-61.37
-73.22
-83.61
-91.72
-96.84
-98.47
-96.51
-91.23
-83.34
-73.79
-63.62
-53.63
-44.31
-35.76
-27.82
-20.29
-12.94
-5.59
2.0
10.13
19.1
28.97
39.52
50.09
59.88
68.12
74.4
78.77
81.63
83.5
84.78
85.57
85.68
84.82
82.67
79.08
74.0
67.44
59.42
49.91
39.03
27.04
14.46
1.94
-9.87
-20.53
-29.88
-38.03
-45.2
-51.61
-57.4
-62.63
-67.32
-71.47
-75.0
-77.71
-79.25
-79.3
-77.65
-74.36
-69.62
-63.68
-56.65
-48.53
-39.25
-28.93
-17.98
-7.08
2.92
11.28
17.55
21.68
24.0
25.07
25.52
25.87
26.36
26.84
26.79
25.4
21.88
15.74
7.14
-3.13
-13.82
-23.58
-31.37
-36.69
-39.57
-40.34
-39.39
-37.0
-33.29
-28.34
-22.26
-15.32
-7.91
-0.55
6.19
11.82
16.03
18.81
20.42
21.28
21.77
22.07
22.14
21.79
20.83
19.28
17.24
14.87
12.13
8.77
4.4
-1.35
-8.53
-16.84
-25.64
-34.13
-41.58
-47.46
-51.5
-53.6
-53.78
-52.1
-48.68
-43.78
-37.74
-30.98
-23.82
-16.4
-8.66
-0.39
8.53
17.96
27.39
35.95
42.72
47.09
48.95
48.73
47.22
45.2
43.16
41.23
39.21
36.71
33.33
28.64
22.31
14.15
4.24
-6.92
-18.41
-29.06
-37.83
-44.07
-47.68
-49.09
-48.91
-47.69
-45.71
-42.99
-39.37
-34.76
-29.26
-23.17
-16.98
-11.19
-6.23
-2.34
0.47
2.38
3.65
4.52
5.18
5.7
6.1
6.37
6.54
6.64
6.65
6.46
5.82
4.49
2.33
-0.5
-3.61
-6.45
-8.65
-10.23
-11.67
-13.74
-17.14
-22.19
-28.59
-35.51
-41.85
-46.64
-49.26
-49.64
-48.17
-45.39
-41.86
-37.96
-33.8
-29.37
-24.55
-19.24
-13.49
-7.61
-2.18
2.06
4.41
4.58
2.92
0.43
-1.53
-1.62
0.88
5.89
12.42
19.05
24.52
28.23
30.44
32.07
34.1
36.97
40.36
43.31
44.76
44.25
42.39
40.67
40.84
43.99
49.86
56.85
62.78
65.89
65.65
62.82
58.93
55.48
53.38
52.92
54.03
56.58
60.37
64.97
69.64
73.55
76.1
77.18
77.13
76.42
75.36
74.06
72.55
70.84
68.88
66.24
62.06
55.2
44.74
30.51
13.32
-5.09
-22.6
-37.25
-47.73
-53.68
-55.71
-55.23
-53.93
-53.27
-53.96
-55.84
-58.16
-59.98
-60.62
-59.82
-57.78
-54.95
-51.9
-49.24
-47.49
-47.02
-48.07
-50.77
-55.16
-61.14
-68.43
-76.41
-84.27
-91.23
-96.84
-101.24
-105.05
-108.85
-112.77
-116.18
-117.91
-116.88
-112.7
-105.91
-97.8
-89.83
-83.01
-77.62
-73.36
-69.73
-66.34
-63.15
-60.18
-57.44
-54.81
-52.23
-49.97
-48.65
-49.01
-51.44
-55.37
-59.18
-60.62
-57.8
-50.15
-38.94
-26.76
-16.21
-8.42
-2.45
4.11
13.52
26.3
40.56
52.76
59.39
58.62
51.04
39.27
26.75
16.58
10.78
10.29
15.13
24.63
37.5
51.99
66.19
78.46
87.94
94.64
99.24
102.73
106.08
109.88
114.28
118.92
123.03
125.64
125.85
123.24
118.04
111.06
103.54
96.62
91.07
87.12
84.54
82.88
81.67
80.46
78.91
76.73
73.76
70.04
65.77
61.24
56.63
51.87
46.64
40.51
33.23
24.84
15.82
6.86
-1.3
-8.12
-13.36
-17.01
-19.17
-19.95
-19.37
-17.36
-13.85
-8.84
-2.51
4.84
12.74
20.79
28.69
36.48
44.44
52.9
61.98
71.24
79.59
85.52
87.61
85.12
78.31
68.38
56.98
45.59
35.03
25.33
16.03
6.6
-3.2
-13.2
-22.99
-32.23
-40.83
-48.89
-56.58
-63.92
-70.76
-76.84
-81.92
-85.9
-88.8
-90.73
-91.84
-92.2
-91.87
-90.87
-89.2
-86.79
-83.54
-79.33
-74.18
-68.29
-62.05
-55.91
-50.1
-44.58
-38.95
-32.75
-25.64
-17.54
-8.63
0.76
10.37
19.99
29.39
38.23
46.01
52.19
56.3
58.07
57.42
54.46
49.41
42.7
35.0
27.24
20.42
15.34
12.31
11.06
10.81
10.64
9.76
7.75
4.64
0.75
-3.54
-7.98
-12.59
-17.54
-23.01
-28.93
-34.86
-40.1
-43.9
-45.75
-45.62
-43.88
-41.08
-37.72
-34.02
-29.97
-25.48
-20.52
-15.18
-9.64
-4.07
1.48
7.18
13.38
20.5
28.87
38.58
49.33
60.52
71.46
81.57
90.56
98.28
104.6
109.21
111.7
111.8
109.56
105.47
100.26
94.62
88.96
83.37
77.77
72.1
66.34
60.45
54.24
47.3
39.24
29.82
19.21
7.99
-3.05
-13.12
-21.64
-28.42
-33.55
-37.34
-40.22
-42.6
-44.84
-47.17
-49.75
-52.63
-55.82
-59.25
-62.86
-66.57
-70.29
-74.04
-77.78
-81.49
-84.91
-87.61
-88.94
-88.24
-85.15
-79.73
-72.54
-64.39
-56.05
-47.97
-40.27
-32.84
-25.61
-18.61
-12.01
-6.0
-0.64
4.12
8.41
12.37
16.11
19.7
23.21
26.71
30.15
33.34
35.96
37.69
38.34
37.94
36.69
34.78
32.29
29.09
25.08
20.35
15.35
10.82
7.48
5.68
5.27
5.69
6.24
6.5
6.42
6.26
6.26
6.42
6.38
5.63
3.74
0.66
-3.27
-7.47
-11.44
-14.92
-17.92
-20.5
-22.58
-23.83
-23.79
-22.17
-19.06
-15.0
-10.75
-7.03
-4.28
-2.6
-1.86
-1.87
-2.55
-3.86
-5.71
-7.95
-10.3
-12.42
-14.11
-15.24
-15.88
-16.19
-16.38
-16.67
-17.21
-18.04
-19.04
-20.0
-20.72
-21.07
-21.11
-20.99
-21.01
-21.41
-22.39
-23.94
-25.85
-27.75
-29.19
-29.79
-29.36
-27.96
-25.85
-23.47
-21.2
-19.31
-17.78
-16.42
-14.9
-12.92
-10.29
-7.0
-3.27
0.65
4.46
7.92
10.84
13.06
14.45
14.9
14.47
13.36
11.93
10.54
9.46
8.71
8.1
7.43
6.54
5.48
4.43
3.58
2.95
2.46
1.95
1.26
0.35
-0.73
-1.99
-3.51
-5.42
-7.84
-10.78
-14.09
-17.53
-20.85
-23.91
-26.68
-29.21
-31.63
-34.04
-36.57
-39.27
-42.15
-45.01
-47.43
-48.79
-48.49
-46.15
-41.8
-35.91
-29.24
-22.54
-16.36
-10.88
-5.9
-1.01
4.24
10.1
16.57
23.38
30.07
36.21
41.46
45.7
49.02
51.57
53.46
54.72
55.31
55.18
54.38
53.07
51.48
49.82
48.14
46.31
44.05
41.07
37.2
32.48
27.17
21.61
16.07
10.68
5.43
0.2
-5.13
-10.62
-16.23
-21.86
-27.24
-31.97
-35.56
-37.55
-37.7
-36.1
-33.13
-29.4
-25.51
-21.89
-18.72
-16.02
-13.68
-11.62
-9.8
-8.15
-6.58
-4.96
-3.21
-1.34
0.58
2.35
3.79
4.8
5.37
5.58
5.51
5.2
4.62
3.65
2.18
0.13
-2.47
-5.42
-8.42
-11.14
-13.33
-14.92
-16.06
-17.05
-18.21
-19.7
-21.47
-23.3
-24.99
-26.42
-27.6
-28.62
-29.49
-30.07
-30.11
-29.37
-27.76
-25.41
-22.64
-19.88
-17.43
-15.44
-13.88
-12.59
-11.36
-9.97
-8.22
-5.85
-2.68
1.42
6.35
11.67
16.72
20.74
23.26
24.22
24.04
23.44
23.09
23.4
24.38
25.74
27.1
28.11
28.58
28.4
27.55
26.01
23.85
21.25
18.47
15.8
13.46
11.51
9.91
8.6
7.59
7.07
7.34
8.79
11.63
15.77
20.74
25.66
29.52
31.41
30.88
28.0
23.45
18.15
13.03
8.82
5.98
4.72
5.13
7.13
10.42
14.45
18.49
21.76
23.75
24.28
23.63
22.25
20.67
19.23
18.06
17.12
16.22
15.15
13.67
11.55
8.6
4.78
0.29
-4.44
-8.79
-12.11
-13.91
-14.07
-12.8
-10.58
-7.96
-5.38
-3.09
-1.22
0.14
0.97
1.26
1.09
0.57
-0.14
-0.98
-1.97
-3.17
-4.61
-6.23
-7.89
-9.43
-10.75
-11.83
-12.76
-13.67
-14.67
-15.82
-17.14
-18.63
-20.28
-22.08
-24.03
-26.11
-28.31
-30.6
-33.03
-35.67
-38.67
-42.06
-45.67
-49.06
-51.56
-52.53
-51.6
-48.86
-44.75
-39.94
-35.0
-30.26
-25.87
-21.86
-18.25
-15.09
-12.33
-9.82
-7.29
-4.56
-1.56
1.52
4.44
7.03
9.26
11.32
13.41
15.64
17.92
20.04
21.73
22.8
23.21
23.05
22.46
21.59
20.61
19.64
18.74
17.91
17.01
15.84
14.17
11.89
9.11
6.18
3.57
1.79
1.1
1.54
2.87
4.71
6.7
8.59
10.27
11.71
12.89
13.79
14.4
14.71
14.77
14.64
14.45
14.3
14.33
14.58
15.03
15.54
15.93
16.05
15.87
15.51
15.17
14.92
14.68
14.21
13.2
11.5
9.21
6.65
4.2
2.13
0.51
-0.81
-2.12
-3.66
-5.6
-7.92
-10.52
-13.14
-15.5
-17.27
-18.18
-18.02
-16.72
-14.31
-10.99
-7.09
-2.96
1.04
4.64
7.73
10.24
12.17
13.5
14.27
14.52
14.44
14.26
14.19
14.31
14.52
14.64
14.52
14.15
13.65
13.25
13.06
13.07
13.15
13.05
12.62
11.73
10.43
8.82
7.04
5.26
3.6
2.1
0.75
-0.54
-1.91
-3.45
-5.18
-7.03
-8.83
-10.37
-11.39
-11.7
-11.19
-9.85
-7.78
-5.14
-2.14
1.03
4.15
7.04
9.45
11.18
12.11
12.28
11.86
11.11
10.28
9.53
8.96
8.57
8.37
8.34
8.47
8.71
8.99
9.21
9.27
9.08
8.62
7.91
7.03
6.04
5.01
3.96
2.92
1.85
0.75
-0.37
-1.57
-2.89
-4.39
-6.06
-7.8
-9.33
-10.35
-10.57
-9.88
-8.41
-6.42
-4.22
-2.03
0.01
1.89
3.6
5.11
6.31
7.1
7.42
7.34
7.04
6.78
6.77
7.13
7.81
8.63
9.31
9.63
9.47
8.88
7.97
6.91
5.85
4.85
3.92
3.04
2.2
1.37
0.52
-0.36
-1.32
-2.36
-3.5
-4.69
-5.91
-7.16
-8.46
-9.84
-11.2
-12.38
-13.06
-12.95
-11.93
-10.08
-7.71
-5.19
-2.79
-0.6
1.4
3.22
4.78
5.89
6.38
6.21
5.59
4.84
4.31
4.16
4.36
4.7
4.99
5.1
5.0
4.78
4.5
4.22
3.95
3.69
3.46
3.23
2.95
2.48
1.69
0.47
-1.12
-2.89
-4.51
-5.71
-6.39
-6.66
-6.8
-7.15
-7.93
-9.13
-10.55
-11.81
-12.56
-12.5
-11.59
-9.94
-7.82
-5.53
-3.3
-1.2
0.81
2.8
4.76
6.57
8.0
8.85
9.05
8.74
8.22
7.79
7.63
7.68
7.74
7.56
6.96
5.94
4.66
3.36
2.28
1.56
1.16
0.97
0.81
0.59
0.26
-0.13
-0.5
-0.83
-1.14
-1.52
-2.06
-2.77
-3.64
-4.68
-5.89
-7.32
-8.93
-10.6
-12.1
-13.1
-13.36
-12.77
-11.4
-9.47
-7.26
-5.04
-2.96
-1.11
0.48
1.79
2.79
3.41
3.65
3.57
3.3
3.05
2.96
3.14
3.55
4.1
4.59
4.86
4.8
4.41
3.76
3.01
2.3
1.73
1.28
0.84
0.27
-0.56
-1.67
-2.97
-4.29
-5.45
-6.36
-7.01
-7.51
-8.01
-8.66
-9.52
-10.63
-11.9
-13.2
-14.3
-14.99
-15.04
-14.35
-12.93
-10.92
-8.54
-6.01
-3.52
-1.23
0.75
2.3
3.34
3.85
3.96
3.88
3.82
3.92
4.18
4.46
4.63
4.59
4.32
3.9
3.41
2.92
2.47
2.04
1.6
1.12
0.55
-0.18
-1.12
-2.27
-3.56
-4.83
-5.91
-6.66
-7.09
-7.33
-7.62
-8.2
-9.17
-10.49
-12.0
-13.45
-14.59
-15.23
-15.26
-14.66
-13.46
-11.76
-9.68
-7.43
-5.19
-3.12
-1.33
0.18
1.46
2.57
3.53
4.3
4.79
4.95
4.75
4.3
3.72
3.17
2.73
2.42
2.19
2.0
1.87
1.8
1.8
1.8
1.69
1.35
0.73
-0.13
-1.12
-2.1
-3.04
-3.94
-4.86
-5.88
-6.98
-8.16
-9.42
-10.79
-12.3
-13.86
-15.25
-16.13
-16.12
-14.99
-12.76
-9.71
-6.26
-2.83
0.34
3.22
5.91
8.57
11.18
13.6
15.59
17.0
17.94
18.77
20.03
22.17
25.28
29.1
33.11
36.78
39.84
42.47
45.18
48.57
53.06
58.57
64.52
69.98
73.93
75.67
75.1
72.74
69.58
66.63
64.53
63.36
62.62
61.59
59.69
56.79
53.17
49.24
45.23
41.05
36.41
31.16
25.35
19.0
11.9
3.62
-5.82
-15.12
-21.2
-19.88
-7.71
15.97
47.81
81.3
109.15
126.11
130.55
124.02
109.47
89.26
64.66
36.51
6.47
-22.44
-46.69
-63.89
-74.12
-79.98
-85.36
-93.63
-106.25
-122.65
-141.02
-159.24
-175.56
-188.76
-197.98
-202.62
-202.41
-197.66
-189.3
-178.73
-167.36
-156.24
-145.8
-135.93
-126.2
-116.15
-105.53
-94.26
-82.45
-70.38
-58.51
-47.5
-38.05
-30.74
-25.78
-22.97
-21.69
-21.19
-20.81
-20.2
-19.34
-18.39
-17.57
