16.8
20.07
22.75
24.63
25.53
25.47
24.65
23.38
21.97
20.59
19.24
17.83
16.27
14.56
12.81
11.15
9.65
8.29
6.97
5.62
4.19
2.7
1.22
-0.24
-1.7
-3.22
-4.81
-6.39
-7.86
-9.08
-10.05
-10.87
-11.73
-12.8
-14.14
-15.67
-17.28
-18.88
-20.45
-22.1
-23.86
-25.65
-27.25
-28.34
-28.63
-28.0
-26.5
-24.35
-21.78
-19.01
-16.2
-13.48
-10.93
-8.63
-6.64
-4.95
-3.47
-2.11
-0.76
0.69
2.32
4.19
6.26
8.44
10.58
12.58
14.43
16.25
18.23
20.52
23.08
25.69
28.01
29.73
30.71
30.97
30.65
29.88
28.72
27.17
25.23
22.96
20.49
17.97
15.48
13.05
10.61
8.1
5.6
3.24
1.14
-0.71
-2.46
-4.37
-6.52
-8.75
-10.62
-11.6
-11.36
-9.94
-7.76
-5.4
-3.35
-1.76
-0.56
0.49
1.49
2.37
2.92
2.94
2.36
1.31
-0.02
-1.43
-2.75
-3.9
-4.81
-5.38
-5.53
-5.26
-4.7
-4.05
-3.54
-3.31
-3.33
-3.5
-3.68
-3.86
-4.16
-4.74
-5.68
-6.91
-8.2
-9.28
-9.98
-10.35
-10.62
-11.07
-11.88
-13.03
-14.34
-15.6
-16.72
-17.7
-18.63
-19.52
-20.25
-20.59
-20.3
-19.24
-17.46
-15.14
-12.56
-10.0
-7.7
-5.8
-4.34
-3.25
-2.4
-1.63
-0.83
0.09
1.21
2.57
4.13
5.75
7.13
7.91
7.81
6.76
4.92
2.53
-0.19
-3.18
-6.49
-10.16
-14.1
-18.06
-21.8
-25.22
-28.49
-31.89
-35.65
-39.73
-43.78
-47.25
-49.59
-50.42
-49.64
-47.38
-43.89
-39.49
-34.44
-28.99
-23.24
-17.16
-10.59
-3.29
4.89
13.93
23.55
33.26
42.52
50.8
57.77
63.33
67.53
70.52
72.45
73.41
73.46
72.65
71.13
69.12
66.87
64.58
62.32
60.03
57.51
54.58
51.13
47.15
42.73
38.09
33.44
28.9
24.49
20.0
15.1
9.44
2.81
-4.74
-12.95
-21.35
-29.48
-36.89
-43.33
-48.71
-53.15
-56.89
-60.07
-62.68
-64.58
-65.65
-66.02
-66.2
-66.8
-68.17
-70.13
-71.95
-72.69
-71.65
-68.7
-64.21
-58.74
-52.76
-46.64
-40.86
-36.25
-33.9
-34.78
-39.19
-46.38
-54.81
-62.78
-69.23
-74.12
-78.25
-82.38
-86.43
-89.08
-88.21
-81.96
-69.8
-52.89
-33.61
-14.44
3.24
19.58
35.91
53.84
74.11
96.09
117.86
137.01
151.57
160.7
164.85
165.39
163.8
161.01
157.11
151.65
144.32
135.54
126.39
117.9
110.24
102.51
93.42
82.59
71.27
62.12
57.82
59.37
65.29
72.21
76.53
76.23
71.68
65.01
58.54
53.39
49.0
43.75
36.2
25.92
13.71
1.0
-10.92
-21.44
-30.67
-39.09
-46.97
-54.14
-59.95
-63.66
-64.83
-63.59
-60.68
-57.15
-54.03
-51.93
-50.96
-50.73
-50.62
-50.04
-48.71
-46.74
-44.58
-42.78
-41.73
-41.54
-41.99
-42.71
-43.4
-43.87
-44.08
-43.98
-43.4
-42.02
-39.49
-35.71
-30.89
-25.56
-20.34
-15.74
-11.95
-8.87
-6.29
-4.04
-2.1
-0.59
0.34
0.63
0.32
-0.39
-1.28
-2.13
-2.81
-3.26
-3.48
-3.55
-3.57
-3.61
-3.66
-3.71
-3.72
-3.71
-3.78
-3.98
-4.37
-4.85
-5.29
-5.53
-5.54
-5.46
-5.5
-5.91
-6.78
-8.08
-9.72
-11.55
-13.51
-15.48
-17.29
-18.68
-19.33
-19.02
-17.68
-15.45
-12.62
-9.51
-6.39
-3.45
-0.79
1.47
3.27
4.55
5.31
5.6
5.52
5.22
4.82
4.45
4.15
3.94
3.77
3.59
3.39
3.17
3.0
2.95
3.0
3.12
3.2
3.15
2.92
2.5
1.93
1.23
0.43
-0.44
-1.36
-2.28
-3.18
-4.06
-5.0
-6.13
-7.55
-9.26
-11.14
-12.97
-14.44
-15.27
-15.28
-14.38
-12.63
-10.15
-7.14
-3.84
-0.48
2.69
5.42
7.53
8.87
9.46
9.39
8.87
8.12
7.32
6.61
6.01
5.49
5.07
4.75
4.59
4.63
4.84
5.16
5.51
5.78
5.86
5.68
5.16
4.29
3.2
2.03
0.95
0.04
-0.78
-1.7
-2.92
-4.56
-6.56
-8.72
-10.74
-12.36
-13.41
-13.84
-13.65
-12.83
-11.39
-9.35
-6.76
-3.79
-0.67
2.33
4.97
7.09
8.66
9.76
10.5
10.96
11.18
11.19
11.02
10.73
10.38
10.01
9.62
9.23
8.84
8.49
8.2
7.97
7.72
7.32
6.6
5.51
4.05
2.34
0.55
-1.22
-2.89
-4.5
-6.08
-7.73
-9.49
-11.43
-13.57
-15.87
-18.18
-20.21
-21.63
-22.09
-21.42
-19.68
-17.16
-14.26
-11.36
-8.72
-6.41
-4.42
-2.68
-1.17
0.05
0.88
1.25
1.13
0.62
-0.17
-1.05
-1.87
-2.56
-3.11
-3.59
-4.12
-4.81
-5.75
-7.01
-8.63
-10.59
-12.82
-15.18
-17.46
-19.46
-21.1
-22.45
-23.71
-25.15
-26.99
-29.27
-31.92
-34.8
-37.82
-41.03
-44.5
-48.23
-52.0
-55.4
-57.92
-59.16
-58.93
-57.34
-54.55
-50.68
-45.7
-39.42
-31.7
-22.52
-12.01
-0.32
12.4
26.03
40.33
54.89
69.16
82.62
94.94
106.11
116.32
125.79
134.51
142.15
148.16
151.91
152.84
150.61
145.17
136.82
126.14
113.98
101.22
88.5
76.08
63.8
51.28
38.21
24.61
10.95
-1.96
-13.27
-22.37
-29.06
-33.53
-36.18
-37.48
-37.83
-37.71
-37.72
-38.61
-41.07
-45.39
-51.2
-57.48
-62.96
-66.63
-68.24
-68.3
-67.66
-66.95
-66.2
-64.86
-62.26
-58.13
-52.76
-46.97
-41.65
-37.4
-34.44
-32.66
-31.92
-32.17
-33.4
-35.52
-38.26
-41.22
-44.05
-46.7
-49.38
-52.38
-55.78
-59.23
-61.93
-62.88
-61.3
-56.89
-49.93
-41.2
-31.59
-21.83
-12.3
-2.98
6.34
15.85
25.51
34.94
43.41
50.1
54.33
55.88
55.1
52.79
49.93
47.25
45.03
43.04
40.72
37.54
33.23
27.97
22.29
16.83
12.13
8.32
5.21
2.41
-0.43
-3.39
-6.21
-8.17
-8.19
-4.98
2.58
14.76
30.56
47.71
63.5
75.93
84.65
90.92
96.61
103.01
110.13
116.92
121.94
124.13
122.85
117.55
107.55
92.32
72.27
49.22
26.25
6.58
-7.6
-15.95
-19.67
-20.69
-20.69
-20.76
-21.48
-23.25
-26.42
-31.14
-37.17
-43.84
-50.35
-56.02
-60.54
-63.99
-66.7
-68.93
-70.75
-71.97
-72.18
-70.95
-67.98
-63.26
-57.07
-49.97
-42.55
-35.39
-28.85
-23.08
-17.96
-13.3
-8.9
-4.63
-0.46
3.61
7.55
11.27
14.66
17.53
19.75
21.28
22.25
22.89
23.32
23.52
23.27
22.32
20.57
18.11
15.22
12.21
9.24
6.28
3.19
-0.07
-3.3
-6.03
-7.74
-8.03
-6.89
-4.68
-1.97
0.74
3.21
5.46
7.63
9.73
11.56
12.76
12.99
12.16
10.47
8.37
6.33
4.65
3.41
2.5
1.74
1.03
0.36
-0.21
-0.63
-0.92
-1.2
-1.62
-2.33
-3.4
-4.82
-6.6
-8.73
-11.2
-13.97
-16.82
-19.41
-21.28
-22.0
-21.37
-19.4
-16.39
-12.71
-8.74
-4.75
-0.87
2.77
6.07
8.87
11.0
12.29
12.73
12.37
11.47
10.31
9.16
8.17
7.33
6.58
5.87
5.19
4.62
4.22
3.98
3.79
3.48
2.86
1.87
0.59
-0.85
-2.34
-3.9
-5.66
-7.81
-10.37
-13.14
-15.65
-17.28
-17.52
-16.09
-13.15
-9.12
-4.61
-0.14
3.89
7.31
10.07
12.16
13.57
14.3
14.37
13.87
12.97
11.92
10.96
10.28
9.95
9.91
10.02
10.04
9.77
9.03
7.78
6.1
4.2
2.31
0.62
-0.82
-2.11
-3.46
-5.08
-7.12
-9.57
-12.28
-14.99
-17.34
-18.94
-19.46
-18.67
-16.56
-13.35
-9.41
-5.22
-1.17
2.46
5.52
7.95
9.75
10.94
11.56
11.67
11.39
10.82
10.08
9.28
8.5
7.8
7.2
6.7
6.21
5.63
4.84
3.79
2.51
1.12
-0.22
-1.41
-2.44
-3.4
-4.42
-5.63
-7.12
-8.94
-11.08
-13.51
-16.1
-18.59
-20.6
-21.69
-21.57
-20.12
-17.52
-14.09
-10.25
-6.36
-2.64
0.78
3.84
6.47
8.59
10.09
10.89
10.95
10.35
9.35
8.31
7.61
7.5
8.02
8.94
9.88
10.47
10.52
10.0
9.01
7.71
6.19
4.52
2.73
0.87
-1.03
-2.98
-4.98
-7.15
-9.54
-12.11
-14.66
-16.83
-18.23
-18.55
-17.67
-15.64
-12.69
-9.1
-5.19
-1.23
2.53
5.88
8.62
10.62
11.82
12.27
12.07
11.4
10.44
9.39
8.44
7.68
7.15
6.81
6.53
6.22
5.77
5.13
4.29
3.33
2.33
1.34
0.41
-0.54
-1.59
-2.83
-4.29
-6.0
-7.98
-10.25
-12.79
-15.49
-18.1
-20.22
-21.41
-21.39
-20.05
-17.56
-14.24
-10.44
-6.45
-2.44
1.44
5.02
8.07
10.34
11.63
11.92
11.42
10.49
9.54
8.84
8.52
8.51
8.64
8.74
8.71
8.52
8.13
7.55
6.77
5.78
4.59
3.21
1.67
0.04
-1.62
-3.23
-4.77
-6.26
-7.83
-9.59
-11.62
-13.87
-16.18
-18.29
-19.9
-20.73
-20.62
-19.52
-17.5
-14.71
-11.33
-7.59
-3.7
0.14
3.69
6.79
9.27
11.0
11.97
12.22
11.95
11.39
10.78
10.3
10.0
9.79
9.49
9.02
8.36
7.62
6.97
6.54
6.33
6.25
6.09
5.64
4.75
3.41
1.74
-0.05
-1.78
-3.36
-4.86
-6.45
-8.31
-10.53
-13.06
-15.64
-17.94
-19.55
-20.17
-19.6
-17.81
-14.94
-11.23
-7.0
-2.61
1.58
5.25
8.13
10.07
11.06
11.23
10.87
10.25
9.6
9.03
8.58
8.22
7.95
7.71
7.45
7.09
6.59
5.96
5.28
4.67
4.17
3.67
3.0
1.98
0.56
-1.14
-2.86
-4.4
-5.71
-6.95
-8.35
-10.12
-12.29
-14.65
-16.85
-18.49
-19.25
-18.95
-17.54
-15.12
-11.86
-8.03
-3.95
-0.0
3.48
6.23
8.17
9.37
10.02
10.34
10.48
10.46
10.25
9.86
9.3
8.71
8.21
7.93
7.83
7.81
7.68
7.27
6.49
5.34
3.93
2.39
0.89
-0.52
-1.82
-3.08
-4.4
-5.85
-7.53
-9.53
-11.94
-14.71
-17.62
-20.27
-22.13
-22.76
-21.96
-19.86
-16.82
-13.32
-9.72
-6.23
-2.9
0.24
3.12
5.58
7.46
8.7
9.35
9.59
9.61
9.57
9.54
9.45
9.21
8.73
8.03
7.23
6.5
6.01
5.77
5.71
5.61
5.26
4.5
3.29
1.7
-0.13
-2.02
-3.87
-5.63
-7.4
-9.36
-11.68
-14.47
-17.64
-20.87
-23.67
-25.56
-26.16
-25.37
-23.35
-20.42
-16.97
-13.37
-9.84
-6.54
-3.58
-1.02
1.0
2.37
3.0
2.81
1.88
0.38
-1.45
-3.32
-5.03
-6.43
-7.53
-8.39
-9.14
-9.91
-10.77
-11.74
-12.8
-13.89
-14.91
-15.76
-16.34
-16.55
-16.31
-15.64
-14.6
-13.31
-11.77
-9.91
-7.44
-3.97
0.84
7.16
14.81
23.3
31.92
40.04
47.46
54.55
62.15
71.13
81.87
93.84
105.74
115.9
122.97
126.39
126.41
123.9
120.05
116.03
113.01
112.0
113.66
118.0
124.0
129.52
131.83
128.6
118.83
103.24
83.92
63.31
43.13
23.95
5.45
-12.77
-30.54
-46.97
-60.98
-72.04
-80.62
-87.94
-95.25
-103.16
-111.41
-119.19
-125.7
-130.47
-133.4
-134.53
-133.87
-131.36
-127.07
-121.28
-114.49
-107.22
-99.87
-92.67
-85.71
-79.13
-73.1
-67.76
-63.12
-59.0
-55.06
-50.99
-46.65
-42.13
-37.65
-33.42
-29.5
-25.81
-22.26
-18.84
-15.71
-13.14
-11.37
-10.51
-10.46
-10.95
-11.66
-12.28
-12.61
-12.53
-12.0
-11.04
-9.67
-7.91
-5.72
-3.03
0.31
4.46
9.58
15.75
22.92
30.86
39.17
47.3
54.71
60.95
65.74
68.95
70.59
70.78
69.7
67.65
64.98
62.09
59.3
56.72
54.25
51.66
48.69
45.24
41.39
37.42
33.66
30.35
27.51
24.96
22.4
19.63
16.59
13.4
10.15
6.8
3.12
-1.14
-6.04
-11.23
-16.03
-19.75
-21.92
-22.56
-22.05
-20.95
-19.68
-18.43
-17.19
-15.91
-14.54
-13.12
-11.7
-10.33
-9.06
-8.01
-7.27
-6.92
-6.9
-7.06
-7.25
-7.41
-7.66
-8.2
-9.23
-10.82
-12.93
-15.48
-18.34
-21.4
-24.5
-27.44
-30.04
-32.14
-33.67
-34.62
-34.98
-34.78
-34.17
-33.41
-32.79
-32.54
-32.69
-33.06
-33.39
-33.52
-33.57
-33.86
-34.74
-36.36
-38.49
-40.59
-42.04
-42.44
-41.71
-40.02
-37.64
-34.66
-30.97
-26.34
-20.65
-13.99
-6.76
0.61
7.75
14.46
20.62
26.0
30.23
32.99
34.33
34.8
35.27
36.44
38.35
40.3
41.2
40.35
37.86
34.68
32.01
30.57
30.26
30.64
31.49
32.93
34.8
35.87
33.66
25.56
10.72
-8.5
-26.76
-38.05
-38.65
-29.25
-14.6
-1.05
6.62
7.23
3.05
-2.19
-5.61
-6.4
-5.54
-4.5
-4.04
-3.84
-2.89
-0.24
4.28
9.86
15.16
18.95
20.63
20.55
19.77
19.51
20.53
22.68
25.07
26.51
26.25
24.32
21.58
19.2
18.13
18.63
20.21
21.99
23.16
23.36
22.76
21.82
21.05
20.73
20.87
21.23
21.49
21.38
20.69
19.24
16.81
13.16
8.08
1.53
-6.18
-14.43
-22.45
-29.58
-35.4
-39.77
-42.66
-44.04
-43.81
-41.95
-38.73
-34.65
-30.39
-26.47
-23.09
-20.14
-17.39
-14.73
-12.28
-10.31
-9.02
-8.4
-8.19
-8.01
-7.48
-6.36
-4.6
-2.32
0.23
2.72
4.86
6.44
7.42
7.91
8.09
8.16
8.2
8.18
7.98
7.41
6.34
4.69
2.53
0.05
-2.48
-4.83
-6.84
-8.46
-9.78
-10.95
-12.14
-13.48
-14.95
-16.45
-17.73
-18.48
-18.4
-17.38
-15.42
-12.69
-9.5
-6.1
-2.69
0.61
3.67
6.42
8.76
10.68
12.18
13.24
13.74
13.45
12.2
10.04
7.38
4.76
2.75
1.52
0.94
0.61
0.23
-0.21
-0.45
-0.22
0.58
1.72
2.83
3.66
4.22
4.69
5.26
5.89
6.25
5.87
4.39
1.72
-1.88
-5.96
-10.05
-13.81
-17.06
-19.79
-21.97
-23.56
-24.43
-24.39
-23.28
-21.01
-17.59
-13.16
-7.96
-2.3
3.42
8.74
13.23
16.64
18.88
20.16
20.83
21.29
21.79
22.41
23.08
23.63
23.93
23.93
23.57
22.89
21.9
20.67
19.29
17.87
16.47
15.03
13.39
11.38
8.9
6.0
2.88
-0.21
-3.03
-5.46
-7.5
-9.24
-10.87
-12.61
-14.66
-17.1
-19.81
-22.41
-24.38
-25.23
-24.66
-22.7
-19.67
-16.09
-12.49
-9.32
-6.84
-5.22
-4.44
-4.42
-4.95
-5.75
-6.54
-7.12
-7.39
-7.33
-6.91
-6.09
-4.75
-2.83
-0.36
2.42
5.13
7.35
8.76
9.28
9.07
8.5
7.97
7.81
8.13
8.84
9.71
10.49
11.04
11.33
11.37
11.18
10.68
9.73
8.19
6.02
3.3
0.22
-3.03
-6.26
-9.33
-12.1
-14.36
-15.9
-16.51
-16.15
-14.95
-13.15
-11.07
-8.95
-6.96
-5.17
-3.63
-2.35
-1.32
-0.48
0.27
1.06
2.01
3.16
4.49
5.92
7.33
8.59
9.6
10.25
10.49
10.37
9.99
9.54
9.12
8.78
8.46
8.03
7.38
6.44
5.24
3.83
2.31
0.77
-0.71
-2.08
-3.38
-4.71
-6.27
-8.25
-10.72
-13.59
-16.57
-19.29
-21.39
-22.67
-23.06
-22.63
-21.48
-19.72
-17.41
-14.66
-11.59
-8.35
-5.19
-2.28
0.22
2.28
3.98
5.44
6.86
8.33
9.84
11.31
12.6
13.55
14.11
14.26
14.04
13.46
12.58
11.46
10.18
8.83
7.44
5.99
4.44
2.74
0.89
-1.04
-2.89
-4.5
-5.73
-6.52
-6.9
-6.98
-6.89
-6.74
-6.66
-6.75
-7.13
-7.79
-8.63
-9.35
-9.53
-8.78
-6.9
-4.0
-0.47
3.19
6.57
9.48
11.92
13.95
15.61
16.84
17.63
18.03
18.12
18.04
17.89
17.7
17.47
17.24
17.1
17.11
17.3
17.6
17.88
17.97
17.79
17.31
16.59
15.69
14.69
13.64
12.56
11.43
10.15
8.59
6.65
4.41
2.05
-0.14
-1.95
-3.37
-4.64
-6.22
-8.55
-11.84
-15.94
-20.34
-24.36
-27.38
-29.02
-29.2
-28.09
-25.92
-22.9
-19.2
-14.99
-10.56
-6.26
-2.42
0.75
3.23
5.12
6.49
7.39
7.76
7.61
7.06
6.33
5.63
5.1
4.72
4.39
4.07
3.77
3.61
3.63
3.78
3.86
3.7
3.22
2.48
1.67
0.94
0.31
-0.38
-1.34
-2.73
-4.57
-6.7
-8.92
-11.06
-13.05
-14.92
-16.69
-18.33
-19.69
-20.6
-20.91
-20.57
-19.6
-18.03
-15.84
-12.91
-9.17
-4.66
0.3
5.25
9.61
12.97
15.21
16.49
17.18
17.62
18.0
18.24
18.18
17.62
16.51
14.98
13.28
11.72
10.53
9.83
9.59
9.63
9.73
9.7
9.47
9.07
8.62
8.18
7.74
7.18
6.36
5.26
3.92
2.45
0.92
-0.63
-2.22
-3.79
-5.29
-6.63
-7.83
-9.0
-10.29
-11.9
-13.85
-16.16
-18.73
-21.45
-24.17
-26.61
-28.36
-29.0
-28.19
-25.95
-22.54
-18.38
-13.84
-9.15
-4.37
0.42
4.99
9.02
12.21
14.55
16.33
18.03
19.97
22.16
24.23
25.67
26.18
25.8
24.84
23.63
22.26
20.56
18.25
15.23
11.73
8.21
5.13
2.71
0.85
-0.78
-2.46
-4.32
-6.29
-8.23
-9.98
-11.52
-12.91
-14.24
-15.65
-17.21
-18.97
-20.93
-23.1
-25.45
-27.97
-30.6
-33.24
-35.63
-37.43
-38.24
-37.7
-35.68
-32.29
-27.95
-23.21
-18.59
-14.45
-10.85
-7.65
-4.64
-1.7
1.18
3.86
6.22
8.26
10.17
12.22
14.65
17.49
20.55
23.51
26.14
28.31
30.12
31.61
32.77
33.4
33.24
32.09
29.9
26.85
23.18
19.18
15.08
11.06
7.27
3.82
0.63
-2.53
-5.98
-10.01
-14.59
-19.45
-24.14
-28.28
-31.71
-34.51
-36.76
