15.58
13.94
12.38
10.78
8.93
6.7
4.04
1.01
-2.25
-5.55
-8.81
-12.05
-15.37
-18.89
-22.71
-26.81
-31.06
-35.13
-38.57
-40.82
-41.34
-39.73
-36.0
-30.47
-23.82
-16.8
-10.05
-3.9
1.57
6.43
10.74
14.4
17.17
18.86
19.48
19.34
18.97
18.88
19.38
20.37
21.45
22.13
22.07
21.28
20.04
18.68
17.43
16.32
15.23
14.07
12.81
11.46
9.98
8.24
6.09
3.41
0.29
-3.02
-6.19
-9.0
-11.4
-13.54
-15.7
-18.12
-20.92
-24.05
-27.31
-30.32
-32.67
-33.86
-33.48
-31.32
-27.46
-22.3
-16.44
-10.51
-4.99
-0.08
4.17
7.79
10.69
12.75
13.83
13.98
13.45
12.66
12.0
11.68
11.7
11.9
12.1
12.19
12.16
11.99
11.67
11.15
10.34
9.19
7.72
5.91
3.75
1.23
-1.66
-4.89
-8.36
-12.04
-15.87
-19.84
-23.91
-27.97
-31.85
-35.46
-38.88
-42.41
-46.48
-51.38
-57.06
-63.06
-68.62
-73.03
-75.87
-77.2
-77.42
-77.05
-76.48
-75.88
-75.32
-74.88
-74.81
-75.41
-76.91
-79.3
-82.51
-86.58
-91.77
-98.47
-106.78
-116.23
-125.72
-134.07
-140.61
-145.58
-150.09
-155.59
-163.16
-173.05
-184.83
-197.83
-211.5
-225.35
-238.52
-249.33
-255.18
-253.17
-241.03
-218.23
-186.33
-148.65
-109.26
-71.89
-39.19
-12.52
7.83
22.38
32.42
40.1
48.44
60.91
80.51
108.78
145.13
186.63
228.72
266.44
295.79
314.65
323.0
322.45
315.41
304.5
292.09
280.15
270.27
263.45
259.84
258.63
258.25
256.93
253.39
247.25
238.89
228.98
217.93
205.71
192.12
177.19
161.46
145.83
131.22
118.19
106.86
96.87
87.66
78.63
69.33
59.51
49.14
38.39
27.59
17.03
6.91
-2.77
-12.13
-21.21
-29.88
-37.68
-44.06
-48.61
-51.27
-52.43
-52.66
-52.49
-52.07
-51.24
-49.7
-47.35
-44.51
-41.8
-39.91
-39.2
-39.53
-40.35
-40.94
-40.77
-39.67
-37.89
-35.83
-33.9
-32.34
-31.14
-30.15
-29.16
-28.03
-26.76
-25.45
-24.2
-23.12
-22.16
-21.26
-20.35
-19.43
-18.63
-18.11
-18.04
-18.58
-19.8
-21.78
-24.54
-28.03
-32.03
-36.08
-39.55
-41.77
-42.27
-40.92
-37.97
-33.91
-29.27
-24.46
-19.69
-15.09
-10.78
-6.93
-3.83
-1.72
-0.67
-0.54
-1.02
-1.72
-2.35
-2.74
-2.89
-2.86
-2.74
-2.55
-2.3
-2.03
-1.82
-1.81
-2.12
-2.8
-3.79
-5.0
-6.36
-7.8
-9.33
-10.94
-12.64
-14.44
-16.41
-18.66
-21.27
-24.12
-26.87
-28.97
-29.83
-29.01
-26.45
-22.44
-17.51
-12.2
-6.89
-1.8
2.95
7.18
10.61
12.92
13.96
13.81
12.88
11.68
10.67
10.06
9.86
9.89
9.95
9.89
9.67
9.25
8.67
7.95
7.13
6.27
5.37
4.39
3.19
1.61
-0.48
-3.05
-5.99
-9.15
-12.43
-15.79
-19.33
-23.1
-27.1
-31.08
-34.62
-37.16
-38.12
-37.16
-34.27
-29.73
-24.03
-17.75
-11.38
-5.28
0.28
5.13
9.11
12.14
14.21
15.46
16.08
16.35
16.49
16.65
16.88
17.16
17.47
17.78
18.08
18.34
18.54
18.64
18.55
18.18
17.41
16.14
14.32
12.02
9.37
6.58
3.82
1.15
-1.45
-4.12
-7.01
-10.24
-13.83
-17.75
-21.85
-25.83
-29.21
-31.44
-32.05
-30.8
-27.8
-23.44
-18.22
-12.57
-6.77
-0.99
4.62
9.8
14.2
17.49
19.47
20.27
20.2
19.74
19.3
19.14
19.32
19.71
20.12
20.37
20.34
20.04
19.52
18.82
17.95
16.83
15.37
13.48
11.17
8.6
5.94
3.41
1.07
-1.13
-3.35
-5.8
-8.67
-12.02
-15.81
-19.82
-23.69
-26.91
-28.9
-29.16
-27.42
-23.76
-18.56
-12.43
-6.0
0.27
6.08
11.31
15.88
19.66
22.48
24.22
24.91
24.76
24.15
23.45
22.94
22.73
22.77
23.0
23.42
24.05
24.87
25.75
26.42
26.55
25.9
24.4
22.21
19.65
17.03
14.55
12.24
10.0
7.69
5.22
2.57
-0.16
-2.86
-5.41
-7.78
-10.04
-12.39
-15.07
-18.31
-22.17
-26.44
-30.66
-34.14
-36.21
-36.33
-34.35
-30.43
-25.05
-18.83
-12.36
-6.08
-0.27
4.95
9.49
13.26
16.19
18.25
19.48
20.1
20.38
20.56
20.77
20.96
20.99
20.77
20.39
20.05
20.02
20.42
21.15
21.91
22.34
22.17
21.36
20.0
18.28
16.38
14.42
12.44
10.44
8.36
6.14
3.71
1.1
-1.62
-4.3
-6.78
-9.0
-11.06
-13.18
-15.6
-18.48
-21.78
-25.28
-28.54
-31.11
-32.53
-32.52
-30.96
-27.94
-23.73
-18.67
-13.18
-7.65
-2.43
2.18
5.98
8.86
10.81
11.88
12.2
12.01
11.54
11.06
10.82
10.94
11.41
12.09
12.76
13.19
13.27
13.01
12.54
11.97
11.42
10.87
10.26
9.45
8.3
6.72
4.7
2.31
-0.27
-2.85
-5.25
-7.34
-9.17
-10.95
-12.96
-15.49
-18.69
-22.49
-26.51
-30.19
-32.86
-33.97
-33.2
-30.57
-26.4
-21.21
-15.54
-9.85
-4.44
0.57
5.12
9.19
12.67
15.42
17.34
18.42
18.85
19.05
19.57
20.95
23.53
27.21
31.42
35.23
37.59
37.66
35.05
29.88
22.65
14.16
5.16
-3.65
-11.84
-19.15
-25.56
-31.15
-36.1
-40.54
-44.49
-47.81
-50.27
-51.54
-51.32
-49.5
-46.17
-41.63
-36.25
-30.39
-24.3
-18.07
-11.79
-5.51
0.69
6.8
12.88
19.1
25.61
32.44
39.44
46.25
52.4
57.34
60.52
61.48
60.03
56.44
51.43
46.02
41.13
37.19
34.14
31.48
28.67
25.44
21.81
18.02
14.33
10.96
7.99
5.45
3.28
1.34
-0.69
-3.12
-6.28
-10.28
-15.14
-20.65
-26.5
-32.33
-37.77
-42.5
-46.36
-49.32
-51.44
-52.66
-52.74
-51.29
-48.07
-43.2
-37.19
-30.67
-23.96
-16.89
-9.03
-0.07
9.72
19.5
28.23
35.23
40.51
44.67
48.31
51.48
53.35
52.58
48.08
39.82
29.18
18.63
10.87
7.7
9.39
14.58
20.88
25.9
28.03
26.8
22.54
15.88
7.17
-3.52
-16.21
-30.67
-46.24
-61.99
-77.07
-90.95
-103.6
-115.36
-126.57
-137.28
-147.02
-154.8
-159.33
-159.36
-154.1
-143.36
-127.64
-107.94
-85.48
-61.5
-37.0
-12.68
11.17
34.59
57.76
80.65
102.77
123.12
140.41
153.61
162.26
166.58
167.26
164.9
159.92
152.52
143.17
132.78
122.59
113.62
106.16
99.52
92.5
84.07
74.04
63.14
52.47
42.73
33.72
24.3
12.98
-1.52
-19.68
-41.07
-64.57
-88.65
-111.73
-132.47
-150.01
-164.14
-175.22
-184.0
-191.25
-197.51
-202.89
-207.09
-209.43
-208.91
-204.23
-194.12
-177.87
-155.79
-129.42
-101.06
-72.97
-46.55
-22.03
1.07
23.2
44.17
63.05
78.74
90.6
98.83
104.26
107.9
110.48
112.33
113.52
114.14
114.36
114.42
114.55
114.84
115.38
116.14
116.94
117.21
116.06
112.48
105.81
96.21
84.61
72.37
60.54
49.46
38.78
27.85
16.21
3.75
-9.46
-23.55
-38.97
-56.26
-75.57
-96.21
-116.73
-135.35
-150.59
-161.78
-169.05
-173.02
-174.29
-173.25
-170.05
-164.88
-158.12
-150.39
-142.4
-134.65
-127.12
-119.16
-109.65
-97.33
-81.38
-61.81
-39.48
-15.72
8.35
32.18
55.96
80.04
104.38
128.06
149.34
166.2
177.12
181.59
180.23
174.47
165.91
155.96
145.57
135.31
125.45
116.06
106.91
97.39
86.59
73.6
58.06
40.64
23.18
8.2
-1.95
-6.04
-4.48
0.82
7.05
11.53
12.46
9.25
2.28
-7.6
-19.58
-33.18
-48.15
-64.29
-81.14
-97.95
-113.8
-127.85
-139.53
-148.57
-154.77
-157.67
-156.45
-150.19
-138.38
-121.45
-100.93
-78.9
-57.2
-36.59
-16.52
4.36
27.15
51.71
76.37
98.55
115.77
126.7
131.5
131.51
128.47
123.8
118.32
112.42
106.36
100.55
95.56
91.87
89.59
88.32
87.33
85.79
83.18
79.37
74.52
68.65
61.36
51.76
38.84
22.03
1.65
-21.07
-44.56
-67.48
-89.11
-109.35
-128.23
-145.48
-160.41
-171.97
-179.12
-181.14
-177.7
-168.92
-155.25
-137.46
-116.54
-93.59
-69.6
-45.4
-21.64
1.04
21.9
40.27
55.76
68.65
79.75
90.02
99.89
108.78
115.2
117.55
115.12
108.83
101.09
94.75
91.91
92.96
96.57
100.56
102.93
102.79
100.19
95.62
89.19
80.42
68.52
53.16
34.87
14.95
-5.11
-24.3
-42.36
-59.61
-76.37
-92.57
-107.65
-120.77
-131.19
-138.51
-142.65
-143.76
-142.04
-137.77
-131.34
-123.33
-114.31
-104.75
-94.84
-84.56
-73.8
-62.48
-50.67
-38.53
-26.3
-14.17
-2.24
9.48
21.12
32.84
44.83
57.2
69.87
82.46
94.21
104.0
110.62
113.23
111.76
107.21
101.45
96.61
94.28
94.9
97.74
101.42
104.62
106.53
106.88
105.4
101.42
93.82
81.45
63.74
41.16
15.22
-12.08
-39.03
-64.78
-89.43
-113.61
-137.87
-162.09
-185.31
-205.93
-222.17
-232.58
-236.19
-232.64
-222.0
-204.64
-181.24
-152.86
-121.11
-88.01
-55.76
-26.17
-0.24
22.1
41.75
59.89
77.37
94.27
109.96
123.6
134.7
143.35
150.2
155.96
160.94
164.95
167.45
167.86
165.88
161.47
154.82
146.25
136.14
124.97
113.31
101.71
90.5
79.65
68.72
57.08
44.12
29.42
12.87
-5.49
-25.63
-47.46
-70.69
-94.7
-118.38
-140.32
-159.21
-174.18
-185.02
-192.12
-196.08
-197.34
-196.0
-191.82
-184.43
-173.55
-159.12
-141.32
-120.62
-97.7
-73.36
-48.32
-23.01
2.46
28.14
53.84
78.96
102.41
122.97
139.66
152.12
160.48
165.18
166.69
165.41
161.87
156.73
150.7
144.19
137.04
128.47
117.72
104.6
89.96
75.33
62.25
51.4
42.33
33.69
24.08
12.69
-0.46
-14.78
-29.52
-44.19
-58.69
-73.16
-87.82
-102.73
-117.65
-132.13
-145.45
-156.84
-165.61
-171.3
-173.76
-173.04
-169.11
-161.79
-150.72
-135.57
-116.33
-93.44
-67.72
-40.11
-11.52
17.3
45.61
72.42
96.41
116.13
130.37
138.72
141.71
140.76
137.52
133.4
129.22
125.23
121.33
117.2
112.32
105.97
97.4
86.19
72.76
58.43
45.1
34.45
27.24
23.06
20.53
17.96
13.84
7.28
-1.85
-12.92
-24.83
-36.42
-47.03
-56.96
-67.38
-79.72
-94.66
-111.51
-128.2
-142.03
-150.76
-153.35
-150.0
-141.68
-129.38
-113.74
-95.14
-73.96
-50.8
-26.44
-1.73
22.51
45.49
66.38
84.42
99.05
110.03
117.43
121.63
123.14
122.57
120.54
117.64
114.25
110.33
105.48
99.05
90.61
80.29
68.93
57.72
47.71
39.34
32.23
25.49
18.07
9.11
-1.85
-14.79
-29.25
-44.42
-59.36
-73.37
-86.2
-98.11
-109.63
-121.17
-132.69
-143.6
-153.01
-160.0
-163.81
-163.79
-159.35
-150.03
-135.74
-117.02
-95.17
-71.87
-48.6
-26.23
-4.93
15.37
34.49
51.73
66.15
77.07
84.58
89.64
93.55
97.36
101.33
104.9
107.2
107.57
106.02
103.16
99.81
96.54
93.35
89.81
85.36
79.72
73.04
65.92
59.1
53.21
48.54
45.05
42.44
40.39
38.71
37.41
36.57
36.15
35.73
34.49
31.38
25.51
16.43
4.27
-10.4
-26.94
-44.87
-63.86
-83.54
-103.21
-121.74
-137.88
-150.64
-159.64
-165.15
-167.9
-168.52
-167.16
-163.38
-156.37
-145.48
-130.59
-112.43
-92.28
-71.5
-51.06
-31.36
-12.39
5.83
23.09
38.85
52.54
63.88
73.07
80.63
87.14
92.95
98.06
102.2
105.0
106.21
105.83
104.12
101.48
98.35
95.05
91.77
88.53
85.32
82.14
79.0
75.79
72.18
67.68
61.74
53.95
44.28
33.05
20.75
7.81
-5.6
-19.6
-34.44
-50.15
-66.48
-82.84
-98.5
-112.85
-125.51
-136.26
-144.89
-151.04
-154.28
-154.29
-151.1
-145.16
-137.26
-128.09
-118.04
-106.95
-94.33
-79.49
-62.02
-42.01
-20.32
1.51
21.56
38.09
50.17
57.92
62.49
65.45
68.21
71.47
75.28
79.29
83.12
86.5
89.09
90.38
89.75
86.85
82.03
76.41
71.3
67.6
65.22
63.08
59.74
54.2
46.3
36.56
25.62
13.73
0.68
-13.79
-29.48
-45.55
-60.76
-74.07
-85.08
-94.05
-101.59
-108.07
-113.29
-116.51
-116.69
-112.89
-104.58
-91.84
-75.4
-56.65
-37.3
-19.02
-2.9
10.89
22.95
34.28
45.68
57.25
68.21
77.14
82.43
82.86
78.18
69.25
57.83
46.09
36.06
29.24
26.41
27.61
32.41
39.89
48.77
57.5
64.46
68.31
68.32
64.47
57.37
47.96
37.16
25.75
14.29
3.12
-7.66
-18.1
-28.3
-38.19
-47.45
-55.52
-61.84
-66.01
-67.95
-67.9
-66.28
-63.48
-59.83
-55.59
-51.02
-46.35
-41.69
-36.99
-32.02
-26.45
-20.11
-13.08
-5.66
1.63
8.24
13.66
17.46
19.4
19.41
17.6
14.37
10.27
5.93
1.86
-1.66
-4.57
-6.9
-8.51
-9.04
-7.92
-4.58
1.35
9.91
20.77
33.23
46.26
58.77
69.81
78.91
86.21
92.27
97.78
103.09
107.86
111.14
111.77
108.77
101.77
91.22
78.2
64.14
50.41
37.89
26.82
16.66
6.38
-5.12
-18.62
-34.29
-51.76
-70.25
-88.79
-106.3
-121.66
-133.86
-142.2
-146.58
-147.56
-146.2
-143.57
-140.32
-136.38
-131.12
-123.66
-113.33
-99.96
-83.95
-66.09
-47.29
-28.4
-10.08
7.13
22.83
36.76
48.79
58.94
67.39
74.37
80.04
84.49
87.71
89.68
90.45
90.21
89.18
87.66
85.84
83.68
80.92
77.11
71.79
64.82
56.46
47.36
38.25
29.66
21.64
13.91
6.13
-1.77
-9.47
-16.45
-22.29
-26.95
-30.79
-34.39
-38.2
-42.37
-46.78
-51.11
-55.05
-58.3
-60.59
-61.55
-60.89
-58.38
-54.09
-48.3
-41.52
-34.28
-27.06
-20.22
-13.99
-8.54
-3.94
-0.21
2.67
4.8
6.27
7.2
7.76
8.13
8.54
9.2
10.2
11.49
12.9
14.19
15.16
15.73
15.89
15.67
15.11
14.22
13.03
11.64
10.12
8.56
6.95
5.2
3.23
1.01
-1.38
-3.78
-6.07
-8.24
-10.45
-12.91
-15.82
-19.14
-22.56
-25.54
-27.46
-27.8
-26.28
-23.02
-18.35
-12.86
-7.15
-1.72
3.05
7.02
10.12
12.4
13.92
14.79
15.12
15.08
14.82
14.46
14.02
13.55
13.06
12.64
12.42
12.48
12.83
13.36
13.88
14.2
14.19
13.78
12.95
11.7
9.99
7.86
5.42
2.88
0.44
-1.76
-3.74
-5.63
-7.55
-9.65
-11.97
-14.51
-17.3
-20.33
-23.47
-26.42
-28.66
-29.58
-28.75
-26.04
-21.71
-16.31
-10.46
-4.73
0.51
5.07
8.85
11.76
13.81
15.05
15.64
15.81
15.8
15.76
15.77
15.85
16.01
16.28
16.67
17.13
17.55
17.73
17.51
16.83
15.78
14.54
13.28
12.03
10.67
8.98
6.77
4.05
1.05
-1.88
-4.39
-6.31
-7.73
-8.93
-10.28
-12.08
-14.46
-17.36
-20.58
-23.85
-26.81
-29.1
-30.29
-30.02
-28.09
-24.58
-19.82
-14.32
-8.64
-3.2
1.75
6.13
9.87
12.94
15.25
16.73
17.4
17.38
16.87
16.1
15.32
14.66
14.2
13.91
13.69
13.42
12.94
12.19
11.15
9.92
8.6
7.28
5.95
4.5
2.81
0.8
-1.51
-4.01
-6.56
-9.12
-11.75
-14.55
-17.57
-20.78
-24.07
-27.36
-30.69
-34.2
-37.98
-41.93
-45.68
-48.68
-50.44
-50.69
-49.54
-47.39
-44.78
-42.21
-40.03
-38.46
-37.67
-37.81
-38.97
-41.1
-43.87
-46.68
-48.77
-49.5
-48.59
-46.16
-42.65
-38.54
-34.1
-29.25
-23.77
-17.45
-10.32
-2.69
4.98
12.29
19.06
25.37
31.4
37.32
43.06
48.3
52.57
55.36
56.37
55.54
53.09
49.38
44.74
39.39
33.51
27.33
21.22
15.63
11.06
7.83
6.13
5.88
6.87
8.67
10.77
12.64
14.01
15.07
16.52
19.27
24.04
30.91
39.19
47.58
54.58
58.94
59.95
57.54
52.32
45.3
37.73
30.8
25.38
21.97
20.73
21.59
24.25
28.18
32.57
36.37
38.61
38.72
36.71
33.18
28.95
24.68
20.69
16.97
13.39
9.92
6.68
3.8
1.37
-0.62
-2.26
-3.65
-4.88
-6.13
-7.68
-9.82
-12.71
-16.13
-19.44
-21.77
-22.36
-20.9
-17.73
-13.68
-9.72
-6.62
-4.66
-3.73
-3.48
-3.63
-4.05
-4.77
-5.83
-7.14
-8.51
-9.63
-10.24
-10.22
-9.58
-8.46
-7.07
-5.59
-4.12
-2.71
-1.36
-0.11
0.91
1.52
1.57
0.97
-0.16
-1.56
-2.94
-4.07
-4.88
-5.52
-6.2
-7.15
-8.51
-10.32
-12.53
-15.06
-17.71
-20.18
-22.08
-22.96
-22.46
-20.49
-17.21
-13.06
-8.63
-4.4
-0.69
2.37
4.82
6.66
7.87
8.33
7.98
6.92
5.41
3.86
2.64
2.02
2.03
2.53
3.25
3.98
4.55
4.89
4.98
4.79
4.29
3.46
2.3
0.86
-0.77
-2.51
-4.32
-6.19
-8.14
-10.15
-12.2
-14.12
-15.71
-16.75
-17.18
-17.27
-17.54
-18.52
-20.37
-22.65
-24.36
-24.43
-22.25
-18.06
-12.93
-8.21
-4.99
-3.69
-4.06
-5.46
-7.21
-8.68
-9.19
-7.95
-4.2
2.59
12.36
24.3
37.12
49.38
60.02
68.55
75.06
79.97
83.71
86.46
88.22
88.89
88.5
87.36
85.88
84.39
82.63
79.57
73.62
63.22
47.75
28.04
6.3
-14.59
-32.14
-45.03
-53.41
-58.41
-61.44
-63.54
-65.16
-66.36
-67.07
-67.31
-67.11
-66.39
-64.87
-62.2
-58.13
-52.68
-46.21
-39.29
-32.62
-26.82
-22.34
-19.36
-17.7
-16.92
-16.39
-15.53
-13.97
-11.68
-8.92
-6.1
-3.57
-1.52
0.11
1.52
2.91
4.36
5.76
6.86
7.33
6.95
5.66
3.55
0.88
-1.99
-4.65
-6.8
-8.24
-9.07
-9.54
-10.13
-11.3
-13.37
-16.39
-20.1
-23.96
-27.32
-29.53
-30.11
-28.82
-25.71
-21.09
-15.54
-9.74
-4.33
0.25
3.84
6.45
8.2
9.22
9.58
9.33
8.61
7.6
6.48
5.4
4.4
3.48
2.66
2.08
1.9
2.24
3.02
3.96
4.65
4.74
4.07
2.67
0.77
-1.36
-3.49
-5.45
-7.24
-8.96
-10.86
-13.19
-16.2
-19.9
-24.08
-28.18
-31.49
-33.29
-33.09
-30.78
-26.61
-21.09
-14.84
-8.37
-2.08
3.72
8.76
12.78
15.57
17.08
17.46
17.05
16.32
15.62
15.18
15.05
15.17
15.48
15.93
16.5
17.12
17.64
17.88
17.69
16.99
15.79
14.2
12.32
10.27
8.1
5.83
3.46
0.97
-1.66
-4.47
-7.54
-10.94
-14.75
-18.96
-23.4
-27.73
-31.44
-33.93
-34.71
-33.46
-30.17
-25.12
-18.74
-11.58
-4.12
3.17
9.89
15.71
20.37
23.7
25.66
26.39
26.15
25.32
24.31
23.42
22.83
22.54
22.46
22.42
22.36
22.22
22.01
21.71
21.24
20.44
19.21
17.5
15.4
13.08
10.7
8.36
6.08
3.8
1.44
-1.02
-3.6
-6.38
-9.45
-12.97
-16.98
-21.3
