2.94
1.17
-1.01
-3.52
-6.18
-8.71
-10.93
-12.76
-14.32
-15.89
-17.81
-20.31
-23.38
-26.74
-29.86
-32.14
-33.05
-32.28
-29.8
-25.86
-20.91
-15.44
-9.91
-4.68
-0.03
3.87
6.91
9.07
10.41
11.08
11.25
11.13
10.92
10.79
10.87
11.22
11.83
12.64
13.56
14.51
15.43
16.28
16.94
17.29
17.18
16.52
15.39
13.93
12.36
10.83
9.33
7.74
5.91
3.83
1.61
-0.52
-2.37
-3.91
-5.25
-6.62
-8.21
-10.14
-12.41
-15.03
-17.95
-21.17
-24.59
-27.92
-30.78
-32.62
-32.97
-31.55
-28.33
-23.62
-17.93
-11.9
-6.08
-0.87
3.53
7.1
9.8
11.64
12.56
12.6
11.96
11.03
10.26
10.0
10.41
11.34
12.52
13.64
14.53
15.14
15.53
15.75
15.84
15.73
15.33
14.53
13.29
11.66
9.8
7.94
6.31
5.01
3.97
2.98
1.75
0.1
-1.97
-4.29
-6.57
-8.53
-10.1
-11.37
-12.62
-14.22
-16.49
-19.59
-23.37
-27.41
-31.01
-33.4
-33.97
-32.44
-28.96
-24.03
-18.35
-12.62
-7.31
-2.63
1.44
4.99
8.11
10.75
12.77
14.05
14.57
14.44
13.89
13.19
12.56
12.12
11.95
12.09
12.55
13.3
14.28
15.3
16.15
16.65
16.7
16.31
15.52
14.35
12.81
10.92
8.75
6.46
4.22
2.19
0.37
-1.31
-3.03
-4.9
-6.95
-9.05
-11.07
-12.91
-14.59
-16.32
-18.35
-20.9
-24.0
-27.39
-30.58
-32.92
-33.84
-33.04
-30.54
-26.68
-21.95
-16.82
-11.66
-6.7
-2.1
1.99
5.39
7.93
9.56
10.37
10.59
10.47
10.22
9.97
9.78
9.76
10.02
10.67
11.7
12.94
14.11
14.88
15.06
14.68
13.89
12.9
11.77
10.47
8.89
7.02
4.95
2.88
0.98
-0.71
-2.32
-4.0
-5.88
-7.9
-9.9
-11.71
-13.32
-14.89
-16.71
-19.05
-21.9
-24.98
-27.8
-29.76
-30.37
-29.34
-26.63
-22.45
-17.16
-11.22
-5.15
0.54
5.42
9.16
11.61
12.8
12.92
12.25
11.17
10.0
9.06
8.55
8.54
9.03
9.86
10.84
11.8
12.6
13.16
13.47
13.52
13.27
12.7
11.81
10.66
9.34
7.93
6.42
4.75
2.83
0.64
-1.68
-3.93
-5.94
-7.67
-9.25
-10.94
-12.96
-15.35
-18.02
-20.84
-23.75
-26.79
-29.9
-32.87
-35.21
-36.32
-35.71
-33.21
-29.06
-23.79
-17.99
-12.15
-6.59
-1.44
3.15
7.06
10.08
12.09
13.07
13.17
12.74
12.15
11.78
11.88
12.5
13.49
14.65
15.76
16.69
17.39
17.86
18.13
18.23
18.15
17.85
17.25
16.25
14.79
12.88
10.62
8.15
5.64
3.23
0.99
-1.09
-3.03
-4.96
-7.01
-9.33
-12.05
-15.25
-18.93
-23.02
-27.3
-31.39
-34.78
-36.88
-37.25
-35.69
-32.34
-27.61
-22.08
-16.29
-10.64
-5.4
-0.76
3.12
6.07
7.96
8.76
8.57
7.62
6.18
4.57
3.05
1.77
0.8
0.11
-0.39
-0.77
-1.16
-1.68
-2.5
-3.75
-5.49
-7.67
-10.14
-12.74
-15.42
-18.2
-21.16
-24.29
-27.5
-30.62
-33.59
-36.46
-39.41
-42.52
-45.63
-48.38
-50.37
-51.38
-51.52
-51.02
-49.9
-47.81
-44.0
-37.7
-28.57
-16.96
-3.92
9.24
21.28
31.32
38.83
43.64
45.83
45.92
44.95
44.28
45.23
48.53
54.01
60.81
67.83
74.34
80.13
85.29
89.68
92.66
93.39
91.39
87.1
81.84
77.23
74.28
72.83
71.65
69.1
64.01
56.2
46.4
35.78
25.35
15.58
6.49
-2.13
-10.38
-18.17
-25.32
-31.72
-37.41
-42.52
-47.06
-50.78
-53.26
-54.0
-52.71
-49.5
-44.79
-39.17
-33.17
-27.18
-21.48
-16.33
-11.99
-8.66
-6.4
-5.05
-4.33
-3.95
-3.7
-3.52
-3.42
-3.34
-3.19
-2.77
-1.93
-0.6
1.17
3.17
5.1
6.71
7.78
8.22
8.03
7.29
6.09
4.58
2.84
1.01
-0.78
-2.46
-4.0
-5.46
-6.98
-8.65
-10.57
-12.8
-15.35
-18.13
-20.97
-23.5
-25.23
-25.64
-24.37
-21.34
-16.85
-11.43
-5.7
-0.15
4.93
9.46
13.4
16.65
19.07
20.5
20.94
20.58
19.82
19.06
18.62
18.57
18.79
19.04
19.11
18.92
18.48
17.86
17.15
16.32
15.3
14.0
12.4
10.5
8.38
6.15
3.89
1.65
-0.58
-2.87
-5.31
-8.0
-11.0
-14.29
-17.67
-20.79
-23.19
-24.36
-23.94
-21.8
-18.08
-13.14
-7.5
-1.68
3.81
8.59
12.4
15.15
16.91
17.86
18.26
18.32
18.21
18.04
17.89
17.85
18.01
18.42
19.06
19.83
20.53
20.98
21.02
20.58
19.72
18.56
17.28
15.99
14.81
13.7
12.61
11.43
10.06
8.45
6.66
4.83
3.2
2.11
1.93
2.91
5.0
7.71
10.13
11.21
10.24
7.13
2.59
-2.19
-6.01
-8.15
-8.61
-7.95
-6.91
-5.95
-5.11
-4.13
-2.71
-0.81
1.29
3.05
4.06
4.16
3.55
2.64
1.85
1.41
1.28
1.25
1.17
1.02
0.97
1.25
2.0
3.18
4.55
5.74
6.43
6.4
5.64
4.34
2.8
1.35
0.21
-0.52
-0.98
-1.38
-1.98
-2.94
-4.28
-5.88
-7.53
-9.08
-10.51
-11.97
-13.68
-15.89
-18.69
-22.01
-25.55
-28.83
-31.34
-32.6
-32.29
-30.33
-26.89
-22.3
-16.99
-11.46
-6.12
-1.31
2.75
5.98
8.38
10.05
11.15
11.83
12.21
12.37
12.31
12.07
11.74
11.45
11.38
11.65
12.29
13.09
13.75
13.95
13.5
12.41
10.92
9.28
7.7
6.22
4.77
3.28
1.72
0.15
-1.34
-2.74
-4.1
-5.54
-7.14
-8.94
-10.89
-12.97
-15.2
-17.62
-20.23
-22.88
-25.26
-26.93
-27.49
-26.68
-24.5
-21.2
-17.16
-12.76
-8.33
-4.06
-0.11
3.37
6.28
8.53
10.15
11.19
11.78
12.03
12.05
11.94
11.83
11.82
12.01
12.39
12.88
13.36
13.75
13.95
13.96
13.74
13.22
12.37
11.17
9.69
8.05
6.39
4.76
3.13
1.43
-0.43
-2.43
-4.48
-6.44
-8.23
-9.86
-11.42
-13.02
-14.73
-16.56
-18.47
-20.46
-22.53
-24.64
-26.63
-28.14
-28.71
-27.94
-25.68
-22.11
-17.67
-12.9
-8.25
-3.98
-0.18
3.12
5.89
8.09
9.67
10.7
11.25
11.45
11.41
11.2
10.89
10.55
10.31
10.26
10.45
10.84
11.37
11.94
12.45
12.79
12.87
12.59
11.88
10.72
9.22
7.58
5.97
4.52
3.22
1.94
0.49
-1.26
-3.28
-5.42
-7.41
-9.04
-10.24
-11.15
-12.04
-13.21
-14.86
-17.03
-19.61
-22.36
-24.97
-27.02
-28.11
-27.91
-26.23
-23.15
-18.97
-14.19
-9.35
-4.91
-1.11
1.96
4.38
6.25
7.66
8.67
9.31
9.62
9.66
9.54
9.34
9.21
9.25
9.52
10.04
10.74
11.49
12.11
12.41
12.27
11.65
10.64
9.35
7.93
6.49
5.08
3.73
2.38
1.01
-0.45
-2.02
-3.73
-5.51
-7.28
-8.91
-10.31
-11.48
-12.54
-13.7
-15.2
-17.24
-19.84
-22.76
-25.56
-27.64
-28.41
-27.5
-24.86
-20.81
-15.92
-10.84
-6.05
-1.85
1.67
4.55
6.8
8.41
9.36
9.72
9.67
9.51
9.43
9.54
9.75
9.89
9.87
9.66
9.45
9.42
9.7
10.25
10.87
11.25
11.15
10.47
9.26
7.7
5.97
4.24
2.59
0.99
-0.62
-2.31
-4.14
-6.08
-8.02
-9.87
-11.56
-13.16
-14.85
-16.89
-19.45
-22.56
-25.94
-29.14
-31.63
-32.96
-32.85
-31.24
-28.24
-24.06
-18.96
-13.29
-7.49
-1.96
2.98
7.11
10.43
12.97
14.87
16.2
17.02
17.4
17.45
17.32
17.13
16.92
16.65
16.35
16.05
15.92
16.08
16.52
16.97
17.05
16.36
14.76
12.34
9.48
6.58
3.89
1.47
-0.87
-3.31
-5.94
-8.61
-11.1
-13.18
-14.72
-15.82
-16.71
-17.72
-19.15
-21.21
-23.93
-27.16
-30.5
-33.39
-35.23
-35.55
-34.11
-31.02
-26.7
-21.7
-16.57
-11.68
-7.17
-3.04
0.72
4.05
6.74
8.54
9.34
9.22
8.5
7.68
7.15
7.18
7.74
8.63
9.61
10.5
11.26
11.9
12.45
12.81
12.86
12.51
11.73
10.57
9.17
7.63
6.0
4.29
2.45
0.53
-1.42
-3.3
-5.09
-6.82
-8.59
-10.56
-12.84
-15.54
-18.6
-21.77
-24.65
-26.69
-27.35
-26.29
-23.45
-19.11
-13.76
-7.96
-2.24
3.05
7.66
11.47
14.41
16.49
17.75
18.3
18.32
18.01
17.6
17.31
17.29
17.58
18.06
18.54
18.84
18.89
18.74
18.51
18.29
18.04
17.6
16.81
15.57
13.9
11.94
9.82
7.63
5.38
3.01
0.54
-1.98
-4.5
-7.04
-9.72
-12.78
-16.43
-20.65
-25.18
-29.44
-32.74
-34.46
-34.24
-32.1
-28.36
-23.53
-18.17
-12.72
-7.5
-2.67
1.64
5.39
8.51
10.95
12.68
13.74
14.26
14.43
14.48
14.61
14.93
15.41
15.98
16.51
16.85
16.97
16.86
16.58
16.2
15.7
15.02
14.02
12.59
10.75
8.6
6.27
3.86
1.36
-1.3
-4.18
-7.24
-10.38
-13.52
-16.65
-19.94
-23.6
-27.67
-31.93
-35.83
-38.66
-39.77
-38.85
-35.98
-31.61
-26.33
-20.77
-15.39
-10.54
-6.44
-3.2
-0.91
0.38
0.72
0.12
-1.33
-3.49
-6.15
-9.02
-11.8
-14.28
-16.36
-18.18
-19.99
-22.1
-24.7
-27.8
-31.19
-34.46
-37.19
-39.04
-40.02
-40.42
-40.8
-41.56
-42.78
-44.05
-44.66
-43.96
-41.65
-37.88
-33.17
-28.14
-23.34
-19.26
-16.26
-14.5
-13.7
-13.05
-11.22
-6.82
0.99
12.07
25.1
37.98
48.48
55.13
57.78
57.63
56.58
56.31
57.6
59.98
62.17
62.84
61.27
57.73
53.18
48.81
45.51
43.72
43.53
44.9
47.64
51.3
55.06
57.83
58.42
55.95
50.01
40.85
29.46
17.39
6.47
-1.73
-6.37
-7.61
-6.41
-4.08
-1.64
0.61
2.96
6.02
10.29
15.97
22.99
31.19
40.38
50.25
60.19
69.22
76.14
79.82
79.48
74.84
66.12
53.96
39.33
23.4
7.48
-7.22
-19.76
-29.64
-36.77
-41.42
-44.03
-45.14
-45.28
-44.83
-43.85
-42.01
-38.87
-34.13
-28.12
-21.7
-15.92
-11.39
-7.95
-4.77
-0.86
4.38
10.91
18.31
26.15
34.24
42.61
51.16
59.37
66.41
71.39
73.81
73.8
72.09
69.74
67.94
67.69
69.57
73.75
79.84
87.16
94.99
102.61
109.29
114.28
116.71
115.63
110.72
102.32
91.73
81.04
72.18
66.45
64.17
64.36
64.97
63.83
58.72
48.07
31.59
10.09
-14.26
-38.09
-57.74
-70.46
-74.65
-71.14
-63.11
-55.24
-51.48
-55.0
-66.53
-83.81
-106.58
-132.39
-158.67
-183.75
-202.73
-213.12
-214.33
-207.27
-194.12
-177.92
-161.07
-145.23
-130.85
-117.15
-103.22
-88.17
-71.72
-54.57
-38.22
-23.99
-12.72
-4.21
2.48
7.74
11.05
11.18
7.11
-0.79
-10.11
-17.41
-20.04
-17.61
-12.67
-9.05
-9.58
-14.48
-21.4
-26.84
-28.5
-26.58
-23.46
-22.13
-24.2
-28.92
-33.82
-36.32
-35.14
-31.06
-26.29
-23.28
-23.11
-25.09
-27.2
-27.3
-24.27
-18.45
-11.19
-4.05
1.91
6.49
10.0
12.94
15.68
18.42
21.2
24.0
26.73
29.29
31.63
33.87
36.25
38.97
41.92
44.63
46.44
46.81
45.65
43.4
40.82
38.52
36.83
35.61
34.49
33.05
30.93
27.89
23.81
18.73
12.9
6.79
1.03
-3.76
-7.26
-9.48
-10.72
-11.39
-11.95
-12.79
-14.29
-16.72
-20.14
-24.14
-27.82
-30.02
-29.7
-26.36
-20.24
-12.18
-3.22
5.75
14.17
21.73
28.22
33.34
36.82
38.62
39.11
39.02
39.19
40.29
42.52
45.63
49.15
52.65
56.02
59.39
63.0
67.06
71.6
76.51
81.6
86.74
91.69
96.06
99.22
100.34
98.6
93.46
85.02
74.1
62.21
51.23
42.94
38.26
36.71
36.32
34.26
27.94
16.28
0.43
-16.59
-31.12
-40.68
-45.1
-46.67
-49.07
-55.71
-68.41
-86.94
-109.44
-133.13
-154.86
-171.27
-179.13
-175.93
-160.98
-136.17
-105.89
-75.82
-51.11
-34.65
-26.36
-23.66
-22.84
-20.41
-13.97
-2.51
13.7
33.42
54.61
74.74
91.21
102.05
106.52
105.39
100.7
94.92
90.0
86.66
84.49
82.53
80.02
76.94
73.81
70.99
68.03
63.38
54.86
40.7
20.57
-4.0
-29.96
-53.76
-72.6
-85.28
-92.64
-97.16
-102.13
-110.45
-123.58
-140.78
-159.33
-175.25
-184.8
-185.89
-178.98
-167.0
-154.03
-143.63
-137.24
-133.72
-130.03
-122.68
-109.32
-89.48
-64.71
-37.75
-11.56
11.38
29.56
42.38
49.89
52.54
51.1
46.63
40.58
34.62
30.34
28.82
30.23
33.79
38.08
41.63
43.49
43.53
42.44
41.25
40.92
41.83
43.67
45.55
46.39
45.29
41.92
36.6
30.12
23.49
17.48
12.54
8.66
5.56
2.8
-0.11
-3.37
-6.77
-9.55
-10.54
-8.61
-3.35
4.53
13.27
20.51
24.3
23.8
19.63
13.51
7.58
3.5
1.94
2.71
4.91
7.52
9.66
10.76
10.56
9.08
6.65
3.97
2.21
2.83
7.23
16.07
28.78
43.52
57.66
68.83
75.89
79.35
80.89
82.28
84.26
86.15
86.49
84.21
79.58
74.23
70.53
70.31
74.12
81.08
89.31
96.7
101.35
101.91
97.67
88.6
75.23
58.43
39.17
18.17
-3.98
-26.58
-48.38
-67.66
-82.62
-92.28
-96.97
-98.32
-98.62
-99.86
-102.95
-107.59
-112.52
-116.21
-117.47
-115.78
-111.3
-104.91
-97.81
-91.18
-85.83
-81.98
-79.3
-77.12
-74.84
-72.04
-68.5
-64.11
-58.68
-52.01
-43.89
-34.38
-23.88
-13.18
-3.27
5.03
11.33
15.84
19.26
22.37
25.68
29.17
32.37
34.69
35.86
36.08
35.98
36.17
36.99
38.28
39.59
40.48
40.71
40.36
39.64
38.74
37.69
36.4
34.83
32.96
30.84
28.51
26.07
23.63
21.44
19.74
18.69
18.22
17.99
17.49
16.35
14.49
12.17
9.87
7.96
6.57
5.42
4.05
1.98
-0.93
-4.44
-7.92
-10.54
-11.65
-10.95
-8.62
-5.16
-1.17
2.86
6.7
10.34
13.87
17.35
20.77
24.03
27.05
29.69
31.88
33.61
34.96
36.11
37.25
38.47
39.67
40.57
40.8
39.97
37.86
34.43
29.87
24.55
18.92
13.47
8.57
4.43
0.99
-2.12
-5.54
-9.9
-15.6
-22.59
-30.33
-38.0
-44.85
-50.42
-54.68
-57.91
-60.42
-62.26
-63.19
-62.78
-60.84
-57.74
-54.48
-52.37
-52.52
-55.25
-59.89
-64.94
-68.5
-69.03
-65.85
-59.32
-50.65
-41.24
-32.2
-24.04
-16.79
-10.3
-4.63
-0.13
2.81
4.06
4.02
3.61
3.86
5.5
8.7
12.94
17.39
21.13
23.48
24.15
23.34
21.63
19.73
18.18
17.09
16.05
14.4
11.62
7.69
3.15
-1.16
-4.66
-7.23
-9.15
-10.54
-10.99
-9.36
-4.29
5.09
18.51
34.4
50.37
63.84
72.77
75.98
73.28
65.34
53.48
39.56
25.7
13.87
5.3
0.07
-2.85
-5.17
-8.3
-12.63
-17.24
-20.53
-21.28
-19.75
-17.9
-18.68
-24.47
-35.62
-49.97
-63.76
-73.43
-77.25
-75.93
-71.59
-66.28
-60.69
-54.03
-45.11
-33.56
-20.57
-8.41
0.8
6.12
8.14
8.43
8.65
9.65
11.4
13.36
14.97
15.97
16.46
16.78
17.32
18.56
20.94
24.8
30.19
36.76
43.78
50.41
55.93
59.76
61.34
60.01
55.21
46.87
35.95
24.63
15.67
11.06
10.58
11.42
9.13
-0.26
-18.08
-42.14
-67.53
-88.85
-102.32
-106.81
-103.28
-93.46
-78.81
-60.45
-39.81
-19.31
-2.17
8.63
11.76
8.21
0.97
-6.24
-10.27
-9.52
-4.08
4.6
14.43
23.4
30.05
33.74
34.7
33.75
31.81
29.45
26.85
23.84
20.4
16.79
13.63
11.55
10.92
11.48
12.43
12.7
11.4
8.27
3.87
-0.58
-3.65
-4.26
-2.1
2.32
8.0
13.89
19.29
23.88
27.65
30.6
32.62
33.57
33.38
32.22
30.55
28.96
28.01
28.01
28.88
30.24
31.64
32.79
33.64
34.14
33.96
32.39
28.62
22.25
13.74
4.44
-3.84
-9.68
-12.58
-13.15
-12.67
-12.47
-13.49
-16.07
-20.01
-24.75
-29.49
-33.3
-35.52
-35.82
-34.36
-31.58
-27.92
-23.65
-18.93
-14.02
-9.51
-6.09
-4.25
-3.91
-4.34
-4.54
-3.63
-1.34
1.96
5.49
8.47
10.52
11.72
12.59
13.85
16.07
19.42
23.49
27.35
29.88
30.26
28.33
24.69
20.48
16.82
14.36
13.09
12.43
11.69
10.34
8.26
5.64
2.74
-0.25
-3.26
-6.15
-8.62
-10.19
-10.34
-8.86
-5.96
-2.27
1.45
4.64
7.07
8.89
10.39
11.73
12.83
13.41
13.19
12.13
10.49
8.71
7.28
6.54
6.61
7.4
8.71
10.29
11.87
13.22
14.12
14.41
13.94
12.55
10.1
6.57
2.21
-2.48
-6.8
-10.09
-11.94
-12.36
-11.67
-10.32
-8.78
-7.28
-6.04
-5.21
-5.01
-5.68
-7.28
-9.66
-12.35
-14.74
-16.21
-16.28
-14.71
-11.57
-7.11
-1.77
3.97
9.66
14.89
19.33
22.76
25.13
26.65
27.79
29.07
30.87
33.12
35.32
36.65
36.43
34.28
30.27
