9.7
8.21
6.18
3.83
1.45
-0.79
-2.81
-4.7
-6.65
-8.82
-11.36
-14.3
-17.53
-20.81
-23.77
-25.92
-26.82
-26.21
-24.08
-20.69
-16.45
-11.76
-6.98
-2.31
2.06
5.96
9.2
11.61
13.12
13.83
14.03
14.05
14.2
14.63
15.33
16.19
17.03
17.73
18.22
18.51
18.62
18.56
18.3
17.77
16.93
15.75
14.23
12.4
10.3
7.98
5.55
3.11
0.8
-1.29
-3.18
-5.02
-7.02
-9.44
-12.4
-15.88
-19.68
-23.42
-26.66
-28.95
-29.96
-29.51
-27.58
-24.34
-20.04
-15.0
-9.55
-4.03
1.26
6.04
10.08
13.24
15.5
16.97
17.8
18.19
18.31
18.29
18.26
18.29
18.46
18.79
19.26
19.79
20.29
20.64
20.7
20.36
19.55
18.28
16.66
14.82
12.9
10.94
8.9
6.71
4.37
1.98
-0.29
-2.26
-3.93
-5.44
-7.06
-9.11
-11.77
-15.1
-18.96
-23.0
-26.74
-29.58
-31.0
-30.69
-28.63
-25.13
-20.68
-15.78
-10.82
-5.96
-1.24
3.32
7.62
11.42
14.45
16.51
17.54
17.69
17.23
16.54
15.98
15.83
16.19
17.02
18.13
19.28
20.28
21.0
21.39
21.4
21.04
20.27
19.11
17.59
15.79
13.79
11.62
9.28
6.76
4.04
1.19
-1.69
-4.46
-7.06
-9.49
-11.85
-14.28
-16.88
-19.66
-22.43
-24.79
-26.27
-26.38
-24.83
-21.63
-17.07
-11.69
-6.05
-0.62
4.29
8.51
11.93
14.45
16.0
16.58
16.31
15.48
14.47
13.66
13.36
13.68
14.51
15.6
16.63
17.33
17.55
17.26
16.57
15.59
14.41
13.09
11.65
10.12
8.53
6.92
5.24
3.38
1.19
-1.44
-4.53
-7.9
-11.3
-14.41
-17.07
-19.32
-21.44
-23.86
-26.97
-30.94
-35.57
-40.33
-44.45
-47.23
-48.18
-47.2
-44.59
-40.91
-36.84
-32.92
-29.51
-26.77
-24.73
-23.41
-22.9
-23.3
-24.68
-27.02
-30.22
-34.13
-38.61
-43.47
-48.4
-52.95
-56.46
-58.34
-58.27
-56.44
-53.6
-50.82
-49.03
-48.58
-48.9
-48.65
-46.19
-40.24
-30.39
-17.22
-2.05
13.46
27.58
38.9
46.51
50.36
51.45
51.77
53.66
58.94
68.01
79.52
90.93
99.63
104.15
104.69
102.84
100.69
99.84
100.77
102.71
104.05
102.74
97.01
85.81
69.24
48.61
26.14
4.36
-14.5
-29.08
-38.94
-44.45
-46.38
-45.72
-43.48
-40.66
-38.12
-36.4
-35.6
-35.48
-35.61
-35.64
-35.34
-34.4
-32.32
-28.45
-22.23
-13.66
-3.53
6.77
15.78
22.59
27.18
30.32
33.07
36.29
40.37
45.16
50.23
55.03
58.92
61.15
60.87
57.37
50.55
41.22
31.18
22.85
18.37
18.78
23.66
31.25
39.16
45.26
48.33
48.32
46.08
42.83
39.64
37.1
35.32
34.04
32.89
31.59
29.94
27.84
25.21
22.02
18.39
14.6
11.09
8.25
6.14
4.32
1.94
-1.87
-7.58
-15.02
-23.38
-31.59
-38.72
-44.31
-48.38
-51.27
-53.44
-55.32
-57.23
-59.39
-61.81
-64.26
-66.26
-67.16
-66.4
-63.74
-59.39
-53.91
-47.97
-42.15
-36.75
-31.85
-27.36
-23.2
-19.34
-15.79
-12.64
-9.94
-7.73
-5.97
-4.56
-3.32
-2.03
-0.57
1.08
2.78
4.35
5.61
6.55
7.22
7.75
8.25
8.73
9.11
9.26
9.02
8.31
7.15
5.59
3.74
1.7
-0.46
-2.69
-4.97
-7.28
-9.64
-12.15
-14.89
-17.93
-21.15
-24.19
-26.48
-27.47
-26.81
-24.49
-20.95
-16.77
-12.53
-8.62
-5.17
-2.21
0.19
1.96
3.0
3.33
3.14
2.68
2.21
1.85
1.61
1.44
1.38
1.5
1.88
2.48
3.14
3.65
3.83
3.66
3.18
2.46
1.5
0.27
-1.29
-3.12
-5.07
-6.99
-8.82
-10.67
-12.71
-15.07
-17.69
-20.29
-22.43
-23.68
-23.73
-22.46
-19.95
-16.45
-12.24
-7.61
-2.88
1.66
5.68
8.87
11.01
12.0
11.95
11.13
9.93
8.7
7.66
6.87
6.27
5.82
5.48
5.27
5.19
5.18
5.1
4.81
4.19
3.22
1.95
0.46
-1.18
-2.94
-4.76
-6.57
-8.35
-10.08
-11.89
-13.99
-16.61
-19.82
-23.46
-27.08
-30.06
-31.79
-31.82
-30.02
-26.58
-21.89
-16.47
-10.8
-5.3
-0.24
4.21
7.98
11.03
13.35
14.91
15.71
15.82
15.38
14.62
13.83
13.24
12.95
12.96
13.13
13.32
13.46
13.51
13.5
13.37
13.03
12.34
11.17
9.48
7.37
4.97
2.46
-0.1
-2.72
-5.47
-8.43
-11.66
-15.09
-18.56
-21.84
-24.62
-26.55
-27.36
-26.81
-24.83
-21.49
-17.0
-11.72
-6.08
-0.54
4.5
8.71
11.91
14.05
15.21
15.56
15.36
14.87
14.4
14.19
14.37
14.89
15.56
16.12
16.4
16.4
16.23
16.05
15.95
15.81
15.38
14.41
12.76
10.5
7.91
5.29
2.89
0.71
-1.36
-3.52
-5.98
-8.81
-11.96
-15.28
-18.56
-21.54
-23.95
-25.53
-26.01
-25.22
-23.06
-19.59
-15.0
-9.64
-3.97
1.55
6.49
10.53
13.51
15.38
16.22
16.18
15.48
14.43
13.39
12.74
12.73
13.37
14.42
15.48
16.13
16.16
15.65
14.86
14.04
13.3
12.5
11.41
9.83
7.74
5.27
2.65
0.1
-2.26
-4.43
-6.52
-8.71
-11.2
-14.12
-17.49
-21.08
-24.45
-26.99
-28.08
-27.33
-24.68
-20.44
-15.14
-9.36
-3.61
1.78
6.61
10.73
14.03
16.39
17.77
18.23
17.99
17.33
16.53
15.78
15.21
14.84
14.73
14.9
15.3
15.83
16.29
16.5
16.32
15.74
14.85
13.71
12.4
10.86
9.01
6.81
4.33
1.73
-0.79
-3.12
-5.27
-7.38
-9.67
-12.29
-15.27
-18.53
-21.88
-25.08
-27.85
-29.84
-30.67
-30.0
-27.67
-23.79
-18.76
-13.16
-7.5
-2.16
2.77
7.28
11.37
14.93
17.71
19.53
20.34
20.32
19.86
19.34
19.09
19.19
19.58
20.09
20.57
20.94
21.15
21.2
21.06
20.67
19.98
18.99
17.76
16.39
14.93
13.34
11.55
9.46
7.08
4.48
1.86
-0.63
-2.94
-5.11
-7.31
-9.67
-12.31
-15.25
-18.47
-21.87
-25.25
-28.28
-30.45
-31.25
-30.28
-27.44
-22.99
-17.5
-11.64
-5.94
-0.69
4.02
8.2
11.81
14.68
16.59
17.43
17.3
16.57
15.69
15.03
14.79
14.89
15.17
15.47
15.75
15.98
16.1
16.01
15.59
14.79
13.72
12.59
11.55
10.6
9.53
8.08
6.07
3.55
0.75
-2.03
-4.56
-6.77
-8.77
-10.68
-12.66
-14.81
-17.22
-19.94
-22.9
-25.9
-28.55
-30.34
-30.79
-29.59
-26.71
-22.48
-17.38
-11.96
-6.72
-1.91
2.32
5.93
8.9
11.17
12.71
13.51
13.7
13.43
12.91
12.31
11.71
11.17
10.74
10.47
10.41
10.51
10.61
10.46
9.8
8.51
6.64
4.41
2.06
-0.24
-2.5
-4.83
-7.35
-10.1
-13.04
-16.08
-19.19
-22.37
-25.68
-29.11
-32.62
-36.0
-38.88
-40.74
-41.06
-39.48
-36.1
-31.56
-26.78
-22.55
-18.93
-15.26
-10.55
-4.25
3.33
11.34
19.02
26.44
34.29
43.2
52.76
61.31
66.68
67.58
64.53
59.69
55.66
53.88
53.99
54.28
53.05
49.8
45.35
41.14
38.11
36.09
33.98
30.6
25.39
18.79
11.84
5.6
0.62
-3.17
-6.27
-9.19
-12.23
-15.42
-18.63
-21.75
-24.77
-27.85
-31.2
-34.99
-39.23
-43.66
-47.8
-50.94
-52.45
-51.89
-49.2
-44.69
-38.93
-32.59
-26.24
-20.29
-14.94
-10.28
-6.34
-3.14
-0.63
1.21
2.51
3.41
4.09
4.76
5.56
6.55
7.62
8.61
9.27
9.44
9.07
8.24
7.13
5.95
4.9
4.06
3.43
2.84
2.08
0.91
-0.83
-3.12
-5.83
-8.74
-11.65
-14.43
-17.09
-19.68
-22.27
-24.93
-27.7
-30.68
-33.95
-37.51
-41.13
-44.37
-46.67
-47.57
-46.89
-44.77
-41.63
-37.93
-34.06
-30.26
-26.73
-23.56
-20.9
-18.85
-17.49
-16.77
-16.63
-16.89
-17.3
-17.5
-17.05
-15.62
-13.16
-9.94
-6.45
-3.17
-0.34
2.14
4.55
7.12
9.85
12.51
14.77
16.39
17.32
17.65
17.62
17.43
17.35
17.59
18.36
19.81
21.99
24.82
28.04
31.19
33.71
35.04
34.9
33.49
31.6
30.42
31.21
34.8
41.19
49.5
58.29
65.95
71.28
73.67
73.05
69.76
64.21
56.83
47.94
37.92
27.19
16.28
5.77
-3.81
-12.03
-18.7
-23.84
-27.69
-30.63
-33.07
-35.32
-37.49
-39.46
-40.87
-41.28
-40.24
-37.51
-33.15
-27.67
-21.95
-17.04
-13.85
-12.87
-14.01
-16.67
-19.95
-22.89
-24.69
-24.76
-22.78
-18.76
-13.0
-6.13
1.03
7.62
12.95
16.61
18.54
18.86
17.83
15.8
13.15
10.27
7.52
5.11
3.13
1.56
0.3
-0.66
-1.32
-1.66
-1.67
-1.45
-1.14
-0.96
-1.06
-1.57
-2.52
-3.85
-5.47
-7.25
-9.07
-10.91
-12.8
-14.85
-17.16
-19.76
-22.58
-25.52
-28.4
-31.07
-33.28
-34.76
-35.17
-34.25
-31.86
-28.07
-23.17
-17.54
-11.52
-5.36
0.71
6.45
11.5
15.4
17.82
18.68
18.28
17.17
16.04
15.35
15.3
15.76
16.46
17.14
17.65
17.93
17.94
17.65
17.01
15.96
14.53
12.74
10.65
8.29
5.71
2.93
0.02
-3.0
-6.12
-9.4
-12.92
-16.69
-20.58
-24.29
-27.36
-29.29
-29.75
-28.59
-25.92
-21.98
-17.08
-11.48
-5.42
0.85
7.01
12.58
17.12
20.23
21.75
21.78
20.72
19.07
17.33
15.91
15.01
14.66
14.8
15.3
16.0
16.69
17.15
17.16
16.55
15.27
13.4
11.12
8.64
6.17
3.8
1.54
-0.7
-3.07
-5.73
-8.91
-12.77
-17.29
-22.2
-26.9
-30.56
-32.36
-31.76
-28.65
-23.43
-16.8
-9.55
-2.3
4.53
10.71
16.1
20.5
23.73
25.65
26.31
25.98
25.04
23.94
22.93
22.12
21.42
20.72
19.97
19.24
18.66
18.34
18.27
18.28
18.07
17.3
15.73
13.3
10.14
6.58
3.0
-0.25
-2.99
-5.29
-7.42
-9.75
-12.64
-16.28
-20.66
-25.55
-30.49
-34.82
-37.83
-38.83
-37.44
-33.63
-27.82
-20.68
-12.95
-5.25
2.0
8.54
14.23
18.94
22.56
25.07
26.57
27.22
27.22
26.83
26.27
25.78
25.55
25.64
26.01
26.49
26.82
26.87
26.6
26.06
25.38
24.63
23.78
22.72
21.31
19.47
17.13
14.3
11.03
7.45
3.74
0.13
-3.16
-6.03
-8.57
-10.98
-13.54
-16.5
-19.93
-23.83
-28.04
-32.31
-36.26
-39.39
-41.12
-40.93
-38.5
-33.85
-27.38
-19.81
-11.9
-4.28
2.63
8.7
13.88
18.12
21.31
23.29
24.05
23.74
22.77
21.66
20.82
20.49
20.62
21.02
21.46
21.79
21.96
21.95
21.74
21.28
20.53
19.5
18.22
16.74
15.07
13.13
10.83
8.12
5.04
1.77
-1.46
-4.43
-7.01
-9.21
-11.2
-13.28
-15.76
-18.9
-22.77
-27.15
-31.54
-35.16
-37.27
-37.25
-34.9
-30.39
-24.26
-17.2
-9.91
-2.95
3.29
8.61
12.91
16.18
18.45
19.75
20.19
19.9
19.11
18.09
17.1
16.37
15.99
15.99
16.33
16.92
17.63
18.25
18.53
18.26
17.36
15.88
14.05
12.1
10.22
8.45
6.66
4.7
2.4
-0.25
-3.19
-6.21
-9.14
-11.82
-14.21
-16.37
-18.53
-21.01
-24.1
-27.91
-32.21
-36.44
-39.78
-41.42
-40.77
-37.67
-32.45
-25.74
-18.29
-10.78
-3.68
2.69
8.14
12.54
15.82
17.96
19.07
19.36
19.15
18.81
18.65
18.83
19.33
19.96
20.47
20.7
20.67
20.54
20.49
20.57
20.58
20.17
19.08
17.22
14.84
12.31
9.96
7.91
6.05
4.15
2.02
-0.38
-3.02
-5.78
-8.58
-11.33
-13.94
-16.3
-18.32
-20.1
-21.9
-24.1
-26.98
-30.44
-34.0
-36.84
-38.13
-37.31
-34.33
-29.59
-23.77
-17.58
-11.52
-5.85
-0.64
4.11
8.29
11.71
14.15
15.49
15.8
15.39
14.66
14.04
13.77
13.93
14.41
15.08
15.81
16.52
17.12
17.49
17.5
16.99
15.93
14.37
12.48
10.45
8.44
6.53
4.73
2.98
1.15
-0.87
-3.17
-5.72
-8.39
-10.95
-13.21
-15.14
-16.95
-19.0
-21.58
-24.76
-28.16
-31.09
-32.74
-32.52
-30.23
-26.12
-20.71
-14.61
-8.37
-2.43
2.9
7.34
10.72
12.96
14.19
14.65
14.65
14.41
14.08
13.69
13.27
12.87
12.59
12.56
12.79
13.25
13.75
14.13
14.23
13.98
13.38
12.48
11.32
9.89
8.22
6.32
4.26
2.13
0.04
-2.02
-4.08
-6.21
-8.43
-10.68
-12.85
-14.82
-16.62
-18.44
-20.58
-23.3
-26.65
-30.38
-33.87
-36.35
-37.12
-35.76
-32.23
-26.92
-20.47
-13.55
-6.71
-0.29
5.57
10.76
15.18
18.69
21.14
22.49
22.9
22.71
22.41
22.47
23.24
24.82
27.1
29.82
32.64
35.27
37.5
39.28
40.69
41.91
43.24
44.94
47.16
49.92
53.14
56.76
60.84
65.51
70.75
76.28
81.5
85.74
88.57
90.03
90.53
90.67
90.91
91.43
92.23
93.31
94.76
96.76
99.29
102.07
104.56
106.24
106.75
105.96
103.8
100.06
94.37
86.32
75.59
62.07
45.9
27.46
7.52
-12.82
-32.26
-49.67
-64.54
-77.16
-88.39
-99.11
-109.54
-119.02
-126.27
-130.17
-130.5
-128.3
-125.51
-124.21
-125.66
-129.93
-136.01
-142.62
-148.97
-155.25
-162.36
-171.11
-181.34
-191.63
-199.93
-204.64
-205.54
-203.88
-201.6
-200.05
-199.41
-198.79
-197.04
-193.52
-188.08
-180.42
-169.61
-154.14
-132.91
-106.23
-76.27
-46.3
-19.36
3.01
21.02
36.07
49.64
62.58
74.93
86.34
96.55
105.52
113.21
119.37
123.51
125.17
124.34
121.49
117.46
113.06
108.78
104.65
100.42
95.82
90.77
85.48
80.26
75.35
70.67
65.81
60.13
52.93
43.58
31.59
16.67
-1.14
-21.3
-42.68
-63.62
-82.16
-96.45
-105.07
-107.31
-103.25
-93.67
-79.83
-63.22
-45.3
-27.3
-10.11
5.7
19.8
32.0
42.14
50.12
55.88
59.54
61.38
61.77
61.06
59.45
56.83
52.78
46.59
37.58
25.41
10.42
-6.29
-23.0
-37.8
-49.03
-55.69
-57.5
-54.83
-48.41
-39.13
-27.93
-15.72
-3.38
8.21
18.34
26.52
32.43
35.97
37.07
35.77
32.2
26.66
19.67
11.75
3.19
-6.07
-16.24
-27.28
-38.52
-48.54
-55.56
-58.04
-55.34
-47.89
-36.96
-24.11
-10.66
2.48
14.77
25.9
35.6
43.68
50.11
55.04
58.76
61.6
63.69
64.93
64.81
62.42
56.68
46.95
33.46
17.64
1.9
-11.12
-19.48
-22.58
-21.27
-17.35
-12.66
-8.51
-5.37
-3.08
-1.34
-0.09
0.4
-0.39
-2.96
-7.6
-14.31
-22.73
-32.15
-41.54
-49.59
-54.98
-56.6
-53.96
-47.23
-37.29
-25.44
-13.07
-1.36
8.82
16.95
22.75
26.17
27.44
27.11
26.04
25.25
25.61
27.58
31.08
35.48
39.9
43.5
45.82
46.78
46.58
45.44
43.34
40.11
35.45
29.22
21.43
12.3
2.09
-8.97
-20.53
-32.02
-42.6
-51.22
-56.91
-59.19
-58.2
-54.65
-49.53
-43.79
-38.12
-32.89
-28.38
-24.77
-22.33
-21.28
-21.65
-23.15
-25.22
-27.18
-28.42
-28.58
-27.63
-25.79
-23.34
-20.53
-17.45
-14.09
-10.36
-6.23
-1.83
2.55
6.53
9.78
12.16
13.86
15.33
17.15
19.65
22.77
25.96
28.38
29.25
28.26
25.63
22.08
18.56
15.93
14.75
15.24
17.27
20.48
24.37
28.46
32.31
35.61
38.15
39.8
40.44
39.98
38.47
36.07
33.15
30.19
27.6
25.63
24.3
23.48
22.98
22.66
22.42
22.19
21.96
21.67
21.29
20.75
19.99
18.9
17.4
15.48
13.23
10.88
8.67
6.79
5.22
3.76
2.1
-0.09
-3.0
-6.6
-10.57
-14.36
-17.3
-18.75
-18.32
-15.95
-11.96
-6.94
-1.54
3.71
8.44
12.49
15.79
18.27
19.82
20.36
19.93
18.72
17.02
15.2
13.51
12.06
10.81
9.65
8.47
7.27
6.16
5.24
4.5
3.82
3.01
1.95
0.67
-0.67
-1.88
-2.86
-3.76
-4.85
-6.37
-8.41
-10.75
-13.08
-15.13
-16.87
-18.54
-20.48
-22.94
-25.95
-29.22
-32.27
-34.54
-35.52
-34.88
-32.48
-28.45
-23.12
-16.99
-10.6
-4.42
1.22
6.1
10.11
13.19
15.32
16.5
16.85
16.54
15.82
14.98
14.28
13.85
13.72
13.8
13.96
14.07
14.06
13.96
13.77
13.47
12.95
12.05
10.67
8.82
6.67
4.45
2.36
0.44
-1.43
-3.41
-5.64
-8.13
-10.81
-13.6
-16.49
-19.53
-22.69
-25.74
-28.24
-29.65
-29.53
-27.69
-24.29
-19.7
-14.44
-8.93
-3.51
1.55
6.03
9.75
12.62
14.64
15.9
16.55
16.73
16.54
16.11
15.6
15.21
15.13
15.44
16.11
16.97
17.77
18.27
18.32
17.88
17.0
15.81
14.41
12.93
11.4
9.86
8.26
6.49
4.44
2.02
-0.77
-3.77
-6.73
-9.38
-11.55
-13.29
-14.83
-16.5
-18.56
-21.06
-23.82
-26.43
-28.44
-29.33
-28.73
-26.42
-22.4
-16.94
-10.51
-3.72
2.92
9.02
14.38
18.97
22.84
25.98
28.38
30.02
30.94
31.29
31.28
31.14
31.08
31.2
31.49
31.87
32.27
32.66
33.11
33.68
34.3
34.69
34.33
32.7
29.54
25.01
19.67
14.19
9.01
4.18
-0.5
-5.14
-9.45
-12.85
-14.75
-15.11
-14.56
-14.2
-15.05
-17.5
-21.2
-25.33
-29.25
-32.78
-36.25
-40.11
-44.41
-48.71
-52.24
-54.31
-54.71
-53.73
-51.81
-49.3
-46.18
-42.26
-37.42
-31.86
-26.11
-20.79
-16.29
-12.65
-9.56
-6.61
-3.56
-0.39
2.74
5.6
8.03
9.95
11.35
12.23
12.61
12.52
11.92
10.76
8.87
6.08
2.37
-2.05
-6.68
-10.9
-14.25
-16.61
-18.21
-19.42
-20.51
-21.49
-22.18
-22.37
-21.99
-21.1
-19.8
-17.98
-15.35
-11.51
-6.18
0.59
8.43
16.73
24.91
32.54
39.32
45.08
49.65
52.89
54.74
55.25
54.67
53.33
51.64
49.93
48.4
47.13
46.08
45.09
44.0
42.64
40.87
38.61
35.8
32.45
28.58
24.27
19.59
14.69
9.7
4.72
-0.33
-5.62
-11.37
-17.73
-24.59
-31.65
-38.39
-44.36
-49.28
-53.23
-56.55
-59.65
-62.83
