-9.73
-3.86
1.53
6.29
10.38
13.74
16.34
18.11
19.09
19.41
19.3
19.06
18.95
19.09
19.44
19.88
20.22
20.27
19.91
19.07
17.8
16.24
14.6
13.02
11.57
10.19
8.69
6.83
4.42
1.41
-2.04
-5.63
-8.97
-11.86
-14.31
-16.65
-19.32
-22.62
-26.58
-30.89
-34.92
-37.99
-39.53
-39.16
-36.81
-32.64
-27.07
-20.67
-14.1
-7.88
-2.33
2.5
6.77
10.6
14.01
16.83
18.82
19.87
20.07
19.71
19.19
18.81
18.66
18.62
18.52
18.25
17.79
17.27
16.78
16.38
15.97
15.33
14.24
12.52
10.08
6.97
3.37
-0.43
-4.07
-7.24
-9.85
-12.03
-14.24
-17.02
-20.87
-25.93
-31.91
-38.16
-43.84
-48.33
-51.34
-53.03
-53.7
-53.66
-52.94
-51.42
-48.73
-44.36
-37.66
-27.94
-14.84
1.26
18.96
36.04
49.99
58.94
62.35
61.07
56.89
51.64
46.57
42.16
38.39
35.14
32.42
30.32
28.78
27.57
26.33
24.78
22.86
20.66
18.31
15.9
13.47
11.02
8.61
6.35
4.3
2.37
0.34
-2.05
-4.98
-8.46
-12.33
-16.37
-20.34
-23.99
-26.99
-28.83
-28.95
-26.92
-22.7
-16.79
-10.02
-3.35
2.56
7.49
11.63
15.28
18.62
21.58
23.93
25.5
26.28
26.45
26.25
25.89
25.45
25.01
24.6
24.31
24.16
24.13
24.06
23.76
23.07
21.92
20.37
18.57
16.64
14.65
12.57
10.31
7.83
5.1
2.16
-0.85
-3.82
-6.67
-9.34
-11.86
-14.32
-16.89
-19.78
-23.16
-27.01
-31.08
-34.76
-37.33
-38.11
-36.77
-33.42
-28.57
-22.87
-16.89
-10.94
-5.12
0.53
5.91
10.76
14.79
17.72
19.46
20.09
19.86
19.12
18.23
17.53
17.2
17.26
17.63
18.13
18.62
19.02
19.29
19.41
19.29
18.8
17.87
16.49
14.73
12.74
10.65
8.49
6.26
3.94
1.55
-0.87
-3.26
-5.55
-7.77
-9.97
-12.25
-14.77
-17.63
-20.82
-24.11
-27.0
-28.86
-29.09
-27.37
-23.82
-18.92
-13.38
-7.82
-2.62
2.07
6.3
10.08
13.32
15.85
17.51
18.27
18.31
17.9
17.35
16.88
16.57
16.39
16.25
16.05
15.76
15.42
15.07
14.72
14.33
13.77
12.92
11.72
10.2
8.48
6.72
5.02
3.37
1.66
-0.26
-2.49
-5.03
-7.73
-10.35
-12.7
-14.69
-16.47
-18.34
-20.62
-23.42
-26.47
-29.2
-30.87
-30.91
-29.12
-25.77
-21.4
-16.63
-11.9
-7.4
-3.08
1.17
5.39
9.45
13.08
15.98
17.95
18.96
19.22
19.05
18.81
18.73
18.88
19.15
19.37
19.34
18.94
18.2
17.19
16.08
14.93
13.81
12.73
11.67
10.64
9.62
8.57
7.39
5.93
4.04
1.67
-1.09
-3.98
-6.72
-9.05
-10.93
-12.51
-14.08
-15.92
-18.21
-20.92
-23.85
-26.68
-29.04
-30.58
-30.99
-30.07
-27.74
-24.14
-19.61
-14.64
-9.74
-5.31
-1.49
1.74
4.55
7.04
9.2
10.92
12.08
12.66
12.79
12.74
12.77
12.99
13.36
13.71
13.88
13.86
13.75
13.72
13.81
13.9
13.69
12.94
11.56
9.69
7.61
5.58
3.71
1.93
0.13
-1.74
-3.59
-5.34
-6.93
-8.55
-10.43
-12.83
-15.84
-19.38
-23.08
-26.47
-28.98
-30.1
-29.54
-27.29
-23.66
-19.21
-14.51
-10.02
-5.92
-2.22
1.19
4.36
7.24
9.66
11.44
12.52
12.97
12.99
12.84
12.79
13.04
13.63
14.43
15.26
15.93
16.36
16.63
16.79
16.87
16.72
16.15
14.97
13.26
11.25
9.24
7.48
5.99
4.56
2.93
0.88
-1.54
-4.16
-6.68
-8.87
-10.65
-12.14
-13.56
-15.2
-17.29
-19.92
-23.03
-26.35
-29.46
-31.85
-33.04
-32.72
-30.82
-27.55
-23.29
-18.48
-13.51
-8.63
-3.97
0.36
4.23
7.48
9.89
11.36
11.9
11.73
11.21
10.79
10.76
11.23
12.06
12.94
13.57
13.77
13.61
13.27
12.94
12.7
12.48
12.12
11.49
10.56
9.36
7.94
6.29
4.39
2.25
-0.02
-2.24
-4.23
-5.88
-7.21
-8.32
-9.36
-10.51
-11.99
-14.03
-16.8
-20.29
-24.13
-27.67
-30.09
-30.8
-29.57
-26.71
-22.83
-18.57
-14.4
-10.43
-6.59
-2.72
1.22
5.08
8.54
11.25
12.96
13.57
13.26
12.3
11.08
9.86
8.81
7.95
7.28
6.85
6.71
6.93
7.46
8.11
8.59
8.62
8.04
6.93
5.56
4.23
3.2
2.49
1.93
1.23
0.08
-1.64
-3.82
-6.17
-8.33
-10.07
-11.4
-12.6
-14.09
-16.23
-19.11
-22.56
-26.13
-29.25
-31.35
-32.01
-31.08
-28.59
-24.89
-20.37
-15.48
-10.59
-5.94
-1.64
2.25
5.73
8.74
11.2
13.06
14.28
14.91
15.09
15.02
14.9
14.88
15.03
15.32
15.66
16.01
16.35
16.71
17.04
17.23
17.14
16.61
15.64
14.28
12.68
10.92
9.05
7.05
4.93
2.73
0.5
-1.71
-3.86
-5.97
-8.05
-10.13
-12.27
-14.56
-17.14
-20.12
-23.54
-27.26
-30.92
-34.05
-36.09
-36.61
-35.39
-32.47
-28.19
-22.96
-17.32
-11.67
-6.35
-1.53
2.7
6.33
9.33
11.66
13.25
14.08
14.19
13.81
13.24
12.85
12.8
13.09
13.5
13.72
13.54
12.9
11.94
10.87
9.89
9.1
8.53
8.09
7.65
7.09
6.28
5.12
3.57
1.7
-0.39
-2.56
-4.73
-6.9
-9.14
-11.55
-14.28
-17.4
-20.88
-24.5
-27.84
-30.32
-31.41
-30.75
-28.39
-24.74
-20.35
-15.67
-10.97
-6.31
-1.69
2.75
6.69
9.76
11.66
12.34
11.94
10.71
8.94
6.93
4.92
3.18
1.77
0.62
-0.53
-1.96
-3.86
-6.28
-9.12
-12.35
-16.01
-20.29
-25.37
-31.28
-37.95
-45.19
-52.83
-60.75
-68.93
-77.34
-85.96
-94.78
-103.86
-113.35
-123.5
-134.48
-146.09
-157.64
-167.86
-175.39
-179.41
-180.17
-179.03
-177.85
-177.99
-179.67
-181.97
-183.69
-184.28
-184.07
-183.61
-182.64
-179.46
-171.58
-157.0
-135.55
-109.03
-80.24
-51.49
-23.72
3.24
29.74
55.56
79.92
102.15
122.45
141.89
161.93
183.39
205.86
227.87
247.62
263.76
275.86
284.31
289.81
292.89
293.58
291.48
286.03
276.82
263.88
247.74
229.35
209.88
190.48
172.14
155.6
141.32
129.44
119.87
112.34
106.64
102.56
99.89
98.23
96.96
95.41
92.99
89.37
84.45
78.19
70.46
61.11
50.14
37.89
25.07
12.7
1.8
-6.69
-12.13
-14.38
-13.82
-11.48
-8.8
-7.23
-7.73
-10.41
-14.58
-19.12
-23.04
-25.89
-27.71
-28.82
-29.55
-30.05
-30.37
-30.6
-31.02
-31.92
-33.45
-35.48
-37.53
-39.01
-39.3
-37.98
-34.93
-30.37
-24.86
-19.29
-14.65
-11.79
-11.12
-12.55
-15.5
-19.22
-22.96
-26.24
-28.82
-30.69
-31.93
-32.63
-32.87
-32.74
-32.3
-31.64
-30.82
-29.89
-28.86
-27.73
-26.51
-25.24
-24.02
-22.95
-22.18
-21.81
-21.81
-22.05
-22.33
-22.55
-22.78
-23.27
-24.33
-26.13
-28.51
-31.02
-32.95
-33.63
-32.64
-29.91
-25.76
-20.74
-15.43
-10.28
-5.58
-1.41
2.2
5.21
7.57
9.12
9.82
9.69
8.96
7.96
7.01
6.33
6.02
6.03
6.23
6.47
6.59
6.5
6.15
5.48
4.49
3.14
1.46
-0.47
-2.52
-4.55
-6.45
-8.25
-10.14
-12.35
-15.03
-18.05
-20.99
-23.17
-23.96
-22.98
-20.23
-16.12
-11.2
-6.02
-0.99
3.69
7.91
11.56
14.5
16.52
17.47
17.33
16.29
14.7
12.97
11.45
10.32
9.59
9.15
8.85
8.55
8.16
7.56
6.66
5.37
3.62
1.44
-1.06
-3.71
-6.3
-8.73
-11.01
-13.32
-15.9
-18.94
-22.38
-25.87
-28.74
-30.32
-30.05
-27.83
-23.9
-18.82
-13.19
-7.47
-1.93
3.31
8.11
12.28
15.56
17.72
18.73
18.79
18.29
17.66
17.21
17.0
16.89
16.65
16.09
15.2
14.13
13.12
12.29
11.58
10.79
9.66
8.06
5.99
3.66
1.27
-1.0
-3.13
-5.21
-7.41
-9.87
-12.65
-15.75
-19.03
-22.22
-24.94
-26.73
-27.15
-25.91
-23.02
-18.74
-13.54
-7.9
-2.27
3.05
7.89
12.11
15.57
18.12
19.74
20.47
20.52
20.17
19.68
19.23
18.86
18.51
18.06
17.45
16.64
15.74
14.88
14.18
13.62
13.1
12.38
11.21
9.48
7.28
4.86
2.51
0.43
-1.39
-3.12
-5.06
-7.46
-10.43
-13.94
-17.76
-21.47
-24.54
-26.44
-26.73
-25.27
-22.19
-17.89
-12.84
-7.48
-2.15
2.86
7.29
10.84
13.3
14.58
14.87
14.49
13.84
13.2
12.68
12.21
11.74
11.24
10.82
10.58
10.56
10.69
10.78
10.62
10.09
9.16
7.89
6.34
4.52
2.4
-0.02
-2.65
-5.32
-7.87
-10.25
-12.59
-15.14
-18.12
-21.5
-24.95
-27.88
-29.65
-29.78
-28.15
-24.94
-20.61
-15.68
-10.63
-5.83
-1.49
2.34
5.67
8.51
10.83
12.51
13.46
13.64
13.2
12.4
11.57
10.97
10.73
10.85
11.23
11.78
12.35
12.82
13.01
12.72
11.9
10.59
8.99
7.3
5.64
3.99
2.22
0.18
-2.16
-4.71
-7.25
-9.58
-11.59
-13.34
-15.06
-17.04
-19.5
-22.48
-25.82
-29.1
-31.75
-33.2
-33.04
-31.11
-27.58
-22.85
-17.42
-11.76
-6.23
-1.02
3.7
7.79
11.1
13.53
15.04
15.79
16.02
16.04
16.1
16.33
16.69
17.07
17.36
17.47
17.35
17.05
16.57
15.95
15.22
14.35
13.29
11.94
10.19
8.03
5.54
2.94
0.51
-1.58
-3.32
-4.88
-6.53
-8.54
-11.01
-13.89
-16.98
-20.09
-23.0
-25.51
-27.36
-28.25
-27.85
-25.96
-22.63
-18.19
-13.13
-8.0
-3.21
1.05
4.71
7.74
10.09
11.61
12.19
11.88
10.95
9.81
8.87
8.37
8.25
8.34
8.37
8.25
8.03
7.85
7.81
7.8
7.59
6.87
5.51
3.59
1.35
-0.88
-2.96
-4.87
-6.73
-8.72
-10.93
-13.38
-16.04
-18.9
-21.94
-25.07
-28.06
-30.49
-31.82
-31.61
-29.59
-25.88
-20.87
-15.12
-9.22
-3.67
1.23
5.27
8.43
10.76
12.38
13.42
14.01
14.23
14.16
13.93
13.7
13.71
14.09
14.84
15.78
16.58
16.93
16.66
15.82
14.65
13.41
12.3
11.28
10.17
8.74
6.82
4.44
1.78
-0.89
-3.37
-5.63
-7.83
-10.16
-12.72
-15.44
-18.16
-20.74
-23.2
-25.69
-28.31
-30.89
-32.95
-33.8
-32.84
-29.93
-25.4
-19.96
-14.36
-9.07
-4.22
0.32
4.64
8.69
12.2
14.85
16.47
17.09
16.99
16.52
15.97
15.49
15.08
14.67
14.21
13.7
13.22
12.85
12.61
12.46
12.26
11.85
11.1
9.96
8.45
6.61
4.49
2.15
-0.35
-2.86
-5.22
-7.29
-9.08
-10.77
-12.63
-14.97
-17.92
-21.34
-24.82
-27.77
-29.57
-29.72
-28.01
-24.55
-19.71
-14.05
-8.18
-2.62
2.27
6.3
9.48
11.89
13.62
14.77
15.37
15.49
15.23
14.72
14.13
13.62
13.27
13.05
12.87
12.63
12.32
12.0
11.82
11.83
11.9
11.78
11.13
9.71
7.49
4.67
1.54
-1.59
-4.56
-7.3
-9.86
-12.31
-14.69
-17.05
-19.55
-22.36
-25.61
-29.26
-32.93
-36.01
-37.78
-37.69
-35.55
-31.58
-26.32
-20.36
-14.19
-8.15
-2.42
2.81
7.35
11.01
13.65
15.34
16.27
16.69
16.85
16.92
17.01
17.22
17.6
18.12
18.71
19.19
19.39
19.24
18.76
18.12
17.45
16.82
16.17
15.36
14.2
12.56
10.39
7.74
4.73
1.52
-1.72
-4.86
-7.82
-10.62
-13.34
-16.13
-19.17
-22.59
-26.37
-30.3
-33.88
-36.49
-37.46
-36.38
-33.22
-28.37
-22.39
-15.89
-9.31
-2.95
2.96
8.17
12.39
15.45
17.32
18.19
18.29
17.87
17.1
16.11
15.05
14.08
13.34
12.9
12.7
12.62
12.6
12.57
12.5
12.25
11.61
10.39
8.52
6.14
3.59
1.23
-0.73
-2.36
-3.93
-5.8
-8.28
-11.5
-15.37
-19.61
-23.82
-27.52
-30.21
-31.41
-30.78
-28.17
-23.71
-17.85
-11.21
-4.44
1.92
7.56
12.32
16.18
19.1
21.09
22.16
22.41
22.04
21.3
20.46
19.72
19.2
18.92
18.83
18.81
18.67
18.26
17.47
16.31
14.9
13.39
11.88
10.33
8.64
6.64
4.22
1.44
-1.54
-4.5
-7.31
-9.97
-12.57
-15.26
-18.17
-21.31
-24.69
-28.25
-31.96
-35.69
-39.19
-41.99
-43.45
-42.95
-40.15
-35.15
-28.51
-20.99
-13.33
-5.98
0.91
7.33
13.23
18.36
22.35
24.91
26.01
25.93
25.17
24.23
23.44
22.94
22.64
22.46
22.28
22.08
21.85
21.59
21.23
20.72
20.03
19.14
18.07
16.79
15.25
13.36
11.1
8.47
5.6
2.6
-0.44
-3.53
-6.75
-10.19
-13.9
-17.88
-22.07
-26.33
-30.36
-33.71
-35.77
-36.03
-34.18
-30.28
-24.78
-18.27
-11.36
-4.49
2.01
7.91
12.97
16.91
19.53
20.79
20.89
20.21
19.21
18.23
17.47
16.9
16.36
15.69
14.86
13.96
13.23
12.87
12.85
12.96
12.79
11.97
10.33
7.98
5.3
2.64
0.29
-1.74
-3.61
-5.58
-7.89
-10.69
-14.02
-17.85
-22.07
-26.43
-30.52
-33.75
-35.48
-35.2
-32.72
-28.24
-22.29
-15.55
-8.63
-1.98
4.14
9.58
14.15
17.66
19.94
20.98
20.98
20.32
19.47
18.77
18.4
18.31
18.37
18.39
18.26
17.93
17.38
16.68
15.9
15.07
14.18
13.14
11.81
10.07
7.87
5.28
2.46
-0.43
-3.24
-5.97
-8.69
-11.5
-14.49
-17.7
-21.15
-24.86
-28.78
-32.7
-36.2
-38.66
-39.44
-38.07
-34.46
-28.95
-22.19
-14.89
-7.61
-0.68
5.76
11.6
16.69
20.77
23.59
25.08
25.34
24.7
23.56
22.33
21.25
20.47
19.93
19.53
19.15
18.72
18.22
17.69
17.13
16.5
15.69
14.53
12.92
10.82
8.28
5.43
2.44
-0.55
-3.39
-6.0
-8.4
-10.74
-13.28
-16.32
-20.06
-24.47
-29.12
-33.28
-36.04
-36.67
-34.79
-30.58
-24.64
-17.79
-10.81
-4.28
1.53
6.48
10.54
13.69
15.9
17.21
17.72
17.62
17.12
16.42
15.7
15.03
14.47
13.98
13.48
12.92
12.29
11.69
11.24
10.99
10.82
10.46
9.54
7.83
5.31
2.25
-0.97
-3.98
-6.63
-8.98
-11.24
-13.7
-16.54
-19.86
-23.69
-27.9
-32.24
-36.25
-39.31
-40.76
-40.09
-37.12
-32.03
-25.32
-17.68
-9.85
-2.4
4.28
10.03
14.8
18.59
21.4
23.19
23.97
23.88
23.16
22.15
21.2
20.54
20.24
20.25
20.42
20.57
20.57
20.3
19.72
18.82
17.66
16.25
14.65
12.8
10.65
8.14
5.29
2.17
-1.06
-4.24
-7.25
-10.05
-12.68
-15.31
-18.19
-21.57
-25.55
-30.01
-34.55
-38.51
-41.13
-41.75
-40.04
-36.04
-30.19
-23.13
-15.56
-8.07
-1.08
5.19
10.58
15.0
18.38
20.68
21.94
22.3
21.96
21.16
20.15
19.13
18.25
17.61
17.22
17.04
16.93
16.77
16.48
16.0
15.31
14.31
12.89
10.87
8.2
4.99
1.54
-1.75
-4.59
-6.92
-8.98
-11.16
-13.79
-17.05
-20.86
-24.94
-28.91
-32.34
-34.73
-35.63
-34.64
-31.55
-26.49
-19.9
-12.49
-5.02
1.87
7.77
12.55
16.27
19.05
21.02
22.26
22.8
22.72
22.18
21.39
20.6
19.95
19.47
19.1
18.75
18.36
18.0
17.66
17.3
16.74
15.81
14.37
12.51
10.4
8.26
6.2
4.14
1.91
-0.61
-3.46
-6.53
-9.63
-12.59
-15.35
-17.97
-20.63
-23.56
-26.89
-30.57
-34.23
-37.25
-38.9
-38.53
-35.82
-30.89
-24.24
-16.58
-8.66
-1.08
5.78
11.75
16.75
20.77
23.74
25.62
26.39
26.18
25.29
24.11
23.09
22.48
22.31
22.4
22.48
22.35
21.98
21.46
20.88
20.22
19.33
18.01
16.17
13.88
11.41
9.01
6.81
4.78
2.73
0.49
-1.98
-4.6
-7.21
-9.73
-12.13
-14.5
-16.97
-19.71
-22.83
-26.34
-30.14
-33.9
-37.09
-39.1
-39.36
-37.59
-33.84
-28.52
-22.25
-15.65
-9.21
-3.21
2.23
7.01
11.01
14.07
16.03
16.86
16.69
15.81
14.64
13.57
12.91
12.79
13.17
13.88
14.7
15.4
15.83
15.94
15.77
15.35
14.74
13.92
12.79
11.27
9.34
6.99
4.37
1.62
-1.12
-3.79
-6.4
-9.06
-11.9
-15.0
-18.39
-21.95
-25.56
-29.03
-32.17
-34.67
-36.13
-36.18
-34.5
-31.06
-26.15
-20.25
-13.97
-7.82
-2.13
2.92
7.23
10.68
13.17
14.61
15.1
14.83
14.15
13.3
12.43
11.53
10.55
9.47
8.35
7.31
6.43
5.67
4.84
3.71
2.09
-0.1
-2.72
-5.59
-8.47
-11.24
-13.94
-16.73
-19.83
-23.41
-27.47
-31.86
-36.18
-39.93
-42.55
-43.62
-42.91
-40.47
-36.61
-31.81
-26.6
-21.43
-16.56
-11.95
-7.28
-2.0
4.47
12.52
22.05
32.52
42.99
52.49
60.31
66.17
70.07
72.08
72.22
70.4
66.72
61.63
55.91
50.49
45.95
42.36
39.24
35.95
32.11
27.79
23.39
19.38
16.06
13.41
11.26
9.38
7.62
5.8
3.71
1.12
-2.13
-5.95
-10.07
-14.14
-17.91
-21.39
-24.78
-28.29
-32.01
-35.82
-39.53
-42.95
-46.05
-48.87
-51.38
-53.37
-54.43
-54.04
-51.76
-47.45
-41.28
-33.68
-25.18
-16.32
-7.58
0.59
7.76
13.54
17.61
19.83
20.33
19.46
17.72
15.7
13.85
12.46
11.6
11.17
10.98
10.82
10.55
10.13
9.55
8.82
7.97
6.96
5.81
4.49
3.02
1.39
-0.41
-2.38
-4.47
-6.59
-8.7
-10.82
-13.09
-15.67
-18.69
-22.08
-25.53
-28.53
-30.52
-31.03
-29.77
-26.77
-22.26
-16.65
