37.25
39.35
40.7
41.29
41.12
40.29
39.09
37.92
37.1
36.75
36.75
36.72
36.31
35.25
33.53
31.32
28.88
26.39
23.91
21.34
18.57
15.53
12.23
8.77
5.28
1.79
-1.73
-5.31
-8.86
-12.1
-14.57
-15.73
-15.15
-12.69
-8.53
-3.19
2.63
8.23
13.08
16.87
19.52
21.12
21.85
21.9
21.54
20.99
20.47
20.14
20.05
20.15
20.32
20.41
20.31
19.94
19.31
18.44
17.37
16.07
14.5
12.59
10.32
7.72
4.9
2.01
-0.8
-3.5
-6.17
-8.99
-12.13
-15.68
-19.46
-23.04
-25.89
-27.45
-27.36
-25.48
-21.96
-17.13
-11.44
-5.33
0.74
6.36
11.21
15.05
17.79
19.44
20.11
19.98
19.26
18.18
16.99
15.9
15.06
14.5
14.16
13.94
13.75
13.54
13.28
12.93
12.4
11.54
10.27
8.57
6.51
4.27
2.03
-0.13
-2.24
-4.45
-6.93
-9.8
-13.08
-16.68
-20.4
-23.94
-26.93
-28.96
-29.66
-28.81
-26.39
-22.62
-17.95
-12.97
-8.21
-4.11
-0.89
1.38
2.74
3.26
3.0
1.98
0.2
-2.27
-5.33
-8.72
-12.09
-15.03
-17.25
-18.66
-19.47
-20.09
-20.94
-22.28
-24.1
-26.14
-27.89
-28.78
-28.26
-26.07
-22.28
-17.46
-12.52
-8.43
-5.87
-4.91
-5.06
-5.55
-5.83
-5.8
-5.92
-6.88
-9.16
-12.77
-17.25
-21.68
-25.07
-26.41
-24.81
-19.55
-10.46
1.82
15.75
29.27
40.62
48.98
54.75
59.05
62.9
66.52
69.36
70.66
70.26
69.02
68.37
69.4
71.94
74.38
74.52
70.72
62.88
52.56
42.17
33.87
28.61
25.94
24.44
22.62
19.51
14.97
9.49
3.74
-1.69
-6.37
-10.0
-12.42
-13.62
-13.93
-13.95
-14.42
-15.88
-18.35
-21.2
-23.33
-23.53
-20.91
-15.24
-7.06
2.6
12.49
21.57
29.1
34.67
38.07
39.19
38.02
34.75
29.79
23.76
17.25
10.63
3.87
-3.34
-11.41
-20.51
-30.41
-40.41
-49.59
-57.13
-62.63
-66.3
-68.8
-70.9
-73.12
-75.55
-77.92
-79.86
-80.94
-80.68
-78.57
-74.09
-67.12
-58.09
-48.08
-38.36
-29.91
-22.92
-16.82
-10.6
-3.45
4.89
14.09
23.6
33.11
42.68
52.66
63.37
74.9
87.14
99.67
111.86
122.89
132.05
138.97
143.95
147.76
151.26
154.89
158.29
160.48
160.34
157.37
152.2
146.48
142.23
140.83
142.2
144.5
144.64
139.16
125.41
102.38
71.18
34.73
-3.16
-38.98
-70.43
-96.77
-118.42
-136.13
-150.27
-160.57
-166.48
-167.83
-165.28
-160.38
-154.98
-150.49
-147.4
-145.26
-143.17
-140.37
-136.53
-131.83
-126.52
-120.76
-114.4
-107.1
-98.57
-88.76
-77.85
-66.29
-54.62
-43.4
-33.06
-23.82
-15.73
-8.6
-2.17
3.8
9.43
14.6
19.04
22.4
24.39
24.89
24.09
22.36
20.15
17.77
15.27
12.48
9.11
4.99
0.2
-4.91
-9.88
-14.33
-18.14
-21.44
-24.53
-27.71
-31.15
-34.81
-38.49
-41.92
-44.78
-46.79
-47.69
-47.26
-45.39
-42.11
-37.63
-32.32
-26.61
-20.9
-15.4
-10.2
-5.3
-0.71
3.48
7.11
10.03
12.24
13.85
15.08
16.14
17.13
18.03
18.74
19.24
19.57
19.84
20.15
20.45
20.6
20.41
19.76
18.67
17.25
15.65
13.92
12.05
9.96
7.59
5.02
2.37
-0.21
-2.64
-4.92
-7.13
-9.38
-11.73
-14.22
-16.85
-19.58
-22.3
-24.8
-26.76
-27.81
-27.63
-26.03
-23.03
-18.89
-14.02
-8.87
-3.9
0.63
4.58
7.91
10.65
12.86
14.58
15.84
16.67
17.17
17.44
17.61
17.79
18.04
18.37
18.72
19.09
19.41
19.66
19.76
19.62
19.17
18.45
17.55
16.59
15.66
14.68
13.49
11.89
9.8
7.3
4.64
2.07
-0.23
-2.25
-4.17
-6.27
-8.86
-12.15
-16.17
-20.7
-25.18
-28.89
-31.07
-31.21
-29.21
-25.42
-20.46
-15.0
-9.54
-4.29
0.66
5.23
9.27
12.48
14.64
15.7
15.8
15.24
14.4
13.53
12.82
12.35
12.13
12.18
12.45
12.88
13.33
13.67
13.8
13.65
13.21
12.45
11.34
9.85
8.02
5.94
3.74
1.54
-0.59
-2.66
-4.78
-7.08
-9.73
-12.82
-16.32
-20.08
-23.75
-26.91
-29.09
-29.86
-28.98
-26.36
-22.16
-16.7
-10.4
-3.77
2.69
8.6
13.66
17.71
20.75
22.85
24.16
24.83
25.08
25.11
25.14
25.35
25.84
26.54
27.22
27.58
27.33
26.38
24.81
22.87
20.83
18.82
16.81
14.61
11.96
8.77
5.1
1.22
-2.54
-5.96
-8.96
-11.64
-14.18
-16.8
-19.6
-22.6
-25.72
-28.78
-31.51
-33.55
-34.5
-33.98
-31.78
-27.95
-22.83
-16.95
-10.88
-5.06
0.28
5.05
9.23
12.72
15.38
17.07
17.78
17.67
17.05
16.25
15.5
14.92
14.5
14.21
14.03
13.92
13.84
13.72
13.52
13.19
12.76
12.22
11.54
10.68
9.55
8.08
6.28
4.19
1.85
-0.66
-3.29
-5.94
-8.53
-11.02
-13.49
-16.1
-19.03
-22.33
-25.82
-29.1
-31.55
-32.57
-31.7
-28.82
-24.17
-18.29
-11.9
-5.62
0.08
4.98
9.06
12.36
14.97
16.92
18.26
19.07
19.43
19.46
19.27
18.97
18.66
18.36
18.1
17.84
17.53
17.11
16.55
15.8
14.79
13.4
11.56
9.27
6.65
3.88
1.13
-1.5
-4.08
-6.76
-9.7
-13.01
-16.69
-20.68
-24.96
-29.56
-34.56
-40.01
-45.83
-51.76
-57.42
-62.37
-66.15
-68.33
-68.49
-66.21
-61.2
-53.47
-43.49
-32.16
-20.61
-9.87
-0.59
7.01
12.87
16.94
18.92
18.38
15.01
8.83
0.27
-9.95
-21.03
-32.21
-42.89
-52.6
-61.06
-68.25
-74.45
-80.18
-86.0
-92.22
-98.78
-105.22
-110.99
-115.67
-119.26
-122.29
-125.58
-130.01
-136.0
-143.28
-150.87
-157.4
-161.52
-162.25
-158.97
-151.29
-138.91
-121.63
-99.44
-72.48
-40.88
-4.51
36.99
83.58
134.0
185.1
232.1
269.86
294.76
306.13
306.37
299.75
290.59
281.68
273.76
266.09
257.47
247.12
234.99
221.59
207.52
193.26
178.95
164.59
150.14
135.62
121.17
107.02
93.48
80.86
69.56
59.93
52.31
46.95
43.9
42.91
43.39
44.5
45.4
45.5
44.7
43.4
42.34
42.33
43.94
47.27
51.98
57.27
62.2
65.9
67.87
68.09
66.78
64.19
60.24
54.47
46.22
35.03
20.91
4.37
-13.81
-32.93
-52.51
-72.28
-91.85
-110.46
-126.9
-139.86
-148.35
-152.11
-151.7
-148.26
-143.02
-136.85
-130.06
-122.69
-114.89
-107.29
-100.88
-96.51
-94.36
-93.87
-94.15
-94.62
-95.33
-96.56
-98.14
-98.97
-97.34
-91.87
-82.5
-70.68
-58.69
-48.24
-39.47
-31.06
-21.19
-8.85
5.49
20.2
33.4
43.96
51.81
57.63
62.17
65.75
68.11
68.7
67.07
63.32
58.09
52.43
47.31
43.34
40.55
38.48
36.45
33.91
30.68
26.98
23.29
20.0
17.3
15.04
12.86
10.4
7.55
4.39
1.24
-1.61
-3.98
-5.9
-7.54
-9.18
-11.05
-13.22
-15.64
-18.1
-20.34
-22.12
-23.22
-23.49
-22.84
-21.23
-18.73
-15.5
-11.8
-7.96
-4.3
-1.1
1.48
3.38
4.62
5.29
5.51
5.44
5.21
4.92
4.61
4.26
3.83
3.33
2.77
2.26
1.87
1.63
1.5
1.41
1.24
0.89
0.31
-0.5
-1.5
-2.61
-3.74
-4.86
-5.93
-6.98
-8.05
-9.18
-10.39
-11.65
-12.92
-14.19
-15.47
-16.83
-18.27
-19.68
-20.81
-21.33
-20.95
-19.58
-17.32
-14.42
-11.14
-7.7
-4.27
-1.0
1.91
4.23
5.74
6.35
6.13
5.32
4.21
3.08
2.09
1.3
0.71
0.19
-0.37
-1.12
-2.15
-3.48
-5.05
-6.75
-8.43
-9.99
-11.42
-12.8
-14.28
-16.03
-18.12
-20.54
-23.17
-25.86
-28.53
-31.14
-33.63
-35.99
-38.15
-40.05
-41.7
-43.09
-44.18
-44.87
-44.97
-44.2
-42.37
-39.33
-35.15
-30.12
-24.71
-19.52
-15.08
-11.75
-9.6
-8.38
-7.73
-7.32
-6.84
-5.88
-3.68
0.72
7.92
17.47
27.7
36.32
41.6
43.3
42.68
41.52
40.77
39.76
36.74
30.07
19.5
6.57
-6.18
-16.45
-23.22
-26.74
-27.98
-27.94
-27.31
-26.74
-26.95
-28.54
-31.19
-33.1
-31.11
-21.98
-4.07
21.39
50.36
77.53
98.48
111.6
118.34
121.93
125.04
128.07
128.88
124.29
112.28
93.48
70.99
48.91
30.39
16.62
7.0
0.34
-3.93
-5.27
-2.46
5.24
17.29
31.83
46.32
58.71
68.14
75.19
81.42
88.63
98.15
110.33
124.44
138.92
151.74
160.83
164.6
162.19
153.49
139.03
119.49
95.54
67.78
37.27
5.88
-23.7
-48.79
-67.71
-80.59
-89.25
-96.02
-102.37
-107.99
-111.07
-109.55
-102.51
-90.85
-77.09
-64.38
-55.41
-51.56
-52.64
-57.18
-62.89
-67.52
-69.71
-69.36
-67.58
-66.12
-66.61
-69.77
-75.26
-82.02
-88.86
-94.99
-100.01
-103.79
-106.14
-106.91
-106.31
-105.08
-104.38
-105.26
-107.94
-111.44
-113.86
-113.09
-107.79
-97.91
-84.56
-69.33
-53.61
-38.15
-23.18
-9.04
3.75
14.45
22.43
27.46
29.78
29.97
28.52
25.73
21.64
16.27
9.89
3.07
-3.37
-8.65
-12.29
-14.37
-15.38
-16.04
-16.93
-18.29
-20.0
-21.72
-23.13
-24.04
-24.52
-24.79
-25.14
-25.81
-26.97
-28.65
-30.76
-33.08
-35.25
-36.78
-37.18
-36.04
-33.21
-28.8
-23.21
-16.94
-10.4
-3.86
2.66
9.18
15.69
22.04
28.0
33.25
37.52
40.58
42.28
42.5
41.29
38.86
35.66
32.22
29.09
26.6
24.8
23.45
22.14
20.48
18.2
15.24
11.74
7.97
4.21
0.64
-2.72
-6.03
-9.59
-13.62
-18.2
-23.16
-28.14
-32.57
-35.88
-37.5
-37.05
-34.33
-29.44
-22.78
-14.95
-6.66
1.46
8.88
15.23
20.21
23.65
25.53
26.05
25.69
24.99
24.4
24.1
24.02
23.93
23.66
23.22
22.75
22.39
22.15
21.89
21.41
20.6
19.42
17.94
16.19
14.13
11.69
8.85
5.75
2.63
-0.28
-2.94
-5.55
-8.41
-11.77
-15.52
-19.14
-21.79
-22.65
-21.17
-17.28
-11.39
-4.17
3.67
11.61
19.25
26.24
32.22
36.76
39.52
40.39
39.57
37.54
34.9
32.2
29.8
27.81
26.19
24.84
23.68
22.74
22.11
21.85
21.95
22.23
22.4
22.16
21.27
19.69
17.55
15.01
12.23
9.25
6.03
2.5
-1.32
-5.28
-9.2
-12.96
-16.56
-20.0
-23.16
-25.71
-27.14
-26.96
-24.95
-21.26
-16.37
-10.88
-5.23
0.33
5.73
10.88
15.57
19.49
22.38
24.08
24.69
24.44
23.66
22.71
21.9
21.43
21.4
21.74
22.25
22.74
23.06
23.16
23.06
22.77
22.18
21.13
19.52
17.4
14.98
12.58
10.52
8.88
7.55
6.25
4.66
2.56
-0.08
-3.14
-6.45
-9.79
-12.92
-15.47
-16.99
-17.07
-15.45
-12.22
-7.82
-2.83
2.22
7.06
11.69
16.24
20.74
24.98
28.45
30.58
30.92
29.44
26.59
23.19
20.04
17.58
15.76
14.15
12.33
10.17
7.93
6.06
4.79
4.09
3.67
3.31
3.01
2.98
3.3
3.74
3.77
2.89
1.02
-1.35
-3.43
-4.64
-4.95
-4.94
-5.4
-6.85
-9.36
-12.55
-15.92
-19.19
-22.47
-26.01
-30.0
-34.25
-38.2
-41.07
-42.16
-41.18
-38.36
-34.32
-29.87
-25.67
-22.1
-19.17
-16.71
-14.52
-12.57
-10.95
-9.79
-9.13
-8.88
-8.87
-8.99
-9.19
-9.47
-9.79
-9.99
-9.82
-9.0
-7.36
-4.94
-1.97
1.19
4.12
6.45
7.94
8.52
8.33
7.68
6.95
6.41
6.17
6.14
6.14
5.93
5.46
4.7
3.73
2.64
1.51
0.4
-0.65
-1.69
-2.85
-4.32
-6.21
-8.49
-10.88
-12.97
-14.28
-14.47
-13.4
-11.17
-8.04
-4.37
-0.54
3.14
6.42
9.19
11.46
13.25
14.43
14.64
13.36
10.08
4.77
-2.04
-9.27
-15.82
-21.16
-25.67
-30.5
-37.05
-46.41
-59.0
-74.61
-92.51
-111.36
-129.13
-143.04
-150.13
-148.12
-136.53
-117.23
-94.14
-72.07
-55.14
-45.66
-43.73
-47.8
-55.56
-64.82
-73.93
-81.97
-88.51
-93.45
-96.84
-98.79
-99.44
-98.78
-96.42
-91.34
-81.86
-66.14
-42.96
-12.64
22.58
58.97
92.44
119.91
140.35
154.75
165.29
173.9
181.29
186.73
188.88
186.85
181.01
173.0
164.95
158.52
154.19
151.19
148.18
144.04
138.53
132.31
126.56
122.2
119.45
117.59
115.36
111.54
105.44
97.25
87.83
78.38
69.84
62.64
56.64
51.3
45.88
39.64
31.79
21.62
8.54
-7.64
-26.56
-47.22
-68.23
-88.02
-105.2
-118.65
-127.58
-131.49
-130.31
-124.49
-115.17
-103.96
-92.62
-82.51
-74.23
-67.64
-62.19
-57.34
-52.84
-48.72
-45.06
-41.76
-38.5
-34.89
-30.67
-25.82
-20.61
-15.43
-10.68
-6.68
-3.63
-1.6
-0.49
-0.08
-0.05
-0.08
0.04
0.35
0.78
1.16
1.33
1.18
0.65
-0.29
-1.6
-3.22
-5.07
-7.11
-9.29
-11.72
-14.61
-18.18
-22.55
-27.56
-32.73
-37.38
-40.75
-42.36
-42.1
-40.23
-37.25
-33.65
-29.77
-25.73
-21.6
-17.41
-13.29
-9.37
-5.8
-2.68
-0.05
2.09
3.8
5.2
6.43
7.62
8.82
9.96
10.92
11.59
12.01
12.31
12.72
13.44
14.52
15.93
17.58
19.41
21.45
23.73
26.27
29.03
31.89
34.68
37.21
39.24
40.51
40.75
39.81
37.65
34.48
30.61
26.45
22.36
18.53
14.89
11.11
6.78
1.6
-4.32
-10.48
-16.04
-20.22
-22.56
-23.07
-22.11
-20.14
-17.54
-14.55
-11.46
-8.69
-6.78
-6.09
-6.52
-7.47
-8.03
-7.4
-5.33
-2.15
1.41
4.63
7.12
8.93
10.39
11.85
13.51
15.29
16.99
18.32
19.13
19.39
19.19
18.7
18.14
17.69
17.41
17.33
17.4
17.57
17.74
17.72
17.23
15.95
13.64
10.25
6.07
1.64
-2.37
-5.46
-7.52
-8.88
-10.14
-11.9
-14.49
-17.83
-21.58
-25.33
-28.88
-32.3
-35.85
-39.79
-44.17
-48.8
-53.19
-56.75
-58.86
-58.98
-56.75
-52.01
-44.96
-36.29
-27.03
-18.43
-11.47
-6.49
-3.0
0.05
3.82
8.83
14.74
20.55
25.18
28.1
29.63
30.64
32.05
34.21
36.82
39.12
40.4
40.4
39.25
37.38
35.2
32.89
30.41
27.65
24.58
21.37
18.45
16.45
16.0
17.51
20.86
25.39
30.06
33.85
36.12
36.8
36.22
34.8
32.79
30.13
26.69
22.46
17.83
13.47
10.17
8.4
8.14
8.82
9.58
9.65
8.64
6.7
4.39
2.34
1.01
0.39
0.16
-0.13
-0.79
-1.82
-2.98
-4.02
-4.79
-5.37
-5.98
-6.91
-8.33
-10.28
-12.67
-15.23
-17.55
-19.14
-19.53
-18.37
-15.63
-11.61
-6.79
-1.8
2.92
7.06
10.51
13.2
15.07
16.01
15.95
14.86
12.85
10.12
7.0
3.86
1.03
-1.19
-2.71
-3.58
-3.98
-4.03
-3.75
-3.04
-1.83
-0.28
1.17
1.94
1.61
0.11
-2.23
-4.92
-7.67
-10.64
-14.4
-19.56
-26.42
-34.73
-43.68
-52.3
-59.81
-65.83
-70.38
-73.6
-75.46
-75.68
-73.83
-69.58
-62.97
-54.5
-44.93
-35.01
-25.2
-15.62
-6.2
3.07
11.95
19.97
26.68
31.87
35.71
38.56
40.74
42.32
43.14
43.02
41.98
40.38
38.73
37.47
36.75
36.44
36.3
36.19
36.23
36.65
37.58
38.82
39.86
40.08
39.03
36.71
33.53
30.18
27.27
25.09
23.53
22.18
20.59
18.45
15.68
12.38
8.74
5.0
1.42
-1.68
-3.93
-5.02
-4.81
-3.41
-1.19
1.37
3.78
5.71
6.98
7.55
7.44
6.69
5.47
3.99
2.52
1.34
0.64
0.44
0.65
1.07
1.5
1.82
1.95
1.82
1.42
0.73
-0.2
-1.29
-2.4
-3.45
-4.42
-5.38
-6.44
-7.65
-9.01
-10.4
-11.65
-12.61
-13.25
-13.65
-13.95
-14.33
-14.92
-15.81
-16.96
-18.31
-19.64
-20.71
-21.2
-20.82
-19.37
-16.85
-13.44
-9.52
-5.51
-1.82
1.31
3.79
5.71
7.24
8.48
9.51
10.25
10.62
10.64
10.43
10.2
10.14
10.3
10.61
10.92
11.11
11.17
11.14
11.02
10.71
10.09
9.05
7.67
6.19
4.88
3.91
3.2
2.46
1.32
-0.48
-2.95
-5.89
-8.96
-11.84
-14.37
-16.53
-18.44
-20.24
-22.07
-23.99
-26.0
-28.01
-29.79
-31.0
-31.27
-30.29
-27.98
-24.53
-20.39
-16.07
-12.0
-8.42
-5.29
-2.5
0.1
2.53
4.69
6.35
7.34
7.56
7.09
6.14
5.02
3.99
3.22
2.74
2.47
2.31
2.14
1.95
1.79
1.72
1.77
1.92
2.11
2.25
2.28
2.21
2.07
1.87
1.58
1.13
0.4
-0.62
-1.9
-3.32
-4.79
-6.31
-7.96
-9.84
-11.9
-13.93
-15.61
-16.63
-16.85
-16.32
-15.2
-13.66
-11.81
-9.7
-7.44
-5.19
-3.16
-1.5
-0.27
0.58
1.07
1.19
0.89
0.2
-0.73
-1.58
-2.04
-1.89
-1.14
0.03
1.36
2.64
3.74
4.58
5.12
5.37
5.41
5.35
5.29
5.23
5.04
4.48
3.41
1.86
0.05
-1.71
-3.18
-4.28
-5.14
-5.94
-6.88
-8.03
-9.41
-10.99
-12.7
-14.37
-15.72
-16.34
-15.79
-13.74
-10.16
-5.34
0.11
5.51
10.28
14.25
17.6
20.78
24.16
27.77
31.14
33.48
34.0
32.37
28.92
24.5
20.13
16.52
13.89
12.01
10.52
9.11
7.63
5.96
3.93
1.36
-1.79
-5.29
-8.64
-11.34
-13.18
-14.35
-15.36
-16.69
-18.53
-20.67
-22.67
-24.19
-25.27
-26.28
-27.81
-30.33
-33.97
-38.41
-43.04
-47.19
-50.26
-51.9
-51.88
-50.08
-46.43
-41.0
-34.09
-26.24
-18.16
-10.51
-3.8
1.76
6.13
9.4
11.72
13.38
14.76
16.29
18.22
20.55
22.97
25.06
26.59
27.56
28.25
28.97
29.93
31.17
32.69
34.43
36.21
37.57
37.69
35.71
31.15
24.38
16.54
9.17
3.44
-0.26
-2.39
-3.74
-4.86
-5.82
-6.31
-6.13
-5.5
-5.11
-5.72
-7.68
-10.66
-13.68
-15.57
-15.41
-12.92
-8.49
-2.97
2.68
7.77
12.0
15.5
18.42
20.81
22.41
22.82
21.71
19.1
15.39
11.17
6.99
3.22
0.07
-2.28
-3.59
-3.69
-2.7
-1.15
0.14
0.43
-0.54
-2.37
-4.31
-5.63
-6.05
-5.85
-5.56
-5.65
-6.27
-7.29
-8.54
-10.02
-11.93
-14.55
-18.0
-22.2
-26.89
-31.8
-36.66
-41.13
-44.68
-46.61
-46.19
-43.04
-37.41
-30.14
-22.47
-15.51
-9.88
-5.55
-2.1
0.89
3.54
5.63
6.82
7.06
6.59
5.93
5.56
5.73
6.32
7.09
7.75
8.2
8.47
8.67
8.83
8.9
8.69
8.05
6.87
5.29
3.6
2.25
1.62
1.77
2.37
2.77
2.36
0.81
-1.66
-4.5
-7.13
-9.32
-11.26
-13.37
-15.99
-19.13
-22.46
-25.44
-27.61
-28.69
-28.56
-27.24
-24.76
-21.19
-16.74
-11.68
-6.39
-1.17
3.81
8.52
13.01
17.3
21.26
24.64
27.17
28.62
28.95
28.41
27.45
26.5
25.79
25.13
24.05
22.11
19.23
15.9
12.88
10.89
10.09
10.08
10.13
9.73
8.95
8.4
8.87
10.69
13.42
16.06
17.5
17.21
15.53
13.49
12.22
12.4
13.8
15.48
16.17
14.98
11.77
7.23
2.5
-1.24
-3.23
-3.3
-1.76
0.74
3.49
5.92
7.67
8.65
8.94
8.7
8.01
6.88
5.28
3.27
1.15
-0.63
-1.68
-1.83
-1.29
-0.52
0.06
0.28
0.27
0.35
0.73
1.38
1.97
2.18
1.78
0.84
-0.49
-2.03
-3.76
-5.78
-8.21
-11.05
-14.18
-17.41
-20.67
-24.01
-27.61
-31.64
-36.16
-41.06
-46.1
-50.93
-55.12
-58.22
-59.88
-59.87
-58.32
-55.68
-52.6
-49.74
-47.55
-46.21
-45.7
-45.98
-47.09
-49.13
-52.13
-55.88
-59.96
-63.91
-67.33
-69.9
-71.33
-71.14
-68.75
-63.84
-56.66
-48.38
-40.86
-36.05
-35.14
-38.1
-43.65
-49.84
-54.86
-57.61
-57.83
-55.87
-52.28
-47.5
-41.78
-35.07
-27.06
-17.1
-4.31
12.07
32.02
54.25
76.22
94.85
107.74
114.08
114.86
112.24
108.42
104.95
102.5
101.37
101.78
104.0
107.91
112.73
116.97
118.98
117.73
113.19
106.36
98.51
90.68
83.35
76.56
70.27
64.58
59.87
56.56
54.97
54.97
55.94
57.0
57.38
56.88
55.95
55.41
55.81
57.04
58.18
58.06
55.85
51.57
46.0
40.21
35.0
30.52
26.38
22.03
17.09
11.6
5.75
-0.02
-5.43
-10.31
-14.72
-18.83
-22.86
-26.81
-30.42
-33.18
-34.54
-34.18
-32.19
-29.03
-25.33
-21.61
-18.14
-14.88
-11.66
-8.37
-5.1
-2.16
0.06
1.28
1.48
0.89
-0.07
-1.02
-1.77
-2.3
-2.69
-3.0
-3.18
-3.14
-2.84
-2.38
-2.01
-1.99
-2.47
-3.41
-4.67
-6.0
-7.29
-8.51
-9.72
-10.95
-12.23
-13.53
-14.89
-16.41
-18.18
-20.19
-22.26
-23.95
-24.77
-24.34
-22.56
-19.67
-16.06
-12.17
-8.32
-4.66
-1.28
1.66
3.93
5.25
5.45
4.61
3.08
1.37
0.03
-0.62
-0.54
0.05
0.73
1.18
1.22
0.9
0.44
0.07
-0.15
-0.28
-0.57
-1.21
-2.38
-4.06
-6.16
-8.48
-10.85
-13.18
-15.41
-17.6
-19.82
-22.15
-24.61
-27.17
-29.7
-32.01
-33.87
-35.0
-35.14
-34.1
-31.81
-28.37
-24.13
-19.53
-15.02
-10.9
-7.25
-4.02
-1.13
1.39
3.38
4.63
5.03
4.7
3.94
3.14
2.59
2.41
2.42
2.32
1.8
0.71
-0.88
-2.72
-4.55
-6.24
-7.84
-9.54
-11.57
-14.05
-16.95
-20.18
-23.57
-26.96
-30.14
-32.78
-34.51
-34.98
-34.09
-32.09
-29.65
-27.57
-26.5
-26.56
-27.32
-27.87
-27.21
-24.58
-19.71
-12.81
-4.38
4.93
14.42
23.3
30.67
35.56
37.24
35.54
31.05
25.03
18.99
14.2
11.24
10.03
10.02
10.62
11.49
12.63
14.19
16.18
18.41
20.46
21.9
22.53
22.45
21.94
21.26
20.55
19.75
18.82
17.86
17.1
16.86
17.33
18.38
19.63
20.62
20.93
20.35
18.91
16.8
14.27
11.64
9.19
7.28
6.22
6.22
7.33
9.38
11.96
14.6
16.88
18.53
19.48
19.85
19.75
19.32
18.58
17.51
16.14
14.52
12.77
10.98
9.23
7.55
6.02
4.71
3.69
3.01
2.63
2.45
2.38
2.32
2.24
2.15
2.0
1.7
1.11
0.09
-1.46
-3.54
-6.02
-8.7
-11.26
-13.37
-14.84
-15.69
-16.13
-16.53
-17.26
-18.51
-20.23
-22.12
-23.73
-24.61
-24.41
-23.0
-20.42
-16.91
-12.79
-8.41
-4.14
-0.21
3.2
6.04
8.32
10.05
11.23
11.84
11.88
11.46
10.79
10.16
9.8
9.83
10.22
10.85
11.57
12.27
12.87
13.25
13.2
12.52
11.18
9.33
7.39
5.81
4.9
4.64
4.69
4.62
4.08
3.02
1.65
0.32
-0.67
-1.23
-1.51
-1.8
-2.4
-3.49
-5.06
-6.87
-8.5
-9.47
-9.4
-8.01
-5.29
-1.38
3.52
9.23
15.6
22.48
29.65
36.77
43.42
49.3
54.28
58.53
62.44
66.42
70.68
75.09
79.19
82.46
84.63
85.83
86.48
86.96
87.31
87.19
86.22
84.43
82.44
81.11
80.85
81.13
80.79
79.04
76.52
75.39
78.17
85.76
96.12
104.4
104.93
93.77
70.52
38.09
0.91
-37.21
-74.13
-108.96
-140.68
-167.22
-185.95
-195.17
-195.64
-190.55
-184.05
-179.08
-176.12
-173.44
-168.8
-161.21
-151.58
-141.99
-134.08
-127.93
-121.94
-114.0
-103.08
-89.98
-76.99
-66.59
-60.02
-56.71
-54.77
-52.17
-47.96
-42.61
