-25.62
-24.42
-22.22
-19.1
-15.13
-10.51
-5.58
-0.83
3.23
6.21
8.03
8.92
9.28
9.49
9.79
10.17
10.52
10.7
10.67
10.45
10.14
9.86
9.75
10.02
10.84
12.28
14.17
16.17
17.83
18.8
18.92
18.28
17.12
15.63
13.89
11.81
9.3
6.36
3.17
0.02
-2.83
-5.32
-7.64
-10.1
-12.96
-16.23
-19.6
-22.52
-24.44
-24.98
-24.03
-21.74
-18.45
-14.48
-10.14
-5.73
-1.48
2.38
5.74
8.52
10.69
12.27
13.29
13.85
14.1
14.24
14.41
14.68
15.01
15.28
15.39
15.29
15.01
14.64
14.25
13.83
13.32
12.6
11.64
10.52
9.35
8.23
7.16
6.05
4.74
3.14
1.26
-0.79
-2.89
-4.96
-7.05
-9.29
-11.82
-14.71
-17.89
-21.18
-24.29
-26.85
-28.44
-28.72
-27.52
-24.9
-21.16
-16.72
-12.02
-7.39
-3.08
0.76
4.08
6.86
9.1
10.83
12.06
12.88
13.39
13.73
14.06
14.51
15.07
15.7
16.25
16.6
16.62
16.3
15.7
14.98
14.27
13.66
13.12
12.51
11.63
10.36
8.72
6.85
4.93
3.01
1.04
-1.15
-3.64
-6.31
-8.89
-11.1
-12.89
-14.47
-16.25
-18.58
-21.53
-24.87
-28.14
-30.84
-32.56
-33.06
-32.23
-30.12
-26.91
-22.95
-18.72
-14.68
-11.21
-8.48
-6.53
-5.34
-4.91
-5.22
-6.26
-7.9
-9.93
-12.21
-14.62
-17.24
-20.13
-23.27
-26.49
-29.57
-32.35
-34.94
-37.69
-41.11
-45.57
-51.12
-57.47
-64.19
-71.0
-77.8
-84.58
-91.14
-96.89
-100.96
-102.53
-101.03
-96.26
-88.12
-76.32
-60.37
-39.93
-15.36
11.76
38.84
62.9
81.6
94.05
100.84
103.46
103.47
101.83
98.76
94.24
88.44
82.08
76.18
71.69
68.96
67.67
67.06
66.33
65.0
63.07
60.81
58.58
56.59
54.81
53.07
51.13
48.83
46.16
43.3
40.52
38.05
35.94
34.04
32.09
29.83
27.15
24.1
20.87
17.65
14.6
11.81
9.33
7.16
5.28
3.56
1.84
-0.11
-2.43
-5.14
-8.14
-11.26
-14.38
-17.37
-20.1
-22.33
-23.71
-23.91
-22.72
-20.17
-16.58
-12.41
-8.14
-4.1
-0.48
2.65
5.26
7.28
8.67
9.44
9.66
9.45
8.91
8.22
7.55
7.15
7.18
7.68
8.5
9.29
9.71
9.59
9.0
8.19
7.45
6.88
6.42
5.87
5.05
3.93
2.63
1.3
-0.01
-1.4
-3.03
-5.01
-7.26
-9.51
-11.5
-13.08
-14.33
-15.57
-17.16
-19.37
-22.17
-25.27
-28.12
-30.12
-30.79
-29.87
-27.41
-23.71
-19.28
-14.63
-10.21
-6.29
-2.94
-0.15
2.13
3.93
5.24
6.07
6.51
6.7
6.85
7.12
7.59
8.21
8.84
9.33
9.6
9.6
9.33
8.82
8.12
7.27
6.36
5.47
4.64
3.86
3.01
2.02
0.84
-0.49
-1.85
-3.11
-4.24
-5.24
-6.23
-7.36
-8.76
-10.46
-12.45
-14.68
-17.04
-19.46
-21.79
-23.84
-25.34
-26.01
-25.58
-23.96
-21.23
-17.65
-13.61
-9.45
-5.48
-1.89
1.15
3.53
5.18
6.14
6.53
6.62
6.68
6.88
7.22
7.58
7.81
7.83
7.77
7.88
8.39
9.32
10.47
11.44
11.87
11.59
10.68
9.4
8.01
6.66
5.35
3.97
2.43
0.67
-1.26
-3.31
-5.39
-7.44
-9.47
-11.52
-13.68
-16.08
-18.71
-21.42
-23.88
-25.65
-26.33
-25.68
-23.68
-20.5
-16.46
-11.87
-7.09
-2.47
1.6
4.83
7.03
8.25
8.71
8.73
8.64
8.66
8.95
9.63
10.73
12.13
13.61
14.82
15.44
15.37
14.69
13.68
12.63
11.69
10.79
9.79
8.47
6.74
4.56
2.02
-0.78
-3.67
-6.47
-9.03
-11.33
-13.45
-15.61
-18.04
-20.93
-24.3
-28.12
-32.21
-36.43
-40.58
-44.42
-47.68
-50.05
-51.22
-51.06
-49.62
-47.16
-44.19
-41.34
-39.23
-38.38
-39.13
-41.56
-45.41
-50.25
-55.53
-60.89
-66.31
-72.14
-79.03
-87.56
-97.97
-109.99
-122.94
-136.09
-149.0
-161.82
-175.31
-190.57
-208.79
-230.94
-257.39
-287.52
-319.24
-348.85
-371.59
-382.63
-378.38
-357.56
-321.43
-273.19
-216.8
-155.94
-93.73
-32.93
23.59
72.97
113.15
143.88
167.21
187.0
207.56
232.16
262.02
296.14
331.68
364.72
391.24
408.06
413.75
409.2
397.51
383.07
370.2
361.71
358.25
358.53
360.12
360.4
357.11
348.47
333.22
310.76
281.44
246.78
209.39
172.44
138.92
110.88
88.99
72.34
58.88
46.09
32.11
16.42
0.12
-14.7
-26.02
-32.93
-36.22
-38.09
-41.22
-47.69
-58.14
-71.47
-85.28
-96.68
-103.23
-103.69
-98.29
-88.57
-76.8
-65.39
-56.21
-50.34
-48.03
-48.86
-51.98
-56.33
-60.75
-64.17
-65.74
-65.04
-62.15
-57.67
-52.5
-47.59
-43.63
-40.88
-39.13
-37.84
-36.42
-34.45
-31.85
-28.85
-25.88
-23.27
-21.2
-19.66
-18.51
-17.66
-17.15
-17.09
-17.62
-18.8
-20.54
-22.67
-25.0
-27.38
-29.76
-32.14
-34.57
-37.1
-39.78
-42.63
-45.54
-48.27
-50.35
-51.25
-50.46
-47.69
-43.02
-36.89
-29.97
-23.04
-16.78
-11.64
-7.75
-4.98
-2.94
-1.14
0.82
3.21
6.01
8.99
11.85
14.31
16.17
17.39
18.01
18.15
17.95
17.54
17.06
16.62
16.28
15.98
15.63
15.02
13.96
12.38
10.27
7.79
5.13
2.49
-0.01
-2.37
-4.77
-7.43
-10.6
-14.39
-18.64
-22.9
-26.5
-28.72
-29.03
-27.28
-23.74
-18.95
-13.5
-7.87
-2.33
2.98
7.99
12.52
16.37
19.35
21.37
22.47
22.84
22.75
22.45
22.18
22.08
22.18
22.41
22.65
22.74
22.56
22.06
21.26
20.23
19.07
17.83
16.52
15.09
13.48
11.66
9.66
7.58
5.58
3.75
2.08
0.47
-1.25
-3.22
-5.59
-8.45
-11.81
-15.58
-19.46
-22.94
-25.4
-26.34
-25.44
-22.76
-18.63
-13.53
-7.97
-2.33
3.09
8.06
12.45
16.14
19.05
21.17
22.49
23.06
22.98
22.47
21.8
21.26
20.99
21.0
21.19
21.44
21.65
21.8
21.84
21.66
21.04
19.8
17.88
15.41
12.61
9.74
6.92
4.15
1.36
-1.46
-4.22
-6.75
-8.97
-10.97
-12.97
-15.28
-18.06
-21.26
-24.51
-27.24
-28.82
-28.79
-27.0
-23.61
-19.04
-13.84
-8.47
-3.22
1.72
6.22
10.13
13.27
15.5
16.82
17.46
17.68
17.75
17.78
17.71
17.45
16.92
16.21
15.45
14.81
14.34
14.03
13.74
13.37
12.79
11.95
10.73
9.1
7.08
4.8
2.48
0.32
-1.55
-3.16
-4.7
-6.4
-8.5
-11.11
-14.22
-17.6
-20.84
-23.41
-24.77
-24.56
-22.66
-19.33
-15.04
-10.39
-5.89
-1.87
1.52
4.29
6.49
8.19
9.45
10.37
11.05
11.56
11.96
12.22
12.3
12.16
11.85
11.47
11.15
10.97
10.88
10.74
10.34
9.52
8.22
6.49
4.44
2.21
-0.1
-2.39
-4.54
-6.47
-8.19
-9.81
-11.61
-13.83
-16.55
-19.52
-22.21
-23.99
-24.36
-23.13
-20.46
-16.72
-12.33
-7.68
-3.03
1.35
5.21
8.35
10.63
12.03
12.68
12.8
12.63
12.41
12.31
12.4
12.63
12.91
13.12
13.23
13.27
13.36
13.56
13.84
13.98
13.74
12.87
11.34
9.27
6.9
4.49
2.21
0.12
-1.8
-3.61
-5.47
-7.57
-10.13
-13.35
-17.28
-21.74
-26.32
-30.45
-33.56
-35.22
-35.21
-33.51
-30.33
-26.03
-21.06
-16.0
-11.33
-7.42
-4.41
-2.28
-0.9
-0.15
0.0
-0.44
-1.4
-2.72
-4.16
-5.49
-6.53
-7.23
-7.62
-7.81
-7.98
-8.33
-9.09
-10.45
-12.46
-15.02
-17.85
-20.68
-23.28
-25.56
-27.59
-29.51
-31.5
-33.7
-36.08
-38.48
-40.51
-41.62
-41.17
-38.65
-33.83
-26.87
-18.25
-8.66
1.18
10.65
19.27
26.64
32.49
36.67
39.24
40.49
40.98
41.28
41.86
42.86
44.13
45.38
46.41
47.18
47.87
48.54
49.13
49.43
49.28
48.65
47.77
46.79
45.73
44.28
41.97
38.48
33.9
28.72
23.59
19.0
15.08
11.57
8.05
4.18
-0.15
-4.78
-9.38
-13.65
-17.31
-20.27
-22.57
-24.27
-25.37
-25.78
-25.37
-24.05
-21.94
-19.34
-16.7
-14.46
-12.92
-12.1
-11.78
-11.63
-11.35
-10.79
-9.97
-9.05
-8.17
-7.41
-6.78
-6.2
-5.67
-5.22
-4.99
-5.05
-5.45
-6.12
-6.95
-7.84
-8.73
-9.63
-10.62
-11.83
-13.39
-15.43
-17.98
-20.96
-24.15
-27.28
-30.05
-32.23
-33.57
-33.9
-33.05
-30.92
-27.6
-23.37
-18.67
-13.99
-9.73
-6.11
-3.17
-0.86
0.82
1.94
2.55
2.83
2.99
3.22
3.58
4.04
4.45
4.71
4.8
4.75
4.62
4.42
4.06
3.45
2.52
1.27
-0.22
-1.81
-3.34
-4.75
-6.05
-7.33
-8.73
-10.4
-12.42
-14.8
-17.48
-20.33
-23.09
-25.37
-26.7
-26.65
-24.97
-21.76
-17.4
-12.45
-7.46
-2.83
1.26
4.75
7.62
9.84
11.31
12.0
11.97
11.43
10.66
9.91
9.33
8.92
8.6
8.29
8.0
7.81
7.8
7.94
8.03
7.8
6.99
5.6
3.78
1.87
0.17
-1.18
-2.23
-3.23
-4.49
-6.23
-8.63
-11.68
-15.2
-18.83
-22.05
-24.29
-25.07
-24.12
-21.52
-17.61
-12.94
-8.05
-3.4
0.71
4.11
6.76
8.64
9.81
10.33
10.3
9.87
9.2
8.42
7.63
6.9
6.23
5.61
5.06
4.66
4.45
4.46
4.62
4.76
4.67
4.15
3.16
1.69
-0.13
-2.14
-4.17
-6.1
-7.92
-9.74
-11.71
-14.01
-16.67
-19.49
-22.01
-23.66
-23.91
-22.56
-19.72
-15.79
-11.32
-6.78
-2.5
1.37
4.74
7.57
9.81
11.44
12.45
12.85
12.75
12.24
11.46
10.54
9.68
9.03
8.72
8.77
9.09
9.51
9.85
9.98
9.83
9.39
8.62
7.49
5.95
4.0
1.76
-0.56
-2.75
-4.65
-6.3
-7.83
-9.53
-11.59
-14.12
-17.07
-20.23
-23.31
-25.93
-27.69
-28.21
-27.25
-24.71
-20.76
-15.76
-10.23
-4.68
0.47
4.96
8.71
11.73
14.09
15.78
16.8
17.15
16.94
16.37
15.7
15.21
15.03
15.16
15.46
15.74
15.82
15.61
15.12
14.43
13.61
12.67
11.57
10.2
8.46
6.33
3.85
1.22
-1.39
-3.82
-6.05
-8.16
-10.34
-12.76
-15.47
-18.41
-21.4
-24.12
-26.22
-27.33
-27.13
-25.46
-22.38
-18.17
-13.31
-8.35
-3.73
0.27
3.58
6.25
8.34
9.85
10.75
11.01
10.77
10.25
9.77
9.55
9.68
10.04
10.45
10.76
10.91
10.95
10.98
11.03
11.04
10.82
10.13
8.77
6.68
3.98
0.98
-1.89
-4.28
-6.06
-7.38
-8.66
-10.33
-12.7
-15.75
-19.15
-22.34
-24.66
-25.59
-24.74
-22.05
-17.71
-12.18
-6.1
-0.13
5.22
9.65
13.08
15.55
17.15
17.98
18.12
17.73
17.04
16.35
15.92
15.88
16.21
16.75
17.25
17.52
17.48
17.17
16.7
16.17
15.64
15.07
14.32
13.2
11.61
9.56
7.18
4.7
2.31
0.11
-1.92
-3.88
-5.93
-8.22
-10.82
-13.76
-16.95
-20.2
-23.15
-25.39
-26.48
-26.1
-24.18
-20.88
-16.59
-11.76
-6.82
-2.08
2.28
6.15
9.46
12.13
14.07
15.24
15.67
15.5
14.97
14.33
13.81
13.55
13.53
13.67
13.82
13.88
13.79
13.55
13.18
12.71
12.12
11.42
10.57
9.55
8.33
6.84
5.08
3.12
1.05
-0.97
-2.83
-4.55
-6.21
-8.06
-10.35
-13.23
-16.61
-20.13
-23.19
-25.15
-25.55
-24.21
-21.31
-17.26
-12.55
-7.58
-2.7
1.85
5.82
8.97
11.15
12.35
12.75
12.67
12.43
12.28
12.32
12.54
12.91
13.36
13.88
14.4
14.86
15.16
15.2
14.91
14.27
13.3
12.05
10.52
8.72
6.67
4.44
2.11
-0.2
-2.4
-4.48
-6.5
-8.58
-10.84
-13.41
-16.36
-19.59
-22.81
-25.55
-27.26
-27.45
-25.89
-22.66
-18.16
-12.98
-7.72
-2.8
1.51
5.15
8.14
10.51
12.29
13.47
14.13
14.3
14.1
13.65
13.13
12.71
12.52
12.59
12.83
13.09
13.19
13.03
12.62
12.03
11.37
10.66
9.84
8.8
7.39
5.56
3.34
0.87
-1.69
-4.21
-6.64
-8.96
-11.21
-13.45
-15.75
-18.14
-20.61
-23.01
-25.09
-26.46
-26.75
-25.68
-23.23
-19.61
-15.22
-10.5
-5.8
-1.39
2.55
5.83
8.26
9.72
10.22
9.92
9.15
8.21
7.36
6.71
6.33
6.23
6.42
6.86
7.49
8.13
8.62
8.87
8.87
8.7
8.39
7.93
7.2
6.07
4.51
2.61
0.58
-1.39
-3.15
-4.68
-6.07
-7.45
-8.96
-10.76
-12.94
-15.52
-18.38
-21.15
-23.34
-24.41
-23.94
-21.8
-18.23
-13.67
-8.71
-3.85
0.59
4.4
7.54
9.96
11.6
12.48
12.66
12.32
11.73
11.15
10.78
10.64
10.64
10.61
10.39
9.95
9.38
8.83
8.43
8.23
8.1
7.82
7.12
5.83
3.95
1.66
-0.72
-2.84
-4.53
-5.75
-6.71
-7.71
-9.09
-11.06
-13.64
-16.67
-19.81
-22.63
-24.59
-25.22
-24.17
-21.35
-16.99
-11.64
-5.98
-0.69
3.8
7.34
10.01
12.0
13.43
14.29
14.52
14.11
13.19
12.05
11.03
10.36
10.12
10.22
10.49
10.77
10.97
11.05
11.0
10.77
10.31
9.59
8.59
7.32
5.85
4.2
2.42
0.56
-1.31
-3.15
-4.95
-6.77
-8.71
-10.84
-13.23
-15.92
-18.87
-21.96
-24.94
-27.34
-28.66
-28.42
-26.43
-22.84
-18.14
-13.0
-8.01
-3.53
0.3
3.49
6.1
8.13
9.55
10.39
10.75
10.85
10.93
11.15
11.55
12.08
12.6
12.98
13.16
13.15
13.0
12.8
12.49
11.98
11.13
9.8
7.97
5.75
3.35
1.03
-1.02
-2.75
-4.2
-5.56
-7.02
-8.77
-10.95
-13.62
-16.7
-19.97
-22.99
-25.25
-26.31
-25.88
-23.95
-20.77
-16.72
-12.22
-7.64
-3.21
0.88
4.51
7.54
9.87
11.44
12.27
12.48
12.29
11.94
11.62
11.42
11.29
11.16
10.93
10.61
10.26
9.99
9.85
9.81
9.77
9.55
8.93
7.76
5.98
3.7
1.14
-1.39
-3.59
-5.33
-6.67
-7.84
-9.2
-11.07
-13.65
-16.9
-20.51
-23.98
-26.71
-28.16
-27.97
-26.07
-22.61
-18.0
-12.73
-7.3
-2.2
2.22
5.75
8.4
10.28
11.6
12.5
13.01
13.1
12.79
12.18
11.49
10.95
10.77
11.03
11.62
12.36
13.01
13.35
13.26
12.7
11.71
10.35
8.72
6.85
4.78
2.55
0.23
-2.12
-4.42
-6.59
-8.64
-10.61
-12.56
-14.61
-16.88
-19.42
-22.12
-24.71
-26.76
-27.83
-27.61
-26.0
-23.11
-19.2
-14.6
-9.6
-4.49
0.48
5.03
8.93
11.99
14.12
15.31
15.67
15.35
14.64
13.82
13.19
12.91
13.0
13.33
13.66
13.83
13.72
13.34
12.76
12.01
11.11
10.05
8.78
7.28
5.52
3.53
1.39
-0.77
-2.8
-4.59
-6.17
-7.69
-9.39
-11.5
-14.16
-17.27
-20.59
-23.7
-26.09
-27.27
-26.83
-24.61
-20.79
-15.87
-10.54
-5.43
-0.92
2.87
6.08
8.91
11.49
13.76
15.53
16.66
17.16
17.24
17.3
17.77
18.95
20.93
23.4
25.85
27.93
29.58
31.19
33.37
36.67
41.31
47.22
53.59
59.69
65.13
70.09
75.1
80.66
87.05
94.22
101.96
108.87
113.45
114.65
112.45
107.87
102.37
97.23
92.92
89.14
83.43
73.4
57.76
36.75
11.31
-17.84
-50.33
-85.43
-120.85
-155.33
-187.57
-216.93
-243.62
-268.38
-291.84
-313.6
-332.04
-333.46
-308.17
-254.36
-181.08
-103.5
-34.52
19.92
59.93
86.41
103.56
111.3
107.84
91.72
63.48
25.77
-17.68
-60.66
-97.41
-122.69
-135.19
-136.31
-129.32
-117.7
-103.54
-87.08
-67.38
-43.96
-17.52
8.39
29.88
44.83
54.21
61.52
70.75
84.4
102.47
123.41
144.4
162.94
177.12
185.51
187.15
181.8
170.49
155.39
139.24
123.89
109.82
96.35
82.52
68.05
53.61
40.46
29.77
22.18
17.65
15.62
15.13
14.91
13.51
9.57
2.41
-7.62
-19.15
-30.18
-39.0
-44.82
-48.13
-50.35
-53.14
-57.74
-64.57
-73.37
-83.55
-94.52
-105.76
-116.56
-125.76
-131.82
-133.19
-128.93
-119.15
-105.14
-88.94
-72.8
-58.58
-47.42
-39.57
-34.33
-30.29
-25.8
-19.67
-11.86
-3.62
3.11
6.82
7.4
6.25
5.56
6.91
10.47
14.98
18.68
20.44
20.22
18.94
17.69
17.14
17.43
18.46
20.24
22.76
25.69
28.16
28.97
27.25
23.08
17.58
12.28
8.27
5.53
3.17
0.23
-3.37
-6.41
-6.97
-3.6
3.61
12.8
21.11
26.02
26.5
23.37
18.62
14.4
11.95
11.28
11.42
11.15
9.74
7.25
4.47
2.47
2.05
3.39
5.94
8.73
10.79
11.56
11.13
10.02
8.88
8.17
7.93
7.91
7.69
6.91
5.23
2.44
-1.65
-7.11
-13.74
-21.0
-27.91
-33.14
-35.29
-33.4
-27.52
-18.95
-9.94
-2.96
0.39
0.02
-2.54
-4.95
-5.09
-2.02
3.83
11.16
18.6
25.29
31.04
35.85
39.57
41.81
42.17
40.72
38.07
35.26
33.22
32.39
32.7
33.66
34.72
35.46
35.58
34.93
33.42
31.1
28.11
24.71
21.13
17.41
13.34
8.62
3.14
-2.78
-8.35
-12.62
-14.9
-15.21
-14.3
-13.42
-13.6
-15.11
-17.33
-18.86
-18.29
-14.77
-8.43
-0.16
8.72
16.9
23.4
27.62
29.4
29.05
27.31
25.22
23.83
23.85
25.39
27.83
30.07
30.89
29.35
25.22
19.03
11.93
5.45
0.86
-1.09
-0.49
1.88
4.87
7.43
8.94
9.23
8.42
6.66
4.0
0.4
-4.08
-9.14
-14.32
-19.05
-22.95
-25.92
-28.14
-29.89
-31.3
-32.28
-32.44
-31.33
-28.58
-24.14
-18.39
-12.1
-6.21
-1.69
0.72
0.64
-1.91
-6.42
-12.07
-17.84
-22.77
-26.38
-28.95
-31.43
-35.05
-40.8
-48.7
-57.73
-66.21
-72.6
-76.37
-78.41
-80.91
-86.86
-99.23
-119.89
-148.77
-183.29
-218.52
-248.29
-266.93
-271.13
-260.91
-239.41
-211.46
-181.61
-152.66
-125.23
-98.29
-70.24
-39.59
-5.06
34.5
79.96
130.98
185.13
237.64
282.2
313.17
327.63
326.58
314.36
296.67
278.22
261.39
246.13
231.16
215.35
198.51
181.33
164.68
149.05
134.33
120.05
105.8
91.49
77.48
64.4
52.78
42.77
33.96
25.54
16.62
6.62
-4.46
-16.0
-27.1
-37.01
-45.43
-52.63
-59.17
-65.7
-72.53
-79.62
-86.62
-93.03
-98.5
-102.9
-106.33
-108.97
-110.92
-112.04
-112.09
-110.8
-108.08
-104.03
-98.7
-91.99
-83.6
-73.23
-60.84
-46.76
-31.57
-15.72
0.66
17.53
34.57
50.8
64.58
74.19
78.58
77.98
73.77
67.89
62.16
57.71
54.96
53.94
54.59
56.93
60.92
66.15
71.76
76.53
79.22
78.97
75.58
69.51
61.77
53.52
45.93
39.91
36.03
34.45
34.83
36.48
38.51
40.16
41.04
41.17
40.83
40.12
38.87
36.62
33.04
28.15
22.48
16.78
11.68
7.38
3.65
0.17
-3.21
-6.31
-8.62
-9.49
-8.44
-5.36
-0.7
4.57
9.19
12.0
12.32
10.17
6.25
1.6
-2.81
-6.42
-9.21
-11.56
-14.02
-17.05
-20.8
-25.02
-29.15
-32.5
-34.46
-34.81
-33.73
-31.72
-29.23
-26.57
-23.75
-20.7
-17.47
-14.38
-11.95
-10.74
-10.97
-12.47
-14.64
-16.7
-17.99
-18.18
-17.36
-15.96
-14.52
-13.47
-12.96
-12.86
-12.83
-12.55
-11.9
-10.99
-10.1
-9.53
-9.43
-9.78
-10.41
-11.11
-11.71
-12.13
-12.38
-12.54
-12.72
-13.06
-13.64
-14.56
-15.78
-17.22
-18.65
-19.81
-20.43
-20.32
-19.42
-17.77
-15.57
-13.05
-10.41
-7.82
-5.39
-3.24
-1.51
-0.34
0.17
0.05
-0.57
-1.44
-2.32
-3.01
-3.41
-3.48
-3.23
-2.7
-1.98
-1.23
-0.62
-0.29
-0.36
-0.84
-1.66
-2.68
-3.72
-4.63
-5.29
-5.68
-5.85
-5.91
-6.0
-6.28
-6.85
-7.85
-9.35
-11.38
-13.83
-16.4
-18.64
-20.07
-20.35
-19.38
-17.39
-14.75
-11.85
-8.97
-6.22
-3.65
-1.32
0.64
2.06
2.77
2.74
2.1
1.1
0.04
-0.83
-1.38
-1.63
-1.68
-1.64
-1.59
-1.5
-1.29
-0.91
-0.41
0.06
0.31
0.16
-0.4
-1.29
-2.38
-3.51
-4.59
-5.6
-6.51
-7.39
-8.3
-9.34
-10.63
-12.26
-14.27
-16.56
-18.87
-20.87
-22.16
-22.44
-21.57
-19.6
-16.77
-13.42
-9.86
-6.33
-2.97
0.1
2.77
4.94
6.52
7.52
8.08
8.38
8.63
8.97
9.44
9.99
10.54
10.99
11.29
11.45
11.55
11.69
11.97
12.36
12.79
13.08
13.13
12.86
12.3
11.49
10.42
9.02
7.19
4.8
1.89
-1.37
-4.71
-7.88
-10.78
-13.48
-16.18
-18.99
-21.85
-24.51
-26.58
-27.78
-27.99
-27.25
-25.66
-23.29
-20.16
-16.4
-12.27
-8.25
-4.87
-2.46
-1.06
-0.4
-0.09
0.24
0.76
1.47
2.24
2.95
3.49
3.83
3.97
3.94
3.77
3.48
3.1
2.64
2.07
1.36
0.54
-0.41
-1.42
-2.46
-3.49
-4.48
-5.48
-6.57
-7.91
-9.59
-11.65
-13.96
-16.23
-18.08
-19.13
-19.08
-17.81
-15.41
-12.13
-8.35
-4.46
-0.78
2.51
5.37
7.8
9.79
11.27
12.09
12.17
11.53
10.39
9.07
7.85
6.89
6.17
5.54
4.88
4.14
3.38
2.72
2.23
1.92
1.68
1.35
0.78
-0.13
-1.35
-2.75
-4.15
-5.42
-6.5
-7.5
-8.64
-10.15
-12.19
-14.74
-17.62
-20.49
-23.0
-24.8
-25.63
-25.33
-23.84
-21.21
-17.6
-13.29
-8.63
-4.03
0.21
3.9
6.95
9.39
11.2
12.4
12.97
13.01
12.72
12.39
12.26
12.43
12.78
13.07
13.09
12.77
12.23
11.66
11.18
10.8
10.35
9.66
8.58
7.13
5.4
3.54
1.67
-0.2
-2.11
-4.15
-6.37
-8.79
-11.35
-13.95
-16.47
-18.8
-20.86
-22.52
-23.63
-23.94
-23.24
-21.35
-18.31
-14.34
-9.86
-5.3
-1.05
2.67
5.76
8.17
9.87
10.8
10.92
10.33
9.32
8.31
7.7
7.74
8.41
9.47
10.54
11.32
11.68
11.63
11.27
10.66
9.81
8.65
7.14
5.32
3.3
1.25
-0.68
-2.42
-4.01
-5.56
-7.29
-9.37
-11.89
-14.76
-17.71
-20.3
-22.05
-22.58
-21.7
-19.45
-16.08
-12.02
-7.73
-3.58
0.15
3.39
6.15
8.53
10.49
12.01
13.0
13.49
13.61
13.63
13.81
14.3
15.04
15.87
16.56
16.95
16.97
16.66
16.05
15.18
14.07
12.74
11.21
9.53
7.72
5.79
3.71
1.48
-0.8
-3.08
-5.27
-7.43
-9.7
-12.31
-15.39
-18.87
-22.45
-25.59
-27.68
-28.27
-27.14
-24.38
-20.35
-15.5
-10.31
-5.21
-0.49
3.68
7.24
10.17
12.5
14.19
15.23
15.65
15.57
15.27
15.04
15.15
15.66
16.48
17.4
18.19
18.71
18.92
18.84
18.53
18.0
17.25
16.28
15.02
13.45
11.52
9.24
6.69
3.99
1.3
-1.31
-3.86
-6.4
-9.02
-11.79
-14.7
-17.72
-20.79
-23.76
-26.39
-28.33
-29.21
-28.66
-26.49
-22.75
-17.74
-11.95
-5.99
-0.45
4.27
7.94
10.54
12.21
13.13
13.52
13.52
13.29
12.96
12.69
12.63
12.84
13.33
13.95
14.57
15.07
15.38
15.5
15.48
15.34
15.01
14.39
13.39
11.93
10.07
7.99
5.91
4.04
2.51
1.25
0.02
-1.54
-3.74
-6.73
-10.43
-14.46
-18.23
-21.13
-22.68
-22.61
-20.98
-18.03
-14.17
-9.76
-5.13
-0.54
3.77
7.6
10.75
13.11
14.66
15.55
15.97
16.18
16.37
16.66
17.05
17.49
17.89
18.19
18.31
18.26
18.05
17.78
17.51
17.27
17.01
16.6
15.89
14.7
13.01
10.87
8.45
5.94
3.52
1.28
-0.76
-2.62
-4.39
-6.18
-8.16
-10.51
-13.34
-16.63
-20.16
-23.49
-26.06
-27.32
-26.86
-24.66
-21.01
-16.42
-11.48
-6.66
-2.18
1.89
5.57
8.85
11.61
13.72
15.11
15.84
16.06
15.92
15.55
15.03
14.45
13.93
13.63
13.63
13.93
14.36
14.71
14.73
14.33
13.54
12.52
11.42
10.34
9.23
7.97
6.44
4.61
2.56
0.48
-1.48
-3.23
-4.8
-6.32
-7.9
-9.6
-11.5
-13.6
-15.93
-18.46
-21.03
-23.36
-24.95
-25.33
-24.11
-21.23
-16.97
-11.87
-6.58
-1.67
2.54
5.95
8.68
10.84
12.5
13.62
14.16
14.17
13.84
13.44
13.21
13.25
13.48
13.73
13.84
13.8
13.67
13.56
13.49
13.33
12.88
12.02
10.76
9.26
7.78
6.52
5.53
4.67
3.74
2.55
1.01
-0.84
-2.88
-4.96
-7.0
-8.97
-10.93
-12.98
-15.17
-17.49
-19.78
-21.75
-23.04
-23.28
-22.23
-19.87
-16.37
-12.09
-7.45
-2.84
1.47
5.33
8.65
11.37
13.4
14.7
15.24
15.13
14.61
13.94
13.31
12.82
12.43
12.07
11.69
11.32
11.03
10.86
10.8
10.76
10.64
10.34
9.82
9.08
8.08
6.8
5.2
3.34
1.31
-0.73
-2.64
-4.37
-5.93
-7.4
-8.85
-10.34
-11.92
-13.64
-15.61
-17.88
-20.41
-22.9
-24.87
-25.76
-25.17
-23.03
-19.68
-15.67
-11.6
-7.92
-4.8
-2.26
-0.17
1.56
2.97
4.05
4.79
5.18
5.25
5.06
4.69
4.24
3.79
3.39
3.07
2.81
2.59
2.4
2.17
1.82
1.24
0.33
-0.91
-2.37
-3.87
-5.23
-6.38
-7.37
-8.31
-9.31
-10.37
-11.42
-12.35
-13.15
-13.9
-14.77
-15.9
-17.38
-19.12
-20.98
-22.74
-24.14
-24.91
-24.83
-23.73
-21.6
-18.58
-14.95
-11.1
-7.39
-4.09
-1.35
0.81
2.49
3.83
4.94
5.87
6.58
7.03
7.21
7.19
7.13
7.16
7.34
7.62
7.89
8.03
8.03
7.93
7.85
7.82
7.81
7.7
7.35
6.65
5.58
4.23
2.69
1.07
-0.57
-2.19
-3.79
-5.36
-6.91
-8.48
-10.14
-12.01
-14.1
-16.26
-18.19
-19.46
-19.69
-18.69
-16.53
-13.51
-10.02
-6.43
-3.0
0.17
2.98
5.39
7.33
8.75
9.64
10.09
10.25
10.26
10.23
10.17
10.03
9.77
9.45
9.24
9.29
9.66
10.21
10.61
10.51
9.71
8.27
6.48
4.72
3.25
2.1
1.11
0.02
-1.36
-3.08
-5.02
-6.94
-8.59
-9.77
-10.41
-10.59
-10.48
-10.37
-10.51
-11.05
-11.94
-12.89
-13.47
-13.26
-11.99
-9.65
-6.48
-2.89
0.74
4.16
7.26
10.02
12.44
14.42
15.87
16.68
16.87
16.53
15.83
14.92
13.94
13.02
12.23
11.6
11.09
10.65
10.16
9.56
8.79
7.86
6.77
5.5
4.05
2.33
0.31
-2.0
-4.53
-7.18
-9.82
-12.4
-14.88
-17.29
-19.68
-22.1
-24.55
-27.01
-29.45
-31.97
-34.71
-37.85
-41.43
-45.22
-48.72
-51.32
-52.48
-52.06
-50.42
-48.39
-46.93
-46.79
-48.25
-51.04
-54.54
-58.13
-61.45
-64.67
-68.34
-73.25
-80.1
-89.19
-100.34
-112.79
-125.16
-135.62
-142.05
-142.73
-136.83
-125.07
-109.6
-93.46
-79.41
-68.78
-60.97
-53.94
-45.33
-33.65
-18.88
-2.19
14.71
30.33
43.76
54.7
63.29
69.91
75.11
79.45
83.41
87.32
91.37
95.7
100.5
105.97
112.17
118.73
124.82
129.28
131.15
129.99
126.07
120.17
113.23
106.03
99.12
92.83
87.47
83.38
81.0
80.72
82.69
86.53
91.11
94.77
95.82
93.39
87.82
80.58
73.54
68.14
64.8
62.96
61.6
59.85
57.5
54.81
52.11
49.38
46.18
42.03
36.77
30.72
24.5
19.08
15.26
13.48
13.56
14.69
15.96
16.68
16.66
16.39
17.32
21.04
28.68
40.2
54.16
68.84
82.67
94.65
104.45
113.01
121.54
130.9
141.02
150.51
158.22
163.3
165.16
163.06
156.97
146.82
132.94
116.52
99.45
85.46
78.18
78.91
80.17
73.57
52.23
14.94
-30.29
-78.66
-126.49
-171.79
-212.09
-245.76
-271.29
-287.8
-295.12
-294.21
-287.86
-278.75
-269.32
-261.2
-255.16
-250.06
-243.77
-234.19
-220.29
-202.99
-183.86
-164.99
-148.51
-136.17
-128.27
-123.81
-120.78
-116.94
-111.0
-102.52
-92.27
-81.87
-73.14
-66.89
-62.75
-59.34
-55.25
-49.79
-42.99
-35.43
-27.87
-21.1
-15.63
-11.85
-9.87
-9.43
-9.91
-10.26
-9.35
-6.55
-2.09
3.17
8.09
11.8
13.97
14.8
14.75
14.32
13.84
13.6
13.94
15.35
18.31
23.09
29.58
37.22
45.23
52.88
59.7
65.58
70.53
74.58
77.67
79.59
80.2
79.49
77.76
75.45
73.09
71.06
69.49
68.34
67.38
66.4
65.19
63.61
61.51
58.76
55.27
51.08
46.39
41.53
36.86
32.61
28.78
25.14
21.35
17.2
12.62
7.78
2.94
-1.57
-5.48
-8.55
-10.58
-11.42
-11.01
-9.4
-6.74
-3.28
0.7
4.87
8.91
12.5
15.4
17.45
18.66
19.2
19.26
19.08
18.86
18.75
18.86
19.27
19.96
20.78
21.48
21.74
21.37
20.35
18.92
17.4
16.04
14.89
13.78
12.47
10.79
8.75
6.5
4.26
2.13
0.08
-2.01
-4.26
-6.66
-9.18
-11.75
-14.42
-17.23
-20.18
-23.03
-25.32
-26.47
-25.99
-23.71
-19.88
-15.0
-9.71
-4.47
0.45
4.97
9.04
12.57
15.4
17.38
18.5
18.88
18.79
18.55
18.39
18.43
18.66
18.99
19.35
19.68
19.96
20.16
20.24
20.12
19.73
19.04
18.09
16.92
15.6
14.17
12.65
11.02
9.29
7.45
5.49
3.43
1.29
-0.86
-2.97
-5.04
-7.13
-9.37
-11.91
-14.82
-17.99
-21.14
-23.82
-25.56
-26.06
-25.16
-22.96
-19.7
-15.63
-11.03
-6.14
-1.22
3.39
7.34
10.32
12.23
13.18
13.47
13.44
13.35
13.32
13.37
13.52
13.82
14.3
14.95
15.63
16.16
16.4
16.28
15.86
15.27
14.56
13.7
12.64
11.33
9.84
8.33
6.95
5.77
4.73
3.62
2.23
0.44
-1.73
-4.05
-6.26
-8.18
-9.81
-11.41
-13.28
-15.63
-18.42
-21.26
-23.58
-24.82
-24.61
-22.88
-19.88
-15.99
-11.65
-7.23
-3.03
0.75
3.95
6.48
8.26
9.26
9.53
9.19
8.49
7.72
7.16
6.99
7.26
7.85
8.54
9.12
9.44
9.49
9.35
9.13
8.88
8.54
8.01
7.17
6.04
4.7
3.33
2.03
0.86
-0.27
-1.46
-2.8
-4.29
-5.87
-7.49
-9.17
-11.01
-13.12
-15.56
-18.18
-20.75
-22.9
-24.29
-24.68
-23.94
-22.12
-19.38
-16.0
-12.29
-8.54
-5.0
-1.84
0.85
2.96
4.46
5.3
5.52
5.25
4.7
4.18
3.95
4.22
5.07
6.48
8.3
10.34
12.34
14.11
15.46
16.26
16.44
16.01
15.02
13.62
11.97
10.26
8.64
7.17
5.85
4.62
3.4
2.16
0.83
-0.59
-2.14
-3.82
-5.67
-7.7
-9.98
-12.53
-15.33
-18.23
-20.9
-22.9
-23.83
-23.42
-21.7
-18.92
-15.47
-11.74
-8.0
-4.44
-1.22
1.57
3.78
5.38
6.39
6.93
7.19
7.28
7.27
7.16
6.94
6.65
6.36
6.2
6.22
6.43
6.71
6.9
6.84
6.47
5.85
5.09
4.31
3.54
2.72
1.8
0.7
-0.55
-1.89
-3.25
-4.6
-5.94
-7.27
-8.55
-9.69
-10.63
-11.42
-12.2
-13.17
-14.48
-16.13
-17.93
-19.57
-20.68
-20.94
-20.13
-18.23
-15.33
-11.69
-7.66
-3.66
-0.08
2.76
4.72
5.8
6.11
5.8
5.08
4.14
3.16
2.3
1.68
1.37
1.34
1.55
1.91
2.33
2.68
2.88
2.87
2.61
2.12
1.49
0.8
0.11
-0.62
-1.48
-2.54
-3.84
-5.33
-6.89
-8.42
-9.86
-11.24
-12.56
-13.83
-15.05
-16.22
-17.35
-18.51
-19.69
-20.74
-21.35
-21.13
-19.79
-17.3
-13.96
-10.23
-6.59
-3.29
-0.41
2.13
4.36
6.18
7.4
7.89
7.71
7.14
6.56
6.26
6.35
6.7
7.12
7.48
7.75
7.99
8.23
8.46
8.57
8.48
8.12
7.52
6.71
5.75
4.66
3.44
2.07
0.53
-1.2
-3.11
-5.16
-7.21
-9.15
-10.91
-12.51
-14.04
-15.67
-17.47
-19.47
-21.53
-23.4
-24.8
-25.42
-25.0
-23.39
-20.65
-17.03
-12.92
