1.52
3.06
4.37
5.63
6.91
8.17
9.26
10.09
10.71
11.32
12.12
13.2
14.33
15.12
15.17
14.29
12.57
10.18
7.28
3.92
0.22
-3.42
-6.3
-7.75
-7.51
-5.97
-4.11
-2.93
-3.08
-4.56
-7.0
-10.03
-13.5
-17.49
-22.02
-26.82
-31.32
-34.84
-36.93
-37.55
-37.07
-36.06
-34.99
-34.0
-32.74
-30.5
-26.4
-19.78
-10.59
0.41
11.85
22.05
29.69
34.15
35.66
35.07
33.43
31.66
30.27
29.36
28.78
28.28
27.62
26.71
25.53
24.12
22.53
20.87
19.2
17.61
16.04
14.41
12.65
10.74
8.73
6.73
4.89
3.49
2.92
3.42
4.74
5.91
5.46
2.04
-4.75
-13.9
-23.23
-30.29
-33.43
-32.42
-28.39
-23.12
-18.17
-14.38
-11.86
-10.32
-9.51
-9.36
-9.95
-11.26
-13.06
-14.77
-15.67
-15.18
-13.16
-10.08
-6.86
-4.37
-2.99
-2.39
-1.7
-0.0
3.18
7.7
12.86
17.75
21.66
24.19
25.36
25.44
24.76
23.63
22.27
20.78
19.33
18.18
17.6
17.74
18.5
19.51
20.33
20.66
20.39
19.56
18.12
15.86
12.58
8.34
3.61
-0.87
-4.48
-7.14
-9.39
-12.08
-15.86
-20.72
-25.97
-30.59
-33.72
-34.96
-34.4
-32.38
-29.26
-25.39
-21.02
-16.44
-11.79
-7.1
-2.16
3.22
9.01
14.82
20.04
24.11
26.86
28.62
29.99
31.44
33.07
34.56
35.41
35.3
34.28
32.69
30.94
29.25
27.6
25.77
23.54
20.81
17.67
14.33
10.98
7.67
4.26
0.51
-3.83
-8.81
-14.29
-19.97
-25.44
-30.38
-34.56
-37.88
-40.39
-42.2
-43.47
-44.29
-44.61
-44.25
-42.99
-40.63
-37.15
-32.76
-27.8
-22.7
-17.78
-13.24
-9.11
-5.39
-2.01
1.0
3.59
5.66
7.13
8.03
8.47
8.62
8.64
8.62
8.6
8.56
8.48
8.34
8.09
7.65
6.97
6.08
5.11
4.3
3.86
3.89
4.3
4.91
5.55
6.13
6.65
7.11
7.38
7.18
6.18
4.19
1.31
-2.11
-5.49
-8.33
-10.38
-11.68
-12.48
-13.01
-13.29
-13.15
-12.36
-10.73
-8.2
-4.78
-0.43
4.81
10.71
16.52
21.06
23.02
21.62
17.1
10.78
4.61
0.3
-1.34
-0.57
1.6
3.94
5.38
5.16
2.82
-1.73
-8.04
-14.9
-20.59
-23.49
-22.87
-19.47
-15.36
-13.08
-14.42
-19.58
-27.1
-34.63
-40.06
-42.3
-41.32
-37.78
-32.34
-25.48
-17.65
-9.7
-2.94
1.18
1.76
-0.98
-5.63
-10.11
-12.5
-11.74
-7.72
-1.17
6.84
15.29
23.22
29.8
34.34
36.41
35.99
33.59
30.01
26.09
22.49
19.5
17.16
15.37
14.02
13.04
12.35
11.83
11.35
10.72
9.85
8.73
7.44
6.08
4.69
3.23
1.65
-0.07
-1.84
-3.48
-4.72
-5.37
-5.42
-5.16
-5.07
-5.75
-7.64
-10.91
-15.34
-20.44
-25.51
-29.8
-32.57
-33.21
-31.39
-27.16
-21.05
-13.98
-7.06
-1.29
2.78
5.12
6.13
6.46
6.67
7.06
7.66
8.3
8.76
8.96
8.9
8.66
8.28
7.77
7.07
6.18
5.2
4.37
3.95
4.15
4.95
6.12
7.27
7.95
7.82
6.72
4.72
2.15
-0.52
-2.8
-4.32
-5.02
-5.15
-5.2
-5.64
-6.82
-8.78
-11.31
-14.03
-16.45
-18.18
-18.88
-18.44
-16.91
-14.49
-11.49
-8.18
-4.77
-1.48
1.54
4.09
5.93
6.92
7.06
6.65
6.18
6.16
6.94
8.46
10.34
11.95
12.78
12.54
11.38
9.64
7.81
6.28
5.26
4.74
4.56
4.47
4.19
3.52
2.39
0.93
-0.68
-2.3
-3.95
-5.83
-8.1
-10.76
-13.57
-16.14
-18.15
-19.5
-20.34
-20.85
-21.01
-20.51
-18.85
-15.56
-10.63
-4.47
2.05
8.03
12.83
16.17
18.16
19.11
19.37
19.18
18.73
18.14
17.57
17.13
16.87
16.78
16.76
16.73
16.65
16.52
16.34
16.01
15.33
14.06
12.06
9.5
6.76
4.35
2.67
1.79
1.46
1.25
0.74
-0.27
-1.75
-3.54
-5.48
-7.54
-9.76
-12.27
-15.13
-18.37
-21.89
-25.46
-28.75
-31.3
-32.67
-32.55
-30.91
-27.92
-23.93
-19.3
-14.33
-9.2
-4.06
0.95
5.6
9.62
12.8
15.01
16.25
16.7
16.67
16.46
16.3
16.28
16.35
16.45
16.48
16.38
16.12
15.61
14.78
13.62
12.23
10.76
9.35
8.04
6.77
5.47
4.08
2.59
0.98
-0.85
-2.99
-5.43
-7.92
-9.98
-11.12
-11.17
-10.45
-9.7
-9.79
-11.22
-13.9
-17.15
-20.08
-21.95
-22.55
-22.19
-21.45
-20.83
-20.44
-19.95
-18.78
-16.39
-12.58
-7.6
-2.1
3.12
7.38
10.37
12.11
12.93
13.21
13.24
13.12
12.7
11.81
10.33
8.36
6.3
4.65
3.84
4.09
5.29
7.1
9.21
11.36
13.41
15.32
16.97
18.14
18.54
17.84
15.84
12.57
8.27
3.42
-1.44
-5.87
-9.61
-12.69
-15.32
-17.84
-20.52
-23.55
-26.97
-30.67
-34.33
-37.37
-39.02
-38.57
-35.7
-30.79
-24.88
-19.32
-15.18
-12.73
-11.38
-10.0
-7.49
-3.32
2.2
7.94
12.27
13.37
9.79
1.02
-11.99
-26.7
-39.42
-46.38
-45.08
-35.33
-19.19
-0.24
17.69
32.04
42.12
48.72
53.31
57.07
60.17
61.63
60.11
55.05
47.57
40.44
36.93
39.16
46.94
57.46
66.56
70.41
66.93
56.15
39.66
19.67
-1.51
-21.65
-38.4
-49.37
-52.7
-47.91
-36.54
-22.05
-8.37
1.5
6.44
7.4
6.69
6.54
8.08
11.05
14.36
16.96
18.43
19.09
19.51
19.99
20.26
19.76
18.24
16.04
13.98
12.89
13.08
14.18
15.32
15.59
14.55
12.36
9.62
6.99
4.94
3.6
2.91
2.83
3.23
3.86
4.31
4.17
3.25
1.81
0.49
-0.03
0.62
2.34
4.76
7.67
11.03
14.85
18.76
21.84
22.87
20.9
15.7
7.83
-1.62
-11.53
-20.98
-29.16
-35.32
-38.73
-38.96
-36.28
-31.86
-27.4
-24.6
-24.33
-26.41
-29.75
-32.91
-34.61
-34.07
-31.15
-26.22
-20.02
-13.62
-8.09
-4.16
-1.77
-0.0
2.65
7.33
14.21
22.31
29.91
35.32
37.51
36.44
33.02
28.82
25.4
23.69
23.42
23.3
21.79
18.26
13.76
10.86
12.51
20.45
34.22
51.4
68.92
84.5
97.16
106.49
111.44
109.75
98.64
76.59
44.83
7.59
-28.88
-58.48
-77.24
-84.28
-81.62
-72.97
-62.21
-52.28
-44.61
-39.33
-35.93
-33.89
-33.04
-33.41
-35.03
-37.48
-39.98
-41.5
-41.26
-39.05
-35.38
-31.32
-28.07
-26.54
-27.04
-29.32
-32.83
-36.95
-41.39
-46.01
-50.87
-55.89
-60.82
-65.12
-68.2
-69.63
-69.39
-68.05
-66.52
-65.83
-66.73
-69.43
-73.7
-79.05
-85.05
-91.51
-98.49
-106.18
-114.67
-123.88
-133.5
-143.11
-152.39
-161.27
-169.99
-179.0
-188.61
-198.72
-208.75
-217.98
-226.17
-233.77
-241.31
-248.45
-253.42
-253.66
-247.32
-234.67
-218.22
-201.17
-185.04
-167.99
-144.99
-109.95
-58.67
8.88
88.3
172.26
252.8
323.35
379.94
421.19
448.05
463.17
470.01
472.0
471.7
470.24
467.54
462.64
454.14
440.64
421.08
394.92
362.31
324.5
283.82
243.53
207.12
177.13
154.39
137.81
125.08
113.9
103.04
92.55
83.22
75.59
69.52
64.35
59.62
55.41
52.2
50.34
49.45
48.62
46.95
44.36
41.73
40.42
41.43
44.83
49.88
55.48
60.74
65.21
68.56
70.35
69.9
66.49
59.49
48.42
32.77
11.95
-14.45
-46.16
-81.83
-119.06
-155.02
-187.27
-214.64
-237.02
-254.71
-267.29
-273.24
-270.67
-258.98
-240.13
-218.59
-199.69
-187.46
-183.02
-184.53
-188.51
-191.49
-191.28
-187.21
-179.5
-168.6
-155.0
-139.35
-122.84
-107.25
-94.54
-86.25
-82.96
-83.99
-87.36
-90.3
-89.99
-84.56
-73.7
-58.84
-42.24
-26.06
-11.64
0.6
10.56
18.05
22.67
24.26
23.35
21.29
19.73
19.87
21.88
24.92
27.65
28.97
28.52
26.64
24.02
21.21
18.43
15.67
12.9
10.24
7.9
5.96
4.21
2.22
-0.48
-4.04
-8.12
-11.87
-14.27
-14.51
-12.31
-7.97
-2.21
4.13
10.37
16.04
20.79
24.27
26.09
25.93
23.74
19.89
15.15
10.52
6.96
5.13
5.25
7.14
10.23
13.76
16.94
19.18
20.15
19.88
18.59
16.57
14.1
11.38
8.59
5.95
3.69
1.97
0.77
-0.19
-1.35
-3.12
-5.57
-8.38
-10.83
-12.01
-11.29
-8.44
-3.86
1.65
7.09
11.64
14.88
16.79
17.76
18.28
18.78
19.42
20.13
20.65
20.77
20.48
20.0
19.6
19.45
19.48
19.43
19.04
18.21
17.05
15.79
14.59
13.43
12.19
10.67
8.76
6.46
3.82
0.87
-2.41
-5.99
-9.68
-13.11
-15.71
-16.93
-16.43
-14.19
-10.56
-6.11
-1.46
2.85
6.5
9.35
11.43
12.85
13.8
14.47
14.92
15.11
14.79
13.76
12.01
9.79
7.63
6.0
5.14
4.92
4.96
4.86
4.43
3.78
3.15
2.72
2.39
1.9
0.89
-0.85
-3.23
-6.01
-8.9
-11.71
-14.31
-16.57
-18.16
-18.66
-17.65
-14.99
-10.99
-6.24
-1.46
2.81
6.32
9.05
11.06
12.42
13.14
13.28
12.99
12.52
12.07
11.76
11.6
11.5
11.39
11.14
10.71
10.03
9.06
7.81
6.33
4.66
2.81
0.78
-1.47
-3.9
-6.34
-8.56
-10.38
-11.77
-12.89
-14.05
-15.35
-16.67
-17.54
-17.4
-15.86
-12.89
-8.92
-4.6
-0.52
2.97
5.8
8.06
9.85
11.2
12.04
12.33
12.09
11.45
10.65
9.89
9.33
9.02
8.87
8.7
8.37
7.8
7.02
6.08
5.05
3.96
2.79
1.56
0.28
-1.01
-2.32
-3.71
-5.29
-7.08
-9.06
-11.1
-13.05
-14.72
-15.95
-16.57
-16.36
-15.2
-13.03
-9.99
-6.36
-2.48
1.35
4.89
7.98
10.49
12.28
13.28
13.5
13.12
12.4
11.63
11.01
10.59
10.32
10.12
9.92
9.71
9.45
9.11
8.62
7.89
6.85
5.45
3.73
1.82
-0.1
-1.83
-3.23
-4.35
-5.32
-6.39
-7.79
-9.63
-11.86
-14.22
-16.35
-17.8
-18.24
-17.44
-15.38
-12.23
-8.36
-4.13
0.1
4.03
7.43
10.03
11.62
11.97
11.04
9.0
6.33
3.71
1.84
1.17
1.83
3.47
5.5
7.33
8.58
9.18
9.36
9.4
9.51
9.73
9.97
10.13
10.15
9.99
9.58
8.69
7.05
4.38
0.55
-4.23
-9.53
-14.74
-19.2
-22.42
-24.09
-24.13
-22.65
-19.92
-16.28
-12.08
-7.59
-3.01
1.49
5.74
9.45
12.3
14.01
14.51
13.98
12.79
11.37
10.01
8.84
7.86
7.03
6.39
6.03
6.08
6.59
7.45
8.42
9.17
9.43
9.07
8.17
6.94
5.63
4.31
2.89
1.2
-0.9
-3.32
-5.84
-8.15
-10.07
-11.49
-12.44
-12.9
-12.8
-12.01
-10.52
-8.39
-5.78
-2.93
-0.04
2.72
5.24
7.41
9.11
10.28
10.85
10.84
10.35
9.57
8.77
8.2
8.0
8.16
8.45
8.65
8.56
8.2
7.68
7.18
6.75
6.32
5.7
4.72
3.37
1.81
0.27
-1.0
-1.89
-2.51
-3.11
-3.99
-5.37
-7.28
-9.63
-12.18
-14.65
-16.74
-18.13
-18.58
-17.92
-16.17
-13.54
-10.39
-7.13
-4.11
-1.46
0.83
2.89
4.79
6.49
7.8
8.53
8.54
7.94
7.03
6.19
5.76
5.81
6.16
6.44
6.3
5.56
4.37
3.1
2.19
1.94
2.27
2.73
2.64
1.39
-1.22
-4.86
-8.8
-12.17
-14.38
-15.34
-15.49
-15.63
-16.55
-18.76
-22.29
-26.7
-31.25
-35.11
-37.65
-38.56
-38.05
-36.78
-35.82
-36.41
-39.39
-44.66
-50.58
-54.04
-51.24
-38.99
-16.15
15.56
51.89
87.44
117.28
138.1
148.66
149.37
141.72
127.83
110.27
91.8
74.89
61.06
50.56
42.55
35.82
29.37
22.82
16.28
9.98
4.21
-0.84
-5.04
-8.58
-12.27
-17.68
-26.71
-40.71
-59.63
-81.68
-103.82
-122.86
-136.66
-144.84
-148.59
-149.97
-151.02
-153.21
-157.1
-162.36
-167.81
-171.5
-170.95
-163.65
-147.71
-122.66
-89.89
-52.6
-14.92
19.52
48.8
73.11
94.2
114.14
134.1
153.9
172.48
188.81
202.61
214.29
224.44
233.13
239.71
243.25
243.3
240.47
236.27
232.44
230.04
229.02
228.29
226.39
222.13
215.14
205.95
195.71
185.71
176.76
168.78
160.64
150.53
136.67
118.18
95.53
70.48
45.18
21.29
-0.56
-20.65
-39.48
-57.14
-73.14
-86.83
-98.09
-107.6
-116.44
-125.33
-133.87
-140.32
-142.29
-137.75
-126.02
-108.18
-86.84
-65.51
-47.94
-37.5
-36.71
-46.78
-67.15
-95.34
-127.41
-158.74
-185.33
-204.73
-216.45
-221.61
-222.05
-219.54
-215.24
-209.67
-202.99
-195.32
-186.8
-177.51
-167.31
-155.76
-142.2
-126.21
-107.95
-88.3
-68.74
-50.92
-36.18
-25.15
-17.62
-12.83
-9.83
-7.9
-6.71
-6.12
-5.92
-5.53
-4.06
-0.67
5.05
12.76
21.53
30.17
37.63
43.26
46.83
48.37
48.07
46.3
43.61
40.64
37.91
35.5
33.03
29.84
25.41
19.81
13.65
7.94
3.55
0.98
0.27
1.13
3.21
6.09
9.36
12.53
15.19
17.11
18.29
19.0
19.52
20.01
20.45
20.68
20.51
19.8
18.5
16.62
14.35
12.07
10.36
9.81
10.79
13.16
16.36
19.6
22.2
23.8
24.43
24.27
23.43
21.86
19.42
16.04
11.87
7.25
2.68
-1.44
-4.8
-7.2
-8.5
-8.56
-7.3
-4.77
-1.28
2.71
6.66
10.13
12.89
14.93
16.39
17.37
17.95
18.08
17.76
17.03
15.96
14.63
13.12
11.46
9.67
7.8
5.95
4.21
2.66
1.31
0.17
-0.84
-1.81
-2.85
-4.01
-5.29
-6.65
-8.05
-9.54
-11.24
-13.26
-15.58
-17.93
-19.82
-20.68
-20.07
-17.91
-14.46
-10.25
-5.84
-1.62
2.26
5.82
9.12
12.15
14.79
16.82
18.05
18.4
17.97
16.96
15.65
14.29
13.04
12.0
11.17
10.49
9.87
9.19
8.34
7.26
5.91
4.31
2.54
0.67
-1.23
-3.13
-5.08
-7.2
-9.59
-12.33
-15.34
-18.43
-21.23
-23.38
-24.58
-24.73
-23.91
-22.46
-20.8
-19.41
-18.64
-18.62
-19.27
-20.32
-21.46
-22.43
-23.18
-23.9
-24.91
-26.62
-29.41
-33.46
-38.68
-44.68
-50.83
-56.58
-61.7
-66.56
-72.09
-79.48
-89.65
-102.7
-117.57
-132.3
-144.51
-152.16
-154.04
-149.88
-140.35
-126.81
-111.25
-95.95
-82.97
-73.37
-66.55
-60.09
-50.6
-35.15
-12.86
14.6
43.5
69.78
90.74
105.89
116.68
125.19
132.91
140.04
145.8
149.25
150.11
149.02
147.21
145.66
144.55
143.12
140.09
134.48
126.21
116.3
106.48
98.43
93.1
90.39
89.32
88.54
86.8
83.31
77.81
70.55
62.14
53.51
45.75
39.89
36.66
36.33
38.65
43.04
48.77
55.08
61.29
66.7
70.77
73.11
73.59
72.3
69.4
64.9
58.67
50.54
40.53
29.02
16.66
4.14
-7.94
-19.17
-29.18
-37.49
-43.48
-46.63
-46.84
-44.64
-41.14
-37.58
-34.94
-33.57
-33.17
-33.07
-32.6
-31.41
-29.52
-27.34
-25.39
-24.17
-24.05
-25.18
-27.37
-30.01
-31.95
-31.73
-27.85
-19.37
-6.35
10.01
27.55
43.86
56.9
65.61
69.96
70.74
68.94
65.43
60.71
55.17
49.34
44.09
40.33
38.57
38.47
38.73
37.68
33.94
27.18
18.26
8.68
-0.15
-7.65
-14.08
-20.23
-26.64
-33.29
-39.61
-44.9
-48.84
-51.65
-53.92
-56.07
-57.97
-58.84
-57.51
-52.94
-44.7
-33.2
-19.6
-5.46
7.64
18.45
26.33
31.31
34.14
36.12
38.78
43.46
50.85
60.73
72.07
83.43
93.52
101.62
107.66
112.06
115.46
118.55
121.98
126.43
132.36
139.7
147.46
153.65
155.63
150.9
137.99
116.97
89.46
58.1
25.72
-5.28
-33.28
-57.42
-77.41
-93.33
-105.47
-114.3
-120.38
-124.27
-126.52
-127.6
-127.88
-127.66
-127.04
-125.92
-124.0
-120.91
-116.37
-110.36
-103.33
-96.01
-89.11
-83.12
-78.49
-75.83
-75.88
-79.19
-85.54
-93.56
-101.1
-106.04
-107.17
-104.65
-99.59
-93.18
-85.92
-77.51
-67.41
-55.81
-44.1
-34.45
-28.83
-27.82
-30.21
-33.57
-35.32
-33.95
-29.65
-24.3
-20.58
-20.84
-26.22
-36.19
-48.86
-61.71
-72.39
-79.39
-82.2
-81.2
-77.26
-71.32
-64.14
-56.21
-47.93
-39.75
-32.29
-26.17
-21.75
-18.92
-17.15
-15.71
-14.09
-12.14
-10.14
-8.47
-7.33
-6.58
-5.79
-4.43
-2.18
0.92
4.39
7.55
9.69
10.37
9.54
7.53
4.91
2.26
0.02
-1.61
-2.7
-3.56
-4.67
-6.48
-9.29
-12.99
-17.05
-20.59
-22.69
-22.69
-20.41
-16.15
-10.53
-4.19
2.35
8.69
14.44
19.18
22.52
24.21
24.33
23.33
21.81
20.36
19.38
18.99
19.2
19.87
20.81
21.85
22.8
23.56
24.2
24.88
25.75
26.79
27.65
27.75
26.56
23.81
19.64
14.49
8.87
3.1
-2.72
-8.58
-14.31
-19.48
-23.47
-25.71
-25.9
-24.12
-20.86
-16.71
-12.23
-7.74
-3.32
1.06
5.45
9.73
13.58
16.63
18.55
19.16
18.55
17.08
15.27
