24.53
24.6
24.87
25.0
24.7
23.94
22.89
21.82
21.02
20.53
20.21
19.7
18.59
16.52
13.4
9.36
4.8
0.21
-3.9
-7.13
-9.34
-10.64
-11.46
-12.36
-13.87
-16.32
-19.7
-23.69
-27.81
-31.55
-34.57
-36.76
-38.25
-39.28
-40.06
-40.61
-40.72
-40.01
-38.08
-34.72
-30.01
-24.31
-18.14
-11.98
-6.16
-0.87
3.85
8.02
11.65
14.77
17.35
19.32
20.53
20.82
20.11
18.5
16.35
14.19
12.63
12.09
12.72
14.34
16.61
19.15
21.71
24.13
26.29
28.03
29.05
28.97
27.51
24.59
20.46
15.64
10.73
6.29
2.61
-0.27
-2.49
-4.35
-6.08
-7.82
-9.56
-11.19
-12.61
-13.82
-14.96
-16.3
-18.09
-20.45
-23.25
-26.13
-28.57
-30.05
-30.2
-28.9
-26.27
-22.61
-18.28
-13.6
-8.86
-4.24
0.1
4.01
7.35
10.01
11.97
13.29
14.07
14.44
14.53
14.41
14.19
13.96
13.75
13.6
13.5
13.47
13.57
13.79
14.1
14.36
14.42
14.16
13.57
12.74
11.82
10.9
9.99
9.03
7.93
6.69
5.29
3.74
2.03
0.15
-1.86
-3.86
-5.62
-7.0
-7.98
-8.74
-9.57
-10.78
-12.54
-14.83
-17.41
-19.85
-21.65
-22.32
-21.54
-19.28
-15.8
-11.64
-7.39
-3.57
-0.5
1.81
3.56
5.05
6.53
8.09
9.68
11.06
11.99
12.27
11.9
11.06
10.02
9.06
8.37
7.95
7.72
7.58
7.44
7.25
6.97
6.59
6.09
5.48
4.82
4.19
3.66
3.23
2.9
2.59
2.19
1.58
0.67
-0.58
-2.13
-3.88
-5.67
-7.38
-8.97
-10.49
-12.04
-13.74
-15.68
-17.92
-20.46
-23.28
-26.26
-29.07
-31.28
-32.33
-31.81
-29.6
-25.98
-21.49
-16.75
-12.17
-7.92
-3.98
-0.35
2.82
5.28
6.81
7.43
7.43
7.31
7.49
8.17
9.27
10.5
11.62
12.49
13.13
13.6
13.92
14.0
13.77
13.2
12.41
11.53
10.7
9.9
9.02
7.9
6.4
4.52
2.38
0.17
-1.93
-3.76
-5.27
-6.49
-7.53
-8.5
-9.45
-10.36
-11.16
-11.82
-12.41
-13.12
-14.19
-15.8
-17.94
-20.38
-22.74
-24.55
-25.46
-25.27
-23.94
-21.6
-18.45
-14.75
-10.73
-6.62
-2.62
1.12
4.46
7.29
9.51
11.06
11.95
12.24
12.01
11.38
10.53
9.61
8.82
8.29
8.1
8.23
8.61
9.06
9.38
9.36
8.85
7.86
6.52
5.1
3.88
3.09
2.8
2.93
3.31
3.75
4.13
4.42
4.64
4.8
4.84
4.61
3.9
2.52
0.32
-2.77
-6.69
-11.26
-16.12
-20.79
-24.73
-27.45
-28.65
-28.3
-26.58
-23.79
-20.25
-16.24
-12.0
-7.76
-3.74
-0.11
2.98
5.46
7.29
8.49
9.12
9.35
9.47
9.8
10.55
11.75
13.2
14.59
15.66
16.36
16.83
17.32
17.99
18.78
19.43
19.61
19.1
17.94
16.39
14.83
13.47
12.28
10.93
9.06
6.44
3.19
-0.27
-3.45
-5.97
-7.81
-9.22
-10.59
-12.26
-14.4
-16.98
-19.9
-22.94
-25.86
-28.33
-29.95
-30.29
-29.05
-26.12
-21.7
-16.23
-10.29
-4.44
0.91
5.54
9.37
12.35
14.43
15.58
15.86
15.48
14.77
14.14
13.89
14.15
14.82
15.71
16.62
17.42
18.03
18.42
18.47
18.03
16.92
15.08
12.61
9.71
6.62
3.51
0.45
-2.6
-5.65
-8.68
-11.65
-14.51
-17.34
-20.22
-23.21
-26.19
-28.92
-31.1
-32.61
-33.55
-34.2
-34.83
-35.46
-35.78
-35.24
-33.25
-29.48
-23.97
-17.05
-9.27
-1.15
6.79
14.18
20.63
25.88
29.75
32.18
33.24
33.12
32.09
30.45
28.46
26.32
24.11
21.83
19.48
17.08
14.72
12.55
10.72
9.3
8.25
7.46
6.8
6.17
5.53
4.83
4.03
3.09
1.97
0.69
-0.71
-2.19
-3.75
-5.39
-7.11
-8.96
-10.88
-12.84
-14.83
-16.82
-18.85
-20.96
-23.14
-25.26
-27.02
-27.96
-27.62
-25.64
-22.01
-17.01
-11.2
-5.16
0.64
5.96
10.7
14.85
18.4
21.24
23.24
24.34
24.62
24.32
23.78
23.35
23.27
23.55
24.07
24.64
25.14
25.55
25.9
26.1
25.88
24.81
22.54
19.02
14.6
9.95
5.73
2.32
-0.38
-2.72
-5.12
-7.67
-10.11
-12.0
-13.01
-13.19
-12.98
-13.01
-13.78
-15.47
-17.94
-20.83
-23.76
-26.4
-28.45
-29.58
-29.42
-27.74
-24.61
-20.41
-15.74
-11.15
-6.98
-3.2
0.37
3.95
7.53
10.97
14.01
16.48
18.31
19.55
20.34
20.85
21.38
22.22
23.65
25.82
28.6
31.65
34.44
36.46
37.28
36.65
34.58
31.25
27.12
22.77
18.7
15.11
11.69
7.74
2.51
-4.34
-12.36
-20.35
-26.8
-30.58
-31.44
-30.08
-27.87
-26.19
-25.93
-27.22
-29.47
-31.69
-32.78
-31.84
-28.42
-22.63
-15.12
-6.93
0.87
7.48
12.57
16.26
18.89
20.7
21.78
22.08
21.63
20.71
19.75
19.14
19.03
19.15
19.0
18.18
16.65
14.78
13.19
12.33
12.3
12.72
12.98
12.54
11.24
9.31
7.13
5.05
3.17
1.35
-0.58
-2.72
-5.02
-7.33
-9.48
-11.4
-13.07
-14.54
-15.86
-17.05
-18.27
-19.71
-21.63
-24.18
-27.23
-30.34
-32.78
-33.8
-32.89
-30.03
-25.6
-20.3
-14.82
-9.63
-4.83
-0.35
3.99
8.19
12.06
15.28
17.53
18.69
18.86
18.4
17.73
17.21
16.98
16.98
16.99
16.89
16.64
16.4
16.37
16.67
17.21
17.73
17.86
17.27
15.82
13.57
10.72
7.6
4.53
1.78
-0.54
-2.46
-4.15
-5.81
-7.59
-9.52
-11.54
-13.55
-15.44
-17.2
-18.86
-20.47
-22.15
-23.99
-26.06
-28.33
-30.58
-32.42
-33.32
-32.87
-30.85
-27.4
-22.87
-17.66
-12.1
-6.37
-0.66
4.77
9.58
13.44
16.22
18.04
19.19
19.96
20.46
20.66
20.44
19.84
19.09
18.55
18.49
18.97
19.83
20.79
21.58
22.01
21.93
21.2
19.66
17.27
14.18
10.75
7.5
4.85
3.0
1.79
0.84
-0.26
-1.74
-3.55
-5.46
-7.24
-8.8
-10.29
-11.93
-13.9
-16.23
-18.81
-21.51
-24.22
-26.79
-29.0
-30.47
-30.73
-29.39
-26.36
-21.88
-16.56
-11.11
-6.15
-2.02
1.23
3.76
5.81
7.57
9.13
10.47
11.51
12.2
12.51
12.47
12.08
11.29
10.12
8.66
7.15
5.95
5.35
5.4
5.89
6.35
6.3
5.43
3.7
1.27
-1.62
-4.82
-8.31
-12.09
-16.14
-20.3
-24.41
-28.32
-31.98
-35.42
-38.72
-41.95
-45.2
-48.57
-52.18
-56.11
-60.36
-64.83
-69.36
-73.84
-78.23
-82.51
-86.67
-90.56
-94.04
-97.03
-99.63
-102.04
-104.39
-106.49
-107.82
-107.77
-105.92
-102.32
-97.25
-90.93
-83.23
-73.68
-61.95
-48.39
-34.22
-21.1
-10.29
-1.93
5.08
12.37
21.16
31.47
42.14
51.62
58.93
64.21
68.57
73.4
79.5
86.73
94.26
101.09
106.66
110.89
113.91
115.69
115.89
114.02
109.89
103.84
96.78
89.85
83.91
79.16
75.17
71.22
66.72
61.62
56.38
51.8
48.65
47.39
48.06
50.22
53.13
55.9
57.74
58.1
56.72
53.63
49.12
43.7
38.03
32.78
28.41
25.05
22.48
20.25
17.9
15.19
12.15
9.07
6.34
4.24
2.85
2.0
1.36
0.53
-0.82
-2.84
-5.39
-8.13
-10.71
-12.89
-14.74
-16.54
-18.53
-20.77
-23.03
-24.88
-25.97
-26.2
-25.76
-25.05
-24.48
-24.35
-24.83
-25.96
-27.67
-29.77
-31.88
-33.5
-34.06
-33.17
-30.66
-26.69
-21.66
-16.09
-10.51
-5.36
-0.94
2.64
5.46
7.71
9.63
11.37
12.94
14.22
15.09
15.55
15.75
15.95
16.38
17.1
18.01
18.85
19.39
19.48
19.1
18.33
17.29
16.06
14.69
13.13
11.39
9.46
7.39
5.27
3.14
1.05
-1.03
-3.12
-5.24
-7.41
-9.61
-11.84
-14.17
-16.68
-19.48
-22.55
-25.73
-28.68
-30.89
-31.9
-31.38
-29.31
-25.95
-21.77
-17.26
-12.78
-8.51
-4.54
-0.89
2.36
5.05
7.0
8.12
8.43
8.13
7.55
7.0
6.66
6.55
6.57
6.61
6.58
6.5
6.43
6.37
6.23
5.84
5.1
3.96
2.54
1.01
-0.47
-1.85
-3.15
-4.42
-5.71
-7.02
-8.38
-9.76
-11.2
-12.77
-14.58
-16.71
-19.21
-22.09
-25.27
-28.51
-31.4
-33.4
-33.94
-32.62
-29.4
-24.61
-18.91
-13.0
-7.45
-2.53
1.79
5.64
9.07
11.98
14.16
15.39
15.66
15.16
14.29
13.5
13.14
13.4
14.23
15.47
16.87
18.15
19.08
19.49
19.25
18.33
16.78
14.77
12.55
10.33
8.28
6.39
4.53
2.5
0.16
-2.46
-5.18
-7.73
-9.93
-11.75
-13.36
-15.03
-17.02
-19.52
-22.57
-26.05
-29.62
-32.78
-34.92
-35.5
-34.19
-31.02
-26.32
-20.62
-14.47
-8.35
-2.62
2.47
6.76
10.17
12.73
14.59
15.91
16.84
17.47
17.8
17.9
17.87
17.86
18.03
18.44
19.02
19.61
20.03
20.15
19.88
19.21
18.16
16.81
15.27
13.65
11.98
10.24
8.3
6.05
3.48
0.69
-2.1
-4.7
-7.02
-9.12
-11.18
-13.42
-15.99
-18.91
-22.14
-25.49
-28.65
-31.16
-32.5
-32.21
-30.08
-26.25
-21.18
-15.46
-9.65
-4.1
1.0
5.54
9.41
12.46
14.59
15.8
16.21
16.09
15.73
15.37
15.24
15.44
15.94
16.63
17.31
17.78
17.91
17.69
17.15
16.35
15.34
14.14
12.77
11.23
9.5
7.59
5.45
3.1
0.59
-1.98
-4.5
-6.87
-9.09
-11.19
-13.26
-15.47
-17.96
-20.87
-24.22
-27.78
-31.04
-33.31
-33.92
-32.53
-29.21
-24.44
-18.91
-13.26
-7.96
-3.23
0.86
4.29
7.07
9.23
10.81
11.88
12.56
12.91
13.06
13.11
13.24
13.6
14.27
15.21
16.2
17.0
17.38
17.29
16.8
16.07
15.26
14.39
13.42
12.22
10.74
8.96
6.91
4.62
2.1
-0.63
-3.49
-6.31
-8.9
-11.16
-13.15
-15.11
-17.37
-20.15
-23.39
-26.7
-29.46
-31.01
-30.86
-28.82
-25.05
-19.95
-14.04
-7.77
-1.47
4.64
10.42
15.7
20.27
23.92
26.54
28.2
29.17
29.81
30.48
31.35
32.42
33.52
34.43
35.05
35.4
35.62
35.82
35.93
35.67
34.61
32.29
28.46
23.1
16.52
9.2
1.73
-5.35
-11.63
-16.91
-21.27
-24.95
-28.24
-31.32
-34.24
-36.93
-39.34
-41.61
-44.01
-46.91
-50.55
-54.76
-58.95
-62.23
-63.72
-62.95
-59.98
-55.34
-49.7
-43.49
-36.89
-29.89
-22.68
-15.82
-10.24
-6.74
-5.68
-6.7
-9.0
-11.74
-14.5
-17.36
-20.62
-24.41
-28.48
-32.31
-35.33
-37.15
-37.56
-36.41
-33.51
-28.74
-22.28
-14.63
-6.59
1.12
8.08
14.18
19.4
23.46
25.82
25.8
23.01
17.52
9.85
0.74
-9.09
-18.98
-28.25
-36.36
-43.1
-48.74
-53.94
-59.41
-65.24
-70.72
-74.68
-76.14
-74.88
-71.53
-66.95
-61.45
-54.7
-46.32
-36.56
-26.5
-17.36
-9.31
-0.93
10.33
26.69
48.64
74.34
100.48
123.91
142.84
157.05
166.93
172.4
172.52
166.15
153.16
135.05
114.73
95.29
78.78
65.63
55.09
45.86
36.92
28.02
19.29
11.01
3.3
-3.95
-10.82
-17.31
-23.23
-28.42
-32.71
-36.11
-38.85
-41.32
-44.08
-47.69
-52.45
-58.2
-64.23
-69.46
-72.7
-73.09
-70.33
-64.71
-56.95
-47.98
-38.59
-29.37
-20.62
-12.45
-5.0
1.57
6.99
11.09
13.86
15.59
16.81
18.08
19.81
22.07
24.64
27.13
29.24
30.82
31.89
32.57
32.92
32.86
32.21
30.79
28.52
25.51
22.07
18.55
15.35
12.66
10.53
8.83
7.31
5.73
3.86
1.54
-1.31
-4.71
-8.62
-12.93
-17.52
-22.2
-26.73
-30.66
-33.43
-34.4
-33.14
-29.6
-24.2
-17.71
-10.92
-4.37
1.78
7.64
13.35
18.83
23.74
27.63
30.18
31.35
31.43
30.87
30.13
29.48
29.02
28.69
28.4
28.05
27.59
27.02
26.34
25.6
24.84
24.09
23.3
22.3
20.87
18.78
15.91
12.33
8.28
4.16
0.31
-3.09
-6.03
-8.69
-11.31
-14.13
-17.28
-20.83
-24.68
-28.6
-32.14
-34.7
-35.63
-34.39
-30.75
-24.91
-17.47
-9.3
-1.3
5.79
11.52
15.76
18.59
20.21
20.85
20.72
20.07
19.19
18.36
17.83
17.71
17.97
18.49
19.12
19.76
20.35
20.82
21.0
20.64
19.49
17.43
14.54
11.12
7.58
4.27
1.37
-1.14
-3.49
-5.98
-8.93
-12.58
-16.93
-21.68
-26.2
-29.67
-31.28
-30.5
-27.2
-21.77
-14.89
-7.43
-0.15
6.43
12.08
16.81
20.75
23.99
26.49
28.12
28.78
28.52
27.6
26.46
25.46
24.83
24.57
24.54
24.63
24.78
25.02
25.28
25.36
24.91
23.59
21.21
17.81
13.73
9.41
5.28
1.62
-1.48
-4.12
-6.55
-9.04
-11.85
-15.1
-18.82
-22.92
-27.17
-31.22
-34.58
-36.69
-36.99
-35.14
-31.11
-25.24
-18.16
-10.6
-3.2
3.57
9.49
14.42
18.28
20.94
22.34
22.49
21.61
20.09
18.41
17.04
16.27
16.14
16.52
17.12
17.62
17.81
17.57
16.93
15.96
14.76
13.36
11.75
9.91
7.83
5.58
3.22
0.81
-1.66
-4.19
-6.76
-9.31
-11.78
-14.16
-16.57
-19.22
-22.27
-25.71
-29.2
-32.18
-34.0
-34.11
-32.26
-28.48
-23.12
-16.68
-9.79
-3.07
2.93
7.82
11.46
13.86
15.22
15.75
15.64
15.03
14.08
12.98
12.0
11.35
11.14
11.31
11.67
11.97
11.98
11.62
10.93
10.02
8.99
7.84
6.5
4.87
2.92
0.75
-1.51
-3.66
-5.58
-7.25
-8.85
-10.61
-12.84
-15.71
-19.14
-22.74
-25.87
-27.81
-28.02
-26.3
-22.86
-18.19
-12.9
-7.47
-2.25
2.57
6.84
10.42
13.11
14.76
15.32
14.86
13.67
12.11
10.61
9.49
8.96
9.01
9.45
10.03
10.52
10.77
10.78
10.63
10.41
10.16
9.81
9.23
8.29
6.96
5.31
3.53
1.83
0.39
-0.73
-1.64
-2.53
-3.6
-5.0
-6.81
-8.94
-11.19
-13.19
-14.41
-14.29
-12.33
-8.27
-2.22
5.42
14.06
23.17
32.4
41.72
51.24
61.07
71.13
81.09
90.43
98.73
105.88
112.2
118.16
124.14
130.03
135.33
139.35
141.66
142.29
141.69
140.45
139.02
137.61
136.37
135.47
134.97
134.36
132.25
126.41
114.54
95.26
68.83
37.06
2.51
-32.78
-67.87
-102.84
-137.89
-172.46
-204.96
-233.29
-255.99
-272.92
-285.14
-294.04
-300.3
-303.4
-302.17
-295.89
-285.22
-272.33
-260.1
-250.7
-244.58
-240.32
-235.42
-227.57
-215.67
-199.94
-181.57
-161.87
-141.88
-122.32
-103.87
-87.26
-73.13
-61.76
-52.83
-45.51
-38.69
-31.22
-22.23
-11.24
1.64
15.63
29.32
41.11
49.8
55.15
58.18
60.74
64.61
70.64
78.26
85.9
91.9
95.48
97.03
97.82
99.18
101.77
105.36
109.13
112.28
114.51
116.11
117.56
119.21
120.85
121.88
121.58
119.41
115.29
109.57
102.91
96.16
90.11
85.3
81.8
79.16
76.64
73.48
69.19
63.66
57.09
49.81
42.24
34.85
28.1
22.37
17.82
14.23
11.06
7.58
3.24
-2.13
-8.19
-14.27
-19.68
-23.99
-27.31
-30.23
-33.54
-37.92
-43.55
-49.85
-55.52
-58.86
-58.28
-52.83
-42.59
-28.77
-13.42
1.09
12.64
19.94
22.83
22.32
20.23
18.59
18.98
21.99
27.05
32.77
37.55
40.23
40.51
38.84
36.06
32.84
29.46
25.86
21.9
17.65
13.37
9.34
5.62
1.93
-2.23
-7.31
-13.41
-20.17
-26.9
-32.85
-37.61
-41.25
-44.26
-47.32
-50.91
-55.09
-59.49
-63.47
-66.42
-67.85
-67.5
-65.19
-60.78
-54.22
-45.69
-35.75
-25.26
-15.19
-6.26
1.26
7.57
12.98
17.66
21.45
24.07
25.34
25.47
24.99
24.55
24.6
25.21
26.12
26.91
27.29
27.13
26.49
25.48
24.15
22.48
20.43
17.96
15.06
11.71
7.92
3.68
-0.89
-5.6
-10.16
-14.34
-18.03
-21.27
-24.23
-27.18
-30.36
-33.98
-38.12
-42.66
-47.18
-51.02
-53.4
-53.6
-51.29
-46.61
-40.19
-32.81
-25.2
-17.72
-10.39
-3.05
4.39
11.74
18.52
24.12
28.01
29.97
30.31
29.78
29.54
30.78
34.47
41.14
50.7
62.6
75.87
89.33
101.67
111.5
117.51
118.72
114.8
106.25
94.32
80.6
66.5
52.77
39.46
26.23
12.78
-0.97
-14.92
-29.07
-43.62
-58.78
-74.38
-89.55
-102.92
-113.14
-119.63
-122.94
-124.37
-125.09
-125.29
-123.72
-118.35
-107.39
-90.46
-68.93
-45.3
-22.18
-1.23
17.06
32.89
46.39
57.18
64.54
68.07
68.15
66.01
63.12
60.56
58.62
57.03
55.46
53.97
53.0
53.1
54.47
56.93
60.02
63.32
66.48
69.2
71.14
71.91
71.36
69.67
67.43
65.34
63.88
63.04
62.52
62.16
62.24
63.57
67.02
72.87
80.42
88.07
93.93
96.57
95.55
91.4
85.25
78.48
72.59
69.25
70.09
76.11
86.8
99.54
110.02
113.33
105.74
85.9
55.3
17.55
-22.77
-61.4
-95.18
-122.39
-142.57
-156.24
-164.48
-168.61
-169.99
-169.79
-168.91
-167.93
-166.99
-165.87
-164.03
-160.94
-156.48
-151.04
-145.34
-140.04
-135.38
-130.81
-125.41
-118.28
-108.95
-97.71
-85.82
-75.51
-69.45
-69.69
-76.45
-87.63
-99.4
-107.8
-110.52
-107.75
-101.69
-94.91
-88.82
-83.05
-76.19
-67.13
-56.12
-44.69
-34.66
-27.01
-21.23
-15.77
-9.07
-0.53
9.31
18.93
26.5
30.87
31.98
30.86
29.07
27.98
28.14
29.17
30.15
30.28
29.38
27.91
26.7
26.43
27.28
28.91
30.7
32.02
32.48
31.93
30.44
28.2
25.5
22.67
20.08
17.97
16.4
15.2
14.01
12.41
10.02
6.61
2.28
-2.5
-6.93
-10.03
-10.98
-9.34
-5.21
0.82
7.88
15.16
22.05
28.2
33.39
37.36
39.86
40.69
39.9
37.81
34.99
32.07
29.56
27.71
26.53
25.87
25.54
25.36
25.27
25.25
25.32
25.46
25.56
25.38
24.6
22.87
19.97
15.94
11.22
6.47
2.41
-0.53
-2.38
-3.56
-4.7
-6.3
-8.55
-11.38
-14.55
-17.85
-21.09
-24.05
-26.37
-27.54
-27.08
-24.73
-20.57
-15.0
-8.59
-1.93
4.52
10.4
15.53
19.83
23.29
25.93
27.77
28.78
28.94
28.4
27.46
26.6
26.22
26.49
27.18
27.78
27.77
26.86
25.1
22.85
20.59
18.7
17.35
16.44
15.64
14.5
12.63
9.86
6.35
2.54
-1.01
-3.9
-6.08
-7.85
-9.71
-12.09
-15.15
-18.73
-22.51
-26.12
-29.26
-31.61
-32.86
-32.65
-30.69
-26.92
-21.57
-15.1
-8.16
-1.36
4.82
10.06
14.18
17.09
18.76
19.28
18.82
17.67
16.2
14.84
13.97
13.82
14.37
15.31
16.17
16.51
16.09
15.02
13.65
12.35
11.35
10.61
9.84
8.72
7.08
4.9
2.39
-0.24
-2.79
-5.16
-7.29
-9.18
-10.84
-12.33
-13.83
-15.61
-17.89
-20.67
-23.73
-26.51
-28.39
-28.84
-27.58
-24.67
-20.47
-15.43
-10.02
-4.64
0.45
5.05
9.0
12.17
14.51
16.09
17.1
17.91
18.96
20.56
22.87
25.66
28.44
30.54
31.4
30.76
28.72
25.7
22.26
18.85
15.71
12.88
10.3
7.92
5.74
3.82
2.17
0.65
-0.96
-2.9
-5.36
-8.34
-11.75
-15.48
-19.43
-23.53
-27.68
-31.62
-34.94
-37.18
-37.87
-36.72
-33.69
-29.02
-23.26
-17.1
-11.26
-6.29
-2.47
0.24
2.12
3.5
4.66
5.76
6.77
7.63
8.27
8.69
8.91
8.94
8.71
8.11
7.04
5.52
3.74
2.06
0.86
0.41
0.71
1.45
2.16
2.31
1.65
0.2
-1.7
-3.6
-5.16
-6.2
-6.82
-7.28
-7.89
-8.9
-10.38
-12.17
-13.91
-15.09
-15.22
-13.9
-11.05
-6.88
-1.79
3.81
9.73
16.07
23.17
31.41
41.06
52.16
64.38
76.97
88.71
98.06
103.57
104.33
100.4
92.79
83.08
72.77
62.7
52.94
43.08
32.77
22.06
11.51
1.91
-6.11
-12.3
-16.99
-20.86
-24.72
-29.22
-34.58
-40.55
-46.56
-51.88
-55.93
-58.4
-59.26
-58.71
-57.08
-54.69
-51.91
-49.08
-46.53
-44.51
-43.11
-42.28
-41.8
-41.33
-40.43
-38.57
-35.4
-30.81
-25.08
-18.79
-12.56
-6.8
-1.61
3.14
7.59
11.74
15.31
18.02
19.76
20.69
21.26
21.96
23.06
24.46
25.8
26.63
26.66
25.91
24.55
22.88
21.04
19.1
17.01
14.74
12.32
9.9
7.67
5.75
4.22
2.97
1.86
0.72
-0.6
-2.24
-4.3
-6.89
-10.05
-13.7
-17.62
-21.44
-24.69
-26.91
-27.76
-27.12
-25.06
-21.83
-17.77
-13.28
-8.7
-4.36
-0.51
2.68
5.08
6.63
7.34
7.34
6.82
6.04
5.27
4.71
4.41
4.33
4.37
4.44
4.5
4.54
4.52
4.37
4.01
3.39
2.51
1.39
0.11
-1.26
-2.65
-3.97
-5.18
-6.26
-7.29
-8.35
-9.53
-10.87
-12.33
-13.88
-15.52
-17.32
-19.43
-21.97
-24.95
-28.17
-31.3
-33.87
-35.45
-35.77
-34.81
-32.81
-30.16
-27.28
-24.43
-21.71
-19.07
-16.48
-14.0
-11.85
-10.29
-9.52
-9.57
-10.28
-11.36
-12.44
-13.11
-12.99
-11.78
-9.35
-5.74
-1.12
4.23
10.01
15.93
21.7
27.02
31.64
35.37
38.15
40.0
40.99
41.21
40.68
39.41
37.41
34.71
31.41
27.6
23.4
18.86
14.05
9.0
3.72
-1.68
-7.03
-12.05
-16.39
-19.7
-21.79
-22.57
-22.18
-20.83
-18.8
-16.35
-13.67
-10.95
-8.38
-6.16
-4.44
-3.23
-2.41
-1.66
-0.62
0.98
3.19
5.77
8.28
10.3
11.52
11.95
11.82
11.49
11.29
11.4
11.78
12.22
12.44
12.12
11.05
9.22
6.77
3.97
1.05
-1.78
-4.46
-7.01
-9.54
-12.19
-15.17
-18.71
-23.03
-28.22
-34.11
-40.27
-46.06
-50.91
-54.39
-56.33
-56.71
-55.51
-52.65
-48.03
-41.79
-34.47
