12.2
10.81
9.47
8.01
6.23
4.1
1.78
-0.41
-2.25
-3.74
-5.14
-6.81
-9.03
-11.87
-15.18
-18.75
-22.44
-26.14
-29.77
-33.07
-35.59
-36.77
-36.12
-33.49
-29.14
-23.65
-17.73
-11.95
-6.63
-1.85
2.41
6.15
9.3
11.74
13.43
14.45
14.96
15.18
15.28
15.35
15.44
15.63
15.95
16.42
16.99
17.51
17.78
17.65
17.03
15.95
14.57
13.01
11.41
9.78
8.07
6.19
4.02
1.55
-1.16
-3.96
-6.71
-9.32
-11.75
-14.07
-16.37
-18.8
-21.52
-24.68
-28.24
-32.01
-35.45
-37.86
-38.54
-37.05
-33.45
-28.2
-22.06
-15.71
-9.64
-4.03
1.09
5.67
9.6
12.69
14.85
16.1
16.61
16.64
16.41
16.1
15.83
15.69
15.72
15.92
16.21
16.51
16.73
16.84
16.86
16.76
16.48
15.86
14.74
12.97
10.56
7.7
4.65
1.77
-0.69
-2.64
-4.19
-5.57
-7.1
-9.08
-11.72
-15.11
-19.15
-23.5
-27.55
-30.53
-31.68
-30.5
-27.01
-21.72
-15.51
-9.29
-3.69
1.03
4.97
8.29
11.05
13.14
14.41
14.78
14.37
13.51
12.58
11.85
11.44
11.27
11.26
11.34
11.5
11.74
12.03
12.22
12.13
11.65
10.76
9.49
7.9
5.96
3.6
0.84
-2.24
-5.37
-8.31
-10.9
-13.17
-15.32
-17.61
-20.22
-23.22
-26.47
-29.74
-32.67
-34.86
-35.84
-35.26
-32.94
-29.02
-23.95
-18.31
-12.66
-7.33
-2.43
2.07
6.12
9.47
11.73
12.55
11.92
10.21
8.11
6.27
5.07
4.47
4.12
3.65
2.88
1.9
0.92
0.1
-0.52
-0.91
-0.79
0.35
3.08
7.53
13.06
18.29
21.67
22.3
20.48
17.56
15.15
14.25
14.8
15.92
16.56
16.12
14.65
12.48
9.9
6.98
3.76
0.53
-2.1
-3.47
-3.17
-1.33
1.57
4.91
8.33
11.66
14.82
17.66
19.9
21.21
21.24
19.65
16.18
10.94
4.69
-1.03
-4.2
-3.21
2.2
10.32
17.93
21.74
19.95
13.39
5.01
-1.63
-4.48
-4.1
-3.35
-5.61
-12.71
-23.78
-35.69
-44.99
-49.84
-51.04
-51.29
-53.26
-57.87
-63.55
-67.24
-66.13
-59.19
-47.53
-33.53
-19.43
-6.44
5.2
15.44
23.69
28.7
29.34
25.48
18.37
10.23
3.31
-1.06
-2.78
-2.63
-1.69
-0.7
0.13
0.98
2.2
4.04
6.46
9.13
11.64
13.7
15.61
18.15
22.18
27.99
34.63
40.08
42.06
39.26
32.19
23.1
14.88
9.72
8.22
9.38
11.46
13.04
13.63
13.51
13.3
13.37
13.77
14.52
15.97
18.79
23.65
30.67
39.2
48.12
56.3
62.9
67.34
69.07
67.35
61.57
51.76
39.03
25.49
13.51
4.78
-0.42
-3.17
-5.17
-7.73
-11.25
-15.19
-18.69
-21.12
-22.42
-23.05
-23.72
-25.04
-27.24
-30.17
-33.35
-36.23
-38.47
-40.04
-41.25
-42.59
-44.45
-46.94
-49.91
-53.07
-56.07
-58.72
-60.87
-62.32
-62.75
-61.76
-59.01
-54.49
-48.55
-41.83
-34.98
-28.38
-22.02
-15.62
-8.81
-1.49
6.17
13.81
21.05
27.64
33.53
38.8
43.52
47.68
51.17
53.82
55.51
56.24
56.25
56.02
56.15
57.08
58.76
60.33
60.27
56.86
48.99
36.68
21.22
4.8
-10.31
-22.45
-30.86
-35.73
-37.76
-37.85
-36.83
-35.39
-33.98
-32.79
-31.69
-30.32
-28.27
-25.25
-21.28
-16.6
-11.53
-6.38
-1.24
4.06
9.96
17.11
25.99
36.3
46.53
54.08
56.06
50.61
37.94
20.5
2.17
-13.2
-23.14
-27.06
-25.91
-21.33
-14.9
-7.83
-0.99
4.96
9.52
12.54
14.28
15.38
16.46
18.01
20.15
22.72
25.3
27.4
28.74
29.52
30.37
31.98
34.5
36.89
37.13
32.93
22.92
7.44
-11.54
-31.33
-49.59
-65.01
-76.97
-84.94
-87.95
-84.95
-75.67
-61.38
-44.92
-29.69
-18.2
-11.14
-7.3
-4.41
-0.46
5.53
13.34
21.92
30.16
37.4
43.52
48.78
53.46
57.73
61.58
65.04
68.27
71.44
74.34
76.05
74.93
69.27
58.11
41.93
22.67
3.05
-14.5
-28.65
-39.39
-47.5
-53.86
-58.9
-62.56
-64.72
-65.5
-65.33
-64.76
-64.14
-63.38
-62.07
-59.73
-56.01
-50.85
-44.42
-37.02
-28.92
-20.33
-11.39
-2.28
6.72
15.23
22.86
29.37
34.62
38.73
41.96
44.7
47.35
50.22
53.21
55.65
56.26
53.62
46.82
36.0
22.51
8.45
-4.17
-14.11
-21.14
-25.69
-28.31
-29.21
-28.41
-26.08
-22.98
-20.3
-19.14
-19.87
-21.78
-23.47
-23.58
-21.52
-17.78
-13.62
-10.31
-8.48
-7.86
-7.43
-6.0
-2.66
3.02
10.95
20.41
29.95
37.36
40.13
36.47
26.28
11.54
-4.21
-17.37
-25.72
-29.13
-29.04
-27.33
-25.03
-22.14
-18.22
-13.21
-7.94
-3.68
-1.28
-0.47
-0.01
1.62
5.26
10.63
16.63
21.94
25.73
27.84
28.72
29.02
29.39
30.39
32.27
34.66
36.25
35.02
29.03
17.45
1.27
-16.79
-33.49
-46.41
-54.81
-59.58
-62.21
-63.65
-63.82
-61.91
-57.3
-50.35
-42.54
-35.78
-31.52
-29.87
-29.48
-28.11
-23.58
-14.85
-2.51
11.35
24.19
34.02
40.26
43.65
45.64
47.34
48.98
49.97
49.48
47.18
43.54
39.61
36.39
34.26
32.83
31.15
28.38
24.23
19.05
13.62
8.65
4.41
0.69
-3.01
-7.16
-11.92
-17.08
-22.23
-26.86
-30.59
-33.11
-34.26
-33.98
-32.33
-29.57
-26.07
-22.19
-18.21
-14.31
-10.59
-7.15
-4.19
-1.97
-0.69
-0.4
-0.89
-1.74
-2.46
-2.69
-2.29
-1.44
-0.47
0.29
0.65
0.61
0.31
-0.13
-0.67
-1.34
-2.2
-3.27
-4.5
-5.81
-7.12
-8.39
-9.6
-10.73
-11.8
-12.89
-14.22
-15.99
-18.36
-21.32
-24.6
-27.79
-30.39
-31.92
-32.06
-30.65
-27.77
-23.72
-18.97
-14.09
-9.58
-5.71
-2.52
0.08
2.19
3.84
4.97
5.6
5.91
6.22
6.87
8.05
9.65
11.33
12.65
13.25
13.03
12.18
11.01
9.85
8.81
7.81
6.57
4.8
2.34
-0.74
-4.15
-7.55
-10.64
-13.36
-15.75
-17.88
-19.83
-21.64
-23.34
-24.98
-26.6
-28.12
-29.32
-29.82
-29.3
-27.53
-24.52
-20.43
-15.52
-10.05
-4.24
1.65
7.3
12.36
16.43
19.27
20.78
21.16
20.77
20.11
19.66
19.71
20.34
21.36
22.54
23.67
24.72
25.78
27.0
28.41
29.9
31.17
31.98
32.15
31.79
31.2
30.84
31.09
32.06
33.58
35.32
36.94
38.3
39.47
40.63
41.96
43.63
45.84
48.8
52.61
57.05
61.35
64.28
64.67
61.83
55.84
47.28
36.68
24.09
9.17
-8.32
-27.93
-48.27
-67.43
-83.66
-95.97
-104.18
-108.59
-109.57
-107.44
-102.74
-96.45
-89.83
-84.06
-79.71
-76.72
-74.72
-73.51
-73.32
-74.55
-77.34
-81.18
-85.0
-87.58
-88.14
-86.47
-82.77
-77.28
-70.12
-61.43
-51.56
-41.21
-31.15
-21.82
-13.28
-5.49
1.29
6.2
8.12
6.51
2.09
-3.08
-6.46
-6.39
-2.87
2.56
7.94
12.2
15.63
19.35
24.19
29.76
34.55
36.77
35.54
31.5
26.52
22.73
21.54
23.15
26.6
30.41
33.19
34.03
32.72
29.68
25.79
21.9
18.62
16.04
13.93
11.99
10.27
9.27
9.78
12.48
17.57
24.62
32.73
40.92
48.51
55.31
61.6
67.75
73.94
79.92
85.14
88.93
90.91
91.05
89.71
87.39
84.53
81.35
77.92
74.27
70.45
66.54
62.61
58.72
54.91
51.26
47.91
44.99
42.54
40.42
38.37
36.16
33.81
31.53
29.56
27.94
26.27
23.92
20.36
15.56
10.06
4.83
0.72
-1.81
-2.8
-2.57
-1.46
0.37
2.78
5.54
8.17
10.08
10.8
10.1
8.09
4.96
0.8
-4.46
-10.96
-18.6
-26.87
-34.87
-41.54
-46.06
-48.12
-48.06
-46.72
-45.16
-44.32
-44.7
-46.05
-47.4
-47.3
-44.32
-37.73
-28.0
-16.92
-7.16
-1.29
-0.86
-5.75
-14.36
-24.3
-33.12
-38.86
-40.42
-37.88
-32.86
-28.35
-27.85
-33.69
-45.55
-60.03
-71.94
-76.81
-73.12
-63.03
-51.0
-41.16
-35.14
-31.81
-28.77
-24.57
-19.86
-16.81
-17.26
-21.13
-26.07
-28.65
-26.17
-17.85
-4.97
10.09
24.88
37.71
47.65
54.35
57.88
58.64
57.46
55.36
53.17
51.05
48.4
44.23
37.79
29.2
19.51
10.37
3.29
-0.94
-2.51
-2.49
-2.36
-3.59
-7.14
-13.38
-22.04
-32.34
-43.18
-53.19
-60.99
-65.44
-65.96
-62.76
-56.73
-49.1
-40.95
-32.88
-25.09
-17.6
-10.61
-4.6
-0.17
2.22
2.56
1.28
-0.92
-3.3
-5.38
-6.91
-7.83
-8.06
-7.41
-5.59
-2.32
2.4
8.19
14.29
19.82
24.05
26.76
28.18
28.86
29.26
29.54
29.55
28.89
27.23
24.51
20.94
16.95
12.93
9.11
5.56
2.26
-0.66
-2.89
-3.89
-3.28
-0.99
2.54
6.58
10.39
13.63
16.44
19.31
22.68
26.56
30.5
33.66
35.29
35.01
32.97
29.77
26.21
23.01
20.55
18.94
17.96
17.24
16.31
14.75
12.31
8.95
4.96
0.77
-3.14
-6.47
-9.3
-11.95
-14.84
-18.14
-21.68
-24.97
-27.47
-28.8
-28.94
-28.22
-27.12
-26.09
-25.4
-25.07
-24.92
-24.64
-23.89
-22.38
-20.03
-16.96
-13.44
-9.74
-6.03
-2.31
1.47
5.35
9.2
12.69
15.5
17.42
18.48
18.87
18.85
18.51
17.82
16.68
15.09
13.26
11.5
10.12
9.28
8.91
8.8
8.76
8.71
8.71
8.87
9.21
9.6
9.74
9.28
7.94
5.54
2.12
-2.18
-7.03
-12.01
-16.66
-20.52
-23.21
-24.52
-24.37
-22.8
-19.96
-16.1
-11.63
-7.05
-2.88
0.54
3.17
5.26
7.19
9.16
11.08
12.52
13.0
12.23
10.3
7.69
4.95
2.5
0.42
-1.47
-3.4
-5.52
-7.74
-9.83
-11.58
-13.03
-14.44
-16.2
-18.67
-21.94
-25.78
-29.76
-33.45
-36.73
-39.81
-43.24
-47.57
-53.08
-59.62
-66.61
-73.35
-79.29
-84.35
-88.87
-93.37
-98.23
-103.43
-108.61
-113.38
-117.7
-121.99
-126.99
-133.28
-141.08
-150.17
-160.35
-171.7
-184.7
-199.65
-215.95
-231.65
-243.56
-248.29
-243.49
-228.75
-205.75
-177.54
-147.39
-117.91
-90.42
-65.05
-41.04
-17.08
8.58
37.99
73.31
116.18
166.61
222.01
276.97
324.39
357.59
372.82
370.68
355.84
335.02
314.26
296.86
282.91
270.45
257.27
242.38
226.22
209.98
194.63
180.3
166.53
152.82
139.15
126.16
114.65
105.08
97.09
89.58
81.2
71.1
59.45
47.45
36.85
29.17
25.03
23.92
24.39
24.7
23.43
19.98
14.44
7.44
-0.32
-8.32
-16.23
-23.87
-31.07
-37.63
-43.3
-47.88
-51.22
-53.18
-53.67
-52.69
-50.31
-46.81
-42.56
-38.01
-33.6
-29.66
-26.43
-24.02
-22.43
-21.57
-21.29
-21.53
-22.27
-23.6
-25.52
-27.85
-30.14
-31.81
-32.36
-31.58
-29.68
-27.16
-24.65
-22.65
-21.37
-20.77
-20.59
-20.56
-20.39
-19.88
-18.95
-17.76
-16.7
-16.31
-17.17
-19.57
-23.42
-27.98
-32.06
-34.19
-33.15
-28.45
-20.53
-10.76
-0.81
7.81
14.16
17.92
19.15
17.99
14.59
9.38
3.24
-2.49
-6.38
-7.53
-6.02
-2.88
0.38
2.47
2.84
1.75
0.0
-1.54
-2.38
-2.49
-2.19
-1.96
-2.17
-2.95
-4.25
-5.85
-7.54
-9.18
-10.78
-12.41
-14.2
-16.23
-18.44
-20.71
-22.83
-24.58
-25.76
-26.2
-25.74
-24.31
-21.92
-18.72
-14.98
-11.09
-7.42
-4.28
-1.82
-0.08
0.96
1.32
1.06
0.31
-0.72
-1.79
-2.67
-3.26
-3.57
-3.72
-3.78
-3.81
-3.82
-3.82
-3.94
-4.36
-5.2
-6.5
-8.1
-9.8
-11.38
-12.76
-14.02
-15.35
-16.91
-18.77
-20.82
-22.8
-24.31
-24.95
-24.36
-22.3
-18.76
-13.93
-8.24
-2.24
3.54
8.74
13.16
16.71
19.37
21.05
21.68
21.3
20.15
18.69
17.42
16.69
16.59
16.93
17.33
17.5
17.3
16.72
15.79
14.49
12.77
10.58
8.02
5.26
2.57
0.13
-2.03
-4.13
-6.51
-9.53
-13.39
-18.0
-22.92
-27.49
-30.89
-32.44
-31.72
-28.73
-23.82
-17.6
-10.8
-4.06
2.14
7.51
11.92
15.31
17.65
18.96
19.3
18.86
17.95
16.97
16.26
16.02
16.22
16.66
17.05
17.18
16.93
16.33
15.44
14.29
12.87
11.14
9.05
6.71
4.24
1.85
-0.32
-2.27
-4.06
-5.89
-7.98
-10.51
-13.57
-17.12
-20.89
-24.39
-27.0
-28.06
-27.15
-24.16
-19.44
-13.59
-7.28
-1.07
4.78
10.14
14.9
18.86
21.75
23.35
23.71
23.17
22.28
21.57
21.37
21.73
22.43
23.16
23.67
23.86
23.78
23.61
23.55
23.69
24.02
24.35
24.38
23.89
22.83
21.35
19.86
18.82
18.52
18.98
19.89
20.73
20.99
20.37
18.93
17.14
15.73
15.52
17.24
21.32
27.86
36.5
46.46
56.51
65.19
71.25
73.97
73.49
70.71
66.77
62.4
57.57
51.64
43.96
34.68
25.05
17.04
12.5
12.27
15.86
21.74
28.08
33.46
37.19
39.19
39.63
38.78
36.93
34.44
31.76
29.19
26.59
23.18
17.64
8.54
-5.17
-23.46
-45.17
-68.19
-90.18
-109.35
-125.01
-137.52
-147.78
-156.56
-163.98
-169.4
-171.86
-170.56
-165.3
-156.4
-144.51
-130.38
-114.79
-98.6
-82.81
-68.41
-56.11
-46.07
-37.88
-30.74
-23.97
-17.25
-10.73
-4.83
0.07
3.79
6.27
7.55
7.64
6.63
4.83
2.74
0.84
-0.69
-2.0
-3.54
-5.73
-8.64
-11.97
-15.24
-18.08
-20.41
-22.42
-24.34
-26.26
-28.07
-29.42
-29.92
-29.18
-26.87
-22.87
-17.25
-10.38
-2.81
4.9
12.34
19.36
25.98
32.2
37.89
42.74
46.42
48.77
49.85
49.97
49.55
48.92
48.24
47.47
46.44
45.04
43.19
40.92
38.38
35.69
32.93
30.11
27.09
23.73
19.93
15.75
11.36
7.04
3.07
-0.36
-3.16
-5.35
-7.08
-8.57
-10.14
-12.09
-14.48
-17.04
-19.08
-19.71
-18.15
-14.09
-7.76
0.13
8.76
17.51
26.08
34.43
42.49
50.0
56.43
61.15
63.65
63.71
61.45
57.34
51.97
45.96
39.87
34.1
28.89
24.33
20.36
16.78
13.39
9.96
6.34
2.42
-1.87
-6.57
-11.56
-16.62
-21.42
-25.7
-29.41
-32.82
-36.31
-40.16
-44.2
-47.84
-50.22
-50.6
-48.62
-44.37
-38.14
-30.28
-21.11
-11.02
-0.71
8.9
16.77
22.2
25.08
25.98
25.78
25.34
25.05
24.77
24.0
22.22
19.2
15.18
10.8
6.83
3.91
2.31
1.91
2.3
3.02
3.77
4.39
4.82
5.0
4.73
3.81
2.11
-0.28
-3.02
-5.62
-7.65
-8.96
-9.7
-10.32
-11.26
-12.89
-15.32
-18.44
-21.92
-25.39
-28.4
-30.52
-31.35
-30.65
-28.36
-24.66
-19.95
-14.73
-9.43
-4.38
0.26
4.36
7.83
10.49
12.22
12.97
12.85
12.08
11.03
10.06
9.45
9.37
9.8
10.62
11.65
12.64
13.39
13.72
13.54
12.88
11.88
10.7
9.47
8.19
6.77
5.09
3.14
1.0
-1.15
-3.16
-5.02
-6.86
-8.87
-11.21
-13.89
-16.77
-19.58
-22.02
-23.78
-24.6
-24.31
-22.81
-20.21
-16.7
-12.57
-8.1
-3.56
0.76
4.57
7.58
9.62
10.68
10.95
10.75
10.37
9.95
9.5
9.01
8.45
7.93
7.54
7.35
7.35
7.39
7.35
7.12
6.68
6.02
5.12
3.96
2.57
1.01
-0.57
-2.06
-3.47
-4.93
-6.66
-8.87
-11.61
-14.73
-17.86
-20.51
-22.22
-22.61
-21.56
-19.16
-15.73
-11.7
-7.53
-3.62
-0.18
2.73
5.15
7.13
8.67
9.68
10.07
9.82
9.07
8.13
7.34
6.96
7.07
7.48
7.87
7.98
7.65
6.96
6.11
5.33
4.72
4.19
3.49
2.39
0.79
-1.21
-3.32
-5.27
-6.89
-8.18
-9.31
-10.49
-11.91
-13.69
-15.9
-18.58
-21.71
-25.1
-28.32
-30.8
-31.91
-31.27
-28.81
-24.88
-20.0
-14.74
-9.55
-4.69
-0.34
3.36
6.26
8.27
9.38
9.73
9.57
9.18
8.8
8.57
8.54
8.73
9.07
9.47
9.84
10.07
10.13
10.02
9.79
9.48
9.03
8.31
7.12
5.28
2.79
-0.16
-3.21
-5.93
-8.11
-9.77
-11.22
-12.87
-15.03
-17.79
-20.95
-24.15
-26.92
-28.85
-29.55
-28.74
-26.26
-22.19
-16.94
-11.14
-5.52
-0.67
3.15
5.98
8.06
9.58
10.65
11.21
11.21
10.75
10.06
9.42
9.07
9.11
9.41
9.83
10.18
10.34
10.22
9.78
8.99
7.83
6.31
4.5
2.54
0.57
-1.27
-2.96
-4.6
-6.39
-8.58
-11.36
-14.68
-18.25
-21.54
-23.88
-24.77
-23.91
-21.37
-17.47
-12.69
-7.51
-2.29
2.7
7.3
11.32
14.59
16.95
18.26
18.53
17.94
16.79
15.48
14.37
13.72
13.58
13.83
14.25
14.61
14.76
14.65
14.33
13.81
13.1
12.1
10.71
8.89
6.66
4.18
1.62
-0.84
-3.08
-5.12
-7.04
-9.02
-11.25
-13.92
-17.16
-20.97
-25.18
-29.39
-33.02
-35.43
-36.08
-34.72
-31.47
-26.78
-21.26
-15.45
-9.67
-4.08
1.22
6.1
10.34
13.68
15.97
17.23
17.66
17.55
17.24
16.95
16.84
16.93
17.15
17.4
17.55
17.54
17.38
17.11
16.8
16.41
15.82
14.83
13.3
11.15
8.49
5.53
2.56
-0.2
-2.65
-4.84
-7.0
-9.4
-12.27
-15.7
-19.53
-23.39
-26.74
-29.03
-29.83
-28.9
-26.25
-22.12
-16.92
-11.13
-5.2
0.53
5.83
10.6
14.69
17.94
20.12
21.06
20.82
19.66
18.08
16.58
15.49
14.92
14.75
14.85
15.09
15.4
15.73
15.96
15.92
15.43
14.37
12.75
10.69
8.35
5.92
3.54
1.22
-1.12
-3.65
-6.54
-9.9
-13.63
-17.35
-20.5
-22.48
-22.85
-21.42
-18.36
-14.05
-9.02
-3.74
1.39
6.13
10.32
13.84
16.57
18.37
19.2
19.1
18.29
17.15
16.09
15.45
15.41
15.93
16.78
17.68
18.33
18.62
18.5
18.07
17.41
16.58
15.57
14.3
12.68
10.67
8.27
5.58
2.75
-0.07
-2.74
-5.2
-7.48
-9.68
-11.96
-14.51
-17.53
-21.11
-25.21
-29.54
-33.53
-36.47
-37.65
-36.56
-33.18
-27.97
-21.7
-15.27
-9.29
-3.98
0.77
5.2
9.38
13.17
16.23
18.28
19.25
19.36
19.04
18.69
18.54
18.62
18.77
18.85
18.83
18.74
18.71
18.82
19.0
19.11
18.9
18.18
16.83
14.89
12.49
9.81
7.02
4.24
1.56
-0.95
-3.24
-5.29
-7.18
-9.07
-11.22
-13.92
-17.31
-21.32
-25.6
-29.55
-32.49
-33.83
-33.24
-30.75
-26.7
-21.59
-15.95
-10.2
-4.62
0.61
5.36
9.45
12.73
15.04
16.32
16.71
16.51
16.12
15.94
16.18
16.86
17.78
18.66
19.25
19.46
19.29
18.86
18.27
17.53
16.59
15.35
13.75
11.8
9.61
7.29
4.93
2.6
0.32
-1.85
-3.88
-5.78
-7.68
-9.85
-12.58
-16.01
-19.95
-23.85
-26.93
-28.46
-28.04
-25.66
-21.69
-16.65
-11.07
-5.29
0.38
5.73
10.43
14.19
16.77
18.13
18.53
18.37
18.12
18.09
18.37
18.81
19.14
19.19
18.96
18.66
18.52
18.68
19.04
19.32
19.15
18.3
16.72
14.6
12.2
9.75
7.34
4.93
2.46
-0.1
-2.67
-5.1
-7.3
-9.24
-11.0
-12.73
-14.57
-16.71
-19.22
-22.16
-25.41
-28.72
-31.62
-33.54
-33.99
-32.66
-29.59
-25.08
-19.61
-13.71
-7.81
-2.24
2.74
6.96
10.3
12.77
14.47
15.56
16.24
16.64
16.86
16.95
16.97
17.06
17.35
17.89
18.62
19.32
19.75
19.7
19.13
18.17
17.03
15.84
14.62
13.28
11.66
9.73
7.53
5.17
2.79
0.43
-1.91
-4.26
-6.63
-8.95
-11.1
-13.08
-14.96
-16.96
-19.34
-22.2
-25.46
-28.73
-31.46
-33.02
-32.98
-31.16
-27.76
-23.18
-17.99
-12.69
-7.63
-3.02
1.04
4.5
7.33
9.5
10.98
11.78
12.02
11.87
11.52
11.16
10.9
10.78
10.83
11.08
11.55
12.24
13.07
13.82
14.22
14.0
13.02
11.33
9.12
6.66
4.24
2.11
0.51
-0.34
-0.34
0.42
1.55
2.48
2.69
1.9
0.13
-2.34
-5.25
-8.45
-11.91
-15.57
-19.14
-22.11
-23.87
-23.96
-22.31
-19.28
-15.48
-11.57
-8.0
-4.97
-2.43
-0.27
1.6
3.18
4.48
5.57
6.69
8.16
10.24
13.0
16.26
19.7
23.08
26.25
29.3
32.33
35.35
38.19
40.63
42.49
43.79
44.74
45.67
46.82
48.24
49.77
51.13
52.16
52.89
53.6
54.76
56.77
59.71
63.2
66.46
68.62
69.07
67.75
65.16
62.05
59.07
56.71
55.33
55.44
57.84
63.33
72.22
83.88
96.97
110.06
122.36
133.95
145.24
156.1
165.41
171.31
172.18
167.52
158.27
146.1
132.45
117.67
101.21
82.3
60.91
38.01
15.27
-5.92
-25.25
-43.48
-61.65
-80.09
-97.95
-113.49
-125.17
-132.42
-135.69
-135.47
-131.32
-121.87
-106.09
-85.17
-63.34
-46.76
-40.7
-46.84
-62.51
-82.68
-103.16
-122.85
-143.22
-165.67
-188.91
-208.37
-218.57
-216.52
-203.82
-185.94
-168.84
-155.65
-145.2
-133.73
-118.07
-98.45
-78.84
-64.77
-60.14
-64.93
-75.32
-85.59
-91.09
-90.11
-84.22
-76.91
-71.48
-69.43
-70.0
-71.04
-70.45
-67.5
-63.24
-59.91
-59.66
-63.37
-70.16
-77.81
-83.79
-86.45
-85.57
-82.13
-77.52
-72.55
-67.02
-59.97
-50.43
-38.41
-25.23
-13.16
-4.2
0.96
3.41
5.4
9.2
15.96
25.32
35.87
46.01
54.64
61.45
66.52
70.02
72.08
72.92
73.0
72.89
72.79
72.33
70.74
67.42
62.51
57.0
52.27
49.29
48.18
48.13
47.99
46.73
43.91
39.59
34.15
28.08
21.94
16.35
11.92
9.0
7.44
6.62
5.64
3.7
0.36
-4.38
-10.24
-16.78
-23.51
-29.9
-35.28
-38.91
-40.17
-38.81
-35.15
