-29.97
-32.45
-31.92
-28.2
-21.85
-14.0
-5.92
1.43
7.64
12.88
17.54
21.89
25.8
28.8
30.41
30.46
29.26
27.41
25.49
23.78
22.24
20.68
18.97
17.14
15.36
13.81
12.51
11.28
9.77
7.64
4.62
0.7
-3.85
-8.56
-12.93
-16.66
-19.82
-22.87
-26.47
-31.17
-37.1
-43.79
-50.18
-54.75
-55.91
-52.38
-43.67
-30.42
-14.32
2.21
16.67
27.17
32.89
34.18
32.42
29.39
26.65
25.19
25.17
26.23
27.89
29.94
32.56
36.11
40.75
46.2
51.75
56.51
59.74
61.02
60.2
57.19
51.94
44.43
34.96
24.34
13.77
4.57
-2.24
-6.31
-8.13
-8.9
-10.1
-12.99
-18.06
-24.75
-31.49
-36.28
-37.46
-34.42
-27.84
-19.41
-11.09
-4.3
0.39
3.26
4.98
6.25
7.7
9.86
13.27
18.29
24.81
31.97
38.43
42.76
44.12
42.63
39.2
35.03
31.01
27.47
24.29
21.25
18.32
15.58
13.07
10.54
7.59
3.87
-0.58
-5.28
-9.44
-12.48
-14.28
-15.34
-16.52
-18.66
-22.22
-27.07
-32.6
-37.89
-41.93
-43.87
-43.17
-39.72
-33.83
-26.13
-17.46
-8.58
-0.17
7.37
13.75
18.83
22.52
24.86
25.96
26.05
25.39
24.21
22.75
21.26
20.07
19.56
20.06
21.68
24.16
26.96
29.36
30.73
30.73
29.35
26.81
23.44
19.56
15.5
11.65
8.32
5.64
3.41
1.08
-2.0
-6.33
-11.99
-18.55
-25.25
-31.34
-36.34
-40.11
-42.79
-44.57
-45.49
-45.33
-43.76
-40.45
-35.33
-28.67
-21.07
-13.3
-6.01
0.35
5.61
9.74
12.71
14.5
15.21
15.22
15.16
15.73
17.32
19.77
22.47
24.65
25.77
25.8
25.13
24.24
23.4
22.57
21.48
19.86
17.54
14.5
10.76
6.44
1.83
-2.59
-6.28
-8.86
-10.42
-11.49
-12.79
-14.86
-17.69
-20.86
-23.77
-26.05
-27.79
-29.32
-30.84
-32.07
-32.27
-30.53
-26.25
-19.5
-11.02
-2.0
6.39
13.36
18.6
22.28
24.79
26.54
27.77
28.56
28.88
28.7
28.02
26.94
25.59
24.17
22.86
21.86
21.28
21.13
21.27
21.41
21.2
20.35
18.77
16.59
14.05
11.43
8.88
6.4
3.85
1.01
-2.29
-6.1
-10.28
-14.55
-18.58
-22.08
-24.86
-26.97
-28.6
-30.06
-31.77
-34.13
-37.53
-42.15
-47.89
-54.17
-60.06
-64.41
-66.19
-64.87
-60.51
-53.74
-45.58
-37.12
-29.29
-22.74
-17.81
-14.62
-13.11
-13.06
-14.09
-15.55
-16.66
-16.53
-14.44
-10.12
-3.83
3.61
11.17
17.92
23.31
27.29
30.08
31.96
33.06
33.27
32.3
29.94
26.09
20.95
14.8
7.97
0.68
-6.93
-14.72
-22.49
-29.89
-36.54
-42.22
-46.91
-50.78
-53.97
-56.34
-57.38
-56.38
-52.84
-46.73
-38.53
-28.86
-18.13
-6.29
6.98
21.85
37.96
54.42
70.07
84.01
95.96
106.2
115.26
123.44
130.59
136.06
138.99
138.6
134.49
126.8
116.22
103.81
90.64
77.55
65.04
53.62
43.97
36.87
32.71
31.05
30.51
29.37
26.55
22.19
17.58
14.26
12.9
12.65
11.5
7.25
-1.37
-14.23
-30.1
-47.41
-64.79
-81.34
-96.32
-109.02
-118.69
-124.81
-127.27
-126.52
-123.41
-119.02
-114.34
-110.0
-106.1
-102.14
-97.19
-90.24
-80.62
-68.37
-54.36
-40.05
-27.02
-16.5
-8.95
-4.09
-1.06
1.29
3.91
7.32
11.6
16.34
20.94
24.89
27.93
30.12
31.63
32.55
32.74
31.9
29.86
26.73
22.96
19.2
15.93
13.24
10.97
8.78
6.53
4.3
2.33
0.83
-0.15
-0.73
-1.1
-1.4
-1.75
-2.25
-3.17
-4.93
-8.0
-12.7
-18.95
-26.14
-33.12
-38.55
-41.2
-40.33
-35.97
-28.75
-19.68
-9.9
-0.35
8.3
15.6
21.34
25.51
28.29
29.95
30.76
30.82
30.02
28.16
25.11
20.98
16.16
11.25
6.82
3.3
0.88
-0.47
-1.05
-1.26
-1.46
-1.89
-2.62
-3.6
-4.72
-5.94
-7.17
-8.25
-8.97
-9.14
-8.83
-8.42
-8.45
-9.31
-10.91
-12.72
-14.02
-14.45
-14.32
-14.5
-15.95
-19.16
-23.8
-28.89
-33.24
-35.86
-36.33
-34.74
-31.49
-27.06
-21.93
-16.47
-11.04
-6.04
-1.85
1.16
2.72
2.68
1.06
-1.9
-5.81
-10.18
-14.53
-18.48
-21.79
-24.34
-26.14
-27.32
-28.09
-28.68
-29.25
-29.77
-29.87
-29.04
-26.74
-22.75
-17.25
-10.88
-4.41
1.55
6.75
11.28
15.34
18.95
21.85
23.55
23.67
22.14
19.25
15.6
11.84
8.48
5.89
4.36
4.15
5.49
8.51
13.16
19.18
26.11
33.42
40.57
47.09
52.61
56.92
60.06
62.26
64.0
65.88
68.37
71.64
75.38
78.93
81.43
82.14
80.65
76.88
71.11
63.81
55.59
47.1
38.85
30.99
23.14
14.47
4.09
-8.4
-22.47
-36.63
-48.96
-57.78
-62.38
-63.16
-61.49
-59.1
-57.49
-57.56
-59.55
-63.05
-67.25
-71.17
-73.82
-74.39
-72.29
-67.34
-59.74
-50.15
-39.6
-29.29
-20.35
-13.5
-8.89
-6.15
-4.63
-3.74
-3.12
-2.71
-2.59
-2.74
-2.91
-2.6
-1.36
1.03
4.33
7.94
11.08
13.15
13.99
13.83
13.17
12.49
12.15
12.25
12.79
13.65
14.58
15.2
15.01
13.58
10.75
6.67
1.81
-3.28
-8.25
-13.07
-17.91
-22.93
-27.99
-32.52
-35.68
-36.69
-35.1
-30.97
-24.81
-17.33
-9.24
-1.09
6.67
13.64
19.34
23.35
25.39
25.57
24.4
22.67
21.15
20.43
20.66
21.64
22.89
23.91
24.35
24.02
22.98
21.36
19.37
17.15
14.81
12.39
9.89
7.32
4.61
1.71
-1.48
-4.94
-8.59
-12.33
-16.14
-20.27
-25.1
-31.05
-38.24
-46.31
-54.42
-61.46
-66.37
-68.37
-67.26
-63.32
-57.21
-49.74
-41.71
-33.68
-26.02
-18.92
-12.49
-6.92
-2.39
1.0
3.36
5.09
6.82
9.17
12.57
17.04
22.26
27.66
32.67
36.93
40.37
43.22
45.78
48.27
50.59
52.34
53.01
52.24
50.05
46.8
43.08
39.43
36.13
33.15
30.18
26.78
22.53
17.26
11.11
4.58
-1.55
-6.43
-9.27
-9.52
-6.93
-1.58
6.17
15.66
26.04
36.35
45.76
53.62
59.61
63.66
65.85
66.35
65.42
63.44
60.8
57.96
55.4
53.67
53.26
54.48
57.14
60.47
63.16
63.81
61.49
56.07
48.21
38.99
29.37
19.86
10.59
1.59
-6.94
-14.59
-21.1
-26.62
-31.8
-37.45
-44.12
-51.83
-60.05
-68.03
-75.13
-80.99
-85.54
-88.7
-90.24
-89.86
-87.27
-82.49
-75.86
-68.04
-59.76
-51.71
-44.37
-38.05
-32.86
-28.68
-25.22
-22.05
-18.73
-14.96
-10.7
-6.15
-1.69
2.28
5.5
7.97
9.8
11.11
11.93
12.18
11.85
11.1
10.22
9.58
9.31
9.22
8.93
8.02
6.3
3.88
0.96
-2.33
-6.07
-10.46
-15.49
-20.72
-25.2
-27.78
-27.48
-23.98
-17.71
-9.76
-1.45
6.14
12.43
17.48
21.71
25.54
29.07
32.03
33.88
34.16
32.81
30.23
27.15
24.35
22.37
21.33
20.97
20.79
20.29
19.15
17.25
14.68
11.69
8.57
5.56
2.75
0.08
-2.71
-5.98
-10.14
-15.47
-21.94
-29.14
-36.2
-42.04
-45.72
-46.88
-45.91
-43.85
-41.81
-40.44
-39.51
-38.08
-34.99
-29.61
-22.16
-13.63
-5.18
2.44
9.13
15.14
20.71
25.52
28.79
29.8
28.39
25.3
21.93
19.72
19.5
21.19
23.92
26.68
28.81
30.21
31.2
32.16
33.14
33.79
33.55
31.97
28.93
24.83
20.38
16.39
13.45
11.69
10.75
9.88
8.23
5.13
0.43
-5.53
-11.97
-17.91
-22.47
-25.01
-25.2
-23.02
-18.76
-12.88
-6.04
1.05
7.76
13.59
18.23
21.6
23.8
25.03
25.53
25.5
25.09
24.39
23.43
22.28
21.03
19.8
18.68
17.75
16.98
16.3
15.55
14.52
13.05
11.05
8.56
5.74
2.76
-0.2
-3.1
-5.94
-8.8
-11.76
-14.84
-18.06
-21.42
-24.93
-28.56
-32.22
-35.66
-38.45
-40.03
-39.92
-37.94
-34.29
-29.55
-24.48
-19.69
-15.51
-11.88
-8.63
-5.66
-3.11
-1.3
-0.48
-0.65
-1.5
-2.57
-3.41
-3.81
-3.7
-3.17
-2.24
-0.93
0.76
2.74
4.74
6.42
7.42
7.54
6.77
5.31
3.45
1.5
-0.39
-2.21
-4.11
-6.37
-9.16
-12.55
-16.33
-20.03
-23.04
-24.76
-24.76
-23.0
-19.82
-15.87
-11.91
-8.54
-6.03
-4.29
-3.01
-1.9
-0.83
0.14
0.93
1.54
2.21
3.29
5.12
7.89
11.48
15.57
19.63
23.13
25.57
26.7
26.5
25.38
23.97
22.95
22.81
23.65
25.17
26.82
28.02
28.32
27.44
25.23
21.67
16.8
10.81
4.01
-3.14
-10.1
-16.28
-21.12
-24.19
-25.3
-24.51
-22.21
-18.92
-15.28
-11.82
-8.98
-7.03
-6.12
-6.27
-7.35
-9.14
-11.31
-13.56
-15.64
-17.37
-18.6
-19.21
-19.17
-18.59
-17.69
-16.78
-16.11
-15.69
-15.34
-14.77
-13.77
-12.39
-10.92
-9.83
-9.55
-10.3
-11.98
-14.2
-16.52
-18.58
-20.37
-22.18
-24.51
-27.74
-31.96
-36.81
-41.61
-45.67
-48.44
-49.62
-49.03
-46.45
-41.52
-33.94
-23.83
-11.88
0.57
11.99
21.11
27.4
31.11
33.02
33.99
34.64
35.22
35.75
36.2
36.54
36.8
36.92
36.78
36.25
35.35
34.25
33.22
32.48
32.04
31.66
30.96
29.53
27.16
23.84
19.84
15.58
11.49
7.83
4.66
1.76
-1.21
-4.63
-8.64
-13.04
-17.3
-20.68
-22.49
-22.34
-20.27
-16.7
-12.27
-7.6
-3.1
0.97
4.47
7.24
9.13
10.03
10.0
9.27
8.14
6.89
5.73
4.74
3.94
3.34
2.97
2.83
2.89
3.09
3.39
3.76
4.26
4.83
5.33
5.48
4.92
3.34
0.6
-3.18
-7.61
-12.15
-16.29
-19.63
-22.05
-23.69
-24.91
-26.21
-28.02
-30.51
-33.41
-35.98
-37.19
-36.07
-32.08
-25.3
-16.42
-6.5
3.34
12.11
19.06
23.72
25.9
25.71
23.64
20.39
16.76
13.36
10.53
8.34
6.73
5.67
5.16
5.16
5.54
6.03
6.27
5.98
4.99
3.24
0.69
-2.7
-6.91
-11.76
-16.84
-21.61
-25.66
-29.02
-32.11
-35.59
-39.89
-44.93
-50.06
-54.39
-57.21
-58.14
-57.03
-53.69
-47.82
-39.12
-27.74
-14.52
-0.84
11.86
22.7
31.58
39.09
45.89
52.25
57.83
62.0
64.19
64.26
62.65
60.04
57.09
54.23
51.61
49.17
46.84
44.59
42.47
40.58
39.02
37.75
36.6
35.24
33.3
30.51
26.91
22.73
18.37
14.19
10.26
6.32
1.93
-3.34
-9.68
-16.92
-24.65
-32.29
-39.2
-44.72
-48.18
-49.04
-47.04
-42.3
-35.31
-26.81
-17.47
-7.85
1.63
10.61
18.65
25.28
30.11
33.06
34.4
34.73
34.7
34.8
35.24
35.92
36.54
36.8
36.5
35.6
34.18
32.37
30.31
28.03
25.43
22.33
18.47
13.67
7.87
1.28
-5.72
-12.54
-18.67
-23.83
-28.1
-31.98
-36.07
-40.88
-46.45
-52.27
-57.35
-60.63
-61.3
-59.11
-54.4
-47.95
-40.72
-33.61
-27.35
-22.39
-18.9
-16.79
-15.76
-15.44
-15.46
-15.62
-15.81
-16.0
-16.06
-15.8
-14.97
-13.41
-11.17
-8.46
-5.55
-2.66
0.11
2.72
4.98
6.54
7.0
6.04
3.68
0.35
-3.27
-6.48
-8.85
-10.36
-11.33
-12.26
-13.62
-15.67
-18.49
-22.05
-26.18
-30.52
-34.52
-37.35
-38.15
-36.25
-31.46
-24.14
-15.11
-5.43
3.91
12.17
18.97
24.17
27.8
29.98
30.89
30.76
29.85
28.48
27.02
25.86
25.32
25.52
26.31
27.31
27.99
27.94
27.0
25.29
23.13
20.85
18.59
16.34
13.93
11.22
8.17
4.88
1.57
-1.58
-4.43
-7.0
-9.47
-12.12
-15.21
-18.86
-22.95
-27.08
-30.67
-33.06
-33.67
-32.23
-28.76
-23.62
-17.37
-10.59
-3.8
2.58
8.21
12.83
16.27
18.47
19.61
20.02
20.05
20.04
20.09
20.19
20.27
20.26
20.13
19.87
19.42
18.67
17.51
15.92
13.95
11.69
9.17
6.39
3.33
-0.0
-3.52
-7.12
-10.83
-14.75
-19.05
-23.77
-28.74
-33.66
-38.24
-42.35
-46.06
-49.49
-52.53
-54.73
-55.45
-54.04
-50.25
-44.53
-37.97
-32.13
-28.66
-28.62
-31.97
-37.39
-42.53
-44.88
-42.84
-36.6
-28.28
-21.22
-18.68
-22.45
-32.22
-45.51
-58.38
-66.21
-64.5
-49.81
-21.05
19.24
64.55
105.5
132.67
140.04
127.47
100.75
69.11
41.36
22.71
13.72
11.6
12.79
14.93
17.38
20.45
24.17
27.78
30.33
31.61
32.6
35.12
40.64
49.12
58.79
66.63
69.85
67.05
58.71
46.8
34.0
22.65
14.15
8.61
5.05
1.88
-2.35
-8.23
-15.09
-21.09
-24.09
-22.73
-17.14
-9.0
-0.68
5.95
10.32
13.15
15.82
19.26
23.41
27.22
29.29
28.68
25.31
19.7
12.41
3.6
-7.02
-19.76
-34.49
-50.45
-66.29
-80.27
-90.38
-94.69
-91.73
-81.29
-64.99
-46.15
-28.94
-16.81
-11.22
-11.09
-13.62
-15.65
-15.24
-12.09
-7.15
-1.66
3.34
7.15
8.74
6.27
-2.43
-18.93
-42.79
-70.96
-98.61
-120.97
-135.39
-142.38
-144.63
-144.48
-141.73
-133.48
-116.62
-91.61
-64.48
-45.23
-42.82
-59.9
-90.66
-123.69
-147.93
-158.02
-155.83
-147.51
-138.59
-130.45
-120.35
-104.5
-81.71
-54.59
-28.06
-6.38
9.3
21.17
33.19
48.86
69.58
94.13
119.45
141.7
157.55
165.39
165.69
160.8
153.93
147.91
144.22
142.75
142.2
140.98
138.01
133.07
126.67
119.6
112.39
105.08
97.29
88.53
78.62
67.93
57.32
47.78
40.0
34.05
29.43
25.36
21.22
16.86
12.61
9.07
6.7
5.62
5.57
6.12
6.87
7.72
8.84
10.6
13.32
17.08
21.59
26.35
30.77
34.36
36.85
38.16
38.36
37.54
35.85
33.44
30.52
27.37
24.28
21.42
18.85
16.48
14.22
12.1
10.29
9.1
8.79
9.48
11.05
13.2
15.59
17.95
20.13
22.08
23.72
24.92
25.47
25.23
24.19
22.57
20.68
18.9
17.46
16.44
15.78
15.34
14.95
14.47
13.82
12.89
11.65
10.06
8.12
5.86
3.33
0.6
-2.23
-5.06
-7.81
-10.48
-13.11
-15.83
-18.63
-21.4
-23.75
-25.19
-25.25
-23.67
-20.53
-16.2
-11.23
-6.16
-1.41
2.82
6.46
9.5
11.92
13.64
14.55
14.64
14.03
13.04
12.04
11.31
10.98
10.98
11.1
11.14
10.98
10.6
10.0
9.14
7.93
6.25
4.11
1.67
-0.84
-3.19
-5.27
-7.22
-9.28
-11.73
-14.68
-17.99
-21.25
-23.88
-25.32
-25.16
-23.32
-20.04
-15.82
-11.19
-6.6
-2.28
1.73
5.43
8.81
11.66
13.77
14.94
15.19
14.67
13.67
12.45
11.19
9.97
8.87
8.01
7.47
7.32
7.46
7.65
7.62
7.13
6.08
4.5
2.57
0.5
-1.52
-3.35
-4.96
-6.38
-7.76
-9.26
-11.03
-13.19
-15.76
-18.68
-21.77
-24.73
-27.17
-28.63
-28.73
-27.28
-24.35
-20.3
-15.6
-10.75
-6.07
-1.76
2.15
5.64
8.64
11.1
12.95
14.15
14.75
14.79
14.42
13.77
13.05
12.43
12.08
12.02
12.21
12.46
12.61
12.51
12.15
11.54
10.7
9.64
8.31
6.7
4.83
2.77
0.62
-1.52
-3.62
-5.66
-7.67
-9.66
-11.67
-13.74
-15.94
-18.32
-20.87
-23.47
-25.83
-27.54
-28.17
-27.37
-25.03
-21.3
-16.57
-11.36
-6.2
-1.52
2.42
5.52
7.78
9.32
10.28
10.84
11.18
11.42
11.6
11.71
11.71
11.63
11.56
11.63
11.9
12.37
12.85
13.14
13.05
12.51
11.57
10.36
8.98
7.51
5.94
4.23
2.39
0.46
-1.49
-3.4
-5.25
-7.06
-8.88
-10.74
-12.66
-14.63
-16.72
-18.98
-21.46
-24.04
-26.42
-28.16
-28.82
-28.11
-26.03
-22.81
-18.83
-14.45
-9.93
-5.49
-1.33
2.3
5.14
7.01
7.97
8.25
8.19
8.09
8.11
8.27
8.48
8.67
8.8
8.86
8.83
8.69
8.38
7.9
7.27
6.55
5.77
4.95
4.04
3.01
1.85
0.56
-0.84
-2.35
-3.94
-5.63
-7.4
-9.3
-11.41
-13.76
-16.32
-18.83
-20.92
-22.11
-22.1
-20.81
-18.41
-15.28
-11.8
-8.27
-4.83
-1.56
1.48
4.18
6.34
7.75
8.31
8.07
7.3
6.36
5.63
5.33
5.42
5.7
5.88
5.8
5.49
5.14
4.94
4.98
5.15
5.27
5.08
4.45
3.36
1.91
0.24
-1.52
-3.29
-5.07
-6.86
-8.69
-10.56
-12.48
-14.45
-16.55
-18.81
-21.24
-23.65
-25.65
-26.7
-26.31
-24.24
-20.65
-16.12
-11.38
-7.12
-3.7
-1.12
0.82
2.38
3.66
4.62
5.18
5.32
5.16
4.96
4.9
5.07
5.35
5.56
5.57
5.37
5.08
4.87
4.83
4.91
4.95
4.72
4.05
2.89
1.32
-0.46
-2.24
-3.88
-5.37
-6.79
-8.33
-10.15
-12.34
-14.92
-17.79
-20.71
-23.37
-25.39
-26.34
-25.96
-24.15
-21.07
-17.09
-12.67
-8.23
-4.09
-0.39
2.77
5.31
7.17
8.27
8.57
8.14
7.16
5.94
4.82
4.07
3.82
3.99
4.33
4.55
4.49
4.11
3.54
2.94
2.38
1.8
1.08
0.09
-1.18
-2.7
-4.35
-6.08
-7.88
-9.84
-12.1
-14.75
-17.75
-20.87
-23.69
-25.69
-26.39
-25.54
-23.17
-19.53
-15.1
-10.33
-5.64
-1.35
2.32
5.21
7.31
8.65
9.37
9.63
9.57
9.25
8.8
8.37
8.08
8.07
8.35
8.78
9.12
9.14
8.71
7.89
6.83
5.68
4.55
3.41
2.18
0.77
-0.85
-2.64
-4.52
-6.45
-8.44
-10.66
-13.3
-16.52
-20.2
-23.95
-27.1
