20.69
21.45
21.89
21.88
21.47
20.83
20.01
19.0
17.63
15.73
13.25
10.27
6.98
3.6
0.27
-2.88
-5.84
-8.6
-11.2
-13.73
-16.31
-19.12
-22.34
-26.11
-30.47
-35.23
-40.0
-44.04
-46.49
-46.55
-43.75
-38.19
-30.46
-21.56
-12.48
-4.01
3.4
9.59
14.63
18.59
21.5
23.36
24.15
23.93
22.9
21.41
19.85
18.65
18.04
18.07
18.56
19.19
19.66
19.73
19.33
18.52
17.42
16.14
14.68
12.99
10.89
8.26
5.03
1.3
-2.72
-6.7
-10.4
-13.74
-16.77
-19.75
-22.94
-26.52
-30.64
-35.32
-40.48
-45.87
-50.94
-54.88
-56.75
-55.79
-51.71
-44.8
-35.92
-26.11
-16.3
-7.09
1.24
8.62
14.97
20.1
23.81
26.02
26.82
26.55
25.7
24.76
24.06
23.73
23.73
23.96
24.31
24.74
25.24
25.76
26.17
26.26
25.8
24.7
22.97
20.79
18.32
15.66
12.75
9.48
5.71
1.44
-3.19
-7.96
-12.63
-17.04
-21.14
-25.0
-28.82
-32.9
-37.54
-42.91
-48.84
-54.69
-59.47
-62.05
-61.54
-57.63
-50.67
-41.54
-31.33
-20.97
-11.11
-2.03
6.16
13.39
19.52
24.31
27.56
29.19
29.38
28.6
27.46
26.53
26.19
26.48
27.2
28.02
28.65
28.98
29.01
28.82
28.42
27.73
26.54
24.71
22.15
18.92
15.21
11.23
7.13
2.97
-1.22
-5.46
-9.69
-13.8
-17.73
-21.49
-25.25
-29.28
-33.79
-38.71
-43.64
-47.79
-50.19
-50.04
-46.88
-40.81
-32.41
-22.58
-12.25
-2.2
6.96
14.85
21.19
25.84
28.78
30.16
30.32
29.7
28.83
28.16
27.98
28.34
29.07
29.93
30.65
31.12
31.33
31.35
31.19
30.71
29.67
27.9
25.3
22.03
18.34
14.45
10.49
6.45
2.26
-2.13
-6.65
-11.15
-15.49
-19.58
-23.53
-27.57
-32.04
-37.16
-42.92
-48.94
-54.43
-58.41
-59.91
-58.28
-53.41
-45.73
-36.04
-25.27
-14.24
-3.54
6.38
15.16
22.46
27.99
31.61
33.45
33.87
33.41
32.64
31.97
31.61
31.59
31.8
32.12
32.48
32.86
33.26
33.63
33.84
33.65
32.79
31.06
28.42
25.01
21.12
17.05
13.02
9.07
5.14
1.15
-3.02
-7.35
-11.77
-16.18
-20.53
-24.84
-29.29
-34.16
-39.68
-45.88
-52.39
-58.39
-62.78
-64.45
-62.67
-57.32
-48.88
-38.33
-26.78
-15.22
-4.37
5.33
13.67
20.5
25.69
29.18
30.97
31.29
30.58
29.38
28.29
27.69
27.68
28.06
28.41
28.36
27.72
26.6
25.23
23.84
22.4
20.65
18.16
14.64
10.11
4.93
-0.36
-5.24
-9.52
-13.27
-16.79
-20.32
-23.97
-27.62
-31.1
-34.32
-37.26
-39.91
-42.04
-43.15
-42.49
-39.32
-33.2
-24.15
-12.72
0.23
13.83
27.36
40.38
52.62
63.72
73.1
80.02
83.75
83.91
80.58
74.34
66.1
56.79
47.24
38.05
29.66
22.39
16.34
11.39
7.08
2.83
-1.84
-7.02
-12.38
-17.34
-21.4
-24.37
-26.35
-27.6
-28.32
-28.52
-28.16
-27.41
-26.77
-27.03
-28.81
-32.24
-36.82
-41.59
-45.62
-48.37
-49.73
-49.87
-48.75
-45.95
-40.73
-32.47
-21.12
-7.53
6.86
20.46
32.29
42.35
51.55
61.23
72.43
85.37
99.26
112.57
123.72
131.72
136.53
138.86
139.59
139.1
136.92
131.94
122.93
109.3
91.44
70.62
48.42
26.16
4.57
-16.06
-35.53
-53.41
-68.87
-80.97
-89.07
-93.17
-94.0
-92.84
-91.11
-89.96
-89.91
-90.85
-92.26
-93.65
-94.95
-96.58
-99.29
-103.65
-109.49
-115.76
-120.7
-122.49
-119.89
-112.7
-101.73
-88.36
-73.95
-59.46
-45.23
-31.31
-17.75
-4.89
6.69
16.35
23.71
28.84
32.24
34.62
36.68
38.9
41.45
44.26
47.1
49.68
51.71
52.99
53.4
53.03
52.09
50.83
49.41
47.74
45.51
42.31
37.87
32.3
26.04
19.72
13.93
8.91
4.57
0.56
-3.62
-8.39
-14.06
-20.66
-27.81
-34.72
-40.25
-43.2
-42.76
-38.86
-32.25
-24.12
-15.54
-6.97
1.85
11.6
22.67
34.61
45.97
54.67
58.79
57.35
50.76
40.48
28.34
15.63
2.63
-11.27
-26.98
-44.94
-64.75
-85.26
-104.88
-121.84
-134.18
-139.61
-135.8
-121.29
-96.74
-65.48
-32.56
-2.69
21.82
41.69
59.48
77.33
95.17
110.62
120.69
123.83
121.04
115.1
108.82
103.35
97.95
91.1
82.02
71.56
61.78
54.81
51.76
52.46
55.9
60.88
66.61
72.85
79.74
87.4
95.68
104.05
111.76
117.93
121.82
123.06
121.78
118.73
115.12
112.29
111.22
111.94
113.25
112.85
108.07
96.74
78.1
52.96
23.39
-8.0
-38.71
-66.72
-90.6
-109.62
-124.04
-135.3
-145.95
-158.89
-176.15
-197.78
-221.59
-243.9
-261.06
-270.92
-273.38
-269.88
-262.37
-252.25
-240.05
-225.63
-208.82
-189.77
-169.15
-147.84
-126.64
-106.01
-86.12
-67.0
-48.68
-31.39
-15.43
-1.1
11.4
22.1
31.2
38.93
45.47
50.8
54.71
56.98
57.65
57.19
56.55
56.97
59.54
64.72
72.08
80.28
87.56
92.38
94.15
93.38
91.38
89.51
88.51
88.2
87.76
86.27
83.2
78.62
73.03
66.95
60.6
53.84
46.43
38.29
29.8
21.65
14.46
8.31
2.51
-4.22
-13.37
-26.0
-42.52
-62.77
-86.4
-112.84
-141.04
-168.87
-193.25
-210.84
-219.24
-217.8
-207.66
-190.89
-169.46
-144.62
-117.14
-87.91
-58.31
-29.98
-4.09
19.25
40.92
62.03
83.03
103.34
121.7
137.0
148.9
157.85
164.69
170.22
174.75
178.06
179.55
178.51
174.46
167.33
157.51
145.86
133.45
121.33
110.27
100.67
92.53
85.73
80.13
75.76
72.78
71.32
71.3
72.4
74.15
76.05
77.76
79.13
80.19
81.04
81.84
82.9
84.63
87.55
91.88
97.12
101.71
103.2
98.92
87.04
67.27
40.96
10.51
-21.59
-53.43
-83.66
-111.08
-134.23
-151.54
-161.99
-165.87
-164.99
-162.11
-159.74
-159.09
-159.9
-160.93
-160.97
-159.48
-156.79
-153.53
-150.08
-146.32
-141.85
-136.6
-131.21
-126.99
-125.23
-126.35
-129.36
-131.87
-130.96
-124.31
-111.12
-92.34
-70.13
-46.83
-24.02
-2.2
18.79
38.9
57.24
72.19
82.0
85.81
84.22
79.1
72.81
67.22
63.0
59.74
56.53
52.66
48.03
43.14
38.64
34.97
32.21
30.16
28.51
27.02
25.48
23.67
21.36
18.39
14.72
10.47
5.85
1.07
-3.71
-8.46
-13.18
-17.9
-22.7
-27.61
-32.65
-37.66
-42.27
-45.8
-47.51
-46.76
-43.34
-37.54
-30.08
-21.85
-13.61
-5.87
1.17
7.47
13.07
17.92
21.96
25.06
27.17
28.34
28.77
28.83
29.01
29.75
31.27
33.44
35.7
37.14
36.77
33.88
28.34
20.75
12.29
4.39
-1.7
-5.17
-5.9
-4.37
-1.48
1.85
5.11
8.24
11.51
15.06
18.64
21.23
21.25
17.18
8.46
-4.08
-18.24
-31.12
-40.29
-44.58
-44.68
-43.35
-45.08
-54.84
-76.05
-108.58
-147.89
-186.03
-214.28
-226.37
-220.16
-197.36
-161.64
-116.69
-65.58
-11.58
40.37
83.42
110.51
117.58
106.12
83.18
58.51
39.92
30.4
28.11
28.98
29.93
30.6
32.08
34.14
33.6
25.33
5.4
-26.01
-64.06
-101.38
-131.59
-151.46
-160.59
-159.08
-146.0
-119.75
-80.95
-34.93
8.42
38.4
48.15
37.87
14.37
-12.51
-34.1
-45.56
-46.01
-37.14
-22.24
-5.39
9.38
18.88
22.05
21.07
21.04
27.91
45.35
72.29
102.91
128.97
143.15
141.71
125.14
97.49
64.73
33.02
7.18
-10.21
-19.25
-22.52
-23.68
-25.59
-29.26
-33.42
-35.75
-34.54
-30.04
-24.47
-20.75
-20.4
-22.34
-23.78
-22.07
-16.98
-11.42
-10.09
-16.72
-31.34
-49.34
-63.25
-66.03
-54.33
-30.13
0.15
28.47
48.43
57.49
57.21
51.63
44.97
39.65
35.5
30.56
22.82
11.97
0.06
-9.44
-13.47
-11.25
-4.6
2.98
8.34
10.28
10.02
10.21
13.39
20.71
31.65
44.84
58.98
73.55
88.57
103.96
118.83
131.49
140.08
143.45
141.73
136.31
129.1
121.73
114.98
108.8
102.75
96.49
90.04
83.68
77.64
71.91
66.23
60.23
53.75
46.86
39.85
33.09
26.85
21.23
16.08
11.1
5.9
0.11
-6.46
-13.76
-21.33
-28.34
-33.75
-36.6
-36.36
-33.12
-27.54
-20.59
-13.18
-5.92
0.89
7.21
13.04
18.38
23.21
27.48
31.14
34.07
36.1
37.02
36.79
35.65
34.13
32.85
32.27
32.39
32.71
32.36
30.43
26.28
19.65
10.77
0.22
-11.17
-22.46
-32.82
-41.67
-48.77
-54.13
-57.81
-59.62
-59.12
-55.8
-49.49
-40.62
-30.28
-19.84
-10.46
-2.71
3.5
8.65
13.13
16.99
19.93
21.54
21.67
20.48
18.43
15.98
13.42
10.75
7.85
4.64
1.22
-2.09
-4.98
-7.3
-9.18
-10.97
-13.02
-15.48
-18.25
-21.11
-23.85
-26.48
-29.12
-31.87
-34.64
-37.13
-38.92
-39.62
-38.99
-36.97
-33.54
-28.67
-22.3
-14.45
-5.39
4.23
13.53
21.63
28.07
32.92
36.73
40.13
43.46
46.63
49.23
50.89
51.56
51.55
51.24
50.83
50.09
48.53
45.66
41.32
35.81
29.73
23.78
18.46
14.05
10.47
7.42
4.4
0.87
-3.57
-9.02
-15.2
-21.48
-27.05
-31.13
-33.24
-33.18
-31.1
-27.44
-22.71
-17.52
-12.42
-7.9
-4.33
-1.95
-0.83
-0.91
-1.99
-3.82
-6.15
-8.79
-11.57
-14.32
-16.92
-19.25
-21.28
-23.02
-24.56
-25.96
-27.22
-28.26
-28.97
-29.29
-29.29
-29.2
-29.31
-29.95
-31.34
-33.62
-36.87
-41.08
-46.21
-52.13
-58.57
-65.06
-70.83
-74.95
-76.37
-74.2
-67.92
-57.61
-44.0
-28.41
-12.41
2.53
15.31
25.36
32.57
37.21
39.75
40.79
40.89
40.52
39.93
39.13
38.0
36.43
34.44
32.2
29.98
27.93
25.99
23.92
21.38
18.16
14.21
9.62
4.56
-0.81
-6.3
-11.7
-16.75
-21.28
-25.17
-28.5
-31.36
-33.78
-35.69
-36.87
-37.03
-35.9
-33.3
-29.14
-23.41
-16.19
-7.73
1.55
11.03
20.09
28.25
35.33
41.46
46.92
51.99
56.81
61.37
65.62
69.45
72.79
75.49
77.38
78.2
77.8
76.2
73.7
70.81
68.13
66.03
64.56
63.37
61.89
59.57
56.21
52.02
47.58
43.57
40.44
38.19
36.35
34.15
30.78
25.65
18.53
9.75
0.23
-8.47
-14.41
-15.67
-11.16
-1.3
11.69
24.15
32.03
32.34
24.14
8.61
-11.79
-34.49
-57.63
-80.1
-100.98
-119.08
-132.99
-141.78
-145.72
-146.42
-146.08
-146.3
-147.11
-147.09
-144.37
-137.81
-127.52
-114.53
-99.93
-84.24
-67.46
-49.57
-31.03
-12.69
4.64
20.68
35.6
49.57
62.15
72.13
78.02
78.84
74.63
66.45
55.8
44.07
32.23
20.87
10.43
1.25
-6.57
-13.38
-19.85
-26.7
-34.28
-42.3
-50.02
-56.59
-61.4
-64.29
-65.4
-65.0
-63.22
-60.05
-55.39
-49.11
-41.08
-31.08
-18.92
-4.58
11.5
28.28
44.31
58.06
68.42
74.99
78.19
78.97
78.37
77.22
75.92
74.5
72.84
70.71
67.98
64.61
60.76
56.81
53.29
50.84
50.0
50.96
53.46
56.72
59.65
61.11
60.3
56.93
51.16
43.48
34.37
24.26
13.54
2.68
-7.73
-17.08
-24.86
-30.94
-35.57
-39.23
-42.39
-45.28
-47.86
-49.92
-51.29
-52.04
-52.45
-52.94
-53.75
-54.84
-55.89
-56.46
-56.26
-55.32
-54.08
-53.18
-53.23
-54.58
-57.15
-60.44
-63.67
-65.94
-66.47
-64.74
-60.72
-54.72
-47.35
-39.28
-31.09
-23.18
-15.83
-9.33
-3.9
0.28
3.25
5.27
6.77
8.13
9.59
11.14
12.64
13.92
14.84
15.35
15.35
14.74
13.44
11.48
9.06
6.48
4.06
1.97
0.18
-1.49
-3.33
-5.57
-8.36
-11.68
-15.41
-19.29
-22.99
-26.09
-28.15
-28.75
-27.62
-24.72
-20.26
-14.65
-8.47
-2.24
3.62
8.86
13.36
17.06
19.87
21.66
22.36
21.93
20.43
18.07
15.19
12.22
9.62
7.66
6.36
5.46
4.43
2.75
0.06
-3.68
-8.17
-12.92
-17.5
-21.72
-25.72
-29.91
-34.81
-40.73
-47.72
-55.47
-63.4
-70.83
-77.05
-81.43
-83.5
-83.05
-80.24
-75.62
-69.97
-64.06
-58.26
-52.23
-45.1
-35.89
-24.13
-10.51
3.11
14.17
20.38
20.65
15.79
8.38
2.05
0.29
5.2
16.68
32.74
50.28
66.35
79.07
87.88
92.9
94.39
92.61
88.2
82.6
77.87
75.71
76.24
77.47
76.01
68.83
55.16
37.17
18.97
4.45
-4.55
-8.95
-11.37
-14.29
-18.58
-23.2
-26.04
-25.36
-20.68
-12.94
-3.81
5.11
13.08
20.3
27.3
34.32
40.9
45.91
48.09
46.76
42.18
35.56
28.56
22.58
18.27
15.38
13.01
10.23
6.5
1.86
-3.24
-8.29
-13.07
-17.68
-22.37
-27.23
-31.98
-35.99
-38.47
-38.77
-36.65
-32.35
-26.47
-19.76
-12.88
-6.32
-0.33
4.95
9.39
12.86
15.16
16.18
16.01
14.94
13.51
12.26
11.64
11.76
12.42
13.22
13.73
13.68
13.08
12.08
10.88
9.55
7.99
6.03
3.49
0.34
-3.29
-7.21
-11.25
-15.32
-19.41
-23.49
-27.39
-30.71
-32.78
-32.84
-30.23
-24.66
-16.46
-6.55
3.71
12.98
20.33
25.59
29.37
32.82
37.17
43.31
51.42
61.13
71.72
82.43
92.92
103.48
115.15
129.69
149.22
175.18
207.53
243.8
278.82
305.6
317.14
308.75
279.84
234.17
178.18
118.83
61.61
9.67
-35.75
-74.49
-106.61
-132.33
-152.02
-166.67
-177.2
-183.99
-186.91
-185.92
-181.75
-176.17
-171.36
-165.75
-157.34
-143.77
-124.0
-99.53
-73.92
-50.81
-32.08
-17.47
-6.54
1.78
7.24
8.41
3.88
-6.45
-20.8
-35.98
-48.98
-55.93
-56.49
-53.41
-51.05
-53.63
-63.9
-82.75
-109.7
-143.3
-180.83
-218.19
-249.39
-267.3
-265.79
-242.04
-197.76
-138.73
-72.87
-8.03
49.14
93.67
122.26
133.02
125.87
102.96
68.85
30.04
-6.16
-33.38
-47.59
-47.79
-36.19
-16.96
5.26
26.95
46.14
61.97
73.55
79.48
78.45
70.49
57.79
43.9
31.81
21.86
11.52
-2.89
-23.17
-47.23
-69.52
-83.67
-85.76
-76.14
-58.95
-39.77
-22.88
-9.93
-0.29
7.61
14.9
21.7
27.36
31.06
32.3
30.97
26.81
18.94
5.77
-14.26
-41.25
-72.52
-102.58
-124.68
-133.55
-127.76
-110.24
-86.7
-62.73
-41.48
-23.16
-6.33
10.17
26.17
40.62
52.9
63.77
75.0
88.09
102.95
117.54
128.92
134.64
133.99
128.29
120.25
112.86
108.4
107.59
109.41
111.47
111.06
106.35
97.41
86.25
75.92
69.03
66.5
67.19
68.77
69.01
66.82
62.48
57.02
51.33
45.71
40.04
34.24
28.69
24.09
21.11
19.93
20.0
20.37
20.11
18.69
16.12
12.76
8.97
4.89
0.33
-5.06
-11.52
-18.96
-26.8
-34.13
-39.89
-43.22
-43.69
-41.38
-36.79
-30.67
-23.83
-16.99
-10.75
-5.45
-1.16
2.2
4.85
6.96
8.51
9.32
9.22
8.17
6.47
4.66
3.31
2.78
3.05
3.7
4.15
3.94
2.88
1.04
-1.35
-4.07
-6.95
-9.83
-12.55
-15.01
-17.23
-19.46
-22.1
-25.43
-29.47
-33.69
-37.22
-39.09
-38.52
-35.3
-29.81
-22.83
-15.34
-8.23
-2.08
2.83
6.5
9.07
10.68
11.46
11.52
11.02
10.17
9.23
8.4
7.77
7.28
6.79
6.15
5.25
4.04
2.5
0.6
-1.68
-4.39
-7.53
-11.02
-14.71
-18.39
-21.83
-24.79
-27.1
-28.7
-29.71
-30.39
-31.12
-32.14
-33.49
-34.86
-35.61
-35.09
-32.79
-28.67
-23.12
-16.86
-10.63
-4.99
-0.21
3.73
6.96
9.6
11.65
13.07
13.82
13.96
13.68
13.25
12.9
12.73
12.71
12.72
12.61
12.35
11.98
11.64
11.39
11.2
10.9
10.25
9.1
7.41
5.36
3.14
0.9
-1.37
-3.88
-6.88
-10.57
-14.94
-19.78
-24.78
-29.5
-33.53
-36.43
-37.81
-37.41
-35.2
-31.4
-26.43
-20.84
-15.13
-9.68
-4.71
-0.36
3.25
6.02
7.87
8.82
9.04
8.84
8.64
8.77
9.42
10.58
12.01
13.45
14.64
15.47
15.9
15.95
15.64
14.9
13.66
11.86
9.47
6.48
2.94
-1.12
-5.61
-10.49
-15.67
-21.12
-26.77
-32.4
-37.6
-41.75
-44.19
-44.4
-42.28
-38.19
-32.81
-26.94
-21.16
-15.76
-10.7
-5.89
-1.31
2.87
6.31
8.66
9.74
9.64
8.75
7.61
6.78
6.62
7.2
8.32
9.66
10.9
11.87
12.55
13.0
13.3
13.39
13.15
12.4
11.04
9.08
6.66
3.96
1.14
-1.73
-4.69
-7.81
-11.15
-14.72
-18.52
-22.58
-26.91
-31.45
-35.95
-39.89
-42.56
-43.27
-41.57
-37.41
-31.15
-23.42
-14.99
-6.54
1.35
8.28
14.01
18.44
21.61
23.7
24.91
25.5
25.68
25.64
25.57
25.55
25.62
25.71
25.7
25.46
24.91
24.09
23.1
22.1
21.15
20.23
19.12
17.56
15.3
12.29
8.71
4.9
1.24
-2.01
-4.84
-7.44
-10.16
-13.37
-17.31
-22.14
-27.76
-33.84
-39.77
-44.7
-47.73
-48.11
-45.54
-40.23
-32.93
-24.62
-16.26
-8.52
