8.88
6.14
3.44
0.7
-2.19
-5.29
-8.55
-11.82
-14.89
-17.67
-20.22
-22.8
-25.76
-29.36
-33.58
-38.07
-42.17
-45.11
-46.2
-44.99
-41.41
-35.7
-28.45
-20.37
-12.17
-4.43
2.5
8.45
13.43
17.45
20.46
22.36
23.07
22.67
21.47
19.99
18.83
18.43
18.95
20.18
21.66
22.88
23.53
23.49
22.88
21.87
20.57
18.99
17.06
14.76
12.21
9.57
7.0
4.53
2.04
-0.62
-3.57
-6.76
-9.99
-13.07
-15.84
-18.35
-20.76
-23.33
-26.34
-29.84
-33.64
-37.23
-39.84
-40.6
-38.86
-34.38
-27.44
-18.84
-9.54
-0.43
7.87
15.09
21.15
26.07
29.85
32.51
34.15
34.99
35.37
35.57
35.73
35.77
35.51
34.81
33.76
32.66
31.93
31.87
32.5
33.51
34.34
34.5
33.77
32.3
30.57
29.18
28.52
28.69
29.51
30.76
32.38
34.5
37.36
41.0
45.22
49.58
53.61
57.06
59.77
61.49
61.65
59.46
54.18
45.6
34.2
20.86
6.45
-8.63
-24.44
-41.19
-58.68
-76.11
-92.2
-105.6
-115.33
-120.98
-122.7
-121.02
-116.73
-110.71
-103.7
-96.25
-88.6
-80.92
-73.38
-66.2
-59.52
-53.18
-46.68
-39.42
-31.12
-22.06
-13.04
-4.9
1.93
7.68
13.03
18.6
24.69
31.11
37.59
43.9
50.09
56.27
62.43
68.16
72.72
75.18
74.67
70.62
63.05
52.56
40.19
27.13
14.22
1.72
-10.54
-22.72
-34.36
-44.27
-50.91
-53.26
-51.51
-47.14
-42.35
-38.85
-37.12
-36.34
-35.27
-33.26
-30.75
-28.93
-28.64
-29.6
-30.53
-30.03
-27.8
-25.0
-23.61
-25.06
-29.15
-33.93
-36.8
-35.91
-31.15
-24.14
-17.1
-11.71
-8.34
-6.36
-4.73
-2.76
-0.21
3.04
7.22
12.93
20.63
30.14
40.25
48.97
54.28
55.03
51.5
45.23
38.33
32.55
28.79
27.11
27.24
29.13
33.09
39.68
49.28
61.82
76.57
92.33
107.43
119.75
127.04
127.55
120.87
108.62
94.32
82.29
76.1
77.09
83.8
92.57
98.75
98.2
88.34
68.46
39.56
3.91
-35.6
-76.02
-114.6
-148.94
-176.93
-196.89
-207.63
-208.9
-201.59
-187.49
-168.65
-146.75
-122.92
-98.01
-73.18
-50.15
-30.63
-15.58
-4.53
4.3
12.83
22.01
31.24
38.81
43.13
44.07
43.24
43.47
47.52
56.63
69.76
83.71
94.26
97.6
91.58
76.2
53.19
25.21
-5.04
-35.25
-63.57
-88.62
-109.51
-126.12
-139.16
-150.04
-160.16
-170.11
-179.18
-185.56
-187.05
-182.07
-170.34
-153.15
-132.93
-112.59
-94.69
-80.55
-70.0
-61.57
-53.25
-43.3
-30.87
-16.2
-0.31
15.45
29.81
41.72
50.51
55.85
57.92
57.44
55.68
54.01
53.48
54.43
56.48
58.85
60.66
61.45
61.33
61.0
61.53
63.95
68.87
76.16
84.96
93.94
101.68
107.13
109.92
110.31
108.8
105.81
101.51
95.91
89.18
81.8
74.47
67.81
61.99
56.61
50.95
44.3
36.28
26.91
16.54
5.76
-4.64
-13.56
-19.77
-22.14
-20.19
-14.49
-6.6
1.4
7.79
11.73
13.44
13.71
13.19
11.93
9.4
5.0
-1.43
-9.26
-17.38
-24.61
-30.2
-33.93
-35.73
-35.42
-32.46
-26.29
-16.76
-4.47
9.31
23.02
35.45
46.05
54.8
61.8
66.73
68.77
66.87
60.23
48.66
32.6
13.0
-8.9
-31.47
-52.68
-70.33
-82.62
-88.93
-90.15
-88.49
-86.49
-86.03
-87.72
-91.1
-95.37
-100.01
-104.75
-109.01
-111.35
-109.71
-102.4
-89.26
-72.33
-55.26
-42.01
-35.25
-35.4
-40.74
-48.22
-54.79
-58.21
-57.5
-52.77
-44.67
-34.06
-21.63
-7.98
6.4
20.91
34.89
47.72
59.03
68.94
77.96
86.67
95.36
103.75
111.09
116.53
119.65
120.78
121.09
122.05
124.57
128.04
130.2
127.6
117.12
97.63
70.78
40.65
12.06
-11.28
-28.1
-39.6
-48.38
-57.06
-67.12
-78.8
-91.45
-104.11
-115.7
-124.97
-130.41
-130.56
-124.68
-113.3
-98.3
-82.29
-67.72
-55.96
-47.23
-40.92
-36.37
-33.21
-31.39
-30.73
-30.44
-29.07
-25.17
-17.94
-7.77
3.91
15.28
25.02
32.71
38.84
44.19
49.22
53.72
56.9
57.99
56.89
54.42
52.07
51.32
52.85
56.19
59.83
61.95
61.25
57.44
51.36
44.41
37.91
32.61
28.56
25.42
22.81
20.48
18.35
16.24
13.78
10.48
5.99
0.28
-6.2
-12.71
-18.5
-23.12
-26.51
-28.91
-30.57
-31.51
-31.46
-29.97
-26.68
-21.65
-15.47
-9.14
-3.67
0.3
2.62
3.34
2.14
-1.85
-9.77
-22.1
-37.71
-53.48
-65.11
-68.88
-63.29
-49.88
-32.55
-15.69
-2.34
6.75
12.73
17.44
22.05
26.56
30.01
31.42
30.45
27.63
24.0
20.54
17.81
15.79
14.1
12.32
10.27
8.18
6.45
5.48
5.28
5.4
5.06
3.62
0.99
-2.12
-4.42
-4.6
-1.93
3.42
10.59
18.5
26.22
33.04
38.15
40.38
38.3
30.92
18.43
2.72
-13.07
-25.56
-32.49
-33.48
-30.01
-24.45
-18.91
-14.36
-10.52
-6.51
-1.5
4.66
11.47
18.15
24.05
28.76
32.01
33.34
31.94
27.0
18.12
5.98
-7.78
-21.07
-32.31
-41.08
-48.17
-54.96
-62.55
-71.17
-80.04
-87.85
-93.13
-94.7
-91.83
-84.32
-72.53
-57.46
-40.55
-23.49
-7.7
5.92
17.17
26.27
33.58
39.36
43.83
47.29
50.16
52.97
56.0
59.1
61.6
62.57
61.33
57.77
52.5
46.62
41.22
36.79
33.03
29.17
24.5
18.92
13.03
7.77
3.85
1.5
0.35
-0.3
-1.25
-3.43
-7.76
-15.08
-25.73
-39.13
-53.58
-66.62
-75.81
-79.64
-78.09
-72.41
-64.43
-55.68
-47.0
-38.55
-30.23
-22.03
-14.21
-7.25
-1.51
3.01
6.76
10.54
15.15
21.0
27.83
34.85
40.99
45.53
48.36
50.01
51.31
52.83
54.64
56.17
56.68
55.62
52.98
49.29
45.35
41.88
39.29
37.64
36.73
36.33
36.25
36.41
36.72
36.99
36.92
36.2
34.76
32.78
30.76
29.26
28.63
28.84
29.46
29.98
29.96
29.35
28.46
27.79
27.7
28.23
29.07
29.79
29.94
29.21
27.43
24.47
20.27
14.79
8.09
0.32
-8.36
-17.81
-27.95
-38.67
-49.77
-60.93
-71.69
-81.56
-90.14
-97.2
-102.52
-105.97
-107.33
-106.55
-103.77
-99.35
-93.58
-86.46
-77.6
-66.34
-52.31
-35.96
-18.77
-2.97
9.27
16.73
19.62
19.34
17.82
16.63
16.51
17.35
18.58
19.62
20.11
19.97
19.24
17.94
16.02
13.35
9.86
5.69
1.3
-2.51
-4.67
-4.22
-0.75
5.19
12.07
17.71
20.08
18.04
11.87
3.22
-5.49
-11.84
-14.35
-12.83
-8.26
-2.19
3.92
9.19
13.3
16.26
18.09
18.79
18.39
17.17
15.64
14.49
14.17
14.75
15.87
16.89
17.29
16.8
15.53
13.86
12.19
10.79
9.69
8.61
7.06
4.53
0.69
-4.38
-10.24
-16.21
-21.67
-26.29
-30.12
-33.58
-37.2
-41.43
-46.33
-51.32
-55.26
-56.64
-54.19
-47.41
-37.0
-24.69
-12.79
-3.26
3.03
6.43
8.27
9.99
12.54
15.97
19.56
22.3
23.4
22.64
20.39
17.43
14.58
12.47
11.39
11.35
12.21
13.74
15.6
17.2
17.85
16.83
13.74
8.82
2.98
-2.32
-5.56
-5.75
-2.82
2.34
8.17
13.06
15.91
16.57
15.7
14.44
13.85
14.46
16.11
18.13
19.68
20.11
19.1
16.73
13.38
9.74
6.65
5.09
5.95
9.75
16.41
25.15
34.64
43.31
49.89
53.69
54.79
53.86
51.79
49.38
47.1
45.17
43.74
43.03
43.33
44.99
48.25
53.2
59.58
66.6
72.77
75.91
73.59
64.01
46.66
22.67
-5.68
-35.81
-65.65
-93.71
-118.61
-138.59
-151.44
-155.4
-150.18
-137.79
-122.17
-107.69
-97.43
-92.03
-89.93
-88.52
-85.76
-81.0
-74.87
-68.41
-62.12
-55.59
-47.82
-38.06
-26.46
-14.24
-3.18
5.18
10.22
12.52
13.59
15.37
19.5
26.79
36.9
48.46
59.64
68.81
75.28
79.34
81.93
83.87
85.46
86.39
86.12
84.42
81.5
77.92
74.07
70.05
65.71
60.97
56.1
51.63
48.02
45.08
41.85
36.81
28.65
16.98
2.7
-12.24
-25.56
-35.37
-40.81
-42.13
-40.38
-36.95
-33.16
-30.1
-28.6
-29.28
-32.3
-37.27
-43.21
-48.74
-52.56
-53.91
-52.85
-50.1
-46.82
-44.26
-43.46
-44.93
-48.45
-53.16
-57.57
-60.1
-59.34
-54.46
-45.46
-33.22
-19.45
-6.35
3.83
9.45
9.88
5.66
-1.75
-10.38
-18.08
-22.7
-22.12
-14.51
1.33
25.23
55.26
87.91
118.95
144.61
162.56
172.18
174.19
169.94
160.71
147.66
131.81
114.24
96.16
78.68
62.6
48.19
35.2
23.08
11.27
-0.36
-11.41
-21.02
-28.19
-32.2
-32.98
-31.17
-27.93
-24.49
-21.75
-20.03
-19.15
-18.68
-18.27
-17.85
-17.64
-17.95
-19.04
-20.91
-23.31
-25.77
-27.86
-29.32
-30.22
-30.95
-32.03
-33.81
-36.25
-38.87
-40.96
-41.88
-41.34
-39.52
-36.93
-34.13
-31.5
-29.18
-27.11
-25.17
-23.27
-21.41
-19.62
-18.01
-16.73
-16.01
-16.08
-17.15
-19.29
-22.49
-26.65
-31.58
-36.94
-42.2
-46.64
-49.44
-49.99
-47.99
-43.63
-37.5
-30.36
-22.94
-15.77
-9.15
-3.21
1.99
6.33
9.69
11.95
13.08
13.19
12.6
11.71
10.99
10.81
11.36
12.61
14.31
16.11
17.61
18.49
18.54
17.67
15.95
13.53
10.59
7.28
3.72
-0.03
-3.98
-8.17
-12.64
-17.37
-22.28
-27.17
-31.79
-35.96
-39.61
-42.84
-45.86
-48.78
-51.61
-54.09
-55.8
-56.29
-55.16
-52.16
-47.26
-40.57
-32.43
-23.31
-13.81
-4.59
3.7
10.43
14.99
16.89
15.88
12.1
6.17
-0.84
-7.72
-13.41
-17.32
-19.35
-19.75
-18.83
-16.81
-13.82
-10.06
-5.92
-2.02
0.91
2.31
1.91
-0.06
-2.91
-5.62
-7.2
-7.07
-5.33
-2.79
-0.65
0.01
-1.35
-4.52
-8.74
-13.17
-17.36
-21.49
-26.06
-31.54
-37.84
-44.18
-49.22
-51.53
-50.12
-44.77
-36.07
-25.35
-14.39
-4.96
1.51
4.26
3.39
-0.21
-5.06
-9.53
-12.24
-12.41
-9.83
-4.87
1.67
8.74
15.03
18.92
18.76
13.04
1.13
-16.15
-36.33
-55.7
-70.26
-77.02
-75.0
-65.47
-51.29
-35.81
-21.85
-11.14
-4.27
-0.93
-0.33
-1.45
-3.18
-4.53
-4.81
-3.6
-0.68
4.21
11.28
20.46
31.08
41.83
51.22
58.34
63.43
67.75
72.74
78.88
85.14
89.46
90.04
86.57
80.58
74.75
71.44
71.49
73.79
76.15
76.49
73.89
68.84
62.59
56.44
51.02
46.31
41.84
37.15
32.0
26.46
20.82
15.42
10.49
6.14
2.27
-1.28
-4.62
-7.79
-10.81
-13.75
-16.82
-20.21
-23.89
-27.44
-30.03
-30.68
-28.69
-23.91
-16.91
-8.75
-0.63
6.56
12.46
17.23
21.2
24.61
27.35
29.04
29.36
28.36
26.59
24.93
24.13
24.4
25.36
26.27
26.5
25.9
24.81
23.82
23.28
23.11
22.8
21.69
19.31
15.62
10.98
5.97
1.14
-3.16
-6.83
-9.93
-12.49
-14.49
-15.86
-16.63
-17.04
-17.58
-18.82
-21.11
-24.29
-27.61
-29.93
-30.21
-27.87
-23.11
-16.75
-9.86
-3.35
2.28
6.96
10.84
14.05
16.55
18.2
18.87
18.59
17.59
16.24
15.04
14.46
14.9
16.5
19.13
22.39
25.7
28.48
30.29
30.96
30.48
29.07
26.98
24.42
21.47
18.06
14.02
9.2
3.62
-2.48
-8.66
-14.4
-19.34
-23.37
-26.67
-29.58
-32.44
-35.43
-38.46
-41.2
-43.16
-43.8
-42.68
-39.63
-34.75
-28.37
-20.9
-12.78
-4.38
3.89
11.59
18.25
23.46
27.02
29.01
29.72
29.46
28.51
26.99
24.99
22.66
20.23
17.95
16.04
14.58
13.59
13.08
13.09
13.64
14.58
15.64
16.41
16.59
16.13
15.17
13.99
12.69
11.21
9.34
6.95
4.09
0.94
-2.37
-5.87
-9.71
-14.06
-18.93
-24.16
-29.55
-34.96
-40.31
-45.37
-49.61
-52.14
-52.06
-48.77
-42.32
-33.41
-23.14
-12.65
-2.79
5.88
13.11
18.81
23.0
25.81
27.43
28.15
28.27
28.09
27.77
27.37
26.89
26.27
25.5
24.53
23.32
21.7
19.35
15.9
11.12
5.1
-1.7
-8.55
-14.76
-19.92
-24.04
-27.35
-30.06
-32.22
-33.73
-34.62
-35.17
-36.06
-38.13
-42.07
-48.14
-56.2
-65.92
-76.89
-88.61
-100.29
-110.75
-118.66
-123.12
-124.24
-123.14
-121.45
-120.2
-119.16
-116.9
-111.76
-102.92
-91.08
-77.97
-65.26
-53.54
-42.09
-29.65
-15.39
0.42
16.74
32.55
47.62
62.52
78.04
94.24
110.11
123.86
133.85
139.27
140.45
138.51
134.7
129.89
124.44
118.35
111.52
103.99
95.94
87.56
79.0
70.36
61.73
53.25
45.03
37.14
29.46
21.75
13.77
5.47
-2.82
-10.42
-16.43
-20.1
-21.1
-19.59
-16.22
-11.78
-6.97
-2.24
2.17
6.16
9.62
12.49
14.77
16.68
18.61
21.03
24.24
28.24
32.65
36.82
40.03
41.72
41.69
40.1
37.42
34.26
31.17
28.55
26.55
25.15
24.16
23.34
22.4
21.05
19.05
16.27
12.77
8.75
4.6
0.69
-2.78
-5.86
-8.86
-12.17
-16.05
-20.45
-24.92
-28.72
-30.97
-31.01
-28.55
-23.87
-17.7
-11.1
-5.07
-0.33
2.81
4.5
5.09
5.03
4.67
4.24
3.87
3.63
3.47
3.23
2.66
1.55
-0.05
-1.66
-2.44
-1.46
1.9
7.56
14.7
22.0
28.09
31.97
33.18
31.77
28.11
22.71
16.14
9.04
2.05
-4.25
-9.48
-13.61
-16.96
-20.16
-23.9
-28.72
-34.76
-41.58
-48.29
-53.76
-56.98
-57.4
-55.05
-50.49
-44.54
-37.98
-31.43
-25.27
-19.75
-15.07
-11.37
-8.74
-7.15
-6.36
-6.01
-5.66
-4.94
-3.63
-1.76
0.41
2.56
4.36
5.59
6.15
6.04
5.29
3.95
2.11
-0.15
-2.78
-5.73
-8.98
-12.48
-16.08
-19.55
-22.65
-25.28
-27.57
-29.84
-32.49
-35.73
-39.44
-43.07
-45.88
-47.1
-46.31
-43.5
-39.06
-33.56
-27.52
-21.33
-15.16
-9.17
-3.55
1.4
5.41
8.33
10.21
11.27
11.77
11.91
11.84
11.63
11.43
11.41
11.74
12.43
13.37
14.3
15.0
15.38
15.45
15.27
14.79
13.84
12.21
9.76
6.59
3.02
-0.49
-3.6
-6.19
-8.48
-10.88
-13.87
-17.71
-22.36
-27.47
-32.44
-36.57
-39.24
-39.99
-38.57
-34.97
-29.42
-22.42
-14.65
-6.92
0.01
5.62
9.66
12.14
13.2
13.02
11.7
9.41
6.38
3.01
-0.17
-2.68
-4.21
-4.78
-4.6
-4.09
-3.63
-3.53
-3.94
-4.92
-6.57
-8.98
-12.24
-16.17
-20.3
-23.94
-26.51
-27.89
-28.76
-30.29
-33.67
-39.44
-47.07
-55.19
-62.12
-66.49
-67.69
-65.8
-61.3
-54.89
-47.37
-39.66
-32.73
-27.25
-23.28
-20.12
-16.49
-11.07
-3.16
7.06
18.43
29.12
37.26
41.55
41.82
39.14
35.47
32.9
32.82
35.48
40.04
45.12
49.58
52.83
54.81
55.58
54.94
52.49
47.96
41.62
34.43
27.65
22.29
18.55
15.78
12.8
8.61
2.92
-3.55
-9.35
-12.92
-13.24
-10.17
-4.45
2.66
9.85
16.11
20.78
23.54
24.26
22.97
19.95
15.69
10.92
6.41
2.75
0.08
-1.93
-3.89
-6.34
-9.44
-12.89
-16.12
-18.58
-19.94
-20.21
-19.57
-18.25
-16.41
-14.24
-12.06
-10.39
-9.87
-11.0
-13.99
-18.62
-24.3
-30.27
-35.75
-40.02
-42.57
-43.1
-41.56
-38.2
-33.44
-27.8
-21.74
-15.59
-9.54
-3.72
1.8
6.95
11.69
16.01
19.93
23.42
26.42
28.81
30.53
31.63
32.31
32.79
33.29
33.86
34.4
34.69
34.57
33.93
32.83
31.33
29.48
27.18
24.25
20.54
15.96
10.55
4.4
-2.44
-9.88
-17.74
-25.57
-32.51
-37.55
-39.72
-38.47
-33.94
-26.81
-18.11
-8.83
0.33
9.03
17.18
24.78
31.81
38.14
43.66
48.28
52.0
54.85
56.84
57.9
57.93
56.88
54.86
52.17
49.2
46.33
43.76
41.42
39.08
36.47
33.42
29.89
25.99
21.87
17.65
13.45
9.3
5.18
0.96
-3.59
-8.66
-14.23
-19.98
-25.14
-28.74
-29.86
-27.92
-22.94
-15.5
-6.61
2.62
11.22
18.56
24.37
28.69
31.67
33.47
34.24
34.09
33.2
31.86
30.38
29.03
27.92
26.92
25.78
24.19
21.99
19.16
15.85
12.3
8.8
5.55
2.71
0.25
-1.99
-4.28
-6.95
-10.25
-14.3
-19.03
-24.16
-29.25
-33.65
-36.59
-37.29
-35.19
-30.12
-22.49
-13.18
-3.33
6.0
14.07
20.53
25.32
28.5
30.1
30.16
28.84
26.49
23.62
20.8
18.48
16.8
15.7
14.93
14.21
13.32
12.16
10.71
8.98
7.07
5.04
2.93
0.7
-1.77
-4.6
-7.96
-11.89
-16.32
-21.04
-25.67
-29.72
-32.63
-33.82
-32.82
-29.43
-23.79
-16.47
-8.3
-0.24
6.91
12.59
16.56
18.79
19.42
18.68
16.89
14.46
11.87
9.58
7.87
6.74
5.97
5.19
4.05
2.42
0.34
-1.92
-4.06
-5.84
-7.11
-7.92
-8.43
-8.92
-9.71
-11.16
-13.54
-16.91
-20.98
-25.11
-28.43
-29.99
-29.16
-25.72
-19.99
-12.68
-4.64
3.33
10.62
16.78
21.51
24.64
26.08
25.98
24.66
22.55
20.1
17.66
15.4
13.35
11.53
9.91
8.47
7.16
5.88
4.53
3.1
1.62
0.23
-1.02
-2.16
-3.4
-4.97
-7.07
-9.8
-13.07
-16.63
-20.02
-22.66
-23.91
-23.27
-20.52
-15.86
-9.91
-3.43
2.79
8.19
12.46
15.47
17.2
17.67
16.94
15.21
12.79
10.1
7.58
5.54
4.12
3.22
2.61
2.01
1.22
0.25
-0.81
-1.8
-2.64
-3.41
-4.31
-5.58
-7.41
-9.84
-12.76
-15.96
-19.16
-22.06
-24.34
-25.69
-25.78
-24.45
-21.69
-17.71
-12.9
-7.72
-2.62
2.08
6.11
9.3
11.48
12.53
12.4
11.19
9.17
6.77
4.41
2.43
1.0
0.05
-0.64
-1.35
-2.32
-3.6
-5.09
-6.56
-7.8
-8.71
-9.41
-10.18
-11.35
-13.21
-15.84
-19.14
-22.8
-26.33
-29.06
-30.15
-28.71
-23.97
-15.63
-4.06
9.6
23.55
35.83
44.9
50.06
51.69
50.94
49.35
48.18
48.08
48.9
49.82
49.58
46.75
40.08
28.78
12.91
-6.26
-26.34
-44.19
-56.9
-62.71
-61.69
-55.65
-47.31
-39.26
-33.07
-29.1
-26.82
-25.6
-25.23
-26.03
-28.57
-33.13
-39.26
-45.82
-51.35
-54.53
-54.68
-51.95
-47.13
-41.3
-35.37
-29.83
-24.73
-19.98
-15.59
-11.8
-9.03
-7.56
-7.35
-8.04
-9.02
-9.76
-9.95
-9.57
-8.82
-8.0
-7.39
-7.18
-7.42
-8.09
-9.1
-10.39
-11.91
-13.63
-15.5
-17.27
-18.5
-18.56
-16.89
-13.2
-7.64
-0.82
6.35
12.98
18.4
22.32
24.74
25.84
25.83
24.89
23.17
20.83
18.17
15.51
13.22
11.54
10.54
10.11
9.91
9.6
8.85
7.53
5.7
3.58
1.4
-0.7
-2.75
-4.93
-7.45
-10.43
-13.8
-17.31
-20.54
-22.99
-24.23
-23.91
-21.87
-18.18
-13.1
-7.06
-0.58
5.81
11.63
16.48
20.11
22.34
23.16
22.66
21.12
18.95
16.6
14.52
12.99
12.08
11.64
11.44
11.27
10.99
10.56
9.91
8.97
7.63
5.82
3.57
1.04
-1.61
-4.23
-6.88
-9.72
-12.95
-16.66
-20.69
-24.67
-28.01
-30.09
-30.39
-28.66
-24.97
-19.73
-13.62
-7.35
-1.54
3.41
7.34
10.17
11.93
12.59
12.16
10.74
8.6
6.12
3.75
1.85
0.61
0.08
0.11
0.47
0.84
0.92
0.49
-0.57
-2.14
-3.99
-5.83
-7.43
-8.72
-9.78
-10.76
-11.75
-12.83
-13.93
-14.99
-15.82
-16.11
-15.45
-13.35
-9.4
-3.51
3.98
12.37
20.7
28.05
33.81
37.7
39.76
40.27
39.55
37.93
35.69
33.08
30.35
27.76
25.54
23.83
22.62
21.75
20.94
19.89
18.38
16.35
13.9
11.21
8.48
5.82
3.26
0.71
-1.88
-4.63
-7.66
-11.09
-15.05
-19.53
-24.3
-28.89
-32.54
-34.45
-33.97
-30.8
-25.11
-17.51
-8.85
-0.04
8.18
15.35
21.24
25.76
28.92
30.72
31.25
30.72
29.47
27.95
26.6
25.68
25.27
25.28
25.53
25.8
25.94
25.84
25.42
24.62
23.31
21.41
18.87
15.78
12.37
8.95
5.85
