-19.13
-13.11
-6.69
-0.49
5.04
9.7
13.47
16.42
18.63
20.17
21.07
21.42
21.37
21.11
20.88
20.87
21.18
21.79
22.59
23.37
23.93
24.08
23.73
22.94
21.83
20.56
19.25
17.92
16.53
15.02
13.35
11.53
9.57
7.52
5.39
3.22
1.09
-0.94
-2.81
-4.65
-6.67
-9.16
-12.31
-16.05
-20.01
-23.6
-26.19
-27.3
-26.72
-24.55
-21.13
-16.99
-12.68
-8.71
-5.41
-2.93
-1.23
-0.16
0.41
0.62
0.54
0.29
0.02
-0.07
0.17
0.79
1.7
2.65
3.42
3.84
3.93
3.8
3.61
3.44
3.19
2.69
1.75
0.36
-1.31
-2.97
-4.36
-5.4
-6.19
-6.99
-7.99
-9.26
-10.66
-12.01
-13.2
-14.29
-15.43
-16.84
-18.61
-20.65
-22.64
-24.14
-24.69
-23.91
-21.67
-18.05
-13.41
-8.26
-3.11
1.58
5.55
8.7
11.06
12.66
13.54
13.74
13.35
12.56
11.63
10.83
10.33
10.14
10.18
10.3
10.38
10.34
10.17
9.81
9.26
8.47
7.43
6.16
4.69
3.02
1.17
-0.85
-2.95
-4.97
-6.75
-8.18
-9.28
-10.26
-11.39
-12.94
-15.07
-17.64
-20.34
-22.61
-23.91
-23.77
-21.99
-18.68
-14.22
-9.12
-3.86
1.17
5.72
9.57
12.54
14.43
15.12
14.69
13.38
11.62
9.86
8.45
7.55
7.15
7.16
7.44
7.81
8.12
8.22
7.97
7.36
6.4
5.22
3.9
2.49
1.01
-0.55
-2.16
-3.78
-5.39
-7.02
-8.71
-10.51
-12.45
-14.55
-16.81
-19.21
-21.65
-23.9
-25.59
-26.26
-25.51
-23.14
-19.26
-14.21
-8.52
-2.74
2.64
7.27
10.91
13.49
15.05
15.67
15.51
14.74
13.58
12.31
11.22
10.58
10.54
11.01
11.77
12.47
12.85
12.77
12.27
11.48
10.53
9.43
8.11
6.46
4.43
2.11
-0.37
-2.81
-5.08
-7.11
-8.93
-10.65
-12.42
-14.39
-16.7
-19.4
-22.32
-25.11
-27.2
-27.96
-26.92
-23.91
-19.2
-13.36
-7.11
-1.07
4.36
9.01
12.84
15.82
17.84
18.84
18.85
18.05
16.83
15.58
14.59
13.95
13.56
13.27
12.97
12.66
12.38
12.15
11.9
11.49
10.77
9.65
8.1
6.2
4.08
1.88
-0.3
-2.37
-4.33
-6.17
-7.92
-9.63
-11.35
-13.21
-15.3
-17.71
-20.39
-23.08
-25.35
-26.61
-26.35
-24.29
-20.45
-15.2
-9.1
-2.78
3.19
8.36
12.49
15.45
17.24
17.96
17.79
16.97
15.78
14.51
13.41
12.64
12.25
12.19
12.34
12.56
12.69
12.64
12.34
11.75
10.88
9.7
8.2
6.39
4.29
2.0
-0.3
-2.44
-4.28
-5.79
-7.09
-8.4
-9.98
-12.01
-14.5
-17.24
-19.83
-21.72
-22.33
-21.27
-18.4
-13.93
-8.36
-2.28
3.71
9.17
13.78
17.35
19.74
20.88
20.8
19.71
17.98
16.08
14.44
13.37
12.99
13.22
13.83
14.54
15.07
15.18
14.76
13.82
12.53
11.04
9.5
7.93
6.26
4.41
2.33
0.09
-2.2
-4.42
-6.56
-8.65
-10.73
-12.83
-14.93
-17.0
-19.02
-20.93
-22.58
-23.67
-23.76
-22.41
-19.38
-14.79
-9.11
-3.06
2.66
7.54
11.39
14.26
16.28
17.54
18.03
17.73
16.71
15.21
13.63
12.38
11.76
11.8
12.25
12.77
12.99
12.71
11.95
10.86
9.66
8.49
7.35
6.1
4.56
2.61
0.26
-2.29
-4.81
-7.06
-8.95
-10.48
-11.77
-12.97
-14.24
-15.75
-17.6
-19.81
-22.17
-24.24
-25.41
-25.08
-22.93
-18.95
-13.58
-7.51
-1.48
3.91
8.27
11.48
13.56
14.63
14.88
14.5
13.74
12.89
12.19
11.84
11.89
12.24
12.67
12.92
12.78
12.22
11.4
10.56
9.89
9.39
8.86
7.96
6.43
4.17
1.41
-1.45
-3.99
-5.9
-7.11
-7.86
-8.51
-9.51
-11.15
-13.49
-16.31
-19.17
-21.47
-22.67
-22.36
-20.34
-16.69
-11.71
-5.97
-0.15
5.07
9.19
12.01
13.65
14.4
14.55
14.31
13.77
12.99
12.08
11.26
10.73
10.55
10.65
10.8
10.74
10.34
9.6
8.66
7.68
6.75
5.88
5.01
4.04
2.88
1.5
-0.08
-1.79
-3.52
-5.2
-6.78
-8.24
-9.62
-11.0
-12.48
-14.17
-16.16
-18.44
-20.86
-23.08
-24.67
-25.16
-24.15
-21.48
-17.26
-11.88
-5.89
0.07
5.44
9.82
13.05
15.12
16.16
16.35
15.88
14.97
13.84
12.76
11.95
11.57
11.64
12.03
12.47
12.73
12.65
12.16
11.35
10.35
9.3
8.26
7.22
6.15
4.99
3.68
2.2
0.53
-1.3
-3.24
-5.21
-7.13
-8.96
-10.72
-12.46
-14.25
-16.14
-18.16
-20.32
-22.63
-25.01
-27.3
-29.11
-29.97
-29.38
-27.02
-22.96
-17.6
-11.62
-5.76
-0.57
3.63
6.8
9.07
10.61
11.53
11.9
11.71
11.02
9.94
8.73
7.68
7.06
6.98
7.33
7.86
8.29
8.39
8.13
7.6
6.89
6.08
5.11
3.87
2.3
0.4
-1.71
-3.91
-6.09
-8.21
-10.24
-12.12
-13.83
-15.36
-16.79
-18.26
-19.93
-21.88
-24.07
-26.3
-28.29
-29.66
-30.0
-28.91
-26.11
-21.47
-15.26
-8.03
-0.63
6.08
11.48
15.35
17.86
19.38
20.25
20.72
20.84
20.66
20.28
19.93
19.82
20.06
20.56
21.11
21.44
21.38
20.91
20.11
19.14
18.07
16.95
15.74
14.38
12.81
10.96
8.82
6.45
3.95
1.45
-0.94
-3.21
-5.36
-7.49
-9.63
-11.76
-13.85
-15.86
-17.78
-19.57
-21.08
-22.03
-22.03
-20.75
-18.04
-14.07
-9.26
-4.18
0.67
4.95
8.54
11.42
13.56
14.92
15.51
15.4
14.76
13.86
12.93
12.07
11.27
10.5
9.7
8.94
8.27
7.73
7.25
6.71
5.95
4.94
3.7
2.35
0.91
-0.66
-2.44
-4.45
-6.57
-8.58
-10.27
-11.57
-12.6
-13.61
-14.86
-16.49
-18.46
-20.67
-22.99
-25.3
-27.46
-29.15
-29.9
-29.2
-26.68
-22.36
-16.69
-10.41
-4.32
1.01
5.31
8.59
10.99
12.61
13.5
13.71
13.35
12.69
12.04
11.65
11.61
11.79
11.98
12.0
11.8
11.45
11.09
10.75
10.37
9.8
8.84
7.38
5.44
3.12
0.58
-1.97
-4.36
-6.46
-8.2
-9.68
-11.08
-12.68
-14.68
-17.17
-20.01
-22.92
-25.46
-27.11
-27.38
-25.92
-22.64
-17.79
-11.95
-5.81
-0.06
4.9
8.93
12.09
14.49
16.18
17.09
17.2
16.57
15.42
14.07
12.85
11.93
11.39
11.12
11.0
10.89
10.71
10.4
9.89
9.13
8.01
6.49
4.58
2.4
0.15
-1.95
-3.76
-5.21
-6.36
-7.36
-8.39
-9.65
-11.29
-13.43
-16.06
-19.04
-22.02
-24.48
-25.84
-25.6
-23.5
-19.64
-14.38
-8.34
-2.13
3.73
8.92
13.27
16.74
19.3
20.9
21.52
21.2
20.17
18.75
17.35
16.3
15.79
15.78
16.05
16.29
16.24
15.8
15.02
14.06
13.04
11.97
10.73
9.16
7.17
4.78
2.16
-0.47
-2.95
-5.19
-7.22
-9.12
-10.96
-12.8
-14.69
-16.68
-18.86
-21.28
-23.88
-26.37
-28.28
-29.02
-28.06
-25.2
-20.6
-14.79
-8.48
-2.31
3.28
8.05
11.88
14.67
16.29
16.73
16.13
14.9
13.57
12.64
12.34
12.63
13.24
13.84
14.2
14.29
14.2
14.06
13.86
13.48
12.72
11.42
9.53
7.18
4.58
2.0
-0.36
-2.41
-4.17
-5.74
-7.31
-9.08
-11.18
-13.68
-16.52
-19.49
-22.24
-24.3
-25.22
-24.62
-22.36
-18.56
-13.61
-8.07
-2.47
2.74
7.33
11.19
14.28
16.63
18.29
19.38
20.09
20.67
21.31
22.12
23.02
23.85
24.38
24.46
24.1
23.47
22.81
22.31
22.01
21.75
21.19
20.0
17.88
14.7
10.51
5.51
-0.01
-5.69
-11.18
-16.2
-20.62
-24.51
-28.17
-31.95
-36.12
-40.65
-45.18
-49.06
-51.55
-52.03
-50.23
-46.22
-40.44
-33.53
-26.15
-18.9
-12.21
-6.3
-1.24
3.01
6.51
9.27
11.3
12.61
13.26
13.43
13.35
13.25
13.3
13.56
14.04
14.69
15.45
16.25
16.94
17.4
17.49
17.13
16.3
15.03
13.37
11.35
9.04
6.56
4.02
1.55
-0.81
-3.08
-5.38
-7.86
-10.64
-13.76
-17.16
-20.57
-23.59
-25.67
-26.27
-25.02
-21.84
-17.02
-11.18
-5.06
0.68
5.58
9.43
12.2
13.95
14.81
14.97
14.73
14.47
14.53
15.09
16.07
17.2
18.15
18.71
18.87
18.79
18.66
18.54
18.35
17.87
16.86
15.2
12.92
10.23
7.38
4.64
2.17
-0.04
-2.13
-4.34
-6.91
-9.94
-13.37
-16.94
-20.28
-22.92
-24.44
-24.49
-22.89
-19.67
-15.11
-9.68
-3.94
1.56
6.45
10.49
13.54
15.57
16.57
16.6
15.78
14.35
12.62
10.93
9.54
8.58
8.06
7.9
7.97
8.09
8.09
7.8
7.04
5.71
3.81
1.47
-1.08
-3.55
-5.7
-7.4
-8.64
-9.58
-10.51
-11.7
-13.38
-15.52
-17.81
-19.74
-20.67
-20.09
-17.77
-13.87
-8.83
-3.32
2.03
6.69
10.37
12.93
14.37
14.81
14.45
13.54
12.33
11.1
10.07
9.38
9.06
9.05
9.19
9.33
9.28
8.93
8.2
7.09
5.66
4.01
2.21
0.34
-1.56
-3.44
-5.28
-7.07
-8.82
-10.6
-12.47
-14.51
-16.75
-19.05
-21.11
-22.51
-22.75
-21.48
-18.59
-14.3
-9.1
-3.63
1.53
5.96
9.46
12.01
13.64
14.4
14.38
13.75
12.77
11.77
11.03
10.7
10.74
10.94
11.06
10.94
10.53
9.93
9.26
8.54
7.72
6.65
5.19
3.26
0.95
-1.57
-4.06
-6.28
-8.07
-9.42
-10.45
-11.44
-12.68
-14.34
-16.4
-18.55
-20.3
-21.13
-20.63
-18.63
-15.24
-10.83
-5.89
-0.93
3.65
7.59
10.76
13.15
14.73
15.48
15.41
14.61
13.3
11.82
10.54
9.72
9.41
9.48
9.63
9.64
9.35
8.79
8.06
7.2
6.2
4.94
3.33
1.38
-0.73
-2.77
-4.52
-5.87
-6.88
-7.72
-8.56
-9.55
-10.75
-12.19
-13.87
-15.73
-17.61
-19.21
-20.1
-19.84
-18.15
-14.99
-10.63
-5.59
-0.47
4.2
8.06
10.94
12.84
13.83
14.0
13.42
12.22
10.66
9.07
7.83
7.24
7.34
7.96
8.7
9.16
9.09
8.51
7.61
6.64
5.72
4.77
3.61
2.09
0.2
-1.9
-3.94
-5.71
-7.12
-8.26
-9.31
-10.39
-11.55
-12.68
-13.75
-14.77
-15.91
-17.27
-18.83
-20.24
-20.96
-20.47
-18.46
-15.05
-10.72
-6.11
-1.75
2.03
5.11
7.47
9.09
9.93
10.02
9.43
8.41
7.27
6.31
5.77
5.74
6.2
7.01
7.9
8.62
8.95
8.83
8.3
7.53
6.64
5.64
4.49
3.12
1.52
-0.18
-1.78
-3.14
-4.21
-5.06
-5.88
-6.84
-8.04
-9.53
-11.25
-13.11
-14.87
-16.24
-16.84
-16.35
-14.58
-11.63
-7.85
-3.76
0.1
3.38
5.91
7.69
8.81
9.36
9.37
8.89
8.03
6.97
5.98
5.3
5.08
5.29
5.81
6.41
6.88
7.11
7.02
6.61
5.92
4.98
3.83
2.47
0.94
-0.72
-2.44
-4.14
-5.72
-7.1
-8.26
-9.24
-10.17
-11.23
-12.54
-14.16
-15.97
-17.64
-18.74
-18.83
-17.65
-15.19
-11.7
-7.58
-3.29
0.8
4.45
7.5
9.83
11.34
11.99
11.8
10.94
9.63
8.2
6.92
6.04
5.67
5.81
6.31
6.9
7.33
7.37
6.97
6.25
5.4
4.58
3.82
3.0
1.96
0.6
-0.99
-2.61
-4.06
-5.23
-6.21
-7.25
-8.56
-10.29
-12.38
-14.7
-17.01
-19.06
-20.56
-21.22
-20.76
-19.01
-15.99
-11.98
-7.43
-2.83
1.4
5.0
7.85
9.9
11.11
11.5
11.15
10.3
9.26
8.36
7.76
7.5
7.44
7.44
7.38
7.24
7.02
6.69
6.19
5.44
4.4
3.06
1.47
-0.28
-2.09
-3.85
-5.41
-6.68
-7.68
-8.55
-9.52
-10.83
-12.59
-14.72
-16.98
-19.04
-20.61
-21.45
-21.37
-20.2
-17.82
-14.25
-9.76
-4.85
-0.14
3.87
6.87
8.84
9.96
10.45
10.46
10.08
9.44
8.7
8.11
7.89
8.13
8.73
9.44
9.99
10.19
9.99
9.49
8.82
8.09
7.27
6.28
5.0
3.39
1.53
-0.38
-2.16
-3.7
-5.08
-6.49
-8.14
-10.14
-12.41
-14.73
-16.8
-18.28
-18.88
-18.32
-16.45
-13.27
-9.02
-4.14
0.78
5.19
8.73
11.31
12.97
13.83
13.99
13.55
12.62
11.44
10.34
9.64
9.49
9.81
10.3
10.62
10.52
9.98
9.18
8.36
7.67
7.03
6.22
4.96
3.14
0.85
-1.61
-3.93
-5.89
-7.52
-8.99
-10.56
-12.41
-14.57
-16.93
-19.28
-21.35
-22.83
-23.41
-22.8
-20.82
-17.49
-13.03
-7.89
-2.58
2.44
6.83
10.44
13.26
15.28
16.49
16.91
16.58
15.68
14.52
13.42
12.71
12.54
12.9
13.63
14.47
15.14
15.44
15.22
14.46
13.25
11.71
9.97
8.11
6.16
4.09
1.87
-0.41
-2.63
-4.58
-6.18
-7.44
-8.55
-9.79
-11.38
-13.44
-15.94
-18.63
-21.17
-23.1
-23.99
-23.45
-21.31
-17.61
-12.66
-6.98
-1.19
4.18
8.74
12.32
14.88
16.48
17.23
17.28
16.84
16.18
15.53
15.06
14.86
14.86
14.97
15.06
15.02
14.8
14.37
13.68
12.71
11.47
9.99
8.34
6.59
4.76
2.85
0.81
-1.32
-3.44
-5.35
-6.93
-8.13
-9.09
-10.04
-11.22
-12.76
-14.59
-16.59
-18.55
-20.32
-21.73
-22.55
-22.44
-21.05
-18.17
-13.9
-8.65
-3.06
2.22
6.72
10.18
12.6
14.08
14.76
14.83
14.48
13.91
13.32
12.84
12.53
12.4
12.4
12.45
12.44
12.22
11.71
10.91
9.92
8.93
8.05
7.28
6.44
5.31
3.76
1.81
-0.35
-2.45
-4.29
-5.8
-7.04
-8.14
-9.24
-10.47
-11.93
-13.7
-15.73
-17.86
-19.72
-20.85
-20.79
-19.23
-16.13
-11.75
-6.59
-1.26
3.67
7.81
10.96
13.15
14.49
15.14
15.24
14.89
14.2
13.31
12.45
11.85
11.67
11.93
12.46
12.96
13.12
12.71
11.69
10.2
8.48
6.75
5.15
3.71
2.33
0.9
-0.61
-2.18
-3.74
-5.21
-6.59
-7.94
-9.35
-10.89
-12.55
-14.32
-16.18
-18.14
-20.18
-22.15
-23.76
-24.55
-24.05
-21.93
-18.18
-13.14
-7.43
-1.73
3.4
7.66
10.99
13.52
15.4
16.74
17.52
17.74
17.43
16.74
15.89
15.12
14.56
14.22
14.0
13.76
13.4
12.88
12.2
11.37
10.42
9.36
8.21
6.98
5.68
4.26
2.65
0.81
-1.26
-3.45
-5.62
-7.58
-9.26
-10.7
-12.07
-13.56
-15.31
-17.35
-19.56
-21.73
-23.53
-24.62
-24.66
-23.4
-20.74
-16.75
-11.75
-6.2
-0.65
4.36
8.42
11.32
13.07
13.81
13.81
13.3
12.5
11.57
10.69
10.0
9.65
9.67
10.01
10.47
10.79
10.76
10.29
9.41
8.25
6.94
5.57
4.17
2.69
1.11
-0.53
-2.1
-3.46
-4.49
-5.18
-5.68
-6.2
-6.99
-8.16
-9.74
-11.66
-13.76
-15.86
-17.67
-18.88
-19.09
-18.02
-15.55
-11.84
-7.35
-2.66
1.68
5.31
8.11
10.15
11.55
12.4
12.75
12.67
12.29
11.8
11.36
11.09
10.96
10.85
10.61
10.14
9.44
8.59
7.68
6.8
5.96
5.08
4.07
2.81
1.23
-0.65
-2.73
-4.84
-6.84
-8.6
-10.06
-11.24
-12.22
-13.13
-14.15
-15.42
-16.97
-18.64
-20.09
-20.88
-20.59
-18.96
-15.97
-11.87
-7.05
-2.02
2.77
6.94
10.26
12.61
14.02
14.62
14.62
14.27
13.79
13.37
13.14
13.16
13.38
13.66
13.78
13.55
12.82
11.59
10.05
8.48
7.16
6.22
5.61
5.09
4.4
3.32
1.85
0.15
-1.47
-2.78
-3.63
-4.07
-4.3
-4.58
-5.17
-6.26
-7.89
-9.96
-12.19
-14.22
-15.56
-15.79
-14.6
-11.96
-8.08
-3.42
1.49
6.13
10.11
13.24
15.42
16.68
17.05
16.62
15.59
14.2
12.74
11.44
10.41
9.6
8.82
7.89
6.68
5.22
3.62
2.08
0.74
-0.34
-1.19
-1.93
-2.67
-3.52
-4.51
-5.62
-6.8
-7.97
-9.11
-10.26
-11.46
-12.77
-14.2
-15.76
-17.43
-19.23
-21.12
-22.92
-24.29
-24.8
-23.98
-21.62
-17.83
-13.07
-7.94
-3.08
1.06
4.21
6.29
7.32
7.4
6.71
5.56
4.29
3.24
2.64
2.53
2.83
3.41
4.08
4.7
5.2
5.51
5.59
5.36
4.76
3.75
2.34
0.67
-1.07
-2.68
-4.04
-5.17
-6.27
-7.59
-9.3
-11.4
-13.68
-15.78
-17.33
-18.02
-17.67
-16.22
-13.74
-10.37
-6.35
-2.02
2.2
5.93
8.84
10.79
11.81
12.08
11.82
11.23
10.41
9.45
8.43
7.5
6.82
6.48
6.47
6.61
6.72
6.61
6.19
5.5
4.56
3.34
1.79
-0.1
-2.24
-4.39
-6.26
-7.69
-8.7
-9.53
-10.54
-11.99
-14.01
-16.48
-19.1
-21.4
-22.89
-23.11
-21.77
-18.84
-14.57
-9.47
-4.12
0.96
5.41
9.06
11.84
13.71
14.65
14.68
13.97
12.85
11.74
11.03
10.88
11.23
11.77
12.16
12.13
11.63
10.77
9.78
