10.83
10.86
11.08
11.43
11.79
12.05
12.08
11.76
11.07
10.02
8.69
7.22
5.75
4.39
3.13
1.95
0.75
-0.53
-1.91
-3.38
-4.89
-6.44
-8.05
-9.78
-11.6
-13.33
-14.67
-15.22
-14.69
-12.97
-10.27
-6.99
-3.6
-0.45
2.29
4.62
6.58
8.17
9.29
9.87
9.91
9.53
8.97
8.47
8.15
8.09
8.23
8.51
8.92
9.43
10.03
10.66
11.18
11.44
11.27
10.59
9.43
7.97
6.45
5.12
4.14
3.44
2.86
2.19
1.32
0.27
-0.84
-1.9
-2.89
-3.93
-5.18
-6.77
-8.75
-11.03
-13.4
-15.61
-17.38
-18.41
-18.5
-17.54
-15.56
-12.75
-9.37
-5.75
-2.2
1.0
3.65
5.68
7.11
8.03
8.55
8.77
8.77
8.62
8.38
8.2
8.16
8.29
8.52
8.72
8.79
8.75
8.72
8.83
9.15
9.58
9.91
9.92
9.51
8.71
7.7
6.67
5.68
4.64
3.42
1.88
0.1
-1.73
-3.36
-4.61
-5.48
-6.11
-6.7
-7.41
-8.36
-9.56
-11.05
-12.8
-14.68
-16.43
-17.65
-17.93
-16.98
-14.79
-11.61
-7.88
-4.05
-0.47
2.66
5.24
7.27
8.8
9.9
10.66
11.18
11.54
11.79
11.97
12.11
12.29
12.6
13.12
13.87
14.8
15.77
16.62
17.25
17.59
17.73
17.76
17.83
18.02
18.34
18.7
18.94
18.84
18.24
17.16
15.74
14.25
12.95
11.92
11.03
9.98
8.56
6.64
4.3
1.64
-1.45
-5.37
-10.64
-17.66
-26.33
-36.08
-45.99
-55.14
-62.78
-68.18
-70.41
-68.35
-61.05
-48.38
-31.67
-13.65
2.3
13.38
18.45
18.3
15.15
11.43
8.82
7.73
7.64
7.65
7.06
5.62
3.37
0.42
-3.16
-7.18
-11.1
-13.96
-14.6
-12.05
-6.06
2.76
13.04
23.18
31.73
37.82
41.16
41.97
40.72
37.99
34.34
30.23
25.95
21.68
17.41
13.04
8.46
3.54
-1.69
-7.2
-12.77
-18.06
-22.65
-26.14
-28.3
-29.11
-28.73
-27.45
-25.55
-23.22
-20.6
-17.82
-15.02
-12.38
-10.08
-8.22
-6.78
-5.67
-4.78
-4.0
-3.31
-2.67
-2.05
-1.35
-0.39
1.0
2.95
5.37
7.97
10.29
11.9
12.55
12.32
11.57
10.8
10.42
10.6
11.16
11.72
11.83
11.18
9.7
7.57
5.15
2.8
0.73
-1.02
-2.64
-4.39
-6.46
-8.91
-11.62
-14.35
-16.82
-18.74
-19.85
-19.95
-18.98
-17.06
-14.56
-11.99
-9.86
-8.47
-7.8
-7.5
-7.09
-6.22
-4.9
-3.55
-2.77
-3.04
-4.41
-6.41
-8.19
-8.97
-8.36
-6.51
-4.03
-1.66
0.03
0.87
1.01
0.77
0.42
0.09
-0.22
-0.62
-1.16
-1.85
-2.65
-3.52
-4.5
-5.64
-6.92
-8.15
-9.09
-9.49
-9.32
-8.84
-8.47
-8.6
-9.38
-10.65
-12.01
-13.04
-13.49
-13.3
-12.54
-11.24
-9.32
-6.64
-3.15
1.0
5.36
9.31
12.35
14.25
15.18
15.53
15.64
15.64
15.44
14.86
13.88
12.71
11.64
10.96
10.68
10.64
10.59
10.33
9.81
9.08
8.19
7.11
5.83
4.36
2.82
1.37
0.2
-0.65
-1.27
-1.87
-2.7
-3.93
-5.57
-7.46
-9.35
-11.04
-12.47
-13.79
-15.24
-17.03
-19.22
-21.66
-24.0
-25.86
-26.87
-26.8
-25.64
-23.56
-20.95
-18.28
-15.96
-14.16
-12.78
-11.51
-9.97
-7.97
-5.58
-3.09
-0.91
0.66
1.52
1.8
1.77
1.74
2.04
2.85
4.27
6.21
8.45
10.73
12.79
14.46
15.67
16.4
16.6
16.23
15.3
13.92
12.32
10.81
9.61
8.76
8.06
7.18
5.84
3.9
1.4
-1.44
-4.31
-6.95
-9.1
-10.56
-11.11
-10.63
-9.05
-6.46
-3.11
0.64
4.33
7.55
10.04
11.76
12.86
13.61
14.26
14.85
15.26
15.24
14.59
13.39
11.97
10.82
10.35
10.68
11.6
12.66
13.43
13.65
13.36
12.74
12.0
11.22
10.35
9.26
7.91
6.32
4.63
2.96
1.39
-0.1
-1.57
-3.11
-4.79
-6.65
-8.65
-10.76
-12.95
-15.17
-17.35
-19.37
-21.07
-22.24
-22.71
-22.33
-21.06
-18.94
-16.09
-12.69
-8.98
-5.23
-1.78
1.13
3.31
4.78
5.67
6.17
6.47
6.67
6.86
7.08
7.4
7.87
8.48
9.18
9.86
10.4
10.74
10.86
10.77
10.53
10.15
9.62
8.9
7.95
6.76
5.35
3.82
2.3
0.91
-0.32
-1.48
-2.73
-4.21
-6.01
-8.13
-10.44
-12.82
-15.08
-17.04
-18.51
-19.26
-19.11
-17.96
-15.88
-13.09
-9.89
-6.6
-3.43
-0.49
2.18
4.57
6.65
8.36
9.68
10.62
11.24
11.64
11.91
12.15
12.45
12.89
13.49
14.25
15.07
15.88
16.58
17.13
17.55
17.85
18.0
17.98
17.74
17.27
16.63
15.85
15.0
14.13
13.27
12.52
11.97
11.69
11.7
11.88
12.07
12.1
11.92
11.63
11.46
11.71
12.69
14.61
17.54
21.43
26.16
31.62
37.76
44.63
52.23
60.45
69.04
77.51
85.3
91.86
96.84
100.22
102.38
104.09
106.22
109.53
114.27
120.1
126.07
130.76
132.6
130.14
122.34
108.85
90.1
67.24
41.89
15.57
-10.65
-36.26
-61.13
-85.32
-108.83
-131.68
-154.02
-175.9
-196.93
-215.8
-230.2
-237.43
-235.4
-223.7
-203.99
-179.63
-154.59
-132.19
-114.2
-100.73
-90.58
-82.1
-73.89
-65.29
-56.48
-48.06
-40.59
-34.17
-28.29
-22.19
-15.27
-7.57
0.29
7.51
13.81
19.76
26.8
36.62
50.38
68.1
88.52
109.56
128.9
144.42
154.28
156.99
151.57
137.87
116.98
91.22
63.54
36.62
12.21
-8.96
-26.54
-39.82
-47.44
-47.72
-39.61
-23.6
-2.04
21.26
41.9
55.83
60.11
53.41
36.28
11.1
-18.46
-48.15
-74.08
-93.43
-104.83
-108.25
-104.68
-95.71
-83.18
-68.84
-54.06
-39.52
-25.33
-11.16
3.32
18.11
32.86
47.04
60.27
72.46
83.69
94.02
103.4
111.68
118.84
125.16
131.26
137.82
145.36
153.91
163.05
172.02
180.03
186.49
191.08
193.92
195.49
196.73
198.86
203.21
210.84
221.99
235.8
250.19
262.41
269.84
270.87
265.45
254.98
241.7
227.84
214.94
203.65
193.93
185.46
177.94
171.16
164.85
158.54
151.61
143.46
133.74
122.58
110.43
97.95
85.73
74.06
62.94
52.21
41.61
31.03
20.48
10.1
0.06
-9.5
-18.54
-27.09
-35.21
-42.97
-50.47
-57.84
-65.25
-72.87
-80.78
-88.98
-97.25
-105.32
-112.94
-120.09
-126.99
-134.14
-142.1
-151.27
-161.7
-173.08
-184.89
-196.6
-207.93
-218.94
-230.03
-241.9
-255.38
-271.41
-290.66
-312.97
-336.85
-359.32
-376.46
-384.62
-381.79
-368.5
-347.61
-323.21
-299.05
-277.39
-258.7
-242.33
-227.38
-213.31
-199.98
-187.32
-175.04
-162.74
-150.19
-137.69
-125.92
-115.61
-107.0
-99.65
-92.57
-84.79
-75.75
-65.62
-55.12
-45.16
-36.39
-29.05
-22.88
-17.32
-11.77
-5.85
0.4
6.47
11.48
14.59
15.28
13.6
10.16
5.82
1.44
-2.36
-5.14
-6.62
-6.62
-5.08
-2.2
1.45
5.09
7.96
9.65
10.17
9.87
9.08
7.99
6.6
4.98
3.4
2.31
2.05
2.66
3.79
4.93
5.7
6.07
6.3
6.73
7.45
8.23
8.52
7.68
5.25
1.05
-4.75
-11.61
-18.87
-25.9
-32.4
-38.42
-44.22
-49.94
-55.41
-60.14
-63.59
-65.53
-66.16
-65.84
-64.83
-63.04
-60.12
-55.92
-50.66
-44.93
-39.42
-34.46
-29.93
-25.45
-20.73
-15.84
-11.18
-7.26
-4.37
-2.5
-1.31
-0.45
0.39
1.35
2.44
3.67
5.02
6.48
7.96
9.34
10.35
10.64
9.84
7.61
3.9
-0.96
-6.16
-10.59
-13.11
-12.99
-10.16
-5.28
0.48
5.89
10.14
12.98
14.73
15.99
17.29
19.02
21.32
24.26
27.82
31.95
36.44
40.9
44.88
47.94
49.84
50.56
50.19
48.86
46.77
44.17
41.42
38.94
37.01
35.64
34.48
33.04
30.87
27.89
24.38
20.88
17.87
15.48
13.56
11.75
9.76
7.54
5.28
3.26
1.69
0.48
-0.74
-2.53
-5.41
-9.64
-15.13
-21.37
-27.62
-33.06
-37.01
-39.14
-39.59
-38.85
-37.58
-36.23
-34.8
-32.76
-29.27
-23.58
-15.39
-5.08
6.24
17.09
26.02
32.01
34.85
35.05
33.53
31.3
29.03
26.99
25.21
23.61
22.11
20.63
18.91
16.54
13.1
8.45
2.93
-2.76
-7.81
-11.65
-14.13
-15.49
-16.17
-16.58
-17.06
-17.85
-19.12
-21.0
-23.55
-26.73
-30.38
-33.94
-36.41
-36.34
-32.34
-23.64
-10.74
4.65
20.09
33.32
43.02
49.05
52.12
53.18
52.81
51.18
48.25
44.17
39.5
35.08
31.66
29.57
28.53
27.89
26.92
25.22
22.92
20.48
18.43
16.89
15.49
13.38
9.81
4.58
-1.65
-7.54
-11.6
-12.81
-11.05
-7.12
-2.3
2.16
5.47
7.39
8.15
8.1
7.59
6.86
6.11
5.54
5.36
5.6
6.01
6.13
5.44
3.62
0.79
-2.51
-5.45
-7.3
-7.81
-7.29
-6.51
-6.33
-7.2
-8.9
-10.44
-10.46
-7.69
-1.47
7.93
19.37
31.02
40.96
47.56
49.97
48.31
43.38
36.35
28.24
19.71
11.04
2.4
-6.06
-14.15
-21.77
-28.91
-35.6
-41.68
-46.79
-50.36
-52.02
-51.67
-49.56
-45.81
-40.16
-31.9
-20.35
-5.51
11.47
28.41
42.9
53.21
58.88
60.67
60.07
58.58
57.12
55.97
54.77
52.96
50.14
46.26
41.67
36.93
32.53
28.66
25.16
21.7
17.97
13.92
9.7
5.6
1.76
-1.87
-5.47
-9.26
-13.31
-17.56
-21.8
-25.85
-29.57
-33.01
-36.24
-39.35
-42.24
-44.52
-45.59
-44.89
-42.06
-37.22
-30.87
-23.73
-16.51
-9.84
-4.08
0.54
3.97
6.36
8.08
9.66
11.6
14.19
17.43
21.03
24.58
27.72
30.25
32.08
33.25
33.84
33.97
33.77
33.37
32.8
31.96
30.66
28.72
26.14
23.14
20.06
17.2
14.64
12.23
9.74
7.05
4.18
1.25
-1.68
-4.66
-7.81
-11.05
-14.0
-15.97
-16.3
-14.65
-11.22
-6.64
-1.64
3.22
7.77
12.06
16.12
19.82
22.75
24.47
24.63
23.26
20.73
17.72
14.91
12.85
11.78
11.65
12.17
13.03
13.92
14.66
15.18
15.41
15.26
14.6
13.3
11.31
8.75
5.86
2.89
0.05
-2.6
-5.06
-7.38
-9.61
-11.76
-13.85
-15.93
-18.12
-20.52
-23.14
-25.82
-28.27
-30.12
-31.01
-30.66
-28.94
-25.86
-21.59
-16.46
-10.93
-5.45
-0.37
4.05
7.72
10.56
12.51
13.52
13.7
13.3
12.79
12.56
12.77
13.32
13.79
13.81
13.18
12.01
10.63
9.43
8.58
8.04
7.59
6.95
5.94
4.55
2.91
1.15
-0.64
-2.49
-4.44
-6.42
-8.31
-9.84
-10.85
-11.32
-11.42
-11.38
-11.25
-10.87
-9.82
-7.7
-4.39
-0.07
4.78
9.64
14.17
18.26
21.91
25.09
27.64
29.4
30.3
30.51
30.31
29.98
29.53
28.7
27.19
24.85
21.89
18.82
16.19
14.41
13.52
13.28
13.34
13.34
13.02
12.17
10.62
8.24
5.05
1.25
-2.75
-6.45
-9.46
-11.61
-12.94
-13.69
-14.13
-14.53
-15.15
-16.16
-17.67
-19.59
-21.6
-23.13
-23.52
-22.3
-19.37
-15.06
-10.05
-5.09
-0.68
3.02
6.13
8.84
11.25
13.23
14.57
15.09
14.77
13.78
12.38
10.79
9.11
7.29
5.2
2.71
-0.19
-3.35
-6.49
-9.19
-11.12
-12.15
-12.46
-12.54
-12.86
-13.71
-14.97
-16.25
-17.03
-17.07
-16.49
-15.66
-15.01
-14.7
-14.65
-14.61
-14.48
-14.32
-14.32
-14.63
-15.08
-15.26
-14.6
-12.67
-9.34
-4.86
0.3
5.68
11.05
16.46
22.08
27.98
33.92
39.35
43.6
46.21
47.14
46.82
45.93
45.12
44.79
44.99
45.49
46.0
46.26
46.18
45.89
45.69
45.97
47.02
48.67
50.33
50.99
49.64
45.67
39.24
31.3
23.27
16.54
11.97
9.71
9.24
9.69
10.08
9.55
7.36
3.06
-3.38
-11.35
-19.61
-26.65
-31.23
-32.89
-32.16
-30.27
-28.42
-27.16
-26.17
-24.53
-21.38
-16.55
-10.67
-4.95
-0.65
1.53
1.65
0.56
-0.53
-0.48
1.27
4.59
8.63
12.17
14.2
14.26
12.74
10.5
8.5
7.19
6.22
4.74
1.82
-3.03
-9.7
-17.81
-27.05
-37.27
-48.24
-59.07
-67.98
-72.7
-71.54
-64.5
-53.56
-42.0
-32.75
-27.01
-23.8
-20.68
-15.34
-6.74
4.45
16.6
28.12
38.24
46.98
54.61
61.03
65.56
67.27
65.57
60.66
53.47
45.33
37.4
30.29
23.91
17.64
10.76
2.83
-5.93
-14.8
-22.89
-29.59
-34.84
-39.06
-42.84
-46.63
-50.45
-54.01
-56.92
-58.86
-59.78
-59.95
-60.0
-60.77
-63.14
-67.56
-73.71
-80.37
-85.93
-89.15
-89.93
-89.43
-89.48
-91.51
-95.68
-100.81
-105.04
-107.0
-106.6
-105.1
-104.31
-105.71
-110.15
-118.19
-130.5
-147.92
-170.47
-196.17
-220.4
-236.94
-240.12
-227.32
-200.22
-163.93
-124.49
-86.24
-50.64
-17.13
14.8
44.13
68.33
85.05
93.88
96.93
97.8
99.71
103.96
109.43
113.56
113.71
108.39
97.7
83.01
66.28
49.39
33.6
19.29
5.89
-8.08
-24.31
-43.86
-66.58
-90.9
-114.53
-135.42
-152.52
-165.62
-174.94
-180.6
-182.49
-180.65
-175.66
-168.76
-161.49
-155.1
-150.04
-145.89
-141.7
-136.53
-129.84
-121.49
-111.57
-100.16
-87.3
-73.04
-57.57
-41.22
-24.33
-7.17
10.14
27.35
44.1
59.88
74.2
86.75
97.47
106.52
114.07
120.1
124.39
126.8
127.57
127.53
127.92
129.81
133.46
138.0
141.69
142.69
139.92
133.49
124.62
115.2
107.03
101.27
98.07
96.57
95.16
92.11
86.09
76.49
63.52
48.03
31.15
14.14
-1.7
-15.12
-25.17
-31.37
-33.95
-33.8
-32.11
-29.97
-27.89
-25.8
-23.18
-19.52
-14.6
-8.61
-1.95
4.98
12.0
19.14
26.42
33.66
40.48
46.38
51.04
54.58
57.6
61.06
65.91
72.62
81.02
90.35
99.55
107.7
114.35
119.56
123.76
127.51
131.19
135.0
138.92
142.82
146.48
149.65
152.07
153.61
154.33
154.54
154.68
155.14
156.09
157.42
158.81
159.83
160.04
159.01
156.28
151.48
144.35
134.94
123.63
111.06
97.97
85.0
72.65
61.23
50.99
42.13
34.77
28.86
24.17
20.25
16.68
13.18
9.76
6.86
5.1
5.1
7.21
11.23
16.38
21.52
25.49
27.5
27.42
25.75
23.32
21.0
19.28
18.23
17.55
16.81
15.72
14.22
12.44
10.55
8.61
6.55
4.19
1.4
-1.75
-5.03
-8.11
-10.75
-12.84
-14.48
-15.9
-17.33
-18.93
-20.81
-23.04
-25.58
-28.36
-31.23
-34.01
-36.55
-38.77
-40.66
-42.18
-43.14
-43.26
-42.21
-39.75
-35.94
-31.08
-25.7
-20.38
-15.58
-11.55
-8.31
-5.77
-3.8
-2.32
-1.28
-0.65
-0.3
-0.09
0.17
0.6
1.22
1.99
2.81
3.63
4.41
5.15
5.85
6.51
7.06
7.4
7.41
6.94
5.88
4.27
2.25
0.09
-1.92
-3.61
-4.93
-6.02
-7.09
-8.35
-9.95
-11.96
-14.36
-17.04
-19.77
-22.22
-24.01
-24.77
-24.29
-22.54
-19.75
-16.3
-12.61
-8.94
-5.38
-1.84
1.8
5.51
9.08
12.23
14.79
16.89
18.88
21.1
23.62
26.09
27.84
28.25
27.05
24.49
21.18
17.8
14.84
12.43
10.49
8.8
7.25
5.72
4.15
2.41
0.34
-2.2
-5.27
-8.81
-12.67
-16.6
-20.31
-23.55
-26.23
-28.45
-30.44
-32.41
-34.43
-36.34
-37.76
-38.27
-37.58
-35.63
-32.56
-28.72
-24.49
-20.26
-16.33
-12.98
-10.36
-8.56
-7.52
-7.1
-7.07
-7.17
-7.15
-6.85
-6.23
-5.43
-4.64
-4.02
-3.62
-3.36
-3.07
-2.63
-2.05
-1.43
-0.94
-0.7
-0.77
-1.15
-1.85
-2.86
-4.18
-5.78
-7.51
-9.19
-10.72
-12.13
-13.59
-15.34
-17.43
-19.73
-21.88
-23.44
-24.09
-23.7
-22.34
-20.2
-17.48
-14.39
-11.12
-7.89
-4.85
-2.13
0.2
2.14
3.64
4.64
5.08
4.98
4.48
3.88
3.44
3.34
3.56
3.92
4.28
4.52
4.68
4.81
4.96
5.06
5.04
4.81
4.34
3.67
2.84
1.87
0.73
-0.66
-2.35
-4.31
-6.46
-8.68
-10.9
-13.09
-15.28
-17.55
-19.91
-22.26
-24.33
-25.8
-26.34
-25.77
-24.14
-21.65
-18.61
-15.34
-12.04
-8.82
-5.76
-2.94
-0.49
1.49
2.94
3.93
4.57
5.02
5.34
5.56
5.72
5.9
6.25
6.89
7.83
8.91
9.89
10.51
10.7
10.52
10.1
9.5
8.66
7.44
5.77
3.77
1.69
-0.19
-1.7
-2.85
-3.8
-4.74
-5.78
-6.99
-8.39
-10.02
-11.92
-14.05
-16.23
-18.15
-19.41
-19.72
-18.93
-17.14
-14.59
-11.62
-8.49
-5.39
-2.45
0.21
2.47
4.21
5.35
5.92
6.01
5.74
5.21
4.51
3.77
3.16
2.92
3.22
4.06
5.23
6.34
7.01
7.04
6.49
5.65
4.8
4.13
3.65
3.24
2.76
2.17
1.46
0.67
-0.17
-1.09
-2.09
-3.17
-4.35
-5.66
-7.2
-9.06
-11.26
-13.72
-16.22
-18.48
-20.22
-21.21
-21.34
-20.56
-18.91
-16.51
-13.54
-10.21
-6.79
-3.53
-0.62
1.77
3.55
4.68
5.16
5.04
4.47
3.68
2.94
2.48
2.43
2.79
3.4
4.09
4.67
5.08
5.29
5.31
5.04
4.38
3.26
1.74
-0.01
-1.72
-3.2
-4.41
-5.44
-6.49
-7.7
-9.11
-10.66
-12.28
-13.9
-15.53
-17.19
-18.88
-20.49
-21.78
-22.45
-22.26
-21.09
-19.05
-16.37
-13.38
-10.31
-7.31
-4.43
-1.71
0.74
2.77
4.16
4.83
4.83
4.38
3.78
3.32
