10.03
9.64
9.5
9.56
9.7
9.79
9.76
9.59
9.33
9.02
8.72
8.41
7.98
7.3
6.21
4.71
2.88
0.88
-1.14
-3.09
-5.01
-7.04
-9.3
-11.93
-14.97
-18.42
-22.14
-25.82
-29.01
-31.2
-31.93
-31.0
-28.49
-24.79
-20.35
-15.63
-10.92
-6.36
-2.0
2.11
5.83
8.94
11.25
12.7
13.39
13.58
13.53
13.45
13.38
13.31
13.21
13.14
13.18
13.41
13.76
14.07
14.12
13.75
12.88
11.55
9.85
7.87
5.67
3.37
1.09
-1.05
-3.03
-4.92
-6.93
-9.26
-12.05
-15.28
-18.79
-22.3
-25.51
-28.12
-29.81
-30.32
-29.41
-27.07
-23.43
-18.82
-13.65
-8.32
-3.15
1.67
5.95
9.55
12.34
14.24
15.32
15.77
15.87
15.9
16.05
16.35
16.73
17.08
17.27
17.23
16.96
16.5
15.9
15.26
14.61
13.95
13.23
12.3
11.03
9.28
7.05
4.44
1.71
-0.92
-3.26
-5.33
-7.24
-9.15
-11.21
-13.47
-16.0
-18.84
-21.99
-25.39
-28.71
-31.46
-33.02
-32.92
-31.01
-27.47
-22.78
-17.46
-11.99
-6.66
-1.66
2.85
6.7
9.73
11.86
13.12
13.73
14.02
14.38
15.11
16.29
17.75
19.17
20.23
20.71
20.65
20.23
19.72
19.29
18.95
18.59
18.05
17.21
16.01
14.44
12.54
10.39
8.08
5.75
3.49
1.31
-0.87
-3.12
-5.51
-8.05
-10.71
-13.52
-16.59
-20.03
-23.75
-27.34
-30.13
-31.39
-30.63
-27.83
-23.46
-18.28
-12.98
-7.97
-3.32
1.06
5.22
9.03
12.24
14.64
16.18
17.05
17.55
17.95
18.36
18.76
19.06
19.22
19.3
19.41
19.68
20.1
20.54
20.86
20.87
20.5
19.76
18.7
17.39
15.86
14.14
12.22
10.17
8.04
5.89
3.74
1.53
-0.78
-3.25
-5.81
-8.32
-10.63
-12.69
-14.6
-16.62
-19.04
-22.11
-25.82
-29.91
-33.81
-36.79
-38.17
-37.49
-34.7
-30.16
-24.5
-18.4
-12.34
-6.57
-1.15
3.86
8.29
11.86
14.35
15.72
16.24
16.37
16.53
16.98
17.74
18.65
19.53
20.26
20.85
21.39
21.95
22.52
23.03
23.33
23.31
22.86
21.98
20.69
19.11
17.36
15.54
13.73
11.93
10.09
8.12
5.96
3.61
1.13
-1.33
-3.67
-5.77
-7.64
-9.34
-11.01
-12.76
-14.76
-17.15
-20.03
-23.45
-27.26
-31.14
-34.57
-36.87
-37.47
-36.0
-32.48
-27.28
-21.0
-14.3
-7.77
-1.82
3.28
7.39
10.47
12.63
14.05
14.97
15.59
16.02
16.3
16.44
16.54
16.72
17.12
17.77
18.52
19.18
19.58
19.67
19.54
19.34
19.09
18.67
17.91
16.68
15.01
13.07
11.08
9.17
7.33
5.44
3.42
1.28
-0.86
-2.87
-4.72
-6.52
-8.45
-10.65
-13.19
-16.02
-19.1
-22.37
-25.71
-28.85
-31.31
-32.49
-31.9
-29.44
-25.37
-20.31
-14.97
-9.85
-5.17
-0.89
3.12
6.89
10.26
12.97
14.79
15.67
15.82
15.6
15.44
15.6
16.15
16.92
17.66
18.18
18.45
18.6
18.85
19.32
19.93
20.43
20.44
19.69
18.11
15.9
13.44
11.1
9.13
7.53
6.13
4.65
2.88
0.78
-1.57
-4.01
-6.37
-8.62
-10.79
-12.96
-15.24
-17.69
-20.34
-23.2
-26.17
-29.09
-31.67
-33.52
-34.28
-33.67
-31.54
-27.98
-23.23
-17.69
-11.85
-6.15
-1.0
3.33
6.75
9.28
11.02
12.08
12.6
12.75
12.71
12.72
12.95
13.46
14.23
15.15
16.09
16.95
17.66
18.14
18.33
18.09
17.34
16.08
14.44
12.7
11.14
9.91
8.96
8.05
6.83
5.05
2.67
-0.15
-3.1
-5.89
-8.38
-10.59
-12.66
-14.84
-17.31
-20.19
-23.48
-26.93
-30.13
-32.51
-33.55
-32.87
-30.41
-26.39
-21.26
-15.55
-9.77
-4.31
0.57
4.71
8.06
10.62
12.46
13.66
14.34
14.65
14.79
14.93
15.23
15.75
16.48
17.32
18.11
18.76
19.2
19.43
19.51
19.45
19.21
18.68
17.76
16.44
14.79
13.02
11.29
9.65
8.04
6.26
4.16
1.69
-1.07
-3.94
-6.7
-9.23
-11.46
-13.46
-15.39
-17.48
-19.97
-23.0
-26.52
-30.24
-33.67
-36.2
-37.29
-36.57
-33.95
-29.64
-24.13
-18.02
-11.95
-6.4
-1.6
2.39
5.7
8.41
10.56
12.1
13.0
13.37
13.4
13.39
13.59
14.08
14.78
15.56
16.27
16.9
17.44
17.89
18.14
18.01
17.29
15.91
13.97
11.71
9.46
7.45
5.76
4.28
2.82
1.19
-0.72
-2.91
-5.27
-7.67
-9.95
-12.04
-13.96
-15.87
-17.97
-20.45
-23.33
-26.47
-29.48
-31.87
-33.11
-32.85
-30.99
-27.69
-23.36
-18.47
-13.42
-8.46
-3.72
0.7
4.61
7.78
9.98
11.15
11.43
11.19
10.85
10.7
10.83
11.19
11.63
12.1
12.62
13.27
14.06
14.92
15.65
16.03
15.92
15.25
14.09
12.54
10.72
8.7
6.52
4.2
1.81
-0.61
-3.03
-5.43
-7.82
-10.19
-12.53
-14.81
-17.03
-19.3
-21.73
-24.45
-27.36
-30.19
-32.4
-33.43
-32.88
-30.65
-26.99
-22.38
-17.31
-12.19
-7.22
-2.53
1.8
5.65
8.88
11.35
13.03
13.99
14.43
14.59
14.71
14.97
15.42
16.07
16.8
17.5
18.04
18.35
18.43
18.32
18.08
17.73
17.27
16.63
15.71
14.4
12.64
10.45
7.96
5.34
2.77
0.33
-2.01
-4.37
-6.84
-9.41
-12.01
-14.54
-17.01
-19.59
-22.5
-25.8
-29.25
-32.2
-33.85
-33.48
-30.83
-26.24
-20.49
-14.49
-8.96
-4.2
-0.16
3.39
6.56
9.28
11.31
12.45
12.74
12.51
12.24
12.32
12.92
13.87
14.82
15.5
15.81
15.87
15.94
16.18
16.55
16.85
16.8
16.18
14.92
13.08
10.82
8.32
5.76
3.27
0.96
-1.12
-2.95
-4.61
-6.23
-8.01
-10.16
-12.85
-16.15
-19.94
-23.86
-27.35
-29.74
-30.45
-29.2
-26.12
-21.75
-16.77
-11.82
-7.25
-3.12
0.71
4.36
7.74
10.58
12.54
13.47
13.53
13.14
12.84
13.03
13.8
14.94
16.11
17.02
17.56
17.81
17.94
18.03
18.04
17.81
17.15
16.01
14.46
12.69
10.83
8.96
7.02
4.9
2.54
-0.07
-2.83
-5.59
-8.23
-10.7
-13.07
-15.52
-18.27
-21.46
-24.98
-28.47
-31.34
-32.95
-32.91
-31.14
-27.91
-23.69
-18.93
-13.95
-8.94
-4.04
0.55
4.54
7.63
9.65
10.63
10.85
10.76
10.79
11.2
12.02
13.02
13.9
14.46
14.7
14.76
14.85
15.04
15.28
15.33
14.99
14.17
12.89
11.32
9.61
7.86
6.06
4.18
2.2
0.13
-1.99
-4.11
-6.27
-8.56
-11.14
-14.1
-17.38
-20.69
-23.58
-25.53
-26.08
-25.02
-22.38
-18.44
-13.63
-8.42
-3.23
1.62
5.9
9.48
12.29
14.31
15.58
16.22
16.4
16.32
16.2
16.23
16.54
17.16
18.05
19.06
19.97
20.54
20.62
20.17
19.25
17.99
16.57
15.12
13.71
12.35
10.97
9.46
7.7
5.6
3.14
0.4
-2.5
-5.4
-8.2
-10.86
-13.45
-16.09
-18.9
-21.95
-25.18
-28.38
-31.19
-33.13
-33.72
-32.64
-29.84
-25.6
-20.39
-14.75
-9.13
-3.81
1.07
5.41
9.07
11.87
13.7
14.54
14.6
14.27
13.96
14.0
14.5
15.36
16.34
17.22
17.87
18.24
18.36
18.26
17.91
17.26
16.23
14.79
12.95
10.78
8.38
5.85
3.33
0.96
-1.19
-3.16
-5.06
-7.07
-9.32
-11.87
-14.72
-17.85
-21.16
-24.49
-27.48
-29.62
-30.35
-29.3
-26.46
-22.18
-17.08
-11.77
-6.64
-1.85
2.58
6.65
10.22
13.07
14.97
15.89
15.96
15.56
15.07
14.83
15.0
15.53
16.25
16.95
17.47
17.73
17.72
17.44
16.89
16.06
15.03
13.88
12.74
11.63
10.44
8.97
7.0
4.49
1.59
-1.37
-4.06
-6.33
-8.23
-9.99
-11.87
-14.1
-16.84
-20.14
-23.88
-27.69
-30.97
-33.05
-33.33
-31.58
-27.98
-23.12
-17.68
-12.26
-7.19
-2.61
1.51
5.16
8.31
10.86
12.78
14.08
14.87
15.31
15.59
15.91
16.35
16.94
17.54
18.01
18.19
18.04
17.59
16.95
16.26
15.56
14.81
13.87
12.63
11.0
9.02
6.78
4.4
2.0
-0.33
-2.49
-4.42
-6.12
-7.7
-9.37
-11.38
-13.93
-17.02
-20.45
-23.81
-26.62
-28.43
-28.98
-28.15
-26.0
-22.74
-18.63
-14.0
-9.15
-4.38
0.06
3.99
7.29
9.88
11.76
12.98
13.6
13.74
13.53
13.15
12.77
12.57
12.66
13.07
13.71
14.45
15.14
15.61
15.73
15.42
14.67
13.52
12.06
10.37
8.56
6.68
4.83
3.03
1.28
-0.52
-2.49
-4.71
-7.22
-9.91
-12.64
-15.32
-17.96
-20.65
-23.38
-25.92
-27.77
-28.37
-27.32
-24.62
-20.7
-16.14
-11.49
-7.06
-2.91
1.01
4.63
7.76
10.14
11.65
12.33
12.45
12.37
12.35
12.58
13.09
13.77
14.47
15.02
15.28
15.16
14.73
14.11
13.43
12.77
12.1
11.31
10.29
9.02
7.54
6.0
4.47
2.94
1.3
-0.58
-2.75
-5.17
-7.69
-10.16
-12.53
-14.9
-17.4
-20.12
-22.94
-25.48
-27.22
-27.68
-26.63
-24.15
-20.54
-16.15
-11.25
-6.03
-0.66
4.58
9.33
13.21
15.99
17.69
18.62
19.2
19.8
20.64
21.76
23.06
24.43
25.75
27.06
28.43
30.04
32.02
34.45
37.21
40.0
42.43
44.07
44.79
44.75
44.55
44.87
46.23
48.66
51.55
53.89
54.57
52.85
48.55
42.19
34.9
28.3
24.08
23.51
26.81
32.7
38.59
41.29
38.17
28.14
11.98
-8.0
-28.99
-48.64
-65.69
-79.94
-91.78
-101.71
-109.99
-116.68
-121.79
-125.51
-128.17
-130.24
-132.09
-133.77
-134.94
-134.92
-132.94
-128.59
-122.01
-113.86
-105.02
-96.2
-87.74
-79.63
-71.88
-64.79
-58.98
-55.05
-53.1
-52.54
-52.26
-51.1
-48.48
-44.61
-40.3
-36.45
-33.56
-31.45
-29.51
-27.07
-23.69
-19.34
-14.13
-8.07
-0.99
7.33
16.98
27.71
39.01
50.2
60.75
70.34
78.92
86.59
93.51
99.79
105.54
110.75
115.39
119.39
122.89
126.31
130.16
134.84
140.11
145.03
148.27
148.72
146.17
141.46
136.19
132.09
130.38
131.47
134.97
139.91
144.93
148.48
149.02
145.27
136.47
122.42
103.33
79.73
52.3
22.16
-9.03
-39.0
-65.34
-86.11
-100.44
-108.81
-112.55
-113.28
-112.23
-110.01
-106.74
-102.48
-97.5
-92.36
-87.73
-84.11
-81.63
-80.1
-79.16
-78.37
-77.44
-76.09
-74.13
-71.41
-67.83
-63.44
-58.42
-53.12
-47.99
-43.52
-40.07
-37.84
-36.8
-36.68
-37.09
-37.56
-37.68
-37.22
-36.1
-34.46
-32.62
-31.0
-29.97
-29.73
-30.17
-30.86
-31.14
-30.35
-28.08
-24.35
-19.56
-14.35
-9.37
-5.1
-1.75
0.63
2.17
2.99
3.27
3.15
2.72
1.97
0.79
-0.96
-3.37
-6.29
-9.43
-12.34
-14.67
-16.29
-17.38
-18.32
-19.49
-21.08
-22.98
-24.85
-26.31
-27.18
-27.52
-27.57
-27.64
-27.93
-28.52
-29.36
-30.32
-31.13
-31.22
-29.77
-25.92
-19.04
-9.11
3.15
16.33
28.79
39.14
46.61
51.12
53.13
53.3
52.27
50.4
47.84
44.6
40.76
36.67
32.87
29.96
28.3
27.78
27.94
28.27
28.5
28.63
28.69
28.37
27.01
23.96
19.12
13.37
8.36
5.74
6.15
8.89
12.24
14.52
14.98
14.05
12.87
12.58
13.76
16.45
20.56
26.23
33.81
43.37
54.38
65.54
75.14
81.79
84.81
84.37
81.14
75.92
69.42
62.22
54.78
47.4
40.17
32.94
25.58
18.14
11.11
5.23
1.14
-1.09
-2.05
-2.81
-4.41
-7.36
-11.46
-15.97
-19.99
-22.89
-24.44
-24.79
-24.2
-22.99
-21.33
-19.28
-16.86
-14.18
-11.5
-9.12
-7.33
-6.2
-5.55
-5.01
-4.21
-2.96
-1.29
0.54
2.28
3.69
4.7
5.35
5.75
6.03
6.25
6.43
6.45
6.05
4.97
3.04
0.22
-3.28
-7.12
-10.88
-14.22
-16.86
-18.64
-19.51
-19.57
-19.04
-18.16
-17.17
-16.16
-15.15
-14.11
-13.07
-12.13
-11.43
-11.04
-10.87
-10.72
-10.39
-9.75
-8.87
-7.89
-7.03
-6.41
-6.08
-5.89
-5.68
-5.27
-4.55
-3.57
-2.53
-1.69
-1.32
-1.55
-2.34
-3.47
-4.61
-5.39
-5.5
-4.79
-3.22
-0.9
1.96
5.11
8.28
11.24
13.75
15.66
16.87
17.31
17.03
16.12
14.74
13.06
11.29
9.61
8.15
6.93
5.93
5.05
4.22
3.36
2.42
1.36
0.11
-1.39
-3.18
-5.24
-7.54
-9.97
-12.47
-14.96
-17.34
-19.47
-21.13
-22.1
-22.24
-21.52
-20.12
-18.29
-16.24
-14.12
-11.95
-9.69
-7.39
-5.19
-3.34
-2.1
-1.61
-1.79
-2.42
-3.2
-3.87
-4.3
-4.47
-4.47
-4.37
-4.27
-4.2
-4.24
-4.41
-4.7
-5.05
-5.45
-5.92
-6.61
-7.7
-9.34
-11.5
-14.03
-16.59
-18.87
-20.58
-21.58
-21.83
-21.37
-20.25
-18.56
-16.36
-13.73
-10.79
-7.71
-4.7
-1.98
0.27
2.01
3.34
4.44
5.47
6.48
7.37
7.99
8.23
8.13
7.82
7.48
7.16
6.85
6.41
5.72
4.74
3.48
1.97
0.22
-1.82
-4.17
-6.77
-9.4
-11.73
-13.43
-14.24
-14.07
-13.07
-11.45
-9.48
-7.36
-5.18
-2.99
-0.88
1.03
2.59
3.63
4.04
3.86
3.23
2.4
1.64
1.16
1.01
1.09
1.18
1.04
0.52
-0.36
-1.44
-2.47
-3.24
-3.73
-4.09
-4.56
-5.35
-6.53
-8.05
-9.76
-11.55
-13.33
-15.0
-16.36
-17.11
-16.93
-15.66
-13.38
-10.45
-7.32
-4.38
-1.84
0.26
1.96
3.27
4.11
4.37
4.04
3.24
2.24
1.32
0.69
0.37
0.26
0.21
0.1
-0.08
-0.29
-0.49
-0.69
-0.99
-1.49
-2.26
-3.31
-4.51
-5.76
-6.97
-8.12
-9.29
-10.56
-11.99
-13.5
-14.87
-15.76
-15.84
-14.91
-12.98
-10.29
-7.21
-4.09
-1.16
1.49
3.8
5.76
7.27
8.28
8.76
8.79
8.55
8.21
7.88
7.62
7.38
7.11
6.75
6.29
5.73
5.13
4.54
4.01
3.53
3.04
2.42
1.54
0.34
-1.11
-2.7
-4.31
-5.95
-7.73
-9.81
-12.31
-15.12
-17.95
-20.31
-21.77
-22.02
-20.95
-18.72
-15.61
-12.01
-8.26
-4.69
-1.5
1.16
3.26
4.83
5.91
6.56
6.79
6.67
6.3
5.82
5.39
5.13
5.03
5.03
4.99
4.82
4.48
3.98
3.35
2.6
1.73
0.73
-0.39
-1.59
-2.86
-4.25
-5.86
-7.78
-10.07
-12.62
-15.24
-17.63
-19.48
-20.47
-20.41
-19.23
-17.01
-13.99
-10.45
-6.7
-3.01
0.39
3.36
5.77
7.54
8.65
9.13
9.1
8.75
8.31
7.96
7.79
7.79
7.88
8.01
8.13
8.26
8.44
8.66
8.82
8.74
8.26
7.31
5.89
4.13
2.16
0.07
-2.13
-4.43
-6.87
-9.49
-12.34
-15.43
-18.72
-22.06
-25.12
-27.5
-28.75
-28.57
-26.87
-23.87
-19.91
-15.42
-10.76
-6.16
-1.81
2.14
5.54
8.24
10.17
11.38
12.07
12.51
12.99
13.67
14.56
15.48
16.19
16.5
16.35
15.87
15.28
14.78
14.45
14.2
13.79
13.0
11.71
9.95
7.83
5.54
3.21
0.9
-1.36
-3.58
-5.77
-8.02
-10.45
-13.21
-16.31
-19.57
-22.58
-24.74
-25.51
-24.58
-21.99
-18.08
-13.35
-8.25
-3.07
2.01
6.91
11.46
15.39
18.41
20.36
21.23
21.27
20.86
20.38
20.1
20.08
20.21
20.3
20.19
19.85
19.39
18.96
18.66
18.49
18.25
17.67
16.52
14.67
12.19
9.32
6.38
3.66
1.29
-0.78
-2.76
-4.92
-7.5
-10.58
-14.06
-17.63
-20.84
-23.19
-24.26
-23.76
-21.58
-17.88
-13.04
-7.59
-2.07
3.06
7.51
11.14
13.93
15.89
17.09
17.6
17.56
17.17
16.65
16.22
16.0
15.99
16.1
16.25
16.36
16.44
16.54
16.68
16.81
16.77
16.35
15.38
13.79
11.68
9.23
6.73
4.38
2.31
0.52
-1.15
-2.93
-5.09
-7.87
-11.36
-15.4
-19.55
-23.2
-25.65
-26.38
-25.16
-22.11
-17.63
-12.3
-6.71
-1.38
3.34
7.31
10.51
13.07
15.12
16.77
18.03
18.86
19.23
19.18
18.87
18.51
18.33
18.45
18.83
19.31
19.61
19.53
18.98
18.02
16.86
15.73
14.74
13.86
12.93
11.71
10.02
7.84
5.26
2.5
-0.25
-2.86
-5.28
-7.58
-9.92
-12.48
-15.44
-18.85
-22.6
-26.36
-29.61
-31.74
-32.31
-31.07
-28.11
-23.83
-18.73
-13.34
-8.07
-3.18
1.17
4.85
7.74
9.7
10.7
10.84
10.4
9.74
9.25
9.18
9.57
10.3
11.06
11.59
11.7
11.38
10.79
10.17
9.69
9.39
9.13
8.66
7.71
6.15
4.06
1.66
-0.78
-3.05
-5.11
-7.06
-9.03
-11.17
-13.54
-16.12
-18.81
-21.37
-23.51
-24.86
-25.07
-23.91
-21.36
-17.62
-13.05
-8.09
-3.12
1.56
5.74
9.24
11.97
13.89
15.07
15.69
15.94
16.0
15.98
15.87
15.63
15.24
14.73
14.16
13.61
13.05
12.37
11.46
10.25
8.79
7.2
5.63
4.14
2.74
1.37
-0.0
-1.37
-2.68
-3.89
-5.01
-6.14
-7.39
-8.83
-10.5
-12.4
-14.52
-16.85
-19.26
-21.53
-23.29
-24.13
-23.72
-21.9
-18.76
-14.61
-9.88
-5.01
-0.36
3.83
7.48
10.52
12.93
14.6
15.46
15.52
14.96
14.12
13.39
13.07
13.28
13.82
14.35
14.55
14.2
13.35
12.19
10.98
9.87
8.85
7.88
6.81
5.64
4.34
2.99
1.57
0.04
-1.65
-3.47
-5.35
-7.18
-8.9
-10.58
-12.38
-14.47
-16.88
-19.46
-21.88
-23.69
-24.48
-23.98
-22.09
-18.95
-14.89
-10.37
-5.86
-1.78
1.65
4.41
6.59
8.33
9.71
10.7
11.27
11.46
11.41
11.35
11.46
11.79
12.19
12.43
12.31
11.83
11.19
10.68
10.46
10.46
10.44
10.03
9.03
7.42
5.38
3.15
0.93
-1.17
-3.15
-5.0
-6.75
-8.44
-10.14
-11.97
-14.02
-16.24
-18.43
-20.24
-21.24
-21.07
-19.59
-16.9
-13.34
-9.37
-5.44
-1.86
1.23
3.83
6.0
7.75
9.09
9.94
10.28
10.14
