0.52
0.02
-0.32
-0.32
0.06
0.71
1.41
1.99
2.35
2.53
2.6
2.64
2.64
2.53
2.24
1.72
0.99
0.14
-0.67
-1.34
-1.81
-2.08
-2.21
-2.28
-2.34
-2.48
-2.74
-3.23
-4.02
-5.12
-6.5
-7.99
-9.38
-10.37
-10.71
-10.19
-8.75
-6.51
-3.68
-0.61
2.37
4.99
7.05
8.45
9.17
9.27
8.93
8.35
7.7
7.14
6.71
6.39
6.08
5.72
5.24
4.62
3.85
2.96
2.04
1.18
0.49
-0.06
-0.55
-1.18
-2.13
-3.47
-5.13
-6.89
-8.46
-9.6
-10.2
-10.3
-10.07
-9.78
-9.71
-10.07
-10.95
-12.28
-13.81
-15.13
-15.85
-15.63
-14.35
-12.09
-9.13
-5.86
-2.64
0.26
2.74
4.85
6.65
8.18
9.36
10.1
10.32
10.04
9.4
8.62
7.89
7.35
6.98
6.7
6.39
5.96
5.4
4.73
3.98
3.16
2.28
1.31
0.21
-1.09
-2.62
-4.35
-6.18
-8.0
-9.71
-11.31
-12.83
-14.36
-16.0
-17.86
-20.01
-22.43
-25.09
-27.88
-30.6
-32.97
-34.67
-35.51
-35.48
-34.66
-33.22
-31.43
-29.59
-28.03
-26.99
-26.56
-26.77
-27.62
-29.02
-30.73
-32.56
-34.45
-36.37
-38.22
-39.78
-40.87
-41.49
-41.57
-40.78
-38.85
-35.75
-31.64
-26.75
-21.18
-14.89
-7.74
0.9
12.36
27.75
47.3
70.11
94.56
119.16
143.33
163.55
176.77
181.71
178.82
169.45
154.55
134.27
108.55
78.18
47.71
18.58
-7.47
-28.48
-42.81
-49.57
-48.85
-41.84
-30.75
-19.1
-10.35
-6.31
-6.97
-10.77
-15.26
-18.21
-18.43
-16.18
-12.84
-10.02
-8.23
-7.02
-5.48
-2.82
1.15
5.88
10.39
13.7
15.26
15.46
14.97
14.38
13.74
12.7
10.78
7.71
3.65
-0.94
-5.25
-8.59
-10.66
-11.58
-11.74
-11.61
-11.55
-11.74
-12.24
-12.89
-13.45
-13.64
-13.24
-12.22
-10.63
-8.61
-6.25
-3.54
-0.43
3.02
6.59
9.85
12.42
14.08
14.89
15.15
15.18
15.18
15.22
15.25
15.27
15.33
15.53
16.01
16.82
17.98
19.32
20.62
21.51
21.65
20.83
19.08
16.68
14.06
11.58
9.32
7.17
4.86
2.23
-0.67
-3.68
-6.59
-9.4
-12.24
-15.32
-18.76
-22.41
-25.9
-28.79
-30.69
-31.51
-31.4
-30.7
-29.78
-28.89
-28.12
-27.4
-26.6
-25.61
-24.41
-23.05
-21.6
-20.13
-18.65
-17.11
-15.4
-13.37
-10.91
-7.93
-4.47
-0.62
3.4
7.38
11.13
14.61
17.97
21.47
25.45
30.15
35.6
41.55
47.51
52.83
56.88
59.17
59.5
58.06
55.38
52.16
49.04
46.34
43.97
41.54
38.55
34.68
29.91
24.5
18.84
13.21
7.74
2.36
-3.08
-8.7
-14.52
-20.47
-26.42
-32.23
-37.87
-43.38
-48.88
-54.39
-59.71
-64.4
-67.92
-69.83
-70.04
-68.87
-66.93
-64.89
-63.17
-61.85
-60.71
-59.43
-57.78
-55.76
-53.58
-51.54
-49.89
-48.76
-48.14
-47.95
-48.04
-48.22
-48.29
-47.99
-47.09
-45.4
-42.84
-39.43
-35.2
-30.27
-24.71
-18.57
-11.85
-4.33
4.56
15.69
29.89
47.53
68.18
90.76
114.06
137.19
159.82
181.95
203.44
223.54
240.99
254.28
262.21
264.16
260.07
250.21
234.88
214.39
189.11
159.66
126.95
92.14
56.56
21.66
-11.18
-40.92
-66.99
-89.36
-108.3
-124.04
-136.6
-145.85
-151.84
-154.98
-156.11
-156.14
-155.63
-154.54
-152.15
-147.75
-140.88
-131.69
-120.85
-109.14
-97.14
-85.23
-73.85
-63.7
-55.66
-50.32
-47.58
-46.49
-45.58
-43.61
-40.11
-35.57
-31.07
-27.67
-25.91
-25.62
-26.12
-26.66
-26.68
-26.0
-24.66
-22.89
-20.98
-19.24
-17.92
-17.22
-17.18
-17.93
-19.67
-22.57
-26.72
-31.87
-37.37
-42.24
-45.44
-46.26
-44.58
-40.77
-35.56
-29.61
-23.29
-16.67
-9.7
-2.54
4.34
10.27
14.74
17.62
19.36
20.65
22.03
23.59
24.84
24.98
23.32
19.6
14.05
7.26
-0.14
-7.65
-15.06
-22.33
-29.56
-36.83
-44.22
-51.72
-59.16
-66.22
-72.43
-77.3
-80.49
-82.05
-82.31
-81.74
-80.68
-79.03
-76.33
-71.95
-65.47
-56.83
-46.22
-33.97
-20.48
-6.36
7.5
20.0
30.24
38.14
44.64
51.45
60.13
71.18
83.78
96.15
106.66
114.8
121.45
128.28
136.62
146.39
155.86
162.41
163.76
159.07
149.3
136.68
123.45
110.87
98.84
86.46
72.96
58.53
44.36
32.02
22.5
15.54
9.92
4.18
-2.49
-9.78
-16.59
-21.61
-24.09
-24.1
-22.43
-20.12
-18.0
-16.52
-15.77
-15.7
-16.19
-17.12
-18.28
-19.42
-20.27
-20.63
-20.43
-19.71
-18.52
-16.93
-15.04
-13.0
-11.06
-9.48
-8.46
-8.07
-8.26
-8.94
-10.02
-11.39
-12.88
-14.25
-15.25
-15.75
-15.85
-15.88
-16.19
-16.99
-18.21
-19.5
-20.45
-20.74
-20.25
-19.07
-17.39
-15.38
-13.15
-10.77
-8.28
-5.79
-3.47
-1.51
-0.1
0.68
0.93
0.88
0.78
0.82
1.03
1.33
1.65
1.96
2.37
3.02
3.95
5.01
5.96
6.49
6.47
5.99
5.29
4.66
4.28
4.11
3.99
3.65
2.88
1.61
-0.13
-2.16
-4.27
-6.23
-7.85
-8.92
-9.26
-8.75
-7.31
-4.98
-1.97
1.45
4.95
8.3
11.33
13.98
16.21
17.98
19.32
20.32
21.14
22.01
23.09
24.41
25.84
27.15
28.15
28.78
29.18
29.59
30.26
31.26
32.43
33.44
33.91
33.6
32.52
30.81
28.7
26.33
23.74
20.99
18.15
15.23
12.11
8.47
3.83
-2.15
-9.38
-17.18
-24.52
-30.32
-33.94
-35.37
-35.14
-33.98
-32.48
-30.92
-29.39
-27.9
-26.61
-25.82
-25.85
-26.88
-28.79
-31.2
-33.58
-35.43
-36.4
-36.36
-35.35
-33.48
-30.91
-27.84
-24.53
-21.2
-18.05
-15.18
-12.59
-10.24
-8.09
-6.13
-4.38
-2.83
-1.5
-0.42
0.35
0.73
0.66
0.14
-0.76
-1.95
-3.39
-5.11
-7.14
-9.42
-11.78
-13.91
-15.48
-16.22
-16.01
-14.9
-13.03
-10.59
-7.79
-4.78
-1.7
1.34
4.19
6.66
8.6
9.91
10.63
10.93
11.05
11.18
11.44
11.84
12.31
12.79
13.23
13.57
13.71
13.55
13.07
12.33
11.48
10.66
9.87
8.99
7.86
6.36
4.53
2.54
0.61
-1.16
-2.76
-4.26
-5.73
-7.19
-8.63
-10.06
-11.47
-12.88
-14.24
-15.4
-16.14
-16.24
-15.51
-13.95
-11.65
-8.84
-5.79
-2.78
-0.06
2.14
3.67
4.45
4.48
3.86
2.8
1.56
0.4
-0.52
-1.17
-1.68
-2.26
-3.14
-4.46
-6.22
-8.25
-10.37
-12.35
-14.11
-15.76
-17.56
-19.85
-22.9
-26.73
-31.09
-35.53
-39.53
-42.85
-45.58
-48.25
-51.58
-56.2
-62.35
-69.75
-77.74
-85.52
-92.56
-98.71
-104.14
-109.05
-113.41
-116.78
-118.52
-118.01
-114.98
-109.49
-101.86
-92.45
-81.59
-69.78
-57.99
-47.42
-38.96
-32.32
-25.67
-16.21
-1.57
18.79
43.06
67.82
89.58
106.33
118.09
126.33
132.71
138.07
142.16
144.1
143.12
138.93
131.82
122.26
110.78
97.77
83.58
68.44
52.58
36.5
21.13
7.84
-1.79
-6.59
-6.34
-2.0
4.51
10.87
15.09
16.09
13.97
9.98
6.14
4.6
6.73
12.63
21.11
30.28
38.37
44.29
47.81
49.24
48.98
47.41
44.98
42.47
40.99
41.51
44.33
48.75
53.29
56.4
57.17
55.7
52.8
49.58
46.82
44.84
43.45
42.19
40.49
37.84
33.97
28.83
22.62
15.77
8.78
2.12
-3.85
-8.96
-13.2
-16.67
-19.64
-22.39
-25.14
-27.88
-30.32
-31.92
-32.2
-30.97
-28.55
-25.61
-22.86
-20.73
-19.21
-18.0
-16.75
-15.32
-13.88
-12.77
-12.26
-12.43
-13.06
-13.81
-14.27
-14.13
-13.25
-11.69
-9.63
-7.38
-5.28
-3.61
-2.59
-2.3
-2.7
-3.68
-5.06
-6.65
-8.29
-9.9
-11.43
-12.96
-14.59
-16.48
-18.71
-21.28
-24.01
-26.61
-28.78
-30.32
-31.16
-31.42
-31.27
-30.75
-29.72
-27.94
-25.15
-21.28
-16.51
-11.17
-5.67
-0.29
4.76
9.39
13.45
16.77
19.22
20.81
21.71
22.23
22.69
23.23
23.84
24.32
24.46
24.14
23.41
22.39
21.26
20.12
18.97
17.8
16.56
15.21
13.74
12.11
10.31
8.35
6.29
4.24
2.22
0.22
-1.89
-4.21
-6.73
-9.37
-11.89
-14.12
-15.91
-17.18
-17.87
-17.87
-17.09
-15.45
-13.05
-10.12
-6.99
-3.99
-1.28
1.03
2.91
4.3
5.14
5.42
5.24
4.83
4.5
4.44
4.74
5.3
5.94
6.47
6.81
6.93
6.91
6.8
6.58
6.2
5.57
4.61
3.33
1.84
0.31
-1.09
-2.3
-3.42
-4.68
-6.28
-8.27
-10.52
-12.69
-14.4
-15.38
-15.47
-14.72
-13.21
-11.05
-8.35
-5.22
-1.87
1.44
4.4
6.73
8.28
9.02
9.05
8.54
7.69
6.72
5.83
5.16
4.82
4.8
5.02
5.34
5.56
5.57
5.3
4.82
4.18
3.46
2.64
1.67
0.47
-1.01
-2.73
-4.6
-6.52
-8.38
-10.12
-11.72
-13.19
-14.57
-15.83
-16.91
-17.7
-18.0
-17.64
-16.48
-14.48
-11.74
-8.46
-4.89
-1.33
1.97
4.79
6.95
8.37
9.05
9.09
8.71
8.16
7.69
7.46
7.53
7.88
8.4
8.97
9.5
9.9
10.17
10.3
10.28
10.07
9.56
8.65
7.33
5.66
3.85
2.1
0.55
-0.8
-2.13
-3.68
-5.64
-8.02
-10.65
-13.21
-15.37
-16.85
-17.56
-17.51
-16.76
-15.34
-13.25
-10.5
-7.18
-3.53
0.12
3.43
6.21
8.41
10.09
11.3
12.06
12.33
12.17
11.73
11.28
11.06
11.21
11.65
12.17
12.53
12.59
12.37
11.98
11.55
11.18
10.83
10.39
9.71
8.65
7.14
5.19
2.96
0.63
-1.57
-3.53
-5.23
-6.88
-8.68
-10.82
-13.28
-15.83
-18.07
-19.58
-20.1
-19.56
-18.1
-15.93
-13.23
-10.11
-6.66
-3.01
0.66
4.06
6.97
9.24
10.84
11.82
12.28
12.29
11.95
11.41
10.84
10.42
10.27
10.38
10.66
10.91
10.98
10.76
10.27
9.56
8.74
7.87
6.97
6.03
4.98
3.77
2.37
0.83
-0.79
-2.36
-3.81
-5.13
-6.42
-7.83
-9.43
-11.16
-12.76
-13.87
-14.19
-13.57
-12.11
-10.08
-7.77
-5.34
-2.81
-0.14
2.63
5.29
7.54
9.11
9.9
10.0
9.66
9.18
8.77
8.57
8.64
9.0
9.6
10.32
10.96
11.32
11.28
10.87
10.25
9.61
9.12
8.74
8.29
7.55
6.35
4.71
2.8
0.89
-0.84
-2.28
-3.49
-4.57
-5.59
-6.62
-7.72
-9.0
-10.61
-12.67
-15.17
-17.9
-20.49
-22.49
-23.55
-23.5
-22.38
-20.34
-17.62
-14.41
-10.9
-7.25
-3.61
-0.2
2.77
5.14
6.84
7.96
8.68
9.2
9.67
10.11
10.46
10.67
10.76
10.84
10.99
11.3
11.68
11.99
12.06
11.77
11.16
10.31
9.42
8.56
7.78
6.99
6.04
4.82
3.29
1.49
-0.42
-2.3
-4.03
-5.6
-7.0
-8.29
-9.49
-10.63
-11.76
-12.95
-14.3
-15.81
-17.35
-18.68
-19.48
-19.46
-18.43
-16.38
-13.47
-9.99
-6.26
-2.65
0.58
3.29
5.46
7.14
8.41
9.35
10.03
10.45
10.69
10.77
10.75
10.65
10.48
10.21
9.87
9.53
9.3
9.27
9.42
9.66
9.8
9.63
9.09
8.24
7.22
6.23
5.35
4.52
3.56
2.29
0.64
-1.27
-3.16
-4.74
-5.83
-6.48
-6.94
-7.52
-8.46
-9.87
-11.7
-13.75
-15.81
-17.62
-18.9
-19.39
-18.89
-17.3
-14.71
-11.41
-7.82
-4.36
-1.35
1.05
2.85
4.17
5.14
5.85
6.33
6.56
6.53
6.33
6.08
5.92
5.93
6.07
6.27
6.39
6.36
6.2
5.94
5.62
5.25
4.82
4.32
3.74
3.12
2.46
1.75
0.95
0.04
-0.93
-1.87
-2.69
-3.33
-3.85
-4.4
-5.19
-6.39
-8.1
-10.28
-12.77
-15.3
-17.52
-19.07
-19.65
-19.08
-17.41
-14.83
-11.64
-8.19
-4.73
-1.48
1.39
3.73
5.43
6.41
6.76
6.72
6.57
6.56
6.78
7.13
7.45
7.6
7.58
7.51
7.57
7.81
8.13
8.34
8.24
7.72
6.88
5.9
5.01
4.26
3.55
2.63
1.22
-0.84
-3.47
-6.43
-9.37
-12.03
-14.26
-16.05
-17.47
-18.62
-19.63
-20.67
-21.86
-23.19
-24.45
-25.2
-24.87
-23.01
-19.42
-14.22
-7.85
-0.96
5.81
11.99
17.49
22.64
28.06
34.35
41.69
49.57
56.97
62.67
65.87
66.39
64.7
61.46
57.17
51.89
45.28
36.89
26.42
13.85
-0.53
-16.29
-33.02
-50.47
-68.58
-87.34
-106.42
-124.93
-141.35
-153.93
-161.29
-162.98
-159.65
-152.65
-143.47
-133.31
-122.94
-112.9
-103.75
-95.86
-89.17
-82.83
-75.39
-65.6
-53.12
-38.88
-24.56
-11.75
-1.11
7.79
16.01
24.51
33.58
42.9
51.79
59.71
66.49
72.2
77.0
80.95
83.84
85.36
85.26
83.68
81.16
78.67
77.25
77.54
79.49
82.29
84.85
86.14
85.7
83.62
80.37
76.48
72.35
68.23
64.31
60.74
57.57
54.64
51.6
48.03
43.61
38.19
31.87
24.97
18.03
11.63
6.29
2.33
-0.29
-2.04
-3.62
-5.77
-8.88
-12.8
-16.87
-20.21
-22.11
-22.31
-21.03
-18.78
-16.05
-13.19
-10.37
-7.71
-5.42
-3.71
-2.68
-2.23
-2.12
-2.14
-2.29
-2.8
-3.95
-5.8
-8.15
-10.52
-12.45
-13.67
-14.18
-14.2
-13.95
-13.66
-13.52
-13.76
-14.61
-16.22
-18.52
-21.09
-23.27
-24.38
-23.94
-21.83
-18.31
-13.87
-9.06
-4.34
0.0
3.77
6.87
9.21
10.74
11.45
11.39
10.73
9.66
8.36
6.94
5.49
4.09
2.84
1.9
1.41
1.47
2.02
2.86
3.71
4.27
4.36
3.91
3.02
1.84
0.53
-0.85
-2.3
-3.88
-5.61
-7.52
-9.64
-11.97
-14.52
-17.21
-19.8
-21.94
-23.27
-23.49
-22.48
-20.36
-17.33
-13.66
-9.59
-5.33
-1.11
2.8
6.13
8.7
10.44
11.42
11.83
11.85
11.66
11.38
11.1
10.9
10.86
10.98
11.26
11.59
11.86
11.96
11.81
11.34
10.55
9.45
8.11
6.66
5.2
3.78
2.36
0.79
-1.1
-3.41
-6.14
-9.14
-12.12
-14.74
-16.65
-17.52
-17.18
-15.58
-12.9
-9.4
-5.46
-1.43
2.4
5.8
8.57
10.61
11.91
12.58
12.81
12.77
12.54
12.08
11.33
10.28
9.07
7.96
7.19
6.87
6.89
7.0
6.96
6.58
5.86
4.85
3.67
2.39
1.07
-0.22
-1.49
-2.74
-4.1
-5.7
-7.69
-10.01
-12.43
-14.55
-15.9
-16.09
-14.97
-12.58
-9.18
-5.11
-0.76
3.51
7.33
10.43
12.59
13.74
13.92
13.33
12.27
11.1
10.1
9.43
9.12
9.03
9.03
8.97
8.78
8.46
8.06
7.61
7.11
6.53
5.78
4.78
3.5
1.93
0.17
-1.67
-3.46
-5.18
-6.86
-8.64
-10.62
-12.82
-15.08
-17.06
-18.36
-18.6
-17.53
-15.1
-11.54
-7.25
-2.73
1.52
5.14
7.96
10.01
11.44
12.39
12.96
13.17
13.02
12.55
11.88
11.16
10.51
9.97
9.51
9.02
8.48
7.91
7.37
6.89
6.42
5.87
5.15
4.24
3.18
2.05
0.87
-0.4
-1.83
-3.51
-5.46
-7.61
-9.85
-12.04
-14.04
-15.69
-16.79
-17.12
-16.47
-14.72
-11.92
-8.31
-4.27
-0.23
3.42
6.39
8.53
9.82
10.33
10.19
9.63
8.86
8.12
7.56
7.24
7.06
6.89
6.61
6.18
5.67
5.18
4.84
4.65
4.49
4.22
3.7
2.89
1.86
0.72
-0.43
-1.52
-2.58
-3.66
-4.83
-6.15
-7.68
-9.47
-11.55
-13.86
-16.14
-17.98
-18.87
-18.43
-16.54
-13.45
-9.67
-5.78
-2.24
0.72
3.12
5.03
6.52
7.54
8.05
8.05
7.62
6.97
6.32
5.83
5.57
5.53
5.6
5.66
5.6
5.41
5.13
4.87
4.71
4.66
4.61
4.38
3.82
2.92
1.81
0.7
-0.24
-1.01
-1.74
-2.65
-3.91
-5.58
-7.59
-9.81
-12.0
-13.9
-15.16
-15.4
-14.38
-12.07
-8.71
-4.78
-0.81
2.83
6.01
8.73
11.09
13.05
14.48
15.23
15.26
14.76
14.09
13.61
13.56
13.9
14.4
14.8
14.97
15.03
15.23
15.82
16.88
18.28
19.72
20.95
21.86
22.54
23.17
23.92
24.85
25.93
27.15
28.48
29.79
30.73
30.61
28.68
24.4
17.8
9.62
1.1
-6.47
-12.25
-16.02
-18.15
-19.18
-19.48
-19.15
-18.12
-16.52
-14.85
-13.96
-14.8
-18.17
-24.47
-33.68
-45.23
-57.93
-69.84
-78.52
-81.55
-77.35
-65.92
-48.94
-29.29
-9.96
6.82
19.97
29.44
35.62
38.89
39.56
37.96
34.73
30.75
26.9
23.67
21.01
18.43
15.31
11.2
6.13
0.55
-4.78
-9.16
-12.17
-13.82
-14.43
-14.44
-14.17
-13.68
-12.83
-11.49
-9.7
-7.62
-5.51
-3.5
-1.54
0.51
2.73
5.06
7.27
9.17
10.7
12.02
13.4
15.03
16.9
18.76
20.27
21.16
21.41
21.25
21.0
20.92
21.03
21.06
20.57
19.12
16.52
12.88
8.61
4.23
0.12
-3.65
-7.26
-11.11
-15.53
-20.71
-26.56
-32.81
-39.1
-45.01
-50.17
-54.16
-56.63
-57.27
-55.97
-52.83
-48.24
-42.78
-37.06
-31.59
-26.66
-22.37
-18.71
-15.6
-12.99
-10.83
-9.03
-7.52
-6.22
-5.13
-4.32
-3.89
-3.9
-4.38
-5.26
-6.4
-7.73
-9.17
-10.74
-12.47
-14.36
-16.37
-18.36
-20.24
-21.88
-23.24
-24.36
-25.29
-26.08
-26.78
-27.36
-27.82
-28.1
-28.11
-27.66
-26.47
-24.25
-20.83
-16.25
-10.79
-4.96
0.73
5.89
10.27
13.78
16.4
18.11
18.91
18.86
18.11
