19.81
19.71
19.87
20.16
20.4
20.44
20.2
19.67
18.91
17.93
16.67
15.0
12.75
9.93
6.72
3.49
0.65
-1.55
-3.12
-4.3
-5.5
-7.1
-9.32
-12.19
-15.58
-19.21
-22.73
-25.68
-27.62
-28.14
-27.0
-24.18
-19.91
-14.64
-8.92
-3.28
1.87
6.29
9.89
12.68
14.72
16.03
16.67
16.76
16.52
16.21
16.14
16.5
17.3
18.34
19.33
19.96
20.08
19.74
19.14
18.48
17.89
17.32
16.6
15.48
13.82
11.62
9.07
6.48
4.07
1.96
0.08
-1.76
-3.73
-5.95
-8.4
-11.05
-13.86
-16.77
-19.66
-22.29
-24.25
-25.09
-24.44
-22.23
-18.7
-14.34
-9.67
-5.12
-0.87
3.03
6.61
9.8
12.47
14.44
15.6
16.04
15.97
15.69
15.46
15.42
15.58
15.81
16.03
16.2
16.36
16.56
16.79
16.99
16.96
16.52
15.57
14.14
12.43
10.71
9.21
7.96
6.83
5.52
3.8
1.58
-0.99
-3.59
-5.89
-7.69
-9.05
-10.21
-11.5
-13.2
-15.47
-18.32
-21.58
-24.91
-27.83
-29.79
-30.3
-29.15
-26.44
-22.61
-18.24
-13.87
-9.79
-6.08
-2.71
0.32
2.91
4.93
6.31
7.11
7.49
7.63
7.65
7.57
7.37
7.04
6.59
6.1
5.66
5.25
4.82
4.22
3.34
2.1
0.47
-1.47
-3.62
-5.86
-8.08
-10.17
-12.12
-13.94
-15.71
-17.47
-19.25
-20.99
-22.54
-23.76
-24.52
-24.82
-24.81
-24.74
-24.9
-25.49
-26.56
-28.0
-29.51
-30.7
-31.18
-30.66
-29.02
-26.33
-22.82
-18.74
-14.32
-9.71
-5.06
-0.57
3.51
6.84
9.18
10.5
10.99
11.04
11.14
11.63
12.63
14.01
15.42
16.44
16.8
16.51
15.89
15.39
15.49
16.52
18.71
22.13
26.7
32.04
37.4
41.78
44.28
44.56
43.02
40.74
38.93
38.36
39.06
40.41
41.57
41.91
41.25
39.65
37.14
33.57
28.74
22.69
15.88
9.16
3.44
-0.66
-3.0
-3.89
-3.81
-3.17
-2.14
-0.66
1.45
4.32
7.98
12.36
17.3
22.51
27.62
32.29
36.15
38.96
40.51
40.5
38.53
34.08
26.75
16.56
4.22
-8.88
-20.9
-30.04
-35.03
-35.38
-31.31
-23.44
-12.46
1.01
16.5
33.51
51.58
70.32
89.4
108.47
126.82
143.27
156.24
164.38
167.12
164.9
158.82
149.84
138.15
123.28
104.83
83.36
60.75
39.55
21.73
7.66
-3.98
-15.19
-27.32
-40.14
-51.95
-60.64
-64.88
-64.76
-61.61
-57.22
-53.03
-49.82
-47.81
-47.03
-47.5
-49.23
-52.0
-55.26
-58.15
-59.75
-59.39
-56.9
-52.65
-47.55
-42.74
-39.22
-37.56
-37.74
-39.22
-41.3
-43.38
-45.23
-47.03
-49.09
-51.63
-54.59
-57.56
-60.04
-61.58
-62.01
-61.49
-60.47
-59.46
-58.88
-58.84
-59.18
-59.47
-59.19
-57.95
-55.56
-52.09
-47.89
-43.55
-39.76
-37.09
-35.77
-35.6
-36.01
-36.34
-36.08
-35.08
-33.52
-31.72
-30.0
-28.64
-27.87
-28.01
-29.39
-32.22
-36.36
-41.27
-46.04
-49.69
-51.55
-51.45
-49.84
-47.52
-45.34
-43.96
-43.56
-43.97
-44.7
-45.2
-44.98
-43.72
-41.29
-37.72
-33.17
-27.9
-22.22
-16.51
-11.12
-6.33
-2.37
0.67
2.8
4.17
4.99
5.49
5.88
6.32
6.94
7.81
8.96
10.29
11.62
12.67
13.16
12.9
11.89
10.32
8.47
6.62
4.98
3.59
2.34
1.0
-0.68
-2.91
-5.76
-9.12
-12.74
-16.29
-19.42
-21.82
-23.22
-23.5
-22.64
-20.76
-18.11
-15.02
-11.75
-8.51
-5.35
-2.27
0.76
3.69
6.39
8.64
10.18
10.78
10.36
9.05
7.24
5.43
4.12
3.58
3.83
4.66
5.79
6.92
7.87
8.52
8.77
8.55
7.81
6.61
5.05
3.3
1.47
-0.32
-2.08
-3.87
-5.85
-8.16
-10.91
-14.03
-17.27
-20.19
-22.32
-23.3
-22.98
-21.49
-19.09
-16.11
-12.83
-9.41
-5.98
-2.72
0.18
2.47
3.94
4.51
4.28
3.51
2.59
1.89
1.72
2.27
3.53
5.29
7.26
9.1
10.6
11.67
12.3
12.54
12.4
11.84
10.81
9.32
7.37
5.04
2.36
-0.64
-3.89
-7.24
-10.36
-12.8
-14.11
-13.94
-12.18
-8.91
-4.42
0.88
6.47
11.89
16.74
20.76
23.88
26.16
27.73
28.77
29.41
29.77
29.98
30.1
30.12
29.87
29.1
27.54
25.01
21.59
17.55
13.32
9.33
5.93
3.27
1.35
0.05
-0.88
-1.74
-2.89
-4.59
-7.07
-10.4
-14.55
-19.4
-24.62
-29.65
-33.66
-35.75
-35.24
-32.04
-26.72
-20.37
-14.09
-8.56
-3.9
0.24
4.2
8.04
11.41
13.87
15.13
15.35
14.98
14.57
14.44
14.65
15.05
15.45
15.83
16.21
16.69
17.24
17.69
17.76
17.16
15.7
13.36
10.33
6.97
3.66
0.68
-1.89
-4.24
-6.68
-9.47
-12.68
-16.05
-19.07
-21.15
-21.77
-20.71
-18.02
-14.0
-9.12
-3.82
1.49
6.52
11.02
14.76
17.54
19.23
19.86
19.66
18.96
18.13
17.42
16.95
16.67
16.52
16.48
16.62
16.99
17.57
18.22
18.68
18.72
18.17
17.02
15.41
13.54
11.58
9.61
7.59
5.39
2.85
-0.11
-3.51
-7.22
-11.01
-14.56
-17.45
-19.26
-19.63
-18.37
-15.48
-11.23
-6.1
-0.6
4.75
9.63
13.86
17.39
20.21
22.33
23.74
24.46
24.59
24.31
23.86
23.47
23.3
23.42
23.77
24.23
24.67
24.95
24.96
24.57
23.69
22.21
20.12
17.52
14.67
11.9
9.52
7.61
5.99
4.34
2.29
-0.31
-3.37
-6.6
-9.73
-12.6
-15.19
-17.51
-19.44
-20.74
-21.05
-20.17
-18.05
-14.95
-11.24
-7.25
-3.21
0.75
4.46
7.64
9.94
11.09
11.14
10.48
9.8
9.79
10.82
12.82
15.34
17.8
19.72
20.89
21.4
21.44
21.2
20.75
20.04
18.98
17.47
15.5
13.14
10.54
7.91
5.49
3.43
1.77
0.37
-1.02
-2.69
-4.84
-7.57
-10.79
-14.34
-17.93
-21.2
-23.74
-25.11
-24.93
-23.04
-19.6
-15.13
-10.35
-5.99
-2.49
0.06
1.91
3.4
4.79
6.08
7.12
7.67
7.67
7.25
6.68
6.24
6.06
6.17
6.47
6.89
7.43
8.12
9.03
10.09
11.16
12.04
12.55
12.61
12.28
11.69
10.95
10.15
9.3
8.38
7.38
6.34
5.29
4.27
3.22
2.01
0.48
-1.56
-4.2
-7.44
-11.1
-14.86
-18.25
-20.76
-21.99
-21.77
-20.2
-17.65
-14.57
-11.33
-8.17
-5.22
-2.56
-0.36
1.3
2.39
3.07
3.62
4.34
5.33
6.51
7.62
8.44
8.89
9.11
9.38
9.96
10.95
12.26
13.62
14.78
15.57
15.96
16.07
16.03
15.91
15.64
15.08
14.08
12.62
10.82
8.86
6.95
5.15
3.41
1.6
-0.45
-2.83
-5.59
-8.72
-12.17
-15.81
-19.4
-22.56
-24.85
-25.94
-25.68
-24.22
-21.9
-19.16
-16.36
-13.73
-11.36
-9.32
-7.69
-6.57
-6.02
-5.93
-6.03
-6.03
-5.69
-4.99
-4.05
-2.99
-1.84
-0.51
1.12
2.99
4.86
6.36
7.16
7.13
6.44
5.36
4.14
2.96
1.85
0.91
0.3
0.21
0.77
1.87
3.12
4.01
4.09
3.17
1.36
-0.98
-3.49
-5.9
-8.09
-10.03
-11.65
-12.83
-13.37
-13.11
-12.03
-10.2
-7.78
-4.88
-1.6
1.98
5.73
9.47
12.97
16.0
18.37
20.01
20.91
21.2
21.05
20.7
20.35
20.17
20.22
20.47
20.77
20.97
20.94
20.65
20.11
19.32
18.29
16.96
15.3
13.32
11.09
8.78
6.53
4.45
2.49
0.56
-1.49
-3.73
-6.18
-8.85
-11.75
-14.99
-18.63
-22.69
-27.05
-31.44
-35.44
-38.64
-40.68
-41.34
-40.59
-38.52
-35.39
-31.52
-27.28
-23.02
-19.0
-15.37
-12.21
-9.54
-7.35
-5.62
-4.31
-3.37
-2.72
-2.22
-1.68
-0.88
0.33
2.04
4.18
6.54
8.84
10.81
12.3
13.36
14.15
14.81
15.42
15.95
16.29
16.33
15.96
15.11
13.7
11.71
9.24
6.5
3.8
1.41
-0.55
-2.16
-3.67
-5.34
-7.29
-9.52
-11.88
-14.17
-16.19
-17.73
-18.53
-18.38
-17.18
-15.09
-12.48
-9.88
-7.82
-6.61
-6.27
-6.61
-7.31
-8.03
-8.52
-8.63
-8.32
-7.55
-6.39
-4.89
-3.14
-1.22
0.76
2.7
4.45
5.85
6.71
6.85
6.23
4.91
3.08
1.0
-1.12
-3.16
-5.06
-6.83
-8.43
-9.78
-10.77
-11.28
-11.27
-10.82
-10.08
-9.23
-8.5
-8.08
-8.17
-8.9
-10.3
-12.22
-14.31
-16.05
-16.91
-16.5
-14.73
-11.86
-8.37
-4.77
-1.44
1.46
3.93
5.97
7.53
8.51
8.78
8.39
7.57
6.67
6.02
5.74
5.67
5.53
5.04
4.16
3.07
2.09
1.5
1.42
1.72
2.15
2.48
2.55
2.34
1.86
1.19
0.39
-0.53
-1.53
-2.61
-3.81
-5.19
-6.8
-8.64
-10.66
-12.82
-15.13
-17.63
-20.39
-23.26
-25.97
-28.0
-28.86
-28.25
-26.2
-23.11
-19.5
-15.83
-12.34
-8.96
-5.55
-2.04
1.44
4.58
7.04
8.66
9.46
9.72
9.73
9.74
9.84
9.98
10.11
10.19
10.26
10.36
10.51
10.7
10.86
10.91
10.8
10.47
9.86
8.92
7.6
5.93
3.96
1.81
-0.41
-2.63
-4.79
-6.85
-8.75
-10.42
-11.91
-13.39
-15.15
-17.44
-20.28
-23.35
-26.02
-27.58
-27.5
-25.64
-22.28
-17.96
-13.2
-8.42
-3.84
0.43
4.35
7.86
10.84
13.19
14.79
15.61
15.71
15.31
14.66
14.01
13.55
13.29
13.15
13.01
12.82
12.61
12.41
12.24
12.04
11.72
11.25
10.62
9.83
8.84
7.58
6.02
4.23
2.39
0.7
-0.79
-2.23
-3.89
-6.09
-8.93
-12.23
-15.64
-18.75
-21.23
-22.87
-23.53
-23.08
-21.38
-18.39
-14.22
-9.14
-3.59
1.96
7.11
11.6
15.36
18.35
20.63
22.23
23.16
23.45
23.16
22.43
21.54
20.75
20.3
20.27
20.55
20.91
21.14
21.06
20.61
19.85
18.86
17.75
16.66
15.7
14.9
14.2
13.4
12.28
10.65
8.45
5.81
2.93
0.06
-2.65
-5.17
-7.57
-10.05
-12.83
-16.12
-20.0
-24.3
-28.6
-32.22
-34.42
-34.62
-32.6
-28.58
-23.11
-16.88
-10.56
-4.63
0.69
5.34
9.39
12.87
15.71
17.78
18.98
19.35
19.11
18.62
18.26
18.29
18.74
19.5
20.45
21.5
22.66
23.89
24.98
25.64
25.56
24.61
22.93
20.84
18.67
16.55
14.42
12.12
9.56
6.86
4.27
2.02
0.17
-1.43
-3.07
-5.07
-7.58
-10.6
-13.88
-17.02
-19.49
-20.77
-20.49
-18.58
-15.27
-11.01
-6.33
-1.64
2.79
6.84
10.46
13.58
16.18
18.26
19.85
20.99
21.74
22.11
22.13
21.88
21.46
20.99
20.56
20.26
20.17
20.34
20.77
21.3
21.68
21.62
20.94
19.62
17.81
15.75
13.62
11.53
9.47
7.43
5.38
3.29
1.1
-1.25
-3.73
-6.21
-8.53
-10.59
-12.46
-14.37
-16.56
-19.1
-21.84
-24.41
-26.33
-27.19
-26.71
-24.82
-21.64
-17.48
-12.77
-7.96
-3.43
0.59
4.02
6.87
9.17
10.9
12.01
12.54
12.66
12.67
12.8
13.22
13.88
14.62
15.25
15.64
15.72
15.58
15.34
15.16
15.15
15.25
15.3
15.07
14.4
13.32
12.05
10.89
10.01
9.33
8.55
7.36
5.62
3.53
1.46
-0.24
-1.45
-2.37
-3.38
-4.89
-7.08
-9.88
-13.03
-16.18
-18.99
-21.19
-22.55
-22.9
-22.12
-20.17
-17.21
-13.52
-9.57
-5.82
-2.6
0.0
2.15
4.13
6.15
8.18
9.91
11.01
11.25
10.76
9.9
9.16
8.84
8.96
9.31
9.62
9.71
9.58
9.28
8.88
8.36
7.66
6.75
5.67
4.54
3.44
2.41
1.41
0.34
-0.87
-2.23
-3.73
-5.29
-6.85
-8.36
-9.83
-11.29
-12.79
-14.37
-16.02
-17.65
-19.07
-20.04
-20.35
-19.86
-18.55
-16.51
-13.88
-10.82
-7.5
-4.13
-0.93
1.87
4.14
5.83
7.02
7.87
8.53
9.09
9.54
9.86
10.0
10.0
9.91
9.79
9.64
9.47
9.29
9.12
9.01
8.93
8.8
8.5
7.83
6.72
5.17
3.3
1.31
-0.58
-2.23
-3.6
-4.69
-5.56
-6.2
-6.62
-6.83
-6.88
-6.96
-7.28
-8.07
-9.45
-11.39
-13.76
-16.38
-19.02
-21.44
-23.36
-24.54
-24.77
-24.07
-22.66
-20.99
-19.51
-18.49
-17.95
-17.65
-17.26
-16.6
-15.65
-14.56
-13.51
-12.57
-11.69
-10.69
-9.45
-7.88
-6.04
-3.98
-1.75
0.6
3.1
5.65
8.12
10.28
11.9
12.78
12.93
12.57
12.13
12.06
12.64
13.84
15.29
16.46
16.87
16.24
14.63
12.35
9.79
7.27
4.93
2.66
0.31
-2.27
-5.0
-7.55
-9.46
-10.34
-10.02
-8.67
-6.71
-4.55
-2.44
-0.42
1.59
3.61
5.52
7.05
7.9
7.97
7.35
6.38
5.42
4.74
4.42
4.46
4.8
5.47
6.5
7.9
9.53
11.06
12.12
12.4
11.85
10.73
9.43
8.33
7.55
7.01
6.46
5.72
4.79
3.84
3.03
2.42
1.83
0.98
-0.37
-2.3
-4.67
-7.28
-10.0
-12.84
-15.87
-19.06
-22.16
-24.68
-26.06
-25.9
-24.16
-21.25
-17.8
-14.54
-11.94
-10.19
-9.15
-8.61
-8.42
-8.71
-9.81
-12.05
-15.49
-19.82
-24.42
-28.67
-32.23
-35.18
-37.85
-40.62
-43.66
-46.91
-50.28
-53.7
-57.22
-60.89
-64.72
-68.72
-73.05
-78.08
-84.26
-91.79
-100.32
-108.93
-116.4
-121.81
-124.83
-125.91
-125.92
-125.78
-126.08
-126.96
-128.07
-128.71
-127.95
-124.97
-119.26
-110.98
-100.98
-90.5
-80.65
-71.86
-63.59
-54.51
-43.1
-28.38
-10.38
9.89
30.74
50.48
67.92
82.59
94.66
104.59
112.79
119.41
124.26
126.85
126.65
123.17
116.26
106.24
94.03
81.11
69.21
59.71
53.08
48.69
45.2
41.45
37.31
33.99
33.4
36.98
44.47
53.81
61.94
66.39
66.53
63.7
60.27
58.2
58.18
59.72
61.98
64.58
67.81
72.17
77.67
83.52
88.39
91.18
91.46
89.61
86.38
82.4
77.88
72.66
66.57
59.74
52.76
46.47
41.63
38.54
36.93
36.13
35.43
34.52
33.7
33.74
35.51
39.52
45.65
53.11
60.67
67.0
71.08
72.37
70.91
67.14
61.73
55.35
48.54
41.72
35.35
29.92
25.89
23.52
22.7
22.92
23.4
23.3
21.8
18.23
12.13
3.43
-7.35
-19.1
-30.36
-39.85
-47.03
-52.26
-56.5
-60.76
-65.51
-70.42
-74.7
-77.6
-78.92
-79.0
-78.48
-77.81
-76.99
-75.7
-73.6
-70.65
-67.12
-63.42
-59.86
-56.52
-53.3
-50.13
-46.99
-43.84
-40.58
-37.01
-32.95
-28.44
-23.71
-19.05
-14.51
-9.79
-4.31
2.39
10.45
19.51
28.9
37.98
46.34
53.91
60.85
67.36
73.56
79.43
84.74
88.99
91.47
91.33
87.83
80.61
69.83
56.15
40.49
23.8
6.73
-10.28
-26.96
-42.95
-57.68
-70.42
-80.48
-87.45
-91.42
-92.99
-92.96
-92.06
-90.64
-88.6
-85.41
-80.36
-72.82
-62.55
-49.82
-35.51
-20.94
-7.52
3.7
12.33
18.75
23.86
28.73
34.25
40.92
48.88
57.79
66.83
74.63
79.59
80.41
76.77
69.56
60.69
52.13
44.97
38.89
32.43
23.99
12.87
0.0
-12.41
-21.78
-26.32
-25.75
-21.27
-14.86
-8.43
-3.17
0.59
3.08
4.59
5.14
4.53
2.68
-0.07
-2.86
-4.58
-4.45
-2.39
0.85
4.09
6.2
6.61
5.41
3.18
0.57
-2.01
-4.56
-7.36
-10.73
-14.82
-19.51
-24.42
-29.1
-33.16
-36.35
-38.6
-40.01
-40.79
-41.31
-42.09
-43.7
-46.52
-50.42
-54.64
-57.89
-58.83
-56.66
-51.45
-44.14
-36.03
-28.26
-21.38
-15.33
-9.77
-4.39
0.85
5.77
10.24
14.35
18.42
22.86
27.99
33.84
40.16
46.49
52.34
57.31
61.09
63.5
64.36
63.54
61.02
56.87
51.39
45.05
38.38
31.91
26.01
20.88
16.51
12.78
9.47
6.35
3.2
-0.18
-3.98
-8.31
-13.17
-18.44
-23.83
-29.06
-33.87
-38.07
-41.54
-44.15
-45.83
-46.64
-46.86
-46.95
-47.45
-48.62
-50.28
-51.7
-51.97
-50.32
-46.54
-40.96
-34.34
-27.32
-20.2
-12.85
-4.94
3.69
12.84
21.88
30.05
36.75
41.72
45.08
47.21
48.5
49.27
49.71
49.89
49.8
49.28
48.13
46.04
42.83
38.39
32.76
26.1
18.63
10.66
2.56
-5.28
-12.49
-18.85
-24.24
-28.69
-32.24
-34.93
-36.85
-38.19
-39.25
-40.33
-41.64
-43.05
-44.21
-44.6
-43.9
-42.01
-39.12
-35.56
-31.6
-27.43
-23.1
-18.62
-13.95
-8.96
-3.47
2.77
9.83
17.52
25.35
32.7
39.03
44.09
47.96
50.88
53.1
54.67
55.45
55.2
53.72
50.99
47.2
42.59
37.42
31.86
25.97
19.81
13.5
7.22
1.19
-4.48
-9.83
-14.97
-20.02
-24.98
-29.77
-34.29
-38.62
-42.99
-47.59
-52.36
-56.88
-60.46
-62.6
-63.21
-62.73
-61.84
-61.02
-60.28
-59.17
-57.04
-53.42
-48.25
-41.74
-34.19
-25.79
-16.63
-6.88
3.08
12.66
21.26
28.51
34.35
38.98
42.7
45.68
47.93
49.46
50.4
51.06
51.8
52.84
54.08
55.14
55.51
54.81
52.87
49.78
45.62
40.44
34.16
26.76
18.37
9.31
0.0
-9.17
-17.98
-26.24
-33.72
-39.99
-44.57
-47.05
-47.41
-46.09
-43.89
-41.76
-40.43
-40.24
-41.17
-42.89
-44.98
-46.96
-48.33
-48.51
-46.89
-43.02
-36.82
-28.65
-19.27
-9.63
-0.54
7.39
13.9
18.9
22.44
24.68
26.0
26.9
28.02
29.83
32.49
35.73
38.99
41.66
43.33
43.89
43.51
42.48
41.11
39.6
38.04
36.37
34.5
32.32
29.71
26.56
22.73
18.1
12.55
6.09
-1.11
-8.73
-16.36
-23.62
-30.3
-36.41
-42.03
-47.23
-51.86
-55.59
-58.04
-58.99
-58.46
-56.78
-54.39
-51.71
-49.06
-46.54
-44.04
-41.25
-37.7
-32.81
-26.19
-17.83
-8.29
1.35
9.84
16.19
20.11
22.06
23.12
24.52
27.22
31.74
38.06
45.81
54.41
63.12
71.23
78.13
83.54
87.47
90.09
91.44
91.22
88.73
83.27
74.65
63.6
51.68
40.87
