7.06
7.81
8.59
9.37
10.14
10.84
11.39
11.69
11.73
11.54
11.26
10.99
10.76
10.51
10.1
9.43
8.45
7.28
6.06
4.95
4.04
3.25
2.38
1.21
-0.42
-2.51
-4.9
-7.3
-9.46
-11.18
-12.38
-13.04
-13.16
-12.67
-11.56
-9.83
-7.65
-5.29
-3.03
-1.12
0.35
1.46
2.34
3.15
3.97
4.88
5.87
6.88
7.83
8.58
9.04
9.25
9.36
9.61
10.19
11.1
12.19
13.11
13.62
13.62
13.19
12.5
11.72
10.89
9.99
9.01
7.94
6.82
5.65
4.38
2.96
1.35
-0.4
-2.22
-4.01
-5.78
-7.58
-9.45
-11.38
-13.19
-14.6
-15.34
-15.25
-14.32
-12.76
-10.82
-8.75
-6.68
-4.65
-2.66
-0.73
1.08
2.68
4.0
5.06
5.92
6.68
7.39
8.08
8.71
9.26
9.7
10.03
10.26
10.44
10.58
10.72
10.83
10.85
10.69
10.28
9.61
8.78
7.91
7.13
6.49
5.91
5.24
4.35
3.16
1.69
0.03
-1.73
-3.55
-5.45
-7.46
-9.59
-11.75
-13.84
-15.72
-17.31
-18.6
-19.6
-20.31
-20.7
-20.71
-20.32
-19.51
-18.32
-16.84
-15.15
-13.39
-11.71
-10.31
-9.34
-8.91
-9.02
-9.55
-10.28
-10.99
-11.55
-11.92
-12.21
-12.61
-13.3
-14.38
-15.84
-17.55
-19.32
-21.01
-22.52
-23.88
-25.17
-26.49
-27.87
-29.21
-30.31
-30.83
-30.49
-29.04
-26.42
-22.75
-18.32
-13.51
-8.69
-4.14
0.02
3.79
7.21
10.27
12.87
14.82
16.05
16.73
17.25
18.18
19.93
22.6
25.89
29.33
32.45
35.05
37.11
38.68
39.74
40.14
39.82
38.92
37.83
37.01
36.76
36.97
37.27
37.23
36.65
35.7
34.7
33.92
33.38
32.86
32.08
30.9
29.31
27.32
24.73
21.1
16.03
9.43
1.78
-6.03
-13.05
-18.7
-23.06
-26.6
-29.81
-32.86
-35.46
-37.28
-38.14
-38.3
-38.16
-38.04
-37.79
-36.91
-34.87
-31.49
-27.08
-22.29
-17.75
-13.78
-10.28
-7.0
-3.77
-0.76
1.67
3.12
3.45
2.88
1.86
0.92
0.37
0.28
0.48
0.84
1.31
1.99
2.96
4.09
5.06
5.49
5.12
4.05
2.63
1.3
0.31
-0.33
-0.82
-1.3
-1.7
-1.82
-1.55
-0.99
-0.52
-0.59
-1.42
-2.88
-4.52
-5.83
-6.5
-6.56
-6.34
-6.27
-6.6
-7.3
-8.08
-8.55
-8.41
-7.58
-6.22
-4.58
-2.91
-1.28
0.36
2.15
4.16
6.26
8.13
9.44
9.96
9.71
8.92
7.9
6.89
5.96
5.09
4.23
3.43
2.83
2.56
2.69
3.13
3.66
4.05
4.13
3.88
3.36
2.69
1.94
1.12
0.24
-0.69
-1.62
-2.45
-3.08
-3.46
-3.66
-3.78
-3.98
-4.35
-4.92
-5.71
-6.69
-7.86
-9.15
-10.39
-11.32
-11.62
-11.09
-9.72
-7.7
-5.3
-2.8
-0.32
2.08
4.39
6.54
8.4
9.82
10.72
11.16
11.3
11.33
11.38
11.5
11.61
11.63
11.49
11.21
10.86
10.54
10.32
10.26
10.33
10.48
10.65
10.75
10.73
10.56
10.29
10.01
9.72
9.37
8.82
7.95
6.71
5.17
3.43
1.61
-0.33
-2.44
-4.73
-7.08
-9.22
-10.85
-11.81
-12.13
-12.0
-11.57
-10.95
-10.09
-8.87
-7.24
-5.26
-3.1
-1.0
0.82
2.21
3.15
3.66
3.85
3.84
3.76
3.72
3.79
3.98
4.26
4.55
4.76
4.83
4.72
4.49
4.23
4.03
3.96
3.99
4.04
3.98
3.75
3.32
2.72
2.01
1.22
0.37
-0.59
-1.67
-2.93
-4.38
-5.96
-7.65
-9.35
-10.97
-12.38
-13.48
-14.13
-14.23
-13.69
-12.51
-10.78
-8.71
-6.54
-4.5
-2.64
-0.94
0.66
2.2
3.6
4.73
5.45
5.76
5.78
5.7
5.69
5.86
6.2
6.65
7.12
7.54
7.84
8.04
8.16
8.24
8.28
8.21
7.92
7.33
6.4
5.21
3.94
2.73
1.65
0.69
-0.27
-1.34
-2.6
-4.06
-5.73
-7.59
-9.62
-11.66
-13.5
-14.84
-15.41
-15.03
-13.68
-11.52
-8.83
-5.97
-3.23
-0.82
1.25
3.1
4.93
6.9
8.98
10.94
12.43
13.12
12.87
11.85
10.45
9.18
8.52
8.69
9.63
10.99
12.29
13.1
13.16
12.5
11.31
9.87
8.34
6.71
4.85
2.6
-0.1
-3.1
-6.16
-9.01
-11.48
-13.54
-15.26
-16.75
-18.15
-19.56
-21.11
-22.86
-24.71
-26.28
-26.99
-26.28
-23.97
-20.38
-16.15
-11.78
-7.33
-2.41
3.43
10.15
16.94
22.55
25.98
27.04
26.46
25.47
25.0
25.28
25.79
25.76
24.65
22.37
19.17
15.32
10.97
6.17
1.07
-4.0
-8.68
-12.87
-16.91
-21.44
-27.15
-34.44
-43.13
-52.54
-61.66
-69.5
-75.24
-78.35
-78.55
-75.89
-70.87
-64.46
-57.9
-52.14
-47.41
-42.95
-37.51
-30.09
-20.65
-10.24
-0.59
6.89
11.77
14.68
16.72
18.75
20.9
22.85
24.31
25.44
26.67
28.19
29.54
29.76
28.05
24.48
20.17
16.7
15.16
15.48
16.46
16.63
15.14
12.31
9.26
7.09
6.19
6.09
5.94
5.17
3.86
2.63
2.17
2.82
4.43
6.67
9.26
12.27
15.95
20.54
25.96
31.89
37.81
43.31
48.2
52.45
56.06
58.95
60.98
62.02
62.18
61.81
61.38
61.24
61.39
61.52
61.16
59.99
58.04
55.61
53.06
50.57
48.04
45.23
41.96
38.32
34.64
31.28
28.45
26.04
23.76
21.33
18.62
15.79
13.17
11.15
9.98
9.74
10.22
11.02
11.63
11.64
10.8
9.02
6.26
2.34
-2.99
-9.81
-17.73
-25.84
-32.92
-38.01
-40.84
-42.0
-42.49
-43.18
-44.4
-45.97
-47.57
-49.25
-51.47
-54.77
-59.28
-64.45
-69.23
-72.68
-74.36
-74.48
-73.66
-72.45
-71.1
-69.5
-67.41
-64.71
-61.56
-58.25
-55.02
-51.81
-48.39
-44.38
-39.51
-33.71
-27.17
-20.23
-13.31
-6.68
-0.41
5.6
11.5
17.25
22.63
27.3
31.0
33.71
35.57
36.7
37.05
36.38
34.43
31.23
27.16
22.88
18.87
15.12
10.94
5.33
-2.57
-12.95
-25.11
-37.6
-48.84
-57.61
-63.44
-66.53
-67.5
-67.02
-65.64
-63.75
-61.71
-59.86
-58.43
-57.27
-55.73
-52.83
-47.75
-40.36
-31.44
-22.36
-14.43
-8.26
-3.56
0.57
5.01
10.13
15.66
20.92
25.2
28.15
29.86
30.67
30.96
30.94
30.62
29.75
28.03
25.27
21.61
17.61
14.13
11.98
11.54
12.62
14.58
16.74
18.81
20.98
23.7
27.24
31.43
35.64
39.13
41.45
42.75
43.66
45.0
47.28
50.5
54.13
57.42
59.67
60.51
59.89
58.0
55.12
51.47
47.19
42.32
36.85
30.84
24.38
17.62
10.78
4.03
-2.46
-8.54
-14.08
-18.88
-22.71
-25.36
-26.71
-26.82
-25.85
-24.07
-21.75
-19.08
-16.22
-13.3
-10.54
-8.15
-6.35
-5.23
-4.74
-4.72
-4.88
-5.04
-5.1
-5.09
-5.15
-5.4
-5.91
-6.58
-7.25
-7.79
-8.2
-8.62
-9.33
-10.59
-12.54
-15.13
-18.16
-21.33
-24.29
-26.72
-28.31
-28.79
-28.03
-26.02
-22.93
-19.03
-14.6
-9.87
-5.04
-0.29
4.13
7.99
11.12
13.5
15.27
16.62
17.7
18.53
18.96
18.84
18.1
16.87
15.43
14.11
13.08
12.33
11.62
10.61
9.0
6.67
3.68
0.29
-3.26
-6.74
-9.96
-12.78
-14.97
-16.3
-16.57
-15.7
-13.82
-11.21
-8.22
-5.14
-2.15
0.63
3.11
5.16
6.64
7.43
7.51
6.99
6.06
4.88
3.56
2.16
0.69
-0.82
-2.33
-3.77
-5.1
-6.29
-7.32
-8.16
-8.81
-9.34
-9.87
-10.56
-11.5
-12.67
-13.92
-15.09
-16.0
-16.5
-16.45
-15.69
-14.05
-11.4
-7.76
-3.3
1.7
6.9
12.0
16.72
20.82
24.07
26.33
27.53
27.82
27.46
26.76
26.01
25.37
24.91
24.47
23.77
22.38
19.89
16.12
11.2
5.67
0.28
-4.2
-7.3
-8.87
-9.1
-8.4
-7.21
-5.97
-5.05
-4.71
-4.99
-5.66
-6.24
-6.14
-4.84
-2.03
2.37
8.3
15.55
23.76
32.44
40.86
48.2
53.7
56.87
57.5
55.75
52.01
46.77
40.58
33.99
27.48
21.39
15.87
10.9
6.36
2.14
-1.8
-5.45
-8.72
-11.6
-14.13
-16.43
-18.69
-21.02
-23.47
-25.91
-28.15
-30.03
-31.57
-32.95
-34.46
-36.25
-38.21
-39.88
-40.67
-40.11
-38.07
-34.8
-30.79
-26.45
-22.05
-17.7
-13.47
-9.52
-6.15
-3.64
-2.13
-1.55
-1.64
-2.11
-2.74
-3.4
-3.9
-3.99
-3.29
-1.46
1.63
5.74
10.31
14.55
17.76
19.51
19.78
18.93
17.51
16.01
14.64
13.28
11.5
8.86
5.07
0.17
-5.44
-11.11
-16.13
-19.83
-21.7
-21.5
-19.28
-15.4
-10.5
-5.23
-0.15
4.51
8.83
13.02
17.23
21.39
25.25
28.5
30.94
32.53
33.27
33.17
32.16
30.16
27.26
23.76
20.1
16.71
13.83
11.38
9.09
6.63
3.77
0.51
-2.97
-6.44
-9.7
-12.66
-15.39
-18.05
-20.83
-23.89
-27.27
-30.84
-34.3
-37.15
-38.89
-39.09
-37.6
-34.51
-30.2
-25.15
-19.79
-14.47
-9.4
-4.77
-0.78
2.35
4.52
5.78
6.36
6.6
6.77
6.99
7.22
7.3
7.18
6.89
6.62
6.54
6.68
6.92
7.03
6.78
6.06
4.9
3.46
1.93
0.4
-1.08
-2.61
-4.32
-6.33
-8.72
-11.51
-14.64
-17.97
-21.23
-24.05
-25.97
-26.56
-25.56
-22.92
-18.9
-13.99
-8.78
-3.78
0.72
4.61
7.91
10.63
12.7
14.01
14.49
14.2
13.41
12.46
11.64
11.11
10.81
10.61
10.37
10.01
9.57
9.09
8.56
7.94
7.13
6.1
4.86
3.46
1.96
0.35
-1.4
-3.4
-5.7
-8.37
-11.4
-14.66
-17.91
-20.76
-22.76
-23.46
-22.62
-20.2
-16.43
-11.76
-6.66
-1.62
3.06
7.15
10.54
13.15
14.95
15.96
16.3
16.15
15.7
15.11
14.41
13.56
12.47
11.12
9.62
8.18
7.03
6.28
5.85
5.52
4.99
4.06
2.66
0.89
-1.07
-3.04
-4.97
-6.89
-8.94
-11.27
-13.99
-17.11
-20.45
-23.67
-26.27
-27.69
-27.51
-25.55
-21.98
-17.23
-11.87
-6.43
-1.27
3.39
7.41
10.7
13.13
14.67
15.33
15.29
14.81
14.17
13.61
13.2
12.93
12.66
12.31
11.82
11.21
10.52
9.81
9.08
8.28
7.37
6.29
5.03
3.59
1.99
0.19
-1.8
-3.99
-6.38
-8.98
-11.82
-14.93
-18.18
-21.28
-23.7
-24.81
-24.04
-21.12
-16.15
-9.66
-2.41
4.77
11.25
16.65
20.99
24.5
27.51
30.3
32.9
35.17
36.84
37.76
37.96
37.8
37.81
38.55
40.37
43.24
46.74
50.24
53.13
55.11
56.31
57.21
58.42
60.49
63.69
67.94
72.75
77.17
79.78
79.05
73.82
63.97
50.76
36.53
23.99
15.11
10.39
8.67
7.77
5.44
0.29
-7.75
-17.65
-27.79
-36.71
-43.56
-48.29
-51.4
-53.63
-55.51
-57.17
-58.43
-59.02
-58.91
-58.42
-58.06
-58.26
-59.1
-60.33
-61.48
-62.21
-62.52
-62.74
-63.34
-64.62
-66.55
-68.75
-70.74
-72.07
-72.55
-72.22
-71.28
-69.93
-68.26
-66.29
-63.93
-61.13
-57.87
-54.18
-50.06
-45.42
-40.05
-33.69
-26.11
-17.25
-7.27
3.48
14.59
25.67
36.47
46.76
56.31
64.82
71.99
77.57
81.49
83.95
85.3
86.0
86.43
86.79
86.95
86.51
84.83
81.28
75.49
67.42
57.53
46.56
35.3
24.4
14.23
4.89
-3.68
-11.6
-18.96
-25.86
-32.33
-38.37
-43.86
-48.64
-52.52
-55.43
-57.49
-58.92
-59.92
-60.48
-60.34
-59.08
-56.38
-52.16
-46.74
-40.65
-34.44
-28.49
-22.93
-17.69
-12.72
-8.14
-4.14
-0.93
1.53
3.52
5.51
7.87
10.72
13.84
16.78
19.11
20.66
21.56
22.19
22.89
23.84
24.91
25.77
25.98
25.26
23.51
20.88
17.68
14.21
10.72
7.29
3.89
0.39
-3.34
-7.38
-11.71
-16.16
-20.44
-24.11
-26.57
-27.26
-25.78
-22.15
-16.8
-10.49
-3.99
2.12
7.66
12.67
17.26
21.39
24.87
27.49
29.23
30.34
31.31
32.58
34.32
36.32
38.2
39.56
40.29
40.52
40.52
40.5
40.46
40.23
39.61
38.51
37.07
35.53
34.15
33.05
32.21
31.54
30.99
30.49
29.84
28.59
26.01
21.28
13.78
3.39
-9.4
-23.65
-38.27
-52.29
-65.07
-76.13
-85.01
-91.19
-94.14
-93.54
-89.5
-82.55
-73.56
-63.53
-53.42
-44.01
-35.81
-29.03
-23.6
-19.21
-15.44
-11.94
-8.56
-5.33
-2.38
0.18
2.37
4.25
5.82
6.95
7.45
7.22
6.28
4.87
3.25
1.57
-0.2
-2.24
-4.73
-7.74
-11.12
-14.66
-18.14
-21.49
-24.82
-28.35
-32.35
-37.01
-42.39
-48.38
-54.65
-60.77
-66.18
-70.42
-73.15
-74.27
-73.9
-72.37
-70.14
-67.66
-65.24
-62.96
-60.65
-58.03
-55.01
-51.81
-49.05
-47.41
-47.23
-48.22
-49.46
-49.87
-48.75
-46.22
-43.08
-40.34
-38.59
-37.65
-36.72
-34.83
-31.4
-26.45
-20.46
-14.03
-7.6
-1.36
4.62
10.33
15.87
21.53
27.73
34.91
43.13
52.04
60.91
68.97
75.71
80.99
84.92
87.68
89.38
90.21
90.62
91.25
92.82
95.64
99.35
103.04
105.65
106.46
105.44
103.17
100.34
97.34
94.01
89.72
83.88
76.35
67.67
58.84
50.89
44.37
39.23
34.95
30.9
26.78
22.69
18.97
15.92
13.5
11.38
9.09
6.35
3.24
0.19
-2.23
-3.64
-4.05
-3.89
-3.83
-4.38
-5.71
-7.65
-9.81
-11.81
-13.4
-14.49
-14.95
-14.63
-13.38
-11.2
-8.33
-5.21
-2.31
0.1
2.1
3.95
5.89
7.97
9.94
11.39
11.94
11.42
9.94
7.82
5.47
3.25
1.4
-0.01
-1.04
-1.81
-2.46
-3.07
-3.66
-4.23
-4.75
-5.26
-5.82
-6.51
-7.33
-8.2
-8.99
-9.54
-9.79
-9.82
-9.8
-9.97
-10.5
-11.38
-12.49
-13.61
-14.52
-15.15
-15.47
-15.49
-15.14
-14.28
-12.73
-10.35
-7.15
-3.29
0.97
5.24
9.14
12.33
14.57
15.81
16.19
15.95
15.41
14.87
14.49
14.4
14.67
15.34
16.36
17.55
18.59
19.12
18.85
17.7
15.82
13.46
10.85
8.12
5.31
2.42
-0.46
-3.21
-5.7
-7.89
-9.83
-11.63
-13.42
-15.27
-17.2
-19.18
-21.09
-22.74
-23.85
-24.14
-23.4
-21.54
-18.59
-14.68
-10.08
-5.15
-0.42
3.54
6.29
7.63
7.79
7.27
6.64
6.3
6.36
6.61
6.73
6.51
5.92
5.14
4.4
3.87
3.6
3.46
3.28
2.96
2.54
2.15
1.86
1.61
1.17
0.28
-1.23
-3.28
-5.55
-7.72
-9.56
-11.13
-12.63
-14.31
-16.26
-18.35
-20.29
-21.73
-22.47
-22.39
-21.53
-20.02
-18.03
-15.77
-13.48
-11.39
-9.71
-8.6
-8.22
-8.63
-9.86
-11.89
-14.54
-17.57
-20.63
-23.35
-25.44
-26.75
-27.3
-27.23
-26.77
-26.1
-25.31
-24.36
-23.18
-21.79
-20.41
-19.43
-19.29
-20.24
-22.26
-24.99
-27.9
-30.51
-32.47
-33.64
-34.05
-33.81
-33.06
-31.87
-30.16
-27.67
-24.06
-19.0
-12.42
-4.56
3.94
12.12
18.85
23.1
24.28
22.6
19.23
16.13
15.49
18.9
26.81
38.28
51.45
64.25
75.04
82.91
87.6
89.19
87.89
84.04
78.19
71.14
63.78
56.86
50.78
45.51
40.77
36.22
31.64
26.98
22.39
18.07
14.23
10.91
7.94
4.93
1.4
-3.0
-8.32
-14.13
-19.6
-23.79
-25.9
-25.58
-23.03
-18.85
-13.84
-8.78
-4.22
-0.49
2.24
3.92
4.56
4.25
3.15
1.53
-0.34
-2.14
-3.69
-4.94
-5.95
-6.85
-7.72
-8.6
-9.41
-10.1
-10.6
-10.89
-11.04
-11.13
-11.29
-11.6
-12.15
-12.99
-14.12
-15.5
-17.12
-19.0
-21.23
-23.89
-26.99
-30.38
-33.68
-36.39
-38.03
-38.31
-37.16
-34.72
-31.31
-27.3
-23.04
-18.91
-15.21
-12.23
-10.12
-8.87
-8.28
-8.04
-7.88
-7.61
-7.2
-6.7
-6.15
-5.51
-4.7
-3.63
-2.37
-1.08
-0.06
0.48
0.4
-0.26
-1.34
-2.7
-4.2
-5.7
-7.12
-8.41
-9.54
-10.62
-11.84
-13.4
-15.48
-18.07
-20.96
-23.89
-26.52
-28.38
-28.97
-27.91
-25.02
-20.56
-15.04
-9.2
-3.96
-0.03
2.36
3.47
3.88
4.16
4.64
5.38
6.21
6.52
5.79
3.96
1.62
-0.21
-0.44
1.35
4.81
8.81
11.21
9.93
3.84
-6.7
-19.8
-32.38
-41.39
-44.27
-36.38
-16.12
13.63
45.59
70.96
83.04
79.57
62.08
35.0
4.1
-25.64
-50.77
-69.5
-81.34
-88.58
-91.42
-89.96
-84.58
-76.09
-66.19
-56.86
-49.48
-44.33
-40.74
-37.24
-32.82
-27.12
-20.39
-13.19
-6.46
-0.76
3.87
7.79
11.58
15.33
18.83
21.75
23.74
24.56
24.26
23.13
21.57
20.0
18.53
17.0
15.26
13.18
10.82
8.54
6.8
6.18
7.06
9.39
12.85
17.03
21.54
25.94
29.82
32.7
34.37
34.95
34.68
33.87
32.75
31.28
29.22
26.4
22.7
18.54
14.47
10.8
7.47
4.41
1.49
-1.35
-4.02
-6.87
-9.8
-12.72
-15.81
-19.31
-22.73
-25.49
-27.28
-28.42
-30.78
-35.24
-41.78
-49.68
-57.31
-61.78
-60.8
-53.64
-41.35
-27.51
-13.7
0.2
15.07
32.12
53.32
79.85
111.85
148.23
184.97
219.64
250.56
276.24
285.58
270.9
230.9
172.42
119.32
78.74
50.93
34.19
22.44
13.3
7.11
4.3
4.33
5.49
3.6
-2.73
-12.8
-25.11
-37.49
-47.43
-53.51
-55.76
-55.57
-56.41
-59.55
-64.46
-69.74
-73.32
-73.14
-68.07
-58.15
-44.46
-29.65
-15.34
-2.44
8.45
17.21
24.16
29.79
34.61
38.99
42.54
45.14
46.8
47.51
47.33
46.3
44.26
40.95
36.15
29.7
21.97
13.68
5.45
-2.35
-9.81
-17.19
-24.62
-31.86
-38.48
-44.2
-49.19
-54.13
-60.01
-67.76
-77.63
-88.76
-99.08
-105.88
-106.65
-99.93
-85.97
-66.8
-45.73
-26.11
-10.04
2.35
12.25
21.14
29.77
37.73
43.8
46.44
45.0
40.39
35.07
31.45
30.86
32.89
35.85
37.52
35.63
28.73
16.7
1.03
-16.24
-32.57
-45.14
-51.01
-45.71
-28.04
-2.62
20.74
32.36
27.2
7.03
-21.59
-50.81
-74.74
-91.24
-100.84
-107.49
-111.0
-110.03
-103.73
-92.95
-79.91
-67.28
-57.48
-51.5
-48.62
-46.5
-43.26
-36.86
-27.6
-16.98
-6.82
1.19
6.22
8.55
9.64
10.95
13.48
17.22
21.46
25.07
26.85
26.1
23.08
19.11
15.58
13.41
12.54
12.41
12.32
12.0
11.63
11.67
12.43
13.57
14.25
13.54
11.13
7.51
3.71
0.75
-0.8
-0.99
-0.35
0.48
0.99
1.01
0.58
-0.14
-0.96
-1.74
-2.4
-2.84
-2.9
-2.4
-1.14
0.96
3.78
6.99
10.13
12.74
14.62
15.82
16.58
17.22
17.93
18.72
19.47
20.01
20.28
20.32
20.29
20.31
20.43
20.6
20.68
20.52
20.07
19.36
18.52
17.64
16.78
15.95
15.11
14.23
13.3
12.31
11.23
10.02
8.63
7.03
5.22
3.19
0.93
-1.57
-4.39
-7.57
-11.07
-14.7
-18.04
-20.6
-21.93
-21.84
-20.47
-18.3
-15.89
-13.69
-11.86
-10.33
-8.92
-7.52
-6.2
-5.08
-4.19
-3.41
-2.46
-1.1
0.72
2.82
4.85
6.56
7.89
9.05
10.31
11.85
13.57
15.22
16.48
17.2
17.46
17.47
17.48
17.6
17.8
17.94
17.91
17.66
17.15
16.37
15.24
13.66
11.53
8.89
5.85
2.62
-0.59
-3.57
-6.18
-8.27
-9.73
-10.45
-10.34
-9.4
-7.72
-5.48
-2.94
-0.37
1.98
3.97
5.49
6.52
7.06
7.17
6.94
6.5
5.97
5.46
5.04
4.77
4.69
4.8
5.09
5.48
5.86
6.13
6.21
6.08
5.79
5.44
5.12
4.87
4.67
4.41
3.97
3.23
2.18
0.84
-0.67
-2.24
-3.75
-5.15
-6.46
-7.75
-9.14
-10.73
-12.49
-14.28
-15.79
-16.62
-16.47
-15.19
-12.87
-9.81
-6.38
-2.94
0.24
3.06
5.49
7.57
9.27
10.54
11.3
11.51
11.26
10.72
10.14
9.76
9.66
9.82
10.1
10.32
10.34
10.06
9.47
8.63
7.63
6.6
5.66
4.87
4.22
3.62
2.92
1.95
0.63
-1.11
-3.18
-5.45
-7.7
-9.79
-11.61
-13.22
-14.78
-16.39
-18.12
-19.91
-21.72
-23.35
-24.61
-25.22
-25.01
-23.94
-22.04
-19.47
-16.5
-13.57
-10.95
-8.8
-7.1
-5.85
-5.11
-4.89
-5.18
-5.94
-7.27
-9.19
-11.63
-14.49
-17.79
-21.56
-25.45
-28.98
-31.73
-34.17
-36.79
-40.03
-44.05
-49.07
-55.24
-61.82
-67.77
-72.11
-75.57
-78.8
-82.38
-86.44
-91.37
-97.46
-103.49
-107.58
-107.86
-105.1
-99.85
-92.29
-81.6
-67.25
-48.99
-25.55
4.23
40.8
81.15
123.08
165.37
208.18
250.73
282.43
292.45
273.75
242.72
210.02
183.01
160.18
142.17
128.84
119.08
112.61
109.21
108.52
107.16
102.84
94.47
82.78
68.4
51.92
35.1
19.93
8.1
-1.55
-10.03
-18.12
-25.81
-33.38
-41.12
-48.32
-53.84
-56.58
-57.32
-56.97
-56.51
-56.49
-57.5
-59.83
-62.96
-65.85
-67.37
-67.36
-65.79
-62.85
-58.7
-53.69
-48.27
-42.73
-37.24
-31.91
-27.0
-22.67
-18.94
-15.73
-13.05
-10.95
-9.52
-8.77
-8.61
-8.84
-9.16
-9.3
-9.13
-8.66
-8.05
-7.44
-6.92
-6.51
-6.13
-5.73
-5.33
-5.02
-4.9
-5.02
-5.36
-5.85
-6.43
-7.07
-7.8
-8.67
-9.69
-10.88
-12.26
-13.85
-15.64
-17.64
-19.8
-22.04
-24.2
-26.01
-27.16
-27.34
-26.3
-24.04
-20.74
-16.77
-12.61
-8.65
-5.16
-2.24
0.12
1.99
3.44
4.5
5.23
5.68
5.9
5.96
5.87
5.65
5.31
4.87
4.42
4.12
4.06
4.33
4.84
5.43
5.87
5.99
5.65
4.82
3.54
1.92
0.13
-1.64
-3.13
-4.2
