48.42
52.93
53.49
50.86
46.15
40.56
34.96
29.81
25.19
21.01
17.24
14.08
11.92
11.09
11.61
12.96
14.36
15.03
14.56
13.03
10.87
8.65
6.62
4.65
2.28
-1.07
-5.73
-11.69
-18.46
-25.35
-31.48
-36.17
-39.12
-40.54
-41.14
-41.92
-43.91
-47.8
-53.72
-60.93
-68.04
-73.12
-74.2
-69.91
-59.79
-44.53
-25.67
-5.41
14.12
31.2
44.71
54.16
59.58
61.32
60.03
56.53
51.66
46.17
40.74
35.81
31.71
28.54
26.26
24.78
23.93
23.57
23.65
24.12
24.86
25.63
25.95
25.33
23.38
20.1
15.89
11.39
7.17
3.46
0.07
-3.54
-7.96
-13.52
-20.08
-27.08
-33.76
-39.54
-44.22
-48.08
-51.78
-56.01
-61.22
-67.1
-72.53
-75.82
-75.08
-68.92
-56.91
-39.97
-20.06
0.24
18.59
33.43
44.12
50.97
54.71
56.11
55.67
53.61
50.08
45.33
39.87
34.48
29.89
26.63
24.84
24.27
24.5
25.12
25.87
26.59
27.12
27.24
26.65
25.18
22.87
19.91
16.65
13.26
9.68
5.71
1.07
-4.32
-10.23
-16.15
-21.58
-26.11
-29.73
-32.7
-35.53
-38.83
-43.04
-48.32
-54.34
-60.25
-64.85
-66.75
-64.84
-58.52
-47.94
-33.92
-17.76
-0.96
15.13
29.33
40.82
49.0
53.65
54.95
53.49
50.16
46.01
41.98
38.54
35.72
33.06
30.11
26.68
23.09
20.09
18.55
18.98
21.1
23.9
25.91
25.95
23.6
19.34
14.42
10.15
7.34
5.85
4.73
2.77
-0.94
-6.46
-13.04
-19.4
-24.41
-27.59
-29.24
-30.32
-31.91
-34.89
-39.49
-45.33
-51.38
-56.43
-59.21
-58.66
-54.31
-46.27
-35.32
-22.59
-9.29
3.52
14.98
24.54
31.81
36.44
38.37
37.73
35.02
31.0
26.39
21.83
17.72
14.27
11.55
9.68
8.77
8.89
10.04
11.96
14.25
16.35
17.76
18.17
17.58
16.17
14.09
11.44
8.09
4.04
-0.57
-5.21
-9.23
-12.21
-14.21
-15.85
-17.93
-21.1
-25.35
-30.2
-34.93
-39.01
-42.4
-45.31
-47.85
-49.61
-49.65
-46.76
-39.99
-29.26
-15.53
-0.68
13.19
24.34
31.94
36.17
37.83
37.93
37.08
35.48
32.92
29.32
24.86
20.1
15.79
12.51
10.5
9.65
9.73
10.47
11.73
13.24
14.6
15.24
14.62
12.62
9.55
6.19
3.33
1.35
0.02
-1.41
-3.78
-7.49
-12.29
-17.39
-21.91
-25.23
-27.46
-29.24
-31.52
-35.21
-40.67
-47.57
-54.77
-60.61
-63.14
-60.93
-53.48
-41.57
-27.17
-12.64
-0.01
9.84
17.13
22.83
27.8
32.21
35.38
36.28
34.27
29.65
23.69
18.1
14.25
12.58
12.51
12.96
13.06
12.56
11.87
11.67
12.47
14.15
16.11
17.58
17.94
16.98
14.83
11.85
8.37
4.71
0.97
-2.77
-6.54
-10.39
-14.33
-18.41
-22.54
-26.67
-30.81
-35.13
-39.83
-44.99
-50.39
-55.29
-58.53
-58.87
-55.37
-47.78
-36.68
-23.35
-9.31
3.98
15.5
24.67
31.23
35.24
36.93
36.76
35.25
32.98
30.43
27.95
25.63
23.38
21.13
18.86
16.77
15.19
14.52
15.01
16.53
18.57
20.31
20.97
20.05
17.69
14.47
11.18
8.38
6.12
3.95
1.16
-2.75
-7.86
-13.61
-19.1
-23.44
-26.24
-27.79
-28.98
-30.97
-34.72
-40.43
-47.28
-53.55
-57.19
-56.5
-50.77
-40.46
-27.11
-12.79
0.6
11.78
20.35
26.52
30.83
33.73
35.39
35.68
34.41
31.56
27.42
22.67
18.11
14.5
12.31
11.58
12.04
13.21
14.52
15.55
16.05
16.07
15.86
15.72
15.77
15.81
15.34
13.67
10.29
5.22
-0.91
-7.08
-12.25
-15.81
-17.86
-19.12
-20.78
-23.83
-28.76
-35.29
-42.5
-49.04
-53.62
-55.32
-53.88
-49.5
-42.7
-34.02
-23.85
-12.43
-0.18
12.14
23.34
32.1
37.4
38.89
37.09
33.2
28.74
24.91
22.26
20.63
19.41
17.97
16.02
13.78
11.89
11.16
12.01
14.36
17.49
20.3
21.71
21.12
18.53
14.6
10.17
5.86
1.85
-2.11
-6.44
-11.36
-16.72
-22.11
-27.1
-31.49
-35.39
-39.14
-43.1
-47.52
-52.47
-57.83
-63.22
-67.93
-70.87
-70.68
-66.22
-57.06
-43.72
-27.68
-10.97
4.44
17.1
26.44
32.58
36.1
37.66
37.84
37.07
35.5
33.09
29.73
25.41
20.55
15.96
12.69
11.56
12.73
15.44
18.34
20.02
19.56
17.04
13.25
9.35
6.2
4.04
2.4
0.47
-2.6
-7.38
-13.81
-21.27
-28.59
-34.68
-38.82
-41.09
-42.43
-44.39
-48.52
-55.63
-65.41
-76.29
-85.79
-91.12
-89.88
-80.86
-64.36
-42.17
-17.16
7.53
29.19
46.27
58.27
65.69
69.31
69.85
67.84
63.56
57.54
50.52
43.56
37.67
33.64
31.72
31.61
32.65
33.97
34.92
35.19
34.91
34.36
33.84
33.36
32.6
30.95
27.65
22.37
15.24
7.02
-1.18
-8.35
-13.98
-18.26
-22.07
-26.4
-31.93
-38.64
-45.97
-53.12
-59.78
-66.13
-72.6
-79.07
-84.27
-85.82
-80.98
-67.95
-46.91
-20.39
7.69
33.14
53.0
66.08
72.83
74.69
73.32
70.11
65.85
60.95
55.54
49.73
43.72
37.87
32.82
29.35
28.04
28.97
31.59
34.9
37.71
39.12
38.81
36.98
34.18
30.85
27.15
22.9
17.84
11.87
5.14
-1.9
-8.86
-15.5
-21.85
-28.05
-34.34
-40.79
-47.47
-54.57
-62.35
-70.84
-79.42
-86.4
-89.19
-85.22
-72.96
-52.87
-27.46
-0.63
23.75
42.93
55.98
63.5
66.86
67.38
65.91
62.8
58.22
52.31
45.3
37.67
30.07
23.4
18.58
16.32
16.77
19.27
22.47
24.78
25.07
23.13
19.7
16.03
13.17
11.33
9.83
7.44
3.14
-3.42
-11.58
-20.05
-27.41
-32.86
-36.4
-38.87
-41.59
-45.89
-52.75
-62.35
-73.97
-85.83
-95.45
-99.95
-96.94
-85.36
-65.86
-40.88
-13.71
12.34
34.93
52.99
66.51
75.98
81.87
84.33
83.47
79.67
73.8
67.17
61.15
56.6
53.66
51.84
50.34
48.55
46.33
44.06
42.36
41.76
42.27
43.36
44.14
43.61
41.1
36.42
29.95
22.45
14.88
7.87
1.67
-4.0
-9.73
-16.11
-23.39
-31.34
-39.31
-46.6
-52.87
-58.34
-63.72
-69.82
-76.92
-84.43
-90.65
-93.23
-89.89
-79.31
-61.8
-39.36
-15.18
7.35
25.57
38.31
45.86
49.59
51.14
51.65
51.51
50.48
48.18
44.53
39.95
35.33
31.57
29.37
28.94
29.98
31.93
34.15
36.05
37.18
37.24
36.06
33.72
30.41
26.48
22.26
17.92
13.45
8.65
3.35
-2.58
-9.07
-15.89
-22.63
-28.93
-34.48
-39.28
-43.7
-48.39
-54.06
-61.01
-68.65
-75.44
-79.15
-77.68
-69.82
-55.88
-37.71
-17.99
0.64
16.49
28.99
38.55
45.86
51.45
55.17
56.49
54.91
50.51
44.14
37.3
31.62
28.2
27.2
27.86
28.93
29.34
28.76
27.64
26.86
27.15
28.57
30.31
31.03
29.5
25.11
18.21
9.96
1.86
-4.89
-9.88
-13.53
-16.84
-20.86
-26.22
-32.91
-40.34
-47.74
-54.61
-60.78
-66.23
-70.87
-74.14
-75.1
-72.71
-66.18
-55.44
-41.22
-24.9
-8.13
7.55
20.93
31.27
38.28
42.08
43.13
42.16
40.03
37.42
34.74
32.01
29.03
25.63
21.93
18.44
15.95
15.06
15.91
17.99
20.28
21.6
21.14
18.72
14.86
10.49
6.49
3.33
0.88
-1.47
-4.46
-8.67
-14.15
-20.44
-26.78
-32.41
-36.96
-40.72
-44.42
-48.96
-54.97
-62.21
-69.59
-75.29
-77.41
-74.63
-66.69
-54.36
-39.1
-22.67
-6.51
8.31
21.21
31.93
40.36
46.47
50.29
51.86
51.27
48.79
44.86
40.11
35.34
31.2
28.14
26.25
25.37
25.18
25.47
25.99
26.47
26.62
26.04
24.6
22.36
19.66
16.91
14.25
11.42
7.83
2.97
-3.36
-10.63
-17.96
-24.43
-29.5
-33.3
-36.57
-40.21
-44.94
-51.03
-58.0
-64.82
-70.09
-72.42
-70.85
-65.01
-55.31
-42.75
-28.59
-14.02
0.1
13.06
24.36
33.36
39.48
42.41
42.16
39.43
35.25
30.8
26.92
23.91
21.57
19.42
17.11
14.57
12.19
10.48
9.74
9.83
10.24
10.21
9.1
6.6
2.78
-1.98
-7.29
-12.8
-18.25
-23.5
-28.42
-32.92
-36.95
-40.52
-43.75
-46.91
-50.36
-54.4
-59.29
-64.98
-71.02
-76.58
-80.53
-81.91
-80.05
-74.82
-66.54
-56.03
-44.26
-32.33
-21.36
-12.42
-6.37
-3.74
-4.58
-8.39
-14.42
-21.82
-29.91
-38.26
-46.53
-54.4
-61.52
-67.64
-72.77
-77.21
-81.46
-85.97
-90.86
-95.92
-100.83
-105.36
-109.74
-114.57
-120.62
-128.55
-138.46
-149.54
-160.13
-168.11
-171.57
-169.78
-163.61
-155.66
-149.37
-147.84
-152.51
-162.35
-174.12
-183.36
-186.13
-180.17
-165.52
-144.03
-118.32
-90.61
-62.08
-32.79
-2.12
30.34
64.24
98.16
129.75
156.33
175.67
186.9
190.89
190.07
187.57
186.14
187.26
190.98
196.3
202.03
207.47
212.5
217.23
221.31
223.83
223.4
218.94
210.25
198.15
184.18
169.92
156.12
142.48
128.05
111.94
94.17
75.71
57.96
41.83
27.16
12.84
-2.46
-19.34
-37.06
-53.78
-67.21
-75.54
-78.23
-75.86
-69.77
-61.41
-52.05
-42.63
-34.01
-26.98
-22.21
-20.1
-20.54
-22.92
-26.26
-29.64
-32.41
-34.27
-35.26
-35.43
-34.73
-32.99
-29.95
-25.45
-19.57
-12.76
-5.8
0.15
3.95
4.83
2.77
-1.48
-6.56
-11.12
-14.39
-16.52
-18.43
-21.43
-26.58
-34.33
-44.22
-54.92
-64.33
-69.97
-69.44
-60.89
-43.64
-18.52
12.22
45.38
77.53
105.81
128.28
144.07
153.27
156.6
155.16
150.26
143.33
135.65
128.19
121.44
115.35
109.48
103.31
96.75
90.4
85.53
83.58
85.51
91.13
98.85
106.08
109.87
107.84
98.95
83.66
63.86
42.29
21.97
5.52
-5.15
-9.2
-6.93
0.33
10.4
20.94
29.81
35.6
37.74
36.48
32.52
26.76
20.04
13.27
7.52
3.85
3.17
5.82
11.23
18.02
24.29
28.26
28.93
26.37
21.67
16.42
12.15
9.64
8.76
8.59
8.01
6.25
3.29
-0.04
-2.65
-3.73
-3.27
-2.09
-1.51
-2.72
-6.29
-11.91
-18.55
-24.86
-29.83
-33.22
-35.61
-38.14
-42.01
-47.87
-55.59
-64.1
-71.69
-76.66
-77.66
-74.07
-66.07
-54.61
-41.12
-27.2
-14.25
-3.17
5.7
12.51
17.58
21.24
23.67
24.91
25.03
24.11
22.24
19.49
15.88
11.46
6.53
1.67
-2.44
-5.34
-7.24
-8.9
-11.43
-15.71
-22.0
-29.74
-37.92
-45.66
-52.66
-59.38
-66.72
-75.61
-86.53
-99.55
-114.3
-129.95
-145.18
-157.96
-165.72
-165.76
-156.17
-136.57
-108.48
-75.12
-40.48
-8.42
18.22
37.86
50.34
56.45
57.79
56.33
53.79
51.42
49.72
48.45
47.03
45.01
42.29
39.41
37.25
36.64
38.0
41.0
44.63
47.37
47.78
44.88
38.61
29.9
20.21
11.09
3.4
-2.93
-8.95
-16.17
-25.95
-38.94
-54.64
-71.36
-86.33
-96.43
-98.82
-91.81
-75.53
-51.94
-24.41
3.33
28.16
48.32
63.32
73.55
79.54
81.58
79.92
74.95
67.7
59.65
52.36
46.84
43.36
41.44
40.24
39.18
38.14
37.52
37.9
39.57
42.3
45.23
47.13
46.81
43.68
37.89
30.37
22.46
15.26
9.19
3.6
-2.99
-12.2
-24.99
-40.89
-57.73
-72.03
-80.02
-78.76
-67.32
-47.07
-21.14
6.53
32.42
54.27
71.16
83.22
90.97
94.75
94.63
90.71
83.36
73.56
62.82
52.73
44.5
38.66
35.01
32.86
31.53
30.65
30.24
30.56
31.61
32.81
33.12
31.25
26.4
18.64
9.0
-0.96
-9.78
-16.89
-22.74
-28.56
-35.73
-45.15
-56.99
-70.61
-84.68
-97.3
-106.23
-109.08
-103.94
-90.03
-68.15
-40.71
-11.16
16.93
40.68
58.47
69.95
75.61
76.48
73.8
68.84
62.77
56.53
50.71
45.53
40.85
36.45
32.24
28.47
25.63
24.19
24.42
26.03
28.3
30.18
30.69
29.07
25.09
19.02
11.46
3.16
-5.25
-13.35
-21.02
-28.41
-35.87
-43.95
-53.26
-64.25
-76.95
-90.44
-102.65
-110.58
-111.15
-102.27
-83.94
-58.38
-29.37
-1.11
23.19
41.99
55.36
64.23
69.52
71.62
70.6
66.56
60.13
52.51
45.16
39.29
35.39
33.17
31.85
30.67
29.3
27.97
27.15
27.23
28.21
29.49
30.15
29.15
25.67
19.42
10.8
0.78
-9.46
-18.84
-26.79
-33.46
-39.53
-46.03
-53.91
-63.74
-75.37
-87.81
-99.1
-106.6
-107.55
-99.99
-83.61
-60.09
-32.71
-5.37
18.65
37.44
50.74
59.42
64.66
67.26
67.39
64.86
59.59
52.12
43.63
35.73
29.88
26.82
26.35
27.43
28.72
29.18
28.44
26.84
25.09
23.81
23.06
22.27
20.39
16.37
9.68
0.58
-9.87
-20.19
-29.04
-35.84
-40.87
-45.28
-50.4
-57.33
-66.53
-77.75
-90.24
-102.74
-113.55
-120.57
-121.59
-114.89
-99.98
-77.92
-51.21
-23.12
3.24
25.63
42.93
54.98
62.13
64.97
64.23
60.86
55.92
50.36
44.88
39.86
35.49
31.94
29.45
28.19
28.2
29.14
30.51
31.84
32.84
33.44
33.69
33.46
32.44
30.03
25.69
19.22
10.86
1.39
-8.19
-16.89
-24.09
-29.74
-34.5
-39.42
-45.59
-53.74
-63.94
-75.52
-87.2
-97.28
-103.93
-105.46
-100.66
-89.08
-71.22
-48.59
-23.4
1.83
24.73
43.52
57.12
65.15
67.87
66.12
61.28
54.89
48.46
42.94
38.6
35.1
31.83
28.41
25.02
22.45
21.55
22.83
26.08
30.31
34.15
36.36
36.19
33.67
29.37
24.09
18.52
12.99
7.42
1.51
-5.11
-12.5
-20.48
-28.54
-36.08
-42.68
-48.29
-53.29
-58.44
-64.55
-72.09
-80.75
-89.04
-94.4
-93.84
-85.01
-67.22
-41.95
-12.59
16.59
41.79
60.75
73.16
80.22
83.75
85.27
85.59
84.72
82.25
77.97
72.19
65.91
60.6
57.8
58.49
62.96
70.79
81.13
92.99
105.62
118.38
130.87
142.67
153.23
161.73
167.14
168.38
164.63
155.9
143.12
128.3
114.03
102.79
96.28
95.12
98.87
106.29
115.77
125.63
134.05
139.41
140.46
136.92
129.92
122.26
117.73
120.09
131.61
152.22
179.43
209.09
236.65
258.25
271.4
275.03
269.3
255.32
234.94
210.53
184.56
159.3
136.13
115.54
97.3
80.83
65.57
51.23
37.76
25.19
13.54
2.91
-6.72
-15.34
-23.03
-29.89
-36.08
-41.75
-47.03
-51.97
-56.53
-60.67
-64.32
-67.48
-70.13
-72.37
-74.27
-75.93
-77.4
-78.67
-79.71
-80.47
-80.84
-80.76
-80.15
-78.99
-77.2
-74.73
-71.52
-67.51
-62.65
-56.94
-50.46
-43.35
-35.84
-28.18
-20.67
-13.61
-7.25
-1.78
2.64
5.92
8.08
9.13
9.17
8.31
6.7
4.52
1.9
-1.01
-4.07
-7.2
-10.33
-13.4
-16.38
-19.23
-21.94
-24.48
-26.85
-29.08
-31.22
-33.34
-35.52
-37.78
-40.14
-42.52
-44.88
-47.16
-49.33
-51.45
-53.57
-55.75
-58.01
-60.31
-62.57
-64.7
-66.63
-68.39
-70.12
-71.96
-74.1
-76.63
-79.47
-82.45
-85.32
-87.96
-90.46
-93.13
-96.45
-100.85
-106.56
-113.41
-120.9
-128.44
-135.57
-142.32
-149.16
-156.93
-166.34
-177.69
-190.57
-203.96
-216.71
-228.04
-238.06
-247.78
-258.83
-272.74
-290.39
-311.49
-334.97
-359.4
-383.72
-407.78
-432.29
-458.64
-488.59
-524.09
-566.85
-617.38
-673.79
-730.92
-780.7
-814.11
-824.17
-808.59
-770.64
-717.72
-658.39
-599.38
-544.1
-493.12
-445.73
-401.49
-360.71
-323.98
-291.22
-261.3
-232.46
-203.25
-173.35
-143.57
-115.53
-90.67
-69.57
-51.65
-35.52
-19.66
-3.07
14.21
31.35
47.16
60.81
72.22
82.13
91.64
101.74
112.76
124.31
135.56
145.76
154.78
163.16
171.94
182.11
194.05
207.33
221.03
234.13
246.09
257.22
268.5
281.02
295.78
313.24
333.32
355.39
377.96
398.99
415.82
425.76
426.71
418.27
401.82
380.14
356.36
332.7
310.11
288.42
267.21
246.64
227.82
212.09
200.01
190.63
181.44
169.71
153.8
134.28
113.91
96.53
85.1
80.13
79.53
79.21
75.2
65.52
51.05
35.14
21.63
13.16
9.79
9.23
7.96
3.4
-4.81
-14.5
-21.9
-23.69
-18.21
-6.22
9.61
25.69
39.28
48.96
55.15
59.32
62.86
66.66
70.84
75.04
78.79
81.98
84.56
86.49
87.68
87.93
87.16
85.67
83.97
82.42
80.93
79.09
76.36
72.89
69.52
67.38
67.36
69.74
74.3
80.73
89.03
99.4
111.94
125.62
138.26
146.72
148.05
140.54
124.23
101.13
74.79
49.51
29.19
16.26
10.25
7.83
3.33
-9.55
-35.37
-74.92
-124.95
-178.86
-228.78
-268.25
-294.47
-308.84
-316.03
-321.56
-329.2
-339.5
-349.75
-355.63
-353.3
-340.99
-318.88
-288.24
-250.75
-208.44
-164.26
-122.61
-88.49
-65.78
-55.39
-54.34
-56.53
-55.04
-44.72
-23.77
6.01
40.33
74.21
103.77
126.94
143.65
155.48
164.65
173.13
181.99
190.81
198.42
203.45
205.06
203.36
199.17
193.23
185.66
175.61
161.6
142.56
118.53
91.18
63.29
37.94
17.42
2.65
-7.0
-13.45
-18.79
-24.53
-30.59
-35.25
-35.8
-30.07
-17.9
-1.64
14.92
28.29
37.39
43.84
50.85
60.66
72.99
84.68
91.33
89.98
80.58
66.12
51.01
39.14
32.1
29.34
28.98
28.88
27.58
24.36
19.03
11.95
3.88
-4.41
-12.12
-18.89
-24.8
-30.13
-34.9
-38.65
-40.35
-39.13
-34.63
-27.57
-19.36
-11.55
-5.26
-1.02
1.15
1.56
0.69
-0.43
-0.34
2.69
9.95
21.51
35.98
50.8
63.23
71.47
75.14
75.36
73.92
72.65
72.93
75.3
79.41
84.04
87.6
88.73
87.07
83.47
79.73
77.35
76.52
75.88
73.17
66.58
56.0
43.02
30.05
18.98
10.14
2.56
-5.09
-13.41
-21.83
-28.76
-32.43
-31.62
-26.25
-17.18
-5.95
5.62
15.74
23.13
27.14
28.05
26.79
24.52
22.34
21.07
20.94
21.8
23.15
24.14
24.05
22.41
19.62
16.75
15.39
16.67
20.66
26.14
30.74
32.26
29.61
23.47
15.85
9.24
5.37
4.33
4.68
4.12
0.89
-5.29
-12.99
-19.7
-23.19
-22.63
-19.09
-15.23
-13.88
-16.92
-24.19
-33.64
-42.07
-46.72
-46.06
-40.59
-32.31
-23.7
-16.84
-12.37
-9.59
-6.73
-2.22
4.54
12.77
20.41
25.18
25.53
21.7
15.73
10.76
9.43
12.53
18.74
25.24
29.36
29.84
27.26
23.5
20.51
19.34
19.8
21.07
22.18
22.57
22.0
20.24
17.12
12.46
6.65
0.47
-5.02
-9.02
-11.38
-12.73
-14.21
-17.03
-21.91
-28.87
-37.19
-45.65
-52.77
-57.3
-58.67
-57.12
-53.77
-49.94
-46.42
-43.05
-38.95
-32.84
-23.99
-12.8
-0.82
9.7
16.83
19.77
19.21
16.87
14.98
15.07
17.37
20.77
23.33
23.35
20.46
15.92
12.16
11.32
14.12
19.46
24.88
27.77
26.65
21.86
15.2
9.08
5.1
3.63
3.8
4.11
3.12
0.08
-4.87
-10.78
-16.31
-20.39
-22.63
-23.35
-23.54
-24.35
-26.58
-30.47
-35.71
-41.33
-46.03
-48.5
-47.65
-43.01
-35.1
-25.4
-16.29
-9.83
-6.78
-6.06
-5.31
-2.07
4.74
14.04
23.06
28.77
29.45
25.75
20.2
15.92
15.1
18.12
23.5
28.71
31.36
30.0
24.88
17.63
10.88
7.06
7.37
11.13
16.02
18.99
17.77
12.11
3.98
-3.15
-6.25
-4.27
1.35
7.19
9.48
6.13
-2.47
-13.45
-22.99
-28.24
-28.74
-26.18
-23.42
-22.86
-25.28
-29.68
-34.01
-36.14
-34.75
-29.82
-22.14
-13.04
-3.9
4.12
10.1
13.44
14.07
12.49
9.53
6.23
3.45
1.81
1.55
2.38
3.83
5.23
6.15
6.7
7.3
8.62
11.25
15.23
19.79
23.68
25.69
25.03
22.09
18.2
14.8
13.01
12.92
13.73
14.2
13.29
10.63
6.44
1.41
-3.79
-8.85
-13.76
-18.58
-23.43
-28.22
-32.73
-36.8
-40.31
-43.0
-44.86
-45.92
-46.2
-45.77
-44.59
-42.67
-40.19
-37.45
-34.8
-32.18
-29.37
-25.83
-21.31
-16.23
-11.8
-9.59
-10.83
-15.53
-22.21
-28.54
-32.44
-33.09
-31.28
-28.97
-28.32
-30.64
-35.92
-42.97
-50.1
-56.07
-60.41
-63.44
-65.92
-68.69
-71.89
-75.37
-78.45
-80.35
-80.64
-79.2
-76.31
-72.56
-68.7
-65.48
-63.85
-64.45
-67.47
-72.28
-77.32
-80.21
-77.98
-68.18
-49.66
-23.3
8.2
41.43
73.57
103.11
129.76
153.72
174.38
189.78
197.34
195.25
184.13
166.97
148.08
131.08
117.39
106.23
95.67
84.37
72.57
61.7
53.35
48.21
45.51
43.61
41.22
37.93
34.33
31.09
28.51
26.0
22.8
18.61
13.7
9.06
5.73
4.25
4.05
3.98
2.51
-1.27
-7.26
-14.53
-21.43
-26.46
-28.91
-29.15
-28.58
-28.82
-31.29
-36.31
-42.83
-48.81
-51.79
-49.74
-41.91
-29.49
-15.16
-2.44
5.93
9.18
8.82
7.73
8.91
13.9
21.92
30.41
36.29
37.32
33.2
25.39
16.33
8.51
3.61
2.11
3.58
6.86
10.33
12.27
11.36
7.16
0.5
-6.73
-12.22
-14.35
-13.01
-9.78
-7.23
-7.36
-10.57
-15.3
-18.89
-18.82
-14.06
-5.68
3.77
11.08
13.91
11.4
4.6
-4.36
-12.89
-19.13
-22.42
-23.24
-22.76
-22.2
-22.13
-22.1
-21.26
-18.8
-14.35
-8.47
-2.32
2.61
5.14
4.72
1.9
-2.03
-5.65
-7.68
-7.71
-6.12
-3.9
-2.22
-2.15
-4.23
-8.2
-13.36
-18.59
-23.01
-26.15
-28.42
-30.86
-34.71
-41.04
-49.96
-60.65
-71.98
-82.98
-93.21
-102.9
-112.67
-123.19
-135.19
-149.22
-165.83
-185.44
-208.37
-234.39
-262.64
-291.64
-319.67
-345.18
-366.88
-383.73
-394.52
-398.12
-393.66
-381.1
-361.58
-337.31
-311.02
-285.0
-260.61
-238.04
-216.77
-196.47
-177.21
-159.48
-143.82
-130.25
-118.09
-106.33
-94.01
-80.5
-65.88
-50.64
-35.55
-21.26
-8.03
4.34
16.42
28.9
42.31
56.69
71.63
86.36
100.03
112.17
122.84
132.77
143.1
154.88
168.68
184.35
201.04
217.58
233.07
247.16
260.33
273.62
288.33
305.66
326.4
350.6
377.24
404.0
427.33
443.21
448.36
441.46
423.75
398.73
370.76
343.51
318.86
296.7
275.74
254.78
233.41
212.36
192.87
175.96
161.81
149.75
138.63
127.47
116.01
104.7
94.54
86.35
80.26
75.36
70.03
62.49
51.53
37.04
20.02
2.26
-14.34
-28.27
-39.02
-46.99
-53.29
-59.14
-65.35
-72.14
-79.15
-85.93
-92.33
-98.53
-104.97
-111.79
-118.37
-123.4
-125.14
-122.18
-114.17
-102.01
-87.41
-72.4
-58.41
-46.01
-35.04
-25.16
-16.3
-9.06
-4.26
-2.39
-3.16
-5.38
-7.42
-7.91
-6.25
-2.79
1.53
5.82
9.57
12.93
16.42
20.6
25.77
31.73
37.93
43.69
48.51
52.32
55.49
58.68
62.18
65.68
68.12
67.95
63.8
55.15
42.5
27.3
11.21
-4.63
-19.84
-34.41
-48.08
-59.78
-67.81
-70.55
-67.26
-58.61
-46.4
-32.79
-19.48
-7.29
3.58
12.98
20.49
25.42
27.36
26.64
24.34
21.94
20.64
20.95
22.52
24.61
26.38
27.48
28.05
28.52
29.17
29.84
29.95
28.77
25.86
21.31
15.84
10.49
6.05
2.77
0.22
-2.35
-5.69
-10.11
-15.37
-20.85
-25.78
-29.79
-32.97
-36.06
-40.16
-46.15
-54.22
-63.55
-72.4
-78.49
-79.81
-75.2
-64.79
-49.8
-32.04
-13.46
4.42
20.5
34.2
45.32
53.91
60.12
64.21
66.5
67.27
66.79
65.33
63.11
60.34
57.14
53.66
50.14
47.04
45.03
44.72
46.35
49.37
52.57
54.39
53.69
50.12
44.38
37.79
31.56
26.32
21.83
17.29
11.87
5.25
-2.35
-10.16
-17.23
-22.86
-26.96
-30.22
-33.89
-39.37
-47.41
-57.55
-68.06
-76.19
-79.3
-75.84
-65.99
-51.39
-34.5
-17.51
-1.75
12.26
24.49
34.9
43.15
48.78
51.52
51.47
49.23
45.73
41.85
38.31
35.43
33.24
31.53
30.11
28.88
27.96
27.63
28.12
29.38
31.03
32.45
33.03
32.36
30.37
27.29
23.41
18.96
14.13
8.97
3.6
-1.78
-6.99
-11.91
-16.51
-20.97
-25.49
-30.18
-35.1
-40.28
-45.79
-51.65
-57.75
-63.58
-68.17
-70.21
-68.34
-61.65
-50.12
-34.71
-17.21
0.24
15.61
27.43
35.08
38.7
39.18
37.74
35.59
33.51
31.8
30.28
28.56
26.33
23.53
20.47
17.78
16.15
16.06
17.62
20.46
23.77
26.53
27.89
27.44
25.4
22.45
19.27
16.23
13.21
9.82
5.67
0.72
-4.76
-10.33
-15.66
-20.64
-25.42
-30.15
-34.94
-39.93
-45.38
-51.56
-58.5
-65.55
-71.17
-73.37
-70.34
-61.31
-46.96
-29.37
-11.31
4.64
16.86
25.0
29.81
32.47
34.09
35.28
35.9
35.3
32.85
28.33
22.33
16.17
11.37
9.05
9.43
11.76
14.63
16.68
17.18
16.24
14.71
13.54
13.29
13.76
14.13
13.48
11.15
7.15
1.93
-3.79
-9.4
-14.56
-19.26
-23.6
-27.63
-31.5
-35.33
-39.31
-43.71
-48.76
-54.52
-60.86
-67.22
-72.58
-75.62
-74.87
-69.26
-58.58
-43.69
-26.33
-8.64
7.48
20.75
30.66
37.34
41.22
42.81
42.62
41.14
38.86
36.16
33.28
30.33
27.43
24.69
22.36
20.79
20.23
20.85
22.54
24.89
27.33
29.3
30.31
30.18
29.0
26.91
24.13
20.79
16.88
12.4
7.38
1.97
-3.55
-8.93
-14.05
-18.89
-23.54
-28.22
-33.28
-39.11
-46.01
-53.97
-62.39
-70.06
-75.37
-76.78
-73.32
-65.01
-52.85
-38.43
-23.38
-9.07
3.61
14.17
22.35
27.99
31.15
31.95
30.81
28.36
25.25
22.09
19.23
16.63
14.17
11.77
9.5
7.86
7.5
8.88
11.98
15.92
19.43
21.17
20.47
17.6
13.58
9.66
6.64
4.61
2.84
0.38
-3.56
-9.11
-15.78
-22.6
-28.63
-33.39
-37.01
-40.35
-44.5
-50.25
-57.64
-65.54
-71.89
-74.41
-71.43
-62.52
-48.75
-32.22
-15.36
-0.14
12.29
21.62
28.1
32.12
34.11
34.45
33.54
31.75
29.32
26.31
22.52
17.94
12.86
8.03
4.44
2.93
3.8
6.54
10.08
13.07
14.51
14.1
12.18
9.56
7.03
5.01
3.22
0.93
-2.74
-8.29
-15.44
-23.21
-30.23
-35.45
-38.62
-40.45
-42.39
-45.98
-52.25
-61.03
-70.92
-79.42
-83.75
-81.69
-72.34
-56.64
-36.94
-16.21
2.93
19.08
32.11
42.47
50.71
57.04
61.23
63.09
62.82
61.11
58.98
57.35
56.85
57.67
59.72
62.65
66.08
69.48
72.45
74.68
76.25
77.46
78.72
80.29
82.11
83.74
84.4
83.26
79.61
73.16
64.28
53.94
43.31
33.23
23.78
14.19
3.65
-7.96
-19.67
-29.46
-35.25
-35.92
-31.78
-24.24
-15.09
-5.67
3.42
12.11
20.8
30.02
40.49
52.95
67.92
85.31
104.24
123.07
139.6
151.51
156.54
152.95
139.85
117.54
87.61
52.6
15.25
-22.31
-58.78
-93.73
-127.17
-159.2
-190.1
-219.99
-248.52
-274.48
-295.58
-308.84
-311.68
-302.85
-282.64
-252.7
-215.03
-171.57
-124.6
-76.89
-31.83
6.9
36.21
54.71
62.79
62.41
56.25
46.33
33.94
19.8
4.39
-11.69
-27.35
-41.46
-52.99
-61.46
-67.58
-72.63
-77.51
-82.32
-86.41
-88.54
-88.13
-85.64
-79.91
-72.04
-64.83
-60.93
-60.93
-64.8
-68.95
-69.8
-64.63
-51.95
-31.02
-3.37
28.08
59.67
87.64
109.15
122.31
126.7
123.14
112.81
97.08
77.56
55.84
32.89
8.88
-17.53
-48.46
-85.84
-130.27
-180.07
-231.06
-277.73
-314.78
-338.2
-345.97
-337.81
-314.75
-278.95
-233.37
-181.24
-125.62
-68.95
-12.97
41.09
92.03
138.53
179.19
212.65
237.83
253.89
260.31
257.21
245.73
228.46
209.1
191.51
178.33
170.16
165.51
161.9
157.13
150.26
141.66
132.36
123.24
114.49
105.6
95.79
84.44
71.48
57.37
42.94
28.98
15.9
3.57
-8.61
-21.18
-34.3
-47.46
-59.74
-70.32
-78.97
-86.16
-92.66
-98.81
-103.96
-106.46
-104.34
-96.26
-82.22
-63.75
-43.43
-24.0
-7.62
4.67
12.94
18.05
21.11
23.08
24.47
25.31
25.35
24.28
22.02
18.8
15.17
11.92
9.74
9.05
9.8
11.5
13.36
14.61
14.77
13.79
11.96
9.62
6.92
3.72
-0.26
-5.19
-10.92
-16.95
-22.67
-27.61
-31.69
-35.14
-38.42
-41.95
-45.92
-50.2
-54.37
-57.79
-59.64
-59.0
-54.99
-46.92
-34.6
-18.45
0.47
20.58
40.23
57.97
72.77
84.05
91.6
95.54
96.18
94.06
89.82
84.2
77.83
71.18
64.57
58.14
52.1
46.66
42.02
38.31
35.49
33.38
31.74
30.29
28.81
27.12
25.04
22.32
18.67
13.83
7.72
0.52
-7.26
-14.98
-22.01
-28.05
-33.2
-37.91
-42.82
-48.43
-54.96
-62.23
-69.81
-77.07
-83.22
-87.41
-88.62
-85.99
-78.94
-67.54
-52.57
-35.57
-18.44
-2.95
9.6
18.7
24.56
27.83
29.28
29.51
28.91
27.63
25.78
23.61
21.47
19.76
18.74
18.48
18.84
19.65
20.77
22.23
24.02
25.98
27.77
28.9
28.97
27.83
25.64
22.72
19.38
15.68
11.5
6.58
0.73
-5.89
-12.88
-19.71
-25.9
-31.33
-36.26
-41.21
-46.6
-52.32
-57.47
-60.52
-59.78
-54.05
-43.22
-28.46
-11.88
4.05
17.38
27.16
33.58
37.56
40.22
42.26
43.71
44.06
42.72
39.55
35.07
30.38
26.7
24.88
24.99
26.42
28.17
29.41
29.74
29.27
28.42
27.57
26.82
25.87
24.2
21.22
16.6
10.36
2.89
-5.11
-12.82
-19.61
-25.27
-30.06
-34.67
-39.86
-46.18
-53.64
-61.61
-68.94
-74.33
-76.57
-74.87
-69.02
-59.37
-46.76
-32.39
-17.57
-3.49
8.93
19.18
27.1
32.76
36.35
38.01
37.86
36.1
33.04
29.19
25.2
21.71
19.16
17.74
17.35
17.65
18.23
18.69
18.78
18.47
17.82
16.97
15.99
14.76
12.99
10.28
6.35
1.21
-4.68
-10.65
-16.02
-20.34
-23.69
-26.54
-29.62
-33.64
-38.96
-45.5
-52.61
-59.25
-64.13
-65.99
-63.95
-57.69
-47.62
-34.75
-20.41
-5.96
7.51
19.17
28.53
35.3
39.35
40.79
39.99
37.56
34.19
30.49
26.76
23.1
19.52
16.09
13.07
10.89
10.01
10.62
12.62
15.51
18.61
21.26
23.0
23.68
23.45
22.73
22.05
21.9
22.44
23.48
24.43
24.63
23.78
22.25
21.1
21.82
25.48
32.13
40.44
48.04
52.28
51.28
44.77
34.6
24.27
17.92
18.99
28.93
46.7
68.96
91.05
108.33
117.49
117.26
108.62
94.19
77.29
60.79
46.28
33.6
21.31
7.39
-9.45
-29.21
-50.18
-69.75
-85.48
-95.97
-101.28
-102.81
-102.84
-103.61
-106.81
-112.81
-120.65
-128.29
-133.32
-133.94
-129.61
-121.44
-111.56
-102.24
-95.16
-90.97
-89.47
-90.23
-92.76
-96.33
-99.5
-99.79
-94.08
-79.92
-56.69
-26.43
6.7
37.72
62.77
80.34
91.23
97.66
101.95
105.59
109.14
112.77
116.45
120.14
123.57
126.0
126.36
123.69
117.79
109.4
100.16
92.04
86.53
84.21
84.56
86.33
88.06
88.74
87.99
86.25
84.36
82.9
81.94
81.01
79.36
76.37
71.69
65.36
57.5
48.49
38.97
29.76
21.81
15.78
11.67
8.65
5.41
0.55
-6.67
-16.23
-27.31
-38.72
-49.22
-57.74
-63.73
-67.54
-70.83
-76.6
-88.31
-108.4
-137.09
-171.84
-208.61
-243.64
-274.81
-301.68
-324.13
-340.93
-349.27
-345.76
-328.43
-298.02
-257.84
-212.53
-166.48
-123.04
-84.75
-53.98
-32.82
-22.36
-21.42
-26.25
-31.77
-33.49
-29.52
-20.84
-10.37
-1.08
5.47
9.34
11.56
12.88
13.16
11.49
7.0
-0.21
-8.65
-15.85
-19.3
-17.43
-10.05
1.93
17.03
33.68
50.55
66.62
80.96
92.77
101.28
105.93
106.63
103.86
98.54
91.92
85.17
79.11
74.1
70.04
66.56
63.48
60.92
59.35
59.27
60.73
63.17
65.56
66.82
66.27
63.99
60.54
56.58
52.39
47.66
41.76
34.25
25.21
15.27
5.2
-4.54
-14.22
-24.65
-36.68
-50.48
-65.04
-78.36
-87.97
-92.0
-89.72
-81.73
-69.47
-54.54
-38.05
-20.52
-2.14
16.79
35.62
53.26
68.67
81.1
90.3
96.49
100.07
101.49
101.19
99.61
97.12
94.08
90.78
87.52
84.63
82.58
81.93
83.09
86.02
90.1
94.28
97.52
99.2
99.21
97.77
95.0
90.57
83.69
73.41
58.96
39.95
16.46
-10.97
-41.39
-73.43
-105.55
-136.39
-165.07
-191.16
-214.28
-233.45
-246.83
-252.19
-247.88
-233.98
-212.68
-187.7
-162.93
-141.09
-123.04
-108.05
-94.7
-81.71
-68.46
-54.87
-41.03
-26.94
-12.42
2.65
18.03
33.01
46.57
57.67
65.65
70.49
72.68
72.98
72.05
70.23
67.51
63.82
59.1
53.46
47.11
40.19
32.74
24.7
15.95
6.41
-3.82
-14.45
-24.84
-34.06
-41.04
-44.79
-44.76
-40.97
-34.0
-24.82
-14.39
-3.46
7.53
18.43
29.21
39.76
49.9
59.36
67.74
74.71
80.06
83.71
85.81
86.69
86.79
86.6
86.53
86.79
87.31
87.73
87.44
85.79
82.33
76.9
69.72
61.26
52.08
42.78
33.89
25.86
18.98
13.23
8.26
3.33
-2.34
-9.31
-17.42
-25.76
-32.8
-36.86
-36.66
-31.67
-22.18
-9.2
5.87
21.57
36.58
49.86
60.72
68.84
74.27
77.39
78.71
78.79
78.1
77.04
76.0
75.42
75.78
77.48
80.74
85.54
91.49
98.08
104.73
111.02
116.71
121.61
125.55
128.2
129.12
127.84
124.06
117.81
109.45
99.48
88.28
75.89
61.82
45.23
25.13
0.49
-29.6
-65.62
-107.18
-152.45
-197.9
-238.68
-269.69
-287.33
-290.83
-282.73
-268.02
-252.43
-240.61
-235.06
-236.03
-241.91
-250.12
-257.53
-260.99
-257.55
-245.03
-222.6
-191.25
-153.81
-114.28
-76.78
-44.31
-18.12
2.19
18.02
30.82
41.42
49.86
55.69
58.46
58.2
55.39
50.79
45.1
38.79
32.05
24.87
17.16
8.82
-0.07
-8.97
-16.75
-21.75
-22.2
-16.81
-5.24
11.62
31.77
52.5
71.07
85.29
93.93
96.9
94.96
89.29
81.07
71.32
60.85
50.35
40.29
30.89
22.07
13.59
5.34
-2.36
-8.79
-12.95
-14.08
-11.93
-6.74
0.9
10.39
21.27
33.25
46.17
59.93
74.46
89.57
104.74
118.87
130.39
137.6
139.18
134.63
124.44
109.73
91.94
72.48
52.8
34.46
19.1
8.16
2.38
1.33
3.44
6.46
8.28
7.69
4.72
0.38
-4.03
-7.66
-10.41
-12.81
-15.46
-18.54
-21.7
-24.34
-26.03
-26.79
-27.14
-27.72
-28.88
-30.37
-31.55
-31.69
-30.35
-27.61
-24.0
-20.36
-17.46
-15.78
-15.43
-16.08
-17.13
-17.99
-18.31
-18.16
-17.9
-17.95
-18.53
-19.66
-21.19
-23.08
-25.43
-28.41
-32.0
-35.75
-38.9
-40.61
-40.36
-38.19
-34.6
-30.22
-25.48
-20.52
-15.32
-10.04
-5.19
-1.44
0.64
1.0
0.16
-0.97
-1.59
-1.36
-0.44
0.73
1.89
3.12
4.86
7.53
11.3
15.83
20.5
24.64
27.75
29.7
30.61
30.71
30.22
29.29
27.99
26.35
24.41
22.18
19.68
17.02
14.37
12.0
10.07
8.55
7.12
5.41
3.11
0.23
-2.89
-5.69
-7.55
-7.84
-5.95
-1.42
5.9
15.53
26.22
36.06
42.94
45.05
41.27
31.22
15.1
-6.36
-31.7
-58.43
-83.18
-102.25
-112.84
-114.06
-107.35
-95.82
-83.0
-71.48
-62.27
-55.11
-49.2
-43.84
-38.7
-33.53
-27.8
-20.75
-11.71
-0.66
11.61
23.72
34.46
43.32
50.71
57.55
64.53
71.59
77.81
81.86
82.65
79.97
74.57
67.94
61.76
57.4
55.64
56.67
60.29
66.02
73.11
80.37
86.06
88.01
84.05
72.72
53.88
29.01
1.01
-26.63
-50.7
-69.11
-81.17
-87.5
-89.52
-88.87
-87.03
-85.07
-83.54
-82.58
-81.98
-81.37
-80.37
-78.72
-76.38
-73.53
-70.54
-67.85
-65.85
-64.74
-64.49
-64.8
-65.21
-65.24
-64.56
-63.06
-60.93
-58.64
-56.88
-56.33
-57.49
-60.26
-63.79
-66.53
-66.67
-62.69
-54.0
-41.17
-25.76
-9.82
4.77
16.78
25.85
32.32
36.99
40.77
44.39
48.16
51.97
55.36
57.86
59.24
59.69
59.77
60.23
61.75
64.67
69.01
74.47
80.5
86.37
91.19
93.99
93.98
90.7
84.22
75.08
64.1
52.13
39.98
28.3
17.67
8.64
1.58
-3.39
-6.6
-8.71
-10.64
-13.25
-17.22
-22.83
-29.9
-37.82
-45.55
-51.84
-55.52
-55.85
-52.7
-46.58
-38.4
-29.21
-19.93
-11.23
-3.64
2.39
6.41
8.08
7.38
4.71
0.91
-2.92
-5.82
-7.2
-7.12
-6.09
-4.85
-3.98
-3.62
-3.48
-3.05
-1.88
0.08
2.46
4.63
5.88
5.82
4.42
2.04
-0.83
-3.69
-6.36
-8.92
-11.71
-15.07
-19.15
-23.79
-28.58
-33.13
-37.22
-40.93
-44.51
-48.1
-51.4
-53.66
-53.81
-50.93
-44.66
-35.39
-24.21
-12.48
-1.45
8.02
15.58
21.17
24.91
26.91
27.26
26.13
23.86
20.95
17.94
15.24
12.99
11.13
9.49
8.03
6.87
6.25
6.36
7.14
8.2
8.96
8.82
7.36
4.48
0.3
-4.88
-10.71
-16.83
-22.95
-28.84
-34.37
-39.49
-44.32
-49.16
-54.38
-60.17
-66.1
-70.83
-72.12
-67.34
-54.42
-32.71
-3.24
31.65
68.99
105.85
139.55
167.67
188.11
199.51
201.86
196.95
188.04
178.76
171.77
167.79
165.6
162.77
156.99
146.9
132.51
114.89
95.66
76.55
58.92
43.55
30.5
19.13
8.52
-2.16
-13.19
-24.24
-34.54
-43.41
-50.6
-56.4
-61.45
-66.24
-70.78
-74.65
-77.25
-78.23
-77.87
-76.94
-76.32
-76.6
-77.86
-79.74
-81.84
-83.88
-85.75
-87.28
-87.94
-86.83
-82.93
-75.56
-64.79
-51.55
-37.29
-23.53
-11.36
-1.31
6.63
12.69
17.21
20.4
22.35
23.14
22.89
21.83
20.29
18.62
17.1
15.91
15.11
14.67
14.53
14.61
14.82
15.03
15.0
14.44
13.15
11.03
8.22
5.02
1.75
-1.31
-4.06
-6.44
-8.45
-9.97
-10.81
-10.76
-9.7
-7.76
-5.26
-2.68
-0.59
0.53
0.45
-0.68
-2.33
-3.54
-3.32
-0.88
4.04
10.99
19.01
26.87
33.54
38.39
41.28
42.36
41.83
39.83
36.37
31.51
25.45
18.69
11.89
5.74
0.68
-3.25
-6.32
-8.93
-11.37
-13.82
-16.39
-19.18
-22.31
-25.7
-28.81
-30.56
-29.6
-24.9
-16.32
-4.83
7.84
19.95
30.52
39.64
48.24
57.4
67.7
78.99
90.52
101.4
110.97
119.0
125.7
131.5
136.94
142.55
148.68
155.12
160.87
163.89
161.21
149.58
126.36
90.53
43.37
-11.22
-67.27
-117.94
-157.39
-182.47
-193.5
-193.97
-188.99
-183.45
-180.74
-182.14
-187.28
-194.73
-202.61
-208.76
-210.98
-207.23
-196.32
-178.59
-156.05
-131.94
-109.53
-90.86
-76.12
-63.99
-52.54
-40.33
-27.15
-13.87
-1.76
8.53
17.35
25.83
34.96
44.81
54.18
61.1
63.78
61.44
54.57
44.38
32.09
18.56
4.38
-9.76
-22.98
-34.5
-44.21
-52.55
-59.83
-65.22
-66.41
-60.27
-44.71
-20.15
10.08
40.92
67.78
88.37
102.96
113.34
121.08
126.43
128.6
126.94
122.04
116.13
112.36
113.59
121.2
134.74
152.21
170.8
187.69
200.62
208.14
209.75
205.87
197.76
187.33
176.6
167.09
159.0
150.96
140.39
124.53
101.71
72.28
38.55
3.9
-28.77
-58.36
-85.99
-114.12
-145.1
-179.54
-215.72
-250.32
-279.86
-302.1
-316.66
-324.45
-326.61
-323.65
-315.29
-301.17
-281.65
-258.31
-233.6
-209.89
-188.52
-169.46
-151.67
-133.91
-115.63
-97.3
-80.26
-66.02
-55.58
-48.97
-45.29
-43.19
-41.43
-39.41
-37.32
-35.78
-35.48
-36.78
-39.54
-43.25
-47.29
-51.04
-54.05
-56.11
-57.2
-57.6
-57.77
-58.33
-59.74
-62.01
-64.46
-65.75
-64.14
-58.09
-46.81
-30.57
-10.68
10.98
32.51
52.51
70.26
85.61
98.61
109.18
116.98
121.48
122.42
120.01
115.09
108.91
102.76
97.57
93.78
91.39
90.15
89.93
90.65
92.29
94.72
97.57
100.34
102.46
103.55
103.4
102.04
99.64
96.3
92.1
87.05
81.12
74.32
66.73
58.51
49.83
40.77
31.27
21.2
10.42
-0.94
-12.31
-22.72
-30.98
-36.07
-37.45
-35.19
-29.87
-22.33
-13.42
-3.88
5.56
14.16
21.19
26.04
28.51
28.88
27.82
26.06
24.11
21.99
19.44
16.19
12.28
8.18
4.61
2.26
1.46
2.04
3.34
4.53
4.85
3.77
1.09
-3.16
-8.77
-15.55
-23.23
-31.54
-40.3
-49.42
-58.92
-68.89
-79.27
-89.65
-99.13
-106.41
-110.16
-109.53
-104.5
-95.98
-85.42
-74.27
-63.31
-52.48
-41.08
-28.18
-13.26
3.49
21.13
38.34
53.86
66.91
77.32
85.3
91.32
95.77
98.84
100.47
100.51
99.0
96.35
93.15
89.89
86.76
83.67
80.42
77.01
73.78
71.45
70.72
71.77
73.89
75.7
75.71
72.8
66.39
56.36
42.94
26.51
7.39
-14.16
-37.7
-61.47
-81.79
-94.52
-97.22
-90.47
-77.18
-60.83
-44.19
-28.79
-15.25
-3.48
6.58
14.76
20.96
25.39
28.65
31.5
34.62
38.13
42.11
46.24
49.92
52.66
54.28
54.9
54.69
53.73
51.17
46.83
40.64
32.69
23.42
13.55
3.83
-5.3
-13.86
-22.88
-32.73
-43.48
-54.79
-66.01
-76.41
-85.67
-94.21
-98.83
-101.76
-105.02
-109.6
-115.21
-120.59
-124.41
-125.83
-125.02
-122.97
-121.72
-122.35
-125.66
-132.17
-141.93
-153.62
-164.07
-168.49
-161.96
-142.35
-110.91
-73.21
-37.05
-9.25
7.13
13.49
14.21
14.04
15.58
19.74
25.99
33.87
43.67
56.26
72.05
90.24
108.86
123.94
133.8
138.02
137.5
133.97
129.33
124.87
120.91
116.91
111.92
105.48
97.62
88.99
80.57
73.38
67.91
63.98
60.84
57.67
54.02
49.82
45.47
41.48
38.45
36.51
35.31
34.18
32.41
29.69
26.11
22.8
19.73
17.22
15.28
13.54
11.45
8.55
4.9
1.02
-2.17
-3.85
-3.39
-0.9
2.9
7.0
10.54
13.15
15.13
17.13
19.86
24.08
30.31
38.75
48.91
59.17
66.69
68.08
60.7
44.07
20.59
-5.13
-27.99
-44.21
-52.65
-54.49
-52.04
-47.46
-41.94
-35.78
-29.09
-22.26
-15.99
-11.02
-7.53
-4.96
-2.37
1.32
6.85
14.46
23.8
34.12
44.39
53.89
62.39
70.06
77.18
83.73
89.1
92.08
92.5
90.18
85.52
79.5
73.15
67.15
61.63
56.34
51.15
46.24
42.01
38.8
36.66
35.04
33.1
30.2
26.12
21.18
15.79
10.11
4.24
-1.43
-5.86
-7.67
-5.96
-1.43
3.27
4.26
-1.89
-16.1
-36.11
-57.23
-74.61
-85.33
-89.44
-89.17
-87.29
-85.63
-84.43
-82.99
-80.53
-76.81
-71.9
-65.79
-58.0
-47.99
-35.62
-21.49
-6.61
8.24
22.95
37.98
53.82
70.18
85.77
98.7
107.2
110.34
108.4
102.53
94.21
84.72
74.86
64.93
54.89
44.66
34.28
24.15
14.97
7.41
1.94
-1.49
-3.35
-4.45
-5.67
-7.71
-10.89
-15.05
-19.67
-24.09
-27.98
-31.55
-35.59
-41.05
-48.52
-57.76
-67.73
-76.99
-84.38
-89.44
-92.39
-93.73
-93.86
-92.85
-90.63
-87.22
-82.89
-78.06
-73.11
-68.25
-63.58
-59.32
-55.79
-53.36
-52.11
-51.68
-51.5
-51.09
-50.41
-49.87
-50.11
-51.56
-54.16
-57.36
-60.3
-62.31
-63.16
-63.18
-63.02
-63.34
-64.48
-66.33
-68.44
-70.09
-70.63
-69.68
-67.3
-63.95
-60.26
-56.79
-53.83
-51.28
-48.66
-45.4
-41.05
-35.67
-29.96
-25.02
-22.1
-22.0
-24.66
-29.14
-33.82
-36.99
-37.46
-34.89
-29.8
-23.31
-16.66
-10.68
-5.78
-1.93
1.0
3.14
4.47
5.12
5.43
6.1
8.03
12.02
18.63
28.02
39.83
53.12
66.58
78.58
87.67
92.95
94.26
92.32
88.31
83.47
78.8
74.88
72.08
70.71
71.08
73.37
77.56
83.33
90.17
97.5
104.59
110.53
114.09
113.49
106.87
92.89
71.43
44.2
14.69
-12.79
-34.3
-47.67
-53.08
-52.73
-49.66
-46.59
-44.99
-44.95
-45.96
-47.52
-49.66
-52.78
-57.19
-62.56
-67.94
-72.0
-73.58
-72.36
-68.9
-64.47
-60.49
-58.0
-57.28
-57.96
-59.18
-60.12
-60.37
-59.95
-59.29
-58.76
-58.64
-58.93
-59.42
-59.88
-60.13
-60.2
-60.2
-60.48
-61.46
-63.55
-67.09
-72.08
-78.02
-83.84
-88.02
-88.98
-85.55
-77.51
-65.55
-51.31
-36.53
-22.61
-10.15
1.01
11.4
21.25
30.28
37.68
42.59
44.65
44.25
42.52
40.86
40.43
41.72
44.39
47.56
50.11
51.31
51.01
49.66
48.12
47.13
47.03
47.48
47.75
47.01
44.74
40.94
36.09
30.95
26.23
22.33
19.26
16.63
13.86
10.28
5.44
-0.76
-7.94
-15.43
-22.29
-27.64
-30.77
-31.24
-28.83
-23.41
-15.03
-4.01
8.95
22.69
35.92
47.32
56.11
62.08
65.58
67.16
67.26
66.14
63.87
60.63
56.71
52.62
48.95
46.0
43.82
42.21
40.9
39.72
38.66
37.75
37.02
36.35
35.46
34.13
32.25
29.85
27.06
23.97
20.54
16.67
12.25
7.24
1.89
-3.57
-8.92
-14.15
-19.43
-25.0
-31.22
-38.28
-46.16
-54.31
-61.72
-67.04
-68.93
-66.58
-60.11
-50.52
-39.43
-28.4
-18.42
-9.8
-2.35
4.27
10.15
15.19
19.16
21.96
23.68
24.6
24.94
24.95
24.74
24.41
24.12
24.03
24.29
25.03
26.19
27.58
28.85
29.51
29.17
27.71
25.34
22.54
19.84
17.44
15.04
12.01
7.66
1.8
-5.06
-11.83
-17.34
-20.96
-23.05
-24.84
-27.95
-33.64
-42.08
-52.14
-61.72
-68.4
-70.43
-67.36
-59.97
-49.9
-38.91
-28.18
-18.18
-8.91
-0.23
7.5
13.55
17.04
17.46
14.92
10.28
4.74
-0.6
-5.11
-8.76
-11.89
-14.97
-18.29
-21.89
-25.61
-29.2
-32.54
-35.77
-39.28
-43.55
-49.09
-56.09
-64.45
-73.71
-83.27
-92.61
-101.49
-109.93
-118.02
-125.73
-132.57
-137.73
-140.37
-140.18
-137.64
-134.03
-130.86
-129.27
-129.4
-130.16
-129.68
-126.04
-117.88
-104.73
-86.79
-64.62
-39.01
-10.88
18.55
47.7
74.92
98.99
119.27
135.99
149.81
161.37
170.93
178.12
182.28
182.9
180.22
175.14
169.3
164.3
161.09
159.27
156.99
151.86
141.82
126.39
106.9
86.01
66.57
50.36
37.48
26.65
16.33
5.63
-5.2
-15.25
-23.57
-30.12
-35.73
-41.64
-48.9
-57.48
-66.41
-74.25
-79.82
-82.85
-84.19
-85.24
-86.94
-89.48
-91.68
-91.56
-87.28
-78.03
-64.66
-49.44
-35.25
-24.2
-16.7
-11.51
-6.31
0.93
10.87
22.35
33.03
40.43
43.31
42.19
38.99
36.1
35.28
37.12
40.8
44.86
47.9
48.99
48.11
45.88
43.25
41.04
39.7
39.11
38.75
37.88
35.89
32.48
27.78
22.36
16.77
11.45
6.55
1.82
-3.21
-9.1
-16.39
-25.3
-35.56
-46.52
-57.18
-66.33
-72.96
-76.5
-77.02
-74.96
-71.13
-66.03
-59.65
-51.62
-41.21
-27.98
-12.15
5.3
22.86
38.71
51.46
60.46
65.92
68.72
70.03
70.79
71.34
71.28
69.86
66.23
60.2
52.55
44.78
38.53
34.97
34.08
34.65
34.8
32.57
27.02
18.52
8.61
-0.64
-7.64
-11.9
-14.44
-17.27
-22.49
-31.41
-43.97
-58.74
-73.76
-87.21
-98.02
-106.22
-112.61
-118.27
-124.07
-130.24
-136.32
-141.31
-144.29
-144.76
-142.87
-139.19
-134.35
-128.75
-122.64
-116.26
-109.64
-102.52
-93.66
-80.59
-59.89
-27.95
17.56
76.42
145.22
217.78
286.51
344.22
385.78
409.09
414.97
406.44
387.67
362.87
335.63
308.61
283.39
260.42
238.99
217.49
194.0
167.21
136.96
104.39
71.41
39.98
11.57
-13.25
-34.68
-53.36
-70.1
-85.39
-99.24
-110.95
-119.19
-122.6
-120.4
-112.92
-101.73
-89.27
-77.95
-69.48
-64.4
-62.23
-61.94
-62.56
-63.6
-64.91
-66.62
-68.66
-70.68
-72.06
-72.18
-70.6
-67.29
-62.68
-57.33
-51.8
-46.36
-41.05
-35.81
-30.64
-25.78
-21.51
-18.22
-16.09
-15.18
-15.33
-16.36
-18.05
-20.22
-22.68
-25.26
-27.91
-30.62
-33.47
-36.66
-40.45
-45.17
-51.02
-57.93
-65.22
-71.5
-75.02
-74.04
-67.67
-56.16
-41.01
-24.46
-8.73
4.84
15.86
24.66
31.72
37.14
40.74
42.17
41.46
39.08
35.96
33.05
31.06
30.18
30.21
30.81
31.56
32.13
32.29
31.96
31.21
30.23
29.24
28.35
27.44
26.16
24.08
20.95
16.76
11.83
6.58
1.56
-2.97
-6.81
-9.96
-12.63
-15.15
-17.99
-21.69
-26.65
-32.71
-39.22
-44.88
-48.23
-48.19
-44.38
-37.51
-29.02
-20.55
-13.29
-7.63
-3.13
1.14
5.89
11.17
16.23
19.97
21.45
20.57
17.96
14.72
11.93
10.13
9.36
9.35
9.94
11.17
13.3
16.33
19.86
23.06
25.0
25.11
23.4
20.4
16.85
13.21
9.55
5.47
0.52
-5.56
-12.7
-20.47
-28.35
-35.86
-42.73
-48.92
-54.6
-60.15
-66.02
-72.5
-79.46
-86.16
-91.34
-93.67
-92.18
-86.6
-77.31
-65.1
-50.79
-35.14
-18.99
-3.38
10.31
20.76
27.23
29.99
30.36
30.22
31.46
35.19
41.56
49.87
58.94
67.61
75.03
81.08
86.14
90.93
95.9
100.78
104.43
105.22
101.81
93.9
82.67
70.36
59.39
51.38
46.4
43.12
39.52
33.85
25.53
15.43
5.42
-2.44
-6.69
-7.22
-5.21
-2.78
-2.28
-5.54
-13.5
-26.09
-42.29
-60.01
-76.59
-89.18
-95.56
-94.81
-87.59
-75.85
-61.92
-47.82
-34.56
-22.42
-11.34
-1.42
6.96
13.57
18.54
22.75
27.62
34.48
43.77
54.64
64.8
71.1
70.86
62.9
48.68
32.17
18.51
12.21
15.2
26.13
40.8
53.96
61.22
60.54
52.44
39.16
23.53
7.61
-7.54
-21.75
-34.96
-46.72
-56.15
-62.54
-66.02
-67.71
-69.46
-72.69
-77.62
-82.73
-85.29
-82.56
-72.89
-56.66
-35.83
-13.39
7.87
25.95
39.92
49.67
55.62
58.44
58.74
57.1
53.95
49.7
44.8
39.7
34.97
30.97
27.97
26.1
25.39
25.87
27.54
30.21
33.39
36.27
37.98
37.94
36.09
32.93
29.31
26.0
23.4
21.43
19.7
17.66
14.84
10.96
6.06
0.54
-4.95
-9.65
-13.05
-15.05
-16.31
-17.96
-20.98
-25.62
-30.8
-34.22
-33.26
-26.03
-12.35
5.82
25.02
41.4
52.1
56.15
54.5
49.39
43.32
38.35
35.64
35.39
37.27
40.55
44.58
49.16
54.71
62.21
72.93
87.91
107.21
129.76
153.38
175.41
193.67
207.02
215.67
220.86
224.33
227.9
233.24
241.77
254.48
271.58
291.91
312.81
330.38
340.68
340.92
330.6
311.56
287.3
261.63
237.34
215.75
196.81
179.8
164.02
149.12
135.07
121.93
109.79
98.45
87.77
77.69
68.29
59.92
52.96
47.64
44.12
42.43
42.64
44.96
49.73
57.45
68.56
83.31
101.53
122.5
145.07
167.76
188.95
207.0
220.47
228.13
229.06
222.74
208.97
187.99
160.53
127.83
91.38
52.95
14.24
-23.19
-58.04
-89.5
-117.18
-141.02
-161.22
-178.16
-192.3
-204.08
-213.84
-221.78
-227.93
-232.25
-234.6
-234.85
-232.92
-228.81
-222.64
-214.62
-205.01
-194.1
-182.19
-169.57
-156.52
-143.32
-130.26
-117.63
-105.75
-94.89
-85.35
-77.42
-71.38
-67.44
-65.64
-65.89
-67.89
-71.18
-75.14
-79.17
-82.71
-85.46
-87.29
-88.3
-88.73
-88.86
-88.88
-88.83
-88.7
-88.46
-88.29
-88.46
-89.41
-91.57
-95.13
-99.95
-105.54
-111.28
-116.73
-121.85
-127.15
-133.48
-141.74
-152.39
-165.27
-179.59
-194.27
-208.54
-222.33
-236.45
-252.36
-271.51
-294.65
-321.47
-350.79
-380.98
-410.67
-439.32
-467.38
-496.02
-526.9
-561.89
-602.8
-650.45
-703.49
-757.48
-804.96
-837.2
-847.06
-831.64
-793.49
-739.57
-678.44
-617.21
-559.82
-507.16
-458.52
-413.33
-371.73
-334.27
-300.98
-270.87
-242.24
-213.48
-183.96
-154.23
-125.8
-100.25
-78.42
-60.03
-43.83
-28.24
-12.02
5.21
22.9
39.95
55.29
68.39
79.57
89.73
99.93
110.96
122.98
135.59
148.09
159.88
170.76
180.98
191.19
202.04
213.96
227.02
241.11
255.92
271.19
286.66
302.13
317.71
333.87
351.84
372.98
397.98
425.91
453.75
477.0
491.16
493.39
483.18
462.39
434.24
402.06
368.86
336.98
308.2
283.37
262.27
243.47
224.93
205.08
183.63
161.75
141.39
124.26
110.95
101.11
93.72
87.42
81.09
73.74
64.94
54.81
44.62
36.23
31.65
31.9
36.3
42.79
48.68
52.0
52.14
49.95
46.89
43.97
41.24
37.69
32.52
25.81
19.02
14.46
13.97
17.5
22.89
26.63
25.54
18.99
9.22
0.52
-2.79
1.09
10.5
20.99
27.43
26.57
18.72
7.23
-3.14
-8.52
-7.89
-3.02
2.48
4.95
2.48
-4.64
-14.08
-22.64
-27.49
-27.42
-22.95
-16.31
-10.41
-7.73
-9.21
-13.78
-18.77
-21.08
-18.95
-12.57
-4.16
3.27
7.58
8.52
7.7
7.52
9.47
13.12
16.46
17.18
14.28
8.81
3.11
-0.61
-1.48
-0.21
1.98
4.45
7.78
13.36
21.83
32.29
42.59
50.56
55.71
59.71
65.17
73.74
84.61
94.41
98.95
95.8
85.29
70.64
56.05
44.74
37.63
33.51
30.15
25.55
18.98
10.85
2.46
-4.52
-8.73
-9.59
-7.59
-4.34
-2.14
-2.85
-7.04
-13.62
-20.29
-25.08
-27.27
-27.76
-28.16
-29.56
-31.6
-32.88
-32.07
-29.03
-25.17
-22.28
-21.5
-22.17
-22.13
