-17.29
1.83
18.61
32.05
42.03
48.89
53.06
54.92
54.73
52.84
49.71
45.92
42.0
38.35
35.11
32.31
29.91
28.02
26.79
26.41
26.88
28.02
29.4
30.49
30.8
30.02
28.12
25.21
21.56
17.36
12.78
7.9
2.72
-2.78
-8.51
-14.37
-20.15
-25.67
-30.78
-35.42
-39.68
-43.76
-47.95
-52.62
-58.04
-64.09
-70.14
-74.81
-76.32
-72.99
-63.88
-49.25
-30.67
-10.53
8.71
25.2
38.02
47.08
52.71
55.35
55.39
53.22
49.4
44.69
39.89
35.54
31.85
28.72
25.92
23.38
21.33
20.12
20.11
21.35
23.55
26.0
27.88
28.44
27.25
24.36
20.3
15.84
11.68
8.22
5.29
2.3
-1.51
-6.68
-13.28
-20.78
-28.28
-34.87
-39.95
-43.43
-45.78
-47.84
-50.48
-54.41
-59.69
-65.66
-70.92
-73.62
-71.97
-64.86
-52.3
-35.56
-16.8
1.54
17.45
29.87
38.64
44.23
47.26
48.19
47.15
44.24
39.64
33.85
27.56
21.51
16.25
12.1
9.16
7.37
6.64
6.74
7.29
7.77
7.67
6.59
4.45
1.37
-2.39
-6.67
-11.49
-17.04
-23.52
-30.86
-38.71
-46.38
-53.14
-58.37
-61.82
-63.62
-64.19
-63.98
-63.36
-62.55
-61.7
-60.97
-60.46
-59.95
-58.78
-55.73
-49.37
-38.65
-23.32
-4.35
16.41
36.75
54.75
69.2
79.65
86.28
89.53
89.99
88.31
85.15
81.13
76.76
72.36
68.06
63.94
60.11
56.79
54.19
52.41
51.27
50.4
49.36
47.75
45.39
42.3
38.6
34.37
29.74
24.73
19.37
13.68
7.64
1.17
-5.77
-13.16
-20.82
-28.3
-35.1
-40.8
-45.19
-48.53
-51.41
-54.72
-59.17
-64.97
-71.41
-76.88
-79.2
-76.31
-67.17
-52.2
-33.4
-13.61
4.34
18.56
28.49
34.73
38.43
40.61
41.81
41.98
40.77
37.95
33.58
28.15
22.44
17.27
13.29
10.82
9.78
9.81
10.41
11.05
11.39
11.29
10.77
9.92
8.8
7.39
5.54
3.11
0.01
-3.79
-8.18
-13.01
-18.07
-23.17
-28.12
-32.73
-36.84
-40.42
-43.59
-46.75
-50.39
-54.92
-60.31
-65.9
-70.28
-71.61
-68.23
-59.23
-44.86
-26.66
-6.92
11.92
27.95
40.18
48.56
53.64
56.22
56.93
56.09
53.83
50.28
45.72
40.69
35.8
31.59
28.35
26.0
24.28
22.83
21.47
20.22
19.26
18.71
18.52
18.35
17.68
16.0
13.03
8.84
3.86
-1.29
-6.11
-10.33
-14.05
-17.58
-21.31
-25.45
-30.0
-34.76
-39.49
-44.08
-48.62
-53.18
-57.58
-61.15
-62.6
-60.55
-53.91
-42.49
-27.22
-9.93
7.25
22.49
34.75
43.77
49.8
53.26
54.48
53.63
50.95
46.74
41.5
35.89
30.55
25.99
22.45
19.89
18.03
16.55
15.24
14.13
13.47
13.52
14.28
15.41
16.2
15.83
13.68
9.65
4.11
-2.18
-8.44
-14.11
-19.01
-23.35
-27.53
-31.92
-36.76
-42.12
-47.88
-53.84
-59.53
-64.17
-66.66
-65.77
-60.52
-50.65
-36.79
-20.41
-3.43
12.3
25.45
35.38
42.07
45.89
47.35
46.92
45.04
42.08
38.35
34.21
29.97
25.9
22.25
19.14
16.6
14.63
13.22
12.33
11.96
12.01
12.3
12.53
12.31
11.28
9.14
5.82
1.45
-3.6
-8.88
-13.92
-18.39
-22.22
-25.65
-29.03
-32.88
-37.57
-43.24
-49.76
-56.6
-62.83
-67.15
-68.17
-64.74
-56.37
-43.53
-27.53
-10.21
6.65
21.71
34.22
43.89
50.64
54.55
55.79
54.77
52.11
48.5
44.54
40.52
36.49
32.41
28.3
24.34
20.83
18.02
16.1
15.02
14.61
14.59
14.62
14.33
13.34
11.38
8.25
4.03
-0.94
-6.16
-11.12
-15.46
-19.09
-22.22
-25.21
-28.42
-32.2
-36.74
-42.15
-48.3
-54.68
-60.24
-63.5
-62.87
-57.33
-46.87
-32.59
-16.47
-0.58
13.46
24.88
33.63
39.98
44.12
46.09
45.86
43.56
39.69
34.98
30.2
25.93
22.5
19.9
17.92
16.27
14.68
13.06
11.56
10.43
9.92
10.09
10.65
10.99
10.43
8.39
4.74
-0.22
-5.85
-11.41
-16.35
-20.41
-23.76
-26.81
-30.12
-34.23
-39.46
-45.66
-52.18
-57.75
-60.76
-59.68
-53.62
-42.76
-28.38
-12.51
2.75
15.91
26.35
34.26
40.15
44.38
46.92
47.53
46.0
42.5
37.66
32.38
27.56
23.79
21.22
19.58
18.39
17.2
15.72
14.0
12.32
11.1
10.6
10.75
11.05
10.72
9.06
5.66
0.81
-4.77
-10.09
-14.41
-17.48
-19.71
-21.79
-24.45
-28.17
-32.98
-38.56
-44.2
-48.91
-51.46
-50.68
-45.79
-36.75
-24.48
-10.61
2.99
14.75
23.86
30.25
34.34
36.59
37.3
36.6
34.57
31.41
27.43
23.07
18.72
14.75
11.39
8.72
6.7
5.18
4.01
3.11
2.54
2.4
2.72
3.38
4.03
4.17
3.32
1.13
-2.48
-7.3
-12.86
-18.47
-23.47
-27.44
-30.41
-33.03
-36.22
-40.89
-47.28
-54.62
-61.22
-64.9
-63.77
-56.99
-45.11
-29.93
-13.84
1.04
13.46
23.25
30.91
37.13
42.1
45.57
46.96
45.9
42.61
37.86
32.75
28.22
24.81
22.52
20.97
19.67
18.21
16.46
14.55
12.8
11.58
10.94
10.66
10.16
8.72
5.82
1.41
-4.1
-9.92
-15.21
-19.51
-22.81
-25.63
-28.73
-32.86
-38.37
-45.05
-52.04
-57.94
-61.15
-60.25
-54.49
-44.01
-29.89
-13.85
2.19
16.56
28.25
36.88
42.64
45.95
47.31
47.16
45.79
43.46
40.37
36.69
32.57
28.23
23.91
19.9
16.52
13.98
12.35
11.52
11.16
10.86
10.14
8.66
6.28
3.13
-0.48
-4.22
-7.95
-11.72
-15.72
-20.06
-24.6
-29.05
-33.13
-36.79
-40.19
-43.62
-46.97
-49.5
-49.87
-46.59
-38.58
-25.86
-9.5
8.53
26.03
41.17
52.89
60.86
65.36
67.02
66.5
64.46
61.42
57.76
53.68
49.26
44.52
39.49
34.28
29.09
24.19
19.84
16.2
13.24
10.69
8.02
4.64
-0.04
-6.25
-13.77
-21.95
-29.86
-36.71
-42.21
-46.6
-50.51
-54.77
-60.08
-66.7
-74.47
-82.61
-89.83
-94.43
-94.76
-89.72
-79.19
-64.23
-46.71
-28.76
-12.1
2.31
14.19
23.56
30.41
34.6
35.94
34.58
31.11
26.48
21.73
17.63
14.52
12.26
10.47
8.81
7.2
5.87
5.26
5.72
7.19
9.19
10.81
11.11
9.42
5.68
0.36
-5.63
-11.42
-16.37
-20.4
-23.83
-27.28
-31.42
-36.72
-43.26
-50.63
-57.82
-63.29
-65.4
-62.75
-54.71
-41.78
-25.47
-7.82
9.11
23.87
35.82
44.95
51.53
55.88
58.12
58.31
56.59
53.27
48.82
43.9
39.15
35.07
32.0
29.99
28.89
28.39
28.26
28.32
28.58
29.06
29.68
30.13
29.89
28.43
25.38
20.75
15.0
8.79
2.84
-2.37
-6.72
-10.47
-14.19
-18.57
-24.25
-31.52
-39.97
-48.41
-54.81
-57.03
-53.39
-43.48
-28.33
-10.16
8.4
25.15
38.77
48.94
55.99
60.38
62.41
62.13
59.51
54.63
47.88
39.99
31.81
24.18
17.63
12.27
7.9
4.17
0.81
-2.23
-4.91
-7.19
-9.14
-11.03
-13.16
-15.81
-19.1
-22.96
-27.15
-31.38
-35.43
-39.27
-43.05
-46.97
-51.19
-55.7
-60.4
-65.27
-70.54
-76.49
-83.13
-89.75
-94.75
-95.82
-90.81
-78.53
-59.42
-35.52
-9.91
14.26
34.72
50.36
61.25
68.2
72.15
73.83
73.64
71.77
68.39
63.86
58.75
53.75
49.52
46.5
44.83
44.3
44.5
44.91
45.09
44.76
43.8
42.11
39.62
36.1
31.35
25.3
18.1
10.15
1.98
-5.92
-13.29
-20.12
-26.6
-33.09
-39.99
-47.66
-56.28
-65.63
-74.92
-82.69
-87.15
-86.55
-79.96
-67.57
-50.77
-31.74
-12.85
3.99
17.62
27.69
34.38
38.12
39.38
38.53
35.89
31.84
26.82
21.36
15.98
11.16
7.22
4.39
2.77
2.41
3.24
4.98
7.14
9.05
10.07
9.75
8.02
5.09
1.28
-3.28
-8.65
-15.12
-22.87
-31.82
-41.52
-51.19
-60.02
-67.37
-72.96
-77.1
-80.49
-84.02
-88.4
-93.58
-98.46
-101.03
-98.96
-90.49
-75.23
-54.43
-30.62
-6.73
14.84
32.79
46.91
57.57
65.25
70.15
72.27
71.66
68.71
64.16
58.93
53.85
49.4
45.72
42.78
40.51
38.98
38.31
38.45
39.1
39.69
39.63
38.53
36.32
33.23
29.53
25.37
20.61
15.07
8.67
1.62
-5.62
-12.51
-18.65
-23.93
-28.54
-32.81
-37.16
-42.03
-47.82
-54.68
-62.37
-69.89
-75.66
-77.73
-74.49
-65.2
-50.37
-31.59
-10.99
9.33
27.78
43.32
55.42
63.8
68.44
69.54
67.64
63.6
58.39
52.9
47.73
43.14
39.1
35.51
32.35
29.76
28.01
27.33
27.75
28.95
30.37
31.34
31.3
30.01
27.55
24.18
20.15
15.55
10.33
4.43
-2.16
-9.22
-16.47
-23.57
-30.28
-36.5
-42.23
-47.54
-52.56
-57.55
-62.82
-68.7
-75.21
-81.72
-86.94
-89.04
-86.25
-77.56
-63.16
-44.56
-24.16
-4.66
11.73
23.61
30.57
33.11
32.26
29.29
25.37
21.27
17.29
13.37
9.38
5.39
1.89
-0.27
-0.26
2.46
7.8
15.04
22.97
30.31
36.08
39.89
41.97
43.02
43.79
44.7
45.72
46.3
45.77
43.68
40.1
35.65
31.29
27.88
25.89
25.2
25.06
24.35
21.96
17.22
10.36
2.68
-3.65
-6.35
-3.77
4.43
16.98
31.64
45.79
57.36
65.17
69.0
69.29
66.75
62.16
56.11
49.01
41.17
32.67
23.8
15.09
7.41
1.74
-1.11
-0.96
1.43
4.9
8.19
10.58
12.21
13.92
16.73
21.4
28.15
36.4
45.0
52.53
57.5
59.06
57.13
52.4
45.98
38.78
30.84
21.44
9.67
-4.98
-21.76
-39.14
-55.36
-69.56
-82.0
-93.69
-105.43
-116.86
-126.42
-131.75
-131.06
-123.69
-110.43
-93.26
-74.47
-56.14
-39.84
-26.52
-16.6
-10.03
-6.31
-4.44
-3.35
-2.09
-0.12
2.58
5.79
9.14
12.39
15.5
18.72
22.28
26.38
31.0
35.75
40.08
43.29
44.86
44.62
43.03
40.95
39.58
39.82
41.88
45.24
48.8
51.41
52.47
52.09
51.08
50.37
50.42
50.88
50.56
48.15
43.09
36.33
30.36
28.57
33.8
46.95
66.28
87.73
106.58
119.24
124.61
124.18
121.03
118.1
116.8
116.58
115.16
109.67
97.63
77.35
48.44
12.05
-28.99
-70.1
-105.57
-129.83
-139.41
-134.02
-117.08
-94.46
-72.19
-54.5
-42.63
-35.35
-30.57
-27.19
-25.68
-27.56
-33.95
-44.1
-55.13
-63.06
-64.58
-58.84
-48.03
-36.48
-28.53
-26.71
-30.55
-37.19
-42.71
-44.15
-40.45
-32.44
-22.33
-12.35
-4.16
1.41
4.22
4.74
3.79
2.51
2.13
3.26
5.77
8.59
10.17
9.38
6.09
1.32
-3.36
-6.59
-8.11
-8.7
-9.74
-12.53
-17.34
-23.48
-29.57
-34.31
-37.01
-37.83
-37.75
-37.92
-39.43
-42.48
-46.6
-50.67
-53.37
-53.86
-52.23
-49.72
-48.18
-49.3
-53.73
-60.79
-68.8
-75.78
-80.54
-82.77
-82.99
-82.03
-80.23
-77.56
-73.62
-67.98
-60.31
-50.71
-39.46
-27.11
-14.75
-3.57
4.98
10.15
12.06
11.97
11.59
12.5
15.41
19.69
24.03
26.82
27.06
24.59
20.24
15.45
11.6
9.62
9.45
10.36
11.06
10.42
7.98
4.18
0.26
-2.45
-3.11
-2.01
-0.54
-0.63
-3.78
-10.28
-19.01
-27.7
-34.09
-36.92
-36.46
-34.37
-32.68
-32.77
-34.58
-36.84
-37.66
-35.55
-30.13
-22.15
-13.11
-4.63
2.16
6.91
9.98
12.27
14.83
18.34
22.74
27.07
29.74
29.2
25.04
18.27
11.23
6.53
5.8
8.87
13.89
18.31
19.96
18.15
13.5
7.42
1.16
-4.54
-9.67
-14.48
-18.99
-23.16
-26.78
-29.83
-32.71
-35.87
-39.67
-44.17
-49.16
-54.09
-58.49
-61.82
-63.79
-64.33
-63.5
-61.48
-58.38
-54.53
-50.18
-45.59
-41.05
-36.47
-31.46
-25.21
-16.73
-5.17
9.52
26.57
44.33
60.82
74.47
84.55
91.28
95.41
97.74
98.8
98.75
97.65
95.5
92.4
88.31
82.89
75.69
66.46
55.48
43.57
31.81
20.91
10.97
1.44
-8.28
-18.41
-28.47
-37.6
-44.94
-50.15
-53.48
-55.37
-56.1
-55.37
-52.39
-46.22
-36.27
-22.6
-6.15
11.49
28.61
43.42
54.61
61.07
62.19
57.93
49.08
37.2
24.41
12.86
3.82
-2.52
-6.84
-10.17
-12.9
-14.71
-14.57
-11.71
-6.06
1.35
8.82
14.81
18.34
19.49
18.99
17.96
17.24
17.21
17.76
18.33
18.55
17.99
16.83
15.6
15.36
17.16
21.82
29.61
39.93
51.84
64.4
77.25
90.81
106.23
124.7
146.78
172.1
199.34
226.84
253.23
277.58
299.17
316.95
329.26
333.88
328.72
312.66
286.05
250.87
209.88
165.81
120.68
75.82
32.12
-9.42
-47.79
-82.45
-113.59
-142.3
-169.85
-197.05
-223.76
-249.24
-273.04
-295.87
-319.9
-347.91
-382.4
-424.92
-476.0
-535.33
-601.37
-670.43
-736.07
-789.55
-821.96
-827.17
-804.55
-759.11
-699.73
-635.61
-573.4
-516.04
-463.59
-415.22
-370.66
-330.6
-295.76
-266.06
-240.24
-216.29
-192.44
-167.91
-143.14
-119.42
-98.07
-79.63
-63.66
-48.99
-34.11
-17.94
-0.3
18.13
35.97
51.97
65.54
77.07
87.79
99.44
113.49
130.6
150.42
171.62
192.51
211.53
227.98
241.98
254.36
266.05
277.41
288.01
296.73
302.25
303.78
301.84
297.98
294.6
294.13
298.35
308.27
323.97
344.46
367.47
389.54
406.47
414.38
411.42
398.38
378.6
356.39
335.12
315.5
295.94
273.76
247.2
217.09
186.57
159.71
139.52
126.43
118.05
110.54
100.57
86.65
70.14
53.99
41.48
34.18
31.4
30.54
28.48
23.32
14.94
5.13
-3.81
-10.07
-13.11
-13.64
-12.82
-11.74
-10.71
-9.66
-8.11
-5.95
-2.93
1.46
8.05
18.12
32.65
52.04
75.61
101.86
128.71
154.18
176.8
195.41
209.08
216.53
216.43
207.57
189.62
163.68
132.36
99.3
68.0
40.87
18.57
0.06
-16.34
-32.08
-47.25
-60.8
-71.09
-77.09
-78.99
-78.48
-78.1
-80.0
-85.35
-93.59
-103.12
-111.93
-118.43
-122.05
-123.15
-122.75
-121.97
-121.57
-121.62
-121.7
-121.1
-119.19
-115.81
-111.12
-105.4
-98.61
-90.2
-79.38
-65.7
-49.58
-32.38
-16.14
-2.78
6.53
11.6
13.08
11.87
8.88
4.73
0.04
-4.67
-8.86
-12.22
-14.89
-17.25
-19.83
-22.72
-25.47
-27.11
-26.58
-23.29
-17.41
-10.0
-2.54
3.5
7.25
8.53
7.82
5.84
3.16
0.07
-3.47
-7.62
-12.52
-18.1
-24.18
-30.6
-37.26
-44.32
-52.12
-61.09
-71.45
-82.81
-93.95
-102.76
-106.81
-104.0
-93.51
-76.2
-54.51
-31.66
-10.62
6.71
19.88
29.47
36.52
41.81
45.58
47.56
47.43
45.16
41.2
36.5
32.14
29.01
27.54
27.61
28.72
30.19
31.43
32.11
32.25
32.11
32.05
32.26
32.6
32.67
31.85
29.65
25.87
20.75
14.85
8.89
3.4
-1.42
-5.82
-10.47
-16.28
-24.09
-34.32
-46.59
-59.5
-70.78
-77.86
-78.71
-72.48
-59.94
-43.17
-24.88
-7.64
6.77
17.54
24.71
28.83
30.58
30.45
28.55
24.6
18.29
9.64
-0.72
-11.43
-20.78
-27.18
-29.7
-28.22
-23.43
-16.34
-8.06
0.42
8.32
14.95
19.79
22.3
22.17
19.21
13.49
5.41
-4.29
-14.57
-24.46
-33.33
-41.15
-48.34
-55.53
-63.25
-71.7
-80.78
-90.01
-98.64
-105.47
-109.09
-107.96
-101.01
-88.09
-70.08
-48.83
-26.45
-4.83
14.81
31.84
45.98
56.99
64.45
68.18
68.24
65.37
60.75
55.83
51.82
49.3
48.21
47.81
47.33
46.13
44.21
42.11
40.64
40.51
41.78
43.86
45.48
45.37
42.66
37.33
30.23
22.68
15.94
10.62
6.58
2.99
-1.13
-6.56
-13.67
-22.32
-31.98
-41.75
-50.42
-56.41
-58.12
-54.36
-44.78
-30.12
-12.01
7.46
26.36
43.26
57.23
67.79
74.57
77.49
76.8
73.2
67.77
61.71
55.89
50.7
46.08
41.69
37.41
33.35
29.96
27.68
26.72
26.96
27.84
28.67
28.75
27.64
25.18
21.47
16.83
11.54
5.9
0.09
-5.75
-11.48
-16.97
-22.12
-27.07
-32.16
-38.0
-45.01
-53.12
-61.3
-67.69
-69.94
-66.21
-55.93
-40.01
-20.74
-0.87
17.25
32.29
43.94
52.59
58.68
62.4
63.66
62.31
58.51
52.93
46.62
40.68
35.79
32.13
29.3
26.77
24.18
21.61
19.5
18.41
18.62
19.81
21.27
22.02
21.28
18.73
14.48
9.02
2.9
-3.34
-9.47
-15.32
-20.94
-26.39
-31.72
-37.15
-42.99
-49.67
-57.31
-65.54
-73.08
-78.0
-78.25
-72.31
-60.01
-42.59
-22.42
-2.23
15.76
30.37
41.45
49.49
55.15
58.69
60.08
59.03
55.49
49.84
42.97
36.07
30.25
26.3
24.26
23.71
23.82
23.78
23.13
21.88
20.43
19.31
18.85
18.91
18.89
17.91
15.2
10.45
4.02
-3.26
-10.35
-16.41
-21.14
-24.85
-28.38
-32.63
-38.41
-45.98
-54.93
-64.17
-72.03
-76.71
-76.65
-71.1
-60.31
-45.49
-28.44
-11.05
5.3
19.83
32.22
42.37
50.0
54.7
56.12
54.2
49.47
42.97
36.1
30.07
25.7
23.09
21.79
20.96
19.91
18.33
16.42
14.9
14.42
15.27
17.07
18.85
19.42
17.9
14.09
8.56
2.35
-3.52
-8.45
-12.49
-16.13
-19.99
-24.49
-29.64
-35.17
-40.79
-46.31
-51.69
-56.78
-61.05
-63.46
-62.77
-57.81
-48.22
-34.56
-18.34
-1.52
13.98
26.79
36.25
42.23
45.09
45.26
43.23
39.53
34.7
29.26
23.74
18.63
14.27
11.01
8.98
8.15
8.36
9.27
10.5
11.76
12.83
13.52
13.71
13.15
11.57
8.81
4.9
0.17
-4.91
-9.86
-14.5
-18.89
-23.33
-28.04
-33.04
-38.18
-43.21
-48.09
-53.02
-58.13
-63.11
-67.03
-68.34
-65.47
-57.54
-44.78
-28.67
-11.4
4.84
18.42
28.67
35.68
40.01
42.24
42.7
41.51
38.77
34.7
29.78
24.7
20.15
16.66
14.34
13.06
12.41
12.14
12.12
12.31
12.77
13.39
13.91
13.96
13.2
11.42
8.61
4.83
0.22
-4.99
-10.57
-16.25
-21.75
-26.89
-31.64
-36.1
-40.5
-45.17
-50.38
-56.34
-62.9
-69.33
-74.31
-76.17
-73.38
-65.12
-51.86
-35.06
-16.9
0.56
15.95
28.64
38.54
45.67
49.96
51.29
49.84
46.2
41.4
36.51
32.27
28.84
25.88
22.9
19.65
16.35
13.63
12.18
12.42
14.14
16.58
18.69
19.49
18.46
15.76
11.95
7.79
3.91
0.47
-2.81
-6.47
-11.08
-16.92
-23.73
-30.86
-37.5
-43.0
-47.36
-51.21
-55.59
-61.29
-68.04
-74.34
-77.7
-75.64
-66.79
-51.65
-32.4
-12.13
6.36
21.39
32.54
40.3
45.46
48.57
49.86
49.41
47.29
43.68
38.85
33.15
27.14
21.54
17.13
14.55
14.03
15.24
17.4
19.63
21.25
21.9
21.62
20.61
19.15
17.41
15.47
13.17
10.21
6.22
0.81
-6.08
-14.08
-22.43
-30.17
-36.53
-41.25
-44.75
-47.95
-52.03
-57.83
-65.48
-74.03
-81.65
-86.0
-85.0
-77.68
-64.45
-47.0
-27.66
-8.59
8.81
24.0
36.85
47.34
55.16
59.9
61.31
59.64
55.62
50.29
44.75
39.73
35.59
32.26
29.58
27.34
25.58
24.52
24.44
25.52
27.52
29.81
31.41
31.49
29.61
25.88
20.94
15.44
9.92
4.56
-0.82
-6.55
-12.82
-19.6
-26.69
-33.68
-40.26
-46.24
-51.58
-56.38
-60.93
-65.65
-70.93
-76.93
-83.14
-88.32
-90.61
-88.04
-79.29
-64.28
-44.36
-21.97
-0.0
19.23
34.28
44.85
51.44
54.92
56.24
56.02
54.65
52.12
48.4
43.51
37.78
31.93
26.89
23.51
22.25
23.0
25.02
27.35
29.04
29.6
29.09
27.89
26.47
24.99
23.23
20.6
16.63
11.04
4.04
-3.73
-11.58
-18.93
-25.55
-31.61
-37.49
-43.45
-49.62
-55.97
-62.44
-69.14
-76.2
-83.42
-90.02
-94.42
-94.6
-88.84
-76.41
-58.02
-35.82
-12.61
8.87
26.77
40.32
49.7
55.65
59.02
60.55
60.65
59.5
57.17
53.73
49.46
44.81
40.43
36.89
34.57
33.5
33.46
34.0
34.69
35.21
35.35
35.01
34.15
32.67
30.49
27.62
23.99
19.67
14.76
9.27
3.32
-2.89
-9.16
-15.23
-20.87
-26.15
-31.21
-36.32
-41.76
-47.7
-54.25
-61.47
-69.14
-76.63
-82.64
-85.31
-82.66
-73.38
-57.36
-36.07
-12.02
11.98
33.61
51.52
65.26
74.97
80.91
83.61
83.52
81.38
78.08
74.39
70.82
67.53
64.55
61.82
59.66
58.43
58.56
60.24
63.18
66.82
70.34
72.99
74.29
74.23
73.21
71.94
71.27
71.78
73.58
76.19
78.7
80.16
80.09
78.69
76.74
75.26
74.8
75.04
74.67
71.94
65.25
53.93
38.44
20.14
0.99
-17.06
-32.25
-43.17
-48.69
-48.22
-41.91
-30.9
-17.2
-3.37
8.22
15.96
19.27
18.46
14.39
7.91
-0.25
-9.57
-19.52
-29.55
-38.93
-47.0
-53.38
-58.01
-61.21
-63.35
-64.65
-65.01
-64.13
-61.8
-58.13
-53.85
-50.0
-47.7
-47.59
-49.64
-53.13
-56.94
-60.05
-61.81
-62.34
-62.3
-62.76
-64.61
-68.24
-73.39
-79.12
-84.37
-88.38
-91.04
-92.97
-95.19
-98.65
-103.91
-110.95
-119.16
-127.54
-134.55
-138.31
-136.76
-128.15
-111.82
-88.58
-60.73
-31.4
-3.68
20.21
39.25
53.33
62.73
67.66
68.27
64.91
58.52
50.54
42.64
36.03
31.08
27.32
23.83
20.03
16.03
12.67
11.01
11.72
14.51
18.26
21.47
22.89
22.15
19.72
16.51
13.45
10.98
8.86
6.46
3.06
-2.04
-9.05
-17.88
-28.21
-39.49
-51.32
-63.43
-75.81
-88.46
-101.35
-114.01
-125.7
-135.45
-142.17
-144.92
-142.82
-135.16
-121.42
-101.66
-76.67
-48.21
-18.69
9.38
33.95
53.88
68.92
79.45
86.02
89.16
89.23
86.6
81.85
75.72
69.12
62.91
57.7
53.79
51.08
49.29
48.13
47.48
47.34
47.86
49.01
50.58
52.11
53.0
52.58
50.35
46.15
40.2
33.22
26.15
19.8
14.5
9.86
5.07
-0.78
-8.11
-16.6
-25.31
-33.14
-39.41
-44.08
-47.9
-51.9
-57.18
-64.33
-73.15
-82.52
-90.51
-94.77
-93.24
-84.87
-69.83
-49.62
-26.48
-2.75
19.61
39.19
55.1
66.78
73.91
76.6
75.41
71.39
65.86
59.97
54.49
49.58
45.06
40.65
36.31
32.38
29.44
28.18
28.95
31.64
35.5
39.49
42.46
43.66
42.87
40.4
36.94
33.14
29.38
25.55
21.3
16.22
10.1
3.07
-4.47
-12.1
-19.54
-26.71
-33.66
-40.33
-46.48
-51.92
-56.54
-60.71
-65.21
-70.78
-77.58
-84.73
-90.26
-91.65
-86.81
-74.86
-56.56
-34.03
-10.09
12.64
32.3
47.91
59.24
66.43
69.85
70.04
67.78
64.04
59.71
55.43
51.33
47.22
42.73
37.91
33.17
29.37
27.42
27.78
30.24
33.87
37.35
39.42
39.41
37.33
33.85
29.95
26.39
23.48
20.83
17.69
13.26
7.23
-0.09
-7.92
-15.29
-21.59
-26.76
-31.26
-35.81
-40.89
-46.67
-52.87
-59.23
-65.51
-71.61
-77.22
-81.48
-82.89
-79.69
-70.55
-55.22
-34.87
-11.79
11.24
31.76
48.1
59.54
66.13
68.33
66.89
62.69
56.67
49.71
42.54
35.65
29.3
23.72
19.11
15.8
14.05
14.0
15.54
18.26
21.55
24.62
26.76
27.46
26.49
23.99
20.39
16.18
11.8
7.36
2.68
-2.52
-8.47
-15.21
-22.45
-29.71
-36.44
-42.19
-46.87
-50.87
-54.99
-60.28
-67.38
-75.97
-84.39
-89.9
-89.5
-81.2
-64.97
-42.83
-18.26
5.09
24.71
39.66
50.45
58.23
63.93
67.84
69.65
68.82
65.13
58.92
51.14
43.08
36.01
30.73
27.51
25.99
25.53
25.46
25.43
25.43
25.64
26.2
26.97
27.46
26.98
24.94
21.04
15.51
8.96
2.13
-4.28
-10.03
-15.19
-20.22
-25.6
-31.65
-38.36
-45.47
-52.7
-59.9
-67.17
-74.46
-81.29
-86.43
-88.04
-84.3
-74.14
-57.83
-37.01
-14.27
7.72
26.86
41.95
52.6
58.99
61.68
61.35
58.91
55.21
50.96
46.63
42.28
37.79
33.03
28.1
23.38
19.51
17.18
16.8
18.39
21.38
24.78
27.34
28.15
26.75
23.38
18.79
13.79
8.95
4.29
-0.61
-6.33
-13.16
-20.92
-28.94
-36.36
-42.56
-47.5
-51.86
-56.6
-62.47
-69.38
-76.08
-80.42
-79.98
-73.05
-59.33
-40.25
-18.43
3.14
21.93
36.66
47.14
53.99
58.01
59.73
59.31
56.73
52.08
45.74
38.6
31.63
25.74
21.56
19.18
18.41
18.8
19.86
21.15
22.5
23.75
24.88
25.82
26.4
26.37
25.39
23.25
19.81
15.29
10.03
4.46
-0.98
-6.06
-10.66
-14.83
-18.76
-22.78
-27.34
-32.93
-39.84
-47.74
-55.58
-61.47
-63.34
-59.56
-49.64
-34.55
-16.39
2.18
18.96
32.55
42.71
49.77
54.33
56.7
56.85
54.62
50.03
43.62
36.42
29.71
24.55
21.44
20.14
19.85
19.77
19.38
18.77
18.37
18.64
19.7
21.18
22.38
22.53
21.12
18.01
13.43
7.8
1.65
-4.46
-10.1
-15.01
-19.3
-23.26
-27.36
-32.02
-37.45
-43.62
-50.29
-56.92
-62.68
-66.51
-67.1
-63.34
-54.65
-41.36
-24.84
-7.08
9.78
24.02
34.69
41.71
45.48
46.66
45.81
43.34
39.55
34.81
29.63
24.61
20.4
17.41
15.72
15.18
15.37
15.97
16.73
17.54
18.26
18.81
18.96
18.44
17.05
14.56
10.85
5.97
0.11
-6.36
-12.8
-18.62
-23.41
-27.11
-30.18
-33.37
-37.44
-42.82
-49.37
-56.18
-61.85
-64.7
-63.26
-56.78
-45.5
-30.61
-14.07
1.98
15.79
26.33
33.46
37.69
39.66
39.78
38.19
34.8
29.7
23.47
17.1
11.76
8.38
7.19
7.67
8.86
9.84
10.08
9.75
9.39
9.57
10.46
11.65
12.31
11.51
8.69
3.82
-2.45
-9.12
-15.16
-19.89
-23.27
-25.86
-28.72
-32.87
-38.91
-46.51
-54.51
-61.04
-64.18
-62.62
-56.03
-45.26
-31.84
-17.5
-3.59
9.09
20.24
29.71
37.2
42.3
44.53
43.82
40.6
35.74
30.39
25.46
21.44
18.38
16.04
14.2
12.78
11.88
11.57
11.9
12.73
13.8
14.78
15.27
14.89
13.29
10.23
5.59
-0.35
-7.1
-13.99
-20.33
-25.76
-30.19
-33.95
-37.54
-41.58
-46.46
-52.32
-58.82
-65.07
-69.88
-71.83
-69.82
-63.25
-52.36
-38.11
-21.97
-5.62
9.54
22.44
32.54
39.66
43.87
45.46
44.87
42.72
39.69
36.47
33.55
31.09
29.04
27.18
25.42
23.77
22.45
21.63
21.38
21.49
21.65
21.46
20.59
18.85
16.07
12.29
7.63
2.42
-2.9
-7.99
-12.68
-17.15
-21.73
-26.76
-32.27
-38.04
-43.76
-49.25
-54.69
-60.33
-66.25
-71.75
-75.45
-75.54
-70.46
-59.69
-43.98
-25.3
-6.13
11.15
25.0
34.87
41.08
44.53
46.1
46.54
46.13
44.93
42.83
39.86
36.31
32.61
29.36
27.0
25.77
25.67
26.48
27.81
29.17
30.09
30.11
29.03
26.87
23.95
20.69
17.42
14.13
10.52
6.09
0.34
-6.78
-14.86
-23.03
-30.27
-35.85
-39.65
-42.24
-44.67
-48.12
-53.31
-60.17
-67.77
-74.43
-78.26
-77.72
-72.15
-61.86
-48.09
-32.39
-16.21
-0.57
13.94
26.93
37.9
46.12
50.91
51.96
49.71
45.31
40.24
35.89
32.95
31.32
30.28
28.99
27.07
24.81
23.04
22.64
24.03
26.8
29.84
31.81
31.75
29.41
25.26
20.29
15.31
10.79
6.59
2.22
-2.79
-8.64
-15.14
-21.8
-28.0
-33.29
-37.53
-40.98
-44.23
-48.03
-52.96
-59.11
-65.76
-71.3
-73.75
-71.24
-62.83
-48.93
-31.17
-11.98
6.27
21.77
33.7
42.02
47.22
49.95
50.79
50.13
48.18
45.14
41.17
36.65
32.09
28.06
25.12
23.61
23.58
24.75
26.67
28.67
30.14
30.64
30.04
28.51
26.42
24.16
21.85
19.3
15.97
11.3
5.03
-2.65
-11.02
-19.2
-26.46
-32.51
-37.51
-41.97
-46.45
-51.29
-56.63
-62.34
-68.18
-73.66
-78.06
-80.41
-79.49
-74.33
-64.4
-49.99
-32.19
-12.72
6.44
23.48
37.0
46.3
51.31
52.66
51.36
48.65
45.59
42.81
40.53
38.42
36.11
33.29
30.09
27.07
25.02
24.72
26.44
29.87
33.9
37.12
38.22
36.57
32.47
26.93
21.29
16.48
12.72
9.48
5.89
1.19
-4.91
-12.09
-19.7
-26.88
-32.98
-37.67
-41.06
-43.74
-46.61
-50.74
-56.75
-64.48
-72.64
-79.15
-81.59
-78.15
-68.32
-53.08
-34.63
-15.5
2.16
17.18
29.38
39.05
46.51
51.74
54.39
54.13
51.11
46.04
40.21
35.01
31.39
29.53
28.87
28.41
27.33
25.45
23.29
21.8
21.85
23.61
26.42
28.99
29.98
28.54
24.72
19.34
13.57
8.41
4.23
0.66
-3.03
-7.55
-13.13
-19.47
-25.84
-31.54
-36.22
-40.0
-43.52
-47.51
-52.53
-58.58
-64.97
-70.32
-72.87
-70.92
-63.48
-50.63
-33.61
-14.55
4.26
20.89
34.2
43.8
49.78
52.46
52.22
49.58
45.12
39.61
33.75
28.08
22.92
18.42
14.73
12.0
10.55
10.52
11.88
14.27
17.1
19.72
21.53
22.24
21.75
20.2
17.81
14.76
11.03
6.49
1.04
-5.3
-12.22
-19.21
-25.68
-31.23
-35.75
-39.5
-43.05
-47.02
-52.0
-58.16
-65.07
-71.59
-75.99
-76.34
-71.2
-60.24
-44.3
-25.37
-5.82
12.21
27.37
39.05
47.31
52.5
54.97
55.12
53.38
50.28
46.38
42.22
38.1
34.08
30.09
26.04
22.15
18.94
17.16
17.38
19.59
23.06
26.41
28.2
27.47
24.19
19.17
13.66
8.79
4.95
1.82
-1.52
-5.97
-12.02
-19.38
-27.2
-34.37
-39.95
-43.72
-46.2
-48.62
-52.39
-58.5
-66.82
-76.03
-83.76
-87.27
-84.46
-74.55
-58.48
-38.43
-17.19
2.85
20.31
34.75
46.36
55.41
61.91
65.56
66.14
63.76
59.04
53.06
46.92
41.54
37.31
34.17
31.8
29.86
28.23
26.89
26.01
25.63
25.62
25.62
25.19
23.82
21.02
16.35
9.41
-0.04
-11.97
-25.99
-41.48
-57.6
-73.63
-88.98
-103.17
-115.79
-126.26
-133.93
-138.18
-138.72
-135.78
-130.14
-122.88
-114.88
-106.47
-97.2
-86.02
-71.72
-53.48
-31.47
-6.85
18.29
41.4
60.18
73.25
80.33
82.41
81.33
79.02
76.98
75.81
75.2
74.26
72.04
68.06
62.41
55.91
49.63
44.58
41.36
40.03
40.12
40.66
40.57
38.75
34.56
27.95
19.52
10.35
1.62
-5.74
-11.57
-16.31
-20.68
-25.34
-30.38
-35.12
-38.68
-40.35
-39.91
-37.99
-35.58
-33.65
-32.6
-31.87
-29.98
-24.93
-15.13
0.02
19.59
41.37
62.43
80.17
92.93
100.38
103.34
103.09
100.84
97.31
92.73
86.82
79.22
69.88
58.97
47.28
36.01
26.32
19.06
14.48
12.09
10.94
10.08
8.78
6.67
3.93
1.02
-1.57
-3.47
-4.56
-5.1
-5.6
-6.75
-9.16
-13.25
-18.82
-25.22
-31.56
-36.94
-40.8
-43.17
-44.61
-45.99
-48.47
-52.76
-58.66
-65.15
-70.19
-71.48
-67.28
-57.2
-42.44
-25.51
-9.27
4.19
14.33
21.93
28.48
35.2
42.38
49.23
54.53
57.06
56.3
52.64
47.26
41.62
36.94
33.89
32.15
30.7
28.26
23.72
16.92
8.94
1.6
-3.22
-4.28
-1.71
3.22
8.63
12.87
15.09
15.3
14.2
12.48
10.51
8.27
5.45
1.67
-3.18
-9.04
-15.81
-23.23
-31.19
-39.59
-48.12
-56.18
-62.95
-67.49
-68.95
-67.19
-62.44
-55.3
-46.54
-36.58
-25.6
-13.72
-1.41
10.43
20.49
27.74
31.9
33.63
34.39
35.65
38.21
41.9
45.63
48.07
48.41
46.8
44.36
42.62
42.7
44.77
47.93
50.42
50.43
47.07
40.56
32.38
24.71
19.24
16.57
16.01
15.87
14.31
10.31
3.91
-3.95
-11.77
-18.33
-23.03
-26.12
-28.35
-30.76
-34.16
-38.82
-44.41
-49.9
-53.91
-55.08
-52.66
-46.75
-38.36
-29.14
-20.82
-14.57
-10.73
-8.83
-7.81
-6.78
-5.23
-3.25
-1.33
-0.07
0.18
-0.45
-1.63
-2.74
-3.25
-2.81
-1.32
0.98
3.7
6.2
7.95
8.38
7.27
4.77
1.31
-2.52
-6.4
-10.13
-13.99
-18.35
-23.43
-29.2
-35.3
-41.13
-46.25
-50.48
-53.74
-56.19
-57.96
-59.16
-60.18
-61.41
-63.23
-65.42
-67.23
-67.13
-63.54
-55.48
-42.94
-27.1
-9.93
6.45
20.56
31.56
39.66
45.57
50.12
53.91
56.87
58.5
57.96
54.89
49.64
43.49
38.14
35.07
34.95
37.15
40.31
42.53
42.51
39.92
35.48
30.68
27.01
25.38
25.4
25.84
25.01
21.69
15.86
8.78
2.41
-1.61
-2.53
-1.19
0.65
0.9
-1.81
-7.64
-15.68
-24.2
-31.7
-37.23
-40.86
-43.45
-46.31
-50.41
-56.14
-63.11
-69.72
-74.08
-74.23
-68.99
-58.46
-44.37
-29.48
-16.83
-8.78
-5.73
-6.22
-7.61
-7.16
-3.4
3.15
10.39
15.79
17.36
15.07
10.51
6.08
4.13
5.63
10.09
15.74
20.54
22.89
22.53
20.3
17.98
17.35
19.16
22.95
26.94
29.06
27.94
23.67
17.72
12.31
9.23
8.89
10.45
12.1
12.17
9.87
5.32
-0.61
-6.74
-11.94
-15.56
-17.2
-16.93
-15.14
-12.3
-9.01
-5.67
-2.38
1.05
4.79
9.02
13.55
18.01
21.9
24.45
25.16
23.69
20.22
15.71
11.55
9.1
9.14
11.25
13.78
15.12
13.95
10.39
5.99
2.76
2.23
4.64
8.85
12.7
14.45
13.15
9.25
4.28
0.06
-2.09
-1.96
-0.41
0.65
-0.37
-4.41
-11.08
-18.6
-24.78
-27.99
-28.02
-26.04
-24.13
-23.79
-25.39
-27.77
-28.71
-26.36
-19.74
-9.56
2.34
13.59
22.17
26.99
28.22
26.99
24.76
22.98
22.02
21.43
20.13
17.11
12.21
6.28
0.85
-2.84
-4.23
-3.97
-3.3
-3.54
-5.33
-8.55
-12.58
-16.66
-20.55
-24.35
-28.5
-33.32
-38.96
-45.21
-51.62
-57.74
-63.07
-67.41
-70.85
-73.92
-77.07
-80.86
-85.35
-89.99
-94.04
-96.62
-97.06
-95.05
-90.38
-82.6
-71.21
-55.92
-36.92
-15.52
6.17
25.64
40.82
50.69
55.62
57.06
56.67
56.05
55.89
56.12
56.01
54.89
52.28
48.31
43.73
39.36
36.16
34.69
35.16
37.23
40.13
42.7
43.83
42.91
40.05
36.34
33.13
31.54
31.89
33.37
34.58
34.01
30.94
25.74
19.87
15.23
13.33
14.65
17.9
20.48
19.53
13.22
2.06
-10.59
-19.94
-21.58
-13.21
4.05
26.56
49.54
69.13
83.49
93.05
99.57
104.83
109.9
114.65
118.28
119.97
119.47
117.28
114.49
112.29
111.34
111.64
112.29
112.07
109.88
105.07
97.84
88.69
78.26
66.95
54.61
40.63
24.17
4.17
-20.67
-51.24
-87.62
-127.82
-167.44
-200.19
-219.75
-222.29
-208.41
-183.35
-155.21
-131.97
-118.52
-115.33
-118.9
-123.72
-124.64
-118.39
-104.27
-83.8
-59.78
-35.2
-12.55
6.71
22.2
34.02
42.54
48.06
50.95
51.8
51.67
51.84
53.37
56.79
61.84
67.62
72.81
76.05
76.19
72.48
64.95
54.42
42.56
31.3
22.21
15.75
11.41
8.24
5.71
4.31
5.37
10.07
18.27
28.18
36.34
38.99
33.3
18.18
-5.16
-33.8
-64.01
-92.23
-115.97
-134.24
-147.4
-156.5
-162.42
-164.82
-162.2
-152.48
-134.19
-107.82
-76.31
-44.6
-18.06
-0.63
6.49
5.05
-1.37
-9.03
-15.5
-20.02
-23.27
-25.89
-27.87
-28.14
-25.43
-19.17
-10.14
-0.33
7.99
13.34
15.66
16.12
16.38
17.37
18.94
20.01
19.12
15.48
9.4
2.09
-4.76
-9.99
-13.29
-15.28
-17.05
-19.64
-23.51
-28.52
-34.02
-39.34
-44.0
-47.54
-49.76
-50.22
-48.32
-43.57
-35.63
-24.63
-11.31
3.11
17.41
30.39
41.24
49.53
55.07
57.99
58.56
57.44
55.31
53.1
51.58
51.17
51.87
53.17
54.41
55.05
55.09
54.84
54.95
55.88
57.54
59.31
60.17
59.17
55.65
49.68
42.03
33.85
26.34
20.14
15.05
10.04
4.03
-3.68
-12.42
-20.19
-24.44
-22.93
-14.97
-1.77
13.72
28.1
38.47
43.71
44.61
43.41
42.87
45.04
50.81
59.46
69.41
78.86
86.54
91.95
95.05
95.85
93.99
89.04
80.73
69.5
56.45
42.9
29.92
17.73
6.16
-5.24
-16.44
-26.91
-35.95
-43.21
-49.11
-54.7
-61.15
-68.66
-76.46
-82.84
-86.06
-85.34
-81.3
-75.88
-71.39
-69.72
-71.33
-75.26
-79.68
-82.68
-83.28
-81.88
-80.24
-80.46
-84.31
-92.02
-102.06
-111.77
-118.14
-119.11
-114.34
-105.28
-94.32
-83.89
-75.37
-68.68
-62.68
-55.95
-47.77
-38.51
-29.71
-23.16
-20.02
-20.49
-23.44
-27.0
-29.37
-29.59
-27.7
-24.76
-22.19
-21.16
-22.4
-25.8
-30.78
-36.32
-41.54
-45.78
-49.02
-51.88
-55.47
-60.92
-68.57
-77.53
-85.43
-89.44
-87.28
-78.38
-63.92
-46.3
-28.03
-10.61
5.5
20.68
35.72
51.02
66.53
81.78
95.97
108.04
117.27
123.23
126.21
127.44
128.27
129.82
132.42
135.52
137.87
138.51
136.87
132.96
127.52
121.51
115.78
110.94
107.15
103.9
100.51
96.2
90.47
83.4
75.5
67.38
59.4
51.63
43.83
36.04
28.44
21.84
17.09
14.79
15.11
17.37
20.48
23.26
24.95
25.16
23.91
21.57
18.3
14.44
10.43
6.81
4.18
3.09
3.6
5.07
6.47
6.58
4.64
0.88
-3.51
-6.84
-7.52
-4.67
1.43
9.65
18.4
26.16
31.84
35.21
36.48
36.26
35.24
33.94
32.58
30.98
28.98
26.25
22.84
19.16
15.57
12.32
9.3
6.09
2.17
-2.6
-8.05
-13.72
-19.02
-23.5
-26.99
-29.49
-31.02
-31.73
-31.8
-31.47
-31.24
-31.53
-32.48
-33.77
-34.64
-34.11
-31.6
-27.34
-22.61
-19.4
-19.56
-23.91
-31.37
-39.48
-45.06
-45.73
-41.03
-32.65
-23.59
-17.01
-14.77
-16.82
-21.58
-26.79
-30.5
-31.95
-31.59
-30.74
-30.93
-33.08
-37.1
-41.82
-45.56
-46.74
-44.69
-40.09
-34.61
-30.1
-27.8
-27.57
-27.97
-27.14
-23.67
-17.52
-10.09
-3.84
-1.18
-3.54
-10.9
-21.7
-33.54
-44.27
-52.75
-59.04
-64.28
-69.7
-75.76
-82.06
-87.34
-90.14
-89.55
-85.29
-77.6
-66.9
-53.63
-38.18
-21.29
-3.85
13.17
29.15
43.95
57.77
70.8
82.59
92.12
98.18
99.92
97.28
91.18
83.01
74.04
65.06
56.2
47.08
37.31
26.67
15.3
3.75
-7.07
-16.22
-22.85
-26.54
-27.8
-27.84
-28.41
-31.13
-36.58
-43.86
-51.1
-56.18
-57.84
-56.26
-52.86
-49.53
-47.83
-48.31
-50.45
-52.9
-54.1
-52.73
-48.0
-39.84
-28.88
-16.02
-2.26
11.78
26.04
40.62
55.44
69.91
82.77
92.48
97.98
98.93
96.05
90.83
85.12
80.37
77.31
75.73
74.55
72.52
68.85
63.47
57.31
51.79
47.98
46.3
46.28
46.97
47.5
47.35
46.4
44.78
42.64
40.18
37.62
35.36
34.01
34.05
35.67
38.64
42.54
46.9
51.4
55.52
58.76
60.51
60.22
57.59
52.96
47.44
42.63
40.01
40.31
43.27
47.94
53.08
57.63
61.47
65.86
73.14
85.6
104.0
126.54
148.6
163.87
165.94
150.87
118.67
73.19
20.39
-33.9
-85.62
-131.46
-165.96
-183.65
-181.58
-161.01
-126.66
-84.49
-40.33
1.37
37.82
68.02
91.39
109.24
122.93
133.27
140.72
145.19
146.54
144.8
140.31
133.28
123.26
111.63
98.96
85.5
71.03
55.34
38.52
21.03
3.52
-13.44
-29.6
-45.25
-60.9
-77.4
-95.42
-115.24
-136.64
-159.05
-181.75
-204.21
-226.15
-247.46
-268.56
-290.55
-315.06
-343.81
-376.9
-411.97
-443.88
-465.99
-472.26
-459.52
-428.71
-384.14
-332.16
-278.81
-228.75
-184.53
-147.04
-115.4
-87.24
-59.19
-27.87
8.43
48.6
88.21
120.75
139.6
140.78
124.39
94.73
59.2
26.01
1.82
-9.9
-9.33
0.62
15.36
30.47
42.4
49.35
51.46
50.98
51.63
57.29
70.53
90.61
113.35
132.38
141.84
139.07
125.89
107.7
90.78
79.66
75.27
75.3
75.92
73.94
67.99
58.49
47.15
35.48
24.67
15.67
9.35
6.8
9.03
16.01
26.32
37.34
45.87
49.6
48.09
42.82
36.44
31.23
28.13
26.45
24.85
22.63
20.35
19.8
22.78
29.49
38.1
45.4
48.22
45.41
38.47
30.61
25.23
23.8
25.22
26.5
24.48
17.52
6.43
-6.07
-16.41
-22.02
-22.08
-17.73
-11.5
-6.12
-3.56
-4.52
-8.19
-12.8
-16.44
-17.78
-16.49
-13.25
-9.29
-5.88
-3.97
-3.77
-4.7
-5.17
-3.29
2.63
13.06
26.56
40.2
50.62
55.83
56.14
54.28
53.59
56.25
61.91
67.58
69.6
65.53
55.51
42.15
29.21
19.79
15.16
14.48
15.74
16.73
16.04
13.34
9.14
4.3
-0.19
-3.86
-6.55
-8.3
-9.39
-10.03
-10.28
-10.17
-9.78
-9.29
-9.15
-9.88
-11.83
-15.02
-19.15
-23.52
-27.49
-30.67
-32.79
-33.72
-33.36
-31.53
-28.11
-23.35
-17.57
-11.51
-5.7
-0.28
4.93
10.3
16.04
21.96
27.28
31.32
33.61
34.36
34.44
34.96
37.05
41.5
48.63
58.25
69.85
82.51
95.08
106.54
116.34
124.93
133.34
142.87
154.38
167.55
181.16
193.66
203.84
211.47
217.23
221.99
226.43
230.67
234.35
237.09
238.61
239.04
238.31
236.51
233.73
230.24
226.61
223.61
221.72
220.99
220.86
220.22
217.96
213.39
206.38
197.19
186.09
173.18
158.36
141.72
123.76
105.31
87.32
70.6
55.32
41.24
27.79
14.41
1.04
-11.96
-23.95
-34.43
-43.16
-50.1
-55.48
-59.55
-62.62
-64.84
-66.19
-66.43
-65.41
-63.06
-59.49
-55.07
-50.41
-46.24
-43.3
-41.99
-42.31
-43.92
-46.31
-49.04
-52.07
-55.77
-60.88
-68.16
-77.98
-90.12
-103.54
-116.97
-129.32
-140.28
-150.47
-161.29
-174.37
-190.92
-211.1
-233.73
-256.92
-278.65
-297.68
-313.98
-328.92
-345.13
-365.81
-393.48
-428.53
-468.12
-505.67
-532.55
-540.67
-526.05
-490.81
-442.87
-393.25
-351.92
-324.76
-311.95
-308.97
-308.99
-305.2
-292.6
-268.82
-234.46
-192.9
-149.53
-109.95
-78.11
-54.75
-36.94
-19.74
1.51
28.52
58.64
85.66
102.21
102.89
86.7
57.69
22.94
-10.14
-36.52
-54.74
-65.76
-70.72
-69.82
-62.42
-48.26
-29.45
-10.0
5.92
16.75
24.66
34.51
50.23
71.76
94.05
109.25
110.88
97.31
72.84
45.05
21.15
4.96
-3.81
-7.68
-8.87
-7.81
-3.38
5.6
18.83
34.0
47.83
57.81
62.68
62.75
59.07
52.53
43.68
33.16
21.87
10.99
1.02
-8.49
-18.86
-30.81
-43.14
-52.28
-53.49
-43.25
-21.43
7.66
37.12
59.82
71.43
72.06
65.37
56.46
49.44
45.99
45.2
44.94
43.19
38.83
32.3
25.26
19.98
18.94
24.07
35.99
53.65
74.21
93.5
107.29
112.4
107.65
93.71
72.7
47.86
23.07
2.25
-11.86
-18.93
-21.48
-23.22
-27.24
-33.62
-39.12
-38.99
-29.91
-12.4
8.98
27.77
39.2
42.16
38.99
33.31
27.58
21.87
14.81
5.62
-5.03
-14.53
-19.85
-19.22
-13.13
-4.08
4.56
10.38
12.99
13.87
15.61
20.54
29.78
42.65
56.77
68.95
76.03
76.15
69.15
56.84
42.49
29.84
21.83
19.64
22.67
28.67
35.05
39.65
41.61
41.35
39.95
38.68
37.75
36.32
32.43
24.2
10.66
-7.55
-28.37
-49.0
-66.62
-79.3
-86.09
-87.05
-83.0
-75.16
-65.15
-54.38
-43.73
-33.01
-21.38
-7.71
8.32
25.23
40.25
50.21
53.19
49.74
42.75
36.29
33.78
36.81
44.59
55.02
65.63
74.75
81.33
85.13
86.31
85.08
81.9
77.05
70.26
60.46
46.12
25.79
-0.45
-30.12
-58.93
-81.59
-93.94
-94.34
-84.64
-69.03
-52.67
-39.45
-30.41
-23.66
-15.77
-3.72
13.09
32.15
49.38
61.29
66.81
67.91
68.03
70.09
74.85
80.98
86.35
89.57
90.71
90.46
89.09
85.33
76.8
60.72
35.25
0.28
-42.53
-90.04
-138.35
-182.9
-219.61
-245.21
-258.38
-259.88
-251.87
-237.04
-217.47
-194.5
-168.23
-138.63
-105.81
-70.29
-33.46
2.9
36.4
64.83
86.66
101.89
112.04
119.42
126.26
133.24
139.29
141.61
137.2
124.31
103.42
77.4
50.66
27.88
12.26
4.85
4.37
8.39
14.45
20.59
25.65
28.89
30.18
29.8
28.76
28.36
29.19
30.58
30.19
25.6
15.66
2.02
-11.42
-20.22
-21.73
-16.85
-9.35
-4.03
-3.88
-8.78
-15.56
-19.83
-18.58
-11.55
-1.74
6.1
7.47
-0.12
-16.69
-39.9
-66.25
-92.1
-114.11
-129.58
-136.93
-135.73
-127.17
-113.67
-97.89
-81.56
-64.9
-46.7
-25.53
-1.19
24.8
49.74
70.92
87.12
99.15
109.37
120.56
134.37
150.45
166.52
179.31
186.01
185.46
178.8
169.07
159.73
152.81
147.92
142.11
131.48
112.75
84.94
49.38
8.82
-33.82
-76.73
-118.91
-159.9
-198.33
-231.41
-255.49
-267.01
-264.17
-247.74
-221.01
-188.44
-154.39
-121.87
-92.25
-66.05
-43.29
-23.96
-7.79
6.08
18.88
31.9
45.53
59.5
72.82
84.94
95.93
106.38
116.66
126.07
133.07
135.63
132.72
124.66
113.25
100.62
88.28
76.54
64.36
50.25
32.89
11.95
-11.79
-36.55
-60.05
-79.77
-93.17
-98.43
-94.71
-82.82
-65.4
-45.99
-28.02
-13.34
-1.78
8.66
20.3
34.66
51.56
69.2
84.82
95.45
98.73
93.25
79.23
58.65
34.84
11.65
-7.88
-23.06
-35.5
-47.99
-62.98
-80.61
-98.3
-111.94
-117.79
-114.31
-103.15
-88.09
-73.21
-61.29
-52.74
-46.04
-38.89
-29.72
-18.27
-5.6
6.66
17.35
26.07
33.46
40.76
49.3
59.85
72.13
84.73
94.98
100.24
98.8
91.06
79.53
67.75
58.6
52.66
48.1
41.15
28.43
8.42
-17.72
-46.53
-73.75
-95.83
-110.93
-118.8
-120.52
-117.38
-110.66
-101.46
-90.53
-78.36
-65.07
-50.51
-34.63
-17.97
-1.98
11.23
19.84
23.44
23.5
23.24
26.21
34.46
47.67
63.2
77.34
87.19
92.05
93.09
92.72
92.78
93.43
93.06
89.49
80.72
66.03
46.15
22.05
-5.12
-34.29
-64.08
-92.09
-114.91
-129.29
-133.43
-128.02
-116.38
-102.68
-90.27
-79.86
-70.07
-58.66
-44.46
-28.43
-13.05
-0.98
6.53
9.81
10.36
9.58
7.94
5.54
2.4
-0.58
-2.15
-1.55
0.45
1.76
0.19
-5.38
-13.67
-21.98
-27.44
-28.86
-27.46
-26.17
-27.51
-31.79
-36.9
-38.83
-34.1
-21.42
-1.97
21.7
46.9
72.11
96.69
119.53
138.78
151.69
155.78
150.23
136.52
117.6
96.77
76.26
56.74
38.12
20.16
3.36
-11.2
-22.53
-30.32
-35.39
-39.17
-43.2
-48.37
-55.15
-63.8
-74.81
-89.12
-107.37
-129.41
-153.78
-178.36
-200.75
-219.71
-235.37
-248.78
-261.78
-275.97
-292.64
-312.7
-336.46
-362.68
-388.63
-409.96
-421.8
-420.87
-406.44
-380.97
-348.8
-314.6
-281.65
-251.34
-223.68
-198.03
-174.17
-152.35
-132.87
-115.66
-100.01
-84.99
-69.84
-54.7
-40.23
-27.72
-18.4
-12.93
-11.26
-12.45
-15.33
-18.74
-22.01
-24.91
-27.61
-30.28
-32.85
-34.71
-34.78
-31.91
-25.23
-14.52
-0.3
16.35
34.17
51.99
69.38
86.56
104.23
123.19
143.89
166.21
189.42
212.48
234.29
254.34
272.81
290.68
309.63
331.52
357.58
387.64
419.46
448.78
470.07
478.31
470.55
447.43
412.81
372.73
333.34
299.06
271.63
249.95
231.3
212.66
191.84
168.16
142.38
116.38
92.48
72.93
59.13
51.52
49.45
51.29
55.16
59.47
63.43
66.88
70.01
72.86
74.94
75.5
73.89
70.09
64.94
59.87
56.43
55.51
57.08
60.07
62.97
64.44
63.97
62.05
59.92
59.03
59.99
62.28
64.4
64.46
61.11
54.29
45.16
35.73
28.07
23.27
21.21
20.63
19.63
16.59
10.96
3.24
-5.14
-12.7
-18.63
-23.14
-27.29
-32.35
-39.16
-47.52
-56.38
-63.98
-68.35
-67.88
-61.89
-50.9
-36.6
-21.72
-9.0
-0.56
2.82
2.03
-0.86
-3.47
-3.99
-1.7
2.58
7.23
10.5
11.04
8.56
3.66
-2.32
-8.01
-12.25
-14.62
-15.73
-16.78
-19.43
-24.79
-33.03
-42.92
-52.64
-60.56
-66.35
-71.37
-77.96
-88.47
-104.0
-124.19
-147.54
-172.35
-197.42
-221.99
-245.2
-265.23
-279.36
-284.41
-278.23
-260.8
-234.74
-204.76
-175.92
-151.8
-133.1
-117.66
-101.81
-82.22
-57.75
-29.77
-1.27
24.86
47.24
66.59
84.97
104.73
127.61
154.24
184.1
215.98
247.78
276.79
300.2
315.62
321.95
319.73
310.87
297.89
283.22
268.57
254.83
242.45
231.45
221.57
212.34
202.83
192.03
179.12
163.89
146.72
128.61
110.61
93.51
77.63
62.84
48.83
35.31
22.34
10.07
-1.24
-11.53
-21.02
-30.13
-39.35
-48.86
-58.38
-66.74
-72.22
-72.82
-67.08
-54.75
-37.26
-17.49
1.06
15.24
23.42
25.81
24.1
20.64
17.33
15.15
14.03
13.32
12.3
10.6
8.35
5.97
3.95
2.6
2.09
2.17
2.31
1.7
-0.51
-4.87
-11.29
-18.96
-26.67
-33.18
-37.81
-40.68
-42.6
-44.61
-47.56
-51.68
-56.44
-61.0
-64.51
-66.5
-67.1
-66.96
-67.0
-68.19
-71.15
-75.84
-81.6
-87.15
-90.9
-91.42
-87.88
-80.4
-69.79
-57.48
-44.85
-32.95
-22.47
-13.68
-6.69
-1.53
1.83
3.57
3.89
2.97
0.99
-1.81
-4.99
-7.86
-9.56
-9.48
-7.54
-4.3
-0.84
1.84
3.35
4.03
4.74
6.34
9.16
12.64
15.62
16.75
15.2
11.01
5.25
-0.52
-4.86
-7.09
-7.72
-8.14
-10.04
-14.55
-21.75
-30.5
-39.09
-46.13
-51.14
-54.69
-57.87
-61.34
-64.58
-66.0
-63.46
-55.23
-41.08
-22.52
-2.44
15.89
29.88
38.46
42.13
42.52
41.66
41.08
41.38
42.21
42.71
42.01
39.82
36.63
33.32
30.9
30.0
30.61
32.25
34.28
36.05
37.15
37.4
36.7
35.0
32.28
28.7
24.48
20.1
16.04
12.56
9.73
7.31
4.87
2.06
-1.21
-4.84
-8.57
-12.22
-15.91
-19.89
-24.55
-30.26
-37.05
-44.67
-52.34
-58.86
-62.72
-62.52
-57.33
-47.3
-33.73
-18.67
-4.34
7.73
16.92
23.47
27.85
30.35
30.77
28.85
24.69
19.04
13.27
8.78
6.36
5.87
6.45
6.96
6.66
5.61
4.44
4.04
4.95
7.06
9.65
11.77
12.52
11.53
9.04
5.58
1.96
-1.21
-3.64
-5.41
-6.88
-8.57
-10.9
-13.92
-17.4
-20.66
-23.09
-24.08
-23.48
-21.52
-18.68
-15.57
-12.6
-10.04
-7.97
-6.51
-5.7
-5.58
-5.98
-6.37
-6.1
-4.42
-1.0
4.03
9.9
15.48
19.67
21.58
20.97
18.08
13.51
8.03
2.38
-2.72
-6.61
-8.58
-8.17
-5.13
0.28
7.24
14.61
21.21
26.05
28.71
29.36
28.47
26.72
24.55
22.11
19.24
15.67
11.2
5.8
-0.25
-6.53
-12.66
-18.38
-23.58
-28.31
-32.64
-36.66
-40.47
-44.17
-47.81
-51.4
-54.85
-58.14
-61.37
-64.87
-68.88
-73.3
-77.37
-79.63
-78.31
-72.06
-60.59
-44.87
-26.99
-9.35
5.85
17.35
24.87
28.93
30.59
30.97
31.0
31.2
31.66
32.0
31.8
30.78
29.05
27.23
26.14
26.54
28.57
31.78
35.12
37.54
38.46
37.95
36.84
35.99
35.97
36.53
36.87
36.1
33.7
29.96
25.72
21.89
18.84
16.22
13.19
8.92
3.28
-3.11
-8.93
-12.78
-13.85
-12.18
-8.74
-5.01
-2.54
-2.32
-4.65
-8.85
-13.61
-17.41
-18.93
-17.56
-13.46
-7.62
-1.35
3.87
6.99
7.35
4.72
-0.58
-8.04
-16.84
-26.03
-34.61
-41.73
-46.84
-49.75
-50.68
-49.87
-47.64
-44.12
-39.37
-33.54
-26.9
-20.05
-13.66
-8.38
-4.52
-2.06
-0.58
0.52
1.79
3.48
5.29
6.74
7.23
6.58
5.1
3.5
2.57
2.67
3.51
4.15
3.62
1.38
-2.5
-7.21
-11.86
-15.75
-18.83
-21.43
-23.93
-26.25
-27.71
-27.36
-24.31
-18.36
-10.16
-1.11
7.11
13.19
16.46
17.14
16.02
14.33
13.17
13.22
14.62
16.84
19.1
20.4
20.18
18.49
16.1
14.06
13.33
14.35
16.64
19.17
20.63
20.2
17.79
14.03
9.97
6.47
3.97
2.26
0.78
-1.13
-3.91
-7.65
-12.14
-16.82
-21.13
-24.59
-27.03
-28.62
-29.73
-30.89
-32.61
-35.31
-39.02
-43.43
-47.72
-50.69
-51.16
-48.4
-42.45
-34.16
-24.9
-15.79
-7.55
-0.21
6.51
12.56
17.48
20.53
21.13
19.27
15.81
11.96
8.86
7.12
6.52
6.39
5.95
4.73
2.85
0.98
-0.06
0.37
2.3
5.04
7.43
8.28
6.89
3.43
-1.14
-5.49
-8.58
-9.97
-10.09
-9.9
-10.57
-12.77
-16.66
-21.69
-27.02
-31.81
-35.49
-37.94
-39.46
-40.67
-42.24
-44.76
-48.48
-53.01
-57.34
-59.96
-59.32
-54.4
-45.27
-33.1
-19.93
-7.9
1.55
7.99
11.97
14.5
16.45
18.1
19.05
18.59
16.1
11.7
6.22
1.08
-2.36
-3.29
-1.79
1.09
3.93
5.35
4.82
2.65
0.03
-1.7
-1.63
0.3
3.1
5.44
6.03
4.57
1.76
-0.95
-2.14
-1.17
1.52
4.46
6.03
5.17
1.94
-2.58
-6.93
-9.95
-11.42
-11.95
-12.67
-14.4
-17.12
-19.95
-21.36
-19.89
-14.61
-5.72
5.73
18.0
29.21
38.02
43.49
45.66
45.09
42.8
39.81
36.96
34.63
32.61
30.27
26.83
22.01
16.19
10.58
6.69
5.69
7.8
11.97
16.47
19.52
20.16
18.49
15.47
12.32
9.83
8.03
6.29
3.74
-0.24
-5.64
-11.82
-17.86
-22.8
-26.23
-28.3
-29.65
-31.13
-33.4
-36.63
-40.62
-44.98
-49.24
-53.0
-55.81
-57.05
-55.95
-51.8
-44.28
-33.79
-21.44
-8.63
3.26
13.35
21.26
27.02
30.74
32.43
32.14
30.1
26.88
23.32
20.32
18.46
17.82
17.92
18.04
17.63
16.6
15.38
14.63
14.95
16.51
18.79
20.82
21.38
19.74
15.82
10.37
4.64
-0.14
-3.37
-5.31
-6.84
-9.12
-12.87
-18.13
-24.16
-29.8
-34.13
-36.72
-37.89
-38.46
-39.53
-41.93
-45.88
-50.75
-55.07
-56.97
-54.76
-47.6
-35.93
-21.42
-6.38
7.0
17.19
23.86
27.55
29.36
30.34
31.14
31.89
32.31
31.9
30.14
26.96
22.69
18.2
14.6
12.73
12.9
14.59
16.75
18.25
18.52
17.77
16.75
16.39
17.02
18.07
18.34
16.48
11.93
5.18
-2.35
-9.04
-13.68
-16.31
-17.92
-20.03
-23.83
-29.46
-36.15
-42.48
-47.18
-49.88
-51.27
-52.66
-55.23
-59.23
-63.6
-66.49
-65.82
-60.35
-50.22
-36.87
-22.53
-9.4
0.97
7.94
11.73
13.08
12.93
11.98
10.73
9.32
7.63
5.42
2.55
-0.83
-4.3
-7.23
-9.02
-9.21
-7.84
-5.42
-2.83
-1.08
-0.95
-2.78
-6.39
-11.11
-16.03
-20.45
-24.02
-26.85
-29.41
-32.32
-36.05
-40.79
-46.21
-51.49
-55.68
-57.98
-58.12
-56.62
-54.66
-53.41
-53.69
-55.24
-57.02
-57.38
-54.95
-49.02
-39.62
-27.42
-13.14
2.61
19.22
36.06
52.36
67.32
80.35
91.24
100.02
106.83
111.5
113.59
112.79
109.24
103.94
98.38
94.08
91.88
91.55
92.01
91.89
90.24
86.92
82.65
78.31
74.58
71.39
68.06
63.66
57.45
49.25
39.47
28.89
18.26
8.02
-1.77
-11.32
-20.83
-30.29
-39.47
-48.08
-55.97
-63.4
-71.08
-79.89
-90.62
-103.42
-117.43
-130.79
-141.03
-145.91
-144.16
-136.0
-123.13
-108.11
-93.33
-80.36
-69.54
-60.33
-51.83
-43.49
-35.26
-27.57
-21.1
-16.17
-12.82
-10.68
-9.16
-7.63
-5.58
-2.54
1.73
7.16
13.52
20.22
26.58
31.98
36.04
38.61
39.85
39.96
39.01
37.09
34.28
30.77
27.01
23.34
20.01
16.92
13.79
10.26
6.28
2.12
-1.88
-5.41
-8.73
-12.57
-17.88
-25.13
-33.76
-41.85
-46.57
-45.09
-35.73
-18.93
2.66
25.01
44.01
56.85
62.76
62.82
59.04
53.21
46.17
37.97
28.32
17.41
6.17
-4.06
-11.77
-15.92
-16.05
-12.03
-3.7
8.93
25.77
46.19
68.75
91.48
112.31
129.51
142.05
149.84
153.41
154.11
153.89
155.0
159.79
170.16
187.0
209.84
236.67
264.45
289.7
309.35
321.0
323.14
314.77
295.25
264.48
222.92
172.24
115.31
56.39
0.5
-47.11
-82.31
-102.92
-109.03
-103.42
-90.38
-74.75
-60.33
-48.97
-40.07
-31.74
-21.9
-9.81
3.06
13.85
19.47
18.34
11.3
1.29
-8.11
-14.4
-17.21
-18.47
-20.98
-26.86
-36.73
-49.37
-62.89
-75.46
-86.37
-95.9
-104.99
-114.65
-125.4
-137.25
-149.39
-160.71
-169.65
-174.88
-175.5
-171.42
-163.57
-153.62
-143.5
-134.66
-127.6
-121.55
-114.94
-106.15
-94.17
-79.34
-63.27
-48.14
-35.92
-27.51
-22.23
-18.31
-13.76
-7.21
1.27
10.14
17.32
20.91
20.34
16.51
11.38
7.2
5.65
7.19
10.94
15.24
18.38
19.31
17.98
15.26
12.53
10.93
10.98
12.34
14.05
15.02
14.52
12.36
9.05
5.65
3.26
2.63
3.96
6.42
8.65
9.0
6.41
1.06
-5.6
-11.45
-14.53
-13.84
-10.14
-5.44
-2.07
-1.72
-4.47
-8.77
-12.16
-12.54
-9.03
-2.66
4.41
9.91
12.42
12.21
10.87
10.62
13.27
19.27
27.67
36.42
43.35
47.14
47.95
47.42
48.07
52.07
60.42
72.62
86.96
101.38
114.33
125.33
134.82
143.66
152.86
163.0
174.27
186.64
199.59
212.36
224.26
234.53
242.76
249.05
253.67
256.92
258.83
258.98
256.82
251.94
244.17
233.47
219.75
202.91
182.68
159.15
133.04
105.61
78.61
53.76
32.25
14.51
0.4
-10.78
-19.57
-26.5
-32.04
-36.44
-40.0
-42.7
-44.57
-45.59
-45.83
-45.5
-45.13
-45.59
-47.69
-52.09
-58.82
-67.38
-76.81
-86.26
-95.24
-104.11
-114.01
-126.36
-142.37
-162.22
-184.91
-208.53
-231.12
-251.45
-269.66
-287.55
-307.55
-331.96
-361.56
-395.11
-429.37
-459.78
-481.4
-489.82
-482.56
-459.63
-424.18
-381.86
-339.19
-301.55
-271.48
-248.28
-228.79
-209.82
-189.65
-169.16
-150.73
-136.22
-125.19
-114.39
-99.28
-76.11
-44.37
-7.11
29.88
60.32
79.83
86.61
81.89
68.77
51.65
34.6
20.56
10.18
1.27
-10.16
-28.15
-54.06
-84.81
-113.23
-131.2
-133.73
-121.81
-102.5
-85.69
-79.56
-86.8
-103.79
-122.4
-133.59
-131.04
-112.41
-79.46
-36.47
11.63
60.45
105.87
144.06
171.56
185.76
186.85
178.32
166.65
159.16
160.93
171.92
186.57
195.9
191.43
169.34
132.05
87.47
45.46
13.85
-4.22
-10.81
-11.16
-11.09
-14.39
-22.14
-33.04
-44.75
-55.33
-63.69
-69.83
-74.51
-79.08
-84.93
-93.63
-106.19
-122.5
-141.64
-161.74
-180.86
-197.5
-210.58
-219.16
-222.49
-220.12
-212.21
-200.11
-185.4
-169.24
-151.39
-130.23
-103.98
-71.88
-35.41
2.25
37.38
67.44
91.87
111.64
128.23
142.4
154.35
163.95
171.84
179.21
187.22
196.1
204.86
212.08
217.16
221.43
227.42
237.42
251.68
267.54
280.65
287.1
285.56
277.88
268.33
261.3
259.26
262.02
266.83
270.05
268.62
261.13
248.21
231.9
214.69
198.3
183.48
170.16
158.18
147.92
140.46
136.72
136.68
138.81
140.4
138.1
129.13
111.82
86.15
53.98
18.82
-14.62
-41.47
-58.06
-63.36
-59.37
-50.41
-41.53
-36.49
-36.81
-41.85
-49.35
-56.59
-61.18
-61.7
-58.2
-52.65
-48.52
-49.91
-59.92
-78.82
-103.71
-129.38
-150.85
-165.51
-174.3
-180.66
-188.33
-199.61
-214.51
-231.79
-250.13
-268.97
-288.22
-307.17
-324.13
-336.46
-341.75
-338.55
-326.85
-307.7
-282.58
-253.21
-221.01
-187.64
-154.18
-121.34
-88.87
-55.96
-21.99
13.24
48.93
83.79
116.41
145.75
171.02
191.66
207.28
217.81
224.34
228.6
232.71
237.89
243.9
248.6
248.73
241.67
226.77
206.54
185.74
169.52
160.98
159.54
160.96
159.02
148.63
127.84
99.05
67.39
38.34
15.22
-2.25
-16.85
-32.16
-50.23
-70.66
-91.09
-108.56
-121.09
-128.23
-131.0
-130.93
-129.4
-127.0
-123.29
-116.76
-105.43
-87.62
-63.0
-33.52
-3.11
23.55
42.91
54.14
59.2
61.61
64.25
67.9
70.76
69.77
62.09
46.68
24.64
-1.09
-26.52
-47.87
-62.43
-69.35
-69.34
-64.26
-55.61
-43.88
-28.15
-6.64
21.73
55.97
92.73
127.43
155.66
175.16
186.12
190.65
191.5
190.54
188.22
183.61
175.35
162.14
143.93
121.96
98.41
75.71
55.41
37.54
20.41
1.92
-19.35
-42.84
-65.65
-84.21
-95.5
-98.69
-95.03
-87.1
-77.27
-66.77
-55.73
-43.61
-30.09
-15.23
0.33
16.01
31.07
44.97
57.31
67.66
75.96
82.18
86.34
87.85
85.75
78.7
65.89
47.04
22.77
-5.8
-37.41
-70.72
-104.33
-136.62
-166.07
-191.27
-211.46
-226.52
-236.92
-243.49
-247.05
-248.35
-247.8
-245.84
-242.48
-237.42
-229.96
-219.19
-204.33
-185.07
-161.92
-135.95
-108.81
-81.91
-56.29
-32.55
-10.82
8.46
24.79
37.42
46.27
52.28
58.02
66.63
80.55
100.59
124.53
148.13
166.26
174.9
172.29
159.73
140.66
118.74
96.98
76.16
55.62
34.03
10.93
-12.86
-34.88
-51.96
-61.93
-63.99
-59.93
-53.45
-49.29
-51.86
-64.42
-87.95
-120.62
-158.21
-194.3
-222.22
-236.39
-234.05
-216.04
-186.45
-151.08
-115.52
-83.55
-56.25
-32.88
-11.8
8.24
27.09
43.83
56.6
63.71
64.22
58.69
49.01
37.96
27.99
19.68
11.71
1.6
-12.42
-29.74
-46.74
-58.76
-62.44
-57.28
-46.24
-33.59
-22.88
-15.03
-8.99
-2.65
4.74
12.22
17.88
20.23
19.57
17.76
17.28
19.44
23.67
28.16
30.84
31.03
29.75
29.41
32.17
38.62
47.22
54.45
56.62
51.6
39.97
24.92
11.1
2.34
-0.38
0.85
1.44
-3.12
-14.95
-32.43
-51.71
-68.8
-82.42
-94.44
-108.45
-127.18
-149.82
-171.73
-185.97
-186.47
-170.88
-141.83
-105.93
-71.1
-43.63
-25.5
-14.69
-6.59
3.27
16.77
32.38
46.46
55.53
58.26
56.43
53.49
52.57
55.16
60.66
67.32
73.56
78.85
83.23
87.03
90.12
92.08
93.22
94.62
98.14
105.36
116.71
130.82
145.13
156.91
164.46
167.81
168.12
167.31
166.36
165.18
162.37
155.97
144.29
126.59
103.26
75.71
46.29
17.44
-8.4
-29.13
-43.38
-50.75
-52.07
-48.85
-42.98
-35.71
-27.56
-18.68
-9.43
-1.05
4.44
4.83
-1.03
-13.0
-29.67
-48.94
-68.75
-87.11
-102.33
-112.62
-117.1
-116.1
-111.7
-106.99
-104.5
-104.52
-104.96
-102.53
-94.7
-81.86
-67.66
-57.44
-55.6
-63.43
-78.25
-94.74
-107.78
-114.19
-113.98
-109.52
-104.01
-99.78
-98.09
-99.3
-103.42
-110.56
-120.49
-132.07
-143.0
-150.35
-151.77
-146.18
-134.4
-117.95
-98.32
-75.9
-50.06
-19.9
15.27
55.31
99.52
146.5
194.43
240.8
282.51
316.17
338.72
348.57
345.6
331.47
308.96
281.37
252.02
224.06
199.58
179.36
162.62
147.37
131.49
113.74
94.56
75.71
59.55
47.84
40.8
37.23
34.49
29.74
20.81
7.24
-9.74
-27.4
-42.57
-52.89
-57.42
-56.82
-52.64
-46.69
-40.37
-34.28
-28.93
-24.34
-20.31
-16.48
-12.41
-7.94
-3.9
-1.98
-4.18
-11.62
-23.46
-36.98
-48.82
-57.0
-62.58
-69.91
-84.99
-112.9
-156.19
-213.91
-282.31
-355.45
-426.0
-485.59
-526.25
-542.03
-531.42
-498.6
-452.37
-403.21
-359.34
-323.95
-295.56
-270.24
-244.63
-217.77
-190.89
-165.65
-142.77
-121.46
-100.2
-77.98
-55.02
-32.71
-12.68
4.32
19.11
33.6
49.97
69.66
92.61
117.62
142.93
167.46
190.83
213.41
235.37
255.69
272.46
283.51
287.55
284.55
275.95
263.43
248.2
230.6
210.76
189.28
167.92
149.26
135.26
126.72
122.63
121.2
121.05
122.02
124.85
130.36
138.53
147.67
155.63
160.55
161.94
160.72
158.21
155.44
152.32
148.19
142.29
134.6
125.74
116.97
109.84
105.54
104.95
108.25
114.72
122.76
130.59
136.58
139.8
140.52
139.28
136.6
132.5
126.38
117.46
105.69
91.6
76.32
61.52
48.44
37.68
28.98
21.47
13.74
4.97
-4.81
-14.83
-23.3
-28.73
-30.42
-29.03
-26.42
-25.07
-26.77
-31.87
-39.16
-45.93
-49.59
-48.5
-42.81
-34.41
-25.89
-19.47
-15.94
-14.63
-13.78
-11.89
-8.23
-3.16
2.0
5.71
7.08
5.92
2.88
-0.58
-3.27
-4.42
-3.96
-2.68
-1.76
-2.37
-5.47
-11.43
-19.87
-30.07
-41.07
-51.75
-61.46
-69.8
-77.01
-83.41
-89.62
-95.73
-101.19
-105.04
-105.85
-102.61
-95.03
-84.11
-71.81
-60.66
-52.57
-48.21
-46.5
-45.19
-42.11
-36.16
-28.31
-20.86
-16.43
-16.49
-20.53
-26.08
-29.9
-29.53
-24.08
-14.73
-4.14
4.75
9.98
11.17
9.85
8.89
10.96
17.53
27.84
39.11
47.57
49.97
44.9
33.48
18.99
5.4
-3.94
-7.6
-6.08
-1.35
4.13
8.78
12.02
14.54
17.48
21.7
27.1
32.78
37.43
39.57
38.49
34.26
27.64
20.05
13.28
8.54
6.44
6.8
8.57
10.76
12.68
13.93
14.7
15.57
16.97
19.31
22.8
27.13
31.68
35.29
36.86
35.71
32.01
26.96
22.03
18.54
16.84
16.62
16.88
16.68
15.74
13.95
11.54
8.65
5.06
0.29
-5.77
-12.85
-20.09
-26.06
-29.75
-30.81
-29.65
-27.39
-25.14
-23.31
-21.53
-18.86
-14.32
-7.72
0.05
7.28
12.44
14.71
14.55
13.39
12.81
13.74
15.8
17.96
18.86
18.07
16.61
16.29
19.16
26.31
37.34
50.28
62.65
71.85
76.47
76.55
73.37
69.14
65.93
64.94
65.92
67.6
68.13
66.12
61.33
54.67
47.84
42.39
39.09
37.62
36.65
34.38
29.21
20.43
8.35
-5.16
-17.6
-26.6
-30.71
-30.49
-28.13
-26.48
-27.84
-32.87
-40.01
-46.73
-50.47
-49.65
-44.54
-36.72
-28.44
-21.68
-17.68
-16.42
-17.04
-18.42
-19.44
-19.83
-20.05
-21.01
-23.27
-26.65
-29.88
-31.28
-29.55
-24.29
-16.48
-7.72
0.28
6.46
10.58
12.96
14.1
14.46
14.33
13.76
12.85
11.47
9.41
6.57
2.95
-0.92
-3.87
-4.48
-1.66
4.95
14.66
25.9
36.99
46.51
53.93
59.58
64.41
69.27
74.53
79.79
83.78
85.21
83.08
77.4
69.4
61.13
54.64
51.05
50.16
50.21
48.92
44.16
34.97
21.8
6.23
-9.38
-23.02
-33.51
-40.92
-46.42
-51.89
-58.6
-66.94
-75.82
-82.91
-85.92
-83.45
-76.0
-65.71
-55.53
-47.85
-43.74
-42.74
-43.29
-43.64
-42.53
-39.53
-34.95
-29.71
-25.05
-21.73
-19.99
-19.03
-17.25
-12.87
-4.63
7.68
23.11
39.84
56.18
70.91
83.8
95.32
106.43
117.95
130.12
142.63
154.19
163.6
170.05
173.9
176.63
180.35
186.6
195.55
205.96
215.43
221.75
223.54
220.61
213.41
202.36
187.55
168.49
144.96
117.28
86.62
54.64
23.0
-7.07
-35.04
-60.55
-83.38
-103.01
-118.88
-130.87
-139.42
-145.69
-151.19
-157.51
-165.72
-176.35
-189.11
-203.03
-216.65
-228.29
-236.48
-240.14
-238.96
-233.08
-223.27
-210.39
-195.36
-179.16
-162.45
-145.9
-130.07
-115.52
-102.81
-92.54
-84.83
-79.39
-75.36
-71.15
-65.28
-56.93
-46.12
