25.74
24.2
21.8
18.4
13.92
8.46
2.35
-3.86
-9.62
-14.56
-18.66
-22.26
-25.94
-30.27
-35.6
-41.93
-48.77
-55.17
-59.88
-61.62
-59.42
-52.94
-42.53
-29.26
-14.49
0.29
13.87
25.38
34.39
40.78
44.68
46.39
46.26
44.73
42.25
39.22
35.99
32.85
29.96
27.4
25.22
23.43
22.08
21.25
20.95
21.13
21.57
21.94
21.88
21.08
19.32
16.57
12.94
8.66
3.99
-0.81
-5.55
-10.14
-14.57
-18.87
-23.08
-27.19
-31.25
-35.31
-39.5
-43.85
-48.21
-52.0
-54.28
-53.95
-50.08
-42.31
-31.08
-17.61
-3.54
9.58
20.62
29.08
35.0
38.69
40.53
40.77
39.57
37.09
33.69
29.85
26.11
22.89
20.37
18.49
17.05
15.96
15.22
15.03
15.51
16.66
18.21
19.58
20.17
19.44
17.27
13.86
9.72
5.39
1.26
-2.63
-6.48
-10.61
-15.24
-20.26
-25.34
-30.12
-34.42
-38.32
-42.05
-45.62
-48.59
-50.04
-48.79
-43.94
-35.28
-23.54
-10.17
3.14
14.91
24.34
31.22
35.86
38.68
40.06
40.22
39.27
37.33
34.51
31.01
27.13
23.17
19.53
16.61
14.8
14.28
15.01
16.59
18.43
19.81
20.14
19.18
17.07
14.29
11.35
8.65
6.23
3.76
0.75
-3.17
-8.08
-13.6
-19.1
-23.95
-27.79
-30.71
-33.23
-35.99
-39.55
-44.04
-49.02
-53.54
-56.31
-56.2
-52.48
-45.16
-34.91
-22.9
-10.46
1.27
11.49
19.83
26.16
30.53
33.09
34.06
33.78
32.64
31.02
29.17
27.16
25.0
22.72
20.47
18.56
17.32
16.94
17.37
18.23
19.04
19.39
19.09
18.2
16.88
15.28
13.39
11.1
8.25
4.8
0.85
-3.32
-7.44
-11.34
-15.0
-18.5
-21.98
-25.46
-28.92
-32.29
-35.57
-38.9
-42.42
-46.08
-49.48
-51.77
-51.87
-48.89
-42.57
-33.43
-22.57
-11.36
-0.87
8.31
16.04
22.36
27.19
30.29
31.46
30.78
28.7
26.01
23.46
21.51
20.15
19.05
17.79
16.24
14.61
13.4
13.07
13.75
15.13
16.53
17.23
16.76
15.12
12.66
9.96
7.46
5.28
3.24
0.97
-1.89
-5.48
-9.64
-14.07
-18.39
-22.32
-25.71
-28.56
-30.99
-33.22
-35.58
-38.4
-41.9
-45.96
-50.0
-52.93
-53.49
-50.62
-43.93
-33.93
-21.94
-9.59
1.6
10.74
17.66
22.67
26.25
28.75
30.25
30.66
29.91
28.14
25.7
23.02
20.52
18.44
16.92
16.03
15.8
16.2
17.15
18.43
19.71
20.62
20.87
20.32
19.01
17.09
14.79
12.28
9.59
6.69
3.44
-0.22
-4.25
-8.45
-12.6
-16.48
-20.04
-23.4
-26.74
-30.21
-33.76
-37.22
-40.44
-43.46
-46.47
-49.69
-53.0
-55.67
-56.5
-54.18
-47.85
-37.69
-24.86
-11.27
1.18
11.13
18.16
22.53
24.96
26.17
26.59
26.39
25.53
24.04
22.01
19.7
17.42
15.45
13.96
13.09
12.87
13.32
14.44
16.13
18.12
20.01
21.3
21.55
20.54
18.41
15.52
12.36
9.27
6.29
3.19
-0.4
-4.71
-9.67
-14.87
-19.77
-23.92
-27.17
-29.75
-32.11
-34.8
-38.25
-42.6
-47.58
-52.48
-56.21
-57.55
-55.44
-49.4
-39.66
-27.22
-13.55
-0.14
11.83
21.69
29.22
34.54
37.85
39.37
39.28
37.75
35.05
31.53
27.66
23.97
20.91
18.83
17.8
17.65
18.11
18.87
19.76
20.74
21.79
22.79
23.45
23.36
22.16
19.73
16.22
12.05
7.62
3.24
-1.1
-5.56
-10.32
-15.43
-20.71
-25.8
-30.34
-34.12
-37.25
-40.11
-43.29
-47.26
-52.14
-57.46
-62.19
-64.89
-64.19
-59.29
-50.13
-37.58
-23.03
-8.05
6.02
18.27
28.22
35.69
40.69
43.39
44.08
43.18
41.18
38.55
35.65
32.7
29.87
27.28
25.13
23.61
22.89
23.01
23.91
25.38
27.07
28.53
29.27
28.88
27.14
24.15
20.34
16.26
12.4
8.95
5.7
2.14
-2.27
-7.77
-14.16
-20.78
-26.81
-31.56
-34.84
-37.13
-39.36
-42.57
-47.38
-53.57
-59.89
-64.48
-65.39
-61.33
-52.12
-38.8
-23.21
-7.39
7.03
19.2
28.95
36.49
42.08
45.83
47.71
47.73
46.1
43.18
39.56
35.72
32.06
28.81
26.18
24.34
23.46
23.61
24.63
26.18
27.75
28.82
29.06
28.34
26.75
24.44
21.53
18.07
13.99
9.37
4.34
-0.8
-5.76
-10.37
-14.63
-18.67
-22.65
-26.65
-30.59
-34.42
-38.13
-41.96
-46.13
-50.65
-55.0
-58.11
-58.55
-55.07
-47.11
-35.08
-20.34
-4.71
10.05
22.65
32.47
39.42
43.68
45.57
45.42
43.63
40.65
37.07
33.41
30.07
27.18
24.76
22.75
21.2
20.3
20.27
21.2
22.88
24.89
26.59
27.39
26.87
24.94
21.76
17.72
13.23
8.59
3.91
-0.86
-5.86
-11.15
-16.6
-21.88
-26.58
-30.47
-33.61
-36.43
-39.54
-43.42
-48.07
-52.82
-56.41
-57.4
-54.58
-47.45
-36.47
-22.8
-8.13
5.9
18.0
27.39
33.83
37.57
39.09
39.0
37.84
35.92
33.36
30.19
26.45
22.46
18.77
16.03
14.72
14.95
16.35
18.26
20.0
21.09
21.41
21.09
20.32
19.17
17.51
15.11
11.84
7.72
2.98
-2.02
-7.01
-11.85
-16.48
-20.91
-25.12
-29.0
-32.52
-35.73
-38.89
-42.42
-46.67
-51.54
-56.4
-59.96
-60.72
-57.41
-49.66
-38.09
-24.2
-9.82
3.51
14.88
24.07
31.25
36.64
40.3
42.17
42.26
40.71
37.92
34.41
30.71
27.28
24.42
22.31
21.0
20.49
20.65
21.28
22.09
22.79
23.12
22.89
22.1
20.79
19.04
16.79
13.97
10.37
5.93
0.79
-4.68
-10.0
-14.74
-18.74
-22.11
-25.12
-28.13
-31.35
-34.88
-38.73
-42.81
-46.97
-50.84
-53.78
-54.89
-53.22
-48.13
-39.52
-27.99
-14.7
-1.03
11.74
22.66
31.21
37.26
40.91
42.48
42.32
40.86
38.44
35.42
32.07
28.68
25.54
22.9
20.96
19.78
19.35
19.52
20.08
20.78
21.37
21.57
21.11
19.78
17.45
14.21
10.28
6.05
1.86
-2.07
-5.81
-9.62
-13.78
-18.46
-23.49
-28.39
-32.63
-35.83
-38.0
-39.56
-41.25
-43.77
-47.4
-51.81
-55.89
-58.08
-56.89
-51.44
-41.78
-28.99
-14.81
-1.05
10.78
19.82
25.89
29.27
30.55
30.37
29.29
27.65
25.54
22.93
19.8
16.38
13.2
10.96
10.2
11.03
13.07
15.51
17.51
18.55
18.52
17.69
16.52
15.32
14.14
12.73
10.67
7.6
3.47
-1.46
-6.69
-11.62
-15.88
-19.34
-22.2
-24.82
-27.56
-30.69
-34.33
-38.49
-42.99
-47.38
-50.83
-52.27
-50.64
-45.28
-36.28
-24.51
-11.44
1.34
12.57
21.59
28.31
33.02
36.14
37.92
38.49
37.84
36.01
33.2
29.8
26.31
23.23
20.88
19.38
18.63
18.46
18.66
19.1
19.64
20.09
20.2
19.71
18.44
16.34
13.56
10.25
6.6
2.69
-1.46
-5.84
-10.37
-14.88
-19.2
-23.19
-26.89
-30.42
-33.92
-37.49
-41.14
-44.85
-48.57
-52.15
-55.24
-57.23
-57.21
-54.26
-47.76
-37.68
-24.73
-10.27
4.03
16.59
26.27
32.65
35.97
36.94
36.52
35.48
34.31
33.09
31.69
29.91
27.77
25.48
23.45
22.09
21.62
21.98
22.93
24.09
25.07
25.57
25.42
24.48
22.71
20.14
16.89
13.17
9.25
5.31
1.4
-2.59
-6.89
-11.62
-16.69
-21.74
-26.29
-29.9
-32.4
-34.09
-35.59
-37.68
-40.94
-45.43
-50.49
-54.86
-56.99
-55.6
-50.11
-40.82
-28.84
-15.68
-2.84
8.58
17.97
25.19
30.35
33.67
35.4
35.73
34.93
33.25
30.99
28.51
26.1
24.07
22.57
21.74
21.55
21.97
22.86
24.0
25.05
25.7
25.66
24.79
23.17
20.96
18.39
15.53
12.31
8.54
4.15
-0.79
-5.97
-10.95
-15.38
-19.07
-22.12
-24.79
-27.38
-30.08
-32.91
-35.86
-38.94
-42.17
-45.5
-48.6
-50.76
-50.96
-48.25
-42.04
-32.47
-20.46
-7.48
4.86
15.29
23.09
28.21
30.99
31.98
31.63
30.32
28.3
25.83
23.17
20.54
18.14
16.13
14.61
13.7
13.49
13.99
15.06
16.46
17.86
18.94
19.42
19.13
17.9
15.72
12.71
9.08
5.19
1.32
-2.37
-5.96
-9.6
-13.51
-17.74
-22.14
-26.43
-30.31
-33.62
-36.5
-39.39
-42.77
-46.88
-51.34
-55.05
-56.39
-53.85
-46.6
-35.03
-20.65
-5.65
7.89
18.64
26.2
31.02
33.86
35.4
35.99
35.71
34.47
32.29
29.39
26.14
23.04
20.54
18.91
18.24
18.4
19.13
20.13
21.15
22.02
22.58
22.67
22.06
20.54
18.06
14.76
10.94
6.96
3.03
-0.85
-4.86
-9.19
-13.94
-18.97
-23.94
-28.47
-32.31
-35.4
-38.01
-40.65
-43.91
-48.18
-53.36
-58.71
-62.92
-64.47
-62.16
-55.59
-45.25
-32.38
-18.51
-4.97
7.34
17.96
26.64
33.14
37.2
38.72
37.88
35.26
31.71
28.08
25.02
22.79
21.31
20.37
19.75
19.38
19.4
20.04
21.44
23.57
26.06
28.26
29.43
29.02
26.88
23.36
19.17
14.95
11.06
7.4
3.5
-1.08
-6.49
-12.47
-18.49
-23.96
-28.49
-32.04
-34.85
-37.35
-40.08
-43.45
-47.63
-52.32
-56.72
-59.56
-59.43
-55.3
-46.85
-34.71
-20.22
-5.04
9.31
21.74
31.65
38.86
43.48
45.73
45.97
44.6
42.06
38.74
34.93
30.9
26.93
23.39
20.68
19.17
18.98
19.98
21.77
23.82
25.63
26.88
27.41
27.18
26.21
24.49
22.0
18.8
14.98
10.71
6.19
1.55
-3.1
-7.75
-12.39
-16.96
-21.39
-25.52
-29.23
-32.5
-35.47
-38.54
-42.09
-46.3
-50.86
-54.87
-56.98
-55.85
-50.66
-41.49
-29.27
-15.51
-1.74
10.85
21.67
30.45
37.11
41.45
43.25
42.44
39.34
34.69
29.49
24.68
20.84
18.05
16.08
14.61
13.51
12.97
13.34
14.84
17.36
20.36
22.97
24.38
24.06
21.97
18.53
14.41
10.21
6.25
2.49
-1.42
-5.84
-10.97
-16.55
-22.09
-26.98
-30.85
-33.8
-36.38
-39.34
-43.22
-47.92
-52.57
-55.72
-55.81
-51.81
-43.54
-31.75
-17.88
-3.54
9.84
21.29
30.32
36.82
40.94
42.96
43.21
42.05
39.75
36.52
32.6
28.25
23.82
19.78
16.52
14.4
13.55
13.97
15.4
17.44
19.48
20.89
21.18
20.18
18.09
15.4
12.64
10.05
7.52
4.6
0.84
-3.99
-9.68
-15.63
-21.12
-25.63
-29.0
-31.51
-33.8
-36.49
-40.14
-44.92
-50.51
-56.08
-60.38
-62.0
-59.77
-53.2
-42.67
-29.32
-14.7
-0.33
12.65
23.54
31.99
37.88
41.23
42.19
41.12
38.5
34.88
30.77
26.56
22.6
19.17
16.55
14.91
14.29
14.56
15.48
16.69
17.87
18.68
18.85
18.24
16.85
14.83
12.37
9.65
6.68
3.42
-0.22
-4.21
-8.44
-12.7
-16.75
-20.4
-23.54
-26.15
-28.41
-30.63
-33.23
-36.63
-40.92
-45.75
-50.26
-53.22
-53.33
-49.77
-42.32
-31.55
-18.65
-5.07
7.79
18.82
27.39
33.28
36.69
38.02
37.78
36.47
34.44
31.96
29.2
26.35
23.69
21.52
20.11
19.56
19.78
20.61
21.82
23.26
24.79
26.24
27.26
27.39
26.14
23.17
18.43
12.12
4.68
-3.46
-11.96
-20.64
-29.41
-38.2
-46.86
-55.15
-62.78
-69.49
-75.14
-79.6
-82.71
-84.15
-83.4
-79.79
-72.7
-61.9
-47.58
-30.59
-12.2
6.11
22.94
37.24
48.36
56.07
60.43
61.75
60.49
57.27
52.84
47.95
43.29
39.37
36.49
34.75
34.11
34.41
35.32
36.42
37.27
37.58
37.31
36.6
35.68
34.59
33.12
30.87
27.53
23.02
17.6
11.72
5.72
-0.24
-6.32
-12.74
-19.62
-26.83
-34.09
-41.07
-47.61
-53.75
-59.56
-64.87
-69.12
-71.28
-70.11
-64.76
-55.14
-42.2
-27.75
-13.87
-2.33
5.93
10.95
13.5
14.57
14.97
14.99
14.53
13.28
11.06
7.99
4.55
1.44
-0.68
-1.4
-0.71
1.1
3.48
5.89
7.91
9.42
10.5
11.36
12.22
13.1
13.86
14.31
14.25
13.65
12.53
10.98
9.05
6.8
4.26
1.48
-1.49
-4.7
-8.33
-12.68
-17.91
-23.83
-29.63
-34.01
-35.48
-32.85
-25.75
-14.81
-1.53
12.19
24.6
34.56
41.75
46.49
49.43
51.15
51.91
51.68
50.21
47.37
43.26
38.29
33.02
27.97
23.48
19.62
16.35
13.61
11.35
9.63
8.38
7.49
6.73
5.89
4.86
3.69
2.52
1.39
0.22
-1.29
-3.46
-6.41
-9.94
-13.61
-16.85
-19.33
-21.05
-22.49
-24.31
-27.18
-31.43
-36.88
-42.79
-48.01
-51.21
-51.24
-47.51
-40.04
-29.57
-17.29
-4.53
7.51
17.95
26.22
32.1
35.57
36.81
36.21
34.25
31.45
28.29
25.08
22.02
19.24
16.91
15.25
14.43
14.51
15.32
16.54
17.77
18.69
19.11
18.98
18.35
17.21
15.51
13.12
9.91
5.88
1.21
-3.74
-8.57
-12.87
-16.51
-19.61
-22.52
-25.65
-29.28
-33.47
-38.03
-42.66
-46.94
-50.46
-52.67
-52.91
-50.47
-44.88
-36.13
-24.8
-12.03
0.79
12.34
21.72
28.47
32.63
34.49
34.49
33.09
30.73
27.82
24.68
21.59
18.76
16.32
14.36
12.91
12.03
11.77
12.17
13.21
14.69
16.17
17.11
16.99
15.5
12.72
9.07
5.07
1.17
-2.5
-6.15
-10.09
-14.57
-19.56
-24.74
-29.61
-33.7
-36.77
-39.08
-41.16
-43.78
-47.5
-52.28
-57.3
-61.12
-62.04
-58.78
-51.04
-39.52
-25.84
-11.78
1.15
12.08
20.76
27.29
31.91
34.77
35.97
35.73
34.31
32.09
29.4
26.49
23.51
20.67
18.23
16.53
15.89
16.41
17.93
19.89
21.64
22.51
22.11
20.48
17.98
15.13
12.31
9.6
6.65
2.99
-1.77
-7.59
-13.97
-20.16
-25.44
-29.49
-32.44
-34.83
-37.3
-40.37
-44.28
-48.92
-53.88
-58.47
-61.77
-62.72
-60.35
-54.13
-44.15
-31.27
-16.91
-2.71
9.91
20.11
27.64
32.75
35.84
37.27
37.25
35.91
33.47
30.35
27.03
24.0
21.6
19.88
18.82
18.31
18.33
18.89
19.96
21.41
22.91
24.06
24.42
23.66
21.66
18.57
14.78
10.77
6.93
3.32
-0.26
-4.2
-8.81
-14.13
-19.83
-25.34
-30.17
-34.06
-37.14
-39.83
-42.73
-46.28
-50.66
-55.52
-59.98
-62.79
-62.64
-58.56
-50.28
-38.37
-24.08
-9.05
5.2
17.48
27.11
33.87
37.85
39.44
39.21
37.79
35.74
33.42
30.92
28.24
25.36
22.47
20.06
18.7
18.81
20.38
22.95
25.7
27.8
28.65
28.09
26.33
23.79
20.82
17.62
14.17
10.33
5.96
1.04
-4.32
-9.91
-15.46
-20.74
-25.53
-29.68
-33.2
-36.29
-39.33
-42.86
-47.29
-52.53
-57.77
-61.5
-61.87
-57.46
-47.85
-33.97
-17.8
-1.71
12.34
23.38
31.37
36.88
40.58
42.8
43.53
42.66
40.2
36.45
32.02
27.6
23.78
20.88
19.01
18.08
18.01
18.72
20.16
22.15
24.34
26.15
26.97
26.34
24.16
20.69
16.42
11.84
7.17
2.36
-2.8
-8.5
-14.66
-20.95
-26.93
-32.28
-36.93
-41.09
-45.17
-49.52
-54.32
-59.49
-64.61
-69.03
-71.89
-72.22
-69.14
-62.11
-51.17
-37.08
-21.16
-4.99
9.93
22.51
32.19
38.88
42.83
44.48
44.37
43.03
40.97
38.56
36.02
33.48
31.03
28.83
27.15
26.32
26.63
28.12
30.57
33.44
36.0
37.52
37.42
35.47
31.85
27.11
21.94
16.9
12.25
7.84
3.22
-2.05
-8.12
-14.74
-21.27
-26.95
-31.27
-34.24
-36.48
-39.07
-43.09
-49.04
-56.44
-63.72
-68.63
-68.99
-63.51
-52.29
-36.8
-19.32
-2.16
12.96
25.21
34.46
40.95
45.06
47.07
47.31
46.12
43.88
40.97
37.66
34.16
30.69
27.54
25.03
23.51
23.11
23.74
25.11
26.77
28.26
29.25
29.48
28.81
27.17
24.61
21.22
17.22
12.76
7.96
2.84
-2.6
-8.31
-14.07
-19.61
-24.69
-29.17
-33.11
-36.66
-40.05
-43.54
-47.39
-51.74
-56.36
-60.57
-63.15
-62.64
-57.85
-48.4
-34.98
-19.2
-3.08
11.58
23.66
32.77
39.01
42.71
44.1
43.43
41.07
37.51
33.45
29.61
26.45
24.13
22.49
21.27
20.33
19.75
19.79
20.72
22.55
24.85
26.91
27.91
27.35
25.13
21.66
17.57
13.4
9.41
5.46
1.2
-3.68
-9.26
-15.25
-21.16
-26.44
-30.72
-33.97
-36.56
-39.1
-42.28
-46.49
-51.45
-56.23
-59.33
-59.17
-54.64
-45.56
-32.68
-17.5
-1.82
12.78
25.11
34.51
40.71
43.84
44.29
42.72
39.9
36.55
33.16
29.92
26.8
23.68
20.63
17.94
16.12
15.63
16.67
19.03
22.05
24.9
26.75
27.11
25.94
23.52
20.29
16.64
12.8
8.79
4.47
-0.28
-5.55
-11.26
-17.22
-23.13
-28.64
-33.45
-37.35
-40.36
-42.79
-45.2
-48.37
-52.79
-58.32
-63.92
-67.79
-67.96
-63.04
-52.83
-38.53
-22.3
-6.41
7.48
18.7
27.36
33.97
38.89
42.15
43.54
42.94
40.55
36.97
33.02
29.45
26.77
25.08
24.2
23.88
23.89
24.21
24.89
25.99
27.46
28.98
30.07
30.18
28.92
26.22
22.36
17.79
13.09
8.59
4.38
0.27
-4.03
-8.68
-13.57
-18.37
-22.62
-26.06
-28.72
-30.93
-33.27
-36.28
-40.22
-44.87
-49.47
-52.84
-53.7
-50.97
-44.12
-33.29
-19.32
-3.51
12.62
27.62
40.35
50.06
56.44
59.62
60.09
58.55
55.82
52.62
49.47
46.59
44.02
41.68
39.52
37.61
36.11
35.18
34.84
34.93
35.1
34.9
33.93
31.92
28.81
24.7
19.82
14.48
8.96
3.5
-1.83
-7.15
-12.7
-18.79
-25.56
-32.84
-40.2
-46.96
-52.53
-56.56
-59.16
-60.95
-62.88
-65.9
-70.56
-76.6
-82.84
-87.42
-88.3
-84.06
-74.42
-60.38
-43.84
-26.99
-11.59
1.35
11.52
18.98
23.89
26.37
26.62
25.04
22.28
18.99
15.71
12.67
9.81
7.1
4.65
2.8
1.98
2.37
3.74
5.41
6.62
6.77
5.79
4.11
2.32
0.84
-0.42
-2.04
-4.79
-9.22
-15.27
-22.3
-29.27
-35.25
-39.71
-42.8
-45.15
-47.52
-50.54
-54.48
-59.18
-64.13
-68.5
-71.3
-71.47
-68.12
-60.76
-49.57
-35.39
-19.5
-3.37
11.69
24.72
35.13
42.6
47.09
48.76
47.97
45.36
41.65
37.54
33.56
30.04
27.1
24.81
23.24
22.45
22.5
23.35
24.8
26.52
28.08
29.06
29.09
27.93
25.51
21.91
17.36
12.23
6.87
1.55
-3.66
-8.85
-14.19
-19.81
-25.61
-31.3
-36.53
-41.02
-44.84
-48.47
-52.56
-57.54
-63.22
-68.47
-71.45
-70.2
-63.34
-50.78
-33.82
-14.75
3.92
20.17
32.89
41.93
47.71
50.96
52.33
52.27
51.1
49.02
46.2
42.83
39.13
35.36
31.82
28.9
27.01
26.46
27.4
29.58
32.35
34.76
35.87
35.12
32.55
28.73
24.43
20.22
16.16
11.89
6.85
0.76
-6.2
-13.41
-20.12
-25.71
-30.09
-33.58
-36.88
-40.73
-45.68
-51.75
-58.35
-64.25
-67.77
-67.35
-61.95
-51.48
-36.85
-19.73
-2.08
14.39
28.42
39.35
47.07
51.81
54.04
54.33
53.21
51.17
48.46
45.25
41.64
37.81
34.13
31.11
29.23
28.77
29.67
31.49
33.52
35.01
35.37
34.39
32.25
29.33
26.01
22.52
18.76
14.43
9.25
3.12
-3.74
-10.82
-17.58
-23.56
-28.57
-32.69
-36.21
-39.57
-43.32
-47.92
-53.54
-59.69
-65.14
-68.04
-66.56
-59.55
-47.17
-30.95
-13.29
3.37
17.31
27.96
35.61
40.94
44.52
46.49
46.7
45.04
41.64
37.02
31.97
27.31
23.65
21.3
20.24
20.23
20.91
21.96
23.06
24.0
24.66
24.89
24.58
23.64
21.96
19.43
16.01
11.65
6.41
0.46
-5.87
-12.15
-17.97
-23.0
-27.27
-31.03
-34.8
-39.1
-44.27
-50.17
-56.11
-60.87
-62.96
-61.07
-54.52
-43.54
-29.26
-13.46
2.08
16.03
27.61
36.67
43.36
47.81
50.07
50.11
47.99
44.02
38.86
33.36
28.41
24.62
22.25
21.15
20.88
21.07
21.45
21.99
22.73
23.6
24.3
24.32
23.2
20.64
16.75
11.91
6.58
1.15
-4.19
-9.5
-14.86
-20.28
-25.62
-30.66
-35.22
-39.36
-43.28
-47.36
-51.92
-57.14
-62.77
-68.18
-72.3
-73.79
-71.41
-64.35
-52.65
-37.2
-19.62
-1.86
14.37
27.85
37.97
44.72
48.41
49.54
48.72
46.58
43.7
40.61
37.57
34.67
31.89
29.2
26.77
24.88
23.89
24.01
25.2
27.04
28.84
29.84
29.5
27.66
24.53
20.56
16.18
11.66
7.01
2.11
-3.18
-8.88
-14.92
-21.12
-27.18
-32.79
-37.65
-41.57
-44.6
-47.12
-49.76
-53.2
-57.82
-63.37
-68.84
-72.64
-73.04
-68.7
-59.17
-45.07
-27.97
-9.92
7.03
21.42
32.65
40.85
46.55
50.3
52.38
52.8
51.48
48.5
44.29
39.62
35.32
32.03
30.0
29.13
29.07
29.48
30.17
31.03
32.0
32.9
33.37
32.98
31.37
28.39
24.21
19.23
13.95
8.72
3.64
-1.4
-6.61
-12.14
-17.95
-23.78
-29.27
-34.08
-38.06
-41.32
-44.11
-46.85
-49.94
-53.72
-58.28
-63.36
-68.21
-71.6
-72.1
-68.45
-59.99
-47.02
-30.69
-12.77
4.81
20.44
33.08
42.22
47.88
50.39
50.32
48.39
45.39
42.01
38.73
35.71
32.92
30.23
27.62
25.37
23.93
23.76
25.08
27.67
30.89
33.81
35.56
35.47
33.39
29.6
24.74
19.51
14.47
9.82
5.42
0.92
-4.06
-9.67
-15.76
-21.88
-27.54
-32.32
-36.04
-38.82
-40.99
-42.94
-45.16
-48.06
-51.88
-56.52
-61.35
-65.15
-66.31
-63.31
-55.26
-42.41
-26.17
-8.65
8.05
22.4
33.82
42.44
48.68
52.8
54.73
54.25
51.33
46.38
40.25
34.05
28.76
24.98
22.81
21.93
21.87
22.25
22.89
23.9
25.39
27.28
29.22
30.55
30.5
28.54
24.56
19.03
12.86
7.03
2.23
-1.44
-4.46
-7.7
-11.94
-17.55
-24.24
-31.22
-37.46
-42.24
-45.42
-47.43
-49.18
-51.55
-55.18
-60.17
-66.03
-71.72
-75.76
-76.63
-73.04
-64.39
-50.98
-34.02
-15.33
3.11
19.6
33.06
43.01
49.48
52.82
53.53
52.18
49.31
45.45
41.01
36.35
31.78
27.62
24.2
21.84
20.74
20.92
22.22
24.26
26.6
28.75
30.33
30.99
30.52
28.8
25.88
21.92
17.29
12.38
7.53
2.94
-1.43
-5.87
-10.7
-16.09
-21.97
-28.01
-33.71
-38.67
-42.65
-45.66
-47.99
-50.07
-52.37
-55.39
-59.33
-63.99
-68.54
-71.59
-71.5
-66.84
-57.0
-42.47
-24.75
-5.91
11.93
27.22
39.07
47.24
51.97
53.75
53.14
50.78
47.3
43.24
38.92
34.56
30.22
26.0
22.25
19.41
18.0
18.34
20.36
23.55
27.06
29.96
31.52
31.4
29.69
26.83
23.28
19.43
15.47
11.39
7.02
2.24
-3.05
-8.79
-14.82
-20.89
-26.74
-32.06
-36.64
-40.34
-43.2
-45.51
-47.75
-50.46
-54.06
-58.56
-63.34
-67.19
-68.49
-65.77
-58.22
-46.04
-30.5
-13.45
3.11
17.68
29.43
38.24
44.26
47.67
48.55
46.91
43.02
37.51
31.31
25.37
20.42
16.76
14.3
12.84
12.18
12.33
13.43
15.51
18.36
21.5
24.21
25.7
25.45
23.34
19.69
15.14
10.48
6.21
2.44
-1.12
-4.99
-9.59
-15.06
-21.1
-27.17
-32.67
-37.2
-40.73
-43.61
-46.49
-50.02
-54.61
-60.01
-65.19
-68.48
-68.02
-62.56
-51.84
-36.88
-19.49
-1.77
14.57
28.45
39.4
47.27
52.04
53.74
52.62
49.26
44.52
39.34
34.51
30.41
27.11
24.45
22.19
20.31
19.08
18.92
20.15
22.76
26.26
29.78
32.25
32.95
31.75
29.26
26.53
24.52
23.68
23.84
24.41
24.37
23.04
20.41
17.26
14.92
14.56
16.81
21.59
28.36
35.48
41.28
44.61
45.41
44.74
44.29
45.76
50.41
58.77
69.21
79.0
85.41
86.83
83.33
75.89
65.58
52.85
37.21
15.53
-16.11
-60.88
-119.43
-189.16
-265.19
-341.71
-413.26
-464.65
-482.4
-459.53
-400.33
-318.76
-230.77
-147.97
-75.67
-14.76
35.47
74.02
99.25
110.06
106.91
93.72
75.61
57.14
41.58
30.09
20.79
10.52
-3.85
-24.43
-51.93
-86.31
-127.01
-170.35
-211.23
-243.74
-262.17
-263.11
-246.93
-217.95
-183.17
-149.69
-122.17
-102.23
-89.23
-81.69
-78.45
-78.66
-81.31
-84.86
-87.38
-87.05
-83.25
-76.61
-68.47
-60.15
-51.95
-42.87
-31.06
-14.67
7.48
35.22
67.21
101.52
136.2
170.09
203.11
236.35
271.62
310.38
352.46
395.19
433.49
460.98
472.19
464.57
439.56
402.05
358.55
314.92
274.82
239.45
208.17
179.8
153.34
128.28
104.35
81.33
59.14
38.07
19.05
3.4
-7.45
-12.56
-12.06
-7.08
0.49
8.6
15.63
20.66
23.5
24.39
23.71
21.68
18.5
14.3
9.35
4.13
-0.82
-5.04
-8.28
-10.59
-12.25
-13.4
-14.13
-14.31
-13.69
-12.24
-10.16
-8.0
-6.4
-5.99
-6.93
-9.07
-11.95
-15.0
-17.82
-20.24
-22.32
-24.15
-25.84
-27.41
-28.85
-30.29
-31.88
-33.93
-36.56
-39.72
-42.91
-45.34
-46.08
-44.38
-39.89
-32.82
-23.84
-13.85
-3.86
5.25
12.83
18.39
21.71
22.74
21.72
19.06
15.4
11.39
7.52
4.1
1.09
-1.67
-4.35
-6.87
-9.04
-10.48
-10.91
-10.35
-9.13
-7.83
-7.0
-7.05
-7.99
-9.6
-11.54
-13.55
-15.53
-17.56
-19.8
-22.27
-24.87
-27.34
-29.47
-31.18
-32.68
-34.43
-36.87
-40.25
-44.26
-48.1
-50.65
-50.79
-47.88
-41.9
-33.59
-24.08
-14.53
-5.84
1.57
7.67
12.67
16.68
19.68
21.47
21.9
20.98
18.99
16.45
13.94
11.94
10.55
9.58
8.64
7.42
5.92
4.38
3.23
2.76
2.96
3.42
3.6
2.99
1.29
-1.4
-4.9
-8.87
-13.03
-17.1
-20.77
-23.88
-26.42
-28.77
-31.5
-35.27
-40.33
-46.42
-52.66
-57.72
-60.24
-59.23
-54.39
-46.13
-35.42
-23.48
-11.4
0.04
10.39
19.34
26.56
31.61
34.11
34.04
31.81
28.28
24.37
20.81
17.78
15.1
12.31
9.09
5.44
1.69
-1.5
-3.49
-3.83
-2.57
-0.31
1.88
2.93
2.03
-0.95
-5.37
-10.27
-14.71
-18.14
-20.62
-22.58
-24.54
-26.89
-29.85
-33.31
-37.1
-40.84
-43.94
-45.65
-45.19
-42.1
-36.33
-28.56
-19.73
-10.96
-3.11
3.45
8.69
12.82
15.94
18.01
18.75
17.94
15.57
12.05
8.13
4.62
2.15
0.73
-0.08
-1.0
-2.57
-4.81
-7.12
-8.56
-8.4
-6.53
-3.69
-1.22
-0.48
-2.27
-6.48
-12.12
-17.72
-22.07
-24.6
-25.69
-26.38
-27.81
-30.85
-35.63
-41.68
-48.05
-53.69
-57.62
-59.11
-57.8
-53.69
-47.17
-38.82
-29.33
-19.25
-8.99
1.06
10.4
18.37
24.24
27.4
27.82
26.0
22.92
19.64
16.92
15.04
13.76
12.68
11.41
9.94
8.53
7.54
7.27
7.73
8.62
9.47
9.8
9.14
7.34
4.38
0.45
-4.03
-8.58
-12.71
-16.15
-18.91
-21.36
-24.04
-27.52
-32.24
-38.32
-45.52
-53.09
-59.99
-64.84
-66.39
-63.8
-57.02
-46.85
-34.72
-22.39
-11.28
-2.34
4.17
8.46
11.14
12.81
14.03
15.21
16.43
17.67
18.72
19.47
19.84
19.94
19.91
19.88
20.04
20.45
21.31
22.65
24.52
26.9
29.64
32.7
35.85
38.83
41.19
42.35
41.82
39.64
36.44
33.48
32.75
36.41
46.44
64.03
89.14
120.19
154.58
189.23
221.03
247.34
265.85
274.57
272.01
257.91
233.81
203.37
171.78
144.09
123.86
111.72
105.65
101.82
96.11
85.6
69.02
47.15
22.35
-2.08
-23.07
-38.56
-48.09
-53.14
-56.38
-60.96
-69.53
-83.35
-101.61
-122.04
-141.27
-155.96
-163.97
-165.1
-161.06
-154.91
-149.74
-147.27
-147.39
-148.27
-147.44
-143.17
-135.51
-126.25
-117.75
-111.92
-108.82
-106.63
-102.62
-94.37
-81.15
-64.11
-45.93
-29.5
-16.93
-8.85
-4.31
-1.51
1.44
5.52
10.7
15.66
18.63
18.19
13.75
6.22
-2.47
-10.16
-15.46
-18.07
-19.1
-20.23
-22.98
-28.02
-35.03
-42.87
-50.04
-55.43
-58.45
-59.32
-58.92
-58.48
-59.34
-62.31
-67.41
-73.59
-79.06
-81.9
-80.9
-76.15
-69.03
-62.0
-56.96
-55.0
-55.49
-56.19
-54.32
-47.36
-33.96
-14.29
9.59
34.8
58.09
76.59
88.84
94.75
95.54
93.16
89.86
87.24
86.2
86.55
87.22
86.95
84.93
81.36
77.3
74.32
73.25
73.76
74.15
72.46
67.54
59.64
50.57
42.14
35.62
30.97
27.35
23.67
19.23
14.28
9.06
3.95
-1.13
-6.53
-12.55
-19.17
-25.75
-31.48
-35.23
-36.48
-35.01
-31.07
-25.25
-18.16
-10.55
-2.97
3.69
8.61
11.06
10.81
8.22
4.39
0.46
-2.84
-5.1
-6.48
-7.27
-7.84
-8.61
-10.14
-12.94
-17.03
-22.17
-27.14
-30.69
-31.9
-30.8
-28.29
-25.89
-24.76
-24.96
-25.89
-26.12
-24.62
-21.08
-16.14
-11.17
-7.46
-5.99
-6.74
-8.94
-11.14
-11.97
-10.34
-5.85
0.79
8.08
14.08
16.9
15.55
10.58
3.73
-2.43
-5.37
-3.92
1.42
8.59
14.72
17.28
15.72
11.17
6.35
4.35
6.86
13.54
21.75
28.03
29.36
25.04
16.86
8.12
2.34
1.22
4.37
9.29
13.01
13.28
9.42
2.47
-5.41
-11.92
-15.54
-15.72
-13.31
-9.88
-7.16
-6.54
-8.29
-11.47
-14.35
-15.26
-13.36
-9.16
-4.25
-0.6
0.45
-1.26
-4.7
-8.04
-9.76
-9.08
-6.36
-2.49
1.38
4.42
6.71
8.4
10.02
11.96
14.21
16.53
18.78
20.96
22.94
24.85
26.2
26.49
25.55
23.67
21.74
20.82
21.5
23.21
24.82
25.09
23.59
21.25
20.12
22.14
28.25
37.96
49.26
59.96
68.29
73.8
77.19
79.87
83.45
88.74
95.76
103.55
111.06
117.4
122.67
127.78
133.74
141.38
150.39
159.78
167.97
173.86
176.78
176.76
174.59
170.83
166.04
160.41
153.92
146.43
138.2
129.72
121.8
115.37
110.63
107.03
103.05
97.04
87.89
75.57
61.15
46.1
31.61
17.98
4.63
-9.54
-25.18
-42.19
-59.78
-76.66
-91.69
-104.15
-114.0
-121.38
-126.83
-130.8
-133.45
-134.95
-135.12
-133.74
-130.67
-126.19
-120.97
-116.31
-113.67
-113.92
-117.34
-123.06
-129.92
-136.89
-143.57
-150.23
-157.29
-165.29
-174.15
-183.34
-191.76
-198.1
-201.04
-199.65
-193.96
-185.03
-175.28
-167.44
-163.65
-164.21
-167.46
-170.37
-169.7
-163.71
-152.58
-138.23
-123.03
-108.36
-94.17
-79.14
-61.88
-41.82
-19.99
1.29
19.25
31.77
38.21
39.4
37.88
36.58
38.23
44.02
53.07
62.63
69.4
70.78
66.02
57.13
47.31
39.99
37.17
38.76
42.78
46.38
47.07
43.24
35.29
24.78
13.97
5.0
-1.04
-4.31
-5.83
-6.94
-8.86
-12.19
-16.88
-22.51
-28.06
-32.56
-35.07
-35.3
-33.71
-31.56
-30.28
-30.92
-33.33
-36.15
-37.67
-36.49
-32.63
-27.66
-24.18
-24.28
-28.95
-37.1
-45.81
-51.83
-52.6
-47.66
-38.71
-29.02
-21.59
-18.4
-19.28
-22.06
-23.92
-22.46
-17.03
-8.85
-0.62
4.97
6.6
4.64
1.32
-0.78
-0.06
3.26
7.6
10.88
11.64
9.93
6.72
3.56
1.47
1.02
1.96
3.86
6.24
8.19
9.17
8.65
6.91
4.78
3.69
4.63
7.64
11.68
14.57
14.77
11.77
6.73
1.93
-0.48
0.65
4.72
9.91
13.76
14.77
12.53
7.84
2.47
-2.11
-4.71
-5.11
-3.7
-1.49
0.43
1.05
-0.14
-2.84
-6.25
-9.13
-10.89
-11.45
-11.6
-12.19
-13.8
-16.39
-19.22
-21.67
-23.36
-24.44
-25.35
-26.54
-27.93
-29.22
-30.03
-29.77
-28.46
-26.2
-23.39
-20.71
-18.87
-18.34
-19.11
-20.86
-22.79
-24.39
-25.8
-27.87
-31.49
-37.51
-45.93
-55.93
-66.53
-76.97
-87.43
-98.89
-112.59
-128.95
-147.42
-166.6
-184.85
-201.15
-215.14
-227.19
-237.46
-245.6
-250.15
-248.55
-238.41
-217.84
-186.63
-146.24
-99.4
-49.13
1.71
50.72
95.76
134.49
164.74
184.86
194.57
195.2
189.29
179.82
169.06
158.59
149.32
142.37
138.7
139.05
143.04
148.9
153.95
155.52
152.18
144.09
133.32
122.5
114.12
109.7
108.89
110.09
110.67
108.34
101.78
91.65
79.83
68.82
60.69
55.67
52.51
48.78
42.21
31.69
18.1
3.87
-8.12
-15.38
-17.4
-15.44
-12.42
-11.56
-15.1
-23.16
-33.56
-42.72
-46.94
-44.2
-35.07
-22.56
-10.66
-2.55
0.89
1.44
2.12
5.86
13.55
23.73
33.34
39.44
40.55
37.22
31.79
27.01
24.92
26.02
29.42
33.15
35.24
34.37
30.19
23.71
16.87
11.84
10.16
12.16
16.48
20.78
22.76
20.98
15.89
9.19
3.27
-0.16
-0.74
0.4
1.22
-0.19
-4.89
-12.57
-21.92
-30.84
-37.38
-40.15
-38.7
-33.65
-26.41
-18.8
-12.26
-7.38
-3.6
0.4
5.96
13.54
22.32
30.19
34.84
34.91
30.83
24.76
19.93
18.89
22.58
29.61
36.94
41.28
40.8
35.81
28.66
22.69
20.41
22.51
27.6
33.02
36.15
35.56
31.31
24.73
17.73
11.87
7.93
5.81
4.75
3.49
0.73
-4.33
-11.76
-20.62
-29.24
-35.82
-39.08
-38.53
-34.67
-28.83
-22.2
-15.87
-10.2
-4.97
0.62
7.2
15.02
23.57
31.29
36.6
38.13
35.74
30.74
25.48
22.18
22.13
25.08
29.2
32.5
33.49
32.06
29.49
27.49
27.45
29.59
32.99
35.92
36.8
34.62
29.56
22.78
15.89
10.62
7.78
7.19
7.58
7.49
5.55
1.32
-4.41
-10.7
-16.33
-20.99
-24.91
-28.66
-32.17
-34.78
-35.34
-32.57
-26.38
-17.59
-7.93
0.8
7.54
12.46
16.6
21.0
26.25
31.62
35.8
37.4
36.12
32.87
29.47
27.84
28.78
31.97
35.87
38.78
39.48
37.84
34.84
31.63
29.43
28.69
29.19
29.98
30.03
28.41
24.8
19.83
14.34
9.58
6.29
4.53
3.6
2.53
0.37
-3.34
-8.35
-14.31
-20.42
-25.99
-30.3
-32.85
-33.61
-32.77
-31.15
-29.3
-27.32
-24.58
-20.08
-12.96
-3.1
8.34
19.43
27.84
31.96
31.45
27.71
23.02
19.78
19.69
22.81
27.89
32.87
35.72
35.36
32.28
27.91
24.19
22.75
24.13
27.6
31.32
33.51
32.77
29.01
23.62
18.43
15.28
14.89
16.67
18.92
19.89
18.21
13.51
6.69
-0.75
-7.02
-10.99
-12.3
-11.89
-11.22
-11.71
-14.17
-18.04
-21.75
-23.37
-21.56
-16.01
-7.84
1.11
8.88
13.98
15.96
15.23
13.03
10.8
9.8
10.53
12.56
14.78
15.87
15.02
12.2
8.54
5.57
4.71
6.57
10.57
15.1
17.88
17.39
12.99
5.75
-1.85
-7.21
-8.63
-6.11
-1.46
2.32
2.91
-0.87
-8.16
-16.44
-22.9
-25.56
-24.25
-20.62
-17.59
-17.68
-21.91
-29.38
-37.31
-42.47
-42.65
-37.67
-29.19
-20.09
-12.73
-8.2
-6.08
-4.82
-2.96
0.46
5.07
9.85
13.55
15.31
15.02
13.4
11.54
10.3
10.26
11.15
12.47
13.85
15.02
16.16
17.33
18.36
18.62
17.52
14.93
11.34
7.88
5.37
4.07
3.24
2.02
-0.35
-3.6
-6.73
-8.62
-8.66
-7.49
-6.23
-6.25
-8.08
-11.51
-15.64
-19.61
-22.77
-24.93
-26.23
-26.54
-25.94
-24.44
-22.08
-19.22
-16.06
-12.7
-9.1
-5.33
-1.25
2.92
6.85
10.23
12.49
13.31
12.42
10.22
7.32
4.93
4.04
4.95
7.24
9.78
11.42
11.38
9.93
7.78
6.05
5.53
6.43
8.34
10.26
11.4
10.82
8.28
4.34
-0.09
-3.7
-5.52
-5.15
-3.25
-0.88
0.33
-0.64
-3.93
-8.99
-14.42
-18.91
-21.4
-21.84
-20.74
-19.31
-18.55
-18.95
-20.26
-21.31
-20.77
-17.47
-11.39
-3.59
3.98
9.25
10.98
9.07
5.13
1.27
-0.51
0.76
4.49
9.1
12.4
12.99
10.43
6.01
1.64
-0.64
0.35
4.12
9.05
12.59
13.0
9.81
4.34
-1.15
-4.39
-4.16
-1.23
2.47
4.58
3.63
-0.14
-5.26
-9.55
-11.51
-10.7
-8.14
-5.55
-4.65
-6.5
-11.15
-17.79
-24.64
-29.82
-31.54
-28.97
-22.71
-14.59
-7.16
-2.64
-2.04
-4.29
-7.28
-8.57
-6.51
-1.2
5.75
11.86
14.88
13.58
8.56
1.99
-3.45
-5.31
-2.78
2.97
9.2
12.96
12.21
7.11
-0.16
-6.65
-9.77
-8.64
-4.17
1.45
5.98
8.07
7.35
4.45
0.55
-3.23
-6.09
-7.51
-7.57
-6.8
-6.06
-6.69
-9.66
-15.09
-22.0
-28.6
-32.94
-33.8
-31.32
-26.78
-22.07
-18.68
-17.05
-16.21
-14.62
-10.83
-4.33
3.89
11.75
16.67
17.09
12.8
5.69
-1.17
-4.9
-4.11
0.57
6.8
11.57
13.02
10.73
6.07
1.48
-0.94
-0.05
3.69
8.77
12.96
14.57
13.01
8.84
3.76
-0.44
-2.61
-2.86
-2.13
-1.79
-2.73
-5.04
-8.08
-11.06
-13.49
-15.19
-16.74
-18.58
-20.87
-23.31
-25.27
-26.1
-25.53
-23.9
-21.62
-19.15
-16.44
-13.02
-8.5
-2.81
3.32
8.95
12.94
14.8
14.85
13.82
12.67
11.88
11.72
11.86
12.08
12.2
12.09
11.73
11.27
10.84
10.56
10.83
11.83
13.47
15.4
16.77
16.73
14.71
10.84
5.9
1.24
-1.99
-3.42
-3.51
