29.2
30.9
32.25
33.08
33.53
33.8
33.94
33.66
32.49
29.98
25.98
20.72
14.74
8.68
2.98
-2.25
-7.27
-12.44
-18.09
-24.21
-30.52
-36.49
-41.59
-45.74
-49.16
-52.5
-56.56
-61.92
-68.48
-75.3
-80.64
-82.31
-78.58
-68.63
-53.09
-33.75
-13.09
6.58
23.63
37.27
47.4
54.11
57.61
58.1
56.04
52.18
47.53
43.04
39.24
36.24
33.73
31.43
29.31
27.74
27.29
28.35
30.9
34.22
37.22
38.74
38.02
34.92
30.05
24.43
19.08
14.68
11.06
7.55
3.15
-2.77
-10.19
-18.29
-25.88
-31.94
-36.13
-38.91
-41.2
-44.0
-47.94
-53.13
-59.27
-65.86
-72.18
-77.28
-79.95
-78.78
-72.61
-60.99
-44.46
-24.62
-3.7
15.92
32.34
44.37
51.73
54.78
54.41
51.74
47.78
43.33
38.82
34.38
29.98
25.77
22.01
19.2
17.78
17.91
19.44
21.76
24.14
25.89
26.67
26.35
25.04
22.94
20.17
16.82
12.85
8.36
3.36
-2.0
-7.6
-13.31
-18.97
-24.49
-29.75
-34.74
-39.39
-43.73
-47.79
-51.69
-55.75
-60.17
-64.99
-69.58
-72.73
-72.67
-67.8
-57.29
-41.56
-22.31
-2.0
16.8
32.24
43.33
50.08
53.08
53.14
51.09
47.66
43.48
39.01
34.65
30.52
26.69
23.2
20.24
18.23
17.6
18.7
21.37
24.98
28.38
30.36
30.07
27.39
22.9
17.64
12.69
8.6
5.32
2.21
-1.52
-6.44
-12.64
-19.66
-26.74
-33.11
-38.35
-42.54
-46.28
-50.33
-55.41
-61.88
-69.31
-76.64
-82.14
-83.96
-80.58
-71.42
-57.01
-38.94
-19.49
-0.78
15.61
28.93
39.18
46.66
51.61
54.12
54.24
52.12
48.35
43.82
39.48
36.04
33.78
32.48
31.68
31.04
30.39
29.92
29.84
30.26
30.98
31.52
31.29
29.86
27.05
23.03
18.22
13.01
7.75
2.61
-2.4
-7.3
-12.12
-16.96
-21.93
-27.15
-32.75
-38.66
-44.55
-50.15
-55.33
-60.25
-65.32
-70.72
-75.84
-79.21
-78.74
-72.47
-59.63
-41.11
-19.32
2.47
21.27
35.29
44.13
48.64
50.28
50.4
49.88
48.88
47.14
44.18
39.88
34.58
29.21
24.91
22.63
22.74
24.79
27.76
30.34
31.61
31.22
29.48
27.03
24.46
22.03
19.54
16.57
12.66
7.66
1.69
-4.88
-11.58
-18.03
-24.01
-29.41
-34.19
-38.43
-42.32
-46.18
-50.49
-55.6
-61.47
-67.36
-71.79
-72.86
-68.85
-58.94
-43.67
-24.84
-4.92
13.65
29.22
41.01
49.05
53.73
55.53
54.82
52.04
47.73
42.59
37.35
32.6
28.61
25.48
23.13
21.6
20.97
21.41
22.86
24.97
27.04
28.28
28.08
26.23
23.09
19.26
15.33
11.5
7.53
2.91
-2.77
-9.55
-17.03
-24.43
-31.0
-36.31
-40.38
-43.72
-47.11
-51.31
-56.81
-63.63
-71.08
-77.92
-82.53
-83.19
-78.75
-68.8
-53.96
-35.67
-15.9
3.38
20.57
34.56
44.86
51.47
54.77
55.36
53.98
51.31
47.95
44.34
40.75
37.39
34.41
32.02
30.29
29.3
29.04
29.44
30.35
31.56
32.75
33.5
33.29
31.64
28.35
23.56
17.84
11.94
6.53
1.86
-2.37
-6.77
-11.96
-18.1
-24.81
-31.27
-36.66
-40.66
-43.67
-46.74
-50.99
-57.02
-64.2
-70.77
-74.14
-71.85
-62.6
-46.71
-26.24
-4.13
16.69
34.3
47.94
57.97
65.12
70.06
73.24
74.81
75.0
74.1
72.54
70.65
68.71
67.03
65.96
65.99
67.5
70.57
74.82
79.44
83.41
85.95
86.73
85.87
83.8
80.87
77.06
71.9
64.81
55.35
43.69
30.61
17.07
3.85
-9.03
-22.32
-37.37
-55.11
-75.77
-98.37
-120.91
-141.14
-157.23
-168.37
-174.77
-177.63
-178.11
-177.02
-174.09
-168.1
-157.56
-141.45
-120.12
-95.48
-70.81
-49.51
-34.04
-25.26
-22.02
-21.97
-22.28
-20.73
-16.19
-8.9
-0.04
8.88
16.33
21.71
25.28
28.25
32.21
38.44
47.38
58.22
69.29
78.53
84.68
87.35
87.17
84.91
80.87
74.4
64.03
48.52
27.79
3.54
-21.12
-42.76
-58.68
-68.0
-71.64
-71.75
-70.62
-69.7
-69.08
-67.57
-63.37
-54.7
-40.97
-22.97
-2.76
16.88
33.48
45.62
53.27
57.51
60.0
61.99
64.09
66.28
68.05
69.01
69.13
68.65
67.9
67.18
66.6
66.11
65.73
65.43
65.01
64.05
61.77
57.29
50.07
40.33
29.04
17.78
8.15
1.41
-1.68
-0.79
4.05
12.54
24.01
37.29
50.87
63.09
72.55
78.24
79.72
77.17
71.28
63.29
54.95
47.82
42.87
40.06
38.22
35.62
30.79
23.05
12.78
1.23
-10.09
-19.98
-27.86
-33.95
-39.11
-44.48
-50.93
-58.85
-67.72
-76.32
-83.25
-87.49
-88.88
-88.18
-86.76
-85.97
-86.7
-89.13
-92.71
-96.44
-99.34
-100.8
-100.73
-99.81
-99.02
-99.2
-100.76
-103.29
-105.78
-107.14
-106.7
-104.4
-100.94
-97.34
-94.49
-93.06
-93.04
-93.93
-94.4
-92.82
-87.42
-77.05
-61.78
-42.87
-22.52
-3.06
13.79
27.47
38.17
46.55
53.09
57.85
60.58
60.96
58.99
54.99
49.76
44.42
39.99
37.24
36.35
36.83
37.65
37.91
36.94
34.87
32.54
30.91
30.81
32.37
35.12
38.09
40.29
40.96
39.89
37.43
34.43
31.84
30.33
29.94
29.73
28.11
23.54
15.02
3.0
-10.75
-23.56
-32.83
-36.86
-35.48
-29.83
-21.81
-13.39
-5.76
0.7
6.5
12.3
18.52
24.97
30.61
34.12
34.44
31.36
25.76
19.56
14.72
12.7
13.82
17.15
21.17
24.32
25.59
24.72
22.17
18.81
15.48
12.81
10.89
9.25
6.93
3.02
-2.95
-10.53
-18.19
-24.19
-27.07
-26.62
-24.05
-21.56
-21.23
-24.28
-30.35
-37.57
-43.29
-44.89
-40.71
-30.48
-15.69
1.18
17.43
30.81
40.5
47.05
51.78
56.02
60.44
64.63
67.5
67.88
64.91
58.72
50.32
41.44
33.9
29.06
27.26
27.55
28.28
27.7
24.86
20.04
14.68
10.44
8.44
8.64
9.83
10.22
8.18
3.0
-4.89
-14.06
-22.46
-28.41
-31.17
-31.32
-30.8
-32.15
-37.14
-46.1
-57.3
-67.28
-72.46
-70.28
-60.37
-44.5
-25.92
-7.87
7.43
19.17
27.95
34.98
41.15
46.64
50.95
53.24
53.02
50.48
46.35
41.71
37.52
34.3
32.01
30.4
29.16
27.98
26.57
24.71
22.05
18.43
14.19
9.72
5.64
2.4
-0.13
-2.52
-5.62
-10.22
-16.65
-24.43
-32.48
-39.47
-44.33
-46.9
-47.94
-48.84
-50.82
-54.5
-59.33
-63.72
-65.76
-63.8
-57.1
-45.86
-31.26
-15.01
1.01
15.14
26.28
34.18
39.21
42.11
43.8
44.6
44.43
43.09
40.35
36.44
32.21
28.55
26.21
25.5
26.14
27.36
28.29
28.11
26.26
22.73
18.15
13.37
9.47
7.09
6.06
5.56
4.45
1.74
-2.78
-8.43
-14.27
-19.21
-22.72
-24.91
-26.47
-28.42
-31.59
-36.55
-43.05
-50.04
-55.69
-57.94
-55.03
-46.17
-32.12
-15.04
2.14
16.51
26.29
31.33
32.85
32.82
33.09
34.4
36.25
37.38
36.31
32.21
25.65
18.04
11.35
7.33
6.61
8.54
11.33
12.99
11.8
7.52
1.35
-4.76
-8.83
-10.06
-9.08
-7.7
-7.79
-10.57
-16.05
-23.14
-30.3
-36.14
-40.04
-42.15
-43.37
-44.91
-48.0
-53.06
-59.52
-65.36
-67.76
-64.21
-53.63
-37.11
-17.63
0.85
15.32
24.3
28.35
29.53
29.94
30.92
32.5
33.8
33.43
30.55
25.31
18.61
12.19
7.7
6.11
7.23
9.98
12.65
13.83
12.98
10.26
6.7
3.32
0.86
-0.69
-1.77
-3.14
-5.5
-9.15
-13.93
-19.33
-24.7
-29.31
-32.92
-35.6
-37.74
-39.9
-42.43
-45.32
-48.11
-50.0
-49.89
-46.66
-39.56
-28.38
-13.95
1.98
16.97
28.87
36.13
38.64
37.56
34.53
31.21
28.41
26.23
24.17
21.78
18.88
15.77
12.98
11.03
10.14
10.06
10.41
10.59
10.18
9.18
7.7
6.04
4.45
2.85
0.99
-1.33
-4.13
-7.26
-10.41
-13.58
-17.02
-21.32
-26.73
-33.25
-40.32
-47.08
-52.82
-57.04
-59.33
-59.32
-56.42
-49.83
-39.28
-25.23
-9.08
7.17
21.48
32.35
39.29
42.5
42.76
41.21
38.58
35.6
32.82
30.75
29.69
29.71
30.27
30.42
29.43
26.75
22.94
19.17
16.88
16.94
18.99
21.58
22.54
20.18
14.2
5.74
-3.03
-9.85
-13.32
-13.62
-12.32
-11.62
-13.55
-18.96
-27.2
-36.64
-45.32
-51.65
-54.95
-55.32
-53.21
-49.17
-43.59
-36.62
-28.27
-18.62
-7.73
4.01
15.84
26.53
34.65
38.87
38.5
34.23
27.65
21.12
16.83
15.94
18.05
21.44
23.9
23.47
19.74
13.99
8.5
5.65
6.62
10.84
16.25
20.43
21.37
18.52
12.75
5.73
-0.66
-5.3
-7.99
-9.55
-11.3
-14.36
-19.27
-25.75
-32.79
-39.22
-44.22
-47.37
-48.67
-48.4
-46.68
-43.33
-38.24
-31.2
-22.06
-11.11
1.2
14.06
26.28
36.48
43.25
45.66
43.49
37.83
30.54
23.9
19.73
18.63
19.96
21.92
22.8
21.47
18.04
13.82
10.39
9.07
10.15
12.99
16.1
17.89
17.37
14.2
9.01
3.1
-2.23
-6.17
-8.54
-9.95
-11.43
-13.9
-17.89
-23.41
-29.91
-36.52
-42.5
-47.12
-49.7
-49.69
-46.51
-39.86
-30.04
-18.01
-4.95
7.81
19.45
29.64
38.15
44.66
48.45
49.06
46.33
41.17
35.18
30.01
26.72
25.25
24.88
24.57
23.7
22.14
20.17
18.12
16.28
14.74
13.51
12.75
12.36
12.05
11.5
10.01
7.19
3.06
-2.01
-7.38
-12.18
-15.93
-18.52
-20.33
-22.26
-25.34
-30.43
-37.55
-46.01
-54.1
-59.77
-61.34
-57.95
-49.91
-38.53
-25.57
-12.39
0.06
11.56
22.21
31.96
40.48
46.96
50.62
50.72
47.33
41.39
34.39
28.18
24.14
22.95
24.04
26.16
27.49
26.7
23.6
18.96
14.52
11.9
12.02
14.38
17.4
19.11
17.94
13.47
6.56
-1.12
-7.83
-12.39
-14.57
-15.14
-15.48
-16.97
-20.7
-26.99
-35.11
-43.87
-51.61
-56.84
-58.4
-55.86
-49.55
-40.32
-29.62
-18.52
-7.81
2.3
12.11
21.85
31.38
39.85
46.17
49.04
47.91
43.22
36.31
29.32
24.22
22.29
23.4
26.17
28.63
29.02
26.71
22.56
18.39
15.99
16.34
18.97
22.34
24.5
24.0
20.33
14.13
6.96
0.31
-4.63
-7.66
-9.37
-10.91
-13.46
-17.68
-23.53
-30.06
-36.16
-40.82
-43.74
-45.24
-46.16
-47.26
-48.32
-48.44
-45.96
-39.27
-27.86
-12.59
4.34
20.13
32.18
39.26
41.26
39.25
34.99
30.24
26.39
24.04
23.11
22.7
21.79
19.71
16.33
12.55
9.71
8.96
10.58
14.01
17.85
20.57
21.05
19.12
15.3
10.67
6.64
4.02
3.24
4.04
5.52
6.58
6.07
3.24
-2.39
-10.56
-20.63
-31.54
-42.04
-51.1
-57.98
-62.75
-65.86
-68.08
-69.82
-70.59
-69.19
-64.02
-54.11
-39.44
-21.49
-2.57
14.98
29.38
39.9
46.95
51.26
53.61
54.78
55.37
55.83
56.57
57.71
58.96
59.79
59.88
58.99
57.49
55.99
54.91
54.36
53.83
52.39
49.08
43.5
35.97
27.66
20.0
14.03
9.91
6.59
2.6
-3.5
-12.03
-21.94
-31.52
-39.09
-43.91
-46.44
-48.36
-51.54
-57.18
-65.39
-74.68
-82.54
-86.29
-83.88
-74.54
-59.2
-40.14
-20.23
-2.59
10.61
18.33
20.99
20.15
17.98
16.41
16.35
17.38
18.07
16.82
12.7
6.54
0.2
-3.92
-4.06
0.03
6.87
13.76
18.12
18.16
13.93
7.19
0.43
-4.02
-5.12
-3.5
-1.08
0.07
-1.65
-6.62
-13.92
-21.97
-28.96
-33.68
-35.69
-35.8
-35.68
-37.19
-41.91
-49.98
-59.76
-68.27
-72.22
-69.25
-58.97
-43.16
-24.99
-7.71
6.4
16.75
24.31
30.57
36.71
42.92
48.27
51.25
50.56
45.72
37.38
27.29
17.56
10.07
5.84
4.68
5.39
6.33
6.34
5.04
3.07
1.77
2.08
4.22
7.42
10.56
12.75
13.75
14.04
14.35
15.39
17.49
20.62
24.39
28.2
31.16
32.16
30.66
26.65
21.3
16.46
13.8
14.01
16.49
19.71
21.71
21.49
19.14
15.85
13.33
13.2
16.15
21.98
29.68
37.55
44.2
48.75
51.01
51.58
51.25
50.59
49.75
48.47
46.24
42.74
37.99
32.28
26.29
20.67
16.18
13.12
11.55
10.84
10.08
8.27
4.87
0.11
-5.09
-9.42
-12.07
-12.84
-12.52
-12.33
-13.42
-16.3
-20.64
-25.49
-29.67
-32.27
-32.94
-31.95
-30.14
-28.59
-28.24
-29.71
-32.86
-36.91
-40.69
-42.91
-42.72
-40.07
-35.73
-31.0
-27.09
-24.61
-23.32
-22.39
-20.7
-17.67
-13.58
-9.28
-5.83
-3.71
-2.81
-2.44
-1.97
-1.02
0.23
1.23
1.62
1.19
0.13
-1.34
-2.93
-4.47
-5.63
-6.17
-6.01
-5.13
-4.12
-3.66
-4.24
-6.01
-8.59
-11.25
-13.31
-14.58
-15.08
-15.33
-15.87
-16.94
-18.82
-21.59
-25.35
-29.85
-34.82
-39.42
-42.82
-44.55
-44.44
-42.93
-40.87
-39.17
-38.19
-38.01
-37.97
-37.35
-35.64
-32.81
-29.63
-27.37
-27.54
-30.87
-37.06
-44.62
-51.43
-55.58
-56.32
-54.36
-51.26
-48.97
-48.41
-49.17
-49.85
-48.62
-44.29
-36.9
-27.88
-19.32
-13.52
-11.85
-14.43
-19.92
-26.15
-30.92
-32.76
-31.88
-29.69
-28.41
-30.07
-35.54
-44.08
-53.84
-62.6
-68.48
-70.72
-69.49
-65.58
-59.77
-52.43
-43.43
-32.07
-17.96
-1.14
17.39
35.7
51.45
62.76
68.66
69.57
67.36
64.25
62.33
62.66
65.07
68.43
71.17
71.91
69.94
65.71
60.59
56.32
54.4
55.32
58.16
60.84
60.96
56.74
48.06
36.54
24.78
15.42
9.83
7.48
6.26
3.66
-2.22
-11.63
-23.29
-34.91
-44.2
-49.62
-50.61
-47.55
-41.14
-32.37
-22.03
-10.69
1.57
14.9
29.4
44.69
59.34
71.33
78.66
80.22
76.75
70.63
64.96
62.22
63.28
66.95
70.67
71.77
68.54
61.18
51.44
42.13
35.55
32.73
32.95
34.13
34.06
31.17
25.43
17.97
10.61
4.71
0.85
-1.53
-3.72
-6.83
-11.64
-17.9
-24.82
-31.27
-36.26
-39.44
-41.15
-42.45
-44.47
-48.14
-53.53
-59.5
-64.06
-64.72
-59.68
-48.51
-32.78
-15.51
-0.26
10.19
15.06
15.46
14.0
13.28
14.84
18.37
22.06
23.49
21.01
14.69
6.33
-1.09
-4.91
-4.07
0.33
5.5
8.21
6.53
0.55
-7.76
-15.44
-20.12
-21.09
-19.52
-17.65
-17.88
-21.38
-27.86
-35.81
-43.23
-48.65
-51.8
-53.6
-55.29
-57.87
-61.09
-63.46
-62.85
-57.3
-45.89
-29.32
-9.65
10.46
28.37
42.12
51.05
55.51
56.81
56.62
56.51
57.26
58.88
60.63
61.26
60.1
56.83
52.13
47.25
43.66
42.33
43.48
46.33
49.05
49.92
47.63
42.11
34.68
27.36
21.78
18.56
17.05
15.51
12.61
7.7
1.34
-5.06
-10.22
-13.41
-14.93
-15.8
-17.35
-20.55
-25.73
-32.38
-39.05
-43.93
-45.01
-41.01
-31.72
-18.4
-3.38
10.72
21.81
29.14
33.15
35.19
36.53
37.84
39.05
39.72
39.42
38.11
36.19
34.16
32.51
31.52
31.29
31.85
33.02
34.26
34.81
34.07
31.67
28.05
24.16
20.99
19.1
18.13
17.15
14.98
11.03
5.25
-1.66
-8.83
-15.36
-20.81
-25.28
-29.0
-32.5
-36.05
-39.8
-43.71
-47.63
-51.27
-54.27
-56.29
-56.66
-54.99
-50.91
-44.32
-35.64
-25.61
-15.23
-5.37
3.0
9.6
14.27
17.2
18.89
19.49
19.17
17.9
15.86
13.26
10.84
9.22
8.67
9.13
9.74
9.83
8.93
7.29
5.43
4.17
3.88
4.29
4.9
4.98
4.23
2.62
0.5
-1.72
-3.69
-5.21
-6.25
-6.7
-6.76
-6.79
-7.52
-9.59
-13.18
-17.82
-22.43
-25.82
-27.35
-27.34
-26.88
-27.09
-28.15
-28.91
-27.59
-22.47
-13.19
-1.26
10.49
19.25
23.26
22.71
19.43
15.78
13.68
13.83
15.75
18.16
19.88
20.05
18.51
15.74
12.45
9.65
8.04
8.04
9.33
11.13
12.24
11.71
9.29
5.42
1.36
-1.67
-2.83
-2.18
-0.61
0.62
0.35
-1.85
-5.81
-10.43
-14.61
-17.38
-18.32
-17.88
-16.9
-16.82
-18.67
-22.96
-29.01
-35.3
-39.84
-40.82
-37.86
-31.63
-24.17
-17.36
-12.42
-9.11
-6.22
-2.3
3.52
10.48
16.97
20.89
21.08
17.82
12.71
8.17
5.93
6.76
9.85
13.62
16.29
16.6
14.34
10.03
5.08
0.97
-0.96
-0.07
3.19
7.45
10.61
11.03
7.8
1.79
-5.14
-10.65
-13.08
-12.23
-9.34
-6.55
-5.82
-8.35
-13.72
-20.35
-26.2
-29.43
-29.43
-27.11
-24.66
-24.46
-28.32
-36.01
-45.25
-52.56
-54.38
-48.95
-37.06
-21.82
-7.16
3.69
9.51
11.31
11.31
11.85
14.14
17.95
21.89
24.27
23.85
20.27
14.38
7.88
2.79
0.6
1.84
5.53
9.78
12.54
12.45
9.57
5.24
1.51
0.03
1.38
4.81
8.61
11.06
10.89
7.96
3.02
-2.46
-7.03
-9.8
-10.67
-10.63
-10.99
-12.98
-17.01
-22.47
-27.93
-31.82
-33.28
-32.51
-31.0
-30.54
-32.4
-36.58
-41.63
-45.23
-45.04
-39.88
-30.07
-17.54
-4.89
5.5
12.11
14.91
14.97
14.15
14.1
15.82
19.14
23.0
26.11
27.17
25.95
22.92
19.28
16.35
15.05
15.63
17.36
19.21
19.9
18.83
16.03
12.29
9.03
7.38
7.89
9.91
12.03
12.61
10.66
6.27
0.54
-4.62
-7.69
-7.91
-5.89
-3.24
-2.06
-3.92
-9.23
-17.06
-25.19
-31.44
-34.38
-34.15
-32.24
-30.71
-31.06
-33.27
-35.92
-36.67
-33.71
-26.32
-15.45
-3.04
8.41
16.82
21.32
21.97
20.07
17.51
15.99
16.52
19.17
23.08
26.73
28.85
28.51
25.79
21.65
17.61
15.19
15.25
17.62
20.77
22.81
22.17
18.49
13.03
8.12
5.73
6.61
9.84
13.14
14.38
12.21
6.99
0.12
-6.52
-11.49
-14.4
-15.75
-16.62
-17.83
-19.88
-22.65
-25.75
-29.01
-32.21
-35.39
-38.31
-40.44
-40.69
-38.31
-32.99
-25.02
-15.68
-6.32
2.0
8.73
13.87
17.91
21.21
23.98
26.33
27.92
28.54
27.96
26.45
24.51
22.93
22.36
22.88
24.06
25.06
25.01
23.48
20.93
18.28
16.46
16.15
17.22
19.0
20.44
20.52
18.52
14.35
8.75
2.67
-2.56
-6.03
-7.54
-7.75
-7.76
-8.83
-11.64
-15.94
-21.06
-25.79
-29.31
-31.25
-31.97
-32.32
-33.02
-34.62
-36.8
-38.47
-38.13
-34.5
-26.99
-16.12
-3.54
8.72
18.41
24.11
25.53
23.67
20.37
17.74
17.45
19.84
23.99
28.01
29.88
28.5
24.42
19.28
15.28
14.19
16.42
20.92
25.54
28.22
27.63
23.75
18.08
12.49
8.77
7.62
8.58
10.19
10.99
9.72
5.85
-0.02
-6.84
-13.03
-17.28
-18.79
-17.97
-16.26
-15.67
-18.2
-24.47
-33.49
-42.9
-49.83
-52.09
-49.0
-41.54
-31.65
-21.55
-12.76
-5.8
-0.15
5.28
11.38
18.48
25.86
32.17
35.84
35.99
32.8
27.8
23.22
20.98
21.97
25.49
29.52
31.55
29.94
24.53
16.92
9.95
6.14
6.71
10.81
15.89
18.84
17.73
12.52
5.09
-1.56
-5.08
-4.7
-1.54
2.1
3.85
2.29
-2.45
-9.22
-16.11
-21.47
-24.51
-25.3
-24.85
-24.56
-25.83
-29.43
-35.19
-41.66
-46.66
-47.93
-43.98
-34.92
-22.29
-8.81
2.71
10.53
14.33
15.23
15.26
16.09
18.54
22.26
26.11
28.68
29.07
27.04
23.23
18.77
15.02
12.99
13.01
14.77
17.07
18.66
18.58
16.53
13.1
9.49
6.79
5.49
5.45
5.76
5.48
3.79
0.45
-4.22
-9.54
-14.51
-18.54
-21.29
-23.03
-24.44
-26.3
-29.09
-32.9
-37.37
-41.69
-45.32
-47.63
-48.04
-46.1
-41.4
-33.95
-24.27
-13.55
-3.09
6.1
13.54
19.47
24.16
27.83
30.23
31.27
30.86
29.47
27.86
26.71
26.37
26.53
26.78
26.43
25.19
23.12
20.42
17.59
15.17
13.46
12.48
12.09
11.78
11.0
9.46
6.96
3.58
-0.48
-4.97
-9.61
-13.98
-17.7
-20.71
-23.05
-25.07
-27.27
-30.19
-34.01
-38.83
-44.37
-50.02
-54.95
-57.94
-57.92
-54.24
-47.03
-37.07
-25.25
-12.64
0.2
12.74
24.29
33.86
40.3
42.82
41.51
37.62
32.78
28.79
26.68
26.39
27.06
27.63
27.27
25.81
23.73
21.78
20.81
21.23
22.97
25.46
27.79
28.93
28.01
24.73
19.4
13.12
7.26
2.99
0.7
-0.3
-1.39
-4.13
-9.27
-16.46
-24.23
-30.78
-34.77
-36.02
-35.66
-35.46
-37.35
-42.1
-49.16
-56.32
-60.7
-59.61
-51.65
-37.61
-19.99
-2.55
11.44
20.25
24.37
25.88
27.31
30.38
34.84
39.2
41.24
39.86
35.53
30.12
26.1
25.07
27.24
31.07
34.47
35.64
34.03
30.45
26.34
23.33
22.11
22.6
23.88
24.83
24.41
21.95
17.33
10.79
3.4
-3.64
-8.96
-11.79
-12.39
-12.0
-12.47
-15.27
-20.95
-28.39
-35.91
-41.78
-45.12
-46.42
-46.84
-47.64
-49.23
-51.0
-51.27
-48.16
-40.45
-27.97
-12.04
4.9
19.87
30.52
35.48
35.23
31.62
27.1
23.98
23.4
25.22
28.19
30.79
31.61
30.08
26.51
22.05
18.25
16.37
17.07
19.69
22.72
24.39
23.28
19.23
13.42
7.7
3.74
2.33
2.85
3.82
3.58
0.91
-4.34
-11.34
-18.46
-24.22
-27.6
-28.66
-28.46
-28.53
-30.59
-35.53
-43.18
-51.99
-59.56
-63.21
-60.96
-52.62
-39.63
-24.79
-11.05
-0.33
7.1
12.61
17.99
24.52
31.89
38.45
42.1
41.47
36.75
29.77
23.39
20.12
21.12
25.66
31.43
35.77
36.72
34.07
29.15
24.41
21.86
22.37
25.12
28.07
29.11
26.93
21.78
15.17
9.15
5.39
4.37
5.25
6.37
5.94
2.7
-3.44
-11.55
-19.98
-26.82
-30.84
-31.86
-30.94
-30.18
-31.83
-36.96
-44.91
-53.15
-58.07
-56.82
-48.36
-34.04
-17.03
-1.14
11.01
18.36
21.67
22.88
23.93
25.99
29.17
32.6
34.79
34.8
32.18
27.63
22.7
19.02
17.77
18.96
21.6
23.78
24.05
21.76
17.52
12.96
9.67
8.7
9.69
11.46
12.35
11.28
8.12
3.51
-1.31
-5.45
-8.32
-10.2
-11.61
-13.19
-15.48
-18.62
-22.64
-27.11
-31.68
-35.83
-39.53
-42.82
-45.87
-48.87
-51.47
-52.88
-51.86
-47.37
-38.88
-26.76
-12.28
2.81
16.41
26.94
33.43
35.83
34.91
32.18
29.4
27.94
28.36
29.96
31.35
31.04
28.2
23.29
17.85
13.78
12.21
13.17
15.25
16.54
15.46
11.58
5.84
-0.0
-4.33
-6.36
-6.61
-6.58
-7.79
-11.31
-17.11
-24.34
-31.88
-38.86
-44.89
-50.09
-54.78
-58.97
-62.82
-66.34
-69.7
-73.17
-76.69
-79.78
-81.4
-80.31
-75.26
