-13.48
-13.75
-14.81
-17.16
-20.86
-25.13
-28.75
-30.29
-28.86
-24.63
-18.8
-13.32
-9.75
-8.35
-8.13
-7.22
-4.04
1.55
8.14
13.57
15.92
14.71
11.18
7.35
5.27
5.98
9.22
13.64
17.64
19.85
19.71
17.53
14.23
11.06
9.07
8.84
9.98
11.53
12.3
11.24
8.24
4.04
-0.19
-3.2
-4.27
-3.45
-1.56
0.19
0.49
-1.44
-5.62
-11.2
-16.85
-21.22
-23.43
-23.65
-22.73
-21.96
-22.19
-23.32
-24.38
-23.93
-20.88
-14.93
-7.15
0.73
6.99
10.49
11.31
10.32
9.05
8.65
9.74
12.17
15.11
17.69
18.91
18.32
15.97
12.79
9.97
8.78
10.09
13.44
17.61
20.64
20.9
17.95
12.82
7.45
3.86
3.29
5.34
8.65
11.19
11.32
8.4
2.9
-3.69
-9.69
-13.68
-15.26
-14.93
-13.97
-14.03
-16.05
-20.22
-25.31
-29.44
-30.68
-27.98
-21.71
-13.43
-5.62
-0.16
2.03
1.63
0.46
0.43
2.78
7.11
11.91
15.2
15.68
13.4
9.61
6.26
4.86
6.14
9.62
14.05
18.02
20.2
19.89
17.03
12.53
7.76
4.47
3.85
5.84
9.15
11.51
10.95
6.7
-0.07
-7.11
-11.96
-13.24
-11.43
-8.32
-6.16
-6.52
-9.59
-14.4
-19.28
-22.83
-24.11
-23.02
-20.04
-16.02
-12.1
-9.19
-7.9
-7.84
-8.0
-6.81
-3.11
3.12
10.59
17.04
20.37
19.56
15.43
10.06
6.06
5.31
8.15
13.27
18.18
20.53
19.03
14.17
8.15
3.54
2.4
4.96
9.7
14.12
16.13
14.79
10.66
5.32
0.28
-3.37
-5.38
-5.97
-5.77
-5.69
-6.65
-9.63
-15.02
-22.17
-29.52
-35.13
-37.38
-35.97
-32.08
-27.49
-23.97
-22.23
-21.66
-20.84
-18.28
-13.14
-5.58
3.02
10.79
16.01
17.51
15.42
11.15
6.75
4.3
5.04
8.73
14.02
19.0
21.88
22.01
19.76
16.49
13.77
12.8
13.96
16.63
19.64
21.46
21.12
18.25
13.64
8.79
5.22
3.93
4.6
5.83
5.77
3.01
-2.73
-10.26
-17.46
-22.41
-24.11
-23.06
-20.99
-19.92
-21.19
-25.0
-30.1
-34.22
-35.3
-32.01
-24.44
-14.25
-3.94
3.96
7.85
7.73
5.3
2.93
2.9
6.23
12.18
18.53
22.73
23.15
19.71
14.04
8.79
6.22
7.4
11.84
17.8
23.17
26.19
25.99
22.78
17.8
12.87
9.67
9.16
11.06
13.92
15.53
14.3
9.7
2.84
-4.12
-9.17
-11.24
-10.86
-9.62
-9.58
-12.16
-17.4
-24.34
-31.17
-36.07
-38.03
-37.02
-33.75
-29.14
-24.01
-18.64
-13.17
-7.67
-2.34
2.51
6.67
10.05
12.79
14.79
16.07
16.66
16.66
16.39
16.3
16.68
17.49
18.6
19.52
19.98
19.76
18.76
16.97
14.63
12.37
10.84
10.65
11.9
13.83
15.14
14.63
11.78
7.01
1.74
-2.57
-4.94
-5.36
-4.82
-4.82
-6.66
-10.69
-16.58
-23.11
-28.86
-32.96
-35.09
-35.62
-35.12
-34.11
-32.58
-30.4
-27.28
-22.9
-17.37
-10.84
-3.77
3.45
10.12
15.53
19.15
20.65
20.3
18.9
17.4
16.59
16.89
18.12
19.66
20.94
21.37
20.8
19.42
17.98
17.26
17.84
19.75
22.11
23.64
23.13
20.08
15.04
9.53
5.04
2.33
1.27
0.89
0.12
-1.68
-4.52
-8.05
-11.97
-16.08
-20.59
-25.41
-30.2
-34.47
-37.7
-39.58
-40.17
-39.76
-38.38
-35.92
-32.02
-26.25
-18.5
-9.1
1.0
10.5
17.98
22.6
24.49
24.49
23.98
24.15
25.33
26.92
27.96
27.49
25.32
22.26
19.34
17.58
17.44
18.75
20.88
23.04
24.46
24.4
22.54
19.03
14.64
10.57
8.01
7.46
8.41
9.69
9.58
6.91
1.69
-5.06
-11.57
-16.15
-17.85
-17.09
-15.22
-14.33
-16.14
-21.27
-28.83
-36.7
-42.29
-43.48
-39.72
-32.04
-22.59
-13.83
-7.3
-3.22
-0.52
2.4
6.87
13.13
20.19
26.24
29.46
28.77
24.44
18.23
12.4
9.02
9.21
12.53
17.41
21.91
24.42
24.38
22.47
19.88
17.91
17.38
18.22
19.63
20.46
19.72
16.76
11.7
5.41
-0.9
-5.86
-8.56
-8.83
-7.35
-5.57
-5.21
-7.68
-13.21
-20.74
-28.19
-33.4
-34.98
-33.28
-30.01
-27.38
-26.88
-28.4
-30.1
-29.55
-24.89
-15.93
-4.27
7.39
16.59
21.93
23.4
22.11
19.74
17.77
17.16
18.31
20.76
23.47
25.2
24.71
21.56
16.55
11.32
7.87
7.6
10.57
15.43
20.11
22.56
21.75
17.96
12.61
7.63
4.46
3.66
4.46
5.44
5.03
2.31
-2.64
-8.67
-14.16
-17.71
-18.79
-18.22
-17.78
-19.45
-24.48
-32.58
-41.84
-49.25
-52.11
-48.98
-40.48
-29.05
-17.68
-8.83
-3.38
-0.63
1.24
3.93
8.36
14.26
20.27
24.75
26.51
25.32
21.93
17.91
14.8
13.65
14.63
17.19
20.25
22.8
24.08
23.82
22.12
19.66
17.2
15.53
15.05
15.39
15.55
14.36
11.01
5.54
-0.83
-6.4
-9.68
-10.07
-8.36
-6.44
-6.39
-9.55
-15.96
-24.19
-31.9
-37.12
-38.86
-37.63
-34.95
-32.25
-30.28
-28.81
-26.83
-23.31
-17.88
-10.79
-2.81
5.09
12.12
17.45
20.43
20.79
18.86
15.87
13.5
13.28
15.63
19.66
23.35
24.64
22.67
18.13
13.09
10.0
10.37
13.91
18.62
21.73
21.08
16.34
9.09
2.25
-1.3
-0.29
4.4
9.92
13.0
11.41
5.11
-3.82
-12.18
-17.16
-17.76
-14.96
-11.3
-9.44
-11.27
-17.04
-25.42
-33.94
-39.95
-41.55
-38.12
-30.64
-21.22
-12.41
-6.15
-2.92
-1.77
-0.73
1.93
6.96
13.56
19.72
23.12
22.52
18.2
12.0
6.63
4.29
5.8
10.32
15.79
19.86
21.09
19.25
15.35
11.21
8.55
8.34
10.41
13.56
15.98
16.01
13.03
7.54
1.28
-3.76
-6.17
-5.91
-4.13
-2.49
-2.74
-5.55
-10.57
-16.68
-22.6
-27.21
-30.21
-31.9
-32.84
-33.82
-34.93
-35.58
-34.8
-31.6
-25.47
-16.91
-7.22
2.11
9.68
14.88
17.78
18.71
18.33
17.18
15.98
15.24
15.4
16.54
18.1
19.22
19.0
17.23
14.43
11.87
10.84
12.05
15.2
19.0
21.82
22.44
20.63
17.07
13.11
10.16
8.81
8.86
9.25
8.71
6.38
2.05
-3.63
-9.51
-14.32
-17.42
-18.88
-19.55
-20.78
-23.67
-28.65
-35.05
-41.43
-45.97
-47.23
-44.59
-38.35
-29.62
-19.91
-10.64
-2.88
2.84
6.67
9.35
11.74
14.65
18.15
21.48
23.48
23.33
20.92
17.31
14.3
13.25
14.65
17.61
20.55
22.04
21.57
19.65
17.43
16.02
15.93
16.81
17.75
17.92
16.68
13.96
10.4
6.67
3.52
1.29
-0.22
-1.61
-3.37
-5.77
-8.6
-11.28
-13.46
-15.21
-17.12
-19.67
-22.99
-26.52
-29.21
-30.34
-29.74
-27.9
-25.69
-23.61
-21.47
-18.66
-14.58
-8.94
-2.2
4.83
11.12
15.79
18.35
18.59
16.98
14.14
11.13
8.95
8.12
8.53
9.68
10.79
11.23
11.0
10.32
9.71
9.67
10.56
12.32
14.54
16.44
17.1
15.88
12.9
8.77
4.66
1.63
0.1
-0.28
-0.29
-0.86
-2.59
-5.35
-8.85
-12.42
-15.51
-17.8
-19.4
-20.77
-22.62
-25.61
-29.72
-34.1
-37.1
-36.96
-32.62
-24.41
-14.12
-4.1
3.45
7.59
9.0
9.21
10.01
12.44
16.4
20.72
23.92
24.73
22.75
18.64
13.74
9.59
7.33
7.4
9.22
11.73
13.7
14.23
13.12
10.73
7.87
5.35
3.7
2.92
2.79
2.86
2.45
1.1
-1.62
-5.48
-9.92
-13.98
-16.7
-17.79
-17.72
-17.9
-19.7
-23.8
-29.56
-35.28
-38.89
-38.92
-35.48
-29.81
-23.98
-19.47
-16.76
-15.23
-13.49
-10.27
-4.98
1.85
8.91
14.71
18.08
18.72
17.06
14.38
11.92
10.78
11.49
13.71
16.51
18.6
18.78
16.55
12.62
8.4
5.7
5.89
9.03
13.9
18.36
20.37
18.85
14.29
8.26
2.79
-0.43
-0.88
0.65
2.44
2.61
-0.24
-6.36
-14.54
-22.86
-29.1
-31.87
-31.07
-27.96
-24.67
-23.25
-24.83
-28.82
-33.14
-35.07
-32.43
-24.67
-13.33
-1.6
7.29
11.15
10.1
6.31
2.86
2.33
5.56
11.45
17.57
21.65
22.47
20.35
16.69
13.38
11.83
12.52
15.11
18.39
21.05
22.08
20.9
17.75
13.6
9.68
7.06
6.25
6.85
7.91
8.3
7.03
3.87
-0.82
-6.01
-10.52
-13.44
-14.46
-14.29
-14.14
-15.57
-19.33
-25.23
-31.65
-36.42
-37.52
-34.1
-27.13
-18.79
-11.53
-6.96
-5.11
-4.53
-3.12
0.69
7.21
15.24
22.73
27.81
29.38
27.57
23.45
18.72
14.9
13.06
13.53
15.65
18.23
19.95
19.79
17.6
14.27
11.15
9.64
10.48
13.38
17.0
19.51
19.24
15.34
8.3
-0.07
-7.47
-11.91
-12.58
-10.57
-8.15
-7.78
-11.16
-18.17
-26.89
-34.73
-39.41
-39.91
-36.9
-32.05
-27.18
-23.52
-21.25
-19.56
-17.11
-12.81
-6.24
2.0
10.35
17.08
20.84
21.19
18.92
15.74
13.51
13.49
15.96
19.88
23.59
25.34
24.15
20.2
14.84
10.3
8.51
10.39
15.24
20.76
24.15
23.32
18.0
9.87
1.99
-2.85
-3.21
0.19
4.79
7.62
6.52
1.21
-6.72
-14.59
-19.91
-21.5
-19.81
-16.78
-14.77
-15.68
-20.0
-26.6
-33.15
-36.96
-36.16
-30.36
-20.91
-10.43
-1.68
3.67
5.55
5.39
5.35
6.93
10.51
15.17
19.43
22.12
22.81
21.78
19.68
17.3
15.36
14.47
15.0
17.01
19.85
22.23
22.72
20.47
15.88
10.58
6.69
5.78
7.92
11.41
13.59
12.41
7.25
-0.48
-8.22
-13.31
-14.47
-12.32
-9.01
-7.14
-8.43
-13.23
-20.33
-27.71
-33.31
-35.8
-34.84
-31.03
-25.79
-20.66
-16.81
-14.59
-13.3
-11.52
-7.98
-2.06
5.62
13.41
19.34
21.91
20.68
16.51
11.04
6.37
4.15
5.18
9.09
14.35
18.74
20.4
18.42
13.6
8.11
4.41
4.22
7.55
12.73
17.07
18.3
15.38
9.12
1.58
-4.71
-8.06
-8.28
-6.54
-5.08
-5.82
-9.59
-15.82
-22.63
-27.92
-30.42
-30.21
-28.46
-26.84
-26.45
-27.3
-28.59
-28.97
-27.48
-23.56
-17.45
-9.83
-1.78
5.45
10.86
13.66
13.98
12.62
11.13
10.94
12.69
15.95
19.18
20.68
19.23
15.14
9.84
5.53
4.19
6.34
11.06
16.14
19.16
18.66
14.78
9.17
4.1
1.58
2.22
5.23
8.93
11.21
10.63
6.94
0.89
-5.94
-11.63
-14.99
-15.77
-14.78
-13.66
-13.99
-16.53
-21.08
-26.51
-31.29
-34.33
-35.13
-33.73
-30.36
-25.39
-19.34
-12.91
-6.98
-2.33
1.02
3.52
6.1
9.54
13.86
18.17
21.09
21.61
19.44
15.49
11.47
8.91
8.65
10.33
12.79
14.68
15.28
14.57
13.24
12.3
12.21
12.93
13.8
14.17
13.53
11.79
9.42
6.75
4.23
2.07
0.21
-1.49
-3.1
-4.6
-5.98
-7.16
-8.43
-10.22
-12.96
-16.65
-20.84
-24.75
-27.56
-29.02
-29.27
-28.74
-27.77
-26.24
-23.64
-19.52
-13.9
-7.21
-0.32
5.92
10.86
14.17
15.83
15.91
14.92
13.38
12.05
11.48
11.7
12.38
12.92
12.79
11.81
10.47
9.36
9.05
9.83
11.46
13.45
15.16
15.92
15.24
13.11
10.08
6.97
4.76
3.99
4.38
4.95
4.53
2.15
-2.28
-7.86
-13.56
-18.2
-21.15
-22.4
-22.49
-22.23
-22.62
-24.38
-27.56
-31.43
-34.34
-34.48
-30.5
-22.54
-12.19
-1.95
5.65
9.37
9.59
8.01
6.74
7.36
10.26
14.58
18.82
21.3
20.98
17.86
13.23
8.87
6.57
7.39
10.8
15.18
18.45
19.07
16.95
13.43
10.33
9.12
10.18
12.61
14.9
15.62
13.93
9.79
3.73
-3.05
-9.3
-13.7
-15.51
-14.98
-13.35
-12.56
-14.45
-19.75
-27.55
-35.79
-41.91
-44.04
-41.72
-35.99
-28.86
-22.31
-17.5
-14.42
-11.92
-8.62
-3.48
3.55
11.31
18.01
22.02
22.47
19.68
15.19
10.86
8.42
8.77
11.71
16.19
20.59
23.39
23.57
21.16
17.22
13.34
11.15
11.54
14.1
17.3
19.26
18.43
14.56
8.8
3.0
-0.99
-2.27
-1.15
1.06
2.59
1.95
-1.72
-8.31
-16.64
-24.9
-31.25
-34.41
-34.35
-32.51
-30.79
-31.05
-33.75
-37.69
-40.53
-39.95
-34.76
-25.48
-14.41
-4.42
2.25
4.57
3.19
-0.01
-2.95
-4.2
-3.49
-1.71
-0.31
-0.51
-3.02
-7.8
-14.14
-21.01
-27.31
-32.11
-35.0
-36.51
-38.16
-42.03
-50.05
-63.07
-80.18
-99.21
-117.47
-132.92
-145.18
-155.4
-165.48
-176.89
-189.96
-203.58
-215.72
-224.49
-228.55
-227.46
-221.39
-210.57
-195.13
-175.18
-150.81
-122.26
-89.99
-54.44
-16.16
23.82
63.84
101.44
133.98
159.5
177.36
188.49
194.54
197.05
196.5
192.44
184.07
171.21
155.14
138.23
123.43
113.01
107.64
106.22
106.28
105.17
100.93
93.25
83.31
73.25
65.19
60.19
57.87
56.45
53.68
47.81
38.46
26.73
14.75
4.84
-1.65
-4.62
-5.33
-5.73
-7.72
-12.41
-19.75
-28.54
-36.56
-41.48
-41.29
-35.17
-23.68
-8.58
7.89
23.74
37.74
49.71
59.77
68.06
74.27
77.76
77.99
74.96
69.36
62.38
55.37
49.34
44.85
41.92
40.2
39.03
37.59
35.3
31.85
27.65
23.61
20.79
19.92
20.86
22.7
24.0
23.71
21.53
18.25
15.24
13.85
14.75
17.66
21.67
25.73
29.29
32.51
36.14
40.94
47.18
54.17
60.49
64.5
64.99
61.77
55.74
48.57
42.02
37.27
34.66
33.6
32.97
31.64
28.91
24.74
19.57
14.14
9.09
4.88
1.72
-0.3
-1.26
-1.31
-0.76
0.15
1.36
3.18
6.15
10.58
16.23
21.87
25.58
25.17
19.1
6.96
-10.4
-31.15
-53.09
-74.18
-93.0
-108.75
-121.25
-130.64
-137.17
-141.08
-142.56
-141.88
-139.45
-135.9
-131.78
-127.39
-122.56
-116.68
-108.99
-98.98
-86.69
-72.74
-58.2
-44.19
-31.62
-21.1
-12.75
-6.43
-1.65
2.12
5.57
9.17
13.18
17.66
22.2
26.51
30.38
33.93
37.71
42.61
49.38
58.17
68.28
78.26
86.41
91.62
93.82
93.8
92.61
90.88
88.25
83.78
76.46
65.71
51.8
35.75
18.87
2.47
-12.27
-24.54
-33.9
-40.37
-44.53
-47.09
-48.6
-48.96
-47.57
-43.53
-36.17
-25.61
-12.86
0.49
12.81
22.98
30.73
36.62
41.54
46.26
51.02
55.58
59.4
62.1
63.62
64.24
64.46
64.51
64.29
63.43
61.5
58.23
53.61
47.84
41.24
34.24
27.15
20.28
13.94
8.36
3.74
0.16
-2.37
-3.95
-4.69
-4.74
-4.26
-3.43
-2.48
-1.55
-0.74
-0.02
0.66
1.41
2.32
3.37
4.45
5.47
6.37
7.2
8.09
9.19
10.64
12.52
14.73
17.07
19.21
20.92
22.19
23.25
24.56
26.58
29.56
33.35
37.47
41.26
44.22
46.12
47.06
47.31
47.04
46.24
44.73
42.34
39.06
35.01
30.42
25.42
20.04
14.23
8.03
1.68
-4.33
-9.43
-13.26
-15.77
-17.34
-18.67
-20.4
-22.92
-26.18
-29.77
-33.16
-35.94
-37.93
-39.17
-39.79
-39.92
-39.64
-39.04
-38.22
-37.29
-36.34
-35.26
-33.85
-31.88
-29.2
-25.89
-22.2
-18.46
-14.94
-11.79
-8.96
-6.37
-3.88
-1.46
0.86
2.97
4.76
6.19
7.22
7.86
8.02
7.68
6.76
5.32
3.59
1.87
0.46
-0.47
-1.0
-1.38
-1.94
-2.88
-4.24
-5.84
-7.38
-8.58
-9.31
-9.64
-9.8
-10.15
-11.04
-12.69
-15.13
-18.13
-21.29
-24.27
-26.84
-28.94
-30.66
-32.05
-32.99
-33.12
-31.99
-29.15
-24.46
-18.04
-10.35
-2.06
6.04
13.23
18.93
22.75
24.54
24.12
21.12
14.95
4.9
-9.44
-27.7
-48.54
-69.79
-88.87
-103.53
-112.36
-115.16
-112.86
-107.29
-100.62
-94.8
-91.1
-89.64
-89.46
-88.82
-85.83
-78.92
-67.45
-51.63
-32.45
-11.42
9.84
29.81
47.28
61.4
71.73
78.25
81.27
81.41
79.48
76.33
72.75
69.35
66.32
63.53
60.57
56.92
52.37
47.16
41.95
37.58
34.69
33.46
33.45
33.83
33.7
32.47
29.99
26.51
22.4
17.93
13.18
7.96
2.1
-4.35
-11.0
-16.99
-21.2
-22.57
-20.51
-15.13
-7.3
1.6
10.2
17.47
22.84
26.02
26.78
24.65
19.13
10.14
-1.76
-15.09
-27.94
-38.5
-45.64
-49.21
-49.88
-48.69
-46.61
-44.31
-42.05
-39.89
-37.82
-35.84
-34.01
-32.41
-31.02
-29.84
-28.87
-28.24
-28.25
-29.28
-31.7
-35.64
-40.77
-46.41
-51.71
-56.03
-59.31
-62.06
-65.14
-69.3
-74.67
-80.54
-85.58
-88.29
-87.6
-83.26
-75.87
-66.61
-56.77
-47.37
-38.95
-31.5
-24.78
-18.51
-12.65
-7.39
-3.21
-0.6
0.14
-1.0
-3.6
-6.92
-10.1
-12.32
-13.05
-12.15
-9.95
-6.96
-3.84
-0.74
2.76
7.53
14.48
23.95
35.42
47.51
58.51
67.02
72.41
75.1
76.19
76.94
78.02
79.11
78.72
74.74
65.42
50.3
31.03
10.94
-5.81
-15.81
-17.6
-11.81
-0.75
12.83
26.82
40.18
52.75
64.66
75.55
84.49
90.32
92.13
89.86
84.51
77.71
71.12
65.71
61.52
57.7
53.2
47.28
39.89
31.75
24.0
17.73
13.8
12.65
14.26
18.3
24.11
30.66
36.76
41.12
42.98
42.21
39.46
35.77
32.06
28.62
24.98
20.27
13.65
4.95
-5.21
-15.67
-25.03
-32.17
-36.44
-37.78
-36.51
-33.21
-28.55
-23.16
-17.71
-12.86
-9.16
-6.94
-6.18
-6.36
-6.73
-6.62
-5.94
-5.17
-5.02
-5.82
-6.87
-6.62
-3.3
4.09
15.13
28.04
40.28
49.55
54.41
54.5
50.43
43.29
34.28
24.4
14.16
3.6
-7.62
-19.89
-33.28
-47.2
-60.62
-72.44
-81.8
-88.25
-91.52
-91.21
-86.74
-77.67
-64.23
-47.68
-30.27
-14.48
-2.29
5.62
10.11
13.1
16.85
23.01
32.05
43.13
54.58
64.44
71.1
73.65
71.99
66.85
59.57
51.69
44.52
38.7
34.11
30.07
25.84
20.85
14.89
7.8
-0.79
-11.41
-24.42
-39.53
-55.59
-70.91
-83.91
-93.68
-100.13
-103.8
-105.29
-105.03
-103.31
-100.52
-97.23
-94.07
-91.46
-89.42
-87.72
-86.02
-84.23
-82.43
-80.74
-79.02
-76.69
-72.94
-67.01
-58.48
-47.62
-35.36
-22.85
-11.2
-1.07
7.56
15.13
22.06
28.29
33.25
35.94
35.73
32.84
28.34
24.0
21.48
21.67
24.32
28.3
32.1
34.47
34.95
33.91
32.34
31.28
31.45
32.84
34.7
35.84
34.98
31.32
24.94
16.78
8.55
2.39
0.23
3.08
10.65
21.24
32.19
40.76
45.22
45.39
42.76
39.75
38.61
40.75
46.31
54.4
63.57
72.15
78.4
80.71
77.94
69.88
57.61
43.41
29.92
19.38
12.91
10.54
11.76
16.2
23.79
34.25
46.51
58.44
67.39
71.31
69.89
64.84
59.23
56.06
56.87
61.18
66.9
71.47
73.05
71.13
66.48
60.48
54.26
48.31
42.36
35.83
28.24
19.5
10.22
1.52
-5.07
-7.83
-5.13
3.97
19.14
38.24
57.67
73.43
82.53
84.4
81.18
76.83
75.52
79.77
89.75
103.42
117.79
130.06
138.57
142.8
143.12
140.27
135.1
128.54
121.34
114.08
106.96
99.93
92.63
84.41
74.4
61.47
44.56
23.23
-1.84
-28.66
-54.35
-76.26
-92.98
-105.03
-114.58
-124.52
-137.22
-153.8
-173.95
-196.53
-220.09
-243.33
-265.11
-284.42
-300.48
-312.98
-322.38
-329.86
-336.85
-344.44
-352.85
-361.29
-368.23
-371.92
-370.78
-363.86
-350.71
-331.42
-306.43
-276.54
-242.9
-206.97
-170.42
-134.92
-102.17
-73.61
-50.33
-32.86
-20.95
-13.52
-8.99
-5.85
-3.18
-0.92
0.45
0.49
-0.65
-2.12
-2.75
-1.75
0.84
4.05
6.5
6.98
4.92
0.49
-5.49
-11.9
-17.55
-21.66
-24.06
-25.16
-25.87
-27.12
-29.68
-33.94
-40.05
-47.98
-57.44
-67.74
-77.55
-85.23
-89.17
-88.37
-82.69
-72.78
-59.62
-44.13
-27.15
-9.43
7.85
23.28
35.42
43.23
46.54
46.11
43.39
40.05
37.36
35.67
34.45
32.56
28.79
22.87
15.77
9.65
7.13
10.04
18.66
31.54
46.3
60.54
72.93
83.45
92.96
102.75
113.77
126.37
140.26
154.71
168.52
180.36
188.76
192.51
191.13
185.01
175.44
164.12
152.6
141.87
132.1
122.88
113.68
104.34
95.4
88.13
84.0
83.94
87.9
94.61
102.19
108.8
113.34
115.38
114.85
111.58
105.03
94.71
80.61
63.72
45.78
28.72
13.98
2.12
-7.02
-13.96
-19.07
-22.52
-24.34
-24.68
-23.82
-21.96
-19.19
-15.36
-10.4
-4.53
1.54
6.69
9.72
9.72
6.46
0.27
-8.0
-17.33
-26.88
-36.0
-44.34
-51.82
-58.44
-64.15
-68.84
-72.1
-73.23
-71.34
-65.51
-55.09
-39.91
-20.39
2.61
27.9
54.26
80.57
105.82
129.02
149.17
165.41
177.08
184.09
187.07
187.18
185.87
184.33
183.12
182.08
180.57
177.87
173.54
167.57
160.05
151.02
140.31
127.74
113.34
97.54
81.01
64.34
47.82
31.35
14.58
-2.7
-20.45
-38.41
-56.22
-73.6
-90.45
-106.82
-122.83
-138.56
-153.99
-169.04
-183.38
-196.58
-208.18
-217.95
-226.05
-232.93
-239.16
-244.98
-250.26
-254.47
-257.01
-257.54
-256.17
-253.44
-249.99
-246.35
-242.9
-239.79
-237.1
-234.53
-231.54
-227.02
-219.76
-208.85
-194.04
-175.96
-155.72
-134.56
-113.3
-92.41
-72.2
-53.18
-36.32
-22.67
-12.93
-6.88
-3.42
-0.86
2.36
7.0
12.96
19.33
25.15
29.99
34.19
38.76
44.71
52.54
61.73
71.13
79.46
85.91
90.43
93.53
95.97
98.22
100.44
102.52
104.37
106.12
107.99
110.07
112.13
113.68
114.17
113.36
111.39
108.69
105.78
102.89
100.08
97.11
93.71
89.72
85.13
80.2
75.22
70.54
66.4
62.76
59.3
55.51
50.84
45.02
38.3
31.22
24.59
19.03
14.78
11.73
9.46
7.5
5.46
3.17
0.74
-1.6
-3.56
-4.88
-5.46
-5.34
-4.56
-3.24
-1.45
0.75
3.21
5.79
8.4
11.07
13.88
16.97
20.21
23.23
25.49
26.47
26.03
24.42
22.2
19.79
17.36
14.73
11.55
7.69
3.44
-0.55
-3.56
-5.19
-5.66
-5.79
-6.59
-8.87
-12.84
-18.06
-23.52
-28.21
-31.38
-32.9
-33.38
-33.89
-35.65
-39.61
-46.04
-54.33
-63.15
-70.71
-75.29
-75.87
-72.38
-65.75
-57.63
-49.67
-43.02
-37.86
-33.48
-28.74
-22.69
-15.18
-6.86
1.04
7.33
11.45
13.75
15.21
17.01
19.94
24.05
28.58
32.18
33.69
32.51
29.13
25.11
22.45
22.8
26.72
33.29
40.47
45.98
48.13
46.4
41.65
35.38
29.16
23.91
19.54
15.1
9.25
0.95
-10.18
-23.38
-36.9
-48.7
-56.82
-60.11
-58.38
-52.29
-42.98
-31.95
-20.58
-10.09
-1.33
5.47
10.57
14.76
18.75
22.92
27.15
30.79
33.28
34.55
35.13
35.88
37.53
40.04
42.66
44.28
43.9
41.32
37.21
32.93
29.8
28.55
29.0
30.06
30.42
29.0
25.6
20.81
15.92
12.1
10.09
9.74
9.9
9.01
5.56
-0.91
-9.76
-19.12
-26.45
-29.48
-26.96
-19.23
-8.0
4.36
15.84
25.18
32.19
37.5
42.07
46.63
51.26
55.52
58.77
60.54
60.88
60.2
59.35
60.04
63.63
70.57
80.21
91.07
101.41
110.09
116.62
121.35
126.61
134.45
145.5
158.62
171.38
181.24
186.86
188.17
186.34
185.71
189.99
200.69
216.27
233.12
247.12
255.65
258.13
256.07
255.75
262.8
279.79
304.71
332.09
355.76
371.64
379.14
359.05
302.0
209.17
93.73
-25.68
-133.92
-223.76
-294.34
-347.59
-385.93
-408.13
-413.87
-404.87
-385.71
-362.32
-339.8
-320.94
-306.34
-295.32
-284.27
-270.48
-253.01
-233.01
-212.82
-194.53
-179.15
-166.96
-157.63
-148.73
-138.07
-124.03
-106.47
-86.89
-67.64
-51.06
-38.6
-30.84
-26.23
-22.63
-18.04
-11.65
-3.89
3.81
10.08
13.89
14.72
13.26
10.58
7.88
5.93
5.27
5.81
7.27
9.01
10.29
10.8
10.65
10.37
10.56
11.81
14.41
18.21
22.64
26.93
30.3
31.99
31.38
28.05
21.84
12.73
2.58
-7.33
-16.14
-23.54
-29.54
-34.18
-37.23
-38.37
-37.27
-33.87
-28.48
-21.4
-12.87
-3.08
7.52
18.24
28.31
37.37
45.8
54.26
63.47
73.4
83.02
90.7
95.18
96.18
94.65
92.13
89.59
87.1
83.79
78.71
71.33
61.94
51.66
41.61
32.61
24.84
17.96
11.64
5.7
0.21
-4.71
-9.0
-13.11
-17.61
-23.13
-30.04
-38.13
-46.95
-55.8
-64.37
-72.61
-80.76
-89.21
-98.18
-107.58
-117.21
-126.76
-135.77
-143.48
-148.75
-150.27
-146.97
-138.55
-125.78
-110.24
-93.83
-78.13
-63.94
-51.47
-40.64
-31.4
-24.02
-18.81
-15.83
-14.78
-14.97
-15.44
-15.37
-14.24
-12.14
-9.5
-7.11
-5.7
-5.4
-5.88
-6.28
-5.59
-3.21
0.6
4.77
7.74
7.92
4.77
-1.16
-8.3
-14.64
-18.64
-19.9
-19.34
-18.67
-19.82
-23.89
-30.64
-38.74
-46.1
-50.6
-50.72
-46.01
-37.01
-24.93
-11.53
1.76
13.8
24.09
32.54
39.41
44.98
49.31
52.36
53.61
52.6
49.12
43.8
37.86
32.91
30.38
30.58
32.78
35.44
37.03
36.93
35.66
34.31
33.95
34.99
36.84
38.47
38.89
37.56
34.66
30.75
26.79
23.68
22.3
23.14
26.15
30.61
35.25
38.67
39.85
38.8
36.3
33.69
32.15
32.32
34.07
36.7
39.43
41.27
41.38
39.11
33.94
26.02
16.12
5.59
-4.08
-11.69
-16.99
-20.48
-23.03
-25.41
-27.66
-29.2
-29.17
-26.95
-22.47
-16.27
-9.35
-2.88
2.13
4.87
5.03
2.83
-1.09
-5.89
-10.93
-15.97
-21.27
-27.18
-33.69
-40.29
-46.07
-50.25
-52.88
-54.86
-57.47
-61.7
-67.33
-72.84
-76.08
-75.13
-69.37
-59.78
-48.6
-38.37
-30.87
-26.59
-24.69
-23.54
-21.6
-18.15
-13.34
-8.22
-3.96
-1.41
-0.75
-1.41
-2.31
-2.29
-0.65
2.59
6.66
10.18
11.79
10.59
6.59
0.71
-5.63
-11.13
-15.12
-17.8
-20.14
-23.16
-27.56
-33.17
-39.18
-44.57
-48.58
-51.32
-53.53
-56.41
-60.85
-67.03
-74.21
-81.09
-86.22
-88.39
-87.07
-82.22
-74.27
-63.85
-51.69
-38.62
-25.54
-13.33
-2.66
6.06
12.82
17.91
21.6
24.09
25.42
25.5
24.37
22.36
19.99
18.0
17.04
17.41
19.05
21.4
23.74
25.41
26.01
25.63
24.62
23.45
22.25
20.84
18.73
15.38
10.61
4.71
-1.62
-7.52
-12.44
-16.38
-19.82
-23.64
-28.75
-35.6
-44.14
-53.67
-63.0
-70.67
-75.26
-75.65
-71.35
-62.63
-50.38
-35.99
-20.94
-6.53
6.39
17.4
26.38
33.27
38.02
40.49
40.6
38.55
34.95
30.78
27.22
25.25
25.31
27.15
29.82
32.14
33.25
33.0
31.96
31.13
31.27
32.33
33.53
33.52
31.16
26.11
18.99
11.08
3.69
-2.37
-7.2
-11.48
-16.06
-21.62
-28.34
-35.94
-43.96
-51.84
-58.85
-64.08
-66.34
-64.42
-57.53
-45.77
-30.23
-12.79
4.52
20.08
33.1
43.48
51.45
57.25
60.85
62.09
60.98
57.92
53.68
49.26
45.48
42.79
41.12
40.18
39.6
39.23
39.18
39.57
40.36
41.23
41.6
40.91
38.84
35.45
31.05
26.05
20.69
14.98
8.8
2.03
-5.26
-12.81
-20.17
-26.94
-32.98
-38.47
-44.01
-50.18
-57.25
-64.66
-70.96
-74.08
-72.08
-63.99
-50.2
-32.48
-13.17
5.55
22.28
36.52
48.3
57.54
63.96
67.1
66.8
63.53
58.47
53.08
48.64
45.76
44.31
43.74
43.48
43.17
42.82
42.63
42.63
42.69
42.43
41.47
39.65
36.98
33.62
29.71
25.21
19.9
13.66
6.55
-1.11
-8.74
-15.81
-22.02
-27.41
-32.38
-37.49
-43.24
-49.83
-57.11
-64.36
-70.5
-74.19
-74.11
-69.28
-59.37
-44.88
-27.12
-7.92
10.76
27.25
40.54
50.3
56.73
60.3
61.49
60.8
58.67
55.43
51.52
47.37
43.46
40.35
38.64
38.64
40.29
42.98
45.55
46.87
46.25
43.79
40.28
36.76
33.84
31.39
28.63
24.57
18.62
10.88
2.03
-7.05
-15.71
-23.74
-31.19
-38.17
-44.44
-49.64
-53.44
-55.93
-57.67
-59.53
-62.15
-65.42
-68.32
-69.07
-65.85
-57.55
-44.23
-27.1
-8.28
9.96
25.77
37.87
45.85
49.87
50.57
48.82
45.65
41.95
38.49
35.68
33.55
31.82
30.2
28.6
27.25
26.63
27.21
29.11
31.85
34.51
35.99
35.57
33.15
29.31
24.97
20.97
17.68
14.76
11.52
7.18
1.4
-5.61
-13.0
-19.82
-25.37
-29.56
-32.96
-36.43
-40.68
-46.0
-52.0
-57.69
-61.83
-63.24
-61.04
-55.0
-45.41
-33.08
-19.12
-4.65
9.27
21.82
32.28
40.18
45.14
47.05
46.15
42.94
38.18
32.69
27.28
22.7
19.6
18.38
19.1
21.34
24.23
26.8
28.11
27.85
26.22
23.87
21.48
19.43
17.57
15.37
12.27
7.87
2.28
-3.95
-10.12
-15.61
-20.09
-23.72
-26.94
-30.19
-33.89
-38.23
-43.19
-48.63
-54.22
-59.38
-63.27
-64.89
-63.23
-57.71
-48.37
-35.88
-21.55
-6.84
6.88
18.63
27.81
34.29
38.24
39.9
39.65
37.85
34.96
31.52
28.16
25.39
23.39
22.04
20.92
19.69
18.32
17.28
17.29
18.8
21.65
24.77
26.69
26.1
22.54
16.65
9.94
4.01
-0.2
-2.77
-4.75
-7.5
-11.99
-18.37
-25.98
-33.61
-40.17
-45.11
-48.54
-51.18
-53.97
-57.63
-62.25
-67.09
-70.74
-71.52
-68.17
-60.24
-48.41
-34.25
-19.7
-6.61
3.87
11.38
16.21
19.07
20.71
21.56
21.74
21.07
19.31
16.51
13.16
10.18
8.65
9.31
12.14
16.31
20.41
23.06
23.45
21.7
18.76
15.93
14.16
13.66
13.89
13.79
12.43
9.31
4.63
-0.97
-6.67
-11.83
-16.2
-19.86
-23.21
-26.59
-30.29
-34.41
-38.97
-43.92
-49.11
-54.2
-58.51
-61.12
-60.94
-57.16
-49.61
-38.83
-26.06
-12.73
-0.1
11.02
20.27
27.57
32.83
35.83
36.49
34.99
31.99
28.43
25.34
23.41
22.78
23.14
23.82
24.3
24.46
24.49
24.83
25.69
26.85
27.71
27.49
25.66
22.34
18.16
13.94
10.26
7.05
3.83
0.02
-4.59
-9.59
-14.28
-18.09
-21.0
-23.5
-26.37
-30.06
-34.56
-39.45
-44.17
-48.45
-52.29
-55.77
-58.58
-59.9
-58.51
-53.25
-43.71
-30.5
-15.29
-0.18
12.88
22.77
29.19
32.68
34.11
34.27
33.7
32.61
31.09
29.28
27.42
25.83
24.8
24.47
24.83
25.79
27.21
29.01
31.04
33.06
34.73
35.63
35.39
33.9
31.34
28.11
24.66
21.34
18.21
15.06
11.6
7.45
2.46
-3.22
-9.25
-15.17
-20.55
-25.23
-29.37
-33.38
-37.81
-43.07
-49.17
-55.61
-61.48
-65.43
-66.16
-62.69
-54.57
-42.15
-26.52
-9.22
7.94
23.42
36.09
45.5
51.77
55.46
57.2
57.65
57.24
56.24
55.01
53.88
53.33
53.76
55.49
58.48
62.42
66.76
70.71
73.67
75.24
75.44
74.63
73.38
71.98
70.41
68.23
64.79
59.75
53.27
46.05
38.89
32.17
25.53
17.93
8.24
-4.2
-19.02
-34.99
-50.42
-63.77
-74.18
-81.46
-86.05
-88.58
-89.61
-89.32
-87.55
-83.87
-77.66
-68.48
-56.25
-41.5
-25.35
-9.32
5.05
16.61
24.84
30.1
33.38
36.02
39.14
43.43
48.71
54.24
59.11
62.51
64.32
65.01
65.32
65.88
66.82
67.56
67.02
64.1
57.93
48.4
36.2
22.52
8.72
-4.29
-16.35
-28.2
-40.97
-55.59
-72.48
-91.23
-110.94
-130.58
-149.25
-166.12
-180.37
-191.02
-197.06
-197.9
-193.56
-184.69
-172.2
-156.87
-139.16
-119.24
-97.41
-74.28
-50.68
-27.45
-5.17
16.01
36.06
54.8
71.75
86.09
96.83
103.29
105.6
104.58
101.79
99.11
97.98
99.02
101.88
105.33
107.84
108.15
105.61
100.21
92.6
83.62
74.2
65.13
56.86
49.44
42.45
35.32
27.46
18.74
9.68
1.26
-5.39
-9.54
-11.2
-11.22
-10.97
-11.89
-14.97
-20.36
-27.43
-35.16
-42.52
-48.72
-53.59
-57.14
-59.29
-59.8
-58.0
-53.26
-45.34
-34.68
-22.35
-9.93
1.13
9.91
16.13
20.26
22.94
24.98
26.74
28.36
29.64
30.28
30.18
29.54
29.1
29.8
32.7
38.42
46.89
57.32
68.19
77.63
83.78
85.2
80.8
70.01
52.84
29.62
1.2
-31.28
-66.44
-102.64
-137.92
-170.25
-197.75
-219.05
-233.88
-242.88
-247.46
-249.16
-248.88
-246.5
-240.96
-230.79
-214.89
-193.28
-167.12
-138.46
-109.57
-82.19
-57.22
-34.64
-14.03
4.91
22.01
36.61
47.9
55.39
59.23
60.18
59.31
57.72
56.13
54.79
53.67
52.6
51.57
50.8
50.66
51.38
52.94
54.78
56.03
55.83
53.59
49.27
43.35
36.55
29.55
22.53
15.31
7.35
-1.87
-12.57
-24.64
-37.67
-51.12
-64.36
-76.64
-86.84
-93.56
-95.31
-91.0
-80.42
-64.5
-45.19
-24.86
-5.62
11.26
25.45
37.24
47.12
55.26
61.48
65.43
66.87
66.0
63.45
60.13
56.94
54.55
53.25
53.11
54.1
56.14
59.2
63.21
67.93
72.87
77.31
80.33
81.12
79.27
74.82
68.37
60.84
53.06
45.59
38.57
31.83
25.05
17.99
10.47
2.45
-5.93
-14.26
-21.57
-26.43
-27.22
-22.67
-12.41
2.76
21.03
40.09
57.8
72.71
84.18
92.16
96.9
98.6
