-51.82
-61.72
-71.05
-78.33
-81.89
-80.36
-73.11
-60.51
-43.83
-24.92
-5.81
11.75
26.54
37.92
45.72
50.15
51.61
50.56
47.59
43.27
38.1
32.56
27.07
22.04
17.94
15.27
14.25
14.89
16.78
19.17
21.34
22.74
23.18
22.8
21.83
20.43
18.43
15.54
11.44
5.98
-0.68
-8.12
-15.77
-23.18
-30.09
-36.53
-42.72
-48.87
-55.05
-61.27
-67.61
-74.09
-80.76
-87.15
-92.14
-93.96
-90.68
-81.01
-65.03
-44.31
-21.61
0.01
18.08
31.31
39.6
43.71
44.77
43.85
41.69
38.65
34.82
30.14
24.66
18.69
12.76
7.56
3.82
1.99
2.17
4.08
7.09
10.43
13.25
14.85
14.71
12.65
8.82
3.59
-2.57
-9.24
-16.24
-23.55
-31.16
-39.01
-46.83
-54.21
-60.7
-66.08
-70.39
-74.1
-77.98
-82.82
-89.01
-96.25
-103.29
-108.09
-108.41
-102.48
-89.68
-70.85
-47.99
-23.65
-0.3
20.25
37.0
49.62
58.33
63.65
66.31
67.03
66.51
65.22
63.27
60.6
57.14
53.08
48.98
45.64
43.84
43.98
45.88
48.77
51.54
53.13
52.93
50.88
47.46
43.39
39.17
34.9
30.27
24.84
18.36
11.04
3.51
-3.43
-9.22
-13.83
-17.82
-22.0
-27.16
-33.81
-42.04
-51.41
-61.03
-69.52
-75.14
-76.18
-71.29
-60.05
-43.3
-22.89
-1.25
19.35
37.27
51.77
62.79
70.54
75.29
77.17
76.21
72.68
67.05
60.15
52.91
46.25
40.8
36.8
34.16
32.57
31.7
31.41
31.67
32.52
33.8
35.0
35.32
33.95
30.37
24.61
17.27
9.24
1.35
-5.9
-12.48
-18.63
-24.64
-30.63
-36.53
-42.16
-47.55
-52.96
-58.86
-65.52
-72.6
-78.9
-82.46
-81.23
-73.73
-59.83
-40.77
-18.95
2.94
22.64
38.74
50.76
58.78
63.18
64.38
62.83
59.06
53.79
47.87
42.09
36.97
32.73
29.25
26.34
23.88
22.01
21.03
21.18
22.36
24.03
25.29
25.3
23.58
20.2
15.69
10.74
5.82
1.0
-4.01
-9.65
-16.18
-23.54
-31.31
-38.99
-46.17
-52.76
-59.02
-65.44
-72.46
-80.07
-87.55
-93.51
-96.1
-93.58
-85.02
-70.55
-51.47
-29.92
-8.29
11.36
27.64
39.94
48.36
53.43
55.92
56.68
56.29
55.01
52.77
49.38
44.81
39.49
34.27
30.21
28.18
28.38
30.29
32.82
34.73
35.22
34.05
31.56
28.32
24.74
20.9
16.59
11.42
5.21
-1.94
-9.59
-17.21
-24.32
-30.72
-36.43
-41.61
-46.56
-51.54
-56.93
-63.11
-70.25
-78.02
-85.26
-90.05
-90.16
-83.92
-70.93
-52.44
-30.98
-9.5
9.6
25.13
37.06
46.02
52.65
57.23
59.66
59.73
57.5
53.45
48.41
43.27
38.75
35.19
32.61
30.83
29.61
28.87
28.61
28.84
29.53
30.36
30.89
30.62
29.22
26.59
22.92
18.44
13.27
7.4
0.69
-6.86
-15.04
-23.32
-31.12
-37.97
-43.77
-48.82
-53.7
-59.05
-65.28
-72.37
-79.73
-86.18
-90.13
-90.01
-84.72
-74.02
-58.74
-40.47
-21.2
-2.75
13.55
26.98
37.22
44.28
48.36
49.76
49.03
46.81
43.74
40.32
36.85
33.53
30.55
28.2
26.83
26.68
27.71
29.6
31.82
33.79
35.13
35.61
35.17
33.78
31.4
27.99
23.57
18.24
12.18
5.63
-1.21
-8.27
-15.54
-22.9
-30.24
-37.25
-43.61
-49.22
-54.31
-59.46
-65.29
-71.93
-78.62
-83.67
-84.93
-80.64
-70.2
-54.45
-35.48
-15.83
2.3
17.54
29.47
38.24
44.26
47.87
49.28
48.78
46.75
43.71
40.26
36.9
33.98
31.66
30.04
29.24
29.42
30.72
33.15
36.4
39.84
42.62
44.0
43.59
41.55
38.43
34.92
31.49
28.13
24.41
19.79
13.95
7.0
-0.52
-7.93
-14.64
-20.34
-25.11
-29.36
-33.74
-38.99
-45.71
-53.94
-62.88
-70.87
-75.64
-75.07
-68.01
-54.8
-37.12
-17.57
1.27
17.48
30.08
38.97
44.58
47.53
48.31
47.34
44.87
41.05
36.13
30.49
24.76
19.59
15.62
13.21
12.34
12.69
13.7
14.83
15.61
15.71
14.96
13.21
10.39
6.49
1.59
-4.18
-10.63
-17.61
-24.94
-32.53
-40.26
-48.02
-55.62
-62.78
-69.19
-74.55
-78.81
-82.26
-85.57
-89.59
-94.88
-101.35
-107.94
-112.7
-113.33
-107.99
-96.01
-78.09
-56.19
-32.76
-10.19
9.76
26.04
38.32
46.71
51.68
53.94
54.24
53.31
51.6
49.34
46.5
43.08
39.24
35.44
32.3
30.46
30.29
31.69
34.14
36.84
38.92
39.8
39.26
37.38
34.48
30.75
26.25
20.83
14.47
7.22
-0.55
-8.3
-15.55
-22.02
-27.73
-32.87
-37.78
-42.73
-48.06
-54.0
-60.68
-67.93
-74.9
-80.05
-81.36
-76.94
-65.85
-48.57
-27.13
-4.56
16.11
32.77
44.61
52.2
56.72
59.33
60.6
60.44
58.41
54.34
48.58
42.1
36.24
32.11
30.21
30.37
31.83
33.64
35.05
35.67
35.48
34.69
33.46
31.84
29.7
26.8
22.9
17.84
11.61
4.39
-3.52
-11.7
-19.7
-27.06
-33.53
-39.11
-44.15
-49.33
-55.36
-62.61
-70.74
-78.39
-83.48
-83.81
-77.77
-65.02
-46.74
-25.2
-3.06
17.28
34.42
47.97
58.14
65.43
70.2
72.51
72.3
69.72
65.17
59.37
53.23
47.46
42.51
38.51
35.46
33.34
32.25
32.34
33.57
35.6
37.77
39.26
39.33
37.61
34.16
29.26
23.33
16.67
9.49
1.94
-5.69
-13.07
-19.94
-26.1
-31.69
-37.05
-42.65
-48.97
-56.38
-64.86
-74.02
-82.85
-89.81
-93.17
-91.4
-83.65
-70.19
-52.29
-31.89
-11.03
8.44
25.29
38.81
48.71
55.1
58.34
59.09
58.15
56.33
54.15
51.85
49.37
46.55
43.39
40.12
37.18
34.99
33.8
33.54
33.87
34.21
34.02
32.79
30.2
26.16
20.84
14.65
8.16
1.84
-4.06
-9.64
-15.26
-21.33
-28.09
-35.39
-42.78
-49.64
-55.49
-60.27
-64.44
-68.78
-73.94
-79.9
-85.65
-89.25
-88.52
-81.72
-68.37
-49.55
-27.51
-5.01
15.53
32.62
45.83
55.52
62.38
67.02
69.76
70.67
69.8
67.32
63.68
59.48
55.3
51.58
48.58
46.39
45.01
44.46
44.56
44.98
45.25
44.83
43.42
41.02
37.9
34.35
30.49
26.02
20.48
13.51
5.08
-4.27
-13.77
-22.65
-30.45
-37.23
-43.44
-49.74
-56.65
-64.48
-73.03
-81.67
-89.25
-94.3
-95.25
-90.85
-80.6
-64.93
-45.27
-23.64
-2.16
17.3
33.48
45.82
54.38
59.69
62.55
63.68
63.56
62.36
59.99
56.47
52.06
47.45
43.54
41.06
40.25
40.77
41.83
42.54
42.25
40.73
38.15
34.79
30.83
26.24
20.79
14.24
6.6
-1.89
-10.71
-19.34
-27.45
-35.0
-42.14
-49.07
-55.91
-62.62
-69.19
-75.57
-81.69
-87.22
-91.35
-92.8
-90.2
-82.57
-69.82
-52.94
-33.73
-14.31
3.41
18.27
29.89
38.37
44.1
47.32
48.13
46.55
42.83
37.56
31.7
26.24
21.87
18.77
16.65
15.05
13.74
12.84
12.7
13.55
15.15
16.69
17.18
15.86
12.58
7.84
2.44
-2.9
-7.93
-12.83
-18.1
-24.13
-30.97
-38.37
-45.74
-52.59
-58.58
-63.8
-68.74
-74.09
-80.35
-87.43
-94.32
-99.15
-99.73
-94.26
-82.16
-64.29
-42.78
-20.2
1.13
19.72
34.91
46.59
54.99
60.37
63.06
63.49
62.18
59.62
56.1
51.7
46.49
40.7
34.86
29.71
25.91
23.82
23.22
23.47
23.76
23.37
21.99
19.67
16.76
13.52
9.98
5.91
0.97
-5.04
-12.03
-19.59
-27.21
-34.32
-40.68
-46.27
-51.31
-56.16
-61.31
-67.27
-74.45
-82.96
-92.22
-100.85
-106.72
-107.51
-101.49
-88.12
-68.33
-44.34
-19.02
4.91
25.48
41.66
53.33
60.86
64.88
65.95
64.49
60.84
55.43
48.82
41.87
35.58
30.88
28.31
27.85
28.92
30.66
32.29
33.4
33.98
34.31
34.63
34.89
34.73
33.58
30.88
26.35
20.03
12.32
3.75
-5.16
-14.0
-22.51
-30.58
-38.18
-45.48
-52.83
-60.76
-69.75
-79.91
-90.52
-99.86
-105.53
-105.15
-97.24
-81.83
-60.53
-36.0
-11.07
11.89
31.44
46.92
58.17
65.21
68.19
67.48
63.75
57.99
51.21
44.39
38.2
33.04
29.13
26.61
25.55
26.01
27.84
30.58
33.56
35.97
37.09
36.5
34.19
30.37
25.38
19.51
12.78
5.21
-3.2
-12.22
-21.4
-30.31
-38.65
-46.45
-54.01
-61.79
-70.2
-79.51
-89.51
-99.47
-108.02
-113.18
-112.89
-105.57
-90.74
-69.35
-43.59
-16.29
9.89
32.96
51.89
66.34
76.46
82.58
85.21
84.89
82.24
77.8
71.99
65.24
58.03
51.07
45.13
40.91
38.78
38.64
39.96
42.03
44.11
45.58
46.07
45.3
43.13
39.56
34.66
28.53
21.26
12.87
3.39
-7.01
-17.98
-29.04
-39.61
-49.25
-57.76
-65.27
-72.37
-80.02
-89.16
-100.28
-112.69
-124.23
-131.56
-131.14
-120.56
-99.74
-71.09
-38.71
-7.01
20.72
43.02
59.97
72.49
81.49
87.41
90.34
90.36
87.82
83.42
78.06
72.58
67.57
63.45
60.38
58.48
57.78
58.06
58.93
59.78
59.88
58.64
55.77
51.39
45.86
39.65
33.01
25.97
18.33
9.82
0.39
-9.73
-20.1
-30.2
-39.65
-48.35
-56.41
-64.13
-71.88
-80.0
-88.71
-98.02
-107.4
-115.65
-120.94
-121.0
-113.91
-98.77
-76.17
-48.22
-17.93
11.45
37.33
58.11
73.31
83.27
88.77
90.68
89.77
86.58
81.52
75.02
67.68
60.31
53.78
48.84
45.9
44.94
45.61
47.31
49.47
51.54
53.05
53.51
52.57
50.03
45.86
40.22
33.38
25.6
17.11
8.03
-1.53
-11.53
-21.86
-32.39
-42.88
-52.93
-62.15
-70.34
-77.7
-84.84
-92.44
-100.62
-108.43
-113.71
-113.57
-105.59
-88.9
-64.72
-36.18
-7.28
18.46
38.9
53.52
63.03
68.61
71.24
71.53
69.78
66.19
61.14
55.09
48.59
42.17
36.3
31.46
28.15
26.81
27.65
30.37
34.18
37.8
39.95
39.68
36.81
31.83
25.64
19.05
12.44
5.6
-2.0
-10.79
-20.83
-31.53
-41.93
-51.1
-58.52
-64.3
-69.22
-74.4
-80.85
-89.14
-98.87
-108.6
-116.04
-118.6
-114.11
-101.63
-81.75
-56.44
-28.54
-0.9
24.2
45.37
61.99
73.99
81.57
85.08
85.01
82.03
76.88
70.34
63.2
56.18
49.91
45.02
41.87
40.62
41.03
42.48
44.17
45.28
45.23
43.74
40.92
37.1
32.57
27.49
21.81
15.37
8.04
-0.11
-8.89
-17.89
-26.78
-35.27
-43.22
-50.59
-57.32
-63.51
-69.29
-75.04
-81.25
-88.38
-96.33
-104.13
-109.78
-110.7
-104.57
-90.24
-68.4
-41.54
-13.18
13.25
35.42
52.36
64.26
71.86
75.89
76.87
75.26
71.6
66.63
61.1
55.53
50.09
44.66
39.18
33.85
29.34
26.57
26.21
28.38
32.32
36.63
39.69
40.26
37.92
33.22
27.36
21.58
16.57
12.26
7.86
2.4
-4.68
-13.25
-22.46
-31.18
-38.46
-44.01
-48.24
-52.12
-56.83
-63.28
-71.91
-82.27
-92.98
-101.81
-106.2
-103.91
-93.83
-76.41
-53.58
-28.2
-3.32
18.67
36.41
49.46
58.08
62.84
64.34
63.09
59.63
54.53
48.52
42.39
36.99
33.0
30.76
30.22
30.94
32.4
34.19
36.07
37.96
39.78
41.28
42.01
41.45
39.27
35.4
30.11
23.78
16.73
9.1
0.97
-7.63
-16.53
-25.38
-33.79
-41.48
-48.33
-54.51
-60.41
-66.53
-73.4
-81.17
-89.35
-96.61
-100.92
-100.03
-92.32
-77.42
-56.52
-31.99
-6.72
16.72
36.6
52.01
62.76
68.98
71.03
69.42
64.94
58.58
51.35
44.09
37.36
31.45
26.52
22.75
20.39
19.7
20.8
23.43
26.91
30.28
32.47
32.72
30.77
26.87
21.67
15.93
10.1
4.25
-1.85
-8.6
-16.2
-24.5
-33.1
-41.46
-49.08
-55.77
-61.63
-67.11
-72.91
-79.71
-87.81
-96.71
-104.81
-109.61
-108.34
-99.05
-81.37
-56.93
-28.95
-1.14
23.25
42.34
55.75
64.16
68.75
70.63
70.48
68.61
65.19
60.33
54.42
48.11
42.21
37.51
34.53
33.36
33.76
35.18
37.03
38.79
40.0
40.32
39.49
37.32
33.78
28.99
23.28
16.92
10.12
2.92
-4.81
-13.14
-21.97
-30.97
-39.62
-47.41
-54.06
-59.64
-64.66
-69.93
-76.31
-84.37
-94.04
-104.35
-113.34
-118.51
-117.43
-108.53
-91.74
-68.63
-41.89
-14.59
10.64
31.98
48.61
60.4
67.74
71.23
71.71
70.11
67.33
64.11
60.81
57.56
54.37
51.33
48.73
47.01
46.65
47.83
50.43
53.89
57.38
59.97
60.9
59.67
56.14
50.58
43.43
35.26
26.66
17.97
9.28
0.49
-8.63
-18.31
-28.5
-38.91
-49.01
-58.18
-66.05
-72.76
-79.04
-86.01
-94.59
-104.83
-115.4
-123.63
-126.25
-120.51
-105.42
-82.17
-53.81
-24.19
3.27
26.37
44.39
57.61
66.71
72.33
74.91
74.8
72.5
68.57
63.66
58.35
53.11
48.36
44.53
42.01
41.12
41.95
44.25
47.4
50.51
52.63
52.94
51.1
47.22
41.86
35.69
29.25
22.66
15.67
7.91
-0.83
-10.36
-20.08
-29.25
-37.3
-44.07
-49.84
-55.21
-60.84
-67.29
-74.93
-83.73
-93.03
-101.43
-106.84
-106.89
-99.73
-84.82
-63.3
-37.79
-11.7
11.92
31.04
45.0
54.23
59.61
61.9
61.49
58.49
52.91
45.09
35.82
26.29
17.85
11.62
8.14
7.19
7.96
9.36
10.41
10.55
9.74
8.2
6.14
3.57
0.15
-4.59
-11.05
-19.4
-29.5
-40.95
-53.3
-66.17
-79.27
-92.37
-105.25
-117.59
-129.08
-139.56
-149.12
-158.12
-166.86
-175.13
-181.81
-184.83
-181.67
-170.19
-149.56
-120.72
-86.23
-49.52
-13.88
18.27
45.72
68.21
86.09
99.79
109.72
116.21
119.73
120.91
120.56
119.57
118.58
118.01
117.9
118.15
118.63
119.36
120.36
121.52
122.53
122.68
121.3
117.88
112.3
104.93
96.3
86.85
76.63
65.41
52.83
38.79
23.61
8.01
-7.07
-20.82
-32.86
-43.37
-53.0
-62.58
-72.73
-83.46
-93.75
-101.64
-104.67
-100.62
-88.43
-68.62
-43.26
-15.36
11.97
36.32
56.32
71.5
82.07
88.6
91.76
92.22
90.6
87.37
82.81
77.13
70.54
63.5
56.65
50.8
46.56
44.23
43.66
44.3
45.42
46.21
46.11
44.84
42.4
38.98
34.83
30.17
25.04
19.38
13.06
6.05
-1.54
-9.5
-17.54
-25.41
-32.96
-40.22
-47.32
-54.61
-62.51
-71.39
-81.19
-91.05
-99.22
-103.3
-100.98
-90.92
-73.31
-50.11
-24.37
0.68
22.51
39.83
52.53
61.19
66.58
69.21
69.2
66.62
61.65
54.94
47.49
40.49
34.95
31.38
29.79
29.77
30.81
32.49
34.54
36.78
38.92
40.49
40.96
39.8
36.74
31.77
25.07
17.02
8.03
-1.53
-11.35
-21.2
-30.98
-40.67
-50.24
-59.76
-69.39
-79.28
-89.54
-99.94
-109.58
-116.83
-119.55
-115.7
-104.28
-85.75
-62.09
-36.26
-11.22
10.85
28.79
42.45
52.18
58.37
61.37
61.53
59.36
55.59
51.07
46.54
42.38
38.67
35.26
32.04
29.1
26.72
25.29
24.93
25.29
25.56
24.71
21.82
16.5
8.96
-0.15
-9.98
-19.89
-29.57
-38.89
-47.72
-55.75
-62.48
-67.43
-70.48
-71.99
-72.86
-74.24
-76.99
-81.34
-86.54
-90.8
-91.86
-87.57
-76.65
-59.14
-36.44
-10.88
14.91
38.65
58.87
75.0
87.08
95.56
100.89
103.49
103.65
101.65
97.81
92.55
86.45
80.12
74.16
69.03
65.0
62.03
59.82
57.96
56.03
53.73
50.93
47.61
43.68
38.88
32.85
25.28
16.14
5.81
-5.02
-15.53
-25.14
-33.68
-41.38
-48.75
-56.27
-64.29
-73.02
-82.49
-92.44
-102.27
-110.75
-116.13
-116.44
-110.12
-96.61
-76.72
-52.48
-26.69
-2.15
19.03
35.75
47.84
55.9
60.8
63.35
64.12
63.35
61.02
57.17
51.95
45.79
39.44
33.68
29.15
26.21
24.83
24.7
25.31
26.07
26.41
25.84
24.12
21.14
17.06
12.2
6.92
1.5
-4.03
-9.85
-16.28
-23.53
-31.51
-39.75
-47.55
-54.36
-60.04
-65.25
-71.06
-78.53
-87.87
-97.87
-105.92
-108.93
-104.37
-91.43
-71.43
-47.26
-22.39
0.3
19.27
34.22
45.57
53.7
58.72
60.42
58.67
53.84
46.76
38.6
30.51
23.3
17.44
13.15
10.57
9.78
10.71
13.06
16.17
19.2
21.45
22.49
22.23
20.77
18.15
14.21
8.64
1.29
-7.65
-17.43
-26.98
-35.29
-41.82
-46.79
-51.06
-55.95
-62.6
-71.67
-82.91
-94.89
-105.3
-111.45
-110.96
-102.52
-86.4
-64.34
-39.16
-13.85
9.16
28.42
43.48
54.53
62.09
66.57
68.21
67.16
63.56
57.79
50.57
42.87
35.83
30.44
27.18
25.96
26.14
26.85
27.35
27.24
26.56
25.59
24.58
23.5
21.85
18.9
13.91
6.47
-3.23
-14.39
-25.87
-36.62
-46.02
-54.11
-61.42
-68.66
-76.46
-85.11
-94.61
-104.7
-114.78
-123.73
-129.9
-131.25
-125.95
-113.06
-93.02
-67.73
-40.05
-12.8
11.75
32.39
48.72
60.78
68.78
72.98
73.72
71.57
67.37
62.01
56.28
50.76
45.79
41.54
38.17
35.81
34.6
34.63
35.73
37.53
39.39
40.5
40.09
37.62
32.96
26.4
18.61
10.27
1.88
-6.41
-14.89
-23.91
-33.55
-43.53
-53.14
-61.64
-68.74
-74.85
-81.02
-88.53
-98.07
-109.09
-119.61
-126.61
-126.96
-118.5
-100.79
-75.33
-45.08
-13.63
15.8
40.87
60.39
74.18
82.75
87.03
88.06
86.84
84.09
80.25
75.48
69.92
63.8
57.62
52.23
48.46
46.95
47.84
50.49
53.77
56.32
57.01
55.37
51.74
46.91
41.78
36.88
32.05
26.64
19.9
11.37
1.14
-10.16
-21.74
-32.84
-42.94
-51.92
-59.89
-67.26
-74.72
-83.05
-92.82
-103.86
-114.81
-123.07
-125.45
-119.24
-103.35
-78.85
-48.73
-16.91
13.04
38.68
59.04
74.19
84.65
90.89
93.21
91.84
87.21
80.12
71.7
63.23
55.8
50.2
46.63
44.83
44.23
44.24
44.5
45.0
45.85
47.1
48.45
49.17
48.35
45.23
39.48
31.36
21.67
11.26
0.8
-9.35
-19.19
-28.8
-38.12
-47.09
-55.65
-63.97
-72.48
-81.8
-92.29
-103.55
-114.21
-121.91
-123.98
-118.22
-103.74
-81.34
-53.31
-22.73
7.23
34.01
55.94
72.22
82.8
88.1
88.92
86.31
81.34
74.94
67.8
60.35
52.92
45.92
39.92
35.59
33.59
34.29
37.46
42.25
47.17
50.65
51.43
49.04
43.91
37.02
29.43
21.78
14.15
6.1
-2.86
-12.93
-23.92
-35.21
-46.15
-56.23
-65.2
-73.1
-80.29
-87.46
-95.4
-104.8
-115.59
-126.64
-135.53
-139.11
-134.45
-119.91
-95.95
-65.07
-31.1
2.05
31.38
55.3
73.55
86.65
95.41
100.44
102.2
100.99
97.19
91.3
84.0
76.14
68.54
62.0
57.06
53.96
52.68
52.88
54.11
55.82
57.47
58.33
57.7
54.96
49.79
42.37
33.21
23.11
12.66
2.11
-8.7
-20.05
-32.03
-44.37
-56.41
-67.46
-77.07
-85.27
-92.57
-99.85
-107.9
-117.04
-126.75
-135.47
-140.87
-140.4
-132.02
-114.93
-89.87
-58.99
-25.34
7.83
37.7
62.26
80.5
92.36
98.55
100.28
98.93
95.7
91.39
86.36
80.73
74.57
68.18
62.07
56.99
53.67
52.54
53.49
55.81
58.27
59.52
58.53
54.9
48.99
41.66
33.85
26.19
18.76
11.11
2.58
-7.32
-18.69
-31.1
-43.71
-55.52
-65.72
-73.91
-80.32
-85.77
-91.55
-98.86
-108.21
-118.81
-128.41
-133.69
-131.34
-119.26
-97.51
-68.46
-36.01
-4.29
23.49
45.77
62.55
74.57
82.72
87.44
88.73
86.59
81.39
74.0
65.76
58.14
52.24
48.6
47.22
47.68
49.56
52.46
56.06
59.92
63.43
65.87
66.57
65.17
61.62
56.13
48.95
40.26
30.18
18.9
6.77
-5.63
-17.68
-28.88
-38.95
-47.96
-56.26
-64.38
-72.93
-82.31
-92.31
-101.82
-108.79
-110.61
-104.98
-90.74
-68.51
-40.67
-10.67
17.91
42.32
61.08
74.01
81.72
85.1
85.04
82.26
77.38
70.98
63.68
56.06
48.71
42.17
36.89
33.26
31.51
31.51
32.77
34.52
35.87
36.13
34.93
32.21
28.1
22.6
15.63
6.99
-3.3
-15.0
-27.52
-40.17
-52.37
-63.73
-74.17
-83.78
-92.75
-101.26
-109.65
-118.31
-127.73
-138.2
-149.3
-159.57
-166.42
-166.74
-157.96
-139.04
-111.1
-77.25
-41.57
-7.91
21.08
44.25
61.64
73.83
81.5
85.2
85.52
83.19
79.13
74.2
69.08
64.14
59.48
55.15
51.33
48.32
46.53
46.22
47.26
49.04
50.59
50.8
48.84
44.4
37.77
29.76
21.2
12.7
4.29
-4.36
-13.75
-24.1
-35.18
-46.38
-56.95
-66.47
-75.04
-83.31
-92.23
-102.51
-114.01
-125.38
-134.14
-137.16
-131.76
-116.65
-92.62
-62.45
-30.16
0.22
25.71
44.81
57.5
64.68
67.5
