43.14
40.45
39.64
40.41
42.08
43.85
44.9
44.64
42.83
39.5
34.88
29.29
22.95
15.93
8.19
-0.4
-9.87
-20.04
-30.48
-40.59
-49.87
-58.09
-65.41
-72.31
-79.4
-87.34
-96.46
-106.61
-116.74
-124.88
-128.43
-124.81
-112.45
-91.5
-64.05
-33.46
-3.49
22.93
44.14
59.73
70.17
76.19
78.54
77.95
75.26
71.32
66.91
62.53
58.32
54.29
50.45
47.04
44.61
43.61
44.28
46.36
49.18
51.74
53.15
52.75
50.28
45.92
40.0
32.97
25.18
16.83
7.86
-1.88
-12.56
-24.21
-36.51
-48.86
-60.41
-70.36
-78.15
-83.85
-88.18
-92.45
-98.18
-106.3
-116.5
-126.79
-133.87
-134.03
-124.49
-104.62
-76.21
-42.97
-9.24
21.3
46.52
65.82
79.63
88.74
93.83
95.37
93.94
90.29
85.31
79.93
74.73
70.0
65.84
62.47
60.26
59.62
60.66
62.88
65.17
66.13
64.63
60.25
53.47
45.35
37.02
29.16
21.64
13.72
4.48
-6.67
-19.55
-33.26
-46.54
-58.22
-67.76
-75.31
-81.59
-87.67
-94.49
-102.64
-112.07
-121.75
-129.78
-133.58
-130.47
-118.62
-97.83
-69.76
-37.64
-5.27
24.01
48.04
65.98
78.0
84.81
87.13
85.68
81.16
74.24
65.7
56.36
47.09
38.76
32.24
28.14
26.76
27.96
31.07
35.09
38.94
41.72
42.88
42.24
39.85
35.93
30.73
24.41
17.17
9.13
0.55
-8.3
-17.13
-25.72
-33.87
-41.55
-48.75
-55.56
-62.21
-69.16
-77.0
-86.34
-97.19
-108.49
-117.95
-122.34
-118.59
-104.95
-82.01
-52.57
-20.83
8.97
33.87
52.6
65.4
73.33
77.4
78.34
76.66
72.91
67.79
62.14
56.65
51.69
47.2
42.92
38.72
34.82
31.89
30.72
31.79
34.88
38.93
42.31
43.42
41.35
36.15
28.77
20.43
12.14
4.16
-3.85
-12.61
-22.67
-34.04
-46.2
-58.14
-68.85
-77.58
-84.31
-89.69
-95.09
-102.12
-111.8
-123.88
-136.24
-145.16
-146.34
-136.47
-114.46
-82.14
-43.64
-4.07
31.92
61.41
83.34
98.2
107.24
111.77
112.89
111.31
107.54
102.0
95.19
87.74
80.37
73.81
68.63
65.1
63.15
62.36
62.08
61.59
60.28
57.72
53.83
48.85
43.12
36.97
30.49
23.48
15.61
6.57
-3.67
-14.74
-26.15
-37.32
-47.76
-57.16
-65.38
-72.37
-78.39
-83.95
-89.93
-97.11
-105.68
-114.58
-121.32
-122.62
-115.43
-98.27
-72.05
-39.92
-6.21
24.94
50.75
70.27
83.82
92.33
96.53
96.72
93.02
85.74
75.64
63.88
51.77
40.52
30.98
23.71
19.03
17.09
17.78
20.67
24.88
29.17
32.29
33.21
31.47
27.17
20.9
13.34
5.08
-3.55
-12.47
-21.65
-31.03
-40.47
-49.77
-58.75
-67.36
-75.79
-84.43
-93.88
-104.7
-116.95
-129.74
-141.0
-147.58
-146.21
-134.62
-112.52
-81.92
-46.59
-10.88
21.53
48.32
68.64
82.68
91.08
94.61
94.2
90.86
85.73
79.85
73.93
68.22
62.64
57.08
51.64
46.74
42.97
40.8
40.36
41.32
42.92
44.27
44.62
43.52
40.8
36.54
30.8
23.61
14.93
4.8
-6.61
-18.97
-31.71
-44.27
-56.05
-66.59
-75.63
-83.31
-90.24
-97.48
-106.25
-117.23
-129.85
-141.81
-149.43
-148.65
-136.61
-112.84
-79.68
-41.7
-4.11
28.72
54.37
72.49
84.22
91.18
94.73
95.54
93.79
89.57
83.21
75.49
67.49
60.34
54.91
51.59
50.3
50.57
51.69
52.92
53.65
53.42
52.03
49.47
45.83
41.28
35.97
30.04
23.56
16.59
9.09
0.94
-7.92
-17.49
-27.51
-37.42
-46.54
-54.38
-60.91
-66.66
-72.49
-78.99
-85.74
-91.01
-91.9
-85.21
-68.81
-42.51
-8.3
30.16
68.8
104.16
133.94
156.95
172.77
181.4
183.4
180.1
173.64
166.62
161.32
159.06
159.91
163.04
167.31
171.65
175.09
176.47
174.38
167.41
154.92
137.61
117.72
98.29
82.05
70.32
62.47
56.14
48.07
35.2
15.64
-10.85
-42.74
-77.31
-111.48
-143.01
-170.95
-195.85
-219.2
-242.46
-266.35
-290.32
-312.47
-329.86
-339.0
-336.64
-320.71
-291.11
-250.18
-202.31
-152.8
-106.52
-66.67
-34.48
-9.52
9.38
23.36
33.14
39.17
41.95
42.28
41.28
40.14
39.8
40.72
42.87
45.83
49.13
52.45
55.66
58.8
61.84
64.5
66.14
65.83
62.58
55.73
45.33
32.21
17.83
3.86
-8.45
-18.68
-27.3
-35.39
-44.14
-54.4
-66.55
-80.32
-94.71
-107.82
-116.94
-118.87
-110.88
-91.83
-62.85
-27.3
10.03
44.52
72.85
93.59
106.98
114.11
116.09
113.66
107.29
97.43
84.93
71.12
57.61
45.92
37.05
31.2
27.81
25.91
24.56
23.2
21.8
20.58
19.65
18.58
16.35
11.65
3.49
-8.32
-22.82
-38.33
-52.97
-65.44
-75.44
-83.69
-91.49
-100.2
-110.81
-123.66
-138.38
-153.69
-167.19
-175.43
-174.59
-161.63
-135.55
-98.23
-54.04
-8.58
32.99
67.44
93.78
112.71
125.53
133.27
136.32
134.8
129.03
119.85
108.7
97.23
86.9
78.58
72.4
67.86
64.17
60.65
57.04
53.58
50.66
48.45
46.48
43.61
38.44
29.82
17.54
2.5
-13.62
-29.03
-42.51
-53.89
-63.91
-73.78
-84.65
-97.3
-112.09
-128.93
-147.12
-164.9
-179.14
-185.68
-180.43
-160.86
-127.43
-83.84
-35.94
10.02
49.37
79.96
101.86
116.42
125.06
128.61
127.36
121.63
112.23
100.6
88.54
77.73
69.17
62.98
58.54
54.91
51.36
47.73
44.49
42.38
41.92
42.88
44.07
43.7
39.98
31.85
19.37
3.85
-12.77
-28.6
-42.38
-53.8
-63.39
-72.06
-80.9
-90.95
-102.99
-117.27
-132.9
-147.39
-156.77
-156.54
-143.32
-116.39
-78.4
-34.66
8.66
46.55
76.38
97.91
112.29
120.72
123.67
121.02
112.66
99.32
82.82
65.73
50.58
39.15
31.95
28.26
26.72
25.99
25.37
24.92
25.21
26.67
29.05
31.13
31.08
27.18
18.66
6.1
-8.63
-23.16
-35.54
-44.99
-52.1
-58.45
-65.86
-75.76
-88.96
-105.28
-123.51
-141.15
-154.45
-159.07
-151.29
-129.45
-94.96
-52.22
-7.25
34.17
68.1
93.18
109.99
120.05
124.66
124.46
119.73
110.88
98.89
85.4
72.34
61.45
53.83
49.63
48.08
47.96
48.12
47.86
47.26
46.89
47.25
48.38
49.51
49.28
46.32
39.87
30.04
17.83
4.61
-8.48
-20.84
-32.53
-43.98
-55.69
-68.01
-81.18
-95.47
-111.29
-128.72
-146.69
-162.6
-172.31
-171.41
-156.97
-128.98
-90.8
-48.19
-7.28
27.4
53.84
72.43
84.81
92.57
96.62
97.23
94.43
88.59
80.68
71.96
63.78
57.19
52.68
50.23
49.49
49.97
51.31
53.24
55.48
57.58
58.91
58.69
56.23
51.11
43.25
32.83
20.23
5.93
-9.47
-25.25
-40.63
-54.93
-67.76
-79.05
-89.11
-98.65
-108.6
-119.97
-133.15
-147.4
-160.28
-167.94
-166.11
-151.79
-124.58
-87.2
-44.67
-2.57
34.65
64.68
87.16
102.8
112.48
116.88
116.64
112.66
106.16
98.45
90.55
82.97
75.95
69.72
64.78
61.79
61.22
63.01
66.51
70.63
74.19
76.22
76.13
73.66
68.87
61.92
53.11
42.67
30.87
17.99
4.37
-9.52
-23.12
-35.88
-47.52
-58.13
-68.3
-78.98
-91.23
-105.79
-122.54
-139.91
-154.75
-162.83
-160.05
-143.96
-115.05
-76.99
-35.58
2.99
34.09
55.76
68.53
74.52
76.09
75.0
72.08
67.58
61.54
54.24
46.34
38.82
32.81
29.29
28.69
30.78
34.64
38.99
42.68
44.97
45.66
44.87
42.77
39.27
34.08
26.86
17.4
5.85
-7.33
-21.46
-35.83
-49.83
-62.98
-74.97
-85.61
-94.95
-103.29
-111.33
-120.08
-130.3
-141.81
-152.86
-159.97
-158.94
-146.32
-121.06
-85.29
-43.77
-2.31
34.14
62.71
82.92
95.79
102.85
105.33
103.95
99.16
91.61
82.14
71.76
61.38
51.69
43.24
36.6
32.37
31.11
33.07
37.86
44.38
50.9
55.5
56.67
53.81
47.36
38.62
29.02
19.63
10.56
1.23
-9.31
-21.61
-35.35
-49.43
-62.38
-73.13
-81.5
-88.29
-94.94
-102.94
-113.46
-126.83
-142.37
-157.98
-170.24
-175.03
-168.52
-148.63
-116.14
-74.59
-29.41
13.73
50.55
78.8
98.2
109.7
114.67
114.42
110.17
103.1
94.45
85.43
76.99
69.71
63.85
59.3
55.89
53.44
51.93
51.55
52.48
54.63
57.44
59.84
60.46
58.16
52.52
43.91
33.52
22.74
12.58
3.19
-6.07
-16.35
-28.52
-42.57
-57.64
-72.18
-84.59
-93.98
-100.45
-105.28
-110.48
-118.16
-129.64
-144.62
-160.67
-173.44
-177.73
-169.24
-146.26
-110.52
-66.77
-21.22
20.38
54.33
79.24
95.59
104.8
108.26
107.19
102.6
95.53
86.94
77.74
68.47
59.54
51.45
44.93
41.02
40.68
44.35
51.52
60.76
70.06
77.36
81.28
81.38
78.07
72.29
64.95
56.64
47.52
37.39
25.92
12.88
-1.79
-17.81
-34.53
-51.07
-66.43
-79.93
-91.45
-101.66
-111.93
-123.85
-138.27
-154.44
-169.41
-178.49
-176.68
-160.56
-129.9
-88.05
-40.95
4.92
44.51
75.33
97.28
111.59
119.53
121.75
118.43
109.81
96.83
81.17
64.92
50.03
37.84
29.0
23.66
21.7
22.94
27.07
33.47
41.07
48.36
53.57
55.25
52.66
45.99
36.33
25.16
13.73
2.71
-7.97
-18.87
-30.53
-43.09
-56.15
-68.97
-80.85
-91.6
-101.52
-111.46
-122.57
-135.78
-151.23
-167.65
-181.99
-189.7
-186.08
-167.81
-134.54
-89.48
-38.51
11.59
55.1
88.8
112.04
125.93
132.31
132.9
129.15
122.29
113.46
103.65
93.61
83.72
74.22
65.41
57.83
52.34
49.73
50.43
54.17
60.0
66.37
71.56
74.05
72.84
67.69
59.09
48.04
35.63
22.78
9.85
-3.29
-17.01
-31.66
-47.14
-62.85
-77.76
-90.82
-101.36
-109.55
-116.58
-124.33
-134.77
-148.69
-164.77
-179.14
-186.16
-180.25
-158.07
-120.12
-70.89
-17.43
32.95
74.85
105.89
126.36
138.1
143.21
143.27
139.27
131.91
122.04
110.63
98.73
87.19
76.6
67.43
60.09
55.12
53.0
53.93
57.53
62.66
67.74
71.04
71.3
68.06
61.7
53.17
43.51
33.37
22.88
11.75
-0.4
-13.74
-27.99
-42.58
-56.71
-69.77
-81.52
-92.08
-101.96
-111.95
-122.94
-135.7
-150.32
-165.56
-178.55
-184.92
-179.97
-160.39
-125.72
-79.07
-26.37
25.3
69.83
103.46
125.24
136.43
139.36
136.46
129.72
120.64
110.21
99.2
88.14
77.47
67.72
59.44
53.26
49.77
49.31
51.78
56.63
62.81
68.99
73.79
75.95
74.67
69.67
61.22
50.05
37.04
23.0
8.5
-6.24
-21.16
-36.13
-50.86
-64.89
-77.66
-88.78
-98.38
-107.26
-116.73
-128.15
-141.96
-156.69
-168.75
-172.99
-164.44
-140.38
-101.74
-53.12
-1.43
46.39
85.3
113.12
130.21
138.24
139.12
134.24
124.58
111.08
94.93
77.67
60.98
46.23
34.41
26.01
21.2
19.91
21.91
26.71
33.4
40.58
46.64
50.08
50.01
46.4
39.92
31.54
21.99
11.44
-0.45
-14.11
-29.56
-46.09
-62.45
-77.25
-89.57
-99.37
-107.49
-115.47
-125.05
-137.49
-152.9
-169.61
-183.91
-190.84
-185.53
-165.04
-129.75
-83.62
-32.98
15.42
56.55
88.06
110.12
124.29
132.32
135.4
134.09
128.81
120.22
109.28
97.05
84.55
72.54
61.71
52.69
46.18
42.78
42.61
45.16
49.19
53.01
54.96
53.95
49.7
42.73
33.92
24.05
13.43
1.92
-10.93
-25.37
-41.34
-58.29
-75.42
-91.87
-107.0
-120.59
-132.88
-144.69
-157.23
-171.8
-189.04
-208.08
-226.03
-238.22
-239.34
-225.26
-194.72
-150.08
-96.78
-41.66
9.1
51.42
83.82
106.81
121.8
130.21
133.18
131.64
126.77
119.96
112.68
106.1
100.82
96.79
93.57
90.87
88.68
87.49
87.92
90.28
94.22
98.56
101.61
101.73
98.0
90.51
80.43
69.4
58.82
49.2
40.0
29.98
17.99
3.62
-12.49
-28.86
-43.69
-55.77
-64.83
-71.83
-78.56
-87.05
-98.58
-112.88
-127.59
-138.62
-141.23
-131.54
-108.19
-72.91
-30.28
13.78
53.77
85.88
108.54
122.01
127.65
127.01
121.57
112.5
100.87
87.75
74.18
61.29
50.16
41.88
37.27
36.88
40.64
47.89
57.47
67.87
77.6
85.33
90.23
92.05
91.2
88.66
85.63
83.07
81.22
79.39
76.1
69.57
58.43
42.21
21.48
-2.33
-27.43
-52.24
-75.64
-97.3
-117.7
-137.64
-157.89
-178.21
-196.85
-210.4
-214.75
-206.43
-184.32
-150.46
-109.58
-67.73
-30.29
-0.84
19.37
30.85
34.95
33.06
26.25
15.27
0.85
-16.1
-34.4
-52.48
-68.61
-81.26
-89.42
-92.88
-92.21
-88.48
-82.73
-75.72
-67.86
-59.49
-51.2
-43.91
-38.66
-36.23
-36.92
-40.28
-45.38
-51.19
-57.01
-62.8
-68.97
-76.22
-84.91
-94.84
-105.29
-115.33
-124.33
-132.26
-139.47
-145.94
-150.72
-151.75
-146.26
-132.1
-108.81
-78.16
-43.73
-9.55
21.31
47.7
70.25
90.4
109.05
125.71
138.58
145.44
144.93
137.35
124.82
110.55
97.62
88.03
82.32
79.78
79.08
78.74
77.29
73.27
65.32
52.63
35.62
16.44
-1.33
-13.88
-18.74
-16.13
-8.94
-1.61
1.93
-0.1
-6.89
-15.92
-24.61
-31.6
-37.08
-42.04
-47.06
-51.63
-54.21
-52.99
-46.76
-35.37
-19.46
0.0
22.15
46.21
71.34
96.44
120.3
142.02
161.33
178.63
194.42
208.92
221.52
230.91
235.72
235.01
228.94
218.77
206.53
194.39
184.15
176.81
172.53
170.89
171.2
172.73
174.95
177.37
179.5
180.92
181.23
180.24
178.0
174.67
170.46
165.68
160.78
156.33
152.99
151.13
150.47
150.14
148.59
144.19
135.47
121.42
101.69
76.71
47.85
17.33
-12.16
-38.28
-59.84
-77.26
-92.29
-107.09
-123.11
-140.51
-158.34
-175.17
-190.25
-203.83
-216.98
-230.95
-246.33
-262.75
-279.2
-294.66
-308.61
-321.3
-333.17
-344.45
-354.69
-362.71
-367.16
-367.02
-361.96
-352.29
-338.75
-322.14
-303.34
-283.39
-263.44
-244.7
-228.18
-214.72
-205.06
-200.1
-200.8
-207.75
-220.23
-235.64
-249.53
-256.65
-252.52
-234.89
-204.39
-164.06
-118.19
-70.75
-24.54
19.3
60.95
101.07
139.95
176.98
210.65
239.1
261.07
276.5
286.61
293.37
298.52
302.88
306.3
308.1
308.01
306.57
304.99
304.58
305.86
308.14
309.64
308.17
301.97
290.49
274.54
255.93
236.82
218.82
202.47
187.26
171.81
154.43
133.61
108.44
79.04
47.05
15.72
-10.54
-27.22
-31.28
-22.32
-2.86
22.58
49.06
72.82
91.94
106.11
115.83
121.62
123.82
122.9
119.82
116.02
113.0
111.73
112.19
113.39
113.69
111.41
105.34
95.03
80.86
63.68
44.46
23.95
2.44
-20.07
-43.57
-67.81
-92.11
-115.5
-137.2
-156.93
-175.17
-193.16
-212.59
-235.17
-262.1
-293.37
-327.42
-361.22
-390.91
-412.79
-424.55
-425.8
-418.01
-403.63
-384.99
-363.55
-339.63
-312.78
-282.15
-247.02
-207.12
-162.87
-115.68
-67.91
-22.51
17.63
50.61
76.07
95.13
109.89
122.56
134.85
147.72
161.62
176.77
193.36
211.43
230.77
250.79
270.67
289.55
306.68
321.43
333.29
341.75
346.22
346.1
340.94
330.7
315.83
297.38
276.81
255.77
235.78
217.88
202.43
189.14
177.21
165.77
154.17
142.3
130.43
119.05
108.55
98.98
90.08
81.29
72.0
61.64
49.93
36.93
22.95
8.48
-6.11
-20.88
-36.47
-53.96
-74.52
-98.78
-126.41
-156.29
-186.78
-216.41
-244.35
-270.6
-295.88
-321.51
-349.21
-380.66
-416.63
-455.81
-494.01
-524.37
-539.08
-532.21
-502.33
-453.39
-393.64
-332.55
-277.52
-231.92
-195.1
-164.19
-136.14
-109.15
-82.66
-56.56
-30.25
-2.28
28.99
64.58
104.28
146.59
189.66
232.37
274.71
317.16
359.29
398.43
429.82
448.3
450.63
437.33
412.6
382.63
353.06
327.34
306.3
289.3
275.3
263.49
252.98
242.3
229.31
212.05
189.73
163.36
135.42
108.74
85.25
65.37
47.96
31.1
12.9
-7.76
-31.09
-56.44
-82.93
-109.73
-136.44
-162.97
-189.58
-216.71
-244.95
-274.98
-307.02
-340.2
-372.25
-399.58
-418.26
-425.49
-420.66
-405.6
-383.83
-359.13
-334.38
-311.16
-290.11
-271.52
-255.62
-242.39
-231.09
-220.18
-207.77
-192.46
-174.02
-153.59
-133.07
-114.29
-98.28
-84.9
-73.17
-61.69
-49.46
-36.38
-23.46
-12.43
-5.15
-2.71
-4.83
-10.02
-16.08
-21.18
-24.47
-26.31
-27.78
-30.12
-34.23
-40.45
-48.68
-58.15
-67.34
-73.72
-74.03
-64.79
-43.66
-10.42
32.6
80.76
128.16
169.19
199.64
217.45
222.76
217.38
204.13
186.29
166.91
148.54
133.08
121.51
113.86
109.4
106.88
105.01
103.01
100.62
98.15
96.03
94.44
93.0
90.79
86.55
79.11
67.95
53.44
36.93
20.35
5.46
-6.78
-16.72
-25.9
-36.51
-50.45
-68.58
-90.19
-113.08
-134.04
-149.52
-156.53
-153.3
-139.77
-117.52
-89.57
-59.48
-30.62
-5.46
14.73
29.75
40.0
46.08
48.5
47.65
44.02
38.42
31.97
26.02
21.78
20.04
20.91
23.92
28.28
33.15
38.08
43.0
48.2
53.8
59.57
64.7
67.99
68.39
65.41
59.37
51.3
42.5
33.95
26.09
18.75
11.39
3.38
-5.86
-16.79
-29.34
-42.54
-54.15
-60.78
-58.81
-45.86
-21.92
10.05
45.01
77.44
103.11
120.06
128.27
128.53
121.15
105.71
81.44
48.57
9.21
-32.73
-72.5
-106.1
-131.48
-148.89
-160.09
-167.22
-171.83
-174.42
-175.13
-174.3
-172.93
-172.54
-174.46
-179.13
-186.01
-193.97
-201.9
-209.43
-216.58
-223.21
-228.22
-229.43
-224.34
-211.77
-193.0
-172.07
-154.42
-144.49
-143.58
-149.03
-155.44
-157.13
-150.67
-136.07
-116.2
-94.92
-75.15
-57.85
-42.33
-27.37
-12.24
2.84
17.16
30.45
43.56
58.25
76.41
98.86
124.58
151.01
175.05
194.47
208.8
219.28
227.9
236.09
244.08
250.82
255.06
256.06
253.91
249.2
242.28
232.91
220.45
204.62
186.02
166.38
147.83
131.97
119.18
108.15
96.48
81.73
62.45
38.95
13.61
-9.97
-28.07
-38.03
-39.31
-33.57
-24.09
-14.64
-8.61
-7.91
-12.94
-22.77
-35.32
-48.08
-58.74
-65.71
-68.51
-67.92
-65.43
-62.49
-60.04
-58.14
-56.41
-54.5
-52.53
-51.08
-50.74
-51.56
-52.96
-53.93
-53.68
-52.31
-50.7
-50.21
-51.88
-55.78
-60.8
-65.22
-67.47
-66.85
-64.08
-60.87
-59.22
-60.55
-64.99
-71.16
-76.6
-78.54
-74.51
-63.09
-44.0
-18.22
12.26
44.5
75.13
100.97
119.7
130.56
134.41
133.36
129.68
125.06
120.04
114.21
107.07
98.6
89.66
81.66
75.84
72.71
71.96
72.9
74.7
76.88
79.16
81.16
82.31
81.81
78.97
73.64
66.38
58.19
50.21
43.2
37.24
31.95
26.55
20.46
13.46
5.99
-0.79
-5.25
-5.78
-1.27
8.45
22.45
39.03
56.12
71.8
84.7
93.91
98.9
99.38
95.42
87.43
76.52
64.25
52.38
42.37
34.97
30.14
27.24
25.47
24.25
23.4
23.12
23.63
24.99
26.84
28.57
29.43
28.76
26.33
22.18
16.78
10.79
4.93
-0.31
-4.69
-8.52
-12.58
-17.81
-24.91
-33.83
-43.43
-51.49
-55.47
-53.12
-43.45
-27.04
-5.76
17.69
40.64
60.9
77.08
88.51
95.25
97.77
96.89
93.56
88.66
82.92
76.8
70.57
64.36
58.38
52.91
48.33
45.05
43.31
43.18
44.31
46.01
47.32
47.34
45.35
41.13
34.94
27.26
18.74
9.94
1.29
-6.87
-14.33
-21.05
-27.3
-33.56
-40.46
-48.28
-56.74
-64.62
-69.98
-70.67
-65.01
-52.55
-34.22
-12.22
10.67
31.74
49.1
61.77
69.61
73.11
72.99
70.14
65.46
59.86
53.98
48.23
42.65
37.06
31.46
26.13
21.77
19.14
18.65
20.03
22.32
24.2
24.47
22.6
18.8
13.79
8.38
2.99
-2.44
-8.2
-14.59
-21.53
-28.54
-35.06
-40.69
-45.59
-50.42
-55.96
-62.59
-69.86
-76.35
-79.99
-78.75
-71.31
-57.5
-38.55
-16.63
5.56
25.47
41.13
51.57
56.77
57.59
55.39
51.58
47.23
42.85
38.49
33.9
28.98
23.88
19.1
15.32
13.03
12.28
12.61
13.3
13.64
13.27
12.2
10.75
9.12
7.26
4.68
0.8
-4.73
-11.7
-19.3
-26.51
-32.53
-37.14
-40.81
-44.3
-48.4
-53.47
-59.39
-65.48
-70.77
-74.14
-74.45
-70.81
-62.68
-50.15
-34.0
-15.72
2.84
19.8
33.62
43.5
49.26
51.35
50.54
47.61
43.2
37.86
32.06
26.36
21.42
17.77
15.69
14.96
15.12
15.53
15.78
15.75
15.56
15.38
15.15
14.54
13.01
10.08
5.6
-0.12
-6.43
-12.57
-18.04
-22.81
-27.24
-31.86
-37.02
-42.65
-48.37
-53.72
-58.46
-62.73
-66.85
-70.72
-73.66
-74.17
-70.51
-61.62
-47.6
-30.04
-11.48
5.43
18.88
28.21
33.84
36.72
37.68
37.23
35.53
32.71
28.95
24.67
20.29
16.2
12.68
9.88
7.99
7.19
7.6
9.13
11.42
13.73
15.21
15.13
13.15
9.52
4.96
0.35
-3.61
-6.77
-9.59
-12.8
-17.03
-22.5
-28.79
-35.06
-40.49
-44.54
-47.23
-49.22
-51.49
-54.91
-59.8
-65.6
-70.73
-73.27
-71.39
-64.14
-51.9
-36.14
-18.97
-2.46
11.98
23.78
33.07
40.46
46.72
52.51
58.23
63.9
69.15
73.3
75.69
76.06
74.76
72.77
71.34
71.47
73.28
75.68
76.59
73.63
65.05
50.45
31.16
9.75
-10.82
-28.39
-42.18
-52.9
-61.89
-70.17
-77.83
-83.98
-87.53
-87.98
-85.95
-82.87
-80.26
-78.79
-78.04
-76.88
-74.26
-70.2
-65.75
-62.46
-61.38
-62.39
-64.1
-64.55
-62.18
-56.58
-48.62
-39.86
-31.69
-24.64
-18.24
-11.48
-3.49
5.88
16.04
25.85
34.17
40.23
43.71
44.47
42.51
37.86
30.82
22.23
13.4
5.87
0.87
-1.12
-0.47
1.9
5.05
8.38
11.92
16.0
20.8
26.02
30.83
33.96
34.43
31.71
26.11
18.61
10.6
3.22
-2.85
-7.71
-12.08
-16.83
-22.62
-29.58
-37.23
-44.72
-51.17
-55.86
-58.28
-58.14
-55.16
-49.13
-40.08
-28.32
-14.8
-0.81
12.0
22.11
28.4
30.51
28.81
24.33
18.34
11.91
5.73
-0.02
-5.48
-10.8
-15.78
-19.98
-22.8
-23.78
-22.96
-20.73
-17.8
-14.87
-12.49
-10.84
-10.06
-10.17
-11.18
-13.2
-16.21
-20.06
-24.48
-29.13
-33.64
-37.77
-41.39
-44.43
-47.06
-49.5
-52.09
-55.12
-58.82
-63.03
-67.14
-70.05
-70.32
-66.65
-58.18
-44.89
-27.58
-7.75
12.92
32.89
50.99
66.45
78.66
87.12
91.48
91.73
88.46
82.86
76.48
70.76
66.59
63.96
62.2
60.38
57.93
54.95
52.17
50.47
50.35
51.6
53.29
54.22
53.42
50.56
45.99
40.42
34.46
28.35
21.95
14.92
7.06
-1.57
-10.65
-19.75
-28.48
-36.58
-43.94
-50.59
-56.82
-63.16
-70.17
-78.15
-86.59
-94.06
-98.31
-97.13
-89.09
-74.33
-54.55
-32.44
-10.84
8.18
23.62
35.52
44.34
50.48
54.07
54.94
53.06
48.8
42.96
36.6
30.73
25.95
22.44
20.09
18.74
18.24
18.53
19.37
20.34
20.98
20.8
19.63
17.55
14.77
11.42
7.42
2.53
-3.56
-10.87
-19.1
-27.66
-35.82
-43.11
-49.42
-55.06
-60.59
-66.6
-73.41
-81.05
-89.15
-97.14
-104.24
-109.48
-111.76
-109.91
-102.96
-90.51
-73.04
-51.88
-29.08
-6.83
13.02
29.17
41.09
48.75
52.52
52.93
50.64
46.45
41.12
35.4
29.83
24.73
20.2
16.34
13.32
11.43
11.11
12.6
15.83
20.22
24.8
28.41
30.09
29.41
26.6
22.41
17.78
13.39
9.44
5.66
1.48
-3.54
-9.41
-15.75
-21.84
-27.05
-31.1
-34.18
-36.81
-39.63
-43.09
-47.11
-51.07
-53.71
-53.46
-48.69
-38.39
-22.51
-2.29
19.87
41.09
58.68
70.91
77.41
78.98
77.01
72.91
67.54
61.17
53.64
44.84
35.01
24.96
15.8
8.68
4.39
3.06
4.11
6.52
9.09
10.97
11.8
11.69
10.94
9.7
7.89
5.21
1.53
-2.98
-7.76
-12.09
-15.61
-18.42
-21.06
-24.2
-28.27
-33.09
-38.21
-43.17
-47.78
-52.4
-57.55
-63.46
-69.67
-74.96
-77.51
-75.69
-68.6
-56.42
-40.43
-22.49
-4.54
11.85
25.68
36.5
44.08
48.41
49.69
48.35
45.06
40.74
36.3
32.43
29.49
27.44
26.01
24.99
24.11
23.22
22.12
20.6
18.53
16.03
13.56
11.92
11.94
14.06
18.19
23.59
29.23
34.14
37.88
40.46
42.23
43.49
44.17
43.85
41.89
37.79
31.42
23.41
14.94
7.58
2.93
2.16
5.77
13.33
23.7
35.24
46.48
56.24
63.85
69.06
71.78
71.95
69.43
64.22
56.57
47.2
37.15
27.57
19.6
13.73
9.97
7.71
6.14
4.46
2.33
-0.09
-2.3
-3.55
-3.43
-2.05
-0.11
1.23
0.79
-2.11
-7.36
-14.08
-20.95
-26.93
-31.64
-35.52
-39.47
-44.28
-50.18
-56.74
-63.24
-68.94
-73.61
-77.23
-79.74
-80.57
-78.58
-72.47
-61.42
-45.63
-26.37
-5.8
13.8
30.53
43.27
51.73
56.19
57.23
55.62
52.15
47.68
43.07
38.94
35.63
32.88
30.01
26.15
20.63
13.25
4.54
-4.46
-12.78
-19.72
-25.12
-29.3
-32.57
-35.04
-36.64
-37.22
-36.95
-36.47
-36.7
-38.38
-41.8
-46.51
-51.61
-56.29
-60.15
-63.54
-67.33
-72.3
-78.49
-84.89
-89.45
-89.83
-84.27
-72.25
-54.81
-34.16
-12.99
6.25
21.9
33.26
40.32
43.58
43.94
42.31
39.72
36.95
34.45
32.3
30.26
28.0
25.34
22.44
19.62
17.31
15.75
14.81
14.12
13.2
11.66
9.37
6.38
2.75
-1.43
-6.15
-11.43
-17.05
-22.73
-28.09
-32.82
-36.9
-40.51
-43.98
-47.61
-51.52
-55.43
-58.72
-60.42
-59.39
-54.62
-45.42
-31.72
-14.23
5.64
26.11
45.26
61.57
74.11
82.58
87.27
88.85
88.01
85.43
81.48
76.18
69.53
61.62
52.78
43.7
35.26
28.14
22.75
18.84
15.76
12.79
9.4
5.49
1.34
-2.66
-6.3
-9.64
-13.06
-16.89
-21.11
-25.4
-29.2
-32.04
-33.9
-35.25
-36.84
-39.39
-43.06
-47.22
-50.7
-51.99
-49.72
-43.15
-32.29
-17.98
-1.69
14.82
29.9
42.33
51.54
57.67
61.27
63.01
63.41
62.52
60.1
55.91
50.05
43.16
36.28
30.4
26.14
23.38
21.46
19.44
16.75
13.31
9.53
5.94
2.75
-0.24
-3.61
-7.88
-13.27
-19.47
-25.87
-31.78
-36.74
-40.81
-44.38
-48.1
-52.48
-57.75
-63.66
-69.53
-74.25
-76.44
-74.82
-68.59
-57.73
-43.1
-26.28
-9.08
6.84
20.41
31.19
39.26
44.94
48.52
50.2
50.05
48.22
45.04
41.01
36.87
33.24
30.56
28.88
27.95
27.34
26.72
26.0
25.33
24.93
24.7
24.2
22.62
19.19
13.49
5.79
-3.0
-11.76
-19.5
-25.9
-31.36
-36.81
-43.17
-50.95
-59.88
-68.93
-76.71
-81.75
-83.07
-80.22
-73.39
-63.19
-50.52
-36.36
-21.82
-7.97
4.07
13.34
19.26
21.77
21.4
19.08
15.83
12.47
9.49
6.99
4.91
3.21
1.9
1.1
0.96
1.54
2.91
5.01
7.7
10.61
13.16
14.51
13.87
10.81
5.47
-1.34
-8.41
-14.6
-19.35
-22.77
-25.72
-29.32
-34.46
-41.51
-50.01
-58.8
-66.3
-70.82
-71.01
-66.2
-56.56
-43.04
-27.15
-10.46
5.62
20.05
32.19
41.61
48.01
51.23
51.4
48.92
44.67
39.62
34.62
30.3
26.73
23.74
21.1
18.63
16.28
14.28
12.84
12.1
12.13
12.69
13.29
13.25
11.75
8.23
2.71
-4.21
-11.49
-18.01
-23.24
-27.36
-31.16
-35.68
-41.65
-49.09
-57.39
-65.53
-72.28
-76.58
-77.47
-74.2
-66.32
-53.87
-37.54
-18.74
0.66
18.73
33.81
44.96
51.94
55.14
55.26
53.11
49.39
44.76
39.79
34.96
30.71
27.18
24.27
21.77
19.41
17.16
15.26
14.16
14.1
14.96
15.94
15.95
13.9
9.21
2.09
-6.59
-15.55
-23.84
-31.01
-37.43
-43.91
-51.3
-60.11
-70.18
-80.78
-90.69
-98.63
-103.52
-104.87
-102.85
-98.19
-91.86
-84.64
-76.86
-68.29
-58.43
-46.86
-33.7
-19.61
-5.8
6.43
16.0
22.31
25.52
26.39
26.13
26.06
27.24
30.04
34.17
38.78
42.89
45.84
47.41
47.81
47.39
46.44
45.0
42.97
40.27
36.99
33.41
29.78
26.4
23.31
20.45
17.68
14.89
11.99
8.97
5.77
2.24
-1.54
-5.24
-7.99
-8.41
-4.9
3.82
18.14
37.35
59.58
82.42
103.4
120.48
132.33
138.19
137.84
131.51
119.93
104.29
86.33
68.03
51.31
37.8
28.3
22.88
20.77
20.72
21.44
21.99
21.89
21.13
19.85
17.96
15.3
11.59
6.65
0.51
-6.8
-15.31
-25.19
-36.4
-48.56
-60.57
-70.95
-78.33
-82.11
-82.76
-81.89
-81.53
-83.3
-87.78
-94.09
-100.26
-103.8
-102.57
-95.46
-82.6
-65.36
-45.85
-26.38
-9.0
4.86
14.61
20.54
23.59
25.07
26.11
27.38
28.97
30.42
31.24
31.21
30.69
30.32
30.65
31.69
32.71
32.4
29.52
23.44
14.45
3.77
-7.09
-16.93
-25.4
-33.0
-40.68
-49.01
-57.7
-65.62
-71.2
-73.34
-71.99
-68.34
-64.19
-61.43
-61.14
-63.32
-67.14
-71.21
-74.02
-74.23
-70.75
-62.71
-49.76
-32.07
-10.43
13.76
38.69
62.41
83.09
99.21
109.82
114.51
113.6
107.95
98.86
87.88
76.41
65.5
55.68
47.0
39.16
31.92
25.35
19.9
16.38
15.48
17.24
20.92
25.0
27.72
27.86
25.18
20.41
15.01
10.2
6.47
3.46
0.2
-4.3
-10.51
-18.18
-26.66
-35.05
-42.58
-48.65
-52.59
-53.65
-51.03
-44.11
-32.85
-18.02
-0.99
16.47
32.73
46.66
57.63
65.37
69.9
71.28
69.75
65.86
60.44
54.46
48.75
43.73
39.42
35.62
32.13
28.96
26.33
24.42
23.33
22.98
23.02
23.06
22.66
21.4
18.9
15.06
9.79
3.33
-3.88
-11.24
-18.07
-23.74
-27.95
-30.74
-32.59
-34.43
-37.27
-41.66
-47.3
-52.98
-56.64
-56.2
-50.27
-38.75
-23.01
-5.44
11.31
25.15
35.09
41.31
44.7
46.31
46.87
46.59
45.34
42.88
39.19
34.47
29.18
23.81
18.8
14.49
11.14
8.97
8.1
8.49
9.83
11.62
13.18
13.84
13.06
10.56
6.43
0.98
-5.21
-11.48
-17.15
-21.77
-25.2
-27.72
-30.06
-33.19
-38.06
-45.07
-53.8
-62.7
-69.57
-72.18
-69.02
-60.04
-46.58
-30.92
-15.45
-1.82
9.45
18.7
26.64
33.68
39.6
43.69
45.25
43.96
40.2
34.99
29.59
25.08
22.01
20.33
19.56
19.21
19.01
18.98
19.4
20.48
22.14
24.01
25.48
26.03
25.39
23.62
20.96
17.74
14.26
10.73
7.29
4.03
0.88
-2.33
-5.94
-10.28
-15.48
-21.28
-26.96
-31.44
-33.56
-32.33
-27.27
-18.43
-6.52
7.44
22.25
36.83
50.47
62.73
73.5
82.8
90.67
97.11
102.22
106.15
109.09
111.34
113.0
114.08
114.53
114.32
113.56
112.57
111.65
110.9
110.08
108.53
105.25
99.21
89.65
76.32
59.78
41.24
22.13
3.71
-13.65
-30.41
-47.37
-64.84
-82.1
-97.27
-108.15
-113.39
-113.08
-108.84
-102.9
-96.77
-90.78
-84.38
-77.1
-69.45
-62.92
-59.25
-59.08
-61.29
-63.2
-61.91
-55.7
-44.75
-31.09
-17.36
-5.73
3.04
9.56
15.31
21.58
28.94
37.05
44.82
51.26
55.88
59.08
61.65
64.47
67.53
70.0
70.6
68.02
61.76
52.19
40.03
25.88
10.31
-5.93
-21.39
-33.72
-40.55
-40.48
-34.06
-23.84
-13.41
-5.65
-1.51
0.05
1.26
3.9
8.37
13.68
18.38
21.46
23.3
25.38
29.5
36.8
47.15
59.36
71.56
82.16
90.13
95.49
98.96
101.72
104.93
109.26
114.83
121.01
127.08
132.27
136.33
139.33
141.67
143.88
146.47
150.01
154.88
161.41
169.49
178.58
187.67
195.71
202.16
206.9
210.27
212.23
212.31
209.41
202.58
191.49
176.72
159.82
142.3
125.27
109.0
93.15
77.26
61.28
45.68
30.99
17.68
5.63
-5.6
-17.7
-31.63
-47.18
-62.92
-77.19
-89.01
-97.99
-104.36
-108.61
-112.45
-116.99
-122.32
-127.58
-131.79
-134.57
-136.0
-136.54
-136.71
-139.59
-147.0
-158.28
-170.86
-182.23
-191.14
-197.38
-201.34
-203.53
-211.73
-230.62
-258.44
-288.61
-314.88
-334.58
-347.81
-355.94
-360.47
-377.54
-416.8
-474.67
-537.35
-592.06
-633.05
-660.6
-677.53
-686.98
-715.45
-779.04
-872.47
-974.03
-1063.41
-1131.08
-1177.23
-1205.87
-1221.63
-1259.44
-1341.02
-1460.5
-1591.06
-1707.94
-1800.53
-1871.06
-1926.53
-1777.78
-1347.45
-712.13
-46.64
512.36
920.78
1195.85
1372.87
1485.2
1557.91
1576.66
1532.65
1440.15
1331.94
1231.82
1156.44
1108.26
1083.22
1075.65
1056.29
1005.49
925.77
836.7
757.17
696.12
651.87
618.35
587.87
544.92
477.93
389.52
293.69
204.61
130.54
72.56
28.51
-5.01
-38.85
-81.53
-134.23
-192.66
-251.87
-308.49
-360.2
-403.22
-431.76
-442.49
-434.06
-407.05
-364.91
-313.57
-259.46
-207.35
-159.07
-114.64
-74.43
-40.39
-14.68
1.8
11.03
17.23
24.57
34.96
47.12
57.62
62.83
60.92
52.3
38.92
22.99
6.39
-9.1
-21.72
-29.79
-32.55
-30.64
-26.11
-21.15
-17.17
-14.19
-11.24
-7.98
-5.39
-5.57
-10.74
-21.71
-37.16
-54.42
-70.52
-83.08
-91.09
-94.37
-93.06
-87.6
-78.61
-67.14
-54.36
-41.34
-28.49
-15.63
-2.38
11.47
25.41
38.45
49.67
58.85
66.64
74.5
83.94
95.74
109.76
124.75
139.27
152.24
163.79
175.1
187.94
203.71
222.55
243.48
265.23
287.26
310.2
335.32
363.18
392.1
417.91
435.23
439.38
428.46
404.02
370.37
332.93
296.79
265.53
240.99
223.33
211.17
201.86
192.12
178.95
160.7
137.96
113.17
89.82
70.79
57.56
49.43
44.23
39.33
32.49
23.11
12.02
1.31
-6.68
-10.17
-9.03
-4.86
-0.59
0.61
-2.82
-10.14
-18.45
-24.1
-24.51
-19.68
-12.17
-5.68
-3.04
-4.92
-9.5
-13.59
-14.56
-11.48
-5.42
1.18
6.1
8.22
7.9
6.62
6.15
7.78
11.75
17.4
23.49
28.65
31.74
32.18
29.8
25.03
19.09
13.55
9.99
9.5
11.9
15.59
18.06
16.98
11.2
1.56
-9.2
-17.78
-21.6
-20.11
-15.39
-10.99
-10.02
-13.9
-21.26
-28.68
-32.93
-32.17
-27.13
-20.54
-15.52
-14.03
-16.25
-20.4
-23.98
-25.06
-22.93
-18.43
-13.51
-10.37
-10.63
-14.74
-21.8
-30.0
-37.21
-41.85
-43.43
-42.32
-39.37
-35.31
-30.62
-25.66
-20.83
-16.57
-12.91
-9.57
-5.76
-0.44
6.64
14.7
21.95
26.27
26.35
22.76
17.32
12.59
10.52
11.26
13.35
14.5
12.82
8.0
1.49
-4.19
-6.88
-5.83
-2.05
2.28
4.97
4.91
2.09
-2.54
-7.93
-13.45
-18.92
-24.24
-28.92
-32.2
-33.36
-32.43
-30.23
-27.95
-26.26
-24.9
-22.65
-18.08
-10.79
-1.85
6.45
11.4
11.45
6.9
-0.41
-7.97
-13.78
-17.31
-19.22
-20.73
-22.82
-25.46
-27.59
-27.65
-24.45
-17.8
-8.98
-0.18
6.39
9.53
9.46
7.65
5.93
5.28
5.37
4.83
2.19
-2.98
-9.7
-16.04
-20.34
-22.06
-21.75
-20.78
-20.25
-20.57
-21.65
-23.26
-25.31
-28.33
-32.7
-38.25
-44.47
-50.43
-55.39
-59.3
-62.69
-66.47
-71.74
-79.16
-88.83
-100.03
-111.26
-120.51
-126.04
-127.04
-123.99
-118.32
-111.74
-105.22
-98.37
-89.77
-77.84
-61.85
-42.5
-21.84
-2.47
13.56
25.21
32.82
37.81
41.85
46.34
52.04
58.5
64.45
68.48
69.42
67.27
63.3
59.29
57.01
57.43
60.17
63.82
66.65
67.06
64.21
58.3
50.46
42.32
35.56
31.01
28.39
26.32
22.97
17.14
9.23
1.36
-3.5
-2.95
3.31
13.18
22.83
28.43
28.26
23.24
16.57
12.15
12.43
17.42
24.97
32.08
36.57
38.24
38.72
40.06
43.83
50.16
57.81
65.12
70.88
74.69
77.03
78.48
79.38
79.75
79.55
79.02
78.19
76.54
72.39
63.21
46.59
21.98
-8.59
-40.69
-68.83
-89.2
-100.77
-105.79
-108.03
-110.9
-115.79
-121.7
-126.83
-129.71
-130.5
-130.61
-131.55
-133.66
-135.42
-134.28
-127.9
-115.7
-99.31
-81.93
-66.33
-53.87
-43.69
-33.47
-21.08
-6.0
10.27
24.63
33.94
36.89
34.48
29.79
26.42
26.68
30.33
35.04
37.76
36.2
30.4
22.53
15.52
11.88
12.0
14.57
17.2
17.62
14.71
8.68
0.64
-7.81
-15.44
-21.75
-26.62
-30.5
-33.94
-37.32
-40.86
-44.67
-48.61
-52.3
-55.3
-56.91
-56.87
-55.3
-52.96
-50.51
-48.46
-46.55
-43.77
-39.58
-33.77
-27.23
-21.19
-16.84
-14.47
-13.69
-13.62
-13.38
-12.66
-11.39
-9.94
-8.56
-7.69
-7.76
-9.06
-11.77
-15.57
-19.86
-24.07
-27.9
-31.46
-35.14
-39.37
-44.32
-50.21
-57.01
-64.87
-73.63
-83.0
-92.24
-100.18
-105.94
-109.19
-110.96
-113.21
-118.47
-128.41
-143.03
-160.27
-176.55
-187.92
-191.72
-187.65
-177.34
-163.69
-149.07
-134.15
-118.24
-100.06
-78.98
-55.95
-33.25
-13.28
2.15
12.49
18.42
20.75
19.78
15.03
5.6
-9.23
-29.18
-53.06
-79.11
-105.46
-130.64
-153.91
-174.92
-193.57
-209.82
-223.12
-232.96
-238.74
-240.25
-237.68
-231.87
-223.75
-214.37
-204.52
-194.49
-184.28
-173.69
-162.46
-150.46
-137.75
-124.44
-110.73
-96.78
-82.67
-68.52
-54.47
-40.73
-27.56
-15.35
-4.38
5.12
13.01
19.37
24.28
27.9
30.5
32.37
33.74
34.9
36.06
37.37
39.0
40.9
43.04
45.33
47.67
49.87
51.78
53.22
54.08
54.37
54.13
53.43
52.47
51.45
50.49
49.72
49.16
48.73
48.41
48.11
47.79
47.5
47.31
47.32
47.65
48.41
49.56
51.15
53.16
55.64
58.69
62.32
66.6
71.44
76.6
81.72
86.45
90.54
93.98
96.96
99.84
102.99
106.71
111.04
115.87
121.03
126.4
132.15
138.65
146.33
155.52
166.29
178.35
191.27
204.54
217.79
230.91
243.98
257.15
270.8
285.61
302.61
322.69
345.8
370.23
392.42
407.87
412.68
405.05
385.86
358.32
326.45
293.69
262.15
232.7
205.63
181.15
159.38
139.74
121.0
101.64
80.85
59.52
40.27
26.63
21.49
25.78
37.78
53.97
70.31
83.62
92.53
97.32
99.19
99.35
98.41
96.27
92.4
86.45
78.4
68.9
58.94
49.49
41.34
34.81
29.92
26.44
24.16
22.78
22.14
21.93
21.85
21.58
20.73
18.98
16.0
11.56
5.59
-1.71
-9.85
-18.18
-25.93
-32.68
-38.44
-43.71
-49.4
-56.42
-65.24
-75.49
-85.86
-94.11
-97.84
-95.17
-85.5
-69.74
-50.03
-29.03
-9.02
8.47
22.8
33.86
41.75
46.56
48.4
47.58
44.69
40.54
35.86
31.11
26.5
22.12
18.22
15.08
13.15
12.63
13.38
14.92
16.6
17.88
18.44
18.28
17.28
15.22
11.72
6.46
-0.49
-8.58
-16.92
-24.63
-31.24
-36.85
-42.04
-47.61
-54.21
-61.98
-70.53
-78.89
-85.57
-88.9
-87.34
-79.97
-67.0
-49.83
-30.61
-11.82
4.54
17.45
26.79
33.18
37.49
40.28
41.68
41.55
39.59
35.72
30.33
24.25
18.53
14.0
11.04
9.43
8.62
7.97
7.19
6.33
5.62
5.23
4.96
4.11
1.92
-2.12
-8.06
-15.27
-22.81
-29.76
-35.63
-40.35
-44.39
-48.39
-53.0
-58.63
-65.25
-72.18
-78.2
-81.66
-80.87
-74.68
-62.99
-46.87
-28.4
-10.08
5.95
18.38
26.91
32.04
34.68
35.57
35.13
33.35
30.16
25.61
20.15
14.51
9.58
6.02
4.04
3.37
3.47
3.95
4.63
5.55
6.7
7.87
8.43
7.67
5.13
0.83
-4.65
-10.54
-16.32
-21.82
-27.28
-32.98
-38.94
-44.91
-50.52
-55.69
-60.62
-65.74
-71.04
-75.74
-78.29
-76.82
-69.96
-57.64
-41.16
-22.85
-5.25
9.71
21.11
28.93
33.7
36.06
36.44
35.15
32.4
28.58
24.13
19.6
15.47
12.02
9.35
7.49
6.41
6.11
6.63
7.9
9.66
11.36
12.32
11.81
9.43
5.19
-0.48
-6.85
-13.25
-19.25
-24.78
-29.89
-34.73
-39.32
-43.63
-47.85
-52.28
-57.37
-63.24
-69.27
-74.06
-75.66
-72.41
-63.58
-49.83
-33.05
-15.71
0.02
12.92
22.7
29.73
34.47
37.05
37.4
35.5
31.67
26.68
21.63
17.43
14.59
13.0
12.15
11.49
10.73
9.92
9.23
8.92
8.94
9.0
8.63
7.34
4.74
0.71
-4.6
-10.89
-17.7
-24.47
-30.72
-36.03
-40.32
-43.83
-47.23
-51.38
-57.03
-64.44
-73.08
-81.53
-87.73
-89.62
-85.74
-75.87
-61.07
-43.3
-24.73
-7.15
8.43
21.64
32.27
40.08
44.68
45.76
43.54
38.88
33.1
27.49
22.91
19.55
17.04
14.93
12.87
10.89
9.3
8.48
8.55
9.34
10.44
11.18
11.05
9.67
6.84
2.63
-2.68
-8.7
-14.9
-20.74
-25.88
-30.23
-34.07
-37.94
-42.36
-47.66
-53.84
-60.62
-67.59
-74.16
-79.56
-82.82
-82.8
-78.3
-68.72
-54.16
-35.72
-15.39
4.43
21.55
34.52
42.93
47.39
49.03
49.08
48.38
47.21
45.43
42.84
39.54
36.02
