-9.81
-12.82
-14.59
-15.61
-16.61
-18.14
-20.68
-24.38
-28.95
-33.34
-35.98
-35.52
-31.29
-24.07
-15.53
-7.52
-1.14
3.87
8.7
14.6
21.85
29.43
35.43
38.19
37.38
34.25
31.15
30.22
32.47
37.33
43.15
48.35
51.95
54.22
56.01
58.38
61.79
66.14
71.0
75.79
80.19
83.84
86.55
88.03
88.41
88.22
88.42
90.13
93.66
98.49
103.18
106.28
106.99
105.54
102.75
99.02
93.87
85.57
72.2
52.38
26.1
-5.3
-39.65
-74.09
-105.67
-131.09
-147.37
-152.7
-147.32
-133.68
-115.79
-97.57
-81.18
-66.84
-53.23
-39.08
-24.08
-9.06
4.72
16.39
26.03
34.56
43.15
52.7
63.87
77.02
92.15
108.76
125.82
141.92
156.14
168.48
179.89
191.87
205.37
220.35
235.59
249.24
259.44
264.61
263.75
256.37
242.83
224.39
203.48
183.14
166.21
154.21
146.77
141.83
136.78
129.48
119.07
105.88
90.96
75.45
60.11
45.4
31.57
18.89
7.73
-1.65
-9.3
-15.69
-21.47
-27.27
-33.34
-39.52
-45.3
-50.12
-53.6
-55.7
-56.77
-57.38
-58.11
-59.37
-61.27
-63.64
-66.2
-68.55
-70.4
-71.69
-72.47
-73.09
-73.94
-75.35
-77.48
-80.18
-83.0
-85.23
-86.25
-85.73
-83.9
-81.52
-79.57
-79.08
-80.62
-84.2
-89.34
-95.58
-102.91
-112.11
-124.8
-142.88
-167.81
-199.96
-238.34
-280.9
-325.19
-369.13
-411.53
-452.33
-492.22
-532.6
-575.32
-622.25
-674.23
-729.64
-783.58
-828.16
-854.73
-856.89
-833.12
-787.5
-728.01
-663.49
-600.51
-542.1
-488.36
-438.24
-391.12
-347.29
-307.46
-271.65
-238.92
-207.66
-176.52
-144.94
-113.37
-83.01
-55.06
-30.21
-8.26
11.65
30.66
49.73
69.43
89.78
110.36
130.6
149.86
167.79
184.41
200.01
215.24
230.87
247.58
265.55
284.71
304.63
325.01
345.91
367.4
389.06
409.43
425.85
435.06
434.81
424.76
406.62
383.31
357.6
330.94
303.6
275.6
247.59
221.66
200.37
185.39
176.17
169.93
162.71
151.45
135.63
117.34
100.49
88.54
82.78
81.62
81.29
77.93
69.18
55.88
41.33
29.66
23.56
22.9
25.01
26.15
23.78
17.73
10.44
4.94
3.23
4.56
6.23
5.51
1.35
-4.77
-9.72
-10.67
-6.81
0.47
8.3
14.18
17.55
19.65
22.72
28.17
35.42
41.75
43.81
39.6
29.71
17.48
7.17
1.74
1.14
2.57
2.07
-2.79
-11.45
-20.93
-27.45
-28.78
-25.13
-18.95
-13.51
-11.44
-13.76
-19.68
-26.98
-32.87
-35.01
-32.08
-24.66
-14.94
-5.88
-0.04
1.8
0.83
-0.67
-0.74
1.39
4.74
7.72
9.15
9.01
8.85
10.75
16.49
26.26
38.47
50.08
57.87
59.77
55.54
47.14
37.91
31.33
29.55
32.65
38.53
43.74
45.19
41.01
31.88
20.3
9.72
3.22
2.24
6.11
12.36
17.98
20.56
19.66
16.62
13.63
12.66
14.1
16.83
18.72
17.99
13.81
6.62
-2.46
-12.35
-22.27
-32.12
-41.88
-51.63
-61.58
-72.4
-84.78
-98.89
-113.85
-127.47
-137.45
-142.43
-143.23
-142.63
-144.33
-150.72
-161.16
-171.58
-175.48
-166.83
-143.12
-107.08
-66.63
-32.06
-12.04
-10.12
-23.82
-46.06
-69.05
-87.63
-100.31
-108.14
-112.23
-112.01
-105.59
-91.43
-69.97
-44.13
-17.54
7.54
31.9
58.72
92.09
134.51
184.84
238.25
286.91
322.16
337.42
330.41
304.19
266.24
225.51
188.76
158.53
132.73
107.22
79.03
48.81
20.96
1.1
-7.08
-4.19
5.19
14.75
19.85
19.49
16.33
14.64
17.23
23.95
31.62
35.93
33.71
24.64
11.04
-3.51
-15.65
-23.66
-27.52
-28.57
-28.54
-28.85
-29.56
-29.17
-25.31
-15.46
1.09
22.74
45.41
64.18
75.29
77.72
73.61
66.8
61.18
58.54
58.35
58.21
55.32
48.32
37.64
25.54
14.95
8.06
5.21
5.29
6.18
5.99
4.3
1.9
0.45
1.2
4.38
8.8
13.08
16.29
18.45
20.49
23.23
26.77
30.33
32.98
33.81
32.98
31.4
30.1
29.86
30.44
30.66
28.96
24.3
16.64
7.25
-1.59
-7.56
-9.06
-6.29
-0.96
4.18
6.79
5.95
2.45
-1.64
-4.01
-3.05
1.14
7.24
12.81
15.55
14.22
9.15
1.94
-5.35
-11.19
-15.5
-19.03
-22.65
-26.65
-30.06
-31.28
-29.07
-23.27
-14.91
-5.98
1.78
7.22
9.87
10.14
8.67
6.54
4.62
3.68
3.8
4.58
5.27
5.04
3.72
1.54
-0.61
-1.75
-1.21
1.26
4.95
8.67
10.93
10.64
7.48
2.27
-3.33
-7.64
-9.38
-8.49
-5.98
-3.55
-2.97
-5.29
-10.39
-16.9
-23.11
-27.24
-28.53
-27.37
-25.19
-23.84
-24.68
-28.13
-33.16
-38.0
-40.49
-39.13
-33.66
-25.27
-16.13
-8.57
-4.14
-2.83
-3.11
-2.73
0.08
5.52
12.02
16.83
17.31
12.29
2.86
-8.05
-17.1
-22.02
-22.56
-20.38
-18.19
-18.37
-21.94
-28.23
-35.25
-40.83
-43.17
-41.7
-37.23
-31.82
-27.89
-27.38
-30.6
-36.12
-41.17
-43.11
-40.79
-35.13
-28.69
-24.28
-23.78
-27.45
-34.15
-42.11
-49.67
-55.58
-58.89
-58.99
-55.63
-49.57
-42.39
-35.83
-30.85
-26.92
-22.07
-14.09
-2.09
12.59
26.63
36.42
40.21
38.98
36.2
35.83
40.24
48.95
58.86
66.23
68.41
65.47
59.75
54.68
52.84
54.82
59.34
63.96
66.76
67.0
65.49
63.87
63.83
66.13
70.27
74.82
77.73
77.38
73.04
65.28
55.91
47.37
41.67
39.35
39.32
39.01
35.73
27.95
16.08
2.63
-9.03
-15.96
-17.12
-13.49
-7.54
-2.04
1.21
1.77
0.64
-0.89
-1.69
-1.59
-1.02
-0.6
-0.64
-1.05
-1.79
-2.87
-4.67
-7.29
-10.25
-12.53
-12.82
-10.35
-5.58
-0.32
3.4
3.99
1.59
-2.0
-4.37
-3.64
0.41
6.28
11.34
13.4
11.43
6.15
-0.44
-6.12
-9.39
-10.09
-9.26
-8.81
-10.53
-15.4
-23.17
-32.15
-39.92
-44.31
-44.39
-40.8
-35.45
-30.54
-27.49
-26.45
-26.24
-25.22
-22.05
-16.6
-9.59
-2.18
4.34
9.27
12.37
13.84
14.06
13.71
13.26
13.09
13.36
13.74
13.96
13.62
12.6
11.08
9.54
8.67
8.91
10.28
12.15
13.64
13.69
11.86
8.34
4.1
0.48
-1.62
-2.11
-1.8
-1.76
-3.1
-6.1
-10.32
-14.78
-18.45
-20.72
-21.82
-22.58
-23.81
-26.0
-28.87
-31.46
-32.71
-31.79
-28.49
-23.25
-16.86
-9.92
-3.17
2.87
7.88
11.62
14.53
17.32
20.82
25.01
29.23
32.14
32.64
30.74
27.24
23.67
21.21
20.47
21.09
22.59
24.66
27.25
30.44
33.99
37.3
39.59
40.36
39.25
36.47
32.48
27.87
23.3
19.07
15.19
10.98
5.6
-1.68
-10.85
-20.83
-29.86
-36.28
-39.52
-40.27
-40.47
-42.12
-46.35
-52.87
-59.88
-64.83
-65.4
-60.76
-51.92
-41.68
-33.08
-28.11
-26.59
-26.38
-24.57
-19.1
-10.27
-0.42
7.17
10.2
8.47
3.86
-0.74
-3.06
-2.1
1.56
6.47
11.09
14.24
15.27
14.1
11.49
8.59
6.93
7.51
10.27
13.98
16.31
15.27
10.05
2.0
-6.16
-11.43
-12.08
-8.9
-4.58
-2.7
-5.71
-13.88
-24.93
-35.3
-41.56
-41.77
-36.31
-27.35
-18.05
-11.16
-7.98
-8.03
-9.31
-9.36
-6.22
0.51
9.61
18.57
24.88
27.02
24.99
20.35
15.14
11.15
8.98
8.08
7.16
5.18
1.82
-2.32
-5.79
-7.25
-5.9
-1.93
3.64
9.18
13.12
14.32
12.39
8.18
3.31
-0.29
-1.11
1.32
5.96
10.64
13.01
11.44
6.13
-1.1
-7.76
-11.78
-12.65
-11.59
-10.84
-12.42
-17.15
-23.96
-30.59
-34.52
-34.17
-29.79
-22.88
-15.75
-10.25
-7.11
-5.85
-5.22
-3.89
-1.18
2.63
6.74
10.1
11.91
11.94
10.35
7.85
5.4
4.04
4.46
6.78
10.35
13.91
16.16
16.26
14.11
10.45
6.53
3.41
1.69
1.39
1.98
2.72
2.58
0.66
-3.45
-9.42
-15.94
-21.22
-23.62
-22.61
-19.22
-15.94
-15.25
-18.49
-24.87
-31.52
-35.02
-32.93
-25.0
-13.48
-1.96
6.19
9.27
7.65
3.51
-0.36
-1.84
-0.17
3.79
8.02
10.28
9.22
4.82
-1.31
-6.69
-9.32
-8.36
-4.75
-0.49
2.16
2.03
-0.51
-3.77
-5.59
-4.28
0.43
7.44
14.79
20.32
22.78
22.22
19.66
16.77
14.75
14.09
14.2
13.99
12.24
8.29
2.16
-5.5
-13.51
-20.66
-25.7
-28.0
-27.55
-25.08
-21.64
-18.15
-14.99
-11.79
-7.92
-2.83
3.28
9.57
14.81
18.22
19.57
19.27
18.27
17.05
15.83
14.49
12.85
11.13
9.89
9.68
10.53
11.95
12.85
12.38
10.38
7.46
4.61
2.57
1.6
1.19
0.74
-0.15
-1.46
-2.83
-3.85
-4.7
-6.07
-8.57
-12.53
-17.49
-22.41
-26.29
-28.51
-29.29
-29.33
-29.45
-29.6
-28.98
-26.36
-20.86
-12.63
-3.09
5.63
11.91
14.89
15.27
14.58
14.47
15.88
18.48
20.89
21.27
18.49
12.67
5.44
-0.68
-3.35
-1.47
3.98
10.56
15.19
15.85
12.4
6.64
1.42
-0.75
1.05
5.57
10.33
12.46
10.39
4.41
-3.49
-10.69
-15.28
-16.76
-16.38
-15.97
-17.23
-20.44
-24.37
-26.97
-26.33
-21.76
-14.04
-5.26
2.24
6.79
7.91
6.48
3.98
2.06
1.6
2.8
4.97
6.97
7.75
6.49
3.08
-2.0
-7.45
-11.97
-14.37
-14.14
-11.78
-8.44
-5.56
-4.36
-5.43
-8.15
-11.61
-14.58
-16.14
-16.24
-15.49
-15.19
-16.69
-20.89
-27.66
-35.93
-44.2
-51.04
-55.93
-59.19
-62.03
-65.54
-70.34
-75.96
-81.03
-84.02
-83.78
-80.3
-74.91
-70.11
-68.54
-72.16
-81.32
-94.35
-107.99
-118.76
-124.6
-125.57
-124.0
-123.18
-125.76
-132.87
-143.74
-156.73
-170.42
-184.27
-198.24
-212.24
-225.43
-236.52
-244.28
-248.0
-247.66
-243.24
-234.59
-221.19
-202.85
-180.18
-154.82
-128.84
-103.75
-80.14
-57.47
-34.94
-12.22
10.14
31.13
49.95
66.57
82.16
98.17
115.97
136.33
159.22
184.1
210.3
236.85
262.15
284.09
300.03
307.93
307.36
299.86
288.36
275.79
263.83
252.06
239.07
223.68
206.26
189.0
174.83
165.7
161.5
160.13
158.48
154.17
146.35
136.01
125.05
115.12
107.14
100.77
95.07
89.01
82.2
74.65
66.87
59.06
51.15
42.94
34.2
25.1
16.14
8.21
1.96
-2.48
-5.24
-6.89
-7.6
-7.16
-5.23
-1.7
3.21
8.75
13.96
18.05
20.66
21.76
21.62
20.67
19.12
17.28
15.57
14.44
14.37
15.41
17.13
18.66
19.28
18.46
16.49
14.23
12.76
12.86
14.41
16.41
17.29
15.82
11.79
6.08
0.46
-3.34
-4.45
-3.35
-1.58
-1.27
-3.92
-9.93
-18.24
-26.9
-33.84
-37.48
-37.65
-35.33
-32.32
-30.28
-29.93
-30.56
-30.46
-27.78
-21.5
-12.19
-1.68
7.63
13.85
16.45
16.25
14.98
14.24
15.0
17.25
20.15
22.49
23.2
21.8
18.56
14.61
11.28
9.85
10.76
13.48
16.66
18.62
18.2
15.06
10.17
5.2
1.86
1.18
2.94
5.83
7.84
7.01
2.21
-6.14
-16.22
-25.54
-31.77
-34.01
-33.12
-31.57
-32.03
-36.18
-43.39
-50.93
-55.19
-53.32
-44.65
-31.11
-16.44
-4.4
2.56
4.34
2.99
1.58
2.72
7.21
13.95
20.35
23.85
23.04
18.35
11.93
6.54
4.16
5.3
9.01
13.32
16.35
16.99
15.13
11.85
8.53
6.55
6.55
8.32
10.99
13.4
14.61
14.04
11.72
7.95
3.4
-1.27
-5.46
-8.72
-11.07
-12.88
-15.22
-18.96
-24.56
-31.42
-38.16
-43.07
-44.83
-43.21
-39.09
-33.95
-29.24
-25.66
-22.9
-19.86
-15.36
-8.69
-0.47
7.6
13.38
15.06
12.35
6.75
0.96
-2.31
-1.62
2.51
7.88
11.93
12.79
10.32
5.89
1.61
-0.9
-1.02
0.63
2.72
3.85
2.91
-0.43
-5.75
-12.21
-18.61
-24.04
-28.07
-30.88
-33.27
-36.27
-40.5
-46.07
-52.44
-58.44
-63.04
-65.55
-65.99
-65.3
-64.99
-66.57
-70.79
-77.16
-83.64
-87.69
-87.07
-81.1
-71.18
-60.4
-51.98
-48.12
-48.89
-52.15
-54.96
-54.99
-51.64
-46.45
-42.16
-40.9
-43.12
-46.69
-47.45
-41.16
-25.39
-1.12
27.37
53.84
72.79
81.57
81.28
76.13
70.98
68.92
70.15
72.42
72.64
68.92
61.54
52.42
44.25
38.53
35.47
33.76
31.58
27.59
21.28
13.09
4.02
-4.7
-12.06
-17.04
-19.1
-17.88
-13.31
-5.96
3.32
13.22
22.42
29.93
35.58
39.89
43.59
47.23
50.56
52.73
52.72
50.01
45.06
39.35
34.75
32.61
33.33
35.82
38.27
38.78
36.4
31.49
25.75
21.37
19.97
21.71
25.33
28.76
30.0
28.15
23.64
17.72
11.86
7.04
3.32
0.26
-2.66
-5.9
-9.63
-13.72
-18.23
-23.28
-28.85
-34.8
-40.59
-45.05
-46.96
-45.45
-40.29
-32.57
-24.02
-16.49
-11.12
-8.06
-6.21
-4.1
-0.55
4.59
10.32
15.17
17.81
17.95
16.16
13.91
12.73
13.28
15.27
17.57
18.91
18.64
17.13
15.47
14.89
15.98
18.36
20.98
22.51
22.0
19.3
14.97
10.13
5.76
2.58
0.74
-0.12
-0.75
-2.13
-4.9
-9.14
-14.21
-19.22
-23.24
-25.87
-27.33
-28.14
-28.84
-29.32
-29.1
-27.43
-23.74
-17.98
-10.68
-2.77
4.66
10.54
14.3
15.84
15.64
14.65
13.96
14.34
15.86
17.84
19.28
19.29
17.63
14.82
11.9
9.99
9.78
11.15
13.31
15.04
15.07
12.89
8.97
4.59
1.37
0.25
1.1
2.65
3.1
1.01
-3.86
-10.46
-17.02
-22.08
-25.12
-26.74
-28.25
-30.89
-35.14
-40.49
-45.58
-49.07
-49.75
-47.22
-41.73
-33.99
-24.89
-15.24
-5.91
2.34
8.7
12.88
15.0
15.82
16.43
17.54
19.38
21.11
21.73
20.35
17.21
13.45
10.79
10.74
13.52
18.08
22.1
23.65
21.69
16.99
11.7
8.15
7.94
10.68
14.45
16.44
14.79
9.13
1.06
-6.77
-12.3
-14.58
-14.64
-14.38
-15.9
-20.11
-26.78
-34.44
-41.25
-45.97
-47.89
-47.26
-44.65
-40.62
-35.61
-29.94
-23.89
-17.66
-11.66
-5.88
-0.45
4.6
8.88
11.61
11.82
9.04
3.7
-2.84
-8.5
-11.63
-11.65
-9.48
-7.15
-6.89
-9.94
-15.98
-23.43
-29.96
-33.95
-34.91
-34.02
-33.54
-35.92
-42.53
-52.96
-65.06
-76.01
-83.79
-87.95
-89.71
-90.97
-93.21
-96.85
-101.46
-106.81
-113.66
-123.93
-139.34
-160.48
-185.94
-212.61
-236.66
-254.56
-263.68
-262.09
-248.9
-224.05
-188.9
-146.08
-98.88
-49.97
-0.62
49.41
100.93
153.52
204.82
250.78
287.2
311.47
323.33
324.93
319.39
309.79
298.2
285.73
272.79
259.55
245.96
231.65
216.08
198.65
179.2
158.28
137.05
116.86
98.65
82.77
68.81
56.11
44.13
32.71
22.03
12.32
3.35
-5.4
-14.51
-24.24
-34.03
-42.78
-49.26
-52.66
-53.15
-51.64
-49.44
-47.58
-46.49
-45.86
-45.12
-43.81
-41.81
-39.5
-37.4
-35.97
-35.48
-35.89
-36.96
-38.35
-39.78
-40.92
-41.58
-41.71
-41.29
-40.44
-39.24
-37.6
-35.43
-32.68
-29.49
-26.32
-23.79
-22.42
-22.55
-24.1
-26.68
-29.82
-33.05
-36.06
-38.77
-41.24
-43.65
-46.43
-50.15
-55.25
-61.93
-69.66
-77.13
-82.51
-83.9
-80.01
-70.6
-56.51
-39.27
-20.63
-2.01
15.57
31.34
44.62
54.78
61.46
64.7
65.25
64.25
62.79
61.56
60.54
59.31
57.43
54.87
52.08
49.89
49.0
49.71
51.58
53.63
54.73
54.02
51.3
47.06
42.19
37.53
33.46
29.78
25.85
21.02
15.0
8.12
1.12
-5.13
-10.21
-14.24
-17.93
-22.24
-27.91
-35.09
-43.04
-50.24
-54.68
-54.58
-48.92
-37.9
-22.99
-6.45
9.36
22.74
32.87
40.0
44.87
48.22
50.5
51.66
51.39
49.42
45.78
40.85
35.43
30.42
26.57
24.34
23.67
24.14
25.07
25.79
25.89
25.38
24.56
23.78
23.28
22.86
22.0
20.03
16.46
11.29
5.18
-0.85
-5.75
-8.91
-10.53
-11.55
-13.34
-17.08
-23.32
-31.5
-40.07
-46.91
-49.89
-47.53
-39.37
-26.09
-9.18
9.41
27.71
44.06
57.36
67.04
73.04
75.66
75.41
72.84
68.55
63.05
56.91
50.71
45.0
40.13
36.25
33.16
30.47
27.71
24.5
20.88
17.12
13.82
11.51
10.44
10.38
10.55
9.95
7.69
3.61
-1.76
-7.21
-11.54
-13.98
-14.7
-14.69
-15.28
-17.63
-22.09
-28.2
-34.86
-40.77
-44.89
-46.74
-46.34
-44.08
-40.45
-35.74
-30.08
-23.46
-16.01
-8.15
-0.58
5.76
10.07
11.89
11.34
9.07
6.01
3.08
0.87
-0.4
-0.95
-1.2
-1.66
-2.69
-4.41
-6.54
-8.5
-9.71
-9.69
-8.51
-6.75
-5.51
-5.85
-8.39
-12.9
-18.26
-23.13
-26.4
-27.83
-28.2
-28.88
-31.15
-35.65
-42.1
-49.42
-56.31
-61.69
-65.06
-66.35
-65.71
-63.09
-58.2
-50.64
-40.13
-26.97
-12.26
2.28
14.72
23.49
27.89
28.26
25.78
22.04
18.35
15.46
13.38
11.72
10.0
7.91
5.51
3.06
0.87
-0.88
-2.13
-3.05
-3.88
-4.87
-6.34
-8.46
-11.38
-15.02
-19.1
-23.14
-26.65
-29.37
-31.35
-33.07
-35.28
-38.71
-43.79
-50.34
-57.43
-63.5
-66.76
-65.59
-59.27
-48.05
-33.15
-16.41
0.35
15.77
29.03
39.84
48.04
53.45
55.95
55.65
52.96
48.78
44.11
39.84
36.33
33.52
31.01
28.41
25.61
22.81
20.46
18.99
18.53
18.89
19.48
19.63
18.74
16.53
13.1
8.86
4.27
-0.27
-4.55
-8.64
-12.68
-16.93
-21.62
-26.99
-33.21
-40.2
-47.39
-53.56
-57.06
-56.19
-49.88
-38.25
-22.64
-5.31
11.28
25.26
35.73
42.7
46.74
48.44
48.17
46.05
42.27
37.25
31.81
26.9
23.25
20.94
19.48
18.02
15.8
12.61
8.9
5.48
3.21
2.4
2.73
3.36
3.34
2.02
-0.69
-4.34
-8.24
-11.83
-14.88
-17.59
-20.47
-24.02
-28.57
-34.11
-40.2
-46.05
-50.52
-52.32
-50.25
-43.67
-32.73
-18.47
-2.71
12.46
25.21
34.37
39.74
41.98
42.15
41.32
40.25
39.11
37.73
35.77
33.02
29.58
25.86
22.32
19.4
17.28
15.93
15.2
14.83
14.59
14.28
13.79
12.99
11.67
9.6
6.51
2.38
-2.57
-7.79
-12.69
-16.85
-20.44
-24.03
-28.42
-34.09
-40.78
-47.4
-52.37
-54.24
-52.17
-46.27
-37.32
-26.48
-14.87
-3.32
7.59
17.38
25.53
31.53
35.02
36.03
34.96
32.54
29.67
27.09
25.23
24.08
23.27
22.34
20.87
18.89
16.69
14.93
14.17
14.63
15.99
17.45
18.06
17.1
14.45
10.55
6.21
2.12
-1.48
-4.84
-8.62
-13.45
-19.66
-27.07
-35.11
-43.0
-50.02
-55.58
-59.33
-61.1
-60.87
-58.86
-55.39
-50.78
-45.47
-39.82
-34.24
-29.14
-24.99
-22.18
-21.02
-21.43
-22.88
-24.49
-25.19
-24.07
-20.71
-15.39
-9.01
-2.78
2.2
5.37
6.9
7.5
8.04
9.08
10.58
12.06
12.82
12.36
10.7
8.36
6.24
5.15
5.41
6.67
7.95
8.05
5.99
1.55
-4.66
-11.23
-16.65
-19.74
-20.01
-17.77
-13.82
-8.99
-3.77
1.77
7.97
15.16
23.3
31.73
39.17
44.02
44.92
41.44
34.24
25.01
15.87
8.63
4.37
3.24
4.63
7.34
9.95
10.87
8.73
2.7
-7.14
-19.74
-33.43
-46.36
-57.24
-65.46
-70.99
-74.0
-74.57
-72.7
-68.55
-62.68
-56.07
-49.88
-45.06
-42.15
-41.11
-41.52
-42.74
-44.06
-44.93
-44.76
-43.12
-39.6
-33.96
-26.12
-16.37
-5.44
5.71
15.89
24.18
30.11
33.77
35.68
36.41
36.38
35.6
33.94
31.31
27.96
24.43
21.37
19.3
18.27
17.93
17.64
16.87
15.43
13.59
11.92
10.83
10.46
10.3
9.55
7.44
3.65
-1.51
-7.1
-12.11
-15.91
-18.46
-20.49
-23.04
-27.12
-33.19
-40.93
-49.08
-55.71
-58.82
-56.76
-48.88
-35.78
-19.09
-1.05
16.12
30.82
42.28
50.39
55.59
58.43
59.47
59.14
57.7
55.24
51.8
47.5
42.65
37.93
34.14
31.95
31.66
32.96
34.96
36.63
37.17
36.36
34.63
32.68
31.11
30.04
28.91
26.88
23.21
17.75
11.0
4.12
-1.83
-6.12
-8.8
-10.69
-12.94
-16.64
-22.3
-29.65
-37.66
-44.88
-49.85
-51.35
-48.79
-42.12
-31.78
-18.65
-3.92
11.14
25.12
36.85
45.63
51.26
54.15
55.05
54.72
53.78
52.61
51.42
50.46
50.06
50.46
51.67
53.18
54.12
53.4
50.24
44.46
36.5
27.12
16.97
6.19
-5.59
-19.04
-34.62
-52.17
-70.8
-89.08
-105.49
-118.84
-128.52
-134.72
-138.17
-139.96
-141.13
-142.27
-143.24
-143.16
-140.61
-134.2
-123.1
-107.27
-87.6
-65.4
-42.0
-18.42
4.55
26.14
45.4
61.26
72.84
79.72
82.16
80.98
77.17
71.62
64.93
57.55
49.96
42.81
36.74
32.36
29.89
29.2
29.86
31.25
32.79
33.95
34.36
33.62
31.39
27.41
21.59
14.26
6.19
-1.6
-8.2
-13.08
-16.44
-19.01
-21.75
-25.52
-30.73
-37.26
-44.47
-51.28
-56.28
-57.92
-54.75
-45.91
-31.48
-12.54
8.9
30.6
50.51
67.23
80.05
88.88
93.9
95.27
93.16
87.69
78.91
67.1
52.74
36.48
19.27
2.12
-14.06
-28.57
-41.18
-52.09
-61.7
-70.32
-77.99
-84.24
-88.18
-88.88
-85.71
-78.69
-68.54
-56.6
-44.49
-33.75
-25.54
-20.46
-18.58
-19.4
-22.15
-25.89
-29.82
-33.5
-36.84
-39.89
-42.65
-44.64
-44.84
-41.94
-34.83
-23.05
-7.25
11.04
29.79
47.12
61.83
73.59
82.67
89.57
94.65
97.84
98.71
96.85
92.22
85.4
77.56
70.08
64.16
60.31
58.25
57.08
55.74
53.53
50.45
47.03
44.04
42.0
40.81
39.81
38.1
34.97
30.27
24.49
18.48
13.06
8.67
5.18
2.03
-1.48
-5.83
-11.06
-16.8
-22.53
-27.95
-33.09
-38.22
-43.49
-48.51
-52.15
-52.87
-49.29
-40.83
-28.1
-12.75
3.01
17.13
28.21
35.71
39.81
41.13
40.53
38.82
36.66
34.44
32.28
30.06
27.52
24.59
21.51
18.88
17.46
17.81
19.91
23.1
26.21
28.05
27.88
25.72
22.26
18.54
15.43
13.22
11.59
9.79
7.03
2.92
-2.37
-8.18
-13.64
-18.06
-21.34
-23.9
-26.59
-30.25
-35.29
-41.48
-47.9
-53.09
-55.54
-54.04
-48.12
-38.24
-25.66
-12.03
1.02
12.34
21.34
27.93
32.27
34.48
34.67
32.98
29.89
26.05
22.23
18.97
16.52
14.78
13.58
12.78
12.38
12.46
12.97
13.71
14.38
14.6
14.17
13.05
11.35
9.21
6.77
4.13
1.4
-1.35
-4.19
-7.2
-10.52
-14.12
-17.94
-21.75
-25.44
-29.04
-32.84
-37.2
-42.25
-47.66
-52.51
-55.55
-55.46
-51.36
-43.12
-31.43
-17.71
-3.76
8.66
18.3
24.63
27.94
29.11
29.15
28.83
28.37
27.43
25.51
22.37
18.29
14.14
11.0
9.67
10.34
12.32
14.55
15.92
15.85
14.46
12.44
10.56
9.32
8.7
8.11
6.92
4.59
1.1
-3.12
-7.34
-10.91
-13.57
-15.5
-17.29
-19.55
-22.7
-26.82
-31.68
-36.83
-41.94
-46.71
-50.7
-53.31
-53.64
-50.79
-44.32
-34.47
-22.34
-9.47
2.53
12.57
20.14
25.33
28.48
30.0
30.2
29.3
27.61
25.48
23.3
21.44
20.14
19.47
19.35
19.5
19.57
19.3
18.65
17.83
17.2
17.12
17.53
18.01
17.87
16.44
13.54
9.58
5.28
1.44
-1.51
-3.75
-5.86
-8.45
-11.94
-16.24
-20.91
-25.39
-29.29
-32.64
-35.8
-39.3
-43.39
-47.84
-51.67
-53.46
-51.84
-46.03
-36.28
-23.82
-10.52
1.7
11.5
18.3
22.31
24.15
24.62
24.33
23.69
22.93
22.06
20.96
19.45
17.44
15.01
12.59
10.77
10.15
10.99
12.93
15.08
16.35
15.93
13.76
10.57
7.44
5.36
4.71
5.04
5.38
4.69
2.34
-1.6
-6.48
-11.32
-15.33
-18.09
-19.76
-20.99
-22.64
-25.42
-29.65
-35.09
-41.01
-46.48
-50.48
-52.2
-51.11
-47.06
-40.21
-31.11
-20.59
-9.57
1.04
10.51
18.33
24.22
27.97
29.58
29.18
27.19
24.29
21.26
18.73
16.98
15.94
15.29
14.8
14.43
14.31
14.66
15.58
16.89
18.21
19.11
19.19
18.27
16.39
13.71
10.56
7.3
4.28
1.66
-0.59
-2.76
-5.27
-8.42
-12.33
-16.74
-21.26
-25.5
-29.26
-32.73
-36.23
-40.08
-44.19
-47.91
-50.1
-49.55
-45.39
-37.51
-26.78
-14.68
-2.96
6.99
14.41
19.28
22.04
23.21
23.2
22.12
20.07
17.25
14.16
11.42
9.67
9.1
9.53
10.4
11.07
11.2
10.78
10.18
9.75
9.64
9.61
9.22
8.08
6.06
3.36
0.32
-2.67
-5.5
-8.28
-11.26
-14.68
-18.59
-22.83
-27.09
-31.14
-34.86
-38.43
-42.26
-46.79
-52.19
-58.07
-63.31
-66.2
-65.08
-58.78
-47.22
-31.55
-13.72
3.96
19.5
31.6
39.85
44.52
46.46
46.72
46.27
45.78
45.45
45.09
44.17
42.27
39.25
35.46
31.67
28.7
27.21
27.23
28.17
29.08
29.01
27.48
24.78
21.74
19.25
17.86
17.37
16.92
15.49
12.34
7.37
1.33
-4.68
-9.63
-13.02
-15.03
-16.41
-18.1
-20.82
-24.97
-30.34
-36.26
-41.79
-45.85
-47.47
-46.07
-41.54
-34.34
-25.38
-15.72
-6.35
2.09
9.32
15.22
19.78
23.0
24.88
25.41
24.76
23.17
21.03
18.86
17.05
15.92
15.52
15.63
15.82
15.75
15.2
14.3
13.47
13.04
13.13
13.49
13.59
12.76
10.69
7.34
3.12
-1.3
-5.26
-8.32
-10.4
-11.81
-13.19
-15.13
-18.12
-22.29
-27.31
-32.53
-37.14
-40.34
-41.54
-40.45
-37.01
-31.51
-24.38
-16.19
-7.66
0.58
7.86
13.71
17.84
20.27
21.17
20.91
19.82
18.1
16.01
13.73
11.57
9.92
9.1
9.23
10.0
10.92
11.34
10.97
9.95
8.76
8.01
7.97
8.42
8.71
8.1
6.05
2.6
-1.68
-5.97
-9.54
-12.23
-14.33
-16.6
-19.8
-24.3
-29.85
-35.57
-40.19
-42.56
-42.02
-38.47
-32.44
-24.74
-16.23
-7.63
0.54
7.85
13.99
18.64
21.69
23.18
23.33
22.53
21.2
19.66
18.13
16.73
15.47
14.41
13.61
13.17
13.18
13.57
14.08
14.33
13.94
12.74
10.85
8.59
6.33
4.22
2.14
-0.22
-3.13
-6.65
-10.52
-14.28
-17.58
-20.31
-22.66
-25.11
-28.16
-32.21
-37.25
-42.77
-47.74
-50.89
-51.03
-47.42
-40.18
-30.17
-18.87
-7.89
1.53
8.73
13.71
16.9
18.94
20.37
21.48
22.26
22.43
21.62
19.6
16.61
13.26
10.47
9.0
9.14
10.44
11.88
12.38
11.3
8.8
5.72
3.14
1.72
1.39
1.3
0.39
-2.12
-6.35
-11.62
-16.88
-21.23
-24.27
-26.3
-28.14
-30.8
-35.03
-41.07
-48.36
-55.68
-61.4
-63.99
-62.48
-56.77
-47.62
-36.34
-24.37
-12.72
-1.89
7.94
16.75
24.36
30.4
34.44
36.24
35.85
33.81
30.88
27.96
25.78
24.71
24.68
25.29
25.92
26.05
25.53
24.53
23.57
23.18
23.63
24.74
25.93
26.3
25.07
21.85
16.86
10.91
5.17
0.6
-2.33
-3.93
-5.09
-6.97
-10.35
-15.44
-21.75
-28.43
-34.6
-39.66
-43.23
-44.99
-44.46
-40.95
-33.91
-23.24
-9.65
5.28
19.55
31.29
39.37
43.62
44.77
43.95
42.33
40.64
39.17
37.8
36.28
34.51
32.53
30.6
29.09
28.26
28.27
29.11
30.59
32.4
34.19
35.5
36.03
35.61
34.25
32.22
29.82
27.39
25.06
22.84
20.56
18.0
14.99
11.52
7.74
3.91
0.34
-2.81
-5.64
-8.48
-11.79
-15.89
-20.73
-25.84
-30.32
-33.15
-33.44
-30.7
-25.03
-17.07
-7.81
1.61
10.28
17.51
23.02
26.77
28.81
29.21
27.98
25.18
20.91
15.43
9.08
2.3
-4.36
-10.35
-15.16
-18.49
-20.34
-21.04
-21.23
-21.54
-22.32
-23.49
-24.53
-24.81
-23.92
-21.89
-19.32
-16.99
-15.6
-15.4
-16.0
-16.65
-16.46
-14.96
-12.19
-8.78
-5.69
-3.87
-3.9
-5.88
-9.53
-14.19
-19.29
-24.16
-28.16
-30.61
-30.83
-28.45
-23.65
-17.24
-10.52
-4.81
-1.01
0.74
0.98
0.55
0.09
-0.16
-0.47
-1.15
-2.35
-3.86
-5.2
-5.89
-5.64
-4.45
-2.56
-0.34
1.91
3.93
5.58
6.8
7.59
8.04
8.17
7.97
7.35
6.2
4.49
2.4
0.23
-1.73
-3.28
-4.45
-5.49
-6.72
-8.34
-10.45
-12.94
-15.57
-18.26
-20.91
-23.51
-25.91
-27.74
-28.33
-26.96
-23.1
-16.7
-8.41
0.68
9.36
16.65
22.08
25.6
27.4
27.69
26.7
24.68
22.08
19.49
17.48
16.35
15.93
15.71
15.04
13.61
11.57
9.59
8.48
8.83
10.58
12.97
14.88
15.24
13.68
10.67
7.36
4.96
4.13
4.7
5.63
5.61
3.65
-0.43
-5.83
-11.2
-15.3
-17.48
-17.9
-17.53
-17.63
-19.25
-22.86
-27.99
-33.48
-37.68
-39.1
-36.76
-30.65
-21.64
-11.32
-1.38
6.88
12.89
16.89
19.51
21.39
22.76
23.43
22.97
21.09
17.94
14.16
10.67
8.34
7.56
8.15
9.5
10.69
11.01
10.18
8.46
6.57
5.4
5.43
6.63
8.27
9.27
8.65
6.14
2.2
-2.05
-5.42
-7.28
-7.85
-8.0
-8.79
-10.93
-14.3
-18.22
-21.74
-24.27
-25.82
-26.98
-28.45
-30.57
-33.09
-35.03
-35.16
-32.41
-26.4
-17.61
-7.29
2.95
11.66
17.83
21.33
22.6
22.46
21.67
20.69
19.67
18.44
16.87
14.91
12.75
10.61
8.7
7.21
6.23
5.85
6.03
6.69
7.53
8.25
8.5
8.15
7.29
6.18
5.04
3.94
2.73
1.09
-1.25
-4.36
-8.1
-12.05
-15.78
-18.95
-21.4
-23.28
-25.03
-27.14
-30.06
-33.89
-38.22
-42.22
-44.72
-44.58
-41.05
-34.05
-24.3
-13.15
-2.16
7.35
14.62
19.55
22.56
24.14
24.71
24.43
23.39
21.74
19.83
18.03
16.64
15.72
15.08
14.42
13.55
12.58
11.76
11.43
11.68
12.39
13.12
13.37
12.77
11.21
8.93
6.35
3.84
1.6
-0.44
-2.52
-4.98
-8.0
-11.6
-15.47
-19.16
-22.26
-24.63
-26.67
-29.13
-32.83
-37.99
-44.05
-49.4
-52.07
-50.45
-43.98
-33.45
-20.73
-7.94
3.3
12.1
18.54
23.21
26.77
29.56
31.47
31.99
30.66
27.42
22.78
17.85
13.96
12.01
12.17
13.71
15.44
16.28
15.82
14.39
12.83
11.94
12.05
12.89
13.69
13.57
11.85
8.35
3.34
-2.38
-8.01
-12.89
-16.77
-19.94
-22.92
-26.25
-30.23
-34.8
-39.66
-44.63
-49.64
-54.57
-59.11
-62.41
-63.24
-60.31
-52.87
-41.05
-25.97
-9.49
6.46
20.26
31.04
38.58
43.2
45.36
45.47
43.94
41.15
37.65
34.06
31.02
28.95
27.89
27.55
27.43
27.23
26.94
26.86
27.31
28.42
29.89
31.05
31.15
29.61
26.39
21.91
16.87
11.98
7.66
3.96
0.52
-3.15
-7.54
-12.75
-18.49
-24.2
-29.28
-33.61
-37.56
-41.87
-47.01
-52.74
-57.78
-60.16
-57.97
-50.14
-37.1
-20.66
-3.39
12.19
24.32
32.38
36.72
38.35
38.42
37.74
36.71
35.3
33.31
30.62
27.37
23.99
21.01
19.03
18.37
19.08
20.89
23.28
25.61
27.26
27.91
27.39
25.86
23.59
20.92
18.11
15.32
12.64
10.0
7.21
4.03
0.27
-4.07
-8.72
-13.32
-17.65
-21.8
-26.28
-31.73
-38.45
-46.04
-53.19
-57.98
-58.55
-53.84
-44.04
-30.72
-16.15
-2.62
8.3
16.11
21.21
24.5
26.73
28.31
29.11
28.77
27.02
24.01
20.39
17.16
15.26
15.21
16.86
19.44
21.96
23.64
24.17
23.79
22.97
22.18
21.55
20.85
19.58
17.36
13.95
9.45
4.33
-0.88
-5.68
-9.88
-13.62
-17.36
-21.45
-26.0
-30.86
-35.67
-40.3
-44.86
-49.57
-54.36
-58.61
-60.9
-59.54
-53.27
-41.84
-26.41
-9.28
6.92
19.99
28.81
33.48
35.05
34.83
33.96
32.92
31.62
29.62
26.6
22.62
18.17
14.11
11.23
10.02
10.4
11.85
13.58
14.85
15.31
14.92
14.05
13.17
12.61
12.3
11.79
10.39
7.46
2.79
-3.27
-9.82
-15.79
-20.34
-23.31
-25.26
-27.25
-30.43
-35.45
-42.29
-50.22
-58.06
-64.47
-68.21
-68.28
-64.15
-55.85
-44.05
-29.97
-15.03
-0.61
12.2
22.75
30.69
35.89
38.37
38.34
36.22
32.72
28.61
24.54
20.97
18.07
15.81
14.13
13.0
12.33
12.14
12.39
12.97
13.73
14.35
14.41
13.47
11.22
7.46
2.32
-3.81
-10.41
-16.93
-22.97
-28.46
-33.54
-38.54
-43.79
-49.39
-55.24
-61.12
-66.8
-72.25
-77.39
-82.0
-85.3
-86.11
-83.01
-74.91
-61.62
-43.93
-23.74
-3.32
15.02
29.62
39.66
45.19
46.92
45.87
43.19
39.77
36.19
32.78
29.63
26.76
24.34
22.6
21.81
22.24
23.91
26.6
29.88
33.17
35.93
37.82
38.61
38.18
36.54
33.69
29.75
24.87
19.31
13.3
7.06
0.86
-5.15
-10.72
-15.78
-20.49
-25.3
-30.82
-37.46
-45.09
-52.78
-58.98
-61.89
-60.12
-53.05
-41.15
-25.7
-8.49
8.64
24.19
37.17
47.16
54.16
58.63
61.16
62.38
62.84
62.79
62.35
61.41
59.89
57.79
55.28
52.74
50.52
48.87
47.74
46.82
45.62
43.72
40.86
37.13
32.83
28.26
23.63
18.85
13.66
7.72
0.91
-6.63
-14.39
-21.64
-27.81
-32.57
-36.18
-39.29
-42.83
-47.62
-54.02
-61.54
-68.84
-74.01
-75.1
-70.84
-61.05
-46.8
-30.03
-12.93
2.67
15.78
26.16
34.06
39.85
43.68
45.59
45.56
43.73
40.48
36.41
32.24
28.68
26.16
24.73
24.26
24.39
24.84
25.48
26.37
27.59
29.14
30.66
31.62
31.48
29.91
26.98
23.11
18.78
14.4
10.05
5.63
0.97
-3.94
-8.84
-13.44
-17.53
-21.34
-25.44
-30.55
-36.99
-44.31
-51.17
-55.55
-55.48
-49.73
-38.37
-22.82
-5.47
11.13
25.03
35.29
42.05
46.13
48.41
49.42
49.12
47.23
43.64
38.65
33.08
28.02
24.31
22.33
21.8
22.08
22.42
22.38
21.85
21.13
20.64
20.69
21.3
22.08
22.33
21.3
18.51
13.93
8.08
1.74
-4.29
-9.5
-13.79
-17.41
-20.79
-24.42
-28.68
-33.85
-40.01
-47.01
-54.26
-60.74
-65.14
-66.09
-62.63
-54.54
-42.57
-28.14
-13.1
0.94
12.87
22.22
28.96
33.2
35.01
34.44
31.78
27.63
22.97
18.88
16.11
14.9
14.85
15.24
15.29
14.66
13.58
12.64
12.63
14.05
16.93
20.61
23.98
25.73
24.82
20.71
13.45
3.68
-7.71
-19.77
-31.7
-42.96
-53.18
-62.07
-69.39
-75.0
-78.98
-81.68
-83.62
-85.2
-86.28
-86.14
-83.52
-77.13
-66.31
-51.34
-33.68
-15.45
1.12
14.37
23.55
28.82
30.96
30.92
29.59
27.41
24.54
20.89
16.36
11.02
5.29
-0.22
-4.81
-7.98
-9.66
-10.13
-9.96
-9.65
-9.53
-9.59
-9.81
-10.26
-11.11
-12.75
-15.36
-18.91
-23.04
-27.26
-31.14
-34.44
-37.22
-39.69
-42.23
-45.24
-49.06
-53.83
-59.28
-64.62
-68.62
-69.9
-67.27
-60.28
-49.19
-35.07
-19.42
-3.88
10.11
21.45
29.54
34.23
35.78
34.81
32.07
28.29
24.07
19.77
15.48
11.14
6.77
2.46
-1.33
-4.02
-5.1
-4.34
-2.01
1.22
4.5
7.15
8.79
9.47
9.45
8.93
7.97
6.44
4.22
1.25
-2.3
-6.19
-10.11
-13.79
-17.1
-20.14
-23.25
-26.88
-31.38
-36.61
-41.74
-45.32
-45.61
-41.28
-31.83
-18.0
-1.31
16.34
33.33
48.62
61.62
72.01
79.48
83.71
84.55
82.26
77.54
71.4
64.91
58.82
53.49
48.9
44.91
41.38
38.4
36.23
35.13
35.19
36.13
37.38
38.17
37.82
35.87
32.25
27.25
21.29
14.81
8.11
1.35
-5.46
-12.24
-18.82
-25.03
-30.7
-35.92
-41.03
-46.56
-52.85
-59.69
-66.02
-70.07
-69.91
-64.14
-52.53
-36.21
-17.31
1.69
18.68
32.4
42.47
49.19
53.16
54.94
55.05
53.84
51.54
48.33
44.35
39.83
35.15
30.84
27.42
25.36
24.79
25.47
26.8
28.06
28.61
28.1
26.68
24.72
22.67
20.81
19.03
16.88
13.87
9.59
4.01
-2.37
-8.8
-14.49
-18.96
-22.29
-25.14
-28.55
-33.49
-40.23
-47.93
-54.68
-58.03
-55.92
-47.5
-33.62
-16.53
0.97
16.41
28.49
37.15
43.16
47.49
50.67
52.55
52.5
49.95
44.75
37.62
29.88
23.16
18.58
16.43
16.1
16.38
16.2
15.05
13.23
11.58
10.95
11.64
13.13
14.35
14.08
11.56
6.76
0.41
-6.37
-12.56
-17.58
-21.54
-25.03
-28.9
-33.88
-40.35
-48.13
-56.6
-64.69
-71.04
-74.29
-73.39
-67.86
-58.0
-44.85
-29.9
-14.83
-1.0
10.71
19.95
26.73
31.22
33.62
34.09
32.86
30.28
26.84
23.09
19.49
16.28
13.51
11.16
9.22
7.73
6.79
6.45
6.66
7.32
8.31
9.45
10.53
11.15
10.8
9.09
5.9
1.56
-3.22
-7.61
-11.05
-13.42
-15.04
-16.49
-18.34
-21.11
-25.06
-30.27
-36.38
-42.45
-47.04
-48.49
-45.39
-37.18
-24.44
-8.74
7.78
23.12
35.88
45.52
52.19
56.41
58.8
59.79
59.61
58.34
55.95
52.56
48.47
44.15
40.22
37.3
35.81
35.78
36.88
38.45
39.81
40.5
40.43
39.76
38.75
37.51
35.9
33.6
30.31
25.88
20.48
14.58
8.7
3.37
-1.17
-5.05
-8.73
-12.9
-18.15
-24.7
-32.04
-38.92
-43.7
-44.82
-41.36
-33.36
-21.81
-8.31
5.28
17.48
27.36
34.68
39.64
42.69
44.29
44.71
44.16
42.74
40.66
38.14
35.42
32.7
30.09
27.63
25.42
23.64
22.49
22.13
22.4
22.96
23.38
23.33
22.76
21.82
20.77
19.65
18.27
16.18
13.01
8.81
4.03
-0.5
-4.0
-6.07
-7.03
-7.84
-9.8
-14.09
-21.12
-30.31
-40.15
-48.64
-54.04
-55.46
-53.15
-48.35
-42.84
-38.14
-35.22
-34.24
-34.82
-36.41
-38.58
-41.19
-44.3
-48.05
-52.33
-56.85
-61.04
-64.22
-65.87
-65.79
-64.23
-61.81
-59.26
-57.07
-55.22
-53.25
-50.51
-46.66
-41.86
-36.93
-32.89
-30.57
-30.15
-31.09
-32.49
-33.38
-33.35
-32.49
-31.39
-30.86
-31.64
-34.21
-38.61
-44.3
-50.06
-54.27
-55.18
-51.6
-43.35
-31.4
-17.52
-3.7
8.64
18.86
27.05
33.55
38.52
41.8
42.96
41.67
38.04
32.72
26.85
21.66
18.13
16.62
16.79
17.68
18.27
17.86
16.45
14.72
13.55
13.51
14.37
15.21
14.72
12.01
6.95
0.31
-6.55
-12.33
-16.23
-18.36
-19.55
-21.02
-23.85
-28.56
-34.96
-42.09
-48.56
-52.83
-53.76
-50.69
-43.72
-33.54
-21.18
-7.94
5.08
16.87
26.78
34.36
39.42
41.94
42.05
40.09
36.58
32.22
27.75
23.81
20.81
18.82
17.69
17.08
16.74
16.56
16.58
16.86
17.42
18.21
18.96
19.37
19.05
17.72
15.17
11.5
6.98
2.1
-2.63
-6.91
-10.63
-13.97
-17.16
-20.57
-24.53
-29.28
-34.85
-40.81
-46.07
-49.06
-48.14
-42.23
-31.34
-16.73
-0.46
15.2
28.5
38.58
45.41
49.47
51.44
51.81
50.8
48.43
44.68
39.77
34.24
28.93
24.64
21.81
20.27
19.26
17.87
15.55
12.32
8.82
5.71
3.16
0.66
-2.81
-8.27
-16.27
-26.67
-38.93
-52.26
-66.01
-79.64
-92.65
-104.45
-114.56
-122.8
-129.41
-134.95
-139.75
-143.49
-144.97
-142.43
-134.33
-120.14
-100.91
-79.09
-57.88
-39.96
-26.66
-17.65
-11.32
-5.91
-0.3
5.46
10.44
13.63
14.84
14.9
15.37
17.73
22.41
28.67
35.03
39.97
42.89
44.19
45.14
47.07
50.83
56.35
62.8
68.91
73.36
75.33
74.49
71.34
66.79
61.95
57.57
53.8
50.1
45.37
38.56
29.07
17.31
4.77
-6.24
-13.27
-14.49
-9.37
1.02
14.46
28.34
40.65
50.56
58.42
65.17
71.46
77.25
81.72
83.87
82.98
79.07
72.93
65.74
58.77
52.76
48.0
44.23
40.94
37.68
34.13
30.42
26.78
23.66
21.22
19.42
17.92
16.28
14.13
11.37
8.15
4.68
1.16
-2.43
-6.41
-11.28
-17.44
-25.09
-34.01
-43.66
-53.28
-61.84
-68.18
-71.28
-70.39
-65.47
-57.38
-47.73
-38.43
-30.96
-25.65
-21.68
-17.59
-11.99
-4.39
4.44
12.84
19.03
21.85
21.46
19.13
16.68
15.76
17.05
20.11
23.48
25.5
24.83
21.22
15.5
9.22
4.01
0.82
-0.32
-0.46
-1.09
-3.65
-8.78
-16.24
-24.98
-33.65
-41.33
-47.82
-53.77
-60.17
-67.76
-76.34
-84.71
-90.98
-93.3
-90.94
-84.48
-75.81
-67.3
-60.91
-57.57
-56.9
-57.67
-58.27
-57.53
-54.66
-49.39
-41.82
-32.23
-21.07
-8.84
3.96
16.92
29.61
41.73
52.94
62.84
70.9
76.54
79.34
79.24
76.67
72.53
67.9
63.8
60.85
59.13
58.16
57.32
56.15
54.72
53.69
53.87
55.71
58.9
62.33
64.41
64.02
60.93
56.0
50.85
47.04
45.27
45.29
46.08
46.33
45.3
42.83
39.32
35.52
32.01
29.04
26.46
23.76
20.31
15.72
10.1
4.18
-0.78
-3.62
-3.85
-1.93
0.84
2.94
3.39
2.14
-0.05
-1.99
-2.98
-2.91
-2.47
-2.57
-3.96
-6.8
-10.73
-15.05
-18.95
-21.92
-23.69
-24.41
-24.37
-23.96
-23.42
-22.91
-22.38
-21.83
-21.36
-21.15
-21.44
-22.25
-23.36
-24.18
-24.02
-22.31
-18.92
-14.23
-8.91
-3.74
0.8
4.6
7.89
10.99
14.02
16.77
18.87
20.0
20.2
19.83
19.46
19.57
20.25
21.15
21.62
21.12
19.5
17.15
14.89
13.49
13.34
14.19
15.19
15.37
14.03
11.13
7.31
3.56
0.76
-0.81
-1.44
-1.98
-3.28
-5.94
-9.97
-14.87
-19.76
-23.86
-26.67
-28.11
-28.46
-28.07
-27.23
-25.94
-24.03
-21.23
-17.57
-13.37
-9.21
-5.79
-3.55
-2.54
-2.39
-2.47
-2.26
-1.58
-0.71
-0.13
-0.29
-1.27
-2.75
-4.2
-5.13
-5.39
-5.13
-4.75
-4.51
-4.43
-4.44
-4.39
-4.38
-4.58
-5.21
-6.26
-7.63
-9.03
-10.29
-11.43
-12.56
-13.89
-15.51
-17.38
-19.37
-21.44
-23.54
-25.65
-27.68
-29.37
-30.49
-30.92
-30.61
-29.6
-27.85
-25.23
-21.6
-17.07
-11.97
-6.96
-2.74
0.28
2.1
3.17
3.98
4.9
5.85
6.51
6.44
5.49
3.82
1.94
0.42
-0.27
-0.02
0.97
2.35
3.62
4.45
4.6
4.04
2.88
1.37
-0.29
-1.85
-3.11
-4.01
-4.58
-4.9
-5.15
-5.57
-6.34
-7.65
-9.51
-11.75
-14.11
-16.26
-18.0
-19.38
-20.59
-21.87
-23.18
-24.2
-24.29
-22.8
-19.39
-14.27
-8.25
-2.39
2.29
5.38
7.12
8.26
9.64
11.72
14.26
16.51
17.49
16.56
13.87
10.3
7.16
5.61
6.21
8.56
11.56
13.81
14.3
12.96
10.65
8.7
8.31
9.85
12.57
14.96
15.47
13.18
8.46
2.66
-2.45
-5.42
-5.9
-4.75
-3.62
-4.23
-7.59
-13.47
-20.62
-27.29
-31.93
-33.9
-33.54
-31.87
-29.95
-28.37
-26.81
-24.45
-20.36
-14.13
-6.28
1.88
8.71
12.9
13.9
12.24
9.12
5.92
3.7
2.74
2.65
2.63
1.87
-0.06
-2.88
-5.83
-7.89
-8.25
-6.81
-4.12
-1.27
0.64
0.91
-0.3
-2.26
-3.96
-4.56
-3.92
-2.51
-1.26
-1.19
-2.92
-6.43
-11.12
-16.05
-20.16
-22.92
-24.32
-24.93
-25.64
-27.28
-30.15
-34.0
-37.92
-40.63
-41.08
-38.62
-33.49
-26.61
-19.41
-13.19
-8.72
-5.91
-3.89
-1.55
1.94
6.64
11.89
16.46
19.24
19.82
18.59
16.71
15.51
15.92
18.05
21.27
24.49
26.59
26.82
24.94
21.12
16.05
10.9
7.13
6.3
9.37
16.04
24.35
30.9
32.04
25.25
10.46
-10.01
-32.18
-51.99
-66.82
-75.78
-79.59
-79.38
-76.14
-70.2
-61.76
-51.45
-40.41
-30.07
-21.07
-13.12
-4.92
4.75
16.31
28.99
41.19
51.37
58.61
63.28
66.18
68.33
70.03
71.18
71.26
69.76
66.59
61.79
55.95
49.57
43.18
37.21
31.67
26.48
21.35
16.25
11.15
6.42
2.33
-1.19
-4.34
-7.78
-11.8
-16.49
-21.32
-25.9
-29.72
-32.78
-35.61
-38.76
-43.05
-48.68
-55.45
-62.51
-69.04
-74.19
-77.75
-80.26
-82.65
-86.08
-91.19
-97.98
-105.61
-112.86
-118.69
-122.49
-124.5
-125.39
-126.3
-128.09
-130.87
-133.66
-134.48
-131.39
-123.3
-110.78
-95.83
-81.19
-68.89
-59.49
-52.22
-45.87
-40.0
-35.2
-32.63
-32.92
-35.58
-38.81
-40.46
-38.98
-34.07
-26.61
-18.01
-9.56
-2.02
4.33
9.43
13.01
14.62
14.01
11.32
7.53
4.12
2.72
4.38
9.27
16.47
24.56
32.24
38.86
44.77
50.88
58.1
66.71
76.09
84.85
91.43
94.76
94.63
91.99
88.22
84.76
82.56
81.73
81.63
81.3
79.78
76.57
72.05
67.04
62.7
60.04
59.22
59.47
59.05
56.02
48.86
37.58
23.58
9.34
-2.49
-10.44
-14.56
-16.72
-19.61
-25.85
-36.6
-51.22
-67.4
-81.9
-91.83
-95.36
-92.46
-84.6
-74.04
-62.99
-52.7
-43.1
-33.3
-22.45
-10.25
2.46
14.06
22.69
27.21
27.51
24.53
19.87
14.83
10.59
8.24
9.23
15.0
26.41
42.94
62.16
80.84
95.84
105.81
111.41
114.77
118.1
122.53
127.93
133.1
136.98
138.97
138.97
137.02
133.13
127.06
118.54
107.56
94.12
78.66
61.82
44.81
28.96
15.47
4.83
-3.54
-10.73
-17.98
-25.46
-32.26
-36.59
-36.84
-32.58
-24.99
-16.71
-10.43
-8.13
-9.89
-14.26
-19.02
-22.18
-23.11
-22.4
-21.66
-22.17
-24.4
-27.38
-29.17
-27.84
-22.16
-12.49
-0.55
10.96
19.53
23.71
23.56
20.73
17.36
15.47
15.76
17.7
19.74
20.34
18.66
14.81
9.88
5.03
1.11
-1.96
-4.84
-8.64
-14.1
-21.2
-29.16
-36.22
-40.63
-40.9
-36.73
-28.9
-19.17
-9.48
-1.31
4.65
8.87
12.24
15.69
19.69
23.92
27.51
29.36
28.78
25.71
21.2
16.77
14.02
13.98
16.55
20.69
24.78
27.44
27.88
26.45
24.06
21.83
20.59
20.38
20.71
20.65
19.61
17.32
14.33
11.42
9.46
8.89
9.39
10.16
9.95
8.0
4.12
-0.88
-5.56
-8.3
-7.95
-4.34
1.82
9.03
15.99
21.93
26.87
31.5
36.51
42.19
48.02
52.93
55.62
55.35
52.05
46.43
39.77
33.27
27.85
23.77
20.76
18.2
15.6
12.64
9.34
6.15
3.43
1.52
0.32
-0.52
-1.39
-2.47
-3.63
-4.53
-4.6
-3.65
-1.73
0.78
3.3
5.26
6.23
5.92
4.4
2.1
-0.3
-1.96
-2.26
-1.14
0.91
3.18
5.19
7.19
10.15
15.16
22.85
32.8
43.46
52.77
58.97
61.3
60.26
57.18
53.59
50.54
48.25
46.04
42.97
38.21
31.59
23.62
15.26
7.49
0.96
-4.24
-8.47
-12.39
-16.66
-21.64
-27.42
-33.73
-40.13
-46.04
-50.95
-54.51
-56.68
-57.73
-57.99
-57.91
-57.76
-57.7
-57.84
-58.3
-59.27
-61.0
-63.71
-67.37
-71.85
-76.91
-82.33
-87.95
-93.49
-98.33
-101.41
-101.43
-97.2
-88.3
-75.28
-59.69
-43.6
-28.92
-16.86
-7.7
-1.04
3.91
7.83
11.11
13.82
15.84
17.06
17.57
17.68
17.75
18.17
19.18
20.73
22.7
24.75
26.56
27.89
28.59
28.58
27.9
26.64
24.85
22.58
19.84
16.56
12.81
8.8
4.84
1.27
-1.87
-4.87
-8.27
-12.63
-18.25
-24.94
-32.06
-38.81
-44.31
-47.9
-49.12
-47.77
-43.97
-38.07
-30.73
-22.79
-15.08
-8.31
-2.96
0.88
3.4
4.88
5.67
6.01
6.02
5.79
5.49
5.3
5.52
6.49
8.35
11.08
14.46
18.17
21.87
25.25
28.08
30.22
31.7
32.71
33.52
34.34
35.12
35.65
35.5
34.45
32.47
29.85
27.03
24.46
22.32
20.44
18.45
15.84
12.33
7.89
2.87
-2.08
-6.13
-8.6
-9.18
-7.9
-5.15
-1.26
3.62
9.56
16.62
24.45
32.12
38.3
41.74
41.83
39.05
34.78
30.7
28.12
27.34
27.69
28.0
27.21
25.0
21.98
19.37
18.39
19.78
23.27
27.75
31.7
33.76
33.38
31.04
27.96
25.46
24.4
24.71
25.53
25.66
24.13
20.7
15.96
11.01
7.02
4.65
3.79
3.6
2.83
0.4
-4.16
-10.35
-16.9
-22.17
-24.77
-24.06
-20.34
-14.67
-8.39
-2.71
1.72
4.84
7.07
8.87
10.46
11.76
12.36
11.87
10.12
7.29
3.91
0.65
-1.97
-3.7
-4.6
-5.03
-5.35
-5.81
-6.54
-7.38
-8.06
-8.33
-8.14
-7.6
-7.08
-7.04
-7.83
-9.72
-12.55
-15.97
-19.38
-22.26
-24.3
-25.7
-26.96
-28.75
-31.67
-35.72
-40.52
-45.34
-49.43
-52.31
-53.86
-54.27
-53.76
-52.55
-50.49
-47.32
-42.73
-36.54
-29.04
-20.92
-13.14
-6.56
-1.76
1.43
3.5
5.17
6.99
9.05
11.1
12.68
13.4
13.09
12.04
10.76
9.98
10.35
12.02
14.66
17.39
19.17
19.25
17.56
14.74
11.74
9.38
7.85
6.75
5.36
3.14
0.0
-3.66
-7.21
-10.14
-12.2
-13.62
-14.76
-16.06
-17.8
-19.99
-22.41
-24.54
-25.78
-25.49
-23.34
-19.32
-13.85
-7.61
-1.45
3.88
7.91
10.49
11.95
12.78
13.54
14.53
15.64
16.33
15.99
14.17
11.03
7.31
4.09
2.25
2.2
3.62
5.66
7.39
8.15
7.87
7.01
6.25
6.15
6.85
7.88
8.31
7.25
4.13
-0.81
-6.59
-11.91
-15.68
-17.6
-18.25
-18.93
-20.8
-24.56
-29.96
-35.95
-41.31
-44.94
-46.46
-46.07
-44.36
-41.83
-38.71
-34.74
-29.45
-22.57
-14.24
-5.34
2.92
9.27
13.01
14.18
13.55
12.28
11.24
10.89
11.0
11.03
10.43
9.0
6.98
4.86
3.3
2.68
3.14
4.32
5.67
6.53
6.42
5.28
3.36
1.19
-0.76
-2.19
-3.21
-4.12
-5.35
-7.23
-9.8
-12.84
-15.89
-18.56
-20.58
-22.11
-23.61
-25.66
-28.58
-32.19
-35.74
-38.22
-38.72
-36.74
-32.4
-26.21
-18.97
-11.41
-4.19
2.17
7.33
11.14
13.66
15.14
15.84
15.89
15.36
14.22
12.47
10.28
8.0
5.99
4.51
3.73
3.53
3.74
4.06
4.25
4.12
3.68
3.05
2.48
2.19
2.12
2.0
1.36
-0.19
-2.72
-5.98
-9.47
-12.7
-15.4
-17.61
-19.58
-21.58
-23.81
-26.27
-28.99
-31.88
-34.76
-37.27
-38.93
-39.13
-37.31
-33.16
-26.74
-18.55
-9.31
0.04
8.64
15.84
21.24
24.85
26.95
27.92
28.12
27.73
26.74
25.14
23.07
20.77
18.7
17.27
16.69
17.02
18.02
19.34
20.55
21.36
21.5
20.97
19.84
18.27
16.48
14.4
11.91
8.85
5.14
0.93
-3.32
-7.19
-10.43
-13.15
-15.9
-19.19
-23.34
-28.19
-33.21
-37.74
-41.33
-43.97
-45.84
-47.16
-47.67
-46.72
-43.48
-37.4
-28.57
-17.92
-6.92
2.95
10.58
15.68
18.64
20.25
21.36
22.47
23.61
24.4
24.34
23.09
20.72
17.78
15.06
13.28
12.71
13.18
14.17
15.15
15.76
15.97
15.91
15.7
15.23
14.21
12.38
9.66
6.27
2.66
-0.76
-3.77
-6.42
-9.02
-11.84
-15.01
-18.41
-21.76
-24.85
-27.72
-30.66
-33.96
-37.68
-41.23
-43.63
-43.72
-40.76
-34.78
-26.61
-17.56
-8.87
-1.38
4.72
9.59
13.53
16.79
19.33
20.96
21.37
20.36
17.79
13.88
9.06
4.01
-0.49
-3.96
-6.23
-7.6
-8.48
-9.25
-9.9
-10.19
-9.88
-8.98
-7.98
-7.6
-8.6
-11.24
-15.28
-20.03
-24.67
-28.73
-32.13
-35.24
-38.58
-42.63
-47.5
-52.96
-58.48
-63.46
-67.49
-70.44
-72.55
-74.09
-75.27
-75.87
-75.36
-73.03
-68.21
-60.61
-50.29
-37.77
-23.89
-9.78
3.31
14.15
21.95
26.63
28.75
29.41
29.68
30.16
30.79
30.96
30.05
27.85
24.85
21.92
19.98
19.46
20.11
21.12
21.35
20.05
17.07
13.12
9.44
7.36
7.64
9.99
13.16
15.26
14.78
11.15
5.21
-1.24
-6.25
-8.63
-8.48
-7.01
-5.96
-6.68
-9.71
-14.51
-19.97
-24.82
-28.09
-29.29
-28.39
-25.57
-21.18
-15.54
-8.9
-1.45
6.49
14.44
21.71
27.45
30.97
32.01
31.01
29.0
27.3
26.86
27.97
30.08
32.15
33.23
32.98
31.86
30.8
30.69
31.85
33.89
35.87
36.85
36.31
34.31
31.45
28.42
25.77
23.7
22.11
20.68
19.1
17.18
14.84
12.08
8.89
5.3
1.36
-2.8
-6.91
-10.69
-13.89
-16.52
-18.72
-20.7
-22.34
-23.15
-22.39
-19.32
-13.73
-6.15
2.18
9.82
15.57
19.02
20.49
20.81
20.89
21.29
22.09
22.87
23.07
22.21
20.23
17.56
15.02
13.55
13.74
15.63
18.54
21.37
23.09
23.18
21.89
20.08
18.71
18.32
18.82
19.54
19.65
18.64
16.49
13.7
10.99
8.91
7.52
6.54
5.35
3.37
0.23
-4.12
-9.32
-14.77
-19.65
-23.12
-24.45
-23.24
-19.56
-14.07
-7.78
-1.79
3.08
6.49
8.59
9.7
10.1
9.83
8.73
6.75
4.07
1.19
-1.23
-2.6
-2.69
-1.62
0.16
2.06
3.48
4.16
4.08
3.65
3.56
4.49
6.8
10.33
14.38
17.91
20.05
20.36
19.09
16.93
14.63
12.55
10.51
7.95
4.23
-0.83
-6.86
-13.07
-18.64
-23.14
-26.81
-30.43
-34.87
-40.67
-47.57
-54.51
-60.0
-62.6
-61.49
-56.82
-49.51
-40.92
-32.33
-24.5
-17.6
-11.57
-6.33
-2.2
0.33
0.84
-0.56
-3.21
-6.04
-8.2
-9.36
-9.89
-10.62
-12.28
-15.08
-18.63
-22.17
-24.95
-26.68
-27.66
-28.45
-29.62
-31.3
-33.18
-34.76
-35.69
-35.97
-36.09
-36.76
-38.53
-41.57
-45.49
-49.56
-53.04
-55.47
-56.94
-58.15
-60.11
-63.83
-69.84
-77.83
-86.57
-94.17
-98.57
-98.27
-92.66
-82.27
-68.29
-52.23
-35.41
-18.83
-3.31
10.3
20.98
27.85
30.39
28.95
24.68
19.36
14.85
12.58
13.18
16.58
22.2
29.24
37.0
44.82
52.25
58.84
64.14
67.64
68.84
67.41
63.41
57.45
50.77
45.02
41.8
42.07
45.84
52.06
59.01
64.88
68.28
68.51
65.4
59.22
50.37
39.49
27.47
15.67
5.81
-0.28
-1.09
4.0
14.62
29.37
46.18
62.79
77.28
88.37
95.51
98.8
98.65
95.59
90.15
82.92
74.5
65.65
57.13
49.52
43.16
38.14
34.32
31.58
29.77
28.75
28.23
27.77
26.84
25.07
22.43
19.18
15.74
12.35
8.93
5.08
0.36
-5.33
-11.71
-18.2
-24.28
-29.6
-34.19
-38.3
-42.35
-46.78
-51.93
-57.91
-64.4
-70.52
-74.86
-75.94
-72.59
-64.44
-52.16
-37.11
-21.04
-5.55
8.24
19.63
28.38
34.46
38.11
39.66
39.7
38.81
37.54
36.35
35.5
35.05
34.86
34.77
34.66
34.74
35.26
36.4
38.07
39.82
41.06
41.24
40.15
37.99
35.36
32.78
30.45
28.12
25.55
22.46
18.75
14.54
10.19
6.2
2.99
0.67
-1.15
-2.42
-3.36
-4.44
-5.96
-7.57
-8.06
-5.77
0.61
11.35
27.19
47.72
71.33
95.66
118.52
138.55
155.37
169.05
179.68
190.03
202.19
216.72
232.35
246.91
258.72
267.19
272.62
275.88
281.84
294.66
315.88
343.35
371.99
396.01
410.86
414.29
383.88
309.28
195.01
60.54
-69.97
-179.65
-262.86
-321.54
-360.36
-383.88
-392.1
-385.5
-366.79
-341.34
-315.36
-293.37
-276.8
-264.69
-254.84
-242.33
-223.79
-198.82
-170.11
-141.72
-117.07
-97.44
-82.19
-70.27
-58.95
-46.74
-34.11
-23.16
-16.25
-14.44
-16.61
-20.39
-23.09
-21.91
-15.85
-5.86
5.75
16.58
25.35
32.38
38.71
45.61
54.04
63.82
73.63
81.44
85.34
83.94
78.95
71.75
63.82
56.36
49.73
43.6
37.2
29.9
21.61
12.91
4.52
-2.8
-8.66
-13.35
-17.58
-22.29
-28.18
-35.46
-43.66
-51.8
-58.32
-61.42
-59.74
-52.68
-40.77
-25.45
-8.58
7.98
22.81
35.05
44.31
50.43
53.35
53.15
50.17
45.13
38.82
32.06
25.53
19.67
14.8
11.05
8.49
6.97
6.22
5.83
5.45
4.94
4.2
3.17
1.58
-1.07
-5.51
-12.41
-21.95
-33.21
-44.28
-52.66
-56.22
-54.32
-48.15
-40.39
-34.12
-31.51
-33.02
-37.67
-43.89
-50.47
-57.29
-65.0
-74.26
-84.93
-95.71
-104.34
-108.5
-106.62
-98.46
-85.26
-69.33
-53.3
-39.35
-28.78
-21.83
-18.0
-16.49
-16.4
-17.08
-17.96
-18.61
-18.6
-17.73
-15.93
-13.47
-10.7
-7.99
-5.58
-3.55
-1.92
-0.8
-0.61
-1.86
-5.12
-10.62
-18.11
-26.89
-36.04
-44.82
-52.81
-60.16
-67.21
-74.3
-81.59
-88.83
-95.67
-101.68
-106.64
-110.52
-113.49
-115.85
-117.99
-120.36
-123.24
-126.69
-130.11
-132.33
-131.67
-126.48
-115.67
-99.2
-78.12
-54.22
-29.62
-6.12
14.91
32.67
46.75
57.01
63.5
66.46
66.45
64.27
60.93
57.44
54.52
52.46
51.08
50.11
49.39
49.15
49.96
52.38
56.48
61.63
66.55
69.76
70.2
67.61
62.65
56.55
50.63
45.73
42.0
38.87
35.37
30.52
23.55
14.07
2.12
-11.83
-27.12
-42.97
-58.78
-74.32
-89.69
-105.15
-120.67
-135.29
-147.17
-153.82
-153.09
-143.97
-127.14
-104.68
-79.48
-54.27
-31.03
-10.87
5.62
18.16
26.47
30.46
30.44
27.22
22.03
16.22
10.94
6.86
4.27
3.15
3.34
4.71
7.12
10.36
14.0
17.36
19.63
20.13
18.51
15.07
10.56
6.08
2.5
0.17
-1.28
-2.83
-5.57
-10.28
-16.99
-24.93
-32.82
-39.35
-43.66
-45.71
-46.35
-46.86
-48.49
-51.92
-56.72
-61.41
-63.77
-61.61
-53.44
-39.05
-19.49
3.24
26.74
48.87
68.01
83.17
93.91
100.27
102.65
101.82
98.76
94.37
89.38
84.03
78.15
71.37
63.5
54.86
46.36
39.24
34.61
33.12
34.41
37.21
39.67
39.8
36.27
28.74
18.14
6.26
-4.78
-13.43
-19.21
-22.78
-25.72
-29.7
-35.99
-45.15
-57.05
-71.03
-86.21
-101.69
-116.7
-130.76
-143.5
-154.31
-162.01
-164.86
-160.86
-148.73
-128.6
-102.1
-71.82
-40.05
-7.99
24.28
56.93
89.17
118.72
142.18
156.44
160.11
154.34
142.35
128.22
115.38
105.53
98.61
93.42
88.67
83.77
79.16
75.76
74.31
74.71
75.81
75.95
73.69
68.53
61.02
52.41
43.88
36.02
28.62
21.0
12.59
3.28
-6.41
-15.78
-24.25
-31.77
-38.79
-46.04
-54.32
-63.84
-74.15
-83.78
-90.68
-92.66
-88.09
-76.48
-58.76
-37.07
-14.0
7.88
26.81
41.86
52.87
60.25
64.7
67.01
67.87
67.75
66.74
64.67
61.27
56.42
50.42
43.88
37.64
32.34
28.42
25.97
24.81
24.68
25.02
25.12
24.2
21.69
17.4
11.64
5.04
-1.78
-8.5
-15.29
-22.49
-30.41
-38.9
-47.43
-55.22
-61.77
-67.04
-71.49
-75.99
-81.32
-87.9
-95.39
-102.59
-107.57
-108.24
-102.86
-90.74
-72.62
-50.34
-26.52
-3.69
16.29
32.56
45.0
54.03
60.14
63.69
64.93
64.1
61.6
57.94
53.79
49.73
46.3
43.96
42.94
43.33
44.93
47.29
49.72
51.53
52.23
51.59
49.78
47.15
44.0
40.34
35.91
30.27
23.16
14.76
5.62
-3.37
-11.46
-18.32
-24.16
-29.5
-34.97
-40.93
-47.39
-54.23
-61.25
-68.25
-74.83
-80.19
-83.11
-82.16
-76.22
-64.9
-48.77
-29.29
-8.36
11.99
30.02
44.4
54.41
59.97
61.7
60.7
58.25
55.3
52.3
49.16
45.52
41.24
36.58
32.39
29.68
29.3
31.37
35.22
39.58
42.89
43.96
42.23
38.01
32.2
25.95
20.08
14.82
9.86
4.54
-1.62
-8.69
-16.2
-23.39
-29.62
-34.65
-38.76
-42.63
-47.04
-52.65
-59.82
-68.28
-77.08
-84.56
-88.54
-87.02
-78.88
-64.32
-44.98
-23.38
-2.17
16.62
31.84
43.3
51.29
56.28
58.73
59.05
57.65
55.0
51.55
47.68
43.74
40.02
36.79
34.29
32.68
31.99
32.18
33.09
34.52
36.19
37.7
38.55
38.26
36.5
33.16
28.53
22.99
16.98
10.81
4.56
-1.82
-8.41
-15.27
-22.39
-29.63
-36.77
-43.52
-49.62
-55.09
-60.28
-65.77
-71.95
-78.57
-84.43
-87.55
-85.86
-78.01
-64.05
-45.39
-24.52
-4.02
14.07
28.56
39.19
46.3
50.53
52.55
52.91
51.98
49.95
46.94
43.12
38.8
34.46
30.63
27.79
26.26
26.08
27.05
28.78
30.76
32.42
33.22
32.69
30.62
27.14
22.74
18.11
13.82
10.04
6.49
2.51
-2.5
-8.72
-15.79
-22.84
-28.92
-33.47
-36.6
-39.13
-42.32
-47.33
-54.7
-64.1
-74.15
-82.68
-87.4
-86.47
-79.21
-66.24
-49.23
-30.39
-11.81
5.07
19.45
31.09
39.93
45.94
49.12
49.66
48.03
44.98
41.4
38.03
35.25
33.02
31.11
29.28
27.58
26.37
26.13
27.28
29.69
32.69
35.24
36.3
35.35
32.54
28.61
24.45
20.71
17.51
14.55
11.35
7.56
3.16
-1.61
-6.3
-10.49
-13.98
-16.79
-19.27
-21.99
-25.66
-30.81
-37.69
-45.92
-54.59
-62.33
-67.5
-68.58
-64.42
-54.63
-39.61
-20.77
-0.15
19.93
37.28
50.35
58.43
61.72
60.96
57.28
51.72
45.03
37.61
29.55
20.95
12.12
3.74
-3.18
-7.55
-8.7
-6.67
-2.33
2.74
6.93
9.04
8.72
6.43
3.1
-0.43
-3.75
-6.97
-10.58
-15.09
-20.77
-27.52
-34.86
-42.06
-48.42
-53.39
-56.74
-58.8
-60.33
-62.35
-65.86
-71.36
-78.52
-86.22
-92.52
-95.13
-92.06
-82.14
-65.53
-43.86
-19.68
4.23
25.56
43.02
56.25
65.45
71.02
73.22
72.24
68.39
62.26
54.7
46.65
38.87
31.71
25.24
19.33
13.76
8.58
3.99
0.36
-1.94
-2.8
-2.51
-1.74
-1.33
-2.0
-3.99
-7.15
-10.91
-14.72
-18.3
-21.69
-25.17
-29.08
-33.54
-38.38
-43.31
-47.98
-52.16
-55.88
-59.37
-63.09
-67.52
-72.92
-79.06
-85.03
-89.23
-89.85
-85.53
-75.75
-61.14
-43.14
-23.48
-3.65
15.41
33.3
49.79
64.37
76.19
84.09
87.19
85.34
79.36
70.92
62.11
54.6
49.17
45.58
42.78
39.63
35.52
30.63
25.81
22.06
20.02
19.69
20.48
21.5
21.91
21.09
18.51
13.61
5.77
-5.38
-19.56
-35.56
-51.45
-65.1
-75.07
-81.11
-84.25
-86.25
-88.74
-92.59
-97.44
-101.99
-104.35
-102.82
-96.31
-84.61
-68.42
-48.87
-27.24
-4.66
17.9
39.55
59.2
75.65
87.88
95.26
98.1
97.43
94.82
91.68
88.89
86.6
84.56
82.45
80.24
78.43
77.69
78.6
81.16
84.71
88.11
90.14
89.94
87.19
82.15
75.21
66.49
55.78
42.46
25.98
6.35
-15.49
-37.72
-57.87
-73.68
-83.72
-87.91
-87.59
-85.07
-82.92
-83.16
-86.47
-91.94
-97.33
-99.72
-96.46
-86.21
-69.22
-47.44
-23.79
-1.34
17.61
31.95
41.72
47.81
51.19
52.68
52.57
50.75
46.99
41.37
34.44
27.27
21.2
17.24
15.88
16.74
18.93
21.39
23.32
24.43
24.89
25.01
24.95
24.5
23.04
19.98
15.0
8.27
0.51
-7.39
-14.64
-20.98
-26.62
-32.11
-37.93
-44.37
-51.48
-59.08
-67.02
-75.08
-82.91
-89.65
-93.97
-94.22
-88.9
-77.39
-60.13
-38.86
-16.05
5.73
24.53
39.32
49.99
56.97
60.69
61.49
59.49
54.99
48.63
41.46
34.71
29.39
26.02
24.36
23.91
24.03
24.39
25.05
26.18
27.91
29.94
31.68
32.31
31.3
28.46
24.0
18.39
12.08
5.4
-1.47
-8.33
-14.97
-21.01
-26.25
-30.69
-34.68
-39.07
-44.79
-52.52
-62.18
-72.71
-82.03
-87.67
-87.41
-80.14
-66.24
-47.43
-26.21
-5.02
14.32
30.76
43.85
53.46
59.54
62.18
61.78
59.19
55.51
51.76
48.61
46.07
43.81
41.37
38.58
35.68
33.2
31.63
31.19
31.68
32.45
32.7
31.71
29.03
24.67
19.0
12.54
5.79
-0.83
-7.08
-12.89
-18.23
-23.12
-27.64
-31.99
-36.5
-41.69
-48.05
-56.0
-65.61
-76.38
-87.1
-95.97
-100.85
-99.77
-91.55
-76.24
-55.22
-30.84
-5.75
17.58
37.51
53.32
65.18
73.74
79.92
84.43
87.6
89.32
89.2
86.85
82.23
75.82
68.6
61.86
56.68
53.75
53.11
54.28
56.44
58.69
60.27
60.71
59.85
57.63
54.2
49.78
44.53
38.68
32.39
25.71
18.69
11.36
3.83
-3.75
-11.15
-18.38
-25.55
-33.0
-41.09
-49.85
-58.65
-66.09
-70.16
-68.9
-61.22
-47.36
-29.08
-9.19
9.34
24.35
34.93
41.49
45.22
47.27
48.32
48.3
46.88
43.83
39.35
34.21
29.3
25.41
22.83
21.42
20.69
20.2
19.62
18.87
18.04
17.26
16.56
15.9
15.1
13.83
11.75
8.55
4.12
-1.38
-7.59
-13.93
-19.93
-25.28
-30.08
-34.67
-39.47
-44.85
-51.02
-58.02
-65.64
-73.41
-80.43
-85.41
-86.92
-83.72
-75.39
-62.37
-45.99
-27.95
-10.03
6.41
20.39
31.19
38.32
41.53
41.04
37.65
32.68
27.46
23.0
19.74
17.34
15.22
12.87
10.23
7.82
6.46
6.78
8.87
12.02
14.94
16.35
15.43
12.21
7.51
2.48
-1.99
-5.76
-9.36
-13.61
-19.05
-25.62
-32.51
-38.66
-43.22
-46.01
-47.63
-49.21
-51.88
-56.3
-62.26
-68.57
-73.35
-74.6
-70.83
-61.42
-46.94
-28.87
-9.14
10.19
27.51
41.73
52.32
59.33
63.16
64.41
63.75
61.76
58.81
55.14
50.86
46.15
41.38
37.01
33.6
31.49
30.74
30.92
31.37
31.4
30.57
28.86
26.57
24.1
21.63
19.01
15.68
11.14
5.15
-2.07
-9.81
-17.22
-23.63
-28.83
-33.06
-36.97
-41.24
-46.45
-52.95
-60.74
-69.42
-78.06
-85.16
-88.8
-87.13
-79.02
-64.61
-45.49
-24.26
-3.74
13.76
27.05
36.04
41.43
44.12
44.86
43.94
41.46
37.44
32.04
25.72
19.15
13.06
8.09
4.63
2.68
2.02
2.3
3.09
4.12
5.18
5.97
6.17
5.46
3.58
0.52
-3.42
-7.8
-12.14
-16.23
-20.24
-24.59
-29.62
-35.44
-41.61
-47.39
-52.09
-55.45
-57.93
-60.61
-64.65
-70.6
-77.82
-84.31
-87.27
-84.16
-73.7
-56.5
-34.89
-11.96
9.44
27.42
41.31
51.2
57.52
60.74
61.33
59.77
56.82
53.22
49.5
45.87
42.19
38.27
34.17
30.28
27.21
25.55
25.47
26.68
28.45
29.86
30.13
28.89
26.18
22.3
17.69
12.59
7.08
1.12
-5.29
-12.03
-18.8
-25.31
-31.48
-37.39
-43.3
-49.4
-55.75
-62.32
-69.11
-76.15
-83.48
-90.72
-96.74
-99.74
-97.63
-88.87
-73.25
-52.19
-28.43
-5.13
15.08
30.85
42.03
49.4
53.9
56.2
56.62
55.21
52.14
47.76
42.71
37.69
33.36
30.14
28.08
27.1
26.83
27.04
27.56
28.34
29.37
30.52
31.49
31.73
30.76
28.2
24.06
18.61
12.34
5.64
-1.19
-8.07
-15.01
-21.95
-28.85
-35.61
-42.15
-48.52
-54.86
-61.34
-68.14
-75.35
-82.67
-89.36
-94.06
-95.08
-90.82
-80.25
-63.48
-41.73
-17.24
7.28
29.29
46.87
59.04
65.81
68.06
67.14
64.48
61.17
57.78
54.24
50.18
45.27
39.6
33.79
28.89
25.89
25.4
27.2
30.39
33.66
35.7
35.76
33.82
30.52
26.79
23.34
20.34
17.34
13.5
8.06
0.73
-8.07
-17.41
-26.1
-33.34
-38.95
-43.42
-47.7
-52.79
-59.46
-67.92
-77.85
-88.29
-97.79
-104.51
-106.57
-102.54
-91.79
-74.86
-53.36
-29.69
-6.36
14.36
30.98
42.8
49.88
52.83
52.6
50.25
46.71
42.57
38.06
33.03
27.25
20.61
13.52
6.88
2.1
0.61
3.25
9.81
18.74
27.37
32.91
33.44
28.79
20.75
12.32
6.41
4.58
6.3
9.43
11.17
9.33
3.2
-6.46
-17.95
-29.41
-39.46
-47.57
-53.89
-59.24
-64.74
-71.25
-78.93
-86.62
-92.07
-92.43
-85.56
-70.82
-49.5
-24.34
1.71
26.49
49.02
69.26
87.39
103.06
115.41
123.36
126.22
124.13
117.94
108.9
98.3
87.17
76.31
66.46
58.5
53.32
51.67
53.76
59.12
66.7
75.09
82.99
89.51
94.29
97.5
99.46
100.46
100.66
100.12
98.98
97.56
96.34
95.8
96.22
97.46
98.79
98.96
96.4
89.53
77.19
59.17
36.4
11.11
-13.49
-33.81
-46.55
-49.47
-42.02
-25.43
-2.48
22.93
46.87
66.07
78.34
82.9
79.88
70.32
55.74
38.06
19.33
1.4
-14.43
-27.81
-39.08
-48.98
-58.0
-66.12
-72.91
-78.03
-81.63
-84.67
-88.7
-95.24
-105.27
-118.7
-134.2
-149.67
-162.75
-171.72
-176.01
-176.36
-174.19
-171.03
-167.71
-164.09
-159.61
-153.73
-146.68
-139.38
-133.0
-128.18
-124.52
-120.51
-114.01
-103.19
-87.16
-66.4
-42.54
-17.83
5.51
25.84
42.33
54.81
63.46
68.61
70.6
69.72
66.39
61.15
54.65
47.56
40.46
33.73
27.64
22.34
17.86
14.2
11.24
8.73
6.37
3.9
1.09
-2.1
-5.59
-9.29
-13.09
-16.97
-20.99
-25.2
-29.63
-34.22
-38.82
-43.29
-47.57
-51.76
-56.21
-61.4
-67.87
-75.72
-84.45
-92.67
-98.36
-99.35
-94.11
-82.32
-64.96
-44.12
-22.18
-1.2
17.52
33.41
46.36
56.36
63.38
67.42
68.64
67.45
64.38
60.07
55.17
50.26
45.93
42.68
40.85
40.38
40.93
41.91
42.84
43.53
44.08
44.72
45.49
46.09
45.83
43.99
40.18
34.51
27.62
20.33
13.43
7.29
1.81
-3.48
-9.19
-15.87
-23.92
-33.29
-43.37
-52.78
-59.67
-62.02
-58.4
-48.57
-33.64
-15.76
2.62
19.53
33.89
45.47
54.48
61.13
65.3
66.74
65.32
61.27
55.32
48.5
41.89
36.35
32.36
29.93
28.73
28.25
27.93
27.44
26.7
25.8
24.85
23.83
22.41
20.04
16.12
10.26
2.58
-6.28
-15.37
-23.8
-31.08
-37.39
-43.5
-50.45
-59.13
-69.79
-81.83
-93.74
-103.47
-109.0
-108.88
-102.72
-91.34
-76.42
-59.99
-43.85
-29.24
-16.75
-6.54
1.56
7.86
12.86
17.28
21.93
27.49
34.32
42.33
50.99
59.63
67.62
74.51
80.08
84.15
86.67
87.68
87.31
85.81
83.49
80.51
76.79
72.06
65.91
58.17
49.04
39.18
29.43
20.49
12.65
5.66
-1.17
-8.66
-17.44
-27.67
-39.02
-50.58
-61.08
-69.03
-72.95
-71.72
-64.93
-53.04
-37.35
-19.62
-1.68
14.97
29.38
41.1
50.02
56.2
59.81
61.14
60.63
58.8
56.14
53.07
49.86
46.75
43.96
41.78
40.35
39.63
39.29
38.94
38.26
37.26
36.18
35.2
34.23
32.63
29.58
24.41
17.05
8.19
-1.02
-9.42
-16.43
-22.25
-27.61
-33.47
-40.5
-48.91
-58.42
-68.35
-77.64
-84.98
-88.95
-88.26
-82.22
-70.97
-55.5
-37.45
-18.72
-0.94
14.69
27.42
36.92
43.15
46.34
47.0
45.84
43.63
41.05
38.55
36.32
34.37
32.67
31.2
30.02
29.22
28.92
29.16
29.82
30.67
31.36
31.47
30.64
28.68
25.62
21.63
16.99
11.96
6.72
1.35
-4.19
-9.96
-15.98
-22.2
-28.49
-34.76
-41.11
-47.82
-55.2
-63.25
-71.28
-77.84
-80.91
-78.63
-70.0
-55.45
-36.77
-16.57
2.5
18.54
30.69
39.06
44.36
47.38
48.64
48.34
46.51
43.25
38.93
34.22
29.96
26.85
25.21
24.9
25.43
26.26
27.07
27.8
28.54
29.3
29.87
29.78
28.56
25.86
21.7
16.38
10.41
4.23
-1.9
-7.91
-13.83
-19.7
-25.53
-31.34
-37.21
-43.32
-49.83
-56.6
-62.97
-67.66
-69.05
-65.8
-57.39
-44.41
-28.43
-11.49
4.53
18.37
29.43
37.61
42.98
45.69
45.9
43.89
40.22
35.6
30.75
26.26
22.4
19.2
16.54
14.39
12.82
12.07
12.35
13.69
15.68
17.65
18.73
18.24
15.93
12.01
7.06
1.77
-3.34
-8.11
-12.62
-17.19
-22.12
-27.58
-33.58
-40.11
-47.13
-54.52
-61.87
-68.3
-72.46
-72.85
-68.27
-58.48
-44.4
-27.91
-11.3
3.53
15.47
24.25
30.12
33.4
34.22
32.57
28.62
22.88
16.23
9.71
4.17
-0.02
-2.9
-4.81
-6.08
-6.75
-6.64
-5.46
-3.12
0.05
3.31
5.68
6.26
4.62
0.97
-4.04
-9.47
-14.56
-18.97
-22.84
-26.65
-31.01
-36.43
-43.21
-51.37
-60.43
-69.39
-76.75
-80.72
-79.79
-73.25
-61.52
-46.11
-29.07
-12.34
2.75
15.58
26.09
34.33
40.29
43.88
45.15
44.48
42.64
40.55
39.01
38.46
38.88
39.79
40.68
41.14
41.1
40.81
40.67
40.91
41.43
41.65
40.76
37.93
32.72
25.27
16.33
7.0
-1.6
-8.74
-14.36
-18.97
-23.45
-28.74
-35.48
-43.85
-53.61
-64.01
-73.83
-81.47
-85.2
-83.58
-75.96
-62.85
-45.72
-26.81
-8.25
8.34
22.11
32.88
40.79
46.11
49.04
49.88
49.01
47.0
44.38
41.6
38.85
36.12
33.25
30.11
26.74
23.39
20.51
18.56
17.73
17.86
18.28
18.06
16.34
12.65
7.19
0.75
-5.69
-11.35
-15.94
-19.8
-23.61
-28.05
-33.58
-40.33
-48.24
-56.98
-66.04
-74.45
-80.74
-83.22
-80.36
-71.36
-56.59
-37.54
-16.43
4.33
22.78
37.77
48.96
56.66
61.49
64.03
64.69
63.66
61.11
57.29
52.65
47.81
43.28
39.34
35.93
32.85
29.95
27.33
25.26
24.02
23.58
23.55
23.11
21.41
17.86
12.44
5.71
-1.36
-7.81
-13.1
-17.27
-20.85
-24.6
-29.17
-34.97
-42.09
-50.43
-59.77
-69.55
-78.72
-85.63
-88.39
-85.43
-76.15
-61.16
-42.18
-21.46
-1.1
17.44
33.32
46.23
56.11
62.94
66.72
67.6
65.95
62.35
57.49
52.06
46.55
41.33
36.54
32.28
28.69
25.97
24.35
23.89
24.37
25.3
25.96
25.71
24.11
21.07
16.85
11.9
6.66
1.45
-3.69
-8.85
-14.23
-19.88
-25.71
-31.49
-37.05
-42.46
-48.15
-54.66
-62.25
-70.41
-77.74
-82.17
-81.63
-74.88
-62.02
-44.54
-24.73
-4.98
12.88
27.87
39.71
48.56
54.59
58.0
58.97
57.78
54.94
51.05
46.64
42.12
37.72
33.5
29.55
26.05
23.24
21.43
20.77
21.09
21.94
22.63
22.54
21.32
19.0
15.86
12.28
8.44
4.31
-0.28
-5.45
-11.13
-16.98
-22.57
-27.58
-31.96
-35.94
-39.96
-44.49
-49.95
-56.47
-63.65
-70.48
-75.4
-76.66
-72.88
-63.56
-49.39
-32.01
-13.51
4.23
19.88
32.78
42.69
49.56
53.48
54.65
53.49
50.62
46.66
42.12
37.3
32.52
28.17
24.76
22.78
22.4
23.3
24.76
25.99
26.5
26.3
25.81
25.47
25.38
25.19
24.22
21.82
17.72
12.12
5.59
-1.23
-7.86
-14.13
-20.03
-25.73
-31.39
-37.11
-42.98
-49.11
-55.59
-62.49
-69.56
-76.11
-80.92
-82.5
-79.57
-71.62
-59.18
-43.66
-27.02
-11.04
3.06
14.67
23.68
30.12
34.05
35.58
35.02
32.9
29.9
26.67
23.55
20.58
17.55
14.32
11.03
8.18
6.41
6.23
7.68
10.27
13.11
15.29
16.16
15.6
13.91
11.62
9.21
6.78
4.15
0.96
-3.1
-8.06
-13.66
-19.46
-24.99
-29.96
-34.37
-38.56
-42.98
-48.12
-54.31
-61.43
-68.9
-75.56
-79.82
-80.07
-75.17
-64.84
-49.89
-32.03
-13.42
3.93
18.52
29.62
37.22
41.7
43.66
43.68
42.18
39.39
35.47
30.54
24.88
18.94
13.43
9.08
6.46
5.76
6.69
8.59
10.7
12.42
13.52
14.12
14.43
14.62
14.59
14.04
12.52
9.72
5.49
-0.0
-6.38
-13.1
-19.65
-25.64
-30.99
-35.86
-40.7
-46.06
-52.44
-59.97
-68.25
-76.23
-82.28
-84.58
-81.7
-73.02
-59.11
-41.55
-22.45
-3.83
12.9
27.01
38.33
46.86
52.56
55.29
55.01
51.92
46.67
40.15
33.34
27.02
21.65
17.43
14.34
12.3
11.23
11.04
11.66
12.97
14.73
16.61
18.18
18.95
18.55
16.81
13.82
9.84
5.18
0.0
-5.65
-11.76
-18.23
-24.81
-31.19
-37.29
-43.3
-49.65
-56.9
-65.4
-74.93
-84.7
-93.24
-98.75
-99.5
-94.33
-82.95
-66.13
-45.46
-22.98
-0.67
19.83
37.39
51.25
61.07
66.84
68.89
67.92
64.79
60.34
55.18
49.64
43.86
38.02
32.5
27.91
24.89
23.9
24.94
27.58
30.95
34.06
35.99
36.16
34.41
31.03
26.57
21.63
16.59
11.52
6.13
0.08
-6.9
-14.71
-22.88
-30.83
-38.12
-44.69
-50.94
-57.63
-65.5
-74.89
-85.27
-95.19
-102.41
-104.6
-99.92
-87.77
-68.99
-45.61
-20.32
4.36
26.5
45.0
59.44
69.8
76.27
79.08
78.61
75.33
69.94
63.2
55.91
48.81
42.45
37.26
33.51
31.37
30.85
31.75
33.65
36.0
38.24
39.84
40.51
40.11
38.63
36.12
32.57
27.96
22.3
15.76
8.57
1.07
-6.48
-13.98
-21.44
-28.98
-36.7
-44.68
-52.88
-61.35
-70.12
-79.02
-87.48
-94.23
-97.51
-95.44
-86.69
-70.99
-49.39
-24.08
2.16
26.65
47.32
63.02
73.56
79.47
81.72
81.3
79.02
75.36
70.58
64.87
58.53
52.04
46.01
41.04
37.58
35.81
35.65
36.77
38.64
40.59
41.93
42.11
40.85
38.2
34.49
30.13
25.48
20.7
15.66
10.11
3.77
-3.44
-11.37
-19.59
-27.56
-34.79
-41.02
-46.37
-51.45
-57.16
-64.34
-73.16
-82.7
-90.95
-95.25
-93.17
-83.47
-66.63
-44.75
-20.9
1.93
21.67
37.43
49.31
57.89
63.67
66.83
67.23
64.81
59.83
53.06
45.68
38.87
33.51
29.88
27.72
26.52
25.88
25.68
26.14
27.48
29.7
32.33
34.62
35.73
35.17
32.87
29.14
24.5
19.39
14.11
8.66
2.93
-3.25
-10.01
-17.32
-25.05
-32.84
-40.31
-47.1
-53.13
-58.65
-64.22
-70.4
-77.32
-84.3
-89.85
-91.94
-88.66
-78.96
-63.03
-42.34
-19.2
3.88
24.7
41.85
54.66
63.25
68.18
70.2
70.02
68.1
64.68
59.84
53.77
46.83
39.74
33.37
28.56
25.82
25.22
26.45
28.85
31.62
33.99
35.33
35.32
34.01
31.61
28.48
24.85
20.76
16.04
10.47
3.98
-3.3
-10.95
-18.48
-25.49
-31.78
-37.35
-42.42
-47.23
-52.03
-57.12
-62.71
-68.86
-75.36
-81.43
-85.79
-86.82
-83.09
-73.89
-59.56
-41.47
-21.66
-2.27
15.0
29.13
39.8
47.15
51.52
53.27
52.72
50.21
46.14
41.05
35.52
30.17
25.55
22.05
19.88
19.06
19.43
20.76
22.74
25.05
27.36
29.36
30.67
30.87
29.66
26.9
22.71
17.52
11.85
6.23
0.94
-4.08
-9.18
-14.67
-20.69
-27.0
-33.15
-38.76
-43.8
-48.69
-54.14
-60.72
-68.25
-75.71
-81.21
-82.6
-78.21
-67.52
-51.41
-31.9
-11.63
7.03
22.42
33.92
41.78
46.65
49.18
49.79
48.69
46.03
42.15
37.55
32.78
28.31
24.4
21.18
18.79
17.44
17.42
18.85
21.44
24.47
26.97
28.0
27.15
24.59
20.96
17.07
13.48
10.25
6.95
2.98
-2.2
-8.7
-16.17
-23.95
-31.28
-37.64
-42.89
-47.36
-51.73
-56.79
-63.16
-70.91
-79.44
-87.32
-92.63
-93.38
-88.17
-76.71
-59.97
-39.92
-18.94
0.84
18.01
31.91
42.4
49.64
53.81
55.14
53.96
50.83
