37.25
45.99
51.87
55.12
55.88
54.47
51.46
47.56
43.61
40.25
37.82
36.47
36.27
37.34
39.83
43.67
48.35
53.01
56.6
58.25
57.65
55.07
51.12
46.52
41.63
36.44
30.71
24.18
16.87
9.15
1.62
-5.19
-11.01
-16.04
-20.78
-25.92
-32.08
-39.55
-48.03
-56.64
-63.92
-68.11
-67.59
-61.37
-49.46
-32.94
-13.62
6.42
25.37
41.93
55.44
65.63
72.45
76.04
76.61
74.6
70.6
65.31
59.45
53.69
48.59
44.58
41.98
40.97
41.59
43.69
46.93
50.84
54.84
58.49
61.37
63.22
63.83
63.08
60.95
57.52
53.08
47.89
42.3
36.42
30.21
23.51
16.21
8.38
0.21
-8.1
-16.53
-25.24
-34.51
-44.51
-55.0
-65.3
-74.26
-80.55
-82.95
-80.76
-73.93
-63.22
-50.0
-36.02
-23.19
-13.03
-6.47
-3.63
-3.88
-6.04
-8.84
-11.28
-12.85
-13.58
-13.8
-13.79
-13.58
-12.87
-11.15
-7.91
-2.94
3.65
11.38
19.51
27.24
33.81
38.7
41.64
42.62
41.89
39.91
37.2
34.21
31.17
27.97
24.23
19.48
13.43
6.16
-1.83
-9.85
-17.34
-24.1
-30.41
-36.81
-43.76
-51.33
-59.04
-65.95
-70.87
-72.76
-70.98
-65.54
-57.04
-46.48
-35.05
-23.85
-13.84
-5.78
-0.24
2.51
2.48
0.11
-3.78
-8.21
-12.17
-14.82
-15.73
-14.69
-11.73
-7.2
-1.71
3.76
8.08
10.33
10.19
8.08
4.94
1.72
-1.22
-4.2
-8.14
-13.84
-21.47
-30.38
-39.4
-47.41
-53.89
-59.02
-63.36
-67.44
-71.3
-74.48
-76.28
-76.17
-74.09
-70.38
-65.49
-59.52
-52.16
-42.68
-30.31
-14.8
3.35
22.93
42.32
59.87
74.38
85.07
91.5
93.39
90.39
82.28
69.19
51.97
32.15
11.75
-7.24
-23.39
-36.18
-45.76
-52.64
-57.19
-59.43
-59.12
-56.04
-50.4
-42.95
-34.98
-27.82
-22.47
-19.4
-18.38
-18.76
-19.8
-21.02
-22.37
-24.09
-26.4
-29.24
-32.18
-34.61
-36.14
-36.92
-37.74
-39.69
-43.49
-48.9
-54.41
-57.66
-56.19
-48.43
-34.23
-14.98
6.98
29.09
49.22
66.05
78.95
87.77
92.57
93.62
91.43
86.76
80.62
73.96
67.55
61.72
56.47
51.63
47.1
43.06
39.9
38.03
37.59
38.33
39.65
40.79
41.12
40.29
38.31
35.41
31.83
27.7
22.99
17.55
11.22
4.04
-3.78
-11.85
-19.66
-26.77
-32.92
-38.05
-42.37
-46.43
-50.96
-56.66
-63.84
-71.97
-79.5
-84.2
-83.75
-76.61
-62.75
-43.61
-21.73
0.19
20.01
36.58
49.67
59.49
66.41
70.62
72.2
71.33
68.41
64.1
59.2
54.39
50.19
46.84
44.35
42.73
42.0
42.2
43.41
45.44
47.84
49.96
51.12
50.83
48.98
45.76
41.5
36.53
30.88
24.51
17.26
9.15
0.36
-8.72
-17.63
-26.01
-33.62
-40.43
-46.57
-52.3
-58.04
-64.22
-71.12
-78.71
-86.39
-92.87
-96.5
-95.66
-89.29
-77.4
-60.99
-41.85
-21.97
-3.09
13.65
27.6
38.55
46.47
51.39
53.5
53.11
50.81
47.29
43.35
39.59
36.5
34.28
32.97
32.6
33.2
34.84
37.4
40.52
43.5
45.46
45.64
43.65
39.7
34.41
28.56
22.69
16.94
11.07
4.67
-2.59
-10.77
-19.53
-28.33
-36.54
-43.7
-49.64
-54.61
-59.15
-63.92
-69.34
-75.25
-80.74
-84.14
-83.56
-77.44
-65.15
-47.4
-26.05
-3.64
17.31
34.95
48.46
57.89
63.81
66.89
67.56
66.07
62.53
57.24
50.76
43.92
37.65
32.69
29.48
28.04
28.15
29.46
31.54
33.93
36.05
37.28
37.07
35.1
31.41
26.4
20.63
14.62
8.69
2.8
-3.2
-9.54
-16.27
-23.3
-30.34
-37.07
-43.27
-48.85
-53.93
-58.77
-63.68
-68.96
-74.81
-81.13
-87.38
-92.58
-95.24
-93.76
-86.84
-73.95
-55.65
-33.64
-10.32
11.84
30.85
45.63
55.95
62.25
65.22
65.49
63.65
60.17
55.63
50.65
45.95
42.08
39.32
37.7
37.03
37.15
37.98
39.51
41.64
44.06
46.12
46.98
45.88
42.44
36.91
30.06
22.88
16.19
10.31
5.03
-0.26
-6.13
-12.95
-20.6
-28.62
-36.4
-43.46
-49.55
-54.76
-59.44
-64.1
-69.25
-75.35
-82.39
-89.87
-96.59
-100.78
-100.54
-94.39
-81.82
-63.62
-41.67
-18.38
3.87
23.39
39.26
51.27
59.6
64.55
66.37
65.36
61.96
56.85
50.96
45.24
40.42
36.87
34.5
32.99
32.01
31.4
31.3
31.9
33.25
35.06
36.67
37.31
36.34
33.56
29.24
23.95
18.36
12.96
7.93
3.16
-1.7
-6.98
-12.97
-19.69
-26.92
-34.24
-41.16
-47.2
-52.15
-56.14
-59.63
-63.39
-68.17
-74.38
-81.77
-89.24
-94.98
-96.9
-93.31
-83.39
-67.59
-47.43
-25.11
-2.88
17.35
34.36
47.5
56.56
61.66
63.13
61.56
57.73
52.62
47.07
41.71
36.88
32.72
29.4
27.24
26.64
27.92
30.99
35.29
39.82
43.49
45.49
45.41
43.39
39.84
35.28
30.07
24.4
18.29
11.66
4.53
-2.95
-10.56
-17.95
-24.88
-31.2
-36.93
-42.12
-46.92
-51.52
-56.18
-61.35
-67.31
-74.04
-80.83
-86.34
-88.75
-86.41
-78.4
-64.87
-47.01
-26.6
-5.49
14.73
32.83
47.84
59.0
65.84
68.44
67.42
63.93
59.21
54.25
49.53
45.01
40.49
35.88
31.45
27.78
25.52
25.14
26.58
29.36
32.53
35.07
36.1
35.09
32.04
27.32
21.54
15.36
9.27
3.5
-2.02
-7.59
-13.54
-20.12
-27.29
-34.67
-41.7
-47.75
-52.51
-56.02
-58.78
-61.63
-65.37
-70.62
-77.34
-84.78
-91.44
-95.44
-94.89
-88.5
-76.05
-58.3
-36.98
-14.12
8.22
28.37
45.09
57.69
65.91
69.93
70.43
68.25
64.33
59.43
54.08
48.7
43.67
39.4
36.21
34.4
34.0
34.83
36.59
38.9
41.36
43.54
44.95
45.05
43.52
40.13
35.08
28.78
21.89
15.0
8.5
2.42
-3.59
-9.97
-17.13
-25.09
-33.44
-41.47
-48.41
-53.83
-57.8
-60.93
-64.14
-68.35
-74.0
-80.82
-87.75
-93.12
-95.01
-91.83
-82.68
-67.72
-48.24
-26.29
-4.27
15.63
31.94
44.05
52.13
56.76
58.63
58.25
55.96
52.06
46.95
41.21
35.55
30.68
27.09
25.05
24.55
25.39
27.31
29.96
32.92
35.68
37.71
38.48
37.7
35.27
31.52
26.9
21.91
16.79
11.47
5.64
-0.98
-8.43
-16.43
-24.36
-31.55
-37.5
-42.05
-45.46
-48.33
-51.42
-55.42
-60.71
-67.08
-73.68
-79.03
-81.36
-79.08
-71.27
-57.95
-40.18
-19.77
1.19
20.69
37.22
49.88
58.34
62.75
63.55
61.37
56.93
51.07
44.57
38.21
32.61
28.12
24.89
22.86
21.87
21.81
22.65
24.35
26.78
29.51
31.79
32.75
31.67
28.32
23.08
16.87
10.64
5.08
0.27
-4.27
-9.24
-15.14
-21.91
-29.01
-35.62
-41.11
-45.39
-48.99
-52.88
-58.0
-64.8
-72.92
-81.09
-87.44
-89.93
-86.96
-77.83
-62.94
-43.69
-22.11
-0.45
19.36
35.94
48.62
57.34
62.44
64.47
63.96
61.38
57.15
51.7
45.58
39.5
34.13
29.99
27.23
25.72
25.2
25.41
26.25
27.66
29.5
31.38
32.66
32.61
30.68
26.75
21.18
14.66
7.94
1.52
-4.49
-10.26
-16.1
-22.2
-28.52
-34.83
-40.81
-46.28
-51.26
-55.93
-60.59
-65.57
-71.18
-77.49
-84.15
-90.25
-94.35
-94.72
-89.83
-78.92
-62.34
-41.6
-18.92
3.26
22.88
38.62
49.97
57.12
60.68
61.39
59.93
56.88
52.7
47.83
42.77
38.05
34.18
31.51
30.24
30.42
31.96
34.66
38.17
41.97
45.31
47.34
47.36
45.04
40.57
34.6
27.97
21.46
15.41
9.69
3.85
-2.62
-9.93
-17.88
-25.9
-33.28
-39.51
-44.44
-48.42
-52.04
-55.92
-60.53
-66.05
-72.31
-78.76
-84.48
-88.06
-87.95
-82.75
-71.74
-55.27
-34.82
-12.65
8.77
27.36
41.9
52.04
58.18
61.11
61.66
60.46
57.92
54.24
49.62
44.41
39.17
34.5
30.91
28.61
27.5
27.26
27.62
28.45
29.7
31.28
32.84
33.83
33.64
31.85
28.43
23.79
18.51
13.15
7.91
2.63
-3.05
-9.47
-16.64
-24.21
-31.57
-38.06
-43.32
-47.29
-50.31
-52.97
-55.93
-59.72
-64.66
-70.57
-76.71
-81.75
-83.97
-81.71
-73.92
-60.57
-42.74
-22.39
-1.87
16.71
31.9
43.1
50.44
54.54
56.1
55.68
53.61
50.04
45.15
39.35
33.29
27.77
23.54
21.06
20.39
21.22
23.11
25.53
28.03
30.3
32.05
33.05
33.07
31.95
29.63
26.22
21.97
17.17
12.07
6.74
1.08
-5.04
-11.69
-18.72
-25.77
-32.38
-38.18
-43.06
-47.28
-51.37
-55.88
-61.06
-66.59
-71.54
-74.44
-73.72
-68.16
-57.3
-41.66
-22.7
-2.35
17.34
34.72
48.63
58.5
64.27
66.19
64.83
60.93
55.38
49.06
42.69
36.78
31.64
27.39
24.16
22.1
21.37
22.03
23.94
26.78
29.95
32.7
34.28
34.11
31.91
27.84
22.44
16.43
10.49
5.0
-0.14
-5.4
-11.43
-18.63
-26.97
-35.87
-44.46
-51.92
-57.82
-62.41
-66.46
-71.03
-76.93
-84.29
-92.24
-98.99
-102.18
-99.6
-89.87
-73.01
-50.53
-25.08
0.37
23.37
42.55
57.72
69.51
78.77
86.11
91.62
95.04
96.07
94.6
90.92
85.54
79.13
72.26
65.38
58.79
52.68
47.22
42.47
38.36
34.65
30.99
26.91
22.04
16.1
8.94
0.69
-8.48
-18.21
-28.01
-37.44
-46.12
-53.93
-60.9
-67.11
-72.46
-76.61
-78.99
-79.09
-76.82
-72.78
-68.24
-64.65
-63.15
-63.85
-65.75
-66.86
-64.86
-57.88
-45.08
-26.9
-4.93
18.59
41.38
61.43
77.38
88.57
94.84
96.56
94.39
89.27
82.21
74.22
66.16
58.67
52.11
46.59
42.02
38.23
35.1
32.63
30.86
29.81
29.4
29.28
28.95
27.92
25.85
22.7
18.76
14.48
10.29
6.4
2.71
-1.16
-5.52
-10.57
-16.22
-22.12
-27.82
-33.02
-37.75
-42.27
-47.16
-53.0
-60.11
-68.36
-76.81
-83.95
-87.84
-86.73
-79.56
-66.39
-48.44
-27.78
-6.93
11.78
26.49
36.2
40.66
40.38
36.34
29.85
22.15
14.15
6.38
-1.01
-7.96
-14.34
-19.79
-23.82
-26.01
-26.2
-24.58
-21.63
-18.0
-14.27
-10.93
-8.28
-6.5
-5.73
-6.13
-7.83
-10.87
-15.22
-20.66
-26.84
-33.35
-39.75
-45.67
-50.8
-55.06
-58.57
-61.68
-64.81
-68.19
-71.57
-74.07
-74.31
-70.72
-62.24
-48.68
-31.02
-11.17
8.56
26.12
40.27
50.7
57.84
62.38
64.92
65.74
64.88
62.38
58.5
53.85
49.17
45.16
42.2
40.29
39.15
38.42
37.9
37.63
37.79
38.47
39.53
40.5
40.66
39.33
36.07
30.91
24.3
17.0
9.77
3.24
-2.24
-6.77
-10.73
-14.85
-19.96
-26.82
-35.82
-46.78
-58.83
-70.38
-79.48
-84.13
-82.91
-75.34
-62.08
-44.74
-25.57
-6.84
9.64
22.68
31.9
37.38
39.6
39.11
36.54
32.49
27.53
22.22
17.05
12.49
8.84
6.29
4.91
4.67
5.51
7.28
9.8
12.67
15.43
17.53
18.53
18.19
16.52
13.73
10.07
5.77
0.89
-4.6
-10.69
-17.31
-24.14
-30.83
-37.11
-43.0
-48.9
-55.46
-63.21
-71.94
-80.43
-86.52
-87.74
-82.19
-69.42
-50.57
-28.14
-4.99
16.35
34.34
48.37
58.47
64.94
68.09
68.21
65.79
61.41
55.79
49.58
43.3
37.28
31.8
27.14
23.6
21.45
20.74
21.28
22.57
24.02
25.07
25.36
24.71
23.15
20.71
17.37
13.02
7.51
0.8
-6.95
-15.31
-23.75
-31.68
-38.77
-45.1
-51.13
-57.57
-65.11
-73.98
-83.73
-93.06
-99.96
-102.2
-97.95
-86.38
-68.05
-44.78
-19.21
5.92
28.38
46.8
60.59
69.79
74.78
76.11
74.46
70.58
65.2
58.93
52.17
45.17
38.17
31.49
25.53
20.72
17.4
15.61
15.2
15.82
17.02
18.38
19.41
19.65
18.67
16.2
12.23
7.07
1.29
-4.46
-9.68
-14.15
-18.1
-22.03
-26.6
-32.35
-39.56
-48.09
-57.32
-66.11
-72.9
-75.99
-73.84
-65.53
-51.04
-31.32
-8.2
16.05
39.15
59.21
74.96
85.85
91.88
93.49
91.33
86.17
78.9
70.32
61.18
52.11
43.53
35.71
28.74
22.68
17.64
13.75
11.11
9.69
9.27
9.39
9.4
8.6
6.36
2.29
-3.62
-10.95
-18.94
-26.79
-33.85
-39.86
-44.94
-49.51
-54.04
-58.98
-64.66
-71.32
-79.0
-87.33
-95.26
-101.1
-102.66
-97.92
-85.76
-66.54
-42.07
-15.21
10.94
33.87
52.09
65.22
73.67
78.18
79.48
78.23
74.88
69.9
63.75
56.92
49.94
43.23
37.1
31.74
27.25
23.67
21.08
19.52
18.88
19.02
19.57
20.1
20.22
19.56
17.81
14.82
10.46
4.76
-1.99
-9.39
-16.84
-23.8
-30.01
-35.61
-41.11
-47.17
-54.37
-62.76
-71.76
-80.05
-85.7
-86.66
-81.26
-68.79
-49.88
-26.45
-1.27
22.71
43.13
58.68
69.09
74.85
76.82
75.79
72.41
67.22
60.7
53.39
45.83
38.54
31.98
26.5
22.35
19.66
18.43
18.39
19.12
20.13
20.97
21.33
21.05
20.03
18.19
15.39
11.47
6.31
0.01
-7.1
-14.56
-21.87
-28.78
-35.26
-41.61
-48.3
-55.75
-64.14
-73.2
-81.99
-88.96
-92.21
-89.95
-81.12
-65.81
-45.36
-22.09
1.34
22.66
40.39
53.92
63.24
68.6
70.3
68.71
64.3
57.84
50.25
42.53
35.39
29.25
24.12
19.88
16.34
13.45
11.28
9.89
9.32
9.49
10.22
11.12
11.7
11.33
9.45
5.76
0.35
-6.26
-13.26
-19.84
-25.56
-30.43
-34.98
-39.98
-46.19
-53.99
-63.11
-72.53
-80.53
-85.02
-84.1
-76.58
-62.49
-43.05
-20.41
2.82
24.3
42.34
56.09
65.45
70.76
72.53
71.29
67.53
61.69
54.36
46.27
38.19
30.83
24.63
19.72
15.95
13.08
10.8
9.04
7.8
7.15
7.14
7.67
8.43
8.87
8.31
6.03
1.64
-4.79
-12.65
-20.91
-28.61
-35.14
-40.59
-45.55
-50.96
-57.61
-65.74
-74.88
-83.71
-90.41
-92.96
-89.74
-79.94
-63.87
-42.95
-19.41
4.29
26.02
44.27
58.32
68.07
73.74
75.77
74.7
71.14
65.82
59.5
52.89
46.53
40.71
35.5
30.81
26.63
23.02
20.21
18.45
17.94
18.53
19.75
20.74
20.51
18.24
13.58
6.79
-1.41
-9.98
-17.99
-24.85
-30.45
-35.23
-39.99
-45.61
-52.77
-61.79
-72.26
-83.04
-92.35
-98.02
-98.13
-91.49
-78.02
-58.91
-36.3
-12.7
9.59
28.89
44.28
55.47
62.58
65.93
65.98
63.28
58.52
52.39
45.55
38.58
31.94
25.99
20.97
17.02
14.17
12.45
11.78
12.12
13.28
14.89
16.4
17.03
16.05
12.94
7.63
0.58
-7.38
-15.27
-22.29
-28.03
-32.64
-36.74
-41.21
-46.82
-54.03
-62.56
-71.39
-78.78
-82.65
-81.13
-73.12
-58.75
-39.33
-17.13
5.42
26.22
43.82
57.56
67.19
72.75
74.34
72.19
66.84
59.16
50.28
41.39
33.43
26.92
21.91
18.11
15.1
12.58
10.49
9.05
8.54
9.04
10.26
11.45
11.68
10.09
6.31
0.59
-6.26
-13.26
-19.58
-24.91
-29.48
-33.91
-38.94
-45.2
-52.93
-61.82
-70.92
-78.7
-83.13
-82.38
-75.19
-61.52
-42.67
-20.92
1.08
21.04
37.45
49.67
57.64
61.6
61.96
59.24
54.27
48.08
41.75
36.13
31.68
28.31
25.59
23.04
20.37
17.66
15.23
13.59
13.05
13.62
14.86
16.06
16.42
15.3
12.46
8.06
2.61
-3.28
-9.1
-14.71
-20.27
-26.21
-33.08
-41.09
-49.9
-58.4
-64.68
-66.6
-62.4
-51.44
-34.56
-13.96
7.5
27.16
43.1
54.53
61.48
64.39
63.77
60.15
54.04
46.19
37.43
28.55
20.19
12.65
5.92
-0.07
-5.36
-9.85
-13.21
-15.16
-15.56
-14.53
-12.62
-10.63
-9.48
-9.96
-12.45
-16.83
-22.63
-29.17
-35.74
-41.88
-47.33
-52.07
-56.43
-60.95
-66.34
-73.05
-80.81
-88.35
-93.48
-93.68
-87.01
-72.95
-52.7
-28.82
-4.44
17.77
36.01
49.59
58.54
63.29
64.35
62.37
58.06
52.29
45.95
39.78
34.28
29.59
25.59
22.11
19.13
16.7
15.1
14.55
14.99
16.03
16.91
16.69
14.57
10.24
4.02
-3.27
-10.64
-17.29
-22.83
-27.39
-31.49
-35.9
-41.34
-48.23
-56.5
-65.32
-73.11
-77.72
-77.07
-69.75
-55.65
-36.17
-13.75
8.74
28.87
45.11
57.01
64.84
69.21
70.73
69.73
66.49
61.31
54.71
47.46
40.47
34.5
29.98
26.87
24.8
23.35
22.25
21.55
21.41
21.81
22.32
22.17
20.43
16.53
10.43
2.78
-5.39
-13.09
-19.67
-25.07
-29.75
-34.48
-40.13
-47.32
-56.17
-65.96
-75.15
-81.56
-82.93
-77.7
-65.49
-47.4
-25.79
-3.47
16.99
33.88
46.58
55.25
60.41
62.54
61.85
58.47
52.64
45.09
36.91
29.37
23.55
19.88
18.17
17.69
17.58
17.34
16.89
16.51
16.5
16.81
16.94
16.12
13.63
9.19
3.08
-3.97
-11.09
-17.61
-23.36
-28.61
-33.99
-40.23
-47.89
-57.13
-67.39
-77.32
-84.78
-87.39
-83.18
-71.35
-52.68
-29.48
-4.83
18.25
37.62
52.35
62.56
68.86
71.93
72.19
69.88
65.23
58.69
50.98
43.04
35.78
29.9
25.67
22.95
21.3
20.22
19.4
18.78
18.47
18.57
18.92
18.97
17.97
15.19
10.3
3.49
-4.58
-13.07
-21.2
-28.52
-34.96
-40.77
-46.48
-52.68
-59.97
-68.61
-78.25
-87.67
-94.83
-97.3
-92.99
-80.97
-61.87
-37.9
-12.1
12.44
33.41
49.57
60.77
67.55
70.65
70.82
68.59
64.38
58.61
51.85
44.75
38.1
32.62
28.73
26.55
25.78
25.9
26.36
26.73
26.8
26.55
25.98
24.98
23.32
20.62
16.49
10.78
3.57
-4.63
-13.13
-21.24
-28.49
-34.77
-40.4
-46.0
-52.23
-59.68
-68.51
-78.3
-87.85
-95.25
-98.16
-94.61
-83.57
-65.53
-42.46
-17.24
7.19
28.5
45.44
57.71
65.65
69.88
71.03
69.61
66.13
61.12
55.15
48.88
42.95
38.03
34.63
32.99
32.96
34.1
35.76
37.29
38.23
38.29
37.34
35.3
32.07
27.58
21.79
14.77
6.82
-1.56
-9.89
-17.71
-24.82
-31.22
-37.07
-42.59
-48.03
-53.72
-60.0
-67.28
-75.61
-84.42
-92.27
-96.91
-95.9
-87.49
-71.44
-49.2
-23.7
1.74
24.35
42.51
55.95
65.18
70.93
73.71
73.75
71.14
66.24
59.66
52.31
45.12
38.91
34.21
31.29
30.17
30.6
32.19
34.36
36.46
37.89
38.16
37.01
34.45
30.69
25.99
20.6
14.66
8.16
1.0
-6.79
-15.04
-23.34
-31.16
-38.07
-43.89
-48.8
-53.31
-58.12
-63.81
-70.64
-78.33
-85.88
-91.7
-93.81
-90.37
-80.35
-63.86
-42.34
-18.23
5.66
26.86
43.76
55.68
62.77
65.62
64.99
61.65
56.33
49.7
42.53
35.52
29.3
24.35
20.93
19.1
18.74
19.62
21.42
23.79
26.3
28.54
30.13
30.72
30.09
28.1
24.73
20.05
14.3
7.77
0.85
-6.18
-13.1
-19.79
-26.19
-32.24
-37.91
-43.22
-48.34
-53.68
-59.61
-66.29
-73.21
-79.11
-82.09
-80.09
-71.71
-56.76
-36.56
-13.63
9.1
29.08
44.73
55.57
61.98
64.7
64.51
62.06
57.79
52.18
45.72
38.93
32.37
26.52
21.83
18.66
17.17
17.26
18.53
20.34
22.02
23.04
23.07
22.09
20.26
17.79
14.79
11.25
6.97
1.7
-4.7
-12.15
-20.3
-28.56
-36.3
-43.13
-48.98
-54.18
-59.27
-64.82
-71.18
-78.34
-85.67
-91.95
-95.35
-93.94
-86.21
-71.73
-51.49
-27.74
-3.34
19.08
37.77
51.99
61.83
67.66
69.89
68.89
65.08
59.14
51.99
44.62
37.87
32.28
28.04
25.15
23.54
23.17
24.02
25.96
28.64
31.47
33.62
34.35
33.16
30.08
25.61
20.41
15.03
9.66
4.11
-2.04
-9.07
-16.94
-25.22
-33.33
-40.72
-47.16
-52.81
-58.12
-63.71
-70.09
-77.47
-85.41
-92.74
-97.59
-97.77
-91.52
-78.13
-58.42
-34.61
-9.76
13.23
32.35
46.78
56.82
63.28
66.99
68.43
67.76
65.03
60.47
54.59
48.1
41.79
36.32
32.14
29.44
28.24
28.25
29.09
30.23
31.1
31.29
30.54
28.82
