-47.76
-56.83
-65.32
-74.12
-83.94
-94.9
-106.29
-116.42
-122.88
-123.16
-115.38
-99.07
-75.45
-47.23
-17.86
9.46
32.47
50.2
62.75
70.88
75.5
77.39
77.12
74.97
71.1
65.61
58.72
50.96
43.16
36.35
31.4
28.75
28.12
28.65
29.26
29.06
27.67
25.22
22.11
18.59
14.62
9.85
3.88
-3.52
-12.19
-21.7
-31.45
-40.85
-49.51
-57.22
-63.91
-69.71
-74.94
-80.08
-85.7
-92.13
-98.98
-104.94
-107.85
-105.24
-95.24
-77.4
-52.94
-24.65
4.08
30.18
51.61
67.63
78.52
85.06
88.02
87.97
85.21
79.98
72.7
64.09
55.13
46.92
40.41
36.06
33.86
33.33
33.81
34.7
35.62
36.4
37.0
37.32
37.04
35.71
32.8
27.95
21.05
12.31
2.33
-8.21
-18.62
-28.36
-37.15
-45.03
-52.33
-59.51
-67.14
-75.57
-84.7
-93.78
-101.25
-105.01
-102.98
-93.86
-77.59
-55.69
-30.72
-5.61
17.18
36.14
50.74
61.06
67.34
69.86
68.77
64.48
57.69
49.45
40.96
33.17
26.66
21.58
17.77
14.98
13.09
12.18
12.39
13.82
16.23
19.02
21.3
22.08
20.58
16.52
10.17
2.25
-6.25
-14.54
-22.13
-28.92
-35.15
-41.2
-47.52
-54.52
-62.57
-71.8
-81.84
-91.57
-99.07
-102.03
-98.38
-87.15
-68.87
-45.57
-20.14
4.46
25.98
43.14
55.44
63.04
66.28
65.76
62.23
56.61
49.89
43.01
36.63
31.15
26.78
23.57
21.63
21.04
21.8
23.81
26.7
29.85
32.5
33.87
33.36
30.58
25.51
18.42
9.85
0.55
-8.72
-17.24
-24.59
-30.72
-36.0
-41.15
-46.97
-53.86
-61.51
-68.61
-72.94
-72.07
-64.13
-48.64
-26.87
-1.59
23.86
46.49
64.38
76.93
84.33
87.12
85.67
80.19
70.94
58.57
44.33
29.77
16.45
5.48
-2.65
-8.06
-11.16
-12.35
-11.91
-9.92
-6.57
-2.24
2.32
6.17
8.4
8.36
5.85
1.04
-5.57
-13.38
-21.76
-30.19
-38.38
-46.17
-53.87
-61.95
-71.1
-81.67
-93.32
-104.55
-112.79
-115.17
-109.33
-94.53
-72.06
-44.83
-16.46
9.87
32.25
50.15
63.85
73.85
80.32
83.03
81.79
76.7
68.47
58.33
47.67
37.68
29.1
22.12
16.58
12.29
9.19
7.47
7.32
8.71
11.11
13.52
14.62
13.17
8.42
0.37
-10.22
-22.06
-33.78
-44.24
-52.91
-59.98
-66.28
-72.92
-80.89
-90.74
-101.97
-113.07
-121.56
-124.65
-120.07
-106.88
-85.91
-59.61
-31.37
-4.45
18.86
37.58
51.8
62.12
69.05
72.74
73.13
70.24
64.71
57.69
50.65
44.95
41.29
39.62
39.26
39.42
39.57
39.83
40.69
42.58
45.51
48.57
50.35
49.27
44.39
35.76
24.56
12.57
1.48
-7.7
-15.01
-21.34
-28.13
-36.65
-47.55
-60.42
-73.82
-85.4
-92.36
-92.28
-83.77
-67.08
-44.02
-17.58
8.98
32.9
52.5
67.27
77.44
83.49
85.82
84.63
80.06
72.51
62.73
51.88
41.36
32.33
25.55
21.12
18.55
17.15
16.29
15.77
15.68
16.24
17.26
18.1
17.54
14.35
7.79
-2.0
-13.85
-26.03
-36.86
-45.36
-51.64
-56.75
-62.35
-69.93
-80.19
-92.56
-105.13
-115.0
-119.08
-114.93
-101.64
-80.1
-52.75
-22.84
6.44
32.62
54.22
70.62
81.84
88.2
90.25
88.69
84.34
78.03
70.53
62.58
54.9
48.23
43.18
40.09
38.81
38.72
38.95
38.77
37.85
36.38
34.69
33.0
31.06
28.09
23.16
15.6
5.5
-6.34
-18.59
-29.96
-39.76
-48.02
-55.43
-62.92
-71.27
-80.86
-91.48
-102.39
-112.26
-119.24
-121.18
-116.17
-103.11
-82.19
-55.12
-24.66
6.0
33.98
57.29
74.99
87.04
93.96
96.56
95.71
92.17
86.61
79.6
71.65
63.37
55.41
48.42
42.94
39.23
37.19
36.45
36.44
36.65
36.61
36.0
34.58
32.07
28.15
22.6
15.39
6.76
-2.8
-12.76
-22.7
-32.42
-41.91
-51.22
-60.22
-68.64
-76.18
-82.84
-88.98
-95.23
-101.97
-108.69
-113.74
-114.55
-108.58
-94.37
-72.35
-44.78
-15.12
13.22
37.73
57.18
71.43
80.8
85.71
86.58
83.91
78.5
71.32
63.52
56.02
49.35
43.7
39.08
35.57
33.34
32.71
33.72
36.16
39.25
41.92
43.14
42.23
39.13
34.35
28.7
22.74
16.77
10.63
3.91
-3.67
-12.17
-21.36
-30.76
-39.82
-48.19
-55.57
-61.99
-67.74
-73.28
-79.25
-86.03
-93.38
-100.15
-104.39
-103.75
-96.21
-81.01
-58.86
-32.03
-3.75
22.72
44.85
61.31
72.01
77.7
79.47
78.36
74.95
69.56
62.42
53.97
45.03
36.7
30.11
26.08
24.83
25.98
28.72
32.15
35.49
38.17
39.92
40.54
39.89
37.85
34.39
29.49
23.26
15.84
7.42
-1.66
-11.08
-20.44
-29.33
-37.47
-44.76
-51.21
-57.02
-62.53
-68.16
-74.33
-81.12
-88.0
-93.58
-95.86
-92.75
-82.83
-66.13
-44.1
-19.27
5.56
28.1
46.91
61.32
71.21
76.62
77.64
74.66
68.45
60.17
51.23
42.85
35.78
30.22
25.94
22.59
20.01
18.38
18.07
19.33
22.0
25.35
28.21
29.45
28.25
24.51
18.84
12.26
5.73
-0.26
-5.86
-11.61
-18.18
-25.91
-34.61
-43.65
-52.27
-59.85
-66.2
-71.53
-76.41
-81.62
-87.83
-95.23
-103.32
-110.55
-114.57
-112.88
-103.66
-86.5
-62.8
-35.38
-7.63
17.38
37.69
52.62
62.58
68.44
71.13
71.32
69.36
65.45
59.75
52.67
44.84
37.19
30.61
25.81
23.08
22.29
23.08
24.94
27.4
29.95
32.11
33.26
32.76
30.13
25.34
18.79
11.23
3.42
-4.19
-11.62
-19.16
-27.17
-35.75
-44.59
-53.13
-60.78
-67.17
-72.33
-76.72
-81.04
-86.06
-92.29
-99.62
-107.2
-113.33
-115.84
-112.62
-102.3
-84.71
-61.05
-33.63
-5.23
21.44
44.32
62.2
74.64
81.91
84.73
84.05
80.86
76.0
70.05
63.41
56.39
49.26
42.57
37.0
33.3
31.96
33.1
36.26
40.57
44.93
48.24
49.72
48.9
45.73
40.57
33.96
26.53
18.8
11.0
3.06
-5.35
-14.62
-24.93
-36.02
-47.21
-57.57
-66.34
-73.22
-78.68
-83.88
-90.14
-98.31
-108.12
-117.9
-124.82
-125.85
-118.7
-102.72
-79.13
-50.6
-20.39
8.59
34.25
55.45
71.73
82.96
89.16
90.59
87.76
81.53
73.01
63.35
53.62
44.75
37.44
32.23
29.42
29.02
30.69
33.81
37.62
41.43
44.68
47.01
48.21
48.06
46.36
42.86
37.35
29.79
20.49
9.97
-1.09
-12.1
-22.73
-32.96
-42.9
-52.68
-62.27
-71.49
-80.3
-88.93
-97.67
-106.5
-114.63
-120.16
-120.57
-113.42
-97.45
-73.17
-42.98
-10.41
20.83
47.74
68.59
82.91
91.1
94.07
92.86
88.45
81.66
73.17
63.62
53.59
43.77
34.91
27.79
23.1
21.26
22.28
25.7
30.6
35.83
40.15
42.62
42.69
40.34
35.95
30.09
23.24
15.63
7.21
-2.19
-12.71
-24.23
-36.31
-48.24
-59.18
-68.51
-76.01
-82.07
-87.68
-94.01
-101.95
-111.45
-121.12
-128.38
-130.08
-123.59
-107.64
-82.94
-51.89
-17.98
15.22
44.75
68.69
86.23
97.41
102.89
103.69
100.92
95.62
88.59
80.3
71.06
61.23
51.4
42.42
35.34
31.0
29.75
31.28
34.61
38.39
41.27
42.28
41.07
37.83
33.02
27.04
20.05
11.93
2.46
-8.37
-20.32
-32.8
-45.13
-56.72
-67.22
-76.53
-84.72
-92.03
-98.82
-105.58
-112.74
-120.39
-127.8
-133.29
-134.46
-128.84
-114.81
-92.28
-63.03
-30.09
2.95
33.03
58.16
77.51
91.12
99.44
103.01
102.38
98.24
91.51
83.26
74.63
66.51
59.44
53.66
49.25
46.4
45.4
46.53
49.85
54.89
60.62
65.6
68.51
68.5
65.56
60.4
54.07
47.51
41.12
34.66
27.49
19.03
9.02
-2.23
-13.93
-25.18
-35.28
-44.03
-51.8
-59.33
-67.4
-76.4
-85.92
-94.57
-100.24
-100.66
-94.08
-79.93
-59.11
-33.83
-7.08
18.13
39.41
55.34
65.59
70.62
71.45
69.08
64.37
57.88
50.06
41.42
32.67
24.88
19.07
16.04
16.09
18.86
23.52
29.14
34.88
40.18
44.83
48.61
51.22
52.22
51.09
47.44
41.34
33.19
23.65
13.45
3.1
-7.16
-17.37
-27.63
-38.1
-48.82
-59.8
-71.14
-82.79
-94.44
-105.11
-113.06
-116.08
-112.02
-99.67
-79.35
-53.16
-24.37
3.37
27.12
45.18
57.3
64.23
67.12
67.06
64.79
60.78
55.33
48.85
41.89
35.16
29.43
25.34
23.35
23.52
25.65
29.22
33.47
37.57
40.71
42.18
41.62
38.95
34.37
28.27
20.97
12.68
3.49
-6.5
-17.11
-27.86
-38.05
-47.04
-54.44
-60.4
-65.62
-71.08
-77.57
-85.11
-92.53
-97.53
-97.36
-89.62
-73.38
-49.59
-20.9
9.1
37.06
60.67
79.08
92.51
101.81
107.75
110.76
110.98
108.53
103.8
97.52
90.62
84.04
78.51
74.48
72.17
71.58
72.52
74.52
76.8
78.4
78.42
76.37
72.35
66.94
60.79
54.33
47.4
39.59
30.53
20.28
9.38
-1.27
-10.92
-19.29
-26.68
-33.86
-41.63
-50.57
-60.88
-72.3
-84.11
-95.11
-103.79
-108.38
-107.43
-100.11
-86.59
-68.17
-46.96
-25.48
-6.05
9.54
20.37
26.35
28.12
26.9
24.06
20.89
18.21
16.21
14.61
12.87
10.56
7.6
4.35
1.4
-0.61
-1.28
-0.47
1.64
4.71
8.25
11.77
14.84
17.14
18.48
18.79
18.01
16.05
12.85
8.34
2.68
-3.78
-10.43
-16.61
-21.65
-25.25
-27.49
-28.99
-30.86
-34.18
-39.57
-46.64
-53.7
-58.18
-57.39
-49.65
-35.01
-15.44
5.92
25.76
41.6
52.45
58.53
60.69
59.61
55.47
47.97
36.88
22.66
6.61
-9.24
-22.75
-32.28
-37.16
-37.54
-34.23
-28.3
-21.05
-14.12
-9.5
-9.26
-14.93
-26.96
-44.54
-65.95
-89.37
-113.46
-137.56
-161.49
-184.94
-207.16
-226.99
-243.15
-254.61
-260.99
-262.61
-260.28
-254.89
-247.45
-238.96
-230.5
-223.26
-217.94
-214.39
-211.16
-205.64
-194.86
-176.73
-150.85
-118.58
-82.45
-44.89
-7.49
29.1
64.44
97.66
127.04
150.61
167.13
176.76
181.09
182.49
183.09
183.87
184.44
183.65
180.53
175.2
168.84
163.15
159.3
157.6
157.31
156.8
154.48
149.22
140.94
130.2
118.08
105.6
94.05
84.47
76.79
70.01
62.38
52.5
39.91
25.56
11.32
0.05
-5.69
-4.89
1.89
13.08
27.09
42.67
59.03
75.56
92.61
110.8
130.21
147.79
158.97
160.25
151.63
138.75
123.61
107.22
90.0
71.72
52.77
33.86
16.04
0.37
-12.34
-22.17
-28.7
-31.53
-30.5
-25.99
-18.94
-10.71
-3.02
2.5
4.4
2.84
-1.16
-6.31
-11.87
-17.92
-25.09
-34.25
-46.03
-60.78
-77.63
-95.01
-111.11
-124.37
-133.82
-139.29
-141.49
-141.74
-141.79
-142.96
-146.01
-151.04
-157.37
-163.76
-168.52
-169.91
-166.58
-158.05
-145.01
-129.12
-112.87
-98.61
-88.15
-82.14
-80.31
-81.8
-85.64
-90.99
-96.97
-102.44
-105.91
-105.93
-101.5
-92.54
-80.06
-65.66
-50.99
-36.99
-23.73
-10.61
2.95
16.81
29.74
39.83
45.27
45.29
40.58
32.92
24.5
16.63
9.34
1.65
-7.63
-18.91
-31.45
-43.74
-54.29
-62.28
-67.97
-72.38
-76.81
-82.23
-88.91
-96.14
-102.16
-104.59
-100.86
-89.04
-68.49
-40.06
-5.82
31.45
69.0
104.53
136.22
162.83
183.63
198.5
207.88
212.75
214.24
213.14
209.88
204.36
196.55
186.76
175.97
165.52
156.77
150.52
146.65
144.3
142.16
139.08
134.35
127.87
120.01
111.25
101.98
92.34
82.29
71.7
60.47
48.61
36.33
24.05
12.25
1.48
-7.91
-15.85
-22.66
-29.0
-35.65
-43.28
-52.1
-61.7
-70.85
-77.8
-80.65
-77.89
-68.96
-54.35
-35.42
-14.04
7.9
28.8
47.52
63.21
75.21
83.1
86.69
86.22
82.39
76.31
69.27
62.44
56.58
51.87
48.08
44.8
41.81
39.3
37.81
37.88
39.58
42.37
45.15
46.63
45.94
42.84
37.79
31.58
25.02
18.55
12.22
5.83
-0.94
-8.28
-16.13
-24.26
-32.27
-39.66
-46.02
-51.15
-55.22
-58.81
-62.76
-67.8
-74.1
-80.92
-86.51
-88.49
-84.65
-73.84
-56.51
-34.72
-11.57
9.93
27.64
40.89
50.24
56.82
61.64
65.03
66.62
65.78
62.16
56.03
48.37
40.55
33.74
28.68
25.47
23.81
23.21
23.29
23.81
24.61
25.46
26.06
26.11
25.38
23.82
21.41
18.12
13.92
8.73
2.68
-3.96
-10.63
-16.79
-22.12
-26.67
-30.85
-35.26
-40.36
-46.3
-52.9
-59.68
-66.21
-72.12
-77.05
-80.56
-81.96
-80.37
-74.95
-65.26
-51.52
-34.82
-16.83
0.45
15.19
26.11
32.75
35.48
35.25
33.23
30.38
27.18
23.68
19.64
14.92
9.74
4.71
0.61
-1.81
-2.2
-0.76
1.93
5.03
7.69
9.37
9.95
9.56
8.62
7.46
6.18
4.62
2.41
-0.84
-5.34
-11.02
-17.56
-24.36
-30.82
-36.37
-40.79
-44.33
-47.66
-51.71
-57.11
-63.71
-70.33
-75.04
-75.76
-71.2
-61.41
-47.85
-32.77
-18.37
-6.06
3.78
11.53
17.69
22.52
25.79
27.01
25.86
22.48
17.47
11.72
6.16
1.44
-2.1
-4.45
-5.85
-6.57
-6.88
-6.9
-6.54
-5.67
-4.24
-2.43
-0.76
-0.06
-1.03
-3.91
-8.31
-13.2
-17.35
-19.85
-20.4
-19.35
-17.56
-15.88
-14.85
-14.8
-15.71
-17.45
-19.67
-21.69
-22.41
-20.56
-15.11
-5.78
6.59
20.38
33.72
45.25
54.56
61.93
67.88
72.46
75.26
75.69
73.68
69.9
65.71
62.51
61.16
61.66
63.33
65.32
67.15
68.72
70.16
71.48
72.37
72.18
70.15
65.64
58.15
47.45
33.55
16.76
-2.21
-22.28
-42.4
-61.74
-79.95
-97.22
-113.95
-130.47
-146.81
-162.7
-177.49
-190.24
-199.57
-203.76
-201.15
-190.7
-172.66
-148.79
-122.04
-95.64
-72.09
-52.67
-37.36
-25.44
-16.14
-8.91
-3.54
0.12
2.27
3.18
3.07
2.13
0.45
-1.7
-3.76
-4.9
-4.32
-1.47
3.63
10.42
17.99
25.29
31.5
36.03
38.47
38.53
35.94
30.58
22.55
12.31
0.63
-11.59
-23.49
-34.59
-44.78
-54.33
-63.83
-74.0
-85.5
-98.64
-112.97
-126.99
-138.3
-144.16
-142.42
-132.37
-115.05
-92.79
-68.39
-44.13
-21.29
-0.34
18.62
35.32
49.29
60.04
67.57
72.49
75.88
78.9
82.39
86.79
92.18
98.54
105.99
114.76
125.12
137.06
150.3
164.27
178.28
191.74
204.24
215.51
225.31
233.49
239.95
244.8
248.39
251.18
253.52
255.47
256.8
257.0
255.66
252.31
246.53
237.81
225.68
210.21
192.51
174.8
159.85
150.19
146.94
149.53
155.86
163.12
168.89
171.56
170.46
165.5
156.87
144.84
129.77
112.09
92.2
70.49
47.24
22.71
-2.69
-28.42
-53.8
-78.21
-101.32
-123.04
-143.5
-162.82
-181.14
-198.61
-215.41
-231.9
-248.36
-264.91
-281.5
-297.91
-313.93
-329.61
-345.15
-360.69
-376.13
-390.77
-403.46
-412.97
-418.63
-420.78
-420.92
-421.32
-424.25
-431.18
-441.95
-454.86
-466.81
-474.23
-473.99
-463.86
-443.01
-411.96
-372.34
-326.37
-276.49
-224.78
-172.71
-121.15
-70.84
-22.8
21.14
58.5
86.9
104.86
112.35
111.14
104.02
93.88
82.98
72.47
62.69
53.6
45.19
37.49
30.46
23.54
15.65
5.7
-6.75
-21.05
-35.44
-47.64
-55.93
-59.94
-60.82
-60.87
-62.38
-66.68
-73.66
-82.0
-89.89
-95.9
-99.69
-102.14
-104.71
-108.58
-113.68
-118.28
-119.45
-114.38
-101.65
-82.09
-58.59
-34.79
-13.49
4.09
18.82
32.73
47.85
65.11
84.1
102.98
119.17
130.13
133.79
129.26
117.27
100.26
82.03
67.09
59.5
61.89
74.48
94.88
118.89
141.96
161.09
175.77
187.79
199.63
212.86
226.88
239.03
246.34
246.72
240.23
229.06
215.98
203.3
191.95
181.75
171.75
161.12
149.27
135.78
120.71
104.7
88.83
74.61
63.54
56.59
53.89
54.68
57.4
60.8
64.41
68.8
75.26
84.89
97.69
111.98
124.81
133.17
135.24
131.21
123.37
114.81
108.09
104.32
103.04
102.84
102.3
100.64
97.69
93.97
90.39
87.8
86.97
88.31
91.44
95.27
98.34
99.23
97.38
93.55
89.17
85.95
84.81
85.39
86.13
85.02
80.69
72.94
62.93
52.66
43.81
36.99
31.58
26.07
19.0
9.7
-1.39
-12.95
-23.29
-31.07
-35.71
-37.46
-37.16
-36.02
-35.21
-35.22
-35.76
-35.52
-32.46
-24.72
-11.29
7.35
29.2
51.38
71.04
86.08
95.35
98.54
95.74
87.01
72.36
51.83
25.9
-4.29
-36.85
-69.48
-99.8
-125.89
-146.56
-161.26
-170.04
-173.35
-171.79
-166.21
-157.54
-146.73
-134.78
-122.34
-109.81
-97.41
-85.36
-73.97
-63.53
-54.05
-45.01
-35.58
-24.95
-12.83
0.39
13.8
26.5
38.01
48.43
58.11
67.14
74.92
80.32
82.12
79.74
73.63
65.15
56.13
48.27
42.75
39.98
39.76
41.3
43.6
45.58
46.29
45.12
41.94
37.07
31.13
24.72
18.23
11.73
5.18
-1.5
-8.22
-14.74
-20.94
-26.86
-32.79
-39.06
-45.99
-53.63
-61.86
-70.45
-79.18
-87.63
-95.17
-100.72
-102.85
-100.27
-92.33
-79.41
-62.96
-45.06
-27.85
-12.9
-1.0
7.86
14.13
18.29
20.7
21.44
20.56
18.21
14.75
10.82
7.13
4.28
2.53
1.79
1.73
1.98
2.37
2.9
3.66
4.61
5.43
5.67
4.83
2.63
-0.94
-5.66
-11.23
-17.41
-24.04
-30.99
-38.0
-44.77
-51.02
-56.63
-61.91
-67.44
-73.74
-80.82
-87.82
-93.01
-94.31
-90.0
-79.46
-63.49
-44.1
-23.72
-4.56
11.96
25.37
35.74
43.37
48.47
51.13
51.44
49.68
46.37
42.12
37.65
33.51
30.08
27.6
26.19
25.88
26.55
27.94
29.57
30.93
31.55
31.22
30.01
28.06
25.49
22.17
17.8
12.06
4.98
-3.03
-11.1
-18.28
-23.96
-28.06
-31.2
-34.34
-38.54
-44.3
-51.49
-59.09
-65.45
-68.86
-67.93
-62.04
-51.48
-37.3
-20.96
-4.06
11.94
25.97
37.22
45.34
50.33
52.55
52.5
50.7
47.6
43.42
38.5
33.35
28.67
25.24
23.61
23.8
25.29
27.27
28.86
29.63
29.56
29.02
28.39
27.78
26.93
25.32
22.39
17.85
11.83
4.82
-2.54
-9.7
-16.37
-22.49
-28.16
-33.54
-38.88
-44.24
-49.7
-55.09
-59.72
-62.49
-62.04
-57.23
-47.61
-33.85
-17.6
-1.2
13.19
24.18
31.42
35.53
37.58
38.47
38.58
37.71
35.43
31.54
26.42
20.94
16.16
12.95
11.55
11.69
12.69
13.81
14.54
14.66
14.16
13.22
12.02
10.68
9.21
7.48
5.2
2.08
-2.23
-7.81
-14.38
-21.38
-28.05
-33.7
-37.97
-41.12
-43.93
-47.49
-52.66
-59.61
-67.55
-74.79
-79.28
-79.31
-74.17
-64.39
-51.44
-37.13
-22.99
-9.87
1.93
12.5
21.82
29.66
35.63
39.3
40.51
39.41
36.49
32.45
28.07
24.07
20.95
18.98
18.16
18.33
19.18
20.35
21.49
22.29
22.52
22.05
20.82
18.65
15.41
10.93
5.18
-1.59
-8.81
-15.82
-22.14
-27.56
-32.42
-37.27
-42.58
-48.51
-54.83
-61.1
-66.95
-72.23
-76.92
-80.86
-83.51
-83.93
-80.96
-73.76
-62.23
-47.1
-29.86
-12.37
3.66
16.97
26.91
33.42
36.87
37.8
36.85
34.63
31.6
28.19
24.72
21.48
18.68
16.5
15.07
14.46
14.71
15.72
17.31
19.12
20.66
21.36
20.79
18.79
15.56
11.52
7.16
2.76
-1.69
-6.46
-11.82
-17.86
-24.33
-30.79
-36.76
-42.02
-46.66
-51.1
-55.92
-61.63
-68.42
-76.05
-83.62
-89.75
-92.79
-91.16
-84.0
-71.37
-54.37
-34.82
-14.84
3.62
19.23
31.3
39.84
45.2
47.94
48.55
47.5
45.14
41.86
38.17
34.58
31.59
29.59
28.73
29.04
30.42
32.73
35.66
38.81
41.51
43.02
42.74
40.43
36.41
31.3
25.83
20.44
15.13
9.51
3.06
-4.43
-12.78
-21.33
-29.27
-36.07
-41.71
-46.79
-52.22
-58.76
-66.51
-74.64
-81.44
-84.8
-82.84
-74.65
-60.52
-41.91
-21.0
-0.09
18.96
34.97
47.46
56.39
61.98
64.56
64.57
62.52
58.95
54.37
49.25
44.1
39.49
36.12
34.59
35.13
37.59
41.18
44.9
47.79
49.31
49.36
48.24
46.25
43.5
39.9
35.16
29.13
21.81
13.46
4.59
-4.31
-12.93
-21.15
-29.02
-36.66
-44.0
-51.0
-57.7
-64.22
-70.9
-77.81
-84.46
-89.48
-91.01
-87.11
-76.72
-60.25
-39.32
-16.45
5.91
25.96
42.78
55.99
65.55
71.43
73.61
72.43
68.53
62.99
56.97
51.33
46.52
42.56
39.28
36.63
34.88
34.47
35.78
38.78
42.78
46.62
49.1
49.4
47.34
43.42
38.27
32.39
25.91
18.62
10.38
1.32
-8.07
-17.18
-25.54
-33.09
-40.09
-46.78
-53.29
-59.56
-65.49
-71.18
-76.73
-82.07
-86.51
-88.7
-86.82
-79.34
-65.64
-46.46
-23.84
-0.47
21.08
38.95
52.32
61.3
66.54
68.78
68.62
66.49
62.67
57.6
51.86
46.14
41.08
37.17
34.67
33.73
34.41
36.65
40.16
44.29
48.05
50.31
50.22
47.6
42.98
37.43
32.02
27.31
23.12
18.63
12.85
5.18
-4.18
-14.36
-24.08
-32.39
-38.97
-44.29
-49.2
-54.49
-60.55
-67.19
-73.82
-79.58
-83.52
-84.61
-81.84
-74.47
-62.2
-45.62
-26.14
-5.73
13.53
30.01
42.82
51.73
56.93
58.81
57.74
54.17
48.73
42.26
35.77
30.23
26.34
24.27
23.82
24.43
25.62
27.16
29.09
31.59
34.62
37.72
39.94
40.21
37.79
32.65
25.6
17.85
10.59
4.31
-1.23
-6.87
-13.45
-21.34
-30.14
-38.89
-46.51
-52.32
-56.46
-59.74
-63.24
-67.74
-73.15
-78.33
-81.41
-80.41
-73.92
-61.62
-44.43
-24.16
-3.07
16.66
33.35
45.95
54.16
58.25
59.03
57.48
54.55
50.9
46.9
42.58
37.95
33.2
28.7
25.02
22.77
22.18
23.15
25.12
27.35
29.1
29.89
29.52
28.12
25.89
22.95
19.34
14.91
9.67
3.65
-2.95
-9.8
-16.58
-23.15
-29.43
-35.46
-41.28
-46.83
-52.04
-56.99
-61.97
-67.35
-73.28
-79.25
-83.93
-85.5
-82.2
-73.16
-58.83
-40.83
-21.43
-2.82
13.52
26.9
37.14
44.38
48.74
50.42
49.75
47.21
43.42
38.97
34.31
29.72
25.52
22.05
19.79
19.15
20.28
22.89
26.18
29.09
30.64
30.35
28.26
24.98
21.26
17.57
14.01
10.17
5.46
-0.54
-7.72
-15.6
-23.36
-30.36
-36.35
-41.49
-46.25
-51.18
-56.71
-62.97
-69.79
-76.63
-82.58
-86.4
-86.71
-82.41
-72.96
-58.71
-40.87
-21.21
-1.7
15.94
30.56
41.62
49.06
53.09
54.0
52.08
47.71
41.56
34.56
27.87
22.58
19.39
18.36
19.02
20.58
22.39
24.16
25.97
27.96
30.12
32.08
33.14
32.61
30.1
25.75
20.14
14.09
8.16
2.46
-3.28
-9.56
-16.67
-24.39
-32.18
-39.36
-45.54
-50.96
-56.27
-62.1
-68.43
-74.32
-78.05
-77.75
-72.14
-61.08
-45.53
-27.28
-8.24
9.93
26.0
39.07
48.52
53.98
55.49
53.63
49.36
43.86
38.24
33.17
28.96
25.6
23.06
21.36
20.64
21.08
22.72
25.33
28.36
31.03
32.59
32.5
30.6
27.09
22.37
16.77
10.47
3.53
-3.97
-11.83
-19.71
-27.3
-34.36
-40.96
-47.24
-53.47
-59.76
-66.1
-72.37
-78.22
-83.1
-86.16
-86.31
-82.44
-73.79
-60.22
-42.44
-22.04
-1.08
18.24
34.15
45.67
52.69
55.87
56.24
54.79
52.19
48.71
44.39
39.35
33.94
28.81
24.75
22.43
22.09
23.52
26.1
29.05
31.59
33.2
33.52
32.4
29.9
26.12
21.33
15.89
9.98
3.63
-3.31
-11.11
-19.79
-28.87
-37.54
-44.79
-49.96
-53.18
-55.46
-58.26
-62.91
-69.81
-77.99
-85.25
-88.8
-86.26
-76.58
-60.43
-39.94
-17.97
2.83
20.67
34.86
45.47
52.93
57.59
59.56
58.91
55.85
50.86
44.73
38.35
32.56
27.98
24.93
23.53
23.63
24.97
27.04
29.28
31.15
32.28
32.59
32.2
31.27
29.82
27.6
24.12
18.99
12.19
4.14
-4.26
-12.11
-18.9
-24.59
-29.7
-34.88
-40.57
-46.79
-53.34
-59.87
-66.19
-72.16
-77.4
-81.02
-81.62
-77.59
-67.85
-52.45
-32.71
-10.96
10.21
28.68
43.22
53.46
59.63
62.25
61.87
59.16
54.9
49.92
45.01
40.65
37.05
34.19
31.99
30.45
29.72
29.98
31.34
33.66
36.49
39.16
40.9
41.09
39.4
35.92
31.04
25.33
19.2
