-31.55
-36.07
-40.78
-45.84
-51.3
-57.05
-62.54
-66.79
-68.54
-66.61
-60.49
-50.48
-37.75
-23.88
-10.37
1.69
11.8
19.78
25.71
29.69
31.9
32.55
31.97
30.46
28.3
25.68
22.75
19.78
17.14
15.29
14.52
14.86
16.1
17.77
19.46
20.79
21.52
21.54
20.8
19.32
17.11
14.3
10.96
7.2
3.07
-1.39
-6.07
-10.85
-15.55
-20.04
-24.23
-28.17
-32.01
-36.04
-40.6
-45.9
-51.81
-57.64
-62.23
-64.13
-62.11
-55.66
-45.28
-32.32
-18.54
-5.55
5.6
14.59
21.53
26.7
30.34
32.53
33.21
32.42
30.32
27.24
23.76
20.42
17.78
16.17
15.67
16.04
16.9
17.88
18.77
19.57
20.29
20.88
21.16
20.84
19.68
17.64
14.87
11.63
8.11
4.32
0.13
-4.57
-9.83
-15.44
-21.08
-26.46
-31.48
-36.39
-41.67
-47.91
-55.4
-63.82
-72.11
-78.59
-81.47
-79.48
-72.3
-60.7
-46.23
-30.59
-15.21
-0.99
11.53
22.06
30.22
35.78
38.61
38.98
37.5
34.94
32.08
29.44
27.26
25.48
23.94
22.51
21.21
20.3
20.13
21.03
22.96
25.47
27.78
28.94
28.36
25.94
22.18
17.8
13.53
9.69
6.1
2.21
-2.59
-8.64
-15.77
-23.32
-30.44
-36.4
-41.04
-44.96
-49.29
-55.16
-62.99
-71.96
-80.1
-84.82
-83.88
-76.27
-62.59
-44.79
-25.46
-6.9
9.39
22.78
33.4
41.57
47.62
51.73
54.03
54.59
53.56
51.11
47.5
43.18
38.63
34.46
31.29
29.56
29.39
30.48
32.23
33.8
34.48
33.89
32.07
29.44
26.56
23.82
21.26
18.55
15.11
10.51
4.6
-2.25
-9.37
-16.04
-21.78
-26.49
-30.55
-34.6
-39.38
-45.47
-53.03
-61.66
-70.39
-77.75
-82.07
-81.9
-76.45
-65.88
-51.24
-34.19
-16.48
0.41
15.56
28.52
39.14
47.35
52.97
55.85
55.99
53.71
49.75
45.09
40.63
36.97
34.25
32.29
30.82
29.77
29.32
29.79
31.26
33.48
35.76
37.31
37.51
36.14
33.42
29.73
25.47
20.79
15.68
10.01
3.82
-2.71
-9.29
-15.59
-21.46
-26.93
-32.23
-37.66
-43.53
-49.97
-56.78
-63.38
-68.73
-71.57
-70.64
-65.03
-54.52
-39.7
-21.97
-3.22
14.55
29.69
41.18
48.8
52.98
54.51
54.19
52.56
49.86
46.09
41.38
36.13
31.03
26.86
24.25
23.42
24.16
25.87
27.75
29.09
29.45
28.7
27.11
25.01
22.67
20.13
17.11
13.19
8.11
1.96
-4.81
-11.54
-17.75
-23.23
-28.2
-33.03
-38.03
-43.36
-49.03
-54.99
-61.21
-67.45
-73.14
-77.19
-78.16
-74.72
-66.21
-52.89
-36.03
-17.53
0.57
16.59
29.4
38.57
44.33
47.3
48.4
48.5
48.21
47.69
46.76
45.04
42.36
38.91
35.22
32.07
30.17
29.87
31.09
33.3
35.66
37.32
37.67
36.5
34.04
30.79
27.21
23.54
19.72
15.44
10.45
4.67
-1.66
-8.05
-14.04
-19.31
-23.81
-27.8
-31.78
-36.32
-41.91
-48.72
-56.27
-63.46
-68.62
-70.04
-66.51
-57.86
-45.02
-29.78
-14.22
0.02
11.97
21.34
28.32
33.2
36.19
37.35
36.7
34.23
30.15
24.8
18.77
12.77
7.45
3.26
0.35
-1.49
-2.7
-3.62
-4.4
-4.93
-5.01
-4.52
-3.51
-2.3
-1.27
-0.79
-1.01
-1.97
-3.56
-5.58
-7.85
-10.23
-12.58
-14.81
-16.91
-18.92
-20.86
-22.82
-24.84
-27.06
-29.66
-32.75
-36.08
-38.94
-40.15
-38.27
-32.09
-21.09
-5.67
12.86
32.61
51.6
68.07
80.79
89.18
93.38
94.11
92.47
89.61
86.42
83.35
80.41
77.36
73.99
70.19
66.1
61.95
57.99
54.4
51.25
48.47
45.82
42.96
39.44
34.99
29.56
23.32
16.58
9.69
2.85
-3.79
-10.03
-15.68
-20.58
-24.75
-28.51
-32.36
-36.73
-41.77
-47.25
-52.73
-57.65
-61.46
-63.53
-63.12
-59.36
-51.46
-39.09
-22.67
-3.45
16.83
36.29
53.37
67.03
76.76
82.52
84.69
83.99
81.45
78.21
75.11
72.27
68.84
63.15
53.29
37.94
17.21
-7.19
-32.25
-54.59
-71.43
-81.21
-83.88
-80.6
-73.27
-63.88
-54.23
-45.63
-38.85
-34.22
-31.8
-31.57
-33.43
-37.12
-41.96
-46.91
-50.88
-53.33
-54.78
-56.84
-61.86
-71.79
-87.29
-107.19
-128.84
-149.02
-165.2
-176.39
-183.27
-187.81
-192.11
-197.45
-203.65
-209.26
-212.27
-211.05
-205.32
-196.2
-185.89
-176.65
-169.71
-164.43
-158.25
-147.51
-128.97
-101.38
-66.11
-27.18
10.3
41.59
63.76
76.29
80.66
79.41
74.77
68.06
59.39
47.99
32.84
13.6
-8.95
-32.69
-54.7
-72.11
-82.79
-85.84
-81.53
-70.93
-55.57
-37.15
-17.41
2.13
20.51
37.53
53.83
70.52
88.59
108.36
129.43
150.87
171.89
192.23
212.19
232.29
252.89
274.04
295.06
314.95
332.54
346.78
356.91
362.56
363.8
361.16
355.6
348.26
340.35
332.61
325.1
317.07
307.27
294.46
277.86
257.6
234.49
209.76
184.5
159.38
134.63
110.44
87.24
65.85
47.18
31.75
19.27
8.55
-2.29
-15.3
-32.32
-54.43
-81.61
-112.31
-143.49
-171.03
-190.8
-200.16
-198.85
-189.34
-175.73
-162.46
-152.73
-148.02
-148.21
-152.32
-159.27
-167.94
-177.28
-186.08
-193.14
-197.52
-199.0
-198.03
-195.64
-193.0
-190.86
-189.17
-187.06
-183.0
-175.5
-163.86
-148.63
-131.63
-115.51
-102.68
-94.57
-91.14
-90.82
-91.34
-90.45
-86.78
-79.97
-70.68
-59.83
-48.15
-35.85
-22.72
-8.74
5.66
19.44
31.55
41.64
50.61
60.38
73.13
90.29
111.71
135.69
159.45
180.01
195.0
203.44
205.81
204.13
201.29
200.06
202.32
208.17
215.96
222.84
225.93
223.1
213.52
197.67
176.94
153.34
129.18
106.88
88.52
75.4
67.58
63.75
61.49
57.96
50.61
37.83
19.39
-3.53
-28.59
-52.86
-73.8
-90.04
-101.92
-111.3
-120.54
-131.35
-143.91
-156.98
-168.59
-177.37
-183.29
-187.7
-192.26
-197.86
-203.76
-207.81
-207.48
-201.0
-188.46
-171.73
-153.92
-138.33
-127.48
-122.52
-123.09
-127.48
-133.18
-137.6
-138.71
-135.61
-128.59
-118.76
-107.54
-96.08
-84.91
-74.19
-63.86
-54.07
-45.03
-37.11
-30.51
-25.13
-20.66
-16.67
-12.76
-8.84
-5.08
-1.72
0.96
2.96
4.48
5.81
7.05
8.19
9.0
9.28
9.06
8.43
7.47
6.02
3.87
0.98
-2.04
-3.99
-3.35
1.06
9.56
21.38
35.04
48.8
61.1
70.99
78.05
82.43
84.62
85.29
85.09
84.36
83.11
81.02
77.94
74.19
70.77
68.91
69.59
72.99
78.21
83.75
88.19
90.79
91.87
92.51
93.84
96.52
100.55
105.17
109.49
112.74
114.58
115.32
115.73
116.82
119.21
122.84
126.72
129.18
128.49
123.71
115.19
104.48
93.78
84.81
78.21
73.28
68.46
62.16
53.45
42.47
30.06
17.4
5.43
-5.53
-15.75
-25.83
-36.3
-47.35
-58.38
-68.51
-76.67
-82.05
-84.47
-84.35
-82.48
-79.7
-76.8
-74.32
-72.62
-72.02
-72.6
-74.28
-76.83
-80.0
-83.5
-87.33
-91.44
-95.88
-100.62
-105.46
-110.18
-114.55
-118.58
-122.38
-126.25
-130.35
-134.6
-138.26
-140.1
-138.54
-132.13
-120.27
-103.49
-83.36
-62.01
-41.51
-23.42
-8.45
3.23
11.97
18.31
22.77
25.76
27.62
28.64
28.99
28.91
28.45
27.72
26.82
25.96
25.63
26.39
28.76
32.77
37.66
41.88
43.62
41.38
34.7
24.3
11.92
-0.42
-11.21
-19.94
-27.35
-34.93
-44.38
-56.8
-72.35
-90.28
-109.03
-126.71
-141.46
-151.76
-156.54
-155.18
-147.61
-134.21
-116.14
-94.97
-72.7
-51.35
-32.56
-17.32
-5.86
2.25
7.91
12.04
15.32
18.08
20.22
21.48
21.58
20.51
18.52
16.25
14.49
13.87
14.7
16.82
19.69
22.42
24.11
24.06
21.73
17.15
10.71
3.16
-4.56
-11.53
-17.15
-21.24
-24.05
-26.36
-29.05
-33.07
-38.94
-46.53
-54.87
-62.3
-66.98
-67.46
-63.18
-54.62
-43.16
-30.22
-16.93
-3.73
9.61
23.35
37.23
50.08
60.22
65.79
66.11
61.97
55.45
49.25
45.48
44.68
45.81
46.9
46.02
42.55
37.43
32.58
30.11
31.01
34.81
39.66
43.27
43.87
41.04
35.68
29.59
24.44
20.95
18.79
16.73
13.43
7.95
0.26
-9.02
-18.86
-27.98
-35.39
-40.18
-41.69
-39.47
-33.49
-24.08
-12.23
0.79
13.76
25.52
35.42
43.08
48.39
51.17
51.34
48.97
44.41
38.48
32.24
26.66
22.3
19.2
16.93
14.95
12.91
10.77
8.74
7.13
6.18
5.85
5.87
5.72
4.84
2.84
-0.49
-4.97
-10.17
-15.4
-20.05
-23.84
-26.87
-29.59
-32.51
-36.15
-40.51
-45.4
-50.12
-53.69
-55.03
-53.08
-47.18
-37.29
-24.13
-9.0
6.34
20.27
31.65
40.0
45.45
48.49
49.69
49.42
47.92
45.1
40.98
35.78
30.06
24.68
20.49
18.07
17.32
17.53
17.69
16.98
15.27
13.0
10.98
9.68
9.1
8.61
7.29
4.45
-0.13
-6.12
-12.81
-19.28
-24.99
-29.79
-34.06
-38.6
-44.17
-51.13
-59.16
-67.16
-73.43
-76.47
-75.34
-69.98
-61.18
-50.16
-38.28
-26.59
-15.99
-7.05
-0.26
3.89
5.19
3.82
0.46
-3.92
-8.29
-11.93
-14.78
-17.13
-19.49
-21.97
-24.12
-24.94
-23.43
-19.14
-12.59
-5.19
1.23
5.36
6.84
6.43
5.57
5.64
7.22
9.91
12.41
13.25
11.35
6.64
-0.05
-7.33
-13.87
-19.05
-23.06
-26.86
-31.45
-37.32
-43.87
-49.34
-51.41
-48.05
-38.35
-22.98
-4.08
15.49
33.01
46.72
56.19
62.18
65.93
68.57
70.61
71.86
71.75
69.76
65.78
60.24
54.01
48.19
43.68
41.08
40.51
41.47
43.0
43.76
42.48
38.38
31.55
22.79
13.25
3.9
-5.02
-14.15
-24.59
-37.48
-53.19
-71.19
-90.15
-108.59
-125.39
-140.1
-152.8
-163.64
-172.56
-179.08
-182.54
-182.4
-178.46
-170.91
-160.05
-146.18
-129.66
-111.01
-90.85
-69.76
-48.03
-25.68
-3.04
18.89
38.24
52.82
61.09
63.1
60.44
55.67
51.25
48.47
47.48
47.65
48.36
49.46
51.22
54.04
58.06
63.14
68.83
74.49
79.33
82.5
83.03
79.9
72.14
59.02
40.44
17.19
-9.07
-36.25
-62.55
-87.07
-110.04
-132.08
-153.19
-171.98
-185.48
-190.18
-183.65
-165.76
-139.15
-108.56
-79.13
-54.76
-37.16
-25.66
-18.09
-12.01
-5.8
1.01
7.9
14.11
19.13
22.88
25.64
27.66
29.17
30.54
32.47
35.92
41.68
49.89
59.77
69.87
78.7
85.39
89.86
92.55
93.84
93.68
91.65
87.41
81.17
73.74
66.2
59.25
52.7
45.43
35.95
23.17
7.11
-10.87
-28.36
-42.52
-50.83
-51.62
-44.21
-28.87
-6.69
20.48
50.19
79.67
106.2
127.75
143.32
152.97
157.51
157.96
155.1
149.44
141.47
131.87
121.83
112.78
106.02
102.3
101.61
103.2
105.92
108.6
110.37
110.83
110.0
108.04
105.14
101.28
96.25
89.82
81.9
72.62
62.37
51.65
40.88
30.24
19.63
8.76
-2.8
-15.52
-29.72
-45.52
-62.52
-79.64
-94.95
-105.94
-109.98
-105.11
-90.73
-68.0
-39.7
-9.43
19.28
43.88
63.11
77.01
86.28
91.79
94.23
93.99
91.5
87.29
82.22
77.17
72.9
69.85
68.09
67.43
67.54
68.15
69.41
71.41
73.99
76.32
77.95
78.46
77.48
74.49
69.11
61.66
52.82
43.41
33.73
24.33
15.56
7.55
0.03
-7.32
-13.88
-19.25
-23.78
-29.25
-36.12
-43.69
-50.04
-52.93
-50.16
-37.85
-14.3
18.7
53.99
86.72
113.92
134.65
148.51
155.98
163.39
175.67
193.75
209.73
221.14
228.24
233.18
236.62
238.46
246.53
265.94
295.68
321.73
339.79
350.89
359.64
368.37
377.92
398.82
437.28
490.86
539.46
575.32
597.81
611.78
620.3
557.88
393.06
143.18
-72.45
-229.36
-331.5
-406.45
-462.62
-504.95
-537.02
-550.82
-541.09
-509.76
-475.35
-444.11
-416.37
-388.98
-362.53
-339.54
-314.51
-283.75
-248.39
-221.5
-205.9
-199.15
-195.76
-193.06
-190.32
-182.63
-167.19
-145.01
-125.18
-110.73
-101.32
-94.47
-88.98
-84.27
-77.59
-67.1
-53.02
-39.81
-29.18
-21.28
-15.29
-10.99
-8.48
-7.08
-6.33
-6.28
-8.15
-11.81
-16.26
-20.0
-21.8
-20.93
-17.21
-11.12
-3.65
3.91
10.2
14.23
15.53
14.31
11.48
8.4
6.47
6.61
8.87
12.42
15.94
18.31
19.18
19.17
19.45
20.96
23.79
27.0
29.06
28.99
26.79
23.72
21.6
21.78
24.46
28.53
32.24
34.11
33.55
30.99
27.25
22.98
18.01
11.65
3.03
-8.28
-21.99
-37.16
-52.45
-66.56
-78.5
-87.97
-95.28
-101.37
-107.39
-114.38
-122.72
-131.9
-140.6
-147.16
-150.41
-150.02
-146.71
-141.79
-136.46
-131.17
-125.46
-118.36
-108.88
-96.76
-82.76
-68.33
-55.22
-44.78
-37.61
-33.4
-31.27
-30.17
-29.22
-28.07
-26.74
-25.51
-24.68
-24.37
-24.44
-24.61
-24.49
-23.74
-22.26
-20.19
-17.96
-16.08
-15.01
-14.91
-15.63
-16.74
-17.8
-18.49
-18.73
-18.59
-18.25
-17.98
-18.07
-18.72
-19.97
-21.51
-22.75
-23.21
-23.01
-23.08
-25.11
-30.84
-41.21
-55.88
-72.97
-89.69
-103.08
-111.02
-112.6
-108.41
-99.96
-89.25
-78.13
-67.81
-58.82
-50.98
-44.06
-37.91
-32.71
-28.68
-25.76
-23.44
-20.9
-17.35
-12.4
-6.12
1.07
8.73
16.59
24.43
31.89
38.4
43.16
45.53
45.33
42.92
39.0
34.25
29.07
23.52
17.58
11.22
4.76
-1.36
-6.57
-10.47
-13.03
-14.56
-15.75
-17.33
-20.03
-24.18
-29.66
-35.74
-41.28
-44.88
-45.09
-40.96
-32.19
-19.41
-4.07
11.96
26.98
39.87
50.28
58.53
65.02
69.97
73.21
74.3
72.88
68.94
62.92
55.5
47.5
39.57
32.11
25.37
19.49
14.56
10.65
7.75
5.65
3.98
2.25
0.01
-3.02
-6.95
-11.65
-16.9
-22.42
-28.03
-33.63
-39.16
-44.54
-49.67
-54.5
-59.11
-63.78
-69.03
-75.41
-83.39
-93.06
-103.87
-114.49
-123.0
-127.27
-125.59
-117.31
-103.05
-84.52
-63.98
-43.46
-24.32
-7.21
7.64
20.04
29.56
35.78
38.53
38.22
35.79
32.48
29.29
26.74
24.81
23.23
21.84
20.81
20.65
21.81
24.48
28.26
32.33
35.71
37.61
37.62
35.75
32.32
27.78
22.55
16.96
11.19
5.28
-0.87
-7.39
-14.37
-21.8
-29.65
-37.93
-46.67
-55.78
-64.68
-72.22
-76.64
-76.07
-69.27
-56.12
-37.9
-16.86
4.38
23.64
39.6
51.9
60.88
67.17
71.33
73.64
74.11
72.71
69.51
64.94
59.7
54.65
50.5
47.62
45.94
45.09
44.66
44.35
44.09
43.98
44.02
44.0
43.5
41.98
39.07
34.76
29.42
23.57
17.67
11.88
6.02
-0.21
-7.03
-14.46
-22.35
-30.59
-39.22
-48.32
-57.71
-66.57
-73.3
-75.77
-72.12
-61.39
-44.1
-22.19
1.63
24.59
44.63
60.75
72.87
81.56
87.5
91.28
93.2
93.36
91.71
88.31
83.45
77.74
72.06
67.33
64.23
62.97
63.29
64.55
66.07
67.34
68.06
68.16
67.56
66.14
63.66
59.94
54.89
48.6
41.39
33.66
25.88
18.46
11.59
5.31
-0.6
-6.53
-12.98
-20.32
-28.6
-37.25
-45.02
-50.07
-50.45
-44.73
-32.52
-14.75
6.56
28.85
49.73
67.51
81.38
91.22
97.26
99.82
99.29
96.07
90.71
83.86
76.14
68.05
59.88
51.66
43.28
34.58
25.34
15.35
4.5
-7.21
-19.49
-31.79
-43.45
-53.85
-62.72
-70.2
-76.72
-82.83
-88.94
-95.12
-101.1
-106.41
-110.57
-113.35
-115.0
-116.13
-117.67
-120.53
-125.32
-132.12
-140.37
-148.85
-155.96
-159.93
-159.24
-153.06
-141.46
-125.5
-106.91
-87.63
-69.24
-52.66
-38.16
-25.57
-14.69
-5.44
2.07
7.78
11.83
14.7
17.06
19.67
23.04
27.35
32.43
37.91
43.37
48.55
53.39
57.98
62.43
66.79
70.91
74.56
77.44
79.32
80.12
79.9
78.85
77.17
75.03
72.54
69.7
66.58
63.28
59.99
56.84
53.9
51.06
48.25
45.59
43.53
42.9
44.71
49.85
58.77
71.31
86.62
103.38
119.92
134.6
146.05
153.39
156.38
155.37
151.16
144.66
136.75
128.05
118.96
109.75
100.64
91.87
83.74
76.5
70.33
65.16
60.75
56.71
52.59
48.02
42.92
37.37
31.62
25.89
20.2
14.38
8.19
1.48
-5.7
-13.03
-20.13
-26.66
-32.51
-37.78
-42.76
-47.84
-53.4
-59.76
-66.95
-74.65
-82.07
-87.99
-91.08
-90.22
-84.88
-75.29
-62.43
-47.77
-32.91
-19.34
-8.07
0.42
6.13
9.47
11.04
11.35
10.76
9.4
7.34
4.7
1.85
-0.69
-2.39
-2.91
-2.41
-1.41
-0.61
-0.57
-1.41
-2.85
-4.32
-5.32
-5.69
-5.69
-5.91
-6.93
-9.13
-12.45
-16.5
-20.75
-24.76
-28.42
-31.82
-35.16
-38.59
-42.12
-45.65
-49.22
-53.01
-57.23
-61.78
-66.05
-68.89
-68.92
-65.2
-57.58
-46.89
-34.51
-21.88
-10.03
0.58
9.83
17.68
23.98
28.55
31.37
32.65
32.79
32.16
30.96
29.15
26.63
23.47
20.02
16.8
14.35
12.93
12.51
12.8
13.42
14.01
14.25
13.93
12.87
10.88
7.85
3.74
-1.33
-7.09
-13.2
-19.31
-25.14
-30.62
-35.86
-41.02
-46.26
-51.48
-56.36
-60.59
-64.08
-67.08
-70.11
-73.57
-77.33
-80.53
-81.84
-79.88
-73.91
-64.17
-51.77
-38.32
-25.44
-14.29
-5.49
0.88
5.11
7.73
9.31
10.36
11.23
11.99
12.55
12.74
12.49
11.89
11.14
10.55
10.32
10.59
11.34
12.44
13.68
14.79
15.46
15.44
14.67
13.18
11.12
8.59
5.63
2.19
-1.71
-5.89
-9.98
-13.57
-16.4
-18.51
-20.32
-22.43
-25.37
-29.44
-34.54
-40.2
-45.6
-49.77
-51.76
-50.8
-46.54
-39.12
-29.29
-18.15
-6.95
3.28
11.89
18.77
24.18
28.57
32.29
35.4
37.68
38.78
38.44
36.7
34.06
31.24
29.02
27.96
28.14
29.3
30.92
32.44
33.5
34.02
34.09
33.85
33.41
32.72
31.64
29.97
27.57
24.37
20.44
15.98
11.22
6.46
1.94
-2.17
-5.86
-9.29
-12.87
-17.2
-22.98
-30.76
-40.62
-51.92
-63.2
-72.59
-78.27
-79.13
-75.13
-67.27
-57.17
-46.55
-36.73
-28.3
-21.23
-15.08
-9.3
-3.64
1.8
6.57
10.09
12.0
12.35
11.64
10.61
9.95
10.04
10.97
12.66
14.99
17.85
21.01
24.02
26.18
26.75
25.24
21.71
16.76
11.37
6.47
2.57
-0.38
-2.91
-5.77
-9.53
-14.33
-19.95
-25.93
-31.83
-37.56
-43.32
-49.53
-56.53
-64.23
-71.92
-78.43
-82.35
-82.59
-78.76
-71.29
-61.29
-50.08
-38.81
-28.19
-18.54
-9.91
-2.36
3.98
8.99
12.65
15.02
16.26
16.45
15.57
13.64
10.85
7.76
5.23
4.23
5.49
9.22
14.98
21.83
28.57
34.13
37.85
39.61
39.7
38.61
36.77
34.38
31.37
27.57
22.84
17.27
11.25
5.31
-0.07
-4.64
-8.61
-12.56
-17.18
-23.04
-30.31
-38.57
-46.95
-54.23
-59.09
-60.49
-57.81
-51.08
-40.93
-28.45
-14.92
-1.57
10.68
21.19
29.65
35.91
39.94
41.8
41.68
39.96
37.25
34.24
31.57
29.69
28.71
28.48
28.69
29.04
29.42
29.93
30.72
31.86
33.13
34.14
34.43
33.64
31.7
28.7
24.9
20.56
15.81
10.74
5.37
-0.17
-5.71
-11.03
-15.95
-20.45
-24.74
-29.17
-34.16
-39.94
-46.37
-52.75
-57.93
-60.52
-59.37
-53.94
-44.5
-32.03
-17.94
-3.62
9.83
21.69
31.6
39.36
44.89
48.15
49.34
48.8
47.04
44.66
42.17
39.9
37.99
36.41
35.11
34.09
33.53
33.64
34.53
36.03
37.69
38.89
39.03
37.79
35.22
31.64
27.48
23.09
18.59
13.95
9.1
4.01
-1.23
-6.44
-11.46
-16.2
-20.69
-25.1
-29.75
-35.0
-41.08
-47.91
-54.91
-61.04
-65.0
-65.56
-62.0
-54.36
-43.42
-30.41
-16.68
-3.37
8.78
19.3
27.94
34.49
38.87
41.13
41.62
40.83
39.35
37.68
36.09
34.62
33.19
31.76
30.45
29.55
29.39
30.09
31.56
33.38
35.01
35.93
35.8
34.5
32.14
28.96
25.25
21.22
16.94
12.38
7.41
1.93
-4.01
-10.18
-16.16
-21.57
-26.17
-30.05
-33.58
-37.31
-41.7
-46.87
-52.48
-57.67
-61.24
-61.92
-58.78
-51.54
-40.71
-27.49
-13.51
-0.37
10.73
19.17
24.97
28.52
30.4
31.17
31.17
30.62
29.63
28.3
26.74
25.14
23.75
22.81
22.48
22.78
23.65
24.92
26.37
27.75
28.76
29.07
28.43
26.68
23.89
20.34
16.41
12.49
8.76
5.15
1.4
-2.75
-7.33
-12.12
-16.69
-20.7
-24.1
-27.27
-30.83
-35.39
-41.1
-47.4
-53.08
-56.63
-56.73
-52.77
-45.0
-34.52
-22.89
-11.58
-1.63
6.52
13.01
18.18
22.37
25.71
28.06
29.16
28.84
27.11
24.34
21.16
18.27
16.23
15.33
15.47
16.37
17.66
19.07
20.46
21.75
22.8
23.41
23.31
22.34
20.51
18.01
15.12
12.05
8.88
5.54
1.87
-2.24
-6.74
-11.43
-15.98
-20.13
-23.78
-27.12
-30.54
-34.48
-39.23
-44.68
-50.28
-55.1
-58.1
-58.37
-55.47
-49.47
-40.94
-30.82
-20.13
-9.76
-0.38
7.63
14.05
18.8
21.84
23.23
23.2
22.1
20.41
18.63
17.19
16.27
15.84
15.67
15.56
15.44
15.46
15.87
16.85
18.32
19.86
20.89
20.88
19.59
17.24
14.34
11.42
8.79
6.43
4.06
1.35
-1.9
-5.69
-9.84
-14.1
-18.25
-22.14
-25.73
-29.06
-32.31
-35.76
-39.66
-44.07
-48.68
-52.64
-54.82
-54.11
-49.86
-42.17
-31.93
-20.55
-9.53
-0.04
7.33
12.62
16.25
18.71
20.37
21.33
21.48
20.76
19.3
17.45
15.72
14.5
13.97
14.08
14.6
15.34
16.18
17.12
18.14
19.13
19.93
20.34
20.18
19.38
17.98
16.04
13.66
10.88
7.67
4.04
-0.02
-4.37
-8.76
-12.86
-16.4
-19.34
-21.87
-24.36
-27.24
-30.79
-35.03
-39.63
-43.9
-46.96
-47.85
-45.91
-40.99
-33.52
-24.43
-14.83
-5.64
2.62
9.83
16.06
21.3
25.32
27.74
28.31
27.12
24.65
21.67
18.96
16.97
15.73
15.01
14.46
13.97
13.68
13.86
14.69
16.07
17.62
18.76
19.01
18.12
16.18
13.55
10.71
8.03
5.61
3.23
0.43
-3.24
-7.98
-13.53
-19.24
-24.31
-28.21
-30.91
-32.96
-35.25
-38.59
-43.32
-49.16
-55.17
-60.09
-62.63
-61.87
-57.45
-49.64
-39.27
-27.47
-15.43
-4.15
5.69
13.76
19.93
24.29
27.01
28.35
28.61
28.14
27.16
25.81
24.16
22.32
20.46
18.9
17.99
17.96
18.8
20.25
21.81
22.98
23.35
22.77
21.34
19.34
17.15
15.02
13.0
10.88
8.26
4.74
0.16
-5.27
-11.03
-16.42
-20.91
-24.31
-26.96
-29.53
-32.83
-37.38
-43.22
-49.82
-56.19
-61.16
-63.63
-62.88
-58.57
-50.9
-40.49
-28.31
-15.56
-3.41
7.17
15.66
21.97
26.42
29.53
31.7
33.11
33.74
33.46
32.25
30.26
27.85
25.42
23.37
21.96
21.34
21.53
22.45
23.89
25.46
26.68
27.03
26.24
24.32
21.62
18.66
15.91
13.52
11.34
8.94
5.87
1.86
-3.01
-8.39
-13.78
-18.76
-23.08
-26.74
-29.99
-33.27
-37.15
-42.01
-47.9
-54.23
-59.8
-63.03
-62.49
-57.43
-48.12
-35.76
-22.08
-8.74
3.13
13.04
20.96
27.01
31.27
33.79
34.68
34.22
32.86
31.06
29.22
27.52
26.02
24.77
23.84
23.39
23.55
24.32
25.53
26.96
28.33
29.4
30.02
30.01
29.29
27.79
25.52
22.54
18.98
14.98
10.66
6.19
1.68
-2.78
-7.13
-11.37
-15.54
-19.73
-24.08
-28.75
-33.87
-39.4
-44.96
-49.74
-52.64
-52.53
-48.63
-40.85
-29.87
-16.91
-3.48
9.14
20.01
28.62
34.84
38.83
40.85
41.22
40.3
38.41
35.86
32.91
29.79
26.73
23.98
21.84
20.6
20.47
21.41
23.06
24.84
26.04
26.21
25.21
23.33
21.07
18.82
16.7
14.45
11.68
8.02
3.42
-1.86
-7.36
-12.53
-17.03
-20.79
-24.08
-27.38
-31.26
-36.11
-42.05
-48.76
-55.53
-61.38
-65.16
-65.92
-63.04
-56.41
-46.5
-34.23
-20.81
-7.51
4.6
14.8
22.77
28.55
32.4
34.66
35.68
35.74
35.05
33.76
32.03
29.99
27.83
25.73
23.89
22.52
21.8
21.85
22.6
23.8
25.01
25.73
25.53
24.18
21.7
18.36
14.51
10.52
6.61
2.85
-0.78
-4.42
-8.22
-12.26
-16.57
-21.0
-25.35
-29.44
-33.24
-36.98
-41.03
-45.68
-50.82
-55.65
-58.86
-58.97
-55.01
-46.85
-35.39
-22.22
-9.07
2.68
12.27
19.58
24.85
28.46
30.7
31.8
31.91
31.15
29.65
27.59
25.23
22.91
21.01
19.82
19.46
19.83
20.66
21.57
22.28
22.64
22.65
22.38
21.89
21.17
20.08
18.42
16.05
12.88
9.07
4.87
0.66
-3.27
-6.78
-9.94
-12.93
-16.0
-19.36
-23.17
-27.54
-32.5
-37.88
-43.19
-47.56
-49.86
-49.0
-44.48
-36.56
-26.33
-15.24
-4.7
4.4
11.73
17.38
21.52
24.17
25.27
24.78
22.96
20.34
17.6
15.34
13.77
12.8
12.11
11.49
10.93
10.64
10.92
11.87
13.32
14.8
15.75
15.71
14.51
12.23
9.19
5.77
2.29
-1.04
-4.16
-7.17
-10.18
-13.36
-16.78
-20.46
-24.26
-28.1
-31.99
-36.03
-40.24
-44.33
-47.57
-48.86
-47.1
-41.62
-32.58
-21.0
-8.47
3.42
13.51
21.28
26.81
30.49
32.78
34.01
34.38
34.01
33.0
31.47
29.57
27.53
25.61
24.02
22.94
22.45
22.43
22.72
23.08
23.3
23.2
22.63
21.51
19.79
17.58
14.95
12.05
8.9
5.42
1.48
-3.04
-8.01
-13.15
-18.03
-22.38
-26.18
-29.76
-33.67
-38.38
-44.0
-50.13
-55.84
-59.88
-61.06
-58.63
-52.53
-43.51
-32.78
-21.74
-11.48
-2.63
4.7
10.71
15.65
19.67
22.7
24.63
25.31
24.84
23.48
21.74
20.16
19.24
19.17
19.89
21.05
22.19
23.01
23.41
23.56
23.71
24.0
24.36
24.47
23.93
22.42
19.86
16.44
12.49
8.34
4.18
0.08
-4.04
-8.23
-12.53
-16.95
-21.54
-26.43
-31.76
-37.64
-43.85
-49.87
-54.72
-57.3
-56.7
-52.48
-44.96
-35.07
-24.05
-13.07
-3.0
5.74
12.96
18.6
22.62
25.06
26.12
26.23
25.88
25.47
25.16
24.85
24.34
23.55
22.63
21.91
21.78
22.37
23.55
24.88
25.84
26.04
25.33
23.82
21.85
19.71
17.56
15.34
12.77
9.53
5.45
0.57
-4.75
-9.96
-14.57
-18.29
-21.24
-23.86
-26.78
-30.52
-35.26
-40.66
-45.85
-49.69
-51.0
-49.01
-43.57
-35.21
-25.0
-14.21
-3.91
5.23
12.93
19.21
24.04
27.4
29.24
29.6
28.73
27.06
25.03
23.02
21.25
19.82
18.78
18.18
18.07
18.46
19.28
20.33
21.37
22.09
22.25
21.68
20.36
18.33
15.73
12.62
9.06
5.12
0.94
-3.22
-7.06
-10.38
-13.24
-15.94
-18.94
-22.65
-27.26
-32.63
-38.28
-43.53
-47.58
-49.65
-49.16
-45.82
-39.74
-31.41
-21.58
-11.09
-0.81
8.53
16.33
22.17
25.91
27.71
28.05
27.51
26.71
25.95
25.26
24.48
23.41
22.03
20.54
19.3
18.68
18.86
19.79
21.16
22.47
23.23
23.05
21.78
19.61
16.89
14.04
11.25
8.52
5.58
2.16
-1.85
-6.29
-10.82
-15.11
-18.96
-22.43
-25.7
-29.05
-32.7
-36.85
-41.58
-46.75
-51.83
-55.84
-57.56
-55.91
-50.42
-41.52
-30.44
-18.78
-7.96
1.2
8.57
14.43
19.15
22.89
25.55
26.97
27.03
25.96
24.23
22.42
21.02
20.25
20.08
20.24
20.48
20.63
20.75
20.96
21.43
22.12
22.83
23.22
22.95
21.9
20.08
17.67
14.92
11.97
8.91
5.71
2.31
-1.4
-5.43
-9.76
-14.21
-18.52
-22.46
-25.93
-29.11
-32.42
-36.37
-41.1
-46.18
-50.49
-52.58
-51.22
-45.9
-37.18
-26.42
-15.31
-5.23
3.07
9.56
14.59
18.55
21.66
23.92
25.3
25.88
25.84
25.48
24.99
24.52
24.21
24.27
25.03
26.87
30.01
34.31
39.33
44.26
48.26
50.74
51.54
50.93
49.5
47.84
46.25
44.71
42.88
40.3
36.55
31.29
24.27
15.37
4.74
-7.2
-19.55
-31.46
-42.19
-51.25
-58.53
-64.05
-67.7
-68.88
-66.5
-59.36
-47.02
-30.02
-9.65
12.3
34.09
54.28
71.82
85.89
95.88
100.89
100.53
95.7
88.46
81.36
76.49
74.82
75.97
78.8
80.73
80.27
78.21
76.99
78.78
83.99
90.82
96.22
97.23
89.12
69.61
40.54
7.22
-24.06
-48.41
-63.43
-69.16
-67.98
-68.55
-78.7
-101.33
-133.49
-169.37
-203.88
-234.33
-260.36
-283.17
-310.47
-347.93
-395.26
-446.59
-495.06
-536.78
-571.21
-599.38
-584.72
-506.44
-372.32
-215.65
-69.67
49.3
139.39
205.14
252.37
286.29
305.27
308.18
298.13
282.37
268.1
259.1
255.8
256.86
260.63
261.3
254.44
240.07
222.29
205.83
192.97
183.68
176.68
170.6
161.85
147.62
128.52
108.0
89.89
76.33
67.46
62.18
59.02
55.54
49.47
40.79
31.38
23.29
17.23
12.02
4.47
-10.47
-31.7
-59.75
-92.63
-125.51
-152.05
-166.38
-164.72
-146.27
-113.1
-69.53
-22.53
20.43
52.52
69.29
70.17
58.97
42.27
26.38
14.61
5.47
-4.67
-18.61
-35.85
-52.39
-63.18
-65.22
-59.19
-48.79
-38.77
-31.87
-28.18
-26.68
-27.04
-30.85
-40.99
-60.03
-88.64
-125.72
-169.1
-216.96
-268.32
-322.11
-375.76
-424.36
-461.66
-482.43
-485.18
-472.98
-452.35
-430.5
-412.57
-400.24
-392.25
-386.15
-379.95
-372.69
-363.99
-353.29
-339.36
-320.85
-297.09
-268.71
-237.53
-206.05
-176.27
-149.03
-123.79
-99.1
-73.48
-46.14
-17.3
12.05
40.81
68.55
95.78
123.75
153.8
186.57
221.64
257.66
292.86
325.86
356.15
384.24
411.3
438.92
468.58
501.05
535.77
570.12
599.55
618.44
622.08
608.58
580.03
541.95
501.22
463.56
431.69
405.15
381.64
358.89
335.91
313.23
291.96
272.63
254.6
236.28
216.0
192.92
167.53
141.54
116.99
95.46
77.29
61.72
47.41
33.26
19.1
5.69
-5.71
-14.28
-19.95
-23.69
-26.91
-30.87
-36.28
-43.19
-51.16
-59.55
-67.76
-75.25
-81.7
-87.05
-91.62
-96.05
-101.03
-106.95
-113.5
-119.81
-124.49
-126.3
-124.41
-118.63
-109.34
-97.32
-83.6
-69.34
-55.76
-43.9
-34.5
-27.88
-23.94
-22.26
-22.26
-23.37
-25.1
-27.21
-29.43
-31.55
-33.29
-34.31
-34.33
-33.29
-31.42
-29.24
-27.46
-26.57
-26.61
-27.13
-27.28
-26.43
-24.49
-22.1
-20.23
-19.79
-20.88
-22.84
-24.44
-24.6
-23.07
-20.56
-18.51
-18.18
-20.13
-23.76
-27.72
-30.43
-30.78
-28.56
-24.43
-19.58
-15.04
-11.31
-8.21
-5.02
-1.04
3.94
9.21
13.44
15.0
12.81
6.85
-2.01
-12.3
-22.81
-33.07
-43.44
-54.59
-67.2
-81.55
-97.54
-114.66
-131.42
-145.22
-152.66
-150.64
-137.75
-115.42
-87.42
-58.35
-31.57
-7.66
14.98
38.37
62.87
86.21
104.44
114.09
114.09
106.29
94.41
82.13
71.84
64.22
58.81
54.98
52.28
50.5
49.28
48.04
46.24
43.93
41.87
40.99
41.72
43.31
44.12
42.49
37.7
30.54
23.08
17.59
15.31
16.01
17.99
19.27
18.48
15.63
11.85
8.91
8.07
9.44
11.76
12.86
10.88
4.97
-4.19
-14.65
-24.16
-31.09
-35.14
-37.38
-39.46
-42.78
-47.96
-54.64
-61.93
-69.0
-75.22
-80.17
-83.34
-83.98
-81.18
-74.45
-63.82
-49.99
-34.28
-18.08
-2.59
11.51
23.97
34.94
44.72
53.51
61.42
68.02
72.73
74.88
74.3
71.38
67.18
63.08
60.24
59.21
59.74
60.94
61.52
60.29
56.35
49.4
39.76
27.98
14.58
-0.09
-15.85
-32.4
-48.92
-64.07
-76.55
-85.4
-90.98
-94.81
-98.88
-104.9
-113.39
-123.47
-133.16
-140.4
-143.27
-140.86
-133.14
-120.82
-105.26
-87.99
-70.42
-53.53
-37.99
-23.92
-11.4
-0.6
8.19
14.65
18.66
20.56
20.97
20.51
19.8
19.23
19.01
19.41
20.54
22.31
24.44
26.42
27.62
27.78
27.0
25.71
24.6
23.93
23.43
22.29
19.54
14.46
7.28
-1.02
-9.03
-15.55
-20.3
-24.11
-28.48
-34.9
-44.25
-56.06
-68.88
-80.61
-89.17
-93.19
-92.15
-86.42
-76.77
-64.29
-49.7
-33.75
-17.0
0.04
16.53
31.54
43.97
52.92
57.84
59.01
57.3
54.2
51.29
49.46
48.83
48.48
47.29
44.51
40.47
36.43
33.96
34.12
36.61
40.0
42.14
41.45
37.52
31.17
24.11
17.71
12.69
8.49
4.06
-1.74
-9.35
-18.46
-28.31
-37.99
-47.15
-55.83
-64.42
-73.02
-81.24
-88.09
-92.25
-92.58
-88.11
-78.57
-64.12
-45.54
-24.18
-1.97
18.81
36.05
48.29
55.51
58.74
59.88
60.82
62.46
64.5
65.74
64.76
60.77
54.33
46.99
40.83
37.62
37.87
40.61
43.72
44.84
42.25
35.87
27.17
18.46
11.95
8.56
7.53
6.89
4.52
-0.81
-8.52
-16.65
-22.87
-25.61
-25.12
-23.45
-23.52
-27.7
-36.76
-49.07
-61.27
-69.47
-70.68
-64.06
-50.89
-34.12
-17.0
-2.04
9.84
19.24
27.54
36.08
45.15
54.04
61.13
64.81
64.3
60.1
53.83
47.61
43.24
41.45
41.86
43.28
44.44
44.68
43.98
42.88
41.9
41.36
40.97
40.23
38.61
35.65
31.23
25.16
17.51
8.62
-0.74
-9.57
-16.84
-22.03
-25.58
-28.68
-33.18
-40.45
-50.76
-62.85
-74.15
-81.65
-82.89
-77.02
-65.01
-49.4
-33.06
-18.2
-5.59
5.46
16.04
26.91
37.59
46.51
51.72
51.94
47.35
39.61
31.46
25.36
22.77
23.36
25.45
26.75
25.55
21.76
16.81
13.17
12.88
16.46
22.37
27.76
29.69
26.56
19.04
9.45
0.86
-4.57
-6.43
-6.16
-6.19
-8.62
-14.41
-22.8
-32.07
-40.34
-46.63
-51.16
-54.91
-58.84
-62.99
-66.29
-66.73
-62.41
-52.3
-36.88
-18.0
1.82
20.07
34.98
45.61
51.93
54.46
54.26
52.51
50.3
48.4
47.0
45.7
43.68
40.42
35.85
30.8
26.65
24.61
25.23
28.0
31.53
33.9
33.78
30.66
25.14
18.69
12.81
8.37
5.23
2.34
-1.73
-7.92
-16.18
-25.59
-34.53
-41.77
-46.89
-50.54
-53.96
-58.3
-64.02
-70.51
-76.35
-79.65
-78.79
-72.71
-61.48
-46.14
-28.48
-10.73
5.26
18.37
28.51
36.24
42.45
47.67
51.86
54.57
55.13
53.37
49.71
44.93
39.97
35.48
31.7
28.37
25.21
21.84
18.21
14.47
10.82
7.62
5.13
3.5
2.51
1.74
0.44
-2.02
-6.06
-11.72
-18.46
-25.47
-31.89
-37.09
-40.88
-43.6
-45.96
-48.96
-53.53
-60.09
-68.33
-76.97
-83.98
-87.25
-85.4
-78.15
-66.59
-52.5
-37.73
-23.58
-10.49
1.58
12.68
22.36
29.88
34.4
35.62
33.99
30.67
27.08
24.29
22.76
22.15
21.8
21.06
19.68
18.01
16.62
16.21
16.9
18.32
19.58
19.77
18.37
15.4
11.37
6.67
1.61
-4.02
-10.42
-17.6
-25.3
-32.81
-39.55
-45.31
-50.59
-56.25
-63.27
-72.15
-82.74
-94.11
-104.59
-112.37
-115.88
-114.46
-108.42
-99.08
-88.21
-77.34
-67.46
-58.45
-49.55
-39.69
-27.99
-14.21
1.26
17.53
33.65
48.76
62.64
75.39
87.3
98.67
109.31
118.82
126.8
133.19
138.28
142.83
147.53
152.64
157.81
161.7
162.57
158.57
148.54
132.16
110.36
84.93
58.01
31.66
7.33
-14.07
-32.2
-47.0
-58.77
-68.03
-75.45
-81.91
-88.11
-94.5
-101.0
-106.93
-111.09
-111.88
-108.0
-98.67
-84.34
-66.51
-47.51
-29.77
-15.0
-3.87
4.07
9.7
14.06
17.74
20.88
23.2
24.47
24.54
23.65
22.26
20.86
19.96
19.89
20.81
22.59
24.74
26.48
26.96
25.67
22.65
18.69
14.96
12.36
11.05
10.23
8.48
4.53
-1.99
-10.37
-19.1
-26.65
-32.21
-36.0
-39.12
-43.0
-48.76
-56.74
-66.42
-76.34
-84.63
-89.44
-89.38
-84.05
-73.97
-60.47
-45.07
-29.05
-13.29
1.65
15.29
27.14
36.56
43.25
47.21
48.88
48.9
47.74
45.73
43.11
40.26
37.7
36.07
35.68
36.43
37.77
38.89
39.24
38.74
37.81
37.05
36.77
36.76
36.14
33.89
29.21
22.28
14.04
5.95
-0.66
-5.28
-8.36
-11.22
-15.24
-21.35
-29.33
-38.15
-46.3
-52.59
-56.92
-60.24
-64.14
-69.6
-76.05
-81.16
-81.59
-74.55
-59.17
-37.49
-13.41
8.53
25.31
36.37
43.4
49.32
56.51
65.97
76.85
87.49
96.33
102.75
107.26
110.67
113.79
116.61
118.78
119.79
119.5
118.25
116.47
114.53
112.42
110.12
107.48
104.54
101.39
97.87
93.66
87.97
80.01
69.13
55.49
39.98
24.34
10.72
0.51
-6.04
-10.26
-14.15
-19.24
-25.35
-30.6
-32.53
-29.65
-23.05
-15.97
-12.42
-14.91
-22.83
-32.86
-40.67
-43.45
-41.04
-35.85
-30.88
-27.81
-25.97
-22.87
-16.18
-5.23
8.12
20.68
29.39
33.01
32.42
29.69
26.86
24.82
23.36
21.62
19.08
15.89
12.7
10.16
8.24
6.29
3.4
-0.93
-6.43
-12.26
-17.62
-22.33
-27.04
-32.85
-40.57
-50.02
-60.0
-68.86
-75.52
-79.92
-83.21
-86.9
-92.07
-98.84
-106.25
-113.05
-118.06
-120.8
-121.2
-119.43
-115.57
-109.71
-102.16
-93.35
-83.95
-74.47
-65.18
-56.14
-47.36
-39.04
-31.56
-25.37
-20.74
-17.63
-15.62
-14.02
-12.1
-9.24
-5.25
-0.34
4.96
9.99
14.43
18.46
22.7
27.87
34.45
42.17
50.17
57.22
62.05
64.01
63.16
60.3
56.49
52.77
49.51
46.4
42.5
36.72
28.61
18.62
8.08
-1.47
-9.04
-14.78
-19.78
-25.44
-32.73
-41.41
-50.14
-57.03
-60.43
-59.86
-56.22
-51.38
-47.42
-45.82
-46.69
-49.0
-51.07
-51.34
-49.32
-45.68
-41.89
-39.46
-39.24
-40.84
-43.08
-44.45
-43.87
-41.16
-36.83
-31.85
-27.08
-22.94
-19.18
-15.03
-9.59
-2.24
6.87
16.79
25.91
32.69
36.15
36.47
34.68
32.21
30.21
28.98
28.08
26.62
23.95
19.95
15.07
9.99
5.27
1.24
-2.13
-4.94
-7.24
-8.94
-9.77
-9.53
-7.98
-5.18
-1.36
2.98
7.25
10.95
13.76
15.56
16.23
15.82
14.41
12.35
10.19
8.66
8.34
9.29
10.96
12.32
12.52
11.18
8.7
6.02
4.11
3.46
3.87
4.54
4.48
3.04
0.04
-4.0
-8.1
-11.36
-13.21
-13.96
-14.45
-15.86
-18.92
-23.58
-28.99
-33.85
-37.31
-39.31
-40.67
-42.46
-45.45
-49.4
-53.2
-55.34
-54.58
-50.56
-43.89
-35.8
-27.54
-19.98
-13.21
-6.7
0.36
8.62
17.87
27.17
34.94
39.73
40.83
38.6
34.42
29.86
26.19
23.8
22.47
21.64
20.89
20.14
19.28
18.13
16.21
13.11
8.72
3.53
-1.54
-5.64
-8.36
-10.08
-11.5
-13.4
-15.86
-18.37
-20.01
-20.1
-18.76
-16.99
-16.51
-18.9
-24.94
-34.08
-44.47
-53.65
-59.29
-60.13
-56.16
-48.65
-39.26
-29.44
-19.9
-10.45
-0.59
9.96
20.6
30.07
36.77
39.75
39.17
36.37
33.41
31.94
32.7
34.9
36.9
37.01
34.45
29.8
24.76
21.28
20.5
22.27
25.03
26.71
25.54
20.83
13.33
4.81
-2.73
-8.04
-10.84
-12.14
-13.56
-16.61
-22.23
-30.26
-39.57
-48.58
-55.88
-60.82
-63.69
-65.5
-67.41
-70.24
-73.82
-77.1
-78.48
-76.38
-69.94
-59.27
-45.49
-30.29
-15.32
-1.74
10.02
20.16
29.08
37.05
43.96
49.4
52.88
54.16
53.38
51.13
48.2
45.44
43.43
42.3
41.84
41.52
40.83
39.33
36.91
33.84
30.69
28.08
26.46
25.92
26.01
25.95
24.85
22.09
17.59
11.85
5.79
0.25
-4.24
-7.75
-10.68
-13.66
-17.17
-21.4
-26.26
-31.35
-36.19
-40.02
-42.18
-42.2
-40.05
-36.24
-31.51
-26.4
-20.84
-14.28
-6.07
3.83
14.42
23.98
30.53
33.15
32.26
29.6
27.35
27.26
29.71
33.76
37.69
39.72
39.15
36.5
33.28
31.27
31.46
33.64
36.35
37.73
36.4
32.29
26.63
21.25
17.58
15.85
15.07
13.7
10.53
5.33
-1.13
-7.57
-12.97
-16.9
-19.93
-23.0
-27.1
-32.8
-39.91
-47.61
-54.58
-59.42
-60.85
-58.43
-52.4
-43.74
-33.86
-24.03
-15.17
-7.59
-1.09
4.8
10.61
16.68
22.92
28.73
33.23
35.49
35.18
32.89
29.92
27.92
27.98
30.09
33.21
35.89
37.03
36.48
35.12
34.13
34.42
35.91
37.75
38.7
37.86
35.02
30.65
25.66
20.84
16.68
13.04
9.56
5.77
1.35
-3.71
-9.3
-15.12
-21.0
-26.78
-32.4
-37.68
-42.24
-45.67
-47.56
-47.69
-46.06
-42.71
-37.74
-31.13
-22.93
-13.37
-3.13
6.81
15.37
21.72
25.66
27.66
28.67
29.67
31.26
33.36
35.32
36.23
35.35
32.64
28.78
25.15
23.14
23.62
26.49
30.65
34.53
36.62
36.19
33.57
29.76
25.96
22.96
20.91
19.26
17.25
14.18
9.91
4.77
-0.6
-5.55
-9.73
-13.2
-16.4
-19.95
-24.35
-29.71
-35.57
-41.03
-44.88
-46.15
-44.33
-39.64
-32.92
-25.33
-17.94
-11.29
-5.34
0.41
6.5
13.06
19.61
25.21
28.87
29.98
28.81
26.35
24.06
23.18
24.15
26.55
29.21
30.89
30.82
29.19
26.9
25.21
24.89
25.92
27.5
28.39
27.59
24.81
20.58
15.92
11.8
8.7
6.32
3.88
0.49
-4.38
-10.63
-17.53
-24.2
-29.98
-34.67
-38.66
-42.44
-46.38
-50.34
-53.57
-55.24
-54.52
-51.0
-44.86
-36.77
-27.57
-18.19
-9.42
-1.79
4.3
8.84
12.1
14.64
17.1
19.9
22.99
25.76
27.37
27.11
25.1
22.28
20.1
19.84
21.82
25.34
28.82
30.71
30.25
27.78
24.55
22.04
21.11
21.56
22.35
22.08
19.79
15.4
9.52
3.24
-2.65
-7.77
-12.27
-16.49
-20.65
-24.84
-29.04
-33.39
-38.15
-43.49
-49.05
-53.89
-56.64
-56.03
-51.65
-44.1
-34.89
-25.73
-17.89
-11.65
-6.34
-0.91
5.5
13.03
20.91
27.91
32.71
34.61
33.77
31.31
28.64
27.03
26.94
27.97
29.15
29.49
28.7
27.32
26.43
26.92
28.96
31.73
33.84
34.02
31.72
27.49
22.64
18.46
15.73
14.28
13.17
11.31
7.98
3.26
-2.14
-7.43
-12.19
-16.55
-21.14
-26.48
-32.65
-39.15
-45.1
-49.8
-52.82
-54.05
-53.38
-50.65
-45.61
-38.26
-29.24
-19.86
-11.81
-6.31
-3.66
-2.93
-2.59
-1.22
1.63
5.14
7.79
8.21
6.05
2.33
-1.08
-2.47
-1.15
2.1
5.62
7.75
7.71
5.85
3.5
1.93
1.84
2.71
3.3
2.2
-1.43
-7.51
-15.19
-23.23
-30.62
-37.04
-42.85
-48.83
-55.9
-64.66
-75.18
-87.08
-99.52
-111.52
-122.22
-130.94
-137.48
-142.05
-145.25
-148.03
-151.49
-156.8
-164.67
-175.18
-187.28
-199.16
-208.62
-213.94
-214.42
-210.49
-203.08
-192.66
-178.68
-159.62
-134.07
-101.9
-65.23
-28.24
4.08
27.69
41.1
46.08
47.17
50.03
59.56
78.41
106.23
140.34
176.83
211.98
243.11
268.56
287.09
297.52
298.74
290.15
272.64
248.63
221.73
195.68
173.07
155.12
141.68
132.11
125.72
122.2
121.37
123.2
127.52
134.16
143.07
153.98
166.1
177.88
187.14
191.68
190.0
182.13
169.56
154.86
140.58
128.42
118.73
110.81
103.49
96.04
88.86
83.22
80.82
82.69
88.63
97.21
106.03
112.8
115.92
115.07
111.05
105.45
99.79
95.14
91.67
88.77
85.61
81.56
76.82
72.32
69.31
68.81
70.79
74.19
77.2
78.12
76.09
71.77
67.04
64.18
64.72
68.24
72.37
73.64
69.08
57.77
41.35
23.15
6.37
-7.29
-18.53
-29.35
-41.74
-56.31
-72.41
-88.75
-104.64
-120.52
-137.4
-156.13
-176.38
-196.74
-215.19
-230.19
-241.05
-248.0
-251.72
-252.67
-251.0
-246.61
-239.64
-230.75
-221.07
-211.89
-204.07
-197.83
-192.76
-188.09
-183.18
-177.83
-172.21
-166.65
-161.57
-157.07
-153.0
-148.89
-144.02
-137.82
-130.01
-120.88
-111.23
-102.1
-94.06
-86.93
-79.71
-71.38
-61.45
-50.46
-39.78
-30.75
-24.16
-19.48
-15.42
-10.6
-4.16
3.82
12.62
21.27
28.97
35.25
39.96
43.03
44.55
44.94
44.83
45.03
46.16
48.16
50.36
51.47
50.38
46.68
40.99
34.65
29.14
25.23
22.77
20.59
17.19
11.54
3.46
-6.1
-15.81
-24.42
-31.39
-37.02
-41.98
-46.85
-51.28
-54.21
-54.07
-49.72
-41.07
-29.48
-17.34
-7.09
-0.37
2.92
4.26
5.66
8.72
13.41
18.46
21.93
22.53
20.31
16.93
14.55
14.89
18.21
23.24
28.08
30.98
31.29
29.46
26.8
24.53
23.31
22.99
22.72
21.59
18.89
14.55
8.96
3.04
-2.33
-6.54
-9.38
-11.45
-13.68
-17.18
-22.55
-29.61
-37.26
-43.81
-47.71
-47.9
-44.43
-38.01
-29.9
-21.15
-12.56
-4.32
3.7
11.64
19.56
27.04
33.51
38.09
40.28
39.86
37.38
33.9
30.63
28.63
28.29
29.27
30.69
31.61
31.33
29.9
27.91
26.18
25.45
25.72
26.4
26.44
24.95
21.61
16.9
11.93
7.77
4.87
2.82
0.61
-2.85
-8.03
-14.67
-21.93
-28.8
-34.89
-40.19
-45.13
-49.99
-54.62
-58.27
-60.0
-58.93
-54.77
-47.87
-38.98
-29.16
-19.27
-9.81
-0.86
7.7
15.74
22.87
28.43
31.85
32.97
32.34
30.92
29.78
29.32
29.23
28.88
27.78
26.11
24.71
24.64
26.46
29.61
32.71
33.96
32.45
28.38
23.13
18.49
15.82
15.01
14.85
13.57
9.68
3.1
-5.02
-12.91
-19.01
-23.09
-26.31
-30.45
-36.99
-46.24
-56.78
-66.27
-72.35
-73.63
-70.22
-63.63
-55.63
-47.58
-39.9
-31.84
-22.37
-10.97
1.96
14.85
25.52
32.29
34.63
33.34
30.67
28.84
29.48
32.94
38.04
42.92
45.86
46.04
43.8
40.51
37.55
35.81
35.25
34.97
34.03
31.7
28.03
23.3
18.02
12.38
6.5
0.51
-5.45
-11.16
-16.86
-23.12
-30.56
-39.37
-48.97
-58.1
-65.58
-71.14
-75.53
-80.34
-86.42
-93.19
-98.47
-99.28
-93.28
-80.0
-61.1
-39.6
-18.78
-0.87
13.25
23.83
31.92
38.32
43.61
47.66
50.09
50.5
48.88
45.77
42.25
39.63
38.77
39.84
41.97
43.74
43.7
41.25
36.67
31.01
25.54
20.89
16.92
12.67
6.88
-1.4
-12.17
-24.53
-36.97
-48.0
-57.28
-65.5
-74.37
-85.8
-100.92
-119.7
-140.84
-162.33
-182.21
-199.07
-211.86
-219.63
-221.18
-215.16
-200.81
-178.24
-149.03
-115.54
-80.58
-46.41
-14.66
13.36
36.43
53.4
63.95
69.1
71.62
75.36
83.95
99.27
120.52
144.92
168.56
188.37
202.8
212.11
217.68
220.96
222.84
223.23
221.26
215.56
205.08
189.4
168.86
144.55
117.42
88.4
57.85
26.16
-6.18
-38.26
-68.78
-96.54
-120.69
-141.23
-158.63
-173.62
-186.7
-197.89
-206.8
-212.47
-213.9
-210.12
-200.8
-185.99
-166.47
-143.42
-118.15
-92.14
-66.54
-42.42
-20.69
-2.06
13.0
24.42
32.46
37.73
40.8
42.6
43.96
45.72
48.66
53.01
58.53
64.41
69.7
73.43
75.3
75.5
74.58
73.16
71.52
69.53
66.75
62.88
57.41
50.31
41.72
32.01
21.91
12.1
3.04
-5.44
-13.98
-23.69
-35.53
-49.85
-66.02
-82.31
-96.34
-105.47
-107.75
-102.1
-88.77
-69.14
-45.14
-18.84
8.01
33.84
57.28
76.87
91.31
99.86
102.84
101.72
98.71
95.98
94.51
94.07
93.41
91.34
87.64
83.24
79.9
79.0
81.0
84.88
88.85
91.17
90.8
87.82
82.94
77.18
71.19
65.38
59.79
54.37
48.92
42.93
35.84
27.09
16.88
6.02
-4.13
-12.5
-19.11
-25.32
-33.08
-43.71
-56.64
-68.71
-75.3
-72.01
-56.49
-29.86
3.74
38.4
68.52
90.47
103.41
108.97
109.97
109.21
108.21
107.01
104.52
99.49
91.29
80.37
68.18
56.45
46.71
39.63
34.97
31.7
28.6
24.55
19.06
12.58
6.26
1.51
-0.59
0.22
3.13
6.4
7.76
5.08
-2.66
-14.83
-29.25
-42.7
-52.38
-57.2
-58.4
-59.0
-62.53
-71.04
-84.27
-99.98
-114.91
-126.39
-133.14
-135.3
-133.78
-129.57
-122.85
-113.26
-100.05
-82.7
-61.77
-38.95
-17.2
0.41
11.42
15.34
13.64
9.38
5.86
5.15
7.49
11.29
14.27
14.56
11.7
6.87
2.21
0.16
2.18
8.5
17.91
28.34
37.64
44.14
47.36
47.89
46.93
45.54
44.24
42.73
40.25
36.22
30.28
22.8
14.18
4.79
-5.45
-16.55
-28.16
-39.36
-48.67
-54.56
-55.67
-51.12
-40.5
-23.95
-2.51
21.94
46.67
68.68
85.36
95.5
99.49
99.07
96.67
94.17
92.38
90.86
88.36
83.53
76.09
66.85
57.78
51.27
48.82
50.35
54.09
57.4
57.78
54.29
47.54
39.44
32.15
26.87
23.47
20.59
16.57
10.09
1.07
-9.68
-20.69
-30.55
-38.47
-44.61
-49.95
-55.82
-63.66
-74.12
-86.69
-99.69
-110.25
-115.34
-112.57
-101.27
-82.6
-59.39
-34.98
-12.21
7.07
22.51
34.5
43.87
51.11
56.45
59.83
61.06
60.19
57.33
53.04
47.98
43.1
39.22
37.0
36.65
37.68
39.25
40.24
40.01
38.48
36.27
34.16
32.46
30.79
27.96
22.97
15.5
6.31
-3.1
-11.34
-17.8
-23.0
-28.09
-34.28
-42.04
-51.15
-61.12
-71.54
-82.28
-93.11
-103.25
-110.96
-114.08
-110.61
-99.74
-82.53
-61.22
-38.72
-17.38
1.51
17.76
31.53
43.01
51.77
57.23
59.22
58.21
55.48
52.54
50.38
49.04
47.86
45.93
42.96
39.64
37.25
37.03
39.31
43.07
46.39
47.37
44.96
39.53
32.55
25.7
20.17
15.99
12.08
7.01
-0.23
-9.64
-20.14
-30.15
-38.39
-44.37
-48.75
-52.8
-57.93
-65.08
-74.34
-84.94
-95.18
-102.99
-106.03
-102.59
-91.98
-75.11
-54.21
-32.08
-11.38
6.31
20.37
31.15
39.2
45.01
48.7
50.18
49.56
47.1
43.43
39.23
35.26
32.12
30.25
29.77
30.37
31.7
33.17
34.4
35.27
35.73
35.81
35.39
34.21
31.7
27.7
22.28
15.91
9.33
2.97
-3.11
-9.31
-16.07
-23.7
-31.79
-39.56
-46.33
-51.89
-56.99
-62.94
-70.67
-79.74
-88.15
-92.58
-89.75
-77.97
-57.72
-31.97
-4.97
19.1
37.64
50.18
58.06
63.5
68.37
73.59
78.63
82.09
82.6
79.88
75.18
70.64
68.43
69.79
74.63
81.68
88.87
94.52
98.27
100.94
103.4
105.79
107.33
106.94
104.0
97.96
88.78
77.24
64.3
50.32
35.1
18.82
2.96
-9.82
-18.45
-23.5
-26.57
-29.49
-34.17
-42.24
-54.11
-68.66
-83.79
-99.92
-118.91
-142.47
-170.94
-203.6
-238.92
-274.66
-307.78
-322.76
-307.28
-261.7
-200.24
-139.24
-87.59
-46.51
-13.66
13.82
37.72
56.44
67.8
71.54
70.23
67.58
66.72
69.24
75.34
84.09
92.47
97.39
97.44
93.58
87.65
80.99
74.13
66.92
58.8
48.18
33.76
15.43
-3.6
-21.46
-36.58
-48.08
-55.7
-59.73
-61.21
-61.32
-60.87
-59.97
-58.68
-56.85
-54.48
-51.64
-48.53
-45.49
-42.88
-40.92
-39.52
-38.65
-38.08
-37.53
-36.79
-35.81
-34.69
-33.56
-32.83
-32.74
-33.45
-34.72
-36.06
-37.03
-37.37
-37.29
-37.2
-37.82
-39.68
-42.76
-46.43
-49.54
-50.95
-49.96
-47.54
-43.54
-38.85
-34.27
-29.93
-25.3
-19.25
-11.0
-0.43
11.58
23.53
33.6
40.29
42.48
39.37
31.03
18.66
5.23
-4.95
-7.46
-0.17
15.58
35.48
52.03
59.67
