11.87
14.12
16.76
19.17
20.85
21.13
19.85
17.31
14.34
11.87
10.71
10.85
11.5
11.46
9.63
5.68
0.24
-5.21
-9.31
-11.17
-10.97
-9.73
-8.96
-10.03
-13.3
-18.34
-23.54
-26.85
-26.52
-21.98
-13.91
-4.08
5.38
13.14
18.64
22.35
25.3
28.27
31.59
34.91
37.79
39.65
40.26
39.61
37.71
34.58
30.2
24.5
17.5
9.91
2.62
-3.3
-7.21
-9.2
-10.21
-11.37
-13.2
-15.67
-17.63
-18.02
-16.53
-13.89
-11.47
-10.83
-12.59
-16.13
-20.32
-23.61
-25.11
-24.76
-23.1
-21.14
-20.1
-21.0
-24.52
-30.75
-38.89
-47.3
-53.81
-56.5
-54.66
-48.9
-41.02
-33.1
-26.65
-21.98
-18.33
-14.48
-9.24
-2.54
4.58
10.58
13.59
12.65
8.45
2.8
-1.69
-2.59
0.9
7.9
16.07
22.59
25.49
24.75
21.75
18.86
18.23
20.59
24.92
28.89
30.03
26.72
19.34
10.08
1.94
-2.43
-2.27
1.07
4.85
6.17
3.36
-3.25
-11.76
-19.44
-24.33
-25.91
-25.1
-23.72
-23.39
-24.83
-27.58
-30.23
-31.14
-29.08
-23.79
-15.85
-6.6
2.3
9.31
13.7
15.34
15.02
14.11
13.8
14.92
17.5
20.93
24.24
26.38
26.5
24.29
20.24
15.49
11.68
10.15
11.53
14.98
18.62
20.35
18.98
14.96
10.32
7.48
7.98
11.57
16.14
18.67
17.09
11.12
2.58
-5.46
-10.2
-10.67
-7.88
-4.3
-2.9
-5.36
-11.74
-20.66
-29.71
-36.7
-40.44
-40.69
-38.03
-33.58
-28.16
-22.53
-17.04
-11.84
-6.86
-2.15
2.3
6.44
10.12
13.48
16.46
19.05
21.0
21.92
21.62
20.26
18.41
16.82
16.31
16.85
17.83
18.58
18.29
17.02
15.66
15.13
15.86
17.6
19.2
19.41
17.69
13.97
8.98
3.52
-1.8
-7.05
-12.32
-17.77
-23.34
-28.48
-32.72
-35.73
-37.75
-39.25
-41.22
-44.13
-48.07
-52.44
-56.08
-58.02
-57.87
-56.15
-53.91
-52.28
-51.7
-51.88
-51.97
-51.06
-48.84
-45.84
-43.24
-42.37
-44.2
-48.99
-56.04
-63.95
-70.92
-75.66
-77.86
-78.59
-79.91
-83.93
-91.58
-102.26
-114.1
-124.98
-133.77
-140.21
-144.32
-145.27
-140.92
-128.22
-104.99
-71.12
-29.02
17.09
63.49
108.27
151.89
195.98
241.61
287.47
329.58
362.47
380.84
381.58
364.35
331.55
287.3
236.32
183.08
131.43
84.56
44.91
14.05
-7.53
-20.26
-25.57
-25.51
-22.13
-17.29
-12.23
-7.43
-2.92
1.15
4.3
5.37
3.05
-2.99
-11.68
-20.44
-26.19
-26.76
-22.18
-14.7
-7.88
-4.9
-6.68
-11.71
-16.74
-18.49
-15.34
-8.31
-0.29
5.3
6.27
2.82
-2.83
-7.51
-9.03
-7.17
-3.68
-1.08
-1.17
-4.4
-9.78
-16.0
-22.01
-27.55
-32.71
-37.29
-40.84
-42.67
-42.52
-40.83
-38.53
-36.45
-34.75
-32.85
-29.61
-24.35
-17.31
-9.83
-3.74
-0.45
-0.17
-1.52
-2.39
-0.99
2.81
7.26
9.42
6.91
-0.45
-10.23
-18.17
-20.45
-15.53
-5.28
5.8
12.27
10.27
-1.18
-19.78
-41.05
-60.04
-73.29
-79.71
-80.67
-79.17
-78.39
-80.68
-86.85
-96.25
-107.5
-119.42
-131.48
-143.86
-157.37
-172.63
-189.68
-207.74
-225.33
-240.65
-252.49
-260.74
-266.35
-270.85
-275.2
-278.94
-279.95
-275.3
-262.6
-241.05
-212.22
-179.08
-144.93
-112.13
-81.5
-52.59
-24.51
3.19
30.56
57.07
82.45
106.65
129.49
149.98
165.76
173.58
170.22
154.19
126.61
91.21
52.98
16.51
-15.21
-41.2
-61.74
-77.39
-88.32
-94.49
-95.96
-93.61
-89.06
-84.12
-80.14
-77.39
-75.02
-71.41
-64.97
-54.63
-40.21
-22.3
-1.69
20.87
44.94
70.13
95.81
120.69
143.04
160.95
172.9
178.48
178.3
173.96
167.47
160.58
154.27
148.69
143.37
137.65
131.42
125.03
119.23
114.78
111.95
110.32
109.0
107.04
103.77
99.19
93.76
88.18
83.06
78.54
74.3
69.7
64.1
57.13
48.87
39.71
30.17
20.75
11.85
4.02
-1.96
-4.97
-3.91
1.99
12.7
27.32
44.34
61.85
78.2
92.07
102.77
110.1
114.4
116.34
116.7
116.13
114.85
112.8
109.68
105.38
100.19
94.72
89.78
85.89
83.26
81.62
80.54
79.58
78.5
77.2
75.6
73.63
71.18
68.23
64.86
61.29
57.69
54.14
50.5
46.37
41.47
35.55
28.63
20.86
12.52
3.91
-4.48
-12.1
-18.24
-22.02
-22.7
-19.91
-13.73
-4.89
5.34
15.39
23.78
29.35
31.71
31.15
28.52
24.94
21.36
18.23
15.47
12.57
8.86
4.08
-1.56
-7.17
-11.58
-13.83
-13.62
-11.52
-8.73
-6.63
-6.0
-6.9
-8.58
-9.96
-10.28
-9.37
-7.72
-6.18
-5.56
-6.19
-7.96
-10.38
-12.93
-15.45
-18.18
-21.47
-25.47
-29.75
-33.18
-34.41
-32.31
-26.44
-17.35
-6.3
5.23
15.94
25.05
32.24
37.42
40.58
41.77
41.07
38.71
35.11
30.66
25.67
20.25
14.24
7.5
0.03
-7.79
-15.38
-22.11
-27.67
-32.17
-36.03
-39.67
-43.17
-46.18
-48.17
-48.74
-47.98
-46.51
-45.11
-44.22
-43.78
-43.17
-41.69
-38.88
-34.81
-29.84
-24.31
-18.22
-11.2
-2.71
7.51
19.18
31.51
43.33
53.57
61.45
66.57
68.87
68.51
65.81
61.15
55.03
48.02
40.73
33.77
27.55
22.42
18.47
15.69
13.81
12.5
11.37
10.13
8.66
6.96
5.24
3.6
2.04
0.42
-1.53
-4.01
-7.08
-10.58
-14.27
-17.78
-20.88
-23.4
-25.19
-26.1
-25.88
-24.28
-21.05
-16.23
-10.05
-3.09
3.87
10.09
14.88
17.89
19.05
18.65
17.07
14.79
12.2
9.59
7.24
5.35
4.15
3.82
4.51
6.3
9.14
12.95
17.59
22.9
28.61
34.41
39.91
44.72
48.62
51.49
53.51
54.93
56.04
56.83
56.98
55.63
51.66
43.94
31.81
15.62
-3.13
-22.03
-38.4
-50.14
-56.5
-58.13
-56.79
-54.53
-52.89
-52.61
-53.65
-55.61
-58.11
-60.99
-64.03
-66.85
-68.86
-69.38
-68.08
-65.08
-60.98
-56.57
-52.52
-49.0
-45.78
-42.42
-38.46
-33.87
-28.88
-23.95
-19.59
-16.19
-13.86
-12.56
-12.07
-12.04
-12.22
-12.45
-12.9
-13.94
-16.0
-19.22
-23.2
-26.97
-29.17
-28.58
-24.51
-17.08
-7.16
3.97
14.89
24.52
32.05
37.23
40.11
41.07
40.64
39.31
37.4
34.89
31.62
27.34
22.16
16.53
11.25
7.15
4.72
3.87
3.95
4.05
3.39
1.64
-0.98
-3.9
-6.51
-8.53
-10.14
-11.84
-14.19
-17.57
-21.9
-26.75
-31.59
-35.87
-39.37
-42.0
-43.63
-43.95
-42.45
-38.41
-31.36
-21.34
-9.09
3.98
16.14
25.8
31.92
34.32
33.64
31.0
27.55
24.12
20.99
17.98
14.7
10.9
6.68
2.55
-0.87
-3.01
-3.64
-3.06
-1.93
-1.03
-1.03
-2.23
-4.5
-7.47
-10.59
-13.45
-15.9
-18.14
-20.56
-23.71
-28.05
-33.68
-40.22
-46.68
-51.61
-53.52
-51.32
-44.7
-34.3
-21.47
-7.76
5.45
17.28
27.31
35.32
41.07
44.17
44.36
41.63
36.61
30.31
23.94
18.5
14.43
11.59
9.4
7.28
4.88
2.36
0.15
-1.32
-1.89
-1.94
-2.25
-3.64
-6.63
-11.13
-16.42
-21.54
-25.65
-28.46
-30.41
-32.42
-35.59
-40.56
-47.18
-54.27
-59.94
-62.15
-59.36
-51.03
-37.89
-21.62
-4.36
11.79
25.42
35.81
42.93
47.14
48.89
48.54
46.33
42.46
37.18
30.93
24.33
18.09
12.88
9.1
6.82
5.69
5.16
4.57
3.53
1.94
-0.04
-2.04
-3.89
-5.64
-7.63
-10.36
-14.22
-19.19
-24.9
-30.77
-36.25
-41.22
-45.92
-50.73
-55.69
-60.2
-62.8
-61.76
-55.6
-43.78
-27.11
-7.5
12.51
30.52
44.73
54.41
59.67
61.25
60.21
57.43
53.55
48.81
43.34
37.27
31.11
25.61
21.64
19.86
20.34
22.52
25.31
27.5
28.11
26.84
23.96
20.17
16.25
12.62
9.32
5.94
2.02
-2.82
-8.57
-14.98
-21.7
-28.45
-35.06
-41.15
-46.1
-48.89
-48.33
-43.59
-34.47
-21.63
-6.48
9.18
23.66
35.58
44.04
48.59
49.12
46.07
40.31
33.11
25.82
19.51
14.65
11.04
8.06
4.91
1.29
-2.61
-6.08
-8.27
-8.71
-7.62
-5.89
-4.73
-5.29
-7.9
-12.14
-16.98
-21.18
-24.05
-25.61
-26.62
-28.25
-31.59
-37.07
-44.24
-51.83
-57.9
-60.58
-58.55
-51.47
-40.02
-25.72
-10.15
5.32
19.8
32.88
44.13
53.01
58.86
61.15
59.83
55.56
49.47
42.82
36.64
31.31
26.74
22.48
18.09
13.45
8.81
4.68
1.56
-0.26
-1.04
-1.39
-2.2
-4.25
-7.92
-13.07
-19.05
-24.98
-30.01
-33.73
-36.29
-38.44
-41.22
-45.52
-51.49
-58.2
-63.76
-65.78
-62.36
-52.85
-38.18
-20.64
-3.02
12.31
24.11
32.28
37.56
40.82
42.52
42.6
40.67
36.45
30.14
22.66
15.3
9.37
5.64
4.09
3.96
4.18
3.87
2.69
0.94
-0.84
-2.14
-2.96
-3.74
-5.16
-7.78
-11.75
-16.68
-21.86
-26.57
-30.46
-33.74
-37.09
-41.23
-46.44
-52.09
-56.64
-58.0
-54.37
-44.91
-30.21
-12.22
6.42
23.15
36.11
44.59
48.8
49.53
47.78
44.41
40.01
34.99
29.57
23.93
18.35
13.15
8.74
5.5
3.69
3.26
3.86
4.85
5.39
4.9
3.08
0.12
-3.45
-7.04
-10.24
-12.97
-15.53
-18.46
-22.21
-27.19
-33.47
-40.73
-48.29
-55.03
-59.59
-60.63
-57.24
-49.07
-36.7
-21.28
-4.3
12.6
27.95
40.46
49.25
53.78
54.23
51.31
46.23
40.35
34.65
29.66
25.29
21.22
17.13
13.08
9.41
6.67
5.26
5.19
6.09
7.09
7.25
5.75
2.19
-3.25
-9.9
-16.78
-23.01
-27.98
-31.76
-34.93
-38.47
-43.37
-50.07
-58.15
-66.1
-71.77
-72.86
-67.87
-56.48
-39.83
-20.09
0.19
18.72
34.06
45.53
53.21
57.43
58.73
57.46
54.0
48.77
42.31
35.38
28.79
23.32
19.32
16.73
15.05
13.71
12.39
11.05
10.0
9.54
9.68
9.88
9.27
6.9
2.3
-4.26
-11.92
-19.39
-25.66
-30.33
-33.94
-37.64
-42.77
-50.06
-59.06
-68.06
-74.37
-75.36
-69.33
-56.24
-37.68
-16.44
4.56
23.07
37.9
49.0
56.75
61.64
63.85
63.35
60.13
54.45
47.09
39.13
31.79
25.99
22.12
20.04
19.08
18.5
17.66
16.39
14.81
13.34
12.24
11.49
10.65
9.07
6.15
1.59
-4.37
-11.13
-17.79
-23.61
-28.2
-31.66
-34.74
-38.44
-43.79
-51.24
-60.29
-69.28
-75.76
-77.24
-71.96
-59.77
-42.05
-21.41
-0.71
17.69
32.53
43.57
51.21
55.95
57.96
57.15
53.33
46.75
38.23
29.11
20.94
14.84
11.21
9.52
8.82
8.04
6.64
4.64
2.55
0.84
-0.39
-1.48
-3.2
-6.23
-10.93
-17.18
-24.41
-31.98
-39.32
-46.17
-52.46
-58.27
-63.54
-68.24
-72.35
-75.92
-79.16
-82.03
-84.15
-84.53
-81.83
-74.73
-62.52
-45.52
-24.94
-2.73
19.15
39.06
55.94
69.24
78.76
84.43
86.22
84.37
79.32
72.01
63.64
55.51
48.64
43.53
39.98
37.38
35.09
32.77
30.67
29.39
29.47
30.98
33.3
35.32
35.88
34.34
30.75
25.82
20.47
15.43
10.94
6.77
2.52
-2.2
-7.4
-12.91
-18.41
-23.74
-29.05
-34.65
-40.84
-47.4
-53.52
-57.61
-57.91
-53.0
-42.31
-26.57
-7.55
12.3
30.59
45.37
55.68
61.38
63.06
61.8
58.64
54.45
49.68
44.49
38.73
32.47
26.04
20.14
15.73
13.46
13.48
15.21
17.56
19.19
19.27
17.59
14.61
11.26
8.29
5.98
3.95
1.42
-2.47
-8.0
-14.87
-22.19
-28.82
-34.02
-37.67
-40.34
-42.98
-46.6
-51.67
-58.06
-65.02
-71.15
-74.96
-74.95
-70.21
-60.49
-46.47
-29.43
-11.06
6.92
23.22
36.86
47.35
54.4
57.92
58.0
55.11
50.02
43.72
37.35
31.72
27.35
24.26
22.24
20.92
20.05
19.54
19.33
19.48
19.85
20.21
20.25
19.66
18.25
15.92
12.71
8.67
4.01
-1.14
-6.56
-12.05
-17.46
-22.67
-27.67
-32.38
-36.8
-40.75
-44.18
-47.14
-50.0
-53.4
-57.87
-63.49
-69.41
-74.0
-75.1
-70.91
-60.68
-45.06
-25.99
-6.0
12.44
27.71
39.1
46.82
51.47
53.78
54.32
53.36
51.09
47.55
42.95
37.68
32.29
27.45
23.74
21.53
20.8
21.27
22.32
23.39
23.95
23.72
22.73
21.14
19.22
17.07
14.69
11.83
8.31
4.01
-1.01
-6.38
-11.68
-16.48
-20.66
-24.32
-27.8
-31.49
-35.55
-39.99
-44.57
-49.14
-53.65
-58.14
-62.49
-66.16
-68.16
-67.12
-61.88
-51.76
-37.09
-19.09
0.29
18.86
34.61
46.07
52.65
54.55
52.83
48.83
43.93
39.01
34.37
29.92
25.39
20.84
16.66
13.53
12.08
12.54
14.68
17.82
21.05
23.49
24.62
24.17
22.35
19.58
16.33
13.01
9.79
6.55
2.98
-1.19
-6.12
-11.69
-17.47
-22.99
-27.81
-31.79
-35.07
-38.11
-41.33
-45.15
-49.71
-54.89
-60.39
-65.62
-69.75
-71.67
-70.26
-64.5
-54.04
-39.22
-21.22
-1.87
16.83
33.03
45.44
53.4
57.0
56.8
53.75
48.95
43.29
37.54
32.07
27.11
22.57
18.52
15.06
12.49
11.25
11.63
13.71
16.94
20.38
22.75
23.1
21.04
17.0
12.09
7.44
3.86
1.27
-1.01
-4.06
-8.56
-14.61
-21.53
-28.23
-33.87
-38.07
-41.2
-44.0
-47.3
-51.62
-57.09
-63.48
-70.08
-75.98
-79.88
-80.42
-76.37
-67.18
-53.09
-35.31
-15.62
4.11
22.16
37.37
48.98
56.62
60.17
59.86
56.29
50.45
43.6
36.91
31.25
26.91
23.77
21.42
19.49
17.94
16.93
16.87
17.92
19.94
22.34
24.32
25.08
24.09
21.35
17.14
12.14
6.98
2.14
-2.25
-6.35
-10.56
-15.38
-21.05
-27.56
-34.44
-40.97
-46.43
-50.41
-53.07
-55.2
-57.97
-62.34
-68.48
-75.27
-80.44
-81.25
-75.47
-62.51
-43.66
-21.76
-0.05
18.81
33.61
44.46
52.14
57.46
60.6
61.27
59.04
53.86
46.35
37.76
29.69
23.51
20.0
19.15
20.22
22.09
23.82
24.88
25.31
25.56
25.95
26.56
26.98
26.6
24.87
21.66
17.25
12.18
6.99
1.92
-3.04
-8.13
-13.56
-19.4
-25.54
-31.66
-37.49
-42.77
-47.46
-51.73
-55.95
-60.54
-65.7
-71.11
-75.77
-78.16
-76.52
-69.55
-56.8
-38.97
-17.77
4.53
25.46
42.94
55.57
62.84
65.14
63.57
59.55
54.42
49.06
43.76
38.47
33.09
27.8
23.14
19.78
18.3
18.84
21.06
24.21
27.3
29.34
29.67
28.05
24.81
20.79
16.89
13.78
11.57
9.62
7.01
2.89
-2.96
-10.11
-17.62
-24.54
-30.29
-34.78
-38.4
-41.7
-45.35
-49.91
-55.75
-62.8
-70.35
-76.92
-80.45
-78.95
-71.19
-57.31
-38.8
-18.13
2.17
20.24
35.11
46.65
55.0
60.29
62.36
61.06
56.54
49.42
40.94
32.59
25.66
20.89
18.32
17.33
17.15
17.18
17.2
17.46
18.34
19.97
21.98
23.66
24.13
22.84
19.86
15.63
10.91
6.26
1.88
-2.48
-7.22
-12.66
-18.82
-25.29
-31.47
-36.74
-40.92
-44.26
-47.62
-51.87
-57.39
-63.6
-68.78
-70.63
-67.06
-57.19
-41.58
-22.17
-1.52
18.05
34.9
48.21
57.66
63.19
64.82
62.83
57.87
50.96
43.29
35.86
29.33
23.96
19.82
16.94
15.44
15.41
16.75
19.06
21.54
23.38
23.86
22.71
20.07
16.38
12.16
7.76
3.3
-1.4
-6.5
-12.13
-18.14
-24.19
-29.86
-34.78
-38.92
-42.53
-46.14
-50.34
-55.6
-61.98
-68.99
-75.38
-79.4
-79.18
-73.22
-61.08
-43.6
-22.84
-1.47
17.98
33.74
45.11
52.27
55.98
57.0
55.9
53.02
48.67
43.25
37.42
31.92
27.36
24.19
22.39
21.71
21.76
22.14
22.58
22.91
23.07
22.94
22.45
21.38
19.45
16.41
12.1
6.68
0.51
-5.79
-11.65
-16.76
-21.19
-25.32
-29.62
-34.43
-39.88
-45.97
-52.53
-59.33
-65.85
-71.19
-74.0
-72.87
-66.73
-55.36
-39.59
-21.04
-1.68
16.65
32.61
45.33
54.34
59.45
60.76
58.75
54.32
48.58
42.64
37.33
32.98
29.54
26.84
24.76
23.31
22.65
22.77
23.5
24.49
25.2
25.22
24.27
22.33
19.42
15.75
11.49
6.88
2.18
-2.45
-6.96
-11.46
-16.2
-21.28
-26.6
-31.8
-36.41
-40.15
-43.2
-46.18
-50.02
-55.21
-61.4
-67.19
-70.34
-68.63
-60.62
-46.4
-27.57
-6.84
12.92
29.51
41.76
49.69
53.97
55.52
54.95
52.6
48.57
43.05
36.53
29.78
23.87
19.72
17.88
18.33
20.45
23.3
25.9
27.53
27.82
26.93
25.15
22.9
20.5
18.02
15.34
12.17
8.21
3.26
-2.57
-8.94
-15.26
-20.81
-25.11
-28.0
-29.89
-31.53
-33.97
-37.95
-43.77
-50.99
-58.39
-64.32
-67.04
-65.28
-58.55
-47.33
-32.76
-16.33
0.47
16.51
30.84
42.68
51.2
55.73
55.91
52.05
45.23
37.13
29.52
23.69
20.13
18.47
17.96
17.86
17.86
18.17
19.15
21.07
23.61
26.05
27.39
26.85
24.13
19.55
13.88
8.0
2.62
-2.0
-6.01
-9.91
-14.16
-19.04
-24.46
-29.93
-34.93
-39.07
-42.44
-45.56
-49.22
-53.89
-59.4
-64.61
-67.63
-66.43
-59.58
-46.83
-29.42
-9.66
9.71
26.3
38.59
46.25
49.81
50.36
49.05
46.7
43.7
40.1
35.77
30.69
25.31
20.34
16.77
15.36
16.26
18.85
21.98
24.31
24.81
23.26
20.1
16.26
12.64
9.69
7.27
4.83
1.75
-2.43
-7.62
-13.4
-19.1
-24.1
-28.07
-31.1
-33.65
-36.35
-39.9
-44.68
-50.73
-57.56
-64.2
-69.31
-71.41
-69.31
-62.35
-50.8
-35.62
-18.42
-0.92
15.43
29.55
40.79
48.71
53.03
53.67
50.94
45.67
39.11
32.75
27.65
24.3
22.47
21.57
21.03
20.59
20.42
20.79
21.91
23.58
25.23
26.13
25.64
23.43
19.56
14.49
8.93
3.66
-0.77
-4.22
-7.07
-10.06
-13.95
-19.12
-25.32
-31.72
-37.31
-41.34
-43.78
-45.38
-47.42
-51.12
-57.0
-64.37
-71.37
-75.45
-74.22
-66.47
-52.54
-34.36
-14.67
3.83
19.37
31.33
39.99
46.03
49.9
51.66
51.08
48.06
42.95
36.65
30.38
25.3
22.14
20.95
21.27
22.35
23.53
24.43
25.02
25.43
25.78
26.09
26.05
25.29
23.36
19.99
15.21
9.45
3.41
-2.19
-6.8
-10.46
-13.66
-17.24
-21.87
-27.68
-34.12
-40.14
-44.73
-47.45
-48.86
-50.25
-53.19
-58.57
-65.91
-73.33
-78.0
-77.24
-69.6
-55.43
-36.68
-16.24
3.13
19.59
32.35
41.54
47.6
50.96
51.82
50.31
46.71
41.59
35.82
30.25
25.62
22.29
20.26
19.35
19.3
19.86
20.87
22.18
23.48
24.53
24.98
24.59
23.36
21.39
18.91
16.12
13.13
9.84
6.15
1.93
-2.91
-8.23
-13.85
-19.51
-24.97
-30.01
-34.5
-38.29
-41.42
-44.19
-47.14
-51.01
-56.13
-62.03
-67.21
-69.44
-66.5
-57.14
-41.73
-22.15
-1.31
17.99
33.82
45.41
53.04
57.4
59.18
58.75
56.4
52.38
47.27
41.87
37.06
33.63
31.88
31.76
32.81
34.58
36.65
38.88
41.18
43.39
45.22
46.09
45.59
43.54
40.26
36.37
32.62
29.46
26.84
24.38
21.39
17.51
12.69
7.33
1.93
-3.13
-7.83
-12.63
-18.13
-25.0
-33.36
-42.86
-52.42
-60.52
-65.56
-66.21
-62.04
-53.47
-41.99
-29.36
-17.37
-7.18
0.76
6.57
10.74
13.54
15.16
15.48
14.57
12.51
9.7
6.81
4.43
3.25
3.43
4.86
7.03
9.56
12.28
15.39
19.36
24.13
29.25
33.56
35.94
35.83
33.6
30.44
27.57
25.69
24.14
21.66
16.82
9.13
-0.71
-11.3
-21.02
-29.21
-36.2
-43.24
-51.57
-61.82
-73.62
-85.7
-96.79
-105.45
-110.86
-112.4
-109.82
-103.19
-93.05
-80.48
-66.79
-53.6
-41.93
-32.42
-25.02
-19.22
-14.61
-10.89
-8.05
-6.12
-5.26
-5.06
-5.11
-4.83
-3.75
-1.99
0.23
2.49
4.68
7.07
10.46
15.52
22.48
30.89
39.31
46.27
50.45
51.39
49.55
46.06
42.01
37.99
34.01
29.28
23.25
15.47
6.15
-4.04
-14.36
-24.35
-34.07
-43.75
-53.91
-64.29
-74.01
-81.41
-84.49
-81.87
-73.32
-60.12
-44.46
-28.97
-15.36
-4.41
4.16
11.09
16.77
21.12
23.51
23.44
20.71
16.0
10.39
5.23
1.63
-0.0
0.14
1.14
2.0
1.73
0.04
-2.88
-6.31
-9.31
-11.33
-12.11
-12.1
-11.9
-12.33
-13.74
-16.13
-19.07
-21.96
-24.46
-26.44
-28.34
-30.64
-33.89
-38.29
-43.74
-49.91
-56.18
-61.92
-66.15
-67.92
-66.15
-60.05
-49.45
-34.85
-17.46
1.18
19.28
35.56
49.01
59.22
66.22
70.3
72.04
72.01
70.84
68.86
66.54
64.19
62.22
61.02
60.71
61.27
62.35
63.53
64.36
64.75
64.65
64.14
63.21
61.5
58.67
54.38
48.65
41.86
34.73
27.91
21.78
16.46
11.49
6.41
0.79
-5.5
-12.3
-19.27
-26.16
-32.91
-39.36
-45.33
-50.03
-52.31
-50.91
-45.0
-34.63
-20.88
-5.7
8.89
20.98
29.7
34.84
36.96
36.86
35.4
33.11
30.22
26.8
22.8
18.49
14.24
10.68
8.36
7.6
8.27
9.88
11.9
13.87
15.52
16.64
17.02
16.38
14.55
11.62
7.92
4.05
0.38
-3.14
-6.92
-11.42
-16.73
-22.39
-27.54
-31.55
-34.28
-36.54
-39.6
-44.43
-50.96
-57.86
-62.73
-63.05
-57.33
-45.64
-29.76
-12.5
3.48
16.53
26.22
33.36
38.99
43.8
47.8
50.44
51.02
49.32
45.72
41.07
36.59
33.2
31.36
30.96
31.41
31.9
31.87
31.07
29.59
27.94
26.5
25.44
24.6
23.48
21.48
18.2
13.57
7.98
2.15
-3.14
-7.38
-10.51
-12.98
-15.54
-18.8
-22.99
-27.91
-33.13
-38.23
-43.0
-47.26
-50.69
-52.56
-51.84
-47.48
-38.99
-26.79
-12.17
3.0
16.87
28.06
35.83
40.24
41.86
41.52
39.98
37.89
35.45
32.68
29.6
26.2
22.82
19.92
17.94
17.17
17.56
18.66
19.83
20.59
20.45
19.42
17.66
15.48
13.18
10.87
8.43
5.6
2.3
-1.62
-5.88
-10.19
-14.29
-18.02
-21.41
-24.6
-27.87
-31.37
-35.39
-39.89
-44.7
-49.18
-52.26
-52.64
-49.2
-41.57
-30.22
-16.73
-2.92
9.41
19.16
26.11
30.72
33.74
35.63
36.65
36.55
35.13
32.34
28.53
24.45
20.96
18.72
17.79
17.89
18.26
18.23
17.48
16.08
14.49
13.17
12.36
11.85
11.33
10.38
8.68
6.22
3.06
-0.62
-4.75
-9.11
-13.51
-17.63
-21.26
-24.45
-27.42
-30.65
-34.54
-39.29
-44.58
-49.73
-53.74
-55.71
-55.02
-51.37
-44.85
-35.74
-24.62
-12.13
0.8
13.07
23.56
31.29
35.85
37.42
36.79
34.99
33.01
31.43
30.32
29.42
28.22
26.46
24.09
21.47
19.15
17.73
17.55
18.39
19.69
20.49
20.12
18.26
15.19
11.61
8.36
5.93
4.19
2.71
0.66
-2.42
-6.64
-11.58
-16.54
-20.88
-24.26
-26.8
-28.79
-30.7
-32.91
-35.73
-39.28
-43.33
-47.3
-50.11
-50.5
-47.35
-40.22
-29.66
-17.06
-4.2
7.42
16.88
24.08
29.28
32.86
34.89
35.18
33.64
30.56
26.78
23.28
21.01
20.27
20.62
21.13
20.82
19.27
16.75
14.02
11.85
10.77
10.68
10.99
11.04
10.25
8.5
5.95
2.96
-0.16
-3.2
-6.13
-9.12
-12.23
-15.57
-18.99
-22.3
-25.28
-27.84
-29.97
-31.93
-34.17
-36.92
-40.41
-44.33
-47.91
-50.05
-49.67
-46.01
-39.01
-29.36
-18.06
-6.42
4.54
14.08
21.74
27.27
30.63
31.96
31.53
30.01
27.88
25.68
23.68
21.9
20.24
18.65
17.19
15.97
15.31
15.16
15.44
15.78
15.72
14.94
13.38
11.3
8.99
6.9
4.95
2.97
0.53
-2.69
-6.68
-11.07
-15.31
-19.04
-22.09
-24.83
-27.63
-30.78
-34.27
-37.76
-40.97
-43.81
-46.64
-49.77
-53.32
-56.62
-58.44
-57.22
-51.82
-42.13
-29.15
-14.73
-0.7
11.49
21.29
28.66
33.84
37.05
38.37
38.01
36.29
33.89
31.27
28.89
26.85
25.02
23.31
21.76
20.63
20.14
20.41
21.08
21.68
21.67
20.71
18.8
16.29
13.71
11.45
9.75
8.29
6.66
4.37
1.16
-2.85
-7.31
-11.67
-15.69
-19.26
-22.75
-26.41
-30.48
-34.89
-39.33
-43.6
-47.55
-51.49
-55.57
-59.85
-63.51
-65.27
-63.6
-57.33
-46.36
-31.66
-15.26
0.68
14.19
24.42
31.32
35.57
38.09
39.62
40.54
40.76
40.11
38.38
35.66
32.31
28.9
26.0
24.05
23.29
23.66
25.05
27.0
28.89
29.98
29.65
27.69
24.37
20.51
16.97
14.39
12.76
11.37
9.29
5.78
0.7
-5.42
-11.61
-16.94
-20.92
-23.75
-26.17
-29.01
-32.83
-37.72
-43.15
-48.51
-53.33
-57.47
-61.02
-63.85
-65.33
-64.27
-59.47
-50.08
-36.35
-19.65
-2.16
13.79
26.51
35.16
39.97
41.7
41.41
40.02
38.14
36.19
34.27
32.41
30.31
27.83
24.83
21.63
18.87
17.39
17.86
20.19
23.67
26.76
28.14
26.95
23.46
18.82
14.49
11.7
10.6
10.49
9.89
7.49
2.66
-4.18
-11.65
-18.2
-22.6
-24.66
-25.1
-25.2
-26.29
-29.11
-33.82
-39.81
-46.26
-52.08
-56.26
-57.9
-56.28
-51.18
-42.7
-31.57
-18.53
-4.56
9.51
22.85
34.55
43.65
49.2
50.81
48.63
43.8
37.93
32.69
29.2
27.64
27.33
27.05
25.81
23.15
19.61
16.42
14.88
15.9
19.13
23.19
26.13
26.26
22.9
16.92
10.22
4.79
2.03
1.71
2.51
2.52
0.19
-5.03
-12.41
-20.42
-27.45
-32.27
-34.79
-35.78
-36.73
-39.23
-44.34
-51.92
-60.6
-68.07
-71.69
-69.74
-61.73
-48.8
-33.08
-16.92
-2.0
10.94
22.07
31.92
40.48
47.24
51.17
51.42
48.01
42.11
35.59
30.41
27.85
27.79
29.16
30.37
30.05
27.89
24.58
21.41
19.68
20.12
22.31
25.06
26.72
25.84
21.97
15.77
8.83
2.93
-0.63
-1.89
-1.95
-2.65
-5.67
-11.6
-19.69
-28.16
-34.99
-38.83
-39.84
-39.45
-39.94
-43.3
-50.03
-58.85
-66.85
-70.54
-67.33
-56.64
-40.1
-20.99
-2.91
11.77
22.28
29.57
35.25
40.54
45.53
49.34
50.71
48.82
44.1
37.83
31.83
27.65
25.87
26.06
27.12
27.84
27.44
26.0
23.95
22.06
20.93
20.61
20.76
20.68
19.69
17.3
13.6
8.86
3.76
-0.99
-5.03
-8.22
-10.9
-13.62
-17.03
-21.3
-26.43
-31.83
-36.77
-40.81
-43.87
-46.46
-49.28
-52.81
-56.53
-59.15
-58.68
-53.31
-42.47
-26.96
-9.07
8.31
22.48
32.03
36.82
38.1
37.65
36.95
36.85
37.13
36.93
35.12
31.2
25.43
19.15
14.1
11.64
12.31
15.37
19.3
22.27
23.13
21.62
18.57
15.34
13.0
12.09
12.13
12.11
10.69
7.19
1.56
-5.35
-12.18
-17.77
-21.46
-23.5
-24.75
-26.5
-29.52
-34.2
-40.19
-46.58
-52.38
-56.51
-58.18
-56.75
-52.16
-44.55
-34.58
-23.11
-10.86
1.44
13.36
24.31
33.61
40.23
43.55
43.38
40.37
36.05
31.95
29.29
28.24
28.12
27.65
26.15
23.58
20.76
19.0
19.02
20.8
23.29
25.01
24.53
21.52
16.54
10.87
6.11
3.09
1.81
1.35
0.35
-2.46
-7.47
-14.2
-21.52
-27.83
-32.15
-34.29
-34.88
-35.22
-36.78
-40.49
-46.54
-54.2
-61.61
-66.63
-67.25
-62.32
-52.05
-38.03
-22.52
-7.75
4.75
14.8
22.84
29.59
35.5
40.3
43.29
43.9
42.03
38.17
33.58
29.39
26.38
24.88
24.53
24.71
24.99
25.08
24.89
24.7
24.56
24.37
23.97
23.04
21.22
18.48
14.93
10.79
6.67
2.97
-0.07
-2.42
-4.54
-7.19
-10.94
-16.03
-22.13
-28.23
-33.25
-36.56
-38.26
-39.44
-41.67
-45.86
-51.74
-57.63
-60.75
-58.68
-50.32
-36.48
-19.67
-3.11
10.7
20.5
26.46
29.98
32.32
34.34
36.09
37.03
36.43
34.06
30.22
25.7
21.77
19.34
18.86
20.0
21.92
23.53
24.13
23.55
22.1
20.62
19.63
19.31
19.33
18.91
17.37
14.32
9.97
4.85
-0.18
-4.52
-7.92
-10.46
-12.59
-14.66
-17.07
-19.87
-23.19
-26.9
-30.99
-35.41
-39.98
-44.54
-48.63
-51.78
-53.1
-51.77
-46.93
-38.28
-26.18
-11.76
3.14
16.61
26.84
33.05
35.23
34.39
31.92
29.21
27.26
26.25
25.84
25.12
23.52
20.75
17.34
14.34
12.83
13.54
16.16
19.64
22.29
22.89
20.92
17.03
12.8
9.66
8.52
8.91
9.55
8.66
5.2
-0.97
-8.78
-16.42
-22.34
-25.71
-27.0
-27.39
-28.6
-31.75
-37.24
-44.42
-51.79
-57.76
-60.73
-59.92
-55.13
-47.1
-36.84
-25.59
-14.24
-3.14
7.57
17.94
27.47
35.37
40.43
41.93
39.92
35.5
30.52
26.63
24.92
25.14
26.28
26.87
25.94
23.39
20.03
17.24
16.09
17.09
19.59
22.31
23.64
22.49
18.7
13.11
7.27
2.48
-0.38
-1.63
-2.25
-3.58
-6.68
-11.84
-18.49
-25.38
-31.31
-35.31
-37.46
-38.54
-40.02
-43.27
-48.82
-55.87
-62.19
-65.07
-62.18
-52.87
-38.31
-21.27
-4.83
8.75
18.65
25.56
30.73
35.29
39.32
42.31
43.31
41.84
38.21
33.39
28.76
25.43
23.97
24.14
25.32
26.47
26.87
26.14
24.42
22.38
20.77
20.11
20.22
20.39
19.39
16.46
11.54
5.47
-0.27
-4.55
-6.88
-7.98
-9.11
-11.67
-16.15
-22.08
-28.22
-33.17
-36.16
-37.3
-37.81
-39.15
-42.57
-48.07
-54.31
-58.95
-59.37
-53.96
-42.61
-27.13
-10.24
5.02
16.8
24.58
29.17
32.13
34.62
37.22
39.48
40.62
39.74
36.7
32.02
26.82
22.52
20.02
19.73
21.12
23.25
24.8
24.92
23.34
20.45
17.29
14.7
13.24
12.69
12.34
11.09
8.28
3.83
-1.67
-7.07
-11.53
-14.51
-16.36
-17.79
-19.93
-23.39
-28.34
-34.22
-40.04
-45.08
-48.91
-51.88
-54.43
-56.88
-58.67
-58.63
-55.23
-47.27
-34.86
-19.22
-2.72
12.14
23.34
30.16
33.01
33.21
32.52
32.11
32.55
33.36
33.66
32.43
29.36
24.82
19.9
