-92.31
-99.41
-109.2
-122.13
-137.38
-152.36
-162.93
-164.32
-152.73
-127.01
-89.48
-45.37
-1.11
37.79
68.15
89.42
102.8
110.05
112.56
111.16
106.49
99.32
90.76
81.94
73.75
66.58
60.44
55.15
50.67
47.23
45.32
45.42
47.62
51.39
55.58
58.61
59.01
55.93
49.54
40.91
31.56
22.78
15.05
7.9
0.15
-9.4
-21.36
-35.35
-50.21
-64.34
-76.41
-85.85
-93.03
-99.26
-106.44
-116.47
-130.38
-147.49
-164.84
-177.49
-179.95
-168.19
-141.4
-102.69
-58.22
-15.01
21.31
47.98
65.12
74.7
78.92
79.4
77.0
72.25
65.96
59.2
52.96
47.77
43.56
39.99
37.01
35.2
35.71
39.63
47.14
57.09
66.98
73.79
75.02
69.39
57.05
39.28
17.77
-5.82
-30.1
-53.99
-76.8
-98.42
-119.54
-141.5
-165.58
-191.89
-218.54
-241.66
-256.7
-260.37
-252.16
-234.71
-212.61
-190.29
-170.22
-152.35
-134.88
-115.87
-94.58
-71.86
-49.49
-28.89
-10.36
7.06
24.77
43.76
64.0
84.75
105.22
125.04
144.31
163.0
180.52
195.56
206.64
212.88
214.28
211.52
205.42
196.62
185.85
174.4
164.3
157.85
156.35
159.15
163.59
165.82
162.44
151.61
133.47
109.78
83.24
56.84
33.28
14.46
0.97
-8.18
-15.35
-23.4
-34.49
-49.16
-66.13
-82.97
-96.99
-105.89
-108.15
-102.73
-89.18
-67.9
-40.65
-10.75
17.32
39.01
50.97
51.98
43.12
27.24
7.95
-11.19
-27.22
-37.98
-42.37
-40.53
-34.05
-25.72
-18.77
-15.83
-17.98
-24.28
-32.27
-38.87
-41.62
-39.49
-33.21
-24.87
-17.09
-11.97
-10.54
-12.63
-17.13
-22.74
-28.5
-34.14
-39.89
-46.11
-52.72
-58.99
-63.5
-64.36
-59.43
-46.7
-24.68
6.97
46.77
91.16
134.97
172.67
200.11
215.88
221.75
221.93
221.5
224.63
233.21
246.41
260.93
271.99
274.59
264.93
241.45
205.18
159.39
108.41
56.52
6.96
-38.28
-78.27
-112.6
-141.28
-164.76
-184.09
-200.78
-216.44
-232.23
-248.37
-264.28
-278.95
-291.59
-301.97
-310.52
-317.93
-324.66
-330.84
-336.11
-339.84
-341.12
-338.7
-330.95
-316.05
-292.53
-259.79
-218.56
-170.64
-118.36
-64.03
-9.6
43.04
91.76
134.13
167.83
191.33
204.57
209.04
207.19
201.59
194.33
186.76
179.71
173.79
169.47
167.15
166.93
168.61
171.78
175.87
180.09
183.41
184.63
182.54
176.3
165.74
151.35
134.22
115.52
96.22
76.96
58.16
40.19
23.4
8.0
-6.35
-20.54
-35.83
-52.99
-71.35
-88.31
-99.76
-101.41
-90.47
-66.84
-33.11
6.44
47.17
85.05
116.73
139.24
149.86
146.53
128.91
99.25
62.4
24.64
-8.01
-31.53
-44.7
-48.81
-46.64
-41.34
-35.35
-29.97
-25.37
-20.99
-16.15
-10.58
-4.77
0.17
2.93
2.69
-0.5
-5.62
-11.1
-15.59
-18.7
-21.38
-25.87
-35.23
-52.47
-79.88
-118.4
-167.27
-223.88
-283.67
-340.44
-387.11
-417.1
-425.99
-412.85
-380.52
-334.6
-281.99
-229.04
-180.6
-139.68
-107.84
-85.37
-71.37
-63.49
-57.93
-50.17
-36.08
-13.26
18.04
54.7
91.54
122.66
143.06
150.16
144.63
130.12
111.97
95.32
83.44
77.12
75.1
75.13
74.97
72.85
67.49
57.88
43.51
24.92
4.0
-16.16
-32.29
-42.29
-46.21
-46.16
-45.18
-45.58
-47.57
-49.07
-46.8
-38.07
-22.22
-1.26
21.03
40.75
55.55
65.27
71.44
75.8
79.04
80.46
78.6
72.49
62.63
51.05
40.46
33.06
29.68
29.65
31.44
33.62
35.54
37.49
40.27
44.46
49.9
55.52
59.7
60.93
58.44
52.55
44.44
35.63
27.41
20.26
13.83
7.16
-0.9
-11.2
-23.95
-38.43
-52.97
-65.07
-71.92
-71.09
-61.24
-42.7
-17.47
11.27
40.11
66.28
88.12
105.15
117.55
125.69
129.8
129.99
126.44
119.72
110.79
100.85
91.14
82.53
75.46
69.94
65.66
62.25
59.47
57.26
55.61
54.55
53.82
52.78
50.52
46.15
39.11
29.54
18.2
6.22
-5.28
-15.65
-24.87
-33.36
-41.82
-50.89
-60.96
-71.99
-83.3
-93.45
-100.29
-101.42
-94.9
-79.99
-57.58
-30.14
-0.96
26.61
50.08
68.15
80.65
88.26
91.91
92.5
90.68
86.85
81.27
74.34
66.68
59.14
52.64
47.81
44.84
43.44
43.06
43.09
43.17
43.15
42.96
42.41
41.12
38.47
33.92
27.17
18.39
8.19
-2.54
-12.95
-22.45
-30.92
-38.74
-46.57
-55.23
-65.3
-76.81
-88.98
-100.04
-107.54
-108.9
-102.21
-86.95
-64.31
-36.94
-8.09
19.2
42.85
61.87
76.11
85.83
91.38
93.09
91.39
86.92
80.55
73.19
65.68
58.72
52.7
47.89
44.43
42.3
41.36
41.3
41.62
41.72
41.05
39.16
35.81
31.0
24.84
17.49
9.17
0.06
-9.6
-19.49
-29.24
-38.47
-46.9
-54.46
-61.44
-68.37
-75.96
-84.77
-94.76
-104.98
-113.49
-117.7
-115.16
-104.45
-85.83
-61.23
-33.79
-6.85
16.84
35.68
49.16
57.62
61.77
62.38
60.23
56.04
50.51
44.3
37.99
32.15
27.25
23.71
21.75
21.39
22.37
24.27
26.56
28.81
30.72
31.99
32.29
31.19
28.25
23.21
16.16
7.62
-1.66
-10.86
-19.44
-27.18
-34.15
-40.68
-47.14
-53.99
-61.63
-70.3
-79.77
-89.12
-96.56
-99.83
-96.79
-86.29
-68.68
-45.83
-20.63
3.92
25.42
42.58
55.07
63.24
67.65
68.88
67.42
63.79
58.53
52.18
45.26
38.2
31.5
25.72
21.45
19.17
19.02
20.66
23.27
25.92
27.67
27.94
26.57
23.69
19.59
14.54
8.73
2.17
-5.16
-13.21
-21.8
-30.53
-38.86
-46.3
-52.6
-57.93
-62.86
-68.23
-74.82
-82.99
-92.3
-101.36
-108.07
-110.06
-105.52
-93.74
-75.5
-52.84
-28.48
-5.0
15.66
32.52
45.26
54.0
59.06
60.91
60.11
57.36
53.4
48.81
44.0
39.23
34.7
30.66
27.48
25.54
25.02
25.85
27.59
29.57
31.07
31.53
30.65
28.48
25.37
21.69
17.68
13.33
8.3
2.25
-4.95
-13.08
-21.59
-29.79
-37.21
-43.77
-49.79
-55.84
-62.59
-70.41
-79.28
-88.54
-96.83
-102.27
-102.82
-96.93
-84.12
-65.3
-42.6
-18.73
3.71
22.87
37.83
48.42
54.91
57.73
57.37
54.41
49.54
43.63
37.45
31.6
26.45
22.18
18.87
16.65
15.63
15.79
16.95
18.75
20.66
22.14
22.78
22.31
20.62
17.65
13.35
7.73
0.91
-6.81
-14.91
-22.83
-30.09
-36.48
-42.06
-47.18
-52.33
-57.94
-64.39
-71.82
-80.01
-88.23
-95.11
-98.79
-97.37
-89.52
-75.03
-55.07
-31.88
-8.16
13.61
31.79
45.56
54.79
59.76
60.88
58.76
54.16
48.03
41.26
34.62
28.5
23.1
18.53
14.92
12.55
11.74
12.58
14.79
17.75
20.58
22.48
22.87
21.59
18.83
14.98
10.44
5.39
-0.18
-6.46
-13.58
-21.57
-30.2
-39.13
-47.92
-56.27
-64.04
-71.34
-78.53
-86.08
-94.3
-103.09
-111.47
-117.69
-119.42
-114.47
-101.65
-81.32
-55.54
-27.43
-0.4
22.87
40.88
53.46
61.35
65.64
67.36
67.18
65.48
62.41
58.12
52.93
47.35
42.01
37.58
34.54
33.09
33.21
34.62
36.86
39.39
41.5
42.49
41.81
39.24
35.0
29.61
23.7
17.61
11.35
4.55
-3.16
-11.94
-21.52
-31.35
-40.74
-49.15
-56.32
-62.39
-67.95
-73.9
-81.17
-90.2
-100.39
-109.75
-115.35
-114.12
-104.03
-85.07
-59.38
-30.45
-2.1
22.75
42.67
57.56
68.06
74.93
78.65
79.39
77.29
72.7
66.33
59.13
52.17
46.23
41.83
39.15
38.15
38.69
40.51
43.26
46.4
49.29
51.19
51.48
49.79
46.12
40.84
34.5
27.68
20.68
13.46
5.7
-2.95
-12.6
-22.9
-33.1
-42.34
-50.08
-56.34
-61.79
-67.49
-74.44
-83.16
-93.35
-103.71
-112.13
-116.09
-113.38
-102.71
-84.3
-59.81
-32.02
-4.04
21.38
42.44
58.29
68.96
74.94
76.88
75.52
71.63
66.0
59.45
52.72
46.43
41.02
36.79
33.92
32.49
32.46
33.72
35.93
38.59
41.04
42.56
42.53
40.68
37.05
32.03
26.14
19.79
13.15
6.14
-1.37
-9.45
-17.9
-26.32
-34.26
-41.39
-47.61
-53.11
-58.37
-64.04
-70.76
-78.86
-87.95
-96.65
-102.74
-103.56
-96.94
-82.02
-59.78
-32.77
-4.43
21.87
43.76
60.08
70.82
76.69
78.57
77.32
73.69
68.34
61.89
54.98
48.22
42.12
37.15
33.68
31.96
32.13
34.05
37.31
41.21
44.84
47.25
47.66
45.71
41.56
35.77
29.14
22.35
15.71
9.08
2.04
-5.91
-14.98
-24.97
-35.27
-45.12
-53.85
-61.1
-67.05
-72.38
-78.06
-85.03
-93.66
-103.28
-112.05
-117.31
-116.25
-107.03
-89.51
-65.46
-37.98
-10.55
14.05
34.29
49.81
60.96
68.19
71.76
71.82
68.72
63.25
56.6
50.12
44.86
41.32
39.38
38.54
38.27
38.27
38.59
39.48
41.18
43.57
46.08
47.79
47.76
45.44
40.9
34.76
27.88
20.94
14.08
7.03
-0.69
-9.37
-18.82
-28.43
-37.44
-45.29
-51.88
-57.61
-63.17
-69.27
-76.39
-84.6
-93.42
-101.64
-107.47
-108.89
-104.15
-92.43
-74.19
-51.21
-26.07
-1.48
20.4
38.26
51.69
60.83
66.16
68.25
67.72
65.24
61.48
57.09
52.63
48.52
44.99
42.13
40.01
38.72
38.5
39.54
41.86
45.14
48.62
51.28
52.08
50.39
46.19
40.07
33.02
25.93
19.36
13.28
7.28
0.79
-6.55
-14.74
-23.34
-31.67
-39.05
-45.08
-49.76
-53.5
-57.14
-61.66
-67.96
-76.35
-86.13
-95.37
-101.3
-101.13
-93.05
-77.06
-55.09
-30.34
-6.27
14.55
30.89
42.81
51.06
56.47
59.55
60.45
59.29
56.3
51.98
47.04
42.19
38.04
34.96
33.09
32.42
32.83
34.15
36.14
38.48
40.71
42.25
42.5
40.99
37.57
32.43
26.08
19.17
12.24
5.55
-0.86
-7.14
-13.37
-19.48
-25.29
-30.56
-35.26
-39.53
-43.83
-48.66
-54.53
-61.65
-69.82
-78.27
-85.63
-90.09
-89.81
-83.47
-70.77
-52.69
-31.28
-9.23
10.89
27.2
38.8
45.78
48.86
49.08
47.46
44.73
41.32
37.43
33.23
28.95
25.04
22.04
20.45
20.53
22.21
25.07
28.48
31.73
34.13
35.18
34.59
32.37
28.84
24.45
19.69
14.81
9.74
4.12
-2.43
-10.12
-18.81
-27.99
-37.0
-45.18
-52.17
-57.95
-62.9
-67.69
-73.14
-79.84
-87.82
-96.2
-103.09
-106.06
-102.87
-92.32
-74.81
-52.31
-27.74
-4.06
16.53
33.06
45.52
54.44
60.41
63.86
65.1
64.47
62.42
59.5
56.23
52.98
50.02
47.63
46.13
45.92
47.27
50.07
53.85
57.69
60.62
61.91
61.24
58.77
54.98
50.4
45.45
40.28
34.87
29.13
23.05
16.76
10.56
4.74
-0.43
-4.84
-8.53
-11.58
-14.12
-16.33
-18.46
-20.92
-24.01
-27.65
-31.08
-32.71
-30.47
-22.41
-7.46
14.03
40.38
68.99
97.1
122.36
143.14
158.33
167.16
168.97
163.32
150.24
130.33
104.88
75.56
44.17
12.38
-18.28
-46.4
-70.66
-89.94
-103.51
-111.43
-114.64
-115.0
-114.95
-117.01
-123.19
-134.49
-150.57
-169.78
-189.54
-207.0
-219.83
-226.75
-227.7
-223.52
-215.41
-204.53
-191.72
-177.56
-162.68
-147.8
-133.88
-121.9
-112.73
-106.86
-104.12
-103.48
-103.02
-100.2
-92.52
-78.24
-57.11
-30.5
-1.05
28.2
54.62
76.62
93.8
106.58
115.72
121.9
125.48
126.57
125.21
121.6
116.24
109.88
103.48
97.94
93.95
91.86
91.59
92.72
94.51
96.26
97.24
97.02
95.37
92.23
87.67
81.73
74.5
66.1
56.74
46.66
36.14
25.49
14.99
4.9
-4.58
-13.34
-21.52
-29.41
-37.49
-46.21
-55.78
-65.76
-74.98
-81.55
-83.3
-78.46
-66.32
-47.71
-24.88
-0.89
21.28
39.52
52.92
61.7
66.67
68.7
68.43
66.16
62.07
56.45
49.81
42.97
36.85
32.28
29.72
29.2
30.32
32.42
34.84
37.04
38.72
39.67
39.66
38.47
35.82
31.64
25.99
19.12
11.3
2.76
-6.33
-15.81
-25.45
-34.89
-43.77
-51.81
-58.93
-65.26
-71.22
-77.38
-84.44
-92.81
-102.34
-111.91
-119.44
-122.25
-117.94
-105.21
-84.49
-57.95
-28.83
-0.57
24.08
43.54
57.35
65.96
70.19
71.05
69.49
66.33
62.21
57.57
52.73
47.97
43.64
40.2
38.17
37.94
39.55
42.55
46.14
49.33
51.25
51.42
49.76
46.5
41.91
36.15
29.19
20.99
11.62
1.38
-9.18
-19.45
-28.96
-37.49
-45.1
-52.12
-59.11
-66.71
-75.51
-85.64
-96.48
-106.35
-112.73
-112.91
-104.91
-88.37
-64.82
-37.34
-9.6
15.2
35.01
49.17
58.03
62.52
63.55
61.85
57.9
52.08
44.85
36.83
28.89
22.01
17.04
14.47
14.31
16.07
18.94
22.19
25.22
27.74
29.56
30.52
30.34
28.65
25.12
19.65
12.51
4.26
-4.3
-12.45
-19.76
-26.16
-32.03
-37.95
-44.67
-52.77
-62.44
-73.12
-83.32
-90.78
-92.9
-87.56
-74.0
-53.19
-27.69
-0.9
23.98
44.72
60.36
71.03
77.34
79.91
79.19
75.49
69.27
61.26
52.55
44.33
37.63
33.01
30.49
29.63
29.84
30.6
31.62
32.8
34.03
35.01
35.14
33.68
29.92
23.56
14.8
4.4
-6.62
-17.28
-26.92
-35.37
-42.92
-50.27
-58.25
-67.68
-79.01
-91.89
-104.94
-115.75
-121.34
-119.1
-107.68
-87.63
-61.34
-32.27
-3.93
21.01
41.1
55.99
65.99
71.64
73.54
72.38
69.03
64.46
59.55
54.89
50.67
46.79
43.14
39.81
37.16
35.66
35.58
36.75
38.62
40.36
41.21
40.7
38.62
34.93
29.64
22.78
14.39
4.71
-5.74
-16.34
-26.39
-35.46
-43.56
-51.15
-59.12
-68.35
-79.27
-91.28
-102.61
-110.47
-111.89
-104.71
-88.4
-64.41
-35.82
-6.35
20.6
42.75
59.17
70.13
76.57
79.59
80.12
78.72
75.71
71.26
65.57
59.04
52.26
45.93
40.71
37.04
35.06
34.59
35.17
36.26
37.36
38.07
38.11
37.29
35.34
31.99
26.94
20.05
11.46
1.66
-8.6
-18.55
-27.61
-35.58
-42.73
-49.63
-57.07
-65.72
-75.77
-86.61
-96.68
-103.64
-104.9
-98.52
-83.81
-61.72
-34.61
-5.52
22.63
47.69
68.43
84.47
95.92
103.17
106.71
107.26
105.62
102.71
99.38
96.22
93.57
91.53
90.08
89.18
88.83
89.03
89.77
91.0
92.58
94.29
95.63
95.65
92.86
85.46
71.6
49.84
19.72
-17.86
-60.49
-104.42
-145.03
-177.96
-199.89
-209.29
-206.53
-193.46
-173.12
-149.34
-126.55
-109.22
-100.99
-103.35
-114.54
-129.44
-140.76
-141.33
-126.38
-95.09
-50.4
2.35
57.24
109.26
154.84
191.64
218.07
232.7
234.29
222.06
196.19
158.53
112.57
63.22
16.06
-23.73
-52.36
-68.15
-71.75
-65.58
-52.9
-37.05
-20.61
-5.26
7.96
18.44
25.58
28.87
27.88
22.48
13.01
0.28
-14.56
-30.29
-45.86
-60.72
-74.77
-88.28
-101.52
-114.49
-126.74
-137.5
-146.07
-151.87
-154.7
-154.46
-151.08
-144.39
-134.31
-120.99
-105.12
-87.99
-71.13
-56.16
-44.28
-36.08
-31.42
-29.64
-29.77
-30.84
-32.03
-32.69
-32.36
-30.66
-27.28
-21.91
-14.38
-4.67
6.97
19.99
33.62
46.85
58.7
68.29
75.05
78.76
79.65
78.37
75.81
72.86
70.07
67.5
64.59
60.53
54.58
46.55
37.04
27.08
17.79
9.73
2.57
-5.01
-14.43
-26.4
-40.37
-54.68
-67.29
-76.41
-81.26
-82.19
-80.84
-79.6
-81.15
-87.97
-101.91
-123.71
-152.5
-185.78
-219.68
-250.15
-272.92
-283.99
-279.78
-258.14
-218.96
-164.33
-98.11
-24.85
49.88
122.04
189.95
253.94
314.56
371.48
423.65
469.89
509.51
539.41
557.01
561.35
553.02
532.77
500.84
458.04
406.59
350.13
288.34
221.33
151.2
82.31
18.44
-39.02
-90.37
-136.69
-179.11
-224.57
-278.5
-341.55
-408.69
-473.48
-531.52
-580.62
-620.03
-613.86
-541.19
-410.89
-258.06
-115.77
0.91
91.11
159.88
213.06
255.3
283.41
296.0
294.4
284.4
272.48
262.44
255.49
251.11
247.75
238.59
220.82
194.49
163.88
134.07
108.19
87.1
70.2
56.16
40.95
21.91
-1.14
-25.15
-46.35
-62.69
-74.03
-81.41
-86.25
-90.85
-96.43
-103.24
-110.23
-116.32
-121.11
-124.67
-126.67
-126.33
-123.21
-117.22
-109.15
-100.13
-91.4
-83.74
-76.93
-69.68
-60.42
-48.32
-33.89
-19.21
-6.64
2.16
7.19
10.22
13.68
19.27
27.28
36.36
44.26
49.53
52.07
53.22
54.9
58.17
62.37
65.85
66.9
64.8
60.74
57.02
55.82
58.02
62.65
67.23
69.26
67.36
61.53
53.12
43.59
33.63
22.96
10.5
-4.72
-22.84
-42.92
-63.2
-81.66
-96.76
-107.6
-113.69
-115.06
-111.88
-104.6
-94.11
-81.78
-68.71
-55.85
-43.51
-31.36
-19.21
-7.37
3.21
11.11
15.09
15.26
13.1
11.23
12.46
18.31
28.57
40.35
50.41
56.4
58.07
56.63
54.11
52.63
53.47
56.84
61.27
65.35
68.71
72.03
76.25
82.06
89.67
98.67
108.45
116.51
121.4
123.7
125.41
127.88
131.12
134.3
136.0
135.01
125.62
105.5
78.03
50.1
27.05
10.58
-0.15
-7.46
-13.77
-31.54
-67.46
-117.44
-170.68
-218.66
-258.3
-289.95
-315.2
-335.83
-369.97
-427.7
-502.64
-578.36
-642.31
-690.55
-724.76
-748.44
-764.89
-798.18
-861.77
-948.09
-1037.37
-1115.74
-1181.02
-1237.0
-1287.76
-1198.47
-917.76
-513.12
-109.39
214.62
444.73
598.26
698.71
765.55
811.61
822.16
788.37
720.83
643.63
577.22
531.25
506.97
500.66
505.96
499.59
467.82
415.45
359.54
314.2
284.46
268.57
262.14
260.66
250.41
224.23
186.26
147.08
114.86
92.09
77.89
70.39
67.66
62.71
51.33
34.14
16.95
4.47
-0.96
0.91
8.7
19.77
29.22
33.44
32.1
27.7
22.77
19.13
17.37
17.05
16.67
14.62
9.82
1.83
-8.49
-19.93
-31.02
-40.23
-46.53
-49.85
-50.68
-50.11
-49.93
-52.48
-59.95
-73.22
-90.66
-108.73
-122.98
-130.1
-129.19
-121.72
-110.36
-96.87
-83.78
-71.0
-57.33
-41.76
-25.12
-9.82
1.5
7.86
10.44
12.6
18.57
30.88
49.79
72.91
96.72
118.08
135.34
148.22
157.76
165.98
175.4
188.28
205.77
226.96
248.43
265.01
271.65
265.49
247.23
220.71
191.04
162.4
136.67
113.36
90.8
67.6
43.84
21.03
1.49
-12.25
-18.87
-18.51
-12.86
-4.8
2.52
6.86
7.33
4.72
1.03
-1.73
-2.06
0.22
4.28
8.43
11.06
11.31
9.21
5.7
2.11
-0.39
-1.23
-0.27
2.04
5.07
8.04
10.0
10.01
7.49
2.7
-3.42
-9.44
-14.0
-16.54
-17.68
-18.87
-21.63
-27.02
-34.58
-42.81
-49.76
-53.89
-54.96
-53.82
-52.09
-51.01
-51.15
-52.12
-53.12
-53.67
-53.92
-54.73
-56.42
-58.64
-59.77
-57.65
-50.74
-39.07
-24.59
-10.67
-0.78
3.37
2.53
-0.49
-2.06
0.2
6.08
13.12
18.05
18.4
14.18
7.66
2.01
-0.2
1.47
5.45
9.15
10.74
10.0
8.56
8.71
11.85
17.74
24.08
28.11
27.64
22.53
14.6
6.6
0.65
-2.69
-4.4
-6.32
-9.85
-15.43
-22.56
-30.26
-37.7
-44.44
-50.15
-54.43
-56.8
-56.98
-55.15
-51.97
-48.22
-44.23
-39.48
-33.08
-24.21
-12.89
-0.38
11.32
20.2
25.02
25.94
24.6
23.07
23.27
25.98
30.81
36.32
40.87
43.19
42.82
40.53
37.68
35.82
36.04
38.53
42.25
45.43
46.24
43.43
37.34
29.58
22.35
17.42
15.1
14.16
12.62
8.86
2.38
-5.78
-13.96
-20.36
-23.81
-24.07
-21.57
-17.39
-12.81
-9.5
-8.85
-11.8
-18.1
-26.21
-33.76
-38.17
-38.02
-33.27
-25.63
-17.34
-10.35
-5.45
-1.98
1.35
5.75
11.34
17.0
20.98
21.96
19.79
15.72
12.09
10.92
13.3
18.41
23.9
26.87
25.29
18.99
9.96
1.74
-2.49
-1.09
5.01
13.0
19.24
21.18
18.36
12.41
6.35
2.9
3.31
6.62
10.35
11.29
7.27
-1.87
-14.3
-26.66
-35.63
-39.33
-38.0
-33.76
-29.65
-28.28
-30.8
-36.81
-44.43
-51.31
-55.21
-54.82
-49.89
-41.12
-30.35
-19.53
-10.43
-3.82
0.61
4.33
8.77
14.79
21.91
28.44
32.82
34.22
33.33
31.96
32.02
34.68
39.53
45.07
49.39
51.22
50.24
47.16
43.09
38.99
35.36
32.01
28.48
24.29
19.58
14.79
10.58
7.65
5.81
4.47
2.91
0.6
-2.47
-5.46
-7.67
-8.76
-8.95
-9.41
-11.3
-15.19
-20.9
-27.54
-33.89
-39.23
-43.54
-47.18
-50.53
-53.44
-54.96
-53.61
-48.52
-39.77
-28.78
-17.73
-8.5
-2.17
1.43
3.24
4.33
5.21
5.92
6.19
5.87
5.43
5.37
6.16
7.82
9.93
11.9
13.4
14.39
15.11
15.91
16.77
17.51
17.5
16.22
13.26
9.08
4.41
0.44
-1.51
-0.89
1.85
5.32
7.38
6.25
1.52
-5.85
-13.65
-19.19
-21.09
-19.61
-16.82
-15.8
-19.02
-27.04
-38.35
-49.84
-58.34
-61.96
-60.69
-56.17
-50.39
-44.95
-40.18
-35.3
-29.5
-22.23
-13.9
-5.34
2.32
8.42
12.65
15.02
15.63
14.71
12.7
10.39
8.91
9.21
11.63
15.67
19.78
22.39
22.69
21.06
18.94
18.02
19.06
21.54
23.67
23.35
19.53
12.72
5.07
-0.83
-3.02
-1.36
2.36
5.42
5.32
1.31
-5.46
-12.25
-16.38
-16.35
-12.86
-8.31
-5.73
-7.54
-14.15
-24.11
-34.68
-42.78
-46.38
-44.93
-39.37
-31.69
-24.04
-17.56
-12.37
-7.79
-2.64
3.55
10.47
17.12
22.35
25.17
25.49
23.73
20.63
17.2
14.33
12.58
12.25
13.34
15.44
17.99
20.21
21.33
20.91
19.06
16.36
13.73
12.05
11.38
11.19
10.37
8.12
4.42
0.01
-3.81
-6.27
-7.35
-7.87
-8.64
-10.17
-12.29
-14.23
-15.74
-16.94
-18.62
-21.59
-26.44
-32.79
-39.87
-46.51
-51.42
-54.01
-53.99
-51.63
-47.3
-41.67
-35.17
-28.13
-20.8
-13.33
-6.01
0.72
6.33
10.58
13.38
14.86
15.39
15.16
14.34
13.02
11.68
10.8
11.01
12.65
15.42
18.57
21.33
23.39
24.83
26.3
27.76
28.78
28.63
26.49
22.54
17.78
13.8
11.79
12.07
13.69
14.97
14.32
11.0
5.45
-0.87
-6.09
-8.79
-8.7
-6.91
-5.61
-7.08
-12.77
-22.28
-33.61
-43.73
-49.96
-51.1
-47.93
-42.7
-37.89
-34.87
-33.26
-31.26
-26.79
-18.79
-8.09
3.1
12.24
17.65
19.32
18.52
17.22
16.72
17.56
19.33
21.35
23.07
24.21
24.87
25.12
25.17
25.17
25.43
26.29
27.92
30.05
32.03
32.97
31.98
28.9
24.24
19.14
15.29
13.92
15.31
18.4
21.14
20.95
16.51
8.22
-1.79
-10.23
-14.52
-13.89
-9.92
-5.65
-4.57
-8.54
-17.18
-28.15
-37.96
-43.72
-44.02
-39.48
-32.18
-24.58
-18.5
-14.4
-11.4
-7.99
-3.11
3.52
10.99
17.6
21.55
21.63
17.81
11.25
4.35
-0.55
-1.63
1.34
7.08
13.18
17.63
19.31
18.64
17.38
17.22
19.18
22.85
26.7
28.76
27.57
22.83
15.38
7.19
0.47
-3.22
-3.63
-1.74
0.25
0.27
-2.68
-8.25
-14.6
-19.36
-20.84
-18.78
-14.57
-10.58
-9.5
-12.76
-20.26
-30.28
-40.36
-48.06
-52.02
-52.13
-49.02
-43.77
-36.93
-28.74
-19.05
-8.44
2.27
11.74
18.75
22.79
24.11
23.74
22.65
21.65
20.7
19.65
18.39
17.18
16.74
17.7
20.48
24.51
28.57
31.6
32.68
31.87
30.02
28.05
26.46
25.19
23.64
21.1
17.47
12.91
8.01
3.35
-0.58
-3.92
-6.82
-9.53
-12.14
-14.37
-15.87
-16.42
-16.01
-14.96
-14.18
-14.49
-16.6
-20.67
-26.13
-32.08
-37.53
-41.86
-44.84
-46.3
-46.01
-43.46
-37.99
-29.42
-18.69
-7.57
1.69
7.65
10.41
11.35
12.54
15.39
19.96
24.85
28.29
28.97
27.07
23.95
21.52
21.11
22.65
25.12
27.01
27.4
26.39
24.88
23.81
23.64
23.82
23.39
21.6
18.59
15.24
12.67
11.59
11.67
11.59
10.12
6.51
1.22
-4.08
-7.55
-8.0
-5.65
-2.53
-1.72
-5.58
-14.9
-27.99
-41.45
-51.93
-57.64
-59.26
-59.11
-59.71
-61.7
-63.53
-62.15
-54.85
-41.02
-22.78
-3.99
11.46
21.26
25.45
25.84
24.96
24.58
25.24
26.27
26.69
25.71
23.24
19.84
16.4
13.83
12.85
13.74
16.28
19.85
23.29
25.21
24.81
21.93
17.5
13.45
11.65
13.22
17.92
24.14
29.52
31.97
30.46
25.26
18.06
10.97
5.8
3.36
3.37
4.44
4.94
3.47
-0.72
-7.41
-15.61
-24.13
-31.8
-37.74
-41.47
-42.66
-41.32
-37.49
-31.59
-24.31
-16.47
-8.99
-2.47
2.87
7.33
11.42
15.33
18.89
21.06
20.7
17.25
11.15
4.13
-1.24
-2.69
0.58
7.76
16.27
23.45
27.53
28.42
27.51
26.78
27.65
29.86
31.94
31.82
28.06
20.81
12.01
4.27
-0.26
-1.13
0.21
1.28
-0.19
-5.17
-12.84
-21.02
-27.18
-29.98
-29.57
-27.59
-26.48
-28.29
-33.74
-42.16
-51.45
-58.85
-62.3
-60.5
-53.64
-43.06
-30.62
-18.17
-7.15
1.56
7.74
11.46
13.36
14.21
14.8
15.57
16.45
16.86
15.98
13.4
9.5
5.55
3.12
3.56
7.37
13.78
21.26
28.01
32.63
34.48
34.03
32.12
29.87
28.12
27.03
26.19
24.89
22.48
18.96
15.16
12.27
11.3
12.6
15.44
18.35
19.54
17.93
13.27
6.25
-2.04
-10.72
-19.37
-28.0
-36.7
-45.47
-53.81
-61.22
-67.22
-71.14
-72.36
-70.01
-63.46
-52.6
-38.48
-23.2
-9.38
0.65
5.95
7.33
6.73
6.51
8.15
11.73
15.93
18.82
19.01
16.5
12.7
10.02
10.65
15.34
23.11
31.3
36.76
37.28
32.45
23.78
14.23
6.56
2.4
1.93
3.96
6.85
9.22
10.18
9.45
7.12
3.61
-0.43
-4.06
-6.41
-7.18
-6.87
-6.64
-8.01
-11.94
-18.39
-26.43
-34.76
-42.13
-47.76
-51.12
-51.85
-49.76
-44.88
-37.6
-28.44
-18.08
-6.91
4.92
16.89
28.05
36.88
41.73
41.79
37.69
31.35
25.33
21.74
21.19
22.75
24.65
25.13
23.69
21.14
19.31
19.82
23.35
28.92
34.36
37.27
36.02
30.53
22.13
13.16
5.79
1.55
0.86
3.17
7.09
10.71
12.07
9.84
4.0
-3.79
-10.78
-14.19
-12.88
-8.08
-3.56
-3.63
-11.42
-27.04
-47.08
-66.2
-79.08
-82.86
-77.97
-67.89
-57.01
-48.93
-44.76
-42.84
-40.08
-33.6
-22.78
-9.34
3.03
10.94
12.99
10.44
6.74
5.68
9.47
17.7
27.76
36.25
40.72
40.8
37.98
34.84
33.43
34.66
37.72
40.87
42.37
40.89
36.28
29.22
21.04
13.13
6.89
2.99
1.42
1.45
1.59
0.47
-2.84
-8.36
-15.48
-23.18
-30.58
-37.53
-44.3
-51.85
-61.0
-72.21
-85.34
-99.25
-112.04
-121.42
-125.56
-123.75
-116.79
-106.51
-95.16
-84.64
-75.77
-68.6
-62.38
-56.5
-50.39
-43.81
-36.49
-28.58
-20.5
-13.06
-7.43
-4.51
-4.57
-6.94
-10.29
-13.16
-14.88
-15.88
-17.54
-22.08
-31.12
-45.24
-63.5
-83.89
-104.04
-122.43
-138.81
-154.39
-171.11
-190.44
-212.68
-236.38
-259.21
-278.91
-293.76
-303.12
-306.72
-304.35
-295.53
-280.04
-258.36
-232.03
-203.53
-175.33
-149.25
-125.98
-105.06
-85.42
-66.12
-46.87
-27.76
-9.47
7.51
22.76
36.09
47.6
57.47
65.81
72.55
77.56
80.8
82.48
82.99
82.79
82.17
81.17
79.58
77.06
73.37
68.74
63.84
59.67
57.09
56.52
57.68
59.78
61.88
63.36
64.41
65.99
69.52
76.18
86.35
99.22
113.15
126.51
138.08
147.98
157.42
168.33
182.89
202.82
228.84
260.14
293.9
325.25
348.48
358.75
354.09
336.44
310.79
283.19
258.1
237.1
219.19
202.17
184.77
167.54
152.82
143.62
142.35
149.87
164.94
184.22
202.63
214.8
216.81
208.16
192.04
174.44
161.47
156.62
159.62
167.06
174.89
180.67
185.05
190.8
201.39
218.84
242.62
269.84
296.04
316.62
327.64
326.59
312.6
286.55
251.05
210.3
169.49
133.67
106.67
89.78
81.36
77.68
74.14
67.53
56.98
44.02
31.37
21.51
15.66
13.43
13.84
15.92
19.41
24.31
30.34
36.32
40.47
41.03
36.76
27.31
13.05
-5.34
-26.83
-49.52
-70.0
-83.7
-85.99
-74.22
-49.42
-16.62
16.85
44.06
60.81
66.58
63.31
53.78
40.08
23.33
4.34
-15.55
-34.28
-49.86
-61.44
-70.04
-78.09
-88.3
-102.32
-120.02
-139.76
-159.0
-175.82
-189.67
-201.68
-214.23
-229.79
-250.0
-274.88
-302.8
-330.88
-355.86
-374.93
-386.64
-391.22
-390.55
-387.17
-383.12
-378.78
-372.42
-360.8
-340.6
-310.13
-270.29
-224.76
-178.42
-135.83
-99.69
-70.24
-45.6
-22.92
0.62
26.57
54.98
84.45
112.78
137.85
158.55
175.1
188.57
200.0
209.34
214.98
214.35
205.39
187.91
164.4
139.01
116.23
98.37
84.79
71.83
54.59
29.28
-5.02
-45.64
-87.53
-124.7
-152.58
-168.62
-172.52
-165.54
-149.92
-128.62
-105.23
-83.32
-65.79
-53.69
-45.88
-39.71
-32.48
-23.09
-12.68
-3.62
2.2
4.54
4.97
5.52
7.4
10.22
12.69
13.83
14.21
15.39
18.85
24.71
31.14
35.0
33.49
25.43
11.79
-4.74
-21.07
-34.48
-43.49
-48.03
-49.53
-50.7
-55.1
-66.19
-86.27
-115.68
-151.93
-189.99
-223.09
-244.31
-248.4
-233.37
-201.43
-158.79
-113.58
-73.51
-43.52
-24.7
-14.85
-10.65
-9.69
-11.41
-16.9
-27.08
-41.4
-57.15
-70.12
-76.26
-73.52
-62.64
-46.87
-30.64
-17.64
-9.55
-5.23
-1.29
6.45
21.07
43.22
70.5
98.31
121.49
135.96
140.2
135.18
122.96
105.26
82.25
52.85
16.3
-26.24
-70.6
-110.78
-140.73
-156.63
-157.66
-145.97
-125.28
-99.48
-72.19
-46.19
-23.9
-7.02
3.97
9.9
12.18
12.09
9.84
4.67
-4.05
-15.88
-28.65
-39.1
-44.3
-42.99
-36.08
-25.74
-14.27
-2.86
8.59
20.54
33.01
44.7
53.67
57.93
56.47
49.28
36.71
19.21
-2.95
-28.77
-56.2
-81.65
-101.21
-111.88
-112.73
-105.37
-92.94
-79.1
-66.82
-57.97
-53.34
-52.97
-56.18
-61.44
-66.58
-68.68
-64.98
-53.65
-34.32
-8.53
20.67
49.28
73.66
91.29
101.3
104.4
102.03
96.3
89.13
82.7
78.79
78.92
83.65
92.28
103.17
114.03
123.09
129.06
131.49
130.07
124.66
115.3
102.35
86.96
70.78
55.47
42.22
31.25
22.03
13.08
2.84
-10.15
-26.28
-44.52
-62.61
-77.49
-86.73
-89.37
-86.94
-82.47
-79.5
-80.39
-85.48
-92.98
-99.68
-102.03
-96.86
-82.48
-59.08
-29.09
2.93
31.53
52.02
62.24
63.17
58.38
52.11
47.11
44.04
41.61
38.91
36.65
37.61
45.1
60.89
83.7
109.01
130.94
144.48
147.44
141.03
128.79
115.04
103.01
94.0
87.22
80.38
70.81
56.54
37.16
13.51
-12.2
-37.43
-59.97
-78.42
-92.91
-104.59
-115.12
-125.51
-135.73
-144.2
-148.1
-144.27
-130.27
-106.68
-76.43
-44.01
-13.8
11.18
30.04
43.73
54.05
62.66
68.43
69.85
66.72
60.59
53.91
48.51
45.07
43.13
41.72
36.58
24.3
5.03
-17.53
-38.04
-51.77
-55.66
-48.67
-31.99
-13.55
-1.83
-0.76
-8.67
-21.44
-36.4
-53.18
-73.09
-97.84
-134.64
-188.97
-260.24
-342.26
-428.4
-515.28
-601.7
-685.95
-722.59
-679.83
-561.0
-404.18
-252.3
-131.16
-47.74
2.86
31.1
45.26
48.94
41.37
23.47
0.84
-19.52
-32.31
-34.78
-26.05
-7.9
11.68
24.83
28.5
25.77
21.92
21.14
25.39
34.63
47.58
59.47
65.75
65.13
60.19
54.69
51.49
51.83
55.56
61.79
68.1
72.25
73.75
74.02
74.96
77.72
82.62
89.24
96.99
104.99
112.69
120.36
128.78
138.64
149.95
162.36
175.27
188.42
202.01
216.45
232.14
249.01
266.82
285.38
304.95
326.09
348.72
371.51
391.48
404.9
408.65
401.54
384.49
359.6
328.97
293.93
255.57
215.82
177.99
146.28
123.9
111.37
105.77
102.21
95.82
84.3
68.42
51.1
35.85
24.71
17.83
13.41
9.19
3.2
-5.17
-15.22
-25.49
-34.05
-39.7
-41.99
-41.7
-40.5
-40.37
-43.21
-50.0
-60.96
-75.17
-91.17
-107.2
-121.63
-132.87
-139.29
-139.58
-132.57
-118.04
-96.99
-72.28
-47.81
-27.8
-15.18
-10.66
-12.64
-17.47
-21.19
-21.03
-16.19
-8.02
0.96
8.32
12.73
14.13
13.97
14.35
17.09
23.41
33.13
44.62
55.14
61.82
62.35
56.47
45.58
32.6
20.84
12.59
8.51
7.45
7.21
5.17
-0.24
-9.44
-21.12
-32.97
-42.95
-50.42
-56.86
-65.28
-78.48
-97.2
-119.01
-138.85
-150.98
-151.75
-140.99
-122.08
-100.37
-80.84
-66.44
-57.46
-52.24
-47.99
-42.14
-32.84
-19.89
-4.8
9.49
19.84
24.13
22.45
17.29
12.1
9.93
11.73
16.24
20.6
21.92
18.86
11.81
2.61
-6.64
-14.82
-22.15
-30.07
-40.49
-54.8
-72.77
-92.45
-110.06
-121.15
-122.3
-112.25
-92.91
-68.78
-45.79
-28.92
-20.58
-20.02
-23.85
-28.01
-29.68
-28.31
-24.68
-19.58
-12.52
-1.38
16.04
40.43
69.6
99.08
123.43
138.7
143.82
140.34
131.73
121.5
112.17
104.62
98.19
91.14
81.49
67.99
50.31
29.73
8.52
-10.73
-25.81
-35.43
-39.03
-36.97
-29.95
-19.26
-6.56
5.82
15.66
21.59
23.69
23.97
25.27
30.07
39.18
50.96
61.94
67.87
65.64
54.12
34.71
10.3
-16.0
-41.84
-66.64
-90.58
-113.59
-134.09
-148.83
-153.73
-145.64
-124.49
-93.74
-60.0
-30.33
-9.65
0.83
3.8
3.98
5.83
11.44
20.19
29.03
34.41
33.75
26.63
15.48
4.59
-1.21
1.28
12.2
28.18
43.29
51.47
49.07
36.47
17.83
-0.71
-13.65
-18.25
-14.98
-6.91
2.34
10.02
15.05
17.51
18.05
17.28
15.67
14.14
14.09
17.42
25.29
37.07
49.56
57.93
57.35
45.27
22.94
-4.9
-31.28
-49.44
-54.88
-46.43
-26.3
0.66
28.66
52.27
67.96
75.32
77.03
77.98
83.37
96.38
117.05
142.42
168.02
189.9
206.11
216.47
222.09
224.29
223.73
220.93
216.76
212.8
210.74
211.2
212.39
210.44
201.05
181.54
152.61
118.04
83.13
51.79
24.76
-0.47
-28.07
-61.32
-101.15
-145.49
-190.59
-232.15
-266.96
-293.67
-313.09
-328.04
-342.21
-358.36
-376.82
-394.56
-405.86
-404.1
-384.65
-346.64
-294.02
-234.49
-176.96
-129.09
-95.11
-75.48
-67.57
-67.24
-70.4
-74.02
-76.37
-76.4
-73.73
-67.86
-58.59
-46.12
-31.4
-15.91
-1.12
12.08
24.04
36.14
50.2
67.37
87.2
107.67
125.25
136.73
140.13
135.38
123.98
107.89
88.8
67.7
45.61
23.55
3.07
-14.5
-28.62
-39.59
-48.76
-57.55
-67.05
-77.14
-86.66
-93.46
-95.06
-89.37
-75.17
-52.69
-23.77
8.28
39.16
64.78
81.9
89.14
87.19
78.61
66.9
55.4
46.45
40.67
37.49
35.31
32.78
29.23
24.79
20.35
16.92
15.42
16.21
19.33
24.21
29.68
34.09
35.42
32.15
24.06
12.51
0.24
-10.07
-16.84
-20.85
-24.2
-29.24
-36.81
-45.86
-54.21
-60.03
-63.1
-64.66
-66.85
-70.95
-76.82
-83.07
-88.09
-90.67
-90.31
-86.95
-79.9
-68.24
-50.97
-27.96
-0.69
27.86
53.71
73.1
83.46
84.42
78.06
67.83
57.55
49.85
45.36
42.95
40.75
37.36
32.81
28.58
26.57
28.33
34.01
42.35
51.09
57.97
61.24
60.12
54.9
46.64
37.04
27.74
20.25
15.01
11.68
8.95
5.31
-0.21
-7.4
-15.18
-21.96
-26.72
-29.78
-32.7
-37.68
-46.49
-59.48
-75.1
-90.58
-102.57
-108.19
-105.66
-94.55
-75.72
-51.46
-25.06
-0.42
18.87
30.53
34.26
31.71
25.63
18.79
12.74
7.77
3.08
-1.97
-7.37
-12.19
-14.88
-14.0
-8.85
0.44
12.89
26.61
39.32
48.74
53.54
54.56
55.18
60.31
74.17
97.46
125.98
151.79
166.41
164.24
144.69
111.86
71.6
28.87
-14.08
-57.02
-99.5
-138.75
-169.64
-186.44
-185.98
-170.09
-145.31
-120.27
-101.8
-91.73
-86.41
-79.11
-63.91
-39.11
-8.25
21.62
43.74
54.6
55.3
50.46
45.56
44.47
48.11
54.83
61.45
65.14
64.38
59.02
50.37
40.47
31.24
24.35
20.64
20.16
22.08
25.07
27.41
27.76
25.45
20.56
13.86
6.4
-0.72
-6.72
-10.97
-13.25
-13.5
-12.08
-9.77
-7.94
-8.03
-10.98
-16.85
-24.12
-30.54
-34.2
-34.83
-34.27
-35.52
-41.09
-51.15
-62.85
-71.07
-70.23
-56.62
-29.74
7.23
48.65
88.08
120.42
143.19
156.37
161.5
160.34
154.22
144.45
133.37
124.6
122.4
129.83
146.71
169.19
190.81
205.02
207.58
197.84
178.07
151.9
122.87
93.56
65.64
40.25
17.88
-1.61
-19.1
-36.18
-54.52
-74.97
-97.08
-118.9
-137.9
-152.53
-162.94
-171.0
-179.02
-187.94
-196.59
-202.53
-204.31
-202.73
-200.9
-202.01
-206.24
-209.34
-204.1
-184.26
-148.46
-102.01
-54.89
-17.19
5.06
12.01
8.69
1.75
-3.68
-5.5
-3.91
-0.31
4.2
8.61
11.88
12.89
11.1
7.19
3.47
3.12
8.33
19.36
33.68
47.24
56.0
57.64
52.52
42.93
31.86
21.47
12.33
3.64
-5.97
-16.97
-28.71
-39.42
-47.41
-51.93
-53.54
-54.01
-55.25
-58.86
-65.41
-74.69
-85.91
-97.9
-108.81
-116.17
-117.23
-109.73
-93.29
-69.41
-41.36
-12.9
12.84
34.13
50.39
61.63
68.21
70.52
69.5
66.49
63.06
60.89
60.87
63.22
67.29
72.0
76.4
79.85
82.37
84.62
87.45
91.1
94.75
96.52
94.07
85.97
72.24
54.31
34.33
14.15
-5.35
-23.6
-39.87
-53.33
-63.12
-69.05
-72.01
-73.17
-73.22
-72.3
-69.86
-65.73
-61.17
-58.45
-59.76
-65.86
-74.78
-82.31
-83.29
-73.81
-52.48
-21.03
16.31
54.06
86.76
110.29
122.51
123.68
116.23
104.13
91.87
83.05
79.39
80.4
83.77
86.64
86.84
83.8
78.22
71.43
64.23
56.49
47.55
36.57
23.48
8.78
-6.55
-21.78
-36.19
-49.14
-59.65
-66.62
-69.54
-69.15
-67.35
-66.57
-68.45
-72.87
-77.86
-80.79
-79.89
-75.44
-69.83
-66.38
-67.68
-73.98
-83.17
-91.08
-93.52
-87.77
-73.45
-52.44
-27.9
-2.99
19.95
39.36
54.44
64.4
68.65
67.43
62.03
54.81
48.44
44.71
43.87
44.81
45.83
45.49
43.6
40.91
38.82
38.98
42.44
49.47
59.22
69.86
78.83
83.76
82.93
76.08
64.48
50.44
36.57
24.85
16.01
9.3
3.04
-4.54
-14.5
-26.76
-40.11
-52.87
-63.8
-72.45
-79.27
-85.31
-91.38
-97.92
-104.76
-111.02
-115.1
-114.77
-107.4
-90.85
-64.69
-30.8
6.21
40.49
66.54
81.2
84.48
79.41
70.65
62.5
57.34
55.07
