-7.06
-7.22
-7.16
-6.91
-6.5
-5.96
-5.29
-4.45
-3.4
-2.15
-0.75
0.66
1.9
2.86
3.44
3.72
3.79
3.76
3.72
3.69
3.7
3.78
4.0
4.38
4.88
5.36
5.66
5.67
5.37
4.92
4.49
4.22
4.15
4.18
4.17
4.01
3.63
3.13
2.66
2.33
2.19
2.12
1.98
1.6
0.95
0.09
-0.82
-1.59
-2.19
-2.65
-3.08
-3.61
-4.24
-4.9
-5.48
-5.89
-6.12
-6.25
-6.37
-6.52
-6.63
-6.57
-6.19
-5.41
-4.31
-3.06
-1.88
-0.93
-0.28
0.14
0.45
0.77
1.15
1.58
2.01
2.39
2.74
3.08
3.46
3.89
4.31
4.62
4.77
4.73
4.56
4.38
4.29
4.35
4.49
4.62
4.61
4.35
3.82
3.05
2.16
1.25
0.41
-0.29
-0.84
-1.3
-1.67
-1.98
-2.22
-2.38
-2.49
-2.61
-2.85
-3.29
-3.93
-4.67
-5.35
-5.74
-5.76
-5.49
-5.15
-4.98
-5.12
-5.53
-6.0
-6.34
-6.44
-6.33
-6.08
-5.76
-5.31
-4.59
-3.51
-2.12
-0.58
0.86
2.06
3.0
3.79
4.56
5.39
6.24
6.97
7.45
7.57
7.34
6.93
6.53
6.28
6.22
6.22
6.08
5.67
5.0
4.22
3.56
3.15
3.03
3.01
2.91
2.58
2.09
1.59
1.26
1.18
1.23
1.18
0.76
-0.07
-1.2
-2.37
-3.33
-4.01
-4.46
-4.87
-5.31
-5.77
-6.16
-6.35
-6.34
-6.24
-6.17
-6.21
-6.33
-6.41
-6.44
-6.38
-6.26
-6.06
-5.71
-5.14
-4.32
-3.3
-2.16
-0.94
0.31
1.62
2.92
4.09
4.97
5.45
5.57
5.51
5.49
5.68
6.0
6.33
6.45
6.27
5.8
5.17
4.53
3.98
3.59
3.38
3.38
3.55
3.84
4.15
4.33
4.24
3.84
3.18
2.35
1.53
0.86
0.45
0.33
0.46
0.75
1.04
1.19
1.07
0.64
-0.04
-0.85
-1.59
-2.17
-2.55
-2.78
-2.93
-3.07
-3.22
-3.37
-3.47
-3.5
-3.4
-3.08
-2.42
-1.32
0.23
2.06
3.92
5.47
6.51
6.99
7.07
6.98
6.95
7.07
7.34
7.66
7.91
7.99
7.82
7.36
6.57
5.49
4.22
2.93
1.86
1.19
1.01
1.27
1.78
2.33
2.79
3.07
3.23
3.29
3.24
3.06
2.72
2.26
1.78
1.36
1.03
0.73
0.31
-0.28
-1.05
-1.84
-2.49
-2.87
-2.99
-2.99
-3.03
-3.26
-3.69
-4.18
-4.57
-4.66
-4.45
-4.05
-3.62
-3.35
-3.26
-3.26
-3.18
-2.88
-2.33
-1.59
-0.87
-0.31
-0.04
-0.05
-0.27
-0.57
-0.8
-0.89
-0.79
-0.55
-0.28
-0.06
0.09
0.18
0.29
0.46
0.74
1.15
1.66
2.21
2.67
2.91
2.81
2.38
1.69
0.91
0.24
-0.24
-0.54
-0.76
-1.03
-1.42
-1.93
-2.49
-3.03
-3.49
-3.85
-4.09
-4.19
-4.13
-3.97
-3.73
-3.54
-3.47
-3.53
-3.66
-3.76
-3.69
-3.46
-3.1
-2.73
-2.43
-2.2
-1.99
-1.73
-1.36
-0.91
-0.42
0.04
0.42
0.69
0.82
0.87
0.84
0.82
0.89
1.04
1.21
1.27
1.09
0.65
0.04
-0.55
-0.96
-1.1
-1.03
-0.87
-0.75
-0.75
-0.87
-1.05
-1.27
-1.51
-1.83
-2.26
-2.78
-3.33
-3.81
-4.11
-4.18
-4.03
-3.72
-3.41
-3.22
-3.25
-3.46
-3.77
-4.05
-4.18
-4.12
-3.83
-3.3
-2.51
-1.51
-0.35
0.85
1.95
2.84
3.48
3.92
4.2
4.31
4.2
3.81
3.09
2.19
1.32
0.73
0.54
0.75
1.15
1.47
1.46
1.0
0.15
-0.97
-2.14
-3.16
-3.83
-3.96
-3.49
-2.42
-0.98
0.54
1.83
2.74
3.22
3.39
3.4
3.31
3.11
2.8
2.39
1.98
1.67
1.49
1.35
1.11
0.66
0.04
-0.63
-1.19
-1.53
-1.66
-1.72
-1.86
-2.24
-2.96
-4.01
-5.33
-6.79
-8.17
-9.22
-9.79
-9.81
-9.43
-8.81
-8.09
-7.26
-6.25
-5.02
-3.6
-2.2
-1.02
-0.19
0.33
0.78
1.38
2.27
3.35
4.43
5.23
5.61
5.63
5.42
5.19
5.05
5.05
5.14
5.26
5.39
5.48
5.48
5.31
4.91
4.27
3.47
2.65
1.97
1.5
1.2
0.97
0.73
0.4
-0.0
-0.49
-1.05
-1.71
-2.48
-3.3
-4.11
-4.85
-5.52
-6.1
-6.62
-7.08
-7.42
-7.65
-7.79
-7.92
-8.12
-8.43
-8.8
-9.11
-9.23
-9.07
-8.6
-7.83
-6.76
-5.38
-3.71
-1.83
0.12
1.9
3.34
4.31
4.84
5.1
5.3
5.61
6.09
6.69
7.26
7.7
7.94
7.96
7.83
7.6
7.34
7.1
6.88
6.64
6.32
5.88
5.29
4.62
3.94
3.35
2.87
2.51
2.23
1.97
1.78
1.67
1.65
1.69
1.65
1.38
0.79
-0.11
-1.16
-2.19
-3.02
-3.59
-3.94
-4.18
-4.4
-4.64
-4.92
-5.25
-5.64
-6.07
-6.48
-6.79
-6.93
-6.88
-6.72
-6.53
-6.36
-6.17
-5.87
-5.41
-4.78
-4.08
-3.38
-2.68
-1.95
-1.13
-0.24
0.67
1.44
2.0
2.34
2.54
2.71
2.97
3.34
3.82
4.34
4.83
5.21
5.41
5.4
5.22
4.95
4.75
4.7
4.8
4.98
5.08
5.02
4.78
4.46
4.2
4.1
4.17
4.37
4.61
4.82
4.95
4.97
4.84
4.57
4.16
3.73
3.42
3.29
3.29
3.22
2.82
1.94
0.56
-1.15
-2.92
-4.51
-5.81
-6.85
-7.73
-8.47
-9.05
-9.4
-9.48
-9.35
-9.12
-8.98
-8.97
-9.05
-9.07
-8.86
-8.28
-7.24
-5.73
-3.8
-1.66
0.45
2.19
3.3
3.65
3.34
2.67
1.93
1.36
1.0
0.81
0.63
0.35
-0.04
-0.45
-0.76
-0.81
-0.49
0.22
1.15
2.08
2.76
3.11
3.22
3.29
3.51
3.9
4.33
4.59
4.58
4.36
4.09
4.03
4.25
4.68
5.14
5.37
5.24
4.75
4.0
3.15
2.36
1.71
1.24
0.91
0.67
0.52
0.43
0.34
0.17
-0.2
-0.84
-1.73
-2.78
-3.88
-4.93
-5.92
-6.88
-7.87
-8.85
-9.72
-10.38
-10.76
-10.81
-10.49
-9.8
-8.67
-7.12
-5.24
-3.23
-1.3
0.33
1.56
2.42
3.01
3.47
3.92
4.38
4.83
5.19
5.39
5.39
5.2
4.84
4.33
3.69
2.95
2.17
1.44
0.84
0.45
0.24
0.19
0.19
0.21
0.21
0.19
0.14
0.05
-0.12
-0.32
-0.54
-0.71
-0.81
-0.88
-0.96
-1.07
-1.19
-1.27
-1.32
-1.37
-1.5
-1.78
-2.22
-2.69
-3.09
-3.31
-3.39
-3.43
-3.55
-3.73
-3.86
-3.77
-3.37
-2.72
-1.97
-1.33
-0.86
-0.49
-0.11
0.34
0.81
1.18
1.36
1.37
1.38
1.58
2.06
2.75
3.49
4.09
4.43
4.54
4.5
4.46
4.48
4.58
4.72
4.82
4.83
4.69
4.4
3.96
3.43
2.91
2.49
2.27
2.24
2.29
2.29
2.08
1.64
0.96
0.14
-0.74
-1.67
-2.67
-3.79
-5.02
-6.26
-7.39
-8.3
-8.97
-9.43
-9.72
-9.8
-9.62
-9.07
-8.12
-6.85
-5.4
-3.93
-2.59
-1.42
-0.44
0.39
1.07
1.63
2.1
2.51
2.93
3.41
3.94
4.46
4.85
5.01
4.91
4.64
4.34
4.14
4.1
4.15
4.23
4.23
4.21
4.19
4.25
4.38
4.49
4.48
4.24
3.79
3.16
2.42
1.6
0.76
-0.09
-0.93
-1.75
-2.51
-3.22
-3.9
-4.57
-5.28
-6.04
-6.78
-7.42
-7.89
-8.19
-8.36
-8.49
-8.66
-8.86
-9.01
-8.97
-8.68
-8.11
-7.27
-6.21
-4.96
-3.53
-1.98
-0.44
0.99
2.17
3.04
3.6
3.83
3.78
3.48
3.07
2.77
2.77
3.15
3.86
4.69
5.39
5.84
6.04
6.07
5.99
5.8
5.37
4.6
3.51
2.24
1.03
0.12
-0.39
-0.51
-0.47
-0.53
-0.9
-1.64
-2.63
-3.65
-4.43
-4.86
-5.04
-5.2
-5.57
-6.24
-7.15
-8.07
-8.84
-9.4
-9.82
-10.18
-10.49
-10.68
-10.59
-10.11
-9.26
-8.07
-6.68
-5.14
-3.49
-1.76
0.02
1.74
3.3
4.6
5.56
6.17
6.48
6.5
6.32
6.03
5.74
5.59
5.67
6.01
6.5
6.99
7.3
7.37
7.19
6.89
6.6
6.38
6.25
6.14
6.0
5.76
5.45
5.12
4.81
4.56
4.39
4.29
4.19
4.05
3.79
3.39
2.84
2.18
1.46
0.74
0.05
-0.57
-1.1
-1.53
-1.92
-2.35
-2.93
-3.77
-4.85
-6.08
-7.25
-8.13
-8.49
-8.21
-7.28
-5.77
-3.9
-1.9
-0.07
1.36
2.31
2.88
3.29
3.76
4.45
5.28
6.06
6.58
6.73
6.55
6.21
5.92
5.8
5.86
6.02
6.17
6.22
6.12
5.87
5.48
5.0
4.46
3.92
3.41
2.97
2.6
2.29
2.06
1.81
1.47
0.96
0.25
-0.63
-1.54
-2.29
-2.78
-3.02
-3.14
-3.29
-3.57
-3.92
-4.21
-4.27
-3.99
-3.44
-2.75
-2.13
-1.78
-1.82
-2.28
-3.08
-4.09
-5.1
-5.94
-6.44
-6.62
-6.5
-6.21
-5.79
-5.21
-4.43
-3.41
-2.18
-0.85
0.44
1.57
2.55
3.43
4.31
5.14
5.85
6.32
6.54
6.64
6.82
7.24
7.88
8.54
8.95
8.91
8.4
7.57
6.62
5.72
4.92
4.17
3.43
2.65
1.9
1.2
0.61
0.14
-0.24
-0.57
-0.91
-1.25
-1.56
-1.78
-1.82
-1.7
-1.54
-1.53
-1.88
-2.71
-3.97
-5.49
-6.99
-8.26
-9.16
-9.67
-9.78
-9.51
-8.87
-7.93
-6.78
-5.48
-4.12
-2.64
-1.02
0.78
2.63
4.35
5.7
6.54
6.91
7.01
7.03
7.16
7.4
7.66
7.8
7.71
7.34
6.72
5.96
5.19
4.51
4.0
3.68
3.52
3.48
3.57
3.75
4.01
4.27
4.43
4.4
4.2
3.89
3.55
3.26
3.0
2.74
2.44
2.09
1.7
1.28
0.78
0.14
-0.71
-1.79
-3.01
-4.23
-5.28
-6.05
-6.55
-6.83
-7.01
-7.19
-7.39
-7.62
-7.85
-8.07
-8.3
-8.56
-8.82
-8.99
-8.92
-8.49
-7.68
-6.54
-5.2
-3.79
-2.34
-0.88
0.55
1.88
3.01
3.86
4.45
4.89
5.35
5.96
6.72
7.46
8.02
8.26
8.18
7.91
7.65
7.55
7.66
7.88
8.05
8.01
7.65
6.97
6.04
4.94
3.75
2.54
1.4
0.39
-0.43
-1.02
-1.38
-1.56
-1.63
-1.72
-1.89
-2.15
-2.46
-2.71
-2.83
-2.82
-2.75
-2.73
-2.86
-3.13
-3.5
-3.87
-4.19
-4.43
-4.57
-4.58
-4.48
-4.29
-4.06
-3.88
-3.77
-3.63
-3.31
-2.62
-1.46
0.11
1.87
3.54
4.88
5.77
6.21
6.33
6.32
6.32
6.43
6.62
6.78
6.75
6.42
5.76
4.82
3.77
2.79
2.03
1.55
1.35
1.37
1.56
1.88
2.3
2.77
3.21
3.5
3.48
3.1
2.4
1.52
0.64
-0.04
-0.48
-0.7
-0.76
-0.75
-0.67
-0.55
-0.4
-0.32
-0.45
-0.95
-1.85
-3.1
-4.51
-5.9
-7.13
-8.17
-9.07
-9.85
-10.53
-11.03
-11.31
-11.38
-11.23
-10.97
-10.61
-10.15
-9.51
-8.62
-7.47
-6.1
-4.66
-3.26
-2.01
-0.96
-0.12
0.53
1.08
1.55
1.94
2.27
2.57
2.91
3.36
3.91
4.48
4.92
5.1
4.99
4.63
4.18
3.78
3.5
3.36
3.32
3.35
3.4
3.46
3.5
3.46
3.32
3.1
2.83
2.57
2.32
2.07
1.8
1.45
0.97
0.36
-0.37
-1.13
-1.88
-2.5
-2.96
-3.31
-3.57
-3.83
-4.09
-4.37
-4.65
-4.94
-5.26
-5.62
-5.96
-6.18
-6.14
-5.74
-5.0
-4.03
-3.0
-2.07
-1.28
-0.6
0.08
0.81
1.6
2.34
2.93
3.33
3.59
3.84
4.16
4.58
5.02
5.37
5.54
5.54
5.43
5.3
5.23
5.2
5.13
4.88
4.35
3.53
2.54
1.55
0.71
0.1
-0.29
-0.55
-0.78
-1.03
-1.27
-1.47
-1.63
-1.76
-1.97
-2.34
-2.92
-3.68
-4.55
-5.41
-6.16
-6.69
-6.97
-7.03
-6.9
-6.68
-6.38
-6.02
-5.56
-4.98
-4.27
-3.44
-2.52
-1.49
-0.33
0.99
2.36
3.62
4.56
5.05
5.15
5.03
4.89
4.88
4.99
5.1
5.08
4.84
4.42
3.96
3.61
3.48
3.57
3.79
4.02
4.13
4.06
3.78
3.32
2.76
2.15
1.56
1.05
0.64
0.36
0.18
0.0
-0.24
-0.63
-1.17
-1.79
-2.39
-2.89
-3.28
-3.64
-4.07
-4.67
-5.48
-6.46
-7.57
-8.77
-10.0
-11.2
-12.3
-13.14
-13.58
-13.51
-12.9
-11.76
-10.17
-8.22
-5.98
-3.59
-1.16
1.11
3.07
4.65
5.84
6.73
7.4
7.86
8.07
7.99
7.63
7.09
6.57
6.22
6.09
6.15
6.27
6.34
6.35
6.35
6.42
6.62
6.87
7.04
6.95
6.49
5.63
4.49
3.28
2.21
1.45
1.01
0.85
0.79
0.75
0.68
0.6
0.6
0.73
0.97
1.26
1.43
1.39
1.08
0.47
-0.38
-1.35
-2.34
-3.25
-4.05
-4.77
-5.53
-6.4
-7.41
-8.46
-9.35
-9.88
-9.93
-9.51
-8.78
-7.87
-6.92
-5.97
-4.98
-3.87
-2.64
-1.27
0.13
1.49
2.67
3.56
4.11
4.33
4.27
4.01
3.67
3.32
3.01
2.78
2.67
2.68
2.79
2.96
3.08
3.11
3.02
2.86
2.72
2.69
2.79
3.0
3.25
3.48
3.65
3.73
3.72
3.61
3.39
3.1
2.79
2.55
2.4
2.34
2.3
2.21
2.05
1.87
1.72
1.6
1.45
1.15
0.59
-0.23
-1.25
-2.33
-3.34
-4.2
-4.86
-5.32
-5.64
-5.88
-6.16
-6.53
-7.01
-7.52
-7.95
-8.14
-8.02
-7.63
-7.07
-6.46
-5.86
-5.22
-4.38
-3.28
-1.91
-0.45
0.86
1.81
2.34
2.56
2.64
2.77
3.03
3.38
3.7
3.87
3.85
3.66
3.44
3.3
3.38
3.67
4.14
4.65
5.1
5.39
5.48
5.41
5.15
4.74
4.15
3.42
2.57
1.63
0.64
-0.36
-1.29
-2.05
-2.56
-2.76
-2.69
-2.43
-2.08
-1.68
-1.28
-0.88
-0.53
-0.32
-0.33
-0.59
-1.05
-1.62
-2.19
-2.7
-3.16
-3.65
-4.2
-4.87
-5.56
-6.18
-6.61
-6.79
-6.72
-6.46
-6.05
-5.47
-4.67
-3.63
-2.4
-1.12
0.05
0.98
1.7
2.28
2.83
3.38
3.94
4.42
4.81
5.13
5.4
5.63
5.83
5.99
6.1
6.22
6.4
6.64
6.89
7.07
7.08
6.87
6.48
5.94
5.38
4.9
4.58
4.42
4.39
4.44
4.52
4.63
4.76
4.9
4.96
4.78
4.26
3.37
2.22
1.01
-0.06
-0.82
-1.18
-1.16
-0.78
-0.14
0.63
1.38
2.0
2.41
2.63
2.77
2.94
3.22
3.65
4.19
4.83
5.5
6.11
6.51
6.43
5.61
3.84
1.05
-2.58
-6.69
-10.85
-14.63
-17.8
-20.26
-22.03
-23.13
-23.59
-23.35
-22.42
-20.9
-18.94
-16.81
-14.71
-12.78
-11.06
-9.52
-8.12
-6.84
-5.72
-4.79
-4.06
-3.46
-2.87
-2.11
-1.1
0.14
1.46
2.64
3.46
3.87
3.96
3.88
3.81
3.82
3.93
4.05
4.08
3.92
3.52
2.87
2.01
1.08
0.2
-0.47
-0.87
-1.05
-1.16
-1.36
-1.7
-2.14
-2.51
-2.67
-2.54
-2.16
-1.61
-1.0
-0.38
0.28
1.01
1.84
2.7
3.51
4.14
4.53
4.73
4.82
4.91
5.03
5.2
5.38
5.55
5.68
5.76
5.79
5.68
5.36
4.81
4.03
3.15
2.32
1.66
1.23
1.02
0.96
0.97
1.0
0.99
0.89
0.66
0.27
-0.25
-0.83
-1.33
-1.6
-1.59
-1.36
-1.11
-1.09
-1.49
-2.32
-3.37
-4.35
-4.97
-5.09
-4.79
-4.29
-3.88
-3.81
-4.13
-4.78
-5.56
-6.25
-6.62
-6.58
-6.1
-5.24
-4.16
-2.99
-1.85
-0.76
0.29
1.31
2.33
3.34
4.33
5.25
6.07
6.69
7.08
7.22
7.16
7.02
6.96
7.07
7.31
7.54
7.55
7.21
6.47
5.47
4.35
3.29
2.33
1.45
0.6
-0.25
-1.07
-1.76
-2.21
-2.42
-2.42
-2.32
-2.19
-2.08
-2.0
-1.9
-1.73
-1.51
-1.23
-0.93
-0.64
-0.4
-0.24
-0.2
-0.32
-0.62
-1.05
-1.54
-2.08
-2.69
-3.44
-4.39
-5.47
-6.56
-7.43
-7.96
-8.12
-8.06
-7.96
-7.92
-7.87
-7.58
-6.87
-5.64
-4.01
-2.21
-0.5
0.96
2.15
3.1
3.83
4.41
4.78
5.01
5.14
5.28
5.53
5.91
6.37
6.78
7.0
6.91
6.5
5.77
4.87
3.95
3.13
2.5
2.04
1.69
1.37
1.05
0.67
0.28
-0.08
-0.31
-0.33
-0.06
0.48
1.15
1.75
2.07
2.02
1.65
1.1
0.56
0.1
-0.31
-0.78
-1.44
-2.32
-3.34
-4.38
-5.35
-6.19
-6.9
-7.44
-7.76
-7.79
-7.43
-6.64
-5.43
-3.87
-2.06
-0.16
1.63
3.08
4.04
4.43
4.39
4.13
3.9
3.83
3.89
3.98
3.93
3.69
3.31
2.89
2.58
2.42
2.43
2.57
2.82
3.16
3.55
3.93
4.19
4.2
3.95
3.49
2.99
2.61
2.43
2.42
2.43
2.34
2.06
1.64
1.16
0.69
0.22
-0.24
-0.7
-1.1
-1.37
-1.49
-1.52
-1.6
-1.85
-2.37
-3.04
-3.71
-4.26
-4.66
-4.99
-5.41
-5.99
-6.73
-7.48
-8.04
-8.3
-8.17
-7.66
-6.84
-5.79
-4.55
-3.19
-1.74
-0.28
1.09
2.28
3.18
3.76
4.04
4.12
4.11
4.13
4.21
4.32
4.39
4.37
4.33
4.34
4.5
4.79
5.1
5.23
5.06
4.59
3.94
3.29
2.78
2.42
2.15
1.91
1.68
1.45
1.3
1.21
1.17
1.17
1.15
1.12
1.06
0.96
0.69
0.18
-0.66
-1.85
-3.3
-4.88
-6.39
-7.65
-8.55
-9.03
-9.13
-8.93
-8.54
-8.08
-7.6
-7.1
-6.6
-6.06
-5.52
-4.96
-4.4
-3.77
-3.0
-2.01
-0.82
0.45
1.6
2.44
2.9
3.02
3.03
3.17
3.61
4.32
5.14
5.83
6.22
6.3
6.16
5.91
5.67
5.43
5.2
4.98
4.83
4.82
5.0
5.31
5.61
5.74
5.59
5.19
4.63
4.05
3.52
3.01
2.48
1.86
1.16
0.44
-0.23
-0.8
-1.3
-1.78
-2.28
-2.8
-3.27
-3.62
-3.84
-3.99
-4.2
-4.52
-4.97
-5.42
-5.73
-5.82
-5.69
-5.44
-5.17
-4.98
-4.87
-4.78
-4.59
-4.28
-3.84
-3.29
-2.73
-2.2
-1.73
-1.29
-0.85
-0.39
0.11
0.6
1.03
1.32
1.49
1.54
1.55
1.55
1.6
1.74
2.01
2.43
2.99
3.62
4.22
4.72
5.05
5.2
5.18
5.01
4.68
4.2
3.62
2.99
2.41
1.97
1.71
1.61
1.61
1.62
1.57
1.4
1.13
0.82
0.57
0.44
0.42
0.42
0.31
-0.01
-0.54
-1.2
-1.9
-2.57
-3.21
-3.88
-4.59
-5.27
-5.8
-6.06
-6.03
-5.76
-5.41
-5.11
-4.92
-4.76
-4.44
-3.8
-2.73
-1.31
0.26
1.73
2.9
3.68
4.09
4.23
4.2
4.07
3.92
3.81
3.78
3.85
3.97
4.08
4.14
4.15
4.15
4.18
4.21
4.13
3.87
3.37
2.67
1.94
1.32
0.94
0.83
0.89
1.01
1.02
0.79
0.26
-0.53
-1.49
-2.46
-3.32
-4.02
-4.56
-4.98
-5.32
-5.65
-5.99
-6.4
-6.93
-7.6
-8.35
-9.08
-9.67
-9.96
-9.93
-9.57
-8.98
-8.2
-7.24
-6.1
-4.75
-3.26
-1.73
-0.32
0.79
1.47
1.72
1.64
1.38
1.09
0.84
0.63
0.41
0.14
-0.14
-0.36
-0.42
-0.32
-0.13
0.02
0.04
-0.13
-0.44
-0.82
-1.2
-1.49
-1.59
-1.39
-0.81
0.13
1.26
2.35
3.13
3.44
3.28
2.78
2.17
1.63
1.23
0.98
0.76
0.39
-0.25
-1.2
-2.4
-3.68
-4.81
-5.62
-6.03
-6.04
-5.77
-5.38
-4.96
-4.59
-4.23
-3.8
-3.2
-2.39
-1.37
-0.17
1.15
2.59
4.1
5.63
7.01
8.04
8.54
8.49
8.04
7.47
7.07
6.99
7.22
7.62
8.05
8.4
8.68
8.91
9.09
9.16
9.05
8.77
8.39
8.12
8.09
8.37
8.87
9.39
9.76
9.86
9.7
9.37
8.96
8.46
7.78
6.81
5.54
4.03
2.48
1.06
-0.12
-1.09
-1.96
-2.84
-3.83
-4.89
-5.93
-6.85
-7.59
-8.13
-8.49
-8.71
-8.82
-8.84
-8.77
-8.64
-8.42
-8.12
-7.73
-7.24
-6.71
-6.2
-5.75
-5.36
-4.91
-4.25
-3.26
-1.93
-0.41
1.05
2.2
2.9
3.16
3.1
2.9
2.72
2.61
2.58
2.56
2.54
2.52
2.54
2.66
2.87
3.12
3.28
3.24
2.98
2.62
2.38
2.45
2.89
3.58
4.26
4.69
4.75
4.5
4.06
3.55
3.02
2.4
1.63
0.71
-0.29
-1.25
-2.08
-2.78
-3.41
-4.06
-4.77
-5.52
-6.18
-6.61
-6.65
-6.23
-5.36
-4.16
-2.79
-1.43
-0.22
0.82
1.71
2.53
3.36
4.25
5.16
6.05
6.8
7.35
7.65
7.7
7.54
7.21
6.79
6.3
5.82
5.42
5.14
4.99
4.93
4.84
4.61
4.18
3.55
2.81
2.1
1.47
0.93
0.39
-0.22
-0.95
-1.75
-2.52
-3.15
-3.63
-4.0
-4.36
-4.8
-5.37
-6.05
-6.8
-7.56
-8.23
-8.78
-9.18
-9.46
-9.7
-9.95
-10.19
-10.37
-10.4
-10.23
-9.87
-9.38
-8.82
-8.17
-7.35
-6.23
-4.78
-3.09
-1.41
-0.01
0.95
1.44
1.63
1.74
1.98
2.4
2.95
3.48
3.85
4.01
4.04
4.08
4.25
4.58
4.98
5.29
5.36
5.16
4.77
4.35
3.98
3.71
3.44
3.04
2.43
1.63
0.82
0.2
-0.05
0.12
0.58
1.09
1.38
1.32
0.92
0.3
-0.37
-0.98
-1.48
-1.91
-2.28
-2.57
-2.75
-2.8
-2.81
-2.9
-3.21
-3.75
-4.47
-5.21
-5.76
-5.99
-5.8
-5.23
-4.35
-3.3
-2.21
-1.16
-0.17
0.72
1.53
2.25
2.9
3.5
4.08
4.66
5.18
5.53
5.58
5.25
4.56
3.65
2.75
2.02
1.52
1.22
1.05
0.91
0.75
0.57
0.37
0.12
-0.15
-0.4
-0.6
-0.68
-0.6
-0.41
-0.2
-0.1
-0.2
-0.5
-0.98
-1.56
-2.18
-2.77
-3.32
-3.8
-4.19
-4.49
-4.72
-4.92
-5.11
-5.3
-5.47
-5.55
-5.48
-5.2
-4.68
-3.95
-3.04
-2.01
-0.92
0.12
1.05
1.78
2.32
2.7
3.06
3.51
4.09
4.73
5.33
5.73
5.88
5.8
5.63
5.5
5.54
5.78
6.15
6.5
6.64
6.43
5.81
4.86
3.79
2.85
2.18
1.8
1.56
1.25
0.71
-0.05
-0.91
-1.71
-2.3
-2.64
-2.8
-2.89
-3.06
-3.34
-3.76
-4.25
-4.74
-5.16
-5.49
-5.75
-6.04
-6.4
-6.86
-7.39
-7.9
-8.33
-8.61
-8.72
-8.61
-8.26
-7.65
-6.75
-5.55
-4.05
-2.3
-0.37
1.57
3.3
4.64
5.47
5.83
5.94
6.05
6.4
7.0
7.69
8.23
8.39
8.1
7.45
6.65
5.85
5.18
4.64
4.22
3.95
3.84
3.9
4.04
4.13
4.0
3.65
3.11
2.53
2.02
1.59
1.18
0.67
0.01
-0.72
-1.4
-1.96
-2.42
-2.92
-3.59
-4.44
-5.37
-6.16
-6.62
-6.72
-6.58
-6.39
-6.33
-6.43
-6.59
-6.7
-6.63
-6.39
-6.05
-5.73
-5.41
-5.01
-4.42
-3.53
-2.35
-0.98
0.39
1.62
2.62
3.36
3.88
4.25
4.52
4.76
5.01
5.29
5.56
5.74
5.78
5.64
5.37
5.01
4.61
4.21
3.78
3.33
2.86
2.46
2.2
2.14
2.29
2.58
2.91
3.15
3.24
3.13
2.85
2.5
2.13
1.8
1.5
1.22
0.97
0.77
0.66
0.68
0.72
0.64
0.28
-0.4
-1.34
-2.29
-3.02
-3.39
-3.45
-3.39
-3.46
-3.89
-4.73
-5.88
-7.1
-8.1
-8.59
-8.38
-7.46
-5.98
-4.25
-2.6
-1.31
-0.45
0.03
0.29
0.5
0.75
1.05
1.38
1.72
2.08
2.46
2.86
3.24
3.55
3.74
3.81
3.76
3.67
3.61
3.65
3.77
3.9
3.91
3.68
3.2
2.59
2.02
1.67
1.58
1.64
1.7
1.64
1.41
1.09
0.72
0.31
-0.21
-0.93
-1.88
-2.96
-3.98
-4.76
-5.21
-5.39
-5.42
-5.47
-5.62
-5.89
-6.14
-6.28
-6.18
-5.73
-4.88
-3.7
-2.33
-0.98
0.16
1.01
1.59
2.03
2.38
2.64
2.69
2.51
2.18
1.91
1.92
2.3
2.91
3.44
3.66
3.51
3.16
2.96
3.13
3.69
4.42
4.97
5.12
4.8
4.18
3.46
2.83
2.32
1.9
1.49
1.05
0.57
0.08
-0.41
-0.97
-1.66
-2.52
-3.5
-4.51
-5.43
-6.16
-6.63
-6.86
-6.95
-7.01
-7.17
-7.52
-8.05
-8.65
-9.13
-9.31
-9.06
-8.44
-7.61
-6.77
-6.07
-5.56
-5.21
-4.99
-4.84
-4.79
-4.88
-5.11
-5.54
-6.13
-6.87
-7.7
-8.52
-9.3
-10.07
-10.99
-12.28
-14.14
-16.61
-19.48
-22.44
-25.22
-27.8
-30.5
-33.87
-38.41
-44.31
-51.37
-59.0
-66.54
-73.56
-80.09
-86.66
-94.02
-102.86
-113.49
-125.74
-139.05
-152.78
-166.38
-179.7
-192.92
-206.54
-221.32
-238.2
-258.21
-281.95
-309.0
-337.29
-363.15
-382.09
-390.21
-385.76
-369.69
-345.33
-316.94
-288.22
-261.32
-236.73
-214.09
-192.98
-173.4
-155.62
-139.75
-125.47
-112.03
-98.66
-84.99
-71.19
-57.89
-45.81
-35.39
-26.64
-19.08
-12.06
-5.0
2.38
10.03
17.65
24.92
31.62
37.71
43.34
48.69
53.93
59.18
64.59
70.3
76.52
83.38
90.9
98.92
107.14
115.24
123.14
131.04
139.43
148.87
159.76
172.11
185.48
199.23
212.73
225.69
238.28
251.04
264.82
280.67
299.63
322.39
348.68
376.75
403.2
423.64
434.0
432.03
418.11
395.12
367.24
338.4
311.14
286.36
263.86
243.19
224.19
206.98
191.63
177.75
164.54
151.16
137.13
122.61
108.3
95.14
83.83
74.51
66.79
59.98
53.42
46.78
40.18
33.97
28.56
24.18
20.72
17.9
15.29
12.55
9.56
6.36
3.18
0.21
-2.39
-4.62
-6.55
-8.3
-9.91
-11.41
-12.79
-14.07
-15.28
-16.49
-17.66
-18.69
-19.41
-19.68
-19.49
-18.95
-18.17
-17.25
-16.21
-15.02
-13.7
-12.38
-11.25
-10.44
-9.98
-9.71
-9.44
-9.04
-8.51
-7.98
-7.56
-7.3
-7.09
-6.82
-6.42
-5.9
-5.41
-5.11
-5.1
-5.34
-5.72
-6.07
-6.27
-6.24
-6.01
-5.7
-5.46
-5.42
-5.64
-6.05
-6.5
-6.82
-6.94
-6.89
-6.81
-6.85
-7.1
-7.57
-8.16
-8.79
-9.35
-9.87
-10.43
-11.13
-12.03
-13.11
-14.28
-15.33
-16.04
-16.2
-15.7
-14.57
-12.95
-11.06
-9.08
-7.11
-5.21
-3.37
-1.62
-0.05
1.21
2.04
2.38
2.24
1.69
0.76
-0.5
-2.01
-3.62
-5.06
-6.06
-6.41
-6.12
-5.38
-4.52
-3.86
-3.52
-3.41
-3.33
-3.02
-2.35
-1.39
-0.35
0.57
1.27
1.8
2.31
2.94
3.66
4.33
4.7
4.57
3.87
2.65
1.06
-0.72
-2.52
-4.21
-5.67
-6.82
-7.62
-8.08
-8.21
-7.99
-7.35
-6.22
-4.54
-2.4
0.06
2.59
4.93
6.85
8.13
8.61
8.22
7.04
5.29
3.32
1.45
-0.06
-1.11
-1.73
-2.02
-2.1
-2.12
-2.21
-2.53
-3.13
-4.01
-4.94
-5.64
-5.89
-5.58
-4.83
-3.91
-3.13
-2.73
-2.82
-3.4
-4.42
-5.81
-7.51
-9.42
-11.39
-13.2
-14.66
-15.64
-16.13
-16.25
-16.14
-15.96
-15.78
-15.59
-15.33
-14.93
-14.34
-13.51
-12.38
-10.9
-9.11
-7.11
-5.12
-3.42
-2.27
-1.8
-1.99
-2.67
-3.67
-4.78
-5.94
-7.07
-8.16
-9.17
-10.05
-10.73
-11.21
-11.52
-11.7
-11.79
-11.85
-11.88
-11.91
-11.94
-12.01
-12.17
-12.42
-12.73
-13.05
-13.24
-13.19
-12.79
-12.02
-10.96
-9.73
-8.47
-7.26
-6.1
-4.97
-3.83
-2.68
-1.59
-0.68
-0.01
0.42
0.69
0.89
1.12
1.38
1.59
1.65
1.54
1.32
1.16
1.21
1.52
2.01
2.42
2.56
2.35
1.9
1.46
1.26
1.43
1.9
2.52
3.02
3.29
3.28
3.11
2.87
2.66
2.44
2.11
1.54
0.69
-0.39
-1.54
-2.55
-3.26
-3.62
-3.73
-3.76
-3.86
-4.11
-4.51
-5.01
-5.6
-6.3
-7.18
-8.22
-9.37
-10.46
-11.28
-11.72
-11.82
-11.74
-11.71
-11.9
-12.3
-12.73
-12.91
-12.63
-11.88
-10.84
-9.73
-8.65
-7.54
-6.24
-4.65
-2.89
-1.27
-0.12
0.39
0.38
0.15
0.02
0.18
0.55
0.91
1.07
0.98
0.77
0.62
0.67
0.88
1.09
1.09
0.77
0.18
-0.47
-0.95
-1.12
-0.97
-0.66
-0.36
-0.15
0.02
0.26
0.68
1.28
1.94
2.48
2.76
2.73
2.47
2.1
1.67
1.17
0.51
-0.34
-1.37
-2.42
-3.34
-4.02
-4.5
-4.95
-5.52
-6.25
-7.03
-7.64
-7.9
-7.78
-7.4
-6.93
-6.5
-6.14
-5.83
-5.55
-5.34
-5.31
-5.54
-5.96
-6.34
-6.42
-6.0
-5.08
-3.8
-2.41
-1.09
0.08
1.1
1.96
2.63
3.06
3.23
3.2
3.12
3.11
3.25
3.44
3.56
3.52
3.35
3.17
3.1
3.14
3.15
2.95
2.43
1.62
0.67
-0.26
-1.07
-1.77
-2.44
-3.1
-3.67
-4.07
-4.28
-4.41
-4.71
-5.41
-6.61
-8.23
-10.0
-11.6
-12.71
-13.16
-12.92
-12.16
-11.11
-10.08
-9.24
-8.69
-8.29
-7.86
-7.2
-6.25
-5.14
-4.09
-3.29
-2.83
-2.63
-2.54
-2.43
-2.26
-2.04
-1.81
-1.55
-1.19
-0.68
-0.06
0.51
0.82
0.75
0.33
-0.23
-0.66
-0.78
-0.63
-0.38
-0.26
-0.38
-0.7
-1.05
-1.28
-1.34
-1.34
-1.47
-1.88
-2.59
-3.48
-4.39
-5.2
-5.9
-6.54
-7.24
-7.97
-8.63
-9.06
-9.12
-8.77
-8.09
-7.24
-6.33
-5.41
-4.49
-3.57
-2.68
-1.9
-1.3
-0.95
-0.84
-0.87
-0.92
-0.86
-0.63
-0.23
0.24
0.69
1.03
1.21
1.22
1.09
0.84
0.5
0.13
-0.21
-0.45
-0.54
-0.48
-0.3
-0.04
0.25
0.52
0.73
0.8
0.73
0.53
0.27
0.01
-0.21
-0.41
-0.64
-0.93
-1.25
-1.58
-1.84
-2.06
-2.27
-2.57
-3.05
-3.73
-4.56
-5.44
-6.22
-6.82
-7.19
-7.37
-7.38
-7.24
-6.9
-6.27
-5.33
-4.16
-2.92
-1.77
-0.84
-0.15
0.35
0.76
1.12
1.47
1.79
2.07
2.3
2.5
2.68
2.85
2.99
3.03
2.9
2.53
1.94
1.23
0.57
0.17
0.1
0.34
0.7
0.93
0.92
0.69
0.39
0.18
0.09
0.05
-0.09
-0.38
-0.75
-1.02
-1.05
-0.83
-0.52
-0.39
-0.62
-1.22
-2.06
-2.91
-3.62
-4.12
-4.46
-4.68
-4.84
-4.93
-5.0
-5.05
-5.11
-5.17
-5.26
-5.38
-5.58
-5.84
-6.08
-6.18
-6.02
-5.55
-4.85
-4.05
-3.27
-2.56
-1.88
-1.18
-0.49
0.12
0.55
0.78
0.89
1.01
1.19
1.4
1.52
1.45
1.21
0.92
0.82
1.08
1.74
2.64
3.46
3.85
3.63
2.86
1.82
0.87
0.28
0.09
0.14
0.17
-0.0
-0.37
-0.76
-1.02
-1.1
-1.05
-0.99
-1.0
-1.08
-1.13
-1.1
-1.01
-0.96
-1.12
-1.55
-2.23
-3.09
-3.96
-4.73
-5.32
-5.72
-6.01
-6.28
-6.66
-7.18
-7.79
-8.33
-8.6
-8.5
-8.04
-7.37
-6.67
-6.05
-5.48
-4.83
-3.92
-2.77
-1.48
-0.32
0.49
0.8
0.64
0.13
-0.55
-1.24
-1.82
-2.15
-2.14
-1.71
-0.9
0.15
1.2
2.04
2.59
2.93
3.22
3.56
3.92
4.16
4.15
3.86
3.42
3.01
2.8
2.8
2.91
2.97
2.91
2.77
2.65
2.67
2.81
2.95
2.94
2.63
2.0
1.1
0.02
-1.15
-2.34
-3.5
-4.62
-5.63
-6.46
-7.07
-7.47
-7.67
-7.77
-7.8
-7.8
-7.74
-7.56
-7.23
-6.78
-6.24
-5.64
-4.99
-4.23
-3.31
-2.21
-0.99
0.21
1.28
2.11
2.68
3.07
3.36
3.66
4.0
4.38
4.76
5.06
5.24
5.29
5.24
5.19
5.16
5.15
5.12
5.02
4.88
4.8
4.87
5.08
5.31
5.39
5.17
4.67
4.05
3.53
3.24
3.16
3.15
3.06
2.78
2.3
1.71
1.09
0.5
-0.04
-0.54
-1.04
-1.61
-2.28
-3.11
-4.07
-5.09
-6.07
-6.92
-7.55
-7.93
-8.03
-7.84
-7.4
-6.74
-5.97
-5.2
-4.53
-4.0
-3.61
-3.29
-2.99
-2.71
-2.45
-2.2
-1.91
-1.51
-0.95
-0.27
0.34
0.68
0.63
0.25
-0.22
-0.49
-0.43
-0.05
0.46
0.96
1.39
1.78
2.24
2.74
3.15
3.32
3.22
2.89
2.48
2.12
1.74
1.24
0.5
-0.49
-1.56
-2.48
-3.06
-3.22
-3.02
-2.66
-2.31
-2.15
-2.22
-2.48
-2.84
-3.18
-3.44
-3.62
-3.76
-3.85
-3.86
-3.72
-3.39
-2.92
-2.39
-1.93
-1.63
-1.49
-1.45
-1.45
-1.39
-1.24
-0.92
-0.4
0.28
1.01
1.59
1.85
1.73
1.38
1.04
0.98
1.33
1.96
2.59
2.92
2.82
2.33
1.68
1.13
0.81
0.79
0.95
1.19
1.4
1.52
1.51
1.35
1.02
0.56
0.06
-0.39
-0.63
-0.61
-0.32
0.17
0.75
1.22
1.43
1.29
0.78
0.06
-0.67
-1.23
-1.53
-1.66
-1.77
-2.08
-2.66
-3.48
-4.39
-5.18
-5.72
-5.98
-6.03
-6.01
-5.96
-5.87
-5.64
-5.15
-4.37
-3.34
-2.21
-1.16
-0.32
0.22
0.48
0.51
0.41
0.27
0.15
0.1
0.13
0.21
0.31
0.4
0.48
0.53
0.54
0.55
0.61
0.77
1.09
1.57
2.18
2.87
3.59
4.28
4.93
5.45
5.71
5.59
5.06
4.16
3.11
2.15
1.44
0.99
0.7
0.39
-0.1
-0.78
-1.59
-2.39
-3.07
-3.54
-3.83
-3.95
-4.02
-4.12
-4.37
-4.81
-5.41
-6.05
-6.61
-6.95
-7.07
-6.95
-6.63
-6.13
-5.42
-4.52
-3.46
-2.37
-1.37
-0.55
0.05
0.46
0.76
1.03
1.31
1.62
1.94
2.24
2.46
2.56
2.54
2.46
2.39
2.42
2.56
2.79
3.02
3.15
3.12
2.94
2.66
2.35
2.09
1.89
1.7
1.49
1.21
0.93
0.7
0.6
0.67
0.81
0.87
0.69
0.21
-0.49
-1.23
-1.8
-2.13
-2.28
-2.39
-2.61
-3.0
-3.48
-4.0
-4.46
-4.82
-5.09
-5.24
-5.23
-5.0
-4.55
-3.96
-3.36
-2.88
-2.57
-2.41
-2.26
-2.04
-1.69
-1.22
-0.72
-0.28
0.02
0.15
0.14
0.1
0.21
0.57
1.15
1.78
2.22
2.31
2.06
1.69
1.48
1.63
2.13
2.78
3.31
3.6
3.64
3.64
3.71
3.87
4.0
3.91
3.53
2.89
2.2
1.62
1.27
1.1
1.02
0.91
0.69
0.3
-0.34
-1.24
-2.38
-3.59
-4.6
-5.17
-5.16
-4.69
-4.05
-3.55
-3.41
-3.65
-4.14
-4.65
-5.03
-5.17
-5.07
-4.77
-4.32
-3.78
-3.21
-2.66
-2.12
-1.63
-1.15
-0.69
-0.24
0.19
0.57
0.91
1.2
1.42
1.58
1.71
1.87
2.17
2.65
3.25
3.82
4.16
4.12
3.71
3.11
2.61
2.41
2.55
2.9
3.23
3.36
3.26
3.0
2.75
2.55
2.39
2.21
1.97
1.7
1.46
1.27
1.07
0.77
0.29
-0.37
-1.14
-1.92
-2.62
-3.19
-3.6
-3.86
-3.93
-3.81
-3.53
-3.18
-2.84
-2.61
-2.5
-2.47
-2.43
-2.35
-2.17
-1.9
-1.59
-1.29
-1.07
-0.93
-0.88
-0.83
-0.75
-0.6
-0.39
-0.18
-0.04
-0.01
-0.07
-0.16
-0.19
-0.08
0.2
0.58
0.94
1.11
1.0
0.66
0.25
0.02
0.12
0.52
0.98
1.23
1.06
0.46
-0.32
-1.01
-1.42
-1.52
-1.48
-1.56
-1.89
-2.48
-3.24
-3.97
-4.54
-4.86
-4.93
-4.8
-4.52
-4.16
-3.81
-3.58
-3.58
-3.87
-4.36
-4.87
-5.17
-5.06
-4.55
-3.79
-3.01
-2.41
-2.03
-1.8
-1.57
-1.25
-0.89
-0.58
-0.41
-0.37
-0.32
-0.14
0.32
1.06
1.97
2.89
3.63
4.08
4.23
4.17
4.07
4.0
4.0
3.92
3.66
3.13
2.43
1.77
1.32
1.11
1.06
0.98
0.75
0.42
0.15
0.1
0.25
0.44
0.44
0.1
-0.52
-1.2
-1.74
-2.03
-2.14
-2.26
-2.51
-2.91
-3.34
-3.63
-3.65
-3.46
-3.22
-3.1
-3.23
-3.56
-3.96
-4.27
-4.38
-4.3
-4.05
-3.67
-3.11
-2.35
-1.37
-0.26
0.82
1.68
2.28
2.69
3.1
3.66
4.36
5.09
5.63
5.83
5.69
5.36
5.12
5.23
5.79
6.71
7.77
8.67
9.16
9.13
8.65
7.89
7.04
6.23
5.46
4.65
3.73
2.68
1.6
0.59
-0.25
-0.92
-1.5
-2.08
-2.7
-3.31
-3.85
-4.26
-4.55
-4.8
-5.08
-5.43
-5.83
-6.16
-6.32
-6.28
-6.05
-5.69
-5.27
-4.83
-4.41
-4.03
-3.72
-3.5
-3.3
-3.06
-2.67
-2.06
-1.25
-0.28
0.74
1.76
2.65
3.32
3.64
3.54
3.06
2.35
1.69
1.32
1.37
1.8
2.48
3.19
3.82
4.27
4.55
4.68
4.67
4.53
4.27
3.92
3.48
2.94
2.34
1.77
1.36
1.21
1.3
1.47
1.48
1.18
0.62
0.05
-0.25
-0.13
0.31
0.75
0.87
0.48
-0.34
-1.3
-2.12
-2.65
-2.89
-2.99
-3.04
-3.05
-2.86
-2.29
-1.24
0.29
2.17
4.2
6.19
8.02
9.67
11.16
12.54
13.84
15.02
15.97
16.61
16.89
16.83
16.53
16.06
15.42
14.57
13.4
11.83
9.87
7.57
5.05
2.4
-0.29
-3.0
-5.71
-8.44
-11.22
-14.04
-16.88
-19.66
-22.28
-24.58
-26.43
-27.68
-28.29
-28.27
-27.74
-26.92
-26.09
-25.52
-25.38
-25.73
-26.46
-27.44
-28.55
-29.75
-31.11
-32.73
-34.68
-36.96
-39.45
-41.98
-44.39
-46.57
-48.56
-50.49
-52.48
-54.61
-56.75
-58.61
-59.79
-59.83
-58.38
-55.19
-50.24
-43.71
-35.9
-27.27
-18.32
-9.54
-1.29
6.21
12.85
18.62
23.53
27.59
30.87
33.55
35.86
38.04
40.19
42.26
44.07
45.43
46.28
46.63
46.57
46.1
45.19
43.8
42.02
40.1
38.35
37.02
36.14
35.51
34.84
33.89
32.52
30.73
28.59
26.2
23.64
21.03
18.44
15.93
13.49
11.06
8.61
6.22
4.06
2.38
1.38
1.09
1.41
2.08
2.89
3.66
4.26
4.63
4.72
4.47
3.84
2.86
1.63
0.27
-1.03
-2.2
-3.28
-4.39
-5.72
-7.33
-9.1
-10.74
-11.94
-12.55
-12.67
-12.63
-12.8
-13.48
-14.71
-16.32
-18.04
-19.67
-21.13
-22.51
-24.0
-25.81
-28.13
-31.05
-34.55
-38.47
-42.58
-46.64
-50.54
-54.37
-58.4
-63.07
-68.8
-75.89
-84.41
-94.07
-104.21
-113.8
-121.61
-126.5
-127.77
-125.36
-119.88
-112.28
-103.4
-93.6
-82.64
-69.97
-55.19
-38.44
-20.61
-3.01
13.0
26.59
37.55
46.28
53.45
59.59
64.9
69.35
72.82
75.39
77.37
79.15
80.97
82.69
83.85
83.91
82.54
79.79
76.01
71.66
67.08
62.35
57.4
52.14
46.55
40.7
34.7
28.59
22.37
16.0
9.51
2.94
-3.67
-10.37
-17.3
-24.62
-32.45
-40.85
-49.79
-59.23
-69.04
-78.98
-88.63
-97.36
-104.38
-108.92
-110.4
-108.56
-103.49
-95.5
-84.97
-72.19
-57.39
-40.88
-23.16
-4.99
12.61
28.62
42.27
53.17
61.43
67.47
71.84
75.04
77.44
79.23
80.53
81.35
81.77
81.8
81.47
80.77
79.56
77.68
74.91
71.02
65.92
59.68
52.56
44.96
37.26
29.62
21.93
13.77
4.62
-5.98
-18.27
-32.27
-47.77
-64.47
-82.1
-100.46
-119.45
-138.99
-159.01
-179.39
-199.86
-219.87
-238.54
-254.56
-266.31
-272.23
-271.24
-263.12
-248.62
-229.29
-207.0
-183.37
-159.44
-135.53
-111.51
-87.06
-61.94
-36.02
-9.14
19.02
48.9
80.82
114.54
149.0
182.32
212.28
236.97
255.37
267.46
273.85
275.25
272.08
264.39
252.14
235.45
214.61
190.03
162.02
130.88
97.21
62.14
27.43
-4.8
-32.61
-54.66
-70.36
-79.91
-84.05
-83.92
-80.97
-76.76
-72.67
-69.68
-68.28
-68.52
-70.24
-73.25
-77.38
-82.49
-88.37
-94.81
-101.62
-108.6
-115.3
-120.72
-123.26
-120.94
-112.11
-96.07
-73.51
-46.15
-16.14
14.81
45.83
76.9
108.37
140.46
172.97
205.25
236.38
265.3
290.91
312.01
327.49
336.54
338.94
335.17
326.41
314.1
299.51
283.17
264.73
243.11
217.01
185.63
149.19
109.05
67.41
26.73
-10.79
-43.57
-70.57
-91.16
-105.04
-112.36
-113.94
-111.37
-106.75
-102.17
-99.17
-98.36
-99.48
-101.77
-104.4
-106.84
-108.93
-110.77
-112.43
-113.89
-114.99
-115.58
-115.75
-115.92
-116.9
-119.58
-124.48
-131.4
-139.05
-145.22
-147.27
-142.9
-130.78
-111.0
-84.95
-54.85
-23.12
8.32
38.38
66.85
94.12
120.79
147.17
173.05
197.74
220.27
239.82
255.95
268.7
278.41
285.45
290.08
292.48
292.85
291.59
289.18
286.05
282.25
277.42
270.83
261.7
249.58
234.55
217.2
198.45
179.16
159.91
140.9
122.08
103.26
84.38
65.49
46.81
28.52
10.76
-6.42
-22.89
-38.45
-52.78
-65.56
-76.63
-86.03
-94.07
-101.16
-107.71
-113.93
-119.8
-125.04
-129.22
-131.91
-132.81
-131.83
-129.12
-125.04
-120.07
-114.73
-109.37
-104.19
-99.1
-93.92
-88.46
-82.72
-77.01
-71.89
-67.97
-65.64
-64.89
-65.32
-66.28
-67.19
-67.73
-67.89
-67.85
-67.75
-67.56
-67.15
-66.39
-65.35
-64.33
-63.76
-63.93
-64.86
-66.24
-67.53
-68.16
-67.6
-65.46
-61.55
-55.91
-48.86
-40.98
-33.0
-25.55
-19.01
-13.43
-8.63
-4.39
-0.59
2.75
5.62
8.06
10.32
12.71
15.44
18.58
21.96
25.28
28.27
30.82
32.9
34.59
35.94
36.93
37.43
37.36
36.71
35.62
34.37
33.26
32.48
32.06
31.85
31.59
31.04
30.06
28.68
27.03
25.3
23.61
22.05
20.68
19.56
18.71
18.07
17.52
16.81
15.72
14.07
11.81
9.01
5.83
2.47
-0.86
-3.99
-6.73
-8.9
-10.32
-10.94
-10.77
-9.93
-8.62
-7.1
-5.69
-4.67
-4.31
-4.73
-5.87
-7.49
-9.24
-10.84
-12.1
-13.03
-13.69
-14.18
-14.53
-14.72
-14.76
-14.73
-14.75
-14.9
-15.12
-15.26
-15.12
-14.64
-13.94
-13.29
-12.99
-13.18
-13.82
-14.67
-15.44
-15.89
-15.95
-15.7
-15.31
-14.96
-14.77
-14.77
-14.94
-15.2
-15.43
-15.57
-15.58
-15.52
-15.49
-15.62
-16.02
-16.71
-17.68
-18.82
-20.03
-21.27
-22.48
-23.66
-24.81
-25.91
-26.98
-28.05
-29.21
-30.54
-32.15
-34.08
-36.33
-38.81
-41.35
-43.82
-46.13
-48.31
-50.55
-53.05
-56.01
-59.42
-63.0
-66.16
-68.09
-67.95
-65.07
-59.19
-50.58
-39.96
-28.34
-16.76
-6.02
3.44
11.49
18.24
23.81
28.31
31.83
34.54
36.69
38.52
40.22
41.72
42.81
43.24
42.89
41.83
40.36
38.77
37.21
35.63
33.84
31.65
28.98
25.89
22.58
19.27
16.1
13.05
9.97
6.61
2.73
-1.82
-7.05
-12.88
-19.12
-25.63
-32.3
-39.05
-45.81
-52.54
-59.2
-65.87
-72.65
-79.63
-86.66
-93.27
-98.63
-101.81
-102.04
-98.98
-92.79
-84.01
-73.29
-61.14
-47.82
-33.45
-18.15
-2.3
13.45
28.27
41.33
52.06
60.27
66.17
70.22
72.98
74.93
76.39
77.51
78.33
78.88
79.15
79.11
78.7
77.85
76.54
74.83
72.84
70.67
68.34
65.78
62.83
59.39
55.44
51.11
46.62
42.14
37.77
33.48
29.18
24.76
20.15
15.35
10.4
5.36
0.29
-4.81
-9.96
-15.32
-21.16
-27.81
-35.63
-44.76
-54.99
-65.67
-75.79
-84.15
-89.68
-91.7
-89.97
-84.73
-76.54
-66.13
-54.29
-41.82
-29.47
-17.86
-7.34
2.1
10.87
19.72
29.41
40.54
53.19
66.91
80.76
93.57
104.26
112.12
116.97
119.09
119.01
117.27
114.22
109.94
104.34
97.29
88.79
78.98
68.15
56.63
44.7
32.63
20.68
9.2
-1.4
-10.71
-18.41
-24.41
-28.84
-31.97
-34.19
-35.78
-36.91
-37.59
-37.71
-37.09
-35.61
-33.25
-30.19
-26.76
-23.41
-20.5
-18.2
-16.44
-14.97
-13.48
-11.72
-9.56
-6.97
-4.03
-0.87
2.29
5.23
7.76
9.85
11.67
13.5
15.57
17.94
20.39
22.62
24.41
25.82
27.19
29.02
31.8
35.84
41.17
47.5
54.07
59.52
61.98
59.41
50.24
34.04
11.91
-13.68
-39.67
-63.24
-82.58
-97.05
-106.92
-112.86
-115.63
-115.95
-114.74
-113.13
-112.33
-113.27
-116.34
-121.32
-127.65
-134.74
-142.2
-149.71
-156.76
-162.38
-165.22
-163.86
-157.29
-145.3
-128.52
-108.26
-86.08
-63.54
-42.0
-22.53
-5.93
7.46
17.62
24.98
30.16
33.87
36.69
39.02
41.03
42.75
44.13
45.08
45.51
45.41
44.86
44.05
43.23
42.62
42.28
42.11
41.87
41.36
40.46
39.25
37.84
36.37
34.88
33.34
31.7
29.97
28.28
26.74
25.45
24.39
23.4
22.33
21.09
19.68
18.21
16.83
15.6
14.53
13.52
12.45
11.26
9.96
8.6
7.28
6.05
4.92
3.85
2.75
1.58
0.34
-0.92
-2.14
-3.24
-4.17
-4.89
-5.39
-5.69
-5.83
-5.86
-5.86
-5.89
-5.95
-6.03
-6.07
-6.07
-6.01
-5.94
-5.88
-5.79
-5.59
-5.21
-4.61
-3.84
-2.98
-2.14
-1.38
-0.72
-0.18
0.24
0.49
0.55
0.44
0.26
0.12
0.11
0.26
0.46
0.57
0.52
0.32
0.13
0.13
0.41
0.86
1.21
1.18
0.57
-0.54
-1.92
-3.27
-4.38
-5.23
-5.91
-6.57
-7.29
-8.01
-8.63
-9.01
-9.04
-8.67
-7.91
-6.82
-5.47
-3.93
-2.29
-0.6
1.13
2.86
4.55
6.08
7.36
8.33
9.03
9.56
10.04
10.5
10.9
11.16
11.26
11.3
11.38
11.63
12.03
12.42
12.63
12.55
12.24
11.88
11.66
11.62
11.71
11.77
11.66
11.38
11.09
11.02
11.32
12.06
13.08
14.12
14.97
15.52
15.85
16.18
16.78
17.86
19.45
21.41
23.49
25.45
27.17
28.69
30.26
32.18
34.72
38.03
42.08
46.74
51.75
56.74
61.27
64.89
67.25
68.23
68.06
67.24
66.33
65.8
65.68
65.47
64.26
60.94
54.59
44.96
32.51
18.39
4.0
-9.56
-21.76
-32.72
-42.89
-52.67
-62.13
-71.02
-78.97
-85.73
-91.28
-95.69
-98.99
-101.11
-101.95
-101.55
-100.19
-98.42
-96.83
-95.89
-95.76
-96.31
-97.12
-97.73
-97.66
-96.61
-94.52
-91.52
-87.92
-84.16
-80.62
-77.54
-74.9
-72.47
-69.81
-66.43
-61.96
-56.2
-49.28
-41.52
-33.43
-25.48
-18.02
-11.21
-5.1
0.4
5.34
9.73
13.51
16.67
19.28
21.51
23.56
25.58
27.57
29.34
30.63
31.18
30.86
29.72
28.05
26.18
24.4
22.8
21.22
19.31
16.72
13.23
8.89
4.01
-1.05
-6.01
-10.82
-15.61
-20.56
-25.86
-31.54
-37.5
-43.61
-49.71
-55.75
-61.73
-67.71
-73.73
-79.86
-86.11
-92.44
-98.62
-104.15
-108.21
-109.74
-107.65
-101.12
-89.88
-74.33
-55.54
-34.97
-14.21
5.35
22.69
37.23
48.78
57.48
63.71
67.98
70.85
72.89
74.54
76.07
77.56
78.88
79.78
80.02
79.47
78.18
76.38
74.42
72.61
71.1
69.87
68.69
67.39
65.86
64.18
62.52
61.04
59.75
58.55
57.24
55.67
53.8
51.7
49.42
47.0
44.36
41.5
38.42
35.28
32.26
29.53
27.07
24.78
22.5
20.07
17.41
14.52
11.52
8.51
5.6
2.9
0.45
-1.71
-3.55
-5.03
-6.08
-6.67
-6.77
-6.45
-5.86
-5.15
-4.44
-3.71
-2.87
-1.84
-0.61
0.62
1.66
2.31
2.54
2.5
2.4
2.41
2.55
2.7
2.69
2.46
2.09
1.7
1.4
1.17
0.86
0.26
-0.7
-1.94
-3.2
-4.16
-4.64
-4.68
-4.51
-4.48
-4.86
-5.71
-6.92
-8.27
-9.53
-10.6
-11.49
-12.3
-13.11
-13.98
-14.89
-15.84
-16.85
-18.04
-19.54
-21.47
-23.81
-26.5
-29.4
-32.37
-35.31
-38.05
-40.3
-41.56
-41.27
-38.97
-34.55
-28.34
-21.08
-13.59
-6.57
-0.42
4.78
9.13
12.71
15.55
17.67
19.13
20.09
20.81
21.49
22.21
22.89
23.41
23.61
23.43
22.86
21.98
20.87
19.66
18.46
17.34
16.25
15.05
13.49
11.38
8.64
5.44
2.11
-0.96
-3.51
-5.57
-7.42
-9.51
-12.2
-15.61
-19.62
-23.86
-27.97
-31.72
-35.16
-38.6
-42.41
-46.87
-52.02
-57.61
-63.13
-67.85
-70.88
-71.25
-68.12
-61.05
-50.25
-36.64
-21.74
-7.2
5.63
16.06
24.05
30.07
34.65
38.22
40.99
43.09
44.63
45.8
46.76
47.61
48.3
48.71
48.71
48.29
47.51
46.52
45.46
44.4
43.31
42.12
40.71
38.98
36.89
34.44
31.64
28.54
25.2
21.66
17.96
14.15
10.26
6.34
2.46
-1.33
-5.05
-8.76
-12.63
-16.83
-21.44
-26.44
-31.64
-36.85
-41.88
-46.68
-51.31
-55.94
-60.75
-65.83
-71.1
-76.15
-80.24
-82.37
-81.45
-76.7
-67.86
-55.37
-40.28
-23.89
-7.48
7.92
21.55
32.9
41.62
47.53
50.77
51.83
51.49
50.65
50.04
50.02
50.53
51.28
51.86
52.03
51.75
51.13
50.31
49.37
48.25
46.79
44.86
42.43
39.62
36.62
33.65
30.77
27.91
24.86
21.42
17.5
13.19
8.7
4.3
0.17
-3.66
-7.35
-11.14
-15.28
-19.87
-24.89
-30.14
-35.37
-40.34
-44.94
-49.31
-53.77
-58.78
-64.73
-71.68
-79.16
-86.13
-91.17
-92.8
-89.89
-81.95
-69.3
-52.95
-34.33
-15.04
3.45
19.96
33.71
44.3
51.76
56.47
59.07
60.3
60.89
61.37
62.02
62.82
63.53
63.86
63.54
62.5
60.88
58.94
56.94
55.03
53.23
51.42
49.46
47.28
44.85
42.23
39.44
36.52
33.49
30.38
27.22
23.99
20.67
17.17
13.42
9.49
5.49
1.65
-1.84
-4.89
-7.59
-10.13
-12.8
-15.79
-19.19
-22.93
-26.81
-30.61
-34.16
-37.42
-40.6
-44.05
-48.11
-52.93
-58.27
-63.45
-67.38
-68.83
-66.75
-60.53
-50.16
-36.3
-20.15
-3.22
12.99
27.21
38.62
46.99
52.56
55.92
57.75
58.65
59.02
59.06
58.86
58.42
57.69
56.6
55.03
52.89
50.22
47.16
43.94
40.78
37.81
34.95
32.05
28.92
25.45
21.67
17.71
13.7
9.73
5.78
1.73
-2.62
-7.44
-12.81
-18.65
-24.8
-31.03
-37.18
-43.22
-49.25
-55.43
-61.91
-68.79
-76.02
-83.36
-90.27
-95.92
-99.32
-99.56
-96.08
-88.86
-78.42
-65.64
-51.42
-36.53
-21.54
-6.96
6.68
18.73
28.63
36.06
41.13
44.36
46.48
48.12
49.61
50.86
51.59
51.51
50.58
48.98
47.04
44.98
42.84
40.52
37.85
34.73
31.16
27.23
23.04
18.7
14.29
9.9
5.59
1.36
-2.88
-7.28
-11.98
-17.03
-22.31
-27.66
-32.83
-37.7
-42.24
-46.57
-50.88
-55.37
-60.29
-65.83
-72.14
-79.12
-86.39
-93.11
-98.14
-100.2
-98.26
-91.79
-80.98
-66.58
-49.75
-31.67
-13.41
4.18
20.39
34.61
46.39
55.46
61.85
65.88
68.12
69.17
69.6
69.73
69.72
69.58
69.19
68.49
67.39
65.9
64.02
61.77
59.13
56.06
52.53
48.57
44.28
39.82
35.33
30.88
26.44
21.91
17.18
12.22
7.12
2.04
-2.86
-7.49
-11.92
-16.32
-20.9
-25.77
-30.88
-36.05
-41.08
-45.83
-50.3
-54.66
-59.15
-64.1
-69.77
-76.3
-83.64
-91.37
-98.61
-104.15
-106.63
-104.97
-98.66
-87.88
-73.47
-56.55
-38.29
-19.69
-1.57
15.43
30.68
43.66
54.03
61.71
66.95
70.24
72.19
73.32
74.03
74.46
74.62
74.47
73.94
73.02
71.75
70.21
68.43
66.37
63.93
60.94
57.3
53.04
48.34
43.51
38.86
34.55
30.52
26.53
22.29
17.66
12.65
7.5
2.49
-2.18
-6.48
-10.52
-14.49
-18.59
-22.9
-27.4
-32.03
-36.69
-41.36
-46.02
-50.7
-55.43
-60.29
-65.41
-70.88
-76.8
-82.96
-88.86
-93.55
-95.83
-94.63
-89.2
-79.49
-66.01
-49.73
-31.74
-13.11
5.18
22.27
37.32
49.66
58.85
64.84
68.02
69.11
68.93
68.15
67.18
66.07
64.73
63.01
60.9
58.45
55.8
53.03
50.11
46.97
43.46
39.52
35.13
30.31
25.16
19.81
14.41
9.13
4.14
-0.54
-4.94
-9.24
-13.59
-18.07
-22.64
-27.15
-31.46
-35.44
-39.11
-42.56
-45.95
-49.51
-53.46
-58.04
-63.44
-69.62
-76.2
-82.36
-86.88
-88.51
-86.26
-79.76
-69.32
-55.75
-40.14
-23.52
-6.82
9.13
23.54
35.66
44.94
51.23
54.83
56.41
56.8
56.75
56.74
56.94
57.31
57.68
57.86
57.71
57.18
56.26
54.98
53.38
51.44
49.16
46.52
43.62
40.55
37.4
34.26
31.06
27.73
24.17
20.35
16.31
12.2
8.17
4.35
0.87
-2.24
-5.01
-7.61
-10.35
-13.52
-17.36
-21.92
-27.04
-32.42
-37.8
-42.95
-47.81
-52.36
-56.69
-60.87
-65.1
-69.67
-74.87
-80.79
-87.08
-92.84
-96.73
-97.31
-93.52
-85.03
-72.26
-56.21
-38.16
-19.26
-0.5
17.34
33.51
47.32
58.13
65.63
69.92
71.58
71.48
70.48
69.21
67.88
66.45
64.71
62.58
60.11
57.47
54.78
52.05
49.15
45.92
42.28
38.3
34.14
30.04
26.16
22.61
19.33
16.21
13.09
9.81
6.28
2.54
-1.35
-5.26
-9.16
-13.04
-16.93
-20.8
-24.64
-28.39
-32.04
-35.67
-39.32
-43.05
-46.79
-50.42
-53.87
-57.12
-60.32
-63.7
-67.56
-72.08
-77.18
-82.42
-86.94
-89.6
-89.26
-85.14
-77.0
-65.29
-50.91
-34.99
-18.58
-2.59
12.26
25.3
35.99
43.97
49.2
52.05
53.19
53.39
53.28
53.16
53.03
52.72
52.06
50.99
49.57
47.91
46.12
44.25
42.25
40.06
37.62
34.85
31.73
28.24
24.39
20.23
15.87
11.49
7.2
3.08
-0.92
-4.94
-9.13
-13.62
-18.47
-23.63
-28.95
-34.22
-39.28
-44.03
-48.51
-52.91
-57.52
-62.65
-68.53
-75.02
-81.58
-87.17
-90.51
-90.39
-86.05
-77.41
-65.07
-50.03
-33.41
-16.15
1.0
17.37
32.26
44.92
54.75
61.56
65.65
67.77
68.76
69.34
69.85
70.28
70.52
70.45
70.12
69.63
69.05
68.32
67.3
65.81
63.76
61.21
58.28
55.16
51.99
48.9
45.96
43.27
40.91
38.9
37.21
35.75
34.4
33.06
31.7
30.31
28.91
27.52
26.06
24.5
22.76
20.87
18.89
16.91
14.96
13.0
10.88
8.4
5.33
1.43
-3.55
-9.86
-17.67
-26.92
-37.24
-47.83
-57.64
-65.64
-71.09
-73.71
-73.76
-71.76
-68.22
-63.51
-57.83
-51.32
-44.29
-37.22
-30.78
-25.55
-21.86
-19.68
-18.7
-18.56
-18.99
-19.98
-21.75
-24.58
-28.7
-34.13
-40.74
-48.34
-56.66
-65.45
-74.43
-83.27
-91.72
-99.6
-106.96
-113.96
-120.76
-127.41
-133.73
-139.37
-143.97
-147.32
-149.4
-150.35
-150.39
-149.68
-148.31
-146.33
-143.79
-140.82
-137.64
-134.6
-132.25
-131.33
-132.73
-137.17
-144.92
-155.36
-166.85
-176.96
-183.02
-182.87
-175.43
-160.88
-140.36
-115.38
-87.26
-56.86
-24.71
8.7
42.63
75.93
107.17
134.93
158.16
176.38
189.8
199.14
205.34
209.24
211.33
211.76
210.59
207.95
204.23
199.97
195.6
191.23
186.63
181.48
175.59
169.2
162.78
156.89
151.84
147.52
143.49
139.2
134.26
128.55
122.29
115.89
109.84
104.53
100.2
96.77
93.88
90.97
87.37
82.58
76.43
69.16
61.33
53.63
46.58
40.28
34.32
27.88
19.95
9.92
-1.96
-14.14
-23.94
-28.17
-24.26
-11.32
9.34
34.54
60.34
83.43
102.06
116.21
126.93
135.45
142.43
147.64
150.23
148.85
141.99
128.32
107.02
78.55
45.27
11.42
-17.8
-38.17
-48.23
-50.1
-48.52
-48.7
-53.85
-63.94
-76.14
-86.56
-92.38
-92.91
-89.36
-83.61
-77.01
-69.81
-61.68
-52.51
-43.02
-34.74
-29.26
-27.41
-28.9
-32.39
-36.03
-38.39
-38.98
-38.33
-37.62
-38.05
-40.25
-44.0
-48.46
-52.57
-55.63
-57.6
-59.09
-61.07
-64.49
-69.82
-76.82
-84.64
-91.96
-97.46
-100.13
-99.49
-95.61
-88.93
-80.01
-69.34
-57.2
-43.77
-29.31
-14.27
0.61
14.4
26.26
35.61
42.32
46.73
49.45
51.13
52.28
53.18
53.92
54.51
54.94
55.26
55.47
55.54
55.33
54.62
53.2
50.89
47.65
43.59
38.92
33.94
28.91
23.94
18.98
13.81
8.2
2.05
-4.58
-11.44
-18.26
-24.82
-31.04
-37.02
-42.98
-49.19
-55.94
-63.46
-71.85
-80.92
-90.1
-98.44
-104.74
-107.88
-107.12
-102.37
-94.16
-83.43
-71.14
-57.99
-44.31
-30.19
-15.73
-1.22
12.8
25.65
36.74
45.74
52.68
57.76
61.31
63.63
64.9
65.31
65.05
64.38
63.59
62.9
62.42
62.05
61.61
60.83
59.51
57.56
54.99
51.89
48.39
44.58
40.52
36.17
31.45
26.32
20.8
15.03
9.23
3.62
-1.71
-6.83
-11.94
-17.35
-23.28
-29.77
-36.67
-43.63
-50.32
-56.49
-62.15
-67.55
-73.11
-79.14
-85.65
-92.22
-97.99
-101.96
-103.24
-101.33
-96.12
-87.87
-77.03
-64.07
-49.44
-33.57
-16.91
-0.02
16.43
31.79
45.4
56.78
65.7
72.21
76.68
79.62
81.52
82.72
83.36
83.42
82.88
81.79
80.28
78.49
76.44
73.98
70.89
66.98
62.23
56.84
51.12
45.43
40.06
35.13
30.63
26.51
22.68
19.08
15.69
12.49
9.46
6.58
3.78
1.05
-1.64
-4.2
-6.57
-8.64
-10.38
-11.9
-13.39
-15.07
-17.12
-19.6
-22.44
-25.48
-28.56
-31.5
-34.14
-36.32
-37.84
-38.48
-38.05
-36.4
-33.56
-29.69
-25.13
-20.35
-15.81
-11.97
-9.1
-7.33
-6.58
-6.58
-6.99
-7.44
-7.68
-7.57
-7.14
-6.51
-5.86
-5.32
-4.91
-4.59
-4.32
-4.06
-3.85
-3.72
-3.68
-3.69
-3.7
-3.65
-3.59
-3.57
-3.68
-3.9
-4.13
-4.2
-3.98
-3.44
-2.71
-1.98
-1.43
-1.13
-1.03
-0.99
-0.84
-0.46
0.19
1.08
2.08
3.12
4.11
5.07
6.06
7.15
8.34
9.59
10.78
11.8
12.56
13.0
13.04
12.56
11.47
9.71
7.35
4.6
1.69
-1.22
-4.04
-6.75
-9.28
-11.41
-12.84
-13.3
-12.71
-11.3
-9.57
-8.04
-7.11
-6.85
-7.03
-7.21
-7.01
-6.23
-5.01
-3.73
-2.88
-2.87
-3.88
-5.71
-7.89
-9.83
-11.01
-11.17
-10.41
-9.13
-7.88
-7.19
-7.37
-8.42
-10.01
-11.44
-11.89
-10.56
-7.07
-1.8
4.03
8.57
9.92
6.96
-0.14
-9.88
-20.03
-28.38
-33.52
-35.17
-33.92
-30.77
-26.58
-21.77
-16.31
-10.07
-3.02
4.56
12.1
18.82
23.97
27.02
27.87
26.88
24.8
22.58
21.13
21.1
22.66
25.57
29.15
32.54
34.92
35.78
35.0
32.88
29.99
26.97
24.39
22.51
21.24
20.16
18.61
15.88
11.51
5.42
-2.02
-10.14
-18.16
-25.39
-31.3
-35.49
-37.72
-37.88
-36.15
-33.02
-29.19
-25.47
-22.5
-20.61
-19.82
-19.94
-20.65
-21.71
-22.86
-23.93
-24.77
-25.25
-25.25
-24.63
-23.25
-21.04
-18.06
-14.58
-11.04
-7.87
-5.36
-3.48
-2.01
-0.62
0.88
2.44
3.81
4.73
5.11
5.06
4.88
4.82
5.02
5.41
5.87
6.3
6.66
6.99
7.33
7.63
7.78
7.67
7.26
6.63
5.89
5.12
4.3
3.31
2.02
0.4
-1.46
-3.29
-4.81
-5.88
-6.55
-7.06
-7.68
-8.58
-9.67
-10.73
-11.48
-11.75
-11.57
-11.17
-10.8
-10.74
-11.13
-12.02
-13.32
-14.9
-16.55
-18.06
-19.27
-20.14
-20.76
-21.32
-22.0
-22.9
-24.0
-25.12
-25.98
-26.33
-25.98
-24.91
-23.28
-21.35
-19.38
-17.57
-15.97
-14.54
-13.16
-11.78
-10.37
-8.99
-7.74
-6.7
-5.95
-5.54
-5.42
-5.49
-5.62
-5.63
-5.41
-4.85
-3.92
-2.61
-1.01
0.75
2.46
3.89
4.85
5.29
5.34
5.25
5.3
5.64
6.26
6.95
7.37
7.25
6.43
5.02
3.26
1.47
-0.08
-1.27
-2.14
-2.83
-3.53
-4.43
-5.69
-7.4
-9.54
-11.9
-14.13
-15.76
-16.41
-15.91
-14.38
-12.19
-9.82
-7.65
-5.9
-4.53
-3.4
-2.36
-1.3
-0.21
0.86
1.88
2.8
3.62
4.23
4.52
4.34
3.54
2.1
0.09
-2.29
-4.8
-7.26
-9.56
-11.64
-13.51
-15.12
-16.32
-16.91
-16.73
-15.77
-14.25
-12.55
-11.11
-10.18
-9.82
-9.84
-9.97
-10.06
-10.12
-10.36
-11.02
-12.26
-14.06
-16.24
-18.54
-20.75
-22.76
-24.5
-25.84
-26.47
-26.0
-24.02
-20.33
-15.04
-8.59
-1.54
5.64
12.7
19.59
26.28
32.63
38.31
42.93
46.24
48.17
48.88
48.56
47.34
45.2
42.02
37.75
32.48
26.51
20.31
14.37
9.08
4.68
1.17
-1.63
-3.99
-6.16
-8.27
-10.31
-12.17
-13.79
-15.21
-16.54
-18.02
-19.83
-22.18
-25.16
-28.83
-33.22
-38.28
-43.97
-50.13
-56.5
-62.74
-68.43
-73.14
-76.54
-78.42
-78.68
-77.3
-74.25
-69.42
-62.62
-53.7
-42.64
-29.78
-15.81
-1.76
11.2
22.04
30.08
35.18
37.65
38.17
37.54
36.45
35.38
34.63
34.3
34.39
34.84
35.51
36.23
36.75
36.85
36.35
35.16
33.35
31.09
28.59
25.98
23.23
20.15
16.48
11.99
6.63
0.57
-5.91
-12.48
-18.92
-25.15
-31.25
-37.39
-43.74
-50.49
-57.79
-65.76
-74.46
-83.75
-93.26
-102.33
-110.09
-115.67
-118.45
-118.21
-115.24
-110.11
-103.53
-96.01
-87.86
-79.15
-69.88
-60.15
-50.33
-41.0
-32.92
-26.88
-23.46
-22.89
-24.95
-28.96
-33.9
-38.63
-41.98
-43.01
-41.11
-36.11
-28.3
-18.39
-7.35
3.86
14.5
24.16
32.77
40.42
47.32
53.59
59.32
64.57
69.38
73.7
77.27
79.6
79.98
77.74
72.45
64.17
53.46
41.24
28.49
15.96
4.01
-7.4
-18.67
-30.34
-43.04
-57.23
-73.05
-90.07
-107.13
-122.47
-134.06
-140.19
-139.92
-133.33
-121.35
-105.28
-86.36
-65.45
-43.11
-19.78
3.96
27.29
49.21
68.8
85.43
98.83
109.11
116.61
121.75
124.99
126.71
127.24
126.91
126.01
124.83
123.58
122.33
121.0
119.33
117.05
113.92
109.85
104.94
99.47
93.78
88.22
82.93
77.9
72.85
67.43
61.34
54.53
47.28
40.1
33.54
28.0
23.56
19.95
16.72
13.31
9.22
3.99
-2.6
-10.47
-18.9
-26.61
-31.89
-33.13
-29.28
-20.31
-7.12
8.87
26.18
43.69
60.67
76.5
90.36
101.16
107.79
109.62
106.9
100.88
93.47
86.69
81.96
79.81
79.82
81.0
82.28
82.95
82.82
82.09
81.13
80.1
78.84
76.9
73.81
69.28
63.42
56.67
49.59
42.58
35.74
28.78
21.33
13.1
4.12
-5.25
-14.54
-23.4
-31.84
-40.26
-49.27
-59.33
-70.61
-82.81
-95.39
-107.77
-119.55
-130.59
-141.0
-150.97
-160.77
-170.74
-181.29
-192.7
-204.88
-217.04
-227.38
-233.34
-232.15
-221.64
-201.05
-171.37
-135.1
-95.54
-56.02
-19.2
13.15
40.13
61.44
77.26
88.15
95.08
99.28
102.07
104.57
107.47
111.0
115.03
119.39
124.03
129.07
134.67
140.81
147.02
152.36
155.46
154.87
149.44
138.59
122.57
102.38
79.5
55.43
31.35
7.82
-15.15
-37.73
-60.1
-82.15
-103.6
-124.12
-143.44
-161.38
-177.65
-191.76
-202.95
-210.44
-213.69
-212.55
-207.3
-198.41
-186.35
-171.51
-154.17
-134.57
-113.02
-89.87
-65.57
-40.63
-15.71
8.45
31.14
51.74
69.91
85.5
98.54
109.1
117.2
122.92
126.44
128.07
128.24
127.43
125.97
124.08
121.81
119.16
116.17
112.96
109.69
106.49
103.38
100.25
96.98
93.54
90.24
87.7
86.74
88.06
91.89
97.84
104.87
111.62
116.86
119.81
120.43
119.24
117.12
114.84
112.79
110.81
108.42
104.99
100.04
93.27
84.61
74.1
61.9
48.35
33.97
19.43
5.44
-7.48
-19.05
-29.17
-37.77
-44.62
-49.39
-51.83
-52.0
-50.33
-47.57
-44.49
-41.62
-39.12
-36.93
-34.88
-32.95
-31.28
-30.06
-29.37
-29.03
-28.75
-28.23
-27.37
-26.28
-25.23
-24.45
-24.01
-23.84
-23.8
-23.8
-23.93
-24.38
-25.43
-27.33
-30.18
-33.89
-38.2
-42.75
-47.21
-51.36
-55.25
-59.14
-63.56
-69.13
-76.32
-85.21
-95.27
-105.32
-113.67
-118.57
-118.68
-113.46
-103.27
-89.15
-72.46
-54.44
-35.93
-17.46
0.63
17.96
34.04
48.25
60.01
68.94
74.93
78.25
79.38
79.01
77.81
76.31
74.79
73.3
71.7
69.85
67.72
65.4
63.07
60.88
58.84
56.85
54.74
52.42
49.82
46.99
43.94
40.67
37.11
33.15
28.74
23.86
18.56
13.01
7.41
2.03
-2.83
-7.01
-10.52
-13.73
-17.36
-22.42
-30.0
-40.95
-55.47
-72.91
-91.6
-109.14
-122.88
-130.69
-131.52
-125.69
-114.64
-100.39
-84.81
-69.16
-53.95
-39.19
-24.78
-10.75
2.6
14.89
25.73
34.94
42.49
48.48
53.13
56.71
59.49
61.73
63.62
65.26
66.71
68.03
69.35
70.84
72.64
74.72
76.82
78.47
79.11
78.22
75.43
70.49
63.24
53.68
42.19
29.68
17.49
6.86
-1.83
-9.63
-18.8
-31.88
-50.49
-74.3
-101.1
-127.74
-151.44
-170.81
-186.03
-198.23
-208.54
-217.56
-225.21
-231.05
-234.63
-235.54
-233.34
-227.39
-216.83
-200.77
-178.66
-150.67
-117.9
-82.35
-46.58
-13.02
16.59
41.67
62.66
80.62
96.53
110.75
122.95
132.39
138.47
141.11
140.85
138.56
135.14
131.2
126.99
122.57
117.95
113.18
108.35
103.47
98.39
92.85
86.58
79.47
71.64
63.45
55.34
47.7
40.69
34.25
28.1
21.88
15.3
8.26
0.8
-6.84
-14.39
-21.62
-28.39
-34.75
-40.89
-47.19
-54.05
-61.77
-70.19
-78.62
-85.86
-90.5
-91.41
-88.13
-80.98
-70.85
-58.84
-45.82
-32.35
-18.64
-4.85
8.84
22.07
34.44
45.54
55.03
62.68
68.31
71.86
73.42
73.2
71.59
69.05
66.05
63.01
60.22
57.81
55.77
54.02
52.37
50.62
48.54
45.92
42.6
38.58
34.0
29.11
24.23
19.55
15.04
10.53
