-0.07
-1.39
-2.56
-3.64
-4.75
-5.94
-7.3
-8.88
-10.69
-12.68
-14.78
-16.85
-18.79
-20.49
-21.84
-22.8
-23.35
-23.48
-23.25
-22.72
-21.93
-20.86
-19.43
-17.56
-15.19
-12.35
-9.18
-5.85
-2.59
0.39
2.99
5.18
7.0
8.53
9.83
10.98
12.02
13.0
13.95
14.86
15.66
16.25
16.55
16.51
16.18
15.69
15.18
14.73
14.32
13.85
13.21
12.36
11.37
10.37
9.48
8.72
8.03
7.26
6.28
5.04
3.55
1.94
0.34
-1.17
-2.58
-3.94
-5.3
-6.7
-8.15
-9.64
-11.16
-12.66
-14.09
-15.37
-16.38
-17.06
-17.39
-17.34
-16.89
-16.01
-14.68
-12.9
-10.78
-8.48
-6.23
-4.25
-2.64
-1.38
-0.4
0.49
1.4
2.4
3.53
4.72
5.91
6.98
7.88
8.54
8.99
9.22
9.27
9.19
9.06
9.01
9.13
9.44
9.89
10.31
10.48
10.25
9.59
8.64
7.65
6.94
6.66
6.79
7.08
7.21
6.91
6.09
4.84
3.41
1.98
0.62
-0.75
-2.22
-3.78
-5.34
-6.76
-7.97
-9.07
-10.25
-11.7
-13.48
-15.46
-17.35
-18.9
-19.98
-20.6
-20.86
-20.91
-20.77
-20.39
-19.64
-18.37
-16.51
-14.08
-11.22
-8.14
-5.03
-2.01
0.86
3.53
5.94
8.0
9.62
10.8
11.66
12.39
13.16
14.07
15.02
15.85
16.37
16.53
16.42
16.19
15.99
15.86
15.73
15.51
15.1
14.51
13.83
13.12
12.39
11.62
10.73
9.69
8.51
7.24
5.91
4.49
2.94
1.2
-0.67
-2.56
-4.33
-5.88
-7.27
-8.65
-10.19
-12.01
-14.08
-16.25
-18.37
-20.3
-21.93
-23.23
-24.17
-24.77
-24.99
-24.79
-24.09
-22.81
-20.94
-18.46
-15.46
-12.09
-8.55
-5.01
-1.62
1.47
4.14
6.32
7.99
9.23
10.2
11.09
12.05
13.16
14.34
15.47
16.38
16.94
17.13
17.03
16.77
16.51
16.34
16.22
16.06
15.76
15.26
14.57
13.8
13.04
12.3
11.52
10.58
9.37
7.89
6.25
4.62
3.16
1.93
0.88
-0.14
-1.32
-2.8
-4.64
-6.81
-9.19
-11.63
-13.96
-16.03
-17.72
-18.95
-19.79
-20.44
-21.12
-21.97
-22.97
-23.89
-24.4
-24.22
-23.22
-21.48
-19.16
-16.46
-13.49
-10.38
-7.28
-4.42
-2.0
-0.19
1.05
1.92
2.67
3.53
4.57
5.7
6.78
7.66
8.3
8.75
9.09
9.38
9.56
9.56
9.32
8.84
8.22
7.56
6.94
6.34
5.7
4.92
3.94
2.74
1.35
-0.19
-1.76
-3.26
-4.57
-5.65
-6.56
-7.44
-8.5
-9.87
-11.56
-13.49
-15.54
-17.64
-19.75
-21.85
-23.86
-25.63
-27.01
-27.91
-28.43
-28.72
-28.91
-28.95
-28.61
-27.54
-25.47
-22.35
-18.36
-13.84
-9.19
-4.69
-0.49
3.28
6.57
9.34
11.62
13.5
15.12
16.59
17.97
19.23
20.31
21.18
21.86
22.36
22.71
22.91
22.96
22.9
22.83
22.84
22.98
23.13
23.13
22.82
22.17
21.28
20.32
19.42
18.57
17.67
16.57
15.22
13.67
12.03
10.41
8.82
7.19
5.46
3.61
1.73
-0.06
-1.74
-3.39
-5.19
-7.24
-9.49
-11.76
-13.78
-15.34
-16.39
-17.01
-17.28
-17.26
-16.87
-16.02
-14.69
-12.9
-10.75
-8.28
-5.45
-2.26
1.24
4.8
8.12
10.86
12.88
14.27
15.27
16.13
16.98
17.81
18.48
18.91
19.08
19.07
18.97
18.82
18.55
18.08
17.37
16.46
15.5
14.65
13.98
13.45
12.96
12.35
11.53
10.44
9.08
7.49
5.78
4.09
2.58
1.4
0.62
0.15
-0.2
-0.7
-1.53
-2.82
-4.52
-6.48
-8.5
-10.45
-12.21
-13.81
-15.32
-16.83
-18.38
-19.91
-21.27
-22.3
-22.86
-22.86
-22.31
-21.28
-19.82
-17.98
-15.79
-13.33
-10.69
-7.99
-5.36
-2.87
-0.59
1.41
3.07
4.34
5.24
5.87
6.41
7.03
7.86
8.86
9.91
10.82
11.46
11.77
11.82
11.72
11.58
11.39
11.12
10.68
10.06
9.29
8.44
7.57
6.65
5.61
4.37
2.9
1.27
-0.43
-2.1
-3.71
-5.31
-6.93
-8.57
-10.21
-11.76
-13.19
-14.53
-15.88
-17.32
-18.85
-20.31
-21.45
-21.96
-21.68
-20.56
-18.74
-16.4
-13.72
-10.84
-7.81
-4.7
-1.66
1.16
3.53
5.36
6.64
7.52
8.19
8.92
9.85
11.01
12.29
13.45
14.28
14.66
14.63
14.35
14.0
13.69
13.41
13.09
12.63
12.08
11.49
11.01
10.64
10.32
9.87
9.1
7.94
6.46
4.82
3.23
1.81
0.58
-0.57
-1.78
-3.19
-4.86
-6.78
-8.86
-10.95
-12.94
-14.75
-16.43
-18.06
-19.74
-21.45
-23.08
-24.42
-25.3
-25.63
-25.41
-24.71
-23.56
-21.96
-19.87
-17.24
-14.11
-10.61
-6.91
-3.22
0.29
3.5
6.36
8.82
10.87
12.51
13.72
14.51
14.97
15.25
15.52
15.92
16.46
17.0
17.4
17.56
17.5
17.31
17.11
16.93
16.7
16.35
15.87
15.27
14.64
14.02
13.4
12.73
11.96
11.03
9.91
8.57
7.02
5.28
3.44
1.59
-0.22
-2.01
-3.85
-5.83
-7.95
-10.15
-12.38
-14.6
-16.82
-19.09
-21.37
-23.54
-25.41
-26.83
-27.72
-28.12
-28.1
-27.72
-26.93
-25.61
-23.66
-21.06
-17.91
-14.37
-10.62
-6.82
-3.06
0.52
3.8
6.6
8.74
10.2
11.06
11.55
11.93
12.41
13.05
13.82
14.62
15.44
16.29
17.2
18.21
19.24
20.15
20.83
21.16
21.15
20.8
20.12
19.14
17.93
16.63
15.38
14.29
13.33
12.33
11.07
9.42
7.35
5.02
2.64
0.38
-1.67
-3.57
-5.4
-7.2
-8.93
-10.48
-11.76
-12.75
-13.53
-14.23
-15.0
-15.84
-16.65
-17.25
-17.44
-17.15
-16.37
-15.15
-13.5
-11.4
-8.81
-5.82
-2.69
0.25
2.72
4.61
6.0
7.13
8.22
9.4
10.59
11.63
12.29
12.43
12.0
11.07
9.76
8.25
6.72
5.31
4.15
3.32
2.82
2.64
2.72
2.94
3.17
3.26
3.12
2.74
2.18
1.56
0.94
0.39
-0.14
-0.7
-1.41
-2.33
-3.47
-4.81
-6.26
-7.7
-9.01
-10.09
-10.84
-11.25
-11.37
-11.33
-11.28
-11.32
-11.44
-11.54
-11.41
-10.86
-9.78
-8.22
-6.4
-4.58
-2.97
-1.7
-0.72
0.07
0.77
1.47
2.22
3.02
3.86
4.7
5.48
6.16
6.72
7.18
7.63
8.09
8.54
8.86
8.94
8.71
8.22
7.57
6.85
6.12
5.38
4.61
3.81
3.01
2.22
1.39
0.5
-0.46
-1.46
-2.46
-3.47
-4.57
-5.9
-7.59
-9.64
-11.91
-14.12
-15.98
-17.24
-17.79
-17.62
-16.73
-15.14
-12.87
-10.03
-6.84
-3.64
-0.77
1.53
3.24
4.49
5.53
6.54
7.61
8.68
9.65
10.43
11.01
11.41
11.67
11.8
11.82
11.75
11.65
11.58
11.56
11.56
11.48
11.22
10.76
10.12
9.43
8.81
8.27
7.73
7.08
6.18
5.05
3.75
2.42
1.08
-0.33
-1.92
-3.8
-5.96
-8.28
-10.56
-12.67
-14.57
-16.33
-18.09
-19.94
-21.82
-23.57
-24.98
-25.86
-26.14
-25.86
-25.11
-23.99
-22.52
-20.65
-18.34
-15.6
-12.52
-9.32
-6.2
-3.33
-0.76
1.53
3.62
5.6
7.47
9.21
10.8
12.21
13.47
14.61
15.68
16.67
17.61
18.5
19.32
20.02
20.53
20.73
20.55
20.02
19.26
18.48
17.83
17.33
16.9
16.4
15.74
14.93
14.1
13.31
12.57
11.78
10.8
9.57
8.09
6.48
4.78
3.0
1.03
-1.24
-3.85
-6.7
-9.6
-12.4
-15.0
-17.47
-19.96
-22.62
-25.49
-28.49
-31.41
-33.98
-35.91
-36.97
-37.02
-36.03
-34.06
-31.26
-27.85
-24.02
-19.97
-15.87
-11.87
-8.09
-4.65
-1.56
1.2
3.69
5.96
7.95
9.55
10.63
11.15
11.19
11.0
10.84
10.92
11.28
11.79
12.21
12.34
12.02
11.21
10.0
8.57
7.15
5.98
5.14
4.55
4.02
3.32
2.31
1.06
-0.24
-1.41
-2.41
-3.34
-4.42
-5.84
-7.67
-9.91
-12.49
-15.31
-18.29
-21.27
-24.02
-26.28
-27.81
-28.5
-28.4
-27.61
-26.23
-24.28
-21.69
-18.39
-14.32
-9.58
-4.39
0.92
6.03
10.6
14.48
17.55
19.86
21.52
22.73
23.7
24.6
25.55
26.57
27.62
28.6
29.39
29.89
30.04
29.8
29.22
28.39
27.42
26.45
25.57
24.77
23.99
23.12
22.07
20.81
19.45
18.09
16.84
15.72
14.61
13.39
11.92
10.16
8.2
6.14
4.09
2.06
0.04
-2.05
-4.24
-6.51
-8.81
-11.08
-13.25
-15.3
-17.2
-18.97
-20.65
-22.25
-23.71
-24.88
-25.53
-25.46
-24.52
-22.73
-20.26
-17.35
-14.24
-11.08
-7.94
-4.83
-1.75
1.28
4.16
6.78
9.0
10.78
12.17
13.27
14.24
15.17
16.07
16.92
17.67
18.3
18.78
19.09
19.15
18.91
18.37
17.66
16.94
16.37
16.03
15.87
15.74
15.48
14.99
14.27
13.35
12.26
11.06
9.86
8.74
7.78
7.01
6.38
5.77
5.08
4.22
3.13
1.77
0.16
-1.64
-3.5
-5.27
-6.85
-8.25
-9.59
-10.99
-12.53
-14.15
-15.69
-16.98
-17.92
-18.5
-18.73
-18.61
-18.11
-17.2
-15.93
-14.39
-12.7
-10.94
-9.11
-7.21
-5.27
-3.39
-1.72
-0.37
0.68
1.55
2.42
3.4
4.52
5.68
6.77
7.66
8.31
8.74
9.01
9.16
9.23
9.22
9.12
8.94
8.65
8.22
7.64
6.91
6.07
5.16
4.26
3.34
2.43
1.5
0.6
-0.17
-0.74
-1.09
-1.32
-1.62
-2.22
-3.21
-4.61
-6.26
-8.0
-9.67
-11.17
-12.5
-13.67
-14.68
-15.48
-16.04
-16.33
-16.34
-16.09
-15.62
-14.9
-13.92
-12.62
-11.03
-9.22
-7.32
-5.46
-3.76
-2.25
-0.92
0.25
1.28
2.15
2.88
3.52
4.14
4.79
5.49
6.19
6.81
7.29
7.64
7.91
8.16
8.43
8.69
8.86
8.84
8.56
8.02
7.3
6.51
5.82
5.35
5.13
5.1
5.12
5.03
4.75
4.3
3.8
3.35
2.99
2.64
2.16
1.4
0.36
-0.89
-2.2
-3.45
-4.6
-5.68
-6.78
-7.92
-9.06
-10.16
-11.14
-12.01
-12.79
-13.49
-14.09
-14.51
-14.62
-14.31
-13.56
-12.39
-10.86
-9.07
-7.11
-5.11
-3.2
-1.54
-0.22
0.81
1.69
2.64
3.81
5.23
6.79
8.3
9.56
10.42
10.83
10.82
10.43
9.75
8.9
8.01
7.25
6.75
6.58
6.72
7.08
7.53
7.94
8.23
8.39
8.44
8.39
8.21
7.89
7.4
6.74
5.96
5.1
4.21
3.3
2.38
1.42
0.38
-0.75
-1.96
-3.21
-4.41
-5.48
-6.44
-7.39
-8.49
-9.85
-11.46
-13.14
-14.6
-15.6
-16.04
-15.99
-15.59
-14.97
-14.16
-13.11
-11.86
-10.46
-9.07
-7.79
-6.55
-5.23
-3.69
-1.91
-0.01
1.78
3.26
4.36
5.12
5.65
6.04
6.33
6.51
6.6
6.67
6.78
6.96
7.15
7.24
7.11
6.77
6.3
5.8
5.4
5.1
4.83
4.53
4.13
3.65
3.11
2.56
1.98
1.31
0.51
-0.47
-1.63
-2.95
-4.4
-5.97
-7.62
-9.26
-10.8
-12.14
-13.19
-13.91
-14.3
-14.38
-14.21
-13.87
-13.4
-12.81
-12.03
-10.98
-9.64
-8.11
-6.55
-5.15
-4.01
-3.12
-2.34
-1.53
-0.65
0.3
1.22
2.03
2.7
3.29
3.85
4.43
5.02
5.57
6.03
6.34
6.49
6.51
6.44
6.34
6.28
6.26
6.31
6.4
6.51
6.55
6.43
6.06
5.43
4.61
3.75
3.06
2.64
2.44
2.32
2.07
1.5
0.57
-0.68
-2.15
-3.76
-5.44
-7.19
-9.0
-10.85
-12.66
-14.32
-15.68
-16.67
-17.27
-17.54
-17.55
-17.38
-17.04
-16.48
-15.59
-14.29
-12.6
-10.65
-8.6
-6.62
-4.74
-2.94
-1.17
0.58
2.21
3.56
4.53
5.08
5.31
5.44
5.63
6.0
6.51
7.05
7.56
8.01
8.49
9.1
9.86
10.67
11.31
11.55
11.29
10.6
9.71
8.89
8.35
8.1
8.03
7.96
7.8
7.53
7.19
6.8
6.28
5.49
4.3
2.74
0.98
-0.69
-2.03
-2.94
-3.59
-4.24
-5.22
-6.69
-8.61
-10.78
-12.91
-14.75
-16.23
-17.39
-18.33
-19.12
-19.75
-20.13
-20.17
-19.83
-19.17
-18.26
-17.2
-16.01
-14.7
-13.24
-11.67
-10.04
-8.45
-7.04
-5.87
-4.95
-4.22
-3.58
-2.97
-2.35
-1.77
-1.22
-0.7
-0.13
0.62
1.56
2.61
3.59
4.31
4.69
4.76
4.69
4.67
4.81
5.09
5.42
5.65
5.71
5.61
5.46
5.38
5.43
5.58
5.65
5.45
4.83
3.75
2.27
0.56
-1.18
-2.83
-4.39
-5.91
-7.55
-9.46
-11.75
-14.41
-17.33
-20.29
-23.08
-25.55
-27.73
-29.72
-31.71
-33.78
-35.92
-37.94
-39.5
-40.12
-39.26
-36.43
-31.43
-24.42
-15.99
-7.04
1.44
8.73
14.45
18.72
21.84
24.21
26.12
27.72
29.07
30.22
31.25
32.24
33.22
34.1
34.72
34.91
34.56
33.63
32.22
30.47
28.53
26.52
24.58
22.8
21.24
19.9
18.71
17.55
16.31
14.94
13.52
12.18
11.08
10.31
9.77
9.27
8.53
7.34
5.64
3.55
1.32
-0.82
-2.69
-4.35
-5.92
-7.61
-9.5
-11.52
-13.45
-15.06
-16.16
-16.71
-16.76
-16.38
-15.61
-14.41
-12.77
-10.74
-8.48
-6.21
-4.15
-2.38
-0.86
0.49
1.76
2.95
4.0
4.85
5.49
6.03
6.56
7.21
8.0
8.91
9.88
10.83
11.66
12.32
12.72
12.84
12.69
12.35
11.93
11.49
11.04
10.53
9.85
9.0
8.0
6.96
5.97
5.09
4.26
3.4
2.4
1.21
-0.19
-1.79
-3.56
-5.45
-7.36
-9.14
-10.65
-11.75
-12.46
-12.91
-13.31
-13.79
-14.41
-15.04
-15.48
-15.51
-15.0
-13.95
-12.46
-10.67
-8.69
-6.63
-4.56
-2.53
-0.61
1.17
2.8
4.28
5.62
6.8
7.8
8.6
9.24
9.81
10.43
11.14
11.9
12.59
13.03
13.07
12.69
11.99
11.18
10.44
9.88
9.48
9.14
8.72
8.12
7.35
6.46
5.5
4.51
3.47
2.35
1.16
-0.09
-1.4
-2.76
-4.26
-5.93
-7.75
-9.62
-11.42
-13.04
-14.52
-15.98
-17.52
-19.15
-20.68
-21.78
-22.17
-21.71
-20.47
-18.64
-16.46
-14.03
-11.41
-8.64
-5.84
-3.22
-0.95
0.87
2.37
3.75
5.24
6.91
8.7
10.43
11.89
13.01
13.75
14.22
14.54
14.85
15.25
15.77
16.38
17.0
17.51
17.81
17.82
17.49
16.84
15.92
14.82
13.64
12.48
11.38
10.3
9.18
7.91
6.44
4.77
3.01
1.26
-0.39
-1.95
-3.49
-5.11
-6.89
-8.88
-11.04
-13.3
-15.52
-17.57
-19.3
-20.67
-21.72
-22.57
-23.36
-24.11
-24.76
-25.07
-24.81
-23.83
-22.14
-19.87
-17.2
-14.25
-11.09
-7.79
-4.5
-1.4
1.31
3.56
5.37
6.91
8.31
9.64
10.87
11.95
12.85
13.55
14.13
14.67
15.26
15.89
16.52
17.04
17.38
17.47
17.35
17.06
16.7
16.34
16.03
15.75
15.49
15.18
14.72
14.01
12.93
11.46
9.65
7.66
5.67
3.87
2.35
1.15
0.2
-0.63
-1.49
-2.62
-4.2
-6.31
-8.88
-11.72
-14.56
-17.18
-19.47
-21.41
-22.99
-24.25
-25.11
-25.5
-25.34
-24.6
-23.33
-21.56
-19.38
-16.81
-13.89
-10.68
-7.31
-4.01
-1.01
1.48
3.43
4.97
6.33
7.73
9.3
11.0
12.69
14.18
15.32
16.04
16.37
16.39
16.27
16.19
16.31
16.68
17.22
17.73
17.95
17.72
17.01
15.96
14.8
13.73
12.85
12.14
11.52
10.92
10.23
9.43
8.45
7.27
5.89
4.34
2.7
1.05
-0.56
-2.09
-3.61
-5.23
-7.07
-9.23
-11.75
-14.56
-17.5
-20.28
-22.65
-24.39
-25.43
-25.81
-25.66
-25.09
-24.17
-22.87
-21.1
-18.8
-16.03
-12.91
-9.69
-6.57
-3.67
-1.02
1.41
3.62
5.55
7.11
8.31
9.19
9.94
10.78
11.81
13.05
14.36
15.61
16.64
17.39
17.84
18.03
18.05
17.96
17.88
17.84
17.87
17.91
17.86
17.66
17.25
16.64
15.88
15.01
14.02
12.93
11.71
10.37
8.95
7.49
6.05
4.66
3.32
1.96
0.48
-1.24
-3.22
-5.38
-7.54
-9.52
-11.21
-12.66
-14.04
-15.49
-17.05
-18.6
-19.91
-20.77
-21.12
-21.0
-20.49
-19.6
-18.26
-16.41
-14.04
-11.3
-8.43
-5.65
-3.12
-0.88
1.04
2.64
3.92
4.9
5.64
6.3
7.06
7.98
9.0
9.97
10.72
11.2
11.44
11.51
11.48
11.39
11.25
11.06
10.89
10.77
10.7
10.65
10.5
10.15
9.52
8.6
7.4
5.97
4.34
2.56
0.71
-1.15
-2.95
-4.67
-6.28
-7.77
-9.17
-10.53
-11.89
-13.29
-14.71
-16.01
-17.04
-17.6
-17.53
-16.84
-15.6
-13.99
-12.15
-10.13
-7.92
-5.47
-2.85
-0.21
2.23
4.27
5.89
7.2
8.41
9.65
10.94
12.15
13.15
13.87
14.38
14.78
15.19
15.57
15.84
15.83
15.46
14.76
13.87
13.03
12.4
12.07
11.99
11.97
11.81
11.34
10.51
9.38
8.08
6.71
5.35
4.01
2.71
1.48
0.4
-0.48
-1.15
-1.7
-2.3
-3.16
-4.44
-6.15
-8.18
-10.31
-12.32
-14.08
-15.52
-16.68
-17.58
-18.24
-18.63
-18.73
-18.52
-18.04
-17.28
-16.25
-14.94
-13.35
-11.55
-9.62
-7.71
-5.96
-4.42
-3.14
-2.08
-1.17
-0.28
0.71
1.84
3.07
4.27
5.26
5.92
6.19
6.14
5.92
5.71
5.64
5.72
5.88
5.97
5.81
5.31
4.46
3.38
2.26
1.28
0.53
-0.01
