18.71
30.44
41.02
50.23
57.93
63.98
68.22
70.57
71.11
70.16
68.29
66.13
64.21
62.81
61.9
61.22
60.47
59.44
58.01
56.21
54.07
51.62
48.85
45.76
42.39
38.78
34.99
31.03
26.88
22.55
18.06
13.45
8.72
3.86
-1.25
-6.71
-12.56
-18.67
-24.83
-30.75
-36.25
-41.35
-46.3
-51.55
-57.55
-64.62
-72.67
-81.1
-88.79
-94.29
-96.25
-93.84
-87.03
-76.63
-63.92
-50.24
-36.62
-23.6
-11.35
0.12
10.83
20.76
29.86
38.07
45.28
51.33
56.0
59.14
60.76
61.11
60.57
59.58
58.49
57.52
56.71
56.05
55.4
54.63
53.53
51.96
49.83
47.2
44.24
41.15
38.09
35.11
32.15
29.03
25.58
21.74
17.56
13.2
8.87
4.74
0.8
-3.07
-7.08
-11.39
-16.04
-20.94
-25.89
-30.71
-35.3
-39.76
-44.29
-49.24
-54.96
-61.65
-69.15
-76.85
-83.67
-88.3
-89.56
-86.83
-80.21
-70.49
-58.82
-46.37
-34.0
-22.2
-11.18
-0.98
8.35
16.81
24.37
31.08
36.92
41.87
45.77
48.49
49.96
50.24
49.57
48.29
46.75
45.3
44.15
43.38
42.92
42.57
42.05
41.12
39.62
37.58
35.14
32.5
29.85
27.25
24.64
21.87
18.81
15.37
11.68
7.99
4.61
1.78
-0.49
-2.47
-4.67
-7.56
-11.37
-16.0
-21.03
-25.94
-30.39
-34.35
-38.04
-41.91
-46.42
-51.97
-58.73
-66.53
-74.68
-82.0
-87.04
-88.47
-85.56
-78.42
-67.94
-55.45
-42.23
-29.28
-17.13
-6.04
3.94
12.82
20.66
27.51
33.37
38.21
41.87
44.26
45.37
45.31
44.38
42.91
41.23
39.67
38.48
37.82
37.73
38.06
38.48
38.62
38.18
37.1
35.5
33.67
31.9
30.35
29.0
27.7
26.2
24.35
22.09
19.5
16.73
13.88
10.98
7.98
4.74
1.18
-2.73
-6.85
-11.04
-15.07
-18.73
-21.95
-24.76
-27.4
-30.26
-33.84
-38.55
-44.59
-51.65
-58.93
-65.2
-69.11
-69.66
-66.52
-60.17
-51.68
-42.31
-33.05
-24.41
-16.43
-8.96
-1.88
4.73
10.62
15.57
19.44
22.3
24.28
25.56
26.26
26.47
26.2
25.5
24.41
23.08
21.68
20.46
19.59
19.09
18.77
18.36
17.55
16.22
14.41
12.32
10.2
8.2
6.34
4.51
2.53
0.26
-2.4
-5.42
-8.67
-11.96
-15.1
-18.0
-20.69
-23.32
-26.04
-29.06
-32.5
-36.49
-41.04
-45.95
-50.67
-54.35
-56.01
-54.87
-50.7
-43.96
-35.6
-26.76
-18.3
-10.66
-3.78
2.56
8.58
14.22
19.23
23.22
25.92
27.27
27.49
26.94
26.02
24.99
23.91
22.72
21.35
19.87
18.5
17.54
17.17
17.3
17.59
17.53
16.75
15.11
12.75
10.01
7.23
4.59
2.05
-0.6
-3.65
-7.27
-11.47
-16.07
-20.72
-25.12
-29.06
-32.55
-35.77
-38.98
-42.48
-46.51
-51.23
-56.73
-62.95
-69.56
-75.87
-80.87
-83.49
-82.93
-78.93
-71.92
-62.74
-52.45
-41.86
-31.47
-21.42
-11.65
-2.09
7.28
16.36
24.92
32.63
39.14
44.15
47.55
49.48
50.25
50.27
49.86
49.21
48.43
47.58
46.75
46.04
45.44
44.82
43.91
42.45
40.39
37.94
35.5
33.44
31.93
30.81
29.62
27.89
25.3
21.85
17.91
13.9
10.19
6.86
3.67
0.26
-3.71
-8.3
-13.33
-18.42
-23.21
-27.53
-31.54
-35.56
-40.02
-45.29
-51.57
-58.82
-66.8
-74.9
-82.2
-87.6
-89.97
-88.57
-83.33
-74.84
-64.28
-52.9
-41.7
-31.18
-21.31
-11.81
-2.39
7.01
16.2
24.78
32.37
38.62
43.36
46.59
48.45
49.18
49.08
48.44
47.53
46.57
45.73
45.15
44.84
44.7
44.47
43.81
42.36
39.97
36.68
32.81
28.79
24.99
21.59
18.49
15.35
11.79
7.51
2.43
-3.29
-9.3
-15.15
-20.49
-25.15
-29.27
-33.22
-37.52
-42.69
-49.09
-56.71
-65.09
-73.26
-79.89
-83.63
-83.5
-79.19
-71.16
-60.47
-48.35
-35.84
-23.55
-11.72
-0.37
10.44
20.49
29.45
36.96
42.8
46.93
49.47
50.66
50.8
50.15
48.95
47.4
45.72
44.13
42.8
41.82
41.12
40.49
39.57
38.05
35.8
32.82
29.34
25.69
22.15
18.86
15.73
12.45
8.63
3.96
-1.64
-7.92
-14.43
-20.68
-26.38
-31.56
-36.56
-41.95
-48.26
-55.9
-64.9
-74.83
-84.66
-92.95
-98.11
-98.92
-94.91
-86.52
-74.93
-61.52
-47.46
-33.4
-19.53
-5.85
7.58
20.53
32.63
43.47
52.72
60.07
65.38
68.58
69.83
69.54
68.31
66.78
65.43
64.45
63.81
63.31
62.74
61.96
60.91
59.54
57.79
55.55
52.71
49.27
45.32
41.0
36.49
31.9
27.33
22.78
18.22
13.51
8.42
2.75
-3.58
-10.42
-17.43
-24.17
-30.33
-35.89
-41.08
-46.33
-52.15
-59.0
-67.19
-76.76
-87.26
-97.65
-106.36
-111.6
-111.97
-106.88
-96.8
-83.12
-67.53
-51.58
-36.17
-21.55
-7.61
5.87
18.91
31.31
42.7
52.69
60.98
67.37
71.79
74.33
75.17
74.65
73.19
71.34
69.61
68.38
67.77
67.6
67.44
66.8
65.35
63.05
60.08
56.81
53.52
50.29
47.0
43.42
39.35
34.72
29.64
24.35
19.12
14.07
9.22
4.35
-0.84
-6.58
-12.95
-19.74
-26.55
-32.96
-38.7
-43.82
-48.73
-54.04
-60.41
-68.28
-77.66
-87.94
-97.82
-105.61
-109.57
-108.47
-102.03
-91.02
-76.99
-61.68
-46.48
-32.09
-18.55
-5.57
7.11
19.44
31.1
41.59
50.47
57.47
62.54
65.82
67.51
67.9
67.24
65.88
64.14
62.42
61.05
60.24
59.94
59.92
59.76
59.03
57.46
54.99
51.84
48.35
44.91
41.72
38.81
35.95
32.82
29.15
24.88
20.14
15.24
10.46
5.93
1.53
-3.03
-8.08
-13.77
-20.0
-26.45
-32.72
-38.53
-43.83
-48.85
-54.03
-59.85
-66.68
-74.57
-83.16
-91.56
-98.44
-102.36
-102.08
-97.04
-87.57
-74.8
-60.27
-45.42
-31.24
-18.06
-5.8
5.7
16.48
26.35
34.96
42.04
47.51
51.4
53.87
55.07
55.19
54.51
53.36
52.11
51.03
50.23
49.63
49.07
48.38
47.45
46.28
44.81
42.98
40.66
37.79
34.44
30.8
27.14
23.63
20.3
16.98
13.39
9.23
4.35
-1.17
-7.04
-12.87
-18.29
-23.14
-27.46
-31.52
-35.71
-40.45
-46.06
-52.71
-60.35
-68.51
-76.24
-82.22
-85.02
-83.55
-77.46
-67.32
-54.41
-40.27
-26.25
-13.11
-1.12
9.79
19.75
28.71
36.46
42.73
47.3
50.16
51.48
51.59
50.95
49.95
48.9
47.92
46.98
45.98
44.84
43.54
42.11
40.55
38.81
36.74
34.17
30.93
26.98
22.45
17.63
12.91
8.59
4.83
1.49
-1.77
-5.38
-9.69
-14.8
-20.53
-26.51
-32.32
-37.69
-42.54
-47.06
-51.63
-56.75
-62.89
-70.37
-79.13
-88.53
-97.37
-103.99
-106.74
-104.45
-96.9
-84.88
-69.95
-53.88
-38.16
-23.63
-10.5
1.46
12.59
23.13
33.09
42.26
50.27
56.72
61.27
63.77
64.4
63.57
61.89
59.96
58.22
56.87
55.9
55.17
54.51
53.72
52.64
51.11
49.03
46.36
43.15
39.49
35.52
31.34
27.09
22.87
18.73
14.67
10.62
6.43
1.96
-2.91
-8.2
-13.85
-19.71
-25.6
-31.39
-36.98
-42.43
-47.9
-53.73
-60.33
-68.11
-77.21
-87.23
-97.07
-105.03
-109.23
-108.19
-101.38
-89.49
-74.18
-57.48
-41.14
-26.15
-12.71
-0.47
11.03
22.03
32.46
41.95
50.05
56.37
60.71
63.13
63.91
63.46
62.17
60.38
58.32
56.21
54.24
52.64
51.55
50.97
50.69
50.29
49.34
47.5
44.64
40.92
36.64
32.17
27.79
23.64
19.68
15.71
11.54
6.95
1.83
-3.76
-9.66
-15.59
-21.26
-26.45
-31.09
-35.3
-39.38
-43.78
-48.99
-55.47
-63.44
-72.66
-82.3
-90.89
-96.61
-97.81
-93.51
-83.82
-69.92
-53.67
-36.99
-21.27
-7.15
5.46
16.92
27.54
37.3
45.8
52.52
57.1
59.54
60.19
59.64
58.47
57.11
55.75
54.4
53.06
51.8
50.71
49.82
49.05
48.17
46.91
45.06
42.55
39.47
35.96
32.17
28.19
24.04
19.74
15.34
10.9
6.45
1.92
-2.87
-8.13
-13.98
-20.33
-26.9
-33.33
-39.26
-44.59
-49.53
-54.46
-59.92
-66.37
-74.09
-83.01
-92.53
-101.41
-107.93
-110.27
-107.1
-98.11
-84.26
-67.4
-49.68
-32.82
-17.67
-4.27
7.84
19.11
29.73
39.57
48.3
55.62
61.3
65.24
67.48
68.15
67.48
65.85
63.67
61.44
59.54
58.21
57.47
57.12
56.82
56.16
54.81
52.61
49.64
46.07
42.16
38.09
33.9
29.57
25.07
20.45
15.8
11.21
6.68
2.01
-3.06
-8.75
-15.12
-21.96
-28.87
-35.46
-41.5
-47.05
-52.4
-58.02
-64.4
-71.94
-80.8
-90.72
-100.85
-109.77
-115.71
-117.02
-112.75
-103.01
-88.93
-72.39
-55.31
-39.12
-24.48
-11.36
0.59
11.7
21.95
31.09
38.7
44.47
48.36
50.54
51.4
51.29
50.49
49.17
47.46
45.52
43.6
42.03
41.06
40.8
41.11
41.62
41.85
41.4
40.03
37.76
34.84
31.59
28.32
25.21
22.26
19.3
16.07
12.3
7.81
2.58
-3.22
-9.34
-15.48
-21.46
-27.22
-32.87
-38.61
-44.74
-51.63
-59.66
-68.95
-79.15
-89.19
-97.42
-101.94
-101.35
-95.22
-84.3
-70.2
-54.78
-39.46
-24.92
-11.24
1.79
14.29
26.16
37.07
46.72
54.89
61.49
66.47
69.82
71.56
71.87
71.12
69.78
68.34
67.17
66.42
66.02
65.75
65.33
64.52
63.19
61.3
58.95
56.28
53.4
50.38
47.15
43.62
39.7
35.39
30.8
26.02
21.08
15.89
10.32
4.26
-2.24
-8.94
-15.49
-21.56
-27.04
-32.01
-36.79
-41.81
-47.53
-54.32
-62.41
-71.67
-81.45
-90.47
-97.01
-99.36
-96.39
-88.03
-75.31
-60.08
-44.3
-29.42
-16.11
-4.27
6.54
16.68
26.13
34.62
41.72
47.14
50.82
52.89
53.57
53.06
51.55
49.26
46.55
43.86
41.64
40.23
39.65
39.62
39.64
39.1
37.52
34.77
31.03
26.79
22.6
18.85
15.65
12.77
9.75
6.17
1.77
-3.37
-8.98
-14.62
-19.95
-24.74
-29.06
-33.21
-37.69
-43.07
-49.78
-57.84
-66.68
-75.07
-81.4
-84.07
-82.02
-75.12
-64.15
-50.57
-35.97
-21.63
-8.24
4.0
15.16
25.23
34.0
41.08
46.16
49.14
50.26
50.01
48.94
47.56
46.16
44.85
43.59
42.37
41.2
40.2
39.49
39.09
38.79
38.17
36.72
34.08
30.23
25.54
20.63
16.11
12.31
9.16
6.19
2.82
-1.42
-6.69
-12.75
-19.12
-25.24
-30.75
-35.57
-39.93
-44.29
-49.22
-55.22
-62.65
-71.51
-81.32
-90.94
-98.75
-102.91
-102.03
-95.6
-84.29
-69.7
-53.83
-38.37
-24.25
-11.67
-0.26
10.39
20.5
30.0
38.58
45.93
51.81
56.09
58.8
60.03
59.99
58.96
57.33
55.5
53.81
52.49
51.61
51.05
50.58
49.94
48.88
47.25
44.98
42.08
38.58
34.58
30.21
25.7
21.27
17.09
13.17
9.41
5.59
1.5
-2.95
-7.71
-12.62
-17.49
-22.17
-26.63
-30.91
-35.15
-39.53
-44.29
-49.8
-56.4
-64.32
-73.4
-82.87
-91.35
-97.12
-98.64
-95.02
-86.4
-73.88
-59.11
-43.75
-28.97
-15.32
-2.8
8.88
19.91
30.26
39.65
47.66
53.92
58.22
60.59
61.31
60.76
59.32
57.33
55.04
52.63
50.3
48.27
46.66
45.51
44.61
43.62
42.14
39.85
36.67
32.79
28.57
24.43
20.66
17.33
14.27
11.16
7.64
3.45
-1.43
-6.8
-12.36
-17.72
-22.62
-27.02
-31.11
-35.28
-39.96
-45.57
-52.36
-60.26
-68.77
-76.94
-83.41
-86.74
-85.82
-80.23
-70.45
-57.72
-43.61
-29.51
-16.31
-4.27
6.74
16.94
26.37
34.83
41.92
47.3
50.83
52.61
52.94
52.2
50.7
48.67
46.3
43.82
41.55
39.86
38.96
38.8
38.94
38.73
37.54
35.03
31.3
26.81
22.14
17.74
13.77
10.01
6.07
1.58
-3.62
-9.36
-15.26
-20.83
-25.73
-29.91
-33.63
-37.39
-41.79
-47.33
-54.26
-62.4
-71.02
-78.9
-84.5
-86.41
-83.75
-76.52
-65.57
-52.33
-38.29
-24.55
-11.7
0.18
11.21
21.44
30.76
38.87
45.45
50.27
53.28
54.63
54.6
53.55
51.85
49.83
47.76
45.8
44.08
42.67
41.58
40.75
40.0
39.0
37.38
34.82
31.22
26.74
21.8
16.89
12.38
8.32
4.49
0.45
-4.19
-9.57
-15.58
-21.89
-28.07
-33.83
-39.06
-43.93
-48.77
-54.06
-60.26
-67.75
-76.62
-86.52
-96.54
-105.21
-110.76
-111.7
-107.27
-97.73
-84.36
-68.9
-53.04
-37.88
-23.81
-10.67
1.8
13.67
24.73
34.54
42.69
48.94
53.25
55.77
56.7
56.3
54.81
52.48
49.62
46.62
43.86
41.69
40.27
39.5
38.99
38.17
36.44
33.45
29.18
24.01
18.51
13.26
8.62
4.65
1.09
-2.44
-6.33
-10.82
-15.9
-21.39
-26.99
-32.44
-37.63
-42.67
-47.82
-53.47
-60.04
-67.88
-77.12
-87.48
-98.11
-107.55
-113.94
-115.62
-111.62
-102.09
-88.25
-71.95
-55.0
-38.64
-23.35
-8.99
4.79
18.27
31.43
43.92
55.25
64.87
72.34
77.45
80.27
81.13
80.6
79.27
77.74
76.4
75.47
74.98
74.77
74.55
73.91
72.52
70.19
66.94
63.03
58.78
54.43
50.04
45.51
40.72
35.61
30.24
24.76
19.27
13.77
8.11
2.1
-4.43
-11.52
-19.05
-26.8
-34.47
-41.87
-48.94
-55.85
-62.96
-70.79
-79.83
-90.38
-102.26
-114.66
-126.01
-134.3
-137.58
-134.58
-125.17
-110.43
-92.29
-72.85
-53.74
-35.8
-19.09
-3.33
11.77
26.2
39.7
51.87
62.35
70.89
77.36
81.74
84.12
84.75
84.01
82.42
80.49
78.69
77.3
76.4
75.82
75.27
74.38
72.84
70.5
67.39
63.67
59.5
54.99
50.15
44.92
39.3
33.36
27.25
21.13
15.07
9.02
2.84
-3.62
-10.44
-17.56
-24.78
-31.8
-38.42
-44.57
-50.38
-56.26
-62.72
-70.32
-79.38
-89.72
-100.47
-110.01
-116.33
-117.58
-112.74
-101.93
-86.46
-68.34
-49.51
-31.38
-14.53
1.03
15.53
29.02
41.27
51.83
60.28
66.39
70.24
72.19
72.78
72.52
71.79
70.81
69.64
68.3
66.83
65.33
63.9
62.56
61.25
59.82
58.02
55.63
52.52
48.65
44.13
39.18
34.05
28.96
24.03
19.22
14.36
9.18
3.48
-2.88
-9.85
-17.21
-24.6
-31.64
-38.1
-43.99
-49.6
-55.52
-62.43
-70.84
-80.9
-92.17
-103.52
-113.23
-119.38
-120.3
-115.14
-104.16
-88.7
-70.65
-51.94
-33.97
-17.35
-2.11
12.01
25.2
37.4
48.36
57.71
65.15
70.52
73.85
75.35
75.34
74.29
72.68
70.97
69.47
68.33
67.55
66.95
66.29
65.27
63.67
61.33
58.26
54.63
50.65
46.52
42.33
38.04
33.54
28.76
23.73
18.64
13.7
9.04
4.58
0.05
-4.89
-10.49
-16.77
-23.5
-30.3
-36.82
-42.88
-48.53
-54.07
-59.99
-66.83
-75.01
-84.59
-95.06
-105.24
-113.44
-117.81
-116.92
-110.28
-98.48
-83.02
-65.78
-48.45
-32.08
-17.04
-3.19
9.77
21.97
33.27
43.33
51.79
58.43
63.29
66.53
68.39
69.08
68.76
67.65
66.06
64.43
63.14
62.41
62.16
61.99
61.41
60.01
57.63
54.42
50.7
46.84
43.11
39.62
36.27
32.86
29.16
25.03
20.49
15.69
10.86
6.15
1.57
-3.04
-7.88
-13.11
-18.7
-24.44
-30.06
-35.37
-40.35
-45.24
-50.39
-56.29
-63.34
-71.75
-81.32
-91.25
-100.12
-106.13
-107.58
-103.5
-94.04
-80.47
-64.73
-48.73
-33.75
-20.21
-7.84
3.81
15.03
25.71
35.49
43.91
50.67
55.65
58.92
60.62
60.97
60.23
58.7
56.73
54.64
52.72
51.12
49.86
48.77
47.58
46.0
43.86
41.18
38.14
34.97
31.86
28.81
25.67
22.22
18.34
14.1
9.72
5.48
1.52
-2.22
-6.0
-10.11
-14.65
-19.55
-24.48
-29.11
-33.27
-37.04
-40.76
-44.87
-49.8
-55.8
-62.91
-70.86
-78.93
-86.0
-90.66
-91.55
-87.83
-79.53
-67.58
-53.54
-39.04
-25.28
-12.76
-1.41
9.1
19.02
28.29
36.61
43.62
49.1
53.07
55.76
57.39
58.13
58.01
57.08
55.54
53.76
52.17
51.12
50.66
50.51
50.17
49.19
47.36
44.8
41.91
39.06
36.53
34.32
32.23
29.99
27.39
24.35
20.92
17.28
13.59
10.0
6.54
3.08
-0.59
-4.69
-9.36
-14.53
-19.95
-25.22
-30.01
-34.16
-37.78
-41.25
-45.14
-49.97
-56.06
-63.31
-71.09
-78.23
-83.23
-84.66
-81.65
-74.16
-63.02
-49.67
-35.61
-22.05
-9.62
1.53
11.54
20.52
28.49
35.3
40.8
44.81
47.3
48.31
47.97
46.52
44.24
41.5
38.64
36.03
33.99
32.7
32.17
32.2
32.39
32.28
31.44
29.67
26.99
23.67
20.11
16.71
13.78
11.41
9.41
7.41
4.96
1.73
-2.39
-7.18
-12.16
-16.8
-20.71
-23.83
-26.43
-29.02
-32.19
-36.48
-42.16
-49.17
-57.05
-64.88
-71.38
-75.15
-75.05
-70.55
-62.01
-50.51
-37.6
-24.75
-12.99
-2.72
6.07
13.57
19.89
24.94
28.57
30.75
31.7
31.83
31.54
31.08
30.45
29.52
28.13
26.31
24.24
22.22
20.49
19.14
18.1
17.21
16.28
15.2
13.85
12.1
9.81
6.8
3.01
-1.52
-6.55
-11.78
-16.86
-21.54
-25.77
-29.71
-33.67
-38.05
-43.21
-49.37
-56.44
-63.87
-70.6
-75.22
-76.36
-73.14
-65.58
-54.56
-41.59
-28.18
-15.48
-3.95
6.36
15.63
23.86
30.83
36.14
39.52
40.95
40.75
39.43
37.54
35.49
33.53
31.72
30.1
28.76
27.82
27.35
27.27
27.26
26.9
25.8
23.79
21.01
17.82
14.64
11.71
9.02
6.28
3.14
-0.69
-5.3
-10.52
-16.01
-21.36
-26.29
-30.73
-34.95
-39.46
-44.9
-51.78
-60.1
-69.18
-77.64
-83.68
-85.57
-82.32
-74.03
-61.9
-47.74
-33.42
-20.21
-8.55
1.77
11.25
20.2
28.54
35.86
41.68
45.66
47.86
48.61
48.38
47.57
46.39
44.91
43.14
41.14
39.13
37.4
36.11
35.26
34.58
33.61
31.93
29.31
25.78
21.68
17.45
13.49
10.0
6.91
3.89
0.48
-3.7
-8.82
-14.78
-21.23
-27.75
-33.9
-39.45
-44.41
-49.06
-53.9
-59.55
-66.55
-75.11
-84.83
-94.59
-102.64
-107.02
-106.23
-99.71
-88.15
-73.18
-56.84
-40.85
-26.14
-12.84
-0.57
11.12
22.4
33.11
42.88
51.35
58.33
63.75
67.64
70.01
70.89
70.38
68.75
66.47
64.13
62.21
60.96
60.28
59.75
58.86
57.18
54.55
51.12
47.23
43.24
39.37
35.65
31.89
27.81
23.23
18.12
12.68
7.17
1.82
-3.34
-8.52
-14.03
-20.11
-26.79
-33.84
-40.89
-47.62
-53.88
-59.75
-65.53
-71.64
-78.56
-86.73
-96.33
-107.01
-117.67
-126.53
-131.48
-130.78
-123.75
-111.04
-94.49
-76.39
-58.74
-42.66
-28.3
-15.09
-2.33
10.43
23.23
35.73
47.39
57.6
65.92
72.1
76.13
78.26
78.88
78.44
77.38
76.1
74.9
74.03
73.61
73.56
73.62
73.38
72.46
70.65
68.04
64.9
61.61
58.42
55.39
52.37
49.14
45.57
41.69
37.65
33.6
29.6
25.55
21.3
16.79
12.06
7.3
2.67
-1.86
-6.49
-11.56
-17.3
-23.69
-30.42
-37.03
-43.14
-48.65
-53.76
-58.95
-64.77
-71.73
-80.09
-89.82
-100.37
-110.6
-118.89
-123.47
-122.93
-116.7
-105.38
-90.4
-73.63
-56.66
-40.46
-25.31
-11.03
2.59
15.62
27.91
39.14
49.01
57.22
63.54
67.83
70.08
70.52
69.63
68.01
66.25
64.76
63.67
62.9
62.22
61.4
60.32
58.91
57.15
55.01
52.43
49.4
45.92
42.09
38.0
33.76
29.43
25.02
20.47
15.75
10.77
5.46
-0.23
-6.31
-12.67
-19.13
-25.43
-31.44
-37.15
-42.77
-48.66
-55.24
-62.89
-71.69
-81.4
-91.18
-99.7
-105.27
-106.31
-101.92
-92.22
-78.38
-62.22
-45.61
-29.87
-15.51
-2.37
9.93
21.62
32.5
42.1
49.92
55.63
59.24
61.0
61.32
60.64
59.32
57.7
56.04
54.56
53.4
52.66
52.32
52.22
52.08
51.53
50.17
47.71
44.07
39.49
34.42
29.36
24.67
20.43
16.36
12.04
7.01
1.07
-5.73
-13.02
-20.31
-27.17
-33.37
-39.03
-44.55
-50.56
-57.7
-66.43
-76.82
-88.37
-99.91
-109.8
-116.12
-117.25
-112.37
-101.7
-86.53
-68.81
-50.46
-32.9
-16.78
-2.0
11.83
25.03
37.56
48.99
58.74
66.28
71.42
74.3
75.35
75.11
74.11
72.7
71.17
69.69
68.41
67.46
66.85
66.44
65.93
64.9
62.98
60.01
56.09
51.57
46.86
42.27
37.87
33.45
28.68
23.32
17.34
11.0
4.75
-1.05
-6.35
-11.43
-16.87
-23.25
-30.83
-39.4
-48.34
-56.87
-64.41
-70.84
-76.54
-82.31
-89.07
-97.64
-108.4
-121.08
-134.56
-146.92
-155.77
-158.98
-155.34
-145.02
-129.48
-110.92
-91.4
-72.29
-54.03
-36.44
-19.17
-2.1
14.57
30.37
44.82
57.59
68.44
77.27
84.0
88.62
91.23
92.05
91.51
90.24
88.89
88.05
87.99
88.55
89.19
89.2
87.96
85.2
81.1
76.19
71.1
66.35
62.19
58.52
55.02
51.26
46.9
41.83
36.26
30.57
25.17
20.26
15.72
11.08
5.8
-0.53
-8.01
-16.37
-25.12
-33.79
-42.06
-49.87
-57.36
-64.92
-73.07
-82.42
-93.35
-105.74
-118.61
-130.17
-138.18
-140.67
-136.62
-126.31
-111.16
-93.13
-74.02
-55.02
-36.63
-18.95
-1.99
14.11
29.02
42.33
53.65
62.7
69.35
73.66
75.86
76.34
75.51
73.79
71.57
69.23
67.17
65.71
65.03
64.99
65.12
64.76
63.26
60.27
55.89
50.57
44.98
39.71
35.01
30.75
26.47
21.57
15.61
8.47
0.42
-7.97
-16.05
-23.38
-29.87
-35.78
-41.72
-48.38
-56.39
-66.06
-77.17
-88.79
-99.28
-106.6
-108.86
-104.89
-94.76
-79.67
-61.62
-42.64
-24.23
-7.08
8.84
23.79
37.85
50.75
61.86
70.52
76.36
79.36
79.93
78.72
76.33
73.24
69.8
66.24
62.84
59.89
57.54
55.75
54.15
52.18
49.29
45.17
39.88
33.84
27.56
21.44
15.57
9.7
3.38
-3.82
-12.1
-21.34
-31.13
-40.93
-50.28
-58.99
-67.24
-75.47
-84.34
-94.52
-106.4
-119.71
-133.31
-145.12
-152.56
-153.33
-146.23
-131.68
-111.54
-88.45
-64.85
-42.3
-21.33
-1.78
16.65
34.02
50.01
64.09
75.77
84.74
90.93
94.49
95.71
95.06
93.07
90.33
87.41
84.79
82.74
81.25
80.07
78.7
76.59
73.3
68.71
63.02
56.7
50.21
43.8
37.41
30.75
23.49
15.47
6.86
-2.02
-10.78
-19.23
-27.45
-35.79
-44.79
-54.99
-66.78
-80.11
-94.3
-107.85
-118.59
-124.22
-123.01
-114.51
-99.85
-81.34
-61.7
-43.12
-26.62
-12.03
1.5
14.8
28.18
41.26
53.17
63.03
70.25
74.72
76.74
76.82
75.56
73.49
71.06
68.6
66.37
64.45
62.71
60.9
58.65
55.7
51.91
47.34
42.11
36.29
29.91
22.92
15.36
7.38
-0.78
-8.85
-16.69
-24.4
-32.22
-40.48
-49.53
-59.65
-70.99
-83.39
-96.21
-108.06
-117.03
-121.02
-118.52
-109.18
-94.02
-75.08
-54.67
-34.56
-15.6
2.13
18.94
34.95
49.88
63.19
74.31
82.94
89.1
93.07
95.17
95.76
95.11
93.58
91.58
89.53
87.79
86.55
85.71
84.99
83.93
82.14
79.38
75.67
71.26
66.49
61.64
56.82
51.94
46.85
41.41
35.68
29.86
24.19
18.79
13.57
8.16
2.15
-4.76
-12.61
-21.11
-29.78
-38.21
-46.22
-53.88
-61.54
-69.61
-78.52
-88.57
-99.82
-111.86
-123.63
-133.42
-139.19
-139.19
-132.6
-119.96
-103.02
-84.09
-65.2
-47.48
-31.05
-15.42
-0.09
15.0
29.33
42.09
52.54
60.29
65.37
68.14
69.05
68.54
67.05
64.99
62.86
61.11
60.08
59.79
59.95
59.92
59.01
56.75
53.06
48.34
43.23
38.28
33.68
29.19
24.31
18.57
11.86
4.52
-2.87
-9.72
-15.77
-21.18
-26.43
-32.17
-38.94
-47.07
-56.52
-66.75
-76.67
-84.66
-88.96
-88.18
-81.8
-70.38
-55.48
-39.01
-22.64
-7.36
6.57
19.28
30.81
40.81
48.68
53.83
56.12
56.02
54.47
52.54
51.02
50.21
49.89
49.64
49.1
48.15
46.93
45.65
44.43
43.15
41.5
39.09
35.65
31.16
25.92
20.41
15.13
10.4
6.15
1.99
-2.63
-8.16
-14.76
-22.14
-29.75
-36.97
-43.4
-49.02
-54.19
-59.54
-65.77
-73.44
-82.86
-93.84
-105.62
-116.76
-125.35
-129.39
-127.47
-119.24
-105.57
-88.3
-69.52
-50.91
-33.32
-16.85
-1.19
13.9
28.31
41.62
53.28
62.84
70.08
74.98
77.68
78.45
77.65
75.74
73.27
70.77
68.71
67.33
66.63
66.35
66.07
65.27
63.55
60.72
56.86
52.31
47.56
42.98
38.75
34.76
30.71
26.29
21.37
16.03
10.54
5.19
0.12
-4.72
-9.57
-14.72
-20.29
-26.3
-32.54
-38.74
-44.66
-50.23
-55.56
-61.0
-67.05
-74.21
-82.87
-93.04
-104.09
-114.72
-123.05
-127.1
-125.4
-117.51
-104.17
-87.12
-68.41
-49.83
-32.38
-16.33
-1.44
12.61
25.9
38.25
49.26
58.61
66.07
71.59
75.2
77.0
77.15
75.96
73.88
71.47
69.31
67.77
66.9
66.42
65.84
64.67
62.6
59.6
55.88
51.79
47.65
43.6
39.62
35.57
31.26
26.6
21.63
16.5
11.4
6.46
1.66
-3.17
-8.24
-13.71
-19.59
-25.74
-31.94
-38.0
-43.85
-49.55
-55.33
-61.5
-68.45
-76.49
-85.62
-95.32
-104.38
-111.06
-113.51
-110.46
-101.66
-88.12
-71.71
-54.52
-38.15
-23.28
-9.84
2.67
14.58
25.78
35.74
43.74
49.29
52.36
53.35
52.96
51.9
50.64
49.43
48.27
47.13
45.97
44.9
44.0
43.33
42.77
42.06
40.87
38.91
36.04
32.34
28.06
23.56
19.15
15.0
11.07
7.12
2.86
-1.97
-7.42
-13.32
-19.3
-25.0
-30.16
-34.72
-38.91
-43.09
-47.78
-53.47
-60.56
-69.19
-79.05
-89.23
-98.25
-104.27
-105.68
-101.55
-92.05
-78.41
-62.5
-46.15
-30.63
-16.43
-3.42
8.78
20.38
31.31
41.19
49.58
56.15
60.79
63.61
64.85
64.82
63.88
62.37
60.65
59.02
57.73
56.89
56.45
56.21
55.82
54.94
53.3
50.83
47.69
44.15
40.55
37.13
33.95
30.86
27.6
23.91
19.69
15.01
10.13
5.36
0.87
-3.35
-7.59
-12.2
-17.46
-23.4
-29.75
-36.11
-42.04
-47.34
-52.1
-56.73
-61.81
-67.94
-75.56
-84.69
-94.72
-104.41
-111.99
-115.6
-113.88
-106.47
-94.13
-78.56
-61.69
-45.09
-29.62
-15.39
-2.11
10.49
22.36
33.18
42.47
49.81
55.01
58.14
59.49
59.46
58.48
56.93
55.13
53.28
51.55
50.03
48.85
48.04
47.58
47.27
46.83
45.88
44.11
41.36
37.69
33.38
28.86
24.52
20.58
17.03
13.55
9.69
5.04
-0.55
-6.93
-13.61
-20.04
-25.82
-30.83
-35.3
-39.69
-44.56
-50.38
-57.38
-65.47
-74.13
-82.35
-88.72
-91.74
-90.25
-83.84
-73.01
-59.11
-43.79
-28.53
-14.27
-1.35
10.29
20.85
30.36
38.68
45.59
50.89
54.53
56.63
57.39
57.08
55.97
54.36
52.54
50.78
49.32
48.3
47.78
47.65
47.65
47.39
46.47
44.55
41.54
37.65
33.34
29.13
25.4
22.23
19.34
16.28
12.66
8.36
3.58
-1.27
-5.87
-10.14
-14.34
-18.89
-24.17
-30.25
-36.85
-43.46
-49.52
-54.75
-59.21
-63.27
-67.55
-72.68
-79.24
-87.53
-97.44
-108.19
-118.31
-125.88
-128.98
-126.39
-118.03
-105.01
-89.23
-72.64
-56.66
-41.86
-28.17
-15.21
-2.69
9.43
20.91
31.46
40.75
48.52
54.64
59.05
61.89
63.41
63.98
64.0
63.84
63.83
64.16
64.89
65.92
66.97
67.63
67.55
66.54
64.64
62.15
59.45
56.86
54.52
52.39
50.26
47.91
45.15
41.84
37.99
33.69
29.17
24.75
20.72
17.22
14.15
11.14
7.67
3.26
-2.32
-8.92
-16.15
-23.45
-30.37
-36.7
-42.51
-48.1
-53.92
-60.47
-68.2
-77.3
-87.47
-97.7
-106.38
-111.59
-111.74
-106.09
-95.16
-80.46
-64.01
-47.61
-32.36
-18.54
-5.9
5.99
17.36
28.14
38.02
46.6
53.52
58.59
61.75
63.16
63.07
61.85
59.88
57.52
55.05
52.69
50.6
48.83
47.32
45.91
44.4
42.57
40.32
37.65
34.7
31.61
28.5
25.42
22.32
19.13
15.82
12.34
8.69
4.82
0.64
-3.9
-8.8
-13.94
-19.1
-24.03
-28.59
-32.85
-37.07
-41.78
-47.57
-54.87
-63.72
-73.48
-82.86
-90.06
-93.28
-91.35
-84.07
-72.33
-57.8
-42.28
-27.22
-13.38
-0.87
10.5
20.9
30.26
38.28
44.61
49.02
51.58
52.51
52.16
50.83
48.73
46.04
43.04
40.1
37.65
36.09
35.54
35.77
36.25
36.27
35.25
32.94
29.46
25.29
21.04
17.14
13.77
10.76
7.69
4.16
-0.13
-5.22
-10.9
-16.84
-22.72
-28.31
-33.57
-38.71
-44.13
-50.32
-57.69
-66.33
-75.71
-84.63
-91.39
-94.24
-91.99
-84.46
-72.5
-57.76
-42.03
-26.69
-12.43
0.68
12.86
24.22
34.6
43.58
50.72
55.75
58.72
59.98
60.05
59.42
58.46
57.38
56.23
55.05
53.86
52.76
51.74
50.77
49.63
48.05
45.83
42.94
39.55
35.92
32.31
28.79
25.28
21.6
17.63
13.35
8.92
4.5
0.21
-4.02
-8.42
-13.25
-18.67
-24.64
-30.91
-37.13
-43.01
-48.5
-53.85
-59.51
-66.05
-73.91
-83.19
-93.51
-103.94
-113.04
-119.12
-120.72
-117.0
-108.1
-95.05
-79.5
-63.07
-46.95
-31.61
-16.99
-2.89
10.79
23.8
35.67
45.92
54.18
60.3
64.28
66.23
66.4
65.13
62.89
60.2
57.58
55.4
53.85
52.88
52.2
51.4
49.98
47.58
44.08
39.67
34.81
30.0
25.5
21.27
16.95
12.07
6.33
-0.23
-7.22
-14.09
-20.4
-25.99
-31.07
-36.13
-41.75
-48.53
-56.82
-66.58
-77.15
-87.25
-95.1
-98.88
-97.31
-90.07
-77.96
-62.62
-45.94
-29.51
-14.24
-0.34
12.39
24.26
35.37
45.54
54.41
61.56
66.7
69.76
70.93
70.58
69.14
67.03
64.61
62.18
59.97
58.17
56.86
55.97
55.24
54.33
52.86
50.6
47.51
43.77
39.64
35.38
31.12
26.83
22.47
17.97
13.33
8.57
3.7
-1.4
-6.91
-12.93
-19.43
-26.17
-32.83
-39.11
-44.85
-50.14
-55.25
-60.6
-66.68
-73.99
-82.79
-92.9
-103.42
-112.66
-118.56
-119.22
-113.68
-102.26
-86.5
-68.58
-50.51
-33.63
-18.36
-4.49
8.39
20.56
32.02
42.51
51.68
59.22
64.94
68.79
70.9
71.49
70.89
69.44
67.46
65.27
63.2
61.53
60.49
60.1
60.1
60.01
59.26
57.47
54.55
50.8
46.75
42.94
39.67
36.87
34.18
31.08
27.17
22.33
16.83
11.13
5.71
0.82
-3.61
-7.93
-12.56
-17.75
-23.49
-29.51
-35.45
-40.95
-45.89
-50.37
-54.72
-59.41
-64.97
-71.92
-80.57
-90.78
-101.73
-111.86
-119.06
-121.27
-117.21
-106.82
-91.41
-73.15
-54.37
-36.73
-20.92
-6.74
6.36
18.88
30.86
41.94
51.58
59.29
64.81
68.19
69.65
69.58
68.39
66.49
64.29
62.14
60.37
59.17
58.56
58.33
58.11
57.45
55.98
53.58
50.39
46.78
43.16
39.79
36.66
33.53
30.09
26.09
21.57
16.8
12.16
7.99
4.34
0.97
-2.57
-6.72
-11.69
-17.38
-23.4
-29.31
-34.76
-39.7
-44.38
-49.28
-55.01
-62.03
-70.48
-79.95
-89.32
-96.92
-100.89
-99.69
-92.73
-80.57
-64.74
-47.28
-30.0
-14.09
0.04
12.55
23.75
33.81
42.62
49.84
55.14
58.38
59.74
59.63
58.64
57.27
55.87
54.57
53.31
52.0
50.58
49.06
47.48
45.86
44.1
42.04
39.51
36.39
32.71
28.6
24.29
20.01
15.89
11.97
8.16
4.29
0.18
-4.29
-9.19
-14.46
-19.97
-25.51
-30.85
-35.8
-40.36
-44.72
-49.29
-54.58
-61.05
-68.94
-78.1
-87.86
-96.94
-103.67
-106.34
-103.74
-95.61
-82.76
-66.85
-49.74
-32.92
-17.17
-2.57
11.17
24.27
36.61
47.84
57.46
65.07
70.51
73.84
75.28
75.14
73.76
71.54
68.88
66.19
63.84
62.1
61.04
60.48
60.03
59.18
57.52
54.88
51.41
47.53
43.75
40.42
37.59
34.99
32.2
28.83
24.67
19.8
14.51
9.19
4.14
-0.53
-4.93
-9.34
-14.04
-19.19
-24.77
-30.58
-36.34
-41.8
-46.9
-51.73
-56.6
-61.88
-68.02
-75.29
-83.59
-92.3
-100.15
-105.51
-106.81
-103.08
-94.36
-81.69
-66.67
-50.98
-35.82
-21.72
-8.67
3.52
14.96
25.48
34.65
41.99
47.19
50.19
51.25
50.82
49.42
47.51
45.43
43.37
41.49
39.94
38.88
38.4
38.35
38.4
38.04
36.73
34.2
30.49
26.0
21.34
17.03
13.35
10.25
7.35
4.14
0.19
-4.64
-10.17
-15.94
-21.42
-26.22
-30.24
-33.68
-37.01
-40.78
-45.47
-51.45
-58.82
-67.3
-76.1
-83.91
-89.08
-90.07
-85.93
-76.73
-63.53
-48.04
-31.99
-16.62
-2.39
10.81
23.24
34.93
45.47
54.17
60.4
63.95
65.08
64.44
62.81
60.83
58.87
57.05
55.33
53.64
51.92
50.1
48.18
46.13
43.92
41.51
38.77
35.56
31.79
27.49
22.87
18.24
13.91
9.97
6.34
2.73
-1.21
-5.7
-10.83
-16.5
-22.47
-28.52
-34.47
-40.19
-45.69
-51.06
-56.53
-62.42
-69.09
-76.81
-85.53
-94.63
-102.9
-108.7
-110.4
-106.94
-98.19
-85.04
-69.06
-51.97
-35.14
-19.31
-4.65
8.97
21.67
33.38
43.81
52.61
59.48
64.34
67.27
68.49
68.33
67.17
65.39
63.39
61.52
60.05
59.1
58.59
58.28
57.76
56.62
54.58
51.6
47.94
44.02
40.21
36.71
33.4
29.92
25.89
21.11
15.65
9.89
4.22
-1.06
-5.94
-10.68
-15.63
-21.1
-27.14
-33.57
-40.06
-46.24
-51.92
-57.12
-62.13
-67.38
-73.38
-80.51
-88.92
-98.27
-107.64
-115.51
-120.1
-119.82
-113.83
-102.38
-86.74
-68.76
-50.26
-32.46
-15.85
-0.35
14.32
28.21
40.98
52.08
60.95
67.33
71.31
73.32
73.93
73.66
72.85
71.66
70.2
68.55
66.95
65.61
64.69
64.12
63.56
62.52
60.57
57.52
53.6
49.28
45.11
41.43
38.15
34.88
31.14
26.62
21.42
15.92
10.67
6.04
2.03
-1.68
-5.63
-10.29
-15.9
-22.33
-29.16
-35.89
-42.02
-47.32
-51.92
-56.29
-61.11
-67.1
-74.76
-84.13
-94.61
-104.9
-113.13
-117.34
-115.99
-108.5
-95.55
-78.82
-60.46
-42.34
-25.6
-10.47
3.37
16.31
28.49
39.63
49.23
56.79
62.11
65.33
