67.46
65.99
64.84
63.92
63.02
61.81
59.98
57.31
53.8
49.68
45.32
41.06
37.11
33.51
30.11
26.69
23.05
19.0
14.42
9.34
3.89
-1.65
-6.97
-11.83
-16.2
-20.36
-24.76
-29.82
-35.76
-42.4
-49.29
-55.88
-61.81
-67.09
-72.09
-77.42
-83.73
-91.53
-101.0
-111.84
-123.19
-133.59
-141.23
-144.35
-141.74
-133.1
-119.15
-101.35
-81.43
-60.83
-40.52
-20.94
-2.28
15.33
31.6
46.15
58.6
68.68
76.28
81.55
84.74
86.23
86.45
85.8
84.71
83.5
82.42
81.59
80.98
80.42
79.64
78.35
76.33
73.48
69.88
65.78
61.48
57.31
53.44
49.86
46.39
42.69
38.48
33.53
27.9
21.85
15.77
10.05
4.86
0.1
-4.57
-9.66
-15.51
-22.22
-29.52
-36.88
-43.8
-49.97
-55.46
-60.71
-66.41
-73.23
-81.62
-91.6
-102.55
-113.24
-121.96
-126.87
-126.53
-120.34
-108.72
-92.93
-74.73
-55.66
-36.84
-18.78
-1.56
14.78
30.04
43.79
55.47
64.62
71.03
74.81
76.37
76.28
75.15
73.5
71.73
70.09
68.71
67.61
66.66
65.63
64.25
62.25
59.49
56.04
52.12
48.04
44.04
40.23
36.56
32.91
29.15
25.22
21.13
16.86
12.38
7.61
2.48
-3.03
-8.87
-14.92
-21.0
-26.97
-32.71
-38.22
-43.65
-49.3
-55.54
-62.72
-71.05
-80.4
-90.2
-99.39
-106.5
-109.98
-108.6
-101.83
-90.06
-74.46
-56.63
-38.13
-20.11
-3.17
12.51
26.87
39.72
50.67
59.24
65.11
68.29
69.21
68.51
66.94
65.09
63.34
61.83
60.6
59.64
58.92
58.38
57.84
57.05
55.75
53.73
50.99
47.67
44.04
40.36
36.78
33.29
29.71
25.82
21.42
16.5
11.18
5.68
0.21
-5.14
-10.48
-15.94
-21.66
-27.61
-33.67
-39.66
-45.48
-51.15
-56.84
-62.88
-69.66
-77.51
-86.55
-96.43
-106.26
-114.56
-119.6
-119.93
-114.81
-104.53
-90.21
-73.38
-55.48
-37.49
-19.89
-2.98
12.99
27.56
40.2
50.43
58.03
63.09
65.91
66.93
66.63
65.45
63.8
62.03
60.34
58.86
57.59
56.45
55.38
54.26
52.9
51.06
48.48
44.99
40.66
35.8
30.84
26.22
22.14
18.5
14.97
11.17
6.83
1.91
-3.41
-8.86
-14.16
-19.18
-23.99
-28.78
-33.89
-39.7
-46.57
-54.72
-64.02
-73.85
-83.0
-89.88
-93.0
-91.42
-85.12
-75.05
-62.73
-49.67
-36.9
-24.82
-13.32
-2.21
8.51
18.47
27.16
34.13
39.28
42.8
45.14
46.7
47.74
48.35
48.6
48.55
48.4
48.34
48.51
48.8
48.95
48.56
47.28
44.88
41.34
36.84
31.69
26.29
20.98
15.96
11.17
6.3
0.96
-5.15
-12.01
-19.29
-26.42
-32.88
-38.47
-43.35
-48.06
-53.32
-59.81
-68.0
-77.98
-89.35
-101.11
-111.78
-119.58
-122.9
-120.75
-113.09
-100.83
-85.53
-68.83
-51.97
-35.52
-19.48
-3.6
12.27
27.9
42.75
56.08
67.25
75.89
81.95
85.64
87.32
87.42
86.37
84.59
82.48
80.44
78.73
77.43
76.35
75.1
73.2
70.28
66.29
61.48
56.44
51.74
47.76
44.53
41.72
38.82
35.4
31.27
26.51
21.42
16.24
11.05
5.7
-0.13
-6.71
-14.1
-22.08
-30.22
-38.06
-45.29
-51.88
-58.08
-64.42
-71.5
-79.9
-89.95
-101.52
-113.84
-125.41
-134.26
-138.47
-136.77
-129.03
-116.26
-100.28
-83.03
-66.0
-49.91
-34.78
-20.25
-5.95
8.27
22.26
35.71
48.22
59.37
68.84
76.39
81.93
85.55
87.5
88.23
88.23
88.04
88.07
88.53
89.36
90.24
90.75
90.47
89.24
87.13
84.48
81.68
78.99
76.47
74.01
71.33
68.19
64.45
60.1
55.26
50.06
44.59
38.77
32.37
25.01
16.34
6.15
-5.46
-18.03
-30.94
-43.55
-55.55
-67.06
-78.59
-90.79
-104.13
-118.58
-133.4
-147.24
-158.44
-165.43
-167.26
-163.77
-155.54
-143.68
-129.47
-114.0
-98.11
-82.35
-67.04
-52.33
-38.28
-24.86
-12.11
-0.18
10.56
19.64
26.6
31.24
33.73
34.58
34.51
34.28
34.51
35.6
37.64
40.48
43.76
47.13
50.24
52.96
55.27
57.27
58.98
60.34
61.14
61.06
59.8
57.21
53.38
48.71
43.84
39.43
35.97
33.54
31.72
29.76
26.83
22.33
16.12
8.39
-0.62
-10.91
-22.94
-37.56
-55.68
-77.91
-104.25
-133.88
-165.24
-196.17
-224.19
-246.92
-262.53
-270.13
-269.87
-262.73
-250.04
-232.94
-212.14
-187.93
-160.63
-130.96
-100.24
-70.2
-42.51
-18.33
1.96
18.67
32.57
44.53
55.31
65.46
75.29
84.93
94.29
103.17
111.26
118.25
123.86
127.92
130.37
131.24
130.59
128.57
125.44
121.47
116.98
112.18
107.13
101.78
96.09
90.07
83.92
77.84
71.95
66.1
59.87
52.76
44.43
34.96
24.88
14.94
5.81
-2.29
-9.67
-17.15
-25.75
-36.34
-49.3
-64.13
-79.46
-93.14
-102.78
-106.42
-103.13
-93.36
-78.71
-61.4
-43.52
-26.45
-10.68
3.96
17.9
31.38
44.28
56.12
66.33
74.48
80.39
84.18
86.17
86.75
86.27
85.03
83.28
81.29
79.35
77.65
76.25
75.02
73.69
71.9
69.39
66.03
61.94
57.42
52.81
48.44
44.38
40.48
36.34
31.44
25.39
18.01
9.5
0.41
-8.47
-16.35
-22.66
-27.33
-30.81
-33.97
-37.82
-43.22
-50.59
-59.73
-69.85
-79.61
-87.45
-91.86
-91.69
-86.52
-76.78
-63.66
-48.68
-33.25
-18.25
-3.91
9.98
23.61
36.83
49.07
59.46
67.3
72.34
74.93
75.88
76.18
76.65
77.72
79.39
81.34
83.21
84.68
85.64
86.1
86.05
85.38
83.8
80.94
76.49
70.37
62.88
54.65
46.47
39.06
32.77
27.42
22.36
16.73
9.74
1.04
-9.14
-20.24
-31.46
-42.12
-51.75
-60.15
-67.44
-74.21
-81.37
-89.87
-100.24
-112.01
-123.49
-132.22
-135.76
-132.65
-123.02
-108.4
-91.05
-73.01
-55.5
-38.85
-22.86
-7.26
7.98
22.61
36.28
48.74
59.9
69.83
78.54
85.96
91.88
95.98
98.08
98.15
96.42
93.35
89.46
85.23
80.96
76.79
72.69
68.57
64.34
59.89
55.11
49.92
44.33
38.53
32.82
27.58
23.1
19.37
16.1
12.76
8.82
3.95
-1.89
-8.5
-15.53
-22.71
-29.86
-37.01
-44.33
-52.11
-60.65
-70.18
-80.62
-91.37
-101.19
-108.42
-111.39
-108.99
-101.17
-88.95
-74.1
-58.52
-43.58
-29.88
-17.29
-5.35
6.33
17.84
28.91
39.11
48.07
55.51
61.32
65.45
67.91
68.75
68.17
66.51
64.28
62.02
60.18
59.0
58.46
58.29
58.0
57.02
54.89
51.34
46.46
40.61
34.33
28.16
22.42
17.13
12.06
6.86
1.25
-4.82
-11.12
-17.26
-22.76
-27.25
-30.58
-32.92
-34.75
-36.75
-39.66
-44.1
-50.3
-57.98
-66.25
-73.67
-78.57
-79.52
-75.74
-67.41
-55.65
-42.12
-28.48
-15.91
-4.78
5.18
14.58
23.92
33.2
41.87
49.03
53.77
55.5
54.16
50.23
44.58
38.33
32.51
28.0
25.32
24.58
25.45
27.3
29.34
30.83
31.25
30.39
28.32
25.33
21.8
18.14
14.71
11.74
9.3
7.29
5.48
3.56
1.24
-1.71
-5.4
-9.78
-14.67
-19.81
-24.89
-29.66
-34.06
-38.19
-42.38
-46.99
-52.42
-58.88
-66.31
-74.17
-81.47
-86.94
-89.37
-87.99
-82.78
-74.46
-64.22
-53.21
-42.25
-31.68
-21.48
-11.51
-1.77
7.58
16.26
24.0
30.62
36.04
40.23
43.23
45.12
45.99
46.04
45.47
44.53
43.49
42.61
42.03
41.83
41.83
41.73
41.16
39.83
37.66
34.81
31.62
28.43
25.5
22.82
20.19
17.27
13.79
9.68
5.15
0.59
-3.65
-7.42
-10.85
-14.38
-18.49
-23.55
-29.67
-36.67
-44.1
-51.23
-57.17
-60.97
-61.87
-59.49
-54.03
-46.27
-37.26
-27.99
-19.1
-10.8
-2.99
4.42
11.31
17.3
21.93
24.89
26.21
26.22
25.47
24.5
23.68
23.12
22.75
22.4
21.94
21.31
20.48
19.49
18.36
17.1
15.71
14.19
12.51
10.63
8.44
5.8
2.66
-0.99
-4.98
-9.09
-13.1
-16.91
-20.56
-24.29
-28.42
-33.26
-38.95
-45.37
-52.03
-58.13
-62.68
-64.76
-63.81
-59.84
-53.39
-45.41
-36.86
-28.45
-20.52
-13.1
-6.04
0.73
7.14
12.93
17.79
21.45
23.81
24.99
25.23
24.93
24.4
23.89
23.46
23.04
22.52
21.83
20.94
19.9
18.77
17.57
16.26
14.74
12.89
10.59
7.83
4.69
1.32
-2.17
-5.73
-9.42
-13.35
-17.63
-22.32
-27.51
-33.24
-39.59
-46.45
-53.43
-59.77
-64.46
-66.5
-65.3
-60.89
-53.96
-45.51
-36.6
-27.9
-19.68
-11.84
-4.18
3.42
10.84
17.78
23.82
28.63
32.0
33.97
34.78
34.79
34.33
33.65
32.82
31.82
30.64
29.31
27.95
26.68
25.48
24.24
22.67
20.5
17.55
13.84
9.57
5.02
0.45
-4.0
-8.36
-12.78
-17.41
-22.41
-27.86
-33.86
-40.42
-47.46
-54.69
-61.47
-66.91
-70.06
-70.19
-67.07
-61.08
-53.0
-43.76
-34.2
-24.78
-15.71
-7.0
1.38
9.37
16.84
23.6
29.42
34.08
37.41
39.35
39.96
39.46
38.17
36.45
34.64
33.06
31.85
31.01
30.36
29.62
28.5
26.75
24.31
21.27
17.81
14.13
10.36
6.52
2.55
-1.62
-5.99
-10.55
-15.18
-19.83
-24.49
-29.24
-34.23
-39.63
-45.62
-52.35
-59.85
-67.98
-76.25
-83.8
-89.47
-92.16
-91.16
-86.47
-78.79
-69.26
-59.0
-48.73
-38.7
-28.79
-18.76
-8.54
1.75
11.76
21.13
29.51
36.68
42.49
46.91
50.01
51.97
53.05
53.55
53.76
53.87
54.01
54.15
54.22
54.09
53.66
52.83
51.56
49.76
47.38
44.36
40.69
36.5
31.97
27.33
22.74
18.22
13.64
8.78
3.4
-2.55
-9.01
-15.77
-22.59
-29.3
-35.82
-42.22
-48.65
-55.33
-62.57
-70.68
-79.8
-89.7
-99.63
-108.35
-114.38
-116.54
-114.32
-108.05
-98.76
-87.68
-75.88
-63.89
-51.82
-39.51
-26.83
-13.82
-0.68
12.25
24.67
36.2
46.48
55.12
61.8
66.36
68.96
70.0
70.07
69.78
69.53
69.48
69.56
69.52
69.08
68.06
66.41
64.27
61.82
59.24
56.59
53.76
50.61
46.97
42.82
38.22
33.34
28.32
23.18
17.83
12.16
6.07
-0.41
-7.2
-14.16
-21.17
-28.16
-35.07
-41.91
-48.8
-55.99
-63.89
-72.89
-83.16
-94.27
-105.17
-114.25
-119.87
-120.86
-116.93
-108.73
-97.55
-84.72
-71.27
-57.65
-43.93
-30.01
-15.87
-1.69
12.27
25.67
38.18
49.44
59.12
66.91
72.67
76.47
78.61
79.51
79.66
79.45
79.17
78.99
78.94
78.95
78.84
78.35
77.24
75.4
72.86
69.84
66.62
63.46
60.4
57.29
53.84
49.72
44.8
39.14
33.0
26.74
20.58
14.6
8.67
2.58
-3.79
-10.46
-17.29
-24.09
-30.66
-37.0
-43.21
-49.52
-56.2
-63.56
-71.82
-81.1
-91.25
-101.62
-111.07
-118.1
-121.25
-119.6
-113.1
-102.58
-89.42
-75.04
-60.38
-45.79
-31.19
-16.48
-1.77
12.58
26.12
38.48
49.47
59.04
67.12
73.55
78.18
80.92
81.93
81.61
80.56
79.39
78.55
78.24
78.36
78.59
78.45
77.56
75.69
72.92
69.51
65.8
62.07
58.4
54.74
50.91
46.8
42.32
37.48
32.37
27.08
21.78
16.56
11.46
6.35
1.01
-4.82
-11.26
-18.2
-25.35
-32.33
-38.88
-44.98
-50.91
-57.06
-63.86
-71.61
-80.4
-90.0
-99.77
-108.66
-115.28
-118.29
-116.8
-110.67
-100.64
-87.98
-74.08
-59.98
-46.16
-32.68
-19.36
-6.15
6.86
19.42
31.27
42.18
51.97
60.42
67.31
72.44
75.69
77.17
77.19
76.29
75.07
74.07
73.63
73.76
74.23
74.56
74.3
73.09
70.84
67.74
64.09
60.23
56.37
52.6
48.87
45.13
41.32
37.39
33.27
28.88
24.17
19.16
14.0
8.89
4.02
-0.61
-5.17
-9.96
-15.23
-21.02
-27.12
-33.22
-39.03
-44.45
-49.59
-54.75
-60.24
-66.36
-73.3
-81.11
-89.54
-97.99
-105.4
-110.48
-112.04
-109.39
-102.6
-92.51
-80.36
-67.35
-54.3
-41.45
-28.75
-16.06
-3.43
8.9
20.55
31.14
40.4
48.2
54.43
59.05
62.05
63.51
63.65
62.87
61.66
60.47
59.6
59.15
58.97
58.81
58.39
57.52
56.09
54.08
51.55
48.58
45.31
41.9
38.53
35.33
32.32
29.4
26.4
23.17
19.64
15.87
11.99
8.15
4.43
0.8
-2.88
-6.81
-11.18
-16.08
-21.45
-27.09
-32.72
-38.09
-43.11
-47.81
-52.42
-57.25
-62.65
-68.88
-76.02
-83.87
-91.81
-98.88
-103.87
-105.74
-103.88
-98.34
-89.77
-79.18
-67.57
-55.65
-43.79
-32.05
-20.4
-8.84
2.5
13.37
23.49
32.57
40.35
46.64
51.37
54.58
56.43
57.18
57.17
56.75
56.21
55.83
55.74
55.95
56.3
56.48
56.16
55.02
52.95
50.11
46.82
43.5
40.46
37.8
35.39
33.0
30.39
27.45
24.2
20.78
17.32
13.94
10.68
7.49
4.29
0.89
-2.89
-7.2
-12.04
-17.28
-22.67
-27.99
-33.1
-38.06
-43.04
-48.3
-54.11
-60.62
-67.76
-75.05
-81.66
-86.45
-88.33
-86.58
-81.15
-72.71
-62.37
-51.3
-40.35
-29.85
-19.75
-9.86
-0.08
9.42
18.29
26.14
32.69
37.79
41.46
43.77
44.86
44.9
44.18
43.04
41.89
41.08
40.72
40.72
40.83
40.73
40.27
39.44
38.36
37.14
35.78
34.18
32.2
29.71
26.71
23.33
19.74
16.13
12.63
9.28
6.03
2.82
-0.47
-3.91
-7.57
-11.5
-15.69
-20.15
-24.82
-29.66
-34.62
-39.72
-45.07
-50.78
-56.79
-62.79
-68.08
-71.71
-72.77
-70.7
-65.53
-57.92
-48.85
-39.31
-29.92
-20.9
-12.14
-3.51
4.89
12.72
19.43
24.59
28.0
29.8
30.39
30.28
29.85
29.34
28.85
28.4
28.11
28.08
28.44
29.17
30.08
30.8
30.97
30.35
28.96
26.97
24.63
22.1
19.31
16.13
12.39
8.1
3.41
-1.44
-6.24
-10.95
-15.61
-20.4
-25.47
-30.99
-37.15
-44.08
-51.77
-59.87
-67.6
-73.86
-77.47
-77.58
-73.98
-67.18
-58.12
-47.88
-37.27
-26.67
-16.14
-5.6
4.89
15.08
24.49
32.65
39.19
43.98
47.13
48.92
49.67
49.65
49.06
47.96
46.4
44.44
42.12
39.48
36.51
33.15
29.31
24.97
20.22
15.31
10.53
6.17
2.37
-0.95
-4.04
-7.25
-10.84
-14.88
-19.29
-23.83
-28.3
-32.64
-36.95
-41.47
-46.55
-52.51
-59.49
-67.32
-75.4
-82.68
-87.88
-89.82
-87.86
-82.1
-73.38
-62.92
-51.82
-40.78
-29.98
-19.33
-8.67
1.94
12.22
21.74
30.07
36.93
42.17
45.87
48.2
49.42
49.78
49.55
49.01
48.42
48.05
48.05
48.39
48.88
49.1
48.6
47.02
44.25
40.51
36.23
31.89
27.85
24.26
20.95
17.62
13.87
9.43
4.22
-1.55
-7.55
-13.44
-19.0
-24.25
-29.39
-34.7
-40.53
-47.18
-54.89
-63.71
-73.28
-82.71
-90.69
-95.78
-96.9
-93.76
-86.9
-77.51
-66.81
-55.67
-44.41
-32.99
-21.31
-9.4
2.46
13.92
24.64
34.38
42.93
50.09
55.65
59.48
61.56
62.07
61.38
59.95
58.21
56.56
55.27
54.42
53.93
53.58
53.09
52.19
50.75
48.73
46.21
43.27
39.99
36.49
32.8
28.91
24.73
20.09
14.89
9.1
2.87
-3.48
-9.61
-15.33
-20.65
-25.85
-31.38
-37.67
-45.05
-53.6
-63.0
-72.5
-80.97
-87.13
-89.88
-88.6
-83.39
-74.98
-64.43
-52.82
-40.88
-29.01
-17.27
-5.65
5.79
16.88
27.32
36.76
44.89
51.47
56.34
59.52
61.19
61.59
61.07
59.97
58.6
57.19
55.86
54.67
53.61
52.63
51.58
50.3
48.59
46.28
43.31
39.78
35.94
32.03
28.27
24.67
21.04
17.12
12.63
7.44
1.59
-4.73
-11.25
-17.73
-24.06
-30.27
-36.61
-43.4
-51.03
-59.68
-69.24
-79.16
-88.49
-96.05
-100.68
-101.56
-98.44
-91.67
-82.09
-70.74
-58.56
-46.18
-33.87
-21.64
-9.47
2.59
14.29
25.24
34.99
43.2
49.64
54.31
57.31
58.88
59.31
58.89
57.92
56.7
55.45
54.37
53.55
52.97
52.48
51.86
50.86
49.27
47.0
44.09
40.66
36.88
32.88
28.7
24.29
19.53
14.33
8.7
2.82
-3.06
-8.64
-13.76
-18.44
-22.99
-27.84
-33.5
-40.41
-48.76
-58.43
-68.9
-79.24
-88.22
-94.54
-97.12
-95.45
-89.7
-80.66
-69.49
-57.28
-44.83
-32.47
-20.2
-7.9
4.5
16.8
28.62
39.48
48.91
56.61
62.4
66.31
68.53
69.37
69.23
68.54
67.63
66.75
65.99
65.36
64.82
64.25
63.48
62.31
60.51
57.93
54.57
50.58
46.2
41.66
37.15
32.71
28.32
23.88
19.26
14.33
8.99
3.19
-2.99
-9.41
-15.81
-22.01
-27.91
-33.57
-39.2
-45.18
-51.87
-59.56
-68.23
-77.38
-85.99
-92.65
-96.02
-95.27
-90.33
-81.97
-71.42
-59.89
-48.22
-36.72
-25.32
-13.84
-2.18
9.5
20.85
31.41
40.72
48.44
54.37
58.5
61.04
62.29
62.6
62.29
61.63
60.86
60.15
59.59
59.18
58.77
58.16
57.16
55.67
53.75
51.51
49.12
46.7
44.26
41.72
38.9
35.64
31.85
27.62
23.18
18.86
14.85
11.13
7.38
3.18
-1.79
-7.58
-13.87
-20.23
-26.21
-31.62
-36.55
-41.28
-46.14
-51.47
-57.52
-64.38
-71.9
-79.56
-86.39
-91.19
-92.82
-90.61
-84.62
-75.6
-64.7
-53.03
-41.39
-30.11
-19.21
-8.63
1.63
11.43
20.48
28.5
35.26
40.62
44.55
47.13
48.51
48.89
48.5
47.59
46.46
45.4
44.63
44.28
44.3
44.49
44.55
44.17
43.14
41.39
39.0
36.14
33.0
29.76
26.52
23.33
20.17
16.97
13.59
9.96
6.0
1.74
-2.71
-7.23
-11.68
-16.0
-20.19
-24.33
-28.62
-33.29
-38.61
-44.74
-51.65
-58.87
-65.55
-70.55
-72.87
-71.91
-67.72
-60.91
-52.4
-43.09
-33.56
-24.08
-14.67
-5.31
3.9
12.72
20.81
27.81
33.5
37.8
40.79
42.59
43.39
43.37
42.66
41.49
40.11
38.84
37.93
37.49
37.39
37.32
36.92
35.92
34.22
31.94
29.28
26.46
23.62
20.8
17.99
15.15
12.26
9.28
6.16
2.8
-0.92
-5.04
-9.53
-14.24
-18.95
-23.42
-27.5
-31.13
-34.39
-37.52
-40.8
-44.6
-49.17
-54.62
-60.7
-66.79
-71.92
-74.99
-75.18
-72.19
-66.33
-58.43
-49.48
-40.25
-31.16
-22.24
-13.4
-4.63
3.89
11.84
18.91
24.91
29.83
33.76
36.82
39.08
40.58
41.32
41.37
40.86
39.99
39.05
38.28
37.85
37.77
37.89
37.96
37.7
36.89
35.42
33.29
30.6
27.5
24.19
20.87
17.72
14.85
12.24
9.75
7.11
4.03
0.36
-3.85
-8.35
-12.8
-16.95
-20.76
-24.4
-28.21
-32.47
-37.32
-42.76
-48.63
-54.59
-60.09
-64.42
-66.78
-66.53
-63.46
-57.91
-50.63
-42.54
-34.36
-26.39
-18.63
-10.95
-3.27
4.29
11.47
18.0
23.64
28.21
31.6
33.76
34.75
34.75
34.06
32.96
31.72
30.47
29.3
28.25
27.38
26.73
26.31
26.01
25.66
25.09
24.18
22.88
21.18
19.11
16.71
14.08
11.35
8.65
6.03
3.41
0.6
-2.57
-6.18
-10.11
-14.08
-17.86
-21.3
-24.48
-27.57
-30.81
-34.38
-38.39
-42.96
-48.13
-53.81
-59.58
-64.72
-68.27
-69.38
-67.56
-62.96
-56.25
-48.37
-40.2
-32.26
-24.67
-17.32
-10.02
-2.65
4.72
11.94
18.76
24.96
30.3
34.58
37.64
39.43
40.05
39.73
38.82
37.7
36.67
35.98
35.66
35.62
35.59
35.24
34.33
32.78
30.76
28.57
26.55
24.87
23.52
22.27
20.78
18.74
16.02
12.65
8.87
5.02
1.38
-1.87
-4.65
-7.02
-9.07
-10.98
-12.96
-15.33
-18.39
-22.4
-27.42
-33.3
-39.74
-46.46
-53.23
-59.88
-66.13
-71.42
-75.01
-76.08
-74.18
-69.35
-62.21
-53.7
-44.79
-36.15
-28.04
-20.44
-13.15
-6.05
0.85
7.42
13.46
18.79
23.3
26.9
29.58
31.39
32.39
32.7
32.47
31.87
31.12
30.42
29.95
29.77
29.78
29.78
29.51
28.75
27.44
25.69
23.8
22.09
20.75
19.79
19.02
18.15
16.9
15.14
12.91
10.44
7.99
5.74
3.73
1.83
-0.23
-2.65
-5.56
-8.87
-12.45
-16.06
-19.56
-22.94
-26.29
-29.8
-33.7
-38.24
-43.58
-49.73
-56.37
-62.83
-68.16
-71.32
-71.56
-68.67
-63.1
-55.74
-47.6
-39.42
-31.49
-23.71
-15.82
-7.7
0.51
8.44
15.69
21.94
27.1
31.23
34.4
36.7
38.17
38.9
39.07
38.96
38.86
39.01
39.52
40.28
41.09
41.63
41.68
41.08
39.87
38.23
36.42
34.68
33.16
31.87
30.66
29.35
27.74
25.77
23.44
20.85
18.09
15.26
12.38
9.39
6.14
2.5
-1.61
-6.12
-10.8
-15.36
-19.6
-23.49
-27.24
-31.19
-35.72
-41.09
-47.34
-54.27
-61.42
-68.06
-73.36
-76.47
-76.79
-74.18
-68.96
-61.88
-53.74
-45.24
-36.75
-28.33
-19.93
-11.52
-3.23
4.66
11.83
18.0
23.01
26.86
29.65
31.54
32.69
33.23
33.32
33.1
32.75
32.42
32.24
32.24
32.34
32.41
32.23
31.61
30.44
28.76
26.69
24.46
22.26
20.18
18.16
15.96
13.31
10.01
6.04
1.63
-2.9
-7.2
-11.09
-14.57
-17.87
-21.27
-25.08
-29.49
-34.59
-40.32
-46.42
-52.41
-57.57
-61.09
-62.22
-60.55
-56.16
-49.54
-41.45
-32.63
-23.63
-14.79
-6.2
2.06
9.91
17.17
23.65
29.15
33.54
36.79
38.95
40.16
40.59
40.43
39.86
39.07
38.18
37.34
36.62
36.07
35.62
35.15
34.43
33.25
31.45
29.03
26.16
23.08
19.99
16.98
13.93
10.66
6.97
2.79
-1.74
-6.37
-10.81
-14.88
-18.64
-22.31
-26.28
-30.96
-36.59
-43.13
-50.17
-56.92
-62.33
-65.36
-65.29
-61.94
-55.73
-47.51
-38.23
-28.66
-19.26
-10.13
-1.29
7.22
15.23
22.49
28.76
33.89
37.85
40.68
42.43
43.13
42.87
41.78
40.07
38.08
36.09
34.33
32.91
31.73
30.62
29.33
27.69
25.65
23.26
20.67
18.05
15.5
13.11
10.81
8.46
5.83
2.69
-1.1
-5.51
-10.34
-15.3
-20.09
-24.55
-28.64
-32.56
-36.61
-41.17
-46.58
-52.95
-60.12
-67.42
-73.79
-78.0
-79.04
-76.46
-70.54
-62.12
-52.26
-41.89
-31.52
-21.3
-11.19
-1.12
8.83
18.45
27.47
35.63
42.68
48.46
52.88
55.93
57.73
58.5
58.51
58.04
57.37
56.7
56.12
55.61
55.07
54.34
53.32
51.97
50.28
48.24
45.86
43.14
40.07
36.69
33.08
29.34
25.55
21.8
18.07
14.38
10.68
6.87
2.88
-1.36
-5.87
-10.59
-15.37
-20.09
-24.61
-28.87
-32.91
-36.92
-41.23
-46.24
-52.21
-59.06
-66.14
-72.26
-76.04
-76.37
-72.8
-65.77
-56.33
-45.71
-34.85
-24.22
-13.88
-3.73
6.24
15.89
24.97
33.25
40.54
46.72
51.65
55.26
57.49
58.44
58.32
57.45
56.11
54.55
52.96
51.47
50.18
49.09
48.15
47.17
45.95
44.32
42.2
39.6
36.65
33.49
30.3
27.18
24.12
21.03
17.66
13.81
9.31
4.2
-1.3
-6.84
-12.07
-16.82
-21.13
-25.27
-29.65
-34.66
-40.5
-47.12
-54.14
-60.85
-66.36
-69.76
-70.39
-68.01
-62.9
-55.74
-47.33
-38.41
-29.4
-20.49
-11.66
-2.92
5.66
13.88
21.47
28.18
33.77
38.09
41.06
42.76
43.43
43.46
43.24
43.14
43.38
43.99
44.88
45.86
46.7
47.16
47.04
46.21
44.57
42.18
39.19
35.84
32.36
28.93
25.56
22.17
18.62
14.75
10.57
6.13
1.58
-2.93
-7.32
-11.62
-15.92
-20.36
-25.08
-30.23
-35.95
-42.31
-49.26
-56.47
-63.34
-69.01
-72.65
-73.62
-71.76
-67.33
-60.96
-53.37
-45.11
-36.52
-27.75
-18.86
-9.99
-1.35
6.78
14.13
20.47
25.67
29.66
32.43
34.05
34.67
34.54
33.95
33.17
32.46
31.98
31.78
31.76
31.78
31.6
31.01
29.85
28.08
25.78
23.15
20.37
17.6
14.85
12.01
8.89
5.36
1.43
-2.71
-6.73
-10.34
-13.4
-15.99
-18.41
-21.01
-24.1
-27.92
-32.61
-38.14
-44.23
-50.29
-55.43
-58.68
-59.31
-57.05
-52.24
-45.66
-38.19
-30.5
-22.95
-15.58
-8.42
-1.57
4.69
10.03
14.23
17.31
19.44
20.91
21.91
22.53
22.73
22.41
21.59
20.47
19.4
18.72
18.61
18.95
19.35
19.29
18.37
16.5
13.87
10.87
7.93
5.34
3.22
1.56
0.2
-1.03
-2.4
-4.14
-6.41
-9.23
-12.48
-15.92
-19.33
-22.65
-25.98
-29.61
-33.9
-39.09
-45.18
-51.84
-58.34
-63.77
-67.17
-67.88
-65.67
-60.87
-54.15
-46.3
-37.98
-29.51
-20.97
-12.28
-3.42
5.52
14.25
22.35
29.44
35.19
39.48
42.3
43.82
44.27
43.86
42.79
41.28
39.55
37.83
36.31
35.02
33.8
32.42
30.69
28.6
26.35
24.22
22.42
20.99
19.73
18.35
16.56
14.23
11.4
8.28
5.1
2.04
-0.77
-3.36
-5.83
-8.3
-10.87
-13.54
-16.21
-18.82
-21.33
-23.87
-26.61
-29.76
-33.44
-37.7
-42.51
-47.72
-53.03
-57.97
-61.87
-64.01
-63.88
-61.34
-56.74
-50.75
-44.1
-37.31
-30.58
-23.82
-16.92
-9.82
-2.66
4.34
10.95
16.97
22.25
26.7
30.24
32.84
34.54
35.43
35.7
35.59
35.35
35.15
35.08
35.12
35.13
34.98
34.55
33.79
32.74
31.44
29.9
28.09
25.93
23.43
20.66
17.76
14.88
12.14
9.54
6.95
4.21
1.13
-2.38
-6.29
-10.44
-14.65
-18.78
-22.78
-26.78
-30.98
-35.63
-40.94
-47.07
-54.04
-61.64
-69.33
-76.3
-81.56
-84.22
-83.8
-80.34
-74.43
-66.94
-58.66
-50.15
-41.59
-32.92
-24.05
-15.01
-6.0
2.67
10.67
17.76
23.83
28.83
32.76
35.61
37.39
38.14
38.06
37.46
36.72
36.2
36.08
36.34
36.77
37.08
37.02
36.46
35.38
33.84
31.91
29.62
26.98
24.04
20.87
17.58
14.29
11.06
7.87
4.65
1.27
-2.38
-6.34
-10.6
-15.08
-19.66
-24.27
-28.81
-33.25
-37.63
-42.04
-46.68
-51.81
-57.73
-64.6
-72.27
-80.22
-87.46
-92.88
-95.47
-94.77
-90.86
-84.43
-76.34
-67.36
-57.92
-48.11
-37.78
-26.85
-15.43
-3.88
7.25
17.42
26.17
33.26
38.62
42.37
44.72
45.94
46.4
46.45
46.41
46.52
46.82
47.19
47.43
47.32
46.75
45.74
44.38
42.77
40.97
38.93
36.63
34.05
31.23
28.24
25.05
21.58
17.65
13.07
7.76
1.78
-4.64
-11.19
-17.61
-23.84
-29.99
-36.35
-43.28
-51.1
-59.98
-69.86
-80.39
-90.84
-100.23
-107.37
-111.23
-111.13
-107.04
-99.48
-89.38
-77.77
-65.41
-52.72
-39.78
-26.5
-12.87
0.98
14.72
27.9
40.0
50.58
59.35
66.2
71.28
74.9
77.5
79.47
81.17
82.77
84.32
85.8
87.07
87.93
88.19
87.64
86.14
83.75
80.67
77.19
73.59
69.96
66.21
62.14
57.6
52.51
46.98
41.14
35.09
28.81
22.25
15.34
8.08
0.61
-6.9
-14.26
-21.38
-28.26
-34.97
-41.71
-48.8
-56.64
-65.59
-75.66
-86.33
-96.47
-104.54
-109.08
-109.19
-104.82
-96.76
-86.19
-74.24
-61.62
-48.59
-35.17
-21.39
-7.49
6.09
18.84
30.31
40.2
48.37
54.78
59.44
62.47
64.03
64.41
64.02
63.3
62.64
62.34
62.41
62.7
62.88
62.58
61.55
59.69
57.07
53.89
50.38
46.77
43.18
39.61
35.86
31.65
26.64
20.64
13.72
6.21
-1.38
-8.56
-15.08
-20.98
-26.61
-32.55
-39.37
-47.46
-56.77
-66.81
-76.52
-84.57
-89.57
-90.48
-86.94
-79.38
-68.85
-56.71
-44.17
-31.94
-20.22
-8.79
2.6
13.97
25.02
35.2
43.93
50.85
55.87
59.19
61.17
62.16
62.43
62.18
61.63
60.97
60.4
60.07
60.03
60.15
60.17
59.73
58.49
56.33
53.27
49.53
45.45
41.28
37.14
32.97
28.57
23.71
18.26
12.21
5.74
-0.89
-7.4
-13.62
-19.49
-25.16
-30.96
-37.32
-44.74
-53.47
-63.42
-73.96
-83.96
-91.94
-96.57
-96.97
-93.03
-85.37
-75.08
-63.28
-50.86
-38.25
-25.6
-12.85
-0.01
12.8
25.23
36.82
47.12
55.71
62.35
67.01
69.81
71.03
71.02
70.15
68.83
67.45
66.33
65.66
65.42
65.35
65.1
64.31
62.76
60.44
57.51
54.26
51.0
47.94
45.13
42.45
39.66
36.53
32.93
28.88
24.52
20.02
15.48
10.93
6.3
1.53
-3.4
-8.48
-13.6
-18.66
-23.55
-28.23
-32.73
-37.2
-41.93
-47.27
-53.57
-61.02
-69.52
-78.49
-86.88
-93.32
-96.55
-95.75
-90.82
-82.45
-71.79
-60.08
-48.26
-36.78
-25.68
-14.82
-4.1
6.44
16.63
26.17
34.8
42.28
48.42
53.12
56.36
58.21
58.86
58.56
57.65
56.52
55.49
54.8
54.49
54.4
54.24
53.73
52.67
51.09
49.12
46.94
44.65
42.18
39.44
36.32
32.85
29.17
25.45
21.82
18.27
14.66
10.8
6.55
1.92
-3.0
-8.03
-12.96
-17.62
-21.96
-26.03
-30.05
-34.33
-39.2
-44.93
-51.53
-58.64
-65.52
-71.17
-74.55
-74.86
-71.86
-65.89
-57.75
-48.41
-38.67
-28.99
-19.53
-10.25
-1.2
7.43
15.34
22.22
27.9
32.32
35.54
37.68
38.89
39.36
39.34
39.1
38.88
38.83
38.98
39.24
39.5
39.57
39.27
38.45
37.03
35.07
32.78
30.51
28.52
26.94
25.61
24.21
22.41
19.99
17.01
13.7
10.34
7.09
3.93
0.7
-2.79
-6.7
-10.98
-15.46
-19.9
-24.11
-28.03
-31.76
-35.5
-39.49
-43.97
-49.11
-54.95
-61.29
-67.64
-73.17
-76.89
-77.88
-75.63
-70.24
-62.39
-53.08
-43.27
-33.63
-24.44
-15.7
-7.33
0.68
8.27
15.26
21.49
26.86
31.29
34.73
37.17
38.61
39.11
38.78
37.85
36.59
35.29
34.23
33.55
33.27
33.27
33.3
33.08
32.39
31.14
29.41
27.41
25.4
23.51
21.73
19.91
17.82
15.34
12.5
9.48
6.51
3.78
1.34
-0.89
-3.11
-5.52
-8.27
-11.39
-14.78
-18.25
-21.57
-24.68
-27.67
-30.79
-34.36
-38.67
-43.8
-49.59
-55.58
-61.04
-65.06
-66.83
-65.79
-61.86
-55.49
-47.47
-38.75
-30.04
-21.77
-14.02
-6.71
0.28
6.93
13.09
18.56
23.17
26.83
29.54
31.38
32.45
32.86
32.74
32.27
31.68
31.2
31.0
31.12
31.45
31.76
31.83
31.48
30.66
29.43
27.9
26.18
24.31
22.26
19.95
17.29
14.25
10.88
7.29
3.64
-0.0
-3.65
-7.44
-11.53
-16.0
-20.78
-25.63
-30.25
-34.38
-37.94
-41.01
-43.84
-46.79
-50.2
-54.31
-59.09
-64.12
-68.65
-71.66
-72.25
-69.88
-64.62
-57.08
-48.2
-38.89
-29.77
-21.1
-12.8
-4.74
3.14
10.73
17.75
23.86
28.73
32.21
34.28
35.11
34.94
34.06
32.77
31.33
30.0
28.95
28.27
27.92
27.75
27.52
26.98
26.01
24.54
22.67
20.54
18.27
15.94
13.54
11.0
8.26
5.31
2.21
-0.94
-4.03
-6.99
-9.81
-12.58
-15.41
-18.41
-21.62
-24.98
-28.33
-31.55
-34.61
-37.65
-40.95
-44.84
-49.52
-54.9
-60.57
-65.77
-69.58
-71.14
-69.93
-65.89
-59.46
-51.39
-42.53
-33.53
-24.76
-16.28
-8.03
0.05
7.89
15.36
22.25
28.37
33.57
37.74
40.8
42.75
43.69
43.77
43.26
42.39
41.35
40.28
39.24
38.27
37.34
36.41
35.36
