44.36
43.76
42.93
41.83
40.4
38.59
36.38
33.87
31.17
28.39
25.57
22.7
19.74
16.64
13.35
9.77
5.81
1.38
-3.47
-8.57
-13.65
-18.46
-22.88
-26.95
-30.85
-34.84
-39.18
-44.11
-49.8
-56.22
-62.98
-69.32
-74.18
-76.49
-75.53
-71.23
-64.16
-55.27
-45.58
-35.86
-26.45
-17.45
-8.76
-0.32
7.86
15.65
22.88
29.38
34.99
39.58
43.09
45.52
46.91
47.39
47.15
46.43
45.56
44.85
44.54
44.67
45.08
45.49
45.57
45.07
43.9
42.17
40.04
37.76
35.48
33.29
31.13
28.85
26.23
23.1
19.37
15.14
10.64
6.15
1.93
-1.92
-5.47
-8.95
-12.63
-16.74
-21.34
-26.33
-31.54
-36.74
-41.74
-46.49
-51.04
-55.51
-60.14
-65.19
-70.86
-77.17
-83.77
-89.9
-94.44
-96.23
-94.45
-88.93
-80.22
-69.44
-57.84
-46.43
-35.73
-25.78
-16.29
-6.95
2.42
11.71
20.65
28.88
36.08
42.03
46.6
49.78
51.59
52.18
51.81
50.85
49.72
48.83
48.39
48.39
48.6
48.69
48.33
47.35
45.79
43.83
41.74
39.73
37.9
36.14
34.24
32.0
29.3
26.17
22.79
19.38
16.13
13.05
9.98
6.71
2.99
-1.28
-6.05
-11.08
-16.08
-20.75
-24.96
-28.77
-32.49
-36.57
-41.47
-47.54
-54.77
-62.68
-70.32
-76.42
-79.72
-79.42
-75.38
-68.25
-59.13
-49.17
-39.23
-29.67
-20.48
-11.51
-2.69
5.88
13.99
21.42
27.99
33.54
37.94
41.07
42.89
43.47
43.11
42.2
41.18
40.4
40.03
40.08
40.4
40.76
40.9
40.63
39.8
38.35
36.29
33.7
30.69
27.39
23.95
20.45
16.93
13.36
9.7
5.85
1.8
-2.44
-6.79
-11.13
-15.35
-19.37
-23.19
-26.86
-30.52
-34.35
-38.63
-43.62
-49.53
-56.22
-63.14
-69.28
-73.38
-74.37
-71.72
-65.7
-57.18
-47.32
-37.09
-27.02
-17.28
-7.8
1.44
10.27
18.35
25.34
30.96
35.08
37.76
39.13
39.43
38.98
38.11
37.13
36.28
35.68
35.35
35.22
35.16
35.06
34.79
34.26
33.38
32.08
30.36
28.22
25.77
23.12
20.43
17.74
14.99
12.04
8.68
4.77
0.38
-4.34
-9.09
-13.63
-17.85
-21.79
-25.61
-29.57
-33.96
-39.07
-45.1
-52.12
-59.88
-67.68
-74.4
-78.77
-79.76
-76.95
-70.65
-61.79
-51.49
-40.72
-30.04
-19.66
-9.62
0.05
9.21
17.67
25.23
31.77
37.19
41.39
44.28
45.81
46.1
45.42
44.17
42.78
41.57
40.73
40.26
40.05
39.94
39.77
39.39
38.65
37.43
35.61
33.17
30.2
26.92
23.62
20.54
17.76
15.16
12.44
9.26
5.39
0.83
-4.12
-9.1
-13.78
-18.06
-22.11
-26.25
-30.85
-36.14
-42.26
-49.21
-56.82
-64.67
-71.98
-77.68
-80.64
-80.03
-75.66
-68.08
-58.34
-47.65
-36.93
-26.67
-16.98
-7.71
1.28
10.05
18.49
26.33
33.26
38.93
43.17
45.92
47.41
47.94
47.9
47.61
47.33
47.18
47.19
47.29
47.31
47.08
46.44
45.33
43.75
41.79
39.54
37.02
34.22
31.14
27.79
24.26
20.6
16.87
13.0
8.91
4.52
-0.19
-5.08
-9.97
-14.61
-18.9
-22.85
-26.66
-30.66
-35.19
-40.57
-46.98
-54.4
-62.53
-70.71
-77.91
-82.93
-84.72
-82.69
-76.93
-68.21
-57.68
-46.47
-35.4
-24.76
-14.53
-4.55
5.24
14.75
23.73
31.88
38.91
44.57
48.71
51.3
52.45
52.43
51.61
50.42
49.2
48.18
47.43
46.88
46.37
45.78
45.01
43.97
42.66
41.02
38.98
36.52
33.63
30.42
27.08
23.84
20.82
18.03
15.3
12.36
8.96
4.9
0.16
-5.1
-10.62
-16.07
-21.18
-25.86
-30.19
-34.4
-38.89
-44.05
-50.21
-57.43
-65.42
-73.36
-80.07
-84.25
-84.91
-81.66
-74.84
-65.41
-54.56
-43.33
-32.38
-21.95
-12.0
-2.4
6.89
15.82
24.2
31.82
38.45
43.83
47.75
50.11
50.98
50.65
49.6
48.33
47.23
46.48
46.06
45.83
45.64
45.35
44.87
44.08
42.86
41.13
38.94
36.46
33.88
31.31
28.76
26.09
23.13
19.82
16.19
12.33
8.33
4.19
-0.15
-4.75
-9.62
-14.7
-19.8
-24.79
-29.56
-34.14
-38.77
-43.79
-49.6
-56.39
-63.93
-71.43
-77.63
-81.23
-81.25
-77.44
-70.33
-60.98
-50.57
-39.99
-29.73
-19.85
-10.31
-1.06
7.82
16.24
24.06
31.17
37.39
42.51
46.26
48.51
49.32
48.98
47.94
46.71
45.64
44.89
44.47
44.22
43.97
43.53
42.79
41.69
40.25
38.54
36.63
34.57
32.29
29.71
26.72
23.34
19.7
16.0
12.48
9.18
6.01
2.73
-0.95
-5.17
-9.84
-14.74
-19.57
-24.11
-28.36
-32.47
-36.76
-41.53
-47.05
-53.42
-60.46
-67.64
-74.04
-78.58
-80.23
-78.37
-73.03
-64.85
-54.88
-44.24
-33.77
-23.88
-14.58
-5.68
3.01
11.5
19.59
26.97
33.3
38.34
42.06
44.53
45.96
46.57
46.56
46.13
45.47
44.77
44.15
43.64
43.15
42.51
41.57
40.25
38.58
36.7
34.72
32.66
30.47
28.04
25.26
22.12
18.73
15.21
11.69
8.21
4.72
1.12
-2.75
-6.95
-11.49
-16.27
-21.13
-25.84
-30.29
-34.46
-38.53
-42.83
-47.78
-53.68
-60.6
-68.16
-75.54
-81.64
-85.31
-85.73
-82.64
-76.4
-67.86
-58.02
-47.78
-37.67
-27.91
-18.53
-9.54
-1.04
6.79
13.76
19.74
24.65
28.52
31.38
33.28
34.35
34.77
34.81
34.72
34.73
34.95
35.34
35.77
36.09
36.16
35.86
35.16
34.1
32.74
31.21
29.65
28.15
26.7
25.21
23.49
21.39
18.86
16.01
12.99
9.93
6.84
3.6
0.05
-3.87
-8.07
-12.34
-16.5
-20.45
-24.29
-28.26
-32.62
-37.61
-43.3
-49.62
-56.24
-62.57
-67.76
-70.87
-71.14
-68.28
-62.6
-54.86
-46.05
-37.02
-28.26
-19.89
-11.79
-3.83
4.03
11.68
18.89
25.37
30.84
35.06
37.87
39.26
39.36
38.44
36.85
34.98
33.14
31.47
29.99
28.53
26.92
25.0
22.7
20.07
17.17
14.02
10.61
6.94
3.03
-0.94
-4.81
-8.37
-11.57
-14.48
-17.26
-20.12
-23.22
-26.61
-30.19
-33.8
-37.23
-40.27
-42.75
-44.43
-45.09
-44.64
-43.19
-41.15
-38.98
-36.93
-34.83
-32.1
-28.05
-22.32
-15.07
-6.94
1.41
9.69
18.13
27.28
37.55
48.91
60.82
72.46
83.04
91.92
98.64
102.81
104.12
102.44
98.04
91.58
84.01
76.25
68.95
62.3
56.13
50.19
44.23
38.22
32.26
26.49
21.01
15.87
11.1
6.71
2.76
-0.7
-3.68
-6.28
-8.69
-11.17
-13.96
-17.17
-20.77
-24.53
-28.21
-31.64
-34.85
-38.1
-41.82
-46.36
-51.91
-58.35
-65.28
-72.01
-77.7
-81.54
-82.87
-81.38
-77.23
-70.97
-63.37
-55.19
-46.96
-38.93
-31.08
-23.35
-15.74
-8.38
-1.55
4.52
9.63
13.69
16.7
18.74
19.94
20.47
20.55
20.42
20.34
20.52
21.08
22.0
23.12
24.17
24.87
25.01
24.58
23.68
22.5
21.25
20.05
18.95
17.91
16.83
15.58
13.98
11.91
9.34
6.38
3.24
0.12
-2.89
-5.93
-9.27
-13.28
-18.26
-24.4
-31.65
-39.7
-47.9
-55.31
-60.83
-63.53
-62.93
-59.23
-53.2
-45.92
-38.37
-31.07
-24.13
-17.35
-10.49
-3.46
3.62
10.47
16.82
22.37
26.92
30.33
32.56
33.64
33.73
33.09
32.06
31.02
30.31
30.14
30.53
31.19
31.63
31.31
29.84
27.19
23.71
19.96
16.51
13.65
11.3
9.08
6.52
3.23
-0.86
-5.52
-10.35
-14.93
-18.98
-22.54
-25.89
-29.52
-33.87
-39.28
-45.77
-53.0
-60.24
-66.47
-70.66
-71.98
-70.07
-65.13
-57.81
-48.98
-39.46
-29.84
-20.49
-11.59
-3.19
4.7
12.15
19.24
26.01
32.32
37.84
42.19
45.09
46.49
46.63
45.92
44.84
43.79
43.03
42.62
42.52
42.53
42.35
41.65
40.2
37.96
35.11
31.91
28.66
25.49
22.34
19.02
15.33
11.16
6.5
1.52
-3.58
-8.61
-13.47
-18.18
-22.92
-27.98
-33.69
-40.27
-47.65
-55.33
-62.38
-67.72
-70.36
-69.75
-66.0
-59.7
-51.72
-42.87
-33.69
-24.46
-15.21
-5.98
3.14
11.95
20.21
27.65
34.02
39.09
42.75
45.01
46.01
46.06
45.49
44.6
43.59
42.57
41.56
40.55
39.48
38.27
36.81
35.02
32.89
30.48
27.91
25.3
22.65
19.93
16.99
13.72
10.09
6.1
1.81
-2.71
-7.42
-12.33
-17.49
-22.99
-28.98
-35.51
-42.4
-49.08
-54.67
-58.12
-58.62
-55.86
-50.21
-42.57
-33.97
-25.28
-16.95
-9.01
-1.31
6.26
13.59
20.37
26.19
30.73
33.91
35.83
36.8
37.15
37.17
37.04
36.88
36.75
36.66
36.58
36.4
35.94
35.01
33.48
31.4
28.94
26.31
23.72
21.2
18.66
15.95
12.93
9.54
5.8
1.82
-2.37
-6.74
-11.31
-16.17
-21.47
-27.41
-34.2
-41.87
-50.11
-58.13
-64.75
-68.77
-69.3
-66.19
-60.03
-51.85
-42.78
-33.55
-24.47
-15.51
-6.56
2.32
10.88
18.79
25.77
31.65
36.32
39.72
41.76
42.5
42.12
40.97
39.47
38.0
36.76
35.8
35.1
34.57
34.06
33.34
32.16
30.26
27.57
24.29
20.77
17.4
14.4
11.73
9.12
6.25
2.91
-0.91
-5.04
-9.27
-13.37
-17.26
-20.89
-24.31
-27.67
-31.19
-35.2
-40.01
-45.8
-52.41
-59.28
-65.49
-69.99
-71.89
-70.77
-66.75
-60.43
-52.6
-43.96
-34.95
-25.72
-16.26
-6.58
3.14
12.57
21.35
29.15
35.76
41.09
45.14
47.91
49.44
49.84
49.3
48.17
46.82
45.62
44.7
44.01
43.3
42.25
40.65
38.41
35.71
32.77
29.87
27.13
24.52
21.82
18.76
15.12
10.82
5.98
0.83
-4.34
-9.28
-13.86
-18.14
-22.37
-26.89
-32.12
-38.24
-45.15
-52.28
-58.7
-63.31
-65.2
-63.91
-59.54
-52.75
-44.43
-35.45
-26.39
-17.47
-8.66
0.1
8.75
17.06
24.66
31.18
36.35
40.03
42.28
43.26
43.25
42.57
41.55
40.49
39.59
38.96
38.59
38.36
38.09
37.59
36.66
35.25
33.39
31.2
28.79
26.2
23.41
20.34
16.97
13.33
9.56
5.71
1.77
-2.36
-6.8
-11.51
-16.3
-20.85
-24.93
-28.48
-31.71
-35.0
-38.78
-43.35
-48.79
-55.0
-61.63
-68.12
-73.68
-77.46
-78.7
-77.02
-72.52
-65.75
-57.51
-48.53
-39.26
-29.86
-20.37
-10.78
-1.21
8.11
16.88
24.86
31.8
37.51
41.83
44.67
46.07
46.23
45.49
44.29
43.06
42.14
41.71
41.78
42.2
42.74
43.14
43.21
42.89
42.19
41.19
39.95
38.45
36.6
34.24
31.33
27.92
24.21
20.46
16.87
13.44
10.01
6.33
2.19
-2.48
-7.53
-12.69
-17.74
-22.49
-26.95
-31.21
-35.49
-40.09
-45.34
-51.48
-58.53
-66.04
-73.12
-78.55
-81.16
-80.26
-75.87
-68.67
-59.67
-49.86
-39.85
-29.89
-20.0
-10.2
-0.61
8.56
17.07
24.74
31.45
37.08
41.48
44.54
46.21
46.62
46.1
45.05
43.95
43.18
42.97
43.35
44.14
45.02
45.59
45.54
44.73
43.17
41.08
38.72
36.26
33.83
31.38
28.84
26.1
23.17
20.12
17.08
14.17
11.4
8.66
5.77
2.52
-1.17
-5.2
-9.36
-13.36
-17.0
-20.16
-22.91
-25.43
-28.01
-30.98
-34.62
-39.03
-43.94
-48.75
-52.57
-54.45
-53.7
-50.08
-43.78
-35.41
-25.73
-15.52
-5.47
3.91
12.37
19.97
27.12
34.34
41.96
49.79
57.07
62.62
65.32
64.54
60.47
54.2
47.57
42.86
42.29
47.35
58.11
72.76
87.71
98.59
101.81
95.99
82.62
65.41
48.66
35.41
26.45
20.52
15.45
9.54
2.22
-6.11
-14.96
-24.5
-35.61
-49.25
-65.85
-84.92
-105.6
-127.22
-149.25
-170.51
-188.25
-197.92
-194.68
-175.86
-142.97
-101.99
-61.25
-28.06
-5.79
6.78
13.91
19.95
27.15
35.15
42.1
46.39
47.74
47.06
45.63
44.19
42.72
40.76
37.96
34.48
30.85
27.77
25.63
24.33
23.37
22.1
19.88
16.35
11.52
5.78
-0.1
-5.2
-8.86
-10.95
-12.16
-13.68
-16.72
-21.68
-27.82
-33.24
-35.72
-33.6
-26.64
-16.19
-4.76
4.89
10.71
11.97
9.45
5.11
1.48
0.94
5.0
13.77
25.73
37.94
46.76
48.99
43.05
29.64
11.67
-6.67
-21.32
-29.65
-31.1
-27.07
-19.98
-12.36
-6.04
-1.96
-0.29
-0.86
-3.32
-7.21
-11.77
-16.12
-19.33
-20.81
-20.39
-18.34
-15.07
-10.94
-6.26
-1.4
3.07
6.44
8.12
8.0
6.61
4.91
3.78
3.64
4.14
4.45
3.72
1.48
-2.14
-6.65
-11.52
-16.47
-21.59
-27.18
-33.5
-40.55
-47.9
-54.74
-60.08
-63.1
-63.33
-60.9
-56.36
-50.54
-44.2
-37.84
-31.59
-25.35
-18.99
-12.5
-6.12
-0.19
4.9
8.97
11.97
14.03
15.32
16.01
16.25
16.15
15.91
15.69
15.61
15.71
15.92
16.05
15.9
15.26
14.02
12.2
9.87
7.23
4.44
1.63
-1.15
-3.98
-6.93
-10.09
-13.43
-16.88
-20.33
-23.76
-27.27
-31.03
-35.27
-40.09
-45.47
-51.14
-56.58
-61.04
-63.72
-63.91
-61.22
-55.79
-48.19
-39.33
-30.09
-21.12
-12.66
-4.59
3.34
11.33
19.29
26.94
33.8
39.38
43.35
45.58
46.24
45.65
44.23
42.41
40.56
38.91
37.6
36.59
35.76
34.91
33.8
32.3
30.36
28.07
25.52
22.75
19.7
16.27
12.37
8.01
3.33
-1.49
-6.27
-10.91
-15.43
-19.88
-24.42
-29.23
-34.52
-40.42
-46.88
-53.56
-59.73
-64.48
-66.91
-66.45
-63.05
-57.13
-49.44
-40.76
-31.73
-22.69
-13.78
-5.03
3.59
12.03
20.19
27.9
34.91
40.96
45.75
49.11
51.03
51.68
51.4
50.6
49.64
48.79
48.21
47.92
47.85
47.85
47.73
47.26
46.26
44.64
42.38
39.56
36.31
32.78
29.08
25.29
21.49
17.69
13.93
10.14
6.27
2.21
-2.13
-6.72
-11.45
-16.16
-20.68
-24.99
-29.22
-33.61
-38.46
-44.01
-50.35
-57.34
-64.57
-71.31
-76.63
-79.57
-79.45
-76.11
-69.92
-61.63
-52.11
-42.02
-31.76
-21.55
-11.53
-1.81
7.46
16.19
24.33
31.83
38.58
44.41
49.07
52.41
54.4
55.18
55.01
54.25
53.26
52.38
51.83
51.68
51.8
51.88
51.56
50.55
48.72
46.19
43.21
40.08
37.05
34.19
31.41
28.55
25.46
22.1
18.63
15.21
12.03
9.08
6.24
3.21
-0.26
-4.28
-8.8
-13.53
-18.17
-22.41
-26.17
-29.59
-33.0
-36.81
-41.4
-46.98
-53.48
-60.53
-67.45
-73.3
-77.06
-77.89
-75.41
-69.82
-61.83
-52.47
-42.64
-32.95
-23.58
-14.48
-5.55
3.16
11.52
19.38
26.59
33.09
38.74
43.34
46.66
48.54
49.03
48.44
47.25
45.97
44.95
44.37
44.21
44.32
44.51
44.54
44.21
43.36
41.98
40.18
38.17
36.2
34.35
32.56
30.61
28.25
25.34
21.91
18.19
14.46
10.93
7.68
4.58
1.46
-1.89
-5.56
-9.53
-13.7
-17.93
-22.08
-26.07
-29.81
-33.3
-36.66
-40.17
-44.23
-49.2
-55.16
-61.73
-67.97
-72.63
-74.56
-73.18
-68.6
-61.59
-53.2
-44.33
-35.49
-26.74
-17.95
-9.0
0.05
8.95
17.37
24.99
31.57
36.93
40.98
43.69
45.12
45.43
44.91
43.91
42.79
41.88
41.39
41.35
41.58
41.79
41.66
40.93
39.56
37.7
35.65
33.68
31.98
30.5
29.1
27.56
25.69
23.39
20.63
17.44
13.91
10.14
6.25
2.32
-1.6
-5.48
-9.31
-13.07
-16.71
-20.19
-23.49
-26.68
-29.94
-33.49
-37.55
-42.31
-47.79
-53.78
-59.81
-65.16
-68.99
-70.54
-69.34
-65.37
-59.08
-51.2
-42.5
-33.58
-24.75
-16.08
-7.56
0.85
8.99
16.63
23.49
29.28
33.81
37.06
39.17
40.35
40.87
40.94
40.7
40.23
39.65
39.12
38.83
38.9
39.28
39.74
39.94
39.58
38.52
36.84
34.68
32.22
29.5
26.46
23.08
19.41
15.58
11.75
7.99
4.3
0.58
-3.22
-7.06
-10.8
-14.35
-17.7
-20.99
-24.5
-28.49
-33.09
-38.2
-43.51
-48.46
-52.42
-54.73
-54.95
-52.92
-48.86
-43.21
-36.58
-29.48
-22.26
-15.04
-7.89
-0.86
5.85
11.92
17.01
20.86
23.43
24.85
25.36
25.28
24.86
24.29
23.7
23.2
22.86
22.71
22.72
22.77
22.66
22.2
21.3
19.93
18.13
16.01
13.64
11.07
8.34
5.42
2.27
-1.13
-4.77
-8.55
-12.35
-16.05
-19.6
-23.04
-26.57
-30.44
-34.88
-40.01
-45.69
-51.56
-57.03
-61.36
-63.89
-64.11
-61.84
-57.25
-50.79
-43.06
-34.64
-25.98
-17.4
-9.04
-0.99
6.67
13.82
20.33
26.03
30.78
34.48
37.08
38.61
39.18
39.03
38.47
37.74
37.04
36.46
36.05
35.77
35.59
35.43
35.15
34.59
33.63
32.17
30.27
28.0
25.48
22.76
19.85
16.71
13.37
9.9
6.37
2.81
-0.84
-4.69
-8.84
-13.3
-17.97
-22.66
-27.19
-31.43
-35.43
-39.42
-43.74
-48.74
-54.57
-61.1
-67.79
-73.82
-78.28
-80.36
-79.63
-76.08
-70.11
-62.4
-53.63
-44.37
-34.95
-25.55
-16.2
-6.97
2.03
10.63
18.57
25.64
31.64
36.5
40.23
42.92
44.72
45.79
46.29
46.39
46.26
46.07
45.94
45.91
45.88
45.72
45.26
44.42
43.18
41.6
39.69
37.47
34.93
32.12
29.13
26.06
23.0
19.98
16.94
13.77
10.33
6.52
2.27
-2.37
-7.28
-12.28
-17.17
-21.86
-26.38
-30.89
-35.63
-40.89
-46.91
-53.78
-61.37
-69.18
-76.32
-81.69
-84.23
-83.32
-78.98
-71.87
-62.99
-53.35
-43.61
-34.03
-24.57
-15.11
-5.64
3.69
12.62
20.87
28.17
34.27
39.03
42.38
44.38
45.27
45.38
45.09
44.69
44.37
44.18
44.07
43.97
43.8
43.47
42.9
42.0
40.73
39.08
37.09
34.87
32.5
30.03
27.46
24.71
21.69
18.31
14.52
10.36
5.94
1.37
-3.21
-7.71
-12.13
-16.51
-20.98
-25.71
-30.91
-36.75
-43.25
-50.19
-56.95
-62.62
-66.19
-66.88
-64.36
-58.93
-51.33
-42.49
-33.16
-23.78
-14.47
-5.22
3.92
12.72
20.74
27.51
32.71
36.28
38.43
39.54
40.01
40.14
40.08
39.91
39.68
39.5
39.49
39.7
40.04
40.28
40.14
39.41
37.97
35.92
33.42
30.63
27.67
24.56
21.34
18.0
14.61
11.22
7.86
4.5
0.97
-2.88
-7.21
-12.0
-17.06
-22.15
-27.01
-31.57
-35.95
-40.47
-45.56
-51.57
-58.64
-66.51
-74.45
-81.35
-85.98
-87.38
-85.12
-79.54
-71.46
-61.93
-51.78
-41.47
-31.03
-20.36
-9.46
1.49
12.15
22.13
31.1
38.87
45.31
50.34
53.91
56.07
56.96
56.88
56.21
55.29
54.43
53.74
53.25
52.86
52.43
51.8
50.8
49.38
47.57
45.51
43.37
41.23
39.08
36.73
34.01
30.84
27.28
23.54
19.83
16.24
12.71
9.03
5.02
0.59
-4.18
-9.15
-14.14
-19.01
-23.76
-28.47
-33.29
-38.49
-44.29
-50.84
-58.06
-65.47
-72.24
-77.34
-79.82
-79.15
-75.33
-68.89
-60.63
-51.32
-41.55
-31.62
-21.63
-11.61
-1.66
8.02
17.11
25.27
32.16
37.56
41.37
43.67
44.7
44.8
44.33
43.63
42.96
42.52
42.36
42.46
42.72
42.98
43.04
42.73
41.95
40.64
38.8
36.53
33.94
31.12
28.11
24.96
21.7
18.37
15.02
11.59
7.96
3.98
-0.48
-5.4
-10.59
-15.77
-20.68
-25.22
-29.51
-33.84
-38.6
-44.08
-50.39
-57.27
-64.08
-69.89
-73.64
-74.54
-72.24
-66.97
-59.41
-50.38
-40.58
-30.5
-20.38
-10.4
-0.8
8.12
16.09
22.88
28.42
32.73
35.91
38.12
39.52
40.32
40.65
40.62
40.31
39.78
39.14
38.52
37.98
37.47
36.84
35.82
34.24
32.01
29.25
26.22
23.2
20.39
17.82
15.33
12.63
9.44
5.6
1.17
-3.57
-8.33
-12.94
-17.45
-22.11
-27.18
-32.84
-39.12
-45.96
-53.17
-60.51
-67.48
-73.33
-77.13
-78.04
-75.62
-70.03
-61.97
-52.45
-42.41
-32.42
-22.68
-13.12
-3.66
5.65
14.58
22.81
30.09
36.27
41.35
45.39
48.45
50.6
51.87
52.36
52.2
51.58
50.69
49.69
48.67
47.65
46.6
45.43
44.04
42.29
40.09
37.39
34.29
31.0
27.75
24.81
22.26
20.02
17.84
15.4
12.45
8.88
4.78
0.36
-4.13
-8.49
-12.63
-16.64
-20.68
-25.06
-30.08
-36.01
-42.95
-50.69
-58.64
-65.86
-71.31
-74.04
-73.54
-69.87
-63.61
-55.64
-46.81
-37.77
-28.81
-20.0
-11.32
-2.75
5.59
13.52
20.81
27.24
32.62
36.81
39.76
41.53
42.29
42.35
42.02
41.57
41.13
40.7
40.24
39.65
38.89
37.94
36.79
35.43
33.82
31.97
29.91
27.71
25.44
23.15
20.83
18.48
16.04
13.46
10.64
7.46
3.79
-0.39
-4.97
-9.7
-14.29
-18.53
-22.37
-25.97
-29.6
-33.53
-38.02
-43.18
-48.99
-55.19
-61.26
-66.38
-69.55
-69.91
-67.02
-61.07
-52.84
-43.41
-33.77
-24.51
-15.79
-7.47
0.62
8.48
15.89
22.5
28.01
32.29
35.4
37.5
38.79
39.47
39.63
39.41
38.92
38.33
37.8
37.44
37.19
36.93
36.46
35.62
34.35
32.76
30.94
28.97
26.78
24.26
21.3
17.98
14.52
11.2
8.23
5.61
3.06
0.27
-3.0
-6.76
-10.79
-14.79
-18.48
-21.8
-24.84
-27.82
-31.0
-34.64
-38.9
-43.84
-49.3
-54.87
-59.87
-63.52
-65.09
-64.15
-60.71
-55.14
-48.05
-40.1
-31.8
-23.48
-15.33
-7.42
0.21
7.48
14.26
20.33
25.48
29.47
32.21
33.8
34.51
34.69
34.6
34.39
34.05
33.59
33.06
32.63
32.5
32.73
33.14
33.41
33.17
32.18
30.46
28.21
25.72
23.2
20.72
18.26
15.74
13.17
10.6
8.1
5.66
3.11
0.26
-3.1
-6.97
-11.18
-15.42
-19.4
-22.95
-26.11
-29.09
-32.18
-35.71
-39.94
-44.97
-50.66
-56.59
-61.99
-65.93
-67.55
-66.39
-62.52
-56.51
-49.16
-41.2
-33.11
-25.04
-17.0
-9.0
-1.12
6.47
13.62
20.23
26.19
31.37
35.57
38.59
40.32
40.81
40.33
39.24
37.94
36.73
35.77
35.1
34.65
34.25
33.75
33.02
31.99
30.69
29.21
27.62
25.96
24.17
22.18
19.95
17.49
14.92
12.31
9.71
7.09
4.37
1.48
-1.59
-4.81
-8.12
-11.5
-14.95
-18.49
-22.14
-25.87
-29.67
-33.54
-37.6
-41.97
-46.78
-52.03
-57.4
-62.34
-66.03
-67.67
-66.71
-63.07
-57.14
-49.64
-41.37
-32.98
-24.8
-16.91
-9.26
-1.84
5.28
11.89
17.78
22.75
26.7
29.64
31.66
32.92
33.54
33.68
33.48
33.13
32.84
32.79
33.07
33.58
34.08
34.24
33.86
32.88
31.46
29.83
28.22
26.69
25.15
23.42
21.28
18.65
15.59
12.33
9.11
6.12
3.39
0.76
-2.04
-5.22
-8.79
-12.64
-16.54
-20.27
-23.79
-27.16
-30.56
-34.14
-38.03
-42.3
-47.04
-52.23
-57.73
-63.1
-67.62
-70.43
-70.76
-68.28
-63.17
-56.13
-48.0
-39.51
-31.05
-22.67
-14.27
-5.86
2.37
10.06
16.86
22.6
27.25
30.97
33.9
36.12
37.64
38.47
38.67
38.45
38.02
37.61
37.31
37.09
36.8
36.26
35.35
34.04
32.41
30.57
28.65
26.68
24.61
22.32
19.75
16.86
13.75
10.62
7.62
4.84
2.17
-0.61
-3.71
-7.26
-11.17
-15.22
-19.14
-22.76
-26.04
-29.16
-32.42
-36.18
-40.75
-46.28
-52.65
-59.35
-65.57
-70.3
-72.65
-72.08
-68.61
-62.78
-55.39
-47.24
-38.92
-30.67
-22.51
-14.4
-6.28
1.73
9.4
16.45
22.58
27.59
31.41
34.15
35.96
37.05
37.55
37.58
37.26
36.73
36.19
35.82
35.69
35.69
35.6
35.19
34.35
33.08
31.5
29.73
27.83
25.81
23.68
21.49
19.3
17.16
15.02
12.7
10.0
6.78
3.02
-1.15
-5.54
-9.92
-14.2
-18.42
-22.74
-27.42
-32.69
-38.72
-45.4
-52.39
-59.04
-64.53
-68.05
-69.06
-67.35
-63.2
-57.13
-49.79
-41.72
-33.2
-24.39
-15.34
-6.25
2.56
10.61
17.48
22.94
26.99
29.85
31.77
32.93
33.46
33.41
32.92
32.22
31.58
31.24
31.21
31.34
31.36
31.0
30.15
28.86
27.28
25.59
23.99
22.54
21.21
19.82
18.09
15.69
12.43
8.3
3.53
-1.5
-6.45
-11.11
-15.54
-19.98
-24.76
-30.2
-36.54
-43.8
-51.67
-59.55
-66.5
-71.49
-73.68
-72.67
-68.64
-62.19
-54.17
-45.33
-36.22
-27.1
-18.01
-8.96
0.08
8.97
17.51
25.3
31.97
37.2
40.89
43.19
44.43
45.01
45.28
45.43
45.51
45.48
45.28
44.9
44.38
43.77
43.14
42.42
41.52
40.27
38.54
36.28
33.56
30.52
27.36
24.21
21.07
17.86
14.4
10.52
6.15
1.35
-3.67
-8.66
-13.42
-17.93
-22.41
-27.17
-32.58
-38.87
-46.09
-54.06
-62.35
-70.31
-77.09
-81.77
-83.57
-82.11
-77.45
-70.13
-60.9
-50.53
-39.59
-28.45
-17.33
-6.39
4.18
14.19
23.47
31.89
39.3
45.58
50.58
54.18
56.34
57.11
56.73
55.59
54.15
52.88
52.08
51.8
51.84
51.87
51.53
50.6
49.09
47.13
44.88
42.43
39.75
36.75
33.42
29.83
26.16
22.56
19.1
15.65
11.99
7.89
3.3
-1.68
-6.81
-11.82
-16.59
-21.16
-25.72
-30.53
-35.86
-41.95
-48.9
-56.57
-64.46
-71.63
-76.95
-79.34
-78.22
-73.65
-66.37
-57.44
-47.82
-38.12
-28.48
-18.8
-8.9
1.19
11.24
20.87
29.68
37.38
43.79
48.84
52.55
54.96
56.19
56.44
56.04
55.35
54.72
54.31
54.13
53.92
53.43
52.42
50.84
48.79
46.43
43.91
41.3
38.58
35.68
32.54
29.15
25.55
21.85
18.16
14.55
11.0
7.39
3.58
-0.56
-5.05
-9.74
-14.42
-18.86
-23.01
-26.88
-30.67
-34.59
-38.85
-43.68
-49.2
-55.37
-61.82
-67.77
-72.23
-74.2
-73.06
-68.81
-62.02
-53.62
-44.51
-35.29
-26.17
-17.11
-7.99
1.16
10.15
18.69
26.44
33.1
38.49
42.5
45.15
46.61
47.08
46.88
46.32
45.68
45.19
44.96
44.97
45.08
45.08
44.76
43.96
42.63
40.85
38.82
36.76
34.8
32.93
30.96
28.66
25.86
22.56
18.9
15.14
11.49
8.05
4.79
1.6
-1.64
-5.04
-8.61
-12.38
-16.33
-20.44
-24.6
-28.74
-32.87
-37.08
-41.65
-46.8
-52.56
-58.56
-64.0
-67.89
-69.34
-67.86
-63.56
-56.98
-48.92
-40.1
-31.06
-22.14
-13.54
-5.4
2.17
9.1
15.32
20.77
25.37
28.99
31.52
32.96
33.41
33.1
32.31
31.32
30.34
29.52
28.91
28.48
28.16
27.87
27.51
27.03
26.34
25.37
24.05
22.35
20.31
18.05
15.72
13.41
11.11
8.69
5.98
2.84
-0.73
-4.6
-8.48
-12.07
-15.2
-17.94
-20.51
-23.3
-26.64
-30.74
-35.63
-41.14
-46.88
-52.23
-56.4
-58.56
-58.08
-54.71
-48.75
-40.91
-32.16
-23.4
-15.17
-7.67
-0.77
5.75
11.98
17.84
23.06
27.31
30.37
32.19
32.96
32.98
32.57
31.99
31.35
30.76
30.25
29.89
29.71
29.63
29.49
29.08
