-90.41
-97.65
-100.34
-97.49
-89.19
-76.54
-61.28
-45.22
-29.68
-15.27
-2.05
10.23
21.69
32.24
41.51
49.08
54.66
58.17
59.81
59.94
59.01
57.46
55.61
53.75
52.07
50.74
49.84
49.39
49.32
49.43
49.46
49.06
47.89
45.7
42.4
38.1
33.07
27.67
22.2
16.8
11.44
5.97
0.23
-5.84
-12.2
-18.7
-25.12
-31.3
-37.14
-42.67
-48.0
-53.38
-59.15
-65.68
-73.27
-81.91
-91.14
-99.87
-106.53
-109.48
-107.47
-100.14
-88.18
-73.13
-56.79
-40.67
-25.63
-11.81
1.03
13.16
24.56
34.83
43.42
49.81
53.83
55.74
56.09
55.54
54.62
53.59
52.46
51.18
49.76
48.38
47.23
46.39
45.7
44.76
43.1
40.42
36.72
32.26
27.43
22.61
18.03
13.74
9.64
5.53
1.14
-3.81
-9.52
-15.98
-22.96
-30.05
-36.86
-43.17
-49.09
-54.99
-61.4
-68.82
-77.6
-87.88
-99.38
-111.27
-122.16
-130.27
-133.85
-131.74
-123.79
-110.89
-94.73
-77.16
-59.65
-43.04
-27.51
-12.84
1.23
14.81
27.75
39.68
50.14
58.77
65.37
69.97
72.75
73.96
73.84
72.7
70.91
68.94
67.3
66.3
65.99
66.06
65.98
65.25
63.53
60.82
57.4
53.66
49.97
46.5
43.23
39.91
36.24
31.98
27.13
22.01
17.12
12.93
9.65
7.07
4.68
1.86
-1.84
-6.52
-11.95
-17.7
-23.4
-28.85
-34.1
-39.39
-45.13
-51.78
-59.82
-69.45
-80.35
-91.49
-101.19
-107.42
-108.5
-103.68
-93.43
-79.28
-63.23
-47.08
-31.94
-18.12
-5.44
6.41
17.61
28.09
37.63
45.93
52.71
57.7
60.73
61.71
60.75
58.14
54.38
50.0
45.51
41.32
37.67
34.7
32.32
30.32
28.34
26.09
23.39
20.3
17.01
13.68
10.31
6.7
2.68
-1.75
-6.23
-10.22
-13.25
-15.34
-17.12
-19.71
-24.29
-31.69
-42.14
-55.28
-70.4
-86.66
-103.21
-119.53
-135.59
-152.21
-171.01
-193.97
-222.42
-256.03
-292.29
-326.96
-355.28
-373.53
-380.07
-375.44
-361.61
-340.96
-315.43
-286.38
-254.88
-221.99
-188.9
-156.67
-125.87
-96.41
-67.64
-38.7
-8.87
22.08
53.77
85.18
114.87
141.33
163.39
180.59
193.25
202.25
208.63
213.14
216.03
217.17
216.39
213.73
209.63
204.72
199.56
194.41
189.15
183.46
177.03
169.75
161.74
153.28
144.65
136.09
127.71
119.56
111.51
103.33
94.62
84.93
73.94
61.58
48.13
34.14
20.23
6.84
-5.92
-18.32
-30.9
-44.3
-59.0
-75.08
-91.88
-107.99
-121.4
-129.94
-131.96
-126.84
-115.17
-98.5
-78.79
-57.75
-36.49
-15.52
5.07
25.2
44.66
63.11
80.15
95.43
108.68
119.67
128.2
134.05
137.13
137.54
135.64
132.09
127.76
123.49
119.96
117.49
115.97
115.0
114.04
112.6
110.43
107.54
104.26
101.0
98.24
96.24
94.97
94.11
93.14
91.52
88.83
84.93
79.92
74.04
67.53
60.51
52.92
44.6
35.4
25.31
14.53
3.46
-7.38
-17.6
-27.04
-35.88
-44.61
-53.84
-64.13
-75.82
-88.8
-102.38
-115.23
-125.58
-131.58
-131.86
-125.96
-114.46
-98.76
-80.59
-61.39
-42.11
-23.16
-4.67
13.19
30.18
45.9
59.98
72.09
82.03
89.67
95.02
98.22
99.56
99.42
98.25
96.43
94.32
92.17
90.13
88.18
86.19
83.83
80.85
77.07
72.62
67.88
63.34
59.38
56.08
53.17
50.15
46.5
41.87
36.25
29.9
23.3
16.9
10.98
5.58
0.44
-4.85
-10.67
-17.19
-24.24
-31.3
-37.72
-43.01
-47.05
-50.24
-53.37
-57.35
-62.94
-70.48
-79.73
-89.87
-99.55
-107.19
-111.25
-110.7
-105.25
-95.45
-82.44
-67.52
-51.77
-35.81
-19.88
-4.06
11.42
26.11
39.33
50.4
58.88
64.71
68.18
69.86
70.34
70.03
69.05
67.34
64.82
61.59
58.01
54.58
51.75
49.7
48.32
47.27
46.15
44.67
42.69
40.23
37.35
34.14
30.58
26.62
22.08
16.75
10.46
3.22
-4.7
-12.75
-20.33
-27.0
-32.66
-37.63
-42.55
-48.0
-54.48
-62.14
-70.89
-80.29
-89.52
-97.42
-102.58
-103.78
-100.38
-92.6
-81.46
-68.46
-54.93
-41.68
-28.94
-16.53
-4.3
7.71
19.17
29.63
38.72
46.24
52.14
56.44
59.19
60.49
60.55
59.75
58.63
57.8
57.69
58.47
59.86
61.25
61.88
61.13
58.75
54.9
50.04
44.74
39.38
34.14
29.04
24.03
19.09
14.29
9.65
5.16
0.75
-3.71
-8.29
-13.0
-17.78
-22.54
-27.18
-31.71
-36.25
-41.01
-46.27
-52.27
-59.1
-66.57
-74.08
-80.66
-85.15
-86.52
-84.19
-78.34
-69.78
-59.71
-49.25
-39.05
-29.26
-19.69
-10.16
-0.76
8.12
16.02
22.65
28.09
32.63
36.63
40.25
43.43
45.95
47.64
48.55
48.98
49.45
50.46
52.39
55.38
59.42
64.42
70.14
76.15
81.66
85.55
86.55
83.66
76.55
65.83
52.96
39.98
28.92
21.47
18.81
21.55
29.71
42.63
58.81
75.78
90.37
99.17
99.47
90.14
72.29
49.17
25.28
4.96
-9.04
-16.15
-17.81
-16.48
-14.46
-13.16
-13.08
-14.33
-17.19
-22.38
-30.66
-42.21
-56.08
-70.28
-82.48
-90.9
-95.07
-95.94
-95.31
-94.95
-95.95
-98.4
-101.8
-105.58
-109.51
-113.74
-118.49
-123.75
-129.08
-133.86
-137.49
-139.46
-139.27
-136.26
-129.63
-118.77
-103.65
-85.2
-65.14
-45.59
-28.41
-14.7
-4.7
2.03
6.14
8.24
8.75
8.04
6.58
5.05
4.18
4.58
6.52
9.88
14.17
18.82
23.27
27.16
30.26
32.38
33.32
32.84
30.75
27.07
22.14
16.59
11.27
6.97
4.23
3.23
3.77
5.41
7.57
9.72
11.45
12.54
12.92
12.69
11.96
10.92
9.71
8.44
7.2
6.06
5.09
4.33
3.8
3.49
3.33
3.29
3.34
3.46
3.61
3.74
3.73
3.5
3.03
2.36
1.63
0.94
0.38
-0.1
-0.59
-1.22
-2.02
-2.99
-4.04
-5.16
-6.33
-7.57
-8.84
-10.06
-11.12
-11.91
-12.47
-12.9
-13.35
-13.91
-14.57
-15.21
-15.69
-15.99
-16.17
-16.35
-16.58
-16.87
-17.03
-16.93
-16.48
-15.71
-14.73
-13.69
-12.64
-11.6
-10.54
-9.43
-8.32
-7.28
-6.37
-5.64
-5.09
-4.65
-4.23
-3.75
-3.16
-2.51
-1.89
-1.4
-1.12
-1.04
-1.12
-1.32
-1.64
-2.11
-2.74
-3.52
-4.36
-5.14
-5.81
-6.35
-6.8
-7.25
-7.74
-8.32
-8.97
-9.71
-10.57
-11.57
-12.76
-14.17
-15.8
-17.62
-19.56
-21.48
-23.16
-24.36
-24.79
-24.23
-22.54
-19.76
-16.08
-11.84
-7.39
-3.0
1.15
4.98
8.43
11.39
13.69
15.21
15.86
15.7
14.86
13.54
12.01
10.5
9.22
8.22
7.48
6.86
6.16
5.25
4.12
2.88
1.67
0.58
-0.46
-1.55
-2.78
-4.14
-5.51
-6.68
-7.54
-8.11
-8.52
-8.98
-9.63
-10.5
-11.51
-12.52
-13.48
-14.4
-15.37
-16.46
-17.66
-18.93
-20.18
-21.42
-22.68
-24.07
-25.61
-27.18
-28.48
-29.1
-28.66
-26.94
-23.96
-19.94
-15.23
-10.21
-5.14
-0.2
4.47
8.75
12.46
15.42
17.54
18.79
19.32
19.33
18.99
18.43
17.75
16.96
16.13
15.31
14.52
13.71
12.79
11.62
10.14
8.37
6.44
4.55
2.87
1.48
0.36
-0.57
-1.45
-2.35
-3.29
-4.22
-5.11
-5.88
-6.53
-7.05
-7.44
-7.74
-8.02
-8.39
-9.01
-10.01
-11.45
-13.25
-15.19
-17.02
-18.62
-20.02
-21.41
-23.04
-25.08
-27.45
-29.89
-31.95
-33.22
-33.38
-32.33
-30.1
-26.81
-22.57
-17.53
-11.82
-5.69
0.54
6.48
11.76
16.14
19.53
21.97
23.56
24.45
24.76
24.6
24.07
23.27
22.25
21.03
19.61
18.05
16.46
14.96
13.63
12.46
11.35
10.19
8.95
7.67
6.47
5.44
4.52
3.56
2.32
0.73
-1.16
-3.08
-4.72
-5.84
-6.41
-6.61
-6.78
-7.2
-8.02
-9.23
-10.65
-12.01
-13.16
-14.04
-14.65
-15.06
-15.25
-15.12
-14.54
-13.65
-13.01
-13.48
-15.75
-19.84
-25.0
-30.1
-34.3
-37.6
-40.8
-44.8
-49.9
-55.28
-59.27
-60.18
-57.1
-50.24
-40.6
-29.34
-17.34
-5.18
6.55
16.97
25.07
30.13
32.03
31.34
29.16
26.61
24.49
23.14
22.53
22.52
22.97
23.74
24.64
25.38
25.66
25.22
24.05
22.39
20.77
19.74
19.8
21.08
23.33
25.9
27.97
28.77
27.81
25.02
20.61
14.94
8.28
0.8
-7.43
-16.22
-25.23
-33.84
-41.34
-47.1
-50.71
-52.14
-51.66
-49.8
-47.05
-43.77
-40.08
-35.95
-31.3
-26.19
-20.83
-15.46
-10.21
-4.98
0.56
6.8
14.0
22.12
30.71
39.07
46.33
51.72
54.74
55.23
53.48
50.06
45.73
41.28
37.3
34.2
32.09
30.93
30.54
30.72
31.31
32.17
33.2
34.28
35.2
35.72
35.61
34.6
32.56
29.44
25.42
20.75
15.82
10.96
6.44
2.37
-1.27
-4.62
-7.89
-11.3
-15.13
-19.58
-24.72
-30.33
-35.83
-40.32
-42.62
-41.58
-36.4
-26.96
-14.13
0.29
13.92
24.51
30.65
32.25
30.37
26.65
22.51
18.65
15.08
11.49
7.83
4.48
2.07
1.03
1.24
1.97
2.26
1.39
-0.77
-3.73
-6.65
-8.86
-10.23
-11.3
-12.95
-16.03
-20.78
-26.78
-33.15
-39.02
-43.97
-48.14
-51.97
-55.89
-60.02
-64.12
-67.75
-70.46
-71.79
-71.3
-68.35
-62.2
-52.12
-37.66
-19.02
2.96
26.79
50.62
72.58
91.08
104.96
113.45
116.03
112.39
102.57
87.35
68.41
48.12
28.96
12.61
-0.45
-10.85
-19.5
-26.79
-32.09
-34.12
-31.8
-25.11
-15.34
-4.67
4.81
11.75
15.91
17.78
17.97
16.88
14.54
10.92
6.22
1.01
-3.94
-7.88
-10.33
-11.28
-11.08
-10.25
-9.3
-8.57
-8.21
-8.21
-8.43
-8.77
-9.13
-9.51
-9.96
-10.58
-11.41
-12.41
-13.39
-14.11
-14.28
-13.78
-12.69
-11.3
-10.0
-9.15
-8.94
-9.34
-10.22
-11.41
-12.81
-14.44
-16.37
-18.75
-21.69
-25.2
-29.18
-33.34
-37.18
-40.06
-41.33
-40.47
-37.3
-31.98
-24.92
-16.68
-7.76
1.42
10.51
19.08
26.68
32.79
37.07
39.47
40.32
40.19
39.72
39.35
39.24
39.32
39.42
39.48
39.57
39.86
40.43
41.2
41.88
42.12
41.7
40.56
38.87
36.86
34.79
32.76
30.78
28.67
26.17
22.98
18.92
14.02
8.57
3.04
-2.1
-6.58
-10.47
-14.14
-18.15
-23.0
-29.03
-36.3
-44.53
-53.06
-60.91
-66.9
-69.85
-68.88
-63.58
-54.05
-40.82
-24.66
-6.41
13.14
33.09
52.31
69.25
82.01
88.7
88.06
79.92
65.5
47.21
27.87
10.02
-4.76
-15.95
-23.79
-28.82
-31.45
-31.99
-30.86
-28.88
-27.21
-27.1
-29.35
-33.86
-39.66
-45.35
-49.75
-52.6
-54.62
-57.26
-61.96
-69.46
-79.52
-90.98
-102.33
-112.16
-119.57
-124.23
-126.35
-126.51
-125.78
-125.54
-127.26
-132.1
-140.31
-150.96
-162.11
-171.36
-176.71
-177.2
-173.04
-165.23
-154.89
-142.6
-128.23
-111.25
-91.31
-68.74
-44.77
-21.21
-0.04
17.03
28.77
34.45
33.84
27.38
16.25
2.44
-11.58
-23.48
-31.62
-35.28
-34.43
-29.21
-19.66
-5.98
11.06
29.72
47.42
61.59
70.65
74.58
74.82
73.42
72.15
71.9
72.61
73.69
74.42
74.23
72.76
69.74
65.02
58.62
50.81
42.08
32.96
23.86
14.93
6.07
-3.1
-13.14
-24.82
-38.87
-55.68
-74.88
-94.97
-113.43
-127.33
-134.36
-133.81
-126.87
-115.97
-103.5
-90.59
-76.71
-60.37
-40.46
-17.31
7.21
30.48
50.37
66.11
78.25
88.01
96.3
103.35
108.82
112.38
114.15
114.8
115.21
115.95
117.12
118.31
119.0
118.84
117.81
116.25
114.66
113.4
112.53
111.71
110.34
107.81
103.8
98.45
92.32
86.13
80.41
75.33
70.61
65.69
60.02
53.29
45.57
37.19
28.57
19.97
11.39
2.51
-7.15
-18.13
-30.68
-44.61
-59.02
-72.41
-82.95
-88.92
-89.24
-83.71
-73.12
-58.88
-42.52
-25.29
-7.87
9.53
26.94
44.34
61.45
77.71
92.42
104.87
114.57
121.32
125.22
126.63
126.06
124.08
121.22
118.02
114.93
112.31
110.37
109.05
108.01
106.71
104.59
101.24
96.58
90.84
84.43
77.8
71.29
65.01
58.88
52.7
46.26
39.37
31.96
24.08
15.89
7.58
-0.68
-8.76
-16.63
-24.42
-32.39
-40.94
-50.51
-61.39
-73.43
-85.87
-97.32
-106.04
-110.43
-109.48
-103.15
-92.25
-78.18
-62.38
-45.98
-29.61
-13.52
2.25
17.6
32.32
46.05
58.39
68.92
77.35
83.54
87.52
89.55
90.05
89.5
88.38
87.06
85.76
84.57
83.5
82.46
81.34
79.97
78.2
75.92
73.13
69.92
66.44
62.84
59.17
55.38
51.34
46.94
42.12
36.89
31.33
25.47
19.34
12.97
6.43
-0.15
-6.58
-12.71
-18.5
-24.09
-29.75
-35.86
-42.77
-50.78
-60.01
-70.3
-81.05
-91.24
-99.48
-104.4
-105.01
-101.01
-92.95
-81.89
-69.12
-55.65
-42.08
-28.58
-15.16
-1.86
11.13
23.5
34.89
45.06
53.82
61.01
66.56
70.4
72.54
73.17
72.64
71.39
69.87
68.4
67.16
66.1
65.09
63.96
62.57
60.89
58.91
56.65
54.12
51.29
48.11
44.62
40.9
37.12
33.43
29.87
26.36
22.68
18.62
14.06
9.11
4.07
-0.69
-4.95
-8.69
-12.14
-15.65
-19.54
-23.95
-28.83
-34.01
-39.22
-44.23
-48.91
-53.2
-57.18
-60.99
-64.89
-69.23
-74.32
-80.29
-86.85
-93.26
-98.43
-101.17
-100.61
-96.53
-89.36
-80.02
-69.55
-58.77
-48.1
-37.6
-27.16
-16.72
-6.32
3.81
13.38
22.06
29.53
35.53
39.93
42.76
44.25
44.73
44.58
44.16
43.7
43.3
42.94
42.51
41.8
40.62
38.84
36.48
33.68
30.67
27.66
24.77
21.99
19.24
16.36
13.29
9.98
6.48
2.87
-0.78
-4.37
-7.89
-11.36
-14.84
-18.37
-21.93
-25.46
-28.85
-32.07
-35.2
-38.53
-42.41
-47.18
-52.89
-59.18
-65.24
-69.97
-72.31
-71.59
-67.75
-61.41
-53.53
-45.15
-37.01
-29.45
-22.42
-15.78
-9.39
-3.21
2.68
8.17
13.14
17.46
20.96
23.48
24.86
25.13
24.49
23.28
21.94
20.83
20.11
19.74
19.5
19.1
18.38
17.31
16.01
14.66
13.37
12.14
10.82
9.27
7.37
5.15
2.71
0.2
-2.25
-4.61
-6.9
-9.17
-11.44
-13.72
-16.0
-18.28
-20.63
-23.07
-25.71
-28.6
-31.79
-35.38
-39.5
-44.21
-49.41
-54.68
-59.27
-62.28
-62.88
-60.69
-55.86
-49.03
-41.06
-32.73
-24.58
-16.82
-9.51
-2.58
3.96
10.04
15.58
20.48
24.62
27.94
30.38
31.91
32.54
32.32
31.34
29.79
27.97
26.23
24.9
24.14
23.94
24.03
24.11
23.89
23.25
22.2
20.82
19.19
17.3
15.16
12.79
10.34
8.01
6.01
4.41
3.07
1.69
-0.08
-2.47
-5.51
-9.06
-12.85
-16.69
-20.48
-24.23
-28.04
-31.96
-36.04
-40.36
-44.94
-49.66
-54.19
-57.96
-60.24
-60.44
-58.29
-53.98
-48.05
-41.18
-33.93
-26.65
-19.53
-12.66
-6.2
-0.36
4.64
8.69
11.77
13.94
15.34
16.09
16.29
16.1
15.61
14.94
14.22
13.52
12.9
12.4
12.02
11.71
11.36
10.84
10.04
8.94
7.58
6.05
4.39
2.61
0.63
-1.67
-4.38
-7.52
-10.96
-14.43
-17.61
-20.19
-22.07
-23.41
-24.62
-26.27
-28.82
-32.55
-37.34
-42.69
-47.8
-51.74
-53.64
-53.01
-49.83
-44.59
-38.04
-31.0
-24.02
-17.33
-10.9
-4.65
1.4
7.04
11.96
15.89
18.71
20.49
21.41
21.68
21.54
21.17
20.78
20.49
20.38
20.45
20.61
20.81
21.02
21.19
21.28
21.2
20.75
19.79
18.26
16.24
13.94
11.57
9.18
6.65
3.76
0.29
-3.79
-8.32
-12.95
-17.35
-21.31
-24.85
-28.17
-31.64
-35.63
-40.48
-46.39
-53.32
-60.91
-68.48
-75.1
-79.79
-81.78
-80.77
-76.95
-70.97
-63.65
-55.72
-47.62
-39.47
-31.18
-22.61
-13.72
-4.65
4.33
12.84
20.47
26.87
31.72
34.92
36.53
36.8
36.16
35.06
33.85
32.76
31.85
31.07
30.38
29.76
29.2
28.61
27.87
26.8
25.28
23.28
20.89
18.21
15.32
12.22
8.88
5.25
1.32
-2.87
-7.28
-11.89
-16.69
-21.69
-26.82
-31.96
-36.96
-41.75
-46.33
-50.91
-55.84
-61.5
-68.2
-75.95
-84.27
-92.23
-98.48
-101.68
-100.92
-96.02
-87.61
-76.83
-64.92
-52.79
-40.87
-29.14
-17.41
-5.58
6.23
17.68
28.35
37.82
45.78
52.02
56.5
59.32
60.67
60.86
60.24
59.15
57.91
56.8
56.02
55.63
55.54
55.49
55.24
54.65
53.73
52.66
51.64
50.7
49.75
48.51
46.74
44.31
41.25
37.78
34.06
30.21
26.2
21.93
17.34
12.45
7.42
2.43
-2.4
-7.01
-11.51
-16.06
-20.85
-26.08
-31.96
-38.62
-46.04
-53.89
-61.4
-67.51
-71.1
-71.35
-68.07
-61.71
-53.18
-43.46
-33.3
-23.07
-12.85
-2.57
7.74
17.95
27.82
37.06
45.35
52.44
58.09
62.18
64.74
65.93
66.1
65.58
64.73
63.77
62.86
62.09
61.47
61.0
60.53
59.82
58.63
56.76
54.23
51.24
48.15
45.28
42.76
40.48
38.17
35.49
32.31
28.66
24.78
20.92
17.22
13.62
9.96
6.03
1.73
-2.88
-7.57
-12.09
-16.24
-19.97
-23.39
-26.75
-30.39
-34.59
-39.57
-45.33
-51.62
-57.9
-63.39
-67.21
-68.6
-67.17
-62.94
-56.38
-48.27
-39.42
-30.45
-21.74
-13.33
-5.11
3.01
11.04
18.8
26.01
32.38
37.68
41.79
44.74
46.61
47.57
47.77
47.36
46.53
45.46
44.35
43.35
42.57
41.98
41.42
40.7
39.62
38.05
36.04
33.74
31.38
29.15
27.09
25.11
23.05
20.75
18.16
15.34
12.45
9.64
7.01
4.53
2.11
-0.41
-3.12
-6.08
-9.24
-12.52
-15.82
-19.06
-22.18
-25.13
-27.9
-30.53
-33.16
-35.98
-39.23
-43.04
-47.3
-51.58
-55.18
-57.32
-57.36
-55.06
-50.59
-44.51
-37.49
-30.11
-22.76
-15.6
-8.69
-2.11
3.99
9.43
14.07
17.86
20.88
23.27
25.12
26.46
27.27
27.5
27.2
26.51
25.64
24.8
24.07
23.46
22.86
22.21
21.47
20.63
19.72
18.7
17.51
16.11
14.49
12.7
10.77
8.74
6.64
4.47
2.36
0.45
-1.1
-2.23
-3.06
-3.83
-4.86
-6.35
-8.35
-10.72
-13.21
-15.57
-17.64
-19.42
-21.03
-22.66
-24.48
-26.63
-29.18
-32.18
-35.6
-39.26
-42.79
-45.59
-47.04
-46.65
-44.28
-40.19
-34.97
-29.31
-23.78
-18.67
-13.95
-9.46
-5.0
-0.55
3.72
7.5
10.49
12.53
13.68
14.16
14.24
14.12
13.84
13.41
12.85
12.23
11.74
11.55
11.68
12.05
12.45
12.66
12.59
12.16
11.4
10.31
8.91
7.24
5.34
3.29
1.18
-0.96
-3.11
-5.3
-7.55
-9.86
-12.17
-14.42
-16.58
-18.65
-20.69
-22.79
-25.04
-27.51
-30.22
-33.17
-36.33
-39.58
-42.66
-45.19
-46.69
-46.71
-45.03
-41.73
-37.17
-31.87
-26.32
-20.81
-15.43
-10.13
-4.86
0.31
5.15
9.43
12.98
15.8
18.04
19.86
21.33
22.38
22.89
22.79
22.19
21.36
20.63
20.21
20.16
20.32
20.43
20.25
19.65
18.6
17.19
15.54
13.74
11.83
9.79
7.59
5.2
2.59
-0.25
-3.33
-6.68
-10.31
-14.15
-18.07
-21.87
-25.39
-28.58
-31.55
-34.56
-37.95
-42.01
-46.8
-52.08
-57.3
-61.73
-64.68
-65.68
-64.62
-61.73
-57.43
-52.22
-46.48
-40.45
-34.27
-27.99
-21.65
-15.28
-8.9
-2.59
3.48
9.05
13.79
17.43
19.89
21.29
21.92
22.2
22.45
22.86
23.47
24.19
24.87
25.36
25.61
25.59
25.36
25.0
24.56
24.11
23.61
23.02
22.27
21.23
19.82
17.98
15.72
13.19
10.58
8.02
5.51
2.89
-0.11
-3.69
-7.93
-12.73
-17.85
-23.0
-27.98
-32.72
-37.3
-41.92
-46.87
-52.42
-58.77
-65.86
-73.32
-80.41
-86.19
-89.74
-90.43
-88.14
-83.24
-76.41
-68.42
-59.87
-51.09
-42.13
-32.95
-23.53
-13.94
-4.42
4.71
13.11
20.46
26.53
31.2
34.48
36.51
37.53
37.84
37.81
37.75
37.92
38.4
39.12
39.88
40.36
40.33
39.65
38.3
36.38
34.03
31.44
28.72
25.96
23.08
19.93
16.23
11.75
6.44
0.48
-5.74
-11.75
-17.23
-22.15
-26.78
-31.62
-37.17
-43.81
-51.6
-60.19
-68.86
-76.57
-82.21
-84.86
-84.03
-79.8
-72.69
-63.49
-53.01
-41.89
-30.53
-19.15
-7.87
3.17
13.77
23.64
32.44
39.85
45.68
49.93
52.84
54.74
55.99
56.84
57.42
57.8
58.04
58.22
58.41
58.57
58.58
58.22
57.34
55.83
53.73
51.12
48.13
44.83
41.33
37.69
33.94
30.0
25.76
21.05
15.77
9.95
3.76
-2.6
-8.96
-15.27
-21.57
-27.91
-34.37
-41.02
-48.0
-55.58
-64.08
-73.6
-83.82
-93.79
-102.1
-107.31
-108.33
-104.87
-97.39
-86.87
-74.43
-60.94
-46.92
-32.68
-18.49
-4.65
8.47
20.62
31.68
41.67
50.61
58.45
65.03
70.15
73.66
75.64
76.39
76.37
76.08
75.92
76.11
76.62
77.24
77.71
77.76
77.2
75.98
74.12
71.74
69.03
66.16
63.27
60.41
57.5
54.34
50.7
46.4
41.44
35.97
30.24
24.58
19.22
14.2
9.41
4.57
-0.59
-6.28
-12.48
-19.0
-25.56
-31.9
-37.99
-43.99
-50.29
-57.37
-65.55
-74.87
-84.88
-94.63
-102.78
-107.93
-109.0
-105.55
-97.94
-87.16
-74.51
-61.15
-47.8
-34.71
-21.8
-8.93
3.92
16.58
28.79
40.18
50.43
59.18
66.15
71.14
74.18
75.56
75.8
75.57
75.44
75.78
76.7
78.0
79.38
80.42
80.83
80.4
79.11
77.12
74.67
71.99
69.25
66.49
63.68
60.74
57.57
54.1
50.28
46.11
41.64
37.02
32.45
28.06
23.92
19.88
15.66
10.95
5.58
-0.44
-6.87
-13.36
-19.59
-25.4
-30.84
-36.18
-41.8
-48.13
-55.44
-63.73
-72.62
-81.31
-88.72
-93.66
-95.26
-93.07
-87.28
-78.56
-67.82
-55.93
-43.54
-31.05
-18.73
-6.79
4.5
14.86
24.03
31.84
38.17
43.04
46.5
48.68
49.77
49.96
49.5
48.62
47.6
46.69
46.1
45.94
46.18
46.58
46.84
46.64
45.78
44.25
42.16
39.68
36.94
33.96
30.68
26.96
22.69
17.81
12.38
6.57
0.62
-5.15
-10.53
-15.41
-19.9
-24.31
-29.08
-34.67
-41.29
-48.77
-56.5
-63.45
-68.47
-70.56
-69.19
-64.45
-56.93
-47.55
-37.22
-26.64
-16.24
-6.2
3.38
12.36
20.52
27.63
33.5
38.05
41.32
43.44
44.59
44.92
44.58
43.76
42.68
41.64
40.95
40.77
41.08
41.6
41.87
41.41
39.89
37.27
33.81
29.96
26.15
22.65
19.48
16.4
13.06
9.13
4.47
-0.86
-6.59
-12.39
-17.96
-23.18
-28.13
-33.0
-38.05
-43.52
-49.58
-56.22
-63.23
-70.11
-76.05
-80.13
-81.51
-79.68
-74.65
-66.94
-57.32
-46.59
-35.35
-23.96
-12.65
-1.58
9.07
19.04
28.13
36.18
43.04
48.57
52.65
55.18
56.2
55.94
54.84
53.35
51.88
50.6
49.5
48.47
47.37
46.1
44.65
42.95
40.94
38.53
35.76
32.73
29.63
26.61
23.73
20.9
18.04
15.03
11.8
8.24
4.19
-0.52
-5.89
-11.69
-17.45
-22.63
-26.9
-30.3
-33.26
-36.38
-40.28
-45.29
-51.44
-58.35
-65.29
-71.23
-75.1
-75.96
-73.35
-67.43
-58.93
-48.88
-38.24
-27.63
-17.27
-7.1
2.97
12.85
22.28
30.87
38.25
44.25
48.79
51.99
53.94
54.75
54.43
52.98
50.5
47.19
43.46
39.73
36.42
33.71
31.57
29.71
27.76
25.39
22.43
18.9
14.96
10.81
6.64
2.61
-1.18
-4.67
-7.85
-10.77
-13.53
-16.25
-18.94
-21.53
-23.78
-25.36
-25.99
-25.59
-24.39
-22.93
-21.96
-22.21
-24.09
-27.47
-31.64
-35.42
-37.59
-37.23
-34.02
-28.24
-20.64
-12.06
-3.22
5.48
13.84
21.79
29.21
35.92
41.74
46.58
50.52
53.8
56.67
59.27
61.48
62.98
63.35
62.3
59.87
56.44
52.64
49.04
45.96
43.4
41.14
38.87
36.49
34.01
31.54
29.11
26.59
23.7
20.13
15.75
10.62
5.06
-0.53
-5.82
-10.6
-14.83
-18.52
-21.67
-24.28
-26.4
-28.21
-30.03
-32.23
-35.09
-38.65
-42.62
-46.43
-49.44
-50.93
-50.32
-47.13
-41.15
-32.51
-21.87
-10.3
0.92
10.82
19.07
26.17
33.17
41.16
50.71
61.61
72.96
83.56
92.4
98.96
103.16
105.2
105.33
103.75
100.66
96.34
91.09
85.18
78.77
71.89
64.6
57.12
49.89
43.44
38.15
34.05
30.77
27.77
24.59
21.15
17.72
14.74
12.52
11.06
10.05
9.01
7.48
5.22
2.11
-1.84
-6.67
-12.48
-19.35
-27.26
-36.03
-45.28
-54.61
-63.62
-72.02
-79.47
-85.58
-89.83
-91.69
-90.75
-87.0
-80.9
-73.35
-65.5
-58.46
-52.96
-49.29
-47.19
-46.06
-45.19
-44.03
-42.32
-40.25
-38.27
-36.89
-36.48
-37.1
-38.56
-40.64
-43.22
-46.33
-49.91
-53.57
-56.57
-57.92
-56.87
-53.37
-48.15
-42.42
-37.29
-33.26
-30.02
-26.89
-23.34
-19.49
-16.11
-14.23
-14.62
-17.4
-22.03
-27.68
-33.59
-39.29
-44.67
-49.82
-54.89
-60.08
-65.58
-71.61
-78.28
-85.51
-92.8
-99.37
-104.37
-107.26
-108.03
-107.24
-105.8
-104.52
-103.75
-103.3
-102.56
-100.85
-97.82
-93.7
-89.15
-84.97
-81.8
-79.81
-78.85
-78.57
-78.66
-78.88
-78.89
-78.15
-75.85
-71.22
-63.92
-54.39
-43.92
-34.29
-27.14
-23.36
-22.85
-24.67
-27.48
-30.05
-31.58
-31.73
-30.6
-28.43
-25.5
-22.02
-18.13
-13.93
-9.57
-5.37
-1.82
0.43
0.87
-0.64
-3.59
-6.87
-9.05
-8.9
-5.85
-0.24
6.96
14.57
21.91
29.01
36.59
45.63
56.9
70.63
86.5
103.68
120.8
135.89
146.53
150.34
145.79
133.07
114.29
92.99
72.93
56.87
45.94
39.74
37.12
36.86
38.05
39.94
41.75
42.6
41.85
39.48
36.16
32.98
30.92
30.3
30.67
30.98
30.13
27.36
22.52
16.07
8.77
1.33
-5.88
-12.95
-20.29
-28.33
-37.14
-46.24
-54.59
-60.92
-64.17
-63.83
-60.1
-53.79
-45.93
-37.49
-29.12
-21.13
-13.56
-6.28
0.87
8.01
15.12
21.98
28.21
33.31
36.8
38.49
38.48
37.21
35.25
33.14
31.27
29.84
28.92
28.5
28.48
28.66
28.69
28.19
26.86
24.53
21.3
17.46
13.43
9.57
6.1
3.01
0.19
-2.54
-5.35
-8.32
-11.43
-14.66
-18.01
-21.54
-25.44
-29.98
-35.45
-42.03
-49.7
-57.96
-65.9
-72.22
-75.62
-75.18
-70.73
-62.86
-52.71
-41.49
-30.12
-19.01
-8.2
2.37
12.68
22.51
31.58
39.67
46.65
52.5
57.17
60.62
62.81
63.83
63.95
63.54
62.99
62.6
62.41
62.25
61.72
60.31
57.59
53.33
47.66
41.05
34.13
27.44
21.22
15.34
9.41
3.04
-3.98
-11.54
-19.26
-26.73
-33.61
-39.77
-45.28
-50.34
-55.17
-60.01
-65.09
-70.57
-76.48
-82.5
-87.86
-91.46
-92.08
-88.9
-81.78
-71.36
-58.78
-45.21
-31.54
-18.19
-5.34
6.86
18.12
28.11
36.61
43.75
49.88
55.43
60.63
65.37
69.3
72.02
73.28
73.07
71.5
68.72
64.75
59.52
52.93
45.1
36.39
27.45
19.05
11.84
6.21
2.14
-0.71
-2.91
-4.99
-7.32
-10.08
-13.2
-16.54
-19.91
-23.19
-26.38
-29.61
-33.14
-37.22
-41.91
-46.91
-51.45
-54.39
-54.54
-51.01
-43.6
-32.87
-19.99
-6.33
6.96
19.25
30.45
40.76
50.41
59.41
67.49
74.24
79.29
82.51
83.99
84.01
82.96
81.23
79.21
77.18
75.34
73.71
72.19
70.5
68.39
65.66
62.26
58.27
53.86
49.2
44.39
39.43
34.26
28.85
23.19
17.38
11.54
5.83
0.35
-4.87
-9.83
-14.62
-19.45
-24.6
-30.4
-36.98
-44.09
-50.95
-56.36
-59.05
-58.12
-53.42
-45.6
-35.88
-25.58
-15.67
-6.62
1.6
9.24
16.45
23.22
29.29
34.33
38.09
40.52
41.74
41.99
41.49
40.36
38.71
36.56
34.0
31.09
27.89
24.41
20.63
16.54
12.16
7.58
2.92
-1.73
-6.25
-10.5
-14.37
-17.77
-20.8
-23.79
-27.3
-31.84
-37.59
-44.26
-51.0
-56.71
-60.42
-61.7
-60.72
-58.23
-55.18
-52.47
-50.76
-50.36
-51.31
-53.42
-56.18
-58.79
-60.25
-59.54
-55.97
-49.4
-40.24
-29.29
-17.43
-5.35
6.55
18.19
29.6
40.82
51.74
62.14
71.67
79.97
86.7
91.65
94.76
96.1
95.87
94.34
91.83
88.67
85.17
81.62
78.15
74.75
71.3
67.67
63.74
59.57
55.24
50.91
46.68
42.56
38.51
34.47
30.32
25.97
21.31
16.25
10.74
4.85
-1.24
-7.18
-12.66
-17.42
-21.42
-24.85
-28.13
-31.73
-36.04
-41.23
-47.19
-53.56
-59.72
-64.93
-68.43
-69.58
-68.05
-63.9
-57.65
-50.13
-42.26
-34.78
-28.0
-21.84
-15.9
-9.84
-3.53
2.73
8.34
12.69
15.35
16.36
16.07
15.06
13.85
12.79
12.04
11.62
11.53
11.72
12.1
12.46
12.53
12.02
10.83
9.09
7.18
5.55
4.54
4.23
4.37
4.5
4.18
3.14
1.42
-0.67
-2.8
-4.69
-6.32
-7.89
-9.69
-11.96
-14.83
-18.2
-21.73
-24.92
-27.18
-27.94
-26.85
-23.78
-18.94
-12.75
-5.76
1.49
8.61
15.33
21.51
27.04
31.77
35.55
38.19
39.59
39.79
38.96
37.38
35.35
33.13
30.89
28.73
26.69
24.82
23.14
21.69
20.46
19.42
18.39
17.17
15.5
13.23
10.35
7.05
3.64
0.39
-2.58
-5.4
-8.32
-11.54
-15.1
-18.83
-22.46
-25.78
-28.75
-31.43
-33.98
-36.55
-39.24
-42.16
-45.37
-48.87
-52.44
-55.6
-57.68
-58.01
-56.17
-52.19
-46.54
-39.96
-33.17
-26.69
-20.74
-15.28
-10.18
-5.3
-0.61
3.86
7.99
11.64
14.62
16.76
17.99
18.32
17.95
17.17
16.36
15.85
15.81
16.22
16.93
17.67
18.19
18.29
17.88
16.89
15.35
13.29
10.8
8.03
5.18
2.44
-0.06
-2.31
-4.41
-6.51
-8.76
-11.21
-13.79
-16.36
-18.82
-21.13
-23.37
-25.74
-28.41
-31.46
-34.9
-38.64
-42.58
-46.73
-51.05
-55.47
-59.66
-63.0
-64.74
-64.24
-61.17
-55.72
-48.52
-40.42
-32.2
-24.39
-17.1
-10.22
-3.53
3.1
9.63
15.78
21.21
25.6
28.78
30.76
31.73
31.97
31.73
31.2
30.52
29.86
29.4
29.3
29.61
30.21
30.79
30.96
30.41
29.0
26.86
24.29
21.64
19.18
17.0
15.02
13.12
11.14
8.99
6.66
4.15
1.45
-1.42
-4.51
-7.76
-11.11
-14.42
-17.56
-20.44
-23.13
-25.79
-28.64
-31.94
-35.9
-40.6
-45.87
-51.26
-56.01
-59.24
-60.15
-58.37
-54.06
-47.86
-40.55
-32.86
-25.21
-17.77
-10.61
-3.83
2.38
7.82
12.44
16.27
19.44
21.97
23.83
24.94
25.29
25.04
24.38
23.54
22.65
21.78
20.97
20.28
19.76
19.4
19.06
18.46
17.37
15.66
13.42
10.89
8.34
5.86
3.4
0.76
-2.24
-5.67
-9.44
-13.33
-17.13
-20.69
-23.97
-27.01
-29.93
-32.86
-36.0
-39.6
-43.86
-48.81
-54.13
-59.17
-62.93
-64.43
-63.0
-58.53
-51.54
-43.0
-33.93
-25.1
-16.88
-9.22
-1.95
5.01
11.58
17.5
22.5
26.4
29.24
31.2
32.55
33.48
34.14
34.54
34.63
34.4
33.91
33.32
32.83
32.58
32.51
32.4
31.88
30.69
28.72
26.14
23.23
20.27
17.37
14.46
11.4
8.06
4.4
0.51
-3.54
-7.73
-12.11
-16.75
-21.62
-26.58
-31.46
-36.16
-40.8
-45.77
-51.51
-58.29
-65.88
-73.52
-80.0
-84.12
-85.04
-82.52
-76.98
-69.22
-60.11
-50.36
-40.36
-30.34
-20.43
-10.71
-1.24
7.97
17.02
25.94
34.71
43.09
50.67
56.96
61.54
64.27
65.31
65.13
64.38
63.59
63.09
62.84
62.59
62.09
61.24
60.13
59.01
57.97
56.94
55.61
53.63
50.84
47.38
43.65
40.14
37.17
34.76
32.57
30.01
26.37
21.08
13.76
4.44
-6.45
-18.11
-29.55
-39.81
-48.23
-54.67
-59.56
-63.89
-68.81
-75.23
-83.29
-92.14
-100.1
-105.18
-105.84
-101.55
-92.87
-81.19
-68.04
-54.58
-41.37
-28.53
-16.08
-4.22
6.64
16.04
23.78
29.93
34.85
38.92
42.36
45.19
47.26
48.39
48.57
47.99
47.06
46.25
45.93
46.26
47.14
48.2
49.03
49.26
48.69
47.36
45.49
43.3
40.96
38.49
35.7
32.36
28.26
23.35
17.74
11.75
5.76
0.08
-5.09
-9.74
-14.03
-18.24
-22.7
-27.79
-33.8
-40.79
-48.46
-56.05
-62.44
-66.42
-67.06
-64.05
-57.82
-49.29
-39.63
-29.81
-20.41
-11.56
-3.1
5.13
13.14
20.73
27.57
33.26
37.61
40.6
42.42
43.31
43.53
43.25
42.56
41.6
40.54
39.55
38.8
38.27
37.8
37.06
35.75
33.68
30.91
27.65
24.21
20.89
17.82
15.0
12.28
9.5
6.5
3.23
-0.3
-4.0
-7.72
-11.36
-14.82
-18.14
-21.38
-24.73
-28.39
-32.59
-37.54
-43.31
-49.65
-55.94
-61.11
-63.99
-63.59
-59.59
-52.42
-43.12
-32.87
-22.64
-12.91
-3.7
5.12
13.65
21.79
29.35
36.1
41.91
46.68
50.32
52.72
53.8
53.63
52.49
50.83
49.1
47.55
46.14
44.54
42.34
39.33
35.61
31.69
28.23
25.8
24.66
24.62
25.21
25.82
25.98
25.49
24.39
22.91
21.23
19.43
17.38
14.94
12.12
9.19
6.74
5.27
4.96
