-0.89
0.47
1.75
2.66
3.06
2.93
2.45
1.87
1.4
1.21
1.32
1.66
2.1
2.54
2.9
3.14
3.23
3.17
2.96
2.62
2.26
2.05
2.14
2.56
3.2
3.82
4.14
4.02
3.5
2.75
2.06
1.63
1.55
1.72
1.89
1.77
1.13
-0.1
-1.82
-3.73
-5.51
-6.9
-7.79
-8.25
-8.45
-8.57
-8.79
-9.16
-9.69
-10.34
-11.0
-11.58
-11.99
-12.14
-11.99
-11.52
-10.69
-9.52
-8.03
-6.32
-4.51
-2.75
-1.1
0.38
1.65
2.69
3.45
3.91
4.15
4.32
4.6
5.12
5.87
6.74
7.56
8.19
8.58
8.75
8.75
8.64
8.46
8.25
8.02
7.81
7.56
7.19
6.65
5.92
5.1
4.31
3.67
3.27
3.12
3.15
3.26
3.3
3.17
2.78
2.12
1.26
0.34
-0.48
-1.1
-1.49
-1.72
-1.92
-2.23
-2.76
-3.47
-4.27
-5.05
-5.69
-6.22
-6.71
-7.24
-7.83
-8.37
-8.64
-8.45
-7.74
-6.57
-5.13
-3.6
-2.16
-0.85
0.29
1.29
2.19
3.08
4.04
5.05
6.06
6.89
7.38
7.49
7.32
7.11
7.01
7.08
7.21
7.25
7.12
6.87
6.66
6.6
6.69
6.79
6.77
6.56
6.25
6.05
6.07
6.3
6.61
6.81
6.78
6.55
6.24
5.97
5.74
5.46
5.01
4.3
3.42
2.52
1.82
1.46
1.4
1.53
1.66
1.71
1.67
1.65
1.77
2.07
2.51
2.95
3.26
3.32
3.15
2.78
2.39
2.11
2.1
2.45
3.16
4.15
5.26
6.32
7.2
7.9
8.49
9.13
9.91
10.83
11.8
12.68
13.3
13.6
13.57
13.26
12.76
12.16
11.53
10.95
10.47
10.1
9.83
9.58
9.28
8.89
8.39
7.74
6.92
5.95
4.87
3.85
3.11
2.81
3.04
3.65
4.38
4.87
4.9
4.37
3.41
2.21
1.0
-0.1
-1.08
-1.98
-2.87
-3.78
-4.75
-5.79
-6.95
-8.22
-9.65
-11.19
-12.82
-14.43
-15.92
-17.19
-18.1
-18.61
-18.74
-18.57
-18.27
-17.99
-17.79
-17.65
-17.44
-17.07
-16.53
-15.95
-15.54
-15.48
-15.81
-16.45
-17.16
-17.69
-17.81
-17.4
-16.48
-15.14
-13.58
-12.0
-10.52
-9.22
-8.07
-7.01
-6.03
-5.17
-4.53
-4.14
-3.93
-3.77
-3.43
-2.82
-1.93
-0.92
0.06
0.88
1.53
2.09
2.64
3.23
3.8
4.26
4.51
4.53
4.31
3.93
3.45
2.91
2.32
1.65
0.92
0.15
-0.62
-1.31
-1.85
-2.2
-2.33
-2.25
-1.95
-1.49
-0.94
-0.41
-0.03
0.14
0.11
-0.03
-0.1
0.01
0.34
0.82
1.33
1.74
1.99
2.11
2.14
2.12
2.02
1.81
1.44
0.93
0.36
-0.13
-0.48
-0.67
-0.78
-0.91
-1.09
-1.28
-1.35
-1.27
-1.09
-1.0
-1.19
-1.76
-2.62
-3.49
-4.1
-4.25
-3.95
-3.4
-2.78
-2.21
-1.66
-1.07
-0.43
0.13
0.38
0.17
-0.49
-1.42
-2.36
-3.1
-3.59
-3.86
-4.0
-4.02
-3.89
-3.56
-3.09
-2.6
-2.25
-2.06
-1.97
-1.85
-1.57
-1.11
-0.56
-0.04
0.4
0.8
1.2
1.66
2.14
2.54
2.76
2.8
2.72
2.65
2.69
2.85
3.03
3.11
3.02
2.75
2.41
2.1
1.84
1.56
1.1
0.42
-0.45
-1.29
-1.88
-2.06
-1.88
-1.49
-1.12
-0.95
-0.98
-1.13
-1.25
-1.27
-1.18
-1.13
-1.22
-1.53
-2.05
-2.66
-3.25
-3.72
-4.02
-4.1
-3.94
-3.49
-2.77
-1.8
-0.73
0.29
1.12
1.69
2.04
2.21
2.3
2.32
2.31
2.32
2.43
2.72
3.2
3.81
4.45
5.01
5.46
5.82
6.1
6.35
6.51
6.51
6.31
5.86
5.21
4.41
3.56
2.7
1.9
1.15
0.48
-0.1
-0.55
-0.84
-1.04
-1.18
-1.41
-1.75
-2.24
-2.8
-3.34
-3.78
-4.14
-4.49
-4.92
-5.51
-6.19
-6.89
-7.43
-7.73
-7.72
-7.41
-6.85
-6.06
-5.12
-4.0
-2.74
-1.36
0.06
1.37
2.45
3.23
3.7
3.92
3.97
3.92
3.83
3.76
3.75
3.86
4.12
4.54
5.08
5.65
6.1
6.34
6.3
6.04
5.68
5.36
5.21
5.26
5.44
5.65
5.72
5.59
5.23
4.7
4.1
3.5
3.05
2.83
2.87
3.14
3.51
3.72
3.55
2.91
1.82
0.47
-0.95
-2.23
-3.3
-4.18
-4.95
-5.66
-6.37
-7.09
-7.84
-8.66
-9.56
-10.5
-11.34
-11.91
-12.05
-11.74
-11.11
-10.36
-9.67
-9.11
-8.55
-7.77
-6.62
-5.07
-3.32
-1.65
-0.29
0.67
1.34
1.88
2.44
3.01
3.49
3.82
3.98
4.06
4.22
4.55
5.05
5.57
5.92
5.94
5.62
5.07
4.52
4.16
4.13
4.38
4.74
5.02
5.09
5.01
4.9
4.9
5.11
5.44
5.76
5.88
5.73
5.36
4.89
4.46
4.14
3.98
3.95
4.04
4.25
4.58
5.04
5.56
6.04
6.3
6.13
5.38
4.02
2.19
0.19
-1.64
-3.03
-3.9
-4.31
-4.45
-4.43
-4.3
-4.0
-3.44
-2.56
-1.44
-0.24
0.84
1.66
2.15
2.38
2.43
2.38
2.32
2.19
1.98
1.67
1.3
0.97
0.74
0.65
0.66
0.7
0.72
0.74
0.8
0.98
1.31
1.73
2.15
2.47
2.62
2.6
2.5
2.42
2.41
2.41
2.37
2.19
1.86
1.48
1.15
0.94
0.82
0.71
0.51
0.17
-0.25
-0.66
-0.95
-1.04
-0.99
-0.89
-0.88
-1.08
-1.53
-2.2
-2.98
-3.78
-4.5
-5.11
-5.6
-5.96
-6.18
-6.2
-6.01
-5.6
-5.0
-4.28
-3.55
-2.89
-2.38
-2.0
-1.67
-1.27
-0.73
-0.06
0.61
1.17
1.55
1.77
1.94
2.16
2.47
2.81
3.05
3.08
2.78
2.14
1.25
0.24
-0.68
-1.3
-1.52
-1.35
-0.92
-0.52
-0.35
-0.54
-1.03
-1.65
-2.17
-2.54
-2.74
-2.86
-2.97
-3.06
-3.06
-2.93
-2.73
-2.6
-2.76
-3.26
-4.02
-4.83
-5.41
-5.6
-5.36
-4.79
-3.99
-3.07
-2.06
-1.05
-0.09
0.68
1.17
1.34
1.27
1.06
0.87
0.79
0.84
1.02
1.28
1.56
1.88
2.25
2.69
3.24
3.88
4.53
5.1
5.49
5.67
5.66
5.57
5.45
5.26
4.87
4.13
2.96
1.44
-0.21
-1.73
-2.88
-3.57
-3.8
-3.66
-3.28
-2.78
-2.29
-1.9
-1.72
-1.74
-1.93
-2.16
-2.34
-2.39
-2.36
-2.32
-2.34
-2.43
-2.58
-2.73
-2.87
-2.97
-3.05
-3.11
-3.13
-3.04
-2.74
-2.15
-1.29
-0.24
0.82
1.73
2.35
2.64
2.7
2.61
2.5
2.42
2.34
2.27
2.19
2.15
2.16
2.28
2.45
2.59
2.64
2.53
2.3
2.04
1.83
1.71
1.68
1.7
1.73
1.82
1.95
2.14
2.32
2.41
2.33
2.03
1.57
1.06
0.63
0.3
0.05
-0.27
-0.75
-1.43
-2.21
-2.95
-3.49
-3.78
-3.93
-4.09
-4.43
-5.0
-5.7
-6.35
-6.78
-6.92
-6.79
-6.51
-6.12
-5.63
-4.94
-4.0
-2.77
-1.38
-0.06
0.97
1.56
1.74
1.71
1.77
2.12
2.84
3.79
4.77
5.51
5.88
5.91
5.7
5.41
5.14
4.94
4.83
4.77
4.78
4.89
5.1
5.36
5.55
5.57
5.32
4.77
4.04
3.31
2.74
2.42
2.31
2.27
2.12
1.74
1.11
0.31
-0.49
-1.14
-1.53
-1.62
-1.45
-1.12
-0.74
-0.4
-0.21
-0.22
-0.46
-0.99
-1.74
-2.58
-3.35
-3.91
-4.18
-4.23
-4.18
-4.11
-4.01
-3.72
-3.09
-2.06
-0.74
0.63
1.78
2.52
2.81
2.73
2.43
2.04
1.68
1.39
1.24
1.21
1.27
1.39
1.54
1.72
1.97
2.33
2.77
3.21
3.53
3.64
3.51
3.13
2.59
1.99
1.39
0.85
0.45
0.21
0.14
0.22
0.38
0.47
0.43
0.24
-0.03
-0.28
-0.39
-0.4
-0.39
-0.55
-1.0
-1.74
-2.7
-3.71
-4.62
-5.3
-5.71
-5.82
-5.69
-5.36
-4.99
-4.74
-4.72
-4.95
-5.35
-5.79
-6.19
-6.55
-6.97
-7.54
-8.24
-8.92
-9.33
-9.28
-8.71
-7.73
-6.55
-5.42
-4.46
-3.69
-3.03
-2.38
-1.66
-0.86
0.01
0.87
1.65
2.29
2.74
3.03
3.2
3.38
3.63
4.03
4.49
4.96
5.35
5.64
5.86
6.09
6.37
6.66
6.86
6.84
6.47
5.74
4.71
3.55
2.45
1.61
1.05
0.75
0.55
0.25
-0.25
-0.96
-1.8
-2.63
-3.34
-3.9
-4.32
-4.66
-4.97
-5.22
-5.35
-5.24
-4.82
-4.04
-2.96
-1.68
-0.35
0.91
2.03
3.01
3.91
4.8
5.72
6.66
7.61
8.56
9.5
10.43
11.35
12.2
12.96
13.59
14.11
14.52
14.82
14.97
14.9
14.56
13.94
13.06
11.9
10.46
8.73
6.73
4.61
2.63
1.11
0.27
0.07
0.24
0.38
0.12
-0.66
-1.85
-3.1
-4.12
-4.72
-4.93
-4.9
-4.78
-4.6
-4.36
-4.05
-3.74
-3.59
-3.78
-4.42
-5.47
-6.75
-8.02
-9.03
-9.63
-9.76
-9.46
-8.83
-8.04
-7.2
-6.42
-5.7
-5.0
-4.23
-3.31
-2.2
-0.92
0.45
1.76
2.9
3.78
4.4
4.82
5.13
5.42
5.76
6.13
6.53
6.9
7.2
7.45
7.64
7.81
7.97
8.11
8.19
8.22
8.23
8.3
8.58
9.12
9.91
10.81
11.67
12.41
13.07
13.82
14.89
16.43
18.46
20.8
23.24
25.56
27.72
29.79
31.93
34.34
37.09
40.1
43.19
46.12
48.73
51.03
53.2
55.58
58.49
62.16
66.59
71.57
76.63
81.14
84.37
85.63
84.45
80.67
74.58
66.81
58.15
49.37
40.99
33.29
26.35
20.25
15.15
11.23
8.57
6.89
5.53
3.44
-0.46
-6.97
-16.24
-27.74
-40.34
-52.69
-63.61
-72.38
-78.79
-83.02
-85.43
-86.33
-85.97
-84.57
-82.39
-79.75
-76.93
-74.1
-71.33
-68.59
-65.83
-63.01
-60.21
-57.49
-54.95
-52.61
-50.42
-48.32
-46.26
-44.24
-42.36
-40.79
-39.75
-39.4
-39.8
-40.86
-42.32
-43.85
-45.15
-46.04
-46.51
-46.77
-47.06
-47.65
-48.67
-50.13
-51.86
-53.63
-55.24
-56.52
-57.44
-58.0
-58.31
-58.39
-58.21
-57.56
-56.1
-53.36
-48.94
-42.59
-34.4
-24.76
-14.25
-3.47
7.01
16.81
25.55
32.93
38.64
42.48
44.43
44.66
43.54
41.49
38.92
36.19
33.62
31.47
29.89
28.9
28.33
27.94
27.44
26.77
25.98
25.22
24.59
24.07
23.45
22.55
21.29
19.72
18.08
16.54
15.21
14.04
12.89
11.66
10.33
9.0
7.81
6.91
6.34
6.03
5.86
5.7
5.49
5.26
5.09
5.05
5.13
5.27
5.35
5.29
5.06
4.75
4.45
4.3
4.33
4.49
4.69
4.78
4.72
4.46
4.09
3.71
3.44
3.37
3.51
3.82
4.14
4.37
4.44
4.35
4.16
3.94
3.72
3.51
3.3
3.14
3.09
3.22
3.5
3.8
3.91
3.66
2.98
2.01
1.03
0.27
-0.14
-0.25
-0.24
-0.33
-0.63
-1.2
-1.93
-2.68
-3.29
-3.6
-3.54
-3.08
-2.34
-1.46
-0.68
-0.19
-0.09
-0.39
-0.98
-1.67
-2.25
-2.54
-2.37
-1.68
-0.48
1.02
2.58
3.91
4.85
5.41
5.8
6.26
6.96
7.97
9.19
10.42
11.53
12.43
13.1
13.57
13.87
14.04
14.12
14.12
14.05
13.9
13.6
13.02
12.03
10.52
8.46
5.96
3.2
0.43
-2.14
-4.29
-5.93
-7.06
-7.74
-8.09
-8.19
-8.1
-7.81
-7.27
-6.45
-5.48
-4.6
-4.19
-4.62
-6.04
-8.33
-11.06
-13.72
-15.82
-17.1
-17.51
-17.17
-16.22
-14.85
-13.17
-11.32
-9.47
-7.78
-6.38
-5.22
-4.21
-3.25
-2.28
-1.39
-0.68
-0.22
0.05
0.32
0.77
1.45
2.25
2.92
3.28
3.3
3.16
3.15
3.41
3.93
4.48
4.83
4.84
4.53
4.07
3.55
3.06
2.55
2.01
1.5
1.12
1.03
1.26
1.7
2.2
2.59
2.8
2.83
2.72
2.47
2.03
1.35
0.45
-0.58
-1.56
-2.35
-2.87
-3.16
-3.34
-3.53
-3.75
-3.92
-3.93
-3.68
-3.18
-2.54
-1.91
-1.4
-0.98
-0.56
-0.01
0.74
1.63
2.5
3.17
3.54
3.6
3.44
3.15
2.8
2.45
2.14
1.9
1.76
1.77
1.92
2.12
2.23
2.14
1.78
1.23
0.64
0.22
0.15
0.47
1.12
1.88
2.53
2.93
3.09
3.12
3.21
3.46
3.86
4.23
4.41
4.27
3.81
3.1
2.3
1.53
0.83
0.22
-0.37
-0.96
-1.57
-2.2
-2.82
-3.41
-3.98
-4.51
-4.98
-5.35
-5.58
-5.6
-5.36
-4.91
-4.28
-3.57
-2.83
-2.02
-1.06
0.06
1.3
2.5
3.41
3.85
3.74
3.17
2.33
1.45
0.76
0.32
0.17
0.2
0.33
0.47
0.57
0.63
0.72
0.89
1.2
1.69
2.32
3.11
4.02
4.94
5.77
6.33
6.49
6.24
5.7
5.08
4.55
4.17
3.8
3.28
2.47
1.43
0.39
-0.39
-0.72
-0.68
-0.45
-0.26
-0.21
-0.27
-0.32
-0.28
-0.22
-0.32
-0.8
-1.77
-3.1
-4.51
-5.61
-6.14
-6.01
-5.39
-4.5
-3.61
-2.82
-2.09
-1.34
-0.52
0.31
0.99
1.32
1.22
0.74
0.12
-0.38
-0.53
-0.29
0.26
0.92
1.5
1.88
2.08
2.19
2.32
2.51
2.71
2.85
2.86
2.7
2.4
2.08
1.8
1.61
1.49
1.36
1.19
0.96
0.73
0.55
0.42
0.3
0.07
-0.35
-0.97
-1.69
-2.39
-2.98
-3.44
-3.79
-4.03
-4.14
-4.06
-3.8
-3.46
-3.15
-2.95
-2.86
-2.81
-2.72
-2.58
-2.45
-2.44
-2.58
-2.83
-3.07
-3.2
-3.14
-2.89
-2.53
-2.12
-1.71
-1.33
-1.01
-0.7
-0.38
-0.0
0.41
0.8
1.05
1.04
0.76
0.33
-0.03
-0.06
0.39
1.26
2.34
3.3
3.9
4.02
3.66
2.93
2.0
1.03
0.18
-0.33
-0.39
0.05
0.88
1.83
2.6
2.94
2.77
2.19
1.42
0.69
0.14
-0.19
-0.36
-0.48
-0.6
-0.8
-1.11
-1.55
-2.14
-2.87
-3.69
-4.56
-5.4
-6.14
-6.77
-7.34
-7.84
-8.33
-8.77
-9.08
-9.18
-9.0
-8.46
-7.61
-6.47
-5.06
-3.45
-1.69
0.12
1.9
3.54
4.94
6.04
6.8
7.3
7.61
7.86
8.11
8.37
8.53
8.47
8.12
7.48
6.66
5.79
5.02
4.47
4.18
4.14
4.3
4.57
4.8
4.93
4.91
4.77
4.62
4.47
4.32
4.12
3.82
3.45
3.07
2.78
2.59
2.46
2.27
1.93
1.43
0.81
0.16
-0.47
-1.05
-1.59
-2.11
-2.63
-3.2
-3.83
-4.56
-5.38
-6.2
-6.94
-7.52
-7.86
-8.02
-8.05
-7.99
-7.86
-7.55
-6.93
-5.89
-4.44
-2.74
-1.08
0.28
1.18
1.64
1.86
2.08
2.44
2.91
3.37
3.64
3.68
3.58
3.53
3.66
3.98
4.34
4.59
4.65
4.56
4.49
4.59
4.85
5.15
5.3
5.15
4.69
4.07
3.46
2.97
2.62
2.32
1.95
1.48
0.95
0.46
0.12
-0.06
-0.14
-0.22
-0.39
-0.67
-1.03
-1.44
-1.89
-2.41
-3.02
-3.66
-4.21
-4.55
-4.53
-4.12
-3.33
-2.25
-1.03
0.2
1.31
2.21
2.86
3.3
3.64
3.98
4.32
4.61
4.75
4.64
4.29
3.81
3.33
2.96
2.74
2.62
2.5
2.27
1.87
1.27
0.48
-0.4
-1.23
-1.86
-2.24
-2.4
-2.52
-2.73
-3.07
-3.43
-3.6
-3.41
-2.86
-2.07
-1.29
-0.76
-0.54
-0.61
-0.89
-1.31
-1.86
-2.54
-3.33
-4.15
-4.88
-5.37
-5.5
-5.2
-4.54
-3.65
-2.72
-1.92
-1.3
-0.76
-0.12
0.78
1.93
3.14
4.15
4.73
4.87
4.69
4.42
4.22
4.16
4.2
4.26
4.28
4.22
4.11
3.95
3.76
3.51
3.18
2.76
2.21
1.53
0.77
-0.01
-0.69
-1.22
-1.57
-1.8
-1.95
-2.03
-2.03
-1.95
-1.88
-1.92
-2.19
-2.72
-3.49
-4.37
-5.25
-6.1
-6.94
-7.85
-8.81
-9.78
-10.63
-11.29
-11.75
-12.06
-12.29
-12.44
-12.47
-12.25
-11.71
-10.79
-9.5
-7.96
-6.31
-4.75
-3.47
-2.59
-2.13
-1.98
-2.01
-1.99
-1.79
-1.38
-0.8
-0.19
0.33
0.67
0.81
0.78
0.74
0.82
1.13
1.73
2.58
3.59
4.64
5.64
6.58
7.4
8.04
8.36
8.24
7.59
6.48
5.11
3.75
2.59
1.73
1.08
0.49
-0.21
-1.06
-2.02
-3.0
-3.92
-4.74
-5.45
-6.02
-6.44
-6.71
-6.97
-7.37
-8.07
-9.13
-10.42
-11.67
-12.64
-13.09
-12.96
-12.29
-11.13
-9.56
-7.65
-5.47
-3.11
-0.72
1.6
3.75
5.71
7.47
8.99
10.24
11.17
11.71
11.88
11.7
11.3
10.84
10.5
10.43
10.69
11.21
11.87
12.45
12.86
13.08
13.22
13.43
13.74
14.06
14.14
13.76
12.83
11.5
10.08
8.89
8.13
7.75
7.53
7.2
6.59
5.66
4.49
3.25
2.08
1.09
0.33
-0.25
-0.69
-1.13
-1.69
-2.44
-3.4
-4.57
-5.91
-7.35
-8.78
-10.02
-10.87
-11.22
-11.12
-10.77
-10.44
-10.26
-10.18
-9.95
-9.28
-8.08
-6.52
-4.94
-3.62
-2.64
-1.83
-0.94
0.17
1.42
2.57
3.39
3.83
4.06
4.4
5.09
6.12
7.35
8.45
9.21
9.56
9.57
9.42
9.21
8.96
8.64
8.22
7.72
7.22
6.79
6.49
6.27
6.05
5.76
5.34
4.84
4.34
3.92
3.59
3.26
2.76
1.88
0.59
-1.11
-2.99
-4.86
-6.56
-8.06
-9.4
-10.66
-11.84
-12.85
-13.54
-13.75
-13.42
-12.54
-11.13
-9.25
-6.95
-4.36
-1.71
0.74
2.76
4.21
5.15
5.71
6.05
6.29
6.52
6.77
7.12
7.65
8.4
9.3
10.2
10.92
11.32
11.4
11.25
11.01
10.73
10.42
10.04
9.59
9.09
8.57
8.02
7.36
6.58
5.68
4.8
4.09
3.62
3.37
3.22
3.02
2.63
2.01
1.17
0.08
-1.26
-2.83
-4.53
-6.16
-7.46
-8.31
-8.76
-8.98
-9.25
-9.68
-10.29
-10.92
-11.41
-11.67
-11.69
-11.51
-11.12
-10.45
-9.34
-7.76
-5.84
-3.81
-2.02
-0.69
0.12
0.55
0.84
1.19
1.76
2.56
3.59
4.74
5.91
6.99
7.88
8.55
9.04
9.43
9.78
10.06
10.23
10.24
10.14
10.05
10.09
10.34
10.73
11.11
11.37
11.43
11.32
11.1
10.78
10.33
9.67
8.82
7.82
6.73
5.66
4.66
3.72
2.89
2.21
1.66
1.24
0.86
0.43
-0.13
-0.77
-1.41
-1.92
-2.21
-2.27
-2.2
-2.08
-1.92
-1.66
-1.14
-0.27
0.96
2.46
3.98
5.36
6.43
7.21
7.75
8.13
8.38
8.55
8.59
8.53
8.4
8.19
7.89
7.48
6.98
6.48
6.07
5.81
5.62
5.34
4.75
3.75
2.44
1.08
-0.01
-0.63
-0.76
-0.52
-0.13
0.29
0.7
1.12
1.52
1.84
2.0
1.97
1.82
1.68
1.62
1.7
1.82
1.8
1.45
0.67
-0.49
-1.85
-3.23
-4.46
-5.52
-6.48
-7.48
-8.6
-9.82
-11.0
-11.96
-12.58
-12.84
-12.82
-12.59
-12.17
-11.53
-10.62
-9.4
-7.94
-6.35
-4.78
-3.28
-1.84
-0.46
0.87
2.03
2.87
3.26
3.25
2.93
2.46
1.93
1.31
0.58
-0.26
-1.1
-1.75
-2.12
-2.21
-2.16
-2.18
-2.42
-2.93
-3.63
-4.36
-4.98
-5.39
-5.59
-5.61
-5.57
-5.54
-5.61
-5.81
-6.12
-6.53
-6.98
-7.39
-7.62
-7.59
-7.25
-6.71
-6.2
-5.92
-6.02
-6.41
-6.9
-7.22
-7.14
-6.6
-5.66
-4.46
-3.2
-2.03
-1.08
-0.42
-0.03
0.17
0.34
0.63
1.11
1.74
2.43
3.04
3.5
3.82
4.07
4.35
4.72
5.16
5.6
5.93
6.11
6.16
6.14
6.12
6.11
6.04
5.77
5.2
4.31
3.2
2.1
1.26
0.79
0.66
0.67
0.61
0.36
-0.07
-0.57
-1.02
-1.41
-1.8
-2.25
-2.77
-3.31
-3.8
-4.21
-4.57
-4.99
-5.57
-6.31
-7.15
-8.01
-8.79
-9.42
-9.86
-10.02
-9.86
-9.28
-8.28
-6.94
-5.38
-3.76
-2.24
-0.92
0.18
1.06
1.76
2.31
2.76
3.1
3.39
3.65
3.93
4.29
4.73
5.19
5.57
5.78
5.82
5.77
5.77
5.89
6.08
6.19
6.07
5.67
5.07
4.49
4.14
4.08
4.2
4.3
4.2
3.86
3.38
2.92
2.57
2.3
1.96
1.43
0.68
-0.15
-0.84
-1.22
-1.28
-1.16
-1.13
-1.38
-1.97
-2.76
-3.5
-3.97
-4.06
-3.9
-3.75
-3.92
-4.58
-5.69
-7.03
-8.26
-9.09
-9.37
-9.08
-8.32
-7.23
-5.93
-4.55
-3.16
-1.81
-0.55
0.6
1.6
2.43
3.05
3.44
3.64
3.74
3.82
3.96
4.15
4.38
4.57
4.71
4.79
4.81
4.73
4.53
4.18
3.68
3.13
2.63
2.24
2.01
1.92
1.95
2.02
2.1
2.1
1.94
1.54
0.9
0.06
-0.82
-1.64
-2.29
-2.76
-3.09
-3.32
-3.49
-3.62
-3.74
-3.87
-4.03
-4.21
-4.37
-4.47
-4.51
-4.51
-4.51
-4.56
-4.6
-4.56
-4.34
-3.86
-3.15
-2.27
-1.32
-0.42
0.38
1.09
1.75
2.41
3.11
3.81
4.44
4.89
5.11
5.12
4.99
4.83
4.69
4.59
4.51
4.48
4.54
4.71
4.98
5.27
5.43
5.35
4.94
4.21
3.3
2.36
1.52
0.87
0.43
0.11
-0.19
-0.57
-1.11
-1.81
-2.57
-3.25
-3.68
-3.72
-3.37
-2.78
-2.14
-1.69
-1.53
-1.69
-2.01
-2.38
-2.71
-3.01
-3.32
-3.67
-4.11
-4.59
-5.09
-5.61
-6.1
-6.48
-6.63
-6.47
-5.97
-5.23
-4.39
-3.61
-2.9
-2.24
-1.56
-0.86
-0.21
0.31
0.7
1.0
1.32
1.73
2.21
2.68
3.03
3.17
3.11
2.89
2.62
2.4
2.26
2.23
2.24
2.2
2.01
1.62
1.07
0.48
-0.02
-0.38
-0.6
-0.79
-1.04
-1.4
-1.83
-2.24
-2.59
-2.87
-3.16
-3.49
-3.87
-4.28
-4.65
-4.99
-5.38
-5.93
-6.75
-7.82
-9.08
-10.37
-11.58
-12.62
-13.46
-14.1
-14.56
-14.85
-14.92
-14.72
-14.18
-13.26
-11.99
-10.48
-8.82
-7.17
-5.59
-4.13
-2.76
-1.46
-0.2
1.01
2.15
3.22
4.17
4.97
5.59
5.99
6.21
6.27
6.21
6.05
5.8
5.5
5.14
4.79
4.47
4.2
3.98
3.82
3.68
3.54
3.37
3.19
3.02
2.92
2.91
2.98
3.03
2.93
2.54
1.82
0.84
-0.27
-1.32
-2.22
-2.94
-3.54
-4.1
-4.69
-5.33
-6.06
-6.86
-7.7
-8.53
-9.26
-9.79
-10.05
-10.05
-9.82
-9.43
-8.89
-8.16
-7.17
-5.84
-4.2
-2.37
-0.52
1.18
2.6
3.75
4.65
5.39
5.99
6.46
6.74
6.85
6.83
6.83
6.98
7.34
7.89
8.51
9.08
9.5
9.75
9.88
9.92
9.9
9.81
9.71
9.65
9.66
9.75
9.9
10.0
9.98
9.76
9.3
8.61
7.7
6.65
5.52
4.38
3.27
2.2
1.13
0.02
-1.1
-2.17
-3.1
-3.81
-4.37
-4.85
-5.38
-6.06
-6.88
-7.74
-8.53
-9.14
-9.54
-9.79
-9.96
-10.1
-10.21
-10.24
-10.09
-9.73
-9.1
-8.25
-7.21
-6.04
-4.74
-3.31
-1.71
-0.01
1.67
3.16
4.32
5.12
5.64
6.04
6.42
6.82
7.14
7.28
7.17
6.86
6.48
6.1
5.77
5.43
5.05
4.68
4.44
4.43
4.68
5.08
5.44
5.61
5.54
5.27
4.94
4.62
4.34
4.09
3.8
3.48
3.1
2.65
2.09
1.39
0.53
-0.49
-1.61
-2.75
-3.84
-4.83
-5.69
-6.44
-7.1
-7.67
-8.12
-8.32
-8.13
-7.42
-6.1
-4.2
-1.89
0.58
2.97
5.07
6.77
8.03
8.9
9.39
9.54
9.41
9.04
8.56
8.09
7.74
7.51
7.32
7.05
6.62
6.04
5.41
4.83
4.35
3.92
3.41
2.73
1.9
1.02
0.24
-0.34
-0.71
-0.96
-1.18
-1.4
-1.57
-1.64
-1.64
-1.69
-1.99
-2.72
-3.92
-5.47
-7.08
-8.45
-9.39
-9.9
-10.07
-10.09
-10.12
-10.2
-10.34
-10.46
-10.5
-10.41
-10.16
-9.74
-9.18
-8.53
-7.81
-7.04
-6.26
-5.42
-4.54
-3.63
-2.72
-1.89
-1.14
-0.49
0.15
0.82
1.54
2.28
3.07
3.91
4.85
5.91
7.02
8.02
8.73
9.09
9.13
9.01
8.88
8.81
8.79
8.77
8.7
8.67
8.73
8.87
8.96
8.84
8.34
7.45
6.29
5.06
3.98
3.15
2.61
2.26
1.95
1.55
0.9
-0.01
-1.12
-2.31
-3.44
-4.41
-5.25
-6.02
-6.82
-7.69
-8.55
-9.29
-9.82
-10.12
-10.28
-10.44
-10.62
-10.74
-10.58
-9.89
-8.58
-6.72
-4.57
-2.47
-0.67
0.73
1.77
2.54
3.18
3.74
4.25
4.7
5.05
5.27
5.37
5.44
5.58
5.88
6.37
6.9
7.25
7.2
6.7
5.88
5.04
4.46
4.21
4.16
4.03
3.63
2.95
2.14
1.52
1.27
1.36
1.62
1.76
1.57
0.98
0.06
-1.03
-2.2
-3.38
-4.58
-5.83
-7.06
-8.21
-9.15
-9.81
-10.2
-10.35
-10.32
-10.12
-9.71
-8.96
-7.8
-6.28
-4.56
-2.91
-1.59
-0.74
-0.35
-0.26
-0.32
-0.36
-0.29
-0.07
0.38
1.13
2.22
3.56
4.95
6.17
7.04
7.51
7.69
7.72
7.68
7.59
7.37
6.95
6.37
5.75
5.18
4.77
4.48
4.23
3.87
3.33
2.63
1.85
1.09
0.36
-0.4
-1.31
-2.45
-3.86
-5.47
-7.17
-8.87
-10.49
-12.03
-13.42
-14.62
-15.58
-16.29
-16.86
-17.39
-17.92
-18.36
-18.49
-18.06
-16.91
-15.1
-12.85
-10.42
-8.01
-5.7
-3.46
-1.23
0.98
3.06
4.89
6.35
7.42
8.15
8.65
9.04
9.43
9.89
10.5
11.29
12.28
13.39
14.51
15.5
16.23
16.61
16.63
16.33
15.8
15.15
14.51
13.96
13.51
13.09
12.59
11.95
11.17
10.31
9.43
8.56
7.64
6.56
5.27
3.82
2.24
0.62
-1.0
-2.65
-4.3
-5.9
-7.32
-8.5
-9.42
-10.21
-11.0
-11.91
-12.95
-14.02
-14.98
-15.66
-15.94
-15.71
-14.9
-13.51
-11.61
-9.43
-7.24
-5.37
-3.99
-3.08
-2.48
-1.89
-1.06
0.13
1.63
3.24
4.73
5.98
6.98
7.81
8.61
9.39
10.11
10.66
10.95
10.97
10.76
10.41
9.94
9.34
8.58
7.73
6.88
6.22
5.91
6.0
6.4
6.88
7.13
6.92
6.13
4.84
3.27
1.66
0.26
-0.87
