-53.07
-58.72
-63.35
-65.49
-63.78
-57.36
-46.41
-32.11
-16.47
-1.61
10.83
20.1
26.3
30.05
32.08
32.97
33.08
32.61
31.76
30.73
29.68
28.73
27.88
27.09
26.32
25.55
24.81
24.17
23.63
23.13
22.48
21.38
19.54
16.76
13.12
8.96
4.75
0.94
-2.29
-5.04
-7.71
-10.71
-14.27
-18.33
-22.52
-26.37
-29.46
-31.64
-33.14
-34.44
-36.17
-38.96
-43.15
-48.59
-54.49
-59.47
-61.78
-59.91
-53.1
-41.73
-27.29
-11.89
2.44
14.32
23.32
29.74
34.19
37.21
39.08
39.9
39.74
38.85
37.61
36.35
35.33
34.57
33.92
33.21
32.37
31.41
30.43
29.55
28.84
28.22
27.51
26.47
24.85
22.5
19.39
15.6
11.35
6.95
2.72
-1.04
-4.19
-6.73
-8.86
-10.88
-13.08
-15.66
-18.64
-21.89
-25.21
-28.41
-31.41
-34.25
-37.09
-40.17
-43.79
-48.19
-53.37
-58.94
-64.02
-67.28
-67.3
-63.01
-54.11
-41.35
-26.33
-11.0
2.87
14.2
22.74
28.86
33.21
36.32
38.48
39.77
40.2
39.93
39.23
38.36
37.54
36.83
36.17
35.46
34.65
33.73
32.72
31.59
30.27
28.68
26.74
24.5
22.11
19.75
17.57
15.64
13.81
11.86
9.54
6.71
3.41
-0.06
-3.35
-6.11
-8.27
-9.99
-11.7
-13.84
-16.7
-20.29
-24.33
-28.41
-32.11
-35.2
-37.71
-39.97
-42.5
-45.85
-50.4
-56.03
-62.03
-67.04
-69.41
-67.7
-61.22
-50.39
-36.62
-21.92
-8.21
3.17
11.75
17.77
21.85
24.65
26.67
28.18
29.37
30.44
31.59
32.98
34.58
36.18
37.45
38.1
37.98
37.18
35.97
34.68
33.53
32.51
31.37
29.76
27.3
23.86
19.57
14.87
10.3
6.36
3.28
0.93
-1.11
-3.33
-6.13
-9.61
-13.55
-17.56
-21.24
-24.33
-26.86
-29.05
-31.28
-34.0
-37.53
-42.02
-47.25
-52.53
-56.65
-58.21
-55.92
-49.2
-38.43
-24.94
-10.58
2.85
14.14
22.85
29.18
33.59
36.48
38.08
38.48
37.84
36.45
34.77
33.21
32.01
31.19
30.58
29.95
29.08
27.95
26.64
25.35
24.21
23.27
22.37
21.26
19.61
17.21
14.04
10.26
6.17
2.1
-1.7
-5.16
-8.3
-11.28
-14.3
-17.51
-20.98
-24.59
-28.11
-31.25
-33.83
-35.88
-37.7
-39.79
-42.67
-46.73
-51.96
-57.87
-63.48
-67.42
-68.29
-65.0
-57.17
-45.38
-31.02
-15.92
-1.84
10.0
19.11
25.67
30.21
33.32
35.48
36.94
37.87
38.36
38.53
38.48
38.29
38.01
37.61
37.06
36.34
35.47
34.53
33.66
33.03
32.7
32.55
32.3
31.54
29.93
27.33
23.91
20.13
16.56
13.65
11.55
10.03
8.7
7.11
5.07
2.62
0.0
-2.51
-4.76
-6.77
-8.69
-10.71
-13.04
-15.89
-19.37
-23.45
-27.72
-31.2
-32.49
-30.07
-22.93
-11.11
4.04
20.16
34.48
44.73
49.61
49.06
43.99
35.82
26.06
16.03
6.76
-1.07
-7.06
-11.09
-13.32
-14.05
-13.63
-12.4
-10.58
-8.34
-5.81
-3.06
-0.23
2.59
5.28
7.69
9.66
11.1
11.99
12.41
12.45
12.12
11.28
9.62
6.83
2.71
-2.68
-9.02
-15.87
-22.85
-29.79
-36.69
-43.71
-50.9
-58.13
-64.95
-70.64
-74.33
-75.22
-72.78
-66.99
-58.34
-47.76
-36.45
-25.53
-15.86
-7.92
-1.79
2.67
5.71
7.56
8.46
8.62
8.33
7.88
7.53
7.42
7.55
7.83
8.12
8.34
8.52
8.75
9.17
9.81
10.56
11.1
11.08
10.17
8.29
5.66
2.73
-0.02
-2.28
-4.09
-5.75
-7.72
-10.3
-13.48
-16.97
-20.29
-23.0
-24.93
-26.25
-27.42
-29.03
-31.63
-35.59
-40.93
-47.27
-53.73
-58.97
-61.44
-59.74
-53.15
-41.99
-27.61
-12.01
2.78
15.37
25.24
32.69
38.4
42.97
46.71
49.56
51.37
52.09
51.85
50.94
49.67
48.27
46.86
45.47
44.15
42.96
41.95
41.14
40.46
39.73
38.73
37.25
35.16
32.43
29.13
25.41
21.48
17.57
13.9
10.62
7.77
5.28
2.96
0.57
-2.12
-5.25
-8.83
-12.74
-16.69
-20.43
-23.73
-26.59
-29.18
-31.86
-35.05
-39.12
-44.26
-50.34
-56.75
-62.36
-65.65
-65.12
-59.81
-49.72
-35.98
-20.54
-5.51
7.44
17.56
24.92
30.11
33.79
36.34
37.93
38.59
38.47
37.78
36.85
35.88
34.94
33.92
32.68
31.17
29.48
27.89
26.68
26.01
25.8
25.71
25.27
24.03
21.79
18.66
15.02
11.33
8.02
5.25
2.95
0.8
-1.53
-4.26
-7.42
-10.77
-13.97
-16.7
-18.85
-20.56
-22.23
-24.39
-27.6
-32.17
-38.09
-44.77
-51.09
-55.49
-56.42
-52.8
-44.48
-32.35
-18.15
-3.9
8.69
18.66
25.84
30.62
33.61
35.29
35.97
35.76
34.81
33.34
31.66
30.02
28.58
27.4
26.39
25.49
24.66
23.98
23.55
23.39
23.42
23.39
23.02
22.08
20.51
18.45
16.1
13.63
11.15
8.66
6.17
3.71
1.39
-0.75
-2.79
-5.01
-7.71
-11.08
-15.0
-19.15
-23.06
-26.4
-29.06
-31.21
-33.19
-35.4
-38.22
-42.04
-47.07
-53.22
-59.78
-65.34
-68.05
-66.14
-58.72
-46.19
-30.3
-13.54
1.73
13.95
22.73
28.58
32.36
34.9
36.6
37.63
38.03
37.93
37.57
37.17
36.83
36.47
35.89
34.91
33.54
31.97
30.51
29.45
28.84
28.52
28.05
27.01
25.15
22.49
19.35
16.16
13.29
10.9
8.87
6.93
4.77
2.24
-0.6
-3.48
-6.14
-8.41
-10.32
-12.08
-14.01
-16.36
-19.22
-22.49
-25.89
-29.09
-31.84
-34.1
-36.05
-38.11
-40.79
-44.55
-49.62
-55.71
-61.89
-66.64
-68.16
-64.92
-56.32
-42.99
-26.72
-9.89
5.3
17.48
26.33
32.29
36.15
38.57
39.9
40.34
40.04
39.29
38.43
37.71
37.17
36.65
35.93
34.86
33.5
32.05
30.84
30.06
29.76
29.72
29.58
28.94
27.48
25.08
21.93
18.4
14.95
11.96
9.57
7.68
6.02
4.29
2.32
0.13
-2.17
-4.4
-6.45
-8.33
-10.18
-12.21
-14.62
-17.54
-20.94
-24.59
-28.18
-31.38
-33.99
-36.11
-38.08
-40.41
-43.62
-48.01
-53.48
-59.4
-64.58
-67.47
-66.56
-60.95
-50.69
-37.0
-21.8
-7.2
5.31
15.08
22.29
27.52
31.29
33.85
35.19
35.34
34.53
33.23
31.97
31.12
30.74
30.6
30.36
29.73
28.67
27.38
26.18
25.35
24.93
24.72
24.26
23.09
20.86
17.56
13.43
8.97
4.67
0.9
-2.22
-4.85
-7.34
-10.01
-13.05
-16.4
-19.8
-22.92
-25.5
-27.52
-29.24
-31.12
-33.69
-37.34
-42.21
-48.08
-54.31
-59.77
-63.09
-62.88
-58.16
-48.78
-35.61
-20.35
-5.06
8.44
19.07
26.64
31.56
34.54
36.17
36.85
36.83
36.34
35.63
34.99
34.51
34.18
33.86
33.41
32.79
32.13
31.61
31.33
31.23
31.11
30.68
29.7
28.04
25.75
23.01
20.02
16.97
13.92
10.86
7.75
4.57
1.36
-1.75
-4.62
-7.23
-9.68
-12.18
-14.93
-18.03
-21.44
-24.89
-28.12
-30.94
-33.35
-35.6
-38.08
-41.25
-45.44
-50.71
-56.78
-62.86
-67.73
-69.91
-68.05
-61.37
-50.13
-35.59
-19.77
-4.73
8.0
17.79
24.88
29.96
33.72
36.55
38.54
39.68
40.09
40.05
39.89
39.83
39.82
39.65
39.05
37.94
36.47
34.94
33.64
32.71
32.01
31.23
30.0
28.1
25.49
22.33
18.91
15.48
12.25
9.27
6.53
3.96
1.51
-0.87
-3.23
-5.61
-8.13
-10.87
-13.9
-17.25
-20.79
-24.35
-27.68
-30.58
-33.0
-35.09
-37.23
-39.9
-43.57
-48.4
-54.1
-59.8
-64.17
-65.74
-63.32
-56.47
-45.67
-32.27
-18.04
-4.71
6.54
15.22
21.47
25.83
28.84
30.88
32.12
32.64
32.53
32.02
31.39
30.87
30.51
30.14
29.54
28.54
27.23
25.89
24.85
24.22
23.81
23.14
21.75
19.44
16.4
13.09
10.0
7.41
5.26
3.24
0.98
-1.76
-5.02
-8.66
-12.41
-15.97
-19.15
-21.87
-24.24
-26.58
-29.34
-32.93
-37.61
-43.23
-49.13
-54.2
-57.04
-56.35
-51.35
-42.14
-29.74
-15.84
-2.31
9.33
18.35
24.74
29.03
31.86
33.71
34.8
35.21
35.01
34.37
33.55
32.79
32.19
31.78
31.41
30.93
30.24
29.39
28.49
27.72
27.14
26.64
25.94
24.69
22.59
19.57
15.85
11.83
7.99
4.7
2.06
-0.07
-2.11
-4.48
-7.56
-11.4
-15.8
-20.3
-24.42
-27.84
-30.55
-32.88
-35.36
-38.51
-42.7
-48.02
-54.21
-60.59
-66.11
-69.39
-69.07
-64.2
-54.65
-41.32
-25.94
-10.55
3.11
14.04
22.11
27.77
31.66
34.32
36.13
37.29
37.98
38.45
38.86
39.34
39.87
40.31
40.51
40.38
39.88
39.11
38.16
37.12
36.03
34.84
33.46
31.76
29.68
27.22
24.51
21.71
18.94
16.24
13.5
10.58
7.35
3.84
0.21
-3.27
-6.36
-9.04
-11.54
-14.29
-17.68
-21.87
-26.65
-31.51
-35.9
-39.41
-42.06
-44.22
-46.52
-49.5
-53.48
-58.35
-63.55
-68.11
-70.76
-70.23
-65.58
-56.55
-43.8
-28.83
-13.56
0.22
11.32
19.38
24.76
28.21
30.45
32.0
33.12
33.9
34.43
34.83
35.17
35.47
35.64
35.52
34.97
34.02
32.81
31.6
30.61
29.94
29.46
28.92
27.99
26.41
24.12
21.23
18.0
14.78
11.82
9.22
6.87
4.53
1.86
-1.37
-5.19
-9.39
-13.61
-17.49
-20.85
-23.81
-26.74
-30.15
-34.39
-39.59
-45.43
-51.21
-55.88
-58.23
-57.25
-52.36
-43.77
-32.37
-19.61
-7.08
3.93
12.7
19.09
23.39
26.11
27.68
28.47
28.73
28.61
28.24
27.67
27.01
26.33
25.72
25.26
24.94
24.76
24.64
24.5
24.23
23.76
22.98
21.8
20.16
18.04
15.48
12.54
9.36
6.07
2.82
-0.27
-3.11
-5.72
-8.18
-10.64
-13.19
-15.87
-18.63
-21.39
-24.05
-26.56
-28.88
-31.04
-33.05
-35.06
-37.32
-40.21
-44.09
-49.11
-55.0
-60.87
-65.31
-66.73
-63.8
-56.05
-44.09
-29.5
-14.32
-0.41
11.04
19.75
26.06
30.61
33.96
36.48
38.37
39.8
40.88
41.68
42.21
42.33
41.94
41.0
39.68
38.27
37.07
36.26
35.83
35.6
35.24
34.46
33.05
30.92
28.14
24.88
21.42
18.0
14.83
11.99
9.41
6.88
4.16
1.12
-2.23
-5.66
-8.88
-11.67
-14.05
-16.25
-18.6
-21.37
-24.58
-28.01
-31.37
-34.47
-37.33
-40.19
-43.38
-47.16
-51.58
-56.37
-60.9
-64.24
-65.24
-62.86
-56.48
-46.23
-33.12
-18.78
-5.01
6.79
15.94
22.5
27.0
30.03
32.01
33.06
33.27
32.79
31.94
31.14
30.7
30.67
30.85
30.87
30.44
29.49
28.24
27.05
26.18
25.62
25.05
23.96
21.94
18.88
15.08
11.08
7.5
4.69
2.71
1.28
-0.03
-1.64
-3.81
-6.66
-10.14
-14.11
-18.4
-22.86
-27.44
-32.21
-37.35
-43.09
-49.48
-56.19
-62.36
-66.66
-67.61
-64.12
-55.9
-43.75
-29.28
-14.51
-1.14
9.82
18.18
24.33
28.84
32.1
34.3
35.46
35.69
35.27
34.59
34.0
33.61
33.33
32.94
32.32
31.54
30.82
30.4
30.24
30.04
29.32
27.63
24.8
20.98
16.62
12.23
8.28
5.03
2.54
0.72
-0.66
-1.9
-3.33
-5.23
-7.69
-10.62
-13.68
-16.5
-18.77
-20.39
-21.48
-22.35
-23.39
-24.95
-27.32
-30.56
-34.47
-38.48
-41.77
-43.39
-42.68
-39.51
-34.41
-28.39
-22.55
-17.7
-14.11
-11.52
-9.4
-7.2
-4.56
-1.39
2.26
6.2
10.23
14.09
17.57
20.56
23.03
25.11
26.94
28.62
30.16
31.45
32.41
32.97
33.14
32.91
32.28
31.18
29.49
27.17
24.31
21.12
17.9
14.93
12.29
9.91
7.55
4.9
1.72
-2.12
-6.59
-11.49
-16.53
-21.41
-25.92
-30.03
-33.83
-37.63
-41.85
-46.96
-53.35
-61.02
-69.38
-77.14
-82.43
-83.36
-78.74
-68.61
-54.38
-38.35
-22.94
-9.87
0.18
7.44
12.61
16.4
19.24
21.33
22.81
23.84
24.61
25.29
25.96
26.63
27.33
28.08
28.94
29.96
31.09
32.25
33.24
33.8
33.58
32.24
29.6
25.71
20.94
15.85
10.94
6.49
2.46
-1.39
-5.25
-9.15
-12.85
-16.04
-18.57
-20.6
-22.64
-25.41
-29.58
-35.48
-42.9
-50.92
-58.03
-62.46
-62.65
-57.76
-48.04
-34.73
-19.73
-4.94
8.24
19.12
27.7
34.34
39.44
43.27
45.94
47.49
48.01
47.63
46.61
45.21
43.69
42.29
41.16
40.36
39.89
39.74
39.93
40.42
41.08
41.64
41.64
40.58
38.1
34.18
29.16
23.67
18.42
13.96
10.47
7.75
5.31
2.63
-0.65
-4.53
-8.73
-12.82
-16.4
-19.39
-21.98
-24.63
-27.92
-32.35
-38.29
-45.71
-54.1
-62.27
-68.47
-70.79
-67.79
-59.09
-45.63
-29.5
-13.1
1.53
13.3
22.07
28.34
32.71
35.62
37.3
37.97
37.96
37.67
37.47
37.47
37.56
37.46
36.94
35.93
34.66
33.43
32.54
32.11
32.04
32.06
31.81
30.99
29.38
26.94
23.78
20.21
16.62
13.38
10.76
8.78
7.17
5.46
3.15
-0.09
-4.27
-9.07
-13.93
-18.31
-21.93
-24.85
-27.48
-30.38
-34.09
-38.96
-45.08
-52.13
-59.34
-65.46
-68.93
-68.28
-62.65
-52.17
-38.06
-22.27
-6.89
6.48
17.05
24.85
30.35
34.15
36.67
38.12
38.61
38.3
37.42
36.25
35.06
33.99
33.03
32.09
31.11
30.12
29.24
28.6
28.25
28.03
27.68
26.83
25.22
22.74
19.49
15.81
12.07
8.63
5.68
3.15
0.82
-1.63
-4.47
-7.78
-11.4
-15.0
-18.25
-20.94
-23.09
-24.97
-27.0
-29.68
-33.42
-38.45
-44.77
-52.0
-59.32
-65.42
-68.76
-67.91
-62.1
-51.61
-37.77
-22.61
-8.14
4.23
13.98
21.36
26.91
31.08
34.03
35.69
36.08
35.46
34.34
33.27
32.64
32.53
32.73
32.95
32.94
32.63
32.14
31.66
31.26
30.86
30.22
29.0
26.91
23.86
20.01
15.71
11.44
7.6
4.4
1.7
-0.84
-3.68
-7.14
-11.25
-15.78
-20.29
-24.38
-27.84
-30.73
-33.35
-36.11
-39.4
-43.46
-48.34
-53.76
-59.07
-63.22
-64.97
-63.17
-57.26
-47.43
-34.78
-20.89
-7.38
4.54
14.33
22.04
28.02
32.64
36.05
38.29
39.33
39.3
38.46
37.18
35.76
34.35
32.94
31.42
29.73
27.98
26.4
25.26
24.66
24.41
24.09
23.2
21.41
18.71
15.46
12.14
9.14
6.52
3.95
0.91
-3.07
-8.11
-13.94
-19.97
-25.58
-30.34
-34.19
-37.43
-40.57
-44.19
-48.7
-54.26
-60.6
-66.96
-72.07
-74.37
-72.4
-65.37
-53.55
-38.32
-21.77
-6.06
7.25
17.5
24.81
29.76
32.92
34.67
35.28
35.04
34.34
33.68
33.45
33.8
34.55
35.4
35.99
36.18
36.02
35.73
35.49
35.34
35.14
34.6
33.4
31.29
28.23
24.33
19.92
15.36
11.04
7.18
3.77
0.56
-2.79
-6.63
-11.05
-15.85
-20.62
-24.91
-28.44
-31.24
-33.71
-36.48
-40.25
-45.48
-52.16
-59.6
-66.44
-70.95
-71.52
-67.24
-58.22
-45.65
-31.4
-17.43
-5.25
4.4
11.47
16.37
19.62
21.67
22.88
23.49
23.79
24.01
24.34
24.76
25.15
25.34
25.19
24.71
23.99
23.1
22.03
20.61
18.62
15.89
12.46
8.64
4.92
1.87
-0.17
-1.13
-1.28
-1.12
-1.17
-1.86
-3.35
-5.62
-8.46
-11.64
-15.04
-18.64
-22.64
-27.37
-33.15
-40.02
-47.48
-54.33
-58.87
-59.35
-54.59
-44.54
-30.35
-14.07
2.03
16.13
27.26
35.36
40.94
44.73
47.35
49.23
50.55
51.41
51.74
51.42
50.27
48.12
44.94
40.9
36.44
32.13
28.5
25.84
24.11
22.87
21.58
19.7
17.01
13.6
9.81
6.07
2.59
-0.68
-4.01
-7.73
-12.07
-17.06
-22.44
-27.91
-33.07
-37.67
-41.6
-44.98
-48.15
-51.61
-55.88
-61.31
-67.85
-74.81
-80.89
-84.44
-83.9
-78.35
-67.92
-53.84
-38.07
-22.73
-9.43
1.08
8.94
14.85
19.52
23.41
26.58
28.89
30.24
30.78
30.88
30.93
31.23
31.79
32.48
33.1
33.52
33.76
33.85
33.74
33.34
32.47
31.06
29.18
27.01
24.72
22.38
19.88
17.06
13.81
10.16
6.29
2.44
-1.2
-4.65
-8.03
-11.61
-15.71
-20.65
-26.68
-33.74
-41.34
-48.38
-53.31
-54.62
-51.36
-43.62
-32.62
-20.28
-8.51
1.38
9.04
14.85
19.46
23.31
26.37
28.28
28.73
27.68
25.56
23.07
20.9
19.53
18.99
19.03
19.18
19.08
18.48
17.4
15.96
14.32
12.56
10.59
8.26
5.36
1.84
-2.24
-6.71
-11.3
-15.8
-20.01
-23.82
-27.25
-30.42
-33.62
-37.28
-41.82
-47.53
-54.37
-61.74
-68.52
-73.18
-74.17
-70.36
-61.54
-48.52
-32.97
-16.96
-2.29
9.87
19.17
25.91
30.69
34.02
36.2
37.31
37.38
36.52
35.03
33.31
31.76
30.61
29.96
29.66
29.53
29.38
29.11
28.67
27.97
26.95
25.5
23.61
21.34
18.81
16.12
13.24
10.0
6.27
2.04
-2.51
-6.99
-11.03
-14.42
-17.29
-20.02
-23.17
-27.25
-32.51
-38.84
-45.55
-51.46
-54.99
-54.64
-49.49
-39.58
-26.1
-11.05
3.43
15.7
25.08
31.7
36.21
39.21
40.97
41.47
40.59
38.47
35.54
32.47
29.88
28.1
27.05
26.28
25.23
23.44
20.73
17.21
13.19
9.0
4.89
0.97
-2.73
-6.28
-9.71
-13.04
-16.25
-19.31
-22.19
-24.89
-27.43
-29.84
-32.17
-34.47
-36.8
-39.34
-42.37
-46.3
-51.38
-57.45
-63.61
-68.3
-69.68
-66.26
-57.58
-44.43
-28.67
-12.58
1.96
13.95
23.39
30.87
37.07
42.39
46.79
50.02
51.84
52.3
51.69
50.45
48.99
47.58
46.26
44.95
43.63
42.32
41.13
40.23
39.65
39.28
38.86
37.99
36.28
33.5
29.68
25.12
20.34
15.84
11.98
8.79
6.01
3.19
-0.11
-4.15
-8.85
-13.9
-18.82
-23.21
-26.86
-29.78
-32.26
-34.77
-37.87
-42.14
-47.96
-55.31
-63.5
-71.14
-76.33
-77.17
-72.46
-62.16
-47.5
-30.67
-14.01
0.64
12.44
21.47
28.39
33.88
38.37
41.95
44.52
46.06
46.73
46.78
46.46
45.93
45.25
44.44
43.62
42.96
42.65
42.77
43.19
43.57
43.48
42.52
40.48
37.4
33.63
29.67
25.96
22.77
20.06
17.56
14.89
11.8
8.26
4.48
0.78
-2.55
-5.45
-8.06
-10.75
-13.86
-17.56
-21.71
-25.95
-29.81
-32.96
-35.38
-37.43
-39.72
-42.97
-47.66
-53.94
-61.39
-68.94
-74.98
-77.69
-75.51
-67.81
-55.12
-39.14
-22.23
-6.62
6.23
15.89
22.82
27.88
31.77
34.79
36.85
37.78
37.67
36.88
35.98
35.41
35.29
35.33
35.1
34.28
32.91
31.34
30.05
29.32
29.07
28.88
28.14
26.39
23.47
19.61
15.27
11.08
7.5
4.76
2.73
1.02
-0.86
-3.31
-6.47
-10.17
-14.04
-17.7
-20.9
-23.67
-26.26
-29.12
-32.73
-37.53
-43.68
-50.96
-58.49
-64.86
-68.25
-67.11
-60.65
-49.29
-34.58
-18.74
-3.94
8.38
17.74
24.47
29.27
32.78
35.32
36.95
37.69
37.59
36.88
35.89
34.86
