39.45
33.71
26.66
19.18
12.22
6.45
2.0
-1.53
-4.88
-8.72
-13.42
-18.86
-24.52
-29.73
-33.99
-37.26
-39.95
-42.88
-46.99
-53.07
-61.51
-72.06
-83.56
-94.03
-100.9
-101.69
-94.91
-80.57
-60.4
-37.34
-14.6
5.25
20.9
32.28
40.14
45.49
49.1
51.41
52.6
52.77
52.17
51.13
50.07
49.31
49.0
49.11
49.48
49.94
50.44
50.95
51.46
51.78
51.58
50.45
48.12
44.55
40.01
34.92
29.74
24.77
20.09
15.69
11.52
7.59
4.03
0.9
-1.91
-4.7
-7.93
-11.96
-16.86
-22.34
-27.89
-32.96
-37.26
-40.83
-44.11
-47.75
-52.49
-58.97
-67.42
-77.38
-87.41
-95.24
-98.23
-94.27
-82.61
-64.33
-42.05
-19.13
1.44
17.77
29.32
36.63
40.76
42.81
43.63
43.73
43.41
42.81
42.05
41.24
40.51
39.97
39.71
39.75
40.03
40.47
40.99
41.48
41.79
41.69
40.95
39.35
36.82
33.45
29.48
25.19
20.75
16.28
11.87
7.61
3.68
0.25
-2.63
-5.02
-7.24
-9.66
-12.63
-16.29
-20.54
-25.07
-29.48
-33.52
-37.14
-40.59
-44.25
-48.66
-54.33
-61.53
-70.07
-79.0
-86.59
-90.59
-88.9
-80.37
-65.37
-45.78
-24.46
-4.31
12.55
25.25
33.94
39.32
42.16
42.97
42.11
39.93
36.95
33.83
31.26
29.74
29.42
30.1
31.36
32.72
33.83
34.61
35.1
35.37
35.3
34.53
32.57
29.06
23.99
17.86
11.53
5.88
1.46
-1.75
-4.28
-6.88
-10.16
-14.33
-19.07
-23.79
-27.84
-30.86
-32.93
-34.54
-36.49
-39.68
-44.84
-52.32
-61.82
-72.14
-81.25
-86.67
-86.16
-78.54
-64.21
-45.18
-24.38
-4.8
11.5
23.65
31.97
37.38
40.82
42.93
43.95
43.93
42.97
41.29
39.26
37.32
35.85
35.07
35.03
35.59
36.5
37.43
38.12
38.34
37.99
36.98
35.29
32.87
29.69
25.78
21.28
16.43
11.6
7.15
3.35
0.25
-2.29
-4.58
-6.95
-9.7
-12.96
-16.71
-20.77
-24.92
-28.95
-32.72
-36.23
-39.65
-43.27
-47.54
-52.97
-59.96
-68.43
-77.5
-85.43
-89.87
-88.61
-80.44
-65.74
-46.48
-25.61
-6.12
9.89
21.6
29.32
33.98
36.6
37.89
38.23
37.8
36.78
35.41
34.01
32.88
32.25
32.16
32.5
33.08
33.67
34.12
34.4
34.5
34.41
33.98
32.98
31.13
28.26
24.38
19.73
14.69
9.76
5.39
1.86
-0.8
-2.84
-4.72
-6.95
-9.89
-13.59
-17.73
-21.81
-25.35
-28.07
-30.11
-31.91
-34.08
-37.31
-42.1
-48.69
-56.9
-65.87
-74.05
-79.31
-79.58
-73.48
-61.02
-43.69
-24.12
-5.19
10.84
22.88
30.96
35.76
38.09
38.46
37.14
34.35
30.56
26.53
23.11
20.98
20.38
21.11
22.68
24.53
26.26
27.71
28.84
29.63
29.96
29.51
27.93
24.89
20.34
14.57
8.22
2.13
-2.95
-6.66
-9.17
-11.15
-13.5
-16.9
-21.53
-26.96
-32.39
-37.0
-40.37
-42.63
-44.38
-46.52
-49.95
-55.37
-62.97
-72.24
-81.75
-89.3
-92.41
-89.11
-78.76
-62.43
-42.57
-22.23
-4.0
10.64
21.45
29.04
34.23
37.69
39.83
40.85
41.01
40.66
40.18
39.85
39.8
40.04
40.48
41.04
41.66
42.37
43.19
44.09
44.93
45.43
45.24
44.06
41.82
38.59
34.62
30.18
25.48
20.68
15.99
11.64
7.87
4.84
2.47
0.41
-1.84
-4.75
-8.54
-13.04
-17.84
-22.46
-26.56
-30.15
-33.56
-37.3
-41.96
-48.05
-55.91
-65.47
-76.01
-85.98
-93.11
-94.98
-89.83
-77.31
-58.8
-37.06
-15.25
4.01
19.3
30.41
37.98
42.84
45.69
46.94
46.91
45.87
44.24
42.47
40.98
40.06
39.79
40.11
40.79
41.59
42.33
42.9
43.32
43.56
43.5
42.87
41.33
38.61
34.61
29.49
23.72
17.87
12.55
8.16
4.76
2.09
-0.4
-3.31
-7.02
-11.51
-16.37
-20.97
-24.76
-27.54
-29.52
-31.28
-33.55
-37.05
-42.36
-49.72
-58.85
-68.69
-77.41
-82.65
-82.22
-74.82
-60.75
-41.76
-20.67
-0.37
17.0
30.39
39.78
45.77
49.01
50.02
49.15
46.76
43.37
39.65
36.33
33.97
32.87
33.0
34.09
35.81
37.84
39.97
41.98
43.62
44.56
44.4
42.86
39.87
35.63
30.53
25.03
19.52
14.27
9.45
5.16
1.45
-1.71
-4.49
-7.18
-10.17
-13.78
-18.15
-23.16
-28.51
-33.77
-38.53
-42.56
-45.92
-49.0
-52.46
-57.17
-63.9
-72.99
-83.93
-95.14
-104.07
-107.88
-104.29
-92.47
-73.43
-49.82
-25.07
-2.35
16.21
29.88
39.08
44.8
48.11
49.81
50.39
50.15
49.34
48.27
47.24
46.52
46.28
46.51
47.17
48.14
49.33
50.67
52.01
53.11
53.63
53.17
51.46
48.43
44.31
39.52
34.54
29.76
25.34
21.26
17.33
13.43
9.52
5.72
2.26
-0.74
-3.36
-5.89
-8.78
-12.41
-16.9
-22.05
-27.42
-32.44
-36.77
-40.38
-43.64
-47.26
-52.1
-58.9
-67.92
-78.57
-89.22
-97.36
-100.27
-95.84
-83.47
-64.41
-41.36
-17.67
3.7
20.93
33.45
41.68
46.43
48.5
48.51
46.92
44.22
40.96
37.76
35.19
33.68
33.44
34.38
36.17
38.36
40.48
42.24
43.53
44.3
44.51
43.92
42.16
38.86
33.91
27.58
20.57
13.79
8.03
3.68
0.56
-2.01
-4.84
-8.6
-13.42
-18.96
-24.52
-29.42
-33.27
-36.13
-38.54
-41.22
-44.98
-50.48
-58.11
-67.65
-78.12
-87.6
-93.57
-93.59
-86.16
-71.4
-51.1
-28.2
-5.8
13.72
29.09
40.17
47.44
51.63
53.39
53.32
51.95
49.84
47.52
45.4
43.77
42.73
42.27
42.3
42.75
43.59
44.78
46.27
47.86
49.15
49.65
48.89
46.6
42.85
38.06
32.75
27.42
22.35
17.61
13.09
8.66
4.28
0.09
-3.71
-6.93
-9.59
-11.96
-14.56
-17.88
-22.21
-27.46
-33.18
-38.75
-43.69
-47.81
-51.39
-55.02
-59.53
-65.72
-74.05
-84.31
-95.28
-104.71
-109.8
-108.01
-98.0
-80.21
-56.88
-31.29
-6.78
14.15
30.24
41.38
48.21
51.69
52.79
52.36
51.15
49.7
48.33
47.17
46.22
45.44
44.83
44.47
44.51
45.09
46.26
47.92
49.75
51.24
51.84
51.04
48.64
44.77
39.85
34.38
28.79
23.32
18.03
12.94
8.09
3.56
-0.53
-4.19
-7.55
-10.85
-14.32
-18.12
-22.25
-26.55
-30.8
-34.78
-38.35
-41.55
-44.64
-48.08
-52.5
-58.57
-66.67
-76.51
-86.82
-95.36
-99.4
-96.59
-85.85
-67.91
-45.21
-21.06
1.38
19.95
33.84
43.27
48.93
51.54
51.58
49.46
45.67
40.92
36.01
31.73
28.6
26.85
26.46
27.21
28.78
30.87
33.19
35.43
37.28
38.37
38.26
36.55
32.98
27.59
20.88
13.65
6.77
0.86
-3.98
-8.19
-12.44
-17.31
-22.9
-28.76
-34.15
-38.38
-41.28
-43.29
-45.35
-48.62
-54.05
-61.98
-71.83
-82.04
-90.21
-93.73
-90.57
-79.97
-62.82
-41.43
-18.8
2.3
19.96
33.45
42.94
49.04
52.39
53.45
52.57
50.14
46.72
43.05
39.89
37.82
37.1
37.56
38.75
40.17
41.43
42.41
43.15
43.71
43.97
43.56
41.96
38.74
33.71
27.12
19.66
12.18
5.49
0.05
-4.23
-7.87
-11.62
-16.06
-21.32
-27.04
-32.54
-37.22
-40.8
-43.51
-45.99
-49.1
-53.72
-60.54
-69.78
-80.94
-92.46
-101.86
-106.23
-103.15
-91.66
-72.77
-49.23
-24.62
-2.17
16.11
29.67
39.06
45.27
49.18
51.35
52.1
51.73
50.64
49.28
48.08
47.27
46.89
46.84
46.93
47.08
47.28
47.61
48.17
48.89
49.51
49.57
48.54
45.99
41.72
35.95
29.2
22.22
15.81
10.55
6.63
3.76
1.27
-1.66
-5.61
-10.72
-16.58
-22.47
-27.67
-31.81
-35.03
-37.92
-41.36
-46.19
-53.07
-62.17
-72.98
-84.15
-93.48
-98.39
-96.63
-87.17
-70.63
-49.25
-26.16
-4.41
13.9
27.92
37.78
44.18
47.75
48.95
48.09
45.62
42.19
38.66
35.79
34.06
33.53
33.96
34.96
36.24
37.68
39.3
41.06
42.74
43.88
43.86
42.14
38.46
33.01
26.38
19.39
12.84
7.24
2.61
-1.39
-5.36
-9.76
-14.72
-20.01
-25.19
-29.88
-33.94
-37.63
-41.5
-46.32
-52.78
-61.3
-71.7
-82.92
-93.0
-99.4
-99.77
-92.69
-78.32
-58.41
-35.79
-13.47
6.2
21.95
33.61
41.71
47.02
50.2
51.71
51.82
50.82
49.04
46.96
45.1
43.98
43.9
44.88
46.69
48.89
51.03
52.78
53.93
54.38
54.02
52.72
50.32
46.7
41.88
36.11
29.78
23.39
17.42
12.19
7.8
4.15
0.94
-2.22
-5.73
-9.84
-14.61
-19.81
-25.1
-30.1
-34.62
-38.73
-42.82
-47.43
-53.19
-60.65
-70.02
-80.9
-92.06
-101.4
-106.33
-104.52
-94.77
-77.65
-55.34
-31.1
-8.1
11.41
26.48
37.31
44.68
49.39
52.06
53.08
52.82
51.73
50.35
49.19
48.56
48.55
49.03
49.73
50.42
50.93
51.25
51.41
51.48
51.39
50.94
49.81
47.7
44.43
40.02
34.72
28.94
23.16
17.84
13.26
9.48
6.27
3.22
-0.09
-3.96
-8.38
-13.01
-17.37
-21.07
-24.02
-26.53
-29.23
-32.83
-38.01
-45.13
-54.19
-64.55
-74.88
-83.1
-86.88
-84.27
-74.44
-58.18
-37.72
-16.03
4.05
20.62
32.98
41.33
46.3
48.52
48.44
46.47
43.11
39.09
35.25
32.34
30.77
30.53
31.3
32.56
33.91
35.12
36.24
37.3
38.24
38.68
38.06
35.85
31.8
26.12
19.44
12.63
6.46
1.35
-2.76
-6.31
-9.93
-14.05
-18.79
-23.82
-28.57
-32.55
-35.51
-37.67
-39.63
-42.23
-46.32
-52.56
-61.04
-71.04
-80.87
-88.11
-90.18
-85.23
-72.87
-54.48
-32.84
-11.2
7.68
22.26
32.32
38.59
42.13
43.87
44.41
44.02
42.89
41.29
39.55
38.1
37.26
37.12
37.57
38.35
39.12
39.71
40.09
40.37
40.6
40.69
40.33
39.11
36.7
32.98
28.08
22.36
16.33
10.51
5.36
1.15
-2.12
-4.73
-7.2
-10.1
-13.8
-18.32
-23.28
-28.12
-32.33
-35.72
-38.51
-41.22
-44.55
-49.15
-55.48
-63.55
-72.68
-81.41
-87.57
-88.84
-83.56
-71.39
-53.61
-32.76
-11.87
6.51
20.87
30.88
37.09
40.39
41.64
41.45
40.26
38.41
36.23
34.03
32.08
30.57
29.54
28.94
28.72
28.81
29.21
29.9
30.73
31.37
31.34
30.17
27.58
23.61
18.65
13.29
8.08
3.42
-0.62
-4.23
-7.7
-11.34
-15.26
-19.31
-23.14
-26.34
-28.67
-30.22
-31.48
-33.28
-36.55
-41.89
-49.33
-57.94
-65.93
-71.0
-71.04
-64.83
-52.54
-35.76
-17.01
1.06
16.39
27.94
35.64
40.01
41.78
41.6
39.94
37.25
33.98
30.67
27.86
25.92
25.06
25.2
26.12
27.46
28.93
30.29
31.36
32.02
32.15
31.6
30.19
27.68
23.88
18.79
12.63
5.99
-0.39
-5.76
-9.72
-12.37
-14.28
-16.24
-18.9
-22.48
-26.74
-31.09
-34.95
-38.01
-40.34
-42.36
-44.65
-47.86
-52.58
-59.15
-67.52
-76.86
-85.5
-91.1
-91.23
-84.31
-70.27
-50.76
-28.74
-7.46
10.56
24.07
33.17
38.75
41.9
43.41
43.73
43.07
41.65
39.82
37.95
36.42
35.39
34.82
34.53
34.33
34.1
33.88
33.75
33.75
33.77
33.55
32.7
30.85
27.81
23.6
18.49
12.94
7.43
2.41
-1.75
-4.92
-7.18
-8.86
-10.45
-12.42
-15.07
-18.38
-22.04
-25.59
-28.64
-31.1
-33.23
-35.54
-38.67
-43.19
-49.47
-57.49
-66.66
-75.68
-82.57
-85.11
-81.47
-71.0
-54.58
-34.53
-13.86
4.66
19.25
29.41
35.68
39.03
40.37
40.3
39.08
36.93
34.17
31.26
28.75
27.09
26.46
26.76
27.68
28.88
30.06
31.1
31.88
32.27
32.0
30.73
28.17
24.26
19.27
13.69
8.09
2.9
-1.79
-6.16
-10.52
-15.07
-19.76
-24.27
-28.16
-31.14
-33.26
-34.98
-37.1
-40.5
-45.88
-53.35
-62.15
-70.64
-76.54
-77.59
-72.32
-60.59
-43.78
-24.31
-4.96
12.02
25.38
34.9
41.1
44.77
46.58
47.0
46.35
44.91
43.02
41.02
39.24
37.87
36.96
36.43
36.19
36.18
36.41
36.87
37.51
38.11
38.31
37.64
35.67
32.12
27.01
20.68
13.75
6.97
1.0
-3.82
-7.58
-10.72
-13.85
-17.46
-21.72
-26.39
-30.97
-34.97
-38.12
-40.58
-42.8
-45.5
-49.4
-55.11
-62.9
-72.4
-82.42
-90.89
-95.3
-93.41
-84.08
-67.88
-46.97
-24.46
-3.38
14.14
27.25
36.2
41.82
45.04
46.59
46.99
46.62
45.82
44.89
44.02
43.36
42.93
42.71
42.68
42.82
43.12
43.59
44.14
44.6
44.72
44.18
42.78
40.41
37.12
33.05
28.36
23.24
17.87
12.55
7.62
3.44
0.21
-2.12
-3.95
-5.83
-8.28
-11.63
-15.79
-20.44
-25.12
-29.47
-33.33
-36.85
-40.37
-44.34
-49.32
-55.77
-63.9
-73.39
-83.08
-90.99
-94.7
-92.1
-82.22
-65.72
-44.8
-22.5
-1.74
15.45
28.29
37.02
42.39
45.2
46.03
45.29
43.35
40.76
38.11
36.0
34.86
34.81
35.65
37.05
38.66
40.24
41.67
42.9
43.79
44.09
43.41
41.38
37.8
32.75
26.65
20.13
13.81
8.11
3.12
-1.45
-6.04
-11.05
-16.58
-22.37
-27.88
-32.59
-36.2
-38.88
-41.22
-44.14
-48.62
-55.31
-64.23
-74.4
-83.88
-90.07
-90.5
-83.68
-69.67
-50.27
-28.33
-6.95
11.52
25.9
36.17
43.01
47.26
49.57
50.34
49.84
48.34
46.25
44.04
42.19
41.02
40.66
41.01
41.87
42.96
44.04
44.91
45.37
45.18
44.1
41.9
38.5
34.08
28.99
23.75
18.84
14.55
10.98
8.05
5.58
3.39
1.37
-0.63
-2.82
-5.47
-8.85
-13.06
-17.98
-23.24
-28.4
-33.17
-37.57
-41.93
-46.81
-52.86
-60.61
-70.21
-81.12
-91.85
-100.11
-103.24
-99.15
-87.15
-68.36
-45.45
-21.78
-0.32
17.15
30.12
39.08
44.92
48.53
50.57
51.56
51.91
51.95
51.88
51.78
51.64
51.41
51.15
50.96
50.99
51.39
52.19
53.3
54.43
55.15
54.97
53.49
50.55
46.3
41.13
35.53
29.88
24.42
19.22
14.3
9.7
5.54
1.95
-1.09
-3.78
-6.49
-9.64
-13.51
-18.1
-23.17
-28.33
-33.2
-37.56
-41.44
-45.08
-49.0
-53.85
-60.28
-68.67
-78.76
-89.33
-98.17
-102.6
-100.24
-89.97
-72.47
-50.05
-26.01
-3.56
15.06
28.95
38.35
44.15
47.28
48.39
47.84
45.91
43.0
39.74
36.86
34.95
34.31
34.77
35.84
36.99
37.9
38.56
39.24
40.18
41.29
42.08
41.75
39.59
35.29
29.14
21.95
14.73
8.36
3.25
-0.67
-3.96
-7.29
-11.18
-15.79
-20.85
-25.77
-29.97
-33.13
-35.44
-37.54
-40.38
-44.94
-51.92
-61.43
-72.74
-84.2
-93.37
-97.57
-94.67
-83.87
-66.11
-43.89
-20.45
1.18
19.02
32.37
41.59
47.54
51.03
52.62
52.62
51.29
48.98
46.19
43.49
41.4
40.28
40.27
41.3
43.12
45.37
47.63
49.5
50.64
50.81
49.89
47.83
44.7
40.61
35.69
30.13
24.19
18.16
12.36
7.05
2.42
-1.49
-4.8
-7.76
-10.69
-13.95
-17.77
-22.22
-27.13
-32.2
-37.05
-41.45
-45.34
-48.97
-52.81
-57.59
-64.0
-72.46
-82.57
-92.9
-100.98
-103.97
-99.58
-87.0
-67.4
-43.57
-19.12
2.78
20.16
32.53
40.52
45.23
47.75
48.81
48.87
48.26
47.31
46.38
45.76
45.58
45.8
46.22
46.67
47.07
47.49
48.06
48.85
49.73
50.31
50.11
48.68
45.86
41.85
37.09
32.15
27.47
23.22
19.33
15.57
11.8
7.99
4.34
1.08
-1.63
-3.88
-5.99
-8.4
-11.48
-15.35
-19.79
-24.39
-28.71
-32.49
-35.82
-39.11
-42.93
-47.92
-54.49
-62.63
-71.57
-79.74
-84.89
-84.79
-77.94
-64.29
-45.46
-24.28
-3.82
13.46
26.4
35.02
40.13
42.7
43.44
42.71
40.77
37.93
34.7
31.67
29.42
28.25
28.14
28.85
29.96
31.18
32.36
33.52
34.72
35.8
36.36
35.81
33.57
29.41
23.64
17.04
10.65
5.35
1.51
-1.07
-3.06
-5.29
-8.32
-12.24
-16.69
-21.04
-24.72
-27.48
-29.53
-31.44
-34.05
-38.11
-44.14
-52.11
-61.28
-70.18
-76.76
-78.87
-74.92
-64.42
-48.36
-28.92
-8.94
9.04
23.33
33.38
39.62
42.93
44.22
44.13
43.03
41.14
38.69
36.04
33.57
31.69
30.61
30.35
30.71
31.34
31.91
32.15
32.02
31.59
30.99
30.24
29.22
27.6
25.05
21.38
16.72
11.52
6.44
2.08
-1.22
-3.54
-5.27
-6.96
-9.1
-11.91
-15.33
-19.02
-22.64
-25.87
-28.67
-31.26
-34.0
-37.37
-41.78
-47.57
-54.89
-63.42
-72.24
-79.65
-83.42
-81.45
-72.56
-57.15
-37.24
-15.93
3.64
19.28
30.2
36.87
40.44
42.08
42.55
42.19
41.13
39.54
37.7
35.97
34.64
33.85
33.49
33.38
33.34
33.32
33.36
33.54
33.75
33.75
33.13
31.53
28.83
25.24
21.17
17.06
13.21
9.65
6.25
2.85
-0.57
-3.81
-6.6
-8.71
-10.18
-11.33
-12.65
-14.63
-17.53
-21.28
-25.5
-29.68
-33.38
-36.41
-38.89
-41.28
-44.2
-48.31
-54.06
-61.36
-69.35
-76.3
-79.97
-78.25
-69.95
-55.42
-36.51
-16.06
3.01
18.56
29.64
36.39
39.63
40.31
39.2
36.85
33.67
30.16
26.85
24.27
22.76
22.33
22.73
23.5
24.23
24.77
25.21
25.76
26.57
27.45
27.87
27.13
24.67
20.38
14.72
8.57
2.84
-1.83
-5.35
-8.08
-10.67
-13.64
-17.17
