-45.1
-49.17
-54.58
-61.71
-70.43
-79.73
-87.75
-92.04
-90.31
-81.27
-65.26
-44.34
-21.63
-0.38
17.08
29.75
37.93
42.62
44.86
45.44
44.76
43.04
40.59
37.87
35.38
33.58
32.65
32.51
32.87
33.42
33.98
34.53
35.15
35.92
36.71
37.18
36.82
35.15
31.85
26.97
20.95
14.49
8.41
3.35
-0.37
-2.92
-4.86
-6.9
-9.58
-13.05
-17.03
-20.92
-24.13
-26.39
-27.92
-29.34
-31.52
-35.28
-41.15
-49.15
-58.58
-67.94
-75.06
-77.65
-73.97
-63.51
-47.32
-27.7
-7.53
10.63
25.21
35.74
42.59
46.47
47.99
47.52
45.31
41.68
37.22
32.74
29.1
26.97
26.62
27.82
29.96
32.3
34.19
35.3
35.61
35.28
34.5
33.28
31.4
28.57
24.54
19.3
13.19
6.81
0.89
-4.04
-7.78
-10.64
-13.21
-16.17
-19.92
-24.44
-29.33
-33.97
-37.84
-40.74
-42.9
-44.91
-47.48
-51.41
-57.26
-65.26
-75.0
-85.18
-93.73
-98.08
-95.96
-86.29
-69.63
-48.2
-25.15
-3.61
14.2
27.37
36.14
41.4
44.18
45.25
45.17
44.3
42.94
41.45
40.15
39.3
39.02
39.26
39.86
40.64
41.5
42.41
43.39
44.33
44.98
44.96
43.87
41.47
37.77
33.05
27.7
22.13
16.69
11.61
7.09
3.24
0.03
-2.73
-5.39
-8.35
-11.91
-16.09
-20.61
-25.03
-28.96
-32.21
-34.92
-37.52
-40.63
-44.9
-50.94
-59.01
-68.74
-78.93
-87.52
-92.02
-90.26
-81.21
-65.45
-45.1
-23.16
-2.55
14.64
27.54
36.29
41.64
44.45
45.44
45.1
43.79
41.85
39.65
37.58
35.98
35.04
34.75
35.0
35.62
36.51
37.63
38.98
40.4
41.53
41.86
40.85
38.19
33.91
28.44
22.47
16.75
11.82
7.88
4.76
1.95
-1.14
-4.91
-9.38
-14.13
-18.47
-21.83
-24.03
-25.45
-26.94
-29.57
-34.2
-41.23
-50.32
-60.39
-69.62
-75.81
-76.88
-71.49
-59.59
-42.52
-22.78
-3.14
13.99
27.3
36.55
42.3
45.38
46.4
45.69
43.41
39.82
35.46
31.13
27.71
25.83
25.71
27.1
29.45
32.13
34.64
36.64
37.87
38.08
36.96
34.29
30.07
24.61
18.51
12.5
7.18
2.74
-1.02
-4.61
-8.57
-13.17
-18.29
-23.43
-28.02
-31.65
-34.39
-36.71
-39.48
-43.62
-49.83
-58.29
-68.42
-78.74
-87.06
-90.94
-88.5
-79.03
-63.44
-43.92
-23.32
-4.19
11.8
24.03
32.72
38.44
41.84
43.49
43.89
43.52
42.84
42.18
41.72
41.48
41.41
41.46
41.58
41.8
42.15
42.69
43.4
44.19
44.82
44.84
43.77
41.18
36.92
31.28
24.88
18.56
13.01
8.56
4.99
1.76
-1.74
-5.89
-10.62
-15.45
-19.83
-23.39
-26.15
-28.61
-31.53
-35.74
-41.87
-50.12
-60.01
-70.24
-78.79
-83.29
-81.74
-73.21
-58.29
-39.0
-18.2
1.33
17.64
29.92
38.34
43.64
46.62
47.89
47.83
46.75
44.98
42.96
41.12
39.8
39.11
38.95
39.08
39.28
39.45
39.59
39.81
40.1
40.3
40.06
38.95
36.61
32.91
28.07
22.59
17.08
12.16
8.12
4.88
1.99
-1.11
-4.87
-9.37
-14.28
-18.98
-22.91
-25.76
-27.76
-29.53
-31.97
-35.96
-42.05
-50.25
-59.75
-68.95
-75.69
-77.73
-73.57
-62.92
-47.0
-28.16
-9.17
7.65
20.93
30.35
36.37
39.71
40.96
40.52
38.71
35.88
32.57
29.39
26.89
25.44
25.14
25.85
27.29
29.13
31.08
32.84
34.09
34.51
33.76
31.63
28.17
23.67
18.6
13.45
8.58
4.09
-0.11
-4.24
-8.41
-12.57
-16.49
-19.88
-22.55
-24.56
-26.29
-28.37
-31.58
-36.58
-43.69
-52.53
-61.85
-69.66
-73.6
-71.76
-63.36
-49.17
-31.32
-12.64
4.27
17.79
27.36
33.4
36.68
38.02
37.97
36.93
35.24
33.23
31.27
29.69
28.68
28.28
28.32
28.52
28.58
28.25
27.48
26.36
25.05
23.65
22.09
20.1
17.37
13.69
9.19
4.36
-0.02
-3.16
-4.52
-4.19
-2.79
-1.33
-0.8
-1.73
-4.05
-7.18
-10.35
-12.97
-14.91
-16.46
-18.17
-20.67
-24.48
-29.94
-37.0
-45.07
-52.86
-58.5
-59.98
-55.8
-45.65
-30.59
-12.88
4.82
20.23
31.97
39.72
43.9
45.28
44.62
42.53
39.54
36.16
32.9
30.14
28.04
26.4
24.77
22.54
19.38
15.35
11.12
7.68
5.9
6.09
7.69
9.43
9.85
7.9
3.39
-2.92
-9.75
-15.78
-20.12
-22.6
-23.73
-24.66
-27.03
-32.71
-43.24
-59.22
-79.79
-102.68
-124.75
-143.11
-156.11
-163.73
-167.37
-168.98
-170.11
-171.36
-172.3
-171.8
-168.63
-161.85
-151.08
-136.54
-118.95
-99.39
-78.98
-58.77
-39.62
-22.2
-7.08
5.29
14.62
20.75
23.75
23.85
21.43
17.07
11.55
5.74
0.5
-3.56
-6.14
-7.23
-6.96
-5.33
-2.18
2.78
9.78
18.74
29.24
40.54
51.8
62.26
71.35
78.78
84.47
88.47
90.97
92.24
92.67
92.77
93.03
93.76
94.83
95.6
95.1
92.47
87.49
81.05
75.08
72.02
73.93
81.66
94.46
110.23
126.2
139.84
149.46
154.49
155.37
153.13
148.93
143.62
137.49
130.26
121.37
110.57
98.36
86.26
76.4
70.8
70.58
75.36
83.42
92.26
99.4
103.05
102.3
96.96
87.26
73.61
56.58
37.05
16.2
-4.44
-23.44
-39.71
-52.9
-63.4
-72.15
-80.18
-88.17
-96.19
-103.73
-109.95
-114.1
-115.78
-115.1
-112.63
-109.14
-105.34
-101.83
-99.05
-97.34
-96.86
-97.41
-98.18
-97.75
-94.38
-86.61
-73.93
-57.06
-37.86
-18.68
-1.61
12.0
21.83
28.33
32.35
34.69
35.94
36.36
35.97
34.76
32.71
29.95
26.72
23.35
20.15
17.42
15.37
14.18
13.94
14.53
15.59
16.54
16.75
15.76
13.43
9.98
5.84
1.47
-2.85
-7.01
-11.01
-14.88
-18.56
-21.89
-24.65
-26.69
-28.02
-28.84
-29.59
-30.85
-33.18
-36.91
-41.96
-47.76
-53.23
-57.14
-58.37
-56.36
-51.31
-44.15
-36.31
-29.24
-24.03
-21.16
-20.45
-21.31
-22.96
-24.76
-26.24
-27.16
-27.37
-26.79
-25.24
-22.62
-18.91
-14.27
-9.02
-3.58
1.59
6.14
9.85
12.57
14.22
14.78
14.28
12.82
10.67
8.11
5.48
2.98
0.64
-1.69
-4.25
-7.2
-10.57
-14.19
-17.76
-21.05
-24.0
-26.85
-30.05
-34.15
-39.48
-45.99
-53.0
-59.25
-63.14
-63.11
-58.18
-48.3
-34.43
-18.31
-1.91
13.08
25.61
35.34
42.46
47.37
50.46
51.95
52.01
50.85
48.8
46.33
43.97
42.15
41.12
40.87
41.2
41.85
42.57
43.2
43.61
43.61
42.93
41.25
38.37
34.35
29.47
24.2
18.93
13.84
8.87
3.87
-1.23
-6.3
-11.06
-15.28
-18.88
-22.1
-25.4
-29.34
-34.43
-40.81
-48.15
-55.44
-61.14
-63.48
-61.08
-53.47
-41.41
-26.67
-11.47
2.23
13.26
21.34
26.82
30.23
31.94
32.04
30.54
27.6
23.65
19.43
15.7
13.06
11.76
11.73
12.61
13.95
15.37
16.51
17.18
17.16
16.33
14.6
11.95
8.53
4.56
0.36
-3.86
-7.98
-12.08
-16.3
-20.8
-25.52
-30.22
-34.5
-38.05
-40.77
-42.88
-44.9
-47.53
-51.39
-56.84
-63.65
-70.82
-76.66
-79.11
-76.46
-67.98
-54.28
-37.23
-19.25
-2.55
11.45
22.33
30.41
36.23
40.26
42.76
43.9
43.91
43.18
42.11
41.04
40.17
39.49
38.92
38.39
37.91
37.62
37.65
38.01
38.52
38.77
38.2
36.29
32.81
27.89
22.1
16.2
10.93
6.71
3.46
0.72
-2.16
-5.69
-10.02
-14.9
-19.84
-24.33
-28.1
-31.21
-34.04
-37.21
-41.4
-47.11
-54.47
-62.88
-70.94
-76.67
-77.97
-73.41
-62.81
-47.4
-29.44
-11.47
4.5
17.41
27.16
34.2
39.12
42.33
44.03
44.35
43.55
42.07
40.42
39.03
38.14
37.72
37.62
37.65
37.72
37.88
38.23
38.78
39.33
39.46
38.66
36.51
32.9
28.04
22.47
16.85
11.75
7.49
4.01
0.93
-2.29
-6.07
-10.55
-15.5
-20.4
-24.73
-28.16
-30.79
-33.11
-35.86
-39.77
-45.39
-52.9
-61.91
-71.39
-79.67
-84.78
-84.87
-78.9
-67.05
-50.78
-32.41
-14.38
1.43
14.09
23.56
30.33
34.92
37.68
38.72
38.12
36.12
33.23
30.11
27.45
25.74
25.15
25.56
26.65
28.01
29.27
30.17
30.48
30.04
28.72
26.45
23.25
19.28
14.74
9.88
4.89
-0.1
-5.01
-9.78
-14.32
-18.54
-22.39
-25.87
-29.08
-32.27
-35.84
-40.24
-45.88
-52.8
-60.43
-67.51
-72.26
-72.91
-68.29
-58.31
-44.06
-27.44
-10.57
4.81
17.75
27.99
35.76
41.42
45.16
47.06
47.18
45.77
43.39
40.75
38.6
37.39
37.22
37.81
38.77
39.71
40.46
41.0
41.36
41.4
40.82
39.23
36.31
32.07
26.81
21.09
15.47
10.31
5.66
1.3
-3.11
-7.82
-12.88
-18.11
-23.16
-27.67
-31.5
-34.71
-37.7
-41.05
-45.5
-51.64
-59.69
-69.19
-78.81
-86.58
-90.26
-88.11
-79.5
-65.19
-47.14
-27.85
-9.6
6.11
18.71
28.33
35.46
40.54
43.91
45.78
46.38
46.04
45.17
44.22
43.58
43.45
43.86
44.63
45.55
46.38
47.0
47.37
47.48
47.29
46.63
45.29
43.0
39.64
35.27
30.14
24.71
19.45
14.79
10.9
7.69
4.81
1.73
-1.95
-6.38
-11.37
-16.49
-21.22
-25.29
-28.73
-31.9
-35.41
-39.88
-45.85
-53.56
-62.87
-72.96
-82.36
-89.12
-91.22
-87.3
-77.13
-61.8
-43.41
-24.39
-6.86
7.88
19.37
27.79
33.54
37.08
38.78
39.0
38.16
36.77
35.37
34.39
34.09
34.49
35.44
36.65
37.91
39.12
40.26
41.29
42.04
42.12
41.07
38.56
34.59
29.56
24.13
18.99
14.49
10.58
6.93
3.11
-1.08
-5.52
-9.87
-13.76
-16.98
-19.63
-22.08
-24.93
-28.82
-34.32
-41.68
-50.52
-59.75
-67.62
-72.06
-71.38
-64.8
-52.8
-36.98
-19.55
-2.64
12.22
24.32
33.62
40.37
44.8
47.03
47.16
45.45
42.46
39.04
36.08
34.32
34.05
35.08
36.9
38.86
40.49
41.57
42.18
42.44
42.36
41.66
39.93
36.77
32.11
26.31
20.12
14.29
9.3
5.1
1.19
-3.13
-8.3
-14.3
-20.63
-26.57
-31.51
-35.27
-38.15
-40.82
-44.03
-48.49
-54.64
-62.53
-71.7
-81.05
-88.85
-93.08
-91.93
-84.53
-71.29
-53.88
-34.67
-16.03
0.38
13.83
24.42
32.65
39.01
43.79
47.04
48.79
49.18
48.58
47.54
46.58
46.09
46.08
46.33
46.49
46.35
45.92
45.42
45.08
44.97
44.79
44.04
42.19
38.94
34.38
28.99
23.44
18.37
14.15
10.8
7.98
5.16
1.82
-2.35
-7.3
-12.66
-17.92
-22.59
-26.47
-29.74
-32.89
-36.54
-41.33
-47.69
-55.67
-64.74
-73.76
-81.02
-84.58
-82.87
-75.19
-62.08
-45.19
-26.78
-9.08
6.32
18.67
27.95
34.58
39.09
41.9
43.31
43.54
42.87
41.62
40.19
39.02
38.39
38.37
38.84
39.57
40.29
40.86
41.25
41.45
41.34
40.64
38.98
36.08
31.86
26.6
20.8
15.13
10.09
5.87
2.34
-0.94
-4.48
-8.6
-13.3
-18.22
-22.85
-26.74
-29.76
-32.18
-34.62
-37.83
-42.45
-48.83
-56.79
-65.54
-73.66
-79.35
-80.83
-76.94
-67.56
-53.72
-37.32
-20.52
-5.14
7.73
17.82
25.34
30.67
34.13
35.93
36.23
35.32
33.65
31.77
30.21
29.36
29.44
30.41
32.08
34.13
36.13
37.65
38.3
37.76
35.87
32.65
28.31
23.22
17.77
12.33
7.11
2.13
-2.67
-7.44
-12.29
-17.16
-21.86
-26.07
-29.55
-32.25
-34.44
-36.69
-39.79
-44.4
-50.73
-58.25
-65.6
-70.88
-72.2
-68.3
-59.07
-45.61
-29.81
-13.79
0.77
12.86
22.24
29.05
33.64
36.29
37.27
36.89
35.54
33.72
31.91
30.54
29.86
29.88
30.42
31.2
31.9
32.34
32.48
32.42
32.3
32.12
31.67
30.59
28.52
25.27
20.95
16.02
11.07
6.69
3.14
0.35
-2.12
-4.82
-8.21
-12.39
-17.11
-21.86
-26.11
-29.59
-32.39
-34.94
-37.83
-41.64
-46.84
-53.61
-61.72
-70.39
-78.21
-83.33
-83.89
-78.73
-67.74
-52.12
-33.94
-15.56
1.01
14.55
24.67
31.65
36.1
38.73
40.13
40.72
40.77
40.43
39.79
39.0
38.22
37.65
37.41
37.57
38.08
38.85
39.7
40.41
40.71
40.29
38.95
36.66
33.57
29.95
26.13
22.34
18.71
15.26
11.89
8.57
5.29
2.14
-0.75
-3.33
-5.66
-7.98
-10.6
-13.78
-17.6
-21.87
-26.25
-30.37
-34.06
-37.35
-40.57
-44.2
-48.78
-54.73
-62.08
-70.25
-77.92
-83.22
-84.2
-79.47
-68.76
-53.1
-34.57
-15.64
1.49
15.37
25.46
31.98
35.52
36.79
36.4
34.9
32.73
30.34
28.14
26.47
25.55
25.42
25.92
26.83
27.9
29.0
30.1
31.19
32.19
32.82
32.7
31.46
28.89
25.09
20.43
15.46
10.68
6.39
2.58
-1.01
-4.71
-8.76
-13.19
-17.74
-22.05
-25.75
-28.73
-31.15
-33.49
-36.37
-40.4
-45.99
-53.14
-61.28
-69.2
-75.14
-77.23
-74.05
-65.14
-51.3
-34.34
-16.55
0.01
13.98
24.86
32.76
38.12
41.36
42.79
42.71
41.47
39.51
37.35
35.47
34.22
33.73
33.99
34.8
35.9
37.06
38.04
38.68
38.84
38.4
37.24
35.3
32.56
29.08
25.01
20.56
15.92
11.35
7.06
3.21
-0.12
-3.0
-5.65
-8.43
-11.67
-15.53
-19.92
-24.48
-28.71
-32.21
-34.95
-37.24
-39.75
-43.23
-48.34
-55.37
-64.05
-73.44
-82.0
-87.78
-88.87
-84.03
-73.11
-57.24
-38.58
-19.63
-2.59
11.21
21.35
28.21
32.49
34.96
36.21
36.67
36.67
36.46
36.27
36.23
36.44
36.89
37.57
38.38
39.3
40.24
41.17
41.98
42.53
42.55
41.77
39.95
37.01
33.12
28.69
24.2
20.12
16.7
13.99
11.88
10.23
8.92
7.87
6.87
5.62
3.72
0.85
-3.12
-7.96
-13.23
-18.42
-23.09
-27.13
-30.75
-34.39
-38.68
-44.26
-51.59
-60.66
-70.76
-80.4
-87.54
-90.15
-86.89
-77.61
-63.46
-46.5
-29.07
-13.07
0.36
10.87
18.63
24.04
27.5
29.37
29.99
29.7
28.9
27.95
27.14
26.68
26.68
27.19
28.2
29.68
31.57
33.75
36.04
38.15
39.7
40.25
39.47
37.19
33.51
28.81
23.64
18.6
14.13
10.44
7.39
4.58
1.52
-2.15
-6.53
-11.42
-16.34
-20.83
-24.62
-27.81
-30.84
-34.38
-39.1
-45.51
-53.65
-63.0
-72.37
-79.96
-83.79
-82.18
-74.36
-60.76
-43.03
-23.52
-4.63
11.8
24.78
34.13
40.25
43.7
45.03
44.72
43.19
40.95
38.53
36.53
35.39
35.36
36.36
38.08
40.07
41.87
43.13
43.62
43.28
42.14
40.31
37.9
35.04
31.81
28.24
24.34
20.17
15.85
11.57
7.54
3.85
0.48
-2.75
-6.12
-9.83
-13.94
-18.34
-22.81
-27.07
-30.98
-34.55
-37.97
-41.57
-45.72
-50.84
-57.3
-65.25
-74.32
-83.39
-90.62
-93.84
-91.23
-82.03
-66.88
-47.68
-26.95
-7.06
10.32
24.38
35.01
42.47
47.14
49.46
49.92
49.1
47.62
46.02
44.72
43.96
43.79
44.15
44.91
45.89
46.94
47.93
48.73
49.21
49.2
48.56
47.17
44.99
42.11
38.69
34.87
30.75
26.37
21.78
17.09
12.51
8.3
4.66
1.56
-1.28
-4.29
-7.88
-12.2
-17.14
-22.27
-27.15
-31.42
-35.04
-38.23
-41.49
-45.44
-50.68
-57.62
-66.18
-75.54
-84.09
-89.73
-90.44
-85.01
-73.55
-57.46
-39.01
-20.68
-4.38
8.83
18.68
25.5
29.78
32.02
32.59
31.87
30.24
28.14
26.06
24.45
23.63
23.7
24.6
26.17
28.21
30.54
33.0
35.33
37.16
37.97
37.33
35.0
31.1
26.07
20.52
15.0
9.86
5.08
0.45
-4.37
-9.55
-15.05
-20.54
-25.59
-29.85
-33.24
-36.03
-38.88
-42.65
-48.12
-55.63
-64.71
-73.96
-81.23
-84.2
-81.13
-71.52
-56.35
-37.77
-18.41
-0.54
14.39
25.92
34.31
40.06
43.68
45.48
45.7
44.6
42.6
40.22
38.01
36.41
35.67
35.79
36.58
37.72
38.93
39.99
40.81
41.35
41.56
41.25
40.12
37.86
34.26
29.41
23.69
17.71
12.12
7.32
3.35
-0.11
-3.61
-7.66
-12.51
-18.06
-23.87
-29.39
-34.18
-38.11
-41.43
-44.69
-48.61
-53.88
-60.92
-69.66
-79.32
-88.37
-94.76
-96.39
-91.79
-80.67
-64.12
-44.3
-23.8
-4.88
11.02
23.38
32.34
38.37
41.98
43.63
43.81
43.06
41.96
41.03
40.58
40.73
41.44
42.53
43.82
45.14
46.31
47.22
47.76
47.88
47.49
46.48
44.72
42.07
38.49
34.11
29.22
24.22
19.48
15.31
11.76
8.7
5.86
2.91
-0.5
-4.53
-9.21
-14.32
-19.52
-24.44
-28.87
-32.81
-36.6
-40.78
-46.0
-52.84
-61.51
-71.56
-81.77
-90.21
-94.69
-93.4
-85.55
-71.75
-53.89
-34.49
-15.97
0.02
12.77
22.41
29.39
34.21
37.21
38.65
38.83
38.2
37.29
