1.85
-3.34
-7.63
-10.91
-13.26
-14.97
-16.45
-18.14
-20.43
-23.56
-27.49
-31.95
-36.46
-40.62
-44.16
-47.14
-49.96
-53.28
-57.87
-64.33
-72.74
-82.31
-91.18
-96.69
-96.06
-87.4
-70.51
-47.2
-20.82
4.76
26.3
42.0
51.68
56.3
57.37
56.28
54.04
51.31
48.51
45.96
43.89
42.41
41.5
40.97
40.63
40.31
39.99
39.76
39.72
39.86
39.98
39.65
38.33
35.64
31.51
26.3
20.69
15.44
11.07
7.62
4.76
1.94
-1.24
-4.82
-8.41
-11.46
-13.55
-14.64
-15.2
-16.03
-17.91
-21.32
-26.19
-31.95
-37.76
-42.86
-46.87
-49.92
-52.55
-55.61
-59.99
-66.33
-74.67
-84.16
-92.86
-98.08
-97.04
-87.87
-70.5
-46.9
-20.58
4.51
25.24
40.05
49.02
53.35
54.59
53.98
52.27
49.87
47.03
44.11
41.52
39.71
38.92
39.13
40.06
41.28
42.36
43.07
43.35
43.31
43.06
42.54
41.49
39.5
36.17
31.34
25.19
18.29
11.45
5.48
0.92
-2.16
-4.13
-5.74
-7.73
-10.58
-14.33
-18.55
-22.56
-25.75
-27.9
-29.24
-30.45
-32.41
-35.97
-41.65
-49.51
-58.87
-68.2
-75.25
-77.48
-72.83
-60.54
-41.65
-18.81
4.47
24.94
40.51
50.63
55.95
57.63
56.71
53.78
49.09
42.95
36.03
29.39
24.16
21.22
20.8
22.46
25.25
28.16
30.46
31.87
32.48
32.49
31.92
30.52
27.86
23.61
17.75
10.72
3.4
-3.22
-8.32
-11.56
-13.23
-14.15
-15.3
-17.45
-20.81
-25.02
-29.31
-32.94
-35.5
-37.17
-38.59
-40.7
-44.48
-50.67
-59.47
-70.2
-81.12
-89.55
-92.44
-87.34
-73.42
-51.98
-26.19
-0.14
22.48
39.39
50.09
55.5
57.22
56.76
55.15
52.91
50.28
47.45
44.71
42.42
40.87
40.13
40.07
40.38
40.68
40.76
40.52
40.07
39.5
38.8
37.75
35.95
33.0
28.66
22.96
16.3
9.35
2.83
-2.62
-6.71
-9.54
-11.6
-13.57
-16.15
-19.76
-24.38
-29.57
-34.63
-38.91
-42.1
-44.35
-46.31
-48.87
-52.94
-59.21
-67.81
-78.09
-88.37
-96.12
-98.4
-92.84
-78.55
-56.74
-30.52
-3.91
19.34
36.94
48.34
54.41
56.68
56.58
55.05
52.61
49.57
46.29
43.24
40.85
39.39
38.83
38.89
39.11
39.06
38.56
37.68
36.68
35.8
35.01
33.89
31.8
28.14
22.71
15.97
8.81
2.31
-2.76
-6.24
-8.63
-10.83
-13.65
-17.43
-21.89
-26.26
-29.72
-31.79
-32.59
-32.81
-33.5
-35.74
-40.34
-47.58
-56.95
-67.0
-75.41
-79.37
-76.41
-65.32
-46.75
-23.26
1.42
23.62
40.82
52.21
58.4
60.81
60.7
58.79
55.32
50.39
44.45
38.39
33.36
30.34
29.68
31.05
33.51
35.97
37.6
38.11
37.63
36.56
35.17
33.36
30.77
26.84
21.3
14.26
6.38
-1.3
-7.76
-12.34
-15.04
-16.47
-17.64
-19.49
-22.56
-26.78
-31.62
-36.33
-40.35
-43.5
-46.05
-48.61
-51.89
-56.64
-63.42
-72.37
-82.88
-93.25
-100.86
-102.63
-96.14
-80.62
-57.52
-30.16
-2.77
20.94
38.75
50.26
56.43
58.86
59.0
57.8
55.75
53.13
50.22
47.39
45.05
43.48
42.72
42.53
42.48
42.19
41.44
40.26
38.84
37.33
35.74
33.83
31.27
27.76
23.22
17.76
11.74
5.62
-0.14
-5.1
-8.99
-11.72
-13.49
-14.73
-16.06
-18.04
-21.04
-25.08
-29.78
-34.55
-38.83
-42.26
-44.92
-47.24
-49.94
-53.85
-59.67
-67.71
-77.51
-87.61
-95.56
-98.36
-93.49
-79.86
-58.51
-32.41
-5.55
18.32
36.81
49.21
56.24
59.27
59.64
58.3
55.84
52.7
49.29
46.05
43.35
41.38
40.15
39.47
39.08
38.75
38.37
37.95
37.62
37.41
37.13
36.26
34.17
30.36
24.8
18.02
11.03
4.86
0.19
-2.95
-5.18
-7.45
-10.52
-14.65
-19.47
-24.18
-28.02
-30.55
-31.94
-32.9
-34.44
-37.61
-43.21
-51.52
-61.89
-72.68
-81.22
-84.49
-80.03
-66.95
-46.48
-21.67
3.55
25.71
42.7
54.11
60.75
63.86
64.45
63.04
59.85
55.19
49.77
44.6
40.76
39.0
39.46
41.61
44.54
47.31
49.24
50.12
50.04
49.2
47.57
44.83
40.52
34.32
26.3
17.11
7.87
-0.2
-6.16
-9.69
-11.22
-11.82
-12.69
-14.79
-18.45
-23.28
-28.42
-32.96
-36.36
-38.69
-40.59
-43.06
-47.14
-53.7
-63.08
-74.87
-87.62
-98.79
-105.15
-103.65
-92.53
-72.22
-45.5
-16.7
9.68
30.38
44.17
51.7
54.73
55.11
54.09
52.21
49.57
46.28
42.7
39.39
36.89
35.51
35.16
35.48
36.01
36.39
36.46
36.26
35.87
35.25
34.15
32.11
28.67
23.55
16.88
9.24
1.51
-5.41
-10.87
-14.72
-17.3
-19.35
-21.67
-24.86
-29.1
-34.07
-39.12
-43.51
-46.75
-48.82
-50.23
-51.86
-54.68
-59.47
-66.45
-74.98
-83.45
-89.41
-90.13
-83.39
-68.37
-46.17
-19.63
7.42
31.39
49.84
62.0
68.48
70.73
70.15
67.77
64.16
59.59
54.41
49.05
44.06
39.88
36.72
34.48
32.88
31.63
30.55
29.63
28.89
28.22
27.3
25.59
22.57
17.96
11.89
4.93
-2.05
-8.2
-12.95
-16.19
-18.35
-20.15
-22.27
-25.14
-28.64
-32.29
-35.44
-37.63
-38.88
-39.73
-41.12
-44.11
-49.5
-57.44
-67.14
-76.68
-83.33
-84.15
-77.0
-61.44
-39.07
-13.22
12.15
33.66
49.38
59.13
63.91
65.2
64.2
61.57
57.55
52.34
46.36
40.3
34.96
30.98
28.61
27.7
27.84
28.47
29.09
29.26
28.63
26.98
24.16
20.22
15.45
10.22
4.88
-0.4
-5.71
-11.22
-17.03
-22.97
-28.6
-33.4
-36.96
-39.22
-40.52
-41.49
-42.91
-45.54
-49.92
-56.21
-63.89
-71.57
-77.03
-77.68
-71.37
-57.34
-36.66
-12.15
12.54
33.98
49.97
59.89
64.45
65.01
62.96
59.25
54.47
49.0
43.24
37.74
33.02
29.49
27.27
26.19
25.93
26.16
26.59
26.99
27.05
26.4
24.62
21.39
16.69
10.87
4.54
-1.62
-7.13
-11.84
-15.93
-19.79
-23.73
-27.81
-31.81
-35.37
-38.13
-40.02
-41.34
-42.71
-44.99
-49.01
-55.23
-63.38
-72.2
-79.4
-82.2
-78.14
-65.96
-46.35
-21.87
3.74
26.77
44.57
56.12
61.97
63.48
62.13
58.99
54.6
49.26
43.4
37.68
32.93
29.86
28.83
29.68
31.8
34.42
36.78
38.32
38.73
37.91
35.85
32.67
28.52
23.6
18.19
12.56
6.88
1.27
-4.21
-9.5
-14.47
-18.88
-22.48
-25.17
-27.04
-28.47
-30.07
-32.56
-36.57
-42.45
-49.95
-58.03
-64.77
-67.69
-64.49
-53.86
-36.17
-13.66
10.23
31.85
48.48
58.95
63.52
63.41
60.0
54.36
47.2
39.09
30.71
22.94
16.73
12.81
11.38
12.09
14.14
16.62
18.79
20.24
20.84
20.63
19.6
17.55
14.25
9.58
3.76
-2.6
-8.69
-13.82
-17.72
-20.64
-23.24
-26.14
-29.67
-33.63
-37.44
-40.45
-42.29
-43.07
-43.44
-44.35
-46.84
-51.7
-59.16
-68.52
-78.02
-84.98
-86.48
-80.29
-65.78
-44.37
-19.2
5.81
27.25
43.09
52.99
57.89
59.23
58.28
55.82
52.25
47.86
43.11
38.67
35.24
33.25
32.7
33.11
33.81
34.17
33.89
33.05
32.0
31.08
30.3
29.31
27.48
24.19
19.23
12.88
5.94
-0.69
-6.22
-10.36
-13.33
-15.75
-18.4
-21.86
-26.32
-31.5
-36.8
-41.47
-45.02
-47.36
-48.94
-50.58
-53.28
-57.89
-64.84
-73.81
-83.55
-91.91
-96.22
-93.98
-83.71
-65.65
-41.92
-15.93
8.63
28.82
43.17
51.7
55.45
55.85
54.12
51.15
47.5
43.65
40.09
37.26
35.47
34.81
35.11
36.02
37.21
38.45
39.63
40.74
41.66
42.11
41.67
39.96
36.83
32.5
27.56
22.71
18.5
15.05
12.06
8.98
5.34
1.08
-3.48
-7.76
-11.21
-13.63
-15.28
-16.81
-19.05
-22.86
-28.85
-37.03
-46.59
-55.74
-61.93
-62.56
-55.88
-41.87
-22.36
-0.6
19.87
36.31
47.46
53.46
55.32
54.12
50.64
45.32
38.57
31.06
23.76
17.72
13.77
12.22
12.84
14.98
17.83
20.62
22.78
23.88
23.65
22.0
18.93
14.66
9.49
3.78
-2.24
-8.45
-14.83
-21.35
-27.8
-33.81
-38.95
-42.91
-45.74
-47.81
-49.78
-52.37
-56.26
-61.91
-69.39
-78.12
-86.71
-92.99
-94.4
-88.86
-75.57
-55.64
-31.81
-7.71
13.33
29.23
39.48
44.91
46.88
46.69
45.16
42.63
39.28
35.35
31.28
27.6
24.78
23.02
22.29
22.34
22.93
23.83
24.81
25.61
25.8
24.91
22.58
18.76
13.75
8.2
2.75
-2.18
-6.51
-10.46
-14.39
-18.52
-22.83
-27.03
-30.79
-33.9
-36.37
-38.56
-41.07
-44.67
-50.08
-57.69
-67.16
-77.15
-85.3
-88.73
-84.91
-72.62
-52.64
-27.63
-1.39
22.35
40.99
53.54
60.49
63.19
63.1
61.32
58.53
55.1
51.33
47.63
44.41
41.95
40.29
39.16
38.17
36.96
35.43
33.74
32.21
31.08
30.3
29.4
27.65
24.33
19.1
12.21
4.51
-2.85
-8.87
-13.11
-15.91
-18.17
-20.91
-24.83
-29.91
-35.49
-40.61
-44.44
-46.66
-47.65
-48.27
-49.68
-52.97
-58.83
-67.21
-77.06
-86.24
-91.84
-90.95
-81.63
-63.72
-39.17
-11.56
15.01
37.09
52.81
62.03
65.87
65.98
63.78
60.25
55.95
51.26
46.64
42.56
39.43
37.4
36.35
35.95
35.88
35.98
36.21
36.57
36.86
36.68
35.47
32.81
28.49
22.79
16.22
9.44
2.95
-3.04
-8.58
-13.91
-19.18
-24.43
-29.45
-33.92
-37.59
-40.39
-42.61
-44.88
-48.09
-53.11
-60.43
-69.69
-79.44
-87.15
-89.86
-85.09
-71.84
-51.16
-25.93
-0.02
22.99
40.75
52.59
59.24
62.11
62.56
61.52
59.46
56.61
53.25
49.88
46.99
45.07
44.32
44.6
45.56
46.74
47.76
48.37
48.45
47.92
46.65
44.52
41.39
37.21
32.04
26.11
19.71
13.19
6.95
1.35
-3.3
-6.83
-9.31
-11.13
-12.89
-15.27
-18.72
-23.32
-28.76
-34.43
-39.71
-44.21
-47.94
-51.25
-54.8
-59.37
-65.71
-74.2
-84.58
-95.52
-104.62
-108.77
-105.07
-91.97
-69.99
-41.91
-11.91
15.7
37.75
52.91
61.64
65.44
66.07
64.91
62.79
60.14
57.23
54.36
51.8
49.73
48.17
46.97
45.91
44.85
43.7
42.53
41.38
40.22
38.89
37.08
34.45
30.85
26.33
21.22
16.02
11.12
6.73
2.79
-0.9
-4.49
-7.93
-11.03
-13.6
-15.63
-17.41
-19.44
-22.18
-25.84
-30.23
-34.83
-38.99
-42.28
-44.67
-46.58
-48.83
-52.37
-57.99
-65.94
-75.66
-85.48
-92.83
-94.7
-88.67
-73.76
-51.11
-23.76
4.17
28.78
47.45
59.36
65.24
66.67
65.22
61.97
57.51
52.17
46.43
40.98
36.63
33.95
33.05
33.47
34.46
35.33
35.72
35.7
35.55
35.47
35.28
34.42
32.17
28.0
21.92
14.54
6.93
0.24
-4.77
-8.02
-10.12
-12.1
-14.93
-19.04
-24.19
-29.56
-34.2
-37.51
-39.48
-40.73
-42.27
-45.11
-50.07
-57.43
-66.73
-76.56
-84.6
-87.99
-84.12
-71.65
-51.16
-25.26
2.15
27.05
46.56
59.48
66.31
68.47
67.56
64.76
60.71
55.75
50.24
44.71
39.82
36.18
34.08
33.43
33.79
34.58
35.27
35.5
35.11
34.0
32.15
29.51
26.02
21.62
16.37
10.35
3.77
-3.12
-9.97
-16.38
-21.99
-26.49
-29.78
-32.05
-33.75
-35.46
-37.74
-40.88
-44.75
-48.89
-52.66
-55.53
-57.32
-58.31
-59.18
-60.85
-64.26
-70.13
-78.6
-88.86
-98.94
-105.85
-106.2
-97.41
-78.67
-51.64
-20.07
11.35
38.41
58.61
71.46
78.1
80.36
79.91
77.79
74.47
70.19
65.25
60.17
55.52
51.74
48.99
47.14
45.86
44.87
44.0
43.22
42.53
41.79
40.69
38.83
35.85
31.56
26.05
19.67
12.88
6.2
0.08
-5.16
-9.36
-12.51
-14.81
-16.63
-18.44
-20.72
-23.8
-27.7
-32.1
-36.47
-40.27
-43.2
-45.34
-47.18
-49.52
-53.27
-59.12
-67.28
-77.04
-86.64
-93.39
-94.26
-86.9
-70.57
-46.65
-18.4
10.03
34.87
53.68
65.75
71.75
73.05
71.05
66.79
61.02
54.41
47.64
41.46
36.5
33.14
31.4
30.94
31.31
32.04
32.87
33.67
34.41
34.9
34.8
33.54
30.66
25.97
19.78
12.85
6.07
0.15
-4.71
-8.9
-13.11
-17.97
-23.66
-29.83
-35.69
-40.48
-43.77
-45.72
-47.07
-48.96
-52.65
-59.06
-68.31
-79.3
-89.65
-96.06
-95.34
-85.5
-66.69
-41.29
-13.26
13.15
34.7
49.88
58.9
63.06
63.96
62.87
60.55
57.42
53.77
50.02
46.72
44.33
43.16
43.1
43.79
44.67
45.27
45.34
44.92
44.2
43.33
42.2
40.43
37.47
32.85
26.5
18.84
10.77
3.36
-2.58
-6.79
-9.69
-12.18
-15.23
-19.42
-24.71
-30.48
-35.83
-39.97
-42.59
-44.01
-45.05
-46.81
-50.38
-56.5
-65.27
-75.9
-86.57
-94.6
-96.98
-91.32
-76.7
-54.26
-27.04
0.91
25.71
44.72
57.04
63.27
64.87
63.39
60.04
55.56
50.49
45.37
40.74
37.13
34.81
33.67
33.33
33.31
33.28
33.22
33.28
33.6
34.1
34.3
33.52
31.17
27.03
21.43
15.12
9.03
3.83
-0.27
-3.57
-6.67
-10.17
-14.3
-18.88
-23.34
-27.05
-29.66
-31.25
-32.45
-34.17
-37.37
-42.71
-50.17
-58.78
-66.57
-70.89
-69.1
-59.48
-41.94
-18.28
8.28
33.97
55.6
71.24
80.46
83.94
82.83
78.28
71.2
62.36
52.56
42.81
34.22
27.74
23.9
22.64
23.43
25.45
27.94
30.33
32.22
33.26
33.02
31.03
26.93
20.68
12.72
3.86
-5.01
-13.22
-20.56
-27.24
-33.63
-39.94
-46.03
-51.41
-55.5
-57.95
-58.9
-59.09
-59.61
-61.7
-66.29
-73.53
-82.51
-91.11
-96.36
-95.25
-85.74
-67.65
-42.91
-15.09
11.72
34.19
50.53
60.68
65.76
67.29
66.57
64.37
61.11
57.11
52.78
48.63
45.13
42.44
40.44
38.73
36.95
34.95
32.86
30.98
29.51
28.3
26.8
24.26
20.04
14.0
6.61
-1.17
-8.25
-13.8
-17.6
-20.05
-21.96
-24.15
-27.09
-30.69
-34.41
-37.48
-39.31
-39.85
-39.65
-39.75
-41.4
-45.64
-52.87
-62.44
-72.55
-80.45
-83.15
-78.34
-65.3
-45.26
-21.14
3.33
24.81
41.14
51.74
57.24
58.82
57.66
54.58
50.11
44.72
39.03
33.75
29.59
26.97
25.91
26.05
26.79
27.58
28.14
28.49
28.79
29.08
29.16
28.51
26.5
22.7
17.09
10.12
2.52
-4.99
-12.08
-18.87
-25.85
-33.52
-42.01
-50.92
-59.42
-66.52
-71.52
-74.24
-75.08
-74.92
-74.85
-75.85
-78.57
-82.9
-87.78
-91.19
-90.56
-83.54
-68.96
-47.46
-21.5
5.42
29.83
49.24
62.72
70.66
74.2
74.54
72.55
68.77
63.58
57.45
51.09
45.2
40.46
37.23
35.6
35.38
36.2
37.58
38.96
39.8
39.55
37.8
34.35
29.22
22.75
15.5
8.08
1.02
-5.36
-11.01
-16.11
-20.92
-25.59
-30.08
-34.18
-37.65
-40.4
-42.64
-44.95
-48.15
-53.13
-60.47
-70.03
-80.66
-90.08
-95.28
-93.41
-82.81
-63.86
-39.07
-12.43
11.95
31.06
43.77
50.74
53.67
54.41
54.16
53.38
52.0
49.86
47.14
44.36
42.15
41.03
41.07
41.93
43.03
43.84
44.12
43.92
43.47
42.93
42.18
40.83
38.34
34.28
28.59
21.61
14.17
7.26
1.76
-1.96
-4.11
-5.48
-7.09
-9.76
-13.79
-18.85
-24.17
-28.92
-32.6
-35.24
-37.36
-39.76
-43.28
-48.61
-56.1
-65.61
-76.25
-86.2
-92.82
-93.23
-85.32
-68.64
-44.95
-17.77
8.67
30.83
46.83
56.62
61.5
63.15
62.89
61.42
58.95
55.62
51.72
47.79
44.42
42.0
40.64
40.08
39.91
39.72
39.27
38.56
37.71
36.87
35.99
34.83
33.02
30.17
26.1
20.85
14.77
8.38
2.28
-3.0
-7.12
-10.06
-12.07
-13.67
-15.46
-17.94
-21.33
-25.49
-29.93
-34.08
-37.49
-40.02
-41.93
-43.86
-46.6
-50.96
-57.48
-66.09
-75.79
-84.51
-89.41
-87.64
-77.36
-58.67
-33.82
-6.59
18.89
39.38
53.35
61.01
63.63
62.76
59.66
55.18
49.88
44.35
39.27
35.27
32.78
31.87
32.25
33.37
34.67
35.7
36.26
36.3
35.83
34.72
32.7
29.43
24.68
18.59
11.71
4.83
-1.28
-6.19
-10.0
-13.25
-16.6
-20.45
-24.73
-28.93
-32.38
-34.66
-35.84
-36.58
-37.97
-41.15
-46.94
-55.3
-65.11
-74.07
-79.16
-77.51
-67.45
-49.27
-25.35
0.52
24.35
43.15
55.67
62.28
64.4
63.61
61.09
57.44
52.89
47.67
42.2
37.11
33.04
30.43
29.29
29.26
29.79
30.27
30.32
29.8
28.77
27.31
25.47
23.17
20.21
16.41
11.69
6.2
0.34
-5.25
-9.89
-13.12
-14.89
-15.65
-16.17
-17.32
-19.64
-23.23
-27.67
-32.23
-36.19
-39.11
-41.05
-42.54
-44.46
-47.78
-53.28
-61.34
-71.55
-82.55
-91.96
-96.81
-94.26
-82.68
-62.43
-36.06
-7.63
18.53
39.08
