-50.97
-54.24
-59.19
-66.02
-74.08
-81.75
-86.64
-86.23
-78.66
-63.55
-42.36
-18.0
6.03
26.7
42.24
52.29
57.58
59.27
58.45
55.89
52.13
47.64
42.97
38.73
35.44
33.43
32.67
32.93
33.79
34.87
35.92
36.78
37.36
37.55
37.15
35.86
33.42
29.6
24.42
18.13
11.3
4.64
-1.09
-5.39
-8.16
-9.78
-10.98
-12.55
-15.01
-18.37
-22.18
-25.73
-28.45
-30.12
-31.01
-31.85
-33.48
-36.75
-42.22
-49.97
-59.43
-69.22
-77.22
-80.94
-78.19
-67.91
-50.65
-28.63
-5.05
16.75
34.33
46.53
53.52
56.24
55.9
53.54
49.92
45.55
40.92
36.51
32.79
30.17
28.82
28.69
29.46
30.72
32.08
33.25
34.08
34.46
34.23
33.22
31.26
28.29
24.44
20.0
15.31
10.72
6.51
2.85
-0.12
-2.32
-3.77
-4.64
-5.29
-6.2
-7.83
-10.41
-13.92
-18.07
-22.44
-26.69
-30.67
-34.44
-38.26
-42.52
-47.69
-54.25
-62.45
-72.02
-81.81
-89.74
-93.18
-89.79
-78.41
-59.76
-36.32
-11.66
10.76
28.53
40.79
47.98
51.29
51.97
51.02
49.06
46.55
43.91
41.51
39.65
38.44
37.8
37.5
37.36
37.23
37.13
37.12
37.23
37.34
37.13
36.19
34.12
30.79
26.35
21.28
16.16
11.45
7.38
3.9
0.8
-2.16
-5.06
-7.84
-10.39
-12.62
-14.64
-16.71
-19.16
-22.3
-26.21
-30.68
-35.25
-39.37
-42.68
-45.22
-47.44
-50.16
-54.31
-60.55
-68.84
-78.17
-86.5
-91.21
-89.78
-80.7
-64.19
-42.19
-17.88
5.31
24.67
38.87
47.85
52.46
53.8
52.85
50.33
46.84
42.98
39.41
36.72
35.3
35.17
36.01
37.26
38.38
39.07
39.35
39.45
39.61
39.81
39.66
38.53
35.79
31.13
24.82
17.58
10.42
4.23
-0.51
-3.9
-6.51
-9.1
-12.29
-16.23
-20.65
-24.92
-28.47
-31.03
-32.77
-34.32
-36.52
-40.22
-46.01
-53.98
-63.44
-72.86
-79.92
-82.05
-77.23
-64.76
-45.76
-22.88
0.43
21.02
36.9
47.5
53.45
55.91
55.99
54.39
51.49
47.61
43.21
38.96
35.61
33.72
33.41
34.41
36.11
37.81
38.95
39.25
38.66
37.31
35.35
32.83
29.64
25.6
20.59
14.65
8.11
1.56
-4.33
-9.0
-12.24
-14.23
-15.51
-16.77
-18.65
-21.45
-25.14
-29.32
-33.42
-36.98
-39.79
-42.11
-44.49
-47.71
-52.55
-59.48
-68.47
-78.66
-88.24
-94.68
-95.27
-88.02
-72.52
-50.27
-24.41
1.32
23.63
40.57
51.75
57.96
60.53
60.71
59.42
57.25
54.59
51.8
49.19
46.96
45.13
43.6
42.2
40.79
39.39
38.13
37.14
36.51
36.1
35.57
34.54
32.67
29.85
26.25
22.22
18.15
14.35
10.97
7.99
5.27
2.73
0.27
-2.14
-4.55
-7.04
-9.76
-12.89
-16.57
-20.88
-25.73
-30.86
-35.92
-40.57
-44.65
-48.37
-52.34
-57.45
-64.52
-73.74
-84.22
-93.81
-99.61
-98.81
-89.76
-72.7
-49.79
-24.49
-0.42
19.61
34.24
43.45
48.23
49.81
49.31
47.53
44.97
42.02
39.06
36.5
34.72
33.86
33.78
34.1
34.34
34.19
33.63
32.97
32.56
32.59
32.88
32.86
31.82
29.18
24.81
19.07
12.75
6.81
2.05
-1.11
-2.88
-3.86
-4.95
-6.87
-9.9
-13.78
-17.82
-21.27
-23.67
-25.11
-26.19
-27.83
-30.98
-36.36
-44.15
-53.81
-63.91
-72.2
-76.04
-73.13
-62.38
-44.46
-21.79
2.14
23.84
40.84
52.16
58.2
60.17
59.32
56.56
52.39
47.13
41.23
35.42
30.52
27.31
26.17
26.93
29.01
31.64
34.06
35.78
36.57
36.36
35.21
33.15
30.2
26.39
21.8
16.59
10.99
5.33
0.03
-4.51
-8.03
-10.49
-12.16
-13.49
-15.04
-17.24
-20.28
-24.12
-28.52
-33.16
-37.77
-42.13
-46.17
-49.94
-53.74
-58.08
-63.64
-71.0
-80.17
-90.19
-98.93
-103.47
-101.01
-89.92
-70.56
-45.39
-18.17
7.21
27.91
42.74
52.04
57.07
59.3
59.92
59.7
59.08
58.24
57.13
55.56
53.29
50.2
46.5
42.66
39.34
37.09
36.24
36.83
38.63
41.22
44.08
46.6
48.22
48.51
47.42
45.19
42.35
39.39
36.49
33.4
29.56
24.45
17.88
10.21
2.23
-5.17
-11.41
-16.46
-20.8
-25.18
-30.2
-36.01
-42.27
-48.36
-53.73
-58.14
-61.81
-65.25
-69.19
-74.31
-81.11
-89.55
-98.8
-107.0
-111.41
-109.22
-98.42
-78.83
-52.39
-22.69
6.16
30.78
49.34
61.68
68.81
72.12
72.83
71.74
69.37
66.16
62.61
59.25
56.56
54.79
53.93
53.68
53.65
53.43
52.82
51.78
50.47
49.1
47.71
46.11
43.87
40.49
35.58
29.14
21.58
13.66
6.25
0.02
-4.81
-8.55
-11.87
-15.52
-19.95
-25.13
-30.55
-35.41
-39.07
-41.33
-42.58
-43.63
-45.51
-49.1
-54.96
-63.09
-72.8
-82.58
-90.12
-92.78
-88.25
-75.49
-55.33
-30.4
-4.48
18.76
36.73
48.55
54.82
56.9
56.16
53.5
49.39
44.21
38.6
33.53
30.1
29.11
30.73
34.43
39.19
43.92
47.9
50.93
53.25
55.31
57.36
59.33
60.81
61.24
60.23
57.75
54.21
50.3
46.71
43.82
41.54
39.32
36.49
32.53
27.41
21.67
16.28
12.32
10.67
11.6
14.65
18.6
21.74
22.3
19.05
11.85
1.94
-8.1
-15.11
-16.29
-10.35
1.94
17.75
33.01
43.49
46.03
39.16
23.27
0.35
-26.63
-54.31
-79.46
-99.43
-112.51
-118.19
-117.13
-110.94
-101.71
-91.48
-81.77
-73.4
-66.51
-60.83
-55.84
-51.14
-46.53
-42.05
-37.89
-34.31
-31.49
-29.44
-28.01
-26.89
-25.76
-24.41
-22.8
-21.08
-19.45
-18.06
-16.94
-16.02
-15.25
-14.66
-14.41
-14.69
-15.6
-17.03
-18.7
-20.26
-21.42
-22.15
-22.64
-23.3
-24.63
-27.11
-30.97
-35.96
-41.22
-45.34
-46.64
-43.82
-36.36
-24.92
-11.08
3.07
15.64
25.35
31.75
35.04
35.75
34.51
31.91
28.44
24.54
20.61
17.02
14.06
11.9
10.64
10.22
10.44
11.06
11.83
12.54
13.04
13.2
12.87
11.99
10.55
8.77
6.91
5.31
4.1
3.23
2.48
1.54
0.2
-1.54
-3.47
-5.24
-6.52
-7.2
-7.42
-7.53
-7.95
-8.99
-10.68
-12.75
-14.8
-16.46
-17.62
-18.44
-19.31
-20.78
-23.33
-27.32
-32.76
-39.12
-45.23
-49.4
-49.86
-45.3
-35.45
-21.28
-4.74
11.74
26.05
36.8
43.53
46.5
46.39
43.95
39.86
34.69
28.94
23.13
17.77
13.29
9.96
7.73
6.27
5.1
3.8
2.28
0.79
-0.16
-0.12
1.0
2.85
4.7
5.79
5.65
4.28
2.17
-0.04
-1.88
-3.26
-4.51
-6.15
-8.53
-11.64
-15.08
-18.23
-20.64
-22.26
-23.48
-25.06
-27.79
-32.22
-38.35
-45.53
-52.39
-57.13
-57.85
-53.19
-42.78
-27.56
-9.49
8.94
25.44
38.58
47.88
53.69
56.74
57.7
57.05
55.05
51.98
48.21
44.22
40.51
37.49
35.32
33.95
33.15
32.65
32.24
31.72
30.99
29.93
28.46
26.54
24.21
21.59
18.82
16.01
13.15
10.23
7.32
4.59
2.35
0.88
0.29
0.38
0.71
0.76
0.11
-1.34
-3.32
-5.32
-6.72
-7.07
-6.25
-4.59
-2.87
-2.12
-3.32
-6.92
-12.32
-17.81
-20.76
-18.45
-8.96
7.92
30.36
54.66
76.14
90.34
94.24
87.16
70.93
49.3
26.8
7.43
-6.35
-14.05
-16.68
-16.08
-14.0
-11.68
-9.77
-8.65
-8.52
-9.52
-11.54
-14.06
-16.3
-17.49
-17.23
-15.73
-13.72
-12.14
-11.79
-13.16
-16.34
-21.24
-27.73
-35.73
-45.12
-55.61
-66.67
-77.6
-87.72
-96.62
-104.26
-110.92
-116.99
-122.69
-127.85
-131.91
-134.18
-134.05
-131.43
-126.73
-120.87
-115.02
-110.51
-108.51
-109.8
-114.21
-120.19
-124.77
-124.18
-115.13
-96.12
-68.26
-35.01
-0.99
29.56
54.03
71.72
83.45
90.61
94.48
95.95
95.59
93.94
91.54
88.98
86.7
84.93
83.66
82.66
81.66
80.43
78.88
77.11
75.3
73.62
72.03
70.16
67.42
63.2
57.17
49.47
40.83
32.29
24.87
19.22
15.3
12.53
10.01
6.92
2.85
-2.1
-7.43
-12.52
-16.9
-20.38
-23.19
-25.84
-29.05
-33.59
-40.07
-48.68
-58.83
-68.94
-76.56
-78.9
-73.7
-60.22
-39.59
-14.65
10.91
33.64
51.24
62.88
68.94
70.54
68.9
65.1
59.95
54.2
48.5
43.51
39.73
37.51
36.92
37.8
39.77
42.35
44.98
47.12
48.36
48.4
47.09
44.46
40.7
36.11
30.99
25.61
20.17
14.82
9.68
4.91
0.71
-2.77
-5.38
-7.11
-8.14
-8.86
-9.89
-11.88
-15.35
-20.41
-26.75
-33.66
-40.36
-46.24
-51.13
-55.42
-59.91
-65.63
-73.33
-83.08
-93.73
-102.9
-107.36
-104.06
-91.27
-69.48
-41.47
-11.46
16.13
38.08
52.99
61.23
64.27
63.89
61.59
58.4
54.99
51.75
48.98
46.88
45.53
44.95
45.01
45.52
46.29
47.13
47.94
48.7
49.47
50.17
50.59
50.31
48.82
45.8
41.28
35.77
30.09
25.11
21.41
19.07
17.66
16.48
14.84
12.4
9.28
5.99
3.17
1.22
0.14
-0.6
-1.68
-3.72
-6.86
-10.69
-14.48
-17.56
-19.71
-21.38
-23.63
-27.76
-34.96
-45.95
-60.88
-79.05
-98.81
-117.44
-131.41
-137.15
-132.16
-116.04
-90.89
-60.79
-30.55
-4.24
15.9
29.56
37.89
42.5
44.76
45.45
44.91
43.4
41.35
39.37
38.14
38.11
39.35
41.55
44.08
46.35
47.93
48.69
48.76
48.3
47.34
45.66
42.89
38.7
32.95
25.9
18.23
10.81
4.54
-0.03
-2.88
-4.57
-5.97
-7.94
-10.97
-14.99
-19.45
-23.6
-26.89
-29.23
-31.08
-33.27
-36.71
-42.2
-50.15
-60.42
-72.09
-83.3
-91.37
-93.44
-87.26
-72.22
-49.76
-23.15
3.55
26.7
44.08
55.19
60.82
62.33
60.9
57.26
51.78
44.79
36.95
29.27
22.92
18.94
17.89
19.6
23.32
27.91
32.24
35.46
37.13
37.22
35.88
33.29
29.52
24.56
18.35
10.93
2.57
-6.2
-14.61
-21.86
-27.35
-30.87
-32.71
-33.55
-34.34
-36.01
-39.41
-45.12
-53.18
-62.84
-72.3
-78.95
-79.98
-73.32
-58.53
-37.21
-12.49
11.86
32.66
48.07
57.82
62.73
64.03
62.79
59.67
54.99
49.06
42.42
35.89
30.41
26.82
25.55
26.51
29.06
32.32
35.3
37.25
37.72
36.64
34.12
30.39
25.62
19.94
13.37
5.91
-2.3
-10.95
-19.49
-27.29
-33.78
-38.65
-42.01
-44.29
-46.22
-48.68
-52.54
-58.57
-67.13
-77.76
-88.89
-97.79
-101.15
-96.21
-81.9
-59.5
-32.42
-5.04
18.74
36.68
48.45
55.2
58.56
59.86
59.75
58.45
56.07
52.99
49.87
47.4
46.07
45.91
46.5
47.25
47.65
47.56
47.17
46.83
46.76
46.78
46.32
44.64
41.09
35.5
28.25
20.2
12.45
5.97
1.21
-2.01
-4.48
-7.22
-11.13
-16.48
-22.9
-29.47
-35.22
-39.52
-42.43
-44.65
-47.32
-51.69
-58.75
-68.93
-81.71
-95.36
-106.95
-112.83
-109.75
-96.04
-72.52
-42.47
-10.71
18.04
40.5
55.58
64.03
67.64
68.22
67.12
65.14
62.8
60.56
58.86
57.91
57.65
57.7
57.57
56.89
55.66
54.2
53.05
52.65
53.06
53.8
54.0
52.67
49.17
43.49
36.32
28.78
21.95
16.53
12.53
9.39
6.36
2.85
-1.27
-5.65
-9.67
-12.86
-15.16
-17.06
-19.36
-22.8
-27.69
-33.73
-40.14
-45.99
-50.64
-53.99
-56.59
-59.45
-63.82
-70.7
-80.44
-92.2
-103.74
-111.72
-112.5
-103.46
-84.09
-56.48
-24.82
5.93
31.62
49.96
60.72
65.26
65.53
63.29
59.77
55.72
51.64
48.04
45.35
43.85
43.49
43.87
44.38
44.44
43.75
42.44
40.98
39.9
39.42
39.26
38.65
36.65
32.59
26.41
18.77
10.77
3.59
-2.0
-5.89
-8.59
-11.07
-14.23
-18.59
-24.0
-29.71
-34.72
-38.25
-40.15
-40.93
-41.73
-43.82
-48.33
-55.81
-65.91
-77.12
-86.81
-91.7
-88.79
-76.54
-55.65
-29.15
-1.37
23.39
42.26
54.37
60.55
62.46
61.73
59.43
56.12
52.14
47.89
43.87
40.53
38.09
36.52
35.48
34.65
33.81
33.01
32.51
32.48
32.82
33.01
32.21
29.59
24.73
17.9
9.97
2.07
-4.78
-10.11
-14.07
-17.26
-20.41
-24.02
-28.08
-32.14
-35.49
-37.61
-38.42
-38.47
-38.79
-40.59
-44.86
-52.02
-61.49
-71.63
-79.75
-82.79
-78.16
-64.84
-43.92
-18.5
7.24
29.46
45.74
55.54
59.82
60.22
58.25
54.91
50.66
45.83
40.77
35.98
31.99
29.16
27.62
27.23
27.7
28.65
29.74
30.69
31.24
31.15
30.1
27.83
24.18
19.26
13.47
7.41
1.7
-3.23
-7.23
-10.47
-13.25
-15.84
-18.29
-20.5
-22.22
-23.32
-23.94
-24.54
-25.73
-27.99
-31.41
-35.59
-39.81
-43.34
-45.81
-47.43
-48.93
-51.29
-55.44
-61.78
-69.91
-78.33
-84.59
-85.79
-79.47
-64.58
-42.16
-15.23
12.05
35.69
52.99
63.11
66.83
65.85
61.95
56.5
50.35
44.03
37.97
32.65
28.54
25.9
24.76
24.79
25.48
26.33
27.0
27.47
27.83
28.13
28.16
27.39
25.26
21.37
15.86
9.4
3.02
-2.36
-6.18
-8.53
-9.99
-11.28
-12.96
-15.13
-17.47
-19.5
-20.81
-21.37
-21.55
-21.98
-23.28
-25.8
-29.47
-33.82
-38.16
-41.9
-44.77
-46.92
-48.92
-51.61
-55.75
-61.83
-69.6
-77.88
-84.49
-86.67
-81.88
-68.76
-47.88
-21.85
5.49
30.15
49.29
61.78
68.08
69.55
67.66
63.54
57.84
51.1
43.96
37.24
31.73
27.99
26.14
25.88
26.68
27.99
29.41
30.7
31.71
32.23
31.97
30.55
27.71
23.44
18.05
12.14
6.45
1.6
-2.09
-4.72
-6.68
-8.5
-10.52
-12.82
-15.13
-17.04
-18.26
-18.79
-19.01
-19.54
-20.94
-23.45
-26.89
-30.69
-34.21
-36.98
-38.9
-40.34
-42.01
-44.72
-49.13
-55.45
-63.05
-70.37
-75.06
-74.57
-67.01
-51.95
-30.89
-6.85
16.45
35.85
49.5
57.14
59.73
58.65
55.21
50.37
44.76
38.96
33.56
29.11
26.01
24.34
23.94
24.48
25.59
26.93
28.28
29.44
30.22
30.4
29.75
27.99
24.96
20.7
15.47
9.8
4.32
-0.44
-4.22
-7.1
-9.41
-11.54
-13.67
-15.72
-17.36
-18.31
-18.55
-18.43
-18.59
-19.68
-21.99
-25.35
-29.16
-32.68
-35.34
-37.04
-38.09
-39.18
-41.1
-44.5
-49.69
-56.38
-63.39
-68.82
-70.28
-65.72
-54.19
-36.42
-14.76
7.51
27.18
42.08
51.46
55.83
56.4
54.38
50.64
45.74
40.1
34.24
28.82
24.48
21.61
20.28
20.25
21.11
22.52
24.21
25.94
27.48
28.45
28.51
27.32
24.8
21.12
16.67
11.9
7.21
2.87
-1.03
-4.46
-7.46
-10.05
-12.25
-14.04
-15.46
-16.6
-17.63
-18.77
-20.22
-22.09
-24.28
-26.63
-28.85
-30.78
-32.42
-33.99
-35.92
-38.73
-42.85
-48.45
-55.17
-61.92
-66.95
-68.19
-63.86
-53.16
-36.75
-16.64
4.27
23.16
38.0
47.93
53.16
54.55
53.13
49.77
45.12
39.7
34.02
28.65
24.19
21.1
19.66
19.8
21.15
23.15
25.18
26.78
27.72
27.93
27.47
26.33
24.45
21.77
18.24
13.93
9.05
3.97
-0.93
-5.19
-8.51
-10.74
-12.02
-12.75
-13.48
-14.72
-16.72
-19.4
-22.32
-25.0
-27.07
-28.51
-29.64
-31.01
-33.26
-36.85
-42.01
-48.5
-55.53
-61.69
-65.12
-64.03
-57.22
-44.66
-27.65
-8.5
10.17
26.14
38.05
45.55
49.02
49.24
46.97
42.97
37.86
32.28
26.87
22.27
19.03
17.49
17.65
19.22
21.62
24.24
26.56
28.27
29.29
29.57
28.99
27.31
24.28
19.83
14.21
8.02
2.06
-2.97
-6.77
-9.51
-11.77
-14.2
-17.27
-20.95
-24.9
-28.49
-31.27
-33.14
-34.4
-35.73
-37.89
-41.54
-47.02
-54.16
-62.09
-69.26
-73.63
-73.19
-66.63
-53.88
-36.31
-16.36
3.16
19.94
32.63
41.06
45.75
47.63
47.47
45.83
43.12
39.72
36.08
32.76
30.25
28.89
28.71
29.48
30.77
32.15
33.23
33.8
33.73
33.01
31.63
29.58
26.76
23.08
18.53
13.25
7.61
2.17
-2.49
-6.01
-8.37
-9.94
-11.25
-12.83
-14.93
-17.47
-20.16
-22.67
-24.79
-26.51
-28.02
-29.62
-31.74
-34.81
-39.34
-45.59
-53.41
-61.91
-69.37
-73.55
-72.36
-64.56
-50.37
-31.53
-10.76
9.04
25.67
37.98
45.93
50.18
51.62
51.03
49.04
46.09
42.66
39.21
36.24
34.14
33.1
33.06
33.73
34.64
35.34
35.53
35.15
34.29
33.09
31.6
29.7
27.18
23.86
19.71
14.94
9.94
5.13
0.91
-2.52
-5.19
-7.31
-9.27
-11.48
-14.2
-17.49
-21.12
-24.68
-27.74
-30.1
-31.82
-33.27
-34.99
-37.65
-41.8
-47.75
-55.3
-63.58
-70.9
-75.05
-73.91
-66.15
-51.85
-32.67
-11.35
9.1
26.27
38.91
46.97
51.19
52.57
51.96
49.86
46.65
42.75
38.75
35.33
33.1
32.29
32.74
33.93
35.28
36.29
36.72
36.56
35.88
34.7
32.97
30.58
27.51
23.8
19.66
15.28
10.84
6.45
2.26
-1.58
-4.86
-7.37
-9.06
-10.18
-11.2
-12.7
-15.1
-18.45
-22.36
-26.25
-29.58
-32.17
-34.2
-36.24
-38.97
-43.05
-48.88
-56.39
-64.84
-72.71
-77.88
-78.09
-71.74
-58.52
-39.75
-18.07
3.39
21.91
35.88
44.96
49.76
51.28
50.43
47.87
44.06
39.5
34.87
30.98
28.53
27.88
28.83
30.81
33.08
35.05
36.46
37.34
37.75
37.62
36.59
34.24
30.32
