-29.15
-32.38
-36.55
-41.18
-45.33
-47.73
-47.19
-43.01
-35.31
-25.05
-13.67
-2.67
6.86
14.42
20.04
24.05
26.78
28.52
29.47
29.82
29.78
29.54
29.24
28.88
28.37
27.63
26.59
25.33
23.95
22.59
21.32
20.13
18.94
17.66
16.19
14.46
12.4
10.05
7.47
4.78
2.2
-0.09
-1.94
-3.38
-4.58
-5.82
-7.36
-9.36
-11.75
-14.32
-16.73
-18.74
-20.24
-21.38
-22.46
-23.87
-25.9
-28.67
-32.04
-35.57
-38.54
-40.12
-39.49
-36.13
-29.96
-21.42
-11.34
-0.72
9.44
18.39
25.62
30.91
34.27
35.89
36.1
35.24
33.66
31.62
29.32
26.92
24.6
22.52
20.79
19.44
18.41
17.6
16.86
16.04
15.01
13.64
11.87
9.69
7.12
4.27
1.23
-1.91
-5.04
-8.04
-10.8
-13.19
-15.1
-16.54
-17.61
-18.47
-19.32
-20.31
-21.49
-22.76
-23.97
-24.96
-25.7
-26.29
-27.01
-28.23
-30.28
-33.32
-37.23
-41.4
-44.89
-46.56
-45.39
-40.88
-33.19
-23.17
-12.11
-1.32
8.17
15.84
21.62
25.83
28.85
31.03
32.56
33.54
33.97
33.89
33.4
32.66
31.86
31.1
30.42
29.77
29.08
28.36
27.63
26.92
26.14
25.12
23.62
21.46
18.66
15.39
12.04
8.96
6.36
4.26
2.44
0.67
-1.21
-3.19
-5.11
-6.77
-8.11
-9.24
-10.46
-12.06
-14.2
-16.8
-19.54
-22.04
-23.96
-25.18
-25.84
-26.27
-26.91
-28.19
-30.44
-33.72
-37.77
-41.93
-45.14
-46.26
-44.3
-38.86
-30.3
-19.66
-8.36
2.23
11.19
18.17
23.29
26.86
29.26
30.73
31.46
31.63
31.41
30.95
30.32
29.52
28.52
27.34
26.1
24.98
24.12
23.55
23.13
22.65
21.83
20.51
18.67
16.44
14.0
11.56
9.25
7.09
5.05
3.06
1.06
-0.99
-3.06
-5.1
-7.03
-8.77
-10.31
-11.72
-13.14
-14.72
-16.5
-18.43
-20.31
-21.95
-23.28
-24.4
-25.52
-26.94
-28.92
-31.63
-35.0
-38.69
-41.96
-43.77
-43.08
-39.16
-31.97
-22.23
-11.24
-0.47
8.92
16.3
21.64
25.27
27.6
28.95
29.51
29.37
28.67
27.58
26.34
25.16
24.12
23.17
22.14
20.94
19.57
18.21
17.08
16.29
15.76
15.19
14.19
12.5
10.06
7.06
3.86
0.85
-1.7
-3.66
-5.09
-6.21
-7.32
-8.73
-10.61
-12.94
-15.49
-17.91
-19.92
-21.4
-22.52
-23.67
-25.3
-27.77
-31.21
-35.38
-39.63
-42.97
-44.26
-42.51
-37.25
-28.73
-17.98
-6.44
4.43
13.61
20.69
25.81
29.39
31.82
33.33
33.99
33.88
33.1
31.87
30.39
28.84
27.3
25.84
24.55
23.51
22.78
22.3
21.91
21.37
20.43
18.93
16.87
14.38
11.68
9.02
6.58
4.45
2.59
0.88
-0.84
-2.69
-4.65
-6.6
-8.36
-9.78
-10.85
-11.68
-12.53
-13.65
-15.19
-17.12
-19.31
-21.49
-23.43
-25.0
-26.18
-27.16
-28.26
-29.95
-32.59
-36.22
-40.34
-43.9
-45.49
-43.86
-38.42
-29.5
-18.29
-6.5
4.31
13.06
19.41
23.6
26.21
27.82
28.91
29.73
30.37
30.81
31.0
30.85
30.34
29.43
28.21
26.77
25.25
23.85
22.7
21.91
21.4
20.98
20.35
19.24
17.5
15.17
12.45
9.59
6.8
4.18
1.75
-0.54
-2.68
-4.63
-6.37
-7.9
-9.31
-10.77
-12.43
-14.37
-16.55
-18.82
-20.98
-22.9
-24.5
-25.81
-26.92
-28.01
-29.3
-31.1
-33.67
-37.03
-40.76
-43.92
-45.26
-43.63
-38.43
-29.92
-19.18
-7.7
3.05
12.08
18.99
23.85
27.03
28.92
29.88
30.18
30.05
29.64
29.02
28.22
27.25
26.14
24.97
23.8
22.68
21.59
20.51
19.41
18.31
17.24
16.14
14.93
13.45
11.61
9.39
6.91
4.37
1.96
-0.21
-2.14
-3.97
-5.82
-7.84
-10.03
-12.33
-14.59
-16.66
-18.4
-19.76
-20.77
-21.53
-22.3
-23.36
-25.08
-27.71
-31.23
-35.23
-38.83
-40.87
-40.27
-36.4
-29.36
-19.98
-9.51
0.76
9.86
17.29
22.92
26.92
29.47
30.78
31.02
30.42
29.22
27.7
26.06
24.45
22.93
21.52
20.18
18.93
17.76
16.71
15.78
14.98
14.21
13.37
12.32
10.93
9.12
6.87
4.22
1.3
-1.67
-4.46
-6.82
-8.64
-9.98
-11.07
-12.26
-13.81
-15.85
-18.23
-20.64
-22.75
-24.35
-25.45
-26.27
-27.24
-28.81
-31.34
-34.89
-39.11
-43.19
-45.96
-46.23
-43.13
-36.51
-26.97
-15.79
-4.42
5.84
14.25
20.59
25.07
28.1
30.06
31.26
31.86
31.99
31.75
31.22
30.47
29.55
28.55
27.53
26.57
25.66
24.77
23.8
22.66
21.26
19.62
17.79
15.86
13.88
11.84
9.66
7.24
4.56
1.69
-1.18
-3.81
-6.0
-7.7
-9.04
-10.32
-11.82
-13.72
-15.98
-18.36
-20.58
-22.44
-23.9
-25.13
-26.39
-27.98
-30.14
-33.03
-36.61
-40.64
-44.49
-47.23
-47.76
-45.17
-39.04
-29.75
-18.36
-6.36
4.79
14.05
21.0
25.78
28.93
31.06
32.62
33.83
34.69
35.06
34.88
34.17
33.11
31.89
30.68
29.47
28.18
26.72
25.07
23.33
21.65
20.08
18.56
16.88
14.76
12.02
8.69
4.99
1.33
-1.88
-4.36
-6.01
-7.01
-7.7
-8.46
-9.63
-11.37
-13.64
-16.22
-18.86
-21.32
-23.44
-25.16
-26.51
-27.62
-28.73
-30.23
-32.52
-35.89
-40.14
-44.53
-47.78
-48.43
-45.43
-38.54
-28.46
-16.62
-4.63
6.16
14.99
21.67
26.36
29.38
31.03
31.63
31.46
30.84
30.05
29.29
28.65
28.07
27.46
26.7
25.73
24.59
23.42
22.42
21.73
21.32
20.98
20.32
18.94
16.6
13.37
9.58
5.71
2.14
-0.93
-3.57
-6.04
-8.58
-11.32
-14.21
-17.1
-19.77
-22.1
-24.07
-25.88
-27.85
-30.4
-33.86
-38.29
-43.32
-48.06
-51.25
-51.58
-48.12
-40.67
-29.94
-17.34
-4.58
6.82
15.99
22.73
27.43
30.72
33.1
34.85
35.99
36.43
36.13
35.17
33.8
32.29
30.86
29.64
28.6
27.69
26.81
25.95
25.1
24.24
23.29
22.11
20.53
18.45
15.94
13.18
10.37
7.69
5.21
2.89
0.63
-1.61
-3.85
-6.13
-8.46
-10.91
-13.54
-16.3
-19.09
-21.75
-24.17
-26.35
-28.37
-30.37
-32.52
-35.02
-38.1
-41.93
-46.44
-51.12
-54.97
-56.6
-54.73
-48.65
-38.58
-25.73
-11.86
1.25
12.33
20.86
26.97
31.14
33.87
35.53
36.35
36.5
36.17
35.62
35.0
34.4
33.76
32.92
31.77
30.33
28.74
27.23
25.97
24.99
24.13
23.15
21.82
20.07
17.95
15.63
13.18
10.64
7.97
5.17
2.31
-0.43
-2.9
-5.04
-6.98
-8.95
-11.19
-13.85
-16.87
-20.05
-23.1
-25.78
-27.92
-29.52
-30.72
-31.79
-33.15
-35.23
-38.4
-42.77
-47.96
-53.1
-56.91
-58.03
-55.43
-48.79
-38.63
-26.21
-13.09
-0.78
9.66
17.74
23.53
27.42
29.9
31.4
32.18
32.38
32.1
31.41
30.5
29.57
28.78
28.25
27.94
27.77
27.57
27.25
26.74
26.0
24.96
23.44
21.27
18.32
14.67
10.57
6.48
2.88
0.07
-1.94
-3.46
-4.96
-6.9
-9.47
-12.62
-16.03
-19.29
-22.06
-24.2
-25.81
-27.23
-28.95
-31.45
-35.04
-39.66
-44.7
-49.07
-51.4
-50.45
-45.5
-36.71
-25.08
-12.19
0.29
11.02
19.3
25.14
29.03
31.63
33.52
35.01
36.16
36.84
36.89
36.27
35.06
33.46
31.69
29.92
28.29
26.92
25.85
25.09
24.5
23.87
22.93
21.45
19.36
16.72
13.7
10.52
7.34
4.27
1.39
-1.26
-3.6
-5.58
-7.22
-8.65
-10.09
-11.76
-13.83
-16.27
-18.94
-21.58
-24.02
-26.17
-28.11
-30.02
-32.08
-34.48
-37.38
-40.94
-45.13
-49.63
-53.64
-56.01
-55.48
-51.19
-43.04
-31.8
-18.93
-6.08
5.43
14.87
22.14
27.54
31.52
34.46
36.58
37.97
38.69
38.76
38.23
37.2
35.82
34.23
32.63
31.17
29.97
29.09
28.51
28.1
27.66
26.9
25.56
23.5
20.76
17.54
14.16
10.93
8.07
5.59
3.39
1.28
-0.88
-3.17
-5.58
-8.03
-10.47
-12.86
-15.23
-17.65
-20.13
-22.6
-24.9
-26.85
-28.33
-29.38
-30.25
-31.38
-33.23
-36.14
-40.14
-44.79
-49.17
-52.05
-52.22
-48.85
-41.83
-31.77
-19.9
-7.66
3.65
13.13
20.39
25.51
28.8
30.71
31.6
31.77
31.37
30.55
29.44
28.21
27.0
25.92
24.98
24.16
23.45
22.91
22.57
22.39
22.13
21.41
19.87
17.37
14.09
10.47
7.01
4.03
1.57
-0.6
-2.79
-5.26
-8.08
-11.17
-14.37
-17.49
-20.31
-22.66
-24.41
-25.65
-26.71
-28.19
-30.76
-34.88
-40.35
-46.24
-50.94
-52.71
-50.29
-43.34
-32.68
-19.91
-6.91
4.73
14.11
21.03
25.8
28.93
30.88
31.95
32.35
32.23
31.77
31.14
30.47
29.87
29.32
28.73
28.0
27.05
25.95
24.82
23.79
22.96
22.22
21.39
20.22
18.49
16.11
13.13
9.71
6.09
2.52
-0.77
-3.63
-6.05
-8.16
-10.22
-12.53
-15.28
-18.42
-21.72
-24.78
-27.32
-29.27
-30.79
-32.26
-34.13
-36.8
-40.52
-45.28
-50.62
-55.64
-59.01
-59.33
-55.58
-47.58
-36.13
-22.82
-9.46
2.5
12.28
19.8
25.41
29.58
32.66
34.83
36.19
36.84
36.9
36.51
35.81
34.91
33.89
32.8
31.69
30.59
29.56
28.62
27.8
27.11
26.43
25.58
24.29
22.35
19.67
16.37
12.76
9.21
6.01
3.31
0.99
-1.2
-3.55
-6.28
-9.4
-12.75
-16.1
-19.2
-21.88
-24.07
-25.85
-27.37
-28.94
-30.95
-33.87
-38.0
-43.26
-48.95
-53.83
-56.32
-55.1
-49.52
-40.0
-27.86
-14.88
-2.75
7.41
15.24
20.94
24.99
27.86
29.87
31.18
31.87
32.0
31.64
30.85
29.69
28.23
26.64
25.13
23.96
23.28
23.09
23.13
23.04
22.43
21.02
18.76
15.77
12.28
8.61
5.01
1.64
-1.49
-4.48
-7.57
-10.93
-14.6
-18.4
-22.0
-25.04
-27.34
-29.04
-30.54
-32.49
-35.53
-40.0
-45.74
-51.9
-57.05
-59.51
-57.87
-51.54
-40.97
-27.63
-13.43
-0.23
10.73
19.02
24.89
28.93
31.79
33.92
35.54
36.71
37.42
37.64
37.39
36.72
35.67
34.35
32.9
31.49
30.33
29.54
29.13
28.95
28.67
27.91
26.34
23.85
20.54
16.68
12.65
8.81
5.41
2.57
0.26
-1.71
-3.65
-5.95
-8.92
-12.63
-16.89
-21.19
-24.98
-27.81
-29.66
-30.94
-32.41
-34.92
-39.05
-44.8
-51.48
-57.78
-62.12
-63.01
-59.56
-51.75
-40.43
-27.11
-13.5
-1.08
9.23
17.18
23.03
27.29
30.5
33.01
35.01
36.5
37.5
37.98
37.96
37.46
36.53
35.24
33.71
32.13
30.71
29.59
28.76
28.08
27.25
25.92
23.83
20.88
17.24
13.22
9.3
5.86
3.12
1.02
-0.76
-2.66
-5.13
-8.38
-12.32
-16.6
-20.77
-24.44
-27.42
-29.83
-32.04
-34.56
-37.89
-42.31
-47.69
-53.36
-58.15
-60.58
-59.31
-53.61
-43.64
-30.54
-16.07
-2.12
9.87
19.15
25.71
30.01
32.69
34.31
35.19
35.5
35.32
34.74
33.86
32.81
31.63
30.34
28.88
27.27
25.62
24.14
23.05
22.39
22.01
21.49
20.36
18.28
15.19
11.36
7.2
3.11
-0.75
-4.48
-8.24
-12.2
-16.31
-20.35
-24.02
-27.12
-29.65
-31.87
-34.26
-37.35
-41.58
-47.0
-53.14
-58.95
-62.95
-63.64
-59.99
-51.8
-39.9
-25.83
-11.46
1.64
12.56
21.12
27.67
32.77
36.88
40.21
42.77
44.47
45.3
45.35
44.76
43.75
42.43
40.92
39.27
37.58
35.98
34.56
33.34
32.26
31.18
29.9
28.21
25.95
23.04
19.48
15.43
11.15
6.98
3.26
0.16
-2.34
-4.45
-6.48
-8.78
-11.56
-14.87
-18.55
-22.33
-25.9
-29.05
-31.74
-34.17
-36.72
-39.83
-43.91
-49.12
-55.17
-61.28
-66.14
-68.22
-66.19
-59.42
-48.28
-34.12
-18.87
-4.43
7.87
17.52
24.71
30.01
34.01
37.06
39.24
40.52
40.88
40.46
39.53
38.37
37.21
36.07
34.86
33.5
31.98
30.48
29.25
28.47
28.13
27.93
27.4
26.08
23.71
20.41
16.56
12.74
9.42
6.81
4.7
2.6
-0.04
-3.6
-8.09
-13.19
-18.33
-23.04
-27.06
-30.4
-33.31
-36.16
-39.33
-43.17
-47.8
-52.98
-57.93
-61.4
-61.96
-58.42
-50.44
-38.65
-24.55
-10.01
3.29
14.29
22.71
28.75
32.88
35.46
36.72
36.73
35.64
33.77
31.62
29.74
28.51
27.98
27.86
27.72
27.19
26.24
25.11
24.15
23.58
23.23
22.68
21.38
19.02
15.62
11.51
7.22
3.18
-0.38
-3.48
-6.29
-9.05
-11.9
-14.85
-17.73
-20.3
-22.39
-23.99
-25.35
-26.98
-29.49
-33.4
-39.03
-46.25
-54.45
-62.51
-68.91
-72.01
-70.51
-63.83
-52.43
-37.74
-21.77
-6.56
6.42
16.51
23.88
29.19
33.17
36.36
38.91
40.73
41.67
41.67
40.86
39.5
37.91
36.3
34.75
33.26
31.82
30.44
29.13
27.95
26.83
25.64
24.17
22.24
19.71
16.58
12.99
9.2
5.48
2.08
-0.87
-3.39
-5.64
-7.84
-10.23
-12.92
-15.88
-18.94
-21.9
-24.52
-26.68
-28.35
-29.67
-30.91
-32.52
-35.04
-38.89
-44.17
-50.33
-56.17
-60.04
-60.31
-55.93
-46.87
-34.21
-19.75
-5.44
7.18
17.32
24.97
30.54
34.65
37.71
39.96
41.46
42.21
42.26
41.71
40.66
39.15
37.19
34.82
32.14
29.38
26.83
24.73
23.14
21.92
20.74
19.21
17.03
14.09
10.55
6.74
3.07
-0.1
-2.57
-4.39
-5.85
-7.38
-9.38
-12.07
-15.36
-18.91
-22.25
-24.98
-26.95
-28.32
-29.5
-31.04
-33.44
-37.0
-41.62
-46.74
-51.32
-54.02
-53.54
-49.02
-40.42
-28.6
-15.16
-1.88
9.72
18.77
25.17
29.36
31.94
33.47
34.23
34.34
33.9
33.04
31.98
30.92
29.94
29.01
27.96
26.7
25.18
23.5
21.83
20.26
18.76
17.16
15.18
12.63
9.42
5.74
1.93
-1.56
-4.43
-6.64
-8.45
-10.36
-12.79
-15.93
-19.59
-23.32
-26.59
-29.06
-30.74
-31.94
-33.15
-34.93
-37.7
-41.66
-46.62
-51.86
-56.14
-57.95
-55.95
-49.51
-39.03
-25.9
-12.05
0.74
11.29
19.33
25.21
29.56
32.91
35.58
37.62
39.05
39.87
40.12
39.85
39.12
37.95
36.41
34.62
32.79
31.18
29.95
29.15
28.64
28.14
27.29
25.79
23.53
20.53
16.99
13.15
9.26
5.52
2.02
-1.17
-4.09
-6.78
-9.35
-11.87
-14.42
-16.99
-19.51
-21.86
-23.89
-25.54
-26.88
-28.12
-29.61
-31.73
-34.78
-38.92
-44.01
-49.57
-54.74
-58.31
-58.99
-55.75
-48.26
-37.04
-23.45
-9.24
3.88
14.79
23.07
28.99
33.14
36.12
38.27
39.66
40.19
39.75
38.42
36.47
34.27
32.19
30.41
28.95
27.74
26.72
25.91
25.38
25.15
25.02
24.67
23.72
21.87
19.05
15.44
11.44
7.48
4.01
1.31
-0.52
-1.63
-2.35
-3.18
-4.57
-6.9
-10.19
-14.19
-18.43
-22.41
-25.81
-28.58
-31.01
-33.47
-36.42
-40.14
-44.7
-49.91
-55.2
-59.66
-62.08
-61.29
-56.48
-47.56
-35.33
-21.3
-7.26
5.24
15.17
22.2
26.54
28.71
29.29
28.81
27.65
26.17
24.66
23.39
22.51
22.04
21.85
21.73
21.56
21.32
21.2
21.33
21.68
21.95
21.6
20.16
17.44
13.65
9.31
5.07
1.32
-1.81
-4.51
-7.09
-9.78
-12.7
-15.74
-18.77
-21.61
-24.21
-26.63
-29.01
-31.65
-34.86
-38.93
-43.9
-49.42
-54.57
-57.99
-58.27
-54.34
-45.97
-33.89
-19.62
-5.01
8.3
19.28
27.6
33.46
37.37
39.88
41.4
42.18
42.36
41.99
41.11
39.79
38.16
36.38
34.63
32.99
31.52
30.21
29.03
27.94
26.92
25.87
24.65
23.07
20.97
18.29
15.1
11.58
7.99
4.58
1.53
-1.04
-3.15
-4.9
-6.5
-8.19
-10.16
-12.52
-15.22
-18.13
-21.07
-23.91
-26.59
-29.1
-31.5
-33.94
-36.68
-40.06
-44.35
-49.35
-54.31
-57.82
-58.27
-54.38
-45.78
-33.2
-18.27
-3.0
10.87
22.26
30.83
36.79
40.62
42.78
43.68
43.6
42.77
41.36
39.53
37.41
35.07
32.6
30.07
27.54
25.09
22.87
21.02
19.66
18.85
18.51
18.44
18.33
17.87
16.82
15.05
12.57
9.54
6.19
2.77
-0.5
-3.45
-6.03
-8.31
-10.47
-12.74
-15.28
-18.13
-21.16
-24.14
-26.81
-29.03
-30.83
-32.4
-34.07
-36.22
-39.09
-42.71
-46.69
-50.24
-52.23
-51.49
-47.18
-39.09
-27.82
-14.62
-1.1
11.21
21.2
28.36
32.78
34.97
35.61
35.3
34.44
33.17
31.51
29.47
27.15
24.81
22.71
21.07
19.95
19.23
18.73
18.22
17.5
16.48
15.1
13.36
11.29
8.94
6.34
3.53
0.53
-2.59
-5.74
-8.83
-11.8
-14.61
-17.28
-19.86
-22.32
-24.66
-26.88
-29.15
-31.74
-35.05
-39.24
-44.03
-48.48
-51.16
-50.58
-45.72
-36.57
-24.11
-10.08
3.66
15.71
25.42
32.81
38.31
42.35
45.19
46.93
47.57
47.2
46.05
44.42
42.59
40.73
38.94
37.21
35.52
33.86
32.2
30.51
28.73
26.77
24.61
22.24
19.68
16.9
13.92
10.75
7.5
4.35
1.49
-1.06
-3.42
-5.89
-8.71
-11.95
-15.43
-18.73
-21.39
-23.15
-24.07
-24.51
-25.07
-26.35
-28.81
-32.61
-37.59
-43.18
-48.42
-52.06
-52.82
-49.76
-42.61
-31.96
-19.17
-5.99
5.98
15.7
22.89
27.85
31.2
33.43
34.81
35.35
34.99
33.77
31.9
29.72
27.57
25.67
24.01
22.45
20.79
18.9
16.81
14.66
12.63
10.8
9.12
7.41
5.5
3.31
0.93
-1.43
-3.56
-5.37
-6.9
-8.33
-9.81
-11.43
-13.13
-14.78
-16.24
-17.42
-18.36
-19.13
-19.94
-21.02
-22.61
-24.9
-27.96
-31.59
-35.41
-38.8
-41.09
-41.65
-40.05
-36.11
-29.99
-22.18
-13.41
-4.63
3.35
9.9
14.82
18.26
20.59
22.21
23.36
24.03
24.09
23.42
22.04
20.21
18.27
16.52
15.14
14.05
13.06
11.93
10.49
8.7
6.63
4.43
2.24
0.18
-1.72
-3.48
-5.16
-6.89
-8.71
-10.58
-12.4
-14.03
-15.37
-16.44
-17.36
-18.33
-19.56
-21.19
-23.31
-25.89
-28.76
-31.52
-33.52
-33.95
-32.1
-27.61
-20.66
-11.99
-2.68
6.18
13.82
19.84
24.2
27.01
28.43
28.63
27.84
26.44
24.81
23.32
22.18
21.38
20.76
20.13
19.33
18.29
16.99
15.47
13.73
11.79
9.65
7.29
4.73
1.99
-0.84
-3.57
-5.98
-7.84
-9.08
-9.85
-10.54
-11.57
-13.32
-15.83
-18.87
-21.94
-24.55
-26.44
-27.7
-28.71
-30.03
-32.17
-35.41
-39.69
-44.54
-49.11
-52.3
-52.96
-50.28
-44.06
-34.87
-23.9
-12.57
-2.2
6.44
13.12
18.13
21.95
25.07
27.75
30.06
31.83
32.88
33.08
32.51
31.4
30.05
28.69
27.35
25.99
24.57
23.17
21.99
21.26
21.02
21.12
21.14
20.69
19.47
17.32
14.31
10.64
6.56
2.38
-1.61
-5.21
-8.37
-11.24
-14.07
-17.07
-20.21
-23.2
-25.69
-27.42
-28.42
-29.07
-29.91
-31.47
-34.06
-37.77
-42.4
-47.52
-52.45
-56.26
-57.84
-56.2
-50.78
-41.79
-30.17
-17.41
-5.08
5.63
14.18
20.64
25.47
29.15
31.97
33.95
34.96
34.9
33.85
32.08
30.01
28.05
26.51
25.51
25.04
25.0
25.18
25.35
25.23
24.58
23.21
21.08
18.27
14.98
11.48
8.0
4.66
1.46
-1.69
-4.93
-8.29
-11.68
-14.87
-17.59
-19.71
-21.34
-22.92
-25.04
-28.28
-32.95
-38.91
-45.48
-51.45
-55.29
-55.58
-51.35
-42.57
-30.21
-15.99
-1.9
10.46
