-89.05
-93.83
-91.52
-81.01
-63.05
-40.15
-15.85
6.54
24.69
37.74
46.01
50.47
52.14
51.8
49.96
47.05
43.58
40.07
37.04
34.8
33.45
32.83
32.71
32.86
33.2
33.72
34.4
35.06
35.26
34.51
32.33
28.6
23.59
17.93
12.3
7.21
2.81
-1.15
-5.06
-9.28
-13.86
-18.55
-22.85
-26.3
-28.64
-30.02
-31.03
-32.59
-35.71
-41.18
-49.24
-59.09
-68.94
-76.15
-78.02
-72.63
-59.62
-40.52
-18.21
3.92
23.03
37.51
47.1
52.47
54.56
54.15
51.71
47.59
42.32
36.69
31.66
28.06
26.29
26.22
27.35
28.95
30.48
31.69
32.54
33.04
33.05
32.18
29.92
25.94
20.27
13.47
6.45
0.11
-4.97
-8.8
-11.91
-15.08
-18.94
-23.62
-28.7
-33.46
-37.2
-39.7
-41.3
-42.81
-45.29
-49.68
-56.56
-65.85
-76.5
-86.53
-93.23
-93.81
-86.39
-70.73
-48.59
-23.24
1.55
22.69
38.5
48.83
54.63
57.16
57.51
56.29
53.82
50.37
46.36
42.42
39.19
37.13
36.33
36.47
37.01
37.43
37.47
37.16
36.72
36.26
35.62
34.35
31.9
27.92
22.48
16.11
9.66
3.98
-0.35
-3.24
-5.15
-6.88
-9.3
-12.99
-17.98
-23.73
-29.34
-33.93
-37.06
-38.94
-40.43
-42.75
-47.11
-54.3
-64.37
-76.41
-88.44
-97.69
-101.17
-96.57
-83.17
-62.22
-36.76
-10.69
12.5
30.61
43.07
50.55
54.28
55.37
54.52
52.22
48.92
45.24
41.85
39.28
37.73
37.0
36.68
36.41
36.04
35.65
35.47
35.67
36.14
36.49
36.1
34.32
30.75
25.39
18.72
11.62
5.07
-0.18
-3.87
-6.39
-8.56
-11.28
-15.07
-19.87
-25.04
-29.73
-33.27
-35.51
-36.89
-38.33
-40.88
-45.5
-52.71
-62.28
-73.02
-82.7
-88.47
-87.67
-78.75
-62.0
-39.63
-15.06
8.19
27.49
41.67
50.89
56.03
58.12
57.92
55.86
52.29
47.64
42.51
37.64
33.68
31.13
30.13
30.55
31.96
33.84
35.58
36.63
36.59
35.18
32.34
28.18
23.07
17.39
11.44
5.34
-0.93
-7.47
-14.22
-20.91
-27.11
-32.35
-36.35
-39.16
-41.16
-43.05
-45.66
-49.8
-56.02
-64.27
-73.62
-82.17
-87.33
-86.6
-78.38
-62.75
-41.54
-17.84
4.97
24.25
38.64
48.13
53.59
56.16
56.78
56.09
54.44
52.15
49.59
47.16
45.19
43.85
43.07
42.61
42.3
42.03
41.88
41.94
42.13
42.05
41.04
38.41
33.79
27.34
19.77
12.05
5.03
-0.89
-5.92
-10.67
-15.8
-21.67
-28.16
-34.72
-40.69
-45.54
-49.18
-51.99
-54.74
-58.43
-64.03
-72.15
-82.55
-93.85
-103.56
-108.51
-105.89
-94.32
-74.5
-49.17
-22.19
2.7
23.01
37.93
47.99
54.39
58.24
60.18
60.51
59.48
57.53
55.34
53.56
52.59
52.38
52.51
52.42
51.81
50.69
49.41
48.44
47.94
47.69
47.01
45.09
41.38
35.8
28.86
21.46
14.51
8.62
3.87
-0.16
-4.2
-8.94
-14.69
-21.28
-28.15
-34.55
-39.86
-43.86
-46.89
-49.67
-53.25
-58.71
-66.77
-77.37
-89.33
-100.3
-107.2
-107.1
-98.31
-81.11
-57.85
-32.25
-8.15
11.6
25.76
34.6
39.26
41.06
40.95
39.41
36.66
32.9
28.47
23.92
19.81
16.62
14.53
13.46
13.08
13.01
12.9
12.53
11.73
10.36
8.21
5.06
0.74
-4.77
-11.25
-18.36
-25.69
-32.89
-39.77
-46.17
-52.03
-57.2
-61.55
-64.97
-67.53
-69.54
-71.59
-74.42
-78.69
-84.58
-91.48
-97.89
-101.61
-100.4
-92.79
-78.64
-59.33
-37.34
-15.47
4.11
20.26
32.89
42.59
50.0
55.57
59.47
61.9
63.23
64.07
65.09
66.75
69.18
72.22
75.63
79.32
83.4
88.09
93.45
99.23
104.81
109.33
111.95
112.07
109.47
104.38
97.27
88.82
79.63
70.08
60.31
50.22
39.72
28.91
18.12
7.89
-1.26
-9.05
-15.59
-21.42
-27.43
-34.6
-43.73
-54.92
-67.3
-78.81
-86.54
-87.56
-79.97
-63.73
-40.88
-14.99
9.96
30.73
45.62
54.42
58.02
57.72
54.68
49.76
43.52
36.5
29.3
22.6
17.06
13.19
11.13
10.66
11.29
12.48
13.88
15.41
17.19
19.22
21.25
22.62
22.55
20.45
16.23
10.41
3.93
-2.17
-7.2
-11.03
-14.08
-17.09
-20.74
-25.33
-30.67
-36.1
-40.83
-44.26
-46.28
-47.31
-48.22
-50.04
-53.72
-59.83
-68.26
-78.05
-87.26
-93.26
-93.42
-85.94
-70.68
-49.33
-25.01
-1.23
19.2
34.81
45.53
52.19
55.82
57.21
56.78
54.81
51.68
47.98
44.4
41.55
39.79
39.13
39.33
40.09
41.2
42.52
43.95
45.24
46.0
45.66
43.77
40.16
35.06
29.04
22.75
16.73
11.16
5.97
0.91
-4.17
-9.24
-14.03
-18.22
-21.59
-24.23
-26.51
-29.1
-32.77
-38.17
-45.53
-54.35
-63.27
-70.16
-72.65
-68.87
-58.17
-41.51
-21.25
-0.36
18.44
33.39
43.94
50.44
53.62
54.17
52.57
49.24
44.71
39.7
35.02
31.38
29.17
28.42
28.85
30.08
31.74
33.49
35.01
35.94
35.87
34.45
31.5
27.1
21.61
15.58
9.54
3.87
-1.3
-6.08
-10.7
-15.31
-19.87
-24.15
-27.85
-30.7
-32.72
-34.23
-35.92
-38.68
-43.36
-50.49
-59.82
-70.06
-78.93
-83.61
-81.65
-71.88
-55.02
-33.5
-10.69
10.16
26.92
38.8
46.21
50.03
51.16
50.16
47.4
43.3
38.52
33.92
30.33
28.27
27.76
28.33
29.28
29.98
30.14
29.87
29.55
29.43
29.49
29.31
28.25
25.75
21.59
16.06
9.82
3.73
-1.46
-5.33
-7.97
-9.88
-11.77
-14.27
-17.66
-21.74
-25.95
-29.62
-32.3
-33.97
-35.1
-36.48
-39.06
-43.63
-50.61
-59.61
-69.25
-77.17
-80.6
-77.24
-66.14
-48.31
-26.42
-4.03
15.66
30.66
40.45
45.7
47.57
47.17
45.28
42.41
38.96
35.37
32.09
29.49
27.74
26.89
26.82
27.41
28.59
30.3
32.41
34.58
36.25
36.72
35.34
31.81
26.19
18.93
10.71
2.22
-5.94
-13.23
-19.15
-23.32
-25.53
-25.96
-25.2
-24.15
-23.73
-24.54
-26.66
-29.64
-32.75
-35.36
-37.18
-38.42
-39.64
-41.56
-44.84
-49.97
-57.07
-65.76
-74.81
-82.22
-85.43
-82.16
-71.28
-53.45
-31.09
-7.65
13.55
30.31
41.94
48.94
52.4
53.33
52.37
49.91
46.31
42.14
38.06
34.7
32.41
31.18
30.67
30.38
29.92
29.12
28.0
26.73
25.41
23.89
21.79
18.6
14.02
8.05
1.22
-5.63
-11.54
-15.83
-18.29
-19.31
-19.65
-20.19
-21.56
-23.91
-26.85
-29.73
-31.9
-33.06
-33.42
-33.61
-34.45
-36.76
-41.07
-47.48
-55.39
-63.44
-69.45
-70.98
-66.04
-53.94
-35.72
-13.97
7.99
27.17
41.72
51.17
56.06
57.37
55.99
52.61
47.73
41.92
35.87
30.31
25.87
22.83
21.2
20.71
21.0
21.79
22.91
24.28
25.76
27.0
27.45
26.45
23.47
18.43
11.75
4.28
-2.97
-9.18
-13.97
-17.5
-20.28
-22.94
-25.89
-29.2
-32.55
-35.39
-37.28
-38.06
-38.04
-37.95
-38.76
-41.49
-46.76
-54.51
-63.7
-72.26
-77.48
-76.78
-68.63
-53.25
-32.64
-10.02
11.19
28.49
40.77
48.25
51.88
52.69
51.37
48.24
43.52
37.63
31.27
25.28
20.44
17.16
15.46
14.98
15.23
15.74
16.18
16.33
16.03
15.06
13.03
9.56
4.35
-2.55
-10.62
-18.93
-26.33
-31.83
-34.93
-35.8
-35.18
-34.08
-33.37
-33.38
-33.89
-34.32
-34.04
-32.8
-30.84
-28.84
-27.7
-28.25
-31.02
-36.13
-43.17
-51.03
-57.96
-61.79
-60.54
-53.02
-39.4
-21.28
-1.27
17.81
33.76
45.43
52.77
56.39
57.14
55.74
52.68
48.4
43.36
38.17
33.47
29.8
27.45
26.4
26.35
26.89
27.63
28.31
28.77
28.85
28.35
26.92
24.24
20.13
14.73
8.52
2.21
-3.52
-8.23
-11.91
-14.87
-17.56
-20.35
-23.29
-26.19
-28.66
-30.42
-31.45
-32.06
-32.86
-34.62
-38.04
-43.56
-50.98
-59.32
-66.79
-71.09
-70.11
-62.65
-48.94
-30.67
-10.45
8.98
25.5
38.05
46.55
51.52
53.58
53.24
50.83
46.7
41.38
35.7
30.57
26.82
24.96
24.96
26.35
28.45
30.66
32.55
33.98
34.82
34.85
33.67
30.88
26.3
20.13
12.98
5.66
-1.08
-6.87
-11.7
-15.95
-20.03
-24.19
-28.4
-32.3
-35.46
-37.57
-38.68
-39.24
-40.05
-42.07
-46.08
-52.41
-60.55
-69.12
-75.96
-78.67
-75.34
-65.21
-49.05
-28.98
-7.79
11.85
28.11
40.28
48.52
53.46
55.77
55.88
54.08
50.69
46.26
41.52
37.31
34.27
32.7
32.5
33.25
34.47
35.77
36.97
37.99
38.8
39.2
38.87
37.39
34.43
29.9
24.07
17.52
10.97
5.13
0.38
-3.29
-6.31
-9.26
-12.68
-16.72
-21.14
-25.41
-29.0
-31.65
-33.55
-35.29
-37.72
-41.67
-47.73
-55.92
-65.5
-74.87
-81.75
-83.7
-78.92
-66.92
-48.88
-27.34
-5.4
14.2
29.77
40.87
47.99
52.02
53.78
53.8
52.41
49.94
46.8
43.59
40.86
39.05
38.29
38.43
39.12
39.98
40.73
41.24
41.46
41.35
40.78
39.52
37.33
34.04
29.63
24.31
18.48
12.69
7.54
3.46
0.59
-1.28
-2.73
-4.45
-7.04
-10.72
-15.24
-20.03
-24.45
-28.06
-30.82
-33.09
-35.5
-38.8
-43.6
-50.29
-58.72
-68.08
-76.7
-82.36
-82.81
-76.5
-63.3
-44.65
-23.19
-1.91
16.67
31.15
41.22
47.35
50.31
50.8
49.38
46.57
42.94
39.1
35.68
33.11
31.63
31.16
31.47
32.26
33.28
34.38
35.44
36.32
36.65
35.99
33.86
30.06
24.79
18.67
12.54
7.1
2.7
-0.84
-3.93
-7.04
-10.34
-13.67
-16.62
-18.84
-20.25
-21.09
-21.91
-23.35
-26.11
-30.66
-37.14
-45.08
-53.18
-59.43
-61.5
-57.49
-46.67
-29.93
-9.54
11.51
30.49
45.64
56.39
63.09
66.49
67.33
66.16
63.45
59.81
56.0
52.88
51.21
51.37
53.34
56.71
60.89
65.25
69.3
72.61
74.84
75.65
74.69
71.7
66.59
59.57
51.16
42.1
33.05
24.42
16.16
7.87
-0.89
-10.31
-20.08
-29.5
-37.84
-44.79
-50.71
-56.56
-63.59
-72.91
-85.18
-100.36
-117.45
-134.4
-148.18
-155.34
-153.07
-140.27
-118.31
-90.75
-62.29
-37.26
-18.38
-6.31
-0.08
2.06
1.83
0.52
-0.96
-1.92
-1.74
0.0
3.35
7.92
12.91
17.47
21.0
23.41
25.18
27.05
29.54
32.68
35.92
38.36
39.19
38.01
34.91
30.26
24.49
17.92
10.8
3.49
-3.53
-9.63
-14.13
-16.43
-16.01
-12.67
-6.71
0.68
7.38
10.73
8.43
-0.41
-14.58
-30.82
-44.72
-52.06
-50.08
-38.37
-18.86
4.77
28.13
47.17
59.05
62.63
58.47
48.43
35.1
21.04
8.35
-1.66
-8.37
-11.69
-11.8
-8.97
-3.42
4.72
15.35
28.27
43.02
58.77
74.24
87.89
98.16
103.78
104.14
99.36
90.25
78.09
64.33
50.41
37.59
26.85
18.8
13.55
10.78
9.81
9.84
10.13
10.09
9.33
7.5
4.32
-0.38
-6.61
-14.04
-21.99
-29.44
-35.23
-38.3
-37.95
-34.12
-27.43
-19.08
-10.59
-3.35
1.76
4.49
5.21
4.55
3.1
1.23
-0.91
-3.18
-5.35
-7.13
-8.27
-8.75
-8.9
-9.19
-10.08
-11.81
-14.32
-17.43
-20.89
-24.56
-28.25
-31.7
-34.59
-36.63
-37.74
-38.22
-38.58
-39.35
-40.79
-42.8
-44.98
-46.85
-48.05
-48.46
-48.14
-47.37
-46.52
-46.06
-46.42
-47.81
-49.93
-51.89
-52.33
-49.93
-43.9
-34.41
-22.63
-10.34
0.63
9.03
14.39
16.98
17.48
16.68
15.15
13.28
11.32
9.49
8.06
7.23
7.12
7.67
8.71
9.99
11.31
12.61
13.86
15.03
15.92
16.19
15.45
13.47
10.31
6.36
2.2
-1.66
-5.0
-7.95
-10.84
-13.93
-17.21
-20.41
-23.11
-25.06
-26.26
-27.01
-27.78
-29.03
-31.07
-33.94
-37.33
-40.52
-42.34
-41.48
-36.9
-28.31
-16.48
-3.08
9.86
20.65
28.45
33.27
35.72
36.44
35.84
34.08
31.19
27.36
23.01
18.71
14.89
11.78
9.26
7.06
4.94
2.84
0.96
-0.41
-1.04
-0.92
-0.31
0.38
0.75
0.55
-0.15
-1.08
-1.91
-2.39
-2.54
-2.67
-3.25
-4.7
-7.2
-10.56
-14.31
-17.94
-21.12
-23.89
-26.58
-29.65
-33.45
-38.11
-43.38
-48.61
-52.74
-54.43
-52.33
-45.63
-34.48
-20.19
-4.93
8.93
19.6
26.4
29.73
30.66
30.36
29.55
28.51
27.24
25.68
23.93
22.31
21.12
20.59
20.77
21.46
22.41
23.34
24.06
24.47
24.58
24.38
23.78
22.6
20.58
17.57
13.61
9.01
4.32
0.12
-3.17
-5.43
-6.91
-8.12
-9.57
-11.57
-14.12
-16.87
-19.33
-21.03
-21.79
-21.77
-21.5
-21.63
-22.85
-25.6
-29.98
-35.55
-41.28
-45.68
-47.08
-44.17
-36.52
-24.87
-11.04
2.63
14.01
21.88
26.08
27.36
26.88
25.65
24.24
22.76
21.11
19.2
17.17
15.37
14.18
13.88
14.43
15.6
16.96
18.12
18.87
19.12
18.87
18.07
16.55
14.13
10.74
6.55
1.96
-2.49
-6.33
-9.28
-11.35
-12.7
-13.59
-14.19
-14.64
-15.04
-15.54
-16.36
-17.77
-20.04
-23.33
-27.54
-32.15
-36.18
-38.23
-36.92
-31.34
-21.59
-8.88
4.78
17.18
26.73
32.84
35.9
36.86
36.59
35.58
33.93
31.66
28.99
26.54
25.01
24.97
26.46
29.01
31.81
34.18
35.87
37.12
38.43
40.25
42.72
45.63
48.5
50.89
52.41
52.88
52.22
50.48
47.88
44.81
41.76
39.18
37.31
36.06
35.13
34.21
33.18
32.25
31.8
32.07
32.87
33.37
32.3
28.27
20.27
8.07
-7.57
-24.96
-41.89
-56.1
-65.86
-70.42
-70.12
-66.23
-60.51
-54.64
-49.85
-46.77
-45.57
-46.14
-48.32
-51.99
-56.99
-63.08
-69.87
-76.85
-83.54
-89.46
-94.29
-97.85
-100.12
-101.24
-101.44
-100.93
-99.78
-97.88
-94.94
-90.73
-85.19
-78.69
-72.06
-66.47
-63.2
-63.14
-66.51
-72.57
-79.77
-86.21
-90.18
-90.65
-87.53
-81.64
-74.33
-66.98
-60.5
-55.03
-49.96
-44.23
-36.88
-27.57
-16.87
-6.17
2.87
9.08
12.5
14.59
18.0
25.66
39.73
60.7
87.1
115.81
143.04
165.48
181.17
189.8
192.41
190.6
185.82
178.91
170.12
159.43
146.93
132.99
118.24
103.26
88.42
73.69
58.78
43.37
27.28
10.65
-6.07
-22.27
-37.34
-50.79
-62.35
-71.89
-79.3
-84.44
-87.1
-87.18
-84.78
-80.36
-74.61
-68.32
-62.06
-56.09
-50.37
-44.75
-39.2
-33.85
-28.95
-24.66
-20.97
-17.73
-14.76
-12.06
-9.73
-7.9
-6.56
-5.5
-4.39
-2.94
-1.05
1.1
3.22
5.0
6.33
7.28
7.98
8.41
8.29
7.0
3.8
-1.93
-10.41
-21.31
-33.69
-46.2
-57.28
-65.44
-69.57
-69.13
-64.26
-55.82
-45.16
-33.83
-23.25
-14.45
-7.96
-3.83
-1.81
-1.38
-1.86
-2.45
-2.32
-0.77
2.53
7.45
13.27
18.91
23.19
25.18
24.49
21.37
16.51
10.8
4.96
-0.63
-6.03
-11.61
-17.92
-25.43
-34.36
-44.33
-54.27
-62.4
-66.66
-65.22
-57.27
-43.38
-25.43
-6.05
12.13
27.23
38.48
46.03
50.7
53.34
54.64
54.99
54.61
53.71
52.58
51.53
50.8
50.47
50.44
50.51
50.55
50.57
50.7
51.08
51.75
52.44
52.73
52.12
50.26
47.07
42.79
37.88
32.85
28.13
23.91
20.18
16.8
13.64
10.65
7.82
5.1
2.39
-0.48
-3.66
-7.13
-10.75
-14.31
-17.6
-20.58
-23.42
-26.46
-30.18
-35.11
-41.68
-49.92
-59.25
-68.35
-75.36
-78.32
-75.83
-67.52
-54.23
-37.75
-20.31
-3.92
10.01
20.85
28.57
33.63
36.62
38.13
38.73
38.86
38.88
39.06
39.56
40.43
41.58
42.82
43.95
44.85
45.49
45.9
46.11
46.08
45.59
44.38
42.25
39.14
35.22
30.75
26.04
21.38
17.01
13.11
9.85
7.32
5.46
4.03
2.69
1.08
-0.99
-3.44
-6.0
-8.36
-10.3
-11.93
-13.58
-15.73
-18.79
-22.99
-28.38
-34.84
-42.05
-49.39
-55.8
-59.81
-59.87
-54.79
-44.37
-29.5
-12.03
5.82
22.1
35.5
45.42
51.76
54.68
54.46
51.65
47.06
41.83
37.09
33.68
31.92
31.55
32.02
32.71
33.27
33.57
33.7
33.71
33.55
33.01
31.8
29.73
26.74
23.01
18.85
14.59
10.56
6.93
3.8
1.12
-1.2
-3.28
-5.26
-7.19
-9.12
-11.02
-12.88
-14.77
-16.94
-19.82
-24.0
-29.95
-37.61
-46.13
-53.85
-58.63
-58.62
-52.97
-42.18
-27.98
-12.69
1.64
13.75
23.3
30.52
35.75
39.13
40.55
39.98
37.66
34.29
30.79
28.07
26.67
26.68
27.68
29.07
30.37
31.37
32.17
32.96
33.76
34.25
33.77
31.69
27.7
22.1
15.76
9.72
4.75
1.08
-1.7
-4.29
-7.32
-10.98
-15.11
-19.24
-22.94
-25.97
-28.37
-30.45
-32.69
-35.84
-40.67
-47.74
-56.92
-67.06
-75.9
-80.69
-79.08
-70.09
-54.63
-35.21
-15.08
2.86
16.87
26.59
32.69
36.25
38.22
39.17
39.4
39.07
38.43
37.82
37.55
37.76
38.33
38.91
39.14
38.83
38.12
37.39
37.08
37.36
37.99
38.33
37.62
35.27
31.17
25.67
19.55
13.68
8.77
5.21
2.96
1.67
0.74
-0.43
-2.37
-5.33
-9.27
-13.87
-18.6
-22.91
-26.5
-29.39
-32.03
-35.17
-39.68
-46.25
-55.05
-65.47
-75.99
-84.41
-88.32
-85.89
-76.53
-61.22
-42.25
-22.53
-4.67
9.69
20.08
26.98
31.31
33.98
35.66
36.76
37.52
38.05
38.44
38.7
38.79
38.7
38.46
38.23
38.28
38.84
40.06
41.79
43.59
44.76
44.57
42.54
38.65
33.5
28.05
23.26
19.71
17.4
15.74
13.94
11.38
7.9
3.88
-0.06
-3.33
-5.76
-7.61
-9.45
-11.9
-15.26
-19.47
-24.1
-28.6
-32.58
-35.97
-39.02
-42.28
-46.37
-51.87
-59.01
-67.42
-75.95
-82.75
-85.68
-82.96
-73.89
-59.17
-40.76
-21.26
-3.13
11.88
23.0
30.33
34.45
36.14
36.17
35.19
33.73
32.27
31.13
30.54
30.64
31.44
32.81
34.51
36.23
37.7
38.76
39.38
39.61
39.49
39.0
38.02
36.31
33.71
30.09
25.53
20.32
14.93
9.98
5.99
3.2
1.44
0.17
-1.38
-3.83
-7.38
-11.78
-16.38
-20.54
-23.89
-26.59
-29.23
-32.63
-37.54
-44.34
-52.78
-61.86
-69.8
-74.44
-73.81
-66.8
-53.68
-36.1
-16.64
2.04
17.92
29.98
38.16
42.88
44.63
43.76
40.6
35.72
30.07
24.84
21.13
19.54
19.97
21.74
23.96
25.89
27.24
28.08
28.65
29.03
28.98
28.04
25.72
21.79
16.49
10.43
4.42
-0.83
-4.94
-8.0
-10.47
-12.9
-15.7
-18.9
-22.14
-24.92
-26.93
-28.32
-29.75
-32.25
-36.8
-43.94
-53.4
-63.97
-73.6
-79.92
-80.86
-75.32
-63.61
-47.35
-28.97
-10.99
4.67
17.06
26.12
32.32
36.29
38.55
39.5
39.5
38.93
38.16
37.49
37.02
36.71
36.39
35.89
35.11
34.12
33.09
32.24
31.69
31.35
30.88
29.75
27.41
23.49
17.97
11.24
