-57.08
-65.14
-69.79
-68.69
-60.46
-45.42
-25.63
-4.4
14.9
29.8
39.37
44.14
45.44
44.65
42.66
39.81
36.18
31.91
27.55
23.85
21.55
21.03
22.11
24.14
26.27
27.82
28.5
28.44
27.98
27.38
26.63
25.37
23.13
19.6
14.82
9.25
3.59
-1.4
-5.27
-7.97
-9.85
-11.53
-13.6
-16.45
-20.12
-24.31
-28.46
-31.97
-34.47
-35.93
-36.81
-37.94
-40.28
-44.74
-51.83
-61.3
-71.9
-81.39
-86.96
-86.01
-77.08
-60.52
-38.53
-14.55
7.87
26.09
38.96
46.69
50.35
51.19
50.18
47.99
45.08
41.9
38.87
36.36
34.54
33.36
32.69
32.37
32.36
32.7
33.4
34.34
35.24
35.7
35.32
33.88
31.36
27.92
23.87
19.5
15.06
10.76
6.71
2.98
-0.39
-3.35
-5.85
-7.86
-9.42
-10.73
-12.14
-14.06
-16.77
-20.26
-24.17
-27.96
-31.21
-33.81
-36.05
-38.58
-42.13
-47.39
-54.68
-63.71
-73.28
-81.3
-85.12
-82.32
-71.7
-53.92
-31.45
-7.91
13.24
29.62
40.46
46.36
48.62
48.54
47.1
44.87
42.23
39.5
37.01
35.02
33.65
32.82
32.31
31.88
31.41
30.89
30.47
30.31
30.43
30.63
30.52
29.66
27.76
24.79
21.01
16.81
12.57
8.5
4.7
1.19
-1.95
-4.56
-6.51
-7.81
-8.73
-9.76
-11.45
-14.1
-17.65
-21.64
-25.41
-28.4
-30.45
-31.88
-33.42
-35.92
-40.13
-46.42
-54.52
-63.38
-71.16
-75.5
-74.15
-65.74
-50.37
-29.81
-7.09
14.47
32.17
44.61
51.83
54.82
54.9
53.11
50.05
45.96
41.08
35.91
31.19
27.72
26.01
26.04
27.28
28.94
30.35
31.19
31.51
31.49
31.15
30.17
28.01
24.19
18.58
11.57
4.03
-3.06
-8.88
-13.09
-15.92
-18.01
-20.12
-22.84
-26.31
-30.2
-33.86
-36.64
-38.2
-38.7
-38.82
-39.57
-41.95
-46.73
-54.14
-63.6
-73.62
-81.86
-85.53
-82.25
-70.9
-52.2
-28.72
-4.1
18.09
35.38
46.89
53.21
55.69
55.76
54.5
52.54
50.22
47.79
45.46
43.35
41.55
40.08
38.97
38.28
38.1
38.45
39.18
39.98
40.42
40.12
38.81
36.47
33.22
29.26
24.81
20.02
15.02
9.95
5.07
0.63
-3.13
-6.08
-8.34
-10.23
-12.19
-14.65
-17.85
-21.75
-26.05
-30.31
-34.12
-37.23
-39.69
-41.78
-44.0
-47.05
-51.66
-58.39
-67.2
-77.1
-85.96
-90.92
-89.25
-79.34
-61.53
-38.18
-12.94
10.37
28.97
41.72
48.99
52.13
52.64
51.71
50.02
47.91
45.6
43.32
41.35
39.92
39.07
38.69
38.48
38.16
37.59
36.79
35.96
35.31
34.93
34.65
34.09
32.74
30.15
26.18
20.97
15.02
8.95
3.37
-1.31
-4.99
-7.85
-10.32
-12.86
-15.86
-19.45
-23.46
-27.5
-31.06
-33.8
-35.67
-36.97
-38.33
-40.55
-44.42
-50.4
-58.42
-67.54
-75.94
-81.11
-80.57
-72.68
-57.38
-36.42
-12.88
9.77
28.67
42.27
50.47
54.09
54.31
52.19
48.44
43.63
38.33
33.24
29.06
26.34
25.27
25.62
26.85
28.33
29.6
30.47
31.03
31.43
31.63
31.29
29.8
26.57
21.36
14.52
6.96
-0.17
-5.93
-9.98
-12.69
-14.92
-17.6
-21.25
-25.75
-30.49
-34.6
-37.51
-39.13
-40.0
-41.1
-43.51
-48.15
-55.4
-64.82
-74.98
-83.55
-87.7
-85.01
-74.31
-56.3
-33.48
-9.39
12.49
29.71
41.39
47.99
50.75
51.01
49.8
47.75
45.23
42.46
39.75
37.41
35.72
34.83
34.66
34.96
35.39
35.68
35.73
35.59
35.42
35.26
34.86
33.81
31.58
27.8
22.45
15.94
9.0
2.52
-2.74
-6.39
-8.56
-9.83
-11.08
-13.11
-16.33
-20.64
-25.41
-29.86
-33.35
-35.68
-37.21
-38.66
-40.94
-44.82
-50.77
-58.76
-68.11
-77.3
-84.14
-86.19
-81.49
-69.33
-50.74
-28.28
-5.32
14.97
30.54
40.79
46.37
48.62
48.82
47.81
45.98
43.43
40.31
36.97
33.94
31.74
30.62
30.46
30.86
31.4
31.81
32.08
32.37
32.71
32.88
32.39
30.62
27.18
22.08
15.89
9.53
3.98
-0.04
-2.41
-3.64
-4.61
-6.24
-9.01
-12.79
-16.9
-20.46
-22.8
-23.83
-24.06
-24.47
-26.14
-29.95
-36.3
-44.87
-54.52
-63.33
-68.87
-68.8
-61.64
-47.4
-27.77
-5.77
15.2
32.39
44.35
51.12
53.72
53.52
51.59
48.52
44.65
40.27
35.84
31.99
29.25
27.81
27.5
27.92
28.68
29.61
30.74
32.09
33.44
34.21
33.63
31.0
26.09
19.31
11.54
3.82
-3.1
-8.96
-13.98
-18.57
-23.0
-27.14
-30.59
-32.94
-34.09
-34.47
-34.91
-36.44
-39.9
-45.75
-53.8
-63.14
-72.08
-78.44
-79.96
-75.08
-63.53
-46.63
-26.96
-7.5
9.33
22.25
31.25
37.08
40.66
42.6
43.08
42.17
40.04
37.15
34.17
31.73
30.23
29.66
29.73
29.98
30.08
29.95
29.75
29.78
30.22
30.91
31.27
30.47
27.78
22.93
16.32
8.95
2.08
-3.22
-6.54
-8.24
-9.26
-10.73
-13.44
-17.57
-22.66
-27.89
-32.48
-35.97
-38.49
-40.58
-43.05
-46.76
-52.35
-59.96
-68.91
-77.48
-83.21
-83.42
-76.26
-61.5
-40.82
-17.42
5.12
23.9
37.46
45.8
49.85
50.86
49.84
47.54
44.54
41.35
38.52
36.46
35.28
34.83
34.73
34.57
34.1
33.3
32.35
31.55
31.12
31.1
31.25
31.11
30.09
27.71
23.78
18.52
12.54
6.62
1.45
-2.65
-5.86
-8.69
-11.75
-15.38
-19.46
-23.47
-26.73
-28.8
-29.73
-30.1
-30.88
-33.15
-37.76
-45.03
-54.41
-64.35
-72.39
-75.75
-72.15
-60.79
-42.83
-21.12
0.66
19.27
32.84
41.16
45.28
46.7
46.6
45.52
43.49
40.44
36.5
32.21
28.35
25.67
24.58
24.98
26.31
27.82
28.9
29.31
29.15
28.68
28.04
27.02
25.19
22.15
17.75
12.29
6.37
0.61
-4.58
-9.11
-13.16
-16.92
-20.46
-23.71
-26.5
-28.79
-30.7
-32.57
-34.93
-38.39
-43.48
-50.35
-58.5
-66.51
-72.22
-73.26
-67.87
-55.61
-37.79
-17.03
3.54
21.28
34.74
43.74
49.0
51.49
51.94
50.77
48.17
44.48
40.28
36.36
33.43
31.87
31.57
32.01
32.55
32.7
32.33
31.66
31.05
30.69
30.39
29.58
27.57
23.89
18.6
12.44
6.47
1.76
-1.16
-2.49
-3.11
-4.13
-6.47
-10.5
-15.88
-21.75
-27.11
-31.23
-33.93
-35.63
-37.18
-39.52
-43.38
-49.24
-57.12
-66.55
-76.32
-84.42
-88.36
-85.81
-75.57
-58.19
-36.11
-12.87
8.07
24.41
35.53
42.18
45.68
47.18
47.29
46.21
44.12
41.44
38.89
37.15
36.55
36.88
37.44
37.48
36.47
34.41
31.77
29.22
27.25
25.96
25.0
23.76
21.73
18.63
14.61
10.12
5.72
1.91
-1.12
-3.52
-5.74
-8.33
-11.66
-15.74
-20.17
-24.28
-27.5
-29.53
-30.54
-31.11
-32.07
-34.3
-38.62
-45.52
-54.85
-65.51
-75.17
-80.76
-79.24
-68.88
-50.09
-25.67
0.14
23.01
40.0
50.21
54.58
55.06
53.48
51.02
48.09
44.75
41.1
37.52
34.53
32.49
31.47
31.19
31.19
31.07
30.67
29.97
29.03
27.81
26.12
23.7
20.36
16.12
11.22
6.07
1.11
-3.41
-7.44
-11.11
-14.65
-18.26
-21.96
-25.59
-28.84
-31.43
-33.16
-34.18
-34.93
-36.21
-38.99
-44.08
-51.63
-60.74
-69.32
-74.56
-73.78
-65.5
-50.13
-29.93
-8.26
11.57
27.33
38.26
44.89
48.3
49.45
48.87
46.75
43.22
38.72
34.01
29.93
27.15
25.87
25.78
26.23
26.61
26.54
26.0
25.19
24.38
23.64
22.79
21.48
19.3
16.03
11.74
6.86
2.01
-2.18
-5.32
-7.51
-9.28
-11.39
-14.46
-18.7
-23.72
-28.76
-33.04
-36.12
-38.13
-39.7
-41.64
-44.7
-49.36
-55.76
-63.69
-72.37
-80.33
-85.47
-85.49
-78.65
-64.57
-44.68
-21.86
0.42
19.26
33.06
41.75
46.27
47.91
47.81
46.67
44.91
42.82
40.68
38.82
37.45
36.63
36.2
35.87
35.38
34.6
33.62
32.67
31.93
31.33
30.45
28.6
25.17
19.95
13.36
6.39
0.24
-4.09
-6.33
-6.93
-6.99
-7.69
-9.89
-13.73
-18.64
-23.63
-27.7
-30.28
-31.39
-31.56
-31.68
-32.69
-35.43
-40.46
-47.83
-56.81
-65.75
-72.18
-73.4
-67.46
-53.89
-34.14
-11.19
11.38
30.53
44.49
52.93
56.58
56.58
54.04
49.85
44.76
39.49
34.79
31.24
29.16
28.44
28.67
29.35
30.07
30.63
31.07
31.41
31.51
30.94
29.17
25.76
20.68
14.48
8.1
2.53
-1.62
-4.43
-6.6
-9.1
-12.67
-17.4
-22.71
-27.64
-31.35
-33.56
-34.68
-35.66
-37.6
-41.5
-47.93
-56.81
-67.13
-76.96
-83.65
-84.48
-77.64
-63.02
-42.45
-19.22
3.08
21.63
35.1
43.64
48.22
49.97
49.67
47.8
44.7
40.94
37.26
34.4
32.83
32.55
33.11
33.82
34.1
33.69
32.74
31.69
30.98
30.77
30.8
30.46
29.01
25.87
20.87
14.36
7.1
0.1
-5.77
-9.95
-12.43
-13.67
-14.56
-15.99
-18.62
-22.59
-27.49
-32.56
-37.03
-40.4
-42.69
-44.46
-46.61
-50.18
-55.95
-64.02
-73.44
-82.1
-87.11
-85.69
-76.16
-58.79
-35.93
-11.24
11.53
29.68
42.2
49.6
53.24
54.51
54.37
53.26
51.38
48.96
46.35
44.02
42.25
41.1
40.31
39.47
38.23
36.44
34.29
32.13
30.35
29.1
28.26
27.38
25.91
23.34
19.47
14.42
8.67
2.87
-2.33
-6.44
-9.27
-11.04
-12.22
-13.49
-15.38
-18.15
-21.63
-25.37
-28.81
-31.56
-33.53
-35.01
-36.54
-38.79
-42.39
-47.84
-55.28
-64.23
-73.32
-80.32
-82.61
-77.97
-65.49
-46.1
-22.44
1.93
23.63
40.35
51.31
56.97
58.46
56.97
53.48
48.73
43.4
38.25
34.06
31.4
30.43
30.82
31.88
32.89
33.4
33.36
33.01
32.6
32.07
30.97
28.64
24.61
18.91
12.17
5.47
-0.15
-4.15
-6.72
-8.72
-11.24
-15.08
-20.32
-26.31
-31.88
-35.98
-38.15
-38.75
-38.82
-39.76
-42.8
-48.65
-57.14
-67.09
-76.34
-82.16
-81.89
-73.83
-57.97
-36.18
-11.76
11.6
30.88
44.54
52.6
56.16
56.66
55.29
52.76
49.45
45.68
41.9
38.7
36.53
35.56
35.55
35.95
36.2
35.94
35.16
34.12
33.17
32.47
31.86
30.96
29.3
26.55
22.72
18.1
13.23
8.68
4.84
1.91
-0.22
-1.88
-3.51
-5.54
-8.3
-11.89
-16.19
-20.85
-25.45
-29.61
-33.12
-36.04
-38.64
-41.39
-44.91
-49.87
-56.76
-65.55
-75.29
-83.89
-88.5
-86.33
-75.84
-57.54
-34.05
-9.34
12.72
29.51
40.31
46.01
48.25
48.6
47.99
46.75
44.97
42.81
40.66
38.98
38.06
37.8
37.71
37.12
35.58
33.12
30.31
27.98
26.79
26.76
27.26
27.15
25.34
21.3
15.36
8.54
2.16
-2.72
-5.71
-7.21
-8.16
-9.6
-12.22
-16.13
-20.8
-25.46
-29.4
-32.34
-34.51
-36.57
-39.4
-43.82
-50.28
-58.53
-67.39
-74.73
-77.89
-74.52
-63.46
-45.46
-23.05
0.17
20.78
36.56
46.95
52.73
55.25
55.63
54.39
51.55
47.07
41.29
35.0
29.27
25.04
22.78
22.36
23.22
24.64
25.96
26.76
26.73
25.66
23.35
19.75
15.04
9.69
4.35
-0.39
-4.27
-7.45
-10.43
-13.78
-17.82
-22.44
-27.12
-31.18
-34.05
-35.58
-36.11
-36.42
-37.63
-40.82
-46.77
-55.46
-65.8
-75.55
-81.72
-81.42
-72.87
-56.23
-33.75
-9.1
13.75
31.83
43.87
50.3
52.61
52.51
51.23
49.31
46.84
43.83
40.5
37.28
34.61
32.72
31.47
30.53
29.59
28.49
27.27
25.94
24.33
21.96
18.25
12.86
5.96
-1.66
-8.87
-14.58
-18.15
-19.63
-19.72
-19.46
-19.9
-21.63
-24.69
-28.59
-32.57
-35.91
-38.22
-39.64
-40.75
-42.51
-45.85
-51.42
-59.11
-67.81
-75.4
-79.2
-76.72
-66.62
-49.34
-27.17
-3.56
17.98
34.91
46.3
52.7
55.5
56.26
56.02
55.22
53.92
52.06
49.78
47.47
45.64
44.76
44.98
46.06
47.43
48.34
48.15
46.54
43.53
39.45
34.63
29.24
23.27
16.61
9.25
1.43
-6.38
-13.6
-19.81
-24.87
-28.97
-32.48
-35.8
-39.22
-42.96
-47.28
-52.49
-58.92
-66.57
-74.76
-81.86
-85.63
-83.8
-75.0
-59.43
-39.03
-16.89
3.76
20.51
32.36
39.64
43.44
44.94
44.97
43.89
41.82
38.91
35.55
32.25
29.57
27.88
27.3
27.69
28.7
29.94
30.95
31.4
31.01
29.66
27.39
24.36
20.79
16.82
12.53
7.87
2.84
-2.45
-7.69
-12.46
-16.39
-19.27
-21.21
-22.62
-24.1
-26.3
-29.87
-35.22
-42.44
-51.02
-59.68
-66.43
-68.93
-65.31
-54.8
-38.31
-18.18
2.49
20.8
34.84
44.03
48.9
50.5
49.88
47.71
44.34
39.99
35.0
29.95
25.53
22.38
20.84
20.83
21.98
23.76
25.62
27.07
27.72
27.28
25.54
22.52
18.45
13.8
9.02
4.48
0.29
-3.72
-7.78
-12.05
-16.42
-20.59
-24.17
-26.92
-28.82
-30.1
-31.22
-32.76
-35.34
-39.52
-45.47
-52.68
-59.73
-64.4
-64.22
-57.44
-43.76
-24.71
-3.27
17.18
33.91
45.59
52.33
55.11
55.08
53.02
49.3
44.13
37.89
31.37
25.6
21.53
19.68
19.97
21.8
24.29
26.59
28.14
28.64
28.02
26.34
23.65
20.08
15.82
11.09
6.18
1.29
-3.51
-8.27
-13.08
-17.91
-22.59
-26.83
-30.4
-33.16
-35.31
-37.2
-39.44
-42.68
-47.45
-53.83
-61.14
-67.8
-71.56
-70.18
-62.22
-47.78
-28.64
-7.72
11.87
27.77
39.02
45.91
49.42
50.64
50.24
48.48
45.5
41.55
37.21
33.22
30.21
28.46
27.76
27.59
27.41
26.89
26.07
25.16
24.33
23.51
22.34
20.29
16.93
12.2
6.39
0.23
-5.45
-9.93
-12.87
-14.49
-15.46
-16.68
-18.91
-22.43
-26.9
-31.54
-35.5
-38.25
-39.81
-40.75
-41.98
-44.48
-48.99
-55.8
-64.47
-73.61
-81.0
-83.95
-80.16
-68.6
-50.1
-27.23
-3.57
17.49
33.72
44.47
50.44
53.01
53.54
52.89
51.43
49.23
46.34
43.0
39.64
36.76
34.76
33.77
33.63
33.94
34.25
34.24
33.78
32.88
31.61
29.9
27.56
24.37
20.15
14.97
9.12
3.1
-2.55
-7.35
-11.03
-13.61
-15.38
-16.9
-18.74
-21.31
-24.73
-28.7
-32.7
-36.21
-38.9
-40.83
-42.41
-44.25
-47.04
-51.4
-57.66
-65.59
-74.17
-81.48
-85.01
-82.34
-72.09
-54.64
-32.15
-8.02
14.24
32.08
44.49
51.91
55.56
56.68
56.08
54.1
50.87
46.68
42.16
38.14
35.36
34.18
34.4
35.39
36.43
37.01
37.01
36.63
36.17
35.79
35.34
34.45
32.71
29.87
26.04
21.62
17.23
13.43
10.5
8.33
6.44
4.15
0.94
-3.31
-8.26
-13.26
-17.63
-21.05
-23.68
-26.1
-29.12
-33.51
-39.71
-47.65
-56.53
-64.73
-70.07
-70.28
-63.79
-50.39
-31.59
-10.23
10.26
27.02
38.45
44.39
45.75
43.76
39.52
33.7
26.78
19.34
12.2
6.31
2.45
0.9
1.38
3.26
5.86
8.78
11.89
15.12
18.21
20.55
21.32
19.9
16.14
10.58
4.28
-1.6
-6.26
-9.52
-11.8
-13.87
-16.44
-19.84
-23.85
-27.87
-31.19
-33.36
-34.44
-35.02
-36.05
-38.6
-43.48
-50.92
-60.26
-69.82
-77.08
-79.22
-74.05
-60.86
-40.88
-17.09
6.67
26.93
41.61
50.38
54.33
55.23
54.59
53.24
51.31
48.59
44.95
40.7
36.49
33.07
30.97
30.22
30.39
30.84
31.03
30.68
29.88
28.79
27.5
25.87
23.56
20.27
15.87
10.59
4.95
-0.4
-4.92
-8.38
-10.92
-13.0
-15.21
-18.0
-21.53
-25.55
-29.52
-32.82
-35.05
-36.21
-36.69
-37.19
-38.51
-41.35
-46.18
-53.07
-61.47
-70.03
-76.59
-78.61
-73.88
-61.46
-42.24
-18.92
4.81
25.44
40.78
50.36
55.14
56.72
56.53
55.33
53.32
50.5
47.03
43.38
40.19
37.93
36.71
36.29
36.2
36.07
35.69
35.08
34.31
33.43
32.35
30.89
28.85
26.14
22.77
18.82
14.43
9.71
4.86
0.14
-4.18
-7.88
-10.95
-13.59
-16.18
-19.1
-22.52
-26.29
-29.97
-33.08
-35.3
-36.67
-37.67
-39.03
-41.64
-46.24
-53.2
-62.11
-71.57
-79.17
-82.03
-77.7
-65.22
-45.66
-21.99
1.88
22.42
37.52
46.8
51.2
52.19
50.98
48.27
44.35
39.5
34.24
29.39
25.77
23.99
24.16
25.84
28.31
30.76
32.59
33.47
33.3
32.05
29.67
26.06
21.22
15.37
8.96
2.62
-3.1
-7.97
-12.11
-15.92
-19.83
-24.03
-28.38
-32.48
-35.85
-38.16
-39.44
-40.09
-40.8
-42.5
-46.02
-51.84
-59.63
-67.97
-74.49
-76.41
-71.54
-59.17
-40.54
-18.42
3.76
23.07
37.87
47.87
53.76
56.51
56.89
55.38
52.32
48.16
43.54
39.21
35.81
33.64
32.65
32.47
32.64
32.81
32.85
32.87
33.08
33.52
33.99
34.02
32.97
30.29
25.77
19.66
