35.7
35.15
34.14
32.37
29.51
25.4
20.16
14.16
8.0
2.3
-2.45
-6.07
-8.71
-10.79
-12.88
-15.46
-18.82
-22.96
-27.56
-32.16
-36.27
-39.59
-42.16
-44.37
-46.94
-50.72
-56.51
-64.63
-74.61
-84.84
-92.76
-95.44
-90.48
-77.07
-56.37
-31.39
-6.02
16.19
33.04
44.01
49.97
52.48
53.01
52.54
51.5
49.96
47.99
45.72
43.45
41.49
40.06
39.22
38.85
38.74
38.68
38.52
38.18
37.63
36.81
35.62
33.86
31.32
27.8
23.26
17.88
12.03
6.25
1.04
-3.26
-6.55
-8.99
-10.97
-12.97
-15.43
-18.63
-22.6
-27.08
-31.62
-35.72
-39.08
-41.72
-44.05
-46.76
-50.7
-56.56
-64.52
-73.96
-83.29
-90.04
-91.53
-85.67
-71.87
-51.45
-27.33
-3.12
18.03
34.24
45.08
51.26
53.92
54.1
52.53
49.72
46.13
42.32
38.86
36.17
34.44
33.53
33.09
32.73
32.18
31.42
30.67
30.21
30.17
30.35
30.23
29.18
26.72
22.88
18.13
13.32
9.18
6.08
3.8
1.67
-1.07
-4.9
-9.78
-15.13
-20.15
-24.15
-26.88
-28.63
-30.2
-32.6
-36.76
-43.25
-51.93
-61.74
-70.72
-76.29
-76.0
-68.36
-53.53
-33.46
-11.33
9.46
26.39
38.33
45.61
49.35
50.77
50.64
49.2
46.47
42.63
38.25
34.15
31.17
29.8
30.03
31.37
33.09
34.5
35.2
35.08
34.28
33.0
31.33
29.18
26.35
22.59
17.84
12.3
6.45
0.96
-3.56
-6.78
-8.8
-10.12
-11.53
-13.72
-17.08
-21.5
-26.46
-31.24
-35.27
-38.32
-40.66
-42.93
-45.92
-50.43
-57.03
-65.77
-75.98
-86.05
-93.54
-95.68
-90.27
-76.54
-55.7
-30.72
-5.39
16.77
33.61
44.64
50.79
53.63
54.58
54.54
53.82
52.43
50.44
48.11
45.91
44.3
43.49
43.42
43.77
44.15
44.33
44.19
43.75
43.02
41.88
40.12
37.54
34.04
29.66
24.6
19.09
13.38
7.69
2.27
-2.63
-6.77
-10.0
-12.44
-14.42
-16.45
-19.02
-22.38
-26.46
-30.91
-35.22
-38.96
-41.92
-44.24
-46.34
-48.89
-52.63
-58.2
-65.8
-74.8
-83.54
-89.48
-89.85
-82.61
-67.37
-45.73
-20.92
3.25
23.6
38.39
47.48
51.86
52.89
51.74
49.19
45.78
42.0
38.45
35.65
33.94
33.27
33.3
33.55
33.63
33.46
33.21
33.15
33.44
33.94
34.21
33.58
31.49
27.72
22.51
16.53
10.63
5.54
1.56
-1.51
-4.26
-7.38
-11.32
-16.05
-21.08
-25.67
-29.17
-31.4
-32.77
-34.2
-36.84
-41.7
-49.22
-59.0
-69.61
-78.71
-83.54
-81.72
-72.06
-55.15
-33.31
-9.94
11.54
28.7
40.59
47.64
51.05
52.06
51.5
49.7
46.79
43.0
38.85
35.08
32.43
31.31
31.7
33.13
34.91
36.37
37.11
37.0
36.19
34.86
33.12
30.86
27.81
23.67
18.32
11.93
4.99
-1.79
-7.7
-12.23
-15.24
-17.02
-18.21
-19.55
-21.69
-24.86
-28.87
-33.15
-36.99
-39.93
-41.95
-43.48
-45.37
-48.48
-53.57
-61.01
-70.54
-81.05
-90.49
-96.11
-95.14
-85.76
-67.97
-43.87
-17.18
7.91
28.13
41.94
49.63
52.74
53.13
52.25
50.82
49.1
47.12
45.02
43.1
41.66
40.89
40.67
40.75
40.82
40.63
40.14
39.42
38.55
37.52
36.17
34.24
31.49
27.8
23.19
17.85
12.09
6.39
1.25
-2.87
-5.7
-7.33
-8.22
-9.1
-10.75
-13.62
-17.73
-22.58
-27.42
-31.58
-34.75
-37.13
-39.31
-42.04
-46.09
-52.05
-60.1
-69.8
-79.9
-88.23
-92.16
-89.29
-78.37
-59.97
-36.47
-11.39
11.69
30.2
43.03
50.54
53.88
54.41
53.2
50.9
47.93
44.59
41.27
38.41
36.4
35.43
35.41
36.01
36.8
37.46
37.8
37.78
37.33
36.22
34.09
30.62
25.78
19.9
13.66
7.77
2.69
-1.57
-5.38
-9.3
-13.72
-18.69
-23.85
-28.57
-32.3
-34.73
-36.09
-37.14
-39.02
-42.95
-49.77
-59.4
-70.48
-80.44
-86.07
-84.44
-74.1
-55.66
-31.82
-6.5
16.43
34.29
46.21
52.85
55.71
56.24
55.33
53.28
50.1
45.98
41.53
37.6
34.99
34.06
34.55
35.69
36.63
36.77
36.02
34.74
33.43
32.34
31.29
29.73
26.94
22.49
16.46
9.53
2.7
-3.04
-7.16
-9.72
-11.38
-13.1
-15.7
-19.54
-24.36
-29.42
-33.85
-37.03
-38.89
-39.94
-41.09
-43.41
-47.77
-54.68
-64.0
-74.72
-84.87
-91.79
-92.65
-85.5
-70.03
-48.03
-22.86
1.55
21.98
36.8
46.08
51.07
53.29
53.95
53.62
52.5
50.68
48.44
46.21
44.41
43.28
42.81
42.78
42.87
42.84
42.59
42.1
41.41
40.48
39.16
37.27
34.63
31.13
26.82
21.84
16.45
10.97
5.69
0.92
-3.13
-6.38
-8.99
-11.3
-13.77
-16.77
-20.49
-24.8
-29.3
-33.51
-37.01
-39.68
-41.75
-43.76
-46.45
-50.59
-56.83
-65.4
-75.84
-86.64
-95.35
-99.04
-95.21
-82.79
-62.73
-37.85
-11.98
11.23
29.35
41.62
48.69
51.92
52.7
52.01
50.4
48.2
45.73
43.32
41.32
39.92
39.06
38.49
37.89
37.12
36.27
35.62
35.45
35.78
36.23
36.11
34.68
31.5
26.64
20.69
14.55
9.12
4.91
1.89
-0.47
-2.94
-6.14
-10.29
-15.07
-19.81
-23.81
-26.7
-28.65
-30.32
-32.65
-36.6
-42.8
-51.34
-61.48
-71.55
-79.09
-81.36
-76.3
-63.29
-43.69
-20.5
2.54
22.24
36.8
46.04
50.93
52.78
52.56
50.7
47.35
42.75
37.52
32.61
28.98
27.25
27.46
29.1
31.3
33.26
34.49
34.91
34.75
34.25
33.42
31.89
29.11
24.62
18.38
10.98
3.44
-3.11
-7.87
-10.74
-12.35
-13.79
-16.16
-20.05
-25.35
-31.25
-36.68
-40.76
-43.23
-44.59
-45.88
-48.32
-52.94
-60.24
-69.93
-80.78
-90.6
-96.57
-95.97
-87.08
-69.95
-46.68
-20.84
3.66
23.75
38.04
46.84
51.52
53.66
54.43
54.33
53.42
51.7
49.33
46.78
44.57
43.13
42.55
42.61
42.9
43.06
42.84
42.26
41.45
40.54
39.51
38.2
36.3
33.49
29.59
24.68
19.06
13.28
7.88
3.34
-0.15
-2.74
-4.89
-7.23
-10.28
-14.31
-19.13
-24.21
-28.84
-32.49
-34.95
-36.56
-38.06
-40.43
-44.59
-51.23
-60.4
-71.33
-82.27
-90.64
-93.65
-89.21
-76.7
-57.45
-34.42
-11.19
9.04
24.41
34.58
40.35
43.02
43.75
43.3
42.09
40.37
38.42
36.53
34.98
33.87
33.15
32.68
32.31
31.97
31.74
31.67
31.71
31.57
30.81
28.94
25.72
21.25
16.04
10.78
6.15
2.43
-0.49
-3.09
-5.96
-9.5
-13.69
-18.13
-22.19
-25.33
-27.37
-28.63
-29.88
-32.17
-36.44
-43.16
-52.02
-61.65
-69.78
-73.73
-71.21
-61.14
-44.23
-22.86
-0.42
19.82
35.55
46.01
51.72
53.88
53.64
51.73
48.46
44.01
38.85
33.79
29.81
27.66
27.53
28.93
30.95
32.6
33.28
32.91
31.82
30.41
28.84
26.87
23.96
19.62
13.73
6.77
-0.33
-6.51
-10.98
-13.61
-14.97
-16.05
-17.85
-20.96
-25.26
-30.09
-34.51
-37.76
-39.64
-40.58
-41.49
-43.52
-47.7
-54.65
-64.24
-75.43
-86.1
-93.35
-94.26
-86.79
-70.72
-47.96
-22.05
2.91
23.59
38.32
47.2
51.63
53.37
53.8
53.63
52.99
51.78
49.98
47.79
45.6
43.81
42.7
42.22
42.15
42.09
41.72
40.9
39.66
38.13
36.4
34.38
31.9
28.69
24.58
19.61
14.05
8.35
3.0
-1.51
-4.95
-7.33
-8.99
-10.49
-12.43
-15.26
-19.08
-23.6
-28.24
-32.39
-35.63
-37.87
-39.48
-41.16
-43.73
-47.99
-54.42
-62.93
-72.58
-81.41
-86.77
-86.0
-77.35
-60.82
-38.38
-13.48
10.07
29.24
42.59
50.35
53.83
54.65
54.07
52.76
50.94
48.64
45.99
43.33
41.05
39.49
38.72
38.54
38.55
38.4
37.88
36.98
35.78
34.23
32.05
28.83
24.22
18.28
11.53
4.86
-0.87
-5.16
-8.19
-10.64
-13.37
-16.95
-21.38
-26.16
-30.54
-33.9
-36.12
-37.57
-39.02
-41.42
-45.63
-52.18
-60.9
-70.63
-79.22
-83.79
-81.66
-71.32
-53.27
-30.03
-5.42
16.73
33.74
44.7
50.24
51.86
51.12
49.1
46.37
43.17
39.76
36.51
33.88
32.26
31.8
32.37
33.58
34.99
36.2
37.0
37.34
37.25
36.76
35.8
34.2
31.8
28.5
24.29
19.29
13.73
7.93
2.3
-2.76
-6.93
-10.07
-12.3
-13.99
-15.69
-17.94
-21.15
-25.38
-30.36
-35.54
-40.24
-43.98
-46.68
-48.77
-51.14
-54.88
-60.92
-69.52
-79.9
-90.06
-97.08
-97.85
-90.11
-73.4
-49.52
-22.07
4.63
26.89
42.65
51.81
55.71
56.29
55.24
53.6
51.77
49.8
47.73
45.73
44.0
42.72
41.83
41.12
40.31
39.26
38.0
36.68
35.43
34.17
32.58
30.26
26.95
22.72
17.97
13.29
9.11
5.6
2.62
-0.12
-2.83
-5.6
-8.27
-10.64
-12.54
-14.05
-15.47
-17.23
-19.69
-22.99
-26.91
-30.95
-34.57
-37.35
-39.26
-40.66
-42.26
-44.95
-49.56
-56.52
-65.5
-75.06
-82.69
-85.36
-80.46
-66.84
-45.58
-19.76
6.47
29.21
46.04
56.41
61.33
62.44
61.22
58.5
54.61
49.77
44.47
39.51
35.77
33.78
33.49
34.27
35.18
35.45
34.78
33.42
31.95
30.86
30.16
29.31
27.4
23.65
17.83
10.46
2.68
-4.2
-9.27
-12.38
-14.18
-15.75
-18.15
-21.89
-26.74
-31.9
-36.33
-39.25
-40.52
-40.69
-40.84
-42.26
-46.0
-52.62
-61.81
-72.33
-81.91
-87.69
-86.86
-77.62
-59.98
-36.04
-9.53
15.38
35.31
48.66
55.71
58.07
57.7
56.09
53.93
51.33
48.23
44.8
41.49
38.87
37.29
36.76
36.89
37.2
37.33
37.2
36.91
36.55
35.95
34.73
32.4
28.64
23.55
17.64
11.68
6.4
2.24
-0.82
-3.17
-5.32
-7.69
-10.44
-13.35
-16.05
-18.2
-19.74
-20.97
-22.5
-24.95
-28.65
-33.41
-38.58
-43.35
-47.1
-49.78
-51.93
-54.51
-58.67
-65.18
-74.09
-84.37
-93.82
-99.44
-98.24
-88.23
-69.32
-43.65
-15.07
12.04
34.08
49.21
57.53
60.55
60.23
58.31
55.83
53.27
50.76
48.44
46.46
45.0
44.11
43.66
43.41
43.1
42.59
41.94
41.32
40.84
40.45
39.82
38.46
35.88
31.91
26.79
21.19
15.92
11.68
8.68
6.69
5.1
3.24
0.7
-2.51
-6.05
-9.39
-12.14
-14.25
-16.03
-18.09
-21.01
-25.11
-30.25
-35.83
-41.01
-45.05
-47.58
-48.86
-49.64
-51.1
-54.39
-60.29
-68.69
-78.31
-86.74
-90.92
-88.08
-76.78
-57.61
-33.18
-7.35
16.02
34.22
46.29
52.82
55.27
55.14
53.45
50.71
47.16
43.16
39.31
36.32
34.77
34.8
36.06
37.85
39.44
40.36
40.48
40.01
39.24
38.32
37.06
35.05
31.75
26.87
20.51
13.24
5.97
-0.39
-5.19
-8.33
-10.25
-11.78
-13.77
-16.77
-20.83
-25.45
-29.89
-33.49
-35.98
-37.62
-39.14
-41.54
-45.79
-52.57
-61.84
-72.62
-82.82
-89.55
-89.86
-81.72
-64.96
-41.57
-15.18
10.13
31.04
45.91
54.83
58.99
59.89
58.69
56.06
52.39
48.11
43.78
40.05
37.41
36.03
35.73
36.14
36.87
37.62
38.24
38.62
38.59
37.92
36.33
33.63
29.77
24.92
19.35
13.39
7.34
1.43
-4.13
-9.1
-13.21
-16.29
-18.34
-19.65
-20.79
-22.4
-24.98
-28.67
-33.14
-37.78
-41.95
-45.22
-47.63
-49.6
-51.8
-55.03
-60.01
-67.18
-76.37
-86.48
-95.35
-99.99
-97.52
-86.13
-66.08
-39.83
-11.4
14.96
36.04
50.46
58.68
62.21
62.81
61.85
60.08
57.83
55.29
52.73
50.44
48.69
47.53
46.87
46.47
46.14
45.8
45.45
45.08
44.58
43.67
41.98
39.21
35.28
30.38
24.9
19.31
13.93
8.9
4.21
-0.22
-4.42
-8.27
-11.63
-14.41
-16.67
-18.69
-20.88
-23.63
-27.1
-31.21
-35.55
-39.62
-42.94
-45.34
-47.0
-48.52
-50.77
-54.68
-60.94
-69.48
-79.2
-87.86
-92.51
-90.3
-79.59
-60.67
-35.91
-9.07
15.85
35.8
49.42
56.98
59.83
59.58
57.55
54.53
50.9
47.01
43.28
40.25
38.39
37.9
38.55
39.81
41.03
41.79
42.03
41.99
41.95
41.9
41.41
39.74
36.19
30.48
22.93
14.49
6.33
-0.51
-5.52
-8.86
-11.24
-13.62
-16.81
-21.1
-26.23
-31.5
-36.07
-39.38
-41.38
-42.57
-43.85
-46.3
-50.81
-57.82
-67.01
-76.99
-85.39
-89.27
-85.99
-74.19
-54.51
-29.57
-3.23
20.57
39.11
51.34
57.87
60.19
59.89
58.03
55.09
51.23
46.64
41.86
37.63
34.7
33.5
33.89
35.31
36.97
38.2
38.65
38.33
37.46
36.26
34.74
32.72
29.84
25.82
20.55
14.25
7.44
0.8
-4.95
-9.3
-12.13
-13.73
-14.82
-16.22
-18.62
-22.34
-27.2
-32.61
-37.86
-42.39
-45.93
-48.69
-51.17
-54.13
-58.42
-64.71
-73.2
-83.13
-92.63
-98.87
-98.86
-90.42
-73.25
-49.18
-21.81
4.73
26.96
43.02
52.83
57.55
58.9
58.35
56.83
54.81
52.49
50.07
47.81
45.97
44.73
44.02
43.62
43.26
42.72
41.99
41.11
40.18
39.15
37.81
35.89
33.18
29.62
25.34
20.61
15.73
10.95
6.44
2.33
-1.25
-4.26
-6.68
-8.67
-10.51
-12.58
-15.19
-18.51
-22.4
-26.51
-30.39
-33.71
-36.45
-38.97
-41.9
-46.06
-52.09
-60.31
-70.36
-80.98
-89.97
-94.59
-92.26
-81.53
-62.84
-38.59
-12.49
11.63
30.99
44.49
52.61
56.65
57.92
57.27
55.06
51.47
46.93
42.18
38.18
35.65
34.85
35.38
36.47
37.28
37.3
36.54
35.37
34.25
33.33
32.32
30.54
27.32
22.34
15.88
8.82
2.24
-2.96
-6.48
-8.72
-10.55
-12.93
-16.46
-21.11
-26.27
-31.09
-34.81
-37.17
-38.52
-39.72
-41.92
-46.2
-53.26
-63.02
-74.36
-85.06
-92.16
-92.74
-84.91
-68.61
-45.82
-19.98
5.04
26.1
41.54
51.29
56.4
58.28
58.21
56.96
54.94
52.38
49.53
46.75
44.46
42.97
42.35
42.4
42.81
43.25
43.53
43.58
43.39
42.85
41.73
39.75
36.66
32.43
27.26
21.54
15.71
10.14
5.07
0.57
-3.36
-6.77
-9.65
-12.11
-14.33
-16.63
-19.42
-22.99
-27.36
-32.22
-37.01
-41.18
-44.44
-46.93
-49.21
-52.1
-56.45
-62.89
-71.51
-81.53
-91.18
-97.79
-98.48
-91.07
-75.05
-51.98
-25.23
1.11
23.45
39.71
49.61
54.36
55.82
55.69
55.03
54.24
53.19
51.7
49.74
47.53
45.5
43.97
43.08
42.74
42.68
42.68
42.58
42.31
41.74
40.7
38.92
36.25
32.66
28.35
23.57
18.55
13.45
8.41
3.59
-0.78
-4.43
-7.21
-9.26
-10.93
-12.77
-15.26
-18.7
-22.94
-27.56
-31.97
-35.68
-38.48
-40.55
-42.43
-44.87
-48.69
-54.51
-62.5
-72.05
-81.56
-88.53
-90.11
-84.01
-69.47
-47.76
-21.96
3.97
26.4
43.08
53.53
58.68
60.07
59.15
56.81
53.49
49.5
45.26
41.42
38.67
37.46
37.71
38.85
40.04
40.59
40.2
39.08
37.68
36.34
35.02
33.25
30.4
25.97
19.97
12.99
5.98
-0.13
-4.78
-8.1
-10.72
-13.55
-17.28
-22.1
-27.58
-32.93
-37.32
-40.25
-41.85
-42.8
-44.14
-47.0
-52.27
-60.23
-70.33
-80.89
-89.38
-92.88
-88.95
-76.58
-56.69
-32.02
-6.34
16.73
34.73
46.86
53.8
57.0
57.87
57.34
55.75
53.17
49.76
46.0
42.56
40.1
38.98
39.1
40.0
41.09
41.82
41.86
41.11
39.55
37.21
34.13
30.35
25.98
21.17
16.0
10.58
4.99
-0.57
-5.79
-10.29
-13.77
-16.19
-17.88
-19.41
-21.42
-24.24
-27.8
-31.62
-35.07
-37.67
-39.34
-40.39
-41.41
-43.05
-45.99
-50.81
-57.91
-67.13
-77.37
-86.36
-91.04
-88.43
-76.84
-56.82
-31.18
-4.16
19.99
38.39
50.13
56.1
58.1
57.93
56.75
55.09
53.06
50.76
48.46
46.57
45.43
45.09
45.29
45.6
45.61
45.17
44.41
43.54
42.69
41.69
40.09
37.39
33.32
28.06
22.17
16.39
11.33
7.22
3.87
0.85
-2.25
-5.59
-9.02
-12.2
-14.77
-16.67
-18.14
-19.7
-21.92
-25.16
-29.36
-34.12
-38.8
-42.84
-45.94
-48.27
-50.36
-53.05
-57.23
-63.55
-71.94
-81.29
-89.33
-93.04
-89.58
-77.39
-57.02
-31.17
-3.89
20.73
39.81
52.29
58.79
60.84
60.05
57.58
54.09
49.97
45.59
41.44
38.1
36.0
35.31
35.8
36.95
38.16
38.95
39.09
38.67
37.9
36.98
35.85
34.22
31.62
27.68
22.31
15.82
8.89
2.4
-2.9
-6.59
-8.81
-10.17
-11.57
-13.8
-17.26
-21.77
-26.64
-31.09
-34.53
-36.85
-38.44
-40.01
-42.31
-46.01
-51.56
-59.14
-68.34
-77.95
-85.79
-89.09
-85.26
-72.98
-52.95
-27.89
-1.75
21.59
39.56
51.4
57.84
60.39
60.38
58.63
55.49
51.24
46.39
41.73
38.12
36.13
35.83
36.76
38.23
39.58
40.41
40.64
40.35
39.61
38.32
