37.11
35.41
32.26
27.3
20.65
13.0
5.38
-1.26
-6.45
-10.34
-13.63
-17.17
-21.52
-26.73
-32.28
-37.36
-41.29
-43.82
-45.31
-46.62
-48.88
-53.15
-60.11
-69.65
-80.65
-90.96
-97.65
-97.79
-89.41
-72.36
-48.54
-21.46
4.84
27.05
43.38
53.75
59.27
61.4
61.35
59.76
56.9
53.05
48.74
44.73
41.85
40.58
40.85
42.11
43.55
44.45
44.46
43.67
42.4
40.97
39.43
37.53
34.81
30.81
25.33
18.49
10.88
3.35
-3.18
-8.06
-11.14
-12.88
-14.18
-16.04
-19.16
-23.64
-29.02
-34.5
-39.29
-42.97
-45.66
-47.88
-50.43
-54.16
-59.84
-67.88
-78.0
-88.92
-98.28
-103.02
-100.3
-88.53
-68.2
-41.94
-13.7
12.41
33.41
48.03
56.66
60.67
61.7
61.0
59.32
57.01
54.28
51.37
48.68
46.59
45.4
45.18
45.68
46.51
47.26
47.62
47.46
46.8
45.62
43.82
41.24
37.7
33.21
27.96
22.26
16.44
10.79
5.51
0.78
-3.28
-6.59
-9.2
-11.36
-13.51
-16.13
-19.6
-24.0
-29.06
-34.29
-39.18
-43.4
-46.98
-50.32
-54.03
-58.88
-65.51
-74.15
-84.23
-94.2
-101.48
-103.09
-96.63
-81.23
-58.15
-30.58
-2.61
21.98
40.82
53.29
60.17
62.9
62.9
61.18
58.37
54.91
51.29
48.01
45.53
44.13
43.83
44.35
45.27
46.07
46.4
46.09
45.2
43.91
42.36
40.44
37.89
34.32
29.47
23.42
16.59
9.73
3.59
-1.25
-4.66
-6.97
-8.85
-11.07
-14.19
-18.34
-23.17
-28.0
-32.09
-34.99
-36.76
-37.97
-39.61
-42.75
-48.21
-56.34
-66.63
-77.65
-87.05
-91.98
-89.84
-79.18
-60.36
-35.66
-8.68
16.74
37.58
52.41
61.24
65.07
65.18
62.56
57.95
51.93
45.28
38.98
34.0
31.05
30.27
31.24
33.18
35.29
37.06
38.3
39.09
39.46
39.22
37.87
34.82
29.75
22.82
14.8
6.76
-0.29
-5.87
-10.12
-13.73
-17.5
-21.95
-27.06
-32.32
-37.01
-40.61
-43.06
-44.86
-46.94
-50.4
-56.15
-64.56
-75.08
-86.03
-94.73
-98.09
-93.49
-79.85
-58.18
-31.48
-3.86
20.75
39.74
52.33
59.29
62.18
62.51
61.22
58.73
55.23
51.11
46.98
43.65
41.73
41.39
42.27
43.69
44.9
45.38
45.02
43.96
42.48
40.7
38.5
35.51
31.34
25.76
18.92
11.36
3.98
-2.36
-7.12
-10.33
-12.58
-14.82
-17.92
-22.29
-27.73
-33.5
-38.72
-42.7
-45.35
-47.18
-49.12
-52.24
-57.47
-65.32
-75.67
-87.42
-98.45
-105.85
-106.53
-98.28
-80.7
-55.62
-26.7
1.69
25.83
43.61
54.83
60.66
62.84
62.83
61.55
59.39
56.55
53.32
50.13
47.48
45.76
45.04
45.12
45.59
46.01
46.06
45.62
44.71
43.41
41.75
39.61
36.78
33.02
28.19
22.33
15.72
8.9
2.55
-2.77
-6.71
-9.36
-11.24
-13.1
-15.77
-19.69
-24.83
-30.67
-36.4
-41.33
-45.14
-48.03
-50.61
-53.75
-58.26
-64.84
-73.72
-84.48
-95.73
-105.09
-109.52
-106.25
-93.77
-72.72
-45.83
-17.22
8.99
29.93
44.54
53.47
58.18
60.13
60.22
58.76
55.9
51.97
47.7
43.95
41.47
40.47
40.62
41.21
41.58
41.38
40.71
39.95
39.44
39.18
38.71
37.27
34.12
28.96
22.13
14.61
7.64
2.22
-1.32
-3.41
-5.05
-7.33
-10.89
-15.69
-21.07
-26.12
-30.12
-32.81
-34.5
-35.93
-38.06
-41.82
-47.93
-56.63
-67.34
-78.42
-87.24
-90.71
-86.29
-72.98
-51.97
-26.35
-0.18
22.86
40.45
52.03
58.34
60.65
60.1
57.4
53.04
47.59
41.88
36.89
33.46
31.96
32.19
33.54
35.21
36.58
37.35
37.48
37.08
36.15
34.42
31.46
26.86
20.53
12.85
4.68
-2.96
-9.25
-13.93
-17.33
-20.28
-23.61
-27.76
-32.59
-37.49
-41.71
-44.78
-46.8
-48.47
-50.85
-55.04
-61.86
-71.43
-82.96
-94.47
-103.09
-105.65
-99.71
-84.54
-61.65
-34.5
-7.33
16.09
33.63
45.04
51.48
54.65
55.94
56.1
55.33
53.69
51.38
48.78
46.42
44.65
43.63
43.24
43.25
43.47
43.81
44.32
45.09
46.14
47.27
48.0
47.7
45.72
41.7
35.76
28.58
21.21
14.71
9.73
6.22
3.45
0.32
-4.16
-10.42
-18.06
-26.11
-33.4
-39.05
-42.81
-45.18
-47.13
-49.86
-54.46
-61.64
-71.38
-82.68
-93.4
-100.55
-101.05
-92.77
-75.5
-51.22
-23.57
3.26
25.89
42.55
53.2
59.05
61.68
62.41
61.99
60.72
58.68
56.08
53.26
50.71
48.8
47.64
46.96
46.35
45.33
43.7
41.57
39.31
37.22
35.38
33.52
31.16
27.88
23.6
18.66
13.74
9.53
6.5
4.59
3.33
1.93
-0.34
-3.91
-8.72
-14.31
-20.01
-25.23
-29.64
-33.27
-36.52
-39.96
-44.27
-50.06
-57.67
-66.91
-76.77
-85.32
-90.02
-88.41
-78.98
-61.93
-39.2
-14.01
10.24
30.87
46.53
57.16
63.47
66.37
66.54
64.36
60.1
54.15
47.12
39.81
33.07
27.56
23.63
21.29
20.25
20.02
20.15
20.19
19.87
19.0
17.56
15.53
12.99
9.98
6.52
2.56
-1.89
-6.78
-11.88
-16.88
-21.34
-24.99
-27.71
-29.73
-31.56
-33.89
-37.41
-42.71
-49.97
-58.72
-67.72
-74.93
-77.94
-74.64
-63.96
-46.46
-24.21
-0.27
22.25
40.96
54.7
63.33
67.41
67.7
64.96
59.9
53.39
46.44
40.17
35.53
33.06
32.75
34.05
36.16
38.29
39.95
40.99
41.46
41.46
40.95
39.69
37.43
34.01
29.52
24.16
18.2
11.84
5.22
-1.51
-8.09
-14.13
-19.34
-23.59
-27.06
-30.13
-33.26
-36.82
-41.13
-46.39
-52.67
-59.64
-66.32
-71.04
-71.78
-66.87
-55.8
-39.63
-20.79
-2.2
13.67
25.66
33.93
39.57
43.78
47.21
49.83
51.1
50.41
47.53
42.76
36.8
30.5
24.62
19.61
15.64
12.6
10.24
8.19
6.13
3.82
1.18
-1.7
-4.66
-7.6
-10.57
-13.77
-17.46
-21.77
-26.62
-31.69
-36.69
-41.41
-46.0
-50.85
-56.5
-63.41
-71.88
-81.86
-92.87
-103.77
-112.85
-117.97
-117.2
-109.58
-95.69
-77.63
-58.45
-41.0
-26.97
-16.48
-8.4
-1.23
6.01
13.32
19.89
24.7
27.13
27.21
25.65
23.34
21.07
19.24
17.91
16.92
16.12
15.42
14.82
14.38
14.16
14.13
14.16
13.94
13.02
10.95
7.44
2.61
-2.93
-8.21
-12.24
-14.41
-14.78
-14.14
-13.7
-14.75
-18.28
-24.62
-33.26
-42.81
-51.08
-55.57
-54.1
-45.49
-30.09
-9.72
12.81
34.57
53.29
67.8
77.97
84.3
87.39
87.6
85.11
80.1
73.13
65.16
57.48
51.34
47.55
46.21
46.73
48.09
49.27
49.53
48.6
46.62
43.97
40.96
37.65
33.88
29.36
23.89
17.59
10.93
4.65
-0.6
-4.52
-7.29
-9.5
-11.89
-15.16
-19.85
-26.29
-34.51
-43.96
-53.24
-60.15
-62.19
-57.48
-45.67
-28.35
-8.58
10.15
25.11
35.2
40.87
43.44
44.34
44.4
43.83
42.47
40.16
36.96
33.16
29.14
25.17
21.4
17.89
14.69
11.93
9.77
8.31
7.47
6.98
6.39
5.28
3.38
0.69
-2.61
-6.26
-10.07
-13.97
-17.95
-22.01
-26.0
-29.63
-32.59
-34.65
-35.8
-36.26
-36.5
-37.17
-38.99
-42.58
-48.02
-54.55
-60.37
-62.95
-59.91
-50.01
-33.89
-14.12
5.71
22.23
33.49
39.33
40.98
40.21
38.43
36.28
33.78
30.69
26.93
22.67
18.27
14.06
10.33
7.22
4.84
3.32
2.76
3.12
4.12
5.25
5.84
5.28
3.26
-0.11
-4.3
-8.57
-12.31
-15.21
-17.36
-19.1
-20.76
-22.5
-24.23
-25.67
-26.55
-26.72
-26.3
-25.67
-25.41
-26.24
-28.76
-33.14
-38.81
-44.3
-47.41
-45.89
-38.35
-24.97
-7.67
10.45
26.17
37.24
42.98
44.12
42.19
38.66
34.45
29.82
24.73
19.21
13.57
8.35
4.11
1.21
-0.29
-0.66
-0.31
0.28
0.68
0.64
0.07
-0.94
-2.19
-3.47
-4.72
-6.06
-7.74
-9.95
-12.7
-15.73
-18.52
-20.59
-21.64
-21.74
-21.29
-20.87
-21.04
-22.27
-24.83
-28.79
-33.85
-39.13
-43.11
-43.85
-39.69
-29.94
-15.41
1.59
18.12
31.49
40.2
44.16
44.34
42.03
38.27
33.61
28.3
22.6
16.9
11.75
7.52
4.37
2.13
0.51
-0.77
-1.8
-2.54
-2.94
-2.96
-2.76
-2.57
-2.65
-3.16
-4.1
-5.32
-6.58
-7.68
-8.57
-9.33
-10.22
-11.49
-13.29
-15.53
-17.94
-20.09
-21.64
-22.46
-22.77
-23.14
-24.3
-26.95
-31.37
-37.14
-42.88
-46.42
-45.41
-38.22
-24.7
-6.56
13.05
30.61
43.4
50.35
52.05
50.18
46.55
42.42
38.26
33.97
29.36
24.43
19.49
15.01
11.33
8.58
6.55
4.91
3.39
1.97
0.8
0.07
-0.17
-0.15
-0.32
-1.11
-2.73
-4.98
-7.41
-9.55
-11.21
-12.57
-14.08
-16.17
-18.96
-22.13
-25.03
-26.98
-27.6
-26.97
-25.67
-24.53
-24.45
-26.13
-29.75
-34.81
-40.02
-43.4
-42.86
-36.91
-25.43
-9.91
6.92
22.02
33.11
39.31
41.2
40.14
37.56
34.33
30.76
26.81
22.5
18.13
14.16
11.11
9.28
8.7
9.12
10.09
11.15
11.91
12.14
11.78
10.92
9.71
8.24
6.46
4.19
1.27
-2.33
-6.36
-10.32
-13.58
-15.7
-16.6
-16.65
-16.5
-16.81
-18.11
-20.62
-24.38
-29.27
-34.84
-40.1
-43.42
-42.8
-36.65
-24.57
-7.9
10.59
27.54
40.26
47.48
49.53
47.76
43.76
38.69
33.21
27.64
22.25
17.45
13.6
10.91
9.33
8.55
8.21
8.0
7.75
7.39
6.92
6.29
5.42
4.2
2.6
0.68
-1.42
-3.53
-5.58
-7.58
-9.66
-11.92
-14.35
-16.81
-19.04
-20.83
-22.06
-22.83
-23.41
-24.18
-25.61
-28.16
-32.1
-37.2
-42.48
-46.17
-46.08
-40.49
-28.9
-12.51
6.01
23.46
37.12
45.64
49.17
48.91
46.4
42.87
38.97
34.95
30.82
26.67
22.63
18.92
15.68
13.03
10.99
9.51
8.55
8.0
7.77
7.66
7.43
6.72
5.21
2.74
-0.53
-4.15
-7.42
-9.8
-11.1
-11.6
-11.93
-12.73
-14.31
-16.48
-18.66
-20.25
-20.94
-20.88
-20.66
-21.06
-22.78
-26.19
-31.17
-36.9
-41.85
-43.96
-41.26
-32.66
-18.57
-1.1
16.59
31.37
41.19
45.66
45.88
43.68
40.7
37.89
35.44
33.08
30.5
27.58
24.37
21.02
17.66
14.42
11.4
8.74
6.6
5.05
4.06
3.44
2.91
2.17
1.01
-0.64
-2.69
-4.95
-7.26
-9.5
-11.65
-13.75
-15.84
-17.8
-19.46
-20.52
-20.84
-20.5
-19.89
-19.67
-20.59
-23.22
-27.67
-33.33
-38.78
-42.01
-40.98
-34.36
-22.23
-6.21
10.89
26.06
37.09
43.19
44.91
43.58
40.59
36.74
32.3
27.2
21.45
15.42
9.75
5.17
2.25
1.21
1.85
3.64
5.86
7.76
8.78
8.68
7.5
5.51
3.08
0.47
-2.27
-5.18
-8.28
-11.46
-14.4
-16.67
-17.98
-18.36
-18.18
-18.03
-18.51
-19.99
-22.64
-26.54
-31.72
-38.07
-44.9
-50.69
-53.22
-50.31
-40.73
-25.06
-5.81
13.43
29.21
39.47
44.01
44.15
41.77
38.49
35.08
31.62
27.96
24.05
20.11
16.53
13.57
11.29
9.57
8.31
7.54
7.48
8.34
10.15
12.44
14.41
15.14
14.0
11.0
6.82
2.5
-0.98
-3.23
-4.54
-5.7
-7.5
-10.36
-14.08
-18.04
-21.53
-24.11
-25.8
-26.94
-28.1
-29.87
-32.77
-37.03
-42.31
-47.51
-50.71
-49.72
-42.97
-30.3
-13.4
4.66
20.53
31.86
38.0
39.96
39.61
38.63
37.86
37.21
36.09
34.05
31.08
27.59
24.13
21.09
18.54
16.32
14.34
12.74
11.88
12.1
13.42
15.34
16.9
17.04
15.04
10.87
5.26
-0.66
-5.8
-9.5
-11.77
-13.16
-14.4
-16.01
-18.12
-20.42
-22.44
-23.82
-24.48
-24.74
-25.15
-26.34
-28.9
-33.16
-38.97
-45.47
-50.95
-53.07
-49.71
-39.78
-23.97
-4.78
14.33
30.1
40.62
45.73
46.64
45.13
42.66
39.95
37.11
33.92
30.31
26.45
22.75
19.62
17.38
16.14
15.74
15.85
16.09
16.13
15.81
15.09
14.03
12.69
11.05
9.02
6.54
3.58
0.12
-3.8
-8.15
-12.78
-17.38
-21.55
-24.8
-26.83
-27.6
-27.53
-27.31
-27.84
-29.93
-34.05
-40.03
-46.83
-52.52
-54.7
-51.28
-41.33
-25.74
-7.02
11.47
26.73
37.09
42.53
44.27
43.91
42.62
40.84
38.42
35.1
30.94
26.43
22.31
19.26
17.64
17.33
17.86
18.61
19.1
19.11
18.66
17.89
16.83
15.31
13.01
9.66
5.29
0.35
-4.33
-7.82
-9.56
-9.58
-8.65
-7.98
-8.7
-11.41
-15.86
-21.1
-25.92
-29.33
-30.98
-31.21
-30.88
-31.01
-32.5
-35.9
-41.22
-47.76
-53.92
-57.47
-56.11
-48.4
-34.51
-16.42
2.76
19.8
32.52
40.38
44.2
45.5
45.61
45.22
44.41
42.94
40.65
37.62
34.13
30.53
27.22
24.51
22.63
21.69
21.64
22.25
23.16
23.91
24.06
23.23
21.21
18.0
13.76
8.84
3.65
-1.37
-5.8
-9.32
-11.71
-12.98
-13.34
-13.21
-13.11
-13.54
-14.86
-17.11
-20.05
-23.16
-25.89
-27.79
-28.73
-28.91
-28.85
-29.22
-30.74
-34.01
-39.28
-46.16
-53.43
-58.95
-60.25
-55.3
-43.5
-26.06
-5.84
13.74
29.8
40.93
47.3
50.08
50.61
49.76
47.78
44.61
40.29
35.22
30.1
25.65
22.38
20.38
19.43
19.14
19.16
19.33
19.65
20.16
20.75
21.02
20.36
18.16
14.15
8.62
2.41
-3.32
-7.58
-9.97
-10.86
-11.16
-11.96
-13.96
-17.18
-21.0
-24.52
-26.99
-28.18
-28.41
-28.44
-29.11
-31.12
-34.78
-39.87
-45.51
-50.03
-51.37
-47.58
-37.76
-22.61
-4.44
13.5
28.21
37.97
42.77
43.88
42.94
41.11
38.69
35.37
30.78
25.05
18.95
13.62
10.12
8.92
9.81
11.94
14.27
15.99
16.79
16.87
16.76
16.86
17.19
17.29
16.48
14.19
10.36
5.55
0.75
-2.96
-4.97
-5.41
-5.02
-4.95
-6.19
-9.18
-13.63
-18.66
-23.17
-26.3
-27.76
-27.85
-27.32
-27.07
-27.91
-30.43
-34.77
-40.46
-46.22
-50.02
-49.57
-43.16
-30.51
-13.17
5.78
22.83
35.24
41.96
43.67
42.16
39.37
36.66
34.52
32.83
31.24
29.48
27.5
25.37
23.31
21.52
20.17
19.36
19.03
19.03
19.13
19.04
18.55
17.47
15.67
13.05
9.58
5.35
0.62
-4.2
-8.56
-11.96
-14.13
-15.12
-15.29
-15.23
-15.51
-16.54
-18.36
-20.7
-23.02
-24.73
-25.41
-25.01
-23.82
-22.43
-21.57
-21.88
-23.75
-27.25
-32.08
-37.45
-42.05
-44.18
-42.16
-35.0
-23.0
-7.89
7.57
20.62
29.38
33.45
33.76
31.83
29.07
26.17
23.19
19.99
16.58
13.32
10.78
9.38
9.12
9.62
10.32
10.77
10.85
10.81
10.97
11.49
12.18
12.47
11.74
9.61
6.18
2.02
-2.04
-5.31
-7.48
-8.75
-9.64
-10.8
-12.66
-15.24
-18.13
-20.68
-22.29
-22.67
-22.03
-21.04
-20.59
-21.58
-24.58
-29.64
-35.99
-42.06
-45.64
-44.57
-37.48
-24.49
-7.46
10.64
26.62
38.23
44.68
46.62
45.42
42.45
38.56
34.06
29.04
23.71
18.56
14.25
11.31
9.94
9.99
10.95
12.25
13.39
14.12
14.38
14.29
13.92
13.23
12.05
10.08
7.09
3.09
-1.64
-6.44
-10.57
-13.34
-14.52
-14.33
-13.49
-12.89
-13.26
-14.85
-17.4
-20.25
-22.63
-24.06
-24.45
-24.22
-24.05
-24.73
-26.98
-31.18
-37.27
-44.48
-51.22
-55.25
-54.3
-46.88
-33.07
-14.74
4.97
22.63
35.76
43.49
46.51
46.47
45.08
43.44
41.86
40.1
37.85
34.99
31.71
28.45
25.62
23.5
22.13
21.36
20.92
20.54
20.0
19.19
18.06
16.6
14.83
12.72
10.22
7.25
3.81
-0.02
-3.98
-7.66
-10.63
-12.6
-13.54
-13.74
-13.75
-14.18
-15.47
-17.71
-20.55
-23.31
-25.28
-25.98
-25.4
-24.07
-22.9
-22.83
-24.63
-28.61
-34.45
-41.11
-46.81
-49.34
-46.65
-37.63
-22.72
-4.04
15.22
31.78
43.43
49.54
50.95
49.25
45.95
41.96
37.6
32.92
28.08
23.5
19.69
17.0
15.41
14.59
14.02
13.29
12.29
11.22
10.4
10.12
10.35
10.75
10.76
9.81
7.59
4.21
0.16
-3.89
-7.34
-9.93
-11.79
-13.4
-15.27
-17.72
-20.69
-23.7
-26.14
-27.5
-27.65
-26.97
-26.25
-26.4
-28.13
-31.73
-36.97
-43.03
-48.52
-51.62
-50.57
-44.09
-32.09
-15.87
2.14
19.07
32.64
41.73
46.64
48.55
48.77
48.17
46.96
44.98
42.07
38.36
34.28
30.32
26.8
23.78
21.07
18.37
15.51
12.45
9.31
6.29
3.58
1.31
-0.45
-1.67
-2.38
-2.64
-2.6
-2.47
-2.51
-2.89
-3.66
-4.72
-5.87
-6.96
-7.98
-9.13
-10.63
-12.66
-15.24
-18.15
-21.08
-23.76
-26.05
-28.02
-29.85
-31.8
-34.11
-37.07
-40.88
-45.43
-49.99
-53.08
-52.7
-47.07
-35.48
-18.95
-0.03
17.92
31.99
40.71
44.31
44.19
42.07
39.16
35.84
31.97
27.37
22.23
17.14
12.83
9.79
8.14
7.57
7.58
7.73
7.8
7.81
7.86
8.06
8.41
8.78
9.02
8.95
8.46
7.49
6.03
4.12
1.88
-0.52
-2.92
-5.12
-7.05
-8.74
-10.34
-12.12
-14.4
-17.35
-20.91
-24.66
-27.98
-30.23
-31.12
-30.81
-29.91
-29.31
-29.87
-32.25
-36.65
-42.62
-48.82
-53.18
-53.24
-47.07
-34.19
-16.0
4.47
23.62
38.58
48.06
52.51
53.49
52.67
51.11
49.1
46.4
42.73
38.12
33.0
27.93
23.49
19.99
17.5
15.91
15.01
14.68
14.86
15.53
16.5
17.38
17.58
16.47
13.72
9.45
4.33
-0.67
-4.6
-6.9
-7.62
-7.42
-7.26
-8.05
-10.22
-13.51
-17.18
-20.24
-21.96
-22.16
-21.28
-20.22
-20.0
-21.48
-25.07
-30.63
-37.38
-43.75
-47.71
-47.11
-40.54
-27.97
-11.1
7.15
23.53
35.61
42.54
44.9
44.17
41.78
38.62
34.93
30.62
25.75
20.69
16.08
12.57
10.53
9.96
10.49
11.59
12.72
13.53
13.92
13.97
13.83
13.51
12.81
11.33
8.73
4.9
0.19
-4.64
-8.71
-11.33
-12.32
-12.14
-11.69
-11.92
-13.42
-16.26
-19.82
-23.25
-25.71
-26.76
-26.61
-25.95
-25.77
-27.03
-30.42
-36.05
-43.31
-50.69
-56.01
-56.89
-51.55
-39.67
-22.63
-3.3
15.0
29.55
39.04
43.69
44.74
43.71
41.76
39.5
37.08
34.45
31.63
28.68
25.76
23.05
20.72
18.89
17.61
16.87
16.6
16.69
17.02
17.46
17.81
17.77
17.04
15.32
12.52
8.72
4.25
-0.38
-4.66
-8.11
-10.44
-11.62
-11.86
-11.59
-11.36
-11.67
-12.77
-14.61
-16.82
-18.93
-20.55
-21.52
-22.0
-22.38
-23.22
-25.09
-28.51
-33.76
-40.51
-47.63
-53.05
-54.29
-49.31
-37.5
-20.17
-0.27
18.62
33.54
43.08
47.57
48.41
47.22
45.13
42.55
39.47
35.86
31.95
28.19
25.02
22.68
21.07
19.84
18.59
17.05
15.21
13.3
11.59
10.32
9.47
8.73
7.65
5.78
2.88
-0.96
-5.27
