-6.24
-11.02
-14.26
-15.69
-15.69
-15.23
-15.37
-16.89
-19.85
-23.64
-27.23
-29.63
-30.35
-29.58
-28.12
-27.09
-27.61
-30.5
-35.84
-42.83
-49.6
-53.56
-52.13
-43.71
-28.55
-8.84
11.91
30.06
43.18
50.61
53.32
53.1
51.52
49.43
46.88
43.6
39.44
34.7
29.95
25.83
22.76
20.74
19.51
18.63
17.77
16.76
15.68
14.67
13.8
13.0
12.01
10.53
8.38
5.57
2.31
-1.09
-4.32
-7.14
-9.45
-11.22
-12.57
-13.76
-15.11
-17.0
-19.7
-23.16
-27.03
-30.67
-33.46
-35.01
-35.4
-35.2
-35.21
-36.39
-39.44
-44.61
-51.4
-58.36
-63.23
-63.42
-56.98
-43.41
-24.21
-2.49
18.05
34.35
44.97
50.18
51.44
50.44
48.49
46.18
43.69
40.99
38.13
35.29
32.62
30.2
28.02
26.02
24.14
22.43
20.95
19.82
19.01
18.42
17.76
16.63
14.7
11.87
8.39
4.73
1.38
-1.4
-3.68
-5.79
-8.1
-10.73
-13.45
-15.86
-17.6
-18.65
-19.35
-20.25
-21.81
-24.1
-26.78
-29.26
-30.98
-31.73
-31.74
-31.57
-31.92
-33.41
-36.51
-41.42
-47.87
-54.8
-60.27
-61.77
-57.02
-44.97
-26.55
-4.64
16.86
34.44
46.08
51.76
52.87
51.3
48.54
45.3
41.69
37.7
33.49
29.51
26.22
23.92
22.56
21.8
21.19
20.43
19.48
18.53
17.84
17.48
17.16
16.32
14.4
11.09
6.64
1.73
-2.74
-6.04
-7.99
-8.91
-9.57
-10.76
-12.97
-16.21
-19.97
-23.51
-26.09
-27.33
-27.39
-26.93
-26.93
-28.43
-32.13
-38.08
-45.36
-52.11
-55.76
-53.91
-45.17
-29.86
-10.15
10.56
28.81
42.16
49.88
52.73
52.33
50.24
47.45
44.2
40.41
35.95
31.04
26.19
22.03
19.03
17.39
16.88
17.01
17.24
17.15
16.56
15.52
14.17
12.58
10.66
8.2
5.0
1.0
-3.54
-8.14
-12.2
-15.19
-16.87
-17.32
-16.99
-16.55
-16.66
-17.77
-19.97
-22.9
-25.89
-28.32
-29.75
-30.23
-30.18
-30.31
-31.38
-34.06
-38.8
-45.55
-53.53
-60.95
-65.19
-63.55
-54.26
-37.51
-15.62
7.52
27.92
42.76
51.21
54.22
53.74
51.6
49.0
46.3
43.42
40.27
36.85
33.33
29.9
26.73
23.96
21.72
20.11
19.16
18.79
18.76
18.7
18.22
16.99
14.86
11.9
8.35
4.54
0.71
-3.01
-6.65
-10.28
-13.93
-17.45
-20.53
-22.78
-23.96
-24.05
-23.41
-22.58
-22.08
-22.19
-22.78
-23.49
-23.89
-23.86
-23.6
-23.63
-24.59
-27.04
-31.34
-37.44
-44.77
-51.96
-56.88
-57.03
-50.53
-36.91
-17.74
3.77
23.81
39.3
48.83
52.75
52.65
50.28
46.95
43.26
39.35
35.32
31.36
27.81
24.93
22.83
21.41
20.44
19.71
19.14
18.84
18.99
19.72
20.88
21.9
21.91
20.11
16.11
10.29
3.71
-2.26
-6.55
-8.81
-9.56
-9.9
-10.95
-13.35
-16.94
-20.94
-24.36
-26.49
-27.23
-27.1
-27.01
-27.97
-30.77
-35.79
-42.75
-50.56
-57.27
-60.4
-57.69
-47.97
-31.86
-11.8
8.72
26.35
39.0
46.29
49.2
49.29
47.88
45.62
42.67
39.02
34.85
30.59
26.83
24.01
22.3
21.58
21.44
21.49
21.47
21.34
21.28
21.45
21.81
22.0
21.43
19.52
15.91
10.73
4.61
-1.53
-6.72
-10.36
-12.36
-13.26
-13.95
-15.34
-17.99
-21.81
-26.21
-30.36
-33.58
-35.65
-36.86
-37.81
-39.2
-41.68
-45.73
-51.57
-58.89
-66.49
-72.22
-73.32
-67.41
-53.59
-33.12
-9.23
13.96
32.92
45.81
52.77
55.25
55.14
53.84
52.02
49.79
47.08
43.91
40.44
36.95
33.68
30.88
28.68
27.17
26.32
25.97
25.91
25.91
25.78
25.33
24.39
22.75
20.3
16.99
12.91
8.31
3.53
-1.1
-5.27
-8.82
-11.75
-14.2
-16.44
-18.8
-21.49
-24.58
-27.93
-31.21
-34.01
-36.01
-37.06
-37.28
-37.09
-37.09
-37.97
-40.39
-44.82
-51.32
-59.09
-66.41
-70.67
-69.18
-60.11
-43.49
-21.44
2.4
24.1
40.81
51.5
56.88
58.55
58.06
56.33
53.62
49.95
45.5
40.79
36.47
33.05
30.67
29.15
28.07
27.13
26.23
25.49
25.1
25.14
25.4
25.41
24.49
22.08
17.9
12.15
5.49
-1.1
-6.64
-10.55
-12.89
-14.31
-15.81
-18.22
-21.73
-25.89
-29.8
-32.55
-33.78
-33.78
-33.46
-33.91
-36.07
-40.44
-46.87
-54.38
-61.16
-64.81
-62.94
-54.09
-38.4
-17.85
4.27
24.46
40.1
50.17
55.13
56.39
55.41
53.18
50.11
46.22
41.55
36.4
31.37
27.13
24.22
22.8
22.62
23.13
23.75
24.05
23.83
23.12
21.98
20.42
18.32
15.49
11.79
7.26
2.18
-3.04
-7.82
-11.71
-14.43
-16.03
-16.86
-17.49
-18.49
-20.33
-23.1
-26.58
-30.24
-33.48
-35.78
-36.95
-37.19
-37.11
-37.51
-39.32
-43.27
-49.62
-57.86
-66.32
-72.37
-73.04
-66.08
-50.98
-29.47
-5.09
17.99
36.38
48.45
54.47
55.97
54.8
52.41
49.56
46.51
43.39
40.36
37.68
35.53
34.0
32.98
32.25
31.6
30.9
30.14
29.36
28.6
27.76
26.6
24.85
22.28
18.83
14.68
10.16
5.61
1.28
-2.73
-6.44
-9.87
-12.96
-15.54
-17.43
-18.62
-19.37
-20.17
-21.59
-23.94
-27.17
-30.76
-34.03
-36.39
-37.63
-38.01
-38.13
-38.78
-40.76
-44.72
-50.74
-58.03
-64.71
-68.11
-65.49
-55.24
-37.73
-15.45
7.72
27.95
42.71
51.39
55.01
55.33
53.91
51.62
48.7
45.12
41.03
36.82
33.0
29.98
27.88
26.57
25.72
25.12
24.69
24.55
24.77
25.26
25.56
24.95
22.68
18.32
12.07
4.77
-2.37
-8.24
-12.25
-14.53
-15.79
-16.94
-18.68
-21.2
-24.21
-27.12
-29.32
-30.56
-31.0
-31.16
-31.92
-34.2
-38.75
-45.74
-54.38
-62.73
-67.98
-67.28
-58.8
-42.64
-21.04
2.29
23.4
39.44
49.39
53.97
54.84
53.67
51.45
48.47
44.6
39.87
34.65
29.71
25.78
23.29
22.2
22.07
22.36
22.62
22.71
22.67
22.61
22.47
22.07
21.09
19.22
16.28
12.22
7.19
1.52
-4.29
-9.66
-14.02
-17.06
-18.84
-19.78
-20.53
-21.72
-23.73
-26.49
-29.61
-32.48
-34.62
-35.84
-36.31
-36.58
-37.34
-39.34
-43.22
-49.23
-56.94
-64.95
-70.9
-72.0
-66.01
-52.22
-32.02
-8.62
14.04
32.63
45.41
52.5
55.32
55.68
54.98
53.84
52.29
50.11
47.17
43.59
39.68
35.86
32.44
29.58
27.24
25.35
23.87
22.85
22.36
22.36
22.59
22.5
21.49
19.06
15.1
9.86
3.96
-1.94
-7.23
-11.5
-14.61
-16.66
-17.98
-19.02
-20.24
-22.02
-24.44
-27.31
-30.17
-32.56
-34.1
-34.79
-34.97
-35.25
-36.35
-39.02
-43.68
-50.13
-57.28
-63.06
-64.87
-60.37
-48.52
-30.21
-8.18
13.85
32.47
45.59
52.95
55.64
55.31
53.36
50.49
46.88
42.51
37.56
32.51
27.97
24.44
22.17
21.05
20.76
21.01
21.65
22.66
24.04
25.58
26.78
26.9
25.25
21.44
15.64
8.58
1.29
-5.24
-10.44
-14.34
-17.54
-20.76
-24.57
-28.98
-33.47
-37.22
-39.53
-40.17
-39.58
-38.67
-38.63
-40.48
-44.82
-51.45
-59.1
-65.51
-67.84
-63.58
-51.56
-32.66
-9.65
13.57
33.36
47.46
55.42
58.38
58.14
56.28
53.65
50.38
46.28
41.33
35.89
30.71
26.61
24.15
23.34
23.72
24.52
25.02
24.82
23.93
22.58
21.01
19.27
17.14
14.27
10.39
5.46
-0.17
-5.87
-10.87
-14.6
-16.85
-17.9
-18.38
-19.1
-20.69
-23.41
-27.01
-30.82
-34.12
-36.29
-37.18
-37.11
-36.79
-37.11
-38.93
-42.91
-49.25
-57.42
-65.91
-72.28
-73.68
-67.75
-53.74
-32.95
-8.64
15.07
34.56
47.84
54.85
57.03
56.4
54.64
52.69
50.75
48.66
46.26
43.58
40.82
38.21
35.87
33.8
31.9
30.06
28.32
26.76
25.48
24.46
23.55
22.44
20.77
18.31
14.98
10.92
6.33
1.56
-3.11
-7.37
-10.97
-13.75
-15.66
-16.92
-17.9
-19.17
-21.23
-24.27
-28.06
-31.94
-35.15
-37.13
-37.84
-37.79
-37.89
-39.07
-42.05
-47.11
-53.95
-61.48
-67.83
-70.56
-67.29
-56.67
-39.06
-16.73
6.67
27.46
42.96
52.31
56.27
56.55
54.85
52.29
49.32
45.97
42.31
38.58
35.17
32.41
30.39
28.95
27.83
26.79
25.87
25.24
25.14
25.52
26.0
25.83
24.21
20.62
15.07
8.24
1.21
-4.93
-9.58
-12.78
-15.22
-17.82
-21.24
-25.54
-30.17
-34.16
-36.74
-37.63
-37.22
-36.44
-36.47
-38.39
-42.9
-49.93
-58.44
-66.28
-70.56
-68.51
-58.54
-41.12
-18.77
4.62
25.15
40.24
49.19
52.99
53.43
52.14
50.05
47.38
44.01
39.93
35.44
31.12
27.57
25.23
24.19
24.18
24.81
25.64
26.35
26.8
26.9
26.57
25.62
23.82
20.89
16.72
11.4
5.34
-0.83
-6.38
-10.74
-13.6
-15.13
-15.88
-16.66
-18.23
-21.02
-24.96
-29.53
-33.92
-37.39
-39.55
-40.49
-40.78
-41.25
-42.79
-46.13
-51.69
-59.31
-67.93
-75.43
-78.98
-75.79
-64.33
-45.07
-20.73
4.61
26.84
43.24
53.13
57.54
58.45
57.66
56.33
54.79
52.96
50.71
48.08
45.29
42.6
40.21
38.18
36.45
34.86
33.3
31.7
30.12
28.63
27.24
25.84
24.15
21.86
18.7
14.56
9.54
3.97
-1.66
-6.79
-10.98
-13.95
-15.78
-16.85
-17.75
-19.07
-21.24
-24.27
-27.84
-31.41
-34.41
-36.54
-37.88
-38.86
-40.13
-42.39
-46.27
-52.08
-59.56
-67.57
-73.98
-76.08
-71.39
-58.72
-38.88
-14.69
9.87
30.97
46.18
54.96
58.35
58.13
55.9
52.65
48.78
44.52
40.11
36.02
32.67
30.37
29.06
28.45
28.17
27.91
27.64
27.46
27.51
27.73
27.75
26.94
24.69
20.7
15.18
8.85
2.61
-2.79
-7.08
-10.55
-13.8
-17.41
-21.62
-26.21
-30.59
-34.1
-36.34
-37.32
-37.54
-37.85
-39.26
-42.7
-48.61
-56.52
-64.82
-70.83
-71.57
-64.75
-49.86
-28.63
-4.56
18.22
36.42
48.48
54.72
56.68
56.1
54.22
51.51
47.98
43.64
38.79
34.02
30.01
27.21
25.71
25.21
25.23
25.35
25.3
25.08
24.8
24.49
24.04
23.06
21.04
17.57
12.49
6.12
-0.82
-7.35
-12.58
-16.0
-17.7
-18.31
-18.79
-20.04
-22.55
-26.23
-30.47
-34.43
-37.45
-39.29
-40.23
-40.92
-42.1
-44.45
-48.46
-54.36
-61.87
-69.94
-76.55
-79.01
-74.72
-62.31
-42.44
-17.86
7.38
29.33
45.39
54.99
59.22
60.01
59.15
57.65
55.79
53.4
50.35
46.76
43.02
39.6
36.81
34.7
33.09
31.77
30.61
29.63
28.92
28.46
27.99
27.05
25.21
22.24
18.28
13.75
9.15
4.81
0.83
-2.89
-6.41
-9.67
-12.49
-14.65
-16.17
-17.35
-18.73
-20.79
-23.8
-27.51
-31.36
-34.69
-37.08
-38.56
-39.56
-40.8
-43.0
-46.77
-52.39
-59.69
-67.75
-74.72
-78.01
-74.98
-64.02
-45.44
-21.75
3.06
24.87
40.85
50.23
54.12
54.53
53.34
51.61
49.49
46.75
43.24
39.25
35.36
32.23
30.2
29.21
28.82
28.5
27.94
27.17
26.51
26.32
26.6
26.9
26.38
24.21
19.94
13.85
6.88
0.24
-5.02
-8.43
-10.25
-11.3
-12.6
-14.9
-18.35
-22.48
-26.48
-29.54
-31.33
-32.09
-32.56
-33.72
-36.4
-41.13
-47.9
-55.99
-63.82
-69.05
-69.1
-62.01
-47.38
-26.83
-3.66
18.2
35.56
46.95
52.75
54.56
54.21
52.94
51.16
48.64
45.07
40.42
35.07
29.75
25.23
22.07
20.45
20.15
20.69
21.53
22.28
22.76
22.95
22.81
22.18
20.71
17.98
13.71
8.01
1.37
-5.35
-11.22
-15.55
-18.06
-19.05
-19.22
-19.45
-20.52
-22.82
-26.29
-30.45
-34.57
-37.97
-40.21
-41.26
-41.51
-41.64
-42.47
-44.79
-49.15
-55.58
-63.17
-69.98
-73.23
-70.2
-59.3
-40.94
-17.7
6.55
27.98
44.07
54.19
59.29
60.97
60.67
59.15
56.66
53.29
49.24
44.91
40.72
37.0
33.91
31.47
29.66
28.49
27.98
28.1
28.76
29.66
30.36
30.21
28.59
25.17
20.06
13.91
7.71
2.43
-1.39
-3.78
-5.34
-6.86
-8.97
-11.86
-15.19
-18.34
-20.71
-22.02
-22.47
-22.64
-23.28
-24.93
-27.71
-31.24
-34.81
-37.66
-39.35
-39.93
-39.97
-40.39
-42.25
-46.38
-52.95
-61.07
-68.59
-72.55
-70.04
-59.4
-41.06
-17.68
6.7
28.12
43.89
53.29
57.25
57.56
55.91
53.43
50.59
47.54
44.33
41.18
38.4
36.22
34.74
33.81
33.1
32.21
30.86
29.06
26.99
24.93
23.11
21.52
19.96
18.15
15.86
12.97
9.52
5.59
1.4
-2.84
-6.84
-10.35
-13.19
-15.39
-17.14
-18.78
-20.6
-22.69
-24.93
-26.95
-28.4
-29.07
-29.01
-28.6
-28.43
-29.2
-31.59
-36.08
-42.8
-51.14
-59.54
-65.56
-66.4
-59.88
-45.48
-24.77
-1.14
21.35
39.32
51.03
56.64
57.59
55.64
52.1
47.6
42.25
36.18
29.81
23.84
19.05
15.98
14.76
15.13
16.59
18.61
20.76
22.75
24.37
25.4
25.62
24.79
22.76
19.57
15.49
10.9
6.27
1.88
-2.11
-5.74
-9.09
-12.13
-14.73
-16.71
-18.09
-19.14
-20.36
-22.29
-25.12
-28.63
-32.2
-35.1
-36.87
-37.57
-37.75
-38.27
-40.05
-43.77
-49.73
-57.46
-65.57
-71.69
-73.03
-67.22
-53.43
-32.9
-8.84
14.67
34.0
47.17
54.15
56.33
55.63
53.64
51.15
48.4
45.37
42.18
39.09
36.44
34.45
33.09
32.17
31.42
30.65
29.89
29.33
29.14
29.32
29.59
29.34
27.89
24.77
19.95
13.93
7.65
2.12
-1.92
-4.31
-5.45
-6.17
-7.29
-9.28
-12.03
-14.96
-17.36
-18.75
-19.16
-19.18
-19.66
-21.31
-24.34
-28.35
-32.52
-35.87
-37.76
-38.1
-37.43
-36.78
-37.31
-40.08
-45.6
-53.44
-62.02
-68.7
-70.46
-64.97
-51.49
-31.52
-8.36
13.9
31.84
43.68
49.58
51.08
50.17
48.41
46.56
44.7
42.61
40.11
37.25
34.27
31.53
29.32
27.74
26.75
26.15
25.77
25.5
25.33
25.25
25.2
24.95
24.08
22.15
18.85
14.15
8.43
2.38
-3.16
-7.49
-10.33
-11.95
-13.04
-14.45
-16.86
-20.43
-24.71
-28.92
-32.3
-34.44
-35.47
-35.94
-36.58
-38.09
-41.01
-45.63
-51.84
-58.84
-64.96
-67.78
-64.84
-54.58
-37.22
-15.03
8.3
28.95
44.21
53.23
56.85
56.85
54.96
52.23
48.99
45.13
40.62
35.71
30.91
26.81
23.82
22.08
21.37
21.34
21.67
22.12
22.59
22.99
23.17
22.83
21.63
19.34
15.96
11.75
7.09
2.41
-1.96
-5.87
-9.27
-12.16
-14.53
-16.35
-17.68
-18.68
-19.64
-20.92
-22.76
-25.23
-28.08
-30.92
-33.34
-35.11
-36.3
-37.26
-38.53
-40.78
-44.6
-50.29
-57.5
-64.93
-70.28
-70.81
-64.3
-50.09
-29.66
-6.31
15.94
33.81
45.71
51.92
54.01
53.76
52.45
50.65
48.43
45.77
42.84
39.92
37.3
35.1
33.25
31.62
30.14
28.87
28.01
27.7
27.93
28.44
28.72
28.14
26.17
22.59
17.64
11.96
6.44
1.87
-1.39
-3.52
-5.11
-6.87
-9.18
-11.96
-14.69
-16.76
-17.85
-18.14
-18.26
-18.96
-20.82
-23.89
-27.73
-31.58
-34.69
-36.59
-37.28
-37.2
-37.15
-38.04
-40.73
-45.7
-52.7
-60.39
-66.39
-67.81
-62.23
-48.75
-28.7
-5.28
17.44
35.94
48.36
54.72
56.4
55.17
52.42
48.86
44.7
40.07
35.26
30.8
27.25
25.03
24.18
24.42
25.14
25.68
25.62
24.87
23.71
22.59
21.76
21.1
20.09
18.06
14.53
9.54
3.67
-2.16
-7.01
-10.32
-12.14
-13.1
-14.1
-15.99
-19.11
-23.21
-27.53
-31.13
-33.31
-33.91
-33.39
-32.59
-32.5
-33.96
-37.52
-43.24
-50.51
-57.87
-63.09
-63.59
-57.37
-43.91
-24.59
-2.48
18.69
35.8
47.22
53.03
54.53
53.35
50.83
47.66
44.08
40.12
35.96
31.9
28.33
25.59
23.87
23.09
23.04
23.47
24.12
24.85
25.51
25.89
25.65
24.39
21.84
18.0
13.19
8.01
3.07
-1.23
-4.82
-7.91
-10.82
-13.72
-16.52
-18.9
-20.51
-21.23
-21.31
-21.33
-21.92
-23.48
-26.0
-29.01
-31.86
-34.05
-35.44
-36.34
-37.36
-39.26
-42.74
-48.29
-55.77
-64.15
-71.32
-74.44
-70.85
-59.2
-40.25
-16.88
6.81
26.99
41.38
49.69
53.28
54.08
53.7
52.89
51.68
49.89
47.51
44.81
42.23
40.05
38.28
36.67
34.94
33.04
31.19
29.8
29.13
29.11
29.22
28.74
27.03
23.89
19.57
14.7
9.98
5.91
2.66
0.06
-2.3
-4.87
-7.92
-11.42
-15.0
-18.08
-20.17
-21.11
-21.23
-21.21
-21.8
-23.42
-25.96
-28.84
-31.28
-32.76
-33.21
-33.09
-33.2
-34.42
-37.5
-42.85
-50.18
-58.35
-65.19
-67.95
-64.09
-52.38
-33.64
-10.72
12.38
31.89
45.52
52.91
55.34
54.67
52.5
49.68
46.38
42.55
38.25
33.89
30.01
27.05
25.17
24.19
23.68
23.26
22.71
22.1
21.65
21.51
21.54
21.26
19.96
17.03
12.31
6.26
-0.2
-5.92
-10.07
-12.45
-13.55
-14.37
-15.95
-18.85
-22.96
-27.54
-31.54
-34.14
-35.11
-34.83
-34.18
-34.22
-35.9
-39.82
-46.04
-53.76
-61.23
-65.84
-64.89
-56.57
-40.82
-19.75
3.06
23.72
39.45
49.22
53.76
54.67
53.53
51.33
48.41
44.84
40.74
36.47
32.48
29.11
26.5
24.56
23.18
22.26
21.8
21.83
22.25
22.85
23.23
