18.6
13.64
8.66
4.22
0.55
-2.47
-5.22
-8.12
-11.34
-14.72
-17.85
-20.31
-21.89
-22.77
-23.46
-24.53
-26.32
-28.72
-31.27
-33.33
-34.5
-34.8
-34.74
-35.11
-36.78
-40.41
-46.19
-53.54
-60.88
-65.82
-65.69
-58.48
-43.86
-23.58
-1.04
19.84
35.94
45.93
50.35
50.88
49.4
47.15
44.59
41.67
38.28
34.56
30.96
27.97
25.97
25.0
24.82
24.97
25.05
24.82
24.28
23.65
23.11
22.67
22.04
20.7
18.08
13.88
8.26
1.92
-4.11
-8.84
-11.65
-12.66
-12.61
-12.59
-13.55
-15.96
-19.55
-23.56
-27.09
-29.51
-30.72
-31.12
-31.42
-32.41
-34.79
-39.03
-45.26
-52.95
-60.64
-66.0
-66.4
-59.85
-45.95
-26.4
-4.51
15.94
32.03
42.58
48.1
50.13
50.23
49.38
47.79
45.38
42.14
38.37
34.59
31.25
28.54
26.33
24.42
22.65
21.1
19.98
19.52
19.75
20.45
21.11
21.09
19.85
17.04
12.71
7.35
1.8
-3.03
-6.48
-8.43
-9.4
-10.31
-12.07
-15.13
-19.28
-23.73
-27.55
-30.07
-31.21
-31.47
-31.7
-32.79
-35.52
-40.29
-46.99
-54.7
-61.66
-65.46
-63.75
-55.11
-39.82
-20.01
0.99
19.78
34.02
42.93
47.21
48.25
47.46
45.68
43.24
40.15
36.51
32.58
28.78
25.54
23.1
21.5
20.6
20.18
20.08
20.25
20.71
21.38
21.98
21.98
20.78
17.9
13.35
7.65
1.71
-3.5
-7.4
-10.0
-11.88
-13.84
-16.48
-19.89
-23.62
-26.91
-29.11
-29.99
-29.91
-29.63
-30.14
-32.3
-36.67
-43.18
-50.9
-57.91
-61.65
-59.61
-50.38
-34.36
-13.88
7.5
26.27
40.08
48.31
51.81
52.05
50.3
47.24
43.04
37.81
31.91
26.06
21.09
17.65
16.0
15.95
17.02
18.61
20.17
21.29
21.67
21.08
19.36
16.44
12.42
7.62
2.52
-2.35
-6.63
-10.27
-13.52
-16.74
-20.15
-23.74
-27.13
-29.86
-31.62
-32.49
-32.97
-33.83
-35.93
-39.93
-46.03
-53.71
-61.51
-67.16
-68.1
-62.32
-49.34
-30.59
-9.12
11.43
28.1
39.5
45.9
48.68
49.35
48.91
47.65
45.47
42.31
38.5
34.64
31.4
29.17
27.99
27.49
27.15
26.57
25.59
24.33
23.08
22.08
21.34
20.51
19.01
16.27
11.97
6.31
0.01
-5.9
-10.41
-13.04
-14.02
-14.25
-14.88
-16.83
-20.36
-25.0
-29.81
-33.85
-36.57
-38.06
-38.9
-39.97
-42.15
-46.11
-52.18
-60.01
-68.39
-75.16
-77.6
-73.3
-61.21
-42.29
-19.36
3.75
23.51
37.87
46.54
50.67
51.97
51.91
51.33
50.48
49.36
47.94
46.27
44.49
42.67
40.9
39.23
37.67
36.29
35.19
34.43
33.96
33.53
32.71
31.06
28.23
24.22
19.35
14.13
9.06
4.43
0.3
-3.46
-7.02
-10.4
-13.51
-16.19
-18.36
-20.08
-21.63
-23.34
-25.55
-28.3
-31.43
-34.52
-37.09
-38.85
-39.81
-40.33
-41.05
-42.78
-46.26
-51.84
-59.01
-66.14
-70.59
-69.51
-60.91
-44.73
-23.12
0.2
21.28
37.35
47.48
52.46
53.94
53.51
52.1
49.99
47.21
43.83
40.17
36.7
33.84
31.82
30.59
29.89
29.44
29.06
28.76
28.66
28.81
29.03
28.77
27.28
23.87
18.36
11.26
3.61
-3.34
-8.64
-12.05
-14.05
-15.6
-17.61
-20.57
-24.31
-28.2
-31.42
-33.4
-34.09
-33.99
-33.97
-35.04
-38.1
-43.65
-51.42
-60.15
-67.53
-70.67
-67.01
-55.4
-36.7
-13.79
9.41
29.26
43.5
51.8
55.33
55.91
55.1
53.7
51.77
49.01
45.18
40.47
35.38
30.64
26.94
24.64
23.72
23.77
24.22
24.6
24.62
24.29
23.71
22.9
21.72
19.84
16.96
12.94
7.95
2.43
-3.1
-8.14
-12.36
-15.66
-18.17
-20.11
-21.8
-23.57
-25.67
-28.2
-31.02
-33.83
-36.23
-37.94
-38.92
-39.46
-40.15
-41.78
-45.13
-50.67
-58.1
-66.07
-72.2
-73.59
-67.86
-54.21
-33.93
-10.19
13.04
32.34
45.88
53.63
56.91
57.43
56.61
55.14
53.19
50.69
47.65
44.21
40.64
37.15
33.92
31.01
28.45
26.35
24.81
23.96
23.82
24.15
24.52
24.37
23.2
20.75
17.04
12.36
7.07
1.6
-3.62
-8.19
-11.81
-14.4
-16.17
-17.64
-19.41
-21.93
-25.21
-28.79
-31.97
-34.09
-34.88
-34.6
-33.91
-33.59
-34.28
-36.44
-40.28
-45.76
-52.31
-58.59
-62.46
-61.45
-53.72
-39.0
-19.0
2.95
23.15
38.8
48.87
53.9
55.39
54.8
52.97
50.19
46.51
42.11
37.43
33.01
29.23
26.26
23.95
22.05
20.34
18.63
16.93
15.34
13.97
12.81
11.62
9.98
7.45
3.81
-0.67
-5.4
-9.63
-12.93
-15.36
-17.47
-19.97
-23.28
-27.31
-31.46
-34.93
-37.18
-38.14
-38.31
-38.52
-39.74
-42.77
-47.85
-54.42
-60.91
-64.92
-63.9
-56.03
-41.15
-21.02
1.19
21.91
38.43
49.51
55.5
57.65
57.43
55.89
53.57
50.61
47.13
43.38
39.77
36.8
34.77
33.69
33.14
32.48
31.04
28.47
24.87
20.7
16.54
12.69
9.09
5.34
1.01
-4.09
-9.66
-15.0
-19.27
-21.86
-22.71
-22.41
-21.96
-22.4
-24.33
-27.63
-31.55
-35.07
-37.34
-38.14
-37.98
-37.82
-38.74
-41.54
-46.56
-53.68
-62.28
-71.13
-78.29
-81.38
-78.1
-67.18
-49.04
-26.02
-1.71
20.2
37.19
48.52
55.03
58.39
60.09
60.9
60.8
59.43
56.61
52.55
47.91
43.49
39.93
37.46
35.89
34.76
33.69
32.48
31.25
30.24
29.58
29.12
28.33
26.53
23.14
17.96
11.31
3.89
-3.34
-9.53
-14.15
-17.13
-18.87
-20.02
-21.29
-23.13
-25.57
-28.21
-30.48
-31.9
-32.4
-32.38
-32.58
-33.81
-36.71
-41.63
-48.52
-56.84
-65.31
-71.84
-73.92
-69.37
-57.24
-38.49
-15.85
7.05
26.87
41.65
51.08
56.05
57.86
57.53
55.5
51.89
46.94
41.2
35.57
30.99
28.13
27.12
27.6
28.92
30.31
31.2
31.27
30.42
28.7
26.15
22.84
18.84
14.27
9.32
4.19
-1.0
-6.25
-11.65
-17.24
-22.9
-28.28
-32.85
-36.09
-37.73
-37.93
-37.26
-36.63
-37.06
-39.43
-44.19
-51.06
-58.76
-65.07
-67.32
-63.23
-51.93
-34.43
-13.47
7.43
25.24
38.3
46.63
51.33
53.74
54.81
54.76
53.39
50.57
46.47
41.67
36.91
32.83
29.75
27.62
26.23
25.3
24.67
24.28
24.05
23.7
22.76
20.69
17.1
11.98
5.79
-0.66
-6.49
-11.03
-14.04
-15.84
-17.12
-18.67
-21.07
-24.49
-28.58
-32.74
-36.34
-39.12
-41.25
-43.31
-46.09
-50.31
-56.43
-64.29
-72.8
-79.92
-82.92
-79.25
-67.55
-48.44
-24.65
-0.13
21.27
37.11
46.91
51.85
53.81
54.37
54.31
53.64
52.08
49.52
46.18
42.6
39.32
36.8
35.16
34.31
33.96
33.72
33.19
32.06
30.12
27.29
23.68
19.48
14.9
10.1
5.17
0.06
-5.32
-11.02
-16.89
-22.61
-27.75
-31.91
-34.9
-36.89
-38.38
-40.07
-42.66
-46.71
-52.42
-59.37
-66.38
-71.49
-72.39
-67.17
-55.12
-37.23
-16.08
5.05
23.18
36.61
45.19
49.91
52.19
53.22
53.56
53.22
52.02
49.84
46.75
43.05
39.1
35.32
32.05
29.52
27.85
27.0
26.71
26.64
26.32
25.29
23.21
19.93
15.49
10.15
4.29
-1.71
-7.62
-13.33
-18.82
-24.04
-28.77
-32.68
-35.42
-36.89
-37.39
-37.68
-38.83
-41.95
-47.75
-56.18
-66.03
-74.95
-79.91
-78.07
-67.86
-49.79
-26.48
-1.79
20.38
37.43
48.63
54.83
57.63
58.49
58.17
56.75
54.05
50.01
44.9
39.28
33.85
29.17
25.68
23.53
22.68
22.84
23.57
24.32
24.56
23.88
22.03
18.99
14.96
10.18
4.94
-0.57
-6.2
-11.83
-17.24
-22.12
-26.11
-28.93
-30.48
-31.01
-30.98
-31.1
-32.13
-34.74
-39.43
-46.19
-54.28
-61.99
-66.82
-66.15
-58.18
-42.84
-21.96
1.14
22.84
40.3
52.26
58.92
61.36
60.78
58.02
53.51
47.63
40.97
34.43
28.99
25.36
23.7
23.56
24.12
24.47
24.03
22.67
20.67
18.47
16.35
14.24
11.74
8.35
3.82
-1.66
-7.37
-12.36
-15.84
-17.54
-17.91
-17.96
-18.88
-21.51
-26.05
-31.87
-37.82
-42.64
-45.45
-46.11
-45.2
-43.84
-43.31
-44.72
-48.68
-55.05
-62.66
-69.34
-72.25
-68.74
-57.39
-38.75
-15.39
8.87
30.27
46.29
56.21
60.84
61.79
60.58
58.18
54.97
51.04
46.51
41.69
37.09
33.17
30.32
28.69
28.17
28.44
29.1
29.69
29.83
29.21
27.58
24.84
20.99
16.2
10.78
5.12
-0.38
-5.35
-9.48
-12.56
-14.49
-15.43
-15.81
-16.31
-17.65
-20.32
-24.29
-29.01
-33.53
-36.92
-38.64
-38.81
-38.11
-37.51
-37.93
-39.99
-43.97
-49.59
-55.98
-61.5
-63.95
-61.15
-51.72
-35.9
-15.72
5.58
24.61
39.08
48.3
53.01
54.68
54.6
53.4
51.18
47.84
43.53
38.78
34.32
30.77
28.38
26.97
26.07
25.18
24.03
22.69
21.46
20.66
20.34
20.14
19.41
17.43
13.75
8.45
2.17
-4.13
-9.57
-13.65
-16.49
-18.69
-20.98
-23.8
-27.04
-30.1
-32.14
-32.59
-31.46
-29.41
-27.58
-27.23
-29.35
-34.34
-41.84
-50.52
-58.2
-62.19
-60.01
-50.29
-33.43
-11.77
11.11
31.51
46.75
55.94
59.74
59.76
57.6
54.24
49.95
44.68
38.51
31.9
25.64
20.53
17.06
15.2
14.51
14.41
14.4
14.31
14.17
14.14
14.16
13.97
13.11
11.13
7.8
3.23
-2.1
-7.45
-12.1
-15.5
-17.51
-18.4
-18.86
-19.66
-21.44
-24.43
-28.26
-32.23
-35.48
-37.42
-37.99
-37.65
-37.19
-37.5
-39.27
-42.94
-48.48
-55.22
-61.62
-65.4
-64.0
-55.61
-40.04
-19.15
3.58
24.29
40.02
49.7
54.1
55.09
54.54
53.57
52.31
50.39
47.42
43.43
38.89
34.5
30.89
28.37
26.92
26.27
26.11
26.17
26.22
25.99
25.21
23.56
20.86
17.2
12.94
8.66
4.82
1.66
-0.92
-3.22
-5.52
-7.92
-10.25
-12.21
-13.61
-14.48
-15.19
-16.31
-18.38
-21.65
-25.89
-30.48
-34.56
-37.44
-38.85
-39.1
-38.92
-39.29
-41.11
-44.98
-50.87
-57.93
-64.34
-67.61
-65.24
-55.73
-39.36
-18.38
3.63
22.97
37.14
45.48
49.0
49.51
48.67
47.3
45.51
43.01
39.68
35.78
31.9
28.68
26.47
25.31
24.87
24.8
24.83
24.95
25.27
25.82
26.34
26.25
24.81
21.46
16.14
9.49
2.64
-3.23
-7.31
-9.56
-10.61
-11.45
-12.92
-15.36
-18.51
-21.77
-24.51
-26.47
-27.83
-29.1
-30.93
-33.84
-38.17
-44.01
-51.05
-58.33
-64.1
-66.11
-62.21
-51.27
-33.9
-12.56
9.22
27.99
41.57
49.49
52.77
53.06
51.74
49.5
46.39
42.26
37.21
31.76
26.73
22.87
20.55
19.67
19.69
19.96
20.01
19.7
19.25
18.93
18.87
18.84
18.22
16.33
12.65
7.18
0.5
-6.38
-12.33
-16.52
-18.74
-19.48
-19.72
-20.45
-22.32
-25.31
-28.82
-31.99
-34.13
-35.11
-35.32
-35.55
-36.68
-39.48
-44.39
-51.37
-59.66
-67.56
-72.65
-72.25
-64.5
-49.22
-28.25
-5.09
16.41
33.28
44.34
50.15
52.39
52.84
52.7
52.36
51.66
50.25
47.89
44.62
40.72
36.67
32.93
29.92
27.83
26.58
25.97
25.71
25.63
25.57
25.46
25.08
24.14
22.29
19.22
14.91
9.54
3.56
-2.47
-7.94
-12.38
-15.48
-17.24
-17.98
-18.27
-18.79
-20.04
-22.19
-24.99
-27.96
-30.61
-32.69
-34.27
-35.71
-37.46
-39.99
-43.7
-48.83
-55.09
-61.45
-65.98
-66.29
-60.33
-47.37
-28.56
-6.76
14.41
31.81
43.67
49.98
51.91
51.16
49.15
46.79
44.44
42.14
39.85
37.49
35.02
32.33
29.43
26.39
23.49
21.12
19.71
19.49
20.38
21.86
23.15
23.36
21.88
18.55
13.69
7.97
2.12
-3.31
-8.08
-12.31
-16.28
-20.25
-24.22
-27.93
-30.97
-32.99
-33.98
-34.34
-34.83
-36.38
-39.8
-45.44
-52.86
-60.57
-66.2
-67.02
-60.92
-47.3
-27.58
-4.92
16.89
34.63
46.69
53.19
55.48
55.14
53.36
50.62
47.03
42.69
38.0
33.62
30.17
28.04
27.19
27.23
27.58
27.74
27.42
26.56
25.3
23.86
22.27
20.35
17.71
13.9
8.68
2.21
-4.87
-11.6
-17.01
-20.52
-22.19
-22.68
-22.99
-24.05
-26.35
-29.75
-33.57
-36.97
-39.25
-40.19
-40.12
-39.73
-39.94
-41.61
-45.41
-51.55
-59.55
-67.96
-74.4
-76.05
-70.61
-57.24
-37.23
-13.66
9.55
28.97
42.71
50.73
54.26
55.06
54.58
53.67
52.59
51.31
49.75
47.87
45.75
43.51
41.33
39.32
37.52
35.86
34.19
32.36
30.33
28.15
25.89
23.58
21.17
18.51
15.46
11.88
7.77
3.24
-1.48
-6.08
-10.25
-13.75
-16.53
-18.75
-20.75
-22.93
-25.51
-28.39
-31.21
-33.47
-34.82
-35.27
-35.17
-35.12
-35.74
-37.53
-40.82
-45.78
-52.28
-59.58
-66.08
-69.41
-67.08
-57.51
-40.84
-19.26
3.67
24.27
39.91
49.74
54.46
55.62
54.67
52.48
49.38
45.45
40.97
36.48
32.64
29.92
28.4
27.74
27.36
26.78
25.78
24.54
23.38
22.54
21.9
20.93
18.92
15.32
10.14
3.97
-2.16
-7.22
-10.62
-12.45
-13.44
-14.57
-16.66
-19.97
-24.15
-28.36
-31.68
-33.54
-33.95
-33.55
-33.39
-34.66
-38.23
-44.41
-52.54
-60.93
-67.07
-68.25
-62.44
-49.21
-30.08
-8.1
13.09
30.5
42.63
49.63
52.8
53.73
53.63
52.96
51.59
49.21
45.64
41.07
36.1
31.44
27.79
25.54
24.69
24.88
25.62
26.39
26.81
26.63
25.68
23.84
21.06
17.33
12.81
7.8
2.69
-2.13
-6.37
-9.86
-12.59
-14.66
-16.25
-17.58
-18.96
-20.65
-22.9
-25.76
-29.06
-32.4
-35.3
-37.36
-38.41
-38.65
-38.58
-38.96
-40.6
-44.22
-50.11
-57.74
-65.47
-70.71
-70.59
-63.05
-47.83
-26.78
-3.38
18.48
35.86
47.59
54.17
57.11
57.91
57.49
56.05
53.48
49.77
45.21
40.45
36.1
32.65
30.22
28.71
27.86
27.46
27.37
27.47
27.6
27.4
26.42
24.26
20.71
15.96
10.54
5.13
0.35
-3.48
-6.33
-8.41
-10.0
-11.28
-12.37
-13.33
-14.34
-15.68
-17.7
-20.57
-24.15
-27.96
-31.28
-33.41
-34.02
-33.22
-31.64
-30.25
-30.15
-32.3
-37.27
-44.83
-53.64
-61.24
-64.54
-60.86
-49.01
-30.0
-6.91
16.18
35.64
49.39
57.27
60.55
60.88
59.51
57.02
53.57
49.36
44.79
40.43
36.68
33.51
30.51
27.11
23.01
18.34
13.7
9.84
7.29
6.04
5.49
4.69
2.77
-0.66
-5.3
-10.29
-14.58
-17.38
-18.48
-18.31
-17.86
-18.22
-20.17
-23.9
-28.88
-34.05
-38.24
-40.62
-41.03
-40.02
-38.62
-37.96
-39.0
-42.23
-47.55
-54.06
-59.99
-62.93
-60.46
-51.12
-35.16
-14.74
6.66
25.48
39.3
47.44
50.9
51.41
50.63
49.44
48.03
46.17
43.67
40.65
37.42
34.4
31.85
29.9
28.52
27.63
27.13
26.88
26.68
26.25
25.29
23.56
20.97
17.67
13.92
10.12
6.56
3.47
0.86
-1.38
-3.49
-5.7
-8.19
-11.02
-14.12
-17.3
-20.38
-23.26
-25.84
-28.16
-30.22
-31.99
-33.41
-34.45
-35.14
-35.68
-36.49
-38.21
-41.6
-47.23
-55.03
-63.81
-71.21
-74.15
-69.95
-57.37
-37.45
-13.27
11.01
31.54
46.03
54.13
57.01
56.58
54.51
51.89
49.11
46.28
43.41
40.62
38.1
36.03
34.51
33.49
32.87
32.5
32.22
31.85
31.2
30.0
28.01
25.03
21.07
16.42
11.55
7.0
3.18
0.21
-2.09
-4.1
-6.15
-8.43
-10.85
-13.17
-15.16
-16.78
-18.22
-19.78
-21.69
-24.0
-26.45
-28.68
-30.33
-31.33
-31.83
-32.33
-33.4
-35.66
-39.59
-45.33
-52.35
-59.23
-63.69
-63.15
-55.62
-40.74
-20.19
2.63
23.73
39.88
49.61
53.39
52.99
50.41
47.1
43.68
40.17
36.55
33.01
30.05
28.11
27.32
27.34
27.48
27.09
25.83
23.89
21.79
20.14
19.23
18.86
18.4
17.04
14.17
9.66
3.91
-2.25
-7.86
-12.22
-15.12
-16.97
-18.53
-20.56
-23.43
-26.87
-30.14
-32.44
-33.31
-32.96
-32.17
-32.02
-33.45
-37.03
-42.94
-50.82
-59.65
-67.62
-72.2
-70.81
-61.69
-44.85
-22.4
1.95
24.15
41.12
51.57
56.04
56.21
53.99
50.83
47.46
44.13
40.86
37.79
35.13
33.16
32.04
31.75
32.02
32.43
32.56
32.12
31.01
29.31
27.11
24.42
21.17
17.32
12.98
8.43
4.05
0.17
-3.11
-5.94
-8.63
-11.46
-14.51
-17.61
-20.39
-22.49
-23.73
-24.29
-24.52
-24.91
-25.73
-26.95
-28.33
-29.55
-30.44
-31.16
-32.15
-34.04
-37.5
-43.03
-50.65
-59.6
-68.09
-73.47
-72.97
-64.76
-48.84
-27.35
-3.99
17.32
33.73
44.25
49.65
51.65
51.92
51.53
50.8
49.66
48.04
46.05
43.91
41.85
39.93
38.1
36.29
34.44
32.65
31.1
29.99
29.45
29.43
29.62
29.58
28.81
26.94
23.91
19.96
15.5
10.95
6.55
2.37
-1.68
-5.63
-9.38
-12.65
-15.05
-16.27
-16.22
-15.23
-13.94
-13.19
-13.76
-16.04
-19.89
-24.72
-29.64
-33.84
-36.83
-38.58
-39.49
-40.26
-41.74
-44.63
-49.14
-54.62
-59.36
-60.86
-56.64
-45.35
-27.5
-5.58
16.69
35.78
49.48
57.46
60.92
61.66
61.07
59.78
57.64
54.29
49.64
44.12
38.59
33.94
30.72
28.88
27.88
26.98
25.67
23.94
22.18
20.88
