15.48
13.27
10.3
6.79
3.0
-0.75
-4.26
-7.44
-10.27
-12.73
-14.75
-16.26
-17.24
-17.82
-18.3
-19.07
-20.42
-22.39
-24.74
-26.99
-28.69
-29.6
-29.88
-29.99
-30.61
-32.44
-36.07
-41.67
-48.69
-55.65
-60.24
-59.87
-52.68
-38.51
-19.15
2.0
21.24
35.8
44.71
48.67
49.36
48.4
46.77
44.77
42.3
39.34
36.15
33.14
30.71
29.02
27.97
27.3
26.72
26.09
25.46
24.99
24.85
24.98
25.02
24.37
22.42
18.91
14.1
8.7
3.68
-0.22
-2.75
-4.23
-5.37
-6.86
-9.03
-11.71
-14.29
-16.1
-16.8
-16.49
-15.78
-15.5
-16.32
-18.48
-21.7
-25.3
-28.56
-30.95
-32.36
-33.07
-33.65
-34.75
-37.07
-41.09
-46.84
-53.53
-59.39
-61.96
-58.83
-48.71
-32.14
-11.58
9.36
27.23
39.83
46.78
49.17
48.72
46.99
44.83
42.49
39.91
37.06
34.08
31.3
29.03
27.49
26.67
26.4
26.39
26.36
26.08
25.47
24.52
23.22
21.53
19.36
16.68
13.58
10.24
6.88
3.61
0.49
-2.53
-5.38
-7.97
-10.12
-11.73
-12.89
-13.88
-15.1
-16.88
-19.25
-21.99
-24.68
-26.86
-28.26
-28.88
-29.02
-29.21
-30.17
-32.6
-37.02
-43.38
-50.74
-57.19
-60.2
-57.47
-47.85
-31.99
-12.33
7.69
24.86
37.18
44.26
47.04
46.95
45.18
42.34
38.54
33.86
28.65
23.59
19.5
17.05
16.43
17.34
19.1
20.93
22.25
22.83
22.81
22.44
21.88
20.98
19.31
16.34
11.75
5.73
-0.98
-7.34
-12.35
-15.5
-17.0
-17.67
-18.57
-20.51
-23.68
-27.58
-31.29
-33.95
-35.13
-35.1
-34.6
-34.6
-36.01
-39.41
-45.06
-52.58
-60.91
-68.11
-71.69
-69.31
-59.71
-43.4
-22.68
-0.94
18.49
33.45
43.32
48.8
51.11
51.4
50.33
48.23
45.34
42.04
38.81
36.11
34.14
32.79
31.79
30.8
29.66
28.46
27.52
27.12
27.32
27.83
28.06
27.33
25.18
21.61
17.1
12.37
8.11
4.65
1.93
-0.43
-2.83
-5.53
-8.48
-11.4
-13.96
-16.02
-17.7
-19.44
-21.73
-24.91
-28.95
-33.39
-37.62
-41.06
-43.46
-45.06
-46.4
-48.25
-51.35
-56.32
-63.31
-71.75
-80.05
-85.71
-85.97
-78.77
-63.73
-42.52
-18.41
4.89
24.44
38.9
48.52
54.5
58.16
60.36
61.42
61.37
60.3
58.47
56.31
54.22
52.4
50.83
49.35
47.79
46.11
44.42
42.89
41.64
40.56
39.32
37.52
34.85
31.29
27.08
22.6
18.19
14.0
10.02
6.17
2.43
-1.09
-4.23
-6.91
-9.15
-11.22
-13.46
-16.16
-19.42
-23.04
-26.59
-29.57
-31.68
-32.94
-33.79
-34.95
-37.25
-41.38
-47.62
-55.51
-63.67
-69.9
-71.64
-66.89
-55.06
-37.38
-16.66
3.76
21.07
33.85
42.14
46.89
49.19
49.77
48.87
46.57
43.17
39.21
35.39
32.25
30.02
28.6
27.67
26.97
26.36
25.87
25.61
25.67
25.88
25.86
25.02
22.83
19.02
13.74
7.59
1.44
-3.87
-7.82
-10.46
-12.29
-14.15
-16.76
-20.42
-24.9
-29.5
-33.41
-36.07
-37.45
-38.05
-38.76
-40.56
-44.28
-50.3
-58.28
-66.98
-74.31
-77.72
-74.95
-64.93
-48.3
-27.36
-5.34
14.66
30.62
41.98
49.31
53.65
55.97
56.75
56.13
54.16
51.05
47.24
43.34
39.88
37.26
35.55
34.6
34.12
33.81
33.46
32.94
32.19
31.12
29.6
27.42
24.38
20.33
15.3
9.55
3.54
-2.17
-7.04
-10.77
-13.35
-15.1
-16.59
-18.41
-20.98
-24.42
-28.47
-32.62
-36.34
-39.22
-41.18
-42.48
-43.63
-45.25
-48.01
-52.46
-58.83
-66.65
-74.51
-80.16
-80.96
-74.92
-61.47
-41.95
-19.17
3.5
23.24
38.49
49.08
55.68
59.27
60.62
60.23
58.47
55.72
52.47
49.25
46.42
44.2
42.52
41.22
40.05
38.84
37.54
36.2
34.9
33.66
32.33
30.58
28.05
24.48
19.83
14.39
8.63
3.13
-1.64
-5.4
-8.16
-10.18
-11.87
-13.7
-16.04
-19.07
-22.68
-26.54
-30.2
-33.24
-35.48
-37.04
-38.36
-40.08
-42.93
-47.54
-54.28
-62.82
-71.97
-79.59
-83.06
-80.07
-69.54
-52.15
-30.27
-7.15
14.07
31.32
43.84
51.98
56.63
58.64
58.62
56.9
53.81
49.77
45.4
41.35
38.13
36.01
34.87
34.36
34.06
33.69
33.21
32.68
32.09
31.13
29.25
25.88
20.75
14.11
6.77
-0.27
-6.2
-10.71
-14.04
-16.85
-19.82
-23.36
-27.45
-31.68
-35.5
-38.49
-40.59
-42.23
-44.16
-47.31
-52.4
-59.6
-68.28
-76.85
-83.0
-84.32
-79.01
-66.53
-47.98
-25.83
-3.15
17.27
33.62
45.33
52.88
57.23
59.35
59.94
59.38
57.89
55.7
53.08
50.44
48.1
46.22
44.74
43.38
41.84
39.9
37.6
35.19
32.99
31.21
29.8
28.45
26.68
24.05
20.34
15.63
10.3
4.88
-0.15
-4.49
-8.15
-11.44
-14.82
-18.7
-23.25
-28.31
-33.4
-37.93
-41.38
-43.59
-44.79
-45.61
-46.88
-49.49
-54.13
-61.09
-69.86
-79.06
-86.4
-89.23
-85.3
-73.65
-55.07
-32.01
-7.77
14.49
32.6
45.73
54.2
58.96
61.07
61.3
60.21
58.11
55.33
52.2
49.01
46.07
43.5
41.29
39.34
37.57
35.97
34.66
33.75
33.18
32.68
31.71
29.67
26.1
20.81
14.14
6.8
-0.23
-6.01
-9.92
-11.91
-12.57
-12.91
-13.97
-16.46
-20.43
-25.28
-30.11
-34.08
-36.77
-38.35
-39.46
-40.94
-43.62
-48.14
-54.72
-62.95
-71.54
-78.38
-80.92
-76.99
-65.65
-47.76
-25.82
-3.13
17.26
33.52
45.28
53.21
58.38
61.54
62.95
62.49
60.15
56.25
51.54
46.9
43.09
40.39
38.6
37.23
35.77
34.02
32.05
30.17
28.59
27.21
25.61
23.2
19.5
14.41
8.29
1.8
-4.31
-9.5
-13.63
-16.92
-19.87
-23.03
-26.73
-30.93
-35.25
-39.13
-42.02
-43.67
-44.28
-44.52
-45.36
-47.85
-52.82
-60.47
-70.12
-80.0
-87.52
-89.85
-84.81
-71.72
-51.77
-27.75
-3.15
18.93
36.6
49.4
57.92
63.23
66.22
67.44
67.04
65.13
61.95
57.92
53.62
49.64
46.46
44.26
42.92
42.15
41.53
40.72
39.52
37.87
35.76
33.17
30.0
26.15
21.55
16.28
10.51
4.53
-1.34
-6.8
-11.57
-15.41
-18.2
-20.01
-21.11
-22.0
-23.26
-25.33
-28.34
-32.08
-36.07
-39.78
-42.84
-45.12
-46.8
-48.34
-50.47
-53.95
-59.34
-66.47
-74.07
-79.87
-81.08
-75.48
-62.34
-42.91
-20.05
2.69
22.34
37.26
47.29
53.36
56.71
58.34
58.81
58.37
57.12
55.19
52.79
50.06
47.1
43.96
40.67
37.4
34.43
32.01
30.35
29.42
28.96
28.58
27.79
26.14
23.25
18.94
13.32
6.83
0.24
-5.64
-10.21
-13.37
-15.52
-17.39
-19.68
-22.74
-26.37
-30.01
-33.03
-34.98
-35.87
-36.1
-36.34
-37.34
-39.86
-44.43
-51.16
-59.42
-67.64
-73.42
-74.16
-67.94
-54.4
-35.01
-12.71
9.16
27.87
42.01
51.56
57.28
60.11
60.65
59.14
55.68
50.53
44.28
37.81
32.01
27.57
24.77
23.44
23.09
23.21
23.39
23.47
23.45
23.27
22.7
21.25
18.38
13.79
7.63
0.57
-6.34
-12.08
-16.03
-18.23
-19.28
-20.13
-21.65
-24.29
-28.01
-32.28
-36.44
-39.94
-42.56
-44.51
-46.32
-48.71
-52.48
-58.19
-65.87
-74.59
-82.41
-86.63
-84.61
-74.79
-57.41
-34.69
-10.11
12.78
31.37
44.62
52.96
57.64
60.01
60.97
60.96
60.05
58.26
55.74
52.78
49.74
46.91
44.41
42.22
40.2
38.29
36.5
34.91
33.59
32.41
31.11
29.28
26.57
22.77
17.9
12.16
5.89
-0.48
-6.48
-11.69
-15.83
-18.87
-21.11
-23.06
-25.27
-28.11
-31.58
-35.29
-38.7
-41.27
-42.85
-43.72
-44.51
-46.03
-49.04
-54.02
-60.98
-69.2
-77.15
-82.65
-83.31
-77.35
-64.29
-45.32
-22.93
-0.23
20.08
36.35
48.13
55.84
60.29
62.26
62.33
60.97
58.63
55.76
52.84
50.21
48.05
46.29
44.69
42.98
40.96
38.67
36.28
34.08
32.21
30.6
28.89
26.61
23.3
18.73
12.98
6.47
-0.12
-6.01
-10.52
-13.39
-14.83
-15.56
-16.54
-18.6
-22.08
-26.67
-31.54
-35.71
-38.44
-39.6
-39.68
-39.66
-40.65
-43.52
-48.66
-55.75
-63.68
-70.59
-74.21
-72.45
-64.07
-49.27
-29.73
-8.16
12.53
30.05
43.27
52.16
57.39
59.8
60.09
58.65
55.74
51.68
46.96
42.21
38.07
34.93
32.86
31.61
30.76
29.96
29.09
28.25
27.55
26.88
25.86
23.85
20.35
15.23
8.89
2.13
-4.13
-9.19
-12.87
-15.5
-17.77
-20.41
-23.86
-28.11
-32.65
-36.75
-39.69
-41.21
-41.62
-41.74
-42.68
-45.44
-50.69
-58.43
-67.8
-77.05
-83.68
-85.08
-79.3
-65.81
-45.85
-22.19
1.76
22.96
39.53
50.99
57.99
61.61
62.9
62.51
60.76
57.86
54.06
49.79
45.59
42.02
39.43
37.87
37.04
36.52
35.83
34.72
33.08
31.02
28.63
25.96
22.96
19.6
15.84
11.72
7.3
2.7
-1.9
-6.22
-9.94
-12.83
-14.91
-16.53
-18.31
-20.9
-24.67
-29.47
-34.62
-39.23
-42.57
-44.43
-45.17
-45.6
-46.69
-49.25
-53.78
-60.37
-68.4
-76.45
-82.33
-83.51
-77.92
-64.76
-45.06
-21.45
2.63
24.0
40.68
52.15
59.05
62.53
63.7
63.29
61.74
59.3
56.29
53.05
49.91
47.13
44.77
42.77
40.96
39.21
37.48
35.77
34.12
32.44
30.57
28.26
25.34
21.77
17.68
13.29
8.83
4.46
0.26
-3.71
-7.37
-10.64
-13.47
-15.91
-18.15
-20.48
-23.14
-26.18
-29.48
-32.76
-35.74
-38.26
-40.33
-42.11
-43.88
-46.02
-49.04
-53.47
-59.65
-67.28
-75.08
-80.84
-81.9
-76.1
-62.72
-42.95
-19.58
3.86
24.24
39.72
49.97
55.84
58.65
59.59
59.4
58.37
56.57
54.07
51.11
48.02
45.18
42.83
40.97
39.34
37.66
35.73
33.61
31.54
29.79
28.36
26.93
24.99
22.02
17.84
12.7
7.19
2.0
-2.38
-5.92
-9.0
-12.23
-16.12
-20.83
-25.96
-30.82
-34.63
-36.93
-37.77
-37.69
-37.57
-38.35
-40.8
-45.4
-52.19
-60.49
-68.81
-74.92
-76.29
-70.97
-58.33
-39.51
-17.16
5.38
25.19
40.51
50.96
57.24
60.42
61.41
60.66
58.29
54.38
49.24
43.53
38.09
33.67
30.72
29.2
28.75
28.81
28.89
28.67
28.01
26.84
25.12
22.82
19.9
16.35
12.19
7.51
2.47
-2.68
-7.57
-11.84
-15.24
-17.74
-19.59
-21.26
-23.23
-25.77
-28.87
-32.2
-35.34
-37.99
-40.11
-41.98
-44.03
-46.74
-50.51
-55.63
-62.12
-69.47
-76.38
-80.78
-80.23
-72.8
-57.92
-36.96
-12.92
10.52
30.18
44.37
53.05
57.41
59.01
59.12
58.41
57.06
55.06
52.48
49.51
46.44
43.53
40.97
38.76
36.85
35.14
33.53
31.98
30.45
28.9
27.19
25.15
22.62
19.52
15.91
11.94
7.81
3.66
-0.43
-4.41
-8.18
-11.56
-14.38
-16.56
-18.28
-19.94
-22.08
-25.08
-28.98
-33.39
-37.69
-41.21
-43.6
-44.87
-45.46
-46.08
-47.62
-50.85
-56.15
-63.09
-70.18
-75.06
-75.1
-68.35
-54.4
-34.67
-11.98
10.44
29.89
44.87
55.09
61.03
63.51
63.31
61.14
57.65
53.42
48.92
44.47
40.2
36.21
32.53
29.25
26.41
24.12
22.49
21.7
21.84
22.79
24.04
24.76
24.01
21.16
16.17
9.69
2.82
-3.33
-8.1
-11.43
-13.83
-16.07
-18.8
-22.2
-25.98
-29.49
-32.08
-33.4
-33.63
-33.52
-34.15
-36.61
-41.63
-49.2
-58.25
-66.71
-71.86
-71.06
-62.72
-46.95
-25.67
-2.16
20.07
38.27
51.12
58.7
61.95
62.02
59.78
55.7
50.15
43.64
36.94
30.98
26.49
23.82
22.75
22.6
22.61
22.21
21.25
19.98
18.8
17.91
17.15
15.99
13.77
10.03
4.78
-1.43
-7.69
-13.08
-16.93
-19.11
-20.02
-20.42
-21.14
-22.82
-25.69
-29.5
-33.67
-37.51
-40.43
-42.21
-43.02
-43.47
-44.42
-46.85
-51.42
-58.02
-65.53
-71.71
-73.84
-69.63
-58.19
-40.54
-19.31
2.15
20.96
35.46
45.39
51.49
54.88
56.46
56.8
56.19
54.81
52.82
50.38
47.58
44.52
41.33
38.17
35.25
32.78
30.87
29.58
28.85
28.56
28.42
28.03
26.93
24.67
21.03
16.1
10.29
4.25
-1.35
-6.0
-9.56
-12.17
-14.28
-16.36
-18.82
-21.88
-25.49
-29.33
-32.99
-36.02
-38.17
-39.52
-40.44
-41.63
-43.87
-47.91
-54.12
-62.25
-71.17
-78.81
-82.63
-80.29
-70.55
-53.91
-32.52
-9.56
11.81
29.4
42.34
50.89
55.86
58.05
57.99
56.04
52.66
48.5
44.33
40.85
38.42
37.05
36.42
36.06
35.59
34.83
33.78
32.6
31.37
30.01
28.21
25.59
21.92
17.26
12.03
6.85
2.29
-1.38
-4.28
-6.86
-9.7
-13.18
-17.34
-21.86
-26.17
-29.76
-32.4
-34.23
-35.79
-37.84
-41.1
-46.03
-52.47
-59.44
-65.22
-67.66
-64.89
-55.95
-41.3
-22.77
-2.95
15.6
31.11
42.81
50.83
55.71
57.93
57.78
55.42
51.13
45.5
39.36
33.56
28.75
25.18
22.71
21.0
19.7
18.59
17.59
16.7
15.84
14.77
13.22
10.9
7.74
3.95
-0.08
-3.91
-7.27
-10.21
-13.09
-16.38
-20.4
-25.11
-30.01
-34.37
-37.51
-39.15
-39.54
-39.35
-39.53
-41.03
-44.64
-50.7
-58.85
-67.75
-75.16
-78.42
-75.32
-64.93
-48.14
-27.37
-5.8
13.76
29.59
41.31
49.42
54.72
57.8
58.97
58.32
56.11
52.74
48.88
45.15
42.08
39.88
38.52
37.71
37.12
36.48
35.64
34.64
33.5
32.12
30.17
27.14
22.64
16.56
9.32
1.73
-5.25
-10.85
-14.8
-17.38
-19.22
-21.06
-23.4
-26.32
-29.57
-32.69
-35.3
-37.32
-39.0
-40.86
-43.51
-47.52
-53.21
-60.51
-68.73
-76.37
-81.29
-81.19
-74.39
-60.56
-41.05
-18.61
3.55
22.7
37.27
47.08
52.86
55.76
56.76
56.53
55.43
53.73
51.68
49.56
47.55
45.69
43.84
41.8
39.4
36.73
34.1
31.94
30.52
29.74
29.09
27.82
25.28
21.28
16.15
10.55
5.21
0.6
-3.26
-6.74
-10.35
-14.52
-19.4
-24.75
-30.09
-34.74
-38.16
-40.08
-40.68
-40.62
-40.9
-42.67
-46.79
-53.46
-61.83
-70.0
-75.38
-75.4
-68.43
-54.39
-34.88
-12.69
8.99
27.51
41.3
50.1
54.55
55.83
55.0
52.85
49.79
45.97
41.63
37.11
32.96
29.72
27.67
26.77
26.62
26.74
26.72
26.43
25.85
24.98
23.67
21.67
18.67
14.53
9.33
3.37
-2.96
-9.26
-15.18
-20.49
-25.01
-28.63
-31.43
-33.67
-35.74
-38.16
-41.47
-46.18
-52.62
-60.69
-69.6
-77.75
-82.93
-82.88
-76.13
-62.62
-43.8
-22.28
-0.96
17.82
32.82
43.87
51.51
56.49
59.34
60.32
59.53
57.21
53.88
50.26
47.2
45.22
44.38
44.23
44.11
43.48
42.2
40.5
38.74
37.02
35.01
32.11
27.76
21.8
14.66
7.2
0.34
-5.25
-9.41
-12.53
-15.27
-18.32
-22.07
-26.55
-31.39
-36.11
-40.2
-43.44
-45.94
-48.12
-50.65
-54.27
-59.63
-66.92
-75.59
-84.11
-90.16
-91.15
-85.12
-71.53
-51.64
-28.21
-4.51
16.61
33.51
45.87
54.26
59.64
62.73
64.01
63.73
62.14
59.64
56.7
53.79
51.26
49.27
47.78
46.59
45.39
43.91
42.02
39.73
37.19
34.54
31.83
28.96
25.73
21.94
17.52
12.59
7.44
2.48
-1.94
-5.62
-8.64
-11.31
-14.11
-17.53
-21.82
-26.91
-32.35
-37.46
-41.62
-44.53
-46.34
-47.68
-49.42
-52.45
-57.36
-64.15
-72.01
-79.21
-83.46
-82.46
-74.66
-59.96
-39.87
-17.08
5.27
24.63
39.59
50.0
56.55
60.15
61.5
60.96
58.68
54.9
50.14
45.16
40.75
37.44
35.37
34.28
33.82
33.69
33.79
34.1
34.48
34.51
33.52
30.84
26.13
19.59
11.97
4.37
-2.19
-7.1
-10.39
-12.67
-14.86
-17.84
-22.03
-27.3
-32.99
-38.23
-42.35
-45.12
-46.92
-48.59
-51.18
-55.63
-62.28
-70.62
-79.13
-85.46
-87.09
-82.13
-70.02
-51.89
-30.22
-8.04
12.05
28.48
40.89
49.8
56.03
60.26
62.83
63.84
63.34
61.48
58.64
55.29
51.98
49.1
46.86
45.3
44.26
43.55
42.98
42.35
41.47
40.07
37.89
34.65
30.18
24.52
17.92
10.85
3.89
-2.36
-7.44
-11.16
-13.59
-15.11
-16.21
-17.45
-19.35
-22.23
-26.16
-30.88
-35.88
-40.55
-44.29
-46.88
-48.46
-49.61
-51.24
-54.3
-59.47
-66.67
-74.85
-81.96
-85.4
-82.84
-73.08
-56.6
-35.53
-12.97
8.01
25.27
38.03
46.68
52.32
56.01
58.48
59.93
60.26
59.29
57.03
53.78
50.07
46.52
43.6
41.49
40.05
38.93
37.78
36.45
35.0
33.64
32.37
30.91
28.67
25.06
19.73
12.92
5.37
-1.91
-8.03
-12.52
-15.46
-17.34
-18.79
-20.4
-22.45
-24.91
-27.57
-30.13
-32.38
-34.34
-36.2
-38.34
-41.23
-45.29
-50.82
-57.76
-65.41
-72.3
-76.36
-75.41
-67.95
-53.81
-34.4
-12.41
9.09
27.53
41.48
50.74
55.98
58.14
57.99
56.04
52.61
48.16
43.34
38.89
35.4
33.16
31.94
31.25
30.53
29.43
27.95
26.31
24.78
23.44
22.06
20.19
17.34
13.3
8.22
2.7
-2.52
-6.8
-9.97
-12.39
-14.82
-18.04
-22.44
-27.79
-33.36
-38.27
-41.79
-43.81
-44.74
-45.42
-46.9
-50.11
-55.58
-63.07
-71.42
-78.57
-81.97
-79.4
-69.75
-53.53
-32.8
-10.52
10.42
27.92
41.1
50.08
55.59
58.5
59.46
58.87
56.98
54.02
50.34
46.39
42.73
39.78
37.69
36.34
35.39
34.51
33.58
32.67
31.96
31.52
31.06
29.98
27.57
23.29
17.12
9.67
1.93
-4.97
-10.26
-13.7
-15.7
-17.04
-18.58
-20.87
-24.03
-27.68
-31.21
-34.07
-36.04
-37.34
-38.64
-40.79
-44.59
-50.54
-58.59
-67.93
-76.9
-83.23
-84.52
-78.95
-66.02
-46.9
-24.17
-1.01
19.73
36.2
47.87
55.13
58.88
60.0
59.17
56.95
53.82
50.29
46.82
43.78
41.32
39.41
37.83
36.32
34.68
32.87
30.99
29.22
27.65
26.16
24.38
21.8
18.01
12.96
7.04
1.01
-4.22
-8.0
-10.24
-11.39
-12.31
-13.89
-16.66
-20.62
-25.28
-29.94
-33.96
-37.05
-39.28
-41.05
-42.94
-45.6
-49.61
-55.14
-61.64
-67.67
-71.02
-69.43
-61.45
-47.12
-28.18
-7.49
11.94
27.92
39.56
47.09
51.35
53.18
53.12
51.47
48.42
44.31
39.66
35.09
31.13
28.17
26.34
25.54
25.52
25.9
26.29
26.31
25.61
23.95
21.18
17.31
12.52
7.08
1.34
-4.42
-10.02
-15.39
-20.52
-25.33
-29.68
-33.37
-36.2
-38.12
-39.31
-40.18
-41.37
-43.63
-47.7
-54.03
-62.46
-71.91
-80.28
-84.9
-83.3
-74.12
-57.77
-36.42
-13.32
8.32
26.25
39.63
48.75
54.44
57.52
58.5
57.66
55.34
52.04
48.47
45.27
42.81
41.13
39.92
38.82
37.6
36.25
34.95
33.88
33.0
31.98
30.27
27.29
22.74
16.71
9.75
2.69
-3.61
-8.52
-11.88
-14.04
-15.73
-17.79
-20.82
-24.86
-29.42
-33.69
-36.96
-38.97
-40.09
-41.24
-43.57
-48.08
-55.22
-64.56
-74.65
-83.18
-87.44
-85.12
-75.1
-57.98
-36.01
-12.41
9.59
27.68
40.95
49.7
54.94
57.83
59.19
59.49
58.95
57.73
55.99
53.95
51.79
49.63
47.49
45.38
43.26
41.16
39.15
37.29
35.6
33.94
31.99
29.33
25.59
20.66
14.86
8.83
3.34
-1.07
-4.36
-6.94
-9.6
-13.02
-17.49
-22.79
-28.24
-33.05
-36.63
-38.83
-39.99
-40.86
-42.44
-45.66
-51.17
-58.99
-68.24
-77.11
-83.14
-83.83
-77.52
-64.05
-44.94
-22.94
-1.1
18.1
33.35
44.51
52.18
57.05
59.58
59.9
58.07
54.36
49.36
43.96
39.07
35.42
33.35
32.78
33.28
34.24
35.02
35.11
34.18
32.11
28.97
24.94
20.29
15.29
10.15
5.01
-0.08
-5.11
-10.1
-15.03
-19.85
-24.47
-28.84
-32.94
-36.89
-40.94
-45.53
-51.16
-58.24
-66.73
-75.91
-84.16
-89.27
-89.05
-82.12
-68.52
-49.81
-28.57
-7.53
11.17
26.49
38.4
47.48
54.43
59.71
63.43
65.49
65.79
64.42
61.7
58.19
54.53
51.23
48.52
46.32
44.4
42.48
40.47
38.44
36.47
34.47
32.04
28.65
23.79
17.4
9.98
2.48
-4.06
-8.89
-11.93
-13.81
-15.57
-18.21
-22.21
-27.34
-32.8
-37.6
-41.0
-42.86
-43.64
-44.26
-45.79
-49.19
-54.95
-62.89
-71.84
-79.72
-83.89
-81.92
-72.48
-56.01
-34.69
-11.79
9.44
26.71
39.21
47.41
52.49
55.65
57.67
58.83
59.08
58.27
56.38
53.63
50.37
47.08
44.12
41.71
39.85
38.36
37.01
35.59
33.94
31.99
29.7
27.0
23.84
20.14
15.92
11.24
6.28
1.25
-3.58
-7.98
-11.74
-14.79
-17.21
-19.21
-21.17
-23.46
-26.31
-29.65
-33.17
-36.37
-38.86
-40.52
-41.63
-42.76
-44.58
-47.66
-52.38
-58.71
-66.03
-72.93
-77.37
-77.04
-70.22
-56.52
-37.26
-15.14
6.57
25.15
39.12
48.39
53.82
56.52
57.38
56.82
54.98
51.99
48.14
43.92
39.89
36.57
34.25
32.9
32.19
31.62
30.74
29.27
27.27
25.0
22.81
20.91
19.22
17.42
15.09
11.93
7.98
3.57
-0.78
-4.61
-7.74
-10.25
-12.54
-15.07
-18.17
-21.93
-26.11
-30.24
-33.81
-36.44
-38.07
-39.01
-39.88
-41.44
-44.41
-49.3
-56.18
-64.41
-72.51
-78.28
-79.23
-73.47
-60.47
-41.49
-19.31
2.62
21.36
35.28
44.24
49.24
51.69
52.67
52.75
52.06
50.57
48.33
45.56
42.6
39.74
37.18
34.99
33.14
31.6
30.36
29.41
28.71
28.14
27.43
26.23
24.21
21.2
17.21
12.47
7.36
2.22
-2.65
-7.12
-11.1
-14.55
-17.39
-19.58
-21.17
-22.35
-23.46
-24.87
-26.81
-29.29
-32.13
-34.94
-37.35
-39.15
-40.4
-41.52
-43.16
-46.19
-51.19
-58.11
-65.81
-72.12
-74.26
-69.82
-57.8
-39.16
-16.69
5.97
25.5
39.92
48.89
53.37
54.84
54.62
53.43
51.5
48.82
45.48
41.74
38.07
34.9
32.56
31.12
30.46
30.34
30.5
30.7
30.74
30.39
29.37
27.43
24.36
20.18
15.15
9.69
4.28
-0.7
-5.04
-8.72
-11.83
-14.48
-16.76
-18.74
-20.51
-22.24
-24.1
-26.21
-28.54
-30.89
-33.04
-34.78
-36.06
-37.04
-38.03
-39.37
-41.48
-44.76
-49.52
-55.7
-62.58
-68.51
-71.16
-68.21
-58.27
-41.64
-20.42
2.11
22.61
38.73
49.61
55.79
58.54
59.19
58.62
57.25
55.15
52.34
48.96
45.26
41.65
38.5
36.09
34.48
33.48
32.79
32.07
31.12
29.83
28.2
26.23
23.88
21.06
17.74
13.99
9.96
5.84
1.83
-1.92
-5.27
-8.11
-10.36
-12.01
-13.22
-14.29
-15.62
-17.53
-20.1
-23.11
-26.12
-28.65
-30.4
-31.39
-31.92
-32.51
-33.79
-36.37
-40.74
-46.94
-54.25
-60.95
-64.54
-62.49
-53.26
-37.14
-16.45
5.21
24.15
37.86
45.65
48.39
47.73
45.21
41.62
37.21
31.98
26.14
20.23
14.9
10.65
7.64
5.64
4.28
3.26
2.53
2.27
2.76
4.21
6.66
9.83
13.23
16.2
18.11
18.43
16.99
13.91
9.65
4.8
-0.01
-4.31
-7.88
-10.8
-13.37
-16.0
-18.98
-22.29
-25.6
-28.41
-30.24
-30.95
-30.78
-30.32
-30.32
-31.54
-34.58
-39.61
-46.17
-52.89
-57.55
-57.67
-51.35
-38.21
-19.78
0.89
20.32
35.75
45.95
51.22
52.79
51.98
49.61
46.01
41.28
35.71
29.95
24.8
20.97
18.76
17.99
18.12
18.56
18.92
19.1
19.26
19.58
20.07
20.41
20.09
18.56
15.54
11.14
5.88
0.55
-4.07
-7.5
-9.65
-10.94
-12.07
-13.73
-16.31
-19.69
-23.24
-26.17
-27.84
-28.13
-27.48
-26.77
-26.99
-28.88
-32.79
-38.46
-45.01
-50.9
-54.14
-52.72
-45.37
-32.13
-14.59
4.47
21.98
35.54
44.1
47.92
48.07
45.75
41.84
36.82
31.0
24.76
18.67
13.28
8.96
5.72
3.32
1.4
-0.26
-1.61
-2.41
-2.4
-1.48
0.02
1.47
2.08
1.28
-1.11
-4.73
-8.79
-12.34
-14.66
-15.5
-15.2
-14.59
-14.63
-16.03
-18.97
-23.14
-28.0
-33.25
-39.12
-46.29
-55.35
-66.2
-77.57
-87.11
-91.84
-89.01
-76.94
-55.64
-27.13
4.75
35.08
58.86
72.42
74.31
65.66
49.61
30.15
10.84
-6.01
-19.37
-29.08
-35.17
-37.66
-36.63
-32.52
-26.25
-19.02
-11.9
-5.43
0.49
6.38
12.8
20.1
28.22
36.95
45.98
55.13
64.26
73.26
81.92
89.82
96.43
101.19
103.73
103.99
102.36
99.49
96.13
92.69
88.98
84.12
76.79
65.73
50.63
32.59
14.26
-0.73
-8.94
-8.27
1.19
17.14
35.77
52.93
65.13
70.32
67.96
58.72
44.11
26.01
6.38
-12.94
-30.3
-44.49
-54.77
-60.93
-63.34
-62.82
-60.38
-56.99
-53.26
-49.4
-45.34
-41.12
-37.03
-33.83
-32.36
-33.17
-36.18
-40.54
-44.91
-47.97
-48.94
-47.87
-45.49
-42.74
-40.17
-37.61
-34.24
-29.01
-21.33
-11.4
-0.2
10.91
20.73
28.62
34.6
39.16
43.09
47.33
52.87
60.39
69.83
79.98
88.46
92.35
89.22
78.2
60.4
38.51
15.67
-5.67
-24.38
-40.49
-54.57
-67.03
-77.7
-86.06
-91.61
-94.18
-93.99
-91.45
-86.83
-80.19
-71.49
-60.91
-49.01
-36.72
-25.09
-14.96
-6.72
-0.32
4.55
8.16
10.64
11.9
11.81
10.39
7.88
4.7
1.35
-1.76
-4.43
-6.67
-8.63
-10.59
-12.73
-15.22
-18.04
-21.0
-23.71
-25.6
-26.04
-24.54
-20.94
-15.53
-9.0
-2.29
3.75
8.51
11.8
13.78
14.76
15.06
14.92
14.47
13.8
12.99
12.17
11.43
10.84
10.41
10.08
9.81
9.59
9.47
9.44
9.45
9.37
9.06
8.46
7.63
6.75
6.01
5.41
4.86
4.19
3.3
2.32
1.54
1.31
1.75
2.68
3.65
4.06
3.4
1.22
-2.76
-8.84
-17.12
-27.39
-38.98
-50.74
-61.34
-69.59
-74.81
-76.95
-76.48
-74.15
-70.73
-66.83
-62.9
-59.22
-55.94
-53.12
-50.78
-49.04
-48.02
-47.89
-48.78
-50.72
-53.77
-58.05
-63.8
-71.27
-80.49
-91.1
-102.25
-112.86
-121.74
-127.87
-130.32
-128.16
-120.36
-105.84
-83.67
-53.44
-15.5
28.86
77.34
126.77
173.46
213.78
245.02
266.08
277.72
282.04
281.44
277.36
269.59
256.48
235.96
206.92
170.06
128.07
84.9
44.74
11.03
-14.13
-30.22
-38.21
-40.21
-38.93
-36.9
-35.87
-36.34
-37.75
-39.15
-39.92
-40.32
-41.41
-44.48
-50.16
-58.03
-66.55
-73.76
-78.04
-78.76
-76.29
-71.7
-66.05
-59.8
-52.75
-44.38
-34.51
-23.78
-13.52
-5.12
0.71
4.56
8.01
12.96
20.6
30.89
42.64
54.4
65.12
74.75
83.99
93.63
104.11
115.22
126.44
137.3
147.53
156.85
164.57
169.33
169.31
162.8
148.92
128.23
102.56
74.68
47.46
23.32
3.91
-9.93
-18.11
-21.09
-19.88
-15.89
-10.81
-6.25
-3.43
-2.91
-4.57
-7.73
-11.56
-15.3
-18.54
-21.21
-23.48
-25.55
-27.54
-29.37
-30.89
-31.89
-32.31
-32.26
-31.98
-31.73
-31.7
-31.92
-32.37
-33.0
-33.83
-34.94
-36.42
-38.27
-40.43
-42.7
-44.85
-46.65
-47.82
-48.12
-47.3
-45.21
-41.86
-37.51
-32.52
-27.4
-22.57
-18.29
-14.64
-11.59
-9.04
-6.94
-5.33
-4.23
-3.63
-3.45
-3.53
-3.66
-3.72
-3.65
-3.5
-3.34
-3.22
-3.07
-2.77
-2.18
-1.32
-0.36
0.34
0.39
-0.43
-2.1
-4.27
-6.43
-8.1
-8.96
-8.96
-8.24
-7.11
-5.88
-4.79
-3.99
-3.46
-3.06
-2.57
-1.75
-0.41
1.52
3.96
6.68
9.35
11.6
13.11
13.73
13.54
12.89
12.28
12.19
12.88
14.33
16.22
18.04
19.29
19.49
18.3
15.56
11.31
5.84
-0.34
-6.68
-12.73
-18.34
-23.68
-29.14
-35.16
-41.94
-49.37
-57.08
-64.57
-71.33
-76.92
-80.96
-83.09
-83.06
-80.85
-76.78
-71.58
-66.26
-61.84
-59.11
-58.6
-60.56
-65.14
-72.33
-81.8
-92.6
-103.18
-111.6
-116.17
-115.97
-111.2
-103.07
-93.29
-83.51
-74.88
-67.98
-62.9
-59.45
-57.35
-56.39
-56.58
-58.18
-61.52
-66.68
-73.11
-79.51
-84.2
-85.76
-83.62
-78.22
-70.77
-62.72
-55.56
-50.8
-49.95
-54.33
-64.19
-78.08
-92.6
-103.47
-107.25
-103.09
-93.41
-82.99
-76.91
-78.36
-87.43
-101.3
-115.79
-127.15
-133.21
-133.65
-129.18
-120.66
-108.26
-91.45
-69.5
-42.13
-10.09
24.74
59.82
92.6
121.18
144.77
163.63
178.82
191.66
203.08
213.27
221.54
226.56
226.71
220.47
206.85
185.52
157.06
122.98
85.84
48.93
15.86
-10.25
-27.55
-36.08
-37.73
-35.7
-33.52
-33.97
-38.42
-46.63
-57.15
-68.0
-77.39
-84.2
-88.05
-89.23
-88.49
-86.78
-85.08
-84.19
-84.64
-86.69
-90.42
-95.75
-102.35
-109.4
-115.43
-118.41
-116.17
-107.17
-90.95
-68.31
-40.94
-10.85
20.22
51.02
80.64
108.23
132.85
153.63
169.95
181.86
189.92
194.99
197.84
198.97
198.58
196.75
193.69
189.85
185.81
182.04
178.72
175.61
172.19
167.91
162.47
155.91
148.61
141.0
133.35
125.61
117.53
108.76
99.15
88.82
78.1
67.44
57.36
48.45
41.42
36.98
35.49
36.68
39.6
42.86
45.38
47.01
48.77
52.59
60.38
73.16
90.48
110.44
130.38
147.79
161.09
169.93
174.86
176.76
176.14
172.87
166.2
155.31
139.93
120.8
99.59
78.39
58.82
41.36
25.24
8.89
-9.16
-29.42
-51.03
-72.1
-90.45
-104.49
-113.74
-118.93
-121.67
-124.08
-128.34
-136.27
-148.76
-165.26
-183.66
-200.77
-213.31
-219.18
-218.06
-211.31
-201.17
-189.71
-178.23
-167.1
-156.07
-144.65
-132.26
-118.2
-101.84
-82.79
-61.24
-38.06
-14.61
7.7
27.86
45.29
59.79
71.22
79.47
84.55
86.74
86.59
84.68
81.47
77.12
71.7
65.48
59.08
53.46
49.52
47.71
47.76
48.83
49.85
49.99
48.89
46.56
43.07
38.32
31.95
23.57
13.09
1.1
-11.21
-22.31
-30.93
-36.48
-39.25
-40.23
-40.74
-42.07
-45.18
-50.6
-58.28
-67.55
-77.02
-84.66
-88.24
-85.84
-76.51
-60.63
-39.88
-16.73
6.17
26.64
43.33
55.78
64.21
69.25
71.71
72.35
71.87
70.74
69.15
66.97
63.89
59.61
54.12
47.85
41.54
35.86
30.98
26.36
20.97
13.91
4.99
-4.93
-14.23
-21.26
-25.02
-25.48
-23.34
-19.52
-14.78
-9.51
-3.95
1.61
6.8
11.32
15.1
18.32
21.1
23.26
24.24
23.36
20.34
15.76
11.2
8.93
11.24
19.58
34.02
52.93
73.27
91.31
103.66
108.24
104.71
94.44
79.83
63.38
46.9
31.23
16.31
1.8
-12.56
-26.52
-39.39
-50.25
-58.33
-63.24
-64.97
-63.75
-59.85
-53.43
-44.65
-33.79
-21.53
-8.94
2.6
11.76
17.56
19.56
17.86
12.99
5.67
-3.26
-12.76
-21.63
-28.62
-32.68
-33.38
-31.02
-26.64
-21.65
-17.43
-15.1
-15.37
-18.7
-25.16
-34.29
-44.77
-54.4
-60.52
-60.77
-54.02
-40.81
-23.22
-4.15
13.69
28.54
39.78
47.63
52.65
55.2
55.33
52.95
48.25
41.87
34.94
28.83
24.65
22.91
23.4
25.25
27.39
28.87
29.13
28.08
25.95
23.09
19.7
15.74
10.95
5.08
-1.97
-9.96
-18.38
-26.63
-34.17
-40.81
-46.68
-52.19
-57.87
-64.22
-71.63
-80.21
-89.7
-99.29
-107.62
-112.92
-113.54
-108.46
-97.71
-82.55
-64.99
-47.24
-31.04
-17.21
-5.8
3.58
11.26
17.26
21.3
23.26
23.62
23.66
25.27
30.36
40.11
54.37
71.71
89.93
106.97
121.77
134.65
146.9
160.06
175.11
191.99
209.75
226.93
242.12
254.38
263.49
269.97
275.1
280.52
287.73
297.38
308.68
319.38
326.3
326.55
318.48
302.27
279.73
253.52
226.16
199.46
174.32
150.91
129.05
108.44
88.82
69.9
51.29
32.52
13.05
-7.54
-29.41
-52.31
-75.63
-98.62
-120.67
-141.54
-161.48
-181.15
-201.24
-222.37
-244.97
-269.36
-295.73
-323.93
-353.15
-381.63
-406.85
-426.12
-437.44
-440.18
-435.09
-423.85
-408.19
-389.25
-367.38
-342.52
-314.66
-284.32
-252.47
-220.33
-189.06
-159.48
-132.25
-107.8
-86.42
-68.14
-52.72
-39.53
-27.74
-16.55
-5.47
5.53
16.05
25.36
32.71
37.59
39.79
39.52
37.26
33.69
29.54
25.47
22.0
19.43
17.82
17.02
16.77
16.79
16.91
17.09
17.41
17.95
18.72
19.55
20.19
20.37
19.92
18.89
17.44
15.83
14.26
12.84
11.57
10.38
9.22
7.98
6.57
4.87
2.8
0.35
-2.31
-4.87
-6.9
-7.94
-7.68
-5.95
-2.89
1.19
5.81
10.43
14.61
18.05
20.64
22.46
23.59
24.1
24.01
23.25
21.83
19.95
17.88
15.99
14.5
13.42
12.51
11.46
10.1
8.49
6.9
