8.77
8.51
8.02
7.39
6.71
6.08
5.5
4.91
4.2
3.29
2.19
1.02
-0.05
-0.84
-1.27
-1.46
-1.61
-1.99
-2.76
-3.95
-5.43
-7.02
-8.54
-9.89
-10.97
-11.76
-12.26
-12.53
-12.78
-13.26
-14.22
-15.8
-17.85
-19.91
-21.3
-21.3
-19.37
-15.4
-9.77
-3.26
3.17
8.61
12.56
14.91
15.96
16.19
16.04
15.73
15.31
14.7
13.88
12.91
11.96
11.23
10.86
10.83
11.04
11.29
11.46
11.45
11.22
10.78
10.11
9.15
7.84
6.17
4.24
2.27
0.5
-0.91
-1.89
-2.54
-2.99
-3.39
-3.8
-4.23
-4.62
-4.95
-5.24
-5.51
-5.82
-6.22
-6.72
-7.32
-8.01
-8.73
-9.41
-9.98
-10.36
-10.62
-10.86
-11.33
-12.23
-13.68
-15.55
-17.45
-18.75
-18.77
-17.03
-13.41
-8.3
-2.43
3.28
8.07
11.52
13.57
14.43
14.42
13.84
12.91
11.79
10.66
9.62
8.76
8.06
7.46
6.92
6.43
6.08
5.96
6.09
6.44
6.86
7.21
7.4
7.38
7.15
6.73
6.09
5.25
4.24
3.16
2.11
1.19
0.44
-0.18
-0.76
-1.33
-1.96
-2.65
-3.42
-4.27
-5.23
-6.29
-7.4
-8.52
-9.57
-10.59
-11.71
-13.07
-14.66
-16.25
-17.33
-17.3
-15.68
-12.42
-7.89
-2.83
1.95
5.82
8.56
10.24
11.17
11.65
11.83
11.79
11.51
11.02
10.36
9.67
9.06
8.64
8.46
8.56
8.9
9.43
10.1
10.83
11.48
11.93
12.02
11.62
10.71
9.35
7.71
5.99
4.38
2.98
1.79
0.76
-0.18
-1.06
-1.87
-2.59
-3.22
-3.82
-4.45
-5.18
-6.02
-6.93
-7.77
-8.43
-8.79
-8.89
-8.87
-8.95
-9.37
-10.27
-11.65
-13.37
-15.15
-16.58
-17.17
-16.4
-13.93
-9.64
-3.84
2.82
9.53
15.54
20.42
24.11
26.86
28.95
30.59
31.84
32.65
33.03
33.09
33.0
32.96
33.07
33.3
33.54
33.72
33.77
33.69
33.53
33.32
32.98
32.4
31.43
29.9
27.69
24.76
21.12
16.84
12.06
6.93
1.59
-3.91
-9.48
-15.03
-20.42
-25.42
-29.85
-33.66
-36.94
-39.92
-42.88
-45.96
-49.16
-52.29
-55.02
-57.03
-58.07
-57.98
-56.83
-54.83
-52.39
-49.99
-48.01
-46.59
-45.48
-44.05
-41.53
-37.27
-31.06
-23.26
-14.64
-6.2
1.24
7.23
11.68
14.83
16.93
18.25
18.93
19.16
19.12
19.02
18.99
19.05
19.12
19.08
18.87
18.5
18.02
17.51
17.01
16.57
16.22
15.96
15.77
15.54
15.09
14.27
13.01
11.35
9.46
7.56
5.8
4.22
2.77
1.33
-0.19
-1.85
-3.63
-5.49
-7.36
-9.17
-10.91
-12.61
-14.35
-16.23
-18.32
-20.62
-23.02
-25.29
-27.18
-28.4
-28.8
-28.29
-26.9
-24.76
-22.07
-19.14
-16.31
-13.94
-12.3
-11.5
-11.44
-11.89
-12.58
-13.34
-14.11
-14.95
-15.92
-16.96
-17.97
-18.8
-19.4
-19.89
-20.46
-21.36
-22.76
-24.72
-27.15
-29.92
-32.87
-35.88
-38.84
-41.62
-43.99
-45.61
-46.05
-44.92
-42.1
-37.84
-32.77
-27.69
-23.3
-19.94
-17.49
-15.5
-13.43
-10.98
-8.17
-5.33
-2.96
-1.53
-1.41
-2.88
-6.11
-11.06
-17.24
-23.46
-27.85
-28.22
-22.83
-11.17
5.59
24.84
43.39
58.58
69.04
74.93
77.44
78.02
77.75
77.08
75.97
74.28
72.06
69.54
67.07
64.84
62.85
60.89
58.76
56.38
53.92
51.61
49.71
48.26
47.07
45.78
44.01
41.51
38.23
34.28
29.9
25.3
20.7
16.24
12.06
8.22
4.76
1.68
-1.1
-3.67
-6.2
-8.87
-11.82
-15.08
-18.55
-22.0
-25.19
-27.93
-30.3
-32.57
-35.24
-38.83
-43.6
-49.24
-54.72
-58.4
-58.41
-53.36
-43.0
-28.42
-11.83
4.18
17.49
27.04
32.97
36.21
37.87
38.72
39.04
38.7
37.52
35.55
33.11
30.66
28.54
26.83
25.33
23.77
22.04
20.3
18.97
18.41
18.67
19.32
19.6
18.66
16.06
11.9
6.79
1.65
-2.74
-6.02
-8.38
-10.31
-12.39
-14.9
-17.71
-20.32
-22.18
-22.99
-22.85
-22.31
-22.15
-23.12
-25.77
-30.24
-36.14
-42.41
-47.37
-49.04
-45.73
-36.69
-22.61
-5.48
11.92
26.96
37.94
44.39
46.89
46.56
44.48
41.4
37.69
33.56
29.18
24.86
20.91
17.68
15.37
14.01
13.41
13.25
13.2
12.97
12.42
11.55
10.39
8.98
7.27
5.18
2.62
-0.42
-3.8
-7.25
-10.38
-12.8
-14.28
-14.86
-14.93
-15.04
-15.75
-17.32
-19.65
-22.24
-24.51
-26.06
-26.81
-27.07
-27.38
-28.3
-30.33
-33.78
-38.67
-44.55
-50.39
-54.55
-55.19
-50.77
-40.85
-26.33
-9.4
7.24
21.27
31.43
37.76
41.15
42.77
43.44
43.48
42.85
41.45
39.37
36.92
34.56
32.68
31.5
31.01
31.0
31.07
30.78
29.65
27.29
23.44
18.02
11.24
3.49
-4.62
-12.42
-19.38
-25.25
-30.1
-34.17
-37.75
-40.88
-43.32
-44.65
-44.55
-43.06
-40.69
-38.28
-36.74
-36.69
-38.23
-41.03
-44.46
-47.99
-51.33
-54.62
-58.29
-62.89
-68.87
-76.44
-85.33
-94.58
-102.54
-107.02
-105.89
-97.81
-82.79
-62.43
-39.51
-17.18
2.0
16.65
26.65
32.83
36.32
38.15
38.99
39.21
39.01
38.55
38.0
37.49
37.03
36.47
35.59
34.21
32.42
30.56
29.12
28.49
28.73
29.47
30.11
30.08
29.18
27.67
26.12
25.17
25.16
25.96
26.91
27.02
25.23
20.77
13.4
3.61
-7.56
-18.91
-29.43
-38.77
-47.27
-55.8
-65.21
-75.85
-87.19
-97.82
-105.82
-109.33
-107.19
-99.26
-86.45
-70.41
-53.02
-35.86
-19.99
-5.85
6.52
17.23
26.33
33.81
39.69
44.14
47.57
50.56
53.68
57.34
61.69
66.69
72.26
78.29
84.69
91.27
97.63
103.16
107.2
109.18
108.86
106.44
102.52
97.95
93.65
90.28
88.12
86.91
86.03
84.77
82.64
79.64
76.24
73.21
71.11
70.05
69.42
68.13
64.99
59.28
51.16
41.81
33.25
27.76
27.21
32.53
43.44
58.52
75.59
92.21
106.2
115.94
120.53
119.81
114.19
104.43
91.52
76.43
60.13
43.4
26.92
11.12
-3.77
-17.71
-30.75
-42.86
-53.87
-63.44
-71.23
-77.08
-81.13
-83.84
-85.77
-87.37
-88.86
-90.13
-90.94
-91.06
-90.39
-89.03
-87.23
-85.27
-83.4
-81.69
-80.03
-78.13
-75.65
-72.38
-68.38
-64.05
-60.03
-57.09
-55.82
-56.42
-58.43
-60.76
-61.85
-60.04
-54.16
-43.97
-30.31
-14.87
0.41
13.95
24.87
33.0
38.54
41.64
42.29
40.37
35.96
29.48
21.86
14.24
7.73
3.17
0.99
1.17
3.41
7.2
12.03
17.41
22.98
28.43
33.47
37.78
41.02
42.99
43.63
43.07
41.55
39.25
36.27
32.64
28.43
23.84
19.17
14.72
10.6
6.66
2.5
-2.34
-8.17
-15.08
-22.82
-30.88
-38.51
-44.74
-48.48
-48.75
-45.09
-37.79
-28.02
-17.55
-8.2
-1.29
2.8
4.46
4.52
3.69
2.24
0.01
-3.36
-8.01
-13.7
-19.85
-25.81
-31.05
-35.3
-38.46
-40.39
-40.92
-39.84
-37.11
-32.99
-28.05
-23.1
-18.99
-16.46
-15.95
-17.56
-20.91
-25.24
-29.53
-32.87
-34.7
-35.02
-34.36
-33.54
-33.41
-34.57
-37.21
-40.99
-44.97
-47.76
-47.75
-43.61
-34.75
-21.67
-5.87
10.55
25.52
37.57
46.12
51.43
54.26
55.51
55.83
55.52
54.56
52.77
50.03
46.36
41.93
36.91
31.46
25.69
19.75
13.87
8.52
4.15
1.11
-0.58
-1.25
-1.48
-1.83
-2.66
-4.06
-5.88
-7.87
-9.84
-11.7
-13.4
-14.94
-16.31
-17.57
-18.94
-20.71
-23.24
-26.8
-31.53
-37.28
-43.63
-49.79
-54.54
-56.42
-54.13
-46.97
-35.26
-20.43
-4.63
9.89
21.43
29.24
33.47
34.88
34.43
32.91
30.86
28.55
26.06
23.4
20.51
17.36
13.94
10.28
6.53
2.89
-0.34
-2.88
-4.6
-5.59
-6.2
-6.98
-8.34
-10.48
-13.26
-16.26
-19.13
-21.61
-23.73
-25.66
-27.54
-29.41
-31.16
-32.63
-33.75
-34.57
-35.34
-36.37
-38.08
-40.85
-45.0
-50.39
-56.31
-61.23
-63.19
-60.3
-51.55
-37.25
-19.14
0.27
18.39
33.38
44.46
51.76
55.94
57.78
57.91
56.76
54.68
51.98
48.91
45.7
42.52
39.44
36.54
33.89
31.56
29.63
28.16
27.1
26.29
25.43
24.14
22.13
19.25
15.63
11.59
7.48
3.56
-0.11
-3.66
-7.28
-11.09
-15.08
-19.08
-22.87
-26.24
-29.13
-31.7
-34.44
-38.0
-43.02
-49.64
-57.16
-63.93
-67.69
-66.26
-58.43
-44.46
-26.12
-6.07
12.93
28.78
40.45
47.93
51.82
52.97
52.11
49.77
46.33
42.1
37.46
32.86
28.78
25.61
23.53
22.46
22.1
22.08
22.0
21.61
20.77
19.46
17.68
15.44
12.72
9.39
5.37
0.6
-4.85
-10.64
-16.27
-21.22
-25.15
-28.04
-30.26
-32.36
-34.92
-38.38
-42.96
-48.65
-55.09
-61.42
-66.24
-67.73
-64.2
-54.72
-39.65
-20.74
-0.66
17.83
32.7
43.13
49.4
52.47
53.37
52.86
51.36
49.06
46.1
42.7
39.17
35.79
32.76
30.17
28.04
26.37
25.13
24.2
23.31
22.09
20.17
17.31
13.55
9.18
4.59
0.04
-4.37
-8.77
-13.26
-17.84
-22.26
-26.21
-29.45
-31.91
-33.74
-35.18
-36.54
-38.19
-40.62
-44.35
-49.66
-56.19
-62.66
-66.97
-66.77
-60.39
-47.51
-29.48
-8.92
11.13
28.19
40.89
49.05
53.32
54.69
54.03
52.0
49.01
45.42
41.52
37.62
33.93
30.6
27.74
25.38
23.63
22.53
22.1
22.21
22.54
22.67
22.08
20.43
17.6
13.74
9.22
4.43
-0.34
-5.05
-9.81
-14.72
-19.74
-24.62
-28.95
-32.41
-34.89
-36.67
-38.25
-40.33
-43.54
-48.28
-54.51
-61.46
-67.65
-71.01
-69.51
-61.83
-47.98
-29.52
-9.06
10.47
26.83
38.9
46.74
51.1
52.87
52.65
50.67
47.04
42.0
36.1
30.14
24.94
21.13
18.89
18.04
18.12
18.61
19.09
19.33
19.25
18.87
18.12
16.89
14.98
12.15
8.24
3.27
-2.48
-8.5
-14.13
-18.81
-22.29
-24.72
-26.6
-28.61
-31.43
-35.57
-41.2
-48.08
-55.31
-61.39
-64.38
-62.4
-54.3
-40.21
-21.64
-1.13
18.56
35.21
47.64
55.66
59.78
60.7
59.07
55.44
50.32
44.34
38.21
32.65
28.21
25.2
23.61
23.15
23.36
23.7
23.69
22.95
21.3
18.77
15.53
11.81
7.77
3.43
-1.25
-6.34
-11.84
-17.52
-23.04
-27.98
-32.03
-35.08
-37.3
-39.07
-40.87
-43.25
-46.73
-51.67
-58.01
-65.08
-71.45
-75.09
-73.96
-66.76
-53.5
-35.67
-15.82
3.31
19.61
32.03
40.58
45.89
48.72
49.66
49.1
47.3
44.6
41.4
38.11
35.13
32.7
30.93
29.86
29.37
29.23
29.11
28.64
27.45
25.34
22.29
18.47
14.16
9.55
4.76
-0.26
-5.65
-11.46
-17.6
-23.81
-29.68
-34.82
-39.03
-42.32
-44.99
-47.53
-50.62
-55.01
-61.29
-69.66
-79.39
-88.68
-94.88
-95.22
-87.76
-72.26
-50.4
-25.25
-0.27
21.77
39.41
52.48
61.67
67.84
71.64
73.36
73.13
71.09
67.51
62.81
57.52
52.14
47.06
42.59
38.89
36.0
33.8
32.0
30.22
28.08
25.33
21.9
17.84
13.26
8.17
2.48
-3.8
-10.46
-17.02
-22.84
-27.39
-30.53
-32.61
-34.34
-36.57
-40.06
-45.22
-52.03
-59.9
-67.65
-73.59
-75.78
-72.62
-63.38
-48.62
-30.07
-10.26
8.34
23.94
35.74
43.87
48.95
51.66
52.51
51.79
49.8
47.01
44.11
41.83
40.79
41.15
42.55
44.21
45.21
44.76
42.54
38.74
33.95
28.89
24.09
19.67
15.32
10.49
4.71
-2.15
-9.73
-17.32
-24.09
-29.53
-33.56
-36.58
-39.28
-42.36
-46.4
-51.77
-58.59
-66.58
-74.9
-82.02
-85.9
-84.49
-76.49
-61.97
-42.54
-20.96
-0.24
17.27
30.37
39.11
44.35
47.16
48.45
48.77
48.39
47.49
46.25
44.92
43.75
42.94
42.58
42.72
43.32
44.27
45.42
46.51
47.12
46.74
44.81
40.95
35.1
27.64
19.37
11.25
4.11
-1.67
-6.28
-10.35
-14.52
-19.13
-24.02
-28.65
-32.42
-35.07
-36.81
-38.38
-40.69
-44.68
-50.79
-58.85
-67.77
-75.68
-80.16
-79.0
-70.9
-56.08
-36.38
-14.72
5.78
22.73
35.03
42.76
46.81
48.21
47.78
46.07
43.39
40.14
36.75
33.68
31.25
29.47
28.13
26.95
25.73
24.47
23.34
22.53
22.08
21.82
21.3
20.0
17.47
13.56
8.5
2.93
-2.41
-6.92
-10.39
-13.07
-15.57
-18.5
-22.15
-26.37
-30.59
-34.14
-36.55
-37.71
-37.98
-38.03
-38.71
-40.78
-44.8
-50.78
-57.97
-64.77
-68.94
-68.19
-60.94
-47.04
-27.92
-6.28
14.85
32.93
46.59
55.66
60.8
62.91
62.77
60.9
57.64
53.41
48.71
44.12
40.13
37.05
34.93
33.63
32.93
32.6
32.44
32.2
31.62
30.38
28.2
24.94
20.65
15.61
10.26
5.06
0.28
-4.03
-8.01
-11.87
-15.78
-19.67
-23.32
-26.45
-28.88
-30.66
-32.15
-33.99
-36.9
-41.52
-48.09
-56.09
-64.18
-70.29
-72.2
-68.21
-57.91
-42.35
-23.83
-5.13
11.34
24.13
32.89
38.11
40.61
41.17
40.32
38.48
35.95
33.09
30.32
27.95
26.23
25.21
24.79
24.8
24.99
25.14
25.08
24.68
23.85
22.46
20.36
17.39
13.43
8.52
2.93
-2.85
-8.19
-12.59
-15.83
-18.08
-19.89
-21.89
-24.55
-27.93
-31.7
-35.28
-38.08
-39.81
-40.55
-40.79
-41.25
-42.76
-46.03
-51.39
-58.54
-66.28
-72.59
-75.05
-71.56
-61.19
-44.66
-24.19
-2.76
16.81
32.64
44.09
51.52
55.75
57.6
57.7
56.46
54.2
51.31
48.17
45.16
42.58
40.57
39.11
38.02
37.05
35.93
34.52
32.86
31.11
29.39
27.63
25.57
22.83
19.14
14.45
9.03
3.4
-1.87
-6.3
-9.65
-11.95
-13.47
-14.7
-16.14
-18.18
-20.95
-24.26
-27.67
-30.72
-33.15
-35.08
-36.96
-39.46
-43.23
-48.68
-55.81
-64.03
-72.12
-78.27
-80.46
-76.96
-66.94
-50.91
-30.71
-8.99
11.45
28.51
41.11
49.25
53.62
55.18
54.8
53.14
50.63
47.64
44.52
41.62
39.21
37.45
36.3
35.55
34.93
34.26
33.46
32.58
31.63
30.51
28.89
26.38
22.63
17.64
11.75
5.58
-0.16
-5.08
-9.15
-12.8
-16.6
-21.0
-26.04
-31.36
-36.35
-40.44
-43.4
-45.44
-47.18
-49.45
-53.03
-58.4
-65.5
-73.47
-80.64
-84.81
-83.73
-75.89
-61.12
-40.8
-17.5
5.75
26.42
42.97
55.11
63.37
68.56
71.3
71.87
70.32
66.81
61.78
56.0
50.36
45.63
42.22
40.11
38.99
38.41
37.98
37.44
36.61
35.37
33.58
31.03
27.61
23.26
18.12
12.48
6.74
1.33
-3.38
-7.24
-10.29
-12.79
-15.17
-17.83
-21.04
-24.9
-29.24
-33.78
-38.19
-42.19
-45.63
-48.53
-51.09
-53.7
-56.97
-61.53
-67.76
-75.37
-83.14
-88.97
-90.44
-85.63
-73.93
-56.34
-35.23
-13.48
6.34
22.6
34.81
43.27
48.69
51.85
53.42
53.95
53.89
53.6
53.27
52.95
52.58
52.04
51.29
50.35
49.38
48.52
47.85
47.29
46.6
45.39
43.33
40.23
36.17
31.4
26.27
21.06
15.96
11.01
6.19
1.55
-2.79
-6.66
-9.93
-12.6
-14.86
-17.08
-19.67
-22.91
-26.84
-31.25
-35.79
-40.07
-43.86
-47.16
-50.14
-53.21
-56.91
-61.8
-68.21
-75.87
-83.65
-89.6
-91.34
-86.9
-75.47
-57.89
-36.45
-14.18
6.14
22.65
34.73
42.74
47.55
50.05
50.89
50.49
49.2
47.37
45.43
43.81
42.8
42.5
42.79
43.39
44.03
44.52
44.83
44.98
44.97
44.67
43.82
42.09
39.24
35.23
30.32
25.0
19.9
15.56
12.21
9.63
7.24
4.33
0.42
-4.52
-10.01
-15.31
-19.83
-23.33
-26.17
-29.01
-32.64
-37.69
-44.41
-52.58
-61.35
-69.19
-74.14
-74.21
-68.11
-55.77
-38.54
-18.88
0.43
17.04
29.62
37.96
42.59
44.33
43.9
41.77
38.33
33.98
29.27
24.85
21.35
19.16
18.33
18.61
19.53
20.65
21.61
22.25
22.59
22.6
22.19
21.11
19.06
15.78
11.3
6.04
0.72
-3.83
-7.05
-8.95
-10.09
-11.38
-13.67
-17.35
-22.21
-27.56
-32.58
-36.67
-39.68
-41.95
-44.09
-46.84
-50.87
-56.59
-63.87
-71.94
-79.19
-83.5
-82.75
-75.56
-61.92
-43.32
-22.36
-1.95
15.53
28.83
37.85
43.27
46.09
47.16
47.04
46.07
44.51
42.59
40.61
38.82
37.41
36.44
35.87
35.63
35.56
35.58
35.58
35.46
35.06
34.19
32.64
30.25
27.01
23.07
18.72
14.29
10.01
6.03
2.37
-0.97
-3.97
-6.55
-8.65
-10.35
-11.83
-13.41
-15.37
-17.86
-20.82
-24.07
-27.34
-30.46
-33.43
-36.45
-39.86
-44.09
-49.6
-56.66
-65.1
-74.03
-81.73
-85.95
-84.59
-76.46
-61.84
-42.53
-21.3
-1.03
16.15
29.2
38.17
43.7
46.64
47.77
47.66
46.81
45.64
44.52
43.67
43.19
43.0
42.91
42.7
42.21
41.41
40.42
39.37
38.34
37.24
35.85
33.86
31.11
27.67
23.74
19.62
15.5
11.46
7.5
3.61
-0.1
-3.46
-6.34
-8.78
-10.98
-13.3
-16.05
-19.4
-23.29
-27.46
-31.58
-35.32
-38.51
-41.22
-43.71
-46.46
-50.12
-55.34
-62.39
-70.85
-79.34
-85.65
-87.25
-82.19
-69.83
-51.23
-28.89
-5.97
14.64
31.11
42.8
50.08
53.74
54.63
53.38
50.49
46.48
42.0
37.76
34.43
32.41
31.72
31.97
32.56
32.93
32.71
31.85
30.53
28.97
27.24
25.16
22.31
18.28
12.81
6.06
-1.37
-8.57
-14.59
-18.83
-21.24
-22.39
-23.22
-24.65
-27.19
-30.77
-34.77
-38.42
-41.1
-42.67
-43.46
-44.15
-45.6
-48.58
-53.58
-60.52
-68.53
-75.8
-80.02
-78.85
-70.81
-55.81
-35.3
-11.89
11.46
32.23
48.81
60.63
67.92
71.37
71.89
70.41
67.8
64.73
61.67
58.83
56.24
53.87
51.72
49.85
48.37
47.38
46.83
46.57
46.33
45.79
44.65
42.69
39.85
36.23
32.07
27.71
23.45
19.52
16.0
12.79
9.75
6.74
3.7
0.69
-2.24
-5.07
-7.89
-10.94
-14.49
-18.74
-23.73
-29.2
-34.73
-39.79
-44.05
-47.44
-50.28
-53.28
-57.32
-63.16
-70.99
-80.09
-88.67
-94.26
-94.34
-87.28
-73.01
-53.1
-30.36
-7.93
11.64
26.88
37.5
44.08
47.55
48.95
49.12
48.7
48.09
47.46
46.83
46.11
45.23
44.2
43.1
42.08
41.24
40.63
40.22
39.83
39.22
38.08
36.09
33.02
28.84
23.79
18.26
12.73
7.54
2.85
-1.47
-5.63
-9.84
-14.15
-18.42
-22.41
-25.9
-28.83
-31.37
-33.77
-36.29
-39.0
-41.8
-44.38
-46.46
-47.94
-49.01
-50.14
-52.01
-55.29
-60.4
-67.12
-74.42
-80.42
-82.73
-79.19
-68.53
-51.01
-28.42
-3.64
20.23
40.74
56.52
67.34
73.72
76.49
76.43
74.14
70.18
65.14
59.76
54.76
50.73
47.98
46.4
45.6
45.11
44.51
43.62
42.4
40.87
38.92
36.3
32.69
27.85
21.77
14.84
7.67
1.02
-4.54
-8.77
-11.93
-14.59
-17.39
-20.75
-24.7
-28.83
-32.55
-35.41
-37.33
-38.71
-40.29
-42.93
-47.32
-53.71
-61.67
-70.0
-76.8
-79.88
-77.38
-68.44
-53.58
-34.67
-14.34
4.77
20.73
32.66
40.61
45.25
47.35
47.55
46.23
43.73
40.38
36.68
33.27
30.77
29.58
29.7
30.8
32.3
33.62
34.37
34.5
34.12
33.4
32.36
30.77
28.32
24.71
19.86
14.0
7.67
1.53
-3.82
-8.05
-11.24
-13.77
-16.23
-19.13
-22.75
-27.02
-31.56
-35.86
-39.55
-42.54
-45.07
-47.77
-51.39
-56.63
-63.83
-72.73
-82.28
-90.71
-95.82
-95.58
-88.74
-75.32
-56.74
-35.35
-13.86
5.43
21.07
32.56
40.23
44.84
47.32
48.52
49.11
49.5
49.89
50.27
50.57
50.77
50.88
51.03
51.31
51.76
52.33
52.85
53.16
53.1
52.54
51.35
49.46
46.75
43.2
38.86
33.97
28.83
23.81
19.18
15.08
11.47
8.13
4.74
0.97
-3.39
-8.4
-13.93
-19.74
-25.53
-31.04
-36.06
-40.52
-44.4
-47.86
-51.27
-55.2
-60.33
-67.06
-75.11
-83.27
-89.5
-91.42
-87.2
-76.15
-59.22
-38.64
-17.33
2.06
17.8
29.31
37.0
41.79
44.66
46.31
47.07
47.04
46.26
44.91
43.39
42.15
41.57
41.73
42.38
43.11
43.49
43.34
42.75
41.89
40.91
39.71
37.96
35.25
31.32
26.19
20.21
13.99
8.15
3.21
-0.64
-3.54
-5.89
-8.28
-11.19
-14.86
-19.16
-23.69
-27.91
-31.45
-34.21
-36.48
-38.74
-41.61
-45.61
-51.05
-57.87
-65.45
-72.47
-77.04
-77.12
-71.22
-59.04
-41.75
-21.74
-1.87
15.41
28.62
37.46
42.45
44.44
44.18
42.19
38.84
34.54
29.92
25.71
22.62
21.1
21.19
22.56
24.6
26.74
28.54
29.85
30.64
30.88
30.39
28.85
25.89
21.42
15.73
9.57
3.96
-0.23
-2.58
-3.39
-3.52
-4.04
-5.77
-8.95
-13.2
-17.75
-21.87
-25.21
-27.96
-30.79
-34.54
-40.02
-47.63
-57.16
-67.57
-76.98
-83.05
-83.5
-76.95
-63.46
-44.68
-23.43
-2.82
14.68
27.73
36.32
41.33
43.99
45.39
46.21
46.7
46.85
46.62
46.04
45.23
44.4
43.63
42.87
41.93
40.61
38.86
36.77
34.54
32.32
30.04
27.48
24.34
20.41
15.72
10.49
5.13
0.04
-4.4
-7.93
-10.51
-12.33
-13.81
-15.47
-17.78
-20.95
-24.87
-29.16
-33.37
-37.12
-40.3
-43.0
-45.52
-48.29
-51.78
-56.46
-62.59
-69.88
-77.33
-83.07
-84.83
-80.57
-69.36
-51.83
-30.18
-7.46
13.33
30.11
42.08
49.57
53.54
55.06
54.93
53.64
51.53
48.95
46.33
44.1
42.52
