38.8
46.37
50.55
52.16
51.86
50.15
47.4
44.01
40.49
37.31
34.84
33.26
32.47
32.2
32.09
31.87
31.37
30.62
29.68
28.63
27.43
25.87
23.64
20.41
16.01
10.5
4.28
-2.04
-7.75
-12.35
-15.7
-18.1
-20.15
-22.44
-25.33
-28.72
-32.2
-35.23
-37.41
-38.66
-39.26
-39.73
-40.72
-42.91
-46.89
-52.91
-60.63
-68.8
-75.27
-77.47
-73.31
-62.05
-44.79
-24.21
-3.67
13.98
27.18
35.84
40.83
43.4
44.48
44.6
44.02
42.94
41.67
40.57
39.91
39.78
40.06
40.44
40.6
40.3
39.43
38.06
36.35
34.49
32.54
30.4
27.79
24.42
20.09
14.88
9.11
3.31
-1.97
-6.29
-9.45
-11.59
-13.11
-14.56
-16.5
-19.22
-22.73
-26.66
-30.48
-33.69
-36.03
-37.61
-38.87
-40.47
-43.15
-47.49
-53.72
-61.33
-68.94
-74.4
-75.32
-69.93
-57.86
-40.39
-20.11
-0.07
17.25
30.5
39.56
45.09
47.97
48.97
48.66
47.46
45.82
44.19
42.86
41.94
41.33
40.78
40.05
39.02
37.73
36.35
35.09
34.0
32.94
31.51
29.25
25.73
20.9
15.08
8.92
3.2
-1.52
-5.04
-7.63
-9.87
-12.36
-15.44
-19.12
-23.0
-26.59
-29.48
-31.57
-33.12
-34.72
-37.04
-40.75
-46.22
-53.3
-61.06
-67.84
-71.49
-70.04
-62.37
-48.75
-30.85
-11.24
7.4
23.05
34.79
42.63
47.18
49.17
49.13
47.44
44.38
40.42
36.15
32.3
29.45
27.94
27.64
28.08
28.68
28.91
28.55
27.65
26.39
24.81
22.75
19.83
15.73
10.42
4.27
-1.98
-7.5
-11.71
-14.46
-16.13
-17.36
-18.92
-21.27
-24.47
-28.14
-31.7
-34.6
-36.57
-37.76
-38.72
-40.18
-42.94
-47.62
-54.37
-62.71
-71.32
-78.06
-80.5
-76.62
-65.63
-48.45
-27.49
-5.91
13.36
28.53
39.15
45.88
49.87
52.17
53.41
53.87
53.59
52.65
51.25
49.6
47.93
46.35
44.87
43.45
42.06
40.75
39.56
38.5
37.45
36.18
34.43
32.03
28.9
25.11
20.73
15.88
10.71
5.46
0.5
-3.75
-6.95
-9.09
-10.52
-11.91
-13.97
-17.16
-21.45
-26.3
-30.99
-34.84
-37.59
-39.44
-40.99
-42.98
-46.16
-51.09
-57.9
-66.06
-74.17
-80.07
-81.33
-76.05
-63.64
-45.23
-23.36
-1.22
18.37
33.68
44.25
50.63
53.82
54.81
54.35
52.94
50.93
48.63
46.35
44.37
42.82
41.71
40.85
40.02
39.05
37.94
36.78
35.71
34.68
33.39
31.35
28.12
23.53
17.84
11.64
5.71
0.69
-3.17
-6.06
-8.52
-11.16
-14.37
-18.18
-22.23
-25.96
-28.9
-30.92
-32.29
-33.68
-35.98
-40.02
-46.27
-54.54
-63.73
-71.89
-76.56
-75.49
-67.38
-52.5
-32.65
-10.72
10.22
27.8
40.77
49.16
53.78
55.64
55.59
54.07
51.3
47.52
43.23
39.15
36.06
34.39
34.08
34.56
35.05
34.9
33.89
32.21
30.26
28.31
26.34
24.04
20.97
16.86
11.74
5.97
0.12
-5.2
-9.55
-12.7
-14.78
-16.14
-17.33
-18.91
-21.34
-24.77
-28.99
-33.56
-37.91
-41.64
-44.63
-47.16
-49.79
-53.26
-58.32
-65.39
-74.14
-83.3
-90.63
-93.4
-89.26
-77.2
-58.06
-34.39
-9.69
12.72
30.6
43.19
50.93
54.95
56.48
56.55
55.91
55.01
54.11
53.3
52.52
51.66
50.65
49.49
48.3
47.2
46.34
45.74
45.29
44.7
43.65
41.77
38.89
35.01
30.42
25.47
20.55
15.88
11.5
7.38
3.46
-0.21
-3.5
-6.28
-8.55
-10.52
-12.6
-15.23
-18.74
-23.14
-28.11
-33.17
-37.8
-41.7
-44.86
-47.58
-50.36
-53.83
-58.57
-64.88
-72.45
-80.17
-86.07
-87.77
-83.23
-71.54
-53.44
-31.23
-8.09
12.87
29.46
40.84
47.38
50.16
50.46
49.29
47.3
44.91
42.39
40.07
38.29
37.27
37.02
37.3
37.7
37.92
37.87
37.74
37.84
38.29
38.86
38.92
37.76
34.92
30.44
24.94
19.42
14.83
11.77
10.15
9.25
7.9
4.98
-0.19
-7.53
-16.21
-24.97
-32.63
-38.56
-42.88
-46.35
-50.01
-54.79
-61.14
-68.72
-76.39
-82.29
-84.3
-80.55
-70.16
-53.62
-32.82
-10.54
10.36
27.73
40.57
48.95
53.54
55.15
54.34
51.52
47.07
41.61
36.04
31.36
28.35
27.26
27.74
28.96
29.97
30.1
29.15
27.38
25.3
23.26
21.25
18.87
15.55
10.87
4.88
-1.86
-8.37
-13.7
-17.28
-19.2
-20.12
-21.03
-22.73
-25.61
-29.48
-33.77
-37.81
-41.09
-43.48
-45.21
-46.82
-49.02
-52.55
-58.04
-65.68
-74.89
-84.04
-90.69
-92.12
-86.25
-72.44
-51.86
-27.29
-2.24
20.11
37.64
49.7
56.85
60.33
61.44
61.24
60.32
58.97
57.29
55.37
53.37
51.44
49.67
48.04
46.44
44.77
43.04
41.31
39.67
38.07
36.35
34.22
31.4
27.76
23.35
18.35
13.02
7.64
2.5
-2.14
-6.1
-9.29
-11.81
-13.96
-16.13
-18.75
-22.08
-26.15
-30.7
-35.34
-39.59
-43.11
-45.85
-48.03
-50.2
-53.02
-57.21
-63.15
-70.73
-78.95
-86.0
-89.48
-87.13
-77.61
-61.12
-39.51
-15.78
6.82
25.75
39.68
48.62
53.48
55.52
55.86
55.25
54.08
52.49
50.57
48.45
46.35
44.51
43.1
42.14
41.53
41.09
40.65
40.11
39.39
38.43
37.08
35.15
32.46
28.89
24.46
19.33
13.75
8.11
2.79
-1.84
-5.6
-8.54
-10.96
-13.32
-16.08
-19.5
-23.57
-27.97
-32.29
-36.1
-39.14
-41.43
-43.22
-45.0
-47.41
-51.16
-56.73
-64.1
-72.41
-79.84
-83.94
-82.25
-73.3
-57.16
-35.72
-12.1
10.32
28.86
42.21
50.41
54.42
55.49
54.67
52.59
49.62
46.07
42.36
39.06
36.7
35.62
35.78
36.79
38.06
39.02
39.29
38.76
37.5
35.62
33.13
29.91
25.83
20.79
14.96
8.72
2.65
-2.64
-6.71
-9.48
-11.3
-12.83
-14.79
-17.71
-21.64
-26.26
-30.91
-34.96
-38.01
-40.12
-41.72
-43.53
-46.39
-51.04
-57.82
-66.41
-75.54
-83.09
-86.45
-83.34
-72.66
-54.99
-32.58
-8.65
13.54
31.63
44.51
52.34
56.1
57.02
56.26
54.63
52.67
50.68
48.78
47.09
45.67
44.57
43.78
43.26
42.86
42.5
42.12
41.68
41.15
40.34
38.92
36.51
32.85
27.96
22.21
16.19
10.49
5.53
1.36
-2.21
-5.47
-8.62
-11.65
-14.4
-16.67
-18.53
-20.23
-22.28
-25.14
-28.99
-33.61
-38.44
-42.8
-46.15
-48.38
-49.78
-51.08
-53.19
-56.98
-62.93
-70.79
-79.29
-86.21
-88.82
-84.78
-72.98
-54.1
-30.54
-5.68
17.13
35.53
48.57
56.58
60.69
62.23
62.24
61.39
59.98
58.13
55.94
53.55
51.17
48.97
47.04
45.35
43.76
42.14
40.43
38.61
36.67
34.48
31.84
28.56
24.5
19.77
14.75
9.98
6.06
3.44
2.21
2.1
2.53
2.73
1.98
-0.19
-3.98
-9.24
-15.59
-22.53
-29.49
-35.94
-41.45
-45.8
-49.03
-51.43
-53.58
-56.24
-60.16
-65.72
-72.57
-79.36
-83.98
-83.98
-77.58
-64.29
-45.33
-23.27
-1.21
18.16
33.24
43.64
49.95
53.12
54.0
53.16
50.92
47.58
43.58
39.57
36.27
34.25
33.71
34.42
35.79
37.16
38.02
38.1
37.4
36.01
33.97
31.23
27.69
23.31
18.19
12.6
6.91
1.58
-3.05
-6.77
-9.6
-11.78
-13.68
-15.71
-18.2
-21.35
-25.16
-29.42
-33.75
-37.73
-41.03
-43.56
-45.54
-47.52
-50.18
-54.25
-60.16
-67.8
-76.26
-83.75
-87.93
-86.49
-78.0
-62.51
-41.68
-18.39
4.18
23.4
37.82
47.26
52.47
54.62
54.83
53.96
52.6
51.09
49.65
48.42
47.46
46.81
46.45
46.29
46.22
46.14
46.01
45.82
45.46
44.73
43.3
40.85
37.22
32.5
27.05
21.39
15.97
11.05
6.68
2.75
-0.83
-4.07
-6.92
-9.31
-11.35
-13.24
-15.32
-17.92
-21.21
-25.18
-29.58
-34.01
-38.02
-41.28
-43.72
-45.58
-47.48
-50.2
-54.55
-60.94
-69.02
-77.36
-83.65
-85.22
-80.02
-67.38
-48.46
-25.92
-3.1
17.03
32.64
43.26
49.48
52.37
52.98
52.11
50.25
47.77
45.02
42.39
40.3
39.04
38.66
38.91
39.34
39.42
38.83
37.57
35.92
34.25
32.73
31.18
29.12
25.98
21.42
15.63
9.29
3.28
-1.58
-4.94
-7.08
-8.75
-10.82
-13.95
-18.26
-23.26
-28.17
-32.2
-35.0
-36.74
-38.14
-40.14
-43.64
-49.22
-56.88
-65.89
-74.7
-81.16
-82.93
-78.13
-66.08
-47.64
-25.1
-1.56
20.0
37.43
49.82
57.33
60.82
61.29
59.61
56.5
52.49
48.16
44.1
40.88
38.91
38.27
38.69
39.66
40.54
40.84
40.3
38.98
37.08
34.79
32.15
29.0
25.08
20.14
14.16
7.41
0.5
-5.83
-10.85
-14.25
-16.2
-17.35
-18.64
-20.85
-24.34
-28.83
-33.6
-37.78
-40.8
-42.59
-43.66
-44.87
-47.17
-51.28
-57.54
-65.62
-74.39
-81.89
-85.72
-83.58
-74.14
-57.59
-35.78
-11.74
11.26
30.6
44.93
54.16
59.21
61.35
61.84
61.56
61.03
60.38
59.51
58.24
56.43
54.13
51.54
48.88
46.34
43.96
41.59
39.08
36.29
33.19
29.86
26.35
22.66
18.72
14.44
9.76
4.75
-0.42
-5.47
-10.16
-14.28
-17.74
-20.61
-23.09
-25.47
-28.04
-30.98
-34.26
-37.67
-40.88
-43.61
-45.78
-47.54
-49.24
-51.38
-54.57
-59.33
-65.82
-73.52
-80.95
-85.82
-85.59
-78.4
-63.86
-43.32
-19.58
4.09
24.86
41.06
52.29
59.11
62.49
63.4
62.54
60.45
57.53
54.22
50.95
48.12
45.96
44.46
43.37
42.35
41.14
39.69
38.12
36.57
34.97
33.02
30.23
26.17
20.68
14.06
7.02
0.42
-5.02
-9.0
-11.73
-13.82
-16.0
-18.79
-22.31
-26.22
-29.95
-32.93
-34.91
-36.09
-37.08
-38.77
-42.0
-47.32
-54.63
-62.96
-70.48
-74.8
-73.71
-65.87
-51.42
-32.08
-10.63
9.9
27.05
39.53
47.2
50.73
51.14
49.35
46.12
41.99
37.53
33.26
29.69
27.21
26.03
26.05
26.91
28.07
28.94
29.11
28.41
26.92
24.94
22.72
20.35
17.69
14.49
10.52
5.82
0.72
-4.15
-8.19
-11.0
-12.64
-13.57
-14.56
-16.31
-19.23
-23.2
-27.67
-31.88
-35.15
-37.26
-38.5
-39.53
-41.24
-44.47
-49.71
-56.93
-65.25
-72.94
-77.59
-76.79
-68.91
-53.78
-32.97
-9.29
14.0
34.16
49.65
60.3
67.0
71.22
74.39
77.42
80.5
83.15
84.51
83.75
80.48
74.85
67.42
58.81
49.55
39.97
30.32
20.94
12.26
4.75
-1.34
-6.06
-9.72
-12.79
-15.69
-18.69
-21.79
-24.83
-27.52
-29.57
-30.82
-31.32
-31.41
-31.5
-32.04
-33.31
-35.29
-37.7
-40.12
-42.16
-43.64
-44.62
-45.45
-46.58
-48.48
-51.64
-56.44
-62.93
-70.59
-78.03
-83.14
-83.53
-77.37
-64.18
-45.17
-22.93
-0.64
18.94
34.2
44.72
51.1
54.36
55.49
55.24
54.07
52.29
50.15
47.9
45.82
44.19
43.19
42.76
42.67
42.58
42.16
41.27
39.94
38.32
36.44
34.16
31.17
27.17
22.0
15.87
9.32
3.09
-2.12
-5.86
-8.19
-9.62
-10.95
-12.93
-15.96
-19.91
-24.19
-28.06
-30.95
-32.79
-34.04
-35.47
-38.0
-42.29
-48.58
-56.5
-64.93
-72.06
-75.71
-73.84
-65.24
-50.08
-30.03
-7.85
13.41
31.25
44.31
52.4
56.21
56.71
54.77
51.02
45.96
40.23
34.63
30.06
27.23
26.39
27.22
28.96
30.79
32.08
32.59
32.41
31.72
30.54
28.67
25.74
21.43
15.7
8.94
1.89
-4.6
-9.79
-13.4
-15.69
-17.37
-19.31
-22.12
-25.92
-30.28
-34.42
-37.69
-39.75
-40.85
-41.66
-43.11
-46.08
-51.18
-58.47
-67.18
-75.6
-81.28
-81.6
-74.68
-60.11
-39.38
-15.48
8.0
27.96
42.6
51.6
55.89
56.89
55.98
54.11
51.74
49.04
46.09
43.08
40.3
38.1
36.71
36.09
36.0
36.08
36.0
35.59
34.86
33.86
32.61
31.03
28.89
25.94
22.02
17.15
11.6
5.86
0.5
-3.97
-7.29
-9.58
-11.24
-12.87
-15.01
-17.98
-21.79
-26.14
-30.56
-34.58
-37.86
-40.34
-42.26
-44.13
-46.59
-50.36
-55.92
-63.29
-71.63
-79.15
-83.42
-81.94
-73.16
-57.15
-35.76
-12.12
10.35
28.95
42.35
50.52
54.34
55.0
53.56
50.82
47.44
43.94
40.83
38.49
37.15
36.76
37.1
37.75
38.29
38.43
38.08
37.37
36.51
35.59
34.5
32.84
30.15
26.1
20.75
14.57
8.33
2.78
-1.61
-4.92
-7.71
-10.7
-14.5
-19.21
-24.39
-29.26
-33.05
-35.42
-36.61
-37.44
-38.92
-42.01
-47.22
-54.45
-62.83
-70.74
-76.05
-76.51
-70.48
-57.5
-38.68
-16.52
5.81
25.36
40.21
49.79
54.71
56.14
55.25
52.83
49.3
44.94
40.12
35.46
31.66
29.3
28.62
29.35
30.84
32.32
33.22
33.26
32.49
31.13
29.3
26.94
23.76
19.49
14.01
7.57
0.72
-5.78
-11.23
-15.27
-17.94
-19.72
-21.32
-23.42
-26.42
-30.26
-34.43
-38.24
-41.11
-42.83
-43.74
-44.61
-46.36
-49.87
-55.67
-63.72
-73.12
-82.06
-88.01
-88.34
-81.12
-65.96
-44.38
-19.42
5.21
26.31
41.96
51.86
56.93
58.66
58.45
57.29
55.62
53.57
51.2
48.68
46.31
44.45
43.28
42.77
42.63
42.5
42.1
41.35
40.32
39.11
37.69
35.83
33.2
29.49
24.64
18.86
12.66
6.69
1.56
-2.34
-4.96
-6.64
-7.98
-9.63
-12.13
-15.68
-20.13
-25.03
-29.8
-33.96
-37.23
-39.68
-41.67
-43.79
-46.77
-51.27
-57.69
-65.82
-74.57
-82.0
-85.64
-83.19
-73.38
-56.55
-34.69
-10.89
11.64
30.39
44.08
52.67
56.93
57.96
56.77
54.18
50.8
47.15
43.72
40.94
39.08
38.22
38.1
38.32
38.41
38.13
37.48
36.69
35.99
35.33
34.33
32.34
28.76
23.35
16.39
8.66
1.12
-5.41
-10.57
-14.5
-17.77
-20.98
-24.52
-28.34
-32.01
-35.02
-37.03
-38.12
-38.82
-39.91
-42.23
-46.39
-52.5
-60.05
-67.74
-73.59
-75.39
-71.3
-60.56
-43.87
-23.35
-1.89
17.64
33.23
44.03
50.25
52.74
52.5
50.3
46.73
42.26
37.42
32.88
29.36
27.43
27.28
28.61
30.72
32.77
34.1
34.42
33.78
32.41
30.4
27.63
23.77
18.58
12.14
4.98
-2.07
-8.12
-12.6
-15.49
-17.32
-18.92
-21.07
-24.17
-28.1
-32.36
-36.3
-39.44
-41.71
-43.51
-45.57
-48.75
-53.85
-61.21
-70.5
-80.43
-88.77
-92.83
-90.16
-79.48
-61.3
-37.9
-12.73
10.67
29.67
43.12
51.29
55.39
56.86
56.84
56.0
54.58
52.7
50.52
48.32
46.41
45.09
44.43
44.3
44.44
44.55
44.4
43.89
43.0
41.71
39.94
37.53
34.3
30.17
25.19
19.59
13.72
8.03
2.97
-1.18
-4.29
-6.53
-8.3
-10.17
-12.63
-15.99
-20.2
-24.9
-29.61
-33.91
-37.61
-40.83
-43.97
-47.59
-52.32
-58.65
-66.75
-76.09
-85.2
-91.79
-93.26
-87.5
-73.83
-53.38
-28.92
-3.97
18.2
35.44
47.06
53.61
56.32
56.54
55.32
53.39
51.13
48.79
46.6
44.79
43.56
42.96
42.88
43.0
42.93
42.41
41.39
40.08
38.73
37.44
35.97
33.8
30.33
25.21
18.62
11.29
4.25
-1.53
-5.6
-8.2
-10.08
-12.29
-15.52
-19.93
-25.02
-29.93
-33.83
-36.26
-37.4
-37.91
-38.73
-40.79
-44.82
-51.11
-59.31
-68.26
-75.97
-79.92
-77.74
-68.06
-51.15
-29.02
-4.89
17.83
36.48
49.77
57.71
61.19
61.35
59.09
55.11
49.95
44.21
38.68
34.15
31.23
30.17
30.69
32.14
33.72
34.74
34.81
33.93
32.35
30.35
28.01
25.19
21.55
16.79
10.84
4.02
-2.99
-9.35
-14.34
-17.61
-19.4
-20.37
-21.46
-23.45
-26.68
-30.91
-35.49
-39.61
-42.75
-44.87
-46.48
-48.37
-51.44
-56.38
-63.4
-72.05
-81.01
-88.1
-90.68
-86.38
-74.01
-54.17
-29.26
-2.86
21.35
40.66
53.88
61.29
64.15
63.97
62.06
59.35
56.36
53.42
50.73
48.46
46.71
45.51
44.76
44.29
43.9
43.42
42.74
41.79
40.54
38.89
36.7
33.81
30.2
25.95
21.32
16.59
12.07
7.94
4.25
1.01
-1.81
-4.23
-6.31
-8.2
-10.15
-12.51
-15.61
-19.59
-24.3
-29.35
-34.2
-38.39
-41.71
-44.32
-46.72
-49.67
-53.98
-60.24
-68.34
-77.28
-85.0
-88.87
-86.4
-76.22
-58.66
-35.86
-11.16
11.92
30.67
43.78
51.38
54.59
54.89
53.58
51.51
49.08
46.45
43.79
41.34
39.41
38.22
37.74
37.63
37.42
36.73
35.41
33.69
31.93
30.4
29.04
27.46
25.03
21.28
16.08
9.84
3.32
-2.58
-7.16
-10.15
-11.8
-12.76
-13.89
-15.85
-18.92
-22.84
-26.98
-30.58
-33.13
-34.57
-35.37
-36.31
-38.31
-42.1
-48.07
-55.97
-64.79
-72.71
-77.35
-76.36
-68.18
-52.76
-31.75
-8.16
14.59
33.59
47.19
55.21
58.46
58.24
55.71
51.65
46.53
40.8
35.02
29.92
26.25
24.49
24.62
26.18
28.36
30.36
31.63
31.97
31.45
30.25
28.47
26.06
22.85
18.66
13.48
7.53
1.33
-4.47
-9.28
-12.75
-14.96
-16.37
-17.7
-19.67
-22.7
-26.83
-31.6
-36.35
-40.43
-43.48
-45.58
-47.17
-48.95
-51.7
-56.06
-62.41
-70.55
-79.49
-87.3
-91.44
-89.38
-79.5
-61.88
-38.47
-12.61
11.97
32.3
46.83
55.57
59.59
60.44
59.47
57.55
55.16
52.48
49.75
47.22
45.24
44.02
43.55
43.54
43.63
43.47
42.93
42.05
40.94
39.59
