24.6
39.03
48.48
53.74
55.87
55.79
54.18
51.54
48.39
45.2
42.37
40.11
38.41
37.12
35.97
34.76
33.43
32.04
30.74
29.67
28.8
27.9
26.54
24.23
20.63
15.71
9.83
3.71
-1.82
-6.11
-8.89
-10.4
-11.31
-12.45
-14.51
-17.7
-21.79
-26.12
-29.98
-32.9
-34.85
-36.34
-38.11
-41.0
-45.71
-52.49
-60.96
-69.92
-77.38
-80.91
-78.36
-68.65
-52.25
-31.26
-8.71
12.29
29.48
41.92
49.79
53.99
55.52
55.12
53.28
50.36
46.76
43.04
39.73
37.23
35.68
34.89
34.47
34.06
33.49
32.79
32.09
31.48
30.85
29.83
27.94
24.76
20.13
14.27
7.78
1.48
-3.83
-7.7
-10.15
-11.66
-13.04
-15.0
-17.9
-21.58
-25.48
-28.93
-31.44
-32.97
-33.91
-34.98
-36.93
-40.45
-45.85
-52.93
-60.7
-67.41
-70.81
-68.77
-60.06
-44.97
-25.3
-3.89
16.25
32.81
44.62
51.62
54.45
53.95
50.93
46.06
40.06
33.72
27.91
23.39
20.62
19.62
20.04
21.24
22.63
23.79
24.5
24.76
24.49
23.48
21.41
17.97
13.1
7.15
0.8
-5.11
-9.91
-13.33
-15.62
-17.38
-19.36
-22.1
-25.72
-29.94
-34.19
-37.86
-40.58
-42.43
-43.89
-45.84
-49.3
-54.98
-62.93
-72.19
-80.71
-85.78
-84.85
-76.45
-60.75
-39.68
-16.31
6.16
25.24
39.65
49.3
54.81
57.11
57.04
55.31
52.53
49.25
46.01
43.2
41.07
39.71
39.03
38.82
38.84
38.86
38.7
38.25
37.44
36.24
34.54
32.23
29.2
25.3
20.49
14.9
8.85
2.84
-2.53
-6.78
-9.71
-11.52
-12.81
-14.31
-16.64
-20.0
-24.16
-28.52
-32.44
-35.51
-37.75
-39.61
-41.8
-45.12
-50.17
-57.18
-65.67
-74.38
-81.24
-83.82
-80.02
-68.82
-50.84
-28.34
-4.5
17.45
35.17
47.65
55.1
58.52
59.09
57.86
55.52
52.57
49.32
46.05
43.04
40.54
38.74
37.69
37.3
37.31
37.34
37.1
36.39
35.23
33.73
31.94
29.7
26.71
22.6
17.23
10.84
4.09
-2.13
-7.02
-10.2
-11.84
-12.61
-13.37
-14.81
-17.18
-20.21
-23.29
-25.82
-27.45
-28.29
-28.83
-29.75
-31.73
-35.27
-40.59
-47.47
-55.09
-61.94
-66.0
-65.22
-58.26
-45.08
-27.23
-7.39
11.41
26.75
37.48
43.69
46.34
46.54
45.18
42.7
39.34
35.38
31.29
27.71
25.16
23.94
23.93
24.76
25.88
26.86
27.43
27.5
27.11
26.19
24.62
22.14
18.51
13.68
7.9
1.81
-3.77
-8.12
-10.96
-12.59
-13.78
-15.39
-17.99
-21.55
-25.57
-29.3
-32.21
-34.21
-35.71
-37.44
-40.19
-44.62
-51.0
-59.02
-67.6
-74.88
-78.61
-76.73
-68.21
-53.51
-34.56
-14.16
4.87
20.56
32.07
39.61
43.97
46.01
46.44
45.7
44.09
41.86
39.3
36.75
34.55
32.97
32.14
31.92
32.0
31.99
31.57
30.63
29.23
27.54
25.59
23.26
20.27
16.37
11.49
5.93
0.27
-4.8
-8.71
-11.23
-12.6
-13.41
-14.4
-16.16
-18.96
-22.65
-26.73
-30.65
-33.97
-36.56
-38.57
-40.36
-42.43
-45.33
-49.6
-55.61
-63.19
-71.33
-78.11
-81.04
-77.89
-67.51
-50.49
-29.03
-6.26
14.77
31.93
44.35
52.26
56.47
57.92
57.44
55.62
52.97
49.94
46.91
44.19
41.96
40.27
39.06
38.18
37.45
36.68
35.71
34.45
32.8
30.75
28.23
25.22
21.6
17.33
12.44
7.12
1.74
-3.24
-7.39
-10.49
-12.65
-14.29
-15.95
-18.15
-21.15
-24.9
-29.04
-33.1
-36.61
-39.31
-41.24
-42.76
-44.5
-47.23
-51.68
-58.23
-66.58
-75.54
-83.02
-86.51
-83.84
-73.93
-57.32
-36.08
-13.24
8.15
25.81
38.65
46.68
50.7
51.76
50.86
48.74
45.91
42.75
39.58
36.74
34.6
33.5
33.56
34.68
36.51
38.56
40.31
41.28
41.15
39.72
36.92
32.81
27.65
21.86
15.94
10.35
5.31
0.8
-3.41
-7.58
-11.87
-16.19
-20.27
-23.79
-26.58
-28.8
-30.88
-33.56
-37.66
-43.81
-52.09
-61.73
-70.96
-77.27
-78.1
-71.69
-57.86
-38.17
-15.52
6.78
25.98
40.54
50.2
55.62
57.79
57.57
55.58
52.26
48.06
43.58
39.45
36.25
34.29
33.54
33.7
34.36
35.16
35.88
36.48
36.85
36.79
35.87
33.57
29.5
23.63
16.43
8.81
1.79
-3.87
-7.97
-10.95
-13.62
-16.82
-20.99
-26.01
-31.32
-36.17
-40.03
-42.78
-44.81
-46.94
-50.1
-55.19
-62.62
-72.0
-81.87
-89.84
-93.09
-89.28
-77.43
-58.44
-34.92
-10.35
11.97
29.82
42.41
50.19
54.27
55.9
56.04
55.32
54.09
52.59
51.11
49.92
49.29
49.32
49.88
50.64
51.15
50.98
49.96
48.13
45.7
42.89
39.82
36.37
32.35
27.59
22.06
15.99
9.79
3.96
-1.05
-5.03
-8.02
-10.32
-12.33
-14.52
-17.21
-20.55
-24.45
-28.6
-32.58
-36.04
-38.82
-41.09
-43.34
-46.28
-50.64
-56.92
-65.08
-74.24
-82.7
-88.09
-88.06
-80.98
-66.6
-46.33
-22.89
0.44
20.78
36.33
46.66
52.4
54.79
55.09
54.22
52.72
50.88
48.89
47.01
45.52
44.63
44.4
44.67
45.16
45.57
45.66
45.29
44.4
42.97
40.97
38.37
35.09
31.1
26.38
21.04
15.3
9.52
4.13
-0.5
-4.16
-6.91
-9.06
-11.11
-13.56
-16.76
-20.81
-25.46
-30.23
-34.58
-38.07
-40.59
-42.34
-43.87
-45.87
-49.09
-54.02
-60.75
-68.62
-76.14
-81.17
-81.34
-74.94
-61.5
-42.24
-19.76
2.71
22.27
37.14
46.87
52.1
53.9
53.31
51.03
47.47
43.04
38.32
34.07
31.05
29.73
30.1
31.67
33.67
35.37
36.34
36.5
36.08
35.26
34.06
32.21
29.31
25.1
19.57
13.16
6.56
0.56
-4.25
-7.68
-9.96
-11.68
-13.58
-16.27
-20.03
-24.66
-29.61
-34.16
-37.78
-40.37
-42.3
-44.33
-47.41
-52.38
-59.65
-68.87
-78.69
-86.87
-90.7
-87.81
-77.05
-59.06
-36.16
-11.72
10.93
29.4
42.67
50.95
55.23
56.71
56.38
54.93
52.84
50.38
47.84
45.46
43.51
42.16
41.46
41.27
41.32
41.3
40.98
40.26
39.18
37.75
35.94
33.63
30.6
26.71
21.91
16.37
10.46
4.64
-0.59
-4.88
-8.17
-10.7
-12.98
-15.59
-18.92
-22.99
-27.47
-31.81
-35.52
-38.36
-40.43
-42.12
-44.02
-46.71
-50.74
-56.51
-64.05
-72.78
-81.27
-87.31
-88.42
-82.62
-69.32
-49.66
-26.34
-2.79
17.9
33.74
44.27
50.16
52.67
53.0
51.94
49.91
47.18
44.08
41.07
38.65
37.15
36.58
36.63
36.81
36.71
36.17
35.33
34.47
33.73
32.98
31.73
29.39
25.56
20.26
14.01
7.69
2.16
-2.05
-4.94
-7.07
-9.2
-12.0
-15.75
-20.22
-24.77
-28.64
-31.35
-32.9
-33.86
-35.18
-37.89
-42.76
-50.03
-59.11
-68.62
-76.45
-80.29
-78.23
-69.44
-54.57
-35.69
-15.68
2.6
17.11
27.02
32.6
34.75
34.43
32.31
28.81
24.33
19.43
14.99
11.91
10.77
11.62
13.85
16.57
18.96
20.63
21.67
22.37
22.92
23.1
22.34
20.04
15.86
10.07
3.44
-3.03
-8.46
-12.45
-15.14
-17.11
-19.11
-21.73
-25.14
-29.14
-33.2
-36.76
-39.53
-41.57
-43.4
-45.87
-50.0
-56.6
-65.91
-77.19
-88.54
-97.16
-100.05
-94.99
-81.39
-60.67
-35.86
-10.66
11.69
29.25
41.59
49.42
53.95
56.33
57.35
57.45
56.97
56.3
55.86
56.04
57.04
58.72
60.7
62.4
63.36
63.33
62.39
60.82
58.93
56.86
54.46
51.34
47.04
41.3
34.27
26.52
18.92
12.26
6.98
2.93
-0.48
-4.09
-8.5
-13.87
-19.85
-25.81
-31.12
-35.52
-39.19
-42.71
-46.87
-52.43
-60.01
-69.78
-81.23
-92.93
-102.55
-107.33
-104.79
-93.69
-74.56
-49.74
-22.65
3.2
25.19
42.02
53.7
61.02
64.97
66.41
65.86
63.75
60.55
56.86
53.38
50.75
49.29
48.92
49.26
49.75
49.95
49.68
48.97
47.84
46.18
43.66
39.88
34.68
28.28
21.33
14.68
9.09
4.82
1.54
-1.47
-5.01
-9.54
-15.01
-20.84
-26.28
-30.7
-33.95
-36.41
-38.92
-42.56
-48.29
-56.64
-67.24
-78.69
-88.6
-93.99
-92.28
-82.15
-64.25
-41.14
-16.48
6.12
24.18
36.89
44.82
49.28
51.51
52.22
51.62
49.72
46.68
43.0
39.4
36.59
35.0
34.68
35.31
36.39
37.39
37.85
37.52
36.26
34.08
30.97
27.0
22.19
16.62
10.41
3.75
-3.07
-9.71
-15.83
-21.12
-25.47
-28.95
-31.86
-34.64
-37.83
-41.98
-47.56
-54.84
-63.63
-73.0
-81.19
-85.79
-84.43
-75.59
-59.36
-37.66
-13.71
8.97
27.6
40.92
49.13
53.4
55.03
54.89
53.35
50.47
46.45
41.84
37.49
34.32
32.87
33.15
34.61
36.42
37.79
38.17
37.36
35.41
32.46
28.64
24.04
18.77
12.94
6.76
0.44
-5.81
-11.82
-17.42
-22.46
-26.8
-30.37
-33.24
-35.7
-38.24
-41.49
-46.12
-52.61
-61.04
-70.73
-80.12
-86.88
-88.46
-82.91
-69.63
-49.78
-26.06
-1.87
19.64
36.42
47.86
54.47
57.26
57.22
55.03
51.11
45.96
40.31
35.09
31.26
29.4
29.6
31.34
33.84
36.26
37.95
38.57
37.98
36.2
33.36
29.57
25.05
20.0
14.59
8.93
3.05
-2.93
-8.85
-14.38
-19.19
-23.01
-25.8
-27.82
-29.6
-31.82
-35.17
-40.27
-47.4
-56.28
-65.86
-74.18
-78.77
-77.24
-68.21
-51.93
-30.48
-7.11
14.73
32.45
44.91
52.33
55.69
56.0
53.93
49.8
43.99
37.21
30.61
25.44
22.64
22.4
24.17
26.85
29.27
30.58
30.38
28.7
25.86
22.22
18.05
13.51
8.59
3.2
-2.72
-9.1
-15.62
-21.79
-27.09
-31.14
-33.92
-35.79
-37.45
-39.73
-43.47
-49.25
-57.18
-66.65
-76.16
-83.45
-85.98
-81.65
-69.6
-50.69
-27.34
-2.88
19.41
37.2
49.49
56.6
59.58
59.68
57.85
54.74
50.77
46.39
42.18
38.77
36.62
35.85
36.15
36.99
37.86
38.44
38.59
38.26
37.23
35.11
31.49
26.18
19.44
11.99
4.75
-1.45
-6.27
-9.95
-13.19
-16.78
-21.22
-26.47
-31.98
-36.98
-40.87
-43.57
-45.59
-47.9
-51.62
-57.68
-66.43
-77.35
-88.78
-98.13
-102.28
-98.55
-85.65
-64.4
-37.65
-9.49
16.01
36.04
49.65
57.58
61.48
63.07
63.51
63.27
62.36
60.76
58.64
56.47
54.77
53.94
53.96
54.45
54.83
54.6
53.56
51.83
49.69
47.41
44.98
42.14
38.47
33.64
27.65
20.94
14.27
8.52
4.33
1.85
0.63
-0.22
-1.66
-4.38
-8.51
-13.63
-18.99
-23.86
-27.84
-31.02
-33.95
-37.46
-42.43
-49.51
-58.95
-70.31
-82.3
-92.78
-99.08
-98.71
-90.14
-73.49
-50.74
-25.25
-0.76
19.65
34.35
43.26
47.47
48.51
47.69
45.86
43.44
40.68
37.94
35.71
34.44
34.34
35.2
36.43
37.36
37.48
36.72
35.39
33.93
32.67
31.54
30.12
27.85
24.29
19.44
13.68
7.73
2.37
-1.83
-4.72
-6.56
-7.99
-9.71
-12.35
-16.11
-20.8
-25.82
-30.47
-34.19
-36.89
-38.92
-41.03
-44.15
-49.08
-56.23
-65.32
-75.16
-83.73
-88.44
-86.83
-77.46
-60.52
-38.01
-13.17
10.48
30.14
44.36
53.06
57.02
57.3
54.86
50.45
44.77
38.65
33.05
28.88
26.75
26.76
28.47
31.07
33.7
35.69
36.7
36.72
35.84
34.07
31.21
26.92
21.04
13.75
5.74
-1.99
-8.38
-12.8
-15.27
-16.45
-17.4
-19.06
-21.92
-25.81
-30.08
-33.93
-36.83
-38.77
-40.31
-42.48
-46.37
-52.87
-62.11
-73.2
-84.1
-91.93
-93.68
-87.21
-72.09
-49.88
-23.85
2.08
24.5
41.31
52.1
57.75
59.73
59.47
57.86
55.38
52.24
48.77
45.48
43.01
41.8
41.9
42.89
44.02
44.59
44.23
43.02
41.35
39.6
37.83
35.73
32.74
28.33
22.32
15.02
7.16
-0.29
-6.45
-10.84
-13.51
-15.07
-16.43
-18.4
-21.43
-25.41
-29.76
-33.77
-36.93
-39.2
-41.04
-43.22
-46.56
-51.73
-59.08
-68.39
-78.73
-88.25
-94.43
-94.62
-86.89
-70.93
-48.33
-22.31
3.33
25.32
41.81
52.53
58.39
60.76
60.85
59.37
56.71
53.14
49.14
45.31
42.31
40.56
40.07
40.46
41.13
41.52
41.33
40.56
39.44
38.1
36.51
34.31
31.08
26.46
20.44
13.42
6.12
-0.6
-6.03
-9.88
-12.36
-14.09
-15.88
-18.41
-21.94
-26.19
-30.57
-34.39
-37.23
-39.19
-40.82
-42.99
-46.56
-52.18
-59.96
-69.37
-79.08
-87.03
-90.77
-88.12
-77.89
-60.49
-37.96
-13.52
9.44
28.28
41.71
49.76
53.41
53.86
52.13
48.9
44.63
39.81
35.1
31.17
28.6
27.62
28.01
29.25
30.73
31.94
32.53
32.3
31.09
28.73
25.13
20.32
14.61
8.51
2.57
-2.82
-7.56
-11.82
-15.85
-19.84
-23.8
-27.52
-30.78
-33.44
-35.63
-37.71
-40.24
-43.87
-49.15
-56.35
-65.19
-74.62
-82.72
-87.07
-85.32
-76.09
-59.56
-37.67
-13.58
9.25
28.1
41.61
49.83
53.76
54.67
53.63
51.3
48.1
44.39
40.64
37.39
35.08
33.88
33.63
33.96
34.44
34.79
34.92
34.85
34.54
33.73
32.0
28.9
24.18
18.04
11.12
4.36
-1.37
-5.59
-8.43
-10.54
-12.8
-15.95
-20.24
-25.31
-30.45
-34.89
-38.22
-40.6
-42.75
-45.71
-50.52
-57.78
-67.38
-78.18
-88.09
-94.4
-94.47
-86.61
-70.75
-48.68
-23.6
0.86
21.71
37.34
47.66
53.66
56.66
57.71
57.38
55.88
53.38
50.23
47.05
44.49
42.95
42.46
42.61
42.8
42.49
41.45
39.74
37.65
35.45
33.2
30.67
27.49
23.28
17.98
11.91
5.75
0.33
-3.73
-6.24
-7.63
-8.71
-10.43
-13.42
-17.76
-22.92
-28.03
-32.27
-35.25
-37.23
-38.99
-41.67
-46.26
-53.3
-62.59
-73.03
-82.64
-88.98
-89.67
-83.08
-69.02
-48.92
-25.52
-2.17
18.18
33.72
44.01
49.74
52.15
52.38
51.18
48.92
45.84
42.27
38.75
35.9
34.19
33.73
34.23
35.18
35.98
36.23
35.72
34.4
32.25
29.22
25.27
20.46
15.04
9.46
4.18
-0.54
-4.68
-8.48
-12.24
-16.12
-20.06
-23.78
-27.02
-29.69
-31.98
-34.37
-37.52
-42.09
-48.54
-56.85
-66.19
-74.85
-80.48
-80.6
-73.55
-59.11
-38.86
-15.73
6.89
26.15
40.47
49.7
54.66
56.53
56.23
54.31
51.07
46.91
42.46
38.58
36.0
35.03
35.45
36.6
37.71
38.26
38.12
37.41
36.3
34.76
32.5
29.11
24.39
18.48
11.92
5.52
-0.01
-4.29
-7.51
-10.28
-13.37
-17.32
-22.23
-27.66
-32.85
-37.14
-40.24
-42.47
-44.72
-48.14
-53.76
-62.07
-72.53
-83.52
-92.47
-96.46
-93.12
-81.47
-62.41
-38.56
-13.49
9.36
27.63
40.49
48.45
52.74
54.63
54.98
54.21
52.5
50.13
47.56
45.35
43.96
43.49
43.69
44.08
44.18
43.77
42.94
41.94
41.0
40.11
38.96
37.06
33.97
29.53
23.89
17.58
11.25
5.59
1.03
-2.31
-4.74
-6.88
-9.48
-13.11
-17.93
-23.62
-29.45
-34.61
-38.61
-41.46
-43.74
-46.35
-50.24
-56.14
-64.31
-74.32
-84.92
-94.04
-99.08
-97.54
-87.93
-70.45
-47.12
-21.37
3.1
23.36
37.99
47.17
52.12
54.36
55.08
54.88
53.93
52.27
50.08
47.79
45.88
44.69
44.22
44.18
44.14
43.77
42.98
41.94
40.9
39.94
38.86
37.19
34.36
30.04
24.3
17.7
11.06
5.18
0.58
-2.75
-5.3
-7.81
-10.98
-15.15
-20.16
-25.42
-30.16
-33.79
-36.13
-37.51
-38.69
-40.62
-44.21
-50.0
-58.01
-67.48
-76.85
-83.92
-86.22
-81.79
-69.92
-51.53
-29.09
-5.91
14.85
31.06
42.04
48.29
50.97
51.2
49.69
46.78
42.77
38.13
33.64
30.2
28.46
28.59
30.21
32.58
34.89
36.59
37.39
37.25
36.13
33.93
30.47
25.68
19.74
13.13
6.59
0.78
-3.84
-7.3
-10.05
-12.79
-16.1
-20.26
-25.07
-29.95
-34.25
-37.52
-39.82
-41.73
-44.27
-48.61
-55.55
-65.12
-76.19
-86.51
-93.19
-93.47
-85.71
-69.97
-48.17
-23.54
0.39
20.76
35.98
45.88
51.33
53.63
53.99
53.23
51.77
49.85
47.7
45.63
44.08
43.36
43.56
44.44
45.55
46.37
46.55
45.98
44.74
43.0
40.84
38.22
34.98
30.95
26.07
20.48
14.48
8.49
3.01
-1.61
-5.18
-7.8
-9.84
-11.77
-14.14
-17.24
-21.14
-25.57
-30.14
-34.4
-38.06
-41.09
-43.75
-46.62
-50.41
-55.92
-63.65
-73.38
-83.93
-93.06
-97.98
-96.06
-85.92
-67.91
-44.27
-18.43
5.99
26.2
40.86
50.04
54.79
56.51
56.48
55.55
54.2
52.68
51.11
49.65
48.47
47.72
47.45
47.58
47.9
48.13
48.07
47.56
46.58
45.11
43.11
40.46
37.05
32.88
28.06
22.91
17.79
13.0
8.69
4.89
1.55
-1.4
-4.03
-6.45
-8.81
-11.35
-14.3
-17.8
-21.84
-26.17
-30.46
-34.37
