51.22
48.65
45.4
41.83
38.42
35.81
34.49
34.61
35.9
37.81
39.68
41.01
41.59
41.41
40.57
39.13
37.04
34.16
30.34
25.6
20.06
14.06
8.02
2.36
-2.52
-6.38
-9.22
-11.26
-12.93
-14.8
-17.36
-20.85
-25.18
-29.94
-34.59
-38.64
-41.91
-44.57
-47.15
-50.41
-55.19
-62.11
-71.25
-81.81
-91.91
-98.83
-99.7
-92.44
-76.65
-53.95
-27.62
-1.55
20.9
37.78
48.73
54.63
56.91
56.94
55.72
53.84
51.71
49.63
47.86
46.62
45.96
45.77
45.8
45.76
45.43
44.72
43.72
42.54
41.3
39.94
38.21
35.84
32.64
28.62
24.04
19.23
14.52
10.13
6.15
2.64
-0.35
-2.75
-4.65
-6.34
-8.28
-11.02
-14.91
-19.94
-25.69
-31.46
-36.61
-40.79
-44.09
-46.98
-50.2
-54.48
-60.38
-68.07
-77.01
-85.84
-92.42
-94.22
-89.13
-76.29
-56.61
-32.65
-7.89
14.33
31.77
43.6
50.31
53.09
53.24
51.86
49.67
47.18
44.74
42.66
41.11
40.2
39.88
39.92
40.02
39.86
39.22
38.1
36.63
35.05
33.37
31.38
28.65
24.76
19.56
13.38
6.97
1.23
-3.17
-6.1
-7.99
-9.71
-12.09
-15.62
-20.2
-25.27
-30.01
-33.72
-36.12
-37.48
-38.53
-40.26
-43.68
-49.44
-57.58
-67.26
-76.7
-83.45
-84.92
-79.26
-66.02
-46.51
-23.5
-0.34
19.97
35.55
45.94
51.74
54.04
53.89
52.0
48.82
44.79
40.5
36.68
34.04
33.02
33.6
35.29
37.33
39.01
39.84
39.67
38.63
36.96
34.8
32.12
28.79
24.61
19.5
13.6
7.25
1.02
-4.46
-8.7
-11.5
-13.09
-14.08
-15.25
-17.22
-20.24
-24.05
-28.07
-31.71
-34.67
-37.11
-39.56
-42.74
-47.36
-53.92
-62.56
-72.79
-83.31
-91.92
-95.95
-93.01
-81.88
-63.12
-39.14
-13.45
10.34
29.58
43.12
51.21
55.02
55.96
55.17
53.46
51.24
48.82
46.45
44.42
42.96
42.18
41.98
42.09
42.17
41.95
41.31
40.21
38.75
36.92
34.66
31.89
28.53
24.65
20.44
16.2
12.18
8.53
5.25
2.28
-0.43
-2.94
-5.29
-7.64
-10.24
-13.36
-17.14
-21.43
-25.88
-30.0
-33.49
-36.3
-38.74
-41.33
-44.64
-49.22
-55.4
-63.11
-71.63
-79.39
-84.11
-83.37
-75.52
-60.38
-39.57
-16.12
6.52
25.47
39.2
47.58
51.45
52.06
50.5
47.58
43.89
39.97
36.33
33.48
31.7
31.03
31.22
31.91
32.69
33.31
33.68
33.77
33.51
32.71
31.05
28.18
23.89
18.26
11.72
4.99
-1.16
-6.21
-10.07
-13.15
-16.13
-19.57
-23.66
-28.09
-32.22
-35.49
-37.69
-39.15
-40.66
-43.22
-47.73
-54.66
-63.66
-73.4
-81.66
-85.73
-83.2
-72.84
-55.19
-32.56
-8.32
14.08
32.16
44.86
52.5
56.18
57.08
56.08
53.62
49.98
45.54
40.94
36.98
34.44
33.64
34.38
36.0
37.6
38.48
38.31
37.18
35.46
33.47
31.26
28.64
25.25
20.8
15.33
9.24
3.22
-1.98
-5.85
-8.26
-9.59
-10.53
-11.91
-14.41
-18.3
-23.33
-28.92
-34.3
-38.86
-42.38
-45.16
-47.9
-51.53
-56.97
-64.76
-74.75
-85.81
-95.78
-101.91
-101.46
-92.7
-75.6
-52.04
-25.3
0.88
23.33
40.23
51.22
57.12
59.35
59.31
58.15
56.56
54.9
53.29
51.76
50.31
48.98
47.85
46.9
46.1
45.36
44.57
43.67
42.57
41.2
39.41
37.01
33.87
29.96
25.41
20.49
15.53
10.78
6.39
2.43
-1.1
-4.21
-6.87
-9.11
-11.08
-13.05
-15.38
-18.33
-21.99
-26.12
-30.26
-33.94
-36.86
-39.12
-41.17
-43.77
-47.77
-53.86
-62.25
-72.47
-83.03
-91.65
-95.66
-92.75
-81.86
-63.62
-40.41
-15.59
7.43
26.13
39.33
47.17
50.69
51.2
49.93
47.76
45.28
42.84
40.73
39.22
38.47
38.55
39.2
39.99
40.36
39.97
38.83
37.31
35.89
34.88
34.11
32.98
30.76
26.95
21.69
15.68
9.93
5.26
1.94
-0.42
-2.63
-5.52
-9.53
-14.48
-19.74
-24.52
-28.22
-30.68
-32.32
-33.94
-36.53
-41.03
-48.01
-57.35
-68.0
-77.91
-84.38
-84.73
-77.26
-61.91
-40.52
-16.28
7.24
27.14
41.82
51.12
55.84
57.16
56.14
53.54
49.91
45.74
41.61
38.1
35.72
34.73
35.03
36.2
37.61
38.63
38.82
38.04
36.42
34.22
31.67
28.88
25.76
22.15
17.86
12.86
7.32
1.67
-3.58
-7.9
-11.02
-13.01
-14.31
-15.63
-17.64
-20.73
-24.88
-29.62
-34.31
-38.39
-41.61
-44.17
-46.65
-49.77
-54.31
-60.81
-69.41
-79.56
-89.78
-97.8
-100.91
-96.85
-84.52
-64.7
-39.91
-13.75
10.14
29.18
42.29
49.92
53.45
54.49
54.31
53.67
52.84
51.85
50.77
49.68
48.76
48.1
47.68
47.35
46.98
46.49
45.86
45.09
44.14
42.82
40.9
38.16
34.54
30.19
25.42
20.58
15.94
11.69
7.86
4.42
1.34
-1.41
-3.87
-6.18
-8.51
-11.14
-14.28
-18.01
-22.18
-26.45
-30.41
-33.82
-36.71
-39.48
-42.74
-47.26
-53.64
-62.14
-72.39
-83.19
-92.47
-97.63
-96.15
-86.54
-69.01
-45.6
-19.73
4.84
25.13
39.64
48.43
52.61
53.66
52.8
50.79
48.04
44.9
41.85
39.45
38.21
38.3
39.46
41.09
42.52
43.3
43.34
42.84
42.03
40.98
39.37
36.76
32.72
27.18
20.54
13.52
7.03
1.74
-2.1
-4.71
-6.71
-8.87
-11.79
-15.68
-20.29
-25.06
-29.35
-32.74
-35.27
-37.42
-40.02
-43.98
-49.98
-58.15
-67.8
-77.29
-84.21
-85.97
-80.57
-67.42
-47.67
-24.02
0.08
21.44
38.02
49.18
55.5
58.09
58.05
56.1
52.69
48.17
43.12
38.33
34.64
32.65
32.48
33.71
35.55
37.22
38.18
38.28
37.7
36.66
35.31
33.54
31.07
27.6
22.97
17.26
10.85
4.31
-1.74
-6.82
-10.71
-13.55
-15.77
-17.97
-20.7
-24.27
-28.63
-33.39
-37.98
-41.87
-44.77
-46.81
-48.47
-50.6
-54.12
-59.82
-67.94
-77.82
-87.76
-95.18
-97.26
-91.82
-78.19
-57.59
-32.87
-7.64
14.81
32.39
44.49
51.73
55.36
56.72
56.85
56.4
55.75
55.07
54.49
54.01
53.62
53.22
52.7
52.0
51.1
50.09
49.02
47.92
46.66
44.98
42.58
39.18
34.71
29.39
23.61
17.87
12.56
7.81
3.61
-0.21
-3.79
-7.16
-10.25
-13.05
-15.63
-18.22
-21.15
-24.64
-28.75
-33.32
-37.98
-42.34
-46.13
-49.32
-52.15
-55.1
-58.83
-63.96
-70.81
-79.08
-87.54
-94.14
-96.33
-91.93
-79.93
-61.05
-37.61
-12.91
9.81
28.2
41.31
49.39
53.46
54.68
54.02
52.1
49.4
46.34
43.45
41.25
40.08
39.97
40.57
41.32
41.72
41.54
40.87
40.0
39.13
38.2
36.83
34.5
30.8
25.68
19.53
13.06
7.05
2.08
-1.7
-4.6
-7.25
-10.35
-14.29
-19.03
-24.06
-28.67
-32.3
-34.91
-36.95
-39.25
-42.78
-48.27
-55.95
-65.37
-75.26
-83.52
-87.6
-85.21
-75.07
-57.55
-34.75
-10.0
13.22
32.19
45.62
53.67
57.36
57.98
56.55
53.67
49.7
45.03
40.26
36.23
33.7
33.08
34.23
36.43
38.73
40.25
40.57
39.76
38.22
36.36
34.3
31.89
28.72
24.44
19.01
12.79
6.45
0.74
-3.77
-6.99
-9.33
-11.57
-14.53
-18.7
-24.07
-30.09
-35.95
-40.94
-44.73
-47.51
-49.83
-52.47
-56.16
-61.5
-68.73
-77.45
-86.4
-93.45
-95.93
-91.47
-78.92
-58.97
-34.11
-7.91
16.05
35.24
48.65
56.63
60.37
61.24
60.4
58.59
56.29
53.79
51.39
49.4
48.09
47.58
47.8
48.5
49.36
50.07
50.41
50.23
49.5
48.16
46.2
43.59
40.29
36.3
31.64
26.38
20.74
15.04
9.68
5.01
1.16
-2.0
-4.83
-7.75
-11.08
-14.99
-19.35
-23.92
-28.36
-32.34
-35.7
-38.44
-40.87
-43.53
-47.14
-52.34
-59.44
-68.0
-76.72
-83.6
-86.37
-83.23
-73.5
-57.89
-38.4
-17.71
1.52
17.33
28.77
35.93
39.54
40.64
40.14
38.72
36.76
34.52
32.24
30.23
28.82
28.15
28.14
28.48
28.79
28.83
28.55
28.06
27.39
26.4
24.69
21.81
17.5
11.9
5.55
-0.76
-6.24
-10.46
-13.43
-15.67
-17.86
-20.61
-24.11
-28.08
-31.91
-34.97
-37.05
-38.41
-39.87
-42.44
-47.05
-54.13
-63.36
-73.51
-82.5
-87.81
-87.07
-78.89
-63.39
-42.39
-18.84
4.0
23.5
38.26
48.15
53.82
56.15
55.79
53.17
48.66
42.91
36.91
31.83
28.63
27.71
28.77
30.96
33.3
35.0
35.74
35.6
34.87
33.73
32.12
29.75
26.3
21.63
15.92
9.69
3.67
-1.47
-5.34
-7.98
-9.86
-11.71
-14.24
-17.82
-22.35
-27.34
-32.14
-36.23
-39.45
-42.08
-44.73
-48.25
-53.47
-60.99
-70.82
-81.98
-92.47
-99.44
-99.95
-92.03
-75.47
-52.14
-25.45
0.68
23.04
39.84
50.87
57.01
59.59
59.89
58.79
56.89
54.54
52.07
49.73
47.74
46.21
45.13
44.43
44.02
43.87
43.95
44.23
44.52
44.54
43.96
42.49
40.08
36.83
32.97
28.69
24.08
19.23
14.27
9.49
5.28
1.9
-0.64
-2.73
-4.97
-7.96
-11.98
-16.91
-22.26
-27.4
-31.86
-35.44
-38.35
-40.99
-43.96
-47.88
-53.32
-60.65
-69.67
-79.36
-87.7
-92.04
-89.89
-79.81
-62.18
-39.26
-14.52
8.5
27.17
40.37
48.38
52.34
53.55
53.02
51.39
49.07
46.38
43.72
41.48
40.01
39.48
39.89
41.08
42.75
44.57
46.22
47.42
48.0
47.85
46.97
45.32
42.81
39.32
34.75
29.17
22.9
16.55
10.81
6.18
2.8
0.34
-1.89
-4.6
-8.25
-12.86
-17.94
-22.87
-27.01
-30.14
-32.44
-34.44
-36.83
-40.27
-45.27
-52.01
-60.17
-68.72
-75.84
-79.15
-76.38
-66.18
-48.8
-26.22
-1.67
21.37
40.24
53.55
61.27
64.25
63.54
60.01
54.36
47.23
39.47
32.15
26.4
22.96
22.0
22.94
24.72
26.2
26.59
25.67
23.75
21.39
18.96
16.5
13.67
10.0
5.19
-0.66
-7.01
-13.03
-17.94
-21.29
-23.15
-24.13
-25.11
-26.9
-29.87
-33.88
-38.23
-42.11
-44.87
-46.4
-47.12
-47.88
-49.62
-53.14
-58.92
-66.81
-75.9
-84.39
-89.82
-89.63
-81.92
-66.27
-44.06
-18.16
7.86
30.82
48.63
60.68
67.5
70.3
70.38
68.8
66.26
63.19
59.84
56.43
53.2
50.34
47.99
46.13
44.62
43.29
41.95
40.47
38.73
36.59
33.91
30.51
26.32
21.44
16.1
10.65
5.45
0.73
-3.45
-7.18
-10.58
-13.74
-16.66
-19.28
-21.54
-23.51
-25.39
-27.51
-30.19
-33.62
-37.68
-42.03
-46.13
-49.55
-52.1
-53.97
-55.76
-58.29
-62.39
-68.52
-76.29
-84.25
-89.98
-90.71
-84.19
-69.67
-48.27
-22.8
3.17
26.34
44.58
57.16
64.55
67.8
68.05
66.2
62.91
58.69
54.03
49.37
45.16
41.72
39.2
37.51
36.44
35.72
35.13
34.52
33.83
32.96
31.79
30.11
27.72
24.52
20.57
16.05
11.23
6.39
1.77
-2.44
-6.13
-9.24
-11.73
-13.66
-15.22
-16.74
-18.64
-21.28
-24.82
-29.08
-33.61
-37.83
-41.29
-43.84
-45.76
-47.68
-50.44
-54.83
-61.18
-69.07
-77.08
-82.91
-83.94
-78.14
-64.84
-45.17
-21.78
1.95
23.01
39.41
50.48
56.62
58.74
57.78
54.58
49.81
44.2
38.53
33.66
30.26
28.74
29.02
30.65
32.95
35.22
37.03
38.18
38.7
38.53
37.42
34.92
30.58
24.29
16.53
8.23
0.56
-5.6
-9.98
-12.99
-15.52
-18.45
-22.26
-26.86
-31.67
-35.97
-39.21
-41.28
-42.56
-43.83
-46.05
-50.14
-56.65
-65.45
-75.43
-84.43
-89.67
-88.46
-79.18
-61.93
-38.71
-12.84
12.02
32.9
48.17
57.65
62.2
63.15
61.73
58.77
54.81
50.25
45.58
41.39
38.28
36.64
36.44
37.25
38.41
39.33
39.67
39.4
38.66
37.56
36.06
33.95
30.96
26.92
21.79
15.78
9.24
2.71
-3.26
-8.17
-11.76
-14.18
-15.96
-17.88
-20.7
-24.85
-30.22
-36.28
-42.25
-47.49
-51.76
-55.29
-58.77
-63.06
-68.97
-77.0
-86.99
-97.86
-107.54
-113.22
-112.11
-102.3
-83.65
-57.99
-28.72
0.23
25.51
45.09
58.49
66.37
70.01
70.72
69.54
67.2
64.24
61.09
58.18
55.9
54.52
54.1
54.42
55.09
55.65
55.78
55.37
54.47
53.17
51.44
49.14
46.01
41.93
36.91
31.19
25.16
19.26
13.88
9.26
5.48
2.4
-0.32
-3.14
-6.53
-10.75
-15.86
-21.55
-27.34
-32.7
-37.24
-40.88
-43.96
-47.12
-51.2
-57.02
-65.04
-75.04
-85.83
-95.23
-100.53
-99.2
-89.8
-72.57
-49.62
-24.25
0.04
20.53
35.82
45.81
51.28
53.24
52.67
50.3
46.8
42.83
39.05
36.04
34.19
33.6
34.13
35.42
37.05
38.63
39.88
40.65
40.81
40.19
38.54
35.63
31.35
25.89
19.72
13.49
7.77
2.85
-1.42
-5.43
-9.66
-14.37
-19.45
-24.45
-28.79
-32.09
-34.37
-36.22
-38.66
-42.83
-49.56
-58.92
-69.89
-80.35
-87.41
-88.27
-81.07
-65.71
-43.96
-19.05
5.33
26.11
41.61
51.63
57.06
59.21
59.21
57.78
55.3
52.06
48.45
45.02
42.33
40.85
40.69
41.59
43.0
44.27
44.87
44.58
43.45
41.73
39.57
36.96
33.67
29.36
23.84
17.28
10.21
3.38
-2.48
-6.96
-10.16
-12.54
-14.85
-17.75
-21.62
-26.47
-31.9
-37.31
-42.1
-45.9
-48.72
-51.0
-53.53
-57.23
-62.99
-71.19
-81.46
-92.34
-101.37
-105.56
-102.36
-90.48
-70.64
-45.43
-18.57
6.21
26.22
40.37
49.07
53.63
55.57
56.13
56.06
55.66
55.01
54.16
53.21
52.31
51.63
51.2
50.97
50.79
50.47
49.92
49.12
48.07
46.69
44.83
42.29
38.95
34.84
30.22
25.41
20.72
16.29
12.11
8.1
4.25
0.67
-2.45
-5.0
-7.11
-9.17
-11.69
-15.11
-19.53
-24.69
-30.08
-35.16
-39.61
-43.47
-47.16
-51.35
-56.81
-64.19
-73.65
-84.57
-95.29
-103.27
-105.61
-100.05
-85.84
-64.24
-38.29
-11.86
11.49
29.56
41.78
48.94
52.45
53.69
53.59
52.63
51.09
49.22
47.36
45.92
45.24
45.44
46.38
47.69
48.91
49.64
49.63
48.85
47.44
45.56
43.29
40.55
37.12
32.82
27.64
21.82
15.87
10.41
5.91
2.54
0.05
-2.11
-4.57
-7.78
-11.86
-16.58
-21.45
-25.97
-29.78
-32.77
-35.15
-37.35
-39.96
-43.61
-48.86
-56.05
-64.96
-74.56
-82.93
-87.52
-85.88
-76.5
-59.58
-37.16
-12.57
10.58
29.52
42.95
51.07
54.99
55.95
54.86
52.11
47.95
42.77
37.34
32.72
29.84
29.21
30.64
33.43
36.61
39.32
41.06
41.67
41.22
39.91
37.83
34.98
31.32
26.85
21.65
15.94
10.08
4.45
-0.63
-4.93
-8.47
-11.38
-13.97
-16.58
-19.55
-23.09
-27.17
-31.57
-35.89
-39.71
-42.85
-45.41
-47.85
-50.9
-55.34
-61.79
-70.38
-80.46
-90.37
-97.55
-99.19
-93.03
-78.34
-56.36
-30.1
-3.44
20.08
38.14
50.13
56.77
59.49
59.77
58.7
56.93
54.82
52.67
50.75
49.3
48.42
48.01
47.81
47.55
47.07
46.41
45.69
45.04
44.36
43.31
41.42
38.35
34.02
28.74
23.11
17.77
13.16
9.39
6.17
3.08
-0.27
-3.99
-7.86
-11.49
-14.58
-17.07
-19.27
-21.68
-24.74
-28.61
-33.13
-37.85
-42.27
-46.05
-49.15
-51.86
-54.77
-58.65
-64.2
-71.73
-80.73
-89.65
-96.0
-97.02
-90.55
-75.93
-54.42
-28.93
-3.15
19.52
36.85
48.17
54.13
56.14
55.7
53.96
51.56
48.82
45.93
43.18
40.97
39.71
39.51
40.21
41.31
42.24
42.57
42.15
41.1
39.66
38.0
36.11
33.8
30.84
27.06
22.5
17.37
12.03
6.91
2.4
-1.26
-4.01
-5.99
-7.54
-9.14
-11.29
-14.3
-18.17
-22.57
-26.99
-30.91
-34.09
-36.64
-39.01
-41.84
-45.78
-51.42
-59.0
-68.1
-77.48
-84.96
-87.84
-83.76
-71.62
-52.18
-28.1
-3.07
19.35
36.78
48.45
54.99
57.69
57.76
55.97
52.69
48.18
42.95
37.75
33.49
30.87
30.15
31.09
33.09
35.47
37.63
39.2
39.97
39.83
38.66
36.32
32.8
28.18
22.74
16.86
10.94
5.28
0.09
-4.51
-8.48
-11.79
-14.47
-16.63
-18.49
-20.41
-22.76
-25.84
-29.71
-34.19
-38.85
-43.24
-47.02
-50.08
-52.62
-55.12
-58.26
-62.77
-69.17
-77.29
-86.02
-93.14
-95.83
-91.48
-78.78
-58.35
-32.79
-5.88
18.62
37.98
51.12
58.4
61.15
60.89
58.89
55.99
52.69
49.37
46.36
44.0
42.54
42.04
42.31
42.94
43.53
43.77
43.59
43.07
42.31
41.26
39.63
37.08
33.38
28.65
23.33
17.99
13.11
8.86
5.12
1.6
-1.91
-5.42
-8.73
-11.61
-13.98
-15.99
-18.05
-20.61
-23.98
-28.14
-32.71
-37.16
-41.02
-44.08
-46.53
-48.83
-51.67
-55.72
-61.5
-69.12
-77.91
-86.26
-91.76
-91.74
-84.24
-68.8
-46.91
-21.64
3.28
24.63
40.52
50.56
55.57
56.85
55.68
52.97
49.32
45.21
41.1
37.51
34.91
33.59
33.51
34.31
35.41
36.22
36.41
35.92
34.99
33.88
32.69
31.17
28.84
25.24
20.2
14.05
7.54
1.59
-3.09
-6.32
-8.47
-10.32
-12.68
-15.96
-20.07
-24.41
-28.23
-31.0
-32.74
-34.01
-35.74
-38.88
-44.14
-51.7
-61.11
-71.12
-79.75
-84.55
-83.18
-74.21
-57.79
-35.78
-11.37
11.9
31.2
45.04
53.36
57.12
57.56
55.68
52.1
47.19
41.46
35.69
30.87
27.87
27.09
28.24
30.48
32.79
34.39
35.03
34.91
34.45
33.92
33.16
31.63
28.69
23.87
17.28
9.57
1.78
-5.02
-10.16
-13.62
-15.99
-18.2
-21.1
-25.07
-29.93
-35.0
-39.54
-43.03
-45.39
-47.08
-48.88
-51.77
-56.65
-64.07
-73.82
-84.69
-94.4
-99.98
-98.66
-88.83
-70.8
-46.89
-20.68
4.06
24.53
39.44
48.97
54.14
56.24
56.29
54.99
52.82
50.22
47.68
45.63
44.41
44.1
44.54
45.36
46.12
46.48
46.24
45.44
44.22
42.75
41.05
38.96
36.18
32.41
27.52
21.63
15.15
8.77
3.17
-1.13
-4.02
-5.86
-7.37
-9.35
-12.37
-16.54
-21.46
-26.44
-30.79
-34.21
-36.85
-39.34
-42.56
-47.41
-54.5
-63.91
-74.89
-85.73
-93.91
-96.63
-91.69
-78.31
-57.6
-32.44
-6.58
16.42
34.22
46.07
52.63
55.29
55.47
54.22
52.1
49.44
46.52
43.74
41.5
40.12
39.61
39.71
39.94
39.89
39.36
38.42
37.33
36.32
35.4
34.3
32.5
29.49
24.99
19.15
12.58
6.18
0.87
-2.83
-4.99
-6.27
-7.62
-9.85
-13.29
-17.59
-21.95
-25.56
-27.96
-29.36
-30.49
-32.42
-36.1
-42.17
-50.7
-61.01
-71.63
-80.37
-84.71
-82.46
-72.54
-55.49
-33.47
-9.67
12.6
30.84
43.88
51.86
55.69
56.48
55.11
52.11
47.87
42.84
37.77
33.6
31.13
30.82
32.48
35.33
38.31
40.52
41.46
41.16
40.0
38.38
36.42
33.95
30.62
26.16
20.62
14.45
8.4
3.31
-0.28
-2.26
-3.07
-3.59
-4.86
-7.7
-12.39
-18.61
-25.57
-32.37
-38.34
-43.33
-47.69
-52.06
-57.18
-63.67
-71.92
-81.8
-92.42
-101.95
-107.71
-106.9
-97.56
-79.49
-54.64
-26.62
0.4
23.06
39.56
49.89
55.19
57.06
56.84
55.39
53.23
50.7
48.22
46.18
44.9
44.44
44.6
45.02
45.39
45.52
45.42
45.2
44.88
44.33
43.27
41.36
38.43
34.53
29.99
25.23
20.58
16.22
12.17
8.35
4.77
1.53
-1.21
-3.4
-5.19
-6.9
-8.97
-11.66
-14.93
-18.45
-21.78
-24.52
-26.55
-28.04
-29.36
-30.92
-33.11
-36.25
-40.54
-45.86
-51.46
-55.79
-56.59
-51.33
-38.19
-16.77
11.45
43.45
75.43
103.93
126.71
143.08
153.77
160.44
165.14
169.86
176.2
185.21
196.98
210.4
222.88
230.65
229.53
216.11
189.2
150.49
104.49
57.22
14.31
-20.68
-47.1
-66.84
-83.0
-98.42
-114.75
-132.24
-150.43
-168.76
-187.06
-205.43
-223.82
-241.69
-257.93
-271.04
-279.6
-282.4
-278.72
-268.45
-252.23
-231.58
-208.72
-186.06
-165.53
-147.99
-133.13
-119.9
-107.15
-94.24
-81.15
-68.3
-56.08
-44.59
-33.58
-22.7
-11.85
-1.43
7.72
14.54
18.1
17.93
14.17
7.52
-0.96
-10.17
-19.16
-27.15
-33.54
-37.68
-38.93
-36.76
-31.02
-22.11
-11.02
0.89
12.17
21.75
29.09
34.34
38.1
41.18
44.35
48.13
52.78
58.32
64.67
71.66
79.05
86.56
93.85
100.61
106.79
112.49
118.07
123.83
129.86
135.85
141.16
144.98
146.62
145.65
141.89
135.35
126.18
114.72
101.7
88.24
75.64
64.96
56.59
50.04
44.21
37.92
30.53
22.18
13.68
5.99
-0.23
-4.85
-8.17
-10.6
-12.3
-13.22
-13.19
-12.36
-11.19
-10.52
-11.14
-13.51
-17.55
-22.58
-27.71
-32.01
-34.92
-36.3
-36.39
-35.76
-34.97
-34.52
-34.62
-35.22
-36.0
-36.55
-36.6
-36.13
-35.36
-34.75
-34.73
-35.53
-37.11
-39.14
-41.16
-42.76
-43.79
-44.45
-45.29
-47.06
-50.57
-56.41
-64.66
-74.61
-84.55
-91.91
-93.87
-88.18
-74.19
-53.31
-28.8
-4.8
15.01
28.53
35.65
37.85
37.22
35.54
33.72
31.83
29.61
26.88
23.85
21.04
18.94
17.73
17.15
16.7
15.85
14.36
12.31
10.0
7.69
5.42
2.98
-0.09
-4.26
-9.8
-16.67
-24.47
-32.48
-39.95
-46.36
-51.65
-56.29
-61.09
-66.92
-74.31
-83.27
-93.33
-103.72
-113.7
-122.86
-131.33
-139.67
-148.85
-159.8
-173.17
-189.01
-206.57
-224.27
-239.86
-250.7
-254.21
-248.54
-232.98
-208.21
-176.08
-138.95
-98.93
-57.25
-14.24
30.02
74.91
118.61
158.4
191.55
216.56
233.94
246.08
256.11
266.61
278.6
291.45
303.6
313.66
321.3
327.34
333.35
340.9
350.88
363.3
377.41
391.86
404.99
415.03
420.26
419.31
411.38
396.37
374.78
347.52
315.52
279.7
240.92
200.06
158.14
116.13
74.71
34.0
-6.52
-47.81
-90.9
-136.34
-183.9
-232.35
-279.64
-323.38
-361.53
-393.03
-418.17
-438.34
-455.42
-470.85
-484.97
-496.86
-504.78
-506.97
-502.34
-490.69
-472.57
-448.74
-419.83
-386.27
-348.54
-307.42
-264.1
-219.97
-176.27
-133.89
-93.52
-55.89
-22.08
6.55
28.7
43.79
52.24
55.41
55.16
53.25
50.89
48.65
46.59
44.46
41.78
37.85
31.76
22.68
10.42
-4.08
-18.49
-29.47
-33.67
-28.88
-14.98
5.88
30.04
53.56
73.37
88.08
97.86
103.98
107.88
110.63
112.64
113.84
114.0
113.09
111.43
109.62
108.34
107.97
108.55
109.66
110.69
111.03
110.3
108.41
105.52
101.86
97.52
92.48
86.52
79.45
71.17
61.86
51.93
42.02
32.79
24.69
17.89
12.13
6.84
1.21
-5.63
-14.44
-25.57
-38.72
-52.71
-65.42
-74.26
-76.73
-71.3
-57.94
-38.31
-15.28
7.97
28.77
45.62
58.26
67.39
74.1
79.39
83.9
87.83
91.11
93.61
95.27
96.18
96.48
96.32
95.85
95.21
94.59
94.18
94.16
94.53
95.0
95.11
94.23
91.91
87.97
82.65
76.48
70.19
64.4
59.49
55.48
52.02
48.58
44.65
39.99
34.7
29.2
23.93
19.15
14.74
10.21
4.95
-1.49
-9.1
-17.43
-25.68
-33.11
-39.28
-44.32
-48.89
-54.03
-60.84
-70.08
-81.73
-94.66
-106.59
-114.51
-115.52
-107.9
-91.77
-69.18
-43.55
-18.5
3.18
20.09
32.24
40.53
46.19
50.31
53.7
56.88
60.06
63.24
66.16
68.52
70.03
70.56
70.24
69.35
68.26
67.29
66.68
66.46
66.51
66.47
65.92
64.42
61.73
57.86
53.04
47.69
42.24
37.1
32.55
28.75
25.73
23.36
21.32
19.17
16.51
13.11
9.08
4.76
0.66
-2.88
-5.84
-8.58
-11.71
-15.79
-21.04
-27.28
-33.94
-40.32
-45.84
-50.32
-54.0
-57.47
-61.59
-67.18
-74.85
-84.57
-95.46
-105.65
-112.59
-113.64
-107.01
-92.45
-71.53
-47.25
-23.06
-1.89
14.62
26.21
33.69
38.34
41.33
43.5
45.31
46.96
48.48
49.85
51.0
51.83
52.24
52.16
51.6
50.67
49.6
48.66
48.02
47.71
47.47
46.86
45.38
42.67
38.71
33.83
28.68
23.92
20.07
17.27
15.24
13.47
11.43
8.73
5.37
1.61
-2.14
-5.59
-8.7
-11.75
-15.23
-19.63
-25.19
-31.72
-38.66
-45.22
-50.66
-54.55
-57.0
-58.6
-60.32
-63.24
-68.19
-75.35
-83.9
-92.0
-97.14
-96.8
-89.36
-74.74
-54.55
-31.65
-9.26
10.0
24.73
34.77
40.86
44.08
45.43
45.62
45.1
44.2
43.2
42.32
41.69
41.32
41.13
41.0
40.87
40.77
40.81
41.01
41.28
41.36
40.87
39.44
36.92
33.35
29.04
24.42
19.89
15.65
11.71
7.9
4.06
0.14
-3.76
-7.43
-10.7
-13.51
-16.01
-18.44
-21.03
-23.9
-27.02
-30.27
-33.52
-36.73
-39.99
-43.57
-47.86
-53.34
-60.4
-69.11
-78.83
-88.08
-94.65
-96.16
-90.86
-78.39
-60.05
-38.46
-16.78
2.24
16.97
26.98
32.86
35.62
36.28
35.6
34.09
32.07
29.85
27.74
26.04
25.0
24.69
25.03
25.83
26.84
27.88
28.81
29.56
30.05
30.16
29.71
28.54
26.59
23.9
20.68
17.15
13.56
10.05
6.65
3.35
0.12
-2.94
-5.7
-8.02
-9.97
-11.76
-13.79
-16.4
-19.71
-23.57
-27.61
-31.46
-34.93
-38.11
-41.33
-45.11
-49.98
-56.36
-64.27
-73.07
-81.3
-86.87
-87.58
-81.86
-69.46
-51.69
-31.14
-10.81
6.74
20.05
28.8
33.6
35.41
35.16
33.58
31.18
28.44
25.79
23.65
22.37
22.1
22.8
24.22
25.97
27.68
29.11
30.19
30.96
31.45
31.49
30.69
28.58
24.82
19.48
13.13
6.66
0.92
-3.58
-6.89
-9.53
-12.21
-15.47
-19.47
-23.88
-28.13
-31.66
-34.23
-36.02
-37.66
-39.96
-43.76
-49.59
-57.48
-66.7
-75.77
-82.6
-84.96
-81.16
-70.71
-54.59
-35.01
-14.74
3.68
18.63
29.52
36.61
40.54
41.94
41.33
39.13
35.82
32.01
28.39
25.59
24.04
23.9
24.98
26.87
29.12
31.32
33.23
34.68
35.45
35.25
33.74
30.7
26.23
20.76
14.97
9.51
4.8
0.89
-2.5
-5.72
-9.05
-12.52
-15.97
-19.12
-21.73
-23.78
-25.49
-27.3
-29.85
-33.77
-39.46
-46.78
-54.84
-61.97
-66.01
-64.96
-57.59
-44.06
-25.95
-5.81
13.55
29.87
41.97
49.8
54.03
55.58
55.21
53.34
50.24
46.19
41.63
37.13
33.27
30.35
28.31
26.82
25.46
23.99
22.37
20.73
19.17
17.58
15.63
12.9
9.09
4.17
-1.56
-7.6
-13.45
-18.85
-23.83
-28.64
-33.6
-38.87
-44.36
-49.78
-54.76
-59.05
-62.71
-66.1
-69.92
-75.05
-82.24
-91.79
-103.09
-114.43
-123.19
-126.54
-122.31
-109.93
-90.68
-67.3
-43.17
-21.2
-3.21
10.26
19.6
25.58
28.93
30.14
29.6
27.82
25.56
23.74
23.24
24.55
27.61
31.85
36.4
40.48
43.66
45.85
47.23
47.94
47.93
46.92
44.49
40.38
34.62
27.63
20.1
12.82
6.35
0.86
-3.92
-8.58
-13.67
-19.41
-25.58
-31.64
-36.96
-41.16
-44.25
-46.72
-49.33
-52.96
-58.42
-66.15
-76.01
-87.02
-97.27
-104.24
-105.39
-98.98
-84.75
-64.17
-39.96
-15.32
6.98
25.2
38.72
47.8
53.07
55.16
54.6
51.84
47.45
42.2
37.08
33.1
31.14
31.64
34.5
39.2
44.89
50.78
56.31
61.2
65.35
68.69
71.03
72.12
71.8
70.2
67.76
65.25
63.47
63.03
64.24
66.96
70.71
74.81
78.6
81.62
83.77
85.42
87.31
90.23
94.69
100.52
106.83
112.07
114.47
112.51
105.3
92.92
76.59
58.58
41.83
29.35
23.39
24.68
32.09
42.9
53.6
61.09
63.4
60.16
52.25
41.15
28.29
14.65
0.73
-13.17
-26.68
-39.26
-50.3
-59.34
-66.21
-71.08
-74.29
-76.23
-77.19
-77.42
-77.1
-76.53
-75.99
-75.74
-75.87
-76.3
-76.75
-76.97
-76.74
-75.96
-74.61
-72.7
-70.29
-67.48
-64.54
-61.87
-59.95
-59.14
-59.51
-60.77
-62.28
-63.37
-63.57
-62.83
-61.56
-60.49
-60.43
-62.05
-65.73
-71.22
-77.59
-83.06
-85.31
-82.07
-71.87
-54.72
-32.37
-7.79
15.73
35.59
50.43
60.18
65.55
67.37
66.28
62.71
57.19
50.68
44.48
40.03
38.31
39.57
43.1
47.61
51.69
54.34
55.19
54.45
52.55
49.72
45.8
40.39
33.2
24.35
14.66
5.34
-2.42
-7.92
-11.24
-13.2
-15.0
-17.67
-21.71
-26.88
-32.43
-37.4
-41.09
-43.34
-44.6
-45.81
-48.09
-52.44
-59.36
-68.63
-79.06
-88.58
-94.47
-94.09
-85.73
-69.29
-46.55
-20.68
4.66
26.38
42.74
53.47
59.38
61.74
61.69
59.99
57.11
53.43
49.45
45.8
43.12
41.82
41.89
42.89
44.1
44.85
44.75
43.78
42.21
40.29
38.07
35.29
31.57
26.59
20.35
13.26
6.07
-0.35
-5.33
-8.57
-10.3
-11.18
-12.07
-13.72
-16.5
-20.34
-24.76
-29.15
-32.99
-36.08
-38.54
-40.79
-43.43
-47.16
-52.52
-59.7
-68.25
-76.86
-83.5
-85.81
-81.81
-70.59
-52.75
-30.37
-6.47
15.78
33.91
46.59
53.79
56.41
55.74
53.04
49.21
44.79
40.17
35.76
32.08
29.68
28.89
29.61
31.33
33.26
34.63
35.03
34.38
32.9
30.83
28.28
25.19
21.45
17.01
12.0
6.66
1.35
-3.57
-7.77
-11.02
-13.27
-14.7
-15.77
-17.03
-19.01
-21.89
-25.52
-29.42
-32.98
-35.81
-37.87
-39.52
-41.38
-44.13
-48.36
-54.37
-61.95
-70.23
-77.65
-82.1
-81.47
-74.4
-60.82
-42.22
-21.24
-0.92
16.26
28.93
36.92
40.9
41.83
40.55
37.67
33.65
29.04
24.5
20.75
18.36
17.53
18.05
19.34
20.75
21.79
22.28
22.33
22.17
21.88
21.29
19.98
17.49
13.63
8.58
3.01
-2.28
-6.58
-9.57
-11.47
-12.87
-14.47
-16.79
-19.91
-23.55
-27.17
-30.23
-32.43
-33.86
-34.89
-36.21
-38.6
-42.8
-49.21
-57.57
-66.77
-74.84
-79.35
-78.13
-70.01
-55.31
-35.91
-14.66
5.45
22.13
34.25
41.84
45.71
46.9
46.25
44.33
41.44
37.91
34.21
30.87
28.48
27.35
27.52
28.7
30.5
32.47
34.29
35.71
36.48
