43.23
43.21
42.99
42.74
42.5
42.27
42.08
42.0
42.1
42.32
42.51
42.42
41.87
40.87
39.56
38.16
36.78
35.36
33.67
31.46
28.55
24.92
20.72
16.24
11.84
7.91
4.69
2.22
0.29
-1.56
-3.82
-6.82
-10.57
-14.75
-18.84
-22.36
-25.1
-27.2
-29.12
-31.56
-35.31
-40.98
-48.84
-58.44
-68.43
-76.66
-80.66
-78.32
-68.83
-53.0
-33.19
-12.62
5.68
19.66
28.7
33.36
34.97
34.95
34.4
33.97
33.87
34.07
34.46
34.98
35.64
36.46
37.42
38.34
39.01
39.21
38.85
38.01
36.93
35.81
34.68
33.36
31.5
28.74
24.87
20.02
14.61
9.28
4.65
1.11
-1.28
-2.82
-4.03
-5.44
-7.42
-10.06
-13.21
-16.54
-19.72
-22.49
-24.81
-26.88
-29.05
-31.91
-36.03
-41.88
-49.44
-57.92
-65.7
-70.52
-70.15
-63.2
-49.79
-31.66
-11.7
6.93
21.82
31.86
37.24
39.0
38.42
36.5
33.83
30.79
27.72
25.08
23.35
22.79
23.32
24.53
25.83
26.74
27.15
27.24
27.38
27.71
28.05
27.86
26.49
23.53
19.02
13.57
8.01
3.2
-0.4
-2.8
-4.48
-6.14
-8.38
-11.47
-15.26
-19.28
-22.94
-25.79
-27.75
-29.17
-30.74
-33.31
-37.67
-44.21
-52.62
-61.75
-69.61
-73.84
-72.37
-64.17
-49.71
-30.89
-10.6
8.24
23.42
33.91
39.88
42.29
42.41
41.34
39.82
38.18
36.58
35.08
33.81
32.94
32.6
32.78
33.29
33.82
34.1
33.97
33.48
32.75
31.92
30.99
29.86
28.3
26.14
23.26
19.75
15.82
11.84
8.12
4.92
2.35
0.33
-1.34
-3.01
-5.0
-7.61
-10.93
-14.86
-19.08
-23.16
-26.72
-29.59
-31.87
-34.01
-36.7
-40.67
-46.47
-54.09
-62.65
-70.41
-75.02
-74.22
-66.68
-52.59
-33.8
-13.2
6.07
21.72
32.66
39.05
41.84
42.16
40.98
38.97
36.57
34.18
32.18
30.85
30.31
30.46
31.0
31.54
31.75
31.51
30.86
30.0
29.11
28.22
27.18
25.64
23.24
19.78
15.36
10.44
5.64
1.63
-1.24
-2.95
-3.93
-4.81
-6.2
-8.43
-11.45
-14.83
-18.01
-20.49
-22.09
-23.03
-23.83
-25.25
-28.02
-32.69
-39.37
-47.45
-55.51
-61.48
-63.1
-58.68
-47.8
-31.59
-12.49
6.52
22.82
34.86
42.27
45.63
45.89
44.02
40.72
36.62
32.27
28.32
25.34
23.7
23.42
24.17
25.39
26.56
27.34
27.63
27.53
27.11
26.28
24.8
22.32
18.67
13.96
8.65
3.41
-1.17
-4.77
-7.5
-9.78
-12.13
-14.91
-18.2
-21.73
-25.05
-27.73
-29.59
-30.81
-31.92
-33.72
-37.07
-42.61
-50.31
-59.23
-67.49
-72.63
-72.29
-65.11
-51.36
-32.91
-12.77
5.94
20.86
30.94
36.42
38.36
38.05
36.54
34.55
32.47
30.57
29.08
28.16
27.87
28.08
28.5
28.77
28.6
27.89
26.75
25.46
24.35
23.52
22.76
21.6
19.45
15.92
11.06
5.36
-0.32
-5.13
-8.49
-10.35
-11.17
-11.72
-12.76
-14.78
-17.75
-21.26
-24.64
-27.32
-29.06
-30.11
-31.11
-32.89
-36.25
-41.72
-49.32
-58.38
-67.4
-74.2
-76.4
-72.17
-60.96
-43.92
-23.65
-3.43
13.87
26.51
34.18
37.66
38.22
37.07
35.08
32.73
30.33
28.06
26.1
24.58
23.53
22.93
22.64
22.55
22.58
22.72
22.97
23.32
23.59
23.44
22.43
20.23
16.77
12.41
7.76
3.52
0.13
-2.46
-4.66
-7.04
-10.01
-13.53
-17.13
-20.13
-22.04
-22.78
-22.86
-23.11
-24.47
-27.66
-32.89
-39.77
-47.19
-53.38
-56.31
-54.2
-46.22
-32.9
-16.12
1.41
17.07
29.05
36.73
40.52
41.37
40.25
37.8
34.43
30.48
26.36
22.64
19.88
18.48
18.48
19.61
21.36
23.14
24.49
25.11
24.88
23.77
21.74
18.71
14.7
9.86
4.58
-0.64
-5.35
-9.32
-12.65
-15.65
-18.7
-21.97
-25.37
-28.54
-31.09
-32.85
-33.99
-35.06
-36.85
-40.15
-45.41
-52.45
-60.19
-66.73
-69.74
-67.15
-57.96
-42.73
-23.59
-3.61
14.19
27.76
36.43
40.78
42.14
41.82
40.77
39.44
37.98
36.45
34.99
33.78
32.96
32.53
32.25
31.81
30.88
29.35
27.34
25.15
23.11
21.32
19.58
17.45
14.5
10.58
5.99
1.36
-2.58
-5.41
-7.24
-8.6
-10.24
-12.69
-16.02
-19.79
-23.33
-26.03
-27.66
-28.48
-29.17
-30.59
-33.56
-38.65
-45.97
-54.89
-63.98
-71.08
-73.73
-70.0
-59.21
-42.45
-22.31
-2.12
15.14
27.67
35.16
38.46
38.96
37.9
36.12
33.99
31.73
29.54
27.7
26.46
25.9
25.92
26.24
26.58
26.8
26.86
26.82
26.68
26.25
25.24
23.3
20.28
16.33
11.88
7.46
3.54
0.28
-2.48
-5.09
-7.91
-11.06
-14.35
-17.39
-19.76
-21.31
-22.21
-23.0
-24.36
-27.02
-31.44
-37.61
-44.81
-51.58
-55.91
-55.78
-49.82
-37.98
-21.69
-3.51
13.67
27.54
36.95
41.99
43.59
42.91
40.89
38.04
34.64
30.96
27.47
24.76
23.27
23.12
23.98
25.21
26.2
26.59
26.4
25.85
25.13
24.16
22.54
19.74
15.47
9.93
3.8
-1.97
-6.59
-9.8
-11.92
-13.69
-15.83
-18.68
-22.1
-25.58
-28.6
-30.89
-32.56
-34.09
-36.19
-39.62
-45.02
-52.53
-61.55
-70.47
-76.91
-78.33
-72.9
-60.34
-42.18
-21.33
-1.09
15.88
28.19
35.84
39.74
41.11
40.99
40.03
38.61
37.01
35.49
34.33
33.68
33.5
33.53
33.41
32.84
31.74
30.2
28.56
27.12
26.04
25.22
24.25
22.61
19.86
15.88
11.03
5.96
1.45
-1.96
-4.21
-5.78
-7.41
-9.78
-13.17
-17.38
-21.8
-25.74
-28.77
-30.85
-32.39
-34.12
-36.88
-41.41
-48.08
-56.58
-65.7
-73.42
-77.22
-74.93
-65.54
-49.72
-29.84
-9.17
9.08
22.8
31.42
35.65
36.92
36.65
35.8
34.85
33.94
33.12
32.45
31.97
31.67
31.48
31.29
31.03
30.76
30.56
30.48
30.46
30.26
29.61
28.22
25.9
22.67
18.73
14.4
10.0
5.79
1.88
-1.77
-5.26
-8.63
-11.81
-14.61
-16.87
-18.6
-20.1
-21.95
-24.95
-29.78
-36.75
-45.46
-54.62
-62.17
-65.79
-63.55
-54.73
-40.16
-22.07
-3.45
12.95
25.35
33.31
37.45
38.9
38.71
37.54
35.69
33.35
30.85
28.68
27.31
27.02
27.68
28.83
29.86
30.33
30.08
29.35
28.5
27.74
26.95
25.67
23.27
19.34
13.89
7.51
1.17
-4.14
-7.79
-9.76
-10.62
-11.28
-12.54
-14.82
-17.96
-21.43
-24.59
-27.06
-28.85
-30.5
-32.82
-36.74
-42.93
-51.5
-61.69
-71.78
-79.34
-81.78
-77.26
-65.38
-47.54
-26.59
-5.91
11.64
24.48
32.52
36.76
38.59
39.18
39.2
38.88
38.31
37.61
37.04
36.86
37.14
37.73
38.26
38.31
37.7
36.5
35.03
33.7
32.74
32.08
31.35
29.98
27.5
23.73
18.89
13.59
8.56
4.44
1.47
-0.53
-2.13
-4.05
-6.81
-10.6
-15.09
-19.67
-23.64
-26.57
-28.5
-29.91
-31.61
-34.46
-39.16
-45.98
-54.57
-63.81
-71.76
-76.1
-74.69
-66.4
-51.65
-32.46
-11.92
6.8
21.39
30.91
35.78
37.24
36.77
35.47
34.01
32.6
31.31
30.19
29.37
29.01
29.2
29.82
30.67
31.45
32.0
32.3
32.47
32.58
32.49
31.81
30.05
26.88
22.36
17.02
11.64
6.91
3.13
0.04
-2.92
-6.32
-10.34
-14.69
-18.74
-21.93
-24.09
-25.58
-27.19
-29.87
-34.37
-40.93
-49.06
-57.48
-64.23
-67.08
-64.15
-54.66
-39.3
-20.27
-0.57
16.89
30.11
38.5
42.66
43.8
43.12
41.4
39.05
36.24
33.24
30.52
28.63
27.96
28.54
29.96
31.55
32.65
32.92
32.38
31.33
30.13
28.89
27.41
25.28
22.15
17.95
12.99
7.89
3.35
-0.11
-2.33
-3.51
-4.18
-4.99
-6.49
-9.01
-12.5
-16.6
-20.73
-24.3
-27.04
-29.02
-30.74
-33.04
-36.79
-42.62
-50.51
-59.55
-67.87
-72.96
-72.38
-64.6
-49.66
-29.38
-6.87
14.41
31.65
43.39
49.63
51.44
50.36
47.8
44.78
41.87
39.35
37.33
35.88
34.99
34.59
34.57
34.77
35.08
35.4
35.68
35.84
35.74
35.18
33.94
31.78
28.51
24.05
18.4
11.71
4.31
-3.28
-10.45
-16.61
-21.42
-24.87
-27.31
-29.34
-31.5
-34.15
-37.25
-40.43
-43.17
-45.05
-45.9
-45.93
-45.67
-45.82
-47.12
-50.19
-55.35
-62.28
-69.84
-76.05
-78.43
-74.77
-64.05
-46.94
-25.81
-3.98
15.32
29.96
39.28
43.92
45.2
44.4
42.43
39.81
36.88
34.03
31.74
30.44
30.29
31.06
32.19
33.02
33.08
32.32
31.02
29.6
28.34
27.14
25.57
23.09
19.34
14.4
8.79
3.32
-1.22
-4.38
-6.24
-7.33
-8.45
-10.29
-13.15
-16.81
-20.71
-24.17
-26.8
-28.62
-30.13
-32.06
-35.2
-40.15
-47.05
-55.31
-63.49
-69.43
-70.75
-65.67
-53.77
-36.35
-16.13
3.67
20.33
32.41
39.82
43.42
44.37
43.61
41.74
39.19
36.41
33.93
32.19
31.45
31.62
32.36
33.24
33.92
34.21
34.06
33.5
32.56
31.28
29.66
27.66
25.25
22.38
19.05
15.38
11.56
7.82
4.35
1.24
-1.47
-3.76
-5.62
-7.12
-8.45
-9.97
-12.06
-15.0
-18.7
-22.76
-26.59
-29.7
-31.95
-33.63
-35.43
-38.12
-42.43
-48.75
-56.84
-65.74
-73.56
-77.86
-76.26
-67.34
-51.32
-30.25
-7.46
13.45
29.77
40.31
45.45
46.58
45.34
43.08
40.6
38.25
36.13
34.29
32.79
31.69
30.97
30.56
30.24
29.82
29.13
28.08
26.7
25.12
23.51
21.92
20.31
18.44
16.05
13.0
9.35
5.41
1.67
-1.43
-3.59
-4.81
-5.35
-5.66
-6.25
-7.56
-9.78
-12.87
-16.42
-19.9
-22.8
-24.83
-26.1
-27.1
-28.53
-31.15
-35.54
-41.94
-50.0
-58.61
-65.91
-69.65
-67.73
-59.05
-44.01
-24.61
-3.9
14.94
29.58
39.06
43.73
44.79
43.53
40.91
37.43
33.36
29.02
24.98
21.96
20.57
21.03
22.98
25.6
27.99
29.46
29.84
29.42
28.69
27.96
27.14
25.72
23.06
18.78
12.98
6.33
-0.18
-5.61
-9.47
-11.86
-13.44
-15.02
-17.29
-20.45
-24.22
-28.0
-31.14
-33.3
-34.57
-35.45
-36.7
-39.12
-43.4
-49.87
-58.24
-67.41
-75.37
-79.59
-77.69
-68.36
-52.07
-31.05
-8.69
11.58
27.34
37.71
43.23
45.29
45.3
44.31
42.83
41.07
39.14
37.27
35.77
34.85
34.57
34.69
34.86
34.75
34.2
33.27
32.15
31.03
29.95
28.74
27.14
24.91
21.96
18.36
14.34
10.2
6.15
2.37
-1.04
-4.0
-6.47
-8.46
-10.12
-11.69
-13.51
-15.87
-18.89
-22.42
-26.14
-29.58
-32.44
-34.63
-36.39
-38.25
-40.89
-44.99
-50.98
-58.71
-67.21
-74.58
-78.41
-76.4
-67.31
-51.52
-31.15
-9.41
10.4
25.89
36.12
41.56
43.49
43.3
42.01
40.12
37.86
35.4
33.07
31.33
30.54
30.76
31.74
32.99
34.01
34.55
34.64
34.5
34.34
34.2
33.79
32.69
30.49
26.95
22.22
16.73
11.11
6.01
1.86
-1.17
-3.27
-4.85
-6.42
-8.33
-10.73
-13.42
-16.06
-18.24
-19.72
-20.57
-21.22
-22.38
-24.81
-29.21
-35.9
-44.64
-54.47
-63.65
-69.99
-71.25
-65.97
-54.01
-36.8
-17.04
2.14
18.14
29.56
36.37
39.45
39.97
38.84
36.58
33.38
29.55
25.63
22.36
20.45
20.26
21.58
23.74
25.84
27.14
27.31
26.51
25.2
23.89
22.8
21.74
20.21
17.66
13.8
8.82
3.35
-1.75
-5.77
-8.4
-9.89
-10.87
-12.11
-14.16
-17.12
-20.67
-24.22
-27.14
-29.13
-30.29
-31.17
-32.57
-35.4
-40.34
-47.56
-56.41
-65.29
-71.82
-73.35
-67.83
-54.56
-34.61
-10.64
13.95
35.97
53.37
65.56
73.14
77.38
79.62
80.89
81.81
82.78
84.12
86.09
88.99
92.94
97.79
103.04
107.78
110.89
111.2
107.84
100.46
89.37
75.46
59.93
43.93
28.31
13.48
-0.59
-14.22
-27.76
-41.49
-55.48
-69.52
-83.09
-95.52
-106.0
-113.86
-118.72
-120.62
-120.0
-117.61
-114.27
-110.68
-107.3
-104.4
-102.12
-100.67
-100.36
-101.62
-104.66
-109.07
-113.49
-115.58
-112.57
-102.18
-83.57
-57.94
-28.28
1.47
27.64
47.75
60.96
67.83
69.81
68.55
65.61
62.25
59.42
57.77
57.64
58.92
61.07
63.26
64.46
63.86
61.08
56.33
50.36
44.15
38.52
33.82
29.83
25.89
21.28
15.54
8.67
1.21
-6.05
-12.3
-17.04
-20.23
-22.28
-23.85
-25.47
-27.35
-29.24
-30.63
-31.04
-30.28
-28.63
-26.85
-25.93
-26.95
-30.75
-37.56
-46.74
-56.6
-64.58
-67.92
-64.51
-53.72
-36.7
-16.13
4.73
23.02
37.06
46.46
51.84
54.18
54.37
53.03
50.51
47.22
43.73
40.77
39.07
39.12
40.96
44.14
47.87
51.3
53.69
54.55
53.72
51.17
46.96
41.2
34.1
25.97
17.25
8.41
-0.15
-8.15
-15.39
-21.73
-27.08
-31.36
-34.65
-37.18
-39.35
-41.68
-44.76
-49.07
-54.89
-61.95
-69.31
-75.31
-77.97
-75.55
-67.22
-53.47
-36.06
-17.44
-0.03
14.47
25.34
32.7
37.07
38.97
38.71
36.48
32.56
27.55
22.33
17.99
15.38
14.89
16.25
18.71
21.33
23.36
24.45
24.68
24.33
23.54
22.17
19.81
16.01
10.55
3.69
-3.88
-11.19
-17.31
-21.73
-24.48
-26.11
-27.49
-29.64
-33.35
-38.98
-46.29
-54.25
-61.12
-64.76
-63.23
-55.48
-41.76
-23.71
-3.89
14.96
30.7
42.25
49.59
53.4
54.55
53.73
51.35
47.73
43.28
38.63
34.59
31.89
30.89
31.37
32.64
33.77
33.98
32.92
30.78
28.11
25.44
22.95
20.34
17.01
12.36
6.18
-1.19
-8.92
-16.04
-21.83
-26.02
-28.94
-31.28
-33.93
-37.71
-43.23
-50.66
-59.58
-68.8
-76.38
-80.01
-77.63
-68.22
-52.3
-31.91
-10.07
10.22
26.76
38.61
45.97
49.75
51.01
50.66
49.34
47.49
45.49
43.61
42.03
40.83
39.85
38.95
37.98
36.95
35.99
35.29
34.93
34.75
34.37
33.24
30.85
26.95
21.68
15.62
9.51
4.02
-0.47
-4.05
-7.18
-10.39
-14.08
-18.26
-22.61
-26.64
-29.98
-32.66
-35.21
-38.55
-43.7
-51.49
-62.12
-74.79
-87.62
-97.82
-102.34
-98.79
-86.24
-65.77
-40.21
-13.38
11.02
30.39
43.71
51.4
54.81
55.54
54.95
53.95
52.98
52.2
51.6
51.05
50.45
49.66
48.6
47.26
45.72
44.14
42.73
41.6
40.71
39.8
38.46
36.21
32.8
28.27
23.05
17.84
13.3
9.82
7.33
5.36
3.26
0.52
-2.95
-6.83
-10.57
-13.68
-16.03
-17.91
-19.9
-22.57
-26.21
-30.67
-35.48
-39.96
-43.58
-46.09
-47.63
-48.82
-50.56
-53.9
-59.62
-67.75
-77.22
-85.78
-90.46
-88.49
-78.32
-60.29
-36.7
-11.1
12.79
32.14
45.57
53.17
56.02
55.68
53.68
51.22
49.14
47.8
47.19
47.0
46.82
46.3
45.23
43.64
41.72
39.73
37.93
36.5
35.51
34.77
33.91
32.45
29.96
26.27
21.64
16.62
11.91
8.02
5.06
2.75
0.54
-2.02
-5.14
-8.62
-11.99
-14.74
-16.59
-17.66
-18.5
-19.81
-22.14
-25.59
-29.79
-34.03
-37.6
-40.13
-41.76
-43.04
-44.76
-47.69
-52.37
-58.81
-66.3
-73.28
-77.51
-76.59
-68.8
-53.88
-33.36
-10.25
11.87
29.99
42.41
49.01
50.92
49.81
47.27
44.42
41.85
39.76
38.18
37.07
36.37
35.99
35.76
35.43
34.74
33.58
32.05
30.4
28.93
27.79
26.87
25.77
23.98
21.08
16.98
11.97
6.68
1.88
-1.81
-4.11
-5.22
-5.69
-6.25
-7.46
-9.48
-12.08
-14.68
-16.68
-17.77
-18.08
-18.13
-18.64
-20.13
-22.71
-26.05
-29.52
-32.49
-34.67
-36.15
-37.39
-39.03
-41.74
-46.02
-51.96
-58.95
-65.45
-69.22
-67.81
-59.57
-44.41
-24.12
-1.93
18.57
34.62
44.99
50.01
50.97
49.35
46.3
42.52
38.4
34.31
30.66
27.81
25.98
25.1
24.9
24.98
25.02
24.82
24.4
23.85
23.28
22.77
22.18
21.25
19.64
17.11
13.65
9.53
5.29
1.51
-1.37
-3.27
-4.46
-5.48
-6.83
-8.74
-11.1
-13.44
-15.3
-16.37
-16.77
-16.97
-17.65
-19.35
-22.25
-26.01
-29.94
-33.23
-35.35
-36.25
-36.33
-36.34
-37.12
-39.4
-43.59
-49.5
-56.11
-61.54
-63.39
-59.5
-48.79
-31.95
-11.42
9.39
27.17
39.78
46.65
48.6
47.08
43.6
39.26
34.73
30.41
26.59
23.53
21.42
20.33
20.18
20.75
21.71
22.74
23.58
24.1
24.28
24.19
23.78
22.88
21.18
18.39
14.45
9.71
4.86
0.69
-2.17
-3.58
-3.91
-3.92
-4.34
-5.61
-7.7
-10.16
-12.38
-13.88
-14.57
-14.75
-15.0
-15.92
-17.91
-20.9
-24.41
-27.7
-30.09
-31.26
-31.4
-31.14
-31.32
-32.78
-36.13
-41.56
-48.59
-55.92
-61.41
-62.56
-57.3
-44.91
-26.58
-5.22
15.42
32.07
42.9
47.87
