29.72
29.86
30.43
31.13
31.67
31.99
32.18
32.37
32.53
32.36
31.32
28.95
25.06
19.88
14.03
8.25
3.17
-0.84
-3.77
-5.89
-7.71
-9.73
-12.42
-15.96
-20.21
-24.76
-29.04
-32.58
-35.25
-37.32
-39.46
-42.48
-47.17
-54.0
-62.8
-72.6
-81.5
-87.06
-86.9
-79.52
-64.96
-44.92
-22.32
-0.4
18.23
32.18
41.29
46.33
48.4
48.56
47.61
46.11
44.51
43.13
42.22
41.91
42.13
42.68
43.23
43.41
42.98
41.9
40.3
38.45
36.52
34.56
32.42
29.87
26.65
22.61
17.81
12.51
7.14
2.21
-1.8
-4.7
-6.64
-8.14
-9.86
-12.43
-16.07
-20.58
-25.36
-29.72
-33.16
-35.56
-37.29
-39.02
-41.63
-45.9
-52.21
-60.33
-69.16
-76.81
-80.94
-79.38
-70.97
-56.0
-36.31
-14.77
5.61
22.45
34.58
42.02
45.6
46.44
45.61
43.89
41.82
39.82
38.21
37.23
37.0
37.43
38.27
39.14
39.72
39.83
39.46
38.71
37.63
36.08
33.7
30.05
24.91
18.46
11.38
4.57
-1.15
-5.4
-8.4
-10.81
-13.37
-16.59
-20.43
-24.46
-28.08
-30.86
-32.77
-34.23
-35.96
-38.82
-43.5
-50.22
-58.48
-66.9
-73.3
-75.28
-70.94
-59.68
-42.51
-21.88
-0.88
17.65
31.93
41.45
46.72
48.79
48.75
47.44
45.39
43.0
40.58
38.47
36.99
36.34
36.52
37.26
38.18
38.84
38.92
38.31
37.11
35.49
33.52
31.12
28.01
23.93
18.77
12.8
6.55
0.73
-4.04
-7.44
-9.53
-10.77
-11.83
-13.37
-15.81
-19.22
-23.24
-27.3
-30.84
-33.57
-35.62
-37.58
-40.29
-44.63
-51.2
-59.97
-70.15
-79.98
-87.12
-89.07
-84.07
-71.66
-53.09
-31.0
-8.65
11.05
26.24
36.44
42.27
44.91
45.55
45.06
43.92
42.39
40.7
39.1
37.85
37.15
37.0
37.17
37.35
37.21
36.61
35.61
34.44
33.34
32.33
31.22
29.58
26.99
23.2
18.33
12.87
7.51
2.93
-0.5
-2.92
-4.84
-6.95
-9.85
-13.69
-18.15
-22.58
-26.31
-28.97
-30.68
-32.05
-33.91
-37.1
-42.17
-49.23
-57.71
-66.28
-72.9
-75.24
-71.31
-60.25
-42.81
-21.29
1.03
20.95
36.27
46.18
51.21
52.58
51.56
49.08
45.63
41.54
37.21
33.21
30.16
28.51
28.31
29.19
30.52
31.74
32.48
32.66
32.34
31.54
30.07
27.61
23.86
18.79
12.75
6.42
0.51
-4.5
-8.57
-12.03
-15.39
-18.97
-22.77
-26.43
-29.44
-31.49
-32.68
-33.55
-35.03
-38.08
-43.45
-51.29
-60.87
-70.5
-77.76
-80.03
-75.38
-63.29
-44.98
-23.21
-1.4
17.41
31.39
40.21
44.72
46.3
46.22
45.3
43.88
42.1
40.11
38.19
36.65
35.75
35.54
35.82
36.31
36.71
36.88
36.78
36.46
35.88
34.97
33.55
31.43
28.48
24.64
19.94
14.53
8.73
3.0
-2.09
-6.11
-8.91
-10.77
-12.32
-14.28
-17.16
-20.98
-25.38
-29.74
-33.46
-36.31
-38.44
-40.3
-42.56
-45.92
-50.98
-58.09
-67.01
-76.63
-84.9
-89.17
-86.98
-77.02
-59.73
-37.42
-13.54
8.37
25.74
37.49
44.02
46.63
46.85
45.91
44.55
43.08
41.65
40.38
39.45
39.04
39.17
39.67
40.17
40.27
39.69
38.42
36.71
34.87
33.18
31.64
30.03
27.9
24.86
20.68
15.51
9.82
4.36
-0.18
-3.47
-5.64
-7.27
-9.09
-11.67
-15.16
-19.25
-23.41
-27.05
-29.86
-31.84
-33.36
-34.99
-37.4
-41.25
-46.98
-54.48
-62.86
-70.4
-74.75
-73.63
-65.62
-50.81
-30.93
-8.91
12.05
29.36
41.68
48.95
52.0
51.97
49.82
46.25
41.8
37.03
32.66
29.45
27.87
27.99
29.32
31.13
32.68
33.59
33.84
33.62
33.13
32.27
30.72
28.02
23.93
18.56
12.42
6.31
0.94
-3.31
-6.53
-9.22
-11.99
-15.27
-19.1
-23.12
-26.78
-29.64
-31.69
-33.34
-35.34
-38.6
-43.87
-51.52
-61.24
-71.78
-80.98
-86.1
-84.61
-75.16
-58.17
-35.94
-11.97
10.13
27.76
39.78
46.56
49.35
49.63
48.57
46.89
44.92
42.81
40.7
38.79
37.29
36.39
36.09
36.22
36.46
36.48
36.02
35.08
33.81
32.42
30.97
29.26
26.87
23.37
18.56
12.68
6.41
0.67
-3.78
-6.65
-8.2
-9.19
-10.5
-12.82
-16.34
-20.77
-25.45
-29.68
-33.02
-35.43
-37.36
-39.61
-43.06
-48.44
-56.02
-65.37
-75.23
-83.48
-87.63
-85.41
-75.62
-58.65
-36.62
-12.78
9.41
27.31
39.75
46.98
50.2
50.82
49.93
48.13
45.66
42.77
39.87
37.53
36.21
36.08
36.79
37.67
38.01
37.42
35.97
34.1
32.33
30.85
29.47
27.59
24.59
20.14
14.44
8.14
2.13
-2.84
-6.38
-8.63
-10.11
-11.55
-13.57
-16.5
-20.18
-24.12
-27.68
-30.36
-32.08
-33.27
-34.73
-37.41
-42.06
-48.91
-57.44
-66.25
-73.21
-75.9
-72.29
-61.5
-44.27
-22.85
-0.4
19.91
35.82
46.37
51.84
53.3
51.98
48.95
44.94
40.49
36.07
32.18
29.29
27.71
27.42
28.11
29.22
30.19
30.7
30.66
30.17
29.25
27.71
25.22
21.44
16.27
10.08
3.56
-2.49
-7.49
-11.23
-14.0
-16.38
-18.98
-22.18
-26.0
-30.07
-33.77
-36.62
-38.5
-39.8
-41.4
-44.38
-49.61
-57.22
-66.37
-75.13
-80.87
-80.96
-73.68
-58.86
-38.15
-14.6
8.26
27.41
41.1
49.12
52.41
52.5
50.84
48.42
45.73
42.97
40.21
37.64
35.56
34.26
33.85
34.2
34.89
35.48
35.62
35.27
34.59
33.8
32.96
31.82
29.92
26.72
21.97
15.86
9.07
2.53
-2.83
-6.45
-8.39
-9.25
-9.96
-11.39
-13.97
-17.6
-21.7
-25.59
-28.86
-31.56
-34.21
-37.6
-42.45
-49.29
-58.23
-68.82
-79.87
-89.38
-94.75
-93.48
-83.99
-66.46
-43.07
-17.38
6.71
26.21
39.73
47.47
50.63
50.64
48.64
45.36
41.34
37.12
33.33
30.58
29.19
29.07
29.78
30.67
31.23
31.21
30.73
30.14
29.72
29.51
29.13
27.92
25.23
20.84
15.02
8.63
2.72
-1.9
-4.93
-6.76
-8.15
-9.9
-12.46
-15.73
-19.21
-22.2
-24.28
-25.41
-26.06
-27.02
-29.23
-33.49
-40.21
-49.08
-58.91
-67.61
-72.56
-71.37
-62.67
-46.85
-26.03
-3.52
17.25
33.74
44.84
50.88
52.95
52.28
49.71
45.71
40.6
34.89
29.43
25.22
23.1
23.31
25.42
28.43
31.27
33.13
33.83
33.64
33.02
32.2
30.99
28.88
25.3
20.03
13.33
6.01
-0.95
-6.63
-10.59
-12.94
-14.35
-15.73
-17.91
-21.3
-25.77
-30.68
-35.2
-38.72
-41.04
-42.55
-43.97
-46.22
-50.14
-56.26
-64.53
-74.06
-83.02
-88.79
-88.69
-80.86
-65.07
-43.06
-18.09
6.02
26.11
40.44
48.88
52.56
53.05
51.87
50.0
47.97
45.97
44.07
42.36
41.01
40.13
39.73
39.64
39.6
39.36
38.79
37.94
36.88
35.63
34.08
31.98
29.07
25.27
20.7
15.67
10.54
5.6
1.04
-3.01
-6.46
-9.21
-11.27
-12.84
-14.3
-16.17
-18.84
-22.41
-26.66
-31.12
-35.28
-38.85
-41.86
-44.61
-47.58
-51.34
-56.44
-63.23
-71.59
-80.56
-88.23
-91.98
-89.28
-78.7
-60.59
-37.29
-12.39
10.37
28.25
40.08
46.25
48.12
47.26
44.96
42.05
39.05
36.28
34.12
32.91
32.84
33.9
35.67
37.52
38.82
39.15
38.53
37.32
36.02
34.9
33.84
32.38
29.88
25.92
20.54
14.26
7.93
2.47
-1.53
-3.94
-5.2
-6.08
-7.45
-9.86
-13.37
-17.53
-21.61
-24.92
-27.16
-28.53
-29.71
-31.6
-35.08
-40.79
-48.84
-58.57
-68.33
-75.71
-78.02
-73.18
-60.55
-41.38
-18.54
4.4
24.24
39.09
48.51
53.24
54.43
53.09
49.86
45.12
39.35
33.33
28.06
24.55
23.45
24.79
27.92
31.82
35.44
38.07
39.46
39.77
39.29
38.23
36.52
33.85
29.92
24.57
17.99
10.69
3.42
-3.03
-8.08
-11.54
-13.65
-15.07
-16.62
-18.92
-22.3
-26.56
-31.16
-35.48
-39.05
-41.77
-43.98
-46.28
-49.44
-54.19
-61.03
-69.95
-80.08
-89.54
-95.7
-95.76
-87.78
-71.49
-48.59
-22.36
3.31
25.12
41.14
51.04
55.73
56.69
55.42
53.06
50.36
47.76
45.53
43.82
42.67
42.02
41.69
41.47
41.18
40.72
40.11
39.44
38.68
37.69
36.22
33.99
30.87
26.92
22.41
17.65
12.9
8.34
4.08
0.2
-3.21
-6.01
-8.17
-9.75
-11.03
-12.38
-14.22
-16.87
-20.36
-24.48
-28.82
-32.94
-36.54
-39.57
-42.3
-45.16
-48.77
-53.71
-60.38
-68.72
-77.81
-85.79
-90.08
-88.12
-78.33
-60.93
-38.01
-13.04
10.31
29.25
42.51
50.3
53.72
54.1
52.53
49.71
46.14
42.33
38.83
36.18
34.74
34.56
35.3
36.42
37.39
37.86
37.8
37.41
36.96
36.58
36.11
35.09
32.94
29.22
23.88
17.39
10.63
4.63
0.16
-2.59
-4.09
-5.3
-7.25
-10.56
-15.19
-20.5
-25.58
-29.66
-32.46
-34.29
-35.87
-38.16
-42.04
-48.1
-56.38
-66.02
-75.19
-81.36
-81.85
-74.81
-60.04
-39.18
-15.36
7.86
27.51
41.97
51.03
55.52
56.6
55.32
52.45
48.55
44.15
39.88
36.34
33.93
32.8
32.76
33.42
34.39
35.36
36.16
36.68
36.77
36.24
34.9
32.58
29.32
25.29
20.76
16.03
11.32
6.77
2.47
-1.54
-5.18
-8.34
-10.92
-12.87
-14.35
-15.68
-17.32
-19.7
-23.01
-27.13
-31.62
-35.96
-39.74
-42.87
-45.63
-48.63
-52.61
-58.32
-66.12
-75.7
-85.77
-94.07
-97.76
-94.3
-82.45
-62.87
-38.16
-12.11
11.48
29.93
42.22
48.85
51.26
51.07
49.55
47.48
45.24
43.05
41.09
39.59
38.71
38.5
38.82
39.44
40.11
40.62
40.92
40.97
40.73
40.05
38.75
36.63
33.63
29.87
25.6
21.13
16.72
12.52
8.6
5.05
1.95
-0.64
-2.74
-4.57
-6.46
-8.79
-11.77
-15.38
-19.34
-23.21
-26.64
-29.46
-31.81
-34.01
-36.55
-39.99
-44.87
-51.48
-59.56
-67.93
-74.5
-76.65
-72.03
-59.55
-39.96
-15.79
9.36
31.95
49.41
60.56
65.48
65.05
60.41
52.73
43.19
33.0
23.43
15.64
10.39
7.93
7.91
9.53
11.9
14.26
16.2
17.64
18.63
19.17
19.02
17.82
15.24
11.24
6.23
0.93
-3.86
-7.59
-10.11
-11.77
-13.12
-14.76
-16.99
-19.72
-22.53
-24.89
-26.37
-26.92
-26.92
-27.17
-28.69
-32.49
-39.13
-48.42
-59.04
-68.64
-74.25
-73.22
-64.14
-47.52
-25.77
-2.49
18.69
35.19
46.02
51.68
53.52
53.02
51.25
48.73
45.68
42.22
38.69
35.54
33.26
32.12
32.02
32.53
33.01
32.94
32.09
30.62
28.93
27.39
26.05
24.59
22.43
19.06
14.3
8.44
2.13
-3.81
-8.74
-12.42
-15.05
-17.23
-19.64
-22.81
-26.87
-31.46
-35.88
-39.42
-41.67
-42.79
-43.45
-44.69
-47.54
-52.74
-60.47
-70.07
-79.94
-87.61
-90.27
-85.54
-72.46
-52.02
-27.08
-1.48
21.17
38.5
49.88
56.12
58.75
59.24
58.58
57.29
55.69
54.12
53.03
52.88
53.82
55.69
57.92
59.84
60.91
60.98
60.31
59.35
58.47
57.62
56.26
53.63
49.07
42.45
34.29
25.6
17.56
11.01
6.19
2.7
-0.3
-3.65
-7.84
-12.85
-18.17
-23.15
-27.28
-30.46
-33.09
-35.89
-39.76
-45.45
-53.49
-63.94
-76.13
-88.48
-98.54
-103.45
-100.75
-89.36
-70.15
-45.88
-20.35
2.81
21.1
33.72
41.27
45.1
46.64
46.97
46.75
46.46
46.54
47.38
49.24
52.04
55.3
58.28
60.25
60.88
60.43
59.79
60.21
62.81
67.96
74.89
81.6
85.25
82.94
72.64
53.84
27.78
-2.93
-34.95
-64.99
-90.37
-109.3
-120.98
-125.6
-124.32
-119.26
-113.1
-108.64
-107.95
-111.69
-118.62
-125.8
-129.39
-125.88
-113.34
-92.16
-64.89
-35.48
-7.93
14.89
31.7
42.81
49.41
52.86
54.2
54.06
52.84
50.99
49.1
47.76
47.41
48.07
49.35
50.68
51.57
51.85
51.68
51.34
50.91
50.1
48.3
44.9
39.66
32.9
25.48
18.42
12.47
7.82
4.07
0.39
-3.98
-9.38
-15.57
-21.86
-27.4
-31.59
-34.4
-36.35
-38.42
-41.75
-47.31
-55.58
-66.13
-77.41
-86.78
-91.12
-87.75
-75.46
-55.15
-29.75
-3.26
20.44
38.74
50.79
57.29
59.73
59.62
58.07
55.64
52.63
49.36
46.25
43.77
42.24
41.65
41.61
41.55
41.01
39.8
38.14
36.42
34.94
33.66
32.18
29.84
26.12
20.89
14.45
7.58
1.12
-4.21
-8.1
-10.7
-12.61
-14.6
-17.4
-21.35
-26.32
-31.67
-36.56
-40.31
-42.71
-44.19
-45.67
-48.3
-53.02
-60.33
-69.97
-80.72
-90.44
-96.35
-95.7
-86.7
-69.27
-45.27
-18.12
8.26
30.59
47.04
57.39
62.61
64.09
63.07
60.41
56.6
52.1
47.43
43.27
40.22
38.7
38.63
39.55
40.7
41.34
41.02
39.68
37.61
35.21
32.74
30.11
26.96
22.85
17.54
11.22
4.49
-1.8
-6.88
-10.41
-12.63
-14.26
-16.22
-19.16
-23.2
-27.81
-32.12
-35.27
-36.85
-37.08
-36.73
-36.93
-38.73
-42.89
-49.61
-58.4
-67.86
-75.81
-79.62
-76.9
-66.38
-48.51
-25.5
-0.74
22.23
40.68
53.34
60.31
62.56
61.4
57.91
52.91
47.07
41.08
35.73
31.8
29.85
29.97
31.7
34.16
36.35
37.53
37.42
36.22
34.38
32.21
29.7
26.43
21.9
15.88
8.63
0.97
-6.04
-11.47
-14.98
-16.94
-18.24
-19.9
-22.61
-26.4
-30.72
-34.75
-37.77
-39.54
-40.39
-41.09
-42.61
-45.87
-51.49
-59.48
-69.04
-78.27
-84.44
-84.57
-76.48
-59.75
-36.19
-9.37
16.44
37.63
52.29
60.36
63.16
62.54
60.08
56.73
52.96
48.96
44.99
41.38
38.49
36.55
35.54
35.2
35.13
34.91
34.27
33.16
31.6
29.71
27.47
24.82
21.6
17.67
12.99
7.64
1.86
-3.98
-9.43
-14.02
-17.45
-19.6
-20.73
-21.33
-22.02
-23.33
-25.46
-28.28
-31.35
-34.16
-36.29
-37.65
-38.5
-39.39
-40.98
-43.96
-48.8
-55.57
-63.62
-71.39
-76.47
-76.18
-68.47
-52.87
-30.94
-5.95
18.11
37.82
51.33
58.59
60.87
59.96
57.31
53.76
49.62
45.02
40.19
35.65
31.98
29.64
28.73
28.91
29.55
29.97
29.71
28.63
26.87
24.62
22.02
19.04
15.57
11.56
7.09
2.4
-2.2
-6.4
-9.99
-12.87
-15.01
-16.45
-17.36
-18.01
-18.83
-20.22
-22.42
-25.39
-28.74
-31.87
-34.27
-35.65
-36.14
-36.28
-36.74
-38.29
-41.52
-46.69
-53.42
-60.45
-65.63
-66.37
-60.54
-47.37
-28.0
-5.31
17.04
35.79
49.02
56.46
59.07
58.26
55.23
50.71
45.12
38.83
32.43
26.76
22.61
20.48
20.33
21.62
23.44
24.91
25.49
25.11
24.06
22.74
21.36
19.8
17.67
14.57
10.27
4.95
-0.88
-6.44
-11.02
-14.13
-15.83
-16.64
-17.41
-18.93
-21.63
-25.32
-29.3
-32.67
-34.75
-35.41
-35.09
-34.62
-34.96
-36.93
-41.06
-47.5
-55.79
-64.63
-71.89
-74.86
-71.15
-59.6
-41.02
-18.11
5.3
25.53
40.2
48.7
51.98
51.7
49.48
46.38
42.86
39.14
35.44
32.1
29.58
28.15
27.81
28.3
29.09
29.73
29.93
29.6
28.86
27.81
26.45
24.67
22.24
19.02
14.99
10.35
5.47
0.75
-3.39
-6.68
-9.01
-10.47
-11.3
-11.9
-12.67
-13.98
-16.0
-18.64
-21.61
-24.5
-26.91
-28.71
-30.02
-31.26
-33.04
-36.01
-40.71
-47.32
-55.33
-63.4
-69.41
-70.95
-66.15
-54.51
-37.26
-17.08
2.71
19.27
31.04
37.9
40.78
40.98
39.64
37.46
34.9
32.26
29.93
28.25
27.44
27.49
28.16
29.09
29.92
30.48
30.7
30.66
30.39
29.8
28.65
26.57
23.34
18.93
13.64
8.05
2.83
-1.53
-4.85
-7.32
-9.42
-11.64
-14.25
-17.17
-20.01
-22.32
-23.78
-24.47
-24.81
-25.58
-27.55
-31.36
-37.13
-44.23
-51.23
-56.05
-56.59
-51.35
-40.11
-24.16
-5.96
11.67
26.43
37.13
43.74
47.01
47.88
47.05
44.82
41.33
36.8
31.78
27.02
23.32
21.11
20.35
20.5
20.85
20.78
20.06
18.77
17.14
15.32
13.12
10.18
6.14
0.91
-5.19
-11.45
-17.07
-21.45
-24.33
-25.93
-26.79
-27.51
-28.54
-29.94
-31.45
-32.6
-33.03
-32.66
-31.81
-31.17
-31.51
-33.54
-37.65
-43.68
-50.78
-57.46
-61.66
-61.37
-55.24
-43.17
-26.58
-7.97
9.75
24.27
34.4
40.17
42.45
42.37
40.9
38.69
36.11
33.49
31.17
29.45
28.48
28.13
28.08
27.92
27.33
26.27
24.92
23.58
22.43
21.4
20.15
18.21
15.22
11.19
6.53
1.89
-2.06
-4.97
-6.88
-8.2
-9.48
-11.12
-13.23
-15.58
-17.83
-19.74
-21.29
-22.67
-24.29
-26.56
-29.91
-34.62
-40.61
-47.21
-53.12
-56.53
-55.67
-49.5
-38.15
-23.05
-6.52
9.03
21.78
30.92
36.54
39.32
40.02
39.24
37.31
34.48
31.08
27.54
