31.27
31.17
30.73
29.95
28.77
27.04
24.63
21.47
17.62
13.29
8.85
4.65
1.03
-1.84
-4.0
-5.7
-7.32
-9.31
-11.98
-15.4
-19.32
-23.28
-26.77
-29.45
-31.25
-32.5
-33.7
-35.39
-38.02
-41.84
-46.83
-52.59
-58.19
-62.22
-62.95
-58.9
-49.46
-35.28
-18.19
-0.7
14.81
26.8
34.8
39.3
41.19
41.35
40.32
38.35
35.66
32.56
29.54
27.15
25.77
25.45
25.9
26.67
27.33
27.65
27.66
27.49
27.22
26.83
26.08
24.71
22.46
19.23
15.09
10.37
5.56
1.26
-2.05
-4.21
-5.45
-6.34
-7.53
-9.47
-12.15
-15.15
-17.85
-19.78
-20.84
-21.39
-22.1
-23.69
-26.71
-31.42
-37.69
-44.88
-51.86
-57.08
-58.83
-55.77
-47.44
-34.56
-18.89
-2.8
11.53
22.63
30.02
34.01
35.33
34.71
32.69
29.65
26.0
22.29
19.17
17.24
16.8
17.78
19.67
21.82
23.62
24.75
25.22
25.16
24.65
23.58
21.67
18.63
14.41
9.32
3.93
-1.07
-5.18
-8.21
-10.35
-11.99
-13.61
-15.57
-18.0
-20.76
-23.5
-25.84
-27.52
-28.57
-29.39
-30.64
-33.07
-37.25
-43.2
-50.18
-56.66
-60.62
-60.18
-54.2
-42.88
-27.67
-10.96
4.84
17.93
27.56
33.88
37.57
39.34
39.64
38.73
36.84
34.31
31.64
29.37
27.84
27.2
27.31
27.82
28.38
28.64
28.41
27.65
26.44
24.89
23.01
20.73
17.87
14.27
9.93
5.09
0.2
-4.22
-7.77
-10.35
-12.13
-13.56
-15.14
-17.24
-19.92
-22.94
-25.9
-28.36
-30.09
-31.14
-31.87
-32.75
-34.34
-37.1
-41.35
-46.98
-53.32
-58.99
-62.08
-60.73
-53.8
-41.47
-25.29
-7.68
8.91
22.7
33.0
39.98
44.25
46.42
46.92
45.98
43.89
41.06
38.0
35.29
33.31
32.27
32.08
32.43
32.91
33.14
32.94
32.32
31.42
30.36
29.16
27.63
25.47
22.43
18.4
13.53
8.21
2.97
-1.72
-5.57
-8.6
-11.09
-13.47
-16.14
-19.26
-22.74
-26.27
-29.44
-31.91
-33.6
-34.69
-35.61
-36.9
-39.13
-42.69
-47.64
-53.49
-59.13
-62.95
-63.21
-58.65
-48.94
-34.99
-18.67
-2.27
12.19
23.5
31.3
35.96
38.08
38.26
36.99
34.71
31.9
29.13
26.9
25.56
25.21
25.67
26.66
27.85
29.01
29.99
30.67
30.87
30.39
28.96
26.45
22.87
18.47
13.69
8.94
4.56
0.64
-2.94
-6.4
-9.94
-13.56
-17.1
-20.33
-23.03
-25.15
-26.86
-28.55
-30.74
-33.97
-38.68
-44.86
-51.9
-58.39
-62.39
-61.98
-55.94
-44.41
-28.9
-11.85
4.19
17.4
27.06
33.43
37.25
39.22
39.72
38.91
36.9
34.07
31.03
28.47
26.92
26.55
27.17
28.31
29.45
30.2
30.4
30.12
29.52
28.74
27.77
26.4
24.28
21.09
16.72
11.39
5.65
0.19
-4.36
-7.76
-10.17
-12.13
-14.22
-16.92
-20.32
-24.22
-28.2
-31.86
-34.94
-37.4
-39.47
-41.58
-44.32
-48.31
-53.94
-61.01
-68.42
-74.26
-76.21
-72.38
-62.11
-46.34
-27.37
-8.06
9.04
22.43
31.73
37.42
40.28
41.06
40.41
38.81
36.78
34.78
33.18
32.16
31.74
31.77
32.06
32.41
32.6
32.52
32.08
31.3
30.24
28.95
27.37
25.32
22.56
18.92
14.43
9.4
4.4
0.03
-3.22
-5.27
-6.37
-7.09
-8.07
-9.83
-12.53
-16.0
-19.78
-23.34
-26.29
-28.54
-30.38
-32.38
-35.27
-39.65
-45.78
-53.3
-61.13
-67.53
-70.46
-68.18
-59.85
-45.94
-28.26
-9.38
8.06
22.2
32.23
38.39
41.53
42.58
42.22
40.86
38.74
36.17
33.59
31.46
30.18
29.92
30.53
31.69
33.0
34.16
34.95
35.24
34.83
33.5
31.02
27.33
22.63
17.36
12.08
7.23
3.04
-0.59
-3.98
-7.51
-11.41
-15.65
-19.98
-23.99
-27.33
-29.87
-31.79
-33.61
-36.12
-40.08
-45.95
-53.41
-61.27
-67.45
-69.64
-66.01
-55.99
-40.61
-22.18
-3.55
12.79
25.42
34.09
39.41
42.27
43.45
43.39
42.28
40.38
38.03
35.76
34.09
33.39
33.68
34.67
35.82
36.6
36.61
35.79
34.32
32.47
30.4
28.07
25.25
21.68
17.22
12.02
6.5
1.23
-3.23
-6.57
-8.8
-10.31
-11.65
-13.42
-15.99
-19.39
-23.29
-27.19
-30.61
-33.35
-35.54
-37.67
-40.42
-44.46
-50.3
-57.95
-66.75
-75.24
-81.3
-82.72
-77.9
-66.51
-49.75
-30.01
-10.16
7.36
21.11
30.8
36.89
40.25
41.64
41.66
40.73
39.28
37.77
36.65
36.2
36.51
37.37
38.39
39.09
39.15
38.52
37.4
36.15
35.02
34.06
32.96
31.33
28.77
25.16
20.65
15.65
10.66
6.12
2.29
-0.89
-3.64
-6.37
-9.42
-12.97
-16.9
-20.85
-24.31
-26.95
-28.68
-29.82
-31.0
-33.03
-36.68
-42.46
-50.29
-59.27
-67.64
-73.04
-73.15
-66.53
-53.2
-34.85
-14.3
5.44
21.95
34.06
41.75
45.77
47.06
46.43
44.41
41.46
38.04
34.77
32.27
30.94
30.85
31.68
32.85
33.81
34.25
34.18
33.85
33.44
32.89
31.81
29.64
25.9
20.5
13.87
6.83
0.37
-4.76
-8.3
-10.62
-12.51
-14.85
-18.22
-22.64
-27.57
-32.19
-35.79
-38.16
-39.63
-41.04
-43.4
-47.6
-54.08
-62.6
-71.99
-80.27
-84.92
-83.61
-74.94
-59.19
-38.29
-15.36
6.26
24.04
36.76
44.61
48.67
50.3
50.54
50.04
49.1
47.92
46.73
45.78
45.3
45.29
45.5
45.57
45.19
44.27
42.96
41.55
40.25
39.06
37.71
35.83
33.09
29.37
24.79
19.64
14.25
8.99
4.15
-0.03
-3.37
-5.89
-7.79
-9.48
-11.43
-14.08
-17.56
-21.73
-26.17
-30.39
-34.01
-36.9
-39.19
-41.21
-43.43
-46.39
-50.64
-56.48
-63.71
-71.28
-77.29
-79.34
-75.39
-64.5
-47.42
-26.46
-4.72
14.84
30.3
40.98
47.31
50.21
50.65
49.45
47.16
44.27
41.24
38.53
36.52
35.38
35.05
35.31
35.74
36.01
35.86
35.27
34.36
33.28
32.09
30.57
28.33
24.97
20.3
14.51
8.2
2.22
-2.69
-6.14
-8.31
-9.84
-11.55
-14.11
-17.71
-22.01
-26.34
-30.02
-32.63
-34.26
-35.37
-36.67
-38.86
-42.56
-48.11
-55.4
-63.59
-71.02
-75.39
-74.39
-66.52
-51.86
-32.21
-10.59
9.75
26.37
38.19
45.42
49.02
49.99
48.95
46.26
42.22
37.39
32.68
29.04
27.21
27.42
29.28
31.97
34.62
36.54
37.48
37.53
36.97
35.96
34.4
32.0
28.43
23.58
17.67
11.27
5.12
-0.13
-4.17
-7.14
-9.54
-12.07
-15.33
-19.58
-24.67
-30.08
-35.14
-39.32
-42.43
-44.69
-46.67
-49.18
-53.02
-58.88
-67.02
-77.03
-87.54
-96.29
-100.48
-97.64
-86.48
-67.59
-43.4
-17.49
6.47
25.81
39.36
47.41
51.12
51.98
51.18
49.55
47.59
45.68
44.12
43.17
43.02
43.62
44.66
45.66
46.14
45.77
44.57
42.86
41.08
39.59
38.39
37.12
35.19
32.09
27.6
21.99
15.89
10.06
5.17
1.5
-1.12
-3.22
-5.5
-8.59
-12.74
-17.75
-23.05
-27.92
-31.82
-34.62
-36.67
-38.65
-41.39
-45.62
-51.74
-59.61
-68.36
-76.36
-81.35
-81.04
-73.89
-59.74
-40.14
-17.87
3.89
22.47
36.41
45.49
50.35
52.05
51.54
49.56
46.68
43.37
40.09
37.29
35.32
34.39
34.47
35.39
36.81
38.35
39.68
40.5
40.56
39.57
37.23
33.34
27.99
21.54
14.66
8.08
2.28
-2.6
-6.85
-10.96
-15.35
-20.15
-25.16
-29.9
-33.9
-36.93
-39.12
-41.02
-43.42
-47.17
-52.81
-60.29
-68.69
-76.18
-80.34
-78.86
-70.37
-55.03
-34.67
-12.29
8.91
26.42
39.07
46.93
50.95
52.23
51.66
49.76
46.85
43.29
39.61
36.37
34.05
32.81
32.49
32.65
32.82
32.64
32.08
31.28
30.52
29.85
29.03
27.55
24.79
20.37
14.36
7.36
0.34
-5.7
-10.14
-13.01
-14.9
-16.75
-19.41
-23.25
-28.08
-33.24
-37.91
-41.52
-43.92
-45.52
-47.1
-49.6
-53.89
-60.39
-68.81
-77.85
-85.29
-88.43
-84.98
-73.89
-55.89
-33.39
-9.69
12.03
29.6
42.18
50.12
54.4
56.1
56.09
54.92
53.04
50.87
48.8
47.16
46.08
45.44
44.91
44.09
42.74
40.91
38.89
37.12
35.82
34.9
33.9
32.17
29.2
24.8
19.24
13.14
7.3
2.4
-1.21
-3.64
-5.38
-7.12
-9.49
-12.79
-16.84
-21.11
-24.9
-27.69
-29.39
-30.35
-31.33
-33.25
-36.92
-42.8
-50.6
-59.15
-66.31
-69.46
-66.2
-55.24
-36.93
-13.34
12.29
36.51
56.49
70.64
78.56
80.75
78.17
71.91
63.04
52.64
41.8
31.55
22.69
15.74
10.81
7.68
5.91
5.0
4.55
4.33
4.17
3.93
3.37
2.21
0.19
-2.74
-6.39
-10.34
-14.12
-17.4
-20.11
-22.47
-24.81
-27.4
-30.28
-33.22
-35.89
-37.98
-39.5
-40.75
-42.32
-44.91
-49.15
-55.28
-62.88
-70.65
-76.56
-78.2
-73.59
-61.96
-44.16
-22.56
-0.35
19.49
35.0
45.58
51.79
54.75
55.54
54.94
53.36
51.07
48.34
45.54
43.03
41.12
39.88
39.16
38.6
37.83
36.64
35.04
33.25
31.53
29.98
28.4
26.28
23.06
18.41
12.45
5.83
-0.53
-5.77
-9.48
-11.86
-13.58
-15.5
-18.28
-22.11
-26.64
-31.23
-35.24
-38.31
-40.5
-42.22
-44.1
-46.84
-51.06
-57.13
-64.92
-73.54
-81.25
-85.64
-84.32
-75.76
-60.0
-38.84
-15.37
7.02
25.65
39.21
47.76
52.35
54.26
54.53
53.73
52.12
49.85
47.27
44.87
43.17
42.47
42.59
43.03
43.1
42.34
40.64
38.27
35.71
33.28
31.02
28.62
25.66
21.82
17.04
11.62
6.05
0.92
-3.32
-6.48
-8.69
-10.36
-12.06
-14.3
-17.33
-21.07
-25.09
-28.81
-31.72
-33.67
-34.88
-35.93
-37.56
-40.5
-45.22
-51.79
-59.72
-67.74
-73.94
-76.01
-71.96
-60.83
-43.3
-21.61
0.99
21.33
37.18
47.81
53.74
56.15
56.19
54.55
51.55
47.45
42.75
38.24
34.8
33.03
32.99
34.17
35.72
36.86
37.06
36.23
34.6
32.51
30.2
27.74
24.97
21.61
17.43
12.37
6.69
0.92
-4.31
-8.45
-11.38
-13.43
-15.21
-17.42
-20.46
-24.35
-28.69
-32.91
-36.49
-39.19
-41.09
-42.55
-44.13
-46.41
-49.98
-55.26
-62.21
-70.05
-77.06
-80.85
-78.99
-69.96
-53.86
-32.53
-9.13
12.93
31.0
43.73
51.25
54.58
55.03
53.73
51.43
48.59
45.57
42.71
40.33
38.67
37.8
37.51
37.44
37.23
36.61
35.5
33.96
32.13
30.08
27.78
25.15
22.03
18.34
14.06
9.3
4.28
-0.71
-5.37
-9.46
-12.86
-15.58
-17.77
-19.7
-21.7
-24.04
-26.85
-30.03
-33.31
-36.28
-38.57
-40.11
-41.04
-41.84
-43.19
-45.84
-50.38
-56.9
-64.77
-72.35
-77.29
-77.1
-70.08
-56.0
-36.46
-14.37
6.94
24.83
37.93
46.2
50.51
51.96
51.48
49.64
46.86
43.56
40.26
37.54
35.84
35.25
35.5
36.06
36.4
36.26
35.7
35.01
34.46
34.06
33.45
32.06
29.38
25.24
19.94
14.13
8.59
3.95
0.41
-2.3
-4.77
-7.72
-11.61
-16.41
-21.6
-26.38
-30.04
-32.35
-33.67
-34.76
-36.57
-39.87
-45.05
-51.94
-59.67
-66.67
-70.77
-69.8
-62.32
-48.25
-29.2
-8.04
12.01
28.47
40.15
47.24
50.68
51.51
50.39
47.63
43.45
38.33
33.06
28.57
25.59
24.42
24.83
26.21
27.83
29.03
29.44
28.97
27.7
25.82
23.4
20.44
16.82
12.43
7.28
1.58
-4.18
-9.46
-13.71
-16.65
-18.34
-19.22
-19.97
-21.23
-23.39
-26.35
-29.66
-32.7
-34.98
-36.38
-37.21
-38.07
-39.64
-42.59
-47.36
-54.0
-61.93
-69.74
-75.27
-76.1
-70.29
-57.33
-38.39
-16.18
5.93
25.01
39.36
48.68
53.77
55.79
55.79
54.42
52.07
49.05
45.72
42.52
39.84
37.91
36.75
36.15
35.79
35.32
34.5
33.21
31.52
29.58
27.47
25.18
22.45
18.95
14.43
8.85
2.58
-3.75
-9.42
-13.86
-16.89
-18.71
-19.83
-20.86
-22.3
-24.39
-27.08
-30.1
-33.07
-35.63
-37.64
-39.16
-40.47
-42.03
-44.37
-48.04
-53.34
-60.1
-67.32
-73.23
-75.48
-71.93
-61.45
-44.55
-23.35
-1.01
19.31
35.35
46.27
52.44
54.99
55.1
53.67
51.22
48.08
44.61
41.29
38.62
37.0
36.49
36.83
37.5
37.99
37.98
37.4
36.4
35.13
33.5
31.2
27.77
22.98
16.98
10.38
4.0
-1.44
-5.68
-8.98
-11.95
-15.18
-18.95
-23.08
-27.09
-30.41
-32.7
-34.02
-34.77
-35.68
-37.53
-40.99
-46.42
-53.48
-61.01
-66.97
-69.02
-65.14
-54.51
-37.94
-17.68
3.22
21.91
36.54
46.51
52.27
54.75
54.87
53.24
50.27
46.31
41.84
37.53
34.04
31.85
31.07
31.42
32.29
32.96
32.86
31.75
29.68
26.93
23.79
20.41
16.76
12.59
7.74
2.19
-3.72
-9.42
-14.21
-17.57
-19.39
-20.07
-20.35
-21.05
-22.72
-25.45
-28.83
-32.25
-35.16
-37.28
-38.74
-39.96
-41.53
-44.06
-48.1
-53.93
-61.28
-68.99
-75.06
-76.97
-72.58
-60.93
-42.86
-20.85
1.8
21.95
37.58
48.05
53.92
56.33
56.49
55.34
53.45
51.2
48.78
46.33
43.98
41.84
40.0
38.51
37.34
36.4
35.51
34.54
33.34
31.8
29.79
27.23
24.06
20.33
16.18
11.82
7.45
3.22
-0.78
-4.49
-7.87
-10.87
-13.46
-15.7
-17.74
-19.83
-22.18
-24.92
-28.02
-31.27
-34.36
-37.01
-39.08
-40.67
-42.08
-43.84
-46.59
-50.87
-56.92
-64.27
-71.56
-76.65
-77.16
-71.22
-58.28
-39.48
-17.43
4.61
23.7
38.06
47.28
52.05
53.57
52.92
50.88
47.95
44.52
41.1
38.27
36.46
35.8
35.99
36.47
36.68
36.35
35.6
34.78
34.16
33.7
32.93
31.21
27.97
23.12
17.09
10.68
4.77
-0.07
-3.74
-6.62
-9.33
-12.46
-16.28
-20.68
-25.22
-29.36
-32.63
-34.91
-36.44
-37.84
-39.95
-43.59
-49.2
-56.49
-64.18
-70.13
-71.85
-67.31
-55.73
-38.05
-16.7
5.18
24.62
39.69
49.75
55.27
57.24
56.7
54.4
50.81
46.26
41.18
36.12
31.81
28.86
27.57
27.84
29.06
30.43
31.21
30.97
29.7
27.63
25.04
22.13
18.87
15.1
10.75
5.86
0.71
-4.31
-8.74
-12.24
-14.68
-16.15
-17.04
-17.86
-19.14
-21.22
-24.14
-27.68
-31.4
-34.83
-37.63
-39.7
-41.22
-42.63
-44.57
-47.75
-52.68
-59.4
-67.06
-73.89
-77.51
-75.53
-66.57
-50.78
-30.02
-7.35
13.98
31.44
43.78
51.11
54.44
55.08
54.17
52.44
50.26
47.81
45.28
42.9
40.9
39.41
38.4
37.66
36.94
36.02
34.88
33.54
32.07
30.41
28.42
25.89
22.73
18.97
14.73
10.22
5.62
1.16
-2.96
-6.49
-9.29
-11.35
-12.88
-14.31
-16.09
-18.55
-21.72
-25.31
-28.83
-31.83
-34.03
-35.49
-36.57
-37.81
-39.81
-43.13
-48.12
-54.75
-62.31
-69.32
-73.6
-72.88
-65.55
-51.45
-32.07
-10.2
10.93
28.67
41.58
49.53
53.34
54.14
52.94
50.47
47.2
43.58
40.09
37.15
35.04
33.79
33.16
32.74
32.18
31.35
30.29
29.17
28.08
26.84
25.09
22.37
18.4
13.29
7.51
1.77
-3.23
-7.08
-9.84
-11.96
-14.08
-16.75
-20.11
-23.83
-27.3
-29.92
-31.45
-32.19
-32.86
-34.4
-37.66
-43.13
-50.62
-59.08
-66.6
-70.79
-69.34
-60.92
-45.72
-25.62
-3.65
16.93
33.64
45.3
52.12
55.14
55.63
54.54
52.4
49.43
45.78
41.77
37.88
34.61
32.33
31.05
30.46
30.12
29.62
28.76
27.63
26.42
25.21
23.87
22.04
19.27
15.25
10.01
3.95
-2.2
-7.66
-11.87
-14.62
-16.23
-17.38
-18.88
-21.3
-24.8
-29.02
-33.29
-36.96
-39.6
-41.24
-42.27
-43.34
-45.18
-48.5
-53.75
-60.87
-68.98
-76.22
-80.06
-78.01
-68.59
-52.03
-30.38
-6.88
15.06
32.88
45.41
52.85
56.3
57.06
56.25
54.54
52.28
49.67
46.93
44.35
42.28
40.96
40.36
40.24
40.17
39.79
38.93
37.63
36.04
34.28
32.32
29.98
27.04
23.32
18.79
13.66
8.32
3.29
-0.9
-3.94
-5.84
-6.95
-7.91
-9.38
-11.81
-15.22
-19.27
-23.38
-27.01
-29.85
-31.91
-33.49
-35.05
-37.15
-40.35
-45.09
-51.47
-58.9
-66.04
-70.93
-71.55
-66.6
-56.06
-41.3
-24.73
-8.91
4.13
13.43
19.01
21.49
21.71
20.37
18.02
15.18
12.47
10.58
10.15
11.5
14.53
18.64
22.96
26.6
28.94
29.8
29.35
27.98
26.01
23.5
20.31
16.27
11.39
6.01
0.83
-3.45
-6.31
-7.77
-8.34
-8.86
-10.08
-12.35
-15.48
-18.81
-21.57
-23.23
-23.75
-23.66
-23.88
-25.47
-29.36
-36.05
-45.27
-55.72
-65.09
-70.49
-69.26
-59.96
-43.06
-20.9
2.96
24.91
42.33
54.17
60.79
63.41
63.48
62.17
60.2
57.96
55.66
53.41
51.31
49.44
47.86
46.54
45.37
