15.96
14.94
14.26
13.85
13.48
12.91
12.01
10.89
9.8
9.03
8.69
8.63
8.45
7.74
6.25
4.09
1.66
-0.47
-1.89
-2.53
-2.7
-2.91
-3.62
-4.99
-6.87
-8.88
-10.62
-11.85
-12.57
-12.99
-13.36
-13.96
-14.97
-16.51
-18.6
-21.18
-24.01
-26.7
-28.68
-29.3
-28.0
-24.47
-18.81
-11.56
-3.63
3.94
10.23
14.68
17.19
18.11
18.0
17.48
16.96
16.63
16.42
16.23
15.97
15.64
15.27
14.91
14.55
14.16
13.69
13.19
12.71
12.29
11.88
11.33
10.48
9.2
7.54
5.67
3.83
2.19
0.82
-0.36
-1.54
-2.87
-4.48
-6.32
-8.27
-10.1
-11.64
-12.8
-13.67
-14.52
-15.73
-17.62
-20.32
-23.62
-26.91
-29.3
-29.82
-27.82
-23.16
-16.41
-8.62
-1.01
5.43
10.19
13.34
15.26
16.38
16.99
17.18
16.92
16.21
15.2
14.16
13.29
12.75
12.46
12.25
11.89
11.27
10.43
9.55
8.89
8.6
8.65
8.76
8.58
7.73
6.08
3.8
1.24
-1.07
-2.73
-3.54
-3.61
-3.32
-3.15
-3.51
-4.62
-6.39
-8.5
-10.47
-11.98
-12.91
-13.46
-14.04
-15.12
-17.04
-19.89
-23.46
-27.24
-30.43
-32.09
-31.35
-27.7
-21.25
-12.8
-3.64
4.91
11.9
17.04
20.64
23.3
25.54
27.51
29.07
29.94
29.97
29.27
28.17
27.03
26.03
25.12
24.08
22.66
20.83
18.74
16.7
14.97
13.65
12.6
11.54
10.21
8.49
6.47
4.35
2.38
0.7
-0.64
-1.76
-2.78
-3.8
-4.8
-5.74
-6.57
-7.27
-7.95
-8.74
-9.74
-10.98
-12.43
-14.06
-15.87
-17.94
-20.36
-23.1
-25.93
-28.42
-30.05
-30.34
-29.05
-26.2
-22.09
-17.13
-11.82
-6.59
-1.8
2.35
5.78
8.51
10.65
12.31
13.54
14.33
14.62
14.36
13.66
12.71
11.79
11.12
10.76
10.66
10.63
10.51
10.2
9.67
8.95
8.03
6.92
5.61
4.15
2.61
1.14
-0.16
-1.18
-1.93
-2.51
-3.07
-3.8
-4.83
-6.19
-7.8
-9.48
-11.09
-12.56
-13.97
-15.47
-17.22
-19.26
-21.39
-23.25
-24.29
-23.97
-21.94
-18.15
-12.94
-6.96
-0.99
4.31
8.5
11.51
13.45
14.6
15.22
15.47
15.41
15.03
14.35
13.42
12.41
11.52
10.93
10.69
10.72
10.83
10.83
10.67
10.35
9.95
9.47
8.81
7.86
6.51
4.83
2.97
1.18
-0.35
-1.52
-2.35
-2.92
-3.32
-3.64
-3.94
-4.3
-4.78
-5.41
-6.19
-7.08
-8.02
-9.01
-10.08
-11.34
-12.89
-14.74
-16.76
-18.61
-19.83
-19.92
-18.51
-15.47
-10.95
-5.38
0.67
6.56
11.76
15.91
18.83
20.57
21.27
21.16
20.43
19.19
17.5
15.39
12.86
9.98
6.91
3.88
1.11
-1.18
-2.88
-3.99
-4.59
-4.8
-4.72
-4.4
-3.87
-3.18
-2.41
-1.7
-1.16
-0.84
-0.72
-0.73
-0.82
-0.97
-1.23
-1.73
-2.61
-3.95
-5.76
-7.95
-10.36
-12.89
-15.55
-18.45
-21.81
-25.77
-30.33
-35.25
-40.04
-44.12
-46.85
-47.72
-46.38
-42.67
-36.71
-28.86
-19.73
-10.11
-0.88
7.22
13.71
18.46
21.69
23.86
25.43
26.75
27.94
28.86
29.19
28.63
26.92
24.03
20.19
15.79
11.34
7.3
3.96
1.43
-0.35
-1.49
-2.15
-2.42
-2.38
-2.1
-1.64
-1.08
-0.48
0.06
0.44
0.54
0.31
-0.26
-1.03
-1.86
-2.68
-3.55
-4.68
-6.33
-8.73
-11.88
-15.61
-19.52
-23.11
-25.85
-27.21
-26.72
-24.1
-19.39
-13.0
-5.74
1.42
7.65
12.48
15.92
18.33
20.12
21.51
22.45
22.7
22.08
20.62
18.59
16.44
14.54
13.12
12.13
11.45
10.96
10.66
10.62
10.89
11.4
11.94
12.19
11.86
10.82
9.15
7.1
5.02
3.16
1.59
0.15
-1.46
-3.53
-6.19
-9.26
-12.31
-14.84
-16.47
-17.18
-17.24
-17.14
-17.35
-18.16
-19.64
-21.63
-23.81
-25.69
-26.68
-26.12
-23.51
-18.74
-12.2
-4.7
2.78
9.45
14.97
19.48
23.32
26.83
30.04
32.76
34.67
35.6
35.64
35.19
34.75
34.71
35.17
35.87
36.34
36.16
35.25
33.92
32.81
32.45
33.02
34.11
34.98
34.97
33.83
31.96
29.99
28.28
26.4
23.12
16.91
6.78
-7.09
-23.32
-39.83
-54.37
-64.69
-68.46
-63.36
-47.71
-21.67
11.82
47.16
77.73
98.37
107.54
107.83
104.33
101.98
103.18
107.01
110.34
109.85
103.86
92.93
79.17
65.0
51.96
40.26
29.01
16.93
3.19
-12.14
-28.2
-43.79
-57.97
-70.39
-81.21
-90.8
-99.31
-106.61
-112.44
-116.77
-119.99
-122.79
-125.74
-128.8
-131.26
-131.87
-129.43
-123.36
-114.02
-102.58
-90.62
-79.62
-70.59
-63.98
-59.71
-57.45
-56.79
-57.37
-58.98
-61.53
-65.09
-69.77
-75.6
-82.33
-89.35
-95.79
-100.83
-103.99
-105.3
-105.27
-104.5
-103.23
-100.99
-96.58
-88.46
-75.28
-56.56
-33.08
-6.91
18.97
41.53
58.57
69.45
75.2
78.02
80.35
83.8
88.75
94.53
100.23
105.36
109.92
113.66
115.18
111.72
100.24
79.4
51.22
21.06
-4.29
-19.63
-23.88
-20.32
-14.67
-12.06
-14.67
-21.44
-29.61
-36.99
-43.21
-49.57
-57.65
-67.8
-78.61
-87.34
-91.14
-88.17
-78.25
-62.81
-44.34
-25.59
-8.8
4.75
14.92
22.3
27.74
31.73
34.29
35.14
34.14
31.62
28.28
24.96
22.21
20.32
19.35
19.45
20.85
23.69
27.81
32.54
36.93
40.1
41.52
41.19
39.44
36.68
33.25
29.37
25.31
21.4
18.09
15.69
14.37
14.04
14.41
15.18
15.98
16.43
16.04
14.38
11.16
6.53
1.21
-3.61
-6.54
-6.42
-2.73
4.34
13.92
24.8
35.75
45.83
54.39
61.16
66.06
69.2
70.75
70.97
70.09
68.28
65.67
62.3
58.27
53.76
49.09
44.66
40.79
37.64
35.21
33.28
31.61
29.94
28.11
26.07
23.81
21.4
18.89
16.31
13.67
10.89
7.82
4.26
-0.02
-5.07
-10.72
-16.57
-22.02
-26.49
-29.67
-31.6
-32.77
-33.93
-35.84
-38.91
-42.98
-47.2
-50.06
-49.84
-45.09
-35.19
-20.64
-3.0
15.6
33.12
48.15
60.14
69.27
76.03
80.91
84.09
85.49
84.88
82.07
77.1
70.26
62.11
53.37
44.77
36.91
30.16
24.68
20.39
17.07
14.3
11.58
8.37
4.2
-1.13
-7.49
-14.47
-21.52
-28.13
-34.02
-39.07
-43.38
-47.09
-50.39
-53.45
-56.43
-59.47
-62.61
-65.79
-68.81
-71.35
-73.15
-74.18
-74.75
-75.49
-77.14
-80.23
-84.76
-90.14
-95.17
-98.44
-98.58
-94.67
-86.37
-74.0
-58.42
-40.92
-22.96
-5.89
9.29
22.04
32.38
40.66
47.36
52.86
57.39
60.99
63.69
65.53
66.59
66.92
66.53
65.41
63.65
61.48
59.33
57.66
56.76
56.59
56.75
56.59
55.49
53.03
49.13
44.03
38.09
31.68
25.08
18.44
11.88
5.51
-0.57
-6.25
-11.44
-16.04
-19.98
-23.18
-25.65
-27.52
-29.09
-30.7
-32.68
-35.16
-37.97
-40.71
-42.74
-43.43
-42.24
-38.93
-33.59
-26.61
-18.66
-10.46
-2.69
4.23
10.08
14.86
18.63
21.45
23.28
24.12
24.01
23.14
21.83
20.46
19.38
18.76
18.57
18.65
18.75
18.64
18.2
17.39
16.26
14.84
13.1
11.02
8.57
5.76
2.65
-0.59
-3.86
-7.02
-10.02
-12.79
-15.28
-17.43
-19.2
-20.57
-21.51
-22.05
-22.21
-22.14
-22.06
-22.31
-23.26
-25.17
-28.02
-31.45
-34.79
-37.17
-37.86
-36.35
-32.51
-26.65
-19.38
-11.45
-3.64
3.44
9.45
14.36
18.37
21.72
24.51
26.6
27.65
27.35
25.68
22.95
19.77
16.78
14.4
12.72
11.6
10.82
10.22
9.73
9.32
8.91
8.4
7.66
6.69
5.54
4.26
2.87
1.34
-0.37
-2.21
-4.03
-5.69
-7.09
-8.25
-9.29
-10.39
-11.68
-13.28
-15.19
-17.39
-19.85
-22.48
-25.21
-27.94
-30.64
-33.32
-35.98
-38.63
-41.09
-43.04
-44.03
-43.49
-40.99
-36.28
-29.48
-21.08
-11.77
-2.39
6.34
13.94
20.22
25.17
28.88
31.43
32.89
33.36
33.03
32.18
31.08
29.91
28.73
27.48
26.19
24.92
23.85
23.07
22.52
21.91
20.92
19.3
16.98
14.08
10.76
7.16
3.38
-0.46
-4.16
-7.5
-10.32
-12.6
-14.57
-16.52
-18.69
-21.06
-23.39
-25.31
-26.49
-26.91
-26.79
-26.69
-27.25
-29.01
-32.22
-36.72
-41.92
-46.94
-50.66
-52.02
-50.18
-44.77
-35.99
-24.63
-11.89
0.91
12.7
22.74
30.74
36.69
40.76
43.13
44.02
43.74
42.69
41.28
39.82
38.45
37.14
35.8
34.4
33.01
31.74
30.68
29.77
28.82
27.66
26.09
24.01
21.38
18.23
14.64
10.82
7.02
3.49
0.33
-2.6
-5.6
-9.03
-13.04
-17.51
-22.03
-26.16
-29.68
-32.7
-35.73
-39.35
-44.07
-49.96
-56.56
-62.78
-67.11
-67.97
-64.17
-55.36
-42.23
-26.44
-10.14
4.7
16.76
25.62
31.63
35.48
37.86
39.18
39.63
39.32
38.45
37.32
36.24
35.38
34.7
33.99
32.99
31.6
29.91
28.2
26.77
25.71
24.88
23.86
22.13
19.36
15.54
11.07
6.55
2.57
-0.62
-3.2
-5.7
-8.71
-12.61
-17.35
-22.51
-27.46
-31.66
-34.9
-37.34
-39.49
-41.97
-45.42
-50.29
-56.7
-64.31
-72.1
-78.41
-81.26
-78.87
-70.36
-56.24
-38.39
-19.52
-2.24
11.71
21.92
29.02
34.2
38.47
42.29
45.61
48.13
49.58
49.97
49.51
48.47
47.07
45.43
43.64
41.84
40.28
39.19
38.7
38.76
39.05
39.18
38.73
37.43
35.21
32.11
28.24
23.82
19.08
14.32
9.82
5.75
2.1
-1.29
-4.67
-8.2
-11.96
-15.87
-19.8
-23.58
-27.12
-30.38
-33.42
-36.43
-39.72
-43.7
-48.81
-55.31
-63.07
-71.36
-78.76
-83.3
-82.97
-76.37
-63.41
-45.47
-25.12
-5.29
11.64
24.52
33.51
39.57
43.86
47.11
49.51
50.95
51.31
50.77
49.72
48.57
47.51
46.47
45.21
43.59
41.72
39.95
38.68
38.13
38.14
38.22
37.77
36.32
33.76
30.29
26.35
22.38
18.63
15.17
11.83
8.44
4.84
1.02
-2.91
-6.77
-10.44
-13.92
-17.3
-20.79
-24.5
-28.39
-32.25
-35.77
-38.77
-41.27
-43.6
-46.31
-49.96
-54.95
-61.3
-68.48
-75.38
-80.35
-81.56
-77.5
-67.6
-52.56
-34.27
-15.3
1.93
15.82
25.92
32.77
37.3
40.37
42.49
43.73
44.08
43.58
42.42
40.96
39.46
38.13
36.97
35.92
34.89
33.84
32.77
31.72
30.65
29.46
27.98
26.04
23.53
20.44
16.88
13.02
9.05
5.14
1.43
-2.03
-5.25
-8.35
-11.53
-14.94
-18.66
-22.56
-26.34
-29.63
-32.17
-33.98
-35.42
-37.06
-39.55
-43.43
-48.97
-56.02
-63.88
-71.25
-76.3
-77.13
-72.28
-61.42
-45.58
-26.93
-8.15
8.48
21.64
31.17
37.71
42.16
45.25
47.34
48.56
48.98
48.77
48.18
47.46
46.69
45.82
44.74
43.37
41.83
40.38
39.38
39.02
39.23
39.59
39.47
38.3
35.78
32.01
27.48
22.78
18.39
14.49
10.88
7.21
3.17
-1.3
-5.92
-10.25
-13.86
-16.64
-18.85
-21.08
-23.94
-27.8
-32.57
-37.71
-42.5
-46.33
-49.02
-50.87
-52.56
-54.88
-58.43
-63.44
-69.6
-76.05
-81.35
-83.77
-81.63
-73.88
-60.54
-42.93
-23.31
-4.2
12.32
25.19
34.38
40.56
44.62
47.27
48.97
49.97
50.46
50.61
50.51
50.17
49.49
48.38
46.87
45.08
43.31
41.83
40.78
40.14
39.66
38.96
37.64
35.42
32.25
28.35
24.13
20.06
16.48
13.46
10.78
8.02
4.83
1.08
-3.06
-7.21
-11.02
-14.34
-17.33
-20.4
-24.01
-28.35
-33.3
-38.41
-43.12
-46.98
-49.87
-51.98
-53.83
-56.06
-59.21
-63.48
-68.54
-73.38
-76.42
-75.87
-70.35
-59.44
-43.98
-25.95
-7.77
8.4
21.23
30.5
36.76
40.9
43.66
45.44
46.36
46.42
45.71
44.47
43.01
41.59
40.31
39.16
38.06
37.01
36.07
35.37
35.03
35.03
35.14
35.03
34.28
32.58
29.81
26.07
21.68
17.06
12.59
8.51
4.83
1.36
-2.2
-6.12
-10.52
-15.26
-20.01
-24.33
-27.85
-30.46
-32.35
-33.98
-35.92
-38.66
-42.53
-47.58
-53.56
-59.82
-65.3
-68.54
-68.04
-62.73
-52.41
-38.02
-21.42
-4.85
9.81
21.47
29.96
35.69
39.24
41.09
41.49
40.66
38.89
36.62
34.32
32.44
31.16
30.48
30.27
30.33
30.55
30.87
31.23
31.5
31.43
30.76
29.22
26.76
23.48
19.63
15.51
11.34
7.23
3.21
-0.67
-4.28
-7.47
-10.17
-12.49
-14.67
-17.02
-19.79
-23.01
-26.53
-30.13
-33.58
-36.8
-39.85
-42.92
-46.24
-50.09
-54.66
-59.95
-65.63
-70.93
-74.6
-75.18
-71.4
-62.64
-49.2
-32.44
-14.38
2.86
17.59
28.98
37.02
42.32
45.63
47.61
48.66
49.03
48.91
48.5
47.98
47.4
46.66
45.58
44.05
42.1
39.98
38.02
36.47
35.39
34.56
33.62
32.15
29.93
26.94
23.38
19.6
15.88
12.37
9.06
5.8
2.43
-1.07
-4.61
-7.98
-10.99
-13.6
-15.91
-18.17
-20.64
-23.54
-26.88
-30.5
-34.13
-37.5
-40.48
-43.15
-45.82
-48.91
-52.82
-57.75
-63.53
-69.47
-74.35
-76.64
-74.82
-67.89
-55.79
-39.55
-21.08
-2.71
13.51
26.26
35.19
40.75
43.82
45.28
45.79
45.74
45.31
44.58
43.62
42.48
41.19
39.76
38.15
36.41
34.64
33.02
31.78
31.08
30.89
31.0
30.97
30.32
28.66
25.94
22.38
18.4
14.45
10.78
7.4
4.16
0.92
-2.33
-5.49
-8.37
-10.88
-13.11
-15.31
-17.77
-20.69
-24.03
-27.61
-31.06
-34.05
-36.4
-38.17
-39.75
-41.73
-44.73
-49.1
-54.63
-60.44
-65.07
-66.87
-64.44
-57.19
-45.55
-30.85
-15.0
0.16
13.21
23.47
30.9
35.83
38.75
40.1
40.25
39.54
38.32
36.95
35.69
34.68
33.88
33.17
32.37
31.41
30.31
29.19
28.16
27.26
26.37
25.19
23.37
20.61
16.83
12.25
7.33
2.68
-1.26
-4.31
-6.69
-8.88
-11.4
-14.6
-18.47
-22.71
-26.84
-30.43
-33.28
-35.48
-37.43
-39.7
-42.84
-47.14
-52.43
-57.94
-62.36
-64.15
-61.95
-55.11
-43.95
-29.69
-14.13
0.92
14.07
24.63
32.51
38.04
41.63
43.7
44.57
44.51
43.78
42.62
41.24
39.78
38.33
36.94
35.67
34.52
33.47
32.47
31.43
30.25
28.86
27.23
25.31
23.1
20.58
17.76
14.64
11.25
7.64
3.92
0.21
-3.31
-6.56
-9.53
-12.32
-15.11
-18.09
-21.33
-24.82
-28.44
-32.07
-35.6
-38.98
-42.2
-45.31
-48.44
-51.77
-55.56
-59.93
-64.74
-69.39
-72.75
-73.45
-70.18
-62.26
-49.94
-34.41
-17.52
-1.16
13.18
24.8
33.64
40.09
44.59
47.49
48.99
49.25
48.63
47.55
46.5
45.78
45.44
45.26
44.92
44.18
43.0
41.53
40.04
38.67
37.35
35.84
33.82
31.1
27.68
23.79
19.78
15.98
12.52
9.36
6.35
3.31
0.13
-3.17
-6.52
-9.77
-12.83
-15.71
-18.48
-21.3
-24.33
-27.64
-31.19
-34.77
-38.12
-40.99
-43.35
-45.37
-47.45
-50.16
-53.89
-58.76
-64.32
-69.55
-72.99
-73.11
-68.73
-59.49
-46.05
-29.93
-13.11
2.51
15.64
25.69
32.81
37.55
40.6
42.54
43.74
44.34
44.42
44.02
43.29
42.41
41.57
40.8
39.99
38.92
37.44
35.62
33.73
32.1
30.91
30.0
28.91
27.1
24.19
20.17
15.43
10.58
6.22
2.69
0.02
-2.14
-4.27
-6.86
-10.13
-14.03
-18.27
-22.45
-26.29
-29.68
-32.78
-35.89
-39.35
-43.45
-48.32
-53.85
-59.55
-64.52
-67.41
-66.77
-61.48
-51.22
-36.75
-19.83
-2.68
12.64
24.85
33.64
39.5
43.21
45.47
46.62
46.78
46.04
44.68
43.1
41.74
40.8
40.18
39.59
38.75
37.57
36.16
34.77
33.56
32.47
31.25
29.59
27.28
24.34
20.95
17.39
13.9
10.59
7.43
4.33
1.19
-2.07
-5.42
-8.77
-12.0
-15.03
-17.87
-20.65
-23.53
-26.7
-30.22
-34.0
-37.76
-41.16
-43.98
-46.22
-48.19
-50.43
-53.42
-57.38
-62.07
-66.66
-69.94
-70.56
-67.41
-59.98
-48.53
-34.06
-18.12
-2.38
11.73
23.33
32.18
38.56
43.01
46.13
48.32
49.84
50.77
51.18
51.09
50.6
49.77
48.65
47.31
45.77
44.12
42.45
40.81
39.2
37.54
35.69
33.52
30.96
28.03
24.85
21.59
18.47
15.63
13.17
11.0
8.97
6.87
4.54
1.91
-0.92
-3.73
-6.31
-8.46
-10.17
-11.58
-12.92
-14.45
-16.31
-18.46
-20.64
-22.52
-23.89
-24.73
-25.36
-26.33
-28.22
-31.39
-35.81
-40.95
-45.89
-49.55
-50.99
-49.7
-45.68
-39.38
-31.61
-23.23
-14.97
-7.35
-0.6
5.24
10.23
14.42
17.84
20.49
22.37
23.57
24.21
24.5
24.57
24.51
24.36
24.16
23.93
23.74
23.57
23.34
22.86
21.96
20.51
18.55
16.16
13.49
10.63
7.68
4.69
1.81
-0.82
-3.14
-5.14
-7.01
-8.94
-11.08
-13.41
-15.76
-17.92
-19.7
-21.1
-22.26
-23.42
-24.86
-26.8
-29.39
-32.6
-36.22
-39.82
-42.75
-44.25
-43.63
-40.45
-34.68
-26.75
-17.45
-7.76
1.39
9.35
15.86
20.95
24.89
27.94
30.27
31.85
32.53
32.25
31.06
29.27
27.3
25.58
24.4
23.76
23.5
23.29
22.84
21.97
20.69
19.05
17.11
14.86
12.25
9.25
5.94
2.56
-0.61
-3.28
-5.31
-6.76
-7.82
-8.74
-9.75
-11.0
-12.55
-14.43
-16.57
-18.86
-21.1
-23.14
-24.89
-26.39
-27.83
-29.5
-31.69
-34.63
-38.32
-42.51
-46.56
-49.61
-50.72
-49.09
-44.39
-36.82
-27.14
-16.45
-5.87
3.74
11.88
18.46
23.66
27.78
31.06
33.64
35.54
36.73
37.23
37.11
36.48
35.45
34.13
32.63
31.07
29.61
28.4
27.51
26.85
26.19
25.24
23.77
21.73
19.22
16.51
13.81
11.3
8.97
6.77
4.58
2.3
-0.11
-2.59
-5.09
-7.49
-9.67
-11.53
-12.97
-14.01
-14.77
-15.48
-16.37
-17.61
-19.21
-21.03
-22.89
-24.69
-26.44
-28.3
-30.47
-33.09
-36.15
-39.4
-42.31
-44.19
-44.29
-42.02
-37.19
-30.1
-21.5
-12.37
-3.67
3.94
10.19
15.15
19.02
22.04
24.35
26.03
27.13
27.66
27.69
27.29
26.57
25.65
24.65
23.64
22.61
21.5
20.23
18.82
17.33
15.9
14.63
13.56
12.62
11.65
10.51
9.12
7.49
5.71
3.92
2.19
0.52
-1.14
-2.89
-4.78
-6.83
-9.01
-11.31
-13.68
-16.06
-18.35
-20.42
