-14.23
-18.72
-23.09
-27.46
-31.92
-36.6
-41.7
-47.49
-54.23
-62.02
-70.46
-78.49
-84.5
-86.73
-83.84
-75.51
-62.57
-46.77
-30.27
-14.94
-1.97
8.28
16.02
21.76
26.03
29.21
31.54
33.2
34.35
35.21
35.96
36.74
37.61
38.51
39.43
40.32
41.24
42.24
43.28
44.17
44.56
44.06
42.37
39.42
35.43
30.82
26.06
21.48
17.13
12.84
8.29
3.23
-2.32
-8.09
-13.56
-18.26
-21.93
-24.65
-26.83
-29.16
-32.35
-37.04
-43.46
-51.26
-59.4
-66.22
-69.81
-68.64
-62.03
-50.45
-35.36
-18.74
-2.49
12.09
24.41
34.53
42.77
49.48
54.87
59.03
62.11
64.43
66.53
69.09
72.69
77.57
83.6
90.26
96.9
103.0
108.41
113.29
118.03
122.95
128.09
133.23
138.0
142.1
145.56
148.73
152.24
156.72
162.62
170.06
178.91
188.72
198.84
208.4
216.32
221.51
223.1
220.62
214.16
204.2
191.49
176.78
160.71
143.75
126.3
108.81
91.89
76.41
63.39
53.84
48.45
47.29
49.54
53.54
57.17
58.34
55.55
48.19
36.52
21.37
3.82
-15.13
-34.63
-53.99
-72.59
-89.91
-105.61
-119.67
-132.41
-144.32
-155.77
-166.77
-176.86
-185.28
-191.33
-194.74
-195.94
-195.89
-195.82
-196.76
-199.25
-203.25
-208.28
-213.69
-218.93
-223.66
-227.83
-231.5
-234.78
-237.81
-240.66
-243.41
-246.04
-248.35
-249.86
-249.8
-247.33
-241.79
-232.98
-221.38
-208.01
-194.17
-181.1
-169.54
-159.53
-150.33
-140.6
-128.78
-113.62
-94.58
-72.1
-47.47
-22.45
1.24
22.38
40.42
55.35
67.46
77.0
84.09
88.77
91.15
91.58
90.57
88.77
86.65
84.45
82.11
79.34
75.8
71.27
65.67
59.1
51.75
43.8
35.36
26.44
16.89
6.61
-4.44
-16.06
-27.79
-38.99
-49.07
-57.73
-65.04
-71.42
-77.3
-83.01
-88.52
-93.48
-97.44
-100.1
-101.47
-101.95
-102.25
-103.18
-105.49
-109.67
-115.71
-122.96
-130.06
-135.16
-136.32
-132.11
-122.16
-107.35
-89.59
-71.28
-54.57
-40.87
-30.62
-23.52
-18.9
-16.04
-14.42
-13.63
-13.29
-12.94
-12.04
-10.09
-6.82
-2.32
2.98
8.47
13.56
17.93
21.53
24.51
27.09
29.37
31.19
32.25
32.13
30.5
27.3
22.8
17.6
12.47
8.15
5.02
3.09
1.87
0.63
-1.29
-4.24
-8.12
-12.49
-16.82
-20.76
-24.4
-28.17
-32.79
-39.01
-47.38
-58.06
-70.58
-83.76
-95.7
-104.06
-106.64
-101.96
-89.81
-71.33
-48.77
-24.81
-1.93
18.18
34.73
47.81
57.97
65.96
72.4
77.72
82.09
85.63
88.49
90.9
93.16
95.49
97.98
100.48
102.79
104.67
106.04
106.88
107.24
107.05
106.18
104.38
101.45
97.32
92.07
85.98
79.49
73.05
67.03
61.62
56.73
52.02
47.05
41.46
35.11
28.21
21.16
14.38
8.16
2.53
-2.78
-8.18
-14.2
-21.38
-30.24
-41.02
-53.47
-66.56
-78.47
-86.91
-89.71
-85.62
-74.74
-58.55
-39.47
-20.05
-2.37
12.42
24.01
32.7
39.0
43.37
46.21
47.84
48.61
48.89
49.1
49.57
50.46
51.78
53.39
55.11
56.85
58.56
60.24
61.77
62.86
63.11
62.16
59.8
56.17
51.63
46.7
41.8
37.13
32.62
28.04
23.17
17.87
12.25
6.56
1.07
-4.03
-8.78
-13.45
-18.57
-24.77
-32.59
-42.17
-52.94
-63.5
-71.81
-75.71
-73.56
-64.89
-50.57
-32.61
-13.46
4.61
20.13
32.54
42.05
49.21
54.57
58.48
61.11
62.57
63.1
63.11
63.13
63.57
64.6
66.05
67.53
68.67
69.3
69.46
69.36
69.13
68.7
67.74
65.79
62.47
57.65
51.51
44.56
37.46
30.85
25.17
20.52
16.69
13.21
9.53
5.22
0.12
-5.59
-11.54
-17.28
-22.53
-27.3
-31.95
-37.14
-43.57
-51.84
-62.13
-74.0
-86.22
-96.92
-103.83
-104.97
-99.18
-86.64
-68.86
-48.28
-27.54
-8.74
6.9
19.22
28.68
36.0
41.82
46.48
50.15
52.94
55.02
56.65
58.09
59.47
60.7
61.54
61.72
61.16
60.01
58.65
57.46
56.58
55.8
54.62
52.48
49.03
44.3
38.69
32.82
27.3
22.51
18.48
14.98
11.62
8.09
4.21
0.03
-4.24
-8.36
-12.16
-15.63
-18.99
-22.66
-27.21
-33.24
-41.15
-50.91
-61.79
-72.34
-80.58
-84.49
-82.6
-74.5
-61.02
-44.02
-25.89
-8.84
5.55
16.64
24.56
29.92
33.43
35.65
36.94
37.55
37.72
37.76
38.02
38.8
40.27
42.38
44.91
47.51
49.81
51.47
52.25
51.97
50.55
47.95
44.21
39.45
33.94
27.98
21.92
15.99
10.2
4.4
-1.59
-7.81
-14.07
-19.98
-25.17
-29.53
-33.33
-37.27
-42.25
-49.05
-58.0
-68.65
-79.66
-89.04
-94.59
-94.61
-88.37
-76.43
-60.46
-42.69
-25.24
-9.63
3.48
14.15
22.83
30.02
36.02
40.9
44.58
47.05
48.44
49.04
49.25
49.37
49.53
49.68
49.68
49.48
49.15
48.88
48.77
48.71
48.36
47.25
45.0
41.47
36.87
31.69
26.55
21.97
18.24
15.32
12.84
10.26
7.04
2.8
-2.48
-8.5
-14.72
-20.57
-25.69
-30.1
-34.14
-38.47
-43.79
-50.72
-59.49
-69.8
-80.68
-90.47
-97.2
-99.02
-94.85
-84.73
-69.89
-52.42
-34.59
-18.3
-4.65
6.09
14.24
20.36
24.99
28.54
31.25
33.34
34.96
36.28
37.4
38.34
39.05
39.43
39.47
39.29
39.21
39.65
40.9
43.01
45.62
48.08
49.67
49.87
48.54
45.96
42.64
39.08
35.56
32.09
28.41
24.21
19.3
13.69
7.61
1.5
-4.19
-9.07
-13.04
-16.34
-19.52
-23.37
-28.71
-36.05
-45.4
-55.97
-66.24
-74.23
-78.01
-76.29
-68.85
-56.61
-41.35
-25.15
-9.81
3.46
14.13
22.16
27.82
31.41
33.29
33.82
33.41
32.51
31.55
30.86
30.67
31.05
31.94
33.13
34.39
35.48
36.24
36.6
36.48
35.7
34.0
31.09
26.84
21.44
15.43
9.52
4.31
-0.03
-3.79
-7.61
-12.1
-17.49
-23.52
-29.6
-35.07
-39.6
-43.32
-46.76
-50.65
-55.64
-62.13
-70.12
-79.1
-88.02
-95.31
-99.17
-98.08
-91.28
-79.19
-63.35
-45.92
-29.11
-14.43
-2.51
6.85
14.3
20.5
25.85
30.45
34.25
37.2
39.39
41.08
42.58
44.14
45.87
47.74
49.61
51.36
52.89
54.14
55.0
55.3
54.79
53.25
50.54
46.68
41.85
36.33
30.48
24.67
19.27
14.57
10.64
7.3
4.15
0.71
-3.37
-8.14
-13.31
-18.43
-23.07
-27.08
-30.62
-34.16
-38.25
-43.45
-50.14
-58.4
-67.83
-77.4
-85.57
-90.47
-90.49
-84.83
-73.78
-58.79
-41.92
-25.29
-10.51
1.65
11.17
18.53
24.32
29.03
32.94
36.14
38.67
40.55
41.94
43.01
43.92
44.72
45.33
45.62
45.54
45.14
44.67
44.31
44.1
43.81
43.01
41.25
38.3
34.26
29.56
24.74
20.27
16.32
12.78
9.35
5.64
1.42
-3.34
-8.41
-13.43
-18.03
-22.04
-25.58
-29.09
-33.2
-38.58
-45.64
-54.31
-63.87
-72.97
-79.84
-82.76
-80.55
-72.99
-60.92
-45.99
-30.13
-15.07
-1.9
8.92
17.37
23.59
27.72
29.82
30.12
29.04
27.25
25.51
24.47
24.45
25.35
26.81
28.36
29.66
30.62
31.31
31.83
32.1
31.85
30.67
28.22
24.4
19.44
13.82
8.16
2.98
-1.49
-5.29
-8.76
-12.34
-16.45
-21.25
-26.58
-31.97
-36.83
-40.73
-43.59
-45.86
-48.35
-51.97
-57.38
-64.64
-73.01
-81.04
-86.86
-88.66
-85.26
-76.42
-62.96
-46.52
-29.11
-12.59
1.71
13.17
21.86
28.25
32.98
36.63
39.57
41.98
43.91
45.42
46.58
47.49
48.25
48.89
49.37
49.62
49.59
49.23
48.51
47.42
45.94
43.99
41.43
38.13
33.95
28.87
23.03
16.83
10.74
5.25
0.66
-3.04
-6.09
-8.91
-11.85
-15.14
-18.77
-22.6
-26.38
-29.97
-33.32
-36.55
-39.93
-43.79
-48.44
-54.08
-60.65
-67.69
-74.26
-79.0
-80.42
-77.27
-69.01
-56.01
-39.61
-21.77
-4.57
10.33
22.05
30.53
36.35
40.38
43.43
46.04
48.48
50.84
53.12
55.29
57.24
58.72
59.38
58.92
57.17
54.27
50.63
46.76
43.12
39.87
36.86
33.73
30.08
25.65
20.41
14.61
8.69
3.12
-1.73
-5.76
-9.16
-12.33
-15.67
-19.42
-23.53
-27.73
-31.67
-35.1
-38.05
-40.82
-43.89
-47.77
-52.94
-59.6
-67.55
-76.03
-83.6
-88.42
-88.68
-83.21
-71.94
-56.07
-37.63
-18.92
-1.8
12.66
24.15
32.85
39.05
42.93
44.62
44.29
42.36
39.49
36.42
33.82
32.05
31.14
30.86
30.9
31.03
31.14
31.28
31.47
31.64
31.52
30.71
28.84
25.69
21.35
16.2
10.81
5.75
1.36
-2.37
-5.74
-9.26
-13.34
-18.1
-23.34
-28.63
-33.47
-37.6
-41.09
-44.38
-48.16
-53.19
-60.06
-68.82
-78.83
-88.63
-96.24
-99.59
-97.2
-88.69
-74.95
-57.83
-39.61
-22.36
-7.49
4.44
13.54
20.32
25.42
29.35
32.48
35.02
37.09
38.85
40.44
42.0
43.57
45.1
46.46
47.54
48.29
48.71
48.89
48.83
48.47
47.66
46.18
43.83
40.5
36.24
31.28
26.05
21.09
16.89
13.72
11.47
9.69
7.73
4.97
1.03
-4.05
-9.92
-16.05
-21.9
-27.18
-31.91
-36.42
-41.26
-47.1
-54.48
-63.64
-74.28
-85.37
-95.16
-101.52
-102.5
-96.98
-85.12
-68.37
-49.09
-29.75
-12.34
2.09
13.35
21.9
28.38
33.4
37.35
40.45
42.78
44.43
45.53
46.26
46.83
47.37
47.92
48.46
48.93
49.32
49.66
49.92
49.98
49.54
48.26
45.84
42.27
37.8
32.95
28.23
23.99
20.26
16.76
13.09
8.93
4.2
-0.87
-5.88
-10.39
-14.22
-17.51
-20.73
-24.61
-29.85
-36.96
-45.94
-56.17
-66.32
-74.58
-79.0
-78.14
-71.45
-59.54
-44.06
-27.21
-11.13
2.61
13.28
20.93
26.08
29.31
31.08
31.66
31.26
30.18
28.87
27.87
27.63
28.35
29.86
31.75
33.51
34.77
35.42
35.51
35.11
34.15
32.39
29.52
25.42
20.25
14.59
9.22
4.86
1.83
-0.03
-1.36
-2.92
-5.34
-8.87
-13.33
-18.28
-23.25
-27.87
-32.06
-36.01
-40.11
-44.89
-50.93
-58.59
-67.89
-78.12
-87.83
-95.0
-97.52
-93.92
-83.93
-68.6
-50.03
-30.67
-12.64
2.76
15.1
24.6
31.76
37.1
41.01
43.81
45.79
47.27
48.59
49.99
51.6
53.34
55.03
56.42
57.32
57.68
57.54
57.06
56.35
55.42
54.15
52.29
49.55
45.78
41.03
35.58
29.87
24.39
19.49
15.23
11.41
7.64
3.46
-1.44
-7.1
-13.25
-19.41
-25.07
-29.92
-34.03
-37.83
-42.08
-47.57
-54.83
-63.92
-74.16
-84.14
-91.94
-95.55
-93.46
-85.15
-71.31
-53.73
-34.73
-16.55
-0.81
11.76
21.21
28.08
33.02
36.5
38.77
39.98
40.31
40.07
39.65
39.46
39.74
40.54
41.7
43.02
44.28
45.33
46.04
46.17
45.49
43.76
40.9
37.07
32.62
27.98
23.47
19.2
15.02
10.65
5.86
0.6
-4.94
-10.42
-15.5
-20.06
-24.25
-28.44
-33.18
-38.94
-46.04
-54.43
-63.49
-72.03
-78.33
-80.58
-77.42
-68.51
-54.71
-37.92
-20.46
-4.31
9.32
20.17
28.55
34.99
39.85
43.27
45.32
46.13
46.08
45.62
45.19
45.01
45.06
45.11
44.92
44.44
43.76
43.14
42.78
42.66
42.45
41.64
39.68
36.27
31.48
25.78
19.89
14.47
9.89
6.08
2.6
-1.18
-5.71
-11.13
-17.16
-23.3
-28.98
-33.9
-38.09
-41.95
-46.14
-51.35
-58.08
-66.47
-76.01
-85.49
-93.11
-96.86
-95.09
-87.15
-73.62
-56.19
-37.19
-18.85
-2.78
10.29
20.4
28.01
33.68
37.87
40.9
43.02
44.46
45.49
46.34
47.15
47.95
48.67
49.19
49.46
49.54
49.58
49.67
49.76
49.55
48.6
46.46
42.94
38.19
32.66
26.97
21.6
16.75
12.29
7.9
3.24
-1.8
-7.14
-12.51
-17.58
-22.1
-26.04
-29.56
-33.04
-37.02
-42.03
-48.45
-56.26
-64.8
-72.8
-78.53
-80.33
-77.12
-68.8
-56.34
-41.48
-26.15
-11.97
0.13
9.9
17.52
23.28
27.44
30.11
31.42
31.63
31.15
30.47
30.04
30.17
30.91
32.11
33.51
34.85
35.89
36.43
36.33
35.45
33.72
31.16
27.84
23.93
19.59
14.94
10.08
5.08
0.04
-4.9
-9.62
-14.04
-18.2
-22.25
-26.36
-30.75
-35.63
-41.26
-47.86
-55.5
-63.82
-71.84
-78.01
-80.59
-78.15
-70.23
-57.5
-41.69
-24.95
-9.3
3.97
14.39
22.21
27.98
32.23
35.31
37.36
38.45
38.77
38.66
38.55
38.83
39.7
41.07
42.65
44.09
45.09
45.52
45.41
44.86
43.9
42.43
40.22
37.04
32.84
27.81
22.42
17.26
12.83
9.35
6.64
4.25
1.64
-1.63
-5.74
-10.54
-15.7
-20.77
-25.42
-29.51
-33.21
-36.99
-41.49
-47.35
-54.89
-63.81
-73.07
-80.99
-85.62
-85.29
-79.18
-67.61
-51.98
-34.41
-17.04
-1.53
11.26
21.28
28.95
34.84
39.38
42.76
45.05
46.3
46.67
46.48
46.07
45.7
45.45
45.24
44.98
44.62
44.26
43.99
43.87
43.76
43.32
42.13
39.84
36.34
31.79
26.6
21.34
16.48
12.31
8.82
5.68
2.44
-1.35
-5.86
-10.96
-16.24
-21.18
-25.45
-28.99
-32.1
-35.31
-39.24
-44.48
-51.32
-59.64
-68.69
-77.14
-83.21
-85.15
-81.84
-73.17
-60.18
-44.67
-28.68
-13.91
-1.33
8.77
16.58
22.49
26.85
29.88
31.8
32.83
33.26
33.43
33.64
34.05
34.66
35.32
35.85
36.16
36.27
36.35
36.44
36.46
36.0
34.56
31.72
27.37
21.82
15.74
9.88
4.75
0.51
-3.12
-6.66
-10.61
-15.25
-20.49
-25.97
-31.22
-35.86
-39.77
-43.1
-46.32
-50.02
-54.85
-61.18
-68.87
-77.09
-84.33
-88.72
-88.57
-82.94
-72.01
-57.03
-40.01
-23.05
-7.82
4.76
14.55
21.95
27.57
31.93
35.4
38.1
40.12
41.54
42.54
43.36
44.21
45.23
46.4
47.58
48.61
49.33
49.64
49.49
48.84
47.67
45.91
43.53
40.49
36.82
32.59
27.96
23.16
18.47
14.13
10.29
6.94
3.91
0.94
-2.24
-5.78
-9.7
-13.87
-18.09
-22.17
-26.01
-29.64
-33.21
-37.02
-41.47
-46.99
-53.93
-62.28
-71.44
-80.13
-86.47
-88.49
-84.67
-74.49
-58.71
-39.23
-18.53
0.86
17.05
29.01
36.63
40.56
41.81
41.49
40.54
39.6
39.02
38.88
39.17
39.81
40.75
41.87
43.05
44.12
44.92
45.38
45.49
45.24
44.54
43.2
40.92
37.49
32.9
27.42
21.55
15.84
10.7
6.24
2.33
-1.39
-5.29
-9.62
-14.43
-19.54
-24.6
-29.22
-33.14
-36.38
-39.34
-42.67
-47.12
-53.21
-61.0
-69.87
-78.55
-85.31
-88.36
-86.36
-78.84
-66.42
-50.65
-33.57
-17.16
-2.84
8.71
17.46
23.71
27.8
30.02
30.61
29.93
28.47
26.83
25.57
25.02
25.27
26.09
27.17
28.12
28.73
28.96
28.92
28.74
28.44
27.82
26.48
24.05
20.36
15.64
10.51
5.69
1.74
-1.19
-3.34
-5.27
-7.46
-10.25
-13.69
-17.68
-22.01
-26.54
-31.19
-36.03
-41.28
-47.34
-54.7
-63.71
-74.26
-85.44
-95.57
-102.45
-104.08
-99.22
-87.99
-71.78
-52.8
-33.46
-15.65
-0.44
11.91
21.68
29.35
35.34
39.95
43.35
45.69
47.17
48.01
48.5
48.91
49.41
50.1
50.9
51.7
52.37
52.84
53.09
53.14
52.9
52.19
50.77
48.46
45.23
41.23
36.76
32.18
27.75
23.62
19.83
16.33
12.99
9.62
6.0
1.93
-2.68
-7.72
-12.9
-17.84
-22.28
-26.2
-29.9
-33.95
-39.02
-45.67
-54.06
-63.76
-73.67
-82.1
-87.15
-87.22
-81.48
-70.24
-54.84
-37.32
-19.83
-4.13
8.78
18.63
25.76
30.78
34.34
36.91
38.75
39.99
40.72
41.12
41.39
41.75
42.29
42.91
43.39
43.55
43.29
42.71
41.95
41.1
40.07
38.56
36.24
32.89
28.57
23.66
18.74
14.37
10.85
8.11
5.71
3.08
-0.28
-4.51
-9.41
-14.46
-19.15
-23.17
-26.56
-29.73
-33.3
-37.92
-44.07
-51.91
-61.01
-70.3
-78.14
-82.62
-82.09
-75.71
-63.82
-47.87
-30.05
-12.59
2.76
15.09
24.25
30.62
34.67
36.8
37.28
36.36
34.39
31.94
29.66
28.21
27.97
28.95
30.82
33.04
35.1
36.7
37.74
38.23
38.22
37.62
36.25
33.93
30.62
26.45
21.78
17.08
12.78
9.18
6.33
4.02
1.89
-0.52
-3.55
-7.33
-11.73
-16.47
-21.24
-25.8
-30.1
-34.26
-38.58
-43.49
-49.48
-57.01
-66.17
-76.43
-86.43
-94.18
-97.49
-94.73
-85.45
-70.58
-52.19
-32.78
-14.58
0.95
13.28
22.58
29.42
34.43
38.15
40.96
43.15
44.96
46.61
48.23
49.92
51.7
53.48
55.14
56.56
57.66
58.38
58.74
58.7
58.17
57.0
55.01
52.09
48.22
43.53
38.3
32.86
27.51
22.48
17.88
13.68
9.73
5.85
1.82
-2.5
-7.16
-12.06
-17.01
-21.82
-26.3
-30.4
-34.23
-38.09
-42.41
-47.69
-54.36
-62.55
-71.83
-81.1
-88.62
-92.45
-90.98
-83.58
-70.82
-54.33
-36.29
-18.84
-3.5
8.95
18.44
25.31
30.02
33.05
34.77
35.59
35.83
35.83
35.84
36.0
36.35
36.84
37.42
38.01
38.58
39.11
39.55
39.74
39.41
38.22
35.87
32.26
27.52
22.03
16.33
10.92
6.11
1.9
-1.96
-5.86
-10.08
-14.65
-19.33
-23.69
-27.37
-30.27
-32.57
-34.77
-37.47
-41.3
-46.61
-53.37
-60.94
-68.07
-73.1
-74.39
-70.82
-62.29
-49.73
-34.83
-19.55
-5.47
6.48
15.98
23.13
28.17
31.29
32.7
32.66
31.64
30.23
29.03
28.53
28.95
30.2
31.99
33.85
35.38
36.29
36.53
36.14
35.22
33.78
31.68
28.7
24.71
19.79
14.33
8.93
4.2
0.48
-2.23
-4.31
-6.36
-8.86
-12.03
-15.75
-19.62
-23.18
-26.12
-28.42
-30.37
-32.51
-35.45
-39.81
-46.03
-54.16
-63.71
-73.46
-81.57
-85.91
-84.72
-77.2
-63.86
-46.44
-27.39
-9.13
6.58
18.88
27.83
34.0
38.18
41.05
43.02
44.35
45.15
45.5
45.6
45.63
45.81
46.25
46.97
47.89
48.86
49.76
50.47
50.85
50.77
50.01
48.45
46.02
42.83
39.09
35.06
30.97
26.93
22.99
19.14
15.43
11.95
8.76
5.85
2.98
-0.13
-3.75
-7.98
-12.62
-17.36
-21.84
-25.91
-29.68
-33.47
-37.76
-43.04
-49.69
-57.84
-67.14
-76.65
-84.81
-89.74
-89.71
-83.77
-72.14
-56.23
-38.18
-20.27
-4.34
8.63
18.46
25.56
30.6
34.18
36.75
38.6
39.96
41.0
41.93
42.88
43.89
44.88
45.7
46.22
46.45
46.47
46.4
46.27
45.96
45.22
43.74
41.3
37.8
33.34
28.17
22.71
17.38
12.58
8.55
5.24
2.37
-0.51
-3.78
-7.59
-11.82
-16.1
-20.03
-23.37
-26.17
-28.72
-31.53
-35.15
-40.08
-46.59
-54.52
-63.13
-71.07
-76.59
-78.0
-74.19
-65.07
-51.59
-35.53
-18.87
-3.34
9.98
20.7
28.91
34.9
38.93
41.17
41.77
40.98
39.22
37.07
35.2
34.15
34.2
35.26
36.91
38.6
39.85
40.39
40.18
39.37
38.04
36.17
33.63
30.26
26.03
21.14
15.96
10.93
6.43
2.62
-0.57
-3.43
-6.33
-9.58
-13.38
-17.68
-22.27
-26.81
-31.02
-34.77
-38.17
-41.58
-45.51
-50.52
-56.99
-64.95
-73.88
-82.6
-89.37
-92.34
-90.05
-81.92
-68.57
-51.65
-33.37
-15.84
-0.57
11.75
21.17
28.19
33.4
37.25
40.08
42.09
43.46
44.38
45.02
45.52
45.99
46.5
47.13
47.91
48.85
49.86
50.76
51.32
51.33
50.63
49.15
46.95
44.14
40.9
37.38
33.74
30.07
26.4
22.69
18.92
15.06
11.18
7.35
3.58
-0.19
-4.14
-8.47
-13.28
-18.49
-23.87
-29.06
-33.75
-37.83
-41.49
-45.21
-49.67
-55.51
-63.03
-71.88
-80.95
-88.41
-92.24
-90.78
-83.35
-70.49
-53.89
-35.79
-18.34
-3.13
9.13
18.46
25.32
30.36
34.12
36.96
39.06
40.49
41.31
41.7
41.89
42.14
42.64
43.37
44.24
45.01
45.53
45.71
45.54
45.0
44.05
42.57
40.43
37.56
33.98
29.8
25.22
20.47
15.77
11.31
7.22
3.48
-0.05
-3.59
-7.37
-11.51
-15.92
-20.39
-24.58
-28.27
-31.43
-34.3
-37.36
-41.23
-46.43
-53.26
-61.54
-70.49
-78.74
-84.51
-86.08
-82.25
-72.85
-58.8
-41.92
-24.38
-8.12
5.59
16.3
24.15
29.62
33.19
35.25
36.04
35.79
34.84
33.61
32.57
32.15
32.59
33.83
35.61
37.5
39.1
40.12
40.42
40.01
38.93
37.23
34.9
31.98
28.54
24.71
20.7
16.72
12.93
9.45
6.32
3.53
1.02
-1.33
-3.73
-6.41
-9.61
-13.41
-17.77
-22.48
-27.29
-31.98
-36.49
-40.94
-45.61
-50.94
-57.37
-65.12
-73.92
-82.82
-90.16
-93.93
-92.4
-84.76
-71.46
-54.2
-35.34
-17.22
-1.54
10.93
20.17
26.69
31.12
34.04
35.83
36.79
37.14
37.07
36.81
36.6
36.66
37.1
37.9
38.93
40.0
40.96
41.76
42.39
42.91
43.25
43.27
42.71
41.28
38.8
35.26
30.87
26.0
21.12
16.64
12.8
9.6
6.79
3.99
0.79
-3.04
-7.53
-12.48
-17.52
-22.3
-26.58
-30.37
-33.93
-37.78
-42.56
-48.85
-56.92
-66.46
-76.48
-85.23
-90.72
-91.15
-85.6
-74.36
-58.9
-41.44
-24.26
-9.12
3.06
12.13
18.47
22.58
24.91
25.8
25.61
24.78
23.8
23.18
23.33
24.38
26.24
28.63
31.14
33.42
35.2
36.35
36.82
36.59
35.58
33.66
30.66
26.56
21.56
16.16
10.97
6.56
3.09
0.28
-2.49
-5.85
-10.14
-15.21
-20.53
-25.51
-29.79
-33.47
-37.05
-41.28
-46.83
-54.06
-62.86
-72.5
-81.64
-88.55
-91.42
-88.85
-80.38
-66.65
-49.31
-30.57
-12.57
3.09
15.61
24.97
31.62
36.23
39.37
41.46
42.78
43.53
43.96
44.32
44.89
45.86
47.23
48.84
50.45
51.81
52.78
53.33
53.43
53.06
52.05
50.26
47.56
43.96
39.63
34.77
29.66
24.5
19.46
14.69
10.3
6.38
2.87
-0.46
-3.95
-7.93
-12.59
-17.82
-23.32
-28.66
-33.53
-37.91
-42.07
-46.52
-51.83
-58.47
-66.63
-76.0
-85.64
-93.96
-99.0
-98.9
-92.6
-80.23
-63.22
-43.88
-24.67
-7.5
6.6
17.52
25.65
31.54
35.71
38.5
40.27
41.35
42.1
42.82
43.7
44.77
45.93
47.02
47.91
48.53
48.88
49.05
49.12
49.07
48.75
47.88
46.14
43.23
39.1
33.92
28.17
22.42
17.22
12.87
9.34
6.26
3.12
-0.51
-4.81
-9.68
-14.74
-19.6
-23.96
-27.77
-31.26
-34.81
-39.01
-44.39
-51.34
-59.8
-69.07
-77.73
-83.87
-85.59
-81.62
-71.78
-57.09
-39.5
-21.3
-4.49
9.61
20.48
28.25
33.33
36.19
37.24
36.85
35.43
33.49
31.61
30.32
29.93
30.45
31.61
32.98
34.24
35.19
35.88
36.36
36.63
36.43
35.38
33.06
29.27
24.14
18.16
11.97
6.16
1.09
-3.23
-7.07
-10.83
-14.86
-19.27
-23.91
-28.4
-32.36
-35.6
-38.3
-40.94
-44.26
-48.98
-55.56
-64.02
-73.73
-83.4
-91.18
-95.05
-93.35
-85.38
-71.63
-53.78
-34.17
-15.14
1.57
15.12
25.51
33.29
39.12
43.58
47.05
49.71
51.68
53.04
53.94
54.58
55.18
55.93
56.95
58.18
59.45
60.52
61.16
61.27
60.82
59.82
58.21
55.84
52.54
48.18
42.89
37.02
31.07
25.52
20.7
16.61
13.05
9.65
6.01
1.89
-2.82
-8.04
-13.5
-18.87
-23.85
-28.29
-32.28
-36.12
-40.27
-45.33
-51.8
-59.97
-69.58
-79.74
-88.82
-94.78
-95.72
-90.53
-79.33
-63.49
-45.21
-26.82
-10.19
3.63
14.38
22.37
28.1
32.11
34.8
36.5
37.44
37.84
37.92
37.9
37.94
38.15
38.56
39.15
39.84
40.63
41.48
42.37
