50.07
50.32
50.6
51.05
51.59
52.03
52.23
52.18
52.02
51.89
51.75
51.36
50.31
48.23
44.91
40.46
35.22
29.58
23.85
18.17
12.61
7.17
1.97
-2.83
-7.05
-10.68
-13.91
-17.13
-20.85
-25.61
-31.83
-39.74
-49.24
-59.64
-69.66
-77.46
-81.12
-79.15
-71.12
-57.87
-41.34
-23.95
-7.88
5.44
15.54
22.67
27.4
30.23
31.45
31.26
29.88
27.7
25.29
23.29
22.18
22.16
23.08
24.56
26.1
27.22
27.66
27.33
26.29
24.68
22.53
19.8
16.33
11.94
6.55
0.29
-6.48
-13.23
-19.48
-24.89
-29.39
-33.18
-36.66
-40.31
-44.62
-50.05
-56.84
-64.82
-73.19
-80.49
-84.9
-84.8
-79.31
-68.72
-54.4
-38.34
-22.52
-8.37
3.46
12.93
20.33
25.96
29.97
32.41
33.34
32.96
31.69
30.05
28.6
27.75
27.61
28.05
28.74
29.28
29.35
28.77
27.53
25.69
23.34
20.52
17.14
13.07
8.16
2.41
-4.0
-10.64
-16.94
-22.42
-26.82
-30.24
-33.06
-35.84
-39.17
-43.59
-49.52
-57.07
-65.92
-75.04
-82.79
-87.2
-86.56
-80.01
-67.93
-51.87
-34.05
-16.68
-1.35
11.18
20.92
28.31
33.86
37.97
40.82
42.53
43.24
43.21
42.75
42.2
41.77
41.49
41.3
41.09
40.94
41.02
41.56
42.57
43.77
44.51
44.03
41.75
37.53
31.73
25.11
18.48
12.43
7.18
2.51
-2.0
-6.74
-11.88
-17.27
-22.54
-27.31
-31.38
-34.9
-38.34
-42.44
-47.91
-55.26
-64.46
-74.79
-84.8
-92.48
-95.79
-93.21
-84.34
-70.04
-52.26
-33.38
-15.56
-0.21
12.18
21.81
29.31
35.31
40.31
44.58
48.23
51.25
53.64
55.4
56.62
57.43
57.98
58.37
58.66
58.87
58.95
58.85
58.49
57.74
56.46
54.57
52.04
48.97
45.5
41.77
37.82
33.64
29.21
24.58
19.88
15.36
11.17
7.31
3.61
-0.23
-4.44
-9.11
-14.06
-19.02
-23.73
-28.09
-32.2
-36.3
-40.75
-45.95
-52.33
-60.16
-69.37
-79.2
-88.08
-93.9
-94.58
-88.83
-76.77
-59.95
-40.89
-22.22
-5.9
7.17
17.08
24.5
30.21
34.78
38.47
41.37
43.48
44.86
45.64
45.98
46.08
46.06
45.97
45.79
45.46
44.94
44.27
43.48
42.56
41.44
39.93
37.86
35.06
31.52
27.33
22.78
18.25
14.13
10.7
8.01
5.83
3.72
1.2
-2.04
-6.02
-10.43
-14.81
-18.79
-22.21
-25.25
-28.36
-32.12
-37.1
-43.65
-51.79
-60.97
-70.03
-77.27
-80.81
-79.12
-71.54
-58.59
-41.87
-23.57
-5.9
9.54
21.94
31.24
37.85
42.25
44.84
45.9
45.69
44.59
43.1
41.79
41.06
41.08
41.65
42.35
42.71
42.38
41.28
39.51
37.27
34.74
31.98
29.01
25.78
22.24
18.38
14.22
9.88
5.61
1.7
-1.57
-4.08
-5.95
-7.56
-9.42
-11.98
-15.48
-19.86
-24.8
-29.84
-34.58
-38.82
-42.62
-46.29
-50.29
-55.18
-61.41
-69.1
-77.79
-86.34
-92.95
-95.61
-92.69
-83.59
-68.98
-50.7
-31.19
-12.7
3.19
15.87
25.47
32.61
37.93
41.95
45.0
47.24
48.78
49.76
50.36
50.79
51.22
51.72
52.24
52.63
52.81
52.8
52.66
52.47
52.07
51.14
49.25
46.1
41.75
36.61
31.33
26.52
22.5
19.2
16.28
13.31
10.02
6.39
2.62
-0.99
-4.26
-7.22
-10.11
-13.3
-17.09
-21.56
-26.5
-31.54
-36.24
-40.3
-43.7
-46.76
-50.03
-54.18
-59.8
-67.08
-75.61
-84.2
-91.02
-94.0
-91.44
-82.64
-68.22
-49.95
-30.2
-11.3
5.09
18.16
27.84
34.57
38.94
41.54
42.88
43.39
43.43
43.28
43.12
43.04
43.08
43.19
43.35
43.57
43.92
44.5
45.33
46.3
47.09
47.27
46.47
44.52
41.54
37.9
34.05
30.38
27.09
24.13
21.28
18.23
14.74
10.77
6.52
2.38
-1.2
-3.99
-6.1
-8.04
-10.44
-13.83
-18.3
-23.49
-28.8
-33.66
-37.83
-41.46
-45.02
-49.08
-54.17
-60.63
-68.47
-77.18
-85.56
-91.82
-93.94
-90.36
-80.53
-65.32
-46.75
-27.37
-9.48
5.42
16.84
24.99
30.39
33.57
34.92
34.75
33.44
31.51
29.63
28.41
28.26
29.24
31.05
33.19
35.13
36.58
37.52
38.12
38.53
38.75
38.46
37.22
34.64
30.59
25.37
19.53
13.79
8.69
4.46
0.99
-2.08
-5.19
-8.68
-12.7
-17.18
-21.88
-26.49
-30.71
-34.38
-37.58
-40.6
-43.99
-48.38
-54.3
-61.88
-70.61
-79.2
-85.74
-88.18
-84.98
-75.67
-61.09
-43.19
-24.43
-6.98
7.77
19.4
28.18
34.67
39.33
42.39
43.98
44.28
43.66
42.66
41.82
41.52
41.89
42.83
44.1
45.47
46.74
47.78
48.46
48.63
48.1
46.66
44.18
40.6
36.03
30.75
25.17
19.71
14.77
10.57
7.04
3.85
0.5
-3.53
-8.59
-14.7
-21.56
-28.62
-35.23
-40.89
-45.37
-48.83
-51.77
-54.93
-59.16
-65.11
-72.96
-82.11
-91.11
-97.86
-100.15
-96.35
-86.05
-70.24
-51.06
-31.13
-12.75
2.63
14.49
23.11
29.14
33.21
35.8
37.27
37.9
38.01
37.9
37.85
38.01
38.45
39.12
39.96
40.91
41.86
42.64
43.03
42.73
41.5
39.19
35.78
31.44
26.36
20.8
14.96
9.0
3.08
-2.68
-8.16
-13.27
-17.94
-22.18
-26.04
-29.67
-33.36
-37.53
-42.71
-49.35
-57.51
-66.61
-75.29
-81.65
-83.75
-80.22
-70.79
-56.44
-39.06
-20.88
-3.86
10.76
22.49
31.43
37.96
42.52
45.48
47.18
47.91
47.96
47.63
47.2
46.89
46.86
47.18
47.81
48.67
49.68
50.77
51.85
52.75
53.18
52.79
51.25
48.43
44.55
40.04
35.46
31.24
27.52
24.12
20.76
17.14
13.21
9.14
5.29
1.96
-0.78
-3.22
-5.94
-9.69
-15.12
-22.48
-31.39
-40.74
-48.87
-53.89
-54.26
-49.18
-38.97
-24.95
-9.1
6.5
20.17
30.99
38.73
43.73
46.48
47.5
47.14
45.67
43.33
40.39
37.1
33.61
29.93
25.94
21.45
16.37
10.83
5.12
-0.36
-5.31
-9.65
-13.55
-17.34
-21.25
-25.27
-29.07
-32.13
-33.98
-34.38
-33.53
-31.87
-29.97
-28.14
-26.42
-24.51
-22.1
-19.06
-15.61
-12.33
-9.99
-9.36
-11.04
-15.3
-21.9
-30.03
-38.32
-45.02
-48.42
-47.39
-41.7
-32.2
-20.46
-8.26
2.93
12.3
19.69
25.37
29.7
32.91
35.13
36.42
36.99
37.24
37.71
38.93
41.23
44.62
48.89
53.59
58.28
62.53
65.98
68.33
69.26
68.48
65.78
61.0
54.18
45.45
35.03
23.17
10.09
-3.92
-18.47
-33.02
-46.9
-59.43
-70.15
-78.97
-86.22
-92.59
-98.86
-105.76
-113.56
-121.96
-129.89
-135.75
-137.7
-134.35
-125.21
-110.99
-93.42
-74.65
-56.61
-40.46
-26.5
-14.35
-3.41
6.79
16.4
25.35
33.53
40.92
47.6
53.73
59.37
64.4
68.59
71.66
73.43
73.94
73.36
71.88
69.61
66.42
62.07
56.36
49.31
41.36
33.25
25.92
20.18
16.44
14.59
14.01
13.78
12.93
10.75
6.91
1.49
-5.13
-12.49
-20.21
-28.16
-36.51
-45.7
-56.22
-68.38
-81.95
-95.89
-108.38
-117.07
-119.68
-114.75
-102.09
-82.95
-59.67
-34.97
-11.34
9.53
26.84
40.57
51.14
59.08
64.89
68.87
71.17
71.91
71.23
69.37
66.68
63.56
60.34
57.24
54.31
51.54
48.93
46.49
44.26
42.2
40.19
37.97
35.31
32.1
28.39
24.42
20.5
16.84
13.45
10.13
6.59
2.54
-2.18
-7.56
-13.46
-19.66
-25.92
-32.06
-37.96
-43.6
-49.08
-54.62
-60.55
-67.24
-75.03
-83.99
-93.82
-103.62
-111.89
-116.83
-116.78
-110.78
-98.98
-82.72
-64.14
-45.52
-28.61
-14.37
-2.89
6.31
13.81
20.03
25.16
29.21
32.19
34.25
35.68
36.87
38.17
39.73
41.58
43.64
45.78
47.93
50.0
51.83
53.1
53.34
52.15
49.3
44.91
39.5
33.74
28.3
23.53
19.4
15.57
11.6
7.16
2.26
-2.83
-7.67
-11.96
-15.68
-19.22
-23.3
-28.77
-36.25
-45.84
-56.81
-67.69
-76.43
-80.97
-79.77
-72.41
-59.71
-43.46
-25.95
-9.24
5.27
17.0
26.01
32.72
37.55
40.79
42.63
43.26
43.05
42.49
42.11
42.33
43.26
44.74
46.43
47.98
49.19
50.01
50.49
50.65
50.32
49.2
46.95
43.34
38.43
32.58
26.38
20.51
15.52
11.63
8.7
6.21
3.51
0.02
-4.55
-10.09
-16.15
-22.19
-27.79
-32.83
-37.63
-42.76
-48.92
-56.65
-66.09
-76.76
-87.46
-96.33
-101.25
-100.4
-92.84
-78.96
-60.37
-39.51
-18.91
-0.49
14.7
26.54
35.51
42.29
47.48
51.5
54.56
56.81
58.35
59.31
59.86
60.17
60.44
60.83
61.38
62.05
62.71
63.16
63.15
62.42
60.72
57.88
53.84
48.75
42.88
36.66
30.55
24.94
20.08
16.06
12.8
10.1
7.66
5.1
2.11
-1.58
-6.03
-11.12
-16.61
-22.17
-27.58
-32.76
-37.87
-43.24
-49.31
-56.46
-64.82
-74.09
-83.34
-91.06
-95.39
-94.66
-87.92
-75.37
-58.41
-39.21
-20.1
-2.97
11.13
21.94
29.78
35.12
38.49
40.31
41.03
41.1
40.97
40.96
41.26
41.86
42.66
43.52
44.3
44.9
45.24
45.25
44.83
43.9
42.31
39.91
36.53
32.13
26.84
21.02
15.14
9.61
4.6
-0.03
-4.62
-9.47
-14.65
-19.92
-24.85
-29.03
-32.35
-35.08
-37.85
-41.4
-46.37
-52.99
-60.89
-69.07
-76.01
-79.99
-79.55
-73.89
-63.25
-48.82
-32.45
-16.12
-1.48
10.52
19.58
25.96
30.14
32.62
33.78
33.95
33.44
32.59
31.79
31.41
31.69
32.66
34.14
35.76
37.14
38.02
38.27
37.92
37.01
35.51
33.32
30.28
26.32
21.54
16.23
10.81
5.72
1.27
-2.42
-5.43
-8.08
-10.72
-13.66
-17.07
-20.94
-25.03
-29.08
-32.85
-36.3
-39.56
-42.96
-46.95
-52.03
-58.58
-66.69
-75.89
-85.0
-92.23
-95.58
-93.39
-85.0
-71.0
-53.14
-33.72
-14.98
1.51
15.01
25.53
33.45
39.29
43.44
46.22
47.92
48.81
49.19
49.36
49.53
49.84
50.31
50.89
51.44
51.88
52.11
52.03
51.58
50.67
49.17
46.97
43.99
40.24
35.8
30.84
25.57
20.25
15.16
10.56
6.61
3.29
0.39
-2.5
-5.79
-9.72
-14.27
-19.14
-23.87
-28.06
-31.52
-34.39
-37.07
-40.13
-44.18
-49.72
-56.98
-65.61
-74.62
-82.35
-86.8
-86.23
-79.74
-67.62
-51.39
-33.26
-15.54
-0.01
12.38
21.48
27.66
31.47
33.43
33.98
33.49
32.35
31.02
29.89
29.26
29.26
29.82
30.75
31.86
32.97
34.0
34.84
35.33
35.21
34.21
32.11
28.89
24.75
20.09
15.36
10.95
7.01
3.5
0.2
-3.09
-6.48
-9.92
-13.18
-16.02
-18.28
-20.02
-21.55
-23.44
-26.33
-30.76
-36.88
-44.28
-51.79
-57.74
-60.32
-58.13
-50.74
-38.89
-24.25
-8.99
4.95
16.27
24.49
29.81
32.82
34.12
34.25
33.6
32.49
31.2
29.96
28.94
28.22
27.85
27.81
28.09
28.59
29.2
29.71
29.9
29.59
28.65
27.04
24.77
21.9
18.51
14.73
10.69
6.54
2.45
-1.42
-4.93
-7.97
-10.54
-12.79
-15.02
-17.62
-20.89
-24.93
-29.6
-34.5
-39.2
-43.4
-47.08
-50.55
-54.33
-59.02
-65.14
-72.96
-82.21
-91.96
-100.58
-106.01
-106.29
-100.23
-87.86
-70.53
-50.49
-30.27
-11.94
3.32
15.26
24.29
31.12
36.41
40.6
43.92
46.48
48.36
49.66
50.58
51.29
51.95
52.64
53.39
54.16
54.9
55.55
55.98
55.98
55.29
53.63
50.86
47.08
42.56
37.67
32.8
28.12
23.71
19.5
15.46
11.59
7.97
4.65
1.56
-1.53
-4.92
-8.94
-13.66
-18.94
-24.38
-29.53
-34.12
-38.16
-42.03
-46.38
-51.91
-59.16
-68.26
-78.74
-89.35
-98.25
-103.29
-102.63
-95.37
-81.88
-63.8
-43.5
-23.39
-5.29
9.83
21.74
30.65
36.88
40.71
42.44
42.47
41.41
39.95
38.76
38.23
38.47
39.28
40.36
41.48
42.54
43.58
44.62
45.52
45.96
45.48
43.7
40.45
35.89
30.46
24.74
19.27
14.4
10.19
6.45
2.83
-1.04
-5.41
-10.27
-15.35
-20.2
-24.41
-27.77
-30.45
-33.07
-36.5
-41.63
-48.9
-58.02
-67.72
-75.94
-80.41
-79.29
-71.83
-58.67
-41.62
-23.06
-5.23
10.33
22.97
32.71
39.92
44.93
47.99
49.28
49.08
47.88
46.35
45.15
44.75
45.33
46.69
48.46
50.19
51.54
52.33
52.55
52.22
51.38
49.93
47.69
44.48
40.2
35.0
29.22
23.38
18.04
13.6
10.22
7.67
5.48
3.05
-0.11
-4.25
-9.29
-14.9
-20.66
-26.24
-31.55
-36.73
-42.17
-48.32
-55.64
-64.42
-74.55
-85.42
-95.75
-103.69
-107.25
-104.82
-95.82
-80.92
-62.03
-41.63
-22.17
-5.36
8.07
18.25
25.85
31.67
36.33
40.22
43.47
46.14
48.24
49.86
51.11
52.16
53.13
54.16
55.29
56.49
57.67
58.66
59.24
59.18
58.27
56.41
53.59
49.92
45.6
40.84
35.83
30.73
25.65
20.71
16.01
11.6
7.46
3.51
-0.44
-4.6
-9.15
-14.18
-19.66
-25.47
-31.34
-37.02
-42.27
-47.04
-51.51
-56.16
-61.64
-68.56
-77.13
-86.78
-96.13
-103.15
-105.72
-102.32
-92.6
-77.53
-59.14
-39.87
-21.89
-6.58
5.59
14.83
21.68
26.69
30.21
32.51
33.82
34.47
34.86
35.36
36.21
37.41
38.8
40.15
41.26
42.07
42.61
42.91
42.88
42.28
40.78
38.14
34.33
29.6
24.43
19.41
14.96
11.24
8.05
4.93
1.38
-2.91
-7.92
-13.33
-18.62
-23.38
-27.48
-31.13
-34.87
-39.43
-45.45
-53.29
-62.68
-72.62
-81.43
-87.05
-87.61
-82.07
-70.55
-54.38
-35.71
-16.82
0.43
14.9
26.27
34.68
40.51
44.14
45.95
46.28
45.57
44.3
43.0
42.13
42.03
42.81
44.33
46.23
48.06
49.41
49.98
49.76
48.82
47.34
45.37
42.84
39.54
35.32
30.22
24.55
18.84
13.62
9.24
5.69
2.62
-0.53
-4.26
-8.86
-14.28
-20.16
-26.05
-31.54
-36.43
-40.82
-45.02
-49.59
-55.09
-62.02
-70.52
-80.15
-89.71
-97.35
-101.01
-98.92
-90.36
-75.87
-57.2
-36.76
-16.93
0.5
14.62
25.29
32.91
38.09
41.5
43.69
45.11
46.08
46.79
47.35
47.85
48.43
49.2
50.26
51.55
52.94
54.19
55.12
55.58
55.49
54.74
53.18
50.62
46.91
42.04
36.25
30.0
23.93
18.66
14.56
11.66
9.59
7.66
5.2
1.74
-2.76
-7.92
-13.15
-17.87
-21.78
-24.94
-27.75
-30.79
-34.67
-39.93
-46.83
-55.21
-64.24
-72.49
-78.09
-79.22
-74.71
-64.48
-49.69
-32.37
-14.87
0.81
13.46
22.76
29.04
32.93
35.0
35.67
35.14
33.61
31.4
28.9
26.62
24.9
23.9
23.48
23.32
23.1
22.55
21.6
20.25
18.54
16.46
13.96
10.99
7.55
3.69
-0.59
-5.42
-11.04
-17.66
-25.04
-32.36
-38.21
-41.09
-39.96
-34.8
-26.72
-17.65
-9.71
-4.69
-3.69
-7.09
-14.55
-25.05
-36.8
-47.35
-53.97
-54.33
-47.28
-33.37
-14.78
5.4
24.1
39.22
49.98
56.77
60.58
62.36
62.66
61.68
59.56
56.65
53.6
51.18
49.93
49.91
50.7
51.62
52.06
51.74
50.72
49.28
47.65
45.79
43.43
40.2
35.81
30.26
23.81
16.95
10.21
4.0
-1.5
-6.31
-10.61
-14.67
-18.71
-22.88
-27.21
-31.65
-36.03
-40.16
-43.95
-47.38
-50.65
-54.16
-58.44
-64.02
-71.12
-79.4
-87.75
-94.37
-97.21
-94.54
-85.65
-71.12
-52.76
-33.02
-14.35
1.55
13.95
23.1
29.78
34.88
39.09
42.71
45.81
48.32
50.18
51.48
52.35
52.96
53.37
53.6
53.63
53.53
53.38
53.28
53.24
53.11
52.61
51.47
49.55
46.94
43.88
40.67
37.53
34.53
31.59
28.64
25.65
22.7
19.93
17.48
15.41
13.69
12.24
11.0
9.97
9.25
8.93
9.07
9.61
10.28
10.65
10.11
7.98
3.62
-3.31
-12.67
-23.63
-34.66
-43.75
-48.89
-48.7
-42.85
-32.27
-18.84
-4.87
7.61
17.32
23.84
27.38
28.4
27.29
24.22
19.27
12.67
4.93
-3.16
-10.75
-17.2
-22.3
-26.26
-29.52
-32.56
-35.72
-39.14
-42.82
-46.57
-50.18
-53.37
-55.92
-57.76
-58.95
-59.72
-60.22
-60.5
-60.47
-60.04
-59.3
-58.52
-58.14
-58.42
-59.32
-60.39
-61.05
-60.83
-59.68
-58.0
-56.56
-56.27
-57.89
-61.84
-67.92
-75.18
-81.98
-86.29
-86.21
-80.54
-69.27
-53.5
-35.17
-16.41
1.02
15.98
28.05
37.34
44.21
49.09
52.35
54.32
55.27
55.48
55.32
55.15
55.34
56.06
57.31
58.86
60.39
61.59
62.26
62.34
61.81
60.67
58.88
56.4
53.21
49.35
44.92
40.09
35.08
30.16
25.58
21.59
18.26
15.5
13.03
10.46
7.37
3.5
-1.2
-6.51
-12.07
-17.51
-22.56
-27.2
-31.63
-36.24
-41.51
-47.88
-55.54
-64.21
-72.98
-80.36
-84.5
-83.76
-77.31
-65.47
-49.7
-32.12
-14.88
0.4
12.88
22.48
29.5
34.36
37.44
39.07
39.58
39.35
38.83
38.42
38.41
38.92
39.87
41.04
42.16
43.04
43.57
43.82
43.85
43.7
43.3
42.41
40.78
38.19
34.61
30.21
25.37
20.65
16.59
13.59
11.71
10.73
10.11
9.19
7.42
4.51
0.51
-4.24
-9.2
-13.94
-18.21
-22.07
-25.87
-30.13
-35.4
-42.1
-50.33
-59.69
-69.21
-77.27
-81.95
-81.48
-74.87
-62.3
-45.27
-26.13
-7.41
8.96
22.05
32.0
39.48
45.31
49.95
53.54
56.05
57.6
58.6
59.66
61.33
63.83
66.96
70.16
72.76
74.23
74.27
72.72
69.42
64.15
56.64
46.75
34.7
21.12
7.05
-6.3
-17.83
-26.78
-32.92
-36.51
-38.15
-38.52
-38.26
-37.75
-37.24
-36.83
-36.72
-37.16
-38.5
-41.05
-44.96
-50.2
-56.57
-63.77
-71.34
-78.58
-84.46
-87.65
-86.77
-80.82
-69.63
-54.01
-35.64
-16.6
1.16
16.25
28.0
36.28
41.31
43.4
42.91
40.37
36.54
32.39
28.82
26.35
