20.02
17.29
14.85
12.62
10.48
8.31
5.93
3.18
-0.11
-4.0
-8.4
-13.06
-17.6
-21.67
-25.15
-28.22
-31.39
-35.39
-40.9
-48.25
-57.18
-66.68
-75.07
-80.38
-80.86
-75.6
-64.83
-49.91
-32.97
-16.18
-1.25
10.95
20.31
27.25
32.34
36.03
38.61
40.29
41.28
41.83
42.26
42.81
43.53
44.23
44.64
44.49
43.71
42.48
41.12
39.9
38.91
37.91
36.47
34.12
30.58
25.86
20.34
14.59
9.21
4.65
1.05
-1.81
-4.32
-7.04
-10.4
-14.58
-19.48
-24.79
-30.09
-35.07
-39.68
-44.04
-48.53
-53.56
-59.55
-66.76
-75.07
-83.76
-91.49
-96.47
-96.95
-91.81
-81.06
-65.93
-48.47
-30.92
-15.03
-1.69
8.94
17.22
23.59
28.41
31.92
34.35
35.97
37.1
37.98
38.71
39.27
39.59
39.64
39.52
39.45
39.61
40.06
40.69
41.21
41.3
40.69
39.29
37.15
34.43
31.34
28.06
24.76
21.6
18.67
16.0
13.54
11.13
8.59
5.74
2.47
-1.23
-5.32
-9.65
-14.05
-18.31
-22.25
-25.8
-29.09
-32.45
-36.43
-41.61
-48.45
-56.96
-66.57
-76.02
-83.61
-87.53
-86.39
-79.69
-67.97
-52.72
-35.91
-19.52
-5.07
6.67
15.59
22.11
26.86
30.38
33.09
35.16
36.67
37.7
38.44
39.13
40.02
41.22
42.67
44.14
45.4
46.23
46.59
46.51
46.08
45.29
44.01
42.07
39.27
35.58
31.17
26.41
21.73
17.48
13.74
10.33
6.88
3.03
-1.44
-6.43
-11.65
-16.66
-21.1
-24.79
-27.81
-30.47
-33.25
-36.73
-41.42
-47.66
-55.37
-63.91
-71.99
-77.89
-79.88
-76.74
-68.24
-55.25
-39.53
-23.16
-7.9
5.15
15.64
23.75
29.81
34.09
36.74
37.89
37.76
36.8
35.56
34.59
34.23
34.54
35.35
36.35
37.2
37.68
37.64
37.03
35.78
33.81
31.07
27.52
23.21
18.25
12.83
7.28
2.02
-2.54
-6.12
-8.75
-10.81
-12.86
-15.46
-18.83
-22.83
-27.06
-31.1
-34.71
-37.99
-41.27
-44.96
-49.45
-55.04
-61.88
-69.89
-78.57
-86.84
-93.12
-95.7
-93.18
-85.03
-71.84
-55.2
-37.23
-19.99
-4.96
7.17
16.42
23.28
28.35
32.13
35.0
37.22
38.95
40.41
41.73
43.06
44.48
45.99
47.52
48.92
49.99
50.55
50.52
49.9
48.77
47.18
45.15
42.61
39.48
35.75
31.55
27.13
22.78
18.73
15.06
11.73
8.56
5.35
1.9
-1.92
-6.16
-10.74
-15.52
-20.32
-25.03
-29.58
-34.08
-38.7
-43.72
-49.53
-56.49
-64.78
-74.13
-83.65
-91.78
-96.64
-96.55
-90.64
-79.19
-63.62
-45.98
-28.4
-12.51
0.79
11.33
19.39
25.46
30.01
33.43
35.98
37.9
39.36
40.55
41.63
42.72
43.81
44.84
45.69
46.26
46.61
46.88
47.21
47.61
47.85
47.54
46.22
43.64
39.8
35.05
29.98
25.17
21.0
17.51
14.41
11.26
7.62
3.32
-1.52
-6.55
-11.37
-15.68
-19.46
-22.92
-26.48
-30.59
-35.68
-42.04
-49.71
-58.31
-66.86
-73.91
-77.73
-76.91
-70.77
-59.73
-45.14
-28.92
-13.0
1.16
12.76
21.61
27.87
31.86
33.89
34.29
33.49
31.99
30.41
29.33
29.19
30.1
31.85
34.02
36.12
37.75
38.78
39.21
39.18
38.65
37.51
35.49
32.4
28.24
23.22
17.78
12.39
7.44
3.06
-0.83
-4.52
-8.35
-12.55
-17.18
-22.08
-26.97
-31.55
-35.67
-39.36
-42.96
-47.0
-52.13
-58.86
-67.39
-77.28
-87.37
-95.82
-100.58
-99.92
-93.05
-80.42
-63.65
-44.99
-26.7
-10.44
2.93
13.39
21.37
27.45
32.12
35.72
38.4
40.29
41.56
42.43
43.17
43.92
44.73
45.52
46.14
46.48
46.46
46.12
45.46
44.46
42.98
40.81
37.74
33.64
28.55
22.7
16.47
10.34
4.72
-0.18
-4.41
-8.22
-12.01
-16.06
-20.48
-25.1
-29.57
-33.5
-36.63
-39.0
-40.9
-42.88
-45.57
-49.54
-55.11
-62.17
-70.03
-77.33
-82.31
-83.14
-78.52
-68.16
-52.97
-34.84
-16.06
1.32
16.05
27.72
36.61
43.33
48.47
52.45
55.57
58.03
60.01
61.67
63.07
64.17
64.93
65.26
65.16
64.71
64.03
63.25
62.4
61.37
59.89
57.59
54.16
49.46
43.63
37.05
30.18
23.45
17.07
10.98
5.01
-1.03
-7.15
-13.16
-18.67
-23.31
-26.86
-29.46
-31.62
-34.11
-37.75
-43.09
-50.15
-58.24
-65.99
-71.62
-73.46
-70.4
-62.24
-49.78
-34.6
-18.53
-3.29
9.94
20.56
28.44
33.78
36.89
38.17
38.06
37.16
36.1
35.48
35.73
36.96
39.0
41.52
44.16
46.64
48.88
50.84
52.5
53.75
54.36
54.08
52.71
50.19
46.7
42.56
38.08
33.52
28.83
23.77
18.0
11.29
3.68
-4.42
-12.37
-19.55
-25.55
-30.44
-34.68
-39.07
-44.49
-51.58
-60.48
-70.64
-80.79
-89.14
-93.81
-93.35
-87.21
-75.93
-60.9
-44.01
-26.98
-11.05
3.2
15.67
26.48
35.69
43.2
48.86
52.6
54.59
55.19
54.91
54.22
53.46
52.76
52.13
51.49
50.75
49.87
48.81
47.52
45.91
43.8
41.0
37.38
32.97
28.02
22.99
18.38
14.5
11.41
8.78
6.1
2.86
-1.29
-6.32
-11.98
-17.83
-23.5
-28.78
-33.69
-38.52
-43.72
-49.82
-57.25
-66.16
-76.21
-86.45
-95.36
-101.15
-102.21
-97.64
-87.56
-73.18
-56.39
-39.22
-23.33
-9.69
1.47
10.39
17.48
23.1
27.5
30.86
33.37
35.26
36.82
38.28
39.82
41.45
43.09
44.58
45.77
46.57
46.98
47.07
46.87
46.33
45.26
43.4
40.58
36.78
32.29
27.55
23.05
19.06
15.55
12.21
8.64
4.56
-0.01
-4.76
-9.25
-13.12
-16.31
-19.13
-22.17
-26.12
-31.55
-38.71
-47.31
-56.49
-64.87
-70.78
-72.68
-69.58
-61.41
-49.09
-34.24
-18.78
-4.38
7.88
17.61
24.88
29.99
33.27
35.01
35.49
35.09
34.3
33.62
33.42
33.88
34.88
36.12
37.23
37.99
38.36
38.43
38.31
37.98
37.19
35.58
32.77
28.65
23.4
17.52
11.69
6.49
2.22
-1.22
-4.24
-7.35
-10.97
-15.23
-19.91
-24.63
-29.0
-32.86
-36.33
-39.8
-43.77
-48.72
-54.93
-62.42
-70.74
-78.97
-85.69
-89.28
-88.3
-82.02
-70.77
-55.89
-39.38
-23.3
-9.14
2.39
11.37
18.28
23.69
27.96
31.28
33.71
35.34
36.4
37.2
38.0
38.94
40.01
41.06
41.91
42.45
42.67
42.6
42.33
41.85
41.08
39.85
37.99
35.38
32.06
28.21
24.12
20.08
16.33
12.96
9.94
7.1
4.21
1.06
-2.5
-6.49
-10.8
-15.22
-19.51
-23.52
-27.19
-30.66
-34.19
-38.15
-42.93
-48.81
-55.76
-63.26
-70.27
-75.33
-76.96
-74.11
-66.6
-55.23
-41.59
-27.55
-14.73
-4.15
3.93
9.77
13.89
16.83
18.94
20.43
21.43
22.04
22.46
22.89
23.54
24.53
25.83
27.29
28.69
29.86
30.75
31.42
31.99
32.44
32.6
32.21
30.97
28.75
25.63
21.9
17.98
14.27
11.01
8.24
5.78
3.32
0.51
-2.85
-6.75
-11.04
-15.37
-19.47
-23.16
-26.44
-29.54
-32.8
-36.65
-41.46
-47.36
-54.05
-60.69
-65.94
-68.26
-66.37
-59.66
-48.55
-34.31
-18.73
-3.62
9.66
20.37
28.37
33.86
37.16
38.58
38.43
37.05
34.95
32.69
30.82
29.69
29.41
29.83
30.66
31.63
32.54
33.23
33.5
33.12
31.79
29.31
25.6
20.84
15.39
9.68
4.13
-0.97
-5.53
-9.63
-13.47
-17.25
-21.11
-25.0
-28.75
-32.17
-35.14
-37.8
-40.54
-43.95
-48.56
-54.57
-61.63
-68.74
-74.49
-77.28
-75.9
-69.83
-59.42
-45.85
-30.78
-15.95
-2.74
8.04
16.23
22.14
26.31
29.25
31.25
32.45
32.87
32.63
31.96
31.23
30.75
30.69
30.97
31.35
31.61
31.63
31.44
31.1
30.63
29.87
28.53
26.32
23.09
18.96
14.26
9.44
4.93
1.03
-2.25
-5.07
-7.77
-10.74
-14.25
-18.37
-22.95
-27.66
-32.15
-36.19
-39.81
-43.35
-47.34
-52.34
-58.83
-66.83
-75.85
-84.75
-91.92
-95.58
-94.29
-87.47
-75.56
-60.0
-42.77
-25.85
-10.75
1.76
11.59
19.07
24.69
28.9
32.01
34.24
35.79
36.88
37.73
38.55
39.42
40.28
40.99
41.42
41.55
41.5
41.52
41.72
42.0
41.99
41.13
38.99
35.48
30.89
25.81
20.86
16.42
12.5
8.79
4.9
0.52
-4.34
-9.4
-14.26
-18.58
-22.24
-25.42
-28.54
-32.16
-36.85
-42.99
-50.6
-59.21
-67.76
-74.68
-78.26
-77.08
-70.52
-59.03
-44.02
-27.49
-11.42
2.72
14.17
22.84
29.01
33.08
35.38
36.26
36.04
35.2
34.27
33.68
33.71
34.34
35.34
36.44
37.43
38.26
38.97
39.55
39.86
39.58
38.33
35.82
32.02
27.18
21.74
16.25
11.08
6.36
1.95
-2.48
-7.27
-12.58
-18.35
-24.22
-29.76
-34.67
-38.92
-42.92
-47.36
-52.97
-60.26
-69.1
-78.63
-87.27
-93.05
-94.2
-89.67
-79.5
-64.87
-47.75
-30.28
-14.24
-0.61
10.37
19.06
26.02
31.7
36.34
39.99
42.69
44.59
45.96
47.14
48.41
49.86
51.37
52.78
53.92
54.82
55.61
56.41
57.19
57.72
57.55
56.25
53.53
49.37
44.09
38.18
32.25
26.83
22.2
18.38
15.01
11.58
7.55
2.63
-3.13
-9.35
-15.44
-20.94
-25.68
-29.9
-34.19
-39.29
-45.86
-54.23
-64.15
-74.63
-84.01
-90.25
-91.48
-86.59
-75.68
-60.03
-41.82
-23.44
-6.8
6.98
17.66
25.62
31.48
35.79
38.93
41.07
42.38
43.02
43.27
43.41
43.57
43.75
43.82
43.66
43.26
42.79
42.55
42.72
43.27
43.87
43.93
42.95
40.58
36.93
32.38
27.53
22.92
18.85
15.31
12.05
8.72
5.04
0.93
-3.46
-7.83
-11.85
-15.37
-18.49
-21.59
-25.24
-30.08
-36.55
-44.66
-53.78
-62.61
-69.42
-72.44
-70.4
-62.94
-50.78
-35.47
-18.99
-3.15
10.75
22.07
30.74
36.98
41.11
43.44
44.26
43.93
42.92
41.72
40.79
40.38
40.52
41.02
41.67
42.27
42.75
43.06
43.1
42.66
41.46
39.21
35.8
31.32
26.12
20.58
15.11
9.93
5.05
0.3
-4.6
-9.85
-15.45
-21.11
-26.38
-30.85
-34.36
-37.2
-40.05
-43.76
-49.06
-56.2
-64.81
-73.8
-81.58
-86.36
-86.58
-81.37
-70.86
-56.15
-39.13
-21.9
-6.26
6.73
16.79
24.3
29.93
34.25
37.62
40.13
41.77
42.58
42.73
42.56
42.39
42.45
42.78
43.27
43.73
43.97
43.93
43.61
43.02
42.09
40.65
38.43
35.27
31.16
26.31
21.12
16.09
11.62
7.89
4.8
2.03
-0.83
-4.17
-8.17
-12.76
-17.65
-22.46
-26.83
-30.62
-33.92
-37.11
-40.72
-45.35
-51.45
-59.05
-67.58
-75.74
-81.77
-83.8
-80.56
-71.75
-58.25
-41.84
-24.65
-8.61
5.04
15.79
23.77
29.51
33.58
36.52
38.72
40.46
41.93
43.26
44.55
45.86
47.17
48.36
49.26
49.72
49.65
49.07
48.11
46.87
45.37
43.51
41.09
37.89
33.82
29.01
23.82
18.81
14.52
11.34
9.29
8.04
7.03
5.64
3.47
0.42
-3.31
-7.38
-11.49
-15.54
-19.71
-24.36
-29.95
-36.88
-45.3
-54.98
-65.13
-74.45
-81.24
-83.87
-81.21
-73.06
-60.24
-44.42
-27.59
-11.61
2.24
13.36
21.72
27.65
31.57
33.89
34.95
35.09
34.68
34.18
34.0
34.36
35.28
36.49
37.61
38.38
38.73
38.82
38.83
38.83
38.66
37.97
36.42
33.87
30.45
26.49
22.35
18.32
14.51
10.91
7.49
4.26
1.19
-1.76
-4.8
-8.26
-12.52
-17.98
-24.92
-33.55
-43.96
-55.94
-68.85
-81.5
-92.18
-98.98
-100.35
-95.6
-85.22
-70.73
-54.25
-37.9
-23.28
-11.23
-1.89
5.08
10.2
14.0
16.85
18.99
20.58
21.78
22.79
23.84
25.11
26.67
28.41
30.1
31.49
32.41
32.88
33.07
33.21
33.46
33.82
34.04
33.77
32.63
30.48
27.44
23.9
20.3
16.89
13.61
10.13
6.03
1.06
-4.63
-10.59
-16.18
-20.85
-24.41
-27.05
-29.34
-32.02
-35.81
-41.16
-48.09
-56.08
-64.04
-70.5
-73.85
-72.79
-66.69
-55.87
-41.53
-25.51
-9.71
4.31
15.71
24.37
30.67
35.16
38.27
40.25
41.21
41.26
40.63
39.65
38.7
38.06
37.82
37.94
38.21
38.45
38.54
38.43
38.16
37.69
36.94
35.71
33.79
31.03
27.37
22.98
18.12
13.19
8.51
4.32
0.64
-2.74
-6.13
-9.91
-14.26
-19.15
-24.29
-29.26
-33.77
-37.73
-41.44
-45.48
-50.5
-57.02
-65.11
-74.33
-83.62
-91.5
-96.29
-96.5
-91.24
-80.46
-65.08
-46.78
-27.63
-9.6
5.86
18.02
26.8
32.56
35.82
37.11
36.93
35.75
34.1
32.53
31.46
31.09
31.34
31.97
32.67
33.2
33.45
33.38
32.93
31.98
30.44
28.24
25.47
22.3
18.97
15.63
12.37
9.12
5.79
2.28
-1.45
-5.39
-9.42
-13.4
-17.16
-20.61
-23.79
-26.91
-30.39
-34.79
-40.6
-47.97
-56.47
-64.89
-71.41
-74.12
-71.56
-63.37
-50.4
-34.5
-17.87
-2.45
10.59
20.89
28.67
34.4
38.52
41.3
42.93
43.57
43.41
42.71
41.73
40.74
39.96
39.52
39.46
39.71
40.17
40.67
41.06
41.17
40.82
39.81
37.92
34.99
30.96
26.0
20.48
14.9
9.77
5.45
1.94
-1.02
-3.93
-7.27
-11.32
-16.06
-21.17
-26.26
-30.92
-34.97
-38.5
-41.78
-45.31
-49.58
-55.08
-62.02
-70.17
-78.66
-86.01
-90.41
-90.19
-84.41
-73.23
-57.91
-40.48
-23.04
-7.27
5.91
16.34
24.33
30.35
34.79
37.99
40.21
41.72
42.81
43.72
44.6
45.5
46.4
47.24
47.99
48.61
49.12
49.5
49.69
49.56
48.9
47.51
45.2
41.93
37.76
32.94
27.82
22.78
18.14
14.07
10.58
7.54
4.72
1.86
-1.27
-4.81
-8.77
-13.07
-17.56
-22.08
-26.5
-30.75
-34.87
-39.04
-43.57
-48.85
-55.18
-62.64
-70.8
-78.68
-84.8
-87.53
-85.57
-78.39
-66.49
-51.25
-34.59
-18.41
-4.14
7.45
16.26
22.62
27.01
29.86
31.54
32.35
32.58
32.55
32.55
32.8
33.37
34.23
35.24
36.27
37.2
37.97
38.52
38.75
38.52
37.61
35.84
33.1
29.46
25.22
20.77
16.56
12.8
9.48
6.29
2.85
-1.07
-5.46
-10.03
-14.37
-18.19
-21.46
-24.53
-27.96
-32.44
-38.46
-46.14
-54.97
-63.75
-70.81
-74.36
-72.98
-66.18
-54.54
-39.58
-23.29
-7.59
6.18
17.35
25.85
31.94
35.96
38.25
39.1
38.87
37.97
36.85
35.94
35.5
35.61
36.2
37.05
37.91
38.63
39.14
39.46
39.61
39.49
38.84
37.27
34.45
30.3
25.11
19.5
14.19
9.7
6.15
3.25
0.45
-2.74
-6.57
-10.94
-15.48
-19.81
-23.68
-27.1
-30.34
-33.86
-38.19
-43.86
-51.13
-59.88
-69.33
-78.05
-84.23
-86.08
-82.48
-73.34
-59.73
-43.52
-26.81
-11.38
1.72
12.21
20.34
26.6
31.42
35.05
37.61
39.18
39.89
40.03
39.97
40.07
40.53
41.4
42.51
43.66
44.67
45.49
46.11
46.54
46.69
46.37
45.31
43.31
40.31
36.49
32.15
27.74
23.62
20.02
16.9
14.09
11.25
8.15
4.68
0.92
-2.94
-6.76
-10.56
-14.52
-18.97
-24.23
-30.55
-38.08
-46.83
-56.69
-67.25
-77.72
-86.86
-93.12
-95.06
-91.76
-83.19
-70.32
-54.88
-38.82
-23.9
-11.26
-1.3
6.2
11.78
16.05
19.44
22.15
24.24
25.76
26.88
27.85
28.96
30.36
32.03
33.78
35.4
36.77
37.88
38.73
39.22
39.1
38.05
35.83
32.46
28.28
23.8
19.45
15.46
11.72
7.93
3.8
-0.8
-5.72
-10.62
-15.1
-18.93
-22.13
-25.04
-28.23
-32.32
-37.83
-44.92
-53.23
-61.78
-69.05
-73.27
-72.9
-67.19
-56.44
-42.02
-25.96
-10.34
3.25
14.05
22.0
27.54
31.17
33.28
34.14
34.0
33.2
32.24
31.62
31.71
32.58
34.05
35.75
37.31
38.49
39.26
39.72
39.93
39.87
39.31
37.92
35.42
31.75
27.12
22.03
17.02
12.53
8.7
5.36
2.08
-1.59
-5.97
-11.08
-16.65
-22.22
-27.36
-31.84
-35.79
-39.61
-43.91
-49.28
-56.1
-64.33
-73.41
-82.21
-89.16
-92.56
-91.02
-83.95
-71.77
-55.89
-38.33
-21.1
-5.73
7.01
17.05
24.76
30.6
34.98
38.16
40.34
41.72
42.51
42.93
43.2
43.55
44.14
45.08
46.37
47.86
49.34
50.57
51.35
51.58
51.26
50.37
48.87
46.68
43.71
40.0
35.83
31.56
27.63
24.25
21.39
18.74
15.85
12.34
8.03
3.0
-2.48
-8.08
-13.58
-18.95
-24.29
-29.88
-36.07
-43.16
-51.33
-60.4
-69.77
-78.29
-84.41
-86.61
-83.76
-75.63
-63.03
-47.59
-31.35
-16.13
-3.15
7.16
14.98
20.86
25.39
28.98
31.88
34.18
35.97
37.4
38.66
39.91
41.17
42.38
43.37
44.0
44.28
44.27
44.09
43.72
42.98
41.58
39.22
35.77
31.34
26.22
20.83
15.54
10.51
5.72
0.99
-3.9
-9.1
-14.5
-19.85
-24.77
-29.01
-32.6
-35.9
-39.57
-44.37
-50.78
-58.77
-67.58
-75.81
-81.67
-83.47
-80.11
-71.48
-58.46
-42.72
-26.23
-10.71
2.71
13.53
21.8
27.83
31.99
34.58
35.89
36.25
36.07
35.84
35.96
36.7
38.1
39.96
41.97
43.81
45.27
46.34
47.12
47.76
48.36
48.88
49.13
48.83
47.67
45.45
42.12
37.81
32.72
27.11
21.09
14.69
7.78
0.29
-7.74
-16.01
-24.09
-31.51
-38.03
-43.71
-48.94
-54.28
-60.34
-67.48
-75.77
-84.8
-93.72
-101.25
-105.93
-106.38
-101.77
-92.06
-78.15
-61.67
-44.54
-28.48
-14.65
-3.46
5.2
11.78
16.78
20.59
23.47
25.64
27.27
28.58
29.79
31.06
32.49
34.05
35.63
37.1
38.31
39.19
39.73
39.9
39.7
39.06
37.85
35.93
33.23
29.76
25.69
21.34
17.09
13.26
10.04
7.36
4.96
2.48
-0.32
-3.49
-6.84
-10.07
-12.88
-15.17
-17.06
-18.92
-21.26
-24.65
-29.56
-36.2
-44.33
-53.11
-61.16
-66.85
-68.66
-65.69
-57.91
-46.21
-32.13
-17.46
-3.75
7.94
17.23
24.22
29.3
32.92
35.39
36.88
37.47
37.24
36.43
35.32
34.15
33.13
32.28
31.53
30.82
30.1
29.34
28.42
27.09
24.95
21.59
16.8
10.66
3.59
-3.86
-11.17
-18.05
-24.5
-30.71
-36.84
-42.89
-48.64
-53.75
-58.01
-61.45
-64.35
-67.26
-70.72
-75.19
-80.83
-87.32
-93.74
-98.59
-100.06
-96.54
-87.18
-72.26
-53.15
-31.88
-10.55
9.34
26.98
42.24
55.27
66.2
75.07
81.97
87.19
91.32
95.16
99.54
105.06
112.05
120.58
130.49
141.49
153.17
165.03
176.52
187.09
196.22
203.55
208.84
211.89
212.46
210.36
205.58
198.56
190.33
182.29
175.75
171.29
168.41
165.55
160.74
152.3
139.4
122.09
100.82
75.97
47.72
16.21
-17.7
-52.09
-83.91
-109.81
-127.13
-134.98
-134.58
-128.77
-120.87
-113.46
-107.58
-102.83
-98.07
-92.32
-85.4
-77.83
-70.38
-63.55
-57.42
-51.88
-47.07
-43.56
-42.16
-43.45
-47.32
-52.88
-58.74
-63.36
-65.57
-64.8
-61.09
-55.12
-47.99
-40.95
-35.08
-31.06
-28.9
-28.05
-27.64
-26.8
-24.91
-21.67
-17.0
-10.95
-3.6
4.71
13.41
21.55
28.13
32.29
33.78
32.96
30.64
27.69
24.64
21.45
17.66
12.85
7.18
1.73
-1.66
-1.12
4.46
14.68
27.64
40.54
50.77
56.7
57.99
55.27
49.48
41.43
31.7
21.0
10.35
1.0
-6.1
-10.97
-14.87
-19.92
-28.33
-41.35
-58.67
-78.39
-97.57
-113.16
-122.74
-125.11
-120.32
-109.57
-94.66
-77.52
-59.61
-41.52
-22.89
-2.62
20.53
47.35
77.47
108.97
138.38
161.19
173.06
171.14
155.23
128.12
94.78
60.86
30.91
7.28
-10.08
-22.85
-33.21
-42.79
-52.24
-61.24
-68.79
-73.83
-75.55
-73.94
-69.99
-65.61
-63.28
-65.36
-73.4
-87.63
-106.66
-127.68
-147.08
-161.26
-167.64
-165.42
-155.81
-141.6
-126.21
-112.56
-102.37
-95.96
-92.54
-90.76
-89.14
-86.21
-80.66
-71.47
-58.32
-41.95
-24.31
-8.16
3.68
9.29
8.28
1.8
-7.86
-18.04
-26.36
-31.07
-31.31
-27.16
-19.61
-10.42
-1.6
5.29
9.89
13.3
17.7
25.36
37.48
53.62
71.78
89.24
103.6
113.38
118.11
117.85
112.73
102.63
87.41
67.33
43.45
17.66
-7.72
-30.57
-49.53
-64.28
-75.45
-84.24
-91.81
-98.95
-105.77
-111.76
-116.14
-118.1
-117.2
-113.51
-107.57
-100.24
-92.52
-85.25
-79.0
-74.05
-70.37
-67.71
-65.64
-63.74
-61.76
-59.72
-57.91
-56.62
-55.64
-53.88
-49.26
-39.21
-21.65
4.0
36.21
71.61
105.93
135.45
157.97
173.15
182.03
186.11
186.6
183.99
178.29
169.48
158.02
144.94
131.6
119.27
108.65
99.72
91.87
84.25
76.21
67.45
58.03
48.27
38.57
29.39
21.21
14.37
8.99
4.67
0.38
-5.33
-13.84
-25.86
-40.9
-57.21
-72.26
-83.52
-89.45
-90.15
-87.39
-84.1
-83.32
-87.1
-95.69
-107.39
-119.02
-126.94
-128.1
-120.89
-105.46
-83.5
-57.82
-31.68
-8.39
9.14
18.84
19.91
13.12
0.74
-14.04
-28.03
-39.03
-46.23
-50.11
-51.73
-52.05
-51.48
-49.9
-47.2
-43.58
-39.83
-37.08
-36.42
-38.45
-43.1
-49.72
-57.36
-65.14
-72.46
-79.04
-84.78
-89.62
-93.4
-96.02
-97.47
-97.97
-97.91
-97.63
-97.34
-97.12
-97.11
-97.69
-99.36
-102.4
-106.52
-110.56
-112.8
-111.65
-106.37
-97.35
-85.87
-73.22
-59.92
-45.43
-28.58
-8.35
15.3
41.19
67.2
90.95
110.45
124.34
131.85
132.59
126.39
113.45
94.61
71.54
46.6
22.54
1.93
-13.22
-21.56
-22.26
-14.91
0.57
23.61
52.57
84.66
116.22
143.46
163.45
174.76
177.44
172.65
161.91
146.56
127.61
105.84
81.94
56.57
30.48
4.66
-19.4
-39.58
-53.33
-58.29
-53.28
-38.98
-18.06
5.45
27.3
44.18
54.46
58.21
56.84
52.32
46.51
40.77
35.73
31.39
27.36
23.24
18.87
14.44
10.4
7.22
5.18
4.22
4.09
4.34
4.5
4.07
2.62
-0.17
-4.49
-10.24
-17.0
-24.0
-30.26
-34.76
-36.66
-35.51
-31.42
-25.11
-17.85
-11.28
-6.99
-6.22
-9.45
-16.16
-24.82
-33.1
-38.46
-38.78
-33.06
-21.78
-6.76
9.42
24.21
35.8
43.43
47.32
48.27
47.21
44.96
42.06
38.92
35.89
33.21
31.05
29.43
28.29
27.51
27.03
26.83
26.92
27.23
27.61
27.82
27.67
27.0
25.73
23.81
21.17
17.68
13.3
8.08
2.32
-3.47
-8.71
-12.93
-15.99
-18.16
-19.99
-22.15
-25.22
-29.62
-35.53
-42.76
-50.66
-57.87
-62.46
-62.34
-55.95
-43.02
-24.84
-4.01
16.44
33.98
47.15
55.72
60.18
61.23
59.43
55.18
48.86
41.11
32.79
24.88
18.34
13.85
11.74
11.92
13.93
17.0
20.29
23.07
24.81
25.28
24.46
22.47
19.43
15.55
11.04
6.21
1.37
-3.16
-7.17
-10.55
-13.36
-15.73
-17.91
-20.2
-22.94
-26.55
-31.44
-38.02
-46.41
-56.23
-66.31
-74.6
-78.66
-76.29
-66.39
-49.5
-27.73
-4.21
17.87
36.11
49.35
57.6
61.67
62.59
61.3
58.41
54.27
49.15
43.29
37.09
31.07
25.75
21.55
18.64
16.95
16.3
16.48
17.45
19.23
21.83
25.07
28.44
31.14
32.21
30.82
26.6
19.78
11.16
1.86
-7.06
-14.93
-21.57
-27.16
-32.09
-36.71
-41.33
-46.24
-51.6
-57.19
-62.16
-64.97
-63.8
-57.29
-45.29
-29.18
-11.44
5.3
19.14
29.52
36.96
42.41
46.59
49.53
50.81
50.0
47.11
42.77
38.14
34.52
32.9
33.74
36.83
41.54
47.06
52.71
58.09
63.06
67.44
70.79
72.26
70.67
64.91
54.43
39.62
21.88
3.24
-14.19
-28.89
-40.3
-48.77
-55.27
-60.98
-66.87
-73.43
-80.49
-87.08
-91.64
-92.28
-87.45
-76.53
-60.26
-40.53
-19.83
-0.47
16.09
29.31
39.36
46.61
51.41
54.0
54.67
53.85
52.23
50.56
49.59
49.97
52.08
56.03
61.64
68.53
76.33
84.8
93.7
102.39
109.45
112.54
108.91
96.3
73.94
43.19
7.26
-29.63
-63.32
-90.44
-108.79
-117.36
-116.38
-107.39
-93.24
-77.57
-63.89
-54.57
-50.06
-49.02
-49.07
-47.76
-43.4
-35.38
-23.9
-9.65
6.42
23.12
38.92
51.98
60.43
62.78
58.29
47.29
30.99
11.18
-10.11
-30.98
-49.65
-64.36
-73.26
-74.55
-67.03
-50.83
-28.07
-2.89
19.27
33.06
34.78
23.5
1.39
-27.02
-56.19
-81.18
-98.73
-107.64
-108.48
-102.81
-92.53
-79.37
-64.81
-50.07
-36.25
-24.3
-15.08
-9.29
-7.5
-10.01
-16.69
-26.82
-39.1
-51.85
-63.39
-72.35
-77.81
-79.13
-75.95
-68.14
-55.96
-40.15
-21.88
-2.41
17.21
36.35
54.76
72.42
89.31
105.31
120.05
132.9
142.99
149.42
151.6
149.72
144.93
139.07
134.06
130.97
129.5
128.02
124.26
116.27
103.37
86.49
67.9
50.45
36.59
27.62
23.28
22.07
21.91
21.01
18.48
14.42
9.68
5.32
2.21
0.85
1.38
3.62
7.01
10.57
13.04
13.24
10.6
5.63
-0.17
-4.82
-6.72
-5.26
-1.09
4.29
9.2
12.31
12.96
10.99
6.51
-0.37
-9.66
-21.36
-35.37
-51.41
-68.91
-87.0
-104.45
-119.59
-130.34
-134.54
-130.55
-117.76
-97.2
-71.45
-44.16
-19.15
0.59
13.44
19.21
18.63
12.93
3.53
-7.96
-19.58
-29.27
-35.38
-37.25
-35.56
-31.93
-28.19
-25.58
-24.43
-24.32
-24.72
-25.37
-26.43
-28.13
-30.35
-32.48
-33.57
-32.74
-29.43
-23.67
-15.82
-6.53
3.46
13.3
21.99
28.49
31.85
31.53
27.74
21.73
15.74
12.49
14.29
22.19
35.39
51.49
67.18
79.36
85.96
86.4
81.37
72.32
60.9
48.51
36.18
24.59
14.24
5.64
-0.64
-4.16
-4.92
-3.61
-1.6
-0.44
-1.21
-3.97
-7.81
-11.47
-14.1
-15.87
-17.82
-21.23
-26.87
-34.58
-43.43
-52.21
-59.94
-65.95
-69.75
-70.75
-68.24
-61.68
-51.11
-37.44
-22.34
-7.82
4.39
13.32
18.89
21.7
22.59
22.31
21.29
19.71
17.73
15.57
13.57
11.97
10.76
9.7
8.44
6.85
5.14
3.86
3.5
4.18
5.48
6.51
6.36
4.46
0.8
-4.18
-9.92
-16.04
-22.54
-29.74
-38.06
-47.66
-58.15
-68.48
-76.98
-81.8
-81.42
-75.3
-64.15
-49.76
-34.46
-20.33
-8.59
0.52
7.55
13.28
18.31
22.82
26.65
29.51
31.23
31.87
31.61
30.74
29.42
27.69
25.53
23.01
20.39
18.14
16.74
16.45
17.09
18.09
18.58
17.82
15.39
11.41
6.45
1.27
-3.46
-7.37
-10.53
-13.35
-16.44
-20.37
-25.51
-31.78
-38.57
-44.76
-48.9
-49.58
-45.86
-37.66
-25.86
-12.13
1.64
13.91
23.86
31.46
37.18
41.51
44.66
46.51
46.76
45.31
42.48
39.0
35.74
33.39
32.11
31.53
30.99
29.85
27.78
24.96
21.85
18.95
16.55
14.54
12.45
9.69
5.78
0.67
-5.23
-11.22
-16.53
-20.71
-23.8
-26.27
-28.82
-32.15
-36.67
-42.39
-48.85
-55.15
-60.11
-62.39
-60.92
-55.19
-45.49
-32.83
-18.72
-4.68
8.2
19.49
29.37
38.29
46.61
54.24
60.61
64.96
66.77
66.23
64.33
62.62
62.59
64.97
69.27
73.8
76.24
74.43
67.17
54.74
38.89
22.44
8.58
0.15
-1.04
5.35
18.1
34.76
52.34
68.25
81.03
90.69
98.45
105.94
114.32
123.7
132.97
140.21
143.38
140.96
132.51
118.91
102.47
86.48
74.46
69.13
71.43
80.17
92.43
104.68
114.15
119.85
122.81
125.49
130.39
138.7
149.52
159.98
166.47
166.14
158.16
143.84
125.84
106.61
87.34
67.66
46.33
22.3
-4.55
-33.42
-63.13
-92.65
-121.23
-148.2
-172.72
-193.81
-210.71
-223.25
-232.07
-238.43
-243.81
-249.56
-256.6
-265.28
-275.43
-286.23
-296.44
-304.51
-309.02
-308.93
-303.71
-293.34
-278.16
-258.93
-236.73
-212.95
-189.03
-166.11
-144.77
-125.04
-106.68
-89.61
-74.11
-60.72
-49.78
-41.13
-33.94
-27.01
-19.27
-10.14
0.3
11.47
22.63
33.09
42.23
49.54
54.51
56.78
56.21
53.12
48.31
42.91
38.08
34.71
33.16
33.27
34.5
36.09
37.24
37.25
35.6
32.23
27.64
23.03
20.1
20.46
25.07
33.77
45.22
57.41
68.42
76.97
82.72
86.11
87.98
89.05
89.73
90.06
89.79
88.58
86.07
82.02
76.33
69.17
61.02
52.65
45.0
38.92
34.85
32.54
31.0
28.79
24.48
17.17
6.78
-5.96
-19.86
-33.74
-46.82
-58.83
-69.95
-80.53
-90.85
-100.88
-110.3
-118.55
-125.04
-129.34
-131.38
-131.61
-130.95
-130.69
-132.09
-136.08
-142.88
-151.73
-160.95
-168.2
-171.06
-167.82
-158.0
-142.59
-123.67
-103.61
-84.19
-66.11
-49.01
-31.94
-14.12
4.68
24.01
43.06
60.96
77.16
91.39
103.72
114.35
123.59
131.76
139.18
146.18
153.03
159.97
167.07
174.18
180.89
186.41
189.81
190.14
186.72
179.4
168.61
155.33
140.8
126.22
112.44
99.78
88.07
76.87
65.75
54.61
43.63
33.31
24.12
16.28
9.59
3.41
-3.11
-10.74
-19.84
-30.12
-40.66
-50.1
-57.09
-60.7
-60.75
-57.85
-53.16
-47.92
-43.13
-39.17
-36.01
-33.36
-31.13
-29.48
-28.8
-29.37
-31.07
-33.29
-35.08
-35.47
-33.9
-30.38
-25.39
-19.68
-13.96
-8.69
-4.06
-0.09
3.3
6.12
8.33
9.81
10.4
10.0
8.71
6.79
4.66
2.71
1.16
-0.02
-1.11
-2.46
-4.38
-6.97
-10.09
-13.47
-16.78
-19.79
-22.44
-24.8
-27.08
-29.57
-32.64
-36.63
-41.84
-48.2
-55.17
-61.56
-65.84
-66.53
-62.78
-54.81
-43.8
-31.51
-19.59
-9.06
-0.19
7.31
13.87
19.71
24.81
29.01
32.23
34.56
36.19
37.25
37.82
37.92
37.61
37.13
36.78
36.9
37.65
38.98
40.65
42.28
43.53
44.18
44.12
43.33
41.84
39.74
37.13
34.21
31.23
28.39
25.83
23.51
21.25
18.68
15.43
11.26
6.16
0.42
-5.5
-11.12
-16.1
-20.42
-24.3
-28.12
-32.29
-37.15
-42.84
-49.21
-55.74
-61.47
-65.19
-65.74
-62.45
-55.45
-45.71
-34.74
-24.07
-14.79
-7.27
-1.35
3.44
7.52
11.06
14.06
16.41
18.06
19.08
19.62
19.92
20.22
20.74
21.67
23.1
25.05
27.4
29.92
32.29
34.16
35.2
35.24
34.31
32.65
30.6
28.42
26.13
23.51
20.16
15.8
10.45
4.47
-1.57
-7.15
-11.97
-16.12
-19.97
-24.04
-28.89
-34.94
-42.33
-50.77
-59.35
-66.68
-71.15
-71.49
-67.19
-58.74
-47.44
-34.93
-22.63
-11.41
-1.61
6.8
13.93
19.78
24.29
27.42
29.29
30.14
30.28
29.97
29.41
28.72
28.06
27.64
27.68
28.33
29.5
30.88
31.97
32.26
31.5
29.7
27.24
24.54
22.0
19.75
17.7
15.63
13.26
10.37
6.87
2.83
-1.57
-6.05
-10.32
-14.22
-17.85
-21.57
-25.95
-31.55
-38.64
-46.95
-55.62
-63.34
-68.66
-70.43
-68.14
-62.06
-53.08
-42.46
-31.39
-20.8
-11.22
-2.86
4.26
10.19
14.99
18.75
21.57
23.59
25.0
26.0
26.79
27.53
28.33
29.27
30.43
31.9
33.81
36.19
38.93
41.71
43.99
45.14
44.64
42.26
38.15
32.83
27.06
21.54
16.74
12.71
9.22
5.85
2.19
-1.95
-6.5
-11.22
-15.8
-19.98
-23.72
-27.17
-30.66
-34.66
-39.66
-45.97
-53.54
-61.79
-69.56
-75.34
-77.65
-75.52
-68.8
-58.21
-45.04
-30.8
-16.82
-4.05
6.96
15.97
22.98
28.13
31.7
34.05
35.52
36.46
37.08
37.56
38.04
38.54
39.04
39.44
39.63
39.52
39.18
38.7
38.19
37.66
37.01
36.03
34.5
32.31
29.46
26.1
22.56
19.19
16.27
13.98
12.28
10.9
9.5
7.67
5.16
1.94
-1.87
-6.01
-10.2
-14.3
-18.3
-22.41
-27.04
-32.7
-39.85
-48.62
-58.63
-68.84
-77.68
-83.51
-85.02
-81.71
-73.93
-62.81
-49.83
-36.45
-23.82
-12.63
-3.21
4.47
10.61
15.47
19.29
22.19
24.27
25.61
26.38
26.85
27.42
28.43
30.14
32.56
35.51
38.66
41.66
44.22
46.16
47.43
47.99
47.81
46.86
45.15
42.78
39.95
36.95
33.99
31.13
28.25
25.09
21.42
17.16
12.41
7.45
2.56
-2.06
-6.36
-10.45
-14.48
-18.59
-22.91
-27.64
-33.18
-39.98
-48.3
-57.87
-67.65
-75.95
-80.91
-81.1
-76.11
-66.58
-53.93
-39.77
-25.4
-11.68
0.83
11.7
20.44
26.69
30.38
31.93
32.13
31.88
31.85
32.37
33.37
34.63
35.88
37.04
38.14
39.28
40.59
42.03
43.47
44.61
45.09
44.54
42.76
39.78
35.88
31.5
27.08
23.03
19.45
16.25
13.13
9.71
5.73
1.12
-3.95
-9.12
-14.0
-18.36
-22.22
-25.84
-29.64
-34.04
-39.4
-45.93
-53.55
-61.83
-69.85
-76.31
-79.76
-79.07
-73.72
-64.07
-51.18
-36.52
-21.52
-7.3
5.44
16.37
25.33
32.34
37.48
40.93
42.88
43.57
43.26
42.27
41.0
39.85
39.15
39.05
39.49
40.26
41.14
42.01
42.84
43.6
44.16
44.15
43.17
40.87
37.16
32.32
26.84
21.31
16.16
11.54
7.32
3.17
-1.24
-6.05
-11.19
-16.38
-21.31
-25.73
-29.61
-33.1
-36.55
-40.42
-45.17
-51.26
-58.89
-67.81
-77.15
-85.46
-91.01
-92.37
-88.85
-80.68
-68.95
-55.02
-40.23
-25.55
-11.6
1.17
12.4
21.7
28.81
33.64
36.4
37.53
37.58
37.13
36.71
36.61
36.95
37.7
38.73
39.99
41.41
42.96
44.52
45.87
46.65
46.49
45.08
42.23
37.93
32.36
25.87
18.96
12.16
5.91
0.48
-4.13
-8.1
-11.66
-14.97
-18.05
-20.82
-23.21
-25.31
-27.43
-30.06
-33.83
-39.31
-46.86
-56.37
-67.11
-77.69
-86.29
-91.1
-90.81
-85.0
-74.25
-59.85
-43.46
-26.63
-10.58
3.9
16.35
26.5
34.33
39.88
43.4
45.22
45.78
45.55
45.02
44.61
44.6
45.06
45.89
46.9
47.94
48.92
49.8
50.44
50.57
49.78
47.66
43.98
38.85
32.72
26.26
20.16
14.91
10.69
7.41
4.77
2.4
-0.04
-2.81
-6.0
-9.64
-13.67
-18.02
-22.68
-27.8
-33.68
-40.77
-49.43
-59.71
-71.06
-82.2
-91.38
-96.76
-96.98
-91.54
-80.88
-66.27
-49.38
-31.94
-15.33
-0.56
11.83
21.59
28.69
33.31
35.76
36.52
36.14
35.28
34.45
34.06
34.19
34.74
35.52
36.36
37.23
38.21
39.35
40.58
41.67
42.25
41.92
40.48
37.9
34.43
30.39
26.1
21.74
17.31
12.72
7.79
2.51
-3.02
-8.59
-13.94
-18.86
-23.25
-27.18
-30.9
-34.88
-39.68
-45.87
-53.68
-62.79
-72.16
-80.21
-85.15
-85.54
-80.72
-70.94
-57.32
-41.41
-24.82
-8.92
5.3
17.22
26.5
33.02
36.89
38.37
37.95
36.26
34.0
31.86
30.31
29.59
29.63
30.19
30.97
31.69
32.19
32.4
32.28
31.77
30.79
29.18
26.73
23.22
18.48
12.51
5.5
-2.08
-9.65
-16.61
-22.6
-27.6
-31.97
-36.35
-41.49
-47.99
-56.1
-65.39
-74.83
-82.84
-87.66
-87.83
-82.56
-72.03
-57.29
-39.99
-21.94
-4.71
10.63
23.55
33.93
41.83
47.45
50.91
52.46
52.4
51.22
49.49
47.77
46.44
45.66
45.37
45.34
45.33
45.14
44.63
43.7
42.26
40.22
37.46
33.91
29.45
24.04
17.65
10.38
2.39
-5.98
-14.35
-22.34
-29.62
-36.12
-41.92
-47.4
-53.12
-59.69
-67.53
-76.59
-86.11
-94.68
-100.46
-101.74
-97.45
-87.5
-72.83
-55.06
-36.1
-17.58
-0.65
14.09
26.48
36.67
44.93
51.55
56.76
60.76
63.65
65.54
66.54
66.8
66.53
65.99
65.45
65.06
64.88
64.75
64.31
63.14
60.81
57.04
51.79
45.22
37.71
29.71
21.65
13.82
6.42
-0.51
-6.89
-12.66
-17.65
-21.73
-24.95
-27.67
-30.61
-34.71
-40.85
-49.42
-60.02
-71.42
-81.7
-88.78
-90.9
-87.14
-77.56
-63.2
-45.71
-27.04
-8.94
7.3
21.04
32.23
41.25
48.59
54.61
59.4
62.92
65.11
66.09
66.17
65.74
65.14
64.54
63.98
63.44
62.89
62.36
61.8
61.07
59.92
58.03
55.19
51.32
46.61
41.36
35.95
30.66
25.54
20.51
15.4
10.09
4.68
-0.62
-5.55
-10.03
-14.2
-18.45
-23.18
-28.63
-34.76
-41.23
-47.62
-53.63
-59.27
-64.87
-71.05
-78.4
-87.25
-97.29
-107.54
-116.34
-121.8
-122.19
-116.48
-104.7
-87.87
-67.76
-46.43
-25.73
-7.04
8.9
21.94
32.36
40.63
47.31
52.81
57.35
61.01
63.74
65.53
66.45
66.63
66.31
65.68
64.92
64.16
63.49
62.98
62.62
62.25
61.61
60.32
58.05
54.63
50.16
45.01
39.71
34.76
30.4
26.62
23.13
19.6
15.79
11.67
7.39
3.18
-0.79
-4.45
-7.89
-11.33
-15.01
-19.17
-23.97
-29.42
-35.37
-41.54
-47.59
-53.24
-58.5
-63.6
-69.12
-75.74
-83.91
-93.57
-103.84
-113.08
-119.21
-120.33
-115.31
-104.17
-88.05
-68.83
-48.6
-29.17
-11.8
2.88
14.72
23.97
31.02
36.39
40.5
43.69
46.18
48.09
49.54
50.58
51.25
51.59
51.59
51.28
50.74
50.07
49.31
48.39
47.12
45.24
42.59
39.12
34.97
30.35
25.54
20.77
16.3
12.37
9.13
6.6
4.56
2.65
0.48
-2.19
-5.36
-8.81
-12.25
-15.5
-18.59
-21.81
-25.62
-30.6
-37.26
-45.79
-55.95
-66.74
-76.53
-83.22
-84.89
-80.36
-69.62
-53.84
-35.07
-15.56
2.78
18.75
31.89
42.2
49.94
55.35
58.61
59.87
59.35
57.45
54.68
51.65
48.89
46.8
45.55
45.11
45.32
45.92
46.63
47.12
47.11
46.32
44.57
41.81
38.14
33.8
29.03
24.06
19.01
14.0
9.05
4.21
-0.44
-4.84
-9.0
-13.04
-17.1
-21.37
-25.92
-30.72
-35.65
-40.53
-45.21
-49.65
-53.93
-58.29
-63.08
-68.75
-75.67
-83.89
-92.91
-101.56
-108.13
-110.77
-107.95
-99.02
-84.37
-65.44
-44.27
-23.02
-3.47
13.25
26.77
37.23
45.11
50.89
55.0
57.64
58.98
59.19
58.53
57.32
55.87
54.41
53.04
51.85
50.91
50.39
50.45
51.07
51.96
52.57
52.17
50.17
46.32
40.82
34.19
27.06
19.92
12.97
6.14
-0.81
-8.1
-15.82
-23.86
-31.92
-39.61
-46.67
-53.03
-58.92
-64.81
-71.33
-79.04
-88.2
-98.57
-109.23
-118.7
-125.2
-127.11
-123.36
-113.84
-99.37
-81.49
-62.04
-42.76
-24.88
-9.12
4.38
15.83
25.64
34.16
41.64
48.13
53.62
58.1
61.64
64.4
66.61
68.54
70.42
72.45
74.72
77.16
79.56
81.54
82.66
82.56
81.04
78.1
73.89
68.67
62.71
56.28
49.63
42.99
36.53
30.35
24.47
18.81
13.18
7.37
1.14
-5.65
-12.97
-20.64
-28.31
-35.62
-42.27
-48.19
-53.55
-58.82
-64.66
-71.69
-80.23
-89.96
-99.75
-107.74
-111.86
-110.36
-102.49
-88.69
-70.49
-49.94
-29.13
-9.68
7.41
21.7
33.19
42.13
48.9
53.94
57.69
60.49
62.57
64.04
64.94
65.33
65.31
65.04
64.71
64.47
64.43
64.52
64.56
64.19
63.04
60.83
57.47
53.14
48.18
42.97
37.79
32.75
27.8
22.83
17.74
12.55
7.41
2.55
-1.87
-5.86
-9.6
-13.53
-18.03
-23.35
-29.37
-35.72
-41.9
-47.55
-52.69
-57.72
-63.35
-70.3
-79.06
-89.57
-101.04
-111.96
-120.37
-124.29
-122.2
-113.51
-98.75
-79.53
-58.09
-36.88
-18.0
-2.84
8.05
14.83
18.19
19.05
18.31
16.77
15.13
14.01
13.98
15.43
18.49
22.9
28.1
33.4
38.21
42.17
45.23
47.5
49.18
50.32
50.84
50.58
49.41
47.32
44.56
41.59
38.98
37.24
36.7
37.28
38.64
40.17
41.28
41.56
40.94
39.75
38.62
38.28
39.27
41.68
45.09
48.64
51.27
52.24
51.58
50.54
51.67
58.32
73.69
99.45
134.74
175.87
216.98
251.53
274.05
281.46
273.63
253.07
223.95
190.98
158.42
129.35
105.39
86.74
72.48
61.11
51.09
41.21
30.76
19.57
7.83
-3.96
-15.18
-25.25
-33.87
-41.15
-47.53
-53.67
-60.16
-67.28
-74.89
-82.49
-89.34
-94.76
-98.22
-99.62
-99.16
-97.32
-94.69
-91.67
-88.37
-84.52
-79.62
-73.25
-65.38
-56.57
-47.96
-40.97
-36.67
-35.38
-36.3
-37.73
-37.63
-34.38
-27.41
-17.34
-5.65
6.05
16.71
26.2
35.19
44.69
55.52
68.0
81.75
95.78
108.66
118.59
123.7
122.48
114.09
98.7
77.47
52.37
25.64
-0.66
-25.0
-46.58
-65.21
-81.2
-95.11
-107.44
-118.49
-128.2
-136.25
-142.15
-145.59
-146.58
-145.54
-143.15
-140.14
-137.11
-134.35
-131.85
-129.45
-126.93
-124.11
-120.95
-117.5
-113.84
-110.07
-106.22
-102.26
-98.12
-93.74
-89.08
-84.17
-79.0
-73.59
-67.92
-61.96
-55.84
-49.77
-44.13
-39.29
-35.49
-32.67
-30.57
-28.79
-26.96
-24.9
-22.63
-20.33
-18.18
-16.33
-14.89
-13.94
-13.59
-13.93
-14.95
-16.41
-17.96
-19.12
-19.55
-19.14
-18.12
-16.96
-16.18
-16.29
-17.5
-19.8
-22.89
-26.4
-29.95
-33.24
-36.13
-38.57
-40.58
-42.07
-42.97
-43.09
-42.33
-40.59
-37.86
-34.13
-29.48
-24.13
-18.63
-14.04
-11.74
-13.13
-18.93
-28.8
-41.1
-53.46
-63.43
-69.37
-70.96
-69.05
-65.3
-61.49
-59.02
-58.68
-60.74
-64.96
-70.74
-77.09
-82.71
-86.22
-86.55
-83.31
-77.0
-68.84
-60.38
-52.81
-46.52
-40.88
-34.65
-26.45
-15.47
-1.77
13.79
29.83
44.94
58.0
68.31
75.6
79.99
82.04
82.73
83.36
85.25
89.3
95.61
103.33
110.85
116.31
118.06
115.1
107.22
95.08
80.1
64.34
50.1
39.46
33.66
32.78
35.66
40.37
44.95
47.98
48.94
48.09
46.08
43.6
41.08
38.68
36.43
34.33
32.47
30.94
29.94
29.59
29.91
30.79
32.03
33.44
34.91
36.38
37.81
39.03
39.64
39.14
37.03
33.1
27.53
20.84
13.74
6.79
0.31
-5.73
-11.6
-17.52
-23.59
-29.63
-35.31
-40.21
-43.96
-46.34
-47.34
-47.25
-46.6
-46.05
-46.08
-46.62
-46.84
-45.35
-40.76
-32.38
-20.75
-7.49
5.31
15.92
23.69
29.05
33.06
36.62
40.03
42.89
44.42
44.14
42.11
39.06
36.08
34.13
33.83
35.25
38.04
41.62
45.38
48.77
51.32
52.51
51.86
48.97
43.75
36.48
27.89
18.96
10.66
3.68
-1.74
-5.83
-9.17
-12.36
-15.87
-19.78
-23.84
-27.66
-30.92
-33.6
-35.99
-38.63
-42.12
-47.01
-53.53
-61.42
-69.75
-76.83
-80.55
-78.92
-70.91
-56.88
-38.71
-19.13
-0.85
14.3
25.68
33.59
38.73
41.59
42.34
41.04
37.91
33.62
29.11
25.35
23.01
22.21
22.65
23.79
25.11
26.24
27.01
27.37
27.26
26.61
25.29
23.22
20.35
16.8
12.79
8.57
4.38
0.42
-3.27
-6.68
-9.8
-12.62
-14.99
-16.77
-17.83
-18.28
-18.54
-19.27
-21.21
-24.65
-28.96
-32.48
-32.75
-27.37
-14.96
4.17
27.99
53.53
77.92
99.3
117.08
131.47
142.79
150.98
155.6
156.25
152.8
145.27
133.4
116.28
92.63
61.79
24.67
-15.79
-55.26
-89.48
-115.56
-132.68
-141.67
-144.13
-141.57
-135.24
-126.35
-116.42
-107.18
-99.91
-94.88
-91.16
-87.12
-81.24
-72.79
-62.05
-49.84
-37.15
-24.69
-12.83
-1.74
8.51
17.83
26.11
33.16
38.76
42.56
44.33
44.05
42.15
39.54
37.43
37.02
39.14
44.04
51.34
60.13
69.12
76.88
82.22
84.43
83.58
80.53
76.68
73.51
72.05
72.47
74.01
75.33
74.97
71.95
65.93
57.24
46.66
35.22
24.01
14.11
6.45
1.46
-0.99
-1.74
-2.15
-3.59
-6.96
-12.47
-19.58
-27.33
-34.76
-41.22
-46.48
-50.57
-53.6
-55.57
-56.38
-55.87
-53.99
-51.1
-48.12
-46.56
-48.15
-54.29
-65.34
-80.3
-96.85
-112.01
-122.96
-127.7
-125.29
-115.74
-99.68
-78.29
-53.45
-27.84
-4.77
12.49
21.69
22.45
16.39
6.63
-3.36
-10.85
-14.46
-14.22
-11.07
-6.3
-1.18
3.3
6.38
7.67
7.21
5.51
3.47
2.05
1.96
3.34
5.79
8.59
10.99
12.35
12.08
9.58
4.37
-3.47
-12.93
-21.92
-27.84
-28.56
-23.44
-13.76
-2.27
7.99
14.91
18.09
18.69
18.65
19.68
22.52
26.93
31.97
36.57
39.95
41.7
41.81
40.63
39.01
38.49
41.18
49.07
63.16
82.58
104.45
124.74
139.62
146.93
146.73
140.97
132.15
122.05
110.78
96.77
77.55
51.01
16.55
-24.06
-66.85
-106.42
-137.49
-156.41
-162.18
-156.51
-142.95
-125.54
-107.63
-91.48
-78.38
-69.19
-64.7
-65.69
-72.41
-84.14
-99.03
-114.3
-126.99
-134.7
-136.26
-131.82
-122.48
-109.68
-94.53
-77.66
-59.32
-39.83
-19.94
-0.76
16.51
31.04
42.63
51.56
58.3
63.15
66.19
67.43
67.03
65.43
63.27
61.1
59.22
57.61
56.17
54.91
54.03
53.75
54.04
54.43
54.06
51.98
47.53
40.72
32.24
23.15
14.47
6.71
-0.14
-6.53
-12.83
-19.1
-25.02
-30.12
-34.12
-37.09
-39.48
-41.82
-44.41
-47.14
-49.57
-51.07
-51.14
-49.6
-46.63
-42.75
-38.58
-34.64
-31.18
-28.1
-25.12
-21.79
-17.79
-12.96
-7.32
-1.11
5.25
11.18
15.96
18.94
19.65
18.0
14.42
9.68
4.75
0.47
-2.54
-4.01
-3.96
-2.69
-0.65
1.6
3.58
5.03
5.95
6.49
6.85
7.07
7.08
6.79
6.14
5.19
4.03
2.72
1.3
-0.2
-1.72
-3.25
-5.01
-7.48
-11.23
-16.56
-23.14
-29.93
-35.53
-38.75
-39.1
-37.03
-33.56
-29.88
-26.73
-24.32
-22.28
-20.06
-17.23
-13.71
-9.83
-6.18
-3.38
-1.83
-1.57
-2.21
-3.16
-3.87
-3.96
-3.36
-2.27
-0.97
0.24
1.09
1.42
1.05
-0.06
-1.89
-4.22
-6.75
-9.13
-11.13
-12.75
-14.04
-15.09
-15.84
-16.08
-15.55
-14.1
-11.79
-8.84
-5.61
-2.37
0.69
3.46
5.83
7.92
10.15
13.58
19.73
30.2
45.97
66.71
90.7
115.16
137.05
153.86
164.02
166.93
162.67
151.62
134.51
112.39
86.83
59.86
33.77
10.56
-8.38
-22.68
-32.9
-40.2
-45.91
-50.99
-55.78
-59.94
-62.63
-62.88
-59.97
-53.76
-44.89
-34.73
-25.16
-18.17
-15.19
-16.75
-22.19
-29.93
-38.09
-45.07
-50.04
-53.0
-54.47
-55.04
-55.14
-54.93
-54.52
-54.15
-54.29
-55.54
-58.3
-62.42
-67.12
-71.14
-73.03
-71.68
-66.6
-58.02
-46.76
-33.99
-20.91
-8.5
2.55
11.83
19.21
24.79
28.79
31.5
33.17
34.03
34.25
34.02
33.58
33.13
32.87
32.89
33.17
33.7
34.43
35.34
36.36
37.38
38.21
38.74
38.9
38.83
38.71
38.72
38.95
39.33
39.74
40.09
40.25
40.15
39.62
38.41
36.17
32.55
27.29
20.24
11.39
0.85
-11.11
-23.94
-36.65
-47.84
-55.92
-59.53
-58.03
-51.69
-41.71
-29.84
-17.84
-7.08
1.58
7.74
11.29
12.16
10.45
6.37
0.5
-6.32
-13.07
-18.91
-23.38
-26.64
-29.49
-33.0
-38.2
-45.54
-54.64
-64.16
-72.24
-77.07
-77.6
-73.97
-67.46
-60.04
-53.47
-48.69
-45.53
-42.92
-39.57
-34.47
-27.35
-18.63
-9.32
-0.68
6.1
10.22
11.65
11.26
10.73
11.88
16.08
23.61
33.55
44.22
53.81
61.05
65.48
67.3
67.04
65.29
62.46
58.75
54.14
48.47
41.59
33.57
24.87
16.3
8.9
3.53
0.61
0.04
1.41
4.24
8.27
13.38
19.41
25.97
32.37
37.84
41.91
44.72
47.13
50.33
55.31
62.41
71.11
80.22
88.3
94.24
97.43
97.93
96.31
93.58
91.13
90.59
93.38
100.14
110.15
121.32
130.83
135.97
135.07
127.71
114.36
95.72
72.32
44.78
14.36
-16.65
-45.13
-68.09
