21.2
15.75
10.82
6.16
1.37
-3.87
-9.64
-15.69
-21.48
-26.44
-30.25
-33.03
-35.45
-38.47
-43.13
-50.06
-59.19
-69.61
-79.67
-87.25
-90.37
-87.69
-78.92
-64.9
-47.31
-28.17
-9.28
8.08
23.28
36.12
46.65
54.96
61.18
65.51
68.22
69.7
70.29
70.28
69.82
68.99
67.89
66.66
65.47
64.45
63.57
62.62
61.32
59.35
56.52
52.77
48.25
43.12
37.59
31.8
25.9
20.07
14.52
9.54
5.29
1.75
-1.32
-4.35
-7.77
-11.78
-16.36
-21.22
-25.99
-30.46
-34.69
-39.06
-44.13
-50.44
-58.28
-67.48
-77.28
-86.35
-92.96
-95.46
-92.67
-84.35
-71.3
-55.12
-37.84
-21.3
-6.83
5.0
14.23
21.22
26.44
30.22
32.71
33.95
34.07
33.28
31.98
30.56
29.34
28.5
28.03
27.9
28.05
28.44
29.0
29.68
30.39
31.1
31.85
32.7
33.71
34.74
35.56
35.84
35.34
33.99
31.89
29.25
26.17
22.61
18.39
13.31
7.29
0.48
-6.75
-13.93
-20.61
-26.53
-31.73
-36.53
-41.43
-47.02
-53.74
-61.75
-70.83
-80.3
-89.04
-95.65
-98.7
-97.1
-90.41
-79.07
-64.36
-48.13
-32.26
-18.2
-6.59
2.68
10.16
16.43
21.75
26.02
28.98
30.51
30.83
30.5
30.14
30.15
30.58
31.16
31.52
31.42
30.84
29.83
28.42
26.47
23.7
19.94
15.23
9.96
4.72
0.1
-3.58
-6.34
-8.53
-10.67
-13.18
-16.22
-19.66
-23.15
-26.29
-28.86
-30.94
-32.98
-35.67
-39.78
-45.84
-53.82
-62.95
-71.69
-78.07
-80.18
-76.78
-67.72
-54.1
-37.8
-20.89
-5.06
8.81
20.58
30.49
38.79
45.56
50.65
53.98
55.68
56.25
56.39
56.79
57.85
59.52
61.39
62.9
63.68
63.68
63.18
62.49
61.74
60.72
59.05
56.39
52.68
48.13
43.07
37.68
31.97
25.84
19.33
12.74
6.55
1.16
-3.34
-7.27
-11.16
-15.51
-20.47
-25.84
-31.19
-36.16
-40.68
-45.1
-50.15
-56.61
-64.99
-75.1
-85.87
-95.43
-101.62
-102.6
-97.43
-86.36
-70.67
-52.3
-33.21
-15.02
1.2
14.89
25.84
34.06
39.76
43.34
45.32
46.37
47.1
47.97
49.23
50.74
52.19
53.14
53.31
52.71
51.68
50.67
50.0
49.63
49.21
48.2
46.24
43.28
39.62
35.68
31.75
27.85
23.75
19.2
14.16
8.87
3.8
-0.56
-4.0
-6.67
-9.09
-11.89
-15.55
-20.16
-25.39
-30.66
-35.46
-39.53
-43.01
-46.27
-49.87
-54.27
-59.81
-66.69
-74.72
-83.25
-90.93
-95.92
-96.21
-90.39
-78.16
-60.65
-40.21
-19.62
-1.3
13.35
24.22
32.18
38.42
43.9
48.88
53.02
55.76
56.77
56.31
55.12
54.14
54.06
54.99
56.45
57.78
58.39
58.12
57.14
55.78
54.17
52.11
49.14
44.81
39.0
32.09
24.88
18.29
13.0
9.07
5.97
2.84
-1.16
-6.44
-12.84
-19.68
-26.18
-31.8
-36.54
-40.88
-45.67
-51.71
-59.47
-68.84
-79.01
-88.56
-95.65
-98.43
-95.5
-86.37
-71.68
-53.07
-32.8
-13.15
4.1
17.98
28.3
35.39
39.84
42.29
43.31
43.43
43.1
42.67
42.38
42.27
42.32
42.44
42.59
42.84
43.23
43.75
44.28
44.51
44.08
42.75
40.46
37.37
33.81
30.17
26.77
23.77
21.15
18.7
16.1
13.08
9.5
5.46
1.27
-2.79
-6.61
-10.42
-14.73
-20.08
-26.76
-34.56
-42.81
-50.64
-57.35
-62.76
-67.27
-71.73
-77.16
-84.22
-92.95
-102.45
-110.94
-116.06
-115.32
-106.77
-89.62
-64.61
-34.05
-1.31
29.99
56.92
77.85
92.61
102.07
107.58
110.42
111.51
111.53
111.08
110.74
111.01
112.09
113.69
115.18
115.75
114.7
111.66
106.68
100.09
92.49
84.52
76.69
69.27
62.21
55.21
47.99
40.48
32.91
25.71
19.19
13.37
7.89
2.26
-3.85
-10.4
-16.98
-23.05
-28.26
-32.69
-36.73
-40.93
-45.68
-51.04
-56.72
-62.28
-67.39
-71.92
-76.08
-80.33
-85.15
-90.87
-97.34
-103.92
-109.44
-112.51
-111.85
-106.72
-97.08
-83.68
-67.84
-51.13
-35.08
-20.91
-9.37
-0.7
5.32
9.32
12.05
14.2
16.23
18.32
20.43
22.46
24.31
25.98
27.46
28.65
29.38
29.45
28.73
27.29
25.32
23.04
20.56
17.85
14.79
11.45
8.14
5.4
3.73
3.27
3.66
4.09
3.62
1.64
-1.98
-6.81
-12.18
-17.49
-22.39
-26.91
-31.29
-35.82
-40.81
-46.45
-52.76
-59.44
-65.78
-70.68
-72.85
-71.11
-64.86
-54.33
-40.6
-25.31
-10.27
3.04
13.68
21.41
26.53
29.63
31.4
32.35
32.82
32.97
32.88
32.66
32.48
32.46
32.65
32.95
33.15
33.1
32.71
32.1
31.4
30.65
29.7
28.22
25.93
22.75
18.92
14.93
11.3
8.33
5.98
3.97
1.96
-0.23
-2.59
-5.03
-7.51
-10.21
-13.38
-17.23
-21.75
-26.66
-31.55
-36.05
-39.98
-43.43
-46.75
-50.41
-54.88
-60.42
-66.9
-73.72
-79.75
-83.64
-84.18
-80.71
-73.33
-62.82
-50.43
-37.46
-25.05
-13.96
-4.68
2.68
8.21
12.26
15.29
17.8
20.1
22.33
24.41
26.13
27.35
28.06
28.34
28.35
28.27
28.2
28.21
28.28
28.32
28.09
27.36
25.89
23.57
20.49
16.89
13.15
9.6
6.42
3.62
1.09
-1.31
-3.63
-5.85
-7.89
-9.74
-11.58
-13.69
-16.42
-20.05
-24.62
-29.88
-35.42
-40.84
-45.9
-50.65
-55.41
-60.58
-66.49
-73.17
-80.27
-87.06
-92.58
-95.73
-95.59
-91.55
-83.49
-71.94
-57.87
-42.7
-27.94
-14.91
-4.58
2.71
7.17
9.46
10.43
10.83
11.11
11.38
11.41
10.81
9.16
6.14
1.63
-4.25
-11.06
-18.05
-24.33
-29.14
-32.09
-33.42
-33.91
-34.61
-36.48
-39.86
-44.33
-48.65
-51.14
-50.22
-44.98
-35.4
-22.38
-7.2
9.07
26.04
44.06
63.83
85.76
109.39
133.32
155.53
174.14
188.04
197.28
203.22
208.14
214.88
225.98
243.04
265.99
292.86
320.02
343.15
358.35
363.27
357.62
342.92
321.67
296.36
268.84
240.04
210.27
179.6
148.18
116.29
84.32
52.66
21.63
-8.35
-36.76
-62.92
-86.07
-105.7
-121.7
-134.46
-144.82
-153.72
-161.97
-170.09
-178.22
-186.2
-193.65
-199.9
-204.16
-205.64
-203.83
-198.79
-191.28
-182.59
-174.13
-167.08
-162.08
-159.16
-157.97
-157.97
-158.62
-159.38
-159.78
-159.43
-158.11
-155.88
-153.2
-150.85
-149.76
-150.64
-153.57
-157.64
-160.93
-160.94
-155.38
-143.1
-124.59
-102.01
-78.37
-56.53
-38.31
-24.13
-13.35
-4.9
2.02
7.71
12.1
15.16
17.26
19.25
22.17
26.83
33.44
41.43
49.81
57.64
64.54
70.97
78.02
86.93
98.4
112.14
126.83
140.57
151.65
159.21
163.7
166.77
170.82
178.42
191.7
211.81
238.52
269.81
301.92
329.88
348.63
354.44
345.88
324.11
292.1
253.21
209.96
163.59
114.62
64.12
14.74
-29.24
-62.96
-82.85
-88.21
-81.86
-69.35
-57.04
-49.98
-50.43
-57.65
-68.97
-81.24
-92.24
-101.07
-107.88
-113.17
-117.29
-120.35
-122.46
-124.06
-126.0
-129.31
-134.68
-142.19
-151.13
-160.24
-168.14
-173.67
-176.17
-175.64
-172.5
-167.32
-160.54
-152.14
-141.53
-127.74
-109.66
-86.66
-59.06
-28.36
2.89
31.66
55.35
72.57
83.52
89.74
93.27
95.83
98.19
100.16
101.13
100.65
98.88
96.47
94.16
92.41
91.29
90.66
90.4
90.19
89.28
86.09
78.32
63.77
41.47
12.52
-19.89
-51.4
-78.03
-97.53
-110.05
-117.65
-123.26
-129.46
-137.67
-148.08
-159.92
-172.11
-183.68
-193.98
-202.62
-209.27
-213.54
-215.02
-213.42
-208.73
-201.21
-191.22
-179.09
-164.98
-149.02
-131.38
-112.43
-92.69
-72.74
-52.98
-33.52
-14.09
5.9
27.15
50.07
74.51
99.37
122.61
141.68
154.25
158.97
155.95
146.72
133.82
119.97
107.55
97.99
91.64
87.76
84.68
80.21
72.04
58.37
38.37
12.52
-17.47
-49.03
-79.46
-106.66
-129.51
-147.96
-162.53
-173.74
-181.55
-185.22
-183.6
-175.59
-160.59
-138.81
-111.17
-79.24
-45.03
-10.89
20.71
47.46
67.71
80.9
87.6
89.28
87.62
83.93
78.89
72.52
64.53
54.54
42.22
27.32
9.76
-10.23
-31.94
-54.12
-75.33
-94.38
-110.83
-125.03
-137.81
-149.82
-160.93
-170.05
-175.33
-174.92
-167.7
-153.91
-135.24
-114.36
-94.17
-76.8
-63.12
-52.68
-44.31
-36.84
-29.75
-23.34
-18.4
-15.81
-15.99
-18.78
-23.31
-28.2
-31.72
-32.15
-28.17
-19.27
-5.98
10.21
27.35
43.59
57.73
69.41
78.89
86.72
93.36
99.07
103.97
108.19
111.99
115.6
119.09
122.2
124.46
125.41
124.87
123.03
120.33
117.14
113.56
109.38
104.26
98.05
90.9
83.28
75.77
68.81
62.67
57.38
53.04
49.65
47.22
45.56
44.24
42.7
40.38
37.04
32.79
28.07
23.38
19.08
15.16
11.32
7.08
1.92
-4.54
-12.58
-22.19
-32.95
-43.86
-53.34
-59.51
-60.7
-56.08
-46.02
-32.04
-16.34
-1.13
11.97
22.24
29.7
34.88
38.41
40.92
42.83
44.43
45.91
47.33
48.76
50.19
51.57
52.77
53.65
54.06
53.97
53.55
53.01
52.63
52.5
52.51
52.41
51.82
50.48
48.25
45.18
41.45
37.34
33.16
29.13
25.41
21.95
18.59
15.13
11.39
7.28
2.8
-2.01
-7.03
-12.13
-17.1
-21.85
-26.42
-31.12
-36.48
-43.12
-51.47
-61.45
-72.28
-82.46
-90.09
-93.33
-91.02
-83.02
-70.3
-54.64
-38.14
-22.58
-9.11
1.91
10.72
17.82
23.74
28.85
33.32
37.23
40.6
43.49
45.97
48.09
49.9
51.44
52.73
53.85
54.91
56.03
57.19
58.28
59.05
59.12
58.19
56.06
52.77
48.61
44.05
39.57
35.5
31.92
28.62
25.24
21.42
17.01
12.1
7.01
2.13
-2.28
-6.22
-9.97
-14.04
-18.97
-25.24
-33.08
-42.42
-52.83
-63.44
-73.02
-80.16
-83.58
-82.46
-76.73
-67.03
-54.63
-40.93
-27.19
-14.26
-2.6
7.64
16.47
23.88
29.84
34.36
37.49
39.41
40.47
41.13
41.86
43.02
44.77
47.05
49.67
52.37
54.92
57.16
58.96
60.16
60.55
59.9
58.07
55.05
51.03
46.39
41.57
36.97
32.73
28.79
24.86
20.61
15.79
10.41
4.7
-0.97
-6.28
-11.08
-15.5
-19.89
-24.72
-30.45
-37.39
-45.64
-54.95
-64.63
-73.52
-80.11
-82.93
-80.97
-74.04
-62.93
-49.15
-34.42
-20.23
-7.46
3.55
12.9
20.84
27.58
33.26
37.94
41.69
44.57
46.7
48.25
49.47
50.55
51.63
52.68
53.54
54.09
54.28
54.22
54.11
54.05
53.97
53.61
52.59
50.58
47.46
43.38
38.71
33.97
29.65
25.99
22.99
20.35
17.63
14.4
10.43
5.74
0.61
-4.63
-9.71
-14.55
-19.26
-24.09
-29.4
-35.6
-42.98
-51.6
-60.99
-70.1
-77.3
-80.89
-79.57
-72.94
-61.81
-47.87
-33.22
-19.71
-8.48
0.19
6.7
11.73
16.0
19.91
23.56
26.85
29.6
31.7
33.18
34.17
34.86
35.35
35.69
35.92
36.08
36.3
36.69
37.27
37.85
38.11
37.66
36.25
33.85
30.72
27.28
23.89
20.77
17.85
14.92
11.74
8.15
4.22
0.15
-3.77
-7.39
-10.69
-13.91
-17.45
-21.81
-27.4
-34.4
-42.5
-50.85
-58.14
-62.82
-63.56
-59.72
-51.54
-40.09
-26.93
-13.68
-1.61
8.58
16.71
22.94
27.61
31.01
33.4
34.95
35.78
35.98
35.73
35.21
34.69
34.34
34.27
34.45
34.75
35.05
35.28
35.49
35.71
35.88
35.76
35.01
33.27
30.32
26.27
21.47
16.5
11.93
8.1
5.07
2.54
0.02
-2.98
-6.78
-11.43
-16.65
-22.04
-27.17
-31.79
-35.9
-39.75
-43.71
-48.19
-53.62
-60.26
-68.05
-76.39
-84.02
-89.26
-90.38
-86.38
-77.37
-64.57
-49.97
-35.52
-22.65
-11.92
-3.26
3.71
9.4
14.14
18.16
21.68
24.87
27.79
30.39
32.58
34.28
35.46
36.15
36.36
36.17
35.69
35.15
34.78
34.75
35.02
35.32
35.26
34.51
32.92
30.51
27.44
23.9
20.07
16.13
12.26
8.71
5.63
3.06
0.87
-1.25
-3.63
-6.51
-9.94
-13.76
-17.69
-21.47
-25.0
-28.34
-31.71
-35.44
-39.86
-45.27
-51.79
-59.23
-66.9
-73.59
-77.74
-77.94
-73.4
-64.26
-51.65
-37.25
-22.82
-9.69
1.45
10.42
17.41
22.68
26.51
29.18
30.98
32.21
33.16
33.97
34.67
35.18
35.4
35.26
34.82
34.23
33.73
33.51
33.67
34.03
34.25
33.85
32.38
29.65
25.75
21.06
16.12
11.43
7.24
3.55
0.11
-3.4
-7.24
-11.45
-15.9
-20.34
-24.49
-28.14
-31.26
-33.97
-36.59
-39.59
-43.47
-48.64
-55.1
-62.28
-69.0
-73.64
-74.71
-71.23
-63.17
-51.4
-37.39
-22.73
-8.75
3.68
14.12
22.44
28.65
32.92
35.48
36.71
37.04
36.83
36.36
35.76
35.13
34.54
34.11
33.92
34.05
34.43
34.9
35.28
35.34
34.95
34.01
32.44
30.2
27.28
23.74
19.72
15.45
11.22
7.3
3.81
0.75
-2.02
-4.74
-7.63
-10.86
-14.49
-18.51
-22.77
-27.02
-31.03
-34.58
-37.68
-40.54
-43.62
-47.5
-52.74
-59.57
-67.67
-75.94
-82.71
-86.08
-84.56
-77.59
-65.8
-50.81
-34.66
-19.21
-5.66
5.48
14.25
20.93
25.86
29.39
31.9
33.76
35.26
36.52
37.48
38.0
38.0
37.6
36.99
36.49
36.27
36.37
36.68
36.95
36.95
36.47
35.39
33.73
31.55
28.98
26.17
23.22
20.13
16.91
13.53
10.01
6.5
3.16
0.11
-2.68
-5.39
-8.32
-11.74
-15.77
-20.24
-24.84
-29.17
-32.91
-35.98
-38.61
-41.19
-44.31
-48.53
-54.26
-61.5
-69.59
-77.15
-82.32
-83.32
-79.03
-69.51
-56.0
-40.52
-25.1
-11.25
0.31
9.54
16.75
22.24
26.24
28.94
30.56
31.47
32.05
32.56
33.12
33.64
33.97
33.98
33.7
33.31
33.1
33.27
33.86
34.71
35.46
35.68
35.01
33.26
30.42
26.71
22.49
18.21
14.31
11.04
8.46
6.32
4.17
1.55
-1.81
-5.9
-10.38
-14.78
-18.72
-22.08
-24.99
-27.8
-30.86
-34.52
-39.06
-44.66
-51.22
-58.22
-64.58
-68.77
-69.26
-65.03
-56.03
-43.26
-28.37
-13.14
1.02
13.3
23.3
30.85
35.77
38.01
37.72
35.47
32.12
28.62
25.76
23.94
23.25
23.56
24.63
26.27
28.26
30.38
32.35
33.96
35.02
35.4
35.0
33.66
31.26
27.69
23.02
17.56
11.75
6.15
1.15
-3.07
-6.61
-9.78
-12.91
-16.25
-19.88
-23.65
-27.32
-30.67
-33.62
-36.27
-38.93
-42.04
-46.04
-51.33
-58.1
-66.08
-74.42
-81.6
-85.78
-85.29
-79.32
-68.17
-53.29
-36.75
-20.55
-6.09
6.0
15.75
23.42
29.29
33.6
36.6
38.64
40.15
41.48
42.74
43.86
44.66
45.05
45.09
45.01
45.06
45.41
46.03
46.76
47.3
47.34
46.66
45.15
42.83
39.84
36.45
32.94
29.56
26.48
23.79
21.42
19.2
16.89
14.2
10.85
6.66
1.62
-4.08
-10.09
-15.99
-21.48
-26.49
-31.19
-35.99
-41.39
-47.84
-55.58
-64.48
-73.81
-82.21
-87.89
-89.1
-84.69
-74.64
-60.23
-43.59
-27.09
-12.57
-0.93
7.85
14.37
19.35
23.31
26.54
29.19
31.4
33.29
34.95
36.36
37.45
38.07
38.08
37.49
36.48
35.37
34.56
34.37
34.88
35.81
36.57
36.41
34.71
31.19
26.08
19.95
13.57
7.64
2.54
-1.6
-5.0
-8.0
-10.96
-14.09
-17.41
-20.75
-23.86
-26.55
-28.87
-31.08
-33.68
-37.25
-42.29
-48.98
-56.96
-65.17
-72.05
-75.79
-74.98
-69.07
-58.62
-45.12
-30.44
-16.25
-3.6
7.11
15.87
22.81
27.96
31.32
32.93
33.06
32.19
30.93
29.83
29.27
29.38
30.04
30.96
31.81
32.34
32.38
31.95
31.18
30.28
29.38
28.46
27.34
25.72
23.32
20.1
16.21
12.05
8.0
4.29
0.87
-2.54
-6.23
-10.36
-14.83
-19.31
-23.44
-26.95
-29.86
-32.5
-35.41
-39.26
-44.64
-51.88
-60.8
-70.57
-79.7
-86.3
-88.55
-85.27
-76.41
-63.02
-46.95
-30.27
-14.7
-1.22
9.87
18.7
25.65
31.07
35.26
38.49
40.98
42.94
44.54
45.88
46.99
47.86
48.39
48.51
48.2
47.49
46.49
45.35
44.18
42.97
41.6
39.88
37.62
34.71
31.16
27.18
23.01
18.98
15.32
12.13
9.33
6.71
3.98
0.88
-2.72
-6.84
-11.31
-15.93
-20.44
-24.65
-28.51
-32.14
-35.83
-40.07
-45.38
-52.14
-60.25
-68.98
-76.87
-82.07
-82.88
-78.34
-68.62
-54.95
-39.21
-23.32
-8.79
3.62
13.68
21.6
27.68
32.23
35.55
37.92
39.64
40.94
41.97
42.73
43.15
43.11
42.61
41.78
40.87
40.19
39.96
40.16
40.56
40.68
40.06
38.33
35.4
31.53
27.1
22.59
18.27
14.26
10.4
6.5
2.35
-2.08
-6.64
-11.08
-15.16
-18.73
-21.88
-24.91
-28.33
-32.71
-38.48
-45.7
-53.81
-61.58
-67.32
-69.33
-66.47
-58.54
-46.41
-31.75
-16.47
-2.24
9.92
19.67
27.19
