38.4
37.31
36.76
36.74
36.84
36.41
34.83
31.79
27.43
22.29
17.07
12.34
8.4
5.22
2.53
-0.0
-2.59
-5.26
-7.86
-10.21
-12.19
-13.89
-15.55
-17.48
-19.87
-22.67
-25.65
-28.44
-30.78
-32.61
-34.18
-35.88
-38.23
-41.75
-46.81
-53.42
-60.89
-67.66
-71.52
-70.24
-62.4
-48.2
-29.47
-9.16
9.67
24.87
35.58
42.18
45.66
47.04
46.99
45.84
43.8
41.16
38.39
35.97
34.25
33.29
32.87
32.59
32.02
31.0
29.61
28.16
26.91
25.93
24.96
23.5
21.05
17.28
12.28
6.56
0.86
-4.07
-7.78
-10.32
-12.21
-14.19
-16.87
-20.45
-24.63
-28.71
-32.03
-34.2
-35.31
-35.91
-36.77
-38.68
-42.25
-47.77
-55.02
-63.08
-70.23
-74.21
-72.86
-64.87
-50.42
-31.34
-10.61
8.66
24.11
34.77
41.0
43.93
44.87
44.76
44.11
43.09
41.85
40.55
39.41
38.58
38.01
37.49
36.69
35.37
33.49
31.25
29.01
27.13
25.79
24.9
24.14
23.05
21.25
18.56
15.07
11.0
6.65
2.27
-1.89
-5.65
-8.8
-11.29
-13.16
-14.75
-16.46
-18.67
-21.46
-24.52
-27.38
-29.57
-31.01
-32.05
-33.37
-35.73
-39.69
-45.54
-53.15
-61.85
-70.27
-76.44
-78.08
-73.39
-61.81
-44.45
-23.91
-3.47
14.01
26.89
35.05
39.43
41.36
41.93
41.72
40.97
39.81
38.44
37.17
36.29
36.0
36.27
36.89
37.58
38.05
38.12
37.71
36.85
35.59
33.91
31.7
28.87
25.35
21.24
16.74
12.12
7.59
3.22
-0.99
-5.02
-8.75
-11.95
-14.42
-16.17
-17.46
-18.76
-20.55
-23.05
-26.17
-29.47
-32.48
-34.82
-36.45
-37.66
-38.96
-41.02
-44.46
-49.7
-56.63
-64.34
-71.04
-74.31
-71.98
-62.9
-47.57
-28.15
-7.69
10.81
25.39
35.37
41.21
43.92
44.5
43.74
42.21
40.33
38.48
36.94
35.83
35.07
34.51
33.91
33.11
32.13
31.09
30.2
29.59
29.24
28.84
27.87
25.78
22.25
17.35
11.61
5.83
0.82
-2.98
-5.59
-7.52
-9.45
-11.94
-15.14
-18.72
-22.1
-24.75
-26.48
-27.59
-28.77
-30.86
-34.6
-40.43
-48.25
-57.24
-65.77
-71.61
-72.47
-66.77
-54.4
-36.88
-16.98
2.22
18.32
30.17
37.91
42.39
44.62
45.31
44.82
43.35
41.16
38.62
36.19
34.26
33.05
32.59
32.7
33.08
33.4
33.4
32.97
32.11
30.92
29.43
27.58
25.15
21.88
17.67
12.62
7.16
1.87
-2.63
-5.95
-8.03
-9.16
-9.92
-10.93
-12.75
-15.61
-19.39
-23.7
-27.96
-31.7
-34.64
-36.9
-38.92
-41.38
-45.06
-50.53
-57.99
-66.87
-75.76
-82.47
-84.59
-80.26
-68.98
-51.89
-31.56
-11.07
6.88
20.8
30.46
36.6
40.29
42.49
43.82
44.61
45.01
45.14
45.07
44.85
44.51
43.99
43.21
42.11
40.63
38.83
36.87
35.0
33.41
32.16
31.06
29.77
27.89
25.21
21.72
17.68
13.48
9.48
5.88
2.79
0.16
-2.08
-4.01
-5.81
-7.74
-10.12
-13.21
-17.01
-21.26
-25.45
-29.11
-31.95
-34.08
-35.97
-38.27
-41.72
-46.84
-53.73
-61.79
-69.63
-75.17
-76.22
-71.19
-59.81
-43.34
-24.22
-5.28
11.16
23.87
32.72
38.38
41.73
43.55
44.38
44.52
44.22
43.75
43.37
43.29
43.57
44.0
44.19
43.76
42.52
40.59
38.36
36.33
34.76
33.57
32.23
30.07
26.5
21.35
14.98
8.16
1.81
-3.35
-7.06
-9.6
-11.67
-14.01
-17.07
-20.83
-24.83
-28.41
-31.11
-32.86
-34.06
-35.4
-37.67
-41.52
-47.34
-54.99
-63.67
-71.81
-77.22
-77.72
-71.79
-59.31
-41.75
-21.73
-2.23
14.39
26.94
35.46
40.77
43.94
45.8
46.87
47.36
47.36
46.93
46.11
44.99
43.66
42.19
40.7
39.23
37.77
36.27
34.73
33.18
31.65
30.13
28.47
26.4
23.65
20.07
15.72
10.86
5.9
1.27
-2.66
-5.74
-8.03
-9.84
-11.65
-13.94
-17.03
-20.91
-25.25
-29.53
-33.27
-36.23
-38.51
-40.5
-42.68
-45.55
-49.53
-54.93
-61.73
-69.28
-76.16
-80.26
-79.39
-72.07
-58.3
-39.73
-19.17
0.34
16.47
28.23
35.8
40.18
42.47
43.58
44.03
44.07
43.84
43.38
42.71
41.82
40.75
39.57
38.33
37.13
36.05
35.12
34.38
33.79
33.22
32.4
30.96
28.61
25.29
21.27
16.99
12.91
9.29
6.08
3.05
0.02
-2.99
-5.76
-8.05
-9.8
-11.28
-12.98
-15.39
-18.73
-22.78
-26.93
-30.5
-33.06
-34.65
-35.77
-37.29
-40.13
-45.01
-52.16
-61.1
-70.42
-77.96
-81.25
-78.29
-68.35
-52.41
-32.88
-12.94
4.6
18.0
26.9
32.07
34.71
36.01
36.72
37.23
37.64
37.95
38.15
38.28
38.41
38.55
38.63
38.53
38.11
37.35
36.34
35.3
34.38
33.58
32.71
31.42
29.43
26.6
23.0
18.85
14.46
10.15
6.2
2.79
-0.03
-2.45
-4.84
-7.58
-10.89
-14.69
-18.58
-22.04
-24.71
-26.59
-28.08
-29.8
-32.4
-36.33
-41.83
-48.83
-56.85
-64.82
-71.08
-73.57
-70.54
-61.26
-46.42
-28.13
-9.13
8.06
21.92
32.09
39.04
43.53
46.1
46.99
46.37
44.51
41.93
39.31
37.19
35.87
35.25
34.97
34.58
33.78
32.53
31.07
29.74
28.75
27.96
26.91
24.93
21.51
16.55
10.5
4.24
-1.27
-5.38
-7.96
-9.46
-10.67
-12.35
-14.93
-18.32
-22.01
-25.36
-27.87
-29.43
-30.42
-31.55
-33.63
-37.38
-43.26
-51.19
-60.41
-69.29
-75.57
-76.88
-71.57
-59.42
-41.87
-21.69
-1.95
14.86
27.49
35.94
41.06
43.92
45.35
45.89
45.79
45.28
44.54
43.72
42.92
42.15
41.34
40.39
39.15
37.57
35.67
33.56
31.44
29.47
27.67
25.86
23.74
20.97
17.35
12.97
8.13
3.33
-0.95
-4.4
-6.95
-8.78
-10.19
-11.6
-13.3
-15.49
-18.2
-21.24
-24.36
-27.29
-29.85
-32.09
-34.25
-36.73
-40.07
-44.82
-51.38
-59.7
-68.94
-77.34
-82.38
-81.63
-73.64
-58.72
-38.94
-17.57
2.14
17.97
29.17
36.24
40.33
42.55
43.61
43.91
43.69
43.17
42.62
42.18
41.88
41.54
40.94
39.86
38.24
36.18
33.94
31.83
30.14
28.97
28.14
27.27
25.85
23.48
20.01
15.61
10.78
6.13
2.3
-0.33
-1.75
-2.36
-2.84
-3.94
-6.18
-9.64
-13.9
-18.31
-22.17
-25.06
-26.98
-28.36
-29.88
-32.28
-36.15
-41.82
-49.1
-57.12
-64.21
-68.18
-66.92
-59.16
-45.16
-26.74
-6.78
11.68
26.46
36.66
42.59
45.26
45.77
44.91
43.08
40.57
37.63
34.7
32.18
30.36
29.25
28.57
27.92
26.96
25.6
24.02
22.55
21.43
20.55
19.47
17.54
14.26
9.57
3.92
-1.84
-6.8
-10.39
-12.56
-13.85
-15.1
-17.05
-20.05
-23.86
-27.8
-31.14
-33.39
-34.59
-35.25
-36.2
-38.28
-42.14
-48.01
-55.59
-63.78
-70.68
-73.95
-71.44
-62.07
-46.43
-26.79
-6.38
11.78
25.71
35.01
40.44
43.29
44.71
45.32
45.32
44.73
43.63
42.29
40.99
39.93
39.16
38.57
37.93
37.05
35.82
34.28
32.56
30.86
29.25
27.69
25.93
23.65
20.54
16.46
11.55
6.13
0.71
-4.2
-8.21
-11.17
-13.21
-14.76
-16.38
-18.61
-21.75
-25.71
-30.03
-34.08
-37.35
-39.66
-41.26
-42.76
-44.87
-48.21
-53.2
-59.8
-67.29
-74.12
-78.08
-76.86
-68.89
-54.15
-34.46
-12.99
6.83
22.42
32.8
38.51
41.0
41.84
42.13
42.38
42.67
42.92
43.06
43.05
42.86
42.44
41.76
40.72
39.26
37.34
35.01
32.42
29.83
27.55
25.73
24.28
22.82
20.84
17.94
14.04
9.42
4.67
0.39
-3.0
-5.43
-7.19
-8.8
-10.78
-13.5
-17.07
-21.24
-25.51
-29.36
-32.37
-34.51
-36.06
-37.58
-39.73
-43.05
-47.93
-54.39
-61.88
-69.12
-74.11
-74.59
-68.8
-56.33
-38.51
-18.05
1.79
18.44
30.62
38.46
42.98
45.28
46.14
45.91
44.75
42.9
40.81
38.92
37.48
36.48
35.7
34.85
33.82
32.68
31.68
31.0
30.58
30.06
28.86
26.45
22.62
17.6
11.97
6.46
1.65
-2.22
-5.31
-8.07
-11.05
-14.59
-18.77
-23.29
-27.63
-31.32
-34.07
-36.02
-37.7
-39.97
-43.74
-49.59
-57.35
-65.79
-72.73
-75.54
-72.1
-61.64
-45.26
-25.55
-5.7
11.58
24.86
34.07
40.03
43.78
45.99
46.96
46.8
45.66
43.95
42.17
40.73
39.79
39.2
38.6
37.63
36.12
34.12
31.86
29.64
27.6
25.7
23.71
21.28
18.13
14.14
9.37
4.11
-1.17
-5.92
-9.66
-12.14
-13.52
-14.29
-15.12
-16.62
-19.06
-22.3
-25.86
-29.25
-32.07
-34.3
-36.18
-38.24
-41.1
-45.4
-51.56
-59.48
-68.19
-75.79
-79.79
-77.9
-68.92
-53.42
-33.72
-13.1
5.31
19.53
29.14
34.95
38.31
40.37
41.74
42.55
42.82
42.64
42.34
42.21
42.43
42.89
43.28
43.2
42.38
40.79
38.64
36.24
33.89
31.75
29.78
27.75
25.38
22.38
18.63
14.2
9.37
4.6
0.37
-2.95
-5.26
-6.79
-8.04
-9.63
-12.03
-15.35
-19.27
-23.18
-26.46
-28.76
-30.19
-31.28
-32.79
-35.5
-39.98
-46.44
-54.57
-63.36
-71.01
-75.23
-73.82
-65.53
-50.64
-31.11
-9.98
9.56
25.22
36.08
42.56
45.81
47.11
47.34
46.89
45.88
44.39
42.6
40.79
39.18
37.83
36.62
35.25
33.51
31.4
29.13
27.06
25.44
24.18
22.83
20.78
17.5
12.88
7.29
1.41
-4.0
-8.47
-11.93
-14.72
-17.37
-20.3
-23.63
-27.08
-30.23
-32.68
-34.29
-35.33
-36.31
-37.96
-40.96
-45.8
-52.46
-60.25
-67.59
-72.26
-72.03
-65.39
-52.33
-34.48
-14.66
4.13
19.57
30.73
37.85
41.96
44.13
45.11
45.24
44.64
43.42
41.84
40.27
39.02
38.24
37.89
37.73
37.49
36.96
36.1
34.98
33.72
32.39
30.97
29.32
27.28
24.67
21.38
17.36
12.73
7.75
2.83
-1.57
-5.1
-7.66
-9.51
-11.13
-13.07
-15.74
-19.17
-23.1
-27.02
-30.49
-33.27
-35.44
-37.34
-39.43
-42.21
-46.14
-51.62
-58.76
-67.06
-75.1
-80.59
-80.95
-74.28
-60.27
-40.64
-18.61
2.18
18.94
30.52
37.35
40.83
42.49
43.34
43.82
43.99
43.85
43.48
43.04
42.62
42.21
41.71
41.0
40.01
38.78
37.44
36.08
34.77
33.45
31.99
30.17
27.78
24.68
20.82
16.31
11.36
6.32
1.58
-2.51
-5.75
-8.14
-9.88
-11.34
-12.98
-15.15
-18.0
-21.4
-24.93
-28.13
-30.6
-32.23
-33.24
-34.11
-35.47
-37.98
-42.18
-48.35
-56.17
-64.42
-71.02
-73.41
-69.41
-58.14
-40.62
-19.5
1.74
20.07
33.7
42.4
47.07
48.99
49.26
48.47
46.87
44.59
41.91
39.23
36.98
35.45
34.65
34.31
33.97
33.19
31.77
29.78
27.59
25.58
23.92
22.45
20.69
18.04
14.18
9.17
3.54
-1.92
-6.39
-9.39
-10.87
-11.27
-11.38
-12.05
-13.85
-16.89
-20.74
-24.65
-27.92
-30.22
-31.71
-33.02
-34.9
-38.07
-42.98
-49.71
-57.79
-66.01
-72.42
-74.65
-70.64
-59.52
-42.23
-21.34
-0.29
17.81
31.12
39.39
43.6
45.17
45.38
44.94
44.16
43.11
41.9
40.7
39.67
38.84
38.09
37.22
35.99
34.35
32.44
30.53
28.93
27.75
26.83
25.78
24.17
21.71
18.43
14.62
10.67
6.93
3.54
0.5
-2.29
-4.9
-7.34
-9.53
-11.45
-13.2
-15.02
-17.22
-20.01
-23.39
-27.04
-30.5
-33.34
-35.35
-36.68
-37.73
-39.03
-41.15
-44.62
-49.74
-56.35
-63.51
-69.37
-71.52
-67.76
-57.13
-40.47
-20.37
-0.27
16.77
29.0
36.32
39.82
40.92
40.78
39.98
38.67
36.91
34.89
32.95
31.45
30.63
30.46
30.74
31.14
31.39
31.35
31.03
30.57
30.11
29.65
29.02
27.86
25.73
22.33
17.65
12.08
6.29
1.06
-3.03
-5.81
-7.6
-9.1
-11.04
-13.9
-17.71
-22.0
-26.03
-29.17
-31.07
-31.88
-32.17
-32.69
-34.21
-37.37
-42.51
-49.5
-57.43
-64.54
-68.46
-66.89
-58.53
-43.77
-24.72
-4.55
13.68
27.9
37.55
43.25
46.09
47.01
46.5
44.71
41.83
38.28
34.76
31.99
30.47
30.26
30.98
31.98
32.6
32.42
31.42
29.86
28.09
26.32
24.46
22.18
19.08
14.94
9.84
4.2
-1.35
-6.14
-9.7
-11.88
-13.0
-13.66
-14.61
-16.5
-19.55
-23.51
-27.74
-31.5
-34.26
-35.95
-37.0
-38.15
-40.24
-43.98
-49.77
-57.47
-66.1
-73.81
-78.09
-76.48
-67.55
-51.65
-30.99
-8.98
10.92
26.4
36.78
42.79
45.81
47.14
47.53
47.27
46.4
45.0
43.29
41.51
39.85
38.39
37.1
35.93
34.82
33.78
32.84
32.02
31.29
30.5
29.43
27.81
25.44
22.21
18.2
13.61
8.67
3.7
-1.0
-5.11
-8.41
-10.81
-12.49
-13.8
-15.27
-17.35
-20.27
-23.9
-27.8
-31.45
-34.46
-36.79
-38.71
-40.78
-43.58
-47.66
-53.32
-60.52
-68.56
-75.94
-80.41
-79.56
-71.7
-56.71
-36.38
-13.9
7.13
23.98
35.44
41.9
44.7
45.34
44.93
44.0
42.78
41.38
39.99
38.85
38.08
37.64
37.34
36.89
36.05
34.78
33.26
31.8
30.71
30.06
29.6
28.78
26.99
23.83
19.34
14.01
8.67
4.07
0.64
-1.76
-3.77
-6.19
-9.61
-14.12
-19.22
-24.12
-28.06
-30.64
-32.01
-32.73
-33.62
-35.48
-38.97
-44.39
-51.49
-59.18
-65.55
-68.22
-65.04
-55.02
-38.86
-18.89
1.69
19.89
33.82
43.04
48.21
50.44
50.66
49.37
46.77
43.08
38.78
34.56
31.1
28.81
27.69
27.38
27.34
27.22
26.88
26.47
26.14
25.94
25.57
24.56
22.38
18.71
13.61
7.6
1.46
-3.96
-8.06
-10.7
-12.2
-13.31
-14.85
-17.43
-21.2
-25.82
-30.6
-34.8
-37.95
-40.01
-41.39
-42.75
-44.85
-48.37
-53.71
-60.75
-68.52
-75.19
-78.32
-75.58
-65.78
-49.43
-28.84
-7.3
11.99
26.96
37.04
42.89
45.72
46.66
46.46
45.54
44.15
42.6
41.2
40.2
39.68
39.58
39.65
39.61
39.19
38.23
36.74
34.9
32.96
31.12
29.33
27.31
24.65
21.03
16.34
10.81
4.94
-0.64
-5.36
-8.92
-11.39
-13.15
-14.74
-16.72
-19.39
-22.82
-26.68
-30.48
-33.66
-35.85
-37.02
-37.5
-37.95
-39.17
-41.93
-46.69
-53.24
-60.49
-66.46
-68.69
-65.08
-54.72
-38.43
-18.64
1.47
18.95
32.03
40.34
44.63
46.1
45.82
44.52
42.67
40.63
38.79
37.44
36.71
36.48
36.44
36.27
35.77
34.92
33.85
32.77
31.71
30.57
29.02
26.65
23.13
18.41
12.86
7.01
1.48
-3.38
-7.55
-11.29
-14.93
-18.64
-22.35
-25.76
-28.59
-30.68
-32.18
-33.49
-35.14
-37.75
-41.81
-47.5
-54.33
-60.97
-65.33
-65.15
-58.84
-46.28
-29.08
-10.11
7.49
21.42
30.78
36.03
38.41
39.13
38.99
38.27
37.02
35.32
33.44
31.75
30.57
29.98
29.86
29.88
29.73
29.21
28.38
27.48
26.76
26.31
25.83
24.73
22.34
18.25
12.59
6.06
-0.27
-5.38
-8.71
-10.36
-11.08
-11.84
-13.5
-16.39
-20.29
-24.51
-28.26
-30.99
-32.63
-33.61
-34.69
-36.8
-40.7
-46.75
-54.62
-63.11
-70.16
-73.29
-70.36
-60.42
-44.25
-24.2
-3.56
14.63
28.41
37.28
41.97
43.77
43.91
43.25
42.25
41.16
40.21
39.61
39.45
39.67
39.98
39.92
39.08
37.23
34.46
31.16
27.85
24.98
22.66
20.6
18.2
14.85
10.23
4.56
-1.47
-6.93
-11.1
-13.72
-15.18
-16.27
-17.85
-20.47
-24.09
-28.2
-32.0
-34.88
-36.63
-37.64
-38.65
-40.56
-44.13
-49.77
-57.39
-66.24
-74.83
-81.05
-82.61
-77.78
-66.15
-48.98
-28.95
-9.25
7.45
19.8
27.93
32.94
36.14
38.34
39.76
40.21
39.59
38.11
36.28
34.64
33.49
32.77
32.11
31.15
29.78
28.11
26.44
24.95
23.51
21.74
19.15
15.45
10.76
5.55
0.51
-3.85
-7.37
-10.29
-13.17
-16.58
-20.81
-25.81
-31.17
-36.43
-41.21
-45.44
-49.4
-53.57
-58.55
-64.88
-72.68
-81.41
-89.56
-94.78
-94.42
-86.45
-70.42
-47.89
-22.04
3.31
24.98
41.29
52.15
58.6
61.93
63.12
62.66
60.86
58.08
54.93
52.16
50.32
49.62
49.82
50.35
50.62
50.2
49.01
47.31
45.49
43.87
42.46
40.97
38.85
35.64
31.1
25.43
19.18
13.08
7.8
3.78
1.03
-0.84
-2.5
-4.69
-7.95
-12.38
-17.56
-22.74
-27.17
-30.47
-32.77
-34.7
-37.13
-40.86
-46.45
-54.04
-63.14
-72.48
-80.06
-83.46
-80.64
-70.77
-54.78
-35.1
-14.93
2.9
16.84
26.79
33.66
38.65
42.58
45.73
48.1
49.66
50.56
51.11
51.51
51.73
51.57
50.78
49.21
47.0
44.46
42.05
40.06
38.51
37.11
35.35
32.73
29.01
24.35
19.3
14.57
10.71
7.84
5.58
3.19
-0.06
-4.57
-10.16
-16.15
-21.67
