36.76
41.74
44.03
44.41
43.44
41.5
39.02
36.53
34.51
33.28
32.86
32.96
33.14
33.02
32.45
31.55
30.64
29.95
29.49
28.88
27.57
25.03
21.06
15.92
10.28
5.0
0.71
-2.32
-4.35
-5.99
-7.89
-10.48
-13.77
-17.43
-20.98
-24.08
-26.64
-28.9
-31.32
-34.47
-38.85
-44.67
-51.6
-58.58
-63.87
-65.45
-61.67
-51.98
-37.26
-19.63
-1.81
13.79
25.73
33.74
38.42
40.68
41.29
40.75
39.29
37.12
34.55
32.06
30.07
28.82
28.28
28.12
27.99
27.6
26.94
26.19
25.55
25.04
24.41
23.16
20.79
17.01
12.01
6.35
0.89
-3.66
-6.95
-9.13
-10.74
-12.53
-15.07
-18.53
-22.66
-26.95
-30.79
-33.83
-36.05
-37.87
-39.99
-43.25
-48.33
-55.35
-63.61
-71.48
-76.67
-76.99
-71.04
-58.86
-41.97
-22.92
-4.42
11.41
23.54
31.93
37.23
40.26
41.78
42.3
42.17
41.64
40.94
40.21
39.56
39.1
38.85
38.79
38.81
38.78
38.55
38.03
37.2
36.01
34.44
32.37
29.71
26.38
22.41
17.96
13.33
8.81
4.7
1.15
-1.81
-4.29
-6.49
-8.67
-11.13
-14.12
-17.74
-21.87
-26.16
-30.18
-33.54
-36.17
-38.28
-40.37
-43.07
-46.95
-52.38
-59.32
-67.07
-74.22
-78.73
-78.55
-72.32
-60.05
-43.24
-24.45
-6.38
8.96
20.71
29.03
34.66
38.39
40.74
42.05
42.58
42.61
42.43
42.24
42.09
41.89
41.51
40.85
39.94
38.89
37.85
36.93
36.15
35.39
34.45
33.11
31.22
28.71
25.62
22.06
18.17
14.12
10.09
6.28
2.85
-0.09
-2.54
-4.71
-6.89
-9.46
-12.65
-16.46
-20.67
-24.89
-28.71
-31.91
-34.55
-36.92
-39.49
-42.8
-47.35
-53.41
-60.76
-68.42
-74.69
-77.41
-74.71
-65.69
-50.9
-32.28
-12.55
5.7
20.7
31.79
39.24
43.78
46.14
46.89
46.43
45.11
43.37
41.64
40.24
39.28
38.63
38.0
37.13
35.92
34.54
33.31
32.54
32.31
32.35
32.07
30.82
28.13
23.96
18.72
13.16
8.04
3.84
0.63
-2.0
-4.68
-7.96
-12.1
-16.99
-22.13
-26.92
-30.84
-33.74
-35.89
-37.94
-40.7
-44.89
-50.91
-58.48
-66.5
-73.14
-76.23
-73.92
-65.33
-51.04
-32.89
-13.55
4.37
18.99
29.53
36.24
39.95
41.65
42.12
41.84
41.04
39.89
38.56
37.28
36.24
35.56
35.2
35.01
34.82
34.49
34.02
33.44
32.8
32.01
30.89
29.18
26.71
23.45
19.61
15.55
11.69
8.23
5.24
2.57
0.01
-2.55
-5.09
-7.53
-9.8
-12.0
-14.37
-17.22
-20.71
-24.78
-29.11
-33.29
-36.93
-39.92
-42.4
-44.87
-47.9
-52.14
-57.95
-65.2
-73.0
-79.64
-82.99
-81.05
-72.77
-58.51
-40.07
-20.15
-1.44
14.14
25.81
33.8
38.91
42.03
43.84
44.85
45.44
45.95
46.61
47.46
48.31
48.88
48.91
48.31
47.2
45.85
44.56
43.51
42.65
41.77
40.52
38.6
35.83
32.28
28.18
23.94
19.95
16.52
13.72
11.44
9.39
7.27
4.9
2.29
-0.35
-2.77
-4.82
-6.57
-8.29
-10.36
-13.08
-16.5
-20.46
-24.64
-28.74
-32.71
-36.71
-41.13
-46.49
-53.24
-61.57
-71.06
-80.53
-88.05
-91.34
-88.52
-78.83
-63.09
-43.56
-23.2
-4.72
10.17
20.96
28.16
32.69
35.41
36.91
37.5
37.43
36.99
36.54
36.39
36.73
37.46
38.27
38.76
38.61
37.73
36.36
34.89
33.66
32.72
31.73
30.14
27.38
23.26
18.07
12.55
7.59
3.86
1.44
-0.18
-1.92
-4.67
-8.88
-14.32
-20.24
-25.7
-29.98
-32.92
-34.87
-36.53
-38.66
-41.93
-46.75
-53.11
-60.43
-67.34
-71.94
-72.17
-66.6
-55.02
-38.65
-19.84
-1.26
14.89
27.42
36.2
41.84
45.16
46.89
47.47
47.17
46.19
44.74
43.08
41.41
39.92
38.67
37.7
36.99
36.53
36.31
36.24
36.16
35.79
34.88
33.18
30.6
27.19
23.14
18.7
14.12
9.61
5.3
1.29
-2.35
-5.56
-8.26
-10.42
-12.08
-13.46
-14.92
-16.86
-19.52
-22.96
-26.93
-30.99
-34.69
-37.72
-40.03
-41.91
-43.86
-46.62
-50.87
-57.04
-64.82
-73.0
-79.47
-81.8
-78.08
-67.63
-51.46
-31.96
-12.08
5.6
19.51
29.3
35.44
38.83
40.38
40.82
40.76
40.65
40.82
41.31
41.96
42.45
42.46
41.77
40.39
38.53
36.54
34.76
33.41
32.49
31.73
30.73
29.08
26.58
23.31
19.66
16.03
12.76
9.9
7.28
4.67
1.93
-0.9
-3.61
-6.02
-8.07
-9.89
-11.79
-14.07
-16.84
-20.01
-23.25
-26.19
-28.59
-30.48
-32.1
-33.87
-36.27
-39.78
-44.78
-51.3
-58.79
-65.92
-70.69
-70.96
-65.22
-53.3
-36.54
-17.52
0.92
16.53
28.19
35.86
40.27
42.29
42.7
42.04
40.73
39.16
37.73
36.75
36.33
36.41
36.76
37.06
37.08
36.72
36.03
35.13
34.1
32.86
31.15
28.54
24.67
19.41
13.03
6.17
-0.37
-5.85
-9.9
-12.54
-14.24
-15.62
-17.25
-19.44
-22.21
-25.29
-28.28
-30.91
-33.09
-35.04
-37.21
-40.2
-44.59
-50.59
-57.82
-65.07
-70.44
-71.81
-67.5
-57.04
-41.46
-23.09
-4.8
10.91
22.63
30.21
34.42
36.38
37.06
37.07
36.7
36.12
35.46
34.84
34.32
33.86
33.38
32.78
32.05
31.26
30.53
29.89
29.32
28.68
27.76
26.36
24.32
21.6
18.29
14.57
10.7
6.93
3.47
0.43
-2.15
-4.28
-6.05
-7.61
-9.19
-11.05
-13.47
-16.57
-20.27
-24.24
-28.05
-31.28
-33.78
-35.72
-37.58
-40.03
-43.69
-49.06
-56.14
-64.25
-71.94
-77.14
-77.7
-72.12
-60.26
-43.48
-24.3
-5.59
10.35
22.32
30.28
35.02
37.57
38.86
39.52
39.97
40.45
41.08
41.86
42.6
43.06
43.02
42.38
41.25
39.87
38.57
37.56
36.9
36.43
35.8
34.66
32.75
30.04
26.73
23.12
19.49
16.02
12.69
9.36
5.94
2.44
-0.97
-4.07
-6.67
-8.81
-10.7
-12.72
-15.2
-18.25
-21.75
-25.34
-28.63
-31.39
-33.62
-35.62
-37.89
-40.95
-45.26
-50.97
-57.72
-64.48
-69.61
-71.21
-67.7
-58.51
-44.4
-27.37
-9.99
5.42
17.45
25.82
31.11
34.26
36.04
36.91
37.04
36.59
35.79
34.99
34.52
34.53
34.92
35.38
35.57
35.29
34.62
33.82
33.17
32.73
32.2
31.05
28.69
24.85
19.73
13.94
8.32
3.55
-0.07
-2.7
-4.82
-6.98
-9.57
-12.71
-16.29
-20.01
-23.56
-26.71
-29.44
-31.9
-34.48
-37.7
-42.18
-48.25
-55.73
-63.55
-69.89
-72.53
-69.66
-60.57
-46.08
-28.29
-9.91
6.64
19.87
29.36
35.56
39.25
41.19
41.91
41.78
41.06
40.05
38.97
38.03
37.39
37.12
37.2
37.5
37.8
37.86
37.5
36.64
35.31
33.56
31.38
28.71
25.43
21.5
16.96
11.96
6.75
1.62
-3.08
-7.04
-10.02
-11.97
-13.11
-13.94
-15.05
-16.9
-19.65
-23.06
-26.66
-29.98
-32.74
-34.96
-36.9
-38.95
-41.59
-45.29
-50.44
-57.05
-64.41
-70.95
-74.46
-72.84
-64.94
-51.17
-33.49
-14.71
2.46
16.25
26.12
32.55
36.45
38.69
39.91
40.5
40.72
40.78
40.78
40.7
40.41
39.7
38.44
36.66
34.56
32.47
30.73
29.51
28.79
28.29
27.62
26.42
24.49
21.9
18.88
15.73
12.69
9.79
6.97
4.07
0.99
-2.21
-5.38
-8.27
-10.7
-12.65
-14.3
-15.97
-17.95
-20.4
-23.26
-26.31
-29.24
-31.85
-34.08
-36.15
-38.45
-41.49
-45.77
-51.5
-58.28
-64.97
-69.72
-70.47
-65.68
-55.01
-39.58
-21.67
-3.95
11.41
23.25
31.46
36.67
39.66
41.11
41.43
40.94
40.01
39.05
38.46
38.43
38.88
39.49
39.82
39.47
38.27
36.35
34.03
31.68
29.57
27.66
25.68
23.21
19.95
15.86
11.2
6.46
2.16
-1.35
-4.03
-6.14
-8.16
-10.55
-13.6
-17.26
-21.22
-25.02
-28.27
-30.88
-33.06
-35.27
-38.09
-42.06
-47.52
-54.42
-62.09
-69.21
-73.95
-74.4
-69.25
-58.4
-43.08
-25.52
-8.19
6.94
18.9
27.67
33.83
38.06
40.88
42.57
43.28
43.25
42.83
42.36
42.11
42.14
42.35
42.46
42.27
41.7
40.84
39.83
38.8
37.65
36.15
33.95
30.81
26.78
22.16
17.47
13.22
9.64
6.7
4.04
1.31
-1.74
-5.1
-8.53
-11.72
-14.5
-16.92
-19.26
-21.91
-25.16
-29.06
-33.41
-37.82
-41.89
-45.34
-48.19
-50.69
-53.31
-56.6
-61.11
-67.25
-74.93
-83.43
-91.2
-96.16
-96.3
-90.4
-78.62
-62.48
-44.4
-26.84
-11.63
0.46
9.53
16.17
21.08
24.87
28.08
31.16
34.47
38.06
41.66
44.69
46.55
46.82
45.53
43.1
40.27
37.78
36.18
35.67
36.07
36.95
37.76
38.0
37.32
35.64
33.07
29.87
26.33
22.59
18.73
14.71
10.59
6.54
2.83
-0.27
-2.69
-4.62
-6.48
-8.75
-11.71
-15.36
-19.39
-23.39
-27.04
-30.22
-33.15
-36.22
-39.93
-44.72
-50.84
-58.2
-66.17
-73.51
-78.51
-79.4
-74.93
-64.87
-50.25
-33.09
-15.83
-0.55
11.44
19.88
25.26
28.47
30.38
31.67
32.65
33.45
34.04
34.37
34.41
34.18
33.72
33.08
32.39
31.74
31.28
31.07
31.08
31.11
30.83
29.84
27.83
24.7
20.54
15.67
10.43
5.18
0.14
-4.55
-8.86
-12.78
-16.28
-19.4
-22.27
-25.13
-28.33
-32.2
-36.89
-42.34
-48.23
-54.07
-59.39
-63.8
-67.12
-69.43
-70.99
-72.33
-73.92
-75.97
-78.1
-79.19
-77.63
-71.83
-60.94
-45.34
-26.63
-7.14
10.87
25.92
37.51
46.03
52.3
57.11
61.01
64.24
66.94
69.2
71.16
72.92
74.51
75.84
76.74
76.98
76.47
75.24
73.48
71.46
69.4
67.35
65.2
62.73
59.76
56.24
52.28
48.11
43.97
40.06
36.39
32.85
29.26
25.43
21.3
16.99
12.72
8.76
5.2
1.88
-1.56
-5.53
-10.23
-15.53
-20.99
-26.13
-30.62
-34.47
-38.04
-41.93
-46.77
-53.13
-61.22
-70.75
-80.7
-89.35
-94.67
-94.85
-88.94
-77.28
-61.4
-43.53
-25.84
-9.97
3.29
13.83
21.96
28.12
32.73
36.17
38.77
40.82
42.55
44.11
45.56
46.87
47.98
48.81
49.28
49.38
49.12
48.54
47.72
46.66
45.29
43.51
41.17
38.17
34.47
30.17
25.48
20.71
16.23
12.32
9.11
6.55
4.37
2.17
-0.46
-3.74
-7.65
-11.94
-16.2
-20.05
-23.34
-26.19
-29.01
-32.38
-36.88
-42.9
-50.48
-59.08
-67.51
-74.03
-76.78
-74.3
-66.14
-53.09
-36.97
-20.05
-4.4
8.62
18.53
25.55
30.23
33.17
34.84
35.56
35.62
35.36
35.1
35.2
35.87
37.15
38.91
40.84
42.63
44.03
44.99
45.51
45.68
45.51
44.85
43.49
41.26
38.13
34.29
30.05
25.8
21.81
18.16
14.78
11.52
8.27
5.05
1.93
-1.02
-3.88
-6.92
-10.43
-14.66
-19.58
-24.94
-30.27
-35.16
-39.41
-43.14
-46.79
-51.04
-56.52
-63.61
-72.1
-81.09
-88.93
-93.67
-93.56
-87.64
-76.09
-60.22
-42.09
-23.88
-7.38
6.26
16.66
23.95
28.68
31.59
33.43
34.88
36.35
38.0
39.7
41.24
42.43
43.18
43.56
43.71
43.81
44.01
44.39
44.93
45.44
45.63
45.18
43.84
41.52
38.37
34.74
30.98
27.36
23.96
20.71
17.48
14.16
10.8
7.54
4.58
2.06
-0.03
-1.89
-3.87
-6.37
-9.67
-13.87
-18.78
-23.97
-28.94
-33.3
-36.94
-40.1
-43.36
-47.49
-53.13
-60.52
-69.18
-77.83
-84.55
-87.31
-84.56
-75.8
-61.8
-44.41
-25.97
-8.66
6.02
17.39
25.47
30.74
33.84
35.43
36.1
36.36
36.56
36.9
37.36
37.85
38.21
38.33
38.18
37.86
37.46
37.12
36.88
36.67
36.36
35.78
34.77
33.19
30.99
28.15
24.75
20.97
17.08
13.38
10.09
7.32
4.94
2.69
0.25
-2.59
-5.88
-9.44
-13.03
-16.4
-19.44
-22.2
-24.9
-27.89
-31.57
-36.32
-42.46
-50.02
-58.56
-67.07
-73.98
-77.5
-76.16
-69.3
-57.38
-41.9
-24.95
-8.61
5.58
16.85
25.11
30.75
34.33
36.4
37.35
37.51
37.1
36.4
35.69
35.28
35.42
36.2
37.51
39.06
40.51
41.52
41.92
41.63
40.67
39.01
36.63
33.46
29.5
24.87
19.79
14.62
9.76
5.53
2.03
-0.84
-3.39
-6.01
-9.0
-12.44
-16.21
-20.07
-23.79
-27.24
-30.44
-33.56
-36.82
-40.54
-45.13
-50.99
-58.35
-66.92
-75.74
-83.19
-87.36
-86.58
-80.06
-68.2
-52.47
-35.03
-18.05
-3.18
8.7
17.45
23.5
27.51
30.18
32.1
33.66
35.04
36.26
37.27
38.01
38.52
38.85
39.12
39.41
39.79
40.36
41.17
42.17
43.17
43.81
43.62
42.27
39.67
36.04
31.82
27.5
23.4
19.64
16.14
12.81
9.59
6.57
3.88
1.58
-0.43
-2.42
-4.79
-7.86
-11.76
-16.4
-21.44
-26.43
-31.02
-35.06
-38.7
-42.37
-46.7
-52.3
-59.45
-67.87
-76.56
-83.83
-87.77
-86.75
-80.06
-68.2
-52.76
-35.97
-19.99
-6.39
4.14
11.72
16.9
20.41
22.87
24.73
26.32
27.88
29.58
31.5
33.59
35.68
37.54
39.0
39.99
40.56
40.86
41.0
41.02
40.87
40.38
39.37
37.7
35.28
32.09
28.24
23.93
19.46
15.21
11.48
8.45
6.05
3.96
1.74
-1.01
-4.46
-8.45
-12.6
-16.46
-19.74
-22.51
-25.13
-28.15
-32.16
-37.55
-44.42
-52.4
-60.62
-67.71
-72.0
-71.94
-66.62
-56.08
-41.47
-24.74
-8.06
6.72
18.53
27.12
32.86
36.39
38.31
39.05
38.92
38.18
37.11
36.06
35.35
35.2
35.65
36.6
37.82
39.06
40.01
40.49
40.32
39.45
37.88
35.65
32.8
29.32
25.24
20.67
15.84
11.04
6.6
2.75
-0.42
-3.04
-5.37
-7.75
-10.47
-13.73
-17.54
-21.76
-26.15
-30.46
-34.54
-38.32
-41.9
-45.47
-49.33
-53.87
-59.43
-66.12
-73.47
-80.38
-85.12
-85.9
-81.39
-71.31
-56.67
-39.44
-21.91
-6.05
6.94
16.72
23.5
27.81
30.2
31.23
31.49
31.55
31.94
32.92
34.49
36.34
38.08
39.37
40.11
40.41
40.52
40.67
40.91
41.11
41.02
40.32
38.84
36.6
33.75
30.55
27.24
23.99
20.87
17.9
15.03
12.25
9.58
7.05
4.75
2.7
0.82
-1.09
-3.32
-6.23
-10.01
-14.6
-19.71
-24.82
-29.46
-33.37
-36.62
-39.57
-42.79
-46.93
-52.44
-59.4
-67.25
-74.8
-80.33
-82.01
-78.5
-69.45
-55.69
-39.07
-21.83
-6.02
7.07
17.01
24.14
29.17
32.87
35.76
38.14
40.05
41.47
42.36
42.8
42.9
42.81
42.6
42.31
41.9
41.38
40.82
40.31
39.89
39.5
38.9
37.8
35.93
33.23
29.86
26.15
22.48
19.06
15.92
12.86
9.67
6.24
2.66
-0.76
-3.69
-5.94
-7.57
-8.93
-10.51
-12.75
-15.82
-19.63
-23.84
-28.05
-31.98
-35.54
-38.88
-42.33
-46.27
-51.13
-57.16
-64.31
-71.94
-78.77
-83.04
-83.05
-77.7
-67.07
-52.42
-35.83
-19.52
-5.22
6.21
14.64
20.48
24.27
26.57
27.87
28.56
29.01
29.46
29.99
30.63
31.29
31.95
32.58
33.18
33.75
34.27
34.71
35.06
35.26
35.16
34.54
33.16
30.81
27.5
23.45
19.05
14.79
11.04
8.01
5.64
3.64
1.54
-1.06
-4.39
-8.38
-12.71
-16.88
-20.5
-23.47
-26.01
-28.73
-32.38
-37.64
-44.83
-53.64
-63.05
-71.36
-76.6
-77.08
-71.89
-61.32
-46.73
-30.15
-13.74
0.85
12.71
21.64
27.95
32.12
34.67
36.0
36.51
36.5
36.28
36.05
35.97
36.1
36.47
37.1
38.04
39.26
40.64
41.93
42.83
43.0
42.28
40.6
38.04
34.72
30.82
26.47
21.89
17.26
12.82
8.76
5.21
2.25
-0.18
-2.22
-4.11
-6.17
-8.74
-12.04
-16.07
-20.64
-25.4
-30.09
-34.64
-39.15
-43.88
-49.14
-55.24
-62.32
-70.35
-78.76
-86.42
-91.64
-92.65
-88.18
-78.02
-63.24
-45.83
-28.12
-12.03
1.36
11.83
19.76
25.74
30.35
33.99
37.01
39.64
42.02
44.18
46.03
47.44
48.31
48.65
48.57
48.26
47.92
47.7
47.6
47.48
47.1
46.11
44.25
41.41
37.69
33.43
29.07
25.03
21.51
18.47
15.62
12.64
9.3
5.67
2.04
-1.23
-3.91
-6.1
-8.17
-10.63
-13.88
-18.01
-22.8
-27.8
-32.56
-36.84
-40.66
-44.34
-48.37
-53.31
-59.54
-67.09
-75.35
-83.02
-88.34
-89.47
-85.15
-75.19
-60.63
-43.43
-25.91
-10.08
2.8
12.37
18.96
23.27
26.06
28.02
29.65
31.28
33.03
34.89
36.69
38.22
39.34
39.99
40.3
40.43
40.6
40.91
41.32
41.64
41.64
41.08
39.85
37.93
35.43
32.52
29.37
26.13
22.92
19.8
16.8
13.91
11.1
8.35
5.63
2.86
-0.07
-3.29
-6.88
-10.8
-14.88
-18.88
-22.63
-26.11
-29.46
-32.99
-37.08
-42.13
-48.41
-55.88
-64.03
-71.69
-77.19
-78.73
-74.99
-65.66
-51.7
-35.01
-17.89
-2.34
10.49
20.28
27.34
32.23
35.43
37.3
38.06
37.96
37.34
36.59
36.05
35.95
36.33
37.12
38.17
39.31
40.4
41.24
41.62
41.32
40.12
37.89
34.72
30.89
26.77
22.75
19.08
15.8
12.82
9.96
7.09
4.17
1.27
-1.48
-4.04
-6.44
-8.87
-11.54
-14.66
-18.35
-22.54
-27.08
-31.71
-36.15
-40.25
-44.01
-47.75
-52.04
-57.48
-64.37
-72.3
-79.98
-85.46
-86.73
-82.42
-72.38
-57.73
-40.57
-23.2
-7.55
5.27
14.97
21.85
26.56
29.81
32.22
34.25
36.22
38.23
40.21
42.04
43.51
44.52
45.02
45.12
45.02
44.99
45.28
45.96
46.85
47.51
47.38
46.03
43.34
39.56
35.23
30.89
26.91
23.35
20.01
16.65
13.14
9.57
6.18
3.16
0.61
-1.66
-3.97
-6.69
-10.07
-14.14
-18.75
-23.56
-28.23
-32.55
-36.51
-40.35
-44.5
-49.47
-55.7
-63.34
-72.02
-80.71
-87.77
-91.34
-89.87
-82.72
-70.4
-54.52
-37.29
-20.83
-6.64
4.6
12.98
19.06
23.51
26.96
29.87
32.55
35.17
37.78
40.34
42.69
44.67
46.09
46.89
47.14
47.01
46.72
46.41
46.07
45.52
44.55
42.95
40.71
37.94
34.86
31.63
28.27
24.7
20.85
16.73
12.53
8.54
5.0
1.95
-0.75
-3.44
-6.38
-9.69
-13.3
-16.96
-20.41
-23.52
-26.31
-29.03
-32.04
-35.81
-40.74
-47.07
-54.68
-62.91
-70.46
-75.66
-76.8
-72.75
-63.32
-49.47
-33.01
-16.12
-0.71
12.01
21.66
28.5
33.1
36.01
37.64
38.25
37.99
37.13
35.98
34.93
34.25
34.05
34.22
34.51
34.68
34.58
34.22
33.69
33.0
32.08
30.69
28.59
25.62
21.82
17.48
13.04
8.91
5.45
2.77
0.76
-0.93
-2.79
-5.22
-8.46
-12.42
-16.76
-21.06
-25.01
-28.59
-32.07
-35.83
-40.28
-45.76
-52.41
-60.2
-68.65
-76.76
-82.99
-85.57
-83.01
-74.76
-61.52
-45.13
-27.98
-12.25
0.72
10.58
17.81
23.26
27.71
31.69
35.45
38.99
42.25
45.12
47.5
49.36
50.67
51.49
51.84
51.79
51.37
50.6
49.51
48.15
46.54
44.69
42.5
39.87
36.68
32.92
28.7
24.25
19.82
15.62
11.81
8.39
5.33
2.55
-0.05
-2.64
-5.46
-8.79
-12.86
-17.68
-23.03
-28.52
-33.69
-38.25
-42.18
-45.76
-49.53
-54.06
-59.83
-66.87
-74.6
-81.78
-86.68
-87.52
-83.13
-73.34
-59.21
-42.72
-26.11
-11.29
0.68
9.65
16.14
21.01
24.99
28.54
31.8
34.77
37.34
39.54
41.45
43.16
44.67
45.9
46.67
46.89
46.59
45.91
45.08
44.25
43.35
42.19
40.48
37.97
34.6
30.49
25.94
21.32
16.97
13.11
9.8
6.93
4.29
1.6
-1.39
-4.84
-8.72
-12.84
-16.87
-20.46
-23.41
-25.8
-27.94
-30.41
-33.82
-38.68
-45.18
-53.0
-61.18
-68.28
-72.55
-72.46
-67.19
-56.96
-43.06
-27.42
-12.14
1.19
11.73
19.4
24.58
27.78
29.49
30.06
29.82
29.14
28.41
28.04
28.28
29.2
30.58
32.13
33.48
34.4
34.83
34.86
34.61
34.09
33.16
31.49
28.84
25.08
20.43
15.36
10.41
6.03
2.38
-0.67
-3.49
-6.45
-9.81
-13.52
-17.37
-21.08
-24.45
-27.51
-30.5
-33.8
-37.82
-42.97
-49.55
-57.66
-66.91
-76.25
-83.99
-88.14
-87.05
-80.07
-67.78
-51.92
-34.77
-18.39
-4.2
7.25
16.07
22.74
27.84
31.87
35.24
38.15
40.67
42.73
44.21
45.07
45.33
45.16
44.77
44.4
44.21
44.3
44.64
45.05
45.21
44.74
43.34
40.98
37.84
34.3
30.72
27.26
23.94
20.64
17.25
13.77
10.33
7.08
4.13
1.44
-1.12
-3.8
-6.8
-10.28
-14.26
-18.64
-23.23
-27.84
-32.35
-36.77
-41.29
-46.3
-52.21
-59.29
-67.3
-75.39
-82.07
-85.56
-84.37
-77.77
-66.19
-51.09
-34.54
-18.56
-4.66
6.45
14.77
20.76
25.04
28.17
30.54
32.4
33.86
35.0
35.89
36.63
37.26
37.8
38.2
38.38
38.35
38.2
38.11
38.21
38.48
38.65
38.27
36.93
34.37
30.71
26.34
21.84
17.73
14.31
11.57
9.26
6.97
4.33
1.14
-2.56
-6.55
-10.47
-14.1
-17.35
-20.42
-23.68
-27.64
-32.73
-39.24
-47.09
-55.74
-64.13
-70.76
-74.0
-72.58
-66.01
-54.88
-40.67
-25.32
-10.64
2.16
12.57
20.63
26.6
30.72
33.12
33.93
33.42
32.07
30.54
29.49
29.34
30.23
31.92
33.96
35.88
37.33
38.2
38.62
38.78
38.79
38.53
37.69
35.92
33.01
29.05
24.39
19.57
15.05
11.12
7.74
4.71
1.68
-1.62
-5.37
-9.57
-14.11
-18.81
-23.48
-27.98
-32.24
-36.31
-40.37
-44.71
-49.73
-55.8
-63.01
-70.98
-78.64
-84.36
-86.33
-83.14
-74.39
-60.85
-44.37
-27.23
-11.49
1.51
11.39
18.45
23.41
26.94
29.57
31.59
33.19
34.5
35.6
36.56
37.4
38.09
38.59
38.88
38.96
38.83
38.55
38.2
37.84
37.47
36.94
35.99
34.34
31.77
28.25
24.01
19.43
14.95
10.89
7.44
4.55
2.01
-0.5
-3.33
-6.68
-10.57
-14.74
-18.84
-22.53
-25.69
-28.5
-31.35
-34.77
-39.22
-45.03
-52.21
-60.35
-68.49
-75.18
-78.76
-77.8
-71.62
-60.61
-46.16
-30.26
-14.88
-1.49
9.2
17.17
22.87
26.86
29.66
31.65
33.12
34.31
35.44
36.65
37.91
39.03
39.77
39.95
39.62
39.04
38.49
38.1
37.69
36.84
35.1
32.22
28.36
23.96
19.54
15.48
11.84
8.42
4.92
1.13
-2.97
-7.2
-11.25
-14.86
-17.91
-20.54
-23.12
-26.12
-30.06
-35.32
-42.0
-49.82
-57.96
-65.13
-69.72
-70.24
-65.77
-56.37
-43.14
-27.93
-12.77
0.65
11.46
19.58
25.47
29.79
32.99
35.29
36.72
37.36
37.4
37.21
37.18
37.5
38.1
38.71
39.02
38.86
38.31
37.56
36.81
36.09
35.25
34.01
32.08
29.25
25.51
21.04
16.18
11.36
6.99
3.26
0.09
-2.88
-6.13
-10.03
-14.68
-19.85
-25.12
-30.0
-34.22
-37.72
-40.76
-43.78
-47.32
-51.92
-57.9
-65.17
-73.05
-80.19
-84.8
-85.14
-80.07
-69.56
-54.74
-37.64
-20.55
-5.31
7.02
16.3
23.05
28.03
31.94
35.25
38.2
40.85
43.17
45.04
46.32
46.87
46.7
45.94
44.85
43.73
42.83
42.18
41.66
41.0
39.9
38.21
35.89
33.01
29.73
26.18
22.52
18.85
15.3
11.95
8.85
5.95
3.1
0.07
-3.34
-7.23
-11.5
-15.92
-20.17
-24.05
-27.51
-30.72
-33.99
-37.67
-42.07
-47.41
-53.77
-60.92
-68.25
-74.7
-78.8
-79.09
-74.58
-65.15
-51.72
-35.99
-19.99
-5.46
6.51
15.58
22.07
26.53
29.54
31.54
32.83
33.64
34.14
34.52
34.88
35.26
35.56
35.67
35.52
35.15
34.68
34.26
33.96
33.7
33.21
32.22
30.49
28.0
24.92
21.5
18.07
14.81
11.73
8.75
5.68
2.38
-1.21
-5.01
-8.84
-12.43
-15.61
-18.32
-20.79
-23.55
-27.26
-32.49
-39.36
-47.33
-55.09
-60.87
-62.96
-60.23
-52.53
-40.77
-26.62
-12.03
1.32
12.3
20.48
26.0
29.32
30.99
31.48
31.15
30.26
29.01
27.64
26.41
25.54
25.14
25.2
25.56
26.04
26.5
26.89
27.23
27.43
27.28
26.41
24.47
21.31
17.13
12.42
7.83
3.9
0.8
-1.63
-3.86
-6.37
-9.45
-13.07
-16.93
-20.58
-23.69
-26.21
-28.41
-30.83
-34.13
-38.87
-45.35
-53.35
-62.08
-70.15
-75.75
-77.14
-73.22
-63.91
-50.34
-34.52
-18.72
-4.8
6.21
14.19
19.74
23.67
26.74
29.4
31.84
34.07
36.02
37.65
38.94
39.87
40.38
40.4
39.87
38.82
37.39
35.78
34.22
32.83
31.65
30.53
29.26
27.59
25.31
22.33
18.71
14.69
10.64
6.94
3.78
1.08
-1.54
-4.55
-8.27
-12.73
-17.56
-22.26
-26.32
-29.54
-32.07
-34.32
-36.83
-40.1
-44.53
-50.35
-57.44
-65.21
-72.43
-77.44
-78.52
-74.56
-65.47
-52.39
-37.31
-22.38
-9.3
1.15
9.04
15.0
19.8
23.96
27.69
30.94
33.53
35.33
36.35
36.71
36.66
36.39
36.08
35.82
35.63
35.53
35.54
35.67
35.87
36.04
35.97
35.47
34.33
32.44
29.72
26.15
21.71
16.47
10.57
4.32
-1.86
-7.53
-12.44
-16.57
-20.24
-24.05
-28.68
-34.67
-42.18
-50.74
-59.19
-65.86
-68.88
-66.8
-59.13
-46.55
-30.83
-14.27
0.97
13.45
22.62
28.71
32.34
34.2
34.79
34.47
33.48
32.1
30.64
29.42
28.64
28.32
28.28
28.21
27.82
26.92
25.47
23.52
21.08
18.09
14.38
9.81
4.35
-1.79
-8.23
-14.54
-20.37
-25.62
-30.38
-34.91
-39.39
-43.85
-48.03
-51.57
-54.08
-55.41
-55.71
-55.45
-55.29
-55.76
-57.07
-58.85
-60.12
-59.39
-55.16
-46.34
-32.78
-15.37
4.13
23.64
41.34
56.04
67.23
74.82
78.87
79.42
76.55
70.64
62.48
53.31
44.64
37.91
34.23
34.15
37.55
43.69
51.3
58.86
64.83
67.93
67.34
62.85
54.79
44.02
31.7
19.08
7.28
-2.9
-11.08
-17.24
-21.69
-24.92
-27.48
-29.87
-32.34
-34.91
-37.28
-39.04
-39.86
-39.67
-38.72
-37.55
-36.79
-37.04
-38.77
-42.27
-47.49
-53.86
-60.11
-64.48
-65.04
-60.46
-50.56
-36.49
-20.39
-4.62
8.99
19.55
27.14
32.29
35.59
37.33
37.59
36.39
34.04
31.1
28.37
26.58
26.14
26.99
28.7
30.69
32.49
33.88
34.85
35.41
35.46
34.71
32.79
29.52
25.07
19.95
14.85
10.37
6.74
3.78
1.1
-1.75
-4.94
-8.31
-11.5
-14.07
-15.75
-16.6
-17.0
-17.56
-18.93
-21.61
-25.79
-31.2
-37.08
-42.23
-45.21
-44.7
-39.96
-31.14
-19.33
-6.27
6.18
16.62
24.41
29.68
33.06
35.29
36.86
38.01
38.79
39.22
39.42
39.54
39.72
39.92
40.0
39.72
38.92
37.66
36.14
34.68
33.53
32.7
31.98
31.03
29.61
27.7
25.52
23.36
21.45
19.79
18.17
16.2
13.56
10.02
5.56
0.39
-5.13
-10.59
-15.65
-20.18
-24.36
-28.6
-33.5
-39.51
-46.72
-54.72
-62.55
-68.95
-72.67
-72.84
-69.19
-62.21
-52.99
-42.94
-33.42
-25.41
-19.31
-15.01
-12.03
-9.8
-7.83
-5.85
-3.75
-1.51
0.85
3.28
5.67
7.85
9.65
10.95
11.81
12.42
13.02
13.81
14.81
15.85
16.63
16.82
16.19
14.67
12.35
9.51
6.5
3.64
1.13
-1.13
-3.49
-6.45
-10.43
-15.58
-21.61
-27.9
-33.69
-38.41
-41.92
-44.5
-46.82
-49.64
-53.64
-59.15
-65.98
-73.28
-79.61
-83.14
-82.26
-76.09
-64.91
-50.12
-33.88
-18.32
-5.03
5.35
12.98
18.52
22.67
25.97
28.67
30.85
32.54
33.79
34.71
35.42
36.05
36.66
37.26
37.88
38.49
39.16
39.93
40.78
41.59
42.1
42.0
40.98
38.89
35.76
31.84
27.51
23.22
19.35
16.1
13.44
11.12
8.73
5.88
2.33
-1.88
-6.51
-11.15
-15.46
-19.3
-22.78
-26.22
-30.08
-34.87
-40.9
-48.18
-56.08
-63.37
-68.28
-69.02
-64.43
-54.44
-40.24
-23.9
-7.64
6.81
18.65
27.9
35.08
40.71
45.09
48.3
50.34
51.31
51.49
51.3
51.1
51.12
51.39
51.77
52.06
52.14
51.97
51.57
50.98
50.14
48.88
47.0
44.35
40.96
37.07
33.06
29.31
26.14
23.65
21.73
20.13
18.55
16.75
14.65
12.28
9.76
7.2
4.69
2.32
0.14
-1.79
-3.46
-5.03
-6.83
-9.29
-12.8
-17.42
-22.77
-27.92
-31.74
-33.11
-31.36
-26.41
-18.83
-9.63
0.03
9.11
16.86
22.83
26.86
28.96
29.26
28.03
25.65
22.59
19.37
16.45
14.13
12.47
11.3
10.35
9.36
8.21
6.92
5.62
4.39
3.19
1.84
0.07
-2.31
-5.26
-8.51
-11.65
-14.31
-16.31
-17.73
-18.89
-20.13
-21.67
-23.58
-25.73
-27.91
-29.93
-31.69
-33.19
-34.55
-35.97
-37.76
-40.2
-43.4
-47.14
-50.79
-53.41
-53.94
-51.62
-46.17
-38.04
-28.19
-17.85
-8.22
-0.1
6.12
10.42
12.98
14.06
13.84
12.49
10.22
7.37
4.31
1.48
-0.75
-2.15
-2.64
-2.34
-1.45
-0.29
0.82
1.61
1.94
1.73
1.03
-0.13
-1.71
-3.77
-6.41
-9.73
-13.76
-18.43
-23.55
-28.88
-34.13
-39.07
-43.6
-47.75
-51.68
-55.69
-60.06
-64.91
-70.02
-74.74
-78.0
-78.58
-75.46
-68.19
-57.1
-43.32
-28.42
-14.06
-1.52
8.51
15.94
21.16
24.67
26.94
28.26
28.8
28.71
28.19
27.55
27.05
26.88
27.06
27.47
28.0
28.53
29.05
29.5
29.74
29.57
28.74
27.04
24.49
21.25
17.6
13.81
10.04
6.27
2.41
-1.59
-5.69
-9.72
-13.51
-16.93
-20.0
-22.9
-25.85
-29.05
-32.6
-36.43
-40.25
-43.55
-45.61
-45.62
-42.88
-37.06
-28.4
-17.73
-6.3
4.63
14.09
21.57
27.11
30.95
33.46
34.94
35.54
35.39
34.69
33.66
32.61
31.78
31.28
31.1
31.18
31.5
32.05
32.83
33.74
34.53
34.86
34.38
32.91
30.48
27.35
23.82
20.2
16.64
13.14
9.62
6.01
2.29
-1.44
-5.02
-8.29
-11.14
-13.61
-15.85
-18.2
-21.05
-24.77
-29.52
-35.03
-40.6
-45.12
-47.34
-46.31
-41.7
-33.96
-24.24
-13.94
-4.4
3.54
9.59
13.9
16.88
18.95
20.42
21.48
22.2
22.58
22.68
22.58
22.41
22.33
22.53
23.11
24.11
25.46
26.95
28.31
29.22
29.36
28.52
26.62
23.76
20.17
16.13
11.79
7.26
2.47
-2.6
-7.82
-12.89
-17.37
-20.78
-22.84
-23.51
-23.08
-22.12
-21.34
-21.42
-22.79
-25.43
-28.82
-32.0
-33.92
-33.73
-31.18
-26.6
-20.8
-14.75
-9.23
-4.65
-1.08
1.63
3.67
5.16
6.12
6.54
6.44
5.95
5.25
4.66
4.5
5.04
6.41
8.53
11.09
13.6
15.48
16.27
15.74
13.95
11.26
8.16
5.18
2.63
0.6
-1.06
-2.66
-4.54
-6.98
-10.13
-13.97
-18.3
-22.85
-27.31
-31.48
-35.32
-38.97
-42.6
-46.35
-50.12
-53.42
-55.45
-55.25
-51.9
-44.98
-34.68
-21.88
-7.91
5.75
17.9
27.77
35.05
39.71
41.91
41.86
39.92
36.59
32.51
28.33
24.64
21.82
20.05
19.27
19.26
19.7
20.2
20.46
20.25
19.51
18.3
16.75
14.97
13.03
10.95
8.71
6.34
3.87
1.36
-1.21
-3.81
-6.4
-8.9
-11.2
-13.23
-15.06
-16.91
-19.11
-21.96
-25.53
-29.6
-33.55
-36.47
-37.39
-35.57
-30.75
-23.28
-14.08
-4.35
4.71
12.25
17.91
21.79
24.29
25.84
26.74
27.15
27.03
26.35
25.16
23.63
22.04
20.71
19.85
19.46
19.37
19.25
18.74
17.64
15.95
13.86
11.64
9.56
7.73
6.15
4.74
3.43
2.2
1.04
-0.06
-1.25
-2.77
-4.88
-7.77
-11.55
-16.26
-21.97
-28.87
-37.08
-46.39
-55.95
-64.23
-69.36
-69.81
-65.0
-55.69
-43.7
-31.27
-20.25
-11.59
-5.28
-0.71
2.8
5.62
7.83
9.41
10.52
11.61
13.28
15.95
19.68
24.07
28.35
31.69
33.46
33.41
31.69
28.7
24.97
20.97
17.04
13.4
10.1
7.09
4.28
1.5
-1.36
-4.37
-7.5
-10.64
-13.64
-16.38
-18.85
-21.13
-23.49
-26.32
-30.07
-35.01
-40.97
-47.18
-52.23
-54.45
-52.43
-45.58
-34.47
-20.65
-6.22
6.9
17.53
25.34
30.74
34.4
36.91
38.58
39.48
39.64
39.15
38.24
37.22
36.31
35.63
35.14
34.77
34.49
34.31
34.3
34.49
34.81
35.04
34.93
34.2
32.68
30.32
27.16
23.29
18.8
13.77
8.37
2.8
-2.62
-7.53
-11.7
-15.05
-17.78
-20.31
-23.2
-27.04
-32.27
-39.02
-46.78
-54.39
-60.11
-62.06
-58.86
-50.15
-36.85
-20.84
-4.42
10.47
22.7
32.01
38.71
43.32
46.23
47.6
47.51
46.08
43.65
40.72
37.83
35.47
33.85
32.94
32.47
32.08
31.42
30.28
28.6
26.42
23.83
20.92
17.71
14.19
10.31
6.03
1.36
-3.58
-8.58
-13.34
-17.58
-21.15
-24.07
-26.61
-29.17
-32.28
-36.5
-42.31
-49.93
-59.06
-68.6
-76.66
-80.96
-79.51
-71.36
-57.04
-38.49
-18.4
0.64
16.86
29.5
38.56
44.35
47.08
46.79
43.63
38.1
31.16
24.11
18.21
14.33
12.74
13.07
14.59
16.45
17.99
18.82
18.89
18.31
17.17
15.44
12.93
9.37
4.65
-1.04
-7.18
-13.03
-17.91
-21.5
-23.94
-25.81
-27.89
-31.0
-35.74
-42.39
-50.72
-59.9
-68.44
-74.42
-76.03
-72.14
-62.79
-49.25
-33.66
-18.21
-4.55
6.59
15.29
22.0
27.17
30.96
33.4
34.53
34.64
34.26
34.04
34.48
35.79
37.76
39.94
41.78
42.87
43.04
42.34
40.9
38.84
36.13
32.59
28.07
22.48
15.94
8.79
1.53
-5.26
-11.13
-15.85
-19.54
-22.63
-25.75
-29.59
-34.67
-41.13
-48.58
-55.97
-61.73
-64.15
-61.81
-54.19
-41.9
-26.57
-10.43
4.44
16.58
25.52
31.55
35.41
37.86
39.46
40.49
41.03
41.11
40.81
40.24
39.6
39.04
38.66
38.49
38.52
38.73
39.09
39.56
40.0
40.18
39.78
38.51
36.17
32.77
28.5
23.66
18.6
13.56
8.66
3.97
-0.56
-4.93
-9.19
-13.4
-17.7
-22.34
-27.65
-33.98
-41.51
-49.94
-58.35
-65.19
-68.62
-67.05
-59.75
-47.12
-30.73
-12.79
4.42
19.24
30.83
39.16
44.69
48.01
49.58
49.71
48.62
46.66
44.3
42.08
40.44
39.57
39.34
39.38
39.33
38.97
38.31
37.49
36.59
35.53
34.01
31.7
28.48
24.49
20.15
15.93
12.17
8.89
5.79
2.52
-1.21
-5.43
-9.94
-14.39
-18.51
-22.14
-25.39
-28.56
-32.1
-36.52
-42.16
-48.98
-56.21
-62.4
-65.69
-64.4
-57.7
-45.96
-30.74
-14.27
1.29
14.41
24.46
31.57
36.34
39.48
41.61
43.16
44.43
45.59
46.68
47.68
48.59
49.44
50.34
51.43
52.83
54.52
56.36
58.08
59.35
59.92
59.72
58.99
58.31
58.65
61.14
66.83
76.2
88.85
103.41
117.68
129.18
135.63
135.4
127.8
113.14
92.7
68.51
43.09
18.97
-1.73
-17.62
-28.09
-33.1
-33.01
-28.5
-20.79
-11.8
-3.97
0.35
-0.23
-5.55
-14.08
-23.67
-32.71
-40.8
-48.64
-57.24
-66.97
-77.19
-86.46
-93.34
-97.12
-98.07
-97.16
-95.4
-93.49
-91.64
-89.81
-88.01
-86.46
-85.47
-85.37
-86.34
-88.31
-91.09
-94.37
-97.87
-101.25
-104.11
-105.96
-106.22
-104.29
-99.84
-93.02
-84.61
-75.97
-68.67
-64.08
-62.98
-65.36
-70.48
-77.03
-83.47
-88.19
-89.89
-87.85
-82.15
-73.75
-64.2
-55.11
-47.55
-41.74
-37.04
-32.42
-27.0
-20.42
-12.82
-4.66
3.56
11.51
18.95
25.68
31.44
35.94
39.1
41.23
43.16
46.13
51.53
60.28
72.29
86.04
98.67
106.65
106.87
97.76
79.9
55.94
29.67
4.82
-15.85
-31.08
-40.94
-46.38
-48.76
-49.76
-51.23
-55.11
-62.84
-74.68
-89.12
-102.92
-111.81
-111.95
-101.28
