-78.96
-67.74
-51.95
-33.6
-14.89
2.45
17.49
30.04
40.3
48.48
54.61
58.6
60.36
60.0
57.9
54.61
50.77
46.94
43.52
40.71
38.51
36.8
35.35
33.93
32.34
30.41
28.02
25.06
21.4
16.86
11.2
4.3
-3.8
-12.66
-21.55
-29.6
-36.05
-40.58
-43.4
-45.23
-47.15
-50.23
-55.28
-62.47
-71.15
-79.84
-86.45
-88.8
-85.27
-75.27
-59.54
-39.92
-18.81
1.47
19.17
33.47
44.3
52.08
57.35
60.56
61.94
61.63
59.85
56.98
53.58
50.3
47.66
45.94
45.16
45.13
45.51
45.94
46.01
45.32
43.51
40.39
36.0
30.64
24.78
18.9
13.28
7.94
2.67
-2.75
-8.46
-14.39
-20.27
-25.79
-30.79
-35.29
-39.61
-44.24
-49.75
-56.57
-64.78
-73.89
-82.64
-89.16
-91.36
-87.55
-77.04
-60.54
-40.03
-18.12
2.61
20.31
34.14
44.11
50.72
54.52
55.95
55.29
52.93
49.44
45.61
42.21
39.81
38.56
38.25
38.41
38.51
38.2
37.27
35.73
33.65
31.08
28.07
24.65
20.78
16.44
11.55
6.07
0.01
-6.44
-12.98
-19.26
-24.96
-29.99
-34.49
-38.79
-43.36
-48.76
-55.5
-63.84
-73.6
-83.81
-92.74
-98.11
-97.71
-90.22
-75.73
-55.8
-33.07
-10.43
9.8
26.3
38.81
47.79
53.92
57.76
59.65
59.8
58.47
56.14
53.48
51.15
49.62
48.97
48.89
48.89
48.58
47.8
46.69
45.46
44.14
42.41
39.72
35.5
29.54
22.17
14.25
6.78
0.57
-4.19
-7.86
-11.24
-15.13
-19.99
-25.76
-31.93
-37.82
-42.86
-46.86
-50.09
-53.17
-57.05
-62.7
-70.79
-81.3
-93.22
-104.41
-112.02
-113.23
-106.13
-90.45
-67.82
-41.33
-14.68
8.89
27.33
40.14
48.1
52.67
55.35
57.18
58.62
59.66
60.19
60.24
60.06
59.99
60.27
60.85
61.46
61.74
61.5
60.73
59.67
58.51
57.27
55.69
53.35
49.8
44.89
38.79
32.02
25.29
19.25
14.29
10.43
7.35
4.48
1.2
-2.97
-8.2
-14.29
-20.79
-27.09
-32.72
-37.52
-41.69
-45.78
-50.54
-56.74
-64.86
-74.88
-85.92
-96.22
-103.3
-104.59
-98.19
-83.7
-62.45
-37.25
-11.55
11.61
30.27
43.85
52.89
58.46
61.6
63.07
63.3
62.53
61.03
59.08
56.95
54.76
52.46
49.93
47.11
44.19
41.62
39.96
39.65
40.73
42.8
45.12
46.77
47.01
45.38
41.74
36.23
29.14
20.68
11.06
0.5
-10.62
-21.7
-31.96
-40.63
-47.24
-51.77
-54.78
-57.23
-60.32
-65.05
-71.95
-80.67
-89.85
-97.27
-100.38
-97.08
-86.48
-69.25
-47.45
-23.87
-1.22
18.56
34.49
46.45
54.76
59.87
62.15
61.9
59.54
55.67
51.14
46.84
43.51
41.52
40.77
40.79
41.02
40.99
40.54
39.67
38.41
36.61
33.91
29.81
23.94
16.26
7.17
-2.51
-11.79
-19.86
-26.28
-31.19
-35.13
-38.82
-42.79
-47.19
-51.71
-55.79
-58.9
-60.84
-61.93
-63.0
-65.22
-69.78
-77.51
-88.45
-101.51
-114.44
-124.18
-127.63
-122.54
-108.32
-86.33
-59.44
-31.24
-4.98
17.15
34.35
46.92
55.81
62.0
66.26
69.01
70.52
71.06
70.98
70.62
70.22
69.76
69.04
67.81
66.03
63.94
62.0
60.57
59.73
59.04
57.77
55.16
50.82
44.88
38.01
31.08
24.84
19.65
15.35
11.35
6.91
1.38
-5.46
-13.38
-21.73
-29.68
-36.49
-41.86
-46.02
-49.7
-53.9
-59.59
-67.34
-76.98
-87.44
-96.8
-102.68
-102.88
-96.05
-82.27
-63.09
-41.11
-19.29
-0.06
15.23
26.34
33.91
38.92
42.21
44.25
45.18
45.08
44.15
42.81
41.59
40.89
40.83
41.22
41.72
41.98
41.82
41.26
40.36
39.12
37.43
35.14
32.16
28.61
24.67
20.61
16.57
12.56
8.46
4.16
-0.42
-5.24
-10.19
-15.18
-20.18
-25.27
-30.66
-36.66
-43.61
-51.69
-60.63
-69.49
-76.59
-79.83
-77.35
-68.2
-52.82
-33.08
-11.74
8.34
24.98
37.1
44.75
48.69
49.89
49.23
47.32
44.61
41.52
38.55
36.21
34.86
34.58
35.13
36.06
36.96
37.6
37.95
38.06
37.84
37.01
35.16
31.94
27.3
21.5
15.02
8.28
1.48
-5.52
-12.93
-20.8
-28.89
-36.66
-43.48
-48.94
-53.09
-56.43
-59.84
-64.26
-70.52
-78.99
-89.32
-100.26
-109.71
-115.14
-114.28
-105.96
-90.64
-70.36
-48.08
-26.73
-8.33
6.34
17.62
26.38
33.48
39.44
44.41
48.42
51.52
53.91
55.82
57.37
58.55
59.2
59.2
58.63
57.81
57.23
57.26
58.02
59.2
60.11
59.97
58.24
54.76
49.9
44.28
38.62
33.44
28.9
24.77
20.54
15.63
9.64
2.51
-5.41
-13.51
-21.19
-28.06
-34.12
-39.69
-45.24
-51.26
-58.03
-65.49
-73.15
-79.96
-84.36
-84.64
-79.44
-68.42
-52.53
-33.92
-15.26
1.09
13.78
22.58
28.18
31.61
33.75
35.11
35.83
35.99
35.71
35.25
34.96
35.04
35.59
36.5
37.61
38.76
39.9
41.0
42.01
42.75
42.87
42.06
40.08
36.97
32.95
28.4
23.62
18.78
13.9
8.97
3.98
-0.95
-5.66
-9.99
-13.88
-17.41
-20.76
-24.19
-27.99
-32.34
-37.3
-42.63
-47.73
-51.68
-53.37
-51.88
-46.71
-38.05
-26.69
-13.9
-0.95
11.06
21.45
29.9
36.36
40.88
43.64
44.87
44.94
44.37
43.66
43.19
43.04
43.01
42.64
41.46
39.18
35.85
31.83
27.62
23.64
20.0
16.49
12.69
8.24
3.03
-2.67
-8.31
-13.39
-17.62
-21.13
-24.27
-27.4
-30.64
-33.77
-36.42
-38.21
-39.11
-39.48
-40.03
-41.62
-45.09
-50.95
-59.23
-69.25
-79.51
-87.85
-91.89
-89.79
-80.89
-66.06
-47.47
-27.88
-9.81
5.16
16.57
24.81
30.73
35.11
38.56
41.41
43.88
46.06
48.05
49.82
51.28
52.26
52.63
52.33
51.54
50.58
49.92
50.01
51.08
53.02
55.4
57.58
58.91
58.93
57.52
54.87
51.43
47.75
44.33
41.47
39.12
36.88
34.03
29.8
23.62
15.41
5.63
-4.81
-14.84
-23.63
-30.82
-36.6
-41.63
-46.8
-53.03
-60.86
-70.2
-80.01
-88.34
-92.78
-91.21
-82.62
-67.65
-48.52
-28.32
-9.99
4.41
14.19
19.74
22.05
22.19
20.98
18.99
16.62
14.19
11.93
9.91
8.0
5.95
3.57
0.91
-1.67
-3.54
-4.14
-3.17
-0.85
2.21
5.15
7.23
8.05
7.67
6.49
5.0
3.55
2.24
0.92
-0.73
-2.96
-5.88
-9.36
-13.06
-16.57
-19.51
-21.79
-23.61
-25.57
-28.52
-33.24
-40.01
-48.28
-56.49
-62.3
-63.31
-57.88
-45.8
-28.46
-8.42
11.4
28.59
41.8
50.83
56.25
58.93
59.63
58.85
56.84
53.83
50.11
46.08
42.22
38.92
36.42
34.75
33.75
33.17
32.76
32.35
31.83
31.08
29.88
27.92
24.84
20.41
14.65
7.93
0.95
-5.41
-10.36
-13.47
-14.8
-14.92
-14.71
-15.13
-16.76
-19.73
-23.65
-27.87
-31.79
-35.13
-38.07
-41.13
-44.99
-50.27
-57.36
-66.25
-76.35
-86.33
-94.18
-97.55
-94.44
-83.97
-66.87
-45.38
-22.62
-1.6
15.56
28.03
36.09
40.72
43.03
44.01
44.36
44.51
44.73
45.15
45.75
46.46
47.16
47.72
48.11
48.42
48.86
49.68
51.01
52.75
54.53
55.73
55.65
53.68
49.47
42.95
34.48
24.7
14.5
4.81
-3.62
-10.36
-15.47
-19.34
-22.54
-25.52
-28.43
-31.1
-33.23
-34.57
-35.11
-35.17
-35.33
-36.27
-38.64
-42.94
-49.36
-57.61
-66.71
-74.87
-79.79
-79.24
-71.93
-58.12
-39.74
-19.84
-1.58
12.75
22.28
27.46
29.49
29.65
28.79
27.27
25.22
22.74
20.16
17.89
16.27
15.43
15.16
15.08
14.83
14.27
13.56
13.05
13.02
13.49
14.01
13.87
12.35
9.1
4.4
-0.96
-5.91
-9.62
-11.77
-12.74
-13.33
-14.44
-16.62
-19.84
-23.56
-27.03
-29.61
-31.13
-31.93
-32.79
-34.69
-38.48
-44.65
-52.99
-62.42
-71.02
-76.41
-76.4
-69.79
-56.83
-39.25
-19.72
-0.96
14.97
27.15
35.71
41.42
45.21
47.81
49.59
50.61
50.8
50.06
48.4
45.94
42.97
39.79
36.7
33.93
31.66
30.05
29.23
29.23
29.92
30.98
31.94
32.25
31.48
29.36
25.84
21.11
15.56
9.73
4.18
-0.66
-4.57
-7.66
-10.32
-13.02
-16.14
-19.81
-23.83
-27.89
-31.68
-35.07
-38.16
-41.25
-44.75
-49.2
-55.04
-62.51
-71.22
-79.98
-86.77
-89.29
-85.69
-75.31
-59.11
-39.42
-19.13
-0.84
13.83
24.47
31.56
36.0
38.67
40.21
41.0
41.29
41.28
41.21
41.26
41.53
42.0
42.49
42.78
42.69
42.22
41.53
40.92
40.63
40.67
40.71
40.17
38.45
35.23
30.65
25.28
19.91
15.28
11.74
9.2
7.17
5.02
2.16
-1.68
-6.44
-11.69
-16.91
-21.56
-25.33
-28.25
-30.64
-33.12
-36.36
-40.94
-46.98
-53.91
-60.36
-64.4
-64.06
-58.05
-46.38
-30.42
-12.59
4.49
18.77
29.25
35.99
39.73
41.36
41.49
40.44
38.31
35.29
31.71
28.11
24.98
22.66
21.12
20.1
19.29
18.5
17.8
17.42
17.53
18.0
18.36
17.88
15.89
12.09
6.72
0.49
-5.63
-10.83
-14.67
-17.22
-18.94
-20.46
-22.3
-24.73
-27.68
-30.83
-33.77
-36.14
-37.81
-38.95
-40.02
-41.71
-44.8
-49.89
-57.12
-65.86
-74.69
-81.48
-84.02
-80.61
-70.76
-55.4
-36.68
-17.3
0.3
14.55
24.92
31.77
35.94
38.28
39.46
39.9
39.85
39.51
39.07
38.72
38.62
38.8
39.22
39.76
40.31
40.8
41.24
41.67
42.08
42.34
42.23
41.47
39.84
37.21
33.64
29.37
24.74
20.1
15.74
11.84
8.49
5.63
3.11
0.69
-1.96
-5.11
-8.9
-13.31
-18.12
-22.95
-27.49
-31.53
-35.14
-38.66
-42.63
-47.64
-54.08
-61.79
-69.87
-76.71
-80.3
-78.86
-71.52
-58.72
-42.16
-24.24
-7.33
6.91
17.73
25.23
29.95
32.55
33.59
33.54
32.86
32.01
31.44
31.43
32.02
33.07
34.25
35.26
35.94
36.27
36.4
36.5
36.62
36.55
35.92
34.26
31.21
26.76
21.26
15.35
9.72
4.92
1.13
-1.8
-4.28
-6.79
-9.65
-12.92
-16.41
-19.75
-22.61
-24.83
-26.55
-28.15
-30.24
-33.44
-38.21
-44.58
-51.92
-58.94
-63.87
-64.96
-61.08
-52.07
-38.93
-23.5
-7.83
6.33
17.95
26.75
32.87
36.67
38.46
38.52
37.18
34.9
32.26
29.83
27.98
26.91
26.53
26.64
27.01
27.47
27.94
28.39
28.83
29.22
29.5
29.46
28.82
27.24
24.51
20.61
15.83
10.71
5.78
1.4
-2.43
-6.03
-9.81
-14.08
-18.81
-23.7
-28.24
-32.0
-34.74
-36.6
-38.05
-39.8
-42.69
-47.38
-54.08
-62.34
-70.9
-77.91
-81.33
-79.57
-72.03
-59.34
-43.18
-25.83
-9.43
4.49
15.24
22.87
27.84
30.73
32.07
32.32
31.93
31.33
30.88
30.78
31.0
31.37
31.6
31.46
30.9
30.03
29.1
28.38
27.98
27.82
27.67
27.15
26.0
24.07
21.46
18.37
15.1
11.93
9.06
6.64
4.64
2.93
1.26
-0.7
-3.23
-6.44
-10.22
-14.32
-18.42
-22.33
-26.05
-29.82
-34.02
-39.1
-45.4
-52.91
-61.2
-69.26
-75.64
-78.73
-77.23
-70.6
-59.29
-44.67
-28.65
-13.21
0.17
10.7
18.3
23.38
26.55
28.39
29.37
29.79
29.85
29.71
29.45
29.24
29.21
29.51
30.23
31.39
32.88
34.51
36.05
37.25
37.92
37.87
36.99
35.19
32.53
29.18
25.37
21.36
17.3
13.2
9.02
4.74
0.42
-3.78
-7.73
-11.38
-14.84
-18.4
-22.46
-27.5
-33.81
-41.35
-49.54
-57.14
-62.51
-64.04
-60.65
-52.29
-39.95
-25.41
-10.6
2.9
14.18
23.06
29.79
34.77
38.34
40.71
41.97
42.25
41.78
40.87
39.87
39.02
38.42
37.95
37.41
36.67
35.78
34.94
34.45
34.42
34.71
34.85
34.25
32.41
29.16
24.76
19.77
14.88
10.61
7.1
4.14
1.3
-1.82
-5.39
-9.3
-13.25
-16.95
-20.3
-23.46
-26.77
-30.69
-35.6
-41.76
-49.16
-57.38
-65.48
-71.96
-75.12
-73.47
-66.38
-54.33
-38.94
-22.43
-6.94
6.08
16.05
23.24
28.25
31.72
34.07
35.47
36.05
35.94
35.39
34.64
33.91
33.3
32.88
32.65
32.64
32.86
33.28
33.83
34.34
34.63
34.46
33.64
32.02
29.54
26.28
22.44
18.32
14.26
10.47
6.99
3.6
-0.02
-4.16
-8.9
-14.05
-19.13
-23.6
-27.05
-29.37
-30.87
-32.15
-33.94
-36.88
-41.34
-47.27
-54.04
-60.51
-65.16
-66.47
-63.27
-55.25
-43.02
-28.08
-12.33
2.41
14.84
24.35
31.03
35.35
37.92
39.27
39.81
39.8
39.43
38.9
38.37
37.98
37.83
37.96
38.35
38.98
39.84
40.89
42.04
43.04
43.55
43.1
41.29
37.97
33.26
27.61
21.72
16.24
11.59
7.81
4.54
1.19
-2.71
-7.38
-12.65
-18.11
-23.33
-28.09
-32.46
-36.82
-41.65
-47.37
-54.17
-61.79
-69.43
-75.79
-79.3
-78.57
-72.85
-62.37
-48.36
-32.69
-17.33
-3.79
7.13
15.38
21.33
25.51
28.38
30.19
31.11
31.28
30.88
30.12
29.26
28.45
27.74
27.09
26.42
25.71
25.04
24.55
24.34
24.42
24.53
24.29
23.27
21.22
18.16
14.4
10.4
6.64
3.44
0.89
-1.18
-3.04
-5.03
-7.34
-10.02
-12.92
-15.76
-18.23
-20.14
-21.47
-22.47
-23.56
-25.28
-28.17
-32.55
-38.41
-45.18
-51.69
-56.33
-57.49
-54.05
-45.84
-33.74
-19.46
-5.04
7.77
17.91
25.07
29.58
32.12
33.38
33.89
34.05
34.03
33.99
34.01
34.15
34.41
34.67
34.74
34.43
33.63
32.41
30.95
29.45
27.98
26.36
24.26
21.27
17.19
12.12
6.49
0.93
-4.03
-8.09
-11.28
-13.95
-16.52
-19.3
-22.41
-25.75
-29.02
-31.97
-34.39
-36.28
-37.86
-39.55
-41.9
-45.5
-50.77
-57.62
-65.35
-72.52
-77.29
-77.91
-73.36
-63.75
-50.33
-35.09
-20.09
-6.9
3.68
11.58
17.15
20.82
22.96
23.85
23.77
23.04
21.98
20.92
20.08
19.59
19.49
19.74
20.25
20.92
21.65
22.4
23.17
23.9
24.42
24.42
23.48
21.35
18.01
13.81
9.4
5.45
2.38
0.19
-1.51
-3.34
-5.81
-9.14
-13.15
-17.4
-21.38
-24.75
-27.45
-29.74
-32.06
-34.94
-38.83
-43.97
-50.3
-57.25
-63.81
-68.57
-70.09
-67.35
-60.08
-48.93
-35.23
-20.61
-6.53
6.06
16.7
25.39
32.34
37.84
42.17
45.53
48.07
49.86
50.9
51.26
51.05
50.52
49.88
49.29
48.74
48.1
47.28
46.26
45.11
43.92
42.69
41.31
39.55
37.27
34.42
31.15
27.7
24.27
20.97
17.77
14.56
11.23
7.69
3.91
-0.15
-4.51
-9.2
-14.16
-19.26
-24.28
-28.98
-33.21
-36.97
-40.48
-44.13
-48.38
-53.63
-60.03
-67.29
-74.59
-80.61
-83.84
-83.0
-77.43
-67.4
-54.03
-39.01
-24.06
-10.52
0.88
10.04
17.26
23.06
27.96
32.34
36.43
40.26
43.68
46.47
48.43
49.46
49.6
49.0
47.86
46.41
44.88
43.49
42.43
41.82
41.62
41.59
41.32
40.39
38.48
35.53
31.76
27.54
23.29
19.27
15.48
11.74
7.76
3.37
-1.43
-6.34
-10.95
-14.89
-17.94
-20.22
-22.09
-24.11
-26.85
-30.76
-36.09
-42.79
-50.46
-58.24
-64.89
-69.01
-69.39
-65.43
-57.4
-46.42
-34.06
-21.93
-11.22
-2.51
4.14
8.94
12.17
14.06
14.82
14.78
14.34
14.02
14.26
15.33
17.24
19.76
22.49
25.09
27.33
29.13
30.46
31.31
31.57
31.15
30.03
28.33
26.29
24.25
22.45
20.99
19.79
18.63
17.14
14.91
11.55
6.8
0.68
-6.48
-14.11
-21.54
-28.3
-34.17
-39.33
-44.22
-49.38
-55.22
-61.79
-68.64
-74.79
-78.92
-79.75
-76.44
-68.87
-57.75
-44.33
-30.08
-16.23
-3.63
7.32
16.55
24.16
30.36
35.43
39.64
43.17
46.03
48.01
48.82
48.25
46.29
43.27
39.72
36.22
33.18
30.73
28.76
27.03
25.3
23.43
21.38
19.15
16.76
14.25
11.68
9.21
7.0
5.2
3.9
3.02
2.34
1.56
0.3
-1.75
-4.7
-8.42
-12.57
-16.68
-20.34
-23.4
-26.01
-28.62
-31.83
-36.17
-41.94
-48.97
-56.55
-63.48
-68.26
-69.48
-66.25
-58.55
-47.22
-33.82
-20.13
-7.69
2.54
10.25
15.72
19.56
22.39
24.74
26.91
29.02
31.04
32.89
34.52
35.92
37.07
38.01
38.73
39.34
39.98
40.81
41.96
43.43
44.96
46.15
46.55
45.82
43.89
41.02
37.68
34.42
31.66
29.51
27.8
26.24
24.54
22.56
20.34
18.06
15.86
13.75
11.55
8.91
5.4
0.63
-5.65
-13.35
-21.98
-30.46
-37.37
-41.18
-40.73
-35.64
-26.42
-14.43
-1.41
10.98
21.49
29.58
35.25
38.83
40.74
41.33
40.81
39.31
37.02
34.25
31.39
28.86
26.96
25.78
25.21
25.04
25.03
25.04
25.0
24.88
24.61
24.03
22.9
21.0
