31.46
31.51
31.79
32.27
32.85
33.42
33.88
34.23
34.45
34.53
34.34
33.68
32.32
30.08
26.94
23.05
18.75
14.51
10.72
7.59
5.06
2.81
0.42
-2.45
-5.9
-9.72
-13.52
-16.88
-19.63
-21.93
-24.25
-27.21
-31.38
-37.17
-44.63
-53.35
-62.35
-70.1
-74.77
-74.7
-68.93
-57.68
-42.39
-25.25
-8.63
5.69
16.83
24.81
30.23
33.77
35.97
37.11
37.37
36.99
36.3
35.71
35.56
36.01
36.94
38.05
38.96
39.32
38.94
37.81
35.99
33.62
30.83
27.68
24.23
20.46
16.44
12.26
8.14
4.38
1.21
-1.18
-2.83
-3.97
-4.96
-6.19
-7.94
-10.29
-13.09
-16.04
-18.83
-21.28
-23.44
-25.55
-28.04
-31.39
-36.04
-42.27
-49.91
-58.2
-65.74
-70.65
-71.18
-66.3
-56.18
-42.24
-26.7
-11.84
0.63
9.98
16.33
20.27
22.54
23.75
24.37
24.81
25.41
26.42
27.95
29.88
31.91
33.71
35.06
35.9
36.36
36.66
36.96
37.26
37.41
37.1
36.07
34.11
31.22
27.49
23.15
18.43
13.59
8.88
4.58
0.94
-1.88
-3.84
-5.08
-5.98
-6.95
-8.4
-10.54
-13.32
-16.52
-19.81
-23.0
-26.02
-29.07
-32.5
-36.78
-42.35
-49.41
-57.69
-66.29
-73.69
-78.01
-77.63
-71.72
-60.61
-45.78
-29.36
-13.47
0.31
11.32
19.63
25.78
30.38
33.91
36.63
38.71
40.24
41.33
42.1
42.63
42.95
42.99
42.73
42.17
41.41
40.66
40.14
39.97
40.09
40.23
40.05
39.24
37.66
35.42
32.78
30.06
27.42
24.81
21.9
18.22
13.37
7.2
-0.11
-8.03
-15.81
-22.79
-28.53
-32.97
-36.41
-39.43
-42.7
-46.9
-52.4
-59.11
-66.3
-72.52
-76.01
-75.09
-68.8
-57.33
-42.01
-24.94
-8.32
6.15
17.57
25.85
31.36
34.63
36.07
36.03
34.78
32.67
30.14
27.69
25.75
24.59
24.25
24.53
25.13
25.68
25.98
25.99
25.83
25.6
25.23
24.44
22.85
20.17
16.43
12.01
7.56
3.71
0.76
-1.39
-3.17
-5.16
-7.73
-10.95
-14.62
-18.37
-21.9
-25.04
-27.84
-30.55
-33.53
-37.27
-42.26
-48.87
-57.1
-66.31
-75.18
-81.82
-84.29
-81.27
-72.52
-59.08
-42.89
-26.26
-11.14
1.3
10.74
17.51
22.31
25.86
28.75
31.34
33.8
36.13
38.24
40.03
41.46
42.56
43.39
43.96
44.26
44.26
43.98
43.51
43.0
42.5
41.92
40.99
39.31
36.57
32.68
27.9
22.75
17.84
13.66
10.31
7.57
4.94
1.95
-1.65
-5.77
-10.04
-13.98
-17.26
-19.82
-21.89
-23.94
-26.52
-30.21
-35.48
-42.54
-51.19
-60.62
-69.35
-75.46
-77.06
-72.92
-62.95
-48.35
-31.26
-14.05
1.31
13.66
22.77
28.97
32.86
35.03
36.03
36.29
36.26
36.32
36.71
37.49
38.5
39.41
39.88
39.7
38.9
37.77
36.69
35.92
35.46
34.98
33.92
31.8
28.37
23.76
18.48
13.15
8.33
4.29
0.95
-2.06
-5.17
-8.7
-12.65
-16.77
-20.6
-23.76
-26.09
-27.75
-29.18
-30.93
-33.59
-37.57
-42.97
-49.35
-55.61
-60.15
-61.23
-57.59
-48.88
-35.98
-20.64
-4.97
9.22
20.89
29.75
36.05
40.18
42.48
43.13
42.34
40.39
37.74
34.88
32.28
30.23
28.83
27.99
27.55
27.3
27.13
26.97
26.83
26.65
26.29
25.42
23.65
20.61
16.21
10.7
4.69
-1.07
-5.94
-9.65
-12.36
-14.55
-16.76
-19.37
-22.42
-25.67
-28.77
-31.45
-33.7
-35.77
-38.09
-41.19
-45.55
-51.45
-58.89
-67.31
-75.59
-82.12
-85.14
-83.27
-75.95
-63.78
-48.32
-31.63
-15.67
-1.77
9.52
18.32
25.12
30.49
34.86
38.55
41.75
44.61
47.2
49.57
51.67
53.37
54.52
55.03
54.9
54.25
53.25
52.07
50.74
49.18
47.18
44.53
41.12
37.0
32.35
27.44
22.59
18.06
14.08
10.77
8.06
5.71
3.32
0.46
-3.19
-7.71
-12.88
-18.33
-23.62
-28.41
-32.58
-36.23
-39.66
-43.3
-47.62
-53.02
-59.53
-66.68
-73.39
-78.08
-79.18
-75.62
-67.27
-55.09
-40.71
-25.99
-12.38
-0.7
8.86
16.51
22.57
27.32
31.03
33.94
36.34
38.52
40.67
42.79
44.68
46.08
46.77
46.68
45.97
44.93
43.88
43.05
42.47
41.92
41.04
39.44
36.8
33.09
28.51
23.52
18.7
14.49
11.11
8.43
6.05
3.48
0.38
-3.25
-7.12
-10.79
-13.87
-16.31
-18.38
-20.7
-23.97
-28.81
-35.46
-43.65
-52.51
-60.63
-66.33
-68.06
-64.92
-56.98
-45.25
-31.43
-17.4
-4.66
5.89
14.07
20.09
24.38
27.32
29.19
30.23
30.66
30.78
30.87
31.19
31.89
32.96
34.23
35.42
36.26
36.58
36.37
35.74
34.8
33.55
31.83
29.42
26.17
22.14
17.63
13.11
9.04
5.63
2.78
0.14
-2.81
-6.42
-10.8
-15.73
-20.71
-25.25
-28.98
-31.92
-34.42
-37.05
-40.49
-45.25
-51.46
-58.73
-66.08
-72.05
-75.06
-73.82
-67.85
-57.69
-44.76
-30.98
-18.15
-7.51
0.46
5.96
9.57
12.0
13.87
15.63
17.53
19.64
21.91
24.17
26.26
28.06
29.57
30.86
32.02
33.13
34.2
35.2
36.08
36.74
37.13
37.12
36.62
35.54
33.81
31.48
28.74
25.87
23.16
20.83
18.89
17.08
14.96
12.06
8.05
2.85
-3.32
-10.01
-16.71
-22.98
-28.6
-33.54
-37.96
-42.19
-46.63
-51.55
-56.88
-61.99
-65.81
-66.95
-64.28
-57.33
-46.57
-33.28
-19.21
-6.01
5.24
14.15
20.92
26.01
29.85
32.7
34.66
35.77
36.08
35.72
34.83
33.54
31.93
30.04
27.99
25.98
24.31
23.21
22.81
22.97
23.35
23.41
22.65
20.72
17.59
13.58
9.17
4.87
0.97
-2.49
-5.69
-8.88
-12.16
-15.43
-18.43
-20.95
-22.95
-24.63
-26.41
-28.78
-32.14
-36.62
-41.93
-47.3
-51.57
-53.41
-51.74
-46.09
-36.81
-25.05
-12.36
-0.28
10.05
18.1
23.83
27.56
29.69
30.59
30.51
29.64
28.18
26.35
24.5
22.95
21.93
21.46
21.35
21.24
20.81
19.91
18.6
17.08
15.56
14.1
12.54
10.58
7.88
4.24
-0.35
-5.67
-11.29
-16.79
-21.78
-26.04
-29.58
-32.59
-35.45
-38.62
-42.57
-47.56
-53.52
-59.84
-65.42
-68.84
-68.8
-64.6
-56.35
-45.02
-32.06
-19.0
-7.04
3.19
11.5
18.06
23.16
27.1
30.12
32.44
34.21
35.5
36.35
36.78
36.89
36.81
36.74
36.85
37.22
37.76
38.22
38.2
37.3
35.18
31.83
27.54
22.81
18.21
14.1
10.57
7.36
4.05
0.29
-4.06
-8.84
-13.7
-18.27
-22.37
-26.13
-29.87
-34.13
-39.34
-45.67
-52.85
-60.07
-66.06
-69.36
-68.79
-63.76
-54.62
-42.59
-29.42
-16.9
-6.39
1.49
6.82
10.16
12.25
13.75
15.12
16.62
18.35
20.29
22.3
24.21
25.77
26.74
26.98
26.52
25.6
24.59
23.93
23.9
24.58
25.75
26.99
27.83
27.92
27.19
25.81
24.14
22.47
20.89
19.21
17.03
13.93
9.69
4.32
-1.87
-8.37
-14.68
-20.43
-25.5
-30.1
-34.67
-39.78
-45.92
-53.21
-61.25
-69.02
-75.09
-77.99
-76.66
-70.79
-60.96
-48.41
-34.71
-21.29
-9.14
1.26
9.85
16.79
22.27
26.48
29.62
31.94
33.71
35.21
36.63
38.05
39.42
40.65
41.67
42.54
43.37
44.28
45.22
45.96
46.07
45.14
42.93
39.51
35.33
30.97
27.02
23.87
21.53
19.72
18.0
15.88
13.05
9.42
5.16
0.57
-4.07
-8.56
-12.88
-17.16
-21.66
-26.66
-32.39
-38.85
-45.6
-51.72
-55.92
-56.89
-53.79
-46.62
-36.32
-24.48
-12.82
-2.67
5.32
11.15
15.26
18.22
20.46
22.22
23.54
24.33
24.51
24.08
23.19
22.11
21.16
20.58
20.52
20.97
21.81
22.85
23.88
24.64
24.82
24.15
22.49
19.91
16.68
13.2
9.79
6.6
3.48
0.12
-3.81
-8.44
-13.71
-19.32
-24.92
-30.21
-35.06
-39.53
-43.87
-48.51
-53.9
-60.28
-67.42
-74.46
-79.98
-82.38
-80.41
-73.62
-62.55
-48.61
-33.59
-19.13
-6.32
4.4
13.14
20.28
26.18
31.07
35.03
38.03
40.07
41.25
41.77
41.86
41.73
41.51
41.34
41.3
41.5
42.03
42.87
43.83
44.58
44.63
43.56
41.09
37.3
32.56
27.48
22.7
18.67
15.59
13.31
11.46
9.62
7.42
4.67
1.34
-2.4
-6.32
-10.15
-13.68
-16.89
-19.95
-23.3
-27.51
-33.14
-40.42
-48.97
-57.7
-65.0
-69.11
-68.68
-63.23
-53.31
-40.36
-26.24
-12.71
-1.0
8.31
15.3
20.42
24.24
27.27
29.83
32.06
34.02
35.7
37.1
38.2
38.93
39.22
38.97
38.2
37.01
35.57
34.1
32.72
31.46
30.2
28.78
27.05
24.96
22.54
19.95
17.31
14.71
12.08
9.24
5.95
2.02
-2.54
-7.59
-12.78
-17.74
-22.14
-25.85
-28.94
-31.77
-34.85
-38.78
-43.9
-50.09
-56.56
-61.97
-64.72
-63.51
-57.8
-48.0
-35.4
-21.67
-8.51
2.83
11.7
17.99
22.01
24.31
25.47
26.02
26.33
26.58
26.84
27.06
27.24
27.38
27.53
27.67
27.77
27.81
27.74
27.55
27.2
26.57
25.54
23.92
21.65
18.74
15.39
11.83
8.25
4.75
1.29
-2.28
-6.08
-10.18
-14.51
-18.89
-23.08
-26.92
-30.41
-33.78
-37.46
-41.93
-47.41
-53.65
-59.79
-64.51
-66.36
-64.28
-57.92
-47.86
-35.41
-22.19
-9.68
1.16
10.05
17.14
22.84
27.49
31.25
34.14
36.17
37.45
38.18
38.59
38.81
38.84
38.54
37.82
36.66
35.24
33.8
32.53
31.52
30.68
29.8
28.67
27.12
25.09
22.61
19.81
16.85
13.92
11.15
8.58
6.09
3.41
0.29
-3.42
-7.63
-12.09
-16.43
-20.4
-23.98
-27.4
-31.04
-35.29
-40.46
-46.68
-53.81
-61.36
-68.47
-73.89
-76.28
-74.58
-68.4
-58.21
-45.29
-31.34
-17.99
-6.36
3.05
10.35
16.0
20.59
24.6
28.32
31.83
35.05
37.89
40.31
42.36
44.11
45.62
46.82
47.54
47.6
46.89
45.46
43.53
41.39
39.26
37.2
35.13
32.87
30.32
27.45
24.37
21.25
18.21
15.29
12.46
9.66
6.81
3.85
0.74
-2.57
-6.06
-9.63
-13.11
-16.31
-19.15
-21.78
-24.54
-27.98
-32.61
-38.79
-46.46
-54.99
-63.25
-69.72
-72.95
-71.91
-66.39
-57.09
-45.39
-33.0
-21.4
-11.58
-3.96
1.54
5.3
7.79
9.53
10.96
12.42
14.1
16.03
18.04
19.92
21.5
22.7
23.6
24.37
25.26
26.45
27.97
29.71
31.35
32.4
32.4
31.05
28.34
24.61
20.42
16.36
12.8
9.81
7.12
4.4
1.32
-2.2
-6.01
-9.84
-13.46
-16.76
-19.76
-22.72
-25.99
-29.99
-34.99
-41.0
-47.49
-53.44
-57.48
-58.3
-55.12
-47.95
-37.68
-25.72
-13.6
-2.55
6.76
14.09
19.57
23.41
25.87
27.2
27.72
27.74
27.6
27.51
27.62
27.91
28.29
28.6
28.71
28.54
28.1
27.5
26.87
26.34
25.93
25.5
24.8
23.58
21.7
19.23
16.41
13.59
11.01
8.75
6.69
4.55
2.07
-0.96
-4.59
-8.72
-13.14
-17.61
-21.9
-25.86
-29.46
-32.79
-36.09
-39.76
-44.21
-49.69
-56.09
-62.7
-68.29
-71.36
-70.66
-65.56
-56.38
-44.21
-30.67
-17.37
-5.52
4.17
11.53
16.75
20.22
22.43
23.88
24.99
26.08
27.3
28.67
30.1
31.44
32.52
33.26
33.59
33.52
33.11
32.42
31.57
30.63
29.66
28.63
27.49
26.14
24.46
22.36
19.87
17.04
14.06
11.17
8.61
6.52
4.86
3.4
1.83
-0.2
-2.88
-6.17
-9.82
-13.52
-16.97
-20.1
-23.03
-26.07
-29.63
-34.09
-39.67
-46.23
-53.21
-59.53
-63.87
-64.95
-62.01
-55.07
-44.95
-33.04
-20.89
-9.79
-0.53
6.68
11.99
15.8
18.52
20.52
22.09
23.43
24.67
25.83
26.9
27.8
28.45
28.83
28.98
29.05
29.22
29.58
30.11
30.6
30.7
30.09
28.55
26.08
22.86
19.17
15.32
11.52
7.88
4.44
1.14
-2.01
-5.01
-7.8
-10.29
-12.44
-14.21
-15.74
-17.33
-19.45
-22.62
-27.25
-33.36
-40.43
-47.39
-52.79
-55.23
-53.78
-48.29
-39.4
-28.37
-16.62
-5.39
4.52
12.76
19.26
24.03
27.12
28.57
28.55
27.41
25.71
24.01
22.84
22.47
22.89
23.9
25.17
26.35
27.22
27.67
27.73
27.5
27.02
26.22
24.95
23.01
20.33
17.05
13.53
10.22
7.5
5.48
4.01
2.76
1.43
-0.17
-1.99
-3.88
-5.66
-7.22
-8.56
-9.76
-10.98
-12.41
-14.39
-17.23
-21.21
-26.2
-31.59
-36.23
-38.67
-37.65
-32.55
-23.71
-12.34
-0.2
10.99
20.01
26.34
30.14
32.05
32.84
33.18
33.51
33.99
34.55
34.96
35.0
34.5
33.37
31.62
29.3
26.56
23.57
20.58
17.89
15.73
14.21
13.27
12.63
11.93
10.8
9.02
6.54
3.57
0.46
-2.34
-4.51
-5.92
-6.76
-7.44
-8.45
-10.2
-12.82
-16.23
-20.13
-24.19
-28.16
-31.88
-35.33
-38.61
-41.9
-45.44
-49.41
-53.79
-58.1
-61.36
-62.31
-59.76
-53.19
-42.99
-30.47
-17.42
-5.55
4.04
11.03
15.68
18.6
20.37
21.35
21.79
21.8
21.52
21.07
20.59
20.1
19.59
19.03
18.42
17.8
17.34
17.23
17.59
18.37
19.35
20.12
20.25
19.35
17.34
14.41
11.0
7.6
4.55
1.83
-0.83
-3.82
-7.36
-11.35
-15.39
-18.98
-21.72
-23.55
-24.72
-25.75
-27.23
-29.78
-33.77
-39.26
-45.69
-51.89
-56.23
-57.06
-53.32
-44.98
-33.1
-19.54
-6.3
5.03
13.64
19.46
22.94
24.73
25.43
25.49
25.21
24.84
24.55
24.46
24.65
25.09
25.69
26.33
26.9
27.35
27.7
27.95
28.03
27.8
27.03
25.52
23.17
20.03
16.35
12.43
8.6
5.09
2.02
-0.57
-2.72
-4.61
-6.43
-8.45
-10.91
-13.87
-17.25
-20.72
-23.93
-26.54
-28.44
-29.72
-30.76
-32.07
-34.21
-37.67
-42.71
-49.15
-56.27
-62.75
-66.9
-67.17
-62.63
-53.41
-40.68
-26.36
-12.48
-0.63
8.38
14.54
18.39
20.64
21.99
22.93
23.75
24.63
25.57
26.55
27.44
28.16
28.64
28.9
29.02
29.13
29.35
29.73
30.21
30.63
30.73
30.25
28.97
26.82
23.92
20.53
16.96
13.53
10.46
7.83
5.54
3.35
0.94
-1.93
-5.36
-9.18
-12.98
-16.26
-18.64
-20.06
-20.93
-21.94
-23.91
-27.41
-32.52
-38.7
-44.86
-49.62
-51.55
-49.57
-43.22
-32.77
-19.28
-4.31
10.41
23.37
33.59
40.77
45.14
47.28
47.84
47.29
45.95
44.02
41.72
39.29
37.03
35.11
33.52
32.02
30.25
27.98
25.17
22.03
18.86
15.85
12.94
9.88
6.35
2.22
-2.33
-6.88
-10.87
-13.95
-16.02
-17.34
-18.37
-19.57
-21.21
-23.33
-25.71
-28.07
-30.21
-32.12
-34.03
-36.36
-39.52
-43.93
-49.81
-57.05
-65.06
-72.61
-78.03
-79.52
-75.78
-66.55
-52.84
-36.7
-20.57
-6.49
4.44
12.16
17.38
21.05
24.07
26.97
30.0
33.17
36.39
39.5
42.24
44.36
45.59
45.77
44.86
43.02
40.51
37.67
34.75
31.89
29.02
25.94
22.4
18.24
13.48
8.3
2.94
-2.35
-7.42
-12.22
-16.74
-20.89
-24.58
-27.69
-30.12
-31.9
-33.1
-33.83
-34.15
-34.17
-33.96
-33.64
-33.46
-33.71
-34.84
-37.3
-41.55
-47.75
-55.56
-63.95
-71.34
-75.91
-76.27
-71.87
-63.26
-51.94
-39.69
-28.13
-18.2
-10.15
-3.71
1.68
6.52
11.17
15.86
20.6
25.35
29.95
34.26
38.14
41.51
44.34
46.59
48.25
49.35
50.01
50.38
50.62
50.74
50.6
49.94
48.49
46.17
43.16
39.86
36.7
33.96
31.59
29.2
26.28
22.4
17.41
11.5
5.13
-1.18
-7.02
-12.21
-16.78
-20.97
-25.11
-29.58
-34.7
-40.54
-46.78
-52.56
-56.6
-57.53
-54.31
-46.61
-34.99
-20.73
-5.49
9.14
21.9
32.09
39.5
44.32
46.97
47.95
47.75
46.82
45.55
44.24
43.13
42.33
41.81
41.41
40.86
39.99
38.69
37.05
35.22
33.34
31.4
29.18
26.35
22.54
17.6
11.63
5.07
-1.43
-7.24
-11.94
-15.43
-17.88
-19.68
-21.15
-22.45
-23.6
-24.5
-25.15
-25.66
-26.35
-27.62
-29.89
-33.5
-38.56
-44.84
-51.61
-57.65
-61.37
-61.24
-56.31
-46.62
-33.3
-18.26
-3.57
9.12
18.99
26.0
30.63
33.51
35.18
36.04
36.41
36.54
36.7
37.01
37.47
37.97
38.28
38.23
37.68
36.63
35.14
33.35
31.41
29.4
27.39
25.35
23.2
20.84
18.16
15.17
11.97
8.83
6.07
3.98
2.65
1.92
1.41
0.62
-0.9
-3.43
-7.0
-11.39
-16.18
-20.83
-24.87
-28.03
-30.38
-32.38
-34.73
-38.23
-43.39
-50.21
-57.99
-65.38
-70.71
-72.37
-69.37
-61.62
-49.95
-35.92
-21.36
-7.87
3.49
12.32
18.82
23.51
27.0
29.77
32.05
33.88
35.17
35.81
35.77
35.15
34.14
32.99
31.89
31.03
30.5
30.33
30.43
30.59
30.53
29.89
28.38
25.81
22.2
17.84
13.19
8.83
5.26
2.74
1.18
0.22
-0.69
-2.03
-4.01
-6.56
-9.38
-12.12
-14.58
-16.89
-19.39
-22.57
-26.83
-32.42
-39.27
-46.95
-54.62
-61.05
-64.79
-64.5
-59.39
-49.62
-36.33
-21.36
-6.73
5.9
15.66
22.46
26.74
29.18
30.38
30.85
30.89
30.74
30.56
30.42
30.29
30.06
29.58
28.7
27.33
25.54
23.54
21.62
20.08
19.02
18.36
17.8
16.91
15.36
12.94
9.71
5.93
2.01
-1.62
-4.69
-7.11
-9.02
-10.67
-12.41
-14.46
-16.9
-19.59
-22.23
-24.5
-26.25
-27.6
-28.97
-31.07
-34.63
-40.21
-47.85
-56.92
-66.04
-73.29
-76.67
-74.71
-66.93
-54.12
-38.06
-21.11
-5.45
7.4
16.81
22.96
26.48
28.21
28.93
29.31
29.82
30.71
32.02
33.58
35.13
36.45
37.4
38.01
38.38
38.62
38.78
38.83
38.66
38.13
37.09
35.47
33.24
30.48
27.32
23.95
20.56
17.29
14.29
11.61
9.3
7.26
5.31
3.26
0.89
-1.89
-5.04
-8.4
-11.78
-14.96
-17.8
-20.17
-22.08
-23.69
-25.45
-28.03
-32.12
-37.95
-44.98
-51.79
-56.41
-56.98
-52.51
-43.24
-30.65
-16.83
-3.92
6.61
14.07
18.57
20.68
21.14
20.69
19.91
19.24
18.94
19.07
19.56
20.19
20.72
20.96
20.83
20.42
19.9
19.49
19.29
19.3
19.34
19.15
18.45
17.12
15.17
12.79
10.2
7.58
4.95
2.21
-0.83
-4.28
-8.1
-12.08
-15.88
-19.22
-21.95
-24.19
