27.36
26.43
25.38
24.14
22.6
20.67
18.36
15.76
12.99
10.22
7.56
5.07
2.75
0.6
-1.46
-3.55
-5.81
-8.4
-11.42
-14.87
-18.66
-22.6
-26.49
-30.2
-33.75
-37.31
-41.22
-45.83
-51.39
-57.84
-64.71
-71.01
-75.38
-76.38
-72.97
-64.92
-52.96
-38.64
-23.87
-10.33
0.9
9.52
15.82
20.4
23.86
26.7
29.21
31.58
33.92
36.21
38.37
40.2
41.51
42.18
42.25
41.95
41.6
41.51
41.79
42.32
42.76
42.7
41.81
40.01
37.44
34.44
31.33
28.33
25.47
22.64
19.68
16.51
13.21
9.89
6.72
3.72
0.79
-2.24
-5.54
-9.12
-12.83
-16.42
-19.65
-22.41
-24.83
-27.17
-29.86
-33.34
-38.01
-44.04
-51.28
-59.1
-66.4
-71.78
-73.86
-71.65
-64.93
-54.3
-41.1
-27.0
-13.63
-2.21
6.67
13.01
17.35
20.44
23.03
25.7
28.64
31.76
34.76
37.37
39.43
41.03
42.37
43.75
45.37
47.36
49.75
52.5
55.47
58.46
61.21
63.49
65.16
66.28
67.01
67.64
68.46
69.64
71.2
72.94
74.44
75.18
74.73
72.94
69.89
65.79
60.62
53.97
45.1
33.34
18.55
1.34
-16.96
-34.77
-50.64
-63.54
-72.8
-77.96
-78.77
-75.26
-67.98
-58.08
-47.1
-36.58
-27.62
-20.66
-15.55
-11.77
-8.77
-6.2
-3.95
-2.11
-0.87
-0.38
-0.63
-1.44
-2.44
-3.21
-3.39
-2.78
-1.46
0.36
2.35
4.22
5.75
6.8
7.32
7.22
6.47
5.05
3.04
0.65
-1.86
-4.25
-6.4
-8.36
-10.32
-12.41
-14.67
-16.96
-19.06
-20.72
-21.83
-22.44
-22.77
-23.07
-23.56
-24.38
-25.51
-26.78
-27.8
-27.87
-26.0
-21.15
-12.53
0.06
15.99
33.95
52.31
69.56
84.73
97.52
108.2
117.38
125.63
133.31
140.41
146.58
151.24
153.78
153.75
151.08
146.03
139.12
130.9
121.72
111.63
100.45
87.94
73.97
58.62
42.28
25.46
8.71
-7.5
-22.87
-37.26
-50.67
-63.19
-74.99
-86.22
-97.05
-107.58
-117.84
-127.87
-137.77
-147.64
-157.59
-167.54
-177.22
-186.22
-194.13
-200.74
-206.11
-210.47
-214.16
-217.39
-220.23
-222.55
-224.01
-223.99
-221.57
-215.68
-205.35
-190.09
-170.25
-147.04
-122.25
-97.74
-74.96
-54.65
-36.91
-21.41
-7.7
4.52
15.43
25.05
33.4
40.45
46.25
50.8
54.1
56.19
57.12
57.08
56.35
55.25
54.11
53.19
52.5
51.88
51.01
49.54
47.23
44.03
40.16
36.01
32.0
28.41
25.23
22.25
19.1
15.46
11.18
6.36
1.32
-3.53
-7.83
-11.43
-14.44
-17.14
-20.0
-23.43
-27.85
-33.37
-39.76
-46.25
-51.6
-54.4
-53.5
-48.41
-39.54
-28.04
-15.43
-3.15
7.79
16.87
23.93
29.05
32.36
34.11
34.68
34.54
34.2
34.04
34.23
34.76
35.43
36.06
36.53
36.82
37.01
37.19
37.39
37.52
37.38
36.72
35.37
33.3
30.69
27.81
24.95
22.34
20.0
17.81
15.49
12.75
9.4
5.39
0.88
-3.81
-8.31
-12.35
-15.82
-18.92
-22.08
-25.88
-30.85
-37.2
-44.63
-52.21
-58.57
-62.21
-61.95
-57.3
-48.66
-37.14
-24.28
-11.59
-0.25
9.05
16.13
21.22
24.81
27.45
29.6
31.57
33.45
35.15
36.52
37.42
37.83
37.85
37.62
37.34
37.16
37.19
37.43
37.84
38.23
38.38
38.02
37.01
35.31
33.03
30.4
27.63
24.83
22.0
19.11
16.16
13.25
10.55
8.21
6.23
4.45
2.54
0.19
-2.84
-6.57
-10.84
-15.33
-19.73
-23.81
-27.54
-31.1
-34.92
-39.5
-45.24
-52.25
-60.1
-67.75
-73.65
-76.18
-74.08
-66.92
-55.32
-40.8
-25.34
-10.81
1.44
10.89
17.71
22.54
26.17
29.26
32.21
35.13
37.94
40.47
42.57
44.12
45.1
45.56
45.57
45.22
44.63
43.94
43.32
42.89
42.65
42.49
42.14
41.31
39.8
37.53
34.69
31.57
28.45
25.53
22.8
20.15
17.44
14.62
11.73
8.91
6.23
3.66
1.02
-1.94
-5.43
-9.53
-14.14
-19.0
-23.79
-28.22
-32.14
-35.61
-38.89
-42.43
-46.71
-52.07
-58.49
-65.39
-71.61
-75.59
-75.82
-71.34
-62.07
-49.01
-33.91
-18.78
-5.34
5.41
13.26
18.64
22.28
24.87
26.9
28.57
29.92
30.93
31.63
32.16
32.68
33.36
34.26
35.34
36.5
37.62
38.6
39.41
40.04
40.46
40.57
40.28
39.45
38.0
35.89
33.14
29.85
26.15
22.2
18.12
14.05
10.1
6.32
2.75
-0.67
-4.02
-7.41
-10.94
-14.64
-18.43
-22.18
-25.76
-29.21
-32.74
-36.76
-41.69
-47.75
-54.73
-61.88
-67.99
-71.59
-71.37
-66.58
-57.3
-44.48
-29.71
-14.79
-1.31
9.68
17.83
23.39
26.99
29.37
31.08
32.47
33.62
34.51
35.19
35.77
36.42
37.25
38.2
39.13
39.89
40.45
40.9
41.39
41.9
42.2
41.88
40.53
37.98
34.43
30.39
26.46
23.12
20.48
18.35
16.32
14.06
11.4
8.48
5.58
2.96
0.68
-1.42
-3.74
-6.63
-10.32
-14.78
-19.78
-24.96
-30.03
-34.78
-39.23
-43.59
-48.28
-53.84
-60.73
-69.04
-78.16
-86.75
-92.89
-94.71
-90.94
-81.43
-67.23
-50.24
-32.63
-16.32
-2.58
8.04
15.58
20.55
23.69
25.82
27.69
29.8
32.36
35.31
38.43
41.47
44.25
46.64
48.51
49.75
50.3
50.22
49.71
49.02
48.3
47.5
46.32
44.38
41.45
37.63
33.39
29.38
26.12
23.77
22.02
20.34
18.18
15.36
12.04
8.6
5.4
2.53
-0.19
-3.12
-6.55
-10.58
-15.08
-19.81
-24.48
-28.87
-32.86
-36.46
-39.88
-43.48
-47.77
-53.21
-59.98
-67.69
-75.32
-81.28
-83.83
-81.62
-74.14
-61.99
-46.73
-30.41
-14.97
-1.81
8.44
15.87
20.99
24.45
26.8
28.49
29.81
31.01
32.24
33.64
35.27
37.08
38.93
40.63
42.03
43.07
43.76
44.17
44.33
44.21
43.68
42.61
40.91
38.56
35.6
32.08
28.11
23.84
19.53
15.48
11.89
8.74
5.79
2.62
-1.08
-5.38
-10.06
-14.7
-18.95
-22.61
-25.78
-28.8
-32.14
-36.31
-41.73
-48.59
-56.64
-65.01
-72.31
-76.85
-77.11
-72.27
-62.48
-48.82
-33.02
-16.88
-1.97
10.71
20.69
28.03
33.06
36.28
38.2
39.27
39.82
40.09
40.18
40.17
40.1
40.02
40.0
40.15
40.53
41.19
42.05
42.9
43.46
43.42
42.53
40.69
37.94
34.48
30.57
26.56
22.79
19.5
16.76
14.48
12.44
10.39
8.16
5.71
3.06
0.25
-2.81
-6.29
-10.4
-15.21
-20.64
-26.37
-32.04
-37.35
-42.21
-46.81
-51.59
-57.06
-63.57
-71.07
-78.9
-85.83
-90.21
-90.49
-85.66
-75.69
-61.58
-45.1
-28.28
-12.92
-0.18
9.51
16.29
20.74
23.57
25.55
27.34
29.38
31.85
34.66
37.47
39.9
41.63
42.53
42.7
42.46
42.15
42.05
42.27
42.66
42.93
42.74
41.84
40.17
37.89
35.3
32.65
30.14
27.74
25.3
22.61
19.49
15.93
12.08
8.19
4.49
1.11
-2.02
-5.12
-8.43
-12.1
-16.1
-20.24
-24.25
-27.96
-31.29
-34.41
-37.57
-41.18
-45.63
-51.17
-57.78
-64.89
-71.4
-75.81
-76.66
-73.02
-64.84
-53.09
-39.42
-25.65
-13.27
-3.11
4.66
10.35
14.49
17.52
19.79
21.52
22.92
24.16
25.49
27.06
28.97
31.19
33.6
36.04
38.37
40.49
42.37
43.92
45.04
45.52
45.09
43.49
40.57
36.38
31.22
25.57
19.9
14.59
9.73
5.2
0.76
-3.78
-8.44
-13.04
-17.27
-20.9
-23.83
-26.24
-28.51
-31.15
-34.71
-39.6
-45.89
-53.15
-60.42
-66.29
-69.26
-68.13
-62.41
-52.52
-39.74
-25.75
-12.24
-0.43
9.14
16.52
22.14
26.54
30.12
33.14
35.76
38.09
40.23
42.27
44.21
45.96
47.39
48.45
49.13
49.48
49.52
49.21
48.41
46.98
44.84
42.08
38.83
35.24
31.4
27.27
22.78
17.95
12.94
8.04
3.61
-0.14
-3.21
-5.86
-8.46
-11.31
-14.56
-18.15
-21.9
-25.65
-29.36
-33.11
-37.02
-41.24
-45.89
-51.17
-57.3
-64.4
-72.25
-80.07
-86.45
-89.7
-88.33
-81.67
-70.15
-55.26
-39.05
-23.49
-9.93
1.1
9.77
16.63
22.27
27.14
31.52
35.55
39.25
42.48
44.99
46.49
46.8
45.95
44.27
42.22
40.31
38.82
37.81
37.12
36.51
35.78
34.83
33.66
32.29
30.74
28.98
27.01
24.83
22.47
19.98
17.41
14.81
12.14
9.35
6.34
2.97
-0.84
-5.11
-9.74
-14.49
-19.05
-23.14
-26.63
-29.63
-32.51
-35.83
-40.15
-45.75
-52.51
-59.67
-66.02
-70.09
-70.53
-66.56
-58.2
-46.29
-32.28
-17.85
-4.56
6.54
14.94
20.73
24.37
26.51
27.75
28.52
29.08
29.55
30.03
30.62
31.35
32.17
32.88
33.26
33.17
32.64
31.95
31.43
31.34
31.7
32.2
32.34
31.64
29.8
26.94
23.48
20.02
17.0
14.54
12.37
9.92
6.69
2.46
-2.56
-7.88
-12.94
-17.4
-21.3
-25.01
-29.08
-34.04
-40.21
-47.56
-55.66
-63.62
-70.18
-73.95
-73.75
-69.0
-59.92
-47.57
-33.57
-19.65
-7.22
2.91
10.6
16.23
20.44
23.81
26.73
29.32
31.5
33.19
34.36
35.11
35.6
35.91
36.11
36.17
36.15
36.15
36.35
36.88
37.7
38.55
39.02
38.71
37.41
35.18
32.34
29.33
26.51
23.98
21.67
19.37
16.86
14.05
11.0
7.84
4.7
1.61
-1.45
-4.61
-7.96
-11.55
-15.37
-19.32
-23.26
-27.11
-30.85
-34.64
-38.84
-43.87
-50.06
-57.41
-65.32
-72.66
-77.92
-79.62
-76.84
-69.48
-58.36
-44.93
-30.86
-17.6
-6.09
3.29
10.67
16.43
21.08
25.07
28.69
32.03
35.03
37.52
39.38
40.54
41.09
41.15
40.93
40.56
40.15
39.75
39.35
38.93
38.37
37.56
36.36
34.69
32.58
30.2
27.85
25.83
24.32
23.27
22.43
21.43
19.99
18.01
15.58
12.96
10.37
7.93
5.58
3.07
0.13
-3.38
-7.43
-11.72
-15.87
-19.54
-22.58
-25.1
-27.46
-30.14
-33.57
-38.02
-43.41
-49.24
-54.54
-57.98
-58.22
-54.32
-46.18
-34.64
-21.38
-8.38
2.69
10.93
16.28
19.34
20.92
21.71
22.1
22.26
22.21
22.01
21.77
21.62
21.65
21.87
22.19
22.53
22.87
23.3
24.01
25.17
26.81
28.72
30.46
31.46
31.31
29.87
27.38
24.28
21.0
17.72
14.29
10.31
5.4
-0.58
-7.45
-14.74
-21.9
-28.38
-33.76
-37.82
-40.53
-42.11
-43.09
-44.16
-46.01
-49.02
-52.93
-56.84
-59.4
-59.23
-55.45
-48.0
-37.65
-25.72
-13.65
-2.62
6.73
14.26
20.24
25.06
29.07
32.45
35.23
37.37
38.84
39.72
40.16
40.34
40.41
40.44
40.44
40.4
40.3
40.12
39.84
39.34
38.49
37.12
35.07
32.35
29.06
25.41
21.68
18.11
14.85
11.92
9.21
6.57
3.87
1.09
-1.71
-4.44
-7.06
-9.7
-12.49
-15.57
-18.91
-22.33
-25.55
-28.34
-30.67
-32.7
-34.82
-37.46
-41.01
-45.63
-51.13
-56.91
-62.0
-65.21
-65.53
-62.39
-55.92
-46.89
-36.55
-26.18
-16.83
-9.11
-3.17
1.22
4.47
7.07
9.47
11.97
14.76
17.8
20.94
23.94
26.57
28.64
30.05
30.82
31.02
30.8
30.33
29.74
29.1
28.34
27.29
25.76
23.67
21.1
18.28
15.53
13.1
11.08
9.37
7.77
6.12
4.38
2.64
1.04
-0.35
-1.57
-2.79
-4.21
-6.01
-8.25
-10.92
-13.96
-17.21
-20.51
-23.67
-26.56
-29.07
-31.26
-33.35
-35.68
-38.68
-42.56
-47.22
-52.03
-56.0
-57.93
-56.83
-52.26
-44.46
-34.31
-23.08
-12.05
-2.28
5.59
11.37
15.23
17.58
18.9
19.6
19.88
19.78
19.27
18.33
17.11
15.92
15.05
14.7
14.9
15.52
16.34
17.2
17.96
18.55
18.88
18.82
18.25
17.06
15.26
13.02
10.59
8.27
6.29
4.73
3.45
2.16
0.51
-1.75
-4.7
-8.18
-11.91
-15.55
-18.89
-21.91
-24.78
-27.82
-31.42
-35.9
-41.37
-47.58
-53.81
-58.94
-61.75
-61.2
-56.82
-48.89
-38.34
-26.49
-14.74
-4.2
4.43
10.88
15.18
17.68
18.86
19.23
19.33
19.5
19.94
20.65
21.45
22.2
22.73
23.06
23.33
23.74
24.47
25.54
26.86
28.2
29.3
29.94
29.97
29.36
28.13
26.39
24.33
22.09
19.77
17.38
14.81
11.95
8.74
5.29
1.79
-1.47
-4.3
-6.65
-8.63
-10.47
-12.4
-14.61
-17.19
-20.09
-23.13
-26.07
-28.67
-30.82
-32.64
-34.46
-36.74
-39.92
-44.16
-49.23
-54.44
-58.75
-61.05
-60.37
-56.23
-48.77
-38.73
-27.33
-15.93
-5.72
2.52
8.58
12.7
15.43
17.39
19.11
20.9
22.91
25.13
27.44
29.74
31.87
33.7
35.14
36.14
36.74
37.01
37.01
36.73
36.13
35.1
33.6
31.65
29.38
26.95
24.49
22.05
19.6
17.06
14.41
11.67
8.97
6.46
4.26
2.39
0.76
-0.85
-2.67
-4.87
-7.48
-10.38
-13.37
-16.26
-19.01
-21.66
-24.4
-27.46
-31.08
-35.47
-40.71
-46.56
-52.41
-57.2
-59.71
-58.86
-54.15
-45.82
-34.86
-22.67
-10.64
0.1
8.91
15.59
20.24
23.22
24.94
25.86
26.35
26.6
26.69
26.62
26.41
26.15
25.97
26.01
26.33
26.87
27.52
28.13
28.56
28.69
28.43
27.7
26.42
24.57
22.17
19.3
16.09
12.78
9.56
6.6
3.94
1.47
-1.08
-4.04
-7.64
-11.91
-16.69
-21.64
-26.39
-30.68
-34.42
-37.72
-40.91
-44.44
-48.75
-54.04
-60.1
-66.17
-71.06
-73.44
-72.26
-67.13
-58.42
-47.24
-34.98
-23.08
-12.61
-4.22
1.94
6.09
8.76
10.61
12.26
14.15
16.41
18.9
21.34
23.48
25.22
26.62
27.82
28.94
30.06
31.19
32.33
33.46
34.51
35.34
35.7
35.28
33.86
31.38
27.99
24.08
20.1
16.51
13.56
11.37
9.83
8.72
7.78
6.71
5.29
3.33
0.75
-2.48
-6.26
-10.34
-14.39
-18.1
-21.3
-24.11
-26.97
-30.57
-35.54
-42.17
-50.09
-58.26
-65.15
-69.21
-69.35
-65.25
-57.46
-47.12
-35.62
-24.2
-13.79
-4.89
2.3
7.85
12.01
15.15
17.69
20.01
22.42
25.06
27.94
30.97
34.0
36.87
39.38
41.37
42.71
43.35
43.32
42.7
41.56
39.92
37.73
34.97
31.62
27.84
23.88
20.06
16.66
13.77
11.29
8.98
6.52
3.7
0.51
-2.94
-6.38
-9.54
-12.29
-14.7
-17.03
-19.67
-23.05
-27.51
-33.19
-39.98
-47.39
-54.55
-60.31
-63.39
-62.8
-58.08
-49.53
-38.15
-25.34
-12.62
-1.14
8.38
15.73
21.07
24.74
27.15
28.67
29.62
30.23
30.7
31.13
31.61
32.13
32.61
32.96
33.07
32.89
32.4
31.62
30.54
29.08
27.12
24.54
21.28
17.46
13.37
9.39
5.88
3.04
0.75
-1.35
-3.75
-6.8
-10.58
-14.82
-19.05
-22.85
-26.02
-28.76
-31.48
-34.76
-39.06
-44.59
-51.18
-58.23
-64.66
-69.15
-70.39
-67.46
-60.16
-49.12
-35.65
-21.37
-7.82
3.94
13.37
20.48
25.56
29.04
31.33
32.73
33.49
33.8
33.85
33.82
33.86
34.02
34.32
34.65
34.93
35.08
35.09
35.0
34.85
34.6
34.17
33.41
32.16
30.29
27.83
24.91
21.76
18.64
15.69
12.91
10.16
7.22
3.92
0.19
-3.9
-8.2
-12.51
-16.71
-20.79
-24.88
-29.23
-34.11
-39.81
-46.49
-54.13
-62.35
-70.35
-76.94
-80.72
-80.49
-75.68
-66.58
-54.33
-40.59
-27.06
-15.04
-5.16
2.61
8.69
13.61
17.81
21.56
24.96
28.02
30.73
33.12
35.16
36.83
38.06
38.8
39.12
39.18
39.24
39.51
40.04
40.61
40.87
40.38
38.87
36.32
32.93
29.11
25.27
21.75
18.64
15.85
13.12
10.15
6.71
2.75
-1.54
-5.84
-9.85
-13.39
-16.54
-19.61
-23.08
-27.44
-33.03
-39.85
-47.42
-54.76
-60.52
-63.28
-61.94
-56.12
-46.33
-33.87
-20.45
-7.73
3.12
11.61
17.87
22.36
25.65
28.08
29.8
30.8
31.07
30.8
30.35
30.14
30.48
31.47
32.95
34.61
36.15
37.35
38.06
38.17
37.51
35.94
33.42
30.1
26.31
22.41
18.65
15.01
11.27
7.15
2.57
-2.33
-7.16
-11.55
-15.3
-18.58
-21.82
-25.58
-30.37
-36.39
-43.44
-50.91
-57.76
-62.75
-64.64
-62.58
-56.39
-46.7
-34.78
-22.23
-10.51
-0.58
7.24
13.2
17.81
21.59
24.88
27.79
30.29
32.31
33.86
35.05
36.04
37.0
