-33.47
-36.24
-39.25
-42.98
-47.79
-53.75
-60.42
-66.84
-71.61
-73.3
-70.85
-64.0
-53.41
-40.47
-26.87
-14.1
-3.12
5.7
12.51
17.64
21.49
24.38
26.56
28.22
29.5
30.5
31.28
31.84
32.18
32.31
32.28
32.18
32.08
32.04
32.04
32.01
31.81
31.28
30.26
28.64
26.37
23.52
20.25
16.87
13.68
10.99
8.93
7.41
6.15
4.7
2.65
-0.24
-3.97
-8.26
-12.72
-16.94
-20.74
-24.14
-27.44
-31.06
-35.46
-40.93
-47.53
-54.88
-62.12
-68.0
-71.12
-70.31
-65.03
-55.65
-43.32
-29.67
-16.32
-4.52
5.08
12.36
17.55
21.03
23.17
24.29
24.69
24.69
24.56
24.53
24.75
25.19
25.78
26.39
26.97
27.53
28.15
28.87
29.65
30.23
30.25
29.32
27.21
23.97
19.93
15.59
11.46
7.81
4.61
1.56
-1.69
-5.38
-9.47
-13.71
-17.76
-21.44
-24.78
-28.09
-31.85
-36.55
-42.48
-49.58
-57.23
-64.31
-69.35
-70.95
-68.14
-60.82
-49.77
-36.51
-22.77
-10.06
0.72
9.34
16.05
21.3
25.49
28.85
31.48
33.42
34.81
35.84
36.71
37.58
38.47
39.29
39.94
40.41
40.81
41.3
41.96
42.74
43.33
43.33
42.34
40.16
36.86
32.76
28.29
23.89
19.89
16.45
13.52
10.95
8.46
5.79
2.74
-0.73
-4.52
-8.37
-12.08
-15.53
-18.76
-22.0
-25.52
-29.64
-34.58
-40.4
-46.94
-53.69
-59.75
-63.9
-64.86
-61.69
-54.12
-42.75
-28.93
-14.42
-0.88
10.53
19.33
25.66
30.03
33.08
35.35
37.21
38.88
40.45
41.88
43.06
43.81
43.89
43.11
41.41
38.88
35.85
32.71
29.84
27.44
25.52
23.89
22.34
20.67
18.81
16.79
14.7
12.63
10.7
8.97
7.49
6.26
5.22
4.22
3.0
1.24
-1.27
-4.59
-8.55
-12.79
-16.88
-20.51
-23.63
-26.47
-29.44
-33.13
-38.0
-44.26
-51.64
-59.29
-65.83
-69.67
-69.45
-64.48
-55.11
-42.55
-28.63
-15.17
-3.56
5.51
12.04
16.46
19.38
21.33
22.68
23.61
24.19
24.53
24.74
25.04
25.57
26.45
27.62
28.97
30.31
31.52
32.51
33.26
33.72
33.78
33.27
31.96
29.71
26.51
22.55
18.2
13.94
10.18
7.08
4.49
2.01
-0.84
-4.37
-8.63
-13.29
-17.87
-21.96
-25.38
-28.28
-31.1
-34.42
-38.82
-44.66
-51.86
-59.81
-67.24
-72.52
-74.04
-70.78
-62.66
-50.63
-36.41
-21.89
-8.7
2.2
10.55
16.62
21.0
24.33
27.12
29.69
32.13
34.4
36.37
37.98
39.2
40.09
40.72
41.15
41.41
41.58
41.72
41.88
42.01
41.93
41.37
40.1
38.02
35.22
31.93
28.43
24.98
21.67
18.5
15.43
12.4
9.43
6.58
3.95
1.56
-0.67
-2.95
-5.54
-8.69
-12.46
-16.68
-20.99
-25.04
-28.59
-31.7
-34.72
-38.18
-42.61
-48.28
-55.02
-62.1
-68.35
-72.36
-72.83
-68.99
-60.87
-49.3
-35.73
-21.81
-9.0
1.71
9.94
15.79
19.68
22.17
23.78
24.91
25.81
26.64
27.49
28.48
29.65
31.0
32.39
33.68
34.75
35.63
36.46
37.39
38.41
39.27
39.53
38.76
36.72
33.54
29.57
25.29
21.02
16.88
12.75
8.47
3.96
-0.69
-5.23
-9.38
-12.95
-15.93
-18.49
-20.92
-23.46
-26.19
-29.03
-31.77
-34.2
-36.21
-37.84
-39.27
-40.82
-42.83
-45.68
-49.59
-54.46
-59.72
-64.29
-66.79
-65.96
-61.11
-52.42
-40.98
-28.42
-16.41
-6.19
1.71
7.37
11.27
13.92
15.72
16.94
17.73
18.29
18.87
19.76
21.15
23.04
25.23
27.33
28.93
29.73
29.69
28.99
27.95
26.91
26.0
25.18
24.24
22.93
21.16
19.03
16.76
14.58
12.57
10.64
8.59
6.12
3.06
-0.69
-5.09
-9.99
-15.17
-20.3
-25.09
-29.29
-32.83
-35.83
-38.66
-41.77
-45.62
-50.44
-56.08
-61.86
-66.64
-68.99
-67.61
-61.83
-51.85
-38.77
-24.3
-10.24
2.03
11.77
18.9
23.83
27.14
29.42
31.1
32.45
33.61
34.62
35.47
36.18
36.74
37.17
37.49
37.67
37.66
37.45
37.01
36.4
35.61
34.61
33.37
31.8
29.88
27.62
25.15
22.62
20.2
18.01
16.07
14.29
12.5
10.55
8.34
5.91
3.38
0.83
-1.73
-4.46
-7.61
-11.33
-15.6
-20.16
-24.6
-28.57
-31.91
-34.71
-37.36
-40.38
-44.25
-49.21
-55.02
-60.89
-65.48
-67.32
-65.21
-58.71
-48.35
-35.51
-21.95
-9.31
1.31
9.48
15.31
19.27
21.96
23.93
25.67
27.5
29.55
31.79
34.06
36.14
37.83
39.02
39.68
39.84
39.58
38.96
38.09
37.05
35.91
34.7
33.4
31.88
30.05
27.83
25.23
22.34
19.33
16.39
13.66
11.18
8.88
6.59
4.07
1.15
-2.24
-6.03
-10.01
-13.91
-17.5
-20.7
-23.58
-26.34
-29.3
-32.79
-37.07
-42.27
-48.22
-54.32
-59.55
-62.59
-62.26
-57.86
-49.53
-38.27
-25.62
-13.23
-2.4
6.2
12.53
16.96
19.99
22.06
23.41
24.2
24.53
24.58
24.6
24.85
25.5
26.55
27.85
29.15
30.25
30.98
31.31
31.25
30.83
30.04
28.82
27.1
24.8
21.94
18.59
14.95
11.28
7.81
4.74
2.1
-0.21
-2.39
-4.66
-7.22
-10.15
-13.38
-16.82
-20.25
-23.52
-26.59
-29.56
-32.66
-36.27
-40.78
-46.42
-53.17
-60.49
-67.32
-72.21
-73.7
-70.78
-63.28
-51.95
-38.31
-24.13
-10.97
0.13
8.8
15.16
19.64
22.73
24.93
26.64
28.16
29.69
31.31
32.95
34.49
35.75
36.59
37.01
37.1
36.98
36.76
36.45
35.95
35.08
33.73
31.93
29.79
27.48
25.11
22.67
20.07
17.26
14.25
11.19
8.25
5.57
3.12
0.77
-1.73
-4.6
-7.93
-11.7
-15.7
-19.71
-23.47
-26.85
-29.8
-32.47
-35.15
-38.27
-42.31
-47.64
-54.21
-61.44
-68.14
-72.75
-73.77
-70.27
-62.23
-50.59
-36.91
-22.95
-10.14
0.63
9.08
15.35
19.93
23.34
26.08
28.5
30.8
32.99
34.95
36.54
37.66
38.32
38.61
38.7
38.73
38.78
38.85
38.84
38.65
38.18
37.35
36.14
34.54
32.52
30.07
27.21
24.04
20.79
17.68
14.86
12.35
9.94
7.33
4.23
0.49
-3.83
-8.45
-13.01
-17.21
-20.86
-24.02
-26.95
-30.04
-33.77
-38.47
-44.26
-50.9
-57.65
-63.43
-66.9
-66.86
-62.57
-54.07
-42.27
-28.68
-15.09
-2.99
6.7
13.76
18.53
21.59
23.46
24.5
24.89
24.77
24.4
24.15
24.4
25.38
27.03
29.06
31.02
32.52
33.37
33.57
33.26
32.57
31.5
29.91
27.63
24.52
20.65
16.3
11.86
7.71
4.06
0.89
-2.03
-5.01
-8.27
-11.86
-15.66
-19.4
-22.82
-25.77
-28.27
-30.51
-32.84
-35.74
-39.71
-45.18
-52.2
-60.33
-68.51
-75.21
-78.76
-77.82
-71.88
-61.42
-47.83
-32.97
-18.67
-6.27
3.62
11.05
16.53
20.71
24.17
27.3
30.27
33.08
35.61
37.75
39.4
40.56
41.3
41.67
41.75
41.52
40.99
40.13
38.96
37.51
35.81
33.8
31.42
28.63
25.44
21.96
18.41
15.02
12.02
9.5
7.36
5.34
3.11
0.37
-3.02
-6.96
-11.18
-15.35
-19.24
-22.8
-26.18
-29.66
-33.56
-38.21
-43.89
-50.77
-58.72
-67.18
-75.03
-80.77
-82.9
-80.37
-73.02
-61.67
-47.89
-33.48
-19.97
-8.28
1.34
9.12
15.48
20.75
25.14
28.7
31.49
33.6
35.25
36.68
38.08
39.58
41.08
42.44
43.5
44.2
44.66
44.99
45.28
45.41
45.04
43.72
41.11
37.11
31.94
26.13
20.28
14.91
10.26
6.32
2.81
-0.58
-4.13
-7.89
-11.75
-15.47
-18.8
-21.65
-24.13
-26.6
-29.48
-33.23
-38.14
-44.23
-51.16
-58.12
-63.88
-67.01
-66.21
-60.74
-50.74
-37.3
-22.13
-7.16
6.12
16.85
24.93
30.71
34.72
37.37
38.88
39.41
39.2
38.63
38.23
38.45
39.53
41.31
43.36
45.13
46.18
46.35
45.8
44.82
43.63
42.21
40.35
37.73
34.18
29.78
24.84
19.84
15.17
11.01
7.27
3.66
-0.13
-4.28
-8.78
-13.42
-17.93
-22.12
-25.96
-29.58
-33.3
-37.48
-42.5
-48.69
-56.21
-64.79
-73.64
-81.38
-86.27
-86.72
-81.84
-71.8
-57.86
-41.97
-26.17
-12.03
-0.29
9.05
16.49
22.59
27.82
32.37
36.29
39.55
42.18
44.24
45.88
47.17
48.17
48.87
49.26
49.35
49.23
49.02
48.83
48.68
48.43
47.81
46.5
44.24
40.91
36.63
31.72
26.57
21.58
17.01
12.97
9.32
5.85
2.27
-1.66
-6.0
-10.67
-15.43
-20.0
-24.12
-27.73
-30.99
-34.28
-38.15
-43.15
-49.67
-57.69
-66.64
-75.25
-81.82
-84.52
-82.05
-74.09
-61.52
-46.14
-30.14
-15.39
-3.01
6.72
14.12
19.78
24.24
27.86
30.88
33.41
35.57
37.42
39.0
40.4
41.65
42.83
43.95
44.97
45.81
46.39
46.67
46.62
46.23
45.41
44.01
41.83
38.78
34.87
30.31
25.47
20.75
16.52
12.96
9.99
7.34
4.58
1.38
-2.41
-6.65
-11.05
-15.27
-19.11
-22.56
-25.84
-29.32
-33.41
-38.49
-44.79
-52.21
-60.11
-67.32
-72.35
-73.7
-70.42
-62.44
-50.63
-36.57
-22.04
-8.56
2.85
11.82
18.43
22.99
25.9
27.52
28.2
28.24
27.96
27.65
27.52
27.7
28.22
28.99
29.9
30.87
31.82
32.71
33.42
33.74
33.38
32.04
29.55
26.0
21.7
17.11
12.66
8.64
5.08
1.77
-1.56
-5.15
-9.09
-13.29
-17.54
-21.59
-25.27
-28.61
-31.85
-35.52
-40.2
-46.33
-53.87
-62.13
-69.7
-74.88
-76.07
-72.41
-64.01
-52.0
-38.1
-24.11
-11.45
-0.86
7.53
14.0
19.02
22.99
26.18
28.74
30.77
32.38
33.71
34.96
36.32
37.87
39.61
41.38
42.95
44.08
44.59
44.41
43.65
42.43
40.86
38.99
36.73
34.0
30.74
27.03
23.09
19.2
15.66
12.57
9.87
7.3
4.52
1.27
-2.59
-6.95
-11.61
-16.28
-20.76
-24.95
-28.94
-32.94
-37.33
-42.48
-48.71
-56.05
-64.08
-71.85
-77.92
-80.74
-79.07
-72.39
-61.21
-46.88
-31.28
-16.26
-3.17
7.33
15.28
21.13
25.49
28.87
31.66
34.09
36.28
38.29
40.11
41.65
42.83
43.55
43.82
43.71
43.34
42.83
42.27
41.73
41.21
40.67
39.96
38.85
37.06
34.42
30.91
26.75
22.38
18.25
14.69
11.75
9.26
6.82
4.06
0.75
-3.09
-7.19
-11.21
-14.89
-18.13
-21.06
-23.92
-27.01
-30.62
-35.03
-40.44
-46.86
-53.94
-60.82
-66.17
-68.52
-66.66
-60.18
-49.62
-36.36
-22.22
-8.9
2.39
11.09
17.27
21.36
23.97
25.6
26.64
27.27
27.61
27.81
28.03
28.49
29.33
30.52
31.94
33.35
34.56
35.48
36.09
36.38
36.21
35.34
33.52
30.63
26.78
22.33
17.73
13.35
9.38
5.78
2.32
-1.25
-5.11
-9.3
-13.62
-17.77
-21.48
-24.61
-27.31
-30.01
-33.29
-37.68
-43.39
-50.11
-56.95
-62.54
-65.4
-64.36
-58.94
-49.56
-37.43
-24.23
-11.59
-0.72
7.84
14.13
18.62
21.88
24.4
26.47
28.23
29.71
30.96
31.96
32.77
33.38
33.79
34.0
34.0
33.82
33.52
33.15
32.71
32.11
31.23
29.93
28.08
25.61
22.6
19.18
15.61
12.24
9.32
6.99
5.19
3.66
2.06
0.04
-2.6
-5.89
-9.62
-13.51
-17.23
-20.62
-23.69
-26.64
-29.81
-33.56
-38.19
-43.82
-50.3
-57.08
-63.22
-67.45
-68.49
-65.45
-58.17
-47.42
-34.66
-21.62
-9.8
-0.1
7.3
12.69
16.63
19.64
22.09
24.18
26.02
27.7
29.22
30.57
31.68
32.41
32.73
32.62
32.23
31.74
31.31
30.98
30.64
30.03
28.93
27.24
25.0
22.46
19.86
17.41
15.17
13.08
11.02
8.86
6.54
4.07
1.51
-1.07
-3.64
-6.2
-8.85
-11.68
-14.77
-18.05
-21.4
-24.55
-27.31
-29.59
-31.44
-33.17
-35.16
-37.86
-41.64
-46.54
-52.18
-57.62
-61.55
-62.54
-59.6
-52.48
-41.86
-29.17
-16.12
-4.24
5.52
12.87
18.05
21.53
23.79
25.14
25.76
25.78
25.39
24.87
24.53
24.64
25.27
26.34
27.6
28.79
29.7
30.19
30.21
29.75
28.78
27.32
25.39
23.07
20.4
17.41
14.15
10.72
7.27
4.03
1.23
-1.07
-3.01
-4.89
-7.04
-9.61
-12.54
-15.54
-18.3
-20.61
-22.5
-24.25
-26.27
-28.97
-32.74
-37.71
-43.74
-50.31
-56.45
-60.86
-62.27
-59.76
-53.12
-42.97
-30.64
-17.75
-5.78
4.24
11.87
17.2
20.65
22.75
24.01
24.85
25.55
26.25
26.98
27.71
28.36
28.89
29.3
29.58
29.78
29.91
29.97
29.94
29.77
29.35
28.52
27.18
25.25
22.86
20.21
17.57
15.13
12.94
10.89
8.84
6.68
4.42
2.17
0.01
-2.03
-4.08
-6.31
-8.92
-11.99
-15.42
-19.04
-22.56
-25.79
-28.66
-31.26
-33.86
-36.81
-40.45
-44.98
-50.31
-55.95
-60.95
-64.09
-64.1
-60.18
-52.24
-41.1
-28.25
-15.37
-3.89
5.38
12.28
17.13
20.41
22.58
24.02
25.03
25.85
26.69
27.62
28.62
29.54
30.24
30.65
30.77
30.68
30.46
30.15
29.7
29.02
28.02
26.67
24.98
23.06
21.0
18.87
16.64
14.23
11.58
8.69
5.68
2.73
0.06
-2.26
-4.27
-6.12
-8.05
-10.22
-12.71
-15.42
-18.12
-20.5
-22.37
-23.73
-24.83
-26.12
-28.14
-31.31
-35.72
-41.01
-46.34
-50.52
-52.26
-50.55
-45.04
-36.13
-24.95
-13.06
-1.94
7.28
14.12
18.64
21.24
22.46
22.79
22.6
22.17
21.67
21.25
21.06
21.2
21.75
22.66
23.82
25.04
26.08
26.75
26.93
26.58
25.72
24.4
22.63
20.46
17.91
15.06
12.04
8.99
6.09
3.44
1.09
-1.02
-3.01
-5.07
-7.35
-9.94
-12.8
-15.77
-18.63
-21.25
-23.61
-25.9
-28.42
-31.51
-35.42
-40.28
-46.04
-52.38
-58.7
-64.07
-67.31
-67.28
-63.24
-55.13
-43.72
-30.46
-17.04
-5.0
4.75
11.93
16.85
20.13
22.47
24.35
26.08
27.77
29.41
30.93
32.24
33.25
33.92
34.24
34.27
34.11
33.87
33.62
33.39
33.08
32.52
31.52
29.9
27.62
24.82
21.8
18.89
16.33
14.18
12.3
10.43
8.4
6.2
4.02
2.1
0.56
-0.7
-2.02
-3.8
-6.31
-9.63
-13.54
-17.71
-21.85
-25.77
-29.5
-33.21
-37.21
-41.84
-47.37
-53.84
-60.87
-67.52
-72.46
-74.18
-71.56
-64.28
-52.98
-39.13
-24.58
-11.02
0.4
9.22
15.58
19.94
22.84
24.76
26.02
26.89
27.56
28.2
28.95
29.85
30.81
31.74
32.47
32.97
33.22
33.34
33.4
33.44
33.34
32.93
32.0
30.44
28.28
25.68
22.89
20.14
17.57
15.15
12.8
10.4
7.87
5.28
2.78
0.51
-1.47
-3.25
-5.06
-7.18
-9.85
-13.09
-16.75
-20.52
-24.1
-27.31
-30.22
-33.15
-36.6
-41.1
-46.87
-53.65
-60.55
-66.13
-68.81
-67.27
-61.01
-50.47
-36.99
-22.43
-8.57
3.22
12.28
18.57
22.51
24.64
25.53
25.61
25.24
24.75
24.41
24.44
24.92
25.75
26.73
27.66
28.39
28.9
29.27
29.53
29.69
29.62
29.12
27.93
25.89
23.0
19.46
15.62
11.89
8.59
5.82
3.42
1.05
-1.64
-4.87
-8.59
-12.52
-16.31
-19.61
-22.24
-24.27
-25.98
-27.85
-30.47
-34.34
-39.7
-46.28
-53.18
-59.02
-62.22
-61.51
-56.32
-47.06
-34.98
-21.8
-9.18
1.69
10.28
16.63
21.15
24.31
26.48
27.92
28.78
29.2
29.35
29.46
29.69
30.16
30.88
31.78
32.75
33.67
34.45
35.01
35.22
34.98
34.15
32.63
30.44
27.65
24.42
20.89
17.26
13.68
10.32
7.37
4.9
2.89
1.14
-0.68
-2.9
-5.77
-9.26
-13.19
-17.22
-21.07
-24.61
-27.93
-31.25
-34.91
-39.24
-44.48
-50.63
-57.35
-63.86
-68.94
-71.25
-69.7
-63.91
-54.32
-42.18
-29.11
-16.63
-5.8
2.89
9.51
14.36
17.86
20.36
22.13
23.39
24.33
25.12
25.91
26.84
27.97
29.3
30.74
32.1
33.23
34.03
34.49
34.67
34.63
34.35
33.72
32.58
30.81
28.44
25.55
22.34
19.0
15.66
12.44
9.4
6.6
4.04
1.61
-0.86
-3.56
-6.57
-9.82
-13.14
-16.28
-19.17
-21.88
-24.68
-27.96
-32.04
-37.13
-43.13
-49.61
-55.73
-60.35
-62.25
-60.47
-54.68
-45.37
-33.71
-21.27
-9.56
0.39
8.18
13.94
18.1
21.14
23.37
24.99
26.13
26.91
27.52
28.17
28.99
29.99
31.06
32.02
32.7
33.09
33.25
33.36
33.43
33.37
32.88
31.63
29.42
26.31
22.63
18.82
15.27
12.12
9.22
6.22
2.81
-1.19
-5.66
-10.31
-14.74
-18.66
-21.96
-24.77
-27.44
-30.42
-34.2
-39.11
-45.16
-51.9
-58.31
-63.05
-64.75
-62.46
-56.02
-46.13
-34.15
-21.69
-10.17
-0.48
7.12
12.81
17.06
20.3
22.91
25.08
26.91
28.44
29.74
30.87
31.9
32.88
33.8
34.62
35.29
