-68.72
-61.22
-50.22
-37.18
-23.81
-11.6
-1.46
6.32
12.01
16.12
19.23
21.79
24.06
26.17
28.12
29.9
31.52
33.0
34.34
35.51
36.46
37.18
37.66
37.93
37.99
37.78
37.2
36.12
34.47
32.24
29.5
26.32
22.79
19.0
15.09
11.24
7.67
4.56
1.98
-0.17
-2.13
-4.23
-6.7
-9.67
-12.99
-16.38
-19.46
-21.96
-23.83
-25.27
-26.75
-28.82
-32.0
-36.56
-42.36
-48.74
-54.56
-58.39
-58.88
-55.2
-47.33
-36.12
-23.07
-9.9
1.92
11.43
18.32
22.77
25.23
26.21
26.15
25.43
24.4
23.38
22.69
22.56
23.09
24.2
25.68
27.26
28.7
29.88
30.7
31.15
31.15
30.6
29.46
27.73
25.55
23.09
20.54
17.96
15.36
12.72
10.02
7.34
4.81
2.53
0.52
-1.31
-3.2
-5.41
-8.1
-11.26
-14.74
-18.29
-21.74
-25.06
-28.41
-32.06
-36.33
-41.43
-47.42
-53.98
-60.5
-65.96
-69.17
-69.03
-64.93
-57.02
-46.22
-33.95
-21.77
-10.87
-1.88
5.13
10.47
14.53
17.67
20.13
22.06
23.62
24.93
26.09
27.1
27.9
28.41
28.64
28.74
28.9
29.32
30.03
30.91
31.69
32.08
31.86
30.95
29.4
27.29
24.73
21.84
18.77
15.69
12.79
10.2
7.96
6.04
4.33
2.67
0.91
-1.08
-3.39
-6.05
-8.99
-12.09
-15.15
-18.05
-20.74
-23.37
-26.23
-29.66
-33.94
-39.08
-44.7
-49.95
-53.68
-54.72
-52.23
-45.98
-36.45
-24.7
-12.01
0.44
11.8
21.71
30.11
37.13
42.8
47.0
49.46
49.97
48.57
45.69
42.09
38.57
35.65
33.39
31.51
29.7
27.88
26.32
25.41
25.4
26.12
27.07
27.64
27.45
26.49
25.02
23.44
21.97
20.68
19.44
18.16
16.73
15.08
13.12
10.79
8.03
4.91
1.59
-1.69
-4.76
-7.56
-10.15
-12.73
-15.5
-18.64
-22.23
-26.15
-30.04
-33.27
-35.03
-34.54
-31.36
-25.54
-17.68
-8.76
0.16
8.18
14.81
19.87
23.5
25.86
27.12
27.37
26.72
25.33
23.44
21.37
19.34
17.43
15.56
13.54
11.22
8.61
5.85
3.14
0.59
-1.84
-4.36
-7.2
-10.51
-14.28
-18.37
-22.56
-26.61
-30.29
-33.38
-35.74
-37.34
-38.3
-38.86
-39.34
-39.94
-40.66
-41.25
-41.24
-40.08
-37.31
-32.74
-26.51
-19.16
-11.44
-4.21
1.9
6.52
9.72
11.89
13.63
15.5
17.81
20.56
23.39
25.72
27.0
26.86
25.29
22.59
19.26
15.75
12.35
9.11
5.96
2.87
-0.14
-2.95
-5.5
-7.83
-10.03
-12.19
-14.28
-16.09
-17.35
-17.9
-17.79
-17.36
-17.1
-17.45
-18.63
-20.56
-22.92
-25.32
-27.47
-29.28
-30.82
-32.32
-33.96
-35.89
-38.1
-40.53
-43.0
-45.34
-47.35
-48.99
-50.35
-51.73
-53.57
-56.28
-60.11
-64.9
-70.05
-74.59
-77.39
-77.38
-73.94
-66.96
-56.88
-44.6
-31.19
-17.73
-5.1
6.0
15.15
22.16
27.12
30.33
32.2
33.13
33.34
32.86
31.56
29.4
26.48
23.12
19.76
16.8
14.43
12.59
10.98
9.18
6.77
3.49
-0.72
-5.72
-11.25
-17.05
-22.91
-28.75
-34.58
-40.41
-46.25
-52.12
-57.98
-63.78
-69.38
-74.57
-79.14
-82.97
-86.18
-89.1
-92.17
-95.63
-99.28
-102.4
-103.84
-102.42
-97.32
-88.42
-76.3
-62.06
-47.03
-32.32
-18.73
-6.63
3.94
13.06
20.88
27.52
33.1
37.78
41.79
45.36
48.7
51.94
55.16
58.32
61.39
64.32
67.08
69.62
71.91
73.87
75.39
76.3
76.44
75.71
74.22
72.3
70.4
68.9
67.86
66.96
65.6
63.16
59.39
54.53
49.19
44.07
39.61
35.77
32.1
27.93
22.64
15.86
7.51
-2.09
-12.25
-21.87
-29.55
-33.94
-34.14
-30.02
-22.36
-12.59
-2.35
7.03
14.85
21.0
25.79
29.66
32.91
35.69
38.0
39.79
41.04
41.82
42.23
42.42
42.49
42.48
42.4
42.2
41.89
41.47
40.98
40.39
39.59
38.38
36.57
34.06
30.94
27.43
23.88
20.61
17.81
15.46
13.38
11.31
9.05
6.54
3.9
1.36
-0.89
-2.8
-4.53
-6.43
-8.96
-12.58
-17.66
-24.31
-32.25
-40.72
-48.54
-54.26
-56.56
-54.64
-48.46
-38.86
-27.21
-15.09
-3.79
5.9
13.79
20.04
24.99
28.93
32.04
34.37
36.01
37.06
37.76
38.36
39.12
40.15
41.48
43.02
44.63
46.18
47.55
48.61
49.15
48.93
47.72
45.39
41.96
37.64
32.77
27.62
22.36
16.98
11.38
5.5
-0.61
-6.74
-12.56
-17.75
-22.16
-25.89
-29.28
-32.87
-37.18
-42.49
-48.65
-54.98
-60.36
-63.46
-63.16
-58.86
-50.76
-39.83
-27.55
-15.51
-4.96
3.4
9.55
13.87
16.91
19.1
20.62
21.47
21.56
20.89
19.59
17.84
15.82
13.56
11.03
8.2
5.18
2.32
0.11
-1.01
-0.85
0.36
2.07
3.61
4.45
4.36
3.47
2.04
0.36
-1.41
-3.23
-5.13
-7.15
-9.32
-11.68
-14.27
-17.15
-20.29
-23.57
-26.82
-29.86
-32.68
-35.43
-38.42
-42.03
-46.57
-52.18
-58.54
-64.94
-70.19
-72.93
-72.03
-66.96
-58.02
-46.26
-33.12
-20.02
-7.98
2.48
11.28
18.52
24.4
29.08
32.67
35.28
37.06
38.18
38.86
39.35
39.86
40.51
41.22
41.84
42.19
42.21
41.99
41.67
41.33
40.87
40.05
38.61
36.44
33.59
30.28
26.77
23.27
19.96
16.88
14.09
11.52
9.05
6.46
3.52
0.15
-3.58
-7.42
-11.08
-14.34
-17.18
-19.75
-22.39
-25.48
-29.41
-34.41
-40.46
-47.13
-53.48
-58.22
-59.98
-57.74
-51.31
-41.34
-29.22
-16.57
-4.84
5.09
12.9
18.7
22.8
25.52
27.16
28.01
28.4
28.66
29.04
29.63
30.35
31.02
31.4
31.33
30.83
30.02
29.1
28.21
27.34
26.33
24.9
22.8
19.96
16.52
12.82
9.24
6.08
3.36
0.89
-1.7
-4.71
-8.27
-12.2
-16.11
-19.62
-22.48
-24.79
-26.92
-29.4
-32.74
-37.27
-43.02
-49.64
-56.38
-62.12
-65.54
-65.38
-60.87
-52.08
-39.97
-26.2
-12.63
-0.77
8.59
15.41
20.22
23.7
26.38
28.55
30.29
31.58
32.44
32.96
33.23
33.38
33.51
33.64
33.79
33.95
34.04
34.01
33.82
33.39
32.64
31.43
29.68
27.32
24.42
21.15
17.74
14.44
11.41
8.71
6.34
4.26
2.44
0.79
-0.82
-2.59
-4.71
-7.28
-10.24
-13.44
-16.63
-19.63
-22.37
-24.93
-27.5
-30.4
-33.96
-38.46
-43.98
-50.19
-56.25
-60.91
-62.71
-60.56
-54.07
-43.82
-31.21
-17.99
-5.76
4.46
12.3
17.94
21.82
24.44
26.21
27.51
28.6
29.63
30.69
31.69
32.53
33.13
33.47
33.61
33.61
33.54
33.37
33.07
32.56
31.78
30.66
29.14
27.28
25.17
22.97
20.79
18.68
16.54
14.24
11.69
8.94
6.18
3.66
1.49
-0.37
-2.13
-4.04
-6.24
-8.77
-11.49
-14.25
-16.96
-19.63
-22.36
-25.32
-28.65
-32.51
-37.0
-42.12
-47.61
-52.87
-56.92
-58.55
-56.7
-50.88
-41.45
-29.55
-16.81
-4.78
5.39
13.25
18.87
22.65
24.98
26.2
26.57
26.33
25.76
25.13
24.65
24.44
24.47
24.68
24.93
25.09
25.08
24.82
24.33
23.64
22.78
21.69
20.26
18.38
15.96
13.04
9.79
6.51
3.48
0.93
-1.1
-2.71
-4.16
-5.75
-7.73
-10.19
-13.05
-16.09
-19.09
-21.9
-24.52
-27.05
-29.69
-32.71
-36.36
-40.9
-46.33
-52.27
-57.85
-61.8
-62.84
-60.07
-53.43
-43.68
-32.24
-20.6
-9.93
-0.83
6.63
12.7
17.62
21.57
24.6
26.75
28.14
28.96
29.45
29.78
30.07
30.31
30.47
30.52
30.48
30.45
30.47
30.59
30.72
30.71
30.37
29.54
28.16
26.27
24.03
21.61
19.16
16.73
14.34
11.95
9.54
7.12
4.77
2.53
0.46
-1.44
-3.25
-5.03
-6.93
-9.14
-11.8
-14.93
-18.41
-22.03
-25.51
-28.76
-31.85
-35.03
-38.65
-42.99
-48.12
-53.81
-59.49
-64.28
-67.11
-66.99
-63.26
-55.92
-45.64
-33.65
-21.37
-10.01
-0.35
7.35
13.23
17.59
20.81
23.16
24.9
26.18
27.15
27.88
28.4
28.76
29.01
29.2
29.39
29.61
29.83
30.0
30.09
30.06
29.9
29.57
29.02
28.18
27.01
25.49
23.59
21.37
18.83
16.05
13.09
10.14
7.34
4.83
2.64
0.6
-1.49
-3.83
-6.48
-9.36
-12.28
-15.09
-17.7
-20.18
-22.63
-25.18
-28.02
-31.32
-35.23
-39.76
-44.52
-48.72
-51.26
-51.05
-47.42
-40.45
-31.03
-20.51
-10.33
-1.54
5.38
10.47
14.04
16.47
18.01
18.78
18.9
18.57
18.06
17.72
17.81
18.45
19.6
21.09
22.69
24.23
25.59
26.76
27.73
28.46
28.8
28.53
27.4
25.28
22.21
18.45
14.4
10.49
6.99
4.01
1.45
-0.86
-3.1
-5.39
-7.82
-10.4
-13.14
-15.99
-18.84
-21.57
-24.07
-26.37
-28.67
-31.28
-34.61
-38.98
-44.48
-50.86
-57.45
-63.19
-66.84
-67.28
-63.86
-56.65
-46.44
-34.56
-22.48
-11.39
-2.03
5.42
11.11
15.4
18.67
21.22
23.31
25.07
26.56
27.76
28.67
29.29
29.72
30.14
30.7
31.47
32.42
33.43
34.32
34.89
35.01
34.56
33.5
31.84
29.72
27.28
24.68
21.99
19.2
16.27
13.24
10.19
7.3
4.69
2.38
0.21
-2.07
-4.71
-7.8
-11.27
-14.88
-18.36
-21.55
-24.47
-27.33
-30.47
-34.19
-38.72
-44.06
-49.95
-55.84
-60.87
-64.04
-64.37
-61.22
-54.53
-44.89
-33.47
-21.64
-10.61
-1.16
6.47
12.44
17.05
20.63
23.39
25.44
26.91
27.98
28.85
29.76
30.83
32.04
33.26
34.27
34.88
35.03
34.83
34.45
34.02
33.55
32.84
31.63
29.67
26.92
23.55
19.89
16.33
13.08
10.17
7.47
4.78
1.92
-1.17
-4.45
-7.78
-10.99
-13.89
-16.36
-18.38
-20.1
-21.88
-24.17
-27.44
-31.94
-37.56
-43.79
-49.67
-54.02
-55.7
-53.92
-48.51
-40.02
-29.52
-18.42
-7.98
0.95
8.02
13.31
17.12
19.76
21.39
22.1
22.0
21.3
20.39
19.72
19.67
20.39
21.78
23.51
25.26
26.8
28.09
29.22
30.21
30.93
31.13
30.47
28.75
25.97
22.36
18.26
14.04
9.97
6.19
2.7
-0.54
-3.61
-6.62
-9.64
-12.67
-15.68
-18.56
-21.24
-23.68
-25.98
-28.37
-31.19
-34.82
-39.5
-45.21
-51.52
-57.5
-61.93
-63.54
-61.47
-55.56
-46.44
-35.38
-23.87
-13.17
-4.0
3.46
9.44
14.3
18.34
21.73
24.54
26.79
28.52
29.8
30.75
31.47
32.06
32.62
33.17
33.72
34.19
34.53
34.71
34.77
34.74
34.62
34.33
33.68
32.5
30.68
28.25
25.37
22.26
19.09
15.99
13.06
10.36
7.94
5.74
3.6
1.26
-1.53
-4.88
-8.68
-12.61
-16.33
-19.62
-22.49
-25.2
-28.16
-31.8
-36.42
-42.11
-48.54
-54.94
-60.17
-62.91
-62.1
-57.29
-48.88
-37.98
-26.09
-14.62
-4.55
3.7
10.13
15.02
18.7
21.52
23.8
25.79
27.66
29.44
31.04
32.33
33.21
33.74
34.04
34.26
34.49
34.73
34.89
34.84
34.45
33.67
32.5
30.99
29.2
27.17
24.89
22.36
19.55
16.58
13.59
10.77
8.28
6.11
4.11
2.02
-0.44
-3.41
-6.85
-10.54
-14.2
-17.55
-20.43
-22.9
-25.2
-27.7
-30.83
-34.95
-40.22
-46.38
-52.74
-58.14
-61.19
-60.7
-56.04
-47.43
-35.89
-23.0
-10.37
0.75
9.73
16.52
21.46
24.95
27.3
28.72
29.34
29.31
28.87
28.32
27.97
28.02
28.54
29.47
30.64
31.84
32.87
33.55
33.74
33.35
32.29
30.52
28.04
24.92
21.32
17.44
13.53
9.84
6.56
3.79
1.52
-0.39
-2.2
-4.16
-6.45
-9.1
-11.98
-14.86
-17.54
-19.99
-22.35
-24.88
-27.96
-31.88
-36.85
-42.89
-49.73
-56.71
-62.84
-66.85
-67.52
-64.09
-56.52
-45.65
-32.92
-19.97
-8.18
1.65
9.34
15.18
19.6
22.99
25.63
27.68
29.26
30.54
31.63
32.59
33.35
33.79
33.8
33.4
32.75
32.12
31.72
31.59
31.6
31.41
30.72
29.33
27.21
24.55
21.58
18.54
15.54
12.6
9.68
6.75
3.84
1.02
-1.65
-4.2
-6.72
-9.38
-12.26
-15.36
-18.47
-21.34
-23.8
-25.86
-27.8
-30.02
-32.94
-36.88
-41.91
-47.79
-53.92
-59.31
-62.75
-63.05
-59.44
-51.9
-41.3
-29.13
-17.03
-6.25
2.58
9.49
14.88
19.24
22.82
25.71
27.87
29.3
30.11
30.5
30.73
30.92
31.11
31.22
31.12
30.73
30.07
29.29
28.51
27.79
26.99
25.85
24.08
21.53
18.28
14.66
11.12
8.07
5.72
3.99
2.53
0.93
-1.16
-3.83
-6.92
-10.09
-12.97
-15.37
-17.35
-19.18
-21.33
-24.24
-28.23
-33.39
-39.41
-45.56
-50.72
-53.56
-52.94
-48.23
-39.62
-28.09
-15.15
-2.41
8.86
18.01
24.92
29.89
33.32
35.51
36.65
36.85
36.27
35.2
33.99
33.04
32.6
32.76
33.37
34.17
34.8
35.01
34.65
33.69
32.2
30.27
27.9
25.05
21.62
17.58
13.01
8.13
3.25
-1.3
-5.3
-8.67
-11.48
-13.91
-16.19
-18.51
-21.02
-23.78
-26.74
-29.79
-32.8
-35.68
-38.52
-41.56
-45.18
-49.72
-55.29
-61.49
-67.41
-71.69
-72.91
-70.06
-62.87
-51.98
-38.75
-24.85
-11.78
-0.59
8.31
14.99
19.88
23.55
26.52
29.25
31.95
34.66
37.25
39.51
41.26
42.42
43.05
43.23
43.08
42.62
41.86
40.77
39.36
37.71
35.93
34.16
32.45
30.79
29.07
27.17
25.02
22.63
20.07
17.41
14.73
12.07
9.47
6.93
4.45
2.01
-0.49
-3.1
-5.88
-8.84
-11.87
-14.88
-17.79
-20.66
-23.68
-27.14
-31.33
-36.41
-42.25
-48.33
-53.7
-57.17
-57.6
-54.3
-47.28
-37.28
-25.62
-13.76
-2.97
5.94
12.73
17.5
20.61
22.42
23.27
23.45
23.23
22.88
22.66
22.73
23.12
23.75
24.43
25.01
25.39
25.55
25.56
25.47
25.26
24.77
23.76
22.02
19.48
16.28
12.75
9.31
6.25
3.65
1.33
-1.01
-3.66
-6.69
-9.92
-12.97
-15.5
-17.31
-18.5
-19.45
-20.7
-22.86
-26.36
-31.26
-37.14
-43.02
-47.6
-49.53
-47.87
-42.41
-33.75
-23.12
-12.01
-1.75
6.8
13.35
18.06
21.35
23.67
25.35
26.55
27.32
27.68
27.67
27.41
27.02
26.6
26.16
25.68
25.12
24.47
23.78
23.08
22.35
21.53
20.53
19.25
17.63
15.65
13.34
10.78
8.09
5.41
2.89
0.62
-1.43
-3.34
-5.24
-7.25
-9.46
-11.87
-14.42
-16.99
-19.4
-21.53
-23.3
-24.82
-26.32
-28.21
-30.9
-34.67
-39.5
-44.93
-50.07
-53.74
-54.76
-52.33
-46.32
-37.33
-26.59
-15.56
-5.57
2.55
8.56
12.68
15.46
17.48
19.17
20.76
22.3
23.72
24.88
25.74
26.29
26.6
26.78
26.93
27.13
27.42
27.75
27.99
27.96
27.46
26.38
24.71
22.56
20.13
17.63
15.21
12.93
10.69
8.39
5.93
3.34
0.83
-1.34
-2.98
-4.12
-5.01
-6.09
-7.75
-10.2
-13.37
-16.91
-20.4
-23.51
-26.06
-28.16
-30.05
-32.08
-34.58
-37.76
-41.62
-45.82
-49.61
-51.93
-51.7
-48.14
-41.17
-31.51
-20.54
-9.85
-0.7
6.26
11.08
14.19
16.17
17.37
18.01
18.18
18.06
17.92
18.04
18.59
19.57
20.74
21.81
22.54
22.84
22.8
22.59
22.32
21.99
21.44
20.44
18.82
16.53
13.75
10.69
7.65
4.86
2.48
0.59
-0.82
-1.84
-2.74
-3.83
-5.45
-7.76
-10.69
-13.87
-16.86
-19.29
-21.07
-22.4
-23.75
-25.66
-28.53
-32.45
-37.1
-41.75
-45.38
-46.92
-45.55
-40.96
-33.51
-24.09
-13.97
-4.37
3.82
10.17
14.73
17.8
19.78
20.96
21.58
21.79
21.8
21.82
22.03
22.5
23.13
23.72
24.05
24.07
23.88
23.69
23.63
23.65
23.53
23.0
21.91
20.35
18.58
16.86
15.31
13.86
12.33
10.62
8.72
6.78
4.94
3.25
1.62
-0.14
-2.18
-4.54
-7.14
-9.84
-12.48
-14.97
-17.28
-19.46
-21.59
-23.78
-26.21
-29.04
-32.38
-36.15
-39.98
-43.17
-44.86
-44.14
-40.43
-33.7
-24.55
-14.13
-3.8
5.25
12.24
16.98
19.73
21.06
21.53
21.56
21.35
20.93
20.25
19.39
18.46
17.69
17.24
17.15
17.3
17.46
17.42
17.04
16.35
15.45
14.44
13.35
12.1
10.6
8.79
6.68
4.37
2.0
-0.27
-2.3
-3.99
-5.34
-6.44
-7.48
-8.65
-10.09
-11.77
-13.53
-15.17
-16.49
-17.47
-18.25
-19.13
-20.47
-22.6
-25.71
-29.72
-34.18
-38.3
-41.05
-41.44
-38.81
-33.09
-24.85
-15.15
-5.24
3.82
11.34
17.12
21.33
24.3
26.37
27.73
28.45
28.6
28.26
27.62
26.88
26.23
25.71
25.22
24.61
23.74
22.59
21.2
19.67
18.02
16.14
13.86
10.99
7.48
3.5
-0.59
-4.36
-7.49
-9.9
-11.83
-13.68
-15.82
-18.42
-21.35
-24.31
-26.95
-29.07
-30.71
-32.14
-33.76
-35.99
-39.12
-43.11
-47.47
-51.34
-53.54
-53.02
-49.17
-42.1
-32.65
-22.08
-11.72
-2.58
4.82
10.43
14.49
17.35
19.31
20.6
21.39
21.81
22.0
22.04
21.97
21.79
21.46
20.96
20.32
19.67
19.18
18.99
19.11
19.43
19.7
19.57
18.79
17.22
14.89
11.99
8.8
5.66
2.83
0.4
-1.7
-3.7
-5.87
-8.42
-11.33
-14.4
-17.29
-19.72
-21.59
-23.16
-24.95
-27.56
-31.42
-36.54
-42.43
-48.16
-52.55
-54.48
-53.21
-48.55
-40.94
-31.32
-20.89
-10.85
-2.07
5.02
10.48
14.62
17.88
20.55
22.74
24.46
25.67
26.43
26.88
27.16
27.36
27.45
27.38
27.11
26.69
26.24
25.91
25.75
25.72
25.64
25.25
24.31
22.64
20.24
17.36
14.33
11.54
9.2
7.29
5.55
3.63
1.19
-1.86
-5.4
-9.08
-12.52
-15.46
-17.81
-19.76
-21.65
-23.97
-27.13
-31.36
-36.55
-42.16
-47.22
-50.55
-51.04
-48.06
-41.61
-32.45
-21.83
-11.1
-1.36
6.72
