-11.15
-6.25
-1.27
3.29
7.04
9.8
11.55
12.45
12.74
12.68
12.43
12.04
11.51
10.83
10.04
9.19
8.38
7.64
7.03
6.57
6.27
6.2
6.42
6.91
7.57
8.2
8.51
8.31
7.54
6.35
5.02
3.84
3.01
2.54
2.28
1.99
1.48
0.7
-0.32
-1.4
-2.43
-3.31
-4.06
-4.74
-5.48
-6.39
-7.57
-9.12
-11.15
-13.76
-16.85
-20.14
-23.07
-24.92
-25.0
-22.96
-18.94
-13.55
-7.66
-2.14
2.44
5.88
8.29
9.98
11.19
12.08
12.68
12.94
12.85
12.44
11.79
11.09
10.44
9.92
9.55
9.28
9.05
8.84
8.71
8.7
8.81
8.99
9.12
9.03
8.61
7.87
6.9
5.85
4.83
3.9
3.01
2.1
1.09
-0.02
-1.25
-2.53
-3.82
-5.01
-6.06
-6.92
-7.59
-8.17
-8.8
-9.63
-10.85
-12.6
-14.91
-17.68
-20.55
-22.98
-24.36
-24.13
-22.04
-18.22
-13.14
-7.49
-2.0
2.78
6.51
9.11
10.75
11.7
12.28
12.69
13.01
13.2
13.19
12.96
12.63
12.38
12.32
12.51
12.84
13.18
13.37
13.35
13.05
12.47
11.59
10.4
8.95
7.32
5.67
4.06
2.57
1.17
-0.2
-1.57
-3.01
-4.51
-6.02
-7.48
-8.83
-10.0
-10.94
-11.68
-12.32
-13.03
-14.02
-15.53
-17.65
-20.21
-22.76
-24.61
-25.04
-23.54
-20.06
-15.0
-9.07
-3.07
2.33
6.77
10.13
12.49
13.97
14.72
14.89
14.59
13.96
13.13
12.27
11.52
11.01
10.77
10.68
10.57
10.25
9.71
9.04
8.45
8.14
8.15
8.32
8.39
8.11
7.3
5.97
4.27
2.47
0.81
-0.53
-1.49
-2.16
-2.74
-3.48
-4.55
-6.0
-7.72
-9.49
-11.02
-12.09
-12.6
-12.7
-12.66
-12.88
-13.74
-15.43
-17.86
-20.63
-23.07
-24.46
-24.11
-21.74
-17.44
-11.75
-5.45
0.64
5.83
9.77
12.42
13.96
14.72
15.01
15.07
15.0
14.8
14.39
13.78
13.0
12.22
11.55
11.03
10.61
10.13
9.46
8.6
7.67
6.88
6.32
5.95
5.55
4.89
3.86
2.53
1.11
-0.16
-1.14
-1.9
-2.63
-3.56
-4.81
-6.31
-7.83
-9.12
-9.99
-10.44
-10.62
-10.74
-10.99
-11.5
-12.33
-13.53
-15.16
-17.31
-19.96
-22.79
-25.26
-26.59
-26.11
-23.46
-18.72
-12.45
-5.47
1.38
7.44
12.34
15.99
18.48
20.0
20.71
20.78
20.36
19.62
18.69
17.74
16.89
16.2
15.72
15.42
15.24
15.07
14.83
14.41
13.75
12.85
11.68
10.25
8.58
6.7
4.68
2.63
0.61
-1.37
-3.29
-5.19
-7.07
-8.85
-10.42
-11.62
-12.35
-12.58
-12.47
-12.34
-12.62
-13.69
-15.72
-18.52
-21.55
-23.93
-24.83
-23.68
-20.37
-15.34
-9.36
-3.34
2.03
6.36
9.6
11.92
13.5
14.5
14.98
15.03
14.8
14.49
14.29
14.24
14.24
14.05
13.5
12.57
11.41
10.3
9.49
9.06
8.92
8.85
8.61
8.01
6.96
5.5
3.73
1.84
0.03
-1.53
-2.77
-3.71
-4.46
-5.17
-5.91
-6.73
-7.64
-8.64
-9.74
-10.89
-12.04
-13.11
-14.09
-15.09
-16.38
-18.2
-20.63
-23.39
-25.84
-27.13
-26.46
-23.49
-18.37
-11.86
-4.93
1.42
6.55
10.23
12.58
13.94
14.65
14.97
15.01
14.84
14.52
14.08
13.6
13.11
12.63
12.17
11.78
11.47
11.25
11.1
10.97
10.82
10.66
10.45
10.12
9.54
8.57
7.13
5.3
3.28
1.34
-0.31
-1.58
-2.56
-3.4
-4.3
-5.33
-6.51
-7.79
-9.12
-10.46
-11.73
-12.85
-13.73
-14.35
-14.74
-15.15
-15.85
-17.11
-18.94
-21.09
-22.98
-23.92
-23.31
-20.9
-16.8
-11.47
-5.53
0.37
5.71
10.08
13.29
15.33
16.34
16.6
16.37
15.91
15.32
14.68
14.02
13.43
12.99
12.75
12.68
12.67
12.61
12.45
12.19
11.87
11.48
10.95
10.12
8.91
7.33
5.56
3.81
2.25
0.89
-0.37
-1.74
-3.34
-5.18
-7.1
-8.84
-10.2
-11.11
-11.73
-12.46
-13.66
-15.59
-18.15
-20.9
-23.07
-23.86
-22.64
-19.19
-13.84
-7.3
-0.52
5.59
10.41
13.71
15.67
16.67
17.1
17.15
16.85
16.09
14.85
13.3
11.78
10.68
10.22
10.4
10.98
11.65
12.18
12.48
12.58
12.51
12.21
11.51
10.25
8.31
5.79
2.97
0.23
-2.11
-3.89
-5.17
-6.16
-7.13
-8.28
-9.63
-11.07
-12.45
-13.62
-14.54
-15.27
-16.02
-17.01
-18.53
-20.71
-23.57
-26.85
-30.01
-32.34
-33.07
-31.7
-28.02
-22.33
-15.28
-7.75
-0.61
5.46
10.07
13.2
15.07
16.09
16.65
17.02
17.26
17.33
17.13
16.65
15.96
15.21
14.42
13.62
12.73
11.71
10.7
9.83
9.28
9.06
9.0
8.79
8.19
7.04
5.44
3.6
1.81
0.33
-0.77
-1.49
-2.03
-2.6
-3.42
-4.57
-6.02
-7.59
-9.07
-10.34
-11.4
-12.43
-13.71
-15.54
-18.13
-21.43
-25.04
-28.22
-30.07
-29.72
-26.73
-21.19
-13.75
-5.41
2.82
10.12
16.0
20.26
22.88
24.01
23.86
22.72
20.92
18.76
16.54
14.43
12.58
11.08
9.98
9.28
8.97
8.93
9.12
9.42
9.72
9.88
9.73
9.21
8.35
7.24
6.02
4.73
3.31
1.63
-0.4
-2.69
-4.95
-6.89
-8.28
-9.18
-9.91
-10.95
-12.72
-15.42
-18.9
-22.71
-26.2
-28.6
-29.27
-27.81
-24.13
-18.51
-11.53
-3.99
3.34
9.79
14.97
18.73
21.13
22.36
22.66
22.32
21.55
20.58
19.48
18.3
17.01
15.61
14.22
12.99
12.08
11.56
11.35
11.25
11.02
10.55
9.84
8.93
7.87
6.61
5.12
3.42
1.66
0.08
-1.12
-1.93
-2.52
-3.22
-4.32
-6.02
-8.22
-10.64
-12.89
-14.6
-15.6
-15.96
-16.05
-16.41
-17.57
-19.84
-23.15
-27.02
-30.64
-33.08
-33.55
-31.58
-27.22
-20.92
-13.5
-5.87
1.15
7.01
11.51
14.73
17.02
18.71
20.11
21.29
22.1
22.38
21.99
21.05
19.82
18.64
17.71
17.04
16.51
15.89
15.1
14.16
13.18
12.27
11.47
10.74
10.0
9.22
8.34
7.35
6.21
4.95
3.62
2.38
1.35
0.57
0.0
-0.49
-1.07
-1.82
-2.77
-3.91
-5.22
-6.75
-8.6
-10.81
-13.47
-16.63
-20.34
-24.59
-29.27
-34.02
-38.28
-41.29
-42.33
-40.92
-36.99
-30.93
-23.48
-15.55
-8.03
-1.63
3.29
6.74
9.02
10.62
11.92
13.13
14.19
14.9
15.11
14.86
14.37
13.93
13.72
13.77
13.96
14.14
14.2
14.1
13.84
13.41
12.76
11.87
10.81
9.65
8.5
7.39
6.24
4.91
3.29
1.38
-0.68
-2.7
-4.48
-5.91
-6.95
-7.69
-8.3
-9.04
-10.25
-12.2
-15.01
-18.45
-21.92
-24.54
-25.4
-23.89
-19.84
-13.67
-6.17
1.63
8.77
14.52
18.53
20.77
21.55
21.34
20.62
19.71
18.75
17.7
16.52
15.2
13.86
12.72
11.93
11.53
11.4
11.38
11.31
11.11
10.79
10.39
9.9
9.25
8.29
6.91
5.06
2.84
0.42
-1.9
-3.91
-5.47
-6.63
-7.59
-8.62
-9.9
-11.53
-13.38
-15.24
-16.87
-18.13
-19.03
-19.75
-20.56
-21.74
-23.53
-26.12
-29.38
-32.99
-36.34
-38.66
-39.12
-37.12
-32.41
-25.25
-16.4
-6.91
2.08
9.61
15.22
18.86
20.89
21.85
22.24
22.36
22.33
22.1
21.62
20.87
19.94
18.93
17.98
17.21
16.67
16.39
16.27
16.2
16.0
15.56
14.79
13.7
12.38
10.9
9.3
7.62
5.82
3.96
2.09
0.34
-1.2
-2.5
-3.58
-4.54
-5.45
-6.41
-7.48
-8.68
-10.02
-11.46
-12.92
-14.29
-15.56
-16.77
-18.07
-19.7
-21.82
-24.43
-27.28
-29.87
-31.53
-31.54
-29.39
-24.87
-18.27
-10.29
-1.93
5.82
12.19
16.79
19.64
21.07
21.55
21.51
21.24
20.79
20.11
19.08
17.68
15.99
14.2
12.54
11.19
10.26
9.78
9.72
10.03
10.57
11.19
11.65
11.75
11.33
10.4
9.05
7.44
5.72
4.04
2.5
1.18
0.17
-0.6
-1.25
-2.08
-3.37
-5.23
-7.54
-9.93
-11.91
-13.13
-13.66
-13.94
-14.75
-16.78
-20.1
-23.88
-26.43
-25.73
-20.25
-9.85
3.86
17.88
28.89
34.49
34.15
29.28
22.53
16.6
13.26
12.87
14.65
17.02
18.24
16.56
10.61
-0.26
-15.23
-31.48
-44.61
-50.38
-47.15
-37.65
-28.63
-28.12
-41.58
-68.97
-104.51
-139.49
-166.33
-181.82
-187.67
-188.4
-188.27
-188.96
-189.48
-187.61
-182.09
-173.6
-164.62
-157.96
-155.36
-156.79
-160.29
-162.89
-161.6
-154.39
-140.55
-120.72
-96.29
-68.81
-39.47
-9.02
21.93
52.48
81.21
106.24
125.7
138.39
144.28
144.46
140.82
135.23
128.94
122.38
115.46
108.06
100.47
93.5
88.23
85.45
85.41
87.65
91.1
94.22
95.1
91.82
82.87
67.84
47.86
25.54
4.21
-13.22
-25.3
-32.3
-35.8
-37.63
-39.06
-40.45
-41.6
-42.35
-43.07
-44.75
-48.6
-55.45
-65.09
-76.03
-85.71
-91.16
-89.97
-81.06
-65.07
-44.09
-20.9
1.92
22.67
40.67
56.01
68.98
79.74
88.21
94.18
97.59
98.71
98.13
96.52
94.54
92.57
90.76
89.12
87.68
86.62
86.21
86.69
88.0
89.65
90.71
90.08
86.92
80.97
72.75
63.36
54.12
45.97
39.23
33.5
28.01
22.06
15.4
8.22
1.12
-5.35
-10.9
-15.6
-19.85
-24.24
-29.4
-35.97
-44.38
-54.61
-65.9
-76.62
-84.48
-87.15
-83.05
-71.95
-55.15
-35.06
-14.37
4.71
20.85
33.67
43.35
50.24
54.61
56.69
56.72
55.14
52.54
49.59
46.89
44.81
43.52
42.93
42.84
43.05
43.42
43.88
44.34
44.67
44.66
44.07
42.68
40.42
37.41
33.87
29.96
25.83
21.47
16.87
12.03
7.08
2.17
-2.55
-6.98
-11.12
-15.05
-18.99
-23.3
-28.32
-34.29
-40.95
-47.43
-52.21
-53.48
-49.74
-40.3
-25.58
-7.01
13.44
33.76
52.3
67.94
79.94
87.82
91.27
90.29
85.36
77.5
68.22
59.13
51.62
46.44
43.57
42.46
42.24
42.14
41.66
40.68
39.32
37.72
35.92
33.79
31.0
27.17
21.98
15.38
7.65
-0.58
-8.47
-15.28
-20.62
-24.6
-27.78
-31.04
-35.27
-41.14
-48.9
-58.1
-67.6
-75.54
-79.72
-78.22
-70.15
-56.04
-37.82
-18.21
0.19
15.6
27.33
35.51
40.63
43.06
43.02
40.74
36.79
32.1
27.77
24.75
23.46
23.69
24.82
26.07
26.87
27.06
26.77
26.25
25.61
24.62
22.79
19.54
14.5
7.74
-0.21
-8.47
-16.2
-22.8
-28.14
-32.56
-36.7
-41.35
-47.17
-54.5
-63.14
-72.1
-79.62
-83.51
-81.77
-73.31
-58.54
-39.31
-18.46
1.17
17.55
29.85
38.38
44.04
47.74
50.02
51.05
50.75
49.1
46.25
42.55
38.45
34.4
30.7
27.54
24.91
22.69
20.71
18.79
16.85
14.79
12.59
10.13
7.25
3.69
-0.77
-6.26
-12.69
-19.72
-26.82
-33.47
-39.35
-44.45
-49.05
-53.67
-58.85
-65.12
-72.87
-82.16
-92.54
-102.79
-110.88
-114.27
-110.76
-99.35
-80.87
-57.87
-33.89
-12.27
4.88
17.0
24.8
29.62
32.71
34.94
36.81
38.64
40.65
42.9
45.23
47.18
48.25
48.04
46.62
44.49
42.41
41.1
40.89
41.61
42.62
43.11
42.46
40.43
37.25
33.4
29.36
25.36
21.32
16.89
11.75
5.77
-0.88
-7.78
-14.45
-20.56
-26.04
-31.2
-36.58
-42.89
-50.71
-60.16
-70.56
-80.27
-86.92
-88.04
-81.96
-68.57
-49.47
-27.61
-6.23
12.1
26.1
35.86
42.31
46.58
49.51
51.45
52.47
52.56
51.83
50.52
48.86
47.02
44.94
42.51
39.67
36.57
33.67
31.47
30.37
30.37
30.99
31.46
30.99
29.09
25.74
21.31
16.45
11.83
7.9
4.72
2.03
-0.69
-3.95
-8.04
-12.77
-17.59
-21.79
-24.91
-26.96
-28.54
-30.64
-34.27
-40.12
-48.24
-57.92
-67.65
-75.3
-78.56
-75.59
-65.67
-49.56
-29.46
-8.34
10.89
26.22
36.9
43.29
46.37
47.2
46.64
45.26
43.46
41.59
39.92
38.6
37.56
36.59
35.42
33.86
31.92
29.84
28.02
26.8
26.38
26.63
27.1
27.13
26.08
23.57
19.67
14.86
9.87
5.37
1.69
-1.31
-4.12
-7.32
-11.29
-16.04
-21.16
-26.05
-30.2
-33.4
-35.8
-37.98
-40.64
-44.49
-49.97
-56.99
-64.81
-71.95
-76.4
-76.1
-69.69
-57.02
-39.45
-19.48
-0.03
16.47
28.71
36.54
40.74
42.33
42.23
41.01
39.03
36.55
33.92
31.43
29.29
27.51
25.95
24.48
23.03
21.73
20.76
20.28
20.26
20.44
20.39
19.63
17.85
14.95
11.14
6.82
2.45
-1.63
-5.35
-8.85
-12.38
-16.14
-20.09
-23.99
-27.51
-30.42
-32.8
-35.0
-37.53
-40.86
-45.19
-50.32
-55.56
-59.79
-61.5
-59.26
-52.11
-40.05
-24.25
-6.81
9.83
23.6
33.35
39.01
41.27
41.09
39.32
36.49
32.98
29.09
25.19
21.64
18.64
16.26
14.39
12.95
11.94
11.46
11.58
12.22
13.07
13.62
13.35
11.93
9.35
5.87
1.98
-1.89
-5.47
-8.79
-12.05
-15.51
-19.27
-23.19
-26.93
-30.13
-32.6
-34.5
-36.25
-38.36
-41.3
-45.35
-50.45
-56.22
-61.78
-65.76
-66.5
-62.53
-53.13
-38.79
-21.3
-3.2
12.98
25.5
33.8
38.37
40.23
40.35
39.35
37.46
34.75
31.43
27.86
24.54
21.83
19.9
18.61
17.71
16.97
16.28
15.69
15.29
15.01
14.64
13.81
12.24
9.83
6.75
3.36
0.03
-3.03
-5.87
-8.73
-11.89
-15.46
-19.27
-22.94
-26.08
-28.47
-30.26
-31.98
-34.31
-37.88
-42.93
-49.16
-55.61
-60.74
-62.83
-60.4
-52.75
-40.33
-24.67
-8.0
7.36
19.74
28.43
33.64
36.15
36.85
36.36
35.04
33.03
30.54
27.87
25.42
23.52
22.28
21.56
21.11
20.65
20.06
19.38
18.71
18.1
17.52
16.78
15.66
13.96
11.56
8.43
4.65
0.36
-4.2
-8.77
-13.11
-17.0
-20.36
-23.22
-25.67
-27.89
-30.12
-32.67
-35.86
-39.89
-44.61
-49.39
-53.09
-54.29
-51.76
-45.0
-34.45
-21.46
-7.86
4.6
14.76
22.17
26.97
29.6
30.51
30.03
28.4
25.91
22.94
19.96
17.41
15.59
14.57
14.22
14.27
14.41
14.4
14.13
13.61
12.92
12.09
11.05
9.6
7.48
4.48
0.6
-3.95
-8.71
-13.18
-16.95
-19.9
-22.18
-24.21
-26.48
-29.42
-33.26
-37.89
-42.81
-47.15
-49.8
-49.65
-45.92
-38.44
-27.81
-15.26
-2.41
9.27
18.73
25.6
30.03
32.47
33.35
32.89
31.16
28.29
24.58
20.6
17.08
14.56
13.3
13.14
13.63
14.26
14.62
14.54
14.04
13.2
12.13
10.85
9.27
7.25
4.64
1.39
-2.4
-6.46
-10.43
-14.02
-17.06
-19.62
-21.88
-24.19
-26.88
-30.28
-34.61
-39.8
-45.39
-50.42
-53.57
-53.49
-49.25
-40.76
-28.85
-15.11
-1.37
10.72
20.2
26.83
30.94
33.17
34.15
34.3
33.83
32.89
31.56
30.03
28.5
27.19
26.25
25.73
25.6
25.73
26.0
26.26
26.34
26.1
25.33
23.86
21.5
18.14
13.76
8.43
2.34
-4.16
-10.61
-16.5
-21.33
-24.85
-27.03
-28.24
-29.01
-29.97
-31.65
-34.33
-38.0
-42.27
-46.39
-49.23
-49.54
-46.32
-39.24
-28.9
-16.72
-4.52
6.08
14.1
19.39
22.38
23.77
24.14
23.85
23.06
21.91
20.58
19.28
18.2
17.39
16.75
16.15
15.46
14.67
13.85
13.13
12.57
12.15
11.73
11.12
10.14
8.61
6.41
3.48
-0.17
-4.36
-8.74
-12.89
-16.43
-19.19
-21.27
-23.02
-24.88
-27.32
-30.67
-35.12
-40.5
-46.22
-51.2
-54.0
-53.23
-48.09
-38.66
-26.08
-12.18
1.07
12.15
20.31
25.57
28.47
29.67
29.73
28.99
27.62
25.78
23.69
21.65
19.99
18.94
18.56
18.73
19.18
19.63
19.88
19.83
19.44
18.66
17.4
15.63
13.32
10.53
7.34
3.83
0.06
-3.91
-7.98
-11.94
-15.62
-18.87
-21.69
-24.23
-26.79
-29.76
-33.54
-38.43
-44.48
-51.28
-57.87
-62.8
-64.5
-61.83
-54.5
-43.33
-29.98
-16.4
-4.26
5.49
12.69
17.75
21.26
23.72
25.42
26.44
26.81
26.58
25.89
24.92
23.83
22.74
21.72
20.84
20.18
19.89
20.04
20.57
21.26
21.73
21.58
20.59
18.79
16.4
13.74
10.99
8.18
5.16
1.83
-1.78
-5.47
-8.92
-11.87
-14.25
-16.27
