39.98
42.95
44.27
43.96
42.28
39.69
36.75
33.97
31.74
30.31
29.78
30.12
31.22
32.84
34.65
36.26
37.23
37.19
35.93
33.4
29.76
25.34
20.55
15.79
11.41
7.64
4.57
2.1
0.03
-1.91
-4.0
-6.33
-8.88
-11.46
-13.9
-16.14
-18.32
-20.68
-23.52
-27.08
-31.43
-36.51
-42.0
-47.36
-51.78
-54.32
-54.12
-50.68
-44.06
-34.98
-24.56
-14.09
-4.76
2.63
7.7
10.48
11.3
10.66
9.16
7.3
5.49
3.98
2.93
2.43
2.58
3.44
5.04
7.37
10.39
14.13
18.71
24.23
30.67
37.67
44.45
49.91
52.95
52.79
49.27
42.89
34.69
25.94
17.84
11.26
6.71
4.31
3.79
4.58
5.83
6.55
5.82
3.0
-2.09
-9.16
-17.55
-26.48
-35.34
-43.86
-52.09
-60.37
-68.98
-77.86
-86.4
-93.44
-97.54
-97.42
-92.44
-82.86
-69.77
-54.75
-39.43
-25.1
-12.49
-1.8
7.13
14.65
21.17
27.03
32.44
37.43
41.86
45.49
48.1
49.56
49.87
49.17
47.77
46.05
44.44
43.26
42.67
42.54
42.54
42.25
41.41
39.93
37.95
35.7
33.36
31.02
28.69
26.37
24.16
22.18
20.47
18.91
17.25
15.13
12.31
8.77
4.66
0.3
-4.01
-8.12
-12.04
-15.93
-20.01
-24.48
-29.51
-35.15
-41.27
-47.49
-53.07
-56.96
-58.02
-55.39
-48.84
-38.99
-27.14
-15.01
-4.13
4.46
10.44
14.07
15.92
16.6
16.6
16.19
15.6
15.0
14.57
14.47
14.82
15.63
16.83
18.32
20.01
21.86
23.91
26.12
28.43
30.58
32.2
32.88
32.29
30.39
27.4
23.77
19.99
16.39
13.1
9.96
6.7
3.11
-0.84
-4.93
-8.85
-12.29
-15.15
-17.56
-19.85
-22.46
-25.84
-30.33
-35.99
-42.52
-49.13
-54.61
-57.56
-56.81
-51.8
-42.95
-31.55
-19.43
-8.33
0.61
7.08
11.52
14.67
17.15
19.26
20.97
22.15
22.76
22.99
23.2
23.74
24.84
26.51
28.57
30.78
32.9
34.76
36.25
37.34
37.98
38.06
37.45
35.95
33.46
29.99
25.78
21.26
16.89
13.06
9.86
7.07
4.28
1.04
-2.89
-7.46
-12.34
-17.07
-21.29
-24.86
-27.92
-30.87
-34.21
-38.42
-43.8
-50.31
-57.47
-64.39
-69.81
-72.41
-71.2
-65.79
-56.63
-44.94
-32.29
-20.24
-9.82
-1.41
5.15
10.36
14.68
18.38
21.57
24.25
26.5
28.48
30.34
32.15
33.86
35.32
36.45
37.3
38.04
38.9
39.99
41.24
42.39
43.1
43.1
42.27
40.64
38.34
35.51
32.22
28.49
24.4
20.1
15.85
11.93
8.5
5.49
2.63
-0.44
-4.0
-8.1
-12.58
-17.08
-21.22
-24.76
-27.62
-30.0
-32.21
-34.72
-37.97
-42.26
-47.6
-53.48
-58.89
-62.49
-62.99
-59.52
-52.02
-41.28
-28.68
-15.86
-4.23
5.31
12.48
17.45
20.7
22.75
24.11
25.11
26.0
26.93
28.01
29.31
30.86
32.6
34.4
36.03
37.32
38.18
38.64
38.84
38.9
38.81
38.41
37.42
35.57
32.76
29.09
24.87
20.47
16.23
12.42
9.14
6.39
4.07
2.0
-0.05
-2.22
-4.56
-7.02
-9.42
-11.64
-13.64
-15.55
-17.67
-20.41
-24.19
-29.25
-35.54
-42.51
-49.15
-54.06
-55.9
-53.71
-47.36
-37.57
-25.7
-13.36
-1.96
7.64
15.13
20.61
24.42
26.92
28.43
29.17
29.36
29.23
29.01
28.92
29.06
29.45
29.93
30.26
30.23
29.74
28.88
27.89
26.93
26.08
25.18
23.94
22.08
19.44
16.1
12.34
8.57
5.19
2.47
0.45
-1.05
-2.42
-4.07
-6.32
-9.23
-12.64
-16.23
-19.67
-22.77
-25.57
-28.26
-31.13
-34.55
-38.88
-44.33
-50.79
-57.62
-63.62
-67.24
-67.05
-62.27
-53.17
-41.02
-27.65
-14.87
-3.97
4.48
10.54
14.61
17.2
18.74
19.67
20.39
21.25
22.47
23.99
25.56
26.85
27.62
27.84
27.68
27.4
27.15
26.98
26.8
26.5
26.02
25.34
24.51
23.51
22.31
20.86
19.2
17.41
15.67
14.09
12.72
11.42
9.98
8.08
5.55
2.27
-1.65
-5.94
-10.27
-14.35
-18.01
-21.28
-24.38
-27.61
-31.34
-35.81
-41.1
-46.98
-52.86
-57.81
-60.67
-60.4
-56.39
-48.73
-38.26
-26.34
-14.46
-3.85
4.77
11.2
15.64
18.53
20.33
21.48
22.31
23.0
23.65
24.3
24.97
25.67
26.4
27.11
27.73
28.18
28.49
28.77
29.15
29.68
30.25
30.58
30.37
29.43
27.76
25.57
23.15
20.69
18.29
15.87
13.3
10.46
7.28
3.79
0.04
-3.8
-7.55
-11.07
-14.26
-17.17
-19.99
-23.05
-26.67
-31.04
-36.01
-41.01
-45.05
-46.96
-45.73
-40.9
-32.77
-22.35
-11.12
-0.51
8.41
15.19
19.86
22.79
24.37
24.95
24.79
24.11
23.12
22.0
20.88
19.82
18.82
17.89
17.06
16.4
15.93
15.64
15.4
15.04
14.43
13.51
12.27
10.78
9.11
7.25
5.19
2.9
0.3
-2.61
-5.79
-9.13
-12.46
-15.64
-18.59
-21.36
-24.15
-27.19
-30.77
-35.11
-40.24
-45.87
-51.28
-55.39
-57.01
-55.15
-49.45
-40.32
-28.91
-16.74
-5.29
4.37
11.8
17.06
20.55
22.78
24.14
24.87
25.12
24.98
24.58
24.07
23.59
23.21
22.87
22.44
21.82
21.01
20.11
19.34
18.87
18.74
18.8
18.75
18.26
17.12
15.3
12.98
10.47
8.07
5.95
4.08
2.27
0.23
-2.33
-5.52
-9.28
-13.35
-17.35
-20.94
-23.89
-26.19
-27.99
-29.64
-31.54
-34.06
-37.45
-41.59
-45.92
-49.43
-50.93
-49.42
-44.48
-36.46
-26.43
-15.81
-5.97
2.19
8.28
12.39
14.93
16.4
17.29
18.01
18.85
19.95
21.3
22.73
23.98
24.79
24.99
24.59
23.79
22.93
22.32
22.17
22.44
22.87
23.13
22.92
22.08
20.61
18.71
16.62
14.61
12.87
11.49
10.37
9.35
8.21
6.85
5.29
3.62
1.96
0.3
-1.47
-3.57
-6.13
-9.15
-12.42
-15.63
-18.48
-20.84
-22.82
-24.7
-26.87
-29.7
-33.38
-37.79
-42.42
-46.41
-48.68
-48.22
-44.43
-37.42
-27.99
-17.45
-7.26
1.45
8.07
12.6
15.46
17.15
18.18
18.8
19.18
19.36
19.45
19.5
19.59
19.72
19.8
19.72
19.38
18.79
18.06
17.37
16.88
16.66
16.59
16.45
15.97
14.98
13.47
11.62
9.73
8.07
6.84
6.0
5.34
4.55
3.36
1.63
-0.57
-3.03
-5.46
-7.65
-9.53
-11.18
-12.8
-14.69
-17.15
-20.49
-24.87
-30.23
-36.13
-41.69
-45.74
-47.17
-45.29
-40.2
-32.77
-24.4
-16.49
-10.11
-5.69
-3.15
-2.06
-1.95
-2.46
-3.39
-4.57
-5.85
-7.08
-8.12
-8.88
-9.36
-9.56
-9.48
-9.01
-8.04
-6.45
-4.27
-1.71
0.86
3.05
4.55
5.27
5.29
4.79
3.93
2.81
1.57
0.28
-0.85
-1.65
-1.99
-1.93
-1.74
-1.77
-2.36
-3.62
-5.38
-7.32
-9.09
-10.5
-11.67
-12.95
-14.75
-17.44
-21.16
-25.7
-30.57
-34.96
-37.9
-38.46
-36.02
-30.49
-22.45
-13.03
-3.52
4.91
11.57
16.32
19.44
21.39
22.56
23.23
23.51
23.54
23.47
23.47
23.65
24.02
24.47
24.87
25.13
25.29
25.47
25.81
26.37
27.11
27.86
28.41
28.6
28.29
27.47
26.2
24.61
22.88
21.19
19.62
18.2
16.87
15.51
14.04
12.36
10.4
8.09
5.45
2.53
-0.5
-3.39
-5.94
-8.01
-9.65
-11.04
-12.5
-14.42
-17.19
-21.09
-26.14
-31.91
-37.52
-41.76
-43.42
-41.76
-36.72
-29.08
-20.14
-11.32
-3.69
2.2
6.35
9.13
10.97
12.24
13.19
13.98
14.72
15.5
16.39
17.39
18.42
19.36
20.05
20.38
20.33
20.02
19.51
18.89
18.11
17.1
15.79
14.16
12.28
10.24
8.07
5.8
3.45
1.08
-1.24
-3.4
-5.41
-7.4
-9.57
-12.18
-15.27
-18.74
-22.32
-25.75
-28.86
-31.67
-34.34
-37.1
-40.13
-43.56
-47.44
-51.7
-56.07
-59.99
-62.63
-63.02
-60.31
-54.17
-44.93
-33.56
-21.46
-9.98
-0.12
7.62
13.22
17.0
19.38
20.73
21.35
21.45
21.23
20.93
20.76
20.96
21.64
22.78
24.24
25.77
27.17
28.28
29.04
29.4
29.32
28.71
27.54
25.83
23.72
21.4
19.03
16.67
14.31
11.86
9.27
6.62
4.02
1.61
-0.59
-2.67
-4.85
-7.33
-10.24
-13.53
-17.06
-20.59
-23.94
-27.03
-29.91
-32.78
-35.96
-39.87
-44.85
-51.01
-57.94
-64.62
-69.59
-71.35
-68.83
-61.86
-51.3
-38.74
-25.96
-14.47
-5.11
1.96
7.09
10.8
13.67
16.2
18.73
21.48
24.43
27.38
30.04
32.11
33.47
34.18
34.48
34.72
35.3
36.63
39.08
42.84
47.9
53.84
60.0
65.56
69.72
71.96
72.09
70.17
66.47
61.24
54.75
47.26
39.08
30.63
22.4
14.9
8.46
3.16
-1.29
-5.48
-10.02
-15.35
-21.52
-28.16
-34.67
-40.48
-45.25
-49.05
-52.29
-55.59
-59.51
-64.31
-69.74
-75.03
-79.01
-80.45
-78.43
-72.7
-63.75
-52.71
-40.93
-29.63
-19.64
-11.3
-4.56
0.78
5.03
8.48
11.39
14.01
16.49
18.89
21.11
23.05
24.61
25.83
26.84
27.88
29.11
30.57
32.14
33.61
34.78
35.54
35.89
35.86
35.46
34.62
33.2
31.15
28.52
25.57
22.66
20.07
17.95
16.18
14.49
12.6
10.27
7.46
4.26
0.79
-2.76
-6.19
-9.25
-11.66
-13.13
-13.54
-13.02
-11.91
-10.69
-9.76
-9.21
-8.8
-7.99
-6.19
-2.99
1.66
7.39
13.53
19.36
24.32
28.07
30.58
31.98
32.45
32.14
31.26
30.13
29.26
29.23
30.5
33.15
36.83
40.78
44.15
46.28
46.9
46.15
44.38
41.97
39.11
35.8
31.94
27.45
22.37
16.9
11.35
6.01
1.14
-3.14
-6.84
-10.08
-13.03
-15.88
-18.75
-21.7
-24.71
-27.68
-30.55
-33.28
-35.97
-38.79
-42.01
-45.98
-51.02
-57.3
-64.7
-72.56
-79.76
-84.87
-86.56
-84.07
-77.48
-67.72
-56.21
-44.49
-33.74
-24.61
-17.25
-11.48
-6.99
-3.42
-0.47
2.15
4.61
7.04
9.44
11.75
13.91
15.91
17.72
19.36
20.85
22.21
23.5
24.8
26.15
27.47
28.57
29.16
29.01
28.04
26.35
24.18
21.82
19.48
17.28
15.24
13.34
11.5
9.66
7.71
5.55
3.14
0.46
-2.46
-5.62
-9.01
-12.64
-16.5
-20.57
-24.83
-29.38
-34.45
-40.29
-46.98
-54.18
-61.0
-66.08
-68.01
-65.8
-59.31
-49.34
-37.34
-24.97
-13.57
-3.87
3.99
10.2
15.09
18.88
21.79
23.98
25.69
27.17
28.64
30.21
31.86
33.48
34.9
36.02
36.75
37.14
37.3
37.37
37.48
37.62
37.64
37.26
36.24
34.41
31.83
28.73
25.42
22.21
19.25
16.54
13.9
11.11
7.95
4.4
0.55
-3.33
-6.99
-10.23
-13.03
-15.54
-18.09
-21.09
-24.94
-29.9
-35.9
-42.37
-48.23
-52.15
-52.84
-49.6
-42.58
-32.77
-21.65
-10.71
-0.99
7.05
13.45
18.49
22.43
25.4
27.44
28.64
29.21
29.43
29.61
29.96
30.56
31.36
32.24
33.08
33.81
34.36
34.74
34.9
34.78
34.25
33.19
31.52
29.24
26.46
23.39
20.3
17.43
14.92
12.73
10.7
8.53
5.95
2.78
-0.95
-5.01
-9.08
-12.84
-16.11
-18.93
-21.51
-24.24
-27.51
-31.67
-36.9
-42.97
-49.23
-54.56
-57.65
-57.37
-53.19
-45.44
-35.16
-23.8
-12.73
-2.88
5.31
11.86
16.98
20.97
24.1
26.65
28.86
30.9
32.88
34.73
36.35
37.6
38.37
38.65
38.48
37.97
37.27
36.54
35.9
35.4
35.01
34.57
33.96
33.08
31.92
30.51
28.91
27.06
24.91
22.36
19.44
16.28
13.12
10.15
7.45
4.96
2.48
-0.18
-3.13
-6.28
-9.48
-12.52
-15.25
-17.68
-19.9
-22.1
-24.52
-27.44
-31.08
-35.52
-40.47
-45.24
-48.73
-49.79
-47.56
-41.84
-33.26
-23.09
-12.82
-3.68
3.65
9.11
13.06
15.99
18.26
20.11
21.6
22.78
23.65
24.26
24.63
24.78
24.68
24.37
23.92
23.4
22.9
22.43
21.95
21.39
20.68
19.78
18.69
17.4
15.93
14.27
12.47
10.59
8.75
7.04
5.55
4.31
3.22
2.17
1.01
-0.4
-2.1
-4.08
-6.22
-8.43
-10.55
-12.52
-14.33
-16.11
-18.06
-20.46
-23.54
-27.4
-31.95
-36.75
-41.15
-44.25
-45.17
-43.29
-38.44
-31.02
-21.96
-12.47
-3.66
3.66
9.18
12.99
15.41
16.76
17.28
17.15
16.55
15.78
15.13
14.83
14.97
15.43
15.97
16.38
16.52
16.38
16.07
15.7
15.33
14.92
14.36
13.46
12.08
10.17
7.83
5.28
2.84
0.73
-1.04
-2.61
-4.26
-6.24
-8.63
-11.33
-14.08
-16.63
-18.8
-20.58
-22.12
-23.7
-25.66
-28.3
-31.73
-35.72
-39.61
-42.42
-43.07
-40.82
-35.53
-27.78
-18.7
-9.62
-1.63
4.64
9.12
12.11
14.09
15.47
16.53
17.42
18.16
18.78
19.33
19.87
20.45
21.03
21.57
21.98
22.25
22.43
22.59
22.82
23.04
23.13
22.9
22.2
20.93
19.12
16.81
14.14
11.23
8.24
5.32
2.6
0.1
-2.21
-4.43
-6.68
-9.07
-11.64
-14.4
-17.26
-20.07
-22.65
-24.81
-26.52
-27.87
-29.13
-30.66
-32.82
-35.82
-39.56
-43.61
-47.15
-49.23
-48.93
-45.71
-39.61
-31.31
-21.99
-12.93
-5.22
0.61
4.59
7.12
8.76
9.96
11.01
12.08
13.24
14.52
15.88
17.17
18.16
18.68
18.65
18.15
17.42
16.68
16.1
15.71
15.45
15.2
14.84
14.24
13.3
11.99
10.32
8.45
6.58
4.94
3.66
2.78
2.19
1.74
1.25
0.58
-0.34
-1.51
-2.86
-4.24
-5.53
-6.66
-7.65
-8.67
-9.95
-11.66
-13.85
-16.41
-19.07
-21.6
-23.85
-25.79
-27.57
-29.37
-31.44
-33.91
-36.85
-40.12
-43.22
-45.37
-45.59
-43.08
-37.58
-29.55
-20.15
-10.81
-2.81
3.19
7.14
9.49
10.82
11.62
12.17
12.56
12.85
13.13
13.45
13.84
14.26
14.64
14.9
15.06
15.15
15.24
15.37
15.55
15.71
15.76
15.63
15.23
14.55
13.58
12.37
10.95
9.35
7.63
5.87
4.17
2.57
1.13
-0.18
-1.46
-2.85
-4.51
-6.54
-8.94
-11.59
-14.26
-16.67
-18.62
-20.07
-21.17
-22.26
-23.73
-25.94
-29.06
-32.97
-37.21
-41.01
-43.39
-43.41
-40.48
-34.65
-26.59
-17.46
-8.49
-0.72
5.36
9.66
12.44
14.08
14.9
15.14
15.0
14.63
14.23
13.93
13.85
14.01
14.38
14.85
15.32
15.77
16.19
16.68
17.27
17.92
18.46
18.64
18.21
17.03
15.13
12.72
10.13
7.69
5.65
4.02
2.65
1.21
-0.58
-2.9
-5.76
-8.98
-12.35
-15.65
-18.74
-21.52
-23.95
-26.05
-27.93
-29.83
-32.04
-34.84
-38.28
-41.98
-45.18
-46.82
-45.88
-41.81
-34.76
-25.56
-15.5
-5.83
2.56
9.3
14.45
18.26
21.03
22.96
24.28
25.18
25.92
26.68
27.53
28.36
28.99
29.24
29.04
28.51
27.84
27.27
26.98
26.98
27.11
27.1
26.67
25.65
24.04
21.97
19.71
17.51
15.55
13.91
12.54
11.33
10.12
8.74
7.11
5.25
3.27
1.37
-0.32
-1.77
-3.13
-4.7
-6.78
-9.54
-12.95
-16.71
-20.44
-23.78
-26.58
-28.96
-31.28
-34.0
-37.48
-41.85
-46.85
-51.8
-55.69
-57.37
-55.91
-50.91
-42.7
-32.28
-21.09
-10.56
-1.75
4.88
9.48
12.53
14.6
16.18
17.52
18.68
19.65
20.43
21.07
21.67
22.33
23.06
23.83
24.56
25.19
25.71
26.09
26.29
26.17
25.59
24.46
22.89
21.21
19.93
19.52
20.16
21.65
23.38
24.59
24.61
23.17
20.42
16.8
12.88
9.06
5.49
2.1
-1.27
-4.75
-8.33
-11.89
-15.28
-18.37
-21.15
-23.69
-26.13
-28.64
-31.44
-34.69
-38.53
-42.89
-47.45
-51.41
-53.73
-53.33
-49.51
-42.31
-32.6
-21.79
-11.41
-2.61
4.08
8.74
11.8
13.79
15.11
16.02
16.64
17.09
17.48
17.9
18.43
19.1
19.87
20.7
21.55
22.39
23.2
23.95
24.57
24.98
25.1
24.81
24.05
22.79
21.04
18.81
16.21
13.41
10.65
8.18
6.12
4.4
2.81
0.99
-1.34
-4.3
-7.77
-11.48
-15.11
-18.47
-21.51
-24.4
-27.42
-30.91
-35.13
-40.2
-45.96
-51.92
-57.26
-60.89
-61.74
-59.05
-52.71
-43.32
-32.09
-20.48
-9.79
-0.84
6.03
10.95
14.23
16.27
17.43
18.06
18.5
19.05
19.9
21.1
22.49
23.86
24.97
25.76
26.29
26.74
27.29
27.97
28.67
29.14
29.15
28.57
27.45
25.93
24.18
22.29
20.25
18.02
15.6
13.04
10.48
8.05
5.9
4.06
2.53
1.15
-0.29
-2.08
-4.44
-7.49
-11.11
-15.0
-18.79
-22.16
-24.98
-27.39
-29.72
-32.42
-35.92
-40.48
-46.0
-51.88
-57.07
-60.26
-60.24
-56.36
-48.79
-38.51
-27.0
-15.8
-6.04
1.78
7.74
12.23
15.72
18.57
20.96
23.0
24.8
26.46
28.06
29.62
31.07
32.26
