-9.0
-11.55
-14.21
-16.79
-19.17
-21.37
-23.54
-26.0
-29.07
-32.84
-37.04
-41.01
-43.75
-44.29
-41.92
-36.52
-28.56
-19.02
-9.1
0.06
7.69
13.42
17.27
19.49
20.46
20.53
20.06
19.35
18.68
18.22
18.01
18.0
18.07
18.14
18.17
18.19
18.24
18.35
18.48
18.56
18.47
18.09
17.3
16.07
14.47
12.62
10.71
8.91
7.35
6.0
4.76
3.54
2.29
1.01
-0.28
-1.59
-2.96
-4.47
-6.18
-8.09
-10.08
-12.03
-13.79
-15.27
-16.55
-17.81
-19.39
-21.62
-24.73
-28.65
-33.0
-36.99
-39.69
-40.19
-37.95
-32.95
-25.75
-17.36
-8.91
-1.41
4.48
8.55
10.95
12.07
12.36
12.2
11.85
11.52
11.33
11.37
11.73
12.4
13.38
14.54
15.73
16.82
17.67
18.23
18.49
18.46
18.06
17.21
15.8
13.81
11.33
8.61
5.98
3.7
1.93
0.64
-0.33
-1.19
-2.09
-3.13
-4.34
-5.76
-7.44
-9.41
-11.64
-14.02
-16.38
-18.51
-20.34
-21.91
-23.46
-25.35
-27.94
-31.45
-35.77
-40.42
-44.59
-47.22
-47.34
-44.31
-38.04
-29.07
-18.52
-7.73
1.97
9.61
14.78
17.63
18.73
18.88
18.75
18.79
19.13
19.69
20.28
20.78
21.12
21.31
21.34
21.18
20.81
20.27
19.73
19.33
19.13
18.99
18.65
17.84
16.42
14.55
12.5
10.63
9.09
7.87
6.78
5.61
4.21
2.61
0.95
-0.57
-1.81
-2.74
-3.51
-4.34
-5.51
-7.22
-9.45
-12.03
-14.65
-17.03
-19.03
-20.7
-22.3
-24.18
-26.68
-30.02
-34.16
-38.73
-42.98
-45.83
-46.2
-43.32
-37.09
-28.12
-17.6
-6.87
2.92
11.13
17.61
22.54
26.26
29.02
30.98
32.25
32.87
32.97
32.69
32.19
31.63
31.13
30.72
30.4
30.12
29.92
29.88
30.1
30.64
31.4
32.14
32.53
32.24
31.08
29.03
26.23
22.99
19.6
16.35
13.4
10.76
8.34
6.01
3.63
1.16
-1.37
-3.91
-6.37
-8.67
-10.75
-12.61
-14.25
-15.72
-17.14
-18.78
-20.99
-24.08
-28.18
-33.03
-37.91
-41.72
-43.35
-41.93
-37.23
-29.76
-20.62
-11.18
-2.65
4.18
9.08
12.22
14.05
14.99
15.32
15.19
14.72
14.05
13.4
13.01
13.03
13.39
13.93
14.35
14.41
14.03
13.27
12.31
11.36
10.51
9.72
8.84
7.63
5.92
3.66
0.96
-1.91
-4.64
-7.0
-8.92
-10.46
-11.86
-13.38
-15.22
-17.44
-19.97
-22.61
-25.11
-27.3
-29.12
-30.68
-32.24
-34.17
-36.85
-40.56
-45.3
-50.64
-55.73
-59.37
-60.38
-57.95
-51.92
-42.94
-32.21
-21.15
-11.05
-2.7
3.63
8.16
11.36
13.74
15.67
17.34
18.76
19.87
20.68
21.31
21.95
22.79
23.91
25.27
26.72
28.07
29.22
30.12
30.74
31.05
30.94
30.31
29.1
27.34
25.16
22.71
20.17
17.59
15.01
12.41
9.81
7.27
4.86
2.61
0.48
-1.69
-4.06
-6.74
-9.73
-12.85
-15.88
-18.61
-20.98
-23.14
-25.47
-28.42
-32.37
-37.41
-43.21
-48.92
-53.36
-55.3
-53.85
-48.77
-40.56
-30.33
-19.45
-9.19
-0.42
6.47
11.55
15.12
17.57
19.32
20.68
21.91
23.14
24.41
25.67
26.8
27.71
28.32
28.6
28.62
28.45
28.21
27.98
27.83
27.7
27.48
26.93
25.84
24.03
21.49
18.37
15.01
11.79
9.0
6.78
5.07
3.6
2.07
0.21
-2.1
-4.8
-7.72
-10.61
-13.3
-15.75
-18.14
-20.83
-24.2
-28.55
-33.8
-39.43
-44.38
-47.42
-47.44
-43.86
-36.88
-27.39
-16.76
-6.36
2.78
10.11
15.57
19.35
21.77
23.06
23.45
23.15
22.45
21.74
21.37
21.59
22.45
23.76
25.21
26.52
27.54
28.31
28.99
29.68
30.3
30.55
30.04
28.45
25.7
22.02
17.88
13.79
10.14
7.09
4.58
2.4
0.27
-2.12
-4.93
-8.23
-11.88
-15.62
-19.12
-22.14
-24.66
-26.91
-29.32
-32.38
-36.41
-41.44
-47.04
-52.34
-56.14
-57.24
-54.81
-48.69
-39.51
-28.51
-17.18
-6.81
1.8
8.4
13.16
16.45
18.67
20.2
21.36
22.46
23.7
25.13
26.66
28.11
29.3
30.13
30.61
30.81
30.86
30.84
30.78
30.65
30.37
29.85
28.97
27.64
25.86
23.65
21.13
18.47
15.84
13.4
11.24
9.33
7.54
5.66
3.45
0.77
-2.43
-6.03
-9.8
-13.51
-16.99
-20.23
-23.34
-26.56
-30.17
-34.42
-39.39
-44.88
-50.3
-54.67
-56.86
-55.89
-51.3
-43.38
-33.08
-21.8
-10.94
-1.58
5.78
11.09
14.66
16.96
18.41
19.37
20.1
20.77
21.48
22.28
23.12
23.96
24.72
25.32
25.75
26.08
26.41
26.8
27.23
27.53
27.45
26.71
25.16
22.83
19.95
16.84
13.85
11.16
8.75
6.44
3.95
1.08
-2.19
-5.63
-8.92
-11.77
-14.08
-16.0
-17.92
-20.28
-23.52
-27.81
-33.09
-38.83
-44.13
-47.82
-48.75
-46.15
-39.98
-30.99
-20.49
-9.98
-0.58
7.12
13.12
17.76
21.42
24.32
26.51
27.95
28.65
28.74
28.48
28.17
28.02
28.12
28.38
28.66
28.78
28.68
28.35
27.86
27.25
26.45
25.37
23.85
21.81
19.28
16.45
13.56
10.83
8.41
6.31
4.4
2.53
0.59
-1.48
-3.65
-5.83
-7.97
-10.02
-12.0
-14.02
-16.27
-19.04
-22.71
-27.58
-33.73
-40.86
-48.17
-54.52
-58.56
-59.19
-55.84
-48.67
-38.58
-26.94
-15.26
-4.77
3.81
10.29
14.95
18.17
20.33
21.68
22.39
22.66
22.75
22.91
23.31
23.93
24.67
25.38
26.03
26.68
27.48
28.5
29.67
30.79
31.55
31.66
30.95
29.38
27.09
24.26
21.19
18.1
15.17
12.48
10.0
7.66
5.41
3.2
1.0
-1.3
-3.79
-6.58
-9.67
-12.94
-16.2
-19.27
-22.07
-24.7
-27.4
-30.43
-34.08
-38.43
-43.33
-48.29
-52.49
-54.93
-54.6
-50.91
-43.88
-34.28
-23.36
-12.57
-3.08
4.43
9.87
13.52
15.9
17.47
18.57
19.36
19.89
20.19
20.34
20.44
20.6
20.87
21.23
21.61
21.96
22.3
22.73
23.34
24.09
24.72
24.87
24.16
22.39
19.7
16.53
13.41
10.76
8.7
7.04
5.42
3.48
1.04
-1.82
-4.81
-7.65
-10.16
-12.32
-14.33
-16.47
-19.04
-22.31
-26.41
-31.25
-36.4
-41.04
-44.06
-44.34
-41.16
-34.49
-25.11
-14.37
-3.81
5.35
12.48
17.5
20.71
22.5
23.19
22.98
22.09
20.79
19.41
18.29
17.61
17.41
17.55
17.87
18.24
18.64
19.06
19.53
19.98
20.25
20.14
19.42
17.97
15.79
13.09
10.2
7.51
5.29
3.54
2.0
0.22
-2.17
-5.29
-8.89
-12.49
-15.65
-18.15
-20.17
-22.17
-24.77
-28.41
-33.26
-39.07
-45.16
-50.51
-53.9
-54.25
-50.92
-44.01
-34.33
-23.24
-12.21
-2.4
5.57
11.62
16.0
19.08
21.14
22.42
23.1
23.38
23.47
23.55
23.74
24.07
24.51
24.97
25.36
25.62
25.71
25.68
25.56
25.39
25.12
24.64
23.81
22.51
20.72
18.5
16.0
13.41
10.86
8.48
6.39
4.61
3.12
1.82
0.52
-1.04
-3.05
-5.63
-8.76
-12.25
-15.85
-19.31
-22.47
-25.34
-28.13
-31.18
-34.85
-39.38
-44.65
-50.11
-54.73
-57.28
-56.61
-52.14
-44.08
-33.46
-21.83
-10.73
-1.29
6.02
11.3
15.03
17.7
19.72
21.31
22.59
23.68
24.67
25.59
26.41
27.02
27.25
27.09
26.64
26.12
25.8
25.78
26.02
26.28
26.26
25.66
24.41
22.6
20.45
18.22
16.05
13.95
11.83
9.59
7.25
4.93
2.85
1.21
0.04
-0.82
-1.64
-2.74
-4.37
-6.58
-9.31
-12.36
-15.5
-18.54
-21.35
-23.93
-26.41
-29.1
-32.34
-36.47
-41.53
-47.15
-52.41
-56.04
-56.73
-53.64
-46.74
-36.9
-25.64
-14.62
-5.15
2.08
7.1
10.37
12.5
14.02
15.26
16.39
17.48
18.59
19.8
21.2
22.77
24.44
26.0
27.21
27.9
28.05
27.82
27.44
27.06
26.67
26.09
25.07
23.41
21.09
18.29
15.3
12.4
9.81
7.56
5.58
3.67
1.61
-0.73
-3.38
-6.22
-9.03
-11.59
-13.74
-15.46
-16.88
-18.22
-19.75
-21.74
-24.44
-27.95
-32.19
-36.71
-40.72
-43.17
-43.0
-39.61
-33.03
-24.01
-13.75
-3.57
5.46
12.76
18.18
21.82
23.94
24.8
24.66
23.8
22.56
21.31
20.4
20.1
20.51
21.54
22.94
24.31
25.3
25.71
25.52
24.91
24.12
23.31
22.45
21.35
19.79
17.61
14.85
11.72
8.49
5.43
2.66
0.2
-2.04
-4.18
-6.32
-8.56
-10.94
-13.47
-16.1
-18.77
-21.38
-23.87
-26.26
-28.63
-31.2
-34.28
-38.17
-43.02
-48.68
-54.5
-59.37
-61.95
-61.03
-56.05
-47.32
-35.95
-23.54
-11.66
-1.42
6.67
12.64
16.82
19.56
21.17
21.92
22.06
21.87
21.63
21.57
21.77
22.19
22.72
23.19
23.51
23.67
23.74
23.79
23.82
23.76
23.45
22.76
21.68
20.25
18.63
16.91
15.11
13.17
11.07
8.82
6.51
4.24
2.04
-0.16
-2.51
-5.11
-7.97
-11.0
-13.98
-16.69
-19.01
-20.94
-22.6
-24.24
-26.1
-28.51
-31.75
-36.07
-41.47
-47.59
-53.57
-58.16
-59.98
-58.04
-52.05
-42.64
-31.15
-19.21
-8.24
0.86
7.82
12.86
16.43
18.95
20.75
22.01
22.84
23.33
23.64
23.93
24.35
25.02
25.88
26.81
27.6
28.14
28.39
28.42
28.32
28.13
27.78
27.1
25.91
24.11
21.77
19.09
16.36
13.85
11.75
10.08
8.66
7.22
5.46
3.17
0.32
-2.94
-6.29
-9.4
-12.05
-14.26
-16.24
-18.37
-21.06
-24.65
-29.3
-34.93
-41.06
-46.82
-51.04
-52.5
-50.33
-44.36
-35.21
-24.18
-12.78
-2.36
6.24
12.74
17.29
20.22
21.89
22.55
22.38
21.55
20.29
18.92
17.8
17.27
17.49
18.45
19.88
21.42
22.73
23.57
23.89
23.76
23.31
22.57
21.54
20.1
18.14
15.63
12.66
9.44
6.28
3.46
1.13
-0.74
-2.34
-3.95
-5.81
-8.08
-10.72
-13.58
-16.45
-19.16
-21.65
-23.96
-26.28
-28.88
-32.07
-36.16
-41.3
-47.42
-53.98
-59.99
-64.14
-65.15
-62.18
-55.2
-45.02
-33.04
-20.9
-9.93
-0.93
5.89
10.81
14.32
16.92
19.02
20.91
22.73
24.57
26.43
28.29
30.09
31.77
33.24
34.43
35.3
35.86
36.16
36.27
36.19
35.84
35.11
33.9
32.17
30.01
27.63
25.22
22.9
20.65
18.35
15.87
13.14
10.26
7.45
4.95
2.93
1.34
-0.1
-1.74
-3.9
-6.67
-9.91
-13.3
-16.53
-19.46
-22.2
-25.04
-28.38
-32.61
-37.93
-44.28
-51.2
-57.81
-62.89
-65.12
-63.5
-57.67
-48.14
-36.11
-23.19
-10.92
-0.4
7.84
13.83
17.87
20.43
21.94
22.81
23.35
23.84
24.45
25.27
26.26
27.29
28.21
28.89
29.3
29.47
29.51
29.47
29.38
29.23
29.03
28.7
28.16
27.26
25.82
23.77
21.17
18.28
15.45
12.98
10.98
9.3
7.64
5.69
3.28
0.39
-2.82
-6.18
-9.56
-12.85
-16.03
-19.12
-22.18
-25.41
-29.09
-33.52
-38.84
-44.78
-50.59
-55.04
-56.8
-54.85
-48.86
-39.41
-27.74
-15.46
-3.99
5.7
13.18
18.52
22.0
24.01
24.94
25.17
25.07
24.97
25.1
25.51
26.14
26.8
27.35
27.71
27.98
28.3
28.79
29.44
30.07
30.42
30.22
29.36
27.87
25.89
23.62
21.18
18.62
15.91
13.09
10.23
7.48
4.97
2.74
0.7
-1.32
-3.54
-6.1
-9.06
-12.4
-15.98
-19.67
-23.32
-26.78
-29.98
-32.97
-36.0
-39.5
-43.96
-49.56
-55.99
-62.29
-67.03
-68.68
-66.19
-59.3
-48.66
-35.65
-21.93
-8.98
2.13
10.91
17.31
21.59
24.17
25.55
26.28
26.86
27.68
28.97
30.76
32.89
35.14
37.28
39.16
40.74
42.02
43.03
43.73
44.07
43.94
43.26
41.97
40.08
37.69
34.99
32.15
29.37
26.71
24.13
21.5
18.66
15.51
12.13
8.73
5.58
2.88
0.64
-1.36
-3.43
-5.91
-8.95
-12.51
-16.35
-20.17
-23.77
-27.08
-30.21
-33.48
-37.23
-41.78
-47.24
-53.37
-59.51
-64.57
-67.29
-66.61
-62.0
-53.78
-43.05
-31.33
-20.11
-10.48
-2.89
2.76
6.85
9.88
12.21
14.11
15.78
17.32
18.84
20.36
21.87
23.29
24.53
25.51
26.24
26.75
27.17
27.66
28.29
29.02
29.65
29.88
29.37
27.94
25.62
22.62
19.31
16.06
13.11
10.5
8.1
5.64
2.87
-0.33
-3.92
-7.68
-11.3
-14.54
-17.27
-19.61
-21.86
-24.51
-28.03
-32.75
-38.67
-45.3
-51.68
-56.51
-58.54
-56.89
-51.34
-42.44
-31.34
-19.45
-8.12
1.69
9.52
15.36
19.49
22.25
23.95
24.84
25.14
25.1
25.07
25.37
26.23
27.66
29.43
31.19
32.61
33.52
33.92
33.94
33.71
33.24
32.44
31.19
29.36
26.97
24.05
20.75
17.21
13.59
10.06
6.75
3.78
1.12
-1.31
-3.7
-6.3
-9.3
-12.75
-16.56
-20.48
-24.23
-27.63
-30.69
-33.68
-37.03
-41.2
-46.54
-53.04
-60.2
-67.02
-72.1
-73.99
-71.61
-64.7
-53.87
-40.57
-26.54
-13.42
-2.27
6.48
13.01
17.77
21.32
24.17
26.64
28.93
31.08
33.02
34.6
35.72
36.37
36.64
36.67
36.64
36.62
36.59
36.48
36.18
35.57
34.58
33.14
31.25
28.95
26.31
23.48
20.62
17.87
15.33
13.01
10.88
8.87
6.92
4.96
2.88
0.55
-2.15
-5.32
-8.92
-12.8
-16.76
-20.58
-24.17
-27.67
-31.38
-35.72
-41.07
-47.53
-54.76
-61.85
-67.49
-70.25
-69.01
-63.38
-53.9
-41.87
-28.98
-16.79
-6.34
2.01
8.33
12.99
16.33
18.6
20.04
20.9
21.51
22.22
23.23
24.56
26.03
27.35
28.28
28.73
28.81
28.75
28.81
29.09
29.49
29.7
29.31
28.0
25.71
22.68
19.38
16.25
13.57
11.25
8.92
6.15
2.61
-1.68
-6.39
-11.05
-15.17
-18.5
-21.07
-23.24
-25.57
-28.68
-33.1
-39.02
-46.11
-53.42
-59.48
-62.74
-62.0
-56.82
-47.74
-36.04
-23.35
-11.23
-0.75
7.59
13.82
18.34
21.62
24.09
26.03
27.57
28.79
29.75
30.58
31.43
32.45
33.69
35.04
36.36
37.47
38.3
38.8
38.99
38.87
38.36
37.39
35.9
33.91
31.47
28.64
25.52
22.2
18.8
15.49
12.39
9.58
7.01
4.53
1.94
-0.92
-4.14
-7.71
-11.55
-15.59
-19.73
-23.95
-28.24
-32.64
-37.33
-42.59
-48.75
-56.03
-64.3
-72.84
-80.42
-85.43
-86.42
-82.56
-73.94
-61.61
-47.24
-32.6
-19.08
-7.5
1.97
9.53
15.58
20.51
24.67
28.32
31.66
34.77
37.66
40.24
42.39
44.07
45.34
46.29
47.07
47.76
48.34
48.73
48.76
48.32
47.32
45.71
43.52
40.84
37.82
34.63
31.46
28.42
25.52
22.68
19.78
16.76
13.67
10.6
7.6
4.6
1.45
-2.07
-6.04
-10.38
-14.81
-19.06
-23.0
-26.72
-30.57
-35.02
-40.47
-47.02
-54.25
-61.26
-66.71
-69.2
-67.64
-61.66
-51.78
-39.29
-25.9
-13.27
-2.55
5.73
11.68
15.77
18.61
20.69
22.33
23.68
24.82
25.81
26.72
27.61
28.48
29.28
29.89
30.24
30.32
30.19
29.97
29.73
29.39
28.73
27.5
25.49
22.71
19.34
15.72
12.16
8.78
5.58
2.36
-1.06
-4.75
-8.65
-12.54
-16.12
-19.15
-21.5
-23.26
-24.78
-26.6
-29.38
-33.57
-39.22
-45.72
-51.82
-55.93
-56.55
-52.85
-44.96
-33.89
-21.29
-8.82
2.25
11.25
18.08
23.03
26.47
28.74
30.11
30.79
30.99
30.96
30.93
31.1
31.57
32.31
33.18
33.98
34.53
34.78
34.79
34.68
34.53
34.31
33.82
32.82
31.13
28.71
25.68
22.28
18.81
15.5
12.52
9.92
7.6
5.36
2.91
-0.04
-3.63
-7.82
-12.35
-16.84
-20.92
-24.42
-27.43
-30.33
-33.65
-37.89
-43.33
-49.86
-56.9
-63.35
-67.87
-69.12
-66.25
-59.18
-48.72
-36.31
-23.65
-12.18
-2.71
4.56
9.94
13.99
17.26
20.14
22.81
25.32
27.66
29.76
31.58
33.13
34.43
35.49
36.32
36.94
37.38
37.68
37.9
38.05
38.09
37.91
37.34
36.26
34.57
32.3
29.53
26.4
23.06
19.65
16.33
13.19
10.32
7.66
5.05
2.24
-0.96
-4.61
-8.57
-12.52
-16.14
-19.26
-21.94
-24.49
-27.33
-30.84
-35.26
-40.58
-46.49
-52.36
-57.3
-60.28
-60.38
-57.07
-50.39
-41.06
-30.24
