16.83
19.38
21.25
22.76
24.13
25.5
26.85
28.06
29.0
29.6
29.86
29.86
29.7
29.46
29.21
28.98
28.75
28.45
27.89
26.84
25.14
22.77
19.92
16.87
13.96
11.39
9.2
7.29
5.52
3.75
1.92
-0.03
-2.18
-4.59
-7.31
-10.28
-13.35
-16.31
-19.03
-21.54
-24.08
-27.03
-30.75
-35.44
-40.93
-46.6
-51.43
-54.24
-53.96
-50.05
-42.67
-32.73
-21.63
-10.85
-1.58
5.54
10.42
13.41
15.03
15.8
16.19
16.49
16.94
17.67
18.73
20.11
21.71
23.43
25.1
26.57
27.71
28.48
28.96
29.2
29.24
28.99
28.26
26.82
24.58
21.65
18.32
14.97
11.93
9.27
6.91
4.57
2.0
-0.95
-4.23
-7.6
-10.72
-13.35
-15.39
-17.04
-18.74
-21.02
-24.35
-28.94
-34.62
-40.8
-46.52
-50.6
-51.92
-49.73
-43.86
-34.93
-24.13
-12.93
-2.67
5.81
12.23
16.8
19.92
22.02
23.42
24.38
25.15
25.98
27.09
28.55
30.25
31.96
33.43
34.5
35.17
35.52
35.64
35.54
35.13
34.3
32.96
31.12
28.91
26.48
24.04
21.68
19.42
17.19
14.85
12.34
9.66
6.98
4.46
2.24
0.25
-1.72
-3.94
-6.63
-9.8
-13.3
-16.87
-20.29
-23.47
-26.49
-29.45
-32.5
-35.79
-39.48
-43.67
-48.32
-53.04
-57.03
-59.17
-58.33
-53.83
-45.72
-34.88
-22.81
-11.15
-1.19
6.39
11.64
15.1
17.51
19.48
21.4
23.37
25.38
27.33
29.18
30.9
32.44
33.68
34.52
34.89
34.86
34.62
34.38
34.24
34.11
33.71
32.72
30.97
28.52
25.67
22.82
20.29
18.16
16.28
14.37
12.19
9.73
7.2
4.89
3.0
1.49
0.09
-1.59
-3.84
-6.71
-10.03
-13.44
-16.63
-19.42
-21.83
-24.05
-26.38
-29.17
-32.72
-37.16
-42.31
-47.6
-52.05
-54.47
-53.84
-49.62
-42.04
-32.01
-20.94
-10.26
-1.1
5.94
10.78
13.72
15.23
15.84
16.0
16.1
16.36
16.91
17.66
18.46
19.07
19.37
19.31
19.03
18.68
18.37
18.15
17.92
17.61
17.14
16.51
15.68
14.59
13.14
11.23
8.93
6.45
4.12
2.19
0.7
-0.58
-2.05
-4.0
-6.47
-9.23
-11.89
-14.13
-15.8
-17.02
-18.12
-19.42
-21.28
-23.99
-27.72
-32.42
-37.68
-42.68
-46.28
-47.28
-44.9
-39.03
-30.35
-20.13
-9.83
-0.61
6.88
12.56
16.73
19.77
21.95
23.39
24.14
24.27
23.96
23.48
23.08
22.91
23.02
23.31
23.64
23.95
24.18
24.33
24.36
24.2
23.69
22.69
21.09
18.94
16.41
13.76
11.21
8.9
6.83
4.92
3.08
1.26
-0.52
-2.19
-3.72
-5.11
-6.42
-7.79
-9.36
-11.22
-13.35
-15.67
-18.0
-20.19
-22.17
-23.99
-25.83
-27.98
-30.76
-34.4
-38.97
-44.21
-49.49
-53.83
-56.15
-55.47
-51.34
-44.01
-34.41
-23.88
-13.78
-5.09
1.79
6.98
10.92
14.05
16.71
19.02
21.01
22.68
24.08
25.28
26.31
27.15
27.7
27.89
27.69
27.22
26.64
26.16
25.88
25.79
25.73
25.46
24.79
23.63
22.03
20.18
18.3
16.57
15.07
13.72
12.39
10.89
9.13
7.14
5.03
3.01
1.21
-0.34
-1.79
-3.33
-5.17
-7.4
-9.95
-12.62
-15.18
-17.48
-19.54
-21.54
-23.81
-26.74
-30.61
-35.44
-40.85
-46.01
-49.75
-50.88
-48.58
-42.74
-34.04
-23.76
-13.41
-4.25
2.98
8.16
11.57
13.75
15.17
16.21
17.04
17.75
18.35
18.85
19.27
19.67
20.05
20.45
20.87
21.26
21.58
21.85
22.04
22.12
22.0
21.52
20.5
18.79
16.37
13.38
10.09
6.86
4.01
1.76
0.11
-1.15
-2.38
-3.93
-6.02
-8.58
-11.34
-13.93
-16.1
-17.9
-19.59
-21.61
-24.31
-27.88
-32.26
-37.16
-42.06
-46.3
-49.05
-49.46
-46.88
-41.1
-32.54
-22.21
-11.45
-1.56
6.55
12.56
16.62
19.19
20.73
21.63
22.07
22.21
22.2
22.24
22.48
23.02
23.77
24.56
25.23
25.68
25.94
26.1
26.22
26.35
26.38
26.16
25.56
24.44
22.77
20.61
18.14
15.59
13.25
11.29
9.7
8.33
6.9
5.22
3.27
1.21
-0.72
-2.37
-3.77
-5.15
-6.85
-9.11
-12.02
-15.4
-18.92
-22.26
-25.16
-27.59
-29.63
-31.5
-33.49
-35.91
-39.07
-43.1
-47.83
-52.62
-56.45
-58.05
-56.4
-51.09
-42.46
-31.63
-20.03
-9.07
0.22
7.39
12.43
15.71
17.76
19.12
20.23
21.36
22.58
23.84
25.02
26.09
27.02
27.8
28.42
28.78
28.86
28.67
28.32
27.94
27.57
27.17
26.56
25.55
24.08
22.21
20.17
18.23
16.62
15.46
14.7
14.17
13.59
12.67
11.24
9.25
6.88
4.4
2.08
0.01
-1.85
-3.69
-5.71
-7.98
-10.46
-13.04
-15.59
-18.05
-20.44
-22.78
-25.14
-27.64
-30.47
-33.93
-38.19
-43.16
-48.29
-52.6
-54.85
-53.96
-49.41
-41.5
-31.23
-20.11
-9.63
-0.92
5.51
9.79
12.39
13.91
14.8
15.31
15.53
15.54
15.53
15.74
16.37
17.47
18.88
20.3
21.49
22.34
22.9
23.31
23.66
23.92
23.94
23.48
22.35
20.5
18.0
15.04
11.93
8.95
6.34
4.21
2.55
1.16
-0.23
-1.92
-4.09
-6.8
-9.88
-13.04
-15.95
-18.37
-20.34
-22.12
-24.19
-27.07
-31.11
-36.36
-42.43
-48.47
-53.36
-55.87
-55.04
-50.43
-42.34
-31.74
-20.02
-8.6
1.46
9.58
15.69
20.05
23.04
24.97
26.11
26.67
26.9
27.02
27.2
27.51
27.89
28.24
28.49
28.64
28.78
29.0
29.34
29.7
29.84
29.5
28.49
26.78
24.5
21.91
19.27
16.79
14.52
12.38
10.24
7.95
5.47
2.87
0.28
-2.11
-4.24
-6.18
-8.1
-10.24
-12.76
-15.67
-18.83
-21.99
-24.93
-27.6
-30.14
-32.9
-36.31
-40.68
-46.05
-52.08
-57.92
-62.42
-64.29
-62.51
-56.68
-47.21
-35.23
-22.35
-10.14
0.24
8.25
13.99
17.89
20.57
22.5
23.99
25.2
26.15
26.83
27.24
27.41
27.39
27.27
27.15
27.04
26.98
26.92
26.84
26.71
26.53
26.26
25.82
25.13
24.09
22.73
21.1
19.32
17.53
15.76
13.95
12.03
9.94
7.67
5.26
2.79
0.28
-2.29
-4.96
-7.74
-10.59
-13.45
-16.26
-19.07
-22.01
-25.31
-29.26
-34.05
-39.62
-45.5
-50.82
-54.43
-55.21
-52.47
-46.17
-37.01
-26.23
-15.23
-5.19
3.15
9.58
14.31
17.7
20.07
21.64
22.54
22.84
22.71
22.4
22.17
22.2
22.55
23.13
23.81
24.55
25.36
26.26
27.18
27.87
28.02
27.31
25.59
22.96
19.67
16.07
12.46
9.0
5.75
2.67
-0.28
-3.11
-5.76
-8.17
-10.28
-12.08
-13.68
-15.3
-17.34
-20.25
-24.46
-30.13
-37.02
-44.33
-50.82
-55.06
-55.8
-52.44
-45.16
-34.96
-23.32
-11.78
-1.54
6.72
12.87
17.17
19.98
21.6
22.25
22.06
21.24
20.06
18.88
18.03
17.68
17.83
18.35
19.04
19.75
20.42
20.99
21.41
21.5
21.07
19.9
17.82
14.8
10.87
6.23
1.14
-4.0
-8.77
-12.83
-15.97
-18.25
-19.92
-21.4
-23.13
-25.57
-29.01
-33.57
-39.02
-44.69
-49.53
-52.31
-51.92
-47.83
-40.24
-30.06
-18.67
-7.43
2.63
10.94
17.43
22.32
25.96
28.73
30.92
32.72
34.23
35.45
36.36
36.93
37.22
37.33
37.35
37.34
37.22
36.87
36.14
34.93
33.23
31.1
28.59
25.69
22.31
18.33
13.69
8.47
2.93
-2.54
-7.56
-11.88
-15.5
-18.66
-21.76
-25.23
-29.44
-34.7
-41.13
-48.59
-56.59
-64.19
-70.13
-73.07
-71.99
-66.61
-57.42
-45.64
-32.78
-20.2
-8.77
1.21
9.87
17.48
24.24
30.15
35.07
38.86
41.5
43.11
43.9
44.06
43.72
42.9
41.67
40.16
38.6
37.23
36.16
35.26
34.24
32.65
30.14
26.54
21.95
16.65
11.02
5.41
0.11
-4.74
-9.12
-13.17
-17.06
-20.96
-24.9
-28.71
-32.11
-34.78
-36.6
-37.75
-38.76
-40.33
-43.13
-47.6
-53.69
-60.85
-68.06
-73.94
-77.05
-76.28
-71.15
-62.08
-50.23
-37.2
-24.5
-13.14
-3.48
4.67
11.65
17.75
23.07
27.61
31.37
34.53
37.33
40.0
42.61
45.11
47.39
49.36
51.02
52.49
53.86
55.13
56.18
56.8
56.77
55.96
54.4
52.19
49.51
46.48
43.11
39.38
35.28
30.94
26.61
22.6
19.12
16.19
13.58
10.92
7.89
4.32
0.29
-3.99
-8.26
-12.37
-16.28
-20.05
-23.86
-27.96
-32.69
-38.4
-45.21
-52.76
-60.03
-65.48
-67.43
-64.71
-57.11
-45.55
-31.72
-17.53
-4.57
6.27
14.72
20.94
25.29
28.1
29.73
30.52
30.84
31.04
31.42
32.17
33.32
34.8
36.41
37.94
39.18
40.04
40.53
40.74
40.77
40.65
40.33
39.67
38.6
37.12
35.39
33.61
31.96
30.53
29.18
27.68
25.77
23.3
20.29
16.94
13.5
10.18
7.04
3.96
0.77
-2.71
-6.56
-10.73
-15.08
-19.42
-23.52
-27.19
-30.34
-33.0
-35.44
-38.08
-41.39
-45.58
-50.4
-55.0
-58.08
-58.32
-54.86
-47.68
-37.61
-26.06
-14.51
-4.1
4.63
11.62
17.11
21.38
24.62
27.02
28.81
30.28
31.7
33.23
34.83
36.28
37.31
37.69
37.39
36.59
35.56
34.58
33.8
33.19
32.61
31.89
30.87
29.42
27.52
25.23
22.66
20.01
17.48
15.17
13.1
11.16
9.15
6.99
4.7
2.43
0.38
-1.37
-2.93
-4.51
-6.38
-8.65
-11.26
-14.02
-16.71
-19.22
-21.54
-23.76
-25.98
-28.31
-30.93
-33.99
-37.69
-41.97
-46.43
-50.2
-52.13
-51.15
-46.73
-39.09
-29.24
-18.59
-8.54
-0.07
6.42
10.97
13.96
15.79
16.86
17.46
17.82
18.16
18.62
19.23
19.99
20.75
21.31
21.48
21.18
20.44
19.47
18.5
17.72
17.12
16.55
15.75
14.53
12.89
10.99
9.09
7.38
5.92
4.6
3.25
1.79
0.2
-1.37
-2.75
-3.87
-4.82
-5.8
-7.06
-8.74
-10.81
-13.03
-15.14
-16.92
-18.32
-19.5
-20.7
-22.21
-24.29
-27.08
-30.59
-34.57
-38.45
-41.34
-42.22
-40.31
-35.34
-27.77
-18.71
-9.51
-1.39
4.95
9.34
12.06
13.56
14.26
14.46
14.3
13.89
13.33
12.75
12.27
11.95
11.78
11.7
11.63
11.52
11.37
11.23
11.09
10.92
10.65
10.17
9.39
8.28
6.85
5.19
3.43
1.74
0.29
-0.76
-1.36
-1.59
-1.67
-1.86
-2.4
-3.36
-4.61
-5.9
-6.96
-7.68
-8.12
-8.5
-9.12
-10.14
-11.59
-13.3
-15.02
-16.55
-17.84
-18.95
-20.07
-21.38
-23.08
-25.32
-28.21
-31.71
-35.49
-38.91
-41.01
-40.8
-37.66
-31.52
-23.12
-13.68
-4.62
2.97
8.51
12.04
13.99
14.89
15.16
15.0
14.47
13.66
12.72
11.88
11.34
11.21
11.41
11.76
12.06
12.19
12.16
12.08
12.05
12.09
12.14
12.07
11.7
10.89
9.59
7.85
5.86
3.9
2.19
0.93
0.04
-0.66
-1.42
-2.43
-3.72
-5.15
-6.51
-7.64
-8.55
-9.38
-10.32
-11.57
-13.14
-14.93
-16.76
-18.46
-19.93
-21.16
-22.25
-23.31
-24.46
-25.89
-27.76
-30.13
-32.82
-35.31
-36.83
-36.55
-33.93
-28.96
-22.25
-14.8
-7.66
-1.64
2.89
6.01
8.02
9.28
10.06
10.46
10.54
10.32
9.88
9.4
9.07
9.04
9.37
10.04
10.89
11.74
12.38
12.68
12.54
11.99
11.04
9.81
8.39
6.83
5.19
3.46
1.66
-0.15
-1.85
-3.29
-4.33
-4.94
-5.23
-5.42
-5.81
-6.59
-7.8
-9.28
-10.78
-12.09
-13.08
-13.81
-14.44
-15.23
-16.38
-18.06
-20.32
-23.07
-26.04
-28.72
-30.44
-30.5
-28.42
-24.09
-17.91
-10.67
-3.37
3.16
8.38
12.15
14.64
16.19
17.11
17.58
17.69
17.47
16.97
16.29
15.6
15.04
14.69
14.58
14.65
14.81
15.04
15.33
15.68
15.99
16.08
15.72
14.72
12.98
10.59
7.79
4.85
2.09
-0.3
-2.22
-3.67
-4.72
-5.47
-6.04
-6.52
-7.01
-7.63
-8.48
-9.62
-11.04
-12.69
-14.46
-16.29
-18.18
-20.22
-22.58
-25.46
-28.99
-33.13
-37.54
-41.55
-44.2
-44.58
-42.07
-36.7
-29.13
-20.5
-12.03
-4.61
1.29
5.64
8.65
10.59
11.68
12.14
12.17
12.04
11.97
12.12
12.57
13.33
14.36
15.61
16.98
18.31
19.41
20.11
20.29
19.92
19.04
17.7
15.95
13.87
11.6
9.33
7.27
5.52
4.08
2.84
1.69
0.55
-0.53
-1.48
-2.31
-3.17
-4.29
-5.86
-7.92
-10.27
-12.6
-14.63
-16.19
-17.4
-18.5
-19.82
-21.64
-24.13
-27.32
-30.97
-34.54
-37.23
-38.14
-36.52
-32.17
-25.46
-17.37
-9.09
-1.7
4.17
8.4
11.25
13.11
14.35
15.17
15.65
15.82
15.73
15.49
15.26
15.19
15.35
15.75
16.3
16.89
17.49
18.13
18.87
19.75
20.71
21.6
22.17
22.25
21.73
20.64
19.11
17.26
15.22
13.11
11.02
9.0
7.14
5.46
3.97
2.61
1.3
-0.04
-1.46
-2.93
-4.36
-5.67
-6.82
-7.91
-9.2
-11.07
-13.9
-17.9
-22.98
-28.63
-33.95
-37.84
-39.31
-37.7
-32.96
-25.66
-16.79
-7.51
1.18
8.55
14.29
18.37
20.94
22.26
22.64
22.42
21.89
21.3
20.83
20.54
20.41
20.36
20.37
20.4
20.47
20.61
20.78
20.92
20.92
20.63
19.96
18.78
17.04
14.78
12.11
9.26
6.52
4.14
2.16
0.45
-1.32
-3.45
-6.07
-9.04
-12.0
-14.62
-16.71
-18.3
-19.7
-21.33
-23.59
-26.73
-30.72
-35.21
-39.51
-42.71
-43.85
-42.24
-37.66
-30.49
-21.63
-12.17
-3.13
4.76
11.15
15.97
19.32
21.36
22.2
22.02
21.05
19.64
18.22
17.21
16.91
17.4
18.5
19.91
21.26
22.32
23.01
23.43
23.68
23.79
23.68
23.14
21.96
20.09
17.6
14.77
11.96
9.46
7.44
5.8
4.32
2.71
0.76
-1.53
-4.05
-6.53
-8.84
-10.98
-13.06
-15.32
-17.98
-21.21
-25.1
-29.61
-34.46
-39.01
-42.37
-43.52
-41.68
-36.6
-28.72
-19.05
-8.79
0.95
9.51
16.61
22.3
26.69
29.86
31.82
32.63
32.44
31.53
30.25
28.86
27.54
26.25
24.95
23.56
22.11
20.67
19.39
18.34
17.51
16.87
16.28
15.58
14.55
12.96
10.71
7.83
4.59
1.36
-1.48
-3.76
-5.58
-7.26
-9.15
-11.46
-14.14
-16.96
-19.66
-22.08
-24.22
-26.18
-28.09
-30.08
-32.25
-34.8
-37.94
-41.79
-46.17
-50.46
-53.61
-54.48
-52.2
-46.52
-37.93
-27.52
-16.63
-6.47
2.1
8.72
13.47
16.72
18.99
20.73
22.21
23.51
24.54
25.19
25.5
25.6
25.72
26.01
26.5
27.11
27.7
28.17
28.47
28.61
28.55
28.22
27.46
26.18
24.29
21.85
19.01
16.0
13.08
10.46
8.19
6.22
4.37
2.42
0.22
-2.3
-5.12
-8.12
-11.19
-14.22
-17.19
-20.04
-22.82
-25.58
-28.45
-31.67
-35.49
-40.01
-45.05
-49.94
-53.65
-55.03
-53.16
-47.78
-39.33
-28.94
-17.94
-7.56
1.38
8.53
13.92
17.78
20.42
22.11
23.15
23.84
24.4
25.04
25.85
26.79
27.76
28.64
29.32
29.77
29.98
29.96
29.72
29.24
28.48
27.38
25.86
23.89
21.52
18.83
16.01
13.21
10.57
8.12
5.82
3.61
1.37
-0.94
-3.4
-6.02
-8.79
-11.64
-14.46
-17.12
-19.56
-21.87
-24.27
-27.09
-30.63
-35.03
-40.18
-45.61
-50.52
-53.91
-54.8
-52.53
-46.97
-38.62
-28.5
-17.88
-7.9
0.67
7.47
12.58
16.24
18.72
20.23
20.94
21.06
20.83
20.57
20.54
20.92
21.72
22.84
24.06
25.22
26.2
26.96
27.52
27.88
27.98
27.65
26.67
24.87
22.22
18.88
15.21
11.62
8.41
5.66
3.21
0.72
-2.06
-5.22
-8.63
-12.02
-15.14
-17.84
-20.17
-22.39
-24.87
-28.06
-32.32
-37.72
-43.9
-49.94
-54.58
-56.46
-54.69
-49.11
-40.4
-29.89
-19.11
-9.28
-1.11
5.3
10.18
13.94
16.89
19.25
21.16
22.72
24.04
25.22
26.29
27.28
28.19
29.06
29.9
30.74
31.51
32.1
32.4
32.32
31.82
30.9
29.62
28.0
26.08
23.91
21.56
19.08
16.52
13.97
11.47
9.09
6.86
4.69
2.42
-0.12
-3.07
-6.4
-9.92
-13.37
-16.54
-19.37
-21.98
-24.72
-28.0
-32.21
-37.54
-43.84
-50.49
-56.42
-60.35
-61.09
-57.94
-50.95
-40.92
-29.17
-17.13
-6.03
3.38
10.84
16.47
20.62
23.71
26.14
28.18
29.98
31.58
32.96
34.11
35.01
35.73
36.34
36.92
37.53
38.23
38.95
39.6
39.95
39.75
38.74
36.72
33.68
29.72
25.14
20.33
15.72
11.72
8.56
6.3
4.73
3.46
2.04
0.15
-2.33
-5.26
-8.35
-11.32
-14.03
-16.57
-19.18
-22.2
-25.91
-30.54
-36.15
-42.58
-49.32
-55.44
-59.7
-60.85
-58.07
-51.28
-41.26
-29.37
-17.12
-5.79
3.82
11.43
17.04
20.87
23.18
24.3
24.58
