22.29
22.33
22.31
22.36
22.51
22.64
22.57
22.05
20.89
19.01
16.43
13.35
10.04
6.86
4.12
1.95
0.26
-1.24
-2.92
-5.07
-7.74
-10.71
-13.57
-16.01
-17.91
-19.43
-20.99
-23.05
-25.99
-30.0
-34.96
-40.46
-45.69
-49.59
-51.0
-49.02
-43.34
-34.42
-23.45
-12.01
-1.59
6.8
12.76
16.53
18.58
19.47
19.6
19.23
18.6
17.91
17.43
17.38
17.85
18.81
20.01
21.19
22.1
22.6
22.74
22.62
22.35
21.93
21.24
20.05
18.09
15.27
11.73
7.84
4.13
1.05
-1.2
-2.74
-3.96
-5.28
-7.04
-9.29
-11.88
-14.52
-16.98
-19.19
-21.3
-23.59
-26.4
-30.02
-34.62
-40.11
-46.13
-51.93
-56.51
-58.75
-57.75
-53.06
-44.93
-34.29
-22.5
-11.0
-0.95
7.06
12.96
17.06
19.81
21.64
22.84
23.59
24.0
24.2
24.33
24.5
24.78
25.16
25.59
25.98
26.27
26.43
26.45
26.32
26.02
25.46
24.52
23.14
21.31
19.14
16.8
14.44
12.15
9.88
7.59
5.25
2.85
0.46
-1.87
-4.16
-6.46
-8.88
-11.49
-14.25
-17.02
-19.62
-21.92
-23.92
-25.78
-27.83
-30.46
-33.96
-38.43
-43.6
-48.73
-52.73
-54.41
-52.81
-47.55
-39.09
-28.57
-17.53
-7.42
0.79
6.82
10.97
13.8
15.91
17.65
19.15
20.35
21.19
21.71
22.05
22.38
22.78
23.19
23.42
23.35
22.96
22.44
22.07
22.01
22.18
22.25
21.77
20.36
17.95
14.82
11.4
8.18
5.47
3.31
1.49
-0.26
-2.26
-4.64
-7.35
-10.17
-12.81
-15.02
-16.75
-18.18
-19.7
-21.76
-24.7
-28.66
-33.45
-38.52
-43.03
-45.95
-46.29
-43.38
-37.14
-28.18
-17.65
-6.96
2.64
10.35
15.93
19.61
21.8
22.92
23.23
22.9
22.01
20.74
19.37
18.23
17.57
17.52
17.94
18.57
19.12
19.4
19.4
19.25
19.06
18.83
18.37
17.39
15.62
12.98
9.66
6.04
2.58
-0.34
-2.55
-4.1
-5.26
-6.38
-7.8
-9.69
-12.04
-14.62
-17.2
-19.56
-21.7
-23.79
-26.15
-29.18
-33.16
-38.16
-43.9
-49.67
-54.39
-56.8
-55.81
-50.95
-42.51
-31.6
-19.74
-8.42
1.33
9.07
14.86
19.01
21.89
23.77
24.85
25.35
25.49
25.5
25.55
25.75
26.07
26.41
26.64
26.66
26.41
25.94
25.34
24.72
24.13
23.49
22.58
21.1
18.82
15.77
12.18
8.55
5.39
3.04
1.53
0.59
-0.22
-1.33
-2.99
-5.2
-7.77
-10.43
-12.89
-15.08
-17.02
-18.9
-20.97
-23.48
-26.64
-30.57
-35.32
-40.65
-46.04
-50.56
-53.05
-52.46
-48.22
-40.54
-30.41
-19.3
-8.73
0.24
7.14
12.03
15.26
17.23
18.26
18.61
18.5
18.23
18.04
18.09
18.37
18.8
19.22
19.59
19.96
20.45
21.12
21.88
22.45
22.51
21.82
20.27
18.02
15.33
12.52
9.81
7.26
4.78
2.16
-0.77
-4.09
-7.73
-11.44
-14.97
-18.12
-20.89
-23.41
-25.97
-28.92
-32.57
-37.14
-42.58
-48.4
-53.67
-57.08
-57.36
-53.68
-46.08
-35.46
-23.34
-11.34
-0.72
7.89
14.43
19.25
22.72
25.17
26.78
27.64
27.92
27.87
27.8
27.94
28.38
28.98
29.47
29.61
29.32
28.72
28.01
27.36
26.79
26.13
25.11
23.56
21.43
18.83
16.01
13.25
10.78
8.73
7.08
5.68
4.27
2.55
0.25
-2.69
-6.19
-10.01
-13.83
-17.42
-20.7
-23.82
-27.05
-30.81
-35.41
-40.99
-47.35
-53.79
-59.2
-62.22
-61.65
-56.86
-48.04
-36.29
-23.24
-10.65
0.16
8.56
14.6
18.8
21.83
24.25
26.36
28.26
29.94
31.41
32.68
33.79
34.77
35.61
36.26
36.66
36.78
36.62
36.22
35.62
34.86
33.96
32.83
31.37
29.46
27.03
24.14
20.93
17.63
14.45
11.51
8.87
6.47
4.21
1.94
-0.49
-3.2
-6.22
-9.46
-12.74
-15.86
-18.67
-21.15
-23.46
-25.88
-28.75
-32.44
-37.18
-42.89
-49.06
-54.67
-58.35
-58.77
-55.11
-47.38
-36.48
-23.98
-11.59
-0.7
7.95
14.27
18.63
21.61
23.69
25.22
26.41
27.38
28.25
29.1
29.95
30.74
31.36
31.69
31.72
31.57
31.4
31.38
31.53
31.65
31.41
30.46
28.56
25.73
22.23
18.47
14.91
11.87
9.38
7.21
4.92
2.05
-1.64
-6.07
-10.84
-15.4
-19.29
-22.37
-24.84
-27.2
-30.01
-33.74
-38.64
-44.58
-51.01
-56.91
-60.98
-61.88
-58.68
-51.26
-40.41
-27.66
-14.8
-3.37
5.76
12.46
17.12
20.42
22.94
25.05
26.91
28.5
29.8
30.84
31.79
32.82
34.0
35.28
36.45
37.25
37.5
37.19
36.51
35.64
34.66
33.49
31.94
29.83
27.08
23.79
20.16
16.44
12.85
9.55
6.59
3.96
1.57
-0.7
-3.02
-5.56
-8.39
-11.56
-14.98
-18.53
-22.08
-25.52
-28.88
-32.29
-36.05
-40.45
-45.76
-51.96
-58.72
-65.25
-70.41
-72.89
-71.61
-66.05
-56.52
-44.17
-30.64
-17.65
-6.49
2.25
8.67
13.3
16.77
19.55
21.9
23.86
25.5
26.88
28.15
29.39
30.58
31.52
31.93
31.59
30.49
28.82
26.98
25.37
24.22
23.47
22.79
21.74
19.95
17.28
13.92
10.26
6.74
3.68
1.17
-0.97
-3.1
-5.61
-8.81
-12.8
-17.43
-22.35
-27.11
-31.32
-34.77
-37.52
-39.86
-42.32
-45.42
-49.51
-54.46
-59.65
-63.92
-65.89
-64.39
-58.86
-49.58
-37.59
-24.4
-11.46
0.15
9.94
17.88
24.19
29.13
32.87
35.52
37.19
38.08
38.5
38.74
39.05
39.55
40.16
40.71
40.95
40.71
39.89
38.55
36.78
34.68
32.27
29.49
26.23
22.48
18.36
14.12
10.07
6.42
3.17
0.03
-3.37
-7.28
-11.74
-16.46
-20.97
-24.84
-27.89
-30.31
-32.67
-35.65
-39.87
-45.54
-52.29
-59.13
-64.59
-67.08
-65.42
-59.17
-48.88
-35.91
-21.99
-8.75
2.66
11.82
18.8
24.03
28.01
31.14
33.72
35.91
37.85
39.62
41.22
42.64
43.81
44.62
44.98
44.87
44.32
43.49
42.6
41.78
41.08
40.31
39.17
37.35
34.66
31.1
26.92
22.52
18.29
14.49
11.13
8.03
4.86
1.34
-2.65
-7.0
-11.42
-15.58
-19.23
-22.39
-25.34
-28.58
-32.66
-38.01
-44.65
-52.08
-59.22
-64.65
-66.95
-65.11
-58.88
-48.87
-36.37
-23.02
-10.34
0.59
9.31
15.9
20.75
24.35
27.1
29.24
30.9
32.19
33.27
34.32
35.46
36.66
37.7
38.33
38.39
37.97
37.4
37.01
36.98
37.17
37.16
36.47
34.76
31.98
28.41
24.48
20.66
17.26
14.39
11.89
9.44
6.73
3.52
-0.21
-4.27
-8.36
-12.21
-15.63
-18.65
-21.44
-24.26
-27.53
-31.66
-36.87
-43.01
-49.3
-54.38
-56.63
-54.77
-48.34
-37.98
-25.25
-12.02
0.05
10.03
17.72
23.42
27.57
30.42
32.11
32.7
32.39
31.55
30.63
30.03
29.94
30.3
30.87
31.38
31.65
31.65
31.49
31.31
31.11
30.75
29.94
28.31
25.63
21.92
17.49
12.88
8.64
5.12
2.32
-0.07
-2.55
-5.57
-9.27
-13.51
-17.88
-21.88
-25.19
-27.73
-29.76
-31.78
-34.38
-38.12
-43.32
-49.85
-57.0
-63.51
-67.76
-68.3
-64.29
-55.91
-44.27
-31.12
-18.18
-6.74
2.65
10.04
15.84
20.46
24.21
27.23
29.54
31.17
32.16
32.65
32.78
32.75
32.71
32.75
32.88
33.05
33.19
33.24
33.15
32.88
32.33
31.37
29.92
27.94
25.48
22.64
19.53
16.24
12.86
9.48
6.27
3.39
0.87
-1.36
-3.54
-5.94
-8.76
-11.99
-15.51
-19.1
-22.62
-26.03
-29.45
-33.1
-37.24
-42.09
-47.67
-53.68
-59.42
-63.79
-65.56
-63.71
-57.83
-48.31
-36.29
-23.35
-10.99
-0.32
8.17
14.54
19.25
22.77
25.5
27.66
29.34
30.59
31.54
32.35
33.21
34.19
35.16
35.9
36.14
35.77
34.92
33.91
33.05
32.51
32.11
31.44
30.03
27.63
24.31
20.48
16.69
13.36
10.68
8.54
6.65
4.7
2.49
-0.04
-2.82
-5.65
-8.34
-10.69
-12.64
-14.26
-15.79
-17.56
-19.98
-23.34
-27.76
-33.02
-38.44
-42.99
-45.44
-44.72
-40.35
-32.63
-22.59
-11.67
-1.2
7.87
15.16
20.69
24.64
27.15
28.32
28.28
27.29
25.81
24.27
23.06
22.32
22.02
21.99
22.1
22.26
22.46
22.67
22.82
22.81
22.49
21.77
20.58
18.88
16.67
14.0
11.02
7.94
5.02
2.49
0.39
-1.39
-3.1
-4.97
-7.12
-9.49
-11.85
-14.05
-16.01
-17.85
-19.78
-22.11
-25.05
-28.77
-33.28
-38.39
-43.57
-47.97
-50.5
-50.14
-46.34
-39.3
-29.98
-19.78
-10.08
-1.88
4.46
9.05
12.3
14.6
16.19
17.17
17.54
17.33
16.64
15.68
14.7
14.0
13.76
14.03
14.66
15.41
16.02
16.37
16.48
16.49
16.52
16.57
16.42
15.8
14.49
12.5
10.07
7.56
5.29
3.39
1.74
0.1
-1.79
-4.08
-6.72
-9.52
-12.25
-14.74
-16.89
-18.77
-20.5
-22.3
-24.39
-27.02
-30.39
-34.52
-39.14
-43.54
-46.73
-47.61
-45.41
-39.97
-31.92
-22.46
-13.02
-4.82
1.49
5.85
8.64
10.46
11.78
12.91
13.94
14.8
15.44
15.8
15.9
15.81
15.58
15.33
15.13
15.08
15.25
15.67
16.24
16.78
17.05
16.83
15.99
14.53
12.58
10.37
8.09
5.89
3.8
1.78
-0.24
-2.25
-4.17
-5.9
-7.36
-8.62
-9.89
-11.58
-14.07
-17.6
-22.07
-26.95
-31.32
-34.11
-34.42
-31.81
-26.47
-19.16
-11.01
-3.17
3.47
8.38
11.54
13.19
13.78
13.71
13.28
12.65
11.89
11.01
10.07
9.1
8.15
7.23
6.34
5.49
4.74
4.16
3.79
3.56
3.31
2.8
1.84
0.39
-1.43
-3.35
-5.09
-6.46
-7.41
-8.03
-8.48
-8.86
-9.22
-9.57
-9.94
-10.43
-11.24
-12.64
-14.86
-18.07
-22.26
-27.17
-32.24
-36.59
-39.23
-39.24
-36.18
-30.22
-22.19
-13.3
-4.81
2.4
7.95
11.93
14.68
16.57
17.9
18.81
19.38
19.64
19.59
19.25
18.68
17.99
17.31
16.8
16.51
16.37
16.23
15.94
15.38
14.52
13.39
12.0
10.34
8.35
6.02
3.36
0.46
-2.54
-5.47
-8.18
-10.57
-12.63
-14.48
-16.36
-18.61
-21.52
-25.24
-29.7
-34.52
-39.02
-42.32
-43.5
-41.9
-37.31
-30.12
-21.3
-12.11
-3.73
3.09
8.15
11.73
14.35
16.45
18.23
19.72
20.8
21.43
21.64
21.57
21.39
21.19
21.02
20.8
20.48
20.0
19.33
18.46
17.37
16.08
14.56
12.83
10.84
8.61
6.13
3.47
0.73
-1.95
-4.47
-6.77
-8.89
-10.93
-13.07
-15.47
-18.28
-21.63
-25.51
-29.75
-33.9
-37.25
-38.98
-38.37
-35.07
-29.3
-21.81
-13.59
-5.65
1.29
6.94
11.33
14.66
17.22
19.19
20.65
21.63
22.1
22.09
21.72
21.18
20.68
20.4
20.38
20.54
20.74
20.84
20.74
20.43
19.86
18.96
17.64
15.81
13.46
10.72
7.74
4.73
1.83
-0.92
-3.52
-6.03
-8.5
-10.92
-13.23
-15.38
-17.29
-19.02
-20.73
-22.68
-25.17
-28.49
-32.72
-37.65
-42.69
-46.83
-48.95
-48.07
-43.75
-36.28
-26.65
-16.24
-6.43
1.78
7.93
12.05
14.55
16.0
17.09
18.41
20.43
23.34
27.0
30.94
34.61
37.53
39.39
40.12
39.82
38.62
36.68
34.18
31.27
28.06
24.62
20.92
16.92
12.68
8.41
4.43
1.06
-1.52
-3.38
-4.79
-6.15
-7.72
-9.61
-11.73
-13.87
-15.82
-17.47
-18.9
-20.28
-21.9
-24.08
-27.07
-30.98
-35.58
-40.27
-44.05
-45.8
-44.56
-39.96
-32.34
-22.78
-12.65
-3.26
4.57
10.59
15.0
18.18
20.4
21.82
22.43
22.29
21.61
20.72
20.02
19.76
20.01
20.63
21.4
22.1
22.64
23.02
23.23
23.21
22.83
21.9
20.25
17.9
15.0
11.88
8.89
6.33
4.33
2.81
1.52
0.16
-1.54
-3.7
-6.24
-8.93
-11.51
-13.8
-15.79
-17.69
-19.86
-22.74
-26.66
-31.74
-37.69
-43.8
-48.99
-52.03
-51.95
-48.31
-41.44
-32.33
-22.37
-12.89
-4.84
1.42
6.02
9.35
11.87
13.89
15.57
16.97
18.13
19.1
20.03
21.04
22.19
23.43
24.61
25.51
25.99
26.02
25.72
25.27
24.81
24.29
23.55
22.34
20.5
18.0
15.05
11.95
8.99
6.38
4.17
2.26
0.49
-1.33
-3.37
-5.72
-8.39
-11.31
-14.34
-17.33
-20.16
-22.81
-25.28
-27.7
-30.31
-33.38
-37.2
-41.89
-47.18
-52.32
-56.16
-57.4
-55.06
-48.86
-39.35
-27.8
-15.76
-4.64
4.64
11.74
16.81
20.21
22.37
23.64
24.27
24.47
24.45
24.45
24.64
25.13
25.91
26.83
27.71
28.42
28.92
29.29
29.62
29.91
30.06
29.83
29.04
27.56
25.48
22.99
20.29
17.53
14.77
12.0
9.25
6.6
4.16
1.96
-0.07
-2.16
-4.55
-7.38
-10.64
-14.09
-17.44
-20.41
-22.86
-24.9
-26.8
-29.01
-31.94
-35.91
-40.89
-46.34
-51.27
-54.37
-54.43
-50.75
-43.44
-33.4
-22.07
-10.91
-1.05
6.89
12.8
16.88
19.43
20.77
21.21
21.06
20.65
20.28
20.17
20.45
21.08
21.95
22.91
23.74
24.34
24.62
24.63
24.42
24.05
23.47
22.55
21.09
18.96
16.19
12.99
9.71
6.68
4.1
1.89
-0.18
-2.42
-5.02
-8.0
-11.21
-14.35
-17.18
-19.59
-21.66
-23.57
-25.63
-28.16
-31.4
-35.52
-40.42
-45.69
-50.49
-53.7
-54.16
-51.09
-44.34
-34.62
-23.21
-11.66
-1.29
7.12
13.39
17.81
20.85
22.98
24.49
25.54
26.22
26.55
26.66
26.68
26.81
27.23
27.97
28.96
29.97
30.76
31.12
30.96
30.32
29.25
27.84
26.1
24.04
21.66
19.02
16.23
13.43
10.73
8.24
6.03
4.13
2.52
1.11
-0.28
-1.88
-3.88
-6.4
-9.37
-12.65
-16.02
-19.3
-22.42
-25.42
-28.51
-32.0
-36.22
-41.43
-47.58
-54.2
-60.33
-64.66
-65.93
-63.33
-56.81
-47.15
-35.72
-24.05
-13.46
-4.71
1.95
6.73
10.04
12.37
14.1
15.53
16.82
18.02
19.1
20.02
20.75
21.32
21.81
22.27
22.81
23.45
24.19
24.92
25.51
25.76
25.47
24.49
22.83
20.62
18.05
15.34
12.61
9.86
7.06
4.21
1.4
-1.22
-3.48
-5.32
-6.82
-8.19
-9.69
-11.53
-13.78
-16.33
-18.97
-21.44
-23.62
-25.56
-27.52
-29.9
-33.14
-37.51
-43.02
-49.31
-55.58
-60.75
-63.7
-63.55
-59.95
-53.22
-44.28
-34.35
-24.61
-15.92
-8.66
-2.78
1.97
5.92
9.26
12.14
14.61
16.79
18.85
21.0
23.39
26.08
28.99
31.96
34.81
37.37
39.56
41.26
42.4
42.87
42.58
41.48
39.57
36.96
33.79
30.34
26.91
23.79
21.17
19.02
17.06
14.91
12.21
8.83
4.92
0.86
-2.94
-6.2
-8.9
-11.28
-13.78
-16.9
-21.1
-26.61
-33.29
-40.61
-47.5
-52.66
-54.78
-52.98
-47.15
-38.02
-26.97
-15.58
-5.23
3.31
9.83
14.54
17.86
20.2
21.83
22.96
23.76
24.38
24.98
25.67
26.54
27.61
28.84
30.2
31.62
33.03
34.36
35.53
36.4
36.83
36.66
35.81
34.3
32.28
29.93
27.44
24.88
22.18
19.33
16.32
13.33
10.49
7.93
5.51
2.94
-0.07
-3.68
-7.81
-12.14
-16.27
-19.96
-23.22
-26.28
-29.54
-33.34
-37.94
-43.34
-49.3
-55.26
-60.31
-63.32
-63.22
-59.3
-51.61
-40.95
-28.71
-16.47
-5.48
3.6
10.68
16.05
20.13
23.25
25.6
27.3
28.51
29.41
30.17
30.95
31.78
32.65
33.51
34.33
35.15
36.04
36.98
37.89
38.53
38.63
37.96
36.48
34.38
31.94
29.48
27.14
24.89
22.59
20.07
17.32
14.46
11.77
9.47
7.64
6.12
4.56
2.55
-0.19
-3.64
-7.53
-11.47
-15.14
-18.42
-21.43
-24.39
-27.62
-31.38
-35.9
-41.24
-47.19
-53.13
-57.98
-60.45
-59.4
-54.31
-45.5
-34.1
-21.72
-9.91
0.2
8.13
13.87
17.77
20.28
21.78
22.56
22.86
22.93
23.03
23.41
24.21
25.37
26.67
27.82
28.54
28.74
28.55
28.19
27.87
27.6
27.25
26.56
25.29
23.35
20.81
17.87
14.82
11.94
9.44
7.38
5.65
3.99
2.09
-0.29
-3.2
-6.5
-9.91
-13.17
-16.16
-18.94
-21.78
-25.03
-29.07
-34.16
-40.25
-46.9
-53.17
-57.81
-59.54
-57.43
-51.32
-41.83
-30.26
-18.17
-7.0
2.3
9.4
14.43
