31.58
34.09
35.52
35.85
35.34
34.49
33.82
33.59
33.72
33.83
33.51
32.63
31.36
30.12
29.32
29.08
29.15
28.96
27.93
25.67
22.22
17.94
13.48
9.43
6.12
3.56
1.4
-0.93
-3.9
-7.8
-12.53
-17.65
-22.62
-26.95
-30.46
-33.34
-36.15
-39.58
-44.26
-50.54
-58.3
-66.8
-74.72
-80.34
-81.95
-78.36
-69.34
-55.81
-39.57
-22.83
-7.53
5.1
14.74
21.77
26.91
30.84
34.01
36.65
38.82
40.51
41.76
42.6
43.08
43.25
43.15
42.83
42.35
41.76
41.13
40.47
39.77
38.93
37.77
36.13
33.85
30.84
27.15
22.94
18.45
14.01
9.92
6.38
3.43
0.89
-1.59
-4.34
-7.57
-11.26
-15.16
-18.91
-22.29
-25.26
-28.06
-31.08
-34.71
-39.3
-45.06
-51.98
-59.77
-67.7
-74.56
-78.75
-78.68
-73.33
-62.72
-48.04
-31.34
-14.94
-0.7
10.43
18.44
23.98
27.87
30.67
32.63
33.74
34.02
33.64
32.93
32.23
31.76
31.5
31.34
31.13
30.89
30.76
30.93
31.38
31.81
31.73
30.63
28.27
24.76
20.54
16.17
12.14
8.61
5.49
2.45
-0.84
-4.56
-8.66
-12.81
-16.63
-19.82
-22.33
-24.46
-26.73
-29.79
-34.19
-40.13
-47.37
-55.07
-61.83
-65.99
-65.96
-60.81
-50.64
-36.67
-20.95
-5.68
7.38
17.38
24.39
29.09
32.3
34.61
36.3
37.32
37.64
37.31
36.61
35.94
35.64
35.84
36.45
37.16
37.66
37.75
37.45
36.93
36.33
35.7
34.83
33.38
31.05
27.68
23.42
18.66
13.89
9.55
5.81
2.55
-0.62
-4.16
-8.4
-13.41
-18.88
-24.31
-29.19
-33.13
-36.11
-38.41
-40.58
-43.26
-47.04
-52.23
-58.77
-66.04
-72.86
-77.62
-78.67
-74.79
-65.66
-52.09
-35.83
-19.05
-3.73
8.85
18.3
24.97
29.54
32.71
35.0
36.69
37.94
38.84
39.46
39.84
40.0
39.95
39.73
39.42
39.11
38.84
38.6
38.34
37.94
37.3
36.35
34.98
33.12
30.72
27.75
24.29
20.47
16.5
12.57
8.85
5.38
2.16
-0.93
-4.06
-7.36
-10.96
-14.8
-18.72
-22.47
-25.82
-28.69
-31.21
-33.73
-36.72
-40.61
-45.69
-51.94
-58.91
-65.67
-70.85
-72.86
-70.42
-62.91
-50.81
-35.56
-19.23
-3.88
9.03
18.87
25.74
30.16
32.74
33.94
34.09
33.49
32.54
31.61
31.01
30.84
30.96
31.15
31.18
31.0
30.71
30.48
30.39
30.34
30.03
29.06
27.12
24.1
20.17
15.73
11.3
7.31
4.01
1.31
-1.12
-3.76
-6.99
-10.93
-15.35
-19.82
-23.85
-27.17
-29.86
-32.4
-35.44
-39.64
-45.34
-52.43
-60.16
-67.19
-71.83
-72.43
-67.9
-58.17
-44.29
-28.17
-12.02
2.31
13.8
22.29
28.28
32.45
35.36
37.29
38.34
38.61
38.31
37.71
37.1
36.68
36.5
36.53
36.7
36.96
37.23
37.44
37.44
37.06
36.18
34.75
32.8
30.4
27.62
24.49
21.02
17.32
13.52
9.85
6.47
3.44
0.68
-1.99
-4.79
-7.91
-11.44
-15.38
-19.63
-24.03
-28.36
-32.43
-36.19
-39.74
-43.37
-47.49
-52.49
-58.6
-65.65
-72.92
-79.11
-82.54
-81.56
-75.16
-63.37
-47.47
-29.6
-12.1
3.14
15.18
24.05
30.33
34.76
37.92
40.12
41.56
42.46
43.05
43.53
43.99
44.35
44.45
44.2
43.65
42.95
42.33
41.91
41.66
41.39
40.79
39.62
37.74
35.18
32.09
28.67
25.13
21.61
18.2
14.96
11.9
8.98
6.14
3.37
0.64
-2.03
-4.66
-7.32
-10.19
-13.47
-17.24
-21.4
-25.68
-29.72
-33.29
-36.42
-39.45
-42.93
-47.37
-53.06
-59.8
-66.85
-72.94
-76.55
-76.29
-71.31
-61.63
-48.23
-32.78
-17.17
-3.05
8.6
17.47
23.74
27.83
30.21
31.26
31.4
31.03
30.58
30.35
30.46
30.82
31.23
31.46
31.42
31.15
30.75
30.35
29.97
29.51
28.73
27.4
25.31
22.37
18.68
14.51
10.27
6.32
2.91
0.01
-2.65
-5.45
-8.72
-12.52
-16.63
-20.58
-23.98
-26.64
-28.79
-30.92
-33.66
-37.53
-42.72
-49.1
-56.09
-62.75
-67.78
-69.72
-67.37
-60.12
-48.4
-33.56
-17.6
-2.54
10.13
19.79
26.58
31.12
34.08
35.97
37.09
37.62
37.71
37.56
37.35
37.22
37.18
37.15
37.02
36.68
36.12
35.42
34.68
34.0
33.34
32.49
31.22
29.31
26.69
23.5
20.01
16.52
13.22
10.15
7.24
4.37
1.53
-1.27
-3.94
-6.52
-9.1
-11.91
-15.13
-18.81
-22.81
-26.85
-30.65
-34.07
-37.2
-40.34
-43.92
-48.38
-53.97
-60.59
-67.63
-73.88
-77.67
-77.29
-71.62
-60.57
-45.34
-28.05
-11.07
3.71
15.31
23.79
29.73
33.93
36.91
38.97
40.26
40.94
41.23
41.36
41.49
41.6
41.62
41.41
40.89
40.09
39.13
38.12
37.21
36.41
35.61
34.63
33.22
31.25
28.71
25.77
22.71
19.75
17.01
14.38
11.67
8.73
5.54
2.29
-0.73
-3.32
-5.49
-7.48
-9.71
-12.5
-15.99
-20.08
-24.44
-28.7
-32.6
-36.06
-39.2
-42.36
-45.94
-50.32
-55.65
-61.69
-67.65
-72.28
-74.08
-71.75
-64.63
-53.02
-38.23
-22.15
-6.78
6.34
16.44
23.55
28.2
31.05
32.65
33.29
33.11
32.32
31.22
30.23
29.71
29.79
30.32
30.95
31.3
31.23
30.8
30.24
29.7
29.17
28.4
27.04
24.84
21.72
17.88
13.65
9.44
5.59
2.28
-0.5
-2.91
-5.27
-7.86
-10.87
-14.29
-17.88
-21.32
-24.32
-26.84
-29.07
-31.45
-34.49
-38.62
-44.03
-50.45
-57.15
-62.91
-66.25
-65.72
-60.45
-50.47
-36.83
-21.38
-6.17
7.04
17.34
24.6
29.31
32.2
33.93
34.93
35.45
35.63
35.56
35.34
35.01
34.63
34.26
33.99
33.89
33.97
34.15
34.26
34.12
33.59
32.62
31.18
29.3
26.94
24.09
20.73
16.96
12.93
8.86
5.02
1.56
-1.43
-4.03
-6.42
-8.86
-11.59
-14.73
-18.24
-21.96
-25.68
-29.19
-32.43
-35.5
-38.61
-42.07
-46.21
-51.3
-57.4
-64.23
-70.98
-76.32
-78.59
-76.29
-68.65
-55.98
-39.74
-22.13
-5.46
8.58
19.31
26.93
32.22
35.96
38.69
40.58
41.68
42.05
41.92
41.59
41.31
41.14
41.01
40.77
40.35
39.8
39.26
38.86
38.57
38.24
37.59
36.36
34.42
31.81
28.73
25.45
22.24
19.24
16.46
13.74
10.94
7.93
4.7
1.31
-2.13
-5.54
-8.88
-12.15
-15.4
-18.68
-22.01
-25.37
-28.65
-31.77
-34.7
-37.57
-40.7
-44.5
-49.35
-55.3
-61.97
-68.41
-73.22
-74.89
-72.16
-64.53
-52.49
-37.44
-21.34
-6.16
6.68
16.54
23.53
28.15
31.01
32.58
33.15
32.98
32.35
31.62
31.09
30.93
31.14
31.58
31.99
32.17
32.0
31.5
30.84
30.17
29.55
28.82
27.64
25.6
22.47
18.27
13.41
8.47
3.98
0.29
-2.65
-5.1
-7.45
-10.05
-13.02
-16.3
-19.64
-22.8
-25.62
-28.14
-30.64
-33.54
-37.32
-42.31
-48.52
-55.48
-62.19
-67.25
-69.14
-66.62
-59.23
-47.45
-32.66
-16.81
-1.83
10.82
20.5
27.28
31.71
34.49
36.16
37.1
37.49
37.48
37.23
36.9
36.64
36.51
36.51
36.57
36.64
36.71
36.76
36.76
36.59
36.07
34.97
33.12
30.5
27.24
23.55
19.7
15.85
12.09
8.41
4.82
1.43
-1.64
-4.22
-6.3
-8.05
-9.82
-11.99
-14.8
-18.26
-22.15
-26.11
-29.82
-33.14
-36.18
-39.27
-42.91
-47.59
-53.62
-60.87
-68.57
-75.36
-79.45
-79.18
-73.52
-62.54
-47.51
-30.47
-13.67
1.12
13.0
21.91
28.37
33.03
36.44
38.88
40.46
41.32
41.64
41.67
41.63
41.64
41.68
41.67
41.5
41.15
40.73
40.33
40.03
39.7
39.12
37.99
36.13
33.54
30.41
27.09
23.85
20.83
17.93
14.92
11.62
8.02
4.38
1.03
-1.76
-3.96
-5.83
-7.82
-10.38
-13.72
-17.79
-22.22
-26.61
-30.63
-34.16
-37.36
-40.58
-44.26
-48.82
-54.48
-61.06
-67.86
-73.6
-76.67
-75.58
-69.46
-58.5
-43.95
-27.81
-12.16
1.4
12.1
19.97
25.47
29.19
31.59
32.98
33.59
33.7
33.58
33.42
33.29
33.12
32.8
32.29
31.65
31.03
30.58
30.34
30.22
30.0
29.39
28.14
26.08
23.17
19.53
15.41
11.19
7.22
3.75
0.81
-1.77
-4.3
-7.08
-10.21
-13.57
-16.86
-19.85
-22.46
-24.93
-27.71
-31.34
-36.23
-42.42
-49.46
-56.35
-61.66
-63.86
-61.69
-54.64
-43.21
-28.82
-13.45
0.95
13.0
22.06
28.3
32.3
34.74
36.15
36.78
36.77
36.24
35.43
34.66
34.26
34.41
35.02
35.8
36.34
36.34
35.71
34.56
33.1
31.54
29.96
28.29
26.38
24.07
21.26
17.89
14.06
9.96
5.87
2.11
-1.11
-3.79
-6.19
-8.67
-11.58
-15.07
-18.97
-22.98
-26.73
-30.01
-32.84
-35.47
-38.29
-41.78
-46.36
-52.32
-59.6
-67.66
-75.35
-81.03
-82.91
-79.63
-70.73
-56.99
-40.19
-22.6
-6.34
7.19
17.52
24.89
30.01
33.56
36.09
37.94
39.36
40.53
41.56
42.49
43.25
43.71
43.76
43.38
42.71
41.96
41.35
40.94
40.7
40.36
39.62
38.27
36.23
33.61
30.64
27.54
24.42
21.26
17.97
14.49
10.89
7.31
3.95
0.93
-1.79
-4.38
-7.13
-10.21
-13.69
-17.44
-21.21
-24.76
-27.98
-30.9
-33.78
-36.98
-40.88
-45.8
-51.83
-58.76
-65.89
-72.06
-75.76
-75.54
-70.48
-60.58
-46.89
-31.26
-15.76
-2.1
8.84
17.01
22.93
27.26
30.46
32.71
34.02
34.4
34.02
33.22
32.39
31.8
31.52
31.47
31.43
31.25
30.92
30.56
30.32
30.28
30.24
29.84
28.61
26.26
22.79
18.59
14.25
10.31
7.0
4.22
1.61
-1.26
-4.61
-8.48
-12.62
-16.7
-20.39
-23.53
-26.15
-28.56
-31.22
-34.67
-39.35
-45.4
-52.51
-59.83
-66.02
-69.54
-69.03
-63.76
-53.85
-40.4
-25.1
-9.81
3.96
15.26
23.85
29.95
34.04
36.63
38.16
38.99
39.39
39.58
39.67
39.69
39.57
39.27
38.77
38.17
37.57
37.05
36.63
36.19
35.56
34.54
33.03
31.0
28.5
25.62
22.48
19.14
15.66
12.11
8.56
5.12
1.88
-1.06
-3.72
-6.21
-8.72
-11.52
-14.81
-18.59
-22.67
-26.66
-30.24
-33.26
-35.89
-38.63
-42.11
-46.91
-53.29
-60.99
-69.16
-76.37
-80.88
-81.05
-75.81
-65.09
-49.97
-32.42
-14.76
1.01
13.66
22.9
29.16
33.22
35.84
37.6
38.82
39.74
40.52
41.25
41.95
42.54
42.88
42.83
42.42
41.8
41.21
40.85
40.77
40.79
40.58
39.82
38.27
35.91
32.95
29.7
26.46
23.46
20.77
18.28
15.81
13.16
10.21
6.99
3.72
0.65
-2.02
-4.3
-6.46
-8.92
-12.05
-16.03
-20.64
-25.4
-29.81
-33.55
-36.63
-39.47
-42.66
-46.76
-52.04
-58.34
-64.94
-70.65
-73.96
-73.44
-68.22
-58.29
-44.66
-29.12
-13.64
0.09
11.1
19.18
24.66
28.09
29.99
30.78
30.83
30.45
30.01
29.79
29.97
30.57
31.41
32.24
32.78
32.88
32.59
32.1
31.66
31.33
30.94
30.07
28.25
25.21
21.04
16.2
11.38
7.17
3.9
1.47
-0.55
-2.67
-5.32
-8.61
-12.33
-16.06
-19.4
-22.16
-24.44
-26.71
-29.58
-33.64
-39.2
-46.16
-53.88
-61.22
-66.7
-68.77
-66.24
-58.7
-46.72
-31.75
-15.79
-0.73
12.01
21.83
28.79
33.34
36.04
37.35
37.62
37.15
36.26
35.26
34.41
33.86
33.66
33.72
33.88
33.95
33.75
33.19
32.28
31.15
29.93
28.65
27.22
25.41
22.98
19.84
16.09
12.02
8.02
4.41
1.36
-1.14
-3.22
-5.17
-7.27
-9.8
-12.93
-16.68
-20.84
-25.05
-28.89
-32.08
-34.67
-37.03
-39.77
-43.57
-48.87
-55.62
-63.14
-70.19
-75.11
-76.26
-72.51
-63.58
-50.26
-34.24
-17.64
-2.45
10.05
19.39
25.9
30.26
33.2
35.18
36.44
37.07
37.21
37.07
36.93
36.97
37.2
37.49
37.61
37.44
37.02
36.49
36.01
35.62
35.19
34.39
32.89
30.41
26.9
22.58
17.87
13.28
9.22
5.88
3.18
0.83
-1.57
-4.33
-7.54
-11.08
-14.71
-18.16
-21.27
-24.08
-26.79
-29.76
-33.4
-38.04
-43.84
-50.52
-57.31
-63.0
-66.18
-65.56
-60.43
-50.89
-37.94
-23.24
-8.62
4.37
14.76
22.34
27.43
30.58
32.35
33.14
33.16
32.58
31.57
30.37
29.25
28.46
28.1
28.22
28.69
29.32
29.85
30.0
29.54
28.34
26.35
23.68
20.42
16.74
12.73
8.51
4.15
-0.25
-4.6
-8.76
-12.58
-15.97
-18.93
-21.56
-24.14
-27.03
-30.55
-34.95
-40.24
-46.11
-51.92
-56.7
-59.31
-58.69
-54.21
-45.87
-34.44
-21.27
-7.92
4.2
14.23
21.9
27.4
31.12
33.46
34.69
34.99
34.56
33.67
32.64
31.72
31.06
30.6
30.21
29.73
29.08
28.24
27.23
26.04
24.58
22.72
20.34
17.39
13.93
10.12
6.17
2.23
-1.55
-5.13
-8.5
-11.68
-14.7
-17.58
-20.36
-23.18
-26.28
-29.96
-34.51
-39.98
-46.04
-51.88
-56.37
-58.28
-56.64
-51.09
-42.02
-30.51
-18.01
-5.96
4.51
12.8
18.83
22.89
25.38
26.64
26.93
26.41
25.26
23.8
22.39
21.38
21.02
21.26
21.91
22.64
23.14
23.21
22.76
21.8
20.35
18.46
16.14
13.41
10.26
6.69
2.75
-1.45
-5.7
-9.72
-13.23
-16.15
-18.61
-20.99
-23.77
-27.39
-32.02
-37.46
-43.1
-48.03
-51.21
-51.64
-48.65
-42.12
-32.51
-20.87
-8.57
3.01
12.84
20.4
25.72
29.19
31.29
32.37
32.6
32.08
30.92
29.38
27.84
26.68
26.12
26.16
26.6
27.17
27.61
27.74
27.41
26.54
24.98
22.65
19.55
15.84
11.79
7.73
3.89
0.32
-3.09
-6.53
-10.14
-13.9
-17.65
-21.15
-24.25
-26.92
-29.4
-32.09
-35.49
-40.01
-45.84
-52.68
-59.69
-65.48
-68.45
-67.19
-61.04
-50.38
-36.55
-21.47
-7.06
5.36
15.2
22.6
28.04
32.02
34.85
36.66
37.52
37.59
37.17
36.6
36.15
35.93
35.87
35.82
35.66
35.37
35.02
34.7
34.4
33.97
33.13
31.58
29.13
25.74
21.57
16.95
12.28
7.93
4.2
1.19
-1.22
-3.31
-5.51
-8.18
-11.46
-15.23
-19.15
-22.88
-26.23
-29.25
-32.27
-35.71
-39.92
-45.12
-51.26
-57.94
-64.37
-69.37
-71.54
-69.62
-62.94
-51.77
-37.35
-21.53
-6.27
6.98
17.5
25.28
30.76
34.48
36.86
38.18
38.64
38.44
37.84
37.15
36.62
36.37
36.35
36.37
36.18
35.61
34.66
33.47
32.27
31.16
30.06
28.66
26.56
23.54
19.64
15.28
11.0
7.32
4.42
2.16
0.12
-2.18
-5.02
-8.43
-12.14
-15.77
-18.95
-21.56
-23.71
-25.78
-28.29
-31.72
-36.41
-42.34
-49.11
-55.81
-61.21
-63.92
-62.74
-57.06
-47.03
-33.62
-18.37
-3.04
10.88
22.33
30.86
36.49
39.52
40.45
39.81
38.14
35.98
33.83
32.04
30.84
30.26
30.24
30.55
30.95
31.2
31.11
30.61
29.71
28.5
27.03
25.25
23.03
20.22
16.73
12.67
8.34
4.15
0.49
-2.43
-4.67
-6.5
-8.35
-10.6
-13.48
-16.95
-20.75
-24.48
-27.82
-30.67
-33.14
-35.64
-38.64
-42.57
-47.66
-53.74
-60.23
-66.13
-70.13
-70.96
-67.65
-59.93
-48.34
-34.16
-19.11
-4.83
7.48
17.24
24.44
29.41
32.63
34.58
35.64
36.13
36.31
36.38
36.42
36.5
36.63
36.8
37.0
37.21
37.35
37.32
37.04
36.44
35.5
34.19
32.49
30.36
27.8
24.89
21.75
18.55
15.39
12.32
9.31
6.35
3.45
0.71
-1.84
-4.24
-6.64
-9.24
-12.25
-15.7
-19.48
-23.34
-26.99
-30.23
-33.06
-35.68
-38.5
-41.98
-46.46
-51.94
-57.96
-63.59
-67.54
-68.5
-65.48
-58.19
-47.15
-33.63
-19.31
-5.8
5.75
14.84
21.6
26.46
29.95
32.42
33.99
34.74
34.75
34.25
33.54
32.91
32.55
32.45
32.53
32.64
32.64
32.47
32.08
31.45
30.48
29.13
27.3
24.97
22.11
18.78
15.06
11.06
6.9
2.72
-1.34
-5.18
-8.72
-11.95
-14.88
-17.52
-19.88
-21.94
-23.73
-25.33
-26.92
-28.77
-31.23
-34.63
-39.13
-44.61
-50.49
-55.78
-59.15
-59.36
-55.55
-47.63
-36.34
-23.05
-9.39
3.23
13.9
22.24
28.31
32.39
34.78
35.73
35.47
34.29
32.58
30.8
29.39
28.59
28.46
28.8
29.31
29.69
29.77
29.47
28.87
28.0
26.82
25.11
22.65
19.28
15.04
10.23
5.29
0.68
-3.29
-6.57
-9.38
-12.07
-14.93
-18.13
-21.6
-25.15
-28.52
-31.56
-34.23
-36.69
-39.22
-42.21
-45.99
-50.75
-56.37
-62.29
-67.56
-70.93
-71.22
-67.62
-60.06
-49.2
-36.39
-23.22
-11.17
-1.19
6.36
11.66
15.15
17.3
18.44
18.73
18.24
17.14
15.78
14.66
14.38
15.37
17.84
21.63
26.29
31.19
35.71
39.29
41.55
42.29
41.46
39.2
35.74
31.43
26.67
21.86
17.3
13.23
9.75
6.85
4.43
2.29
0.21
-1.96
-4.3
-6.75
-9.16
-11.38
-13.33
-15.01
-16.59
-18.29
-20.37
-23.14
-26.86
-31.72
-37.7
-44.35
-50.69
-55.36
-56.87
-54.15
-46.89
-35.78
-22.28
-8.15
5.01
16.19
24.95
31.39
35.85
38.72
40.35
41.05
41.12
40.79
40.24
39.62
38.97
38.33
37.72
37.13
36.55
35.94
35.32
34.69
34.06
33.39
32.54
31.28
29.32
26.47
22.71
18.29
13.64
9.31
5.69
2.95
0.95
-0.7
-2.46
-4.72
-7.61
-11.02
-14.61
-17.99
-20.9
-23.32
-25.55
-28.06
-31.4
-35.93
-41.7
-48.3
-54.82
-60.05
-62.69
-61.66
-56.46
-47.32
-35.24
-21.69
-8.27
3.76
13.63
21.14
26.41
29.74
31.38
31.61
30.75
29.28
27.74
26.63
26.23
26.55
27.34
28.28
29.12
29.72
30.1
30.25
30.17
29.76
28.92
27.57
25.66
23.23
20.38
17.28
14.18
11.38
9.13
7.52
6.43
5.61
4.72
3.53
1.99
0.16
-1.8
-3.75
-5.61
-7.35
-9.0
-10.63
-12.42
-14.58
-17.25
-20.24
-22.85
-23.86
-21.74
-15.15
-3.44
12.99
32.72
53.67
73.66
91.07
105.15
116.18
125.17
133.63
143.04
154.45
168.08
182.95
196.9
207.01
210.42
205.3
191.68
171.67
148.99
127.89
111.87
102.8
100.48
103.04
107.73
111.96
113.96
113.12
109.68
104.29
97.41
89.06
78.76
65.92
50.18
31.81
11.61
-9.2
-29.37
-47.89
-64.17
-77.99
-89.44
-98.74
-106.2
-112.15
-116.96
-121.0
-124.54
-127.7
-130.42
-132.45
-133.64
-133.99
-133.84
-133.68
-134.1
-135.49
-138.0
-141.49
-145.68
-150.26
-154.97
-159.59
-163.89
-167.61
-170.53
-172.56
-173.82
-174.71
-175.88
-178.14
-182.13
-188.02
-195.23
-202.37
-207.62
-209.33
-206.41
-198.58
-186.17
-169.76
-149.98
-127.57
-103.53
-79.2
-56.1
-35.67
-18.91
-6.47
1.26
3.96
1.56
-5.41
-15.6
-26.95
-37.29
-45.12
-50.1
-52.99
-55.22
-58.14
-62.48
-67.99
-73.51
-77.22
-77.11
-71.6
-60.03
-43.0
-22.18
0.15
21.8
41.22
57.68
71.03
81.35
88.67
93.0
94.53
93.77
91.57
88.93
86.66
85.14
84.34
83.87
83.34
82.48
81.32
80.12
79.13
78.48
78.0
77.25
75.73
73.01
68.92
63.62
57.5
51.06
44.79
39.03
34.0
29.8
26.4
23.66
21.35
19.16
16.75
13.85
10.29
6.12
1.51
-3.27
-7.98
-12.5
-17.01
-21.88
-27.59
-34.52
-42.66
-51.36
-59.32
-64.69
-65.58
-60.66
-49.72
-33.82
-15.14
3.72
20.44
33.54
42.62
48.15
51.0
52.08
52.1
51.53
50.7
49.87
49.2
48.77
48.53
48.4
48.31
48.29
48.46
48.9
49.67
50.6
51.41
51.76
51.45
50.44
48.91
47.12
45.31
43.65
42.2
40.96
39.94
39.19
38.79
38.81
39.25
39.98
40.76
41.29
41.32
40.69
39.43
37.72
35.99
34.91
35.27
37.72
42.31
48.27
53.89
57.07
56.01
49.98
39.65
26.74
13.43
1.55
-7.8
-14.34
-18.35
-20.3
-20.72
-20.14
-19.04
-17.85
-16.82
-15.93
-14.97
-13.63
-11.62
-8.78
-5.14
-0.97
3.19
6.53
8.13
7.22
3.46
-2.8
-10.57
-18.42
-24.9
-28.99
-30.38
-29.47
-27.19
-24.64
-22.75
-22.09
-22.74
-24.45
-26.83
-29.51
-32.28
-35.13
-38.07
-41.14
-44.3
-47.47
-50.48
-53.03
-54.54
-54.16
-50.97
-44.34
-34.37
-22.07
-9.11
2.67
11.86
17.89
21.07
22.33
22.79
23.46
24.99
27.63
31.27
35.55
40.03
44.45
48.78
53.17
57.72
62.17
65.87
67.98
67.91
65.66
61.96
57.92
54.62
52.66
52.01
52.17
52.5
52.52
52.02
51.04
49.59
47.61
44.83
40.92
35.56
28.5
19.64
8.98
-3.17
-16.24
-29.27
-41.14
-50.78
-57.48
-61.09
-62.02
-61.04
-58.98
-56.53
-54.11
-51.95
-50.18
-48.88
-48.1
-47.8
-47.88
-48.15
-48.51
-48.91
-49.38
-50.0
-50.84
-51.95
-53.33
-54.92
-56.52
-57.93
-58.91
-59.38
-59.5
-59.61
-60.09
-61.13
-62.55
-63.86
-64.5
-64.07
-62.64
-60.66
-58.76
-57.53
-57.28
-58.13
-60.0
-62.79
-66.39
-70.6
-75.05
-79.29
-82.8
-85.24
-86.51
-86.72
-86.02
-84.43
-81.73
-77.51
-71.38
-63.21
-53.25
-42.2
-31.1
-21.07
-13.18
-8.25
-6.73
-8.61
-13.34
-19.85
-26.58
-31.69
-33.42
-30.45
-22.35
-9.76
5.67
21.73
36.2
47.48
54.9
58.6
59.31
57.89
55.05
51.35
47.22
42.96
38.73
34.42
29.63
23.88
16.93
9.06
1.2
-5.25
-8.9
-8.76
-4.64
2.81
12.25
21.92
29.97
34.81
35.49
31.84
24.65
15.38
5.88
-2.15
-7.6
-10.05
-9.77
-7.46
-4.02
-0.45
2.23
3.04
1.23
-3.57
-11.22
-21.03
-31.84
-42.19
-50.4
-54.8
-54.01
-47.34
-35.15
-18.89
-0.76
16.87
32.16
44.2
53.0
59.07
63.0
65.13
65.54
64.31
61.71
58.29
54.88
52.22
50.87
50.92
52.01
53.49
54.71
55.26
55.13
54.62
54.0
53.25
51.96
49.42
45.01
38.55
30.53
21.93
13.91
7.31
2.33
-1.37
-4.44
-7.49
-10.76
-14.1
-17.16
-19.58
-21.29
-22.54
-23.88
-25.98
-29.48
-34.94
-42.53
-51.85
-61.78
-70.4
-75.43
-74.86
-67.74
-54.54
-37.08
-17.92
0.44
16.21
28.56
37.46
43.28
46.48
47.46
46.65
44.54
41.73
38.75
35.99
33.67
31.8
30.29
29.17
28.5
28.48
29.25
30.79
32.82
34.79
36.01
35.88
34.12
30.92
26.83
22.62
18.87
15.79
13.17
10.5
7.29
3.29
-1.37
-6.28
-10.94
-14.97
-18.29
-21.12
-23.93
-27.37
-32.09
-38.42
-46.14
-54.2
-60.86
-64.08
-62.22
-54.74
-42.42
-27.16
-11.32
3.07
14.87
23.84
30.39
35.1
38.38
40.44
41.37
41.36
40.79
40.22
40.21
41.15
43.05
45.58
48.15
50.17
51.3
51.5
51.07
50.38
49.69
48.89
47.65
45.51
42.25
38.01
33.3
28.75
24.79
21.46
18.4
15.03
10.9
5.94
0.46
-4.93
-9.68
-13.46
-16.34
-18.68
-21.05
-24.06
-28.31
-34.17
-41.69
-50.26
-58.56
-64.65
-66.48
-62.65
-52.98
-38.68
-22.04
-5.6
8.57
19.39
26.76
31.17
33.3
33.74
32.91
31.26
29.27
27.44
26.15
25.54
25.46
25.62
25.69
25.5
25.06
24.53
24.12
23.99
24.14
24.42
24.52
24.12
22.96
20.91
18.02
14.44
10.3
5.69
0.62
-4.83
-10.45
-15.78
-20.27
-23.38
-24.87
-24.93
-24.13
-23.37
-23.55
-25.38
-29.19
-34.73
-41.12
-46.94
-50.55
-50.57
-46.38
-38.41
-27.97
-16.78
-6.35
2.48
9.61
15.44
20.43
24.81
28.46
31.16
32.8
33.45
33.42
33.06
32.62
32.21
31.84
31.48
31.15
30.88
30.66
30.38
29.81
28.65
26.67
23.78
20.11
16.0
11.82
7.91
4.39
1.15
-2.09
-5.63
-9.59
-13.89
-18.19
-22.17
-25.59
-28.51
-31.27
-34.45
-38.63
-44.21
-51.11
-58.62
-65.4
-69.68
-69.77
-64.65
-54.38
-40.19
-24.09
-8.29
5.54
16.52
24.63
30.31
34.11
36.52
37.85
38.38
38.4
38.2
38.0
37.83
37.58
37.07
36.16
34.91
33.6
32.57
32.1
32.18
32.47
32.38
31.35
29.12
25.88
22.26
19.04
16.75
15.46
14.66
13.55
11.29
7.4
1.9
-4.68
-11.53
-17.83
-23.03
-27.07
-30.38
-33.83
-38.38
-44.63
-52.43
-60.66
-67.34
-70.27
-67.78
-59.44
-46.3
-30.53
-14.66
-0.75
10.14
18.04
23.65
27.82
31.1
33.57
34.91
34.62
32.38
28.35
23.38
18.87
16.37
17.08
21.27
28.2
36.42
44.24
50.15
52.99
52.16
47.76
40.87
33.43
27.73
25.5
27.06
31.1
35.25
37.31
36.2
32.27
26.73
20.72
14.63
8.05
0.33
-8.8
-19.01
-29.68
-40.35
-50.91
-61.4
-71.6
-80.69
-87.29
-89.92
-87.7
-80.91
-71.04
-60.26
-50.59
-43.19
-38.01
-34.14
-30.43
-26.16
-21.33
-16.57
-12.63
-9.99
-8.49
-7.5
-6.16
-3.86
-0.43
3.96
9.07
14.76
20.96
27.41
33.42
37.95
39.98
39.17
36.3
33.13
31.62
32.93
36.7
41.18
44.04
43.58
39.33
31.96
22.62
12.18
1.15
-10.02
-20.42
-28.68
-33.45
-34.21
-31.7
-27.54
-23.27
-19.37
-15.16
-9.48
-1.78
7.26
16.08
23.25
28.52
32.97
38.18
45.03
53.0
60.46
65.68
67.97
68.11
67.79
68.55
70.83
73.68
75.35
74.14
69.22
60.95
50.67
40.06
30.56
23.0
17.36
12.81
8.01
1.55
-7.52
-19.28
-32.9
-46.96
-59.98
-70.94
-79.68
-86.8
-93.5
-101.13
-110.8
-123.22
-138.5
-156.24
-175.43
-194.48
-211.22
-223.12
-227.71
-223.28
-209.49
-187.58
-160.08
-129.91
-99.52
-70.47
-43.57
-19.49
0.85
16.38
26.57
31.98
34.39
36.12
39.09
43.98
50.24
56.67
62.18
66.38
69.43
71.74
73.52
74.83
75.68
76.2
76.6
77.01
77.23
76.73
74.81
70.96
65.13
57.8
49.82
42.09
35.24
29.44
24.42
19.63
14.51
8.65
2.02
-5.1
-12.18
-18.62
-23.95
-28.01
-31.09
-33.81
-37.03
-41.6
-48.06
-56.37
-65.77
-74.79
-81.46
-83.8
-80.35
-70.59
-55.19
-35.82
-14.76
5.68
23.7
38.17
48.62
54.97
57.36
56.17
52.13
46.48
40.88
36.97
35.95
38.18
43.16
49.82
57.01
63.86
69.88
74.84
78.42
80.1
79.24
75.41
68.69
59.81
49.98
40.5
32.28
25.58
19.95
14.54
8.58
1.69
-5.98
-13.83
-21.18
-27.46
-32.5
-36.56
-40.44
-45.41
-52.9
-63.98
-78.62
-95.23
-110.79
-121.66
-124.9
-119.34
-105.96
-87.45
-67.12
-47.74
-30.98
-17.42
-7.0
0.58
5.69
8.9
11.1
13.47
17.14
22.83
30.54
39.57
48.78
57.06
63.77
69.02
73.53
78.31
84.2
91.4
99.36
106.95
112.96
116.7
118.31
118.73
119.27
120.92
123.86
127.35
129.95
130.28
127.64
122.34
115.53
108.56
102.29
96.69
90.92
83.83
74.61
63.05
49.53
34.65
18.96
3.0
-12.46
-26.06
-35.95
-40.29
-38.02
-29.52
-16.65
-2.15
11.29
21.93
29.36
34.34
38.14
41.88
46.14
50.82
55.43
59.35
62.09
63.29
62.8
60.55
56.65
51.35
45.09
38.44
31.94
25.96
20.6
15.71
10.94
5.95
0.51
-5.38
-11.49
-17.39
-22.55
-26.46
-28.83
-29.62
-29.14
-27.92
-26.64
-25.91
-26.18
-27.6
-30.11
-33.45
-37.27
-41.27
-45.18
-48.83
-52.13
-55.02
-57.44
-59.18
-59.77
-58.52
-54.72
-48.18
-39.69
-31.24
-25.48
-24.81
-30.18
-40.44
-52.63
-63.11
-69.09
-69.71
-66.27
-61.37
-57.72
-57.02
-59.58
-64.61
-70.83
-77.14
-82.79
-87.34
-90.46
-91.8
-91.07
-88.15
-83.31
-77.19
-70.68
-64.66
-59.77
-56.18
-53.63
-51.5
-49.15
-46.19
-42.62
-38.86
-35.59
-33.42
-32.66
-33.23
-34.68
-36.44
-38.08
-39.46
-40.66
-41.91
-43.39
-45.13
-47.0
-48.8
-50.26
-51.08
-50.91
-49.32
-45.91
-40.44
-32.95
-23.92
-14.1
-4.4
4.37
11.64
17.19
21.02
23.28
24.16
23.83
22.51
20.44
18.01
15.66
13.84
12.82
12.6
12.91
13.25
13.09
12.08
10.25
7.94
5.76
4.31
3.91
4.5
5.65
6.62
6.67
5.23
2.11
-2.43
-7.8
-13.28
-18.25
-22.45
-26.01
-29.39
-33.15
-37.73
-43.2
-49.11
-54.46
-57.96
-58.28
-54.5
-46.5
-35.0
-21.43
-7.49
5.36
16.17
24.66
30.95
35.43
38.43
40.24
41.06
41.12
40.65
39.85
38.9
37.88
36.79
35.59
34.27
32.79
31.13
29.26
27.12
24.64
21.74
18.4
14.65
10.64
6.5
2.38
-1.63
-5.53
-9.35
-13.14
-16.87
-20.47
-23.77
-26.67
-29.15
-31.32
-33.53
-36.21
-39.78
-44.51
-50.31
-56.57
-62.21
-65.8
-65.99
-61.86
-53.24
-40.79
-25.77
-9.73
5.86
19.83
31.41
40.12
45.77
48.43
48.48
46.64
43.82
40.97
38.8
37.56
37.1
36.97
36.68
36.0
35.06
34.27
34.09
34.76
36.12
37.65
38.65
38.54
37.04
34.23
30.38
25.79
20.61
14.83
8.39
1.33
-6.06
-13.31
-19.87
-25.34
-29.57
-32.74
-35.29
-37.82
-40.95
-45.2
-50.9
-58.02
-66.04
-73.9
-80.14
-83.15
-81.63
-75.0
-63.69
-49.01
-32.86
-17.19
-3.48
7.46
15.56
21.21
24.94
27.15
28.06
27.79
26.5
24.5
22.17
19.9
17.87
16.08
14.4
12.75
11.17
9.86
9.05
8.85
9.18
9.78
10.37
10.78
11.08
11.57
12.64
14.56
17.33
20.64
23.95
26.68
28.4
28.98
28.53
27.29
25.42
22.94
19.7
15.46
9.97
3.12
-5.01
-14.02
-23.13
-31.18
-36.82
-38.78
-36.26
-29.21
-18.43
-5.37
8.24
20.87
31.46
39.64
45.51
49.49
52.0
53.39
53.85
53.59
52.87
52.06
51.52
51.5
51.96
52.64
53.17
53.25
52.84
52.13
51.43
50.93
50.57
50.01
48.81
46.65
43.5
39.69
35.71
32.03
28.85
26.1
23.46
20.61
17.36
13.85
10.37
7.28
4.81
2.87
1.14
-0.87
-3.58
-7.27
-11.99
-17.56
-23.53
-29.17
-33.48
-35.31
-33.62
-27.88
-18.38
-6.26
6.81
19.1
29.41
37.28
42.93
46.96
49.98
52.36
54.19
55.46
56.17
56.47
56.65
57.01
57.76
58.98
60.69
62.93
65.78
69.22
72.85
75.77
76.56
73.65
65.82
52.74
35.1
14.33
-7.81
-29.8
-50.61
-69.66
-86.57
-101.02
-112.66
-121.24
-126.79
-129.66
-130.4
-129.62
-127.82
-125.45
-122.92
-120.69
-119.12
-118.3
-117.72
-116.3
-112.48
-104.87
-92.7
-76.3
-57.03
-36.87
-17.82
-1.32
11.96
22.06
29.4
34.48
37.73
39.49
40.1
39.94
39.43
38.92
38.68
38.85
39.5
40.59
42.02
43.57
45.01
46.03
46.38
45.92
44.59
42.47
39.68
36.43
32.89
29.3
25.84
22.66
19.84
17.33
15.08
13.0
11.05
9.21
7.43
5.56
3.31
0.33
-3.68
-8.72
-14.36
-19.64
-23.31
-24.05
-21.02
-14.09
-4.08
7.48
18.74
27.99
34.15
36.93
36.78
34.62
31.44
28.02
24.8
21.93
19.39
17.14
15.19
13.6
12.39
11.48
10.67
9.7
