-5.71
-7.34
-9.01
-10.58
-11.92
-13.06
-14.07
-15.13
-16.47
-18.24
-20.47
-22.92
-25.11
-26.43
-26.31
-24.43
-20.87
-16.01
-10.49
-5.0
-0.07
3.95
6.96
9.02
10.28
10.94
11.12
10.97
10.52
9.88
9.18
8.55
8.12
7.93
7.95
8.03
8.04
7.87
7.5
6.95
6.21
5.32
4.31
3.23
2.21
1.36
0.75
0.38
0.11
-0.21
-0.71
-1.42
-2.25
-3.12
-3.91
-4.6
-5.24
-5.88
-6.58
-7.29
-7.99
-8.6
-9.1
-9.52
-9.97
-10.54
-11.35
-12.49
-13.99
-15.84
-17.92
-19.96
-21.57
-22.26
-21.6
-19.33
-15.52
-10.52
-4.87
0.81
5.96
10.21
13.31
15.24
16.11
16.13
15.58
14.72
13.75
12.82
12.02
11.38
10.93
10.71
10.73
11.01
11.49
12.07
12.55
12.73
12.45
11.69
10.49
8.98
7.31
5.62
4.06
2.73
1.7
0.96
0.42
-0.17
-1.0
-2.2
-3.71
-5.29
-6.67
-7.65
-8.27
-8.72
-9.34
-10.44
-12.2
-14.59
-17.37
-20.15
-22.35
-23.44
-22.89
-20.46
-16.21
-10.56
-4.25
1.88
7.07
10.9
13.33
14.66
15.3
15.6
15.71
15.58
15.14
14.39
13.52
12.77
12.37
12.35
12.53
12.61
12.33
11.62
10.57
9.42
8.37
7.51
6.76
6.0
5.09
3.98
2.74
1.46
0.24
-0.88
-1.88
-2.74
-3.46
-4.04
-4.55
-5.12
-5.88
-6.89
-8.12
-9.37
-10.45
-11.29
-12.05
-13.01
-14.5
-16.7
-19.45
-22.33
-24.72
-26.03
-25.78
-23.8
-20.13
-15.14
-9.37
-3.46
1.94
6.4
9.69
11.88
13.2
13.92
14.26
14.34
14.15
13.66
12.83
11.75
10.61
9.69
9.25
9.43
10.16
11.19
12.16
12.79
12.91
12.55
11.83
10.92
9.93
8.93
7.99
7.09
6.23
5.38
4.54
3.74
3.04
2.48
2.0
1.49
0.78
-0.23
-1.5
-2.86
-4.18
-5.36
-6.49
-7.7
-9.17
-10.96
-13.01
-15.24
-17.52
-19.72
-21.6
-22.75
-22.7
-20.99
-17.4
-12.11
-5.7
0.98
7.09
11.99
15.4
17.39
18.21
18.17
17.54
16.53
15.3
14.05
12.98
12.24
11.89
11.9
12.13
12.47
12.8
13.03
13.08
12.85
12.25
11.25
9.9
8.33
6.68
5.01
3.36
1.65
-0.14
-2.02
-3.91
-5.68
-7.21
-8.42
-9.31
-9.91
-10.29
-10.54
-10.8
-11.23
-12.08
-13.53
-15.6
-18.01
-20.21
-21.43
-20.98
-18.49
-14.11
-8.5
-2.59
2.75
6.95
9.87
11.71
12.87
13.67
14.24
14.57
14.57
14.19
13.48
12.57
11.6
10.67
9.79
8.92
8.03
7.11
6.21
5.38
4.64
3.93
3.15
2.17
0.88
-0.75
-2.68
-4.77
-6.88
-8.82
-10.47
-11.83
-12.95
-13.95
-14.97
-16.0
-16.97
-17.74
-18.18
-18.28
-18.2
-18.18
-18.55
-19.53
-21.21
-23.45
-25.95
-28.22
-29.72
-29.91
-28.44
-25.23
-20.46
-14.61
-8.31
-2.28
2.94
6.97
9.75
11.45
12.39
12.88
13.1
13.05
12.65
11.89
10.97
10.19
9.92
10.3
11.24
12.36
13.28
13.75
13.74
13.35
12.72
11.86
10.64
8.94
6.74
4.19
1.57
-0.82
-2.81
-4.42
-5.77
-7.09
-8.5
-10.11
-11.87
-13.63
-15.19
-16.37
-17.06
-17.34
-17.46
-17.8
-18.69
-20.28
-22.46
-24.82
-26.75
-27.59
-26.79
-24.07
-19.5
-13.45
-6.6
0.29
6.56
11.76
15.78
18.73
20.83
22.16
22.72
22.43
21.31
19.58
17.67
16.12
15.31
15.34
16.0
16.91
17.64
17.87
17.47
16.41
14.83
12.91
10.9
8.97
7.25
5.72
4.25
2.67
0.84
-1.24
-3.47
-5.67
-7.66
-9.3
-10.57
-11.53
-12.35
-13.28
-14.62
-16.65
-19.54
-23.16
-27.07
-30.5
-32.48
-32.09
-28.81
-22.71
-14.46
-5.28
3.56
11.05
16.71
20.61
23.16
24.81
25.79
26.04
25.41
23.86
21.68
19.38
17.53
16.47
16.14
16.2
16.2
15.87
15.24
14.51
13.91
13.46
12.98
12.17
10.75
8.67
6.1
3.31
0.64
-1.7
-3.6
-5.08
-6.25
-7.27
-8.35
-9.63
-11.18
-12.88
-14.54
-15.88
-16.85
-17.57
-18.4
-19.8
-22.08
-25.27
-29.03
-32.7
-35.45
-36.46
-35.08
-31.05
-24.53
-16.13
-6.82
2.3
10.22
16.35
20.55
23.11
24.52
25.21
25.42
25.21
24.6
23.6
22.42
21.27
20.34
19.71
19.28
18.93
18.52
18.01
17.41
16.78
16.13
15.45
14.67
13.75
12.6
11.19
9.53
7.69
5.78
3.95
2.35
1.02
-0.13
-1.33
-2.8
-4.69
-6.92
-9.17
-11.07
-12.35
-13.05
-13.53
-14.35
-15.95
-18.55
-21.94
-25.64
-28.95
-31.17
-31.67
-30.06
-26.18
-20.26
-12.81
-4.61
3.52
10.81
16.75
21.04
23.71
24.97
25.16
24.61
23.59
22.26
20.64
18.75
16.75
14.88
13.45
12.67
12.58
12.95
13.42
13.66
13.43
12.7
11.52
10.01
8.2
6.16
3.92
1.63
-0.57
-2.53
-4.21
-5.69
-7.12
-8.66
-10.37
-12.18
-13.94
-15.52
-16.88
-18.18
-19.72
-21.86
-24.79
-28.41
-32.16
-35.07
-36.14
-34.59
-30.19
-23.39
-15.14
-6.6
1.27
7.91
13.18
17.24
20.29
22.47
23.79
24.19
23.7
22.47
20.81
19.12
17.73
16.84
16.47
16.48
16.68
16.91
17.04
16.99
16.7
16.08
15.06
13.59
11.66
9.32
6.67
3.86
1.15
-1.18
-2.9
-3.89
-4.27
-4.36
-4.56
-5.19
-6.35
-7.95
-9.74
-11.52
-13.1
-14.47
-15.7
-16.92
-18.34
-20.19
-22.63
-25.72
-29.22
-32.6
-35.07
-35.78
-34.13
-29.96
-23.64
-15.98
-7.89
-0.23
6.46
11.89
15.96
18.72
20.26
20.75
20.46
19.68
18.64
17.54
16.43
15.31
14.23
13.25
12.45
11.84
11.34
10.76
9.98
8.95
7.76
6.61
5.6
4.73
3.85
2.76
1.38
-0.2
-1.69
-2.78
-3.26
-3.16
-2.76
-2.4
-2.4
-2.92
-3.9
-5.15
-6.42
-7.53
-8.48
-9.4
-10.57
-12.26
-14.63
-17.64
-21.09
-24.61
-27.68
-29.77
-30.34
-28.93
-25.26
-19.49
-12.09
-3.96
3.9
10.64
15.72
19.05
20.88
21.62
21.61
21.08
20.13
18.82
17.26
15.61
14.11
12.92
12.19
11.92
12.03
12.36
12.71
12.84
12.52
11.63
10.13
8.15
5.91
3.73
1.81
0.3
-0.86
-1.82
-2.81
-4.0
-5.46
-7.12
-8.79
-10.28
-11.5
-12.48
-13.46
-14.72
-16.52
-18.98
-21.97
-25.18
-28.06
-29.94
-30.15
-28.18
-23.85
-17.43
-9.69
-1.63
5.73
11.68
15.96
18.73
20.38
21.25
21.58
21.4
20.73
19.65
18.33
16.99
15.77
14.71
13.79
12.93
12.12
11.42
10.9
10.54
10.26
9.89
9.22
8.11
6.56
4.67
2.66
0.77
-0.84
-2.05
-2.89
-3.46
-3.96
-4.58
-5.51
-6.83
-8.46
-10.22
-11.8
-12.97
-13.65
-13.99
-14.34
-15.14
-16.73
-19.32
-22.8
-26.74
-30.46
-33.07
-33.76
-31.96
-27.6
-21.15
-13.47
-5.56
1.72
7.84
12.6
16.03
18.3
19.57
20.01
19.77
18.98
17.81
16.44
15.06
13.86
13.01
12.57
12.45
12.53
12.65
12.74
12.84
12.99
13.15
13.13
12.71
11.68
10.02
7.88
5.54
3.31
1.4
-0.08
-1.17
-2.01
-2.8
-3.76
-5.02
-6.55
-8.19
-9.65
-10.76
-11.46
-11.94
-12.49
-13.41
-14.9
-17.02
-19.71
-22.72
-25.65
-27.86
-28.6
-27.19
-23.25
-16.96
-9.08
-0.74
6.92
13.01
17.2
19.61
20.64
20.72
20.14
19.01
17.4
15.47
13.49
11.88
10.99
10.93
11.57
12.5
13.29
13.57
13.26
12.45
11.4
10.32
9.25
8.06
6.49
4.43
1.99
-0.5
-2.61
-4.02
-4.73
-5.04
-5.41
-6.18
-7.44
-9.02
-10.61
-12.01
-13.18
-14.38
-15.93
-18.1
-20.98
-24.42
-27.98
-31.02
-32.81
-32.64
-30.09
-25.11
-18.09
-9.9
-1.53
6.03
12.12
16.45
19.19
20.72
21.49
21.88
22.05
22.02
21.74
21.22
20.55
19.91
19.5
19.42
19.61
19.88
20.0
19.71
18.9
17.62
16.09
14.52
13.07
11.8
10.56
9.17
7.43
5.34
3.04
0.81
-1.12
-2.66
-3.93
-5.13
-6.52
-8.19
-10.09
-12.03
-13.8
-15.22
-16.27
-17.01
-17.62
-18.31
-19.3
-20.77
-22.81
-25.38
-28.21
-30.87
-32.71
-33.08
-31.42
-27.49
-21.49
-14.02
-5.96
1.72
8.2
13.01
16.07
17.62
18.09
17.91
17.39
16.71
15.89
14.98
14.07
13.3
12.82
12.67
12.8
13.03
13.23
13.3
13.23
13.03
12.65
11.97
10.85
9.23
7.21
5.0
2.89
1.06
-0.38
-1.46
-2.25
-2.81
-3.2
-3.52
-3.95
-4.65
-5.76
-7.26
-9.0
-10.68
-12.06
-12.97
-13.42
-13.54
-13.62
-13.99
-14.96
-16.75
-19.34
-22.38
-25.22
-27.02
-26.95
-24.52
-19.73
-13.1
-5.52
2.0
8.6
13.76
17.33
19.42
20.3
20.25
19.5
18.27
16.78
15.27
14.01
13.2
12.92
13.11
13.61
14.22
14.77
15.17
15.38
15.36
15.0
14.2
12.83
10.95
8.68
6.23
3.82
1.62
-0.29
-1.87
-3.12
-4.02
-4.63
-5.05
-5.43
-5.95
-6.75
-7.84
-9.14
-10.49
-11.77
-13.0
-14.34
-16.09
-18.42
-21.27
-24.15
-26.29
-26.8
-25.01
-20.75
-14.4
-6.84
0.86
7.74
13.21
17.09
19.57
21.02
21.8
22.11
21.98
21.4
20.39
19.07
17.68
16.47
15.55
14.93
14.44
13.88
13.1
12.06
10.81
9.52
8.31
7.28
6.45
5.73
5.02
4.21
3.25
2.15
1.01
-0.05
-0.94
-1.61
-2.1
-2.49
-2.89
-3.36
-3.95
-4.62
-5.34
-6.06
-6.76
-7.46
-8.18
-8.93
-9.74
-10.7
-11.93
-13.64
-15.97
-18.94
-22.28
-25.41
-27.58
-28.02
-26.3
-22.41
-16.89
-10.61
-4.55
0.53
4.22
6.52
7.68
8.08
8.05
7.8
7.44
6.98
6.33
5.51
4.49
3.3
2.01
0.72
-0.47
-1.45
-2.07
-2.3
-2.1
-1.56
-0.84
-0.2
0.16
0.1
-0.41
-1.29
-2.37
-3.44
-4.31
-4.86
-5.1
-5.17
-5.3
-5.66
-6.32
-7.19
-8.1
-8.85
-9.34
-9.53
-9.5
-9.4
-9.43
-9.93
-11.21
-13.45
-16.54
-19.95
-22.89
-24.47
-24.02
-21.28
-16.45
-10.11
-3.07
3.84
9.85
14.44
17.39
18.79
18.95
18.22
16.95
15.36
13.65
12.02
10.77
10.1
10.14
10.74
11.59
12.34
12.74
12.75
12.52
12.21
11.95
11.7
11.3
10.52
9.2
7.31
5.05
2.77
0.83
-0.55
-1.36
-1.83
-2.33
-3.14
-4.32
-5.73
-7.12
-8.26
-9.15
-10.03
-11.2
-12.96
-15.42
-18.47
-21.83
-25.03
-27.51
-28.63
-27.82
-24.74
-19.45
-12.5
-4.75
2.82
9.43
14.62
18.3
20.59
21.76
22.02
21.6
20.7
19.5
18.14
16.73
15.36
14.06
12.93
12.01
11.39
11.0
10.8
10.61
10.31
9.83
9.17
8.4
7.55
6.66
5.69
4.58
3.25
1.68
-0.05
-1.83
-3.5
-4.95
-6.1
-6.98
-7.67
-8.32
-9.06
-10.0
-11.17
-12.52
-13.92
-15.22
-16.29
-17.12
-17.85
-18.74
-20.04
-21.96
-24.5
-27.34
-29.86
-31.26
-30.81
-27.97
-22.72
-15.55
-7.33
0.9
8.18
13.88
17.8
20.1
21.16
21.39
21.13
20.51
19.64
18.55
17.39
16.29
15.39
14.7
14.12
13.56
12.98
12.46
12.17
12.26
12.67
13.18
13.46
13.21
12.33
10.98
9.41
7.89
6.54
5.31
4.02
2.52
0.72
-1.35
-3.61
-5.92
-8.14
-10.13
-11.77
-13.0
-13.94
-14.82
-15.95
-17.59
-19.78
-22.24
-24.44
-25.67
-25.27
-22.82
-18.32
-12.16
-5.09
1.96
8.17
12.96
16.17
17.92
18.55
18.37
17.61
16.43
14.99
13.49
12.15
11.17
10.68
10.65
10.95
11.4
11.82
12.07
12.07
11.81
11.28
10.53
9.57
8.35
6.85
5.07
3.13
1.25
-0.3
-1.34
-1.89
-2.23
-2.65
-3.44
-4.65
-6.14
-7.69
-9.07
-10.26
-11.38
-12.6
-14.07
-15.86
-18.02
-20.54
-23.46
-26.68
-29.88
-32.52
-33.8
-33.0
-29.67
-23.94
-16.48
-8.36
-0.68
5.72
10.48
13.71
15.81
17.2
18.13
18.66
18.71
18.22
17.27
16.08
14.97
14.2
13.93
14.11
14.56
15.03
15.29
15.2
14.7
13.9
12.94
11.98
11.1
10.3
9.48
8.54
7.44
6.25
5.08
4.06
3.18
2.29
1.14
-0.55
-2.88
-5.75
-8.86
-11.85
-14.38
-16.32
-17.73
-18.78
-19.78
-20.97
-22.55
-24.62
-27.13
-29.87
-32.39
-34.07
-34.25
-32.39
-28.3
-22.24
-14.83
-6.93
0.61
7.15
12.34
16.1
18.54
19.86
20.32
20.12
19.51
18.64
17.66
16.68
15.82
15.16
14.77
14.58
14.47
14.26
13.86
13.25
12.57
11.93
11.36
10.75
9.93
8.75
7.26
5.65
4.24
3.3
2.89
2.83
2.81
2.51
1.68
0.36
-1.3
-3.03
-4.6
-5.91
-7.01
-8.07
-9.35
-11.11
-13.53
-16.56
-19.95
-23.17
-25.44
-26.0
-24.27
-20.07
-13.8
-6.36
1.15
7.67
12.54
15.55
16.89
16.93
16.06
14.58
12.75
10.81
9.03
7.67
6.87
6.65
6.89
7.37
7.88
8.3
8.6
8.77
8.87
8.84
8.67
8.22
7.4
6.21
4.71
3.09
1.55
0.26
-0.77
-1.62
-2.51
-3.59
-4.98
-6.66
-8.57
-10.6
-12.61
-14.5
-16.16
-17.61
-18.96
-20.5
-22.62
-25.63
-29.54
-33.89
-37.81
-40.17
-39.97
-36.68
-30.42
-21.95
-12.39
-2.91
5.56
12.52
17.81
21.54
23.9
25.1
25.35
24.85
23.87
22.66
21.51
20.59
19.94
19.52
19.24
19.01
18.81
18.6
18.3
17.76
16.83
15.4
13.53
11.38
9.18
7.07
5.1
3.25
1.47
-0.19
-1.63
-2.78
-3.67
-4.44
-5.29
-6.37
-7.69
-9.16
-10.62
-11.95
-13.13
-14.21
-15.36
-16.77
-18.65
-21.08
-24.05
-27.28
-30.28
-32.32
-32.64
-30.65
-26.12
-19.37
-11.16
-2.62
5.26
11.73
16.53
19.85
22.08
23.63
24.79
25.62
26.1
26.15
25.73
24.83
23.43
21.53
19.16
16.42
13.47
10.51
7.8
5.58
4.0
3.15
2.93
3.1
3.32
3.25
2.69
1.66
0.38
-0.86
-1.86
-2.59
-3.21
-3.92
-4.87
-6.06
-7.36
-8.58
-9.57
-10.34
-10.96
-11.64
-12.59
-14.0
-15.98
-18.5
-21.33
-24.05
-26.03
-26.6
-25.24
-21.79
-16.52
-10.14
-3.53
2.49
7.38
10.94
13.29
14.7
15.43
15.65
15.47
14.91
14.06
13.1
12.24
11.7
11.58
11.84
12.26
12.61
12.76
12.7
12.52
12.28
11.87
11.03
9.47
7.11
4.14
1.02
-1.74
-3.78
-5.06
-5.77
-6.3
-6.96
-7.89
-9.02
-10.19
-11.22
-12.06
-12.81
-13.63
-14.76
-16.36
-18.52
-21.15
-23.98
-26.57
-28.28
-28.47
-26.61
-22.44
-16.25
-8.77
-1.04
5.86
11.25
14.94
17.18
18.47
19.2
19.55
19.45
18.84
17.74
16.45
15.35
14.78
14.84
15.38
16.1
16.71
17.05
17.11
16.93
16.5
15.76
14.62
13.01
10.97
8.64
6.24
4.0
2.07
0.46
-0.89
-2.09
-3.18
-4.18
-5.04
-5.8
-6.51
-7.29
-8.19
-9.24
-10.31
-11.24
-11.97
-12.61
-13.45
-14.84
-17.05
-20.07
-23.59
-27.02
-29.6
-30.59
-29.46
-26.02
-20.49
-13.48
-5.85
1.51
7.82
12.64
15.81
17.46
17.86
17.38
16.41
15.26
14.25
13.6
13.45
13.74
14.28
14.79
14.96
14.55
13.52
11.95
10.04
8.0
5.99
4.13
2.44
0.88
-0.61
-2.08
-3.55
-4.96
-6.2
-7.19
-7.85
-8.22
-8.39
-8.44
-8.46
-8.44
-8.43
-8.45
-8.58
-8.88
-9.32
-9.82
-10.26
-10.62
-11.01
-11.73
-13.08
-15.29
-18.24
-21.42
-24.01
-25.1
-24.01
-20.47
-14.8
-7.72
-0.15
6.99
13.03
17.58
20.57
22.19
22.74
22.58
21.99
21.16
20.14
18.99
17.8
16.69
15.77
15.07
14.54
14.04
13.45
12.75
11.98
11.21
10.41
9.47
8.22
6.55
4.5
2.29
0.21
-1.5
-2.79
-3.74
-4.61
-5.61
-6.87
-8.37
-9.98
-11.55
-12.93
-14.02
-14.83
-15.5
-16.28
-17.52
-19.55
-22.48
-26.09
-29.74
-32.49
-33.34
-31.56
-26.9
-19.75
-11.03
-1.9
6.46
13.19
17.87
20.61
21.79
21.96
21.6
21.04
20.39
19.69
18.96
18.22
17.53
16.93
16.39
15.88
15.32
14.7
14.02
13.27
12.45
11.56
10.55
9.44
8.26
7.02
5.77
4.49
3.18
1.85
0.55
-0.67
-1.74
-2.63
-3.38
-4.1
-4.92
-5.99
-7.32
-8.86
-10.46
-12.0
-13.44
-14.91
-16.58
-18.61
-21.1
-24.03
-27.38
-31.04
-34.76
-38.07
-40.22
-40.33
-37.7
-32.09
-23.92
-14.22
-4.27
4.71
11.9
17.02
20.27
22.11
23.09
23.69
24.22
24.75
25.14
25.18
24.72
23.78
22.6
21.45
20.54
19.86
19.29
18.67
17.9
17.04
16.23
15.48
14.73
13.8
12.54
10.88
8.9
6.72
4.48
2.31
0.3
-1.46
-2.9
-4.0
-4.81
-5.47
-6.13
-6.92
-7.9
-9.03
-10.25
-11.43
-12.45
-13.24
-13.8
-14.32
-15.06
-16.36
-18.45
-21.3
-24.59
-27.64
-29.64
-29.84
-27.74
-23.25
-16.8
-9.19
-1.4
5.59
11.13
14.94
17.17
18.27
18.72
18.9
18.97
18.83
18.37
17.59
16.64
15.8
15.33
15.35
15.7
16.08
16.13
15.69
14.77
13.56
12.32
11.14
9.94
8.5
6.64
4.29
1.67
-0.84
-2.93
-4.42
-5.42
-6.25
-7.24
-8.54
-10.07
-11.55
-12.69
-13.38
-13.69
-13.89
-14.31
-15.26
-16.91
-19.29
-22.34
-25.75
-28.97
-31.27
-31.84
-30.03
-25.57
-18.77
-10.41
-1.63
6.48
13.12
17.93
20.98
22.64
23.31
23.3
22.81
21.95
20.87
19.72
18.66
17.81
17.14
16.55
15.88
15.07
14.16
13.24
12.4
11.7
11.08
10.44
9.67
8.63
7.28
5.65
3.89
2.2
0.73
-0.43
-1.37
-2.2
-3.07
-4.04
-5.11
-6.24
-7.41
