-11.77
-16.04
-20.1
-23.28
-24.78
-23.97
-20.69
-15.3
-8.57
-1.42
5.39
11.45
16.64
21.0
24.54
27.15
28.62
28.85
27.94
26.2
24.15
22.29
20.99
20.42
20.47
20.92
21.47
21.85
21.84
21.35
20.37
18.95
17.15
15.08
12.78
10.31
7.67
4.85
1.82
-1.37
-4.65
-7.83
-10.73
-13.25
-15.47
-17.67
-20.19
-23.34
-27.22
-31.62
-36.0
-39.63
-41.76
-41.79
-39.47
-34.91
-28.57
-21.18
-13.48
-6.12
0.49
6.14
10.82
14.6
17.53
19.66
21.01
21.63
21.67
21.32
20.78
20.18
19.61
19.06
18.57
18.16
17.88
17.73
17.63
17.45
17.03
16.3
15.18
13.68
11.75
9.34
6.46
3.19
-0.23
-3.47
-6.27
-8.55
-10.44
-12.22
-14.15
-16.44
-19.19
-22.4
-26.06
-30.12
-34.36
-38.36
-41.48
-42.99
-42.28
-39.1
-33.67
-26.61
-18.74
-10.88
-3.62
2.7
7.97
12.23
15.53
17.92
19.43
20.1
20.09
19.63
19.04
18.6
18.51
18.73
19.11
19.41
19.41
19.02
18.26
17.25
16.15
15.07
14.02
12.95
11.68
10.06
7.94
5.24
2.05
-1.45
-4.99
-8.29
-11.13
-13.45
-15.23
-16.66
-18.03
-19.73
-22.2
-25.74
-30.34
-35.55
-40.51
-44.16
-45.53
-44.08
-39.91
-33.65
-26.26
-18.66
-11.52
-5.13
0.46
5.26
9.17
12.02
13.68
14.21
13.89
13.24
12.71
12.64
13.07
13.89
14.86
15.77
16.49
16.95
17.09
16.92
16.45
15.74
14.84
13.76
12.45
10.79
8.7
6.16
3.27
0.17
-2.97
-6.05
-9.04
-11.95
-14.81
-17.69
-20.68
-23.88
-27.24
-30.54
-33.27
-34.8
-34.55
-32.22
-27.94
-22.22
-15.72
-9.08
-2.77
2.94
7.9
12.08
15.41
17.87
19.45
20.18
20.17
19.61
18.78
18.0
17.58
17.68
18.29
19.23
20.24
21.04
21.46
21.41
20.9
19.93
18.54
16.72
14.48
11.8
8.74
5.42
2.01
-1.29
-4.35
-7.11
-9.66
-12.13
-14.71
-17.57
-20.9
-24.82
-29.34
-34.23
-39.0
-42.94
-45.27
-45.41
-43.14
-38.66
-32.49
-25.3
-17.69
-10.17
-3.04
3.49
9.32
14.35
18.44
21.48
23.43
24.32
24.37
23.93
23.39
23.04
22.98
23.05
22.96
22.47
21.52
20.32
19.27
18.74
18.85
19.32
19.51
18.67
16.27
12.25
7.12
1.71
-3.13
-6.87
-9.35
-10.82
-11.66
-12.3
-13.13
-14.5
-16.76
-20.17
-24.79
-30.32
-36.05
-40.96
-43.95
-44.19
-41.36
-35.79
-28.31
-20.0
-11.87
-4.6
1.53
6.52
10.49
13.53
15.62
16.76
17.03
16.68
16.06
15.56
15.45
15.82
16.61
17.63
18.71
19.69
20.46
20.96
21.13
20.93
20.37
19.43
18.12
16.42
14.33
11.83
8.92
5.64
2.08
-1.62
-5.27
-8.64
-11.51
-13.73
-15.36
-16.62
-17.99
-20.03
-23.19
-27.64
-33.05
-38.57
-43.04
-45.31
-44.62
-40.83
-34.48
-26.58
-18.23
-10.3
-3.31
2.61
7.52
11.47
14.48
16.49
17.55
17.84
17.71
17.57
17.78
18.51
19.73
21.19
22.59
23.61
24.06
23.93
23.35
22.5
21.55
20.52
19.34
17.84
15.91
13.5
10.75
7.87
5.1
2.6
0.4
-1.66
-3.81
-6.29
-9.27
-12.85
-17.06
-21.78
-26.69
-31.26
-34.76
-36.41
-35.65
-32.39
-26.99
-20.21
-12.93
-5.82
0.74
6.64
11.86
16.33
19.89
22.38
23.77
24.2
23.91
23.16
22.18
21.09
20.04
19.18
18.67
18.62
18.98
19.53
19.93
19.86
19.06
17.51
15.4
13.0
10.63
8.46
6.46
4.34
1.69
-1.91
-6.67
-12.49
-18.86
-25.0
-30.05
-33.33
-34.49
-33.57
-30.96
-27.17
-22.66
-17.63
-12.07
-5.82
1.18
8.68
16.08
22.54
27.19
29.38
28.95
26.24
21.9
16.76
11.57
6.84
2.87
-0.25
-2.46
-3.73
-3.97
-3.13
-1.28
1.32
4.24
6.95
9.03
10.19
10.47
10.08
9.3
8.34
7.33
6.27
5.09
3.74
2.13
0.21
-2.04
-4.6
-7.37
-10.19
-12.9
-15.36
-17.59
-19.73
-22.02
-24.7
-27.95
-31.68
-35.53
-38.83
-40.71
-40.39
-37.42
-31.88
-24.35
-15.81
-7.25
0.55
7.19
12.64
17.03
20.45
22.88
24.23
24.42
23.58
22.06
20.37
19.05
18.48
18.78
19.81
21.21
22.63
23.72
24.34
24.46
24.11
23.39
22.32
20.87
18.97
16.55
13.58
10.14
6.38
2.49
-1.37
-5.1
-8.67
-12.08
-15.36
-18.56
-21.75
-25.02
-28.47
-32.14
-35.85
-39.12
-41.27
-41.56
-39.51
-35.08
-28.82
-21.59
-14.29
-7.53
-1.49
3.98
9.1
13.86
17.98
20.98
22.49
22.49
21.37
19.82
18.54
18.03
18.43
19.58
21.11
22.6
23.7
24.19
24.0
23.15
21.74
19.88
17.64
15.09
12.25
9.19
6.03
2.87
-0.18
-3.12
-5.98
-8.83
-11.73
-14.72
-17.95
-21.56
-25.66
-30.19
-34.75
-38.68
-41.16
-41.48
-39.34
-34.88
-28.65
-21.41
-13.9
-6.71
-0.22
5.29
9.73
13.09
15.5
17.13
18.26
19.05
19.63
20.03
20.29
20.52
20.93
21.69
22.85
24.22
25.43
26.08
25.91
24.89
23.23
21.21
19.03
16.73
14.2
11.33
8.17
4.88
1.7
-1.18
-3.7
-5.91
-7.97
-10.05
-12.31
-14.93
-18.08
-21.95
-26.54
-31.65
-36.75
-41.08
-43.79
-44.18
-41.97
-37.28
-30.68
-22.95
-14.9
-7.17
-0.16
5.93
11.04
15.11
18.12
20.01
20.86
20.83
20.24
19.47
18.82
18.49
18.51
18.79
19.25
19.82
20.52
21.29
22.04
22.58
22.72
22.32
21.35
19.89
18.08
16.01
13.72
11.21
8.44
5.49
2.36
-0.86
-4.15
-7.49
-10.92
-14.47
-18.23
-22.35
-26.96
-32.15
-37.77
-43.41
-48.34
-51.72
-52.8
-51.19
-46.97
-40.68
-33.13
-25.14
-17.35
-10.21
-3.93
1.37
5.65
8.87
11.1
12.49
13.34
13.96
14.64
15.57
16.78
18.19
19.62
20.91
21.94
22.67
23.14
23.41
23.54
23.47
23.14
22.39
21.12
19.25
16.84
14.02
10.98
7.92
4.99
2.21
-0.49
-3.28
-6.39
-10.0
-14.25
-19.1
-24.3
-29.36
-33.6
-36.23
-36.56
-34.28
-29.53
-22.93
-15.35
-7.68
-0.56
5.64
10.85
15.07
18.29
20.48
21.64
21.88
21.45
20.67
19.86
19.23
18.87
18.76
18.84
19.03
19.28
19.55
19.79
19.93
19.88
19.48
18.64
17.31
15.53
13.41
11.06
8.55
5.88
3.04
0.04
-3.1
-6.31
-9.58
-12.93
-16.47
-20.31
-24.57
-29.19
-33.94
-38.38
-41.86
-43.71
-43.35
-40.5
-35.24
-28.1
-19.87
-11.47
-3.69
2.95
8.31
12.5
15.73
18.19
19.9
20.82
20.9
20.28
19.26
18.26
17.63
17.52
17.86
18.44
19.02
19.43
19.61
19.53
19.14
18.35
17.12
15.42
13.32
10.93
8.37
5.71
2.93
0.06
-2.92
-5.96
-8.99
-11.92
-14.76
-17.61
-20.68
-24.23
-28.4
-33.16
-38.11
-42.6
-45.81
-46.98
-45.67
-41.85
-35.94
-28.63
-20.69
-12.81
-5.47
1.03
6.55
11.04
14.48
16.87
18.32
19.0
19.19
19.22
19.38
19.83
20.6
21.55
22.48
23.22
23.68
23.87
23.78
23.36
22.46
20.95
18.77
15.98
12.74
9.28
5.79
2.41
-0.76
-3.63
-6.19
-8.51
-10.8
-13.37
-16.49
-20.28
-24.56
-28.83
-32.38
-34.46
-34.5
-32.24
-27.84
-21.77
-14.7
-7.34
-0.31
5.97
11.26
15.46
18.54
20.52
21.5
21.72
21.47
21.11
20.9
20.99
21.36
21.88
22.45
23.01
23.61
24.27
24.94
25.44
25.55
25.08
23.95
22.21
19.98
17.36
14.46
11.34
8.11
4.82
1.41
-2.25
-6.42
-11.25
-16.63
-22.1
-26.84
-29.98
-30.88
-29.38
-25.8
-20.8
-15.15
-9.52
-4.43
-0.17
3.04
5.08
5.9
5.59
4.37
2.58
0.57
-1.32
-2.9
-4.1
-4.93
-5.47
-5.76
-5.85
-5.75
-5.5
-5.21
-5.07
-5.29
-6.05
-7.41
-9.34
-11.65
-14.15
-16.62
-18.98
-21.24
-23.52
-26.0
-28.81
-31.87
-34.82
-37.01
-37.65
-36.09
-32.08
-25.92
-18.38
-10.44
-2.94
3.62
9.11
13.65
17.39
20.29
22.23
23.09
22.88
21.81
20.24
18.57
17.08
15.89
15.0
14.31
13.68
13.02
12.22
11.19
9.82
8.02
5.72
2.96
-0.13
-3.35
-6.49
-9.41
-12.16
-14.93
-18.03
-21.73
-26.16
-31.17
-36.37
-41.16
-44.77
-46.46
-45.71
-42.26
-36.31
-28.45
-19.55
-10.56
-2.22
4.98
10.92
15.68
19.38
22.12
23.89
24.72
24.73
24.18
23.45
22.89
22.74
23.02
23.64
24.38
25.03
25.43
25.44
24.92
23.7
21.68
18.83
15.32
11.43
7.53
3.93
0.79
-1.95
-4.55
-7.31
-10.55
-14.4
-18.8
-23.43
-27.77
-31.1
-32.72
-32.15
-29.24
-24.27
-17.83
-10.63
-3.33
3.6
9.85
15.19
19.44
22.4
24.04
24.48
24.05
23.17
22.22
21.45
20.91
20.54
20.26
19.98
19.69
19.35
18.94
18.37
17.55
16.35
14.69
12.53
9.91
6.9
3.68
0.42
-2.71
-5.64
-8.4
-11.14
-14.1
-17.47
-21.31
-25.4
-29.22
-32.04
-33.08
-31.81
-28.13
-22.43
-15.42
-7.93
-0.7
5.83
11.42
16.02
19.62
22.15
23.6
24.03
23.65
22.79
21.82
21.04
20.6
20.47
20.54
20.67
20.76
20.81
20.82
20.8
20.64
20.19
19.23
17.6
15.26
12.3
8.94
5.44
1.99
-1.32
-4.44
-7.41
-10.29
-13.21
-16.34
-19.8
-23.58
-27.32
-30.39
-31.96
-31.4
-28.54
-23.76
-17.83
-11.59
-5.67
-0.33
4.41
8.58
12.08
14.73
16.36
17.0
16.89
16.43
15.99
15.81
15.92
16.18
16.4
16.42
16.14
15.61
14.9
14.09
13.18
12.04
10.43
8.14
5.07
1.31
-2.78
-6.73
-10.12
-12.7
-14.51
-15.85
-17.16
-18.88
-21.36
-24.73
-28.91
-33.57
-38.2
-42.14
-44.69
-45.26
-43.49
-39.4
-33.36
-26.03
-18.21
-10.59
-3.67
2.33
7.37
11.45
14.57
16.75
17.99
18.4
18.21
17.69
17.16
16.85
16.86
17.18
17.67
18.18
18.57
18.74
18.6
18.11
17.21
15.86
14.05
11.79
9.16
6.25
3.21
0.15
-2.81
-5.6
-8.22
-10.71
-13.2
-15.88
-18.97
-22.62
-26.8
-31.23
-35.36
-38.49
-39.95
-39.29
-36.4
-31.53
-25.21
-18.09
-10.78
-3.75
2.66
8.22
12.81
16.34
18.81
20.3
20.94
20.97
20.65
20.19
19.8
19.53
19.4
19.36
19.38
19.41
19.41
19.35
19.19
18.81
18.09
16.87
15.09
12.79
10.15
7.42
4.82
2.39
0.07
-2.34
-5.09
-8.33
-12.08
-16.23
-20.52
-24.62
-28.06
-30.33
-30.93
-29.42
-25.64
-19.73
-12.18
-3.73
4.8
12.72
19.58
25.23
29.77
33.41
36.38
38.85
40.94
42.74
44.33
45.84
47.42
49.24
51.44
54.11
57.15
60.34
63.25
65.36
66.21
65.52
63.34
60.0
56.09
52.38
49.66
48.56
49.31
51.55
54.19
55.58
54.0
48.27
38.36
25.55
12.12
0.41
-8.06
-13.17
-16.07
-18.39
-21.37
-25.23
-29.22
-32.24
-33.5
-32.95
-31.13
-28.73
-26.12
-23.25
-19.91
-16.2
-12.76
-10.49
-10.16
-11.87
-14.84
-17.88
-19.82
-20.09
-18.91
-17.02
-15.31
-14.43
-14.65
-16.03
-18.58
-22.37
-27.49
-33.89
-41.29
-49.21
-57.17
-64.8
-72.0
-78.83
-85.43
-91.9
-98.26
-104.54
-110.69
-116.69
-122.42
-127.55
-131.62
-134.05
-134.32
-132.17
-127.65
-121.23
-113.69
-105.96
-98.87
-92.94
-88.27
-84.57
-81.36
-78.19
-74.84
-71.2
-67.05
-61.8
-54.53
-44.27
-30.52
-13.8
4.31
21.51
35.57
44.94
49.13
48.63
44.5
38.16
31.27
25.85
24.18
28.23
38.76
54.67
72.91
89.3
100.04
103.02
98.41
88.31
75.62
62.95
51.95
43.36
37.43
34.32
34.21
37.01
42.12
48.27
53.82
57.25
57.62
54.86
49.65
43.03
36.07
29.48
23.6
18.49
14.15
10.64
8.12
6.7
6.36
6.85
7.76
8.56
8.85
8.35
7.02
4.98
2.45
-0.32
-3.11
-5.7
-7.9
-9.63
-10.88
-11.83
-12.77
-14.04
-15.84
-18.27
-21.24
-24.64
-28.29
-31.98
-35.4
-38.07
-39.39
-38.82
-36.08
-31.28
-24.84
-17.37
-9.43
-1.41
6.51
14.22
21.6
28.32
33.94
38.03
40.38
41.06
40.47
39.29
38.15
37.5
37.45
37.71
37.86
37.48
36.42
34.79
32.84
30.74
28.52
25.95
22.79
18.94
14.65
10.39
6.67
3.77
1.57
-0.3
-2.34
-4.9
-8.11
-11.81
-15.77
-19.67
-23.19
-25.93
-27.43
-27.25
-25.12
-21.09
-15.61
-9.39
-3.22
2.28
6.71
9.98
12.14
13.35
13.78
13.67
13.24
12.76
12.44
12.4
12.66
13.08
13.45
13.55
13.21
12.4
11.26
10.04
9.01
8.32
7.88
7.34
6.28
4.38
1.63
-1.67
-5.07
-8.22
-11.03
-13.69
-16.59
-20.07
-24.32
-29.23
-34.45
-39.45
-43.57
-46.11
-46.44
-44.17
-39.21
-31.87
-22.79
-12.78
-2.67
6.88
15.45
22.81
28.87
33.53
36.75
38.71
39.95
41.38
44.15
49.21
56.89
66.72
77.52
87.78
96.11
101.56
103.76
102.74
98.82
92.45
84.29
75.14
65.88
57.21
49.45
42.46
35.79
28.87
21.15
12.2
1.53
-11.29
-26.54
-43.96
-62.45
-80.04
-94.36
-103.44
-106.35
-103.62
-96.95
-88.47
-80.04
-72.73
-66.85
-62.2
-58.57
-55.96
-54.56
-54.58
-55.95
-58.22
-60.69
-62.61
-63.46
-63.08
-61.72
-59.89
-58.14
-56.93
-56.48
-56.64
-56.88
-56.26
-53.66
-48.11
-39.23
-27.54
-14.38
-1.63
8.96
16.27
20.02
20.61
18.84
15.55
11.53
7.63
4.85
4.24
6.64
12.24
20.37
29.66
38.41
45.21
49.29
50.7
50.12
48.45
46.42
44.4
42.35
39.91
36.75
32.73
27.99
22.93
18.01
13.63
9.93
6.85
4.15
1.57
-1.11
-4.01
-7.14
-10.45
-13.83
-17.13
-20.21
-23.0
-25.53
-27.93
-30.41
-33.14
-36.17
-39.33
-42.22
-44.24
-44.73
-43.16
-39.27
-33.25
-25.64
-17.28
-9.03
-1.57
4.69
9.64
13.33
15.89
17.37
17.82
17.32
16.07
14.37
12.61
11.13
10.1
9.55
9.35
9.32
9.29
9.11
8.66
7.75
6.26
4.17
1.59
-1.24
-4.11
-6.9
-9.67
-12.58
-15.84
-19.55
-23.68
-28.07
-32.44
-36.41
-39.48
-41.13
-40.92
-38.6
-34.26
-28.28
-21.21
-13.54
-5.65
2.29
10.13
17.77
25.02
31.58
37.18
41.59
44.78
46.89
48.25
49.23
50.13
51.07
51.99
52.78
53.39
53.85
54.17
54.2
53.52
51.54
47.77
42.09
34.89
26.99
19.24
12.17
5.91
0.25
-5.06
-9.94
-13.98
-16.53
-17.06
-15.44
-11.99
-7.41
-2.45
2.28
6.45
9.99
12.92
15.24
16.94
17.92
18.2
17.85
17.03
15.9
14.57
13.05
11.35
9.49
7.57
5.74
4.17
2.94
2.02
1.26
0.44
-0.63
-2.1
-4.03
-6.45
-9.3
-12.48
-15.83
-19.15
-22.33
-25.39
-28.48
-31.74
-35.12
-38.2
-40.24
-40.39
-38.02
-33.1
-26.16
-18.19
-10.21
-3.01
3.07
8.01
11.98
15.12
17.46
18.98
19.68
19.71
19.32
18.83
18.48
18.36
18.41
18.45
18.37
18.16
17.89
17.66
17.43
17.06
16.26
14.76
12.45
9.38
5.79
2.01
-1.67
-4.99
-7.86
-10.34
-12.61
-15.01
-17.86
-21.39
-25.54
-29.93
-33.89
-36.65
-37.53
-36.12
-32.41
-26.71
-19.62
-11.86
-4.1
3.16
9.65
15.31
20.19
24.32
27.63
29.91
30.91
30.5
28.79
26.22
23.41
21.03
19.56
19.19
19.81
21.1
22.65
24.08
25.11
25.51
25.12
23.81
21.56
18.42
14.62
10.41
6.06
1.75
-2.5
-6.71
-10.95
-15.23
-19.52
-23.77
-28.06
-32.5
-37.27
-42.35
-47.46
-51.94
-55.02
-56.02
-54.69
-51.28
-46.44
-40.97
-35.53
-30.46
-25.85
-21.63
-17.81
-14.5
-11.86
-9.92
-8.62
-7.68
-6.8
-5.72
-4.28
-2.44
-0.21
2.34
5.09
7.86
10.46
12.69
14.43
15.65
16.4
16.68
16.46
15.67
14.31
12.47
10.41
8.4
6.63
5.12
3.67
1.99
-0.11
-2.72
-5.76
-9.09
-12.64
-16.33
-20.04
-23.46
-26.09
-27.3
-26.54
-23.59
-18.69
-12.47
-5.72
0.78
6.58
11.49
15.57
18.92
21.6
23.61
24.91
25.49
25.39
24.77
23.82
22.77
21.84
21.17
20.82
20.73
20.79
20.85
20.75
20.35
19.55
18.32
16.7
14.82
12.86
10.99
9.32
7.86
6.49
5.01
3.24
1.11
-1.33
-3.93
-6.5
-8.89
-11.08
-13.18
-15.37
-17.91
-20.93
-24.36
-27.83
-30.67
-32.08
-31.31
-27.94
-22.09
-14.37
-5.74
2.84
10.67
17.42
23.08
27.78
31.65
34.68
36.76
37.8
37.88
37.24
36.31
35.54
35.27
35.64
36.58
37.89
39.4
40.98
42.53
43.83
44.58
44.43
43.24
41.2
38.84
36.86
35.78
35.7
36.28
36.84
36.66
35.22
32.28
27.85
22.15
15.47
8.08
0.2
-8.02
-16.49
-25.04
-33.3
-40.71
-46.54
-50.09
-50.93
-49.02
-44.79
-38.93
-32.31
-25.6
-19.29
-13.61
-8.63
-4.41
-1.04
1.3
2.46
2.41
1.24
-0.75
-3.14
-5.46
-7.26
-8.16
-8.0
-6.82
-4.91
-2.64
-0.44
1.34
2.42
2.64
1.91
0.3
-1.95
-4.43
-6.59
-7.99
-8.48
-8.27
-7.87
-7.88
-8.67
-10.32
-12.54
-14.92
-17.07
-18.83
-20.34
-21.94
-24.03
-26.92
-30.71
-35.21
-39.92
-44.12
-46.94
-47.56
-45.48
-40.67
-33.54
-24.85
-15.47
-6.15
2.56
10.3
16.83
21.9
25.3
26.99
27.11
26.11
24.54
22.92
21.61
20.65
19.92
19.21
18.4
17.53
16.77
16.32
16.26
16.5
16.78
16.74
16.11
14.73
12.7
10.23
7.64
5.1
2.66
0.22
-2.41
-5.36
-8.63
-12.08
-15.47
-18.59
-21.32
-23.69
-25.87
-28.11
-30.71
-33.91
-37.84
-42.39
-47.16
-51.49
-54.53
-55.51
-53.84
-49.36
-42.35
-33.45
-23.5
-13.39
-3.89
4.43
11.22
16.37
19.95
22.14
23.21
23.42
23.02
22.26
21.36
20.56
20.03
19.91
20.25
21.0
22.0
22.99
23.7
23.85
23.27
21.92
19.94
17.55
14.99
12.4
9.81
7.13
4.24
1.13
-2.18
-5.54
-8.82
-11.92
-14.86
-17.75
-20.79
-24.21
-28.18
-32.73
-37.71
-42.71
-47.07
-50.02
-50.83
-49.07
-44.71
-38.13
-30.06
-21.35
-12.76
-4.82
2.18
8.2
13.27
17.46
20.8
23.28
24.93
25.83
26.16
26.14
26.0
25.93
26.04
26.37
26.86
27.42
27.93
28.23
28.18
27.64
26.45
24.54
21.94
18.82
15.46
12.17
9.17
6.47
3.9
1.19
-1.86
-5.28
-8.95
-12.62
-16.14
-19.44
-22.63
-25.94
-29.65
-34.01
-39.12
-44.78
-50.42
-55.16
-57.97
-58.04
-55.01
-49.18
-41.32
-32.46
-23.52
-15.14
-7.62
-1.05
4.55
9.17
12.76
15.31
16.89
17.72
18.11
18.36
18.74
19.38
20.28
21.31
22.35
23.25
23.95
24.4
24.58
24.44
23.89
22.87
21.33
19.24
16.63
13.56
10.16
6.57
2.98
-0.49
-3.77
-6.9
-10.0
-13.27
-16.9
-21.08
-25.87
-31.15
-36.45
-41.04
-44.01
-44.54
-42.17
-36.99
-29.58
-20.87
-11.8
-3.09
4.86
11.93
18.13
23.45
27.81
31.07
33.1
33.88
33.55
32.38
30.74
29.05
27.64
26.75
26.5
26.84
27.61
28.54
29.32
29.6
29.15
27.89
25.92
23.47
20.83
18.18
15.58
12.97
10.22
7.3
4.27
1.25
-1.65
-4.44
-7.25
-10.28
-13.78
-17.94
-22.84
-28.41
-34.34
-40.07
-44.79
-47.62
-47.82
-45.05
-39.47
-31.77
-22.92
-13.89
-5.48
1.85
7.99
12.97
16.93
19.93
22.05
23.3
23.74
23.52
22.87
22.12
21.55
21.38
21.64
22.27
23.06
23.83
24.42
24.72
24.64
24.04
22.84
20.97
18.42
15.27
11.66
7.8
3.86
0.05
-3.5
-6.74
-9.69
-12.5
-15.33
-18.42
-22.01
-26.35
-31.54
-37.5
-43.78
-49.54
-53.69
-55.2
-53.45
-48.44
-40.77
-31.4
-21.36
-11.46
-2.24
6.07
13.26
19.17
23.59
26.34
27.41
27.03
25.7
24.06
22.67
21.88
21.67
21.8
21.95
22.0
22.19
22.98
24.84
27.95
32.05
36.5
40.56
43.53
44.93
44.45
41.93
37.45
31.35
24.45
17.89
12.77
9.74
8.68
8.75
8.75
7.67
5.15
1.5
-2.53
-6.09
-8.56
-9.67
-9.39
-7.8
-5.08
-1.4
2.94
7.67
12.48
17.15
21.55
25.74
30.04
34.97
41.06
48.34
55.9
61.84
63.94
60.79
52.83
42.56
33.52
28.68
29.01
33.14
38.2
41.24
40.13
33.66
20.98
1.4
-25.17
-57.31
-91.52
-122.86
-146.51
-159.69
-162.55
-157.7
-148.64
-138.29
-128.17
-118.74
-110.25
-103.28
-98.72
-97.17
-98.3
-100.72
-102.41
-101.43
-96.62
-87.92
-76.21
-62.81
-48.98
-35.5
-22.58
-10.0
2.53
15.16
27.69
39.61
50.33
59.31
66.33
71.56
75.46
78.6
81.5
84.39
87.16
89.41
90.7
90.68
89.23
86.46
82.6
77.9
72.55
66.66
60.28
53.52
46.51
39.42
32.44
25.68
19.24
13.15
7.4
1.95
-3.3
-8.49
-13.79
-19.32
-25.13
-31.14
-37.12
-42.64
-47.11
-49.84
-50.2
-47.76
-42.55
-35.06
-26.23
-17.08
-8.49
-0.93
5.55
11.09
15.84
19.75
22.62
24.28
24.74
24.26
23.3
22.34
21.7
21.51
21.69
22.1
22.53
22.82
22.86
22.52
21.7
20.34
18.44
16.04
13.17
9.92
6.33
2.45
-1.62
-5.77
-9.87
-13.78
-17.41
-20.75
-23.86
-26.89
-30.02
-33.52
-37.57
-42.23
-47.3
-52.16
-55.91
-57.54
-56.27
-51.84
-44.58
-35.32
-25.08
-14.82
-5.14
3.63
11.39
18.06
23.57
27.77
30.62
32.18
32.67
32.44
31.87
31.3
30.99
31.08
31.61
32.54
33.75
35.03
36.14
36.8
36.8
36.03
34.56
32.59
30.4
28.2
26.08
23.93
21.54
18.74
15.43
11.68
7.67
3.6
-0.35
-4.12
-7.76
-11.38
-15.13
-19.23
-23.81
-28.87
-34.16
-39.09
-42.78
-44.33
-43.03
-38.69
-31.71
-22.89
-13.26
-3.67
5.32
13.43
20.54
26.52
31.21
34.44
36.16
36.47
35.64
34.01
31.95
29.75
27.69
25.97
24.76
24.12
24.02
24.23
24.43
24.29
23.51
21.93
19.49
16.27
12.51
8.5
4.57
0.97
-2.25
-5.31
-8.65
-12.75
-17.93
-24.13
-30.8
-37.07
-42.02
-45.04
-46.07
-45.65
-44.76
-44.4
-45.21
-47.21
-49.68
-51.47
-51.36
-48.49
-42.63
-34.22
-24.21
-13.71
-3.79
4.8
11.55
16.23
18.82
19.53
18.84
17.46
16.27
16.1
17.47
20.5
24.92
30.2
35.72
40.93
45.38
48.79
50.95
51.81
51.43
49.92
47.47
44.24
40.35
35.91
30.98
25.6
19.77
13.52
6.95
0.26
-6.26
-12.27
-17.58
-22.26
-26.64
-31.28
-36.78
-43.44
-51.14
-59.17
-66.41
-71.55
-73.5
-71.7
-66.24
-57.86
-47.63
-36.67
-25.87
-15.82
-6.85
0.84
7.09
11.79
14.98
16.82
17.62
17.78
17.61
17.34
17.13
17.04
17.15
17.49
18.1
18.93
19.87
20.74
21.35
21.48
20.96
19.67
17.52
14.52
10.78
6.56
2.16
-2.05
-5.86
-9.23
-12.37
-15.66
-19.54
-24.26
-29.85
-35.95
-41.88
-46.75
-49.64
-49.79
-46.81
-40.79
-32.25
-22.07
-11.26
-0.72
8.86
17.07
23.71
28.71
32.07
33.88
34.29
33.6
32.19
30.49
28.87
27.54
26.56
25.86
25.36
25.02
24.85
24.83
24.88
24.82
24.37
23.24
21.17
18.05
13.94
9.1
3.89
-1.24
-5.97
-10.1
-13.66
-16.85
-20.01
-23.48
-27.58
-32.48
-38.08
-43.9
-49.09
-52.56
-53.23
-50.49
-44.31
-35.39
-24.86
-13.98
-3.76
5.16
12.57
18.52
23.18
26.71
29.14
30.47
30.75
30.12
28.9
27.51
26.33
25.61
25.37
25.45
25.59
25.57
25.29
24.7
23.83
22.61
20.96
18.79
16.05
12.78
9.1
5.16
1.17
-2.74
-6.43
-9.87
-13.14
-16.43
-20.03
-24.22
-29.25
-35.13
-41.57
-47.92
-53.17
-56.16
-55.95
-52.04
-44.66
-34.67
-23.27
-11.73
-0.96
8.55
16.67
23.43
28.85
32.85
35.28
36.15
35.62
34.11
32.13
30.19
28.63
27.55
26.95
26.71
26.77
27.08
27.47
27.73
27.54
26.6
24.8
22.23
19.09
15.63
11.99
8.21
4.3
0.28
-3.73
-7.56
-11.11
-14.37
-17.5
-20.73
-24.32
-28.42
-33.11
-38.35
-43.9
-49.28
-53.79
-56.51
-56.51
-53.16
-46.33
-36.52
-24.77
-12.38
-0.56
9.86
18.52
25.44
30.81
34.83
37.55
38.96
39.09
38.09
36.31
34.22
32.25
30.75
29.88
29.68
30.01
30.7
31.51
32.16
32.36
31.83
30.4
28.05
24.94
21.34
17.53
13.76
10.18
6.83
3.64
0.48
-2.76
-6.17
-9.75
-13.42
-17.11
-20.79
-24.58
-28.71
-33.46
-38.91
-44.9
-50.83
-55.76
-58.59
-58.36
-54.5
-47.13
-36.98
-25.3
-13.47
-2.66
6.45
13.64
19.05
22.97
25.54
26.79
26.68
25.3
23.0
20.31
17.87
16.17
15.5
15.85
17.05
18.81
20.85
22.86
24.51
25.48
25.49
24.46
22.51
19.96
17.23
14.64
12.37
10.4
8.61
6.81
4.88
2.73
0.36
-2.17
-4.84
-7.64
-10.66
-14.15
-18.3
-23.16
-28.37
-33.17
-36.45
-37.16
-34.67
-29.02
-20.88
-11.35
-1.55
7.65
15.75
22.56
28.05
32.2
34.95
36.28
36.22
34.92
32.64
29.72
26.51
23.39
20.67
18.57
17.17
16.39
16.0
15.73
15.35
14.7
13.67
12.15
10.02
7.18
3.71
-0.11
-3.83
-7.07
-9.66
-11.74
-13.72
-15.99
-18.76
-21.95
-25.27
-28.38
-31.1
-33.46
-35.71
-38.19
-41.26
-45.15
-49.88
-55.11
-60.13
-63.88
-65.25
-63.38
-57.94
-49.28
-38.32
-26.26
-14.3
-3.29
6.27
14.27
20.76
25.83
29.48
31.69
32.51
32.14
30.98
29.55
28.28
27.44
27.06
27.0
27.12
27.34
27.71
28.28
28.95
29.5
29.63
29.04
27.59
25.26
22.21
18.64
14.83
11.05
7.55
4.45
1.74
-0.8
-3.44
-6.49
-10.05
-14.02
-18.14
-22.11
-25.67
-28.82
-31.71
-34.65
-38.02
-42.09
-46.9
-52.12
-57.05
-60.73
-62.18
-60.65
-55.87
-48.14
-38.23
-27.19
-16.09
-5.81
3.11
10.49
16.41
21.07
24.66
27.27
28.91
29.62
29.54
29.0
28.38
28.08
28.35
29.27
30.74
32.62
34.74
36.96
39.07
40.84
41.97
42.22
41.48
39.91
37.91
36.03
34.71
34.15
34.14
34.25
33.99
33.18
32.08
31.26
31.32
32.46
34.24
35.57
35.07
31.51
24.32
13.7
0.68
-13.3
-26.66
-37.91
-45.94
-50.01
-49.93
-46.16
-39.93
-32.88
-26.36
-20.67
-14.82
-7.04
3.95
17.57
31.08
40.36
41.73
33.72
17.75
-2.55
-23.11
-41.02
-55.26
-66.27
-74.81
-81.11
-84.69
-84.94
-81.79
-76.14
-69.58
-63.77
-59.81
-57.77
-56.84
-55.81
-53.65
-50.01
-45.28
-40.3
-35.92
-32.55
-30.06
-27.9
-25.44
-22.31
-18.58
-14.68
-11.31
-9.12
-8.61
-10.01
-13.17
-17.64
-22.69
-27.4
-30.85
-32.29
-31.31
-27.94
-22.59
-15.91
-8.6
-1.26
5.73
12.26
18.34
24.01
29.22
33.8
37.49
40.11
41.6
42.08
41.85
41.24
40.55
40.0
39.71
39.76
40.18
40.89
41.72
42.37
42.5
41.78
40.07
37.4
33.98
30.19
26.43
23.05
20.23
17.91
15.85
13.6
10.74
7.03
2.5
-2.52
-7.56
-12.17
-16.14
-19.53
-22.6
-25.73
-29.22
-33.16
-37.41
-41.51
-44.73
-46.25
-45.35
-41.65
-35.3
-26.99
-17.73
-8.59
-0.43
6.33
11.59
15.52
18.32
20.18
21.19
21.45
21.07
20.3
19.4
18.63
18.19
18.17
18.59
19.4
20.53
21.85
23.17
24.19
24.56
23.96
22.27
19.66
16.53
13.36
10.5
7.98
5.49
2.6
-0.99
-5.29
-9.9
-14.28
-17.97
-20.89
-23.37
-26.07
-29.69
-34.66
-40.97
-48.12
-55.41
-62.19
-68.11
-73.11
-77.36
-80.97
-83.93
-85.97
-86.49
-84.37
-77.95
-65.23
-44.67
-16.18
18.04
53.5
84.47
105.87
115.04
112.65
102.17
88.3
75.2
65.25
58.92
55.43
53.64
52.73
52.24
51.88
51.22
49.69
46.85
42.64
37.69
33.05
29.82
28.55
29.01
30.24
30.98
30.31
27.96
24.46
20.74
17.64
15.49
14.02
12.5
10.15
6.54
1.83
-3.32
-7.94
-11.13
-12.53
-12.56
-12.45
-13.97
-18.87
-28.21
-41.74
-57.78
-73.24
-84.42
-87.8
-81.39
-65.71
-44.22
-22.68
-7.58
-3.95
-13.62
-34.75
-62.6
-91.13
-114.55
-128.36
-129.77
-117.94
-94.17
-62.16
-27.65
2.64
22.74
29.26
22.4
5.7
-15.25
-34.57
-47.66
-52.08
-47.77
-36.75
-22.37
-8.32
2.34
8.01
8.74
5.89
1.44
-2.77
-5.61
-6.73
-6.37
-5.07
-3.43
-2.03
-1.41
-2.02
-4.01
-6.99
-9.93
-11.39
-10.04
-5.26
2.59
12.21
21.95
30.38
36.74
41.01
43.63
45.18
46.1
46.54
46.51
45.95
44.82
43.2
41.23
39.22
37.54
36.65
36.92
38.49
41.27
44.84
48.53
51.44
52.61
51.16
46.55
38.86
28.87
18.0
7.81
-0.4
-6.07
-9.28
-10.61
-10.72
-10.16
-9.36
-8.71
-8.68
-9.7
-12.05
-15.69
-20.36
-25.7
-31.39
-37.16
-42.55
-46.8
-48.85
-47.72
-42.99
-35.08
-25.16
-14.79
-5.31
2.58
8.81
13.82
18.11
21.96
25.32
27.9
29.46
29.9
29.47
28.57
27.64
26.96
26.6
26.47
26.43
26.37
26.33
26.39
26.59
26.79
26.75
26.17
24.86
22.83
20.25
17.4
14.47
11.48
8.34
4.89
1.08
-2.97
-7.03
-10.83
-14.25
-17.37
-20.46
-23.92
-28.08
-33.0
-38.38
-43.56
-47.59
-49.55
-48.78
-45.12
-38.89
-30.82
-21.82
-12.76
-4.35
2.95
8.87
13.34
16.4
18.18
18.89
18.72
17.87
16.57
15.08
13.69
12.63
12.01
11.72
11.54
11.2
10.54
9.56
8.42
7.3
6.32
5.47
4.61
3.57
2.19
0.4
-1.82
-4.44
-7.37
-10.42
-13.39
-16.12
-18.57
-20.89
-23.37
-26.36
-30.08
-34.49
-39.24
-43.69
-47.08
-48.64
-47.81
-44.35
-38.41
-30.51
-21.44
-12.13
-3.4
4.14
10.21
14.8
18.08
20.26
21.51
21.98
21.78
21.12
20.25
19.43
18.81
18.43
18.15
17.81
17.28
16.58
15.82
15.1
14.42
13.64
12.53
10.88
8.61
5.76
2.54
-0.82
-4.15
-7.34
-10.45
-13.59
-16.93
-20.66
-24.92
-29.74
-34.99
-40.27
-44.9
-48.02
-48.76
-46.51
-41.21
-33.34
-23.89
-13.98
-4.57
3.77
10.87
16.78
21.64
25.48
28.25
29.91
30.46
30.02
28.88
27.37
25.83
24.54
23.64
23.13
22.88
22.7
22.44
22.0
21.34
20.45
19.28
17.74
15.78
13.36
10.53
7.43
4.19
0.97
-2.16
-5.19
-8.22
-11.36
-14.67
-18.22
-21.98
-25.93
-30.06
-34.29
-38.42
-41.94
-44.1
-44.03
-41.11
-35.19
-26.83
-17.1
-7.27
1.65
9.09
15.02
19.71
23.45
26.38
28.46
29.58
29.74
29.12
28.09
27.02
26.18
25.69
25.47
25.38
25.29
25.15
24.9
24.5
23.77
22.55
20.68
18.16
15.09
11.73
8.32
5.03
1.9
-1.1
-4.05
-6.95
-9.77
-12.41
-14.82
-17.01
-19.13
-21.4
-24.06
-27.32
-31.21
-35.59
-40.03
-43.86
-46.25
-46.45
-43.92
-38.66
-31.18
-22.36
-13.23
-4.61
3.02
9.54
15.04
19.69
23.56
26.67
28.98
30.55
31.52
32.13
32.7
33.47
34.66
36.37
38.52
40.93
43.27
45.24
46.63
47.39
47.58
47.26
46.44
44.99
42.75
39.59
35.59
30.95
26.02
21.08
16.28
11.52
6.57
1.2
-4.67
-10.85
-16.96
-22.57
-27.4
-31.43
-34.81
-37.67
-39.9
-41.12
-40.79
-38.54
-34.38
-28.71
-22.24
-15.62
-9.27
-3.34
2.21
7.32
11.85
15.44
17.77
18.67
18.21
16.74
14.76
12.76
11.1
9.97
9.31
8.99
8.81
8.6
8.28
7.81
7.18
6.35
5.29
3.92
2.21
0.11
-2.41
-5.36
-8.67
-12.24
-15.88
-19.34
-22.46
-25.18
-27.61
-29.98
-32.53
-35.46
-38.84
-42.6
-46.52
-50.16
-52.85
-53.82
-52.32
-47.95
-40.83
-31.68
-21.56
-11.59
-2.61
5.05
11.39
16.64
20.97
24.43
26.96
28.49
29.09
28.9
28.19
27.2
26.14
25.14
24.31
23.72
23.44
23.44
23.62
23.79
23.74
23.24
22.12
20.28
17.72
14.61
11.25
7.95
4.94
2.31
-0.09
-2.47
-5.03
-7.81
-10.7
-13.47
-15.99
-18.22
-20.33
-22.63
-25.43
-29.01
-33.47
-38.64
-44.03
-48.82
-52.02
-52.72
-50.37
-44.94
-36.98
-27.45
-17.42
-7.77
0.92
8.39
14.62
19.66
23.6
26.47
28.25
29.03
28.96
28.35
27.58
26.99
26.82
27.06
27.5
27.85
27.91
27.61
27.08
26.44
25.73
24.85
23.54
21.63
19.07
16.02
12.8
9.74
7.07
4.82
2.81
0.75
-1.66
-4.56
-7.87
-11.26
-14.32
-16.78
-18.58
-20.02
-21.47
-23.3
-25.64
-28.39
-31.35
-34.32
-37.16
-39.71
-41.65
-42.36
-41.09
-37.19
-30.33
-20.68
-8.81
4.4
17.94
30.83
42.2
51.42
58.11
62.28
64.2
64.4
63.51
62.17
60.94
60.2
60.0
59.99
59.51
57.81
54.44
49.49
43.67
37.95
33.14
29.56
27.01
24.91
22.71
20.23
17.67
15.6
14.66
15.31
17.71
21.71
26.88
32.73
38.75
44.43
49.34
52.99
54.87
54.54
51.63
45.99
37.73
27.17
14.68
0.5
-15.27
-32.66
-51.5
-71.13
-90.11
-106.33
-117.47
-121.7
-118.42
-108.53
-94.29
-78.61
-64.18
-52.78
-45.03
-40.54
-38.38
-37.53
-37.21
-36.91
-36.31
-35.09
-33.01
-29.97
-26.09
-21.69
-17.27
-13.25
-9.86
-7.12
-4.91
-3.06
-1.58
-0.6
-0.34
-0.99
-2.58
-4.94
-7.72
-10.53
-13.03
-15.08
-16.71
-18.11
-19.53
-21.11
-22.93
-24.87
-26.77
-28.46
-29.93
-31.3
-32.83
-34.75
-37.02
-39.23
-40.57
-40.13
-37.21
-31.63
-23.79
-14.63
-5.24
3.47
10.88
16.83
21.39
24.8
27.25
28.87
29.68
29.7
29.01
27.82
26.44
25.2
24.41
24.17
24.42
24.99
25.67
26.34
26.93
27.37
27.46
26.91
25.37
22.6
18.66
13.86
8.71
3.68
-0.86
-4.81
-8.21
-11.19
-13.84
-16.25
-18.47
-20.59
-22.73
-25.06
-27.82
-31.27
-35.61
-40.88
-46.79
-52.67
-57.5
-60.17
-59.73
-55.79
-48.57
-38.89
-27.87
-16.67
-6.15
3.12
10.96
17.35
22.38
26.14
28.8
30.5
31.45
31.81
31.68
31.14
30.3
29.33
28.47
27.97
27.98
28.47
29.29
30.12
30.68
30.7
30.01
28.47
26.03
22.69
18.53
13.74
8.62
3.48
-1.42
-5.88
-9.87
-13.46
-16.79
-20.07
-23.47
-27.14
-31.18
-35.72
-40.74
-46.08
-51.24
-55.43
-57.67
-57.12
-53.44
-46.96
-38.63
-29.64
-21.07
-13.55
-7.17
-1.71
3.11
7.34
10.82
13.22
14.31
14.13
13.05
11.65
10.52
10.05
10.34
11.23
12.38
13.51
14.46
15.19
15.72
16.03
15.98
15.39
14.08
11.94
9.05
5.61
1.94
-1.67
-5.03
-8.13
-11.08
-14.09
-17.39
-21.13
-25.39
-30.08
-34.87
-39.2
-42.26
-43.2
-41.41
-36.72
-29.52
-20.71
-11.31
-2.24
5.97
13.19
19.46
24.88
29.39
32.86
35.17
36.29
36.38
35.69
34.54
33.2
31.87
30.65
29.56
28.53
27.47
26.32
25.06
23.73
22.35
20.84
18.97
16.47
13.14
9.0
4.32
-0.47
-4.94
-8.86
-12.26
-15.38
-18.59
-22.22
-26.46
-31.26
-36.38
-41.29
-45.24
-47.43
-47.24
-44.4
-39.17
-32.26
-24.58
-16.93
-9.79
-3.29
2.66
8.11
12.93
16.87
19.66
21.16
21.51
21.09
20.39
19.88
19.81
20.22
20.92
21.64
22.12
22.23
21.99
21.5
20.85
20.0
18.85
17.2
14.91
11.96
8.47
4.71
0.95
-2.59
-5.89
-9.05
-12.26
-15.73
-19.61
-23.94
-28.65
-33.58
-38.34
-42.37
-44.88
-45.06
-42.3
-36.51
-28.14
-18.19
-7.86
1.81
10.15
16.98
22.42
26.69
29.95
32.2
33.38
33.54
32.85
31.63
30.25
28.98
27.92
27.07
26.39
25.81
25.32
24.92
24.52
23.98
23.09
21.69
19.72
17.2
14.24
10.94
7.44
3.86
0.33
-3.0
-6.04
-8.82
-11.49
-14.29
-17.43
-21.05
-25.15
-29.66
-34.4
-39.07
-43.23
-46.26
-47.43
-46.1
-41.99
-35.31
-26.76
-17.38
-8.18
0.11
7.15
12.92
17.53
21.03
23.39
24.6
24.74
24.1
23.1
22.11
21.35
20.87
20.53
20.21
19.85
19.51
19.27
19.13
18.99
18.64
17.86
16.46
14.35
11.58
8.3
4.72
1.13
-2.24
-5.22
-7.76
-9.98
-12.11
-14.42
-17.21
-20.67
-24.82
-29.42
-34.01
-37.84
-40.1
-40.03
-37.21
-31.64
-23.85
-14.74
-5.38
3.3
10.7
16.62
21.2
24.74
27.47
29.44
30.55
30.68
29.82
28.27
26.49
25.01
24.22
24.14
24.53
24.96
25.07
24.69
23.85
22.69
21.29
19.56
17.32
14.42
10.84
6.74
2.44
-1.73
-5.57
-9.03
-12.23
-15.37
-18.67
-22.34
-26.48
-31.13
-36.11
-41.05
-45.33
-48.23
-49.03
-47.27
-42.85
-36.14
-27.88
-18.96
-10.25
-2.34
4.48
10.22
15.02
18.99
22.11
24.27
25.31
25.18
24.05
22.27
20.34
18.69
17.65
17.3
17.53
18.11
18.76
19.24
19.42
19.18
18.5
17.37
15.79
13.8
11.43
8.74
5.81
2.7
-0.52
-3.83
-7.11
-10.22
-13.03
-15.44
-17.52
-19.57
-22.02
-25.29
-29.52
-34.46
-39.35
-43.11
-44.65
-43.24
-38.75
-31.74
-23.23
-14.32
-5.87
1.71
8.42
14.44
19.92
24.79
28.82
31.7
33.35
33.91
33.77
33.35
33.0
32.85
32.85
32.89
32.85
32.72
32.51
32.21
31.73
30.9
29.56
27.69
25.34
22.77
20.21
17.88
15.81
13.87
11.78
9.26
6.12
2.4
-1.66
-5.74
-9.52
-12.85
-15.77
-18.48
-21.28
-24.48
-28.25
-32.54
-36.95
-40.7
-42.84
-42.53
-39.31
-33.39
-25.51
-16.75
-8.14
-0.37
6.3
11.93
16.69
20.63
23.72
25.79
26.79
26.82
26.17
25.26
24.41
23.84
23.61
23.66
23.88
24.18
24.43
24.45
23.97
22.7
20.41
17.03
12.66
7.49
1.8
-4.09
-9.84
-15.04
-19.35
-22.5
-24.52
-25.7
-26.55
-27.55
-29.04
-31.12
-33.73
-36.74
-40.02
-43.33
-46.26
-48.21
-48.42
-46.25
-41.45
-34.29
-25.54
-16.2
-7.26
0.6
7.13
12.36
16.51
19.73
22.08
23.47
23.9
23.49
22.53
21.41
20.49
20.0
19.96
20.27
20.75
21.25
21.63
21.78
21.59
20.92
19.62
17.62
14.98
11.87
8.56
5.27
2.14
-0.83
-3.75
-6.7
-9.67
-12.55
-15.21
-17.65
-20.06
-22.78
-26.17
-30.42
-35.42
-40.68
-45.43
-48.79
-49.98
-48.52
-44.36
-37.84
-29.64
-20.56
-11.34
-2.61
5.23
11.91
17.32
21.4
24.16
25.7
26.18
25.84
24.95
23.84
22.8
22.06
21.75
21.84
22.2
22.63
22.95
23.04
22.83
22.29
21.35
19.92
17.93
15.36
12.35
9.17
6.08
3.29
0.81
-1.48
-3.75
-6.12
-8.61
-11.2
-13.86
-16.64
-19.63
-22.93
-26.62
-30.74
-35.17
-39.64
-43.6
-46.23
-46.69
-44.33
-39.02
-31.21
-21.88
-12.18
-3.08
4.82
11.37
16.66
20.87
24.07
26.27
27.46
27.66
27.04
25.89
24.58
23.46
22.78
22.61
22.87
23.39
23.92
24.28
24.36
24.09
23.45
22.39
20.86
18.86
16.47
13.85
11.21
8.66
6.17
3.57
0.64
-2.7
-6.34
-9.99
-13.33
-16.12
-18.39
-20.34
-22.28
-24.49
-27.24
-30.66
-34.66
-38.93
-42.78
-45.31
-45.57
-42.97
-37.49
-29.81
-20.99
-12.14
-4.08
2.86
8.71
13.65
17.76
20.98
23.16
24.23
24.28
23.59
22.56
21.55
20.8
20.43
20.44
20.78
21.33
21.86
22.11
21.8
20.7
18.74
16.02
12.79
9.33
5.9
2.63
-0.42
-3.26
-5.91
-8.37
-10.59
-12.55
-14.22
-15.66
-16.99
-18.39
-20.05
-22.2
-25.0
-28.55
-32.72
-37.11
-40.96
-43.29
-43.17
-40.04
-33.96
-25.63
-16.21
-6.88
1.54
8.68
14.58
19.48
23.51
26.63
28.68
29.54
29.25
28.11
26.57
25.1
24.01
23.42
23.25
23.36
23.58
23.82
23.98
23.96
23.62
22.76
21.2
18.88
15.84
12.3
8.59
4.98
1.64
-1.38
-4.16
-6.86
-9.57
-12.27
-14.89
-17.29
-19.43
-21.4
-23.43
-25.91
-29.15
-33.36
-38.43
-43.87
-48.84
-52.34
-53.41
-51.51
-46.67
-39.44
-30.76
-21.62
-12.83
-4.88
2.03
7.91
12.8
16.71
19.62
21.52
22.47
22.6
22.13
21.34
20.56
20.01
19.85
20.12
20.72
21.51
22.32
23.02
23.48
23.61
23.3
22.46
21.03
19.05
16.68
14.16
11.83
9.95
8.61
7.68
6.86
5.71
3.95
1.52
-1.32
-4.16
-6.64
-8.68
-10.5
-12.52
-15.22
-18.89
-23.53
-28.81
-34.1
-38.58
-41.43
-41.94
-39.78
-35.14
-28.62
-21.08
-13.37
-6.08
0.54
6.44
11.65
16.09
19.62
22.06
23.37
