-23.35
-25.6
-27.75
-29.21
-29.36
-27.68
-24.07
-18.89
-12.88
-6.9
-1.69
2.39
5.34
7.44
9.04
10.35
11.46
12.29
12.81
13.08
13.28
13.61
14.24
15.22
16.46
17.82
19.11
20.22
21.06
21.62
21.87
21.84
21.56
21.05
20.34
19.37
18.09
16.43
14.38
11.99
9.36
6.55
3.55
0.26
-3.49
-7.83
-12.76
-18.12
-23.68
-29.1
-34.13
-38.5
-41.9
-43.92
-44.1
-41.99
-37.4
-30.49
-21.83
-12.26
-2.66
6.27
14.08
20.61
25.81
29.73
32.4
33.91
34.4
34.09
33.24
32.11
30.88
29.68
28.62
27.79
27.19
26.77
26.37
25.77
24.75
23.2
21.15
18.76
16.26
13.84
11.63
9.64
7.86
6.18
4.52
2.78
0.91
-1.14
-3.33
-5.62
-7.95
-10.34
-12.88
-15.75
-19.16
-23.25
-27.9
-32.69
-36.95
-39.82
-40.55
-38.7
-34.29
-27.77
-19.89
-11.53
-3.47
3.73
9.74
14.44
17.86
20.11
21.32
21.54
20.82
19.19
16.84
14.05
11.27
9.04
7.75
7.64
8.63
10.42
12.57
14.64
16.24
17.19
17.44
17.08
16.25
15.07
13.54
11.64
9.36
6.77
4.02
1.33
-1.19
-3.51
-5.75
-8.1
-10.75
-13.83
-17.45
-21.68
-26.51
-31.8
-37.09
-41.64
-44.54
-44.98
-42.58
-37.45
-30.22
-21.77
-13.02
-4.69
2.78
9.09
14.07
17.6
19.6
20.14
19.48
18.05
16.41
15.12
14.5
14.6
15.19
15.87
16.3
16.27
15.77
14.92
13.85
12.62
11.21
9.58
7.74
5.7
3.53
1.27
-1.02
-3.26
-5.38
-7.29
-8.94
-10.43
-11.9
-13.55
-15.55
-18.0
-20.88
-24.05
-27.17
-29.77
-31.25
-31.06
-28.82
-24.55
-18.66
-11.84
-4.84
1.7
7.4
12.03
15.51
17.87
19.17
19.64
19.58
19.36
19.24
19.29
19.47
19.68
19.87
20.05
20.28
20.55
20.77
20.76
20.4
19.61
18.44
16.91
15.07
12.95
10.57
8.01
5.38
2.79
0.32
-1.99
-4.15
-6.16
-8.03
-9.85
-11.75
-13.93
-16.56
-19.68
-23.11
-26.39
-28.88
-29.92
-28.99
-25.88
-20.78
-14.26
-7.12
-0.16
6.0
11.1
15.16
18.33
20.74
22.44
23.37
23.49
22.9
21.85
20.65
19.65
19.05
18.97
19.38
20.15
21.09
22.0
22.66
22.91
22.67
21.89
20.56
18.66
16.21
13.31
10.19
7.09
4.28
1.82
-0.36
-2.46
-4.63
-6.87
-9.04
-10.97
-12.55
-13.92
-15.37
-17.3
-19.99
-23.48
-27.52
-31.57
-34.95
-36.92
-36.89
-34.58
-30.05
-23.8
-16.62
-9.4
-2.85
2.63
7.02
10.54
13.43
15.79
17.54
18.49
18.56
17.89
16.81
15.75
15.02
14.7
14.71
14.81
14.82
14.68
14.39
13.99
13.47
12.76
11.76
10.41
8.75
6.94
5.13
3.49
2.01
0.63
-0.85
-2.6
-4.68
-7.07
-9.6
-12.06
-14.28
-16.18
-17.76
-19.13
-20.46
-21.94
-23.8
-26.15
-28.98
-32.03
-34.84
-36.76
-37.2
-35.71
-32.21
-26.99
-20.58
-13.67
-6.89
-0.69
4.68
9.17
12.82
15.72
17.86
19.23
19.88
19.9
19.54
19.1
18.85
18.96
19.38
19.96
20.49
20.81
20.85
20.63
20.21
19.66
19.07
18.46
17.85
17.18
16.36
15.35
14.09
12.61
10.98
9.28
7.53
5.69
3.72
1.58
-0.66
-2.85
-4.85
-6.59
-8.15
-9.74
-11.61
-13.94
-16.75
-19.88
-23.03
-25.84
-27.94
-28.97
-28.63
-26.77
-23.37
-18.62
-12.89
-6.7
-0.57
5.05
9.87
13.74
16.65
18.58
19.58
19.69
19.07
17.92
16.56
15.28
14.33
13.83
13.79
14.12
14.72
15.48
16.28
17.0
17.5
17.63
17.23
16.21
14.59
12.46
10.02
7.47
4.96
2.49
-0.01
-2.62
-5.31
-7.96
-10.31
-12.17
-13.48
-14.36
-15.08
-16.02
-17.5
-19.7
-22.58
-25.86
-29.02
-31.43
-32.44
-31.61
-28.77
-24.12
-18.13
-11.44
-4.71
1.53
6.92
11.28
14.58
16.86
18.26
18.87
18.81
18.25
17.38
16.46
15.77
15.47
15.58
16.0
16.52
16.96
17.22
17.27
17.16
16.84
16.27
15.3
13.83
11.83
9.39
6.68
3.91
1.27
-1.18
-3.48
-5.74
-8.06
-10.42
-12.66
-14.58
-15.99
-16.85
-17.37
-17.88
-18.78
-20.37
-22.75
-25.75
-28.96
-31.8
-33.65
-34.0
-32.55
-29.27
-24.43
-18.48
-12.05
-5.74
-0.06
4.68
8.38
11.13
13.1
14.46
15.29
15.65
15.57
15.16
14.62
14.19
14.04
14.2
14.52
14.78
14.77
14.35
13.58
12.56
11.4
10.12
8.67
6.97
4.99
2.83
0.69
-1.2
-2.67
-3.69
-4.39
-4.96
-5.63
-6.53
-7.72
-9.12
-10.59
-11.97
-13.11
-13.99
-14.7
-15.4
-16.32
-17.66
-19.59
-22.15
-25.28
-28.67
-31.83
-34.07
-34.75
-33.46
-30.1
-25.05
-18.89
-12.34
-5.99
-0.21
4.84
9.14
12.73
15.61
17.73
19.06
19.62
19.52
19.02
18.43
18.04
18.04
18.46
19.2
20.08
20.91
21.56
21.98
22.18
22.2
22.13
21.96
21.66
21.13
20.27
19.02
17.35
15.34
13.12
10.79
8.43
6.03
3.53
0.83
-2.1
-5.19
-8.29
-11.24
-13.91
-16.25
-18.35
-20.33
-22.36
-24.57
-27.11
-30.03
-33.24
-36.43
-39.04
-40.36
-39.75
-36.88
-31.88
-25.29
-17.95
-10.69
-4.16
1.34
5.74
9.14
11.71
13.5
14.55
14.9
14.66
14.01
13.22
12.56
12.26
12.39
12.91
13.67
14.5
15.26
15.89
16.32
16.47
16.23
15.54
14.4
12.89
11.16
9.38
7.63
5.92
4.19
2.4
0.53
-1.38
-3.3
-5.23
-7.22
-9.28
-11.38
-13.35
-15.02
-16.26
-17.13
-17.91
-19.03
-20.88
-23.62
-27.05
-30.63
-33.61
-35.29
-35.2
-33.18
-29.37
-24.13
-17.91
-11.24
-4.69
1.28
6.31
10.25
13.11
15.05
16.23
16.74
16.63
15.97
14.98
13.97
13.28
13.08
13.4
14.05
14.83
15.63
16.39
17.08
17.58
17.72
17.24
16.02
14.11
11.76
9.35
7.21
5.5
4.21
3.1
1.89
0.31
-1.74
-4.21
-6.88
-9.49
-11.84
-13.83
-15.51
-17.04
-18.64
-20.54
-22.92
-25.84
-29.15
-32.42
-34.98
-36.08
-35.18
-32.11
-27.2
-21.15
-14.76
-8.68
-3.31
1.19
4.82
7.61
9.57
10.71
11.17
11.11
10.74
10.28
9.88
9.71
9.86
10.39
11.27
12.38
13.5
14.44
15.08
15.39
15.43
15.19
14.55
13.39
11.61
9.36
6.97
4.82
3.2
2.08
1.18
0.11
-1.43
-3.54
-6.08
-8.78
-11.37
-13.72
-15.81
-17.78
-19.79
-22.04
-24.68
-27.7
-30.87
-33.75
-35.77
-36.32
-34.92
-31.43
-26.02
-19.2
-11.66
-4.12
2.87
9.0
14.23
18.63
22.27
25.14
27.13
28.21
28.45
28.09
27.48
26.98
26.8
26.98
27.41
27.9
28.27
28.45
28.42
28.2
27.74
26.94
25.63
23.71
21.17
18.13
14.88
11.69
8.77
6.15
3.69
1.17
-1.65
-4.81
-8.2
-11.55
-14.54
-17.01
-18.99
-20.74
-22.64
-25.08
-28.27
-32.23
-36.64
-41.05
-44.78
-47.17
-47.67
-45.98
-42.18
-36.67
-30.11
-23.24
-16.6
-10.5
-4.95
0.1
4.67
8.61
11.68
13.61
14.36
14.16
13.49
12.92
12.89
13.55
14.74
16.1
17.29
18.12
18.64
18.98
19.27
19.4
19.11
18.09
16.21
13.62
10.75
8.15
6.17
4.82
3.83
2.76
1.27
-0.75
-3.13
-5.55
-7.7
-9.42
-10.76
-11.92
-13.21
-14.9
-17.14
-19.8
-22.49
-24.54
-25.21
-23.86
-20.21
-14.5
-7.44
-0.01
6.9
12.78
17.64
21.92
26.16
30.63
35.13
39.1
41.9
43.24
43.41
43.27
43.84
45.8
49.2
53.34
57.14
59.62
60.36
59.7
58.55
57.98
58.75
60.91
63.86
66.63
68.33
68.57
67.63
66.43
66.3
68.8
75.36
86.67
102.01
118.57
131.43
134.55
122.62
93.22
48.25
-6.27
-61.95
-110.64
-146.92
-169.1
-178.86
-179.63
-174.97
-167.57
-159.13
-150.83
-143.78
-138.97
-136.92
-137.17
-138.17
-137.74
-134.03
-126.27
-115.13
-102.39
-90.19
-80.06
-72.27
-65.8
-58.84
-49.58
-37.05
-21.59
-4.76
11.25
24.4
33.58
38.92
41.52
42.85
44.11
45.77
47.71
49.39
50.31
50.11
48.69
46.15
42.71
38.78
34.8
31.15
27.99
25.19
22.38
19.19
15.56
11.84
8.74
7.02
7.21
9.33
12.99
17.56
22.34
26.86
30.85
34.29
37.24
39.76
41.85
43.43
44.4
44.62
44.08
42.87
41.15
39.07
36.8
34.44
32.14
30.1
28.57
27.78
27.79
28.42
29.28
29.86
29.81
28.98
27.51
25.69
23.8
22.0
20.26
18.49
16.54
14.34
11.9
9.3
6.58
3.72
0.63
-2.79
-6.67
-11.07
-15.95
-21.15
-26.27
-30.75
-33.92
-35.22
-34.39
-31.58
-27.37
-22.52
-17.72
-13.38
-9.6
-6.32
-3.45
-1.03
0.8
1.91
2.19
1.69
0.59
-0.86
-2.33
-3.54
-4.26
-4.41
-4.09
-3.47
-2.79
-2.14
-1.56
-1.04
-0.64
-0.51
-0.91
-1.98
-3.74
-6.02
-8.52
-10.92
-13.02
-14.74
-16.18
-17.5
-18.93
-20.73
-23.08
-26.06
-29.62
-33.48
-37.17
-40.1
-41.6
-41.15
-38.52
-33.89
-27.79
-20.96
-14.12
-7.78
-2.16
2.73
6.96
10.55
13.41
15.36
16.24
16.06
15.04
13.54
11.99
10.76
10.04
9.81
9.89
10.03
10.04
9.81
9.38
8.75
7.95
6.95
5.73
4.26
2.52
0.54
-1.63
-3.96
-6.35
-8.71
-10.93
-12.96
-14.87
-16.85
-19.12
-21.93
-25.36
-29.37
-33.7
-37.87
-41.2
-42.98
-42.62
-39.87
-34.98
-28.57
-21.49
-14.49
-8.08
-2.4
2.6
7.01
10.83
13.93
16.16
17.45
17.85
17.56
16.85
15.94
15.03
14.27
13.77
13.6
13.72
14.01
14.22
14.1
13.51
12.42
10.94
9.28
7.55
5.81
4.03
2.19
0.29
-1.63
-3.56
-5.56
-7.76
-10.28
-13.14
-16.29
-19.68
-23.32
-27.26
-31.49
-35.79
-39.62
-42.24
-42.85
-41.02
-36.78
-30.66
-23.51
-16.18
-9.23
-2.88
2.9
8.18
12.94
16.98
20.06
22.03
22.93
23.01
22.6
22.02
21.47
21.07
20.85
20.82
20.92
21.07
21.11
20.86
20.2
19.12
17.69
16.03
14.2
12.15
9.79
7.04
3.97
0.71
-2.52
-5.58
-8.42
-11.14
-13.92
-16.89
-20.18
-23.86
-27.88
-32.09
-36.15
-39.52
-41.54
-41.61
-39.37
-34.89
-28.6
-21.2
-13.44
-5.97
0.79
6.62
11.46
15.29
18.17
20.16
21.32
21.76
21.59
20.97
20.1
19.22
18.53
18.14
18.04
18.11
18.15
18.02
17.65
17.04
16.2
15.09
13.56
11.45
8.68
5.33
1.67
-1.91
-5.08
-7.67
-9.72
-11.43
-13.04
-14.78
-16.81
-19.26
-22.15
-25.39
-28.68
-31.52
-33.26
-33.29
-31.2
-26.97
-20.98
-13.86
-6.41
0.67
6.87
11.95
15.89
18.75
20.62
21.56
21.64
20.97
19.81
18.49
17.36
16.61
16.31
16.31
16.42
16.43
16.2
15.68
14.89
13.87
12.69
11.38
9.92
8.23
6.2
3.76
0.92
-2.14
-5.17
-7.94
-10.32
-12.32
-14.09
-15.82
-17.71
-19.91
-22.55
-25.67
-29.14
-32.53
-35.18
-36.24
-35.06
-31.44
-25.72
-18.75
-11.53
-4.85
0.88
5.63
9.6
12.93
15.63
17.63
18.83
19.3
19.23
18.87
18.48
18.2
18.12
18.21
18.47
18.82
19.19
19.41
19.34
18.83
17.83
16.39
14.61
12.62
10.48
8.2
5.72
2.98
0.03
-3.03
-5.99
-8.67
-10.97
-12.97
-14.87
-16.93
-19.4
-22.41
-25.96
-29.83
-33.57
-36.56
-38.07
-37.47
-34.49
-29.28
-22.48
-14.93
-7.47
-0.69
5.17
10.11
14.23
17.57
20.09
21.7
22.3
21.93
20.77
19.14
17.43
16.0
15.04
14.59
14.51
14.58
14.64
14.5
14.09
13.34
12.22
10.75
8.99
6.98
4.75
2.27
-0.46
-3.38
-6.26
-8.84
-10.89
-12.37
-13.48
-14.6
-16.08
-18.21
-21.07
-24.55
-28.39
-32.19
-35.45
-37.55
-37.92
-36.13
-32.17
-26.4
-19.55
-12.44
-5.78
-0.03
4.74
8.61
11.76
14.27
16.09
17.13
17.35
16.88
15.97
14.94
14.07
13.49
13.18
12.99
12.78
12.41
11.86
11.17
10.44
9.81
9.4
9.24
9.28
9.3
9.0
8.17
6.73
4.85
2.91
1.32
0.38
0.14
0.38
0.75
0.79
0.1
-1.6
-4.33
-7.8
-11.42
-14.36
-15.86
-15.42
-13.01
-9.09
-4.33
0.67
5.57
10.28
14.78
18.99
22.68
25.67
28.16
30.92
35.21
42.58
54.33
70.87
91.38
113.68
134.62
151.13
161.13
164.35
162.39
157.96
153.64
150.78
149.09
146.9
142.17
133.28
119.45
100.64
77.36
50.65
22.06
-6.4
-33.01
-57.11
-79.71
-103.08
-129.45
-159.41
-190.99
-220.05
-241.83
-252.86
-252.19
-241.35
-223.27
-200.94
-176.59
-151.6
-127.0
-103.85
-83.34
-66.41
-53.4
-43.85
-36.63
-30.44
-24.35
-18.13
-12.21
-7.34
-4.16
-2.73
-2.53
-2.62
-2.04
-0.26
2.73
6.36
9.77
12.12
12.96
12.31
10.63
8.56
6.62
5.04
3.7
2.27
0.39
-2.09
-5.13
-8.49
-11.93
-15.36
-18.83
-22.52
-26.56
-30.87
-35.08
-38.46
-40.18
-39.52
-36.18
-30.44
-23.05
-14.99
-7.12
0.03
6.32
11.82
16.62
20.66
23.8
25.85
26.81
26.82
26.22
25.38
24.57
23.92
23.44
23.09
22.79
22.57
22.4
22.3
22.16
21.85
21.18
20.01
18.21
15.78
12.85
9.63
6.34
3.16
0.08
-3.0
-6.3
-10.04
-14.37
-19.31
-24.73
-30.3
-35.49
-39.64
-42.06
-42.16
-39.7
-34.84
-28.12
-20.29
-12.11
-4.17
3.1
9.42
14.57
18.4
20.81
21.86
21.75
20.79
19.33
17.71
16.23
15.16
14.63
14.67
15.19
16.0
16.87
17.56
17.87
17.59
16.53
14.54
11.58
7.79
3.44
-1.11
-5.52
-9.57
-13.22
-16.62
-19.99
-23.62
-27.75
-32.51
-37.82
-43.37
-48.53
-52.47
-54.36
-53.62
-50.13
-44.3
-36.92
-28.94
-21.2
-14.24
-8.28
-3.35
0.63
3.68
5.77
6.92
7.25
6.98
6.42
5.86
5.53
5.53
5.85
6.41
7.05
7.65
8.13
8.47
8.7
8.86
9.0
9.09
9.04
8.7
7.93
6.67
4.95
2.92
0.72
-1.54
-3.86
-6.34
-9.15
-12.46
-16.39
-20.92
-25.86
-30.75
-34.88
-37.41
-37.6
-35.05
-29.89
-22.77
-14.66
-6.52
0.95
7.44
12.94
17.58
21.49
24.72
27.31
29.28
30.79
32.01
33.15
34.39
35.83
37.45
39.14
40.72
42.01
42.89
43.37
43.47
43.26
42.65
41.54
39.75
37.25
34.21
30.97
27.88
25.22
22.93
20.78
18.41
15.57
12.19
8.4
4.42
0.43
-3.37
-6.75
-9.39
-10.83
-10.65
-8.57
-4.58
0.96
7.5
14.4
21.13
27.29
32.62
36.86
39.76
41.12
40.83
39.0
36.03
32.5
29.02
26.09
23.99
22.77
22.25
22.17
22.19
22.06
21.58
20.63
19.16
17.17
14.71
11.82
8.61
5.23
1.84
-1.39
-4.35
-7.05
-9.57
-12.03
-14.55
-17.2
-20.06
-23.24
-26.81
-30.75
-34.78
-38.29
-40.42
-40.29
-37.31
-31.48
-23.43
-14.2
-4.9
3.68
11.24
17.83
23.58
28.42
32.08
34.19
34.59
33.45
31.29
28.8
26.54
24.86
23.79
23.24
23.03
23.0
23.03
22.94
22.62
21.94
20.86
19.38
17.43
14.92
11.7
7.62
2.68
-2.96
-9.0
-15.07
-20.83
-26.04
-30.63
-34.66
-38.35
-42.02
-45.97
-50.31
-54.79
-58.82
-61.58
-62.32
-60.62
-56.6
-50.82
-44.08
-37.17
-30.68
-24.92
-20.08
-16.29
-13.65
-12.23
-11.97
-12.61
-13.71
-14.76
-15.32
-15.21
-14.58
-13.78
-13.2
-12.9
-12.55
-11.32
-8.21
-2.34
6.62
18.29
31.67
45.41
58.31
69.63
79.3
87.82
96.02
104.73
114.53
125.38
136.36
145.5
149.91
146.57
133.33
109.95
78.68
43.76
10.35
-17.24
-36.59
-47.7
-52.39
-53.24
-52.63
-52.08
-52.23
-53.09
-54.41
-55.88
-57.29
-58.43
-59.09
-59.17
-59.01
-59.56
-62.19
-67.91
-76.5
-86.09
-93.52
-95.57
-90.38
-78.3
-61.65
-43.57
-26.62
-12.08
0.01
10.08
18.25
24.15
27.37
27.86
26.32
23.85
21.4
19.43
17.79
15.89
13.18
9.39
4.7
-0.36
-5.05
-8.66
-10.57
-10.48
-8.42
-4.7
0.12
5.4
10.61
15.42
19.72
23.55
26.88
29.56
31.33
31.88
31.09
29.13
26.47
23.72
21.43
19.91
19.2
19.11
19.37
19.78
20.2
20.54
20.63
20.26
19.25
17.5
15.05
12.08
8.79
5.37
1.92
-1.47
-4.77
-7.95
-11.02
-14.09
-17.32
-20.85
-24.65
-28.41
-31.57
-33.39
-33.23
-30.75
-26.05
-19.68
-12.44
-5.15
1.58
7.46
12.49
16.74
20.27
23.01
24.78
25.43
24.99
23.71
22.02
20.4
19.15
18.39
18.02
17.82
17.62
17.3
16.91
16.54
16.22
15.85
15.17
13.83
11.57
8.38
4.53
0.49
-3.19
-6.19
-8.5
-10.41
-12.42
-14.97
-18.3
-22.37
-26.82
-31.11
-34.61
-36.71
-36.92
-34.99
-30.96
-25.17
-18.2
-10.74
-3.41
3.32
9.2
14.12
18.05
20.99
22.98
24.08
24.43
24.19
23.54
22.67
21.74
20.92
20.36
20.11
20.12
20.19
20.09
19.58
18.55
17.04
15.2
13.18
11.02
8.7
6.13
3.33
0.38
-2.56
-5.34
-7.88
-10.22
-12.5
-14.91
-17.61
-20.74
-24.37
-28.44
-32.7
-36.67
-39.7
-41.05
-40.18
-36.92
-31.56
-24.73
-17.2
-9.63
-2.45
4.15
10.11
15.34
19.68
22.87
24.75
25.35
24.89
23.79
22.49
21.33
20.52
20.09
20.01
20.23
20.67
21.23
21.71
21.88
21.51
20.5
18.87
16.74
14.32
11.69
8.88
5.93
2.84
-0.27
-3.25
-5.99
-8.47
-10.8
-13.2
-15.87
-19.01
-22.65
-26.75
-31.11
-35.41
-39.13
-41.61
-42.17
-40.3
-35.86
-29.15
-20.95
-12.19
-3.79
3.62
9.72
14.45
17.89
20.08
21.1
21.06
20.19
18.84
17.36
16.07
15.11
14.5
14.13
13.9
13.72
13.55
13.36
13.1
12.69
12.07
11.12
9.76
7.94
5.64
2.98
0.11
-2.78
-5.48
-7.9
-10.05
-12.1
-14.26
-16.81
-19.94
-23.69
-27.91
-32.17
-35.81
-38.02
-38.08
-35.58
-30.63
-23.81
-16.07
-8.36
-1.38
4.5
9.24
12.93
15.64
17.34
18.0
17.76
16.87
15.76
14.81
14.27
14.15
14.29
14.43
14.4
14.08
13.54
12.88
12.13
11.29
10.26
8.9
7.09
4.85
2.29
-0.42
-3.07
-5.52
-7.68
-9.57
-11.31
-13.09
-15.14
-17.69
-20.86
-24.55
-28.44
-31.98
-34.48
-35.28
-33.98
-30.55
-25.34
-18.96
-12.09
-5.26
1.19
7.07
12.26
16.58
19.81
21.73
22.28
21.66
20.21
18.43
16.76
15.5
14.75
14.44
14.42
14.52
14.62
14.64
14.55
14.32
13.92
13.23
12.17
10.65
8.64
6.12
3.16
-0.12
-3.55
-6.92
-10.07
-12.9
-15.48
-18.04
-20.85
-24.15
-27.98
-32.12
-36.07
-39.19
-40.78
-40.32
-37.58
-32.69
-26.1
-18.5
-10.63
-3.11
3.65
9.45
14.24
18.02
20.79
22.5
23.12
22.77
21.7
20.29
18.96
18.07
17.8
18.11
18.8
19.56
20.06
20.09
19.56
18.52
17.12
15.52
13.82
12.0
10.01
7.73
5.11
2.2
-0.87
-3.91
-6.79
-9.43
-11.81
-14.03
-16.21
-18.54
-21.23
-24.38
-27.93
-31.54
-34.57
-36.27
-35.94
-33.21
-28.15
-21.31
-13.5
-5.58
1.75
8.11
13.35
17.46
20.46
22.31
23.01
22.63
21.4
19.68
17.91
16.5
15.67
15.42
15.57
15.84
16.01
15.92
15.57
15.04
14.42
13.75
12.97
11.94
10.5
8.52
5.99
3.02
-0.2
-3.41
-6.42
-9.06
-11.31
-13.24
-15.01
-16.85
-19.0
-21.67
-24.96
-28.8
-32.9
-36.72
-39.55
-40.66
-39.53
-35.99
-30.35
-23.33
-15.84
-8.67
-2.35
2.93
7.26
10.75
13.44
15.26
16.11
15.97
15.01
13.58
12.09
10.9
10.2
10.03
10.32
10.94
11.8
12.76
13.66
14.29
14.39
13.75
12.3
10.12
7.42
4.5
1.62
-1.1
-3.65
-6.12
-8.64
-11.31
-14.15
-17.16
-20.27
-23.47
-26.7
-29.86
-32.68
-34.71
-35.4
-34.25
-31.03
-25.91
-19.4
-12.25
-5.17
1.35
7.04
11.83
15.7
18.6
20.48
21.33
21.25
20.45
19.23
17.91
16.76
15.99
15.62
15.6
15.78
15.93
15.87
15.47
14.67
13.49
11.99
10.25
8.31
6.23
3.97
1.53
-1.12
-3.94
-6.86
-9.78
-12.53
-15.01
-17.23
-19.33
-21.59
-24.37
-27.93
-32.19
-36.68
-40.48
-42.51
-41.91
-38.34
-32.13
-24.12
-15.35
-6.73
1.15
7.98
13.64
18.06
21.17
22.95
23.5
23.1
22.12
20.98
19.97
19.26
18.92
18.93
19.26
19.87
20.64
21.42
21.94
21.94
21.29
20.04
18.39
16.63
14.97
13.41
11.83
9.99
7.71
4.97
1.86
-1.44
-4.72
-7.82
-10.73
-13.52
-16.42
-19.71
-23.64
-28.23
-33.27
-38.13
-41.99
-43.98
-43.47
-40.21
-34.49
-26.98
-18.55
-10.04
-2.05
5.04
11.04
15.87
19.5
21.93
23.26
23.65
23.37
22.66
21.79
20.9
20.05
19.24
18.45
17.71
17.05
16.56
16.27
16.13
15.95
15.54
14.69
13.28
11.3
8.82
5.93
2.76
-0.56
-3.85
-6.93
-9.65
-12.04
-14.23
-16.51
-19.15
-22.35
-26.16
-30.44
-34.85
-38.88
-41.85
-43.05
-41.87
-38.01
-31.62
-23.37
-14.28
-5.42
2.41
8.81
13.83
17.72
20.68
22.75
23.83
23.83
22.88
21.38
19.86
18.83
18.47
18.67
19.1
19.35
19.23
18.74
18.06
17.37
16.78
16.19
15.43
14.28
12.61
10.39
7.74
4.82
1.82
-1.13
-3.97
-6.74
-9.53
-12.47
-15.72
-19.48
-23.86
-28.86
-34.24
-39.46
-43.69
-46.05
-45.83
-42.72
-36.96
-29.26
-20.55
-11.76
-3.56
3.63
9.65
14.47
18.11
20.58
21.93
22.3
21.87
20.93
19.81
18.78
18.06
17.8
18.02
18.62
19.44
20.22
20.71
20.69
20.09
18.93
17.36
15.54
13.56
11.44
9.08
6.4
3.35
0.01
-3.41
-6.69
-9.64
-12.21
-14.49
-16.73
-19.19
-22.1
-25.57
-29.57
-33.82
-37.76
-40.63
-41.58
-39.9
-35.32
-28.1
-18.96
-8.94
1.03
10.25
18.36
25.26
30.91
35.29
38.38
40.26
41.23
41.71
42.19
43.02
44.31
45.81
47.06
47.52
46.77
44.63
41.23
36.94
32.34
28.1
24.83
22.96
22.48
23.01
23.73
23.73
22.23
18.87
13.8
7.49
0.56
-6.6
-13.86
-21.36
-29.4
-38.25
-48.03
-58.66
-69.8
-80.83
-90.96
-99.24
-104.81
-107.01
-105.58
-100.75
-93.19
-83.84
-73.66
-63.41
-53.52
-44.2
-35.52
-27.58
-20.61
-14.8
-10.32
-7.08
-4.81
-3.11
-1.55
0.24
2.46
5.19
8.35
11.74
15.1
18.18
20.8
22.84
24.29
25.1
25.23
24.63
23.34
21.58
19.64
17.87
16.47
15.46
14.64
13.66
12.17
9.87
6.67
2.64
-1.82
-6.05
-9.24
-10.59
-9.59
-6.14
-0.64
6.23
13.63
20.84
27.37
32.92
37.37
40.63
42.63
43.36
42.87
41.33
39.02
36.33
33.63
31.21
29.25
27.79
26.75
25.99
25.34
24.64
23.7
22.36
20.48
17.98
14.88
11.31
7.49
3.68
0.07
-3.25
-6.36
-9.42
-12.67
-16.31
-20.5
-25.26
-30.47
-35.73
-40.4
-43.68
-44.79
-43.22
-38.93
-32.46
-24.7
-16.62
-9.0
-2.23
3.61
8.55
12.58
15.54
17.22
17.54
16.65
14.94
12.95
11.21
10.07
9.66
9.9
10.54
11.31
11.98
12.35
12.31
11.87
11.02
9.77
8.12
6.07
3.58
0.75
-2.31
-5.4
-8.34
-11.01
-13.43
-15.74
-18.16
-20.94
-24.26
-28.16
-32.47
