19.31
18.43
17.56
16.84
16.45
16.46
16.85
17.42
17.9
17.98
17.45
16.28
14.57
12.47
10.16
7.78
5.36
2.88
0.29
-2.43
-5.26
-8.13
-10.92
-13.52
-15.83
-17.86
-19.67
-21.41
-23.25
-25.29
-27.48
-29.59
-31.2
-31.76
-30.78
-28.04
-23.62
-18.0
-11.8
-5.68
-0.1
4.7
8.66
11.79
14.1
15.55
16.08
15.72
14.66
13.19
11.66
10.43
9.68
9.49
9.75
10.29
10.96
11.66
12.32
12.89
13.27
13.33
12.94
12.04
10.6
8.65
6.26
3.57
0.75
-1.95
-4.32
-6.23
-7.78
-9.2
-10.84
-12.95
-15.62
-18.72
-22.05
-25.36
-28.42
-30.97
-32.67
-33.1
-31.83
-28.66
-23.67
-17.29
-10.23
-3.25
2.96
7.97
11.61
13.9
15.03
15.24
14.76
13.84
12.71
11.62
10.75
10.29
10.32
10.84
11.81
13.1
14.55
15.98
17.14
17.81
17.81
17.06
15.55
13.36
10.61
7.49
4.2
0.99
-1.85
-4.14
-5.86
-7.17
-8.36
-9.81
-11.79
-14.42
-17.59
-20.96
-24.05
-26.22
-26.94
-25.8
-22.68
-17.79
-11.61
-4.84
1.83
7.8
12.68
16.31
18.76
20.19
20.8
20.78
20.26
19.35
18.12
16.73
15.34
14.14
13.27
12.82
12.79
13.06
13.43
13.64
13.46
12.71
11.42
9.71
7.76
5.75
3.79
1.87
-0.04
-1.97
-3.9
-5.79
-7.57
-9.21
-10.75
-12.24
-13.74
-15.32
-17.02
-18.88
-20.89
-22.97
-24.87
-26.17
-26.39
-25.05
-21.87
-16.94
-10.76
-4.06
2.39
8.05
12.75
16.61
19.84
22.51
24.53
25.72
26.09
25.87
25.49
25.28
25.22
24.92
23.81
21.5
18.02
13.89
9.8
6.36
3.76
1.79
0.06
-1.8
-3.93
-6.27
-8.65
-10.93
-13.07
-15.03
-16.75
-18.06
-18.72
-18.56
-17.54
-15.84
-13.77
-11.7
-9.98
-8.83
-8.33
-8.31
-8.39
-7.98
-6.39
-3.08
2.11
8.86
16.39
23.76
30.19
35.21
38.79
41.17
42.62
43.33
43.3
42.52
40.96
38.76
36.14
33.38
30.72
28.28
26.05
23.92
21.69
19.21
16.42
13.38
10.26
7.27
4.54
2.08
-0.24
-2.65
-5.37
-8.48
-11.87
-15.24
-18.28
-20.71
-22.4
-23.48
-24.16
-24.76
-25.63
-26.99
-28.9
-31.08
-33.0
-33.86
-32.93
-29.74
-24.3
-17.2
-9.4
-1.96
4.29
8.93
11.96
13.64
14.33
14.28
13.6
12.4
10.77
8.94
7.18
5.69
4.51
3.46
2.18
0.35
-2.19
-5.29
-8.65
-11.87
-14.71
-17.13
-19.27
-21.36
-23.52
-25.7
-27.69
-29.15
-29.73
-29.24
-27.76
-25.72
-23.79
-22.7
-22.96
-24.61
-27.26
-30.17
-32.57
-33.87
-33.68
-31.78
-28.04
-22.43
-15.14
-6.72
1.98
10.01
16.6
21.43
24.62
26.51
27.51
27.76
27.23
25.82
23.56
20.74
17.84
15.41
13.86
13.29
13.53
14.19
14.87
15.3
15.39
15.15
14.66
13.93
12.92
11.5
9.52
6.93
3.76
0.26
-3.2
-6.17
-8.37
-9.83
-10.95
-12.4
-14.88
-18.75
-23.89
-29.62
-35.01
-39.13
-41.38
-41.62
-40.09
-37.19
-33.2
-28.01
-21.15
-11.87
0.59
16.69
36.29
58.21
79.96
97.86
107.77
106.76
94.92
76.32
58.34
49.0
53.74
73.05
102.5
134.85
163.1
182.51
190.78
187.07
171.03
143.1
105.46
62.97
22.4
-9.66
-29.45
-37.45
-37.8
-35.98
-36.47
-41.29
-50.1
-61.36
-73.36
-84.79
-94.68
-102.11
-106.13
-106.02
-101.59
-93.42
-82.65
-70.82
-59.3
-48.95
-40.01
-32.23
-25.1
-18.28
-11.73
-5.76
-0.84
2.68
4.71
5.45
5.33
4.84
4.32
3.99
3.79
3.48
2.7
1.16
-1.2
-4.05
-6.77
-8.61
-9.1
-8.27
-6.71
-5.31
-4.89
-5.96
-8.55
-12.53
-17.7
-24.01
-31.37
-39.53
-47.91
-55.58
-61.54
-64.97
-65.55
-63.5
-59.39
-53.94
-47.72
-41.09
-34.18
-27.13
-20.06
-13.26
-7.06
-1.83
2.2
4.86
6.09
5.93
4.57
2.29
-0.42
-3.01
-5.0
-6.11
-6.44
-6.31
-6.16
-6.34
-6.91
-7.78
-8.77
-9.78
-10.86
-12.2
-13.95
-16.21
-18.99
-22.2
-25.65
-29.0
-31.84
-33.77
-34.64
-34.74
-34.76
-35.53
-37.5
-40.46
-43.53
-45.58
-45.71
-43.7
-40.0
-35.37
-30.49
-25.6
-20.66
-15.68
-10.96
-7.14
-4.85
-4.17
-4.41
-4.21
-2.03
3.13
11.22
21.02
30.6
38.02
42.13
43.01
41.78
40.15
39.6
40.87
43.85
47.91
52.25
56.08
58.49
58.41
54.84
47.32
36.65
24.91
14.8
8.5
6.5
7.56
9.55
10.98
12.1
14.63
20.45
29.88
40.92
49.94
53.52
50.22
41.45
30.63
21.54
16.63
16.3
19.32
23.92
28.81
33.63
38.71
44.33
50.16
54.94
56.82
54.05
45.93
33.35
18.72
5.14
-4.75
-9.86
-10.93
-10.02
-9.57
-11.36
-16.06
-23.29
-31.91
-40.43
-47.2
-50.82
-50.56
-46.86
-41.45
-36.87
-35.43
-38.0
-43.47
-49.09
-51.76
-49.55
-42.57
-32.93
-23.7
-17.53
-15.43
-16.39
-17.65
-15.82
-8.02
7.22
29.46
56.55
85.03
110.89
130.45
141.25
142.69
136.28
125.07
112.7
102.04
94.2
88.1
80.96
69.54
51.62
27.09
-1.88
-31.66
-58.39
-79.03
-91.91
-96.65
-93.97
-85.51
-73.74
-61.8
-52.93
-49.62
-52.72
-61.13
-72.14
-82.56
-89.86
-92.81
-91.53
-86.88
-79.86
-71.29
-61.78
-51.91
-42.16
-32.95
-24.48
-16.84
-10.11
-4.42
0.01
2.99
4.54
4.92
4.64
4.27
4.28
4.85
5.9
7.21
8.48
9.47
10.08
10.28
10.1
9.57
8.8
7.9
6.94
5.97
4.95
3.83
2.55
1.07
-0.53
-2.22
-4.01
-6.07
-8.6
-11.75
-15.44
-19.27
-22.52
-24.38
-24.24
-21.84
-17.42
-11.67
-5.46
0.4
5.29
8.89
11.09
11.89
11.34
9.59
6.91
3.66
0.31
-2.67
-4.97
-6.5
-7.47
-8.32
-9.57
-11.57
-14.32
-17.5
-20.53
-22.94
-24.58
-25.67
-26.67
-28.0
-29.8
-31.81
-33.56
-34.66
-34.99
-34.79
-34.46
-34.36
-34.67
-35.4
-36.52
-37.93
-39.52
-40.96
-41.59
-40.56
-37.05
-30.73
-21.92
-11.59
-1.12
8.19
15.46
20.43
23.32
24.6
24.78
24.24
23.21
21.85
20.35
18.86
17.52
16.37
15.39
14.47
13.5
12.44
11.24
9.97
8.64
7.27
5.79
4.15
2.2
-0.24
-3.31
-7.07
-11.31
-15.71
-19.79
-23.22
-25.91
-28.05
-30.07
-32.38
-35.28
-38.7
-42.24
-45.16
-46.59
-45.74
-42.1
-35.68
-26.94
-16.77
-6.12
4.15
13.51
21.74
28.79
34.65
39.3
42.68
44.88
46.11
46.69
46.99
47.25
47.56
47.84
47.94
47.73
47.17
46.4
45.55
44.73
43.85
42.61
40.58
37.31
32.6
26.64
20.05
13.71
8.49
4.96
3.16
2.6
2.33
1.13
-2.2
-8.55
-18.17
-30.45
-43.82
-56.04
-64.82
-68.59
-66.99
-61.01
-52.48
-43.32
-34.79
-27.16
-19.94
-12.5
-4.7
2.96
9.57
14.34
17.13
18.39
18.97
19.7
21.16
23.62
27.15
31.65
36.83
42.12
46.82
50.26
52.18
52.77
52.51
51.8
50.63
48.69
45.56
41.01
35.07
27.84
19.3
9.29
-2.34
-15.5
-29.65
-43.92
-57.26
-68.57
-76.75
-80.86
-80.35
-75.35
-67.06
-57.63
-49.58
-44.84
-44.24
-47.2
-52.3
-58.17
-64.05
-69.95
-76.37
-84.17
-94.56
-109.02
-128.81
-153.93
-182.26
-209.28
-229.27
-237.4
-231.62
-213.45
-186.94
-156.53
-125.09
-93.18
-60.1
-25.6
8.8
40.07
65.12
82.64
93.95
102.32
111.07
121.84
133.48
142.65
145.63
140.18
126.73
108.09
88.22
70.53
56.85
47.26
40.79
36.36
33.41
32.07
32.8
35.87
40.86
46.65
51.64
54.4
54.11
50.94
45.87
40.31
35.41
31.73
29.05
26.63
23.78
20.37
17.1
15.33
16.54
21.76
31.03
43.42
57.36
71.1
83.22
92.86
99.69
103.78
105.29
104.46
101.37
96.06
88.51
78.69
66.62
52.49
36.82
20.52
4.95
-8.3
-17.57
-21.58
-19.75
-12.4
-0.77
13.23
27.43
39.84
48.99
54.07
54.99
52.22
46.73
39.75
32.62
26.48
22.08
19.69
19.07
19.72
21.01
22.37
23.31
23.5
22.69
20.76
17.71
13.67
8.89
3.61
-1.9
-7.44
-12.85
-18.05
-23.03
-27.91
-32.94
-38.36
-44.28
-50.56
-56.69
-61.91
-65.31
-66.15
-63.98
-58.83
-51.2
-41.93
-32.01
-22.42
-13.96
-7.13
-2.12
1.11
2.81
3.25
2.72
1.5
-0.19
-2.09
-3.93
-5.43
-6.28
-6.27
-5.28
-3.35
-0.66
2.49
5.74
8.74
11.17
12.79
13.44
13.08
11.75
9.68
7.18
4.56
2.07
-0.26
-2.67
-5.56
-9.35
-14.24
-20.0
-25.99
-31.19
-34.5
-35.09
-32.6
-27.29
-19.89
-11.41
-2.81
5.17
12.04
17.56
21.61
24.14
25.12
24.65
22.92
20.31
17.29
14.35
11.95
10.35
9.68
9.86
10.73
12.02
13.48
14.89
16.05
16.8
16.97
16.51
15.4
13.68
11.47
8.89
6.07
3.1
0.03
-3.17
-6.58
-10.32
-14.51
-19.18
-24.19
-29.14
-33.42
-36.23
-36.89
-34.94
-30.37
-23.64
-15.5
-6.85
1.52
9.05
15.39
20.36
23.9
26.04
26.88
26.62
25.54
24.02
22.42
21.07
20.15
19.66
19.47
19.39
19.24
18.99
18.68
18.41
18.15
17.73
16.81
15.08
12.42
8.95
5.07
1.28
-2.06
-4.84
-7.26
-9.69
-12.53
-16.03
-20.16
-24.67
-29.07
-32.76
-35.03
-35.23
-32.92
-28.05
-21.02
-12.59
-3.77
4.56
11.77
17.59
22.05
25.29
27.46
28.65
28.97
28.58
27.75
26.8
25.94
25.21
24.52
23.7
22.73
21.72
20.87
20.35
20.06
19.67
18.76
17.0
14.34
11.07
7.63
4.47
1.72
-0.72
-3.23
-6.22
-10.01
-14.65
-19.89
-25.24
-29.95
-33.2
-34.3
-32.87
-28.93
-22.95
-15.69
-8.04
-0.74
5.66
10.9
14.91
17.74
19.5
20.31
20.35
19.84
18.96
17.94
16.92
16.03
15.36
15.0
15.01
15.38
16.03
16.75
17.23
17.16
16.24
14.37
11.6
8.17
4.38
0.57
-2.98
-6.12
-8.83
-11.24
-13.59
-16.23
-19.4
-23.16
-27.15
-30.67
-32.83
-32.85
-30.37
-25.58
-19.17
-12.03
-4.98
1.44
7.01
11.71
15.59
18.65
20.84
22.15
22.64
22.53
22.14
21.78
21.62
21.69
21.8
21.72
21.25
20.36
19.16
17.82
16.45
15.0
13.33
11.26
8.73
5.83
2.81
-0.04
-2.46
-4.37
-5.82
-7.05
-8.32
-9.92
-12.06
-14.87
-18.35
-22.41
-26.78
-30.98
-34.33
-36.08
-35.63
-32.76
-27.78
-21.44
-14.63
-8.14
-2.38
2.59
6.86
10.47
13.34
15.32
16.26
16.22
15.45
14.35
13.25
12.4
11.88
11.6
11.49
11.44
11.38
11.28
11.05
10.59
9.73
8.35
6.4
4.05
1.53
-0.89
-3.02
-4.86
-6.6
-8.46
-10.59
-13.02
-15.65
-18.38
-21.23
-24.26
-27.5
-30.72
-33.39
-34.69
-33.85
-30.41
-24.43
-16.55
-7.73
0.99
8.8
15.22
20.14
23.7
26.27
28.35
30.5
33.2
36.65
40.65
44.45
46.84
46.51
42.46
34.53
23.73
12.06
1.92
-4.84
-7.57
-6.99
-4.63
-1.98
0.14
1.74
3.16
4.56
5.43
4.87
2.01
-3.43
-10.93
-19.35
-27.37
-33.93
-38.44
-40.81
-41.28
-40.25
-38.2
-35.53
-32.52
-29.32
-26.0
-22.53
-18.85
-14.88
-10.65
-6.36
-2.43
0.62
2.32
2.4
0.97
-1.69
-5.19
-9.22
-13.6
-18.24
-23.11
-28.21
-33.52
-38.99
-44.58
-50.29
-56.13
-62.23
-68.61
-75.11
-81.33
-86.59
-90.11
-91.35
-90.13
-86.72
-81.65
-75.55
-68.91
-62.06
-55.13
-48.14
-40.99
-33.63
-26.16
-18.93
-12.5
-7.51
-4.32
-2.92
-2.94
-3.85
-5.14
-6.52
-7.89
-9.26
-10.75
-12.53
-14.82
-17.74
-21.07
-24.11
-25.81
-25.19
-21.75
-15.83
-8.47
-0.92
5.94
11.93
17.49
23.22
29.34
35.42
40.49
43.49
43.72
41.14
36.3
30.17
23.79
18.05
13.56
10.59
9.08
8.7
8.96
9.35
9.52
9.33
8.97
8.81
9.35
11.01
14.05
18.49
24.15
30.58
37.25
43.56
49.01
53.25
56.16
57.84
58.55
58.63
58.41
58.18
58.07
58.13
58.31
58.51
58.6
58.46
57.97
57.06
55.72
53.94
51.71
49.04
45.93
42.44
38.69
34.84
31.07
27.55
24.37
21.52
18.89
16.31
13.59
10.61
7.37
3.92
0.39
-3.15
-6.62
-9.95
-12.89
-15.05
-15.91
-14.99
-12.07
-7.35
-1.42
4.87
10.68
15.41
18.82
20.97
22.13
22.55
22.39
21.69
20.5
18.88
17.06
15.3
13.88
12.97
12.59
12.61
12.84
13.08
13.21
13.15
12.85
12.24
11.29
9.93
8.2
6.16
3.9
1.55
-0.79
-2.97
-4.86
-6.36
-7.51
-8.53
-9.81
-11.7
-14.38
-17.63
-20.82
-23.16
-23.85
-22.4
-18.68
-12.98
-5.82
2.27
10.87
19.77
28.99
38.62
48.7
59.0
68.93
77.56
83.87
87.12
87.25
85.02
81.86
79.3
78.38
79.12
80.47
80.73
78.17
71.7
61.26
48.19
35.19
26.13
25.06
34.88
55.89
84.95
116.01
141.8
156.25
156.49
143.65
121.97
96.95
73.38
54.05
39.68
29.64
22.88
18.36
14.78
10.24
2.51
-10.14
-27.77
-47.94
-66.24
-78.13
-81.14
-76.16
-67.1
-58.86
-54.89
-55.84
-59.76
-63.7
-65.42
-64.15
-60.44
-55.4
-50.24
-46.1
-44.25
-45.61
-50.26
-56.98
-63.29
-66.33
-64.17
-56.73
-45.79
-34.07
-23.92
-16.59
-12.1
-9.8
-9.04
-9.55
-11.25
-14.07
-17.71
-21.58
-24.99
-27.32
-28.18
-27.46
-25.42
-22.59
-19.78
-17.76
-17.06
-17.71
-19.21
-20.7
-21.25
-20.25
-17.52
-13.37
-8.45
-3.49
0.85
4.15
6.24
7.17
7.26
7.03
7.1
8.05
10.06
12.74
15.04
15.6
13.24
7.57
-0.73
-9.93
-17.92
-22.85
-23.75
-20.76
-14.88
-7.56
-0.16
6.38
11.66
15.87
19.64
23.73
28.61
33.98
38.65
40.92
39.44
34.09
26.23
18.06
11.5
7.21
4.42
1.84
-1.3
-4.68
-7.6
-10.28
-14.67
-23.82
-39.89
-62.18
-86.45
-106.37
-116.31
-113.99
-101.34
-83.22
-64.9
-49.85
-38.93
-31.22
-25.41
-20.99
-18.31
-17.9
-19.69
-22.71
-25.5
-26.83
-26.27
-24.44
-22.54
-21.78
-22.73
-25.17
-28.18
-30.66
-31.81
-31.37
-29.66
-27.35
-25.03
-23.0
-21.19
-19.36
-17.28
-15.02
-13.01
-11.89
-12.32
-14.67
-18.86
-24.29
-29.93
-34.53
-36.94
-36.36
-32.48
-25.64
-16.61
-6.46
3.73
13.02
20.71
26.35
29.7
30.7
29.48
26.34
21.65
15.86
9.4
2.71
-3.76
-9.59
-14.35
-17.81
-19.87
-20.64
-20.32
-19.15
-17.37
-15.14
-12.72
-10.39
-8.53
-7.49
-7.52
-8.69
-10.82
-13.6
-16.63
-19.65
-22.55
-25.49
-28.76
-32.63
-37.17
-42.03
-46.56
-49.9
-51.33
-50.5
-47.55
-42.96
-37.34
-31.1
-24.42
-17.32
-9.93
-2.68
3.75
8.61
11.47
12.51
12.49
12.59
13.83
16.74
21.17
26.42
31.69
36.51
40.98
45.68
51.5
59.2
69.05
80.66
92.91
103.9
110.99
111.34
102.65
84.25
57.75
26.81
-4.04
-30.9
-51.81
-66.85
-77.38
-84.76
-89.47
-91.03
-88.65
-81.92
-71.12
-57.06
-40.53
-22.13
-2.4
17.99
38.04
56.66
73.06
86.71
97.28
104.33
107.26
105.54
99.05
88.45
74.94
59.98
44.72
29.92
16.11
3.87
-6.04
-12.91
-16.43
-17.13
-16.27
-15.44
-15.96
-18.43
-22.63
-27.77
-32.89
-37.21
-40.3
-42.04
-42.55
-42.08
-40.98
-39.77
-39.05
-39.49
-41.6
-45.57
-51.05
-57.21
-62.74
-66.27
-66.67
-63.4
-56.76
-47.81
-38.13
-29.34
-22.67
-18.62
-16.89
-16.57
-16.51
-15.76
-13.76
-10.51
-6.36
-1.85
2.54
6.48
9.82
12.5
14.42
15.26
14.56
11.82
6.79
-0.37
-9.09
-18.55
-28.14
-37.67
-47.46
-58.15
-70.15
-83.24
-96.23
-107.14
-113.68
-114.0
-107.15
-93.24
-73.27
-49.02
-22.92
1.95
22.1
34.35
36.7
29.14
13.72
-6.06
-26.45
-44.49
-58.54
-68.16
-73.53
-74.96
-72.87
-67.88
-61.02
-53.59
-46.82
-41.52
-37.85
-35.51
-33.86
-32.23
-30.12
-27.26
-23.64
-19.43
-14.91
-10.39
-6.15
-2.43
0.57
2.7
3.88
4.14
3.61
2.48
0.96
-0.8
-2.67
-4.5
-6.08
-7.14
-7.45
-7.04
-6.18
-5.41
-5.33
-6.35
-8.57
-11.73
-15.26
-18.42
-20.45
-20.73
-18.87
-14.77
-8.78
-1.52
6.16
13.45
19.76
24.87
28.89
32.04
34.5
36.3
37.31
37.42
36.71
35.48
34.27
33.57
33.7
34.66
36.14
37.74
39.07
39.89
40.13
39.82
39.04
37.86
36.37
34.63
32.71
30.66
28.51
26.31
24.09
21.94
19.87
17.86
15.83
13.66
11.23
8.45
5.3
1.8
-1.82
-5.17
-7.61
-8.37
-6.72
-2.22
5.12
14.81
26.0
37.68
48.91
58.98
67.48
74.4
80.05
85.01
89.88
95.12
100.81
106.72
112.38
117.45
121.85
125.93
130.27
135.43
141.66
148.73
155.97
162.44
167.19
169.54
169.22
166.49
162.05
157.0
152.52
149.41
147.69
146.28
143.18
136.09
123.38
104.85
81.97
57.34
33.65
12.76
-4.82
-19.61
-32.45
-43.77
-53.32
-60.46
-64.61
-65.68
-64.1
-60.6
-55.94
-50.68
-45.25
-40.02
-35.45
-32.11
-30.63
-31.58
-35.33
-41.8
-50.27
-59.36
-67.26
-72.23
-73.18
-70.08
-63.85
-56.01
-47.99
-40.73
-34.55
-29.24
-24.56
-20.34
-16.71
-13.9
-12.02
-11.0
-10.49
-10.1
-9.6
-9.05
-8.78
-9.22
-10.59
-12.76
-15.23
-17.39
-18.9
-19.81
-20.71
-22.34
-25.46
-30.53
-37.68
-46.73
-57.19
-68.24
-78.72
-87.26
-92.57
-93.85
-91.04
-84.84
-76.44
-67.04
-57.41
-47.83
-38.19
-28.33
-18.33
-8.6
0.27
7.74
13.57
17.95
21.4
24.53
27.84
31.54
35.5
39.43
42.96
45.87
48.11
49.82
51.17
52.32
53.32
54.12
54.59
54.62
54.02
52.64
50.33
47.06
42.91
38.06
32.74
27.2
21.68
16.37
11.47
7.1
3.22
-0.43
-4.33
-9.08
-15.18
-22.85
-31.9
-41.83
-51.84
-60.95
-68.12
-72.4
-73.19
-70.42
-64.66
-56.96
-48.55
-40.5
-33.45
-27.61
-22.88
-19.06
-15.97
-13.48
-11.46
-9.72
-8.03
-6.15
-3.95
-1.44
1.17
3.53
5.24
6.07
5.99
5.27
4.35
3.63
3.28
3.15
2.82
1.85
-0.01
-2.67
-5.77
-8.83
-11.53
-13.77
-15.79
-17.98
-20.68
-24.1
-28.13
-32.47
-36.69
-40.47
-43.62
-46.18
-48.37
-50.51
-52.86
-55.62
-58.73
-61.91
-64.59
-65.95
-65.09
-61.24
-53.98
-43.53
-30.7
-16.76
-3.06
9.38
20.11
29.18
36.9
43.55
49.08
53.25
55.85
56.91
56.87
56.35
55.93
55.87
56.14
56.55
57.05
57.76
58.95
60.76
63.04
65.23
66.64
66.63
64.92
61.65
57.3
52.41
47.39
42.36
37.19
31.65
25.58
18.97
12.01
5.01
-1.68
-7.72
-12.87
-16.97
-19.99
-22.03
-23.39
-24.34
-25.07
-25.47
-25.15
-23.47
-19.81
-13.79
-5.4
4.89
16.22
27.55
37.79
46.07
51.81
54.83
55.26
53.51
50.14
45.87
41.45
37.58
34.8
33.24
32.65
32.5
32.28
31.78
31.29
31.37
32.64
35.22
38.58
41.54
42.69
40.98
36.11
28.69
19.96
11.21
3.37
-3.31
-9.02
-14.14
-18.85
-23.02
-26.4
-28.88
-30.64
-32.13
-33.87
-36.19
-39.21
-42.89
-47.12
-51.74
-56.5
-60.84
-64.0
-65.15
-63.66
-59.37
-52.64
-44.28
-35.28
-26.6
-18.98
-12.9
-8.57
-5.96
-4.91
-5.12
-6.26
-8.03
-10.16
-12.48
-14.84
-17.17
-19.45
-21.72
-24.06
-26.45
-28.8
-30.91
-32.52
-33.52
-34.03
-34.38
-35.03
-36.33
-38.38
-40.99
-43.79
-46.34
-48.39
-49.85
-50.8
-51.36
-51.58
-51.42
-50.74
-49.41
-47.38
-44.67
-41.42
-37.81
-34.11
-30.65
-27.82
-26.06
-25.68
-26.64
-28.37
-29.85
-29.81
-27.08
-21.06
-11.88
-0.43
11.9
23.58
33.35
40.5
45.03
47.56
49.04
50.35
51.86
53.37
54.23
53.79
51.79
48.6
44.95
41.65
39.11
37.31
35.88
34.46
32.96
31.56
30.55
30.04
29.78
29.22
27.84
25.35
21.94
18.19
14.78
12.15
10.3
8.81
7.09
4.72
1.6
-2.03
-5.76
-9.25
-12.27
-14.82
-17.01
-19.02
-21.1
-23.53
-26.51
-30.02
-33.72
-36.84
-38.44
-37.7
-34.16
-28.0
-19.99
-11.18
-2.6
5.03
11.44
16.63
20.79
24.03
26.38
27.74
28.07
27.46
26.15
24.45
22.71
21.17
19.98
19.17
18.78
18.85
19.41
20.32
21.26
21.67
20.96
18.67
14.75
9.5
3.59
-2.23
-7.39
-11.55
-14.73
-17.12
-19.04
-20.78
-22.53
-24.42
-26.51
-28.82
-31.35
-34.15
-37.25
-40.73
-44.63
-48.91
-53.37
-57.61
-60.99
-62.77
-62.26
-59.05
-53.16
-45.08
-35.6
-25.58
-15.71
-6.47
1.89
9.2
15.27
19.92
23.1
24.94
25.74
25.99
26.16
26.63
27.56
28.91
30.54
32.27
33.95
35.49
36.8
37.82
38.42
38.46
37.8
36.36
34.17
31.34
28.04
24.54
21.06
17.77
14.74
11.88
9.01
5.92
2.47
-1.25
-5.02
-8.5
-11.47
-13.95
-16.29
-19.0
-22.57
-27.11
-32.26
-37.2
-40.84
-42.19
-40.69
-36.33
-29.65
-21.49
-12.82
-4.42
3.17
9.64
14.88
18.87
21.66
23.35
24.14
24.27
24.06
23.81
23.76
24.01
24.54
25.21
25.89
26.46
26.86
27.09
27.17
27.04
26.61
25.72
24.21
21.99
19.07
15.69
12.15
8.83
6.01
3.74
1.89
0.13
-1.81
-4.11
-6.7
-9.36
-11.88
-14.17
-16.32
-18.62
-21.38
-24.84
-29.05
-33.84
-38.8
-43.31
-46.62
-47.94
-46.69
-42.68
-36.19
-27.99
-19.07
-10.38
-2.56
4.17
9.86
14.72
18.87
22.28
24.8
26.35
26.97
26.92
26.57
26.23
26.1
26.22
26.55
27.03
27.69
28.56
29.62
30.74
31.63
32.01
31.68
30.65
29.19
27.67
26.5
25.89
25.84
26.15
26.51
26.68
26.54
26.22
26.02
26.26
27.15
28.66
30.53
32.28
33.33
33.13
31.35
28.02
23.7
19.49
16.7
16.38
18.72
22.68
26.2
26.92
23.04
14.14
1.24
-13.63
-28.26
-40.96
-50.89
-57.83
-61.86
-62.91
-60.68
-54.86
-45.28
-32.31
-16.9
-0.63
14.5
26.5
33.8
35.86
33.4
28.32
23.13
20.1
20.42
23.86
28.89
33.49
35.92
35.37
31.94
26.53
20.31
14.35
9.51
6.31
4.78
4.15
2.82
-1.33
-10.08
-23.91
-41.52
-60.14
-76.66
-88.89
-96.28
-99.74
-100.77
-100.43
-98.82
-95.35
-89.37
-80.9
-70.65
-59.74
-49.03
-38.76
-28.7
-18.51
-8.29
1.38
9.47
15.02
17.5
17.06
14.48
10.9
7.5
5.2
4.57
5.71
8.45
12.43
17.22
22.43
27.6
32.25
35.78
37.54
36.98
33.92
28.66
21.96
14.85
8.29
2.89
-1.14
-4.02
-6.13
-7.95
-9.93
-12.5
-16.1
-21.13
-27.77
-35.85
-44.68
-53.23
-60.3
-64.95
-66.82
-66.22
-63.99
-61.21
-58.74
-56.96
-55.64
-54.15
-51.71
-47.85
-42.52
-36.15
-29.46
-23.15
-17.68
-13.12
-9.25
-5.69
-2.12
1.71
5.91
10.5
15.41
20.51
25.55
30.2
34.08
36.88
38.43
38.72
37.94
36.35
34.29
32.09
30.0
28.13
26.49
24.92
23.2
21.06
18.27
14.65
10.17
4.97
-0.61
-5.99
-10.35
-12.82
-12.61
-9.32
-3.2
4.88
13.56
21.38
27.21
30.57
31.7
31.45
30.9
31.0
32.33
34.95
38.6
42.8
47.07
51.01
54.27
56.46
57.11
55.78
52.04
45.74
36.93
26.03
13.77
1.09
-10.95
-21.37
-29.5
-35.03
-38.12
-39.22
-38.92
-37.78
-36.22
-34.56
-33.08
-32.04
-31.67
-32.16
-33.58
-35.87
-38.83
-42.07
-45.02
-46.85
-46.73
-43.95
-38.25
-29.91
-19.77
-8.92
1.55
10.87
18.63
24.8
29.49
32.83
34.92
35.82
35.69
34.85
33.76
32.85
32.46
32.68
33.34
34.16
34.95
35.66
36.5
37.78
39.74
42.37
45.31
47.94
49.53
49.44
47.33
43.23
37.5
30.76
23.6
16.5
9.63
2.97
-3.63
-10.33
-17.14
-23.93
-30.47
-36.45
-41.5
-45.14
-46.85
-46.15
-42.85
-37.15
-29.75
-21.63
-13.82
-7.05
-1.64
2.51
5.74
8.35
10.5
12.22
13.47
14.29
14.88
15.55
16.68
18.53
21.15
24.34
27.66
30.62
32.78
33.9
34.02
33.46
32.94
33.44
36.01
41.38
49.4
58.76
66.98
71.02
68.41
58.12
41.14
20.16
-1.3
-20.02
-33.9
-42.24
-45.52
-44.96
-42.13
-38.62
-35.85
-34.91
-36.32
-39.99
-45.21
-50.97
-56.21
-60.1
-62.2
-62.38
-60.75
-57.54
-52.97
-47.22
-40.39
-32.65
-24.29
-15.8
-7.9
-1.37
3.17
5.41
5.53
4.1
1.88
-0.37
-2.15
-3.38
-4.34
-5.6
-7.8
-11.41
-16.6
-23.15
-30.49
-37.89
-44.64
-50.2
-54.27
-56.83
-57.91
-57.58
-55.76
-52.28
-46.99
-39.92
-31.37
-21.94
-12.42
-3.62
3.69
8.91
11.6
11.51
8.55
2.9
-4.89
-13.8
-22.2
-28.03
-29.15
-23.99
-12.1
5.42
26.15
47.03
65.28
79.24
88.68
94.5
98.2
101.24
104.61
108.55
112.47
114.82
113.4
105.87
90.81
68.62
41.86
14.54
-9.28
-27.0
-38.21
-44.3
-47.38
-48.97
-49.63
-49.3
-48.23
-47.58
-49.14
-54.48
-63.97
-76.31
-89.0
-99.35
-105.51
-107.03
-104.68
-99.83
-93.73
-87.04
-79.87
-72.04
-63.53
-54.72
-46.42
-39.56
-34.89
-32.59
-32.27
-33.08
-34.07
-34.58
-34.44
-33.89
-33.33
-33.1
-33.26
-33.65
-33.98
-33.99
-33.41
-31.97
-29.29
-24.96
-18.59
-10.02
0.57
12.61
25.25
37.51
48.44
57.25
63.35
66.45
66.61
64.31
60.38
55.88
51.81
48.88
47.33
46.89
47.03
47.18
46.98
46.41
45.68
45.02
44.53
44.07
43.27
41.71
39.04
35.09
29.97
23.94
17.45
10.99
5.07
0.07
-3.82
-6.64
-8.66
-10.24
-11.75
-13.43
-15.34
-17.28
-18.92
-19.79
-19.45
-17.71
-14.61
-10.55
-6.14
-2.04
1.23
3.38
4.45
4.66
4.35
3.81
3.21
2.64
2.15
1.83
1.86
2.43
3.65
5.39
7.37
9.17
10.42
10.94
10.78
10.11
9.14
7.99
6.65
5.04
3.11
0.86
-1.59
-4.1
-6.5
-8.7
-10.72
-12.67
-14.67
-16.84
-19.2
-21.68
-24.03
-25.95
-26.97
-26.67
-24.65
-20.73
-15.02
-7.92
-0.1
7.74
15.0
21.36
26.74
31.23
34.92
37.83
39.94
41.3
42.11
42.77
43.7
45.21
47.32
49.8
52.34
54.77
57.15
59.87
63.35
67.93
73.56
79.75
85.46
89.39
90.22
86.95
79.25
67.53
52.88
36.75
20.59
5.5
-7.95
-19.76
-30.42
-40.69
-51.31
-62.56
-74.02
-84.44
-92.05
-95.14
-92.73
-85.03
-73.27
-59.27
-44.75
-30.93
-18.4
-7.45
1.59
8.26
12.0
12.56
10.14
5.44
-0.62
-7.25
-13.89
-20.27
-26.2
-31.32
-35.16
-37.19
-37.05
-34.71
-30.49
-24.93
-18.72
-12.51
-6.9
-2.47
0.4
1.5
0.91
-1.02
-3.81
-6.98
-10.16
-13.16
-15.92
-18.47
-20.91
-23.36
-25.9
-28.52
-30.98
-32.89
-33.71
-32.98
-30.41
-25.99
-20.01
-13.0
-5.6
1.53
7.86
13.09
17.2
20.39
22.94
25.06
26.78
28.02
28.73
28.95
28.94
29.05
29.52
30.48
31.81
33.34
34.86
36.24
37.39
38.2
38.49
38.05
36.75
34.54
31.52
27.86
23.77
19.39
14.85
10.23
5.59
1.02
-3.43
-7.79
-12.14
-16.61
-21.34
-26.38
-31.67
-36.98
-41.88
-45.8
-48.1
-48.23
-45.89
-41.21
-34.7
-27.2
-19.66
-12.85
-7.26
-2.94
0.29
2.73
4.58
5.93
6.77
7.08
7.04
6.94
7.12
7.84
9.14
10.8
12.48
13.82
14.61
14.82
14.56
13.97
13.1
11.92
10.28
8.11
5.47
2.55
-0.33
-2.92
-5.09
-6.93
-8.65
-10.56
-12.86
-15.64
-18.85
-22.3
-25.71
-28.73
-30.99
-32.1
-31.7
-29.6
-25.75
-20.33
-13.73
-6.46
0.88
7.77
13.8
18.72
22.45
24.96
26.29
26.51
25.81
24.46
22.82
21.28
20.12
19.43
19.18
19.25
19.5
19.83
20.13
20.25
20.04
19.35
18.09
16.34
14.3
12.14
10.02
7.97
5.94
3.89
1.79
-0.39
-2.59
-4.81
-7.02
-9.27
-11.59
-14.11
-16.98
-20.33
-24.17
-28.29
-32.22
-35.3
-36.86
-36.41
-33.79
-29.24
-23.25
-16.5
-9.65
-3.25
2.34
7.0
10.73
13.64
15.86
17.45
18.46
18.91
18.85
18.39
17.74
17.12
16.74
16.75
17.22
18.05
19.06
19.98
20.52
20.45
19.65
18.15
16.13
13.8
11.41
9.11
6.94
4.82
2.65
0.38
-1.95
-4.24
-6.34
-8.24
-10.03
-11.84
-13.81
-16.03
-18.48
-21.06
-23.62
-25.91
-27.54
-28.04
-26.93
-23.93
-19.12
-12.99
-6.31
0.07
5.53
9.79
12.96
15.32
17.16
18.59
19.57
19.98
19.79
19.15
18.36
17.73
17.44
