10.8
8.04
5.1
1.94
-1.4
-4.8
-8.02
-10.9
-13.37
-15.58
-17.79
-20.29
-23.24
-26.55
-29.86
-32.63
-34.21
-34.07
-31.93
-27.82
-22.1
-15.42
-8.51
-2.07
3.47
7.89
11.22
13.61
15.18
16.05
16.35
16.23
15.92
15.64
15.55
15.64
15.8
15.88
15.79
15.56
15.26
15.01
14.81
14.63
14.33
13.79
12.88
11.51
9.6
7.15
4.25
1.13
-1.91
-4.62
-6.88
-8.79
-10.66
-12.84
-15.58
-18.97
-22.87
-26.98
-30.85
-33.95
-35.68
-35.54
-33.18
-28.64
-22.33
-15.0
-7.5
-0.53
5.47
10.37
14.19
16.98
18.76
19.53
19.4
18.62
17.56
16.64
16.15
16.18
16.65
17.31
17.92
18.27
18.24
17.77
16.92
15.83
14.65
13.57
12.69
11.92
11.02
9.68
7.69
5.07
2.08
-0.88
-3.53
-5.8
-7.89
-10.19
-13.05
-16.66
-20.93
-25.48
-29.73
-33.01
-34.74
-34.52
-32.29
-28.25
-22.87
-16.72
-10.38
-4.34
1.07
5.63
9.25
11.92
13.75
14.87
15.52
15.91
16.24
16.62
17.08
17.54
17.87
17.91
17.58
16.89
15.94
14.83
13.64
12.39
11.04
9.53
7.8
5.82
3.62
1.29
-1.02
-3.17
-5.08
-6.79
-8.49
-10.42
-12.75
-15.5
-18.56
-21.67
-24.51
-26.76
-28.09
-28.17
-26.68
-23.45
-18.61
-12.61
-6.17
-0.05
5.16
9.16
12.02
13.96
15.2
15.88
16.06
15.78
15.2
14.58
14.29
14.56
15.43
16.66
17.88
18.71
18.93
18.55
17.75
16.72
15.57
14.26
12.64
10.54
7.94
4.98
1.94
-0.86
-3.28
-5.35
-7.27
-9.32
-11.69
-14.44
-17.48
-20.69
-23.9
-26.99
-29.7
-31.64
-32.31
-31.2
-28.02
-22.86
-16.19
-8.77
-1.52
4.79
9.58
12.61
14.0
14.17
13.74
13.34
13.41
14.08
15.13
16.22
17.01
17.44
17.79
18.64
20.75
24.86
31.53
40.9
52.49
65.1
77.01
86.45
92.05
93.14
89.75
82.25
71.04
56.43
38.66
18.15
-4.39
-27.88
-50.87
-71.56
-87.91
-98.03
-100.78
-96.47
-87.13
-75.91
-65.99
-59.3
-55.95
-54.71
-54.11
-53.5
-53.3
-54.43
-57.24
-60.88
-63.54
-63.43
-59.92
-54.06
-48.04
-44.17
-43.7
-46.32
-50.56
-54.67
-57.56
-59.09
-59.87
-60.57
-61.34
-61.71
-60.91
-58.35
-53.92
-47.96
-40.95
-33.25
-25.17
-17.09
-9.65
-3.62
0.45
2.53
3.12
2.96
2.65
2.34
1.8
0.79
-0.7
-2.41
-3.88
-4.84
-5.14
-4.7
-3.38
-1.08
1.96
5.03
7.12
7.49
6.18
4.11
2.65
2.81
4.71
7.5
10.0
11.48
12.05
12.51
13.68
15.73
17.97
19.3
18.9
16.87
14.31
12.82
13.71
17.37
23.15
29.64
35.35
39.25
41.04
41.04
39.78
37.65
34.79
31.07
26.46
21.11
15.35
9.53
3.79
-2.05
-8.37
-15.38
-22.9
-30.23
-36.34
-40.21
-41.2
-39.14
-34.3
-27.21
-18.45
-8.7
1.36
11.03
19.77
27.29
33.67
39.17
44.09
48.57
52.54
55.84
58.35
60.06
61.13
61.79
62.25
62.61
62.93
63.18
63.37
63.51
63.62
63.64
63.37
62.48
60.62
57.68
53.93
49.95
46.39
43.45
40.69
37.17
32.05
25.2
17.58
10.87
6.89
6.86
10.95
18.43
28.07
38.6
48.98
58.55
66.91
73.93
79.65
84.36
88.44
92.18
95.79
99.25
102.51
105.51
108.1
109.97
110.55
109.14
105.24
98.66
89.7
78.86
66.67
53.45
39.32
24.42
9.13
-5.84
-19.61
-31.38
-40.74
-47.74
-52.85
-56.66
-59.62
-61.94
-63.57
-64.31
-64.07
-62.97
-61.42
-60.03
-59.48
-60.34
-63.0
-67.57
-73.86
-81.17
-88.28
-93.45
-94.86
-91.17
-82.08
-68.74
-53.33
-38.38
-25.9
-16.83
-10.9
-7.16
-4.61
-2.71
-1.47
-1.18
-2.09
-4.03
-6.52
-8.92
-10.8
-12.1
-13.04
-14.02
-15.25
-16.63
-17.8
-18.38
-18.17
-17.35
-16.4
-15.9
-16.29
-17.61
-19.53
-21.48
-22.85
-23.23
-22.57
-21.21
-19.73
-18.77
-18.79
-19.97
-22.21
-25.27
-28.84
-32.64
-36.33
-39.44
-41.42
-41.7
-39.92
-36.07
-30.52
-23.9
-16.96
-10.38
-4.65
-0.02
3.52
6.15
8.29
10.42
12.94
16.1
19.85
23.89
27.62
30.37
31.63
31.15
29.14
26.15
22.85
19.75
16.98
14.31
11.36
7.91
4.02
0.04
-3.58
-6.57
-8.9
-10.85
-12.76
-14.96
-17.59
-20.67
-24.21
-28.24
-32.74
-37.49
-41.9
-45.03
-45.88
-43.74
-38.46
-30.59
-21.13
-11.25
-1.89
6.37
13.37
19.22
24.12
28.21
31.5
33.85
35.0
34.75
33.06
30.2
26.62
22.84
19.24
15.93
12.77
9.51
6.06
2.51
-0.85
-3.74
-6.09
-8.09
-10.2
-12.82
-16.08
-19.67
-23.0
-25.36
-26.29
-25.71
-23.95
-21.58
-19.2
-17.37
-16.5
-16.88
-18.64
-21.61
-25.31
-28.94
-31.56
-32.34
-30.78
-26.8
-20.73
-13.16
-4.83
3.47
11.0
17.16
21.55
24.07
24.9
24.42
23.05
21.18
19.12
17.08
15.3
14.01
13.47
13.83
15.0
16.62
18.06
18.68
18.02
15.93
12.69
8.83
4.87
1.22
-1.97
-4.69
-7.01
-8.88
-10.22
-10.96
-11.16
-11.02
-10.81
-10.83
-11.29
-12.32
-14.02
-16.44
-19.5
-22.89
-25.92
-27.69
-27.26
-24.09
-18.29
-10.75
-2.81
4.09
8.85
11.0
10.64
8.35
4.92
1.18
-2.15
-4.51
-5.53
-5.13
-3.5
-0.98
1.94
4.86
7.47
9.67
11.6
13.59
16.05
19.31
23.36
27.77
31.73
34.25
34.45
31.81
26.34
18.56
9.32
-0.37
-9.6
-17.65
-24.11
-28.83
-31.92
-33.69
-34.42
-34.36
-33.55
-31.84
-28.97
-24.76
-19.25
-12.76
-5.81
1.0
7.2
12.51
16.83
20.16
22.46
23.7
23.94
23.35
22.3
21.2
20.39
20.04
20.1
20.37
20.66
20.86
20.94
20.89
20.64
20.04
18.9
17.12
14.7
11.78
8.52
5.1
1.66
-1.66
-4.69
-7.27
-9.33
-10.94
-12.38
-14.05
-16.34
-19.47
-23.44
-28.02
-32.95
-37.92
-42.6
-46.62
-49.51
-50.78
-50.06
-47.3
-42.83
-37.27
-31.37
-25.71
-20.59
-16.01
-11.82
-7.84
-4.01
-0.36
3.06
6.28
9.38
12.42
15.38
18.09
20.23
21.56
22.03
21.83
21.38
21.11
21.26
21.86
22.68
23.34
23.49
22.85
21.26
18.7
15.28
11.2
6.79
2.4
-1.62
-5.13
-8.12
-10.81
-13.51
-16.53
-20.07
-24.16
-28.51
-32.62
-35.76
-37.22
-36.55
-33.62
-28.82
-22.82
-16.45
-10.45
-5.35
-1.44
1.21
2.65
3.02
2.57
1.61
0.54
-0.29
-0.68
-0.55
0.01
0.82
1.68
2.46
3.05
3.43
3.56
3.42
2.97
2.17
0.99
-0.52
-2.25
-3.98
-5.5
-6.6
-7.19
-7.31
-7.12
-6.86
-6.7
-6.69
-6.76
-6.8
-6.75
-6.63
-6.58
-6.71
-6.97
-7.05
-6.46
-4.66
-1.29
3.65
9.8
16.57
23.39
29.79
35.45
40.09
43.33
44.78
44.15
41.46
37.17
32.02
26.8
22.1
18.13
14.78
11.85
9.23
6.96
5.16
3.85
2.93
2.12
1.11
-0.3
-2.15
-4.36
-6.8
-9.39
-12.1
-14.91
-17.78
-20.63
-23.37
-25.89
-28.17
-30.27
-32.32
-34.51
-36.88
-39.34
-41.51
-42.85
-42.73
-40.63
-36.36
-30.16
-22.62
-14.63
-7.08
-0.61
4.52
8.4
11.35
13.73
15.74
17.4
18.63
19.39
19.82
20.16
20.7
21.58
22.72
23.87
24.71
24.99
24.66
23.83
22.63
21.15
19.37
17.15
14.39
11.07
7.28
3.23
-0.79
-4.56
-7.9
-10.74
-13.16
-15.28
-17.28
-19.3
-21.43
-23.65
-25.85
-27.88
-29.5
-30.4
-30.23
-28.65
-25.53
-20.98
-15.42
-9.43
-3.6
1.66
6.17
9.97
13.17
15.82
17.9
19.32
20.01
20.01
19.5
18.76
18.09
17.75
17.85
18.32
18.91
19.31
19.26
18.69
17.69
16.45
15.14
13.79
12.29
10.43
8.11
5.38
2.41
-0.58
-3.5
-6.39
-9.4
-12.66
-16.22
-20.03
-23.97
-27.97
-32.04
-36.2
-40.33
-44.12
-47.02
-48.45
-47.91
-45.22
-40.56
-34.43
-27.47
-20.36
-13.62
-7.67
-2.83
0.66
2.58
2.88
1.65
-0.82
-4.08
-7.64
-11.02
-13.83
-15.76
-16.66
-16.53
-15.49
-13.8
-11.75
-9.63
-7.62
-5.85
-4.33
-3.07
-2.06
-1.24
-0.51
0.21
0.98
1.77
2.43
2.85
3.05
3.22
3.65
4.61
6.13
7.92
9.47
10.21
9.75
8.03
5.4
2.46
-0.1
-1.65
-1.79
-0.38
2.41
6.18
10.36
14.31
17.51
19.6
20.47
20.24
19.2
17.7
16.09
14.58
13.3
12.24
11.34
10.54
9.86
9.4
9.27
9.57
10.24
11.05
11.69
11.87
11.42
10.4
8.92
7.12
5.09
2.83
0.38
-2.15
-4.56
-6.68
-8.4
-9.78
-10.97
-12.15
-13.51
-15.16
-17.2
-19.67
-22.55
-25.58
-28.35
-30.29
-30.89
-29.83
-27.15
-23.18
-18.4
-13.34
-8.38
-3.76
0.39
4.0
6.96
9.18
10.6
11.28
11.43
11.41
11.58
12.26
13.54
15.38
17.54
19.81
22.06
24.35
26.77
29.38
32.04
34.43
36.07
36.52
35.5
32.93
29.01
24.1
18.7
13.25
8.11
3.46
-0.77
-4.77
-8.76
-12.84
-16.97
-20.99
-24.7
-27.92
-30.4
-31.8
-31.68
-29.59
-25.2
-18.55
-10.03
-0.32
9.83
19.73
28.91
37.04
43.94
49.54
53.84
56.98
59.23
60.9
62.29
63.58
64.75
65.65
66.07
65.8
64.79
63.07
60.77
58.02
54.86
51.4
47.67
43.77
39.74
35.6
31.25
26.59
21.55
16.23
10.88
5.79
1.19
-2.88
-6.54
-9.99
-13.42
-16.93
-20.56
-24.32
-28.22
-32.26
-36.29
-39.95
-42.71
-43.94
-43.18
-40.27
-35.51
-29.59
-23.36
-17.62
-12.84
-9.15
-6.43
-4.47
-3.2
-2.7
-3.11
-4.47
-6.64
-9.24
-11.8
-13.95
-15.5
-16.49
-17.05
-17.35
-17.48
-17.48
-17.38
-17.3
-17.31
-17.48
-17.75
-17.97
-17.99
-17.71
-17.17
-16.46
-15.61
-14.57
-13.17
-11.26
-8.8
-5.94
-2.95
-0.13
2.26
4.08
5.19
5.56
5.22
4.35
3.3
2.57
2.58
3.63
5.67
8.3
10.99
13.16
14.42
14.67
14.07
12.91
11.46
9.84
8.05
5.99
3.62
1.02
-1.62
-4.05
-6.16
-8.04
-9.91
-12.07
-14.67
-17.71
-21.0
-24.3
-27.42
-30.22
-32.61
-34.53
-35.93
-36.78
-37.19
-37.36
-37.49
-37.74
-38.1
-38.44
-38.64
-38.72
-38.86
-39.34
-40.36
-41.9
-43.65
-45.12
-45.75
-45.12
-42.98
-39.3
-34.23
-28.02
-21.02
-13.64
-6.31
0.57
6.61
11.51
15.03
17.01
17.41
16.37
14.25
11.62
9.17
7.48
6.96
7.67
9.38
11.69
14.12
16.38
18.27
19.72
20.71
21.2
21.14
20.5
19.29
17.6
15.57
13.34
11.02
8.57
5.95
3.08
-0.02
-3.22
-6.34
-9.15
-11.57
-13.65
-15.45
-17.05
-18.35
-19.06
-18.8
-17.25
-14.25
-9.86
-4.39
1.69
7.88
13.68
18.8
23.1
26.63
29.48
31.73
33.35
34.26
34.38
33.76
32.55
30.96
29.2
27.36
25.44
23.39
21.19
18.9
16.67
14.64
12.91
11.46
10.19
8.96
7.67
6.27
4.81
3.35
1.93
0.55
-0.87
-2.38
-4.01
-5.69
-7.3
-8.77
-10.06
-11.28
-12.6
-14.17
-15.97
-17.79
-19.19
-19.59
-18.48
-15.55
-10.83
-4.7
2.23
9.24
15.73
21.34
25.97
29.72
32.78
35.26
37.15
38.32
38.66
38.21
37.18
35.89
34.64
33.58
32.68
31.79
30.7
29.31
27.56
25.49
23.16
20.66
18.14
15.71
13.49
11.47
9.62
7.82
6.0
4.14
2.28
0.49
-1.23
-2.92
-4.68
-6.6
-8.74
-11.11
-13.65
-16.15
-18.31
-19.68
-19.83
-18.43
-15.44
-11.2
-6.26
-1.27
3.22
6.94
9.8
11.85
13.16
13.71
13.45
12.39
10.67
8.55
6.38
4.47
2.99
1.94
1.13
0.33
-0.65
-1.91
-3.42
-5.09
-6.8
-8.39
-9.77
-10.88
-11.73
-12.36
-12.85
-13.28
-13.71
-14.15
-14.56
-14.93
-15.27
-15.65
-16.18
-16.98
-18.16
-19.73
-21.59
-23.45
-24.88
-25.38
-24.5
-22.04
-18.08
-13.01
-7.44
-1.96
2.96
7.05
10.27
12.72
14.51
15.75
16.54
16.96
17.15
17.21
17.23
17.32
17.52
17.86
18.38
19.04
19.84
20.71
21.6
22.43
23.12
23.59
23.79
23.7
23.35
22.81
22.13
21.36
20.53
19.65
18.74
17.78
16.74
15.53
13.98
11.92
9.23
5.89
2.03
-2.08
-6.01
-9.29
-11.49
-12.31
-11.64
-9.65
-6.73
-3.38
-0.09
2.79
5.11
6.88
8.14
8.96
9.31
9.18
8.56
7.53
6.23
4.86
3.6
2.54
1.74
1.17
0.74
0.37
-0.06
-0.61
-1.31
-2.12
-2.92
-3.64
-4.25
-4.84
-5.55
-6.54
-7.89
-9.55
-11.4
-13.34
-15.3
-17.3
-19.37
-21.5
-23.6
-25.49
-26.96
-27.81
-27.86
-26.97
-25.02
-21.95
-17.82
-12.84
-7.37
-1.83
3.32
7.76
11.25
13.76
15.32
16.04
16.09
15.71
15.17
14.75
14.69
15.12
16.03
17.24
18.5
19.54
20.17
20.3
20.0
19.41
18.67
17.88
17.0
15.92
14.56
12.93
11.16
9.5
8.19
7.36
6.98
6.94
7.04
7.13
7.12
6.99
6.79
6.64
6.75
7.39
8.87
11.33
14.72
18.68
22.67
26.15
28.7
30.16
30.63
30.31
29.44
28.18
26.64
24.91
23.14
21.49
20.12
19.11
18.46
18.13
18.02
18.09
18.26
18.49
18.72
18.93
19.13
19.33
19.52
19.59
19.37
18.65
17.26
15.07
12.0
7.99
3.01
-2.93
-9.72
-17.17
-25.1
-33.41
-42.11
-51.3
-60.9
-70.58
-79.64
-87.18
-92.34
-94.53
-93.61
-89.83
-83.78
-76.17
-67.7
-58.99
-50.52
-42.64
-35.58
-29.42
-24.08
-19.34
-14.9
-10.41
-5.53
0.01
6.4
13.7
21.87
30.77
40.12
49.58
58.76
67.32
75.05
81.88
87.82
92.9
97.1
100.39
102.73
104.09
104.51
104.01
102.51
99.88
96.01
90.89
84.7
77.75
70.32
62.55
54.45
46.04
37.48
29.23
21.95
16.27
12.58
10.8
10.47
10.89
11.36
11.37
10.68
9.29
7.28
4.8
1.95
-1.17
-4.41
-7.61
-10.57
-13.12
-15.16
-16.63
-17.5
-17.81
-17.67
-17.26
-16.85
-16.69
-16.93
-17.53
-18.33
-19.13
-19.84
-20.57
-21.48
-22.74
-24.33
-26.06
-27.64
-28.83
-29.61
-30.12
-30.71
-31.71
-33.36
-35.71
-38.53
-41.37
-43.69
-44.95
-44.84
-43.34
-40.68
-37.27
-33.48
-29.62
-25.89
-22.51
-19.68
-17.67
-16.68
-16.76
-17.82
-19.65
-21.95
-24.44
-26.82
-28.78
-30.06
-30.54
-30.31
-29.63
-28.87
-28.31
-28.07
-28.09
-28.27
-28.54
-28.92
-29.55
-30.53
-31.86
-33.48
-35.27
-37.13
-39.01
-40.85
-42.56
-44.07
-45.33
-46.44
-47.59
-49.02
-50.8
-52.77
-54.53
-55.5
-55.16
-53.19
-49.57
-44.58
-38.67
-32.32
-26.04
-20.24
-15.23
-11.18
-8.15
-6.04
-4.64
-3.75
-3.13
-2.68
-2.37
-2.32
-2.7
-3.62
-5.11
-7.04
-9.17
-11.22
-12.97
-14.28
-15.09
-15.39
-15.26
-14.77
-14.13
-13.56
-13.31
-13.54
-14.25
-15.31
-16.48
-17.54
-18.37
-18.98
-19.46
-19.95
-20.52
-21.17
-21.84
-22.39
-22.67
-22.49
-21.63
-19.81
-16.84
-12.69
-7.61
-2.13
3.09
7.49
10.76
12.87
14.04
14.45
14.27
13.58
12.45
11.05
9.65
8.49
7.71
7.3
7.12
7.01
6.87
6.68
6.52
6.45
6.5
6.64
6.75
6.65
6.21
5.43
4.47
3.64
3.23
3.37
3.91
4.53
4.81
4.43
3.29
1.46
-0.83
-3.31
-5.62
-7.38
-8.18
-7.67
-5.69
-2.37
1.88
6.48
10.87
14.67
17.73
20.08
21.86
23.19
24.09
24.52
24.43
23.86
22.99
22.07
21.42
21.25
21.56
22.17
22.83
23.32
23.55
23.58
23.57
23.59
23.66
23.63
23.37
22.71
21.58
19.98
17.9
15.38
12.39
8.91
4.91
0.46
-4.3
-9.17
-13.88
-18.19
-21.85
-24.66
-26.39
-26.89
-26.0
-23.7
-20.18
-15.82
-11.17
-6.76
-3.01
-0.05
2.18
3.87
5.17
6.12
6.64
6.68
6.33
5.81
5.46
5.55
6.15
7.1
8.1
8.86
9.2
9.11
8.69
8.1
7.41
6.63
5.68
4.43
2.86
0.98
-1.04
-3.05
-4.9
-6.55
-8.06
-9.52
-11.06
-12.72
-14.51
-16.43
-18.48
-20.54
-22.4
-23.68
-23.89
-22.66
-19.89
-15.85
-11.12
-6.37
-2.17
1.22
3.82
5.81
7.36
8.57
9.36
9.66
9.43
8.74
7.8
6.88
6.23
6.0
6.21
6.7
7.3
7.83
8.17
8.27
8.13
7.76
7.11
6.19
5.0
3.64
2.24
0.93
-0.22
-1.2
-2.06
-2.85
-3.64
-4.42
-5.25
-6.16
-7.27
-8.66
-10.4
-12.35
-14.24
-15.61
-15.98
-14.96
-12.42
-8.53
-3.74
1.37
6.27
10.56
14.1
16.83
18.84
20.17
20.86
20.94
20.52
19.76
18.91
18.25
17.95
18.04
18.42
18.82
19.01
18.85
18.34
17.59
16.74
15.88
14.91
13.7
12.09
10.04
7.67
5.23
3.0
1.12
-0.4
-1.71
-3.04
-4.6
-6.45
-8.58
-10.85
-13.04
-14.83
-15.89
-15.88
-14.58
-12.03
-8.46
-4.33
-0.11
3.77
7.11
9.87
12.12
13.9
15.19
15.91
16.04
15.67
15.08
14.58
14.41
14.61
15.02
15.3
15.2
14.59
13.57
12.38
11.23
10.24
9.38
8.51
7.48
6.21
4.66
2.88
0.98
-0.92
-2.67
-4.18
-5.45
-6.56
-7.69
-9.02
-10.7
-12.78
-15.17
-17.61
-19.76
-21.16
-21.34
-19.93
-16.84
-12.29
-6.84
-1.23
3.86
8.0
11.1
13.33
14.99
16.28
17.23
17.77
17.78
17.31
16.53
15.73
15.14
14.9
14.99
15.28
15.64
15.93
16.12
16.19
16.09
15.76
15.08
13.9
12.19
10.0
7.48
4.9
2.46
0.32
-1.56
-3.29
-5.07
-7.05
-9.3
-11.81
-14.49
-17.18
-19.72
-21.83
-23.13
-23.26
-21.95
-19.13
-15.06
-10.23
-5.25
-0.64
3.27
6.44
8.95
10.87
12.2
12.85
12.71
11.84
10.41
8.77
7.22
6.02
5.26
4.9
4.81
4.78
4.64
4.22
3.47
2.43
1.19
-0.16
-1.62
-3.33
-5.42
-7.93
-10.74
-13.61
-16.27
-18.56
-20.46
-22.07
-23.53
-24.96
-26.41
-27.88
-29.29
-30.42
-30.98
-30.63
-29.05
-26.12
-21.95
-16.88
-11.38
-5.91
-0.84
3.65
7.42
10.46
12.75
14.3
15.08
15.14
14.6
13.72
12.79
12.14
11.94
12.16
12.59
12.94
12.99
12.62
11.88
10.93
9.9
8.86
7.8
6.61
5.22
3.57
1.72
-0.21
-2.0
-3.52
-4.72
-5.71
-6.75
-8.1
-9.9
-12.1
-14.42
-16.42
-17.67
-17.85
-16.78
-14.51
-11.25
-7.38
-3.32
0.56
3.98
6.81
9.0
10.54
11.43
11.68
11.37
10.67
9.81
9.02
8.45
8.12
7.94
7.78
7.55
7.18
6.66
5.98
5.17
4.3
3.43
2.58
1.75
0.89
-0.06
-1.14
-2.27
-3.34
-4.25
-4.93
-5.41
-5.82
-6.36
-7.16
-8.35
-9.89
-11.61
-13.16
-14.12
-14.09
-12.81
-10.23
-6.54
-2.12
2.61
7.25
11.53
15.26
18.39
20.91
22.87
24.34
25.38
26.07
26.42
26.45
26.18
25.67
25.02
24.34
23.69
23.05
22.34
21.45
20.25
18.74
16.95
14.96
12.86
10.73
8.55
6.27
3.84
1.26
-1.37
-3.8
-5.82
-7.27
-8.21
-8.92
-9.78
-11.1
-13.03
-15.45
-17.98
-20.16
-21.46
-21.48
-19.99
-17.05
-12.95
-8.24
-3.48
0.82
4.37
7.1
9.04
10.31
10.98
11.06
10.59
9.68
8.51
7.29
6.24
5.49
5.1
4.96
4.93
4.78
4.37
3.65
2.68
1.59
0.49
-0.59
-1.74
-3.05
-4.6
-6.33
-8.1
-9.78
-11.25
-12.53
-13.68
-14.79
-15.88
-16.99
-18.14
-19.42
-20.89
-22.48
-23.93
-24.79
-24.54
-22.84
-19.62
-15.19
-10.12
-5.0
-0.29
3.72
6.95
9.43
11.18
12.21
12.52
12.19
11.36
10.26
9.17
8.3
7.8
7.66
7.79
8.03
8.21
8.26
8.13
7.83
7.37
6.67
5.67
4.32
2.68
0.87
-0.93
-2.53
-3.86
-4.9
-5.78
-6.68
-7.83
-9.42
-11.53
-14.07
-16.76
-19.14
-20.69
-20.98
-19.75
-17.05
-13.16
-8.53
-3.67
0.95
4.95
8.1
10.32
11.71
12.43
12.69
12.62
12.27
11.62
10.69
9.59
8.53
7.8
7.55
7.77
8.25
8.67
8.78
8.44
7.7
6.75
5.73
4.75
3.81
2.8
1.61
0.15
-1.51
-3.24
-4.82
-6.09
-7.01
-7.68
-8.34
-9.22
-10.48
-12.11
-13.99
-15.81
-17.24
-17.91
-17.51
-15.86
-13.0
-9.2
-4.92
-0.67
3.11
6.18
8.46
10.0
10.85
11.1
10.77
9.98
8.9
7.77
6.79
6.1
5.73
5.62
5.65
5.73
5.74
5.66
5.47
5.17
4.75
4.21
3.51
2.63
1.54
0.25
-1.19
-2.7
-4.19
-5.55
-6.72
-7.66
-8.43
-9.15
-10.0
-11.19
-12.86
-15.0
-17.46
-19.87
-21.78
-22.71
-22.28
-20.38
-17.18
-13.07
-8.56
-4.12
-0.07
3.39
6.18
8.26
9.59
10.2
10.21
9.78
9.18
8.66
8.36
8.35
8.54
8.82
9.03
9.13
9.1
9.04
9.0
9.03
8.99
8.72
7.97
6.61
4.67
2.32
-0.15
-2.49
-4.48
-6.08
-7.33
-8.4
-9.46
-10.66
-12.13
-13.83
-15.61
-17.16
-18.11
-18.06
-16.76
-14.14
-10.42
-5.96
-1.29
3.1
6.84
9.69
11.64
12.76
13.2
13.1
12.58
11.73
10.66
9.54
8.53
7.78
7.37
7.24
7.27
7.3
7.21
6.94
6.51
5.94
5.24
4.39
3.39
2.23
0.97
-0.36
-1.71
-3.08
-4.49
-5.91
-7.29
-8.55
-9.69
-10.82
-12.09
-13.69
-15.67
-17.87
-19.88
-21.16
-21.23
-19.79
-16.87
-12.83
-8.22
-3.65
0.38
3.59
5.96
7.68
8.96
10.01
10.85
11.4
11.53
11.18
10.42
9.43
8.49
7.82
7.56
7.71
8.13
8.62
8.96
8.95
8.52
7.63
6.37
4.81
3.06
1.15
-0.85
-2.9
-4.88
-6.68
-8.21
-9.47
-10.59
-11.72
-13.03
-14.63
-16.57
-18.8
-21.22
-23.6
-25.59
-26.8
-26.86
-25.61
-23.13
-19.78
-16.04
-12.36
-9.04
-6.23
-3.92
-2.1
-0.8
-0.11
-0.11
-0.8
-2.07
-3.7
-5.41
-6.86
-7.82
-8.16
-7.88
-7.12
-6.02
-4.76
-3.44
-2.11
-0.75
0.61
1.9
2.98
3.66
3.78
3.35
2.49
1.44
0.5
-0.14
-0.43
-0.48
-0.49
-0.71
-1.33
-2.42
-3.95
-5.74
-7.48
-8.76
-9.12
-8.21
-5.88
-2.3
2.1
6.75
11.09
14.72
17.43
19.21
20.15
20.4
20.11
19.44
18.52
17.45
16.31
15.15
14.01
12.99
12.15
11.56
11.2
10.98
10.74
10.39
9.84
9.1
8.21
7.17
5.97
4.57
2.95
1.13
-0.74
-2.46
-3.79
-4.54
-4.64
-4.14
-3.27
-2.36
-1.76
-1.74
-2.36
-3.43
-4.55
-5.24
-5.08
-3.86
-1.61
1.41
4.85
8.3
11.41
13.95
15.75
16.83
17.27
17.28
17.03
16.63
16.08
15.36
14.46
13.48
12.57
11.9
11.54
11.4
11.35
11.2
10.85
10.28
9.53
8.68
7.74
6.68
5.47
4.07
2.5
0.79
-0.98
-2.76
-4.45
-5.95
-7.18
-8.09
-8.74
-9.27
-9.91
-10.85
-12.19
-13.82
-15.44
-16.58
-16.74
-15.53
-12.74
-8.45
-2.95
3.31
9.87
16.29
22.29
27.77
32.76
37.38
41.78
46.08
50.29
54.34
58.09
61.46
64.48
67.35
70.49
74.37
79.41
85.7
92.77
99.6
104.81
107.11
105.62
100.15
91.26
80.12
68.14
56.65
46.61
38.3
31.32
24.73
17.36
8.28
-2.65
-14.23
-23.94
-28.62
-25.72
-14.65
2.52
21.47
36.99
44.5
41.24
26.54
1.78
-29.76
-63.06
-91.82
-109.68
-112.37
-99.55
-75.43
-47.56
-23.92
-10.01
-7.2
-13.27
-24.39
-37.04
-49.2
-60.09
-69.34
-76.45
-80.73
-81.9
-80.42
-77.46
-74.48
-72.5
-71.73
-71.5
-70.65
-68.12
-63.46
-57.05
-49.93
-43.27
-37.93
-34.09
-31.25
-28.51
-24.95
-20.04
-13.76
-6.52
1.14
8.9
16.87
25.54
35.47
46.92
59.52
72.36
84.2
93.95
101.0
105.29
107.19
107.17
105.62
102.7
98.42
92.81
85.98
78.15
69.62
60.73
51.78
43.08
34.9
27.52
21.17
15.99
11.98
8.94
6.51
4.15
1.34
-2.37
-7.25
-13.29
-20.34
-28.13
-36.39
-44.91
-53.55
-62.15
-70.48
-78.32
-85.5
-92.02
-98.05
-103.86
-109.66
-115.37
-120.58
-124.51
-126.22
-124.68
-119.13
-109.24
-95.36
-78.51
-60.27
-42.4
-26.38
-13.17
-2.99
4.41
9.51
12.76
14.49
14.99
14.62
13.82
13.07
12.64
12.58
12.65
12.48
11.81
10.57
8.85
6.89
4.89
2.98
1.2
-0.43
-1.89
-3.16
-4.27
-5.27
-6.24
-7.18
-7.99
-8.48
-8.54
-8.23
-7.85
-7.83
-8.54
-10.02
-11.92
-13.58
-14.21
-13.23
-10.46
-6.14
-0.86
4.65
9.71
13.78
16.6
18.09
18.38
17.68
16.22
14.21
11.82
9.31
6.96
5.07
3.83
3.28
3.21
3.28
3.15
2.61
1.66
0.43
-0.85
-2.08
-3.24
-4.41
-5.66
-6.97
-8.21
-9.18
-9.68
-9.66
-9.24
-8.75
-8.6
-9.17
-10.7
-13.27
-16.78
-20.98
-25.46
-29.64
-32.8
-34.22
-33.34
-30.06
-24.77
-18.32
-11.69
-5.71
-0.82
2.94
5.75
7.8
9.19
9.87
9.84
9.18
8.09
6.86
5.73
4.81
4.06
3.34
2.51
1.44
0.12
-1.39
-2.96
-4.49
-5.97
-7.44
-9.01
-10.81
-12.88
-15.22
-17.71
-20.17
-22.42
-24.3
-25.75
-26.87
-27.84
-28.96
-30.46
-32.47
-34.81
-37.02
-38.48
-38.53
-36.72
-32.9
-27.27
-20.28
-12.57
-4.77
2.6
9.17
14.77
19.31
22.81
25.32
26.95
27.9
28.5
29.11
30.05
31.4
33.0
34.49
35.45
35.62
34.96
33.63
31.87
29.86
27.6
25.01
21.98
18.56
14.97
11.55
8.63
6.3
4.45
2.74
0.76
-1.78
-5.03
-9.0
-13.62
-18.76
-24.16
-29.38
-33.78
-36.65
-37.4
-35.78
-31.97
-26.54
-20.26
-13.89
-8.01
-2.98
1.08
4.21
6.47
8.01
8.91
9.28
9.18
8.72
8.02
7.24
6.56
6.11
5.98
6.14
6.5
6.9
7.23
7.39
7.34
7.01
6.36
5.31
3.78
1.82
-0.49
-2.95
-5.44
-7.86
-10.17
-12.41
-14.58
-16.7
-18.8
-20.95
-23.28
-25.94
-28.98
-32.25
-35.33
-37.63
-38.44
-37.27
-33.92
-28.65
-22.09
-15.01
-8.15
-1.96
3.35
7.82
11.54
14.55
16.84
18.34
19.04
19.07
18.68
18.2
17.92
17.97
18.33
18.84
19.3
19.62
19.76
19.71
19.44
18.85
17.84
16.39
14.6
12.69
10.83
9.08
7.33
5.46
3.37
1.08
-1.27
-3.53
-5.61
-7.53
-9.34
-11.22
-13.33
-15.87
-18.97
-22.61
-26.51
-30.07
-32.51
-33.1
-31.46
-27.65
-22.22
-15.93
-9.54
-3.56
1.73
6.27
10.06
13.02
15.08
16.23
16.62
16.59
16.55
16.82
17.5
18.44
19.33
19.93
20.22
20.33
20.53
20.96
21.56
22.06
22.15
21.65
20.56
19.04
17.3
15.43
13.43
11.23
8.82
6.28
3.73
1.3
-0.98
-3.14
-5.28
-7.48
-9.77
-12.21
-14.87
-17.84
-21.09
-24.43
-27.38
-29.24
-29.36
-27.27
-23.02
-17.1
-10.37
-3.69
2.25
7.15
11.05
14.12
16.55
18.43
19.74
20.44
20.58
20.27
19.7
19.06
18.5
18.14
18.03
18.17
18.5
18.88
19.19
19.31
19.11
18.52
17.52
16.12
14.39
12.46
10.42
8.38
6.36
4.32
2.19
-0.06
-2.44
-4.85
-7.22
-9.51
-11.77
-14.13
-16.74
-19.71
-22.98
-26.34
-29.31
-31.31
-31.73
-30.14
-26.46
-21.04
-14.53
-7.69
-1.23
4.42
9.1
12.84
15.74
17.9
19.35
20.16
20.42
20.32
20.07
19.92
20.02
20.45
21.21
22.18
23.25
24.27
25.14
25.75
26.0
25.8
25.05
23.74
21.93
19.82
17.64
15.56
13.64
11.75
9.73
7.49
5.1
2.77
0.71
-1.05
-2.66
-4.45
-6.74
-9.76
-13.52
-17.8
-22.24
-26.34
-29.5
-31.13
-30.72
-28.03
-23.27
-17.04
-10.24
-3.83
1.53
5.54
8.31
10.19
11.56
12.66
13.54
14.1
14.25
13.97
13.42
12.79
12.31
12.12
12.22
12.52
12.91
13.28
13.57
13.74
13.66
13.14
12.0
10.16
7.75
5.08
2.54
0.43
-1.23
-2.62
-4.01
-5.6
-7.41
-9.28
-11.05
-12.63
-14.12
-15.78
-17.86
-20.59
-24.04
-28.08
-32.34
-36.29
-39.21
-40.41
-39.4
-36.11
-30.86
-24.3
-17.23
-10.37
-4.22
0.96
5.13
8.35
10.74
12.44
13.54
14.14
14.36
14.29
14.06
13.85
13.78
13.95
14.33
14.83
15.3
15.65
15.83
15.85
15.7
15.34
14.59
13.26
11.22
8.52
5.4
2.24
-0.62
-3.04
-5.05
-6.87
-8.73
-10.73
-12.83
-14.9
-16.83
-18.66
-20.56
-22.81
-25.64
-29.11
-32.98
-36.72
-39.6
-40.83
-39.87
-36.58
-31.28
-24.63
-17.48
-10.55
-4.31
1.0
5.37
8.83
11.45
13.31
14.49
15.13
15.39
15.42
15.36
15.31
15.4
15.69
16.23
17.0
17.92
18.8
19.47
19.73
19.45
18.54
17.01
14.94
12.45
9.73
6.96
4.26
1.7
-0.76
-3.26
-5.91
-8.72
-11.62
-14.42
-16.97
-19.22
-21.32
-23.53
-26.22
-29.6
-33.6
-37.81
-41.49
-43.79
-43.98
-41.67
-36.96
-30.47
-23.03
-15.52
-8.59
-2.54
2.57
6.82
10.31
13.06
15.09
16.49
17.42
18.07
18.6
19.05
19.38
19.52
19.5
19.46
19.54
19.81
20.23
20.6
20.65
20.15
18.97
17.16
14.87
12.37
9.94
7.8
6.06
4.64
3.33
1.85
-0.02
-2.34
-4.98
-7.68
-10.18
-12.3
-14.09
-15.79
-17.8
-20.47
-24.01
-28.29
-32.84
-36.88
-39.53
-40.08
-38.18
-33.95
-27.93
-20.85
-13.45
-6.28
0.26
5.97
10.69
14.37
16.99
18.62
19.41
19.62
19.43
19.07
18.72
18.52
18.6
19.02
19.73
20.63
21.58
22.45
23.18
23.69
23.87
23.62
22.77
21.27
19.18
16.7
14.15
11.79
9.77
8.08
6.53
4.91
3.01
0.74
-1.85
-4.62
-7.42
-10.14
-12.82
-15.56
-18.62
-22.14
-26.2
-30.65
-35.09
-38.96
-41.59
-42.35
-40.86
-37.08
-31.36
-24.4
-17.01
-9.91
-3.57
1.86
6.48
10.46
13.92
16.86
19.18
20.79
21.62
21.77
21.43
20.89
20.39
20.12
20.13
20.35
20.63
20.86
20.95
20.9
20.7
20.33
19.68
18.63
17.1
15.14
12.93
10.66
8.5
6.44
4.44
2.39
0.26
-1.89
-3.99
-6.04
-8.12
-10.4
-13.05
-16.2
-19.85
-23.87
-27.97
-31.65
-34.26
-35.17
-33.88
-30.32
-24.84
-18.18
-11.2
-4.63
1.12
5.96
9.99
13.33
15.99
17.91
19.06
19.52
19.52
19.38
19.39
19.68
20.24
20.93
21.64
22.28
22.9
23.5
24.06
24.4
24.3
23.57
22.17
20.2
17.9
15.57
13.39
11.42
9.57
7.66
5.52
3.08
0.38
-2.41
-5.1
-7.59
-9.89
-12.12
-14.52
-17.31
-20.71
-24.75
-29.29
-33.84
-37.7
-40.0
-40.02
-37.43
-32.39
-25.58
-17.91
-10.23
-3.15
3.03
8.24
12.48
15.72
17.93
19.13
19.47
19.27
18.88
18.65
18.76
19.22
19.91
20.67
21.37
21.93
22.33
22.6
22.72
22.67
22.41
21.82
20.85
19.42
17.53
15.23
12.62
9.86
7.11
4.52
2.18
0.1
-1.79
-3.63
-5.55
-7.59
-9.72
-11.87
-14.02
-16.23
-18.66
-21.52
-24.98
-29.03
-33.44
-37.78
-41.45
-43.75
