-27.89
-21.97
-15.34
-8.78
-2.82
2.27
6.49
9.93
12.61
14.47
15.45
15.61
15.19
14.57
14.09
13.93
14.06
14.31
14.48
14.49
14.4
14.32
14.29
14.21
13.81
12.8
10.99
8.39
5.24
1.95
-1.16
-3.86
-6.17
-8.32
-10.63
-13.42
-16.82
-20.68
-24.57
-27.89
-29.98
-30.29
-28.53
-24.76
-19.33
-12.84
-5.95
0.71
6.64
11.51
15.16
17.56
18.82
19.08
18.54
17.48
16.22
15.04
14.2
13.8
13.8
14.01
14.24
14.33
14.25
14.04
13.74
13.32
12.63
11.45
9.61
7.14
4.19
1.07
-1.92
-4.63
-7.08
-9.48
-12.1
-15.21
-18.92
-23.11
-27.39
-31.23
-33.99
-35.08
-34.13
-31.05
-26.06
-19.68
-12.59
-5.5
1.04
6.67
11.27
14.81
17.36
18.96
19.67
19.63
19.07
18.34
17.73
17.43
17.44
17.62
17.79
17.8
17.63
17.29
16.8
16.14
15.2
13.88
12.06
9.72
6.91
3.77
0.52
-2.63
-5.49
-7.95
-10.08
-12.1
-14.35
-17.14
-20.63
-24.69
-28.91
-32.65
-35.19
-35.99
-34.76
-31.56
-26.77
-20.95
-14.73
-8.71
-3.36
1.04
4.4
6.71
8.04
8.48
8.15
7.27
6.1
5.01
4.27
3.98
3.98
3.98
3.66
2.93
1.93
1.01
0.48
0.37
0.41
0.09
-1.03
-3.18
-6.23
-9.7
-12.91
-15.2
-16.18
-15.84
-14.67
-13.58
-13.72
-16.17
-21.49
-29.37
-38.37
-46.04
-49.34
-45.6
-33.48
-13.78
10.47
34.88
55.31
69.47
77.61
81.96
85.37
89.78
95.61
101.82
106.73
108.66
106.26
98.51
84.83
65.4
41.63
16.27
-7.24
-25.81
-37.82
-43.48
-44.4
-42.64
-40.04
-37.97
-37.51
-39.58
-44.82
-53.25
-64.09
-75.85
-86.92
-96.12
-103.07
-108.05
-111.53
-113.74
-114.43
-113.12
-109.35
-103.08
-94.74
-85.04
-74.74
-64.45
-54.54
-45.16
-36.35
-28.13
-20.55
-13.73
-7.79
-2.8
1.33
4.79
7.85
10.73
13.51
16.13
18.51
20.54
22.17
23.38
24.11
24.26
23.76
22.62
21.05
19.38
17.95
16.96
16.42
16.08
15.63
14.75
13.2
10.88
7.77
3.94
-0.42
-4.94
-9.04
-12.03
-13.32
-12.58
-9.97
-6.01
-1.42
3.16
7.41
11.31
14.96
18.41
21.5
23.9
25.35
25.8
25.48
24.83
24.27
23.97
23.88
23.77
23.45
22.9
22.25
21.71
21.35
21.06
20.56
19.5
17.69
15.18
12.24
9.29
6.63
4.37
2.38
0.36
-1.98
-4.85
-8.27
-12.07
-15.92
-19.38
-21.9
-23.04
-22.48
-20.16
-16.33
-11.45
-6.11
-0.8
4.13
8.5
12.25
15.32
17.65
19.22
20.01
20.14
19.8
19.26
18.75
18.48
18.52
18.84
19.29
19.69
19.91
19.83
19.46
18.79
17.88
16.7
15.25
13.54
11.65
9.67
7.7
5.71
3.61
1.25
-1.52
-4.7
-8.13
-11.41
-14.02
-15.38
-15.05
-12.84
-8.94
-3.83
1.82
7.37
12.35
16.52
19.8
22.19
23.7
24.36
24.24
23.48
22.27
20.84
19.38
18.05
16.96
16.19
15.74
15.52
15.41
15.26
14.97
14.49
13.8
12.87
11.65
10.08
8.13
5.89
3.49
1.1
-1.26
-3.72
-6.5
-9.79
-13.65
-17.84
-21.87
-25.06
-26.75
-26.46
-24.1
-19.92
-14.5
-8.5
-2.54
2.98
7.84
12.01
15.47
18.21
20.2
21.44
22.01
22.11
21.92
21.63
21.34
21.05
20.73
20.36
19.94
19.54
19.21
18.96
18.74
18.36
17.63
16.4
14.6
12.36
9.85
7.34
4.97
2.74
0.55
-1.77
-4.35
-7.3
-10.63
-14.32
-18.25
-22.21
-25.79
-28.48
-29.77
-29.24
-26.81
-22.67
-17.33
-11.4
-5.47
0.05
4.91
9.02
12.33
14.82
16.52
17.52
18.01
18.21
18.34
18.54
18.87
19.28
19.7
20.05
20.25
20.26
20.01
19.46
18.64
17.55
16.3
14.89
13.29
11.39
9.11
6.45
3.55
0.63
-2.04
-4.31
-6.17
-7.8
-9.45
-11.37
-13.77
-16.69
-20.08
-23.75
-27.37
-30.43
-32.35
-32.6
-30.88
-27.22
-22.05
-16.05
-9.93
-4.23
0.79
5.11
8.82
12.02
14.67
16.67
17.92
18.38
18.17
17.47
16.55
15.62
14.82
14.23
13.86
13.68
13.64
13.67
13.63
13.38
12.8
11.81
10.4
8.59
6.45
4.06
1.58
-0.84
-3.04
-4.91
-6.46
-7.87
-9.41
-11.35
-13.87
-16.96
-20.42
-23.9
-26.86
-28.78
-29.19
-27.84
-24.74
-20.21
-14.77
-9.04
-3.49
1.53
5.88
9.53
12.44
14.62
16.05
16.79
17.0
16.86
16.64
16.52
16.6
16.86
17.21
17.53
17.72
17.75
17.61
17.33
16.86
16.14
15.07
13.58
11.69
9.48
7.06
4.56
2.08
-0.34
-2.66
-4.94
-7.28
-9.84
-12.7
-15.8
-18.88
-21.45
-23.0
-23.11
-21.61
-18.65
-14.63
-10.02
-5.29
-0.78
3.31
6.84
9.74
11.91
13.28
13.83
13.62
12.86
11.86
10.95
10.35
10.13
10.13
10.15
10.01
9.66
9.21
8.81
8.52
8.26
7.83
7.01
5.71
4.04
2.18
0.36
-1.33
-2.93
-4.58
-6.43
-8.61
-11.2
-14.24
-17.7
-21.42
-25.09
-28.18
-30.14
-30.48
-28.94
-25.65
-21.04
-15.7
-10.22
-5.05
-0.43
3.59
7.0
9.81
11.98
13.44
14.21
14.39
14.19
13.83
13.47
13.16
12.87
12.53
12.12
11.66
11.25
10.91
10.66
10.35
9.8
8.84
7.35
5.34
2.91
0.26
-2.39
-4.88
-7.1
-9.08
-10.93
-12.84
-14.98
-17.46
-20.29
-23.36
-26.42
-29.12
-31.04
-31.8
-31.13
-28.95
-25.46
-21.01
-16.07
-11.11
-6.45
-2.29
1.33
4.41
6.94
8.93
10.35
11.19
11.57
11.63
11.58
11.59
11.75
12.02
12.28
12.4
12.32
12.03
11.58
10.97
10.12
8.92
7.23
5.04
2.46
-0.24
-2.75
-4.87
-6.57
-7.99
-9.43
-11.19
-13.47
-16.27
-19.38
-22.33
-24.56
-25.47
-24.67
-22.11
-18.06
-13.04
-7.61
-2.27
2.69
7.12
10.91
13.97
16.2
17.53
17.99
17.78
17.17
16.49
15.95
15.64
15.51
15.42
15.3
15.13
14.94
14.74
14.48
13.97
13.01
11.48
9.39
6.93
4.34
1.88
-0.29
-2.13
-3.72
-5.19
-6.71
-8.44
-10.49
-12.94
-15.76
-18.74
-21.55
-23.67
-24.61
-23.98
-21.66
-17.86
-13.05
-7.81
-2.66
2.04
6.17
9.7
12.61
14.9
16.49
17.34
17.49
17.08
16.33
15.5
14.81
14.34
14.05
13.8
13.44
12.94
12.35
11.8
11.29
10.74
9.93
8.61
6.72
4.39
1.91
-0.42
-2.45
-4.23
-5.95
-7.83
-10.02
-12.6
-15.59
-18.99
-22.68
-26.37
-29.51
-31.46
-31.62
-29.74
-26.01
-20.95
-15.22
-9.44
-3.93
1.14
5.69
9.59
12.62
14.62
15.53
15.55
15.0
14.3
13.79
13.63
13.77
14.05
14.26
14.22
13.85
13.16
12.22
11.12
9.88
8.49
6.86
4.94
2.77
0.48
-1.75
-3.75
-5.47
-6.97
-8.41
-9.98
-11.83
-14.05
-16.64
-19.57
-22.65
-25.57
-27.91
-29.16
-28.94
-27.09
-23.76
-19.34
-14.34
-9.25
-4.42
-0.06
3.72
6.86
9.25
10.81
11.47
11.32
10.58
9.61
8.8
8.39
8.44
8.77
9.07
9.06
8.66
8.02
7.39
6.96
6.73
6.48
5.95
4.92
3.45
1.76
0.18
-1.09
-2.08
-2.99
-4.1
-5.63
-7.63
-10.07
-12.8
-15.67
-18.46
-20.84
-22.38
-22.64
-21.35
-18.5
-14.41
-9.58
-4.55
0.27
4.6
8.32
11.33
13.55
14.88
15.3
14.9
13.91
12.68
11.59
10.91
10.73
10.93
11.3
11.55
11.49
11.11
10.53
9.86
9.15
8.32
7.24
5.85
4.16
2.31
0.45
-1.3
-2.91
-4.47
-6.1
-7.93
-10.04
-12.43
-15.01
-17.61
-20.03
-21.95
-23.06
-23.04
-21.68
-18.92
-14.96
-10.21
-5.17
-0.33
3.99
7.67
10.74
13.25
15.18
16.51
17.19
17.31
17.06
16.76
16.66
16.89
17.43
18.13
18.82
19.37
19.72
19.88
19.87
19.67
19.18
18.29
16.96
15.33
13.72
12.54
12.15
12.69
14.05
15.93
18.01
20.12
22.3
24.76
27.74
31.43
35.87
40.95
46.37
51.62
56.03
58.88
59.73
58.58
56.01
52.84
49.59
46.0
40.89
32.61
19.96
3.12
-15.98
-34.1
-47.69
-54.17
-52.68
-44.18
-30.92
-15.82
-1.86
8.29
12.64
10.3
1.89
-10.36
-23.14
-33.12
-38.24
-38.5
-35.9
-33.37
-33.5
-37.5
-45.01
-54.8
-65.68
-77.18
-89.25
-101.5
-112.38
-119.11
-118.62
-109.04
-90.91
-67.39
-43.07
-22.2
-7.09
2.4
8.28
12.96
18.04
23.79
29.43
33.94
36.78
38.05
38.3
38.06
37.53
36.49
34.5
31.33
27.17
22.66
18.66
15.93
14.77
14.96
15.86
16.76
17.18
17.03
16.62
16.36
16.54
17.04
17.44
17.08
15.41
12.26
7.93
3.15
-1.17
-4.2
-5.47
-5.0
-3.15
-0.5
2.44
5.33
8.09
10.75
13.36
15.83
17.93
19.41
20.05
19.8
18.74
17.11
15.1
12.84
10.4
7.82
5.18
2.6
0.26
-1.75
-3.46
-5.05
-6.73
-8.65
-10.8
-12.95
-14.89
-16.48
-17.79
-19.12
-20.79
-23.08
-26.01
-29.39
-32.81
-35.79
-37.87
-38.65
-37.93
-35.65
-31.96
-27.19
-21.84
-16.41
-11.41
-7.12
-3.64
-0.86
1.45
3.57
5.68
7.83
9.9
11.72
13.18
14.25
15.03
15.63
16.09
16.38
16.37
15.97
15.18
14.05
12.69
11.16
9.45
7.48
5.18
2.5
-0.53
-3.88
-7.44
-11.14
-14.86
-18.47
-21.8
-24.57
-26.46
-27.11
-26.26
-23.84
-20.08
-15.48
-10.69
-6.36
-2.88
-0.41
1.19
2.14
2.72
3.07
3.21
3.08
2.58
1.72
0.61
-0.52
-1.44
-1.96
-2.05
-1.8
-1.4
-1.03
-0.89
-1.11
-1.82
-3.03
-4.7
-6.62
-8.55
-10.29
-11.78
-13.14
-14.67
-16.65
-19.3
-22.59
-26.21
-29.57
-31.94
-32.69
-31.48
-28.38
-23.84
-18.5
-12.98
-7.73
-2.92
1.38
5.14
8.26
10.59
12.03
12.57
12.38
11.73
10.89
10.05
9.28
8.54
7.76
6.89
5.92
4.89
3.84
2.76
1.61
0.31
-1.19
-2.86
-4.64
-6.41
-8.08
-9.66
-11.28
-13.2
-15.63
-18.58
-21.73
-24.49
-26.09
-25.94
-23.86
-20.07
-15.17
-9.81
-4.58
0.12
4.07
7.14
9.28
10.53
10.99
10.85
10.31
9.51
8.51
7.32
5.99
4.6
3.27
2.07
0.99
-0.14
-1.44
-3.03
-4.85
-6.78
-8.69
-10.51
-12.31
-14.14
-16.02
-17.85
-19.43
-20.68
-21.66
-22.6
-23.82
-25.45
-27.35
-29.13
-30.31
-30.48
-29.52
-27.53
-24.79
-21.6
-18.2
-14.71
-11.28
-8.1
-5.47
-3.68
-2.9
-3.03
-3.68
-4.16
-3.77
-2.0
1.29
5.76
10.68
15.14
18.32
19.72
19.32
17.55
15.19
13.07
11.91
12.13
13.87
17.0
21.21
26.0
30.72
34.6
36.95
37.36
35.92
33.2
30.06
27.3
25.32
23.95
22.59
20.53
17.22
12.56
6.83
0.58
-5.6
-11.26
-16.14
-20.15
-23.27
-25.44
-26.6
-26.67
-25.69
-23.75
-21.09
-17.95
-14.44
-10.53
-6.13
-1.23
3.86
8.58
12.32
14.87
16.68
18.74
22.14
27.4
34.05
40.79
46.06
48.87
49.27
48.34
47.47
47.72
49.3
51.59
53.59
54.5
54.04
52.39
49.94
46.93
43.28
38.7
32.91
25.92
18.16
10.37
3.37
-2.24
-6.31
-9.11
-11.17
-13.0
-14.94
-16.99
-18.88
-20.32
-21.07
-21.11
-20.63
-19.95
-19.42
-19.31
-19.81
-20.96
-22.72
-24.95
-27.39
-29.71
-31.45
-32.19
-31.61
-29.62
-26.41
-22.4
-18.14
-14.18
-10.88
-8.4
-6.73
-5.78
-5.41
-5.48
-5.83
-6.29
-6.64
-6.73
-6.48
-5.92
-5.13
-4.19
-3.08
-1.73
0.01
2.23
4.96
8.18
11.77
15.53
19.11
21.99
23.51
23.06
20.35
15.6
9.57
3.36
-1.92
-5.5
-7.13
-7.05
-5.74
-3.73
-1.41
1.0
3.47
5.96
8.49
10.97
13.19
14.77
15.18
13.85
10.43
4.97
-1.93
-9.22
-15.65
-20.17
-22.24
-21.92
-19.79
-16.65
-13.22
-10.0
-7.27
-5.19
-3.89
-3.57
-4.35
-6.28
-9.29
-13.17
-17.61
-22.29
-26.78
-30.58
-33.07
-33.71
-32.15
-28.38
-22.81
-16.13
-9.16
-2.62
2.96
7.3
10.31
11.99
12.43
11.78
10.28
8.32
6.32
4.67
3.64
3.27
3.43
3.89
4.45
4.93
5.23
5.27
4.91
3.98
2.33
-0.04
-2.98
-6.18
-9.29
-11.99
-14.14
-15.72
-16.87
-17.76
-18.53
-19.21
-19.66
-19.55
-18.49
-16.07
-12.07
-6.56
0.12
7.41
14.69
21.43
27.22
31.84
35.15
37.1
37.72
37.12
35.51
33.23
30.67
28.21
26.15
24.63
23.68
23.14
22.74
22.14
21.05
19.27
16.82
13.83
10.54
7.13
3.62
-0.05
-4.05
-8.53
-13.54
-19.02
-24.79
-30.59
-36.01
-40.57
-43.67
-44.73
-43.43
-39.79
-34.2
-27.27
-19.71
-12.03
-4.68
2.03
7.83
12.39
15.49
17.0
17.03
15.86
13.91
11.52
8.97
6.4
3.85
1.39
-0.89
-2.86
-4.38
-5.4
-5.97
-6.24
-6.36
-6.45
-6.53
-6.57
-6.58
-6.58
-6.72
-7.23
-8.33
-10.2
-12.83
-16.06
-19.44
-22.37
-24.19
-24.37
-22.73
-19.41
-14.95
-10.05
-5.37
-1.33
1.93
4.48
6.48
8.03
9.17
9.83
9.99
9.66
8.95
8.0
6.96
5.92
4.92
4.02
3.22
2.53
1.91
1.23
0.33
-0.93
-2.58
-4.59
-6.81
-9.1
-11.36
-13.6
-15.91
-18.45
-21.4
-24.88
-28.89
-33.22
-37.43
-40.84
-42.7
-42.41
-39.72
-34.86
-28.48
-21.41
-14.45
-8.1
-2.54
2.36
6.81
11.05
15.17
19.2
23.01
26.46
29.39
31.69
33.34
34.39
35.01
35.37
35.66
35.88
35.94
35.65
34.79
33.24
31.02
28.25
25.08
21.65
18.07
14.39
10.62
6.71
2.56
-1.91
-6.7
-11.59
-16.11
-19.59
-21.33
-20.82
-18.0
-13.26
-7.36
-1.16
4.52
9.2
12.68
14.96
16.17
16.49
16.11
15.28
14.27
13.33
12.61
12.08
11.55
10.76
9.58
8.08
6.51
5.17
4.26
3.71
3.23
2.51
1.28
-0.48
-2.55
-4.67
-6.65
-8.5
-10.37
-12.51
-15.12
-18.22
-21.64
-25.03
-27.87
-29.58
-29.66
-27.87
-24.24
-19.14
-13.18
-6.99
-1.07
4.25
8.79
12.42
15.0
16.47
16.85
16.38
15.44
14.49
13.83
13.59
13.73
14.07
14.47
14.81
15.02
15.05
14.8
14.16
13.02
11.36
9.19
6.61
3.76
0.79
-2.14
-4.93
-7.56
-10.13
-12.8
-15.69
-18.74
-21.67
-23.99
-25.11
-24.66
-22.52
-19.0
-14.57
-9.81
-5.11
-0.67
3.44
7.13
10.21
12.41
13.51
13.5
12.64
11.36
10.11
9.14
8.5
8.05
7.63
7.19
6.76
6.41
6.15
5.89
5.47
4.7
3.48
1.83
-0.21
-2.51
-4.89
-7.22
-9.39
-11.43
-13.46
-15.7
-18.27
-21.15
-24.11
-26.66
-28.24
-28.35
-26.65
-23.06
-17.78
-11.26
-4.14
2.89
9.19
14.27
17.9
19.99
20.67
20.08
18.45
16.05
13.23
10.45
8.15
6.67
6.11
6.32
6.97
7.67
8.07
7.99
7.39
6.31
4.81
2.91
0.58
-2.3
-5.79
-9.93
-14.66
-19.82
-25.16
-30.45
-35.49
-40.11
-44.1
-47.17
-49.0
-49.26
-47.83
-44.85
-40.7
-35.79
-30.48
-24.95
-19.22
-13.26
-7.14
-1.08
4.65
9.81
14.34
18.37
22.13
25.86
29.53
32.92
35.61
37.2
37.47
36.53
34.79
32.82
31.3
30.85
31.91
34.57
38.47
42.81
46.42
48.09
46.99
42.83
36.04
27.59
18.78
10.87
4.91
1.55
0.96
2.83
6.45
10.82
14.87
17.72
18.82
18.03
15.61
12.07
7.99
3.84
-0.13
-3.9
-7.49
-10.93
-14.08
-16.74
-18.81
-20.36
-21.75
-23.39
-25.55
-28.13
-30.6
-32.19
-32.27
-30.64
-27.73
-24.51
-22.19
-21.76
-23.64
-27.53
-32.47
-37.27
-40.92
-42.94
-43.54
-43.35
-43.14
-43.33
-43.8
-43.89
-42.69
-39.48
-34.1
-27.26
-20.49
-15.95
-15.98
-22.38
-35.47
-53.34
-71.64
-84.25
-85.0
-69.84
-38.57
4.73
52.87
98.08
134.42
159.29
173.36
179.2
179.52
175.92
168.7
157.26
141.0
119.89
94.8
67.46
40.23
15.79
-3.23
-14.78
-17.9
-13.09
-2.26
11.66
25.41
36.17
42.2
43.1
39.73
33.81
27.26
21.66
17.83
15.71
14.49
13.02
10.24
5.52
-1.06
-8.75
-16.33
-22.59
-26.8
-28.9
-29.58
-29.9
-30.89
-33.19
-36.81
-41.29
-45.92
-50.02
-53.21
-55.42
-56.91
-58.12
-59.44
-61.06
-62.87
-64.43
-65.06
-64.06
-60.9
-55.46
-48.03
-39.21
-29.76
-20.38
-11.58
-3.71
3.03
8.57
12.94
16.29
18.83
20.76
22.23
23.27
23.83
23.9
23.49
22.71
21.69
20.54
19.34
18.16
17.04
15.99
14.95
13.76
12.22
10.15
7.48
4.36
1.06
-2.08
-4.82
-7.13
-9.18
-11.28
-13.75
-16.7
-19.96
-23.04
-25.24
-25.92
-24.66
-21.5
-16.88
-11.57
-6.45
-2.33
0.24
1.03
0.18
-1.87
-4.54
-7.17
-9.24
-10.4
-10.56
-9.78
-8.27
-6.26
-3.98
-1.67
0.45
2.15
3.21
3.48
2.97
1.8
0.21
-1.49
-3.02
-4.2
-5.0
-5.46
-5.69
-5.79
-5.88
-6.06
-6.51
-7.47
-9.13
-11.55
-14.48
-17.35
-19.4
-19.93
-18.51
-15.19
-10.46
-5.01
0.5
5.65
10.24
14.22
17.51
19.97
21.41
21.75
21.07
19.68
17.98
16.38
15.15
14.4
14.1
14.11
14.28
14.44
14.48
14.33
13.93
13.17
11.93
10.14
7.8
5.13
2.41
-0.04
-2.08
-3.79
-5.49
-7.58
-10.29
-13.65
-17.39
-21.09
-24.24
-26.39
-27.15
-26.29
-23.76
-19.75
-14.68
-9.09
-3.51
1.67
6.25
10.16
13.4
15.9
17.54
18.23
18.0
17.02
15.66
14.3
13.26
12.71
12.62
12.84
13.21
13.62
14.02
14.4
14.72
14.81
14.5
13.59
11.98
9.72
6.95
3.87
0.68
-2.53
-5.67
-8.71
-11.69
-14.63
-17.62
-20.77
-24.17
-27.75
-31.28
-34.33
-36.3
-36.68
-35.2
-31.91
-27.18
-21.59
-15.73
-10.08
-4.93
-0.39
3.47
6.6
8.88
10.2
10.53
9.95
8.77
7.4
6.32
5.87
6.23
7.26
8.64
9.94
10.86
11.23
11.09
10.58
9.86
9.07
8.29
7.52
6.74
5.87
4.81
3.51
1.98
0.31
-1.36
-2.91
-4.3
-5.55
-6.73
-7.95
-9.32
-10.92
-12.81
-14.94
-17.05
-18.72
-19.45
-18.81
-16.65
-13.17
-8.85
-4.25
0.14
4.06
7.42
10.24
12.46
14.0
14.75
14.67
13.89
12.61
11.08
9.45
7.78
5.97
3.91
1.53
-1.14
-4.01
-6.9
-9.57
-11.77
-13.22
-13.8
-13.47
-12.39
-10.79
-8.91
-6.93
-4.96
-3.04
-1.25
0.21
1.06
1.01
-0.16
-2.49
-5.9
-10.13
-14.83
-19.5
-23.6
-26.59
-28.07
-27.82
-25.87
-22.54
-18.25
-13.54
-8.77
-4.21
0.01
3.84
7.19
9.97
12.09
13.6
14.65
15.56
16.69
18.28
20.39
22.8
25.2
27.26
28.81
29.84
30.39
30.49
30.06
28.99
27.18
24.7
21.74
18.64
15.59
12.69
9.83
6.86
3.7
0.38
-3.02
-6.44
-9.92
-13.6
-17.61
-21.81
-25.78
-28.82
-30.22
-29.59
-27.0
-22.96
-18.24
-13.5
-9.12
-5.21
-1.7
1.52
4.46
7.17
9.75
12.47
15.66
19.54
24.12
29.17
34.19
38.62
41.9
43.55
43.22
40.83
36.52
30.68
23.9
16.81
9.99
3.86
-1.32
-5.49
-8.71
-11.16
-13.1
-14.77
-16.42
-18.23
-20.3
-22.63
-25.16
-27.78
-30.39
-32.91
-35.33
-37.6
-39.54
-40.73
-40.52
-38.26
-33.49
-26.26
-17.13
-7.01
3.13
12.5
20.67
27.49
32.94
36.98
39.54
40.5
39.92
38.05
35.39
32.53
29.98
28.03
26.68
25.71
24.78
23.58
21.9
19.67
16.9
13.62
9.94
5.96
1.89
-2.08
-5.77
-9.06
-11.98
-14.62
-17.11
-19.49
-21.73
-23.6
-24.9
-25.48
-25.34
-24.7
-23.88
-23.18
-22.8
-22.71
-22.71
-22.52
-21.82
-20.28
-17.64
-13.71
-8.54
-2.43
4.06
10.23
15.43
19.24
21.53
22.34
21.84
20.18
17.5
13.92
9.74
5.38
1.45
-1.45
-2.94
-2.93
-1.71
0.18
2.09
3.5
4.15
4.04
3.41
2.5
1.41
0.11
-1.65
-4.08
-7.35
-11.4
-16.0
-20.8
-25.4
-29.36
-32.35
-34.2
-35.04
-35.46
-36.37
-38.75
-43.18
-49.4
-56.2
-61.62
-63.55
-60.32
-51.22
-36.62
-17.84
3.21
24.47
43.98
60.22
72.16
79.33
81.82
80.18
75.32
68.45
60.83
53.65
47.8
43.65
41.1
39.67
38.69
37.52
35.78
33.34
30.3
26.91
23.43
20.08
16.94
13.98
11.09
8.19
5.27
2.43
-0.11
-2.21
-3.87
-5.22
-6.57
-8.2
-10.38
-13.23
-16.75
-20.78
-25.02
-28.97
-32.0
-33.45
-32.82
-30.01
-25.41
-19.88
-14.47
-10.13
-7.39
-6.18
-5.95
-5.88
-5.31
-3.93
-1.87
0.35
2.08
2.76
2.08
0.12
-2.76
-6.03
-9.07
-11.41
-12.77
-13.08
-12.49
-11.19
-9.39
-7.26
-4.9
-2.42
-0.01
2.04
3.47
4.07
3.88
3.19
2.47
2.23
2.81
4.24
6.17
7.98
8.8
7.72
4.02
-2.66
-12.02
-23.06
-34.24
-43.8
-50.25
-52.72
-51.22
-46.46
-39.49
-31.41
-22.94
-14.46
-6.15
1.68
8.41
13.21
15.33
14.58
11.57
7.59
4.17
2.54
3.24
6.08
10.49
15.89
21.91
28.38
35.06
41.44
46.77
50.25
51.3
49.79
46.12
41.05
35.49
30.23
25.8
22.32
19.61
17.29
14.99
12.45
9.56
6.3
2.58
-1.83
-7.2
-13.64
-20.85
-28.08
-34.31
-38.52
-40.16
-39.22
-36.23
-31.98
-27.23
-22.55
-18.24
-14.45
-11.29
-8.83
-7.12
-6.07
-5.5
-5.05
-4.36
-3.12
-1.17
1.48
4.61
7.91
11.05
13.73
15.8
17.2
17.91
17.97
17.33
15.97
13.86
11.03
7.61
3.87
0.13
-3.28
-6.17
-8.55
-10.62
-12.72
-15.21
-18.26
-21.82
-25.53
-28.81
-31.0
-31.55
-30.12
-26.78
-21.97
-16.35
-10.64
-5.4
-0.89
2.92
6.25
9.38
12.45
15.31
17.51
18.45
17.6
14.87
10.75
6.23
2.53
0.6
0.76
2.62
5.37
8.11
10.18
11.25
11.25
10.21
8.19
5.3
1.72
-2.25
-6.24
-9.91
-12.98
-15.33
-16.91
-17.86
-18.37
-18.63
-18.81
-18.97
-19.11
-19.17
-19.13
-18.98
-18.72
-18.22
-17.22
-15.39
-12.5
-8.56
-3.89
0.95
5.39
9.04
11.81
13.84
15.35
16.49
17.26
17.5
17.08
16.0
14.48
12.97
11.95
11.81
12.65
14.26
16.15
17.64
18.06
16.92
14.01
9.41
3.46
-3.24
-9.94
-15.79
-20.01
-22.07
-21.95
-20.15
-17.61
-15.33
-14.02
-13.93
-14.94
-16.78
-19.25
-22.26
-25.55
-28.48
-29.94
-28.66
-23.7
-14.96
-3.38
9.36
21.43
31.49
39.08
44.57
48.74
52.18
54.95
56.54
56.23
53.55
48.68
42.45
35.96
30.15
25.39
21.45
17.75
13.83
9.59
5.35
1.57
-1.41
-3.62
-5.41
-7.25
-9.53
-12.41
-15.73
-19.17
-22.32
-24.83
-26.6
-27.71
-28.44
-29.16
-30.16
-31.56
-33.22
-34.83
-36.04
-36.58
-36.36
-35.36
-33.62
-31.13
-27.82
-23.6
-18.44
-12.41
-5.82
0.85
7.02
12.17
16.03
18.66
20.35
21.5
22.37
23.02
23.33
23.18
22.59
21.79
21.15
20.98
21.39
22.21
23.0
23.24
22.44
20.27
16.67
11.83
6.15
0.15
-5.69
-10.97
-15.51
-19.38
-22.87
-26.35
-30.14
-34.28
-38.47
-42.1
-44.4
-44.78
-43.02
-39.32
-34.18
-28.22
-21.91
-15.57
-9.38
-3.54
1.63
5.81
8.8
10.69
11.8
12.66
13.77
15.43
17.65
20.25
22.84
24.94
25.94
25.23
22.33
17.1
10.03
2.23
-4.7
-9.12
-9.78
-6.23
1.06
10.78
21.16
30.32
36.63
39.01
37.06
31.1
22.06
11.39
0.81
-7.92
-13.3
-14.36
-11.03
-4.19
4.46
12.89
19.33
22.93
23.91
23.46
23.11
24.08
26.87
31.15
36.05
40.6
44.06
46.07
46.6
45.79
43.85
40.93
37.22
32.99
28.6
24.46
20.97
18.39
16.76
15.93
15.59
15.36
14.8
13.58
11.46
8.42
4.6
0.37
-3.78
-7.25
-9.58
-10.6
-10.53
-10.01
-9.86
-10.82
-13.24
-16.92
-21.21
-25.31
-28.53
-30.52
-31.3
-31.07
-30.05
-28.35
-25.95
-22.82
-19.0
-14.69
-10.25
-6.08
-2.58
-0.06
1.35
1.66
1.05
-0.22
-1.85
-3.64
-5.46
-7.33
-9.28
-11.31
-13.24
-14.77
-15.5
-15.21
-13.92
-12.07
-10.42
-9.84
-10.98
-13.93
-18.04
-21.88
-23.58
-21.41
-14.33
-2.57
12.26
27.34
39.29
45.04
42.67
32.06
15.04
-5.04
-24.14
-38.61
-46.09
-46.02
-39.45
-28.59
-15.95
-3.79
6.31
13.46
17.34
18.0
15.63
10.44
2.65
-7.41
-19.13
-31.51
-43.15
-52.54
-58.45
-60.27
-58.17
-52.96
-45.82
-37.95
-30.4
-23.95
-19.23
-16.56
-15.97
-17.11
-19.31
-21.79
-23.96
-25.54
-26.52
-26.94
-26.66
-25.23
-22.01
-16.47
-8.44
1.74
13.17
24.72
35.29
44.14
51.05
56.31
60.6
64.77
69.63
75.79
83.45
92.31
101.56
110.04
116.47
119.8
119.47
115.49
108.41
99.06
88.3
76.85
65.21
53.7
42.47
31.56
20.91
10.39
-0.11
-10.56
-20.78
-30.44
-39.26
-47.11
-54.13
-60.63
-66.92
-73.09
-78.91
-83.86
-87.28
-88.6
-87.61
-84.41
-79.38
-73.04
-65.85
-58.19
-50.34
-42.58
-35.14
-28.28
-22.23
-17.13
-13.04
-9.89
-7.49
-5.6
-4.01
-2.55
-1.17
0.12
1.24
2.15
2.86
3.45
4.01
4.56
5.02
5.22
4.98
4.11
2.59
0.55
-1.74
-3.98
-5.88
-7.36
-8.52
-9.65
-11.13
-13.29
-16.3
-20.1
-24.36
-28.56
-32.06
-34.22
-34.57
-32.92
-29.39
-24.35
-18.36
-12.01
-5.83
-0.23
4.5
8.23
10.94
12.79
13.97
14.7
15.18
15.49
15.68
15.76
15.77
15.78
15.85
16.01
16.2
16.35
16.32
16.04
15.47
14.65
13.63
12.49
11.24
9.89
8.39
6.67
4.66
2.31
-0.39
-3.44
-6.74
-10.18
-13.53
-16.47
-18.65
-19.71
-19.39
-17.57
-14.27
-9.67
-4.06
2.2
8.6
14.59
19.63
23.31
25.48
26.25
25.98
25.13
24.1
23.09
22.08
20.96
19.61
18.01
16.31
14.68
13.23
11.98
10.79
9.51
7.98
6.12
3.82
0.98
-2.61
-7.04
-12.2
-17.73
-22.92
-27.02
-29.42
-29.99
-29.13
-27.77
-26.97
-27.46
-29.37
-32.01
-34.24
-34.86
-33.18
-29.14
-23.32
-16.56
-9.6
-2.9
3.33
8.9
13.57
17.02
19.07
19.8
19.68
19.43
19.67
20.77
22.67
24.96
27.14
28.77
29.7
29.99
29.84
29.42
28.81
27.96
26.76
25.15
23.11
20.71
18.05
15.28
12.49
9.72
6.92
3.96
0.7
-2.85
-6.5
-9.77
-12.08
-12.92
-12.0
-9.39
-5.4
-0.47
4.94
10.48
15.86
20.87
25.3
28.98
31.81
33.78
34.96
35.46
35.46
35.1
34.54
33.9
33.26
32.67
32.11
31.53
30.88
30.08
29.08
27.84
26.28
24.33
21.89
18.9
15.37
11.37
7.03
2.51
-2.02
-6.5
-10.96
-15.51
-20.31
-25.38
-30.56
-35.42
-39.38
-41.9
-42.63
-41.59
-39.09
-35.62
-31.68
-27.63
-23.63
-19.71
-15.83
-12.04
-8.45
-5.28
-2.74
-0.91
0.26
0.97
1.41
1.73
1.97
2.15
2.29
2.48
2.81
3.33
4.01
4.75
5.42
5.94
6.21
6.13
5.63
4.63
3.13
1.22
-0.96
-3.32
-5.83
-8.6
-11.75
-15.3
-19.09
-22.77
-25.9
-27.95
-28.55
-27.5
-24.9
-21.06
-16.41
-11.35
-6.16
-0.98
4.09
8.89
13.14
16.44
18.51
19.24
18.84
17.71
16.3
14.89
13.54
12.12
10.42
8.34
5.96
3.5
1.19
-0.87
-2.73
-4.62
-6.71
-9.08
-11.6
-14.06
-16.25
-18.16
-19.99
-21.99
-24.38
-27.17
-30.16
-33.0
-35.34
-36.86
-37.29
-36.48
-34.3
-30.73
-25.87
-19.94
-13.32
-6.44
0.19
6.18
11.22
15.19
18.17
20.37
22.08
23.55
24.89
26.1
27.17
28.06
28.77
29.24
29.39
29.13
28.44
27.41
26.25
25.15
24.16
23.14
21.82
19.97
17.5
14.56
11.4
8.3
5.42
2.73
0.06
-2.8
-6.06
-9.75
-13.72
-17.58
-20.8
-22.8
-23.21
-21.9
-19.12
-15.31
-10.98
-6.56
-2.27
1.77
5.51
8.87
11.69
13.82
15.14
15.69
15.66
15.33
14.97
14.68
14.44
14.08
13.48
12.61
11.66
10.82
10.23
9.84
9.45
8.81
7.74
6.29
4.6
2.88
1.22
-0.42
-2.15
-4.11
-6.3
-8.69
-11.17
-13.73
-16.38
-19.22
-22.27
-25.4
-28.31
-30.53
-31.6
-31.21
-29.26
-25.97
-21.7
-16.91
-11.95
-7.1
-2.51
1.68
5.33
8.23
10.21
11.23
11.42
11.15
10.83
10.83
11.26
12.02
12.81
13.38
13.6
13.52
13.3
13.07
12.9
12.72
12.42
11.87
10.99
9.72
8.05
6.05
3.83
1.54
-0.7
-2.82
-4.88
-6.98
-9.24
-11.77
-14.58
-17.63
-20.75
-23.72
-26.24
-27.94
-28.45
-27.48
-24.94
-20.97
-15.95
-10.4
-4.83
0.33
4.86
8.66
11.68
13.9
15.3
15.93
15.97
15.7
15.41
15.34
15.53
15.87
16.15
16.2
15.95
15.46
14.9
14.42
14.07
13.78
13.36
12.58
11.24
9.26
6.72
3.83
0.87
-1.96
-4.56
-6.98
-9.35
-11.81
-14.43
-17.17
-19.86
-22.21
-23.91
-24.61
-24.07
-22.2
-19.06
-14.92
-10.15
-5.08
-0.06
4.69
8.93
12.45
15.06
16.65
17.22
16.91
15.96
14.65
13.29
12.1
11.2
10.59
10.19
9.85
9.46
8.98
8.45
7.91
7.33
6.6
5.54
4.05
2.17
0.06
-1.99
-3.76
-5.12
-6.13
-7.0
-8.01
-9.45
-11.46
-14.06
-17.04
-20.1
-22.88
-25.04
-26.3
-26.45
-25.34
-22.96
-19.44
-15.05
-10.17
-5.18
-0.44
3.83
7.48
10.42
12.66
14.24
15.29
15.93
16.23
16.23
15.93
15.39
14.72
14.08
13.57
13.17
12.77
12.2
11.37
10.3
9.14
8.08
7.21
6.46
5.64
4.55
3.04
1.11
-1.07
-3.31
-5.44
-7.41
-9.27
-11.17
-13.29
-15.72
-18.48
-21.53
-24.7
-27.68
-30.05
-31.31
-31.05
-29.09
-25.55
-20.86
-15.63
-10.47
-5.85
-2.0
1.09
3.56
5.57
7.21
8.46
9.24
9.49
9.29
8.83
8.36
8.1
8.11
8.32
8.6
8.85
9.02
9.11
9.11
8.92
8.42
7.46
6.07
4.38
2.63
1.0
-0.45
-1.79
-3.18
-4.75
-6.5
-8.38
-10.27
-12.13
-14.06
-16.28
-19.04
-22.42
-26.23
-29.92
-32.77
-34.06
-33.42
-31.0
-27.43
-23.64
-20.42
-18.14
-16.6
-15.15
-13.1
-10.14
-6.58
-3.42
-1.83
-2.68
-5.98
-10.7
-15.21
-17.9
-17.97
-15.77
-12.74
-10.8
-11.61
-16.07
-24.03
-34.22
-44.19
-50.42
-48.75
-35.55
-9.44
27.39
69.06
107.57
135.56
148.91
148.04
137.11
121.78
106.73
94.25
84.37
75.94
68.05
60.57
54.05
48.93
45.17
42.16
39.19
35.98
32.89
30.81
30.57
32.38
35.36
37.84
37.91
34.3
26.97
17.16
6.89
-1.77
-7.37
-9.48
-8.64
-6.14
-3.48
-1.88
-1.88
-3.22
-5.01
-6.29
-6.46
-5.58
-4.33
-3.5
-3.59
-4.44
-5.27
-5.1
-3.14
0.8
6.2
11.99
16.92
19.84
20.04
17.4
12.57
6.88
2.24
0.6
3.35
10.61
20.9
31.33
38.38
39.05
32.08
18.56
1.75
-14.03
-24.89
-28.58
-25.11
-16.36
-5.17
5.71
14.28
19.5
21.03
18.99
13.78
6.36
-1.69
-8.29
-11.41
-9.84
-3.8
4.91
13.49
18.99
19.21
13.29
1.7
-14.17
-32.76
-52.81
-73.51
-94.37
-114.93
-134.56
-152.42
-167.54
-178.93
-185.79
-187.79
-185.32
-179.46
-171.56
-162.53
-152.18
-139.26
-122.14
-99.99
-73.75
-46.26
-21.33
-2.31
9.14
13.42
12.32
8.01
2.2
-4.02
-9.87
-14.32
-15.99
-13.57
-6.45
4.7
17.93
30.71
40.91
47.61
51.28
53.27
54.87
56.6
58.12
58.58
57.38
54.65
51.17
48.0
45.93
45.15
45.37
46.07
46.91
47.85
48.99
50.36
51.73
52.67
52.74
51.76
49.86
47.37
44.61
41.59
38.04
33.63
28.32
22.55
17.16
12.87
9.83
7.53
5.03
1.61
-2.82
-7.7
-12.26
-16.02
-19.16
-22.27
-25.96
-30.42
-35.32
-40.09
-44.22
-47.56
-50.17
-52.17
-53.55
-54.26
-54.37
-54.19
-54.2
-54.73
-55.66
-56.29
-55.62
-52.69
-47.11
-39.15
-29.65
-19.69
-10.24
-2.0
4.64
9.43
12.36
13.56
13.46
12.66
11.69
10.91
10.34
9.86
9.35
8.87
8.66
8.94
9.7
10.72
11.65
12.21
12.4
12.37
12.31
12.26
12.09
11.54
10.41
8.7
6.56
4.21
1.73
-0.99
-4.11
-7.65
-11.21
-14.04
-15.16
-13.84
-9.91
-3.87
3.28
10.38
16.61
21.65
25.71
29.26
32.77
36.43
40.17
43.65
46.51
48.41
49.23
49.03
48.15
47.14
46.68
47.37
49.47
52.75
56.38
59.24
60.31
59.12
56.0
51.91
48.08
45.42
44.15
43.6
42.45
39.19
32.65
22.5
9.35
-5.34
-19.76
-32.31
-41.88
-47.95
-50.47
-49.7
-46.13
-40.5
-33.81
-27.12
-21.38
-17.2
-14.79
-13.98
-14.44
-15.74
-17.46
-19.18
-20.53
-21.29
-21.43
-21.08
-20.47
-19.76
-19.03
-18.38
-17.94
-17.87
-18.26
-19.01
-19.89
-20.74
-21.61
-22.81
-24.76
-27.71
-31.55
-35.83
-39.87
-43.03
-44.9
-45.33
-44.38
-42.19
-38.92
-34.68
-29.57
-23.71
-17.23
-10.31
-3.21
3.64
9.61
14.04
16.46
16.84
15.67
13.8
12.1
11.12
10.88
11.04
11.19
11.13
10.95
10.86
10.95
11.07
10.91
10.22
9.07
7.92
7.32
7.67
8.92
10.55
11.85
12.15
11.14
8.9
5.82
2.45
-0.64
-2.96
-4.14
-4.04
-2.7
-0.33
2.74
6.2
9.73
13.09
16.13
18.7
20.73
22.16
22.92
22.88
21.89
19.76
16.45
12.19
7.45
2.85
-1.11
-4.18
-6.44
-8.12
-9.46
-10.57
-11.5
-12.27
-13.07
-14.15
-15.74
-17.82
-20.12
-22.19
-23.63
-24.29
-24.24
-23.74
-22.98
-22.02
-20.79
-19.12
-16.88
-14.02
-10.6
-6.74
-2.68
1.34
5.04
8.19
10.59
12.13
12.78
12.65
12.05
11.58
11.99
13.91
17.45
22.0
26.35
29.14
29.46
27.23
23.14
18.15
13.01
7.8
2.03
-5.06
-14.15
-25.62
-39.55
-55.56
-72.71
-89.37
-103.38
-112.54
-115.42
-111.97
-103.62
-92.72
-81.63
-71.8
-63.22
-54.5
-43.63
-29.08
-10.88
9.02
27.23
40.28
45.93
44.2
37.15
27.83
18.89
11.61
5.88
0.9
-3.83
-8.06
-10.94
-11.69
-10.16
-6.99
-3.27
0.03
2.47
4.26
6.2
9.1
13.41
18.85
24.39
28.6
30.33
29.25
26.06
22.21
19.2
17.93
18.35
19.68
20.93
21.45
21.2
20.61
20.17
20.12
20.36
20.65
20.92
21.35
22.25
23.77
25.61
27.2
27.97
27.71
26.72
25.55
24.61
23.85
22.7
20.55
17.28
13.58
10.7
9.77
11.2
14.38
18.04
20.9
22.35
22.6
22.44
22.73
23.93
25.98
28.39
30.67
32.48
33.84
34.9
35.83
36.68
37.35
37.69
37.68
37.47
37.42
37.92
39.19
41.03
42.8
43.56
42.45
39.03
33.4
26.2
18.32
10.62
3.72
-2.02
-6.43
-9.41
-10.87
-10.85
-9.59
-7.58
-5.48
-3.97
-3.49
-4.22
-5.99
-8.47
-11.28
-14.09
-16.7
-19.04
-21.13
-23.04
-24.82
-26.48
-27.94
-29.09
-29.76
-29.81
-29.11
-27.55
-25.12
-21.89
-18.05
-13.88
-9.75
-5.98
-2.85
-0.58
0.76
1.19
0.84
-0.07
-1.27
-2.53
-3.71
-4.81
-5.94
-7.14
-8.44
-9.75
-10.91
-11.88
-12.69
-13.53
-14.61
-16.09
-17.98
-20.18
-22.52
-24.93
-27.46
-30.22
-33.43
-37.32
-42.07
-47.72
-54.11
-60.76
-66.93
-71.7
-74.17
-73.69
-70.05
-63.6
-55.21
-46.15
-37.75
-31.05
-26.55
-24.01
-22.54
-20.91
-17.97
-13.0
-5.92
2.78
12.31
21.79
30.49
37.91
43.74
47.85
50.19
50.84
49.96
47.79
44.64
40.85
36.74
32.62
28.76
25.4
22.72
20.75
19.36
18.24
16.98
15.19
12.7
9.61
6.32
3.43
1.56
1.15
2.26
4.56
7.49
10.48
13.14
15.36
17.2
18.76
19.96
20.59
20.41
19.31
17.44
15.22
13.14
11.54
10.56
10.05
9.76
9.43
8.91
8.14
7.17
6.02
4.66
2.99
0.9
-1.71
-4.78
-8.11
-11.4
-14.3
-16.62
-18.39
-19.88
-21.5
-23.54
-26.06
-28.7
-30.91
-32.15
-32.18
-31.21
-29.85
-28.84
-28.78
-29.89
-31.96
-34.34
-35.9
-35.21
-30.78
-21.76
-8.51
7.11
22.16
33.65
39.68
40.09
36.3
30.45
24.31
18.69
13.56
8.64
3.94
-0.09
-2.77
-3.72
-3.09
-1.47
0.38
1.9
2.88
3.5
4.06
4.8
5.78
6.79
7.54
7.78
7.5
6.86
6.18
5.7
5.45
5.22
4.67
3.5
1.65
-0.71
-3.26
-5.61
-7.47
-8.81
-9.74
-10.46
-11.08
-11.59
-11.94
-12.13
-12.28
-12.65
-13.45
-14.71
-16.13
-17.2
-17.45
-16.64
-14.96
-12.88
-11.06
-10.03
-10.06
-11.13
-12.99
-15.22
-17.37
-18.93
-19.43
-18.52
-16.12
-12.41
-7.89
-3.15
1.27
5.08
8.22
10.81
12.97
14.73
15.97
16.51
16.2
15.0
13.07
10.72
8.34
6.27
4.64
3.33
2.02
0.33
-1.97
-4.84
-8.01
-11.14
-13.97
-16.43
-18.53
-20.27
-21.52
-22.05
-21.64
-20.18
-17.72
-14.38
-10.3
-5.51
-0.08
5.84
11.87
17.46
22.11
25.56
28.01
30.01
32.37
35.73
40.35
45.83
51.24
55.32
56.91
55.32
50.53
43.19
34.37
25.22
16.65
9.14
2.74
-2.72
-7.45
-11.6
-15.14
-18.05
-20.4
-22.46
-24.58
-27.11
-30.18
-33.66
-37.24
-40.66
-43.85
-46.9
-49.92
-52.81
-55.16
-56.31
-55.63
-52.74
-47.67
-40.89
-33.11
-25.04
-17.29
-10.22
-3.95
1.56
6.4
10.63
14.17
16.86
18.57
19.24
18.98
18.08
16.92
15.82
15.03
14.58
14.35
14.1
13.56
12.57
11.12
9.36
7.49
5.66
3.83
1.85
-0.55
-3.54
-7.14
-11.18
-15.27
-18.96
-21.77
-23.36
-23.56
-22.37
-20.02
-16.83
-13.12
-9.21
-5.35
-1.74
1.45
4.05
5.92
7.04
7.44
7.26
6.6
5.61
4.41
3.2
2.23
1.73
1.82
2.43
3.32
4.21
4.92
5.43
5.87
6.4
7.06
7.77
8.31
8.52
8.33
7.76
6.91
5.79
4.34
2.45
0.05
-2.79
-5.77
-8.39
-10.02
-10.16
-8.56
-5.31
-0.84
4.3
9.62
14.73
19.39
23.42
26.64
28.96
30.36
30.96
30.98
30.72
30.39
30.13
29.97
29.89
29.88
29.84
29.66
29.16
28.19
26.58
24.23
21.11
17.25
12.84
8.07
3.18
-1.66
-6.37
-10.96
-15.45
-19.8
-23.78
-27.08
-29.42
-30.65
-30.89
-30.41
-29.54
-28.45
-27.13
-25.35
-22.73
-18.98
-13.92
-7.61
-0.38
7.31
14.98
22.25
29.02
35.33
41.36
47.24
53.05
58.76
64.31
69.61
74.49
78.67
81.87
83.85
84.54
84.1
82.72
80.5
77.3
72.82
66.79
59.32
50.86
42.2
34.01
26.69
20.2
14.15
8.11
1.71
-5.07
-11.92
-18.16
-22.88
-25.16
-24.4
-20.62
-14.52
-7.34
-0.45
5.05
8.55
9.86
9.05
6.34
2.14
-2.81
-7.47
-10.82
-12.14
-11.42
-9.3
-6.79
-4.81
-3.86
-3.86
-4.41
-4.99
-5.21
-4.99
-4.43
-3.84
-3.54
-3.75
-4.6
-6.03
-7.94
-10.25
-12.99
-16.27
-20.16
-24.57
-29.1
-33.16
-36.05
-37.24
-36.48
-33.91
-29.97
-25.22
-20.1
-14.9
-9.76
-4.82
-0.32
3.37
5.96
7.3
7.6
7.31
6.88
6.61
6.5
6.24
5.44
3.77
1.03
-2.9
-8.17
-14.97
-23.6
-34.21
-46.85
-61.35
-77.5
-94.96
-113.12
-130.81
-146.09
-156.42
-159.19
-152.49
-135.78
-110.2
-78.46
-44.3
-11.79
15.46
34.92
45.71
48.62
45.84
40.27
34.73
31.36
31.26
34.56
40.64
48.36
56.34
63.17
67.81
69.81
69.55
67.94
66.08
64.8
64.41
64.71
65.27
65.72
65.81
65.46
64.57
62.87
60.05
55.83
50.26
43.77
37.06
30.76
25.04
19.51
13.49
6.47
-1.35
-9.03
-15.23
-18.84
-19.5
-17.79
-14.82
-11.72
-9.2
-7.32
-5.69
-3.85
-1.54
1.08
3.53
5.22
5.72
5.0
3.46
1.81
0.73
0.64
1.49
2.89
4.39
5.66
6.72
7.77
9.11
10.93
13.22
15.78
18.38
20.83
23.11
25.24
27.2
28.73
29.46
29.1
27.83
26.27
25.28
25.41
26.39
27.19
26.52
23.74
19.42
15.19
12.85
13.25
15.71
18.26
18.7
15.6
8.85
-0.56
-11.24
-22.12
-32.74
-43.1
-53.23
-62.78
-71.0
-76.87
-79.66
-79.09
-75.62
-70.24
-64.21
-58.62
-54.1
-50.66
-47.98
-45.74
-43.93
-42.83
-42.79
-43.85
-45.6
-47.39
-48.66
-49.23
-49.33
-49.29
-49.21
-48.73
-47.18
-43.97
-38.98
-32.64
-25.75
-19.13
-13.24
-8.16
-3.73
0.24
3.79
6.83
9.28
11.09
12.28
12.75
12.33
10.84
8.3
5.01
1.51
-1.64
-4.02
-5.52
-6.19
-6.13
-5.39
-3.98
-2.04
0.07
1.91
3.08
3.45
3.14
2.36
1.2
-0.38
-2.54
-5.31
-8.52
-11.74
-14.46
-16.27
-16.96
-16.49
-14.95
-12.37
-8.74
-4.09
1.32
7.01
12.28
16.51
19.36
20.95
21.75
22.33
23.02
23.82
24.5
24.77
24.57
24.07
23.52
23.01
22.34
21.17
19.21
16.48
13.33
10.33
7.95
6.46
5.8
5.75
6.05
6.49
6.88
7.09
6.98
6.54
5.93
5.5
5.71
6.92
9.23
12.48
16.33
20.44
24.58
28.57
32.28
35.59
38.42
40.75
42.64
44.03
44.65
43.98
41.43
36.62
29.58
20.81
11.18
1.66
-6.95
-14.24
-20.34
-25.7
-30.76
-35.58
-39.74
-42.6
-43.63
-42.92
-41.13
-39.3
-38.28
-38.3
-38.85
-38.93
-37.66
-34.67
-30.22
-24.86
-19.01
-12.73
-5.74
2.24
11.34
21.33
31.73
41.96
51.48
60.0
67.35
73.29
77.32
78.67
76.6
70.99
62.58
52.98
44.19
37.8
34.4
33.34
33.18
32.42
30.26
26.9
23.16
19.74
16.6
12.8
7.11
-1.21
-11.75
-22.94
-32.61
-38.97
-41.39
-40.68
-38.68
-37.5
-38.71
-42.87
-49.62
-57.9
-66.43
-73.99
-79.71
-83.22
-84.75
-85.08
-85.19
-85.64
-85.96
-84.33
-77.86
-63.63
-39.98
-7.57
30.27
68.24
100.48
122.41
132.09
130.82
122.49
112.19
104.38
101.49
103.25
107.05
109.22
106.45
97.01
81.28
61.56
41.19
23.59
11.3
5.46
5.61
10.03
16.23
21.62
24.07
22.34
16.18
6.3
-5.98
-18.96
-30.97
-40.52
-46.69
-49.25
-48.78
-46.51
-43.89
-42.15
-41.84
-42.68
-43.65
-43.53
-41.49
-37.55
-32.52
-27.63
-23.82
-21.25
-19.22
-16.51
-12.07
-5.59
2.35
10.53
17.59
22.57
25.05
25.01
22.61
18.07
11.68
4.02
-4.01
-11.35
-17.14
-20.97
-23.07
-24.21
-25.31
-27.18
-30.21
-34.35
-39.21
-44.2
-48.7
-52.33
-54.92
-56.66
-58.03
-59.67
-62.22
-66.07
-71.15
-76.88
-82.41
-86.81
-89.49
-90.14
-88.48
-83.99
-75.74
-62.56
-43.5
-18.47
11.26
42.94
72.74
96.58
111.29
115.48
109.99
97.55
81.75
65.81
51.65
39.66
29.22
19.48
10.08
1.17
-7.03
-14.64
-22.23
-30.46
-39.44
-48.47
-56.29
-61.64
-63.97
-63.56
-61.3
-58.03
-54.12
-49.52
-44.04
-37.83
-31.49
-25.86
-21.53
-18.51
-16.21
-13.95
-11.38
-8.76
-6.78
-6.11
-7.04
-9.43
-12.85
-16.98
-21.73
-27.09
-32.85
-38.4
-42.79
-45.2
-45.39
-43.96
-42.0
-40.33
-38.66
-35.3
-27.73
-14.0
5.89
29.42
52.33
70.37
81.11
84.58
82.75
78.12
72.47
66.65
60.98
55.98
52.58
51.7
53.6
57.57
62.32
66.85
70.83
74.53
78.13
81.0
81.69
78.53
70.48
57.71
41.71
24.75
9.26
-2.88
-10.64
-13.96
-13.6
-10.9
-7.51
-5.19
-5.56
-9.87
-18.69
-31.74
-47.84
-65.12
-81.39
-94.37
-101.9
-102.1
-93.7
-76.64
-52.59
-24.99
1.64
22.99
36.33
41.17
39.07
32.64
24.4
16.11
8.8
3.22
0.21
0.52
4.34
10.93
18.59
25.25
29.18
29.64
26.98
22.32
17.03
12.15
8.22
5.32
3.28
1.83
0.72
-0.36
-1.74
-3.79
-6.75
-10.57
-14.96
-19.43
-23.59
-27.27
-30.47
-33.33
-35.86
-38.07
-39.88
-41.31
-42.32
-42.82
-42.56
-41.13
-38.11
-33.12
-25.95
-16.57
-5.19
7.8
21.96
36.91
52.33
67.57
81.41
92.0
97.3
95.86
87.75
74.66
59.37
44.59
31.87
21.33
12.14
3.49
-4.75
-11.99
-17.61
-21.59
-24.62
-27.63
-30.93
-33.99
-35.66
-35.0
-31.98
-27.71
-24.12
-23.08
-25.68
-31.82
-40.41
-49.98
-59.05
-66.33
-70.66
-71.14
-67.42
-60.05
-50.51
-40.63
-31.78
-24.21
-17.11
-9.18
0.49
11.95
24.47
37.09
48.99
59.61
68.39
74.63
77.57
76.91
73.22
67.91
62.7
58.92
57.02
56.63
56.92
56.93
55.9
53.24
48.6
41.84
33.06
22.69
11.38
-0.12
-11.15
-21.21
-30.08
-37.77
-44.46
-50.36
-55.65
-60.36
-64.34
-67.34
-69.13
-69.57
-68.67
-66.53
-63.36
-59.36
-54.84
-50.08
-45.35
-40.74
-36.19
-31.54
-26.7
-21.71
-16.76
-12.04
-7.52
-2.93
2.09
7.78
14.06
20.49
26.38
31.09
34.23
35.69
35.6
34.26
31.97
29.04
25.64
21.8
17.33
12.01
5.72
-1.37
-8.72
-15.5
-20.96
-24.59
-26.32
-26.43
-25.43
-23.86
-22.17
-20.66
-19.52
-18.84
-18.54
-18.51
-18.61
-18.78
-19.0
-19.29
-19.6
-19.82
-19.8
-19.48
-18.96
-18.4
-17.88
-17.28
-16.24
-14.33
-11.33
-7.43
-3.21
0.53
3.13
4.28
4.13
3.06
1.43
-0.64
-3.32
-6.88
-11.46
-16.89
-22.69
-28.15
-32.56
-35.34
-36.16
-34.91
-31.72
-26.93
-21.09
-14.82
-8.84
-3.74
0.1
2.59
3.94
4.53
4.77
4.97
5.26
5.67
6.17
6.73
7.39
8.2
9.17
10.22
11.17
11.84
12.13
12.08
11.81
11.49
11.19
10.85
10.37
9.63
8.58
7.21
5.56
3.64
1.39
-1.29
-4.38
-7.67
-10.62
-12.51
-12.64
-10.62
-6.53
-0.99
5.16
11.11
16.4
20.92
24.85
28.34
31.4
33.95
35.91
37.37
38.62
40.03
41.84
44.01
46.22
47.98
48.82
48.49
47.04
44.77
42.05
39.15
36.11
32.75
28.84
24.22
18.91
13.15
7.31
1.77
-3.17
-7.38
-10.96
-14.18
-17.51
-21.38
-26.0
-31.19
-36.42
-40.93
-44.07
-45.56
-45.54
-44.42
-42.59
-40.32
-37.74
-34.98
-32.31
-30.12
-28.7
-28.04
-27.83
-27.54
-26.75
-25.31
-23.34
-21.04
-18.46
-15.4
-11.49
-6.42
-0.18
6.9
14.25
21.24
27.39
32.4
36.14
38.53
39.58
39.4
38.24
36.57
34.95
33.87
33.58
34.09
35.13
36.38
37.63
38.81
40.11
41.93
44.67
48.68
54.01
60.44
67.54
74.8
81.69
87.65
92.09
94.37
93.94
90.61
84.63
76.74
67.87
58.85
50.07
41.52
32.95
24.19
15.35
6.8
-1.0
-7.7
-13.19
-17.62
-21.41
-25.06
-28.99
-33.38
-38.13
-42.89
-47.36
-51.38
-55.14
-58.95
-63.08
-67.49
-71.74
-75.14
-77.04
-77.05
-75.12
-71.47
-66.37
-60.1
-53.01
-45.6
-38.53
-32.48
-27.93
-24.91
-23.01
-21.53
-19.87
-17.77
-15.42
-13.25
-11.66
-10.72
-10.17
-9.58
-8.58
-7.07
-5.24
-3.45
-1.99
-0.91
-0.11
0.59
1.27
1.83
2.04
1.73
0.83
-0.57
-2.3
-4.28
-6.46
-8.81
-11.24
-13.43
-15.0
-15.58
-14.95
-13.09
-10.14
-6.35
-1.93
2.9
7.87
12.65
16.91
20.41
22.99
24.64
25.48
25.69
25.54
25.37
25.41
25.71
26.06
26.04
25.22
23.38
20.63
17.38
14.14
11.31
9.16
7.76
7.12
7.22
8.0
9.26
10.64
11.59
11.51
9.85
6.35
1.15
-5.12
-11.46
-16.76
-20.11
-21.05
-19.6
-16.19
-11.4
-5.81
0.06
5.73
10.72
14.66
17.36
18.92
19.7
20.15
20.65
21.35
22.18
22.92
23.4
23.56
23.55
23.59
23.86
24.38
24.92
25.13
24.61
23.17
20.87
18.05
15.13
12.42
9.97
7.58
4.91
1.69
-2.17
-6.58
-11.29
-16.03
-20.57
-24.73
-28.34
-31.19
-32.94
-33.26
-31.91
-28.95
-24.7
-19.7
-14.43
-9.25
-4.38
-0.08
3.17
4.74
4.16
1.49
-2.57
-6.9
-10.47
-12.87
-14.39
-15.71
-17.36
-19.31
-21.07
-22.03
-21.93
-21.04
-19.96
-19.31
-19.43
-20.35
-21.87
-23.77
-25.9
-28.08
-30.16
-32.03
-33.74
-35.52
-37.7
-40.46
-43.6
-46.6
-48.73
-49.43
-48.56
-46.43
-43.57
-40.42
-37.02
-32.98
-27.73
-20.91
-12.7
-3.87
4.48
11.43
16.53
20.04
22.6
24.87
27.13
29.23
30.77
31.46
31.35
30.82
30.34
30.21
30.39
30.64
30.72
30.59
30.43
30.51
30.97
31.64
32.08
31.68
29.87
26.3
21.02
14.45
7.43
0.94
-4.02
-6.72
-6.86
-4.55
-0.21
5.63
12.45
19.8
27.3
34.54
41.12
46.7
51.07
54.25
56.38
57.67
58.27
58.3
57.89
57.35
57.21
58.17
60.81
65.27
71.05
77.1
82.13
85.12
85.68
84.08
80.92
76.68
71.52
65.28
57.84
49.32
40.06
30.49
20.85
11.15
1.35
-8.44
-17.78
-25.98
-32.22
-35.85
-36.54
-34.32
-29.59
-23.08
-15.68
-8.25
-1.58
3.84
7.77
10.18
11.17
10.85
9.46
7.3
4.77
2.28
0.17
-1.35
-2.25
-2.72
-3.14
-3.96
-5.59
-8.26
-11.92
-16.3
-21.05
-25.82
-30.38
-34.55
-38.14
-40.96
-42.89
-44.0
-44.61
-45.21
-46.33
-48.22
-50.73
-53.26
-54.84
-54.51
-51.53
-45.65
-37.16
-26.69
-15.06
-3.08
8.49
18.99
27.95
35.16
40.86
45.65
50.25
55.15
60.27
64.96
68.26
69.47
68.48
65.79
62.22
58.4
54.52
50.44
45.95
41.09
36.23
31.84
28.14
24.96
21.75
17.91
13.06
7.24
0.79
-5.82
-12.31
-18.64
-24.93
-31.23
-37.36
-42.74
-46.6
-48.3
-47.55
-44.62
-40.28
-35.44
-30.9
-27.01
-23.7
-20.7
-17.75
-14.87
-12.35
-10.64
-10.07
-10.66
-12.04
-13.64
-14.88
-15.51
-15.69
-15.75
-16.01
-16.54
-17.14
-17.56
-17.75
-17.96
-18.6
-19.97
-22.0
-24.32
-26.43
-28.09
-29.43
-30.97
-33.26
-36.65
-41.02
-45.8
-50.1
-52.95
-53.58
-51.61
-47.12
-40.53
-32.46
-23.45
-13.93
-4.23
5.26
14.03
21.49
27.16
30.86
32.84
33.63
33.84
33.88
33.87
33.67
33.07
31.96
30.42
28.68
27.05
25.75
24.86
24.24
23.64
22.8
21.48
19.63
17.33
14.74
11.96
8.99
5.67
1.85
-2.57
-7.48
-12.56
-17.32
-21.24
-23.86
-24.86
-24.14
-21.87
-18.46
-14.49
-10.63
-7.43
-5.17
-3.89
-3.38
-3.42
-3.89
-4.92
-6.83
-10.0
-14.66
-20.64
-27.28
-33.56
-38.39
-41.04
-41.49
-40.47
-39.17
-38.76
-39.82
-42.08
-44.46
-45.43
-43.46
-37.5
-27.24
-13.34
2.58
18.05
30.28
36.94
37.13
31.89
23.94
16.58
12.24
11.46
12.96
14.57
14.62
12.97
10.97
10.68
13.78
20.71
30.48
41.07
50.14
55.69
56.56
52.56
44.37
33.16
20.13
6.21
-7.92
-21.46
-33.04
-40.7
-42.63
-38.38
-29.67
-20.18
-14.07
-13.89
-19.08
-26.14
-30.42
-28.81
-21.63
-12.66
-7.17
-8.91
-17.86
-30.05
-39.36
-40.35
-30.61
-11.6
12.03
34.0
48.48
51.83
43.76
27.79
10.56
-0.28
1.25
16.91
43.27
72.87
97.09
109.71
109.24
99.29
86.67
78.15
77.46
83.65
91.57
94.07
85.12
62.45
28.61
-9.79
-44.29
-67.54
-75.77
-69.96
-55.32
-39.19
-28.41
-27.09
-35.64
-51.36
-70.12
-88.13
-102.78
-112.52
-115.92
-111.31
-97.27
-73.85
-43.67
-11.72
16.16
35.51
44.89
46.22
43.61
41.45
42.85
48.9
58.88
70.88
82.64
92.0
97.34
97.7
92.99
83.96
72.16
59.71
48.96
42.05
40.39
44.2
52.29
62.23
71.08
76.25
76.43
71.8
63.75
54.04
43.99
34.02
23.78
12.72
0.49
-12.63
-25.81
-37.82
-47.42
-53.58
-55.77
-54.09
-49.31
-42.82
-36.48
-32.18
-31.39
-34.7
-41.47
-49.95
-57.8
-62.83
-63.76
-60.64
-54.76
-48.06
-42.41
-38.94
-37.77
-38.06
-38.44
-37.52
-34.51
-29.48
-23.41
-17.8
-14.13
-13.36
-15.68
-20.62
-27.28
-34.61
-41.41
-46.46
-48.6
-47.11
-42.11
-34.77
-27.16
-21.58
-19.67
-21.87
-27.26
-34.11
-40.6
-45.47
-48.29
-49.26
-48.76
-47.13
-44.51
-41.04
-37.02
-33.04
-29.73
-27.55
-26.59
-26.48
-26.65
-26.56
-25.91
-24.63
-22.78
-20.42
-17.5
-13.99
-9.85
-5.19
-0.17
5.03
10.24
15.39
20.43
25.26
29.65
33.2
35.37
35.65
33.71
29.65
24.02
17.74
11.79
6.89
3.21
0.24
-2.85
-6.9
-12.25
-18.54
-24.81
-29.86
-32.71
-32.97
-30.91
-27.34
-23.13
-18.94
-15.0
-11.17
-7.16
-2.88
1.39
5.03
7.32
7.75
6.25
3.29
-0.33
-3.84
-6.78
-9.12
-11.19
-13.51
-16.6
-20.86
-26.43
-33.01
-39.63
-44.69
-46.35
-43.27
-35.25
-23.49
-10.16
2.57
13.34
22.02
29.3
35.86
41.74
46.12
47.86
46.22
41.31
34.14
26.12
18.56
12.26
7.52
4.34
2.67
2.56
4.1
7.24
11.68
16.91
22.27
27.08
30.67
32.32
31.32
27.12
19.6
9.33
-2.37
-13.8
-23.49
-30.81
-36.1
-40.27
-44.13
-47.65
-49.91
-49.45
-45.04
-36.14
-22.98
-6.35
12.53
31.91
49.4
62.1
67.31
63.65
51.88
35.07
17.63
3.78
-3.89
-5.15
-1.93
2.71
5.77
5.3
0.87
-6.54
-14.99
-22.27
-26.53
-26.73
-22.71
-14.94
-4.33
8.03
20.91
33.05
43.29
50.78
55.19
56.75
56.06
53.88
50.83
47.26
43.23
38.65
33.42
27.65
21.75
16.41
12.33
10.01
9.4
9.94
10.69
10.73
9.48
6.92
3.43
-0.36
-3.87
-6.62
-8.3
-8.71
-7.78
-5.76
-3.28
-1.32
-0.99
-3.11
-7.92
-14.92
-23.04
-30.97
-37.5
-41.78
-43.38
-42.31
-38.83
-33.35
-26.29
-18.02
-8.81
1.04
11.15
20.9
29.45
35.91
39.62
40.48
38.94
35.94
32.39
28.97
25.94
23.41
21.53
20.81
21.94
25.45
31.34
38.85
46.66
53.35
57.77
59.38
58.14
54.43
48.91
42.43
35.91
30.09
25.28
21.21
17.28
12.92
8.13
3.68
0.74
0.32
2.71
7.18
12.37
16.83
19.62
20.47
19.68
17.73
15.04
11.92
8.6
5.36
2.37
-0.39
-3.16
-6.25
-9.68
-12.96
-15.19
-15.45
-13.36
-9.47
-5.15
-1.93
-0.86
-1.84
-3.72
-4.71
-3.31
0.93
6.9
12.16
13.95
10.38
1.45
-10.93
-23.88
-34.9
-43.07
-49.2
-54.89
-61.24
-67.83
-72.83
-74.0
-70.05
-61.43
-50.1
-38.54
-28.57
-20.78
-14.7
-9.53
-4.78
-0.72
1.9
2.41
0.72
-2.46
-5.85
-8.18
-8.71
-7.4
-4.89
-2.05
0.41
2.14
3.12
3.51
3.46
3.03
2.22
1.07
-0.34
-1.91
-3.6
-5.45
-7.56
-10.1
-13.17
-16.8
-20.85
-25.01
-28.82
-31.71
-33.15
-32.74
-30.44
-26.47
-21.26
-15.32
-9.08
-2.89
2.99
8.28
12.67
15.92
17.88
18.63
18.42
17.57
16.36
14.99
13.53
12.08
10.74
9.71
9.13
9.05
9.31
9.58
9.47
8.65
7.01
4.66
1.92
-0.85
-3.44
-5.81
-8.14
-10.69
-13.66
-17.06
-20.66
-24.02
-26.62
-28.0
-27.87
-26.14
-22.92
-18.51
-13.3
-7.79
-2.49
2.14
5.81
8.41
10.02
10.84
11.11
10.96
10.43
9.5
8.21
6.72
5.27
4.13
3.43
3.15
3.12
3.05
2.67
1.8
0.37
-1.54
-3.76
-6.1
-8.43
-10.73
-13.12
-15.79
-18.92
-22.55
-26.56
-30.64
-34.39
-37.34
-39.1
-39.3
-37.76
-34.49
-29.72
-23.9
-17.66
-11.7
-6.64
-2.9
-0.64
0.36
0.57
0.51
0.59
0.88
1.08
0.71
-0.59
-2.86
-5.72
-8.42
-10.27
-10.83
-10.18
-8.82
-7.52
-7.07
-7.94
-10.22
-13.52
-16.93
-19.06
-18.28
-13.09
-2.92
11.28
26.84
39.99
47.23
46.75
39.34
28.07
16.94
9.24
6.31
7.47
10.84
14.57
17.76
20.52
23.42
26.83
30.58
34.02
36.5
37.74
38.04
38.01
38.25
39.0
40.15
41.27
41.92
41.86
41.15
39.99
38.58
37.0
35.07
32.49
28.96
24.32
18.68
12.36
5.83
-0.42
-5.99
-10.65
-14.39
-17.47
-20.31
-23.32
-26.69
-30.29
-33.55
-35.67
-35.89
-33.81
-29.55
-23.66
-16.99
-10.36
-4.36
0.7
4.7
7.7
9.78
11.06
11.73
11.98
12.01
11.98
11.97
12.01
12.07
12.17
12.35
12.69
13.22
13.9
14.58
15.03
14.97
14.18
12.54
10.07
6.94
3.38
-0.38
-4.21
-8.13
-12.2
-16.51
-21.06
-25.78
-30.54
-35.21
-39.65
-43.71
-47.12
-49.48
-50.3
-49.11
-45.61
-39.9
-32.53
-24.59
-17.45
-12.44
-10.37
-11.2
-13.99
-17.24
-19.38
-19.38
-17.05
-13.03
-8.51
-4.87
-3.36
-4.87
-9.71
-17.69
-28.07
-39.7
-51.34
-61.92
-70.95
-78.35
-84.14
-87.87
-88.14
-82.71
-69.13
-45.92
-13.66
24.44
63.04
96.1
118.69
128.33
125.53
113.12
95.08
75.27
56.6
40.85
28.79
20.54
15.83
14.12
14.66
16.59
19.12
21.65
23.82
25.53
26.92
28.24
29.74
31.43
33.02
33.95
33.63
31.68
28.15
23.59
18.7
14.05
9.8
5.73
1.42
-3.38
-8.55
-13.6
-17.89
-20.94
-22.61
-23.15
-23.06
-22.87
-23.04
-23.83
-25.27
-27.15
-29.09
-30.53
-30.89
-29.73
-26.86
-22.44
-16.98
-11.12
-5.5
-0.54
3.55
6.75
9.1
10.66
11.46
11.55
11.08
10.31
9.61
9.37
9.88
11.27
13.49
16.29
19.4
22.46
25.13
27.03
27.8
27.12
24.85
21.19
16.72
12.24
8.63
6.54
6.3
7.89
11.04
15.27
19.87
23.96
26.55
26.84
24.61
20.42
15.58
11.66
9.96
10.96
14.28
18.92
23.74
27.91
31.01
32.91
33.62
33.12
31.38
28.45
24.61
20.3
16.07
12.48
9.91
8.38
7.61
7.08
6.2
4.58
2.15
-0.84
-3.93
-6.7
-8.8
-10.06
-10.3
-9.43
-7.47
-4.88
-2.49
-1.4
-2.55
-6.25
-12.09
-19.0
-25.84
-31.78
-36.6
-40.59
-44.12
-47.38
-50.22
-52.31
-53.44
-53.79
-53.87
-54.34
-55.68
-58.08
-61.41
-65.47
-70.1
-75.17
-80.46
-85.5
-89.57
-92.0
-92.64
-92.0
-91.06
-90.72
-91.06
-91.0
-88.46
-81.06
-66.91
-45.39
-17.41
14.61
47.05
75.91
97.56
109.57
111.32
103.99
90.09
72.57
54.1
36.56
21.09
8.34
-1.31
-7.67
-10.92
-11.65
-10.76
-9.16
-7.48
-5.99
-4.65
-3.27
-1.78
-0.26
1.07
1.92
2.09
1.51
0.36
-1.07
-2.34
-3.13
-3.27
-2.83
-2.03
-1.2
-0.55
-0.2
-0.16
-0.41
-0.94
-1.75
-2.83
-4.12
-5.56
-7.12
-8.82
-10.75
-12.93
-15.35
-17.94
-20.6
-23.21
-25.64
-27.7
-29.08
-29.47
-28.59
-26.4
-23.06
-18.95
-14.52
-10.16
-6.15
-2.63
0.28
2.47
3.85
4.38
4.14
3.37
2.45
1.72
1.49
1.9
2.98
4.63
6.71
8.98
11.14
12.84
13.82
14.0
13.5
12.59
11.53
10.45
9.3
7.94
6.27
4.28
2.13
-0.01
-1.92
-3.5
-4.63
-5.18
-5.02
-3.98
-2.02
0.79
4.25
8.11
12.17
16.29
20.4
24.44
28.25
31.55
33.97
35.2
35.11
33.78
31.58
28.97
26.42
24.25
22.62
21.46
20.64
20.0
19.37
18.66
17.74
16.46
14.81
12.79
10.59
8.43
6.52
4.9
3.46
1.93
0.04
-2.44
-5.55
-9.21
-13.17
-17.04
-20.33
-22.47
-22.98
-21.64
-18.58
-14.37
-9.77
-5.51
-2.03
0.63
2.72
4.55
6.27
7.87
9.16
10.02
10.44
10.53
10.52
10.59
10.84
11.3
11.96
12.78
13.68
14.53
15.21
15.57
15.54
15.09
14.21
12.88
11.09
8.87
6.38
3.82
1.39
-0.76
-2.67
-4.49
-6.5
-8.85
-11.55
-14.36
-16.86
-18.53
-18.95
-17.88
-15.3
-11.45
-6.75
-1.72
3.16
7.54
11.18
14.03
16.1
17.48
18.23
18.43
18.13
17.4
16.36
15.16
13.96
12.91
12.13
11.67
11.53
11.57
11.59
11.34
10.59
9.27
7.47
5.41
3.39
1.59
0.05
-1.32
-2.69
-4.21
-5.91
-7.8
-9.9
-12.34
-15.19
-18.43
-21.74
-24.59
-26.39
-26.64
-25.22
-22.4
-18.75
-14.88
-11.27
-8.14
-5.48
-3.17
-1.07
0.82
2.42
3.68
4.68
5.64
6.84
8.5
10.72
13.4
16.38
19.51
22.69
25.89
28.99
31.84
34.18
35.79
36.58
36.64
36.15
35.37
34.42
33.32
31.99
30.32
28.28
25.91
23.4
20.91
18.58
16.49
14.67
13.19
12.18
11.81
12.22
13.42
15.23
17.43
19.75
22.03
24.14
25.92
27.06
27.0
25.18
21.29
15.57
8.89
2.48
-2.53
-5.56
-6.77
-6.88
-6.79
-7.13
-8.02
-9.24
-10.47
-11.65
-13.03
-15.05
-17.99
-21.71
-25.67
-29.0
-30.92
-31.07
-29.66
-27.45
-25.42
-24.54
-25.36
-27.98
-31.9
-36.21
-39.88
-41.97
-41.89
-39.49
-35.07
-29.2
-22.56
-15.79
-9.36
-3.56
1.46
5.68
9.24
12.4
15.41
18.3
20.76
22.21
22.1
20.28
17.17
13.6
10.4
7.98
6.08
3.98
0.94
-3.38
-8.71
-14.44
-19.87
-24.61
-28.62
-32.01
-34.84
-37.05
-38.52
-39.21
-39.27
-39.07
-39.05
-39.51
-40.45
-41.54
-42.17
-41.73
-39.8
-36.36
-31.7
-26.35
-20.82
-15.43
-10.28
-5.34
-0.57
3.92
7.9
11.04
13.09
14.02
14.05
13.64
13.26
13.26
13.73
14.55
15.49
16.47
17.57
19.08
21.29
24.42
28.57
33.76
39.78
46.09
51.68
55.2
55.4
51.65
44.37
34.97
25.33
17.04
10.81
6.44
3.24
0.65
-1.36
-2.34
-1.79
0.38
3.7
7.29
10.25
12.04
12.69
12.62
12.37
12.25
12.21
11.93
10.98
9.21
6.79
4.25
2.17
0.95
0.62
0.85
1.17
1.2
0.76
-0.06
-1.08
-2.14
-3.14
-4.1
-5.07
-6.15
-7.48
-9.14
-11.19
-13.51
-15.85
-17.94
-19.56
-20.79
-21.94
-23.42
-25.46
-27.91
-30.16
-31.35
-30.67
-27.73
-22.67
-16.12
-8.96
-2.05
3.98
8.75
12.05
13.94
14.66
14.69
14.6
14.84
15.44
16.03
16.0
14.92
12.78
10.12
7.69
6.12
5.54
5.64
5.83
5.55
4.51
2.69
0.25
-2.62
-5.69
-8.75
-11.57
-13.99
-15.92
-17.35
-18.33
-18.86
-18.96
-18.65
-18.02
-17.09
-15.82
-13.91
-10.94
-6.44
-0.16
7.72
16.57
25.41
33.22
39.16
42.72
43.71
42.21
38.45
32.79
25.68
17.7
9.5
1.79
-4.82
-9.91
-13.32
-15.19
-15.88
-15.87
-15.53
-15.12
-14.67
-14.04
-13.06
-11.61
-9.71
-7.61
-5.67
-4.32
-3.79
-4.12
-5.06
-6.25
-7.4
-8.4
-9.39
-10.58
-12.12
-13.99
-15.96
-17.68
-18.77
-18.89
-17.86
-15.62
-12.36
-8.44
-4.32
-0.47
2.76
5.13
6.47
6.63
5.45
2.91
-0.76
-5.06
-9.36
-13.16
-16.26
-18.83
-21.17
-23.45
-25.57
-27.22
-28.1
-28.08
-27.3
-26.08
-24.63
-23.02
-21.12
-18.79
-16.01
-13.0
-10.02
-7.36
-5.15
-3.41
-2.08
-1.18
-0.75
-0.84
-1.37
-2.02
-2.34
-1.79
-0.03
3.01
7.06
11.64
16.24
20.45
24.05
26.93
29.06
30.39
30.86
30.47
29.31
27.57
25.54
23.46
21.55
19.92
18.69
17.91
17.65
17.89
18.45
19.07
19.42
19.24
18.43
17.08
15.33
13.32
11.09
8.56
5.63
2.2
-1.74
-6.23
-11.25
-16.78
-22.7
-28.77
-34.64
-39.93
-44.31
-47.56
-49.51
-50.09
-49.35
-47.63
-45.55
-43.87
-43.2
-43.69
-44.86
-45.73
-45.24
-42.66
-38.01
-32.03
-25.96
-21.24
-19.12
-20.51
-25.75
-34.6
-46.1
-58.64
-70.18
-78.65
-82.36
-80.54
-73.27
-61.3
-45.51
-26.61
-5.32
17.12
38.39
55.27
64.37
63.56
53.02
35.61
15.99
-1.07
-12.25
-16.6
-15.35
-10.9
-5.63
-1.1
2.21
4.57
6.58
8.77
11.38
14.3
17.08
19.1
19.8
18.84
16.33
12.8
9.0
5.61
3.02
1.21
-0.1
-1.25
-2.38
-3.39
-4.01
-4.05
-3.49
-2.5
-1.31
0.0
1.47
3.19
5.12
6.96
8.14
8.0
6.12
2.56
-2.08
-6.75
-10.35
-11.99
-11.32
-8.45
-3.9
1.6
7.36
12.8
17.59
21.61
24.87
27.48
29.56
31.23
32.61
33.76
34.65
35.09
34.8
33.49
31.03
27.52
23.33
18.94
14.75
10.97
7.52
4.18
0.68
-3.15
-7.3
-11.5
-15.31
-18.13
-19.45
-19.06
-17.29
-15.04
-13.54
-13.9
-16.57
-21.13
-26.42
-31.01
-33.79
-34.19
-32.18
-27.89
-21.36
-12.61
-2.01
9.45
20.23
28.74
34.01
36.11
35.8
34.0
31.12
26.93
21.04
13.59
5.53
-1.62
-6.54
-8.82
-9.03
-8.3
-7.63
-7.46
-7.65
-7.92
-8.18
-8.65
-9.59
-10.93
-12.19
-12.65
-11.82
-9.75
-7.13
-4.96
-4.08
-4.7
-6.27
-7.68
-7.76
-5.78
-1.79
3.45
8.73
12.68
14.13
12.5
8.07
1.99
-3.9
-7.7
-8.16
-5.16
0.19
6.04
10.66
13.2
13.94
13.94
14.25
15.34
16.9
18.18
18.56
17.93
16.66
15.27
14.03
12.77
10.9
7.83
3.36
-2.17
-7.93
-12.96
-16.48
-18.06
-17.67
-15.55
-12.06
-7.59
-2.48
2.94
8.37
13.55
18.23
22.21
25.33
27.53
28.83
29.35
29.32
29.03
28.72
28.63
28.8
29.15
29.56
29.91
30.16
30.3
30.24
29.71
28.36
25.86
22.18
17.61
12.68
7.85
3.24
-1.37
-6.39
-12.09
-18.42
-24.98
-31.31
-37.05
-42.09
-46.25
-49.06
-49.71
-47.32
-41.45
-32.57
-22.08
-11.94
-3.98
0.69
2.0
0.67
-2.07
-4.97
-6.96
-7.28
-5.54
-1.68
3.9
10.51
17.28
23.42
28.36
31.77
33.48
33.36
31.42
27.82
22.96
17.41
11.75
6.44
1.67
-2.59
-6.38
-9.57
-11.81
-12.64
-11.66
-8.86
-4.6
0.42
5.41
9.71
12.98
15.19
16.48
17.05
17.0
16.4
15.33
13.95
12.47
11.13
10.08
9.45
9.26
9.5
10.12
10.94
11.72
12.17
12.07
11.32
10.01
8.32
6.41
4.37
2.15
-0.37
-3.26
-6.44
-9.72
-12.74
-15.17
-16.71
-17.18
-16.55
-14.89
-12.33
-9.1
-5.48
-1.79
1.69
4.73
7.18
8.95
10.01
10.37
10.04
9.09
7.67
6.04
4.53
3.42
2.88
2.89
3.23
3.55
3.53
3.02
2.06
0.88
-0.33
-1.46
-2.54
-3.71
-5.05
-6.61
-8.35
-10.26
-12.32
-14.49
-16.56
-18.13
-18.7
-17.86
-15.47
-11.83
-7.52
-3.2
0.61
3.71
6.12
7.97
9.42
10.5
11.17
11.4
11.24
10.78
10.2
9.65
9.24
8.99
8.87
8.8
8.71
8.51
8.14
7.55
6.75
5.8
4.77
3.73
2.67
1.46
-0.08
-2.09
-4.62
-7.59
-10.84
-14.16
-17.32
-20.04
-22.03
-22.98
-22.71
-21.24
-18.84
-15.96
-13.06
-10.49
-8.4
-6.78
-5.63
-4.96
-4.84
-5.29
-6.13
-6.98
-7.21
-6.14
-3.26
1.49
7.57
13.92
19.25
22.43
22.88
20.66
16.43
11.21
6.07
1.94
-0.54
-1.11
0.15
2.86
6.42
10.23
13.86
17.17
20.15
22.68
24.47
25.14
24.55
23.12
21.82
21.87
24.17
28.85
35.19
41.89
47.68
51.84
54.39
55.95
57.33
59.14
61.54
64.32
67.05
69.38
71.18
72.63
74.12
76.04
78.46
81.06
83.18
84.11
83.39
81.08
77.65
73.77
70.04
66.71
63.61
60.08
55.06
47.22
35.32
18.73
-2.06
-25.25
-48.02
-67.38
-81.01
-87.97
-88.61
-84.13
-75.93
-65.14
-52.59
-38.95
-24.91
-11.23
1.38
12.32
21.2
27.96
32.89
36.6
39.87
43.37
47.33
51.4
54.83
56.92
57.42
56.66
55.31
53.93
52.58
50.86
48.15
44.08
38.78
32.79
26.82
21.43
16.92
13.23
10.02
6.82
3.1
-1.46
-6.86
-12.61
-17.76
-21.11
-21.66
-19.05
-13.7
-6.74
0.42
6.58
11.08
13.78
14.94
14.86
13.73
11.67
8.82
5.49
2.12
-0.86
-3.32
-5.54
-8.12
-11.61
-16.14
-21.23
-25.87
-28.99
-29.95
-28.9
-26.65
-24.31
-22.83
-22.71
-23.89
-25.98
-28.45
-30.86
-32.98
-34.66
-36.0
-37.12
-38.16
-39.06
-39.55
-39.24
-37.79
-35.26
-32.24
-29.78
-28.99
-30.65
-34.84
-40.87
-47.41
-52.78
-55.47
-54.6
-50.35
-43.98
-37.34
-32.1
-29.04
-27.66
-26.53
-24.03
-19.13
-11.83
-3.06
5.77
13.2
18.04
19.47
17.31
12.13
5.45
-0.7
-4.4
-4.63
-1.63
3.33
8.57
12.73
15.27
16.39
16.75
17.02
17.62
18.44
18.84
17.81
14.44
8.5
0.93
-6.37
-11.24
-12.34
-9.88
-5.52
-1.53
0.24
-0.93
-4.64
-9.87
-15.74
-21.78
-27.95
-34.13
-39.89
-44.38
-46.7
-46.39
-43.8
-40.09
-36.84
-35.34
-35.96
-37.92
-39.58
-39.2
-35.78
-29.42
-21.22
-12.54
-4.45
2.68
8.97
14.66
19.85
24.51
28.64
32.47
36.39
40.73
45.46
50.1
53.87
56.08
56.41
55.13
52.99
50.97
49.94
50.47
52.62
55.96
59.55
62.04
61.81
57.19
46.81
30.11
7.67
-18.69
-46.27
-72.11
-93.76
-109.74
-119.72
-124.26
-124.49
-121.74
-117.21
-111.74
-105.73
-99.13
-91.72
-83.34
-74.14
-64.65
-55.67
-48.08
-42.63
-39.91
-40.16
-43.23
-48.39
-54.29
-59.24
-61.63
-60.58
-56.24
-49.76
-42.77
-36.69
-32.21
-29.16
-26.86
-24.58
-21.91
-18.85
-15.58
-12.24
-8.71
-4.75
-0.29
4.45
8.95
12.71
15.49
17.45
19.0
20.45
21.81
22.8
23.03
22.23
20.32
17.27
13.0
7.37
0.32
-8.0
-17.2
-26.72
-36.08
-44.95
-53.08
-60.24
-66.09
-70.26
-72.42
-72.27
-69.45
-63.47
-53.7
-39.72
-21.79
-1.11
20.14
39.42
54.5
64.14
68.32
68.02
64.65
59.58
53.84
48.09
42.84
38.48
35.27
33.1
31.34
28.95
24.9
18.78
11.13
3.46
-2.44
-5.15
-4.34
-0.75
4.15
8.89
12.46
14.54
15.29
14.96
13.64
11.25
7.66
2.96
-2.48
-8.05
-13.05
-16.92
-19.38
-20.39
-20.13
-18.83
-16.71
-13.96
-10.78
-7.44
-4.23
-1.51
0.48
1.63
2.03
1.92
1.58
1.3
1.24
1.49
2.11
3.13
4.6
6.52
8.82
11.3
13.64
15.5
16.58
16.77
16.17
14.99
13.49
11.78
9.82
7.49
4.65
1.28
-2.53
-6.65
-11.01
-15.54
-20.14
-24.62
-28.61
-31.7
-33.52
-33.92
-33.01
-31.05
-28.34
-25.07
-21.33
-17.18
-12.82
-8.6
-4.9
-1.96
0.28
2.14
4.03
6.22
8.68
11.09
13.11
14.55
15.4
15.88
16.17
16.4
16.55
16.59
16.51
16.39
16.29
16.17
15.93
15.42
14.53
13.29
11.81
10.21
8.6
7.01
5.37
3.7
2.01
0.45
-0.72
-1.21
-0.73
0.84
3.42
6.7
10.21
13.45
16.06
17.88
18.9
19.26
19.05
18.33
17.12
15.54
13.81
12.2
10.97
10.22
9.87
9.72
9.6
9.39
9.12
8.86
8.64
8.37
7.88
6.99
5.57
3.59
1.14
-1.71
-4.9
-8.39
-12.15
-16.0
-19.7
-22.93
-25.42
-26.98
-27.6
-27.34
-26.35
-24.72
-22.53
-19.87
-16.9
-13.79
-10.74
-7.9
-5.37
-3.22
-1.5
-0.32
0.21
0.13
-0.41
-1.11
-1.66
-1.85
-1.65
-1.16
-0.53
0.14
0.85
1.65
2.57
3.6
4.78
6.18
7.94
10.11
12.57
14.96
16.74
17.39
16.57
14.27
10.8
6.68
2.6
-0.78
-2.83
-3.13
-1.53
1.78
6.27
11.2
15.83
19.65
22.5
24.56
26.17
27.58
28.82
29.72
30.03
29.56
28.38
26.69
24.84
23.14
21.83
21.04
20.86
21.23
21.99
22.9
23.63
23.89
23.46
22.28
20.4
17.93
15.02
11.88
8.69
5.71
3.11
0.95
-0.88
-2.62
-4.56
-6.9
-9.67
-12.7
-15.65
-18.16
-19.89
-20.62
-20.29
-19.01
-17.01
-14.59
-12.05
-9.62
-7.38
-5.31
-3.35
-1.47
0.24
1.65
2.63
3.13
3.25
3.19
3.13
3.19
3.38
3.65
3.97
4.33
4.72
5.13
5.46
5.53
5.19
4.35
3.06
1.54
0.07
-1.1
-1.89
-2.42
-3.01
-4.03
-5.72
-8.06
-10.8
-13.53
-15.76
-17.13
-17.41
-16.54
-14.57
-11.69
-8.23
-4.56
-1.07
1.94
4.31
5.98
7.03
7.58
7.79
7.8
7.75
7.64
7.47
7.2
6.86
6.5
6.21
6.06
6.07
6.23
6.5
6.84
7.18
7.36
7.16
6.35
4.82
2.66
0.17
-2.29
-4.47
-6.32
-7.98
-9.69
-11.69
-14.06
-16.69
-19.29
-21.45
-22.77
-22.91
-21.7
-19.21
-15.68
-11.47
-6.97
-2.54
1.55
5.08
7.89
9.94
11.24
11.88
11.99
11.65
10.93
9.86
8.54
7.15
5.89
4.98
4.55
4.6
5.0
5.51
5.93
6.02
5.61
4.57
2.83
0.5
-2.2
-4.92
-7.3
-9.1
-10.25
-10.94
-11.44
-12.07
-13.02
-14.33
-15.83
-17.23
-18.17
-18.32
-17.52
-15.74
-13.15
-10.07
-6.83
-3.71
-0.88
1.61
3.78
5.71
7.43
8.92
10.11
10.94
11.38
11.42
11.15
10.67
10.04
9.33
8.59
7.93
7.5
7.45
7.84
8.63
9.57
10.28
10.42
9.79
8.42
6.55
4.49
2.53
0.82
-0.64
-1.96
-3.32
-4.85
-6.62
-8.67
-10.92
-13.3
-15.56
-17.44
-18.59
-18.75
-17.76
-15.65
-12.62
-8.95
-4.94
-0.83
3.19
6.97
10.37
13.22
15.38
16.8
17.52
17.7
17.55
17.28
17.04
16.88
16.8
16.73
16.62
16.42
16.1
15.64
15.06
14.33
13.42
12.26
10.86
9.25
7.54
5.86
4.31
2.92
1.63
0.32
-1.12
-2.73
-4.53
-6.51
-8.65
-10.89
-13.05
-14.84
-15.89
-15.89
-14.68
-12.36
-9.2
-5.58
-1.85
1.76
5.05
7.93
10.25
11.9
12.83
13.12
12.97
12.59
12.17
11.76
11.3
10.69
9.84
8.79
7.61
6.43
5.37
4.44
3.6
2.78
1.87
0.8
-0.41
-1.72
-3.05
-4.34
-5.62
-6.92
-8.27
-9.68
-11.06
-12.34
-13.53
-14.74
-16.22
-18.17
-20.67
-23.54
-26.43
-28.85
-30.37
-30.71
-29.72
-27.51
-24.3
-20.47
-16.43
-12.53
-8.98
-5.84
-3.07
-0.62
1.46
3.06
4.1
4.65
4.93
5.23
5.72
6.44
7.22
7.89
8.32
8.52
8.59
8.54
8.33
7.91
7.3
6.63
6.05
5.61
5.17
4.44
3.15
1.23
-1.14
-3.54
-5.59
-7.05
-7.92
-8.41
-8.78
-9.29
-10.14
-11.41
-13.09
-15.0
-16.82
-18.12
-18.5
-17.66
-15.56
-12.35
-8.36
-3.96
0.46
4.57
8.12
10.99
13.13
14.65
15.66
16.31
16.7
16.89
16.93
16.86
16.74
16.61
16.5
16.39
16.26
16.09
15.83
15.5
15.03
14.34
13.36
12.0
10.29
8.37
6.42
4.63
3.08
1.75
0.51
-0.78
-2.22
-3.85
-5.65
-7.58
-9.61
-11.6
-13.32
-14.44
-14.58
-13.46
-11.12
-7.85
-4.17
-0.64
2.38
4.75
6.56
8.01
9.22
10.18
10.82
11.06
10.9
10.47
9.93
9.38
8.91
8.54
8.23
7.95
7.68
7.37
7.0
6.53
5.96
5.31
4.58
3.75
2.76
1.6
0.3
-1.07
-2.41
-3.68
-4.9
-6.14
-7.52
-9.14
-11.06
-13.31
-15.79
-18.27
-20.42
-21.78
-21.98
-20.81
-18.32
-14.86
-10.92
-6.94
-3.24
0.01
2.76
5.02
6.73
7.87
8.51
8.77
8.82
8.85
8.91
9.06
9.28
9.6
10.08
10.73
11.48
12.2
12.68
12.79
12.53
11.95
11.15
10.21
9.09
7.73
6.1
4.26
2.33
0.44
-1.36
-3.15
-5.05
-7.18
-9.58
-12.19
-14.86
-17.48
-19.96
-22.23
-24.13
-25.41
-25.75
-24.86
-22.67
-19.35
-15.31
-11.0
-6.83
-3.02
0.38
3.35
5.91
8.03
9.66
10.78
11.43
11.67
11.56
11.23
10.76
10.31
10.03
9.98
10.15
10.41
10.57
10.49
10.09
9.4
8.5
7.47
6.36
5.15
3.84
2.46
1.07
-0.26
-1.54
-2.79
-4.12
-5.6
-7.27
-9.11
-11.11
-13.25
-15.52
-17.93
-20.39
-22.72
-24.61
-25.68
-25.59
-24.19
-21.54
-17.93
-13.74
-9.37
-5.1
-1.09
2.56
5.76
8.41
10.35
11.52
11.96
11.88
11.57
11.28
11.16
11.23
11.42
11.64
11.87
12.08
12.27
12.4
12.38
12.15
11.61
10.7
9.41
7.78
5.94
4.07
2.41
1.11
0.19
-0.5
-1.27
-2.4
-4.04
-6.2
-8.7
-11.26
-13.59
-15.38
-16.34
-16.26
-15.06
-12.86
-9.91
-6.62
-3.35
-0.37
2.18
4.25
5.86
7.04
7.82
8.23
8.33
8.24
8.04
7.86
7.8
7.95
8.26
8.63
8.92
9.01
8.91
8.68
8.47
8.32
8.13
7.73
6.91
5.57
3.8
1.79
-0.22
-2.04
-3.65
-5.15
-6.74
-8.6
-10.84
-13.45
-16.36
-19.34
-22.13
-24.42
-25.88
-26.23
-25.27
-23.02
-19.66
-15.52
-11.03
-6.57
-2.38
1.4
4.74
7.64
10.07
11.98
13.36
14.24
14.75
15.02
15.19
15.4
15.69
16.14
16.7
17.26
17.66
17.68
17.19
16.2
14.88
13.44
12.02
10.67
9.26
7.65
5.77
3.69
1.52
-0.58
-2.58
-4.53
-6.57
-8.82
-11.33
-14.04
-16.84
-19.57
-22.06
-24.12
-25.59
-26.29
-26.03
-24.65
-22.09
-18.42
-13.89
-8.9
-3.94
0.56
4.35
7.35
9.63
11.32
12.48
13.16
13.39
13.33
13.18
13.19
13.58
14.4
15.52
16.67
17.61
18.16
18.3
18.1
17.67
17.03
16.22
15.19
13.95
12.52
10.98
9.37
7.71
5.97
4.05
1.89
-0.57
-3.31
-6.3
-9.43
-12.58
-15.58
-18.14
-19.94
-20.65
-20.05
-18.13
-15.14
-11.51
-7.74
-4.22
-1.16
1.43
3.67
5.68
7.52
9.14
10.42
11.26
11.62
11.57
11.26
10.89
10.68
10.75
11.16
11.8
12.51
13.07
13.33
13.2
12.74
12.06
11.24
10.27
9.05
7.46
5.44
3.12
0.72
-1.5
-3.39
-4.98
-6.46
-8.05
-9.91
-12.07
-14.43
-16.82
-19.07
-20.99
-22.44
-23.28
-23.32
-22.43
-20.55
-17.73
-14.17
-10.15
-6.0
-2.03
1.52
4.51
6.91
8.72
9.96
10.64
10.8
10.52
9.98
9.41
9.0
8.85
8.92
9.1
9.24
9.29
9.26
9.19
9.09
8.91
8.5
7.78
6.72
5.4
4.0
2.66
1.42
0.21
-1.14
-2.8
-4.86
-7.25
-9.79
-12.31
-14.67
-16.84
-18.83
-20.58
-21.94
-22.61
-22.25
-20.63
-17.71
-13.71
-9.05
-4.22
0.36
4.39
7.75
10.37
12.28
13.52
14.18
14.45
14.53
14.64
14.84
15.15
15.43
15.59
15.63
15.61
15.63
15.72
15.81
15.77
15.5
14.96
14.2
13.23
12.06
10.69
9.09
7.33
5.47
3.6
1.72
-0.2
-2.2
-4.34
-6.62
-9.04
-11.6
-14.26
-16.88
-19.17
-20.73
-21.17
-20.23
-17.92
-14.5
-10.4
-6.11
-2.01
1.65
4.77
7.37
9.5
11.21
12.5
13.36
13.75
13.67
13.2
12.47
11.71
11.08
10.71
10.6
10.67
10.8
10.84
10.66
10.19
9.41
8.33
7.0
5.49
3.87
2.21
0.57
-1.04
-2.66
-4.33
-6.09
-7.9
-9.73
-11.46
-13.12
-14.8
-16.7
-18.97
-21.66
-24.6
-27.43
-29.66
-30.81
-30.54
-28.73
-25.48
-21.14
-16.18
-11.09
-6.28
-2.01
1.63
4.62
7.0
8.83
10.11
10.88
11.21
11.24
11.18
11.23
11.57
12.31
13.4
14.68
15.91
16.86
17.37
17.41
17.01
16.27
15.27
14.03
12.55
10.81
8.84
6.7
4.55
2.5
0.65
-1.01
-2.54
-4.05
-5.65
-7.4
-9.31
-11.38
-13.62
-16.08
-18.71
-21.41
-23.89
-25.73
-26.5
-25.95
-24.06
-21.12
-17.58
-13.89
-10.4
-7.26
-4.49
-2.04
0.1
1.94
3.39
4.39
4.92
4.98
4.74
4.43
4.3
4.53
5.16
6.04
6.93
7.61
7.97
8.02
7.87
7.61
7.24
6.73
5.96
4.9
3.59
2.2
0.94
-0.05
-0.76
-1.35
-2.07
-3.15
-4.69
-6.61
-8.74
-10.92
-13.08
-15.15
-16.98
-18.26
-18.57
-17.51
-15.01
-11.4
-7.28
-3.32
0.06
2.79
5.13
7.35
9.55
11.57
13.15
14.1
14.46
14.51
14.59
14.9
15.45
16.03
16.44
16.56
16.4
16.07
15.66
15.19
14.66
14.04
13.31
12.5
11.63
10.67
9.63
8.51
7.39
6.36
5.5
4.75
3.91
2.7
0.81
-1.9
-5.29
-9.02
-12.53
-15.28
-16.88
-17.19
-16.3
-14.52
-12.16
-9.52
-6.83
-4.22
-1.83
0.26
1.95
3.19
3.97
4.36
4.43
4.27
3.94
3.48
2.92
2.36
1.87
1.5
1.23
0.99
0.71
0.36
-0.05
-0.51
-1.09
-1.91
-3.12
-4.75
-6.68
-8.68
-10.49
-12.02
-13.31
-14.55
-15.91
-17.47
-19.19
-20.95
-22.66
-24.24
-25.63
-26.64
-27.04
-26.53
-24.92
-22.2
-18.61
-14.49
-10.22
-6.12
-2.37
0.93
3.79
6.24
8.26
9.83
10.88
11.41
11.46
11.18
10.78
10.44
10.29
10.34
10.53
10.85
11.29
11.88
12.61
13.36
13.85
13.79
12.99
11.46
9.39
7.05
4.7
2.47
0.41
-1.53
-3.39
-5.21
-6.98
-8.75
-10.58
-12.59
-14.87
-17.46
-20.23
-22.94
-25.23
-26.7
-27.07
-26.2
-24.15
-21.21
-17.79
-14.31
-11.06
-8.18
-5.66
-3.41
-1.32
0.6
2.29
3.7
4.79
5.66
6.46
7.32
8.28
9.26
10.14
10.8
11.29
11.7
12.16
12.73
13.3
13.64
13.5
12.73
11.4
9.72
8.0
6.48
5.22
4.15
3.11
1.95
0.61
-0.96
-2.75
-4.79
-7.12
-9.74
-12.56
-15.38
-17.86
-19.62
-20.32
-19.77
-17.99
-15.2
-11.79
-8.15
-4.65
-1.5
1.2
3.46
5.33
6.83
7.97
8.75
9.17
9.3
9.26
9.19
9.28
9.61
10.15
10.8
11.39
11.82
12.06
12.14
12.12
12.0
11.71
11.19
10.37
9.26
7.92
6.4
4.73
2.96
1.12
-0.7
-2.46
-4.19
-6.03
-8.15
-10.63
-13.4
-16.15
-18.41
-19.71
-19.73
-18.4
-15.89
-12.51
-8.61
-4.47
-0.33
3.68
7.37
10.59
13.2
15.13
16.37
17.0
17.14
16.95
16.59
16.19
15.87
15.67
15.6
15.63
15.71
15.78
15.81
15.77
15.58
15.16
14.45
13.38
11.99
10.33
8.51
6.62
