17.58
16.93
15.84
14.23
12.15
9.72
7.15
4.63
2.29
0.16
-1.8
-3.64
-5.41
-7.14
-8.83
-10.5
-12.25
-14.26
-16.74
-19.81
-23.42
-27.22
-30.58
-32.74
-33.04
-31.17
-27.26
-21.86
-15.73
-9.62
-4.11
0.51
4.16
6.94
8.95
10.31
11.12
11.49
11.62
11.71
11.93
12.36
12.99
13.68
14.35
14.88
15.23
15.42
15.44
15.29
14.93
14.36
13.55
12.41
10.8
8.61
5.78
2.46
-1.07
-4.46
-7.4
-9.84
-11.88
-13.81
-15.93
-18.51
-21.71
-25.55
-29.86
-34.21
-37.91
-40.17
-40.31
-38.01
-33.51
-27.57
-21.22
-15.44
-10.8
-7.3
-4.37
-1.16
3.15
8.94
16.08
23.95
31.69
38.59
44.34
49.09
53.33
57.58
62.17
67.1
72.08
76.72
80.59
83.38
84.84
84.78
83.05
79.55
74.26
67.4
59.41
50.98
42.88
35.81
30.12
25.73
22.11
18.53
14.33
9.12
2.88
-4.15
-11.6
-19.02
-25.89
-31.61
-35.51
-37.0
-35.77
-31.99
-26.27
-19.5
-12.66
-6.55
-1.76
1.42
2.94
2.82
1.15
-2.0
-6.51
-12.13
-18.46
-24.99
-31.24
-36.94
-42.03
-46.68
-51.03
-55.07
-58.56
-61.15
-62.6
-62.95
-62.51
-61.74
-61.06
-60.69
-60.6
-60.66
-60.71
-60.65
-60.45
-60.13
-59.74
-59.34
-59.03
-58.98
-59.37
-60.32
-61.78
-63.43
-64.74
-65.0
-63.55
-60.0
-54.34
-46.99
-38.69
-30.27
-22.43
-15.66
-10.1
-5.68
-2.15
0.72
3.09
5.05
6.55
7.56
8.08
8.21
8.18
8.28
8.76
9.72
11.11
12.76
14.43
15.94
17.16
17.99
18.33
18.1
17.2
15.63
13.47
10.96
8.41
6.11
4.23
2.78
1.57
0.32
-1.31
-3.54
-6.48
-9.93
-13.49
-16.52
-18.35
-18.42
-16.5
-12.79
-7.85
-2.41
2.94
7.84
12.22
16.09
19.48
22.29
24.35
25.6
26.11
26.11
25.88
25.67
25.63
25.82
26.2
26.69
27.17
27.54
27.68
27.55
27.16
26.59
25.89
25.05
23.94
22.41
20.37
17.88
15.14
12.39
9.84
7.54
5.38
3.17
0.72
-2.09
-5.23
-8.57
-11.85
-14.69
-16.6
-17.13
-15.97
-13.05
-8.64
-3.25
2.51
8.12
13.21
17.61
21.23
23.99
25.86
26.81
26.95
26.5
25.75
24.97
24.35
23.92
23.6
23.24
22.71
21.99
21.14
20.33
19.65
19.08
18.44
17.47
15.96
13.87
11.35
8.68
6.13
3.85
1.89
0.15
-1.47
-3.09
-4.8
-6.7
-8.86
-11.34
-14.12
-17.07
-19.88
-22.07
-23.12
-22.59
-20.29
-16.38
-11.32
-5.79
-0.42
4.39
8.46
11.82
14.54
16.67
18.23
19.19
19.63
19.64
19.36
18.9
18.36
17.88
17.57
17.54
17.79
18.23
18.63
18.76
18.48
17.79
16.76
15.53
14.1
12.42
10.41
8.05
5.45
2.79
0.27
-2.0
-4.04
-5.95
-7.85
-9.81
-11.8
-13.75
-15.64
-17.45
-19.18
-20.71
-21.76
-21.89
-20.68
-17.86
-13.59
-8.31
-2.73
2.46
6.81
10.14
12.54
14.22
15.33
15.89
15.88
15.25
14.07
12.54
11.01
9.81
9.18
9.17
9.63
10.32
10.95
11.33
11.39
11.12
10.52
9.55
8.16
6.32
4.12
1.72
-0.62
-2.69
-4.39
-5.74
-6.91
-8.05
-9.3
-10.67
-12.14
-13.67
-15.28
-17.02
-18.84
-20.55
-21.74
-21.91
-20.61
-17.7
-13.35
-8.07
-2.54
2.68
7.18
10.85
13.72
15.89
17.44
18.35
18.61
18.21
17.25
15.94
14.6
13.49
12.79
12.54
12.59
12.73
12.71
12.39
11.71
10.79
9.77
8.75
7.78
6.75
5.56
4.09
2.39
0.55
-1.22
-2.78
-4.07
-5.13
-6.12
-7.25
-8.7
-10.57
-12.88
-15.51
-18.17
-20.49
-22.05
-22.46
-21.49
-19.07
-15.35
-10.73
-5.72
-0.86
3.4
6.84
9.43
11.3
12.62
13.48
13.91
13.93
13.57
12.96
12.3
11.8
11.65
11.88
12.43
13.15
13.83
14.3
14.39
14.06
13.3
12.2
10.81
9.16
7.21
4.98
2.47
-0.13
-2.6
-4.68
-6.25
-7.32
-8.05
-8.65
-9.29
-10.08
-11.09
-12.38
-14.03
-15.95
-17.88
-19.35
-19.76
-18.63
-15.82
-11.56
-6.47
-1.26
3.47
7.37
10.28
12.2
13.2
13.33
12.7
11.48
9.94
8.35
6.98
5.97
5.37
5.19
5.4
5.93
6.67
7.42
7.94
8.01
7.54
6.6
5.37
4.07
2.78
1.45
-0.03
-1.78
-3.78
-5.92
-7.99
-9.88
-11.55
-13.11
-14.65
-16.23
-17.81
-19.37
-20.93
-22.54
-24.23
-25.92
-27.3
-27.92
-27.31
-25.17
-21.5
-16.66
-11.21
-5.73
-0.72
3.51
6.82
9.22
10.7
11.3
11.08
10.17
8.84
7.4
6.17
5.37
5.04
5.04
5.2
5.34
5.38
5.33
5.22
5.05
4.76
4.28
3.53
2.55
1.41
0.22
-0.94
-2.06
-3.11
-4.12
-5.07
-5.97
-6.84
-7.76
-8.88
-10.29
-12.03
-13.98
-15.87
-17.32
-17.93
-17.39
-15.54
-12.46
-8.46
-4.02
0.36
4.3
7.6
10.21
12.19
13.58
14.35
14.47
13.97
13.01
11.87
10.8
10.05
9.68
9.65
9.83
10.06
10.24
10.32
10.27
10.09
9.75
9.17
8.28
7.01
5.38
3.48
1.47
-0.51
-2.35
-4.03
-5.55
-6.95
-8.24
-9.49
-10.75
-12.13
-13.73
-15.62
-17.74
-19.91
-21.81
-23.04
-23.17
-21.9
-19.13
-15.02
-9.97
-4.58
0.56
4.97
8.41
10.86
12.46
13.37
13.71
13.53
12.85
11.83
10.74
9.92
9.64
9.98
10.75
11.61
12.24
12.41
12.09
11.36
10.34
9.09
7.61
5.89
4.01
2.1
0.29
-1.28
-2.54
-3.51
-4.26
-4.91
-5.6
-6.45
-7.5
-8.77
-10.24
-11.89
-13.74
-15.77
-17.89
-19.88
-21.34
-21.85
-21.08
-18.93
-15.55
-11.34
-6.8
-2.39
1.53
4.73
7.12
8.7
9.54
9.74
9.41
8.69
7.71
6.62
5.63
4.91
4.62
4.81
5.39
6.14
6.8
7.12
6.95
6.33
5.37
4.22
3.01
1.74
0.31
-1.36
-3.32
-5.47
-7.61
-9.52
-11.1
-12.44
-13.72
-15.19
-16.92
-18.85
-20.74
-22.4
-23.7
-24.55
-24.86
-24.41
-22.88
-20.0
-15.76
-10.39
-4.49
1.27
6.31
10.31
13.23
15.22
16.45
16.98
16.85
16.06
14.74
13.19
11.77
10.82
10.46
10.62
11.08
11.58
11.93
12.06
11.93
11.54
10.88
9.94
8.72
7.28
5.65
3.9
2.05
0.12
-1.85
-3.8
-5.65
-7.34
-8.92
-10.47
-12.17
-14.17
-16.52
-19.13
-21.66
-23.64
-24.5
-23.82
-21.44
-17.57
-12.64
-7.24
-1.91
2.96
7.13
10.47
12.91
14.4
14.96
14.7
13.8
12.58
11.34
10.33
9.72
9.55
9.77
10.22
10.75
11.17
11.39
11.33
10.98
10.38
9.53
8.47
7.25
5.91
4.48
2.97
1.36
-0.35
-2.14
-3.95
-5.69
-7.28
-8.73
-10.15
-11.71
-13.62
-16.0
-18.78
-21.65
-24.09
-25.52
-25.42
-23.53
-19.91
-14.94
-9.18
-3.22
2.44
7.45
11.6
14.8
17.02
18.25
18.53
18.01
16.92
15.54
14.23
13.22
12.67
12.58
12.84
13.29
13.75
14.04
14.04
13.65
12.84
11.62
10.05
8.25
6.28
4.16
1.9
-0.53
-3.06
-5.55
-7.79
-9.58
-10.87
-11.75
-12.48
-13.35
-14.61
-16.37
-18.55
-20.94
-23.24
-25.06
-25.99
-25.64
-23.79
-20.44
-15.91
-10.78
-5.69
-1.2
2.38
5.02
6.88
8.15
8.92
9.21
9.06
8.57
8.0
7.65
7.75
8.34
9.29
10.35
11.31
12.0
12.4
12.55
12.48
12.21
11.72
10.96
9.92
8.6
7.03
5.31
3.55
1.89
0.45
-0.72
-1.66
-2.45
-3.21
-4.07
-5.12
-6.35
-7.69
-8.89
-9.59
-9.36
-7.8
-4.63
0.18
6.46
13.79
21.66
29.53
36.88
43.32
48.59
52.62
55.48
57.29
58.2
58.3
57.65
56.3
54.37
52.03
49.42
46.69
43.88
41.01
38.06
35.04
31.91
28.66
25.18
21.41
17.25
12.67
7.7
2.37
-3.27
-9.22
-15.44
-21.85
-28.25
-34.36
-39.86
-44.51
-48.21
-51.04
-53.21
-54.96
-56.31
-57.03
-56.65
-54.6
-50.48
-44.22
-36.15
-26.92
-17.31
-8.04
0.42
7.84
14.22
19.68
24.4
28.58
32.41
36.18
40.26
45.18
51.49
59.62
69.71
81.43
93.99
106.39
117.74
127.49
135.62
142.36
147.95
152.22
154.43
153.32
147.45
135.58
117.02
91.72
60.43
24.76
-12.79
-49.2
-81.44
-107.51
-127.11
-141.8
-154.24
-166.87
-180.56
-193.97
-204.1
-207.55
-202.06
-187.45
-165.5
-139.12
-111.12
-83.45
-56.95
-31.8
-8.05
13.94
33.44
49.61
62.05
71.18
78.23
84.84
92.27
100.69
109.01
115.24
117.37
114.28
106.32
95.14
82.98
71.75
62.35
54.51
47.21
39.32
30.16
19.87
9.31
-0.2
-7.45
-11.77
-13.38
-13.37
-13.27
-14.45
-17.62
-22.66
-28.8
-35.14
-41.0
-46.1
-50.31
-53.44
-55.1
-54.85
-52.45
-47.96
-41.67
-33.97
-25.25
-15.99
-6.88
1.12
6.89
9.6
9.1
6.12
1.99
-1.8
-4.23
-5.03
-4.61
-3.78
-3.32
-3.71
-5.07
-7.21
-9.88
-12.93
-16.23
-19.56
-22.47
-24.3
-24.52
-23.12
-20.91
-19.27
-19.63
-22.62
-27.65
-33.07
-37.07
-38.68
-38.26
-37.28
-37.36
-39.25
-42.23
-44.39
-43.53
-38.14
-28.0
-14.28
0.93
15.23
26.48
33.23
34.93
32.09
26.01
18.45
11.11
5.18
1.06
-1.54
-3.21
-4.43
-5.08
-4.42
-1.4
4.85
14.3
25.77
37.04
45.56
49.22
47.04
39.33
27.44
13.23
-1.46
-15.07
-26.49
-35.05
-40.63
-43.57
-44.72
-44.99
-45.04
-44.95
-44.23
-42.12
-38.17
-32.53
-26.05
-19.81
-14.72
-11.05
-8.57
-6.76
-5.27
-4.13
-3.65
-4.26
-6.29
-9.84
-14.64
-20.09
-25.07
-28.05
-27.37
-21.87
-11.63
1.79
15.64
26.87
33.18
33.68
29.02
20.83
10.96
0.88
-8.66
-17.52
-25.93
-34.07
-41.72
-48.07
-51.86
-51.79
-47.18
-38.59
-27.87
-17.67
-10.47
-7.75
-9.63
-15.09
-22.57
-30.61
-38.09
-44.17
-48.14
-49.36
-47.45
-42.55
-35.4
-27.13
-18.99
-11.94
-6.57
-3.1
-1.51
-1.72
-3.61
-7.06
-11.82
-17.32
-22.58
-26.26
-27.18
-24.9
-20.36
-15.79
-14.0
-17.07
-25.24
-36.72
-48.33
-56.72
-59.39
-55.2
-44.21
-27.48
-6.98
14.37
32.91
44.88
47.57
40.27
24.61
4.05
-17.37
-36.23
-50.46
-59.36
-63.17
-62.55
-58.28
-51.16
-42.18
-32.5
-23.41
-15.92
-10.49
-6.83
-4.13
-1.52
1.39
4.32
6.63
7.73
7.55
6.67
5.96
6.12
7.36
9.35
11.44
13.02
13.74
13.52
12.47
10.79
8.74
6.54
4.42
2.57
1.09
-0.03
-0.88
-1.67
-2.66
-4.15
-6.36
-9.52
-13.86
-19.64
-26.97
-35.6
-44.73
-53.01
-58.81
-60.76
-58.19
-51.36
-41.34
-29.61
-17.47
-5.71
5.5
16.45
27.53
38.96
50.57
61.81
71.87
79.97
85.51
88.3
88.56
86.88
83.98
80.56
77.14
74.02
71.29
68.88
66.63
64.29
61.55
58.13
53.76
48.42
42.31
35.86
29.58
23.9
19.02
14.84
11.06
7.32
3.39
-0.81
-5.25
-9.82
-14.49
-19.23
-24.0
-28.56
-32.5
-35.31
-36.45
-35.62
-32.81
-28.35
-22.79
-16.79
-10.87
-5.34
-0.31
4.23
8.25
11.61
14.08
15.49
15.87
15.5
14.86
14.41
14.41
14.89
15.64
16.41
16.99
17.28
17.31
17.09
16.64
15.9
14.81
13.34
11.5
9.34
6.91
4.29
1.53
-1.27
-4.04
-6.7
-9.22
-11.61
-13.99
-16.53
-19.4
-22.68
-26.26
-29.76
-32.59
-34.08
-33.71
-31.25
-26.9
-21.19
-14.88
-8.65
-3.0
1.83
5.82
9.03
11.54
13.31
14.34
14.67
14.44
13.92
13.41
13.16
13.21
13.52
13.89
14.18
14.34
14.4
14.46
14.52
14.42
13.92
12.76
10.84
8.23
5.22
2.17
-0.65
-3.12
-5.3
-7.44
-9.81
-12.64
-16.1
-20.19
-24.76
-29.45
-33.73
-36.95
-38.48
-37.89
-35.05
-30.25
-24.1
-17.35
-10.67
-4.57
0.73
5.15
8.68
11.31
13.02
13.89
14.07
13.86
13.61
13.58
13.88
14.5
15.29
16.04
16.57
16.73
16.5
15.92
15.11
14.16
13.1
11.87
10.35
8.5
6.31
3.93
1.55
-0.68
-2.72
-4.66
-6.71
-9.12
-12.09
-15.75
-20.02
-24.63
-29.09
-32.81
-35.2
-35.82
-34.49
-31.22
-26.28
-20.09
-13.17
-6.1
0.58
6.44
11.27
15.02
17.82
19.83
21.21
22.06
22.47
22.59
22.6
22.73
23.09
23.69
24.34
24.79
24.86
24.52
23.93
23.29
22.72
22.12
21.22
19.66
17.25
14.06
10.41
6.7
3.27
0.26
-2.4
-4.89
-7.38
-10.01
-12.88
-16.07
-19.59
-23.36
-27.02
-30.02
-31.63
-31.21
-28.4
-23.3
-16.44
-8.69
-1.03
5.66
10.84
14.39
16.56
17.77
18.44
18.82
18.98
18.87
18.52
18.04
17.68
17.64
17.99
18.56
19.07
19.18
18.74
17.8
16.55
15.24
14.02
12.83
11.43
9.61
7.23
4.35
1.22
-1.91
-4.88
-7.72
-10.58
-13.63
-16.98
-20.65
-24.62
-28.8
-33.06
-37.06
-40.34
-42.31
-42.45
-40.51
-36.62
-31.28
-25.15
-18.93
-13.09
-7.88
-3.4
0.35
3.34
5.51
6.79
7.26
7.09
6.61
6.15
5.99
6.29
6.98
7.92
8.88
9.66
10.13
10.28
10.11
9.6
8.73
7.39
5.47
3.0
0.1
-3.04
-6.16
-9.1
-11.76
-14.16
-16.42
-18.71
-21.23
-24.18
-27.69
-31.72
-35.97
-39.88
-42.73
-43.82
-42.7
-39.33
-34.06
-27.53
-20.45
-13.45
-6.94
-1.15
3.84
7.99
11.29
13.71
15.29
16.1
16.32
16.2
16.04
16.15
16.72
17.8
19.25
20.78
22.07
22.86
22.99
22.47
21.38
19.81
17.89
15.72
13.4
11.02
8.65
6.35
4.11
1.89
-0.37
-2.75
-5.3
-8.05
-11.05
-14.32
-17.95
-21.96
-26.29
-30.65
-34.49
-37.03
-37.53
-35.5
-30.94
-24.35
-16.62
-8.65
-1.16
5.44
11.12
15.92
19.92
23.08
25.33
26.63
27.13
27.08
26.84
26.7
26.82
27.22
27.82
28.51
29.21
29.87
30.41
30.66
30.41
29.48
27.8
25.48
22.79
20.05
17.46
15.1
12.86
10.59
8.16
5.6
3.0
0.51
-1.78
-3.89
-5.94
-8.14
-10.73
-13.9
-17.69
-21.87
-25.9
-29.03
-30.38
-29.33
-25.65
-19.7
-12.3
-4.48
2.83
9.01
13.84
17.45
20.11
22.04
23.36
24.11
24.29
23.97
23.32
22.59
22.0
21.68
21.68
21.92
22.32
22.72
22.95
22.83
22.15
20.72
18.47
15.43
11.82
7.96
4.23
0.98
-1.61
-3.61
-5.27
-7.02
-9.2
-11.98
-15.33
-19.05
-22.9
-26.67
-30.18
-33.14
-35.1
-35.54
-33.99
-30.33
-24.86
-18.32
-11.55
-5.24
0.24
4.89
8.87
12.27
14.99
16.83
17.61
17.42
16.62
15.72
15.18
15.17
15.58
16.13
16.58
16.83
16.92
16.94
16.88
16.65
16.07
14.99
13.26
10.88
7.97
4.73
1.46
-1.58
-4.17
-6.3
-8.14
-10.03
-12.31
-15.2
-18.67
-22.41
-25.92
-28.65
-30.07
-29.78
-27.58
-23.5
-17.81
-11.06
-3.94
2.86
8.79
13.54
16.98
19.14
20.08
19.89
18.79
17.12
15.36
14.02
13.44
13.67
14.49
15.52
16.42
16.96
17.07
16.79
16.12
15.01
13.42
11.32
8.72
5.79
2.75
-0.18
-2.82
-5.14
-7.25
-9.38
-11.86
-14.99
-18.93
-23.58
-28.49
-32.89
-35.92
-36.81
-35.17
-31.1
-25.21
-18.32
-11.32
-4.86
0.71
5.27
8.85
11.48
13.12
13.75
13.44
12.4
11.0
9.65
8.69
8.31
8.48
9.03
9.74
10.41
10.91
11.18
11.23
11.11
10.84
10.4
9.68
8.52
6.76
4.37
1.49
-1.57
-4.45
-6.85
-8.67
-10.09
-11.48
-13.24
-15.65
-18.77
-22.41
-26.11
-29.31
-31.38
-31.82
-30.28
-26.75
-21.46
-14.9
-7.72
-0.55
6.09
11.91
16.78
20.69
23.71
25.87
27.18
27.67
27.44
26.75
25.92
25.29
25.06
25.27
25.72
26.15
26.35
26.23
25.82
25.19
24.35
23.23
21.69
19.66
17.18
14.42
11.59
8.82
6.16
3.52
0.84
-1.87
-4.47
-6.82
-8.8
-10.5
-12.16
-14.11
-16.61
-19.74
-23.29
-26.8
-29.64
-31.11
-30.65
-28.0
-23.24
-16.84
-9.52
-2.06
4.86
10.82
15.58
19.09
21.41
22.6
22.81
22.29
21.36
20.39
19.67
19.34
19.36
19.54
19.63
19.55
19.31
19.05
18.9
18.89
18.87
18.6
17.84
16.53
14.76
12.8
10.91
9.27
7.89
6.6
5.17
3.43
1.34
-1.04
-3.53
-5.96
-8.19
-10.23
-12.15
-14.13
-16.36
-18.94
-21.85
-24.86
-27.51
-29.22
-29.42
-27.72
-24.0
-18.5
-11.69
-4.24
3.16
9.93
15.61
19.99
23.06
24.98
25.95
26.19
25.82
24.97
23.8
22.53
21.41
20.64
20.24
20.12
20.07
19.91
19.56
19.0
18.28
17.34
16.1
14.47
12.43
10.11
7.73
5.52
3.62
1.98
0.49
-1.05
-2.75
-4.65
-6.66
-8.68
-10.55
-12.21
-13.65
-14.99
-16.42
-18.16
-20.38
-23.0
-25.7
-27.9
-28.9
-28.15
-25.38
-20.77
-14.84
-8.32
-1.89
3.92
8.8
12.67
15.53
17.53
18.77
19.41
19.63
19.55
19.33
19.07
18.9
18.91
19.16
19.64
20.27
20.99
21.69
22.34
22.9
23.35
23.69
23.89
23.94
23.86
23.75
23.71
23.91
24.52
25.72
27.57
30.02
32.79
35.44
37.57
39.01
39.99
41.03
42.64
45.09
48.14
51.24
53.78
55.37
55.94
55.6
54.44
52.41
49.36
45.23
40.21
34.78
29.51
24.96
21.46
19.1
17.76
17.19
17.07
17.02
16.65
15.59
13.58
10.48
6.39
1.6
-3.4
-8.12
-12.17
-15.48
-18.29
-21.07
-24.24
-27.96
-32.05
-35.99
-39.21
-41.35
-42.39
-42.7
-42.86
-43.39
-44.53
-46.13
-47.76
-48.9
-49.23
-48.8
-48.02
-47.53
-47.98
-49.73
-52.79
-56.74
-60.93
-64.67
-67.45
-69.07
-69.57
-69.16
-67.96
-65.98
-63.07
-59.19
-54.46
-49.29
-44.2
-39.6
-35.59
-31.84
-27.8
-22.93
-17.0
-10.09
-2.55
5.33
13.43
21.92
31.16
41.37
52.56
64.3
75.81
86.14
94.45
100.33
103.91
105.79
106.74
107.36
107.72
107.3
105.03
99.56
89.59
74.14
52.85
26.28
-3.88
-34.99
-64.01
-88.4
-106.96
-120.07
-129.2
-135.83
-140.42
-142.22
-139.92
-132.78
-121.39
-107.5
-92.99
-78.6
-63.34
-45.12
-22.31
4.77
33.38
59.25
78.48
89.17
92.18
90.42
87.25
85.02
84.42
84.78
84.88
83.49
79.25
70.12
53.52
27.51
-7.34
-46.63
-82.8
-107.72
-116.28
-108.73
-90.52
-69.55
-52.57
-42.62
-38.91
-38.69
-39.72
-41.65
-45.66
-53.01
-63.62
-75.74
-86.72
-94.31
-97.57
-97.05
-94.27
-90.8
-87.55
-84.55
-81.14
-76.6
-70.63
-63.63
-56.53
-50.33
-45.61
-42.27
-39.53
-36.38
-31.99
-26.09
-19.17
-12.17
-6.24
-2.25
-0.56
-0.89
-2.58
-4.83
-7.03
-8.86
-10.28
-11.39
-12.28
-13.01
-13.58
-14.11
-14.76
-15.68
-16.8
-17.77
-17.99
-16.85
-13.98
-9.46
-3.79
2.32
8.17
13.31
17.55
20.9
23.39
25.02
25.73
25.55
24.63
23.26
21.81
20.57
19.72
19.25
19.06
19.03
19.12
19.33
19.7
20.19
20.66
20.89
20.68
19.86
18.4
16.33
13.81
11.0
8.06
5.14
2.29
-0.48
-3.23
-6.02
-8.77
-11.23
-12.95
-13.4
-12.19
-9.18
-4.6
1.06
7.19
13.19
18.59
23.09
26.57
29.01
30.48
31.12
31.11
30.57
29.66
28.49
27.24
26.1
25.24
24.78
24.68
24.82
24.95
24.88
24.46
23.65
22.52
21.16
19.66
18.11
16.54
14.93
13.17
11.13
8.61
5.48
1.71
-2.59
-7.13
-11.46
-14.99
-17.08
-17.22
-15.16
-11.07
-5.47
0.85
7.12
12.73
17.36
20.9
23.41
24.93
25.53
25.27
24.26
22.7
20.82
18.89
17.12
15.63
14.43
13.46
12.61
11.81
11.05
10.42
9.98
9.7
9.41
8.86
7.78
6.07
3.81
1.23
-1.41
-3.9
-6.21
-8.4
-10.6
-12.94
-15.46
-18.13
-20.74
-22.95
-24.33
-24.42
-22.91
-19.72
-15.11
-9.58
-3.77
1.71
6.39
9.97
12.37
13.61
13.84
13.25
12.11
10.62
8.97
7.29
5.64
4.17
3.02
2.39
2.43
3.21
4.62
6.4
8.23
9.82
10.96
11.56
11.69
11.47
11.08
10.71
10.44
10.29
10.11
9.66
8.68
6.95
4.42
1.23
-2.21
-5.31
-7.42
-7.94
-6.58
-3.37
1.28
6.7
12.17
17.1
21.07
23.94
25.71
26.46
26.32
25.42
23.93
22.04
19.99
17.97
16.16
14.66
13.5
12.6
11.85
11.09
10.19
9.08
7.73
6.19
4.46
2.52
0.31
-2.26
-5.19
-8.41
-11.73
-14.93
-17.88
-20.58
-23.18
-25.88
-28.79
-31.76
-34.35
-35.95
-35.93
-33.87
-29.74
-23.87
-16.89
-9.53
-2.43
3.94
9.32
13.56
16.56
18.29
18.75
18.1
16.61
14.71
12.81
11.21
10.04
9.27
8.78
8.46
8.28
8.26
8.41
8.64
8.79
8.59
7.8
6.35
4.3
1.92
-0.49
-2.67
-4.55
-6.22
-7.91
-9.87
-12.28
-15.22
-18.6
-22.18
-25.57
-28.17
-29.32
-28.45
-25.24
-19.82
-12.79
-5.02
2.58
9.29
14.76
18.94
21.93
23.85
24.7
24.51
23.4
21.67
19.72
17.96
16.67
15.96
15.78
16.06
16.7
17.67
18.86
20.07
21.04
21.5
21.29
20.35
18.72
16.49
13.71
10.51
7.02
3.47
0.09
-2.94
-5.58
-7.94
-10.22
-12.7
-15.57
-18.79
-22.04
-24.8
-26.41
-26.3
-24.24
-20.37
-15.21
-9.45
-3.73
1.57
6.27
10.4
13.95
16.89
19.09
20.39
20.73
20.18
18.92
17.26
15.5
13.9
12.6
11.6
10.81
10.09
9.33
8.43
7.37
6.1
4.54
2.63
0.35
-2.28
-5.15
-8.07
-10.84
-13.32
-15.43
-17.18
-18.68
-20.09
-21.61
-23.43
-25.64
-28.15
-30.56
-32.23
-32.5
-30.85
-27.19
-21.89
-15.66
-9.29
-3.39
1.72
6.01
9.55
12.39
14.41
15.49
15.57
14.77
13.43
12.01
10.91
10.35
10.29
10.52
10.8
11.0
11.13
11.29
11.51
11.68
11.54
10.76
9.15
6.69
3.6
0.26
-2.98
-5.86
-8.27
-10.29
-12.11
-13.94
-15.97
-18.31
-20.92
-23.67
-26.23
-28.11
-28.75
-27.66
-24.58
-19.69
-13.55
-6.97
-0.7
4.78
9.27
12.82
15.49
17.27
18.11
18.02
17.19
15.93
14.63
13.55
12.83
12.45
12.3
12.25
12.17
11.96
11.52
10.85
10.04
9.16
8.27
7.26
5.95
4.16
1.85
-0.83
-3.58
-6.13
-8.33
-10.25
-12.11
-14.13
-16.47
-19.13
-22.0
-24.88
-27.46
-29.35
-30.13
-29.4
-26.94
-22.8
-17.32
-11.08
-4.71
1.24
6.48
10.85
14.37
17.02
18.77
19.57
19.43
18.53
17.15
15.68
14.46
13.68
13.35
13.33
13.41
13.37
13.13
12.64
11.95
11.11
10.14
9.02
7.64
5.89
3.72
1.17
-1.51
-4.05
-6.2
-7.86
-9.16
-10.35
-11.74
-13.6
-16.05
-19.08
-22.5
-25.9
-28.75
-30.36
-30.13
-27.73
-23.22
-17.12
-10.17
-3.2
3.13
8.45
12.59
15.6
17.57
18.55
18.64
17.97
16.69
15.01
13.21
11.54
10.23
9.42
9.15
9.35
9.9
10.59
11.21
11.58
11.57
11.14
10.33
9.22
7.87
6.33
4.58
2.66
0.62
-1.45
-3.38
-5.09
-6.57
-7.91
-9.3
-10.94
-13.01
-15.57
-18.51
-21.59
-24.41
-26.5
-27.36
-26.58
-23.93
-19.46
-13.52
-6.75
0.11
6.35
11.44
15.19
17.64
18.98
19.45
19.19
18.36
17.09
15.61
14.15
12.91
12.01
11.47
11.23
11.22
11.35
11.52
11.63
11.56
11.21
10.51
9.44
8.01
6.19
3.98
1.41
-1.47
-4.51
-7.51
-10.31
-12.81
-15.03
-17.1
-19.21
-21.5
-24.01
-26.6
-28.96
-30.59
-31.03
-29.86
-26.88
-22.21
-16.27
-9.7
-3.22
2.56
7.24
10.67
12.94
14.24
14.74
14.59
13.85
12.61
11.01
9.28
7.7
6.55
6.01
6.11
6.75
7.71
8.75
9.63
10.18
10.28
9.86
8.9
7.47
5.7
3.78
1.87
0.04
-1.77
-3.64
-5.64
-7.74
-9.83
-11.81
-13.69
-15.64
-17.89
-20.63
-23.83
-27.21
-30.24
-32.33
-32.92
-31.68
-28.48
-23.52
-17.22
-10.23
-3.23
3.15
8.48
12.6
15.5
17.29
18.15
18.19
17.6
16.56
15.31
14.07
13.05
12.34
11.97
11.93
12.15
12.53
12.92
13.16
13.1
12.66
11.86
10.79
9.54
8.12
6.49
4.58
2.36
-0.11
-2.65
-5.08
-7.25
-9.14
-10.8
-12.37
-13.97
-15.74
-17.78
-20.18
-22.94
-25.94
-28.87
-31.2
-32.26
-31.5
-28.64
-23.84
-17.69
-10.93
-4.35
1.46
6.2
9.76
12.24
13.8
14.67
15.02
15.02
14.74
14.26
13.65
13.07
12.67
12.54
12.63
12.79
12.86
12.81
12.74
12.77
12.94
13.04
12.72
11.66
9.78
7.32
4.69
2.27
0.2
-1.63
-3.5
-5.57
-7.86
-10.2
-12.36
-14.25
-15.92
-17.57
-19.45
-21.72
-24.37
-27.25
-29.97
-32.09
-33.1
-32.54
-30.17
-25.97
-20.22
-13.4
-6.18
0.75
6.72
11.32
14.38
16.07
16.74
16.8
16.54
16.04
15.29
14.29
13.16
12.17
11.58
11.53
11.96
12.63
13.26
13.71
13.9
13.81
13.46
12.8
11.76
10.3
8.42
6.21
3.78
1.29
-1.13
-3.38
-5.46
-7.37
-9.19
-10.99
-12.8
-14.68
-16.7
-18.96
-21.53
-24.38
-27.25
-29.7
-31.16
-31.13
-29.26
-25.5
-20.08
-13.47
-6.32
0.66
6.81
11.64
14.95
16.82
17.54
17.52
17.08
16.42
15.64
14.72
13.69
12.6
11.59
10.8
10.38
10.43
10.93
11.72
12.52
13.04
13.05
12.47
11.37
9.94
8.32
6.51
4.4
1.83
-1.23
-4.63
-8.02
-11.09
-13.67
-15.83
-17.86
-20.07
-22.66
-25.63
-28.85
-32.08
-35.05
-37.44
-38.9
-38.98
-37.32
-33.71
-28.29
-21.51
-14.07
-6.69
0.02
5.71
10.27
13.74
16.25
17.92
18.9
19.35
19.47
19.51
19.65
20.02
20.64
21.46
22.35
23.22
24.0
24.63
25.04
25.07
24.61
23.53
21.83
19.61
17.02
14.27
11.51
8.88
6.45
4.22
2.17
0.21
-1.74
-3.79
-6.04
-8.53
-11.29
-14.29
-17.56
-21.14
-25.02
-29.07
-32.95
-36.06
-37.63
-37.03
-33.93
-28.58
-21.71
-14.33
-7.33
-1.29
3.67
7.69
10.95
13.54
15.41
16.48
16.78
16.47
15.84
15.19
14.77
14.72
15.1
15.9
17.06
18.41
19.71
20.71
21.16
20.89
19.84
18.04
15.6
12.65
9.36
5.86
2.29
-1.2
-4.45
-7.33
-9.72
-11.61
-13.13
-14.51
-16.08
-18.16
-20.92
-24.34
-28.09
-31.63
-34.22
-35.18
-34.04
-30.71
-25.51
-19.07
-12.13
-5.36
0.78
6.07
10.46
13.97
16.59
18.34
19.21
19.27
18.73
17.85
16.94
16.21
15.78
15.67
15.77
15.99
16.23
16.44
16.55
16.48
16.12
15.37
14.19
12.59
10.63
8.38
5.88
3.23
0.47
-2.27
-4.91
-7.37
-9.6
-11.6
-13.41
-15.11
-16.88
-18.95
-21.54
-24.74
-28.43
-32.13
-35.11
-36.53
-35.71
-32.38
-26.79
-19.63
-11.81
-4.15
2.74
8.58
13.32
17.02
19.7
21.38
22.08
21.9
21.01
19.73
18.39
17.31
16.73
16.75
17.27
18.08
18.88
19.4
19.5
19.11
18.31
17.18
15.78
14.16
12.28
10.17
7.83
5.36
2.81
0.23
-2.36
-4.94
-7.47
-9.87
-12.06
-13.99
-15.74
-17.52
-19.6
-22.16
-25.2
-28.35
-31.04
-32.53
-32.2
-29.72
-25.17
-19.03
-12.04
-5.01
1.4
6.83
11.13
14.36
16.64
18.08
18.83
19.01
18.8
18.39
17.93
17.5
17.13
16.85
16.73
16.92
17.48
18.38
19.41
20.21
20.43
19.82
18.37
16.21
13.64
10.95
8.33
5.86
3.55
1.31
-0.92
-3.14
-5.33
-7.42
-9.34
-11.03
-12.52
-13.93
-15.51
-17.58
-20.35
-23.85
-27.72
-31.29
-33.71
-34.23
-32.43
-28.4
-22.67
-16.04
-9.3
-3.0
2.56
7.29
11.2
14.25
16.38
17.53
17.77
17.28
16.36
15.28
14.27
13.46
12.91
12.65
12.73
13.13
13.79
14.56
15.24
15.65
15.64
15.1
14.01
12.32
10.06
7.32
4.3
1.25
-1.6
-4.07
-6.17
-7.98
-9.67
-11.45
-13.5
-15.98
-18.95
-22.34
-25.82
-28.87
-30.78
-30.87
-28.74
-24.36
-18.23
-11.13
-4.01
2.37
7.47
11.17
13.61
15.03
15.7
15.77
15.34
14.52
13.48
12.48
11.76
11.49
11.71
12.34
13.19
14.09
14.84
15.32
15.46
15.26
14.76
13.99
12.97
11.63
9.89
7.69
5.04
2.12
-0.86
-3.64
-6.09
-8.18
-10.05
-11.89
-13.93
-16.32
-19.16
-22.41
-25.87
-29.18
-31.79
-33.12
-32.69
-30.29
-26.04
-20.44
-14.16
-7.85
-1.99
3.23
7.76
11.6
14.71
16.98
18.36
18.89
18.81
18.43
18.01
17.71
17.58
17.62
17.84
18.34
19.12
20.09
20.99
21.52
21.41
20.57
19.09
17.16
14.97
12.63
10.14
7.51
4.76
1.94
-0.9
-3.75
-6.59
-9.37
-11.96
-14.26
-16.24
-18.01
-19.81
-21.93
-24.52
-27.53
-30.62
-33.28
-34.89
-34.92
-33.01
-29.09
-23.44
-16.62
-9.39
-2.52
3.43
8.21
11.86
14.58
16.54
17.81
18.41
18.36
17.83
17.05
16.32
15.82
15.62
15.65
15.8
15.97
16.1
16.09
15.9
15.48
14.83
