-25.96
-20.9
-14.89
-8.44
-2.1
3.68
8.6
12.51
15.34
17.08
17.74
17.4
16.25
14.54
12.62
10.85
9.45
8.52
7.99
7.64
7.28
6.75
6.07
5.33
4.62
3.95
3.15
1.99
0.26
-2.04
-4.73
-7.45
-9.87
-11.86
-13.51
-15.06
-16.79
-18.88
-21.35
-24.13
-27.06
-29.87
-32.14
-33.34
-32.9
-30.42
-25.85
-19.6
-12.34
-4.88
2.12
8.19
13.09
16.69
18.93
19.85
19.63
18.61
17.23
15.89
14.91
14.38
14.22
14.27
14.34
14.26
13.95
13.38
12.59
11.64
10.56
9.31
7.79
5.88
3.58
1.0
-1.67
-4.21
-6.5
-8.53
-10.39
-12.23
-14.13
-16.16
-18.4
-20.87
-23.54
-26.22
-28.45
-29.67
-29.32
-27.08
-22.99
-17.46
-11.12
-4.64
1.47
6.85
11.35
14.87
17.36
18.85
19.42
19.24
18.63
17.93
17.4
17.17
17.16
17.21
17.14
16.85
16.41
15.92
15.47
15.08
14.66
14.09
13.23
11.97
10.24
8.04
5.47
2.74
0.12
-2.18
-4.06
-5.65
-7.19
-8.99
-11.25
-13.99
-17.08
-20.14
-22.72
-24.26
-24.29
-22.49
-18.84
-13.67
-7.54
-1.12
5.02
10.46
14.95
18.29
20.31
20.87
19.94
17.7
14.57
11.13
7.94
5.31
3.34
1.84
0.56
-0.68
-1.89
-2.98
-3.84
-4.5
-5.15
-6.0
-7.27
-8.98
-10.98
-13.0
-14.79
-16.21
-17.29
-18.19
-19.11
-20.22
-21.64
-23.42
-25.51
-27.79
-30.03
-31.83
-32.67
-31.99
-29.39
-24.78
-18.44
-10.96
-3.04
4.68
11.8
18.07
23.38
27.59
30.59
32.31
32.8
32.29
31.12
29.63
28.08
26.57
25.09
23.57
21.97
20.31
18.67
17.16
15.84
14.67
13.51
12.16
10.46
8.32
5.8
3.04
0.22
-2.54
-5.23
-7.98
-10.93
-14.19
-17.67
-21.06
-23.9
-25.64
-25.86
-24.33
-21.13
-16.53
-10.97
-4.94
1.07
6.65
11.46
15.27
17.94
19.42
19.73
19.02
17.53
15.57
13.51
11.74
10.48
9.81
9.62
9.66
9.7
9.59
9.32
8.94
8.54
8.1
7.5
6.55
5.11
3.15
0.8
-1.66
-4.0
-6.03
-7.78
-9.39
-11.12
-13.21
-15.83
-18.95
-22.35
-25.61
-28.14
-29.37
-28.87
-26.48
-22.39
-17.06
-11.09
-5.06
0.57
5.46
9.43
12.37
14.22
14.95
14.65
13.48
11.72
9.74
7.98
6.76
6.25
6.41
6.97
7.63
8.11
8.31
8.29
8.2
8.08
7.86
7.3
6.14
4.3
1.86
-0.85
-3.43
-5.64
-7.46
-9.15
-11.05
-13.46
-16.44
-19.85
-23.32
-26.42
-28.71
-29.79
-29.32
-27.06
-22.97
-17.28
-10.53
-3.41
3.35
9.21
13.89
17.36
19.68
20.94
21.19
20.49
19.0
17.02
14.87
12.94
11.46
10.52
10.05
9.83
9.61
9.17
8.4
7.32
6.03
4.63
3.16
1.55
-0.39
-2.8
-5.74
-9.04
-12.37
-15.38
-17.82
-19.67
-21.19
-22.74
-24.7
-27.23
-30.2
-33.19
-35.59
-36.75
-36.19
-33.68
-29.33
-23.56
-17.0
-10.31
-4.03
1.51
6.2
10.04
13.07
15.27
16.6
17.13
16.98
16.45
15.87
15.52
15.55
15.92
16.53
17.26
17.99
18.68
19.24
19.58
19.55
18.99
17.78
15.92
13.5
10.7
7.73
4.79
1.95
-0.77
-3.44
-6.14
-8.94
-11.89
-15.07
-18.52
-22.21
-25.99
-29.52
-32.34
-33.95
-33.93
-32.13
-28.65
-23.88
-18.4
-12.86
-7.92
-4.08
-1.66
-0.72
-1.15
-2.68
-5.06
-8.1
-11.65
-15.61
-19.88
-24.38
-29.04
-33.75
-38.38
-42.77
-46.74
-50.25
-53.48
-56.96
-61.5
-67.97
-76.91
-88.02
-100.02
-110.72
-117.62
-118.74
-113.25
-101.78
-86.14
-68.68
-51.58
-36.27
-23.29
-12.27
-2.26
8.02
19.86
34.13
51.01
69.78
89.02
107.04
122.37
134.26
142.75
148.5
152.52
155.8
159.24
163.45
168.7
174.79
180.9
185.63
187.28
184.33
175.97
162.48
145.08
125.51
105.3
85.24
65.28
44.89
23.75
2.25
-18.38
-36.41
-50.29
-59.21
-63.3
-63.45
-60.89
-56.77
-51.97
-47.15
-42.73
-38.96
-35.9
-33.34
-30.98
-28.58
-26.16
-23.96
-22.37
-21.59
-21.5
-21.59
-21.15
-19.48
-16.13
-10.95
-4.04
4.24
13.36
22.58
30.99
37.61
41.52
42.18
39.49
33.89
26.17
17.35
8.35
-0.07
-7.42
-13.36
-17.79
-20.74
-22.43
-23.19
-23.38
-23.31
-23.21
-23.14
-23.11
-23.14
-23.21
-23.34
-23.56
-23.85
-24.13
-24.32
-24.38
-24.3
-24.14
-24.0
-24.05
-24.52
-25.6
-27.51
-30.24
-33.54
-36.83
-39.28
-40.08
-38.62
-34.78
-28.98
-22.02
-14.86
-8.29
-2.81
1.42
4.42
6.3
7.14
7.02
6.03
4.37
2.36
0.32
-1.43
-2.7
-3.39
-3.53
-3.25
-2.74
-2.23
-1.93
-2.03
-2.57
-3.56
-4.96
-6.75
-8.87
-11.28
-13.89
-16.55
-19.11
-21.43
-23.46
-25.22
-26.82
-28.39
-30.06
-31.98
-34.27
-36.97
-39.99
-43.0
-45.49
-46.81
-46.32
-43.63
-38.68
-31.82
-23.68
-15.08
-6.77
0.7
7.01
12.09
16.01
18.97
21.17
22.77
23.94
24.82
25.55
26.28
27.16
28.24
29.44
30.56
31.31
31.42
30.72
29.17
26.87
24.03
20.89
17.62
14.3
10.96
7.58
4.18
0.86
-2.23
-4.98
-7.28
-9.19
-10.82
-12.34
-13.94
-15.81
-18.1
-20.9
-24.19
-27.75
-31.13
-33.74
-34.96
-34.38
-31.9
-27.78
-22.56
-16.99
-11.8
-7.59
-4.73
-3.31
-3.15
-3.89
-5.15
-6.57
-7.91
-9.05
-9.92
-10.42
-10.46
-9.96
-8.9
-7.39
-5.62
-3.79
-2.12
-0.75
0.15
0.44
-0.06
-1.45
-3.77
-6.9
-10.58
-14.51
-18.41
-22.14
-25.66
-29.03
-32.34
-35.64
-38.9
-42.08
-45.12
-48.03
-50.89
-53.78
-56.74
-59.6
-61.91
-62.95
-61.88
-57.92
-50.7
-40.41
-27.8
-14.04
-0.35
12.26
23.25
32.41
39.8
45.47
49.42
51.65
52.32
51.8
50.65
49.36
48.23
47.31
46.55
45.99
45.78
46.09
46.84
47.59
47.61
46.2
42.99
38.21
32.56
26.88
21.7
17.07
12.52
7.35
0.99
-6.8
-15.9
-25.93
-36.4
-46.82
-56.69
-65.49
-72.61
-77.49
-79.68
-79.0
-75.63
-70.05
-63.02
-55.37
-47.91
-41.16
-35.3
-30.1
-25.04
-19.62
-13.57
-6.98
-0.19
6.41
12.56
18.21
23.37
28.02
32.0
35.14
37.36
38.85
40.04
41.32
42.94
44.71
46.2
46.78
45.97
43.59
39.81
35.13
30.16
25.51
21.57
18.46
15.93
13.56
10.87
7.6
3.83
0.0
-3.15
-4.88
-4.64
-2.27
1.98
7.5
13.51
19.29
24.27
28.15
30.86
32.47
33.07
32.78
31.72
30.11
28.3
26.7
25.67
25.44
25.96
27.02
28.3
29.52
30.49
31.13
31.48
31.55
31.39
31.03
30.53
29.9
29.16
28.23
27.06
25.58
23.74
21.57
19.09
16.36
13.37
10.05
6.35
2.36
-1.56
-4.8
-6.57
-6.25
-3.6
0.94
6.39
11.4
14.71
15.58
14.02
10.73
6.81
3.35
1.04
0.01
-0.07
0.28
0.6
0.69
0.63
0.69
1.12
2.11
3.68
5.67
7.8
9.67
10.91
11.23
10.64
9.47
8.33
7.84
8.37
9.89
11.97
14.0
15.44
16.05
15.88
15.18
14.15
12.79
10.87
8.07
4.14
-0.84
-6.44
-11.88
-16.26
-18.9
-19.49
-18.3
-16.0
-13.43
-11.31
-10.07
-9.8
-10.38
-11.7
-13.74
-16.62
-20.39
-24.97
-30.01
-34.98
-39.27
-42.38
-44.04
-44.21
-43.02
-40.71
-37.5
-33.59
-29.29
-24.92
-20.88
-17.56
-15.2
-13.87
-13.46
-13.67
-14.12
-14.47
-14.5
-14.13
-13.42
-12.5
-11.46
-10.38
-9.17
-7.63
-5.45
-2.28
2.22
8.16
15.38
23.38
31.42
38.68
44.45
48.3
50.11
50.01
48.31
45.34
41.43
36.89
32.01
27.09
22.36
18.0
14.11
10.63
7.46
4.46
1.54
-1.28
-3.97
-6.5
-8.94
-11.45
-14.18
-17.12
-20.0
-22.4
-23.86
-24.14
-23.38
-22.03
-20.7
-19.95
-20.05
-20.95
-22.32
-23.61
-24.21
-23.52
-21.16
-17.04
-11.47
-5.03
1.6
7.81
13.25
17.8
21.44
24.19
25.99
26.77
26.53
25.42
23.75
21.92
20.3
19.17
18.67
18.81
19.5
20.67
22.19
24.0
25.99
28.05
30.04
31.87
33.43
34.64
35.36
35.38
34.43
32.3
28.87
24.21
18.55
12.18
5.4
-1.5
-8.27
-14.62
-20.19
-24.61
-27.53
-28.71
-28.09
-25.78
-22.07
-17.37
-12.19
-7.08
-2.59
0.92
3.31
4.74
5.51
6.0
6.42
6.8
7.02
6.94
6.52
5.78
4.79
3.46
1.75
-0.31
-2.48
-4.38
-5.7
-6.52
-7.36
-8.98
-11.97
-16.37
-21.63
-26.86
-31.36
-34.89
-37.77
-40.46
-43.31
-46.26
-48.98
-51.12
-52.45
-52.92
-52.53
-51.18
-48.67
-44.78
-39.53
-33.16
-26.18
-19.21
-12.72
-7.03
-2.22
1.79
5.14
7.96
10.36
12.37
14.06
15.58
17.1
18.79
20.65
22.54
24.26
25.68
26.83
27.9
29.1
30.42
31.71
32.63
32.91
32.41
31.24
29.55
27.49
25.13
22.53
19.8
17.13
14.67
12.43
10.21
7.68
4.49
0.44
-4.43
-9.89
-15.5
-20.76
-25.23
-28.55
-30.52
-31.14
-30.68
-29.57
-28.38
-27.61
-27.58
-28.37
-29.82
-31.64
-33.45
-34.88
-35.66
-35.62
-34.7
-32.92
-30.34
-27.01
-23.03
-18.54
-13.77
-8.97
-4.38
-0.17
3.62
7.1
10.35
13.43
16.31
18.9
21.14
23.06
24.81
26.56
28.52
30.8
33.4
36.12
38.56
40.14
40.27
38.57
35.09
30.46
25.7
21.89
19.79
19.51
20.56
22.07
23.23
23.57
23.14
22.3
21.46
20.8
20.25
19.6
18.67
17.42
15.94
14.25
12.2
9.41
5.43
-0.08
-7.16
-15.48
-24.38
-33.12
-41.0
-47.58
-52.81
-56.95
-60.46
-63.78
-67.16
-70.52
-73.55
-75.81
-76.96
-76.82
-75.41
-72.8
-69.13
-64.55
-59.32
-53.73
-48.1
-42.57
-37.07
-31.33
-25.01
-18.0
-10.49
-2.95
4.05
10.14
15.24
19.51
23.2
26.46
29.21
31.26
32.47
32.88
32.8
32.64
32.82
33.52
34.73
36.23
37.78
39.17
40.32
41.19
41.79
42.12
42.14
41.84
41.19
40.2
38.95
37.53
36.14
35.0
34.3
34.18
34.65
35.63
37.02
38.7
40.56
42.45
44.16
45.46
46.21
46.5
46.64
47.06
48.21
50.28
53.22
56.78
60.63
64.48
68.0
70.85
72.54
72.59
70.61
66.59
60.78
53.79
46.29
38.89
32.09
26.2
21.51
18.14
16.11
15.26
15.21
15.52
15.73
15.57
14.89
13.66
11.86
9.39
6.07
1.68
-3.88
-10.49
-17.82
-25.45
-33.06
-40.62
-48.36
-56.66
-65.79
-75.7
-86.0
-96.08
-105.27
-112.94
-118.58
-121.74
-122.14
-119.65
-114.52
-107.31
-98.81
-89.82
-80.93
-72.46
-64.51
-57.11
-50.32
-44.26
-39.03
-34.61
-30.87
-27.5
-24.13
-20.39
-16.02
-10.96
-5.39
0.31
5.74
10.55
14.63
17.96
20.58
22.47
23.49
23.51
22.48
20.56
18.0
15.18
12.44
10.08
8.36
7.41
7.25
7.76
8.66
9.65
10.48
11.09
11.62
12.37
13.64
15.62
18.28
21.37
24.5
27.32
29.52
30.99
31.69
31.69
31.03
29.77
27.97
25.83
23.68
21.9
20.89
20.86
21.77
23.32
25.1
26.75
28.14
29.31
30.5
31.89
33.49
35.11
36.45
37.29
37.6
37.54
37.36
37.23
37.17
37.05
36.64
35.72
34.08
31.59
28.07
23.36
17.36
10.2
2.26
-5.78
-13.14
-19.23
-23.76
-26.86
-28.96
-30.55
-31.99
-33.37
-34.59
-35.45
-35.8
-35.59
-34.87
-33.74
-32.27
-30.54
-28.65
-26.78
-25.17
-24.09
-23.75
-24.28
-25.61
-27.6
-30.11
-33.08
-36.52
-40.47
-44.89
-49.56
-54.12
-58.22
-61.53
-63.89
-65.22
-65.47
-64.57
-62.51
-59.36
-55.32
-50.65
-45.57
-40.24
-34.73
-29.13
-23.55
-18.1
-12.82
-7.61
-2.31
3.16
8.62
13.69
17.89
20.93
22.85
23.95
24.58
24.93
24.98
24.59
23.72
22.57
21.54
21.05
21.32
22.26
23.44
24.31
24.46
23.75
22.29
20.32
18.02
15.38
12.26
8.48
3.99
-1.05
-6.36
-11.62
-16.72
-21.69
-26.67
-31.71
-36.64
-41.06
-44.44
-46.4
-46.8
-45.82
-43.85
-41.28
-38.32
-34.95
-31.02
-26.44
-21.33
-16.05
-10.99
-6.38
-2.2
1.76
5.7
9.62
13.19
15.97
17.62
18.22
18.24
18.43
19.47
21.73
25.1
29.1
33.12
36.61
39.33
41.3
42.68
43.6
44.05
43.87
42.84
40.91
38.23
35.08
31.87
28.87
26.2
23.79
21.55
19.46
17.61
16.23
15.48
15.37
15.63
15.82
15.52
14.57
13.25
12.22
12.26
13.93
17.31
21.97
27.18
32.15
36.31
39.32
40.99
41.18
39.8
36.87
32.6
27.33
21.5
15.47
9.44
3.53
-2.13
-7.32
-11.71
-15.03
-17.2
-18.34
-18.77
-18.77
-18.49
-17.88
-16.88
-15.49
-13.84
-12.12
-10.41
-8.56
-6.26
-3.08
1.25
6.84
13.61
21.4
30.01
39.24
48.8
58.25
67.09
74.91
81.56
87.28
92.6
98.04
103.77
109.39
113.91
116.13
115.08
110.52
103.09
94.12
85.13
77.31
71.24
66.84
63.7
61.34
59.42
57.69
55.83
53.37
49.79
44.69
38.01
30.15
21.75
13.45
5.65
-1.61
-8.57
-15.54
-22.71
-30.12
-37.65
-45.12
-52.32
-59.08
-65.26
-70.75
-75.59
-79.98
-84.18
-88.32
-92.23
-95.4
-97.16
-96.96
-94.63
-90.46
-85.09
-79.13
-73.08
-67.19
-61.57
-56.37
-51.75
-47.88
-44.85
-42.6
-40.94
-39.68
-38.7
-37.89
-37.22
-36.61
-35.94
-35.05
-33.89
-32.47
-30.84
-29.09
-27.27
-25.47
-23.79
-22.42
-21.5
-21.14
-21.29
-21.83
-22.64
-23.67
-24.97
-26.67
-28.87
-31.5
-34.38
-37.22
-39.74
-41.7
-42.88
-43.05
-41.97
-39.4
-35.3
-29.87
-23.51
-16.79
-10.27
-4.39
0.58
4.47
7.25
8.93
9.64
9.64
9.26
8.8
8.49
8.4
8.47
8.64
8.88
9.22
9.67
10.15
10.5
10.49
9.97
8.91
7.43
5.69
3.9
2.15
0.44
-1.23
-2.89
-4.52
-6.14
-7.82
-9.7
-11.97
-14.74
-17.98
-21.52
-25.03
-28.04
-30.12
-30.9
-30.2
-28.08
-24.8
-20.83
-16.61
-12.51
-8.73
-5.31
-2.25
0.41
2.58
4.12
4.99
5.28
5.23
5.12
5.21
5.62
6.31
7.16
8.05
8.91
9.74
10.55
11.34
12.02
12.49
12.58
12.23
11.47
10.49
9.55
8.96
8.91
9.44
10.45
11.69
12.9
13.82
14.23
13.96
13.0
11.54
10.03
9.08
9.3
11.04
14.25
18.5
23.17
27.67
31.61
34.82
37.24
38.85
39.58
39.33
38.05
35.8
32.73
29.15
25.45
21.98
19.02
16.69
14.9
13.47
12.18
10.88
9.48
7.98
6.4
4.71
2.88
0.86
-1.4
-3.9
-6.64
-9.55
-12.5
-15.33
-17.89
-20.06
-21.83
-23.27
-24.53
-25.74
-27.07
-28.57
-30.21
-31.76
-32.82
-32.91
-31.56
-28.53
-23.89
-18.06
-11.64
-5.29
0.5
5.42
9.36
12.37
14.55
16.02
16.93
17.33
17.19
16.45
14.98
12.75
9.85
6.45
2.86
-0.66
-3.86
-6.58
-8.73
-10.29
-11.31
-11.91
-12.32
-12.79
-13.51
-14.54
-15.74
-16.84
-17.49
-17.38
-16.31
-14.28
-11.44
-8.11
-4.77
-1.9
0.06
0.89
0.64
-0.3
-1.37
-1.93
-1.48
0.24
3.18
6.94
10.9
14.35
16.65
17.44
16.75
14.93
12.51
10.03
7.8
5.83
3.87
1.56
-1.5
-5.57
-10.76
-16.93
-23.74
-30.59
-36.83
-41.84
-45.28
-47.08
-47.57
-47.2
-46.47
-45.77
-45.33
-45.18
-45.21
-45.28
-45.2
-44.87
-44.31
-43.68
-43.21
-43.15
-43.66
-44.74
-46.19
-47.67
-48.72
-48.83
-47.59
-44.72
-40.26
-34.49
-27.98
-21.41
-15.4
-10.32
-6.25
-3.05
-0.4
1.91
4.0
5.81
7.24
8.31
9.21
10.19
11.47
13.1
14.99
16.93
18.75
20.37
21.83
23.16
24.37
25.33
25.88
25.86
25.2
23.94
22.26
20.35
18.4
16.56
14.97
13.65
12.56
11.52
10.29
8.59
6.28
3.43
0.37
-2.35
-4.21
-4.79
-3.91
-1.69
1.56
5.42
9.46
13.28
16.59
19.21
21.13
22.5
23.47
24.15
24.53
24.44
23.76
22.49
20.86
19.24
18.01
17.36
17.31
17.69
18.26
18.88
19.47
20.0
20.36
20.42
20.01
19.05
17.6
15.78
13.79
11.77
9.79
7.87
6.01
4.19
2.39
0.58
-1.32
-3.4
-5.81
-8.59
-11.73
-15.02
-18.1
-20.46
-21.58
-21.08
-18.85
-15.1
-10.31
-5.13
-0.19
4.08
7.51
10.17
12.27
13.97
15.33
16.26
16.65
16.52
16.09
15.68
15.59
15.98
16.78
17.75
18.58
19.07
19.12
18.77
18.1
17.21
16.17
15.04
13.85
12.58
11.19
9.63
7.87
5.89
3.71
1.33
-1.25
-3.98
-6.75
-9.42
-11.86
-14.09
-16.19
-18.3
-20.37
-22.15
-23.15
-22.85
-20.86
-17.13
-11.92
-5.77
0.65
6.72
11.88
15.82
18.44
19.89
20.45
20.43
20.03
19.28
18.19
16.79
15.26
13.88
12.9
12.41
12.33
12.46
12.64
12.79
12.93
13.05
13.11
12.97
12.46
11.46
9.94
8.0
5.82
3.6
1.52
-0.32
-1.93
-3.43
-5.03
-6.9
-9.18
-11.87
-14.79
-17.59
-19.85
-21.12
-21.04
-19.42
-16.34
-12.07
-7.09
-1.92
2.96
7.21
10.64
13.19
14.92
15.91
16.25
16.04
15.41
14.49
13.44
12.4
11.52
10.85
10.39
10.07
9.78
9.44
8.99
8.44
7.89
7.4
6.97
6.52
5.9
4.95
3.62
1.98
0.19
-1.55
-3.1
-4.43
-5.62
-6.82
-8.21
-9.94
-12.12
-14.74
-17.63
-20.46
-22.72
-23.82
-23.32
-21.0
-17.02
-11.87
-6.24
-0.79
4.0
7.89
10.86
12.99
14.39
15.16
15.37
15.12
14.48
13.56
12.51
11.48
10.59
9.92
9.45
9.12
8.82
8.52
8.22
7.96
7.74
7.51
7.17
6.64
5.86
4.85
3.6
2.08
0.24
-1.89
-4.15
-6.28
-8.04
-9.39
-10.48
-11.63
-13.16
-15.21
-17.59
-19.91
-21.59
-22.13
-21.18
-18.66
-14.75
-9.89
-4.64
0.4
4.8
8.34
11.0
12.87
14.09
14.75
14.93
14.66
14.02
13.08
11.99
10.88
9.95
9.33
9.07
9.12
9.31
9.5
9.57
9.5
9.32
9.02
8.58
7.91
6.95
5.68
4.18
2.55
0.91
-0.68
-2.21
-3.73
-5.28
-6.94
-8.71
-10.58
-12.55
-14.58
-16.61
-18.51
-20.0
-20.71
-20.22
-18.25
-14.82
-10.3
-5.28
-0.41
3.8
7.18
9.81
11.9
13.63
15.04
16.07
16.61
16.64
16.25
15.67
15.17
14.96
15.11
15.56
16.09
16.49
16.58
16.28
15.62
14.65
13.41
11.9
10.12
8.1
5.88
3.61
1.39
-0.63
-2.4
-3.88
-5.08
-6.06
-6.95
-7.92
-9.19
-10.9
-13.1
-15.67
-18.38
-20.82
-22.57
-23.2
-22.45
-20.27
-16.93
-12.85
-8.57
-4.51
-0.92
2.1
4.54
6.33
7.39
7.67
7.22
6.24
5.06
4.03
3.32
2.92
2.66
2.38
1.99
1.53
1.12
0.88
0.86
0.93
0.88
0.5
-0.34
-1.58
-3.07
-4.6
-5.99
-7.21
-8.29
-9.36
-10.47
-11.68
-12.97
-14.37
-15.92
-17.68
-19.63
-21.58
-23.14
-23.84
-23.27
-21.22
-17.85
-13.56
-8.93
-4.49
-0.56
2.73
5.42
7.61
9.3
10.42
10.87
10.67
9.98
9.11
8.4
8.07
8.13
8.48
8.93
9.38
9.79
10.15
10.41
10.48
10.22
9.56
8.53
7.26
5.87
4.42
2.91
1.3
-0.4
-2.14
-3.81
-5.34
-6.76
-8.19
-9.81
-11.76
-14.06
-16.59
-19.07
-21.1
-22.3
-22.29
-20.88
-18.09
-14.2
-9.65
-4.96
-0.6
3.15
6.14
8.4
10.0
11.0
11.48
11.47
11.08
10.44
9.74
9.2
8.96
9.16
9.78
10.69
11.66
12.45
12.86
12.84
12.42
11.74
10.9
9.91
8.74
7.3
5.58
3.62
1.52
-0.61
-2.65
-4.53
-6.22
-7.75
-9.16
-10.56
-12.08
-13.82
-15.77
-17.84
-19.76
-21.17
-21.72
-21.1
-19.17
-15.99
-11.84
-7.17
-2.47
1.84
5.47
8.35
10.53
12.1
13.13
13.63
13.61
13.16
12.38
11.43
10.5
9.71
9.17
8.92
8.94
9.18
9.49
9.67
9.49
8.8
7.55
5.85
3.87
1.81
-0.17
-1.98
-3.57
-4.91
-5.98
-6.77
-7.32
-7.71
-8.03
-8.36
-8.77
-9.31
-10.09
-11.19
-12.64
-14.23
-15.6
-16.21
-15.57
-13.39
-9.73
-4.95
0.39
5.74
10.71
15.13
18.92
22.03
24.39
25.85
26.36
25.98
24.96
23.66
22.46
21.58
21.06
20.74
20.36
19.66
18.48
16.75
14.55
12.01
9.23
6.35
3.46
0.65
-1.98
-4.34
-6.36
-8.03
-9.43
-10.67
-11.85
-13.05
-14.29
-15.59
-17.01
-18.59
-20.25
-21.79
-22.78
-22.77
-21.4
-18.59
-14.56
-9.75
-4.75
-0.05
3.98
7.1
9.23
10.33
10.43
9.63
8.14
6.28
4.44
2.94
1.99
1.55
1.39
1.2
0.64
-0.43
-1.97
-3.75
-5.45
-6.82
-7.74
-8.23
-8.44
-8.44
-8.25
-7.85
-7.19
-6.39
-5.73
-5.67
-6.7
-9.23
-13.5
-19.55
-27.21
-36.1
-45.66
-55.14
-63.68
-70.45
-74.88
-76.8
-76.44
-74.29
-70.94
-66.82
-62.11
-56.83
-50.84
-44.07
-36.56
-28.49
-20.15
-11.84
-3.78
3.86
11.03
17.72
23.86
29.27
33.7
36.9
38.73
39.33
39.08
38.56
38.28
38.59
39.52
40.87
42.34
43.68
44.75
45.47
45.75
45.41
44.21
41.99
38.76
34.71
30.13
25.27
20.27
15.22
10.25
5.69
2.0
-0.38
-1.25
-0.78
0.5
2.0
3.22
4.05
4.66
5.33
6.22
7.22
7.97
8.05
7.21
5.52
3.36
1.27
-0.28
-1.03
-1.04
-0.58
-0.04
0.29
0.22
-0.22
-0.93
-1.73
-2.46
-3.08
-3.64
-4.34
-5.36
-6.86
-8.83
-11.13
-13.56
-15.97
-18.34
-20.74
-23.32
-26.1
-29.02
-31.88
-34.45
-36.46
-37.71
-37.97
-37.04
-34.69
-30.72
-25.04
-17.65
-8.77
1.24
11.91
22.71
33.19
43.02
52.01
60.1
67.26
73.46
78.59
82.56
85.27
86.76
87.13
86.59
85.34
83.58
81.48
79.21
77.03
75.18
73.93
73.42
73.7
74.72
76.5
79.11
82.66
87.2
92.5
98.04
103.06
106.76
108.52
108.12
105.69
101.72
96.85
91.77
87.18
83.56
81.11
79.58
78.32
76.49
73.37
68.6
62.23
54.55
45.86
36.21
25.41
13.2
-0.51
-15.44
-31.06
-46.81
-62.34
-77.66
-93.0
-108.58
-124.35
-139.89
-154.38
-166.76
-176.03
-181.41
-182.51
-179.44
-172.72
-163.33
-152.41
-141.18
-130.63
-121.28
-113.17
-105.95
-99.14
-92.39
-85.64
-79.12
-73.12
-67.85
-63.19
-58.76
-54.07
-48.71
-42.54
-35.68
-28.42
-21.03
-13.72
-6.55
0.42
7.07
13.17
18.4
22.42
25.07
26.38
26.6
26.16
25.44
24.73
24.14
23.61
22.97
22.06
20.86
19.44
17.95
16.55
15.27
14.05
12.76
11.28
9.54
7.59
5.48
3.33
1.22
-0.79
-2.68
-4.47
-6.21
-7.98
-9.85
-11.88
-14.1
-16.52
-19.12
-21.76
-24.2
-26.11
-27.11
-26.9
-25.34
-22.55
-18.84
-14.62
-10.28
-6.13
