-19.83
-13.79
-7.69
-2.07
2.79
6.78
9.96
12.45
14.32
15.55
16.1
15.98
15.32
14.36
13.42
12.8
12.63
12.85
13.28
13.66
13.79
13.59
13.07
12.34
11.46
10.45
9.29
7.93
6.36
4.57
2.65
0.71
-1.08
-2.6
-3.8
-4.77
-5.72
-6.9
-8.53
-10.69
-13.28
-16.06
-18.66
-20.63
-21.55
-21.09
-19.04
-15.49
-10.79
-5.52
-0.29
4.41
8.33
11.45
13.91
15.81
17.13
17.83
17.8
17.11
15.92
14.5
13.09
11.88
10.94
10.27
9.82
9.51
9.27
9.06
8.87
8.64
8.34
7.84
7.03
5.8
4.07
1.92
-0.47
-2.82
-4.9
-6.55
-7.8
-8.82
-9.89
-11.28
-13.18
-15.66
-18.63
-21.83
-24.93
-27.46
-28.96
-29.01
-27.36
-24.04
-19.34
-13.74
-7.78
-1.96
3.35
7.96
11.73
14.65
16.74
18.09
18.86
19.22
19.33
19.23
18.96
18.5
17.87
17.16
16.5
16.05
15.85
15.88
15.96
15.87
15.38
14.32
12.69
10.57
8.2
5.81
3.56
1.52
-0.36
-2.19
-4.08
-6.1
-8.19
-10.23
-12.1
-13.71
-15.08
-16.33
-17.64
-19.21
-21.15
-23.45
-25.93
-28.22
-29.84
-30.23
-29.01
-26.02
-21.46
-15.81
-9.74
-3.88
1.35
5.74
9.28
12.05
14.08
15.41
16.05
16.08
15.66
14.99
14.28
13.7
13.34
13.22
13.34
13.62
13.96
14.22
14.3
14.05
13.47
12.54
11.36
9.99
8.49
6.88
5.18
3.44
1.74
0.14
-1.34
-2.78
-4.29
-6.0
-7.94
-10.01
-12.04
-13.84
-15.28
-16.39
-17.36
-18.43
-19.9
-21.93
-24.52
-27.37
-29.89
-31.34
-31.02
-28.56
-24.03
-17.98
-11.22
-4.55
1.44
6.45
10.45
13.53
15.82
17.38
18.3
18.66
18.58
18.22
17.74
17.21
16.73
16.28
15.86
15.46
15.11
14.85
14.71
14.67
14.65
14.5
14.03
13.12
11.73
9.98
8.05
6.13
4.35
2.71
1.15
-0.43
-2.1
-3.84
-5.54
-7.08
-8.36
-9.42
-10.34
-11.27
-12.39
-13.87
-15.81
-18.23
-20.96
-23.69
-25.93
-27.13
-26.81
-24.74
-20.98
-15.9
-10.08
-4.14
1.37
6.1
9.93
12.89
15.07
16.55
17.34
17.45
16.91
15.88
14.59
13.34
12.38
11.82
11.64
11.71
11.87
12.01
12.12
12.26
12.46
12.66
12.68
12.33
11.41
9.89
7.92
5.77
3.73
2.0
0.62
-0.5
-1.56
-2.74
-4.18
-5.89
-7.74
-9.56
-11.21
-12.62
-13.81
-14.93
-16.13
-17.62
-19.51
-21.87
-24.61
-27.44
-29.88
-31.32
-31.19
-29.1
-25.08
-19.54
-13.15
-6.69
-0.81
4.13
8.01
10.94
13.03
14.42
15.14
15.23
14.78
13.94
12.94
12.01
11.3
10.85
10.63
10.58
10.64
10.83
11.16
11.58
11.96
12.08
11.81
11.03
9.79
8.16
6.28
4.24
2.15
0.1
-1.75
-3.27
-4.41
-5.22
-5.88
-6.62
-7.63
-8.94
-10.46
-12.04
-13.53
-14.87
-16.14
-17.51
-19.19
-21.31
-23.85
-26.6
-29.14
-30.92
-31.38
-30.14
-27.08
-22.44
-16.68
-10.43
-4.27
1.34
6.1
9.9
12.68
14.49
15.4
15.56
15.13
14.3
13.27
12.22
11.3
10.63
10.28
10.27
10.58
11.16
11.88
12.61
13.15
13.29
12.83
11.68
9.88
7.65
5.29
3.11
1.32
-0.07
-1.19
-2.22
-3.34
-4.68
-6.23
-7.91
-9.56
-11.03
-12.21
-13.16
-14.06
-15.22
-16.9
-19.12
-21.58
-23.68
-24.7
-24.08
-21.62
-17.53
-12.3
-6.56
-0.82
4.51
9.21
13.12
16.12
18.14
19.14
19.17
18.43
17.2
15.82
14.6
13.75
13.3
13.17
13.19
13.24
13.24
13.23
13.21
13.15
12.94
12.42
11.47
10.09
8.37
6.46
4.55
2.8
1.25
-0.07
-1.27
-2.49
-3.85
-5.41
-7.18
-9.07
-10.94
-12.68
-14.23
-15.63
-17.0
-18.54
-20.43
-22.8
-25.6
-28.58
-31.23
-32.93
-33.06
-31.2
-27.33
-21.77
-15.19
-8.35
-1.94
3.55
7.99
11.41
14.04
16.04
17.52
18.45
18.74
18.36
17.4
16.07
14.68
13.52
12.78
12.51
12.62
12.95
13.36
13.7
13.84
13.67
13.08
12.01
10.49
8.64
6.66
4.76
3.09
1.66
0.35
-0.98
-2.52
-4.32
-6.33
-8.46
-10.59
-12.71
-14.82
-16.98
-19.2
-21.43
-23.66
-25.92
-28.18
-30.31
-31.93
-32.49
-31.45
-28.49
-23.72
-17.61
-10.89
-4.22
1.9
7.23
11.64
15.09
17.52
18.95
19.5
19.4
18.94
18.37
17.84
17.41
17.11
16.98
17.03
17.25
17.56
17.82
17.88
17.59
16.88
15.72
14.14
12.2
9.96
7.53
5.03
2.58
0.27
-1.85
-3.74
-5.44
-7.0
-8.49
-10.01
-11.58
-13.25
-15.03
-16.96
-19.09
-21.43
-23.94
-26.42
-28.52
-29.78
-29.72
-28.01
-24.53
-19.51
-13.42
-6.91
-0.66
4.79
9.15
12.37
14.64
16.17
17.16
17.67
17.72
17.34
16.65
15.88
15.31
15.14
15.43
16.07
16.94
17.93
19.04
20.26
21.48
22.42
22.73
22.11
20.5
18.16
15.56
13.23
11.51
10.46
9.87
9.39
8.67
7.49
5.79
3.67
1.37
-0.86
-2.83
-4.55
-6.21
-8.14
-10.65
-13.87
-17.61
-21.36
-24.41
-26.04
-25.73
-23.31
-19.07
-13.6
-7.64
-1.89
3.2
7.42
10.81
13.47
15.55
17.14
18.34
19.28
20.18
21.27
22.75
24.72
27.17
30.06
33.37
37.09
41.18
45.53
49.95
54.28
58.39
62.29
66.03
69.61
72.81
75.1
75.76
74.06
69.65
62.65
53.78
44.05
34.54
26.04
18.84
12.76
7.31
1.95
-3.8
-10.2
-17.32
-24.99
-32.76
-39.92
-45.6
-48.9
-49.17
-46.29
-40.76
-33.68
-26.45
-20.46
-16.74
-15.72
-17.31
-20.88
-25.46
-29.84
-32.69
-32.75
-29.03
-21.12
-9.49
4.36
18.07
29.0
34.98
35.07
29.77
20.77
10.15
-0.37
-9.91
-18.29
-25.57
-31.56
-35.77
-37.67
-37.3
-35.55
-34.01
-34.42
-37.93
-44.75
-54.13
-64.91
-76.01
-86.9
-97.55
-108.18
-118.73
-128.62
-136.73
-141.75
-142.65
-139.15
-131.78
-121.72
-110.3
-98.63
-87.33
-76.56
-66.25
-56.34
-46.93
-38.3
-30.73
-24.4
-19.22
-14.95
-11.19
-7.63
-4.1
-0.57
2.89
6.27
9.61
13.01
16.54
20.08
23.36
26.02
27.78
28.53
28.46
27.87
27.1
26.34
25.58
24.66
23.39
21.69
19.6
17.3
14.98
12.76
10.66
8.55
6.25
3.59
0.44
-3.17
-7.02
-10.66
-13.48
-14.86
-14.33
-11.81
-7.64
-2.43
3.07
8.28
12.82
16.62
19.71
22.19
24.13
25.54
26.42
26.81
26.76
26.38
25.81
25.2
24.72
24.53
24.73
25.32
26.22
27.24
28.13
28.68
28.74
28.21
27.11
25.51
23.47
21.13
18.61
16.06
13.68
11.59
9.87
8.48
7.25
5.96
4.36
2.31
-0.24
-3.21
-6.39
-9.41
-11.8
-13.03
-12.64
-10.44
-6.58
-1.53
4.06
9.51
14.37
18.4
21.56
23.92
25.57
26.52
26.84
26.6
25.95
25.07
24.11
23.25
22.57
22.11
21.84
21.65
21.41
21.02
20.43
19.63
18.67
17.56
16.29
14.76
12.92
10.71
8.16
5.41
2.66
0.13
-2.03
-3.78
-5.25
-6.64
-8.19
-10.09
-12.42
-15.15
-18.05
-20.76
-22.72
-23.37
-22.27
-19.24
-14.51
-8.62
-2.26
3.93
9.5
14.23
18.05
20.98
23.04
24.24
24.63
24.31
23.53
22.58
21.77
21.35
21.42
21.92
22.65
23.41
24.05
24.53
24.88
25.1
25.12
24.88
24.26
23.31
22.14
20.93
19.86
19.03
18.47
18.15
18.03
18.06
18.21
18.46
18.77
19.11
19.45
19.79
20.25
21.09
22.76
25.75
30.51
37.16
45.48
54.91
64.7
74.13
82.66
89.86
95.47
99.22
100.92
100.52
98.18
94.25
89.29
83.9
78.63
73.84
69.57
65.63
61.62
57.18
52.01
45.95
38.96
31.05
22.28
12.79
2.83
-7.23
-16.89
-25.62
-32.95
-38.66
-42.84
-45.91
-48.5
-51.25
-54.61
-58.78
-63.64
-68.97
-74.6
-80.48
-86.65
-92.99
-99.11
-104.33
-107.88
-109.18
-107.96
-104.35
-98.65
-91.27
-82.56
-72.85
-62.59
-52.29
-42.65
-34.3
-27.71
-23.0
-19.94
-18.0
-16.58
-15.21
-13.65
-11.91
-10.14
-8.48
-6.93
-5.38
-3.69
-1.83
0.04
1.58
2.44
2.42
1.5
-0.13
-2.25
-4.73
-7.48
-10.48
-13.65
-16.84
-19.88
-22.74
-25.57
-28.65
-32.27
-36.46
-40.83
-44.65
-47.01
-47.19
-44.9
-40.36
-34.25
-27.42
-20.62
-14.32
-8.77
-4.02
-0.12
2.88
4.97
6.2
6.79
7.03
7.23
7.64
8.33
9.29
10.39
11.53
12.59
13.54
14.33
14.95
15.34
15.38
14.94
13.87
12.1
9.73
6.95
4.08
1.36
-1.05
-3.2
-5.28
-7.6
-10.37
-13.68
-17.34
-20.93
-23.87
-25.56
-25.58
-23.78
-20.31
-15.57
-10.12
-4.5
0.78
5.34
8.96
11.62
13.43
14.55
15.17
15.36
15.15
14.58
13.81
13.07
12.62
12.63
13.06
13.71
14.33
14.74
14.92
14.89
14.71
14.28
13.46
12.07
10.09
7.64
5.0
2.52
0.46
-1.12
-2.37
-3.58
-5.09
-7.17
-9.89
-13.15
-16.58
-19.76
-22.19
-23.45
-23.2
-21.31
-17.83
-13.04
-7.43
-1.61
3.84
8.52
12.28
15.16
17.29
18.78
19.61
19.67
18.87
17.28
15.15
12.9
10.95
9.62
9.01
9.0
9.36
9.82
10.16
10.26
10.02
9.37
8.29
6.77
4.87
2.71
0.45
-1.81
-3.98
-6.08
-8.14
-10.24
-12.39
-14.58
-16.84
-19.19
-21.75
-24.55
-27.5
-30.27
-32.32
-33.03
-31.88
-28.69
-23.69
-17.46
-10.79
-4.45
1.01
5.35
8.56
10.8
12.23
12.96
13.06
12.62
11.75
10.69
9.74
9.22
9.3
9.92
10.85
11.74
12.31
12.47
12.31
12.05
11.83
11.63
11.27
10.47
9.06
7.03
4.58
2.0
-0.41
-2.5
-4.27
-5.86
-7.45
-9.24
-11.35
-13.78
-16.4
-18.95
-21.02
-22.15
-21.92
-20.02
-16.43
-11.44
-5.58
0.45
6.0
10.59
14.05
16.4
17.83
18.52
18.59
18.1
17.16
15.92
14.65
13.64
13.11
13.12
13.55
14.13
14.6
14.76
14.51
13.91
13.06
12.03
10.84
9.44
7.7
5.51
2.83
-0.22
-3.34
-6.14
-8.3
-9.74
-10.63
-11.44
-12.63
-14.53
-17.17
-20.32
-23.52
-26.3
-28.16
-28.68
-27.52
-24.54
-19.87
-13.99
-7.66
-1.61
3.58
7.74
10.94
13.42
15.33
16.64
17.25
17.12
16.39
15.37
14.42
13.81
13.59
13.66
13.85
14.05
14.2
14.34
14.4
14.27
13.79
12.82
11.34
9.45
7.33
5.16
3.06
1.01
-1.01
-3.07
-5.2
-7.35
-9.52
-11.65
-13.69
-15.62
-17.47
-19.3
-21.19
-23.16
-25.12
-26.86
-27.94
-27.9
-26.32
-23.01
-18.12
-12.11
-5.65
0.53
5.91
10.26
13.58
16.01
17.7
18.73
19.14
18.97
18.38
17.58
16.78
16.13
15.63
15.23
14.84
14.44
14.06
13.72
13.34
12.76
11.8
10.34
8.46
6.35
4.29
2.49
0.99
-0.37
-1.8
-3.47
-5.41
-7.46
-9.39
-10.99
-12.17
-13.06
-13.87
-14.93
-16.46
-18.52
-21.01
-23.56
-25.68
-26.83
-26.52
-24.45
-20.63
-15.37
-9.25
-2.94
2.96
8.06
12.18
15.32
17.54
18.83
19.19
18.7
17.6
16.23
15.04
14.34
14.29
14.82
15.69
16.58
17.2
17.34
16.92
15.99
14.65
13.04
11.27
9.41
7.45
5.37
3.16
0.84
-1.48
-3.69
-5.68
-7.41
-8.94
-10.38
-11.91
-13.71
-15.93
-18.66
-21.85
-25.29
-28.56
-31.03
-32.02
-31.01
-27.81
-22.7
-16.35
-9.61
-3.24
2.25
6.64
9.97
12.38
13.98
14.86
15.09
14.8
14.16
13.38
12.63
12.01
11.54
11.22
11.07
11.11
11.29
11.52
11.6
11.34
10.59
9.28
7.47
5.25
2.72
-0.01
-2.85
-5.67
-8.34
-10.82
-13.07
-15.14
-17.05
-18.84
-20.53
-22.19
-23.93
-25.91
-28.28
-31.12
-34.34
-37.67
-40.66
-42.78
-43.44
-42.2
-38.88
-33.68
-27.16
-20.06
-13.12
-6.81
-1.31
3.43
7.49
10.87
13.47
15.14
15.86
15.77
15.16
14.38
13.73
13.36
13.31
13.52
13.83
14.11
14.17
13.95
13.44
12.65
11.63
10.4
8.93
7.24
5.39
3.53
1.8
0.22
-1.31
-2.99
-4.94
-7.15
-9.41
-11.42
-12.97
-14.03
-14.75
-15.45
-16.48
-18.07
-20.26
-22.8
-25.12
-26.49
-26.17
-23.67
-18.93
-12.41
-4.91
2.64
9.48
15.12
19.42
22.45
24.4
25.43
25.68
25.22
24.23
22.93
21.61
20.57
20.01
19.94
20.26
20.7
21.0
20.97
20.55
19.78
18.72
17.44
15.97
14.29
12.39
10.29
8.09
5.87
3.78
1.92
0.31
-1.09
-2.42
-3.86
-5.56
-7.62
-10.04
-12.78
-15.79
-18.95
-22.07
-24.75
-26.44
-26.51
-24.51
-20.38
-14.54
-7.78
-1.01
5.03
9.98
13.77
16.53
18.43
19.53
19.85
19.45
18.5
17.25
15.97
14.9
14.17
13.81
13.79
14.08
14.55
15.01
15.21
14.9
13.95
12.38
10.38
8.2
6.07
4.06
2.1
0.04
-2.26
-4.83
-7.61
-10.4
-12.98
-15.19
-16.99
-18.51
-19.96
-21.59
-23.64
-26.16
-28.99
-31.77
-33.92
-34.81
-33.9
-30.94
-26.04
-19.7
-12.67
-5.75
0.43
5.51
9.45
12.35
14.41
15.76
16.42
16.38
15.72
14.64
13.41
12.33
11.59
11.18
10.97
10.73
10.31
9.69
8.93
8.14
7.39
6.72
6.12
5.58
5.06
4.49
3.81
3.05
2.29
1.71
1.47
1.6
1.95
2.2
1.91
0.73
-1.51
-4.73
-8.66
-12.92
-17.1
-20.7
-23.23
-24.24
-23.45
-20.87
-16.84
-12.0
-7.1
-2.86
0.24
1.97
2.34
1.57
0.1
-1.56
-2.82
-3.25
-2.68
-1.31
0.32
1.42
1.14
-1.27
-6.28
-13.95
-23.79
-34.75
-45.32
-53.91
-59.34
-61.31
-60.55
-58.57
-57.03
-57.02
-58.64
-60.98
-62.68
-62.53
-59.99
-55.24
-48.92
-41.75
-34.24
-26.77
-19.66
-13.33
-8.2
-4.46
-1.9
0.15
2.63
6.34
11.66
18.34
25.65
32.63
38.43
42.57
45.05
46.2
46.51
46.4
46.11
45.66
44.99
44.07
43.02
42.1
41.58
41.61
42.1
42.76
43.22
43.16
42.53
41.45
40.17
38.85
37.48
35.86
33.79
31.19
28.17
25.03
22.08
19.51
17.34
15.41
13.47
11.28
8.7
5.73
2.5
-0.69
-3.47
-5.46
-6.32
-5.91
-4.39
-2.2
-0.06
1.25
1.13
-0.71
-4.09
-8.48
-13.27
-18.0
-22.5
-26.9
-31.35
-35.83
-40.02
-43.35
-45.23
-45.28
-43.38
-39.7
-34.52
-28.21
-21.13
-13.76
-6.59
-0.13
5.26
9.46
12.65
15.19
17.55
20.02
22.7
25.43
27.83
29.44
29.78
28.58
25.78
21.65
16.71
11.66
7.16
3.71
1.54
0.6
0.67
1.4
2.48
3.64
4.74
5.69
6.48
7.02
7.13
6.51
4.85
1.93
-2.2
-7.19
-12.45
-17.26
-20.97
-23.17
-23.78
-23.08
-21.53
-19.64
-17.74
-15.9
-13.91
-11.53
-8.6
-5.15
-1.36
2.58
6.61
10.78
15.02
19.08
22.44
24.53
24.93
23.61
20.93
17.49
13.88
10.56
7.75
5.51
3.85
2.75
2.21
2.21
2.69
3.53
4.59
5.75
7.01
8.41
10.1
12.21
14.81
17.85
21.15
24.44
27.45
29.9
31.62
32.56
32.76
32.39
31.68
30.82
29.92
28.99
27.91
26.49
24.59
22.15
19.29
16.23
13.19
10.3
7.49
4.48
0.93
-3.46
-8.74
-14.68
-20.81
-26.53
-31.19
-34.19
-35.11
-33.78
-30.42
-25.63
-20.22
-14.96
-10.28
-6.17
-2.33
1.58
5.64
9.51
12.63
14.5
14.9
13.95
11.94
9.05
5.22
0.16
-6.32
-14.09
-22.59
-30.98
-38.46
-44.61
-49.41
-53.11
-55.97
-57.98
-58.8
-57.98
-55.16
-50.33
-43.87
-36.43
-28.74
-21.45
-15.02
-9.74
-5.77
-3.07
-1.45
-0.54
0.17
1.22
3.04
5.84
9.56
13.89
18.4
22.64
26.34
29.45
32.05
34.27
36.18
37.73
38.73
39.0
38.47
37.2
35.44
33.46
31.53
29.82
28.37
27.17
26.13
25.15
24.12
22.97
21.63
20.1
18.39
16.57
14.64
12.62
10.47
8.18
5.82
3.5
1.39
-0.39
-1.84
-3.09
-4.38
-5.99
-8.09
-10.64
-13.41
-15.97
-17.87
-18.68
-18.15
-16.28
-13.31
-9.65
-5.8
-2.19
0.89
3.28
5.0
6.12
6.68
6.76
6.39
5.64
4.59
3.34
2.02
0.75
-0.39
-1.31
-1.97
-2.41
-2.68
-2.78
-2.72
-2.43
-1.85
-0.94
0.3
1.82
3.57
5.52
7.66
9.98
12.47
15.04
17.61
20.1
22.44
24.64
26.75
28.87
31.13
33.55
36.02
38.27
39.85
40.33
39.43
37.21
34.1
30.86
28.3
27.02
27.16
28.48
30.35
32.17
33.46
33.99
33.75
32.85
31.35
29.28
26.66
23.53
20.08
16.67
13.77
