-1.71
-1.65
-1.17
-0.34
0.68
1.76
2.75
3.58
4.19
4.58
4.72
4.63
4.37
4.09
3.94
4.02
4.23
4.27
3.73
2.23
-0.45
-4.31
-9.13
-14.57
-20.16
-25.37
-29.62
-32.36
-33.19
-31.95
-28.83
-24.22
-18.67
-12.72
-6.85
-1.4
3.39
7.32
10.24
12.04
12.73
12.38
11.2
9.48
7.56
5.76
4.36
3.52
3.26
3.48
4.02
4.71
5.4
5.99
6.39
6.54
6.35
5.71
4.55
2.89
0.8
-1.56
-4.05
-6.54
-9.0
-11.4
-13.79
-16.21
-18.75
-21.47
-24.44
-27.57
-30.61
-33.1
-34.46
-34.15
-31.84
-27.55
-21.67
-14.86
-7.83
-1.28
4.32
8.74
11.97
14.19
15.63
16.48
16.88
16.89
16.55
15.94
15.21
14.54
14.1
13.97
14.09
14.33
14.51
14.44
14.02
13.23
12.12
10.79
9.31
7.74
6.08
4.3
2.36
0.23
-2.04
-4.37
-6.7
-9.0
-11.32
-13.82
-16.63
-19.89
-23.56
-27.42
-31.06
-33.97
-35.62
-35.59
-33.68
-29.98
-24.82
-18.74
-12.36
-6.22
-0.7
4.05
8.0
11.18
13.57
15.09
15.65
15.25
14.04
12.36
10.66
9.36
8.72
8.79
9.39
10.23
11.07
11.76
12.25
12.56
12.65
12.41
11.7
10.43
8.65
6.49
4.17
1.89
-0.26
-2.26
-4.19
-6.15
-8.23
-10.57
-13.29
-16.45
-20.04
-23.83
-27.38
-30.13
-31.49
-31.04
-28.62
-24.45
-19.01
-12.91
-6.75
-1.0
4.09
8.42
12.01
14.87
16.98
18.25
18.67
18.32
17.47
16.49
15.74
15.4
15.49
15.86
16.35
16.8
17.15
17.34
17.28
16.87
15.99
14.65
12.94
11.0
8.94
6.81
4.61
2.27
-0.23
-2.85
-5.52
-8.16
-10.72
-13.17
-15.55
-17.94
-20.44
-23.14
-25.99
-28.82
-31.28
-32.93
-33.37
-32.31
-29.62
-25.36
-19.81
-13.42
-6.77
-0.42
5.15
9.66
13.04
15.38
16.81
17.48
17.51
17.04
16.28
15.48
14.89
14.65
14.73
15.03
15.42
15.82
16.22
16.64
17.05
17.34
17.34
16.86
15.76
14.02
11.74
9.05
6.14
3.12
0.09
-2.9
-5.81
-8.56
-11.1
-13.43
-15.64
-17.9
-20.41
-23.35
-26.71
-30.32
-33.76
-36.43
-37.72
-37.14
-34.5
-29.97
-24.08
-17.5
-10.91
-4.8
0.57
5.16
8.96
11.96
14.08
15.23
15.42
14.86
13.89
12.88
12.12
11.69
11.48
11.32
11.07
10.69
10.3
9.98
9.77
9.63
9.45
9.15
8.67
8.05
7.33
6.57
5.8
5.03
4.2
3.23
2.04
0.57
-1.22
-3.34
-5.8
-8.65
-11.93
-15.61
-19.47
-23.06
-25.74
-26.9
-26.16
-23.44
-19.05
-13.51
-7.45
-1.45
4.05
8.77
12.56
15.4
17.37
18.56
19.06
18.91
18.14
16.83
15.21
13.58
12.26
11.46
11.22
11.42
11.83
12.23
12.46
12.42
12.07
11.35
10.24
8.72
6.87
4.79
2.61
0.46
-1.63
-3.66
-5.69
-7.78
-9.98
-12.37
-15.04
-18.08
-21.55
-25.35
-29.18
-32.54
-34.86
-35.67
-34.68
-31.89
-27.55
-22.05
-15.85
-9.4
-3.13
2.57
7.4
11.17
13.81
15.36
15.97
15.8
15.06
14.01
12.86
11.86
11.19
10.93
11.05
11.43
11.86
12.16
12.19
11.92
11.38
10.66
9.81
8.81
7.61
6.14
4.37
2.35
0.19
-2.03
-4.2
-6.25
-8.17
-9.95
-11.65
-13.36
-15.24
-17.48
-20.22
-23.49
-27.07
-30.51
-33.19
-34.44
-33.76
-30.96
-26.31
-20.37
-13.91
-7.61
-1.93
2.94
6.96
10.21
12.7
14.42
15.35
15.52
15.06
14.19
13.17
12.29
11.76
11.7
12.14
13.0
14.17
15.49
16.74
17.7
18.17
17.98
17.11
15.7
13.99
12.22
10.54
8.94
7.29
5.41
3.22
0.76
-1.77
-4.17
-6.29
-8.18
-10.05
-12.18
-14.84
-18.07
-21.72
-25.39
-28.59
-30.82
-31.62
-30.71
-27.97
-23.54
-17.81
-11.4
-5.02
0.72
5.45
9.07
11.67
13.37
14.24
14.33
13.71
12.62
11.44
10.56
10.29
10.71
11.68
12.92
14.18
15.25
16.09
16.65
16.95
16.93
16.54
15.71
14.39
12.59
10.36
7.84
5.2
2.67
0.37
-1.62
-3.42
-5.24
-7.34
-9.95
-13.08
-16.59
-20.09
-23.15
-25.32
-26.23
-25.67
-23.56
-19.98
-15.19
-9.56
-3.56
2.33
7.68
12.24
15.86
18.52
20.27
21.19
21.38
20.98
20.21
19.28
18.43
17.85
17.61
17.7
18.0
18.34
18.59
18.63
18.45
18.04
17.44
16.59
15.46
13.92
11.91
9.42
6.48
3.22
-0.18
-3.49
-6.54
-9.23
-11.63
-13.89
-16.27
-18.98
-22.12
-25.6
-29.18
-32.45
-34.9
-36.0
-35.3
-32.58
-27.96
-21.9
-15.02
-8.03
-1.48
4.26
8.98
12.64
15.2
16.7
17.31
17.23
16.76
16.19
15.74
15.55
15.68
16.1
16.74
17.52
18.31
19.0
19.47
19.59
19.28
18.47
17.15
15.36
13.22
10.88
8.47
6.01
3.44
0.67
-2.35
-5.55
-8.78
-11.85
-14.67
-17.29
-19.82
-22.47
-25.36
-28.6
-32.12
-35.74
-39.11
-41.7
-42.96
-42.42
-39.9
-35.53
-29.79
-23.26
-16.53
-10.1
-4.27
0.77
4.92
8.14
10.43
11.87
12.57
12.68
12.38
11.89
11.44
11.23
11.41
12.03
13.05
14.36
15.78
17.09
18.1
18.63
18.6
18.03
17.05
15.84
14.56
13.28
11.96
10.46
8.63
6.42
3.87
1.17
-1.5
-3.98
-6.27
-8.5
-10.91
-13.72
-16.96
-20.49
-23.87
-26.52
-27.84
-27.38
-24.97
-20.79
-15.32
-9.17
-2.97
2.82
7.97
12.38
16.0
18.75
20.53
21.25
20.93
19.79
18.15
16.41
14.89
13.8
13.22
13.1
13.33
13.79
14.28
14.58
14.5
13.92
12.86
11.38
9.59
7.53
5.16
2.47
-0.56
-3.84
-7.23
-10.63
-14.0
-17.42
-20.97
-24.68
-28.55
-32.51
-36.62
-40.96
-45.65
-50.7
-55.89
-60.77
-64.7
-67.04
-67.38
-65.64
-62.12
-57.45
-52.34
-47.37
-42.87
-38.89
-35.3
-31.93
-28.6
-24.84
-19.79
-12.13
-0.46
15.93
36.54
59.47
82.04
101.63
116.58
126.56
132.43
135.51
136.88
136.94
135.49
132.07
126.47
118.94
110.11
100.78
91.65
83.23
75.86
69.71
64.69
60.32
55.59
48.91
38.76
24.34
6.36
-12.71
-29.31
-40.04
-42.94
-38.44
-29.35
-20.0
-14.95
-17.5
-28.77
-47.47
-70.49
-93.9
-114.12
-128.79
-137.02
-139.12
-135.9
-128.23
-116.91
-103.03
-88.24
-74.69
-64.37
-58.15
-55.32
-53.77
-51.06
-45.67
-37.74
-28.9
-21.27
-16.39
-14.56
-14.94
-16.25
-17.52
-18.41
-19.19
-20.37
-22.4
-25.48
-29.47
-33.9
-38.07
-41.28
-43.11
-43.63
-43.33
-42.8
-42.31
-41.59
-39.97
-36.72
-31.47
-24.39
-16.04
-7.14
1.74
10.21
17.93
24.47
29.32
32.17
33.05
32.46
31.15
29.77
28.63
27.52
26.0
23.69
20.54
16.92
13.48
10.95
9.8
10.12
11.59
13.59
15.35
16.17
15.6
13.63
10.64
7.26
4.12
1.55
-0.51
-2.47
-4.83
-7.97
-11.9
-16.26
-20.46
-23.8
-25.75
-26.0
-24.52
-21.51
-17.26
-12.11
-6.46
-0.79
4.33
8.38
10.97
12.02
11.78
10.8
9.76
9.24
9.6
10.89
12.9
15.3
17.81
20.28
22.68
25.07
27.45
29.69
31.5
32.55
32.61
31.64
29.79
27.37
24.67
21.91
19.22
16.56
13.82
10.82
7.33
3.18
-1.71
-7.22
-13.04
-18.67
-23.5
-26.96
-28.68
-28.54
-26.71
-23.49
-19.25
-14.29
-8.81
-3.04
2.68
7.84
11.91
14.53
15.65
15.66
15.24
15.17
15.99
17.81
20.35
23.02
25.22
26.54
26.97
26.83
26.7
27.17
28.66
31.2
34.49
37.86
40.49
41.54
40.35
36.63
30.56
22.74
14.03
5.28
-2.92
-10.41
-17.3
-23.87
-30.22
-36.12
-41.02
-44.19
-45.03
-43.24
-39.0
-32.85
-25.51
-17.69
-9.91
-2.5
4.37
10.55
15.81
19.93
22.73
24.26
24.82
24.93
25.08
25.62
26.56
27.68
28.68
29.33
29.61
29.69
29.74
29.8
29.66
28.9
27.09
24.01
19.8
14.97
10.19
6.12
3.09
1.07
-0.27
-1.42
-2.83
-4.8
-7.38
-10.43
-13.63
-16.52
-18.61
-19.44
-18.71
-16.4
-12.73
-8.17
-3.25
1.55
5.91
9.68
12.87
15.55
17.76
19.47
20.62
21.12
20.97
20.31
19.4
18.61
18.31
18.72
19.79
21.17
22.35
22.78
22.24
20.87
19.09
17.41
16.18
15.41
14.86
14.25
13.37
12.04
9.9
6.38
0.89
-6.58
-15.19
-23.32
-29.27
-32.14
-32.39
-31.5
-31.02
-31.65
-32.7
-32.68
-30.21
-24.98
-17.82
-10.01
-2.28
5.66
14.97
26.75
41.16
57.01
72.18
84.3
91.76
94.2
92.46
88.1
82.78
77.76
73.65
70.59
68.5
67.24
66.61
66.25
65.48
63.27
58.48
50.12
37.82
22.06
4.12
-14.21
-31.07
-44.9
-54.79
-60.42
-62.07
-60.43
-56.58
-51.86
-47.63
-44.9
-44.01
-44.56
-45.58
-46.05
-45.36
-43.5
-40.88
-37.99
-35.12
-32.23
-29.06
-25.32
-20.8
-15.46
-9.57
-3.61
1.72
5.68
7.73
7.69
5.82
2.64
-1.24
-5.2
-8.67
-11.11
-12.16
-11.74
-10.2
-8.19
-6.44
-5.53
-5.69
-6.88
-8.79
-11.07
-13.29
-15.08
-16.14
-16.35
-15.86
-15.03
-14.32
-14.07
-14.35
-14.99
-15.73
-16.42
-17.04
-17.76
-18.74
-20.02
-21.33
-22.16
-21.89
-19.96
-16.08
-10.39
-3.43
4.0
11.02
16.89
21.16
23.73
24.76
24.59
23.59
22.1
20.42
18.76
17.3
16.14
15.2
14.29
13.17
11.7
9.93
8.12
6.59
5.53
4.94
4.51
3.89
2.79
1.17
-0.79
-2.7
-4.22
-5.12
-5.41
-5.35
-5.25
-5.43
-6.07
-7.16
-8.55
-10.06
-11.51
-12.79
-13.78
-14.31
-14.15
-13.08
-11.02
-8.11
-4.67
-1.18
1.97
4.51
6.41
7.78
8.74
9.34
9.52
9.18
8.31
7.06
5.7
4.6
3.94
3.75
3.86
3.97
3.88
3.55
3.1
2.73
2.58
2.65
2.79
2.8
2.5
1.81
0.71
-0.71
-2.37
-4.15
-5.97
-7.72
-9.39
-11.0
-12.62
-14.3
-16.0
-17.55
-18.67
-19.02
-18.37
-16.6
-13.85
-10.4
-6.64
-2.95
0.39
3.22
5.52
7.32
8.65
9.49
9.8
9.57
8.85
7.85
6.85
6.12
5.78
5.82
6.01
6.14
6.06
5.78
5.38
4.95
4.5
3.88
2.94
1.59
-0.09
-1.9
-3.57
-4.94
-5.98
-6.82
-7.65
-8.63
-9.83
-11.23
-12.8
-14.45
-16.12
-17.65
-18.77
-19.17
-18.49
-16.6
-13.55
-9.67
-5.41
-1.24
2.46
5.46
7.68
9.13
9.85
9.95
9.53
8.7
7.62
6.43
5.32
4.45
3.95
3.85
4.07
4.39
4.62
4.66
4.53
4.37
4.33
4.46
4.64
4.67
4.34
3.58
2.48
1.24
0.03
-1.09
-2.19
-3.42
-4.92
-6.73
-8.84
-11.14
-13.51
-15.75
-17.64
-18.82
-18.96
-17.84
-15.45
-12.06
-8.13
-4.2
-0.71
2.05
4.02
5.23
5.81
5.86
5.54
5.01
4.41
3.85
3.37
2.95
2.53
2.12
1.78
1.56
1.51
1.61
1.78
1.93
1.94
1.73
1.25
0.5
-0.46
-1.49
-2.42
-3.1
-3.48
-3.65
-3.81
-4.16
-4.86
-5.98
-7.48
-9.27
-11.18
-13.04
-14.55
-15.39
-15.25
-13.93
-11.47
-8.15
-4.34
-0.47
3.12
6.22
8.67
10.37
11.28
11.39
10.8
9.68
8.33
7.0
5.96
5.35
5.17
5.32
5.62
5.84
5.8
5.44
4.8
4.03
3.31
2.73
2.34
2.05
1.74
1.31
0.68
-0.19
-1.28
-2.54
-3.93
-5.38
-6.8
-8.12
-9.33
-10.43
-11.47
-12.43
-13.13
-13.21
-12.22
-9.78
-5.74
-0.33
5.91
12.32
18.34
23.73
28.56
33.05
37.43
41.71
45.77
49.43
52.63
55.47
58.2
61.09
64.39
68.33
73.27
79.69
88.12
98.67
110.74
122.76
132.48
137.65
136.83
129.98
118.53
104.91
91.76
81.08
73.74
69.45
67.1
65.3
62.85
58.93
53.14
45.4
35.86
25.03
13.91
3.96
-3.33
-7.16
-8.01
-7.51
-7.71
-9.82
-13.49
-16.98
-18.36
-16.97
-14.29
-13.35
-17.4
-28.02
-44.32
-63.15
-80.48
-92.98
-98.94
-98.41
-92.55
-82.96
-71.22
-58.7
-46.71
-36.53
-29.32
-25.89
-26.44
-30.44
-36.77
-43.99
-50.72
-55.89
-58.97
-59.94
-59.15
-57.26
-55.09
-53.53
-53.47
-55.6
-60.24
-67.06
-74.94
-82.0
-85.98
-84.9
-77.88
-65.63
-50.4
-35.39
-23.69
-17.52
-17.71
-23.78
-34.27
-47.19
-60.35
-71.62
-79.21
-81.97
-79.72
-73.32
-64.45
-55.11
-47.04
-41.31
-38.22
-37.45
-38.23
-39.58
-40.63
-40.78
-40.01
-38.8
-38.0
-38.45
-40.51
-43.88
-47.75
-51.02
-52.81
-52.71
-50.84
-47.61
-43.47
-38.72
-33.37
-27.3
-20.42
-12.91
-5.23
1.93
7.9
12.33
15.37
17.53
19.45
21.53
23.78
25.9
27.51
28.27
27.95
26.38
23.61
20.24
17.67
17.98
23.18
34.1
49.79
67.53
84.01
96.66
104.48
107.92
108.04
105.62
101.01
94.45
86.65
78.83
72.2
67.33
63.84
60.71
56.74
51.16
43.78
34.94
25.46
16.57
9.8
6.5
7.11
10.67
14.86
16.85
14.53
7.31
-3.74
-16.54
-29.02
-39.66
-47.77
-53.09
-55.62
-55.45
-52.88
-48.51
-43.15
-37.71
-32.79
-28.62
-25.08
-21.84
-18.65
-15.47
-12.56
-10.4
-9.61
-10.67
-13.81
-18.72
-24.55
-30.11
-34.11
-35.69
-34.59
-31.24
-26.51
-21.32
-16.37
-11.96
-8.12
-4.69
-1.53
1.38
3.94
6.0
7.35
7.85
7.58
6.73
5.78
5.23
5.53
6.86
9.07
11.63
13.79
14.84
14.33
12.23
8.98
5.34
2.12
-0.05
-0.87
-0.49
0.66
1.96
2.8
2.75
1.56
-0.75
-3.9
-7.38
-10.51
-12.49
-12.61
-10.33
-5.64
0.98
8.57
15.93
22.05
26.34
28.72
29.53
29.25
28.29
26.89
25.2
23.36
21.62
20.23
19.35
18.98
19.0
19.24
19.53
19.8
19.95
19.85
19.27
17.96
15.8
12.84
9.37
5.8
2.51
-0.3
-2.7
-5.03
-7.81
-11.46
-16.1
-21.4
-26.61
-30.76
-32.94
-32.65
-29.84
-24.92
-18.6
-11.64
-4.8
1.31
6.25
9.73
11.67
12.17
11.5
10.0
8.02
5.86
3.8
2.05
0.72
-0.12
-0.53
-0.64
-0.61
-0.6
-0.72
-1.04
-1.58
-2.33
-3.24
-4.22
-5.22
-6.24
-7.35
-8.72
-10.56
-12.99
-15.96
-19.15
-22.03
-23.98
-24.44
-23.12
-20.09
-15.67
-10.36
-4.64
1.11
6.64
11.75
16.2
19.71
22.03
23.03
22.78
21.54
19.7
17.68
15.85
14.47
13.65
13.33
13.31
13.28
12.89
11.88
10.17
7.78
4.88
1.6
-1.99
-5.83
-9.92
-14.22
-18.65
-23.17
-27.73
-32.26
-36.6
-40.35
-42.96
-43.87
-42.72
-39.5
-34.62
-28.78
-22.69
-16.92
-11.74
-7.22
-3.41
-0.41
1.6
2.46
2.27
1.45
0.65
0.55
1.51
3.44
5.74
7.67
8.55
8.11
6.54
4.3
1.85
-0.54
-2.85
-5.2
-7.63
-10.04
-12.25
-14.08
-15.53
-16.81
-18.17
-19.83
-21.71
-23.43
-24.36
-23.84
-21.37
-16.82
-10.42
-2.71
5.65
14.03
21.92
28.97
34.95
39.66
42.96
44.79
45.24
44.57
43.12
41.27
39.3
37.4
35.7
34.29
33.27
32.68
32.51
32.62
32.85
32.99
32.91
32.55
31.93
31.12
30.24
29.36
28.56
27.75
26.77
25.37
23.32
20.51
17.0
13.04
9.03
5.43
2.69
1.18
1.15
2.69
5.66
9.73
14.47
19.37
23.97
27.85
30.63
32.03
31.9
30.29
27.53
24.09
20.6
17.61
15.52
14.49
14.47
15.18
16.29
17.49
18.56
19.49
20.37
21.29
22.24
23.05
23.4
22.99
21.71
19.68
17.25
14.88
12.89
11.34
10.04
8.64
6.81
4.36
1.34
-2.01
-5.25
-7.92
-9.57
-9.89
-8.83
-6.64
-3.79
-0.91
1.44
2.93
3.57
3.61
3.39
3.26
3.42
3.97
4.92
6.16
7.53
8.77
9.66
10.02
9.9
9.5
9.2
9.38
10.22
11.67
13.38
14.8
15.38
14.7
12.63
9.33
5.22
0.86
-3.22
-6.71
-9.52
-11.76
-13.68
-15.44
-17.12
-18.67
-20.02
-21.16
-22.12
-22.9
-23.32
-23.02
-21.53
-18.48
-13.83
-7.96
-1.57
4.52
9.69
13.74
16.82
19.28
21.53
23.75
25.99
28.09
29.88
31.17
31.91
32.1
31.77
30.95
29.51
27.22
23.85
19.35
13.87
7.78
1.4
-5.06
-11.43
-17.31
-21.99
-24.46
-23.89
-20.15
-14.06
-7.22
-1.35
2.32
3.42
2.27
-0.72
-5.43
-12.16
-21.2
-32.3
-44.31
-55.42
-63.69
-67.67
-66.93
-62.07
-54.56
-46.17
-38.45
-32.26
-27.5
-23.33
-18.59
-12.43
-4.82
3.44
10.97
16.43
19.01
18.66
15.95
11.82
7.32
3.48
1.18
1.04
3.17
7.0
11.4
15.16
17.47
18.26
18.2
18.28
19.23
21.15
23.39
24.96
25.02
23.46
21.03
19.14
19.38
22.86
29.81
39.5
50.37
60.56
68.39
72.92
74.23
73.31
71.63
70.54
70.68
71.8
72.9
72.86
70.93
67.17
62.23
57.09
52.63
49.37
47.39
46.43
45.99
45.33
43.63
40.12
34.29
26.0
15.46
3.06
-10.68
-25.21
-39.88
-53.94
-66.72
-77.83
-87.42
-96.21
-105.1
-114.76
-125.21
-135.86
-145.85
-154.8
-163.18
-172.27
-183.61
-198.18
-215.8
-234.9
-252.76
-266.03
-271.41
-266.18
-248.83
-219.47
-180.14
-134.65
-87.88
-44.67
-8.56
18.91
38.29
51.4
60.27
66.35
70.15
71.65
70.83
68.1
64.25
60.1
56.07
52.01
47.47
42.16
36.28
30.56
25.93
23.03
21.84
21.74
21.8
21.25
19.86
17.91
15.94
14.31
12.95
11.36
8.83
4.85
-0.56
-6.91
-13.36
-19.14
-23.72
-27.0
-29.14
-30.41
-31.03
-31.03
-30.3
-28.64
-25.86
-21.9
-16.84
-10.93
-4.6
1.66
7.34
12.06
15.57
17.81
18.85
18.85
18.0
16.54
14.7
12.78
11.05
9.71
8.92
8.62
8.64
8.66
8.39
7.61
6.32
4.65
2.79
0.89
-1.02
-3.1
-5.53
-8.48
-11.93
-15.67
-19.44
-22.97
-26.17
-29.12
-32.04
-35.16
-38.68
-42.62
-46.88
-51.26
-55.47
-59.16
-61.86
-63.13
-62.59
-60.14
-56.07
-51.02
-45.8
-41.2
-37.68
-35.38
-34.09
-33.48
-33.2
-33.02
-32.76
-32.32
-31.53
-30.25
-28.34
-25.67
-22.22
-18.04
-13.36
-8.56
-3.96
0.25
4.15
7.95
11.78
15.48
18.59
20.5
20.96
20.38
19.89
21.04
25.04
32.12
41.3
50.54
57.44
60.15
57.83
50.92
40.82
29.38
18.39
9.15
2.38
-1.69
-3.15
-2.22
0.77
5.45
11.3
17.63
23.69
28.77
32.49
34.89
36.37
37.46
38.56
39.75
40.84
41.51
41.58
41.12
40.39
39.71
39.34
39.37
39.75
40.27
40.65
40.48
39.34
36.89
33.04
27.92
21.91
15.45
8.89
2.49
-3.63
-9.43
-14.96
-20.38
-25.87
-31.55
-37.3
-42.72
-47.24
-50.36
-51.82
-51.73
-50.46
-48.49
-46.14
-43.66
-41.21
-38.91
-36.89
-35.18
-33.66
-32.16
-30.5
-28.54
-26.24
-23.5
-20.17
-16.06
-11.02
-5.13
1.36
8.02
14.62
21.09
27.6
34.34
41.24
47.81
53.23
56.58
57.2
54.95
50.26
43.96
36.9
29.69
22.48
15.16
7.63
0.07
-6.9
-12.37
-15.54
-15.99
-13.91
-9.99
-5.22
-0.52
3.42
6.29
8.07
8.9
8.93
8.25
6.95
5.1
2.9
0.68
-1.18
-2.4
-2.83
-2.61
-2.02
-1.4
-1.01
-0.94
-1.11
-1.39
-1.66
-1.89
-2.09
-2.29
-2.52
-2.76
-3.0
-3.29
-3.79
-4.84
-6.71
-9.58
-13.26
-17.17
-20.53
-22.5
-22.47
-20.26
-16.09
-10.48
-4.13
2.28
8.18
13.15
16.95
19.58
21.22
22.22
22.94
23.59
24.25
24.85
25.27
25.44
25.37
25.18
24.9
24.49
23.81
22.68
20.98
18.68
15.84
12.6
9.1
5.5
2.02
-1.16
-3.93
-6.29
-8.42
-10.59
-13.11
-16.22
-19.93
-24.0
-27.9
-30.9
-32.26
-31.47
-28.37
-23.29
-16.9
-10.0
-3.29
2.76
7.98
12.33
15.78
18.32
19.89
20.58
20.66
20.49
20.46
20.8
21.51
22.39
23.17
23.62
23.73
23.56
23.3
23.01
22.67
22.09
21.11
19.63
17.65
15.31
12.8
10.28
7.81
5.31
2.59
-0.55
-4.21
-8.41
-12.95
-17.53
-21.69
-24.93
-26.8
-26.95
-25.33
-22.12
-17.74
-12.66
-7.29
-1.9
3.35
8.31
12.78
16.52
19.34
21.15
22.09
22.38
22.32
22.16
22.06
22.11
22.31
22.65
23.05
23.43
23.68
23.67
23.33
22.61
21.48
19.95
18.05
15.81
13.33
10.67
7.94
5.26
2.73
0.46
-1.55
-3.43
-5.43
-7.84
-10.86
-14.42
-18.18
-21.52
-23.78
-24.45
-23.33
-20.54
-16.49
-11.71
-6.69
-1.81
2.74
6.83
10.36
13.22
15.18
16.08
15.88
14.74
13.06
11.35
10.0
9.2
8.86
8.72
8.5
8.02
7.21
6.1
4.71
3.06
1.2
-0.8
-2.75
-4.47
-5.83
-6.89
-7.82
-8.83
-10.04
-11.45
-12.96
-14.41
-15.75
-17.03
-18.37
-19.91
-21.77
-23.93
-26.26
-28.47
-30.13
-30.75
-29.95
-27.54
-23.62
-18.59
-13.04
-7.61
-2.79
1.12
4.07
6.18
7.64
8.65
9.36
9.91
10.42
11.04
11.9
13.08
14.5
15.94
17.13
17.8
17.81
17.25
16.34
15.34
14.39
13.52
12.61
11.51
10.16
8.61
6.96
5.33
3.73
2.15
0.55
-1.05
-2.62
-4.07
-5.41
-6.76
-8.32
-10.27
-12.67
-15.34
-17.89
-19.81
-20.6
-19.92
-17.65
-13.92
-9.06
-3.46
2.39
8.09
13.23
17.48
20.6
22.48
23.23
23.12
22.57
22.0
21.75
21.95
22.51
23.24
23.93
24.5
24.93
25.23
25.38
25.24
24.68
23.59
21.99
20.02
17.84
15.62
13.47
11.43
9.52
7.64
5.67
3.43
0.74
-2.41
-5.84
-9.23
-12.19
-14.47
-16.06
-17.09
-17.82
-18.5
-19.25
-20.07
-20.79
-21.19
-20.92
-19.67
-17.22
-13.47
-8.58
-2.94
2.91
8.44
13.15
16.79
19.33
20.94
21.88
22.4
22.6
22.46
21.93
21.04
19.99
19.05
18.5
18.47
18.91
19.63
20.45
21.22
21.92
22.58
23.24
23.85
24.34
24.66
24.77
24.72
24.62
24.53
24.53
24.57
24.53
24.29
23.74
22.91
21.98
21.21
20.81
20.77
20.71
20.03
18.18
14.96
10.73
6.31
2.69
0.58
0.16
1.07
2.66
4.31
5.63
6.53
7.07
7.3
7.29
7.05
6.67
6.23
5.78
5.38
5.04
4.82
4.85
5.16
5.62
5.91
5.6
4.42
2.39
-0.12
-2.6
-4.66
-6.19
-7.39
-8.59
-10.08
-11.96
-14.14
-16.48
-18.86
-21.24
-23.64
-26.07
-28.53
-30.98
-33.3
-35.41
-37.25
-38.8
-40.14
-41.44
-42.85
-44.42
-46.08
-47.58
-48.59
-48.75
-47.78
-45.49
-41.86
-37.03
-31.31
-25.15
-19.06
-13.44
-8.53
-4.35
-0.82
2.12
4.44
6.01
6.72
6.65
6.11
5.58
5.5
6.13
7.43
9.12
10.85
12.27
13.18
13.5
13.23
12.43
11.16
9.54
7.74
5.93
4.2
2.59
1.05
-0.51
-2.13
-3.8
-5.43
-6.92
-8.22
-9.38
-10.56
-11.95
-13.7
-15.82
-18.22
-20.68
-22.92
-24.66
-25.65
-25.73
-24.78
-22.85
-20.04
-16.58
-12.76
-8.85
-5.07
-1.55
1.68
4.58
7.04
8.9
9.99
10.27
9.8
8.87
7.83
7.04
6.69
6.8
7.26
7.92
8.59
9.13
9.39
9.26
8.71
7.77
6.65
5.58
4.74
4.14
3.62
2.88
1.67
-0.1
-2.29
-4.55
-6.49
-7.9
-8.78
-9.41
-10.2
-11.53
-13.61
-16.43
-19.72
-23.02
-25.77
-27.45
-27.69
-26.37
-23.6
-19.71
-15.11
-10.21
-5.37
-0.82
3.24
6.63
9.22
10.93
11.79
12.0
11.82
11.53
11.33
11.29
11.34
11.38
11.32
11.12
10.79
10.36
9.84
9.21
8.36
7.23
5.77
4.01
2.08
0.18
-1.49
-2.8
-3.76
-4.5
-5.29
-6.34
-7.73
-9.37
-10.99
-12.36
-13.37
-14.1
-14.81
-15.79
-17.29
-19.37
-21.89
-24.55
-26.87
-28.33
-28.43
-26.84
-23.54
-18.82
-13.21
-7.34
-1.71
3.38
7.77
11.43
14.31
16.36
17.55
17.94
17.75
17.25
16.72
16.34
16.19
16.26
16.49
16.79
17.1
17.35
17.47
17.37
17.0
16.35
15.46
14.4
13.24
12.01
10.74
9.36
7.81
6.01
3.91
1.56
-0.88
-3.2
-5.22
-6.86
-8.21
-9.48
-10.93
-12.76
-15.05
-17.74
-20.68
-23.63
-26.32
-28.45
-29.69
-29.78
-28.53
-25.93
-22.21
-17.75
-13.06
-8.6
-4.7
-1.5
1.0
2.9
4.24
5.07
5.38
5.21
4.68
3.97
3.29
2.85
2.81
3.25
4.15
5.39
6.76
8.0
8.81
9.05
8.67
7.85
6.8
5.76
4.84
4.05
3.3
2.49
1.59
0.63
-0.39
-1.47
-2.63
-3.92
-5.36
-6.93
-8.66
-10.62
-12.84
-15.29
-17.7
-19.64
-20.63
-20.31
-18.59
-15.64
-11.8
-7.41
-2.73
2.05
6.71
10.97
14.52
17.15
18.82
19.65
19.87
19.69
19.26
18.68
18.0
17.33
16.73
16.24
15.85
15.5
15.14
14.73
14.22
13.52
12.54
11.17
9.38
7.2
4.76
2.22
-0.26
-2.5
-4.42
-5.99
-7.29
-8.52
-9.9
-11.67
-13.93
-16.64
-19.59
-22.52
-25.08
-26.94
-27.77
-27.31
-25.49
-22.46
-18.65
-14.6
-10.84
-7.62
-4.96
-2.62
-0.38
1.87
4.0
5.75
6.94
7.48
7.54
7.41
7.42
7.8
8.67
10.02
11.7
13.5
15.14
16.37
16.95
16.78
15.83
14.13
11.81
9.01
5.95
2.85
-0.04
-2.59
-4.79
-6.75
-8.71
-10.85
-13.33
-16.2
-19.37
-22.64
-25.68
-28.07
-29.36
-29.2
-27.43
-24.16
-19.77
-14.75
-9.57
-4.55
0.18
4.59
8.68
12.38
15.52
17.88
19.32
19.83
19.59
18.88
18.02
17.23
16.64
16.26
16.06
15.97
15.9
15.73
15.29
14.43
13.05
11.18
9.0
6.75
4.64
2.83
1.29
-0.13
-1.64
-3.45
-5.69
-8.42
-11.59
-15.15
-18.95
-22.77
-26.31
-29.13
-30.81
-31.01
-29.61
-26.79
-22.94
-18.45
-13.65
-8.72
-3.77
1.07
5.6
9.54
12.67
14.92
16.45
17.51
18.38
19.19
19.96
20.57
20.92
20.9
20.5
19.74
18.72
17.55
16.37
15.23
14.11
12.92
11.52
9.86
7.95
5.94
4.0
2.25
0.7
-0.78
-2.35
-4.18
-6.39
-9.01
-12.0
-15.27
-18.68
-21.97
-24.78
-26.63
-27.12
-26.01
-23.32
-19.38
-14.63
-9.55
-4.5
0.3
4.68
8.52
11.7
14.1
15.7
16.51
16.59
16.08
15.12
14.02
13.06
12.57
12.72
13.51
14.78
16.22
17.54
18.54
19.11
19.18
18.73
17.71
16.15
14.11
11.74
9.22
6.66
4.16
1.75
-0.61
-2.96
-5.41
-8.01
-10.85
-13.97
-17.37
-20.93
-24.46
-27.62
-30.0
-31.27
-31.16
-29.65
-26.92
-23.29
-19.13
-14.74
-10.27
-5.78
-1.32
2.97
6.88
10.18
12.69
14.41
15.48
16.19
16.84
17.68
18.86
20.44
22.38
24.52
26.56
28.16
28.99
28.82
27.65
25.61
22.97
19.96
16.71
13.29
9.73
6.13
2.65
-0.49
-3.17
-5.44
-7.52
-9.67
-12.16
-15.07
-18.25
-21.35
-23.92
-25.47
-25.69
-24.46
-21.89
-18.31
-14.1
-9.65
-5.22
-0.97
3.01
6.6
9.66
11.99
13.46
14.08
13.99
13.47
12.83
12.27
11.91
11.74
11.7
11.72
11.74
11.71
11.53
11.11
10.34
9.18
7.62
5.73
3.56
1.23
-1.14
-3.37
-5.28
-6.8
-7.96
-9.05
-10.4
-12.34
-14.99
-18.2
-21.56
-24.53
-26.57
-27.24
-26.34
-23.9
-20.17
-15.56
-10.53
-5.51
-0.83
3.32
6.79
9.48
11.32
12.32
12.59
12.36
11.92
11.54
11.39
11.55
12.01
12.71
13.57
14.49
15.34
15.94
16.18
15.99
15.35
14.37
13.13
11.72
10.14
8.39
6.46
4.35
2.13
-0.16
-2.48
-4.86
-7.36
-10.03
-12.85
-15.76
-18.56
-21.01
-22.8
-23.62
-23.19
-21.36
-18.15
-13.83
-8.85
-3.75
1.0
5.07
8.35
10.85
12.65
13.8
14.36
14.41
14.12
13.73
13.47
13.49
13.83
14.37
14.95
15.37
15.53
15.36
14.94
14.35
13.7
13.01
12.25
11.3
9.97
8.21
6.04
3.64
1.27
-0.86
-2.68
-4.29
-5.96
-7.97
-10.5
-13.57
-17.0
-20.52
-23.78
-26.43
-28.11
-28.51
-27.4
-24.8
-20.93
-16.25
-11.28
-6.51
-2.23
1.39
4.33
6.59
8.21
9.24
9.76
9.88
9.76
9.57
9.43
9.49
9.75
10.19
10.71
11.16
11.52
11.78
11.98
12.11
12.06
11.58
10.5
8.73
6.42
3.88
1.45
-0.59
-2.22
-3.55
-4.85
-6.37
-8.3
-10.67
-13.37
-16.2
-18.93
-21.32
-23.15
-24.17
-24.09
-22.69
-19.89
-15.81
-10.86
-5.66
-0.84
3.07
5.78
7.36
8.05
8.27
8.39
8.65
9.06
9.44
9.49
8.99
7.9
6.5
5.29
4.85
5.54
7.32
9.63
11.63
12.46
11.63
9.38
6.81
5.71
8.08
15.39
27.84
43.87
60.31
73.15
78.87
75.8
64.9
49.57
34.61
24.6
22.42
28.51
40.83
55.67
68.81
76.75
77.55
71.35
60.14
47.11
35.53
27.72
24.31
24.31
25.9
27.43
28.19
28.44
28.9
30.02
31.54
32.69
32.52
30.36
26.04
19.74
11.98
3.58
-4.23
-10.07
-12.86
-12.47
-10.19
-8.34
-9.43
-14.83
-23.95
-34.21
-42.02
-44.29
-39.8
-29.95
-18.39
-9.92
-8.85
-17.62
-35.85
-60.38
-85.97
-106.56
-116.7
-112.85
-94.41
-64.17
-27.75
7.9
36.67
55.13
63.31
63.9
60.42
55.34
49.16
40.96
29.78
15.87
0.91
-12.84
-23.89
-32.32
-39.51
-47.0
-55.24
-63.2
-68.98
-71.02
-69.23
-65.12
-61.2
-59.69
-61.54
-66.13
-71.8
-76.87
-80.37
-82.34
-83.48
-84.57
-85.89
-87.04
-87.24
-85.67
-81.86
-75.82
-68.01
-59.23
-50.44
-42.58
-36.33
-32.06
-29.71
-28.83
-28.71
-28.57
-27.78
-25.99
-23.23
-19.88
-16.55
-13.83
-12.11
-11.5
-11.9
-13.1
-14.98
-17.45
-20.48
-23.9
-27.5
-31.05
-34.44
-37.68
-40.69
-43.2
-44.66
-44.42
-42.02
-37.49
-31.39
-24.59
-17.87
-11.61
-5.72
0.14
6.31
12.84
19.43
25.62
30.96
35.22
38.33
40.41
41.6
42.04
41.79
40.92
39.47
37.62
35.68
34.13
33.47
34.04
35.86
38.53
41.37
43.61
44.63
44.15
42.31
39.51
36.38
33.51
31.25
29.61
28.1
25.93
22.31
16.78
9.44
0.97
-7.63
-15.31
-21.21
-24.73
-25.62
-24.06
-20.62
-16.07
-10.98
-5.29
1.63
10.56
21.59
33.39
43.31
48.18
45.81
36.12
21.52
6.15
-5.33
-9.09
-2.87
13.74
39.26
70.54
103.06
131.74
151.99
161.0
158.58
147.29
131.39
115.21
101.61
91.14
82.51
73.72
63.26
50.76
36.9
22.71
9.0
-3.83
-15.58
-25.74
-33.38
-37.45
-37.36
-33.49
-27.23
-20.5
-15.01
-11.6
-10.15
-9.77
-9.42
-8.4
-6.73
-4.97
-3.99
-4.42
-6.36
-9.26
-12.11
-13.91
-14.05
-12.57
-10.12
-7.64
-6.05
-5.88
-7.15
-9.43
-12.14
-14.81
-17.24
-19.54
-21.97
-24.76
-28.04
-31.72
-35.64
-39.53
-43.12
-46.07
-47.98
-48.47
-47.21
-44.07
-39.17
-32.93
-26.0
-19.14
-13.11
-8.42
-5.28
-3.46
-2.52
-1.91
-1.24
-0.38
0.52
1.22
1.55
1.48
1.15
0.72
0.34
0.12
0.1
0.35
0.93
1.77
2.72
3.57
4.14
4.37
4.31
4.05
3.67
3.12
2.23
0.79
-1.29
-3.93
-6.8
-9.43
-11.29
-11.98
-11.28
-9.24
-6.11
-2.27
1.81
5.75
9.25
12.11
14.24
15.62
16.3
16.4
16.09
15.54
14.93
14.42
14.1
13.94
13.89
13.83
13.7
13.43
13.03
12.47
11.7
10.66
9.28
7.55
5.53
3.33
1.1
-1.03
-3.02
-4.95
-7.01
-9.35
-12.11
-15.25
-18.55
-21.61
-23.99
-25.27
-25.17
-23.61
-20.72
-16.82
-12.39
-7.96
-4.02
-0.88
1.34
2.76
3.56
3.97
4.11
4.03
3.75
3.35
3.03
2.98
3.31
3.98
4.79
5.49
5.87
5.93
5.81
5.7
5.74
5.9
5.96
5.67
4.87
3.57
1.98
0.36
-1.12
-2.48
-3.93
-5.73
-8.0
-10.68
-13.45
-15.93
-17.76
-18.79
-19.06
-18.88
-18.64
-18.7
-19.27
-20.31
-21.56
-22.76
-23.91
-25.38
-27.71
-31.23
-35.45
-38.99
-39.87
-36.3
-27.42
-13.6
3.79
22.97
42.18
59.87
74.42
84.13
87.45
83.61
73.31
58.81
43.38
30.21
21.34
17.19
16.78
18.45
20.54
21.93
22.01
20.54
17.46
12.83
6.95
0.43
-5.87
-11.1
-14.7
-16.68
-17.57
-18.16
-19.09
-20.48
-21.94
-22.75
-22.27
-20.36
-17.46
-14.39
-12.01
-10.88
-11.07
-12.23
-13.82
-15.31
-16.34
-16.78
-16.64
-16.05
-15.22
-14.41
-13.87
-13.82
-14.41
-15.65
-17.41
-19.48
-21.58
-23.45
-24.91
-25.92
-26.62
-27.2
-27.9
-28.84
-30.0
-31.17
-32.01
-32.16
-31.33
-29.42
-26.51
-22.8
-18.61
-14.18
-9.73
-5.4
-1.38
2.14
4.95
6.88
7.94
8.29
8.19
7.91
7.64
7.43
7.27
7.15
7.06
7.1
7.3
7.69
8.21
8.67
8.86
8.53
7.57
6.01
4.07
2.01
0.06
-1.67
-3.18
-4.56
-5.9
-7.31
-8.99
-11.16
-13.94
-17.18
-20.13
-21.55
-20.02
-14.49
-4.78
8.24
22.95
37.53
50.51
61.06
68.85
73.79
75.81
74.87
71.15
65.19
57.92
50.38
43.35
37.18
31.73
26.62
21.49
16.19
10.81
5.57
0.75
-3.45
-6.99
-9.94
-12.5
-14.89
-17.3
-19.8
-22.27
-24.53
-26.44
-27.97
-29.27
-30.57
-32.07
-33.75
-35.4
-36.65
-37.11
-36.5
-34.76
-32.06
-28.74
-25.21
-21.79
-18.66
-15.72
-12.8
-9.73
-6.52
-3.4
-0.7
1.29
2.47
3.01
3.2
3.34
3.55
3.83
4.06
4.18
4.21
4.14
3.94
3.46
2.54
1.1
-0.78
-2.9
-5.04
-7.16
-9.32
-11.69
-14.4
-17.46
-20.76
-24.08
-27.18
-29.74
-31.45
-31.95
-30.98
-28.54
-24.95
-20.8
-16.79
-13.47
-11.08
-9.52
-8.47
-7.6
-6.7
-5.76
-4.84
-4.05
-3.36
-2.69
-1.88
-0.78
0.62
2.25
3.9
5.31
6.26
6.63
6.51
6.07
5.52
5.01
4.51
3.84
2.8
1.14
-1.29
-4.52
-8.5
-13.08
-17.93
-22.59
-26.38
-28.65
-28.88
-26.92
-23.0
-17.74
-11.91
-6.25
-1.27
2.83
6.06
8.59
10.5
11.82
12.47
12.47
11.99
11.41
11.21
11.73
12.99
14.67
16.22
17.15
17.28
16.72
15.73
14.58
13.36
11.97
10.35
8.51
6.69
5.2
4.23
3.71
3.33
2.55
0.89
-1.9
-5.72
-10.01
-13.95
-16.66
-17.51
-16.3
-13.42
-9.66
-5.91
-2.85
-0.77
0.38
0.96
1.36
1.94
2.85
4.12
5.6
7.1
8.44
9.6
10.62
11.66
12.77
13.87
14.61
14.59
13.46
11.19
8.13
4.89
2.13
0.23
-0.75
-1.06
-1.14
-1.44
-2.33
-4.07
-6.83
-10.59
-15.07
-19.65
-23.44
-25.5
-25.13
-22.12
-16.8
-9.9
-2.26
5.34
12.35
18.38
23.18
26.57
28.53
29.16
28.76
27.77
26.58
25.49
24.55
23.63
22.55
21.19
19.63
18.1
16.91
16.23
15.96
15.81
15.42
14.53
13.16
11.53
9.96
8.6
7.41
6.21
4.91
3.61
2.63
2.29
2.78
4.02
5.87
8.25
11.28
15.13
19.76
24.82
29.7
33.83
36.95
39.12
40.38
40.43
38.38
33.09
23.66
10.14
-6.25
-23.25
-38.16
-48.61
-53.24
-51.99
-45.99
-37.11
-27.4
-18.48
-11.28
-6.04
-2.53
-0.37
0.82
1.39
1.75
2.35
3.61
5.62
8.1
10.38
11.68
11.49
9.94
7.85
6.54
7.41
11.33
18.19
26.8
35.16
41.13
43.14
40.74
34.64
26.39
17.69
9.81
3.23
-2.31
-7.54
-13.2
-19.7
-26.98
-34.53
-41.49
-46.83
-49.51
-48.74
-44.22
-36.42
-26.52
-16.24
-7.3
-0.92
2.53
3.57
3.15
2.28
1.61
1.34
1.31
1.26
0.88
-0.14
-2.23
-5.91
-11.57
-19.26
-28.39
-37.78
-45.87
-51.16
-52.6
-49.91
-43.56
-34.69
-24.76
-15.26
-7.41
-1.93
1.05
1.93
1.45
0.42
-0.54
-1.08
-1.23
-1.14
-1.04
-1.11
-1.46
-2.14
-3.15
-4.46
-5.95
-7.46
-8.86
-10.12
-11.37
-12.85
-14.79
-17.34
-20.42
-23.77
-26.95
-29.51
-31.15
-31.84
-31.85
-31.66
-31.85
-32.82
-34.62
-36.86
-38.82
-39.56
-38.22
-34.1
-26.86
-16.54
-3.68
10.58
24.65
36.75
45.44
50.0
50.73
48.7
45.23
41.28
37.2
32.77
27.66
21.87
15.84
10.27
5.75
2.44
0.03
-2.04
-4.28
-6.93
-9.99
-13.31
-16.73
-20.01
-22.9
-25.04
-26.16
-26.37
-26.4
-27.55
-31.08
-37.39
-45.41
-52.66
-56.12
-53.54
-44.36
-29.99
-13.15
3.05
16.09
24.39
27.33
25.11
18.61
9.35
-0.75
-9.63
-15.7
-18.23
-17.57
-14.83
-11.37
-8.32
-6.31
-5.45
-5.5
-6.09
-6.82
-7.36
-7.47
-6.94
-5.64
-3.62
-1.13
1.39
3.57
5.24
6.57
7.9
9.54
11.4
12.91
13.18
11.29
6.75
-0.11
-8.13
-15.37
-19.65
-19.25
-13.61
-3.91
7.01
15.29
17.26
10.8
-3.75
-23.57
-44.22
-61.2
-71.4
-73.96
-70.15
-62.46
-53.43
-44.8
-37.23
-30.43
-23.65
-15.91
-5.99
7.54
25.92
49.44
76.53
103.51
125.39
137.66
138.22
128.45
112.65
96.25
83.67
76.93
75.56
77.68
81.21
84.73
87.48
89.01
88.82
86.47
81.82
75.27
67.65
59.88
52.56
45.79
39.2
32.28
24.67
16.31
7.6
-0.68
-7.57
-12.18
-13.99
-13.07
-10.03
-5.79
-1.3
2.8
6.2
8.88
10.92
12.3
12.97
12.88
12.17
11.14
10.28
9.95
10.3
11.09
11.86
12.07
11.36
9.68
7.24
4.46
1.74
-0.6
-2.44
-3.87
-5.05
-6.22
-7.58
-9.21
-11.08
-13.07
-15.04
-16.94
-18.81
-20.84
-23.24
-26.18
-29.71
-33.58
-37.28
-40.01
-40.95
-39.42
-35.22
-28.67
-20.56
-11.89
-3.56
3.85
10.16
15.44
19.84
23.44
26.27
28.41
30.02
31.35
32.6
33.87
35.09
36.13
36.86
37.25
37.23
36.77
35.78
34.15
31.92
29.18
26.03
22.43
18.17
13.03
6.94
0.22
-6.5
-12.49
-17.29
-20.88
-23.66
-26.19
-28.95
-32.15
-35.65
-39.09
-41.82
-43.02
-41.66
-36.79
-28.0
-15.93
-2.37
10.19
19.45
24.29
25.18
23.89
22.58
22.78
24.8
27.87
30.79
32.7
33.51
33.71
33.93
34.43
34.96
34.94
33.9
31.81
29.09
26.51
24.74
24.02
24.0
23.9
22.85
20.29
16.16
10.93
5.37
0.23
-3.97
-7.07
-9.23
-10.82
-12.27
-13.98
-16.21
-19.06
-22.45
-26.22
-30.03
-33.49
-36.09
-37.37
-36.94
-34.63
-30.63
-25.38
-19.55
-13.83
-8.74
-4.6
-1.52
0.5
1.49
1.52
0.73
-0.58
-2.05
-3.27
-3.97
-4.05
-3.59
-2.77
-1.79
-0.83
-0.02
0.51
0.69
0.49
-0.09
-0.99
-2.17
-3.61
-5.24
-7.04
-8.92
-10.77
-12.5
-14.09
-15.58
-17.05
-18.57
-20.25
-22.17
-24.43
-27.06
-30.01
-32.97
-35.43
-36.76
-36.43
-34.2
-30.22
-24.99
-19.15
-13.29
-7.84
-3.05
0.93
3.98
6.02
7.05
7.25
6.9
6.33
5.81
5.49
5.41
5.51
5.75
6.06
6.39
6.64
6.66
6.3
5.44
4.06
2.28
0.25
-1.86
-3.92
-5.87
-7.75
-9.6
-11.43
-13.28
-15.14
-17.06
-19.11
-21.38
-23.86
-26.38
-28.56
-29.89
-29.86
-28.13
-24.65
-19.73
-13.92
-7.9
-2.27
2.58
6.45
9.38
11.4
12.59
13.03
12.79
12.02
10.98
9.96
9.18
8.78
8.76
9.0
9.37
9.75
10.05
10.2
10.13
9.71
8.86
7.5
5.63
3.33
0.73
-1.99
-4.67
-7.22
-9.61
-11.95
-14.39
-17.1
-20.21
-23.73
-27.49
-31.11
-34.05
-35.73
-35.67
-33.68
-29.93
-24.92
-19.35
-13.93
-9.22
-5.5
-2.8
-1.0
0.08
0.55
0.42
-0.37
-1.8
-3.76
-6.01
-8.2
-10.02
-11.23
-11.78
-11.79
-11.54
-11.32
-11.36
-11.75
-12.41
-13.21
-13.95
-14.47
-14.56
-14.02
-12.68
-10.54
-7.95
-5.55
-4.05
-3.74
-4.16
-4.13
-2.23
2.31
8.98
15.96
20.77
21.42
17.41
9.99
1.6
-5.21
-8.73
-8.4
-4.46
2.6
12.45
24.74
38.53
52.01
62.76
68.71
69.21
65.51
60.2
55.9
53.98
54.25
55.61
57.23
59.38
63.06
69.03
76.63
83.55
86.87
84.42
76.0
63.3
48.87
34.78
21.56
8.26
-6.9
-25.5
-48.07
-73.86
-100.87
-126.36
-147.55
-162.27
-169.63
-170.25
-165.98
-159.46
-153.35
-149.81
-150.13
-154.56
-162.09
-170.53
-176.77
-177.39
-169.7
-152.39
-125.87
-91.91
-52.88
-11.08
31.4
72.36
109.12
138.63
158.19
166.48
164.2
153.96
139.28
123.28
107.76
93.07
78.77
64.46
50.41
37.48
26.66
18.49
12.78
8.8
5.69
2.75
-0.26
-3.28
-6.16
-8.89
-11.66
-14.68
-17.99
-21.27
-23.86
-24.96
-23.92
-20.48
-14.89
-7.81
-0.09
7.45
14.2
19.84
24.25
27.45
29.48
30.35
30.17
29.15
27.65
26.13
25.05
24.72
25.23
26.45
28.0
29.27
29.48
27.78
23.53
16.55
7.32
-3.04
-13.14
-21.67
-27.87
-31.62
-33.38
-33.9
-33.92
-34.1
-34.89
-36.59
-39.35
-43.04
-47.27
-51.38
-54.56
-56.07
-55.41
-52.49
-47.6
-41.37
-34.54
-27.71
-21.25
-15.23
-9.54
-4.03
1.31
6.29
10.66
14.16
16.72
18.44
19.55
20.32
20.95
21.5
21.95
22.29
22.5
22.63
22.68
22.62
22.36
21.79
20.85
19.55
17.95
16.1
14.0
11.61
8.89
5.87
2.65
-0.58
-3.68
-6.65
-9.59
-12.68
-16.02
-19.46
-22.62
-24.96
-25.96
-25.37
-23.23
-19.86
-15.71
-11.21
-6.65
-2.19
2.11
6.18
9.91
13.16
15.74
17.51
18.43
18.59
18.2
17.62
17.11
16.83
16.75
16.7
16.47
16.01
15.47
15.05
14.91
15.02
15.06
14.64
13.43
11.37
8.67
5.71
2.86
0.35
-1.82
-3.85
-5.97
-8.41
-11.26
-14.5
-18.01
-21.53
-24.66
-26.91
-27.81
-27.01
-24.45
-20.33
-15.09
-9.27
-3.4
2.14
7.08
11.3
14.75
17.42
19.35
20.58
21.12
21.06
20.48
19.52
18.38
17.3
16.47
15.99
15.84
15.92
16.11
16.31
16.48
16.55
16.42
15.93
14.94
13.41
11.43
9.27
7.18
5.32
3.65
1.93
-0.16
-2.87
-6.34
-10.47
-14.94
-19.25
-22.73
-24.74
-24.79
-22.73
-18.78
-13.5
-7.61
-1.74
3.71
8.53
12.73
16.32
19.26
21.47
22.85
23.41
23.29
22.78
22.15
21.64
21.34
21.22
21.18
21.15
21.13
21.11
21.07
20.9
20.42
19.48
18.05
16.2
14.09
11.83
9.49
7.09
4.65
2.24
-0.11
-2.38
-4.7
-7.25
-10.21
-13.59
-17.17
-20.54
-23.21
-24.73
-24.8
-23.3
-20.3
-16.03
-10.86
-5.24
0.35
5.49
9.92
13.49
16.2
18.12
19.36
20.02
20.25
20.15
19.83
19.38
18.91
18.51
18.29
18.3
18.5
18.74
18.83
18.57
17.89
16.84
15.52
14.03
12.39
10.58
8.56
6.39
4.19
2.12
0.29
-1.34
-2.89
-4.58
-6.57
-8.94
-11.66
-14.67
-17.8
-20.9
-23.73
-25.96
-27.23
-27.19
-25.63
-22.59
-18.31
-13.21
-7.7
-2.23
2.89
7.43
11.24
14.25
16.49
18.08
19.23
20.11
20.85
21.5
22.07
22.58
23.05
23.52
24.02
24.53
25.04
25.45
25.64
25.35
24.34
22.37
19.4
15.55
11.19
6.7
2.43
-1.47
-4.96
-8.05
-10.73
-12.95
-14.7
-16.05
-17.22
-18.5
-20.17
-22.37
-25.07
-28.02
-30.8
-32.85
-33.71
-33.04
-30.79
-27.13
-22.38
-16.96
-11.23
-5.51
-0.09
4.77
8.85
12.02
14.28
15.71
16.52
16.89
17.03
17.12
17.29
17.63
18.15
18.82
19.5
20.06
20.36
20.36
20.07
19.62
19.12
18.64
18.17
17.63
16.95
16.07
15.0
13.77
12.38
10.72
8.63
5.99
2.71
-1.13
-5.33
-9.68
-13.98
-18.07
-21.81
-25.04
-27.5
-28.87
-28.87
-27.34
-24.32
-20.06
-14.97
-9.51
-4.1
0.91
5.32
8.92
11.58
13.16
13.63
13.03
11.57
9.56
7.39
5.42
3.84
2.69
1.81
0.97
-0.02
-1.21
-2.37
-3.14
-3.21
-2.43
-0.97
0.73
2.18
2.98
2.99
2.33
1.27
0.07
-1.13
-2.36
-3.69
-5.19
-6.89
-8.78
-10.88
-13.28
-16.06
-19.18
-22.34
-25.04
-26.61
-26.48
-24.39
-20.51
-15.48
-10.12
-5.15
-1.07
2.03
4.31
5.99
7.27
8.22
8.81
8.99
8.82
8.43
8.03
7.84
8.0
8.55
9.4
10.38
11.34
12.15
12.76
13.13
13.2
12.89
12.13
10.88
9.26
7.44
5.61
3.87
2.2
0.53
-1.17
-2.9
-4.61
-6.29
-8.01
-9.88
-12.0
-14.35
-16.73
-18.82
-20.29
-20.81
-20.16
-18.19
-14.92
-10.52
-5.35
0.16
5.58
10.62
15.18
19.26
22.92
26.17
28.95
31.2
32.81
33.77
34.08
33.79
33.01
31.84
30.38
28.62
26.5
23.91
20.71
16.96
12.88
8.88
5.39
2.73
1.03
0.19
-0.0
0.19
0.6
1.16
1.76
2.33
2.62
2.37
1.35
-0.5
-3.05
-6.02
-9.02
-11.66
-13.64
-14.65
-14.43
-12.79
-9.6
-4.98
0.71
6.89
12.93
18.23
22.41
25.33
27.0
27.58
27.26
26.3
24.92
23.38
21.86
20.44
19.05
17.49
15.51
12.85
9.36
5.05
0.17
-4.88
-9.6
-13.55
-16.56
-18.79
-20.69
-22.81
-25.56
-29.05
-33.04
-37.16
-41.11
-44.8
-48.35
-51.93
-55.51
-58.93
-61.84
-64.01
-65.35
-65.98
-66.12
-65.82
-64.99
-63.39
-60.83
-57.3
-53.05
-48.47
-43.9
-39.48
-35.05
-30.24
-24.65
-18.06
-10.56
-2.54
5.31
12.26
17.72
21.38
23.29
23.79
23.42
22.77
22.35
22.57
23.83
26.49
31.02
37.8
46.99
58.31
71.01
83.94
95.86
105.68
112.59
116.13
116.22
113.2
107.85
101.33
94.92
89.54
85.41
81.89
77.75
71.8
63.55
53.68
43.94
36.5
32.97
33.65
37.2
41.05
42.44
39.56
32.2
21.73
10.49
0.65
-6.49
-10.8
-13.03
-14.18
-14.89
-15.03
-13.77
-9.87
-2.35
8.91
22.67
36.29
46.41
50.06
45.85
34.71
19.73
4.95
-6.42
-13.49
-18.24
-24.74
-37.38
-58.82
-88.67
-123.24
-156.53
-181.98
-194.48
-191.85
-175.4
-149.41
-119.64
-91.57
-68.97
-53.23
-43.81
-39.16
-37.84
-38.91
-41.94
-46.36
-51.17
-55.13
-57.21
-57.24
-55.97
-54.69
-54.51
-55.76
-57.83
-59.5
-59.54
-57.35
-53.15
-47.93
-43.0
-39.38
-37.44
-36.72
-36.16
-34.6
-31.26
-26.08
-19.8
-13.7
-9.18
-7.22
-8.06
-11.15
-15.3
-19.05
-21.12
-20.69
-17.66
-12.5
-6.04
0.89
7.75
14.33
20.64
26.67
32.16
36.75
40.11
42.21
43.32
43.83
44.08
44.14
43.86
43.04
41.62
39.77
37.85
36.22
35.1
34.56
34.42
34.38
33.98
32.76
30.34
26.54
21.51
15.7
9.81
4.59
0.69
-1.51
-1.95
-0.92
1.05
3.32
5.3
6.57
6.96
6.53
5.47
4.02
2.3
0.36
-1.77
-3.85
-5.4
-5.74
-4.2
-0.51
4.91
11.01
16.42
19.98
21.16
20.25
18.1
15.7
13.76
12.51
11.84
11.55
11.55
11.91
12.65
13.62
14.43
14.52
13.42
10.92
7.18
2.55
-2.52
-7.62
-12.44
-16.77
-20.44
-23.37
-25.63
-27.39
-28.94
-30.55
-32.34
-34.23
-35.88
-36.81
-36.56
-34.86
-31.69
-27.36
-22.31
-17.02
-11.87
-7.1
-2.83
0.9
4.01
6.47
8.29
9.58
10.47
11.15
11.74
12.29
12.82
13.31
13.73
14.05
14.22
14.19
13.97
13.54
12.93
12.09
10.95
9.39
7.37
5.0
2.51
0.25
-1.58
-2.98
-4.16
-5.49
-7.24
-9.51
-12.21
-15.13
-18.0
-20.58
-22.6
-23.77
-23.79
-22.44
-19.73
-15.94
-11.56
-7.13
-3.09
0.3
3.03
5.18
6.83
8.02
8.7
8.85
8.53
7.9
7.2
6.66
6.44
6.5
6.74
6.93
6.95
6.84
6.76
6.98
7.7
9.01
10.84
12.93
14.99
16.66
17.67
17.8
16.9
14.82
11.45
6.74
0.75
-6.28
-13.98
-21.91
-29.61
-36.67
-42.72
-47.3
-49.9
-49.95
-47.08
-41.26
-32.98
-23.12
-12.79
-3.01
5.48
12.2
16.98
19.78
20.7
19.94
17.82
14.77
11.3
7.92
5.09
3.14
2.25
2.43
3.53
5.29
7.42
9.64
11.68
13.22
13.94
13.5
11.69
8.5
4.2
-0.72
-5.66
-10.06
-13.57
-16.01
-17.48
-18.17
-18.3
-18.01
-17.3
-15.97
-13.79
-10.57
-6.37
-1.55
3.28
7.45
10.44
12.05
12.45
12.05
11.33
10.68
10.27
10.13
10.23
10.57
11.19
12.14
13.44
14.9
16.29
17.3
17.72
17.46
16.57
15.18
13.4
11.36
9.13
6.84
4.59
2.5
0.68
-0.83
-2.08
-3.19
-4.33
-5.74
-7.59
-10.0
-12.94
-16.17
-19.33
-21.88
-23.34
-23.31
-21.67
-18.55
-14.28
-9.35
-4.21
0.82
5.54
9.79
13.46
16.36
18.34
19.34
19.46
18.99
18.31
17.8
17.63
17.79
18.09
18.32
18.36
18.23
18.03
17.88
17.77
17.56
17.01
15.92
14.25
12.13
9.81
7.58
5.58
3.8
2.1
0.31
-1.75
-4.15
-6.9
-9.91
-12.98
-15.84
-18.11
-19.41
-19.47
-18.17
-15.62
-12.09
-7.97
-3.62
0.64
4.56
7.93
10.62
12.57
13.85
14.62
15.11
15.51
15.95
16.47
17.07
17.75
18.52
19.41
20.46
21.62
22.79
23.85
24.68
25.24
25.51
25.46
24.97
23.87
21.99
19.33
16.09
12.63
9.36
6.51
4.04
1.64
-1.08
-4.36
-8.21
-12.34
-16.29
-19.53
-21.59
-22.16
-21.07
-18.36
-14.22
-9.0
-3.18
2.68
8.07
12.55
15.89
17.98
18.74
18.05
15.74
11.76
6.32
0.01
-6.19
-11.21
-14.18
-14.75
-13.11
-9.91
-5.96
-2.01
1.43
4.0
5.57
6.1
5.73
4.74
3.51
2.4
1.68
1.37
1.27
1.08
0.48
-0.77
-2.81
-5.7
-9.44
-14.02
-19.27
-24.82
-30.06
-34.27
-36.74
-37.05
-35.19
-31.54
-26.72
-21.45
-16.25
-11.41
-6.98
-2.92
0.79
4.08
6.76
8.7
9.85
10.34
10.42
10.38
10.44
10.7
11.12
11.61
12.06
12.36
12.47
12.29
11.79
10.93
9.68
8.06
6.16
4.09
2.0
0.04
-1.73
-3.27
-4.66
-6.04
-7.57
-9.42
-11.65
-14.23
-16.92
-19.35
-21.04
-21.53
-20.49
-17.85
-13.77
-8.67
-3.11
2.35
7.18
11.01
13.59
14.87
14.97
14.14
12.74
11.15
9.68
8.56
7.84
7.49
7.4
7.46
7.63
7.91
8.3
8.72
9.03
9.01
8.44
7.19
5.26
2.78
-0.04
-2.97
-5.85
-8.52
-10.93
-13.09
-15.07
-17.0
-19.03
-21.23
-23.56
-25.82
-27.65
-28.68
-28.56
-27.08
-24.22
-20.13
-15.1
-9.53
-3.83
1.61
6.54
10.82
14.38
17.18
19.14
20.2
20.36
19.75
18.65
17.4
16.34
15.72
15.58
15.83
16.31
16.81
17.19
17.36
17.21
16.65
15.64
14.16
12.27
10.07
7.68
5.15
2.56
-0.05
-2.61
-5.02
-7.24
-9.29
-11.31
-13.49
-15.99
-18.85
-21.9
-24.8
-27.13
-28.49
-28.55
-27.13
-24.19
-19.86
-14.43
-8.39
-2.28
3.43
8.39
12.5
15.79
18.33
20.19
21.35
21.8
21.59
20.88
20.0
19.28
18.95
19.08
19.55
20.1
20.47
20.52
20.29
19.9
19.44
18.94
18.28
17.33
15.95
14.13
11.96
9.59
7.22
4.98
3.0
1.34
0.04
-0.99
-1.91
-2.97
-4.39
-6.24
-8.43
-10.7
-12.72
-14.18
-14.83
-14.5
-13.15
-10.82
-7.65
-3.92
0.08
4.04
7.72
10.93
13.5
15.34
16.34
16.48
15.84
14.59
12.98
11.25
9.52
7.83
6.14
4.43
2.78
1.31
0.13
-0.82
-1.75
-2.94
-4.63
-6.89
-9.59
-12.39
-14.96
-16.95
-18.12
-18.3
-17.36
-15.29
-12.24
-8.56
-4.72
-1.33
1.13
2.33
2.2
0.84
-1.45
-4.28
-7.17
-9.63
-11.17
-11.48
-10.53
-8.54
-5.96
-3.32
-0.97
0.88
2.25
3.23
3.82
4.02
3.71
2.85
1.47
-0.27
-2.19
-4.15
-6.09
-8.02
-9.94
-11.83
-13.57
-15.09
-16.31
-17.25
-18.0
-18.63
-19.24
-19.85
-20.46
-21.04
-21.55
-21.99
-22.42
-22.94
-23.67
-24.75
-26.27
-28.23
-30.45
-32.56
-34.13
-34.65
-33.72
-31.17
-27.08
-21.83
-15.97
-10.04
-4.54
0.26
4.27
7.52
10.08
11.99
13.24
13.78
13.64
12.86
11.68
10.37
9.23
8.53
8.43
8.98
10.09
11.57
13.11
14.4
15.16
15.22
14.53
13.2
11.44
9.47
7.48
5.56
3.75
2.0
0.25
-1.53
-3.34
-5.13
-6.84
-8.48
-10.1
-11.85
-13.89
-16.29
-18.89
-21.34
-23.13
-23.71
-22.7
-20.0
-15.84
-10.72
-5.21
0.11
4.83
8.75
11.81
14.09
15.72
16.81
17.43
17.64
17.5
17.07
16.45
15.79
15.22
14.89
14.84
15.04
15.39
15.72
15.82
15.56
14.83
13.6
11.97
10.07
8.13
6.32
4.77
3.48
2.33
1.12
-0.31
-2.03
-3.99
-6.01
-7.88
-9.46
-10.75
-11.88
-13.11
-14.66
-16.65
-18.96
-21.21
-22.87
-23.4
-22.4
-19.79
-15.8
-10.94
-5.78
-0.84
3.53
7.17
10.03
12.12
13.48
14.15
14.26
13.98
13.48
12.95
12.47
12.08
11.79
11.6
11.5
11.53
11.67
11.88
12.07
12.16
12.02
11.55
10.7
9.48
7.98
6.3
4.58
2.93
1.42
0.04
-1.25
-2.54
-3.95
-5.61
-7.62
-9.98
-12.61
-15.32
-17.88
-20.0
-21.4
-21.81
-21.01
-18.88
-15.47
-11.05
-6.07
-1.06
3.5
7.31
10.31
12.61
14.3
15.47
16.07
16.07
15.53
14.61
13.58
12.71
12.16
11.97
12.04
12.19
12.28
12.22
11.97
11.54
10.92
10.09
9.0
7.67
6.11
4.41
2.68
1.01
-0.5
-1.82
-2.97
-4.06
-5.26
-6.78
-8.79
-11.36
-14.4
-17.62
-20.59
-22.82
-23.9
-23.58
-21.86
-18.92
-15.12
-10.85
-6.45
-2.18
1.79
5.36
8.4
10.8
12.5
13.49
13.91
13.99
13.98
14.07
14.34
14.78
15.29
15.76
16.12
16.31
16.33
16.16
15.84
15.42
14.92
14.36
13.71
12.88
11.76
10.27
8.41
6.24
3.9
1.51
-0.79
-2.97
-5.03
-7.06
-9.19
-11.57
-14.31
-17.38
-20.58
-23.54
-25.8
-26.89
-26.55
-24.69
-21.49
-17.27
-12.42
-7.33
-2.28
2.45
6.72
10.43
13.51
15.92
17.65
18.68
19.06
18.89
18.32
17.51
16.67
