-3.21
1.82
6.87
11.68
15.89
19.18
21.36
22.38
22.34
21.44
19.94
18.08
16.13
14.27
12.62
11.2
9.91
8.66
7.29
5.74
3.94
1.93
-0.21
-2.4
-4.56
-6.62
-8.56
-10.34
-12.01
-13.66
-15.35
-17.13
-18.92
-20.54
-21.75
-22.26
-21.89
-20.57
-18.36
-15.38
-11.77
-7.67
-3.24
1.3
5.68
9.59
12.77
15.1
16.63
17.46
17.72
17.46
16.67
15.36
13.59
11.59
9.65
8.03
6.81
5.91
5.05
3.96
2.45
0.49
-1.76
-4.08
-6.24
-8.14
-9.82
-11.51
-13.46
-15.91
-19.01
-22.68
-26.71
-30.74
-34.37
-37.23
-39.04
-39.61
-38.9
-36.94
-33.84
-29.8
-25.05
-19.88
-14.61
-9.57
-5.1
-1.42
1.34
3.25
4.51
5.39
6.13
6.84
7.54
8.16
8.72
9.23
9.77
10.33
10.85
11.12
10.93
10.13
8.72
6.88
4.83
2.81
0.95
-0.73
-2.29
-3.86
-5.54
-7.44
-9.59
-12.0
-14.61
-17.22
-19.62
-21.51
-22.6
-22.71
-21.8
-20.05
-17.77
-15.31
-12.92
-10.63
-8.22
-5.38
-1.89
2.25
6.69
10.86
14.12
15.91
15.94
14.15
10.72
6.01
0.44
-5.45
-11.06
-15.77
-19.05
-20.59
-20.43
-18.95
-16.76
-14.47
-12.48
-10.99
-10.06
-9.76
-10.31
-12.01
-15.03
-19.27
-24.22
-29.09
-33.06
-35.42
-35.78
-34.04
-30.31
-24.9
-18.19
-10.73
-3.1
4.11
10.41
15.46
19.06
21.22
22.05
21.72
20.5
18.73
16.78
15.05
13.88
13.48
13.94
15.19
17.0
19.11
21.22
23.08
24.46
25.13
24.97
23.89
21.99
19.52
16.86
14.36
12.18
10.31
8.56
6.78
4.99
3.43
2.46
2.37
3.27
5.02
7.34
9.94
12.63
15.27
17.78
20.1
22.12
23.79
25.08
25.98
26.5
26.63
26.35
25.71
24.9
24.12
23.61
23.47
23.59
23.7
23.53
22.9
21.88
20.66
19.52
18.59
17.89
17.28
16.58
15.57
14.03
11.77
8.64
4.61
-0.09
-5.01
-9.49
-12.88
-14.69
-14.75
-13.16
-10.24
-6.43
-2.19
1.97
5.54
8.01
9.05
8.56
6.75
4.04
0.96
-2.08
-4.86
-7.27
-9.28
-10.76
-11.51
-11.38
-10.34
-8.57
-6.41
-4.17
-2.06
-0.14
1.61
3.17
4.33
4.81
4.29
2.61
-0.24
-4.16
-8.92
-14.28
-19.82
-24.97
-29.04
-31.33
-31.42
-29.27
-25.33
-20.29
-14.92
-9.78
-5.15
-1.07
2.47
5.43
7.68
9.07
9.53
9.22
8.39
7.34
6.25
5.14
3.92
2.51
0.91
-0.78
-2.35
-3.72
-4.91
-6.08
-7.48
-9.29
-11.53
-14.09
-16.72
-19.19
-21.38
-23.36
-25.35
-27.6
-30.31
-33.4
-36.52
-39.16
-40.75
-40.89
-39.49
-36.7
-32.91
-28.52
-23.85
-19.11
-14.47
-10.03
-5.95
-2.38
0.54
2.76
4.35
5.49
6.37
7.16
7.92
8.64
9.29
9.87
10.45
11.14
11.94
12.72
13.2
13.08
12.18
10.55
8.49
6.35
4.39
2.66
1.06
-0.64
-2.57
-4.83
-7.38
-10.13
-12.99
-15.79
-18.17
-19.7
-19.93
-18.56
-15.59
-11.34
-6.33
-1.11
3.94
8.64
12.96
16.91
20.44
23.44
25.71
27.13
27.66
27.45
26.73
25.85
25.15
24.84
25.0
25.49
26.07
26.46
26.4
25.74
24.52
22.85
20.93
18.97
17.19
15.86
15.32
15.86
17.64
20.45
23.66
26.23
27.0
25.07
20.05
12.2
2.26
-8.74
-19.78
-29.98
-38.63
-45.25
-49.66
-51.98
-52.6
-52.03
-50.73
-48.95
-46.72
-43.92
-40.44
-36.34
-31.79
-27.03
-22.23
-17.34
-12.06
-5.99
1.22
9.54
18.47
27.05
34.15
38.84
40.72
39.98
37.28
33.46
29.25
25.09
21.15
17.34
13.45
9.22
4.43
-0.96
-6.73
-12.35
-17.17
-20.61
-22.49
-23.06
-22.92
-22.75
-22.88
-23.12
-22.7
-20.62
-16.05
-8.75
0.71
11.03
20.53
27.77
32.04
33.62
33.7
33.89
35.6
39.53
45.45
52.49
59.44
65.21
69.06
70.63
69.87
67.02
62.64
57.56
52.75
48.9
46.19
44.02
41.31
36.85
29.85
20.16
8.25
-4.97
-18.54
-31.54
-43.16
-52.65
-59.44
-63.23
-64.24
-63.19
-61.09
-58.96
-57.47
-56.82
-56.85
-57.21
-57.59
-57.78
-57.68
-57.17
-56.13
-54.44
-52.02
-48.92
-45.15
-40.71
-35.47
-29.28
-22.14
-14.35
-6.48
0.76
6.83
11.52
15.05
17.96
20.72
23.48
26.0
27.71
28.06
26.77
24.05
20.46
16.75
13.5
11.07
9.51
8.8
8.99
10.24
12.77
16.65
21.57
26.77
31.13
33.51
33.11
29.78
24.14
17.44
11.39
8.06
9.9
19.4
38.14
65.4
97.21
126.61
145.57
148.04
132.59
103.21
67.74
34.61
9.69
-5.29
-12.17
-14.37
-14.82
-15.07
-15.52
-16.56
-19.16
-24.85
-34.74
-48.6
-64.29
-78.31
-87.21
-89.27
-85.59
-79.8
-76.43
-78.67
-86.68
-97.47
-106.35
-109.33
-104.97
-95.01
-83.07
-72.7
-65.65
-61.33
-57.65
-52.37
-44.26
-33.33
-20.39
-6.44
7.69
21.28
33.42
42.96
48.91
50.76
48.94
44.72
39.83
35.89
34.03
34.61
37.27
41.07
44.66
46.7
46.25
43.0
37.34
30.05
21.94
13.52
5.06
-3.25
-11.03
-17.62
-22.26
-24.29
-23.42
-19.85
-14.13
-7.06
0.55
7.92
14.38
19.38
22.54
23.71
22.99
20.73
17.53
14.01
10.75
8.27
6.88
6.74
7.78
9.72
12.07
14.29
15.88
16.55
16.22
14.98
12.96
10.26
6.92
2.97
-1.47
-6.24
-11.1
-15.81
-20.23
-24.29
-28.04
-31.59
-35.09
-38.7
-42.48
-46.31
-49.85
-52.59
-53.95
-53.48
-51.03
-46.78
-41.22
-34.98
-28.64
-22.6
-17.07
-12.09
-7.66
-3.88
-0.83
1.41
2.89
3.77
4.32
4.78
5.32
5.95
6.63
7.29
7.9
8.44
8.88
9.13
9.08
8.61
7.67
6.28
4.56
2.64
0.66
-1.26
-3.1
-4.92
-6.91
-9.33
-12.37
-16.02
-19.97
-23.57
-26.08
-26.93
-25.9
-23.19
-19.26
-14.6
-9.6
-4.5
0.5
5.14
9.09
12.02
13.8
14.58
14.75
14.79
14.99
15.37
15.73
15.74
15.25
14.29
13.17
12.19
11.53
11.16
10.84
10.26
9.16
7.53
5.49
3.3
1.17
-0.75
-2.48
-4.15
-5.93
-8.0
-10.4
-13.11
-15.98
-18.81
-21.31
-23.18
-24.08
-23.69
-21.78
-18.31
-13.48
-7.7
-1.55
4.36
9.53
13.62
16.51
18.21
18.91
18.84
18.28
17.49
16.66
15.87
15.12
14.35
13.57
12.87
12.38
12.26
12.51
12.93
13.14
12.79
11.64
9.75
7.44
5.09
2.99
1.19
-0.51
-2.43
-4.77
-7.6
-10.76
-14.01
-17.04
-19.57
-21.33
-22.12
-21.78
-20.25
-17.64
-14.15
-10.03
-5.53
-0.86
3.77
8.06
11.69
14.26
15.54
15.47
14.31
12.5
10.56
8.91
7.8
7.21
6.99
6.92
6.87
6.8
6.73
6.66
6.49
6.06
5.17
3.74
1.81
-0.38
-2.59
-4.66
-6.55
-8.36
-10.24
-12.31
-14.62
-17.17
-19.9
-22.72
-25.42
-27.71
-29.25
-29.69
-28.79
-26.49
-22.93
-18.43
-13.47
-8.56
-4.21
-0.81
1.4
2.44
2.52
2.01
1.28
0.63
0.16
-0.13
-0.35
-0.57
-0.79
-0.97
-0.97
-0.68
-0.02
1.03
2.4
3.91
5.29
6.24
6.53
6.09
5.04
3.65
2.24
1.06
0.23
-0.28
-0.64
-1.11
-1.93
-3.23
-4.99
-6.95
-8.7
-9.78
-9.84
-8.75
-6.6
-3.67
-0.32
3.19
6.64
9.89
12.82
15.28
17.11
18.27
18.78
18.77
18.48
18.13
17.91
17.94
18.23
18.74
19.4
20.12
20.74
21.15
21.19
20.73
19.69
18.07
15.95
13.52
11.03
8.72
6.76
5.19
3.93
2.82
1.64
0.22
-1.57
-3.77
-6.33
-9.15
-11.99
-14.5
-16.26
-16.85
-16.03
-13.8
-10.43
-6.39
-2.17
1.8
5.32
8.36
10.92
13.04
14.67
15.73
16.19
16.13
15.71
15.15
14.6
14.1
13.59
13.01
12.33
11.63
11.01
10.52
10.14
9.69
9.01
8.0
6.65
5.09
3.47
1.89
0.32
-1.29
-3.06
-5.08
-7.38
-9.97
-12.79
-15.71
-18.46
-20.73
-22.1
-22.26
-21.01
-18.38
-14.58
-9.98
-5.01
-0.12
4.34
8.11
11.1
13.39
15.09
16.37
17.39
18.19
18.81
19.24
19.52
19.67
19.73
19.67
19.46
19.06
18.48
17.79
17.1
16.45
15.8
14.99
13.83
12.16
9.96
7.37
4.61
1.96
-0.46
-2.64
-4.78
-7.15
-9.96
-13.23
-16.66
-19.72
-21.8
-22.37
-21.24
-18.51
-14.6
-10.02
-5.21
-0.53
3.77
7.49
10.41
12.37
13.33
13.41
12.88
12.08
11.3
10.66
10.15
9.68
9.16
8.62
8.12
7.78
7.64
7.6
7.45
6.98
6.02
4.6
2.84
0.96
-0.89
-2.6
-4.18
-5.72
-7.33
-9.07
-11.07
-13.36
-15.98
-18.84
-21.79
-24.5
-26.6
-27.64
-27.25
-25.25
-21.71
-16.97
-11.57
-6.09
-1.01
3.36
6.86
9.49
11.25
12.18
12.32
11.84
10.97
10.05
9.34
9.03
9.14
9.54
10.06
10.51
10.78
10.87
10.85
10.8
10.72
10.53
10.05
9.15
7.77
5.97
3.85
1.55
-0.85
-3.34
-5.89
-8.53
-11.27
-14.14
-17.19
-20.44
-23.77
-26.85
-29.19
-30.31
-29.91
-27.95
-24.71
-20.64
-16.13
-11.5
-6.98
-2.73
1.03
4.09
6.3
7.66
8.29
8.45
8.42
8.4
8.55
8.96
9.65
10.57
11.6
12.57
13.31
13.72
13.78
13.52
13.01
12.27
11.28
10.01
8.44
6.59
4.58
2.55
0.65
-1.07
-2.67
-4.26
-5.99
-7.9
-9.97
-12.14
-14.42
-16.83
-19.43
-22.07
-24.36
-25.74
-25.62
-23.65
-19.9
-14.82
-9.05
-3.24
2.1
6.67
10.33
13.0
14.63
15.3
15.16
14.5
13.62
12.79
12.19
11.87
11.81
11.93
12.14
12.36
12.53
12.6
12.54
12.31
11.83
10.99
9.67
7.83
5.51
2.91
0.29
-2.11
-4.16
-5.86
-7.36
-8.82
-10.34
-11.94
-13.63
-15.45
-17.5
-19.82
-22.3
-24.56
-26.03
-26.1
-24.4
-20.91
-16.07
-10.57
-5.11
-0.2
3.91
7.25
9.88
11.8
12.89
13.02
12.23
10.77
9.12
7.79
7.19
7.43
8.36
9.66
10.97
12.03
12.66
12.8
12.41
11.51
10.15
8.47
6.59
4.66
2.7
0.68
-1.42
-3.63
-5.87
-8.08
-10.2
-12.27
-14.44
-16.84
-19.53
-22.34
-24.93
-26.8
-27.51
-26.78
-24.58
-21.04
-16.47
-11.25
-5.79
-0.49
4.33
8.4
11.57
13.76
15.02
15.4
15.07
14.23
13.18
12.24
11.68
11.65
12.08
12.79
13.49
13.96
14.13
14.0
13.65
13.17
12.55
11.71
10.53
8.88
6.71
4.1
1.22
-1.69
-4.36
-6.63
-8.47
-10.01
-11.45
-13.03
-14.91
-17.16
-19.7
-22.36
-24.86
-26.77
-27.59
-26.86
-24.25
-19.79
-13.92
-7.35
-0.9
4.72
9.12
12.28
14.4
15.77
16.6
17.0
16.94
16.44
15.56
14.49
13.44
12.66
12.27
12.25
12.53
12.94
13.35
13.66
13.81
13.74
13.39
12.73
11.74
10.47
8.98
7.38
5.75
4.17
2.65
1.16
-0.39
-2.13
-4.13
-6.42
-8.99
-11.81
-14.86
-18.11
-21.39
-24.36
-26.5
-27.22
-26.1
-23.05
-18.34
-12.55
-6.38
-0.44
4.83
9.2
12.57
14.92
16.27
16.73
16.42
15.59
14.53
13.53
12.89
12.77
13.2
14.07
15.18
16.29
17.22
17.87
18.18
18.17
17.86
17.22
16.24
14.88
13.14
11.1
8.84
6.48
4.13
1.81
-0.48
-2.76
-5.02
-7.25
-9.41
-11.57
-13.87
-16.43
-19.31
-22.31
-25.01
-26.83
-27.25
-25.91
-22.77
-18.1
-12.36
-6.12
0.06
5.72
10.52
14.23
16.79
18.24
18.73
18.49
17.73
16.7
15.61
14.67
14.0
13.66
13.58
13.62
13.62
13.47
13.12
12.59
11.88
10.99
9.86
8.4
6.61
4.54
2.33
0.14
-1.94
-3.86
-5.67
-7.45
-9.25
-11.16
-13.25
-15.6
-18.29
-21.31
-24.48
-27.46
-29.67
-30.51
-29.52
-26.52
-21.84
-16.11
-10.13
-4.55
0.22
4.15
7.33
9.82
11.59
12.47
12.4
11.54
10.32
9.29
8.92
9.38
10.51
11.92
13.17
13.97
14.23
14.02
13.5
12.74
11.76
10.51
8.97
7.14
5.16
3.14
1.19
-0.67
-2.52
-4.43
-6.49
-8.72
-11.13
-13.74
-16.58
-19.65
-22.79
-25.7
-27.89
-28.83
-28.13
-25.68
-21.66
-16.54
-10.89
-5.2
0.13
4.89
8.97
12.3
14.84
16.56
17.48
17.63
17.2
16.43
15.65
15.16
15.17
15.66
16.44
17.21
17.67
17.62
17.08
16.18
15.12
14.02
12.85
11.47
9.73
7.55
5.0
2.28
-0.41
-2.92
-5.24
-7.48
-9.79
-12.33
-15.16
-18.26
-21.47
-24.57
-27.21
-28.93
-29.29
-27.96
-24.84
-20.15
-14.37
-8.16
-2.1
3.35
7.98
11.71
14.57
16.58
17.75
18.12
17.8
17.01
16.11
15.43
15.22
15.54
16.27
17.16
17.98
18.58
18.94
19.08
19.02
18.69
18.02
16.96
15.52
13.88
12.22
10.71
9.39
8.18
6.91
5.4
3.54
1.37
-1.02
-3.46
-5.93
-8.4
-10.95
-13.57
-16.14
-18.32
-19.65
-19.69
-18.09
-14.75
-9.8
-3.61
3.3
10.25
16.43
21.01
23.31
23.04
20.42
16.17
11.28
6.65
2.94
0.38
-1.07
-1.64
-1.54
-1.04
-0.37
0.18
0.32
-0.13
-1.16
-2.58
-4.11
-5.46
-6.49
-7.21
-7.76
-8.3
-8.95
-9.75
-10.66
-11.61
-12.57
-13.51
-14.48
-15.54
-16.77
-18.27
-20.11
-22.28
-24.62
-26.75
-28.15
-28.25
-26.67
-23.31
-18.47
-12.75
-6.82
-1.25
3.65
7.78
11.15
13.82
15.77
16.96
17.43
17.34
16.96
16.62
16.59
16.99
17.73
18.61
19.37
19.82
19.85
19.5
18.9
18.17
17.37
16.47
15.39
14.02
12.34
10.33
8.09
5.73
3.38
1.12
-1.04
-3.13
-5.25
-7.56
-10.21
-13.25
-16.65
-20.18
-23.43
-25.88
-27.02
-26.49
-24.26
-20.58
-15.94
-10.91
-5.98
-1.46
2.47
5.81
8.55
10.73
12.28
13.18
13.44
13.14
12.51
11.86
11.45
11.44
11.82
12.4
12.95
13.25
13.17
12.74
12.01
11.07
9.95
8.63
7.06
5.19
2.99
0.51
-2.1
-4.64
-6.88
-8.66
-10.01
-11.08
-12.2
-13.67
-15.65
-18.1
-20.72
-23.05
-24.57
-24.83
-23.64
-21.01
-17.21
-12.62
-7.66
-2.63
2.28
6.94
11.25
15.05
18.1
20.18
21.15
21.1
20.28
19.14
18.08
17.37
17.1
17.13
17.24
17.22
16.98
16.59
16.18
15.85
15.59
15.24
14.59
13.4
11.52
8.96
5.83
2.39
-1.1
-4.38
-7.3
-9.82
-12.0
-13.97
-15.89
-17.85
-19.95
-22.19
-24.55
-26.97
-29.28
-31.13
-32.12
-31.79
-29.79
-26.05
-20.73
-14.23
-7.09
0.06
6.53
11.59
14.63
15.38
13.99
11.13
7.72
4.67
2.49
1.23
0.55
0.09
-0.32
-0.54
-0.26
0.75
2.38
4.28
5.98
7.12
7.61
7.59
7.23
6.68
5.9
4.74
3.11
1.05
-1.24
-3.49
-5.46
-7.11
-8.58
-10.15
-12.08
-14.48
-17.22
-19.87
-21.85
-22.6
-21.79
-19.42
-15.83
-11.51
-6.96
-2.55
1.54
5.26
8.61
11.53
13.91
15.6
16.46
16.45
15.67
14.35
12.8
11.38
10.33
9.78
9.68
9.87
10.18
10.43
10.49
10.25
9.58
8.37
6.6
4.36
1.86
-0.6
-2.76
-4.44
-5.59
-6.31
-6.79
-7.32
-8.23
-9.81
-12.2
-15.29
-18.67
-21.71
-23.75
-24.31
-23.21
-20.56
-16.68
-11.91
-6.59
-0.99
4.59
9.79
14.18
17.38
19.11
19.28
18.07
15.82
13.03
10.24
7.93
6.47
5.96
6.34
7.28
8.36
9.18
9.43
9.06
8.18
6.96
5.56
4.1
2.69
1.5
0.78
0.67
1.12
1.74
1.91
0.93
-1.63
-5.75
-11.01
-16.69
-22.06
-26.56
-29.8
-31.51
-31.51
-29.65
-25.94
-20.62
-14.14
-7.13
-0.19
6.24
11.93
16.83
20.94
24.25
26.66
28.05
28.29
27.33
25.3
22.49
19.3
16.19
13.52
11.46
9.93
8.7
7.5
6.16
4.77
3.53
2.71
2.45
2.68
3.14
3.45
3.27
2.32
0.58
-1.8
-4.52
-7.2
-9.53
-11.38
-12.82
-14.14
-15.72
-17.82
-20.46
-23.36
-25.98
-27.66
-27.83
-26.18
-22.77
-17.98
-12.4
-6.67
-1.33
3.29
7.01
9.78
11.61
12.55
12.71
12.25
11.4
10.38
9.35
8.41
7.56
6.82
6.23
5.83
5.59
5.44
5.19
4.69
3.85
2.75
1.55
0.43
-0.45
-1.1
-1.62
-2.17
-2.91
-3.94
-5.35
-7.13
-9.24
-11.61
-14.16
-16.8
-19.38
-21.72
-23.58
-24.68
-24.78
-23.75
-21.6
-18.45
-14.52
-10.0
-5.11
-0.06
4.86
9.24
12.67
14.81
15.52
14.97
13.55
11.73
9.94
8.4
7.19
6.25
5.48
4.88
4.45
4.22
4.16
4.16
3.98
3.39
2.22
0.5
-1.53
-3.53
-5.17
-6.29
-6.96
-7.49
-8.28
-9.71
-11.97
-15.01
-18.54
-22.05
-25.01
-26.89
-27.31
-26.11
-23.35
-19.38
-14.63
-9.66
-4.9
-0.62
3.06
6.21
8.94
11.28
13.12
14.28
14.59
14.0
12.73
11.2
9.87
9.13
9.13
9.81
10.94
12.18
13.19
13.67
13.4
12.3
10.48
8.24
5.93
3.84
2.08
0.54
-0.93
-2.55
-4.43
-6.55
-8.87
-11.35
-13.98
-16.77
-19.68
-22.51
-25.0
-26.82
-27.58
-26.97
-24.79
-21.01
-15.88
-9.88
-3.63
2.31
7.5
11.75
15.06
17.44
18.94
19.58
19.43
18.72
17.79
17.05
16.76
16.98
17.48
17.97
18.2
18.08
17.73
17.34
17.07
16.95
16.77
16.24
15.07
13.09
10.41
7.31
4.18
1.33
-1.14
-3.37
-5.67
-8.35
-11.56
-15.26
-19.15
-22.8
-25.72
-27.43
-27.62
-26.13
-23.0
-18.51
-13.09
-7.28
-1.63
3.39
7.46
10.45
12.37
13.37
13.64
13.36
12.69
11.76
10.74
9.82
9.19
8.93
9.01
9.21
9.29
9.07
8.51
7.73
6.93
6.2
5.54
4.81
3.89
2.73
1.44
0.14
-1.05
-2.17
-3.37
-4.85
-6.76
-9.14
-11.97
-15.12
-18.4
-21.55
-24.16
-25.78
-25.97
-24.5
-21.39
-16.99
-11.84
-6.54
-1.56
2.82
6.49
9.47
11.79
13.43
14.3
14.36
13.62
12.29
10.73
9.34
8.46
8.22
8.52
9.1
9.66
10.02
10.13
10.06
9.91
9.67
9.29
8.67
7.74
6.51
4.99
3.16
0.96
-1.72
-4.85
-8.31
-11.85
-15.23
-18.27
-20.93
-23.22
-25.05
-26.24
-26.45
-25.32
-22.63
-18.45
-13.14
-7.27
-1.51
3.55
7.49
10.12
11.49
11.81
11.38
10.54
9.63
8.93
8.61
8.72
9.19
9.86
10.56
11.16
11.61
11.93
12.12
12.18
12.01
11.53
10.64
9.27
7.42
5.13
2.54
-0.21
-2.96
-5.65
-8.25
-10.88
-13.66
-16.7
-20.06
-23.61
-27.04
-29.87
-31.49
-31.39
-29.3
-25.29
-19.84
-13.63
-7.34
-1.49
3.64
7.97
11.46
14.06
15.78
16.63
16.79
16.51
16.04
15.57
15.13
14.73
14.38
14.15
14.15
14.46
15.03
15.67
16.08
15.97
15.16
13.67
11.62
9.23
6.73
4.29
2.0
-0.1
-2.09
-4.08
-6.21
-8.65
-11.51
-14.77
-18.21
-21.45
-23.9
-24.99
-24.32
-21.75
-17.52
-12.15
-6.29
-0.55
4.64
9.06
12.64
15.41
17.42
18.69
19.22
19.06
18.31
17.18
15.94
14.83
13.98
13.39
13.01
12.7
12.43
12.16
11.88
11.44
10.62
9.18
6.98
4.1
0.82
-2.53
-5.66
-8.42
-10.8
-12.78
-14.35
-15.52
-16.37
-17.14
-18.2
-19.82
-22.06
-24.6
-26.83
-27.95
-27.35
-24.7
-20.12
-14.07
-7.19
-0.16
6.49
12.42
17.44
21.48
24.49
26.48
27.46
27.56
27.04
26.29
25.7
25.54
25.87
26.49
27.08
27.35
27.2
26.64
25.81
24.83
23.72
22.39
20.76
18.8
16.52
13.99
11.27
8.45
5.62
2.89
0.35
-2.03
-4.37
-6.91
-9.85
-13.26
-16.96
-20.53
-23.36
-24.87
-24.62
-22.41
-18.32
-12.63
-5.74
1.95
10.05
18.17
25.92
32.89
38.7
43.11
46.12
48.08
49.64
51.58
54.53
58.76
64.06
69.89
75.62
80.77
85.22
89.06
92.38
95.04
96.61
96.4
93.61
87.4
76.99
61.84
42.06
18.8
-5.7
-28.6
-47.45
-61.17
-70.54
-77.73
-85.33
-95.1
-107.32
-120.84
-133.8
-144.49
-151.83
-155.47
-155.56
-152.52
-146.83
-139.06
-129.83
-119.84
-109.85
-100.57
-92.54
-85.95
-80.55
-75.78
-70.87
-65.16
-58.23
-49.95
-40.42
-29.9
-18.8
-7.68
2.82
12.18
20.13
26.86
32.71
37.83
41.85
44.11
44.34
43.55
44.17
49.25
60.89
78.64
99.08
116.85
126.74
125.69
113.55
92.36
65.05
34.61
4.08
-22.93
-42.16
-49.86
-44.57
-28.45
-7.08
12.53
24.72
27.17
21.15
10.18
-2.09
-13.28
-22.58
-30.07
-35.79
-39.39
-40.33
-38.38
-33.96
-28.15
-22.31
-17.56
-14.43
-12.77
-11.96
-11.31
-10.36
-9.16
-8.15
-7.9
-8.82
-10.88
-13.72
-16.77
-19.66
-22.28
-24.86
-27.76
-31.13
-34.81
-38.21
-40.52
-41.01
-39.28
-35.41
-29.9
-23.51
-16.99
-10.94
-5.68
-1.28
2.26
4.95
6.77
7.67
7.65
6.84
5.5
4.0
2.71
1.94
1.83
2.34
3.32
4.56
5.88
7.14
8.19
8.9
9.15
8.84
7.97
6.6
4.87
2.94
0.89
-1.28
-3.66
-6.33
-9.33
-12.53
-15.69
-18.41
-20.21
-20.63
-19.39
-16.44
-12.01
-6.57
-0.73
4.97
10.09
14.45
18.06
21.01
23.4
25.22
26.39
26.83
26.6
25.88
25.01
24.3
23.97
24.06
24.41
24.8
24.98
24.81
24.27
23.42
22.3
20.97
19.43
17.69
15.71
13.52
11.14
8.57
5.76
2.56
-1.17
-5.48
-10.25
-15.16
-19.7
-23.31
-25.51
-26.0
-24.75
-21.94
-17.92
-13.15
-8.11
-3.23
1.21
5.07
8.35
11.04
13.17
14.7
15.6
15.91
15.77
15.36
14.9
14.51
14.23
14.03
13.88
13.78
13.71
13.65
13.46
12.94
11.87
10.12
7.74
4.91
1.96
-0.85
-3.4
-5.81
-8.35
-11.3
-14.8
-18.65
-22.41
-25.4
-26.97
-26.69
-24.45
-20.51
-15.37
-9.61
-3.74
1.87
7.05
11.68
15.71
19.07
21.66
23.4
24.32
24.53
24.26
23.77
23.25
22.81
22.49
22.24
22.04
21.88
21.78
21.66
21.38
20.72
19.47
17.54
14.96
11.91
8.63
5.31
2.07
-1.13
-4.35
-7.77
-11.56
-15.83
-20.58
-25.58
-30.39
-34.36
-36.8
-37.17
-35.23
-31.12
-25.37
-18.69
-11.8
-5.28
0.59
5.73
10.16
13.86
16.7
18.48
19.14
18.77
17.71
16.4
15.18
14.25
13.59
13.07
12.58
12.05
11.54
11.09
10.69
10.25
9.6
8.57
7.06
5.09
2.77
0.31
-2.09
-4.28
-6.24
-8.04
-9.8
-11.73
-13.98
-16.62
-19.65
-22.85
-25.84
-28.15
-29.31
-28.96
-26.96
-23.42
-18.67
-13.2
-7.53
-2.15
2.63
6.6
9.69
11.9
13.29
13.92
13.94
13.54
13.0
12.61
12.61
13.08
13.95
15.04
16.18
17.23
18.13
18.82
19.19
19.09
18.32
16.76
14.41
11.43
8.11
4.78
1.72
-0.92
-3.16
-5.14
-7.07
-9.21
-11.74
-14.71
-18.01
-21.29
-24.03
-25.68
-25.78
-24.13
-20.81
-16.15
-10.6
-4.64
1.34
7.06
12.33
16.94
20.74
23.55
25.26
25.83
25.37
24.14
22.51
20.93
19.74
19.07
18.82
18.67
18.31
17.53
16.34
14.87
13.29
11.69
10.06
8.29
6.3
4.07
1.66
-0.75
-3.09
-5.31
-7.53
-9.88
-12.53
-15.6
-19.06
-22.74
-26.35
-29.5
-31.74
-32.65
-31.93
-29.41
-25.17
-19.56
-13.1
-6.43
-0.15
5.33
9.77
13.1
15.4
16.77
17.35
17.31
16.84
16.2
15.63
15.26
15.13
15.21
15.4
15.64
15.87
16.1
16.28
16.37
16.25
15.79
14.89
13.44
11.41
8.86
5.94
2.87
-0.09
-2.81
-5.25
-7.54
-9.89
-12.46
-15.29
-18.33
-21.5
-24.66
-27.67
-30.27
-32.05
-32.57
-31.42
-28.48
-23.96
-18.39
-12.39
-6.51
-1.08
3.72
7.79
11.04
13.35
14.63
14.97
14.57
13.73
12.79
11.99
11.51
11.41
11.68
12.22
12.85
13.36
13.58
13.43
12.92
12.12
11.1
9.84
8.32
6.51
4.44
2.22
-0.04
-2.23
-4.31
-6.28
-8.15
-9.95
-11.74
-13.64
-15.82
-18.4
-21.39
-24.64
-27.81
-30.46
-32.11
-32.38
-31.04
-28.09
-23.72
-18.37
-12.57
-6.85
-1.61
2.93
6.71
9.79
12.2
13.99
15.14
15.63
15.51
14.88
13.92
12.84
11.85
11.09
10.63
10.41
10.3
10.15
9.85
9.34
8.65
7.85
6.97
6.01
4.93
3.63
2.03
0.05
-2.29
-4.89
-7.58
-10.13
-12.37
-14.23
-15.79
-17.26
-18.9
-20.95
-23.5
-26.45
-29.45
-31.95
-33.36
-33.15
-31.11
-27.36
-22.3
-16.46
-10.36
-4.42
1.06
5.84
9.71
12.5
14.17
14.8
14.67
14.1
13.39
12.71
12.13
11.64
11.26
11.02
11.02
11.3
11.85
12.56
13.24
13.68
13.74
13.33
12.41
11.0
9.13
6.9
4.38
1.73
-0.93
-3.52
-6.01
-8.48
-11.06
-13.92
-17.18
-20.86
-24.83
-28.73
-32.04
-34.17
-34.59
-33.04
-29.6
-24.65
-18.75
-12.44
