-14.37
-16.94
-19.94
-23.51
-27.61
-31.85
-35.58
-37.96
-38.28
-36.12
-31.62
-25.34
-18.13
-10.82
-4.06
1.8
6.65
10.48
13.33
15.21
16.14
16.2
15.54
14.38
12.99
11.63
10.52
9.75
9.33
9.14
9.03
8.86
8.59
8.23
7.85
7.48
7.03
6.31
5.12
3.34
1.07
-1.42
-3.8
-5.85
-7.58
-9.18
-10.89
-12.92
-15.29
-17.94
-20.77
-23.65
-26.38
-28.54
-29.51
-28.63
-25.54
-20.32
-13.6
-6.28
0.78
7.01
12.24
16.52
19.96
22.55
24.19
24.76
24.35
23.19
21.68
20.22
19.07
18.36
18.03
17.89
17.74
17.42
16.86
16.07
15.1
13.98
12.67
11.11
9.19
6.85
4.15
1.25
-1.64
-4.38
-6.93
-9.38
-11.96
-14.82
-18.02
-21.46
-24.92
-28.02
-30.39
-31.66
-31.51
-29.74
-26.37
-21.59
-15.83
-9.6
-3.46
2.17
6.99
10.89
13.83
15.83
16.92
17.16
16.62
15.48
14.0
12.48
11.24
10.5
10.26
10.34
10.46
10.33
9.84
9.05
8.15
7.33
6.64
5.99
5.2
4.05
2.48
0.54
-1.64
-3.89
-6.13
-8.37
-10.65
-13.01
-15.46
-17.96
-20.45
-22.88
-25.16
-27.11
-28.43
-28.72
-27.54
-24.65
-20.08
-14.17
-7.5
-0.71
5.66
11.25
15.89
19.53
22.12
23.67
24.21
23.9
22.96
21.67
20.25
18.84
17.47
16.18
14.95
13.8
12.73
11.78
10.94
10.26
9.72
9.29
8.82
8.11
6.94
5.15
2.8
0.07
-2.73
-5.39
-7.85
-10.26
-12.82
-15.68
-18.78
-22.0
-25.2
-28.36
-31.57
-34.87
-38.08
-40.68
-41.99
-41.37
-38.53
-33.67
-27.43
-20.55
-13.74
-7.43
-1.83
2.99
7.01
10.13
12.31
13.5
13.78
13.34
12.46
11.43
10.49
9.81
9.44
9.36
9.5
9.74
10.01
10.21
10.3
10.27
10.13
9.87
9.43
8.69
7.51
5.81
3.62
1.14
-1.41
-3.78
-5.88
-7.76
-9.56
-11.54
-13.85
-16.62
-19.83
-23.29
-26.65
-29.35
-30.74
-30.26
-27.63
-22.93
-16.65
-9.49
-2.21
4.67
10.87
16.29
20.92
24.67
27.39
28.93
29.28
28.63
27.36
25.95
24.77
24.01
23.66
23.61
23.69
23.81
23.92
23.97
23.84
23.33
22.26
20.52
18.12
15.24
12.07
8.82
5.59
2.42
-0.7
-3.8
-6.9
-10.01
-13.16
-16.39
-19.71
-23.14
-26.7
-30.34
-33.9
-37.08
-39.39
-40.24
-39.14
-35.88
-30.6
-23.84
-16.34
-8.88
-2.05
3.77
8.47
12.09
14.7
16.37
17.16
17.15
16.54
15.6
14.68
14.06
13.86
14.05
14.51
15.11
15.75
16.37
16.91
17.27
17.33
17.0
16.23
15.04
13.46
11.57
9.41
7.05
4.57
2.04
-0.49
-3.01
-5.53
-8.11
-10.73
-13.42
-16.23
-19.22
-22.54
-26.18
-29.95
-33.32
-35.61
-36.13
-34.48
-30.75
-25.38
-19.1
-12.59
-6.35
-0.64
4.45
8.85
12.51
15.34
17.29
18.38
18.71
18.41
17.67
16.64
15.53
14.46
13.52
12.76
12.17
11.75
11.45
11.22
10.92
10.41
9.54
8.28
6.68
4.87
3.02
1.24
-0.42
-2.04
-3.71
-5.52
-7.54
-9.79
-12.27
-14.98
-17.95
-21.21
-24.71
-28.3
-31.7
-34.47
-36.16
-36.35
-34.82
-31.57
-26.87
-21.12
-14.83
-8.46
-2.43
2.98
7.56
11.19
13.79
15.36
15.96
15.79
15.18
14.54
14.25
14.53
15.34
16.44
17.49
18.25
18.67
18.83
18.85
18.73
18.37
17.59
16.3
14.57
12.6
10.59
8.67
6.83
4.94
2.89
0.65
-1.82
-4.56
-7.61
-11.06
-14.88
-18.84
-22.45
-25.05
-26.01
-24.9
-21.64
-16.54
-10.17
-3.23
3.67
10.11
15.86
20.79
24.81
27.82
29.72
30.52
30.38
29.63
28.69
27.92
27.55
27.65
28.17
28.99
30.0
31.1
32.24
33.3
34.18
34.73
34.82
34.35
33.3
31.72
29.7
27.35
24.73
21.84
18.65
15.15
11.34
7.24
2.81
-2.09
-7.66
-13.98
-20.94
-28.12
-34.91
-40.62
-44.68
-46.8
-46.92
-45.21
-41.94
-37.46
-32.18
-26.54
-21.03
-16.09
-12.11
-9.34
-7.87
-7.58
-8.21
-9.41
-10.82
-12.12
-13.13
-13.79
-14.19
-14.5
-14.91
-15.62
-16.71
-18.15
-19.79
-21.4
-22.77
-23.79
-24.57
-25.34
-26.37
-27.8
-29.54
-31.3
-32.71
-33.51
-33.76
-33.71
-33.82
-34.44
-35.77
-37.72
-39.97
-42.12
-43.67
-44.18
-43.26
-40.66
-36.31
-30.41
-23.35
-15.67
-7.92
-0.58
6.03
11.67
16.19
19.49
21.62
22.75
23.18
23.35
23.63
24.26
25.28
26.57
27.93
29.22
30.36
31.39
32.3
33.04
33.47
33.45
32.82
31.52
29.57
27.02
24.01
20.67
17.14
13.6
10.19
7.0
4.01
1.11
-1.88
-5.18
-8.92
-13.09
-17.44
-21.52
-24.7
-26.35
-26.08
-23.8
-19.81
-14.68
-9.04
-3.46
1.66
6.12
9.81
12.67
14.64
15.67
15.79
15.15
13.96
12.51
11.09
9.89
9.05
8.55
8.3
8.15
7.93
7.52
6.88
6.05
5.12
4.17
3.23
2.23
1.08
-0.24
-1.71
-3.19
-4.55
-5.75
-6.87
-8.08
-9.6
-11.56
-13.95
-16.66
-19.54
-22.35
-24.77
-26.38
-26.67
-25.13
-21.49
-15.8
-8.51
-0.39
7.73
15.13
21.38
26.37
30.19
32.95
34.76
35.64
35.65
34.92
33.75
32.43
31.28
30.41
29.82
29.39
28.98
28.54
28.03
27.47
26.78
25.88
24.61
22.84
20.48
17.52
14.04
10.22
6.26
2.41
-1.16
-4.4
-7.34
-10.1
-12.85
-15.72
-18.82
-22.24
-26.03
-30.11
-34.31
-38.21
-41.21
-42.7
-42.23
-39.61
-35.06
-29.04
-22.2
-15.11
-8.25
-1.86
3.89
8.87
12.94
15.92
17.72
18.4
18.18
17.41
16.44
15.53
14.81
14.36
14.22
14.46
15.15
16.25
17.58
18.77
19.44
19.31
18.3
16.58
14.42
12.1
9.74
7.4
5.03
2.6
0.18
-2.12
-4.18
-5.97
-7.52
-8.99
-10.56
-12.42
-14.71
-17.46
-20.6
-23.87
-26.86
-29.02
-29.82
-28.83
-25.9
-21.24
-15.34
-8.82
-2.27
3.85
9.27
13.84
17.46
20.1
21.7
22.33
22.06
21.11
19.76
18.24
16.8
15.6
14.72
14.21
14.06
14.18
14.45
14.65
14.6
14.14
13.17
11.67
9.73
7.41
4.83
2.11
-0.63
-3.28
-5.76
-8.09
-10.36
-12.72
-15.27
-18.08
-21.16
-24.45
-27.8
-30.95
-33.52
-35.0
-34.9
-32.92
-29.05
-23.6
-17.17
-10.4
-3.83
2.15
7.29
11.43
14.43
16.21
16.82
16.47
15.53
14.38
13.34
12.59
12.19
12.09
12.21
12.55
13.04
13.64
14.22
14.6
14.6
14.1
13.07
11.6
9.76
7.64
5.28
2.68
-0.12
-3.03
-5.89
-8.54
-10.92
-13.1
-15.28
-17.76
-20.77
-24.38
-28.43
-32.48
-35.91
-38.04
-38.31
-36.41
-32.4
-26.66
-19.82
-12.51
-5.29
1.43
7.42
12.47
16.47
19.32
21.04
21.71
21.59
20.94
20.04
19.08
18.21
17.52
17.05
16.8
16.72
16.68
16.53
16.16
15.49
14.49
13.19
11.6
9.75
7.66
5.34
2.82
0.11
-2.79
-5.86
-9.02
-12.18
-15.18
-17.91
-20.37
-22.7
-25.14
-27.96
-31.28
-34.93
-38.48
-41.31
-42.77
-42.37
-39.91
-35.56
-29.73
-22.99
-15.96
-9.2
-3.1
2.06
6.18
9.25
11.34
12.57
13.05
12.92
12.36
11.61
10.88
10.39
10.29
10.62
11.28
12.07
12.75
13.12
13.09
12.65
11.89
10.95
9.92
8.85
7.74
6.54
5.16
3.55
1.71
-0.33
-2.48
-4.64
-6.73
-8.77
-10.85
-13.1
-15.68
-18.62
-21.86
-25.15
-28.07
-30.07
-30.57
-29.13
-25.64
-20.34
-13.86
-6.97
-0.36
5.54
10.62
14.98
18.75
21.96
24.49
26.2
27.0
27.01
26.49
25.79
25.23
24.94
24.9
24.96
24.93
24.69
24.23
23.61
22.89
22.05
21.0
19.58
17.71
15.37
12.67
9.78
6.88
4.09
1.44
-1.1
-3.68
-6.42
-9.47
-12.92
-16.79
-21.01
-25.38
-29.59
-33.17
-35.53
-36.1
-34.48
-30.66
-25.02
-18.29
-11.3
-4.73
1.1
6.07
10.23
13.53
15.85
17.06
17.16
16.39
15.21
14.06
13.25
12.81
12.57
12.31
11.9
11.34
10.77
10.31
10.0
9.74
9.36
8.67
7.57
6.04
4.15
1.97
-0.48
-3.15
-6.04
-9.06
-12.08
-14.92
-17.49
-19.77
-21.88
-24.03
-26.44
-29.18
-32.12
-34.91
-37.02
-37.82
-36.8
-33.66
-28.48
-21.68
-14.0
-6.22
0.96
7.12
12.14
16.11
19.16
21.35
22.64
22.98
22.44
21.28
19.93
18.79
18.13
17.97
18.12
18.34
18.45
18.35
18.05
17.54
16.79
15.72
14.26
12.35
9.97
7.17
4.04
0.73
-2.56
-5.66
-8.49
-11.06
-13.52
-16.03
-18.76
-21.81
-25.19
-28.87
-32.71
-36.42
-39.59
-41.65
-42.05
-40.36
-36.53
-30.9
-24.11
-16.94
-10.09
-4.0
1.15
5.38
8.79
11.45
13.36
14.47
14.79
14.42
13.6
12.64
11.83
11.42
11.51
12.07
13.01
14.16
15.33
16.32
16.95
17.06
16.6
15.57
14.08
12.31
10.41
8.51
6.75
5.15
3.74
2.48
1.25
-0.15
-1.96
-4.35
-7.41
-11.03
-14.96
-18.83
-22.17
-24.5
-25.39
-24.49
-21.62
-16.91
-10.74
-3.73
3.43
10.16
16.13
21.15
25.18
28.16
30.02
30.72
30.34
29.14
27.47
25.72
24.18
23.01
22.22
21.71
21.4
21.16
20.9
20.53
19.93
19.02
17.67
15.78
13.29
10.23
6.76
3.1
-0.45
-3.69
-6.54
-9.03
-11.32
-13.59
-15.98
-18.62
-21.58
-24.85
-28.3
-31.74
-34.8
-37.07
-38.09
-37.52
-35.21
-31.27
-26.04
-20.04
-13.83
-7.88
-2.52
2.1
5.91
8.91
11.07
12.43
13.06
13.12
12.82
12.34
11.83
11.33
10.83
10.32
9.76
9.13
8.36
7.39
6.16
4.62
2.67
0.22
-2.85
-6.64
-11.1
-15.95
-20.77
-24.96
-28.06
-29.76
-30.17
-29.65
-28.78
-28.16
-28.26
-29.35
-31.45
-34.38
-37.72
-40.91
-43.26
-44.13
-43.02
-39.77
-34.62
-28.12
-20.99
-13.94
-7.52
-2.08
2.24
5.38
7.35
8.22
8.16
7.41
6.34
5.32
4.72
4.73
5.4
6.57
8.0
9.43
10.7
11.69
12.4
12.84
13.05
13.09
13.01
12.85
12.57
12.09
11.3
10.17
8.72
7.1
5.46
3.93
2.56
1.26
-0.09
-1.63
-3.47
-5.58
-7.81
-9.82
-11.12
-11.2
-9.64
-6.31
-1.41
4.57
11.02
17.34
23.11
28.09
32.17
35.31
37.48
38.67
38.95
38.46
37.45
36.19
34.9
33.7
32.58
31.49
30.33
29.02
27.52
25.84
24.0
22.03
19.95
17.81
15.6
13.31
10.92
8.43
5.81
3.05
0.16
-2.83
-5.88
-8.99
-12.19
-15.59
-19.31
-23.4
-27.71
-31.85
-35.15
-36.9
-36.48
-33.65
-28.59
-21.89
-14.36
-6.8
0.24
6.45
11.74
16.1
19.48
21.82
23.04
23.18
22.47
21.24
19.83
18.55
17.55
16.86
16.37
15.95
15.47
14.9
14.25
13.59
12.95
12.28
11.45
10.23
8.43
5.96
2.83
-0.81
-4.76
-8.76
-12.59
-16.08
-19.17
-21.89
-24.37
-26.81
-29.38
-32.19
-35.16
-38.08
-40.56
-42.07
-42.14
-40.41
-36.81
-31.6
-25.3
-18.59
-12.02
-5.98
-0.63
4.01
7.95
11.19
13.7
15.41
16.39
16.7
16.48
15.94
15.28
14.65
14.18
13.91
13.84
13.91
14.05
14.15
14.13
13.86
13.27
12.31
10.99
9.33
7.36
5.12
2.63
-0.02
-2.72
-5.31
-7.72
-9.97
-12.21
-14.64
-17.4
-20.49
-23.8
-27.16
-30.35
-33.1
-35.02
-35.65
-34.54
-31.42
-26.4
-19.94
-12.73
-5.5
1.22
7.15
12.22
16.43
19.74
22.1
23.43
23.77
23.32
22.36
21.21
20.13
19.27
18.66
18.25
17.98
17.73
17.46
17.15
16.76
16.28
15.61
14.61
13.13
11.1
8.6
5.83
3.04
0.43
-1.95
-4.19
-6.5
-9.06
-11.98
-15.25
-18.77
-22.45
-26.14
-29.61
-32.5
-34.29
-34.47
-32.7
-28.91
-23.43
-16.79
-9.64
-2.5
4.25
10.39
15.77
20.21
23.56
25.69
26.61
26.45
25.53
24.21
22.84
21.66
20.81
20.28
19.97
19.8
19.72
19.68
19.61
19.38
18.83
17.77
16.12
13.9
11.27
8.36
5.3
2.15
-1.04
-4.23
-7.36
-10.37
-13.3
-16.22
-19.26
-22.49
-25.91
-29.4
-32.69
-35.38
-36.96
-36.9
-34.77
-30.51
-24.45
-17.29
-9.85
-2.84
3.38
8.76
13.42
17.42
20.67
22.96
24.11
24.08
23.12
21.67
20.22
19.18
18.72
18.81
19.3
19.93
20.44
20.64
20.43
19.79
18.78
17.48
15.96
14.25
12.33
10.22
7.91
5.48
3.01
0.56
-1.87
-4.37
-7.02
-9.9
-13.01
-16.34
-19.87
-23.6
-27.5
-31.35
-34.78
-37.22
-38.1
-36.99
-33.77
-28.69
-22.29
-15.24
-8.23
-1.76
3.84
8.42
11.99
14.63
16.46
17.6
18.16
18.29
18.15
17.94
17.81
17.83
17.97
18.12
18.13
17.92
17.45
16.75
15.84
14.72
13.33
11.6
9.53
7.14
4.56
1.93
-0.63
-3.05
-5.33
-7.53
-9.69
-11.84
-13.91
-15.85
-17.64
-19.39
-21.31
-23.65
-26.56
-29.99
-33.62
-36.93
-39.26
-40.0
-38.69
-35.13
-29.49
-22.25
-14.1
-5.81
2.0
8.92
14.76
19.45
22.96
25.23
26.24
26.1
25.05
23.49
21.86
20.49
19.54
19.05
18.94
19.08
19.35
19.6
19.68
19.5
19.0
18.13
16.87
15.24
13.22
10.89
8.35
5.75
3.25
0.95
-1.11
-2.98
-4.76
-6.57
-8.49
-10.59
-12.92
-15.5
-18.27
-21.04
-23.46
-25.02
-25.17
-23.53
-20.02
-14.92
-8.85
-2.5
3.56
8.97
13.6
17.4
20.35
22.37
23.43
23.58
23.01
22.02
20.86
19.76
18.79
17.99
17.36
16.95
16.74
16.67
16.61
16.39
15.87
14.94
13.58
11.81
9.68
7.25
4.57
1.67
-1.45
-4.7
-7.99
-11.14
-14.0
-16.48
-18.69
-20.85
-23.29
-26.25
-29.75
-33.56
-37.24
-40.25
-42.06
-42.22
-40.42
-36.54
-30.76
-23.51
-15.48
-7.45
-0.07
6.25
11.34
15.25
18.12
20.04
21.13
21.51
21.36
20.87
20.22
19.55
18.92
18.35
17.87
17.49
17.18
16.87
16.46
15.84
14.94
13.74
12.27
10.58
8.71
6.67
4.43
1.94
-0.81
-3.78
-6.86
-9.89
-12.74
-15.32
-17.69
-19.97
-22.34
-24.96
-27.89
-31.04
-34.11
-36.69
-38.26
-38.36
-36.7
-33.23
-28.19
-22.01
-15.2
-8.25
-1.55
4.62
10.11
14.75
18.41
20.96
22.32
22.51
21.67
20.11
18.19
16.36
14.95
14.18
14.07
14.46
15.09
15.64
15.91
15.83
15.43
14.82
14.02
12.99
11.59
9.72
7.33
4.53
1.51
-1.52
-4.44
-7.21
-9.85
-12.42
-15.0
-17.68
-20.57
-23.76
-27.23
-30.7
-33.69
-35.56
-35.71
-33.81
-29.87
-24.28
-17.62
-10.47
-3.34
3.47
9.68
15.08
19.43
22.56
24.4
25.09
24.86
24.07
23.05
22.03
21.12
20.39
19.81
19.38
19.1
18.89
18.69
18.39
17.9
17.18
16.19
14.93
13.36
11.4
8.99
6.18
3.12
-0.0
-2.96
-5.66
-8.14
-10.56
-13.1
-15.91
-19.05
-22.5
-26.15
-29.85
-33.3
-36.15
-37.96
-38.29
-36.83
-33.45
-28.3
-21.75
-14.37
-6.76
0.48
6.95
12.38
16.67
19.8
21.83
22.83
22.91
22.24
21.03
19.58
18.14
16.91
15.99
15.39
15.03
14.82
14.65
14.4
13.97
13.29
12.3
10.99
9.34
7.36
5.03
2.41
-0.41
-3.26
-5.98
-8.47
-10.71
-12.83
-14.96
-17.22
-19.7
-22.41
-25.34
-28.47
-31.7
-34.76
-37.23
-38.56
-38.24
-35.96
-31.77
-26.02
-19.29
-12.2
-5.27
1.09
6.65
11.29
14.92
17.53
19.14
19.84
19.79
19.21
18.33
17.41
16.62
16.09
15.81
15.68
15.59
15.4
15.03
14.46
13.72
12.87
11.96
10.96
9.82
8.43
6.67
4.53
2.02
-0.71
-3.5
-6.18
-8.65
-10.91
-13.07
-15.25
-17.63
-20.3
-23.35
-26.81
-30.56
-34.3
-37.44
-39.27
-39.07
-36.48
-31.57
-24.9
-17.29
-9.58
-2.37
4.03
9.52
14.09
17.69
20.28
21.82
22.42
22.29
21.74
21.09
20.58
20.33
20.36
20.56
20.81
20.94
20.9
20.65
20.22
19.66
18.99
18.14
16.98
15.38
13.21
10.49
7.37
4.08
0.9
-2.01
-4.63
-7.11
-9.71
-12.65
-16.05
-19.85
-23.8
-27.49
-30.37
-31.88
-31.54
-29.09
-24.65
-18.65
-11.83
-4.93
1.42
6.85
11.27
14.7
17.23
18.87
19.6
19.42
18.46
16.99
15.35
13.85
12.68
11.84
11.23
10.66
10.02
9.31
8.57
7.86
7.17
6.39
5.41
4.07
2.31
0.16
-2.29
-4.93
-7.63
-10.27
-12.76
-15.09
-17.31
-19.55
-22.0
-24.78
-27.9
-31.16
-34.12
-36.23
-36.93
-35.78
-32.64
-27.66
-21.29
-14.19
-7.0
-0.25
5.71
10.74
14.82
18.0
20.28
21.68
22.24
22.08
21.38
20.38
19.32
18.37
17.68
17.27
17.12
17.1
17.0
16.58
15.69
14.26
12.38
10.25
7.97
5.61
3.12
0.44
-2.42
-5.35
-8.21
-10.93
-13.54
-16.16
-18.89
-21.71
-24.5
-27.03
-29.12
-30.57
-31.24
-30.98
-29.64
-27.09
-23.28
-18.36
-12.62
-6.49
-0.42
5.18
9.98
13.79
16.58
18.35
19.16
19.08
18.22
16.78
15.09
13.51
12.35
11.81
11.85
12.35
13.08
13.87
14.57
15.11
15.31
14.98
13.91
12.03
9.45
6.48
3.53
0.88
-1.37
-3.4
-5.49
-7.92
-10.85
-14.2
-17.77
-21.18
-24.03
-25.86
-26.29
-25.04
-22.04
-17.5
-11.84
-5.56
0.85
7.0
12.63
17.51
21.39
24.07
25.48
25.74
25.16
24.16
23.11
22.17
21.33
20.47
19.45
18.3
17.11
16.02
15.07
14.16
13.09
11.65
9.71
7.27
4.49
1.55
-1.34
-4.01
-6.42
-8.63
-10.79
-13.1
-15.76
-18.9
-22.54
-26.51
-30.46
-33.87
-36.17
-36.83
-35.53
-32.24
-27.21
-20.96
-14.1
-7.17
-0.58
5.46
10.83
15.42
19.13
21.8
23.39
23.93
23.62
22.75
21.65
20.61
19.83
19.42
19.37
19.61
19.94
20.15
20.04
19.46
18.38
16.87
15.03
12.96
10.67
8.17
5.46
2.6
-0.3
-3.14
-5.86
-8.5
-11.23
-14.24
-17.72
-21.72
-26.09
-30.42
-34.14
-36.67
-37.54
-36.56
-33.83
-29.66
-24.54
-18.92
-13.21
-7.74
-2.7
1.77
5.61
8.77
11.22
12.92
13.84
14.0
13.5
12.57
11.48
10.42
9.52
8.77
8.11
7.49
6.94
6.52
6.25
6.07
5.8
5.23
4.22
2.77
0.97
-1.01
-3.07
-5.16
-7.24
-9.35
-11.44
-13.54
-15.71
-18.07
-20.73
-23.74
-26.93
-29.92
-32.21
-33.25
-32.63
-30.19
-26.02
-20.47
-14.04
-7.25
-0.6
5.58
11.04
15.67
19.37
22.06
23.68
24.28
24.05
23.3
22.38
21.55
20.89
20.36
19.83
19.29
18.78
18.5
18.61
19.21
20.19
21.32
22.27
22.7
22.35
21.06
18.88
15.97
12.61
9.1
5.65
2.37
-0.74
-3.73
-6.68
-9.6
-12.46
-15.12
-17.27
-18.52
-18.39
-16.54
-12.88
-7.66
-1.46
5.0
11.06
16.27
20.47
23.66
25.93
27.27
27.66
27.07
25.63
23.63
21.48
19.58
18.18
17.25
16.57
15.79
14.63
13.03
11.09
9.05
7.17
5.54
4.09
2.59
0.77
-1.54
-4.37
-7.56
-10.9
-14.13
-17.16
-20.02
-22.91
-26.13
-29.95
-34.49
-39.63
-45.0
-49.98
-53.91
-56.15
-56.23
-53.94
-49.34
-42.76
-34.76
-26.1
-17.54
-9.77
-3.25
1.87
5.64
8.28
10.01
11.0
11.34
11.12
10.47
9.58
8.75
8.17
7.95
8.08
8.44
8.89
9.34
9.75
10.05
10.18
10.0
9.32
8.05
6.21
3.95
1.51
-0.89
-3.12
-5.18
-7.19
-9.27
-11.52
-13.94
-16.49
-19.16
-22.0
-25.1
-28.47
-31.87
-34.76
-36.43
-36.18
-33.61
-28.8
-22.28
-14.81
-7.16
0.1
6.66
12.38
17.16
20.91
23.54
25.02
25.47
25.11
24.25
23.2
22.22
21.47
20.97
20.67
20.47
20.24
19.93
19.51
19.02
18.48
17.89
17.23
16.37
15.26
13.82
12.08
10.12
8.04
5.92
3.79
1.58
-0.86
-3.69
-7.01
-10.86
-15.1
-19.45
-23.49
-26.7
-28.53
-28.55
-26.56
-22.68
-17.28
-11.0
-4.45
1.81
7.4
12.1
15.79
18.46
20.16
21.0
21.16
20.8
20.14
19.31
18.47
17.73
17.18
16.83
16.64
16.5
16.23
15.71
14.85
13.67
12.19
10.49
8.56
6.36
3.86
1.08
-1.89
-4.87
-7.68
-10.2
-12.41
-14.43
-16.44
-18.62
-21.11
-23.94
-27.04
-30.28
-33.46
-36.28
-38.39
-39.38
-38.85
-36.51
-32.3
-26.41
-19.34
-11.72
-4.21
2.64
8.51
13.29
16.97
19.64
21.38
22.27
22.39
21.86
20.84
19.54
18.23
17.12
16.39
16.08
16.08
16.17
16.16
15.88
15.33
14.54
13.57
12.35
10.76
8.68
6.05
2.99
-0.27
-3.47
-6.43
-9.09
-11.52
-13.83
-16.11
-18.48
-21.08
-24.04
-27.47
-31.29
-35.16
-38.48
-40.54
-40.69
-38.6
-34.3
-28.2
-20.93
-13.19
-5.6
1.39
7.45
12.44
16.33
19.14
20.91
21.68
21.54
20.63
19.24
17.69
16.3
15.24
14.52
14.03
13.59
13.07
12.44
11.74
11.04
10.39
9.77
9.11
8.25
7.02
5.25
2.92
0.17
-2.75
-5.5
-7.86
-9.82
-11.52
-13.22
-15.16
-17.51
-20.27
-23.37
-26.61
-29.63
-31.99
-33.14
-32.61
-30.1
-25.64
-19.59
-12.54
-5.16
1.98
8.45
13.98
18.45
21.8
24.02
25.16
25.35
24.78
23.7
22.36
21.05
20.0
19.35
19.12
19.18
19.28
19.2
18.77
17.96
16.79
15.33
13.6
11.59
9.25
6.59
3.7
0.72
-2.2
-5.0
-7.69
-10.35
-13.06
-15.83
-18.66
-21.57
-24.54
-27.57
-30.57
-33.26
-35.21
-35.9
-34.9
-32.08
-27.63
-22.02
-15.82
-9.55
-3.59
1.83
6.56
10.5
13.58
15.77
17.11
17.7
17.69
17.17
16.32
15.28
14.26
13.41
12.83
12.49
12.28
12.06
11.73
11.25
10.67
10.01
9.2
8.15
6.68
4.71
2.23
-0.65
-3.71
-6.72
-9.49
-11.93
-14.1
-16.16
-18.33
-20.84
-23.85
-27.32
-30.97
-34.29
-36.59
-37.24
-35.81
-32.22
-26.78
-20.07
-12.78
-5.57
1.09
6.91
11.81
15.78
18.86
21.09
22.44
22.93
22.64
21.79
20.7
19.73
19.13
18.93
19.01
19.15
19.13
18.81
18.16
17.12
15.67
13.7
11.22
8.3
5.09
1.81
-1.44
-4.61
-7.73
-10.83
-13.87
-16.77
-19.43
-21.82
-23.98
-26.09
-28.32
-30.79
-33.49
-36.2
-38.55
-39.96
-39.89
-37.89
-33.81
-27.88
-20.68
-12.95
-5.38
1.49
7.42
12.32
16.19
19.05
20.9
21.79
21.84
21.27
20.36
19.38
18.5
17.81
17.33
17.1
17.12
17.35
17.74
18.12
18.34
18.23
17.65
16.51
14.76
12.39
9.52
6.34
3.12
0.08
-2.66
-5.15
-7.6
-10.28
-13.38
-16.9
-20.65
-24.34
-27.53
-29.77
-30.59
-29.58
-26.53
-21.56
-15.13
-7.97
-0.83
5.71
11.39
16.14
19.98
22.86
24.67
25.3
24.77
23.34
21.45
19.59
18.16
17.32
17.04
17.09
17.2
17.15
16.81
16.19
15.3
14.15
12.67
10.7
8.14
4.99
1.43
-2.15
-5.36
-7.97
-9.96
-11.61
-13.38
-15.69
-18.83
-22.78
-27.27
-31.81
-35.81
-38.68
-39.9
-39.09
-36.13
-31.14
-24.54
-16.97
-9.14
-1.69
4.94
10.55
15.14
18.75
21.42
23.12
23.8
23.57
22.66
21.46
20.4
19.75
19.58
19.73
19.93
19.96
19.73
19.31
18.8
18.23
17.51
16.47
14.93
12.8
10.12
7.05
3.77
0.48
-2.71
-5.74
-8.63
-11.45
-14.39
-17.66
-21.46
-25.83
-30.55
-35.07
-38.64
-40.51
-40.12
-37.3
-32.29
-25.66
-18.13
-10.39
-3.02
3.59
9.21
13.73
17.07
19.21
20.15
20.02
19.03
17.51
15.9
14.6
13.88
13.8
14.24
14.89
15.47
15.77
15.7
15.24
14.38
13.1
11.3
8.95
6.11
2.98
-0.12
-2.92
-5.25
-7.17
-8.88
-10.67
-12.79
-15.38
-18.46
-21.93
-25.51
-28.79
-31.24
-32.3
-31.53
-28.74
-24.05
-17.91
-10.93
-3.75
3.12
9.36
14.81
19.36
22.91
25.33
26.49
26.39
25.25
23.53
21.78
20.46
19.78
19.66
19.8
19.85
19.57
18.93
18.0
16.9
15.68
14.28
12.59
10.52
8.09
5.39
2.6
-0.2
-2.98
-5.81
-8.81
-12.13
-15.79
-19.75
-23.78
-27.55
-30.59
-32.4
-32.51
-30.68
-26.91
-21.54
-15.09
-8.16
-1.26
5.22
10.98
15.79
19.45
21.86
23.06
23.23
22.65
21.62
20.4
19.14
18.0
17.07
16.4
15.97
15.66
15.3
14.76
13.94
12.82
11.43
9.75
7.7
5.28
2.53
-0.41
-3.33
-6.06
-8.52
-10.72
-12.81
-14.97
-17.39
-20.23
-23.58
-27.33
-31.16
-34.47
-36.5
-36.54
-34.16
-29.39
-22.72
-14.96
-7.02
0.35
6.67
11.71
15.46
17.97
19.34
19.69
19.22
18.23
17.07
16.04
15.36
15.06
15.02
15.04
14.93
14.6
14.02
13.26
12.36
11.29
9.95
8.25
6.11
3.59
0.84
-1.92
-4.54
-6.91
-9.07
-11.12
-13.2
-15.46
-18.03
-21.02
-24.4
-28.0
-31.42
-34.1
-35.4
-34.77
-32.0
-27.25
-21.04
-14.11
-7.14
-0.67
5.05
9.97
14.06
17.27
19.52
20.79
21.14
20.83
20.17
19.49
18.97
18.66
18.51
18.4
18.22
17.94
17.52
16.96
16.31
15.63
14.9
14.05
12.91
11.25
8.98
6.16
3.05
-0.05
-2.9
-5.52
-8.06
-10.8
-13.93
-17.48
-21.25
-24.88
-27.9
-29.76
-30.0
-28.3
-24.61
-19.2
-12.61
-5.57
1.3
7.49
12.72
16.86
19.87
21.7
22.37
22.03
20.95
19.55
18.23
17.26
16.7
16.41
16.16
15.74
15.08
14.22
13.28
12.33
11.4
10.4
9.19
7.65
5.74
3.51
1.09
-1.39
-3.84
-6.28
-8.84
-11.67
-14.88
-18.51
-22.44
-26.48
-30.31
-33.52
-35.72
-36.48
-35.53
-32.74
-28.24
-22.36
-15.61
-8.51
-1.59
4.73
10.19
14.64
18.07
20.5
22.03
22.73
22.68
22.02
21.01
19.92
19.07
18.59
18.45
18.44
18.28
17.72
16.71
15.35
13.78
12.16
10.51
8.74
6.73
4.38
1.74
-1.11
-3.99
-6.77
-9.38
-11.85
-14.31
-16.94
-19.89
-23.23
-26.84
-30.39
-33.36
-35.08
-34.95
-32.66
-28.22
-22.06
-14.83
-7.3
-0.11
6.33
11.77
16.17
19.48
21.71
22.82
22.88
22.03
20.56
18.86
17.32
16.23
15.7
15.66
15.88
16.11
16.14
15.87
15.25
14.28
12.98
11.33
9.35
7.05
4.5
1.81
-0.93
-3.6
-6.13
-8.51
-10.78
-13.04
-15.4
-18.02
-21.01
-24.41
-28.11
-31.74
-34.72
-36.34
-35.94
-33.13
-27.99
-21.06
-13.2
-5.32
1.88
8.06
13.18
17.38
20.71
23.15
24.57
24.89
24.17
22.71
20.84
18.91
17.11
15.49
14.04
12.76
11.7
10.95
10.55
10.44
10.38
10.11
9.3
7.78
5.54
2.73
-0.41
-3.63
-6.76
-9.81
-12.89
-16.14
-19.67
-23.51
-27.52
-31.42
-34.79
-37.12
-37.88
-36.66
-33.27
-27.84
-20.86
-13.11
-5.43
1.46
7.17
11.67
15.12
17.73
19.57
20.56
20.62
19.75
18.21
16.45
14.94
14.02
13.74
13.88
14.14
14.23
14.02
13.51
12.78
11.87
10.76
9.35
7.56
5.36
2.82
0.09
-2.69
-5.42
-8.08
-10.73
-13.51
-16.56
-19.98
-23.76
-27.73
-31.49
-34.46
-36.04
-35.73
-33.38
-29.15
-23.48
-16.93
-10.03
-3.14
3.48
9.63
15.09
19.63
23.03
25.14
25.97
25.65
24.48
22.84
21.17
19.84
19.09
18.98
19.32
19.78
20.0
19.7
18.81
17.43
15.76
13.99
12.21
10.36
8.3
5.92
3.22
0.28
-2.69
-5.56
-8.26
-10.84
-13.41
-16.06
-18.9
-21.94
-25.2
-28.58
-31.86
-34.58
-36.22
-36.27
-34.42
-30.7
-25.49
-19.39
-13.03
-6.91
-1.33
3.6
7.82
11.28
13.85
15.4
15.87
15.38
14.25
12.91
11.8
11.19
11.11
11.4
11.81
12.14
12.34
12.47
12.61
12.77
12.86
12.69
12.02
10.68
8.66
6.1
3.24
0.33
-2.46
-5.08
-7.56
-9.99
-12.46
-15.0
-17.63
-20.33
-23.06
-25.69
-27.97
-29.56
-30.04
-29.02
-26.32
-22.0
-16.34
-9.83
-3.0
3.67
9.8
15.12
19.45
22.68
24.78
