-16.87
-19.15
-21.77
-24.88
-28.33
-31.7
-34.26
-35.26
-34.13
-30.71
-25.3
-18.56
-11.27
-4.1
2.5
8.29
13.17
17.0
19.67
21.08
21.27
20.49
19.15
17.72
16.59
15.98
15.84
16.01
16.23
16.3
16.1
15.62
14.91
14.06
13.15
12.2
11.17
9.96
8.46
6.6
4.35
1.81
-0.86
-3.48
-5.89
-8.0
-9.88
-11.72
-13.74
-16.15
-19.07
-22.43
-26.06
-29.66
-32.86
-35.21
-36.23
-35.45
-32.62
-27.78
-21.32
-13.96
-6.5
0.37
6.26
11.03
14.76
17.55
19.51
20.71
21.26
21.32
21.08
20.73
20.41
20.19
20.08
20.05
20.04
19.97
19.8
19.53
19.13
18.62
17.99
17.22
16.26
15.05
13.58
11.89
10.04
8.14
6.3
4.51
2.73
0.78
-1.57
-4.5
-8.09
-12.26
-16.7
-20.98
-24.54
-26.86
-27.55
-26.37
-23.31
-18.62
-12.74
-6.26
0.23
6.14
11.08
14.86
17.47
19.02
19.71
19.68
19.06
17.98
16.6
15.18
13.99
13.24
13.01
13.26
13.78
14.34
14.73
14.74
14.27
13.22
11.59
9.41
6.82
3.96
1.01
-1.88
-4.58
-6.99
-9.03
-10.74
-12.23
-13.76
-15.58
-17.88
-20.7
-23.93
-27.37
-30.81
-33.98
-36.53
-38.0
-37.85
-35.65
-31.23
-24.93
-17.42
-9.59
-2.26
4.07
9.21
13.18
16.07
17.9
18.68
18.51
17.58
16.25
14.93
13.95
13.47
13.44
13.69
14.03
14.33
14.52
14.58
14.52
14.32
13.92
13.28
12.34
11.1
9.51
7.56
5.21
2.46
-0.59
-3.78
-6.91
-9.84
-12.51
-15.02
-17.53
-20.27
-23.43
-27.08
-31.09
-35.14
-38.67
-41.03
-41.59
-39.96
-36.09
-30.34
-23.37
-15.98
-8.85
-2.47
2.99
7.56
11.38
14.54
17.06
18.89
19.95
20.32
20.12
19.61
19.07
18.69
18.61
18.84
19.32
19.94
20.55
20.97
21.06
20.7
19.88
18.63
17.02
15.1
12.9
10.45
7.79
5.06
2.38
-0.13
-2.46
-4.69
-6.96
-9.41
-12.11
-15.04
-18.17
-21.41
-24.63
-27.52
-29.61
-30.34
-29.19
-25.97
-20.87
-14.41
-7.3
-0.21
6.38
12.16
16.95
20.63
23.1
24.39
24.6
23.99
22.88
21.58
20.36
19.37
18.67
18.25
18.0
17.79
17.5
17.03
16.35
15.45
14.32
12.97
11.39
9.58
7.53
5.28
2.86
0.34
-2.25
-4.85
-7.45
-10.09
-12.88
-15.97
-19.49
-23.49
-27.86
-32.33
-36.4
-39.53
-41.15
-40.84
-38.44
-34.03
-27.99
-20.87
-13.27
-5.79
1.06
6.92
11.57
15.0
17.26
18.53
18.99
18.81
18.12
17.03
15.71
14.37
13.21
12.39
11.91
11.69
11.56
11.37
11.03
10.54
9.92
9.16
8.22
6.99
5.39
3.41
1.07
-1.48
-4.08
-6.62
-9.01
-11.26
-13.48
-15.84
-18.5
-21.58
-25.09
-28.88
-32.67
-36.04
-38.52
-39.61
-38.9
-36.18
-31.52
-25.28
-18.09
-10.69
-3.76
2.25
7.18
11.14
14.32
16.84
18.7
19.77
19.97
19.4
18.32
17.12
16.14
15.59
15.51
15.78
16.26
16.81
17.34
17.76
17.97
17.83
17.21
16.02
14.3
12.24
10.18
8.51
7.51
7.22
7.38
7.57
7.35
6.45
4.86
2.8
0.54
-1.73
-3.9
-5.93
-7.63
-8.6
-8.32
-6.25
-2.03
4.31
12.4
21.64
31.38
41.09
50.39
58.99
66.63
72.93
77.49
79.93
80.05
77.93
73.94
68.65
62.65
56.4
50.13
43.77
37.12
30.01
22.42
14.59
6.86
-0.49
-7.36
-13.85
-20.22
-26.65
-33.2
-39.72
-45.96
-51.6
-56.43
-60.42
-63.72
-66.62
-69.53
-72.8
-76.64
-81.05
-85.8
-90.44
-94.41
-97.15
-98.22
-97.35
-94.52
-89.75
-83.02
-74.04
-62.37
-47.62
-29.75
-9.29
12.82
35.77
59.18
83.18
108.03
133.53
158.68
181.75
200.66
213.42
218.39
214.45
201.12
178.96
149.85
117.08
84.84
57.21
37.16
25.76
22.07
23.63
27.18
29.55
28.28
22.15
11.45
-2.23
-16.53
-29.12
-38.42
-43.85
-45.86
-45.61
-44.77
-45.14
-48.41
-55.5
-65.97
-77.91
-88.38
-94.42
-94.35
-88.56
-79.64
-71.32
-66.98
-68.12
-73.74
-80.71
-85.28
-84.68
-78.48
-68.77
-59.32
-53.91
-54.65
-61.17
-70.92
-80.39
-86.71
-88.58
-86.2
-80.42
-71.78
-60.25
-45.91
-29.98
-15.49
-6.71
-7.41
-18.94
-39.16
-63.05
-84.75
-99.9
-107.08
-107.63
-104.22
-99.13
-93.18
-85.84
-76.11
-63.59
-48.93
-33.74
-19.86
-8.68
-0.56
5.08
9.38
13.48
18.06
23.18
28.51
33.66
38.49
43.18
48.05
53.23
58.47
63.14
66.46
67.89
67.32
65.17
62.12
58.8
55.59
52.43
49.04
45.05
40.21
34.47
28.01
21.19
14.49
8.49
3.8
0.95
0.22
1.63
4.83
9.2
14.07
18.81
23.01
26.47
29.09
30.89
31.9
32.22
31.99
31.38
30.55
29.59
28.51
27.26
25.79
24.13
22.42
20.84
19.6
18.78
18.35
18.03
17.45
16.22
14.07
11.01
7.3
3.41
-0.2
-3.25
-5.81
-8.25
-11.01
-14.51
-18.81
-23.65
-28.41
-32.29
-34.56
-34.71
-32.61
-28.52
-23.0
-16.74
-10.35
-4.26
1.31
6.3
10.66
14.27
16.98
18.7
19.46
19.49
19.08
18.55
18.08
17.74
17.47
17.22
16.97
16.74
16.59
16.49
16.37
16.11
15.51
14.43
12.78
10.57
7.95
5.07
2.14
-0.73
-3.48
-6.12
-8.72
-11.37
-14.24
-17.49
-21.21
-25.33
-29.48
-33.03
-35.2
-35.33
-33.13
-28.75
-22.73
-15.8
-8.64
-1.75
4.59
10.23
15.07
18.95
21.76
23.46
24.12
23.99
23.4
22.69
22.13
21.86
21.87
22.02
22.16
22.15
21.93
21.53
20.95
20.19
19.24
18.0
16.41
14.42
12.03
9.34
6.49
3.59
0.74
-2.07
-4.89
-7.79
-10.86
-14.11
-17.56
-21.19
-24.92
-28.58
-31.85
-34.19
-35.0
-33.71
-30.09
-24.33
-17.08
-9.24
-1.61
5.24
11.12
15.98
19.88
22.77
24.57
25.27
25.04
24.21
23.18
22.25
21.51
20.93
20.42
19.94
19.56
19.3
19.13
18.92
18.46
17.52
16.03
13.98
11.44
8.55
5.44
2.25
-0.83
-3.62
-5.97
-7.81
-9.24
-10.5
-11.92
-13.81
-16.36
-19.55
-23.15
-26.72
-29.69
-31.49
-31.64
-29.9
-26.34
-21.27
-15.23
-8.77
-2.34
3.72
9.21
13.93
17.69
20.31
21.75
22.12
21.73
20.97
20.15
19.41
18.75
18.03
17.16
16.18
15.17
14.27
13.54
12.93
12.3
11.52
10.49
9.2
7.66
5.92
3.96
1.77
-0.62
-3.11
-5.57
-7.88
-10.0
-12.05
-14.18
-16.62
-19.48
-22.75
-26.24
-29.58
-32.23
-33.64
-33.32
-31.07
-26.99
-21.5
-15.2
-8.69
-2.42
3.34
8.45
12.8
16.26
18.69
20.01
20.25
19.59
18.32
16.8
15.36
14.22
13.45
12.97
12.65
12.34
11.96
11.54
11.17
10.87
10.59
10.15
9.35
7.99
6.07
3.67
1.05
-1.51
-3.85
-5.86
-7.65
-9.4
-11.35
-13.73
-16.68
-20.17
-23.98
-27.67
-30.7
-32.48
-32.52
-30.58
-26.68
-21.18
-14.65
-7.8
-1.31
4.38
9.0
12.56
15.19
17.01
18.08
18.38
17.9
16.7
15.05
13.29
11.8
10.83
10.44
10.48
10.72
10.98
11.12
11.15
11.08
10.87
10.44
9.6
8.23
6.31
3.97
1.44
-1.02
-3.26
-5.27
-7.17
-9.15
-11.33
-13.74
-16.38
-19.22
-22.26
-25.43
-28.55
-31.21
-32.81
-32.75
-30.57
-26.3
-20.37
-13.56
-6.75
-0.6
4.52
8.53
11.5
13.56
14.78
15.22
14.97
14.19
13.09
11.89
10.76
9.76
8.9
8.18
7.63
7.3
7.25
7.45
7.8
8.09
8.08
7.57
6.41
4.62
2.33
-0.18
-2.66
-4.86
-6.67
-8.15
-9.46
-10.84
-12.49
-14.59
-17.19
-20.26
-23.64
-27.05
-30.07
-32.21
-32.98
-31.99
-29.11
-24.46
-18.47
-11.7
-4.83
1.55
6.98
11.22
14.21
16.04
16.87
16.9
16.34
15.41
14.31
13.28
12.54
12.25
12.49
13.23
14.27
15.33
16.13
16.45
16.19
15.34
13.97
12.16
9.99
7.49
4.73
1.83
-1.05
-3.76
-6.22
-8.49
-10.75
-13.24
-16.15
-19.54
-23.25
-26.93
-30.06
-32.05
-32.39
-30.8
-27.31
-22.25
-16.22
-9.86
-3.8
1.57
6.04
9.55
12.11
13.77
14.59
14.65
14.09
13.13
12.01
10.96
10.17
9.74
9.64
9.81
10.11
10.49
10.85
11.15
11.31
11.19
10.59
9.36
7.46
5.02
2.3
-0.41
-2.88
-5.03
-6.93
-8.74
-10.61
-12.66
-14.98
-17.65
-20.75
-24.26
-27.95
-31.34
-33.75
-34.51
-33.14
-29.58
-24.23
-17.76
-10.93
-4.41
1.42
6.39
10.5
13.79
16.26
17.85
18.5
18.21
17.16
15.64
14.06
12.76
11.95
11.65
11.76
12.12
12.61
13.11
13.51
13.64
13.35
12.52
11.19
9.46
7.49
5.34
3.0
0.42
-2.41
-5.38
-8.29
-10.94
-13.2
-15.12
-16.9
-18.81
-21.09
-23.88
-27.1
-30.47
-33.48
-35.5
-35.94
-34.37
-30.73
-25.34
-18.83
-11.97
-5.43
0.37
5.32
9.48
12.97
15.8
17.9
19.13
19.47
19.03
18.08
16.99
16.08
15.54
15.41
15.63
16.01
16.34
16.44
16.15
15.38
14.1
12.37
10.28
7.97
5.58
3.21
0.95
-1.15
-3.06
-4.82
-6.46
-8.09
-9.77
-11.59
-13.6
-15.82
-18.34
-21.22
-24.53
-28.17
-31.86
-35.03
-37.0
-37.13
-35.09
-30.94
-25.14
-18.33
-11.19
-4.27
2.03
7.46
11.84
15.06
17.1
18.06
18.15
17.66
16.88
16.05
15.37
14.99
15.01
15.46
16.26
17.23
18.1
18.62
18.66
18.25
17.52
16.67
15.79
14.85
13.73
12.28
10.39
8.05
5.33
2.36
-0.67
-3.62
-6.39
-9.03
-11.69
-14.6
-18.01
-22.05
-26.62
-31.39
-35.75
-39.03
-40.56
-39.89
-36.89
-31.76
-25.06
-17.51
-9.86
-2.74
3.47
8.57
12.54
15.36
17.09
17.82
17.72
17.09
16.31
15.71
15.5
15.71
16.25
16.9
17.48
17.82
17.8
17.38
16.63
15.63
14.52
13.3
11.91
10.24
8.2
5.84
3.31
0.88
-1.31
-3.28
-5.21
-7.32
-9.76
-12.56
-15.66
-18.99
-22.53
-26.24
-29.96
-33.33
-35.82
-36.77
-35.7
-32.44
-27.2
-20.58
-13.3
-6.09
0.54
6.26
10.93
14.5
16.97
18.37
18.78
18.37
17.41
16.22
15.09
14.28
13.99
14.28
15.08
16.17
17.2
17.81
17.79
17.14
16.05
14.85
13.76
12.81
11.86
10.67
9.06
7.02
4.67
2.19
-0.28
-2.69
-5.08
-7.58
-10.29
-13.35
-16.84
-20.79
-25.11
-29.57
-33.67
-36.77
-38.16
-37.31
-34.05
-28.65
-21.72
-14.07
-6.46
0.51
6.47
11.24
14.74
17.02
18.22
18.55
18.29
17.71
17.06
16.49
16.14
16.06
16.25
16.67
17.19
17.69
18.08
18.32
18.39
18.25
17.81
16.92
15.45
13.38
10.82
8.0
5.1
2.28
-0.44
-3.1
-5.76
-8.46
-11.27
-14.24
-17.48
-21.03
-24.74
-28.26
-31.03
-32.4
-31.86
-29.22
-24.62
-18.53
-11.6
-4.51
2.15
7.95
12.66
16.17
18.55
19.86
20.24
19.87
18.97
17.89
16.97
16.49
16.59
17.18
18.02
18.82
19.35
19.54
19.39
18.97
18.27
17.23
15.78
13.84
11.45
8.73
5.84
2.88
-0.02
-2.83
-5.55
-8.25
-11.05
-14.12
-17.63
-21.65
-26.03
-30.39
-34.14
-36.6
-37.22
-35.72
-32.15
-26.88
-20.48
-13.55
-6.64
-0.16
5.64
10.59
14.54
17.4
19.13
19.8
19.64
18.95
18.09
17.37
16.99
17.03
17.45
18.1
18.8
19.36
19.6
19.43
18.82
17.83
16.56
15.08
13.35
11.3
8.84
5.95
2.77
-0.45
-3.45
-6.06
-8.35
-10.55
-13.0
-15.98
-19.57
-23.7
-28.06
-32.26
-35.76
-38.01
-38.48
-36.83
-32.99
-27.27
-20.31
-12.86
-5.64
0.84
6.34
10.81
14.28
16.79
18.44
19.37
19.77
19.89
19.92
19.99
20.08
20.14
20.1
19.94
19.72
19.47
19.22
18.87
18.3
17.35
15.93
14.0
11.62
8.9
5.99
3.02
0.15
-2.51
-4.91
-7.07
-9.15
-11.34
-13.87
-16.9
-20.48
-24.51
-28.71
-32.7
-35.93
-37.82
-37.83
-35.59
-31.07
-24.61
-16.89
-8.76
-1.02
5.73
11.21
15.44
18.56
20.73
22.02
22.49
22.25
21.54
20.7
20.13
20.11
20.68
21.67
22.76
23.58
23.89
23.61
22.78
21.52
19.95
18.14
16.11
13.87
11.42
8.78
6.05
3.3
0.62
-1.97
-4.49
-7.03
-9.66
-12.48
-15.55
-18.96
-22.76
-26.88
-31.04
-34.75
-37.34
-38.14
-36.71
-33.01
-27.37
-20.41
-12.89
-5.46
1.44
7.55
12.73
16.86
19.84
21.6
22.18
21.82
20.94
20.05
19.54
19.62
20.19
20.96
21.61
21.92
21.88
21.6
21.25
20.87
20.42
19.74
18.64
16.97
14.72
11.96
8.87
5.68
2.61
-0.17
-2.64
-4.87
-7.04
-9.38
-12.14
-15.46
-19.38
-23.69
-27.96
-31.52
-33.62
-33.6
-31.17
-26.46
-20.03
-12.68
-5.28
1.5
7.27
11.92
15.53
18.24
20.15
21.31
21.78
21.64
21.05
20.26
19.51
19.04
18.96
19.28
19.87
20.52
20.98
21.02
20.47
19.3
17.59
15.55
13.43
11.39
9.54
7.83
6.19
4.49
2.61
0.5
-1.86
-4.47
-7.25
-10.13
-13.02
-15.89
-18.83
-22.02
-25.68
-29.91
-34.55
-39.05
-42.57
-44.23
-43.36
-39.75
-33.73
-26.03
-17.53
-9.0
-1.0
6.18
12.32
17.3
20.96
23.23
24.18
24.09
23.38
22.55
21.95
21.78
22.0
22.42
22.84
23.12
23.25
23.23
23.07
22.68
21.92
20.7
18.98
16.87
14.53
12.07
9.51
6.79
3.81
0.63
-2.58
-5.52
-7.99
-9.93
-11.5
-13.02
-14.82
-17.19
-20.23
-23.9
-28.04
-32.33
-36.27
-39.25
-40.66
-39.98
-37.02
-31.91
-25.14
-17.44
-9.55
-2.14
4.35
9.66
13.79
16.81
18.86
20.06
20.53
20.46
20.07
19.63
19.39
19.49
19.92
20.61
21.39
22.11
22.64
22.87
22.71
22.09
20.98
19.4
17.44
15.18
12.71
10.06
7.29
4.49
1.73
-0.88
-3.31
-5.54
-7.62
-9.57
-11.44
-13.28
-15.24
-17.58
-20.58
-24.44
-29.06
-33.96
-38.3
-41.1
-41.5
-39.09
-34.02
-26.96
-18.84
-10.65
-3.09
3.42
8.74
12.92
16.0
18.06
19.18
19.53
19.37
18.99
18.66
18.51
18.57
18.79
19.13
19.54
19.97
20.36
20.57
20.47
19.92
18.89
17.41
15.6
13.58
11.44
9.28
7.1
4.87
2.54
0.09
-2.52
-5.25
-7.99
-10.66
-13.18
-15.58
-18.0
-20.68
-23.8
-27.42
-31.34
-35.04
-37.82
-38.97
-37.92
-34.46
-28.81
-21.61
-13.71
-6.0
0.82
6.4
10.68
13.8
15.91
17.14
17.58
17.38
16.81
16.24
16.0
16.25
16.91
17.75
18.52
19.05
19.37
19.54
19.66
19.68
19.5
18.93
17.86
16.25
14.17
11.73
9.05
6.21
3.28
0.32
-2.61
-5.46
-8.16
-10.66
-12.94
-15.03
-17.04
-19.18
-21.7
-24.82
-28.53
-32.58
-36.4
-39.23
-40.36
-39.27
-35.86
-30.46
-23.67
-16.24
-8.86
-2.07
3.8
8.56
12.19
14.74
16.34
17.17
17.42
17.32
17.05
16.79
16.69
16.84
17.28
17.98
18.85
19.8
20.68
21.33
21.58
21.24
20.19
18.4
16.0
13.18
10.21
7.24
4.32
1.43
-1.48
-4.4
-7.26
-9.95
-12.4
-14.57
-16.53
-18.42
-20.44
-22.77
-25.56
-28.83
-32.36
-35.76
-38.39
-39.6
-38.84
-35.91
-30.96
-24.56
-17.42
-10.31
-3.78
1.87
6.56
10.36
13.36
15.57
16.99
17.65
17.65
17.19
16.56
16.0
15.68
15.64
15.8
16.05
16.25
16.35
16.32
16.15
15.78
15.14
14.15
12.75
10.97
8.95
6.8
4.64
2.49
0.33
-1.85
-4.03
-6.15
-8.17
-10.11
-12.14
-14.52
-17.49
-21.19
-25.46
-29.88
-33.75
-36.28
-36.75
-34.77
-30.43
-24.24
-17.08
-9.86
-3.3
2.2
6.54
9.83
12.21
13.75
14.5
14.56
14.11
13.44
12.87
12.6
12.67
13.0
13.43
13.85
14.2
14.5
14.76
14.93
14.96
14.72
14.13
13.1
11.6
9.66
7.34
4.78
2.1
-0.57
-3.13
-5.56
-7.91
-10.28
-12.81
-15.7
-19.06
-22.94
-27.19
-31.47
-35.21
-37.75
-38.49
-37.04
-33.39
-27.9
-21.22
-14.14
-7.33
-1.23
4.0
8.32
11.76
14.25
15.72
16.11
15.6
14.51
13.29
12.36
11.91
11.94
12.29
12.83
13.46
14.15
14.85
15.42
15.68
15.45
14.66
13.34
11.64
9.7
7.65
5.54
3.4
1.18
-1.16
-3.67
-6.41
-9.35
-12.47
-15.74
-19.19
-22.85
-26.74
-30.64
-34.11
-36.54
-37.3
-35.96
-32.47
-27.16
-20.62
-13.55
-6.53
-0.02
5.66
10.32
13.84
16.19
17.46
17.85
17.64
17.12
16.55
16.08
15.73
15.46
15.23
15.04
14.92
14.9
14.99
15.08
15.02
14.62
13.72
12.29
10.41
8.24
5.94
3.62
1.34
-0.89
-3.07
-5.19
-7.25
-9.35
-11.61
-14.21
-17.31
-20.89
-24.79
-28.57
-31.67
-33.49
-33.5
-31.44
-27.41
-21.88
-15.53
-9.1
-3.12
2.09
6.48
10.09
12.91
14.85
15.81
15.82
15.12
14.15
13.38
13.13
13.46
14.16
14.88
15.32
15.39
15.16
14.8
14.41
13.96
13.33
12.35
10.99
9.29
7.4
5.42
3.41
1.3
-0.98
-3.46
-6.12
-8.88
-11.67
-14.54
-17.56
-20.85
-24.38
-27.87
-30.75
-32.32
-31.91
-29.18
-24.26
-17.72
-10.44
-3.22
3.37
9.04
13.68
17.2
19.44
20.28
19.8
18.35
16.49
14.82
13.71
13.29
13.38
13.7
14.01
14.17
14.16
14.03
13.81
13.5
13.07
12.43
11.45
10.03
8.12
5.78
3.12
0.34
-2.42
-5.08
-7.64
-10.15
-12.72
-15.44
-18.47
-21.89
-25.72
-29.77
-33.52
-36.28
-37.29
-36.02
-32.34
-26.64
-19.66
-12.24
-5.12
1.22
6.54
10.76
13.87
15.92
17.01
17.32
17.12
16.69
16.28
16.08
16.15
16.46
16.87
17.19
17.28
17.05
16.53
15.81
14.99
14.09
13.0
11.54
9.6
7.19
4.5
1.81
-0.67
-2.88
-5.0
-7.32
-10.11
-13.49
-17.45
-21.8
-26.32
-30.68
-34.41
-36.94
-37.64
-36.08
-32.19
-26.38
-19.4
-12.08
-5.12
1.12
6.47
10.91
14.39
16.8
18.07
18.27
17.61
16.45
15.16
14.05
13.31
13.02
13.13
13.52
13.97
14.31
14.39
14.2
13.74
13.04
12.03
10.56
8.46
5.68
2.32
-1.33
-4.92
-8.14
-10.89
-13.33
-15.8
-18.62
-22.01
-25.89
-29.89
-33.37
-35.65
-36.18
-34.65
-31.1
-25.88
-19.53
-12.66
-5.79
0.65
6.38
11.22
15.04
17.75
19.36
19.93
19.65
18.77
17.6
16.45
15.56
15.07
15.01
15.3
15.74
16.09
16.19
15.91
15.26
14.33
13.22
11.96
10.52
8.8
6.71
4.25
1.5
-1.36
-4.21
-6.96
-9.69
-12.56
-15.78
-19.5
-23.61
-27.82
-31.53
-34.08
-34.83
-33.43
-29.88
-24.59
-18.21
-11.47
-4.93
1.06
6.38
10.98
14.75
17.54
19.18
19.62
19.1
18.02
16.9
16.19
16.07
16.46
17.1
17.73
18.15
18.38
18.44
18.41
18.24
17.8
16.93
15.53
13.6
11.23
8.58
5.8
3.0
0.25
-2.39
-4.95
-7.52
-10.26
-13.38
-17.04
-21.25
-25.73
-29.95
-33.26
-35.01
-34.73
-32.3
-27.91
-22.05
-15.34
-8.46
-1.95
3.78
8.58
12.4
15.27
17.19
18.13
18.15
17.44
16.34
15.31
14.75
14.84
15.45
16.25
16.87
17.07
16.84
16.33
15.74
15.15
14.44
13.41
11.83
9.6
6.82
3.74
0.67
-2.14
-4.6
-6.76
-8.77
-10.81
-13.02
-15.5
-18.37
-21.68
-25.34
-29.02
-32.17
-34.09
-34.13
-31.99
-27.74
-21.87
-15.08
-8.1
-1.51
4.3
9.11
12.84
15.46
17.03
17.71
17.73
17.38
16.99
16.85
17.13
17.85
18.86
19.88
20.67
21.04
20.95
20.49
19.82
19.02
18.07
16.8
15.03
12.69
9.86
6.79
3.76
0.98
-1.48
-3.73
-6.01
-8.6
-11.74
-15.5
-19.73
-24.03
-27.76
-30.21
-30.82
-29.32
-25.86
-20.94
-15.2
-9.2
-3.32
2.23
7.33
11.82
15.43
17.89
19.02
18.88
17.81
16.3
14.89
13.93
13.55
13.67
14.09
14.66
15.25
15.76
16.05
15.97
15.4
14.28
12.7
10.82
8.83
6.82
4.82
2.79
0.69
-1.49
-3.79
-6.23
-8.91
-11.95
-15.44
-19.39
-23.7
-28.07
-31.98
-34.82
-35.94
-34.9
-31.62
-26.41
-19.94
-12.98
-6.16
0.12
5.7
10.49
14.36
17.12
18.63
18.88
18.12
16.81
15.45
14.44
13.93
13.86
14.01
14.16
14.15
13.96
13.63
13.22
12.78
12.22
11.41
10.17
8.35
5.91
2.96
-0.26
-3.48
-6.44
-9.04
-11.34
-13.47
-15.65
-18.04
-20.79
-23.91
-27.32
-30.69
-33.5
-35.06
-34.72
-32.09
-27.24
-20.7
-13.33
-6.0
0.6
6.18
10.69
14.22
16.82
18.46
19.07
18.71
17.58
16.05
14.58
13.52
13.02
13.03
13.37
13.84
14.29
14.69
15.01
15.16
14.96
14.19
12.64
10.25
7.18
3.77
0.42
-2.57
-5.12
-7.32
-9.42
-11.69
-14.32
-17.4
-20.83
-24.4
-27.72
-30.28
-31.51
-30.92
-28.24
-23.58
-17.42
-10.5
-3.6
2.64
7.88
12.01
15.03
17.02
17.99
18.02
17.26
16.0
14.67
13.59
12.97
12.83
13.03
13.35
13.62
13.74
13.66
13.41
12.98
12.35
11.47
10.2
8.46
6.21
3.52
0.54
-2.51
-5.49
-8.33
-11.09
-13.9
-16.89
-20.17
-23.81
-27.73
-31.65
-35.12
-37.47
-38.05
-36.41
-32.47
-26.61
-19.54
-12.08
-4.92
1.48
6.91
11.32
14.69
17.03
18.35
18.76
18.48
17.85
17.22
16.87
16.93
17.35
17.93
18.45
18.72
18.67
18.26
17.55
16.55
15.23
13.5
11.29
8.59
5.52
2.31
-0.8
-3.62
-6.12
-8.39
-10.62
-12.99
-15.63
-18.6
-21.9
-25.49
-29.21
-32.71
-35.4
-36.61
-35.73
-32.49
-27.13
-20.28
-12.79
-5.47
1.07
6.54
10.83
13.94
15.88
16.76
16.73
16.09
15.19
14.37
13.87
13.8
14.07
14.56
15.1
15.51
15.7
15.6
15.21
14.51
13.51
12.16
10.43
8.29
5.8
3.06
0.27
-2.4
-4.87
-7.19
-9.55
-12.14
-15.14
-18.56
-22.25
-25.93
-29.25
-31.77
-33.05
-32.74
-30.62
-26.71
-21.3
-14.85
-7.95
-1.21
4.89
10.02
13.97
16.69
18.19
18.55
17.97
16.7
15.09
13.52
12.33
11.73
11.7
12.09
12.63
13.09
13.35
13.42
13.34
13.07
12.5
11.48
9.91
7.84
5.45
2.93
0.43
-2.07
-4.66
-7.45
-10.51
-13.83
-17.43
-21.23
-25.08
-28.57
-31.12
-32.06
-30.84
-27.32
-21.84
-15.06
-7.81
-0.81
5.46
10.73
14.87
17.79
19.48
20.0
19.51
18.3
16.68
14.98
13.45
12.23
11.38
10.87
10.6
10.48
10.44
10.48
10.58
10.65
10.53
9.93
8.59
6.4
3.47
0.17
-3.07
-5.9
-8.27
-10.42
-12.74
-15.63
-19.24
-23.41
-27.68
-31.46
-34.11
-35.17
-34.36
-31.63
-27.16
-21.29
-14.52
-7.4
-0.53
5.55
10.43
13.94
16.12
17.18
17.43
17.19
16.67
16.02
15.42
14.97
14.83
15.07
15.6
16.22
16.66
16.71
16.32
15.58
14.58
13.35
11.73
9.49
6.49
2.78
-1.26
-5.2
-8.64
-11.5
-14.01
-16.62
-19.74
-23.59
-28.12
-32.97
-37.6
-41.38
-43.71
-44.17
-42.54
-38.95
-33.77
-27.59
-20.99
-14.47
-8.31
-2.62
2.57
7.25
11.32
14.63
17.1
18.77
19.97
21.21
23.13
26.22
30.71
36.37
42.75
49.28
55.5
61.22
66.4
71.08
75.22
78.53
80.41
79.9
75.93
67.7
55.08
38.88
20.79
3.06
-12.03
-22.72
-28.16
-28.58
-25.2
-19.73
-13.87
-8.73
-4.5
-0.57
4.05
10.12
17.81
26.65
35.86
44.83
53.23
60.94
67.68
72.96
76.15
76.68
74.3
68.94
60.74
49.89
36.8
22.26
7.44
-6.38
-18.27
-28.05
-36.23
-43.64
-50.89
-57.99
-64.33
-69.21
-72.53
-75.29
-79.61
-88.01
-102.3
-122.45
-146.21
-169.58
-188.23
-199.0
-200.91
-195.1
-183.87
-169.31
-152.47
-133.35
-111.63
-87.58
-62.44
-38.06
-16.17
2.41
17.89
31.14
43.01
53.78
63.05
70.0
73.94
74.67
72.66
68.83
64.19
59.5
55.1
50.94
46.79
42.53
38.19
33.99
30.19
26.94
24.25
21.91
19.65
17.28
14.7
11.93
9.07
6.17
3.24
0.25
-2.9
-6.31
-10.02
-13.95
-17.87
-21.35
-23.85
-24.78
-23.71
-20.52
-15.43
-9.0
-1.94
5.02
11.32
16.63
20.82
23.95
26.09
27.37
27.87
27.7
26.98
25.86
24.51
23.05
21.55
19.98
18.26
16.3
14.09
11.63
9.01
6.26
3.37
0.25
-3.19
-7.02
-11.19
-15.5
-19.69
-23.52
-26.89
-29.9
-32.82
-35.93
-39.34
-42.9
-46.15
-48.49
-49.34
-48.29
-45.24
-40.36
-34.09
-27.01
-19.71
-12.71
-6.33
-0.71
4.2
8.5
12.26
15.53
18.3
20.57
22.41
23.91
25.24
26.53
27.9
29.38
30.92
32.41
33.71
34.65
35.12
35.1
34.58
33.58
32.05
29.92
27.12
23.67
19.66
15.28
10.7
6.04
1.38
-3.13
-7.2
-10.36
-12.03
-11.71
-9.18
-4.65
1.3
7.87
14.3
20.02
24.74
28.31
30.68
31.88
31.97
31.15
29.73
28.04
26.35
24.76
23.28
21.89
20.57
19.35
18.25
17.24
16.19
14.96
13.4
11.47
9.18
6.65
4.0
1.3
-1.4
-4.13
-6.97
-10.09
-13.63
-17.67
-22.12
-26.68
-30.8
-33.81
-35.04
-34.01
-30.63
-25.21
-18.45
-11.22
-4.26
1.89
7.03
11.19
14.46
16.92
18.51
19.18
18.96
18.03
16.72
15.38
14.25
13.47
12.99
12.7
12.47
12.21
11.84
11.28
10.47
9.34
7.85
6.0
3.86
1.51
-0.96
-3.48
-6.07
-8.82
-11.86
-15.33
-19.2
-23.24
-26.95
-29.67
-30.82
-29.97
-27.08
-22.47
-16.65
-10.24
-3.77
2.41
8.08
13.08
17.32
20.66
23.0
24.3
24.64
24.18
23.19
21.91
20.56
19.28
18.19
17.33
16.75
16.42
16.27
16.13
15.79
15.02
13.65
11.64
9.08
6.14
3.02
-0.16
-3.32
-6.48
-9.79
-13.38
-17.38
-21.83
-26.54
-31.13
-34.98
-37.42
-37.85
-35.94
-31.76
-25.76
-18.67
-11.33
-4.49
1.33
5.88
9.14
11.24
12.36
12.7
12.42
11.71
10.73
9.67
8.71
8.03
7.74
7.9
8.38
9.04
9.57
9.72
9.26
8.11
6.35
4.17
1.86
-0.3
-2.16
-3.72
-5.15
-6.78
-8.9
-11.76
-15.39
-19.54
-23.78
-27.5
-30.06
-30.89
-29.64
-26.24
-20.96
-14.38
-7.19
-0.1
6.41
12.08
16.8
20.52
23.13
24.48
24.46
23.15
20.88
18.1
15.26
12.73
10.61
8.92
7.62
6.69
6.11
5.78
5.57
5.29
4.76
3.89
2.65
1.13
-0.61
-2.55
-4.7
-7.17
-10.08
-13.55
-17.55
-21.9
-26.21
-29.95
-32.53
-33.44
-32.37
-29.27
-24.36
-18.09
-11.05
-3.84
2.99
9.02
14.01
17.78
20.26
21.47
21.53
20.7
19.34
17.88
16.66
15.87
15.48
15.31
15.17
14.94
14.61
14.22
13.78
13.16
12.18
10.62
8.41
5.66
2.66
-0.27
-2.95
-5.44
-8.0
-10.9
-14.33
-18.19
-22.25
-26.12
-29.39
-31.68
-32.67
-32.1
-29.83
-25.92
-20.6
-14.3
-7.56
-0.91
5.21
10.46
14.61
17.47
18.97
19.14
18.21
16.58
14.76
13.21
12.22
11.89
12.08
12.56
13.06
13.4
13.54
13.45
13.16
12.63
11.78
10.48
8.65
6.28
3.46
0.33
-2.95
-6.28
-9.63
-13.04
-16.61
-20.43
-24.52
-28.76
-32.78
-36.02
-37.78
-37.48
-34.89
-30.16
-23.87
-16.75
-9.49
-2.63
3.53
8.74
12.84
15.67
17.18
17.5
16.92
15.86
14.73
13.87
13.44
13.46
13.81
14.33
14.85
15.26
15.49
15.52
15.28
14.67
13.49
11.58
8.89
5.54
1.81
-1.89
-5.28
-8.23
-10.85
-13.44
-16.33
-19.73
-23.6
-27.69
-31.55
-34.64
-36.41
-36.4
-34.31
-30.16
-24.27
-17.27
-9.97
-3.08
2.87
7.72
11.47
14.2
15.92
16.63
16.39
15.41
14.1
12.9
12.17
12.05
12.44
13.12
13.86
14.54
15.08
15.46
15.59
15.33
14.47
12.9
10.62
7.78
4.65
1.57
-1.24
-3.71
-5.92
-8.13
-10.63
-13.64
-17.22
-21.19
-25.1
-28.35
-30.25
-30.18
-27.85
-23.33
-17.1
-9.93
-2.66
4.01
9.64
14.03
17.19
19.21
20.14
20.09
19.22
17.78
16.12
14.61
13.52
12.93
12.78
12.87
12.96
12.88
12.58
12.11
11.53
10.83
9.92
8.62
6.81
4.45
1.64
-1.39
-4.43
-7.3
-9.97
-12.51
-15.13
-18.04
-21.38
-25.16
-29.11
-32.71
-35.26
-36.09
-34.74
-31.18
-25.78
-19.21
-12.22
-5.43
0.76
6.18
10.76
14.41
17.01
18.41
18.59
17.72
16.18
14.5
13.19
12.55
12.64
13.24
14.02
14.62
14.83
14.54
13.79
12.64
11.11
9.19
6.88
4.22
1.39
-1.43
-4.1
-6.58
-8.99
-11.56
-14.46
-17.8
-21.47
-25.31
-29.0
-32.18
-34.43
-35.27
-34.32
-31.39
-26.6
-20.43
-13.57
-6.77
-0.59
4.62
8.81
12.01
14.27
15.6
16.01
15.6
14.64
13.52
12.62
12.18
12.22
12.63
13.18
13.67
13.96
13.92
13.48
12.51
10.96
8.83
6.24
3.35
0.38
-2.51
-5.23
-7.76
-10.17
-12.62
-15.29
-18.32
-21.7
-25.17
-28.21
-30.2
-30.53
-28.9
-25.36
-20.33
-14.45
-8.3
-2.32
3.29
8.46
13.01
16.76
19.41
20.78
20.91
20.11
18.8
17.42
16.23
15.31
14.6
14.02
13.55
13.23
13.03
12.85
12.48
11.64
10.15
7.96
5.22
2.22
-0.77
-3.59
-6.21
-8.75
-11.39
-14.27
-17.39
-20.68
-23.94
-26.89
-29.17
-30.35
-30.05
-27.96
-24.08
-18.62
-12.11
-5.24
1.36
7.21
12.07
15.89
18.72
20.6
21.54
21.56
20.82
19.63
18.41
17.57
17.37
17.78
18.49
19.15
19.42
19.2
18.53
17.52
16.26
14.74
12.88
10.66
8.1
5.37
2.6
-0.03
-2.54
-5.07
-7.88
-11.28
-15.45
-20.3
-25.46
-30.25
-33.84
-35.56
-34.99
-32.2
-27.62
-21.94
-15.88
-10.06
-4.86
-0.5
2.92
5.31
6.63
6.84
5.99
4.26
2.04
-0.2
-1.95
-2.81
-2.61
-1.42
0.5
2.71
4.74
6.12
6.42
5.26
2.38
-2.3
-8.64
-16.18
-24.3
-32.32
-39.72
-46.18
-51.67
-56.3
-60.22
-63.48
-66.03
-67.75
-68.43
-67.88
-65.84
-62.12
-56.59
-49.37
-40.82
-31.62
-22.56
-14.31
-7.28
-1.58
2.92
6.41
8.99
10.69
11.55
11.7
11.43
11.15
11.27
12.04
13.46
15.33
17.35
19.19
20.65
21.63
22.15
22.29
22.07
21.44
20.32
18.63
16.4
13.75
10.82
7.73
4.44
0.92
-2.82
-6.61
-10.01
-12.46
-13.4
-12.45
-9.56
-4.98
0.83
7.33
13.97
20.31
25.96
30.62
34.07
36.17
36.95
36.61
35.48
34.0
32.58
31.5
30.81
30.36
29.9
29.19
28.11
26.72
25.17
23.58
21.94
20.11
17.92
15.29
12.34
9.3
6.46
3.94
1.68
-0.61
-3.28
-6.6
-10.58
-14.94
-19.18
-22.64
-24.69
-24.89
-23.02
-19.16
-13.6
-6.83
0.57
8.03
14.98
20.96
25.58
28.59
29.89
29.55
27.86
25.24
22.24
19.38
17.08
15.52
14.7
14.4
14.37
14.39
14.31
14.07
13.6
12.78
11.45
9.51
6.89
3.73
0.3
-3.14
-6.35
-9.31
-12.11
-14.95
-18.03
-21.47
-25.2
-28.99
-32.44
-35.04
-36.28
-35.72
-33.17
-28.68
-22.66
-15.71
-8.54
-1.75
4.25
9.24
13.22
16.22
18.27
19.36
19.45
18.65
17.18
15.45
13.84
12.67
11.98
11.69
11.59
11.51
11.39
11.24
11.02
10.62
9.89
8.68
6.95
4.79
2.42
0.03
-2.26
-4.4
-6.48
-8.63
-10.99
-13.69
-16.75
-20.02
-23.15
-25.61
-26.82
-26.27
-23.69
-19.14
-13.0
-5.85
1.62
8.83
15.31
20.85
25.31
28.61
30.7
31.56
31.28
30.11
28.43
26.66
25.16
24.08
23.38
22.88
22.38
21.74
20.96
20.08
19.15
18.17
17.02
15.56
13.65
11.32
8.7
6.04
3.54
1.31
-0.78
-2.92
-5.35
-8.15
-11.28
-14.48
-17.41
-19.6
-20.59
-19.99
-17.56
-13.34
-7.68
-1.13
5.61
11.94
17.44
21.85
25.02
26.84
27.27
26.34
24.31
21.64
18.89
16.63
15.16
14.56
14.57
14.85
15.03
14.9
14.42
13.63
12.55
11.1
9.16
6.67
3.71
0.54
-2.47
-5.08
-7.25
-9.14
-11.05
-13.23
-15.84
-18.89
-22.3
-25.88
-29.27
-31.98
-33.45
-33.15
-30.82
-26.54
-20.75
-14.08
-7.18
-0.58
5.38
10.51
14.68
17.77
19.71
20.53
20.3
19.25
17.66
15.87
14.18
12.81
11.92
11.49
11.47
11.72
12.08
12.41
12.59
12.49
12.01
11.12
9.82
8.21
6.39
4.5
2.62
0.82
-0.91
-2.61
-4.34
-6.24
-8.48
-11.23
-14.61
-18.54
-22.7
-26.52
-29.36
-30.56
-29.74
-26.83
-22.12
-16.17
-9.66
-3.23
2.61
7.54
11.36
14.01
15.49
15.9
15.45
14.39
13.03
11.64
10.43
9.5
8.86
8.44
8.14
7.82
7.39
6.78
5.99
5.04
3.94
2.66
1.12
-0.71
-2.83
-5.18
-7.65
-10.11
-12.42
-14.49
-16.28
-17.84
-19.3
-20.85
-22.67
-24.82
-27.09
-29.03
-29.99
-29.32
-26.63
-21.95
-15.73
-8.68
-1.6
4.91
10.51
15.13
18.84
21.7
23.73
24.91
25.23
24.81
23.9
22.79
21.77
21.04
20.63
20.45
20.35
20.24
20.1
19.94
19.74
19.4
18.66
17.28
15.03
11.91
8.1
3.99
-0.06
-3.78
-7.15
-10.27
-13.33
-16.48
-19.75
-23.1
-26.39
-29.47
-32.11
-33.95
-34.59
-33.62
-30.81
-26.27
-20.47
-14.06
-7.75
-2.02
2.9
6.96
10.17
12.51
13.84
14.1
13.37
11.96
10.33
8.93
8.04
7.66
7.64
7.72
7.72
7.58
7.32
6.95
6.46
5.74
4.7
3.28
1.49
-0.57
-2.84
-5.21
-7.6
-9.9
-12.01
-13.87
-15.5
-17.05
-18.76
-20.85
-23.47
-26.56
-29.88
-32.99
-35.31
-36.32
-35.55
-32.79
-28.09
-21.81
-14.51
-6.93
0.25
6.47
11.4
14.94
17.14
18.16
18.23
17.61
16.6
15.49
14.56
13.88
13.46
13.14
12.79
12.33
11.83
11.42
11.2
11.18
11.23
11.16
10.77
9.94
8.61
6.82
4.62
2.09
-0.72
-3.72
-6.81
-9.85
-12.74
-15.47
-18.12
-20.89
-23.99
-27.44
-31.03
-34.24
-36.31
-36.57
-34.6
-30.52
-24.84
-18.39
-11.96
-6.16
-1.25
2.71
5.73
7.84
8.97
9.11
8.34
6.9
5.18
3.54
2.24
1.35
0.75
0.23
-0.34
-0.95
-1.4
-1.4
-0.69
0.84
3.05
5.62
8.13
10.21
11.68
12.49
12.75
12.6
12.15
11.42
10.36
8.87
6.86
4.36
1.51
-1.32
-3.63
-4.87
-4.59
-2.58
1.08
6.02
11.71
17.53
22.97
27.65
31.38
34.13
35.97
37.02
37.25
36.57
34.76
31.59
26.97
21.04
14.22
7.05
0.09
-6.27
-11.77
-16.29
-19.77
-22.13
-23.36
-23.58
-23.17
-22.62
-22.44
-22.89
-23.93
-25.23
-26.38
-27.11
-27.39
-27.43
-27.52
-27.91
-28.77
-30.15
-32.11
-34.6
-37.47
-40.35
-42.64
-43.62
-42.67
-39.49
-34.19
-27.26
-19.46
-11.55
-4.14
2.4
7.96
12.5
16.05
18.58
20.08
20.58
20.28
19.53
18.74
18.26
18.27
18.69
19.27
19.77
20.01
20.01
19.88
19.72
19.52
19.1
18.22
16.67
14.45
11.69
8.64
5.53
2.45
-0.59
-3.59
-6.56
-9.43
-12.14
-14.74
-17.37
-20.16
-23.07
-25.78
-27.74
-28.3
-27.02
-23.82
-19.03
-13.3
-7.36
-1.85
2.86
6.6
9.43
11.44
12.71
13.29
13.17
12.38
11.07
9.52
8.09
7.09
6.7
6.83
7.26
7.67
7.81
7.59
7.1
6.46
5.76
4.98
3.96
2.57
0.74
-1.44
-3.81
-6.14
-8.27
-10.13
-11.77
-13.39
-15.21
-17.43
-20.09
-23.07
-25.99
-28.37
-29.68
-29.5
-27.62
-24.05
-19.07
-13.1
-6.67
-0.28
5.65
10.91
15.39
19.09
21.99
24.03
25.15
25.36
24.81
23.76
22.54
21.4
20.52
19.99
19.79
19.86
20.08
20.31
20.41
20.18
19.52
18.35
16.64
14.41
11.68
8.54
5.13
1.64
-1.76
-5.01
-8.15
-11.37
-14.82
-18.62
-22.66
-26.67
-30.21
-32.77
-33.9
-33.26
-30.74
-26.48
-20.86
-14.43
-7.81
-1.52
4.02
8.51
11.78
13.76
14.49
14.16
13.14
11.88
10.78
10.06
9.76
9.71
9.74
9.72
9.68
9.68
9.79
9.98
10.1
9.94
9.28
8.01
6.15
3.82
1.23
-1.44
-4.04
-6.53
-8.92
-11.29
-13.8
-16.62
-19.93
-23.76
-27.93
-32.0
-35.34
-37.27
-37.32
-35.29
-31.32
-25.88
-19.55
-12.94
-6.57
-0.8
4.1
7.98
10.78
12.47
13.1
12.78
11.78
10.48
9.29
8.54
8.38
8.73
9.29
9.77
9.92
9.71
9.25
8.67
8.03
7.25
6.13
4.47
2.18
-0.61
-3.66
-6.68
-9.45
-11.94
-14.23
-16.55
-19.1
-22.04
-25.38
-29.01
-32.69
-35.98
-38.38
-39.36
-38.48
-35.55
-30.72
-24.39
-17.16
-9.64
-2.35
4.3
9.97
14.41
17.46
19.11
19.55
19.14
18.31
17.42
16.73
16.36
16.32
16.56
16.98
17.46
17.87
18.14
18.24
18.19
17.97
17.49
16.61
15.14
13.0
10.27
7.19
4.11
1.29
-1.17
-3.4
-5.64
-8.21
-11.32
-15.03
-19.17
-23.3
-26.83
-29.09
-29.46
-27.59
-23.45
-17.47
-10.35
-2.88
4.28
10.67
16.07
20.4
23.57
25.51
26.15
25.61
24.16
22.25
20.36
18.87
17.97
17.64
17.74
18.04
18.34
18.43
18.14
17.39
16.09
14.23
11.78
8.81
5.39
1.68
-2.13
-5.83
-9.31
-12.58
-15.78
-19.2
-23.08
-27.52
-32.36
-37.11
-41.09
-43.5
-43.73
-41.47
-36.81
-30.28
-22.62
-14.65
-7.01
-0.13
5.8
10.75
14.71
17.66
19.56
20.4
20.26
19.43
18.28
17.24
16.61
16.54
16.96
17.67
18.39
18.94
19.22
19.21
18.92
18.3
17.27
15.69
13.52
10.76
7.58
4.21
0.89
-2.26
-5.25
-8.26
-11.52
-15.22
-19.4
-23.94
-28.57
-32.88
-36.32
-38.29
-38.25
-35.84
-31.08
-24.36
-16.44
-8.15
-0.21
6.92
13.01
17.99
21.8
24.34
25.57
25.59
24.66
23.19
21.59
20.23
19.25
18.66
18.35
18.17
17.97
17.66
17.23
16.69
16.09
15.42
14.59
13.39
11.62
9.19
6.17
2.82
-0.53
-3.61
-6.38
-8.98
-11.66
-14.68
-18.19
-22.24
-26.7
-31.29
-35.53
-38.79
-40.38
-39.71
-36.52
-30.98
-23.66
-15.34
-6.85
1.15
8.19
13.99
18.39
21.37
23.02
23.57
23.38
22.82
22.24
21.83
21.7
21.8
22.07
22.41
22.78
23.06
23.17
22.96
22.31
21.08
19.21
16.7
13.66
10.25
6.66
3.08
-0.36
-3.58
-6.64
-9.63
-12.71
-16.02
-19.6
-23.41
-27.2
-30.57
-32.99
-33.85
-32.65
-29.17
-23.57
-16.4
-8.51
-0.74
6.22
11.97
16.39
19.47
21.25
21.8
21.3
20.1
18.64
17.39
16.64
16.46
16.7
17.09
17.4
17.51
17.38
17.04
16.49
15.69
14.54
12.95
10.85
8.27
5.34
2.27
-0.73
-3.54
-6.14
-8.63
-11.18
-13.92
-16.96
-20.32
-23.98
-27.76
-31.29
-34.0
-35.2
-34.29
-30.96
-25.35
-18.01
-9.79
-1.57
5.93
12.29
17.35
21.13
23.7
25.16
25.62
25.23
24.28
23.07
21.93
21.12
20.74
20.75
20.96
21.19
21.28
21.17
20.85
20.35
19.65
18.63
17.11
14.89
11.87
8.08
3.76
-0.76
-5.14
-9.18
-12.83
-16.18
-19.46
-22.88
-26.6
-30.59
-34.66
-38.38
-41.21
-42.54
-41.91
-39.06
-34.13
-27.55
-20.02
-12.29
-5.03
1.29
6.44
10.34
13.02
14.57
15.13
14.92
14.24
13.42
12.76
12.44
12.48
12.79
13.26
13.76
14.22
14.6
14.84
14.88
14.68
14.15
13.28
12.02
10.4
8.42
6.13
3.57
0.81
-2.08
-5.06
-8.09
-11.14
-14.26
-17.53
-20.95
-24.45
-27.69
-30.09
-30.98
-29.73
-26.07
-20.18
-12.69
-4.44
3.73
11.21
17.63
22.81
26.67
29.16
30.27
30.13
29.02
27.35
25.56
24.04
22.95
22.3
21.97
21.78
21.62
21.39
21.02
20.44
19.54
18.23
16.44
14.15
11.43
8.38
5.17
1.9
-1.32
-4.42
-7.38
-10.24
-13.1
-16.13
-19.46
-23.18
-27.11
-30.87
-33.89
-35.5
-35.17
-32.69
-28.21
-22.22
-15.38
-8.35
-1.62
4.49
9.79
14.1
17.23
19.02
19.49
18.9
17.71
16.47
15.64
15.38
15.66
16.21
16.78
17.21
17.46
17.56
17.51
17.24
16.59
15.41
13.6
11.2
8.41
5.45
2.55
-0.13
-2.57
-4.88
-7.16
-9.53
-12.03
-14.73
-17.71
-21.06
-24.82
-28.87
-32.83
-36.08
-37.87
-37.59
-34.96
-30.16
-23.78
-16.63
-9.48
-2.92
2.71
7.28
10.76
13.2
14.68
15.3
15.21
14.57
13.65
12.71
12.01
11.76
12.01
12.66
13.5
14.23
14.63
14.58
14.07
13.11
11.75
9.99
7.9
5.57
3.13
0.68
-1.74
-4.15
-6.62
-9.19
-11.82
-14.44
-16.94
-19.29
-21.55
-23.86
-26.41
-29.3
-32.43
-35.38
-37.49
-38.05
-36.46
-32.61
-26.79
-19.69
-12.06
-4.53
2.47
8.74
14.15
18.53
21.71
23.59
24.2
23.79
22.76
21.5
20.38
19.63
19.35
19.49
19.91
20.38
20.69
20.67
20.25
19.45
18.35
17.03
15.53
13.78
11.72
9.3
6.57
3.69
0.86
-1.75
-4.1
-6.24
-8.29
-10.38
-12.6
-15.03
-17.73
-20.73
-23.98
-27.25
-30.08
-31.85
-31.95
-29.97
-25.9
-20.09
-13.19
-5.95
0.94
6.99
11.91
15.59
18.03
19.3
19.58
19.09
18.09
16.88
15.73
14.83
14.32
14.19
14.36
14.69
15.0
15.15
15.05
14.67
13.98
13.02
11.76
10.19
8.31
6.16
3.85
1.56
-0.58
-2.53
-4.35
-6.21
-8.25
-10.56
-13.12
-15.83
-18.67
-21.66
-24.89
-28.38
-31.95
-35.16
-37.36
-37.87
-36.22
-32.32
-26.57
-19.64
-12.32
-5.23
1.23
6.92
11.75
15.66
18.55
20.34
21.06
20.9
20.14
19.11
18.06
17.15
16.44
15.97
15.74
15.74
15.87
15.97
15.86
15.38
14.47
13.16
11.53
9.66
7.59
5.32
2.87
0.27
-2.37
-4.93
-7.36
-9.68
-12.01
-14.44
-17.07
-19.92
-23.04
-26.41
-29.95
-33.44
-36.42
-38.27
-38.4
-36.4
-32.22
-26.23
-19.11
-11.66
-4.6
1.57
6.62
10.55
13.47
15.56
16.94
17.69
17.89
17.58
16.85
15.86
14.79
13.84
13.17
12.88
12.98
13.37
13.85
14.18
14.17
13.71
12.77
11.37
9.52
7.21
4.46
1.39
-1.82
-4.9
-7.64
-9.99
-12.03
-13.97
-15.99
-18.19
-20.61
-23.24
-26.07
-28.99
-31.72
-33.83
-34.78
-34.06
-31.42
-26.98
-21.15
-14.52
-7.69
-1.07
5.05
10.47
15.03
18.55
20.89
22.07
22.24
21.74
20.98
20.26
19.79
19.56
19.45
19.34
19.17
18.91
18.57
18.12
17.48
16.57
15.28
13.61
11.58
9.29
6.85
4.33
1.75
-0.85
-3.51
-6.23
-9.0
-11.83
-14.73
-17.74
-20.96
-24.43
-28.07
-31.6
-34.52
-36.24
-36.23
-34.19
-30.12
-24.36
-17.5
-10.23
-3.24
2.92
7.93
11.68
14.23
15.7
16.26
16.05
15.27
14.17
13.06
12.24
11.88
12.02
12.53
13.26
14.01
14.69
15.21
15.52
15.55
15.28
14.7
13.78
12.52
10.86
8.8
6.33
3.53
0.54
-2.5
-5.47
-8.29
-10.98
-13.57
-16.15
-18.82
-21.69
-24.82
-28.13
-31.32
-33.88
-35.17
-34.66
-32.08
-27.6
-21.7
-15.06
-8.32
-1.96
3.81
8.8
12.92
16.02
18.02
18.97
19.02
18.44
17.49
16.34
15.08
13.76
12.47
11.33
10.45
9.89
9.59
9.4
9.15
8.72
8.06
7.19
6.11
4.8
3.21
1.3
-0.96
-3.52
-6.23
-8.91
-11.44
-13.75
-15.92
-18.11
-20.47
-23.15
-26.18
-29.42
-32.62
-35.35
-37.16
-37.59
-36.31
-33.22
-28.44
-22.31
-15.33
-7.97
-0.7
6.13
12.22
17.36
21.39
24.2
25.76
26.12
25.46
24.12
22.54
21.14
20.22
19.88
20.0
20.31
20.55
20.51
20.14
19.46
18.62
17.72
16.78
15.75
14.43
12.68
10.41
7.72
4.82
1.94
-0.76
-3.36
-6.03
-9.0
-12.42
-16.26
-20.34
-24.38
-28.01
-30.81
-32.36
-32.25
-30.27
-26.41
-21.05
-14.77
-8.24
-2.08
3.35
7.89
11.54
14.33
16.26
17.31
17.53
17.1
16.29
15.41
14.69
14.19
13.87
13.58
13.26
12.95
12.74
12.71
12.8
12.83
12.56
11.83
10.59
8.92
7.03
5.06
3.1
1.14
-0.95
-3.25
-5.76
-8.4
-11.06
-13.63
-16.17
-18.8
-21.69
-24.89
-28.17
-31.03
-32.77
-32.77
-30.68
-26.55
-20.77
-13.9
-6.48
1.01
8.2
14.73
20.27
24.55
27.44
29.03
29.56
29.34
28.67
27.7
26.52
25.21
23.91
22.81
22.04
21.62
21.42
21.19
20.7
19.78
18.43
16.75
14.84
12.77
10.51
7.99
5.15
2.09
-1.06
-4.07
-6.82
-9.32
-11.73
-14.27
-17.15
-20.49
-24.27
-28.31
-32.35
-36.03
-38.86
-40.38
-40.2
-38.15
-34.3
-29.01
-22.82
-16.3
-9.95
-4.17
0.82
4.91
8.08
10.39
11.93
12.8
13.09
12.91
12.42
11.8
11.31
11.18
11.49
12.13
12.87
13.41
13.51
13.1
12.3
11.33
10.41
9.59
8.74
7.64
6.06
3.93
1.39
-1.3
-3.91
-6.31
-8.57
-10.83
-13.25
-15.91
-18.82
-21.92
-25.19
-28.53
-31.71
-34.3
-35.7
-35.3
-32.68
-27.86
-21.32
-13.88
-6.44
0.31
6.03
10.67
14.39
17.32
19.5
20.88
21.42
21.2
20.4
19.34
18.31
17.53
17.1
16.97
17.02
17.12
17.16
17.09
16.93
16.69
16.36
15.85
15.04
13.81
12.13
10.03
7.62
5.02
2.28
-0.6
-3.64
-6.89
-10.36
-14.04
-17.88
-21.76
-25.46
-28.63
-30.78
-31.44
-30.32
-27.41
-22.95
-17.46
-11.45
-5.38
0.41
5.67
10.17
13.72
16.14
17.41
17.62
17.05
16.04
14.94
13.98
13.31
12.95
12.83
12.84
12.87
12.75
12.4
11.72
10.69
9.34
7.78
6.08
4.3
2.42
0.37
-1.84
-4.16
-6.46
-8.58
-10.45
-12.11
-13.75
-15.59
-17.83
-20.6
-23.84
-27.26
-30.4
-32.63
-33.35
-32.13
-28.89
-23.91
-17.7
-10.87
-3.95
2.69
8.74
13.99
18.21
21.19
22.82
23.17
22.47
21.14
19.63
18.34
17.56
17.31
17.51
17.9
18.27
18.45
18.36
17.98
17.32
16.34
15.01
13.29
11.14
8.6
5.7
2.57
-0.67
-3.86
-6.85
-9.6
-12.13
-14.54
-16.96
-19.51
-22.27
-25.22
-28.25
-31.11
-33.39
-34.61
-34.28
-32.12
-28.1
-22.55
-16.0
-9.07
-2.32
3.83
9.14
13.44
16.67
18.88
20.17
20.69
20.62
20.11
19.32
18.41
17.55
16.9
16.53
16.41
16.39
16.31
16.05
15.55
14.78
13.65
12.01
9.73
6.79
3.36
-0.25
-3.74
-6.94
-9.89
-12.71
-15.53
-18.41
-21.32
-24.21
-27.13
-30.2
-33.43
-36.66
-39.42
-41.11
-41.17
-39.26
-35.47
-30.22
-24.08
-17.61
-11.2
-5.07
0.66
5.83
10.21
13.51
15.55
16.32
16.1
15.32
14.48
13.95
13.9
14.28
14.93
15.66
16.32
16.85
17.25
17.51
17.59
17.36
16.69
15.45
13.64
11.39
8.91
6.44
4.13
1.95
-0.23
-2.64
-5.51
-8.96
-12.97
-17.37
-21.75
-25.54
-28.1
-28.87
-27.54
-24.17
-19.15
-13.12
-6.75
-0.56
5.15
10.24
14.69
18.42
21.29
23.12
23.86
23.57
22.55
21.16
19.74
18.49
17.46
16.52
15.58
14.65
13.81
13.19
12.79
12.47
11.92
10.82
8.98
6.45
3.46
0.34
-2.63
-5.31
-7.74
-10.09
-12.56
-15.33
-18.49
-22.03
-25.85
-29.65
-32.98
-35.27
-35.9
-34.45
-30.8
-25.25
-18.45
-11.13
-3.97
2.61
8.42
13.4
17.47
20.49
22.32
22.94
22.55
21.49
20.19
19.0
18.12
17.61
17.44
17.53
17.76
18.0
18.04
17.69
16.76
15.18
12.97
10.31
7.41
4.49
1.7
-0.94
-3.47
-5.98
-8.59
-11.37
-14.37
-17.64
-21.18
-24.91
-28.63
-31.91
-34.19
-34.89
-33.58
-30.18
-25.01
-18.64
-11.78
-5.0
1.34
7.05
12.03
16.13
19.08
20.61
20.67
19.47
17.5
15.41
13.7
12.62
12.09
11.82
11.52
11.04
10.39
9.67
8.92
8.09
6.97
5.38
3.21
0.56
-2.39
-5.38
-8.21
-10.81
-13.21
-15.52
-17.83
-20.21
-22.72
-25.43
-28.38
-31.57
-34.8
-37.65
-39.53
-39.83
-38.14
-34.41
-28.99
-22.46
-15.47
-8.51
-1.91
4.19
9.64
14.29
17.95
20.45
21.75
22.01
21.58
20.92
20.44
20.41
20.84
21.57
22.35
22.95
23.23
23.16
22.77
22.11
21.17
19.95
18.4
16.47
14.15
11.46
8.5
5.46
2.54
-0.08
-2.34
-4.32
-6.25
-8.41
-11.02
-14.15
-17.71
-21.42
-24.85
-27.41
-28.51
-27.63
-24.6
-19.57
-13.07
-5.82
1.48
8.26
14.22
19.18
23.04
25.71
27.15
27.46
26.86
25.7
24.35
23.11
22.09
21.3
20.66
20.11
19.63
19.2
18.81
18.37
17.73
16.77
15.39
13.57
11.35
8.82
6.07
3.17
0.16
-2.96
-6.13
-9.29
-12.37
-15.33
-18.23
-21.18
-24.31
-27.61
-30.82
-33.39
-34.63
-33.99
-31.23
-26.55
-20.54
-13.95
-7.42
-1.4
3.92
8.46
12.14
14.87
16.5
17.04
16.63
15.62
14.44
13.48
12.99
12.95
13.2
13.48
13.57
13.43
13.14
12.87
12.65
12.41
11.92
10.92
9.23
6.87
4.01
0.86
-2.4
-5.72
-9.16
-12.76
-16.56
-20.47
-24.38
-28.22
-31.92
-35.41
-38.39
-40.4
-40.88
-39.34
-35.63
-30.03
-23.16
-15.77
-8.5
-1.73
4.36
9.7
14.18
17.66
20.01
21.18
21.32
20.72
19.73
18.68
17.78
17.1
16.65
16.39
16.23
16.11
15.91
15.56
14.98
14.15
13.07
11.73
10.15
8.27
6.08
3.59
0.91
-1.82
-4.46
-6.98
-9.46
-12.08
-15.02
-18.38
-22.16
-26.22
-30.27
-33.92
-36.64
-37.87
-37.16
-34.3
-29.4
-22.9
-15.45
-7.73
-0.32
6.34
11.98
16.44
19.65
21.65
22.58
22.64
22.13
21.32
20.5
19.83
19.44
19.29
19.29
19.35
19.42
19.49
19.53
19.46
19.09
18.23
16.7
14.47
11.63
8.43
5.16
2.04
-0.81
-3.42
-5.92
-8.48
-11.26
-14.37
-17.83
-21.56
-25.37
-28.94
-31.78
-33.28
-32.9
-30.29
-25.49
-19.01
-11.62
-4.15
2.8
8.92
14.17
18.57
22.06
24.51
25.81
25.99
25.29
24.11
22.83
21.7
20.85
20.24
19.79
19.48
19.26
19.11
18.91
18.53
17.82
16.64
14.92
12.64
9.9
6.79
3.51
0.24
-2.82
-5.55
-7.91
-9.98
-11.96
-14.06
-16.49
-19.36
-22.56
-25.77
-28.43
-29.87
-29.52
-27.03
-22.4
-16.03
-8.56
-0.75
6.67
13.12
18.25
21.96
24.26
25.27
25.13
24.04
22.24
20.05
17.83
15.86
14.3
13.07
11.99
10.86
9.6
8.3
7.13
6.23
5.57
4.93
4.02
2.56
0.42
-2.33
-5.47
-8.7
-11.74
-14.43
-16.72
-18.79
-20.85
-23.22
-26.14
-29.72
-33.88
-38.32
-42.55
-45.88
-47.62
-47.19
-44.36
-39.31
-32.65
-25.21
-17.83
-11.11
-5.32
-0.45
3.65
7.09
9.86
11.84
12.92
13.13
12.64
11.78
10.9
10.33
10.25
10.7
11.55
12.54
13.42
13.98
14.12
13.91
13.4
12.62
11.51
9.94
7.84
5.25
2.38
-0.54
-3.32
-5.92
-8.44
-11.01
-13.69
-16.48
-19.3
-22.08
-24.72
-27.05
-28.77
-29.45
-28.63
-26.0
-21.53
-15.47
-8.37
-0.8
6.67
13.61
19.7
24.72
28.49
30.94
32.12
32.22
31.56
30.49
29.32
28.27
27.45
26.86
26.47
26.2
25.97
25.67
25.23
24.57
23.61
22.34
20.69
18.63
16.17
13.34
10.26
7.09
3.96
0.95
-1.94
-4.81
-7.79
-11.02
-14.59
-18.52
-22.65
-26.61
-29.85
-31.76
-31.79
-29.67
-25.48
-19.67
-12.91
-5.95
0.59
6.36
11.2
15.14
18.21
20.39
21.56
21.63
20.62
18.76
16.45
14.14
12.24
10.97
10.33
10.16
10.24
10.34
10.28
10.0
9.44
8.55
7.3
5.59
3.35
0.6
-2.53
-5.81
-8.95
-11.77
-14.22
-16.4
-18.51
-20.74
-23.25
-26.09
-29.22
-32.48
-35.57
-38.09
-39.54
-39.49
-37.66
-34.05
-28.89
-22.58
-15.64
-8.49
-1.52
4.96
10.68
15.37
18.83
20.9
21.63
21.26
20.16
18.77
17.47
16.49
15.89
15.6
15.49
15.45
15.39
15.24
14.89
14.22
13.1
11.46
9.36
6.91
4.28
1.63
-0.98
-3.52
-6.01
-8.43
-10.79
-13.07
-15.32
-17.63
-20.16
-23.01
-26.16
-29.46
-32.58
-35.02
-36.21
-35.6
-32.92
-28.15
-21.73
-14.32
-6.69
0.47
6.72
11.86
15.83
18.63
20.3
20.88
20.51
19.4
17.86
16.23
14.77
13.65
12.95
12.64
12.62
12.79
13.02
13.21
13.23
12.99
12.36
11.22
9.51
7.29
4.69
1.96
-0.67
-3.05
-5.19
-7.16
-9.16
-11.33
-13.82
-16.66
-19.79
-23.02
-25.95
-28.03
-28.64
-27.33
-23.94
-18.73
-12.29
-5.34
1.5
7.78
13.27
17.85
21.4
23.82
25.01
24.99
23.96
22.22
20.16
18.14
16.39
15.02
14.02
13.29
12.75
12.31
11.93
11.57
11.13
10.46
9.36
7.64
5.19
2.04
-1.59
-5.45
-9.22
-12.66
-15.66
-18.24
-20.55
-22.79
-25.14
-27.72
-30.49
-33.27
-35.69
-37.24
-37.41
-35.78
-32.22
-26.87
-20.19
-12.8
-5.31
1.77
8.12
13.52
17.86
21.04
23.01
23.79
23.55
22.56
21.2
19.81
18.66
17.86
17.37
17.1
16.93
16.77
16.6
16.38
16.07
15.57
14.76
13.5
11.74
9.47
6.75
3.72
0.54
-2.61
-5.56
-8.25
-10.72
-13.09
-15.63
-18.58
-22.06
-26.04
-30.24
-34.15
-37.15
-38.62
-38.13
-35.5
-30.87
-24.68
-17.51
-10.04
-2.87
3.51
8.79
12.8
15.58
17.29
18.19
18.56
18.61
18.48
18.2
17.82
17.42
17.14
17.11
17.39
17.85
18.25
18.33
17.94
17.09
15.9
14.52
13.01
11.29
9.26
6.83
4.04
1.08
-1.82
-4.48
-6.86
-9.06
-11.3
-13.82
-16.79
-20.3
-24.23
-28.29
-32.03
-34.85
-36.21
-35.73
-33.25
-28.93
-23.15
-16.51
-9.6
-3.01
2.83
7.65
11.34
13.87
15.24
15.47
14.67
12.99
10.74
8.31
6.09
4.29
2.97
2.02
1.31
0.76
0.42
0.36
0.6
1.0
1.26
1.03
0.02
-1.85
-4.42
-7.37
-10.31
-12.9
-14.99
-16.61
-17.92
-19.2
-20.68
-22.43
-24.31
-25.94
-26.78
-26.27
-23.97
-19.71
-13.64
-6.21
2.0
10.31
18.19
25.25
31.22
35.94
39.26
41.1
41.43
40.38
38.21
35.32
32.13
29.06
26.4
24.34
22.88
21.92
21.31
20.82
20.25
19.46
18.3
16.69
14.55
11.89
8.81
5.48
2.09
-1.27
-4.62
-8.04
-11.55
-15.15
-18.76
-22.34
-25.96
-29.72
-33.64
-37.52
-40.87
-43.0
-43.29
-41.4
-37.35
-31.51
-24.5
-16.94
-9.39
-2.24
4.24
9.9
14.62
18.29
20.84
22.2
22.43
21.67
20.21
18.4
16.61
15.11
14.01
13.27
12.75
12.35
12.03
11.84
11.84
11.97
12.02
11.64
10.49
8.41
5.47
2.01
-1.58
-4.99
-8.08
-10.87
-13.5
-16.08
-18.73
-21.53
-24.59
-27.95
-31.5
-34.94
-37.69
-39.08
-38.5
-35.62
-30.51
-23.6
-15.61
-7.3
0.66
7.77
13.72
18.37
21.71
23.84
24.91
25.13
24.76
24.06
23.25
22.5
21.92
21.52
21.25
21.07
20.91
20.73
20.47
20.04
19.33
18.19
16.53
14.32
11.62
8.59
5.4
2.24
-0.73
-3.44
-5.94
-8.47
-11.36
-14.9
-19.17
-23.93
-28.61
-32.46
-34.81
-35.19
-33.46
-29.78
-24.53
-18.19
-11.27
-4.32
2.19
7.82
12.27
15.44
17.35
18.17
18.12
17.42
16.28
14.91
13.49
12.25
11.32
10.76
10.46
10.27
9.98
9.45
8.68
7.67
6.47
5.05
3.32
1.2
-1.29
-4.03
-6.79
-9.34
-11.57
-13.52
-15.39
-17.43
-19.86
-22.78
-26.15
-29.66
-32.86
-35.11
-35.81
-34.52
-31.11
-25.81
-19.16
-11.85
-4.5
2.36
8.4
13.48
17.49
20.4
22.21
23.0
22.9
22.23
21.29
20.41
19.79
19.49
19.43
19.45
19.42
19.31
19.14
18.96
18.74
18.36
17.6
16.25
14.2
11.48
8.28
4.86
1.48
-1.68
-4.52
-7.08
-9.48
-11.87
-14.46
-17.42
-20.85
-24.72
-28.74
-32.44
-35.18
-36.37
-35.55
-32.58
-27.61
-21.08
-13.63
-5.93
1.37
7.8
13.08
17.06
19.74
21.15
21.37
20.57
19.0
17.02
15.02
13.35
12.22
11.67
11.61
11.84
12.16
12.38
12.37
12.04
11.37
10.37
9.1
7.6
5.88
3.87
1.55
-1.06
-3.8
-6.44
-8.79
-10.81
-12.65
-14.61
-16.95
-19.8
-23.07
-26.48
-29.69
-32.32
-33.96
-34.23
-32.77
-29.39
-24.15
-17.45
-9.91
-2.24
4.96
11.28
16.51
20.52
23.23
24.6
24.63
23.5
21.58
19.31
17.15
15.39
14.13
13.3
12.76
12.39
12.16
12.09
12.17
12.33
12.39
12.11
11.27
9.76
7.61
4.97
2.09
-0.75
-3.28
-5.39
-7.06
-8.47
-9.94
-11.83
-14.44
-17.86
-21.94
-26.25
-30.17
-33.01
-34.15
-33.17
-29.98
-24.79
-18.12
-10.65
-3.05
4.13
10.56
16.09
20.63
24.06
26.25
27.13
26.78
25.51
23.79
22.14
20.86
20.07
19.64
19.37
19.05
18.58
17.96
17.25
16.52
15.77
14.92
