12.63
4.64
-1.96
-8.72
-16.78
-26.7
-38.37
-51.23
-64.49
-77.44
-89.49
-100.35
-109.97
-118.57
-126.7
-135.22
-145.26
-157.89
-173.49
-191.02
-207.6
-218.68
-219.13
-205.01
-175.2
-132.36
-82.46
-33.1
8.71
38.27
53.95
56.64
48.66
32.76
11.55
-12.57
-37.45
-61.2
-82.49
-100.57
-114.95
-125.04
-129.89
-128.41
-120.03
-105.45
-86.75
-67.02
-49.34
-35.83
-27.11
-22.56
-21.0
-21.53
-24.01
-29.05
-37.62
-50.56
-68.2
-90.33
-116.09
-143.85
-171.04
-194.28
-209.86
-214.67
-207.26
-188.47
-161.15
-129.16
-96.03
-63.79
-32.8
-2.31
28.33
58.55
86.22
108.15
121.39
124.49
118.31
105.83
91.08
77.71
67.81
61.71
58.38
56.48
54.89
52.96
50.26
46.27
40.5
32.78
23.57
13.93
5.1
-1.97
-7.07
-10.76
-14.13
-18.48
-25.12
-35.24
-49.62
-68.13
-89.2
-109.73
-125.64
-133.11
-129.83
-115.8
-92.98
-64.18
-31.95
1.86
35.75
67.78
95.15
114.87
124.92
125.42
118.9
109.42
101.01
96.36
96.36
100.53
107.97
118.13
130.93
146.29
163.51
181.04
196.69
208.4
214.92
216.21
213.44
208.27
202.26
196.24
190.12
183.15
174.25
162.4
146.97
128.02
106.77
85.81
68.98
60.67
64.56
82.35
112.95
152.68
196.43
239.06
276.62
306.7
327.97
339.44
339.92
328.12
303.23
265.75
217.77
162.94
105.73
50.65
1.47
-39.34
-70.67
-92.69
-106.52
-113.94
-116.95
-117.52
-117.32
-117.62
-119.18
-122.19
-126.37
-131.13
-135.83
-140.2
-144.54
-149.67
-156.17
-163.7
-170.32
-172.65
-166.7
-149.35
-119.32
-77.54
-26.56
30.36
89.87
148.7
203.42
250.37
285.97
307.59
314.38
307.53
289.94
265.16
236.52
206.53
176.88
148.61
122.34
98.17
75.61
53.5
30.15
3.88
-26.44
-61.02
-98.81
-137.8
-175.55
-209.86
-239.33
-263.68
-283.61
-300.22
-314.22
-325.17
-331.26
-329.75
-317.91
-294.15
-258.69
-213.63
-162.31
-108.55
-55.91
-7.39
34.6
68.21
92.23
106.2
110.65
107.08
97.81
85.58
73.2
63.12
57.04
55.58
58.2
63.47
69.52
74.69
78.0
79.24
78.82
77.38
75.47
73.21
70.26
65.65
57.95
45.52
27.15
2.88
-25.39
-53.77
-77.22
-90.97
-92.1
-80.57
-59.14
-32.34
-4.87
19.72
39.58
54.27
63.94
68.69
68.26
62.34
51.18
35.97
18.85
2.29
-11.56
-21.65
-28.19
-32.36
-35.67
-39.25
-43.52
-48.19
-52.79
-57.02
-61.18
-66.06
-72.74
-82.23
-95.25
-111.95
-131.75
-153.02
-172.97
-187.85
-193.65
-187.28
-167.58
-135.85
-95.63
-51.63
-8.43
30.52
63.31
89.24
108.21
120.28
125.64
124.92
119.53
111.78
104.51
100.27
100.58
105.45
113.42
122.2
129.52
133.84
134.83
133.3
130.74
128.69
127.95
127.95
126.62
120.62
106.29
80.75
43.1
-4.8
-58.23
-110.31
-153.28
-180.25
-186.76
-171.83
-138.05
-90.86
-37.03
16.9
65.87
106.81
138.53
161.26
176.17
184.97
189.61
191.89
193.04
193.43
192.53
189.33
182.84
172.62
158.97
142.74
125.01
106.57
87.69
68.07
47.11
24.33
-0.22
-25.77
-50.89
-73.98
-93.93
-110.55
-124.78
-138.37
-153.03
-169.54
-186.8
-201.69
-209.53
-205.44
-185.88
-150.04
-100.3
-41.71
19.41
77.03
126.62
165.51
192.77
208.58
213.92
210.41
200.31
186.45
171.89
159.44
150.99
147.28
147.8
151.07
155.27
158.71
160.3
159.68
157.1
153.01
147.64
140.79
131.77
119.85
104.67
86.67
67.03
47.22
28.27
10.18
-8.15
-28.47
-52.38
-80.7
-112.94
-147.4
-181.29
-211.04
-232.83
-243.27
-240.24
-223.72
-196.16
-161.98
-126.43
-94.18
-68.22
-49.64
-38.13
-32.78
-32.65
-37.0
-45.0
-55.43
-66.64
-76.84
-84.66
-89.45
-91.45
-91.48
-90.44
-88.89
-86.75
-83.44
-78.17
-70.5
-60.63
-49.53
-38.75
-30.0
-24.52
-22.74
-24.18
-27.69
-31.99
-36.16
-40.04
-44.09
-49.16
-56.08
-65.34
-76.97
-90.32
-103.9
-115.3
-121.29
-118.45
-104.16
-77.67
-40.77
2.43
46.43
85.78
116.42
136.37
145.74
146.05
139.35
127.53
111.99
93.72
73.63
52.83
32.63
14.37
-1.03
-13.33
-22.88
-30.4
-36.51
-41.44
-45.27
-48.2
-50.99
-55.0
-61.79
-72.49
-87.16
-104.56
-122.47
-138.42
-150.52
-157.99
-161.39
-162.16
-162.21
-163.25
-166.33
-171.38
-176.98
-180.42
-178.31
-167.52
-146.3
-115.09
-76.53
-34.75
5.87
41.78
70.81
91.99
105.12
110.33
108.09
99.39
86.0
70.4
55.19
42.41
32.92
26.42
21.88
18.29
15.2
12.89
12.01
13.0
15.58
18.61
20.34
19.04
13.58
3.92
-8.88
-22.92
-36.01
-46.28
-52.85
-56.29
-58.8
-63.91
-75.49
-96.33
-126.59
-162.83
-198.32
-224.78
-235.11
-225.77
-198.18
-158.06
-113.31
-71.3
-36.83
-11.52
5.36
15.4
19.74
18.69
12.24
0.8
-14.38
-31.46
-48.73
-65.21
-80.77
-95.6
-109.51
-121.42
-129.54
-132.14
-128.37
-118.81
-105.31
-90.32
-76.01
-63.77
-54.0
-46.49
-40.83
-36.86
-34.84
-35.32
-38.98
-46.15
-56.39
-68.2
-79.04
-85.69
-85.13
-75.41
-56.4
-29.85
1.07
32.85
62.64
88.76
110.68
128.56
142.66
153.02
159.5
162.03
160.85
156.63
150.42
143.42
136.72
131.17
127.21
124.9
123.93
123.66
123.27
121.85
118.68
113.29
105.67
96.19
85.55
74.47
63.47
52.67
41.63
29.54
15.54
-0.74
-18.64
-36.22
-50.55
-58.42
-57.39
-46.64
-27.34
-2.23
25.23
51.94
75.77
95.68
111.45
123.08
130.52
133.63
132.44
127.43
119.62
110.45
101.43
93.74
88.02
84.26
81.92
80.3
78.73
76.79
74.38
71.46
67.86
63.16
56.7
47.81
36.05
21.32
3.82
-16.03
-37.58
-59.72
-80.66
-97.84
-108.37
-109.83
-101.18
-83.29
-58.81
-31.27
-4.1
20.33
40.86
57.31
69.81
78.46
83.1
83.67
80.47
74.46
67.04
59.78
53.9
49.95
47.72
46.51
45.38
43.63
40.98
37.5
33.49
29.18
24.57
19.38
13.17
5.39
-4.37
-16.36
-30.37
-45.53
-60.17
-71.87
-77.99
-76.38
-66.22
-48.38
-25.24
-0.01
24.25
45.38
62.33
74.89
83.21
87.36
87.29
83.07
75.18
64.72
53.29
42.6
34.05
28.27
25.09
23.64
22.82
21.68
19.79
17.16
14.16
11.09
8.0
4.61
0.43
-5.11
-12.46
-21.89
-33.32
-46.18
-59.15
-70.19
-76.78
-76.69
-68.74
-53.4
-32.7
-9.63
12.79
32.35
47.95
59.41
66.92
70.62
70.47
66.51
59.18
49.53
39.08
29.46
21.94
17.1
14.79
14.31
14.79
15.4
15.56
14.87
13.08
9.99
5.54
-0.21
-7.0
-14.41
-22.11
-29.93
-37.91
-46.01
-53.78
-60.11
-63.26
-61.37
-53.17
-38.55
-18.72
4.15
27.56
49.3
67.7
81.49
89.57
90.85
84.55
70.54
49.9
24.88
-1.41
-25.72
-45.37
-58.83
-65.86
-67.35
-64.82
-59.92
-54.14
-48.51
-43.73
-40.17
-38.07
-37.48
-38.39
-40.71
-44.4
-49.53
-56.24
-64.44
-73.48
-81.87
-87.49
-88.06
-82.01
-69.1
-50.65
-29.07
-7.15
12.84
29.54
42.54
51.98
58.14
61.19
61.19
58.35
53.19
46.62
39.76
33.66
29.01
25.97
24.14
22.84
21.36
19.23
16.38
13.07
9.65
6.36
3.14
-0.34
-4.61
-10.13
-17.22
-26.03
-36.47
-48.11
-60.02
-70.64
-77.93
-79.85
-75.04
-63.41
-46.37
-26.43
-6.39
11.45
25.82
36.46
43.75
48.21
50.23
50.01
47.74
43.77
38.69
33.27
28.25
24.24
21.47
19.81
18.86
18.08
16.96
15.17
12.56
9.22
5.28
0.93
-3.72
-8.6
-13.76
-19.3
-25.45
-32.54
-40.85
-50.41
-60.69
-70.45
-77.78
-80.61
-77.29
-67.34
-51.7
-32.54
-12.59
5.7
20.75
32.07
39.94
44.97
47.69
48.44
47.45
45.0
41.51
37.53
33.58
30.06
27.18
24.95
23.27
21.93
20.67
19.21
17.3
14.72
11.33
7.14
2.23
-3.19
-8.89
-14.66
-20.43
-26.34
-32.73
-40.05
-48.49
-57.7
-66.58
-73.34
-76.0
-73.04
-64.04
-49.84
-32.38
-13.99
3.24
17.98
29.65
38.25
43.96
46.92
47.26
45.27
41.51
36.77
31.92
27.61
24.2
21.62
19.6
17.79
15.95
14.08
12.28
10.7
9.31
7.96
6.41
4.42
1.97
-0.75
-3.4
-5.59
-7.15
-8.21
-9.28
-11.11
-14.57
-20.33
-28.6
-38.9
-49.85
-59.41
-65.26
-65.52
-59.4
-47.48
-31.58
-14.11
2.64
17.18
28.94
38.01
44.72
49.25
51.52
51.41
49.08
45.05
40.24
35.68
32.19
30.17
29.45
29.5
29.66
29.4
28.5
27.02
25.2
23.24
21.16
18.77
15.75
11.73
6.47
-0.0
-7.36
-15.03
-22.29
-28.55
-33.52
-37.33
-40.53
-43.86
-48.01
-53.37
-59.85
-66.81
-73.08
-77.06
-77.11
-71.89
-60.94
-44.84
-25.12
-3.92
16.74
35.42
51.55
65.29
77.26
88.25
98.94
109.87
121.39
133.77
147.2
161.84
177.62
194.05
209.97
223.56
232.76
236.01
233.03
225.2
215.19
205.91
199.39
196.05
194.77
193.76
191.65
188.21
184.3
181.11
179.24
178.13
176.37
172.49
165.79
156.69
146.46
136.4
127.16
118.55
109.86
100.53
90.64
80.94
72.47
65.89
61.15
57.4
53.29
47.44
38.76
26.67
11.05
-7.72
-28.76
-50.6
-71.24
-88.58
-101.08
-108.28
-111.04
-111.13
-110.38
-109.88
-109.6
-108.65
-106.01
-101.27
-94.85
-87.81
-81.3
-76.02
-72.07
-69.07
-66.46
-63.82
-61.0
-58.11
-55.33
-52.88
-50.96
-49.78
-49.6
-50.66
-53.07
-56.61
-60.82
-65.1
-69.05
-72.68
-76.34
-80.42
-84.94
-89.33
-92.58
-93.64
-91.95
-87.64
-81.4
-74.15
-66.7
-59.54
-53.0
-47.31
-42.77
-39.68
-38.3
-38.69
-40.76
-44.34
-49.29
-55.54
-63.1
-72.1
-82.68
-94.94
-108.74
-123.54
-138.37
-152.07
-163.68
-172.87
-180.13
-186.52
-193.26
-201.05
-209.8
-218.62
-226.24
-231.57
-234.12
-234.29
-233.21
-232.52
-233.94
-238.75
-247.14
-257.57
-266.53
-269.01
-259.86
-235.71
-196.55
-146.28
-91.75
-40.6
1.06
30.16
46.87
53.52
53.25
48.82
42.29
35.23
29.14
25.52
25.65
30.14
38.67
49.92
61.92
72.55
80.08
83.49
82.63
77.96
70.3
60.42
48.89
36.02
21.98
6.86
-9.25
-26.41
-44.85
-64.77
-85.77
-106.32
-123.48
-133.37
-132.28
-118.1
-91.38
-55.34
-15.05
24.09
57.82
83.7
101.07
110.41
112.63
108.77
99.93
87.56
73.46
59.56
47.52
38.35
32.18
28.5
26.48
25.41
24.97
25.13
25.89
26.96
27.63
26.82
23.46
16.86
7.02
-5.45
-19.47
-33.9
-47.95
-61.36
-74.56
-88.47
-104.06
-121.56
-139.74
-155.5
-164.32
-161.6
-144.34
-112.54
-69.42
-20.47
28.37
72.37
108.76
136.44
155.17
164.95
166.03
159.31
146.82
131.48
116.25
102.97
91.8
81.31
69.66
55.79
40.35
25.56
14.26
8.47
8.29
11.68
15.2
15.4
10.11
-0.78
-15.59
-31.77
-47.0
-60.14
-71.45
-82.46
-95.32
-112.02
-133.47
-158.68
-184.25
-204.69
-213.54
-205.4
-177.96
-133.25
-77.39
-18.9
33.94
75.23
102.56
116.55
119.52
114.03
102.13
85.38
65.38
44.3
24.77
9.32
-0.37
-4.07
-2.96
0.93
5.55
9.42
11.91
12.85
12.1
9.18
3.32
-6.09
-18.99
-34.38
-50.53
-65.62
-78.49
-89.06
-98.45
-108.51
-121.11
-137.15
-155.76
-173.91
-186.78
-189.08
-176.74
-148.48
-106.48
-55.71
-2.45
47.51
90.13
123.36
146.69
160.39
165.04
161.48
151.14
136.15
119.2
102.97
89.61
80.23
74.9
72.94
73.4
75.56
79.06
83.81
89.52
95.42
100.19
102.26
100.36
93.93
83.34
69.62
54.0
37.39
20.13
1.89
-18.2
-41.13
-67.59
-97.21
-128.03
-156.15
-176.37
-183.45
-173.94
-147.52
-107.47
-59.77
-11.44
31.38
64.74
87.17
99.25
102.73
99.77
92.6
83.28
73.74
65.62
60.09
57.71
58.32
61.2
65.33
69.69
73.55
76.55
78.52
79.25
78.21
74.57
67.47
56.34
41.38
23.62
4.76
-13.32
-29.11
-42.0
-52.51
-62.18
-73.06
-86.72
-103.33
-120.83
-135.02
-140.68
-133.3
-110.89
-75.03
-30.51
16.19
58.89
93.27
117.48
131.65
136.98
134.9
126.76
113.94
98.09
81.17
65.08
51.32
40.66
33.13
28.26
25.35
23.59
22.18
20.19
16.66
10.77
2.09
-9.19
-22.36
-36.33
-50.02
-62.65
-73.94
-84.18
-94.23
-105.33
-118.64
-134.36
-150.97
-164.86
-171.01
-164.55
-142.69
-106.08
-58.9
-7.65
41.08
82.36
113.92
135.76
149.1
155.36
155.73
151.25
143.3
133.72
124.5
117.16
112.24
109.19
106.67
103.36
98.43
91.85
84.06
75.46
65.98
55.06
41.93
26.18
8.12
-11.23
-30.44
-48.22
-63.87
-77.42
-89.62
-101.74
-115.2
-131.04
-149.27
-168.25
-184.58
-193.62
-190.92
-173.77
-142.53
-100.69
-53.81
-7.83
32.56
64.58
87.12
99.98
103.37
97.93
85.16
67.7
49.1
32.89
21.55
15.84
14.86
16.61
18.98
20.37
20.04
18.02
14.76
10.7
6.0
0.33
-7.02
-16.78
-29.32
-44.32
-60.75
-77.19
-92.51
-106.25
-118.86
-131.57
-145.85
-162.7
-181.9
-201.49
-217.78
-226.06
-221.97
-203.2
-170.58
-128.23
-82.35
-39.23
-3.33
23.7
42.73
55.96
65.66
73.36
79.99
86.29
93.2
101.69
112.26
124.48
136.96
147.77
155.32
158.79
158.25
154.16
146.78
135.82
120.59
100.49
75.55
46.6
15.16
-17.17
-49.17
-80.35
-110.91
-141.57
-173.12
-205.97
-239.45
-271.39
-298.14
-315.22
-318.6
-306.15
-278.68
-239.94
-195.66
-151.85
-113.25
-82.44
-59.82
-44.23
-33.65
-25.84
-18.6
-10.06
1.1
15.4
32.39
50.81
69.01
85.47
99.24
110.12
118.43
124.64
128.89
130.76
129.43
124.01
114.08
99.99
82.91
64.42
46.0
28.47
11.81
-4.68
-22.01
-40.98
-61.88
-84.23
-106.56
-126.52
-141.06
-147.23
-142.96
-127.81
-103.15
-71.59
-35.88
2.12
41.71
82.83
124.88
165.86
202.39
230.78
248.53
255.47
253.86
247.36
239.54
232.65
227.14
222.06
216.0
207.91
197.35
184.38
169.05
151.14
130.25
106.14
79.17
50.51
21.97
-4.53
-27.54
-46.53
-61.95
-74.96
-87.04
-99.61
-113.85
-130.43
-149.26
-169.01
-186.93
-199.16
-201.59
-191.26
-167.45
-132.12
-89.44
-44.55
-2.22
34.16
62.83
83.38
96.27
102.39
102.98
99.63
94.32
89.14
85.92
85.74
88.68
93.78
99.6
104.75
108.43
110.64
111.87
112.58
112.74
111.73
108.56
102.45
93.24
81.51
68.42
55.18
42.64
30.98
19.6
7.39
-7.05
-24.72
-45.69
-68.47
-89.85
-105.39
-110.56
-102.14
-79.41
-44.61
-2.25
42.1
83.31
117.74
143.52
160.19
168.12
168.02
160.84
147.91
131.01
112.27
93.77
76.98
62.38
49.56
37.65
25.97
14.64
4.53
-3.15
-7.63
-9.17
-9.05
-9.14
-11.04
-15.44
-21.87
-29.16
-36.02
-41.78
-46.61
-51.47
-57.64
-66.2
-77.48
-90.5
-102.94
-111.26
-111.53
-100.56
-77.01
-42.05
0.88
47.12
92.12
132.56
166.76
194.35
215.53
230.49
239.28
242.02
239.34
232.55
223.54
214.34
206.69
201.54
198.96
198.2
198.05
197.2
194.68
190.08
183.51
175.41
166.11
155.65
143.64
129.52
112.86
93.77
72.89
51.17
29.42
7.92
-13.65
-36.02
-59.85
-85.34
-112.06
-138.85
-163.86
-184.42
-197.26
-199.02
-187.26
-161.73
-124.99
-82.25
-40.05
-4.36
21.07
35.45
40.48
39.13
34.16
27.33
19.14
9.33
-2.43
-15.98
-30.34
-43.92
-54.95
-62.15
-65.2
-64.87
-62.76
-60.7
-60.25
-62.48
-68.02
-77.35
-90.77
-108.19
-128.62
-149.96
-169.22
-183.38
-190.59
-190.99
-186.91
-181.99
-179.9
-183.06
-192.05
-205.68
-221.4
-235.88
-245.38
-246.11
-234.82
-209.41
-169.49
-116.55
-53.77
14.5
83.5
148.59
205.88
252.61
287.33
309.86
320.86
321.32
312.1
293.98
267.93
235.52
198.81
159.99
120.77
82.24
45.18
10.58
-19.98
-44.64
-61.97
-71.78
-75.44
-75.49
-74.73
-75.36
-78.41
-83.77
-90.5
-97.4
-103.42
-107.97
-111.03
-113.1
-115.09
-118.05
-122.96
-130.48
-140.56
-152.07
-162.5
-168.13
-164.75
-149.13
-120.51
-81.45
-37.55
4.16
37.44
58.59
67.17
65.26
56.07
42.61
27.17
11.48
-2.72
-13.41
-18.6
-17.12
-9.22
3.36
17.97
32.07
44.05
53.58
61.19
67.53
72.46
74.9
73.03
65.16
50.64
30.24
5.98
-19.59
-44.32
-67.09
-87.89
-107.59
-127.4
-148.33
-170.75
-193.88
-215.38
-231.27
-236.55
-226.66
-199.4
-156.38
-103.22
-48.04
1.01
38.09
60.88
70.17
68.49
58.79
43.71
25.73
7.51
-8.09
-18.6
-22.66
-20.55
-13.94
-5.06
4.12
12.56
19.99
26.54
32.18
36.39
38.3
37.1
32.5
24.98
15.79
6.51
-1.42
-7.23
-11.08
-14.11
-18.04
-24.59
-34.65
-47.52
-60.5
-69.34
-69.25
-56.53
-29.94
8.6
54.52
101.89
145.19
180.64
206.64
223.34
231.84
233.32
228.71
218.75
204.22
186.1
165.33
142.5
117.54
89.79
58.56
23.82
-13.04
-49.15
-80.78
-104.44
-118.26
-122.63
-120.1
-114.25
-108.25
-103.7
-100.45
-97.22
-92.91
-87.59
-82.82
-81.16
-85.21
-96.65
-115.42
-139.5
-164.84
-185.9
-196.54
-191.48
-167.94
-126.83
-72.93
-13.84
42.18
88.37
120.89
138.96
143.91
138.0
123.56
102.93
78.72
54.11
32.48
16.74
8.41
7.21
11.3
18.15
25.54
32.26
38.08
43.4
48.35
52.42
54.31
52.5
45.96
34.85
20.64
5.67
-7.78
-18.37
-26.18
-32.68
-40.23
-51.36
-68.15
-91.55
-120.77
-152.79
-182.42
-203.09
-208.34
-193.79
-158.77
-106.91
-45.46
16.59
70.83
111.21
134.93
142.03
134.45
115.0
86.72
52.9
17.18
-16.51
-44.57
-64.44
-75.36
-78.4
-75.85
-70.2
-63.18
-55.48
-47.06
-37.7
-27.67
-18.01
-10.39
-6.64
-8.22
-15.72
-28.74
-45.96
-65.47
-85.26
-103.64
-119.54
-132.53
-142.92
-151.52
-159.39
-167.32
-175.1
-181.17
-182.64
-176.04
-158.47
-128.73
-87.91
-39.3
12.3
61.71
104.42
137.31
158.99
169.67
170.74
164.21
152.33
137.26
121.19
106.34
94.96
88.9
89.0
94.68
103.97
114.16
122.69
127.98
129.61
128.06
124.09
118.19
110.44
100.7
89.08
76.13
62.95
50.78
40.6
32.65
26.26
19.96
11.8
-0.18
-17.51
-40.89
-69.7
-101.63
-132.52
-156.82
-168.73
-163.94
-141.18
-102.92
-54.88
-4.16
42.77
81.81
111.62
132.91
147.23
155.91
159.82
159.68
156.6
152.28
148.66
147.24
148.34
150.87
152.64
151.35
145.52
135.17
121.84
107.87
95.4
85.38
77.19
68.95
58.41
44.02
25.64
4.62
-16.81
-36.44
-53.01
-66.65
-78.77
-91.49
-106.96
-126.73
-151.26
-179.48
-208.47
-233.51
-248.68
-248.25
-228.54
-189.51
-135.37
-73.67
-13.17
38.68
77.43
102.05
113.9
115.23
108.09
94.1
75.04
53.47
32.89
17.08
8.89
9.2
16.63
28.07
39.93
49.37
54.98
56.72
55.28
51.22
44.4
34.08
19.46
0.45
-21.88
-45.36
-67.37
-85.68
-99.19
-108.15
-113.9
-118.39
-123.62
-131.27
-142.27
-156.39
-171.7
-184.64
-190.5
-184.67
-163.92
-127.51
-77.52
-18.38
44.1
103.82
155.46
195.04
220.37
231.15
228.84
216.24
196.9
174.5
152.34
132.9
117.62
106.75
99.3
93.43
87.01
78.43
67.16
53.91
40.17
27.49
16.6
6.94
-3.12
-15.67
-32.3
-53.38
-77.75
-102.98
-126.23
-145.2
-158.96
-168.51
-176.36
-185.73
-199.04
-216.49
-235.29
-250.15
-254.87
-244.4
-216.64
-173.15
-118.66
-59.68
-2.88
46.22
83.99
108.84
121.03
122.29
115.34
103.3
89.19
75.55
64.17
56.08
51.58
50.33
51.54
54.28
57.76
61.56
65.56
69.61
73.25
75.49
75.02
70.68
62.1
50.06
36.42
23.52
13.27
6.44
2.2
-1.64
-7.97
-19.4
-37.18
-60.35
-85.55
-107.38
-119.83
-118.05
-100.16
-68.05
-26.9
16.36
55.22
85.03
103.63
110.76
107.21
94.13
73.0
45.98
16.2
-12.57
-36.69
-53.62
-62.35
-63.34
-57.9
-47.47
-33.29
-16.35
2.21
20.97
38.1
51.71
60.2
62.77
59.68
52.2
42.27
31.95
22.7
15.01
8.29
1.14
-8.23
-21.54
-39.97
-63.65
-91.02
-118.53
-141.18
-153.84
-153.19
-139.09
-114.78
-85.51
-56.24
-29.77
-6.22
15.77
37.22
57.3
73.34
82.22
82.18
74.02
60.87
46.88
35.44
28.08
24.37
22.81
22.03
21.65
22.21
24.35
27.77
30.54
29.45
21.18
4.0
-20.96
-49.55
-75.72
-93.58
-99.41
-92.88
-76.94
-56.53
-36.95
-22.32
-14.84
-14.6
-19.92
-27.8
-34.59
-36.76
-31.7
-18.46
2.01
27.19
53.83
78.86
100.03
116.09
126.57
131.53
131.52
127.7
121.93
116.45
113.32
113.61
117.02
122.0
126.44
128.54
127.55
123.97
119.15
114.63
111.39
109.4
107.62
104.52
98.74
89.81
78.34
65.65
52.98
40.56
27.29
11.02
-10.35
-37.96
-71.13
-107.31
-142.5
-171.83
-190.28
-193.42
-178.35
-144.7
-95.31
-36.09
25.21
80.9
125.15
154.9
169.65
170.39
158.7
136.39
105.78
70.13
33.56
0.24
-26.63
-45.65
-57.23
-62.8
-63.89
-61.53
-56.25
-48.59
-39.62
-31.08
-25.02
-23.2
-26.43
-34.4
-45.86
-59.21
-73.23
-87.64
-103.28
-121.67
-144.21
-170.88
-199.36
-224.96
-241.56
-243.31
-226.38
-190.2
-137.61
-74.32
-7.58
55.05
107.02
143.65
162.64
164.2
150.72
126.12
95.12
62.45
32.29
7.84
-9.04
-18.03
-20.38
-18.46
-14.95
-12.01
-10.71
-11.11
-12.76
-15.15
-18.16
-22.06
-27.36
-34.61
-44.28
-56.68
-71.79
-89.26
-108.41
-128.57
-149.33
-170.53
-191.75
-211.58
-227.24
-234.88
-230.78
-212.83
-181.49
-139.69
-91.85
-42.56
4.35
46.09
80.6
106.22
121.77
126.89
122.49
110.91
95.55
80.15
68.04
61.5
61.38
67.09
76.83
88.16
98.65
106.45
110.68
111.34
109.03
104.45
98.04
89.81
79.37
66.15
49.59
29.19
4.54
-24.38
-56.7
-89.97
-119.92
-140.91
-147.32
-135.24
-103.92
-56.18
2.38
64.95
125.13
178.03
220.45
250.53
267.29
270.41
260.38
238.74
208.09
171.77
133.34
95.93
61.95
33.09
10.44
-5.13
-13.05
-13.24
-6.54
5.1
18.87
31.84
41.73
47.51
49.48
48.73
46.35
42.74
37.32
28.64
14.9
-5.38
-32.61
-65.54
-100.73
-132.7
-154.63
-160.2
-145.58
-111.2
-62.15
-6.85
45.43
87.32
115.0
128.31
129.42
121.05
105.21
83.09
55.74
24.92
-6.63
-35.74
-59.66
-76.85
-87.21
-91.56
-91.09
-86.79
-79.38
-69.56
-58.49
-47.88
-39.89
-36.56
-39.2
-48.03
-62.09
-79.55
-98.2
-116.03
-131.68
-144.72
-155.8
-166.39
-178.27
-192.45
-208.3
-222.99
-231.94
-230.28
-214.53
-183.84
-140.04
-86.79
-28.33
31.3
88.43
139.51
181.05
210.19
225.64
228.41
221.81
210.52
199.16
191.06
187.74
188.94
193.21
198.57
203.07
205.14
203.85
198.87
190.32
178.36
163.05
144.36
122.4
97.74
71.59
45.63
21.62
0.95
-15.72
-28.48
-38.08
-45.69
-52.74
-60.63
-70.3
-81.76
-93.52
-102.65
-105.33
-98.13
-79.37
-50.09
-14.03
23.37
56.47
80.93
94.52
97.1
89.98
75.08
54.49
30.23
4.43
-20.73
-43.15
-61.21
-74.13
-82.13
-86.21
-87.63
-87.47
-86.42
-84.83
-83.08
-81.83
-82.03
-84.7
-90.59
-99.86
-112.03
-126.23
-141.42
-156.73
-171.67
-186.17
-200.73
-216.23
-233.57
-252.89
-272.9
-290.56
-301.59
-301.8
-288.61
-261.91
-223.94
-178.28
-128.58
-77.9
-28.73
16.43
54.76
83.54
101.02
107.41
104.98
97.42
88.46
80.74
75.32
71.84
69.28
66.67
63.45
59.37
54.33
47.95
39.61
28.53
14.08
-3.82
-24.57
-46.99
-69.68
-91.5
-111.92
-131.15
-150.01
-169.65
-191.08
-214.81
-240.35
-265.91
-288.52
-304.59
-310.98
-306.1
-290.49
-266.63
-237.92
-207.5
-177.36
-148.25
-120.21
-93.18
-67.45
-43.41
-21.17
-0.16
20.71
42.68
66.52
92.24
119.03
145.54
170.25
191.85
209.47
222.73
231.58
236.02
235.95
231.14
221.43
207.1
189.13
169.08
148.7
129.35
111.48
94.48
77.0
57.51
34.78
8.32
-21.39
-52.72
-82.9
-108.27
-125.08
-130.47
-123.42
-105.08
-78.25
-46.19
-11.42
24.89
62.46
100.77
138.01
170.86
195.45
208.84
210.42
202.15
187.8
171.45
156.18
143.52
133.8
126.91
122.99
122.34
124.9
129.72
134.72
137.24
135.0
126.85
113.14
95.44
75.82
56.02
37.0
18.73
0.34
-19.52
-42.12
-67.97
-96.0
-123.24
-145.16
-156.82
-154.37
-136.36
-104.18
-61.59
-13.58
34.84
79.52
117.36
146.33
165.38
174.45
174.49
167.33
155.4
141.16
126.7
113.57
102.74
94.79
89.9
87.92
88.33
90.2
92.33
93.32
91.85
86.95
78.2
65.78
50.46
33.36
15.75
-1.34
-17.28
-32.15
-46.77
-62.58
-81.11
-103.09
-127.65
-151.74
-170.57
-178.79
-172.35
-149.95
-113.76
-68.78
-21.3
22.85
59.66
87.36
106.03
116.78
121.07
120.26
115.62
108.33
99.61
90.6
82.26
75.22
69.78
66.0
63.74
62.73
62.52
62.49
61.85
59.76
55.52
48.73
39.32
27.55
13.88
-1.12
-16.88
-33.06
-49.76
-67.5
-86.99
-108.3
-130.18
-149.58
-162.09
-163.21
-150.01
-122.48
-83.88
-39.8
3.47
40.81
69.26
88.15
98.44
101.64
99.2
92.23
81.78
69.08
55.61
42.98
32.55
25.14
20.87
19.27
19.57
20.83
22.21
22.95
22.43
20.17
15.82
9.23
0.52
-10.07
-22.17
-35.48
-49.95
-65.91
-83.92
-104.34
-126.65
-148.78
-167.19
-177.48
-175.72
-159.97
-131.14
-92.87
-50.46
-9.26
26.69
55.38
76.53
90.95
99.69
103.67
103.66
100.54
95.48
89.85
85.02
82.01
81.22
82.44
84.93
87.66
89.61
89.92
88.07
83.94
77.71
69.71
60.2
49.32
37.08
23.45
8.47
-7.78
-25.21
-43.6
-62.32
-79.96
-94.16
-101.94
-100.59
-88.72
-67.08
-38.52
-7.33
22.22
46.94
65.41
77.73
84.86
87.75
86.92
82.47
74.54
63.71
51.14
38.39
27.0
18.03
11.81
8.05
6.08
5.21
4.92
4.96
5.21
5.58
5.84
5.6
4.26
1.22
-4.12
-12.26
-23.56
-38.2
-55.91
-75.7
-95.43
-111.93
-121.44
-120.75
-108.23
-84.58
-52.84
-17.53
16.65
45.98
68.39
83.37
91.42
93.43
90.23
82.59
71.43
58.07
44.22
31.8
22.47
17.15
15.82
17.44
20.39
22.94
23.81
22.5
19.32
15.22
11.29
8.39
6.85
6.38
6.26
5.53
3.24
-1.15
-7.58
-14.96
-21.12
-23.02
-17.46
-2.04
23.93
59.04
100.11
143.13
184.42
221.5
253.2
279.23
299.44
313.32
320.13
319.46
311.98
299.62
285.35
272.14
261.97
255.21
250.59
245.97
239.33
229.61
216.98
202.54
187.72
173.65
160.81
149.05
137.87
126.73
115.23
103.11
90.12
75.9
59.99
41.91
21.32
-1.78
-27.06
-53.89
-81.53
-109.21
-136.17
-161.83
-185.76
-207.74
-227.74
-245.97
-262.81
-278.86
-294.96
-311.97
-330.44
-350.16
-369.85
-387.38
-400.55
-407.98
-409.81
-407.75
-404.36
-402.06
-402.35
-405.58
-411.24
-418.66
-427.38
-437.16
-447.79
-458.74
-469.0
-477.2
-481.79
-481.29
-474.56
-461.15
-441.45
-416.71
-388.8
-359.72
-331.18
-304.26
-279.44
-256.74
-235.91
-216.53
-198.01
-179.6
-160.44
-139.84
-117.56
-93.91
-69.69
-45.81
-22.97
-1.32
19.46
40.03
60.95
82.48
104.41
126.23
147.31
167.2
185.85
203.83
222.3
242.77
266.48
293.47
321.96
348.24
367.58
375.58
369.75
350.27
319.96
283.35
245.51
211.02
183.34
164.48
154.71
152.48
154.57
156.75
154.85
145.96
129.17
105.64
77.94
49.19
22.12
-1.47
-20.83
-36.19
-48.42
-58.55
-67.36
-75.07
-81.37
-85.63
-87.46
-87.06
-85.3
-83.46
-82.71
-83.68
-86.21
-89.5
-92.53
-94.4
-94.78
-94.04
-93.29
-94.16
-98.17
-106.0
-116.75
-127.8
-135.3
-135.31
-125.16
-104.4
-74.91
-40.22
-4.37
29.24
58.43
82.33
101.06
115.18
125.44
132.5
136.95
139.29
140.06
139.84
139.22
138.75
138.76
139.29
140.03
140.48
140.1
138.51
135.53
131.14
125.33
117.91
108.61
97.11
83.33
67.5
50.03
31.29
11.55
-8.87
-29.11
-47.35
-60.82
-66.35
-61.4
-45.14
-18.95
13.78
48.58
81.1
108.08
127.79
139.93
145.07
144.27
138.64
129.37
117.58
104.46
91.15
78.59
67.51
58.28
51.03
45.64
41.89
39.37
37.45
35.34
32.18
27.26
20.24
11.24
0.8
-10.35
-21.51
-32.25
-42.54
-52.83
-63.89
-76.49
-90.81
-105.95
-119.73
-128.99
-130.51
-122.13
-103.58
-76.7
-44.96
-12.41
17.35
41.84
59.85
71.2
76.37
76.2
71.79
64.37
55.29
45.85
37.16
30.05
25.04
22.39
22.09
24.0
27.72
32.65
37.98
42.83
46.37
48.09
47.84
45.77
42.22
37.5
31.76
25.05
17.26
8.21
-2.29
-14.43
-28.09
-42.6
-56.53
-67.75
-73.87
-72.99
-64.32
-48.54
-27.6
-4.18
19.0
39.67
56.24
67.79
73.96
74.94
71.48
64.83
56.69
48.82
42.76
39.43
39.03
41.01
44.41
48.19
51.75
55.21
59.49
65.86
75.23
87.61
101.81
115.94
128.16
137.5
144.09
148.84
152.7
155.93
157.71
156.45
150.47
138.74
121.46
100.1
77.09
55.21
36.97
24.06
17.0
15.15
17.01
20.71
24.57
27.46
28.85
28.72
27.33
25.03
22.16
19.13
16.42
14.61
14.19
15.37
17.95
21.44
25.28
29.12
32.88
36.61
40.24
43.33
45.22
45.27
43.15
39.04
33.53
27.34
21.03
14.82
8.55
1.74
-6.15
-15.44
-25.82
-36.08
-44.0
-46.91
-42.38
-29.18
-7.95
18.85
47.51
74.0
94.88
107.93
112.24
108.06
96.5
79.23
58.26
35.73
13.66
-6.27
-22.96
-35.96
-45.42
-51.95
-56.36
-59.51
-62.16
-64.82
-67.78
-71.04
-74.35
-77.31
-79.47
-80.45
-80.07
-78.37
-75.54
-71.89
-67.82
-63.75
-59.85
-55.81
-50.55
-42.18
-28.48
-7.68
20.77
55.63
94.17
132.8
167.9
196.49
216.52
226.85
227.35
218.96
203.66
184.33
164.11
145.57
130.08
117.69
107.47
98.23
89.12
79.83
70.45
61.05
51.38
40.78
28.41
13.6
-3.81
-23.33
-43.98
-64.66
-84.52
-103.34
-121.6
-140.39
-161.1
-184.87
-211.95
-241.21
-269.82
-293.6
-307.77
-308.26
-293.15
-263.55
-223.69
-179.97
-139.26
-107.03
-86.18
-76.7
-76.36
-81.95
-90.45
-99.74
-108.7
-116.83
-123.84
-129.32
-132.79
-133.9
-132.62
-129.36
-124.87
-120.09
-115.99
-113.31
-112.45
-113.33
-115.37
-117.66
-119.18
-119.18
-117.45
-114.53
-111.67
-110.72
-113.61
-121.56
-134.2
-148.83
-160.45
-162.87
-150.73
-121.63
-77.6
-24.84
28.03
72.71
103.58
118.87
120.23
111.24
95.74
76.8
56.38
35.66
15.44
-3.63
-21.05
-36.53
-50.05
-61.66
-71.41
-79.29
-85.32
-89.76
-93.1
-96.01
-99.15
-102.93
-107.43
-112.47
-117.7
-122.79
-127.54
-131.98
-136.47
-141.62
-148.0
-155.44
-162.49
-166.08
-162.13
-146.74
-117.9
-76.58
-26.83
25.3
73.62
113.57
143.14
162.83
174.78
181.71
186.04
189.62
193.69
199.0
205.91
214.48
224.47
235.37
246.44
256.73
265.03
269.79
269.19
261.43
245.26
220.39
187.79
149.47
107.97
65.66
24.18
-15.75
-54.1
-91.21
-127.38
-162.69
-196.63
-227.71
-253.06
-268.48
-269.33
-252.24
-216.89
-167.05
-110.05
-54.79
-9.11
22.35
38.76
42.29
36.46
24.63
9.39
-7.41
-24.23
-39.6
-52.18
-61.06
-65.86
-66.58
-63.34
-56.22
-45.29
-30.79
-13.43
5.56
24.5
41.53
54.98
63.58
66.71
64.45
57.62
47.46
35.2
21.65
6.84
-9.74
-28.33
-47.92
-65.57
-76.69
-76.52
-62.05
-33.77
4.07
44.6
80.62
106.8
120.89
123.48
116.86
103.64
86.02
65.74
44.41
23.79
5.59
-8.93
-19.39
-26.42
-31.32
-35.57
-40.26
-45.75
-51.71
-57.38
-62.0
-65.18
-66.98
-67.64
-67.13
-64.77
-59.34
-49.63
-35.36
-17.69
0.93
17.78
31.15
41.16
49.65
59.08
71.15
85.77
101.0
113.91
121.8
123.06
117.46
105.77
89.17
68.88
46.06
21.92
-2.11
-24.5
-43.85
-59.32
-70.83
-79.09
-85.26
-90.55
-95.83
-101.46
-107.44
-113.64
-119.95
-126.37
-132.99
-139.94
-147.29
-155.06
-163.09
-171.07
-178.53
-185.14
-190.96
-196.48
-202.15
-207.71
-211.49
-210.43
-200.92
-180.12
-147.08
-103.03
-50.81
6.04
63.92
119.31
168.71
208.75
236.96
252.62
257.31
254.49
248.31
242.13
237.69
235.21
234.18
234.13
234.95
236.55
238.17
238.01
233.63
222.71
204.04
178.01
146.53
112.27
77.66
44.2
12.23
-18.77
-49.61
-80.84
-112.24
-142.54
-169.17
-188.43
-196.13
-188.82
-165.27
-127.45
-80.54
-31.65
12.15
45.67
66.54
74.92
72.54
61.57
44.1
22.13
-2.05
-25.75
-46.22
-61.17
-69.39
-70.95
-66.92
-58.9
-48.51
-37.26
-26.57
-17.9
-12.64
-11.94
-16.14
-24.62
-35.79
-47.62
-58.26
-66.76
-73.33
-79.27
-86.59
-97.2
-112.05
-130.29
-148.84
-162.68
-165.93
-153.71
-123.88
-78.35
-22.87
34.33
84.86
122.37
143.82
149.55
142.34
126.04
104.53
81.19
58.81
39.64
25.4
16.97
14.11
15.54
19.26
23.27
26.19
27.44
27.06
25.32
22.18
17.26
10.01
0.09
-12.28
-26.26
-40.68
-54.49
-67.3
-79.66
-92.92
-108.57
-127.1
-147.13
-164.9
-174.93
-171.53
-150.86
-112.6
-60.5
-1.48
56.39
106.14
143.42
166.88
177.45
177.11
167.97
151.87
130.66
106.6
82.47
61.17
44.99
34.88
30.23
29.13
29.13
27.99
24.11
16.66
5.42
-9.5
-27.74
-48.57
-70.88
-93.09
-113.37
-130.06
-142.19
-149.96
-154.95
-159.8
-167.2
-178.58
-192.87
-206.27
-213.22
-208.2
-187.61
-150.95
-100.86
-42.38
18.33
75.0
122.1
155.51
173.07
174.97
163.76
143.64
119.33
94.9
72.95
54.6
39.94
28.67
20.54
15.36
12.96
12.85
14.27
16.16
17.35
16.89
14.17
9.03
1.61
-7.67
-18.36
-29.99
-42.12
-54.48
-67.12
-80.49
-95.16
-111.22
-127.51
-141.3
-148.55
-145.08
-127.82
-95.95
-51.26
2.15
58.72
112.55
158.38
192.28
212.25
218.31
212.37
197.66
177.92
156.6
136.36
118.85
104.95
94.97
88.84
86.16
86.26
88.17
90.67
92.37
91.83
88.02
80.5
69.69
56.73
43.2
30.52
19.59
10.65
3.29
-3.39
-10.68
-20.03
-32.46
-47.78
-63.81
-76.29
-79.77
-69.53
-43.58
-3.9
43.85
92.03
133.36
162.85
178.57
181.09
172.43
154.81
130.13
99.95
65.81
29.53
-6.69
-40.38
-69.21
-91.34
-105.66
-111.89
-110.46
-102.49
-89.69
-74.34
-59.15
-46.87
-39.76
-38.91
-44.03
-53.5
-65.01
-76.39
-86.43
-95.35
-104.66
-116.7
-133.41
-155.13
-179.57
-201.76
-215.01
-212.86
-191.15
-149.62
-92.27
-26.49
38.88
95.72
138.41
164.67
175.36
173.53
163.19
148.22
131.81
116.33
103.52
94.64
90.49
91.17
95.92
103.36
111.83
119.97
126.96
132.43
136.23
138.12
137.66
134.39
128.1
118.91
107.09
92.76
75.41
53.82
26.24
-8.82
-51.37
-98.9
-146.01
-185.07
-208.03
-208.85
-185.68
-141.87
-85.28
-26.09
26.18
65.06
88.24
97.09
95.05
86.01
73.21
59.11
45.74
35.0
28.58
27.6
32.24
41.67
54.46
69.03
83.77
96.86
105.88
107.87
99.93
80.32
49.48
10.38
-32.2
-73.09
-108.27
-135.95
-156.85
-173.48
-189.14
-206.65
-227.26
-249.9
-271.0
-285.11
-286.34
-270.43
-236.55
-188.24
-132.59
-78.22
-32.47
0.52
20.45
29.89
32.48
31.41
28.64
25.15
21.63
18.94
18.17
20.3
25.75
34.25
45.01
56.95
69.0
80.17
89.54
96.26
99.67
99.36
95.2
87.4
76.33
62.48
46.33
28.2
8.01
-14.74
-40.71
-69.96
-100.84
-129.37
-149.38
-154.23
-139.31
-104.42
-54.69
0.57
50.85
87.77
107.36
110.36
100.69
83.13
61.44
37.71
12.94
-12.07
-35.84
-56.19
-70.78
-77.9
-77.14
-69.55
