-123.35
-134.53
-141.68
-147.5
-155.06
-166.58
-182.4
-200.26
-215.31
-221.18
-211.79
-183.48
-136.76
-76.63
-11.35
49.9
99.52
133.06
149.56
150.51
138.73
117.31
89.41
58.42
28.07
2.01
-17.08
-28.21
-32.37
-31.88
-29.15
-25.61
-21.27
-15.27
-6.84
3.76
14.89
23.98
28.43
26.51
17.91
3.75
-13.9
-32.66
-50.55
-66.44
-80.37
-93.45
-107.54
-124.41
-144.82
-167.59
-189.22
-204.35
-207.1
-193.09
-161.19
-114.52
-59.87
-5.96
38.99
69.36
83.19
81.82
68.84
48.55
25.12
2.12
-17.25
-30.1
-34.03
-27.71
-11.42
12.73
41.26
70.29
96.6
118.17
134.15
144.26
148.2
145.39
135.2
117.5
93.06
63.68
31.84
0.09
-29.5
-55.83
-78.91
-99.97
-120.98
-143.77
-168.87
-194.49
-216.39
-228.87
-226.57
-206.32
-168.24
-115.66
-54.26
9.26
68.37
117.55
152.85
172.37
176.47
167.73
150.29
128.85
107.59
89.34
75.53
66.49
61.91
61.12
63.21
66.96
70.78
72.8
71.16
64.29
51.3
32.37
8.79
-17.36
-43.73
-68.4
-90.43
-109.98
-127.95
-145.54
-163.82
-183.47
-204.7
-226.93
-248.49
-266.47
-277.08
-276.61
-262.73
-235.34
-196.61
-149.99
-98.8
-45.52
8.1
60.08
107.39
146.13
172.72
185.56
185.95
177.88
166.45
156.08
149.21
146.2
146.0
147.35
149.53
152.41
156.03
160.02
163.37
164.64
162.42
155.82
144.77
129.87
111.99
91.79
69.35
44.16
15.39
-17.83
-56.03
-99.07
-145.85
-193.81
-238.77
-275.37
-298.17
-303.2
-289.28
-258.39
-214.74
-163.13
-107.49
-50.46
6.0
59.55
106.94
144.61
170.01
182.88
185.59
182.19
176.81
172.36
170.04
169.77
171.08
173.83
178.24
184.42
191.82
198.92
203.42
202.97
195.93
181.98
162.19
138.46
112.64
85.79
57.83
27.73
-5.94
-44.52
-88.98
-139.59
-195.46
-253.77
-309.37
-355.16
-383.76
-389.73
-371.42
-331.53
-276.09
-212.47
-147.51
-86.62
-33.78
8.11
37.1
52.6
55.85
49.99
39.32
28.21
20.05
16.81
19.08
26.54
38.25
52.94
69.08
84.93
98.74
108.93
114.42
114.62
109.56
99.53
84.84
65.55
41.4
12.03
-22.84
-63.17
-108.68
-158.66
-211.7
-265.08
-314.44
-354.15
-378.58
-383.98
-370.02
-340.18
-300.45
-257.31
-215.57
-177.29
-141.99
-107.79
-72.9
-36.7
-0.2
34.22
63.51
85.01
97.36
101.1
98.59
93.19
88.16
85.64
86.26
89.34
93.51
97.2
99.03
97.92
93.1
84.28
71.82
56.62
39.87
22.56
5.11
-12.93
-32.57
-55.07
-81.02
-109.66
-138.5
-163.62
-180.68
-186.31
-179.32
-161.07
-134.94
-104.92
-74.23
-44.32
-14.95
14.91
45.73
76.49
104.56
126.47
139.32
141.84
135.03
121.77
105.93
91.19
80.09
73.72
71.81
73.18
76.19
79.1
80.31
78.64
73.45
64.73
53.06
39.32
24.49
9.31
-5.95
-21.55
-38.11
-56.18
-75.57
-94.87
-111.45
-122.15
-124.34
-117.01
-101.09
-79.11
-54.11
-28.46
-3.18
22.12
48.42
76.21
104.66
131.41
153.22
167.19
171.9
168.13
158.58
146.9
136.41
129.1
125.44
124.72
125.84
127.81
129.9
131.41
131.53
129.37
124.29
116.19
105.6
93.47
80.68
67.54
53.4
36.8
15.99
-10.04
-40.57
-72.52
-100.84
-119.81
-124.76
-113.63
-87.49
-50.09
-6.63
37.6
78.21
112.06
137.23
152.86
159.08
156.96
148.38
135.7
121.34
107.34
95.12
85.44
78.53
74.27
72.36
72.44
74.08
76.71
79.43
81.05
80.32
76.26
68.54
57.68
44.89
31.59
18.94
7.43
-3.26
-14.06
-26.17
-40.64
-57.8
-76.78
-95.22
-109.47
-115.3
-109.18
-89.54
-57.52
-16.9
27.08
69.06
104.86
132.16
150.23
159.46
160.78
155.44
145.06
131.77
117.98
106.03
97.58
93.33
92.84
94.99
98.47
102.27
105.84
108.92
111.24
112.23
111.09
107.11
100.1
90.68
80.09
69.86
61.22
54.78
50.33
47.03
43.65
38.94
32.04
23.07
13.68
7.09
7.63
19.39
44.57
82.34
128.69
177.47
222.22
257.86
281.65
293.03
292.85
282.51
263.6
237.94
207.82
175.92
144.83
116.24
90.36
65.87
40.59
12.6
-18.64
-51.78
-83.94
-111.88
-133.35
-148.03
-157.57
-164.75
-172.19
-181.3
-192.0
-203.13
-213.35
-221.94
-228.97
-235.15
-241.38
-248.32
-256.13
-264.31
-271.5
-275.44
-273.2
-261.91
-239.74
-206.87
-165.83
-121.06
-77.63
-39.93
-10.63
9.56
21.41
26.4
26.1
21.86
14.86
6.21
-2.89
-11.34
-18.25
-23.23
-26.32
-27.95
-28.65
-28.84
-28.75
-28.53
-28.48
-29.16
-31.35
-35.75
-42.59
-51.46
-61.34
-71.01
-79.57
-86.79
-93.26
-100.17
-108.82
-120.06
-133.64
-147.91
-159.82
-165.59
-161.77
-146.4
-119.84
-84.79
-45.38
-5.98
29.98
60.57
85.15
103.8
116.81
124.49
127.43
126.77
124.2
121.67
120.85
122.75
127.54
134.6
142.78
150.62
156.54
159.02
156.77
149.01
135.57
116.99
94.39
69.23
43.04
17.27
-6.93
-28.8
-48.07
-65.02
-80.49
-95.64
-111.63
-128.91
-146.67
-162.53
-172.93
-174.09
-163.38
-140.42
-107.42
-68.57
-28.83
7.5
37.69
60.66
76.6
86.25
90.5
90.24
86.53
80.67
74.12
68.3
64.24
62.4
62.76
64.92
68.4
72.78
77.68
82.64
86.99
89.81
90.08
87.0
80.25
70.19
57.86
44.74
32.37
21.96
14.0
8.03
2.65
-4.15
-14.26
-28.46
-45.8
-63.45
-77.47
-84.16
-81.49
-69.86
-51.92
-31.48
-12.08
3.96
15.88
23.94
28.65
30.18
28.33
22.95
14.37
3.65
-7.65
-17.97
-26.31
-32.45
-36.78
-39.82
-41.79
-42.39
-41.12
-37.8
-33.03
-28.27
-25.4
-25.93
-30.33
-37.82
-46.74
-55.23
-62.08
-67.03
-70.84
-74.83
-80.41
-88.52
-99.24
-111.39
-122.42
-128.76
-126.68
-113.61
-89.22
-55.93
-18.28
18.4
49.66
72.95
87.82
95.28
96.82
93.84
87.44
78.7
68.91
59.56
51.94
46.84
44.28
43.73
44.46
45.96
48.12
50.95
54.33
57.57
59.5
58.75
54.3
45.93
34.34
20.83
6.82
-6.65
-19.25
-31.45
-44.29
-59.01
-76.58
-96.92
-118.43
-137.86
-150.78
-152.95
-141.82
-117.71
-84.05
-46.35
-10.54
18.86
39.6
51.67
56.37
55.22
49.42
39.82
27.42
13.76
0.86
-9.23
-15.15
-16.66
-14.67
-10.72
-6.26
-2.07
1.87
6.14
11.22
16.92
22.25
25.62
25.63
21.73
14.58
5.81
-2.65
-9.39
-14.13
-17.74
-21.9
-28.36
-38.41
-52.4
-69.48
-87.47
-103.04
-112.28
-111.86
-100.14
-78.06
-49.13
-18.42
9.08
29.94
42.95
48.79
49.03
45.05
37.51
26.57
12.53
-3.56
-19.88
-34.24
-44.89
-51.12
-53.42
-53.09
-51.62
-50.04
-48.7
-47.45
-46.09
-44.74
-44.02
-44.75
-47.57
-52.54
-58.92
-65.43
-70.71
-73.91
-75.08
-75.32
-76.43
-80.36
-88.66
-101.89
-119.24
-138.35
-155.46
-166.06
-166.01
-152.95
-127.24
-92.2
-53.18
-15.91
15.15
37.8
52.03
59.08
60.42
57.06
49.69
39.17
26.99
15.27
6.21
1.25
0.61
3.21
7.3
11.32
14.51
17.06
19.7
22.99
26.77
30.06
31.47
29.84
24.82
17.08
8.0
-0.92
-8.62
-14.87
-20.3
-26.13
-33.83
-44.64
-59.08
-76.45
-94.47
-109.42
-116.87
-113.03
-96.08
-67.18
-30.27
9.07
45.36
74.78
95.77
108.73
114.94
115.61
111.37
102.55
89.75
74.4
58.66
45.02
35.37
30.46
29.7
31.61
34.53
37.35
39.75
42.05
44.62
47.3
49.18
48.76
44.53
35.61
22.22
5.59
-12.4
-29.92
-45.79
-59.81
-72.69
-85.77
-100.56
-118.34
-139.68
-163.98
-189.07
-211.18
-225.6
-227.76
-214.79
-186.59
-146.2
-99.02
-51.32
-8.57
25.74
50.35
65.72
73.22
74.35
70.43
62.69
52.55
41.67
31.92
24.94
21.71
22.3
25.9
31.17
36.79
41.8
45.88
49.2
52.02
54.41
55.95
55.84
53.17
47.39
38.54
27.37
15.11
3.0
-8.02
-17.64
-26.12
-34.15
-42.65
-52.62
-64.92
-79.9
-96.99
-114.19
-128.15
-134.76
-130.24
-112.43
-81.59
-40.53
6.13
53.13
95.74
130.64
156.17
172.12
179.33
179.11
173.01
162.62
149.59
135.72
122.89
112.84
106.8
105.12
107.11
111.29
115.85
119.22
120.47
119.43
116.5
112.27
107.13
101.05
93.6
84.16
72.32
58.13
42.24
25.72
9.68
-5.04
-18.17
-30.0
-41.24
-52.78
-65.63
-80.64
-98.22
-117.78
-137.23
-152.9
-160.21
-155.12
-135.61
-102.77
-60.71
-15.3
27.61
63.76
91.19
109.87
120.84
125.27
124.09
118.1
108.33
96.34
84.04
73.37
65.78
61.83
61.22
62.96
65.8
68.68
70.93
72.33
72.98
73.01
72.34
70.59
67.16
61.45
53.24
42.84
31.05
18.9
7.19
-3.81
-14.43
-25.39
-37.49
-51.33
-67.25
-85.32
-105.2
-125.79
-144.87
-159.05
-164.42
-157.73
-137.69
-105.79
-66.05
-23.86
15.55
48.47
73.18
89.56
98.36
100.54
97.03
88.86
77.46
64.66
52.46
42.51
35.72
32.07
30.86
31.17
32.31
34.02
36.33
39.19
42.08
43.95
43.43
39.4
31.48
20.24
7.06
-6.38
-18.68
-29.21
-38.23
-46.79
-56.34
-68.29
-83.42
-101.32
-120.07
-136.35
-146.1
-145.63
-132.94
-108.49
-75.24
-37.79
-1.01
31.23
56.8
75.14
86.72
92.19
92.1
86.93
77.49
65.22
52.16
40.47
31.83
26.97
25.47
26.19
27.78
29.27
30.28
30.87
31.18
31.01
29.67
26.18
19.67
9.85
-2.75
-16.89
-31.02
-43.8
-54.58
-63.61
-71.87
-80.77
-91.65
-105.33
-121.64
-139.06
-154.76
-165.04
-166.28
-156.04
-133.97
-102.12
-64.41
-25.48
10.49
40.62
63.54
79.06
87.65
90.1
87.37
80.65
71.44
61.35
51.94
44.34
39.1
36.16
35.01
34.99
35.61
36.62
37.9
39.24
40.13
39.69
36.95
31.27
22.62
11.7
-0.29
-12.11
-22.93
-32.58
-41.59
-50.94
-61.77
-74.85
-90.06
-106.01
-119.95
-128.31
-127.64
-115.88
-93.18
-62.06
-26.69
8.36
39.33
63.98
81.6
92.47
97.3
96.85
91.98
83.74
73.55
63.01
53.54
46.08
40.83
37.47
35.39
34.12
33.5
33.62
34.5
35.82
36.72
36.06
32.73
26.15
16.58
4.99
-7.19
-18.74
-29.03
-38.27
-47.4
-57.72
-70.31
-85.44
-102.1
-117.87
-129.37
-133.05
-126.35
-108.57
-81.31
-47.99
-12.93
19.81
47.3
68.02
81.68
88.72
89.97
86.39
79.15
69.62
59.24
49.38
41.1
34.99
31.17
29.45
29.44
30.7
32.81
35.27
37.48
38.63
37.88
34.52
28.24
19.36
8.69
-2.62
-13.54
-23.45
-32.37
-40.93
-50.14
-60.99
-74.07
-88.96
-104.07
-116.56
-123.0
-120.3
-106.93
-83.55
-53.08
-19.86
11.7
38.23
58.05
70.99
77.83
79.56
77.09
71.18
62.77
53.04
43.4
35.15
29.19
25.77
24.58
25.04
26.54
28.63
30.99
33.21
34.66
34.53
32.05
26.82
19.02
9.42
-0.93
-11.08
-20.57
-29.47
-38.41
-48.29
-59.91
-73.62
-88.79
-103.59
-115.1
-119.91
-115.18
-99.78
-74.75
-43.26
-9.57
22.12
48.77
68.85
82.17
89.27
90.94
88.0
81.31
71.99
61.33
50.71
41.33
33.97
28.92
26.01
24.88
25.07
26.07
27.36
28.27
28.07
26.09
21.9
15.53
7.43
-1.66
-11.02
-20.16
-29.06
-38.1
-48.02
-59.65
-73.48
-89.07
-104.74
-117.51
-123.77
-120.38
-105.85
-81.06
-49.12
-14.42
18.65
46.88
68.58
83.48
92.05
95.05
93.26
87.61
79.31
69.88
60.9
53.65
48.85
46.52
46.2
47.2
48.93
50.98
53.12
55.12
56.58
56.93
55.57
52.08
46.47
39.22
31.14
23.13
15.87
9.6
4.05
-1.56
-8.17
-16.46
-26.28
-36.16
-43.32
-44.14
-35.29
-14.9
16.59
56.28
99.58
141.4
177.38
204.69
222.23
230.24
229.92
223.0
211.61
198.22
185.46
175.83
171.12
171.98
177.68
186.4
195.86
204.06
209.81
212.66
212.57
209.42
202.8
192.22
177.59
159.52
139.38
118.81
99.1
80.68
63.14
45.62
27.35
8.09
-11.82
-31.83
-51.54
-70.93
-90.31
-109.96
-129.82
-149.3
-167.53
-183.61
-196.92
-207.18
-214.38
-218.59
-219.87
-218.35
-214.33
-208.34
-201.01
-192.91
-184.32
-175.15
-165.1
-153.85
-141.31
-127.75
-113.84
-100.52
-88.85
-79.77
-73.94
-71.52
-72.14
-74.95
-78.81
-82.54
-85.3
-86.76
-87.27
-87.82
-89.84
-94.95
-104.52
-119.04
-137.43
-156.8
-172.64
-180.01
-175.0
-156.21
-125.4
-87.02
-46.76
-9.88
20.07
41.62
54.99
61.26
61.77
57.94
51.31
43.63
36.71
32.0
30.17
30.88
33.06
35.32
36.51
36.06
33.86
29.95
24.1
15.68
3.88
-11.83
-31.22
-53.08
-75.51
-96.47
-114.49
-129.24
-141.61
-153.55
-167.43
-185.34
-208.16
-234.76
-261.72
-283.6
-294.28
-288.79
-265.12
-225.23
-174.61
-120.6
-70.18
-28.13
3.64
25.69
39.81
47.97
51.63
51.9
49.75
46.42
43.19
41.11
40.66
41.6
43.22
44.74
45.73
46.27
46.71
47.29
47.72
47.14
44.38
38.53
29.48
18.04
5.68
-6.0
-15.9
-23.84
-30.59
-37.59
-46.36
-57.91
-72.13
-87.52
-101.26
-109.8
-109.83
-99.4
-78.64
-49.84
-16.78
16.34
46.02
70.06
87.57
98.64
103.79
103.72
99.28
91.64
82.26
72.68
64.17
57.41
52.45
48.82
45.99
43.52
41.27
39.21
37.23
34.95
31.71
26.76
19.53
9.91
-1.6
-14.03
-26.18
-37.04
-46.15
-53.78
-60.86
-68.72
-78.52
-90.63
-104.06
-116.33
-123.87
-123.02
-111.27
-88.27
-56.06
-18.49
19.91
55.17
84.71
107.44
123.37
133.09
137.38
137.17
133.62
128.22
122.6
118.2
115.96
116.17
118.48
122.3
127.08
132.56
138.73
145.52
152.54
158.86
163.26
164.69
162.77
158.08
152.06
146.52
142.88
141.59
141.85
141.72
138.58
129.9
114.07
91.24
63.9
36.64
15.25
5.07
9.28
27.89
57.72
93.57
129.82
161.97
187.3
204.85
214.79
217.78
214.76
206.92
195.8
183.22
170.83
159.6
149.54
139.69
128.67
115.28
99.13
80.63
60.68
39.98
18.52
-4.51
-30.26
-59.48
-92.0
-126.51
-160.94
-193.18
-221.68
-245.92
-266.45
-284.7
-302.48
-321.24
-341.06
-359.78
-372.89
-374.4
-358.87
-323.7
-270.75
-206.25
-138.89
-77.1
-26.51
10.92
36.24
51.68
59.04
59.07
52.04
38.72
21.07
2.03
-15.4
-29.22
-39.04
-45.88
-51.32
-56.52
-61.64
-65.94
-68.36
-68.36
-66.38
-63.82
-62.4
-63.45
-67.22
-72.82
-78.61
-82.94
-84.84
-84.46
-82.96
-82.14
-83.78
-89.12
-98.26
-109.92
-121.24
-128.29
-126.87
-113.87
-88.34
-52.09
-9.25
34.9
75.39
108.84
133.73
150.03
158.43
159.76
154.81
144.55
130.47
114.54
98.84
84.99
73.7
64.79
57.48
50.95
44.73
38.87
33.68
29.35
25.72
22.15
17.84
12.24
5.37
-2.06
-8.9
-14.08
-17.08
-18.34
-19.17
-21.46
-27.12
-37.42
-52.39
-70.4
-88.16
-101.27
-105.35
-97.36
-76.92
-46.54
-11.09
23.76
53.21
74.43
86.89
91.68
90.56
85.12
76.54
65.73
53.63
41.35
30.06
20.73
13.92
9.75
8.09
8.71
11.38
15.76
21.27
26.97
31.79
34.75
35.34
33.68
30.36
26.01
20.92
14.69
6.31
-5.65
-22.6
-45.44
-73.96
-106.16
-138.02
-163.77
-177.18
-173.54
-151.45
-113.76
-66.83
-18.59
23.89
56.19
76.99
87.28
89.05
84.27
74.65
61.91
48.12
35.6
26.38
21.48
20.67
22.55
25.35
27.57
28.59
28.61
28.28
28.03
27.64
26.06
21.76
13.24
-0.3
-18.73
-40.81
-64.73
-88.67
-111.35
-132.37
-152.17
-171.57
-191.16
-210.5
-227.59
-238.87
-240.02
-227.25
-198.92
-156.5
-104.53
-49.43
2.33
45.9
78.95
101.37
114.33
119.28
117.38
109.65
97.35
82.36
67.01
53.51
43.38
37.03
33.85
32.7
32.61
33.16
34.41
36.61
39.58
42.49
43.85
42.07
36.06
25.79
12.29
-2.62
-17.09
-29.86
-40.69
-50.37
-60.33
-72.19
-87.09
-105.19
-125.17
-144.11
-157.88
-162.09
-153.56
-131.58
-98.56
-59.44
-20.28
13.64
39.29
56.09
65.3
68.8
68.07
63.92
56.81
47.43
36.97
26.98
18.76
12.91
9.11
6.4
3.72
0.4
-3.69
-8.34
-13.34
-18.79
-25.11
-32.77
-41.91
-52.14
-62.65
-72.44
-80.75
-87.42
-92.88
-98.12
-104.36
-112.91
-124.63
-139.52
-156.18
-171.67
-181.93
-182.8
-171.31
-146.59
-110.21
-65.69
-17.61
29.4
71.35
105.28
129.48
143.44
147.82
144.18
134.64
121.33
106.18
90.7
76.06
63.16
52.6
44.64
39.28
36.31
35.4
36.15
37.94
39.83
40.65
39.27
35.0
27.85
18.59
8.38
-1.69
-11.05
-19.88
-28.99
-39.59
-52.8
-69.04
-87.44
-105.53
-119.45
-124.77
-117.96
-97.64
-65.29
-25.02
17.72
57.66
90.92
115.59
131.43
139.23
140.27
135.92
127.65
117.0
105.52
94.6
85.26
78.1
73.3
70.69
69.99
70.78
72.52
74.47
75.76
75.44
72.7
67.11
58.75
48.19
36.3
23.98
11.89
0.26
-11.23
-23.37
-37.19
-53.41
-71.73
-90.31
-105.73
-113.68
-110.38
-93.94
-65.39
-28.51
11.23
48.34
78.79
100.64
113.87
119.59
119.26
114.21
105.66
94.85
83.16
72.01
62.6
55.61
51.18
48.99
48.51
49.25
50.78
52.65
54.25
54.78
53.38
49.43
42.81
33.98
23.82
13.35
3.26
-6.26
-15.66
-25.88
-37.99
-52.63
-69.42
-86.58
-100.93
-108.61
-106.18
-91.91
-66.53
-33.21
3.41
38.59
68.68
91.84
107.78
117.22
121.12
120.41
115.96
108.77
100.07
91.25
83.51
77.58
73.58
71.12
69.59
68.53
67.72
67.08
66.4
65.18
62.55
57.66
50.01
39.78
27.87
15.6
4.13
-5.85
-14.5
-22.67
-31.59
-42.49
-56.06
-72.02
-88.78
-103.55
-112.78
-113.2
-102.93
-82.24
-53.64
-21.17
10.82
38.9
61.09
76.94
86.93
91.89
92.62
89.87
84.58
77.91
71.17
65.49
61.56
59.44
58.72
58.8
59.24
59.91
60.91
62.31
63.91
65.12
65.11
63.14
58.89
52.62
45.14
37.5
30.6
24.81
19.92
15.11
9.39
1.91
-7.53
-18.14
-28.06
-34.5
-34.53
-25.91
-8.0
17.94
48.91
81.03
110.59
134.84
152.42
163.11
167.43
166.29
160.7
151.83
140.99
129.58
118.84
109.65
102.41
97.09
93.51
91.57
91.38
93.07
96.45
100.64
103.83
103.63
97.6
84.16
63.19
36.3
6.5
-22.51
-47.35
-65.88
-77.76
-84.56
-89.3
-95.3
-104.89
-118.29
-133.19
-145.46
-150.71
-146.14
-131.79
-110.65
-87.56
-67.51
-54.04
-48.55
-50.52
-58.26
-69.81
-83.38
-97.42
-110.47
-121.12
-128.1
-130.53
-128.11
-121.17
-110.57
-97.52
-83.45
-69.79
-57.92
-49.05
-44.14
-43.79
-48.1
-56.52
-67.7
-79.55
-89.47
-95.08
-94.93
-89.22
-79.98
-70.56
-64.59
-64.58
-70.95
-81.66
-92.82
-100.05
-100.05
-91.72
-76.46
-57.46
-38.39
-22.08
-9.66
-0.55
6.78
13.91
21.69
29.98
37.98
44.76
49.64
52.37
53.02
51.74
48.63
43.75
37.28
29.62
21.35
13.0
4.8
-3.4
-11.98
-21.28
-31.24
-41.31
-50.63
-58.43
-64.4
-68.96
-73.16
-78.46
-86.18
-96.9
-109.93
-123.11
-133.05
-136.04
-129.25
-111.83
-85.43
-53.77
-21.55
6.92
28.76
42.91
49.8
50.66
46.94
39.9
30.71
20.44
10.27
1.26
-5.72
-10.24
-12.39
-12.72
-12.08
-11.42
-11.53
-12.97
-16.0
-20.55
-26.29
-32.66
-39.07
-45.05
-50.51
-55.78
-61.6
-68.93
-78.57
-90.76
-104.73
-118.59
-129.43
-133.98
-129.55
-114.88
-90.83
-60.19
-27.0
