-23.06
-47.49
-76.1
-107.27
-138.91
-168.72
-194.75
-215.82
-231.94
-244.22
-254.33
-263.6
-272.01
-277.56
-276.59
-264.81
-238.7
-196.83
-140.3
-72.6
1.01
74.38
141.11
195.27
232.19
249.22
246.39
226.54
194.67
156.83
118.84
85.13
58.36
39.3
27.15
19.85
14.68
8.86
0.13
-12.56
-28.92
-47.41
-65.81
-82.15
-95.36
-105.67
-114.36
-123.11
-133.09
-144.48
-156.47
-167.81
-177.66
-186.15
-194.49
-204.44
-217.6
-234.53
-254.12
-273.44
-288.05
-292.95
-284.06
-259.84
-222.41
-177.59
-133.51
-98.19
-77.02
-71.13
-77.48
-90.4
-103.96
-113.99
-118.92
-119.39
-116.97
-112.99
-107.77
-100.76
-90.96
-77.41
-59.36
-36.26
-7.79
25.85
63.57
103.02
140.71
172.62
195.23
206.4
205.83
194.89
175.94
151.47
123.42
92.81
59.7
23.47
-16.61
-60.84
-108.29
-156.36
-200.74
-236.05
-257.31
-261.44
-248.43
-221.42
-185.73
-146.96
-109.27
-74.39
-41.67
-9.01
25.9
64.46
106.42
149.65
190.41
224.27
247.35
257.69
256.06
245.77
231.53
217.81
207.44
201.19
198.23
197.0
196.17
194.87
192.42
187.97
180.29
168.06
150.43
127.57
100.76
72.14
43.87
17.32
-7.19
-30.22
-52.63
-74.89
-96.92
-118.29
-138.41
-156.53
-171.39
-180.73
-181.63
-171.29
-148.35
-113.71
-70.33
-21.86
29.06
81.79
137.04
194.94
253.05
305.59
344.81
363.65
358.5
330.35
284.12
226.67
164.81
104.34
49.97
5.85
-24.42
-38.52
-36.33
-20.46
4.27
32.3
58.94
81.4
98.86
111.9
121.33
127.51
129.83
126.93
117.15
99.12
72.15
36.48
-6.75
-55.6
-107.39
-158.91
-206.88
-248.45
-281.62
-305.29
-318.8
-321.43
-312.28
-290.6
-256.66
-212.12
-159.69
-101.92
-40.18
25.1
92.97
159.95
219.22
261.94
280.37
270.98
236.01
182.4
119.17
54.66
-4.89
-55.26
-93.55
-117.77
-127.16
-122.95
-108.48
-88.56
-68.06
-50.65
-38.24
-31.37
-29.71
-32.65
-39.59
-49.81
-62.53
-76.98
-92.58
-109.14
-126.89
-146.43
-168.59
-194.16
-223.39
-255.46
-287.95
-316.96
-337.74
-346.1
-339.87
-319.61
-288.53
-251.11
-211.33
-171.47
-131.64
-90.34
-45.65
3.67
57.2
112.57
165.55
210.99
244.22
262.55
266.35
258.99
245.49
230.56
217.03
205.27
193.86
181.08
165.85
148.05
127.97
105.59
80.4
51.78
19.69
-14.88
-50.08
-83.78
-114.33
-141.01
-164.07
-184.45
-203.35
-222.03
-241.49
-262.08
-283.02
-302.09
-315.95
-321.07
-315.14
-298.06
-272.21
-241.39
-209.44
-178.87
-150.3
-122.97
-95.77
-68.01
-39.71
-11.17
17.35
45.78
73.74
100.16
123.24
141.03
152.43
157.77
158.8
157.95
157.19
157.37
158.06
158.15
156.49
152.32
145.32
135.34
122.31
106.32
87.82
67.78
47.42
27.9
9.89
-6.58
-22.15
-37.83
-54.88
-74.43
-97.06
-122.32
-148.29
-171.69
-188.69
-196.05
-192.32
-178.37
-156.9
-131.4
-104.78
-78.68
-53.49
-28.92
-4.72
18.98
41.86
63.86
85.53
107.99
132.46
159.47
188.3
216.96
242.7
263.06
276.76
284.12
286.67
286.36
284.55
281.52
276.59
268.68
257.05
241.64
223.02
201.95
178.95
154.05
127.0
97.6
65.98
32.81
-0.98
-34.65
-67.83
-100.41
-131.75
-160.08
-182.29
-194.59
-193.89
-179.06
-151.39
-114.08
-71.0
-25.61
19.34
61.52
98.42
127.28
145.68
152.47
148.4
136.06
119.02
100.75
83.92
70.1
60.1
54.21
52.53
54.92
60.93
69.73
80.03
90.21
98.39
102.8
102.03
95.52
83.67
67.84
49.93
31.89
15.14
0.26
-13.14
-26.16
-40.37
-57.26
-77.63
-100.88
-124.64
-144.83
-156.54
-155.35
-138.88
-107.72
-65.47
-17.77
29.36
70.93
103.96
127.53
142.24
149.43
150.61
147.3
141.1
133.71
126.88
122.04
119.76
119.45
119.38
117.31
111.34
100.68
85.88
68.59
50.69
33.57
17.57
2.23
-13.23
-29.18
-45.26
-60.44
-73.59
-84.04
-92.01
-98.63
-105.63
-114.8
-127.4
-143.61
-162.0
-179.51
-191.87
-194.66
-184.48
-160.09
-122.75
-75.93
-24.26
27.55
75.67
117.51
151.69
177.8
196.03
207.04
211.86
211.8
208.44
203.49
198.76
195.85
195.9
199.27
205.52
213.58
222.14
230.19
237.28
243.6
249.68
256.01
262.7
269.39
275.37
279.83
281.98
281.02
276.12
266.49
251.59
231.4
206.69
178.79
149.09
118.6
87.82
57.28
28.37
3.83
-12.65
-17.7
-9.91
9.2
35.34
62.77
86.15
101.89
108.62
106.62
97.07
81.35
60.92
37.4
12.68
-11.45
-33.71
-53.77
-72.3
-90.59
-110.08
-131.7
-155.5
-180.63
-205.6
-228.83
-249.12
-265.99
-279.59
-290.34
-298.58
-304.44
-308.0
-309.61
-310.27
-311.62
-315.6
-323.81
-336.75
-353.05
-369.2
-380.0
-379.6
-363.18
-328.54
-277.12
-213.9
-146.21
-81.88
-27.26
13.9
40.74
54.72
58.48
54.97
46.78
35.87
23.74
11.52
0.15
-9.65
-17.5
-23.44
-27.86
-31.31
-34.39
-37.55
-41.12
-45.28
-50.16
-55.84
-62.41
-69.94
-78.37
-87.59
-97.37
-107.52
-118.12
-129.6
-142.7
-157.89
-174.74
-191.22
-203.73
-207.94
-200.21
-179.11
-146.22
-105.72
-63.12
-23.54
9.64
35.15
53.41
65.68
73.18
76.76
76.96
74.28
69.37
63.16
56.72
51.1
47.05
44.89
44.41
44.96
45.74
45.99
45.2
43.19
39.92
35.39
29.51
22.18
13.4
3.33
-7.81
-19.9
-33.11
-47.78
-63.87
-80.42
-95.17
-104.77
-105.81
-95.99
-75.25
-45.98
-12.41
20.74
49.62
72.08
87.72
97.34
102.14
103.14
100.98
96.08
88.98
80.44
71.5
63.22
56.5
51.84
49.28
48.5
48.84
49.52
49.72
48.72
46.06
41.57
35.43
28.06
19.91
11.36
2.5
-6.94
-17.55
-30.05
-44.94
-61.94
-79.5
-94.7
-103.75
-103.14
-90.88
-67.44
-35.72
-0.27
34.14
63.84
86.82
102.7
112.09
115.93
115.16
110.63
103.29
94.2
84.52
75.3
67.29
60.88
56.15
52.98
51.09
50.15
49.63
48.88
47.12
43.64
37.99
30.15
20.57
10.03
-0.57
-10.6
-19.83
-28.61
-37.81
-48.5
-61.4
-76.23
-91.3
-103.48
-108.95
-104.39
-88.24
-61.41
-27.12
10.03
45.47
75.78
99.23
115.51
125.19
129.09
127.97
122.55
113.69
102.48
90.12
77.81
66.42
56.48
48.15
41.38
36.09
32.18
29.4
27.22
24.8
21.1
15.22
6.69
-4.29
-16.92
-30.07
-42.67
-54.09
-64.29
-73.89
-84.02
-95.87
-110.24
-126.85
-143.93
-158.27
-165.88
-163.25
-148.59
-122.69
-88.77
-51.47
-15.44
15.91
40.84
59.12
71.27
77.99
79.86
77.47
71.76
64.09
56.1
49.25
44.5
41.99
41.2
41.31
41.66
41.97
42.38
43.08
43.96
44.49
43.64
40.38
34.09
24.9
13.73
1.89
-9.41
-19.49
-28.4
-36.82
-45.83
-56.5
-69.51
-84.7
-100.69
-114.82
-123.55
-123.44
-112.34
-90.38
-60.07
-25.65
8.25
37.96
61.49
78.51
89.72
96.0
98.07
96.45
91.66
84.56
76.36
68.36
61.66
56.89
54.06
52.77
52.38
52.33
52.31
52.31
52.43
52.78
53.22
53.4
52.74
50.72
46.96
41.44
34.5
26.74
18.87
11.43
4.74
-1.23
-6.71
-12.07
-17.68
-23.93
-31.12
-39.29
-48.0
-56.05
-61.59
-62.52
-57.27
-45.47
-28.28
-8.16
11.97
29.65
43.47
53.14
59.07
61.82
61.69
58.69
52.83
44.47
34.47
24.17
14.97
8.0
3.82
2.3
2.78
4.31
5.91
6.77
6.4
4.55
1.21
-3.49
-9.43
-16.46
-24.44
-33.23
-42.67
-52.44
-62.13
-71.17
-78.95
-85.0
-89.15
-91.61
-92.99
-94.18
-96.19
-99.91
-105.83
-113.61
-121.87
-128.25
-129.9
-124.37
-110.64
-89.56
-63.79
-36.87
-12.1
8.39
24.01
35.29
43.26
48.68
51.87
52.82
51.59
48.66
45.01
41.86
40.28
40.82
43.33
47.14
51.34
55.15
58.18
60.39
61.9
62.81
62.94
61.93
59.32
54.8
48.38
40.49
31.83
23.22
15.32
8.46
2.52
-2.93
-8.54
-14.95
-22.69
-32.09
-43.05
-54.89
-66.12
-74.57
-77.81
-73.94
-62.35
-44.09
-21.71
1.53
22.63
39.59
51.65
58.96
62.12
61.68
58.08
51.78
43.52
34.4
25.74
18.76
14.27
12.37
12.62
14.18
16.19
18.05
19.49
20.49
21.13
21.39
20.96
19.36
16.07
10.76
3.55
-4.96
-13.83
-22.12
-29.23
-35.12
-40.26
-45.38
-51.26
-58.45
-67.24
-77.53
-88.66
-99.19
-106.92
-109.28
-104.12
-90.56
-69.55
-43.65
-16.31
9.24
30.77
47.3
58.79
65.58
68.04
66.53
61.52
53.9
44.89
35.91
28.16
22.32
18.52
16.38
15.29
14.67
14.15
13.62
13.18
12.86
12.45
11.39
8.86
4.07
-3.34
-13.01
-23.96
-34.86
-44.66
-52.96
-60.15
-67.18
-75.14
-84.87
-96.65
-110.12
-124.02
-136.33
-144.35
-145.36
-137.43
-120.18
-95.19
-65.66
-35.48
-8.1
14.27
30.86
41.99
48.37
50.68
49.38
44.96
38.11
29.91
21.67
14.61
9.56
6.72
5.79
6.16
7.3
8.92
10.99
13.53
16.33
18.78
19.86
18.52
14.08
6.58
-3.13
-13.66
-23.68
-32.29
-39.45
-45.83
-52.52
-60.65
-70.95
-83.51
-97.52
-111.13
-121.61
-125.93
-121.52
-107.3
-84.14
-54.81
-23.13
7.07
32.95
53.09
67.28
76.0
79.89
79.5
75.38
68.36
59.63
50.61
42.63
36.58
32.7
30.6
29.69
29.45
29.71
30.49
31.82
33.38
34.37
33.78
30.66
24.58
15.82
5.32
-5.67
-15.99
-24.98
-32.69
-39.85
-47.61
-57.18
-69.32
-83.82
-99.22
-112.85
-121.35
-121.62
-111.8
-91.98
-64.3
-32.33
-0.07
29.12
53.12
71.11
83.16
89.76
91.45
88.86
82.82
74.54
65.49
57.14
50.55
46.1
43.5
42.09
41.22
40.59
40.24
40.32
40.78
41.02
40.08
36.88
30.75
21.81
10.9
-0.68
-11.72
-21.51
-30.07
-38.07
-46.56
-56.6
-68.88
-83.23
-98.38
-111.87
-120.46
-121.0
-111.48
-91.83
-64.17
-32.15
0.11
29.15
52.94
70.82
83.12
90.45
93.34
92.2
87.59
80.48
72.24
64.48
58.56
55.24
54.48
55.56
57.52
59.43
60.73
61.18
60.65
58.89
55.44
49.71
41.3
30.24
17.23
3.46
-9.69
-21.14
-30.48
-38.1
-45.04
-52.62
-62.04
-73.94
-88.04
-102.91
-116.06
-124.29
-124.53
-114.74
-94.83
-66.77
-34.17
-1.21
28.5
52.68
70.46
82.04
88.09
89.32
86.44
80.34
72.25
63.67
56.07
50.56
47.55
46.81
47.61
49.2
51.1
53.17
55.53
58.19
60.82
62.69
62.84
60.51
55.58
48.68
40.99
33.84
28.15
24.1
21.2
18.47
14.88
9.74
3.07
-4.22
-10.2
-12.14
-7.17
6.91
30.78
63.25
101.45
141.66
180.24
214.41
242.33
263.0
275.85
280.61
277.47
267.38
252.12
233.95
215.13
197.11
180.23
163.8
146.61
127.61
106.43
83.48
59.64
35.89
12.79
-9.64
-31.79
-54.15
-76.97
-100.01
-122.65
-144.13
-163.98
-182.31
-199.9
-217.89
-237.3
-258.61
-281.33
-303.98
-324.01
-338.07
-342.35
-333.31
-308.62
-268.19
-214.65
-153.07
-89.85
-31.06
18.98
58.4
87.48
107.74
120.93
128.4
131.04
129.55
124.86
118.2
111.02
104.56
99.61
96.28
94.11
92.36
90.24
87.18
82.83
77.11
69.96
61.31
50.84
38.04
22.25
2.93
-20.05
-46.15
-74.04
-101.83
-127.54
-149.7
-167.88
-182.77
-196.01
-209.64
-225.45
-244.3
-265.53
-286.63
-303.37
-310.67
-303.89
-280.45
-240.83
-188.8
-130.41
-72.28
-19.93
23.41
56.84
81.14
97.82
108.39
114.2
116.49
116.73
116.46
117.15
119.71
124.26
130.17
136.31
141.56
145.24
147.27
147.99
147.9
147.25
145.95
143.52
139.32
132.72
123.31
110.97
95.88
78.55
59.78
40.58
22.02
5.05
-9.76
-22.36
-33.29
-43.62
-54.66
-67.4
-81.94
-96.89
-109.29
-115.22
-110.94
-94.32
-65.78
-28.47
12.64
52.13
85.59
110.38
125.75
132.27
131.12
123.57
110.74
93.72
73.7
52.12
30.73
11.4
-4.18
-14.85
-20.24
-20.81
-17.7
-12.44
-6.61
-1.64
1.32
1.43
-1.73
-8.15
-17.39
-28.73
-41.31
-54.41
-67.52
-80.39
-92.97
-105.29
-117.41
-129.34
-141.08
-152.62
-164.05
-175.67
-188.04
-201.85
-217.41
-234.17
-250.41
-263.43
-270.33
-268.96
-258.58
-240.08
-215.56
-187.62
-158.81
-131.25
-106.64
-86.26
-70.92
-60.8
-55.21
-52.75
-51.5
-49.53
-45.4
-38.48
-29.07
-18.27
-7.63
1.31
7.51
10.65
11.07
9.4
6.2
1.63
-4.44
-12.3
-21.98
-33.1
-44.84
-56.22
-66.51
-75.46
-83.45
-91.43
-100.68
-112.42
-127.36
-145.07
-163.61
-179.56
-188.78
-187.46
-173.38
-146.65
-109.7
-66.51
-21.51
21.37
59.28
90.51
114.22
130.24
138.92
141.18
138.54
132.97
126.66
121.53
118.92
119.3
122.21
126.65
131.5
136.02
140.06
143.92
147.93
152.06
155.61
157.33
155.84
150.22
140.44
127.57
113.44
99.98
88.5
79.25
71.34
63.14
52.77
38.69
20.3
-1.52
-24.1
-43.08
-53.36
-50.51
-32.4
-0.21
41.73
87.26
130.31
166.38
193.18
210.27
218.17
217.73
209.97
196.28
178.64
159.43
140.77
123.88
108.68
94.06
78.62
61.63
43.52
25.89
10.73
-0.54
-7.89
-12.88
-18.11
-26.13
-38.37
-54.49
-72.61
-90.16
-104.96
-116.04
-123.91
-130.17
-136.88
-145.92
-158.37
-174.03
-191.04
-205.8
-213.45
-209.2
-190.01
-156.12
-111.39
-62.36
-16.1
21.93
49.26
66.27
75.07
77.9
76.28
70.93
62.34
51.43
39.64
28.6
19.41
12.35
6.82
1.95
-2.78
-7.22
-10.66
-12.43
-12.5
-11.82
-12.09
-15.23
-22.47
-33.93
-48.5
-64.22
-79.06
-91.57
-101.36
-109.15
-116.48
-125.29
-137.21
-152.83
-171.03
-188.76
-201.45
-204.17
-193.2
-167.46
-129.08
-82.88
-34.94
9.08
45.33
72.25
90.19
100.59
105.06
104.95
101.17
94.46
85.65
75.86
66.5
58.95
54.26
52.87
54.52
58.38
63.35
68.27
72.18
74.36
74.36
71.94
67.08
59.95
50.85
40.11
27.99
14.48
-0.75
-18.19
-38.02
-59.51
-80.51
-97.46
-106.13
-102.88
-86.13
-57.11
-19.71
20.59
58.42
89.85
113.09
128.16
136.15
138.32
135.72
129.13
119.4
107.66
95.26
83.57
73.69
66.26
61.36
58.63
57.41
56.77
55.75
53.5
49.5
43.69
36.41
28.19
19.48
10.44
0.98
-9.21
-20.57
-33.56
-48.48
-65.08
-82.11
-96.99
-106.12
-105.76
-93.43
-69.07
-35.41
2.71
39.8
71.35
94.85
109.94
117.72
119.8
117.53
111.81
103.22
92.48
80.66
69.2
59.61
53.03
49.92
49.92
52.05
55.02
57.66
59.25
59.55
58.79
57.3
55.37
53.01
50.06
46.23
41.39
35.58
28.87
21.29
12.81
3.82
-4.47
-9.57
-8.12
3.21
26.37
60.99
104.18
151.43
198.08
240.51
276.6
305.27
325.62
336.47
336.54
325.34
303.85
274.71
241.48
207.52
175.04
144.64
115.83
87.8
60.24
33.62
8.91
-12.85
-31.12
-45.91
-57.65
-66.93
-74.27
-80.11
-85.07
-90.18
-97.06
-107.82
-124.51
-148.21
-177.98
-210.24
-238.85
-256.5
-256.91
-237.2
-199.46
-150.57
-100.22
-57.88
-30.07
-18.93
-22.63
-37.08
-57.77
-81.08
-104.45
-125.91
-143.59
-155.62
-160.48
-157.55
-147.46
-131.95
-113.46
-94.53
-77.31
-63.28
-53.18
-47.1
-44.66
-45.28
-48.41
-53.65
-60.82
-69.78
-80.48
-92.86
-106.98
-122.9
-140.3
-157.83
-172.66
-180.69
-177.53
-160.14
-128.34
-85.4
-37.28
9.1
47.88
75.67
91.8
97.61
95.32
87.08
74.72
59.82
43.9
28.45
14.68
3.16
-6.22
-14.0
-20.75
-26.63
-31.32
-34.32
-35.45
-35.22
-34.89
-36.1
-40.17
-47.58
-57.78
-69.46
-81.1
-91.6
-100.64
-108.8
-117.29
-127.54
-140.56
-156.28
-172.98
-187.26
-194.6
-190.7
-173.0
-141.86
-100.69
-55.02
-10.79
27.35
56.9
77.52
90.2
96.35
97.19
93.79
87.24
78.96
70.54
63.41
58.34
55.31
53.65
52.46
51.17
49.66
48.21
47.03
45.85
43.82
39.79
32.89
22.94
10.7
-2.43
-14.92
-25.71
-34.61
-42.31
-50.15
-59.64
-71.84
-86.67
-102.5
-116.07
-123.23
-120.07
-104.41
-76.67
-39.98
0.79
40.58
75.42
103.2
123.43
136.58
143.3
144.14
139.66
130.77
118.92
105.91
93.48
82.85
74.46
68.04
63.0
58.81
55.25
52.46
50.59
49.48
48.4
46.09
41.17
32.64
20.41
5.36
-10.84
-26.38
-39.94
-51.09
-60.44
-69.38
-79.65
-92.76
-109.22
-127.99
-146.19
-159.46
-163.11
-153.6
-129.97
-94.35
-51.42
-6.92
34.04
68.2
94.37
112.85
124.5
130.05
130.1
125.37
117.16
107.36
98.08
91.09
87.28
86.41
87.38
88.78
89.55
89.33
88.38
87.28
86.35
85.17
82.67
77.5
68.55
55.68
39.8
22.65
6.23
-7.99
-19.46
-28.74
-37.13
-46.29
-57.74
-72.42
-90.3
-109.94
-128.37
-141.44
-144.84
-135.44
-112.53
-78.31
-37.36
4.69
42.88
73.89
96.46
110.83
117.95
118.88
114.67
106.5
95.81
84.36
73.83
65.4
59.48
55.74
53.42
51.82
50.6
49.86
49.88
50.65
51.56
51.41
48.78
42.65
32.86
20.37
6.93
-5.5
-15.49
-22.64
-27.65
-32.1
-37.88
-46.64
-59.21
-75.14
-92.39
-107.57
-116.59
-115.84
-103.5
-80.3
-49.52
-15.94
15.62
41.66
60.63
72.65
78.67
79.68
76.35
69.27
59.33
47.98
37.02
28.08
22.07
18.9
17.66
17.23
16.85
16.43
16.34
17.0
18.29
19.39
19.0
15.88
9.51
0.35
-10.27
-20.63
-29.33
-35.75
-40.25
-44.02
-48.66
-55.73
-66.18
-79.77
-94.71
-107.62
-114.23
-110.56
-94.41
-66.36
-29.72
10.41
48.86
81.9
107.93
127.24
140.99
150.22
155.4
156.52
153.69
147.48
138.99
129.52
120.09
111.2
102.87
94.94
87.44
80.72
75.39
71.98
70.57
70.62
71.05
70.53
67.88
62.44
54.13
43.46
31.21
18.13
4.72
-9.01
-23.47
-39.43
-57.61
-78.19
-100.2
-121.21
-137.46
-144.76
-139.79
-121.4
-91.22
-53.4
-13.29
24.15
55.58
79.72
96.89
108.01
113.81
114.59
110.49
102.09
90.72
78.37
67.01
58.03
51.73
47.43
43.97
40.31
35.95
31.0
25.9
20.94
15.87
9.86
1.67
-9.77
-24.9
-43.12
-62.87
-82.12
-99.03
-112.67
-123.22
-131.82
-140.06
-149.39
-160.65
-173.67
-187.03
-197.94
-202.61
-197.05
-178.43
-146.36
-103.57
-55.38
-8.21
32.38
63.21
83.85
95.87
101.5
102.48
99.7
93.53
84.57
74.14
64.14
56.47
52.22
51.2
52.07
53.02
52.61
50.4
46.95
43.41
40.68
38.85
37.03
33.7
27.37
17.26
3.63
-12.33
-29.01
-44.96
-59.46
-72.64
-85.41
-99.06
-114.86
-133.61
-155.22
-178.22
-199.52
-214.68
-218.79
-207.92
-180.74
-139.43
-89.43
-37.97
8.05
43.83
67.51
79.73
82.4
77.48
66.43
50.33
30.44
8.73
-12.31
-30.16
-43.04
-50.33
-52.62
-51.2
-47.48
-42.48
-36.65
-30.1
-22.99
-15.92
-9.96
-6.49
-6.71
-11.19
-19.6
-30.7
-42.79
-54.19
-63.76
-71.2
-77.02
-82.27
-88.23
-96.06
-106.5
-119.56
-134.1
-147.68
-156.75
-157.42
-146.68
-123.55
-89.71
-49.18
-7.14
31.52
63.36
86.74
101.52
108.38
108.24
102.18
91.54
78.08
63.88
50.86
40.4
33.03
28.48
26.06
25.09
25.14
26.06
27.69
29.58
30.85
30.35
27.01
20.29
10.5
-1.25
-13.48
-24.85
-34.74
-43.47
-52.18
-62.41
-75.44
-91.72
-110.29
-128.58
-142.67
-148.14
-141.31
-120.65
-87.5
-45.88
-1.43
40.3
75.31
101.7
119.48
129.58
133.07
130.74
123.33
111.98
98.43
84.87
73.3
64.96
59.91
57.22
55.51
53.67
51.28
48.64
46.38
44.86
43.71
41.8
37.62
29.93
18.46
4.03
-11.64
-26.61
-39.48
-49.94
-58.9
-68.11
-79.57
-94.83
-114.24
-136.45
-158.21
-174.76
-180.94
-172.69
-148.6
-110.62
-63.72
-14.42
31.16
68.73
96.4
114.29
123.48
125.22
120.55
110.57
96.82
81.43
66.95
55.62
48.81
46.59
47.89
51.01
54.48
57.56
60.42
63.76
68.11
73.16
77.66
79.75
77.74
70.83
59.39
44.77
28.68
12.42
-3.47
-19.3
-35.95
-54.48
-75.79
-100.22
-127.09
-154.21
-177.84
-193.11
-195.32
-181.5
-151.79
-109.66
-61.01
-12.31
31.35
67.43
95.81
117.73
134.49
146.59
153.88
156.16
154.01
149.03
143.39
138.91
136.32
134.98
133.26
129.46
122.55
112.59
100.53
87.7
75.2
63.52
52.43
41.25
29.25
16.06
1.94
-12.23
-25.22
-36.04
-44.49
-51.4
-58.54
-68.09
-81.88
-100.57
-123.03
-146.09
-164.98
-174.4
-169.91
-149.5
-114.39
-68.88
-19.12
28.71
69.91
102.06
124.64
138.23
143.72
141.97
134.14
122.1
108.48
96.15
87.34
82.86
81.9
82.47
82.48
80.62
76.88
72.26
68.02
64.88
62.49
59.63
54.8
46.96
35.92
22.42
7.63
-7.29
-21.57
-35.05
-48.06
-61.33
-75.9
-92.73
-112.09
-132.72
-151.35
-163.03
-162.48
-146.05
-113.48
-68.4
-17.41
32.08
74.03
105.07
124.53
133.38
133.02
124.62
109.16
88.0
63.25
37.6
13.64
-6.78
-23.15
-36.06
-46.72
-56.31
-65.49
-74.45
-83.18
-91.84
-100.9
-111.0
-122.49
-134.98
-147.26
-157.48
-163.81
-165.12
-161.37
-153.79
-144.65
-136.73
-132.58
-133.64
-139.36
-146.85
-151.22
-146.93
-129.68
-98.25
-55.2
-6.19
41.93
83.39
114.92
136.04
148.02
152.58
150.98
143.87
131.9
116.34
99.27
83.08
69.71
60.03
53.59
49.13
45.36
41.59
37.94
34.98
33.11
31.95
30.26
26.33
18.79
7.25
-7.38
-23.3
-38.56
-51.91
-63.24
-73.56
-84.58
-98.08
-115.22
-135.92
-158.36
-178.89
-192.52
-194.16
-180.28
-150.4
-107.61
-57.83
-7.99
36.11
71.06
96.08
112.09
120.47
122.26
118.14
108.92
96.08
81.87
68.7
58.44
51.77
48.08
45.98
44.04
41.49
38.4
35.39
32.96
31.01
28.54
24.02
16.04
4.04
-11.44
-28.86
-46.32
-62.26
-75.98
-87.75
-98.55
-109.68
-122.3
-137.01
-153.38
-169.52
-182.11
-186.84
-179.73
-158.53
-123.95
-79.78
-31.88
13.54
51.7
80.25
99.1
109.56
113.22
111.28
104.56
93.82
80.28
65.71
52.08
41.08
33.58
29.45
27.79
27.38
27.22
26.85
