-172.48
-196.75
-221.89
-244.5
-259.61
-262.06
-248.0
-216.3
-168.82
-109.95
-45.49
18.43
76.12
122.83
155.15
171.5
172.44
160.63
140.17
115.57
90.96
69.39
52.78
42.04
37.15
37.32
41.14
46.9
53.04
58.42
62.23
63.74
62.21
56.89
47.3
33.62
16.76
-1.79
-20.4
-37.89
-53.9
-69.04
-84.8
-103.23
-126.24
-154.74
-187.65
-221.34
-249.99
-266.95
-266.67
-246.47
-207.25
-153.11
-90.22
-25.53
34.24
83.22
117.05
133.29
131.97
115.56
88.45
55.76
22.17
-8.9
-35.43
-56.39
-71.24
-79.65
-81.45
-76.86
-66.8
-52.88
-37.32
-22.56
-10.68
-3.04
-0.16
-1.94
-7.96
-17.73
-30.62
-45.67
-61.62
-77.31
-92.23
-106.91
-122.5
-139.75
-157.84
-173.88
-183.62
-183.02
-169.95
-144.9
-110.46
-69.79
-25.27
21.74
70.03
117.31
159.54
191.8
210.0
212.78
202.24
183.21
161.36
141.28
125.48
114.48
107.75
104.63
104.76
107.72
112.6
117.6
120.34
118.46
110.43
96.06
76.56
54.04
30.69
8.1
-13.22
-33.72
-54.38
-76.19
-99.88
-125.65
-153.09
-180.88
-206.6
-226.84
-237.85
-236.71
-222.42
-196.38
-161.76
-122.08
-79.9
-36.58
7.0
49.02
86.04
113.41
127.06
125.3
109.88
85.39
57.55
31.17
8.95
-8.62
-22.31
-32.96
-40.84
-45.71
-47.42
-46.53
-44.4
-42.77
-43.17
-46.35
-52.04
-59.39
-67.45
-75.71
-84.21
-93.35
-103.51
-114.8
-126.97
-139.66
-152.52
-164.99
-176.06
-184.07
-186.89
-182.62
-170.46
-151.15
-126.88
-100.38
-73.9
-48.43
-23.73
1.13
27.05
54.39
82.8
111.35
138.61
162.89
182.5
196.23
203.94
206.69
206.43
205.29
204.75
205.28
206.44
207.42
207.59
206.65
204.4
200.38
193.81
183.86
170.09
152.89
133.39
113.13
93.5
75.17
58.0
41.06
23.03
2.6
-20.94
-47.1
-73.87
-97.74
-114.46
-120.22
-112.8
-92.23
-60.44
-20.58
23.92
69.71
113.47
151.79
181.33
199.59
205.74
201.15
189.03
173.47
158.21
145.75
137.24
132.82
132.18
134.9
140.54
148.46
157.76
167.24
175.61
181.72
184.78
184.65
181.77
177.09
171.68
166.4
161.57
156.92
151.76
145.28
136.94
126.64
114.73
101.85
88.61
75.26
61.45
46.12
27.64
4.1
-25.89
-62.47
-103.66
-145.18
-181.05
-205.1
-212.86
-203.1
-178.46
-144.55
-108.23
-75.58
-50.44
-34.04
-25.63
-23.52
-26.03
-31.9
-40.19
-49.93
-59.84
-68.39
-74.04
-75.65
-72.77
-65.7
-55.31
-42.81
-29.43
-16.26
-4.19
6.09
14.1
19.56
22.46
23.05
21.79
19.11
15.37
10.7
5.07
-1.61
-9.29
-17.72
-26.43
-34.91
-42.75
-49.85
-56.61
-63.89
-72.86
-84.38
-98.27
-112.61
-123.64
-126.59
-117.18
-93.27
-55.86
-8.94
41.78
90.59
133.21
167.35
192.4
208.69
216.92
217.95
213.05
204.12
193.62
184.15
177.78
175.4
176.45
179.13
181.14
180.6
176.8
170.36
162.72
155.26
148.44
141.57
133.14
121.77
107.1
90.04
72.38
55.81
41.01
27.18
12.37
-5.8
-29.19
-58.64
-93.76
-132.84
-172.86
-209.47
-237.32
-251.02
-246.57
-222.89
-182.58
-131.51
-77.21
-26.87
14.34
43.98
61.88
69.11
67.06
56.96
39.87
17.02
-9.91
-38.87
-67.64
-94.23
-117.34
-136.41
-151.64
-163.73
-173.6
-182.11
-189.98
-197.8
-206.07
-215.22
-225.48
-236.72
-248.35
-259.32
-268.42
-274.57
-277.28
-276.82
-274.23
-270.7
-266.95
-262.52
-255.76
-244.21
-225.66
-199.1
-165.11
-125.48
-82.23
-36.76
10.33
58.54
106.43
151.01
188.1
213.81
226.09
225.71
215.95
201.25
185.65
171.69
160.32
151.63
145.72
143.14
144.61
150.24
158.84
167.82
173.84
173.93
166.59
152.38
133.42
112.5
91.85
72.47
54.12
36.0
17.35
-2.09
-21.99
-41.76
-60.46
-76.79
-89.0
-95.23
-94.17
-85.84
-72.04
-55.88
-40.76
-29.05
-21.42
-16.95
-14.21
-12.31
-11.45
-12.71
-17.1
-24.7
-34.31
-43.83
-51.1
-54.89
-55.15
-52.94
-49.79
-47.03
-45.43
-45.11
-45.82
-47.3
-49.47
-52.53
-56.9
-63.09
-71.58
-82.86
-97.26
-114.7
-134.19
-153.36
-168.51
-175.19
-169.44
-149.17
-115.08
-70.69
-21.38
27.15
70.26
105.21
131.16
148.55
158.26
161.05
157.42
147.81
133.05
114.54
94.25
74.4
56.93
43.1
33.26
27.01
23.45
21.67
20.94
20.77
20.77
20.41
18.97
15.49
9.04
-1.18
-15.75
-34.91
-58.31
-84.52
-110.6
-132.1
-143.88
-141.61
-123.45
-90.98
-48.96
-3.86
38.11
72.57
97.57
113.1
120.11
119.63
112.33
98.81
79.99
57.44
33.44
10.55
-8.89
-23.31
-32.21
-36.13
-36.23
-33.85
-30.04
-25.41
-20.32
-15.17
-10.65
-7.82
-7.92
-12.11
-21.2
-35.48
-54.45
-76.53
-98.85
-117.39
-127.65
-125.86
-110.26
-81.81
-44.01
-1.87
39.61
76.58
106.88
129.78
145.34
153.86
155.84
152.11
144.18
134.36
125.31
119.51
118.47
122.31
129.76
138.69
146.95
153.13
156.98
159.22
161.01
163.21
165.91
168.36
169.23
167.16
161.03
150.4
135.6
118.15
100.92
87.99
83.9
92.13
113.71
146.25
184.51
222.02
253.33
275.54
288.49
293.7
292.7
286.0
273.09
253.4
227.32
196.68
164.24
132.69
103.7
77.58
53.61
30.6
7.54
-16.14
-40.5
-65.26
-90.05
-114.59
-138.87
-163.29
-188.65
-216.02
-246.31
-279.83
-315.75
-351.75
-384.0
-407.71
-418.05
-411.44
-386.67
-345.51
-292.37
-233.22
-174.0
-119.26
-71.49
-31.36
1.62
28.15
48.83
64.18
75.01
82.67
88.81
94.81
101.02
106.57
109.56
107.97
100.59
87.66
70.68
51.71
32.39
13.27
-6.28
-27.57
-51.81
-79.56
-110.47
-143.22
-175.53
-204.16
-225.13
-234.33
-228.65
-207.15
-171.85
-127.45
-80.09
-35.6
1.96
30.85
51.26
64.22
70.76
71.54
67.09
58.36
46.99
35.17
24.92
17.5
12.95
10.21
7.8
4.45
-0.26
-5.85
-11.26
-15.49
-18.06
-19.34
-20.5
-23.29
-29.68
-41.48
-59.76
-84.19
-112.58
-140.78
-163.39
-175.21
-172.84
-155.93
-127.27
-91.81
-55.07
-21.51
6.22
27.18
41.42
49.42
51.71
49.07
42.81
34.79
27.15
21.73
19.58
20.69
24.12
28.39
32.07
34.25
34.76
34.08
33.03
32.25
31.76
30.83
28.12
22.03
11.28
-4.63
-25.01
-47.65
-69.1
-85.17
-92.08
-87.59
-71.84
-47.42
-18.57
10.11
35.03
54.22
67.32
74.87
77.57
75.87
70.01
60.35
47.77
33.74
20.08
8.46
-0.08
-5.48
-8.68
-11.09
-14.06
-18.31
-23.71
-29.45
-34.5
-38.04
-39.89
-40.49
-40.7
-41.67
-44.55
-50.27
-59.07
-70.05
-80.84
-87.92
-87.46
-76.62
-54.72
-23.58
13.02
50.48
84.8
113.37
135.08
149.9
158.13
160.1
156.13
146.86
133.45
117.64
101.51
86.97
75.34
66.96
61.25
57.01
52.91
48.09
42.38
36.3
30.62
25.95
22.34
19.27
15.82
10.9
3.51
-7.13
-21.3
-38.31
-56.0
-70.72
-77.96
-73.77
-56.25
-26.63
10.97
50.73
86.98
115.84
135.7
146.81
150.25
146.99
137.58
122.43
102.44
79.33
55.52
33.55
15.3
1.37
-8.93
-17.09
-24.62
-32.24
-39.59
-45.51
-48.71
-48.55
-45.42
-40.85
-36.95
-35.89
-39.47
-48.77
-63.95
-83.97
-106.35
-127.22
-142.1
-147.03
-140.07
-122.19
-97.09
-70.04
-46.14
-28.75
-19.02
-16.3
-19.24
-26.87
-38.85
-55.14
-75.23
-97.53
-119.5
-138.27
-151.68
-159.01
-161.07
-159.68
-156.78
-153.64
-150.54
-147.08
-142.71
-137.27
-131.22
-125.45
-121.09
-119.2
-120.73
-126.44
-136.67
-150.93
-167.33
-182.42
-191.7
-190.78
-176.9
-150.07
-113.24
-71.39
-29.89
7.04
37.19
60.16
76.51
86.91
91.61
90.69
84.53
74.32
62.03
49.85
39.57
31.97
26.7
22.65
18.55
13.63
7.86
1.93
-3.37
-7.54
-10.8
-14.03
-18.47
-25.28
-35.31
-48.93
-65.98
-85.46
-105.31
-122.27
-132.34
-131.75
-118.2
-91.85
-55.47
-13.63
28.7
67.52
100.4
126.47
145.71
158.33
164.48
164.41
158.86
149.22
137.32
124.99
113.4
102.8
92.59
81.86
70.01
57.21
44.45
33.1
24.39
18.8
15.9
14.51
13.08
10.15
4.62
-4.14
-16.15
-30.44
-44.84
-55.95
-59.68
-52.42
-32.41
-0.62
39.28
81.91
121.8
154.71
178.32
192.13
196.76
193.39
183.45
168.57
150.7
132.09
114.93
101.0
91.3
85.93
84.18
84.96
87.19
90.24
94.04
98.85
104.7
110.92
115.71
116.48
110.44
95.41
70.46
36.3
-4.67
-48.57
-90.39
-124.64
-146.36
-152.27
-141.8
-117.44
-84.08
-47.65
-13.41
15.17
36.72
51.35
59.77
62.6
60.26
53.32
42.96
31.06
19.93
11.66
7.5
7.55
10.82
15.72
20.6
24.16
25.66
24.89
21.84
16.51
8.78
-1.61
-14.89
-31.26
-50.78
-73.3
-98.1
-123.55
-146.76
-163.82
-170.71
-164.54
-144.85
-114.06
-76.96
-39.2
-5.72
20.45
38.41
48.76
52.69
51.24
45.16
35.08
21.96
7.22
-7.34
-20.05
-29.83
-36.58
-41.08
-44.58
-48.16
-52.26
-56.54
-60.13
-62.22
-62.53
-61.55
-60.41
-60.51
-63.19
-69.33
-79.13
-91.8
-105.37
-116.71
-122.14
-118.33
-103.56
-78.41
-45.76
-9.97
24.5
54.17
77.13
92.78
101.26
102.85
97.92
87.13
71.82
54.14
36.68
21.78
10.89
4.11
0.3
-2.37
-5.65
-10.58
-17.17
-24.69
-32.13
-38.87
-45.01
-51.37
-59.13
-69.48
-83.24
-100.57
-120.73
-141.85
-160.84
-173.84
-177.17
-168.49
-147.9
-118.05
-83.35
-48.48
-16.99
9.35
30.27
46.1
57.0
62.82
63.58
60.15
54.52
49.42
47.41
49.84
56.48
65.63
75.05
82.83
88.09
91.05
92.57
93.49
94.13
94.13
92.64
88.75
81.78
71.48
58.05
42.29
25.84
11.28
1.89
0.99
10.83
31.75
61.87
97.46
134.06
167.61
195.19
215.2
227.03
230.51
225.75
213.08
193.32
168.0
139.26
109.45
80.67
54.22
30.39
8.67
-11.9
-32.1
-52.23
-72.03
-90.91
-108.32
-124.03
-138.29
-151.61
-164.62
-177.91
-191.87
-206.65
-221.84
-236.07
-246.89
-251.09
-245.55
-228.5
-200.36
-163.97
-123.74
-84.33
-49.29
-20.44
1.92
18.28
29.19
34.98
35.98
32.99
27.62
22.05
18.54
18.65
22.75
29.97
38.57
46.7
53.03
57.2
59.72
61.54
63.51
65.87
68.2
69.52
68.8
65.24
58.5
48.67
36.42
23.13
11.07
3.3
2.87
11.76
29.72
54.01
79.99
102.64
118.21
125.21
124.3
117.37
106.32
92.29
75.65
56.41
34.87
11.96
-10.92
-32.11
-50.17
-64.2
-73.95
-79.73
-82.41
-83.05
-82.78
-82.62
-83.3
-85.26
-88.59
-93.11
-98.36
-103.75
-108.84
-113.56
-118.4
-124.29
-131.95
-141.1
-149.88
-154.89
-152.11
-138.34
-112.55
-76.46
-34.17
9.16
48.74
81.25
105.25
120.78
128.78
130.5
127.17
120.03
110.39
99.73
89.55
81.16
75.42
72.51
71.95
72.75
73.77
74.04
73.04
70.76
67.46
63.52
59.2
54.63
49.78
44.57
38.91
32.6
25.19
16.23
5.6
-5.89
-16.02
-21.43
-18.46
-4.38
21.38
56.83
97.99
140.17
179.34
213.03
240.26
260.85
274.58
280.76
278.46
267.15
247.34
220.75
190.06
158.31
128.27
102.0
80.72
64.79
53.8
46.72
42.1
38.47
34.66
30.05
24.57
18.46
11.98
5.21
-2.05
-10.26
-19.98
-31.59
-44.91
-58.76
-70.85
-78.02
-77.19
-66.48
-46.11
-18.58
11.99
41.17
65.47
83.02
93.44
97.08
94.16
84.35
67.0
41.76
9.33
-28.12
-67.13
-103.63
-134.05
-156.15
-169.46
-175.06
-174.92
-171.11
-165.19
-158.06
-150.12
-141.68
-133.19
-125.25
-118.47
-113.15
-109.36
-107.07
-106.31
-107.22
-109.66
-112.68
-114.27
-111.62
-102.03
-84.01
-58.14
-27.08
5.2
34.8
58.86
76.11
86.69
91.56
91.92
88.9
83.58
76.93
69.88
63.19
57.35
52.55
48.79
46.03
44.27
43.52
43.67
44.23
44.29
42.56
37.71
28.85
15.88
-0.3
-18.11
-35.84
-52.27
-67.09
-80.96
-95.21
-111.23
-129.79
-150.37
-170.76
-187.24
-195.35
-191.37
-173.69
-143.77
-105.91
-65.94
-29.42
-0.06
20.92
34.28
41.63
44.33
43.09
38.25
30.29
20.39
10.29
1.84
-3.64
-5.75
-5.07
-2.64
0.53
3.85
7.27
10.97
14.91
18.53
20.76
20.29
16.12
8.02
-3.31
-16.37
-29.31
-40.57
-49.32
-55.69
-60.68
-65.79
-72.61
-82.3
-94.99
-109.33
-122.43
-130.22
-128.55
-114.59
-88.03
-51.38
-9.44
32.25
68.98
97.88
118.06
129.88
134.07
131.2
121.74
106.55
87.29
66.34
46.39
29.64
17.25
9.14
4.26
1.12
-1.64
-4.86
-8.84
-13.46
-18.51
-23.99
-30.26
-38.0
-47.95
-60.51
-75.39
-91.62
-107.74
-122.3
-134.42
-144.0
-151.65
-158.36
-165.19
-173.06
-182.7
-194.47
-207.92
-221.38
-231.73
-234.92
-227.2
-206.58
-173.82
-132.56
-88.1
-45.77
-9.36
19.48
40.97
56.27
66.51
72.42
74.39
72.98
69.25
64.83
61.53
60.86
63.56
69.4
77.42
86.3
94.81
102.18
108.22
113.18
117.46
121.33
124.68
126.96
127.34
124.98
119.51
111.15
100.83
89.81
79.27
69.97
62.01
54.91
47.8
39.52
28.74
14.24
-4.67
-27.42
-51.66
-73.33
-87.6
-90.46
-80.23
-58.36
-28.88
3.07
33.06
58.39
78.35
93.31
103.76
109.72
110.83
107.02
99.01
88.46
77.51
68.0
60.91
56.12
52.74
49.7
46.32
42.53
38.69
35.19
31.93
28.09
22.24
12.84
-1.14
-19.65
-41.47
-64.53
-86.58
-105.99
-122.17
-135.77
-148.16
-161.07
-176.05
-193.95
-214.49
-235.77
-254.16
-264.84
-263.12
-246.06
-213.87
-170.18
-121.12
-73.37
-32.29
-0.73
20.98
34.04
40.09
40.44
36.0
27.66
16.65
4.68
-6.46
-15.32
-21.19
-24.26
-25.23
-24.95
-23.89
-22.14
-19.49
-15.93
-11.98
-8.78
-7.82
-10.34
-16.81
-26.58
-38.13
-49.51
-59.12
-66.2
-71.06
-74.88
-79.37
-86.26
-96.76
-111.03
-127.71
-143.87
-155.34
-157.82
-148.21
-125.65
-92.03
-51.43
-8.97
30.56
63.76
88.88
105.63
114.62
116.9
113.7
106.52
97.01
87.06
78.4
72.29
69.24
68.85
70.1
71.85
73.34
74.37
75.3
76.55
78.16
79.57
79.61
77.03
71.04
61.67
49.84
37.04
24.74
13.87
4.53
-3.99
-12.92
-23.65
-37.17
-53.66
-72.01
-89.71
-103.23
-108.69
-103.09
-85.33
-56.7
-20.7
18.03
54.96
86.73
111.59
129.24
140.12
144.97
144.5
139.51
131.13
120.94
110.67
101.93
95.65
91.87
89.94
88.88
87.9
86.69
85.41
84.34
83.48
82.32
79.87
75.08
67.22
56.37
43.35
29.56
16.46
5.01
-4.57
-12.87
-21.01
-30.34
-41.92
-56.12
-72.18
-88.01
-100.38
-105.65
-100.84
-84.71
-58.37
-25.05
10.77
44.68
73.43
95.33
110.11
118.33
120.79
118.33
111.94
102.86
92.58
82.64
74.16
67.66
63.0
59.61
56.97
54.79
53.17
52.23
51.89
51.57
50.29
47.01
40.98
32.16
21.21
9.26
-2.46
-13.11
-22.51
-31.19
-40.24
-50.87
-63.92
-79.21
-95.2
-108.99
-116.94
-115.75
-103.66
-81.19
-51.18
-17.9
14.25
41.9
63.36
78.42
87.76
92.25
92.56
89.22
82.84
74.45
65.44
57.29
51.19
47.62
46.23
46.13
46.25
45.84
44.7
43.11
41.51
40.06
38.36
35.64
31.01
23.99
14.75
4.07
-6.93
-17.18
-26.1
-33.73
-40.6
-47.57
-55.59
-65.42
-77.37
-90.92
-104.49
-115.44
-120.59
-117.11
-103.62
-80.75
-51.14
-18.61
12.91
40.48
62.55
78.86
89.82
96.07
98.17
96.69
92.47
86.67
80.72
75.95
73.21
72.63
73.63
75.29
76.75
77.59
77.91
78.1
78.4
78.55
77.66
74.47
67.9
57.56
43.94
28.36
12.39
-2.63
-16.03
-27.84
-38.63
-49.17
-60.2
-72.26
-85.52
-99.62
-113.37
-124.69
-130.95
-129.64
-119.3
-100.24
-74.66
-46.04
-18.17
5.96
24.75
37.94
46.1
50.06
50.47
47.8
42.55
35.52
27.77
20.62
15.11
11.85
10.82
11.48
13.11
15.08
17.07
19.09
21.27
23.6
25.76
27.01
26.47
23.4
17.54
9.25
-0.57
-10.77
-20.33
-28.68
-35.83
-42.32
-49.01
-56.8
-66.25
-77.29
-88.88
-99.07
-105.26
-104.94
-96.57
-80.18
-57.56
-31.73
-6.06
16.7
34.93
48.23
56.95
61.72
63.11
61.56
57.59
51.92
45.57
39.59
34.83
31.7
30.1
29.56
29.52
29.58
29.61
29.76
30.2
30.99
31.84
32.15
31.14
28.22
23.17
16.34
8.48
0.57
-6.55
-12.46
-17.22
-21.31
-25.51
-30.64
-37.36
-45.79
-55.23
-64.05
-69.88
-70.18
-63.09
-47.99
-26.01
0.17
26.87
50.16
66.66
74.23
72.27
61.72
44.82
24.5
3.75
-14.83
-29.48
-39.32
-44.35
-45.23
-43.15
-39.48
-35.54
-32.21
-29.79
-28.03
-26.45
-24.7
-22.9
-21.66
-21.81
-23.95
-28.19
-33.98
-40.32
-46.23
-51.04
-54.73
-57.83
-61.26
-65.97
-72.62
-81.17
-90.62
-99.05
-103.86
-102.58
-93.59
-76.83
-53.91
-27.71
-1.46
22.05
41.13
55.2
64.51
69.64
71.15
69.52
65.32
59.39
52.79
46.72
42.1
39.33
38.2
38.03
38.01
37.54
36.52
35.13
33.73
32.45
31.07
29.01
25.54
20.13
12.66
3.62
-6.11
-15.5
-23.79
-30.78
-36.86
-42.82
-49.57
-57.82
-67.8
-79.11
-90.49
-99.92
-104.96
-103.32
-93.65
-76.15
-52.66
-26.21
-0.18
22.71
40.94
54.21
63.02
68.07
69.87
68.75
65.05
59.41
52.86
46.59
41.63
38.51
37.09
36.76
36.76
36.54
35.94
35.15
34.4
33.76
32.95
31.44
28.56
23.9
17.36
9.25
0.15
-9.36
-18.79
-27.93
-36.84
-45.79
-55.15
-65.27
-76.3
-87.9
-99.04
-107.92
-112.25
-109.92
-99.64
-81.61
-57.62
-30.61
-3.85
19.92
39.07
53.16
62.56
67.97
70.01
69.14
65.77
60.49
54.17
47.93
42.81
39.51
38.12
38.21
39.01
39.78
40.06
39.7
38.8
37.51
35.83
33.6
30.47
26.08
20.18
12.83
4.36
-4.63
-13.44
-21.47
-28.45
-34.45
-39.87
-45.25
-51.19
-58.19
-66.57
-76.22
-86.38
-95.4
-100.99
-100.7
-92.81
-77.11
-55.09
-29.6
-3.95
19.07
37.81
51.78
61.3
66.92
69.12
68.26
64.79
59.43
53.18
47.2
42.44
39.4
37.98
37.61
37.53
37.19
36.35
35.21
34.11
33.25
32.47
31.27
28.94
24.89
18.94
11.35
2.81
-5.85
-13.98
-21.24
-27.7
-33.73
-39.9
-46.82
-55.01
-64.68
-75.42
-86.05
-94.55
-98.44
-95.5
-84.58
-66.15
-42.33
-16.21
8.99
30.86
48.11
60.53
68.48
72.44
72.89
70.31
65.47
59.43
53.45
48.63
45.58
44.21
43.91
43.88
43.55
42.8
41.87
41.16
40.79
40.44
39.36
36.63
31.63
24.28
15.21
5.48
-3.76
-11.75
-18.35
-24.03
-29.74
-36.53
-45.25
-56.11
-68.44
-80.49
-89.63
-92.99
-88.29
-74.77
-53.7
-28.21
-2.41
19.82
35.86
44.79
47.19
44.49
38.26
29.82
20.16
10.19
0.82
-7.01
-12.5
-15.29
-15.54
-13.92
-11.22
-8.16
-5.04
-1.88
1.46
4.96
8.22
10.5
10.94
8.95
4.49
-1.82
-8.97
-15.85
-21.72
-26.46
-30.56
-34.95
-40.65
-48.48
-58.58
-70.16
-81.37
-89.62
-92.14
-86.94
-73.52
-53.2
-28.81
-3.72
19.03
37.54
51.1
59.89
64.43
65.29
62.94
57.98
51.3
44.05
37.41
32.33
29.17
27.68
27.14
26.75
25.96
24.62
23.02
21.55
20.34
19.09
17.09
13.5
7.8
0.02
-9.12
-18.59
-27.32
-34.67
-40.57
-45.52
-50.41
-56.21
-63.76
-73.41
-84.76
-96.44
-106.22
-111.42
-109.71
-99.89
-82.45
-59.48
-34.01
-9.03
13.35
32.25
47.75
60.38
70.49
78.04
82.73
84.38
83.31
80.39
76.81
73.66
71.57
70.48
69.88
69.1
67.69
65.58
63.03
60.33
57.49
54.15
49.61
43.19
34.52
23.75
11.58
-0.92
-12.58
-22.53
-30.38
-36.32
-41.02
-45.39
-50.39
-56.74
-64.65
-73.59
-82.16
-88.2
-89.33
-83.68
-70.56
-50.93
-27.18
-2.44
20.31
39.01
52.82
61.91
66.93
68.59
67.4
63.77
58.23
51.59
44.92
39.3
35.55
33.88
33.88
34.65
35.2
34.85
33.4
31.09
28.4
25.67
22.96
20.05
16.54
12.12
6.7
0.43
-6.35
-13.23
-19.83
-25.89
-31.36
-36.35
-41.25
-46.56
-52.88
-60.66
-69.89
-79.86
-88.97
-94.92
-95.3
-88.34
-73.65
-52.49
-27.59
-2.26
20.47
38.66
51.63
59.68
63.57
64.04
61.67
56.94
50.46
43.07
35.81
29.68
25.36
23.03
22.29
22.43
22.61
22.27
21.16
19.38
17.23
15.01
12.78
10.34
7.25
2.99
-2.71
-9.78
-17.67
-25.49
-32.33
-37.53
-41.01
-43.22
-45.1
-47.71
-51.98
-58.33
-66.36
-74.69
-81.02
-82.6
-77.03
-63.05
-41.14
-13.46
16.79
46.38
73.0
95.7
114.8
131.3
146.12
159.5
170.65
177.91
179.22
172.91
158.41
136.58
109.57
80.09
50.59
22.79
-2.41
-24.5
-42.93
-57.05
-66.32
-70.83
-71.59
-70.27
-68.66
-67.98
-68.57
-69.97
-71.43
-72.53
-73.49
-75.13
-78.52
-84.51
-93.49
-105.11
-118.28
-131.22
-141.59
-146.87
-144.97
-134.87
-117.11
-93.92
-68.55
-44.38
-23.96
-8.46
2.28
9.14
13.14
14.9
14.73
12.89
9.91
6.71
4.39
3.89
5.59
9.23
14.09
19.3
24.22
28.61
32.58
36.4
40.23
43.98
47.26
49.5
50.19
49.05
46.24
42.38
38.31
34.9
32.68
31.64
31.27
30.67
28.85
25.01
18.84
10.76
2.2
-4.51
-6.46
-0.99
13.26
35.58
63.03
91.16
115.38
132.39
140.94
141.86
137.2
129.16
119.32
108.5
97.1
85.57
74.62
64.97
56.9
49.94
42.9
34.47
23.87
11.31
-2.03
-14.46
-24.6
-31.87
-36.75
-40.49
-44.59
-50.24
-57.9
-67.21
-77.18
-86.68
-94.77
-101.15
-106.21
-110.89
-116.38
-123.8
-133.82
-146.39
-160.47
-173.9
-183.69
-186.65
-180.39
-164.24
-139.63
-109.79
-78.7
-49.92
-25.68
-6.65
7.64
18.08
25.35
29.78
31.51
30.91
28.8
26.36
24.8
24.97
27.07
30.63
34.92
39.32
43.65
48.21
53.49
59.72
66.61
73.29
78.61
81.62
82.07
80.49
78.03
75.99
75.26
76.01
77.64
79.02
78.94
76.36
70.84
62.62
52.91
43.75
37.73
37.28
43.76
56.72
73.74
91.14
105.03
112.5
112.29
104.72
91.07
72.79
50.99
26.49
0.09
-26.98
-52.96
-75.91
-94.22
-107.16
-115.08
-119.23
-121.15
-122.13
-122.78
-123.0
-122.38
-120.65
-118.02
-115.28
-113.43
-113.33
-115.28
-118.86
-123.07
-126.83
-129.32
-130.32
-130.21
-129.79
-130.03
-131.88
-136.02
-142.55
-150.59
-157.96
-161.45
-157.55
-143.71
-119.45
-86.83
-49.98
-13.79
17.46
41.15
56.5
64.17
65.56
62.26
55.85
47.88
39.84
33.04
28.29
25.76
24.99
25.07
25.17
24.86
24.29
23.98
24.47
25.82
27.47
28.41
27.66
24.84
20.38
15.46
11.47
9.35
9.07
9.51
8.66
4.27
-5.38
-20.72
-40.28
-60.7
-77.28
-85.3
-81.48
-65.18
-38.66
-6.41
26.38
55.25
77.48
92.17
99.65
100.86
96.84
88.74
77.9
65.9
54.32
44.34
36.48
30.55
26.01
22.3
19.23
16.95
15.72
15.53
15.78
15.36
12.88
7.27
-1.83
-13.85
-27.45
-40.99
-53.15
-63.3
-71.79
-79.78
-88.89
-100.63
-115.56
-132.63
-148.94
-160.13
-161.62
-150.28
-125.65
-90.46
-49.84
-9.71
24.95
51.26
68.55
77.71
80.26
77.61
70.85
60.9
48.82
35.8
23.11
11.77
2.38
-5.03
-10.84
-15.62
-19.95
-24.31
-29.08
-34.66
-41.49
-50.03
-60.58
-73.13
-87.23
-102.11
-116.88
-130.87
-143.98
-156.68
-169.83
-184.11
-199.24
-213.63
-224.34
-227.84
-221.13
-202.81
-173.64
-136.33
-94.85
-53.28
-14.99
17.81
44.09
63.71
77.17
85.35
89.41
90.57
90.04
88.82
87.62
86.87
86.72
87.14
87.98
88.98
89.77
89.96
89.18
87.26
84.27
80.49
76.29
71.97
67.55
62.76
57.06
49.75
40.17
28.09
14.07
-0.22
-12.0
-17.9
-14.91
-1.38
22.29
53.58
88.54
122.88
153.09
177.04
194.02
204.38
208.87
208.29
203.42
195.19
184.88
174.13
164.6
157.58
153.49
151.75
150.96
149.45
145.85
139.42
130.19
118.72
105.73
91.86
77.46
62.66
47.43
31.66
15.11
-2.58
-21.78
-42.46
-63.63
-83.07
-97.53
-103.62
-98.99
-83.41
-59.09
-30.03
-0.78
24.88
44.72
58.1
65.38
67.23
64.25
56.96
46.16
33.17
19.81
8.04
-0.49
-4.99
-5.68
-3.58
-0.18
3.24
5.94
7.84
9.32
10.81
12.45
13.9
14.48
13.35
9.91
3.83
-4.76
-15.18
-26.1
-35.48
-40.78
-39.61
-30.5
-13.6
9.09
34.23
58.18
78.03
92.15
100.19
102.51
99.53
91.57
79.01
62.75
44.48
26.52
11.18
0.13
-6.16
-8.47
-8.33
-7.45
-7.02
-7.49
-8.54
-9.55
-9.97
-9.77
-9.52
-10.29
-13.34
-19.71
-29.88
-43.42
-58.8
-73.51
-84.36
-88.19
-82.82
-67.78
-44.56
-16.33
12.99
39.77
61.44
76.78
85.71
88.77
86.8
80.8
72.0
61.92
52.22
44.36
39.26
36.98
36.81
37.67
38.6
39.24
39.92
41.39
44.24
48.48
53.39
57.71
60.23
60.18
57.46
52.58
46.53
40.56
36.14
34.83
37.96
46.28
59.61
76.71
95.66
114.34
130.89
143.94
152.45
155.43
151.95
141.29
123.46
99.57
71.88
43.45
17.34
-4.15
-20.05
-30.78
-37.73
-42.59
-46.63
-50.36
-53.58
-55.84
-56.92
-57.27
-57.92
-60.22
-65.28
-73.44
-84.04
-95.26
-104.46
-108.81
-106.02
-95.09
-76.67
-52.91
-26.82
-1.48
20.63
37.9
49.4
54.59
53.04
44.3
28.26
5.53
-22.29
-52.59
-82.11
-107.6
-126.6
-137.95
-141.95
-139.97
-133.85
-125.2
-115.2
-104.61
-94.18
-84.91
-78.02
-74.73
-75.74
-80.9
-89.01
-97.88
-104.66
-106.5
-101.13
-87.67
-66.97
-41.49
-14.73
9.79
29.36
42.59
49.31
50.17
46.1
38.0
26.86
13.88
0.61
-11.22
-20.22
-25.75
-28.14
-28.54
-28.35
-28.69
-30.05
-32.28
-34.97
-37.8
-40.87
-44.7
-50.09
-57.88
-68.69
-82.56
-98.62
-114.88
-128.45
-136.12
-135.37
-125.27
-106.91
-83.06
-57.34
-33.01
-12.19
4.34
16.72
25.39
30.68
32.74
31.86
28.78
24.62
20.61
17.55
15.43
13.37
10.07
4.42
-3.93
-14.31
-25.36
-35.55
-43.82
-50.14
-55.53
-61.91
-71.49
-85.98
-105.76
-129.26
-152.82
-171.37
-179.67
-173.91
-153.02
-119.2
-77.39
-33.96
5.04
35.32
55.03
64.59
65.85
61.16
52.56
41.49
28.84
15.26
1.4
-12.07
-24.63
-36.06
-46.5
-56.31
-65.71
-74.62
-82.67
-89.35
-94.35
-97.76
-100.12
-102.13
-104.44
-107.35
-110.82
-114.67
-118.91
-123.93
-130.36
-138.37
-147.04
-153.86
-155.15
-147.08
-126.89
-93.93
-49.94
1.39
55.29
106.84
151.82
187.16
211.4
224.78
229.18
227.58
223.33
219.21
216.77
216.11
216.1
214.91
210.7
202.2
189.14
172.31
153.27
133.77
115.17
98.18
82.81
68.78
55.88
44.2
34.0
25.49
18.44
12.06
5.16
-3.35
-14.01
-26.52
-39.81
-52.53
-63.68
-73.03
-81.28
-89.86
-100.51
-114.74
-133.17
-154.91
-177.16
-195.38
-204.14
-198.65
-176.4
-138.21
-88.16
-32.43
22.48
71.4
111.29
141.17
161.56
173.75
179.26
179.74
176.89
172.35
167.59
163.63
160.94
159.44
158.61
157.74
156.11
153.11
148.24
140.98
130.74
116.98
99.51
78.87
56.34
33.77
12.94
-5.05
-20.14
-33.16
-45.4
-57.9
-70.97
-84.16
-96.48
-106.91
-114.85
-120.43
-124.57
-128.83
-135.08
-144.96
-159.08
-176.43
-194.03
-207.34
-211.46
-202.69
-179.89
-145.09
-102.88
-58.91
-18.22
15.94
42.33
61.26
73.7
80.75
83.45
82.95
80.6
77.89
76.06
75.87
77.38
80.04
83.02
85.59
87.38
88.44
89.06
89.47
89.53
88.56
85.6
79.91
71.5
61.35
51.18
42.67
36.64
32.6
28.79
22.97
13.34
-0.64
-18.16
-37.4
-56.33
-73.48
-88.33
-101.48
-114.32
-128.63
-145.98
-167.15
-191.4
-216.13
-236.92
-248.43
-245.79
-226.21
-190.13
-141.35
-86.0
-30.85
18.45
58.49
88.25
108.53
121.05
127.62
129.83
128.92
125.95
121.92
117.72
114.15
111.77
110.83
111.31
113.01
115.59
118.65
121.75
124.33
125.75
125.28
122.34
116.64
108.33
97.89
85.93
72.89
58.84
43.57
26.89
8.96
-9.44
-27.08
-42.64
-55.29
-65.04
-72.97
-80.85
-90.78
-104.36
-121.98
