-0.25
43.02
81.97
114.07
138.86
157.21
170.27
178.87
183.32
183.85
181.09
176.28
171.2
167.71
167.22
170.22
176.21
183.98
192.0
199.16
205.07
209.98
214.34
217.99
219.56
216.53
205.85
185.04
153.15
111.22
62.12
9.99
-40.58
-85.12
-119.93
-142.62
-152.65
-151.65
-143.12
-131.44
-120.21
-110.63
-100.79
-86.34
-62.47
-26.34
21.08
74.88
127.45
171.02
199.89
211.84
208.01
191.83
167.47
138.73
108.54
78.99
51.62
27.59
7.78
-7.3
-17.46
-22.83
-23.83
-21.11
-15.63
-8.59
-1.52
3.92
6.15
3.92
-3.46
-16.03
-33.2
-53.84
-76.39
-99.01
-119.77
-136.98
-149.54
-157.22
-160.66
-161.28
-160.87
-161.34
-164.5
-171.96
-184.84
-203.27
-225.63
-247.98
-264.31
-267.77
-252.98
-218.2
-166.64
-105.81
-45.24
6.45
44.05
66.35
75.25
73.7
64.04
47.58
25.13
-1.91
-30.97
-58.75
-82.35
-100.37
-113.32
-123.13
-131.98
-141.14
-150.5
-158.67
-163.76
-164.25
-159.59
-150.38
-138.17
-124.87
-112.25
-101.53
-93.18
-87.14
-83.17
-81.11
-81.03
-83.21
-87.89
-95.18
-105.18
-118.06
-133.89
-152.17
-171.15
-187.51
-196.9
-195.14
-179.64
-150.23
-109.12
-60.16
-7.85
43.37
89.39
126.6
152.25
164.95
165.11
155.01
138.13
118.19
98.2
80.04
64.52
51.75
41.31
32.61
24.94
17.78
10.96
4.84
0.06
-2.84
-3.7
-3.11
-2.11
-1.89
-3.34
-6.82
-12.09
-18.66
-26.14
-34.43
-43.91
-55.17
-68.88
-85.66
-106.03
-130.29
-158.2
-188.42
-218.12
-243.18
-259.09
-262.36
-251.72
-228.58
-196.33
-158.88
-119.33
-79.32
-39.56
-0.83
35.31
66.46
90.37
105.85
113.47
115.32
114.1
112.19
111.17
111.72
113.98
117.94
123.5
130.34
137.7
144.47
149.38
151.49
150.56
147.1
142.22
137.11
132.58
128.77
125.17
120.93
115.41
108.63
101.4
95.13
91.2
90.15
91.22
92.39
91.13
85.72
76.54
66.63
61.16
65.97
85.7
122.13
173.21
233.13
293.3
344.24
377.7
388.63
376.24
343.69
296.72
241.51
182.84
123.14
62.62
0.54
-63.18
-126.71
-186.19
-236.56
-273.22
-293.7
-298.42
-290.35
-273.57
-251.59
-226.32
-198.41
-168.36
-137.69
-109.14
-85.8
-69.53
-59.8
-53.75
-47.42
-37.47
-22.59
-3.96
15.01
29.72
35.48
28.91
8.97
-22.04
-58.55
-92.7
-116.48
-124.18
-114.2
-89.46
-55.99
-20.68
11.02
36.31
54.79
67.4
75.13
78.45
77.49
72.76
65.64
58.43
53.56
52.68
55.91
61.76
67.77
71.65
72.21
69.9
66.42
63.79
63.22
64.4
65.58
64.28
58.49
47.54
32.39
15.27
-1.28
-15.28
-25.9
-33.45
-39.21
-45.0
-52.94
-64.99
-82.33
-104.54
-129.01
-151.09
-165.02
-165.71
-150.43
-119.85
-77.75
-29.81
18.28
62.18
99.39
129.0
150.84
164.88
171.1
169.85
162.31
150.63
137.71
126.37
118.73
115.73
117.27
122.76
131.65
143.74
158.96
176.97
196.65
216.07
232.93
245.3
252.38
254.86
254.65
254.0
254.45
255.95
256.69
253.71
243.93
225.26
197.32
161.61
121.3
80.78
44.91
18.28
4.12
3.49
14.86
34.39
57.14
78.49
95.17
105.64
109.62
107.22
98.37
82.88
60.87
33.42
2.75
-28.18
-56.44
-79.96
-98.02
-111.19
-120.86
-128.53
-135.21
-141.22
-146.4
-150.55
-153.89
-157.12
-161.13
-166.39
-172.51
-178.18
-181.75
-182.01
-178.96
-173.99
-169.42
-167.67
-170.4
-177.98
-189.4
-202.23
-213.01
-217.66
-212.35
-194.46
-163.65
-122.3
-75.13
-28.02
13.65
46.23
68.42
80.79
84.98
82.81
75.78
65.09
51.81
37.03
21.72
6.48
-8.7
-24.45
-41.62
-60.75
-81.5
-102.42
-121.29
-135.81
-144.52
-147.37
-145.88
-142.54
-139.91
-139.68
-142.14
-146.27
-150.35
-152.77
-152.69
-150.29
-146.5
-142.74
-140.37
-140.42
-143.21
-148.02
-152.79
-154.26
-148.69
-132.98
-105.93
-68.83
-25.27
19.93
62.18
98.2
126.52
147.15
160.95
168.98
172.21
171.6
168.27
163.68
159.42
156.81
156.46
157.93
159.86
160.46
158.26
152.71
144.41
134.68
124.83
115.52
106.42
96.51
84.72
70.58
54.48
37.55
21.06
5.9
-7.71
-20.18
-32.29
-44.81
-58.39
-73.42
-89.85
-106.99
-123.16
-135.71
-141.51
-137.97
-124.12
-101.28
-72.86
-43.29
-16.66
4.48
19.5
29.1
34.46
36.37
35.05
30.4
22.63
12.71
2.24
-6.94
-13.46
-16.87
-17.72
-17.14
-16.4
-16.3
-17.07
-18.42
-19.94
-21.32
-22.61
-23.96
-25.54
-27.25
-28.62
-28.96
-27.56
-24.05
-18.57
-11.88
-5.2
0.04
2.49
1.23
-4.09
-12.95
-23.75
-33.8
-39.64
-37.82
-25.9
-3.45
27.55
63.09
98.27
128.58
151.01
164.25
168.42
164.34
153.07
135.81
114.05
89.86
65.87
44.83
28.9
19.05
14.8
14.46
15.89
17.22
17.58
17.09
16.45
16.28
16.56
16.41
14.38
9.09
-0.21
-13.24
-28.82
-45.26
-60.97
-74.95
-87.01
-97.7
-107.99
-119.01
-131.56
-145.89
-161.23
-175.67
-186.18
-189.32
-182.17
-163.49
-134.39
-98.2
-59.57
-23.13
7.68
31.12
46.88
55.53
57.89
54.81
47.28
36.64
24.71
13.48
4.64
-0.86
-3.08
-2.94
-1.76
-0.63
0.09
0.83
2.44
5.61
10.21
15.16
18.73
19.24
15.91
9.21
0.64
-7.87
-14.87
-19.98
-23.98
-28.43
-35.03
-44.97
-58.44
-74.32
-90.12
-102.34
-107.2
-101.75
-84.82
-57.63
-23.49
13.18
48.16
78.51
102.93
121.4
134.51
142.88
146.99
147.4
145.08
141.43
138.04
136.24
136.58
138.83
142.01
145.01
146.93
147.42
146.45
144.09
140.14
134.05
125.11
112.94
97.77
80.63
63.09
46.76
32.81
21.66
12.97
5.87
-0.76
-8.02
-16.74
-27.09
-38.32
-48.54
-54.94
-54.65
-45.82
-28.52
-5.1
20.55
44.14
62.36
73.63
78.06
76.76
70.99
61.6
49.02
33.66
16.25
-2.03
-19.71
-35.52
-48.73
-59.28
-67.64
-74.34
-79.6
-83.23
-84.85
-84.33
-82.16
-79.62
-78.32
-79.69
-84.29
-91.62
-100.3
-108.65
-115.38
-120.03
-123.04
-125.58
-129.12
-135.09
-144.34
-156.64
-170.32
-182.18
-188.08
-184.12
-168.02
-140.21
-103.79
-63.61
-24.63
9.48
37.07
58.18
73.68
84.4
90.74
92.93
91.49
87.59
82.97
79.41
78.18
79.6
83.06
87.43
91.64
95.14
98.1
101.23
105.28
110.51
116.38
121.63
124.71
124.41
120.38
113.32
104.75
96.4
89.54
84.47
80.32
75.31
67.14
53.66
33.54
6.95
-23.85
-54.63
-80.02
-94.94
-96.38
-84.55
-62.91
-37.02
-12.72
5.61
15.83
17.8
12.45
0.97
-15.62
-36.14
-58.92
-81.61
-101.54
-116.41
-124.93
-127.14
-124.2
-117.91
-110.05
-102.12
-95.17
-89.94
-87.07
-87.18
-90.81
-98.25
-109.28
-123.07
-138.21
-153.07
-166.24
-176.89
-185.03
-191.39
-197.16
-203.72
-212.16
-222.88
-235.14
-246.8
-254.64
-255.11
-245.51
-224.9
-194.36
-156.44
-114.19
-70.42
-27.47
12.39
46.62
72.39
87.32
90.38
82.55
66.77
47.08
27.49
11.05
-0.61
-7.21
-9.42
-8.38
-5.35
-1.48
2.26
5.05
6.22
5.25
1.91
-3.68
-11.05
-19.49
-28.42
-37.57
-47.13
-57.6
-69.69
-83.92
-100.38
-118.24
-135.65
-149.78
-157.45
-155.93
-143.89
-121.68
-91.24
-55.43
-17.32
20.23
54.74
84.18
107.05
122.72
131.75
135.82
137.3
138.48
140.98
145.46
151.86
159.87
169.19
179.67
191.06
202.69
213.39
221.63
225.92
225.37
220.02
210.91
199.73
188.28
178.0
169.49
162.34
155.1
145.63
131.84
112.75
89.38
65.13
45.04
34.16
35.64
49.47
72.49
99.66
125.88
147.47
162.75
171.58
174.52
172.11
164.67
152.62
136.78
118.53
99.7
82.03
66.77
54.12
43.24
32.37
19.45
2.78
-18.45
-43.85
-72.07
-101.16
-129.14
-154.35
-175.72
-192.86
-206.16
-216.6
-225.31
-232.88
-238.61
-240.31
-234.77
-219.05
-191.85
-154.36
-110.11
-63.82
-19.96
18.46
50.13
75.0
93.42
105.55
111.3
110.69
104.32
93.57
80.56
67.62
56.81
49.38
45.59
44.82
46.0
48.03
50.25
52.43
54.61
56.68
58.2
58.3
56.1
51.08
43.21
32.97
21.15
8.73
-3.04
-12.33
-16.83
-14.13
-2.58
17.95
45.67
77.3
109.03
137.71
161.54
180.16
194.17
204.34
211.21
215.0
215.97
214.76
212.31
209.44
206.19
201.48
193.22
179.18
158.01
130.09
97.5
63.42
31.02
2.59
-20.92
-39.82
-55.27
-68.86
-82.44
-97.96
-117.17
-140.9
-168.35
-196.51
-220.53
-234.98
-235.73
-221.55
-194.86
-160.97
-126.31
-96.55
-75.15
-63.17
-59.8
-63.36
-71.92
-83.45
-95.79
-106.59
-113.65
-115.41
-111.43
-102.42
-90.1
-76.55
-63.61
-52.47
-43.48
-36.24
-30.01
-24.14
-18.37
-13.02
-8.82
-6.59
-6.91
-9.82
-14.65
-20.09
-24.27
-25.08
-20.58
-9.46
8.49
32.29
59.88
88.6
115.79
139.34
157.88
170.71
177.72
179.06
175.18
166.79
154.88
140.7
125.49
110.22
95.38
80.92
66.51
51.85
37.16
23.33
11.84
4.28
1.75
4.22
10.3
17.33
22.1
21.61
14.19
-0.0
-18.77
-38.4
-54.68
-64.15
-65.1
-58.01
-45.24
-30.13
-15.9
-4.86
1.98
4.62
3.67
-0.18
-6.3
-14.02
-22.47
-30.5
-36.9
-40.76
-41.84
-40.59
-37.95
-34.88
-32.0
-29.46
-27.12
-24.88
-22.99
-22.08
-22.96
-26.31
-32.34
-40.77
-50.95
-61.92
-72.41
-80.79
-85.16
-83.69
-75.33
-60.35
-40.5
-18.68
1.97
19.04
31.39
39.11
42.96
43.56
41.15
35.62
26.99
15.87
3.54
-8.36
-18.39
-25.77
-30.58
-33.53
-35.46
-36.9
-37.85
-37.93
-36.69
-33.97
-30.16
-26.21
-23.4
-23.12
-26.46
-33.78
-44.32
-56.08
-66.06
-70.99
-68.45
-57.69
-40.07
-18.51
3.46
22.92
38.23
49.03
55.69
58.58
57.81
53.32
45.36
34.87
23.5
13.08
5.08
0.01
-2.61
-3.86
-4.93
-6.54
-8.76
-11.2
-13.4
-15.19
-16.99
-19.64
-24.14
-31.3
-41.48
-54.36
-68.76
-82.59
-93.09
-97.36
-93.26
-80.11
-59.21
-33.41
-6.38
18.68
39.72
56.09
68.07
76.12
80.43
80.85
77.25
69.98
60.02
48.82
37.87
28.18
20.12
13.41
7.47
1.75
-3.98
-9.65
-14.95
-19.7
-23.91
-28.01
-32.67
-38.69
-46.77
-57.19
-69.55
-82.47
-93.63
-100.1
-99.21
-89.46
-71.25
-46.88
-19.94
5.9
27.94
44.95
57.0
64.75
68.73
69.02
65.43
58.11
47.9
36.4
25.54
16.87
11.04
7.58
5.33
2.97
-0.3
-4.49
-8.95
-12.81
-15.5
-17.13
-18.43
-20.49
-24.41
-30.98
-40.58
-53.01
-67.24
-81.3
-92.44
-97.63
-94.57
-82.59
-63.07
-39.0
-14.1
8.52
27.04
40.94
50.52
56.07
57.54
54.7
47.61
37.06
24.68
12.53
2.49
-4.3
-7.75
-8.64
-8.12
-7.21
-6.44
-5.76
-4.84
-3.41
-1.51
0.34
1.43
0.96
-1.72
-7.09
-15.37
-26.26
-38.7
-50.61
-59.16
-61.44
-55.47
-41.07
-20.04
4.29
28.24
48.85
64.48
74.83
80.29
81.48
78.78
72.48
62.98
51.19
38.43
26.26
16.05
8.53
3.69
0.8
-1.14
-3.09
-5.55
-8.5
-11.51
-14.12
-16.13
-17.69
-19.31
-21.66
-25.35
-30.85
-38.43
-48.1
-59.34
-70.78
-80.07
-84.24
-80.5
-67.37
-45.43
-17.36
12.83
41.1
64.51
81.79
93.02
99.01
100.55
98.09
91.95
82.64
71.15
58.85
47.21
37.38
29.84
24.38
20.17
16.22
11.66
6.13
-0.23
-6.91
-13.24
-18.81
-23.57
-27.92
-32.49
-38.01
-45.06
-54.03
-64.95
-77.19
-89.17
-98.35
-101.69
-96.56
-81.9
-58.76
-30.24
-0.52
26.44
47.96
63.01
71.82
75.21
73.98
68.67
59.83
48.27
35.27
22.44
11.36
3.16
-1.78
-3.93
-4.38
-4.36
-4.86
-6.32
-8.62
-11.32
-14.01
-16.58
-19.3
-22.68
-27.27
-33.48
-41.63
-51.86
-63.94
-76.94
-88.94
-97.14
-98.52
-90.91
-73.93
-49.41
-20.88
7.55
32.48
52.02
65.75
74.19
78.0
77.57
73.03
64.69
53.41
40.71
28.46
18.32
11.29
7.41
5.9
5.57
5.27
4.26
2.33
-0.31
-3.35
-6.52
-9.85
-13.54
-17.91
-23.29
-29.98
-38.32
-48.56
-60.63
-73.69
-85.78
-93.95
-95.0
-86.62
-68.46
-42.5
-12.53
17.09
42.78
62.56
76.05
83.89
86.89
85.63
80.46
71.86
60.79
48.65
37.0
27.12
19.72
14.79
11.86
10.14
8.85
7.42
5.55
3.21
0.54
-2.32
-5.4
-8.94
-13.31
-18.91
-26.01
-34.76
-45.24
-57.33
-70.4
-83.0
-92.71
-96.5
-91.76
-77.37
-54.45
-26.24
2.94
29.12
49.77
64.16
72.83
76.72
76.46
72.18
63.97
52.41
38.88
25.33
13.75
5.52
0.96
-0.65
-0.66
-0.49
-1.05
-2.63
-4.96
-7.56
-10.11
-12.65
-15.57
-19.46
-24.9
-32.39
-42.21
-54.29
-67.95
-81.59
-92.69
-98.21
-95.42
-82.99
-61.69
-34.32
-4.89
22.64
45.49
62.5
73.83
80.19
82.17
79.99
73.78
64.08
52.12
39.69
28.72
20.56
15.68
13.51
12.83
12.33
11.05
8.7
5.58
2.25
-0.86
-3.73
-6.82
-10.87
-16.66
-24.79
-35.51
-48.67
-63.47
-78.29
-90.61
-97.31
-95.61
-84.01
-63.15
-35.81
-6.08
21.99
45.49
63.17
75.09
81.81
83.77
81.08
73.91
62.92
49.59
35.97
24.12
15.51
10.62
8.94
9.24
10.15
10.57
10.01
8.53
6.57
4.5
2.39
-0.07
-3.49
-8.5
-15.56
-24.88
-36.38
-49.51
-63.07
-74.94
-82.31
-82.3
-72.94
-54.12
-27.82
2.37
32.37
58.9
80.1
95.56
105.6
110.7
111.02
106.63
97.95
86.11
73.0
60.77
51.27
45.53
43.52
44.4
46.91
49.89
52.62
54.86
56.73
58.37
59.76
60.78
61.26
61.16
60.57
59.56
57.89
55.09
50.74
45.06
39.32
35.77
36.96
44.64
58.87
77.73
97.9
115.75
128.52
134.85
134.79
129.21
119.24
105.94
90.26
73.29
56.24
40.22
25.89
13.17
1.38
-10.5
-23.23
-37.01
-51.4
-65.48
-78.23
-88.83
-96.82
-102.14
-105.16
-106.63
-107.59
-109.22
-112.58
-118.43
-127.03
-138.01
-150.18
-161.56
-169.44
-170.99
-164.08
-148.09
-124.33
-95.85
-66.48
-39.76
-18.08
-2.34
7.62
12.49
12.96
9.58
2.93
-6.05
-16.08
-25.58
-33.1
-37.71
-39.24
-38.28
-35.95
-33.5
-31.93
-31.71
-32.8
-34.81
-37.3
-39.99
-42.87
-46.17
-50.29
-55.66
-62.68
-71.56
-82.04
-93.05
-102.59
-108.01
-106.69
-97.0
-79.06
-54.89
-27.87
-1.62
21.03
38.65
51.05
58.76
62.31
61.97
57.92
50.6
41.13
31.17
22.54
16.66
14.04
14.14
15.66
17.14
17.44
16.2
13.8
10.98
8.47
6.57
4.96
3.0
-0.08
-4.83
-11.48
-19.93
-29.72
-39.89
-48.87
-54.55
-54.57
-47.06
-31.32
-8.14
20.32
51.08
81.16
108.14
130.45
147.4
158.98
165.68
168.36
168.12
166.16
163.82
162.7
164.71
171.73
184.74
202.78
222.56
238.99
246.87
242.79
226.47
200.51
168.95
135.37
101.84
69.13
37.87
9.49
-13.78
-30.11
-39.37
-43.66
-46.03
-48.56
-50.53
-48.41
-37.61
-15.35
17.1
54.08
87.55
110.14
117.83
110.77
92.12
65.85
35.03
1.28
-34.33
-69.98
-102.49
-127.91
-142.84
-145.91
-138.39
-123.74
-106.32
-90.03
-77.5
-69.87
-67.18
-68.81
-73.79
-80.93
-88.75
-95.68
-100.19
-101.17
-98.28
-92.06
-83.97
-76.14
-70.88
-70.0
-74.09
-81.86
-89.95
-93.55
-87.68
-68.89
-36.61
6.31
54.36
101.06
140.98
171.12
191.19
202.84
208.1
208.14
202.75
190.79
171.36
144.81
113.14
79.46
46.95
17.69
-7.94
-31.03
-53.49
-77.28
-104.02
-134.76
-169.79
-208.31
-248.19
-286.14
-318.41
-342.02
-355.85
-361.03
-360.39
-357.31
-354.58
-353.56
-354.02
-354.29
-351.87
-343.92
-327.96
-302.5
-267.32
-223.45
-172.8
-117.74
-61.03
-5.99
43.52
83.5
110.87
124.56
126.04
118.95
107.78
96.4
87.02
80.28
75.8
73.01
71.62
71.56
72.73
74.63
76.31
76.59
74.43
69.23
61.22
51.37
41.21
32.43
26.25
23.05
22.21
22.39
21.94
19.41
13.83
4.88
-6.9
-20.05
-32.11
-39.95
-40.43
-31.49
-12.97
13.14
43.1
72.61
97.9
116.49
127.19
129.79
124.53
111.9
92.81
68.78
42.09
15.46
-8.57
-28.19
-42.78
-52.83
-59.56
-64.34
-68.21
-71.76
-75.32
-79.24
-84.0
-90.27
-98.48
-108.53
-119.72
-130.97
-141.18
-149.69
-156.49
-162.13
-167.59
-174.0
-182.35
-193.09
-205.63
-218.07
-227.24
-229.59
-222.25
-204.18
-176.35
-141.28
-101.83
-60.37
-18.5
22.45
60.66
93.64
118.74
134.22
140.14
138.53
132.63
125.75
120.19
116.98
116.0
116.62
118.18
120.26
122.58
124.83
126.46
126.63
124.38
118.88
109.77
97.35
82.62
67.01
51.97
38.5
26.79
16.23
5.58
-6.62
-21.7
-40.2
-61.45
-83.26
-102.07
-113.74
-114.65
-102.78
-78.46
-44.26
-4.29
36.83
75.05
107.42
132.24
148.89
157.59
159.11
154.67
145.9
134.68
123.0
112.71
105.13
100.83
99.46
100.09
101.52
102.88
103.8
104.27
104.31
103.56
101.15
95.98
87.25
74.92
59.86
43.6
27.79
13.61
1.42
-9.3
-19.71
-31.24
-45.14
-61.87
-80.67
-99.22
-113.85
-120.33
-115.23
-97.12
-67.34
-29.72
10.58
48.61
80.83
105.67
123.01
133.56
138.04
137.06
131.28
121.83
110.4
99.02
89.49
82.82
79.05
77.44
77.01
77.03
77.3
77.96
79.07
80.24
80.44
78.35
72.88
63.65
51.21
36.9
22.35
8.88
-2.84
-13.07
-22.75
-33.26
-45.86
-61.19
-78.74
-96.54
-111.37
-119.42
-117.44
-103.85
-79.48
-47.36
-11.92
22.36
52.06
75.25
91.45
101.02
104.62
103.0
97.06
87.95
77.21
66.45
57.09
49.95
45.18
42.34
40.78
39.95
39.66
39.94
40.86
42.16
43.13
42.75
40.07
34.53
26.29
16.14
5.29
-5.16
-14.53
-22.73
-30.31
-38.25
-47.54
-58.87
-72.13
-86.08
-98.28
-105.58
-104.97
-94.61
-74.66
-47.32
-16.35
14.14
40.68
61.25
75.26
83.17
85.87
84.31
79.35
71.91
63.08
54.07
45.98
39.58
35.18
32.62
31.59
31.79
32.99
35.06
37.6
40.0
41.39
40.98
38.31
33.45
26.99
19.76
12.51
5.7
-0.65
-6.93
-13.8
-21.97
-31.9
-43.31
-54.87
-64.22
-68.53
-65.5
-54.42
-36.73
-15.7
4.52
20.38
29.85
32.72
30.06
23.4
13.99
2.66
-10.02
-23.39
-36.5
-48.3
-57.79
-64.31
-67.68
-68.04
-65.74
-61.21
-54.95
-47.59
-39.97
-33.08
-27.88
-25.11
-25.02
-27.28
-31.09
-35.48
-39.63
-43.23
-46.57
-50.38
-55.63
-62.98
-72.29
-82.3
-90.73
-94.72
-91.78
-80.63
-61.77
-37.44
-10.91
14.42
35.91
52.12
62.77
68.34
69.64
67.49
62.67
55.93
48.08
40.01
32.6
26.59
22.4
20.13
19.46
19.84
20.59
21.08
20.82
19.51
17.07
13.58
9.16
3.96
-1.91
-8.28
-15.07
-22.29
-30.11
-38.87
-48.79
-59.64
-70.33
-78.9
-82.89
-80.09
-69.48
-51.69
-29.01
-4.67
18.11
36.96
50.78
59.48
63.68
64.15
61.62
56.81
50.5
43.57
36.91
31.19
26.74
23.56
21.42
20.05
19.28
19.02
19.07
19.07
18.42
16.46
12.77
7.29
0.41
-7.17
-14.76
-21.9
-28.51
-34.95
-41.88
-50.03
-59.84
-71.03
-82.31
-91.44
-95.7
-92.75
-81.49
-62.68
-38.76
-13.14
10.83
30.76
45.54
55.21
60.41
61.9
60.34
56.33
50.57
43.97
37.57
32.23
28.4
26.03
24.67
23.84
23.22
22.84
22.83
23.23
23.66
23.39
21.56
17.55
11.32
3.44
-5.09
-13.28
-20.44
-26.49
-31.87
-37.38
-43.96
-52.27
-62.49
-73.91
-84.88
-93.03
-95.79
-91.17
-78.57
-59.09
-35.29
-10.46
12.43
31.39
45.63
55.25
60.69
62.35
60.49
55.48
48.08
39.58
31.54
25.38
21.9
21.06
22.13
24.0
25.67
26.62
26.79
26.46
25.91
25.17
23.86
21.39
17.2
11.07
3.29
-5.41
-14.11
-22.06
-28.93
-34.92
-40.63
-46.89
-54.43
-63.75
-74.81
-86.85
-98.29
-106.86
-110.16
-106.32
-94.82
-76.73
-54.54
-31.38
-10.08
7.54
20.77
29.78
35.07
37.14
36.44
33.51
29.19
24.6
20.95
19.19
19.73
22.42
26.51
31.07
35.21
38.4
40.49
41.65
42.15
42.11
41.34
39.3
35.42
29.34
21.19
11.66
1.69
-7.75
-16.1
-23.27
-29.65
-35.9
-42.8
-50.97
-60.67
-71.54
-82.37
-91.17
-95.54
-93.37
-83.56
-66.53
-44.22
-19.49
4.65
25.8
42.55
54.49
61.81
65.06
64.8
61.65
56.37
49.95
43.56
38.27
34.86
33.55
33.98
35.39
36.94
38.01
38.39
38.24
37.79
37.1
35.88
33.58
29.61
23.65
15.85
6.85
-2.43
-11.12
-18.67
-25.08
-30.85
-36.77
-43.67
-52.13
-62.21
-73.32
-84.06
-92.35
-95.83
-92.53
-81.51
-63.38
-40.26
-15.27
8.41
28.32
43.22
52.95
58.05
59.28
57.29
52.73
46.34
39.14
32.29
26.83
23.36
21.9
21.97
22.89
24.08
25.25
26.36
27.34
27.93
27.59
25.64
21.65
15.59
8.05
-0.05
-7.73
-14.42
-20.09
-25.32
-31.05
-38.21
-47.35
-58.19
-69.46
-78.97
-84.1
-82.54
-73.13
-56.38
-34.41
-10.43
12.32
31.36
45.46
54.53
59.12
59.97
57.73
53.02
46.58
39.34
32.29
26.27
21.72
18.71
16.96
16.17
16.18
16.9
18.22
19.72
20.74
20.4
17.96
13.15
6.25
-1.95
-10.44
-18.4
-25.43
-31.66
-37.7
-44.42
-52.63
-62.69
-74.04
-85.06
-93.2
-95.71
-90.46
-76.89
-56.31
-31.61
-6.28
16.63
35.17
48.72
57.53
62.2
63.29
61.25
56.58
50.04
42.73
35.84
30.39
26.92
25.32
25.04
25.32
25.58
25.58
25.44
25.36
25.36
25.02
23.5
19.97
13.92
5.59
-4.1
-13.84
-22.43
-29.26
-34.4
-38.63
-43.01
-48.68
-56.45
-66.46
-77.95
-89.07
-97.19
-99.45
-93.76
-79.57
-58.21
-32.6
-6.33
17.39
36.51
50.3
59.07
63.52
64.35
62.1
57.26
50.56
43.07
36.02
30.59
27.48
26.7
27.66
29.42
31.06
32.06
32.3
32.06
31.62
31.05
30.08
28.14
24.6
19.12
11.79
3.15
-5.95
-14.69
-22.5
-29.24
-35.19
-40.9
-47.06
-54.29
-62.98
-73.06
-83.73
-93.37
-99.71
-100.33
-93.48
-78.76
-57.39
-32.02
-5.9
17.92
37.36
51.5
60.4
64.68
65.19
62.74
58.13
52.17
45.75
39.7
34.78
31.49
30.01
30.18
31.57
33.6
35.65
37.18
37.8
37.34
35.81
33.3
29.98
25.97
21.31
15.99
9.99
3.35
-3.84
-11.4
-19.06
-26.5
-33.45
-39.7
-45.22
-50.28
-55.39
-61.3
-68.71
-77.84
-88.08
-97.77
-104.39
-105.25
-98.37
-83.27
-61.35
-35.53
-9.29
14.24
33.2
46.98
55.98
60.99
62.75
61.74
58.4
53.29
47.22
41.23
36.3
33.09
31.83
32.26
33.75
35.59
37.12
37.91
37.79
36.82
35.13
32.84
29.91
26.17
21.36
15.31
8.0
-0.27
-8.96
-17.45
-25.25
-32.11
-38.15
-43.71
-49.28
-55.4
-62.49
-70.77
-80.04
-89.36
-97.05
-100.87
-98.6
-88.87
-71.76
-49.03
-23.63
1.15
22.63
39.34
51.01
58.14
61.46
61.49
58.57
53.12
45.94
38.27
31.49
26.74
24.47
24.37
25.55
27.01
28.07
28.52
28.51
28.28
27.85
26.9
24.9
21.29
15.79
8.52
0.06
-8.76
-17.19
-24.67
-31.09
-36.69
-41.97
-47.55
-54.04
-61.94
-71.32
-81.6
-91.33
-98.3
-100.01
-94.49
-81.07
-60.85
-36.39
-11.02
12.18
31.15
45.11
54.28
59.36
61.04
59.82
56.17
50.7
44.36
38.3
33.57
30.81
30.0
30.53
31.58
32.43
32.74
32.58
32.23
31.92
31.53
30.57
28.28
24.0
17.49
9.1
-0.32
-9.7
-18.19
-25.45
-31.72
-37.67
-44.15
-51.94
-61.5
-72.78
-84.96
-96.39
-104.7
-107.32
-102.23
-88.8
-68.08
-42.7
-15.99
8.9
29.8
45.81
57.05
64.15
67.79
68.48
66.61
62.69
57.43
51.78
46.73
43.09
41.24
41.13
42.31
44.09
45.82
46.95
47.2
46.44
44.72
42.07
38.5
33.93
28.27
21.49
13.67
5.03
-4.07
-13.23
-22.07
-30.27
-37.65
-44.23
-50.23
-56.18
-62.79
-70.79
-80.53
-91.53
-102.24
-110.11
-112.28
-106.49
-91.98
-69.94
-43.24
-15.52
9.91
30.86
46.51
57.12
63.38
66.0
65.51
62.38
57.27
51.15
45.17
40.41
37.61
36.9
37.87
39.73
41.63
42.88
43.17
42.51
41.12
39.18
36.69
33.43
29.06
23.3
16.07
7.64
-1.44
-10.49
-18.9
-26.36
-32.89
-38.82
-44.67
-51.01
-58.4
-67.21
-77.4
-88.19
-97.95
-104.3
-104.74
-97.51
-82.27
-60.42
-34.8
-8.78
14.64
33.59
47.45
56.55
61.61
63.33
62.23
58.75
53.46
47.23
41.06
35.95
32.53
30.97
30.93
31.82
33.0
34.04
34.75
35.13
35.2
34.9
33.98
32.02
28.56
23.23
15.96
7.02
-2.94
-13.11
-22.71
-31.2
-38.47
-44.79
-50.66
-56.74
-63.7
-72.02
-81.8
-92.46
-102.53
-109.79
-111.82
-106.72
-93.93
-74.53
-50.94
-26.2
-3.08
16.54
31.77
42.51
48.96
51.44
50.41
46.55
40.91
34.8
29.43
25.67
23.75
23.36
23.86
24.65
25.4
26.16
27.18
28.6
30.26
31.63
31.95
30.51
27.02
21.72
15.34
8.88
3.14
-1.49
-5.25
-8.85
-13.28
-19.42
-27.69
-37.74
-48.3
-57.34
-62.43
-61.45
-53.34
-38.5
-18.74
3.13
24.23
42.32
56.16
65.54
70.82
72.54
71.23
67.39
61.69
55.02
48.43
42.76
38.5
35.58
33.56
31.9
30.25
28.65
27.38
26.66
26.39
26.03
24.72
21.65
16.38
9.06
0.39
-8.68
-17.25
-24.89
-31.66
-38.13
-45.15
-53.57
-63.88
-75.86
-88.31
-99.07
-105.46
-105.04
-96.41
-79.88
-57.39
-32.05
-7.15
14.65
31.83
43.98
51.44
54.88
55.0
52.48
48.05
42.56
36.9
31.86
28.01
25.61
24.67
24.98
26.21
27.89
29.48
30.36
29.98
27.92
23.96
18.18
10.86
2.5
-6.38
-15.25
-23.75
-31.77
-39.62
-47.86
-56.99
-66.98
-76.8
-84.42
-87.27
-83.14
-71.06
-51.9
-28.11
-3.01
20.29
39.67
54.26
64.18
70.02
72.37
71.7
68.52
63.5
57.56
51.69
46.77
43.31
41.51
41.3
42.48
44.82
48.04
51.77
55.45
58.49
60.31
60.57
59.25
56.64
53.32
49.93
47.09
45.13
43.97
43.1
41.78
39.49
36.51
34.24
35.17
42.22
57.79
82.74
115.88
153.99
192.48
226.29
250.95
263.31
262.0
247.62
222.4
189.77
153.51
117.04
82.78
51.96
24.85
1.04
-20.11
-39.25
-56.97
-73.74
-89.9
-105.58
-120.64
-134.64
-146.97
-156.96
-164.14
-168.38
-169.97
-169.59
-168.16
-166.77
-166.49
-168.25
-172.8
-180.51
-191.14
-203.5
-215.39
-223.91
-226.18
-220.27
-205.98
-185.04
-160.57
-136.06
-114.27
-96.63
-83.25
-73.47
-66.47
-61.69
-58.75
-57.19
-56.21
-54.74
-51.73
-46.54
-39.23
-30.5
-21.3
-12.43
-4.2
3.42
10.57
17.12
22.55
26.09
27.13
25.53
21.79
16.89
11.87
7.44
3.72
0.28
-3.72
-9.16
-16.69
-26.31
-37.1
-47.24
-54.27
-55.75
-50.04
-36.93
-17.81
4.72
27.62
48.22
64.81
76.72
84.08
87.42
87.37
84.6
79.85
73.96
67.86
62.39
58.12
55.29
53.75
53.15
53.12
53.39
53.78
54.21
54.43
54.08
52.64
49.6
44.69
38.0
30.04
21.6
13.51
6.34
0.23
-5.2
-10.7
-17.15
-25.16
-34.58
-44.26
-52.02
-55.22
-51.51
-39.74
-20.41
4.31
31.29
57.32
79.92
97.73
110.47
118.63
123.07
124.78
124.85
124.24
123.66
123.3
122.65
120.65
116.07
108.07
96.54
82.26
66.49
50.52
35.12
20.36
5.78
-9.17
-24.69
-40.47
-55.75
-69.62
-81.39
-90.79
-98.01
-103.58
-108.28
-112.82
-117.65
-122.58
-126.6
-127.99
-124.81
-115.61
-100.15
-79.75
-56.89
-34.51
-15.06
0.02
10.4
16.51
19.01
18.56
15.69
10.98
5.18
-0.84
-6.24
-10.43
-13.11
-14.32
-14.27
-13.3
-11.7
-9.82
-8.04
-6.82
-6.75
-8.38
-12.11
-17.92
-25.45
-33.99
-42.74
-51.04
-58.54
-65.28
-71.63
-78.24
-85.65
-94.09
-103.0
-110.88
-115.49
-114.33
-105.56
-88.7
-65.03
-37.27
-8.77
17.39
39.16
55.72
67.24
74.39
77.97
78.73
77.38
74.73
71.63
68.9
67.09
66.46
66.99
68.47
70.74
73.64
77.03
80.64
84.03
86.6
87.91
87.76
