-113.5
-138.17
-170.22
-206.89
-241.79
-265.67
-269.05
-245.94
-197.03
-130.58
-60.05
0.45
41.02
58.52
56.05
39.88
15.96
-12.03
-42.5
-74.29
-105.18
-131.6
-149.85
-157.67
-155.31
-145.39
-131.57
-116.96
-103.18
-90.28
-77.61
-64.97
-53.28
-44.62
-41.53
-45.91
-58.16
-76.8
-98.8
-120.48
-138.55
-151.04
-157.73
-159.91
-159.79
-159.66
-161.32
-165.67
-172.61
-180.82
-187.73
-189.67
-182.58
-163.24
-130.86
-88.03
-40.74
3.12
36.14
53.57
54.46
41.25
18.12
-10.8
-42.54
-75.3
-107.7
-137.93
-163.44
-181.56
-190.39
-189.55
-180.33
-164.94
-145.6
-123.72
-99.75
-73.68
-45.91
-17.95
7.36
26.37
35.66
33.22
19.14
-4.31
-33.4
-64.09
-93.12
-118.7
-140.49
-159.16
-175.76
-191.29
-206.46
-221.46
-235.75
-247.81
-255.19
-255.05
-245.13
-224.72
-195.03
-158.76
-119.02
-78.02
-36.4
6.48
51.37
97.62
142.48
181.44
209.7
224.01
223.89
211.75
191.86
168.8
146.02
125.35
107.19
91.36
77.69
66.13
56.43
47.57
37.6
24.01
4.63
-21.38
-52.91
-86.71
-118.35
-143.41
-159.05
-164.87
-163.08
-157.67
-153.18
-153.36
-160.24
-173.7
-191.61
-210.4
-225.92
-234.47
-233.62
-222.83
-203.41
-178.21
-150.82
-124.63
-102.08
-84.21
-70.76
-60.61
-52.32
-44.65
-36.87
-28.71
-20.17
-11.23
-1.72
8.65
20.12
32.67
46.01
59.7
73.14
85.67
96.53
104.83
109.68
110.38
106.8
99.46
89.54
78.49
67.63
57.63
48.39
39.11
28.58
15.65
-0.32
-18.91
-38.44
-56.04
-68.34
-72.53
-67.28
-53.32
-33.02
-9.49
14.68
38.12
60.91
84.06
108.62
134.85
161.65
186.65
206.75
219.15
222.36
216.79
204.78
189.71
175.0
163.09
155.15
151.18
150.5
152.07
154.62
156.62
156.37
152.31
143.52
129.98
112.63
92.96
72.59
52.65
33.5
14.52
-5.55
-27.81
-52.37
-77.47
-99.53
-113.94
-116.64
-105.46
-80.84
-45.48
-3.36
41.29
84.68
123.54
155.15
177.48
189.54
191.73
185.89
174.63
160.59
145.69
130.92
116.64
103.01
90.3
78.98
69.46
61.91
56.01
51.06
46.06
40.02
32.35
23.12
12.99
3.1
-5.42
-11.9
-16.42
-19.86
-23.69
-29.6
-39.05
-52.67
-69.72
-87.77
-102.96
-110.71
-107.01
-89.79
-59.69
-20.07
23.97
66.94
104.4
133.69
153.96
165.78
170.34
169.07
163.29
154.25
143.11
130.93
118.61
106.78
95.85
86.03
77.49
70.39
64.91
61.01
58.39
56.42
54.2
50.91
45.98
39.36
31.47
23.04
14.79
7.1
-0.21
-7.97
-17.4
-29.64
-44.93
-62.06
-78.12
-89.06
-90.85
-80.86
-58.88
-27.32
9.52
46.82
80.49
107.99
128.36
141.76
148.83
150.33
147.08
140.08
130.54
119.77
108.85
98.38
88.4
78.6
68.66
58.6
48.82
39.93
32.31
25.84
19.81
13.17
5.03
-5.04
-16.74
-29.22
-41.4
-52.37
-61.74
-69.79
-77.44
-85.95
-96.48
-109.47
-124.09
-138.01
-147.71
-149.39
-140.24
-119.39
-88.5
-51.26
-12.42
23.55
53.37
75.39
89.45
96.33
97.26
93.59
86.61
77.57
67.68
57.93
49.09
41.55
35.39
30.47
26.57
23.54
21.25
19.54
17.99
15.97
12.7
7.52
0.17
-9.05
-19.33
-29.65
-39.17
-47.56
-55.16
-62.93
-72.04
-83.32
-96.55
-110.05
-120.76
-124.94
-119.36
-102.47
-75.17
-40.74
-4.04
29.82
56.72
74.36
82.39
82.04
75.42
64.89
52.53
39.96
28.27
18.14
9.93
3.82
-0.23
-2.45
-3.2
-2.92
-2.05
-0.97
-0.05
0.3
-0.3
-2.18
-5.54
-10.37
-16.55
-23.94
-32.45
-42.14
-53.19
-65.86
-80.34
-96.43
-113.28
-129.05
-140.95
-145.75
-140.78
-124.9
-99.16
-66.67
-31.72
1.47
29.81
51.84
67.5
77.56
82.94
84.45
82.71
78.39
72.31
65.4
58.52
52.26
46.81
42.07
37.83
33.98
30.66
28.09
26.41
25.38
24.3
22.2
18.13
11.58
2.68
-7.8
-18.73
-29.04
-38.13
-46.09
-53.61
-61.81
-71.75
-84.01
-98.25
-112.93
-125.41
-132.44
-131.11
-119.79
-98.85
-70.64
-38.89
-7.57
20.15
42.55
59.31
71.0
78.4
82.05
82.28
79.39
73.95
66.89
59.37
52.51
47.03
43.18
40.69
39.06
37.74
36.31
34.63
32.72
30.69
28.54
26.13
23.08
18.87
13.09
5.55
-3.48
-13.4
-23.36
-32.63
-40.79
-47.88
-54.33
-60.85
-68.23
-77.09
-87.71
-99.66
-111.61
-121.25
-125.77
-122.6
-110.38
-89.59
-62.54
-32.82
-4.14
20.59
39.87
53.51
62.18
66.82
68.2
66.89
63.36
58.13
51.9
45.48
39.64
34.92
31.5
29.21
27.65
26.34
24.88
23.03
20.75
18.09
15.14
12.01
8.82
5.6
2.26
-1.41
-5.77
-11.12
-17.58
-24.91
-32.55
-39.79
-45.96
-50.71
-54.13
-56.8
-59.63
-63.48
-68.65
-74.41
-78.95
-79.73
-74.37
-61.56
-41.74
-17.11
9.12
33.71
54.3
69.76
80.06
85.77
87.63
86.36
82.65
77.23
70.92
64.49
58.6
53.56
49.45
46.12
43.37
41.07
39.17
37.67
36.56
35.71
34.83
33.52
31.4
28.19
23.87
18.55
12.36
5.41
-2.33
-10.86
-20.03
-29.43
-38.5
-46.68
-53.7
-59.69
-65.15
-70.87
-77.63
-85.96
-95.76
-106.05
-114.85
-119.52
-117.42
-106.89
-87.96
-62.55
-34.0
-6.01
18.38
37.48
50.99
59.55
64.16
65.64
64.54
61.25
56.25
50.16
43.81
38.01
33.35
30.11
28.19
27.25
26.89
26.78
26.72
26.66
26.56
26.3
25.62
24.14
21.5
17.48
12.03
5.34
-2.25
-10.26
-18.23
-25.75
-32.63
-38.92
-44.93
-51.2
-58.39
-67.04
-77.35
-88.81
-100.05
-108.91
-112.83
-109.58
-98.11
-78.97
-54.3
-27.28
-1.11
21.73
39.88
52.98
61.27
65.24
65.34
62.11
56.3
48.92
41.14
34.06
28.46
24.64
22.44
21.43
21.08
21.03
21.12
21.34
21.72
22.14
22.26
21.59
19.53
15.61
9.68
2.02
-6.73
-15.67
-23.97
-31.11
-37.04
-42.2
-47.36
-53.4
-61.0
-70.31
-80.57
-90.11
-96.5
-97.15
-90.09
-74.7
-52.11
-24.88
3.7
30.59
53.62
71.81
85.08
93.91
99.07
101.51
102.48
103.45
105.9
110.83
118.47
128.21
138.82
149.1
158.34
166.5
174.13
181.82
189.83
197.7
204.36
208.43
208.66
204.28
195.14
181.71
164.76
145.17
123.65
100.56
75.9
49.37
20.54
-10.82
-44.21
-77.93
-108.73
-132.2
-143.78
-140.28
-121.17
-89.14
-49.48
-8.57
27.83
55.89
73.98
82.13
81.27
72.61
57.55
37.98
16.42
-4.15
-20.98
-32.26
-37.63
-38.18
-35.87
-32.71
-30.11
-28.65
-28.5
-29.94
-33.83
-41.56
-54.39
-72.67
-95.13
-118.98
-140.57
-156.62
-165.16
-166.07
-160.87
-152.16
-142.83
-135.45
-131.8
-132.45
-136.31
-140.56
-140.94
-132.82
-112.79
-80.04
-37.06
10.9
57.32
96.16
123.08
135.91
134.22
118.73
90.92
53.1
8.71
-37.74
-81.14
-116.84
-141.73
-154.88
-157.49
-152.14
-141.61
-128.12
-112.9
-96.58
-79.73
-63.44
-49.32
-39.06
-33.69
-33.07
-35.9
-40.19
-44.08
-46.56
-47.73
-48.7
-51.12
-56.8
-67.14
-82.72
-102.82
-125.06
-145.52
-159.55
-163.24
-154.86
-135.79
-110.31
-84.13
-62.58
-48.88
-43.61
-45.14
-50.79
-57.98
-64.95
-70.82
-75.26
-78.19
-79.66
-79.85
-79.16
-78.18
-77.41
-77.01
-76.64
-75.56
-73.0
-68.57
-62.63
-56.24
-50.94
-48.1
-48.48
-51.91
-57.28
-63.04
-67.71
-70.44
-71.36
-71.44
-72.26
-75.39
-81.72
-90.81
-100.56
-107.46
-107.39
-96.79
-73.84
-39.16
4.27
51.95
99.05
141.48
176.48
202.65
219.61
227.68
227.67
220.93
209.3
195.04
180.38
167.14
156.27
147.82
141.05
134.98
128.81
122.12
114.77
106.68
97.48
86.52
73.08
56.78
37.92
17.47
-3.21
-22.93
-41.09
-57.99
-74.71
-92.71
-113.48
-137.94
-165.96
-195.82
-224.08
-245.93
-256.28
-251.27
-229.49
-192.7
-145.34
-93.2
-41.81
4.7
44.01
75.22
98.11
112.66
118.97
117.54
109.64
97.36
83.29
69.91
59.06
51.66
47.86
47.46
50.39
56.79
66.74
79.79
94.52
108.64
119.51
125.0
124.23
117.8
107.5
95.55
83.81
73.24
63.73
54.17
42.77
27.47
6.72
-19.65
-49.65
-79.01
-102.07
-113.43
-109.99
-92.04
-63.29
-29.38
4.01
32.84
55.17
70.79
80.2
83.94
82.41
76.25
66.65
55.42
44.5
35.39
28.81
24.69
22.52
21.83
22.5
24.59
28.14
32.71
37.26
40.36
40.65
37.39
30.78
21.87
12.25
3.39
-3.87
-9.61
-14.8
-21.0
-29.77
-42.04
-57.39
-73.64
-87.0
-92.86
-87.18
-67.95
-36.1
4.61
48.83
91.17
127.75
156.8
178.18
192.66
200.89
203.26
200.1
192.23
181.17
168.97
157.55
147.98
140.22
133.16
125.3
115.51
103.52
89.9
75.6
61.16
46.32
30.01
10.89
-11.77
-37.5
-64.57
-90.38
-112.42
-129.04
-140.02
-146.71
-151.82
-158.82
-171.12
-190.87
-217.72
-248.2
-276.05
-293.89
-295.61
-278.62
-244.73
-199.43
-149.72
-101.78
-59.29
-23.3
6.79
31.92
52.57
68.74
80.58
89.06
96.07
103.88
114.19
127.26
141.65
154.74
163.71
166.7
163.31
154.6
142.28
127.87
112.03
94.51
74.64
52.08
27.38
2.12
-21.6
-41.83
-57.51
-68.83
-77.07
-84.1
-91.77
-101.46
-113.81
-128.64
-144.74
-159.67
-169.88
-171.3
-160.5
-135.98
-99.11
-53.97
-6.27
38.33
75.65
103.63
122.06
131.65
133.36
127.97
116.41
100.13
81.22
62.13
45.08
31.46
21.49
14.46
9.33
5.28
2.12
0.13
-0.38
0.42
1.58
1.57
-1.19
-7.67
-17.82
-30.55
-44.16
-56.94
-67.77
-76.33
-83.14
-89.29
-96.08
-104.7
-115.77
-128.95
-142.55
-153.63
-158.56
-154.18
-138.94
-113.68
-81.51
-46.86
-14.15
13.4
34.26
48.38
56.5
59.52
58.22
53.35
45.84
36.91
27.97
20.27
14.62
11.26
9.89
9.94
10.94
12.63
15.02
18.08
21.46
24.38
25.76
24.54
20.16
12.8
3.4
-6.76
-16.46
-25.0
-32.4
-39.35
-47.0
-56.59
-69.02
-84.28
-101.04
-116.52
-126.94
-128.48
-118.6
-96.97
-65.81
-29.24
7.92
41.54
68.95
89.11
102.18
108.78
109.66
105.51
97.24
86.13
73.8
61.91
51.72
43.85
38.18
34.2
31.35
29.31
28.0
27.38
27.1
26.4
24.19
19.45
11.65
1.03
-11.43
-24.34
-36.4
-46.85
-55.78
-64.08
-73.22
-84.72
-99.45
-116.97
-135.17
-150.45
-158.48
-155.6
-140.03
-112.67
-76.86
-37.45
0.7
33.89
60.28
79.62
92.69
100.51
103.93
103.64
100.37
95.09
89.03
83.44
79.15
76.39
74.77
73.6
72.35
70.91
69.52
68.55
67.95
67.14
64.99
60.27
52.2
40.83
27.1
12.5
-1.46
-13.8
-24.4
-34.04
-44.1
-56.05
-70.8
-88.1
-106.21
-121.96
-131.46
-131.17
-119.15
-95.76
-63.73
-27.34
8.87
41.21
67.55
87.22
100.53
108.15
110.74
108.96
103.65
96.0
87.44
79.38
72.85
68.23
65.25
63.24
61.54
59.69
57.68
55.79
54.3
53.27
52.26
50.47
46.93
40.86
32.03
20.88
8.46
-3.97
-15.31
-25.08
-33.46
-41.24
-49.53
-59.43
-71.7
-86.34
-102.31
-117.41
-128.47
-132.08
-125.55
-107.94
-80.48
-46.41
-10.05
24.43
53.92
76.9
93.19
103.41
108.52
109.4
106.85
101.68
94.82
87.27
79.97
73.65
68.74
65.37
63.45
62.75
62.96
63.69
64.43
64.67
63.92
61.88
58.5
53.9
48.29
41.79
34.37
25.91
16.4
6.05
-4.7
-15.26
-25.14
-34.19
-42.54
-50.66
-59.22
-68.9
-80.21
-93.15
-106.79
-119.11
-127.19
-127.93
-119.09
-100.28
-73.21
-41.32
-8.73
20.94
45.38
63.74
76.28
83.7
86.75
86.11
82.41
76.44
69.22
61.86
55.38
50.51
47.5
46.19
46.08
46.56
47.08
47.31
47.2
46.81
46.18
45.13
43.17
39.63
33.93
25.88
15.86
4.77
-6.29
-16.34
-24.92
-32.12
-38.5
-44.88
-52.09
-60.79
-71.26
-83.16
-95.27
-105.52
-111.24
-109.9
-99.97
-81.58
-56.68
-28.49
-0.61
24.02
43.68
57.95
67.26
72.38
73.99
72.58
68.66
62.82
55.96
49.14
43.32
39.16
36.8
35.96
36.07
36.56
36.98
37.1
36.89
36.35
35.38
33.7
30.91
26.6
20.54
12.84
3.96
-5.4
-14.47
-22.73
-30.03
-36.56
-42.85
-49.55
-57.28
-66.52
-77.3
-89.01
-100.16
-108.5
-111.51
-107.15
-94.59
-74.71
-49.84
-23.18
2.19
24.01
41.1
53.23
60.72
64.04
63.68
60.2
54.35
47.15
39.75
33.21
28.3
25.25
23.83
23.47
23.58
23.74
23.86
24.06
24.42
24.73
24.46
22.83
19.22
13.41
5.76
-2.89
-11.56
-19.54
-26.58
-32.97
-39.35
-46.48
-55.04
-65.29
-76.93
-88.83
-99.08
-105.33
-105.34
-97.71
-82.46
-61.17
-36.52
-11.57
11.09
29.8
43.91
53.43
58.68
60.02
57.89
52.97
46.3
39.13
32.67
27.7
24.41
22.39
20.99
19.64
18.14
16.57
15.2
14.19
13.38
12.3
10.31
6.88
1.83
-4.55
-11.6
-18.52
-24.66
-29.81
-34.23
-38.64
-43.95
-50.91
-59.82
-70.12
-80.3
-88.09
-91.0
-87.06
-75.58
-57.45
-34.93
-11.03
11.41
30.34
44.73
54.41
59.7
61.05
58.99
54.23
47.68
40.44
33.69
28.31
24.75
22.92
22.43
22.77
23.6
24.8
26.4
28.37
30.44
32.01
32.27
30.54
26.48
20.33
12.82
4.94
-2.41
-8.75
-14.18
-19.27
-24.92
-32.01
-41.06
-51.89
-63.46
-73.86
-80.67
-81.64
-75.35
-61.8
-42.53
-20.13
2.48
22.79
39.22
51.17
58.76
62.48
62.94
60.69
56.37
50.74
44.7
39.12
34.7
31.81
30.38
30.03
30.21
30.52
30.76
30.95
31.12
31.05
30.27
28.06
23.81
17.32
8.94
-0.42
-9.68
-17.9
-24.7
-30.28
-35.38
-40.95
-47.82
-56.39
-66.38
-76.69
-85.48
-90.5
-89.69
-81.8
-66.97
-46.76
-23.81
-1.04
19.07
35.04
46.45
53.61
57.15
57.68
55.71
51.79
46.69
41.37
36.79
33.6
31.94
31.34
31.03
30.29
28.78
26.74
24.69
23.1
22.03
21.0
19.15
15.68
10.23
3.0
-5.26
-13.62
-21.27
-27.87
-33.54
-38.81
-44.45
-51.16
-59.43
-69.14
-79.39
-88.39
-93.82
-93.47
-85.97
-71.41
-51.41
-28.73
-6.37
13.21
28.6
39.44
46.07
49.09
49.1
46.68
42.41
37.08
31.59
26.86
23.53
21.81
21.4
21.75
22.24
22.52
22.59
22.72
23.16
23.91
24.5
24.15
22.14
18.12
12.39
5.79
-0.57
-5.84
-9.69
-12.49
-15.12
-18.66
-23.93
-31.23
-40.0
-48.8
-55.44
-57.47
-52.87
-40.79
-21.95
1.41
26.17
49.21
68.18
81.95
90.42
94.13
93.82
90.22
84.04
76.13
67.6
59.59
53.16
48.98
47.24
47.65
49.66
52.69
56.29
60.23
64.36
68.55
72.5
75.75
77.83
78.35
77.29
74.94
71.93
68.91
66.37
64.38
62.51
59.92
55.66
49.14
40.49
30.91
22.51
17.85
19.14
27.53
42.82
63.6
87.85
113.49
138.84
162.56
183.53
200.67
213.07
220.28
222.53
220.68
215.69
208.17
197.92
184.11
165.86
142.91
116.14
87.44
59.21
33.49
11.31
-7.63
-24.61
-41.35
-59.37
-79.6
-102.15
-126.44
-151.19
-174.7
-195.17
-211.19
-222.33
-229.49
-234.73
-240.35
-247.59
-255.65
-261.54
-261.07
-250.76
-229.52
-199.35
-164.77
-131.06
-102.5
-81.17
-67.06
-58.87
-55.17
-55.03
-57.98
-63.48
-70.47
-77.32
-82.28
-84.08
-82.48
-78.25
-72.79
-67.36
-62.56
-58.27
-53.86
-48.82
-43.21
-37.75
-33.62
-31.87
-32.96
-36.51
-41.44
-46.44
-50.5
-53.3
-55.31
-57.66
-61.77
-68.7
-78.53
-89.99
-100.39
-106.27
-104.46
-93.23
-73.12
-46.87
-18.56
7.66
28.78
43.52
52.04
55.32
54.34
49.76
42.06
31.89
20.33
8.9
-0.89
-8.0
-12.28
-14.38
-15.44
-16.42
-17.69
-18.86
-19.09
-17.63
-14.48
-10.59
-7.64
-7.4
-11.05
-18.64
-29.14
-40.88
-52.24
-62.24
-70.74
-78.3
-85.82
-94.27
-104.34
-116.23
-129.22
-141.39
-149.73
-150.65
-141.2
-120.21
-89.07
-51.49
-12.49
23.17
52.22
73.3
86.74
93.61
95.08
92.0
85.08
75.2
63.7
52.23
42.47
35.63
32.02
31.09
31.72
32.73
33.27
33.07
32.33
31.39
30.43
29.18
27.03
23.22
17.08
8.43
-2.35
-14.38
-26.52
-37.74
-47.48
-55.83
-63.47
-71.41
-80.65
-91.88
-105.2
-119.8
-133.81
-144.4
-148.18
-142.2
-124.95
-97.21
-62.14
-24.47
10.83
39.96
61.06
74.11
80.29
81.09
77.75
71.15
62.13
51.65
40.91
31.18
23.46
18.37
16.05
16.27
18.61
22.47
27.09
31.64
35.32
37.5
37.92
36.68
34.09
30.52
26.14
20.82
14.23
5.98
-4.14
-15.96
-28.98
-42.42
-55.51
-67.78
-79.21
-90.3
-102.03
-115.67
-132.32
-152.32
-174.52
-195.97
-212.26
-218.74
-212.1
-191.81
-160.54
-123.31
-85.82
-52.61
-25.87
-5.39
10.6
24.2
36.94
49.33
61.21
72.18
82.09
91.34
100.71
111.12
123.18
136.91
151.71
166.59
180.59
193.08
203.84
212.92
220.32
225.77
228.74
228.63
225.1
218.34
209.02
198.13
186.43
174.05
160.34
143.96
123.45
97.77
66.67
30.77
-8.75
-50.24
-91.57
-129.75
-160.85
-180.39
-184.49
-171.34
-142.26
-101.69
-56.04
-11.8
26.06
54.81
73.71
83.04
83.44
75.65
60.8
40.84
18.53
-2.97
-20.86
-33.3
-39.78
-40.91
-38.02
-32.62
-26.03
-19.29
-13.13
-8.19
-5.09
-4.52
-7.11
-13.18
-22.58
-34.51
-47.71
-60.79
-72.64
-82.89
-91.96
-100.87
-110.79
-122.57
-136.29
-151.07
-164.87
-174.79
-177.44
-169.72
-149.86
-118.12
-77.15
-31.37
14.15
55.05
88.54
113.69
130.86
140.89
144.52
142.28
134.82
123.27
109.4
95.31
82.9
73.26
66.44
61.63
57.74
53.94
49.96
45.97
42.2
38.48
34.04
27.82
19.06
7.83
-4.71
-16.73
-26.38
-32.65
-35.9
-37.77
-40.7
-47.17
-59.04
-76.89
-99.62
-124.27
-146.35
-160.76
-163.1
-151.17
-125.85
-91.02
-52.39
-15.75
14.57
36.45
49.74
55.44
54.78
48.85
38.69
25.61
11.3
-2.37
-13.89
-22.47
-28.24
-31.94
-34.41
-36.08
-36.81
-36.06
-33.52
-29.51
-25.27
-22.64
-23.42
-28.7
-38.45
-51.59
-66.44
-81.33
-94.99
-106.71
-116.24
-123.65
-129.19
-133.17
-135.66
-136.24
-133.66
-126.06
-111.36
-88.11
-56.12
-16.78
27.19
72.37
115.34
153.34
184.44
207.73
223.14
231.34
233.55
231.28
226.16
219.66
213.01
207.06
202.3
198.93
196.88
195.93
195.76
195.99
196.13
195.47
193.19
188.43
180.54
169.36
155.31
139.19
121.9
103.88
84.87
63.81
39.2
9.58
-25.96
-67.29
-112.92
-159.95
-204.26
-241.09
-266.0
-276.02
-270.43
-251.04
-221.55
-186.43
-149.69
-114.12
-81.24
-51.74
-26.14
-4.99
11.19
22.37
29.29
33.39
36.42
39.77
44.1
49.2
54.37
58.83
62.16
64.32
65.5
65.73
64.64
61.61
56.09
48.03
37.98
26.98
16.04
5.77
-3.94
-13.83
-24.9
-38.01
-53.33
-69.98
-85.9
-98.1
-103.36
-99.15
-84.62
-61.0
-31.41
0.13
29.77
54.76
73.77
86.61
93.74
95.9
93.92
88.81
81.85
74.46
67.88
62.96
59.88
58.29
57.6
57.32
57.23
57.43
58.06
59.01
59.78
59.46
57.08
51.93
43.87
33.39
21.51
9.39
-2.08
-12.45
-21.9
-31.14
-41.13
-52.61
-65.54
-78.7
-89.67
-95.4
-93.13
-81.45
-60.87
-33.82
-3.9
25.17
50.44
70.17
83.7
91.21
93.33
90.96
85.13
77.01
67.64
57.89
48.32
39.29
31.01
23.71
17.7
13.19
10.29
8.74
7.96
7.0
4.79
0.45
-6.51
-15.91
-27.06
-38.91
-50.53
-61.4
-71.58
-81.63
-92.43
-104.8
-119.14
-135.08
-151.16
-164.94
-173.36
-173.65
-164.27
-145.59
-120.01
-91.17
-62.98
-38.34
-18.69
-4.06
6.37
13.55
18.21
20.78
21.76
21.85
21.95
22.87
24.99
28.05
31.21
33.5
34.26
33.4
31.47
29.23
27.21
25.45
23.43
20.4
15.82
9.77
2.96
-3.37
-7.94
-9.82
-8.8
-5.41
-0.82
3.49
6.18
6.52
4.69
2.0
0.48
2.4
9.4
21.97
39.19
59.07
79.2
97.47
112.53
123.85
131.45
135.55
136.39
134.13
129.11
121.91
113.42
104.66
96.58
89.88
84.83
81.28
78.8
76.86
74.94
72.68
69.9
66.6
62.81
58.61
53.97
48.76
42.81
35.94
28.03
19.12
9.5
-0.33
-9.78
-18.28
-25.52
-31.57
-36.84
-42.05
-48.03
-55.5
-64.64
-74.84
-84.34
-90.51
-90.43
-81.91
-64.33
-39.14
-9.46
20.88
48.38
70.82
87.34
98.13
103.92
105.53
103.91
100.12
95.44
91.17
88.34
87.26
87.4
87.53
86.17
82.21
75.3
65.97
55.31
44.42
33.88
23.47
12.48
0.12
-13.81
-28.69
-43.19
-55.88
-65.82
-73.07
-78.56
-83.73
-89.81
-97.28
-105.74
-114.29
-121.99
-128.41
-133.79
-138.87
-144.62
-151.89
-161.27
-172.89
-186.1
-199.19
-209.13
-212.04
-204.22
-183.55
-150.7
-109.23
-64.76
-23.2
10.92
35.43
50.44
57.54
58.76
55.96
50.66
44.1
37.43
31.55
26.86
23.15
19.77
16.06
11.88
7.93
5.75
7.32
14.31
27.29
45.16
64.99
82.52
93.25
93.7
82.53
60.98
32.42
1.21
-28.5
-53.74
-73.0
-85.94
-92.95
-94.85
-92.7
-87.87
-82.03
-76.95
-74.09
-74.33
-77.66
-83.08
-88.71
-92.07
-90.62
-82.38
-66.65
-44.35
-17.88
9.57
34.97
56.29
72.9
85.3
94.52
101.37
106.07
108.36
107.9
104.74
99.64
94.1
90.1
89.77
94.78
105.9
122.62
143.17
164.9
184.93
200.97
211.74
217.08
217.45
213.51
205.63
193.88
178.35
159.43
138.04
115.45
92.96
71.45
51.17
31.73
12.16
-8.74
-32.21
-59.2
-90.01
-123.66
-157.47
-187.0
-206.85
-212.25
-200.71
-173.2
-134.09
-89.8
-46.85
-10.06
18.12
37.45
48.9
53.83
53.5
49.11
41.96
33.49
25.05
17.61
11.58
6.75
2.52
-1.78
-6.56
-11.74
-16.88
-21.52
-25.58
-29.82
-35.72
-45.0
-58.89
-77.41
-99.16
-121.72
-142.54
-159.85
-173.2
-183.5
-192.52
-202.21
-214.04
-228.59
-245.09
-261.21
-273.07
-275.85
-264.91
-237.47
-193.89
-138.15
-76.98
-17.95
32.56
70.91
96.4
110.46
115.35
113.19
105.64
94.17
80.51
66.66
54.53
45.41
39.49
36.01
33.64
31.26
28.45
25.53
23.19
21.9
21.43
20.78
18.47
13.16
4.21
-7.97
-22.07
-36.26
-48.94
-59.27
-67.53
-74.98
-83.42
-94.62
-109.5
-127.49
-146.3
-162.07
-170.29
-167.09
-150.6
-121.81
-84.48
-44.06
-6.21
24.75
46.57
58.97
62.93
59.84
51.01
37.63
20.97
2.58
-15.8
-32.53
-46.46
-57.18
-64.91
-70.21
-73.51
-74.85
-73.91
-70.4
-64.5
-57.18
-50.19
-45.48
-44.57
-47.94
-54.97
-64.22
-74.12
-83.55
-92.19
-100.35
-108.8
-118.47
-130.16
-144.37
-160.79
-177.98
-193.2
-202.88
-203.64
-193.42
-172.22
-141.93
-105.49
-65.84
-25.31
14.26
51.09
83.07
107.98
124.19
131.45
131.17
126.05
119.14
112.93
108.82
107.09
107.29
108.71
110.78
113.22
116.05
119.36
123.1
126.89
129.94
131.3
130.16
126.22
119.82
111.84
103.4
95.45
88.45
82.32
76.54
70.4
63.13
54.07
42.9
29.98
16.82
6.2
1.8
7.14
24.09
51.94
87.18
124.55
158.69
185.75
204.11
214.04
216.75
213.42
204.75
191.29
173.92
154.23
134.34
116.32
101.55
90.37
82.07
75.45
69.45
63.61
58.23
54.0
51.53
50.77
50.84
50.18
47.15
40.63
30.45
17.52
3.39
-10.22
-21.97
-31.25
-38.35
-44.33
-50.77
-59.51
-72.04
-88.83
-108.67
-128.4
-143.35
-148.59
-140.57
-118.51
-84.97
-45.06
-4.79
30.75
58.67
78.45
91.15
98.37
101.3
100.48
96.04
88.15
77.32
64.46
50.77
37.49
25.78
16.62
10.7
8.37
9.6
13.9
20.54
28.54
36.86
44.37
49.82
51.99
49.88
43.17
32.44
19.25
5.75
-6.06
-14.95
-20.91
-25.13
-29.48
-35.95
-45.95
-59.72
-75.92
-91.44
-101.78
-102.19
-89.14
-61.94
-23.44
20.53
62.95
97.8
121.82
134.91
139.32
138.02
133.33
126.26
116.87
105.0
91.01
75.94
61.14
47.73
36.21
26.38
17.78
10.22
4.06
0.16
-0.58
2.0
6.88
11.81
13.78
9.96
-1.4
-20.34
-45.22
-73.21
-101.08
-126.09
-146.49
-161.81
-172.63
-180.28
-186.49
-193.1
-201.75
-213.37
-227.6
-242.21
-253.11
-255.23
-244.06
-217.56
-177.3
-128.33
-77.64
-31.97
4.21
29.4
44.65
52.08
53.67
50.58
43.44
32.92
20.27
7.2
-4.56
-13.86
-20.43
-24.75
-27.63
-29.73
-31.33
-32.39
-32.86
-33.0
-33.49
-35.36
-39.6
-46.84
-57.05
-69.55
-83.28
-97.17
-110.51
-123.1
-135.16
-147.0
-158.84
-170.66
-182.35
-193.81
-204.86
-214.85
-222.37
-225.14
-220.59
-206.66
-182.65
-149.47
-109.31
-64.98
-19.38
24.84
65.14
99.17
124.99
141.58
149.21
149.46
144.74
137.59
130.07
123.48
118.5
115.34
113.87
113.71
114.32
115.14
115.77
115.99
115.64
114.39
111.69
106.87
99.48
89.6
78.05
66.04
54.79
44.97
36.48
28.48
19.73
9.01
-4.6
-21.26
-40.17
-59.23
-75.22
-84.26
-82.95
-69.49
-44.48
-10.82
27.15
64.99
99.32
128.26
151.29
168.56
180.34
186.86
188.48
186.0
180.73
174.37
168.47
163.99
161.03
158.95
156.71
153.45
148.78
142.91
136.37
129.58
122.44
114.22
103.81
90.31
73.58
54.53
34.89
16.61
1.12
-11.22
-21.14
-30.12
-39.86
-51.81
-66.76
-84.51
-103.42
-120.34
-130.99
-130.96
-117.31
-89.85
-51.55
-7.79
35.34
72.8
101.74
121.45
132.62
136.32
133.4
124.56
110.75
93.55
75.1
57.66
43.0
31.87
24.01
18.38
13.84
9.65
5.67
2.3
-0.08
-1.48
-2.61
-4.77
-9.37
-17.37
-28.77
-42.63
-57.27
-70.95
-82.55
-91.94
-99.93
-107.83
-116.83
-127.51
-139.63
-152.03
-162.61
-168.4
-165.88
-151.67
-123.59
-81.77
-29.12
29.17
86.99
138.94
181.57
213.57
234.91
245.85
246.27
235.95
215.38
186.63
153.3
119.69
89.41
64.22
43.87
26.84
11.64
-2.26
-14.16
-22.92
-28.0
-30.17
-31.45
-34.28
-40.41
-50.02
-61.77
-73.33
-82.55
-88.3
-90.82
-91.58
-92.57
-95.72
-102.36
-112.97
-126.71
-141.19
-152.45
-155.57
-146.23
-122.56
-86.51
-43.7
-1.91
31.7
52.75
60.65
57.7
47.13
31.4
11.5
-12.31
-39.26
-67.21
-92.96
-113.43
-126.97
-134.05
-136.81
-137.81
-138.64
-139.27
-138.27
-133.93
-125.44
-113.55
-100.49
-89.04
-81.37
-78.14
-78.3
-79.58
-79.55
-76.67
-71.05
-64.58
-60.34
-61.72
-71.26
-89.53
-114.54
-141.67
-164.47
-176.15
-171.58
-148.91
-110.3
-61.4
-9.65
37.86
76.17
103.05
118.65
124.51
122.54
114.58
102.45
88.25
74.24
62.61
54.84
51.26
51.07
52.8
55.04
57.0
58.64
60.33
62.29
64.0
64.19
61.24
53.95
42.22
27.25
11.27
-3.35
-14.96
-23.36
-29.74
-36.39
-45.8
-59.5
-77.19
-96.15
-111.55
-117.51
-108.88
-83.16
-41.63
10.71
66.5
118.11
159.65
187.94
202.56
204.87
197.01
181.19
159.55
134.36
108.21
83.8
63.44
48.56
39.33
34.84
33.72
34.79
37.45
41.6
47.3
54.2
61.36
67.4
71.0
71.36
68.4
62.54
54.36
44.16
31.81
16.72
-1.92
-24.81
-51.91
-81.96
-112.0
-137.61
-153.93
-157.3
-146.8
-124.99
-97.24
-70.06
-48.97
-37.05
-34.57
-39.75
-50.03
-63.04
-77.07
-90.91
-103.56
-114.1
-121.75
-126.16
-127.49
-126.46
-124.08
-121.41
-119.29
-118.14
-117.97
-118.42
-118.87
-118.62
-117.08
-114.05
-109.94
-105.86
-103.57
-105.24
-112.93
-127.98
-150.27
-177.67
-206.08
-230.23
-245.05
-247.28
-236.5
-215.17
-187.6
-158.36
-130.87
-106.72
-85.87
-67.25
-49.51
-31.47
-12.4
7.72
28.07
46.94
62.18
72.02
75.89
74.83
71.13
67.47
65.83
66.86
69.87
73.39
75.97
76.81
75.94
74.1
72.34
71.6
72.34
74.26
76.3
76.8
74.04
66.95
55.82
42.67
31.01
25.02
28.25
42.37
66.42
96.83
128.44
155.94
175.29
184.65
184.4
176.51
163.59
147.9
130.86
112.95
94.16
74.32
53.58
32.4
11.45
-8.58
-27.11
-43.61
-57.58
-68.5
-76.03
-80.26
-81.87
-81.95
-81.7
-81.94
-83.02
-85.01
-88.13
-93.01
-100.47
-110.77
-122.92
-134.34
-141.45
-140.89
-130.64
-110.66
-82.58
-48.98
-12.5
24.46
59.81
91.53
117.68
136.78
148.2
152.48
151.1
146.06
139.3
132.48
126.85
123.31
122.36
123.94
127.36
131.43
134.81
136.51
136.19
134.19
131.25
128.13
125.23
122.41
119.11
114.43
107.43
97.39
84.19
68.69
52.83
39.45
31.64
31.83
40.99
58.18
80.78
105.22
127.86
145.88
157.73
163.4
164.03
161.18
155.78
147.56
135.17
117.22
93.73
66.83
40.42
18.55
3.58
-4.83
-9.31
-13.11
-18.31
-24.97
-31.58
-36.5
-39.21
-40.74
-43.12
-48.22
-56.85
-68.53
-81.62
-93.83
-102.74
-106.04
-101.73
-88.55
-66.29
-36.14
-0.67
36.59
71.97
102.43
126.17
142.83
153.2
158.72
160.9
160.89
159.4
156.93
154.06
151.69
151.01
153.02
158.1
165.63
174.07
181.56
186.42
187.72
185.23
179.26
170.26
158.6
144.53
128.28
110.11
90.48
70.11
50.17
32.3
18.47
10.52
9.6
15.78
28.03
44.62
63.56
83.14
101.84
118.19
130.66
137.7
138.19
132.0
120.22
105.04
89.08
74.6
62.82
53.71
46.28
39.2
31.47
22.86
13.88
5.34
-2.11
-8.57
-14.85
-22.21
-31.86
-44.5
-60.12
-77.99
-96.69
-114.1
-127.53
-134.02
-131.11
-117.7
-94.74
-65.35
-34.06
-5.5
16.85
31.33
37.99
37.8
31.82
20.75
4.86
-15.59
-40.0
-67.34
-96.18
-125.21
-153.38
-180.15
-205.45
-229.43
-252.54
-275.58
-300.03
-328.05
-361.94
-402.96
-449.95
-498.41
-541.1
-569.92
-578.58
-564.97
-531.76
-485.24
-432.82
-380.51
-331.58
-286.65
-244.83
-204.83
-165.64
-126.47
-86.73
-46.2
-5.56
33.16
66.91
92.55
108.11
113.79
111.88
105.91
99.29
94.34
91.82
91.36
92.11
93.23
94.11
94.26
93.17
90.3
85.18
77.49
67.13
54.13
38.74
21.67
4.28
-11.27
-22.32
-26.37
-21.92
-9.01
10.65
34.18
58.31
80.2
97.94
110.57
117.89
120.18
118.02
112.31
104.23
95.17
86.48
79.09
73.32
68.83
64.89
60.74
55.95
50.54
44.9
39.51
34.6
30.02
25.2
19.37
11.65
1.39
-11.69
-27.14
-43.64
-58.87
-70.0
-74.4
-70.52
-58.56
-40.5
-19.44
1.34
19.28
32.97
42.03
46.58
47.02
43.81
37.69
29.73
21.25
13.35
6.57
0.68
-5.17
-11.9
-19.88
-28.56
-36.37
-41.29
-41.55
-36.49
-26.91
-14.99
-3.55
4.71
7.98
5.5
-2.43
-14.69
-29.38
-44.0
-55.67
-61.65
-60.18
-51.13
-36.07
-17.83
0.52
16.52
28.76
36.71
40.39
39.92
35.57
28.0
18.48
8.86
1.29
-2.53
-1.69
3.59
12.21
22.58
33.2
42.95
51.23
57.78
62.41
64.82
64.44
60.6
52.62
40.16
23.46
3.51
-17.75
-37.62
-53.02
-61.22
-60.52
-50.8
-33.55
-11.46
12.38
35.16
54.85
70.18
80.46
85.28
84.49
78.36
67.85
54.69
41.16
29.52
21.37
17.23
16.45
17.67
19.44
20.74
21.25
21.13
20.63
19.62
17.56
13.54
6.77
-3.14
-15.88
-30.46
-45.27
-58.28
-67.33
-70.46
-66.36
-54.77
-36.69
-14.21
9.9
32.9
52.61
67.65
77.44
81.89
81.25
75.98
66.86
55.07
42.12
29.67
19.2
11.7
7.5
6.26
7.16
9.24
11.67
13.99
16.08
17.93
19.38
19.92
18.72
14.89
7.92
-1.89
-13.3
-24.28
-32.43
-35.56
-32.31
-22.44
-6.95
12.17
32.49
51.59
67.51
78.86
84.88
85.28
80.3
70.7
57.79
43.29
29.05
16.63
6.97
0.24
-4.15
-7.21
-10.03
-13.44
-17.87
-23.35
-29.71
-36.63
-43.87
-51.22
-58.49
-65.42
-71.77
-77.19
-81.19
-83.1
-81.96
-76.75
-66.66
-51.57
-32.39
-11.14
9.51
26.9
39.17
45.66
46.96
44.46
39.74
34.13
28.48
23.32
19.04
16.05
14.65
14.84
16.08
17.3
17.26
15.21
11.25
6.46
2.49
0.82
2.09
5.84
10.68
14.77
16.49
14.82
9.61
1.67
-7.45
-15.7
-20.92
-21.44
-16.4
-6.07
8.28
24.75
41.28
56.1
67.98
76.27
80.91
82.23
80.86
77.47
72.69
66.87
60.12
52.37
43.57
33.84
23.57
13.42
4.12
-3.68
-9.63
-13.84
-16.79
-19.29
-22.28
-26.62
-32.86
-41.11
-50.83
-60.85
-69.44
-74.68
-74.95
-69.5
-58.71
-44.07
-27.74
-11.99
1.45
11.55
17.99
20.85
20.37
16.89
10.88
3.14
-5.25
-13.06
-19.28
-23.37
-25.41
-25.93
-25.7
-25.32
-25.1
-25.04
-24.94
-24.71
-24.49
-24.63
-25.63
-27.99
-32.03
-37.75
-44.65
-51.68
-57.31
-59.85
-57.9
-50.84
-39.11
-24.13
-7.89
7.59
20.79
30.81
37.32
40.27
39.72
35.82
29.0
20.11
10.46
1.48
-5.61
-10.18
-12.31
-12.7
-12.31
-11.88
-11.8
-12.02
-12.3
-12.54
-12.9
-13.89
-16.09
-20.03
-25.93
-33.56
-42.2
-50.63
-57.21
-60.17
-58.1
-50.36
-37.5
-21.13
-3.54
13.0
26.79
36.95
43.29
45.96
45.21
41.26
34.51
25.75
16.17
7.17
-0.02
-4.75
-7.1
-7.83
-7.94
-8.3
-9.29
-10.78
-12.37
-13.68
-14.64
-15.56
-17.06
-19.83
-24.43
-31.02
-39.25
-48.06
-55.81
-60.5
-60.31
-54.21
-42.34
-26.14
-7.92
9.84
25.11
36.76
44.51
48.56
49.3
47.01
41.99
34.76
26.21
17.57
10.11
4.8
1.96
1.2
1.63
2.23
2.19
1.2
-0.68
-3.13
-5.82
-8.58
-11.49
-14.87
-19.17
-24.91
-32.42
-41.61
-51.74
-61.27
-68.16
-70.24
-66.03
-55.29
-39.17
-19.99
-0.49
16.93
30.75
40.37
46.0
48.13
47.31
44.04
38.81
32.26
25.18
18.45
12.87
9.03
7.04
6.59
7.03
7.57
7.62
6.93
5.58
3.84
1.96
-0.07
-2.56
-5.95
-10.7
-17.02
-24.88
-34.04
-44.06
-54.13
-63.05
-69.13
-70.49
-65.66
-54.08
-36.59
-15.34
6.79
27.01
43.33
54.84
61.66
64.38
63.74
60.34
54.69
47.36
39.24
31.4
24.91
20.52
18.38
17.99
18.41
18.67
18.06
16.36
13.8
10.74
7.51
4.21
0.67
-3.33
-7.98
-13.37
-19.56
-26.63
-34.6
-43.19
-51.47
-57.83
-60.22
-56.78
-46.66
-30.49
-10.33
10.9
30.34
45.92
56.67
62.65
64.49
62.89
58.51
51.92
43.74
34.81
26.11
18.59
12.94
9.45
7.85
7.52
7.62
7.36
6.29
4.24
1.39
-1.99
-5.59
-9.31
-13.13
-17.2
-21.72
-26.97
-33.23
-40.68
-49.08
-57.52
-64.41
-67.66
-65.4
-56.7
-41.98
-23.11
-2.79
16.24
31.92
43.21
49.99
52.67
51.74
47.66
40.97
32.45
23.17
14.41
7.37
2.8
0.84
0.99
2.35
3.9
4.86
4.82
3.74
1.87
-0.47
-3.09
-6.03
-9.51
-13.86
-19.36
-26.21
-34.41
-43.63
-53.1
-61.48
-67.0
-67.78
-62.42
-50.64
-33.54
-13.39
6.95
24.95
38.98
48.45
53.58
54.9
52.91
48.02
40.77
31.99
22.9
14.85
8.96
5.77
5.07
6.03
7.48
8.34
7.89
5.96
2.88
-0.81
-4.59
-8.26
-11.92
-15.97
-20.93
-27.25
-35.18
-44.64
-55.09
-65.36
-73.69
-78.03
-76.53
-68.23
-53.55
-34.29
-13.2
6.8
23.42
35.49
42.9
46.29
46.5
44.32
40.34
35.1
29.22
23.47
18.63
15.3
13.71
13.67
14.62
15.87
16.72
16.68
15.5
13.17
9.89
5.96
1.66
-2.8
-7.36
-12.04
-16.99
-22.48
-28.83
-36.3
-44.77
-53.45
-60.86
-64.9
-63.57
-55.65
-41.21
-21.87
-0.25
20.76
38.77
52.33
61.03
65.18
65.45
62.66
57.61
51.23
44.45
38.15
32.96
29.17
26.66
25.08
24.02
23.15
22.29
21.26
19.82
17.67
14.53
10.21
4.82
-1.28
-7.63
-13.76
-19.37
-24.42
-29.14
-33.98
-39.52
-46.2
-53.94
-61.9
-68.37
-71.09
-68.03
-58.13
-41.83
-21.11
1.1
21.85
38.96
51.42
59.3
63.26
64.11
62.48
58.86
53.77
47.91
42.14
37.33
34.11
32.67
32.7
33.61
34.62
35.12
34.75
33.44
31.31
28.55
25.32
21.7
17.66
13.08
7.86
1.95
-4.57
-11.46
-18.35
-24.79
-30.45
-35.13
-38.93
-42.18
-45.41
-49.28
-54.36
-60.88
-68.48
-75.96
-81.39
-82.61
-77.82
-66.34
-48.94
-27.72
-5.47
15.11
32.07
44.47
52.23
55.79
55.79
52.89
47.87
41.63
35.24
29.76
26.01
24.33
24.53
25.98
27.82
29.29
29.91
29.52
28.3
26.55
24.58
22.48
20.12
17.2
13.38
8.47
2.55
-3.99
-10.57
-16.68
-21.99
-26.49
-30.42
-34.08
-37.8
-41.87
-46.56
-52.08
-58.41
-64.94
-70.4
-72.99
-70.92
-63.07
-49.61
-32.0
-12.66
5.86
21.6
33.55
41.59
46.06
47.48
46.21
42.61
37.2
30.81
24.57
19.61
16.78
16.37
18.06
21.12
24.7
28.13
31.1
33.58
35.61
37.11
37.75
37.03
34.54
30.18
24.31
17.75
11.48
6.35
2.89
1.17
0.85
1.33
1.82
1.51
-0.39
-4.39
-10.43
-17.71
-24.67
-29.33
-29.89
-25.42
-16.21
-3.72
9.93
22.68
33.07
40.45
44.85
46.57
45.95
43.25
38.86
33.43
27.9
23.42
20.92
20.85
23.07
26.88
31.42
35.9
39.77
42.72
44.57
45.14
44.16
41.42
36.88
30.83
23.86
16.73
10.14
4.52
-0.07
-3.96
-7.69
-11.89
-17.0
-23.0
-29.25
-34.42
-36.74
-34.46
-26.42
-12.6
5.76
26.49
47.1
65.48
80.37
91.4
98.78
102.88
103.81
101.36
95.18
85.06
71.28
54.65
36.38
17.8
-0.08
-16.71
-32.05
-46.33
-59.71
-72.0
-82.58
-90.59
-95.21
-95.99
-92.98
-86.66
-77.87
-67.59
-56.86
-46.74
-38.19
-31.73
-27.19
-23.5
-18.81
-11.1
1.07
18.01
38.68
61.03
82.67
101.48
116.06
125.79
130.63
130.89
127.06
119.79
109.98
98.79
87.65
78.07
71.38
68.31
68.71
71.39
74.33
75.34
72.77
66.12
56.11
44.14
31.52
18.75
5.27
-10.09
-28.49
-50.49
-75.82
-103.49
-131.89
-158.69
-180.71
-194.11
-195.14
-181.41
-153.16
-113.59
-68.17
-23.01
17.02
49.26
73.35
90.24
101.06
106.38
106.14
100.23
88.98
73.54
55.7
37.49
20.58
5.87
-6.54
-17.2
-26.82
-36.0
-45.05
-54.06
-63.18
-72.91
-84.1
-97.75
-114.63
-134.84
-157.59
-181.05
-202.53
-218.79
-226.68
-224.02
-210.38
-187.62
-159.62
-131.33
-107.36
-90.74
-82.23
-80.42
-82.43
-84.85
-84.68
-79.97
-70.1
-55.89
-39.14
-21.98
-6.2
7.23
18.16
26.75
32.93
36.16
35.6
30.64
21.34
8.59
-6.29
-22.16
-38.64
-56.31
-76.35
-99.91
-127.22
-156.87
-185.65
-209.1
-222.71
-223.36
-210.5
-186.33
-155.25
-122.38
-92.08
-67.07
-48.25
-35.33
-27.63
-24.66
-26.28
-32.38
-42.36
-54.87
-67.94
-79.38
-87.43
-91.22
-90.89
-87.35
-81.72
-74.87
-67.2
-58.77
-49.6
-40.08
-31.08
-23.87
-19.85
-20.3
-26.05
-37.25
-53.05
-71.28
-88.47
-100.25
-102.31
-91.51
-66.96
-30.37
14.32
61.95
107.5
147.14
178.88
202.45
218.84
229.59
236.19
239.69
240.58
238.98
234.83
228.14
219.15
208.24
195.84
182.27
167.59
151.65
134.19
115.03
94.2
71.99
48.82
25.17
1.45
-22.08
-45.19
-67.83
-90.19
