-45.99
-73.13
-93.81
-107.84
-116.51
-122.04
-126.79
-132.38
-139.27
-146.91
-154.32
-160.73
-166.07
-170.91
-176.18
-182.77
-191.2
-201.44
-212.61
-222.8
-228.92
-227.05
-213.43
-185.95
-145.45
-96.22
-45.25
-0.29
32.33
49.23
50.25
37.63
14.6
-15.72
-50.62
-87.68
-124.46
-158.53
-188.03
-212.1
-231.05
-246.1
-258.53
-269.03
-277.39
-282.75
-284.22
-281.45
-274.85
-265.25
-253.29
-238.99
-221.75
-200.87
-176.28
-149.13
-121.73
-97.09
-78.08
-66.83
-64.24
-69.76
-81.38
-95.66
-108.2
-114.52
-111.24
-97.05
-72.97
-41.76
-6.57
30.47
68.83
109.07
151.43
194.32
233.94
265.2
283.69
287.56
278.33
260.15
238.1
216.26
196.72
179.77
164.9
151.84
140.92
132.64
126.86
122.35
116.91
108.26
94.91
76.8
55.19
32.14
9.65
-10.89
-28.97
-44.88
-59.38
-73.48
-88.35
-104.91
-123.37
-142.6
-159.86
-171.2
-172.56
-161.19
-136.52
-100.19
-55.28
-5.34
46.14
95.71
139.7
174.28
196.17
203.71
197.6
180.85
157.81
132.78
108.9
87.83
70.09
55.74
44.81
37.53
34.08
34.38
37.94
43.82
50.63
56.75
60.54
60.79
57.03
49.91
41.16
33.23
28.64
29.06
34.71
44.04
54.06
61.09
62.07
55.78
43.75
30.4
22.07
25.36
45.07
82.55
134.93
195.45
254.86
303.55
333.71
341.08
325.64
291.05
243.19
188.13
130.68
73.78
19.14
-31.75
-76.79
-113.42
-139.54
-154.6
-160.14
-159.39
-156.09
-153.38
-152.97
-155.38
-160.46
-168.16
-178.82
-193.03
-211.13
-232.72
-256.55
-280.78
-303.66
-324.22
-342.62
-359.84
-376.89
-393.8
-409.16
-420.38
-424.77
-420.78
-408.72
-390.72
-369.74
-348.42
-328.24
-309.39
-291.2
-272.8
-253.6
-233.45
-212.55
-191.25
-170.02
-149.34
-129.73
-111.54
-94.91
-79.67
-65.38
-51.67
-38.31
-25.48
-13.59
-3.15
5.5
12.42
18.0
22.93
27.92
33.68
40.66
48.78
57.07
63.53
65.45
60.47
47.69
28.52
6.48
-13.97
-29.18
-37.55
-39.82
-38.22
-35.1
-31.91
-28.89
-25.67
-21.97
-18.0
-14.35
-11.51
-9.39
-7.34
-4.4
0.12
6.32
13.65
21.15
27.93
33.55
38.17
42.47
47.28
53.19
60.29
68.08
75.82
82.77
88.59
93.5
98.14
103.32
109.61
117.1
125.34
133.49
140.77
146.74
151.51
155.7
160.16
165.58
172.17
179.64
187.35
194.71
201.5
208.04
215.08
223.6
234.5
248.45
265.66
285.57
306.7
326.56
342.2
350.98
351.62
344.64
332.15
316.88
301.04
285.62
270.41
254.69
238.03
220.72
203.59
187.47
172.59
158.42
143.96
128.18
110.62
91.74
73.19
57.54
47.82
46.65
55.38
73.49
98.56
126.87
154.5
178.28
196.43
208.42
214.46
214.93
210.03
199.89
184.91
166.06
144.97
123.69
104.26
88.2
76.1
67.54
61.16
55.22
48.15
39.09
28.18
16.36
4.82
-5.59
-14.72
-23.15
-31.83
-41.66
-53.13
-66.03
-79.37
-91.34
-99.35
-100.47
-92.16
-73.25
-44.79
-10.24
25.14
55.74
77.18
87.49
87.31
79.15
66.08
50.57
33.89
16.32
-2.11
-20.81
-38.2
-51.93
-59.52
-59.1
-49.9
-32.4
-8.13
20.69
51.29
80.62
105.41
122.63
129.97
126.36
112.34
89.81
61.3
29.0
-5.88
-42.86
-81.22
-119.0
-152.68
-177.92
-191.26
-191.73
-181.5
-165.07
-147.59
-133.11
-123.76
-119.96
-121.28
-127.15
-136.89
-149.36
-162.5
-173.59
-180.03
-180.37
-174.96
-165.61
-154.95
-145.13
-137.21
-130.92
-125.19
-118.87
-111.39
-103.11
-95.2
-89.33
-87.07
-89.31
-95.66
-104.19
-111.61
-114.12
-108.54
-93.4
-69.47
-39.44
-7.0
24.29
51.82
74.16
90.77
101.59
106.71
106.39
101.3
92.69
82.4
72.43
64.49
59.48
57.28
56.89
56.91
56.16
54.14
51.15
47.94
45.2
43.08
41.02
37.89
32.42
23.6
10.98
-5.04
-23.12
-40.97
-55.67
-64.22
-64.38
-55.36
-38.18
-15.44
9.55
33.69
54.79
71.82
84.52
93.0
97.33
97.49
93.65
86.42
77.01
66.99
57.91
50.79
45.84
42.54
39.88
36.85
32.82
27.69
21.77
15.47
9.07
2.43
-4.86
-13.32
-23.37
-35.23
-48.85
-63.85
-79.43
-94.17
-106.01
-112.47
-111.34
-101.43
-83.24
-59.03
-32.2
-6.33
15.78
32.66
44.05
50.51
52.84
51.82
48.18
42.69
36.26
29.88
24.43
20.57
18.51
18.13
19.03
20.68
22.58
24.25
25.31
25.37
24.11
21.3
16.91
11.19
4.66
-2.06
-8.48
-14.5
-20.54
-27.41
-36.02
-46.78
-59.16
-71.49
-81.1
-85.08
-81.14
-68.45
-48.06
-22.64
4.28
29.3
50.01
65.31
75.28
80.75
82.66
81.82
78.83
74.21
68.55
62.52
56.72
51.58
47.23
43.53
40.31
37.38
34.64
31.95
29.07
25.58
21.05
15.21
8.11
0.13
-8.16
-16.22
-23.75
-30.78
-37.54
-44.3
-51.08
-57.68
-63.7
-68.8
-72.92
-76.33
-79.73
-83.97
-89.94
-98.15
-108.45
-119.7
-129.73
-135.72
-134.94
-125.62
-107.67
-82.84
-54.24
-25.4
0.63
21.92
37.72
48.16
53.82
55.43
53.74
49.59
43.98
38.0
32.68
28.77
26.54
25.83
26.16
27.03
28.07
29.17
30.32
31.45
32.23
32.12
30.51
27.04
21.86
15.6
9.13
3.24
-1.67
-5.75
-9.53
-13.6
-18.31
-23.62
-29.14
-34.36
-38.91
-42.73
-46.15
-49.83
-54.56
-61.06
-69.61
-79.69
-89.83
-97.73
-100.89
-97.32
-86.3
-68.7
-46.77
-23.48
-1.66
16.69
30.62
40.14
45.74
48.06
47.6
44.81
40.21
34.51
28.62
23.49
19.89
18.12
18.07
19.18
20.81
22.32
23.3
23.57
23.06
21.8
19.75
16.93
13.29
8.84
3.58
-2.49
-9.28
-16.65
-24.36
-32.07
-39.42
-46.13
-52.06
-57.36
-62.41
-67.8
-74.18
-81.79
-90.23
-98.17
-103.53
-104.0
-97.86
-84.61
-65.26
-42.1
-17.9
4.77
24.14
39.32
50.14
56.74
59.5
58.86
55.46
50.18
44.12
38.4
33.98
31.4
30.69
31.42
32.85
34.24
35.04
35.11
34.57
33.69
32.56
31.03
28.67
24.97
19.58
12.5
4.14
-4.83
-13.65
-21.82
-29.16
-35.91
-42.54
-49.63
-57.69
-67.0
-77.42
-88.19
-97.85
-104.39
-105.7
-100.19
-87.4
-68.23
-44.86
-20.08
3.43
23.69
39.65
51.09
58.24
61.53
61.43
58.45
53.31
46.94
40.42
34.79
30.78
28.63
28.07
28.48
29.19
29.7
29.84
29.7
29.43
29.04
28.27
26.62
23.51
18.58
11.84
3.76
-4.83
-13.06
-20.32
-26.48
-31.88
-37.25
-43.32
-50.66
-59.57
-69.98
-81.41
-92.76
-102.29
-107.75
-106.97
-98.54
-82.46
-60.4
-35.22
-10.17
12.09
30.03
43.29
52.27
57.59
59.75
59.14
56.27
51.94
47.18
43.0
39.99
38.12
36.73
34.9
31.88
27.46
22.06
16.52
11.72
8.13
5.65
3.61
1.13
-2.6
-7.87
-14.47
-21.73
-28.88
-35.39
-41.11
-46.34
-51.59
-57.45
-64.41
-72.74
-82.38
-92.68
-102.29
-109.2
-111.08
-106.06
-93.32
-73.68
-49.33
-23.33
1.36
22.59
39.29
51.33
59.08
62.99
63.41
60.74
55.6
48.99
42.13
36.19
31.94
29.57
28.73
28.78
29.14
29.44
29.63
29.8
29.95
29.85
29.0
26.84
22.88
16.89
9.09
0.06
-9.39
-18.42
-26.42
-33.22
-39.11
-44.77
-51.1
-58.91
-68.66
-80.08
-92.0
-102.38
-108.68
-108.59
-100.7
-85.13
-63.52
-38.64
-13.52
9.28
28.2
42.64
52.65
58.55
60.67
59.37
55.23
49.09
42.15
35.63
30.57
27.5
26.4
26.77
27.94
29.33
30.66
31.92
33.17
34.32
34.98
34.49
32.11
27.38
20.37
11.66
2.16
-7.2
-15.76
-23.36
-30.25
-36.97
-44.15
-52.38
-61.99
-72.84
-84.06
-93.98
-100.27
-100.52
-93.03
-77.5
-55.33
-29.23
-2.46
22.1
42.56
58.12
68.8
74.94
76.99
75.33
70.53
63.5
55.42
47.6
41.1
36.46
33.59
31.92
30.77
29.66
28.55
27.67
27.37
27.65
28.01
27.49
25.08
20.12
12.67
3.48
-6.27
-15.43
-23.33
-29.94
-35.82
-41.84
-48.89
-57.57
-68.0
-79.59
-90.85
-99.59
-103.25
-99.7
-87.95
-68.64
-43.92
-16.88
9.35
32.4
50.9
64.46
73.21
77.55
77.93
74.96
69.53
62.72
55.71
49.41
44.26
40.14
36.58
33.04
29.23
25.26
21.49
18.32
15.78
13.44
10.55
6.28
0.17
-7.72
-16.71
-25.85
-34.21
-41.31
-47.25
-52.64
-58.5
-65.78
-75.06
-86.15
-97.92
-108.24
-114.46
-114.06
-105.43
-88.46
-64.76
-37.15
-8.92
17.01
38.69
55.22
66.53
72.98
75.08
73.43
68.83
62.29
55.07
48.34
42.97
39.32
37.19
36.06
35.38
34.85
34.43
34.31
34.55
34.79
34.31
32.13
27.51
20.28
11.02
0.85
-9.02
-17.74
-25.13
-31.68
-38.33
-46.14
-55.92
-67.88
-81.25
-94.24
-104.12
-107.98
-103.53
-90.02
-68.61
-42.12
-14.11
12.14
34.44
51.87
64.4
72.39
76.19
76.11
72.55
66.26
58.4
50.37
43.45
38.53
35.83
35.0
35.29
35.87
36.12
35.81
35.06
34.13
33.12
31.81
29.65
25.92
20.12
12.2
2.65
-7.66
-17.79
-27.06
-35.23
-42.5
-49.46
-56.84
-65.36
-75.55
-87.49
-100.45
-112.74
-121.8
-124.77
-119.33
-104.61
-81.62
-53.1
-22.64
6.28
31.16
50.76
64.95
74.24
79.27
80.63
78.91
74.8
69.23
63.26
57.9
53.86
51.47
50.65
50.99
51.97
53.04
53.74
53.68
52.52
50.05
46.16
40.86
34.28
26.57
17.91
8.44
-1.64
-12.12
-22.71
-33.05
-42.84
-51.9
-60.22
-68.02
-75.69
-83.7
-92.58
-102.8
-114.5
-127.23
-139.63
-149.43
-153.94
-150.76
-138.67
-118.22
-91.63
-62.07
-32.7
-5.76
17.75
37.81
54.86
69.25
80.98
89.85
95.77
99.01
100.33
100.78
101.49
103.3
106.73
111.88
118.61
126.71
135.97
146.12
156.77
167.26
176.74
184.32
189.45
192.09
192.74
192.01
190.19
186.66
179.94
168.27
150.63
127.74
102.38
78.74
60.94
51.48
50.29
54.87
61.45
66.41
67.43
63.8
56.21
46.06
35.14
25.39
18.68
16.52
19.63
27.46
38.2
49.3
58.27
63.55
64.91
63.29
60.21
57.0
54.39
52.37
50.45
48.04
44.76
40.58
35.77
30.87
26.44
23.07
21.18
20.93
21.99
23.58
24.55
23.66
19.96
13.02
3.15
-8.72
-21.26
-33.16
-43.43
-51.59
-57.61
-61.59
-63.56
-63.32
-60.65
-55.58
-48.75
-41.48
-35.6
-32.99
-34.94
-41.64
-51.82
-62.77
-70.93
-72.84
-66.25
-50.95
-28.96
-3.77
20.7
41.46
57.03
67.38
73.17
74.96
72.74
66.12
55.0
40.08
23.1
6.4
-7.83
-18.22
-24.52
-27.54
-28.65
-29.35
-30.98
-34.57
-40.76
-49.77
-61.34
-74.78
-89.28
-104.06
-118.67
-133.0
-147.08
-160.85
-174.15
-186.66
-197.97
-207.76
-215.76
-221.76
-225.67
-227.61
-227.94
-227.12
-225.28
-221.81
-215.13
-202.96
-183.12
-154.55
-118.22
-77.23
-36.17
0.18
28.1
45.82
53.52
52.75
45.63
34.23
20.41
5.79
-8.09
-19.87
-28.66
-34.24
-37.09
-38.1
-38.19
-37.94
-37.66
-37.66
-38.5
-41.25
-47.19
-57.25
-71.42
-88.45
-105.98
-121.34
-132.45
-138.53
-140.4
-140.11
-140.31
-143.31
-150.41
-161.11
-172.97
-181.78
-182.45
-170.5
-143.63
-102.84
-52.48
0.83
50.15
90.06
117.83
133.37
138.44
135.49
126.87
114.54
100.27
85.89
73.27
64.02
58.98
58.0
59.89
63.01
65.9
67.85
69.07
70.37
72.55
75.75
79.06
80.71
78.62
71.16
57.81
39.41
17.9
-4.36
-25.37
-44.02
-60.35
-75.23
-89.93
-105.51
-122.28
-139.28
-154.17
-163.38
-163.02
-150.07
-123.67
-85.75
-40.8
5.4
47.35
81.18
105.17
119.37
124.74
122.36
113.28
98.63
80.02
59.68
40.08
23.43
11.04
3.16
-0.89
-2.19
-1.82
-0.56
1.15
2.93
4.25
4.14
1.28
-5.66
-17.43
-33.69
-52.65
-71.45
-86.9
-96.66
-100.08
-98.66
-95.47
-94.33
-98.6
-110.29
-129.54
-154.33
-180.65
-203.02
-215.64
-213.84
-195.65
-162.66
-119.82
-74.04
-32.22
0.59
22.15
32.78
34.36
29.23
19.34
6.1
-9.33
-25.74
-41.69
-55.77
-66.92
-74.74
-79.55
-82.16
-83.5
-84.25
-84.71
-84.94
-85.09
-85.58
-87.13
-90.47
-95.98
-103.27
-111.21
-118.23
-122.79
-123.99
-121.78
-116.95
-110.77
-104.63
-99.72
-97.03
-97.43
-101.64
-109.82
-121.14
-133.46
-143.56
-148.07
-144.58
-132.63
-113.78
-90.9
-66.91
-43.8
-22.19
-1.6
18.7
39.25
60.24
81.63
103.42
125.43
147.14
167.46
184.96
198.48
207.6
212.98
215.95
218.02
220.09
222.28
224.02
224.56
223.34
220.12
214.88
207.54
197.91
185.86
171.46
155.21
137.89
120.48
103.78
88.28
74.07
60.91
48.25
35.26
21.09
5.22
-11.91
-28.54
-41.64
-47.61
-43.37
-27.32
0.16
36.93
79.75
125.08
169.51
210.09
244.39
270.68
288.19
297.27
299.41
296.88
292.22
287.76
285.28
285.78
289.45
295.74
303.49
311.36
318.24
323.52
327.08
328.98
328.9
325.81
317.98
303.45
280.87
250.15
212.73
171.27
128.93
88.44
51.46
18.41
-11.27
-38.64
-64.8
-90.6
-116.23
-140.78
-161.91
-175.89
-178.43
-166.18
-138.28
-97.36
-49.09
-0.69
41.22
72.22
90.69
97.3
93.83
82.27
64.45
42.21
17.62
-7.04
-29.7
-49.05
-64.86
-77.85
-89.16
-99.72
-109.8
-118.82
-125.71
-129.31
-128.99
-124.93
-118.2
-110.39
-103.18
-97.67
-94.12
-92.05
-90.59
-89.13
-87.75
-87.31
-89.25
-94.97
-105.29
-119.82
-136.75
-152.83
-164.03
-166.42
-157.36
-136.55
-106.23
-70.64
-34.85
-3.21
21.54
38.61
48.67
53.04
53.04
49.73
44.03
37.02
30.0
24.34
21.1
20.71
22.89
26.83
31.66
36.81
42.12
47.68
53.43
58.81
62.76
64.01
61.52
54.99
44.98
32.65
19.48
6.7
-4.98
-15.48
-25.24
-35.04
-45.58
-57.17
-69.18
-79.91
-86.68
-86.54
-77.25
-58.27
-31.29
0.18
31.69
59.2
79.98
92.93
98.26
96.88
89.88
78.33
63.44
46.64
29.56
13.68
-0.01
-11.26
-20.45
-28.19
-34.86
-40.35
-44.09
-45.4
-43.96
-40.16
-35.14
-30.54
-27.93
-28.38
-32.03
-38.27
-45.95
-53.97
-61.64
-68.94
-76.42
-85.05
-95.76
-109.13
-124.86
-141.53
-156.47
-166.22
-167.5
-158.34
-138.96
-111.99
-81.76
-53.07
-29.81
-14.17
-6.54
-5.91
-10.66
-19.04
-29.4
-40.31
-50.54
-59.26
-66.26
-72.03
-77.61
-84.11
-91.95
-100.42
-107.52
-110.63
-107.43
-97.0
-80.36
-60.34
-40.66
-24.79
-15.08
-12.27
-15.9
-24.86
-38.06
-54.75
-74.45
-96.84
-121.43
-147.53
-174.07
-199.54
-221.85
-238.54
-247.15
-245.88
-234.27
-213.44
-185.86
-154.45
-121.86
-89.92
-59.66
-31.85
-7.34
12.81
27.65
36.8
40.78
40.88
38.76
36.0
33.7
32.48
32.68
34.49
37.94
42.82
48.48
53.89
58.0
60.15
60.41
59.51
58.43
57.74
57.29
56.12
52.95
46.63
36.49
22.37
4.51
-16.5
-39.36
-61.75
-80.44
-91.73
-92.67
-82.06
-60.84
-31.68
2.14
37.82
73.36
107.24
137.72
162.55
179.28
186.19
183.18
172.0
155.78
137.98
121.39
107.64
97.21
90.01
85.74
84.23
85.3
88.66
93.75
99.82
106.17
112.33
118.18
123.87
129.46
134.72
139.1
141.69
141.68
138.66
133.03
126.21
120.64
119.3
125.02
139.55
162.87
193.01
226.71
260.36
291.2
317.75
339.57
356.43
367.47
371.05
365.37
349.58
324.68
293.53
260.03
227.64
198.29
171.93
147.13
122.12
95.76
68.03
39.72
11.82
-15.12
-41.24
-67.21
-94.1
-123.15
-155.73
-193.02
-235.3
-281.14
-326.7
-366.05
-392.36
-399.76
-385.07
-348.66
-294.18
-227.39
-154.74
-82.29
-15.05
43.32
90.7
126.7
152.59
170.96
184.84
196.8
208.28
219.35
229.09
236.19
239.73
239.49
235.99
230.02
222.12
212.21
199.56
183.22
162.61
137.96
110.5
82.05
54.47
29.14
6.58
-13.36
-31.43
-48.68
-66.38
-85.73
-107.44
-131.01
-154.31
-173.73
-185.25
-186.02
-175.7
-156.81
-133.83
-111.6
-93.69
-81.82
-76.16
-76.29
-81.88
-92.67
-107.94
-125.85
-143.58
-158.11
-167.44
-171.4
-171.61
-170.68
-170.75
-172.6
-175.28
-176.78
-175.11
-169.35
-160.08
-149.13
-138.99
-131.98
-129.76
-132.89
-140.44
-149.68
-156.07
-154.11
-139.0
-108.71
-65.29
-14.75
34.84
76.09
104.77
120.71
126.75
126.7
123.29
117.34
108.32
95.74
80.18
63.57
48.36
36.42
28.17
22.48
17.3
10.7
1.66
-9.52
-21.6
-33.14
-43.24
-51.96
-60.34
-69.92
-82.25
-98.37
-118.46
-141.61
-165.51
-186.34
-199.0
-198.15
-179.98
-144.08
-94.5
-39.01
13.17
54.39
80.86
93.21
95.12
91.05
84.22
75.88
65.74
53.19
38.19
21.54
4.6
-11.31
-25.29
-36.92
-46.21
-53.38
-58.77
-62.77
-65.83
-68.42
-71.05
-74.23
-78.35
-83.68
-90.33
-98.38
-108.1
-120.0
-134.68
-152.12
-170.97
-188.03
-198.47
-197.03
-179.82
-146.07
-98.81
-44.32
9.72
56.44
91.6
114.1
125.45
128.4
125.7
119.42
110.91
101.29
91.69
83.38
77.38
74.12
73.12
73.1
72.57
70.26
65.72
59.33
52.05
44.91
38.49
32.61
26.46
18.91
9.12
-3.06
-16.86
-30.89
-43.59
-53.83
-61.31
-66.61
-71.06
-76.28
-83.93
-95.4
-111.36
-131.3
-152.89
-171.91
-182.87
-180.48
-161.56
-126.41
-79.16
-26.44
24.58
68.37
102.18
125.91
141.16
149.99
154.05
154.45
152.03
147.7
142.59
137.9
134.68
133.55
134.76
138.23
143.74
150.96
159.3
167.75
174.83
178.83
178.3
172.63
162.47
149.47
135.72
122.86
111.39
100.71
89.58
77.22
63.88
50.99
40.53
34.05
31.78
32.26
32.6
28.96
17.49
-4.63
-37.91
-79.47
-122.67
-158.16
-176.41
-170.99
-141.21
-92.64
-35.3
19.95
64.8
95.42
112.03
117.04
112.9
101.06
82.26
57.6
29.35
0.95
-24.0
-42.9
-54.96
-61.18
-63.57
-64.12
-64.1
-63.9
-63.35
-62.35
-61.23
-60.86
-62.36
-66.72
-74.45
-85.38
-98.78
-113.55
-128.49
-142.65
-155.37
-166.38
-175.64
-183.39
-190.06
-196.57
-204.23
-214.26
-226.99
-240.9
-252.33
-256.23
-247.71
-223.78
-184.38
-132.38
-72.65
-10.77
47.99
99.29
139.89
167.85
182.75
185.76
179.34
166.68
150.92
134.68
119.87
107.85
99.49
95.03
94.05
95.41
97.55
99.07
99.08
97.5
94.83
91.71
88.44
84.63
79.19
70.78
58.4
42.01
22.78
2.87
-15.38
-30.26
-41.35
-49.76
-57.64
-67.72
-82.34
-102.78
-128.51
-156.72
-182.35
-198.92
-200.21
-182.37
-145.55
-94.4
-36.82
18.38
64.12
96.64
115.76
123.72
123.57
117.85
108.2
95.71
81.41
66.7
53.2
42.25
34.57
30.0
27.75
26.81
26.41
26.17
26.09
26.24
26.57
26.75
26.17
24.1
19.88
13.1
3.69
-8.01
-21.34
-35.47
-49.6
-63.14
-75.75
-87.34
-98.0
-108.04
-118.09
-129.14
-142.25
-157.88
-175.01
-190.63
-200.04
-198.09
-180.84
-147.2
-99.6
-43.51
14.09
66.45
108.67
138.31
155.31
161.26
158.52
149.52
136.38
120.87
104.46
88.52
74.33
62.96
55.16
51.15
50.69
53.09
57.32
62.12
66.24
68.7
68.89
66.8
62.76
57.2
50.36
42.08
32.03
19.99
6.16
-8.72
-23.49
-36.99
-48.46
-57.86
-65.86
-73.81
-83.36
-96.1
-112.92
-133.25
-154.46
-171.87
-179.7
-172.72
-148.28
-107.64
-55.91
-0.66
50.47
91.91
121.38
139.56
148.86
151.82
150.15
144.59
135.5
123.5
109.87
96.39
84.82
76.34
71.26
69.16
69.15
70.33
71.89
73.06
73.08
71.19
66.81
59.68
50.0
38.28
25.19
11.35
-2.8
-17.0
-31.08
-44.81
-57.93
-70.16
-81.3
-91.4
-100.89
-110.7
-122.05
-136.1
-153.05
-171.4
-187.63
-196.8
-193.79
-175.05
-139.96
-91.27
-34.53
23.51
76.52
119.81
150.79
168.76
174.27
168.63
153.71
131.87
105.9
78.93
53.89
33.05
17.69
7.81
2.43
0.09
-0.69
-0.99
-1.32
-1.81
-2.22
-2.29
-1.87
-1.11
-0.46
-0.65
-2.44
-6.34
-12.34
-19.85
-28.01
-36.0
-43.42
-50.56
-58.28
-67.81
-80.3
-96.39
-115.67
-136.24
-154.63
-166.19
-166.22
-151.35
-120.92
-77.34
-25.62
28.19
78.57
121.82
156.28
181.77
198.69
207.23
207.3
198.9
182.8
161.0
136.57
112.94
92.94
77.88
67.37
59.87
53.68
47.88
42.84
39.78
39.92
43.42
48.95
53.95
55.55
51.68
41.8
27.06
9.62
-8.23
-24.86
-39.78
-53.41
-66.72
-80.75
-96.34
-113.96
-133.46
-153.6
-171.69
-183.66
-184.89
-171.73
-143.25
-101.98
-53.63
-5.3
36.57
68.01
87.84
97.14
97.94
92.13
81.2
66.43
49.44
32.27
17.06
5.5
-1.71
-4.98
-5.53
-4.78
-3.96
-3.73
-4.3
-5.59
-7.59
-10.6
-15.21
-22.11
-31.74
-44.1
-58.56
-74.05
-89.39
-103.63
-116.34
-127.63
-138.17
-149.0
-161.42
-176.45
-194.2
-213.1
-229.8
-239.74
-238.56
-223.65
-194.95
-154.89
-107.4
-56.73
-6.73
39.41
78.92
109.42
129.15
137.47
135.2
124.55
108.54
90.34
72.7
57.73
46.77
40.32
38.12
39.26
42.58
46.97
51.62
55.98
59.49
61.39
60.66
56.35
47.96
35.86
21.28
5.95
-8.44
-20.81
-30.99
-39.65
-48.03
-57.62
-69.73
-85.02
-103.02
-121.65
-137.31
-145.5
-142.09
-124.59
-93.28
-51.02
-2.65
46.53
91.89
130.24
159.89
180.33
191.9
195.47
192.47
184.71
174.31
163.38
153.72
146.55
142.43
141.31
142.72
146.18
151.31
157.89
165.62
173.69
180.44
183.31
179.45
166.52
143.69
112.06
74.44
34.52
-4.3
-39.71
-70.89
-98.11
-122.3
-144.58
-166.01
-187.17
-207.73
-225.94
-238.56
-241.56
-231.43
-206.49
-167.45
-117.17
-59.47
1.79
63.15
121.31
172.71
213.47
240.18
251.0
246.47
229.56
204.81
176.95
149.84
125.84
105.92
90.11
78.03
69.3
63.65
60.84
60.39
61.42
62.5
61.97
58.33
50.76
39.4
25.27
9.9
-5.33
-19.62
-33.05
-46.48
-61.21
-78.61
-99.79
-125.12
-153.71
-182.89
-208.07
-223.33
-223.01
-203.62
-165.54
-113.35
-54.66
2.25
50.98
88.52
115.26
133.56
145.95
153.78
157.04
155.15
148.02
136.61
122.87
108.97
96.54
86.44
78.92
74.19
72.71
75.14
81.87
92.62
106.22
120.81
134.35
145.01
151.54
153.33
150.4
143.13
132.15
118.02
101.1
81.51
59.3
34.75
8.37
-19.2
-47.52
-76.51
-106.29
-136.56
-165.99
-191.98
-211.2
-220.72
-219.28
-207.99
-189.92
-169.0
-148.56
-130.52
-115.46
-103.53
-95.21
-91.7
-94.44
-104.17
-120.23
-140.48
-161.88
-181.6
-197.77
-209.75
-217.83
-222.66
-224.84
-224.79
-223.04
-220.44
-218.23
-217.9
-220.61
-226.74
-235.55
-245.38
-254.1
-259.95
-262.06
-260.8
-257.48
-253.95
-251.76
-251.66
-253.09
-254.45
-253.54
-248.32
-237.66
-221.71
-201.78
-179.71
-157.28
-135.53
-114.75
-94.78
-75.42
-56.74
-39.13
-22.88
-7.96
6.15
20.33
35.34
51.54
68.67
86.03
102.81
118.58
133.47
148.13
163.43
180.01
198.17
217.92
239.19
261.94
285.88
310.03
332.4
350.25
360.75
361.94
353.36
335.97
311.48
281.74
248.5
213.83
180.7
153.13
135.34
130.4
138.85
158.2
183.57
209.27
230.38
243.87
248.72
245.38
234.82
217.97
195.46
167.92
136.27
101.93
66.85
33.15
2.67
-23.39
-44.61
-61.31
-74.26
-84.43
-92.78
-100.19
-107.42
-115.11
-123.73
-133.56
-144.68
-156.93
-169.95
-183.24
-196.35
-209.06
-221.55
-234.07
-246.39
-257.22
-263.99
-263.41
-252.54
-230.05
-196.73
-155.16
-108.64
-60.19
-12.15
33.59
74.99
109.77
135.73
151.64
157.77
155.93
148.74
138.75
127.97
117.7
108.89
102.29
98.52
97.65
99.08
101.56
103.46
103.46
100.81
95.5
88.04
79.19
69.55
59.37
48.49
36.37
22.19
5.34
-14.08
-34.65
-53.51
-66.88
-71.14
-64.15
-46.21
-20.01
10.04
39.42
64.6
83.84
96.94
104.71
108.1
107.79
104.2
97.64
88.65
78.05
66.92
56.35
47.33
40.63
36.74
35.97
38.25
43.03
49.22
55.21
59.23
59.87
56.49
49.4
39.64
28.54
17.17
5.99
-5.25
-17.38
-31.54
-48.74
-69.24
-91.84
-113.57
-129.88
-135.74
-127.25
-103.16
-65.49
-18.97
30.42
77.2
117.63
149.94
173.92
190.12
199.35
202.5
200.61
194.92
186.73
177.21
167.11
156.84
146.48
135.97
125.35
114.73
104.37
94.5
85.16
76.17
67.12
57.6
47.42
36.77
26.16
16.15
6.98
-1.63
-10.43
-20.39
-32.21
-45.95
-61.0
-76.23
-90.47
-102.96
-113.62
-123.09
-132.63
-143.73
-157.66
-174.71
-193.55
-210.93
-222.07
-221.93
-206.98
-176.82
-134.58
-86.22
-38.56
2.69
34.33
55.8
68.37
73.92
74.05
69.95
62.68
53.44
43.72
34.95
28.14
23.6
20.9
19.26
18.09
17.19
16.86
17.59
19.61
22.54
25.29
26.45
24.76
19.72
11.74
2.05
-7.91
-17.03
-24.95
-32.08
-39.16
-46.86
-55.39
-64.43
-73.31
-81.36
-88.27
-94.28
-100.28
-107.67
-118.04
-132.56
-151.2
-172.1
-191.45
-204.28
-205.85
-193.33
-166.88
-129.74
-87.26
-45.11
-7.79
22.35
45.09
61.58
73.39
81.9
88.1
92.76
96.69
100.87
106.22
113.51
123.13
135.04
148.96
164.32
180.18
195.07
207.0
213.71
213.36
205.1
189.44
168.25
144.09
119.43
96.08
74.8
55.44
37.28
19.51
1.48
-16.99
-35.77
-54.43
-72.4
-89.16
-104.36
-117.98
-130.43
-142.6
-155.54
-169.8
-184.71
-197.88
-205.53
-203.64
-189.52
-163.17
-127.58
-87.95
-49.89
-17.79
6.26
22.34
31.91
36.71
38.08
36.8
33.32
28.1
21.7
14.82
8.09
2.09
-2.77
-6.09
-7.47
-6.67
-3.71
0.87
6.08
10.65
13.43
13.69
11.39
7.1
1.75
-3.69
-8.64
-13.07
-17.36
-22.16
-28.03
-35.18
-43.4
-52.1
-60.56
-68.17
-74.64
-80.26
-85.84
-92.53
-101.46
-113.03
-126.31
-138.8
-146.81
-146.53
-135.35
-112.91
-81.42
-44.93
-8.21
24.58
50.77
69.27
80.37
85.11
84.81
80.83
74.48
66.9
59.16
52.18
46.7
43.22
41.96
42.83
45.51
49.47
54.13
58.86
63.05
66.17
67.81
67.85
66.4
63.79
60.39
56.49
52.22
47.52
42.16
35.82
28.16
18.93
8.07
-4.14
-17.18
-30.5
-43.97
-57.95
-73.09
-89.59
-106.38
-120.71
-128.66
-126.4
-111.83
-85.66
-51.34
-14.04
21.11
50.44
72.36
87.08
95.65
99.11
98.03
92.66
83.27
70.63
56.06
41.25
27.92
17.29
9.94
5.7
3.96
3.88
4.68
5.83
6.94
7.8
8.12
7.58
5.74
2.2
-3.28
-10.73
-19.81
-29.96
-40.41
-50.44
-59.52
-67.52
-74.67
-81.57
-89.01
-97.82
-108.59
-121.3
-134.95
-147.34
-155.29
-155.44
-145.21
-123.89
-92.96
-55.87
-16.96
19.72
51.23
76.15
94.19
105.74
111.35
111.64
107.45
99.91
90.57
81.09
72.94
67.03
63.63
62.43
62.96
64.9
68.24
73.1
79.43
86.68
93.73
99.19
101.87
101.26
97.87
93.02
88.53
85.92
85.94
88.16
91.15
92.79
91.01
84.46
73.15
58.76
44.57
34.71
33.1
42.21
62.15
90.44
122.64
153.51
178.36
194.12
199.5
194.83
181.29
160.48
134.04
103.75
71.54
39.47
9.58
-16.52
-37.94
-54.59
-67.05
-76.27
-83.09
-88.08
-91.38
-92.98
-92.95
-91.78
-90.39
-90.04
-91.99
-96.99
-105.06
-115.36
-126.48
-136.96
-145.76
-152.63
-158.11
-163.27
-169.35
-177.46
-188.19
-201.07
-214.2
-224.16
-226.53
-217.18
-193.9
-157.51
-112.02
-63.46
-17.97
20.01
48.65
68.45
81.19
88.66
92.07
92.02
89.02
83.91
77.97
72.63
69.0
67.58
68.14
69.97
72.24
74.44
76.45
78.52
80.88
83.45
85.6
86.28
84.37
79.15
70.58
59.42
47.05
34.99
24.51
16.23
10.07
5.2
0.26
-6.49
-16.61
-31.05
-49.44
-69.67
-88.11
-100.48
-103.21
-94.67
-75.78
-49.72
-20.76
6.97
30.5
48.26
59.82
65.37
65.34
60.34
51.18
38.99
25.06
10.67
-3.11
-15.45
-25.84
-33.99
-39.78
-43.29
-44.79
-44.84
-44.19
-43.8
-44.68
-47.78
-53.85
-63.35
-76.34
-92.39
-110.51
-129.18
-146.69
-161.41
-172.37
-179.61
-184.27
-188.32
-194.1
-203.5
-217.36
-234.74
-252.79
-267.05
-272.52
-265.18
-243.43
-208.86
-165.86
-120.21
-77.38
-41.12
-12.97
7.26
20.68
28.66
32.51
33.71
33.97
35.19
39.0
46.31
57.02
70.16
84.3
98.14
110.89
122.42
133.02
143.03
152.41
160.61
166.67
169.63
168.85
