48.46
35.01
26.4
23.24
24.42
27.5
29.64
28.63
23.61
15.14
4.71
-6.07
-16.24
-25.92
-36.16
-48.6
-64.78
-85.43
-109.8
-135.33
-157.66
-171.42
-171.58
-155.05
-121.98
-76.07
-23.72
27.81
72.34
106.09
127.84
138.09
138.1
129.28
113.25
92.21
69.16
47.41
29.77
17.61
10.58
6.96
4.62
2.03
-1.35
-5.28
-9.37
-13.66
-18.94
-26.57
-38.05
-54.46
-76.08
-102.29
-131.52
-161.61
-190.09
-214.73
-234.28
-248.99
-260.77
-272.5
-286.66
-303.75
-321.46
-335.15
-339.74
-331.95
-311.78
-282.57
-249.25
-216.26
-185.9
-158.04
-131.14
-103.59
-74.78
-45.38
-17.04
8.18
28.52
42.94
51.47
55.4
57.01
58.91
63.25
70.98
81.78
94.38
107.3
119.33
129.67
137.77
143.0
144.64
142.16
135.55
125.54
113.38
100.48
87.83
75.63
63.41
50.41
36.06
20.39
4.07
-11.88
-26.57
-39.65
-51.54
-63.35
-76.36
-91.29
-107.69
-123.61
-135.97
-141.57
-138.2
-125.61
-105.54
-81.0
-55.09
-29.96
-6.35
16.17
38.49
61.51
85.78
111.63
139.04
167.39
195.2
220.14
239.7
252.2
257.68
258.05
256.35
255.51
257.09
260.83
265.09
267.83
267.46
263.42
255.96
245.74
233.38
219.26
203.61
186.6
168.4
149.28
129.61
109.78
90.29
71.61
54.12
38.02
23.19
9.14
-4.97
-20.06
-36.68
-54.49
-71.86
-85.93
-93.2
-90.52
-76.25
-50.87
-17.07
20.93
58.4
91.28
116.77
133.66
142.03
142.76
137.18
126.72
112.93
97.44
82.01
68.36
57.91
51.45
49.03
49.95
53.09
57.24
61.39
64.83
67.11
67.99
67.31
64.95
60.81
54.8
46.84
36.99
25.53
13.01
0.16
-12.21
-23.54
-33.6
-42.6
-51.12
-59.88
-69.58
-80.61
-92.67
-104.55
-114.11
-118.61
-115.42
-102.93
-81.15
-51.95
-18.55
15.29
46.13
71.57
90.26
101.83
106.46
104.72
97.42
85.76
71.29
55.83
41.22
28.99
20.05
14.57
12.07
11.74
12.73
14.37
16.24
18.08
19.55
20.15
19.22
16.08
10.34
2.14
-7.78
-18.18
-27.68
-35.23
-40.42
-43.64
-45.89
-48.34
-51.94
-56.96
-62.82
-68.12
-70.82
-68.65
-59.7
-42.96
-18.85
10.74
42.8
74.05
101.73
124.28
141.39
153.62
161.86
166.89
169.26
169.47
168.26
166.84
166.73
169.47
176.12
186.86
200.56
214.89
226.69
232.76
230.88
220.53
203.16
181.78
159.94
140.58
125.15
113.41
103.85
94.52
83.89
71.4
57.4
42.77
28.29
14.14
-0.27
-16.22
-35.5
-60.31
-93.05
-135.5
-187.59
-245.94
-303.34
-350.19
-377.4
-380.03
-359.55
-323.48
-282.42
-245.99
-219.64
-203.82
-195.61
-191.31
-188.38
-185.79
-183.1
-179.37
-172.92
-162.06
-146.17
-126.3
-104.94
-85.1
-69.07
-57.78
-50.86
-47.11
-45.27
-44.55
-44.69
-45.82
-48.16
-51.79
-56.45
-61.78
-67.28
-72.51
-76.96
-80.01
-80.73
-77.99
-70.73
-58.36
-41.07
-19.96
3.24
26.51
47.99
66.21
80.16
89.26
93.31
92.49
87.39
78.96
68.42
56.95
45.51
34.75
25.08
16.89
10.64
6.85
5.88
7.6
11.3
15.69
19.29
20.84
19.65
15.74
9.71
2.46
-5.05
-12.2
-18.79
-25.2
-32.17
-40.59
-50.89
-62.69
-74.49
-83.84
-87.96
-84.63
-72.99
-54.03
-30.35
-5.48
17.16
35.03
46.98
53.06
54.07
51.05
44.92
36.39
26.14
14.88
3.5
-7.09
-16.06
-22.86
-27.28
-29.4
-29.63
-28.54
-26.85
-25.28
-24.42
-24.67
-26.08
-28.5
-31.54
-34.9
-38.46
-42.38
-47.1
-53.23
-61.3
-71.38
-82.72
-93.54
-101.24
-103.02
-96.75
-81.85
-59.55
-32.79
-5.28
19.42
38.79
51.67
58.1
58.86
54.9
47.11
36.24
23.13
8.72
-5.86
-19.55
-31.51
-41.34
-49.17
-55.62
-61.58
-68.0
-75.7
-85.04
-95.82
-107.19
-117.72
-125.84
-130.19
-130.11
-125.86
-118.6
-110.08
-102.21
-96.43
-93.11
-91.32
-88.88
-82.95
-70.95
-51.44
-24.7
7.33
41.61
74.92
104.6
128.99
147.42
159.88
166.69
168.4
165.66
159.3
150.28
139.72
128.7
118.24
109.12
101.71
95.99
91.48
87.42
83.04
77.73
71.19
63.42
54.5
44.51
33.39
21.05
7.44
-7.43
-23.52
-40.66
-58.3
-75.21
-89.31
-97.85
-98.16
-88.57
-69.17
-42.03
-10.68
20.86
49.14
71.96
88.49
98.94
104.03
104.6
101.36
94.98
86.21
75.99
65.41
55.66
47.66
41.96
38.54
36.88
36.13
35.35
33.78
30.96
26.79
21.41
15.11
8.14
0.66
-7.35
-15.99
-25.53
-36.36
-48.85
-63.08
-78.36
-92.99
-104.24
-108.95
-104.41
-89.46
-65.06
-34.05
-0.51
31.51
58.9
79.89
93.99
101.55
103.29
100.17
93.31
84.08
73.91
64.18
55.86
49.36
44.53
40.84
37.75
34.89
32.16
29.64
27.35
25.01
22.05
17.73
11.51
3.29
-6.51
-17.04
-27.38
-36.91
-45.57
-53.84
-62.69
-73.13
-85.8
-100.45
-115.65
-128.82
-136.77
-136.57
-126.6
-107.14
-80.41
-49.89
-19.25
8.61
32.05
50.61
64.5
74.11
79.76
81.78
80.76
77.74
74.13
71.42
70.8
72.79
77.21
83.26
89.9
96.21
101.54
105.57
108.17
109.16
108.24
104.96
98.96
90.08
78.68
65.49
51.53
37.73
24.64
12.29
0.21
-12.24
-25.51
-39.53
-53.66
-66.99
-78.63
-88.23
-96.01
-102.75
-109.49
-117.22
-126.55
-137.37
-148.56
-157.99
-162.8
-160.2
-148.36
-127.22
-98.77
-66.48
-34.33
-5.68
17.41
34.31
45.42
51.66
54.03
53.41
50.71
46.91
43.11
40.41
39.67
41.3
45.12
50.46
56.36
61.88
66.38
69.6
71.57
72.42
72.17
70.51
67.0
61.19
52.98
42.8
31.51
20.26
10.05
1.46
-5.54
-11.37
-16.69
-21.96
-27.32
-32.58
-37.32
-41.26
-44.34
-46.83
-49.23
-52.13
-56.16
-61.87
-69.69
-79.69
-91.35
-103.17
-112.75
-117.17
-113.86
-101.56
-80.9
-54.35
-25.45
2.27
26.15
44.88
58.28
66.81
71.09
71.69
69.21
64.5
58.66
52.84
48.05
44.81
43.15
42.69
42.93
43.46
44.03
44.57
44.98
45.06
44.45
42.71
39.47
34.63
28.38
21.18
13.55
5.9
-1.62
-9.07
-16.59
-24.16
-31.61
-38.59
-44.83
-50.18
-54.77
-59.01
-63.49
-68.87
-75.61
-83.65
-92.14
-99.21
-102.35
-99.07
-87.82
-68.7
-43.55
-15.43
12.32
36.97
56.96
71.87
81.97
87.83
90.02
89.06
85.54
80.09
73.41
66.12
58.82
51.9
45.77
40.73
36.96
34.45
33.01
32.21
31.58
30.66
29.03
26.41
22.51
17.1
10.14
1.8
-7.45
-16.97
-26.08
-34.33
-41.56
-48.01
-54.18
-60.62
-67.82
-76.02
-85.02
-94.07
-101.79
-106.35
-105.84
-98.95
-85.36
-66.1
-43.27
-19.43
3.01
22.31
37.52
48.37
54.95
57.58
56.67
52.96
47.47
41.4
35.96
32.0
29.86
29.29
29.66
30.21
30.43
30.15
29.51
28.7
27.76
26.33
23.76
19.38
12.79
4.14
-5.97
-16.57
-26.79
-36.06
-44.37
-52.19
-60.28
-69.42
-79.99
-91.67
-103.24
-112.64
-117.4
-115.36
-105.43
-88.03
-65.14
-39.71
-14.89
6.81
23.97
36.23
43.96
47.78
48.29
45.95
41.2
34.62
27.01
19.28
12.33
6.85
3.26
1.66
1.86
3.41
5.67
7.86
9.21
9.08
7.11
3.28
-2.1
-8.51
-15.38
-22.31
-29.2
-36.27
-44.07
-53.2
-63.9
-75.62
-86.75
-94.81
-97.08
-91.52
-77.56
-56.47
-31.01
-4.71
19.2
38.49
52.21
60.51
64.15
64.13
61.36
56.63
50.64
44.08
37.67
32.13
28.07
25.85
25.56
26.9
29.34
32.15
34.52
35.77
35.49
33.54
30.07
25.36
19.64
12.99
5.33
-3.53
-13.87
-25.83
-39.4
-54.23
-69.32
-82.93
-92.67
-96.0
-91.09
-77.55
-56.76
-31.55
-5.42
18.51
38.14
52.66
62.3
67.8
70.05
69.85
67.89
64.79
61.13
57.4
53.93
50.86
48.1
45.45
42.68
39.57
35.97
31.75
26.74
20.74
13.56
5.13
-4.35
-14.43
-24.45
-33.85
-42.31
-50.08
-57.9
-66.75
-77.37
-89.6
-102.08
-112.23
-116.88
-113.2
-99.76
-77.13
-47.8
-15.46
16.06
43.7
65.71
81.56
91.58
96.46
96.98
93.95
88.31
81.14
73.59
66.78
61.55
58.36
57.16
57.43
58.33
58.87
58.17
55.63
51.0
44.3
35.7
25.45
13.83
1.21
-11.84
-24.62
-36.36
-46.53
-55.04
-62.26
-69.02
-76.31
-84.77
-94.29
-103.7
-110.82
-113.03
-108.08
-94.99
-74.55
-49.23
-22.44
2.52
23.25
38.77
49.26
55.54
58.5
58.72
56.51
52.14
46.18
39.54
33.37
28.79
26.44
26.29
27.74
29.79
31.53
32.33
32.04
30.88
29.13
26.99
24.31
20.75
15.85
9.36
1.41
-7.53
-16.68
-25.28
-32.81
-39.09
-44.34
-49.06
-53.96
-59.84
-67.48
-77.34
-89.2
-101.77
-112.66
-118.86
-117.61
-107.4
-88.62
-63.53
-35.54
-8.14
16.02
35.52
50.07
60.05
66.03
68.56
68.19
65.7
62.11
58.59
56.22
55.67
57.0
59.72
63.08
66.38
69.4
72.38
75.84
80.12
85.02
89.71
93.06
94.13
92.63
89.11
84.74
80.69
77.7
75.85
74.68
73.47
71.44
67.74
61.45
51.72
38.02
20.6
0.43
-21.09
-42.8
-64.36
-86.24
-109.06
-132.51
-154.63
-172.02
-180.89
-178.64
-165.07
-142.52
-115.09
-87.21
-62.37
-42.48
-27.91
-18.08
-12.01
-8.66
-6.93
-5.64
-3.54
0.4
6.73
15.26
25.18
35.3
44.45
51.74
56.69
59.17
59.2
56.9
52.41
45.92
37.87
28.9
19.91
11.77
5.18
0.31
-3.11
-5.8
-8.5
-11.73
-15.59
-19.77
-23.88
-27.73
-31.49
-35.67
-40.95
-47.83
-56.36
-65.79
-74.57
-80.48
-81.12
-74.63
-60.37
-39.28
-13.67
13.49
39.42
62.37
81.75
97.77
110.74
120.51
126.18
126.53
120.59
108.29
90.74
70.09
48.91
29.62
13.86
2.28
-5.36
-9.9
-12.47
-14.18
-15.93
-18.34
-21.75
-26.25
-31.82
-38.31
-45.56
-53.32
-61.22
-68.83
-75.7
-81.57
-86.42
-90.52
-94.3
-98.21
-102.58
-107.64
-113.49
-119.98
-126.47
-131.71
-133.79
-130.58
-120.45
-102.92
-79.09
-51.45
-23.19
2.75
24.34
40.73
52.03
58.79
61.68
61.23
57.91
52.39
45.59
38.71
32.98
29.29
27.94
28.61
30.54
32.86
35.0
36.75
38.28
39.79
41.29
42.42
42.54
40.99
37.4
31.94
25.3
18.38
12.05
6.77
2.51
-1.1
-4.64
-8.62
-13.42
-19.29
-26.24
-33.78
-40.8
-45.56
-46.04
-40.66
-29.03
-12.23
7.36
26.84
43.7
56.47
64.89
69.55
71.31
70.87
68.55
64.46
58.8
52.13
45.38
39.71
36.3
35.94
39.02
45.33
54.15
64.19
73.8
81.14
84.54
82.88
75.81
63.87
48.29
30.71
12.96
-3.28
-16.63
-26.28
-32.09
-34.73
-35.46
-35.84
-37.32
-40.86
-46.59
-53.68
-60.38
-64.37
-63.26
-55.41
-40.58
-20.13
3.3
26.57
47.01
62.99
74.09
80.61
83.17
82.28
78.36
71.87
63.6
54.61
46.13
39.24
34.68
32.7
33.16
35.66
39.67
44.63
49.92
54.86
58.74
60.89
60.83
58.42
53.93
47.9
40.88
33.17
24.61
14.53
2.05
-13.61
-32.72
-54.73
-78.13
-100.52
-118.92
-130.32
-132.39
-124.11
-106.24
-81.24
-52.75
-24.62
-0.05
18.99
31.81
38.67
40.27
37.36
30.67
21.05
9.64
-2.13
-12.87
-21.49
-27.46
-30.83
-32.1
-31.83
-30.54
-28.55
-26.19
-23.94
-22.55
-22.94
-25.94
-32.02
-41.04
-52.29
-64.7
-77.16
-88.83
-99.42
-109.25
-119.18
-130.35
-143.66
-159.08
-175.25
-189.26
-197.25
-195.57
-182.03
-156.82
-122.61
-83.74
-45.01
-10.51
17.11
36.71
48.34
52.91
51.79
46.58
38.89
30.1
21.24
12.91
5.44
-0.99
-6.16
-9.9
-12.2
-13.28
-13.76
-14.47
-16.32
-20.07
-26.17
-34.58
-44.86
-56.27
-67.9
-78.96
-88.93
-97.74
-105.86
-114.22
-123.73
-134.79
-146.63
-156.95
-162.4
-159.42
-145.58
-120.58
-86.57
-47.62
-8.52
26.54
54.88
75.46
88.56
95.15
96.31
93.03
86.16
76.55
65.22
53.29
41.95
32.26
25.01
20.49
18.58
18.72
20.01
21.39
21.83
20.42
16.69
10.59
2.54
-6.8
-16.75
-26.84
-37.0
-47.64
-59.58
-73.65
-90.22
-108.46
-126.05
-139.28
-143.95
-136.68
-116.25
-84.24
-44.7
-2.9
36.11
68.77
93.37
109.77
118.71
121.22
118.35
111.22
101.13
89.56
78.06
67.93
60.09
54.93
52.41
52.14
53.51
55.69
57.74
58.7
57.7
54.2
48.07
39.64
29.55
18.57
7.35
-3.81
-15.08
-27.13
-40.92
-57.22
-75.9
-95.34
-112.26
-122.3
-121.37
-107.04
-79.68
-42.5
-0.6
40.51
76.4
104.54
124.17
135.78
140.43
139.28
133.52
124.59
114.09
103.71
94.82
88.28
84.19
82.16
81.6
82.08
83.48
85.85
89.08
92.57
95.13
95.35
92.14
85.28
75.63
64.8
54.47
45.5
37.43
28.48
16.09
-2.17
-27.7
-60.09
-96.75
-133.19
-163.64
-182.49
-185.73
-172.18
-143.88
-105.57
-63.27
-22.67
12.14
39.08
57.8
69.02
73.84
73.44
69.14
62.5
55.25
49.01
44.99
43.65
44.65
47.11
50.03
52.77
55.12
57.29
59.5
61.55
62.75
61.99
58.25
51.1
40.9
28.8
16.29
4.6
-5.67
-14.77
-23.65
-33.62
-45.87
-60.94
-78.27
-95.88
-110.53
-118.43
-116.31
-102.57
-78.02
-45.76
-10.25
24.01
53.64
76.93
93.63
104.27
109.5
109.83
105.75
98.08
88.2
77.86
68.79
62.16
58.32
56.75
56.48
56.56
56.46
56.17
56.01
56.14
56.33
55.75
53.25
47.83
39.09
27.53
14.39
1.23
-10.65
-20.66
-29.04
-36.78
-45.18
-55.44
-68.27
-83.39
-99.4
-113.74
-123.16
-124.53
-115.84
-97.02
-70.04
-38.46
-6.35
22.86
46.95
65.06
77.36
84.35
86.58
84.59
79.01
70.85
61.49
52.49
45.21
40.4
38.06
37.58
38.01
38.63
39.05
39.43
40.03
40.9
41.57
41.1
38.38
32.65
23.84
12.7
0.56
-11.21
-21.65
-30.52
-38.23
-45.64
-53.62
-62.92
-73.86
-86.21
-98.91
-110.03
-116.93
-116.94
-108.16
-90.34
-65.16
-35.83
-6.11
20.76
42.78
59.31
70.51
76.9
78.9
76.87
71.4
63.49
54.55
46.11
39.38
34.93
32.62
31.82
31.72
31.75
31.73
31.78
32.1
32.56
32.67
31.56
28.36
22.54
14.21
4.1
-6.61
-16.78
-25.67
-33.16
-39.71
-46.16
-53.48
-62.47
-73.43
-85.9
-98.41
-108.53
-113.4
-110.56
-98.79
-78.75
-52.89
-24.7
2.29
25.49
43.54
56.2
63.78
66.79
65.77
61.36
54.58
46.72
39.18
33.03
28.8
26.4
25.38
25.28
25.85
27.11
29.11
31.69
34.26
35.94
35.81
33.29
28.42
21.84
14.6
7.78
2.13
-2.14
-5.4
-8.48
-12.44
-18.15
-25.84
-34.63
-42.41
-46.19
-42.89
-30.45
-8.62
20.73
54.24
88.05
118.96
145.13
166.24
183.01
196.63
208.01
217.39
224.28
227.6
226.17
219.12
206.18
187.87
165.3
140.08
114.0
88.92
66.39
47.46
32.3
20.11
9.38
-1.7
-14.65
-30.36
-49.04
-70.54
-94.59
-120.93
-149.28
-179.2
-210.07
-241.02
-270.93
-298.06
-320.01
-333.7
-336.02
-324.79
-299.82
-263.33
-219.56
-173.51
-129.61
-90.71
-57.98
-31.42
-10.58
4.99
15.74
22.44
26.35
29.15
32.42
37.16
43.49
50.67
57.57
63.09
66.48
67.48
66.13
62.58
56.86
48.89
38.49
25.57
10.3
-6.89
-25.35
-44.35
-63.23
-81.39
-98.47
-114.27
-128.71
-141.6
-152.3
-159.6
-161.76
-156.95
-143.93
-122.7
-94.85
-63.26
-31.37
-2.41
21.44
39.05
50.27
55.48
55.29
50.48
41.96
30.86
18.49
6.19
-4.87
-13.75
-19.84
-22.79
-22.58
-19.55
-14.52
-8.7
-3.48
-0.1
0.68
-1.28
-5.45
-10.99
-16.94
-22.57
-27.53
-31.83
-35.96
-40.71
-47.08
-55.95
-67.51
-80.86
-93.68
-102.74
-104.63
-97.08
-79.77
-54.62
-25.24
4.28
30.53
51.51
66.7
76.59
82.03
83.82
82.56
78.86
73.43
67.1
60.73
54.97
50.24
46.7
44.4
43.32
43.39
44.42
45.95
47.41
48.06
47.31
44.88
40.89
35.79
30.26
24.95
20.26
16.23
12.44
8.13
2.43
-5.01
-13.58
-21.34
-25.23
-21.97
-9.01
14.45
47.11
85.9
126.74
165.55
198.94
224.52
240.85
247.31
243.89
231.31
210.98
184.96
155.75
125.97
97.91
73.27
52.98
37.18
25.36
16.65
9.99
4.23
-1.68
-8.58
-17.0
-26.95
-37.99
-49.31
-59.92
-69.1
-76.57
-82.74
-88.62
-95.58
-104.89
-117.06
-131.21
-144.78
-153.84
-154.18
-142.73
-118.76
-84.46
-44.25
-3.51
33.03
62.45
83.77
97.52
104.85
106.9
104.7
99.27
91.88
83.92
76.67
70.93
66.89
64.23
62.38
60.91
59.53
57.96
55.71
51.95
45.68
36.1
22.98
6.88
-10.98
-29.1
-46.14
-61.35
-74.66
-86.67
-98.44
-111.29
-126.3
-143.77
-162.55
-179.74
-191.06
-192.01
-179.58
-153.6
-117.26
-76.2
-36.72
-3.83
19.88
34.27
40.74
41.05
36.65
28.58
17.89
6.01
-5.37
-14.68
-20.98
-24.2
-24.99
-24.26
-22.74
-20.75
-18.44
-16.0
-13.98
-13.18
-14.43
-18.16
-24.2
-31.76
-39.8
-47.42
-54.19
-60.25
-66.33
-73.48
-82.73
-94.57
-108.27
-121.59
-130.94
-132.31
-122.63
-101.11
-69.77
-33.0
3.9
36.33
61.54
78.75
88.65
92.36
90.86
84.88
75.14
62.8
49.41
36.72
26.08
18.21
12.99
9.79
7.85
6.68
6.11
6.06
6.26
5.97
4.02
-0.8
-9.18
-20.92
-34.79
-48.93
-61.49
-71.24
-78.05
-82.86
-87.37
-93.44
-102.41
-114.32
-127.53
-138.83
-144.11
-139.67
-123.59
-96.63
-62.04
-24.66
10.73
40.6
63.32
78.86
88.03
91.75
90.78
85.8
77.81
68.26
58.87
51.14
45.92
43.17
42.21
42.16
42.4
42.85
43.76
45.4
47.61
49.62
50.22
48.21
42.91
34.48
23.84
12.38
1.4
-8.36
-16.89
-24.92
-33.58
-44.08
-57.31
-73.35
-91.15
-108.25
-121.13
-125.93
-119.71
-101.6
-73.27
-38.6
-2.5
30.53
57.51
77.25
89.97
96.52
97.74
94.3
86.82
76.2
63.74
51.04
39.66
30.82
25.1
22.33
21.8
22.39
22.96
22.58
20.77
17.53
13.2
8.24
2.95
-2.73
-9.26
-17.27
-27.23
-39.17
-52.55
-66.46
-79.88
-92.06
-102.75
-112.18
-120.9
-129.67
-139.23
-150.03
-161.91
-173.67
-182.89
-186.22
-180.27
-162.78
-133.73
-95.61
-52.79
-10.29
27.64
58.44
81.29
96.63
105.42
108.61
107.06
101.76
93.97
85.28
77.38
71.63
68.8
68.88
71.19
74.7
78.34
81.35
83.38
84.44
84.68
84.19
82.8
80.1
75.53
68.67
59.39
48.0
35.17
21.79
8.67
-3.61
-14.88
-25.38
-35.66
-46.47
-58.63
-72.67
-88.46
-104.8
-119.26
-128.51
-129.14
-118.88
-97.48
-67.05
-31.5
4.64
37.47
64.58
85.08
99.16
107.4
110.35
108.52
102.63
93.9
84.0
74.75
67.59
63.19
61.34
61.2
61.77
62.27
62.44
62.45
62.64
63.16
63.72
63.53
61.56
56.9
49.2
38.93
27.19
15.4
4.77
-4.13
-11.48
-18.11
-25.19
-33.88
-44.98
-58.56
-73.6
-87.8
-97.93
-100.56
-93.2
-75.26
-48.44
-16.18
17.37
48.68
75.53
97.08
113.37
124.68
131.14
132.87
130.35
124.78
117.96
111.95
108.4
108.02
110.49
114.75
119.59
124.25
128.68
133.41
139.11
146.13
154.25
162.67
170.27
175.78
177.92
175.56
167.9
154.77
136.76
115.17
91.56
67.2
42.65
17.79
-7.58
-32.92
-56.3
-74.62
-84.62
-84.25
-73.87
-56.38
-36.39
-18.74
-6.98
-2.59
-5.08
-12.89
-24.27
-37.86
-52.64
-67.6
-81.44
-92.71
-100.22
-103.62
-103.52
-101.25
-98.23
-95.35
-92.62
-89.47
-85.25
-79.76
-73.5
-67.49
-62.79
-60.08
-59.38
-60.15
-61.53
-62.66
-62.95
-62.26
-61.04
-60.24
-61.05
-64.39
-70.1
-76.69
-81.35
-80.96
-73.31
-58.13
-37.38
-14.56
6.58
23.31
34.53
40.55
42.33
40.74
36.29
29.25
20.1
9.73
-0.61
-9.66
-16.43
-20.31
-21.07
-18.64
-13.13
-4.92
5.16
15.74
25.08
31.49
33.8
31.63
25.41
16.08
4.79
-7.5
-20.18
-33.0
-46.04
-59.59
-73.98
-89.17
-104.37
-117.77
-126.64
-128.05
-119.92
-101.99
-76.26
-46.54
-17.38
7.19
24.72
34.59
37.63
35.37
29.43
21.18
11.79
2.38
-5.84
-11.75
-14.6
-14.34
-11.65
-7.73
-3.82
-0.67
1.57
3.27
4.83
6.33
7.36
7.19
5.23
1.35
-3.9
-9.59
-14.82
-19.18
-23.0
-27.31
-33.43
-42.54
-55.05
-70.09
-85.34
-97.3
-102.18
-97.01
-80.67
-54.41
-21.51
13.63
46.86
75.12
96.8
111.53
119.67
121.85
118.88
111.71
101.57
89.86
77.9
66.71
56.83
48.37
41.25
35.34
30.74
27.61
26.06
25.84
26.25
26.12
24.21
19.52
11.66
0.97
-11.72
-25.36
-39.12
-52.72
-66.34
-80.64
-96.49
-114.6
-135.02
-156.8
-177.67
-194.36
-203.43
-202.31
-190.42
-169.51
-143.22
-115.86
-91.08
-70.88
-55.42
-43.59
-33.84
-24.98
-16.46
-8.29
-0.7
6.08
11.97
17.05
21.4
25.18
28.58
31.9
35.53
39.74
44.44
49.05
52.58
53.88
52.15
47.21
39.67
30.67
21.46
12.9
5.14
-2.62
-11.91
-24.59
-42.0
-64.15
-89.13
-113.23
-131.71
-140.32
-136.69
-121.14
-96.51
-67.09
-37.16
-9.85
13.4
32.54
48.14
60.77
70.65
77.81
82.43
85.01
86.42
87.59
89.2
91.45
94.11
96.82
99.33
101.69
104.05
106.41
108.32
108.85
106.85
101.47
92.49
80.53
66.88
52.95
39.78
27.56
15.62
2.62
-12.86
-31.7
-53.61
-76.84
-98.23
-113.97
-120.55
-115.85
-99.92
-74.97
-44.78
-13.62
14.82
38.15
55.42
66.79
72.98
74.89
73.38
69.31
63.66
57.57
52.25
48.78
47.9
49.81
54.24
60.57
68.06
75.9
83.32
89.56
93.89
95.71
94.77
91.22
85.63
78.72
71.11
63.02
54.21
44.07
31.89
17.19
0.16
-18.02
-35.07
-47.8
-52.88
-47.78
-31.73
-6.07
25.94
60.17
92.84
121.44
145.09
164.0
178.59
188.58
192.75
189.34
176.98
155.61
126.89
93.91
60.3
29.24
2.69
-18.8
-35.75
-49.13
-59.99
-69.16
-77.29
-84.89
-92.38
-99.99
-107.77
-115.53
-122.94
-129.79
-136.18
-142.74
-150.45
-160.17
-171.92
-184.28
-194.17
-197.54
-190.67
-171.56
-140.95
-102.3
-60.7
-21.35
11.97
37.6
55.81
68.01
75.85
80.57
82.79
82.76
80.69
76.94
72.19
67.32
63.17
60.33
58.93
58.64
58.74
58.43
57.07
54.35
50.35
45.32
39.68
33.84
28.19
23.07
18.47
13.79
7.67
-1.73
-16.03
-35.52
-58.44
-81.01
-98.41
-106.44
-103.0
-88.81
-67.05
-42.14
-18.29
1.48
15.68
24.04
26.89
24.87
18.67
9.31
-1.82
-13.03
-22.67
-29.57
-33.32
-34.24
-33.09
-30.52
-26.8
-21.8
-15.34
-7.56
0.75
8.36
14.02
16.98
17.2
15.31
12.17
8.41
4.13
-1.14
-8.29
-18.25
-31.47
-47.44
-64.38
-79.27
-88.54
-89.17
-79.75
-61.11
-36.2
-9.04
16.53
37.82
53.77
64.63
71.28
74.71
75.61
74.37
71.21
66.3
59.81
51.99
43.23
34.1
25.31
17.57
11.44
7.15
4.5
2.91
1.53
-0.49
-3.83
-8.66
-14.65
-21.0
-26.62
-30.62
-32.62
-32.97
-32.72
-33.42
-36.57
-43.15
-53.02
-64.65
-75.25
-81.4
-80.03
-69.48
-50.19
-24.55
3.84
31.26
54.87
73.08
85.48
92.3
94.07
91.39
85.03
76.08
65.85
55.72
46.76
39.58
34.26
30.55
28.1
26.65
26.07
26.21
26.75
27.08
26.38
23.81
18.85
11.51
2.42
-7.38
-16.85
-25.22
-32.36
-38.7
-45.12
-52.56
-61.65
-72.15
-82.76
-91.1
-94.22
-89.49
-75.52
-52.79
-23.59
8.64
40.39
68.97
92.92
111.82
125.71
134.72
138.91
138.6
134.59
128.29
121.36
115.21
110.57
107.34
104.82
102.25
99.18
95.65
91.94
88.35
84.93
81.58
78.18
74.68
70.82
65.78
57.98
45.37
26.16
-0.5
-33.98
-72.49
-113.64
-155.07
-194.64
-230.06
-258.55
-276.9
-282.27
-273.25
-250.8
-218.18
-180.12
-141.39
-105.58
-74.57
-48.75
-27.74
-11.11
1.24
9.15
12.62
12.13
8.72
3.79
-1.29
-5.53
-8.48
-10.13
-10.73
-10.53
-9.69
-8.33
-6.72
-5.27
-4.46
-4.65
-5.98
-8.26
-11.1
-14.13
-17.2
-20.47
-24.57
-30.37
-38.71
-49.81
-62.82
-75.49
-84.6
-86.83
-79.92
-63.64
-40.03
-12.72
14.21
37.51
55.35
67.36
74.1
76.39
74.97
70.44
63.53
55.18
46.51
38.63
32.39
28.19
26.02
25.56
26.31
27.69
29.07
29.83
29.41
27.44
23.84
18.8
12.72
6.11
-0.7
-7.56
-14.65
-22.38
-31.38
-42.08
-54.49
-67.66
-79.57
-87.44
-88.44
-80.69
-64.06
-40.38
-12.95
14.5
38.81
58.03
71.51
79.49
82.64
81.71
77.44
70.66
62.33
53.47
45.1
37.99
32.63
29.12
27.31
26.89
27.43
28.5
29.63
30.25
29.78
27.69
23.67
17.8
10.56
2.71
-4.96
-11.95
-18.33
-24.71
-32.08
-41.26
-52.29
-63.91
-73.5
-77.62
-73.17
-58.46
-34.03
-2.55
31.94
65.27
94.13
116.65
132.38
141.88
146.29
146.96
145.19
142.13
138.57
134.91
131.23
127.54
123.87
120.53
117.94
116.54
116.61
118.12
120.66
123.46
125.56
126.01
124.24
120.18
114.38
107.65
100.63
93.28
84.75
73.53
57.97
37.01
10.64
-19.67
-50.95
-79.2
-100.11
-110.2
-107.74
-93.45
-70.26
-42.55
-14.85
9.35
28.14
41.1
48.75
51.92
51.39
47.99
42.68
36.63
31.08
27.01
24.91
24.85
26.68
30.36
36.12
44.23
54.46
65.56
74.99
79.39
75.55
61.59
37.75
6.49
-28.47
-63.53
-96.27
-125.98
-153.14
-178.73
-203.4
-227.37
-250.35
-271.44
-288.75
-299.01
-298.04
-281.87
-248.85
-200.98
-144.21
-86.77
-36.59
1.21
25.31
37.48
40.87
38.26
31.32
20.9
7.88
-6.21
-19.4
-29.87
-36.82
-40.73
-43.04
-45.33
-48.51
-52.44
-56.18
-58.77
-59.96
-60.57
-62.23
-66.58
-74.42
-85.28
-97.59
-109.37
-119.15
-126.49
-132.14
-137.67
-144.89
-155.21
-169.04
-185.27
-201.09
-212.28
-214.14
-203.07
-177.88
-140.51
-95.62
-49.13
-6.4
29.01
55.71
73.94
84.58
88.49
86.43
79.37
68.8
56.71
45.11
35.49
28.48
23.87
21.05
19.54
