-81.17
-90.7
-99.69
-107.51
-114.17
-119.89
-124.87
-128.96
-131.63
-132.25
-130.33
-125.83
-119.09
-110.52
-100.38
-88.73
-75.68
-61.85
-48.53
-37.41
-29.99
-26.92
-27.8
-31.31
-35.87
-40.24
-43.75
-46.22
-47.56
-47.46
-45.45
-41.18
-34.81
-27.15
-19.48
-13.17
-9.23
-7.96
-8.93
-11.31
-14.23
-17.17
-20.11
-23.44
-27.76
-33.43
-40.41
-48.11
-55.61
-62.0
-66.73
-69.9
-72.22
-74.77
-78.69
-84.82
-93.27
-103.18
-112.36
-117.49
-114.65
-100.45
-73.35
-34.54
12.11
60.97
106.35
143.97
171.77
189.75
199.04
201.14
197.39
188.98
177.32
164.08
151.04
139.68
130.85
124.7
120.92
119.07
118.74
119.56
121.08
122.51
122.84
120.8
115.22
105.18
90.3
70.91
48.11
23.68
-0.37
-22.31
-41.08
-56.53
-69.14
-79.61
-88.43
-95.69
-101.06
-104.28
-105.33
-104.75
-103.41
-102.28
-101.8
-101.58
-100.29
-95.93
-86.75
-71.97
-52.45
-30.5
-9.23
8.55
21.19
28.36
30.67
28.96
23.74
15.31
4.03
-9.22
-22.94
-35.4
-45.22
-51.79
-55.41
-56.9
-57.13
-56.8
-56.36
-56.09
-56.13
-56.57
-57.4
-58.49
-59.69
-60.84
-62.0
-63.35
-65.27
-68.22
-72.56
-78.5
-85.93
-94.38
-103.11
-111.29
-118.18
-123.47
-127.5
-131.26
-136.05
-142.93
-151.88
-161.25
-167.83
-167.52
-156.58
-132.93
-96.93
-51.27
-0.22
51.54
100.0
142.33
176.91
203.1
220.74
230.01
231.44
225.96
215.07
200.92
186.13
173.55
165.74
164.39
169.89
181.01
195.0
207.96
215.65
214.28
201.36
176.12
139.4
93.39
41.12
-14.12
-69.1
-120.89
-167.08
-205.98
-236.81
-259.8
-276.04
-287.23
-295.31
-302.12
-309.21
-317.67
-327.98
-339.75
-351.65
-361.5
-366.9
-366.03
-358.27
-344.5
-326.75
-307.39
-288.36
-270.72
-254.69
-240.05
-226.54
-213.98
-202.25
-191.09
-180.0
-168.47
-156.22
-143.39
-130.46
-118.07
-106.63
-96.17
-86.35
-76.62
-66.56
-56.12
-45.55
-35.35
-25.87
-17.19
-9.0
-0.8
7.8
16.9
26.15
35.0
42.85
49.4
54.7
59.23
63.58
68.38
74.09
80.76
87.84
93.94
97.04
95.01
86.58
72.1
53.78
35.08
19.49
9.2
4.53
4.17
6.09
8.68
11.19
13.67
16.45
19.56
22.59
24.99
26.44
27.14
27.75
29.08
31.66
35.54
40.25
45.02
49.17
52.35
54.66
56.63
58.98
62.32
66.96
72.81
79.47
86.47
93.3
99.67
105.47
110.8
116.06
121.95
129.3
138.72
150.07
161.99
171.93
176.71
173.5
160.8
139.11
111.01
80.6
52.54
30.96
18.49
15.84
21.86
34.1
49.75
66.46
82.84
98.55
114.09
130.36
148.2
168.01
189.24
210.19
228.21
240.44
244.98
241.75
232.86
221.79
212.2
206.54
205.37
207.57
211.11
213.95
214.59
212.22
206.53
197.55
185.61
171.23
155.12
137.97
120.37
102.64
84.86
67.06
49.29
31.85
15.19
-0.23
-14.21
-27.03
-39.57
-53.13
-68.83
-86.83
-105.66
-122.16
-132.06
-131.24
-117.09
-89.46
-50.82
-5.67
40.63
83.08
117.9
143.03
158.1
164.09
162.82
156.4
146.8
135.64
124.13
113.27
103.94
96.93
92.8
91.69
93.23
96.65
100.91
104.88
107.57
108.21
106.27
101.57
94.27
84.86
73.96
62.19
49.97
37.38
24.33
10.68
-3.46
-17.68
-31.33
-43.81
-54.83
-64.58
-73.72
-83.3
-94.4
-107.78
-123.3
-139.45
-153.24
-160.66
-157.77
-142.07
-113.59
-75.18
-31.74
11.2
49.0
78.82
99.79
112.45
118.03
117.86
113.16
105.11
94.98
84.17
74.13
66.07
60.77
58.49
58.9
61.28
64.69
68.23
71.12
72.75
72.66
70.49
66.03
59.27
50.52
40.34
29.32
17.96
6.44
-5.28
-17.28
-29.46
-41.43
-52.58
-62.35
-70.5
-77.31
-83.52
-90.25
-98.57
-109.13
-121.63
-134.48
-144.78
-148.92
-143.56
-126.86
-99.34
-63.86
-24.96
12.51
44.62
69.17
85.64
94.75
97.74
95.89
90.28
81.95
71.94
61.44
51.75
44.02
39.11
37.26
38.18
41.1
45.02
48.89
51.89
53.47
53.31
51.3
47.43
41.77
34.49
25.8
15.93
5.12
-6.29
-17.95
-29.41
-40.23
-50.06
-58.76
-66.46
-73.58
-80.89
-89.25
-99.41
-111.45
-124.44
-136.25
-143.75
-143.71
-133.76
-113.43
-84.46
-50.38
-15.51
16.17
41.93
60.59
72.26
77.85
78.5
75.33
69.29
61.33
52.49
43.87
36.57
31.52
29.17
29.49
31.92
35.63
39.67
43.22
45.66
46.63
45.96
43.61
39.67
34.31
27.65
19.84
10.96
1.15
-9.39
-20.27
-31.01
-41.08
-50.09
-57.89
-64.65
-70.85
-77.27
-84.83
-94.27
-105.72
-118.25
-129.68
-136.95
-136.87
-127.28
-107.91
-80.68
-49.14
-17.46
10.78
33.37
49.56
59.79
65.01
66.19
64.12
59.53
53.22
46.25
39.85
35.13
32.86
33.18
35.69
39.57
43.92
47.99
51.23
53.31
53.93
52.81
49.66
44.23
36.45
26.41
14.46
1.13
-12.84
-26.66
-39.54
-50.94
-60.57
-68.5
-75.11
-81.02
-87.05
-94.02
-102.46
-112.18
-122.0
-129.62
-132.13
-126.81
-112.19
-88.75
-58.98
-26.68
4.1
30.24
50.05
63.33
70.71
73.2
71.58
66.52
58.7
49.11
39.1
30.14
23.49
19.79
18.95
20.21
22.53
24.94
26.77
27.8
28.09
27.71
26.6
24.47
20.87
15.4
7.94
-1.3
-11.63
-22.16
-31.96
-40.44
-47.42
-53.25
-58.61
-64.33
-71.2
-79.75
-89.96
-101.04
-111.31
-118.31
-119.41
-112.58
-97.16
-74.3
-46.68
-17.78
9.08
31.53
48.45
59.76
65.96
67.73
65.68
60.46
52.95
44.34
36.04
29.43
25.47
24.37
25.66
28.31
31.22
33.57
35.03
35.72
35.85
35.42
34.05
31.04
25.7
17.77
7.6
-3.82
-15.17
-25.33
-33.7
-40.35
-45.93
-51.32
-57.41
-64.89
-74.04
-84.57
-95.42
-104.69
-109.84
-108.34
-98.51
-80.26
-55.31
-26.87
1.39
26.23
45.62
58.87
66.35
68.98
67.79
63.74
57.72
50.64
43.47
37.22
32.77
30.65
30.97
33.36
37.11
41.34
45.2
48.07
49.57
49.52
47.86
44.61
39.84
33.69
26.36
18.07
9.07
-0.41
-10.13
-19.9
-29.43
-38.44
-46.6
-53.71
-59.77
-65.15
-70.55
-76.92
-85.02
-94.91
-105.66
-115.15
-120.46
-118.77
-108.27
-88.96
-62.81
-33.19
-3.92
21.71
41.7
55.47
63.52
66.91
66.78
64.04
59.46
53.7
47.46
41.52
36.65
33.45
32.2
32.73
34.59
37.14
39.72
41.79
42.99
43.09
41.96
39.6
36.06
31.47
25.98
19.66
12.48
4.39
-4.63
-14.4
-24.52
-34.44
-43.54
-51.41
-57.96
-63.47
-68.58
-74.16
-80.98
-89.43
-99.06
-108.3
-114.63
-115.17
-107.58
-91.06
-66.86
-37.95
-8.23
18.76
40.66
56.6
66.9
72.41
73.95
72.17
67.62
61.03
53.4
45.9
39.6
35.17
32.8
32.24
32.98
34.53
36.48
38.5
40.3
41.42
41.39
39.76
36.29
31.11
24.68
17.58
10.34
3.21
-3.9
-11.23
-19.0
-27.17
-35.41
-43.14
-49.81
-55.19
-59.47
-63.32
-67.71
-73.64
-81.79
-92.04
-103.18
-112.84
-118.0
-115.81
-104.61
-84.65
-58.16
-28.73
-0.23
24.3
43.17
56.07
63.58
66.59
66.06
62.81
57.67
51.49
45.17
39.52
35.18
32.54
31.7
32.48
34.48
37.12
39.78
41.86
42.9
42.63
40.97
37.92
33.58
28.08
21.56
14.16
6.01
-2.71
-11.8
-20.96
-29.83
-38.02
-45.26
-51.5
-56.94
-62.1
-67.65
-74.27
-82.32
-91.56
-100.74
-107.74
-109.94
-105.0
-91.82
-71.05
-45.12
-17.52
8.29
29.76
45.71
56.15
61.77
63.35
61.51
56.81
49.9
41.77
33.68
26.93
22.46
20.64
21.1
23.04
25.44
27.45
28.64
28.97
28.63
27.82
26.49
24.29
20.72
15.37
8.15
-0.58
-10.08
-19.41
-27.78
-34.77
-40.56
-45.77
-51.36
-58.24
-67.01
-77.55
-88.81
-98.84
-105.13
-105.21
-97.45
-81.68
-59.34
-33.16
-6.4
18.03
38.16
53.07
62.73
67.56
68.07
64.85
58.63
50.4
41.48
33.32
27.15
23.73
23.11
24.66
27.33
30.05
32.06
33.09
33.26
32.9
32.22
31.01
28.76
24.82
18.72
10.46
0.55
-10.11
-20.61
-30.25
-38.81
-46.51
-53.88
-61.63
-70.39
-80.56
-92.01
-103.93
-114.55
-121.49
-122.26
-115.09
-99.64
-77.41
-51.25
-24.61
-0.53
19.06
33.44
42.82
47.76
48.82
46.45
41.17
33.83
25.61
17.83
11.65
7.68
5.91
5.8
6.59
7.69
8.87
10.13
11.51
12.78
13.24
11.94
8.0
1.03
-8.66
-20.13
-32.09
-43.42
-53.47
-62.26
-70.34
-78.57
-87.76
-98.44
-110.47
-122.9
-133.82
-140.67
-140.66
-131.63
-112.78
-85.0
-50.77
-13.48
23.41
57.18
86.11
109.38
126.77
138.33
144.32
145.2
141.75
135.02
126.25
116.62
107.17
98.7
91.76
86.65
83.39
81.66
80.82
80.03
78.37
75.13
69.95
62.8
54.06
44.27
33.97
23.53
13.07
2.29
-9.37
-22.58
-37.86
-55.04
-72.9
-89.06
-100.33
-103.68
-97.18
-80.91
-57.0
-29.13
-1.32
23.15
42.42
56.15
64.89
69.53
70.76
69.03
64.69
58.33
50.75
42.94
35.9
30.35
26.59
24.58
24.0
24.32
25.02
25.48
25.15
23.62
20.7
16.44
11.15
5.28
-0.81
-6.97
-13.29
-20.18
-28.28
-38.09
-49.62
-61.87
-72.72
-79.17
-78.21
-67.83
-47.96
-20.67
10.31
40.78
67.14
87.16
100.08
106.31
106.83
102.84
95.43
85.51
73.82
60.87
47.12
33.05
19.3
6.62
-4.35
-13.33
-20.49
-26.43
-31.76
-36.84
-41.71
-46.09
-49.78
-52.83
-55.67
-58.99
-63.52
-69.84
-78.19
-88.31
-99.3
-109.54
-116.74
-118.42
-112.68
-98.87
-78.07
-52.94
-26.9
-3.2
15.96
29.71
38.37
42.8
43.87
42.14
37.93
31.61
23.82
15.59
8.13
2.47
-0.91
-2.13
-1.97
-1.39
-1.23
-1.92
-3.46
-5.61
-8.14
-11.07
-14.69
-19.46
-25.89
-34.38
-45.09
-57.86
-71.93
-85.76
-97.03
-103.0
-101.21
-90.38
-70.95
-45.15
-16.36
11.87
36.74
56.75
71.52
81.36
86.73
87.9
85.05
78.57
69.28
58.52
47.94
39.07
32.79
29.14
27.3
26.04
24.19
21.13
16.87
11.9
6.75
1.7
-3.41
-9.12
-16.06
-24.83
-35.82
-49.11
-64.28
-80.13
-94.58
-104.77
-107.83
-101.7
-86.08
-62.67
-34.8
-6.37
19.25
39.98
55.24
65.42
71.34
73.67
72.82
69.06
62.87
55.06
46.71
38.96
32.6
27.87
24.39
21.44
18.25
14.38
9.88
5.11
0.61
-3.38
-6.98
-10.7
-15.3
-21.59
-30.17
-41.32
-54.76
-69.44
-83.48
-94.23
-98.8
-94.93
-81.76
-60.31
-33.37
-4.64
22.25
44.66
61.4
72.55
78.88
81.29
80.47
76.85
70.85
63.07
54.42
45.98
38.74
33.26
29.55
27.04
24.83
22.14
18.51
14.0
9.07
4.19
-0.4
-4.86
-9.69
-15.51
-22.86
-32.05
-43.19
-56.0
-69.77
-83.0
-93.45
-98.45
-95.7
-84.05
-64.14
-38.33
-10.05
17.14
40.49
58.47
70.71
77.71
80.26
79.26
75.58
70.12
63.8
57.46
51.75
46.98
43.14
40.01
37.33
35.0
33.02
31.44
30.03
28.29
25.43
20.71
13.79
4.87
-5.27
-15.6
-25.16
-33.47
-40.67
-47.51
-55.14
-64.66
-76.62
-90.41
-104.07
-114.45
-118.09
-112.33
-96.46
-72.11
-42.75
-12.63
14.61
36.74
53.15
64.29
71.02
74.07
73.94
71.07
66.14
60.14
54.19
49.25
45.79
43.72
42.46
41.28
39.63
37.44
35.02
32.89
31.32
30.07
28.31
24.96
19.15
10.68
0.12
-11.32
-22.3
-31.86
-39.77
-46.52
-53.01
-60.26
-69.01
-79.57
-91.5
-103.58
-113.67
-119.11
-117.36
-106.83
-87.64
-61.81
-32.71
-4.11
20.95
40.8
55.09
64.4
69.52
71.1
69.54
65.34
59.22
52.28
45.77
40.75
37.78
36.82
37.35
38.59
39.84
40.58
40.63
40.05
38.97
37.4
35.13
31.76
26.87
20.18
11.82
2.3
-7.53
-16.77
-24.76
-31.27
-36.51
-41.01
-45.43
-50.44
-56.75
-64.81
-74.62
-85.29
-94.89
-100.67
-99.82
-90.39
-72.23
-47.12
-18.21
10.86
37.16
58.95
75.75
87.87
95.83
100.01
100.56
97.69
91.88
84.04
75.43
67.31
60.7
56.01
53.04
51.09
49.43
47.46
45.01
42.24
39.42
36.7
33.96
30.76
26.55
20.83
13.37
4.36
-5.74
-16.28
-26.59
-36.2
-44.92
-52.78
-60.06
-67.2
-74.72
-83.16
-92.81
-103.38
-113.62
-121.36
-123.89
-118.87
-105.22
-83.7
-56.86
-28.22
-1.26
21.5
38.94
51.08
58.53
61.96
61.89
58.71
53.09
46.03
38.74
32.48
28.04
25.57
24.63
24.44
24.29
23.78
23.0
22.21
21.7
21.48
21.13
19.94
17.17
12.26
5.18
-3.6
-13.19
-22.6
-31.03
-38.21
-44.4
-50.2
-56.46
-63.94
-73.13
-84.01
-95.8
-106.85
-114.8
-117.05
-111.59
-97.75
-76.6
-50.72
-23.52
1.78
22.87
38.62
48.89
54.11
54.93
52.07
46.37
38.87
30.69
22.94
16.43
11.58
8.41
6.61
5.87
5.88
6.48
7.51
8.7
9.54
9.32
7.24
2.79
-4.07
-12.82
-22.52
-32.08
-40.7
-48.07
-54.48
-60.73
-67.88
-76.83
-87.87
-100.3
-112.21
-120.82
-123.19
-117.22
-102.41
-80.21
-53.48
-25.7
0.12
22.01
39.14
51.5
59.37
63.16
63.28
60.37
55.36
49.4
43.62
38.86
35.52
33.54
32.58
32.27
32.41
32.99
34.09
35.66
37.24
38.02
37.04
33.54
27.33
18.95
9.47
0.04
-8.55
-16.17
-23.3
-30.9
-39.91
-51.01
-64.2
-78.6
-92.29
-102.63
-106.76
-102.52
-89.18
-67.86
-41.24
-12.79
14.28
37.7
56.36
70.03
78.9
83.21
83.25
79.53
72.95
64.78
56.41
48.96
43.04
38.72
35.66
33.46
31.88
30.94
30.79
31.37
32.33
32.86
31.95
28.68
22.69
14.24
4.22
-6.27
-16.34
-25.59
-34.26
-42.98
-52.67
-63.99
-77.2
-91.67
-105.81
-117.09
-122.59
-119.91
-108.01
-87.72
-61.58
-33.11
-5.78
17.9
36.63
50.22
59.01
63.46
64.08
61.43
56.37
50.05
43.77
38.6
35.14
33.38
32.82
32.79
32.86
32.93
33.25
34.04
35.16
35.94
35.33
32.31
26.37
17.75
7.45
-3.24
-13.22
-21.98
-29.74
-37.22
-45.4
-55.17
-67.06
-80.98
-95.88
-109.69
-119.45
-122.12
-115.45
-98.92
-74.03
-44.02
-12.82
16.07
40.32
58.96
71.98
79.8
82.84
81.53
76.47
68.63
59.45
50.55
43.36
38.79
36.99
37.47
39.33
41.7
43.93
45.74
47.15
48.19
48.66
48.07
45.67
40.79
33.22
23.3
11.96
0.37
-10.48
-20.15
-28.77
-36.93
-45.47
-55.16
-66.52
-79.47
-93.09
-105.5
-114.03
-115.87
-108.93
-92.7
-68.58
-39.56
-9.33
18.74
42.37
60.55
73.26
80.92
84.07
83.18
78.79
71.72
63.14
54.45
47.01
41.81
39.2
38.97
40.39
42.58
44.8
46.58
47.76
48.36
48.34
47.41
45.14
40.96
34.53
25.87
15.47
4.2
-6.98
-17.25
-26.24
-34.06
-41.26
-48.61
-56.96
-66.95
-78.74
-91.76
-104.45
-114.4
-118.78
-115.16
-102.33
-80.94
-53.36
-23.11
6.18
31.69
51.94
66.62
76.21
81.37
82.7
80.69
75.9
69.13
61.49
54.22
48.36
44.63
43.19
43.77
45.79
48.52
51.3
53.57
54.92
55.03
53.73
51.0
46.95
41.75
35.56
28.43
20.31
11.16
1.08
-9.54
-20.16
-30.2
-39.28
-47.36
-54.76
-62.12
-70.17
-79.52
-90.29
-101.84
-112.52
-119.83
-121.0
-113.9
-97.87
-74.15
-45.6
-15.87
11.66
34.66
52.12
64.1
71.17
74.04
73.26
69.36
63.04
55.25
47.18
40.09
35.01
32.47
32.42
34.21
36.96
39.75
41.95
43.29
43.75
43.39
42.1
39.57
35.36
29.14
20.95
11.24
0.82
-9.45
-18.86
-27.09
-34.23
-40.62
-46.82
-53.35
-60.8
-69.6
-79.83
-90.86
-101.15
-108.25
-109.48
-102.75
-87.44
-64.86
-37.87
-10.06
15.38
36.35
52.09
62.79
69.0
71.25
69.85
65.23
58.11
49.73
41.61
35.24
31.56
30.75
32.25
34.97
37.76
39.79
40.71
40.6
39.75
38.38
36.4
33.46
29.11
23.02
15.23
6.18
-3.35
-12.56
-20.82
-27.89
-33.94
-39.5
-45.33
-52.24
-60.89
-71.49
-83.5
-95.41
-104.84
-109.02
-105.6
-93.52
-73.43
-47.73
-19.78
6.93
29.78
47.3
59.25
66.05
68.4
66.95
62.37
55.44
47.24
39.06
32.1
27.28
24.91
24.68
25.89
27.65
29.19
30.01
29.96
29.22
28.18
27.18
26.39
25.59
24.27
21.77
17.74
12.2
5.7
-1.03
-7.37
-13.15
-18.6
-24.25
-30.65
-38.2
-47.24
-57.94
-70.14
-83.08
-95.11
-103.83
-106.65
-101.66
-88.45
-68.42
-44.47
-20.0
2.02
19.76
32.72
41.31
46.35
48.58
48.54
46.67
43.53
39.84
36.44
34.07
33.14
33.67
35.35
37.7
40.23
42.52
44.24
45.08
44.81
43.26
40.4
36.36
31.38
25.74
19.67
13.26
6.5
-0.68
-8.31
-16.35
-24.52
-32.45
-39.7
-46.01
-51.41
-56.28
-61.35
-67.44
-75.11
-84.21
-93.62
-101.25
-104.48
-100.95
-89.39
-70.13
-45.16
-17.49
9.63
33.62
52.96
67.18
76.56
81.63
82.98
81.23
77.09
71.45
65.32
59.67
55.26
52.5
51.42
51.79
53.27
55.56
58.33
61.26
63.86
65.55
65.73
63.95
60.12
54.57
47.93
40.91
34.04
27.42
20.73
13.42
5.01
-4.68
-15.29
-26.15
-36.42
-45.49
-53.24
-60.07
-66.77
-74.26
-83.17
-93.34
-103.7
-112.22
-116.29
-113.52
-102.45
-83.25
-57.76
-29.0
-0.33
25.45
46.6
62.5
73.39
79.89
82.79
82.95
81.23
78.63
76.06
74.28
73.72
74.5
76.56
79.84
84.41
90.43
97.98
106.78
116.11
124.96
132.33
137.62
140.95
143.06
145.0
147.7
151.55
156.28
161.09
164.91
166.72
165.83
162.02
155.64
147.59
139.08
131.31
124.97
119.9
115.33
110.26
104.26
97.94
93.11
92.14
96.99
108.23
124.5
142.71
159.0
169.94
173.51
169.53
159.36
145.16
129.05
112.6
96.64
81.52
67.36
54.18
41.89
30.19
18.62
6.71
-5.75
-18.51
-31.03
-42.62
-52.86
-61.74
-69.66
-77.17
-84.68
-92.32
-99.91
-107.19
-114.11
-121.06
-128.96
-139.23
-153.42
-172.58
-196.57
-223.68
-250.76
-274.15
-290.95
-300.14
-302.96
-302.39
-301.8
-303.61
-308.32
-314.41
-318.9
-318.43
-310.13
-292.47
-265.52
-230.94
-191.59
-150.94
-112.32
-78.4
-50.86
-30.41
-16.99
-9.97
-8.34
-10.74
-15.46
-20.67
-24.54
-25.71
-23.45
-17.95
-10.21
-1.73
5.96
11.74
15.19
16.57
16.51
15.56
13.87
11.08
6.55
-0.29
-9.56
-20.77
-32.85
-44.53
-54.8
-63.15
-69.77
-75.4
-81.18
-88.35
-97.93
-110.25
-124.6
-138.81
-149.37
-152.1
-143.44
-121.82
-88.52
-47.59
-4.67
34.67
66.46
89.02
102.66
108.76
108.83
104.02
95.18
83.27
69.58
55.83
43.78
34.73
29.17
26.71
26.33
26.78
27.03
26.56
25.41
23.95
22.51
21.07
19.06
15.53
9.47
0.28
-11.82
-25.76
-39.96
-52.88
-63.56
-71.96
-78.95
-85.98
-94.63
-106.07
-120.55
-136.96
-152.67
-163.71
-165.71
-155.33
-131.56
-96.36
-54.34
-11.37
27.24
58.01
79.9
93.72
101.14
103.66
102.12
96.7
87.3
74.08
57.85
40.16
23.16
9.1
-0.23
-4.11
-2.99
1.63
7.76
13.59
17.87
20.04
19.99
17.68
12.9
5.19
-5.79
-20.0
-36.71
-54.63
-72.21
-88.16
-101.85
-113.42
-123.6
-133.41
-143.89
-155.87
-169.84
-185.49
-201.34
-214.5
-220.99
-216.85
-199.44
-168.76
-127.75
-81.68
-36.61
2.29
31.84
51.26
61.59
64.85
63.16
58.27
51.49
43.88
36.46
30.39
26.84
26.8
30.62
37.93
47.6
58.11
67.98
76.09
81.85
85.09
85.82
84.01
79.57
72.43
62.61
50.38
36.19
20.71
4.71
-10.93
-25.39
-38.03
-48.6
-57.35
-65.06
-72.96
-82.41
-94.54
-109.64
-126.63
-142.81
-154.22
-156.65
-146.92
-124.16
-90.2
-49.16
-6.15
34.13
68.47
95.39
114.84
127.57
134.47
136.35
133.95
128.14
120.08
111.31
103.5
98.16
96.14
97.41
101.13
105.88
110.29
113.41
114.92
114.93
113.7
111.28
107.38
101.51
93.18
82.22
68.98
54.28
39.24
24.92
12.04
0.73
-9.37
-18.95
-28.83
-39.83
-52.57
-67.32
-83.54
-99.49
-112.07
-117.34
-111.7
-93.23
-62.71
-23.63
18.87
59.6
94.69
122.35
142.55
156.21
164.48
168.21
168.05
164.68
159.02
152.25
145.67
140.38
137.09
136.06
137.01
139.28
141.95
144.03
144.46
142.39
137.22
128.69
116.99
102.64
86.44
69.24
51.73
34.23
16.88
-0.29
-17.1
-33.13
-47.77
-60.46
-71.0
-79.76
-87.69
-96.07
-106.25
-119.09
-134.38
-150.48
-164.26
-171.63
-168.72
-153.14
-125.02
-87.18
-44.48
-2.26
34.94
64.42
85.42
98.57
105.1
106.3
103.16
96.6
87.6
77.38
67.28
58.65
52.46
49.23
48.87
50.87
54.45
58.71
62.82
66.04
67.84
67.88
66.12
62.79
58.28
53.02
47.18
40.7
33.24
24.5
14.33
3.03
-8.74
-20.14
-30.3
-38.77
-45.6
-51.39
-57.32
-64.65
-74.15
-85.5
-96.76
-104.56
-105.02
-95.0
-73.52
-42.31
-5.31
32.61
67.21
95.97
118.21
134.49
145.69
152.29
154.36
151.94
145.61
136.7
127.06
118.57
112.48
109.15
107.88
107.12
105.04
100.03
91.22
78.85
64.15
48.9
34.84
22.91
13.05
4.54
-3.44
-11.24
-18.43
-24.16
-27.76
-29.23
-29.51
-30.11
-32.61
-38.17
-47.28
-59.61
-73.92
-87.83
-97.9
-100.14
-91.07
-69.07
-35.36
5.94
48.96
87.71
117.79
137.27
146.53
147.34
141.82
131.81
118.74
103.98
89.12
75.99
66.38
61.44
61.21
64.5
69.2
73.12
74.78
73.88
71.19
68.0
65.17
62.67
59.41
53.9
44.94
32.29
16.74
-0.21
-17.16
-33.32
-48.77
-64.28
-80.85
-99.33
-120.34
-144.17
-170.58
-198.37
-224.73
-245.11
-253.96
-246.43
-220.36
-177.72
-124.47
-68.9
-19.23
18.77
42.72
53.22
52.45
42.91
26.68
5.59
-18.27
-42.31
-63.69
-79.95
-89.78
-93.32
-91.95
-87.66
-82.25
-76.85
-71.78
-66.81
-61.71
-56.64
-52.39
-50.19
-51.35
-56.86
-66.94
-80.85
-96.91
-112.9
-126.57
-136.21
-141.27
-142.44
-141.46
-140.7
-142.46
-148.17
-157.66
-168.69
-176.89
-176.73
-163.04
-132.96
-87.41
-31.3
27.78
81.85
124.95
154.57
171.6
179.15
180.79
179.25
175.76
170.34
162.35
151.2
136.8
119.83
101.58
83.65
67.44
53.72
42.44
33.03
24.78
17.25
10.39
4.19
-1.81
-8.75
-18.27
-31.8
-49.66
-70.61
-92.04
-110.97
-125.18
-134.12
-139.06
-142.47
-147.12
-155.14
-167.49
-183.59
-201.29
-216.83
-225.36
-221.82
-202.5
-166.47
-116.37
-58.14
0.74
53.28
94.88
123.9
141.13
148.43
147.5
139.44
124.91
104.96
81.58
57.53
35.67
17.99
4.89
-4.82
-13.21
-22.24
-32.82
-44.65
-56.68
-67.99
-78.46
-89.07
-101.36
-116.68
-135.36
-156.3
-177.16
-195.03
-207.16
-211.83
-208.82
-199.66
-187.35
-175.69
-168.07
-166.29
-169.66
-174.95
-177.36
-172.11
-155.96
-128.15
-90.34
-45.9
1.02
46.35
86.57
118.95
141.74
154.37
157.43
152.57
142.14
128.77
115.03
103.21
95.04
91.47
92.55
97.45
104.72
112.77
120.14
125.49
127.4
124.18
113.99
95.35
67.78
32.23
-8.95
-52.66
-95.9
-136.46
-173.21
-205.97
-235.18
-261.25
-284.16
-303.01
-316.07
-321.3
-317.06
-302.96
-280.3
-251.8
-220.73
-189.9
-160.8
-133.6
-107.52
-81.48
-54.71
-26.98
1.29
28.99
54.5
75.84
91.37
100.42
103.76
103.38
101.84
101.51
103.78
108.83
115.73
122.95
128.72
131.5
130.15
124.26
114.2
101.04
86.22
71.09
56.48
42.65
29.22
15.38
0.19
-17.15
-36.89
-58.16
-78.87
-95.86
-105.78
-106.21
-96.52
-78.12
-53.79
-26.44
2.08
31.33
61.74
93.47
125.27
154.39
177.26
191.07
194.91
190.3
180.57
169.46
159.89
153.18
149.21
147.14
146.32
146.64
148.28
151.17
154.48
156.61
155.61
149.96
139.21
124.27
107.0
89.62
73.79
60.14
48.1
36.3
23.08
7.08
-12.28
-34.38
-57.18
-77.3
-90.55
-92.94
-81.91
-57.42
-22.15
19.17
61.11
99.04
130.06
153.11
168.4
176.64
178.49
174.64
166.08
154.45
141.94
130.87
122.99
118.99
118.41
120.0
122.37
124.59
126.44
128.25
130.45
133.06
135.46
136.45
134.74
129.34
120.1
107.67
93.43
78.91
65.23
52.81
41.23
29.56
16.62
1.6
-15.69
-34.36
-52.41
-66.89
-74.36
-71.91
-58.02
-33.3
-0.4
36.68
73.79
107.7
136.53
159.45
175.93
185.16
186.01
177.63
160.39
136.39
109.38
83.7
63.15
49.81
43.69
43.1
45.53
48.76
51.42
53.16
54.14
54.58
54.25
52.47
48.46
41.75
32.51
21.48
9.63
-2.28
-14.04
-25.99
-38.68
-52.65
-68.15
-85.08
-102.94
-120.62
-136.29
-147.26
-150.61
-143.97
-126.64
-100.12
-67.86
-34.3
-3.41
22.26
41.84
55.7
64.58
69.01
69.26
65.63
58.95
50.64
42.41
35.82
31.81
30.56
31.65
34.34
37.79
41.23
44.01
45.54
45.32
42.87
37.71
29.46
17.86
2.99
-14.57
-33.71
-53.04
-71.33
-87.95
-103.05
-117.41
-132.07
-147.94
-165.39
-183.92
-202.01
-217.08
-225.96
-225.63
-214.35
-192.45
-162.5
-128.68
-95.56
-66.75
-44.26
-28.4
-18.43
-13.22
-11.66
-12.73
-15.3
-18.08
-19.8
-19.45
-16.66
-11.71
-5.46
0.97
6.61
10.86
13.52
14.67
14.3
12.17
7.74
0.44
-10.07
-23.46
-38.73
-54.44
-69.07
-81.61
-91.75
-99.93
-107.17
-114.71
-123.67
-134.55
-146.81
-158.57
-166.75
-167.82
-158.85
-138.61
-108.13
-70.49
-29.98
9.1
43.48
71.22
91.68
105.12
112.29
114.21
112.03
106.93
99.95
91.83
82.98
73.49
63.25
52.26
40.68
29.01
18.02
8.43
0.64
-5.5
-10.72
-16.06
-22.3
-29.57
-37.11
-43.5
-47.26
-47.51
-44.47
-39.46
-34.57
-32.04
-33.44
-39.01
-47.29
-55.24
-58.91
-54.67
-40.38
-16.33
14.88
49.1
82.05
110.46
132.65
148.37
158.1
162.44
161.87
156.88
148.19
136.87
124.16
111.01
97.79
84.33
70.07
54.6
38.02
21.04
4.81
-9.52
-21.33
-30.91
-39.38
-48.33
-59.12
-72.25
-87.09
-102.01
-115.06
-124.67
-130.32
-132.7
-133.45
-134.73
-138.6
-146.47
-158.54
-173.45
-188.13
-198.37
-199.92
-189.77
-167.39
-134.94
-96.65
-57.47
-21.65
8.16
31.02
47.12
57.15
61.81
61.82
58.14
52.17
45.72
40.65
38.43
39.81
44.66
52.09
60.82
69.67
77.95
85.52
92.59
99.23
104.89
108.26
107.64
101.67
90.09
74.07
55.94
38.31
23.15
11.11
1.53
-7.11
-16.51
-27.99
-42.16
-58.79
-76.62
-93.27
-105.43
-109.54
-102.82
-84.38
-55.77
-20.72
15.93
49.57
76.91
96.29
107.35
110.38
105.92
94.7
77.94
57.63
36.41
17.13
2.06
-7.63
-12.1
-12.64
-10.99
-8.79
-7.05
-6.13
-6.0
-6.62
-8.29
-11.67
-17.5
-26.18
-37.41
-50.12
-62.78
-73.95
-82.82
-89.54
-95.13
-101.08
-108.82
-119.36
-132.97
-148.94
-165.35
-179.04
-186.16
-183.02
-167.38
-139.43
-102.0
-59.79
-17.97
19.29
49.7
72.69
88.76
98.63
102.79
101.65
96.05
87.46
78.01
69.83
64.48
62.45
63.06
64.87
66.39
66.64
65.47
63.35
60.95
58.52
55.61
51.24
44.26
34.04
20.88
6.01
-8.88
-22.23
-33.28
-42.22
-50.11
-58.42
-68.63
-81.84
-98.38
-117.5
-136.99
-153.32
-162.17
-159.64
-143.61
-114.75
-76.44
-33.94
7.22
42.65
69.91
88.38
98.61
101.56
98.29
89.88
77.75
63.71
49.85
38.05
29.52
24.43
22.08
21.22
20.69
19.88
18.82
17.94
17.6
17.59
17.06
14.72
9.4
0.58
-11.28
-24.89
-38.62
-51.1
-61.8
-71.21
-80.55
-91.41
-105.06
-121.86
-140.79
-159.36
-173.87
-180.29
-175.41
-157.93
-129.12
-92.5
-52.8
-14.58
18.86
45.98
66.56
81.08
89.97
93.52
92.13
86.76
79.07
71.24
65.35
62.68
63.38
66.54
70.7
74.56
77.5
79.69
81.74
84.15
86.77
88.74
88.74
85.68
79.25
70.17
60.0
50.48
42.88
37.51
33.68
29.94
24.72
16.75
5.53
-8.2
-22.39
-33.74
-38.43
-33.37
-17.51
7.4
36.99
65.6
88.03
101.19
104.61
99.97
89.92
76.89
62.49
47.6
32.84
19.02
7.28
-1.26
-5.9
-6.73
-4.63
-0.98
2.85
5.94
8.04
9.48
10.74
11.95
12.53
11.24
6.65
-2.3
-15.71
-32.57
-51.12
-69.43
-86.04
-100.26
-112.2
-122.42
-131.65
-140.52
-149.41
-158.15
-165.74
-170.16
-168.55
-158.16
-137.32
-106.44
-68.21
-26.87
13.06
48.07
76.32
97.54
112.26
121.18
124.74
123.28
117.5
108.67
98.64
89.42
82.6
78.96
78.24
79.41
81.11
82.26
82.34
81.44
79.98
78.32
76.34
73.34
68.36
60.51
49.62
36.31
21.92
7.94
-4.43
-14.76
-23.46
-31.44
-39.83
-49.62
-61.47
-75.33
-90.34
-104.52
-114.93
-118.23
-111.7
-94.34
-67.43
-34.33
0.48
32.81
59.76
80.15
94.15
102.6
106.32
105.87
101.82
94.99
86.74
78.79
72.81
69.89
70.23
73.09
77.15
81.1
84.04
85.74
86.51
86.84
86.95
86.6
85.02
81.32
74.87
65.61
54.09
41.27
28.15
15.47
3.48
-8.01
-19.5
-31.66
-45.14
-60.43
-77.46
-95.31
-111.9
-124.24
-129.13
-124.2
-108.88
-84.74
-55.08
-23.96
4.99
29.31
47.93
60.7
67.92
69.92
67.08
60.05
50.03
38.76
28.21
20.12
15.51
14.4
15.93
18.75
21.58
23.61
24.68
25.08
25.14
24.88
23.86
21.32
16.54
9.23
-0.21
-10.78
-21.22
-30.46
-37.98
-43.98
-49.22
-54.68
-61.33
-69.84
-80.29
-91.98
-103.25
-111.54
-113.9
-107.82
-92.16
-67.8
-37.48
-5.04
25.7
51.92
72.29
86.67
95.57
99.59
99.2
94.89
87.47
78.25
68.93
61.24
56.46
55.08
56.7
60.29
64.6
68.54
71.41
72.9
72.98
71.53
68.4
63.21
55.64
