-159.2
-163.95
-168.83
-175.67
-185.92
-199.44
-213.8
-224.21
-224.75
-210.27
-178.47
-131.02
-73.32
-12.83
43.17
89.38
123.25
144.55
154.37
154.15
145.27
129.25
107.92
83.61
58.89
36.27
17.88
5.34
-0.39
0.84
8.11
19.37
31.72
42.02
47.72
47.46
41.14
29.57
13.7
-5.89
-29.05
-55.79
-85.85
-118.44
-152.43
-186.75
-220.7
-253.83
-285.33
-313.32
-334.7
-345.67
-343.11
-325.86
-295.44
-255.56
-210.64
-164.01
-116.83
-68.41
-17.87
33.94
83.33
124.42
151.33
160.71
153.35
133.85
108.84
84.52
64.97
51.75
44.63
42.83
45.53
51.8
60.03
67.58
71.32
68.59
58.23
41.05
19.41
-3.61
-25.5
-44.97
-62.2
-78.38
-95.12
-113.8
-135.13
-158.69
-182.8
-204.49
-219.86
-225.13
-217.72
-197.23
-165.58
-126.21
-82.56
-36.78
10.5
59.44
109.35
157.67
200.02
231.62
249.27
252.73
244.94
230.81
215.42
202.44
193.49
188.4
186.14
185.63
186.22
187.51
189.16
190.58
190.79
188.74
183.61
175.14
163.94
151.21
138.12
125.09
111.21
94.26
71.35
40.07
-0.66
-50.4
-107.69
-170.8
-237.8
-305.96
-371.03
-426.87
-466.65
-484.83
-479.34
-452.43
-409.83
-358.53
-304.57
-252.03
-203.25
-160.06
-124.54
-98.73
-83.62
-78.08
-78.69
-80.66
-79.53
-72.48
-58.99
-40.48
-19.26
2.44
23.08
41.89
58.5
72.51
83.28
89.88
91.41
87.52
78.59
65.76
50.67
34.85
19.31
4.31
-10.6
-26.3
-43.74
-63.55
-85.73
-109.21
-131.8
-150.5
-162.18
-164.7
-157.56
-142.15
-121.21
-97.79
-74.19
-51.6
-30.15
-9.55
10.41
29.78
48.62
67.45
87.17
108.66
132.08
156.44
179.73
199.56
214.22
223.35
228.06
230.19
231.44
232.51
232.82
230.99
225.52
215.55
201.17
183.33
163.36
142.46
121.47
100.69
80.09
59.42
38.41
16.58
-6.61
-31.54
-57.91
-84.1
-107.09
-122.94
-128.08
-120.55
-100.72
-70.95
-34.51
5.5
46.72
87.21
124.86
157.03
180.96
194.69
197.89
192.14
180.44
166.1
151.96
139.84
130.67
124.75
122.1
122.49
125.51
130.39
136.1
141.29
144.5
144.35
139.98
131.4
119.51
105.88
92.0
78.55
64.98
49.6
30.29
5.36
-25.81
-62.44
-102.34
-142.04
-177.15
-202.71
-214.18
-208.48
-185.11
-146.58
-98.09
-46.14
3.01
44.79
76.82
98.81
111.73
117.07
116.39
111.1
102.69
92.76
83.02
75.07
69.98
68.06
68.86
71.36
74.51
77.58
80.23
82.32
83.53
83.08
79.77
72.39
60.24
43.65
23.95
3.2
-16.53
-33.81
-48.17
-60.19
-71.24
-83.01
-96.97
-113.86
-133.0
-151.97
-166.76
-172.66
-165.73
-144.32
-109.87
-66.65
-20.36
23.55
61.31
91.2
113.08
127.52
135.15
136.41
131.93
122.85
110.98
98.58
87.8
80.16
76.18
75.36
76.56
78.37
79.76
80.29
80.07
79.47
78.66
77.26
74.35
68.83
59.93
47.7
33.08
17.62
2.9
-10.0
-20.85
-30.24
-39.21
-48.97
-60.49
-74.27
-90.04
-106.45
-120.9
-129.87
-129.79
-118.18
-94.77
-61.76
-23.31
15.69
51.09
80.35
102.64
118.35
128.22
132.84
132.67
128.31
120.82
111.9
103.5
97.42
94.82
95.92
100.09
106.2
113.02
119.69
125.83
131.41
136.46
140.79
143.87
144.93
143.22
138.39
130.71
121.05
110.63
100.57
91.58
83.7
76.3
68.26
58.21
44.85
27.17
4.92
-21.03
-48.42
-73.88
-93.66
-104.78
-106.03
-98.38
-84.68
-68.59
-53.45
-41.46
-33.49
-29.49
-28.96
-31.45
-36.46
-43.44
-51.52
-59.53
-66.24
-70.73
-72.67
-72.56
-71.52
-70.99
-72.24
-75.89
-81.73
-88.85
-96.01
-102.19
-106.91
-110.33
-112.99
-115.43
-117.81
-119.81
-120.79
-120.12
-117.44
-112.88
-107.03
-100.77
-95.15
-91.19
-89.66
-90.59
-92.83
-93.94
-90.51
-79.2
-58.0
-27.2
10.39
50.25
87.47
118.21
140.36
153.57
158.67
156.94
149.68
138.18
123.84
108.23
92.95
79.32
68.03
59.06
51.77
45.27
38.78
31.97
24.94
18.04
11.47
4.99
-2.09
-10.71
-21.57
-34.7
-49.3
-63.89
-76.93
-87.29
-94.76
-100.04
-104.56
-109.96
-117.78
-128.92
-143.24
-159.17
-173.59
-182.44
-181.7
-168.88
-144.02
-109.88
-71.26
-33.35
-0.38
25.28
43.05
53.44
57.4
55.81
49.6
39.93
28.38
16.8
6.96
0.06
-3.53
-4.32
-3.46
-2.22
-1.64
-2.16
-3.65
-5.66
-7.87
-10.36
-13.77
-18.99
-26.68
-36.91
-48.92
-61.38
-72.86
-82.41
-89.92
-96.16
-102.47
-110.35
-121.02
-134.9
-151.33
-168.3
-182.56
-190.23
-187.74
-173.05
-146.45
-110.71
-70.42
-30.65
4.29
31.82
51.11
62.72
67.75
67.36
62.53
54.26
43.81
32.81
23.14
16.48
13.87
15.32
20.0
26.48
33.31
39.46
44.35
47.85
49.96
50.6
49.58
46.54
41.19
33.36
23.18
11.12
-2.06
-15.42
-28.08
-39.36
-49.04
-57.31
-64.75
-72.24
-80.69
-90.74
-102.28
-114.05
-123.49
-127.13
-121.43
-104.0
-74.58
-35.36
9.57
55.29
97.34
132.62
159.67
178.44
189.76
194.83
194.88
191.05
184.44
176.17
167.44
159.4
152.94
148.48
145.77
144.02
142.17
139.37
135.35
130.36
124.96
119.6
114.33
108.74
102.17
94.02
84.06
72.59
60.37
48.24
36.93
26.79
17.63
8.84
-0.46
-11.34
-24.72
-40.94
-59.38
-77.86
-92.77
-99.67
-94.65
-75.69
-43.75
-2.59
42.24
85.03
121.41
149.01
167.31
176.94
178.8
173.68
162.33
145.79
125.7
104.44
84.69
68.83
58.4
53.6
53.46
56.29
60.4
64.67
68.81
73.19
78.33
84.45
91.12
97.34
101.8
103.29
100.97
94.59
84.38
70.96
55.28
38.35
21.03
3.63
-14.29
-33.95
-56.7
-82.82
-110.37
-134.86
-150.12
-150.48
-133.14
-99.66
-55.76
-9.38
31.82
62.59
80.71
86.36
80.93
66.08
43.53
15.34
-15.8
-46.98
-75.8
-101.26
-123.95
-145.51
-167.59
-190.78
-214.23
-235.99
-253.99
-267.09
-275.58
-281.1
-285.9
-291.95
-300.16
-310.18
-320.59
-329.34
-334.27
-333.56
-326.08
-311.83
-292.1
-269.33
-246.44
-225.78
-208.09
-191.98
-174.27
-151.07
-119.18
-77.44
-27.22
27.66
81.85
129.73
166.6
189.56
197.82
192.5
175.87
150.82
120.3
87.34
55.02
26.43
4.24
-9.83
-15.53
-14.0
-7.27
2.51
13.61
24.87
35.41
44.29
50.26
51.96
48.37
39.26
25.47
8.69
-9.03
-26.08
-41.74
-56.42
-71.43
-88.38
-108.29
-130.68
-152.99
-170.72
-178.45
-171.63
-148.34
-110.42
-63.17
-13.77
30.91
66.14
90.2
103.73
108.59
106.58
98.98
86.75
71.08
53.78
37.04
22.89
12.54
6.1
2.71
1.13
0.4
0.16
0.63
2.09
4.43
6.76
7.6
5.35
-1.07
-11.65
-25.28
-40.14
-54.31
-66.5
-76.4
-84.73
-92.91
-102.72
-115.55
-131.86
-150.49
-168.41
-181.12
-183.66
-172.18
-145.39
-105.14
-56.07
-4.31
44.15
84.94
115.75
136.2
147.08
149.72
145.49
135.87
122.41
106.89
91.17
76.86
64.99
55.74
48.55
42.51
36.9
31.48
26.47
22.15
18.47
14.79
9.98
2.91
-7.06
-19.76
-34.27
-49.28
-63.59
-76.54
-88.13
-98.98
-110.17
-122.95
-138.31
-156.33
-175.7
-193.46
-205.52
-207.78
-197.47
-174.05
-139.35
-96.78
-50.33
-3.76
39.81
77.78
108.01
128.99
140.22
142.48
137.83
129.1
119.25
110.82
105.57
104.36
107.19
113.23
121.1
129.15
136.03
140.98
144.01
145.59
146.3
146.3
145.12
141.79
135.29
125.02
111.23
95.05
78.06
61.79
47.15
34.16
21.92
8.91
-6.57
-25.83
-49.0
-74.4
-98.32
-115.58
-120.99
-111.15
-86.01
-49.21
-6.98
33.79
67.61
91.56
105.19
109.55
105.98
95.57
79.23
58.23
34.59
11.02
-9.67
-25.49
-35.77
-41.31
-43.88
-45.36
-46.94
-48.72
-49.77
-48.89
-45.38
-39.55
-32.85
-27.28
-24.54
-25.33
-28.99
-33.91
-38.28
-40.91
-41.74
-41.81
-42.93
-47.01
-55.6
-69.17
-86.75
-105.61
-121.53
-129.52
-125.2
-106.2
-72.91
-28.64
21.5
71.96
118.15
157.02
187.17
208.34
220.97
226.01
224.85
219.32
211.55
203.63
197.16
192.92
190.76
189.8
188.95
187.48
185.36
183.3
182.3
182.9
184.41
184.78
181.08
170.66
152.34
126.99
97.39
67.12
39.22
15.21
-5.22
-23.65
-42.2
-62.59
-85.61
-110.63
-135.48
-156.51
-169.22
-169.42
-154.69
-125.46
-85.18
-39.45
5.7
45.38
76.78
99.13
112.8
118.39
116.24
106.69
90.57
69.71
46.91
25.29
7.5
-5.13
-12.75
-16.66
-18.63
-20.11
-21.88
-24.02
-26.29
-28.61
-31.35
-35.35
-41.61
-50.8
-62.95
-77.24
-92.21
-106.22
-117.82
-126.34
-131.95
-135.58
-138.62
-142.63
-148.95
-158.25
-170.16
-182.74
-192.66
-195.79
-188.46
-168.83
-137.8
-98.88
-57.18
-17.82
15.47
40.91
58.42
68.82
73.1
72.07
66.53
57.53
46.56
35.48
26.07
19.71
17.05
17.85
21.3
26.22
31.45
36.15
39.98
43.0
45.56
48.02
50.42
52.52
53.74
53.37
50.89
46.17
39.51
31.57
23.13
14.77
6.74
-1.03
-9.07
-18.15
-29.16
-42.71
-58.57
-75.06
-88.98
-96.1
-92.39
-75.55
-46.12
-7.63
34.42
74.19
107.16
130.95
145.39
151.56
150.99
144.99
134.53
120.55
104.2
87.03
70.78
57.15
47.39
41.98
40.57
42.17
45.35
48.69
51.1
51.98
51.26
49.25
46.32
42.71
38.35
32.87
25.75
16.61
5.46
-7.25
-20.61
-33.6
-45.29
-55.2
-63.32
-70.18
-76.78
-84.55
-94.96
-108.83
-125.5
-142.3
-154.82
-158.12
-148.67
-125.92
-92.97
-55.56
-20.1
8.45
27.89
38.65
42.69
42.05
37.99
30.86
20.73
7.99
-6.29
-20.54
-33.2
-43.22
-50.23
-54.56
-56.85
-57.64
-57.19
-55.49
-52.4
-47.99
-42.68
-37.35
-33.11
-31.1
-32.09
-36.32
-43.32
-52.05
-61.23
-69.62
-76.26
-80.74
-83.17
-84.12
-84.58
-85.73
-88.72
-94.17
-101.6
-108.98
-112.76
-108.6
-92.72
-63.29
-21.33
29.4
83.36
134.73
178.75
212.39
234.32
244.39
243.12
231.46
210.9
183.61
152.55
121.18
92.86
70.18
54.33
44.89
39.99
37.09
33.64
27.93
19.39
8.42
-3.96
-16.79
-29.51
-42.12
-54.99
-68.55
-83.0
-98.17
-113.55
-128.51
-142.55
-155.45
-167.32
-178.6
-189.91
-201.9
-214.95
-228.86
-242.26
-252.55
-256.06
-248.93
-228.22
-193.09
-145.31
-89.22
-30.78
23.84
69.49
102.91
122.94
130.22
126.54
114.27
95.87
73.75
50.23
27.53
7.68
-7.78
-18.12
-23.52
-24.9
-23.59
-20.79
-17.39
-13.88
-10.59
-7.97
-6.7
-7.62
-11.42
-18.37
-28.05
-39.54
-51.59
-63.15
-73.64
-83.07
-91.99
-101.16
-111.44
-123.52
-137.75
-153.72
-169.91
-183.67
-191.6
-190.52
-178.6
-155.92
-124.35
-86.66
-45.44
-2.58
40.52
82.34
120.67
152.71
175.88
188.87
192.17
188.02
179.63
170.04
161.63
155.75
152.94
153.21
156.17
161.1
167.0
172.76
177.35
180.04
180.48
178.58
174.35
167.76
158.65
146.96
132.81
116.73
99.62
82.52
66.29
51.36
37.61
24.36
10.57
-4.86
-22.75
-42.95
-63.92
-82.47
-94.22
-94.75
-81.08
-52.9
-12.89
33.99
82.04
126.37
163.94
193.65
215.77
231.07
240.31
244.2
243.64
240.11
235.64
232.43
232.15
235.29
240.81
246.36
249.15
246.91
238.66
224.95
207.46
188.17
168.61
149.24
129.6
108.74
85.83
60.65
33.67
5.8
-22.04
-49.35
-76.25
-103.49
-132.12
-163.4
-198.47
-238.15
-282.44
-329.78
-376.41
-416.54
-443.39
-451.28
-437.73
-404.65
-357.99
-305.83
-255.89
-213.5
-180.93
-158.03
-143.47
-135.9
-134.19
-137.16
-143.05
-149.4
-153.39
-152.63
-145.92
-133.57
-117.23
-99.15
-81.39
-65.14
-50.6
-37.36
-25.1
-14.11
-5.5
-0.76
-1.05
-6.5
-15.93
-27.24
-38.12
-46.88
-52.97
-56.94
-60.2
-64.35
-70.84
-80.51
-93.28
-107.79
-121.31
-130.13
-130.31
-118.98
-95.43
-61.44
-20.95
21.13
60.31
93.44
118.98
136.7
147.05
150.75
148.64
141.82
131.73
120.19
109.08
99.95
93.69
90.35
89.25
89.49
90.23
91.07
91.99
92.99
93.81
93.68
91.41
85.83
76.37
63.38
48.12
32.34
17.63
4.91
-5.85
-15.51
-25.43
-36.98
-51.13
-67.99
-86.37
-103.67
-116.18
-119.97
-112.24
-92.33
-62.25
-26.09
11.23
45.38
73.56
94.67
108.78
116.42
118.18
114.71
106.87
96.1
84.21
73.16
64.47
58.87
56.19
55.65
56.33
57.54
59.05
60.93
63.21
65.5
66.9
66.2
62.38
55.09
44.84
32.91
20.78
9.7
0.19
-8.01
-15.86
-24.57
-35.22
-48.19
-62.64
-76.4
-86.06
-87.8
-78.53
-56.98
-24.36
15.9
59.26
101.31
138.83
170.18
194.91
213.23
225.46
231.95
233.31
230.76
226.08
221.3
218.12
217.37
218.82
221.42
223.73
224.58
223.45
220.43
215.87
209.91
202.1
191.32
176.29
156.14
131.0
102.25
72.14
43.15
17.17
-5.13
-24.42
-42.42
-61.33
-83.18
-109.15
-139.02
-170.85
-201.06
-225.1
-238.68
-239.11
-226.43
-203.58
-175.44
-147.37
-123.49
-105.82
-94.34
-87.74
-84.51
-83.5
-84.01
-85.38
-86.6
-86.31
-83.07
-76.01
-65.05
-51.0
-35.08
-18.48
-1.85
14.57
30.67
45.94
59.16
68.47
71.95
68.28
57.33
40.34
19.4
-3.16
-25.58
-47.11
-67.96
-88.96
-110.92
-134.06
-157.49
-178.97
-194.93
-201.05
-193.42
-169.77
-130.6
-79.5
-22.37
34.17
84.55
125.41
155.9
176.79
189.5
195.11
194.13
186.84
173.84
156.51
136.96
117.68
100.82
87.71
78.49
72.3
67.91
64.31
61.31
59.47
59.67
62.3
66.68
70.86
72.14
68.01
57.0
39.19
16.01
-10.33
-37.76
-64.98
-91.66
-118.34
-145.96
-175.4
-206.81
-238.92
-268.49
-290.46
-299.01
-289.31
-259.6
-212.38
-154.11
-93.57
-39.14
3.25
31.22
45.38
48.06
41.9
29.07
11.29
-9.75
-32.09
-53.55
-72.13
-86.61
-96.8
-103.64
-108.64
-113.31
-118.48
-124.05
-129.27
-133.27
-135.72
-137.07
-138.43
-140.94
-145.17
-150.8
-156.82
-162.1
-166.0
-168.75
-171.31
-175.05
-181.26
-190.79
-203.73
-219.14
-234.83
-247.43
-252.98
-247.93
-230.32
-200.38
-160.44
-114.17
-65.55
-18.08
25.54
63.31
93.77
115.97
129.74
135.79
135.73
131.71
125.95
120.25
115.87
113.41
112.89
113.96
116.03
118.53
121.04
123.29
124.97
125.54
124.21
120.1
112.63
101.9
88.72
74.43
60.43
47.53
35.6
23.59
9.84
-7.41
-29.4
-56.28
-86.59
-117.15
-143.42
-160.43
-164.19
-153.03
-128.28
-93.91
-55.31
-17.62
15.43
41.99
61.62
74.51
80.83
80.78
74.88
64.5
51.83
39.53
29.93
24.37
23.06
25.15
29.37
34.6
40.18
45.96
51.92
57.8
62.78
65.62
65.04
60.26
51.35
39.33
25.8
12.42
0.25
-10.5
-20.47
-30.87
-43.01
-57.93
-75.88
-95.88
-115.51
-131.07
-138.34
-133.81
-115.9
-85.72
-46.81
-4.16
37.31
73.92
103.7
126.11
141.37
149.83
151.9
148.19
139.87
128.75
116.99
106.56
98.74
93.8
91.23
90.08
89.53
89.22
89.18
89.57
90.28
90.61
89.34
85.19
77.25
65.53
50.99
35.27
20.09
6.65
-4.72
-14.67
-24.49
-35.69
-49.52
-66.43
-85.69
-105.09
-121.11
-129.59
-126.93
-111.34
-83.65
-47.24
-7.09
31.71
65.26
91.43
109.69
120.47
124.57
122.83
116.25
106.2
94.44
82.88
73.05
65.85
61.27
58.76
57.5
56.86
56.64
56.89
57.77
59.11
60.31
60.24
57.75
52.09
43.27
32.2
20.38
9.33
0.05
-7.39
-13.79
-20.53
-29.12
-40.65
-55.26
-71.74
-87.42
-98.56
-101.3
-92.84
-72.48
-42.06
-5.52
32.42
67.42
96.5
118.25
132.45
139.57
140.37
135.86
127.35
116.53
105.24
95.01
86.8
80.79
76.58
73.52
71.1
69.18
67.92
67.57
68.16
69.38
70.59
70.89
69.23
64.38
55.16
40.51
20.05
-5.73
-35.4
-66.98
-98.67
-129.18
-157.67
-183.09
-203.59
-216.35
-218.39
-207.85
-185.23
-153.65
-118.01
-83.47
-53.89
-31.14
-15.21
-5.13
0.27
1.8
0.02
-4.42
-10.51
-16.86
-22.06
-24.94
-24.95
-22.1
-16.88
-9.97
-2.06
6.24
14.35
21.75
27.94
32.58
35.57
37.14
37.75
37.9
38.01
38.15
38.09
37.29
34.98
30.43
23.53
15.28
8.17
5.97
12.78
31.49
62.6
103.66
149.88
195.7
236.43
269.39
293.93
310.7
320.61
324.23
321.73
313.45
300.33
284.06
266.75
250.18
235.23
221.59
208.04
192.99
175.18
154.21
130.65
105.81
81.31
58.46
37.89
19.44
2.39
-14.09
-30.35
-46.0
-60.02
-71.19
-78.65
-82.47
-83.7
-84.11
-85.81
-90.96
-101.59
-119.09
-143.37
-171.91
-199.43
-218.83
-223.44
-209.64
-178.58
-136.03
-90.21
-48.79
-16.63
4.81
16.4
19.57
15.1
3.22
-15.72
-40.29
-68.01
-96.0
-122.18
-145.91
-167.98
-189.89
-212.8
-236.81
-260.88
-283.32
-302.59
-318.0
-329.84
-339.16
-347.15
-354.56
-361.52
-367.78
-372.97
-376.79
-378.75
-377.82
-372.25
-359.92
-339.1
-309.24
-271.16
-226.71
-177.99
-126.84
-74.96
-24.46
21.67
59.82
86.86
101.43
104.68
99.84
91.01
81.54
73.31
66.71
61.43
57.26
54.46
53.53
54.64
57.28
60.19
61.75
60.53
55.69
47.33
36.3
23.91
11.43
-0.32
-11.15
-21.43
-31.94
-43.49
-56.8
-72.16
-89.24
-106.66
-121.9
-131.52
-132.1
-121.26
-98.75
-66.75
-29.34
8.64
43.0
70.98
91.57
104.92
111.86
113.32
110.29
103.82
95.27
86.18
78.02
71.9
68.26
66.88
67.05
68.04
69.24
70.33
71.07
71.0
69.42
65.47
58.52
48.55
36.31
23.1
10.36
-0.9
-10.48
-19.11
-28.11
-39.03
-53.0
-70.11
-88.87
-106.23
-117.97
-119.88
-109.17
-85.52
-51.42
-11.51
28.82
65.0
94.18
115.49
129.41
137.02
139.38
137.41
132.0
124.2
115.26
106.51
99.0
93.37
89.82
88.23
88.31
89.68
91.87
94.15
95.59
95.21
92.28
86.6
78.63
69.39
60.03
51.48
44.0
37.25
30.35
22.21
11.94
-0.62
-14.43
-27.03
-34.93
-34.34
-22.52
1.23
35.11
75.27
117.03
156.18
190.04
217.53
238.69
253.78
262.72
264.94
259.86
247.51
228.92
206.1
181.54
157.52
135.46
115.81
98.32
82.5
67.98
54.55
41.94
29.62
16.82
2.8
-12.74
-29.39
-46.27
-62.36
-77.04
-90.32
-102.96
-116.15
-131.01
-148.06
-166.55
-184.19
-197.28
-201.51
-193.4
-171.65
-137.99
-96.89
-54.28
-15.75
14.84
35.95
47.98
52.35
50.58
43.92
33.48
20.52
6.5
-7.02
-18.79
-28.12
-34.99
-39.78
-43.02
-45.09
-46.29
-46.93
-47.53
-48.82
-51.56
-56.27
-62.97
-71.16
-80.05
-88.83
-97.03
-104.6
-112.02
-120.1
-129.69
-141.3
-154.51
-167.53
-177.2
-179.58
-171.09
-150.03
-117.38
-76.8
-33.62
6.76
40.34
65.23
81.51
90.46
93.64
92.34
87.52
80.04
70.93
61.4
52.76
46.01
41.61
39.37
38.62
38.59
38.73
38.9
39.22
39.69
39.86
38.77
35.23
28.43
18.4
6.24
-6.31
-17.4
-25.9
-31.74
-35.9
-40.11
-46.13
-55.19
-67.27
-80.76
-92.36
-97.82
-93.1
-75.8
-46.16
-7.26
35.97
78.25
115.4
145.22
167.29
182.26
191.01
194.16
192.13
185.46
175.17
162.67
149.5
136.88
125.49
115.37
106.25
97.79
89.93
82.97
77.35
73.51
71.42
70.4
69.16
66.05
59.61
49.1
34.8
17.92
0.23
-16.76
-32.35
-46.86
-61.57
-78.16
-98.15
-122.3
-150.1
-179.37
-206.28
-225.96
-233.67
-226.44
-204.21
-170.23
-130.1
-90.13
-55.48
-28.97
-11.14
-1.0
2.85
1.49
-4.31
-13.68
-25.15
-36.6
-45.61
-50.11
-49.01
-42.48
-31.74
-18.61
-4.95
7.84
19.01
28.35
35.99
41.95
45.92
47.12
44.55
37.48
25.86
10.66
-6.37
-23.24
-38.42
-51.33
-62.41
-72.85
-84.04
-97.29
-113.47
-132.88
-154.8
-177.15
-196.32
-207.73
-206.99
-191.5
-161.67
-121.13
-75.8
-32.05
4.93
32.17
49.04
56.52
56.44
50.9
41.96
31.67
21.85
13.96
8.84
6.73
7.39
10.41
15.34
21.78
29.22
36.89
43.76
48.63
50.5
48.75
43.45
35.24
25.25
14.69
4.54
-4.83
-13.89
-23.9
-36.64
-53.79
-76.2
-103.09
-131.69
-157.43
-174.94
-179.54
-168.71
-143.06
-106.13
-63.32
-20.28
18.5
50.52
75.1
92.74
104.37
110.89
113.13
112.16
109.47
106.81
105.9
108.05
113.74
122.71
134.23
147.45
161.76
176.74
191.99
206.83
220.24
231.11
238.74
243.29
245.63
246.62
246.27
243.12
234.5
217.6
190.58
153.34
107.38
55.23
0.1
-54.06
-102.37
-139.32
-160.01
-162.12
-147.19
-120.74
-90.49
-63.71
-45.02
-35.76
-34.89
-40.66
-51.85
-67.87
-88.1
-110.98
-133.8
-153.07
-165.63
-169.48
-164.35
-151.72
-134.24
-115.1
-97.18
-82.61
-72.46
-66.93
-65.55
-67.53
-71.99
-78.05
-84.95
-92.24
-100.04
-109.19
-121.15
-137.41
-158.58
-183.5
-208.63
-228.55
-237.24
-230.1
-205.57
-166.0
-116.94
-65.55
-18.43
19.86
47.42
64.51
72.54
73.23
68.16
58.87
47.02
34.4
22.66
12.82
5.11
-1.03
-6.56
-12.37
-18.85
-25.84
-32.76
-38.88
-43.68
-46.95
-48.79
-49.53
-49.63
-49.5
-49.53
-50.15
-51.87
-55.44
-61.86
-72.21
-87.12
-106.07
-126.88
-145.75
-158.1
-159.98
-149.26
-126.3
-93.49
-54.18
-11.69
31.18
72.08
108.69
138.61
159.86
171.58
174.44
170.51
162.53
152.99
143.61
135.34
128.62
123.8
121.29
121.36
123.93
128.38
133.63
138.38
141.38
141.8
139.38
134.46
127.87
120.63
113.59
107.15
101.11
94.68
86.61
75.57
60.65
42.02
21.53
2.61
-10.36
-13.41
-4.38
16.14
44.92
77.14
107.84
133.31
151.49
161.77
164.35
159.9
149.41
134.54
117.57
101.15
87.54
77.89
71.91
68.01
64.14
58.56
50.6
40.8
30.5
21.13
13.55
7.75
2.89
-2.03
-7.71
-14.16
-20.74
-26.62
-31.34
-35.2
-39.25
-45.08
-54.15
-67.36
-84.43
-103.57
-121.54
-133.97
-136.43
-125.62
-100.59
-63.21
-17.8
30.18
75.62
114.84
146.01
168.57
182.53
187.89
184.67
173.36
155.4
133.26
109.96
88.26
69.88
55.2
43.42
