-216.47
-221.47
-210.2
-181.03
-136.36
-82.24
-26.49
23.76
63.85
92.35
110.36
120.15
123.79
122.65
117.58
109.39
99.43
89.43
81.18
75.85
73.73
74.13
75.96
78.07
79.69
80.47
80.21
78.54
74.73
67.69
56.34
40.1
19.34
-4.59
-29.51
-53.06
-73.44
-89.9
-103.15
-114.93
-127.56
-143.17
-163.0
-186.97
-213.4
-238.93
-258.86
-268.08
-262.26
-239.26
-200.16
-149.3
-93.26
-39.19
7.01
42.02
65.21
77.97
82.74
82.04
78.0
72.44
66.91
62.71
60.86
61.84
65.43
70.77
76.62
81.81
85.58
87.77
88.73
88.97
88.72
87.62
84.8
79.24
70.4
58.63
45.16
31.61
19.25
8.36
-1.83
-12.88
-26.47
-43.9
-65.64
-90.94
-117.53
-141.49
-157.83
-161.52
-149.18
-120.46
-78.59
-29.52
19.93
64.0
99.19
124.48
140.34
147.95
148.49
143.32
134.26
123.71
114.3
108.11
106.07
107.64
110.95
113.48
112.97
108.09
98.81
86.25
72.05
57.7
43.8
29.9
14.86
-2.36
-22.04
-43.26
-64.35
-83.48
-99.53
-112.61
-124.05
-135.84
-150.0
-167.85
-189.53
-213.62
-237.09
-255.69
-264.91
-261.27
-243.56
-213.63
-176.04
-136.79
-101.64
-74.57
-57.12
-48.59
-46.9
-49.5
-54.1
-58.96
-62.79
-64.71
-64.14
-60.79
-54.71
-46.2
-35.83
-24.35
-12.58
-1.23
8.98
17.47
23.71
27.15
27.42
24.34
18.09
9.22
-1.36
-12.69
-23.89
-34.5
-44.74
-55.43
-67.87
-83.12
-101.19
-120.48
-137.76
-148.84
-149.99
-139.22
-116.69
-84.58
-46.09
-4.52
37.11
76.11
109.91
136.01
152.55
158.98
156.36
147.2
134.67
121.58
109.82
100.22
92.85
87.45
83.81
81.84
81.36
82.09
83.29
83.92
82.73
78.7
71.42
61.25
49.18
36.51
24.33
13.09
2.52
-8.27
-20.53
-35.34
-53.11
-73.13
-93.04
-109.08
-116.86
-112.64
-94.62
-63.87
-24.16
19.1
60.46
95.82
123.1
141.96
153.25
158.09
157.6
152.76
144.59
134.41
123.73
114.07
106.76
102.6
101.8
103.92
108.1
113.22
118.11
121.73
123.21
121.97
117.83
111.18
103.04
94.72
87.3
80.76
73.66
63.21
46.23
20.31
-15.05
-57.69
-102.96
-144.4
-175.12
-189.28
-183.44
-157.43
-114.51
-60.57
-2.72
52.38
99.8
137.0
163.62
180.83
190.65
195.3
196.89
197.04
196.54
195.16
191.71
184.55
172.24
154.32
131.5
105.5
78.43
51.98
27.12
4.12
-17.19
-36.88
-54.73
-70.3
-83.17
-93.26
-100.97
-107.2
-113.14
-120.07
-128.89
-139.5
-150.37
-158.45
-159.76
-150.5
-128.44
-94.03
-50.55
-3.32
41.81
79.94
108.05
125.08
131.46
128.47
117.72
101.02
80.36
57.8
35.29
14.47
-3.65
-18.67
-30.61
-39.84
-46.79
-51.99
-56.05
-59.66
-63.59
-68.44
-74.6
-82.01
-90.32
-98.98
-107.59
-115.92
-124.11
-132.62
-142.13
-153.38
-166.73
-181.68
-196.42
-207.79
-211.98
-205.6
-187.08
-157.42
-120.15
-80.22
-42.48
-10.43
14.54
32.71
45.39
53.98
59.51
62.58
63.58
63.02
61.59
60.18
59.53
60.11
61.97
64.84
68.19
71.39
73.91
75.32
75.24
73.39
69.63
64.01
56.87
48.67
39.92
30.98
21.92
12.27
1.26
-11.92
-27.48
-44.46
-60.44
-72.0
-75.62
-68.97
-51.86
-26.46
3.33
33.11
59.25
79.58
93.51
101.48
104.38
103.1
98.44
91.13
82.1
72.38
63.1
55.23
49.37
45.68
43.95
43.72
44.38
45.31
45.95
45.74
44.18
40.89
35.64
28.54
19.94
10.39
0.47
-9.43
-19.39
-29.92
-41.76
-55.52
-70.92
-86.42
-99.17
-105.76
-103.27
-90.44
-68.3
-39.92
-9.54
18.73
41.94
58.71
69.03
73.7
73.73
70.13
63.79
55.65
46.81
38.41
31.49
26.84
24.76
25.02
26.98
29.77
32.43
34.13
34.27
32.55
28.94
23.7
17.25
10.09
2.71
-4.59
-11.75
-18.97
-26.76
-35.72
-46.21
-57.88
-69.33
-78.04
-80.99
-75.52
-60.4
-36.45
-6.41
25.81
56.4
82.54
102.86
117.28
126.48
131.4
132.97
132.18
130.08
127.83
126.56
127.1
129.85
134.7
141.26
148.98
157.43
166.4
175.93
186.17
197.19
208.68
219.9
229.55
235.94
237.33
232.31
220.17
201.11
176.3
147.74
117.87
89.1
63.34
41.59
23.91
9.37
-3.63
-17.23
-33.73
-55.0
-81.81
-113.0
-145.24
-173.62
-193.34
-201.49
-198.37
-187.3
-173.3
-161.03
-153.18
-150.08
-150.4
-152.38
-154.84
-157.33
-159.77
-161.85
-162.91
-162.15
-159.09
-154.06
-148.08
-142.5
-138.4
-136.19
-135.38
-134.91
-133.55
-130.52
-125.83
-120.27
-115.12
-111.82
-111.57
-114.9
-121.41
-129.49
-136.43
-138.92
-133.96
-119.98
-97.5
-69.18
-38.99
-10.85
12.46
29.95
42.16
50.49
56.37
60.75
64.04
66.4
67.99
69.07
69.97
70.8
71.41
71.41
70.39
68.13
64.74
60.55
55.83
50.55
44.12
35.5
23.54
7.51
-12.51
-35.43
-59.26
-81.65
-100.49
-114.66
-124.13
-130.02
-134.14
-138.43
-144.32
-152.29
-161.43
-169.47
-173.25
-169.51
-155.99
-132.42
-100.71
-64.43
-27.75
5.84
34.24
56.83
73.98
86.28
94.13
97.82
97.76
94.87
90.53
86.27
83.36
82.4
83.2
84.99
86.86
88.12
88.59
88.53
88.37
88.32
88.09
86.91
83.76
77.83
68.81
57.13
43.76
29.84
16.35
3.74
-8.09
-19.72
-31.99
-45.88
-62.13
-80.81
-100.93
-120.19
-135.38
-143.01
-140.51
-127.16
-104.46
-75.73
-45.06
-16.21
8.18
26.82
39.44
46.41
48.4
46.33
41.31
34.51
27.05
19.73
12.89
6.56
0.54
-5.2
-10.44
-14.58
-16.91
-16.76
-13.92
-8.85
-2.7
2.87
6.22
6.28
2.88
-3.27
-10.82
-18.49
-25.49
-31.73
-37.78
-44.59
-53.05
-63.63
-75.92
-88.51
-99.01
-104.49
-102.27
-90.93
-70.85
-44.22
-14.53
14.59
40.09
60.12
74.0
81.89
84.35
82.22
76.56
68.55
59.58
50.87
43.38
37.73
34.15
32.57
32.8
34.44
36.97
39.76
42.01
42.89
41.69
37.94
31.58
23.0
12.96
2.42
-7.71
-16.89
-25.07
-32.82
-41.11
-50.97
-62.93
-76.53
-89.98
-100.36
-104.4
-99.41
-84.48
-60.83
-31.56
-0.78
27.62
50.84
67.61
77.88
82.41
82.17
78.2
71.52
63.18
54.31
45.95
38.94
33.78
30.66
29.43
29.76
31.21
33.18
35.02
36.02
35.52
33.0
28.3
21.56
13.33
4.31
-4.85
-13.67
-22.12
-30.6
-39.87
-50.79
-63.74
-78.13
-92.01
-102.4
-105.89
-99.92
-83.8
-59.04
-28.98
2.26
30.95
54.65
72.21
83.54
89.11
89.59
85.82
78.91
70.24
61.28
53.36
47.28
43.29
41.11
40.17
39.99
40.17
40.49
40.69
40.4
38.99
35.76
30.18
22.18
12.28
1.44
-9.26
-18.99
-27.49
-35.15
-42.84
-51.63
-62.47
-75.63
-90.27
-104.34
-114.73
-118.08
-111.87
-95.37
-70.12
-39.54
-7.82
21.22
45.06
62.68
74.15
80.07
81.23
78.41
72.48
64.54
55.88
47.74
41.04
36.21
33.16
31.52
30.89
30.9
31.36
31.99
32.36
31.82
29.63
25.26
18.62
10.14
0.63
-8.99
-18.12
-26.59
-34.72
-43.2
-52.83
-64.12
-76.85
-89.74
-100.39
-105.78
-103.14
-90.93
-69.56
-41.44
-10.33
19.79
45.78
65.92
79.81
87.92
91.02
89.86
85.23
78.03
69.46
60.9
53.53
48.14
44.9
43.5
43.44
44.32
45.89
48.01
50.39
52.36
52.98
51.34
47.0
40.22
32.02
23.74
16.53
10.98
6.86
3.3
-0.93
-6.93
-15.26
-25.41
-35.73
-43.5
-45.5
-39.09
-23.09
1.52
31.86
64.0
94.27
120.27
141.36
158.26
172.09
183.47
191.9
195.93
193.83
184.39
167.43
143.93
115.69
84.82
53.34
22.93
-5.03
-29.35
-49.17
-64.13
-74.69
-82.07
-88.04
-94.35
-102.24
-112.13
-123.61
-135.84
-147.82
-158.82
-168.54
-177.06
-184.72
-191.9
-198.62
-204.3
-207.49
-205.94
-197.2
-179.51
-152.66
-118.32
-79.83
-41.22
-6.13
23.08
45.58
61.7
72.22
77.86
79.12
76.51
70.88
63.59
56.33
50.66
47.51
46.96
48.35
50.66
53.01
55.01
56.57
57.85
58.79
59.0
57.9
54.99
50.07
43.45
35.83
28.11
21.07
15.14
10.31
6.08
1.49
-4.66
-13.46
-25.33
-39.62
-54.45
-67.13
-74.98
-76.21
-70.58
-59.35
-44.74
-29.14
-14.52
-2.18
7.12
12.92
14.98
13.37
8.72
2.26
-4.42
-9.83
-13.03
-13.93
-13.19
-11.92
-11.15
-11.42
-12.57
-13.96
-14.75
-14.45
-13.15
-11.54
-10.66
-11.41
-14.22
-18.86
-24.61
-30.61
-36.24
-41.36
-46.37
-52.02
-59.15
-68.36
-79.7
-92.34
-104.41
-113.29
-116.1
-110.64
-96.24
-74.08
-46.97
-18.46
8.13
30.55
47.75
59.63
66.46
68.62
66.56
60.99
53.05
44.25
36.1
29.73
25.61
23.45
22.5
21.93
21.13
19.85
18.17
16.23
14.07
11.47
8.02
3.34
-2.7
-9.84
-17.42
-24.63
-30.76
-35.6
-39.44
-43.1
-47.64
-54.04
-62.9
-74.04
-86.21
-97.1
-103.76
-103.3
-93.91
-75.57
-50.21
-21.12
8.05
34.34
56.06
72.77
84.82
92.69
96.79
97.38
94.86
89.9
83.51
76.63
69.95
63.66
57.55
51.33
44.88
38.42
32.36
27.05
22.47
18.1
13.09
6.51
-2.09
-12.55
-24.06
-35.42
-45.41
-53.24
-58.74
-62.43
-65.42
-69.07
-74.57
-82.4
-91.82
-100.79
-106.28
-105.14
-95.26
-76.52
-50.95
-22.22
5.54
29.01
46.34
57.26
62.53
63.19
60.13
54.04
45.66
36.05
26.61
18.8
13.68
11.56
11.92
13.7
15.8
17.52
18.79
19.9
21.13
22.22
22.43
20.69
16.15
8.72
-0.87
-11.27
-21.04
-29.2
-35.56
-40.67
-45.56
-51.37
-58.99
-68.81
-80.42
-92.39
-102.3
-107.15
-104.14
-91.73
-70.3
-42.26
-11.43
18.15
43.39
62.71
76.0
84.04
87.75
87.79
84.63
78.79
71.19
63.17
56.17
51.33
49.05
48.91
49.93
51.1
51.76
51.79
51.45
50.91
50.0
48.13
44.56
38.78
30.82
21.24
10.91
0.61
-9.21
-18.52
-27.63
-37.06
-47.36
-59.07
-72.45
-87.26
-102.31
-115.34
-123.29
-123.1
-112.73
-91.98
-62.78
-28.58
6.63
39.43
67.59
90.12
106.88
118.02
123.82
124.7
121.39
115.06
107.27
99.52
92.94
88.02
84.59
82.04
79.65
76.9
73.65
70.03
66.31
62.45
58.08
52.49
44.82
34.53
21.7
7.07
-8.09
-22.43
-34.96
-45.36
-54.05
-61.93
-70.12
-79.62
-90.85
-103.33
-115.53
-124.92
-128.48
-123.74
-109.61
-86.94
-58.49
-28.03
0.7
25.01
43.64
56.57
64.42
67.92
67.68
64.26
58.4
51.16
43.86
37.71
33.56
31.63
31.49
32.42
33.69
34.87
35.91
36.98
38.14
39.09
39.14
37.41
33.25
26.56
17.89
8.28
-1.12
-9.56
-16.91
-23.69
-30.83
-39.22
-49.46
-61.52
-74.65
-87.36
-97.5
-102.63
-100.6
-90.26
-71.87
-47.19
-19.05
9.52
35.97
58.77
77.28
91.49
101.56
107.63
109.92
108.91
105.55
101.16
97.14
94.65
94.24
95.77
98.51
101.53
104.15
106.04
107.31
108.05
107.98
106.3
101.92
93.89
81.99
66.84
49.6
31.45
12.92
-6.25
-26.91
-49.97
-75.88
-104.27
-133.82
-162.34
-186.84
-203.95
-210.52
-204.58
-186.08
-157.29
-122.28
-85.87
-52.3
-24.13
-2.07
14.59
27.24
37.18
45.3
52.23
58.52
64.74
71.36
78.44
85.44
91.43
95.34
96.47
94.74
90.54
84.4
76.41
66.1
52.62
35.31
14.33
-9.14
-33.07
-55.22
-73.92
-88.64
-100.02
-109.59
-119.12
-130.07
-143.11
-157.74
-172.06
-183.03
-186.97
-180.57
-162.08
-132.0
-93.25
-50.4
-8.41
28.63
58.14
79.06
91.3
95.3
91.76
81.79
66.99
49.47
31.48
14.95
1.14
-9.5
-17.15
-22.36
-25.64
-27.39
-27.88
-27.46
-26.77
-26.72
-28.44
-32.88
-40.49
-50.88
-62.85
-74.68
-84.7
-91.83
-95.9
-97.76
-99.01
-101.48
-106.51
-114.41
-124.01
-132.71
-137.14
-134.12
-121.85
-100.52
-72.43
-41.14
-10.54
16.29
37.55
52.67
61.97
66.03
65.52
61.25
54.26
45.87
37.53
30.56
25.69
23.0
21.91
21.48
20.88
19.69
17.95
15.99
14.07
12.05
9.36
5.25
-0.82
-8.8
-18.02
-27.33
-35.61
-42.11
-46.71
-49.9
-52.55
-55.65
-60.0
-65.86
-72.56
-78.34
-80.58
-76.52
-64.28
-43.73
-16.77
13.19
42.27
67.35
86.78
100.28
108.39
111.79
110.97
106.33
98.49
88.61
78.19
68.79
61.49
56.61
53.77
52.17
51.1
50.15
49.36
48.84
48.54
47.94
46.12
41.99
34.86
24.74
12.44
-0.6
-12.94
-23.56
-32.25
-39.61
-46.78
-55.13
-65.71
-78.83
-93.65
-108.14
-119.18
-123.32
-117.77
-101.47
-75.67
-43.69
-10.03
20.96
46.11
63.92
74.44
78.56
77.49
72.39
64.36
54.61
44.49
35.18
27.64
22.24
18.79
16.77
15.61
14.96
14.76
15.04
15.61
15.94
15.22
12.62
7.68
0.59
-7.89
-16.62
-24.55
-31.09
-36.29
-40.8
-45.77
-52.41
-61.59
-73.23
-85.91
-96.85
-102.45
-99.29
-85.35
-60.88
-28.45
7.77
43.24
74.28
98.73
116.0
126.59
131.47
131.57
127.78
120.98
112.19
102.58
93.29
85.11
78.44
73.27
69.34
66.43
64.42
63.1
62.12
60.72
57.79
52.12
42.82
29.72
13.55
-4.26
-22.11
-38.66
-53.27
-66.27
-78.61
-91.46
-105.42
-119.85
-132.56
-140.08
-138.55
-125.04
-98.72
-61.42
-17.13
29.07
72.57
110.21
140.58
163.63
179.95
190.31
195.42
196.16
193.7
189.39
184.46
179.73
175.4
171.11
166.26
160.26
152.67
143.14
131.36
116.91
99.35
78.41
54.16
27.28
-1.07
-29.42
-56.34
-80.86
-102.54
-121.66
-139.02
-155.74
-172.91
-191.24
-210.42
-228.74
-243.03
-249.09
-243.07
-222.9
-189.45
-146.68
-100.68
-57.88
-23.36
0.1
12.07
13.79
7.41
-4.72
-20.15
-36.48
-51.52
-63.49
-71.35
-74.92
-74.67
-71.37
-65.65
-57.89
-48.32
-37.33
-25.78
-15.12
-7.16
-3.63
-5.6
-13.14
-25.23
-40.04
-55.47
-69.79
-82.02
-92.22
-101.33
-110.79
-121.97
-135.4
-150.26
-164.1
-173.29
-173.91
-163.06
-139.91
-106.27
-66.08
-24.29
14.57
47.44
73.02
91.39
103.29
109.55
110.91
108.24
102.75
96.05
89.77
85.14
82.59
81.65
81.4
80.9
79.71
78.01
76.31
75.07
74.2
73.03
70.48
65.51
57.76
47.6
36.14
24.63
14.02
4.54
-4.37
-13.76
-24.84
-38.46
-54.72
-72.58
-89.76
-102.98
-108.67
-104.03
-88.02
-61.96
-29.29
5.39
37.61
64.11
83.28
94.95
99.82
98.95
93.44
84.66
74.15
63.57
54.49
47.9
44.05
42.46
42.28
42.6
42.88
42.97
42.87
42.49
41.4
38.78
33.79
25.91
15.16
2.3
-11.44
-24.82
-36.93
-47.55
-57.26
-67.32
-79.2
-94.1
-112.19
-132.15
-151.07
-164.92
-169.77
-162.98
-144.23
-115.68
-81.45
-46.23
-14.12
12.18
31.65
44.46
51.34
53.29
51.33
46.65
40.7
35.04
30.99
29.41
30.39
33.37
37.55
42.19
46.86
51.33
55.33
58.35
59.7
58.67
54.96
48.81
41.07
32.88
25.33
19.03
13.89
9.15
3.54
-4.24
-14.88
-27.84
-41.04
-51.16
-54.49
-48.12
-31.07
-4.81
27.23
60.6
91.15
115.95
133.42
143.13
145.2
139.93
127.96
110.47
89.26
66.73
45.23
26.52
11.31
-0.67
-10.2
-17.94
-23.97
-27.89
-29.21
-27.97
-25.08
-22.19
-21.16
-23.38
-29.18
-37.89
-48.16
-58.59
-68.16
-76.45
-83.53
-89.86
-96.08
-102.82
-110.45
-118.58
-125.77
-129.58
-127.11
-116.1
-95.96
-68.14
-35.79
-2.66
28.01
54.32
75.69
92.46
105.3
114.84
121.7
126.51
130.11
133.37
136.95
141.08
145.54
149.74
153.06
155.09
155.79
155.38
154.11
151.96
148.4
142.49
133.2
119.9
102.74
82.67
61.24
40.01
20.08
1.78
-15.41
-32.49
-50.58
-70.25
-91.1
-111.36
-128.19
-138.26
-138.81
-128.62
-108.64
-81.73
-51.9
-23.15
1.51
20.46
33.33
40.51
42.76
40.92
35.96
29.0
21.28
14.08
8.33
4.49
2.53
2.06
2.6
3.77
5.31
7.01
8.51
9.28
8.63
5.95
0.95
-6.18
-14.84
-24.15
-33.31
-41.8
-49.56
-57.02
-64.97
-74.32
-85.71
-99.0
-112.86
-124.74
-131.34
-129.65
-117.99
-96.82
-68.79
-37.9
-8.34
16.69
35.56
48.15
55.22
57.84
57.0
53.5
48.07
41.46
34.44
27.69
21.74
16.92
13.36
11.1
10.08
10.16
11.0
12.03
12.48
11.46
8.2
2.29
-6.17
-16.57
-27.98
-39.54
-50.71
-61.58
-72.85
-85.43
-99.88
-115.83
-131.61
-144.37
-150.84
-148.33
-135.78
-114.25
-86.63
-56.81
-28.6
-4.75
13.27
25.28
31.89
33.98
32.57
28.66
23.29
17.53
12.35
8.55
6.62
6.66
8.4
11.39
14.97
18.53
21.52
23.49
24.16
23.38
21.11
17.46
12.68
7.07
0.96
-5.48
-12.31
-19.91
-28.82
-39.52
-51.82
-64.44
-74.98
-80.41
-78.03
-66.51
-46.52
-20.62
7.46
34.04
56.34
72.97
83.77
89.34
90.52
88.14
82.92
75.67
67.25
58.64
50.74
44.26
39.54
36.58
35.06
34.45
34.13
33.52
32.05
29.27
24.94
19.08
11.98
4.14
-3.87
-11.61
-18.9
-25.93
-33.27
-41.67
-51.77
-63.64
-76.34
-87.8
-95.14
-95.37
-86.53
-68.46
-43.0
-13.54
16.01
42.31
63.25
78.05
86.99
90.81
90.37
86.53
80.17
72.25
63.75
55.54
48.19
42.0
37.0
33.16
30.4
28.63
27.6
26.88
25.83
23.75
20.19
15.1
8.89
2.21
-4.23
-10.0
-15.03
-19.61
-24.35
-30.03
-37.35
-46.65
-57.38
-67.95
-75.75
-77.81
-71.84
-57.19
-35.23
-8.96
17.94
42.38
62.44
77.55
87.98
94.28
96.88
96.07
92.27
86.15
78.76
71.21
64.4
58.78
54.32
50.75
47.77
45.21
43.03
41.16
39.33
37.01
33.52
28.25
20.98
11.98
1.96
-8.24
-17.91
-26.71
-34.76
-42.57
-50.94
-60.62
-71.9
-84.23
-96.0
-104.64
-107.33
-101.87
-87.57
-65.62
-38.85
-10.84
15.15
36.89
53.43
64.8
71.46
74.0
72.92
68.87
62.68
55.45
48.3
42.16
37.5
34.33
32.36
31.21
30.66
30.56
30.82
31.15
31.04
29.84
26.91
21.91
14.96
6.6
-2.38
-11.14
-19.18
-26.42
-33.26
-40.49
-48.98
-59.34
-71.41
-84.04
-95.05
-101.69
-101.42
-92.8
-76.07
-53.19
-27.33
-1.88
20.38
37.8
49.88
56.89
59.47
58.3
54.16
47.88
40.46
32.98
26.36
21.17
17.62
15.53
14.54
14.31
14.6
15.19
15.9
16.31
15.9
14.09
10.53
5.2
-1.44
-8.73
-15.97
-22.73
-29.01
-35.18
-41.9
-49.82
-59.29
-69.99
-80.75
-89.5
-93.73
-91.16
-80.65
-62.72
-39.49
-14.13
10.11
30.76
46.52
57.17
63.12
65.02
63.49
59.2
52.97
45.83
38.93
33.23
29.33
27.31
26.83
27.33
28.26
29.24
30.05
30.43
30.0
28.26
24.62
18.79
10.95
1.87
-7.42
-15.89
-23.05
-28.97
-34.31
-40.0
-46.99
-55.77
-66.18
-77.13
-86.61
-92.07
-91.08
-82.14
-65.34
-42.51
-16.68
8.75
31.05
48.72
61.49
69.88
74.6
76.28
75.31
72.16
67.41
61.89
56.45
51.68
47.84
44.78
42.17
39.69
37.22
34.76
32.27
29.57
26.17
21.54
15.27
7.38
-1.63
-10.9
-19.55
-27.03
-33.31
-38.92
-44.76
-51.76
-60.53
-70.96
-81.93
-91.42
-96.86
-95.87
-87.17
-71.08
-49.56
-25.62
-2.44
17.55
33.07
43.9
50.45
53.27
52.82
49.58
44.2
37.65
31.09
25.61
21.86
19.96
19.46
