-50.14
-53.81
-56.12
-57.15
-58.14
-61.03
-67.6
-78.57
-93.33
-110.08
-126.54
-140.77
-151.8
-159.85
-166.23
-172.79
-181.39
-193.41
-209.19
-227.56
-245.7
-259.15
-262.62
-251.5
-223.57
-180.24
-126.74
-70.71
-19.92
19.88
46.3
59.98
63.34
59.14
49.56
36.16
20.5
4.48
-9.76
-20.49
-27.03
-29.88
-30.29
-29.31
-27.27
-23.54
-17.13
-7.49
4.92
18.31
30.0
37.26
38.25
32.57
21.37
6.92
-8.28
-22.27
-34.19
-44.38
-54.07
-64.87
-78.36
-95.7
-117.2
-141.89
-167.14
-188.61
-200.93
-199.09
-180.06
-144.17
-95.37
-40.26
13.68
60.2
95.56
118.83
131.22
134.9
132.02
124.36
113.31
100.26
86.85
74.83
65.63
60.03
57.82
58.05
59.38
60.72
61.37
61.18
60.15
58.04
54.25
47.89
38.13
24.65
7.88
-10.99
-30.27
-48.23
-63.55
-75.73
-85.17
-93.11
-101.31
-111.68
-125.69
-143.76
-164.66
-185.32
-201.16
-207.19
-199.43
-176.08
-138.21
-89.42
-34.81
20.25
71.09
114.56
149.04
174.45
191.67
202.12
207.17
207.79
204.46
197.35
186.74
173.23
157.8
141.44
124.85
108.31
91.8
75.38
59.46
44.89
32.56
23.01
15.95
10.2
4.04
-4.09
-14.94
-28.06
-42.01
-55.06
-65.98
-74.41
-80.95
-86.82
-93.5
-102.47
-115.07
-132.09
-153.17
-176.06
-196.42
-208.62
-207.42
-190.12
-157.83
-115.5
-70.23
-28.98
3.52
25.54
37.71
41.88
39.83
33.0
22.67
10.43
-1.8
-12.21
-19.79
-24.83
-28.63
-32.87
-38.71
-46.35
-55.07
-64.0
-72.83
-82.11
-92.93
-106.16
-121.63
-137.77
-152.0
-161.58
-164.59
-160.7
-151.16
-138.44
-125.52
-115.26
-110.02
-111.27
-119.22
-132.5
-148.08
-161.72
-169.07
-166.94
-154.22
-132.09
-103.22
-70.48
-35.91
-0.39
35.75
71.61
105.15
133.38
153.35
163.46
164.21
158.05
148.39
138.41
130.23
124.73
121.9
121.44
123.12
126.64
131.4
136.23
139.47
139.32
134.53
124.83
111.17
95.38
79.46
64.81
51.85
39.94
27.75
13.81
-2.96
-22.79
-44.67
-66.27
-84.09
-94.17
-93.05
-78.93
-52.42
-16.54
24.13
64.65
100.96
130.53
152.34
166.34
172.98
172.83
166.54
155.09
139.9
122.85
106.05
91.46
80.53
73.9
71.42
72.19
74.83
77.73
79.37
78.53
74.55
67.35
57.4
45.67
33.26
21.17
9.95
-0.43
-10.62
-21.71
-34.7
-50.01
-66.71
-82.4
-93.37
-95.63
-86.25
-64.52
-32.54
5.37
43.82
78.01
104.82
123.16
133.67
137.77
136.91
132.26
124.69
115.09
104.45
93.85
84.16
75.92
69.14
63.37
57.9
52.08
45.38
37.53
28.58
18.8
8.8
-0.8
-9.59
-17.63
-25.51
-34.26
-45.01
-58.63
-75.65
-96.04
-119.14
-143.34
-165.87
-182.87
-190.08
-183.99
-163.13
-128.94
-85.54
-38.74
5.75
43.72
73.11
93.87
107.25
114.82
117.87
117.17
113.07
105.71
95.38
82.58
68.2
53.54
40.12
29.39
22.35
19.22
19.35
21.51
24.17
26.01
26.19
24.46
21.01
16.23
10.49
3.95
-3.5
-12.39
-23.47
-37.36
-53.92
-71.69
-87.69
-97.97
-98.71
-87.61
-64.91
-33.42
2.24
37.06
66.96
89.59
104.33
111.81
113.2
109.76
102.67
92.95
81.57
69.55
57.84
47.23
38.28
31.26
26.14
22.65
20.33
18.62
16.9
14.64
11.47
7.18
1.82
-4.45
-11.41
-18.97
-27.26
-36.7
-47.9
-61.39
-77.07
-93.8
-109.16
-119.79
-122.28
-114.27
-95.4
-67.65
-34.73
-1.0
29.64
54.68
73.19
85.4
92.2
94.59
93.41
89.32
82.94
74.85
65.75
56.4
47.54
39.75
33.41
28.57
24.98
22.17
19.56
16.63
13.0
8.42
2.8
-3.85
-11.47
-19.94
-29.14
-39.12
-50.09
-62.46
-76.52
-91.9
-107.24
-120.02
-127.1
-125.69
-114.41
-93.97
-67.08
-37.68
-9.7
13.9
31.59
43.18
49.25
50.64
48.23
42.91
35.61
27.55
19.95
13.9
10.16
8.97
10.03
12.65
15.96
19.13
21.65
23.26
23.97
23.89
22.99
21.19
18.26
14.0
8.27
0.94
-8.14
-19.1
-31.84
-45.63
-58.83
-68.93
-73.1
-69.12
-56.22
-35.64
-10.27
16.19
40.31
59.79
73.8
82.57
86.91
87.61
85.25
80.24
73.1
64.58
55.66
47.29
40.18
34.61
30.34
26.8
23.35
19.47
15.0
10.09
5.09
0.31
-4.11
-8.28
-12.46
-17.0
-22.18
-28.34
-35.78
-44.72
-54.95
-65.59
-74.81
-80.13
-79.08
-70.13
-53.44
-30.87
-5.57
19.01
40.09
56.13
66.85
72.82
74.82
73.54
69.39
62.72
53.98
43.94
33.56
23.82
15.53
9.03
4.21
0.61
-2.41
-5.37
-8.53
-11.94
-15.49
-19.06
-22.66
-26.52
-30.93
-36.18
-42.43
-49.74
-58.07
-67.16
-76.32
-84.15
-88.71
-87.77
-79.72
-64.26
-42.74
-17.9
6.96
28.95
46.36
58.74
66.62
70.79
71.9
70.33
66.34
60.33
52.94
45.07
37.64
31.34
26.48
22.95
20.34
18.13
15.9
13.42
10.69
7.84
5.03
2.31
-0.43
-3.37
-6.82
-11.11
-16.58
-23.57
-32.24
-42.25
-52.51
-61.04
-65.33
-63.16
-53.43
-36.78
-15.54
6.99
27.58
43.99
55.33
61.92
64.61
64.2
61.15
55.67
48.0
38.65
28.53
18.76
10.47
4.43
0.88
-0.57
-0.72
-0.57
-1.03
-2.67
-5.61
-9.69
-14.57
-19.91
-25.49
-31.25
-37.23
-43.57
-50.55
-58.39
-67.18
-76.39
-84.72
-90.09
-90.23
-83.37
-69.15
-48.8
-24.95
-0.83
20.68
37.72
49.66
56.78
59.83
59.62
56.83
52.03
45.76
38.66
31.41
24.66
18.87
14.29
10.87
8.35
6.37
4.52
2.49
0.04
-2.93
-6.46
-10.49
-14.9
-19.58
-24.43
-29.43
-34.64
-40.4
-47.14
-55.24
-64.56
-74.18
-82.26
-86.33
-84.14
-74.4
-57.44
-35.22
-10.75
12.79
32.89
48.19
58.41
63.99
65.61
63.99
59.74
53.47
45.89
37.7
29.57
22.12
15.73
10.66
7.03
4.82
3.84
3.72
3.93
3.82
2.87
0.75
-2.57
-6.81
-11.6
-16.55
-21.49
-26.57
-32.26
-39.16
-47.74
-57.82
-68.23
-76.82
-80.9
-78.07
-67.17
-48.82
-25.42
-0.4
22.82
41.74
55.21
63.25
66.56
66.01
62.33
56.11
47.92
38.44
28.49
18.92
10.43
3.51
-1.64
-5.14
-7.29
-8.55
-9.42
-10.39
-11.84
-14.01
-16.97
-20.64
-24.84
-29.29
-33.8
-38.33
-43.11
-48.63
-55.43
-63.69
-72.82
-81.24
-86.56
-86.24
-78.52
-63.13
-41.56
-16.71
8.08
29.92
47.01
58.8
65.56
67.95
66.62
62.1
54.89
45.65
35.31
24.9
15.49
7.86
2.43
-0.8
-2.27
-2.63
-2.64
-2.95
-3.95
-5.71
-8.16
-11.16
-14.62
-18.57
-23.16
-28.59
-35.15
-43.13
-52.72
-63.62
-74.83
-84.41
-89.84
-88.7
-79.61
-62.89
-40.56
-15.86
7.88
28.05
43.29
53.39
58.84
60.22
58.0
52.52
44.22
33.97
22.95
12.62
4.21
-1.48
-4.37
-5.05
-4.54
-3.88
-3.83
-4.69
-6.37
-8.58
-11.14
-14.02
-17.48
-21.88
-27.59
-34.91
-44.05
-55.05
-67.46
-80.14
-91.08
-97.7
-97.5
-89.04
-72.55
-50.09
-24.98
-0.77
19.81
35.25
45.27
50.31
50.91
47.54
40.55
30.44
18.06
4.67
-8.34
-19.69
-28.59
-34.81
-38.77
-41.28
-43.29
-45.52
-48.28
-51.33
-54.04
-55.71
-55.82
-54.27
-51.44
-47.95
-44.55
-41.81
-39.99
-38.85
-37.54
-34.49
-27.66
-15.05
4.58
30.95
62.08
94.64
124.81
149.38
166.47
175.63
177.47
173.07
163.36
149.11
131.13
110.46
88.59
67.21
47.87
31.57
18.62
8.5
0.25
-7.2
-14.66
-22.39
-30.03
-36.91
-42.27
-45.74
-47.49
-48.16
-48.75
-50.29
-53.56
-59.02
-66.67
-75.71
-84.56
-90.82
-91.84
-85.6
-71.59
-51.17
-27.33
-3.68
16.75
32.25
42.66
48.82
51.78
52.28
50.64
46.99
41.68
35.52
29.59
24.99
22.36
21.73
22.48
23.57
23.93
22.78
19.78
15.06
9.05
2.28
-4.74
-11.71
-18.5
-25.17
-31.89
-38.99
-46.86
-55.78
-65.53
-75.01
-82.22
-84.7
-80.28
-68.07
-48.88
-25.18
-0.23
22.83
41.94
56.27
65.92
71.47
73.55
72.58
68.95
63.14
55.81
47.77
39.89
32.93
27.34
23.21
20.23
17.91
15.71
13.27
10.5
7.52
4.51
1.55
-1.46
-4.78
-8.71
-13.58
-19.72
-27.46
-37.06
-48.45
-60.88
-72.7
-81.38
-84.07
-78.61
-64.34
-42.57
-16.3
10.7
34.95
54.18
67.57
75.39
78.43
77.46
73.06
65.76
56.28
45.63
35.15
26.12
19.46
15.54
14.03
14.16
14.94
15.47
15.12
13.61
10.99
7.46
3.27
-1.38
-6.36
-11.66
-17.31
-23.51
-30.52
-38.69
-48.06
-58.01
-66.97
-72.55
-72.08
-63.57
-46.71
-23.14
3.86
30.39
53.16
70.25
81.22
86.66
87.47
84.38
77.85
68.28
56.44
43.51
30.99
20.29
12.26
7.07
4.14
2.51
1.12
-0.77
-3.53
-7.16
-11.45
-16.25
-21.52
-27.4
-34.13
-41.93
-51.04
-61.66
-73.96
-87.82
-102.55
-116.54
-127.33
-132.16
-128.88
-116.83
-97.32
-73.26
-48.15
-24.98
-5.36
10.51
23.41
34.25
43.6
51.53
57.92
62.83
66.68
70.23
74.25
79.24
85.16
91.45
97.21
101.6
103.97
104.07
102.07
98.32
93.21
87.01
79.83
71.61
62.35
52.16
41.17
29.54
17.36
4.87
-7.21
-17.4
-23.6
-23.55
-15.68
0.18
22.44
48.21
74.2
97.56
116.46
129.98
137.69
139.26
134.4
123.12
106.14
85.13
62.42
40.53
21.48
6.47
-4.28
-11.31
-15.5
-17.89
-19.38
-20.76
-22.72
-25.78
-30.15
-35.77
-42.28
-49.1
-55.71
-61.8
-67.49
-73.23
-79.76
-87.71
-97.23
-107.57
-116.9
-122.6
-121.88
-112.75
-94.83
-69.68
-40.45
-10.98
15.34
36.24
50.87
59.43
62.59
61.17
55.96
47.85
37.96
27.64
18.15
10.41
4.82
1.13
-1.18
-2.78
-4.1
-5.34
-6.45
-7.48
-8.67
-10.58
-13.91
-19.18
-26.51
-35.45
-45.16
-54.72
-63.54
-71.52
-79.07
-86.98
-96.08
-106.91
-119.43
-132.67
-144.64
-152.52
-153.42
-145.2
-127.43
-101.58
-70.71
-38.58
-8.57
16.98
37.01
51.34
60.28
64.24
63.79
59.79
53.51
46.51
40.31
35.89
33.44
32.44
31.86
30.82
28.84
26.12
23.25
20.79
18.85
16.89
14.0
9.27
2.23
-6.9
-17.26
-27.79
-37.63
-46.44
-54.51
-62.49
-71.22
-81.44
-93.51
-107.15
-121.2
-133.56
-141.45
-142.1
-133.63
-115.83
-90.29
-60.06
-28.73
0.55
25.67
45.75
60.67
70.69
76.08
77.14
74.37
68.72
61.61
54.63
49.24
46.25
45.72
47.02
49.13
51.08
52.26
52.55
52.04
50.83
48.68
45.08
39.35
31.04
20.22
7.54
-5.83
-18.68
-30.09
-39.77
-48.01
-55.51
-62.99
-71.05
-79.84
-89.1
-98.01
-105.19
-108.88
-107.14
-98.54
-82.62
-60.34
-34.05
-6.93
17.92
38.26
53.06
62.45
67.22
68.26
66.33
61.99
55.88
48.87
42.12
36.8
33.69
33.01
34.28
36.59
39.03
40.93
42.09
42.73
43.15
43.47
43.49
42.64
40.2
35.63
28.7
19.7
9.33
-1.57
-12.28
-22.43
-32.05
-41.47
-51.19
-61.73
-73.4
-86.1
-99.09
-110.79
-118.85
-120.66
-114.16
-98.66
-75.35
-46.95
-17.02
11.12
35.17
54.11
67.78
76.51
80.7
80.72
77.15
71.0
63.69
56.86
51.86
49.41
49.46
51.3
53.91
56.36
58.17
59.32
60.17
61.02
61.89
62.33
61.59
58.81
53.44
45.47
35.48
24.51
13.6
3.57
-5.37
-13.53
-21.67
-30.68
-41.13
-52.93
-64.99
-75.21
-80.87
-79.38
-69.22
-50.46
-24.97
4.17
33.56
60.5
83.42
101.93
116.28
126.77
133.52
136.45
135.66
131.73
125.93
119.94
115.38
113.47
114.62
118.35
123.38
127.86
129.74
127.24
119.15
105.07
85.5
61.46
34.19
4.92
-25.21
-54.95
-82.95
-107.77
-128.18
-143.57
-154.14
-160.86
-165.2
-168.7
-172.55
-177.18
-182.0
-185.19
-184.07
-175.88
-158.75
-132.58
-99.42
-62.81
-26.63
6.08
33.83
56.59
75.02
89.74
100.92
108.46
112.48
113.76
113.81
114.49
117.46
123.72
133.47
146.16
160.8
176.3
191.7
206.35
219.93
232.33
243.58
253.59
262.13
268.72
272.68
273.23
269.64
261.35
248.06
229.86
207.22
181.04
152.47
122.7
92.59
62.57
32.85
3.93
-22.88
-45.35
-60.99
-68.22
-67.47
-61.58
-55.01
-52.26
-56.1
-66.89
-82.97
-102.01
-122.33
-143.43
-165.44
-188.13
-210.11
-228.93
-241.87
-247.05
-244.06
-233.9
-218.23
-198.67
-176.48
-152.7
-128.47
-105.24
-84.73
-68.58
-58.04
-53.87
-56.33
-65.43
-80.69
-101.14
-125.11
-150.31
-174.08
-194.06
-208.7
-217.71
-222.24
-224.53
-227.2
-232.16
-239.56
-247.16
-250.73
-245.25
-226.62
-193.14
-146.02
-89.15
-28.03
31.52
84.28
126.33
155.35
170.66
173.16
164.99
149.06
128.54
106.45
85.33
67.16
53.22
43.86
38.5
35.84
34.26
32.46
29.89
26.67
23.19
19.55
15.2
9.03
-0.11
-12.71
-28.18
-44.89
-60.82
-74.29
-84.64
-92.41
-99.02
-106.33
-116.05
-129.19
-145.6
-163.53
-179.5
-188.83
-186.83
-170.35
-139.2
-96.49
-47.87
0.2
42.31
75.31
98.47
112.69
119.45
120.0
115.24
105.96
93.31
78.95
64.92
53.12
44.84
40.43
39.25
40.08
41.52
42.54
42.63
41.88
40.5
38.68
36.22
32.43
26.42
17.36
4.99
-10.18
-26.88
-43.45
-58.4
-70.86
-80.85
-89.2
-97.23
-106.37
-117.82
-132.14
-148.8
-165.79
-179.48
-185.32
-179.06
-158.39
-124.09
-80.12
-32.47
12.61
50.42
78.67
97.28
107.48
110.66
107.75
99.34
86.08
69.31
50.99
33.51
18.85
8.12
1.26
-2.81
-5.53
-8.02
-10.73
-13.33
-15.12
-15.48
-14.33
-12.22
-10.23
-9.58
-11.11
-15.08
-21.02
-27.95
-34.79
-40.78
-45.81
-50.4
-55.5
-62.26
-71.63
-84.08
-99.13
-115.08
-128.85
-136.44
-134.06
-119.34
-92.43
-56.23
-15.47
24.69
60.11
88.36
108.58
120.77
125.13
121.73
110.87
93.53
71.68
48.09
25.82
7.51
-5.16
-11.59
-12.14
-7.75
0.41
11.16
23.38
35.89
47.28
56.0
60.56
59.86
53.73
42.95
29.2
14.52
0.7
-11.29
-21.49
-30.8
-40.63
-52.16
-65.89
-81.1
-95.7
-106.42
-109.46
-101.51
-80.81
-47.91
-5.65
41.41
88.22
130.33
164.66
189.72
205.29
212.0
210.88
203.24
190.6
174.69
157.44
140.69
125.89
113.84
104.51
97.2
90.96
84.94
78.81
72.8
67.3
62.5
58.03
53.05
46.49
37.79
27.16
15.63
4.71
-4.25
-10.63
-14.77
-17.88
-21.68
-27.84
-37.54
-50.93
-66.66
-81.75
-91.93
-92.65
-80.44
-54.34
-16.38
28.73
75.01
117.01
150.99
175.43
190.49
197.06
195.96
187.85
173.48
154.14
132.05
109.73
89.57
73.01
60.2
50.18
41.56
33.25
24.87
16.94
10.2
5.13
1.39
-2.18
-7.28
-15.38
-27.2
-42.39
-59.66
-77.26
-93.63
-107.8
-119.65
-129.72
-139.01
-148.69
-159.87
-173.23
-188.63
-204.56
-217.89
-224.41
-219.83
-201.39
-169.03
-125.69
-76.47
-27.11
17.67
55.17
84.54
106.17
120.72
128.73
130.54
126.75
118.58
107.68
95.95
85.0
75.68
68.02
61.52
55.53
49.66
44.03
39.14
35.54
33.43
32.35
31.2
28.5
22.96
13.97
1.82
-12.33
-26.9
-40.44
-52.27
-62.57
-72.3
-82.74
-95.19
-110.54
-129.11
-150.3
-172.23
-191.77
-204.81
-207.34
-196.83
-173.22
-139.21
-99.42
-58.91
-21.67
10.08
35.73
55.49
69.67
78.32
81.42
79.3
72.82
63.39
52.68
42.19
33.16
26.28
21.82
19.64
19.22
19.86
20.8
21.48
21.46
20.43
18.03
13.9
7.63
-1.0
-11.81
-24.14
-36.97
-49.12
-59.73
-68.39
-75.32
-81.17
-86.88
-93.47
-101.85
-112.57
-125.5
-139.35
-151.57
-158.58
-156.71
-143.46
-118.5
-84.06
-44.28
-4.02
32.58
62.99
86.31
102.84
113.27
118.25
118.28
114.06
106.7
97.81
89.23
82.63
78.98
78.42
80.3
83.51
86.98
89.96
92.12
93.55
94.38
94.63
94.01
91.9
87.64
80.81
71.53
60.52
48.93
37.96
28.5
20.89
14.78
9.38
3.65
-3.39
-12.4
-23.4
-35.46
-46.6
-53.95
-54.46
-45.87
-27.66
-1.37
29.77
61.85
91.34
115.88
134.34
146.54
152.73
153.31
148.9
140.62
130.21
119.93
112.05
108.14
108.37
111.28
114.13
113.72
107.52
94.49
75.33
52.02
26.89
1.82
-22.18
-44.77
-65.93
-85.34
-102.31
-115.92
-125.6
-131.44
-134.52
-136.73
-140.43
-147.98
-161.1
-180.38
-204.88
-231.87
-256.95
-274.77
-280.13
-269.42
-241.81
-199.76
-148.4
-94.14
-42.95
0.96
35.51
60.47
76.65
85.21
87.47
84.88
79.26
72.67
67.07
63.71
62.93
64.25
66.71
69.53
72.33
75.23
78.49
82.1
85.44
87.35
86.56
82.15
74.14
63.37
51.38
39.75
29.58
21.1
13.72
6.23
-2.79
-14.28
-28.33
-43.69
-57.72
-66.8
-67.25
-56.49
-34.06
-1.88
36.14
75.28
111.29
141.12
163.29
177.57
184.43
184.74
179.56
170.14
157.84
143.84
128.84
112.97
95.86
76.94
55.87
32.82
8.68
-15.2
-37.21
-55.99
-70.67
-81.15
-88.03
-92.37
-95.45
-98.28
-101.6
-105.71
-110.78
-116.86
-124.13
-132.82
-143.11
-154.88
-167.33
-178.75
-186.49
-187.34
-178.4
-158.08
-126.84
-87.37
-44.0
-1.5
36.17
66.62
89.11
104.0
112.13
114.27
111.16
103.67
93.08
81.02
69.24
59.22
51.71
46.72
43.64
41.7
40.3
39.26
38.78
39.1
40.26
41.73
42.57
41.71
38.41
32.68
25.25
17.3
9.98
3.93
-0.89
-5.17
-9.95
-16.25
-24.88
-36.15
-49.53
-63.63
-76.17
-84.45
-86.27
-80.73
-68.68
-52.65
-35.9
-21.27
-10.5
-3.8
-0.4
0.8
0.67
-0.32
-1.89
-3.65
-4.9
-4.88
-2.95
1.07
6.82
13.54
20.42
26.82
32.44
37.37
41.76
45.69
48.99
51.12
51.33
48.89
43.46
35.24
25.12
14.41
4.46
-3.81
-10.27
-15.58
-20.96
-27.84
-37.22
-49.29
-63.08
-76.35
-85.99
-88.74
-82.22
-65.8
-40.97
-10.97
20.22
48.99
73.02
91.51
104.69
113.23
117.59
117.9
114.24
107.14
97.7
87.64
78.9
73.04
70.83
72.1
75.78
80.28
83.87
85.03
82.78
76.8
67.37
55.24
41.35
26.56
11.46
-3.5
-17.99
-31.58
-43.84
-54.44
-63.33
-70.86
-77.73
-84.81
-92.88
-102.42
-113.26
-124.37
-133.74
-138.56
-136.01
-124.08
-102.51
-73.05
-39.04
-4.39
27.48
54.43
75.61
90.92
100.39
103.82
100.96
91.92
77.71
60.25
42.09
25.63
12.46
3.02
-3.23
-7.31
-10.15
-12.2
-13.39
-13.53
-12.7
-11.58
-11.3
-13.09
-17.78
-25.4
-35.18
-45.77
-55.77
-64.22
-70.89
-76.2
-81.13
-86.76
-94.0
-103.19
-113.87
-124.63
-133.14
-136.58
-132.35
-118.95
-96.6
-67.38
-34.69
-2.36
26.37
49.44
66.05
76.34
80.86
80.34
75.65
67.89
58.53
49.19
41.37
36.11
33.64
33.46
34.57
35.96
36.94
37.4
37.6
37.87
38.16
37.87
36.01
31.54
23.98
13.58
1.38
-11.23
-22.91
-32.93
-41.31
-48.79
-56.42
-65.2
-75.65
-87.44
-99.26
-108.84
-113.47
-110.71
-99.23
-79.38
-53.31
-24.22
4.45
29.93
50.74
66.48
77.48
84.2
86.93
85.84
81.35
74.31
66.04
58.07
51.74
47.77
46.11
46.05
46.53
46.51
45.35
42.74
38.8
33.77
27.81
20.93
12.99
3.92
-6.18
-16.85
-27.41
-37.1
-45.4
-52.29
-58.28
-64.38
-71.77
-81.41
-93.54
-107.24
-120.35
-129.73
-132.04
-124.78
-107.14
-80.32
-47.33
-12.03
21.85
51.49
75.31
92.69
103.67
108.54
107.81
102.36
93.53
83.07
72.87
64.46
58.64
55.36
53.85
53.11
52.3
51.03
49.4
47.7
46.15
44.58
42.47
39.06
33.78
26.54
17.8
8.53
-0.29
-7.96
-14.39
-20.15
-26.25
-33.78
-43.63
-56.21
-71.19
-87.42
-102.86
-114.93
-121.13
-119.83
-110.95
-96.05
-77.84
-59.21
-42.32
-28.1
-16.39
-6.64
1.52
7.96
12.23
14.06
13.86
12.63
11.76
12.44
15.19
19.76
25.28
30.68
35.12
38.28
40.22
41.18
41.26
40.15
37.23
31.76
23.35
12.26
-0.57
-13.71
-25.73
-35.66
-43.26
-48.98
-53.72
-58.47
-64.02
-70.73
-78.34
-85.77
-91.12
-91.99
-86.07
-71.97
-49.86
-21.68
9.33
39.53
65.87
86.49
100.75
108.96
111.78
109.93
104.23
95.67
85.61
75.57
66.96
60.66
56.76
54.6
53.13
51.41
48.98
46.01
43.06
40.64
38.79
36.98
34.19
29.38
22.01
12.31
1.28
-9.73
-19.46
-27.36
-33.59
-38.98
-44.65
-51.59
-60.28
-70.39
-80.6
-88.62
-91.68
-87.23
-73.84
-51.82
-23.3
8.31
39.32
66.76
88.94
105.38
116.46
122.7
124.43
121.79
115.01
104.7
91.94
78.08
64.45
51.9
40.74
30.83
21.95
14.11
7.59
2.71
-0.52
-2.62
-4.64
-7.77
-12.93
-20.31
-29.41
-39.21
-48.64
-56.98
-64.07
-70.31
-76.47
-83.45
-91.99
-102.37
-114.1
-125.59
-134.3
-137.19
-131.65
-116.4
-92.13
-61.51
-28.29
3.59
31.07
52.36
66.85
74.71
76.52
73.07
65.5
55.38
44.55
34.79
27.44
23.0
21.14
21.01
21.68
22.59
23.68
25.29
27.74
30.94
34.16
36.22
35.87
32.29
25.34
15.71
4.6
-6.65
-17.07
-26.27
-34.53
-42.64
-51.69
-62.68
-76.15
-91.75
-107.86
-121.83
-130.33
-130.39
-120.36
-100.61
-73.61
-43.14
-13.28
12.77
33.25
47.74
56.68
60.77
60.56
56.57
49.51
40.38
30.62
21.73
14.92
10.78
9.13
9.26
10.22
11.17
11.56
11.31
10.51
9.26
7.47
4.76
0.59
-5.54
-13.85
-24.07
-35.45
-47.0
-57.78
-67.24
-75.42
-82.88
-90.49
-99.18
-109.59
-121.8
-135.09
-147.8
-157.38
-160.94
-155.97
-141.3
-117.65
-87.55
-54.69
-22.72
5.6
28.86
46.77
59.63
67.8
71.59
71.32
67.65
61.69
54.9
48.8
44.55
42.73
43.21
45.32
48.13
50.83
52.94
54.38
55.29
55.79
55.68
54.4
51.2
45.52
37.24
26.94
15.63
4.47
-5.6
-14.2
-21.54
-28.24
-35.12
-42.97
-52.43
-63.82
-76.86
-90.38
-102.17
-109.23
-108.6
-98.28
-78.2
-50.32
-18.24
13.92
42.73
66.05
83.24
94.62
100.95
102.92
101.09
96.11
88.89
80.7
72.94
66.91
63.34
62.33
63.31
65.45
67.82
69.72
70.77
70.77
69.63
67.3
63.69
58.68
52.17
44.1
34.48
23.53
11.71
-0.37
-11.99
-22.61
-31.97
-40.18
-47.7
-55.12
-63.14
-72.35
-83.08
-95.04
-106.98
-116.65
-121.14
-117.69
-104.74
-82.68
-53.87
-22.0
9.03
36.22
57.85
73.51
83.56
88.59
89.21
86.01
79.84
71.89
63.65
56.58
51.75
49.51
49.39
50.42
51.39
51.41
50.08
47.52
44.01
39.79
34.76
28.52
20.57
10.63
-1.02
-13.57
-25.79
-36.41
-44.56
-50.05
-53.52
-56.1
-59.15
-63.81
-70.71
-79.75
-89.91
-99.29
-105.36
-105.49
-97.76
-81.67
-58.5
-31.01
-2.7
23.21
44.54
60.35
70.69
76.08
77.11
74.36
68.55
60.65
51.97
43.88
37.48
33.4
31.56
31.39
32.2
33.45
34.86
36.42
38.07
39.45
39.9
38.56
34.67
27.91
18.69
7.94
-3.09
-13.26
-21.89
-28.93
-34.84
-40.48
-46.82
-54.67
-64.33
-75.33
-86.16
-94.44
-97.42
-92.8
-79.6
-58.63
-32.37
-4.15
22.74
45.88
64.03
76.89
84.75
88.0
87.16
82.87
76.03
67.88
59.79
53.01
48.26
45.72
44.91
45.09
45.44
45.4
44.83
43.8
42.47
40.69
38.03
33.68
26.96
17.62
6.09
-6.59
-19.06
-30.19
-39.49
-47.13
-53.97
-61.12
-69.62
-79.95
-91.77
-103.82
-113.85
-119.16
-117.32
-106.94
-88.32
-63.48
-35.58
-8.05
16.24
35.62
49.52
58.17
62.1
61.96
58.42
52.37
44.99
37.59
31.43
27.28
25.37
25.2
25.96
26.85
27.32
27.38
27.34
27.47
27.66
27.37
25.72
21.91
15.64
7.26
-2.34
-12.01
-20.82
-28.38
-34.85
-40.86
-47.32
-55.09
-64.72
-76.04
-87.94
-98.27
-104.26
-103.33
-93.91
-76.23
-52.3
-25.38
1.0
24.06
42.2
55.08
63.08
66.8
66.83
63.81
58.57
52.23
46.11
41.42
38.91
38.71
40.25
42.67
45.13
47.13
48.52
