51.76
100.59
135.96
156.27
162.96
159.29
148.86
134.69
118.89
102.83
87.53
73.8
62.21
52.98
45.98
40.83
37.04
34.13
31.54
28.6
24.45
18.18
9.09
-3.09
-18.09
-35.22
-53.52
-72.01
-89.92
-106.67
-122.04
-136.09
-149.19
-161.86
-174.66
-187.93
-201.71
-215.77
-229.81
-243.48
-256.37
-267.54
-275.09
-276.24
-267.78
-246.99
-212.54
-165.04
-107.04
-42.8
22.38
82.7
132.69
168.0
186.29
187.71
174.94
152.39
125.16
97.87
73.95
55.42
43.02
36.59
35.18
37.38
41.54
46.0
49.34
50.56
49.01
44.39
36.67
25.98
12.72
-2.43
-18.46
-34.22
-48.66
-61.26
-72.25
-82.71
-94.3
-108.56
-126.09
-145.68
-164.13
-176.68
-178.25
-164.91
-135.31
-91.24
-37.36
19.98
74.29
120.32
154.9
176.95
187.06
186.77
178.07
163.15
144.48
124.69
106.41
91.74
81.78
76.33
74.08
73.08
71.51
68.25
63.06
56.46
49.22
41.83
34.15
25.42
14.61
0.99
-15.52
-34.2
-53.94
-73.71
-92.93
-111.58
-129.91
-148.18
-166.53
-185.09
-203.93
-222.81
-240.59
-254.89
-262.32
-259.42
-243.95
-215.84
-177.08
-130.76
-79.99
-27.17
25.74
76.47
121.97
158.66
183.52
195.37
195.49
187.19
174.59
161.29
149.47
139.85
132.15
125.76
120.16
115.07
110.35
105.89
101.44
96.55
90.47
82.19
70.68
55.02
34.61
9.12
-21.57
-57.38
-97.89
-142.15
-188.47
-234.69
-278.67
-318.89
-354.59
-385.41
-410.58
-428.44
-436.62
-433.06
-417.27
-390.99
-357.89
-322.21
-287.26
-254.53
-223.8
-194.1
-164.71
-135.76
-108.0
-82.16
-58.34
-35.84
-13.52
9.73
34.5
60.74
87.79
114.59
139.89
162.39
180.92
194.68
203.36
207.08
206.23
201.26
192.46
180.03
164.29
145.87
125.83
105.43
85.78
67.48
50.48
34.13
17.36
-1.07
-22.24
-46.51
-73.07
-99.53
-122.24
-137.2
-141.44
-134.09
-116.74
-92.69
-65.65
-38.34
-11.9
13.91
39.86
66.58
94.23
122.6
151.33
179.9
207.49
232.78
254.31
270.92
282.37
289.48
293.82
296.96
299.94
303.0
305.75
307.57
307.85
305.88
300.82
291.54
277.0
256.64
230.84
200.92
168.74
136.13
104.24
73.31
42.72
11.33
-22.03
-58.06
-96.46
-135.48
-171.7
-200.46
-216.79
-216.93
-199.76
-167.38
-124.83
-78.57
-34.74
2.31
30.59
50.06
61.75
66.95
66.83
62.54
55.45
47.24
39.71
34.31
31.73
31.9
34.11
37.57
41.72
46.31
51.19
55.94
59.66
61.07
58.93
52.56
42.15
28.78
14.05
-0.54
-14.02
-26.28
-38.03
-50.51
-65.03
-82.15
-101.03
-118.98
-131.75
-134.52
-123.29
-96.24
-54.53
-2.06
55.52
112.2
162.93
204.32
234.75
253.98
262.67
262.03
253.66
239.55
221.98
203.25
185.22
168.9
154.24
140.44
126.51
111.97
97.16
83.08
70.69
60.36
51.41
42.38
31.63
18.08
1.69
-16.53
-35.1
-52.63
-68.49
-82.94
-96.93
-111.74
-128.44
-147.53
-168.48
-189.43
-207.1
-217.21
-215.52
-199.21
-168.13
-125.24
-75.94
-26.55
17.5
52.81
78.27
94.27
101.84
101.94
95.49
83.81
68.99
53.83
41.28
33.56
31.56
34.75
41.64
50.56
60.42
70.89
82.31
95.13
109.36
124.31
138.72
151.13
160.46
166.42
169.62
171.34
173.06
175.84
179.89
184.25
186.9
185.34
177.17
160.86
136.26
104.89
69.85
35.32
5.56
-16.19
-28.68
-33.07
-32.46
-30.83
-31.74
-37.41
-48.46
-64.26
-83.61
-105.12
-127.34
-148.61
-166.98
-180.48
-187.49
-187.25
-180.05
-167.05
-150.08
-131.23
-112.52
-95.6
-81.39
-70.01
-60.89
-53.21
-46.42
-40.69
-36.82
-35.78
-38.04
-43.1
-49.56
-55.62
-59.93
-62.23
-63.49
-65.52
-70.35
-79.52
-93.57
-111.66
-131.3
-148.46
-158.05
-155.18
-136.74
-102.91
-57.6
-7.61
39.37
77.14
102.59
115.93
119.55
116.26
107.84
94.58
75.86
51.26
21.53
-11.11
-43.53
-72.72
-96.7
-114.96
-128.23
-137.71
-144.43
-148.87
-151.13
-151.39
-150.33
-149.06
-148.76
-150.18
-153.32
-157.46
-161.68
-165.25
-167.97
-170.15
-172.28
-174.66
-177.11
-178.98
-179.48
-178.13
-175.29
-172.2
-170.52
-171.46
-174.74
-178.12
-177.78
-169.54
-150.3
-119.08
-77.25
-28.0
24.53
76.13
123.0
162.1
191.32
209.73
217.7
216.77
209.28
197.78
184.62
171.72
160.54
152.04
146.6
143.95
143.24
143.26
142.93
141.55
138.93
135.12
130.1
123.48
114.46
102.04
85.46
64.55
39.95
13.03
-14.42
-40.71
-64.66
-85.91
-104.97
-122.97
-141.23
-160.67
-181.13
-200.91
-216.82
-224.72
-220.74
-202.56
-170.36
-127.12
-77.85
-28.35
16.25
52.52
78.98
95.74
103.79
104.44
99.0
88.95
76.0
62.14
49.41
39.34
32.64
28.97
27.29
26.34
25.25
23.79
22.34
21.46
21.37
21.63
21.13
18.54
12.83
3.82
-7.71
-20.29
-32.27
-42.59
-51.09
-58.68
-66.96
-77.78
-92.58
-111.81
-134.39
-157.49
-176.74
-187.13
-184.34
-166.12
-133.18
-89.08
-39.33
10.2
54.72
91.29
118.89
137.82
148.94
153.21
151.69
145.65
136.87
127.5
119.67
114.92
113.74
115.5
118.82
122.25
124.87
126.59
128.0
129.79
132.15
134.48
135.41
133.37
127.26
117.04
103.86
89.75
76.88
66.72
59.51
54.18
48.69
40.79
28.69
11.7
-9.25
-31.49
-50.73
-61.83
-60.03
-42.47
-9.41
35.42
85.66
134.05
174.34
202.68
217.84
220.57
212.53
195.52
171.13
140.88
106.44
69.64
32.38
-3.59
-36.81
-66.08
-90.54
-109.65
-123.36
-132.13
-136.86
-138.68
-138.79
-138.24
-138.02
-138.96
-141.67
-146.39
-152.86
-160.39
-168.1
-175.34
-181.85
-187.83
-193.79
-200.29
-207.9
-217.11
-228.31
-241.29
-254.82
-266.25
-271.81
-267.57
-250.72
-220.53
-178.55
-127.89
-72.37
-15.73
38.49
86.85
126.07
153.43
167.67
169.51
161.65
148.0
132.51
118.24
106.91
99.09
94.58
92.73
92.66
93.39
93.87
93.33
91.29
87.65
82.5
75.88
67.62
57.29
44.4
28.76
10.69
-8.91
-28.7
-47.41
-64.17
-78.87
-92.3
-105.92
-121.5
-140.35
-162.53
-186.17
-207.41
-221.12
-222.36
-207.87
-177.39
-133.85
-82.52
-29.58
19.48
60.9
92.92
115.33
128.85
134.56
133.64
127.4
117.47
105.74
94.26
84.82
78.62
76.02
76.49
78.95
82.2
85.28
87.73
89.54
90.85
91.58
91.18
88.64
82.76
72.71
58.46
40.97
21.95
3.26
-13.71
-28.45
-41.38
-53.62
-66.61
-81.7
-99.76
-120.65
-142.77
-162.91
-176.52
-178.72
-165.77
-136.41
-92.55
-38.95
18.13
72.5
119.51
156.64
183.35
200.46
209.41
211.79
209.19
203.26
195.67
188.11
182.03
178.42
177.67
179.63
183.72
189.22
195.44
201.71
207.29
211.15
212.01
208.38
198.98
183.01
160.38
131.8
98.6
62.49
25.13
-12.2
-48.83
-84.73
-120.28
-155.83
-191.35
-226.25
-259.47
-289.64
-315.24
-334.43
-344.91
-344.07
-329.61
-300.67
-258.71
-207.77
-153.71
-102.72
-59.75
-27.5
-6.46
4.51
7.26
3.83
-3.73
-13.19
-22.23
-28.67
-31.04
-28.94
-23.13
-15.19
-6.79
0.83
7.12
12.09
15.82
18.07
18.13
15.04
8.11
-2.7
-16.61
-32.17
-47.74
-62.06
-74.61
-85.84
-97.01
-109.78
-125.55
-144.57
-165.2
-183.84
-195.56
-195.47
-180.34
-149.71
-106.19
-54.72
-1.21
48.95
91.87
125.49
149.45
164.43
171.74
172.87
169.32
162.55
154.03
145.25
137.67
132.56
130.69
132.19
136.49
142.48
148.81
154.24
157.94
159.54
159.14
157.08
153.67
149.01
142.98
135.32
125.89
114.88
102.76
90.19
77.62
65.09
52.17
38.2
22.46
4.43
-16.22
-39.66
-65.65
-93.01
-119.06
-139.41
-148.71
-142.3
-118.08
-77.85
-27.18
26.17
74.66
113.05
139.33
154.32
160.22
159.32
153.19
142.76
128.8
112.31
94.57
76.82
59.94
44.53
31.15
20.72
14.48
13.65
18.7
28.76
41.62
54.22
63.56
67.62
65.8
58.96
48.9
37.83
27.79
20.33
16.25
15.6
17.66
21.3
25.23
28.3
29.74
29.15
26.39
21.56
14.82
6.49
-2.96
-12.83
-22.29
-30.46
-36.51
-39.87
-40.35
-38.24
-34.39
-30.09
-26.74
-25.46
-26.77
-30.5
-35.93
-42.24
-48.78
-55.3
-61.88
-68.71
-75.89
-83.37
-90.91
-98.22
-104.97
-110.9
-115.8
-119.66
-122.69
-125.38
-128.38
-132.31
-137.54
-144.01
-151.25
-158.46
-164.83
-169.74
-172.97
-174.74
-175.54
-175.96
-176.48
-177.35
-178.64
-180.27
-182.15
-184.27
-186.88
-190.46
-195.8
-203.62
-213.99
-225.77
-236.28
-241.74
-238.32
-223.42
-196.53
-159.15
-113.99
-64.02
-12.02
39.22
86.46
125.91
153.98
168.55
169.87
160.76
145.62
128.91
113.89
102.12
93.77
88.26
84.75
82.41
80.38
77.82
74.03
68.64
61.63
53.18
43.5
32.68
20.71
7.58
-6.55
-21.39
-36.52
-51.48
-65.89
-79.48
-92.28
-104.72
-117.62
-131.77
-147.26
-162.84
-175.62
-181.62
-176.99
-159.27
-128.26
-86.07
-36.38
16.48
68.34
115.57
155.34
185.74
206.05
216.84
219.87
217.55
212.4
206.44
201.17
197.61
196.52
198.4
203.28
210.56
219.0
226.97
232.95
235.87
235.37
231.68
225.31
216.64
205.61
191.67
174.15
152.64
127.26
98.71
67.83
35.23
1.03
-35.07
-73.34
-113.57
-154.91
-195.96
-234.89
-269.63
-297.64
-315.91
-321.16
-310.71
-283.54
-241.38
-188.73
-132.08
-78.19
-32.41
2.42
25.96
39.66
45.64
45.9
42.1
35.7
28.24
21.4
16.81
15.63
18.25
24.21
32.36
41.18
49.19
55.25
58.76
59.63
58.15
54.83
50.14
44.41
37.69
29.92
20.95
10.78
-0.36
-12.01
-23.48
-34.1
-43.38
-51.2
-57.96
-64.51
-72.05
-81.82
-94.5
-109.58
-124.79
-136.09
-138.49
-127.42
-100.44
-58.35
-5.2
52.83
109.27
158.96
199.02
228.67
248.4
259.03
261.25
255.78
243.71
226.85
207.65
188.67
171.99
158.75
149.12
142.59
138.42
135.9
134.37
133.04
130.79
126.12
117.5
103.92
85.27
62.58
37.66
12.5
-11.36
-33.25
-53.28
-71.97
-89.89
-107.4
-124.58
-141.34
-157.52
-172.97
-187.57
-201.36
-214.35
-226.26
-235.89
-240.68
-236.69
-219.49
-185.82
-135.34
-71.63
-1.73
65.75
123.19
165.95
193.14
206.71
209.75
204.76
192.93
174.49
149.75
120.07
88.04
56.93
29.59
7.43
-9.85
-23.88
-36.62
-49.53
-63.07
-76.83
-90.08
-102.41
-114.07
-125.81
-138.52
-152.62
-167.75
-182.89
-196.71
-208.24
-217.17
-223.99
-229.6
-234.83
-239.99
-244.88
-249.1
-252.56
-255.66
-258.95
-262.26
-264.07
-261.5
-251.11
-230.31
-198.37
-156.6
-107.52
-53.68
2.98
60.89
117.77
170.11
213.29
243.08
257.41
257.36
246.93
231.49
215.83
202.88
193.38
186.62
181.46
177.17
173.54
170.62
168.28
166.01
162.93
158.03
150.51
140.04
126.74
111.05
93.46
74.29
53.57
31.21
7.22
-18.05
-43.81
-69.1
-93.16
-115.92
-138.17
-161.26
-186.19
-212.64
-238.18
-258.48
-268.5
-264.1
-243.46
-207.56
-159.69
-104.45
-46.66
9.16
59.04
99.78
129.19
146.6
153.13
151.44
144.97
137.03
130.07
125.5
123.83
125.06
128.78
134.34
140.79
147.15
152.61
156.78
159.61
161.21
161.64
160.71
157.99
153.0
145.48
135.55
123.75
110.76
97.17
83.06
67.87
50.32
28.68
1.19
-33.24
-74.29
-119.71
-165.18
-205.02
-233.36
-245.63
-239.72
-216.52
-179.54
-133.89
-85.04
-37.69
4.8
40.53
68.79
89.7
103.8
111.88
114.85
113.79
109.9
104.4
98.32
92.34
86.55
80.55
73.68
65.38
55.52
44.5
33.12
22.19
12.18
2.87
-6.45
-16.8
-28.97
-43.19
-59.05
-75.66
-92.03
-107.41
-121.42
-134.05
-145.5
-156.07
-166.11
-175.92
-185.55
-194.44
-201.2
-203.57
-198.96
-185.37
-162.33
-131.43
-96.07
-60.59
-29.01
-4.1
12.99
22.44
25.14
22.22
14.74
3.76
-9.47
-23.53
-36.88
-48.23
-56.8
-62.46
-65.71
-67.33
-68.16
-68.59
-68.55
-67.56
-65.03
-60.71
-54.97
-48.83
-43.57
-40.37
-39.81
-41.74
-45.43
-49.98
-54.67
-59.21
-63.77
-68.9
-75.39
-84.18
-96.02
-111.03
-128.1
-144.47
-156.07
-158.41
-147.93
-123.09
-84.93
-36.79
16.52
69.79
118.18
158.02
186.95
204.21
210.54
207.92
199.02
186.62
173.14
160.37
149.57
141.51
136.55
134.59
135.08
137.15
139.82
142.18
143.55
143.54
142.02
139.09
134.9
129.67
123.56
116.63
108.93
100.44
91.11
80.73
68.82
54.69
37.6
17.0
-7.26
-34.9
-65.26
-97.44
-130.17
-161.57
-188.92
-208.69
-217.14
-211.41
-190.68
-156.91
-114.68
-70.05
-28.99
4.11
27.27
40.62
45.63
44.12
37.65
27.57
15.32
2.75
-7.97
-14.91
-16.96
-14.28
-8.09
-0.16
7.91
15.2
21.56
27.25
32.42
36.64
38.87
37.73
32.13
21.82
7.66
-8.59
-24.83
-39.34
-51.41
-61.49
-71.05
-82.16
-96.8
-116.05
-139.32
-163.85
-184.94
-196.84
-194.37
-174.63
-138.14
-88.89
-33.35
21.26
68.77
105.2
129.14
141.15
143.09
137.22
125.85
111.2
95.4
80.49
68.12
59.31
54.13
51.8
51.09
50.9
50.75
50.81
51.5
52.9
54.32
54.32
51.21
43.87
32.29
17.73
2.25
-12.05
-23.81
-32.91
-40.47
-48.4
-58.72
-72.71
-89.97
-107.99
-122.38
-127.75
-119.22
-93.93
-52.17
2.5
64.03
125.32
179.85
222.82
251.7
266.03
266.84
256.16
236.48
210.73
182.1
153.9
129.17
110.07
97.41
90.44
87.22
85.32
82.64
77.91
70.78
61.51
50.43
37.55
22.48
4.8
-15.58
-38.07
-61.28
-83.46
-102.98
-118.98
-131.64
-142.22
-152.64
-164.95
-180.56
-199.52
-219.98
-238.11
-248.75
-246.6
-227.73
-190.95
-138.41
-75.34
-8.89
53.53
105.8
144.19
167.63
177.31
175.79
166.16
151.39
134.08
116.46
100.49
87.67
78.78
73.61
71.01
69.35
67.24
64.13
60.35
56.71
53.64
50.65
46.2
38.3
25.39
7.18
-15.0
-38.64
-60.85
-79.55
-94.12
-105.59
-116.06
-127.86
-142.53
-160.19
-179.22
-196.51
-207.9
-209.09
-196.66
-169.09
-127.65
-76.48
-21.96
28.84
69.86
97.51
111.15
112.55
104.78
91.09
74.15
56.0
38.27
22.38
9.45
0.05
-6.05
-9.9
-12.91
-16.37
-20.9
-26.32
-31.84
-36.6
-40.19
-42.94
-45.8
-49.9
-55.99
-64.11
-73.5
-83.0
-91.48
-98.28
-103.45
-107.64
-112.01
-117.84
-126.12
-136.87
-148.61
-158.21
-161.42
-154.08
-133.35
-98.75
-52.19
2.54
60.77
117.86
169.77
213.42
246.82
269.18
280.87
283.23
278.14
267.62
253.49
237.39
220.9
205.69
193.24
184.61
180.09
179.06
180.08
181.33
181.0
177.72
170.88
160.5
147.08
131.14
112.98
92.61
69.93
45.02
18.42
-8.81
-35.29
-59.61
-80.66
-97.88
-111.43
-122.06
-131.0
-139.58
-148.94
-159.57
-171.01
-181.68
-189.05
-190.2
-182.78
-165.93
-140.93
-110.95
-80.12
-52.19
-29.49
-12.59
-0.74
7.24
12.23
14.56
14.29
11.66
7.35
2.4
-2.07
-5.29
-6.93
-7.06
-6.01
-4.23
-2.18
-0.29
1.05
1.65
1.46
0.52
-1.23
-4.07
-8.6
-15.52
-25.35
-38.1
-53.06
-69.0
-84.45
-98.28
-110.1
-120.43
-130.52
-141.85
-155.54
-171.6
-188.58
-203.44
-212.07
-210.25
-194.79
-164.65
-121.55
-69.82
-15.43
35.35
77.42
107.65
125.16
130.82
126.61
114.98
98.56
80.03
62.03
46.93
36.38
30.91
29.79
31.34
33.54
34.77
34.2
31.82
28.05
23.23
17.3
9.75
-0.16
-12.93
-28.49
-45.98
-63.99
-80.84
-95.17
-106.32
-114.51
-120.84
-127.01
-134.86
-145.69
-159.6
-174.94
-188.39
-195.58
-192.36
-175.98
-145.94
-104.22
-54.68
-2.19
48.39
92.89
128.22
152.52
165.23
167.03
159.73
145.99
128.92
111.65
96.83
86.35
81.09
80.83
84.44
90.11
95.95
100.29
102.05
100.79
96.72
90.38
82.51
73.7
64.23
54.08
42.93
30.52
16.7
1.67
-14.11
-30.03
-45.52
-60.21
-74.01
-87.21
-100.49
-114.83
-131.23
-150.05
-170.37
-189.47
-203.23
-207.02
-197.18
-172.18
-133.17
-83.72
-28.92
25.63
74.88
114.95
143.57
160.22
166.01
163.21
154.67
143.08
130.57
118.6
108.18
100.0
94.53
91.87
91.69
93.21
95.43
97.28
97.86
96.49
92.73
86.33
77.28
65.81
52.33
37.46
21.79
5.83
-10.11
-25.92
-41.59
-57.07
-72.23
-86.81
-100.53
-113.2
-124.94
-136.22
-147.99
-161.27
-176.6
-193.36
-209.27
-220.59
-223.07
-213.17
-189.2
-151.91
-104.21
-50.58
3.85
54.13
95.96
126.27
143.51
147.97
141.69
127.96
110.71
93.68
79.96
71.64
69.74
74.22
84.05
97.46
112.41
127.03
140.04
150.77
159.02
164.8
168.03
168.48
165.73
159.41
149.29
135.39
118.02
97.8
75.66
52.74
30.28
9.47
-8.8
-24.23
-37.22
-49.01
-61.44
-76.57
-95.96
-119.93
-147.06
-174.11
-196.6
-209.99
-210.8
-197.74
-171.99
-136.81
-96.65
-56.07
-18.88
12.3
36.04
51.97
60.51
62.73
60.15
54.65
48.25
42.96
40.47
41.96
47.96
58.27
72.04
87.96
104.52
120.34
134.35
145.89
154.73
160.88
164.52
165.84
164.96
161.93
156.83
149.86
141.44
132.31
123.18
114.6
106.6
98.56
89.36
77.62
62.15
42.37
18.77
-6.83
-31.26
-50.43
-60.24
-57.89
-42.92
-17.67
13.27
44.46
71.25
90.91
102.82
107.71
106.59
99.95
87.83
70.49
49.16
26.32
5.19
-11.33
-21.63
-25.81
-25.41
-22.55
-19.08
-16.06
-13.69
-11.68
-9.66
-7.58
-5.86
-5.33
-7.06
-12.06
-20.86
-33.42
-49.0
-66.38
-84.3
-101.71
-118.09
-133.49
-148.34
-163.27
-178.72
-194.56
-209.82
-222.44
-229.48
-227.63
-214.22
-188.25
-151.13
-106.71
-60.44
-18.09
15.66
38.08
48.6
48.36
39.53
24.72
6.61
-12.07
-28.69
-40.9
-46.9
-45.75
-37.42
-22.72
-3.02
20.09
44.95
69.96
93.5
113.93
129.59
138.96
141.05
135.63
123.58
106.74
87.54
68.45
51.27
36.74
24.41
12.9
0.47
-14.35
-32.07
-51.78
-70.99
-85.91
-92.35
-86.86
-68.0
-37.03
2.15
44.09
83.25
115.45
138.59
152.44
157.92
156.24
148.43
135.39
118.16
98.17
77.11
56.39
36.75
18.13
0.1
-17.59
-34.46
-49.28
-60.46
-66.8
-68.05
-65.1
-59.79
-54.21
-50.13
-48.59
-49.81
-53.38
-58.6
-64.8
-71.48
-78.42
-85.6
-93.15
-101.28
-110.22
-120.05
-130.47
-140.46
-148.17
-151.14
-146.93
-134.02
-112.49
-84.29
-52.77
-21.68
5.8
27.76
43.53
53.29
57.48
56.55
51.1
42.14
31.29
20.59
11.93
6.45
4.22
4.27
5.15
5.55
4.77
2.86
0.33
-2.28
-4.77
-7.44
-11.06
-16.47
-24.24
-34.36
-46.2
-58.63
-70.41
-80.56
-88.73
-95.24
-101.08
-107.6
-116.19
-127.68
-141.84
-156.93
-169.57
-175.36
-170.02
-150.81
-117.64
-73.45
-23.42
26.43
70.76
106.04
130.73
144.95
149.88
147.23
139.1
127.87
116.14
106.35
100.3
98.92
102.0
108.57
117.17
126.4
135.14
142.72
148.71
152.81
154.6
153.42
148.51
139.12
124.88
105.98
83.32
58.38
32.99
8.88
-12.71
-31.24
-46.9
-60.47
-73.05
-85.77
-99.5
-114.49
-130.1
-144.62
-155.45
-159.69
-154.98
-140.33
-116.61
-86.38
-53.18
-20.65
8.32
31.81
48.88
59.23
63.01
60.85
53.99
44.29
34.01
25.35
19.82
17.88
18.97
21.76
24.7
26.52
26.52
24.67
21.44
17.45
13.17
8.7
3.72
-2.3
-9.81
-18.91
-29.22
-40.03
-50.54
-60.17
-68.68
-76.26
-83.36
-90.66
-98.81
-108.32
-119.3
-131.11
-142.07
-149.49
-150.04
-140.71
-119.8
-87.86
-47.8
-4.33
37.41
73.18
100.62
119.23
129.81
133.47
131.06
123.19
110.69
95.06
78.56
63.73
52.62
46.08
43.54
43.39
43.65
42.71
39.76
34.86
28.56
21.52
14.12
6.39
-1.9
-10.92
-20.56
-30.27
-39.23
-46.68
-52.23
-56.15
-59.25
-62.71
-67.74
-75.36
-86.16
-100.26
-117.03
-134.81
-150.74
-161.03
-161.84
-150.44
-126.43
-92.09
-51.85
-10.9
26.43
57.58
81.87
99.77
112.08
119.43
122.45
122.24
120.55
119.55
121.11
125.91
133.14
140.64
145.7
145.97
140.24
128.65
112.52
93.82
74.48
55.91
38.7
22.74
7.52
-7.39
-22.03
-35.91
-48.24
-58.27
-65.68
-70.74
-74.27
-77.4
-81.33
-86.98
-94.74
-104.1
-113.4
-119.9
-120.34
-112.02
-93.99
-67.77
-37.17
-7.24
17.4
33.81
41.34
41.21
35.55
26.45
15.47
3.7
-7.93
-18.31
-26.19
-30.41
-30.27
-25.85
-17.92
-7.75
3.28
14.03
23.74
32.09
38.98
44.41
48.24
50.2
49.88
46.91
41.17
32.87
22.71
11.69
0.88
-8.91
-17.44
-25.13
-32.98
-42.24
-54.06
-69.02
-86.83
-105.92
-123.43
-135.47
-137.9
-127.47
-103.06
-66.41
-22.05
23.83
65.0
96.79
117.05
126.06
125.79
118.78
107.4
93.6
79.04
65.32
53.92
45.86
41.3
39.45
38.87
38.12
36.34
33.56
30.43
27.65
25.4
23.07
19.38
12.92
2.69
-11.45
-28.75
-47.73
-66.74
-84.43
-100.12
-113.83
-126.12
-137.7
-149.17
-160.97
-173.5
-187.11
-201.93
-217.24
-231.12
-240.39
-241.4
-231.25
-208.87
-175.33
-133.13
-85.15
-33.9
18.39
69.06
114.43
150.14
172.4
179.59
173.19
157.46
137.82
118.97
103.69
92.61
85.0
79.74
76.04
73.46
71.68
70.15
68.04
64.44
58.54
49.91
38.52
24.68
8.91
-8.08
-25.48
-42.48
-58.37
-72.66
-85.13
-95.89
-105.34
-114.14
-123.25
-133.74
-146.27
-160.57
-174.8
-185.59
-188.82
-180.91
-160.03
-126.66
-83.21
-33.1
20.1
73.08
122.73
165.89
199.56
221.46
230.81
228.78
218.24
202.85
186.11
170.59
157.78
148.26
142.0
138.58
137.24
136.92
136.45
134.8
131.29
125.77
118.39
109.43
98.95
86.9
73.28
58.56
43.72
30.05
18.64
9.81
2.83
-3.84
-12.06
-23.46
-38.91
-58.23
-80.05
-101.8
-119.8
-129.84
-128.01
-112.0
-82.03
-41.29
4.7
49.52
87.58
115.39
131.89
137.95
135.39
126.13
111.9
94.35
75.37
57.14
41.78
30.8
24.49
21.85
20.95
19.76
16.93
12.26
6.6
1.2
-3.04
-6.2
-9.41
-14.42
-22.73
-34.77
-49.65
-65.44
-80.0
-91.89
-101.0
-108.48
-116.33
-126.49
-140.1
-156.92
-175.2
-191.82
-202.91
-204.67
-194.43
-171.53
-137.75
-96.96
-54.2
-14.27
19.21
44.27
60.26
67.3
65.87
56.87
41.9
23.48
4.85
-10.76
-21.12
-25.6
-25.23
-21.94
-17.62
-13.23
-8.6
-2.86
4.64
13.63
22.66
29.53
32.28
30.05
23.58
15.06
7.33
2.95
3.21
7.66
13.94
18.22
16.16
4.19
-18.94
-51.09
-86.67
-117.82
-136.69
-137.98
-120.67
-88.28
-47.56
-6.19
29.45
55.65
71.47
78.01
77.27
71.41
62.32
51.72
41.32
32.72
27.21
25.37
26.85
30.5
34.8
38.41
40.64
41.51
41.49
40.92
39.6
36.75
31.28
22.41
10.1
-4.85
-21.02
-36.88
-51.32
-63.91
-74.92
-85.23
-96.1
-108.97
-124.9
-143.88
-164.25
-182.49
-193.94
-194.15
-180.38
-152.39
-112.4
-64.16
-11.95
40.25
88.84
130.65
162.93
183.73
192.45
190.11
179.21
163.05
144.97
127.78
113.44
103.01
96.64
93.67
92.83
92.62
91.83
89.79
86.39
81.74
75.81
68.26
58.53
46.21
31.38
14.73
-2.59
-19.35
-34.63
-48.07
-59.87
-70.84
-82.19
-95.44
-111.92
-132.16
-155.15
-177.86
-195.58
-202.99
-195.8
-172.24
-133.81
-84.9
-31.56
20.08
65.11
100.53
125.04
138.69
142.41
137.72
126.69
111.8
95.75
80.98
69.25
61.31
56.86
54.89
54.13
53.56
52.6
51.08
48.91
45.81
41.16
34.12
23.97
10.43
-6.12
-24.68
-43.92
-62.61
-79.98
-95.93
-110.92
-125.69
-141.04
-157.66
-175.93
-195.66
-215.67
-233.6
-246.01
-249.27
-240.58
-218.96
-185.48
-142.85
-94.54
-44.08
5.21
50.2
87.91
115.89
132.94
139.6
138.25
132.26
124.93
118.44
113.38
109.05
104.24
98.01
90.33
82.11
74.92
70.18
68.5
69.15
70.23
69.39
64.81
55.89
43.42
29.01
14.24
-0.13
-14.39
-29.52
-46.52
-65.89
-87.5
-110.77
-134.78
-158.25
-179.18
-194.84
-202.09
-198.28
-182.23
-154.8
-118.57
-76.76
-32.14
13.53
59.22
103.72
144.94
180.02
206.19
222.02
228.13
227.02
222.09
216.49
212.25
210.15
210.08
211.51
213.75
215.96
217.03
215.68
210.74
201.56
188.26
171.67
153.04
133.55
114.03
94.82
75.88
57.11
38.54
20.53
3.71
-11.21
-23.74
-33.9
-42.4
-50.6
-60.17
-72.54
-87.99
-104.95
-119.82
-127.61
-123.35
-103.9
-69.32
-23.26
28.04
77.52
119.36
150.15
169.2
177.73
177.91
171.98
161.98
149.86
137.65
127.42
120.98
119.47
122.97
130.64
140.98
152.41
163.73
174.24
183.6
191.4
196.95
199.14
196.84
189.31
176.7
160.05
141.02
121.23
101.8
83.02
64.55
45.87
26.69
7.25
-11.86
-29.99
-46.8
-62.41
-77.3
-91.99
-106.85
-121.97
-137.21
-152.25
-166.47
-178.82
-187.76
-191.54
-188.74
-179.06
-163.69
-145.2
-126.66
-110.64
-98.36
-89.47
-82.55
-75.87
-68.17
-58.96
-48.43
-37.09
-25.49
-14.16
-3.65
5.39
12.33
16.75
18.68
18.59
17.26
15.38
13.34
11.13
8.56
5.48
2.05
-1.3
-4.04
-5.92
-7.02
-7.83
-8.96
-10.98
-14.18
-18.53
-23.69
-29.16
-34.4
-39.02
-42.89
-46.11
-49.01
-51.9
-54.92
-57.96
-60.67
-62.66
-63.63
-63.57
-62.68
-61.33
-59.96
-59.01
-58.85
-59.78
-62.01
-65.55
-70.24
-75.62
-81.01
-85.55
-88.38
-88.82
-86.57
-81.85
-75.4
-68.32
-61.82
-56.84
-53.84
-52.71
-52.97
-53.99
-55.33
-56.83
-58.6
-60.8
-63.52
-66.74
-70.38
-74.45
-79.13
-84.76
-91.68
-100.16
-110.13
-121.19
-132.46
-142.46
-149.0
-149.37
-140.75
-121.05
-89.8
-48.78
-1.89
45.62
88.52
122.78
146.42
159.51
163.66
161.26
154.76
146.31
137.56
129.69
123.38
118.84
115.91
114.07
112.67
111.07
108.75
105.44
101.1
95.9
90.04
83.68
76.78
69.26
60.99
52.03
42.58
32.85
22.79
12.05
-0.01
-13.89
-29.46
-45.65
-60.32
-70.74
-74.29
-69.27
-55.42
-34.06
-7.63
20.94
48.9
74.19
95.56
112.47
124.87
132.98
137.11
137.48
134.23
127.41
117.17
103.92
88.62
72.61
57.49
44.6
34.71
27.85
23.34
20.15
17.11
13.25
7.85
0.6
-8.42
-18.72
-29.53
-39.95
-49.31
-57.31
-64.05
-69.89
-75.1
-79.64
-83.18
-85.16
-85.27
-83.73
-81.43
-79.75
-80.07
-83.25
-89.26
-97.24
-105.84
-113.8
-120.33
-125.28
-128.88
-131.46
-133.11
-133.65
-132.79
-130.27
-126.06
-120.26
-113.02
-104.46
-94.65
-83.84
-72.66
-62.16
-53.71
-48.6
-47.53
-50.23
-55.44
-61.29
-65.91
-68.07
-67.46
-64.58
-60.34
-55.52
-50.53
-45.39
-40.0
-34.39
-28.87
-23.99
-20.31
-18.21
-17.83
-19.07
-21.78
-25.78
-30.91
-36.86
-43.05
-48.55
-52.26
-53.2
-50.92
-45.76
-38.82
-31.68
-25.92
-22.61
-22.11
-24.01
-27.42
-31.38
-35.27
-39.03
-43.19
-48.71
-56.65
-67.95
-83.16
-102.28
-124.58
-148.38
-171.0
-188.95
-198.52
-196.67
-181.81
-154.23
-115.94
-70.13
-20.56
28.9
74.46
112.65
140.47
156.03
159.01
151.07
135.62
117.12
99.89
87.13
80.2
78.59
80.35
82.8
83.39
80.3
72.78
61.18
46.72
31.07
15.83
2.17
-9.52
-19.7
-29.6
-41.04
-56.03
-76.18
-102.05
-132.22
-163.13
-189.41
-205.36
-206.59
-191.57
-162.07
-122.6
-78.93
-36.51
0.66
30.51
52.66
67.9
77.63
83.36
86.44
87.83
88.15
87.89
87.72
88.6
91.66
97.69
106.64
117.26
127.31
134.12
135.49
130.42
119.37
103.96
86.13
67.44
48.53
29.17
8.67
-13.7
-38.48
-65.96
-95.96
-127.37
-157.76
-183.29
-199.44
-202.35
-190.17
-163.73
-125.99
-80.89
-31.93
18.28
67.76
114.34
155.22
187.31
208.16
217.09
215.6
206.87
194.66
182.1
170.91
161.33
152.59
143.66
133.84
123.12
112.12
101.84
93.18
86.44
81.15
76.19
70.15
61.84
50.72
36.98
21.44
5.07
-11.44
-27.91
-44.77
-62.88
-83.19
-106.28
-131.86
-158.17
-181.91
-198.58
-203.54
-193.3
-166.69
-125.35
-73.47
-16.77
38.78
88.1
127.75
156.22
173.71
181.75
182.69
179.12
173.45
167.56
162.68
159.23
156.89
154.68
151.27
145.51
136.88
125.89
113.93
102.82
94.02
88.0
83.98
80.15
74.29
64.55
50.14
31.53
10.31
-11.4
-31.61
-49.06
-63.51
-75.71
-87.09
-99.31
-113.95
-132.16
-154.56
-180.92
-209.74
-237.95
-260.93
-273.39
-270.85
-251.28
-216.18
-170.39
-120.73
-73.89
-34.58
-4.79
15.96
29.44
37.63
42.13
44.17
44.88
45.38
46.57
48.87
52.12
55.82
59.64
63.9
69.71
78.63
91.92
109.93
131.73
155.22
177.85
197.5
213.13
224.89
233.72
240.58
245.84
249.09
249.53
246.39
239.23
227.99
212.6
192.76
167.98
137.9
102.65
62.85
19.53
-26.14
-72.6
-117.55
-157.62
-188.8
-207.61
-212.59
-205.24
-189.85
-172.1
-157.06
-147.74
-144.65
-146.73
-152.73
-162.33
-176.35
-196.05
-222.08
-253.55
-288.05
-322.08
-352.07
-375.18
-389.79
-395.51
-392.79
-382.69
-366.52
-345.91
-322.8
-299.44
-278.16
-260.99
-249.19
-242.91
-241.19
-242.27
-244.09
-244.87
-243.49
-239.58
-233.3
-225.08
-215.52
-205.41
-195.64
-186.98
-179.7
-173.28
-166.46
-157.67
-145.8
-130.54
-112.55
-92.93
-72.63
-52.14
-31.51
-10.77
9.78
29.49
47.74
64.29
79.52
94.23
109.15
124.54
139.99
154.55
167.2
177.28
184.82
190.48
195.33
200.47
206.74
214.5
223.47
232.75
240.87
246.05
246.7
241.93
231.84
217.46
200.33
181.74
162.24
141.54
118.99
94.5
69.2
45.65
27.2
16.86
16.24
25.11
41.77
63.83
89.0
115.46
141.66
165.97
186.58
201.83
210.77
213.6
211.54
206.34
199.6
192.24
184.53
176.36
167.67
158.69
149.93
141.99
135.25
129.67
124.72
119.56
113.38
105.63
96.27
85.7
74.5
63.17
51.96
40.82
29.41
17.23
3.71
-11.49
-28.1
-44.83
-59.29
-68.48
-69.57
-60.92
-42.77
-17.12
12.84
43.76
72.8
98.05
118.38
133.18
142.15
145.28
142.92
135.91
125.45
112.98
99.99
87.86
77.75
70.4
66.08
64.51
64.91
66.27
67.58
68.12
67.55
65.95
63.72
61.43
59.55
58.2
56.91
54.45
49.04
38.87
22.81
1.27
-23.51
-47.7
-66.79
-76.97
-76.24
-65.08
-46.11
-23.24
-0.37
19.6
35.26
46.52
53.98
58.3
59.82
58.63
54.83
48.86
41.62
34.34
28.22
24.01
21.89
21.5
22.16
23.15
23.86
23.92
23.1
21.28
18.41
14.47
9.4
3.17
-4.37
-13.45
-24.4
-37.52
-52.73
-69.21
-85.09
-97.67
-103.91
-101.42
-89.25
-68.37
-41.48
-12.22
15.77
39.67
57.88
69.89
76.02
76.98
73.67
67.07
58.17
47.95
37.36
27.23
18.21
10.66
4.65
-0.05
-3.9
-7.38
-10.86
-14.51
-18.35
-22.32
-26.47
-30.98
-36.09
-42.07
-49.18
-57.67
-67.68
-79.05
-90.95
-101.7
-108.85
-109.79
-102.49
-86.36
-62.48
-33.41
-2.41
27.29
53.16
73.58
87.75
95.5
97.13
93.32
85.17
74.07
61.54
48.99
37.48
27.59
19.34
12.41
6.29
0.54
-5.1
-10.66
-16.05
-21.14
-25.91
-30.49
-35.16
-40.25
-46.13
-53.19
-61.78
-72.12
-84.01
-96.47
-107.61
-114.82
-115.41
-107.43
-90.46
-65.76
-36.06
-4.71
25.06
50.8
71.06
85.26
93.44
96.03
93.69
87.27
77.79
66.45
54.49
43.07
33.03
24.79
18.27
13.05
8.62
4.55
0.66
-3.07
-6.62
-10.04
-13.55
-17.5
-22.32
-28.4
-36.09
-45.7
-57.35
-70.75
-84.89
-97.87
-107.08
-109.75
-103.84
-88.7
-65.5
-36.97
-6.67
21.94
46.21
64.66
76.89
83.22
84.35
81.05
74.12
64.43
52.97
40.87
29.29
19.17
11.07
5.03
0.68
-2.55
-5.28
-7.92
-10.68
-13.6
-16.68
-19.97
-23.6
-27.82
-32.93
-39.3
-47.28
-57.11
-68.6
-80.96
-92.58
-101.18
-104.27
-99.8
-86.91
-66.37
-40.45
-12.45
14.19
36.69
53.41
63.86
68.43
67.92
63.15
54.88
43.87
30.96
17.21
3.81
-8.14
-17.82
-24.79
-28.98
-30.6
-29.98
-27.64
-24.22
-20.55
-17.52
-15.94
-16.29
-18.62
-22.62
-27.78
-33.71
-40.31
-47.64
-55.63
-63.63
-70.24
-73.45
-71.18
-62.06
-46.0
-24.4
0.17
24.66
46.33
63.31
74.73
80.62
81.47
77.99
70.87
60.81
48.54
34.94
21.0
7.7
-4.17
-14.14
-22.18
-28.67
-34.26
-39.66
-45.47
-52.01
-59.3
-67.13
-75.25
-83.5
-91.97
-101.06
-111.26
-122.94
-135.98
-149.46
-161.57
-169.81
-171.44
-164.2
-146.9
-119.83
-84.77
-44.66
-2.88
37.35
73.56
104.19
128.54
146.5
158.25
164.08
164.49
160.26
152.58
142.94
132.89
123.57
115.44
108.26
101.35
93.94
85.59
76.3
66.39
56.32
46.28
36.2
25.7
14.25
1.37
-13.12
-28.83
-44.67
-58.87
-69.24
-73.76
-71.18
-61.54
-46.25
-27.73
-8.71
8.42
22.12
31.69
37.08
38.6
36.67
31.78
24.56
15.88
6.8
-1.51
-8.04
-12.19
-13.86
-13.53
-12.0
-10.19
-8.81
-8.18
-8.29
-8.9
-9.8
-11.0
-12.73
-15.36
-19.23
-24.54
-31.32
-39.42
-48.4
-57.45
-65.23
-69.99
-69.91
-63.66
-50.94
-32.72
-11.15
11.04
31.16
47.27
58.38
64.47
66.17
64.46
60.29
54.52
47.83
40.76
33.79
27.32
21.68
17.08
13.67
11.42
10.18
9.64
9.31
8.6
6.96
4.06
-0.14
-5.34
-11.03
-16.67
-21.9
-26.68
-31.35
-36.51
-42.81
-50.66
-59.8
-69.12
-76.66
-80.04
-77.17
-67.03
-50.14
-28.52
-5.15
16.99
35.61
49.54
58.59
63.19
63.95
61.42
56.15
48.87
40.57
32.41
25.5
20.51
17.53
16.12
15.58
15.3
14.98
14.64
14.39
14.15
13.48
11.68
8.07
2.37
-5.01
-13.12
-20.78
-27.1
-31.87
-35.57
-39.24
-43.94
-50.4
-58.66
-68.02
-77.01
-83.7
-86.03
-82.37
-72.0
-55.53
-34.81
-12.53
8.5
26.15
39.3
47.86
52.44
53.84
52.78
49.72
45.01
39.08
32.56
26.32
21.29
18.18
17.27
18.31
20.54
23.01
24.85
25.58
25.13
23.74
21.74
19.26
16.19
12.3
7.37
1.38
-5.38
-12.42
-19.19
-25.22
-30.31
-34.57
-38.39
-42.4
-47.29
-53.57
-61.29
-69.87
-77.92
-83.48
-84.39
-78.99
-66.71
-48.4
-26.22
-3.05
18.19
35.36
47.42
54.45
57.22
56.74
53.87
49.23
43.26
36.45
29.48
23.18
18.4
15.75
15.4
17.03
19.87
22.94
25.23
26.02
24.91
21.9
17.33
11.68
5.48
-0.94
-7.4
-13.95
-20.72
-27.78
-35.05
-42.25
-49.02
-54.89
-59.52
-62.7
-64.51
-65.36
-66.02
-67.54
-70.77
-75.99
-82.45
-88.29
-90.91
-87.85
-77.66
-60.55
-38.41
-14.19
8.96
28.59
43.4
53.23
58.63
60.46
59.48
56.25
51.28
45.14
38.54
32.31
27.17
23.61
21.74
21.36
22.09
23.49
25.17
26.76
27.94
28.37
27.78
25.98
22.94
18.82
13.92
8.6
3.21
-2.04
-6.99
-11.64
-16.01
-20.22
-24.33
-28.45
-32.72
-37.35
-42.59
-48.55
-55.07
-61.45
-66.42
-68.25
-65.26
-56.32
-41.34
-21.49
1.11
23.96
44.8
62.16
75.43
84.67
90.29
92.72
92.24
89.15
83.87
77.03
69.5
62.16
55.7
50.43
46.2
42.55
38.89
34.7
29.66
23.64
16.68
8.85
0.31
-8.8
-18.34
-28.14
-38.06
-47.88
-57.38
-66.3
-74.37
-81.36
-87.15
-91.79
-95.47
-98.56
-101.52
-104.9
-109.03
-113.89
-118.68
-121.8
-121.07
-114.35
-100.32
-79.08
-52.33
-22.93
5.93
31.56
52.34
67.76
78.09
83.97
86.1
85.17
82.04
77.8
73.69
70.89
70.1
71.3
73.79
76.45
78.27
78.7
77.77
75.96
73.8
71.53
68.87
65.14
59.54
51.52
41.07
28.73
15.47
2.34
-9.85
-20.75
-30.52
-39.66
-48.88
-58.85
-69.96
-82.08
-94.34
-105.08
-112.12
-113.32
-107.27
-93.88
-74.5
-51.66
-28.31
-7.07
10.29
22.94
30.76
34.04
33.16
28.6
20.97
11.15
0.34
-10.09
-18.9
-25.28
-29.02
-30.44
-30.13
-28.63
-26.27
-23.18
-19.55
-15.81
-12.77
-11.37
-12.34
-15.87
-21.47
-28.14
-34.76
-40.49
-45.1
-48.97
-52.99
-58.25
-65.51
-74.95
-85.76
-96.09
-103.34
-104.7
-97.97
-82.24
-58.3
-28.41
4.23
36.32
65.19
89.1
107.31
119.77
126.82
128.98
126.93
121.53
113.93
105.43
97.37
90.88
86.69
84.99
85.45
87.47
90.31
93.34
96.13
98.58
100.86
103.42
106.94
112.07
119.1
127.6
136.25
143.07
145.92
143.16
134.12
119.2
99.77
77.83
55.76
35.96
20.59
11.02
7.55
9.18
13.91
19.34
23.38
24.77
23.13
18.82
12.42
4.53
-4.4
-14.03
-24.06
-34.23
-44.15
-53.33
-61.08
-66.69
-69.54
-69.41
-66.58
-61.75
-55.71
-49.05
-41.91
-34.07
-25.23
-15.4
-5.09
4.83
13.42
20.05
24.57
27.33
29.03
30.61
33.17
37.91
46.01
58.35
75.18
95.76
118.4
140.7
160.14
174.67
183.23
185.81
183.3
177.06
168.33
157.95
146.13
132.72
117.57
100.97
83.86
67.74
54.27
44.65
39.21
37.22
37.12
36.96
35.0
30.03
21.52
9.53
-5.52
-23.03
-42.36
-62.99
-84.65
-107.55
-132.27
-159.3
-188.15
-216.62
-240.7
-255.55
-257.27
-244.76
-220.47
-189.8
-159.16
-133.75
-116.16
-106.28
-102.33
-102.24
-104.57
-108.57
-113.75
-119.32
-124.15
-127.12
-127.52
-125.4
-121.45
-116.64
-111.83
-107.54
-103.87
-100.69
-97.84
-95.23
-92.94
-91.1
-89.85
-89.25
-89.35
-90.25
-92.31
-96.19
-102.74
-112.67
-125.99
-141.42
-156.24
-166.66
-168.83
-160.16
-140.23
-111.04
-76.28
-40.11
-5.83
24.76
51.26
74.06
93.62
110.08
123.44
133.82
141.85
148.66
155.7
164.42
175.89
190.48
207.54
225.15
240.22
249.04
248.31
236.23
213.14
181.45
144.78
106.79
70.29
36.83
7.14
-18.42
-39.47
-55.66
-67.07
-74.54
-79.66
-84.36
-90.36
-98.64
-109.35
-122.03
-135.99
-150.51
-164.56
-176.35
-183.03
-181.13
-167.74
-142.01
-106.04
-64.7
-24.12
10.3
35.51
51.23
59.25
62.0
61.43
58.63
54.15
48.65
43.11
38.62
35.77
34.25
32.87
30.05
24.54
16.03
5.22
-6.52
-17.84
-27.99
-37.11
-46.01
-55.77
-67.13
-80.21
-94.53
-109.28
-123.7
-137.38
-150.35
-162.93
-175.4
-187.77
-199.68
-210.45
-219.34
-225.87
-230.07
-232.55
-234.57
-237.67
-243.14
-251.34
-261.02
-269.14
-271.44
-263.59
-242.62
-207.84
-161.03
-105.76
-46.41
12.73
67.9
116.11
155.13
183.75
201.98
211.07
213.15
210.65
205.61
199.37
192.58
185.43
177.9
169.83
160.96
151.07
140.08
128.17
115.67
102.87
89.89
76.56
62.79
48.8
35.38
23.74
14.96
9.42
6.33
3.83
-0.42
-8.47
-21.29
-38.49
-58.51
-79.21
-98.54
-115.15
-128.68
-139.82
-149.99
-160.86
-173.55
-187.85
-201.73
-211.44
-212.42
-200.73
-174.58
-135.27
-87.04
-35.78
12.56
53.64
85.38
107.81
122.23
130.25
133.17
131.97
127.6
121.26
114.53
109.11
106.41
107.18
111.4
118.4
127.14
136.48
145.4
152.91
158.12
160.14
158.23
152.09
142.06
129.18
114.94
100.75
87.5
75.22
63.22
50.58
36.62
21.23
4.9
-11.56
-27.39
-42.15
-55.91
-69.23
-82.97
-97.87
-113.93
-129.81
-142.55
-148.08
-142.41
-123.23
-91.11
-49.67
-4.68
37.85
73.35
99.81
117.54
128.33
134.16
136.37
135.52
131.7
125.2
116.78
107.7
99.4
93.01
89.16
87.83
88.55
90.57
93.11
95.45
97.0
97.43
96.69
94.96
92.47
89.39
85.68
81.13
75.52
68.69
60.56
51.04
39.95
27.11
12.5
-3.56
-20.46
-37.61
-54.73
-71.97
-89.4
-106.31
-120.68
-129.34
-128.99
-117.68
-95.9
-66.82
-35.26
-6.14
17.03
32.82
41.52
44.17
41.59
33.97
21.16
3.44
-17.89
-40.36
-60.85
-76.49
-85.55
-87.87
-84.73
-78.21
-70.34
-62.56
-55.54
-49.4
-44.17
-40.15
-37.98
-38.36
-41.68
-47.7
-55.41
-63.35
-70.1
-74.81
-77.58
-79.44
-81.99
-86.85
-95.14
-107.05
-121.6
-136.53
-148.45
-153.39
-147.6
-128.78
-97.05
-55.32
-8.81
36.38
74.93
103.64
121.79
130.62
132.15
128.11
119.56
107.09
91.5
74.29
57.7
44.06
34.99
30.75
30.21
31.37
32.28
31.72
29.53
26.25
22.5
18.44
13.48
6.58
-3.19
-16.12
-31.53
-47.96
-63.62
-77.12
-87.85
-96.12
-103.0
-109.85
-117.98
-128.29
-140.84
-154.45
-166.52
-173.22
-170.46
-155.19
-126.82
-87.73
-42.83
1.97
41.56
72.9
95.3
109.72
117.68
120.43
118.7
113.06
104.37
94.06
83.9
75.56
70.08
67.61
67.5
68.7
70.21
71.4
72.13
72.58
72.94
73.12
72.63
70.68
66.49
59.58
50.11
38.87
27.07
15.87
5.96
-2.73
-11.07
-20.39
-32.18
-47.55
-66.88
-89.42
-113.16
-134.83
-150.47
-156.37
-150.19
-131.8
-103.48
-69.32
-34.02
-1.58
25.5
46.29
61.01
70.38
75.1
75.82
73.23
68.31
62.33
56.66
52.5
50.58
50.99
53.26
56.56
59.98
62.82
64.73
65.74
66.02
65.64
64.35
61.57
56.52
48.6
37.65
24.13
9.03
-6.4
-21.04
-34.24
-45.96
-56.76
-67.69
-79.95
-94.59
-112.05
-131.67
-151.35
-167.64
-176.47
-174.22
-159.1
-131.91
-95.99
-56.28
-17.91
15.18
40.89
58.82
69.67
74.49
74.27
70.01
62.84
54.27
45.97
39.43
35.56
34.43
35.41
37.59
40.16
42.76
45.4
48.2
50.99
53.09
53.43
50.9
44.83
35.31
23.21
9.9
-3.24
-15.26
-25.93
-35.79
-45.96
-57.79
-72.43
-90.24
-110.33
-130.27
-146.35
-154.45
-151.2
-135.2
-107.58
-71.66
-31.98
7.09
42.31
72.04
95.91
114.24
127.49
135.99
140.05
140.16
137.17
132.33
127.09
122.78
120.28
119.83
120.98
122.87
124.51
125.2
124.68
123.16
120.97
118.3
114.86
109.91
102.57
92.13
78.52
62.4
44.98
27.64
11.41
-3.26
-16.56
-29.2
-42.18
-56.58
-73.3
-92.55
-113.4
-133.37
-148.71
-155.28
-149.92
-131.8
-102.93
-67.74
-31.62
0.7
26.35
44.59
56.32
63.06
66.21
66.73
65.17
61.98
57.78
53.27
49.09
45.56
42.56
39.62
36.19
31.93
26.97
21.84
17.25
13.69
11.17
9.06
6.29
1.74
-5.25
-14.7
-25.89
-37.66
-48.78
-58.33
-65.99
-72.05
-77.32
-82.9
-89.93
-99.12
-110.34
-122.23
-132.16
-136.72
-132.6
-117.73
-92.13
-58.12
-19.68
18.7
53.19
81.45
102.79
117.74
127.4
132.85
134.9
134.03
130.7
125.46
119.16
112.84
107.6
104.31
103.32
104.42
106.83
109.48
111.41
111.98
111.08
109.07
106.53
103.99
101.69
99.47
96.84
93.26
88.4
82.33
75.56
68.9
63.22
59.17
56.92
55.97
54.97
51.88
44.3
30.37
9.64
-16.1
-42.78
-64.99
-77.5
-77.1
-63.62
-39.88
-10.62
19.17
45.61
66.52
81.11
89.34
91.23
86.79
76.4
61.13
42.96
24.35
7.59
-5.76
-15.25
-21.3
-24.72
-26.22
-26.05
-24.07
-20.04
-14.02
-6.64
0.89
7.09
10.7
11.1
8.48
3.66
-2.34
-8.81
-15.62
-23.14
-31.85
-41.94
-53.09
-64.46
-75.06
-84.11
-91.36
-97.08
-102.01
-107.13
-113.4
-121.5
-131.36
-141.81
-150.38
-153.71
-148.43
-132.45
-105.9
-71.4
-33.28
3.74
36.03
61.7
80.61
93.56
101.42
104.66
103.3
97.37
87.28
74.05
59.18
44.25
30.65
19.3
10.59
4.55
0.94
-0.62
-0.61
0.33
1.36
1.52
-0.07
-3.94
-10.05
-17.81
-26.33
-34.77
-42.69
-50.13
-57.52
-65.4
-74.1
-83.59
-93.5
-103.31
-112.55
-121.02
-128.95
-137.01
-146.04
-156.64
-168.58
-180.28
-188.84
-190.6
-182.26
-162.11
-130.82
-91.45
-48.58
-6.98
29.64
59.25
81.5
97.05
106.91
111.9
112.65
109.69
103.82
96.21
88.31
81.6
77.18
75.61
76.7
79.75
83.68
87.4
90.05
91.15
90.63
88.7
85.67
81.72
76.85
70.86
63.51
54.72
44.75
34.13
23.55
13.59
4.52
-3.79
-11.89
-20.54
-30.65
-43.04
-58.17
-75.67
-93.93
-110.01
-120.09
-120.69
-110.01
-88.97
-61.19
-31.96
-6.43
11.96
22.28
25.84
25.03
22.15
18.74
15.51
12.84
11.07
10.66
11.92
14.72
18.47
22.37
25.89
29.0
32.19
36.08
40.85
46.07
50.68
53.47
53.57
50.76
45.51
38.74
31.39
24.12
17.19
10.56
4.05
-2.46
-8.91
-15.12
-20.92
-26.26
-31.35
-36.68
-42.8
-50.12
-58.53
-67.24
-74.58
-78.28
-76.04
-66.26
-48.83
-25.46
0.56
25.27
45.16
58.15
63.99
63.92
59.94
54.09
47.8
41.91
36.82
32.68
29.59
27.54
26.4
25.89
25.74
25.8
26.1
26.83
28.11
29.9
31.9
33.58
34.38
33.81
31.6
27.74
22.5
16.32
9.74
3.25
-2.82
-8.35
-13.47
-18.4
-23.34
-28.39
-33.49
-38.53
-43.35
-47.88
-52.02
-55.62
-58.38
-59.85
-59.63
-57.55
-53.8
-49.1
-44.44
-40.83
-39.05
-39.48
-42.25
-47.35
-54.77
-64.39
-75.86
-88.43
-101.08
-112.83
-123.25
-132.59
-141.65
-151.17
-161.16
-170.67
-178.0
-181.47
-180.25
-174.89
-167.18
-159.52
-154.03
-151.9
-153.2
-157.13
-162.56
-168.45
-174.09
-179.05
-183.09
-186.08
-188.15
-189.76
-191.78
-195.14
-200.24
-206.3
-211.23
-211.92
-205.3
-189.45
-164.29
-131.41
-93.24
-52.03
-9.29
33.92
76.26
115.48
148.56
172.71
186.53
190.71
187.89
181.6
175.01
170.11
167.6
167.39
169.13
172.6
177.53
183.36
188.97
192.86
193.57
190.22
182.9
172.67
161.22
150.24
140.88
133.42
127.31
121.52
114.95
106.85
96.93
85.52
73.52
62.29
53.4
48.24
47.56
51.15
57.91
66.21
74.43
81.43
86.68
90.1
91.76
91.76
90.09
86.83
82.13
76.19
69.06
60.61
50.62
38.99
26.04
12.63
0.01
-10.59
-18.29
-22.91
-25.03
-25.79
-26.45
-28.05
-31.06
-35.4
-40.64
-46.32
-52.25
-58.64
-65.91
-74.41
-84.12
-94.43
-104.24
-112.37
-118.02
-121.13
-122.68
-124.45
-128.58
-136.84
-149.83
-166.42
-183.61
-196.96
-201.64
-193.75
-171.53
-136.1
-91.41
-43.28
2.08
39.68
66.77
83.0
89.95
90.09
85.92
79.51
72.51
66.33
62.27
61.35
63.87
69.23
75.91
82.04
86.04
87.24
86.01
83.42
80.59
78.01
75.23
71.02
64.01
53.41
39.58
24.07
9.04
-3.37
-11.89
-16.53
-18.46
-19.56
-21.85
-26.81
-34.76
-44.61
-53.77
-58.68
-55.82
-42.92
-19.93
10.71
44.69
77.12
103.93
122.99
134.3
139.43
140.54
139.48
137.22
133.91
129.3
123.05
115.07
105.55
94.8
83.09
70.65
57.66
44.43
31.37
18.97
7.52
-2.99
-12.9
-22.68
-32.77
-43.32
-54.24
-65.27
-76.26
-87.31
-98.66
-110.56
-123.04
-135.79
-148.26
-159.99
-170.86
-181.31
-192.24
-204.66
-218.91
-234.05
-247.51
-255.42
-253.58
-238.73
-209.82
-168.6
-119.41
-68.05
-20.23
19.82
50.19
71.23
84.79
93.21
98.45
101.79
103.97
105.77
108.27
112.8
120.47
131.62
145.5
160.52
174.79
186.8
195.7
201.37
204.14
204.47
202.89
199.92
196.22
192.48
189.24
186.67
184.35
181.39
176.65
169.12
158.16
143.62
125.85
105.52
83.62
61.47
40.57
22.46
8.28
-1.56
-7.57
-10.94
-13.13
-15.36
-18.12
-21.23
-24.07
-25.97
-26.61
-26.23
-25.53
-25.52
-27.1
-30.77
-36.42
-43.39
-50.73
-57.57
-63.52
-68.71
-73.63
-78.8
-84.38
-90.01
-95.1
-99.09
-101.89
-104.01
-106.37
-109.89
-115.1
-121.9
-129.69
-137.61
-144.85
-150.95
-155.91
-160.2
-164.76
-170.76
-179.25
-190.56
-203.68
-215.98
-223.46
-221.65
-206.95
-177.82
-135.54
-84.05
-28.99
23.74
69.28
104.73
129.22
143.47
149.08
147.91
141.77
132.46
121.76
111.43
102.9
96.94
93.44
91.51
89.94
87.75
84.64
80.89
77.14
73.77
70.56
66.7
61.27
53.75
44.53
34.74
25.75
18.47
12.77
7.39
0.35
-10.44
-26.53
-48.36
-74.94
-103.55
-129.97
-149.21
-156.69
-149.76
-128.68
-96.76
-59.3
-22.0
10.69
36.42
54.84
66.81
73.43
75.47
73.32
67.45
58.76
48.75
39.34
32.28
28.62
28.41
30.7
34.01
36.89
38.39
38.3
36.89
34.5
31.15
26.33
19.18
8.82
-5.13
-22.29
-41.51
-61.14
-79.52
-95.43
-108.49
-119.23
-128.87
-139.0
-151.13
-166.03
-183.33
-201.18
-216.21
-224.22
-221.21
-204.62
-174.43
-133.43
-86.62
-39.88
1.59
34.44
57.53
71.5
78.04
79.08
76.29
71.02
64.25
56.74
49.05
41.59
34.65
28.5
23.49
20.01
18.43
18.86
20.92
23.71
25.82
25.69
22.05
14.33
2.91
-10.97
-25.61
-39.44
-51.49
-61.84
-71.54
-82.27
-95.57
-112.08
-130.7
-148.47
-161.12
-164.27
-154.77
-131.76
-96.85
-53.59
-6.54
39.74
81.42
115.66
140.84
156.48
163.2
162.45
156.17
146.4
134.9
123.14
112.24
102.99
95.85
90.85
87.72
86.06
85.53
85.86
86.71
87.38
86.73
83.36
76.1
64.54
49.32
31.98
14.39
-1.9
-16.29
-29.25
-42.15
-56.81
-74.71
-96.28
-120.23
-143.38
-161.02
-168.12
-160.84
-137.88
-101.1
-55.09
-5.82
40.94
81.0
112.21
134.24
147.85
154.13
154.1
148.74
139.17
126.89
113.81
101.93
92.87
87.39
85.2
85.21
86.11
86.97
87.53
88.12
89.13
90.42
91.05
89.49
84.18
74.35
60.43
44.11
27.67
13.18
1.69
-7.11
-14.73
-23.3
-34.86
-50.59
-70.24
-91.72
-111.15
-123.43
-123.49
-107.89
-76.17
-31.41
20.49
72.52
118.56
154.87
180.48
196.37
204.34
205.97
202.27
194.03
182.37
169.06
156.26
146.05
139.61
136.92
136.77
137.36
136.99
134.63
130.11
123.83
116.19
107.1
95.77
80.94
61.42
36.77
7.76
-23.64
-54.78
-83.1
-106.93
-125.94
-141.13
-154.31
-167.57
-182.62
-200.28
-220.08
-239.96
-256.24
-264.22
-259.26
-238.4
-201.67
-152.46
-96.88
-41.89
6.55
44.86
72.11
89.27
98.15
100.6
98.23
92.53
85.11
77.59
71.34
67.12
64.87
63.86
63.04
61.54
58.94
55.37
51.22
46.75
41.72
35.42
26.95
15.78
2.24
-12.43
-26.47
-38.34
-47.4
-54.23
-60.4
-67.97
-78.64
-93.04
-110.06
-126.77
-138.69
-141.02
-130.08
-104.84
-67.57
-23.34
21.59
61.74
93.83
117.21
133.08
143.18
148.81
150.51
148.51
143.41
136.5
129.59
124.35
121.6
120.95
120.94
119.58
115.03
106.02
92.06
73.29
50.23
23.7
-5.2
-35.0
-63.82
-89.56
-110.29
-124.76
-132.78
-135.37
-134.57
-132.95
-133.15
-137.31
-146.8
-161.9
-181.47
-202.66
-221.02
-231.2
-228.28
-209.51
-175.5
-130.46
-81.03
-34.2
4.62
32.89
50.81
60.36
63.96
63.62
60.72
56.29
51.35
46.98
44.13
43.31
44.42
46.75
49.35
51.17
51.38
49.5
45.33
38.96
30.68
20.99
10.41
-0.53
-11.42
-22.04
-32.37
-42.59
-53.12
-64.45
-76.95
-90.42
-103.56
-113.77
-117.46
-111.05
-92.43
-62.0
-23.09
18.86
57.88
89.16
110.07
120.26
120.99
114.16
101.73
85.46
67.13
48.59
31.65
17.7
7.38
0.42
-4.04
-7.0
-9.11
-10.52
-11.03
-10.56
-9.51
-8.85
-9.78
-13.37
-19.9
-28.78
-38.76
-48.41
-56.78
-63.71
-69.98
-76.91
-85.94
-98.04
-113.1
-129.53
-144.24
-153.16
-152.27
-138.96
-112.98
-76.77
-34.79
7.85
46.77
79.22
104.09
121.39
131.45
134.53
130.87
121.17
106.95
90.54
74.68
61.76
53.2
49.17
48.83
50.78
53.8
57.1
60.45
63.79
66.83
68.78
68.41
64.33
55.63
42.16
24.79
5.1
-15.02
-33.9
-50.47
-64.34
-75.74
-85.22
-93.39
-100.65
-106.84
-111.31
-113.01
-110.86
