-137.13
-157.59
-174.36
-181.34
-172.96
-146.23
-102.11
-45.61
15.65
73.61
121.92
157.1
178.55
187.7
186.83
178.28
164.17
146.58
127.71
109.91
95.31
85.39
80.62
80.4
83.44
88.31
93.89
99.5
104.82
109.54
113.11
114.68
113.38
108.61
100.36
89.32
76.64
63.61
51.23
39.89
29.29
18.6
6.88
-6.5
-21.57
-37.67
-53.78
-68.98
-82.87
-95.78
-108.61
-122.39
-137.74
-154.38
-170.96
-185.14
-194.04
-194.98
-186.35
-168.2
-142.49
-112.63
-82.53
-55.48
-33.31
-16.27
-3.41
6.63
14.91
21.98
27.92
32.63
36.11
38.42
39.68
40.0
39.46
38.24
36.6
34.82
32.97
30.89
28.1
24.12
18.64
11.65
3.38
-6.08
-16.98
-30.02
-45.94
-65.0
-86.59
-109.12
-130.47
-148.85
-163.34
-174.29
-183.06
-191.46
-201.19
-213.46
-228.81
-246.95
-266.48
-284.7
-297.87
-302.02
-294.11
-273.2
-240.74
-199.96
-154.55
-107.35
-59.84
-12.64
33.48
76.79
114.6
144.22
164.17
175.0
179.11
179.8
180.0
181.44
184.58
189.03
194.34
200.21
206.44
212.6
217.81
220.85
220.55
216.24
207.87
195.82
180.6
162.37
140.82
115.16
84.56
48.58
7.68
-36.63
-81.85
-124.97
-163.23
-194.89
-219.62
-238.52
-253.74
-267.77
-282.59
-298.9
-315.59
-329.83
-337.83
-336.03
-322.41
-297.22
-262.79
-222.46
-179.23
-134.96
-90.49
-46.48
-4.47
32.86
62.32
81.46
89.68
88.56
81.26
71.4
62.01
55.06
51.53
51.75
55.7
63.01
72.76
83.39
92.89
99.26
101.21
98.48
91.98
83.27
73.91
64.78
55.88
46.42
35.44
22.36
7.34
-8.7
-24.53
-39.12
-52.09
-63.87
-75.59
-88.69
-104.51
-123.5
-144.77
-165.8
-182.89
-192.19
-191.04
-178.86
-157.42
-129.97
-99.95
-69.82
-40.45
-11.43
18.3
49.54
82.25
115.22
146.22
172.47
191.43
201.7
203.59
199.17
191.56
183.9
178.42
176.1
176.8
179.82
184.27
189.18
193.34
195.32
193.7
187.6
177.07
163.14
147.46
131.63
116.5
102.0
87.31
71.4
53.7
34.46
14.62
-4.53
-21.97
-37.28
-50.76
-63.26
-76.03
-90.43
-107.64
-128.08
-150.75
-172.89
-190.27
-198.3
-193.61
-175.23
-144.85
-105.83
-61.94
-16.25
29.08
72.23
111.1
143.17
166.17
178.99
182.3
178.38
170.25
160.75
151.89
144.79
139.96
137.54
137.52
139.56
143.07
147.2
151.1
154.05
155.58
155.34
153.05
148.47
141.41
131.83
119.96
106.34
91.68
76.77
62.25
48.41
35.13
21.93
8.21
-6.39
-21.72
-37.1
-51.51
-63.97
-74.09
-82.2
-89.42
-97.32
-107.46
-120.93
-137.72
-156.33
-173.6
-185.13
-186.3
-173.58
-145.84
-104.84
-54.93
-1.77
49.17
93.83
130.02
157.28
176.23
188.06
194.18
196.12
195.57
194.21
193.52
194.53
197.63
202.61
208.98
216.35
224.74
234.81
247.45
263.34
282.01
301.44
318.09
327.68
326.63
313.3
288.73
256.31
220.56
185.47
153.23
123.89
95.8
66.78
35.16
0.57
-36.0
-72.58
-106.88
-136.99
-161.91
-181.75
-197.69
-211.54
-225.16
-239.65
-254.74
-268.55
-277.81
-278.92
-269.23
-248.29
-218.32
-183.85
-150.22
-121.95
-101.48
-88.83
-82.4
-80.19
-80.81
-83.74
-88.92
-95.93
-103.5
-109.68
-112.44
-110.48
-103.68
-93.0
-79.92
-65.86
-51.74
-38.05
-25.11
-13.33
-3.39
3.92
7.87
7.96
3.99
-3.91
-15.31
-29.53
-45.7
-62.9
-80.34
-97.43
-113.84
-129.47
-144.41
-158.96
-173.49
-188.14
-202.41
-214.66
-222.09
-221.3
-209.39
-185.15
-149.79
-106.83
-61.13
-17.61
20.01
49.77
71.36
85.47
93.2
95.54
93.33
87.42
78.88
69.13
59.78
52.37
48.03
47.22
49.71
54.74
61.29
68.29
74.84
80.16
83.64
84.85
83.56
79.71
73.43
64.97
54.63
42.81
30.0
16.84
4.04
-7.69
-17.9
-26.35
-33.15
-38.69
-43.7
-49.13
-55.95
-64.66
-74.7
-84.09
-89.53
-87.22
-74.1
-48.98
-13.1
30.01
75.6
118.96
156.42
185.91
206.85
219.7
225.33
224.67
218.49
207.54
192.69
175.02
155.81
136.3
117.48
99.94
83.9
69.36
56.25
44.52
34.1
24.87
16.6
8.99
1.73
-5.46
-12.84
-20.64
-29.04
-38.2
-48.07
-58.42
-68.84
-78.79
-87.78
-95.52
-102.05
-107.85
-113.76
-120.87
-130.17
-141.97
-155.31
-167.66
-175.24
-173.93
-160.72
-134.93
-98.76
-56.76
-14.49
23.06
52.77
73.63
86.37
92.55
93.71
91.0
85.19
76.87
66.79
55.88
45.12
35.46
27.52
21.64
17.83
15.96
15.8
17.13
19.69
23.17
27.12
30.94
33.87
35.17
34.24
30.82
25.15
17.92
10.09
2.63
-3.83
-9.12
-13.46
-17.44
-21.82
-27.43
-34.99
-44.81
-56.34
-67.83
-76.39
-78.55
-71.33
-53.36
-25.5
9.19
46.41
81.83
112.19
135.82
152.48
162.9
168.16
169.34
167.38
163.12
157.41
151.04
144.72
138.94
133.92
129.58
125.62
121.54
116.64
110.09
100.97
88.44
71.99
51.69
28.32
3.21
-22.11
-46.45
-69.35
-91.16
-112.74
-134.97
-158.19
-181.89
-204.84
-225.39
-242.07
-254.07
-261.54
-265.63
-268.31
-271.68
-277.19
-284.63
-291.64
-294.02
-286.81
-265.87
-229.32
-178.34
-117.04
-51.51
11.7
66.98
110.71
141.68
160.88
170.82
174.55
174.86
173.74
172.33
171.08
170.14
169.37
168.4
166.5
162.79
156.4
146.65
133.02
115.04
92.3
64.73
33.01
-1.11
-34.89
-65.24
-89.66
-107.03
-117.87
-123.89
-127.26
-129.72
-132.12
-134.48
-136.26
-136.83
-135.89
-133.54
-130.29
-127.02
-124.77
-124.45
-126.33
-129.39
-131.05
-127.44
-114.5
-89.43
-52.01
-5.06
46.24
95.84
138.53
171.08
192.51
203.53
205.71
200.79
190.42
176.16
159.65
142.49
125.98
110.91
97.44
85.28
74.08
63.75
54.66
47.44
42.62
40.3
39.95
40.49
40.61
39.24
35.8
30.35
23.44
15.8
8.06
0.52
-6.88
-14.39
-22.26
-30.61
-39.44
-48.78
-58.75
-69.63
-81.69
-95.07
-109.66
-125.04
-140.34
-154.17
-164.57
-169.18
-165.95
-153.93
-133.97
-108.82
-82.35
-58.34
-39.26
-25.7
-16.75
-10.94
-7.22
-5.38
-5.73
-8.42
-12.86
-17.63
-21.01
-21.57
-18.64
-12.32
-3.26
7.73
19.92
32.54
44.73
55.31
62.93
66.41
65.12
59.32
50.09
39.03
27.69
17.06
7.33
-2.06
-12.17
-24.08
-38.47
-55.21
-73.0
-89.25
-100.51
-103.31
-95.37
-76.6
-49.36
-17.82
13.43
40.71
62.03
77.01
86.11
89.82
88.34
81.68
70.38
55.76
39.83
24.58
11.18
-0.51
-11.72
-24.0
-38.24
-54.19
-70.51
-85.63
-98.63
-109.81
-120.48
-132.21
-145.93
-161.41
-177.31
-191.78
-203.27
-211.03
-215.26
-216.92
-217.39
-218.06
-220.24
-224.96
-232.68
-242.96
-254.07
-263.14
-266.6
-261.27
-245.37
-219.14
-184.51
-144.31
-101.22
-57.23
-13.82
27.52
64.88
96.09
119.39
134.2
141.44
143.12
141.56
138.52
134.92
131.07
127.16
123.73
121.64
121.73
124.26
128.55
133.05
135.67
134.43
128.1
116.53
100.66
82.17
62.88
44.21
26.8
10.38
-6.09
-24.17
-45.49
-71.18
-101.17
-133.57
-164.5
-188.77
-201.08
-197.79
-178.17
-144.8
-102.76
-58.11
-16.12
19.68
47.74
67.98
81.05
87.84
89.31
86.57
81.04
74.27
67.69
62.35
58.69
56.6
55.67
55.49
55.83
56.77
58.39
60.59
62.74
63.76
62.3
57.24
48.18
35.57
20.61
4.82
-10.43
-24.38
-37.05
-49.25
-62.33
-77.65
-96.03
-116.9
-137.94
-155.28
-164.52
-162.05
-146.28
-118.0
-79.99
-35.98
10.24
55.25
96.11
130.2
155.44
170.71
176.29
173.93
166.34
156.41
146.39
137.52
130.17
124.14
119.11
114.9
111.55
109.25
108.15
108.06
108.31
107.72
104.9
98.64
88.36
74.29
57.23
38.3
18.51
-1.41
-21.06
-40.27
-59.17
-78.08
-97.38
-117.02
-135.96
-151.79
-160.99
-159.9
-146.04
-119.29
-82.2
-39.38
3.9
43.1
75.32
99.46
115.68
124.86
128.05
126.35
120.93
112.99
103.78
94.31
85.31
77.05
69.58
62.81
56.84
51.96
48.67
47.32
47.83
49.49
51.06
51.14
48.68
43.31
35.42
25.93
15.77
5.49
-4.96
-16.23
-29.24
-44.79
-63.02
-82.84
-101.76
-116.13
-121.97
-116.19
-97.65
-67.72
-29.95
10.9
50.11
84.07
110.69
129.28
140.2
144.36
143.0
137.49
129.22
119.48
109.29
99.29
89.79
80.85
72.46
64.73
57.86
52.13
47.68
44.35
41.61
38.66
34.73
29.32
22.42
14.48
6.21
-1.8
-9.35
-16.82
-25.07
-35.1
-47.39
-61.25
-74.45
-83.36
-83.88
-72.62
-48.24
-12.17
31.48
76.88
118.09
150.53
172.02
182.87
185.29
182.27
176.64
170.32
164.3
158.83
153.79
148.94
144.07
139.01
133.67
128.18
122.89
118.24
114.56
111.8
109.44
106.54
102.05
95.03
84.81
71.06
53.64
32.65
8.43
-18.43
-47.08
-76.43
-105.03
-130.94
-151.65
-164.3
-166.28
-156.12
-134.33
-103.64
-68.51
-33.96
-4.23
18.23
32.97
41.05
44.18
43.99
41.61
37.69
32.53
26.35
19.3
11.49
2.96
-6.26
-16.05
-26.11
-35.99
-45.16
-53.25
-60.14
-66.08
-71.55
-77.08
-83.13
-89.94
-97.6
-106.09
-115.39
-125.56
-136.85
-149.6
-164.02
-179.76
-195.48
-208.71
-216.19
-214.78
-202.58
-179.74
-148.62
-113.22
-77.93
-46.42
-20.87
-1.85
11.27
19.66
24.59
27.08
27.88
27.49
26.28
24.48
22.3
19.93
17.59
15.53
14.02
13.2
13.03
13.22
13.23
12.48
10.46
6.92
1.92
-4.18
-10.93
-17.94
-25.06
-32.5
-40.84
-50.85
-63.14
-77.57
-92.89
-106.57
-115.3
-115.95
-106.61
-87.41
-60.6
-29.86
0.78
28.0
49.85
65.73
76.02
81.49
83.0
81.28
77.04
71.02
63.97
56.63
49.56
43.18
37.73
33.44
30.46
28.87
28.48
28.81
29.06
28.38
26.06
21.86
15.99
9.04
1.69
-5.5
-12.29
-18.83
-25.7
-33.71
-43.63
-55.56
-68.53
-80.27
-87.62
-87.42
-77.69
-58.49
-32.05
-2.21
26.71
51.11
68.82
79.19
82.77
80.74
74.47
65.3
54.44
43.04
32.11
22.49
14.71
8.98
5.26
3.3
2.86
3.65
5.33
7.43
9.32
10.24
9.55
6.9
2.4
-3.46
-9.98
-16.56
-22.94
-29.36
-36.55
-45.38
-56.46
-69.57
-83.28
-94.96
-101.34
-99.52
-87.94
-67.09
-39.42
-8.7
21.09
46.68
66.04
78.38
83.79
82.88
76.54
65.9
52.31
37.27
22.24
8.46
-3.23
-12.37
-18.85
-22.73
-24.22
-23.71
-21.8
-19.33
-17.27
-16.47
-17.48
-20.33
-24.68
-29.93
-35.54
-41.21
-46.95
-53.09
-60.16
-68.77
-79.23
-91.2
-103.3
-113.07
-117.47
-113.72
-100.41
-78.13
-49.43
-18.1
11.98
37.84
57.95
72.02
80.52
84.17
83.65
79.6
72.77
64.15
54.83
45.84
38.0
31.75
27.22
24.33
22.85
22.42
22.53
22.56
21.8
19.69
15.9
10.46
3.71
-3.81
-11.59
-19.3
-27.01
-35.2
-44.68
-56.22
-69.99
-85.04
-99.1
-108.95
-111.35
-104.22
-87.45
-63.11
-34.8
-6.57
18.28
37.74
51.26
59.22
62.42
61.71
57.89
51.83
44.53
37.07
30.38
25.07
21.3
18.78
16.95
15.15
12.79
9.5
5.17
-0.05
-5.8
-11.66
-17.23
-22.18
-26.16
-28.64
-28.95
-26.42
-20.89
-13.04
-4.48
2.81
7.45
9.47
10.69
14.16
23.11
39.75
64.51
95.87
130.7
164.76
193.27
211.47
215.44
202.95
174.25
132.25
82.08
29.75
-19.32
-61.55
-95.64
-122.16
-142.66
-158.67
-171.05
-179.93
-185.04
-186.3
-184.3
-180.36
-176.19
-173.44
-173.1
-175.32
-179.61
-185.15
-191.36
-198.16
-205.93
-215.1
-225.54
-236.09
-244.36
-247.26
-241.81
-226.16
-200.17
-165.41
-124.61
-80.8
-36.7
5.66
44.79
79.57
109.11
132.68
149.92
160.9
166.25
167.09
164.95
161.56
158.65
157.53
158.91
162.61
167.6
172.33
175.12
174.58
170.02
161.52
149.86
136.19
121.72
107.44
93.86
81.05
68.62
55.84
41.97
26.71
10.64
-4.56
-16.33
-22.02
-19.82
-9.54
7.22
27.57
48.29
66.67
81.01
90.59
95.37
95.56
91.57
83.96
73.56
61.45
48.81
36.77
26.15
17.48
10.9
6.25
3.13
0.94
-1.04
-3.45
-6.76
-11.11
-16.39
-22.29
-28.52
-34.94
-41.6
-48.81
-56.97
-66.53
-77.77
-90.49
-103.79
-115.93
-124.51
-127.13
-122.11
-109.24
-89.9
-66.63
-42.31
-19.37
0.75
17.46
30.69
40.49
46.83
49.68
49.22
46.01
40.94
35.19
29.82
25.61
22.79
21.13
20.07
19.07
17.83
16.37
14.9
13.51
12.02
9.91
6.61
1.8
-4.36
-11.45
-19.09
-27.26
-36.3
-46.48
-57.41
-67.64
-74.84
-76.53
-70.92
-57.63
-37.79
-13.6
12.38
37.82
60.91
80.31
95.04
104.4
108.08
106.29
99.91
90.35
79.39
68.82
60.16
54.3
51.35
50.55
50.55
49.79
46.99
41.49
33.39
23.33
12.21
0.75
-10.64
-21.91
-33.17
-44.63
-56.44
-68.54
-80.52
-91.39
-99.56
-102.99
-99.73
-88.51
-69.36
-43.69
-14.18
15.9
43.42
66.06
82.73
93.59
99.68
102.31
102.58
100.97
97.58
92.44
85.95
79.0
72.74
68.14
65.54
64.6
64.36
63.69
61.65
57.76
52.1
45.13
37.5
29.72
21.95
13.9
4.97
-5.58
-18.29
-33.32
-50.25
-68.05
-85.17
-99.81
-110.22
-115.04
-113.55
-105.81
-92.64
-75.5
-56.21
-36.62
-18.27
-2.12
11.58
23.1
32.99
41.66
49.17
55.23
59.32
60.92
59.72
55.64
48.99
40.49
31.25
22.51
15.39
10.41
7.36
5.36
3.25
-0.0
-4.89
-11.25
-18.32
-25.14
-30.9
-35.28
-38.58
-41.57
-45.18
-49.93
-55.46
-60.38
-62.6
-60.1
-51.74
-37.86
-20.25
-1.48
15.98
30.61
42.07
51.02
58.45
65.18
71.42
76.9
81.15
83.9
85.35
86.0
86.44
86.99
87.55
87.75
87.2
85.85
83.98
82.09
80.42
78.72
76.26
72.14
65.71
56.86
46.09
34.26
22.23
10.59
-0.6
-11.74
-23.68
-37.33
-53.25
-71.13
-89.41
-105.39
-115.77
-117.63
-109.41
-91.42
-65.79
-35.87
-5.33
22.48
45.08
60.88
69.24
70.28
64.83
54.22
40.1
24.14
7.79
-7.84
-22.02
-34.32
-44.51
-52.58
-58.67
-63.0
-65.83
-67.36
-67.69
-66.87
-64.94
-62.04
-58.41
-54.41
-50.37
-46.51
-42.87
-39.33
-35.83
-32.43
-29.45
-27.41
-26.92
-28.56
-32.78
-39.71
-49.03
-59.88
-70.87
-80.26
-86.36
-87.95
-84.6
-76.79
-65.68
-52.74
-39.46
-27.09
-16.59
-8.66
-3.61
-1.36
-1.33
-2.52
-3.8
-4.15
-2.98
-0.25
3.64
8.12
12.66
16.98
20.98
24.64
27.82
30.17
31.17
30.32
27.31
22.21
15.47
7.84
0.12
-7.06
-13.43
-19.11
-24.46
-29.84
-35.23
-40.05
-43.04
-42.6
-37.26
-26.31
-10.18
9.51
30.33
49.74
65.67
77.0
83.5
85.57
83.88
79.13
71.96
63.11
53.43
43.9
35.41
28.58
23.58
20.22
18.11
16.83
16.02
15.38
14.55
13.09
10.52
6.54
1.17
-5.17
-11.82
-18.06
-23.44
-27.85
-31.57
-35.2
-39.39
-44.66
-51.07
-58.02
-64.24
-67.98
-67.58
-61.98
-51.16
-36.21
-19.08
-2.01
13.06
24.83
32.72
36.78
37.42
35.26
30.99
25.33
18.97
12.53
6.5
1.15
-3.49
-7.54
-11.2
-14.58
-17.7
-20.42
-22.57
-24.04
-24.87
-25.27
-25.45
-25.59
-25.72
-25.81
-25.88
-26.2
-27.27
-29.77
-34.28
-40.89
-49.02
-57.28
-63.75
-66.46
-63.93
-55.66
-42.25
-25.28
-6.86
10.96
26.54
38.89
47.61
52.69
54.32
52.89
48.95
43.27
36.78
30.43
24.97
20.94
18.63
18.2
19.76
23.36
28.91
36.06
44.26
52.77
60.82
67.71
72.8
75.58
75.59
72.53
66.24
56.85
44.68
30.22
13.95
-3.74
-22.49
-41.88
-61.1
-78.75
-92.92
-101.5
-102.78
-96.05
-81.97
-62.46
-40.29
-18.41
0.64
15.13
24.16
27.67
26.23
20.88
12.95
3.87
-4.98
-12.47
-17.8
-20.58
-20.87
-19.07
-15.79
-11.67
-7.2
-2.7
1.62
5.49
8.52
10.19
10.07
8.02
4.3
-0.49
-5.54
-10.16
-13.95
-16.91
-19.42
-22.05
-25.37
-29.67
-34.69
-39.49
-42.52
-42.04
-36.71
-26.15
-11.22
6.17
23.71
39.42
52.12
61.59
68.14
72.25
74.14
73.87
71.54
67.64
63.05
58.84
55.88
54.49
54.43
55.09
55.85
56.39
56.71
57.06
57.61
58.32
58.88
58.79
57.54
54.71
50.14
43.94
36.54
28.62
20.88
13.82
7.56
1.68
-4.54
-11.89
-20.83
-31.17
-42.04
-52.0
-59.45
-63.02
-61.9
-56.06
-46.19
-33.52
-19.5
-5.53
7.19
17.74
25.51
30.11
31.5
29.93
26.04
20.76
15.17
10.26
6.77
4.95
4.58
5.11
5.83
6.12
5.63
4.29
2.24
-0.29
-3.11
-6.18
-9.64
-13.78
-18.99
-25.63
-33.9
-43.77
-54.93
-66.9
-79.1
-91.02
-102.28
-112.59
-121.58
-128.73
-133.14
-133.62
-128.91
-118.03
-100.71
-77.65
-50.5
-21.55
6.69
31.92
52.45
67.27
76.03
79.01
76.87
70.61
61.49
50.84
40.13
30.67
23.48
19.1
17.38
17.6
18.72
19.76
20.17
19.88
19.14
18.2
17.0
15.16
12.16
7.7
1.96
-4.45
-10.67
-15.98
-20.09
-23.23
-26.02
-29.17
-33.29
-38.65
-45.1
-52.06
-58.52
-63.17
-64.58
-61.63
-53.8
-41.49
-25.98
-9.11
7.2
21.37
32.49
40.2
44.57
45.89
44.59
41.25
36.61
31.53
26.86
23.21
20.8
19.51
18.98
18.85
18.86
18.96
19.16
19.48
19.82
19.95
19.52
18.2
15.79
12.3
7.99
3.3
-1.3
-5.49
-9.25
-12.87
-16.9
-21.9
-28.18
-35.58
-43.3
-49.95
-53.8
-53.38
-47.87
-37.46
-23.33
-7.31
8.72
23.25
35.36
44.68
51.08
54.51
55.03
52.83
48.46
42.71
36.55
30.78
25.93
22.12
19.2
16.86
14.8
12.86
10.94
9.06
7.11
4.88
1.98
-1.99
-7.36
-14.15
-22.06
-30.47
-38.66
-46.08
-52.57
-58.45
-64.35
-70.98
-78.68
-87.13
-95.23
-101.25
-103.22
-99.54
-89.45
-73.3
-52.47
-29.1
-5.42
16.57
35.45
50.44
61.25
67.95
70.85
70.46
67.52
62.91
57.66
52.65
48.53
45.58
43.69
42.5
41.6
40.68
39.69
38.78
38.16
37.97
38.08
38.13
37.59
35.94
32.89
28.46
22.99
16.95
10.82
4.91
-0.68
-6.04
-11.4
-17.05
-23.28
-30.17
-37.45
-44.26
-49.31
-51.1
-48.35
-40.53
-28.08
-12.3
4.93
21.74
36.61
48.55
57.13
62.31
64.33
63.56
60.49
55.72
50.0
44.15
38.95
34.97
32.38
30.88
29.87
28.68
26.93
24.62
22.11
19.76
17.72
15.73
13.18
9.46
4.21
-2.4
-9.77
-17.1
-23.68
-29.16
-33.65
-37.55
-41.38
-45.62
-50.56
-56.31
-62.69
-69.11
-74.55
-77.65
-77.02
-71.7
-61.51
-47.21
-30.36
-12.92
3.25
16.75
26.78
33.14
36.13
36.33
34.51
31.51
28.15
25.19
23.19
22.46
23.0
24.56
26.75
29.13
31.41
33.44
35.15
36.38
36.74
35.61
32.19
25.85
16.41
4.42
-8.78
-21.36
-31.6
-38.54
-42.34
-44.22
-45.91
-49.02
-54.43
-62.19
-71.53
-81.2
-89.61
-95.1
-96.06
-91.4
-80.85
-65.26
-46.53
-27.04
-8.97
6.27
18.27
27.35
34.07
38.74
41.37
41.83
40.19
36.93
32.92
29.1
26.08
23.9
22.07
19.93
17.06
13.54
9.89
6.71
4.31
2.46
0.48
-2.4
-6.67
-12.27
-18.62
-24.91
-30.41
-34.77
-38.03
-40.52
-42.64
-44.79
-47.3
-50.5
-54.66
-59.76
-65.27
-70.05
-72.51
-71.12
-65.0
-54.38
-40.51
-25.27
-10.55
2.3
12.62
20.25
25.29
27.92
28.37
27.04
24.52
21.54
18.79
16.69
15.35
14.66
14.44
14.55
15.02
15.92
17.26
18.93
20.58
21.71
21.78
20.32
17.12
12.27
6.17
-0.61
-7.41
-13.74
-19.38
-24.51
-29.69
-35.6
-42.81
-51.34
-60.48
-68.73
-74.18
-75.06
-70.4
-60.39
-46.35
-30.31
-14.44
-0.44
10.73
18.8
23.96
26.57
27.0
25.57
22.67
18.82
14.65
10.85
7.9
6.03
5.17
5.13
5.76
7.1
9.3
12.46
16.39
20.52
24.03
26.06
26.08
24.02
20.31
15.54
10.33
5.04
-0.24
-5.69
-11.64
-18.5
-26.61
-35.99
-46.21
-56.19
-64.33
-68.77
-67.94
-61.02
-48.29
-31.07
-11.37
8.63
27.11
42.81
55.09
63.78
68.93
70.79
69.74
66.43
61.73
56.67
52.16
48.74
46.54
45.27
44.48
43.79
43.03
42.2
41.33
40.33
38.9
36.69
33.35
28.84
23.37
17.47
11.68
6.49
2.08
-1.65
-5.11
-8.83
-13.33
-18.9
-25.34
-31.94
-37.46
-40.37
-39.26
-33.31
-22.64
-8.34
7.82
23.93
38.37
50.15
58.91
64.64
67.58
67.95
66.1
62.52
57.94
53.17
48.95
45.66
43.24
41.31
39.37
37.05
34.27
31.2
28.1
25.13
22.24
19.06
15.12
9.99
3.5
-4.14
-12.42
-20.6
-28.06
-34.45
-39.87
-44.81
-49.97
-55.99
-63.15
-71.18
-79.18
-85.78
-89.39
-88.65
-82.78
-71.91
-57.04
-39.83
-22.12
-5.57
8.68
20.05
28.39
33.82
36.58
37.02
35.59
32.83
29.44
26.11
23.46
21.92
21.69
22.64
24.46
26.78
29.25
31.67
33.98
36.14
37.99
39.2
39.28
37.82
34.62
29.82
23.81
17.1
10.14
3.14
-3.89
-11.16
-18.93
-27.47
-36.81
-46.58
-55.86
-63.25
-67.14
-66.26
-60.16
-49.43
-35.6
-20.67
-6.49
5.63
15.02
21.53
25.22
26.22
24.72
21.14
16.2
10.94
6.42
3.43
2.32
2.9
4.63
6.85
9.06
10.95
12.5
13.77
14.84
15.64
15.93
15.31
13.38
9.83
4.69
-1.7
-8.71
-15.58
-21.7
-26.72
-30.69
-33.92
-36.93
-40.25
-44.27
-49.1
-54.34
-59.09
-62.04
-61.82
-57.43
-48.62
-36.04
-21.06
-5.38
9.4
22.12
32.08
39.01
42.89
43.91
42.39
38.81
33.86
28.29
22.91
18.42
15.26
13.58
13.16
13.56
14.23
14.74
14.88
14.59
13.94
12.85
11.14
8.48
4.64
-0.43
-6.42
-12.78
-18.92
-24.37
-29.01
-33.04
-36.9
-41.15
-46.29
-52.6
-59.95
-67.63
-74.37
-78.48
-78.31
-72.77
-61.82
-46.5
-28.71
-10.63
5.84
19.4
29.46
35.94
39.07
39.28
37.11
33.25
28.5
23.6
19.17
15.61
13.03
11.39
10.52
10.23
10.35
10.76
11.42
12.24
13.08
13.62
13.46
12.18
9.51
5.54
0.69
-4.41
-9.16
-13.22
-16.65
-19.86
-23.43
-27.92
-33.61
-40.33
-47.36
-53.43
-57.01
-56.66
-51.52
-41.65
-28.09
-12.61
2.86
16.68
27.91
36.28
41.91
45.05
45.82
44.3
40.7
35.49
29.54
23.84
19.3
16.38
14.99
14.61
14.57
14.4
13.97
13.48
13.18
13.16
13.11
12.48
10.64
7.17
2.09
-4.16
-10.78
-17.0
-22.19
-26.05
-28.74
-30.77
-32.9
-35.89
-40.27
-45.99
-52.37
-58.13
-61.66
-61.46
-56.56
-46.81
-32.85
-16.04
2.01
19.71
35.71
49.06
59.19
65.96
69.51
70.34
69.11
66.6
63.56
60.53
57.82
55.45
53.28
51.05
48.59
45.8
42.66
39.22
35.46
31.3
26.51
20.76
13.78
5.43
-4.12
-14.42
-24.77
-34.42
-42.8
-49.72
-55.44
-60.63
-66.12
-72.57
-80.2
-88.48
-96.11
-101.31
-102.23
-97.5
-86.7
-70.52
-50.5
-28.71
-7.19
12.36
28.75
41.26
49.63
53.97
54.74
52.8
49.17
44.95
41.04
38.01
36.09
35.14
34.85
34.81
34.74
34.52
34.19
33.93
33.77
33.58
32.87
31.03
27.51
22.16
15.25
7.49
-0.31
-7.58
-14.16
-20.39
-26.95
-34.55
-43.63
-54.09
-65.06
-74.97
-81.77
-83.43
-78.55
-66.85
-49.32
-27.94
-5.18
16.67
35.93
51.66
63.55
71.64
76.11
77.27
75.6
71.87
67.1
62.42
58.88
57.17
57.46
59.4
62.28
65.29
67.76
69.33
69.88
69.5
68.3
66.33
63.62
60.17
56.0
51.07
45.26
38.27
29.63
18.85
5.49
-10.66
-29.34
-49.74
-70.39
-89.21
-103.84
-112.01
-112.1
-103.47
-86.59
-62.92
-34.6
-4.16
25.79
52.81
74.98
91.07
100.58
103.61
100.58
92.0
78.4
60.57
39.76
17.87
-2.77
-19.94
-32.16
-39.09
-41.45
-40.55
-37.67
-33.65
-28.87
-23.62
-18.47
-14.41
-12.6
-13.79
-17.87
-23.67
-29.42
-33.48
-35.09
-34.71
-33.92
-34.83
-39.25
-47.95
-60.28
-74.16
-86.56
-94.32
-95.01
-87.59
-72.63
-52.02
-28.4
-4.42
17.68
36.34
50.6
59.97
64.5
64.8
62.11
58.23
55.09
54.31
56.68
61.98
69.14
76.81
83.89
89.87
94.75
98.65
101.35
102.16
100.12
94.44
84.91
71.97
56.42
39.02
20.27
0.46
-20.05
-40.51
-59.68
-76.04
-88.13
-94.94
-96.03
-91.38
-81.28
-66.2
-47.0
-25.05
-2.21
19.54
38.64
54.47
67.33
77.95
86.7
92.99
95.32
92.02
82.02
65.59
44.17
19.86
-5.37
-29.94
-52.5
-71.6
-85.53
-92.72
-92.59
-86.28
-76.72
-67.88
-63.44
-65.33
-73.1
-84.18
-95.03
-102.71
-105.9
-105.22
-102.63
-100.25
-99.26
-99.38
-98.97
-95.75
-87.57
-73.07
-51.98
-25.23
5.25
36.72
66.09
90.45
107.91
118.12
122.56
124.11
126.06
131.06
140.32
153.39
168.66
184.22
198.74
211.88
224.2
236.46
248.91
260.7
269.9
274.17
271.66
261.7
245.05
223.45
198.9
172.92
146.34
119.43
92.4
65.61
39.6
14.82
-8.59
-30.82
-52.12
-72.56
-91.93
-109.79
-125.73
-139.23
-149.51
-155.43
-155.66
-149.31
-136.7
-119.8
-101.85
-86.37
-75.88
-71.03
-70.63
-72.37
-73.91
-73.74
-71.43
-67.37
-62.25
-56.58
-50.56
-44.12
-37.27
-30.25
-23.64
-18.11
-14.08
-11.51
-9.79
-8.03
-5.55
-2.23
1.22
3.53
3.36
-0.13
-7.0
-16.59
-27.9
-40.07
-52.79
-66.41
-81.68
-99.34
-119.71
-142.38
-166.0
-188.14
-205.43
-214.0
-210.41
-192.79
-161.85
-121.05
-75.84
-32.13
5.47
34.57
55.12
68.4
75.97
78.85
77.51
72.36
64.26
54.72
45.5
38.06
32.97
29.85
27.63
25.09
21.54
17.0
12.2
8.12
5.5
4.43
4.18
3.46
0.85
-4.61
-13.06
-23.74
-35.28
-46.26
-55.71
-63.38
-69.81
-76.0
-83.12
-92.14
-103.51
-116.89
-130.79
-142.63
-149.11
-147.21
-135.27
-113.81
-85.59
-54.77
-25.65
-1.46
16.15
26.94
31.53
30.78
25.63
17.16
6.8
-3.71
-12.6
-18.57
-21.14
-20.73
-18.42
-15.49
-12.86
-10.9
-9.36
-7.71
-5.58
-3.06
-0.75
0.39
-0.49
-3.78
-9.22
-15.95
-22.8
-28.68
-32.91
-35.37
-36.55
-37.43
-39.22
-43.07
-49.68
-58.89
-69.34
-78.48
-83.03
-79.89
-67.15
-44.85
-15.16
18.25
51.12
79.7
101.43
115.1
120.65
118.79
110.66
97.62
81.27
63.22
45.12
28.45
14.41
3.79
-3.12
-6.59
-7.37
-6.59
-5.42
-4.72
-4.85
-5.71
-6.92
-8.17
-9.31
-10.41
-11.61
-12.96
-14.32
-15.53
-16.46
-17.19
-18.0
-19.21
-21.14
-24.07
-28.39
-34.74
-43.93
-56.71
-73.26
-92.67
-112.77
-130.34
-141.99
-145.23
-139.41
-125.93
-107.77
-88.47
-70.93
-56.76
-46.22
-38.68
-33.35
-29.77
-27.78
-27.3
-27.97
-28.94
-29.14
-27.57
-23.76
-17.96
-11.09
-4.41
0.96
4.33
5.69
5.58
4.75
3.78
2.75
1.11
-2.04
-7.61
-15.99
-26.82
-39.07
-51.35
-62.44
-71.78
-79.52
-86.44
-93.68
-102.37
-113.35
-126.9
-142.3
-157.57
-169.5
-174.22
-168.23
-149.72
-119.38
-80.54
-38.2
2.36
36.97
63.45
81.55
92.36
97.43
98.24
95.95
91.48
85.79
79.87
74.73
71.2
69.71
70.23
72.35
75.42
78.75
81.7
83.67
84.2
82.95
79.84
75.05
69.02
62.26
55.06
47.44
39.11
29.71
19.03
7.27
-5.03
-17.11
-28.29
-38.2
-46.85
-54.72
-62.65
-71.79
-83.28
-97.64
-114.09
-130.2
-142.11
-145.52
-137.16
-116.08
-84.08
-45.26
-4.66
33.23
65.4
90.63
109.07
121.55
129.08
132.64
133.19
131.82
129.68
127.85
127.13
127.88
130.0
133.13
136.94
141.23
146.02
151.24
156.55
161.18
163.99
163.78
159.75
151.78
140.44
126.81
112.03
96.91
81.76
66.43
50.58
34.07
17.21
0.76
-14.27
-27.01
-37.11
-45.02
-51.81
-59.01
-68.17
-80.34
-95.6
-112.51
-128.05
-138.03
-138.12
-125.3
-99.1
-62.11
-19.34
23.3
60.75
90.09
110.73
123.69
130.48
132.17
129.17
121.59
109.85
95.12
79.16
63.92
50.9
40.81
33.6
28.78
25.79
24.24
23.85
24.23
24.83
24.88
23.61
20.53
15.49
8.6
0.16
-9.59
-20.45
-32.17
-44.4
-56.62
-68.16
-78.38
-86.78
-93.17
-97.81
-101.38
-104.98
-109.78
-116.49
-124.69
-132.45
-136.59
-133.56
-120.81
-97.81
-66.46
-30.52
5.68
38.5
65.72
86.55
101.13
109.94
113.47
112.35
107.5
100.3
92.34
85.07
79.39
75.53
73.18
71.76
70.82
70.23
70.21
71.06
72.9
75.33
77.46
78.01
75.77
70.06
60.97
49.46
36.99
25.08
14.77
6.29
-0.87
-7.84
-15.95
-26.29
-39.23
-53.92
-68.15
-78.53
-81.37
-73.83
-55.07
-26.73
7.52
43.06
75.73
102.72
122.78
135.82
142.18
142.16
135.99
124.06
107.31
87.37
66.33
46.43
29.49
16.61
7.96
2.88
0.25
-1.16
-2.32
-3.87
-6.09
-9.15
-13.19
-18.53
-25.52
-34.43
-45.22
-57.4
-70.12
-82.33
-93.15
-102.15
-109.41
-115.55
-121.47
-128.19
-136.57
-146.94
-158.68
-169.95
-177.67
-178.14
-168.16
-146.25
-113.47
-73.3
-30.6
9.77
44.28
71.22
90.46
102.71
108.83
109.55
105.64
98.19
88.78
79.22
71.13
65.49
62.43
61.32
61.19
61.19
60.91
60.58
60.81
62.29
65.28
69.27
72.99
74.77
73.13
67.44
58.28
47.28
36.54
27.79
21.79
18.08
15.24
11.45
5.16
-4.32
-16.25
-28.31
-36.75
-37.12
-25.51
0.01
38.28
84.89
133.1
175.6
206.42
222.45
223.7
212.65
192.89
167.81
139.84
110.32
80.03
49.75
20.62
-5.87
-28.41
-46.44
-60.42
-71.74
-82.05
-92.57
-103.57
-114.35
-123.71
-130.73
-135.3
-138.31
-141.29
-145.69
-152.2
-160.46
-169.09
-176.32
-180.62
-181.28
-178.58
-173.61
-167.91
-163.06
-160.36
-160.42
-162.74
-165.31
-164.59
-156.03
-135.54
-101.02
-53.56
2.43
60.43
113.8
157.66
189.79
210.26
220.43
221.76
215.29
201.89
182.81
160.01
136.01
113.31
93.69
77.87
65.55
55.88
47.92
40.97
34.73
29.06
23.86
18.76
13.12
5.98
-3.63
-16.47
-32.75
-51.96
-72.85
-93.81
-113.26
-130.17
-144.34
-156.53
-168.07
-180.55
-195.18
-212.27
-230.69
-247.72
-259.14
-260.16
-246.6
-216.38
-170.69
-114.0
-53.17
4.43
52.77
88.5
111.15
122.32
124.55
120.28
111.47
99.78
86.93
74.88
65.54
60.2
59.14
61.43
65.41
69.34
72.11
73.48
73.95
74.27
74.71
74.73
73.0
67.88
58.18
43.76
25.76
6.25
-12.46
-28.72
-42.0
-53.0
-63.21
-74.37
-87.83
-104.15
-122.75
-141.57
-157.13
-164.97
-160.85
-142.23
-109.55
-66.54
-19.27
25.66
63.17
90.76
108.52
118.02
121.06
118.93
112.37
102.17
89.6
76.49
64.7
55.39
48.66
43.56
38.7
33.01
26.22
18.99
12.45
7.56
4.41
2.02
-1.36
-7.56
-17.62
-31.16
-46.45
-61.01
-72.63
-80.24
-84.26
-86.36
-88.69
-93.26
-101.27
-112.82
-126.57
-139.61
-147.66
-145.96
-130.61
-100.27
-56.96
-5.83
46.37
93.4
131.13
158.07
174.84
182.94
183.84
178.76
169.0
156.42
143.39
132.28
124.61
120.35
117.94
114.83
108.57
97.82
82.83
65.23
47.27
30.79
16.58
4.21
-7.49
-19.63
-32.57
-45.71
-57.77
-67.46
-74.25
-78.73
-82.47
-87.58
-95.94
-108.56
-125.04
-143.38
-160.07
-170.63
-170.57
-156.66
-128.23
-87.68
-40.12
8.02
50.86
84.57
107.89
121.66
127.6
127.31
121.85
112.01
98.89
84.16
69.81
57.46
47.75
40.16
33.46
26.53
18.96
11.24
4.36
-0.9
-4.64
-7.99
-12.75
-20.59
-32.34
-47.55
-64.65
-81.51
-96.27
-108.0
-117.02
-124.69
-132.98
-143.73
-158.0
-175.38
-193.63
-208.68
-215.39
-208.82
-185.93
-146.84
-95.25
-37.66
18.49
66.77
103.27
126.92
138.88
141.35
136.69
127.01
