59.21
36.96
16.5
-2.37
-20.74
-40.32
-62.88
-89.51
-119.88
-151.78
-181.19
-203.02
-212.52
-206.84
-186.29
-154.61
-118.06
-83.58
-56.87
-41.03
-36.41
-41.27
-52.84
-68.17
-84.32
-98.27
-106.9
-107.38
-97.86
-78.24
-50.41
-17.67
16.18
48.11
76.46
101.05
122.64
142.13
159.89
175.49
187.84
195.6
197.82
194.43
186.49
176.03
165.45
156.71
150.54
146.02
140.61
130.94
113.91
88.09
54.75
18.15
-15.3
-38.73
-47.17
-39.28
-18.02
10.27
38.1
59.26
70.57
72.21
66.66
56.9
44.93
31.27
15.4
-3.15
-23.93
-45.25
-64.68
-79.87
-89.37
-92.82
-90.74
-83.99
-73.2
-58.67
-40.67
-19.96
1.72
21.62
36.51
43.52
40.98
28.95
9.03
-16.2
-44.05
-72.4
-100.02
-126.68
-152.81
-179.05
-205.61
-231.49
-254.14
-269.52
-273.1
-261.17
-232.07
-186.89
-129.3
-64.83
0.22
59.77
108.79
143.97
163.97
169.57
163.27
148.61
129.35
108.76
89.34
72.72
59.82
50.9
45.58
42.95
41.88
41.33
40.66
39.5
37.64
34.68
29.99
22.72
12.14
-2.09
-19.68
-39.71
-60.85
-81.68
-101.19
-119.21
-136.4
-153.62
-171.05
-187.2
-198.69
-201.11
-190.35
-164.15
-122.81
-69.07
-7.4
56.73
117.28
168.02
203.0
217.63
209.87
181.06
135.92
81.3
24.45
-28.61
-74.02
-110.04
-136.41
-153.71
-162.82
-164.96
-161.81
-155.6
-148.91
-144.24
-143.31
-146.63
-153.48
-162.35
-171.65
-180.36
-188.3
-195.92
-203.95
-213.14
-224.08
-237.16
-252.4
-269.11
-285.51
-298.75
-305.56
-303.22
-290.59
-268.58
-239.78
-207.51
-174.74
-143.41
-114.33
-87.59
-62.92
-39.92
-18.01
3.71
26.32
50.78
77.39
105.41
133.02
157.8
177.52
190.9
198.11
200.48
199.83
197.59
194.22
189.19
181.63
171.0
157.48
141.96
125.48
108.71
91.64
73.75
54.25
32.47
8.05
-18.76
-46.74
-73.59
-96.02
-110.46
-114.17
-106.14
-87.46
-60.69
-28.77
6.08
42.49
79.43
115.2
147.06
171.65
186.27
190.07
184.53
172.86
158.73
144.99
133.15
123.62
116.29
111.2
108.61
108.59
110.61
113.32
114.78
113.14
107.18
96.77
82.79
66.69
49.98
33.71
18.29
3.5
-11.42
-27.58
-46.08
-67.62
-91.78
-116.63
-138.61
-153.38
-156.99
-147.2
-124.14
-90.07
-48.56
-3.49
41.59
83.58
119.77
147.82
166.15
174.35
173.5
165.87
154.35
141.72
130.01
120.43
113.38
108.68
105.89
104.45
103.91
103.92
104.22
104.38
103.69
101.2
95.95
87.31
75.29
60.54
44.23
27.63
11.79
-2.76
-16.14
-29.06
-42.69
-58.33
-76.93
-98.45
-121.26
-141.99
-156.09
-159.05
-147.9
-122.34
-85.03
-40.83
4.69
46.75
82.25
109.88
129.52
141.56
146.46
144.8
137.54
126.27
113.14
100.43
90.04
82.98
79.26
78.05
78.16
78.56
78.65
78.32
77.69
76.79
75.32
72.59
67.72
60.0
49.19
35.71
20.53
4.95
-9.9
-23.33
-35.34
-46.48
-57.64
-69.81
-83.84
-100.07
-118.09
-136.37
-152.13
-161.73
-161.5
-148.87
-123.45
-87.32
-44.61
-0.32
40.9
75.75
102.55
120.99
131.57
135.28
133.37
127.39
119.14
110.43
102.67
96.52
91.69
87.16
81.66
74.23
64.63
53.3
41.19
29.34
18.58
9.37
1.84
-4.16
-9.01
-13.29
-17.71
-22.93
-29.43
-37.32
-46.38
-56.09
-65.87
-75.28
-84.14
-92.62
-101.25
-110.85
-122.25
-135.82
-150.91
-165.41
-175.97
-178.77
-170.74
-150.68
-119.88
-81.77
-40.91
-1.74
32.48
59.98
80.32
93.83
101.2
103.2
100.7
94.74
86.58
77.59
69.18
62.51
58.37
56.96
57.96
60.61
63.95
67.03
69.15
69.9
69.09
66.71
62.78
57.33
50.44
42.2
32.81
22.44
11.37
-0.15
-11.82
-23.32
-34.39
-44.83
-54.65
-64.12
-73.82
-84.5
-96.84
-110.92
-125.8
-139.3
-148.27
-149.37
-140.25
-120.39
-91.48
-57.02
-21.26
11.93
39.82
61.13
75.71
84.01
86.74
84.68
78.8
70.31
60.71
51.57
44.19
39.36
37.17
37.11
38.33
39.98
41.45
42.48
43.06
43.24
42.91
41.71
39.1
34.47
27.44
18.04
6.81
-5.31
-17.25
-28.14
-37.64
-45.99
-53.99
-62.7
-73.08
-85.63
-100.03
-114.92
-127.9
-135.94
-136.02
-126.15
-106.07
-77.58
-44.1
-9.71
21.9
48.26
68.29
81.94
89.65
91.88
89.13
82.1
71.97
60.4
49.24
40.04
33.66
30.08
28.59
28.29
28.45
28.78
29.38
30.39
31.64
32.5
31.98
29.07
23.2
14.46
3.63
-8.1
-19.56
-29.99
-39.25
-47.77
-56.36
-65.92
-77.22
-90.5
-105.18
-119.64
-131.29
-137.1
-134.42
-121.89
-100.03
-71.18
-38.86
-6.8
21.99
45.63
63.39
75.31
81.75
83.19
80.19
73.64
64.75
55.04
46.1
39.17
34.87
33.08
33.14
34.13
35.29
36.23
36.88
37.3
37.47
37.03
35.34
31.69
25.53
16.8
5.98
-5.96
-17.92
-28.97
-38.69
-47.26
-55.35
-63.94
-73.95
-85.99
-99.97
-114.89
-128.74
-138.72
-141.85
-135.83
-119.86
-95.02
-64.12
-30.91
0.93
28.63
50.64
66.55
76.61
81.37
81.45
77.66
71.07
63.06
55.13
48.58
44.22
42.15
41.91
42.77
44.04
45.38
46.78
48.47
50.55
52.77
54.43
54.55
52.21
46.98
39.13
29.58
19.6
10.4
2.69
-3.44
-8.49
-13.35
-19.09
-26.61
-36.39
-48.05
-60.17
-70.31
-75.59
-73.5
-62.77
-43.92
-19.12
8.39
35.24
58.68
76.96
89.29
95.55
96.0
91.09
81.59
68.62
53.72
38.71
25.35
14.95
8.01
4.25
2.81
2.71
3.24
4.09
5.25
6.7
8.07
8.7
7.68
4.25
-1.9
-10.51
-20.76
-31.48
-41.5
-49.9
-56.35
-61.13
-65.09
-69.49
-75.61
-84.42
-96.16
-109.95
-123.79
-134.7
-139.46
-135.44
-121.45
-98.24
-68.31
-35.33
-3.04
25.56
48.68
65.76
77.0
82.91
84.09
81.13
74.86
66.4
57.17
48.57
41.66
36.94
34.28
33.16
32.97
33.23
33.72
34.39
35.21
35.91
36.01
34.8
31.59
25.94
17.87
7.93
-2.99
-13.9
-24.04
-33.13
-41.31
-49.11
-57.18
-66.22
-76.69
-88.56
-101.04
-112.43
-120.28
-122.02
-115.75
-101.01
-79.04
-52.5
-24.61
1.6
24.02
41.59
54.06
61.65
64.8
64.04
60.07
53.82
46.42
39.01
32.58
27.73
24.56
22.72
21.61
20.62
19.38
17.77
15.88
13.75
11.21
7.8
2.91
-4.0
-13.09
-24.05
-36.23
-48.76
-60.91
-72.22
-82.52
-91.88
-100.46
-108.43
-115.8
-122.22
-126.79
-128.02
-123.97
-112.87
-93.7
-66.81
-34.06
1.62
36.9
68.85
95.52
115.95
130.03
138.1
140.66
138.29
131.73
122.01
110.48
98.73
88.26
80.16
74.82
71.85
70.36
69.36
68.27
67.05
66.17
66.15
67.19
68.87
70.27
70.36
68.43
64.51
59.39
54.37
50.81
49.66
51.26
55.18
60.27
64.79
66.71
64.16
56.16
43.21
27.45
12.29
1.33
-2.84
0.47
9.97
23.03
36.74
48.84
58.07
63.94
66.16
64.3
57.71
45.97
29.32
8.99
-12.91
-33.87
-51.66
-65.01
-73.88
-79.32
-82.89
-85.99
-89.33
-92.82
-95.92
-98.2
-99.76
-101.31
-103.74
-107.66
-112.81
-118.16
-122.29
-124.11
-123.42
-121.07
-118.62
-117.81
-120.0
-125.69
-134.45
-144.79
-154.33
-160.14
-159.28
-149.6
-130.4
-102.79
-69.46
-33.95
0.35
30.93
56.58
77.16
93.22
105.57
115.04
122.48
128.75
134.57
140.32
145.86
150.54
153.57
154.46
153.51
151.82
151.04
152.67
157.4
164.61
172.37
177.73
177.57
169.29
151.57
124.61
89.95
50.05
7.81
-33.85
-72.16
-104.67
-129.62
-146.3
-155.2
-157.61
-154.85
-147.32
-134.15
-113.69
-84.65
-47.37
-4.31
40.38
82.1
117.09
143.23
159.91
167.41
166.24
156.69
139.02
113.97
83.24
49.64
16.73
-11.94
-33.65
-47.15
-52.75
-51.9
-46.47
-38.13
-27.98
-16.62
-4.5
7.76
19.05
27.86
32.47
31.45
24.0
10.27
-8.7
-31.25
-55.59
-80.28
-104.46
-127.89
-150.77
-173.39
-195.86
-217.75
-237.73
-253.42
-261.42
-258.03
-240.39
-207.68
-161.91
-107.84
-51.73
0.33
43.94
77.21
100.47
115.39
123.99
128.02
128.9
128.01
126.73
126.34
127.6
130.49
134.2
137.51
139.32
139.08
136.87
133.15
128.36
122.55
115.23
105.55
92.66
76.02
55.74
32.66
8.22
-15.9
-38.12
-57.4
-73.53
-87.19
-99.79
-113.0
-128.15
-145.62
-164.41
-182.08
-195.25
-200.35
-194.77
-177.7
-150.6
-116.95
-81.51
-49.07
-23.44
-6.7
0.98
0.89
-4.78
-13.67
-23.67
-33.14
-40.88
-46.1
-48.49
-48.32
-46.4
-44.02
-42.44
-42.5
-44.24
-46.97
-49.67
-51.61
-52.81
-54.15
-56.96
-62.42
-70.91
-81.9
-94.05
-105.82
-115.99
-124.11
-130.55
-136.36
-142.85
-151.23
-162.16
-175.4
-189.43
-201.45
-207.58
-203.64
-186.39
-154.77
-110.62
-58.48
-4.4
45.82
88.18
121.12
145.27
162.38
174.3
182.25
186.95
188.97
189.2
188.9
189.45
191.87
196.44
202.63
209.35
215.28
219.32
220.79
219.48
215.33
208.17
197.44
182.2
161.44
134.4
101.06
62.27
19.7
-24.45
-67.82
-108.28
-144.22
-174.7
-199.56
-219.25
-234.57
-246.3
-254.65
-258.96
-257.52
-247.94
-227.74
-195.43
-151.32
-98.13
-40.68
14.98
62.98
98.97
120.92
129.15
125.76
113.78
96.43
76.71
57.24
40.1
26.72
17.67
12.64
10.53
9.87
9.29
7.89
5.4
2.04
-1.78
-5.77
-9.99
-14.92
-21.19
-29.37
-39.63
-51.52
-64.11
-76.24
-86.83
-95.24
-101.36
-105.7
-109.22
-112.99
-117.89
-124.04
-130.49
-135.16
-135.16
-127.55
-110.37
-83.39
-48.47
-9.26
29.76
64.32
91.35
109.45
118.76
120.49
116.33
107.94
96.75
84.05
71.03
58.96
48.94
41.72
37.43
35.51
34.99
34.75
33.97
32.31
29.83
26.72
22.93
18.02
11.28
1.94
-10.25
-24.82
-40.53
-55.62
-68.46
-78.04
-84.37
-88.5
-92.22
-97.53
-105.98
-118.12
-133.05
-148.26
-159.87
-163.23
-154.06
-129.73
-90.42
-39.53
16.9
71.72
118.52
153.24
174.67
183.98
183.54
175.8
162.65
145.51
125.84
105.41
86.39
70.75
59.75
53.47
50.95
50.57
50.68
50.01
47.88
44.16
38.94
32.28
24.14
14.32
2.66
-10.76
-25.57
-41.14
-56.73
-71.75
-85.88
-99.09
-111.55
-123.52
-135.35
-147.43
-160.3
-174.48
-190.17
-206.74
-222.28
-233.54
-236.43
-227.0
-202.71
-163.35
-111.5
-52.19
8.18
63.29
108.27
140.58
160.11
168.64
168.94
163.88
155.95
147.11
138.93
132.63
129.06
128.48
130.43
133.82
137.36
139.95
141.06
140.71
139.27
137.11
134.3
130.45
124.82
116.52
104.84
89.51
70.74
49.09
25.31
-0.04
-26.65
-54.43
-83.32
-113.06
-142.89
-171.4
-196.51
-215.55
-225.73
-224.65
-211.03
-185.31
-149.88
-108.77
-66.84
-28.72
2.15
24.02
36.75
41.32
39.23
32.08
21.48
9.08
-3.35
-14.12
-21.92
-26.11
-26.87
-24.94
-21.33
-16.9
-12.21
-7.59
-3.39
-0.23
0.96
-0.86
-6.53
-16.28
-29.52
-44.98
-60.97
-75.98
-89.15
-100.48
-110.95
-122.12
-135.49
-151.68
-169.64
-186.39
-197.62
-198.84
-186.8
-160.65
-122.22
-75.45
-25.41
22.95
65.65
99.96
124.54
139.12
144.36
141.66
132.96
120.46
106.33
92.45
80.23
70.5
63.48
58.85
55.99
54.15
52.57
50.5
47.18
41.77
33.54
21.97
7.13
-10.35
-29.24
-48.08
-65.52
-80.71
-93.56
-104.75
-115.58
-127.39
-140.92
-155.57
-169.11
-177.92
-178.06
-166.44
-141.91
-105.69
-60.98
-12.13
36.39
80.72
118.07
146.73
166.09
176.46
178.93
175.17
167.16
156.91
146.35
137.12
130.52
127.31
127.58
130.92
136.54
143.56
151.22
158.79
165.43
170.18
171.96
169.99
164.06
154.81
143.5
131.67
120.5
110.43
100.89
90.48
77.42
60.08
37.82
11.52
-15.97
-40.11
-55.69
-58.28
-45.74
-19.12
17.52
58.28
97.08
129.17
151.87
164.43
167.37
161.77
148.89
130.2
107.62
83.58
60.7
41.25
26.55
16.63
10.42
6.32
2.96
-0.29
-3.24
-5.28
-6.04
-5.94
-6.25
-8.81
-15.25
-26.32
-41.46
-59.04
-76.86
-92.99
-106.47
-117.5
-127.45
-138.28
-152.02
-169.89
-191.59
-214.74
-234.9
-246.41
-243.93
-224.24
-187.58
-137.91
-81.82
-26.62
21.63
59.35
85.54
101.0
107.28
105.94
98.44
86.47
72.27
58.52
47.88
42.2
41.94
46.09
52.64
59.39
64.8
68.36
70.55
72.32
74.4
76.75
78.4
77.75
73.27
64.15
50.8
34.84
18.51
3.98
-7.46
-15.78
-22.15
-28.66
-37.69
-51.26
-70.33
-94.14
-119.74
-142.28
-156.0
-155.84
-139.23
-107.1
-63.73
-15.46
31.25
71.46
102.6
124.15
136.88
141.88
140.22
132.98
121.58
107.86
93.94
81.64
72.07
65.36
60.81
57.36
54.14
50.83
47.71
45.46
44.7
45.56
47.43
49.1
49.07
46.13
39.85
30.8
20.37
10.22
1.79
-4.3
-8.3
-11.23
-14.46
-19.35
-26.83
-37.11
-49.52
-62.34
-72.93
-78.22
-75.58
-63.73
-43.47
-17.63
9.64
34.08
52.5
63.46
67.16
64.74
57.58
46.66
32.53
15.53
-3.81
-24.48
-45.03
-63.79
-79.34
-90.83
-98.23
-102.26
-104.0
-104.49
-104.38
-103.84
-102.84
-101.59
-100.72
-101.25
-104.22
-110.09
-118.54
-128.56
-138.95
-148.83
-158.01
-166.82
-175.8
-185.38
-195.83
-207.41
-220.32
-234.31
-248.2
-259.51
-264.77
-260.55
-244.67
-216.92
-179.03
-133.94
-84.95
-35.32
11.68
52.65
84.24
103.88
110.72
106.13
93.36
76.64
59.95
46.25
37.31
33.81
35.64
42.03
51.6
62.45
72.54
80.04
83.64
82.7
77.12
67.29
54.08
38.74
22.79
7.71
-5.42
-16.28
-25.32
-33.6
-42.46
-53.2
-66.73
-83.3
-102.01
-120.71
-136.01
-144.02
-141.45
-126.62
-99.96
-63.87
-21.84
22.39
65.42
104.43
137.23
162.22
178.59
186.43
186.8
181.39
172.1
160.58
148.05
135.32
122.95
111.39
100.98
91.99
84.44
78.06
72.17
65.66
57.12
45.2
29.1
8.88
-14.37
-38.86
-62.68
-84.28
-102.88
-118.47
-131.6
-143.11
-153.97
-165.13
-177.24
-190.13
-202.41
-211.47
-213.99
-207.15
-189.71
-162.39
-127.51
-87.88
-45.85
-3.02
39.24
79.11
113.99
141.01
158.11
164.95
163.16
155.66
145.62
135.38
126.17
118.34
111.88
106.96
103.95
103.13
104.36
106.8
109.01
109.33
106.4
99.6
89.28
76.52
62.75
49.18
36.42
24.39
12.42
-0.49
-15.35
-32.79
-52.61
-73.35
-92.17
-105.2
-108.54
-99.54
-77.83
-45.73
-7.62
31.33
66.63
95.45
116.78
130.95
138.84
141.28
138.93
132.37
122.42
110.23
97.22
84.72
73.72
64.69
57.63
52.27
48.23
45.05
42.21
39.01
34.67
28.47
20.05
9.51
-2.54
-15.26
-27.85
-39.88
-51.43
-63.14
-75.97
-90.75
-107.61
-125.36
-141.38
-151.86
-152.85
-141.51
-117.21
-81.94
-39.81
4.11
45.16
80.0
106.98
125.85
137.23
142.09
141.57
136.9
129.43
120.65
111.99
104.66
99.48
96.79
96.46
98.09
101.07
104.76
108.5
111.68
113.71
114.13
112.66
109.26
104.25
98.18
91.79
85.75
80.46
75.73
70.78
64.51
56.27
46.63
37.95
34.1
39.46
57.34
88.54
130.85
179.51
228.51
272.0
305.23
325.05
329.95
320.03
296.94
263.72
224.24
182.3
140.6
100.12
60.36
20.24
-20.67
-61.45
-99.87
-133.33
-159.91
-179.24
-192.45
-201.61
-208.85
-215.76
-223.14
-231.17
-239.76
-248.72
-257.79
-266.67
-275.0
-282.58
-289.29
-295.04
-299.31
-300.85
-297.63
-287.24
-267.71
-238.34
-200.28
-156.44
-110.84
-67.7
-30.48
-1.26
19.38
32.08
38.26
39.67
38.08
35.04
31.84
29.42
28.4
29.07
31.53
35.7
41.42
48.47
56.53
65.13
73.64
81.28
87.3
91.18
92.79
92.53
91.19
89.68
88.66
88.26
87.91
86.53
82.99
76.7
68.17
59.24
52.88
52.44
60.66
78.63
105.31
137.54
170.89
200.75
223.51
237.18
241.53
237.59
226.89
210.92
190.74
167.13
140.78
112.59
83.73
55.52
29.25
5.87
-14.08
-30.54
-43.84
-54.68
-63.89
-72.34
-80.73
-89.42
-98.38
-107.31
-115.83
-123.67
-130.82
-137.6
-144.62
-152.68
-162.45
-173.97
-186.16
-196.66
-202.08
-199.01
-185.3
-161.02
-128.74
-92.86
-58.18
-28.52
-5.8
9.91
19.78
25.41
28.16
28.99
28.59
27.56
26.51
25.97
26.32
27.64
29.86
32.79
36.29
40.23
44.41
48.47
51.85
53.86
53.96
51.85
47.69
41.95
35.17
27.77
19.76
10.74
0.12
-12.53
-27.06
-42.34
-56.27
-66.08
-69.08
-63.56
-49.53
-28.92
-5.2
17.55
35.8
47.38
51.82
50.05
43.73
34.59
23.96
12.77
1.67
-8.76
-17.9
-25.25
-30.55
-33.99
-36.02
-37.16
-37.76
-37.87
-37.33
-36.05
-34.26
-32.55
-31.78
-32.66
-35.56
-40.34
-46.41
-53.03
-59.61
-65.99
-72.42
-79.58
-88.3
-99.28
-112.63
-127.54
-141.94
-152.62
-155.91
-148.71
-129.71
-100.08
-63.38
-24.51
11.67
41.68
63.99
78.76
87.09
90.17
89.0
84.36
77.25
69.03
61.25
55.33
52.08
51.54
52.99
55.37
57.74
59.48
60.47
60.92
61.12
61.19
60.94
59.88
57.36
52.91
46.34
37.93
28.27
18.17
8.32
-0.86
-9.24
-17.03
-24.67
-32.76
-41.97
-52.93
-65.91
-80.58
-95.74
-109.44
-119.31
-123.28
-120.16
-110.01
-94.16
-74.81
-54.5
-35.56
-19.81
-8.44
-2.02
-0.52
-3.27
-9.0
-15.96
-22.17
-25.94
-26.38
-23.62
-18.78
-13.57
-9.59
-7.84
-8.46
-10.87
-14.25
-18.02
-22.09
-26.81
-32.57
-39.36
-46.52
-52.88
-57.12
-58.4
-56.74
-53.12
-49.18
-46.68
-46.98
-50.67
-57.25
-65.15
-71.93
-74.64
-70.55
-57.95
-36.81
-8.93
22.41
53.4
80.83
102.71
118.56
128.85
134.41
136.01
134.23
129.8
123.96
118.39
114.89
114.66
117.73
122.8
127.61
129.72
127.25
119.27
105.83
87.66
65.89
41.84
17.03
-6.98
-28.79
-47.52
-63.07
-76.17
-88.16
-100.41
-113.82
-128.42
-143.04
-155.42
-162.46
-160.81
-147.73
-121.91
-84.05
-36.95
15.08
67.07
114.51
154.1
184.08
204.13
215.0
217.93
214.18
204.84
190.82
173.14
153.16
132.66
113.5
96.97
83.2
70.99
58.17
42.54
22.75
-1.27
-28.4
-56.89
-85.02
-111.4
-135.16
-155.77
-173.06
-187.2
-198.82
-208.81
-217.82
-225.69
-230.97
-230.91
-222.2
-202.07
-169.34
-125.11
-72.57
-16.24
39.17
89.82
133.27
168.53
195.7
215.47
228.75
236.5
239.64
239.06
235.64
230.22
223.65
216.72
210.0
203.62
197.02
188.97
177.82
162.0
140.58
113.61
82.1
47.73
12.45
-21.92
-53.82
-82.17
-106.52
-127.21
-145.38
-162.55
-179.83
-197.05
-212.22
-221.9
-222.29
-210.75
-187.01
-153.6
-115.13
-76.88
-43.3
-17.04
1.23
12.22
17.16
17.16
13.01
5.38
-4.72
-15.81
-26.12
-34.06
-38.79
-40.5
-40.28
-39.57
-39.55
-40.75
-42.92
-45.4
-47.55
-49.18
-50.7
-53.05
-57.35
-64.56
-75.08
-88.48
-103.15
-116.23
-123.93
-122.37
-108.83
-82.83
-46.74
-5.28
35.81
71.35
98.05
114.82
122.37
122.26
116.17
105.52
91.55
75.53
58.79
42.65
28.11
15.69
5.44
-2.87
-9.53
-14.75
-18.71
-21.71
-24.23
-26.99
-30.74
-35.98
-42.74
-50.56
-58.67
-66.29
-73.08
-79.19
-85.23
-91.86
-99.24
-106.63
-112.21
-113.4
-107.56
-92.88
-69.18
-38.15
-3.09
31.99
63.34
88.19
104.96
113.13
112.88
104.94
90.55
71.59
50.5
30.0
12.46
-0.64
-9.16
-14.17
-17.55
-21.25
-26.65
-34.19
-43.37
-53.26
-63.05
-72.56
-82.39
-93.62
-107.3
-123.94
-143.19
-163.71
-183.14
-198.23
-205.28
-201.0
-183.59
-153.69
-114.67
-71.82
-30.83
4.02
30.92
50.41
64.4
74.77
82.48
87.41
89.01
87.13
82.58
77.12
72.91
71.69
74.16
79.7
86.68
93.15
97.62
99.55
99.27
97.51
94.65
90.38
83.73
73.64
59.44
41.18
19.45
-4.89
-30.72
-56.37
-79.19
-95.55
-101.61
-94.64
-74.44
-43.92
-8.57
25.24
52.06
68.81
75.07
72.45
63.47
50.55
35.5
19.5
3.35
-12.24
-26.53
-38.81
-48.48
-55.18
-58.83
-59.6
-57.89
-54.25
-49.29
-43.6
-37.69
-31.96
-26.69
-22.19
-18.79
-16.92
-17.03
-19.61
-25.17
-34.07
-46.21
-60.43
-74.1
-83.04
-82.38
-68.0
-38.24
5.0
56.33
108.26
153.33
186.11
204.31
208.67
201.84
187.16
167.77
146.22
124.47
104.01
85.57
68.91
52.83
35.54
15.5
-7.75
-33.16
-58.5
-81.12
-98.93
-111.11
-118.23
-121.9
-124.23
-127.11
-131.85
-138.96
-148.28
-159.35
-171.94
-186.2
-202.35
-219.92
-236.98
-249.88
-254.06
-245.45
-221.93
-184.07
-134.78
-78.41
-19.67
37.01
87.67
128.94
158.35
174.82
179.07
173.54
161.57
146.51
130.89
116.24
103.38
92.83
84.93
79.7
76.64
74.66
72.34
68.43
62.23
53.8
43.85
33.35
23.07
13.29
3.68
-6.58
-18.54
-33.27
-51.39
-72.7
-95.72
-117.43
-133.6
-139.65
-131.98
-109.31
-73.4
-28.7
18.78
63.16
100.01
127.05
143.94
151.54
151.2
144.25
131.98
115.76
97.16
77.92
59.69
43.76
30.89
21.33
14.92
11.26
9.73
9.51
9.61
8.96
6.67
2.25
-4.28
-12.33
-21.13
-29.98
-38.64
-47.44
-57.36
-69.66
-85.31
-104.21
-124.46
-142.19
-152.2
-149.43
-130.73
-96.24
-49.62
2.92
54.51
99.44
134.35
158.23
171.66
175.83
171.94
161.19
145.13
125.92
106.24
88.69
75.11
66.05
60.78
57.79
55.51
53.01
50.12
47.19
44.43
41.47
37.24
30.47
20.36
7.15
-7.74
-22.18
-34.09
-42.21
-46.46
-47.92
-48.29
-49.36
-52.4
-57.68
-64.19
-69.5
-70.25
-63.01
-45.66
-18.61
14.87
49.42
79.24
100.05
110.19
110.62
103.76
92.2
77.73
61.32
43.62
25.54
8.39
-6.58
-18.68
-28.02
-35.21
-40.89
-45.24
-47.97
-48.69
-47.44
-44.99
-42.71
-42.07
-44.08
-48.87
-55.81
-63.81
-71.86
-79.45
-86.86
-95.06
-105.49
-119.35
-136.78
-156.02
-173.15
-182.65
-178.94
-158.36
-120.72
-69.76
-12.17
44.35
93.14
129.9
153.0
162.83
161.03
149.87
132.04
110.62
88.82
69.48
54.36
43.81
36.8
31.64
26.82
21.72
16.72
12.7
10.31
9.36
8.72
6.77
2.16
-5.58
-15.86
-27.33
-38.39
-47.91
-55.52
-61.86
-68.38
-77.05
-89.71
-107.2
-128.44
-149.94
-166.18
-170.99
-159.67
-130.91
-87.6
-36.19
15.36
59.99
93.28
113.99
123.31
123.53
116.9
105.11
89.36
70.76
50.41
29.31
8.13
-12.83
-33.31
-52.64
-69.56
-82.33
-89.43
-90.09
-84.73
-74.76
-62.18
-49.01
-37.02
-27.57
-21.73
-20.39
-24.22
-33.67
-48.78
-69.03
-92.91
-117.69
-139.42
-153.51
-155.75
-143.57
-116.65
-77.09
-28.82
23.26
74.16
119.5
155.98
181.65
195.94
199.59
194.34
182.47
166.41
148.42
130.43
113.9
99.74
88.14
78.72
70.75
63.5
56.52
49.68
42.91
36.03
28.65
20.28
10.62
-0.19
-11.54
-22.55
-32.42
-40.78
-47.95
-55.02
-63.71
-75.96
-93.33
-116.14
-142.62
-168.66
-188.4
-195.69
-185.96
-157.82
-113.7
-59.14
-1.29
53.06
98.93
133.72
157.01
169.75
173.48
169.76
160.11
146.04
129.3
111.91
95.96
83.27
74.93
71.13
71.27
74.31
79.18
84.95
90.82
95.97
99.45
100.3
97.88
92.22
84.16
75.25
67.18
61.27
57.91
56.44
55.39
53.07
48.15
40.14
29.55
17.7
6.44
-2.33
-7.06
-6.84
-1.59
7.93
20.23
33.45
45.68
55.36
61.49
63.69
62.2
57.72
51.25
43.87
36.56
29.93
24.16
18.99
13.96
8.69
3.2
-2.02
-6.16
-8.55
-8.96
-7.97
-6.77
-6.82
-9.2
-14.15
-21.01
-28.38
-34.79
-39.21
-41.42
-42.04
-42.28
-43.58
-47.24
-53.92
-63.2
-73.14
-80.18
-79.84
-68.13
-43.18
-6.48
37.15
80.91
118.21
144.56
158.41
160.66
153.26
138.07
116.3
88.96
57.52
24.25
-8.09
-37.08
-61.41
-81.24
-97.9
-113.12
-128.28
-143.92
-159.67
-174.64
-187.87
-198.73
-207.2
-213.81
-219.43
-224.95
-230.89
-237.31
-243.97
-250.66
-257.61
-265.41
-274.48
-284.18
-292.3
-295.27
-289.16
-271.25
-241.05
-200.37
-152.17
-99.16
-43.11
14.71
72.18
125.29
168.47
196.37
206.22
199.39
180.99
157.8
135.62
117.52
103.75
93.05
84.24
77.02
71.62
67.77
63.98
57.7
46.38
28.74
5.41
-21.19
-47.82
-71.61
-90.96
-105.78
-117.26
-127.22
-137.23
-147.87
-158.2
-165.71
-166.88
-158.33
-137.87
-105.43
-63.25
-15.23
34.03
80.23
120.12
151.63
173.65
185.84
188.42
182.29
169.18
151.54
132.27
114.1
98.93
87.56
79.72
74.59
71.3
69.39
68.67
68.9
69.42
69.08
66.5
60.64
51.31
39.3
26.07
13.19
1.69
-8.25
-17.29
-26.55
-37.14
