-16.16
-9.46
-1.44
6.77
13.92
19.06
21.87
22.67
22.04
20.41
17.68
13.33
6.82
-2.11
-13.21
-25.86
-39.31
-52.91
-66.12
-78.42
-89.38
-98.79
-106.96
-114.84
-123.84
-135.14
-148.8
-163.01
-174.06
-177.08
-167.45
-142.34
-101.96
-49.88
7.58
62.93
109.42
142.58
161.07
166.32
161.54
150.46
136.35
121.65
108.01
96.6
88.21
83.21
81.35
81.7
82.99
84.13
84.59
84.58
84.76
85.78
87.89
90.79
93.74
95.77
95.99
93.61
88.05
78.89
66.02
49.69
30.64
9.88
-11.75
-34.03
-57.51
-83.18
-111.81
-143.43
-177.04
-210.95
-243.21
-271.79
-294.6
-309.19
-313.01
-303.92
-281.17
-245.85
-200.76
-149.53
-95.56
-41.54
10.51
58.64
100.63
134.07
156.84
167.77
167.04
156.11
137.54
114.71
91.44
71.55
58.08
52.54
54.44
61.46
70.33
78.0
82.58
83.71
82.15
79.07
75.29
70.99
65.79
59.31
51.63
43.53
36.18
30.63
27.07
24.37
20.32
12.23
-2.14
-23.64
-51.36
-82.59
-113.15
-138.08
-152.41
-152.06
-134.78
-100.84
-53.34
2.28
59.36
111.54
154.14
184.9
203.81
212.43
212.95
207.55
197.92
185.24
170.15
152.95
133.81
113.11
91.81
71.55
54.5
42.76
37.59
38.85
44.95
53.24
60.88
65.58
66.02
61.85
53.28
40.71
24.58
5.37
-16.12
-38.63
-60.56
-80.27
-96.62
-109.26
-118.7
-126.04
-132.47
-138.76
-144.86
-149.93
-152.53
-151.1
-144.34
-131.65
-113.31
-90.65
-65.95
-42.11
-22.02
-7.86
-0.46
0.85
-2.01
-6.65
-11.0
-13.67
-14.03
-11.72
-6.37
2.47
14.94
30.53
47.94
65.33
80.91
93.38
102.05
106.51
106.25
100.44
88.13
68.84
43.09
12.61
-19.91
-51.57
-80.06
-104.05
-123.34
-138.61
-150.99
-161.9
-172.9
-185.58
-201.14
-219.78
-239.93
-258.12
-269.71
-270.29
-257.26
-230.65
-192.99
-148.18
-100.27
-52.68
-8.06
31.31
63.31
86.19
99.17
102.91
99.49
91.8
82.68
74.25
67.75
63.74
62.36
63.63
67.34
73.05
79.89
86.83
92.85
97.18
99.57
100.2
99.49
97.88
95.62
92.76
89.21
84.85
79.63
73.52
66.49
58.44
49.19
38.61
26.6
13.02
-2.29
-19.44
-38.08
-56.97
-73.62
-84.51
-85.96
-75.34
-52.18
-18.6
21.26
62.39
100.25
131.69
155.15
170.27
177.38
177.06
170.07
157.43
140.58
121.4
101.97
84.39
70.4
61.17
57.0
57.35
60.86
65.57
69.19
69.44
64.4
52.93
35.02
11.9
-14.17
-40.52
-64.74
-85.33
-101.93
-115.12
-126.0
-135.63
-144.8
-153.91
-163.1
-172.45
-182.13
-192.54
-204.27
-217.69
-232.5
-247.15
-258.83
-263.99
-259.48
-243.55
-216.48
-180.37
-138.38
-93.89
-50.06
-9.61
25.14
52.43
71.38
82.26
86.52
86.3
83.79
80.63
77.82
75.86
75.05
75.74
78.19
82.36
87.8
93.73
99.17
103.26
105.4
105.33
103.11
98.92
93.01
85.54
76.55
66.1
54.34
41.62
28.53
15.75
3.88
-6.81
-16.44
-25.59
-35.14
-46.16
-59.57
-75.85
-94.49
-113.65
-130.22
-140.29
-140.2
-127.67
-102.64
-67.39
-25.97
16.92
57.0
91.22
118.03
137.13
149.02
154.54
154.65
150.35
142.85
133.56
124.06
115.89
110.2
107.48
107.52
109.58
112.73
116.14
119.23
121.55
122.74
122.4
120.1
115.54
108.59
99.3
87.88
74.64
59.93
44.17
27.9
11.73
-3.77
-18.24
-31.63
-44.29
-56.93
-70.52
-85.79
-102.9
-120.83
-137.18
-148.5
-151.13
-142.39
-121.63
-90.66
-53.24
-14.07
22.5
53.42
77.25
93.93
104.19
109.04
109.4
106.15
100.2
92.62
84.69
77.7
72.72
70.29
70.4
72.51
75.85
79.66
83.25
86.11
87.73
87.63
85.47
81.16
74.9
67.09
58.12
48.19
37.29
25.36
12.43
-1.16
-14.87
-28.06
-40.27
-51.31
-61.39
-71.12
-81.39
-93.2
-107.14
-122.83
-138.52
-151.12
-156.85
-152.46
-136.39
-109.46
-74.73
-36.53
0.76
33.75
60.43
80.08
92.81
99.19
100.02
96.4
89.75
81.68
73.73
67.15
62.62
60.27
59.79
60.68
62.45
64.69
67.04
69.06
70.27
70.15
68.34
64.74
59.58
53.22
46.0
38.06
29.3
19.55
8.77
-2.82
-14.66
-26.08
-36.45
-45.4
-52.9
-59.36
-65.49
-72.32
-80.91
-91.9
-104.95
-118.4
-129.27
-133.94
-129.26
-113.7
-88.1
-55.44
-19.95
14.13
43.65
67.01
83.94
94.91
100.59
101.57
98.41
91.82
82.81
72.63
62.63
53.95
47.41
43.37
41.77
42.23
44.15
46.75
49.24
50.91
51.3
50.27
47.96
44.78
41.11
37.17
32.93
28.18
22.66
16.32
9.45
2.67
-3.3
-7.86
-10.83
-12.64
-14.23
-16.83
-21.43
-28.22
-36.09
-42.59
-44.26
-37.51
-19.78
9.48
48.14
91.63
133.88
168.85
192.09
201.76
198.75
185.89
166.73
144.28
120.53
96.48
72.76
50.17
29.82
12.86
0.01
-8.83
-14.41
-17.77
-19.78
-20.82
-20.89
-19.89
-17.92
-15.49
-13.36
-12.27
-12.69
-14.66
-17.82
-21.6
-25.45
-29.03
-32.29
-35.48
-39.13
-44.01
-50.92
-60.59
-73.45
-89.53
-108.35
-128.77
-148.92
-166.22
-177.74
-180.8
-173.86
-157.16
-132.92
-104.8
-76.94
-52.74
-34.13
-21.45
-13.95
-10.49
-10.14
-12.32
-16.63
-22.5
-29.02
-34.95
-39.12
-40.73
-39.68
-36.52
-32.19
-27.66
-23.59
-20.23
-17.54
-15.4
-13.84
-13.19
-13.92
-16.52
-21.23
-27.91
-35.97
-44.6
-53.01
-60.63
-67.3
-73.21
-78.83
-84.77
-91.62
-99.88
-109.7
-120.66
-131.48
-139.99
-143.43
-139.19
-125.67
-102.93
-72.88
-38.75
-4.24
27.42
54.11
74.82
89.52
98.65
103.0
103.54
101.56
98.54
95.97
94.98
96.06
98.99
103.02
107.28
111.16
114.49
117.44
120.2
122.67
124.11
123.21
118.33
108.0
91.44
69.03
42.26
13.36
-15.3
-42.0
-66.05
-87.77
-108.15
-128.23
-148.57
-168.74
-187.19
-201.33
-208.11
-204.82
-190.19
-165.0
-132.13
-95.83
-60.45
-29.36
-4.26
14.59
27.78
36.09
40.15
40.56
38.24
34.46
30.73
28.27
27.66
28.68
30.49
32.11
32.91
32.8
32.22
31.74
31.62
31.52
30.44
27.06
20.25
9.61
-4.29
-20.13
-36.28
-51.45
-65.17
-77.94
-90.99
-105.74
-123.25
-143.59
-165.52
-186.53
-203.21
-212.04
-210.38
-197.29
-173.83
-142.81
-107.98
-72.99
-40.64
-12.55
10.65
28.89
42.3
51.1
55.69
56.83
55.77
53.93
52.67
52.83
54.63
57.77
61.62
65.67
69.66
73.59
77.53
81.31
84.44
86.06
85.33
81.72
75.35
66.95
57.71
48.83
41.19
35.07
30.17
25.7
20.69
14.17
5.58
-4.82
-15.6
-24.06
-26.68
-20.09
-2.16
27.04
65.05
107.49
149.21
185.41
212.58
228.85
233.92
228.66
214.68
193.96
168.6
140.64
111.91
83.95
57.86
34.25
13.3
-5.18
-21.44
-35.56
-47.31
-56.2
-61.78
-64.01
-63.56
-61.84
-60.64
-61.62
-65.71
-72.82
-81.97
-91.66
-100.5
-107.66
-113.06
-117.29
-121.32
-126.21
-132.84
-141.59
-152.06
-162.76
-171.13
-174.0
-168.43
-152.68
-126.98
-93.55
-56.12
-18.91
14.42
41.42
61.14
73.8
80.46
82.46
81.14
77.64
72.93
67.73
62.67
58.21
54.69
52.29
51.05
50.91
51.71
53.24
55.25
57.33
58.81
58.69
55.64
48.36
36.0
18.68
-2.33
-24.74
-45.9
-63.65
-76.85
-85.62
-91.03
-94.46
-97.14
-99.95
-103.56
-108.69
-116.11
-126.27
-138.68
-151.43
-161.27
-164.34
-157.49
-139.53
-111.77
-77.75
-42.06
-8.95
18.75
39.91
54.76
64.15
69.01
70.05
67.93
63.46
57.66
51.71
46.67
43.29
41.88
42.4
44.48
47.65
51.33
54.93
57.86
59.57
59.64
57.84
54.21
49.01
42.64
35.53
27.95
19.98
11.48
2.24
-7.93
-18.98
-30.64
-42.37
-53.57
-63.79
-72.88
-81.24
-89.71
-99.35
-110.98
-124.49
-138.41
-149.91
-155.35
-151.41
-136.34
-110.72
-77.4
-40.68
-4.99
26.29
51.41
70.06
82.81
90.45
93.65
93.04
89.33
83.57
77.08
71.23
67.01
64.84
64.53
65.48
67.06
68.9
70.94
73.27
75.82
78.14
79.36
78.54
74.96
68.58
60.07
50.59
41.33
33.03
25.72
18.8
11.38
2.78
-7.13
-17.84
-28.41
-37.91
-45.81
-52.2
-57.74
-63.52
-70.7
-80.23
-92.38
-106.31
-119.88
-129.85
-132.58
-125.24
-106.84
-78.8
-44.63
-8.84
24.37
52.16
73.36
88.17
97.36
101.76
102.05
98.89
93.23
86.36
79.71
74.52
71.53
70.84
72.04
74.56
77.86
81.59
85.54
89.39
92.65
94.59
94.44
91.62
85.98
77.9
68.19
57.84
47.59
37.76
28.16
18.22
7.45
-4.35
-16.83
-29.26
-40.77
-50.75
-59.11
-66.38
-73.65
-82.24
-93.27
-107.17
-123.11
-138.82
-150.89
-155.56
-149.92
-133.05
-106.45
-73.7
-39.33
-7.47
19.17
39.53
53.85
62.94
67.59
68.41
65.96
61.0
54.64
48.16
42.74
39.1
37.41
37.36
38.39
39.95
41.72
43.59
45.6
47.68
49.51
50.47
49.76
46.73
41.17
33.48
24.6
15.76
7.96
1.63
-3.58
-8.59
-14.45
-21.77
-30.48
-39.8
-48.52
-55.6
-60.49
-63.43
-65.3
-67.43
-71.16
-77.5
-86.66
-97.69
-108.32
-115.24
-114.83
-104.3
-82.72
-51.47
-13.97
25.37
62.37
94.05
118.99
137.06
148.88
155.34
157.33
155.8
151.82
146.59
141.31
136.93
134.04
132.72
132.69
133.51
134.81
136.38
138.2
140.22
142.15
143.33
142.72
139.2
131.97
121.04
107.28
92.32
77.9
65.26
54.55
44.83
34.45
21.74
5.78
-13.29
-34.35
-55.69
-75.63
-93.01
-107.47
-119.46
-130.11
-140.89
-153.02
-166.9
-181.42
-193.85
-200.29
-196.9
-181.41
-154.24
-118.73
-80.17
-44.16
-14.97
5.4
17.1
21.64
20.8
15.97
8.05
-2.19
-13.78
-25.4
-35.63
-43.33
-48.02
-49.92
-49.76
-48.35
-46.27
-43.66
-40.4
-36.37
-31.81
-27.37
-23.94
-22.31
-22.74
-24.87
-27.87
-30.9
-33.41
-35.48
-37.59
-40.36
-44.15
-48.82
-53.81
-58.35
-61.82
-64.11
-65.72
-67.72
-71.51
-78.17
-87.85
-99.25
-109.48
-114.64
-110.88
-95.73
-68.99
-33.01
8.02
49.23
86.27
116.04
136.93
148.53
151.22
145.99
134.3
118.18
100.07
82.56
67.89
57.53
51.9
50.31
51.34
53.17
54.11
52.94
49.13
42.76
34.41
24.95
15.16
5.52
-3.99
-13.87
-24.82
-37.39
-51.62
-66.93
-82.3
-96.66
-109.19
-119.63
-128.28
-135.87
-143.36
-151.81
-161.98
-173.93
-186.52
-197.19
-202.31
-198.29
-182.81
-155.96
-120.42
-80.65
-41.5
-6.82
21.36
42.74
58.06
68.3
74.21
76.23
74.86
70.94
65.7
60.68
57.2
56.1
57.46
60.73
64.96
69.26
73.02
76.06
78.5
80.51
82.11
83.01
82.66
80.45
75.91
68.97
59.91
49.4
38.28
27.3
17.01
7.6
-1.17
-9.89
-19.37
-30.48
-43.65
-58.54
-73.53
-85.8
-91.91
-88.76
-74.87
-51.11
-20.69
11.67
41.22
64.56
80.3
88.89
91.89
90.92
87.13
81.02
72.87
63.04
52.21
41.23
30.89
21.7
13.87
7.43
2.34
-1.32
-3.51
-4.2
-3.55
-1.88
0.36
2.53
3.92
3.77
1.38
-3.61
-11.16
-20.74
-31.45
-42.31
-52.46
-61.4
-68.99
-75.5
-81.47
-87.72
-95.05
-103.9
-113.86
-123.19
-128.95
-127.55
-115.88
-92.49
-58.34
-16.67
27.8
70.19
106.62
134.93
154.55
166.0
170.16
167.76
159.31
145.37
126.9
105.55
83.48
62.95
45.71
32.54
23.24
16.9
12.44
9.04
6.17
3.46
0.41
-3.79
-10.11
-19.32
-31.58
-46.27
-62.05
-77.22
-90.28
-100.22
-106.84
-110.6
-112.44
-113.58
-115.21
-118.4
-123.78
-131.12
-138.93
-144.31
-143.41
-132.42
-108.97
-73.14
-27.8
22.13
71.08
114.34
149.08
174.37
190.71
199.14
200.79
196.62
187.59
174.79
159.39
142.59
125.37
108.37
91.87
75.85
60.21
44.96
30.42
17.23
6.21
-2.01
-7.35
-10.53
-13.04
-16.76
-23.4
-33.94
-48.35
-65.52
-83.71
-101.05
-116.0
-127.81
-136.48
-142.78
-147.93
-153.35
-160.22
-168.96
-178.77
-187.33
-191.16
-186.48
-170.47
-142.41
-104.06
-59.31
-12.99
30.37
67.49
96.66
117.5
130.46
136.37
136.2
131.05
122.19
111.02
98.92
86.99
75.84
65.47
55.48
45.32
34.81
24.27
14.51
6.5
0.9
-2.34
-4.03
-5.5
-8.18
-12.97
-20.05
-28.83
-38.38
-47.87
-56.99
-66.11
-76.04
-87.73
-101.87
-118.65
-137.63
-157.48
-175.96
-189.99
-196.14
-191.54
-174.77
-146.57
-109.79
-68.64
-27.57
9.8
41.25
65.88
83.67
94.98
100.35
100.58
96.86
90.9
84.62
79.8
77.61
78.37
81.53
86.08
90.98
95.53
99.56
103.25
106.77
109.97
112.2
112.45
109.75
103.7
94.73
84.03
73.11
63.22
54.81
47.43
39.84
30.41
17.55
0.26
-21.48
-46.17
-70.75
-90.97
-102.47
-102.12
-89.23
-65.93
-36.54
-6.11
21.16
42.93
58.83
69.75
76.82
80.6
80.95
77.36
69.66
58.46
45.24
31.99
20.65
12.52
8.06
6.98
8.56
12.09
16.98
22.84
29.26
35.62
41.15
45.04
46.63
45.71
42.56
37.91
32.67
27.71
23.55
20.34
17.84
15.51
12.68
8.55
2.35
-6.36
-17.3
-29.15
-39.55
-45.56
-44.55
-35.19
-18.06
4.44
28.87
51.85
70.96
85.14
94.4
99.24
100.08
97.22
90.93
81.91
71.43
61.25
53.13
48.35
47.18
48.79
51.42
52.82
50.97
44.7
34.07
20.28
5.18
-9.52
-22.8
-34.62
-45.48
-55.87
-65.74
-74.54
-81.73
-87.44
-92.75
-99.47
-109.42
-123.68
-142.21
-163.9
-186.85
-208.5
-225.72
-234.93
-232.71
-216.78
-187.16
-146.59
-100.07
-53.37
-11.4
23.0
49.18
67.92
80.41
87.5
89.73
87.72
82.67
76.36
70.82
67.63
67.51
70.12
74.43
79.14
83.21
86.15
88.04
89.37
90.62
91.93
92.79
92.05
88.17
79.85
66.62
49.14
29.07
8.49
-10.89
-28.24
-43.8
-58.51
-73.45
-89.38
-106.41
-123.77
-139.89
-152.43
-158.67
-156.11
-143.36
-120.87
-91.32
-59.2
-29.75
-7.48
5.06
7.66
1.99
-9.52
-24.69
-42.18
-61.24
-81.11
-100.38
-117.0
-128.76
-134.23
-133.42
-127.7
-119.19
-109.82
-100.66
-91.82
-82.99
-74.11
-65.9
-59.85
-57.64
-60.45
-68.32
-79.99
-93.26
-105.56
-114.82
-119.99
-121.3
-120.14
-118.65
-119.08
-123.07
-131.17
-142.52
-154.94
-165.42
-170.96
-169.26
-159.36
-141.7
-117.81
-89.73
-59.35
-28.0
3.62
35.16
66.2
95.87
122.82
145.46
162.43
173.12
177.8
177.51
173.57
167.26
159.69
152.01
145.64
142.32
143.77
151.02
163.78
180.22
197.34
211.93
221.56
225.36
224.11
219.76
214.51
209.94
206.52
203.61
199.91
194.05
185.18
173.35
159.76
146.57
136.5
132.11
134.99
145.11
160.78
179.02
196.47
210.28
218.64
220.94
217.49
209.08
196.67
181.31
164.02
145.76
127.44
109.76
93.37
78.78
66.47
56.78
49.76
44.92
41.21
37.09
30.95
21.53
8.3
-8.49
-27.87
-48.45
-68.76
-87.47
-103.65
-116.94
-127.7
-136.92
-145.98
-156.06
-167.48
-179.19
-188.83
-193.41
-190.41
-178.91
-160.04
-136.69
-112.52
-90.7
-73.11
-60.07
-50.97
-44.99
-41.76
-41.42
-44.33
-50.37
-58.59
-67.17
-73.88
-76.81
-75.08
-69.12
-60.4
-50.82
-41.96
-34.55
-28.52
-23.29
-18.37
-13.79
-10.05
-7.86
-7.71
-9.56
-13.03
-17.61
-23.0
-28.87
-34.55
-38.65
-39.19
-34.29
-23.16
-6.82
11.98
29.65
43.04
50.45
51.98
48.97
43.16
35.97
28.15
20.01
11.67
3.32
-4.73
-12.11
-18.43
-23.32
-26.38
-27.38
-26.31
-23.55
-19.9
-16.44
-14.34
-14.52
-17.6
-23.68
-32.46
-43.33
-55.51
-68.2
-80.84
-93.29
-105.77
-118.61
-131.55
-143.18
-150.81
-151.08
-141.16
-120.04
-89.32
-52.9
-15.83
17.25
43.31
61.29
71.64
75.42
73.59
66.74
55.36
40.26
22.82
4.95
-11.39
-24.53
-33.57
-38.43
-39.77
-38.73
-36.64
-34.71
-33.74
-34.07
-35.56
-37.82
-40.45
-43.32
-46.57
-50.7
-56.37
-64.27
-74.92
-88.24
-103.12
-117.08
-126.43
-127.14
-116.23
-93.03
-59.75
-20.96
17.93
52.25
79.33
98.67
111.26
118.6
121.89
121.77
118.49
112.37
104.05
94.57
85.18
77.02
70.85
66.86
64.7
63.61
62.72
61.35
59.13
56.03
52.14
47.59
42.36
36.35
29.36
21.26
11.83
0.87
-11.81
-26.0
-40.58
-53.22
-60.59
-59.29
-47.06
-23.9
7.72
43.51
78.8
109.9
134.9
153.56
166.68
175.23
179.99
181.48
180.23
177.0
172.74
168.42
164.8
162.25
160.84
160.47
161.02
162.3
164.07
165.86
166.92
166.34
163.32
157.38
148.56
137.36
124.43
110.3
95.16
78.86
61.05
41.44
20.01
-2.75
-25.65
-46.73
-63.44
-73.25
-74.4
-66.72
-51.85
-33.0
-13.94
2.12
13.3
19.25
20.72
18.86
14.78
9.36
3.32
-2.68
-8.2
-13.23
-18.4
-24.89
-33.9
-46.15
-61.38
-78.37
-95.27
-110.17
-121.65
-129.07
-132.55
-132.66
-130.11
-125.54
-119.4
-112.09
-104.09
-96.17
-89.37
-84.94
-84.05
-87.38
-94.74
-104.71
-114.64
-121.2
-121.34
-113.51
-98.43
-79.07
-59.66
-44.08
-34.42
-30.4
-29.89
-30.1
-28.95
-25.7
-20.76
-15.02
-9.12
-3.14
3.11
9.73
16.38
22.24
26.39
28.19
27.55
24.96
21.11
16.51
11.14
4.47
-4.23
-15.46
-29.03
-44.03
-59.04
-72.75
-84.56
-94.91
-105.24
-117.55
-133.55
-153.73
-176.66
-198.95
-215.87
-222.76
-216.5
-196.54
-165.2
-126.85
-86.71
-49.45
-18.46
4.44
18.7
24.69
23.34
16.06
4.52
-9.38
-23.94
-37.78
-50.04
-60.27
-68.29
-73.91
-76.89
-76.98
-74.19
-68.96
-62.3
-55.66
-50.53
-48.04
-48.63
-52.05
-57.48
-63.96
-70.68
-77.28
-83.97
-91.52
-100.97
-113.21
-128.27
-144.79
-159.89
-169.65
-170.11
-158.58
-134.43
-99.23
-56.1
-8.8
39.23
85.16
126.76
162.14
189.77
208.7
218.95
221.75
219.3
214.17
208.6
204.09
201.26
200.15
200.62
202.63
206.31
211.79
218.97
227.35
236.02
243.8
249.48
251.92
250.22
243.83
232.61
216.95
197.58
175.35
150.81
123.93
94.11
60.71
23.84
-14.83
-51.75
-82.15
-101.3
-106.15
-96.52
-75.23
-47.3
-18.38
6.74
25.06
35.56
38.63
35.44
27.41
16.14
3.45
-8.59
-17.94
-22.94
-22.76
-17.58
-8.47
3.1
15.71
28.41
40.76
52.62
63.79
73.73
81.55
86.27
87.29
84.67
79.26
72.34
65.03
57.85
50.55
42.46
32.97
22.01
10.2
-1.47
-12.03
-20.86
-27.77
-32.76
-35.85
-37.0
-36.2
-33.77
-30.35
-26.84
-24.04
-22.35
-21.6
-21.2
-20.48
-18.97
-16.65
-13.86
-11.09
-8.73
-6.97
-5.77
-5.03
-4.64
-4.59
-4.94
-5.82
-7.4
-9.95
-13.71
-18.94
-25.74
-34.08
-43.81
-54.8
-67.08
-80.83
-96.3
-113.64
-132.78
-153.33
-174.81
-196.7
-218.7
-240.67
-262.53
-284.07
-304.71
-323.36
-338.39
-347.82
-349.61
-342.09
-324.4
-296.84
-261.19
-220.52
-178.86
-140.35
-108.34
-84.66
-69.4
-61.11
-57.5
-56.11
-54.81
-52.0
-46.57
-37.88
-25.88
-11.26
4.41
19.03
30.49
37.34
39.18
36.65
31.02
23.55
15.13
6.01
-4.05
-15.58
-29.23
-45.47
-64.33
-84.87
-104.98
-121.34
-130.13
-128.11
-113.76
-87.96
-53.67
-15.08
23.64
59.25
89.73
114.09
131.89
143.01
147.65
146.58
141.14
133.1
124.18
115.55
107.66
100.3
92.98
85.31
77.33
69.37
61.82
54.82
48.07
40.93
32.66
22.68
10.78
-2.83
-17.65
-33.06
-48.54
-63.99
-79.75
-96.32
-113.82
-131.33
-146.54
-156.15
-156.85
-146.47
-124.85
-93.78
-56.36
-16.09
23.94
61.21
93.66
119.64
137.92
148.05
150.56
146.89
138.98
128.77
117.88
107.52
98.63
91.92
87.88
86.53
87.33
89.17
90.68
90.56
87.99
82.73
75.17
65.99
55.88
45.32
34.41
22.88
10.18
-4.39
-21.35
-40.56
-60.68
-79.02
-91.87
-95.51
-87.38
-67.12
-36.75
-0.1
38.29
74.41
105.44
129.87
147.17
157.38
160.9
158.45
151.24
140.8
128.9
117.14
106.78
98.48
92.4
88.33
85.92
84.75
84.44
84.41
83.98
82.3
78.56
72.27
63.44
52.56
40.49
28.1
15.99
4.3
-7.37
-19.82
-33.98
-50.43
-68.91
-87.82
-104.19
-114.23
-114.4
-102.66
-79.35
-47.27
-10.89
24.94
56.33
80.99
98.2
108.33
112.16
110.53
104.39
94.9
83.57
72.11
62.05
54.36
49.31
46.53
45.38
45.31
46.01
47.36
49.24
51.19
52.41
51.86
48.65
42.39
33.45
22.76
11.58
0.97
-8.57
-17.25
-25.87
-35.55
-47.28
-61.43
-77.31
-93.02
-105.58
-111.69
-108.63
-95.2
-72.27
-42.52
-9.72
22.38
50.84
73.89
90.76
101.32
105.79
104.67
98.89
89.82
79.2
68.74
59.78
53.06
48.65
46.18
45.13
45.1
45.9
47.47
49.58
51.77
53.18
52.8
49.81
43.93
35.62
25.93
16.18
7.47
0.3
-5.56
-10.97
-17.07
-24.86
-34.65
-45.66
-55.88
-62.39
-62.13
-52.94
-34.32
-7.71
23.93
57.07
88.51
116.02
138.41
155.3
166.81
173.34
175.53
174.19
170.18
164.21
156.7
147.73
137.27
125.35
112.27
98.66
85.37
73.33
63.32
55.76
50.55
47.09
44.35
41.23
36.97
31.4
24.99
18.61
13.07
8.55
4.39
-0.93
-9.37
-22.79
-42.11
-66.74
-94.14
-120.15
-139.93
-149.26
-145.95
-130.45
-105.64
-75.74
-44.9
-16.25
8.48
28.59
43.84
54.1
59.37
60.11
57.48
53.2
49.08
46.36
45.37
45.39
45.09
43.1
38.48
31.02
21.13
9.43
-3.59
-17.81
-33.4
-50.46
-68.61
-86.8
-103.49
-117.1
-126.63
-132.05
-134.36
-135.26
-136.62
-139.95
-145.98
-154.42
-163.76
-171.46
-174.4
-169.66
-155.61
-132.64
-103.29
-71.68
-42.19
-18.32
-1.88
7.01
9.32
6.37
-0.5
-9.99
-20.54
-30.24
-37.03
-39.34
-36.73
-30.07
-21.23
-12.25
-4.41
2.2
8.43
15.24
22.77
29.81
34.13
33.31
25.98
12.36
-5.76
-25.88
-45.85
-64.57
-82.14
-99.37
-117.1
-135.69
-154.7
-172.86
-188.11
-197.73
-198.74
-188.59
-166.11
-132.24
-90.15
-44.54
-0.48
38.0
68.61
90.81
105.13
112.49
113.73
109.62
101.14
89.63
76.69
63.76
51.8
41.02
31.11
21.53
12.0
2.69
-5.83
-12.84
-17.84
-20.84
-22.37
-23.27
-24.32
-25.92
-27.88
-29.52
-29.95
-28.6
-25.59
-22.03
-19.88
-21.35
-28.09
-40.21
-55.8
-71.08
-81.4
-82.78
-73.38
-54.27
-29.09
-2.69
20.52
37.77
48.36
53.08
53.3
50.21
44.6
37.17
28.88
21.11
15.34
12.61
13.13
16.1
20.0
23.17
24.28
22.62
18.12
11.03
1.65
-9.87
-23.5
-39.12
-56.35
-74.37
-92.08
-108.2
-121.59
-131.41
-137.28
-139.37
-138.47
-135.83
-132.98
-131.13
-130.56
-130.29
-128.09
-121.17
-107.24
-85.46
-56.86
-24.21
8.95
39.22
64.18
82.68
94.6
100.39
100.7
96.22
87.77
76.57
64.22
52.61
43.49
37.97
36.24
37.57
40.6
43.85
46.19
47.07
46.43
44.46
41.22
36.57
30.11
21.56
10.93
-1.21
-13.77
-25.49
-35.31
-42.81
-48.4
-53.18
-58.66
-66.3
-77.14
-91.35
-107.88
-124.38
-137.39
-143.09
-138.41
-122.1
-95.33
-61.53
-25.36
8.56
36.88
57.85
71.19
77.47
77.53
72.25
62.65
50.16
36.59
23.98
14.01
7.54
4.33
3.22
2.64
1.28
-1.45
-5.24
-9.21
-12.47
-14.67
-16.23
-18.13
-21.44
-26.78
-34.04
-42.51
-51.26
-59.59
-67.38
-75.06
-83.4
-93.19
-104.96
-118.71
-133.68
-148.2
-159.69
-165.07
-161.43
-146.97
-121.74
-87.79
-48.76
-8.9
28.01
59.43
84.15
102.02
113.42
118.86
118.94
114.56
107.02
98.12
89.79
83.68
80.65
80.6
82.63
85.49
88.06
89.73
90.45
90.52
90.22
89.44
87.59
83.77
77.18
67.47
55.04
40.89
26.32
12.42
-0.32
-12.02
-23.27
-34.83
-47.36
-61.25
-76.38
-91.86
-105.84
-115.61
-118.1
-110.83
-92.83
-65.25
-31.17
5.21
39.79
69.51
92.74
109.11
118.9
122.65
120.96
114.67
105.07
93.92
83.19
74.57
69.03
66.57
66.38
67.29
68.32
68.96
69.2
69.21
69.0
68.12
65.71
60.8
52.8
41.78
28.59
14.57
1.09
-10.95
-21.38
-30.76
-40.13
-50.64
-63.22
-78.12
-94.68
-111.04
-124.34
-131.18
-128.6
-115.07
-91.17
-59.56
-24.22
10.66
41.77
67.19
86.28
99.2
106.39
108.35
105.68
99.36
90.76
81.58
73.48
67.66
64.57
63.93
64.95
66.74
68.67
70.51
72.27
73.93
75.11
75.08
72.92
67.92
59.99
49.73
38.32
27.1
17.08
8.68
1.6
-4.95
-12.09
-20.79
-31.57
-44.06
-56.67
-66.67
-70.64
-65.39
-49.05
-21.89
13.48
52.67
90.7
123.24
147.5
162.47
168.5
