21.85
19.52
16.75
12.98
7.99
2.04
-4.2
-10.01
-14.88
-18.72
-21.83
-24.69
-27.77
-31.44
-35.96
-41.4
-47.61
-54.06
-59.86
-63.89
-65.1
-62.79
-56.89
-48.02
-37.29
-26.03
-15.46
-6.39
0.83
6.36
10.67
14.31
17.66
20.8
23.53
25.56
26.66
26.87
26.42
25.65
24.83
24.18
23.8
23.73
23.97
24.43
24.89
25.06
24.67
23.58
21.79
19.48
16.85
14.04
11.13
8.12
5.0
1.79
-1.52
-4.96
-8.57
-12.37
-16.3
-20.27
-24.32
-28.63
-33.49
-39.1
-45.22
-51.03
-55.3
-56.78
-54.68
-49.01
-40.54
-30.52
-20.21
-10.61
-2.24
4.72
10.37
14.95
18.75
21.99
24.78
27.12
28.94
30.21
31.03
31.54
31.93
32.24
32.42
32.33
31.88
31.05
30.0
28.92
28.02
27.31
26.61
25.61
23.98
21.6
18.59
15.41
12.55
10.29
8.47
6.53
3.78
-0.23
-5.43
-11.28
-16.98
-21.92
-25.85
-29.0
-31.86
-34.98
-38.75
-43.4
-48.93
-55.09
-61.28
-66.58
-69.83
-70.0
-66.53
-59.54
-49.84
-38.71
-27.48
-17.18
-8.33
-0.94
5.34
10.97
16.28
21.33
25.97
29.91
32.97
35.11
36.56
37.62
38.58
39.57
40.52
41.26
41.59
41.41
40.73
39.74
38.64
37.59
36.6
35.54
34.24
32.61
30.75
28.87
27.14
25.57
23.87
21.67
18.66
14.89
10.69
6.62
3.11
0.3
-2.0
-4.19
-6.71
-9.79
-13.52
-17.79
-22.41
-27.14
-31.77
-36.14
-40.23
-44.17
-48.27
-52.92
-58.37
-64.54
-70.76
-75.92
-78.58
-77.61
-72.51
-63.7
-52.44
-40.35
-28.95
-19.11
-11.0
-4.19
1.97
8.0
14.13
20.18
25.78
30.53
34.18
36.71
38.26
39.12
39.56
39.79
40.0
40.27
40.66
41.17
41.7
42.1
42.17
41.69
40.55
38.78
36.54
34.15
31.94
30.17
28.88
27.88
26.73
24.97
22.29
18.69
14.51
10.3
6.58
3.63
1.35
-0.73
-3.21
-6.58
-10.99
-16.18
-21.61
-26.71
-31.09
-34.62
-37.48
-40.02
-42.7
-46.0
-50.32
-55.78
-62.05
-68.25
-73.03
-74.99
-73.1
-67.11
-57.71
-46.27
-34.37
-23.31
-13.86
-6.15
0.12
5.42
10.19
14.69
18.99
22.99
26.48
29.27
31.3
32.71
33.78
34.86
36.1
37.44
38.61
39.26
39.2
38.51
37.44
36.29
35.2
34.14
32.96
31.59
30.04
28.42
26.75
24.87
22.56
19.65
16.27
12.74
9.4
6.41
3.6
0.59
-2.99
-7.22
-11.86
-16.57
-21.02
-25.13
-29.02
-32.94
-37.19
-42.0
-47.46
-53.44
-59.45
-64.58
-67.72
-67.78
-64.16
-57.0
-47.2
-36.11
-25.1
-15.17
-6.77
0.14
5.88
10.82
15.17
18.97
22.08
24.3
25.44
25.43
24.43
22.86
21.36
20.56
20.76
21.7
22.59
22.47
20.68
17.28
13.07
9.16
6.31
4.46
2.68
-0.22
-5.08
-11.83
-19.56
-26.97
-33.13
-37.9
-41.99
-46.54
-52.61
-60.82
-71.27
-83.61
-97.05
-110.26
-121.1
-126.84
-124.97
-114.43
-96.8
-76.26
-58.43
-48.04
-46.89
-52.97
-61.43
-66.79
-65.37
-56.57
-42.55
-26.79
-12.23
-0.16
9.86
19.28
29.55
41.53
55.32
70.63
87.07
104.53
122.85
141.71
160.2
176.9
190.22
198.9
202.59
202.04
198.98
195.43
192.98
192.04
191.58
189.37
182.83
170.24
151.67
129.28
106.73
87.87
75.32
69.38
68.01
67.79
65.4
59.01
48.78
36.52
24.53
14.59
7.31
2.35
-0.96
-2.99
-3.54
-2.09
1.74
7.7
14.91
21.89
26.79
27.51
21.99
8.6
-13.12
-41.9
-74.69
-107.28
-135.31
-155.19
-164.63
-162.82
-150.41
-129.71
-104.83
-81.37
-65.21
-60.58
-68.17
-84.48
-102.67
-114.96
-115.51
-102.26
-77.59
-47.52
-20.2
-3.92
-4.87
-25.27
-62.23
-108.04
-152.1
-184.15
-197.36
-190.21
-166.13
-131.65
-93.81
-58.26
-28.55
-6.41
7.5
13.18
11.01
1.66
-14.13
-35.78
-62.75
-94.2
-128.55
-163.62
-196.84
-225.65
-247.72
-260.86
-262.77
-251.12
-224.36
-182.83
-129.53
-69.81
-10.5
41.8
82.11
108.04
120.44
123.41
123.71
128.89
144.34
170.54
202.28
230.82
247.99
250.1
238.86
218.79
193.3
162.4
123.86
76.95
25.65
-21.65
-56.06
-72.92
-74.05
-65.98
-55.49
-46.07
-37.28
-27.1
-14.61
-0.98
11.65
22.1
30.96
39.54
48.28
55.88
60.19
59.96
55.9
50.17
45.09
41.99
41.22
43.19
49.05
60.15
76.65
96.23
113.97
123.93
121.68
106.39
81.41
53.08
28.23
11.44
3.59
1.92
1.75
-1.26
-9.28
-21.83
-36.46
-50.42
-62.08
-71.31
-78.86
-85.23
-89.83
-91.18
-87.69
-78.71
-65.02
-48.47
-31.01
-14.01
2.03
16.93
30.23
40.83
47.33
48.85
45.65
39.27
31.96
25.71
21.65
19.88
19.76
20.57
21.82
23.35
25.24
27.61
30.62
34.5
39.42
45.32
51.75
57.77
62.2
63.84
61.44
53.84
40.23
20.94
-1.67
-23.02
-37.31
-39.98
-30.11
-11.48
8.51
21.88
23.52
13.36
-4.1
-22.51
-37.02
-46.14
-51.27
-54.45
-56.08
-54.34
-46.67
-32.17
-13.36
4.17
14.23
13.25
2.34
-13.03
-25.55
-29.51
-23.17
-9.11
7.72
22.64
33.15
39.17
42.35
44.42
46.21
47.52
47.85
47.19
46.35
46.54
48.56
52.23
56.31
59.17
59.69
58.04
55.61
54.41
56.16
61.55
70.04
80.17
90.19
98.63
104.38
106.64
104.73
98.21
87.26
73.02
57.41
42.64
30.24
20.51
12.43
4.3
-5.42
-17.52
-31.95
-48.21
-65.49
-82.77
-98.68
-111.58
-120.09
-123.76
-123.61
-121.87
-121.02
-122.6
-126.39
-130.43
-131.88
-128.28
-118.5
-103.05
-83.77
-63.03
-43.05
-25.45
-11.16
-0.53
6.48
10.23
11.3
10.49
8.62
6.47
4.48
2.81
1.31
-0.35
-2.54
-5.56
-9.57
-14.5
-20.08
-25.86
-31.34
-36.26
-40.72
-45.18
-50.18
-55.87
-61.74
-66.65
-69.25
-68.61
-64.65
-58.1
-50.11
-41.66
-33.27
-25.07
-17.1
-9.66
-3.31
1.34
4.02
4.92
4.74
4.43
4.99
7.36
12.17
19.59
29.07
39.24
48.15
53.83
55.02
51.67
44.94
36.6
28.32
21.01
14.71
8.91
3.15
-2.65
-8.19
-13.08
-17.31
-21.39
-26.21
-32.65
-41.13
-51.26
-61.95
-71.58
-78.37
-80.67
-77.38
-68.18
-53.83
-36.19
-18.03
-2.34
8.34
12.76
11.25
5.55
-1.84
-8.45
-12.63
-13.82
-12.59
-10.2
-8.03
-7.11
-7.74
-9.5
-11.62
-13.42
-14.71
-15.84
-17.43
-19.82
-22.73
-25.18
-25.85
-23.7
-18.29
-9.82
1.07
13.65
27.15
40.67
53.09
63.11
69.77
72.98
73.96
74.97
78.66
87.05
100.8
119.08
140.08
161.62
181.61
198.19
209.55
213.98
210.14
197.55
177.06
150.82
121.74
92.69
65.82
42.3
22.31
5.35
-9.42
-22.8
-35.27
-46.83
-56.85
-64.35
-68.44
-68.8
-65.91
-60.95
-55.15
-49.29
-43.36
-36.88
-29.54
-21.84
-15.15
-11.15
-10.99
-14.49
-20.09
-25.45
-28.55
-28.48
-25.77
-21.78
-17.87
-14.63
-11.72
-8.22
-3.39
2.83
9.53
15.19
18.21
17.61
13.41
6.71
-0.84
-7.67
-12.94
-16.73
-19.85
-23.17
-27.11
-31.34
-35.07
-37.56
-38.58
-38.57
-38.42
-39.1
-41.21
-44.88
-49.8
-55.32
-60.59
-64.71
-66.82
-66.43
-63.5
-58.41
-51.74
-43.91
-35.0
-24.9
-13.68
-1.92
9.18
18.15
23.85
26.02
25.39
23.41
21.67
21.36
22.89
25.74
28.54
29.44
26.58
18.9
6.73
-7.99
-22.2
-32.74
-37.65
-36.83
-31.89
-25.23
-18.89
-13.81
-9.96
-6.94
-4.66
-3.6
-4.48
-7.68
-12.71
-18.4
-23.4
-26.93
-29.19
-31.21
-34.3
-39.15
-45.39
-51.48
-55.29
-54.86
-49.26
-38.9
-25.42
-11.0
2.44
13.76
22.84
30.24
36.7
42.63
47.9
52.01
54.37
54.7
53.18
50.43
47.14
43.83
40.71
37.66
34.62
31.69
29.27
27.84
27.66
28.53
29.75
30.32
29.43
26.76
22.58
17.71
13.01
9.11
6.01
3.15
-0.37
-5.37
-12.23
-20.7
-29.93
-38.8
-46.19
-51.19
-53.25
-52.47
-49.77
-46.76
-45.31
-46.5
-49.77
-52.6
-51.39
-42.98
-26.42
-3.59
21.27
43.03
57.08
60.19
51.14
31.19
4.46
-22.14
-39.95
-40.88
-20.56
19.81
73.28
129.41
177.77
210.74
224.5
218.43
193.84
153.47
102.04
46.6
-4.17
-42.01
-61.82
-63.25
-50.45
-29.89
-7.52
13.39
32.55
51.44
71.54
93.05
114.78
134.7
150.94
162.57
169.84
173.69
174.95
173.76
168.95
158.44
140.07
112.45
75.4
29.67
-23.5
-82.06
-142.52
-199.33
-245.22
-273.15
-278.95
-263.13
-230.97
-190.47
-149.29
-112.28
-80.85
-54.03
-30.89
-12.48
-2.24
-4.67
-23.05
-57.39
-103.71
-154.92
-202.6
-239.25
-260.29
-264.68
-254.82
-235.77
-213.92
-195.29
-183.79
-179.79
-179.97
-178.77
-171.1
-154.93
-132.0
-106.13
-80.34
-54.78
-27.12
4.98
41.24
77.87
109.13
130.41
140.67
142.64
140.93
139.18
138.4
136.98
132.13
121.55
104.2
80.26
50.6
16.51
-20.24
-57.13
-91.0
-118.59
-137.53
-147.02
-148.16
-143.69
-136.87
-130.33
-125.04
-120.08
-113.28
-102.6
-87.15
-67.85
-46.85
-26.44
-7.93
8.76
24.66
40.79
57.27
73.04
86.05
94.05
95.45
89.97
78.88
64.43
48.9
33.71
19.04
4.18
-11.65
-28.21
-44.03
-56.99
-65.4
-68.98
-68.98
-67.33
-65.46
-63.71
-61.46
-58.08
-53.71
-49.51
-46.99
-46.95
-48.65
-49.94
-48.21
-41.64
-29.98
-14.47
2.89
20.33
36.83
52.15
66.39
79.69
91.95
102.96
112.47
120.4
126.87
132.25
137.13
142.24
148.33
156.03
165.54
176.47
187.89
198.62
207.26
212.4
212.93
208.58
200.45
191.0
183.44
180.54
183.52
191.22
200.4
206.76
206.5
197.61
180.41
157.15
130.89
104.17
77.91
51.31
22.67
-9.17
-43.59
-77.83
-107.99
-130.63
-144.34
-150.32
-151.6
-152.66
-156.89
-165.58
-177.32
-188.43
-194.35
-191.46
-178.71
-157.77
-133.13
-109.53
-90.67
-78.43
-73.12
-74.31
-81.26
-92.58
-104.82
-114.48
-117.03
-109.54
-92.3
-68.87
-44.41
-23.23
-7.06
6.9
18.75
30.12
41.2
51.13
59.2
65.63
71.59
78.27
89.84
101.01
109.93
115.1
116.2
114.25
111.03
108.18
106.49
112.09
117.57
122.14
125.23
126.73
126.97
126.57
126.27
126.62
136.03
145.89
156.24
167.14
178.8
191.61
206.0
222.44
190.39
173.6
162.23
155.32
150.82
145.68
136.45
120.46
96.97
67.72
44.38
22.24
4.02
-9.88
-21.11
-32.32
-45.69
-62.18
-81.68
-97.24
-114.72
-132.9
-149.79
-162.63
-168.55
-165.91
-155.16
-138.7
-115.65
-92.39
-69.58
-46.91
-24.33
-2.98
15.18
28.57
37.02
43.63
47.73
49.54
47.69
40.66
28.84
15.74
7.03
7.75
20.14
40.17
61.23
76.62
82.62
79.72
71.18
60.58
49.72
38.22
24.85
9.15
-7.75
-23.77
-37.23
-47.94
-57.26
-67.12
-78.69
-91.68
-104.47
-114.73
-120.59
-121.29
-117.51
-110.8
-103.0
-95.45
-88.54
-81.83
-74.59
-66.47
-57.82
-49.52
-42.33
-36.46
-31.38
-26.1
-19.89
-12.66
-5.01
2.17
8.06
12.44
15.55
18.11
21.08
25.43
32.01
41.33
53.47
67.99
83.98
100.04
114.52
125.71
132.09
132.62
127.03
115.86
100.3
81.83
61.71
40.86
19.93
-0.38
-19.14
-35.23
-47.7
-56.2
-61.06
-63.24
-63.97
-64.48
-65.88
-69.06
-74.58
-82.43
-91.93
-101.86
-110.83
-117.81
-122.42
-124.81
-125.35
-124.29
-121.61
-117.19
-111.01
-103.21
-94.05
-83.76
-72.54
-60.74
-48.97
-38.16
-29.15
-22.45
-17.94
-15.06
-13.05
-11.39
-9.82
-8.29
-6.76
-5.07
-3.07
-0.82
1.25
2.43
2.05
-0.16
-3.92
-8.48
-13.04
-17.06
-20.5
-23.66
-26.83
-29.96
-32.58
-34.08
-34.14
-33.02
-31.53
-30.57
-30.62
-31.42
-32.11
-31.74
-29.89
-26.91
-23.89
-22.11
-22.51
-25.4
-30.56
-37.44
-45.42
-53.8
-61.7
-67.9
-71.13
-70.43
-65.56
-57.27
-47.1
-36.96
-28.58
-23.14
-21.1
-22.23
-25.79
-30.71
-35.73
-39.58
-41.11
-39.52
-34.47
-26.23
-15.54
-3.57
8.41
19.34
28.53
35.71
40.99
44.63
46.88
47.94
47.95
47.06
45.44
43.24
40.59
37.61
34.49
31.6
29.44
28.52
29.2
31.55
35.23
39.5
43.32
45.57
45.29
41.94
35.64
27.1
17.42
7.75
-1.1
-8.85
-15.73
-22.17
-28.53
-34.77
-40.4
-44.65
-46.71
-46.0
-42.49
-36.62
-29.23
-21.34
-13.86
-7.47
-2.53
0.9
2.92
3.69
3.48
2.6
1.5
0.73
0.81
2.17
4.93
8.82
13.25
17.43
20.66
22.53
23.08
22.68
21.82
20.92
20.05
18.97
17.4
15.08
12.05
8.61
5.13
1.8
-1.39
-4.73
-8.45
-12.61
-16.96
-21.11
-24.77
-27.84
-30.59
-33.47
-36.97
-41.36
-46.64
-52.38
-57.76
-61.7
-63.03
-60.81
-54.6
-44.72
-32.12
-18.17
-4.27
8.59
19.84
29.33
37.05
43.03
47.21
49.6
50.33
49.68
48.1
46.06
43.99
42.19
40.8
39.89
39.44
39.44
39.79
40.39
41.05
41.58
41.73
41.28
40.1
38.1
35.32
31.86
27.83
23.35
18.49
13.34
7.96
2.43
-3.16
-8.72
-14.15
-19.3
-24.06
-28.31
-32.0
-35.26
-38.39
-41.94
-46.53
-52.55
-59.87
-67.56
-73.97
-77.14
-75.46
-68.26
-56.12
-40.68
-24.0
-7.93
6.36
18.46
28.45
36.58
42.99
47.73
50.87
52.6
53.28
53.28
52.88
52.18
51.17
49.84
48.28
46.73
45.54
44.97
45.08
45.73
46.55
47.13
47.09
46.23
44.49
41.94
38.7
34.89
30.69
26.3
21.92
17.67
13.57
9.5
5.21
0.48
-4.84
-10.67
-16.79
-22.79
-28.24
-32.85
-36.56
-39.61
-42.59
-46.18
-51.02
-57.37
-64.87
-72.47
-78.58
-81.42
-79.53
-72.23
-59.85
-43.72
-25.82
-8.22
7.37
19.99
29.43
36.06
40.49
43.32
44.98
45.75
45.86
45.54
45.09
44.76
44.66
44.75
44.86
44.82
44.6
44.26
43.92
43.68
43.51
43.23
42.63
41.47
39.56
36.79
33.18
28.89
24.23
19.64
15.49
11.92
8.73
5.47
1.55
-3.39
-9.36
-15.95
-22.54
-28.54
-33.64
-37.89
-41.62
-45.3
-49.42
-54.35
-60.26
-66.95
-73.65
-79.05
-81.48
-79.33
-71.69
-58.73
-41.78
-23.0
-4.69
11.34
24.1
33.44
39.78
43.78
46.03
46.97
46.96
46.32
45.45
44.71
44.38
44.54
44.98
45.37
45.37
44.81
43.78
42.54
41.38
40.46
39.67
38.72
37.21
34.84
31.46
27.2
22.37
17.39
12.66
8.42
4.67
1.24
-2.19
-5.95
-10.22
-14.97
-19.98
-24.95
-29.58
-33.74
-37.42
-40.77
-44.11
-47.79
-52.19
-57.59
-63.99
-70.85
-77.05
-81.05
-81.23
-76.45
-66.48
-52.16
-35.14
-17.46
-1.01
12.89
23.55
30.88
35.16
36.89
36.66
35.07
32.72
30.14
27.76
25.92
24.8
24.41
24.63
25.15
25.66
25.86
25.6
24.89
23.84
22.58
21.19
19.62
17.77
15.48
12.62
9.12
5.06
0.64
-3.9
-8.29
-12.4
-16.19
-19.73
-23.19
-26.68
-30.37
-34.47
-39.24
-44.84
-51.02
-56.98
-61.29
-62.35
-58.83
-50.3
-37.47
-21.97
-5.89
8.94
21.25
30.55
36.9
40.62
42.12
41.74
39.84
36.85
33.32
29.85
26.98
25.06
24.16
24.08
24.42
24.81
24.94
24.69
24.08
23.17
22.01
20.53
18.6
16.06
12.83
8.91
4.36
-0.67
-6.06
-11.67
-17.37
-22.99
-28.41
-33.47
-38.11
-42.47
-46.84
-51.7
-57.43
-64.06
-70.93
-76.69
-79.57
-77.93
-70.88
-58.64
-42.57
-24.71
-7.17
8.37
20.98
30.44
36.98
41.03
43.07
43.52
42.88
41.62
40.19
38.92
37.97
37.3
36.73
36.05
35.13
34.05
33.06
32.4
32.19
32.29
32.3
31.67
29.91
26.83
22.61
17.76
12.89
8.43
4.49
0.8
-3.1
-7.61
-12.89
-18.75
-24.78
-30.56
-35.76
-40.31
-44.4
-48.4
-52.77
-57.98
-64.29
-71.52
-78.85
-84.81
-87.58
-85.54
-77.85
-64.78
-47.71
-28.68
-9.82
7.22
21.45
32.5
40.47
45.65
48.44
49.3
48.82
47.65
46.36
45.39
44.88
44.77
44.79
44.68
44.23
43.45
42.49
41.6
40.93
40.42
39.84
38.8
36.94
34.14
30.5
26.35
22.08
17.93
13.95
9.9
5.45
0.34
-5.5
-11.86
-18.38
-24.57
-30.09
-34.82
-38.89
-42.72
-46.85
-51.86
-58.09
-65.42
-73.03
-79.4
-82.59
-80.83
-73.19
-59.95
-42.7
-23.75
-5.41
10.61
23.56
33.47
40.81
46.08
49.59
51.5
51.91
51.1
49.47
47.51
45.7
44.34
43.54
43.2
43.11
43.04
42.78
42.24
41.3
39.89
37.92
35.35
32.24
28.74
25.08
21.5
18.13
15.01
12.06
9.17
6.23
3.13
-0.22
-3.93
-8.15
-12.93
-18.26
-23.98
-29.89
-35.77
-41.52
-47.09
-52.56
-58.02
-63.71
-70.0
-77.19
-85.31
-93.76
-101.17
-105.67
-105.41
-99.23
-87.16
-70.45
-51.24
-31.87
-14.47
-0.59
8.94
14.03
15.38
14.39
12.77
12.09
13.2
16.12
20.21
24.93
30.4
37.62
48.07
62.81
81.59
102.51
122.39
137.7
145.86
146.14
139.93
130.29
120.9
114.89
113.72
116.89
122.06
125.87
124.69
115.27
95.43
64.8
25.63
-17.1
-56.65
-86.77
-104.33
-110.84
-111.84
-114.2
-122.68
-137.61
-155.08
-169.7
-177.79
-179.36
-177.55
-175.96
-175.85
-175.19
-169.73
-155.59
-131.65
-100.31
-66.4
-34.85
-8.7
11.83
28.43
42.96
56.14
67.08
74.09
75.98
72.99
66.93
60.51
56.1
54.86
56.52
59.85
63.51
66.71
69.45
72.26
75.67
79.76
84.06
87.74
89.86
89.83
87.47
83.01
76.9
69.65
61.66
53.31
44.98
37.06
29.84
23.47
17.73
12.07
5.83
-1.58
-10.32
-20.16
-30.56
-40.99
-51.17
-61.16
-71.29
-81.89
-93.01
-104.29
-114.82
-123.34
-128.4
-128.8
-123.93
-113.92
-99.58
-82.2
-63.2
-43.87
-25.2
-7.92
7.43
20.47
30.96
38.87
44.39
47.88
49.78
50.56
50.67
50.46
50.23
50.11
50.19
50.39
50.57
50.6
50.34
49.73
48.68
47.12
44.95
42.12
38.69
34.78
30.67
26.62
22.76
19.06
15.3
11.25
6.7
1.68
-3.66
-9.08
-14.43
-19.79
-25.38
-31.55
-38.57
-46.4
-54.61
-62.32
-68.33
-71.45
-70.8
-66.07
-57.7
-46.7
-34.46
-22.31
-11.32
-2.1
5.08
10.23
13.46
14.89
14.73
13.29
11.07
8.69
6.74
5.63
5.48
6.19
7.49
9.18
11.16
13.44
16.02
18.85
21.71
24.32
26.39
27.68
28.08
27.58
26.28
24.35
21.96
19.21
16.14
12.64
8.56
3.79
-1.7
-7.78
-14.16
-20.51
-26.51
-32.01
-37.08
-41.99
-47.11
-52.7
-58.7
-64.55
-69.27
-71.67
-70.73
-65.94
-57.46
-46.03
-32.78
-18.84
-5.22
7.33
18.33
27.49
34.73
40.09
43.77
45.98
46.98
47.01
46.31
45.14
43.79
42.53
41.52
40.82
40.34
39.97
39.61
39.23
38.86
38.51
38.14
37.66
36.88
35.67
33.98
31.87
29.54
27.17
24.85
22.51
19.91
16.81
13.07
8.71
3.86
-1.22
-6.37
-11.49
-16.52
-21.45
-26.26
-31.04
-36.0
-41.39
-47.4
-53.91
-60.29
-65.48
-68.14
-67.2
-62.11
-53.11
-41.15
-27.55
-13.69
-0.63
10.94
20.71
28.55
34.41
38.37
40.53
41.18
40.69
39.54
38.15
36.88
35.86
35.13
34.58
34.09
33.53
32.82
31.99
31.08
30.16
29.17
27.98
26.4
24.25
21.53
18.39
15.13
12.11
9.57
7.56
5.91
4.23
2.13
-0.68
-4.25
-8.38
-12.71
-16.85
-20.58
-23.9
-27.03
-30.33
-34.09
-38.48
-43.53
-48.96
-54.19
-58.35
-60.36
-59.28
-54.56
-46.28
-35.24
-22.69
-10.03
1.58
11.38
19.02
24.5
27.99
29.79
30.24
29.71
28.57
27.17
25.74
24.46
23.41
22.56
21.85
21.18
20.48
19.76
19.04
18.38
17.79
17.17
16.38
15.27
13.73
11.76
9.45
6.91
4.29
1.63
-1.07
-3.9
-6.92
-10.2
-13.71
-17.34
-20.95
-24.37
-27.48
-30.2
-32.6
-34.84
-37.26
-40.29
-44.26
-49.19
-54.5
-59.07
-61.47
-60.39
-55.22
-46.28
-34.79
-22.47
-11.0
-1.48
5.69
10.69
14.02
16.07
17.05
17.01
15.98
14.14
11.78
9.22
6.77
4.98
4.74
7.5
14.92
28.1
46.79
68.86
90.75
108.71
120.15
124.65
123.74
119.85
114.98
109.83
103.83
95.82
84.95
71.2
55.22
37.88
19.77
1.18
-17.55
-35.73
-52.23
-65.83
-75.75
-82.06
-85.62
-87.57
-88.64
-88.52
-85.91
-79.2
-67.38
-50.95
-31.94
-13.39
1.92
12.4
18.24
21.17
23.57
27.43
33.36
40.32
46.03
48.04
44.97
37.39
27.91
20.18
17.44
21.09
29.99
41.11
50.81
56.55
57.8
56.08
53.79
52.81
53.96
57.07
61.53
66.77
72.69
79.42
87.26
96.29
105.76
114.42
121.22
125.88
129.21
133.06
139.37
149.58
164.01
181.04
198.41
214.05
226.47
233.81
233.53
221.86
195.54
153.38
95.62
26.04
-48.48
-120.18
-183.95
-238.57
-287.74
-336.3
-387.11
-442.82
-500.72
-551.61
-582.39
-582.25
-545.53
-476.9
-387.12
-290.28
-206.82
-152.88
-133.54
-141.76
-163.77
-183.09
-190.88
-183.93
-164.95
-149.05
-150.95
-176.05
-218.87
-269.67
-317.72
-361.18
-400.39
-385.89
-289.36
-122.34
71.25
250.25
377.64
468.0
531.83
574.0
597.0
599.57
580.04
543.47
500.6
461.11
432.3
411.89
396.47
384.15
368.69
345.96
317.49
289.09
265.68
250.4
239.31
228.15
214.47
194.1
164.89
128.87
91.01
55.77
26.43
1.84
-19.32
-37.25
-52.92
-66.71
-77.66
-84.3
-86.39
-84.72
-82.18
-81.18
-82.7
-87.28
-95.09
-106.03
-120.42
-139.35
-164.13
-196.46
-237.46
-287.77
-347.23
-414.2
-484.16
-549.25
-599.62
-626.52
-625.95
-600.86
-560.16
-514.9
-473.65
-439.39
-409.83
-380.39
-347.73
-311.5
-273.47
-235.29
-196.81
-156.49
-113.5
-69.81
-30.54
-1.78
12.51
13.14
5.56
-2.51
-4.6
1.83
15.14
30.78
43.87
51.18
51.99
47.76
41.18
35.22
32.56
34.77
41.61
50.68
58.2
60.53
55.55
43.36
26.17
7.43
-9.59
-23.14
-32.89
-38.92
-40.4
-35.72
-23.64
-3.8
22.91
54.23
86.6
115.77
138.12
151.86
156.82
153.39
143.0
128.39
113.33
101.64
96.09
98.26
108.79
126.72
148.9
165.11
163.22
137.59
93.33
40.84
-11.51
-59.18
-98.37
-131.51
-159.85
-182.59
-197.86
-204.3
-201.92
-193.8
-182.4
-169.56
-156.66
-143.65
-129.24
-111.65
-89.88
-64.59
-37.63
-10.75
14.69
37.72
58.52
78.2
98.13
119.09
140.63
161.34
179.92
195.6
208.2
218.6
228.3
238.79
250.99
265.08
280.75
297.99
316.77
336.3
354.78
369.44
377.45
377.21
368.9
354.18
334.83
311.53
283.47
249.51
209.86
166.95
125.09
88.72
60.68
41.27
28.61
19.84
12.17
3.52
-7.63
-22.11
-40.0
-60.47
-81.83
-101.95
-118.88
-131.44
-139.53
-144.21
-147.38
-151.24
-157.46
-166.22
-175.8
-182.96
-184.2
-177.07
-161.31
-138.68
-112.1
-84.46
-57.72
-32.81
-9.89
11.22
30.91
49.62
67.66
84.8
99.86
110.87
115.92
114.3
107.35
98.26
90.89
88.09
90.55
96.7
103.77
109.29
112.23
113.13
113.33
113.89
114.89
115.47
114.44
111.04
105.28
97.75
89.12
79.69
69.28
57.53
44.24
29.71
14.78
0.4
-12.79
-24.9
-36.82
-49.81
-64.77
-81.66
-99.21
-115.13
-127.05
-133.18
-133.12
-127.85
-119.33
-109.74
-100.74
-93.08
-86.57
-80.53
-74.24
-67.38
-60.03
-52.59
-45.38
-38.4
-31.32
-23.65
-15.13
-5.96
3.25
11.74
18.91
24.52
28.69
31.65
33.61
34.58
34.52
33.45
31.54
29.14
26.57
24.08
21.66
19.13
16.15
12.43
7.74
1.99
-4.79
-12.51
-20.84
-29.22
-36.71
-42.19
-44.62
-43.4
-38.61
-31.05
-21.96
-12.59
-3.9
3.58
9.63
14.09
16.81
17.66
16.71
14.27
10.96
7.45
4.35
1.93
0.15
-1.25
-2.53
-3.88
-5.28
-6.54
-7.45
-7.93
-8.1
-8.31
-8.98
-10.4
-12.6
-15.28
-17.94
-20.16
-21.76
-22.88
-23.89
-25.27
-27.4
-30.45
-34.3
-38.48
-42.18
-44.44
-44.31
-41.2
-35.14
-26.79
-17.17
-7.46
1.44
8.91
14.66
18.56
20.61
20.91
19.75
17.61
15.07
12.61
10.55
8.94
7.71
6.7
5.78
4.91
4.07
3.22
2.37
1.47
0.42
-0.91
-2.71
-5.17
-8.33
-12.1
-16.23
-20.4
-24.36
-28.09
-31.77
-35.76
-40.4
-45.8
-51.66
-57.17
-61.15
-62.43
-60.2
-54.28
-45.25
-34.21
-22.45
-11.14
-1.06
7.39
14.04
18.96
22.27
24.16
24.93
24.85
24.24
23.34
22.37
21.48
20.78
20.29
19.91
19.53
19.01
18.36
17.63
16.91
16.13
15.06
13.35
10.7
6.99
2.36
-2.83
-8.13
-13.19
-17.88
-22.28
-26.65
-31.37
-36.71
-42.73
-49.04
-54.82
-58.87
-60.0
-57.39
-50.89
-41.15
-29.35
-16.88
-4.94
5.67
14.61
21.85
27.52
31.75
34.6
36.16
36.57
36.06
34.97
33.71
32.64
31.94
31.6
31.45
31.29
30.92
30.25
29.26
27.98
26.4
24.49
22.15
19.34
15.99
12.06
7.55
2.5
-2.91
-8.43
-13.75
-18.62
-22.93
-26.77
-30.39
-34.16
-38.43
-43.43
-49.16
-55.17
-60.66
-64.56
-65.8
-63.55
-57.53
-48.04
-35.94
-22.42
-8.69
4.1
15.16
24.08
30.79
35.47
38.47
40.14
40.78
40.68
40.11
39.29
38.48
37.76
37.16
36.59
36.02
35.44
34.9
34.4
33.88
33.12
31.81
29.72
26.81
23.22
19.21
15.07
10.97
6.96
2.98
-1.1
-5.34
-9.71
-14.09
-18.31
-22.23
-25.82
-29.26
-32.93
-37.29
-42.56
-48.57
-54.58
-59.33
-61.45
-59.88
-54.28
-45.08
-33.37
-20.47
-7.62
4.31
14.84
23.76
30.97
36.44
40.14
42.16
42.68
42.06
40.76
39.24
37.9
36.93
36.31
35.82
35.11
33.88
31.9
29.18
25.85
22.11
18.2
14.21
10.17
6.02
1.72
-2.71
-7.14
-11.45
-15.59
-19.59
-23.54
-27.48
-31.35
-34.99
-38.23
-41.0
-43.48
-46.07
-49.28
-53.48
-58.62
-64.11
-68.82
-71.41
-70.74
-66.24
-58.11
-47.2
-34.72
-21.9
-9.75
1.12
10.34
17.73
23.24
26.99
29.25
30.45
31.11
31.7
32.52
33.65
34.99
36.36
37.57
38.57
39.36
40.0
40.55
40.95
41.06
40.58
39.17
36.42
32.06
26.1
18.88
11.09
3.62
-2.7
-7.31
-10.06
-11.23
-11.39
-11.13
-10.94
-11.11
-11.76
-12.88
-14.48
-16.63
-19.49
-23.35
-28.5
-35.14
-43.13
-51.84
-60.04
-66.07
-68.24
-65.36
-57.25
-44.81
-29.81
-14.27
0.14
12.46
22.37
30.04
35.7
39.43
41.26
41.21
39.59
36.94
33.94
31.21
29.12
27.74
26.95
26.53
26.35
26.41
26.78
27.47
28.38
29.27
29.78
29.53
28.31
26.04
22.87
19.12
15.14
11.23
7.6
4.29
1.33
-1.28
-3.56
-5.58
-7.48
-9.46
-11.7
-14.31
-17.35
-20.77
-24.51
-28.6
-33.14
-38.3
-44.22
-50.89
-57.98
-64.79
-70.2
-72.91
-71.78
-66.23
-56.51
-43.69
-29.34
-15.14
-2.37
8.13
16.12
21.66
25.07
26.69
26.93
26.2
24.92
23.47
22.2
21.29
20.79
20.64
20.68
20.71
20.61
20.4
20.19
20.19
20.5
21.02
21.41
21.26
20.23
18.21
15.46
12.37
9.4
6.74
4.28
1.74
-1.16
-4.38
-7.67
-10.65
-13.09
-14.99
-16.59
-18.27
-20.32
-22.9
-26.06
-29.78
-33.92
-38.13
-41.69
-43.54
-42.59
-38.06
-29.97
-19.1
-6.87
5.26
16.14
25.15
32.17
37.34
40.83
42.69
42.99
41.89
39.81
37.32
35.03
33.47
32.92
33.39
34.62
36.22
37.81
39.05
39.77
39.88
39.32
37.99
35.72
32.34
27.76
22.12
15.74
9.12
2.72
-3.15
-8.47
-13.43
-18.28
-23.15
-27.92
-32.3
-35.99
-38.82
-40.85
-42.32
-43.59
-44.97
-46.81
-49.41
-52.92
-57.21
-61.66
-65.17
-66.32
-63.95
-57.5
-47.38
-34.8
-21.39
-8.64
2.52
11.73
19.11
24.94
29.43
32.64
34.6
35.41
35.29
34.62
33.79
33.06
32.54
32.09
31.49
30.57
29.33
27.9
26.53
25.39
24.43
23.42
22.07
20.1
17.46
14.34
10.98
7.69
4.58
1.64
-1.3
-4.39
-7.73
-11.24
-14.79
-18.24
-21.55
-24.89
-28.52
-32.7
-37.63
-43.35
-49.63
-56.01
-61.71
-65.67
-66.71
-63.79
-56.43
-44.96
-30.62
-15.16
-0.37
12.43
22.64
30.22
35.41
38.4
39.22
37.95
34.87
30.65
26.17
22.35
19.73
18.42
18.22
18.74
19.7
20.91
22.3
23.78
25.16
26.13
26.36
25.58
23.67
20.71
16.95
12.71
8.32
4.02
-0.05
-3.88
-7.53
-11.06
-14.51
-17.83
-20.99
-23.97
-26.91
-30.04
-33.67
-38.09
-43.34
-49.04
-54.34
-58.09
-59.12
-56.6
-50.32
-40.77
-28.97
-16.24
-3.75
7.59
17.24
25.01
30.89
34.91
37.17
37.86
37.31
35.95
34.3
32.77
31.62
30.92
30.52
30.3
30.25
30.42
30.96
31.98
33.39
34.99
36.34
37.01
36.65
35.12
32.54
29.24
25.6
21.9
18.28
14.7
11.06
7.27
3.32
-0.72
-4.79
-8.81
-12.82
-16.85
-20.98
-25.31
-30.04
-35.35
-41.34
-47.79
-54.04
-59.1
-61.75
-60.94
-56.16
-47.65
-36.37
-23.8
-11.45
-0.47
8.46
15.24
20.08
23.26
25.05
25.69
25.41
24.53
23.46
22.55
22.04
21.96
22.16
22.43
22.57
22.52
22.28
21.94
21.53
21.04
20.42
19.57
18.45
16.96
15.04
12.66
9.87
6.8
3.75
1.03
-1.08
-2.46
-3.32
-4.05
-5.14
-6.97
-9.68
-13.23
-17.45
-22.17
-27.27
-32.7
-38.43
-44.39
-50.59
-57.02
-63.57
-69.8
-74.86
-77.54
-76.58
-71.14
-61.13
-47.4
-31.44
-15.0
0.37
13.59
24.06
31.56
36.16
38.04
37.56
35.25
31.78
27.95
24.56
22.26
21.42
22.09
23.99
26.69
29.74
32.76
35.5
37.82
39.62
40.75
41.04
40.29
38.36
35.25
31.13
26.29
21.13
16.04
11.29
7.06
3.35
0.04
-3.02
-5.96
-8.85
-11.73
-14.54
-17.26
-19.9
-22.55
-25.43
-28.79
-32.91
-37.98
-44.0
-50.61
-56.98
-61.88
-63.94
-62.04
-55.67
-45.17
-31.75
-17.14
-3.13
8.91
18.29
24.96
29.29
31.78
32.84
32.74
31.74
30.11
28.22
26.47
25.13
24.23
23.66
23.19
22.69
22.13
21.61
21.24
21.01
20.79
20.39
19.62
18.33
16.49
14.19
11.56
8.73
5.78
2.67
-0.68
-4.36
-8.39
-12.63
-16.89
-20.98
-24.92
-28.92
-33.38
-38.65
-44.8
-51.39
-57.46
-61.7
-62.86
-60.1
-53.3
-43.06
-30.61
-17.41
-4.82
6.21
15.17
21.96
26.75
29.81
31.44
31.94
31.64
30.88
29.99
29.28
28.89
28.85
29.04
29.29
29.5
29.6
29.65
29.66
29.63
29.4
28.76
27.42
25.2
22.07
18.22
14.07
10.01
6.35
3.21
0.48
-2.11
-4.88
-8.09
-11.88
-16.19
-20.83
-25.55
-30.04
-34.09
-37.66
-40.86
-44.04
-47.63
-51.95
-56.95
-62.06
-66.15
-67.85
-65.94
-59.77
-49.56
-36.33
-21.62
-7.05
6.03
16.86
25.27
31.59
36.41
40.24
43.35
45.7
47.0
47.0
45.73
43.61
41.37
39.79
39.4
40.28
42.14
44.46
46.74
48.7
50.21
51.25
51.79
51.56
50.23
47.37
42.73
36.44
29.05
21.53
15.01
10.55
8.88
10.31
14.59
20.75
27.07
31.4
31.79
27.33
18.56
7.36
-3.94
-13.6
-21.16
-27.41
-33.63
-40.66
-48.24
-55.13
-59.79
-61.04
-58.47
-52.32
-43.18
-31.86
-19.38
-6.84
4.65
14.25
21.6
26.84
30.37
32.38
32.55
30.07
24.1
14.47
2.12
-10.92
-22.25
-30.11
-34.12
-35.26
-35.14
-35.09
-35.5
-35.85
-35.35
-33.83
-32.14
-31.77
-34.18
-40.09
-49.26
-60.73
-73.16
-85.07
-94.89
-101.0
-101.93
-96.87
-86.25
-71.83
-56.33
-42.53
-32.37
-26.48
-24.27
-24.53
-26.06
-28.12
-30.47
-33.26
-36.74
-41.23
-46.87
-53.5
-60.48
-66.63
-70.48
-70.62
-66.16
-57.02
-43.95
-28.29
-11.67
4.42
18.84
30.94
40.56
47.97
53.65
58.05
61.29
63.09
62.89
60.13
54.59
46.67
37.35
27.94
19.63
13.08
8.2
4.22
0.11
-4.84
-10.66
-16.69
-21.84
-25.26
-26.73
-26.74
-26.09
-25.24
-23.92
-21.22
-16.13
-8.09
2.7
15.3
28.36
40.38
49.92
55.69
56.51
51.73
41.96
29.54
18.29
12.46
15.0
26.41
44.66
66.17
87.53
106.7
123.17
136.82
146.8
150.95
146.51
132.02
108.69
80.51
52.54
28.69
10.2
-4.52
-18.88
-36.81
-61.67
-95.43
-137.82
-185.7
-233.19
-272.96
-298.61
-306.91
-298.56
-277.26
-247.64
-213.59
-178.01
-143.6
-113.39
-90.01
-74.05
-62.85
-51.27
-34.38
-10.46
18.03
45.94
68.56
84.22
94.63
102.93
111.08
118.4
122.26
120.21
111.93
99.77
87.7
79.31
76.35
78.4
83.88
91.37
100.45
111.58
125.26
141.0
156.98
170.69
179.97
183.94
183.22
179.41
174.13
168.24
161.61
153.2
141.68
126.0
105.89
81.91
55.35
28.05
2.11
-20.4
-37.79
-49.13
-54.57
-55.37
-53.53
-51.18
-49.84
-50.1
-51.54
-53.18
-54.01
-53.39
-51.14
-47.34
-42.27
-36.24
-29.91
-24.22
-20.29
-19.08
-20.95
-25.52
-31.81
-38.77
-45.7
-52.49
-59.5
-67.14
-75.53
-84.2
-92.24
-98.56
-102.24
-102.77
-100.18
-94.73
-86.85
-77.02
-65.59
-52.81
-38.87
-24.05
-8.71
6.59
21.35
35.07
47.25
57.51
65.61
71.66
76.12
79.71
83.21
87.47
92.95
99.56
106.85
114.2
121.18
127.65
133.61
139.09
144.61
150.25
155.34
158.59
158.69
154.94
147.54
137.34
125.42
114.14
105.15
98.71
93.68
88.38
81.64
73.33
64.16
55.19
49.62
49.46
54.41
61.84
68.4
71.92
72.26
70.86
69.56
72.91
83.66
101.49
123.16
144.57
163.07
178.09
190.31
182.9
146.21
81.46
2.15
-74.38
-136.2
-179.25
-205.29
-217.49
-222.59
-222.04
-215.81
-204.26
-189.54
-175.12
-164.17
-158.43
-158.31
-163.52
-169.28
-170.26
-162.88
-147.51
-128.61
-111.88
-103.11
-102.99
-109.7
-118.25
-124.32
-126.21
-123.36
-117.94
-112.53
-108.76
-106.55
-105.03
-101.92
-95.56
-85.46
-72.37
-57.59
-41.77
-24.67
-5.46
16.05
39.44
63.12
84.72
101.82
112.67
117.05
116.22
112.34
107.42
102.91
99.42
96.87
94.67
91.85
87.44
80.69
71.39
59.91
47.53
36.16
27.92
24.31
25.44
29.94
35.35
39.0
38.88
34.33
25.91
15.04
3.23
-8.41
-19.29
-29.16
-37.85
-45.12
-50.61
-54.01
-55.2
-54.37
-52.09
-49.33
-47.21
-46.74
-48.52
-52.5
-58.15
-64.57
-70.78
-75.9
-79.15
-79.93
-77.88
-73.13
-66.31
-58.55
-51.11
-44.94
-40.33
-36.84
-33.66
-29.97
-25.38
-20.01
-14.36
-9.04
-4.53
-1.02
1.63
3.76
5.88
8.45
11.72
15.64
19.82
23.7
26.74
28.73
29.9
30.69
31.42
31.97
31.78
30.07
26.31
20.61
13.68
6.54
-0.08
-6.02
-11.69
-17.58
-23.84
-30.03
-35.35
-39.06
-40.98
-41.59
-41.81
-42.59
-44.37
-46.99
-49.65
-51.33
-51.17
-48.81
-44.37
-38.38
-31.44
-24.05
-16.44
-8.78
-1.32
5.43
10.76
14.08
15.13
14.14
11.68
8.41
4.81
1.08
-2.79
-6.81
-10.92
-14.9
-18.6
-22.01
-25.37
-29.2
-34.1
-40.58
-48.83
-58.6
-69.09
-79.11
-87.3
-92.55
-94.35
-92.88
-88.97
-83.67
-77.87
-72.0
-65.97
-59.27
-51.34
-41.73
-30.21
-16.8
-1.93
13.42
27.59
38.58
44.77
45.78
43.04
39.58
39.1
44.6
57.32
76.45
99.74
124.58
148.9
171.47
191.55
208.43
221.01
227.96
228.21
221.52
208.74
191.87
173.47
156.07
141.49
130.48
122.74
117.26
112.73
108.01
102.48
95.96
88.63
80.81
72.77
64.68
56.7
48.8
40.84
32.57
23.68
14.11
4.11
-5.63
-14.2
-20.83
-25.29
-28.07
-30.13
-32.44
-35.44
-39.03
-42.81
-46.63
-50.82
-56.25
-64.02
-74.74
-88.23
-103.47
-119.03
-133.66
-146.54
-157.45
-166.57
-174.59
-181.86
-187.97
-191.67
-191.5
-186.48
-176.65
-163.06
-147.28
-131.57
-117.33
-104.62
-92.53
-80.14
-67.28
-54.65
-43.17
-33.45
-26.78
-23.73
-23.78
-25.71
-28.38
-31.41
-35.02
-39.49
-44.71
-51.84
-61.57
-73.59
-86.66
-99.47
-111.21
-121.54
-130.08
-125.59
-102.26
-62.64
-16.98
23.47
52.5
69.74
78.28
82.1
82.63
79.64
72.08
60.02
45.33
31.23
20.34
13.52
10.28
10.11
10.34
8.77
5.1
0.76
-1.55
0.12
6.25
16.79
31.03
46.8
61.74
74.26
83.51
90.33
95.76
100.29
104.77
109.85
115.24
120.51
125.69
130.6
136.17
142.89
144.18
135.26
115.43
88.23
59.17
37.52
22.89
13.42
7.49
4.35
2.52
2.17
3.24
5.05
6.65
6.61
5.16
2.99
0.75
-0.53
0.06
2.54
6.26
10.37
13.58
15.75
17.02
17.47
17.51
17.71
18.29
19.08
19.82
19.83
19.05
17.53
15.26
12.43
9.35
6.15
2.76
-0.97
-5.28
-10.05
-15.07
-20.11
-25.02
-29.6
-33.74
-37.36
-40.35
-42.66
-44.17
-44.83
-44.73
-44.03
-42.91
-41.54
-40.12
-38.77
-37.6
-36.63
-35.85
-35.21
-34.74
-34.5
-34.59
-35.07
-35.95
-37.19
-38.68
-40.33
-41.96
-43.34
-44.07
-43.73
-41.98
-38.7
-34.11
-28.64
-22.86
-17.21
-11.92
-6.97
-2.28
2.26
6.68
10.86
14.69
18.03
20.82
23.04
24.6
25.33
24.97
23.35
20.47
16.6
12.24
7.94
4.06
0.65
-2.49
-5.67
-9.03
-12.4
-15.42
-17.68
-18.85
-18.88
-17.85
-15.93
-13.34
-10.33
-7.22
-4.45
-2.51
-1.75
-2.28
-3.88
-6.13
-8.46
-10.49
-12.09
-13.38
-14.71
-16.45
-18.88
-22.06
-25.78
-29.55
-32.73
-34.63
-34.77
-32.98
-29.51
-24.85
-19.6
-14.18
-8.84
-3.61
1.49
6.45
11.17
15.56
19.53
23.1
26.27
29.05
31.43
33.35
34.8
35.78
36.4
36.83
37.27
37.91
38.84
39.98
41.12
41.96
42.19
41.59
40.06
37.56
34.14
29.91
25.1
20.05
15.07
10.48
6.44
2.93
-0.12
-2.8
-5.15
-7.15
-8.8
-10.11
-11.19
-12.13
-13.0
-13.72
-14.08
-13.81
-12.63
-10.37
-7.07
-3.0
1.45
5.79
9.61
12.61
14.73
16.08
16.89
17.54
18.33
19.54
21.22
23.32
25.61
27.82
29.69
30.97
31.51
31.23
30.1
28.22
25.76
22.94
19.99
17.06
14.25
11.56
8.92
6.27
3.56
0.81
-1.9
-4.47
-6.86
-9.02
-10.97
-12.75
-14.31
-15.63
-16.68
-17.49
-18.14
-18.79
-19.58
-20.59
-21.82
-23.16
-24.41
-25.25
-25.27
-24.05
-21.34
-17.19
-12.0
-6.46
-1.33
2.75
5.48
6.95
7.47
7.44
7.17
6.8
6.36
5.87
5.4
5.1
5.16
5.71
6.73
8.05
9.42
10.55
11.34
11.8
12.09
12.4
12.87
13.53
14.31
15.06
15.63
15.97
16.05
15.93
15.63
15.22
14.75
14.27
13.8
13.36
12.91
12.38
11.72
10.9
9.97
8.99
7.98
6.83
5.35
3.33
0.59
-2.85
-6.72
-10.59
-13.94
-16.3
-17.37
-17.08
-15.52
-12.95
-9.68
-6.06
-2.38
1.13
4.34
7.21
9.73
11.89
13.67
14.99
15.74
15.81
15.12
13.74
11.85
9.8
8.0
6.78
6.3
6.49
7.11
7.89
8.67
9.36
9.97
10.46
10.75
10.68
10.17
9.29
8.25
7.3
6.58
6.12
5.8
5.46
5.01
4.42
3.76
3.08
2.41
1.72
0.99
0.2
-0.65
-1.55
-2.52
-3.54
-4.64
-5.8
-6.95
-8.0
-8.81
-9.25
-9.21
-8.68
-7.68
-6.33
-4.79
-3.21
-1.71
-0.38
0.71
1.49
1.89
1.87
1.47
0.81
0.04
-0.7
-1.35
-1.89
-2.34
-2.73
-3.03
-3.2
-3.19
-2.95
-2.54
-2.03
-1.52
-1.15
-0.97
-1.03
-1.27
-1.65
-2.12
-2.67
-3.32
-4.02
-4.73
-5.35
-5.83
-6.17
-6.42
-6.6
-6.66
-6.49
-5.99
-5.15
-4.13
-3.19
-2.62
-2.48
-2.61
-2.6
-2.03
-0.62
1.63
4.44
7.4
10.13
12.45
14.34
15.87
17.06
17.84
18.1
17.75
16.92
15.86
14.88
14.13
13.61
13.04
12.11
10.59
8.5
6.11
3.78
1.85
0.47
-0.38
-0.82
-0.97
-0.95
-0.87
-0.91
-1.28
-2.13
-3.52
-5.3
-7.22
-9.01
-10.49
-11.63
-12.49
-13.2
-13.86
-14.54
-15.28
-16.18
-17.26
-18.49
-19.76
-20.81
-21.36
-21.1
-19.82
-17.46
-14.15
-10.23
-6.11
-2.28
0.87
3.09
4.36
4.8
4.62
4.06
3.22
2.24
1.19
0.24
-0.43
-0.67
-0.47
0.07
0.74
1.34
1.75
1.94
1.97
1.92
1.83
1.75
1.78
2.07
2.71
3.69
4.86
5.91
6.55
6.53
5.86
4.7
3.33
1.91
0.5
-0.95
-2.48
-3.97
-5.24
-6.06
-6.39
-6.42
-6.54
-7.15
-8.49
-10.54
-12.95
-15.28
-17.13
-18.21
-18.44
-17.87
-16.63
-14.89
-12.84
-10.63
-8.36
-6.12
-3.94
-1.89
0.01
1.68
3.05
4.09
4.89
5.55
6.17
6.82
7.39
7.81
8.01
8.0
7.87
7.77
7.75
7.76
7.69
7.42
6.87
6.16
5.45
4.89
4.52
4.24
3.89
3.35
2.6
1.7
0.74
-0.25
-1.29
-2.47
-3.8
-5.22
-6.6
-7.81
-8.8
-9.61
-10.35
-11.15
-12.13
-13.41
-15.0
-16.81
-18.63
-20.06
-20.68
-20.19
-18.48
-15.7
-12.22
-8.47
-4.79
-1.45
1.39
3.64
5.28
6.34
6.94
7.25
7.5
7.85
8.41
9.12
9.89
10.65
11.28
11.78
12.16
12.48
12.75
12.99
13.16
13.2
13.06
12.71
12.14
11.37
10.42
9.33
8.14
6.92
5.74
4.65
3.61
2.58
1.5
0.32
-0.92
-2.17
-3.32
-4.35
-5.26
-6.15
-7.16
-8.35
-9.75
-11.32
-12.99
-14.64
-16.16
-17.32
-17.87
-17.51
-16.07
-13.57
-10.24
-6.47
-2.7
0.72
3.57
5.77
7.29
8.14
8.33
7.95
7.11
5.97
4.69
3.48
2.55
2.04
2.07
2.59
3.45
4.37
5.06
5.35
5.22
4.8
4.29
3.84
3.52
3.27
2.97
2.52
1.86
0.94
-0.24
-1.69
-3.38
-5.28
-7.26
-9.13
-10.74
-11.93
-12.72
-13.24
-13.76
-14.54
-15.78
-17.45
-19.27
-20.76
-21.41
-20.84
-18.95
-15.95
-12.28
-8.47
-4.95
-1.96
0.45
2.31
3.71
4.7
5.33
5.65
5.75
5.74
5.72
5.78
5.89
6.03
6.15
6.3
6.53
6.94
7.55
8.35
9.21
9.96
10.45
10.59
10.38
9.9
9.28
8.61
7.93
7.21
6.38
5.37
4.18
2.84
1.51
0.34
-0.57
-1.21
-1.65
-2.08
-2.64
-3.45
-4.53
-5.75
-6.92
-7.75
-7.95
-7.25
-5.42
-2.29
2.11
7.59
13.76
20.15
26.27
31.77
36.43
40.14
42.81
44.38
44.87
44.51
43.73
43.04
42.99
43.83
45.56
48.01
51.01
54.43
58.31
62.68
67.51
72.79
78.38
84.2
90.19
96.21
102.13
107.81
113.17
118.23
123.07
127.73
132.15
136.12
139.32
141.46
142.34
141.94
140.38
137.89
134.71
130.9
126.3
120.51
113.24
104.43
94.34
83.43
72.08
60.46
48.53
36.33
24.22
12.89
3.01
-5.14
-11.98
-18.41
-25.42
-33.62
-43.04
-53.4
-64.35
-75.76
-87.51
-99.3
-110.53
-120.39
-128.25
-133.9
-137.58
-139.8
-140.92
-140.86
-139.19
-135.38
-129.23
-120.96
-111.18
-100.56
-89.65
-78.79
-68.14
-57.89
-48.2
-39.2
-30.88
-23.08
-15.75
-9.13
-3.91
-1.14
-1.96
-7.07
-16.37
-28.67
-41.87
-53.53
-61.6
-65.11
-64.31
-60.47
-55.06
-49.25
-43.63
-38.66
-35.17
-34.55
-38.32
-47.09
-59.81
-73.67
-85.11
-91.29
-91.25
-86.05
-77.86
-68.77
-59.93
-51.53
-43.44
-35.9
-29.74
-25.99
-25.18
-26.99
-30.27
-33.57
-35.8
-36.49
-35.83
-34.29
-32.35
-30.3
-28.23
-26.18
-24.14
-22.17
-20.48
-19.37
-19.2
-20.21
-22.39
-25.46
-28.96
-32.37
-35.38
-37.96
-40.28
-42.65
-45.31
-48.3
-51.51
-54.62
-57.3
-59.27
-60.36
-60.55
-60.01
-59.04
-58.1
-57.65
-58.02
-59.3
-61.19
-63.05
-63.93
-62.96
-59.49
-53.35
-44.87
-34.79
-23.98
-13.27
-3.3
5.49
12.79
18.38
22.09
23.95
24.2
23.31
21.8
20.12
18.56
17.22
16.13
15.35
14.97
15.08
15.65
16.5
17.29
17.65
17.36
16.4
14.88
13.05
11.09
9.08
6.96
4.6
1.86
-1.31
-4.81
-8.41
-11.88
-14.99
-17.66
-19.98
-22.22
-24.79
-28.11
-32.54
-38.19
-44.78
-51.59
-57.45
-61.02
-61.18
-57.34
-49.7
-39.18
-27.13
-14.89
-3.53
6.33
14.41
20.68
25.14
27.91
29.2
29.39
28.99
28.51
28.39
28.79
29.65
30.61
31.24
31.18
30.35
28.99
27.6
26.76
26.79
27.64
28.85
29.66
29.32
27.24
23.26
17.7
11.38
5.34
0.45
-3.06
-5.89
-9.48
-15.47
-24.94
-38.01
-53.69
-70.42
-86.64
-101.24
-113.6
-123.23
-129.64
-132.48
-131.9
-128.54
-123.21
-116.26
-107.12
-94.56
-77.41
-55.66
-30.77
-5.42
17.65
36.71
51.43
62.6
71.27
78.03
82.97
86.04
87.68
88.95
91.24
95.69
102.76
111.91
121.91
131.42
139.52
146.04
151.5
156.58
161.52
165.84
168.35
167.69
162.95
154.02
141.65
127.06
111.51
95.91
80.94
67.0
54.52
43.87
35.15
28.07
21.99
16.22
10.13
3.53
-3.67
-11.54
-20.2
-29.64
-39.36
-48.19
-54.44
-56.5
-53.44
-45.62
-34.54
-22.29
-10.76
-1.1
6.38
11.88
15.69
17.85
18.15
16.31
12.41
6.88
0.61
-5.41
-10.32
-13.68
-15.49
-16.17
-16.27
-16.18
-16.08
-15.85
-15.34
-14.41
-13.14
-11.73
-10.34
-9.0
-7.59
-5.99
-4.2
-2.34
-0.56
1.11
2.87
5.02
7.73
10.8
13.67
15.65
16.25
15.4
13.45
10.96
8.3
5.51
2.42
-1.19
-5.21
-9.27
-12.68
-14.77
-15.05
-13.33
-9.71
-4.44
2.18
9.8
17.97
26.12
33.55
39.54
43.46
44.96
44.12
41.42
37.68
33.87
30.82
29.0
28.39
28.54
28.78
28.42
27.06
24.61
21.31
17.51
13.6
9.88
6.57
3.78
1.52
-0.25
-1.65
-2.84
-3.98
-5.21
-6.56
-8.02
-9.51
-10.97
-12.29
-13.41
-14.27
-14.88
-15.28
-15.57
-15.93
-16.52
-17.47
-18.8
-20.34
-21.91
-23.4
-24.95
-26.9
-29.56
-32.96
-36.64
-39.62
-40.7
-38.9
-33.85
-26.03
-16.48
-6.45
2.99
11.18
17.85
23.03
26.76
29.12
30.18
30.1
29.23
28.07
27.15
26.93
27.72
29.62
32.55
36.24
40.19
43.8
46.39
47.39
46.5
43.79
39.66
34.76
29.72
24.97
20.64
16.66
12.8
8.86
4.7
0.22
-4.58
-9.71
-15.11
-20.68
-26.16
-31.26
-35.67
-39.18
-41.88
-44.02
-46.01
-48.22
-50.74
-53.24
-55.09
-55.44
-53.66
-49.48
-43.12
-35.23
-26.64
-18.14
-10.3
-3.48
2.2
6.76
10.29
12.95
14.96
16.58
18.08
19.63
21.28
22.96
24.52
25.69
26.33
26.35
25.83
24.95
23.9
22.83
21.82
20.83
19.74
18.41
16.66
14.32
11.3
7.57
3.34
-1.04
-5.07
-8.36
-10.69
-12.14
-13.02
-13.66
-14.33
-15.09
-15.93
-16.78
-17.63
-18.56
-19.71
-21.22
-23.17
-25.58
-28.48
-31.81
-35.4
-38.91
-41.8
-43.36
-42.97
-40.24
-35.2
-28.36
-20.55
-12.66
-5.43
0.75
5.8
9.88
13.2
16.04
18.57
20.87
22.99
24.93
26.77
28.56
30.4
32.32
34.31
36.26
38.02
39.44
40.48
41.29
42.07
43.08
44.45
46.16
47.98
49.48
50.14
49.34
46.6
41.6
34.36
25.2
14.71
3.59
-7.54
-18.24
-28.4
-38.02
-47.18
-55.9
-64.04
-71.45
-77.85
-83.01
-86.67
-88.73
-89.3
-88.74
-87.58
-86.22
-84.71
-82.56
-78.85
-72.51
-62.93
-50.15
-34.99
-18.85
-3.23
10.58
21.84
30.3
36.22
40.1
42.54
44.02
44.83
45.13
45.01
44.63
44.28
44.3
45.01
46.49
48.56
50.87
53.07
55.03
56.96
59.34
62.65
67.12
72.5
78.17
83.35
87.44
90.31
92.23
93.59
94.61
95.01
94.24
91.6
86.39
77.92
65.49
48.61
27.63
4.17
-18.59
-36.57
-45.95
-44.61
-32.97
-13.86
8.42
29.39
45.54
54.81
56.53
51.22
40.16
25.07
7.73
-10.39
-28.33
-45.53
-61.57
-75.86
-87.63
-96.16
-101.02
-102.38
-100.87
-97.2
-91.92
-85.25
-77.28
-68.2
-58.49
-48.85
-40.0
-32.48
-26.54
-22.14
-19.04
-16.93
-15.51
-14.55
-13.94
-13.57
-13.41
-13.4
-13.45
-13.48
-13.53
-13.73
-14.29
-15.32
-16.77
-18.4
-19.96
-21.35
-22.74
-24.46
-26.88
-30.27
-34.68
-40.05
-46.4
-53.79
-62.32
-71.85
-81.72
-90.69
-97.2
-99.81
-97.76
-91.33
-81.67
-70.48
-59.45
-49.82
-42.18
-36.5
-32.29
-28.83
-25.39
-21.44
-16.81
-11.81
-7.12
-3.5
-1.43
-0.81
-1.01
-1.11
-0.23
2.03
5.65
10.27
15.43
20.79
26.11
31.13
35.54
38.98
41.15
42.11
42.3
42.51
43.6
46.16
50.29
55.49
60.86
65.39
68.39
69.54
68.97
67.01
63.95
59.94
55.03
49.32
43.19
37.33
32.54
29.53
28.6
29.59
31.82
34.33
35.92
35.43
32.03
25.47
16.29
5.87
-3.85
-10.87
-13.71
-12.0
-6.58
0.6
7.17
11.06
11.21
7.9
2.64
-2.44
-5.45
-5.42
-2.73
1.06
3.88
3.96
0.55
-5.83
-13.67
-21.17
-26.96
-30.59
-32.54
-33.86
-35.62
-38.54
-42.77
-47.9
-53.0
-56.73
-57.63
-54.42
-46.57
-34.6
-20.06
-5.06
8.46
19.33
27.24
32.51
35.66
37.1
37.06
35.75
33.4
30.32
26.84
23.34
20.33
18.59
18.96
22.02
27.59
34.39
40.32
43.02
40.86
33.49
21.92
8.03
-6.25
-19.61
-31.61
-42.33
-51.94
-60.26
-66.78
-71.04
-73.13
-73.91
-74.89
-77.59
-82.8
-90.25
-98.56
-105.77
-110.01
-109.94
-105.04
-95.54
-82.22
-66.31
-49.31
-32.8
-18.11
-6.12
3.02
9.67
14.5
18.08
20.69
22.38
23.14
23.08
22.42
21.28
19.52
16.76
12.69
7.3
1.11
-5.01
-10.26
-14.33
-17.57
-20.8
-24.86
-30.2
-36.66
-43.55
-49.92
-54.98
-58.27
-59.74
-59.71
-58.74
-57.47
-56.45
-55.84
-55.25
-53.68
-49.77
-42.18
-30.13
-13.74
5.94
27.21
48.25
67.54
84.1
97.56
107.91
115.43
120.47
123.5
125.04
125.61
125.66
125.46
125.11
124.55
123.66
122.46
121.17
120.24
120.28
121.77
124.95
129.56
134.85
139.67
142.78
143.08
139.88
133.01
122.83
110.1
95.77
80.63
65.22
49.68
33.81
17.26
-0.23
-18.59
-37.25
-55.26
-71.57
-85.38
-96.48
-105.42
-113.38
-121.79
-131.78
-143.62
-156.42
-168.17
-176.33
-178.48
-173.13
-160.1
-140.46
-116.17
-89.45
-62.37
-36.55
-13.24
6.64
22.46
33.93
41.19
44.8
45.64
44.6
42.41
39.44
35.86
31.71
27.14
22.5
18.21
14.74
12.28
10.8
10.04
9.63
9.29
8.82
8.15
7.27
6.21
4.97
3.59
2.15
0.75
-0.5
-1.55
-2.4
-3.13
-3.89
-4.8
-5.94
-7.21
-8.44
-9.37
-9.8
-9.68
-9.14
-8.41
-7.75
-7.35
-7.3
-7.61
-8.25
-9.13
-10.16
-11.27
-12.44
-13.73
-15.26
-17.16
-19.44
-21.9
-24.01
-25.03
-24.21
-20.99
-15.27
-7.43
1.72
11.19
19.99
27.48
33.31
37.46
40.16
41.69
42.39
42.58
42.57
42.53
42.65
42.95
43.41
43.98
44.58
45.1
45.51
45.8
45.99
46.14
46.23
46.18
45.81
44.89
43.23
40.79
37.68
34.11
30.35
26.55
22.73
18.86
14.8
10.56
6.23
2.03
-1.81
-4.99
-7.39
-9.0
-9.92
-10.33
-10.45
-10.41
-10.27
-10.0
-9.59
-9.11
-8.73
-8.64
-9.03
-9.97
-11.42
-13.3
-15.55
-18.15
-21.0
-23.81
-26.08
-27.21
-26.72
-24.45
-20.65
-15.86
-10.76
-5.94
-1.8
1.42
3.6
4.78
5.13
4.97
4.66
4.52
4.63
4.91
5.1
5.04
4.72
4.32
4.12
4.33
5.04
6.17
7.55
9.02
10.41
11.58
12.41
12.75
12.48
11.59
10.17
8.39
6.48
4.59
2.83
1.16
-0.44
-2.0
-3.46
-4.73
-5.7
-6.31
-6.62
-6.77
-6.9
-7.12
-7.43
-7.79
-8.16
-8.59
-9.18
-10.04
-11.17
-12.44
-13.66
-14.71
-15.61
-16.53
-17.68
-19.1
-20.55
-21.55
-21.56
-20.19
-17.47
-13.73
-9.54
-5.47
-1.94
0.86
2.89
4.25
5.08
5.55
5.82
6.03
6.24
6.39
6.4
6.19
5.72
5.1
4.5
4.08
3.92
3.97
4.13
4.22
4.14
3.84
3.35
2.72
2.03
1.34
0.73
0.28
0.04
0.01
0.13
0.26
0.22
-0.13
-0.88
-1.96
-3.17
-4.28
-5.07
-5.5
-5.7
-5.89
-6.27
-6.93
-7.79
-8.72
-9.61
-10.42
-11.22
-12.09
-13.06
-14.12
-15.24
-16.46
-17.81
-19.26
-20.6
-21.44
-21.32
-19.89
-17.13
-13.31
-8.95
-4.63
-0.8
2.32
4.65
6.25
7.24
7.73
7.85
7.75
7.53
7.26
6.99
6.7
6.38
6.04
5.7
5.46
5.44
5.71
6.27
7.03
7.76
8.29
8.45
8.21
7.64
6.87
6.03
5.24
4.59
4.13
3.82
3.6
3.3
2.75
1.87
0.66
-0.74
-2.15
-3.45
-4.6
-5.67
-6.74
-7.84
-8.97
-10.07
-11.08
-11.98
-12.72
-13.3
-13.75
-14.19
-14.8
-15.78
-17.23
-19.05
-20.91
-22.36
-22.9
-22.24
-20.33
-17.38
-13.77
-9.93
-6.19
-2.81
0.08
2.37
4.02
4.96
5.18
4.79
4.0
3.11
2.38
1.92
1.65
1.39
0.94
0.25
-0.52
-1.11
-1.28
-1.02
-0.55
-0.28
-0.61
-1.77
-3.76
-6.3
-8.96
-11.26
-12.87
-13.77
-14.28
-15.08
-17.02
-20.77
-26.35
-33.0
-39.18
-43.08
-43.16
-38.57
-29.42
-16.62
-1.71
13.56
27.41
38.39
45.59
49.0
49.5
48.68
48.25
49.35
52.16
55.96
59.59
61.97
62.53
61.09
57.69
52.38
45.24
36.62
27.38
18.72
11.8
7.18
4.52
2.75
0.66
-2.48
-6.6
-10.88
-14.31
-16.16
-16.36
-15.38
-13.9
-12.5
-11.39
-10.49
-9.62
-8.61
-7.46
-6.34
-5.49
-5.14
-5.36
-6.13
-7.28
-8.57
-9.73
-10.54
-10.81
-10.5
-9.7
-8.63
-7.58
-6.84
-6.6
-6.9
-7.67
-8.75
-9.99
-11.26
-12.46
-13.45
-14.11
-14.41
-14.44
-14.46
-14.82
-15.75
-17.22
-18.86
-20.08
-20.28
-19.06
-16.39
-12.58
-8.16
-3.71
0.32
3.67
6.24
8.1
9.37
10.22
10.73
10.94
10.86
10.55
10.11
9.7
9.44
9.38
9.48
9.63
9.64
9.38
8.77
7.85
6.79
5.69
4.77
4.14
3.86
3.71
3.34
2.41
0.81
-1.31
-3.68
-5.75
-6.95
-6.95
-5.99
-4.76
-4.12
-4.65
-6.52
-9.55
-12.92
-15.51
-16.48
-15.96
-15.07
-15.4
-18.5
-25.05
-34.66
-45.22
-53.5
-56.32
-51.86
-39.98
-21.9
0.17
24.95
48.08
63.69
67.5
59.73
44.72
28.58
16.4
10.48
10.17
12.91
16.72
20.76
26.73
35.82
47.5
59.61
69.47
75.17
76.25
74.07
71.05
69.31
69.21
69.79
69.44
67.07
62.6
56.47
49.91
44.54
41.86
42.43
45.74
50.51
55.26
58.26
56.96
49.61
36.15
18.6
0.22
-15.7
-26.83
-32.03
-32.45
-32.35
-36.17
-46.42
-62.28
-80.13
-95.37
-103.8
-102.25
-90.79
-74.49
-59.88
-52.69
-55.93
-70.06
-94.6
-128.3
-168.28
-198.11
-203.54
-177.11
-122.96
-53.04
19.79
84.81
130.67
158.95
172.42
170.38
152.71
120.86
78.0
31.77
-12.19
-50.17
-79.56
-100.75
-119.73
-142.63
-172.98
-209.93
-249.46
-287.22
-319.71
-344.19
-343.66
-310.48
-248.01
-169.7
-90.69
-20.7
36.8
82.51
119.06
148.48
169.22
180.12
181.73
176.99
169.87
163.59
160.08
160.2
163.59
167.25
168.71
166.75
161.96
155.71
148.89
141.68
133.73
124.34
111.66
94.75
73.53
50.49
27.73
6.98
-10.62
-24.56
-34.74
-42.0
-46.92
-50.23
-52.13
-52.88
-52.65
-51.58
-49.78
-47.16
-45.63
-43.69
-40.49
-35.35
-28.17
-19.05
-8.22
3.85
16.72
29.9
43.38
56.71
69.59
81.16
90.81
98.19
103.24
106.31
108.0
109.41
111.13
113.58
115.99
117.47
117.12
114.23
108.48
99.88
88.57
73.75
58.44
42.87
26.43
8.23
-12.31
-35.1
-59.32
-83.55
-106.5
-127.28
-146.34
-164.7
-183.98
-206.16
-233.11
-265.53
-301.9
-337.86
-366.57
-380.8
-374.69
-345.97
-297.11
-234.72
-167.47
-103.56
-48.58
-4.93
27.42
49.99
64.82
73.78
78.61
80.91
82.15
83.39
85.01
86.56
87.07
85.81
82.65
78.38
74.28
71.63
71.25
73.13
76.5
80.19
83.0
83.84
82.07
77.46
70.22
60.91
50.31
39.09
27.64
16.07
4.06
-8.8
-22.91
-38.49
-55.42
-73.24
-90.94
-107.07
-119.62
-126.48
-125.88
-117.01
