74.78
75.47
75.16
74.48
73.92
73.74
73.88
74.17
74.43
74.61
74.83
75.25
75.95
76.87
77.68
77.89
76.96
74.43
70.13
64.23
57.22
49.76
42.45
35.57
29.03
22.47
15.49
7.86
-0.23
-8.23
-15.45
-21.32
-25.72
-29.02
-32.02
-35.72
-41.03
-48.55
-58.27
-69.47
-80.58
-89.44
-93.7
-91.53
-82.33
-67.04
-47.99
-28.17
-10.38
3.56
13.01
18.33
20.36
19.99
17.9
14.67
10.87
7.17
4.27
2.69
2.64
3.88
5.92
8.14
9.98
11.14
11.54
11.33
10.76
10.1
9.56
9.22
9.05
8.89
8.54
7.76
6.4
4.36
1.6
-1.84
-5.88
-10.32
-14.94
-19.47
-23.78
-27.9
-32.17
-37.06
-42.88
-49.32
-55.26
-58.88
-58.21
-51.87
-39.7
-22.94
-3.91
14.82
31.13
43.85
52.83
58.48
61.5
62.48
61.88
60.08
57.46
54.46
51.42
48.6
46.08
43.8
41.67
39.62
37.71
36.0
34.57
33.34
32.08
30.45
28.09
24.79
20.62
15.95
11.24
6.89
2.94
-0.93
-5.25
-10.45
-16.69
-23.67
-30.78
-37.45
-43.34
-48.55
-53.47
-58.72
-64.78
-71.97
-80.13
-88.53
-95.75
-99.88
-98.93
-91.52
-77.49
-58.11
-35.84
-13.59
6.09
21.61
32.57
39.46
43.29
45.04
45.51
45.24
44.64
44.16
44.2
45.13
46.98
49.42
51.72
53.01
52.67
50.62
47.42
43.93
40.92
38.68
36.84
34.71
31.63
27.37
22.31
17.22
12.89
9.72
7.53
5.61
3.09
-0.73
-6.14
-12.94
-20.57
-28.35
-35.67
-42.15
-47.64
-52.32
-56.59
-61.11
-66.62
-73.67
-82.14
-90.97
-98.15
-101.18
-97.93
-87.44
-70.41
-49.0
-26.14
-4.6
13.72
28.06
38.52
45.67
50.11
52.28
52.53
51.27
48.99
46.28
43.73
41.76
40.62
40.35
40.81
41.77
43.01
44.37
45.71
46.9
47.75
48.06
47.55
45.97
43.14
39.08
33.97
28.19
22.2
16.42
11.17
6.51
2.33
-1.67
-5.81
-10.34
-15.36
-20.8
-26.47
-32.1
-37.45
-42.34
-46.77
-50.85
-54.88
-59.27
-64.55
-71.09
-78.89
-87.16
-94.26
-97.92
-95.92
-86.93
-71.16
-50.39
-27.47
-5.42
13.5
28.15
38.53
45.27
49.2
51.0
51.2
50.24
48.59
46.74
45.18
44.24
44.07
44.61
45.61
46.72
47.61
48.1
48.15
47.89
47.4
46.68
45.56
43.8
41.26
37.93
33.97
29.66
25.21
20.74
16.22
11.65
7.03
2.43
-2.13
-6.74
-11.58
-16.83
-22.53
-28.48
-34.27
-39.49
-43.89
-47.58
-50.98
-54.68
-59.28
-65.22
-72.53
-80.74
-88.72
-94.73
-96.71
-92.89
-82.44
-65.96
-45.41
-23.57
-3.23
13.68
26.33
34.93
40.18
42.86
43.48
42.38
39.95
36.75
33.55
31.15
30.12
30.58
32.21
34.3
36.13
37.21
37.41
36.93
36.16
35.32
34.37
33.05
30.9
27.63
23.21
17.98
12.49
7.33
2.87
-0.87
-4.21
-7.68
-11.75
-16.6
-22.05
-27.64
-32.8
-37.16
-40.65
-43.5
-46.18
-49.24
-53.21
-58.52
-65.29
-73.08
-80.75
-86.43
-87.97
-83.59
-72.66
-56.01
-35.87
-15.13
3.57
18.5
29.16
36.06
40.07
42.01
42.35
41.38
39.38
36.86
34.44
32.75
32.14
32.58
33.69
34.96
36.01
36.66
36.98
37.07
36.9
36.28
34.86
32.33
28.6
23.91
18.74
13.6
8.77
4.15
-0.62
-5.94
-11.94
-18.37
-24.68
-30.3
-34.84
-38.38
-41.35
-44.45
-48.42
-53.8
-60.64
-68.28
-75.24
-79.45
-78.82
-71.96
-58.77
-40.64
-20.02
0.33
18.12
32.08
41.97
48.19
51.4
52.21
51.05
48.38
44.79
40.98
37.68
35.46
34.51
34.67
35.48
36.48
37.39
38.17
38.97
39.83
40.54
40.57
39.26
36.16
31.24
25.06
18.56
12.69
8.08
4.76
2.14
-0.62
-4.41
-9.72
-16.48
-24.14
-31.87
-38.87
-44.65
-49.19
-52.91
-56.59
-61.08
-67.0
-74.44
-82.58
-89.71
-93.53
-91.86
-83.42
-68.46
-48.66
-26.71
-5.35
13.34
28.34
39.58
47.52
52.69
55.51
56.27
55.32
53.14
50.42
47.89
46.16
45.52
45.93
47.07
48.49
49.83
50.91
51.72
52.27
52.45
51.92
50.16
46.71
41.43
34.66
27.24
20.23
14.58
10.75
8.51
7.03
5.15
1.89
-3.25
-10.06
-17.77
-25.46
-32.45
-38.55
-44.04
-49.5
-55.46
-62.29
-70.1
-78.77
-87.74
-95.97
-101.73
-103.01
-98.11
-86.38
-68.7
-47.33
-25.21
-4.98
11.82
24.91
34.92
42.7
48.83
53.31
55.87
56.24
54.54
51.4
47.74
44.54
42.45
41.65
41.86
42.62
43.56
44.54
45.68
47.1
48.72
50.17
50.84
50.08
47.5
43.05
37.09
30.24
23.16
16.46
10.49
5.3
0.67
-3.81
-8.54
-13.7
-19.12
-24.35
-28.86
-32.3
-34.76
-36.71
-38.91
-42.03
-46.56
-52.64
-60.05
-68.12
-75.63
-80.8
-81.64
-76.51
-64.83
-47.49
-26.74
-5.47
13.8
29.64
41.88
51.2
58.42
63.94
67.53
68.73
67.25
63.43
58.18
52.77
48.31
45.43
44.06
43.66
43.51
43.1
42.29
41.26
40.28
39.38
38.3
36.42
33.11
28.05
21.37
13.72
6.0
-0.91
-6.56
-11.0
-14.73
-18.41
-22.59
-27.53
-33.08
-38.88
-44.5
-49.61
-54.15
-58.28
-62.35
-66.72
-71.76
-77.68
-84.47
-91.68
-98.28
-102.69
-103.01
-97.66
-85.96
-68.63
-47.74
-26.15
-6.59
9.08
20.33
27.72
32.39
35.4
37.37
38.45
38.59
37.86
36.6
35.39
34.82
35.25
36.72
38.87
41.18
43.17
44.5
45.07
44.94
44.18
42.82
40.84
38.19
34.88
30.93
26.35
21.09
15.12
8.43
1.19
-6.27
-13.49
-20.03
-25.65
-30.39
-34.59
-38.85
-43.83
-50.06
-57.66
-65.99
-73.6
-78.4
-78.21
-71.55
-58.22
-39.51
-17.87
3.8
22.97
38.02
48.36
54.23
56.36
55.62
52.82
48.76
44.13
39.57
35.57
32.47
30.33
29.09
28.57
28.61
29.05
29.74
30.51
31.12
31.27
30.66
29.06
26.36
22.63
18.02
12.74
6.95
0.73
-5.91
-12.95
-20.26
-27.59
-34.5
-40.53
-45.34
-48.86
-51.39
-53.59
-56.38
-60.62
-66.8
-74.6
-82.64
-88.68
-90.13
-84.93
-72.39
-53.61
-31.2
-8.47
11.6
27.19
37.85
44.18
47.27
48.09
47.33
45.44
42.88
40.3
38.46
38.06
39.48
42.54
46.57
50.62
53.77
55.4
55.36
53.83
51.16
47.63
43.29
38.06
31.91
25.05
18.02
11.57
6.41
2.9
0.87
-0.34
-1.69
-4.06
-8.01
-13.54
-20.16
-27.07
-33.38
-38.51
-42.32
-45.14
-47.72
-50.97
-55.74
-62.57
-71.36
-81.21
-90.34
-96.45
-97.27
-91.35
-78.64
-60.55
-39.52
-18.25
1.14
17.44
30.3
39.89
46.49
50.34
51.65
50.78
48.36
45.2
42.22
40.18
39.61
40.65
43.05
46.27
49.61
52.41
54.24
54.99
54.76
53.7
51.83
49.03
45.03
39.68
33.09
25.72
18.27
11.48
5.84
1.41
-2.19
-5.66
-9.72
-14.89
-21.27
-28.51
-35.94
-42.81
-48.47
-52.65
-55.47
-57.42
-59.25
-61.71
-65.49
-70.91
-77.81
-85.23
-91.48
-94.32
-91.62
-82.04
-65.71
-44.3
-20.61
2.25
21.82
36.74
46.84
52.66
54.97
54.4
51.45
46.72
41.07
35.67
31.7
30.03
30.88
33.73
37.56
41.26
44.04
45.6
46.11
45.94
45.39
44.51
43.05
40.65
37.03
32.12
26.12
19.48
12.83
6.9
2.36
-0.38
-1.36
-1.13
-0.71
-1.22
-3.51
-7.81
-13.75
-20.58
-27.58
-34.43
-41.3
-48.71
-57.24
-67.17
-78.27
-89.63
-99.68
-106.44
-108.05
-103.34
-92.38
-76.66
-58.62
-40.98
-25.9
-14.45
-6.69
-1.99
0.44
1.2
0.67
-0.84
-2.91
-4.92
-6.2
-6.13
-4.33
-0.74
4.39
10.55
17.1
23.38
28.86
33.19
36.17
37.74
37.92
36.83
34.67
31.75
28.44
25.05
21.86
18.96
16.33
13.85
11.44
9.07
6.72
4.34
1.74
-1.44
-5.71
-11.46
-18.65
-26.49
-33.34
-37.11
-35.86
-28.59
-15.69
1.11
19.3
36.46
50.9
61.84
69.24
73.34
74.3
72.23
67.31
60.08
51.47
42.65
34.71
28.4
24.09
21.74
21.09
21.76
23.27
25.09
26.62
27.33
26.83
25.0
21.99
18.12
13.7
8.93
3.81
-1.9
-8.45
-16.08
-24.83
-34.47
-44.48
-54.17
-62.86
-70.07
-75.74
-80.29
-84.55
-89.51
-95.9
-103.64
-111.53
-117.36
-118.46
-112.7
-99.32
-79.32
-55.23
-30.24
-7.27
11.83
26.38
36.7
43.5
47.47
49.1
48.75
46.88
44.15
41.4
39.46
38.92
39.89
42.02
44.69
47.24
49.25
50.58
51.3
51.5
51.18
50.19
48.41
45.89
42.83
39.56
36.34
33.21
29.87
25.8
20.48
13.58
5.19
-4.25
-14.04
-23.48
-32.08
-39.72
-46.67
-53.51
-60.9
-69.18
-77.99
-86.01
-91.11
-90.96
-83.88
-69.6
-49.59
-26.67
-4.14
15.22
29.87
39.6
45.16
47.66
48.05
46.91
44.65
41.72
38.77
36.5
35.45
35.71
36.85
38.13
38.85
38.68
37.82
36.7
35.77
35.11
34.34
32.84
30.05
25.82
20.49
14.84
9.65
5.42
2.1
-0.9
-4.41
-9.1
-15.18
-22.2
-29.34
-35.75
-40.92
-44.96
-48.49
-52.42
-57.64
-64.69
-73.58
-83.48
-92.8
-99.25
-100.44
-94.57
-81.19
-61.45
-37.91
-13.68
8.49
26.91
41.04
51.25
58.15
62.35
64.2
64.03
62.23
59.4
56.11
52.85
49.88
47.3
45.16
43.51
42.5
42.19
42.56
43.29
43.89
43.75
42.37
39.56
35.43
30.37
24.85
19.22
13.6
7.86
1.79
-4.8
-11.89
-19.24
-26.46
-33.15
-39.13
-44.44
-49.47
-54.82
-61.29
-69.47
-79.44
-90.28
-99.99
-105.81
-104.93
-95.59
-77.88
-53.91
-27.23
-1.7
19.69
35.53
45.89
51.76
54.27
54.17
51.81
47.43
41.51
34.97
28.97
24.6
22.56
22.91
25.13
28.37
31.72
34.43
36.1
36.65
36.16
34.83
32.68
29.62
25.43
19.9
12.96
4.86
-3.83
-12.35
-19.95
-26.13
-30.82
-34.36
-37.42
-40.86
-45.52
-52.0
-60.48
-70.43
-80.41
-88.14
-91.01
-86.84
-74.74
-55.6
-32.01
-7.43
14.81
32.49
44.88
52.45
56.32
57.55
56.85
54.56
51.02
46.72
42.42
38.97
37.0
36.79
38.13
40.47
43.11
45.4
46.83
47.03
45.78
43.0
38.76
33.3
26.94
20.01
12.7
5.08
-2.84
-10.97
-19.05
-26.68
-33.5
-39.32
-44.23
-48.65
-53.18
-58.5
-65.22
-73.7
-83.71
-94.23
-103.26
-108.11
-106.21
-96.06
-77.93
-54.0
-27.73
-2.68
18.49
34.65
46.0
53.48
58.11
60.59
61.35
60.75
59.35
57.82
56.78
56.5
56.81
57.25
57.29
56.7
55.59
54.33
53.24
52.35
51.25
49.28
45.8
40.48
33.55
25.64
17.57
9.99
3.2
-2.96
-8.85
-14.82
-21.01
-27.21
-33.09
-38.33
-42.87
-47.04
-51.43
-56.83
-64.01
-73.44
-84.97
-97.47
-108.81
-116.11
-116.5
-108.11
-90.82
-66.52
-38.54
-10.61
14.2
34.19
49.04
59.24
65.62
68.77
69.13
67.08
63.28
58.62
54.12
50.58
48.41
47.54
47.6
48.16
48.92
49.82
50.85
51.91
52.64
52.43
50.61
46.74
40.9
33.68
26.02
18.81
12.58
7.25
2.29
-3.02
-9.2
-16.35
-24.06
-31.75
-38.87
-45.25
-51.13
-57.06
-63.72
-71.62
-80.92
-91.11
-100.93
-108.3
-110.77
-106.24
-93.78
-74.2
-49.92
-24.31
-0.57
19.18
34.25
45.13
52.75
57.89
60.84
61.59
60.21
57.17
53.34
49.77
47.27
46.12
46.05
46.44
46.72
46.66
46.43
46.45
46.97
47.86
48.48
47.97
45.6
41.14
34.99
27.99
21.04
14.64
8.71
2.72
-4.05
-12.02
-21.08
-30.56
-39.5
-46.99
-52.53
-56.19
-58.68
-61.09
-64.63
-70.31
-78.49
-88.54
-98.69
-106.25
-108.26
-102.41
-87.98
-66.2
-40.06
-13.37
10.4
29.02
41.81
49.38
52.94
53.64
52.34
49.6
45.98
42.16
38.91
36.88
36.38
37.29
39.19
41.57
44.04
46.36
48.34
49.69
49.99
48.77
45.71
40.78
34.37
27.07
19.53
12.15
5.05
-1.91
-8.94
-16.11
-23.3
-30.12
-36.23
-41.41
-45.73
-49.6
-53.65
-58.59
-65.0
-73.01
-81.98
-90.36
-95.82
-95.86
-88.71
-74.07
-53.41
-29.63
-6.03
14.67
31.04
43.01
51.27
56.66
59.71
60.69
59.83
57.64
54.95
52.61
51.2
50.81
51.04
51.3
51.08
50.22
48.8
47.0
44.87
42.26
38.89
34.51
29.1
22.97
16.67
10.73
5.46
0.77
-3.76
-8.6
-14.07
-20.15
-26.53
-32.81
-38.77
-44.57
-50.63
-57.56
-65.91
-75.93
-87.32
-99.03
-109.09
-114.95
-114.01
-104.59
-86.68
-62.19
-34.42
-7.15
16.65
35.39
48.98
58.27
64.3
67.87
69.33
68.88
66.82
63.65
60.08
56.75
54.09
52.18
50.81
49.69
48.64
47.6
46.65
45.85
45.17
44.44
43.35
41.62
39.06
35.63
31.43
26.55
20.98
14.54
7.0
-1.83
-11.9
-22.76
-33.63
-43.67
-52.18
-58.93
-64.3
-69.09
-74.31
-80.8
-88.83
-97.78
-106.02
-111.22
-110.88
-103.2
-87.8
-66.06
-40.7
-15.03
8.06
26.82
40.81
50.52
56.79
60.34
61.59
60.81
58.36
54.81
50.95
47.54
45.09
43.74
43.31
43.45
43.9
44.58
45.53
46.73
47.9
48.44
47.64
44.87
39.96
33.25
25.48
17.47
9.79
2.56
-4.52
-11.88
-19.83
-28.3
-36.82
-44.7
-51.37
-56.55
-60.46
-63.81
-67.53
-72.51
-79.26
-87.47
-95.88
-102.36
-104.36
-99.79
-87.72
-68.93
-45.75
-21.38
1.1
19.59
33.33
42.66
48.48
51.77
53.17
53.08
51.84
49.96
48.12
46.99
46.93
47.81
49.12
50.17
50.41
49.65
48.08
45.97
43.47
40.52
36.82
32.17
26.6
20.48
14.38
8.8
3.92
-0.46
-4.82
-9.65
-15.22
-21.45
-27.93
-34.17
-39.88
-45.17
-50.56
-56.74
-64.44
-73.98
-84.96
-96.1
-105.22
-109.68
-107.09
-96.17
-77.34
-52.76
-25.73
0.32
22.72
40.17
52.58
60.62
65.07
66.46
65.12
61.36
55.74
49.14
42.64
37.24
33.6
31.89
31.85
32.89
34.38
35.77
36.63
36.72
35.84
33.9
30.9
26.98
22.31
17.15
11.66
5.9
-0.14
-6.49
-13.09
-19.79
-26.42
-32.91
-39.32
-45.88
-52.94
-60.87
-69.92
-80.01
-90.44
-99.68
-105.49
-105.45
-97.69
-81.79
-59.03
-32.27
-5.04
19.51
39.33
53.71
62.99
67.98
69.51
68.28
64.89
60.02
54.53
49.29
45.06
42.25
40.91
40.79
41.52
42.75
44.15
45.47
46.34
46.45
45.48
43.27
39.88
35.58
30.68
25.4
19.68
13.18
5.54
-3.43
-13.56
-24.27
-34.79
-44.33
-52.41
-58.99
-64.48
-69.63
-75.34
-82.39
-90.95
-100.27
-108.42
-112.67
-110.17
-99.09
-79.51
-53.52
-24.75
2.87
26.21
43.69
55.3
62.0
65.08
65.59
64.29
61.8
58.76
55.9
53.86
52.97
53.18
54.07
55.1
55.86
56.26
56.44
56.58
56.66
56.34
55.0
52.07
47.18
40.44
32.35
23.61
14.88
6.49
-1.58
-9.58
-17.75
-26.07
-34.13
-41.31
-47.01
-50.98
-53.51
-55.43
-57.92
-62.16
-69.07
-78.83
-90.67
-102.72
-112.21
-116.12
-112.07
-99.13
-78.35
-52.49
-25.13
0.36
21.69
38.01
49.62
57.36
62.08
64.37
64.62
63.27
60.97
58.47
56.48
55.39
55.14
55.3
55.34
54.82
53.68
52.06
50.18
48.09
45.61
42.38
38.11
32.8
26.78
20.64
14.86
9.62
4.7
-0.42
-6.26
-13.05
-20.63
-28.52
-36.15
-43.15
-49.51
-55.63
-62.18
-69.92
-79.41
-90.64
-102.73
-113.8
-121.17
-122.02
-114.32
-97.68
-73.71
-45.62
-17.26
8.06
28.37
43.18
53.11
59.15
62.09
62.37
60.25
56.11
50.7
45.02
40.1
36.71
35.19
35.4
36.82
38.78
40.65
41.94
42.38
41.88
40.48
38.24
35.21
31.35
26.52
20.62
13.61
5.64
-2.93
-11.68
-20.14
-28.03
-35.21
-41.8
-48.02
-54.25
-60.88
-68.33
-76.77
-85.89
-94.52
-100.63
-101.73
-95.65
-81.45
-60.01
-33.94
-6.78
18.01
38.09
52.57
61.78
66.64
68.03
66.57
62.65
56.79
49.85
43.03
37.56
34.34
33.63
35.04
37.7
40.57
42.82
43.99
44.0
43.06
41.41
39.26
36.61
33.28
29.0
23.47
16.55
8.28
-1.01
-10.82
-20.55
-29.68
-37.93
-45.24
-51.9
-58.38
-65.3
-73.22
-82.41
-92.49
-102.16
-109.21
-110.95
-105.08
-90.57
-68.3
-40.93
-12.14
14.49
36.46
52.72
63.5
69.7
72.28
72.03
69.57
65.55
60.8
56.28
52.77
50.7
50.01
50.27
50.93
51.55
51.92
52.01
51.83
51.27
50.07
47.94
44.69
40.39
35.26
29.58
23.47
16.79
9.24
0.57
-9.18
-19.57
-29.83
-39.15
-46.96
-53.16
-58.2
-62.91
-68.29
-75.21
-84.07
-94.44
-104.82
-112.74
-115.25
-109.91
-95.7
-73.63
-46.56
-18.36
7.35
28.14
43.23
53.14
58.98
61.89
62.6
61.63
59.47
56.83
54.53
53.25
53.28
54.32
55.7
56.68
56.86
56.31
55.6
55.29
55.6
56.17
56.09
54.32
50.11
43.37
34.71
25.14
15.76
7.25
-0.3
-7.31
-14.43
-22.11
-30.33
-38.56
-45.97
-51.89
-56.15
-59.2
-62.01
-65.71
-71.22
-78.95
-88.57
-98.92
-108.02
-113.38
-112.52
-103.85
-87.25
-64.4
-38.37
-12.64
9.94
27.8
40.8
49.72
55.58
59.15
60.8
60.78
59.46
57.5
55.71
54.72
54.77
55.59
56.59
57.2
57.09
56.23
54.82
52.99
50.66
47.53
43.21
37.56
30.83
23.6
16.65
10.59
5.59
1.31
-2.92
-7.87
-13.97
-21.14
-28.8
-36.18
-42.64
-47.99
-52.6
-57.28
-63.0
-70.59
-80.36
-91.79
-103.36
-112.61
-116.67
-113.02
-100.51
-79.86
-53.66
-25.58
0.74
22.73
39.32
50.77
58.05
62.23
64.06
63.98
62.33
59.49
55.99
52.37
49.02
46.15
43.78
41.81
40.14
38.73
37.52
36.42
35.24
33.7
31.55
28.66
24.97
20.53
15.39
9.58
3.13
-3.87
-11.26
-18.75
-26.09
-33.05
-39.53
-45.56
-51.31
-57.11
-63.47
-70.97
-79.98
-90.31
-100.85
-109.43
-113.3
-109.92
-97.93
-77.83
-51.97
-23.82
3.08
26.18
44.33
57.65
66.85
72.67
75.51
75.53
73.01
68.54
63.09
57.7
53.18
49.91
47.79
46.54
45.85
45.61
45.78
46.33
46.98
47.28
46.7
44.86
41.68
37.39
32.42
27.09
21.5
15.45
8.5
0.28
-9.34
-20.04
-31.13
-41.75
-51.1
-58.79
-64.89
-69.96
-74.86
-80.49
-87.38
-95.35
-103.21
-108.79
-109.43
-102.84
-88.12
-66.24
-40.04
-13.26
10.59
29.28
42.23
50.24
54.74
57.11
58.24
58.6
58.51
58.34
58.58
59.66
61.73
64.55
67.49
69.77
70.77
70.3
68.58
66.06
63.11
59.68
55.38
49.63
42.11
33.03
23.22
13.81
5.84
-0.18
-4.5
-7.96
-11.66
-16.51
-22.9
-30.61
-38.97
-47.18
-54.59
-61.0
-66.7
-72.39
-78.93
-87.13
-97.38
-109.35
-121.7
-132.09
-137.52
-135.1
-123.05
-101.49
-72.66
-40.34
-8.75
18.63
39.9
54.76
64.05
69.06
70.93
70.53
68.5
65.52
62.33
59.62
57.81
56.96
56.79
56.9
56.99
57.03
57.22
57.74
58.63
59.52
59.71
58.46
55.15
49.6
42.2
33.75
25.25
17.55
11.1
5.76
0.93
-4.29
-10.58
-18.19
-26.75
-35.46
-43.45
-50.11
-55.38
-59.73
-64.0
-69.08
-75.72
-84.18
-94.07
-104.12
-112.21
-115.8
-112.54
-101.16
-82.05
-57.4
-30.55
-4.99
16.69
33.29
45.02
52.84
57.75
60.4
60.98
59.5
56.14
51.45
46.23
41.32
37.37
34.74
33.47
33.35
34.01
34.99
35.83
36.14
35.61
34.11
31.6
28.16
23.91
18.96
13.38
7.23
0.63
-6.28
-13.33
-20.42
-27.48
-34.59
-41.84
-49.32
-57.16
-65.41
-74.15
-83.33
-92.53
-100.65
-105.83
-105.74
-98.34
-82.75
-59.94
-32.57
-4.34
21.23
41.71
56.19
65.04
69.3
70.09
68.34
64.8
60.23
55.5
51.51
48.96
48.12
48.77
50.28
51.92
53.05
53.39
52.94
51.87
50.29
48.19
45.4
41.77
37.35
32.32
26.97
21.42
15.55
8.92
1.11
-8.18
-18.77
-30.04
-41.03
-50.78
-58.67
-64.61
-69.11
-73.11
-77.71
-83.73
-91.27
-99.39
-106.1
-108.73
-104.8
-92.92
-73.51
-48.88
-22.54
1.87
21.69
35.85
44.8
49.91
52.67
54.19
55.07
55.57
55.96
56.61
57.93
60.21
63.33
66.73
69.6
71.18
71.05
69.27
66.28
62.62
58.58
54.09
48.77
42.29
34.65
26.36
18.39
11.7
6.92
3.93
1.85
-0.66
-4.93
-11.73
-21.0
-31.86
-42.99
-53.11
-61.49
-68.1
-73.49
-78.62
-84.44
-91.58
-100.04
-108.9
-116.31
-119.72
-116.68
-105.65
-86.85
-62.35
-35.57
-10.22
10.93
26.66
37.33
44.33
49.24
53.19
56.68
59.73
62.22
64.2
65.87
67.54
69.3
70.9
71.8
71.35
69.16
65.34
60.53
55.66
51.52
48.43
46.12
43.88
40.9
36.74
31.47
25.73
20.34
15.94
12.66
10.01
7.08
2.88
-3.21
-11.2
-20.54
-30.3
-39.62
-48.0
-55.46
-62.47
-69.74
-77.95
-87.53
-98.46
-109.98
-120.46
-127.54
-128.52
-121.23
-104.98
-81.02
-52.47
-23.45
2.24
22.12
35.53
43.29
46.99
48.14
47.84
46.69
45.15
43.81
43.4
44.57
47.64
52.33
57.8
62.95
66.76
68.63
68.54
66.83
63.97
60.26
55.73
50.21
43.63
36.25
28.71
21.93
16.75
13.57
12.13
11.5
10.37
7.42
1.82
-6.59
-17.23
-29.0
-40.62
-51.01
-59.59
-66.32
-71.64
-76.29
-81.09
-86.7
-93.25
-100.15
-105.88
-108.3
-105.25
-95.37
-78.75
-57.18
-33.57
-11.08
7.86
22.16
32.0
38.38
42.44
45.02
46.54
47.21
47.22
46.87
46.54
46.54
46.86
47.25
47.25
46.47
44.79
42.36
39.54
36.67
33.94
31.28
28.53
25.61
22.58
19.69
17.17
15.0
12.84
10.11
6.13
0.51
-6.65
-14.76
-22.91
-30.19
-36.08
-40.59
-44.28
-48.12
-53.13
-59.98
-68.64
-78.06
-86.23
-90.59
-88.76
-79.39
-62.79
-40.92
-16.92
5.93
25.11
39.45
49.01
54.69
57.57
58.45
57.75
55.65
52.25
47.79
42.65
37.26
32.06
27.44
23.72
21.15
19.86
19.74
20.44
21.32
21.63
20.81
18.66
15.43
11.67
7.92
4.41
0.97
-2.87
-7.63
-13.52
-20.33
-27.49
-34.36
-40.5
-45.92
-51.16
-57.18
-65.06
-75.68
-89.16
-104.46
-119.24
-130.13
-133.64
-127.27
-110.48
-85.08
-54.68
-23.63
4.34
26.91
43.37
54.2
60.41
63.01
62.86
60.81
57.77
54.72
52.52
51.65
52.1
53.43
55.03
56.3
56.96
57.02
56.71
56.22
55.53
54.38
52.36
49.12
44.58
39.0
32.81
26.44
20.04
13.46
6.37
-1.49
-10.05
-18.9
-27.42
-35.01
-41.38
-46.59
-51.16
-55.88
-61.63
-69.06
-78.24
-88.3
-97.31
-102.62
-101.55
-92.39
-75.22
-52.03
-26.15
-1.23
19.91
35.93
46.91
53.85
57.91
60.01
60.69
60.28
59.19
57.93
57.12
57.24
58.44
60.52
62.94
65.07
66.43
66.78
66.18
64.84
62.96
60.57
57.53
53.6
48.57
42.39
35.28
27.73
20.37
13.82
8.47
4.33
0.92
-2.54
-6.85
-12.55
-19.62
-27.53
-35.43
-42.46
-48.05
-52.14
-55.11
-57.74
-60.96
-65.66
-72.46
-81.33
-91.28
-100.28
-105.6
-104.64
-95.76
-79.11
-56.64
-31.53
-7.16
13.99
30.79
43.4
52.69
59.56
64.54
67.76
69.21
68.95
67.39
65.11
62.72
60.64
58.96
57.49
55.92
54.05
51.91
49.72
47.77
46.21
45.05
44.07
43.03
41.7
39.97
37.75
35.01
31.67
27.61
22.83
17.34
11.24
4.64
-2.41
-9.89
-17.75
-25.87
-33.95
-41.51
-48.1
-53.41
-57.42
-60.5
-63.26
-66.44
-70.76
-76.77
-84.54
-93.47
-102.1
-108.18
-109.2
-103.19
-89.54
-69.49
-45.78
-21.82
-0.62
15.98
27.62
34.93
38.95
40.64
40.62
39.42
37.59
35.83
34.86
35.17
36.81
39.37
42.16
44.44
45.74
45.93
45.21
43.8
41.85
39.21
35.61
30.86
25.08
18.74
12.6
7.33
3.21
0.07
-2.73
-5.87
-9.83
-14.64
-19.92
-25.09
-29.62
-33.28
-36.28
-39.19
-42.81
-47.94
-55.19
-64.54
-75.16
-85.24
-92.29
-93.78
-87.97
-74.6
-55.05
-32.03
-8.6
12.66
30.2
43.64
53.29
59.66
63.1
63.81
61.93
57.8
52.14
45.83
39.85
34.97
31.62
29.87
29.53
30.26
31.64
33.28
34.75
35.64
35.57
34.27
31.62
27.68
22.6
16.6
9.88
2.63
-4.81
-12.04
-18.58
-24.09
-28.48
-32.01
-35.2
-38.72
-43.19
-49.12
-56.7
-65.69
-75.2
-83.59
-88.73
-88.5
-81.55
-67.89
-49.02
-27.43
-5.89
13.38
29.16
41.15
49.69
55.23
58.17
58.73
57.14
53.79
49.26
44.32
39.68
35.91
33.3
31.87
31.48
31.93
33.01
34.51
36.16
37.57
38.26
37.84
36.13
33.17
29.22
24.55
19.24
13.17
6.05
-2.28
-11.73
-21.84
-31.84
-40.89
-48.32
-53.91
-57.94
-61.15
-64.58
-69.17
-75.4
-82.84
-90.04
-94.66
-94.22
-86.95
-72.57
-52.54
-29.65
-7.13
12.39
27.48
38.0
44.71
48.61
50.51
50.95
50.34
49.11
47.87
47.19
47.44
48.64
50.31
51.76
52.33
51.73
50.17
48.21
46.53
45.45
44.81
43.94
42.01
38.46
33.24
26.88
20.16
13.76
7.92
2.41
-3.34
-9.79
-17.06
-24.82
-32.41
-39.1
-44.43
-48.35
-51.28
-53.91
-57.11
-61.63
-67.87
-75.65
-83.92
-90.87
-94.18
-91.73
-82.41
-66.66
-46.45
-24.69
-4.23
12.94
26.14
35.71
42.53
47.36
50.55
52.2
52.38
51.44
50.0
48.77
48.26
48.6
49.52
50.54
51.18
51.19
50.55
49.4
47.83
45.75
42.94
39.1
34.11
28.13
21.62
15.28
9.71
5.29
1.97
-0.7
-3.42
-6.84
-11.36
-16.97
-23.3
-29.76
-35.84
-41.29
-46.28
-51.36
-57.29
-64.75
-74.05
-84.77
-95.59
-104.33
-108.4
-105.55
-94.63
-76.23
-52.55
-26.88
-2.53
18.01
33.59
44.28
50.86
54.27
55.23
54.23
51.7
48.19
44.37
40.93
38.38
36.92
36.5
36.86
37.71
38.79
39.83
40.51
40.48
39.38
36.97
33.26
28.51
23.25
18.04
13.27
9.08
5.21
1.22
-3.41
-8.94
-15.32
-22.2
-29.04
-35.33
-40.8
-45.51
-49.78
-54.19
-59.34
-65.55
-72.58
-79.35
-84.05
-84.62
-79.4
-67.87
-50.99
-30.93
-10.43
8.1
23.15
34.32
42.01
46.96
49.77
50.77
50.11
47.93
44.53
40.46
36.38
32.96
30.62
29.53
29.54
30.37
31.64
33.0
34.14
34.77
34.56
33.23
30.6
26.7
21.79
16.2
10.2
3.89
-2.78
-9.78
-16.94
-23.81
-29.8
-34.47
-37.78
-40.17
-42.52
-45.88
-51.13
-58.63
-67.94
-77.69
-85.7
-89.47
-86.89
-77.0
-60.42
-39.21
-16.26
