34.93
29.45
23.91
18.85
14.45
10.47
6.29
1.23
-5.14
-12.79
-21.23
-29.71
-37.53
-44.3
-50.03
-55.14
-60.31
-66.33
-73.83
-82.89
-92.79
-101.79
-107.4
-107.02
-98.83
-82.56
-59.82
-33.6
-7.48
15.54
33.61
46.29
54.11
58.02
58.96
57.68
54.84
51.14
47.37
44.23
42.2
41.43
41.68
42.52
43.5
44.27
44.61
44.42
43.61
42.05
39.61
36.19
31.85
26.84
21.56
16.42
11.62
7.06
2.28
-3.22
-9.76
-17.22
-25.07
-32.59
-39.17
-44.59
-49.14
-53.48
-58.47
-64.85
-72.94
-82.28
-91.46
-98.18
-99.79
-94.19
-80.69
-60.47
-36.27
-11.59
10.51
28.11
40.75
48.93
53.59
55.53
55.24
53.08
49.49
45.22
41.17
38.15
36.65
36.69
37.86
39.55
41.18
42.38
42.93
42.76
41.72
39.65
36.39
32.0
26.72
20.93
15.0
9.11
3.28
-2.6
-8.56
-14.54
-20.38
-25.99
-31.39
-36.8
-42.55
-48.97
-56.38
-64.85
-74.15
-83.41
-91.04
-94.86
-92.69
-83.14
-66.28
-43.96
-19.24
4.52
24.67
39.94
50.45
57.08
60.89
62.6
62.5
60.76
57.66
53.81
49.96
46.84
44.87
44.07
44.13
44.5
44.69
44.32
43.2
41.31
38.68
35.36
31.36
26.7
21.35
15.36
8.79
1.77
-5.55
-12.95
-20.26
-27.3
-33.97
-40.31
-46.44
-52.61
-59.14
-66.42
-74.76
-84.15
-93.97
-102.71
-108.18
-107.93
-100.14
-84.42
-62.11
-36.07
-9.78
13.71
32.54
46.27
55.49
61.25
64.42
65.51
64.83
62.7
59.68
56.58
54.18
52.95
52.9
53.56
54.29
54.56
54.2
53.38
52.42
51.47
50.31
48.42
45.17
40.24
33.8
26.5
19.21
12.58
6.76
1.38
-4.21
-10.61
-17.96
-25.95
-33.9
-41.11
-47.11
-51.86
-55.77
-59.52
-63.96
-69.91
-77.81
-87.48
-97.69
-106.17
-110.1
-106.87
-95.19
-75.68
-50.82
-24.2
0.67
21.34
36.94
47.87
55.2
59.88
62.46
63.11
61.97
59.46
56.37
53.59
51.85
51.43
52.07
53.19
54.15
54.54
54.26
53.46
52.32
50.93
49.24
47.14
44.5
41.31
37.54
33.19
28.22
22.63
16.49
10.1
3.79
-2.11
-7.47
-12.45
-17.39
-22.63
-28.26
-34.1
-39.72
-44.72
-48.92
-52.45
-55.79
-59.52
-64.23
-70.39
-78.23
-87.44
-97.07
-105.25
-109.49
-107.26
-96.97
-78.67
-54.31
-27.25
-1.16
21.04
37.87
49.33
56.36
60.09
61.4
60.82
58.75
55.72
52.47
49.79
48.28
48.06
48.83
49.95
50.81
51.06
50.69
49.92
49.01
48.12
47.13
45.79
43.72
40.66
36.52
31.4
25.58
19.42
13.35
7.66
2.5
-2.23
-6.89
-11.89
-17.57
-23.98
-30.86
-37.63
-43.73
-48.8
-52.86
-56.31
-59.75
-63.86
-69.13
-75.91
-84.16
-93.29
-101.98
-108.15
-109.39
-103.67
-90.29
-70.22
-46.07
-21.25
1.12
19.03
31.91
40.27
45.09
47.2
47.16
45.39
42.39
38.9
35.76
33.62
32.7
32.75
33.23
33.64
33.76
33.67
33.69
34.01
34.65
35.22
35.2
34.02
31.41
27.48
22.7
17.69
12.9
8.44
4.01
-0.86
-6.52
-12.93
-19.65
-26.0
-31.4
-35.63
-38.94
-41.96
-45.41
-50.01
-56.18
-63.84
-72.22
-79.74
-84.16
-83.17
-75.2
-60.13
-39.53
-16.29
6.34
25.63
40.11
49.54
54.6
56.21
55.21
52.25
47.87
42.76
37.69
33.48
30.68
29.47
29.6
30.52
31.68
32.62
33.12
33.18
32.85
32.11
30.85
28.9
26.14
22.58
18.33
13.51
8.16
2.26
-4.25
-11.31
-18.7
-26.04
-32.94
-39.15
-44.68
-49.87
-55.27
-61.48
-68.93
-77.48
-86.18
-93.25
-96.37
-93.37
-83.02
-65.67
-43.27
-18.87
4.32
23.82
38.38
47.95
53.25
55.23
54.71
52.35
48.74
44.58
40.64
37.6
35.85
35.37
35.75
36.43
36.88
36.84
36.26
35.25
33.85
31.93
29.22
25.47
20.55
14.61
7.96
0.92
-6.41
-14.2
-22.82
-32.54
-43.38
-54.9
-66.38
-77.06
-86.5
-94.7
-102.19
-109.82
-118.47
-128.81
-140.96
-154.24
-167.09
-177.35
-182.76
-181.78
-174.08
-160.64
-143.48
-124.84
-106.55
-89.66
-74.52
-61.02
-48.92
-37.98
-27.9
-18.16
-8.02
3.33
16.47
31.43
47.42
62.82
75.48
83.45
85.59
82.19
74.9
66.16
58.34
52.91
50.17
49.41
49.57
49.73
49.43
48.57
47.17
45.24
42.74
39.66
36.02
31.75
26.42
19.13
8.66
-6.09
-25.57
-49.26
-75.64
-102.48
-127.08
-146.59
-158.21
-159.51
-149.02
-126.83
-94.84
-56.56
-16.17
22.63
57.48
87.56
113.03
134.2
150.99
163.05
170.26
173.32
173.75
173.25
172.81
172.05
169.32
162.51
150.21
132.48
110.99
88.39
67.25
49.26
34.86
23.48
14.16
6.08
-1.1
-7.25
-12.05
-15.24
-16.83
-17.14
-16.61
-15.63
-14.39
-12.8
-10.63
-7.67
-3.88
0.5
4.89
8.58
10.85
11.13
9.04
4.3
-3.32
-13.9
-27.13
-41.94
-56.41
-68.01
-74.31
-73.87
-66.78
-54.69
-40.17
-25.74
-13.08
-2.68
5.92
13.63
21.44
30.18
40.46
52.77
67.16
83.15
99.46
114.17
125.12
130.5
129.3
121.64
108.7
92.32
74.63
57.56
42.47
29.94
19.72
10.82
1.87
-8.41
-20.8
-35.42
-51.94
-69.89
-88.89
-108.66
-128.6
-147.51
-163.41
-173.94
-177.0
-171.44
-157.49
-136.6
-110.85
-82.42
-53.2
-24.68
1.95
25.82
46.34
63.1
75.6
83.16
84.83
79.85
68.14
50.92
30.78
11.24
-4.09
-12.51
-12.84
-5.57
7.55
24.11
41.56
57.62
70.37
78.19
79.65
73.51
58.9
35.81
5.48
-29.44
-65.25
-97.86
-123.54
-139.46
-143.94
-136.31
-116.88
-86.84
-48.45
-4.95
39.68
81.17
115.66
140.28
153.5
155.35
147.3
131.9
112.35
91.95
73.54
59.15
49.92
46.06
47.1
51.96
59.1
66.67
72.73
75.61
74.18
68.14
58.01
44.89
30.27
15.65
2.34
-8.73
-17.06
-22.55
-25.49
-26.45
-26.22
-25.61
-25.44
-26.35
-28.73
-32.52
-37.13
-41.44
-43.96
-43.19
-38.12
-28.58
-15.52
-0.72
13.67
25.7
34.2
38.87
40.21
39.08
36.34
32.59
28.23
23.56
18.95
14.85
11.67
9.58
8.43
7.76
7.05
5.95
4.33
2.4
0.45
-1.2
-2.44
-3.29
-3.92
-4.56
-5.43
-6.69
-8.36
-10.35
-12.41
-14.31
-15.8
-16.81
-17.37
-17.73
-18.2
-19.17
-20.9
-23.47
-26.54
-29.36
-30.83
-29.75
-25.3
-17.37
-6.72
5.12
16.35
25.36
31.28
33.97
34.01
32.25
29.5
26.42
23.41
20.77
18.74
17.47
17.04
17.32
18.03
18.82
19.45
19.76
19.78
19.47
18.74
17.35
15.0
11.48
6.85
1.46
-4.17
-9.44
-13.96
-17.56
-20.29
-22.32
-23.81
-24.84
-25.36
-25.3
-24.6
-23.29
-21.6
-19.91
-18.8
-18.84
-20.34
-23.11
-26.3
-28.59
-28.5
-24.98
-17.77
-7.55
4.25
15.96
26.04
33.5
37.92
39.42
38.42
35.49
31.27
26.43
21.63
17.47
14.4
12.69
12.36
13.22
14.93
17.07
19.19
20.9
21.8
21.63
20.15
17.31
13.23
8.19
2.53
-3.34
-9.11
-14.55
-19.56
-24.06
-27.99
-31.24
-33.64
-35.05
-35.35
-34.57
-32.86
-30.53
-28.0
-25.74
-24.17
-23.54
-23.7
-24.07
-23.72
-21.69
-17.27
-10.36
-1.58
7.88
16.62
23.39
27.42
28.5
26.88
23.14
18.01
12.23
6.57
1.69
-1.83
-3.65
-3.69
-2.14
0.6
4.05
7.72
11.25
14.38
16.9
18.66
19.49
19.27
17.93
15.46
11.95
7.6
2.69
-2.53
-7.8
-12.9
-17.65
-21.85
-25.33
-27.94
-29.61
-30.39
-30.43
-29.92
-29.12
-28.36
-27.99
-28.31
-29.36
-30.77
-31.66
-30.89
-27.47
-20.94
-11.76
-1.13
9.3
18.04
24.11
27.23
27.63
25.85
22.43
17.82
12.51
6.97
1.75
-2.55
-5.46
-6.72
-6.32
-4.5
-1.7
1.56
4.69
7.19
8.74
9.22
8.7
7.42
5.64
3.51
1.1
-1.67
-4.86
-8.46
-12.32
-16.19
-19.79
-22.88
-25.34
-27.13
-28.38
-29.32
-30.22
-31.29
-32.45
-33.21
-32.73
-30.05
-24.47
-15.87
-4.83
7.46
19.52
29.95
37.63
41.92
42.55
39.69
33.85
25.83
16.69
7.52
-0.71
-7.28
-11.83
-14.3
-14.87
-13.88
-11.7
-8.69
-5.15
-1.33
2.55
6.19
9.22
11.23
11.85
10.87
8.36
4.63
0.18
-4.54
-9.15
-13.47
-17.47
-21.25
-24.97
-28.7
-32.39
-35.66
-37.8
-37.91
-35.15
-29.15
-20.14
-9.01
2.94
14.32
24.03
31.34
35.96
37.85
37.18
34.2
29.31
23.03
15.98
8.86
2.35
-3.07
-7.16
-10.02
-11.97
-13.32
-14.24
-14.71
-14.6
-13.88
-12.79
-11.79
-11.42
-12.0
-13.46
-15.39
-17.23
-18.56
-19.28
-19.58
-19.86
-20.57
-22.11
-24.81
-28.78
-33.76
-39.02
-43.32
-45.22
-43.5
-37.63
-28.04
-16.02
-3.31
8.38
17.84
24.53
28.45
29.93
29.4
27.28
24.03
20.21
16.5
13.65
12.28
12.7
14.78
17.95
21.36
24.15
25.69
25.74
24.37
21.87
18.45
14.22
9.13
3.17
-3.52
-10.52
-17.27
-23.21
-28.03
-31.77
-34.79
-37.64
-40.85
-44.76
-49.36
-54.22
-58.45
-60.83
-60.05
-55.13
-45.72
-32.35
-16.39
0.32
15.84
28.7
38.05
43.7
45.88
45.02
41.61
36.2
29.48
22.27
15.52
10.04
6.35
4.54
4.27
5.0
6.19
7.48
8.82
10.33
12.2
14.43
16.77
18.67
19.5
18.7
16.1
11.97
6.88
1.56
-3.49
-8.07
-12.34
-16.6
-21.19
-26.26
-31.76
-37.32
-42.2
-45.35
-45.51
-41.54
-32.83
-19.75
-3.63
13.45
29.23
41.95
50.66
55.27
56.31
54.5
50.48
44.79
37.96
30.65
23.62
17.62
13.16
10.36
8.96
8.43
8.22
7.89
7.31
6.48
5.56
4.67
3.87
3.18
2.56
1.97
1.33
0.51
-0.57
-2.0
-3.72
-5.61
-7.52
-9.35
-11.2
-13.36
-16.24
-20.18
-25.32
-31.37
-37.63
-42.95
-45.99
-45.48
-40.6
-31.37
-18.64
-4.06
10.47
23.19
32.93
39.28
42.35
42.64
40.71
37.15
32.55
27.55
22.78
18.75
15.7
13.56
12.03
10.74
9.43
8.03
6.61
5.32
4.2
3.26
2.42
1.6
0.72
-0.29
-1.48
-2.85
-4.36
-5.9
-7.35
-8.56
-9.49
-10.17
-10.72
-11.28
-12.03
-13.08
-14.63
-16.88
-20.01
-24.08
-28.76
-33.28
-36.43
-36.93
-33.81
-26.82
-16.64
-4.65
7.38
17.86
25.76
30.68
32.77
32.51
30.46
27.19
23.22
19.07
15.3
12.4
10.7
10.26
10.89
12.1
13.32
14.01
13.79
12.54
10.36
7.56
4.46
1.36
-1.59
-4.34
-6.98
-9.59
-12.19
-14.67
-16.87
-18.57
-19.64
-20.12
-20.13
-19.9
-19.66
-19.61
-19.93
-20.63
-21.52
-22.1
-21.66
-19.38
-14.71
-7.61
1.32
10.9
19.82
26.92
31.55
33.51
33.0
30.39
26.14
20.77
14.94
9.43
5.0
2.26
1.4
2.2
4.11
6.47
8.74
10.62
12.0
12.85
13.13
12.72
11.44
9.15
5.83
1.65
-3.11
-8.07
-12.85
-17.16
-20.87
-24.04
-26.89
-29.76
-32.87
-36.22
-39.41
-41.67
-42.02
-39.52
-33.66
-24.57
-13.11
-0.73
10.88
20.22
26.34
28.89
28.14
24.73
19.45
13.13
6.56
0.46
-4.52
-7.86
-9.28
-8.78
-6.71
-3.71
-0.51
2.24
4.17
5.27
5.78
6.02
6.15
6.01
5.22
3.33
0.1
-4.35
-9.53
-14.77
-19.51
-23.37
-26.32
-28.58
-30.48
-32.43
-34.76
-37.65
-40.92
-43.96
-45.7
-44.88
-40.43
-31.96
-19.99
-5.93
8.41
21.25
31.37
38.27
42.1
43.38
42.69
40.61
37.6
34.07
30.42
26.97
23.97
21.56
19.79
18.7
18.25
18.38
18.95
19.67
20.15
19.92
18.6
16.0
12.19
7.44
2.17
-3.21
-8.31
-12.89
-16.82
-20.03
-22.5
-24.28
-25.43
-26.11
-26.47
-26.73
-27.15
-28.05
-29.78
-32.63
-36.6
-41.22
-45.4
-47.67
-46.51
-40.93
-30.89
-17.44
-2.43
12.04
24.24
33.23
38.9
41.75
42.57
42.05
40.72
38.92
36.95
35.05
33.43
32.2
31.32
30.64
29.94
29.05
27.91
26.56
25.06
23.5
21.87
20.13
18.18
15.99
13.62
11.23
9.03
7.2
5.83
4.88
4.2
3.63
3.05
2.41
1.72
0.95
0.02
-1.25
-2.96
-5.15
-7.68
-10.31
-12.79
-14.97
-16.87
-18.69
-20.63
-22.83
-25.24
-27.6
-29.59
-30.95
-31.6
-31.68
-31.58
-31.76
-32.73
-34.78
-37.86
-41.41
-44.36
-45.28
-42.75
-35.93
-24.84
-10.56
5.06
19.87
32.05
40.5
44.97
45.91
44.23
40.93
36.91
32.84
29.16
26.16
24.06
22.97
22.95
23.92
25.63
27.58
29.28
30.31
30.5
29.91
28.74
27.12
25.05
22.39
19.06
15.09
10.8
6.63
3.03
0.3
-1.52
-2.52
-2.92
-2.95
-2.85
-2.8
-2.96
-3.43
-4.21
-5.19
-6.2
-7.12
-7.89
-8.6
-9.41
-10.48
-11.88
-13.56
-15.41
-17.23
-18.85
-20.17
-21.23
-22.22
-23.49
-25.44
-28.4
-32.44
-37.23
-41.87
-45.09
-45.5
-42.03
-34.41
-23.2
-9.82
3.91
16.28
26.05
32.71
36.37
37.57
36.98
35.23
32.82
30.13
27.47
25.05
23.01
21.41
20.13
19.03
17.89
16.58
15.07
13.47
11.91
10.5
9.23
7.98
6.58
4.9
2.99
1.0
-0.76
-2.02
-2.64
-2.66
-2.33
-1.95
-1.79
-1.97
-2.46
-3.14
-3.93
-4.85
-6.09
-7.91
-10.47
-13.78
-17.6
-21.52
-25.12
-28.07
-30.26
-31.87
-33.26
-34.91
-37.19
-40.16
-43.41
-46.03
-46.87
-44.77
-39.05
-29.78
-17.81
-4.55
8.38
19.55
28.0
33.26
35.36
34.66
31.72
27.17
21.7
16.01
10.8
6.69
4.13
3.34
4.25
6.54
9.72
13.26
16.69
19.66
21.9
23.23
23.46
22.47
20.24
16.93
12.87
8.51
4.33
0.71
-2.12
-4.15
-5.55
-6.56
-7.46
-8.55
-10.03
-11.93
-14.17
-16.44
-18.38
-19.63
-20.04
-19.69
-18.92
-18.26
-18.26
-19.29
-21.42
-24.25
-26.97
-28.48
-27.72
-24.04
-17.4
-8.52
1.35
10.8
18.59
24.0
26.82
27.25
25.76
22.88
19.12
15.04
11.19
8.09
6.13
5.54
6.24
7.93
10.15
12.42
14.32
15.58
16.07
15.74
14.63
12.8
10.34
7.38
4.08
0.64
-2.74
-5.93
-8.85
-11.55
-14.08
-16.48
-18.7
-20.6
-22.02
-22.9
-23.33
-23.63
-24.23
-25.47
-27.47
-29.92
-32.13
-33.16
-32.04
-28.12
-21.27
-12.05
-1.5
9.02
18.25
25.22
29.49
31.06
30.27
27.67
23.88
19.49
15.11
11.26
8.35
6.59
5.99
6.35
7.39
8.8
10.31
11.71
12.86
13.58
13.65
12.9
11.22
8.67
5.5
2.09
-1.22
-4.15
-6.66
-8.84
-10.84
-12.83
-14.89
-17.03
-19.15
-21.14
-22.83
-24.15
-25.06
-25.76
-26.61
-28.05
-30.4
-33.56
-36.9
-39.27
-39.32
-35.95
-28.78
-18.33
-5.92
6.72
17.95
26.6
32.16
34.74
34.78
32.9
29.68
25.75
21.68
17.99
15.14
13.36
12.66
12.81
13.46
14.2
14.73
14.91
14.77
14.4
13.9
13.22
12.23
10.76
8.67
6.07
3.22
0.48
-1.83
-3.68
-5.29
-7.03
-9.2
-11.85
-14.7
-17.26
-19.13
-20.16
-20.51
-20.62
-21.03
-22.2
-24.43
-27.78
-31.91
-36.16
-39.42
-40.39
-37.94
-31.5
-21.38
-8.76
4.58
16.84
26.65
33.39
37.11
38.33
37.65
35.59
32.53
28.86
25.05
21.69
19.33
18.27
18.45
19.42
20.56
21.33
21.47
20.98
20.09
18.98
17.71
16.16
14.16
11.55
8.29
4.55
0.62
-3.12
-6.36
-8.93
-10.86
-12.39
-13.8
-15.38
-17.29
-19.52
-21.91
-24.24
-26.26
-27.84
-28.99
-29.85
-30.74
-32.0
-33.94
-36.61
-39.64
-42.22
-43.19
-41.41
-36.05
-26.98
-14.9
-1.22
12.34
24.15
33.09
38.7
41.09
40.77
38.38
34.57
29.96
25.18
20.84
17.51
15.6
15.21
16.11
17.81
19.75
21.44
22.62
23.19
23.21
22.75
21.82
20.41
18.48
16.01
13.08
9.81
6.4
3.1
0.17
-2.23
-4.06
-5.51
-6.89
-8.56
-10.72
-13.29
-15.99
-18.4
-20.24
-21.42
-22.17
-22.88
-23.98
-25.81
-28.51
-31.91
-35.48
-38.36
-39.43
-37.66
-32.36
-23.57
-12.17
0.34
12.26
22.17
29.23
33.27
34.53
33.53
30.78
26.88
22.43
18.12
14.57
12.19
11.06
10.93
11.36
11.92
12.32
12.52
12.62
12.77
13.05
13.42
13.69
13.6
12.89
11.39
9.1
6.15
2.86
-0.45
-3.52
-6.2
-8.49
-10.52
-12.39
-14.17
-15.87
-17.38
-18.58
-19.41
-19.92
-20.29
-20.83
-21.9
-23.79
-26.58
-30.03
-33.5
-36.05
-36.6
-34.25
-28.6
-19.91
-9.13
2.35
13.02
21.64
27.46
30.32
30.45
28.39
24.73
20.06
14.93
9.9
5.48
2.07
-0.08
-0.99
-0.87
-0.08
1.03
2.15
3.13
3.9
4.4
4.59
4.29
3.39
1.78
-0.49
-3.2
-6.04
-8.66
-10.87
-12.66
-14.24
-15.89
-17.81
-20.02
-22.31
-24.39
-25.99
-27.01
-27.54
-27.81
-28.13
-28.79
-29.97
-31.63
-33.44
-34.74
-34.69
-32.47
-27.55
-19.95
-10.25
0.5
11.04
20.2
27.14
31.41
32.98
32.12
29.29
25.07
20.08
14.98
10.39
6.87
4.78
4.22
5.04
6.82
9.03
11.16
12.83
13.89
14.34
14.31
13.96
13.38
12.53
11.31
9.55
7.18
4.26
1.03
-2.15
-4.95
-7.16
-8.82
-10.1
-11.27
-12.56
-14.14
-16.06
-18.22
-20.42
-22.21
-22.98
-21.98
-18.69
-12.93
-5.1
3.86
12.8
20.6
26.47
30.02
31.23
30.29
27.49
23.22
17.97
12.41
7.26
3.19
0.69
-0.13
0.48
1.97
3.71
5.12
5.91
6.0
5.48
4.52
3.24
1.69
-0.15
-2.3
-4.74
-7.41
-10.18
-12.91
-15.42
-17.65
-19.58
-21.38
-23.26
-25.55
-28.48
-32.03
-35.84
-39.1
-40.74
-39.67
-35.12
-27.01
-16.03
-3.53
8.82
19.48
27.44
32.31
34.24
33.74
31.41
27.8
23.42
18.8
14.51
11.11
9.03
8.41
9.04
10.39
11.86
12.93
13.33
13.06
12.28
11.18
9.88
8.32
6.31
3.66
0.3
-3.58
-7.65
-11.44
-14.59
-16.95
-18.66
-20.07
-21.56
-23.46
-25.91
-28.88
-32.11
-35.08
-36.98
-36.8
-33.58
-26.77
-16.58
-4.09
9.06
21.02
30.38
36.45
39.26
39.38
37.55
34.44
30.51
26.14
21.71
17.68
14.52
12.64
12.16
12.89
14.35
15.96
17.17
17.65
17.32
16.26
14.63
12.59
10.21
7.5
4.45
1.08
-2.54
-6.19
-9.58
-12.4
-14.44
-15.67
-16.31
-16.78
-17.57
-19.14
-21.73
-25.25
-29.27
-32.96
-35.2
-34.86
-31.05
-23.48
-12.68
0.06
13.03
24.46
33.06
38.23
40.07
39.2
36.49
32.75
28.62
24.55
20.82
17.64
15.22
13.72
13.26
13.78
15.02
16.57
17.99
18.84
18.94
18.24
16.87
15.02
12.83
10.36
7.62
4.61
1.37
-2.01
-5.41
-8.69
-11.72
-14.44
-16.83
-18.88
-20.63
-22.13
-23.53
-25.02
-26.78
-28.87
-31.07
-32.78
-33.1
-31.06
-25.99
-17.83
-7.27
4.39
15.55
24.77
31.17
34.44
34.89
33.13
29.86
25.76
21.38
17.25
13.82
11.45
10.33
10.36
11.21
12.44
13.65
14.57
15.15
15.42
15.41
15.03
14.08
12.4
9.88
6.69
3.13
-0.4
-3.55
-6.16
-8.31
-10.24
-12.26
-14.57
-17.16
-19.83
-22.24
-24.13
-25.39
-26.16
-26.72
-27.45
-28.65
-30.43
-32.58
-34.56
-35.49
-34.39
-30.46
-23.47
-13.9
-2.95
7.84
17.01
23.62
27.34
28.39
27.29
24.62
20.95
16.8
12.75
9.36
7.07
6.08
6.29
7.37
8.85
10.35
11.58
12.45
12.94
13.08
12.85
12.2
11.06
9.39
7.23
4.74
2.16
-0.29
-2.49
-4.5
-6.49
-8.65
-11.01
-13.44
-15.62
-17.23
-18.05
-18.1
-17.67
-17.2
-17.19
-17.96
-19.5
-21.38
-22.83
-22.86
-20.64
-15.73
-8.32
0.81
10.44
19.3
26.32
30.87
32.77
32.21
29.64
25.59
20.68
15.52
10.74
6.94
4.55
3.76
4.42
6.11
8.23
10.19
11.5
11.96
11.55
10.47
9.01
7.37
5.68
3.9
1.89
-0.5
-3.35
-6.58
-9.95
-13.11
-15.8
-17.84
-19.29
-20.37
-21.39
-22.67
-24.41
-26.63
-29.11
-31.38
-32.72
-32.35
-29.64
-24.33
-16.68
-7.51
2.02
10.68
17.49
21.93
23.94
23.78
21.91
18.82
15.02
10.99
7.24
4.26
2.44
1.97
2.77
4.57
6.88
9.2
11.06
12.14
12.29
11.55
10.03
7.96
5.55
3.01
0.47
-1.99
-4.37
-6.74
-9.14
-11.64
-14.18
-16.65
-18.91
-20.85
-22.42
-23.71
-24.89
-26.2
-27.95
-30.37
-33.46
-36.84
-39.66
-40.7
-38.75
-33.07
-23.7
-11.65
1.47
13.86
24.02
31.13
35.03
36.12
35.02
32.4
28.88
24.94
21.02
17.5
14.75
13.02
12.39
12.71
13.67
14.83
15.81
16.4
16.52
16.21
15.53
14.46
12.96
10.99
8.6
5.97
3.36
1.04
-0.83
-2.21
-3.31
-4.42
-5.86
-7.81
-10.29
-13.05
-15.73
-17.99
-19.62
-20.66
-21.4
-22.3
-23.81
-26.29
-29.8
-33.99
-38.06
-40.81
-40.97
-37.53
-30.16
-19.42
-6.67
6.26
17.68
26.41
32.04
34.83
35.38
34.3
32.12
29.23
26.02
22.92
20.38
18.74
18.11
18.36
19.16
20.14
20.98
21.47
21.51
21.11
20.34
19.27
17.98
16.45
14.64
12.41
9.74
6.69
3.46
0.31
-2.47
-4.71
-6.36
-7.51
-8.43
-9.44
-10.82
-12.72
-15.05
-17.54
-19.86
-21.8
-23.35
-24.67
-26.0
-27.6
-29.65
-32.21
-35.21
-38.3
-40.73
-41.48
-39.41
-33.78
-24.61
-12.8
0.07
12.22
22.21
29.22
33.13
34.3
33.3
30.77
27.28
23.39
19.57
16.28
13.86
12.49
12.17
12.69
13.71
14.87
15.8
16.25
16.19
15.65
14.78
13.68
12.37
10.82
8.96
6.77
4.31
1.76
-0.71
-2.94
-4.85
-6.44
-7.75
-8.87
-9.87
-10.87
-11.97
-13.28
-14.8
-16.45
-18.12
-19.59
-20.77
-21.61
-22.25
-22.97
-24.1
-25.92
-28.44
-31.31
-33.7
-34.54
-32.79
-27.85
-19.79
-9.42
1.91
12.76
21.86
28.46
32.28
33.46
32.42
29.74
26.05
21.98
18.14
15.01
12.96
12.1
12.35
13.41
14.85
16.25
17.27
17.77
17.8
17.45
16.82
15.89
14.6
12.86
10.63
8.01
5.28
2.73
0.63
-0.86
-1.83
-2.51
-3.22
-4.21
-5.6
-7.3
-9.06
-10.61
-11.78
-12.59
-13.24
-14.09
-15.43
-17.48
-20.2
-23.24
-25.93
-27.41
-26.82
-23.59
-17.63
-9.45
-0.12
9.02
16.68
22.0
24.66
24.84
23.0
19.74
15.61
11.12
6.8
3.17
0.67
-0.43
-0.18
1.05
2.73
4.37
5.69
6.66
7.44
8.15
8.77
9.04
8.65
7.35
5.15
2.33
-0.65
-3.32
-5.42
-6.91
-8.0
-9.0
-10.21
-11.78
-13.7
-15.81
-17.93
-19.92
-21.68
-23.29
-24.86
-26.58
-28.62
-31.05
-33.71
-36.11
-37.48
-36.88
-33.56
-27.22
-18.22
-7.56
3.42
13.33
21.17
26.42
29.04
29.35
27.84
25.06
21.59
17.99
14.78
12.43
11.21
11.21
12.21
13.84
15.58
16.99
17.77
17.87
17.44
16.69
15.75
14.59
13.05
10.95
8.23
5.02
1.61
-1.61
-4.34
-6.44
-8.02
-9.29
-10.52
-11.9
-13.5
-15.27
-17.07
-18.8
-20.36
-21.73
-22.98
-24.28
-25.87
-28.04
-30.96
-34.44
-37.86
-40.15
-40.11
-36.76
-29.81
-19.77
-7.87
4.3
15.25
23.88
29.7
32.71
33.29
31.97
29.37
26.07
22.59
19.4
16.83
15.13
14.4
14.54
15.33
16.44
17.53
18.32
18.66
18.55
18.07
17.34
16.38
15.18
13.63
11.63
9.12
6.2
3.06
0.0
-2.72
-4.95
-6.72
-8.25
-9.83
-11.7
-13.93
-16.39
-18.81
-20.89
-22.47
-23.56
-24.35
-25.21
-26.48
-28.44
-31.09
-34.12
-36.83
-38.28
-37.45
-33.59
-26.49
-16.68
-5.32
6.11
16.17
23.88
28.87
31.27
31.52
30.15
27.59
24.23
20.5
16.85
13.74
11.55
10.46
10.41
11.16
12.33
13.55
14.53
15.14
15.38
15.34
15.09
14.64
13.88
12.62
10.69
8.04
4.85
1.41
-1.88
-4.72
-7.01
-8.86
-10.57
-12.46
-14.76
-17.41
-20.18
-22.71
-24.71
-26.07
-26.85
-27.31
-27.78
-28.62
-30.06
-32.12
-34.5
-36.56
-37.38
-36.02
-31.8
-24.6
-14.93
-3.86
7.21
16.98
24.51
29.34
31.52
31.49
29.88
27.3
24.32
21.39
18.87
17.07
16.17
16.16
16.87
17.92
18.91
19.48
19.5
19.0
18.1
16.93
15.48
13.67
11.41
8.74
5.84
3.02
0.6
-1.2
-2.35
-3.0
-3.42
-3.88
-4.55
-5.48
-6.58
-7.7
-8.71
-9.57
-10.34
-11.21
-12.41
-14.18
-16.61
-19.61
-22.73
-25.25
-26.25
-24.83
-20.48
-13.27
-3.97
6.18
15.72
23.42
28.54
30.87
30.68
28.48
24.89
20.51
15.97
11.86
8.77
7.16
7.24
8.9
11.68
14.86
17.65
19.41
19.8
18.84
16.8
14.09
11.06
7.94
4.77
1.54
-1.75
-5.05
-8.2
-11.01
-13.37
-15.24
-16.63
-17.6
-18.2
-18.53
-18.72
-19.01
-19.67
-20.98
-23.02
-25.56
-28.0
-29.47
-29.07
-26.11
-20.45
-12.51
-3.25
6.05
14.15
20.05
23.3
23.9
22.3
19.19
15.28
11.23
7.55
4.67
2.88
2.41
3.25
5.23
7.96
10.96
13.77
16.02
17.49
18.03
17.55
15.99
13.33
9.72
5.45
0.95
-3.38
-7.22
-10.45
-13.15
-15.51
-17.7
-19.75
-21.6
-23.05
-23.94
-24.23
-24.04
-23.76
-23.82
-24.64
-26.4
-28.87
-31.39
-32.94
-32.45
-29.15
-22.8
-13.91
-3.53
6.94
16.17
23.2
27.59
29.42
29.15
27.43
24.92
22.16
19.56
17.36
15.74
14.78
14.54
