52.04
49.95
47.26
44.37
41.73
39.77
38.7
38.45
38.74
39.23
39.67
39.94
40.04
39.97
39.65
38.89
37.55
35.5
32.72
29.33
25.44
21.21
16.76
12.2
7.63
3.15
-1.14
-5.19
-9.01
-12.75
-16.64
-20.89
-25.6
-30.63
-35.66
-40.28
-44.18
-47.36
-50.13
-53.03
-56.67
-61.57
-67.92
-75.42
-83.03
-88.97
-91.05
-87.25
-76.49
-59.21
-37.42
-14.15
7.49
25.21
38.08
46.38
51.11
53.42
54.17
53.8
52.6
50.77
48.62
46.51
44.76
43.55
42.89
42.64
42.65
42.81
43.02
43.27
43.47
43.43
42.89
41.58
39.34
36.21
32.43
28.34
24.23
20.18
16.14
11.99
7.61
3.06
-1.44
-5.68
-9.51
-12.94
-16.19
-19.59
-23.42
-27.78
-32.52
-37.24
-41.52
-45.02
-47.77
-50.17
-52.95
-56.93
-62.66
-70.06
-78.11
-84.98
-88.26
-85.75
-76.24
-60.01
-38.97
-16.12
5.38
23.12
35.99
44.14
48.55
50.36
50.43
49.26
47.08
44.19
41.07
38.27
36.33
35.46
35.54
36.13
36.68
36.79
36.32
35.45
34.46
33.59
32.82
31.84
30.2
27.47
23.49
18.51
13.09
7.93
3.59
0.26
-2.33
-4.75
-7.62
-11.33
-15.83
-20.66
-25.2
-28.89
-31.55
-33.4
-34.99
-36.98
-39.95
-44.25
-49.89
-56.4
-62.78
-67.46
-68.6
-64.65
-54.86
-39.79
-21.28
-1.93
15.63
29.5
38.93
44.15
46.01
45.42
43.11
39.61
35.36
30.88
26.79
23.65
21.82
21.28
21.72
22.67
23.68
24.5
25.0
25.18
24.97
24.21
22.65
20.16
16.75
12.67
8.35
4.15
0.26
-3.43
-7.27
-11.63
-16.69
-22.32
-28.04
-33.28
-37.55
-40.76
-43.18
-45.45
-48.31
-52.41
-57.94
-64.38
-70.38
-73.97
-73.09
-66.28
-53.29
-35.39
-15.0
5.03
22.24
35.21
43.73
48.44
50.36
50.38
49.1
46.82
43.8
40.39
37.06
34.35
32.66
32.11
32.49
33.35
34.2
34.69
34.68
34.24
33.52
32.58
31.28
29.32
26.37
22.25
17.04
11.17
5.29
0.04
-4.19
-7.4
-10.02
-12.75
-16.26
-20.91
-26.6
-32.75
-38.64
-43.58
-47.3
-49.97
-52.21
-54.84
-58.68
-64.23
-71.37
-79.2
-85.93
-89.24
-86.92
-77.63
-61.52
-40.35
-17.05
5.23
23.99
38.06
47.53
53.41
56.84
58.68
59.29
58.72
57.02
54.48
51.7
49.34
47.94
47.69
48.37
49.51
50.55
51.0
50.34
48.24
44.44
38.99
32.38
25.47
19.31
14.64
11.56
9.42
7.12
3.67
-1.34
-7.57
-14.12
-19.94
-24.38
-27.31
-29.16
-30.59
-32.25
-34.49
-37.31
-40.41
-43.19
-45.09
-45.79
-45.46
-44.85
-45.15
-47.73
-53.64
-63.22
-75.68
-89.05
-100.46
-106.66
-104.92
-93.86
-74.03
-47.94
-19.47
7.2
28.7
43.28
51.07
53.68
53.57
53.04
53.66
55.88
59.22
62.71
65.55
67.46
68.73
69.93
71.42
73.06
74.16
73.95
72.09
68.96
65.61
63.16
62.22
62.48
62.81
61.73
58.14
51.88
43.94
36.06
30.11
27.3
27.73
30.33
33.24
34.35
31.88
24.84
13.14
-2.4
-20.28
-38.63
-55.61
-69.89
-81.05
-89.76
-97.4
-105.37
-114.15
-122.69
-128.49
-128.52
-120.45
-103.64
-79.41
-50.48
-19.76
10.5
39.16
65.87
90.36
112.07
130.12
143.92
153.68
160.71
167.06
174.82
185.27
198.28
212.25
224.54
232.15
232.64
224.8
208.91
186.6
160.17
131.82
102.75
72.86
40.92
5.53
-33.78
-75.55
-116.24
-151.02
-175.38
-186.65
-184.97
-173.12
-155.41
-136.19
-118.59
-104.06
-92.77
-84.2
-77.56
-71.85
-65.63
-56.96
-43.84
-25.11
-1.13
25.97
52.9
76.43
94.61
107.31
115.93
122.38
127.95
132.7
135.52
134.89
129.71
119.82
106.11
90.04
73.18
56.9
42.23
29.89
20.44
14.1
10.62
9.18
8.36
6.46
1.76
-6.92
-20.02
-37.06
-56.74
-77.23
-96.49
-112.75
-124.8
-132.25
-135.43
-135.23
-132.77
-129.12
-125.14
-121.32
-117.73
-113.84
-108.56
-100.56
-88.63
-72.3
-52.21
-30.03
-7.97
11.88
28.25
40.9
50.36
57.41
62.53
65.66
66.33
64.04
58.64
50.56
40.71
30.15
19.82
10.31
1.94
-5.2
-11.0
-15.26
-17.77
-18.39
-17.24
-14.77
-11.78
-9.22
-7.98
-8.69
-11.55
-16.4
-22.83
-30.39
-38.73
-47.68
-57.2
-67.24
-77.69
-88.18
-98.01
-106.08
-110.98
-111.32
-106.21
-95.62
-80.55
-62.81
-44.53
-27.53
-12.9
-0.94
8.67
16.35
22.38
26.78
29.38
30.12
29.19
27.05
24.28
21.44
18.8
16.36
13.94
11.31
8.47
5.61
3.03
0.93
-0.69
-2.15
-3.91
-6.35
-9.66
-13.74
-18.34
-23.17
-28.11
-33.11
-38.22
-43.47
-48.87
-54.43
-60.03
-65.31
-69.57
-71.73
-70.67
-65.66
-56.74
-44.93
-31.93
-19.58
-9.27
-1.64
3.39
6.35
7.83
8.26
7.99
7.29
6.53
6.12
6.37
7.29
8.62
9.95
10.88
11.25
11.13
10.76
10.28
9.63
8.47
6.43
3.28
-0.9
-5.7
-10.5
-14.77
-18.2
-20.75
-22.75
-24.64
-27.02
-30.45
-35.15
-40.9
-46.84
-51.55
-53.42
-51.2
-44.45
-33.8
-20.71
-6.95
5.95
16.98
25.74
32.18
36.4
38.5
38.65
37.22
34.83
32.27
30.31
29.4
29.56
30.39
31.25
31.51
30.76
28.94
26.16
22.64
18.44
13.43
7.41
0.3
-7.63
-15.75
-23.26
-29.44
-33.93
-36.83
-38.67
-40.18
-42.16
-45.2
-49.48
-54.71
-59.9
-63.53
-63.86
-59.52
-50.03
-36.08
-19.37
-1.98
14.18
27.97
39.01
47.46
53.62
57.7
59.72
59.67
57.75
54.34
49.97
45.11
40.03
34.75
29.13
23.1
16.76
10.5
4.88
0.45
-2.57
-4.31
-5.32
-6.28
-7.75
-9.98
-12.88
-16.12
-19.38
-22.45
-25.34
-28.24
-31.5
-35.56
-40.87
-47.66
-55.69
-63.93
-70.65
-73.76
-71.54
-63.24
-49.48
-32.09
-13.43
4.34
19.81
32.43
42.24
49.42
54.08
56.19
55.76
53.06
48.63
43.18
37.33
31.54
25.97
20.68
15.74
11.33
7.77
5.4
4.41
4.67
5.72
6.79
7.04
5.79
2.78
-1.74
-7.16
-12.71
-17.83
-22.31
-26.41
-30.58
-35.33
-40.97
-47.41
-54.2
-60.37
-64.64
-65.59
-62.11
-53.8
-41.21
-25.74
-9.3
6.29
19.68
30.22
37.82
42.69
45.13
45.45
44.0
41.29
37.93
34.59
31.8
29.82
28.5
27.46
26.13
24.07
21.09
17.34
13.15
8.85
4.59
0.24
-4.42
-9.54
-14.99
-20.37
-25.11
-28.81
-31.3
-32.81
-33.83
-34.91
-36.59
-39.28
-43.16
-47.98
-52.95
-56.73
-57.72
-54.6
-46.78
-34.75
-19.89
-4.02
11.18
24.63
35.82
44.66
51.15
55.22
56.76
55.82
52.77
48.26
43.06
37.86
33.03
28.58
24.33
20.02
15.56
11.11
7.0
3.55
1.01
-0.68
-1.81
-2.86
-4.36
-6.67
-9.94
-13.92
-18.15
-22.05
-25.23
-27.64
-29.61
-31.7
-34.51
-38.53
-44.03
-51.05
-59.17
-67.42
-74.23
-77.65
-75.97
-68.29
-54.96
-37.52
-18.19
0.94
18.35
33.35
45.83
55.79
63.21
67.87
69.68
68.76
65.56
60.8
55.21
49.34
43.49
37.76
32.16
26.81
22.02
18.27
15.87
14.82
14.68
14.65
13.95
12.12
9.23
5.82
2.56
-0.16
-2.35
-4.46
-7.08
-10.67
-15.34
-20.82
-26.61
-32.1
-36.83
-40.56
-43.37
-45.62
-47.9
-50.88
-54.97
-59.98
-64.94
-68.15
-67.71
-62.18
-51.3
-36.09
-18.66
-1.36
13.95
26.44
36.25
44.07
50.56
55.97
60.15
62.73
63.55
62.78
60.89
58.47
55.95
53.52
51.06
48.4
45.39
42.13
38.94
36.15
34.02
32.52
31.32
29.95
27.95
25.13
21.58
17.65
13.76
10.27
7.27
4.63
2.03
-0.91
-4.49
-8.79
-13.65
-18.77
-23.73
-28.25
-32.25
-35.81
-39.23
-42.87
-47.16
-52.49
-59.05
-66.64
-74.38
-80.72
-83.69
-81.49
-73.22
-59.29
-41.35
-21.84
-3.16
12.98
25.83
35.44
42.24
46.7
49.07
49.51
48.26
45.73
42.52
39.15
35.93
32.9
29.88
26.7
23.4
20.29
17.83
16.32
15.73
15.68
15.54
14.73
12.97
10.34
7.17
3.81
0.44
-3.01
-6.72
-10.9
-15.54
-20.4
-25.1
-29.23
-32.45
-34.68
-36.05
-36.98
-38.04
-39.92
-43.19
-48.06
-54.05
-59.91
-63.76
-63.65
-58.19
-47.12
-31.46
-13.14
5.56
22.71
37.16
48.53
56.97
62.83
66.35
67.64
66.86
64.31
60.53
56.19
51.91
48.02
44.54
41.21
37.72
33.93
30.0
26.27
23.09
20.6
18.61
16.71
14.43
11.45
7.72
3.49
-0.81
-4.72
-7.86
-10.12
-11.65
-12.86
-14.31
-16.52
-19.8
-24.14
-29.15
-34.26
-38.9
-42.69
-45.63
-47.99
-50.27
-53.03
-56.76
-61.65
-67.49
-73.37
-77.74
-78.67
-74.41
-64.14
-48.36
-28.9
-8.33
10.83
26.84
39.0
47.55
53.18
56.59
58.3
58.57
57.66
55.86
53.56
51.14
48.91
47.02
45.43
44.0
42.59
41.19
39.91
38.92
38.28
37.82
37.16
35.89
33.73
30.71
27.16
23.52
20.1
16.99
14.0
10.78
7.08
2.87
-1.57
-5.73
-9.11
-11.4
-12.68
-13.44
-14.38
-16.14
-19.08
-23.09
-27.7
-32.31
-36.44
-39.96
-43.12
-46.44
-50.55
-55.93
-62.68
-70.35
-77.77
-83.17
-84.6
-80.52
-70.4
-55.01
-36.25
-16.55
1.83
17.43
29.69
38.81
45.28
49.59
52.13
53.21
53.2
52.52
51.57
50.59
49.62
48.44
46.83
44.64
41.99
39.21
36.76
34.93
33.78
33.05
32.23
30.84
28.55
25.37
21.59
17.7
14.11
11.08
8.55
6.29
3.96
1.3
-1.79
-5.18
-8.59
-11.72
-14.38
-16.56
-18.45
-20.31
-22.39
-24.78
-27.35
-29.83
-31.96
-33.59
-34.86
-36.11
-37.8
-40.42
-44.31
-49.48
-55.48
-61.26
-65.27
-65.78
-61.46
-51.82
-37.58
-20.46
-2.67
13.78
27.52
37.99
45.23
49.6
51.46
51.16
49.06
45.67
41.63
37.55
33.92
30.93
28.47
26.23
23.87
21.2
18.36
15.72
13.71
12.64
12.5
12.92
13.34
13.26
12.37
10.77
8.75
6.73
5.03
3.74
2.64
1.33
-0.68
-3.76
-8.02
-13.26
-18.96
-24.48
-29.27
-32.99
-35.66
-37.6
-39.35
-41.56
-44.79
-49.3
-54.84
-60.48
-64.7
-65.73
-62.1
-53.27
-39.85
-23.49
-6.42
9.33
22.39
32.2
38.88
42.82
44.45
44.1
42.12
38.99
35.34
31.82
28.95
26.95
25.71
24.9
24.13
23.1
21.75
20.24
18.82
17.73
17.03
16.59
16.12
15.3
13.95
12.1
9.93
7.73
5.73
3.95
2.24
0.28
-2.29
-5.73
-10.06
-15.1
-20.42
-25.55
-30.11
-33.93
-37.15
-40.14
-43.45
-47.61
-52.97
-59.5
-66.51
-72.74
-76.49
-76.04
-70.28
-59.16
-43.72
-25.86
-7.74
8.87
22.88
33.99
42.37
48.41
52.44
54.65
55.25
54.51
52.83
50.63
48.26
45.95
43.72
41.54
39.37
37.28
35.4
33.95
32.97
32.38
31.97
31.41
30.45
28.96
26.97
24.54
21.73
18.5
14.78
10.49
5.69
0.64
-4.28
-8.61
-12.09
-14.72
-16.75
-18.69
-20.99
-23.91
-27.42
-31.2
-34.87
-38.13
-40.91
-43.35
-45.79
-48.63
-52.31
-57.05
-62.66
-68.3
-72.45
-73.24
-68.99
-58.94
-43.63
-24.88
-5.11
13.35
29.03
41.41
50.74
57.55
62.27
65.08
66.02
65.18
62.86
59.53
55.65
51.62
47.59
43.53
39.39
35.2
31.13
27.45
24.46
22.27
20.86
19.91
19.04
17.89
16.32
14.42
12.43
10.67
9.31
8.34
7.57
6.65
5.28
3.24
0.57
-2.53
-5.64
-8.4
-10.63
-12.42
-14.22
-16.55
-19.87
-24.2
-29.18
-34.08
-38.24
-41.29
-43.39
-45.12
-47.25
-50.5
-55.34
-61.87
-69.68
-77.96
-85.45
-90.59
-91.95
-88.61
-80.51
-68.5
-54.09
-39.0
-24.7
-12.31
-2.57
3.84
6.38
4.71
-0.87
-9.38
-19.15
-28.5
-36.3
-42.58
-48.54
-56.16
-67.27
-82.68
-101.49
-120.88
-136.91
-145.61
-144.78
-135.44
-122.16
-112.41
-114.52
-135.3
-177.67
-239.46
-313.35
-388.32
-452.22
-494.68
-509.62
-496.54
-460.08
-408.25
-349.9
-292.49
-240.95
-197.63
-163.04
-136.67
-117.34
-103.3
-92.18
-81.52
-69.35
-55.08
-39.53
-24.46
-11.82
-2.65
3.22
7.04
10.45
14.71
20.2
26.37
32.11
36.33
38.39
38.2
36.14
32.83
29.03
25.55
23.3
23.22
26.2
32.88
43.45
57.6
74.7
93.94
114.57
136.08
158.23
181.01
204.68
229.58
255.81
282.74
308.72
331.07
346.82
353.67
350.85
339.52
322.22
301.93
280.97
260.57
241.01
222.22
204.29
187.6
172.47
158.79
145.81
132.33
117.18
99.74
80.18
59.63
39.96
23.43
12.15
7.57
10.06
18.84
32.28
48.39
65.48
82.5
99.08
115.17
130.64
144.94
157.04
165.71
169.85
169.0
163.5
154.45
143.36
131.79
120.88
111.23
103.02
96.15
90.55
86.12
82.71
79.95
77.26
74.04
69.87
64.73
58.91
52.85
46.88
41.04
35.16
28.91
22.03
14.41
6.12
-2.63
-11.58
-20.45
-28.92
-36.7
-43.51
-49.18
-53.69
-57.14
-59.72
-61.59
-62.92
-63.95
-65.04
-66.76
-69.55
-73.42
-77.57
-80.39
-79.88
-74.37
-63.25
-47.28
-28.38
-8.9
9.1
24.47
36.94
46.84
54.65
60.63
64.78
67.0
67.34
66.07
63.75
61.0
58.27
55.77
53.45
51.13
48.72
46.35
44.31
42.94
42.46
42.77
43.5
44.08
43.88
42.45
39.57
35.25
29.79
23.58
17.03
10.53
4.31
-1.56
-7.16
-12.61
-18.03
-23.43
-28.67
-33.52
-37.73
-41.17
-43.9
-46.27
-48.76
-52.0
-56.53
-62.69
-70.27
-78.36
-85.36
-89.27
-88.17
-80.98
-67.82
-50.1
-30.12
-10.35
7.25
21.51
32.16
39.43
43.72
45.37
44.75
42.3
38.64
34.61
31.05
28.57
27.43
27.49
28.34
29.51
30.62
31.41
31.75
31.52
30.57
28.76
25.94
22.15
17.63
12.83
8.25
4.27
0.96
-1.97
-5.06
-8.86
-13.63
-19.27
-25.31
-31.16
-36.38
-40.85
-44.77
-48.59
-52.9
-58.13
-64.42
-71.34
-77.73
-81.87
-81.87
-76.27
-64.66
-47.97
-28.26
-8.1
10.2
25.18
36.38
44.09
48.93
51.45
52.04
50.96
48.57
45.37
42.04
39.2
37.26
36.3
36.08
36.23
36.39
36.4
36.26
36.09
35.96
35.79
35.35
34.27
32.14
28.69
23.8
17.63
10.57
3.14
-4.1
-10.65
-16.2
-20.64
-24.12
-26.94
-29.5
-32.16
-35.13
-38.41
-41.79
-44.96
-47.71
-49.99
-52.08
-54.5
-57.93
-62.99
-69.97
-78.53
-87.47
-94.84
-98.33
-95.97
-86.79
-71.22
-51.02
-28.82
-7.27
11.54
26.45
37.26
44.43
48.76
51.02
51.89
51.8
51.11
50.08
48.99
48.17
47.89
48.29
49.36
50.95
52.79
54.61
56.09
56.93
56.87
55.68
53.29
49.8
45.49
40.68
35.65
30.54
25.4
20.18
14.9
9.65
4.58
-0.13
-4.43
-8.42
-12.38
-16.65
-21.48
-26.92
-32.83
-38.9
-44.75
-50.02
-54.51
-58.2
-61.39
-64.64
-68.64
-73.93
-80.45
-87.24
-92.54
-94.18
-90.34
-80.32
-64.75
-45.5
-24.98
-5.42
11.72
25.86
37.1
45.88
52.54
57.27
60.06
60.87
59.78
57.1
53.27
48.87
44.4
40.28
36.77
34.05
32.22
31.35
31.4
32.2
33.38
34.5
35.16
35.17
34.55
33.53
32.41
31.34
30.31
29.12
27.43
24.9
21.37
16.85
11.55
5.72
-0.4
-6.68
-13.09
-19.57
-26.01
-32.18
-37.75
-42.47
-46.33
-49.61
-52.94
-57.11
-62.74
-69.89
-77.73
-84.58
-88.26
-86.78
-79.1
-65.52
-47.62
-27.71
-8.08
9.48
24.01
35.19
43.07
47.79
49.55
48.68
45.77
41.64
37.12
32.85
29.07
25.72
22.52
19.3
16.08
13.13
10.82
9.38
8.79
8.78
8.87
8.57
7.58
5.89
3.73
1.44
-0.77
-2.96
-5.48
-8.87
-13.53
-19.52
-26.46
-33.73
-40.65
-46.81
-52.1
-56.7
-60.93
-65.1
-69.4
-73.78
-77.76
-80.34
-80.1
-75.57
-65.79
-50.84
-31.97
-11.31
8.78
26.45
40.74
51.6
59.52
65.12
68.82
70.82
71.2
70.06
67.64
64.24
60.12
55.41
50.17
44.35
38.03
31.48
25.15
19.61
15.34
12.58
11.16
10.58
10.19
9.44
7.99
5.8
2.95
-0.46
-4.48
-9.31
-15.07
-21.77
-29.07
-36.39
-43.1
-48.63
-52.68
-55.3
-56.87
-58.07
-59.8
-63.0
-68.35
-75.84
-84.5
-92.29
-96.6
-94.98
-86.0
-69.87
-48.45
-24.64
-1.54
18.36
33.68
44.09
50.0
52.25
51.71
49.24
45.65
41.75
38.24
35.68
34.32
34.15
34.84
35.95
37.11
38.11
38.89
39.42
39.55
38.97
37.3
34.24
29.72
23.99
17.5
10.81
4.43
-1.22
-5.86
-9.34
-11.77
-13.48
-15.03
-16.97
-19.67
-23.13
-26.99
-30.72
-33.87
-36.29
-38.14
-39.82
-41.85
-44.62
-48.42
-53.36
-59.18
-65.12
-69.77
-71.34
-68.05
-58.85
-43.87
-24.58
-3.36
17.27
35.25
49.48
59.72
66.28
69.6
70.08
68.08
64.05
58.7
52.88
47.47
43.16
40.24
38.66
38.1
38.11
38.36
38.55
38.46
37.88
36.59
34.43
31.4
27.74
23.92
20.53
18.13
16.94
16.77
17.04
16.9
15.52
12.32
7.18
0.44
-7.2
-14.97
-22.25
-28.7
-34.27
-39.11
-43.39
-47.21
-50.57
-53.44
-55.77
-57.57
-58.93
-60.12
-61.62
-64.01
-67.78
-72.89
-78.46
-82.76
-83.63
-79.2
-68.68
-52.77
-33.49
-13.46
4.96
20.32
32.3
41.35
48.27
53.69
57.94
61.07
63.05
63.89
63.76
62.9
61.65
60.35
59.29
58.7
58.71
59.36
60.58
62.19
63.89
65.25
65.83
65.2
63.02
59.15
53.66
46.69
38.55
29.58
20.21
10.93
2.15
-5.83
-12.92
-19.22
-24.92
-30.13
-34.81
-38.84
-42.14
-44.81
-47.17
-49.72
-52.91
-57.13
-62.56
-69.19
-76.83
-84.84
-92.05
-96.71
-96.86
-90.88
-78.21
-59.74
-37.71
-15.12
5.13
21.0
31.64
37.24
38.61
36.74
32.55
26.91
20.65
14.63
9.65
6.29
4.77
4.89
6.2
8.19
10.49
12.94
15.55
18.28
20.93
22.99
23.8
22.71
19.36
13.92
6.98
-0.55
-7.8
-14.21
-19.61
-24.17
-28.16
-31.69
-34.65
-36.73
-37.57
-37.08
-35.51
-33.41
-31.57
-30.77
-31.68
-34.65
-39.6
-45.87
-52.11
-56.44
-56.76
-51.36
-39.6
-22.21
-1.2
20.65
40.64
56.72
67.88
74.06
75.76
73.69
68.63
61.34
52.7
43.74
35.5
28.92
24.56
22.48
22.3
23.3
24.67
25.7
25.96
25.32
23.89
21.95
19.71
17.33
14.87
12.36
9.89
7.61
5.62
3.9
2.3
0.47
-1.99
-5.49
-10.37
-16.77
-24.63
-33.58
-42.94
-51.84
-59.45
-65.18
-68.95
-71.18
-72.61
-74.16
-76.64
-80.59
-85.94
-91.88
-96.77
-98.52
-95.2
-85.71
-70.38
-50.89
-29.82
-9.74
7.48
21.13
31.47
39.34
45.59
50.74
54.94
58.01
59.79
60.27
59.72
58.61
57.48
56.75
56.62
57.11
58.15
59.68
61.59
63.67
65.55
66.72
66.64
64.88
61.33
56.15
49.68
42.37
34.57
26.62
18.68
10.91
3.26
-4.34
-12.03
-19.85
-27.65
-35.09
-41.74
-47.23
-51.42
-54.51
-56.96
-59.44
-62.62
-67.08
-73.17
-80.81
-89.28
-97.08
-102.12
-102.16
-95.59
-82.03
-62.56
-39.5
-15.71
6.24
24.66
38.84
48.86
55.19
58.37
58.93
57.41
54.46
50.79
47.11
43.97
41.63
40.13
39.26
38.84
38.79
39.17
40.06
41.42
43.02
44.41
45.06
44.55
42.7
39.62
35.63
31.17
26.57
21.98
17.4
12.69
7.74
2.61
-2.55
-7.47
-11.93
-15.84
-19.24
-22.22
-24.78
-26.82
-28.13
-28.54
-28.14
-27.3
-26.7
-27.12
-29.3
-33.74
-40.56
-49.43
-59.32
-68.59
-75.13
-76.89
-72.41
-61.42
-44.99
-25.23
-4.7
14.29
30.1
41.93
49.62
53.39
53.7
51.16
46.58
40.89
35.08
30.02
26.28
24.06
23.22
23.34
23.93
24.59
25.06
25.24
25.06
24.35
22.8
20.05
15.88
10.38
4.07
-2.24
-7.73
-11.86
-14.66
-16.62
-18.61
-21.42
-25.51
-30.81
-36.82
-42.8
-48.12
-52.46
-55.91
-58.88
-61.96
-65.68
-70.32
-75.62
-80.71
-84.0
-83.62
-77.92
-66.16
-48.92
-28.08
-6.33
13.65
29.87
41.41
48.32
51.19
50.8
47.89
43.2
37.66
32.38
28.5
26.92
27.97
31.31
36.0
40.88
44.94
47.63
48.84
48.81
47.85
46.08
43.45
39.78
35.01
29.33
23.16
17.0
11.24
5.94
0.78
-4.77
-11.16
-18.52
-26.56
-34.64
-42.04
-48.26
-53.19
-57.17
-60.86
-65.04
-70.35
-76.98
-84.44
-91.45
-96.05
-96.05
-89.79
-76.77
-57.96
-35.66
-12.71
8.27
25.6
38.66
47.72
53.44
56.5
57.41
56.57
54.45
51.62
48.7
46.19
44.36
43.17
42.36
41.65
40.79
39.81
38.85
38.13
37.72
37.48
37.02
35.86
33.58
29.98
25.15
19.43
13.33
7.31
1.69
-3.39
-8.0
-12.35
-16.65
-21.05
-25.59
-30.17
-34.59
-38.63
-42.11
-45.03
-47.57
-50.14
-53.28
-57.63
-63.62
-71.23
-79.69
-87.4
-92.19
-91.89
-85.03
-71.45
-52.42
-30.32
-7.88
12.51
29.4
42.31
51.51
57.65
61.35
63.12
63.36
62.39
60.58
58.35
56.08
54.03
52.25
50.66
49.09
47.44
45.81
44.37
43.26
42.46
41.7
40.57
38.65
35.77
32.1
28.04
24.01
20.3
16.91
13.59
10.0
5.97
1.53
-3.02
-7.29
-11.09
-14.48
-17.79
-21.48
-25.85
-30.9
-36.3
-41.58
-46.28
-50.21
-53.45
-56.39
-59.59
-63.65
-69.07
-75.95
-83.77
-91.19
-96.17
-96.45
-90.35
-77.38
-58.57
-36.19
-13.08
8.23
26.04
39.73
49.41
55.62
58.96
59.98
59.23
57.29
54.82
52.42
50.5
49.19
48.38
47.81
47.21
46.47
45.65
44.92
44.4
44.06
43.64
42.79
41.16
38.56
35.13
31.21
27.25
23.63
20.52
17.79
15.12
12.14
8.6
4.53
0.22
-3.92
-7.62
-10.83
-13.81
-16.98
-20.72
-25.12
-29.96
-34.77
-39.05
-42.51
-45.2
-47.49
-50.01
-53.4
-58.11
-64.13
-70.71
-76.33
-78.97
-76.67
-68.19
-53.59
-34.31
-12.76
8.37
26.87
41.47
51.86
58.41
61.74
62.46
61.13
58.29
54.48
50.38
46.63
43.74
41.97
41.26
41.27
41.57
41.77
41.64
41.14
40.38
39.44
38.33
36.89
34.87
32.01
28.2
23.47
18.12
12.56
7.2
2.4
-1.73
-5.32
-8.69
-12.2
-16.12
-20.46
-25.01
-29.4
-33.33
-36.63
-39.43
-41.99
-44.7
-47.97
-52.18
-57.6
-64.31
-71.87
-79.16
-84.42
-85.66
-81.3
-70.82
-55.13
-36.3
-16.94
0.61
14.83
25.14
31.71
34.98
35.44
33.54
29.78
24.91
19.85
15.5
12.52
11.09
10.92
11.43
12.04
12.44
12.68
13.02
13.69
14.64
15.44
15.52
14.31
11.68
7.95
3.81
-0.06
-3.25
-5.86
-8.39
-11.42
-15.37
-20.23
-25.62
-30.97
-35.73
-39.62
-42.63
-45.02
-47.32
-50.16
-54.18
-59.75
-66.64
-73.73
-79.15
-80.7
-76.57
-66.08
-49.98
-30.25
-9.47
9.96
26.44
39.29
48.54
54.57
57.78
58.51
57.13
54.18
50.43
46.72
43.77
41.98
41.3
41.35
41.64
41.77
41.57
41.11
40.52
39.83
38.94
37.55
35.32
31.98
27.49
21.99
15.86
9.57
3.56
-1.87
-6.57
-10.6
-14.15
-17.5
-20.96
-24.78
-29.08
-33.77
-38.56
-43.04
-46.87
-49.88
-52.19
-54.2
-56.52
-59.82
-64.63
-70.98
-78.16
-84.64
-88.28
-86.95
-79.28
-65.23
-46.17
-24.54
-2.99
16.35
32.22
44.26
52.71
57.99
60.58
60.97
59.67
57.31
54.54
51.89
49.72
48.1
46.91
45.93
45.01
44.1
43.28
42.62
42.1
41.57
40.76
39.4
37.34
34.64
31.5
28.18
24.82
21.42
17.89
14.11
10.03
5.77
1.47
-2.72
-6.78
-10.79
-14.95
-19.45
-24.34
-29.55
-34.88
-40.02
-44.76
-48.95
-52.66
-56.16
-59.9
-64.43
-70.17
-77.15
-84.67
-91.21
-94.69
-93.03
-84.91
-70.37
-50.86
-28.83
-6.95
12.63
28.69
40.95
49.71
55.47
58.71
59.83
59.34
57.84
55.98
54.32
53.14
52.41
51.89
51.32
50.54
49.61
48.71
48.02
47.54
47.06
46.27
44.81
42.5
39.36
35.61
31.56
27.5
23.57
19.77
15.99
12.09
8.02
3.85
-0.2
-3.91
-7.16
-10.05
-12.87
-15.99
-19.68
-23.96
-28.57
-33.05
-36.99
-40.18
-42.74
-45.08
-47.82
-51.58
-56.79
-63.4
-70.67
-77.11
-80.64
-79.21
-71.5
-57.45
-38.47
-17.01
4.18
22.84
37.69
48.45
55.5
59.39
60.61
59.53
56.59
52.4
47.78
43.64
40.72
39.36
39.41
40.31
41.28
41.64
40.93
39.03
36.08
32.31
27.93
23.03
17.61
11.65
5.24
-1.38
-7.83
-13.6
-18.18
