0.45
19.38
34.06
44.68
51.99
56.77
59.5
60.4
59.7
57.9
55.82
54.4
54.33
55.73
58.08
60.52
62.25
62.99
62.99
62.87
63.19
64.03
64.92
64.99
63.36
59.5
53.42
45.61
36.89
28.17
20.29
13.97
9.53
6.74
4.65
1.69
-3.89
-13.28
-26.63
-42.88
-60.28
-77.16
-92.71
-107.18
-121.48
-136.41
-151.8
-166.13
-176.73
-180.52
-174.94
-158.8
-132.6
-98.51
-59.89
-20.58
15.73
46.02
68.25
81.49
86.02
83.15
74.95
63.76
51.68
40.11
29.69
20.46
12.28
5.18
-0.48
-4.0
-4.62
-1.83
4.48
13.76
24.97
36.76
47.79
56.99
63.78
68.07
70.15
70.43
69.21
66.58
62.48
56.82
49.68
41.42
32.7
24.26
16.78
10.68
5.96
2.21
-1.31
-5.51
-11.3
-19.24
-29.21
-40.2
-50.36
-57.39
-59.18
-54.61
-43.94
-28.83
-11.84
4.34
17.6
26.79
31.78
33.19
32.01
29.23
25.69
21.95
18.33
15.07
12.37
10.48
9.61
9.84
11.0
12.77
14.77
16.75
18.72
20.84
23.29
26.1
29.16
32.3
35.52
38.83
42.18
45.27
47.46
47.88
45.76
40.7
32.85
22.85
11.47
-0.63
-13.15
-26.22
-40.19
-55.32
-71.45
-87.65
-102.2
-112.92
-117.72
-115.34
-105.78
-90.44
-71.69
-52.16
-34.09
-18.83
-6.77
2.36
9.16
14.15
17.65
19.82
20.87
21.2
21.4
22.15
23.93
26.79
30.35
33.92
36.85
38.8
39.8
40.2
40.31
40.21
39.64
38.1
35.13
30.49
24.39
17.32
9.96
2.86
-3.62
-9.43
-14.75
-19.91
-25.35
-31.54
-38.85
-47.35
-56.55
-65.22
-71.55
-73.63
-70.04
-60.43
-45.75
-27.91
-9.26
8.06
22.62
33.72
41.31
45.64
47.12
46.2
43.48
39.67
35.57
31.91
29.21
27.61
26.91
26.71
26.55
26.13
25.37
24.43
23.49
22.63
21.66
20.11
17.38
13.0
6.9
-0.55
-8.62
-16.46
-23.49
-29.49
-34.67
-39.53
-44.65
-50.54
-57.54
-65.58
-74.0
-81.41
-85.9
-85.54
-79.07
-66.49
-49.18
-29.51
-10.1
6.99
20.63
30.64
37.41
41.44
43.15
42.83
40.83
37.65
34.02
30.7
28.32
27.16
27.04
27.44
27.8
27.74
27.25
26.54
25.88
25.25
24.24
22.16
18.37
12.61
5.23
-2.97
-10.97
-18.04
-23.85
-28.61
-32.9
-37.45
-42.98
-49.97
-58.48
-67.87
-76.69
-82.89
-84.32
-79.4
-67.82
-50.76
-30.57
-10.0
8.51
23.47
34.37
41.49
45.46
46.91
46.35
44.15
40.75
36.61
32.31
28.37
25.23
23.05
21.69
20.72
19.59
17.85
15.28
11.97
8.12
3.9
-0.79
-6.33
-13.27
-22.14
-33.13
-45.89
-59.56
-72.85
-84.35
-92.72
-97.03
-96.82
-92.24
-83.97
-73.21
-61.4
-50.03
-40.14
-31.91
-24.55
-16.46
-5.93
8.06
25.26
44.1
62.23
77.32
87.86
93.49
94.81
92.84
88.54
82.43
74.68
65.37
54.75
43.37
31.96
21.31
12.01
4.53
-0.72
-3.32
-2.92
0.48
6.38
13.59
20.55
25.71
27.98
27.08
23.51
18.35
12.91
8.32
5.18
3.38
2.05
-0.2
-4.78
-12.57
-23.46
-36.3
-49.24
-60.43
-68.58
-73.35
-75.25
-75.28
-74.51
-73.8
-73.81
-75.09
-78.08
-82.83
-88.58
-93.56
-95.27
-91.22
-79.91
-61.6
-38.21
-12.78
11.57
32.57
49.19
61.48
70.07
75.7
78.93
80.16
79.83
78.43
76.57
74.76
73.35
72.41
71.8
71.3
70.74
70.06
69.32
68.58
67.82
66.83
65.24
62.62
58.67
53.37
47.06
40.31
33.72
27.66
22.03
16.39
10.09
2.66
-5.92
-15.23
-24.46
-32.81
-39.73
-45.12
-49.32
-53.04
-57.07
-62.08
-68.28
-75.23
-81.68
-85.83
-85.68
-79.73
-67.54
-49.94
-28.89
-6.91
13.57
30.77
43.84
52.68
57.75
59.63
58.89
56.05
51.68
46.49
41.31
36.96
34.09
32.99
33.54
35.28
37.58
39.79
41.38
41.96
41.3
39.33
36.15
31.98
27.13
21.85
16.26
10.32
3.92
-2.99
-10.27
-17.57
-24.45
-30.51
-35.55
-39.68
-43.24
-46.77
-50.92
-56.2
-62.89
-70.61
-78.2
-83.78
-85.17
-80.56
-69.25
-51.96
-30.74
-8.37
12.47
29.87
42.93
51.68
56.69
58.65
58.2
55.89
52.31
48.15
44.18
41.04
39.08
38.25
38.15
38.27
38.25
37.99
37.6
37.22
36.74
35.73
33.62
29.92
24.6
18.16
11.41
5.17
-0.13
-4.65
-8.97
-13.84
-19.78
-26.86
-34.7
-42.58
-49.79
-55.78
-60.39
-63.83
-66.77
-70.15
-74.89
-81.54
-89.81
-98.35
-104.94
-107.04
-102.61
-90.8
-72.28
-49.05
-23.85
0.55
21.97
39.11
51.53
59.51
63.71
65.02
64.26
62.19
59.37
56.25
53.22
50.59
48.6
47.34
46.74
46.65
46.86
47.23
47.64
47.99
48.1
47.69
46.37
43.76
39.58
33.82
26.77
19.03
11.33
4.28
-1.85
-7.25
-12.44
-18.05
-24.45
-31.56
-38.9
-45.81
-51.73
-56.49
-60.31
-63.73
-67.52
-72.39
-78.74
-86.36
-94.19
-100.33
-102.47
-98.55
-87.54
-69.85
-47.28
-22.56
1.51
22.7
39.75
52.32
60.78
65.85
68.31
68.81
67.84
65.78
62.95
59.78
56.73
54.2
52.46
51.54
51.28
51.45
51.81
52.23
52.58
52.69
52.32
51.16
48.9
45.35
40.55
34.69
28.12
21.25
14.42
7.9
1.83
-3.8
-9.12
-14.38
-19.86
-25.78
-32.15
-38.81
-45.38
-51.44
-56.68
-60.99
-64.54
-67.76
-71.3
-75.87
-82.05
-89.9
-98.64
-106.51
-111.05
-109.77
-101.04
-84.7
-62.26
-36.45
-10.41
13.18
32.59
47.23
57.33
63.57
66.7
67.41
66.23
63.68
60.29
56.68
53.4
50.88
49.27
48.43
48.11
48.06
48.17
48.46
48.93
49.43
49.63
49.1
47.46
44.57
40.5
35.52
29.96
24.1
18.11
12.1
6.17
0.37
-5.21
-10.53
-15.67
-20.83
-26.27
-32.22
-38.72
-45.51
-52.13
-58.03
-62.85
-66.6
-69.76
-73.12
-77.55
-83.62
-91.19
-99.19
-105.63
-108.01
-104.07
-92.6
-73.93
-50.0
-23.73
1.75
23.98
41.53
54.02
61.8
65.51
65.87
63.57
59.39
54.22
49.05
44.77
42.0
40.9
41.17
42.23
43.48
44.48
45.15
45.55
45.82
45.96
45.78
44.95
43.15
40.15
35.91
30.58
24.46
17.97
11.54
5.49
-0.11
-5.43
-10.78
-16.49
-22.68
-29.23
-35.8
-41.99
-47.47
-52.11
-56.05
-59.6
-63.25
-67.59
-73.18
-80.28
-88.49
-96.56
-102.45
-103.78
-98.63
-86.26
-67.46
-44.41
-19.95
3.23
23.15
38.84
50.09
57.18
60.5
60.61
58.16
54.01
49.14
44.46
40.65
37.98
36.37
35.54
35.17
35.15
35.49
36.31
37.64
39.27
40.72
41.32
40.44
37.75
33.31
27.58
21.22
14.82
8.73
2.87
-3.05
-9.42
-16.37
-23.72
-30.94
-37.39
-42.61
-46.51
-49.5
-52.33
-55.86
-60.74
-67.14
-74.51
-81.5
-86.21
-86.58
-81.02
-68.99
-51.28
-29.83
-7.26
13.89
31.72
45.28
54.46
59.69
61.59
60.8
57.87
53.43
48.12
42.69
37.81
34.02
31.56
30.43
30.41
31.19
32.46
33.92
35.28
36.16
36.16
34.9
32.16
27.99
22.64
16.56
10.18
3.78
-2.57
-9.01
-15.75
-22.85
-30.2
-37.43
-44.06
-49.74
-54.4
-58.39
-62.39
-67.21
-73.49
-81.27
-89.7
-97.03
-100.9
-99.0
-89.85
-73.38
-51.12
-25.75
-0.41
22.22
40.43
53.71
62.38
67.21
68.98
68.32
65.75
61.84
57.31
52.98
49.57
47.46
46.61
46.67
47.12
47.56
47.84
47.95
47.96
47.75
46.94
45.06
41.71
36.75
30.45
23.37
16.2
9.47
3.34
-2.42
-8.32
-14.81
-22.07
-29.85
-37.61
-44.68
-50.63
-55.36
-59.26
-63.08
-67.72
-73.95
-81.98
-91.09
-99.53
-104.76
-104.13
-95.77
-79.39
-56.53
-30.13
-3.72
19.66
38.19
51.44
60.04
65.13
67.83
68.86
68.64
67.37
65.3
62.8
60.33
58.33
57.01
56.32
56.02
55.8
55.49
55.07
54.61
54.19
53.68
52.73
50.87
47.63
42.78
36.38
28.85
20.9
13.27
6.57
1.04
-3.51
-7.66
-12.13
-17.52
-24.06
-31.49
-39.18
-46.36
-52.48
-57.31
-61.08
-64.34
-67.83
-72.33
-78.38
-85.96
-94.26
-101.48
-105.22
-103.04
-93.39
-76.23
-53.23
-27.3
-1.69
20.94
39.07
52.34
61.24
66.57
69.1
69.46
68.2
65.83
62.97
60.19
58.0
56.66
56.14
56.18
56.42
56.58
56.51
56.19
55.65
54.79
53.38
51.12
47.84
43.62
38.81
33.86
29.14
24.75
20.5
16.07
11.19
5.81
0.1
-5.62
-11.12
-16.36
-21.51
-26.8
-32.4
-38.28
-44.17
-49.71
-54.64
-58.84
-62.55
-66.22
-70.46
-75.85
-82.75
-91.01
-99.69
-107.07
-110.79
-108.6
-99.03
-82.06
-59.31
-33.61
-8.22
14.11
31.76
44.4
52.63
57.52
60.07
60.99
60.69
59.44
57.54
55.38
53.39
51.85
50.88
50.37
50.13
50.08
50.24
50.73
51.57
52.53
53.13
52.79
51.13
48.07
43.93
39.22
34.41
29.75
25.22
20.61
15.68
10.35
4.73
-0.94
-6.36
-11.39
-16.02
-20.46
-25.0
-29.91
-35.27
-40.96
-46.69
-52.11
-56.97
-61.17
-64.84
-68.35
-72.25
-77.1
-83.12
-89.89
-96.12
-99.8
-98.83
-91.66
-78.06
-59.2
-37.4
-15.33
4.72
21.35
34.13
43.3
49.48
53.29
55.27
55.78
55.14
53.65
51.69
49.69
48.08
47.17
47.01
47.45
48.18
48.92
49.51
49.87
49.94
49.53
48.33
46.04
42.52
37.94
32.68
27.25
22.0
17.06
12.22
7.26
2.01
-3.38
-8.56
-13.15
-16.98
-20.2
-23.26
-26.66
-30.68
-35.28
-40.08
-44.63
-48.65
-52.15
-55.48
-59.18
-63.82
-69.79
-77.11
-85.22
-92.82
-98.04
-98.71
-93.21
-80.96
-62.86
-41.11
-18.56
2.09
19.03
31.54
39.86
44.76
47.05
47.36
46.18
43.95
41.21
38.58
36.62
35.69
35.8
36.58
37.55
38.22
38.37
38.09
37.67
37.38
37.34
37.39
37.07
35.88
33.38
29.45
24.37
18.72
13.21
8.35
4.21
0.44
-3.57
-8.34
-13.99
-20.16
-26.17
-31.36
-35.37
-38.29
-40.59
-42.97
-46.13
-50.57
-56.42
-63.26
-70.08
-75.3
-77.11
-74.01
-65.34
-51.6
-34.35
-15.75
2.06
17.48
29.66
38.44
44.05
46.85
47.18
45.4
41.99
37.63
33.17
29.42
26.97
26.01
26.28
27.25
28.36
29.24
29.81
30.24
30.67
31.08
31.2
30.57
28.72
25.46
20.94
15.69
10.33
5.39
0.99
-3.1
-7.42
-12.5
-18.57
-25.47
-32.67
-39.47
-45.28
-49.84
-53.26
-56.1
-59.17
-63.27
-69.01
-76.37
-84.49
-91.7
-95.83
-94.82
-87.43
-73.73
-55.11
-33.96
-12.9
5.9
21.18
32.62
40.57
45.68
48.54
49.59
49.13
47.56
45.35
43.08
41.29
40.35
40.37
41.19
42.47
43.87
45.09
46.02
46.63
46.92
46.81
46.07
44.41
41.55
37.4
32.08
26.03
19.82
14.01
8.92
4.5
0.35
-4.12
-9.44
-15.81
-23.02
-30.47
-37.47
-43.49
-48.35
-52.3
-55.92
-59.92
-64.95
-71.33
-78.86
-86.62
-93.0
-95.99
-93.74
-85.22
-70.65
-51.57
-30.33
-9.44
9.12
24.24
35.68
43.82
49.26
52.61
54.37
54.95
54.76
54.18
53.59
53.26
53.3
53.65
54.15
54.65
55.06
55.4
55.68
55.87
55.78
55.2
53.9
51.73
48.71
44.94
40.59
35.86
30.92
25.88
20.79
15.63
10.4
5.23
0.33
-4.09
-7.98
-11.51
-15.1
-19.22
-24.15
-29.84
-35.94
-41.94
-47.43
-52.25
-56.53
-60.63
-65.06
-70.4
-77.02
-84.85
-93.07
-100.02
-103.49
-101.32
-92.23
-76.39
-55.55
-32.54
-10.36
8.66
23.42
34.04
41.41
46.56
50.2
52.6
53.75
53.72
52.81
51.55
50.53
50.12
50.38
51.08
51.96
52.85
53.7
54.57
55.42
56.03
56.04
55.07
52.92
49.64
45.52
40.93
36.19
31.42
26.59
21.6
16.37
11.0
5.69
0.68
-3.89
-8.04
-11.98
-16.06
-20.56
-25.61
-31.05
-36.53
-41.62
-46.05
-49.85
-53.34
-57.1
-61.72
-67.59
-74.79
-82.86
-90.78
-96.93
-99.43
-96.56
-87.37
-72.1
-52.3
-30.43
-9.15
9.39
24.06
34.7
41.87
46.36
48.81
49.69
49.26
47.82
45.84
43.86
42.44
41.93
42.32
43.29
44.47
45.51
46.36
47.13
47.99
48.88
49.53
49.47
48.27
45.76
42.11
37.76
33.19
28.74
24.49
20.29
15.91
11.16
6.05
0.76
-4.41
-9.19
-13.48
-17.45
-21.41
-25.74
-30.61
-35.99
-41.53
-46.8
-51.41
-55.21
-58.38
-61.43
-65.08
-70.01
-76.54
-84.29
-92.01
-97.7
-99.17
-94.77
-83.97
-67.67
-47.92
-27.24
-7.93
8.5
21.46
31.07
37.78
42.15
44.58
45.37
44.85
43.41
41.54
39.79
38.62
38.26
38.69
39.65
40.76
41.71
42.34
42.67
42.76
42.61
42.08
40.88
38.67
35.28
30.72
25.24
19.33
13.47
8.09
3.35
-0.87
-4.94
-9.29
-14.22
-19.78
-25.66
-31.41
-36.52
-40.74
-44.13
-47.11
-50.29
-54.31
-59.63
-66.21
-73.43
-79.95
-83.97
-83.64
-77.68
-65.92
-49.43
-30.31
-10.98
6.46
20.75
31.48
38.85
43.26
45.08
44.61
42.31
38.89
35.27
32.4
30.91
30.88
31.92
33.37
34.63
35.44
35.91
36.32
36.92
37.68
38.2
37.9
36.28
33.09
28.53
23.14
17.53
12.14
7.08
2.12
-3.11
-8.88
-15.18
-21.75
-28.19
-34.16
-39.46
-44.13
-48.43
-52.74
-57.54
-63.26
-70.11
-77.75
-85.17
-90.68
-92.31
-88.42
-78.34
-62.67
-43.23
-22.51
-2.91
13.81
26.88
36.38
42.86
46.96
49.14
49.7
48.93
47.31
45.43
43.95
43.28
43.46
44.18
44.93
45.31
45.26
44.99
44.8
44.88
45.03
44.74
43.35
40.39
35.75
29.85
23.42
17.19
11.62
6.72
2.09
-2.82
-8.47
-15.01
-22.22
-29.63
-36.67
-42.89
-48.08
-52.34
-56.11
-60.05
-64.98
-71.49
-79.62
-88.51
-96.37
-100.83
-99.63
-91.41
-76.31
-55.93
-32.92
-10.12
10.24
26.86
39.47
48.41
54.27
57.62
58.97
58.77
57.52
55.77
54.02
52.68
52.0
52.03
52.63
53.54
54.42
55.01
55.19
55.02
54.6
53.98
53.05
51.51
48.98
45.16
40.01
33.81
27.06
20.32
14.07
8.51
3.55
-1.11
-5.91
-11.17
-17.04
-23.37
-29.76
-35.77
-41.04
-45.52
-49.46
-53.3
-57.63
-62.91
-69.47
-77.31
-85.95
-94.26
-100.52
-102.63
-98.74
-87.93
-70.64
-48.75
-25.02
-2.29
17.33
32.8
44.08
51.79
56.67
59.44
60.58
60.5
59.61
58.34
57.07
56.09
55.55
55.46
55.75
56.26
56.85
57.36
57.66
57.62
57.1
55.94
54.01
51.26
47.77
43.74
39.45
35.07
30.61
25.93
20.84
15.23
9.24
3.16
-2.64
-7.94
-12.78
-17.44
-22.31
-27.66
-33.5
-39.61
-45.59
-51.03
-55.69
-59.62
-63.22
-67.19
-72.31
-79.09
-87.35
-95.95
-102.88
-105.67
-102.25
-91.64
-74.43
-52.61
-28.97
-6.26
13.47
29.22
40.89
48.91
53.84
56.18
56.39
54.98
52.62
50.1
48.1
47.03
46.88
47.38
48.11
48.8
49.34
49.83
50.32
50.76
50.9
50.41
49.05
46.75
43.62
39.91
35.81
31.45
26.74
21.62
15.99
9.92
3.67
-2.42
-8.0
-12.9
-17.22
-21.26
-25.44
-30.08
-35.25
-40.77
-46.29
-51.47
-56.16
-60.4
-64.47
-68.73
-73.63
-79.55
-86.65
-94.54
-102.05
-107.27
-107.96
-102.27
-89.5
-70.56
-47.76
-24.1
-2.37
15.67
29.4
39.13
45.56
49.3
50.76
50.28
48.28
45.44
42.58
40.41
39.35
39.35
40.01
40.8
41.38
41.69
41.98
42.55
43.49
44.49
44.91
44.01
41.28
36.72
30.84
24.54
18.71
13.92
10.15
6.87
3.24
-1.44
-7.48
-14.66
-22.26
-29.37
-35.28
-39.66
-42.75
-45.17
-47.81
-51.46
-56.66
-63.43
-70.99
-77.86
-82.0
-81.38
-74.66
-61.73
-43.77
-23.04
-2.14
16.69
32.05
43.41
50.95
55.19
56.68
55.97
53.57
50.1
46.24
42.67
39.96
38.37
37.82
37.97
38.43
38.93
39.41
40.01
40.79
41.59
41.94
41.23
38.95
34.94
29.5
23.24
16.86
10.86
5.36
0.11
-5.38
-11.54
-18.54
-26.14
-33.77
-40.76
-46.55
-51.0
-54.38
-57.36
-60.83
-65.61
-72.24
-80.59
-89.68
-97.68
-102.23
-101.07
-92.83
-77.55
-56.73
-32.91
-8.92
12.82
30.8
44.43
53.81
59.49
62.11
62.36
60.91
58.38
55.39
52.53
50.27
48.89
48.4
48.57
49.05
49.57
50.02
50.44
50.86
51.09
50.68
49.04
45.69
40.54
33.99
26.76
19.65
13.17
7.39
1.96
-3.67
-10.0
-17.24
-25.23
-33.5
-41.41
-48.41
-54.22
-58.92
-63.04
-67.4
-72.91
-80.09
-88.73
-97.54
-104.37
-106.64
-102.24
-90.23
-71.29
-47.59
-22.05
2.39
23.57
40.38
52.65
60.8
65.46
67.27
66.78
64.61
61.44
58.02
55.04
52.97
51.96
51.8
52.11
52.45
52.56
52.37
52.03
51.68
51.31
50.65
49.23
46.51
42.17
36.28
29.32
22.04
15.11
8.89
3.27
-2.25
-8.31
-15.33
-23.3
-31.79
-40.07
-47.44
-53.47
-58.17
-61.99
-65.67
-70.03
-75.78
-83.21
-91.93
-100.67
-107.43
-109.75
-105.57
-93.82
-75.04
-51.24
-25.43
-0.66
20.74
37.59
49.83
58.02
62.98
65.38
65.69
64.32
61.77
58.66
55.67
53.44
52.29
52.21
52.83
53.63
54.12
54.05
53.43
52.42
51.22
49.83
48.07
45.57
42.0
37.17
31.19
24.45
17.49
10.85
4.84
-0.47
-5.37
-10.32
-15.81
-22.11
-29.11
-36.38
-43.26
-49.19
-53.91
-57.61
-60.85
-64.42
-69.08
-75.33
-83.23
-92.11
-100.53
-106.33
-107.11
-100.97
-87.2
-66.74
-42.01
-16.19
7.75
27.78
43.15
54.07
61.26
65.4
67.0
66.43
64.1
60.66
56.94
53.74
51.63
50.81
51.05
51.88
52.74
53.22
53.19
52.7
51.94
51.01
49.8
47.94
45.02
40.68
34.91
28.04
20.71
13.6
7.25
1.82
-2.92
-7.45
-12.29
-17.79
-24.0
-30.65
-37.28
-43.39
-48.63
-52.96
-56.64
-60.19
-64.24
-69.39
-76.01
-84.04
-92.77
-100.66
-105.6
-105.32
-98.19
-83.84
-63.46
-39.5
-14.98
7.44
26.02
40.15
50.07
56.38
59.69
60.5
59.25
56.5
53.0
49.56
46.89
45.34
44.87
45.09
45.52
45.82
45.85
45.74
45.66
45.6
45.36
44.46
42.41
38.87
33.82
27.62
20.92
14.4
8.59
3.65
-0.67
-4.87
-9.52
-14.98
-21.22
-27.83
-34.2
-39.77
-44.28
-47.83
-50.9
-54.15
-58.25
-63.68
-70.42
-77.8
-84.34
-88.05
-86.88
-79.47
-65.65
-46.65
-24.83
-2.89
16.8
32.8
44.58
52.36
56.61
57.88
56.63
53.42
48.95
44.07
39.65
36.34
34.4
33.75
34.01
34.75
35.66
36.58
37.45
38.15
38.44
37.91
36.16
32.98
28.45
22.93
16.99
11.05
5.33
-0.3
-6.08
-12.29
-18.96
-25.86
-32.59
-38.67
-43.81
-47.98
-51.43
-54.72
-58.5
-63.45
-69.83
-77.29
-84.59
-89.75
-90.53
-85.2
-73.15
-55.29
-33.73
-11.2
9.77
27.44
41.03
50.59
56.61
59.69
60.37
59.12
56.5
53.11
49.66
46.77
44.81
43.87
43.72
43.99
44.34
44.64
44.93
45.27
45.62
45.63
44.75
42.4
38.21
32.21
24.91
17.14
9.78
3.48
-1.59
-5.79
-9.86
-14.57
-20.42
-27.34
-34.77
-41.87
-47.91
-52.59
-56.18
-59.42
-63.24
-68.5
-75.63
-84.3
-93.31
-100.63
-103.85
-100.84
-90.52
-73.37
-51.36
-27.36
-4.29
15.67
31.5
43.21
51.42
56.82
59.96
61.16
60.68
58.82
55.98
52.67
49.38
46.59
44.65
43.7
43.63
43.96
43.85
42.21
37.99
30.48
19.62
6.15
-8.53
-22.69
-34.65
-43.12
-47.45
-47.61
-44.25
-38.46
-31.64
-25.15
-20.04
-16.78
-15.34
-15.39
-16.72
-19.47
-24.06
-30.94
-40.16
-51.02
-62.16
-71.87
-78.67
-81.86
-81.72
-79.33
-76.01
-72.6
-68.96
-63.93
-55.81
-43.05
-24.98
-2.08
24.13
51.62
78.36
102.75
123.68
140.48
152.7
160.08
162.5
160.13
153.44
143.3
130.83
117.24
103.62
90.72
78.86
68.07
58.22
49.22
41.08
33.91
27.75
22.5
17.89
13.54
9.07
4.23
-1.05
-6.59
-12.05
-17.05
-21.3
-24.77
-27.68
-30.51
-33.74
-37.75
-42.57
-47.91
-53.27
-58.18
-62.35
-65.76
-68.68
-71.48
-74.57
-78.26
-82.7
-87.72
-92.66
-96.32
-97.06
-93.26
-83.92
-69.14
-50.18
-29.25
-8.73
9.38
23.95
34.73
42.08
46.61
48.89
49.47
48.83
47.5
46.01
44.77
44.02
43.75
43.75
43.75
43.57
43.14
42.51
41.75
40.83
39.61
37.87
35.4
32.11
28.02
23.31
18.16
12.74
7.12
1.28
-4.78
-11.01
-17.25
-23.25
-28.76
-33.67
-38.04
-42.2
-46.63
-51.85
-58.17
-65.45
-72.82
-78.78
-81.43
-79.09
-70.92
-57.31
-39.87
-20.88
-2.7
12.97
25.24
33.98
39.43
41.92
41.75
39.24
34.93
29.62
24.3
20.01
17.49
17.03
18.37
20.79
23.4
25.35
26.2
25.93
24.88
23.52
22.17
20.74
18.8
15.76
11.15
4.88
-2.63
-10.58
-18.06
-24.38
-29.24
-32.78
-35.53
-38.25
-41.75
-46.68
-53.26
-60.98
-68.54
-73.88
-74.85
-69.81
-58.41
-41.74
-22.06
-2.1
15.8
30.16
40.56
47.32
51.14
52.66
52.39
50.62
47.61
43.72
39.39
35.18
31.63
29.1
27.74
27.37
27.63
28.05
28.26
28.01
27.23
25.93
24.11
21.66
18.35
13.88
8.06
0.92
-7.13
-15.46
-23.36
-30.32
-36.21
-41.26
-45.99
-50.92
-56.52
-63.02
-70.37
-78.13
-85.32
-90.42
-91.6
-87.28
-76.71
-60.37
-40.01
-18.16
2.63
20.45
34.37
44.41
51.13
55.22
57.26
57.69
56.84
55.12
52.98
50.87
49.17
48.05
47.49
47.31
47.24
47.08
46.66
45.88
44.65
42.88
40.42
37.16
33.05
28.18
22.69
16.77
10.49
3.84
-3.24
-10.76
-18.56
-26.31
-33.56
-39.96
-45.33
-49.86
-54.05
-58.56
-64.1
-71.04
-79.15
-87.33
-93.71
-96.04
-92.38
-81.81
-64.89
-43.62
-20.88
0.47
18.28
31.62
40.62
46.15
49.25
50.75
51.21
50.91
50.13
49.15
48.32
47.92
48.03
48.46
48.9
49.01
48.63
47.86
46.95
46.19
45.62
45.0
43.78
41.36
37.34
31.75
25.06
18.06
11.5
5.82
0.97
-3.49
-8.19
-13.59
-19.83
-26.65
-33.57
-40.08
-45.82
-50.74
-55.05
-59.19
-63.74
-69.32
-76.36
-84.83
-93.91
-101.94
-106.63
-105.71
-97.73
-82.64
-62.04
-38.7
-15.7
4.44
20.36
31.85
39.51
44.2
46.63
47.29
46.53
44.81
42.61
40.5
38.86
37.82
37.23
36.84
36.47
36.13
36.0
36.24
36.86
37.56
37.8
36.96
34.63
30.74
25.66
20.01
14.44
9.29
4.53
-0.22
-5.44
-11.45
-18.19
-25.27
-32.11
-38.15
-43.09
-46.99
-50.22
-53.42
-57.31
-62.54
-69.36
-77.36
-85.27
-91.05
-92.41
-87.52
-75.72
-57.83
-35.98
-12.99
8.44
26.35
39.81
48.78
53.84
55.78
55.43
53.53
50.73
47.59
44.56
41.94
39.91
38.51
37.69
37.43
37.64
38.25
39.11
39.93
40.26
39.6
37.55
33.93
28.94
23.07
16.92
10.98
5.42
0.05
-5.56
-11.81
-18.83
-26.34
-33.77
-40.5
-46.15
-50.72
-54.65
-58.7
-63.67
-70.14
-78.14
-86.84
-94.48
-98.74
-97.32
-88.79
-73.18
-52.17
-28.54
-5.39
14.82
30.75
42.2
49.76
54.24
56.3
56.38
54.87
52.23
49.1
46.21
44.21
43.41
43.71
44.67
45.74
46.48
46.75
46.68
46.52
46.35
45.99
44.92
42.5
38.3
32.31
25.05
17.39
10.17
3.91
-1.48
-6.57
-12.16
-18.82
-26.65
-35.14
-43.47
-50.79
-56.64
-61.03
-64.49
-67.83
-71.89
-77.36
-84.55
-93.18
-102.14
-109.52
-112.88
-109.93
-99.33
-81.3
-57.75
-31.75
-6.58
15.2
32.28
44.6
52.89
58.12
61.07
62.29
62.16
61.09
59.61
58.26
57.46
57.42
58.04
59.08
60.27
61.41
62.46
63.44
64.33
64.95
64.98
64.06
61.85
58.19
53.11
46.88
39.87
32.49
25.14
18.1
11.59
5.69
0.32
-4.76
-9.88
-15.4
-21.55
-28.35
-35.53
-42.63
-49.15
-54.79
-59.55
-63.78
-68.11
-73.3
-79.99
-88.34
-97.79
-106.79
-113.0
-113.86
-107.34
-92.76
-71.19
-45.28
-18.46
6.01
25.94
40.5
50.09
55.77
58.64
59.52
58.88
57.08
54.55
51.92
49.93
49.16
49.8
51.6
53.98
56.32
58.16
59.31
59.84
59.83
59.29
58.04
55.84
52.48
47.92
42.31
35.98
29.34
22.81
16.68
11.04
5.76
0.51
-5.06
-11.21
-17.95
-25.04
-32.09
-38.71
-44.65
-49.9
-54.58
-58.96
-63.39
-68.36
-74.4
-81.88
-90.62
-99.52
-106.58
-109.29
-105.41
-93.88
-75.3
-51.84
-26.61
-2.68
17.62
33.14
43.72
49.87
52.35
51.94
49.44
45.7
41.64
38.2
36.09
35.55
36.36
37.92
39.53
40.77
41.6
42.33
43.31
44.62
45.86
46.27
45.02
41.66
36.29
29.55
22.37
15.52
9.41
3.91
-1.42
-7.15
-13.56
-20.55
-27.65
-34.22
-39.68
-43.83
-46.92
-49.62
-52.85
-57.49
-64.02
-72.21
-80.86
-87.94
-91.0
-87.87
-77.44
-60.14
-37.93
-13.78
9.19
28.55
42.98
52.35
57.33
58.89
58.01
55.44
51.78
47.58
43.41
39.84
37.29
36.0
35.91
36.78
38.23
39.94
41.58
42.88
43.5
43.08
41.35
38.23
33.86
28.58
22.82
16.86
10.81
4.55
-2.1
-9.25
-16.83
-24.54
-31.96
-38.65
-44.37
-49.24
-53.75
-58.73
-65.01
-73.04
-82.39
-91.58
-98.23
-99.72
-94.04
-80.66
-60.73
-36.86
-12.23
10.29
28.81
42.66
52.07
57.72
60.36
60.61
59.03
56.27
53.09
50.2
48.18
47.24
47.32
48.08
49.19
50.41
51.65
52.81
53.71
54.01
53.22
50.85
46.67
40.84
33.87
26.54
19.54
13.24
7.5
1.78
-4.53
-11.82
-19.97
-28.4
-36.32
-43.12
-48.63
-53.14
-57.36
-62.1
-68.13
-75.85
-84.98
-94.42
-102.16
-105.73
-102.8
-92.14
-74.15
-50.86
-25.43
-1.04
19.87
36.14
47.71
55.24
59.48
61.07
60.5
58.25
55.01
51.56
48.66
46.8
46.05
46.16
46.66
47.14
47.38
47.44
47.47
47.6
47.7
47.4
46.15
43.48
39.2
33.51
26.99
20.36
14.22
8.78
3.77
-1.32
-7.07
-13.73
-21.13
-28.68
-35.67
-41.52
-46.08
-49.67
-53.02
-57.07
-62.67
-70.23
-79.38
-88.77
-96.16
-98.91
-94.82
-82.93
-64.01
-40.42
-15.42
7.87
27.24
41.82
51.84
58.13
61.6
62.87
62.35
60.34
57.29
53.84
50.7
48.52
47.62
47.9
48.93
50.12
50.96
51.2
50.83
50.04
48.96
47.5
45.35
42.11
37.49
31.55
24.71
17.65
11.06
5.38
0.66
-3.47
-7.58
-12.24
-17.73
-24.0
-30.63
-37.04
-42.72
-47.38
-51.09
-54.27
-57.53
-61.61
-67.09
-74.19
-82.44
-90.54
-96.4
-97.65
-92.41
-80.0
-61.34
-38.73
-15.18
6.56
24.6
38.21
47.46
52.91
55.14
54.68
52.1
48.13
43.7
39.79
37.18
36.24
36.85
38.48
40.44
42.12
43.19
43.61
43.48
42.85
41.56
39.3
35.8
30.97
25.12
18.83
12.76
7.35
2.64
-1.75
-6.4
-11.78
-18.0
-24.71
-31.24
-36.88
-41.21
-44.28
-46.62
-49.1
-52.62
-57.84
-64.91
-73.2
-81.32
-87.22
-88.67
-83.94
-72.38
-54.79
-33.26
-10.61
10.46
27.99
41.14
50.08
55.53
58.33
59.17
58.49
56.64
54.08
51.38
49.18
47.96
47.85
48.59
49.68
50.57
50.95
50.76
50.16
49.33
48.3
46.92
44.88
41.87
37.69
32.35
26.1
19.41
12.83
6.84
1.65
-2.85
-7.11
-11.7
-17.03
-23.17
-29.79
-36.35
-42.32
-47.4
-51.59
-55.18
-58.62
-62.45
-67.2
-73.32
-80.91
-89.48
-97.68
-103.44
-104.4
-98.7
-85.73
-66.47
-43.35
-19.45
2.35
20.17
33.35
42.32
48.03
51.47
53.28
53.84
53.33
52.02
50.34
48.86
48.09
48.27
49.3
50.77
52.18
53.16
53.59
53.58
53.31
52.86
52.1
50.71
48.35
44.85
40.35
35.28
30.2
25.58
21.61
18.1
14.66
10.82
6.38
1.38
-3.83
-8.78
-13.09
-16.66
-19.73
-22.8
-26.48
-31.18
-37.0
-43.58
-50.29
-56.43
-61.54
-65.6
-69.0
-72.47
-76.82
-82.69
-90.21
-98.76
-106.75
-111.9
-111.73
-104.45
-89.69
-68.85
-44.69
-20.57
0.69
17.51
29.7
38.03
43.6
47.27
49.5
50.47
50.36
49.52
48.51
47.88
48.01
48.93
50.38
51.97
53.39
54.49
55.28
55.86
56.24
56.27
55.64
54.01
51.16
47.13
42.23
36.98
31.94
27.48
23.65
20.17
16.59
12.47
7.68
2.36
-3.01
-7.95
-12.16
-15.68
-18.92
-22.48
-26.87
-32.26
-38.41
-44.74
-50.6
-55.51
-59.37
-62.52
-65.57
-69.29
-74.38
-81.18
-89.46
-98.21
-105.59
-109.27
-107.05
-97.69
-81.44
-60.15
-36.73
-14.23
4.97
19.72
29.98
36.5
40.24
42.02
42.45
41.9
40.68
39.14
37.73
36.87
36.86
37.8
39.47
41.48
43.38
44.86
45.82
46.31
46.39
45.99
44.9
42.82
39.65
35.54
30.86
26.06
21.43
17.04
12.78
8.48
4.07
-0.43
-4.97
-9.57
-14.38
-19.54
-25.1
-30.86
-36.47
-41.52
-45.76
-49.2
-52.18
-55.27
-59.11
-64.23
-70.83
-78.42
-85.84
-91.2
-92.43
-87.91
-77.02
-60.54
-40.41
-19.26
0.41
16.72
28.79
36.57
40.6
41.71
40.72
38.42
35.51
32.66
30.47
29.43
29.79
31.43
33.96
36.68
39.01
40.59
41.45
41.87
42.2
42.49
42.46
41.59
39.33
35.47
30.24
24.23
18.14
12.48
7.39
2.59
-2.42
-8.1
-14.6
-21.68
-28.74
-35.12
-40.29
-44.16
-47.08
-49.75
-53.07
-57.78
-64.28
-72.3
-80.75
-87.79
-91.19
-88.94
-79.92
-64.41
-44.09
-21.63
0.14
18.95
33.62
43.95
50.45
53.88
54.87
53.95
51.6
48.46
45.32
43.05
42.23
43.0
44.94
47.28
49.23
50.3
50.47
50.1
49.65
49.36
49.08
48.29
46.34
42.75
37.43
30.76
23.46
16.33
9.92
4.35
-0.7
-5.8
-11.47
-17.95
-25.07
-32.36
-39.22
-45.18
-50.1
-54.22
-58.04
-62.27
-67.56
-74.39
-82.79
-92.1
-100.82
-106.83
-107.81
-102.01
-88.83
-69.26
-45.67
-21.18
1.28
19.68
33.27
42.44
48.24
51.76
53.82
54.79
54.8
54.02
52.79
51.65
51.1
51.42
52.55
54.14
55.76
57.16
58.25
59.06
59.57
59.58
58.77
56.88
53.83
49.75
44.99
39.84
34.47
28.9
23.03
16.83
10.46
4.24
-1.5
-6.57
-11.11
-15.56
-20.5
-26.3
-33.0
-40.16
-47.07
-53.1
-57.92
-61.68
-64.98
-68.69
-73.63
-80.38
-88.91
-98.33
-106.88
-112.05
-111.29
-102.82
-86.36
-63.44
-37.02
-10.6
12.78
31.25
44.37
52.73
57.47
59.72
60.34
59.91
58.86
57.57
56.43
55.77
55.82
56.59
57.91
59.46
60.9
62.01
62.62
62.68
62.11
60.83
58.71
55.66
51.65
46.78
41.21
35.19
28.93
22.65
16.52
10.62
5.02
-0.31
-5.46
-10.6
-15.92
-21.51
-27.34
-33.23
-38.91
-44.12
-48.72
-52.78
-56.55
-60.48
-65.15
-71.18
-78.91
-88.0
-97.21
-104.34
-106.83
-102.51
-90.48
-71.58
-48.2
-23.53
-0.61
18.41
32.6
42.06
47.51
49.85
49.95
48.53
46.25
43.71
41.46
39.95
39.41
39.84
40.95
42.32
43.59
44.55
45.23
45.76
46.2
46.38
45.86
44.11
40.75
35.79
29.69
23.19
17.0
11.53
6.68
2.01
-3.06
-8.95
-15.62
-22.68
-29.48
-35.45
-40.35
-44.31
-47.84
-51.62
-56.35
-62.48
-69.98
-78.09
-85.28
-89.45
-88.51
-81.02
-66.87
-47.39
-25.03
-2.69
17.2
33.08
44.47
51.68
55.38
56.3
55.1
52.39
48.82
45.1
41.88
39.67
38.73
39.0
40.17
41.79
43.43
44.78
45.68
46.06
45.84
44.84
42.78
39.38
34.6
28.7
22.23
15.85
10.01
4.81
-0.11
-5.31
-11.26
-18.12
-25.56
-32.95
-39.57
-44.93
-48.99
-52.19
-55.38
-59.46
-65.19
-72.71
-81.37
-89.56
-95.06
