-29.48
-32.48
-35.62
-38.36
-39.87
-39.28
-35.96
-29.8
-21.34
-11.63
-1.9
6.74
13.59
18.4
21.34
22.79
23.22
23.03
22.53
21.91
21.34
20.94
20.78
20.82
20.98
21.11
21.04
20.7
20.07
19.2
18.21
17.18
16.16
15.14
14.06
12.9
11.63
10.24
8.69
6.97
5.08
3.06
0.99
-1.02
-2.81
-4.34
-5.7
-7.14
-8.93
-11.27
-14.1
-17.17
-20.05
-22.35
-23.86
-24.71
-25.23
-25.87
-27.06
-29.0
-31.61
-34.54
-37.11
-38.46
-37.72
-34.25
-27.96
-19.36
-9.52
0.23
8.69
15.05
19.01
20.82
21.01
20.23
19.06
17.92
17.05
16.53
16.32
16.37
16.59
16.88
17.14
17.22
17.07
16.66
16.1
15.54
15.07
14.67
14.12
13.09
11.34
8.81
5.73
2.46
-0.55
-2.99
-4.77
-5.98
-6.86
-7.64
-8.5
-9.51
-10.64
-11.84
-13.08
-14.35
-15.67
-17.08
-18.66
-20.51
-22.8
-25.66
-29.14
-33.0
-36.6
-39.04
-39.3
-36.69
-31.1
-23.14
-13.98
-4.89
3.07
9.38
14.02
17.23
19.32
20.42
20.56
19.74
18.09
15.93
13.71
11.85
10.62
10.03
9.83
9.66
9.22
8.41
7.4
6.55
6.15
6.31
6.78
7.06
6.66
5.27
3.03
0.4
-1.97
-3.57
-4.21
-4.06
-3.56
-3.19
-3.35
-4.21
-5.76
-7.75
-9.54
-10.17
-8.41
-3.28
5.45
16.83
28.85
39.06
45.45
47.27
45.12
40.51
35.05
29.85
25.32
21.51
18.48
16.44
15.66
16.03
16.97
17.49
16.7
14.24
10.44
6.19
2.44
-0.13
-1.28
-1.1
0.39
3.46
8.84
17.59
31.01
50.32
76.24
108.44
145.07
182.6
216.37
241.77
255.64
257.28
248.48
232.43
212.12
189.08
162.98
132.73
97.99
60.57
24.53
-5.06
-24.23
-31.77
-29.79
-22.78
-15.7
-12.05
-12.96
-17.39
-23.18
-28.32
-31.8
-33.68
-34.6
-35.18
-35.62
-35.77
-35.34
-34.06
-31.69
-27.91
-22.74
-16.77
-11.49
-9.11
-11.73
-20.37
-34.27
-50.94
-66.96
-79.26
-86.12
-87.48
-84.46
-78.65
-71.33
-63.24
-54.53
-44.9
-33.86
-21.07
-6.88
7.25
18.76
24.48
21.76
9.62
-10.63
-35.6
-61.06
-83.52
-101.38
-114.98
-125.52
-133.76
-139.39
-141.45
-139.5
-134.27
-127.34
-120.0
-112.34
-103.37
-92.5
-81.48
-75.0
-79.05
-97.8
-130.7
-171.86
-212.13
-242.47
-256.8
-252.48
-229.28
-187.98
-130.33
-60.58
12.79
77.24
119.29
129.62
107.55
62.48
10.85
-30.21
-49.55
-45.89
-27.24
-6.37
5.1
1.48
-15.32
-37.53
-55.1
-59.2
-44.21
-8.27
47.06
117.03
193.85
267.11
325.33
358.45
360.31
330.28
273.51
199.53
120.27
47.92
-7.39
-39.24
-45.83
-29.85
2.93
45.84
93.22
141.49
188.76
233.65
274.07
307.13
329.57
338.7
333.18
313.19
280.24
237.13
187.45
135.04
83.07
33.33
-14.31
-61.53
-110.51
-162.25
-215.23
-265.11
-305.89
-332.0
-340.77
-333.48
-314.92
-291.3
-267.69
-246.41
-227.13
-208.37
-189.19
-170.15
-152.92
-139.0
-128.75
-121.07
-114.14
-106.43
-97.47
-87.85
-78.85
-71.53
-66.14
-62.02
-57.91
-52.61
-45.58
-37.17
-28.48
-20.87
-15.25
-11.84
-10.16
-9.36
-8.72
-7.97
-7.31
-7.24
-8.15
-10.12
-12.77
-15.52
-17.8
-19.38
-20.51
-21.8
-24.05
-27.87
-33.36
-39.89
-46.16
-50.45
-51.11
-47.03
-38.03
-24.87
-9.11
7.38
22.8
35.86
45.83
52.53
56.16
57.06
55.7
52.63
48.55
44.25
40.52
37.93
36.61
36.29
36.35
36.14
35.25
33.63
31.51
29.22
26.96
24.65
21.97
18.52
13.98
8.33
1.79
-5.17
-12.04
-18.36
-23.97
-28.91
-33.47
-38.08
-43.17
-48.93
-55.14
-60.98
-65.07
-65.87
-62.05
-53.08
-39.52
-22.94
-5.47
10.75
24.19
34.17
40.81
44.74
46.67
47.18
46.62
45.2
43.21
41.01
39.02
37.57
36.75
36.38
36.14
35.72
34.95
33.85
32.5
30.97
29.26
27.28
24.95
22.2
18.96
15.15
10.69
5.52
-0.28
-6.45
-12.58
-18.25
-23.16
-27.29
-30.84
-34.2
-37.89
-42.4
-48.11
-54.94
-62.21
-68.51
-71.96
-70.71
-63.56
-50.61
-33.21
-13.71
5.34
21.89
34.74
43.69
49.17
51.97
52.87
52.56
51.55
50.24
48.91
47.76
46.89
46.29
45.91
45.57
45.13
44.46
43.56
42.56
41.63
40.91
40.35
39.76
38.86
37.43
35.35
32.69
29.6
26.24
22.75
19.22
15.71
12.33
9.14
6.18
3.35
0.52
-2.41
-5.47
-8.57
-11.65
-14.79
-18.32
-22.74
-28.6
-36.23
-45.61
-56.32
-67.53
-78.05
-86.42
-90.99
-90.3
-83.5
-70.82
-53.74
-34.68
-16.38
-1.02
10.31
17.72
22.1
24.6
26.09
27.02
27.46
27.38
26.75
25.6
24.05
22.16
19.94
17.35
14.42
11.23
8.0
5.06
2.7
1.16
0.5
0.59
1.19
2.12
3.28
4.68
6.31
8.06
9.66
10.75
11.03
10.41
9.03
7.22
5.33
3.56
1.88
0.1
-2.12
-5.04
-8.77
-13.19
-17.94
-22.61
-26.8
-30.3
-33.1
-35.44
-37.75
-40.53
-44.14
-48.66
-53.56
-57.69
-59.5
-57.42
-50.45
-38.66
-23.28
-6.39
9.7
23.14
33.05
39.44
42.94
44.31
44.2
42.98
40.94
38.44
35.98
34.12
33.19
33.17
33.71
34.31
34.54
34.25
33.59
32.86
32.36
32.15
32.07
31.78
30.95
29.45
27.37
24.99
22.62
20.48
18.55
16.64
14.49
11.87
8.81
5.51
2.35
-0.35
-2.37
-3.82
-5.0
-6.38
-8.42
-11.3
-14.89
-18.74
-22.34
-25.27
-27.42
-29.01
-30.5
-32.44
-35.27
-39.18
-43.98
-48.99
-53.04
-54.69
-52.56
-45.8
-34.54
-19.88
-3.75
11.73
24.74
34.28
40.16
42.86
43.14
41.81
39.54
36.82
34.03
31.46
29.35
27.78
26.74
26.08
25.62
25.24
24.88
24.6
24.42
24.33
24.2
23.85
23.13
21.94
20.32
18.37
16.26
14.1
11.95
9.8
7.6
5.31
2.91
0.47
-1.89
-4.11
-6.18
-8.23
-10.41
-12.85
-15.56
-18.4
-21.11
-23.47
-25.39
-26.98
-28.59
-30.66
-33.6
-37.61
-42.46
-47.48
-51.51
-53.2
-51.34
-45.28
-35.24
-22.3
-8.06
5.69
17.56
26.69
32.83
36.16
37.1
36.11
33.73
30.49
26.89
23.38
20.34
18.0
16.5
15.81
15.78
16.18
16.76
17.35
17.89
18.35
18.68
18.75
18.29
17.02
14.83
11.81
8.36
5.0
2.14
-0.07
-1.82
-3.58
-5.8
-8.72
-12.27
-16.06
-19.59
-22.44
-24.49
-25.9
-27.05
-28.43
-30.46
-33.46
-37.5
-42.24
-46.89
-50.16
-50.62
-47.12
-39.24
-27.53
-13.47
1.02
14.1
24.52
31.76
35.97
37.66
37.47
36.02
33.8
31.25
28.68
26.38
24.5
23.12
22.27
21.86
21.8
21.94
22.18
22.47
22.81
23.22
23.62
23.84
23.61
22.69
20.94
18.37
15.17
11.6
7.97
4.54
1.51
-1.06
-3.23
-5.22
-7.3
-9.7
-12.51
-15.61
-18.76
-21.69
-24.26
-26.52
-28.67
-30.99
-33.78
-37.28
-41.55
-46.37
-51.11
-54.73
-55.88
-53.3
-46.26
-34.92
-20.43
-4.6
10.52
23.25
32.64
38.48
41.2
41.57
40.39
38.4
36.14
34.03
32.29
30.96
29.93
29.02
28.04
26.92
25.74
24.77
24.27
24.43
25.18
26.2
27.03
27.17
26.3
24.36
21.57
18.26
14.83
11.56
8.58
5.89
3.4
1.0
-1.33
-3.6
-5.83
-8.07
-10.47
-13.2
-16.32
-19.76
-23.29
-26.58
-29.37
-31.61
-33.49
-35.42
-37.9
-41.31
-45.69
-50.57
-54.95
-57.44
-56.66
-51.62
-42.13
-28.96
-13.73
1.61
15.19
25.79
32.93
36.84
38.19
37.8
36.36
34.37
32.17
29.94
27.9
26.2
24.99
24.32
24.15
24.33
24.71
25.16
25.58
25.97
26.29
26.46
26.35
25.71
24.36
22.24
19.44
16.21
12.87
9.7
6.85
4.34
2.1
-0.01
-2.05
-4.11
-6.31
-8.76
-11.57
-14.79
-18.32
-21.97
-25.48
-28.61
-31.26
-33.44
-35.28
-37.1
-39.27
-42.16
-45.93
-50.24
-54.2
-56.41
-55.37
-50.02
-40.25
-26.99
-11.95
2.86
15.76
25.74
32.55
36.48
38.08
37.95
36.6
34.51
32.05
29.54
27.2
25.13
23.34
21.85
20.68
19.94
19.74
20.09
20.94
22.11
23.31
24.21
24.47
23.83
22.12
19.36
15.76
11.7
7.66
4.06
1.12
-1.22
-3.23
-5.31
-7.75
-10.65
-13.82
-16.93
-19.65
-21.77
-23.32
-24.53
-25.86
-27.84
-30.89
-35.11
-40.07
-44.78
-47.84
-47.78
-43.59
-35.13
-23.24
-9.58
3.9
15.51
24.18
29.63
32.16
32.43
31.09
28.68
25.54
21.92
18.03
14.22
10.87
8.42
7.15
7.08
7.95
9.3
10.6
11.43
11.6
11.14
10.19
8.95
7.51
5.88
3.98
1.74
-0.9
-3.89
-7.07
-10.27
-13.28
-16.0
-18.42
-20.6
-22.7
-24.9
-27.45
-30.64
-34.63
-39.3
-44.07
-47.82
-49.16
-46.83
-40.18
-29.55
-16.19
-1.93
11.38
22.26
29.96
34.34
35.83
35.11
32.97
30.16
27.31
24.82
22.87
21.46
20.43
19.61
18.87
18.18
17.58
17.21
17.15
17.45
17.99
18.55
18.73
18.17
16.57
13.85
10.22
6.08
1.92
-1.86
-5.1
-7.93
-10.61
-13.48
-16.7
-20.23
-23.79
-26.99
-29.57
-31.44
-32.85
-34.28
-36.3
-39.37
-43.57
-48.41
-52.81
-55.28
-54.29
-48.86
-38.88
-25.33
-10.01
4.99
17.83
27.48
33.76
37.2
38.63
38.87
38.5
37.8
36.91
35.89
34.87
33.92
33.1
32.33
31.52
30.55
29.41
28.25
27.28
26.71
26.58
26.71
26.74
26.28
25.01
22.87
20.07
17.01
14.15
11.84
10.18
9.01
7.92
6.49
4.45
1.83
-1.06
-3.83
-6.12
-7.84
-9.21
-10.61
-12.46
-14.99
-18.14
-21.63
-25.07
-28.13
-30.67
-32.75
-34.6
-36.6
-39.12
-42.43
-46.54
-51.07
-55.12
-57.37
-56.43
-51.23
-41.52
-28.03
-12.35
3.52
17.71
28.96
36.79
41.44
43.56
43.95
43.31
42.19
40.9
39.64
38.51
37.54
36.72
35.95
35.07
33.95
32.62
31.26
30.24
29.89
30.31
31.23
32.04
32.01
30.62
27.77
23.84
19.54
15.6
12.56
10.57
9.44
8.77
8.11
7.09
5.52
3.36
0.75
-2.14
-5.04
-7.74
-10.06
-11.96
-13.55
-15.09
-16.9
-19.25
-22.21
-25.59
-28.95
-31.77
-33.68
-34.63
-35.01
-35.51
-36.97
-39.99
-44.6
-50.07
-54.94
-57.39
-55.78
-49.3
-38.25
-24.05
-8.75
5.58
17.38
25.97
31.39
34.19
35.07
34.67
33.47
31.79
29.8
27.62
25.31
22.97
20.73
18.77
17.28
16.39
16.08
16.2
16.5
16.69
16.54
15.9
14.77
13.22
11.41
9.52
7.73
6.17
4.92
3.96
3.24
2.58
1.73
0.38
-1.71
-4.7
-8.51
-12.83
-17.18
-21.07
-24.16
-26.41
-28.0
-29.27
-30.65
-32.41
-34.77
-37.76
-41.26
-44.92
-48.03
-49.57
-48.41
-43.66
-35.05
-23.22
-9.67
3.71
15.13
23.49
28.51
30.66
30.77
29.68
27.94
25.85
23.51
21.0
18.47
16.16
14.28
13.02
12.46
12.53
13.1
13.89
14.64
15.13
15.18
14.71
13.65
11.98
9.68
6.82
3.57
0.15
-3.2
-6.37
-9.41
-12.49
-15.77
-19.28
-22.84
-26.14
-28.84
-30.81
-32.21
-33.55
-35.46
-38.45
-42.58
-47.21
-51.06
-52.56
-50.34
-43.76
-33.21
-20.0
-5.96
7.05
17.72
25.43
30.24
32.7
33.5
33.22
32.3
30.98
29.45
27.84
26.37
25.19
24.41
23.98
23.67
23.28
22.68
21.9
21.11
20.44
19.83
18.96
17.37
14.68
10.86
6.26
1.57
-2.45
-5.23
-6.63
-6.9
-6.63
-6.42
-6.73
-7.77
-9.43
-11.42
-13.42
-15.23
-16.86
-18.54
-20.71
-23.83
-28.3
-34.23
-41.26
-48.44
-54.29
-57.15
-55.59
-48.99
-37.79
-23.47
-8.13
6.11
17.8
26.32
31.92
35.36
37.44
38.81
39.74
40.32
40.46
40.16
39.48
38.48
37.24
35.69
33.69
31.14
28.05
24.63
21.2
18.11
15.53
13.45
11.62
9.75
7.61
5.14
2.4
-0.47
-3.35
-6.2
-8.99
-11.75
-14.43
-16.92
-19.09
-20.89
-22.36
-23.67
-25.04
-26.57
-28.25
-29.89
-31.25
-32.22
-32.88
-33.57
-34.81
-37.08
-40.54
-44.83
-48.94
-51.38
-50.56
-45.31
-35.36
-21.52
-5.5
10.6
24.84
35.97
43.58
47.91
49.64
49.5
48.13
46.01
43.43
40.58
37.54
34.42
31.37
28.6
26.32
24.74
23.99
24.09
24.97
26.43
28.12
29.61
30.44
30.22
28.75
26.11
22.58
18.59
14.52
10.57
6.74
2.84
-1.33
-5.92
-10.96
-16.29
-21.59
-26.46
-30.51
-33.5
-35.34
-36.11
-36.05
-35.45
-34.58
-33.69
-33.06
-33.05
-34.04
-36.37
-40.21
-45.29
-50.88
-55.74
-58.37
-57.38
-51.91
-42.0
-28.64
-13.58
1.25
14.15
24.19
31.21
35.7
38.39
39.88
40.49
40.29
39.26
37.47
35.23
32.94
31.0
29.65
28.87
28.41
28.0
27.43
26.65
25.78
24.92
24.09
23.14
21.82
19.89
17.33
14.38
11.5
9.21
7.85
7.37
7.4
7.31
6.49
4.62
1.68
-1.99
-5.92
-9.7
-13.12
-16.18
-19.15
-22.36
-26.21
-30.99
-36.79
-43.32
-49.75
-54.77
-56.83
-54.65
-47.74
-36.67
-22.96
-8.67
4.22
14.33
21.12
24.75
25.79
24.86
22.46
18.95
14.69
10.06
5.52
1.55
-1.45
-3.27
-3.9
-3.54
-2.5
-1.13
0.26
1.47
2.41
3.06
3.41
3.4
2.97
2.0
0.44
-1.68
-4.24
-7.03
-9.8
-12.33
-14.41
-15.96
-16.96
-17.56
-18.0
-18.65
-19.94
-22.24
-25.67
-29.85
-33.88
-36.42
-36.06
-31.81
-23.53
-12.08
0.91
13.59
24.41
32.52
37.74
40.36
40.84
39.61
37.04
33.6
29.87
26.54
24.19
23.13
23.29
24.37
25.88
27.35
28.45
28.91
28.51
27.09
24.51
20.78
16.04
10.6
4.89
-0.61
-5.55
-9.67
-12.93
-15.41
-17.3
-18.81
-20.09
-21.27
-22.33
-23.22
-23.91
-24.45
-25.16
-26.59
-29.32
-33.65
-39.25
-44.92
-48.9
-49.37
-45.12
-36.12
-23.55
-9.42
4.06
15.17
23.01
27.56
29.29
28.89
26.92
23.79
19.75
15.12
10.31
5.8
2.01
-0.79
-2.62
-3.65
-4.13
-4.18
-3.76
-2.68
-0.83
1.74
4.72
7.57
9.75
10.84
10.77
9.76
8.29
6.83
5.68
4.87
4.19
3.31
1.97
0.16
-1.93
-3.98
-5.67
-6.94
-8.01
-9.38
-11.67
-15.42
-20.8
-27.45
-34.41
-40.26
-43.39
-42.56
-37.23
-27.95
-16.11
-3.61
7.8
16.98
23.6
27.98
30.68
32.27
33.06
33.22
32.86
32.18
31.5
31.11
31.22
31.81
32.67
33.4
33.54
32.7
30.68
27.56
23.66
19.43
15.3
11.62
8.54
6.14
4.35
3.14
2.47
2.31
2.65
3.38
4.3
5.06
5.24
4.49
2.6
-0.27
-3.68
-7.07
-10.01
-12.29
-14.09
-15.83
-18.04
-21.26
-25.97
-32.4
-40.41
-49.25
-57.58
-63.6
-65.61
-62.57
-54.58
-42.85
-29.36
-16.13
-4.68
4.26
10.72
15.06
17.72
18.96
18.95
17.86
16.0
13.85
11.91
10.65
10.19
10.4
10.95
11.48
11.85
12.18
12.69
13.55
14.61
15.47
15.64
14.86
13.33
11.61
10.36
9.92
10.14
10.38
9.81
7.82
4.26
-0.53
-5.91
-11.19
-15.86
-19.75
-22.94
-25.72
-28.48
-31.59
-35.31
-39.53
-43.66
-46.57
-46.79
-42.99
-34.55
-21.95
-6.74
8.83
22.52
32.77
38.98
41.45
40.98
38.49
34.76
30.38
25.88
21.83
18.77
17.08
16.81
17.61
18.88
19.97
20.49
20.43
20.14
20.08
20.49
21.23
21.75
21.36
19.53
16.21
11.84
7.17
2.96
-0.37
-2.93
-5.29
-8.2
-12.27
-17.62
-23.89
-30.29
-35.97
-40.42
-43.6
-46.01
-48.41
-51.61
-56.09
-61.88
-68.4
-74.5
-78.67
-79.31
-75.21
-66.01
-52.43
-36.2
-19.58
-4.72
6.94
14.91
19.59
21.89
22.8
23.1
23.32
23.69
24.35
25.42
26.96
28.99
31.4
34.03
36.66
39.08
41.15
42.8
44.04
44.91
45.49
45.85
46.08
46.22
46.21
45.9
45.01
43.23
40.29
36.11
30.78
24.66
18.23
11.98
6.26
1.2
-3.31
-7.54
-11.72
-15.95
-20.16
-24.12
-27.57
-30.32
-32.32
-33.72
-34.91
-36.43
-38.93
-42.84
-48.04
-53.7
-58.22
-59.75
-56.82
-48.95
-36.91
-22.53
-8.07
4.58
14.34
21.09
25.38
28.0
29.62
30.66
31.25
31.46
31.34
30.95
30.32
29.43
28.19
26.51
24.36
21.86
19.24
16.75
14.64
13.01
11.81
10.9
10.06
9.08
7.74
5.93
3.65
1.0
-1.8
-4.5
-6.83
-8.6
-9.67
-10.06
-9.89
-9.48
-9.15
-9.23
-9.95
-11.33
-13.22
-15.43
-17.83
-20.42
-23.38
-26.95
-31.39
-36.83
-43.16
-49.85
-55.83
-59.56
-59.39
-54.03
-43.15
-27.63
-9.42
9.02
25.36
38.06
46.5
50.89
52.01
50.8
48.18
44.97
41.83
39.25
37.52
36.7
36.6
36.89
37.15
37.09
36.59
35.77
34.96
34.53
34.74
35.56
36.74
37.81
38.33
38.01
36.82
34.94
32.69
30.3
27.82
25.14
22.03
18.31
13.99
9.25
4.42
-0.2
-4.51
-8.57
-12.55
-16.6
-20.74
-24.82
-28.62
-31.96
-34.8
-37.35
-39.96
-43.13
-47.32
-52.84
-59.51
-66.54
-72.53
-75.67
-74.28
-67.34
-54.93
-38.27
-19.41
-0.59
16.33
30.13
40.37
47.13
50.89
52.26
52.04
51.11
50.32
50.25
51.03
52.28
53.26
53.32
52.21
50.3
48.47
47.67
48.4
50.38
52.6
53.71
52.58
48.8
42.77
35.52
28.35
22.46
18.56
16.57
15.32
12.5
4.98
-10.18
-34.47
-66.83
-103.48
-138.76
-166.94
-184.18
-189.7
-185.66
-175.94
-164.41
-153.7
-144.82
-137.49
-130.73
-123.43
-114.45
-102.75
-87.48
-68.32
-45.89
-21.9
1.15
20.66
34.79
43.07
46.54
47.21
47.27
48.25
50.56
53.51
55.85
56.54
55.4
53.27
51.61
51.76
54.32
58.83
64.05
68.41
70.77
70.65
68.38
64.8
60.99
58.04
56.76
57.61
60.5
64.79
69.49
73.66
76.68
78.36
78.75
77.75
74.92
69.43
60.4
47.34
30.59
11.49
-7.86
-25.09
-38.53
-48.01
-55.14
-62.88
-74.24
-90.94
-112.42
-136.1
-158.33
-175.97
-187.34
-192.16
-190.68
-182.74
-167.71
-144.99
-115.09
-80.0
-42.96
-7.51
23.51
48.51
67.27
80.57
89.76
96.22
100.95
104.25
105.88
105.43
102.8
98.68
94.33
90.97
89.17
88.45
87.64
85.65
82.2
77.84
73.54
69.96
67.09
64.32
60.9
56.34
50.62
44.03
36.87
29.25
21.05
12.09
2.21
-8.54
-19.89
-31.48
-43.1
-54.71
-66.42
-78.21
-89.69
-100.02
-108.13
-113.02
-114.27
-112.25
-108.15
-103.49
-99.49
-96.51
-93.88
-90.15
-83.81
-73.88
-60.33
-43.99
-26.09
-7.91
9.49
25.21
38.35
48.09
53.9
55.86
54.86
52.35
49.85
48.44
48.51
49.9
52.14
54.79
57.46
59.91
61.98
63.71
65.36
67.37
70.05
73.23
76.18
77.65
76.43
71.86
64.33
55.14
46.04
38.45
33.01
29.47
26.95
24.36
20.74
15.47
8.4
-0.18
-9.49
-18.39
-25.81
-31.19
-34.79
-37.56
-40.59
-44.3
-48.09
-50.43
-49.58
-44.4
-34.79
-21.64
-6.5
8.94
23.03
34.41
42.15
45.81
45.57
42.15
36.51
29.56
21.94
14.13
6.49
-0.53
-6.68
-11.9
-16.48
-20.85
-25.2
-29.37
-32.85
-35.12
-35.94
-35.59
-34.7
-34.02
-34.17
-35.37
-37.48
-40.04
-42.46
-44.18
-45.01
-45.13
-45.05
-45.4
-46.66
-48.88
-51.67
-54.33
-56.09
-56.43
-55.22
-52.72
-49.68
-47.06
-45.78
-46.3
-48.21
-50.16
-50.19
-46.31
-37.29
-23.16
-5.22
14.36
33.19
49.28
61.4
69.0
72.18
71.31
67.0
60.04
51.41
42.2
33.57
26.63
22.2
20.76
22.35
26.58
32.82
40.27
48.09
55.57
62.02
66.8
69.3
69.04
65.72
59.44
50.69
40.29
29.14
17.91
6.84
-4.12
-15.16
-26.28
-37.12
-47.13
-55.68
-62.41
-67.36
-70.91
-73.7
-76.4
-79.58
-83.43
-87.61
-91.03
-92.0
-88.69
-79.72
-64.9
-45.32
-23.18
-1.01
18.95
35.26
47.32
55.15
59.15
59.75
57.5
52.99
46.92
40.04
33.12
26.91
22.02
18.93
17.84
18.65
21.04
24.48
28.39
32.14
35.06
36.44
35.71
32.62
27.41
20.72
13.37
6.01
-1.14
-8.23
-15.61
-23.45
-31.58
-39.58
-46.95
-53.41
-58.99
-64.04
-69.09
-74.59
-80.55
-86.3
-90.39
-90.86
-85.82
-74.13
-56.05
-33.2
-8.15
16.3
37.84
55.01
67.22
74.47
77.11
75.64
70.77
63.35
54.37
44.82
35.52
27.03
19.62
13.29
7.93
3.45
-0.11
-2.59
-3.77
-3.67
-2.62
-1.29
-0.46
-0.78
-2.43
-5.1
-8.16
-10.94
-13.16
-14.97
-16.89
-19.5
-23.14
-27.72
-32.79
-37.77
-42.18
-45.91
-49.15
-52.35
-56.09
-60.86
-66.93
-74.18
-81.88
-88.64
-92.58
-91.75
-84.78
-71.45
-52.82
-31.07
-8.87
11.43
28.32
41.4
51.08
58.12
63.18
66.65
68.71
69.59
69.66
69.39
69.17
69.06
68.82
68.08
66.58
64.44
62.06
59.98
58.48
57.5
56.61
55.14
52.44
48.11
42.05
34.53
26.17
17.65
9.64
2.53
-3.66
-9.17
-14.48
-19.99
-25.91
-32.16
-38.49
-44.51
-49.95
-54.7
-58.9
-62.87
-67.09
-72.11
-78.46
-86.34
-95.33
-104.16
-110.75
-112.63
-107.78
-95.37
-76.23
-52.69
-27.84
-4.59
15.08
30.43
41.67
49.45
54.45
57.12
57.87
57.18
55.76
54.42
53.89
54.56
56.37
58.95
61.76
64.4
66.63
68.42
69.77
70.64
70.91
70.44
69.14
66.95
63.83
59.74
54.69
48.78
42.2
35.29
28.33
21.49
14.72
7.76
0.34
-7.67
-16.09
-24.49
-32.36
-39.31
-45.19
-50.19
-54.73
-59.33
-64.5
-70.64
-77.96
-86.34
-95.13
-103.03
-108.18
-108.48
-102.29
-89.02
-69.54
-46.06
-21.54
1.17
20.12
34.57
44.85
51.74
55.92
57.73
57.2
54.47
50.05
44.88
40.06
36.4
34.17
33.0
32.24
31.25
29.76
27.78
25.51
23.08
20.47
17.53
14.16
10.36
6.3
2.26
-1.49
-4.82
-7.75
-10.44
-13.15
-16.09
-19.34
-22.75
-26.03
-28.85
-30.97
-32.42
-33.45
-34.46
-35.88
-38.14
-41.62
-46.62
-53.13
-60.62
-67.76
-72.6
-73.0
-67.38
-55.25
-37.53
-16.26
5.98
26.76
44.42
58.27
68.55
76.11
82.05
87.22
92.02
96.29
99.53
101.19
100.97
98.88
95.2
90.44
85.2
80.07
75.27
70.33
63.95
54.42
40.55
22.57
2.49
-16.47
-31.32
-40.58
-44.7
-45.57
-45.44
-46.29
-49.73
-57.19
-69.61
-86.77
-106.57
-125.19
-138.46
-143.81
-141.83
-136.12
-131.51
-131.67
-137.52
-147.49
-159.2
-171.39
-184.42
-199.34
-216.02
-231.91
-242.29
-241.86
-226.82
-196.2
-152.12
-98.68
-40.83
16.49
68.66
111.64
142.38
159.48
163.57
156.82
142.39
124.0
105.98
93.24
90.89
102.96
130.84
172.31
221.92
272.82
318.9
356.29
383.47
400.3
407.11
404.23
392.25
372.35
346.22
315.56
281.7
245.52
207.73
169.18
130.81
93.31
57.01
21.94
-11.95
-44.38
-74.69
-102.11
-126.2
-147.12
-165.47
-181.89
-196.66
-209.65
-220.44
-228.61
-233.83
-235.76
-233.77
-226.95
-214.33
-195.44
-170.8
-142.0
-111.47
-81.76
-54.96
-32.28
-14.14
-0.4
9.31
15.37
18.24
18.52
17.01
14.61
12.24
10.63
10.19
11.02
12.88
15.39
18.15
20.84
23.25
25.21
26.5
26.86
26.06
24.02
20.88
17.1
13.19
9.54
6.18
2.78
-1.28
-6.57
-13.31
-21.3
-29.88
-38.2
-45.48
-51.22
-55.31
-58.1
-60.17
-62.22
-64.74
-67.74
-70.59
-72.02
-70.45
-64.44
-53.33
-37.49
-18.4
1.82
20.99
37.39
50.05
58.74
63.67
65.28
64.04
60.49
55.31
49.34
43.4
38.17
34.05
31.05
28.93
27.34
25.98
24.69
23.45
22.27
21.15
19.98
18.56
16.64
14.07
10.86
7.2
3.43
-0.12
-3.3
-6.25
-9.32
-12.93
-17.34
-22.5
-28.07
-33.57
-38.61
-43.08
-47.2
-51.46
-56.48
-62.76
-70.42
-78.96
-87.11
-92.93
-94.25
-89.28
-77.33
-59.16
-36.84
-13.28
8.73
27.13
41.0
50.45
56.25
59.34
60.48
60.2
58.86
56.74
54.13
51.32
48.59
46.1
43.82
41.66
39.51
37.35
35.27
33.41
31.88
30.65
29.56
28.28
26.52
24.11
21.02
17.42
13.53
9.66
6.05
2.89
0.26
-1.95
-4.04
-6.41
-9.5
-13.58
-18.62
-24.32
-30.16
-35.64
-40.44
-44.56
-48.25
-51.96
-56.21
-61.43
-67.83
-75.15
-82.4
-87.89
-89.53
-85.45
-74.68
-57.7
-36.42
-13.66
7.64
25.27
38.11
46.2
50.22
51.12
49.66
46.44
41.92
36.6
31.04
25.82
21.41
18.01
15.55
13.75
12.32
11.04
9.82
8.65
7.53
6.45
5.37
4.29
3.2
2.13
1.09
0.07
-0.93
-1.89
-2.78
-3.5
-4.03
-4.41
-4.8
-5.45
-6.58
-8.32
-10.66
-13.42
-16.32
-19.09
-21.54
-23.59
-25.38
-27.12
-29.18
-31.95
-35.76
-40.72
-46.41
-51.76
-55.1
-54.62
-49.0
-37.94
-22.44
-4.55
13.3
28.99
41.24
49.71
54.76
57.01
57.1
55.52
52.73
49.18
45.43
42.02
39.37
37.66
36.83
36.58
36.58
36.55
36.37
36.1
35.86
35.76
35.68
35.35
34.35
32.31
29.12
25.0
20.42
15.93
11.83
8.11
4.43
0.39
-4.24
-9.33
-14.42
-18.94
-22.42
-24.69
-25.91
-26.48
-26.95
-27.85
-29.62
-32.49
-36.34
-40.51
-43.85
-44.86
-42.15
-34.94
-23.45
-8.97
6.49
20.79
32.31
40.23
44.58
45.92
44.95
42.31
38.52
33.98
29.16
24.54
20.56
17.51
15.43
14.14
13.37
12.81
12.32
11.87
11.45
10.98
10.25
8.91
6.65
3.38
-0.71
-5.15
-9.38
-12.96
-15.71
-17.78
-19.55
-21.42
-23.64
-26.25
-29.01
-31.61
-33.72
-35.19
-36.15
-36.99
-38.33
-40.86
-45.04
-50.74
-57.05
-62.34
-64.59
-62.04
-53.82
-40.34
-23.19
-4.7
12.78
27.47
38.45
45.69
49.73
51.36
51.36
50.35
48.77
46.9
44.95
43.04
41.23
39.5
37.7
35.7
33.45
31.05
28.81
27.04
25.94
25.47
25.21
24.52
22.8
19.69
15.24
9.96
4.64
0.05
-3.32
-5.42
-6.68
-7.76
-9.29
-11.66
-14.85
-18.56
-22.4
-26.03
-29.33
-32.44
-35.6
-39.18
-43.55
-48.87
-54.97
-61.08
-65.86
-67.63
-64.81
-56.57
-43.2
-26.12
-7.51
10.29
25.41
36.79
44.13
47.81
48.47
46.88
43.81
39.94
35.89
32.13
28.98
26.62
25.01
24.0
23.32
22.72
22.03
21.22
20.38
19.64
19.03
18.39
17.4
15.7
13.01
9.36
5.12
0.87
-2.77
-5.42
-7.1
-8.23
-9.43
-11.31
-14.17
-17.91
-22.09
-26.15
-29.63
-32.32
-34.34
-36.0
-37.76
-40.1
-43.42
-47.87
-53.19
-58.52
-62.43
-63.16
-59.21
-49.85
-35.54
-17.93
0.68
18.0
32.34
42.92
49.78
53.46
54.61
53.82
51.55
48.24
44.36
40.45
36.93
34.12
32.09
30.71
29.71
28.81
27.78
26.54
25.11
23.56
21.9
20.08
17.96
15.4
12.31
8.77
4.97
1.23
-2.16
-5.05
-7.47
-9.6
-11.74
-14.19
-17.15
-20.65
-24.6
-28.81
-33.09
-37.34
-41.53
-45.73
-49.99
-54.32
-58.71
-63.12
-67.51
-71.66
-75.02
-76.65
-75.34
-70.05
-60.33
-46.64
-30.37
-13.34
2.68
16.5
27.63
36.09
42.14
45.92
47.54
47.06
44.77
41.19
37.05
33.02
29.6
26.92
24.83
23.06
21.39
19.75
18.22
16.9
15.81
14.81
13.66
12.2
10.42
8.49
6.65
5.04
3.57
2.03
0.15
-2.22
-5.04
-8.1
-11.18
-14.09
-16.77
-19.25
-21.63
-24.08
-26.86
-30.22
-34.21
-38.47
-42.01
-43.39
-41.12
-34.26
-22.88
-8.19
7.76
22.73
34.92
43.38
48.02
49.38
48.22
45.28
41.11
36.14
30.73
25.34
20.5
16.73
14.38
13.53
13.93
15.07
16.32
17.16
17.27
16.54
15.03
12.82
10.01
6.65
2.75
-1.65
-6.5
-11.64
-16.78
-21.57
-25.65
-28.76
-30.82
-31.98
-32.56
-32.96
-33.65
-35.06
-37.58
-41.39
-46.23
-51.29
-55.13
-56.05
-52.61
-44.19
-31.29
-15.57
0.75
15.43
26.82
34.15
37.49
37.46
34.97
30.99
26.36
21.8
17.86
14.85
12.91
11.94
11.68
11.78
11.94
11.98
11.95
12.07
12.58
13.63
15.06
16.43
17.17
16.8
15.18
12.59
9.57
6.73
4.5
2.87
1.55
0.06
-2.01
-4.82
-8.19
-11.75
-15.09
-17.94
-20.26
-22.21
-24.09
-26.27
-29.12
-32.9
-37.57
-42.61
-46.81
-48.53
-46.09
-38.38
-25.45
-8.6
9.95
27.76
42.8
53.95
60.91
64.05
64.02
61.51
57.32
52.26
47.13
42.64
39.18
36.8
35.23
34.05
32.84
31.4
29.69
27.79
25.85
23.94
22.09
20.23
18.29
16.15
13.75
11.05
8.04
4.73
1.19
-2.51
-6.28
-9.98
-13.48
-16.58
-19.22
-21.41
-23.31
-25.13
-27.05
-29.14
-31.26
-33.24
-34.9
-36.15
-37.07
-37.87
-38.92
-40.6
-43.29
-47.09
-51.66
-56.03
-58.75
-58.21
-53.23
-43.56
-30.02
-14.36
1.35
15.3
26.44
34.54
39.97
43.33
45.16
45.77
45.33
43.96
41.86
39.31
36.72
34.33
32.28
30.44
28.59
26.5
24.09
21.5
18.96
16.67
14.63
12.72
10.75
8.57
6.25
3.94
1.85
0.05
-1.49
-2.93
-4.42
-5.99
-7.59
-9.13
-10.53
-11.82
-13.14
-14.65
-16.47
-18.62
-20.99
-23.43
-25.73
-27.77
-29.5
-31.02
-32.61
-34.58
-37.24
-40.62
-44.29
-47.28
-48.27
-45.97
-39.67
-29.52
-16.62
-2.62
10.74
22.17
30.96
36.97
40.37
41.42
40.4
37.67
33.72
29.25
25.07
21.84
19.93
19.28
19.5
19.97
20.17
19.8
18.89
17.71
16.58
15.7
15.01
14.25
13.06
11.18
8.57
5.44
2.17
-0.86
-3.45
-5.61
-7.59
-9.69
-12.19
-15.15
-18.4
-21.59
-24.38
-26.53
-28.09
-29.38
-30.92
