-29.96
-33.12
-35.6
-37.7
-39.92
-42.76
-46.5
-50.96
-55.43
-58.71
-59.44
-56.47
-49.32
-38.3
-24.51
-9.47
5.22
18.27
28.82
36.47
41.21
43.25
42.98
40.94
37.75
34.07
30.49
27.38
24.92
23.08
21.75
20.8
20.17
19.86
19.87
20.12
20.4
20.43
19.86
18.48
16.26
13.38
10.11
6.72
3.33
-0.1
-3.75
-7.79
-12.28
-17.09
-21.96
-26.53
-30.51
-33.76
-36.36
-38.6
-40.95
-43.94
-47.93
-52.87
-58.13
-62.51
-64.46
-62.58
-56.08
-45.11
-30.73
-14.63
1.35
15.71
27.45
36.2
41.99
45.14
46.03
45.12
42.87
39.78
36.36
33.06
30.27
28.21
26.91
26.22
25.94
25.83
25.77
25.76
25.77
25.73
25.42
24.52
22.75
19.98
16.36
12.25
8.11
4.32
0.98
-2.06
-5.14
-8.6
-12.63
-17.18
-21.94
-26.51
-30.52
-33.8
-36.43
-38.8
-41.49
-45.05
-49.76
-55.35
-60.91
-64.98
-65.96
-62.6
-54.45
-42.02
-26.7
-10.31
5.4
19.11
30.14
38.33
43.8
46.8
47.57
46.42
43.75
40.17
36.29
32.74
29.94
28.07
27.07
26.74
26.79
27.0
27.18
27.19
27.0
26.59
25.92
24.91
23.42
21.31
18.54
15.22
11.59
7.97
4.63
1.63
-1.14
-3.97
-7.14
-10.83
-15.02
-19.53
-24.04
-28.24
-31.94
-35.02
-37.54
-39.71
-41.79
-44.16
-47.18
-51.11
-55.86
-60.84
-64.86
-66.42
-64.1
-57.07
-45.47
-30.41
-13.66
2.88
17.63
29.61
38.39
43.91
46.38
46.13
43.65
39.64
34.98
30.55
27.09
24.98
24.21
24.43
25.16
25.95
26.58
27.01
27.3
27.49
27.48
27.03
25.84
23.75
20.83
17.39
13.84
10.54
7.65
5.08
2.55
-0.25
-3.47
-7.06
-10.8
-14.36
-17.51
-20.11
-22.24
-24.12
-26.06
-28.41
-31.51
-35.51
-40.21
-44.9
-48.43
-49.42
-46.69
-39.65
-28.62
-14.69
0.47
15.15
27.89
37.69
44.07
46.99
46.75
43.99
39.52
34.25
29.0
24.36
20.63
17.91
16.14
15.19
14.95
15.27
15.92
16.64
17.08
16.96
16.09
14.44
12.14
9.43
6.55
3.62
0.66
-2.44
-5.84
-9.62
-13.76
-18.12
-22.46
-26.5
-30.0
-32.83
-35.07
-37.0
-39.11
-41.86
-45.53
-49.91
-54.22
-57.17
-57.31
-53.49
-45.3
-33.25
-18.65
-3.25
11.27
23.64
33.2
39.83
43.73
45.25
44.72
42.53
39.13
35.14
31.25
28.09
26.07
25.21
25.23
25.65
26.07
26.3
26.37
26.38
26.37
26.15
25.35
23.6
20.71
16.81
12.32
7.81
3.79
0.49
-2.17
-4.6
-7.3
-10.68
-14.85
-19.62
-24.53
-29.06
-32.83
-35.76
-38.04
-40.11
-42.51
-45.72
-50.03
-55.3
-60.89
-65.64
-68.02
-66.63
-60.55
-49.76
-35.22
-18.56
-1.65
13.87
26.91
36.98
44.03
48.31
50.2
50.11
48.55
46.04
43.15
40.4
38.17
36.67
35.81
35.36
34.99
34.51
33.93
33.4
33.12
33.08
33.07
32.67
31.52
29.5
26.76
23.67
20.59
17.7
14.92
12.04
8.82
5.2
1.3
-2.59
-6.19
-9.35
-12.1
-14.66
-17.33
-20.34
-23.79
-27.55
-31.36
-34.89
-37.89
-40.27
-42.18
-43.98
-46.18
-49.29
-53.64
-59.12
-65.02
-70.02
-72.45
-70.74
-63.95
-52.17
-36.54
-18.95
-1.44
14.28
27.19
36.94
43.67
47.71
49.45
49.27
47.62
45.05
42.15
39.47
37.36
35.94
35.1
34.59
34.18
33.76
33.34
33.06
32.99
33.07
33.09
32.71
31.65
29.73
27.03
23.79
20.4
17.23
14.49
12.18
10.03
7.73
4.99
1.79
-1.66
-4.98
-7.83
-10.07
-11.88
-13.63
-15.74
-18.42
-21.65
-25.12
-28.49
-31.44
-33.9
-35.99
-38.0
-40.26
-43.13
-46.89
-51.64
-57.18
-62.81
-67.36
-69.32
-67.31
-60.49
-49.01
-33.96
-17.13
-0.46
14.46
26.66
35.76
41.84
45.17
46.1
45.05
42.53
39.17
35.62
32.45
30.07
28.6
27.95
27.91
28.23
28.76
29.36
29.95
30.43
30.68
30.53
29.84
28.5
26.49
23.95
21.05
18.06
15.2
12.56
10.08
7.55
4.74
1.53
-1.96
-5.47
-8.61
-11.16
-13.13
-14.8
-16.63
-18.98
-22.0
-25.53
-29.18
-32.53
-35.25
-37.32
-38.94
-40.51
-42.53
-45.4
-49.35
-54.22
-59.3
-63.38
-64.93
-62.54
-55.44
-43.82
-28.86
-12.39
3.58
17.47
28.34
35.91
40.4
42.26
41.96
39.97
36.8
32.96
29.04
25.57
22.96
21.39
20.78
20.85
21.27
21.81
22.36
22.93
23.51
24.01
24.26
24.02
23.15
21.61
19.49
16.91
13.99
10.84
7.57
4.34
1.33
-1.37
-3.81
-6.17
-8.73
-11.68
-15.01
-18.53
-21.92
-24.9
-27.32
-29.23
-30.81
-32.3
-33.97
-36.12
-38.97
-42.52
-46.41
-49.78
-51.4
-49.97
-44.6
-35.22
-22.63
-8.33
5.99
18.83
29.22
36.74
41.36
43.26
42.73
40.2
36.23
31.55
26.9
22.92
19.97
18.13
17.2
16.84
16.77
16.8
16.91
17.09
17.31
17.38
17.05
16.01
14.15
11.51
8.37
5.03
1.72
-1.51
-4.84
-8.46
-12.46
-16.72
-20.93
-24.73
-27.88
-30.36
-32.39
-34.36
-36.66
-39.65
-43.5
-48.09
-52.89
-56.88
-58.71
-57.05
-51.06
-40.75
-27.09
-11.72
3.52
17.1
28.1
36.21
41.49
44.14
44.41
42.59
39.18
34.87
30.43
26.52
23.53
21.49
20.18
19.34
18.81
18.63
18.9
19.65
20.69
21.62
21.9
21.1
19.05
15.89
12.07
8.06
4.22
0.66
-2.73
-6.24
-10.12
-14.44
-19.09
-23.78
-28.17
-32.02
-35.24
-37.98
-40.54
-43.34
-46.82
-51.24
-56.46
-61.81
-66.08
-67.69
-65.26
-58.01
-46.2
-31.04
-14.36
1.94
16.38
28.1
36.88
42.84
46.25
47.46
46.86
44.95
42.31
39.49
36.97
35.0
33.62
32.7
32.0
31.35
30.66
30.02
29.57
29.4
29.43
29.31
28.55
26.72
23.65
19.56
14.96
10.47
6.49
3.05
-0.17
-3.64
-7.7
-12.35
-17.3
-22.09
-26.33
-29.86
-32.81
-35.46
-38.13
-41.11
-44.57
-48.58
-52.97
-57.24
-60.53
-61.66
-59.44
-53.0
-42.11
-27.35
-9.93
8.46
26.06
41.27
52.93
60.48
64.09
64.65
63.53
62.21
61.81
62.66
64.34
65.88
66.23
64.81
61.62
57.21
52.36
47.81
43.89
40.33
36.2
30.06
20.5
6.93
-9.64
-26.24
-38.27
-40.78
-30.23
-6.25
27.45
63.67
93.9
111.36
113.82
104.58
91.15
81.94
82.63
93.87
111.53
129.18
141.3
145.52
143.02
137.23
132.0
130.31
133.81
142.93
156.76
172.84
187.02
194.04
188.97
169.0
134.82
90.52
42.13
-4.64
-46.47
-83.54
-119.09
-157.79
-203.47
-257.02
-315.45
-372.42
-420.08
-451.41
-462.3
-452.46
-425.04
-385.32
-339.14
-291.68
-246.79
-206.77
-172.46
-143.25
-117.16
-91.27
-62.94
-31.08
3.02
36.19
65.22
89.4
112.27
141.17
184.24
246.19
324.9
410.95
490.5
550.36
582.56
586.49
567.52
533.6
491.69
445.88
397.65
347.48
296.37
246.35
199.69
157.77
120.33
85.68
51.76
17.28
-17.67
-51.77
-83.4
-111.54
-136.25
-158.35
-178.66
-197.24
-213.13
-224.76
-230.78
-230.76
-225.47
-216.57
-206.15
-196.06
-187.63
-181.58
-178.01
-176.51
-176.26
-176.24
-175.46
-173.28
-169.59
-164.7
-159.27
-154.02
-149.46
-145.89
-143.29
-141.32
-139.34
-136.45
-131.68
-124.2
-113.59
-100.0
-84.17
-67.26
-50.6
-35.43
-22.7
-13.03
-6.71
-3.73
-3.8
-6.29
-10.31
-14.76
-18.55
-20.84
-21.26
-20.05
-17.97
-15.93
-14.7
-14.57
-15.26
-16.2
-16.75
-16.67
-16.24
-16.16
-17.27
-20.15
-24.84
-30.82
-37.19
-42.96
-47.44
-50.38
-52.13
-53.54
-55.88
-60.47
-68.25
-79.23
-91.93
-103.48
-110.21
-108.92
-98.12
-78.83
-54.24
-28.58
-5.58
12.67
25.89
34.99
41.05
44.59
45.52
43.6
39.07
32.89
26.6
21.66
18.96
18.51
19.59
21.16
22.33
22.69
22.35
21.75
21.3
21.11
20.92
20.19
18.36
15.11
10.46
4.63
-2.04
-9.33
-17.13
-25.41
-34.12
-43.08
-52.07
-60.86
-69.45
-77.98
-86.55
-94.83
-101.71
-105.29
-103.34
-94.13
-77.23
-54.01
-27.3
-0.56
23.26
42.53
57.05
67.57
75.03
79.98
82.47
82.44
80.12
76.26
72.0
68.42
66.09
64.93
64.35
63.65
62.38
60.58
58.66
57.1
56.13
55.52
54.68
52.88
49.6
44.77
38.78
32.37
26.3
21.03
16.54
12.36
7.81
2.28
-4.46
-12.15
-20.13
-27.62
-33.99
-39.02
-42.95
-46.34
-49.97
-54.63
-60.97
-69.21
-78.82
-88.31
-95.24
-96.79
-90.64
-75.92
-53.69
-26.82
1.0
26.35
47.04
62.3
72.52
78.56
81.23
81.08
78.56
74.24
68.92
63.55
58.99
55.71
53.75
52.77
52.26
51.81
51.18
50.32
49.31
48.22
46.98
45.48
43.54
41.06
38.05
34.57
30.69
26.5
22.05
17.43
12.74
8.15
3.78
-0.29
-4.09
-7.81
-11.69
-15.96
-20.69
-25.78
-30.93
-35.79
-40.04
-43.64
-46.79
-49.97
-53.79
-58.86
-65.56
-73.68
-82.17
-89.0
-91.59
-87.47
-75.26
-55.36
-30.01
-2.67
23.07
44.55
60.54
71.14
77.16
79.54
78.99
76.02
71.18
65.26
59.16
53.82
49.84
47.4
46.23
45.8
45.53
45.05
44.22
43.09
41.83
40.55
39.27
37.9
36.29
34.29
31.73
28.54
24.76
20.55
16.18
11.96
8.08
4.53
1.12
-2.47
-6.51
-11.1
-16.12
-21.29
-26.29
-30.87
-34.92
-38.49
-41.77
-45.02
-48.68
-53.2
-58.99
-66.0
-73.47
-79.74
-82.59
-79.85
-70.26
-54.02
-32.93
-9.8
12.36
31.17
45.35
54.63
59.43
60.41
58.29
53.72
47.53
40.68
34.15
28.77
25.0
22.8
21.75
21.22
20.73
20.12
19.54
19.3
19.53
20.03
20.22
19.35
16.89
12.77
7.49
1.91
-3.08
-6.96
-9.76
-12.07
-14.75
-18.49
-23.54
-29.51
-35.65
-41.08
-45.24
-48.14
-50.29
-52.52
-55.69
-60.38
-66.68
-74.03
-81.11
-85.96
-86.41
-80.69
-68.21
-49.87
-27.96
-5.45
14.89
31.22
42.93
50.31
54.1
54.99
53.52
50.1
45.29
39.87
34.78
30.81
28.4
27.45
27.44
27.65
27.55
26.96
26.08
25.28
24.82
24.61
24.23
23.12
20.78
17.1
12.35
7.16
2.18
-2.12
-5.65
-8.76
-12.04
-16.09
-21.2
-27.26
-33.71
-39.84
-45.01
-48.92
-51.72
-53.94
-56.35
-59.78
-64.9
-71.93
-80.38
-88.83
-95.02
-96.39
-90.81
-77.49
-57.39
-33.03
-7.8
15.16
33.73
47.15
55.73
60.33
61.84
60.95
58.2
54.19
49.65
45.37
41.98
39.8
38.75
38.46
38.5
38.53
38.5
38.49
38.65
38.96
39.21
39.04
38.07
36.09
33.14
29.49
25.48
21.36
17.16
12.78
8.05
2.97
-2.27
-7.29
-11.78
-15.63
-19.08
-22.64
-26.77
-31.7
-37.26
-42.96
-48.21
-52.65
-56.23
-59.32
-62.5
-66.49
-71.91
-79.1
-87.73
-96.58
-103.43
-105.54
-100.45
-86.98
-65.87
-39.74
-12.28
12.94
33.48
48.49
58.39
64.22
66.97
67.32
65.68
62.51
58.48
54.47
51.23
49.15
48.14
47.77
47.51
47.06
46.46
46.05
46.2
47.0
48.24
49.31
49.53
48.38
45.72
41.85
37.35
32.82
28.62
24.74
20.87
16.6
11.72
6.34
0.84
-4.26
-8.6
-12.1
-15.05
-18.0
-21.55
-26.13
-31.83
-38.3
-44.93
-50.99
-55.99
-59.9
-63.14
-66.46
-70.76
-76.76
-84.8
-94.44
-104.2
-111.56
-113.47
-107.3
-91.88
-68.23
-39.43
-9.67
17.12
38.4
53.48
63.16
68.83
71.71
72.45
71.29
68.46
64.44
60.11
56.39
53.89
52.72
52.42
52.33
51.92
51.09
50.17
49.72
50.05
51.02
52.03
52.22
50.92
47.88
43.44
38.27
33.18
28.73
25.06
21.87
18.62
14.78
10.07
4.65
-0.98
-6.21
-10.56
-13.98
-16.81
-19.71
-23.32
-28.0
-33.67
-39.86
-45.92
-51.25
-55.6
-59.07
-62.12
-65.45
-69.84
-75.96
-84.05
-93.57
-102.91
-109.47
-110.2
-102.69
-86.1
-61.8
-33.09
-4.15
21.29
40.97
54.42
62.53
66.68
68.04
67.33
64.93
61.28
57.07
53.13
50.17
48.52
48.01
48.15
48.38
48.37
48.09
47.74
47.5
47.42
47.29
46.74
45.43
43.12
39.82
35.68
30.95
25.85
20.57
15.25
10.0
4.92
0.13
-4.33
-8.53
-12.69
-17.09
-21.95
-27.32
-32.99
-38.52
-43.47
-47.57
-50.89
-53.87
-57.22
-61.72
-67.95
-75.97
-84.98
-93.18
-98.0
-96.8
-87.8
-70.84
-47.77
-21.81
3.35
24.79
41.0
51.88
58.29
61.32
61.76
60.12
56.79
52.33
47.5
43.18
40.03
38.33
37.95
38.43
39.29
40.18
40.95
41.61
42.2
42.61
42.62
41.93
40.31
37.73
34.27
30.11
25.41
20.35
15.1
9.92
5.09
0.83
-2.89
-6.31
-9.92
-14.17
-19.24
-24.97
-30.85
-36.25
-40.76
-44.28
-47.14
-49.95
-53.39
-58.1
-64.51
-72.6
-81.71
-90.3
-96.03
-96.3
-89.09
-73.88
-52.09
-26.75
-1.52
20.43
37.32
48.91
55.95
59.47
60.23
58.62
54.92
49.67
43.77
38.3
34.21
31.91
31.22
31.56
32.22
32.76
33.1
33.42
33.98
34.82
35.64
35.85
34.83
32.13
27.74
22.09
15.92
10.04
4.99
0.86
-2.75
-6.51
-11.08
-16.73
-23.18
-29.74
-35.56
-40.05
-43.1
-45.13
-46.98
-49.59
-53.7
-59.64
-67.19
-75.38
-82.52
-86.43
-84.95
-76.63
-61.4
-40.74
-17.37
5.56
25.41
40.69
51.1
57.17
59.65
59.19
56.23
51.32
45.29
39.28
34.41
31.42
30.36
30.67
31.47
32.0
31.98
31.58
31.27
31.33
31.68
31.74
30.77
28.2
23.96
18.49
12.64
7.22
2.69
-1.01
-4.36
-8.07
-12.71
-18.41
-24.82
-31.28
-37.05
-41.67
-45.12
-47.82
-50.5
-53.96
-58.88
-65.61
-73.95
-82.91
-90.61
-94.54
-92.27
-82.32
-64.87
-41.9
-16.63
7.51
27.92
43.32
53.75
60.01
63.02
63.52
61.99
58.86
54.74
50.41
46.66
44.11
42.97
43.04
43.8
44.67
45.26
45.44
45.32
45.07
44.71
44.06
42.82
40.74
37.7
33.85
29.41
24.64
19.69
14.64
9.51
4.42
-0.45
-4.91
-8.94
-12.73
-16.63
-21.05
-26.16
-31.82
-37.6
-42.96
-47.51
-51.19
-54.33
-57.56
-61.65
-67.31
-74.91
-84.16
-93.92
-102.06
-105.85
-102.71
-91.2
-71.73
-46.63
-19.44
6.2
27.62
43.7
54.72
61.66
65.58
67.16
66.76
64.67
61.39
57.63
54.18
51.6
50.07
49.39
49.13
48.9
48.53
48.06
47.67
47.44
47.24
46.75
45.53
43.31
40.06
36.02
31.55
26.97
22.44
17.96
13.41
8.78
4.21
-0.06
-3.83
-7.12
-10.25
-13.71
-17.96
-23.22
-29.26
-35.55
-41.44
-46.48
-50.55
-54.01
-57.5
-61.77
-67.49
-75.0
-84.06
-93.54
-101.45
-105.16
-102.23
-91.29
-72.72
-48.7
-22.61
2.1
22.9
38.69
49.66
56.67
60.67
62.3
61.94
60.0
57.1
54.02
51.49
49.92
49.23
49.04
48.87
48.49
47.98
47.7
47.98
48.82
49.88
50.51
50.08
48.19
44.87
40.51
35.7
31.02
26.85
23.22
19.87
16.31
12.12
7.15
1.67
-3.72
-8.38
-11.97
-14.66
-17.03
-19.83
-23.59
-28.35
-33.69
-38.96
-43.62
-47.47
-50.75
-53.94
-57.72
-62.7
-69.31
-77.59
-86.91
-95.77
-101.84
-102.55
-95.85
-81.14
-59.67
-34.28
-8.53
14.4
32.55
45.38
53.45
57.79
59.35
58.81
56.69
53.55
50.05
46.91
44.66
43.54
43.39
43.85
44.52
45.13
45.55
45.82
45.97
45.97
45.7
44.94
43.5
41.29
38.33
34.74
30.71
26.35
21.8
17.13
12.43
7.83
3.4
-0.81
-4.88
-9.01
-13.4
-18.19
-23.3
-28.48
-33.37
-37.69
-41.33
-44.42
-47.3
-50.54
-54.75
-60.52
-68.08
-76.91
-85.53
-91.56
-92.35
-85.94
-71.86
-51.56
-27.99
-4.58
15.81
31.66
42.75
49.74
53.47
54.59
53.48
50.54
46.37
41.86
37.92
35.18
33.85
33.62
33.97
34.35
34.46
34.31
34.09
33.96
33.83
33.34
31.94
29.24
25.15
20.01
14.49
9.26
4.74
0.91
-2.65
-6.51
-11.14
-16.6
-22.6
-28.52
-33.78
-37.98
-41.14
-43.64
-46.12
-49.29
-53.77
-59.9
-67.46
-75.5
-82.22
-85.35
-82.69
-73.04
-56.74
-35.74
-13.04
8.28
25.99
39.12
47.83
52.85
54.92
54.52
51.95
47.63
42.33
37.05
32.76
30.03
28.91
28.92
29.41
29.84
29.99
29.94
29.87
29.81
29.6
28.79
26.93
23.73
19.27
13.95
8.4
3.2
-1.35
-5.36
-9.27
-13.66
-18.87
-24.88
-31.19
-37.08
-41.93
-45.52
-48.12
-50.47
-53.51
-58.13
-64.8
-73.23
-82.21
-89.67
-93.06
-90.12
-79.76
-62.48
-40.44
-16.75
5.5
24.06
38.03
47.61
53.6
56.79
57.75
56.83
54.43
51.16
47.8
45.11
43.56
43.11
43.3
43.49
43.19
42.29
41.1
40.09
39.57
39.43
39.09
37.75
34.82
30.15
24.22
17.85
11.86
6.74
2.48
-1.42
-5.61
-10.61
-16.58
-23.24
-30.01
-36.21
-41.33
-45.24
-48.19
-50.87
-54.16
-58.98
-65.89
-74.74
-84.35
-92.53
-96.52
-93.8
-83.13
-65.12
-42.17
-17.73
4.85
23.31
36.88
46.07
51.99
55.63
57.57
57.99
57.0
54.91
52.3
49.84
48.07
47.21
47.1
47.35
47.59
47.56
47.21
46.65
45.95
45.06
43.84
42.05
39.52
36.22
32.24
27.75
22.91
17.81
12.58
7.37
2.39
-2.18
-6.3
-10.21
-14.32
-19.08
-24.67
-30.86
-37.06
-42.61
-47.04
-50.33
-52.96
-55.68
-59.35
-64.67
-72.05
-81.35
-91.61
-100.9
-106.58
-105.95
-97.24
-80.42
-57.4
-31.5
-6.31
15.36
32.18
44.17
52.19
57.19
59.88
60.62
59.74
57.67
55.06
52.57
50.72
49.7
49.34
49.3
49.27
49.13
48.95
48.89
49.01
49.08
48.66
47.25
44.57
40.75
36.26
31.68
27.45
23.66
20.04
16.21
11.89
7.09
2.11
-2.63
-6.81
-10.43
-13.79
-17.38
-21.64
-26.72
-32.41
-38.23
-43.59
-48.11
-51.77
-54.95
-58.31
-62.66
-68.66
-76.59
-85.98
-95.46
-102.8
-105.32
-100.79
-88.21
-68.42
-43.98
-18.39
5.0
23.97
37.85
47.21
53.23
56.97
59.06
59.74
59.14
57.59
55.65
53.9
52.81
52.43
52.51
52.65
52.55
52.16
51.7
51.42
51.37
51.29
50.64
48.84
45.63
41.18
36.09
31.11
26.81
23.3
20.25
17.06
13.22
8.57
3.4
-1.72
-6.2
-9.8
-12.75
-15.59
-19.0
-23.33
-28.53
-34.11
-39.42
-43.97
-47.65
-50.8
-54.02
-58.04
-63.45
-70.55
-79.07
-87.95
-95.25
-98.51
-95.43
-84.73
-66.83
-43.87
-19.16
4.02
23.31
37.78
47.72
54.07
57.76
59.35
59.12
57.37
54.59
51.53
48.92
47.26
46.67
46.87
47.39
47.8
47.84
47.48
46.82
45.96
44.86
43.3
41.07
38.02
34.26
30.07
25.81
21.7
17.76
13.83
9.75
5.48
1.18
-2.92
-6.64
-10.05
-13.41
-17.06
-21.2
-25.81
-30.63
-35.29
-39.45
-42.98
-45.97
-48.73
-51.76
-55.69
-61.01
-67.81
-75.37
-82.03
-85.5
-83.47
-74.56
-58.95
-38.5
-16.18
4.88
22.37
35.31
43.91
48.98
51.34
51.43
49.47
45.72
40.8
35.69
31.49
28.96
28.32
29.17
30.72
32.18
33.01
33.15
32.88
32.57
32.39
32.14
31.29
29.21
25.5
20.25
14.09
7.91
2.55
-1.59
-4.75
-7.61
-11.01
-15.53
-21.25
-27.66
-33.92
-39.21
-43.06
-45.58
-47.38
-49.4
-52.62
-57.73
-64.87
-73.45
-81.97
-88.25
-89.86
-84.84
-72.49
-53.73
-31.02
-7.57
13.58
30.46
42.45
50.09
54.34
56.1
55.83
53.75
50.13
45.56
40.95
37.25
35.1
34.54
34.99
35.64
35.83
35.31
34.34
33.39
32.89
32.83
32.8
32.1
30.12
26.52
21.46
15.49
9.37
3.8
-0.83
-4.55
-7.79
-11.19
-15.35
-20.56
-26.66
-33.04
-38.97
-43.81
-47.34
-49.8
-51.89
-54.45
-58.28
-63.94
-71.49
-80.37
-89.11
-95.5
-96.96
-91.39
-77.99
-57.8
-33.51
-8.66
13.45
30.77
42.8
50.26
54.46
56.53
57.15
56.57
54.94
52.53
49.84
47.44
45.74
44.81
44.43
44.25
44.01
43.67
43.35
43.19
43.1
42.79
41.85
39.95
37.05
33.42
29.47
25.57
21.87
18.27
14.53
10.42
5.86
0.95
-4.01
-8.69
-12.96
-16.88
-20.79
-25.08
-30.04
-35.66
-41.58
-47.22
-52.05
-55.81
-58.7
-61.32
-64.58
-69.44
-76.52
-85.78
-96.06
-105.05
-109.69
-107.11
-95.7
-75.95
-50.45
-23.14
2.1
22.53
37.22
46.77
52.56
55.85
57.45
57.65
56.6
54.64
52.29
50.19
48.74
48.0
47.66
47.27
46.53
45.49
44.51
44.06
44.39
45.29
46.13
46.06
44.49
41.28
36.88
32.01
27.31
23.1
19.26
15.41
11.16
6.37
1.2
-3.97
-8.74
-12.91
-16.58
-20.12
-24.0
-28.63
-34.15
-40.41
-46.95
-53.2
-58.65
-63.06
-66.66
-70.2
-74.81
-81.55
-90.78
-101.5
-111.17
-116.2
-113.18
-100.36
-78.56
-51.23
-23.25
0.73
17.88
27.8
32.12
33.39
33.89
34.98
37.0
39.58
41.99
43.24
42.37
38.78
32.69
25.47
19.36
16.54
17.92
22.35
26.63
26.52
18.32
0.19
-27.25
-61.25
-98.02
-133.92
-166.44
-194.48
-218.03
-237.64
-253.71
-266.26
-275.0
-279.77
-280.98
-279.76
-277.67
-276.05
-275.41
-274.86
-272.39
-265.38
-251.55
-229.72
-200.16
-164.27
-123.94
-80.91
-36.61
7.59
50.0
88.48
120.97
146.3
164.87
178.58
189.95
200.85
211.47
220.29
224.86
223.06
214.17
199.15
180.22
159.99
140.68
123.64
109.49
98.43
90.48
85.7
83.86
84.38
86.21
88.12
89.09
88.68
87.12
85.07
83.21
81.89
80.98
80.01
78.4
75.75
71.85
66.68
60.27
52.67
43.81
33.69
22.46
10.41
-1.98
-14.23
-25.99
-37.18
-47.84
-57.91
-66.87
-73.63
-76.64
-74.4
-66.04
-51.82
-33.16
-12.29
8.33
26.61
41.2
51.59
57.96
60.9
61.19
59.63
57.06
54.21
51.84
50.57
50.84
52.78
56.09
60.09
63.9
66.72
68.02
67.71
66.06
63.53
60.53
57.28
53.75
49.78
45.2
40.01
34.38
28.61
22.94
17.42
11.86
5.91
-0.79
-8.52
-17.43
-27.49
-38.53
-49.96
-60.65
-68.95
-72.93
-71.03
-62.62
-48.4
-30.24
-10.63
8.06
24.21
37.14
46.95
54.1
59.02
61.93
62.96
62.27
60.2
57.35
54.4
51.96
50.38
49.64
49.42
49.29
48.86
47.94
46.61
45.08
43.53
41.95
40.09
37.56
33.95
29.04
22.85
15.67
7.97
0.27
-7.03
-13.71
-19.75
-25.31
-30.66
-36.14
-42.18
-49.14
-57.19
-65.95
-74.37
-80.65
-82.72
-78.9
-68.65
-52.84
-33.62
-13.64
4.76
20.18
32.29
41.46
48.26
53.1
56.16
57.54
57.52
56.64
55.56
54.81
54.59
54.72
54.78
54.41
53.55
52.39
51.33
50.62
50.2
49.61
48.21
45.49
41.33
36.08
30.4
24.94
20.02
15.55
11.04
5.96
0.03
-6.65
-13.57
-20.13
-25.88
-30.75
-35.01
-39.21
-43.98
-49.85
-57.12
-65.6
-74.39
-81.84
-85.8
-84.22
-75.94
-61.2
-41.74
-20.24
0.56
18.59
32.89
43.48
50.82
55.41
57.57
57.54
55.67
52.65
49.35
46.65
45.1
44.77
45.25
45.95
46.31
46.1
45.42
44.46
43.33
41.92
39.92
37.01
33.1
28.37
23.32
18.48
14.21
10.52
7.09
3.38
-1.07
-6.48
-12.69
-19.2
-25.37
-30.66
-34.86
-38.15
-41.13
-44.56
-49.19
-55.42
-63.03
-70.99
-77.55
-80.58
-78.23
-69.56
-54.97
-36.16
-15.61
4.13
21.17
34.52
44.05
50.05
53.0
53.27
51.31
47.71
43.35
39.16
35.95
34.15
33.68
34.09
34.81
35.4
35.68
35.67
35.45
35.01
34.11
32.43
29.74
26.07
21.71
17.11
12.66
8.48
4.39
0.05
-4.85
-10.39
-16.35
-22.33
-27.91
-32.8
-36.95
-40.58
-44.09
-48.04
-52.94
-59.05
-66.02
-72.78
-77.56
-78.38
-73.65
-62.86
-46.87
-27.68
-7.86
10.24
25.09
36.06
43.27
47.11
47.99
46.26
42.34
36.93
30.98
25.58
21.64
19.61
19.36
20.27
21.53
22.39
22.37
21.39
19.64
17.48
15.19
12.87
10.4
7.47
3.76
-0.89
-6.43
-12.52
-18.72
-24.57
-29.78
-34.3
-38.25
-41.95
-45.81
-50.29
-55.81
-62.47
-69.78
-76.55
-80.97
-81.09
-75.49
-63.88
-47.28
-27.83
-8.07
9.75
24.19
34.73
41.47
44.79
45.07
42.69
38.16
32.23
25.94
20.41
16.5
14.56
14.37
15.22
16.27
16.82
16.59
15.69
14.44
13.15
11.84
10.25
7.86
4.21
-0.93
-7.42
-14.78
-22.35
-29.5
-35.81
-41.13
-45.61
-49.64
-53.79
-58.69
-64.89
-72.49
-80.93
-88.76
-93.86
-94.01
-87.6
-74.32
-55.36
-33.1
-10.4
10.21
27.11
39.71
48.24
53.31
55.52
55.32
53.07
49.23
44.46
39.63
35.57
32.89
31.73
31.76
32.36
32.86
32.81
32.05
30.67
28.83
26.6
23.97
20.8
16.92
12.2
6.62
0.24
-6.74
-14.06
-21.39
-28.44
-34.99
-40.97
-46.48
-51.78
-57.33
-63.65
-71.2
-80.05
-89.55
-98.15
-103.58
-103.48
-96.2
-81.56
-61.02
-37.23
-13.24
8.39
26.16
39.63
49.07
54.99
57.89
58.23
56.57
53.61
50.21
47.09
44.74
43.25
42.44
42.0
41.71
41.46
41.22
40.93
40.38
39.27
37.32
34.39
30.56
26.08
21.24
16.21
10.99
5.43
-0.64
-7.25
-14.25
-21.29
-28.01
-34.1
-39.49
-44.3
-48.95
-54.0
-60.1
-67.74
-76.85
-86.56
-95.03
-99.82
-98.54
-89.76
-73.59
-51.83
-27.39
-3.37
17.8
34.85
47.57
56.34
61.68
63.98
63.57
60.97
57.06
52.96
49.76
48.11
48.03
48.94
49.98
50.42
49.97
48.82
47.42
46.25
45.43
44.7
43.48
41.14
37.22
31.72
25.08
18.08
11.56
6.07
1.65
-2.17
-6.14
-10.95
-16.85
-23.59
-30.53
-36.96
-42.41
-46.86
-50.65
-54.42
-58.9
-64.73
-72.25
-81.28
-90.79
-98.89
-103.16
-101.27
-91.87
-75.11
-52.76
-27.69
-2.97
18.94
36.64
49.73
58.46
63.33
64.84
63.56
60.24
55.9
51.67
48.53
46.99
46.97
47.89
48.98
49.57
49.39
48.58
47.51
46.53
45.76
44.95
43.63
41.27
37.57
32.6
26.79
20.77
15.13
10.16
5.73
