34.28
31.84
28.22
23.6
18.38
12.93
7.46
1.98
-3.63
-9.42
-15.34
-21.16
-26.58
-31.37
-35.47
-39.02
-42.41
-46.17
-50.9
-57.06
-64.69
-73.13
-80.81
-85.54
-85.04
-77.79
-63.63
-43.99
-21.5
0.86
20.57
36.18
47.29
54.23
57.57
57.84
55.58
51.39
46.12
40.75
36.14
32.86
31.03
30.39
30.51
30.97
31.45
31.78
31.78
31.3
30.09
27.98
24.9
21.0
16.49
11.63
6.52
1.11
-4.76
-11.19
-18.07
-25.09
-31.84
-37.92
-43.12
-47.45
-51.17
-54.77
-58.86
-64.08
-70.83
-78.93
-87.27
-93.84
-96.13
-91.98
-80.38
-61.99
-39.04
-14.59
8.39
27.8
42.72
53.19
59.77
63.09
63.65
61.93
58.6
54.52
50.64
47.7
45.96
45.2
44.91
44.58
43.99
43.29
42.77
42.62
42.66
42.35
40.97
37.97
33.27
27.27
20.77
14.59
9.23
4.65
0.32
-4.48
-10.26
-17.06
-24.44
-31.66
-38.1
-43.47
-47.92
-52.0
-56.4
-61.83
-68.79
-77.41
-87.06
-96.24
-102.62
-103.65
-97.32
-83.09
-62.2
-37.39
-12.03
10.98
29.86
44.18
54.41
61.36
65.67
67.72
67.77
66.18
63.58
60.72
58.32
56.76
56.01
55.68
55.25
54.39
53.1
51.63
50.33
49.37
48.62
47.67
45.98
43.15
39.04
33.82
27.9
21.8
15.95
10.63
5.9
1.53
-2.83
-7.58
-12.98
-19.04
-25.48
-31.86
-37.71
-42.73
-46.86
-50.33
-53.62
-57.4
-62.39
-69.13
-77.66
-87.15
-95.78
-100.98
-100.2
-91.79
-75.7
-53.67
-28.69
-4.05
17.62
34.85
47.43
55.87
60.96
63.33
63.5
61.91
59.14
55.93
53.0
50.92
49.89
49.76
50.09
50.38
50.32
49.81
49.01
48.12
47.27
46.37
45.13
43.19
40.32
36.45
31.77
26.6
21.3
16.11
11.2
6.65
2.48
-1.36
-5.01
-8.75
-12.89
-17.66
-23.06
-28.76
-34.25
-38.98
-42.74
-45.72
-48.53
-51.99
-56.88
-63.62
-72.09
-81.44
-90.07
-95.84
-96.5
-90.4
-77.06
-57.57
-34.34
-10.42
11.35
29.07
42.04
50.51
55.21
56.92
56.23
53.66
49.82
45.51
41.57
38.69
37.13
36.7
36.79
36.84
36.49
35.83
35.21
34.96
35.09
35.21
34.67
32.85
29.51
24.89
19.6
14.36
9.61
5.33
1.16
-3.43
-8.78
-14.88
-21.35
-27.62
-33.2
-37.82
-41.57
-44.83
-48.18
-52.24
-57.55
-64.32
-72.11
-79.69
-85.11
-86.18
-81.13
-69.4
-51.88
-30.76
-8.83
11.34
27.99
40.38
48.54
52.88
53.91
52.15
48.25
43.05
37.56
32.73
29.2
27.18
26.38
26.32
26.55
26.84
27.15
27.52
27.8
27.68
26.71
24.52
21.02
16.47
11.32
6.05
0.96
-3.92
-8.78
-13.95
-19.59
-25.69
-31.94
-37.91
-43.17
-47.56
-51.26
-54.78
-58.9
-64.38
-71.62
-80.37
-89.51
-97.05
-100.58
-97.91
-87.88
-70.92
-48.96
-24.93
-1.81
18.19
33.99
45.48
53.1
57.39
58.75
57.59
54.51
50.4
46.32
43.16
41.34
40.74
40.77
40.8
40.43
39.69
38.89
38.4
38.32
38.31
37.72
35.86
32.35
27.26
21.17
14.87
9.04
3.98
-0.51
-5.01
-10.19
-16.47
-23.79
-31.6
-39.11
-45.62
-50.83
-54.95
-58.64
-62.81
-68.31
-75.68
-84.78
-94.58
-103.12
-107.82
-106.26
-96.92
-79.92
-57.12
-31.57
-6.57
15.27
32.56
45.16
53.63
58.72
61.09
61.21
59.53
56.74
53.63
50.98
49.28
48.55
48.41
48.27
47.74
46.74
45.57
44.66
44.21
44.02
43.49
41.87
38.64
33.75
27.7
21.27
15.19
9.82
5.05
0.41
-4.64
-10.46
-17.04
-24.02
-30.83
-36.95
-42.12
-46.45
-50.39
-54.56
-59.67
-66.14
-73.92
-82.18
-89.34
-93.28
-91.89
-83.78
-68.85
-48.4
-24.86
-1.06
20.58
38.52
52.23
61.91
68.09
71.33
72.07
70.82
68.13
64.66
61.1
57.92
55.34
53.26
51.41
49.56
47.67
45.86
44.3
43.03
41.87
40.44
38.29
35.18
31.12
26.35
21.18
15.82
10.3
4.45
-1.84
-8.58
-15.56
-22.43
-28.86
-34.66
-39.85
-44.63
-49.41
-54.67
-60.93
-68.39
-76.69
-84.58
-90.05
-90.79
-84.97
-72.09
-53.25
-30.92
-8.12
12.51
29.33
41.81
50.2
55.01
56.71
55.67
52.34
47.43
41.97
36.97
33.27
31.25
30.77
31.34
32.31
33.11
33.41
33.06
31.98
30.14
27.55
24.22
20.21
15.6
10.44
4.77
-1.33
-7.91
-14.85
-21.96
-29.01
-35.79
-42.23
-48.33
-54.11
-59.61
-65.26
-71.53
-78.73
-86.84
-95.2
-102.34
-106.21
-104.51
-95.63
-79.92
-59.31
-36.61
-14.95
3.13
16.29
24.49
28.99
31.47
32.66
32.89
32.62
32.02
31.04
29.47
26.96
23.73
20.48
17.53
15.98
18.0
25.34
38.36
55.48
70.23
75.35
71.29
59.44
39.8
14.91
-11.81
-37.21
-59.18
-76.77
-89.5
-97.2
-101.01
-102.14
-101.38
-99.75
-98.36
-98.23
-99.89
-102.82
-105.75
-107.78
-107.89
-104.72
-97.35
-85.45
-69.36
-50.1
-28.86
-6.85
14.41
33.72
50.52
64.45
75.15
82.28
85.7
85.74
83.14
78.54
72.38
64.7
55.03
42.72
27.43
9.68
-9.04
-26.43
-40.04
-47.81
-48.51
-42.2
-30.25
-15.23
-0.35
11.31
17.57
17.69
12.32
3.0
-8.64
-21.42
-34.84
-48.75
-62.65
-75.37
-85.04
-89.65
-87.86
-79.7
-66.86
-52.4
-39.78
-31.62
-28.68
-29.49
-31.01
-29.97
-24.22
-13.54
0.59
15.95
30.63
43.69
55.05
64.91
73.17
79.21
82.24
81.94
78.85
74.34
70.05
67.29
66.46
66.99
67.7
67.43
65.71
62.97
60.39
59.27
60.45
63.93
68.88
74.01
78.15
80.66
81.63
81.71
81.83
82.82
85.13
88.65
92.82
96.88
100.32
103.11
105.88
109.6
115.11
122.53
131.0
138.87
144.24
145.62
142.37
134.94
124.87
114.47
106.33
102.52
103.55
107.79
111.61
110.49
100.85
81.59
54.78
24.99
-2.04
-21.28
-29.53
-26.15
-12.88
6.62
27.63
45.53
56.96
60.81
58.43
53.02
48.24
46.65
48.66
52.49
54.97
52.72
43.42
26.57
3.83
-21.45
-45.17
-63.63
-74.49
-77.3
-73.25
-64.48
-53.07
-40.39
-27.15
-13.93
-1.75
7.73
12.74
12.21
6.49
-2.65
-12.71
-21.45
-27.6
-30.94
-31.9
-31.06
-28.85
-25.59
-21.78
-18.22
-15.97
-16.04
-19.08
-25.19
-33.89
-44.11
-54.42
-63.56
-70.85
-76.37
-80.67
-84.04
-86.06
-85.7
-81.94
-74.7
-65.34
-56.21
-49.39
-45.75
-44.5
-43.89
-42.17
-38.29
-32.03
-23.72
-13.8
-2.74
8.68
19.29
27.57
32.23
32.57
28.77
21.79
13.16
4.82
-1.07
-2.51
1.62
10.69
22.0
31.43
34.87
29.97
17.15
-0.73
-19.62
-36.0
-47.99
-55.42
-59.08
-59.76
-57.73
-53.03
-46.06
-38.0
-30.62
-25.41
-22.62
-20.85
-17.59
-10.62
0.62
14.16
26.14
32.42
30.53
20.93
6.68
-8.07
-19.99
-27.76
-32.11
-34.7
-36.87
-38.91
-40.29
-40.46
-39.63
-38.9
-39.71
-42.81
-47.56
-51.95
-53.25
-49.22
-39.03
-23.62
-5.23
13.46
30.34
44.41
55.84
65.47
74.18
82.49
90.29
97.12
102.3
105.34
105.99
104.44
101.11
96.48
90.81
84.0
75.67
65.46
53.43
40.21
26.94
14.84
4.69
-3.47
-10.31
-16.86
-24.01
-32.1
-40.84
-49.42
-56.87
-62.46
-65.87
-67.29
-67.26
-66.39
-65.01
-63.01
-59.81
-54.63
-46.78
-35.87
-21.92
-5.27
13.44
33.21
52.62
69.87
83.07
90.81
92.73
89.64
83.36
75.98
69.21
63.94
60.18
57.34
54.49
50.71
45.22
37.56
27.71
16.2
3.92
-8.09
-19.06
-28.67
-37.08
-44.73
-52.02
-59.13
-65.91
-72.01
-77.02
-80.72
-83.21
-84.96
-86.78
-89.54
-93.99
-100.51
-109.02
-118.97
-129.32
-138.66
-145.38
-148.1
-146.11
-139.72
-130.23
-119.39
-108.7
-98.87
-89.78
-80.97
-72.3
-64.33
-58.21
-55.07
-55.38
-58.57
-63.18
-67.47
-70.03
-70.17
-68.05
-64.47
-60.61
-57.64
-56.54
-57.76
-61.15
-65.88
-70.69
-74.3
-75.76
-74.7
-71.23
-65.73
-58.62
-50.27
-41.12
-31.9
-23.67
-17.69
-14.89
-15.44
-18.39
-21.95
-23.99
-22.88
-18.18
-10.72
-2.19
5.62
11.62
15.68
18.47
20.84
23.22
25.49
27.06
27.45
26.6
25.05
23.6
22.93
23.25
24.26
25.44
26.41
27.27
28.76
32.02
38.17
47.72
60.27
74.48
88.41
100.08
107.87
110.7
108.07
100.01
87.01
70.05
50.43
29.54
8.39
-12.7
-34.23
-57.09
-81.81
-107.95
-133.73
-156.49
-173.41
-182.23
-181.79
-172.15
-154.47
-130.83
-103.95
-76.81
-52.17
-32.0
-17.0
-6.68
0.32
5.52
10.22
15.36
21.66
29.69
39.6
50.8
61.97
71.53
78.46
82.88
86.01
89.58
94.85
101.96
109.94
117.24
122.6
125.64
127.22
129.15
133.46
141.15
151.31
160.81
165.42
161.66
148.81
129.66
109.51
93.77
85.62
84.92
88.98
94.51
99.3
102.79
105.34
107.04
106.99
103.73
96.25
84.89
71.42
58.37
47.93
41.01
37.12
34.7
31.97
27.6
21.13
12.89
3.77
-5.3
-13.67
-21.23
-28.36
-35.71
-43.84
-52.97
-62.95
-73.34
-83.7
-93.88
-104.15
-115.19
-127.84
-142.7
-159.68
-177.72
-194.87
-208.75
-217.44
-220.23
-217.95
-212.5
-205.95
-199.67
-193.9
-188.21
-182.16
-175.87
-170.0
-165.16
-161.37
-158.03
-154.53
-150.92
-148.13
-147.35
-148.95
-151.88
-153.94
-152.87
-147.32
-137.19
-122.8
-103.83
-78.81
-45.79
-4.0
44.74
95.68
142.54
179.63
203.97
215.98
218.63
215.74
210.21
203.29
194.88
184.61
172.7
160.47
149.94
143.01
140.59
142.22
146.34
151.06
154.91
157.09
157.43
155.85
151.96
145.13
134.9
121.69
107.02
93.21
82.2
74.77
69.9
65.17
57.85
46.04
29.42
9.48
-10.7
-27.09
-35.76
-34.4
-23.78
-8.35
4.76
8.4
-1.44
-23.65
-52.39
-79.77
-99.22
-107.84
-106.53
-98.38
-86.49
-72.9
-58.71
-44.94
-32.98
-24.08
-18.42
-14.57
-10.19
-3.29
6.59
17.98
28.35
35.43
38.2
37.16
33.82
29.88
26.59
24.45
23.4
23.12
23.3
23.68
24.05
24.25
24.17
23.75
23.03
22.04
20.83
19.42
17.78
15.88
13.65
11.01
7.86
4.13
-0.24
-5.11
-10.01
-14.1
-16.12
-14.75
-9.0
1.34
15.49
31.78
48.11
62.49
73.39
79.98
82.01
79.65
73.4
64.15
53.34
42.9
34.83
30.53
30.18
32.58
35.56
36.9
35.26
30.58
23.89
16.42
8.92
1.36
-6.7
-15.32
-23.73
-30.41
-33.93
-33.94
-31.66
-29.63
-30.56
-36.03
-45.59
-56.81
-66.4
-71.63
-71.4
-66.32
-57.92
-47.59
-35.89
-22.73
-8.21
6.61
19.54
27.92
29.82
25.06
15.41
3.97
-6.06
-12.61
-15.28
-15.32
-14.9
-16.28
-21.07
-29.88
-42.34
-57.28
-72.99
-87.57
-99.18
-106.52
-109.17
-107.78
-103.9
-99.39
-95.76
-93.72
-93.13
-93.47
-94.17
-94.76
-94.76
-93.22
-88.71
-79.68
-65.24
-45.7
-22.75
1.16
23.74
43.62
60.56
75.04
87.62
98.33
106.72
112.13
114.34
113.75
111.3
108.05
104.7
101.39
97.86
93.66
88.43
81.99
74.22
65.03
54.36
42.41
29.61
16.69
4.32
-7.06
-17.41
-26.99
-36.18
-45.33
-54.77
-64.72
-75.18
-85.68
-95.15
-102.06
-104.8
-102.32
-94.47
-82.09
-66.68
-50.01
-33.71
-19.26
-7.97
-0.93
1.22
-1.32
-7.48
-15.36
-22.72
-27.43
-27.96
-23.56
-14.36
-1.31
13.97
29.54
43.29
53.43
58.73
58.78
53.97
45.31
34.05
21.32
7.85
-6.03
-20.05
-33.66
-45.84
-55.36
-61.47
-64.71
-67.14
-71.7
-80.97
-95.86
-115.01
-135.15
-152.38
-163.55
-167.21
-163.62
-154.3
-141.14
-125.99
-110.46
-96.01
-83.68
-73.95
-66.31
-59.28
-50.79
-39.01
-22.91
-2.69
20.48
44.94
69.15
92.1
113.42
133.16
151.66
169.21
186.03
202.22
217.7
232.25
245.47
256.78
265.47
270.89
272.44
269.58
261.8
248.53
229.29
203.9
172.79
137.17
98.9
60.13
22.88
-11.21
-41.01
-65.76
-84.99
-98.68
-107.42
-112.47
-115.56
-118.32
-121.66
-125.35
-128.16
-128.33
-124.3
-115.31
-101.68
-84.66
-66.01
-47.5
-30.55
-16.02
-4.28
4.63
10.89
14.77
16.57
16.55
14.91
11.76
7.21
1.42
-5.32
-12.65
-20.19
-27.73
-35.27
-43.02
-51.16
-59.48
-67.22
-73.01
-75.17
-72.24
-63.45
-49.04
-30.3
-9.18
12.2
31.94
48.69
61.62
70.31
74.65
74.82
71.4
65.35
57.99
50.66
44.45
39.94
37.09
35.43
34.3
33.2
31.84
30.19
28.31
26.13
23.37
19.54
14.24
7.34
-0.72
-9.01
-16.35
-21.85
-25.28
-27.31
-29.34
-32.87
-39.02
-47.91
-58.57
-69.14
-77.37
-81.29
-79.64
-72.16
-59.52
-43.05
-24.42
-5.3
12.87
28.91
41.98
51.54
57.38
59.73
59.3
57.27
55.09
54.15
55.42
59.13
64.77
71.36
77.83
83.41
87.88
91.37
94.06
95.87
96.28
94.3
88.78
78.68
63.5
43.47
19.7
-6.06
-31.7
-55.34
-75.71
-92.39
-105.75
-116.54
-125.37
-132.28
-136.56
-136.93
-132.06
-121.22
-104.65
-83.58
-59.92
-35.63
-12.29
9.05
27.8
43.51
55.76
64.23
68.99
70.63
70.26
69.16
68.37
68.4
69.15
70.06
70.43
69.68
67.55
64.18
60.03
55.62
51.34
47.27
43.16
38.66
33.5
27.75
21.79
16.16
11.3
7.38
4.22
1.4
-1.59
-5.27
-9.97
-15.87
-22.83
-30.47
-38.24
-45.61
-52.36
-58.68
-65.15
-72.47
-81.12
-90.99
-101.2
-110.11
-115.7
-116.07
-110.0
-97.38
-79.3
-57.73
-35.07
-13.47
5.58
21.37
33.94
43.66
50.96
56.13
59.39
60.97
61.29
60.9
60.4
60.23
60.54
61.18
61.88
62.41
62.69
62.79
62.8
62.69
62.27
61.26
59.37
56.5
52.73
48.34
43.77
39.42
35.56
32.18
29.03
25.71
21.84
17.23
11.97
6.38
0.96
-3.85
-7.81
-10.96
-13.62
-16.31
-19.55
-23.7
-28.88
-34.93
-41.54
-48.49
-55.71
-63.42
-71.99
-81.9
-93.52
-106.97
-121.83
-136.95
-150.34
-159.43
-161.66
-155.36
-140.3
-117.92
-90.94
-62.52
-35.37
-11.27
9.11
25.82
39.19
49.56
57.14
62.23
65.25
66.85
67.77
68.66
69.85
71.29
72.67
73.64
74.01
73.9
73.69
73.79
74.41
75.4
76.34
76.68
76.01
74.14
71.17
67.38
63.08
58.51
53.74
48.72
43.29
37.29
30.61
23.29
15.51
7.59
-0.08
-7.17
-13.44
-18.94
-23.93
-28.91
-34.48
-41.16
-49.21
-58.54
-68.64
-78.79
-88.28
-96.65
-103.88
-110.38
-116.91
-124.31
-133.1
-143.04
-152.84
-160.26
-162.52
-157.25
-143.27
-121.17
-93.24
-62.7
-32.8
-5.94
16.7
35.04
49.53
60.7
68.87
74.26
77.19
78.25
78.26
78.04
78.1
78.53
79.05
79.31
79.15
78.67
78.22
78.21
78.92
80.41
82.44
84.55
86.08
86.33
84.69
80.86
74.97
67.53
59.21
50.61
42.05
33.64
25.36
17.28
9.71
3.13
-1.93
-5.16
-6.56
-6.65
-6.29
-6.5
-8.18
-11.8
-17.29
-24.14
-31.63
-39.15
-46.35
-53.25
-60.09
-67.34
-75.46
-84.79
-95.29
-106.19
-115.86
-121.96
-122.04
-114.35
-98.58
-76.06
-49.45
-21.92
3.75
25.77
43.39
56.63
65.89
71.57
74.11
73.96
71.76
68.26
64.21
60.23
56.67
53.66
51.15
49.1
47.45
46.17
45.21
44.43
43.59
42.41
40.6
37.94
34.29
29.61
23.92
17.38
10.15
2.44
-5.52
-13.53
-21.43
-29.07
-36.4
-43.46
-50.33
-57.14
-63.91
-70.5
-76.73
-82.29
-86.97
-90.69
-93.57
-95.94
-98.32
-101.4
-105.85
-112.03
-119.54
-126.97
-132.0
-132.0
-124.94
-110.22
-88.98
-63.73
-37.52
-12.96
8.36
25.99
40.17
51.26
59.41
64.49
66.37
65.23
61.79
57.17
52.66
49.39
48.04
48.76
51.25
54.89
58.93
62.67
65.53
67.13
67.33
66.24
64.08
61.17
57.75
53.91
49.62
44.71
38.94
32.07
23.96
14.6
4.07
-7.43
-19.64
-32.2
-44.59
-56.16
-66.22
-74.26
-80.21
-84.5
-88.08
-92.21
-98.12
-106.66
-118.02
-131.49
-145.31
-156.9
-163.3
-161.99
-151.7
-132.86
-107.53
-78.74
-49.57
-22.39
1.48
21.62
38.07
51.01
60.6
67.04
70.77
72.54
73.27
73.9
75.04
76.85
79.1
81.37
83.26
84.76
86.21
88.26
91.54
96.36
102.43
108.74
113.73
115.67
113.18
105.58
93.16
76.97
58.4
38.76
18.82
-1.09
-21.0
-40.88
-60.38
-78.81
-95.23
-108.73
-118.77
-125.32
-129.01
-131.06
-133.08
-136.66
-142.92
-151.96
-162.59
-172.42
-178.35
-177.47
-168.01
-149.91
-124.82
-95.62
-65.47
-37.04
-12.02
8.89
25.71
38.75
48.33
54.73
58.29
59.45
58.72
56.63
53.65
50.23
46.83
43.96
42.15
41.73
42.73
44.72
46.96
48.62
49.03
47.89
45.23
41.28
36.38
30.79
24.85
18.83
13.03
7.65
2.73
-1.86
-6.38
-11.11
-16.3
-22.17
-29.04
-37.28
-47.12
-58.31
-69.64
-78.94
-83.4
-80.48
-68.86
-49.17
-23.96
2.97
27.81
47.8
61.95
70.85
76.05
79.07
80.76
81.17
80.0
77.17
73.26
69.45
67.01
66.7
68.37
70.98
73.1
73.55
71.81
68.12
63.2
57.8
52.35
46.78
40.7
33.57
25.17
15.66
5.61
-4.24
-13.28
-21.25
-28.27
-34.71
-41.04
-47.67
-54.98
-63.35
-73.1
-84.26
-96.24
-107.53
-115.83
-118.51
-113.47
-99.88
-78.62
-52.06
-23.4
4.19
28.36
47.91
62.59
72.79
79.1
82.08
82.33
80.46
77.2
73.32
69.49
66.14
63.44
61.33
59.69
58.4
57.32
56.29
54.96
52.89
49.59
44.77
38.45
31.01
23.13
15.55
8.84
3.17
-1.67
-6.25
-11.16
-16.76
-23.07
-29.67
-35.96
-41.3
-45.32
-48.03
-49.98
-52.17
-55.73
-61.42
-68.98
-76.79
-82.02
-81.51
-72.86
-55.52
-31.08
-2.73
25.86
51.69
73.13
89.93
102.63
111.91
118.23
121.77
122.7
121.41
118.56
114.96
111.43
108.51
106.47
105.28
104.8
104.89
105.57
106.98
109.32
112.62
116.59
120.53
123.52
124.69
123.68
120.76
116.8
112.81
109.5
106.9
104.36
100.82
95.52
88.41
80.18
71.89
64.43
58.3
53.41
49.19
44.56
38.16
28.7
15.2
-2.6
-23.9
-46.71
-68.29
-85.84
-97.66
-103.38
-103.94
-101.35
-98.29
-97.63
-101.84
-112.67
-130.72
-156.25
-188.11
-223.72
-259.74
-293.26
-322.56
-347.31
-368.14
-386.03
-403.63
-422.59
-443.14
-464.33
-484.65
-502.11
-513.91
-516.3
-505.71
-483.01
-450.71
-412.0
-369.92
-327.02
-285.0
-244.52
-205.3
-167.0
-133.48
-107.73
-90.01
-77.87
-68.01
-58.03
-47.19
-35.99
-2.8
59.3
141.57
224.72
292.2
337.57
362.43
371.47
369.36
359.52
340.8
312.8
277.63
239.64
203.35
171.71
145.82
125.5
109.38
94.09
77.49
59.62
42.33
27.6
16.29
8.01
1.7
-3.93
-11.33
-21.93
-35.48
-50.31
-64.4
-76.24
-84.88
-89.46
-91.99
-94.04
-96.56
-99.61
-102.5
-104.33
-104.53
-102.89
-99.61
-95.09
-89.74
-83.9
-77.59
-70.4
-61.66
-50.82
-37.61
-22.25
-5.42
12.16
29.65
46.44
62.35
77.66
92.78
107.92
122.71
136.12
147.05
154.56
158.47
159.69
160.03
161.61
166.05
173.83
184.13
195.42
206.03
215.02
222.55
229.81
238.62
251.06
268.92
293.12
322.77
354.31
381.33
395.79
390.55
362.32
313.54
251.96
187.95
130.72
85.29
51.7
26.49
5.37
-14.62
-34.28
-53.01
-69.92
-84.58
-96.92
-106.68
-112.91
-114.16
-109.09
-97.47
-80.53
-60.88
-41.67
-25.62
-14.27
-7.67
-4.71
-3.77
-3.44
-2.91
-2.09
-1.32
-0.97
-1.11
-1.46
-1.57
-1.18
-0.49
-0.19
-1.08
-3.78
-8.3
-14.05
-20.02
-25.22
-28.95
-31.01
-31.52
-30.79
-29.08
-26.58
-23.56
-20.48
-18.08
-17.24
-18.78
-23.13
-30.16
-39.2
-49.16
-58.83
-67.0
-72.58
-74.52
-71.86
-63.95
-50.84
-33.55
-14.11
4.93
21.2
33.29
41.03
45.25
47.15
47.6
46.74
44.21
39.65
33.18
25.62
18.24
12.26
8.43
6.84
7.12
8.79
11.54
15.32
20.21
26.19
32.91
39.74
45.91
50.73
53.81
55.08
54.71
52.92
49.91
45.81
40.74
34.9
28.65
22.43
16.66
11.7
7.72
4.71
2.57
1.23
0.78
1.42
3.5
7.32
13.02
20.37
28.81
37.55
45.73
52.68
57.96
61.4
62.91
62.45
59.9
55.19
48.41
40.03
31.04
22.81
16.91
14.6
16.33
21.48
28.34
34.59
37.79
35.96
27.83
13.08
-7.61
-32.3
-57.95
-80.88
-97.63
-106.02
-105.76
-98.39
-86.6
-73.14
-60.03
-48.44
-38.88
-31.73
-27.43
-26.39
-28.72
-33.99
-41.23
-49.14
-56.21
-61.03
-62.39
-59.59
-52.46
-41.47
-27.63
-12.25
3.26
17.56
29.44
37.88
42.15
41.97
37.63
30.03
20.52
10.57
1.52
-5.67
-10.55
-13.08
-13.5
-12.24
-9.78
-6.58
-3.15
0.07
2.71
4.49
5.24
4.87
3.38
0.82
-2.72
-7.08
-12.07
-17.37
-22.59
-27.27
-31.0
-33.5
-34.74
-34.92
-34.46
-33.89
-33.74
-34.47
-36.39
-39.55
-43.61
-47.76
-50.79
-51.39
-48.54
-41.94
-32.14
-20.4
-8.26
2.96
12.49
20.16
26.18
30.77
33.96
35.54
35.27
33.08
29.28
24.47
19.47
15.0
11.53
9.13
7.57
6.42
5.34
4.16
2.94
1.95
1.4
1.38
1.69
1.9
1.5
0.09
-2.49
-6.12
-10.5
-15.28
-20.21
-25.16
-30.13
-35.14
-40.11
-44.91
-49.31
-52.98
-55.46
-56.12
-54.16
-48.91
-40.06
-28.01
-13.92
0.45
13.21
22.85
28.57
30.42
28.99
25.15
19.77
13.67
7.61
2.35
-1.37
-2.95
-2.08
1.14
6.24
12.44
18.76
24.22
27.94
29.34
28.16
24.59
19.15
12.56
5.5
-1.5
-8.08
-13.99
-18.97
-22.77
-25.24
-26.43
-26.61
-26.19
-25.55
-24.91
-24.41
-24.22
-24.63
-25.99
-28.42
-31.58
-34.49
-35.89
-34.66
-30.27
-22.97
-13.64
-3.39
6.73
15.95
23.7
29.65
33.66
35.86
36.71
36.83
36.72
36.55
36.03
34.63
31.9
27.72
22.39
16.48
10.67
5.51
1.42
-1.31
-2.57
-2.43
-1.2
0.63
2.49
3.93
4.74
4.91
4.52
3.51
1.64
-1.46
-6.09
-12.32
-19.88
-28.31
-37.13
-45.97
-54.43
-61.9
-67.36
-69.46
-66.92
-59.09
-46.35
-30.2
-12.8
3.64
17.5
28.04
35.26
39.55
41.37
40.98
38.59
34.41
28.87
22.65
16.64
11.68
8.39
6.99
7.26
8.69
10.68
12.74
14.6
16.17
17.4
18.19
18.29
17.4
15.31
12.04
7.87
3.23
-1.41
-5.68
-9.4
-12.53
-15.18
-17.52
-19.83
-22.42
-25.61
-29.56
-34.15
-38.79
-42.43
-43.88
-42.08
-36.55
-27.58
-16.16
-3.74
8.24
18.65
26.87
32.77
36.46
38.1
37.8
35.7
32.06
27.42
22.5
18.15
15.03
13.47
13.37
14.24
15.44
16.31
16.38
15.41
13.37
10.45
6.95
3.28
-0.18
-3.21
-5.82
-8.22
-10.68
-13.39
-16.27
-19.04
-21.38
-23.16
-24.53
-25.9
-27.75
-30.43
-34.02
-38.21
-42.37
-45.54
-46.64
-44.66
-38.99
-29.67
-17.49
-3.81
9.79
21.92
31.63
38.5
42.52
43.89
42.98
40.24
36.23
31.65
27.2
23.53
21.06
19.91
19.92
20.74
21.89
22.96
23.61
23.68
23.18
22.17
20.74
18.94
16.74
14.04
10.75
6.87
2.53
-2.0
-6.44
-10.54
-14.19
-17.46
-20.5
-23.47
-26.52
-29.77
-33.37
-37.45
-42.0
-46.7
-50.68
-52.63
-51.17
-45.34
-35.05
-21.21
-5.55
9.9
23.36
33.66
40.46
44.07
45.32
45.22
44.72
44.37
44.17
43.61
41.98
38.86
34.48
29.79
26.12
24.58
25.53
28.41
31.93
34.47
34.41
30.43
21.89
9.46
-4.57
-16.49
-22.43
-20.08
-10.2
3.14
14.05
17.26
10.32
-5.61
-26.68
-48.22
-66.48
-79.53
-87.17
-90.54
-91.63
-92.6
-94.86
-98.08
-99.8
-96.27
-84.3
-63.11
-35.11
-4.77
23.61
47.85
68.47
87.37
105.93
123.63
138.36
147.69
150.57
147.99
142.46
136.81
133.08
132.06
133.34
135.56
136.65
134.23
126.22
111.71
91.68
69.02
47.6
30.67
19.3
11.58
3.15
-11.3
-35.88
-71.63
-115.83
-162.33
-203.15
-230.52
-239.09
-227.53
-199.11
-160.76
-121.04
-87.5
-64.49
-52.15
-47.12
-44.33
-39.42
-30.36
-17.98
-4.99
5.57
11.97
14.58
15.62
18.01
24.16
34.91
49.32
65.06
79.33
89.99
96.47
99.98
103.01
108.15
116.71
127.9
138.97
146.51
148.17
143.93
136.2
128.46
123.3
120.85
118.75
113.64
103.21
87.81
70.3
54.47
42.88
35.35
29.09
20.26
6.04
-13.89
-37.23
-60.39
-80.26
-95.54
-106.88
-116.16
-125.05
-134.1
-142.45
-148.6
-151.4
-150.76
-147.77
-143.95
-140.35
-136.88
-132.42
-125.42
-114.88
-100.98
-85.07
-69.16
-55.12
-44.14
-36.56
-32.17
-30.54
-31.44
-34.81
-40.7
-48.99
-59.2
-70.51
-81.9
-92.49
-101.75
-109.58
-116.28
-122.26
-127.73
-132.39
-135.31
-135.1
-130.23
-119.61
-102.89
-80.72
-54.72
-27.24
-1.01
21.22
37.06
45.15
45.63
40.51
33.34
28.18
28.29
35.1
47.83
64.2
81.61
98.15
112.95
125.97
137.45
147.53
156.08
162.75
167.17
168.96
167.71
163.02
154.71
142.89
128.08
111.22
93.51
76.37
61.23
49.17
40.59
35.0
31.01
26.82
20.96
12.82
2.88
-7.65
-17.45
-25.58
-31.71
-36.09
-39.38
-42.23
-45.26
-48.87
-53.23
-58.27
-63.64
-68.85
-73.37
-76.91
-79.58
-81.8
-84.22
-87.41
-91.6
-96.69
-102.22
-107.55
-111.92
-114.46
-114.27
-110.61
-103.12
-92.08
-78.41
-63.34
-47.89
-32.58
-17.35
-2.04
13.12
27.22
38.93
47.06
51.19
51.88
50.38
47.94
45.23
42.2
38.35
33.27
27.05
20.42
14.61
10.99
10.64
13.89
20.21
28.18
35.89
41.43
43.35
40.97
34.33
23.98
10.77
-4.18
-19.48
-33.6
-45.12
-53.14
-57.66
-59.6
-60.47
-61.66
-63.95
-67.11
-69.94
-70.63
-67.27
-58.48
-43.98
-24.9
-3.63
16.77
33.58
45.47
53.0
58.38
64.52
73.72
86.76
102.57
118.73
132.34
141.09
143.71
140.2
131.56
119.47
106.03
93.31
83.14
76.66
74.22
75.28
78.65
82.85
86.48
88.47
88.23
85.62
80.78
74.0
65.59
55.8
44.79
32.61
19.36
5.2
-9.52
-24.31
-38.62
-52.13
-64.76
-76.7
-88.2
-99.22
-109.33
-117.75
-123.67
-126.74
-127.35
-126.56
-125.8
-126.29
-128.66
-132.7
-137.42
-141.34
-142.86
-140.64
-133.97
-122.9
-108.23
-91.27
-73.58
-56.54
-41.15
-27.96
-17.16
-8.58
-1.83
3.58
8.22
12.56
16.91
21.33
25.73
29.9
33.64
36.88
39.65
42.08
44.29
46.34
48.23
49.82
50.91
51.24
50.56
48.71
45.72
41.88
37.71
33.84
30.79
28.81
27.79
27.33
26.89
26.02
24.51
22.42
20.05
17.72
15.72
14.15
12.88
11.6
9.83
7.06
2.83
-3.05
-10.36
-18.36
-25.86
-31.55
-34.46
-34.36
-31.87
-28.22
-24.62
-21.8
-19.63
-17.32
-13.92
-8.75
-1.81
6.34
14.81
22.81
29.76
35.38
39.55
42.23
43.45
43.26
41.9
39.72
37.2
34.82
32.95
31.75
31.17
30.97
30.82
30.49
29.89
29.17
28.53
28.19
28.2
28.43
28.54
28.18
27.09
25.2
22.66
19.74
16.79
14.09
11.74
9.72
7.91
6.13
4.29
2.39
0.5
-1.26
-2.83
-4.22
-5.49
-6.74
-8.06
-9.48
-11.01
-12.64
-14.32
-16.02
-17.67
-19.21
-20.61
-21.88
-23.12
-24.52
-26.29
-28.61
-31.48
-34.64
-37.55
-39.44
-39.56
-37.35
-32.73
-26.04
-18.03
-9.56
-1.4
5.9
12.08
17.05
20.85
23.5
25.09
25.69
25.47
24.63
23.41
22.06
20.77
19.64
18.73
18.05
17.6
17.39
17.39
17.54
17.68
17.58
17.04
15.94
14.3
12.29
10.17
8.2
6.55
5.28
4.32
3.49
2.63
1.57
0.24
-1.36
-3.12
-4.9
-6.56
-8.0
-9.21
-10.28
-11.35
-12.56
-14.02
-15.72
-17.58
-19.44
-21.16
-22.64
-23.93
-25.22
-26.75
-28.75
-31.22
-33.87
-36.14
-37.36
-36.91
-34.51
-30.25
-24.56
-18.05
-11.32
-4.87
0.94
5.85
9.68
12.31
13.75
14.14
13.76
12.97
12.17
11.65
11.62
12.09
13.02
14.26
15.71
17.26
18.88
20.5
22.01
23.22
23.93
23.98
23.35
22.1
20.34
18.16
15.57
12.54
9.11
5.41
1.68
-1.81
-4.85
-7.4
-9.56
-11.52
-13.46
-15.46
-17.5
-19.43
-21.03
-22.1
-22.57
-22.48
-22.09
-21.74
-21.8
-22.54
-24.05
-26.15
-28.39
-30.15
-30.75
-29.63
-26.52
-21.47
-14.9
-7.38
0.42
7.92
14.65
20.27
24.57
27.41
28.83
28.99
28.19
26.73
24.94
23.08
21.33
19.77
18.45
17.29
16.2
15.08
13.85
12.53
11.21
10.0
8.94
7.97
6.92
5.66
4.12
2.35
0.47
-1.44
-3.35
-5.34
-7.45
-9.69
-11.96
-14.1
-16.01
-17.62
-19.0
-20.28
-21.56
-22.91
-24.42
-26.05
-27.72
-29.2
-30.1
-29.98
-28.44
-25.27
-20.51
-14.51
-7.75
-0.77
5.88
11.81
16.68
20.28
22.51
23.39
23.16
22.15
20.74
19.25
17.84
16.57
15.42
14.43
13.67
13.28
13.31
13.7
14.23
14.63
14.65
14.14
13.1
11.61
9.81
7.83
5.8
3.82
1.98
0.31
-1.19
-2.58
-3.97
-5.49
-7.26
-9.32
-11.64
-14.06
-16.38
-18.43
-20.18
-21.79
-23.55
-25.75
-28.44
-31.36
-33.88
-35.25
-34.79
-32.14
-27.41
-21.05
-13.73
-6.18
1.05
7.53
13.02
17.39
20.6
22.7
23.8
24.08
23.75
23.01
22.02
20.92
19.78
18.67
17.63
16.63
15.62
14.48
13.09
11.3
9.02
6.24
3.04
-0.44
-4.0
-7.53
-10.98
-14.46
-18.12
-22.09
-26.36
-30.81
-35.21
-39.36
-43.23
-46.97
-50.9
-55.56
-61.52
-69.35
-79.42
-91.68
-105.32
-118.59
-128.86
-133.2
-129.24
-116.02
-94.26
-66.04
-33.94
-0.17
33.81
67.14
99.1
128.72
154.82
176.36
192.85
204.31
211.01
212.95
209.74
200.9
186.49
167.57
146.16
124.77
105.68
90.4
79.29
71.66
66.04
60.54
53.45
43.63
30.92
16.18
0.92
-13.26
-25.29
-35.05
-43.19
-50.63
-58.02
-65.32
-71.93
-76.95
-79.57
-79.28
-75.82
-69.12
-59.2
-46.35
-31.28
-15.3
-0.04
12.96
22.75
29.32
33.4
35.98
37.69
38.42
37.45
33.93
27.45
18.49
8.4
-0.97
-7.96
-11.52
-11.56
-8.7
-3.95
1.7
7.5
12.9
17.29
19.93
20.03
17.14
11.59
4.54
-2.24
-7.09
-9.14
-8.6
-6.56
-4.38
-3.1
-3.12
-4.24
-6.04
-8.18
-10.69
-13.97
-18.64
-25.23
-33.93
-44.4
-55.75
-66.75
-76.16
-83.07
-87.14
-88.53
-87.61
-84.73
-80.05
-73.67
-65.78
-56.84
-47.49
-38.37
-29.97
-22.48
-15.84
-9.93
-4.71
-0.32
2.99
4.86
5.09
3.62
0.6
-3.69
-8.78
-14.06
-18.76
-22.07
-23.4
-22.46
-19.49
-15.05
-9.88
-4.61
0.41
5.08
9.38
13.24
16.46
18.76
19.95
20.07
19.43
18.48
17.72
17.5
17.95
19.01
20.44
22.02
23.54
24.89
26.03
26.9
27.43
27.52
27.15
26.36
25.29
24.17
23.17
22.39
21.78
21.22
20.47
19.32
17.6
15.19
12.04
8.09
3.29
-2.41
-9.04
-16.52
-24.72
-33.52
-42.89
-52.95
-63.91
-75.87
-88.61
-101.41
-113.08
-122.22
-127.53
-128.19
-123.97
-115.27
-102.91
-87.98
-71.65
-55.1
-39.45
-25.71
-14.61
-6.44
-0.94
2.71
5.7
9.21
14.16
20.85
28.97
37.6
45.46
51.22
53.9
53.16
49.46
43.92
37.92
32.65
28.79
26.45
25.37
25.18
25.66
26.71
28.24
29.97
31.4
31.91
30.96
28.28
23.94
18.25
11.54
4.01
-4.32
-13.57
-23.78
-34.69
-45.8
-56.5
-66.37
-75.44
-84.1
-92.83
-101.75
-110.26
-117.07
-120.67
-119.79
-114.01
-103.93
-90.87
-76.54
-62.46
-49.55
-38.01
-27.41
-16.91
-5.71
6.66
20.07
33.83
46.89
58.26
67.34
74.02
78.64
81.7
83.54
84.27
83.73
81.71
78.17
73.3
67.61
61.76
56.39
51.87
48.24
45.17
42.16
38.79
34.91
30.73
26.66
23.14
20.37
18.28
16.57
14.88
12.97
10.75
8.29
5.74
3.19
0.67
-1.82
-4.33
-6.99
-9.98
-13.59
-18.06
-23.42
-29.34
-35.05
-39.47
-41.52
-40.42
-35.97
-28.55
-18.97
-8.24
2.67
12.97
22.05
29.52
35.14
38.9
40.91
41.46
40.89
39.58
37.91
36.19
34.74
33.77
33.37
33.46
33.84
34.22
34.36
34.16
33.63
32.86
31.94
30.88
29.58
27.89
25.73
23.12
20.2
17.13
14.07
11.11
8.26
5.53
2.91
0.37
-2.12
-4.67
-7.43
-10.47
-13.77
-17.1
-20.13
-22.59
-24.39
-25.67
-26.82
-28.28
-30.42
-33.39
-37.08
-41.07
-44.66
-46.99
-47.2
-44.64
-39.06
-30.83
-20.76
-10.02
0.24
9.1
16.04
20.93
23.92
25.31
25.43
24.63
23.2
21.45
19.61
17.92
16.46
15.27
14.3
13.51
12.87
12.39
12.02
11.63
10.94
9.63
7.42
4.25
0.29
-4.11
-8.5
-12.5
-15.8
-18.16
-19.44
-19.55
-18.48
-16.36
-13.47
-10.19
-6.93
-4.02
-1.66
0.08
1.21
1.83
2.03
2.07
2.32
3.34
5.7
9.77
15.56
22.63
30.21
37.41
43.53
48.2
51.39
53.26
54.01
53.76
52.55
50.39
47.34
43.51
39.1
34.28
29.24
24.14
19.23
14.84
11.33
9.05
8.2
8.75
10.33
12.37
14.19
15.21
15.19
14.27
12.9
11.6
10.74
10.34
10.19
10.01
9.63
9.08
8.45
7.66
6.29
3.65
-1.0
-8.08
-17.45
-28.37
-39.6
-49.71
-57.47
-62.09
-63.5
-62.24
-59.36
-55.98
-52.98
-50.73
-48.87
-46.57
-42.75
-36.54
-27.64
-16.45
-3.98
8.45
19.65
28.82
35.62
40.07
42.32
42.54
40.86
37.45
32.66
27.01
21.05
15.23
9.79
4.76
0.05
-4.37
-8.43
-11.93
-14.67
-16.51
-17.52
-17.95
-18.12
-18.32
-18.72
-19.32
-20.04
-20.75
-21.44
-22.25
-23.47
-25.4
-28.21
-31.66
-35.08
-37.53
-38.05
-36.02
-31.42
-24.79
-17.07
-9.23
-2.0
4.27
9.53
13.91
17.52
20.39
22.48
23.79
24.35
24.31
23.9
23.32
22.71
22.14
21.58
21.02
20.43
19.8
19.12
18.4
17.57
16.58
15.34
13.79
11.91
9.72
7.29
4.75
2.24
-0.13
-2.28
-4.2
-5.93
-7.52
-9.09
-10.7
-12.43
-14.31
-16.34
-18.46
-20.64
-22.79
-24.85
-26.78
-28.58
-30.33
-32.19
-34.35
-36.92
-39.76
-42.39
-44.04
-43.9
-41.38
-36.31
-29.01
-20.17
-10.61
-1.1
7.76
15.52
21.89
26.66
29.78
31.31
31.48
30.65
29.22
27.59
26.1
24.95
24.22
23.9
23.83
23.86
23.86
23.72
23.39
22.85
22.04
20.92
19.47
17.73
15.81
13.88
12.06
10.42
8.9
7.35
5.6
3.55
1.2
-1.29
-3.73
-5.98
-7.97
-9.77
-11.47
-13.19
-15.0
-16.93
-18.99
-21.14
-23.35
-25.6
-27.87
-30.17
-32.56
-35.09
-37.73
-40.23
-42.11
-42.71
-41.45
-38.05
-32.66
-25.86
-18.43
-11.18
-4.65
0.91
5.57
9.58
13.24
16.8
20.39
23.97
27.4
30.46
32.94
34.68
35.63
35.85
35.48
34.73
33.93
33.42
33.51
34.36
35.93
37.96
40.03
41.68
42.56
42.49
41.48
39.65
37.2
34.31
31.13
27.72
24.1
20.16
15.74
10.62
4.7
-1.92
-8.93
-15.82
-22.08
-27.35
-31.52
-34.7
-37.12
-39.03
-40.61
-42.03
-43.43
-44.94
-46.56
-48.09
-49.08
-48.98
-47.3
-43.83
-38.69
-32.34
-25.37
-18.35
-11.71
-5.71
-0.49
3.85
7.24
9.64
11.08
11.74
11.89
11.82
11.81
11.94
12.18
12.35
12.31
11.99
11.41
10.68
9.83
8.76
7.29
5.18
2.19
-1.82
-6.85
-12.75
-19.28
-26.12
-32.86
-39.03
-44.05
-47.31
-48.3
-46.75
-42.76
-36.88
-30.0
-23.19
-17.39
-13.3
-11.28
-11.35
-13.26
-16.5
-20.36
-24.04
-26.76
-28.03
-27.71
-26.17
-24.11
-22.41
-21.88
-23.03
-26.03
-30.56
-35.74
-40.13
-41.93
-39.4
-31.46
-18.15
-0.77
18.53
37.45
54.37
68.72
80.88
91.69
101.86
111.57
120.53
128.21
134.12
137.9
139.29
138.03
133.92
126.98
117.69
107.16
96.93
88.59
83.21
80.98
81.07
82.0
82.07
79.79
74.19
64.82
51.61
34.84
15.14
-6.48
-28.7
-50.08
-69.33
-85.51
-98.09
-106.87
-111.92
-113.45
-111.83
-107.63
-101.58
-94.47
-86.97
-79.5
-72.25
-65.29
-58.66
-52.41
-46.62
-41.3
-36.33
-31.56
-26.79
-21.96
-17.13
-12.5
-8.3
-4.7
-1.8
0.46
2.12
3.27
3.98
4.34
4.53
4.76
5.19
5.88
6.7
7.36
7.55
7.03
5.75
3.87
1.69
-0.45
-2.3
-3.73
-4.79
-5.62
-6.41
-7.36
-8.57
-10.06
-11.75
-13.46
-15.03
-16.38
-17.56
-18.75
-20.28
-22.4
-25.17
-28.3
-31.08
-32.63
-32.1
-29.01
-23.4
-15.82
-7.1
1.86
10.31
17.76
23.93
28.72
32.12
34.16
34.94
34.64
33.5
31.85
30.06
28.43
27.14
26.24
25.64
25.19
24.8
24.41
24.01
23.6
23.08
22.32
21.13
19.47
17.36
14.96
12.44
9.95
7.56
5.26
3.05
0.89
-1.14
-3.01
-4.66
-6.06
-7.27
-8.36
-9.47
-10.73
-12.29
-14.2
-16.46
-18.98
-21.58
-24.12
-26.51
-28.72
-30.81
-32.88
-35.07
-37.54
-40.39
-43.59
-46.84
-49.57
-51.0
-50.44
-47.45
-42.06
-34.69
-26.05
-16.83
-7.72
0.78
8.26
14.41
19.05
22.18
23.92
24.55
24.39
23.7
22.7
21.56
20.43
19.46
18.78
18.43
18.42
18.7
19.14
19.64
20.02
20.11
19.79
18.97
17.69
16.09
14.36
12.66
11.06
9.47
7.75
5.82
3.67
1.49
-0.51
-2.13
-3.33
-4.19
-4.9
-5.67
-6.56
-7.54
-8.52
-9.39
-10.15
-10.88
-11.69
-12.7
-14.01
-15.67
-17.7
-20.0
-22.32
-24.17
-24.95
-24.03
-21.03
-15.91
-9.09
-1.26
6.77
14.35
21.07
26.78
31.42
34.95
37.25
38.21
37.87
36.47
34.46
32.31
30.43
29.03
28.06
27.36
26.75
26.06
25.18
24.01
22.41
20.24
17.41
13.93
9.97
5.78
1.63
-2.28
-5.85
-9.08
-12.06
-14.85
-17.49
-20.01
-22.45
-24.9
-27.5
-30.35
-33.43
-36.6
-39.64
-42.3
-44.4
-45.94
-47.0
-47.74
-48.21
-48.35
-47.95
-46.74
-44.55
-41.3
-37.18
-32.56
-27.85
-23.43
-19.51
-16.13
-13.17
-10.46
-7.76
-4.75
-1.04
3.83
10.29
18.49
28.24
38.94
49.72
59.67
68.04
74.42
78.67
80.84
81.06
79.45
76.07
70.99
64.32
56.22
47.0
37.07
26.85
16.8
7.25
-1.59
-9.64
-16.88
-23.31
-28.87
-33.55
-37.32
-40.22
-42.37
-43.88
-44.88
-45.51
-45.91
-46.28
-46.78
-47.46
-48.15
-48.38
-47.54
-45.0
-40.39
-33.71
-25.41
-16.27
-7.19
1.03
7.84
13.01
16.53
18.54
19.21
18.66
17.03
14.47
11.24
7.62
3.92
0.33
-3.07
-6.4
-9.79
-13.32
-16.82
-19.88
-21.88
-22.27
-20.75
-17.46
-12.97
-8.18
-4.02
-1.2
-0.07
-0.54
-2.29
-4.76
-7.25
-8.84
-8.52
-5.34
1.09
10.28
20.8
30.55
37.57
40.69
39.96
36.35
31.25
25.78
20.49
15.58
11.2
7.72
5.69
5.45
6.83
9.08
11.16
12.19
11.84
10.4
8.47
6.69
5.32
4.29
3.3
2.1
0.66
-0.74
-1.66
-1.7
-0.65
1.37
3.95
6.5
8.39
9.2
8.78
7.32
5.22
2.97
0.87
-1.11
-3.34
-6.43
-11.01
-17.48
-25.83
-35.42
-45.04
-53.03
-57.69
-57.73
-52.73
-43.43
-31.58
-19.48
-9.17
-1.82
2.67
5.45
8.09
11.79
16.89
22.68
27.79
30.73
30.4
26.52
19.61
10.81
1.45
-7.3
-14.71
-20.57
-25.01
-28.32
-30.71
-32.23
-32.86
-32.54
-31.23
-28.84
-25.18
-20.05
-13.37
-5.39
3.22
11.45
18.36
23.38
26.61
28.78
30.89
33.87
38.22
43.89
50.46
57.27
63.65
69.09
73.22
75.86
76.88
76.23
73.92
70.03
64.82
58.66
52.0
45.25
38.58
31.9
24.85
16.98
7.99
-2.07
-12.85
-23.86
-34.77
-45.5
-56.22
-67.0
-77.48
-86.65
-93.01
-95.15
-92.41
-85.4
-75.89
-66.04
-57.34
-49.85
-42.03
-31.56
-16.47
3.91
28.55
55.21
81.25
104.41
123.16
136.51
143.72
144.19
137.72
124.8
106.88
86.17
65.06
45.43
28.25
13.52
0.63
-11.09
-22.04
-32.22
-41.35
-49.15
-55.48
-60.39
-63.98
-66.33
-67.44
-67.23
-65.62
-62.56
-58.14
-52.61
-46.4
-40.07
-34.21
-29.28
-25.48
-22.72
-20.7
-19.01
-17.32
-15.39
-13.14
-10.63
-7.96
-5.29
-2.83
-0.81
0.57
1.11
0.72
-0.64
-3.05
-6.61
-11.47
-17.76
-25.35
-33.79
-42.17
-49.34
-54.15
-55.82
-54.22
-49.91
-43.93
-37.53
-31.73
-27.17
-24.02
-22.11
-21.12
-20.74
-20.8
-21.29
-22.29
-23.84
-25.89
-28.28
-30.86
-33.61
-36.74
-40.61
-45.62
-52.02
-59.82
-68.76
-78.39
-88.0
-96.59
-102.75
-104.81
-101.22
-91.06
-74.39
-52.25
-26.35
1.49
29.77
57.51
84.05
108.77
130.9
149.63
164.3
174.68
180.95
183.59
183.11
179.82
173.87
165.28
154.25
141.18
126.7
111.53
96.17
80.81
65.4
49.76
33.83
17.67
1.39
-14.83
-30.64
-45.26
-57.4
-65.5
-68.23
-65.14
-56.94
-45.21
-31.82
-18.17
-4.89
7.95
20.35
31.98
42.1
49.88
54.82
56.86
56.34
53.86
50.17
46.18
42.82
40.8
40.26
40.54
40.41
38.57
34.3
27.8
20.09
12.53
6.23
1.61
-1.62
-4.14
-6.67
-9.77
-13.65
-18.16
-22.8
-26.78
-29.29
-29.62
-27.48
-23.1
-17.21
-10.82
-4.95
-0.3
2.95
5.07
6.67
8.27
10.07
11.79
12.87
12.8
11.52
9.49
7.67
7.02
8.17
11.04
14.96
18.9
21.78
22.74
21.24
17.07
10.43
1.91
-7.51
-16.76
-24.96
-31.79
-37.58
-43.08
-48.97
-55.43
-61.91
-67.44
-71.06
-72.3
-71.23
-68.27
-63.76
-57.78
-50.19
-41.02
-30.73
-20.11
-9.97
-0.64
8.08
16.69
25.39
33.71
40.58
44.89
46.1
44.59
41.46
38.02
35.21
33.37
32.4
31.95
31.69
31.19
29.87
26.99
21.86
14.16
4.23
-7.0
-18.3
-28.62
-37.46
-44.99
-51.82
-58.69
-66.12
-74.05
-81.82
-88.24
-92.03
-92.17
-88.33
-80.92
-70.89
-59.24
-46.67
-33.39
-19.48
-5.39
7.72
18.25
24.8
27.06
26.23
24.68
24.96
28.76
36.28
46.35
57.18
67.16
75.42
81.8
86.38
89.01
89.11
85.91
78.93
68.34
55.1
40.56
25.87
11.48
-2.94
-18.1
-34.5
-51.95
-69.54
-85.86
-99.56
-109.72
-116.02
-118.66
-118.21
-115.26
-110.38
-103.83
-95.66
-85.79
-74.21
-61.27
-47.83
-35.1
-24.28
-16.18
-10.94
-8.02
-6.51
-5.41
-3.94
-1.65
1.59
5.59
9.87
13.73
16.43
17.45
16.67
14.59
12.19
10.71
11.1
13.73
18.18
23.47
28.47
32.31
34.58
35.18
34.01
30.91
25.69
18.65
10.83
3.99
0.14
0.6
5.37
12.98
21.06
27.4
30.8
31.48
30.58
29.55
29.32
30.12
31.52
32.85
33.51
33.13
31.57
28.83
25.01
20.33
15.03
9.34
3.31
-3.26
-10.72
-19.5
-29.73
-41.13
-52.9
-63.89
-73.05
-79.84
-84.65
-88.76
-93.83
-101.13
-110.71
-121.09
-129.64
-133.53
-130.94
-121.67
-107.11
-89.58
-71.5
-54.83
-40.86
-30.15
-22.41
-16.36
-10.0
-1.34
10.56
24.86
39.34
51.48
59.92
65.12
68.96
73.38
79.24
85.99
92.29
97.15
100.51
103.28
106.58
111.13
117.04
124.28
133.02
143.51
155.5
167.45
176.46
178.85
171.6
153.63
126.65
94.9
63.9
38.82
22.96
17.14
19.96
28.72
40.48
52.74
63.64
71.84
76.34
76.44
71.83
62.71
49.97
34.98
19.22
3.91
-10.24
-23.08
-34.79
-45.57
-55.44
-64.22
-71.76
-78.25
-84.25
-90.58
-97.91
-106.4
-115.56
-124.48
-132.24
-138.4
-143.13
-147.0
-150.49
-153.57
-155.66
-155.85
-153.43
-148.26
-140.96
-132.73
-124.97
-118.87
-114.91
-112.68
-110.73
-106.96
-99.23
-86.16
-67.75
-45.46
-21.83
0.38
18.89
32.39
40.55
43.66
42.38
37.6
30.36
21.84
13.28
5.66
-0.39
-4.74
-7.64
-9.53
-10.88
-12.02
-13.11
-14.26
-15.55
-17.14
-19.27
-22.16
-25.86
-29.99
-33.74
-35.93
-35.34
-31.11
-22.98
-11.41
2.48
17.29
31.56
44.07
53.97
60.81
64.51
65.38
64.04
61.31
58.03
54.91
52.37
50.47
49.0
47.6
45.89
43.58
40.54
36.73
32.23
27.14
21.62
15.79
9.8
3.77
-2.21
-8.03
-13.5
-18.42
-22.57
-25.83
-28.28
-30.23
-32.22
-34.77
-38.16
-42.18
-46.04
-48.54
-48.46
-45.0
-38.13
-28.58
-17.68
-6.84
2.75
10.37
15.68
18.59
19.03
16.99
12.64
6.46
-0.77
-8.09
-14.66
-19.97
-23.91
-26.59
-28.1
-28.27
-26.7
-22.93
-16.74
-8.35
1.47
11.67
21.11
28.87
34.26
36.88
36.5
33.12
27.0
18.72
9.22
-0.38
-9.0
-15.83
-20.41
-22.58
-22.36
-19.86
-15.23
-8.78
-1.0
7.42
15.7
23.11
29.1
33.28
35.54
35.98
34.99
33.27
31.83
31.84
34.34
39.9
48.35
58.75
69.53
78.89
85.33
88.04
87.07
83.22
77.66
71.45
65.23
59.19
53.18
47.05
40.73
34.28
27.68
20.79
13.23
4.7
-4.71
-14.33
-22.92
-29.05
-31.58
-30.12
-25.13
-17.83
-9.72
-2.11
4.14
8.71
11.64
13.1
13.26
12.17
9.9
6.64
2.74
-1.33
-5.04
-7.95
-9.84
-10.73
-10.88
-10.64
-10.37
-10.29
-10.49
-10.98
-11.78
-12.94
-14.53
-16.54
-18.8
-21.03
-22.94
-24.4
-25.57
-26.8
-28.48
-30.79
-33.56
-36.36
-38.68
-40.07
-40.24
-38.98
-35.95
-30.77
-23.08
-12.74
-0.11
14.0
28.41
41.87
53.33
62.07
67.72
70.18
69.61
66.34
60.89
53.89
46.05
38.1
30.74
24.52
19.76
16.54
14.69
13.84
13.53
13.34
12.89
11.97
10.47
8.4
5.86
3.03
0.06
-2.9
-5.81
-8.75
-11.85
-15.18
-18.75
-22.39
-25.84
-28.85
-31.23
-32.97
-34.24
-35.37
-36.77
-38.86
-41.79
-45.28
-48.59
-50.53
-49.91
-45.89
-38.33
-27.89
-15.82
-3.59
7.51
16.67
23.52
28.1
30.64
31.46
30.85
29.15
26.72
23.93
21.23
19.02
17.61
17.08
17.33
18.08
19.05
20.01
20.84
21.43
21.72
21.61
21.01
19.94
18.42
16.49
14.14
11.3
7.89
3.93
-0.42
-4.94
-9.38
-13.63
-17.7
-21.65
-25.59
-29.55
-33.52
-37.36
-40.75
-43.15
-43.8
-41.95
-37.07
-29.15
-18.71
-6.84
5.17
16.06
24.92
31.2
34.83
36.04
35.27
33.07
30.04
26.73
23.66
21.22
19.64
18.93
18.9
19.23
19.65
20.01
20.32
20.65
20.99
21.15
20.84
19.73
17.72
14.96
11.83
8.71
5.84
3.18
0.45
-2.67
-6.41
-10.75
-15.39
-19.94
-24.01
-27.4
-30.11
-32.3
-34.26
-36.31
-38.75
-41.77
-45.3
-48.89
-51.62
-52.32
-49.9
-43.75
-34.05
-21.83
-8.62
3.98
14.74
23.05
28.83
32.4
34.11
34.23
32.95
30.47
27.2
23.74
20.74
18.72
17.86
17.97
18.67
19.57
20.46
21.33
22.23
23.14
23.83
23.94
23.11
21.14
18.13
14.4
10.41
6.59
3.19
0.21
-2.55
-5.41
-8.54
-11.98
-15.5
-18.78
-21.54
-23.66
-25.21
-26.49
-27.86
-29.72
-32.29
-35.59
-39.26
-42.54
-44.43
-43.84
-39.99
-32.67
-22.4
-10.35
1.95
13.04
21.81
27.79
31.02
31.99
31.31
29.58
27.24
24.66
22.19
20.12
18.73
18.17
18.36
19.05
19.87
20.47
20.63
20.32
19.62
18.68
17.59
16.37
14.91
13.06
10.61
7.42
3.44
-1.19
-6.09
-10.75
-14.69
-17.64
-19.7
-21.24
-22.8
-24.83
-27.5
-30.65
-33.96
-37.09
-39.87
-42.26
-44.29
-45.97
-47.31
-48.37
-49.35
-50.39
-51.38
-51.61
-49.86
-44.67
-35.01
-20.75
-2.84
16.9
36.37
53.66
67.44
76.83
81.38
80.92
75.72
66.56
54.81
42.19
30.42
20.76
13.77
9.33
6.86
5.6
4.86
4.27
3.71
3.26
3.11
3.32
3.8
4.14
3.85
2.44
-0.2
-3.66
-7.02
-9.09
-8.87
-5.9
-0.42
6.6
13.85
19.97
23.94
25.29
24.17
21.27
17.54
13.9
10.91
8.6
6.66
4.68
2.51
0.25
-1.92
-4.07
-6.61
-10.06
-14.55
-19.45
-23.38
-24.78
-22.62
-17.02
-9.23
-1.18
5.34
9.26
10.42
9.31
6.62
2.92
-1.4
-5.98
-10.34
-13.7
-15.28
-14.45
-11.08
-5.61
1.06
7.93
14.24
19.69
24.39
28.64
32.66
36.35
39.33
41.07
41.03
38.78
34.07
26.83
17.35
6.42
-4.62
-14.05
-20.29
-22.46
-20.76
-16.45
-11.29
-6.92
-4.3
-3.59
-4.35
-5.98
-8.15
-10.76
-13.89
-17.53
-21.45
-25.28
-28.8
-32.1
-35.58
-39.66
-44.4
-49.21
-52.84
-53.84
-51.13
-44.49
-34.72
-23.37
-12.19
-2.5
4.95
10.09
13.26
14.93
15.54
15.43
14.91
14.24
13.63
13.19
12.95
12.87
12.9
13.03
13.29
13.74
14.4
15.27
16.24
17.15
17.77
17.9
17.44
16.44
15.08
13.57
12.06
10.54
8.84
6.7
3.9
0.44
-3.46
-7.38
-10.84
-13.5
-15.27
-16.3
-16.9
-17.34
-17.81
-18.35
-18.95
-19.6
-20.36
-21.31
-22.54
-24.14
-26.21
-28.82
-31.93
-35.2
-37.98
-39.4
-38.54
-34.85
-28.29
-19.38
-9.07
1.6
11.64
20.27
26.94
31.32
33.38
33.32
31.61
28.88
25.76
22.77
20.27
18.44
17.29
16.78
16.78
17.17
17.83
18.62
19.33
19.76
19.73
19.16
18.1
16.76
15.37
14.11
12.99
11.87
10.58
8.94
6.98
4.88
2.92
1.37
0.35
-0.25
-0.72
-1.45
-2.79
-4.94
-7.95
-11.72
-15.93
-20.15
-23.79
-26.25
-27.11
-26.37
-24.47
-22.16
-20.14
-18.63
-17.3
-15.36
-12.07
-7.15
-1.0
5.53
11.49
16.21
19.44
21.31
22.04
21.84
20.78
18.89
16.3
13.31
10.33
7.79
6.05
5.24
5.29
5.88
6.61
7.13
7.24
7.02
6.74
6.71
7.13
8.0
9.09
10.06
10.64
10.71
10.34
9.75
9.16
8.73
8.47
8.28
8.08
7.86
7.77
8.01
8.75
10.09
11.97
14.29
16.91
19.61
22.12
24.1
25.33
25.84
26.08
26.81
28.83
32.61
38.03
44.4
50.67
55.81
59.03
59.98
58.7
55.57
51.17
46.22
41.33
36.8
32.5
27.86
22.17
14.92
6.11
-3.69
-13.61
-22.8
-30.71
-37.19
-42.22
-45.75
-47.72
-48.46
-49.08
-51.4
-57.25
-67.42
-80.81
-94.54
-105.0
-109.43
-107.09
-99.44
-89.2
-78.98
-70.26
-63.22
-57.45
-52.68
-49.16
-47.42
-47.61
-48.97
-49.89
-48.39
-42.88
-32.73
-18.6
-2.09
14.62
29.36
40.31
46.26
46.64
41.6
32.0
19.35
5.69
-6.78
-16.08
-20.89
-20.81
-16.43
-9.12
-0.66
7.17
13.04
16.34
17.17
16.15
14.08
11.64
9.2
6.73
3.96
0.59
-3.59
-8.48
-13.77
-19.02
-23.95
-28.54
-33.11
-38.16
-44.03
-50.66
-57.51
-63.64
-68.14
-70.29
-69.73
-66.32
-60.04
-50.93
-39.15
-25.23
-10.12
4.8
18.02
28.3
34.96
38.07
38.39
37.17
35.75
35.2
36.0
37.89
39.96
41.01
39.91
36.06
29.6
21.43
13.01
6.02
1.85
1.26
4.02
8.93
14.06
17.36
17.28
13.42
6.61
-1.47
-9.03
-14.93
-19.14
-22.45
-25.88
-29.94
-34.24
-37.58
-38.51
-35.86
-29.19
-18.87
-5.81
8.67
23.22
36.51
47.43
55.14
59.25
59.79
57.13
51.88
44.67
36.1
26.76
17.16
7.8
-0.8
-8.12
-13.56
-16.57
-16.74
-13.99
-8.62
-1.38
6.75
14.7
21.53
26.64
29.82
31.26
31.46
31.07
30.68
30.57
30.58
30.16
28.5
24.85
18.73
10.17
-0.34
-11.85
-23.17
-32.99
-40.15
-43.8
-43.6
-39.78
-33.05
-24.45
-15.07
-5.87
2.41
9.16
13.95
16.49
16.75
15.02
12.03
8.7
5.95
4.43
4.32
5.41
7.3
9.58
11.99
14.37
16.57
18.36
19.36
19.19
17.65
14.74
10.8
6.26
1.52
-3.12
-7.55
-11.76
-15.77
-19.61
-23.25
-26.66
-29.7
-32.12
-33.55
-33.53
-31.75
-28.17
-23.12
-17.22
-11.18
-5.6
-0.81
3.08
6.1
8.37
9.95
10.98
11.65
12.26
13.13
14.52
16.52
18.91
21.23
22.89
23.32
22.23
19.71
16.18
12.29
8.6
5.44
2.81
0.59
-1.33
-2.84
-3.71
-3.79
-3.22
-2.52
-2.45
-3.76
-6.88
-11.79
-17.99
-24.66
-30.8
-35.44
-37.71
-37.04
-33.31
-26.85
-18.5
-9.35
-0.55
6.97
12.69
16.48
18.6
19.44
19.47
19.06
18.45
17.74
17.02
16.39
16.0
16.05
16.62
17.67
18.97
20.17
20.93
21.05
20.52
19.46
18.01
16.21
14.02
11.3
8.03
4.34
0.54
-2.99
-5.94
-8.25
-10.12
-11.88
-13.79
-15.97
-18.4
-20.98
-23.65
-26.39
-29.1
-31.48
-33.0
-33.02
-31.06
-26.98
-21.13
-14.21
-7.08
-0.49
5.08
9.44
12.67
14.97
16.57
17.69
18.52
19.23
19.97
20.86
21.96
23.22
24.51
25.58
26.18
26.11
25.26
23.66
21.43
18.77
15.91
13.08
10.54
8.47
6.93
5.87
5.05
4.15
2.89
1.13
-1.06
-3.47
-5.85
-8.11
-10.3
-12.65
-15.37
-18.54
-22.0
-25.4
-28.4
-30.86
-32.99
-35.3
-38.4
-42.77
-48.5
-55.25
-62.25
-68.49
-72.88
-74.47
-72.64
-67.23
-58.68
-47.89
-35.86
-23.28
-10.25
3.66
18.92
35.49
52.47
68.31
81.34
90.48
95.61
97.36
96.56
93.78
89.13
82.55
74.25
64.92
55.66
47.57
41.32
36.96
33.99
31.59
29.0
25.69
21.51
16.61
11.37
6.16
1.25
-3.29
-7.58
-11.77
-15.87
-19.71
-22.96
-25.37
-26.83
-27.42
-27.43
-27.17
-26.89
-26.73
-26.78
-27.03
-27.52
-28.27
-29.31
-30.65
-32.32
-34.34
-36.71
-39.38
-42.13
-44.52
-45.86
-45.43
-42.69
-37.52
-30.32
-21.88
-13.13
-4.8
2.66
9.07
14.38
18.54
21.49
23.23
23.88
23.77
23.26
22.73
22.38
22.28
22.41
22.71
23.08
23.48
23.81
23.99
23.96
23.64
22.96
21.89
20.4
18.54
16.42
14.23
12.17
10.38
8.88
7.53
6.12
4.44
2.44
0.26
-1.8
-3.44
-4.47
-4.94
-5.13
-5.37
-5.99
-7.16
-8.91
-11.22
-14.06
-17.35
-21.03
-24.91
-28.79
-32.56
-36.22
-39.82
-43.36
-46.54
-48.79
-49.33
-47.47
-42.89
-35.78
-26.79
-16.81
-6.8
2.47
10.45
16.83
21.51
24.62
26.42
27.23
27.46
27.41
27.32
27.37
27.62
28.08
28.66
29.28
29.9
30.54
31.28
32.18
33.17
34.01
34.36
33.86
32.35
29.94
26.99
23.94
21.18
18.95
17.3
16.13
15.17
14.04
12.33
9.69
5.89
0.95
-4.87
-11.19
-17.64
-23.98
-30.11
-35.99
-41.53
-46.5
-50.57
-53.39
-54.72
-54.48
-52.75
-49.63
-45.19
-39.48
-32.52
-24.45
-15.57
-6.35
2.61
10.59
16.8
20.44
20.9
18.02
12.32
5.09
-1.98
-7.12
-9.11
-7.59
-3.04
3.47
10.69
17.5
23.14
27.2
29.62
30.6
30.54
29.95
29.3
28.92
28.92
29.11
29.1
28.36
26.39
22.96
18.21
12.59
6.81
1.55
-2.73
-5.91
-8.15
-9.81
-11.21
-12.59
-14.05
-15.6
-17.22
-18.94
-20.82
-22.92
-25.32
-28.05
-31.16
-34.6
-38.11
-41.19
-43.11
-43.05
-40.39
-34.99
-27.27
-18.13
-8.69
0.09
7.6
13.66
18.37
21.86
24.19
25.34
25.26
24.05
22.09
19.9
18.01
16.82
16.4
16.6
17.14
17.8
18.48
19.17
19.89
20.52
20.86
20.66
19.78
18.16
15.95
13.39
10.73
8.23
6.03
4.17
2.54
0.9
-0.98
-3.21
-5.78
-8.47
-11.04
-13.26
-15.06
-16.48
-17.71
-18.99
-20.63
-22.9
-25.93
-29.6
-33.37
-36.39
-37.64
-36.32
-32.1
-25.37
-17.05
-8.3
-0.13
6.81
12.3
16.32
18.97
20.32
20.43
19.52
17.95
16.18
14.68
13.71
13.31
13.38
13.69
14.09
14.47
14.84
15.21
15.59
15.94
16.14
16.03
15.43
14.24
12.44
10.18
7.65
5.1
2.69
0.51
-1.5
-3.41
-5.34
-7.33
-9.34
-11.3
-13.13
-14.79
-16.32
-17.8
-19.39
-21.24
-23.46
-26.03
-28.71
-31.04
-32.36
-31.97
-29.38
-24.52
-17.81
-10.02
-2.07
5.28
11.54
16.52
20.17
22.51
23.48
23.12
21.59
19.26
16.62
14.18
12.35
11.31
11.11
11.61
12.63
13.94
15.29
16.43
17.16
17.35
16.92
15.84
14.13
11.87
9.27
6.62
4.24
2.3
0.76
-0.65
-2.3
-4.43
-7.05
-9.91
-12.64
-14.97
-16.87
-18.49
-20.11
-21.98
-24.21
-26.74
-29.3
-31.46
-32.63
-32.24
-29.86
-25.4
-19.14
-11.71
-3.95
3.36
9.63
14.56
18.09
20.34
21.45
21.58
20.88
19.55
17.84
16.07
14.51
13.38
12.73
12.52
12.7
13.18
13.93
14.9
15.97
16.89
17.37
17.14
16.06
14.17
11.71
8.97
6.21
3.55
0.96
-1.74
-4.7
-7.95
-11.33
-14.47
-16.96
-18.52
-19.14
-19.14
-19.02
-19.29
-20.34
-22.3
-24.97
-27.86
-30.24
-31.32
-30.4
-27.17
-21.78
-14.87
-7.32
0.0
6.47
11.78
15.9
18.85
20.64
21.3
20.88
19.61
17.83
15.95
14.33
13.18
12.56
12.42
12.63
13.09
13.71
14.46
15.26
15.99
16.44
16.32
15.38
13.51
10.78
7.48
4.01
0.79
-1.91
-3.93
-5.31
-6.15
-6.62
-6.93
-7.3
-7.9
-8.87
-10.29
-12.18
-14.55
-17.42
-20.79
-24.53
-28.25
-31.34
-33.01
-32.59
-29.74
-24.61
-17.81
-10.24
-2.8
3.8
9.2
13.3
16.19
17.96
18.69
18.44
17.33
15.59
13.57
11.6
10.0
8.95
8.5
8.55
8.89
9.2
9.06
8.05
5.9
2.64
-1.34
-5.45
-9.19
-12.4
-15.4
-18.81
-23.26
-29.02
-35.85
-43.01
-49.62
-54.9
-58.48
-60.56
-61.95
-63.98
-68.23
-76.07
-87.91
-102.53
-116.71
-125.68
-124.42
-109.45
-80.35
-40.27
5.04
49.09
86.74
115.35
134.78
146.22
150.93
149.46
141.67
127.39
107.06
81.98
54.08
25.47
-1.93
-26.36
-46.13
-59.66
-65.66
-63.7
-54.56
-40.19
-23.14
-5.9
9.8
23.1
33.78
41.73
46.73
48.43
46.78
42.27
35.82
28.41
20.51
11.83
1.68
-10.46
-24.21
-37.91
-48.88
-54.23
-51.79
-40.96
-23.1
-1.23
20.85
39.6
52.85
60.21
62.92
63.18
63.07
63.86
65.68
67.74
68.9
68.2
65.1
59.44
51.37
41.16
29.22
16.21
3.05
-9.12
-19.23
-26.55
-30.85
-32.38
-31.77
-29.72
-26.85
-23.54
-20.03
-16.49
-13.15
-10.36
-8.55
-8.13
-9.3
-12.05
-16.07
-20.82
-25.74
-30.29
-34.1
-36.95
-38.82
-39.86
-40.38
-40.76
-41.42
-42.66
-44.53
-46.76
-48.79
-49.88
-49.42
-47.06
-42.86
-37.22
-30.76
-24.05
-17.61
-11.89
-7.3
-4.32
-3.33
-4.47
-7.38
-11.2
-14.83
-17.31
-18.23
-17.81
-16.66
-15.36
-14.0
-11.99
-8.23
-1.64
8.44
21.83
37.68
54.7
71.6
87.28
100.92
111.91
119.7
123.85
124.06
120.31
112.9
102.41
89.53
74.96
59.24
42.86
26.28
10.1
-4.96
-18.12
-28.71
-36.32
-40.97
-43.05
-43.21
-42.17
-40.58
-38.86
-37.28
-35.96
-34.92
-34.18
-33.79
-33.71
-33.87
-34.05
-33.95
-33.26
-31.84
-29.85
-27.74
-26.03
-25.06
-24.68
-24.19
-22.52
-18.61
-11.83
-2.32
8.84
19.93
28.98
34.39
35.45
32.6
27.13
20.65
14.41
8.93
3.96
-1.04
-6.47
-12.26
-18.04
-23.51
-28.74
-34.1
-39.93
-45.99
-51.23
-53.95
-52.47
-45.86
-34.46
-19.84
-4.22
10.21
22.02
30.74
36.64
40.33
42.3
42.71
41.5
38.68
34.52
29.65
24.83
20.77
17.85
16.06
15.14
14.72
14.54
14.53
14.69
15.04
15.5
15.82
15.7
14.93
13.47
11.51
9.4
7.52
6.11
5.2
4.68
4.31
3.87
3.16
2.11
0.68
-1.13
-3.24
-5.58
-8.04
-10.56
-13.12
-15.72
-18.34
-20.94
-23.37
-25.49
-27.23
-28.63
-29.84
-31.14
-32.83
-35.13
-38.16
-41.74
-45.42
-48.44
-49.94
-49.18
-45.85
-40.2
-32.96
-25.17
-17.82
-11.66
-7.05
-3.96
-2.11
-1.1
-0.57
-0.36
-0.57
-1.49
-3.47
-6.64
-10.84
-15.65
-20.62
-25.51
-30.38
-35.48
-41.04
-47.03
-53.22
-59.15
-64.3
-68.15
-70.34
-70.71
-69.57
-67.74
-66.47
-67.04
-69.97
-74.3
-77.09
-73.85
-59.58
-30.35
15.18
75.05
144.08
215.06
280.56
334.82
375.07
401.89
418.46
429.09
437.5
445.46
452.38
455.84
452.71
440.46
418.02
386.11
346.91
303.36
258.3
213.79
170.74
129.15
88.67
49.27
11.64
-22.8
-52.34
-75.46
-91.38
-100.25
-103.1
-101.67
-98.05
-94.46
-92.76
-94.1
-98.53
-105.02
-111.84
-117.15
-119.57
-118.5
-114.18
-107.47
-99.58
-91.69
-84.67
-78.75
-73.49
-68.0
