-20.25
-28.23
-36.76
-45.3
-53.21
-60.0
-65.53
-70.12
-74.48
-79.44
-85.67
-93.25
-101.36
-108.24
-111.51
-108.83
-98.84
-81.74
-59.34
-34.5
-10.22
11.3
29.03
42.99
53.75
61.82
67.38
70.4
70.86
69.13
65.97
62.35
59.13
56.8
55.35
54.4
53.55
52.56
51.53
50.76
50.46
50.44
50.13
48.7
45.51
40.41
33.81
26.56
19.47
12.96
6.87
0.59
-6.56
-14.94
-24.33
-34.04
-43.1
-50.74
-56.63
-61.02
-64.69
-68.76
-74.35
-82.28
-92.67
-104.53
-115.77
-123.42
-124.51
-117.07
-100.94
-77.99
-51.53
-25.24
-1.93
17.05
31.84
43.4
52.8
60.59
66.77
71.06
73.29
73.71
72.92
71.71
70.65
69.97
69.49
68.8
67.56
65.71
63.54
61.47
59.89
58.77
57.67
55.81
52.39
46.95
39.6
30.98
22.08
13.86
6.87
1.08
-4.06
-9.36
-15.52
-22.8
-30.96
-39.35
-47.24
-54.14
-59.95
-65.02
-69.94
-75.37
-81.93
-90.05
-99.81
-110.65
-121.07
-128.68
-130.66
-124.6
-109.53
-86.5
-58.42
-29.12
-2.11
20.4
37.89
51.07
61.17
69.17
75.49
80.13
82.98
84.15
83.99
82.99
81.54
79.82
77.8
75.4
72.64
69.77
67.14
65.07
63.63
62.56
61.36
59.47
56.57
52.62
47.9
42.79
37.59
32.34
26.93
21.14
14.89
8.3
1.68
-4.66
-10.56
-16.16
-21.77
-27.73
-34.19
-40.96
-47.58
-53.51
-58.41
-62.32
-65.74
-69.48
-74.49
-81.46
-90.44
-100.47
-109.45
-114.42
-112.36
-101.23
-80.86
-53.25
-22.01
8.82
36.03
58.15
75.44
89.24
101.03
111.68
121.37
129.85
137.01
143.08
148.68
154.46
160.82
167.73
174.86
181.88
188.69
195.49
202.57
210.15
218.09
225.91
232.95
238.56
242.25
243.7
242.59
238.59
231.44
221.18
208.3
193.52
177.38
159.69
139.23
114.06
82.27
42.71
-4.59
-58.34
-116.37
-175.86
-233.62
-286.22
-330.51
-364.39
-387.61
-402.1
-411.5
-420.01
-430.95
-445.78
-463.67
-481.91
-496.73
-504.23
-501.25
-485.85
-457.66
-417.86
-369.23
-315.69
-261.7
-211.57
-168.5
-134.13
-108.36
-89.85
-76.54
-66.31
-57.42
-48.67
-39.47
-29.94
-20.95
-13.97
-10.55
-11.45
-15.97
-21.71
-25.29
-23.71
-15.46
-1.15
16.91
35.84
53.24
67.75
78.85
86.31
89.73
88.7
83.12
73.74
62.17
50.25
39.33
29.74
20.9
11.89
2.08
-8.59
-19.79
-31.13
-42.24
-52.68
-61.66
-68.04
-70.56
-68.25
-60.74
-48.25
-31.36
-10.71
13.08
39.26
66.71
93.85
118.86
140.18
156.82
168.56
175.74
178.99
179.05
176.7
172.91
168.78
165.34
163.17
162.1
161.27
159.55
156.22
151.34
145.72
140.53
136.73
134.79
134.65
135.81
137.43
138.42
137.39
132.77
122.98
106.78
83.71
54.33
20.46
-14.93
-48.17
-75.61
-94.57
-104.16
-105.53
-101.39
-95.0
-89.14
-85.5
-84.72
-86.67
-90.84
-96.29
-101.55
-104.63
-103.32
-95.87
-81.62
-61.39
-37.28
-12.02
11.74
31.99
47.72
58.82
65.93
70.15
72.8
75.09
77.96
81.9
86.9
92.54
98.16
103.04
106.67
108.71
109.07
107.84
105.16
101.24
96.31
90.71
84.84
79.13
73.77
68.59
63.02
56.36
48.11
38.28
27.58
17.08
7.87
0.51
-5.08
-9.47
-13.29
-16.85
-20.05
-22.65
-24.65
-26.65
-29.88
-35.77
-45.45
-59.07
-75.41
-91.86
-104.98
-111.43
-109.02
-97.59
-79.2
-57.58
-36.92
-20.32
-8.78
-1.02
5.79
14.55
26.75
41.78
57.17
69.83
77.59
80.16
79.06
76.6
74.63
73.81
73.74
73.58
72.82
71.39
69.27
66.08
60.99
53.25
42.89
30.96
19.18
9.01
1.0
-5.36
-11.16
-17.35
-24.24
-31.48
-38.48
-44.88
-50.89
-57.22
-64.86
-74.5
-86.01
-98.29
-109.52
-117.78
-121.76
-121.17
-116.75
-109.81
-101.78
-94.01
-87.61
-83.43
-81.84
-82.3
-83.27
-82.38
-77.11
-65.47
-46.65
-21.05
10.01
44.6
80.41
114.69
144.27
165.88
176.89
176.05
164.11
143.75
118.81
93.1
69.34
48.7
31.08
15.9
2.88
-7.61
-14.81
-18.15
-17.78
-14.65
-10.28
-6.2
-3.61
-2.99
-4.16
-6.35
-8.63
-10.22
-10.97
-11.41
-12.61
-15.73
-21.48
-29.98
-40.69
-52.76
-65.28
-77.45
-88.58
-97.96
-104.92
-108.84
-109.43
-106.87
-101.96
-95.81
-89.41
-82.97
-75.51
-64.97
-49.01
-26.3
2.36
34.01
64.69
91.18
112.14
128.15
140.48
149.86
155.8
157.12
153.03
144.12
132.37
120.4
110.25
102.56
96.51
90.43
82.68
72.44
59.86
45.98
32.22
19.8
9.25
0.12
-8.75
-18.74
-30.97
-45.98
-63.51
-82.57
-101.57
-118.6
-131.92
-140.57
-144.78
-145.97
-146.13
-146.95
-149.33
-153.11
-157.45
-161.08
-162.57
-160.21
-152.12
-136.48
-112.21
-79.63
-40.72
1.12
41.89
77.89
106.41
126.01
136.46
138.51
133.85
125.1
115.6
108.76
107.13
111.46
120.56
132.08
144.0
155.88
168.9
184.28
201.33
216.31
223.43
217.61
197.52
167.0
133.8
106.19
89.23
82.89
82.62
81.92
75.21
59.78
35.94
6.25
-25.72
-56.36
-82.69
-102.99
-117.31
-127.49
-136.7
-148.03
-162.98
-180.61
-197.72
-210.17
-214.58
-209.8
-197.52
-181.99
-168.75
-162.81
-166.73
-179.37
-195.68
-208.2
-209.63
-195.45
-165.66
-124.74
-79.94
-38.64
-6.0
16.44
30.73
41.42
53.62
70.91
93.51
117.79
137.31
145.36
137.85
115.18
82.06
45.69
13.14
-10.47
-22.48
-22.23
-10.65
9.7
34.32
57.02
71.15
71.81
57.74
32.03
0.93
-28.4
-50.23
-61.64
-62.65
-55.33
-42.73
-28.14
-14.4
-3.58
3.43
7.11
9.08
11.49
16.12
23.61
33.13
42.83
50.48
54.27
53.32
47.73
38.35
26.68
14.53
3.88
-3.55
-6.85
-6.24
-3.03
0.99
4.3
6.32
7.26
7.61
7.39
5.83
1.76
-5.59
-16.12
-28.83
-42.37
-55.68
-68.1
-79.03
-87.56
-92.59
-93.51
-90.98
-87.2
-85.2
-87.47
-94.65
-105.13
-115.66
-122.74
-123.85
-118.04
-105.72
-88.09
-66.58
-42.68
-18.02
5.69
26.75
43.89
56.54
64.88
69.64
71.79
72.3
71.98
71.5
71.33
71.72
72.62
73.93
75.5
77.32
79.43
81.54
82.85
81.94
77.21
67.41
52.46
33.76
14.02
-3.53
-16.08
-22.08
-21.65
-16.52
-9.72
-4.77
-4.91
-12.25
-27.11
-48.11
-72.66
-97.92
-121.43
-141.28
-155.54
-161.69
-156.78
-138.44
-106.59
-64.47
-18.28
24.73
58.86
81.72
94.37
99.78
100.89
99.29
95.24
88.66
80.02
70.61
61.72
53.63
45.03
33.55
16.98
-5.27
-31.55
-58.39
-81.63
-97.74
-104.72
-102.19
-90.9
-72.32
-48.32
-21.06
6.96
33.22
55.67
73.19
85.69
93.59
97.22
96.41
90.68
79.64
63.6
43.62
21.43
-0.97
-21.46
-37.72
-47.42
-48.53
-40.08
-22.84
0.48
25.84
49.04
66.97
78.31
83.4
83.58
80.32
74.74
67.52
59.1
50.05
41.11
33.23
27.37
24.35
24.62
28.16
34.3
41.9
49.61
56.25
61.19
64.37
66.01
66.3
65.04
61.67
55.59
46.62
35.15
22.08
8.34
-5.49
-19.26
-33.14
-47.28
-61.61
-75.78
-89.28
-101.49
-111.66
-118.83
-121.84
-119.6
-111.53
-97.84
-79.7
-58.95
-37.5
-16.78
2.67
21.1
39.17
57.3
75.16
91.57
104.92
113.89
118.14
118.65
117.4
116.52
117.43
120.33
124.2
127.53
129.09
128.59
126.74
124.86
124.1
124.7
125.78
125.63
122.45
115.12
103.65
88.91
72.21
54.71
37.14
19.99
3.53
-12.3
-28.33
-46.35
-68.73
-97.35
-132.2
-170.46
-206.65
-234.24
-248.09
-246.67
-233.05
-213.88
-196.86
-187.42
-186.56
-190.72
-193.82
-190.08
-176.5
-153.61
-124.43
-92.62
-61.04
-31.39
-4.83
17.4
34.02
44.46
49.61
51.82
54.09
58.74
66.41
76.0
85.35
92.36
95.93
96.3
94.8
93.14
92.74
94.36
98.03
103.37
109.72
116.12
121.28
123.76
122.53
117.58
110.17
102.18
94.89
87.88
78.98
65.6
46.56
23.41
-0.01
-19.32
-32.01
-38.53
-41.83
-45.38
-51.16
-58.61
-65.04
-67.13
-62.26
-49.29
-28.75
-2.7
25.38
50.87
68.54
73.76
64.19
40.97
8.89
-24.92
-53.37
-71.68
-78.53
-75.79
-66.96
-55.52
-43.96
-33.74
-25.94
-21.68
-21.91
-26.66
-34.43
-42.3
-46.86
-45.65
-38.33
-26.78
-14.25
-3.98
2.14
4.13
3.53
2.46
2.32
3.01
2.81
-0.91
-10.55
-27.08
-49.27
-73.75
-95.96
-111.71
-118.47
-116.05
-106.11
-91.21
-73.8
-55.65
-37.91
-21.29
-6.3
6.71
17.59
26.32
32.71
36.43
37.2
35.14
31.05
26.3
22.27
19.62
18.06
16.66
14.46
11.1
6.85
2.35
-1.81
-5.33
-8.24
-10.71
-12.95
-15.14
-17.47
-20.08
-22.92
-25.81
-28.42
-30.52
-32.13
-33.59
-35.39
-37.94
-41.32
-45.16
-48.8
-51.6
-53.24
-53.84
-54.02
-54.62
-56.51
-60.32
-66.32
-74.22
-83.03
-90.96
-95.78
-95.41
-88.83
-76.55
-60.4
-42.85
-26.05
-11.29
0.9
10.3
16.72
20.24
21.59
22.46
25.02
30.97
40.58
52.32
63.52
71.51
74.64
72.59
66.05
56.06
43.81
30.79
19.0
10.69
7.52
9.4
14.05
17.73
17.0
10.68
0.78
-8.47
-12.73
-9.81
-0.61
11.37
21.45
25.32
19.78
3.15
-24.54
-61.27
-102.74
-142.55
-173.39
-189.3
-188.04
-172.42
-149.67
-128.53
-115.52
-112.2
-114.77
-116.43
-110.96
-95.67
-72.19
-44.71
-17.07
9.46
35.99
63.98
92.78
118.64
136.23
141.56
134.67
120.17
105.34
96.78
97.54
106.06
117.51
126.53
129.76
127.09
120.99
114.66
110.13
107.45
105.12
101.3
95.05
86.63
77.12
67.57
58.31
48.84
38.22
25.72
11.4
-3.72
-17.98
-29.62
-37.43
-41.27
-41.97
-41.04
-40.01
-39.87
-40.79
-42.13
-42.74
-41.5
-37.67
-31.21
-22.76
-13.45
-4.34
4.03
11.83
19.76
28.5
38.13
47.9
56.61
63.14
67.08
68.6
67.97
64.97
58.79
48.4
33.22
13.45
-10.02
-36.07
-63.69
-91.77
-118.48
-140.9
-155.56
-159.92
-154.07
-141.43
-127.96
-119.77
-120.5
-129.93
-144.37
-158.91
-169.95
-176.81
-181.6
-187.72
-197.91
-212.89
-230.97
-248.51
-260.95
-263.8
-253.33
-227.3
-185.57
-130.69
-67.79
-4.15
52.23
94.13
116.9
119.67
106.0
83.43
61.35
47.67
45.45
51.58
58.46
58.24
47.61
30.29
15.72
14.53
33.46
72.29
124.5
180.78
233.25
277.5
311.98
335.91
347.11
341.85
316.96
272.43
213.16
148.41
89.25
45.15
21.46
18.66
33.69
61.86
98.44
139.4
181.11
220.17
253.44
279.21
298.18
313.44
329.03
347.44
367.51
384.03
389.66
378.25
347.77
301.18
244.76
184.83
124.54
62.87
-3.79
-78.44
-160.42
-244.5
-322.47
-386.29
-431.01
-455.96
-463.91
-459.07
-445.05
-423.79
-395.98
-362.18
-323.84
-283.66
-244.88
-209.96
-179.34
-150.97
-120.94
-85.05
-40.8
11.2
66.5
117.91
157.7
180.33
184.58
173.95
155.42
136.89
124.81
122.76
131.41
149.43
174.45
203.7
234.2
262.86
286.87
304.33
314.64
318.45
316.95
311.1
301.09
286.29
265.87
239.37
206.83
168.68
125.83
79.91
33.56
-9.95
-47.78
-78.92
-105.1
-130.54
-160.45
-199.1
-248.7
-309.39
-379.89
-458.22
-541.62
-625.78
-704.34
-769.45
-813.68
-832.56
-825.93
-797.45
-752.35
-694.99
-627.42
-549.83
-462.07
-365.56
-263.83
-161.86
-64.25
26.22
108.98
185.28
257.13
326.48
394.7
461.73
525.28
580.07
618.34
632.22
617.34
575.62
515.83
451.04
394.05
353.08
329.92
321.04
320.34
321.9
321.15
314.62
299.24
272.21
232.66
183.37
131.54
87.36
60.37
54.83
67.0
86.04
98.44
94.17
71.04
35.24
-2.36
-31.82
-48.73
-54.88
-55.53
-55.29
-55.64
-55.41
-53.37
-50.43
-49.72
-54.51
-65.35
-78.65
-87.92
-86.5
-70.45
-40.06
0.46
44.26
83.51
110.61
118.92
103.99
65.1
6.72
-61.24
-125.16
-171.42
-190.82
-181.9
-152.13
-115.53
-88.52
-84.96
-112.16
-168.89
-246.15
-330.47
-408.33
-469.88
-510.37
-529.1
-527.2
-505.88
-466.45
-411.69
-347.5
-282.62
-226.07
-183.43
-153.96
-130.53
-103.01
-63.59
-10.94
49.03
106.23
150.95
178.02
188.22
187.07
182.09
179.67
183.49
194.29
210.58
229.76
248.76
264.44
273.69
273.41
260.7
233.7
192.67
140.89
84.62
31.76
-10.45
-37.79
-49.98
-49.59
-40.12
-24.33
-4.08
18.71
40.95
58.08
65.54
60.75
44.47
20.69
-4.84
-26.67
-41.04
-46.51
-43.65
-34.58
-22.19
-9.32
1.75
9.57
13.37
12.72
6.97
-4.71
-22.72
-46.08
-71.84
-95.38
-111.89
-118.52
-115.93
-108.41
-102.33
-103.38
-114.01
-132.0
-151.14
-163.48
-162.35
-144.79
-112.4
-70.58
-26.23
14.65
48.79
75.76
97.16
114.96
130.33
143.56
154.85
165.37
177.54
194.04
216.09
242.29
268.83
291.11
306.03
313.56
316.55
319.1
324.36
333.1
343.76
353.88
361.78
367.56
372.76
378.99
386.38
392.8
394.31
386.46
365.84
330.72
281.23
218.63
144.94
62.83
-24.18
-111.69
-194.94
-269.94
-334.93
-391.04
-441.72
-490.74
-539.98
-588.2
-631.41
-664.58
-683.54
-685.99
-671.41
-640.28
-593.28
-531.15
-455.38
-368.86
-275.99
-182.06
-92.24
-10.74
59.81
118.79
167.77
210.21
250.36
291.89
336.32
382.14
424.98
458.66
476.88
475.05
451.8
408.86
351.39
286.84
223.02
165.67
117.15
76.88
43.4
16.49
-3.7
-17.43
-27.19
-37.88
-55.11
-82.01
-116.85
-152.98
-182.04
-200.25
-210.32
-220.18
-238.31
-269.34
-312.0
-360.39
-407.25
-437.18
-438.66
-407.54
-349.55
-276.98
-201.89
-131.77
-69.52
-15.67
30.18
66.82
93.03
108.36
113.93
112.26
106.23
98.78
90.84
82.22
70.78
53.72
28.96
-3.1
-38.92
-72.4
-96.28
-104.34
-93.52
-65.87
-28.15
10.15
39.88
53.46
46.36
17.97
-28.98
-89.18
-155.42
-218.42
-267.33
-291.78
-285.53
-250.04
-195.34
-137.4
-91.91
-67.81
-63.82
-70.14
-73.99
-66.09
-43.91
-11.18
25.46
60.62
92.28
121.12
148.34
173.9
195.98
212.4
222.37
227.54
231.76
239.63
254.35
275.94
300.91
323.23
336.78
337.66
325.46
303.2
275.86
248.3
223.74
203.55
187.84
176.66
170.52
169.87
174.03
180.44
185.07
184.15
176.21
163.37
150.8
144.71
149.44
165.39
188.48
211.67
227.56
230.86
219.82
196.46
165.72
133.99
107.28
89.48
81.01
78.78
77.38
71.35
57.44
35.75
9.03
-19.06
-45.94
-71.17
-96.05
-122.37
-151.21
-182.46
-214.95
-246.91
-276.08
-299.69
-315.02
-320.38
-316.51
-306.76
-296.0
-288.19
-284.16
-280.96
-273.45
-257.41
-232.2
-201.63
-172.3
-150.56
-139.79
-139.37
-145.43
-152.83
-156.91
-154.69
-145.3
-130.09
-112.36
-96.48
-86.43
-84.14
-88.48
-95.73
-101.22
-101.44
-95.49
-85.08
-73.19
-62.32
-53.4
-45.83
-38.39
-30.15
-20.94
-11.01
-0.64
9.97
20.54
30.32
38.11
42.6
43.09
40.06
35.18
30.83
29.23
31.72
38.26
47.49
57.2
64.93
68.57
66.8
59.39
47.33
32.77
18.56
7.52
1.5
0.76
3.83
8.1
10.88
10.32
5.98
-1.5
-10.97
-21.4
-32.19
-42.89
-52.77
-60.59
-64.8
-64.19
-58.48
-48.56
-36.14
-23.14
-10.92
0.02
9.88
19.09
27.92
36.22
43.5
49.19
52.89
54.48
54.14
52.22
49.2
45.6
41.96
38.74
36.23
34.5
33.4
32.62
31.71
30.25
27.95
24.74
20.9
16.94
13.39
10.54
8.22
5.92
3.04
-0.81
-5.55
-10.8
-16.17
-21.48
-26.86
-32.74
-39.66
-48.09
-58.31
-70.11
-82.57
-93.96
-102.0
-104.53
-100.24
-89.11
-72.39
-52.15
-30.54
-9.45
9.6
25.34
36.67
42.82
43.66
39.8
32.48
23.24
13.46
4.21
-3.87
-10.5
-15.63
-19.26
-21.1
-20.35
-15.76
-6.01
9.51
30.16
53.84
77.48
97.96
113.0
121.48
123.34
118.98
108.89
93.63
74.1
51.92
29.31
8.8
-7.66
-19.16
-26.05
-29.6
-31.42
-32.94
-35.03
-37.87
-41.02
-43.58
-44.3
-42.01
-35.96
-26.25
-13.99
-1.05
10.61
19.61
25.64
29.42
32.14
34.85
37.94
41.23
44.18
46.38
47.71
48.34
48.44
48.1
47.24
45.82
44.0
42.18
40.83
40.17
40.05
39.91
39.18
37.38
34.41
30.38
25.53
20.06
14.13
7.94
1.69
-4.41
-10.35
-16.27
-22.41
-28.88
-35.55
-42.11
-48.25
-53.84
-58.95
-63.51
-67.08
-68.67
-67.05
-61.22
-50.98
-37.07
-21.02
-4.64
10.51
23.48
33.94
41.94
47.62
51.0
52.05
50.79
47.58
43.06
38.12
33.61
30.11
27.77
26.32
25.35
24.41
23.14
21.13
17.89
12.83
5.56
-3.83
-14.58
-25.43
-35.02
-42.51
-47.8
-51.5
-54.46
-57.32
-60.21
-62.8
-64.66
-65.62
-65.99
-66.41
-67.41
-69.03
-70.59
-70.88
-68.54
-62.68
-53.15
-40.59
-26.25
-11.5
2.48
14.89
25.27
33.51
39.66
43.95
46.79
48.68
50.07
51.26
52.35
53.19
53.61
53.46
52.72
51.51
49.95
48.07
45.82
43.13
40.04
36.7
33.34
30.14
27.0
23.57
19.33
13.78
6.74
-1.61
-10.74
-19.97
-28.66
-36.43
-43.22
-49.28
-55.01
-60.85
-67.11
-73.76
-80.36
-86.02
-89.5
-89.54
-85.2
-76.15
-62.85
-46.48
-28.6
-10.87
5.37
19.27
30.47
38.97
44.93
48.6
50.19
50.0
48.5
46.32
44.22
42.94
43.0
44.59
47.59
51.5
55.67
59.27
61.38
61.18
58.09
52.04
43.56
33.7
23.65
14.36
6.18
-1.17
-8.34
-15.88
-23.88
-31.77
-38.63
-43.56
-46.23
-46.96
-46.78
-46.87
-48.26
-51.46
-56.52
-63.08
-70.59
-78.42
-85.73
-91.43
-94.15
-92.49
-85.56
-73.35
-56.98
-38.5
-20.35
-4.77
6.54
12.53
12.64
7.02
-2.9
-13.89
-20.87
-17.96
-0.5
32.71
78.3
128.82
175.16
209.53
227.85
230.21
219.81
200.84
176.79
149.9
121.53
93.09
66.46
43.58
25.67
12.48
2.34
-6.76
-15.58
-22.66
-24.56
-17.49
0.32
27.04
57.29
83.91
100.64
104.25
95.1
76.11
50.99
22.69
-6.89
-36.41
-64.33
-88.61
-107.15
-118.67
-123.36
-122.93
-119.88
-116.07
-111.57
-104.2
-90.42
-67.15
-33.76
7.0
49.61
87.78
116.89
135.4
144.64
147.37
145.93
141.26
133.24
121.69
107.19
91.05
74.57
58.14
41.12
22.44
1.62
-20.51
-41.83
-59.82
-72.65
-80.07
-83.29
-84.28
-84.78
-85.62
-86.6
-86.99
-86.23
-84.28
-81.74
-79.43
-77.98
-77.55
-77.82
-78.32
-78.71
-79.04
-79.68
-81.22
-84.15
-88.65
-94.35
-100.35
-105.26
-107.5
-105.65
-98.83
-86.95
-70.66
-51.22
-30.11
-8.79
11.45
29.62
44.98
57.07
65.66
70.81
72.77
71.87
68.52
63.21
56.61
49.52
42.84
37.36
33.55
31.5
30.93
31.42
32.58
34.2
36.14
38.36
40.76
43.15
45.21
46.57
46.88
45.95
43.76
40.51
36.52
32.07
27.26
21.91
15.63
7.98
-1.43
-12.7
-25.67
-39.88
-54.71
-69.56
-83.9
-97.26
-109.22
-119.38
-127.26
-132.35
-134.07
-131.84
-125.22
-114.05
-98.65
-79.95
-59.5
-39.27
-21.37
-7.55
1.12
4.49
3.16
-1.83
-9.3
-18.05
-26.69
-33.35
-35.61
-30.95
-17.64
4.27
32.36
62.21
88.62
107.29
116.01
114.94
105.84
90.74
70.86
46.34
16.92
-16.78
-52.37
-85.69
-111.84
-126.81
-128.8
-118.48
-98.36
-71.61
-41.57
-11.8
13.62
30.41
35.46
28.54
13.05
-4.98
-19.74
-28.68
-34.06
-41.78
-58.05
-85.64
-121.8
-158.94
-187.6
-199.97
-192.41
-165.83
-124.39
-73.93
-20.64
29.37
70.49
98.28
110.8
109.69
100.12
89.07
82.63
83.8
91.89
103.75
115.83
125.85
133.02
137.27
138.37
135.56
128.28
117.11
104.04
91.85
82.87
77.92
75.94
74.77
72.43
68.39
63.84
61.15
62.59
69.17
79.9
91.91
101.39
104.78
99.9
86.79
67.73
46.58
27.48
13.35
4.75
-0.4
-5.96
-15.8
-32.1
-54.46
-80.23
-106.02
-129.31
-149.33
-166.79
-182.94
-198.39
-212.55
-223.95
-231.26
-234.41
-234.89
-235.27
-237.89
-243.52
-250.86
-256.86
-257.98
-251.25
-235.24
-210.52
-179.34
-144.87
-110.08
-76.6
-44.09
-10.57
26.22
66.86
108.88
146.82
174.21
186.44
183.02
168.05
148.55
131.46
120.95
117.33
117.76
118.28
115.89
109.54
100.0
88.72
76.57
63.32
48.03
30.15
10.35
-9.29
-26.11
-38.33
-46.15
-51.71
-57.87
-66.35
-76.33
-84.47
-86.42
-79.11
-62.35
-38.95
-13.17
11.44
33.57
54.11
74.88
96.85
119.14
139.3
154.63
163.58
166.49
165.14
161.73
157.68
153.21
147.69
140.5
131.81
122.64
114.5
108.67
105.55
104.54
104.49
104.28
103.37
101.92
100.39
99.11
97.85
95.78
91.78
84.9
74.82
61.91
47.24
32.3
18.7
7.78
0.35
-3.59
-4.81
-4.71
-4.82
-6.31
-9.62
-14.34
-19.38
-23.35
-24.97
-23.39
-18.33
-10.16
0.16
11.3
21.91
30.95
37.9
42.78
45.9
47.61
48.1
47.43
45.72
43.35
41.01
39.41
38.97
39.46
40.01
39.43
36.76
31.75
24.9
17.17
9.33
1.56
-6.67
-16.16
-27.41
-40.12
-53.35
-66.06
-77.8
-89.04
-100.86
-114.39
-130.31
-148.92
-170.62
-196.21
-226.55
-261.33
-297.69
-329.89
-350.64
-354.11
-338.9
-309.1
-272.44
-236.76
-206.6
-182.32
-161.61
-142.2
-123.74
-107.4
-93.96
-81.87
-67.18
-45.49
-14.77
23.16
63.26
99.45
127.06
143.92
150.16
147.29
137.44
123.13
107.09
92.13
80.54
73.77
72.17
75.24
81.93
91.04
101.39
111.85
121.42
129.2
134.64
137.38
137.31
134.63
130.05
124.83
120.5
118.24
118.18
119.27
119.59
117.37
111.79
103.27
93.12
82.84
73.47
65.47
59.0
54.17
51.15
50.04
50.58
52.13
53.77
54.66
54.27
52.51
49.52
45.5
40.58
34.83
28.42
21.7
15.25
9.74
5.71
3.4
2.62
2.88
3.44
3.61
2.84
0.76
-2.79
-7.83
-14.26
-21.76
-29.82
-37.79
-44.85
-50.17
-53.01
-52.8
-49.3
-42.63
-33.41
-22.63
-11.61
-1.69
6.05
10.99
13.13
12.93
11.05
8.07
4.29
-0.18
-5.24
-10.53
-15.42
-19.13
-21.14
-21.42
-20.48
-19.1
-17.95
-17.29
-16.93
-16.51
-15.75
-14.75
-13.83
-13.32
-13.26
-13.28
-12.73
-11.07
-8.08
-4.12
0.02
3.38
5.24
5.33
3.97
1.83
-0.33
-1.98
-2.9
-3.21
-3.2
-3.11
-3.05
-3.0
-2.82
-2.39
-1.54
-0.08
2.13
5.19
8.97
13.12
17.12
20.41
22.58
23.48
23.12
21.63
18.97
15.01
9.49
2.39
-5.91
-14.39
-21.54
-25.8
-26.02
-21.93
-14.29
-4.64
5.31
14.21
21.43
27.04
31.39
34.74
37.04
38.09
37.9
36.96
36.24
36.76
39.09
42.91
47.15
50.38
51.36
49.35
44.07
35.38
23.09
7.04
-12.45
-34.19
-56.22
-76.41
-93.4
-106.98
-117.81
-126.36
-131.94
-132.53
-125.7
-110.28
-87.77
-62.59
-40.8
-27.84
-26.36
-35.36
-50.82
-67.62
-81.65
-91.31
-97.56
-102.97
-109.99
-119.63
-131.0
-141.95
-150.22
-154.43
-154.22
-149.79
-141.04
-127.63
-109.4
-87.4
-64.25
-43.31
-26.99
-14.96
-4.04
10.11
30.19
55.24
80.9
102.08
116.31
125.6
135.36
150.8
173.11
197.98
217.36
223.75
214.22
191.76
163.49
136.78
115.86
100.72
88.57
76.51
63.56
51.08
41.58
36.81
36.59
38.83
40.63
39.6
34.9
27.33
18.77
11.22
6.02
3.41
2.62
2.23
0.76
-2.92
-9.27
-18.12
-28.78
-40.36
-51.93
-62.65
-71.65
-78.05
-80.98
-79.7
-73.99
-64.39
-52.22
-39.31
-27.47
-17.94
-11.11
-6.58
-3.59
-1.38
0.46
1.94
2.97
3.54
3.92
4.59
5.96
8.1
10.69
13.09
14.71
15.34
15.25
15.1
15.57
16.94
18.91
20.58
20.9
19.09
15.1
9.68
4.09
-0.41
-3.0
-3.52
-2.3
-0.12
1.95
2.43
-0.32
-7.61
-19.52
-34.34
-48.83
-59.55
-64.58
-64.59
-62.5
-61.73
-64.05
-68.4
-71.4
-69.34
-60.24
-44.73
-25.26
-4.51
15.88
35.23
52.9
67.3
75.97
76.81
69.54
56.31
40.92
27.11
17.07
10.95
7.55
5.51
4.1
3.31
3.27
3.74
4.15
4.02
3.29
2.22
1.02
-0.85
-4.81
-12.67
-25.48
-42.38
-59.97
-73.03
-76.44
-67.48
-47.46
-21.65
2.5
18.07
21.18
12.19
-4.87
-24.14
-40.15
-49.55
-51.75
-48.43
-42.33
-35.84
-30.03
-24.48
-17.96
-9.43
0.97
11.87
21.37
28.13
32.05
34.16
35.82
37.93
40.44
42.56
43.25
41.87
38.52
34.05
29.84
27.34
27.56
30.66
35.79
41.3
45.4
46.86
45.57
42.47
39.07
36.69
35.84
36.21
37.05
37.63
37.54
36.57
34.53
31.12
26.05
19.13
10.3
-0.59
-14.01
-31.02
-53.08
-81.31
-115.49
-153.1
-189.02
-216.31
-227.89
-218.79
-188.13
-139.87
-82.09
-24.86
22.57
54.14
67.95
65.85
52.16
32.44
12.94
0.48
1.69
21.43
60.45
113.46
169.46
214.41
235.72
226.38
186.88
124.53
50.95
-20.75
-78.38
-112.55
-118.38
-97.06
-56.24
-8.36
33.2
58.63
64.69
54.76
35.96
15.28
-3.09
-18.09
-30.3
-40.07
-46.75
-49.44
-48.21
-44.81
-42.2
-43.15
-48.73
-57.66
-66.83
-72.53
-72.04
-64.61
-51.66
-35.96
-20.53
-7.43
2.72
10.65
17.74
25.18
33.33
41.62
48.95
54.42
57.91
60.25
62.78
66.79
72.99
81.56
92.45
105.64
121.06
138.11
155.24
170.14
180.63
185.78
186.63
185.67
185.62
188.11
193.18
199.62
206.04
211.58
215.8
218.02
216.49
208.45
191.39
164.72
130.98
95.42
64.29
42.62
32.37
31.93
36.91
41.57
40.45
29.63
7.27
-26.39
-69.49
-119.13
-172.02
-225.09
-276.0
-323.2
-365.45
-401.21
-428.35
-444.3
-446.8
-434.88
-409.59
-374.32
-334.17
-294.95
-261.59
-236.78
-220.1
-208.28
-196.56
-180.78
-159.07
-132.31
-103.3
-74.88
-48.49
-24.07
-1.02
20.47
39.28
54.49
66.96
79.56
95.59
116.11
138.25
156.18
164.3
160.91
149.43
136.48
128.16
127.14
132.3
140.65
149.78
158.61
166.25
170.1
165.22
146.0
109.25
56.78
-4.26
-63.38
-110.51
-139.23
-148.67
-143.01
-129.16
-113.74
-100.47
-89.41
-78.01
-63.84
-46.89
-30.54
-20.17
-20.35
-32.55
-54.6
-82.34
-111.94
-141.44
-170.03
-196.12
-215.6
-222.15
-210.03
-177.54
-129.13
-74.25
-23.41
16.5
44.54
64.62
81.78
98.36
112.67
120.76
119.78
110.57
97.63
86.79
82.17
84.62
92.09
101.41
109.98
116.21
118.89
116.56
107.43
90.12
64.78
33.57
0.35
-30.38
-54.82
-70.62
-77.38
-76.35
-69.92
-60.7
-50.81
-41.36
-32.43
-23.55
-14.32
-4.71
5.11
15.22
26.22
38.97
53.88
70.04
85.1
95.81
99.38
94.62
82.5
65.55
46.7
27.99
10.11
-7.15
-23.98
-39.77
-53.09
-62.41
-67.06
-67.63
-65.5
-61.76
-56.37
-47.99
-34.95
-16.61
5.74
28.95
49.35
64.25
72.92
76.45
76.7
75.14
72.29
67.88
61.42
52.8
42.44
31.21
20.33
11.24
5.41
4.01
7.4
14.68
23.66
31.4
34.95
32.3
22.77
7.08
-12.91
-34.54
-54.87
-71.18
-81.55
-85.33
-83.07
-76.01
-65.52
-52.72
-38.62
-24.45
-11.64
-1.41
5.9
11.07
15.51
20.12
24.47
26.88
25.59
20.29
12.87
6.73
4.91
8.16
14.09
18.12
15.61
4.37
-13.75
-33.24
-47.05
-49.61
-38.93
-16.96
12.09
43.99
75.8
105.44
129.88
144.23
143.0
123.66
90.0
52.36
23.63
12.78
19.99
36.54
49.9
50.73
37.56
16.39
-3.98
-17.57
-24.35
-29.25
-38.37
-54.8
-76.92
-99.56
-116.73
-124.03
-119.56
-103.67
-78.53
-47.74
-16.1
11.35
30.85
41.29
44.04
41.41
34.74
23.61
7.16
-13.58
-34.18
-47.83
-48.61
-35.01
-11.16
15.2
36.55
48.87
52.25
48.85
40.23
25.93
4.41
-24.92
-59.87
-95.24
-123.94
-139.21
-136.84
-116.73
-83.39
-44.85
-10.3
12.87
21.21
15.89
1.3
-17.2
-35.34
-50.35
-60.4
-63.57
-57.84
-42.15
-17.79
10.86
37.22
54.71
59.23
50.49
31.94
9.28
-11.89
-27.8
-37.04
-40.14
-38.25
-32.3
-22.82
-10.26
4.42
19.58
33.35
44.08
50.91
53.88
53.71
51.33
47.67
43.55
39.71
36.92
35.82
36.53
38.52
40.82
42.41
42.77
41.94
40.36
38.51
36.48
33.78
29.43
22.27
11.57
-2.47
-18.44
-34.08
-46.98
-55.56
-59.55
-59.93
-58.23
-55.86
-53.62
-51.93
-51.17
-52.01
-55.2
-61.04
-68.82
-76.75
-82.47
-83.82
-79.61
-70.0
-56.4
-41.01
-26.11
-13.44
-3.78
3.07
8.0
12.04
15.86
19.59
22.92
25.4
26.78
27.12
26.78
26.22
25.8
25.69
25.77
25.82
25.73
25.73
26.36
28.3
32.0
37.37
43.69
49.89
54.93
58.15
59.3
58.54
56.25
53.12
50.07
48.12
48.02
49.79
52.52
54.62
54.53
51.42
45.54
38.07
30.83
25.76
24.51
28.06
36.24
47.55
59.62
70.17
78.3
85.01
92.56
102.71
115.07
126.41
131.85
127.19
111.06
85.38
54.31
22.51
-5.86
-27.23
-38.51
-37.79
-25.78
-7.11
10.22
17.72
10.15
-12.09
-43.57
-77.55
-110.3
-143.32
-181.9
-230.97
-290.82
-355.52
-414.78
-458.03
-478.33
-474.35
-449.86
-411.73
-367.41
-322.99
-282.28
-246.71
-215.88
-188.53
-163.62
-140.91
-120.75
-103.24
-87.26
-70.09
-47.88
-17.05
24.09
74.61
130.76
186.74
235.99
272.8
294.12
301.0
298.65
294.56
295.3
303.37
315.95
326.48
328.27
317.95
297.06
270.82
245.12
223.82
207.72
195.38
184.83
174.99
165.87
157.91
151.16
144.74
137.04
126.33
111.75
94.08
75.87
60.46
50.23
45.17
42.52
38.11
28.41
12.18
-9.33
-33.53
-57.99
-81.1
-101.55
-117.78
-128.17
-132.17
-131.69
-131.07
-135.39
-147.61
-166.49
-186.52
-200.26
-201.82
-189.44
-166.1
-137.67
-110.21
-87.57
-70.72
-58.73
-50.38
-45.42
-44.68
-49.16
-58.61
-70.7
-81.17
-85.15
-79.13
-62.93
-40.61
-19.83
-9.53
-16.56
-42.41
-81.8
-123.75
-155.15
-165.27
-149.5
-110.49
-56.68
1.24
54.06
96.41
127.15
148.04
161.74
170.09
173.47
171.19
162.55
147.98
129.4
109.52
90.4
72.34
53.85
32.95
8.98
-16.21
-38.63
-53.87
-59.18
-54.91
-44.25
-31.62
-20.62
-12.53
-6.3
0.25
8.7
18.85
28.77
35.8
38.07
35.5
30.0
24.65
22.26
24.13
29.69
37.02
44.04
49.56
53.6
56.96
60.33
63.57
65.62
65.03
60.82
53.18
43.49
33.72
25.45
19.2
14.28
9.44
3.7
-3.22
-10.88
-18.72
-26.66
-35.13
-44.66
-55.14
-65.41
-73.54
-77.67
-76.88
-71.59
-63.29
-53.85
-44.86
-37.27
-31.31
-26.54
-22.06
-16.72
-9.56
-0.23
10.79
22.36
33.18
42.46
50.17
56.84
63.12
69.31
75.37
81.08
86.18
90.35
92.83
92.3
87.11
75.96
58.66
36.48
11.96
-11.87
-32.39
-47.98
-58.27
-63.92
-66.27
-66.93
-67.44
-68.99
-72.14
-76.69
-81.68
-85.59
-86.82
-84.14
-77.15
-66.38
-53.16
-39.22
-26.2
-15.44
-7.91
-4.36
-5.39
-11.28
-21.49
-34.42
-47.37
-57.15
-61.08
-57.85
-47.92
-33.32
-17.01
-1.95
9.5
16.21
18.53
18.21
18.02
20.95
29.2
43.37
62.18
82.83
102.08
117.19
126.67
130.5
129.77
126.14
121.22
116.03
110.43
103.0
91.45
73.63
48.79
18.31
-14.65
-46.56
-74.84
-98.4
-116.71
-128.39
-130.93
-121.99
-102.22
-77.11
-56.29
-49.53
-61.6
-88.9
-120.37
-142.67
-146.68
-131.79
-105.43
-78.48
-59.41
-50.58
-48.45
-47.13
-42.63
-35.23
-28.63
-27.03
-31.9
-40.48
-46.55
-43.21
-25.85
5.75
47.15
90.48
126.68
148.06
150.24
133.48
102.86
67.07
35.95
17.26
13.95
23.39
38.65
51.23
54.03
43.52
20.41
-11.03
-45.23
-78.08
-109.13
-141.88
-181.72
-232.16
-291.52
-351.94
-401.9
-431.17
-435.29
-417.22
-384.99
-346.93
-307.52
-266.45
-220.8
-168.71
-111.7
-54.27
-1.4
43.93
81.9
114.97
145.97
176.37
205.86
232.46
253.57
266.71
270.16
263.67
248.76
228.69
207.56
189.08
175.29
166.07
159.48
153.13
145.64
137.28
129.64
124.39
122.32
123.04
125.53
129.07
133.93
141.44
153.37
170.84
193.27
218.11
241.11
257.35
262.5
253.81
230.74
195.31
151.65
104.91
59.71
18.94
-16.42
-46.69
-72.74
-95.68
-116.96
-138.56
-162.34
-188.74
-215.3
-236.46
-245.27
-236.46
-209.51
-169.6
-126.01
-88.64
-64.62
-56.62
-63.2
-80.37
-103.15
-126.61
-146.53
-160.07
-166.08
-165.01
-158.36
-147.7
-133.82
-116.7
-96.01
-71.86
-45.14
-17.28
10.37
36.82
61.39
83.16
100.63
112.02
116.06
112.99
104.8
94.69
85.78
79.98
77.43
76.82
76.3
74.41
70.64
65.43
59.75
54.5
50.08
46.24
42.23
37.19
30.62
22.66
14.03
5.7
-1.63
-7.88
-13.45
-18.86
-24.21
-29.05
-32.68
-34.77
-35.78
-37.0
-39.93
-45.63
-54.2
-64.75
-75.81
-85.79
-93.42
-97.83
-98.52
-95.18
-87.74
-76.48
-62.1
-45.77
-28.81
-12.35
2.88
16.65
28.82
39.2
47.31
52.66
55.11
55.13
53.75
52.18
51.23
51.08
51.34
51.4
50.81
49.42
47.38
44.97
42.6
40.79
40.06
40.73
42.6
44.93
46.65
46.92
45.51
42.92
39.94
37.13
34.53
31.63
27.84
22.78
16.39
8.78
-0.0
-9.95
-20.79
-31.65
-40.99
-46.94
-48.05
-43.93
-35.48
-24.57
-13.33
-3.29
4.95
11.69
17.56
22.9
27.45
30.58
31.72
30.95
29.18
27.83
28.23
31.03
35.95
41.97
47.89
52.76
56.22
58.28
59.15
58.87
57.29
54.11
49.14
42.48
34.58
26.19
18.1
10.91
4.82
-0.35
-5.01
-9.55
-14.16
-18.78
-23.19
-27.18
-30.63
-33.61
-36.26
-38.69
-40.8
-42.14
-42.0
-39.57
-34.28
-26.14
-15.91
-4.94
5.24
13.4
18.92
21.81
22.46
21.46
19.35
16.66
13.92
11.68
10.32
9.91
10.09
10.23
9.74
8.48
6.91
5.97
6.67
9.56
14.53
20.77
27.16
32.64
36.53
38.61
38.87
37.25
33.61
27.75
19.72
10.04
-0.31
-10.13
-18.49
-25.01
-30.09
-34.65
-39.74
-46.08
-53.82
-62.45
-71.07
-78.69
-84.73
-89.2
-92.6
-95.5
-98.06
-99.66
-99.27
-96.09
-90.29
-83.24
-77.2
-74.31
-75.8
-81.53
-90.0
-98.68
-104.36
-103.36
-92.09
-67.95
-30.78
16.13
66.0
110.32
141.77
157.04
158.02
150.67
142.07
137.33
138.09
143.05
150.11
158.28
168.24
181.22
197.15
213.53
225.91
229.8
223.06
207.14
186.46
166.01
148.67
133.88
118.16
97.38
69.34
35.11
-1.62
-36.45
-65.96
-88.15
-101.97
-106.79
-102.59
-90.95
-75.67
-62.11
-55.14
-56.78
-65.38
-77.01
-88.24
-98.36
-109.29
-123.64
-142.07
-162.16
-179.41
-189.67
-191.4
-186.0
-176.69
-166.64
-157.79
-150.62
-144.86
-140.34
-137.4
-136.61
-138.3
-142.28
-147.89
-154.29
-160.75
-166.76
-172.21
-177.48
-183.46
-191.18
-201.11
-212.47
-223.11
-230.19
-231.58
-227.08
-218.5
-208.48
-198.63
-188.14
-173.83
-151.65
-118.86
-75.54
-24.7
29.1
81.58
129.88
172.82
210.24
242.25
269.05
291.44
311.18
330.88
352.79
377.32
401.96
421.55
430.1
422.88
398.17
357.47
304.72
245.06
183.88
126.38
77.06
39.0
12.99
-2.93
-12.88
-21.51
-31.9
-44.25
-56.15
-64.01
-64.76
-56.91
-40.51
-16.62
13.08
46.17
79.22
107.97
128.18
137.01
134.06
121.6
103.8
85.21
69.44
58.25
51.68
48.59
47.38
46.42
44.33
40.22
34.0
26.45
18.93
12.72
8.26
4.77
0.57
-5.99
-15.5
-27.1
-38.89
-48.94
-56.11
-60.19
-61.35
-59.4
-53.66
-43.55
-29.56
-13.74
0.71
10.78
14.91
13.59
8.79
2.73
-3.2
-8.89
-14.89
-21.75
-29.3
-36.81
-43.45
-48.83
-53.13
-56.85
-60.38
-63.59
-65.9
-66.45
-64.55
-59.96
-52.95
-44.25
-34.94
-26.15
-18.83
-13.4
-9.7
-7.13
-5.0
-3.0
-1.27
-0.26
-0.26
-1.04
-1.9
-1.99
-0.87
1.24
3.56
5.18
5.53
4.51
2.39
-0.49
-3.85
-7.45
-10.9
-13.68
-15.39
-16.0
-16.0
-16.21
-17.34
-19.64
-22.81
-26.29
-29.59
-32.54
-35.15
-37.43
-39.11
-39.78
-39.01
-36.67
-32.96
-28.26
-22.94
-17.3
-11.56
-5.92
-0.52
4.73
10.22
16.48
23.83
32.01
40.03
46.48
50.07
50.17
47.11
41.99
36.31
31.4
28.06
26.5
26.38
27.09
27.96
28.52
28.57
28.15
27.48
26.77
26.04
25.12
23.73
21.6
18.72
15.33
11.87
8.81
6.52
5.08
4.32
3.83
3.11
1.71
-0.69
-4.15
-8.48
-13.22
-17.75
-21.43
-23.8
-24.79
-24.81
-24.69
-25.42
-27.76
-31.78
-36.76
-41.26
-43.66
-42.83
-38.55
-31.52
-23.05
-14.44
-6.62
-0.03
5.22
9.21
12.09
14.07
15.46
16.58
17.7
18.87
19.93
20.66
20.99
21.04
21.04
21.21
21.53
21.79
21.69
21.07
19.95
18.52
16.97
15.37
13.62
11.54
8.98
6.01
2.9
-0.03
-2.56
-4.68
-6.59
-8.49
-10.47
-12.35
-13.85
-14.75
-15.06
-15.02
-15.04
-15.49
-16.58
-18.36
-20.76
-23.76
-27.29
-31.2
-35.09
-38.23
-39.7
-38.71
-35.03
-29.11
-22.0
-14.8
-8.18
-2.11
4.01
10.76
18.17
25.54
31.75
35.85
37.68
37.9
37.6
37.72
38.65
40.21
42.06
44.08
46.53
49.75
53.73
57.78
60.67
61.06
58.03
51.51
42.2
31.4
20.54
10.91
3.42
-1.44
-3.74
-3.92
-2.74
-1.03
0.37
0.73
-0.52
-3.7
-8.72
-14.86
-20.71
-24.48
-24.62
-20.61
-13.35
-4.99
1.9
5.42
5.12
2.05
-1.95
-5.3
-7.52
-9.35
-12.14
-16.96
-23.88
-31.8
-38.94
-43.65
-44.95
-42.93
-38.46
-32.81
-27.12
-22.11
-18.05
-14.98
-12.89
-11.84
-11.95
-13.23
-15.56
-18.81
-22.85
-27.56
-32.58
-36.98
-39.21
-37.56
-30.94
-19.73
-5.92
7.47
17.6
22.84
23.2
19.92
14.6
8.57
2.63
-2.74
-7.24
-10.74
-13.44
-15.81
-18.23
-20.53
-21.81
-20.94
-17.29
-11.45
-5.28
-1.21
-0.97
-4.72
-10.87
-16.87
-20.42
-20.53
-17.8
-14.16
-11.96
-13.18
-18.83
-28.74
-41.63
-55.41
-67.63
-76.04
-79.07
-76.21
-68.13
-56.42
-43.03
-29.64
-17.35
-6.66
2.18
8.94
13.53
16.2
17.87
20.06
24.23
31.06
39.89
48.78
55.24
57.25
54.04
46.3
35.73
24.3
13.71
5.08
-1.03
-4.6
-6.07
-6.23
-5.91
-5.68
-5.59
-5.26
-4.26
-2.57
-0.8
0.16
-0.33
-2.09
-4.12
-5.19
-4.59
-2.62
-0.44
0.69
0.08
-2.07
-5.07
-8.25
-11.45
-14.96
-19.1
-23.83
-28.65
-32.86
-36.03
-38.13
-39.33
-39.66
-38.75
-35.94
-30.69
-23.04
-13.74
-4.09
4.59
11.46
16.32
19.55
21.69
23.1
23.85
23.82
23.03
21.8
20.85
20.94
22.44
25.12
28.11
30.4
31.31
30.92
30.03
29.7
30.68
32.94
35.66
37.68
38.03
36.42
33.34
29.7
26.36
23.75
21.76
19.94
17.84
15.28
12.36
9.39
6.61
4.11
1.76
-0.68
-3.47
-6.76
-10.55
-14.69
-18.89
-22.85
-26.35
-29.38
-32.19
-35.17
-38.73
-43.06
-47.99
-53.03
-57.45
-60.45
-61.31
-59.54
-54.91
-47.51
-37.82
-26.63
-14.91
-3.57
6.67
15.42
22.53
27.94
31.61
33.45
33.49
32.01
29.59
27.0
24.85
23.47
22.77
22.37
21.96
21.39
20.74
20.16
19.63
18.9
17.57
15.38
12.4
9.04
5.85
3.3
1.51
0.34
-0.52
-1.29
-1.99
-2.54
-2.8
-2.79
-2.64
-2.57
-2.71
-3.11
-3.7
-4.41
-5.23
-6.19
-7.33
-8.58
-9.75
-10.66
-11.27
-11.78
-12.53
-13.85
-15.77
-17.85
-19.27
-19.05
-16.38
-10.92
-2.84
7.14
17.94
28.28
36.9
42.89
46.03
46.92
46.83
47.25
49.25
52.93
57.35
60.83
61.75
59.28
53.72
46.48
39.62
35.1
34.21
37.2
43.08
49.81
54.76
55.39
50.12
38.98
23.89
8.11
-4.96
-13.15
-16.34
-16.41
-16.23
-18.22
-23.28
-30.5
-37.57
-41.91
-41.66
-36.32
-26.68
-14.36
-1.15
11.48
22.55
31.61
38.66
44.09
48.77
53.91
60.82
70.47
83.0
97.56
112.48
125.82
135.88
141.57
142.47
138.69
130.75
119.51
106.09
91.66
77.25
63.5
50.72
38.97
28.31
18.85
10.71
3.85
-1.9
-6.82
-11.18
-15.12
-18.67
-21.9
-24.93
-27.92
-30.91
-33.85
-36.52
-38.75
-40.51
-41.96
-43.39
-44.98
-46.73
-48.45
-49.82
-50.63
-50.88
-50.77
-50.58
-50.56
-50.78
-51.19
-51.64
-52.04
-52.34
-52.53
-52.57
-52.34
-51.61
-50.18
-47.94
-44.89
-41.22
-37.2
-33.15
-29.36
-26.08
-23.47
-21.62
-20.46
-19.86
-19.63
-19.53
-19.41
-19.17
-18.79
-18.29
-17.7
-17.04
-16.35
-15.7
-15.12
-14.63
-14.23
-13.86
-13.51
-13.24
-13.13
-13.32
-13.86
-14.7
-15.71
-16.75
-17.73
-18.65
-19.57
-20.54
-21.55
-22.56
-23.46
-24.24
-24.99
-25.84
-26.92
-28.26
-29.74
-31.12
-32.11
-32.42
-31.82
-30.2
-27.6
-24.23
-20.45
-16.65
-13.15
-10.13
-7.65
-5.66
-4.14
-3.09
-2.55
-2.5
-2.83
-3.35
-3.87
-4.22
-4.34
-4.19
-3.81
-3.26
-2.63
-1.99
-1.51
-1.27
-1.33
-1.69
-2.31
-3.14
-4.17
-5.35
-6.63
-7.95
-9.24
-10.44
-11.57
-12.68
-13.84
-15.11
-16.54
-18.09
-19.69
-21.21
-22.58
-23.77
-24.88
-26.1
-27.66
-29.68
-32.08
-34.47
-36.33
-37.09
-36.33
-33.96
-30.2
-25.53
-20.51
-15.66
-11.35
-7.76
-4.94
-2.83
-1.32
-0.29
0.35
0.73
0.94
