-14.38
-16.94
-19.86
-23.02
-26.21
-29.14
-31.57
-33.42
-34.85
-36.27
-38.25
-41.28
-45.46
-50.26
-54.46
-56.42
-54.57
-47.97
-36.73
-21.98
-5.6
10.35
24.14
34.69
41.57
44.95
45.35
43.47
40.09
35.98
31.83
28.23
25.53
23.92
23.38
23.73
24.64
25.79
26.84
27.52
27.71
27.4
26.65
25.53
24.1
22.32
20.18
17.6
14.59
11.22
7.68
4.25
1.2
-1.3
-3.26
-4.91
-6.62
-8.79
-11.66
-15.2
-19.09
-22.88
-26.15
-28.66
-30.49
-31.93
-33.49
-35.64
-38.74
-42.82
-47.43
-51.62
-54.03
-53.26
-48.28
-38.88
-25.81
-10.66
4.6
18.16
28.83
36.14
40.26
41.72
41.18
39.23
36.42
33.21
30.05
27.3
25.19
23.75
22.87
22.37
22.04
21.76
21.5
21.24
20.94
20.52
19.87
18.92
17.69
16.24
14.64
12.88
10.9
8.61
5.97
3.08
0.13
-2.66
-5.15
-7.37
-9.48
-11.75
-14.35
-17.33
-20.62
-23.98
-27.18
-30.04
-32.46
-34.49
-36.32
-38.25
-40.67
-43.93
-48.1
-52.82
-57.13
-59.6
-58.67
-53.18
-42.84
-28.47
-11.79
5.03
19.94
31.57
39.41
43.66
45.04
44.4
42.48
39.89
37.04
34.25
31.74
29.61
27.87
26.39
25.02
23.62
22.15
20.71
19.51
18.73
18.4
18.37
18.31
17.85
16.75
15.0
12.78
10.4
8.1
5.94
3.85
1.65
-0.76
-3.33
-5.92
-8.37
-10.65
-12.87
-15.28
-18.03
-21.18
-24.47
-27.59
-30.22
-32.27
-33.95
-35.65
-37.85
-40.95
-45.12
-50.15
-55.35
-59.53
-61.24
-59.1
-52.28
-40.9
-26.07
-9.66
6.25
19.96
30.45
37.5
41.48
43.05
42.92
41.69
39.77
37.46
34.96
32.38
29.84
27.44
25.3
23.52
22.11
21.03
20.19
19.45
18.74
18.05
17.36
16.68
15.91
14.91
13.55
11.68
9.33
6.61
3.75
0.98
-1.52
-3.66
-5.51
-7.28
-9.23
-11.63
-14.61
-18.06
-21.74
-25.25
-28.3
-30.76
-32.76
-34.59
-36.64
-39.26
-42.65
-46.84
-51.42
-55.53
-57.89
-57.02
-51.78
-41.86
-28.05
-12.08
3.9
17.92
28.77
36.07
40.12
41.54
40.97
38.96
36.02
32.66
29.34
26.47
24.26
22.69
21.58
20.67
19.73
18.71
17.71
16.97
16.72
16.99
17.56
17.92
17.5
15.92
13.19
9.71
6.1
2.91
0.34
-1.77
-3.82
-6.22
-9.15
-12.48
-15.93
-19.12
-21.8
-23.89
-25.49
-26.85
-28.32
-30.35
-33.29
-37.19
-41.52
-45.17
-46.58
-44.27
-37.49
-26.48
-12.59
2.2
15.89
27.03
35.02
39.9
42.13
42.17
40.4
37.18
32.98
28.41
24.15
20.73
18.38
17.02
16.37
16.11
16.06
16.11
16.27
16.46
16.52
16.22
15.35
13.81
11.63
9.0
6.16
3.36
0.74
-1.74
-4.24
-6.98
-10.11
-13.63
-17.32
-20.88
-23.99
-26.48
-28.41
-30.06
-31.87
-34.34
-37.84
-42.4
-47.58
-52.28
-55.04
-54.33
-49.13
-39.3
-25.79
-10.38
4.83
18.03
28.11
34.79
38.46
39.79
39.44
37.91
35.57
32.7
29.64
26.74
24.34
22.62
21.57
20.98
20.63
20.33
20.04
19.77
19.58
19.43
19.19
18.61
17.41
15.38
12.45
8.78
4.75
0.81
-2.6
-5.26
-7.27
-9.01
-10.99
-13.58
-16.9
-20.69
-24.54
-28.0
-30.84
-33.11
-35.21
-37.65
-40.95
-45.41
-50.84
-56.51
-61.14
-63.14
-61.08
-54.13
-42.47
-27.27
-10.44
5.91
20.03
30.89
38.2
42.27
43.72
43.26
41.57
39.2
36.62
34.13
31.9
30.0
28.45
27.23
26.32
25.67
25.17
24.73
24.26
23.74
23.18
22.62
22.02
21.24
20.09
18.41
16.12
13.32
10.2
7.01
3.99
1.32
-0.91
-2.78
-4.49
-6.27
-8.37
-10.86
-13.64
-16.39
-18.78
-20.6
-21.92
-23.03
-24.33
-26.14
-28.55
-31.42
-34.35
-36.74
-37.77
-36.45
-31.86
-23.33
-10.81
5.07
22.96
41.19
58.1
72.45
83.59
91.41
96.2
98.32
98.12
95.75
91.37
85.14
77.38
68.61
59.46
50.5
42.08
34.34
27.2
20.62
14.75
9.99
6.89
5.83
6.64
8.45
9.85
9.32
5.83
-0.77
-9.76
-19.95
-30.29
-40.27
-49.98
-59.7
-69.52
-78.96
-87.16
-93.29
-97.07
-99.09
-100.56
-102.69
-105.98
-109.78
-112.5
-112.3
-107.95
-99.37
-87.54
-73.74
-58.83
-42.77
-24.97
-4.85
17.3
40.27
62.24
81.51
97.06
108.72
116.91
122.09
124.6
124.61
122.46
118.91
115.07
111.97
109.96
108.34
105.58
100.02
90.79
78.31
64.14
50.18
37.68
26.6
15.59
2.59
-14.33
-36.28
-63.02
-92.69
-121.46
-143.75
-153.38
-145.66
-120.03
-81.72
-41.27
-11.53
-3.08
-20.22
-59.47
-111.36
-164.38
-209.0
-239.99
-256.13
-258.49
-248.59
-227.72
-197.63
-161.45
-123.79
-89.64
-62.63
-43.43
-29.69
-17.41
-2.94
15.14
35.43
54.53
68.47
74.54
72.24
63.33
50.9
38.24
27.78
20.67
16.88
15.62
15.92
16.92
18.04
18.91
19.28
19.02
18.25
17.45
17.37
18.93
22.76
28.96
36.87
45.26
52.57
57.39
58.85
56.85
52.17
46.32
41.28
39.01
40.94
47.51
57.94
70.29
81.81
89.52
91.0
85.06
72.21
54.69
35.92
19.58
8.7
4.92
8.3
17.55
30.45
44.43
56.89
65.54
68.78
66.01
57.97
46.64
34.81
25.26
19.78
18.56
20.06
21.55
20.08
13.51
1.23
-15.62
-34.51
-52.2
-65.58
-72.57
-72.62
-66.91
-57.87
-48.32
-40.44
-34.93
-30.91
-26.37
-19.31
-8.59
5.52
21.58
37.61
51.83
62.99
70.45
74.1
74.28
71.85
68.1
64.57
62.49
62.36
63.64
64.94
64.51
60.76
52.75
40.39
24.33
5.87
-13.29
-31.19
-45.99
-56.34
-61.77
-62.91
-61.25
-58.74
-57.03
-56.97
-58.51
-60.93
-63.35
-65.1
-65.83
-65.22
-62.73
-57.54
-48.85
-36.46
-21.23
-5.07
9.5
20.35
26.43
28.07
26.74
24.23
21.91
20.35
19.3
18.15
16.47
14.23
11.8
9.65
8.02
6.75
5.37
3.39
0.56
-2.94
-6.65
-10.09
-13.08
-15.88
-19.08
-23.32
-28.88
-35.5
-42.41
-48.67
-53.57
-57.01
-59.63
-62.52
-66.95
-73.72
-82.86
-93.31
-103.14
-109.94
-111.53
-106.63
-95.29
-78.9
-59.7
-40.06
-21.68
-5.25
9.5
23.33
36.76
49.71
61.37
70.58
76.32
78.18
76.53
72.37
66.95
61.35
56.33
52.29
49.46
48.04
48.23
50.08
53.32
57.22
60.61
62.2
60.74
55.39
45.81
32.2
15.22
-4.16
-24.72
-45.19
-64.38
-81.34
-95.52
-106.71
-114.85
-119.63
-120.34
-115.91
-105.28
-88.07
-64.92
-37.68
-8.96
18.47
42.31
61.11
74.22
81.65
83.71
80.98
74.35
65.06
54.66
44.8
36.85
31.5
28.63
27.34
26.42
24.79
21.9
17.94
13.55
9.52
6.35
4.06
2.23
0.29
-2.09
-4.85
-7.54
-9.55
-10.48
-10.44
-10.05
-10.33
-12.39
-17.12
-24.97
-35.7
-48.22
-60.61
-70.36
-74.86
-72.13
-61.42
-43.62
-21.03
3.26
26.19
45.44
59.73
68.8
73.01
73.05
69.73
63.91
56.54
48.67
41.35
35.43
31.39
29.24
28.51
28.54
28.58
28.09
26.74
24.43
21.15
16.94
11.84
5.95
-0.47
-7.07
-13.38
-19.01
-23.69
-27.39
-30.27
-32.71
-35.26
-38.62
-43.47
-50.11
-58.14
-66.17
-71.93
-72.83
-66.83
-53.29
-33.36
-9.69
14.38
35.8
52.55
63.89
70.06
71.78
69.79
64.7
57.05
47.58
37.37
27.64
19.51
13.65
10.11
8.33
7.53
7.02
6.5
6.08
6.03
6.49
7.19
7.41
6.29
3.12
-2.29
-9.46
-17.39
-24.89
-30.99
-35.33
-38.26
-40.71
-43.93
-49.02
-56.38
-65.35
-74.11
-79.98
-80.2
-72.89
-57.73
-36.28
-11.46
13.27
34.97
51.79
63.12
69.25
70.82
68.55
63.06
55.11
45.79
36.43
28.44
22.9
20.17
19.78
20.72
21.77
22.07
21.33
19.77
17.88
16.03
14.22
12.04
8.96
4.56
-1.13
-7.65
-14.2
-19.93
-24.27
-27.17
-29.1
-30.85
-33.32
-37.32
-43.35
-51.37
-60.59
-69.4
-75.53
-76.57
-70.68
-57.31
-37.58
-13.95
10.4
32.46
50.12
62.29
68.91
70.51
67.9
61.99
53.77
44.23
34.47
25.54
18.4
13.74
11.84
12.46
14.89
18.14
21.23
23.43
24.41
24.16
22.8
20.36
16.72
11.69
5.21
-2.43
-10.61
-18.45
-25.13
-30.16
-33.51
-35.57
-37.0
-38.57
-41.04
-45.04
-50.89
-58.37
-66.42
-73.21
-76.35
-73.64
-63.79
-47.02
-25.11
-0.9
22.46
42.37
57.22
66.47
70.42
69.82
65.53
58.43
49.45
39.65
30.18
22.17
16.47
13.42
12.87
14.16
16.51
19.16
21.6
23.55
24.84
25.28
24.68
22.8
19.47
14.61
8.35
0.93
-7.18
-15.34
-22.85
-29.05
-33.53
-36.3
-37.84
-38.95
-40.62
-43.7
-48.66
-55.34
-62.79
-69.26
-72.6
-70.72
-62.33
-47.46
-27.51
-4.98
17.27
36.78
51.93
62.08
67.29
67.97
64.63
57.94
48.75
38.29
28.02
19.32
13.15
9.8
8.86
9.5
10.9
12.53
14.19
15.91
17.62
18.96
19.37
18.21
15.02
9.75
2.77
-5.23
-13.42
-21.03
-27.6
-32.94
-37.29
-41.11
-45.03
-49.58
-54.99
-60.95
-66.5
-70.15
-70.19
-65.21
-54.61
-38.95
-19.88
0.22
18.9
34.22
45.08
51.21
52.95
50.9
45.79
38.45
29.88
21.27
13.87
8.68
6.19
6.19
7.88
10.17
12.07
13.01
12.92
12.05
10.75
9.11
6.92
3.75
-0.79
-6.79
-13.92
-21.46
-28.57
-34.51
-38.94
-42.0
-44.24
-46.48
-49.56
-54.02
-59.8
-66.05
-71.13
-72.94
-69.55
-59.83
-43.95
-23.48
-0.94
20.83
39.47
53.52
62.51
66.71
66.78
63.47
57.54
49.85
41.43
33.45
27.03
22.98
21.51
22.18
24.02
25.91
26.96
26.76
25.44
23.43
21.19
18.85
16.18
12.68
7.89
1.66
-5.71
-13.51
-20.93
-27.3
-32.38
-36.32
-39.68
-43.19
-47.58
-53.38
-60.72
-69.12
-77.34
-83.4
-85.01
-80.2
-68.08
-49.27
-25.9
-0.99
22.31
41.62
55.68
64.32
68.08
67.84
64.45
58.79
51.75
44.32
37.5
32.15
28.76
27.36
27.59
28.85
30.54
32.18
33.48
34.24
34.31
33.52
31.75
28.99
25.39
21.22
16.73
12.06
7.19
1.97
-3.73
-9.93
-16.42
-22.85
-28.81
-33.99
-38.39
-42.28
-46.26
-51.04
-57.06
-64.17
-71.33
-76.65
-77.85
-72.95
-61.05
-42.81
-20.34
3.34
25.18
42.94
55.53
63.01
66.12
65.84
63.03
58.45
52.77
46.82
41.47
37.52
35.49
35.32
36.45
38.03
39.21
39.48
38.79
37.47
35.94
34.49
33.06
31.28
28.72
25.05
20.27
14.78
9.19
4.18
0.19
-2.75
-5.07
-7.42
-10.46
-14.49
-19.41
-24.75
-29.9
-34.35
-37.91
-40.75
-43.34
-46.33
-50.39
-55.99
-63.09
-70.87
-77.68
-81.23
-79.27
-70.33
-54.41
-33.06
-9.0
14.7
35.38
51.39
62.12
67.73
68.77
65.93
59.98
51.93
43.01
34.65
28.08
24.13
22.91
23.89
26.07
28.41
30.21
31.18
31.43
31.24
30.77
29.93
28.41
25.84
22.02
17.1
11.56
6.04
1.13
-2.9
-6.18
-9.17
-12.42
-16.33
-21.0
-26.13
-31.22
-35.71
-39.26
-41.81
-43.67
-45.43
-47.84
-51.55
-56.87
-63.47
-70.2
-75.25
-76.48
-72.09
-61.28
-44.6
-23.94
-1.96
18.59
35.59
47.88
55.26
58.22
57.56
54.1
48.66
42.06
35.23
29.1
24.57
22.21
22.13
23.93
26.83
29.91
32.44
34.04
34.68
34.58
33.94
32.84
31.08
28.43
24.67
19.88
14.39
8.75
3.55
-0.83
-4.33
-7.27
-10.18
-13.56
-17.7
-22.51
-27.62
-32.51
-36.72
-40.01
-42.45
-44.39
-46.34
-48.94
-52.77
-58.09
-64.58
-71.14
-75.9
-76.68
-71.6
-59.82
-41.96
-20.03
3.09
24.47
41.83
54.0
60.9
63.24
62.09
58.53
53.54
47.96
42.56
38.0
34.78
33.16
33.09
34.2
35.93
37.71
39.09
39.86
39.94
39.34
38.07
36.1
33.36
29.9
25.8
21.31
16.65
11.94
7.29
2.71
-1.77
-6.06
-10.06
-13.71
-17.09
-20.39
-23.87
-27.65
-31.73
-35.94
-39.96
-43.51
-46.41
-48.71
-50.7
-52.9
-55.97
-60.56
-66.89
-74.48
-81.91
-86.94
-87.12
-80.54
-66.62
-46.43
-22.52
1.91
23.83
41.18
53.08
59.75
62.06
61.14
58.07
53.75
48.98
44.42
40.58
37.79
36.16
35.58
35.76
36.36
37.11
37.85
38.52
39.06
39.3
39.0
37.87
35.74
32.67
28.91
24.81
20.7
16.74
12.93
9.15
5.37
1.63
-1.9
-5.11
-7.98
-10.71
-13.62
-17.04
-21.13
-25.76
-30.58
-35.11
-38.99
-42.12
-44.69
-47.16
-50.13
-54.18
-59.67
-66.47
-73.71
-79.72
-82.34
-79.43
-69.68
-53.18
-31.6
-7.78
15.11
34.38
48.5
57.15
61.0
61.17
58.77
54.75
49.82
44.66
39.9
36.2
34.05
33.63
34.72
36.7
38.85
40.5
41.28
41.15
40.3
38.92
37.17
35.01
32.26
28.72
24.25
18.95
13.15
7.4
2.3
-1.78
-4.8
-7.11
-9.32
-12.05
-15.63
-20.0
-24.77
-29.39
-33.49
-36.93
-39.91
-42.77
-45.94
-49.83
-54.69
-60.58
-67.2
-73.72
-78.74
-80.5
-77.27
-68.08
-53.11
-33.85
-12.75
7.48
24.54
37.01
44.51
47.4
46.46
42.61
36.8
29.94
23.01
16.96
12.55
10.22
9.92
11.23
13.46
15.9
18.01
19.48
20.21
20.17
19.37
17.74
15.31
12.15
8.53
4.76
1.12
-2.31
-5.63
-9.14
-13.14
-17.81
-23.08
-28.6
-33.93
-38.63
-42.51
-45.64
-48.43
-51.5
-55.44
-60.52
-66.4
-72.0
-75.55
-75.04
-68.83
-56.32
-38.27
-16.67
5.78
26.36
43.06
54.84
61.56
63.77
62.28
57.99
51.89
44.97
38.29
32.75
28.97
27.11
26.89
27.72
28.94
30.08
30.86
31.26
31.22
30.65
29.24
26.74
23.0
18.22
12.85
7.43
2.37
-2.25
-6.67
-11.33
-16.54
-22.41
-28.68
-34.86
-40.46
-45.1
-48.73
-51.59
-54.19
-57.16
-61.15
-66.51
-73.03
-79.73
-84.82
-86.12
-81.61
-70.23
-52.32
-29.73
-5.32
17.87
37.34
51.7
60.65
64.77
65.0
62.38
57.86
52.33
46.68
41.69
37.98
35.81
35.03
35.13
35.54
35.78
35.73
35.52
35.3
35.07
34.54
33.21
30.58
26.43
20.94
14.66
8.33
2.56
-2.38
-6.58
-10.47
-14.51
-19.0
-23.93
-28.95
-33.52
-37.15
-39.63
-41.05
-41.98
-43.21
-45.62
-49.87
-56.08
-63.53
-70.62
-75.09
-74.61
-67.56
-53.62
-34.07
-11.45
11.15
30.96
46.23
56.42
61.97
63.78
62.79
59.76
55.33
50.13
44.89
40.37
37.17
35.5
35.17
35.65
36.32
36.69
36.58
36.03
35.23
34.34
33.32
31.97
29.95
26.96
22.87
17.88
12.44
7.18
2.64
-0.92
-3.67
-6.05
-8.64
-11.9
-15.94
-20.55
-25.24
-29.5
-32.92
-35.37
-37.08
-38.57
-40.53
-43.69
-48.56
-55.13
-62.62
-69.47
-73.47
-72.44
-64.96
-50.89
-31.67
-9.87
11.52
29.93
43.82
52.84
57.49
58.68
57.32
54.16
49.78
44.83
40.02
36.08
33.56
32.63
33.01
34.05
35.02
35.44
35.14
34.32
33.29
32.28
31.15
29.59
27.15
23.54
18.81
13.38
7.92
3.12
-0.55
-3.09
-4.9
-6.62
-8.91
-12.13
-16.18
-20.63
-24.86
-28.39
-31.09
-33.22
-35.34
-38.1
-42.04
-47.46
-54.23
-61.75
-68.78
-73.54
-74.16
-69.12
-57.98
-41.61
-22.13
-2.29
15.29
28.81
37.57
41.85
42.51
40.54
36.85
32.23
27.43
23.2
20.17
18.72
18.85
20.16
22.02
23.86
25.29
26.26
26.88
27.26
27.36
26.89
25.5
22.94
19.24
14.78
10.1
5.71
1.85
-1.54
-4.85
-8.56
-12.95
-18.02
-23.42
-28.62
-33.13
-36.7
-39.41
-41.68
-44.19
-47.59
-52.31
-58.15
-64.15
-68.67
-69.76
-65.79
-56.1
-41.27
-23.08
-4.01
13.54
27.81
37.96
44.02
46.51
46.14
43.53
39.31
34.2
29.04
24.78
22.21
21.71
23.14
25.84
28.94
31.66
33.55
34.6
35.02
34.99
34.57
33.51
31.49
28.25
23.81
18.52
12.92
7.64
3.09
-0.61
-3.73
-6.75
-10.27
-14.66
-20.03
-26.07
-32.22
-37.83
-42.39
-45.75
-48.07
-49.88
-51.91
-54.92
-59.46
-65.51
-72.26
-78.04
-80.7
-78.21
-69.37
-54.37
-34.84
-13.36
7.29
24.83
37.95
46.35
50.48
51.24
49.61
46.55
42.91
39.41
36.59
34.76
34.06
34.41
35.59
37.29
39.18
40.95
42.42
43.48
44.08
44.14
43.5
41.98
39.44
35.88
31.52
26.7
21.78
16.99
12.42
8.01
3.71
-0.48
-4.47
-8.2
-11.74
-15.26
-19.04
-23.29
-28.05
-33.14
-38.17
-42.78
-46.78
-50.19
-53.38
-56.93
-61.5
-67.56
-75.08
-83.24
-90.38
-94.23
-92.56
-83.89
-68.12
-46.79
-22.59
1.28
22.05
38.0
48.67
54.59
56.87
56.7
55.0
52.46
49.6
46.87
44.7
43.46
43.31
44.1
45.47
46.89
47.95
48.47
48.46
48.1
47.45
46.41
44.7
42.07
38.43
33.95
29.09
24.33
20.07
16.41
13.15
9.92
6.4
2.46
-1.77
-5.95
-9.76
-13.01
-15.82
-18.46
-21.38
-24.86
-28.97
-33.5
-38.02
-42.09
-45.41
-47.96
-50.0
-52.08
-54.85
-58.83
-64.09
-69.95
-74.95
-77.09
-74.36
-65.44
-50.34
-30.46
-8.3
13.21
31.52
45.02
53.2
56.49
55.88
52.47
47.29
41.23
34.97
29.22
24.6
21.59
20.41
20.85
22.31
24.08
25.51
26.29
26.47
26.34
26.11
25.82
25.25
24.08
22.07
19.2
15.64
11.73
7.8
4.07
0.69
-2.35
-5.16
-7.9
-10.79
-14.03
-17.67
-21.64
-25.68
-29.47
-32.77
-35.48
-37.72
-39.82
-42.23
-45.48
-49.99
-55.84
-62.49
-68.74
-72.78
-72.65
-66.92
-55.22
-38.53
-18.9
1.06
18.95
33.02
42.48
47.38
48.34
46.25
42.08
36.77
31.19
26.15
22.29
20.02
19.46
20.34
22.1
24.04
25.58
26.37
26.44
26.04
25.5
24.96
24.27
23.09
21.0
17.82
13.63
8.91
4.27
0.24
-2.98
-5.62
-8.2
-11.34
-15.4
-20.35
-25.7
-30.79
-34.97
-37.91
-39.7
-40.7
-41.55
-42.94
-45.5
-49.65
-55.35
-61.82
-67.51
-70.33
-68.21
-59.91
-45.47
-26.43
-5.34
15.0
32.25
45.07
53.1
56.71
56.67
53.83
49.09
43.29
37.29
31.89
27.75
25.24
24.46
25.13
26.8
28.93
31.01
32.71
33.84
34.33
34.23
33.56
32.34
30.59
28.32
25.57
22.36
18.76
14.87
10.86
6.93
3.25
-0.09
-3.21
-6.38
-9.98
-14.28
-19.32
-24.8
-30.26
-35.21
-39.32
-42.61
-45.38
-48.13
-51.48
-56.0
-61.99
-69.26
-76.87
-83.05
-85.64
-82.62
-72.88
-56.73
-35.97
-13.38
8.07
26.02
39.17
47.35
51.2
51.75
50.04
46.99
43.39
39.86
36.9
34.9
34.03
34.29
35.47
37.28
39.38
41.46
43.22
44.43
44.93
44.6
43.43
41.43
38.66
35.22
31.21
26.75
22.01
17.15
12.29
7.57
3.02
-1.32
-5.44
-9.43
-13.43
-17.58
-22.0
-26.72
-31.6
-36.38
-40.77
-44.52
-47.56
-50.02
-52.27
-54.89
-58.49
-63.53
-69.89
-76.67
-82.11
-83.98
-80.2
-69.7
-52.8
-31.33
-8.08
13.97
32.4
45.83
53.99
57.44
57.22
54.44
50.11
45.1
40.12
35.75
32.49
30.67
30.38
31.44
33.41
35.76
37.99
39.81
41.13
41.98
42.38
42.27
41.49
39.84
37.17
33.48
28.94
23.85
18.55
13.29
8.28
3.58
-0.76
-4.76
-8.53
-12.2
-15.93
-19.8
-23.83
-27.85
-31.59
-34.79
-37.33
-39.3
-41.02
-43.02
-45.87
-50.04
-55.6
-62.04
-68.12
-71.98
-71.68
-65.71
-53.73
-36.71
-16.75
3.48
21.49
35.55
44.93
49.71
50.51
48.13
43.41
37.26
30.63
24.45
19.52
16.35
15.01
15.16
16.22
17.63
19.0
20.15
21.01
21.47
21.31
20.17
17.78
14.08
9.31
3.99
-1.26
-5.98
-9.99
-13.52
-16.99
-20.82
-25.2
-29.94
-34.62
-38.77
-42.03
-44.37
-46.08
-47.7
-49.81
-52.94
-57.28
-62.57
-67.85
-71.53
-71.71
-66.73
-55.83
-39.52
-19.63
1.28
20.55
36.16
47.06
53.15
54.95
53.31
49.14
43.37
36.95
30.83
25.8
22.38
20.71
20.53
21.35
22.68
24.08
25.32
26.27
26.79
26.7
25.73
23.67
20.49
16.42
11.88
7.37
3.22
-0.47
-3.92
-7.52
-11.6
-16.31
-21.51
-26.83
-31.75
-35.93
-39.28
-42.01
-44.64
-47.79
-52.03
-57.55
-63.93
-69.96
-73.87
-73.73
-68.03
-56.31
-39.36
-19.14
1.81
21.07
36.84
48.2
55.01
57.68
56.9
53.54
48.47
42.7
37.16
32.67
29.76
28.59
28.92
30.18
31.73
33.05
33.88
34.25
34.3
34.12
33.58
32.36
30.08
26.59
22.03
16.86
11.74
7.22
3.51
0.44
-2.49
-5.91
-10.22
-15.5
-21.43
-27.45
-32.98
-37.66
-41.48
-44.78
-48.23
-52.53
-58.22
-65.36
-73.29
-80.52
-84.99
-84.62
-77.91
-64.6
-45.81
-23.86
-1.56
18.47
34.42
45.55
52.05
54.73
54.56
52.49
49.29
45.62
42.11
39.39
37.92
37.94
39.29
41.4
43.56
45.12
45.78
45.62
44.95
44.08
43.13
41.88
39.95
36.93
32.65
27.26
21.22
15.14
9.58
4.83
0.89
-2.61
-6.22
-10.43
-15.5
-21.31
-27.43
-33.31
-38.44
-42.62
-45.94
-48.82
-51.81
-55.54
-60.54
-67.0
-74.53
-81.96
-87.38
-88.47
-83.29
-70.91
-52.0
-28.68
-3.98
19.06
38.11
52.01
60.75
65.01
65.83
64.2
60.98
56.88
52.57
48.65
45.58
43.68
42.98
43.29
44.21
45.28
46.07
46.25
45.72
44.52
42.75
40.52
37.87
34.8
31.26
27.25
22.83
18.12
13.29
8.46
3.78
-0.59
-4.5
-7.84
-10.65
-13.18
-15.81
-18.97
-22.9
-27.54
-32.53
-37.33
-41.49
-44.82
-47.49
-50.03
-53.14
-57.48
-63.4
-70.6
-77.95
-83.56
-85.05
-80.39
-68.6
-50.24
-27.44
-3.28
19.04
37.12
49.75
56.98
59.66
58.91
55.81
51.23
45.94
40.7
36.27
33.3
32.11
32.58
34.18
36.12
37.71
38.55
38.61
38.12
37.37
36.46
35.3
33.62
31.11
27.58
23.07
17.88
12.55
7.6
3.46
0.28
-2.14
-4.28
-6.66
-9.73
-13.63
-18.24
-23.23
-28.19
-32.72
-36.6
-39.81
-42.54
-45.26
-48.59
-53.09
-58.98
-65.89
-72.64
-77.44
-78.23
-73.36
-62.22
-45.54
-25.34
-4.31
14.85
30.16
40.61
46.16
47.41
45.21
40.55
34.38
27.74
21.68
17.11
14.59
14.24
15.67
18.09
20.69
22.83
24.19
24.81
24.89
24.57
23.8
22.34
19.92
16.43
12.1
7.45
3.13
-0.41
-3.13
-5.44
-8.03
-11.53
-16.2
-21.77
-27.6
-32.88
-37.02
-39.81
-41.55
-42.95
-44.89
-48.17
-53.13
-59.45
-65.91
-70.7
-71.7
-67.24
-56.61
-40.46
-20.65
0.23
19.6
35.46
46.76
53.38
55.86
55.11
52.08
47.65
42.61
37.71
33.62
30.88
29.72
30.0
31.19
32.52
33.3
33.14
32.1
30.57
28.99
27.64
26.48
25.15
23.24
20.48
16.93
12.95
9.05
5.64
2.79
0.21
-2.67
-6.46
-11.48
-17.59
-24.21
-30.51
-35.73
-39.5
-41.98
-43.8
-45.85
-49.03
-53.94
-60.65
-68.48
-75.95
-80.98
-81.4
-75.59
-63.06
-44.81
-23.13
-0.92
19.07
34.95
45.98
52.43
55.13
55.06
53.06
49.71
45.52
41.07
36.99
33.95
32.43
32.58
34.14
36.57
39.19
41.53
43.31
44.47
45.05
45.03
44.28
42.64
40.0
36.4
32.03
27.16
21.98
16.68
11.36
6.21
1.4
-2.93
-6.75
-10.27
-13.84
-17.86
-22.52
-27.76
-33.31
-38.76
-43.77
-48.17
-51.98
-55.5
-59.2
-63.68
-69.45
-76.56
-84.31
-91.05
-94.5
-92.34
-83.09
-66.72
-44.85
-20.3
3.74
24.62
40.69
51.5
57.56
59.83
59.42
57.31
54.32
51.13
48.32
46.3
45.32
45.39
46.27
47.56
48.83
49.72
50.1
50.0
49.52
48.68
47.42
45.61
43.14
40.06
36.5
32.69
28.75
24.66
20.29
15.54
10.48
5.34
0.48
-3.88
-7.74
-11.32
-15.01
-19.12
-23.76
-28.82
-34.0
-38.97
-43.5
-47.53
-51.19
-54.85
-59.0
-64.16
-70.64
-78.06
-85.23
-90.13
-90.45
-84.29
-71.0
-51.52
-28.2
-4.13
17.79
35.54
48.17
55.72
58.79
58.18
54.75
49.41
43.19
37.17
32.37
29.45
28.59
29.44
31.24
33.15
34.53
35.14
35.12
34.79
34.38
33.81
32.69
30.44
26.66
21.33
14.92
8.22
2.07
-3.01
-6.99
-10.31
-13.68
-17.75
-22.82
-28.79
-35.16
-41.29
-46.59
-50.78
-53.9
-56.29
-58.54
-61.28
-65.03
-69.86
-75.12
-79.34
-80.52
-76.65
-66.51
-50.26
-29.59
-7.22
13.88
31.34
43.89
51.31
54.14
53.18
49.32
43.46
36.63
29.97
24.62
21.41
20.62
21.86
24.29
26.91
28.95
30.04
30.26
29.89
29.19
28.19
26.68
24.36
21.05
16.83
12.12
7.5
3.45
0.2
-2.44
-4.97
-8.03
-12.09
-17.25
-23.17
-29.21
-34.7
-39.22
-42.77
-45.69
-48.62
-52.27
-57.15
-63.39
-70.46
-77.02
-81.08
-80.48
-73.55
-59.85
-40.46
-17.81
5.04
25.29
41.06
51.68
57.51
59.41
58.38
55.29
50.95
46.14
41.72
38.46
36.93
37.27
39.17
41.98
44.98
47.65
49.74
51.27
52.31
52.85
52.66
51.37
48.59
44.15
38.16
31.02
23.29
15.59
8.34
1.8
-4.1
-9.59
-15.01
-20.65
-26.59
-32.62
-38.34
-43.27
-47.09
-49.77
-51.72
-53.72
-56.72
-61.6
-68.68
-77.52
-86.67
-93.84
-96.39
-92.17
-80.24
-61.34
-37.87
-13.16
9.36
27.18
39.13
45.42
47.24
46.17
43.61
40.62
37.94
36.1
35.57
36.76
39.87
44.72
50.7
56.9
62.33
66.27
68.34
68.58
67.22
64.5
60.59
55.59
49.56
42.72
35.51
28.46
22.16
17.06
13.22
10.33
7.76
4.75
0.64
-4.86
-11.64
-19.16
-26.63
-33.29
-38.57
-42.25
-44.54
-46.02
-47.52
-49.98
-54.08
-59.99
-67.07
-73.78
-77.99
-77.57
-71.16
-58.74
-41.75
-22.67
-4.24
11.33
22.88
30.31
34.17
35.29
34.39
32.06
28.85
25.53
22.93
21.89
22.92
25.93
30.25
34.82
38.55
40.69
41.04
39.84
37.54
34.53
30.92
26.62
21.5
15.59
9.26
3.17
-2.03
-5.82
-8.14
-9.32
-9.98
-10.69
-11.77
-13.24
-14.95
-16.85
-19.17
-22.42
-27.27
-34.21
-43.37
-54.39
-66.45
-78.33
-88.39
-94.73
-95.41
-88.94
-74.85
-54.05
-28.86
-2.53
21.53
40.68
53.49
59.87
60.73
57.5
51.66
44.5
37.12
30.41
25.1
21.66
20.3
20.79
22.63
25.07
27.36
28.84
29.1
27.94
25.35
21.5
16.69
11.34
5.91
0.8
-3.81
-7.96
-11.92
-16.05
-20.61
-25.64
-30.93
-36.04
-40.5
-44.01
-46.5
-48.26
-49.89
-52.1
-55.49
-60.14
-65.36
-69.6
-70.77
-66.9
-56.87
-41.01
-21.14
-0.05
19.35
34.85
45.4
51.13
52.88
51.77
48.86
45.03
41.0
37.43
34.83
33.46
33.27
33.82
34.47
34.6
33.72
31.65
28.49
24.58
20.39
16.45
13.21
11.0
9.99
10.06
10.85
11.77
12.08
10.95
7.66
1.76
-6.78
-17.42
-29.25
-41.06
-51.73
-60.44
-66.88
-71.26
-74.16
-76.22
-77.7
-78.3
-77.03
-72.6
-63.94
-50.81
-34.09
-15.66
2.13
17.29
28.65
36.18
40.69
43.37
45.29
47.08
48.88
50.53
51.77
52.35
52.1
50.89
48.58
45.1
40.49
35.09
29.51
24.59
21.11
19.67
20.35
22.76
26.05
29.11
30.87
30.52
27.74
22.64
15.74
7.72
-0.79
-9.3
-17.47
-25.06
-31.75
-37.15
-40.89
-42.75
-42.88
-41.84
-40.67
-40.64
-43.07
-48.95
-58.62
-71.42
-85.47
-97.88
-105.22
-104.5
-94.06
-74.21
-47.33
-17.15
12.13
36.92
54.92
65.33
68.65
66.25
59.97
51.8
43.61
36.99
32.96
