-64.73
-71.99
-79.09
-83.93
-84.22
-78.21
-65.38
-46.73
-24.51
-1.63
19.17
35.91
47.65
54.36
56.63
55.38
51.59
46.34
40.67
35.55
31.76
29.77
29.63
30.96
33.09
35.31
37.09
38.23
38.78
38.96
38.93
38.62
37.77
35.96
32.91
28.57
23.24
17.5
11.95
6.98
2.64
-1.4
-5.64
-10.48
-16.02
-21.94
-27.66
-32.61
-36.46
-39.31
-41.61
-44.08
-47.44
-52.21
-58.4
-65.32
-71.57
-75.14
-73.96
-66.49
-52.34
-32.53
-9.32
14.36
35.69
52.59
64.06
70.18
71.74
69.86
65.61
59.92
53.59
47.3
41.7
37.28
34.28
32.57
31.68
30.89
29.57
27.37
24.32
20.73
16.9
12.91
8.51
3.22
-3.32
-11.08
-19.42
-27.26
-33.31
-36.58
-36.63
-33.69
-28.56
-22.3
-15.94
-10.23
-5.51
-1.77
1.29
3.95
6.29
8.04
8.59
7.01
2.3
-6.37
-19.22
-35.52
-53.32
-69.66
-81.15
-84.99
-79.84
-66.3
-46.67
-24.21
-2.08
17.36
32.87
44.13
51.32
54.79
54.97
52.44
48.01
42.67
37.42
33.05
29.99
28.26
27.63
27.81
28.66
30.15
32.29
34.93
37.64
39.74
40.45
39.14
35.58
29.96
22.91
15.28
7.95
1.53
-3.84
-8.48
-13.09
-18.39
-24.81
-32.24
-40.04
-47.34
-53.45
-58.18
-61.95
-65.68
-70.38
-76.7
-84.51
-92.59
-98.8
-100.54
-95.51
-82.65
-62.59
-37.7
-11.39
12.79
32.14
45.32
52.38
54.31
52.6
48.77
44.2
40.02
37.06
35.8
36.32
38.27
40.98
43.66
45.5
45.9
44.54
41.42
36.86
31.48
26.09
21.47
18.17
16.25
15.21
14.18
12.18
8.55
3.13
-3.64
-10.97
-18.02
-24.2
-29.29
-33.44
-37.05
-40.68
-44.8
-49.62
-54.8
-59.36
-61.82
-60.52
-54.19
-42.48
-26.23
-7.31
11.88
29.01
42.39
51.18
55.38
55.57
52.65
47.62
41.48
35.17
29.51
25.12
22.29
20.93
20.55
20.47
20.03
18.8
16.78
14.27
11.75
9.63
8.02
6.62
4.86
2.08
-2.21
-8.08
-15.19
-22.88
-30.42
-37.29
-43.35
-48.77
-53.97
-59.44
-65.44
-71.9
-78.17
-83.0
-84.76
-81.82
-73.1
-58.58
-39.49
-18.04
3.16
21.78
36.26
45.99
51.07
52.01
49.53
44.43
37.73
30.63
24.39
20.07
18.2
18.59
20.41
22.52
23.85
23.72
22.04
19.15
15.68
12.23
9.17
6.57
4.14
1.45
-1.92
-6.22
-11.43
-17.31
-23.46
-29.53
-35.31
-40.81
-46.27
-52.15
-58.89
-66.69
-75.09
-82.73
-87.44
-86.78
-78.86
-63.15
-40.88
-14.84
11.42
34.54
52.22
63.56
68.86
69.14
65.67
59.61
52.01
43.86
36.23
30.14
26.41
25.35
26.59
29.17
31.84
33.47
33.41
31.63
28.6
25.0
21.41
18.1
14.99
11.72
7.87
3.13
-2.53
-8.85
-15.39
-21.65
-27.32
-32.33
-36.85
-41.29
-46.15
-51.97
-59.22
-68.07
-78.08
-87.92
-95.37
-97.73
-92.62
-78.89
-57.17
-29.96
-0.92
26.18
48.35
63.99
72.93
75.99
74.46
69.72
63.03
55.51
48.18
41.87
37.17
34.35
33.23
33.34
34.07
34.87
35.43
35.68
35.7
35.52
35.01
33.84
31.57
27.9
22.7
16.11
8.41
-0.04
-8.91
-17.84
-26.48
-34.43
-41.37
-47.12
-51.72
-55.46
-58.86
-62.56
-67.14
-72.88
-79.43
-85.55
-89.22
-88.05
-80.07
-64.54
-42.44
-16.33
10.29
34.01
52.39
64.4
70.3
71.32
68.98
64.75
59.83
55.07
51.07
48.12
46.23
45.14
44.45
43.76
42.75
41.39
39.79
38.23
36.92
35.88
34.93
33.71
31.88
29.24
25.83
21.88
17.68
13.39
8.9
3.88
-2.1
-9.34
-17.82
-27.13
-36.6
-45.41
-52.83
-58.4
-62.04
-64.17
-65.62
-67.53
-70.95
-76.32
-83.02
-89.16
-92.02
-88.84
-77.88
-59.2
-34.74
-7.8
18.07
40.03
56.61
67.61
73.73
75.89
74.87
71.25
65.54
58.39
50.69
43.38
37.3
32.89
30.22
28.95
28.69
29.13
30.15
31.68
33.59
35.44
36.47
35.86
32.99
27.83
20.94
13.31
5.86
-0.86
-6.93
-12.76
-18.79
-25.05
-31.04
-35.97
-39.17
-40.56
-40.71
-40.8
-42.23
-46.18
-53.23
-63.07
-74.29
-84.56
-91.04
-91.09
-83.06
-66.87
-44.12
-17.73
8.86
32.54
51.1
63.41
69.31
69.3
64.38
55.89
45.32
34.25
24.09
16.0
10.7
8.51
9.28
12.51
17.43
23.02
28.24
32.17
34.15
33.9
31.51
27.31
21.73
15.17
7.89
0.11
-7.97
-16.05
-23.75
-30.58
-36.15
-40.31
-43.2
-45.35
-47.49
-50.45
-54.93
-61.29
-69.3
-77.95
-85.41
-89.34
-87.46
-78.24
-61.61
-39.08
-13.39
12.29
35.19
53.57
66.69
74.61
77.66
76.28
71.03
62.83
52.94
42.87
34.01
27.29
23.11
21.34
21.7
23.82
27.32
31.61
35.84
38.96
39.99
38.39
34.16
27.91
20.47
12.61
4.79
-2.83
-10.26
-17.46
-24.2
-30.13
-34.92
-38.42
-40.87
-42.82
-45.05
-48.42
-53.69
-61.28
-71.06
-82.06
-92.42
-99.53
-100.64
-93.65
-77.85
-54.38
-25.97
3.64
30.8
52.67
67.73
75.82
77.73
74.78
68.5
60.37
51.79
44.03
38.09
34.56
33.53
34.56
36.91
39.77
42.53
44.85
46.61
47.64
47.66
46.27
43.11
38.07
31.37
23.6
15.49
7.73
0.76
-5.35
-10.87
-16.21
-21.75
-27.62
-33.59
-39.19
-43.89
-47.38
-49.8
-51.72
-54.08
-57.91
-63.98
-72.35
-82.12
-91.29
-97.06
-96.58
-87.9
-70.73
-46.73
-19.04
8.62
33.02
52.14
65.34
72.96
75.82
74.8
70.7
64.39
56.94
49.5
43.21
38.84
36.59
36.15
36.92
38.27
39.82
41.44
43.08
44.62
45.7
45.79
44.31
40.88
35.43
28.29
20.13
11.76
4.0
-2.65
-8.04
-12.37
-16.14
-19.85
-23.83
-28.13
-32.61
-37.02
-41.15
-44.97
-48.67
-52.65
-57.53
-63.93
-72.22
-82.04
-91.97
-99.63
-102.01
-96.52
-81.92
-58.94
-30.33
-0.12
27.57
49.6
64.44
72.17
73.96
71.38
65.93
58.9
51.42
44.64
39.66
37.3
37.78
40.61
44.66
48.6
51.26
52.1
51.16
48.92
46.0
42.85
39.59
36.1
32.26
28.03
23.64
19.46
15.83
12.86
10.31
7.65
4.18
-0.63
-7.06
-14.91
-23.62
-32.42
-40.48
-47.1
-51.82
-54.55
-55.52
-55.42
-55.25
-56.21
-59.32
-64.94
-72.36
-79.68
-84.15
-82.95
-74.34
-58.25
-36.45
-11.98
11.87
32.55
48.62
59.72
66.11
68.17
66.32
61.09
53.37
44.46
35.88
28.98
24.58
22.82
23.26
25.14
27.76
30.6
33.42
36.06
38.3
39.68
39.59
37.44
32.98
26.48
18.77
10.87
3.71
-2.3
-7.35
-12.06
-17.13
-22.9
-29.23
-35.55
-41.14
-45.53
-48.72
-51.18
-53.72
-57.2
-62.19
-68.69
-75.93
-82.36
-85.89
-84.42
-76.42
-61.58
-41.08
-17.34
6.56
27.77
44.27
55.19
60.62
61.28
58.14
52.19
44.49
36.22
28.63
22.79
19.4
18.54
19.72
22.07
24.68
26.93
28.55
29.55
29.96
29.7
28.51
26.09
22.28
17.23
11.46
5.55
0.02
-4.97
-9.63
-14.4
-19.65
-25.5
-31.68
-37.71
-43.13
-47.7
-51.51
-54.95
-58.62
-63.15
-68.99
-76.14
-83.85
-90.56
-94.02
-91.9
-82.56
-65.69
-42.7
-16.35
9.93
33.01
50.72
62.24
67.85
68.48
65.33
59.55
52.23
44.51
37.49
32.21
29.33
28.9
30.38
32.83
35.27
37.06
38.02
38.31
38.16
37.6
36.33
33.93
30.09
24.84
18.66
12.29
6.44
1.51
-2.61
-6.47
-10.8
-16.13
-22.58
-29.78
-37.02
-43.6
-49.01
-53.17
-56.42
-59.41
-62.97
-67.85
-74.42
-82.32
-90.16
-95.66
-96.13
-89.34
-74.42
-52.36
-25.83
1.54
26.29
46.03
59.77
67.78
71.04
70.64
67.54
62.52
56.41
50.2
44.9
41.41
40.11
40.78
42.66
44.73
46.13
46.44
45.72
44.34
42.7
40.95
38.93
36.23
32.49
27.56
21.64
15.27
9.08
3.62
-0.85
-4.51
-7.87
-11.57
-16.12
-21.67
-27.93
-34.34
-40.29
-45.33
-49.38
-52.67
-55.74
-59.22
-63.83
-70.07
-78.01
-86.89
-94.95
-99.67
-98.38
-89.21
-71.88
-48.02
-20.75
6.25
29.79
47.93
60.13
66.95
69.39
68.51
65.2
60.3
54.69
49.34
45.15
42.75
42.28
43.32
45.16
46.99
48.25
48.75
48.58
48.02
47.21
46.1
44.39
41.69
37.72
32.45
26.22
19.59
13.21
7.57
2.8
-1.29
-5.26
-9.69
-15.03
-21.35
-28.32
-35.27
-41.49
-46.45
-50.06
-52.67
-54.97
-57.82
-61.96
-67.82
-75.21
-83.18
-89.91
-93.04
-90.25
-80.03
-62.34
-38.83
-12.5
13.14
35.04
51.32
61.46
66.06
66.35
63.62
59.04
53.5
47.79
42.64
38.77
36.71
36.7
38.53
41.54
44.91
47.82
49.76
50.58
50.41
49.48
47.95
45.83
43.03
39.47
35.16
30.22
24.91
19.48
14.13
9.04
4.25
-0.27
-4.64
-9.06
-13.71
-18.73
-24.09
-29.59
-34.9
-39.68
-43.7
-46.98
-49.8
-52.64
-56.14
-60.92
-67.35
-75.18
-83.38
-90.04
-92.7
-89.11
-77.95
-59.54
-35.86
-10.07
14.42
34.83
49.57
58.34
61.78
60.98
57.1
51.24
44.43
37.74
32.21
28.7
27.63
28.82
31.52
34.74
37.51
39.29
39.99
39.86
39.23
38.2
36.56
33.96
30.09
24.88
18.59
11.78
5.11
-0.85
-5.84
-9.98
-13.73
-17.69
-22.38
-28.0
-34.31
-40.76
-46.68
-51.54
-55.12
-57.65
-59.69
-62.02
-65.37
-70.15
-76.16
-82.31
-86.75
-87.16
-81.55
-68.95
-49.96
-26.65
-2.1
20.53
38.81
51.48
58.46
60.45
58.52
53.73
47.19
39.97
33.23
28.04
25.19
24.88
26.74
29.89
33.3
36.15
38.05
39.01
39.35
39.31
38.92
37.95
36.06
32.99
28.73
23.56
17.96
12.48
7.36
2.57
-2.3
-7.74
-14.11
-21.38
-29.16
-36.8
-43.62
-49.22
-53.56
-57.0
-60.08
-63.51
-67.87
-73.55
-80.42
-87.61
-93.47
-95.72
-92.1
-81.13
-62.8
-38.73
-11.88
14.3
36.84
53.83
64.73
70.1
71.09
69.02
65.04
60.09
54.91
50.13
46.25
43.65
42.44
42.42
43.15
44.04
44.58
44.46
43.64
42.28
40.63
38.87
37.12
35.38
33.5
31.24
28.31
24.46
19.6
13.95
7.91
1.93
-3.71
-9.1
-14.61
-20.66
-27.43
-34.64
-41.59
-47.43
-51.48
-53.59
-54.23
-54.38
-55.28
-58.15
-63.76
-72.16
-82.39
-92.42
-99.5
-100.85
-94.4
-79.63
-57.81
-31.77
-5.05
19.01
38.13
51.46
59.35
62.91
63.44
61.93
59.03
55.17
50.77
46.4
42.74
40.32
39.37
39.65
40.66
41.82
42.73
43.28
43.48
43.36
42.76
41.36
38.88
35.21
30.62
25.56
20.59
16.08
12.13
8.58
5.08
1.29
-3.04
-7.98
-13.45
-19.28
-25.21
-30.95
-36.24
-40.85
-44.69
-47.79
-50.37
-52.85
-55.8
-59.82
-65.26
-71.81
-78.27
-82.62
-82.51
-76.01
-62.42
-42.68
-19.17
4.95
26.66
43.86
55.69
62.33
64.62
63.58
60.16
55.28
49.78
44.59
40.52
38.17
37.65
38.6
40.27
41.81
42.56
42.24
40.97
39.17
37.29
35.54
33.81
31.66
28.58
24.2
18.57
12.16
5.7
-0.06
-4.74
-8.36
-11.38
-14.43
-18.05
-22.47
-27.59
-33.03
-38.3
-43.01
-47.0
-50.38
-53.55
-57.1
-61.64
-67.55
-74.72
-82.22
-88.32
-90.75
-87.4
-76.97
-59.65
-37.13
-12.25
11.75
32.14
47.2
56.38
60.05
59.14
54.78
48.14
40.42
32.77
26.3
21.86
19.82
20.0
21.71
23.96
25.86
26.87
26.91
26.24
25.16
23.85
22.16
19.83
16.58
12.41
7.67
2.9
-1.36
-4.89
-7.89
-10.89
-14.51
-19.16
-24.8
-30.96
-36.92
-42.02
-45.97
-48.88
-51.31
-54.05
-57.88
-63.3
-70.17
-77.55
-83.64
-86.17
-82.96
-72.71
-55.55
-33.15
-8.3
15.86
36.66
52.52
62.96
68.4
69.68
67.76
63.52
57.88
51.84
46.45
42.64
40.94
41.32
43.16
45.49
47.32
48.0
47.35
45.54
42.92
39.76
36.07
31.74
26.66
20.95
14.98
9.28
4.3
0.24
-3.11
-6.3
-9.98
-14.65
-20.5
-27.25
-34.32
-40.97
-46.51
-50.57
-53.17
-54.81
-56.33
-58.79
-63.08
-69.53
-77.56
-85.53
-90.94
-91.15
-84.22
-69.69
-48.94
-24.77
-0.61
20.54
36.8
47.68
53.78
56.25
56.23
54.59
51.88
48.57
45.1
41.98
39.67
38.47
38.39
39.13
40.21
41.15
41.66
41.66
41.25
40.56
39.58
38.16
36.05
32.95
28.77
23.66
17.97
12.23
6.98
2.57
-0.96
-3.92
-6.89
-10.44
-14.93
-20.31
-26.16
-31.77
-36.53
-40.11
-42.57
-44.42
-46.41
-49.37
-54.02
-60.77
-69.39
-78.86
-87.27
-92.13
-91.01
-82.32
-65.97
-43.56
-17.98
7.41
29.62
46.82
58.41
64.87
67.2
66.55
63.87
59.99
55.58
51.33
47.84
45.58
44.69
44.98
46.01
47.2
48.12
48.5
48.34
47.71
46.75
45.47
43.78
41.51
38.44
34.42
29.42
23.62
17.33
10.98
4.97
-0.43
-5.13
-9.27
-13.13
-17.02
-21.14
-25.53
-30.04
-34.37
-38.25
-41.5
-44.2
-46.64
-49.33
-52.92
-57.94
-64.59
-72.44
-80.19
-85.83
-87.04
-81.92
-69.66
-51.01
-28.09
-3.92
18.48
36.8
49.81
57.37
60.06
58.76
54.46
48.11
40.66
33.18
26.69
22.05
19.7
19.51
20.92
23.13
25.39
27.24
28.48
29.12
29.1
28.28
26.44
23.44
19.32
14.45
9.34
4.51
0.22
-3.57
-7.21
-11.11
-15.52
-20.45
-25.61
-30.59
-35.1
-39.09
-42.79
-46.64
-51.17
-56.79
-63.6
-71.16
-78.26
-83.03
-83.29
-77.24
-64.13
-44.74
-21.26
3.25
25.78
44.05
56.93
64.31
66.86
65.54
61.37
55.36
48.54
41.94
36.47
32.85
31.33
31.67
33.18
35.01
36.45
37.2
37.3
37.0
36.43
35.4
33.49
30.21
25.41
19.38
12.79
6.43
0.84
-3.92
-8.21
-12.64
-17.74
-23.61
-29.95
-36.12
-41.5
-45.68
-48.73
-51.16
-53.79
-57.54
-63.06
-70.41
-78.75
-86.36
-90.83
-89.77
-81.47
-65.69
-43.84
-18.67
6.44
28.48
45.49
56.75
62.67
64.3
62.84
59.32
54.62
49.5
44.67
40.8
38.34
37.42
37.8
38.96
40.26
41.18
41.48
41.19
40.55
39.76
38.86
37.62
35.67
32.59
28.22
22.74
16.66
10.63
5.19
0.56
-3.5
-7.52
-12.11
-17.66
-24.18
-31.25
-38.2
-44.33
-49.18
-52.72
-55.33
-57.73
-60.86
-65.51
-72.14
-80.46
-89.28
-96.53
-99.65
-96.29
-85.15
-66.48
-42.24
-15.57
10.08
31.84
48.07
58.42
63.6
64.77
63.11
59.57
54.9
49.81
44.99
41.17
38.87
38.29
39.17
40.89
42.75
44.16
44.91
45.06
44.81
44.25
43.3
41.72
39.2
35.62
31.04
25.76
20.17
14.65
9.46
4.69
0.32
-3.79
-7.89
-12.31
-17.3
-22.95
-29.05
-35.15
-40.66
-45.08
-48.2
-50.2
-51.72
-53.61
-56.82
-62.04
-69.33
-77.83
-85.66
-90.25
-89.01
-80.23
-63.77
-41.29
-15.8
9.28
30.99
47.48
58.17
63.46
64.25
61.6
56.49
49.93
42.93
36.49
31.43
28.23
26.9
27.0
27.88
28.92
29.8
30.52
31.25
32.05
32.7
32.67
31.3
28.2
23.43
17.51
11.24
5.28
-0.08
-5.03
-10.07
-15.69
-22.04
-28.84
-35.53
-41.47
-46.26
-49.86
-52.61
-55.14
-58.13
-62.2
-67.58
-73.88
-79.91
-83.79
-83.36
-76.87
-63.67
-44.61
-21.93
1.35
22.3
38.86
50.09
56.1
57.64
55.69
51.2
45.14
38.51
32.37
27.67
25.0
24.42
25.52
27.6
30.0
32.26
34.21
35.72
36.62
36.61
35.3
32.51
28.29
23.06
17.35
11.66
6.2
0.93
-4.44
-10.18
-16.41
-23.02
-29.62
-35.75
-40.99
-45.16
-48.41
-51.22
-54.35
-58.57
-64.41
-71.73
-79.46
-85.59
-87.64
-83.37
-71.66
-53.05
-29.7
-4.77
18.55
37.86
51.96
60.75
64.87
65.21
62.64
58.0
52.21
46.23
41.02
37.27
35.28
34.9
35.6
36.74
37.85
38.64
39.11
39.39
39.47
39.19
38.14
35.84
31.99
26.66
20.32
13.74
7.71
2.69
-1.37
-5.01
-8.98
-13.91
-20.01
-26.99
-34.2
-40.87
-46.46
-50.79
-54.13
-57.16
-60.77
-65.8
-72.63
-80.88
-89.14
-95.2
-96.53
-91.07
-78.01
-58.13
-33.71
-7.91
16.13
35.98
50.41
59.32
63.47
64.01
62.12
58.76
54.7
50.6
47.04
44.54
43.38
43.48
44.41
45.52
46.18
46.08
45.23
43.92
42.45
40.98
39.4
37.47
34.87
31.42
27.15
22.3
17.21
12.25
7.6
3.2
-1.27
-6.23
-12.11
-18.99
-26.63
-34.42
-41.69
-47.98
-53.27
-58.05
-63.2
-69.69
-78.33
-89.52
-103.16
-118.41
-133.73
-146.85
-155.06
-155.83
-147.52
-129.98
-104.77
-74.74
-43.24
-13.24
13.35
35.92
54.84
70.99
85.25
98.13
109.78
120.1
129.05
136.8
143.86
150.83
158.18
165.99
173.85
181.07
186.88
190.68
192.04
190.7
186.38
178.8
167.74
153.18
135.34
114.66
91.52
66.22
38.98
10.34
-18.54
-45.65
-68.46
-84.5
-92.38
-92.44
-86.93
-79.5
-74.13
-73.96
-80.52
-93.44
-110.88
-130.29
-149.08
-165.04
-176.23
-180.92
-177.58
-165.27
-144.31
-116.71
-86.12
-57.0
-33.32
-17.31
-8.89
-5.9
-5.17
-3.77
0.05
6.67
15.46
25.49
35.97
46.47
56.72
66.32
74.68
81.12
85.12
86.57
85.69
82.76
77.95
71.21
62.53
52.18
40.88
29.57
19.03
9.64
1.31
-6.2
-12.86
-18.19
-21.4
-21.85
-19.52
-15.23
-10.59
-7.53
-7.8
-12.58
-22.03
-35.16
-49.74
-62.71
-70.78
-71.34
-63.23
-47.11
-25.27
-0.84
23.14
44.4
61.72
74.59
82.75
85.82
83.31
74.98
61.32
43.81
24.8
6.98
-7.17
-16.01
-18.92
-16.2
-8.95
1.26
12.53
22.82
30.19
33.14
30.88
23.5
12.01
-1.95
-16.42
-29.58
-40.0
-46.99
-50.63
-51.84
-52.18
-53.55
-57.65
-65.57
-77.5
-92.58
-109.08
-124.53
-136.14
-141.15
-137.37
-123.71
-100.59
-70.01
-35.3
-0.34
31.27
56.93
75.36
86.44
90.7
88.83
81.44
69.24
53.34
35.59
18.53
5.06
-2.35
-2.35
4.8
17.27
32.15
46.14
56.39
61.07
59.6
52.59
41.47
28.08
14.22
1.39
-9.43
-17.7
-23.35
-26.68
-28.25
-28.73
-28.86
-29.36
-30.95
-34.45
-40.74
-50.63
-64.66
-82.63
-103.3
-124.16
-141.59
-151.52
-150.43
-136.48
-110.23
-74.86
-35.4
2.49
34.04
56.41
69.05
73.27
71.39
65.87
58.69
51.4
45.13
40.84
39.3
40.81
45.04
50.92
56.92
61.41
63.2
61.75
57.25
50.36
42.02
33.26
25.09
18.47
14.23
12.93
14.65
18.89
24.51
29.91
33.29
33.07
28.17
18.34
4.21
-12.7
-30.3
-46.29
-58.69
-66.35
-69.33
-68.92
-67.3
-66.97
-69.99
-77.31
-88.3
-100.82
-111.62
-117.16
-114.57
-102.5
-81.37
-53.29
-21.34
11.15
41.4
67.42
88.03
102.7
111.27
113.92
111.2
104.07
93.79
81.72
69.16
57.21
46.79
38.69
33.6
32.0
33.99
39.02
45.82
52.56
57.22
57.99
53.75
44.35
30.67
14.48
-1.91
-16.17
-26.48
-31.96
-32.81
-30.2
-25.77
-21.18
-17.71
-16.13
-16.81
-19.95
-25.75
-34.43
-46.09
-60.53
-76.95
-93.74
-108.49
-118.23
-120.12
-112.27
-94.49
-68.68
-38.58
-8.79
16.43
34.26
43.95
46.66
44.81
41.12
37.85
36.39
37.18
40.0
44.14
48.78
53.07
56.31
57.97
57.76
55.64
51.78
46.48
40.11
33.08
25.9
19.21
13.76
10.2
8.9
9.58
11.29
12.51
11.53
6.95
-1.83
-14.42
-29.49
-45.11
-59.15
-69.87
-76.21
-78.16
-76.73
-73.83
-71.7
-72.17
-75.83
-81.59
-86.81
-88.13
-82.67
-69.09
-48.11
-22.24
5.05
30.25
50.68
64.76
72.1
73.23
69.32
61.92
52.69
43.23
34.88
28.63
25.08
24.44
26.59
31.08
37.26
44.31
51.35
57.47
61.82
63.57
62.06
56.85
47.96
35.94
21.94
7.67
-5.05
-14.68
-20.57
-23.12
-23.71
-24.22
-26.35
-31.07
-38.35
-47.37
-56.87
-65.69
-73.12
-79.01
-83.79
-88.11
-92.54
-97.0
-100.6
-101.58
-97.84
-87.68
-70.64
-47.83
-21.85
3.96
26.5
43.69
54.96
61.03
63.38
63.63
62.99
62.15
61.26
60.26
59.06
57.69
56.22
54.69
53.05
51.16
48.95
46.49
44.09
42.13
40.86
40.2
39.73
38.92
37.42
35.31
33.07
31.21
29.83
28.2
24.8
17.88
6.14
-10.51
-30.75
-52.07
-71.54
-86.58
-95.67
-98.6
-96.54
-91.63
-86.67
-84.42
-86.94
-94.86
-106.76
-119.27
-127.74
-127.71
-116.32
-93.44
-61.69
-25.67
9.5
39.51
61.81
75.75
82.1
82.54
78.94
73.16
66.77
61.03
56.79
54.42
53.91
54.91
56.92
59.44
62.14
64.76
67.12
68.94
69.82
69.23
66.75
62.18
55.77
48.08
39.87
31.83
24.37
17.54
11.04
4.49
-2.41
-9.72
-17.25
-24.61
-31.41
-37.38
-42.53
-47.23
-52.14
-58.11
-65.83
-75.32
-85.57
-94.37
-98.81
-96.04
-84.37
-64.07
-37.49
-8.38
19.23
42.12
58.59
68.51
72.8
72.82
69.83
64.79
58.53
51.81
45.51
40.47
37.39
36.61
38.03
41.12
45.02
48.74
51.3
51.85
49.88
45.3
38.5
30.3
21.73
13.73
6.86
1.17
-3.75
-8.52
-13.76
-19.85
-26.77
-34.26
-41.86
-49.19
-56.05
-62.55
-69.05
-76.09
-83.99
-92.52
-100.58
-106.17
-106.8
-100.31
-85.65
-63.47
-36.18
-7.24
19.68
41.71
57.34
66.37
69.58
68.23
63.65
57.06
49.59
42.33
36.21
31.91
29.69
29.32
30.22
31.64
32.94
33.75
33.95
33.54
32.46
30.54
27.58
23.47
18.26
12.18
5.54
-1.38
-8.4
-15.47
-22.59
-29.68
-36.62
-43.18
-49.13
-54.34
-58.89
-63.11
-67.6
-73.19
-80.52
-89.69
-99.77
-108.72
-113.59
-111.48
-100.44
-80.38
-53.33
-22.83
7.04
32.81
52.39
65.22
71.88
73.6
71.67
67.29
61.54
55.46
49.97
45.77
43.25
42.33
42.63
43.59
44.74
45.83
46.8
47.62
48.15
48.06
46.8
43.9
39.11
32.59
24.94
16.93
9.24
2.19
-4.37
-10.9
-17.87
-25.46
-33.41
-41.12
-47.98
-53.61
-58.11
-62.07
-66.4
-72.11
-79.9
-89.81
-100.78
-110.62
-116.31
-114.84
-104.18
-84.21
-56.92
-25.99
4.37
30.54
50.39
63.37
70.22
72.19
70.56
66.38
60.59
54.17
48.2
43.71
41.32
41.09
42.45
44.54
46.58
48.22
49.52
50.76
52.04
53.05
53.08
51.25
46.95
40.14
31.45
21.98
13.0
5.55
0.15
-3.33
-5.47
-7.04
-8.62
-10.36
-12.0
-13.02
-12.94
-11.65
-9.58
-7.72
-7.38
-9.99
-16.71
-27.89
-42.73
-59.02
-73.46
-82.37
-82.82
-73.56
-55.47
-31.33
-4.87
20.25
41.32
56.91
66.7
71.08
70.75
66.58
59.58
51.0
42.15
34.33
28.49
25.1
24.02
24.62
25.96
27.1
27.32
26.27
24.0
20.83
17.2
13.51
9.98
6.57
3.05
-0.95
-5.8
-11.75
-18.77
-26.58
-34.66
-42.4
-49.31
-55.13
-59.86
-63.82
-67.62
-71.97
-77.54
-84.4
-91.75
-97.71
-99.72
-95.28
-82.97
-63.09
-37.73
-10.17
16.12
38.44
55.32
66.47
72.38
73.89
71.86
67.22
60.9
53.95
47.35
41.91
38.11
36.03
35.46
35.96
37.08
38.36
39.44
40.0
39.75
38.41
35.77
31.72
26.35
19.96
13.0
5.91
-1.04
-7.86
-14.77
-22.04
-29.72
-37.52
-44.89
-51.21
-56.12
-59.72
-62.59
-65.66
-69.97
-76.34
-84.92
-94.85
-104.14
-109.94
-109.26
-100.01
-81.83
-56.39
-27.0
2.43
28.51
49.18
63.88
73.14
77.98
79.4
78.14
74.79
70.03
64.7
