-37.85
-41.06
-45.35
-50.19
-54.39
-56.41
-54.8
-48.76
-38.47
-25.06
-10.29
4.0
16.35
26.0
32.78
36.93
38.88
39.03
37.79
35.53
32.73
29.8
27.19
25.17
23.78
22.9
22.26
21.62
20.87
20.07
19.34
18.8
18.38
17.83
16.76
14.87
12.09
8.64
5.03
1.76
-0.84
-2.75
-4.3
-5.97
-8.17
-11.03
-14.36
-17.74
-20.73
-23.04
-24.63
-25.76
-26.89
-28.52
-31.07
-34.69
-39.1
-43.56
-46.9
-47.8
-45.18
-38.56
-28.25
-15.35
-1.46
11.8
23.07
31.6
37.17
39.98
40.48
39.19
36.64
33.37
29.91
26.68
23.98
21.92
20.46
19.45
18.77
18.31
18.05
17.97
17.99
17.96
17.72
17.04
15.78
13.85
11.29
8.32
5.21
2.3
-0.22
-2.32
-4.16
-6.02
-8.18
-10.8
-13.82
-17.02
-20.11
-22.82
-25.04
-26.83
-28.44
-30.24
-32.66
-36.03
-40.41
-45.41
-50.12
-53.21
-53.29
-49.35
-41.11
-29.24
-15.16
-0.64
12.71
23.78
32.1
37.7
40.89
42.08
41.64
39.95
37.41
34.44
31.49
28.91
26.92
25.58
24.79
24.36
24.06
23.71
23.2
22.53
21.77
21.01
20.25
19.36
18.16
16.45
14.18
11.43
8.46
5.56
2.94
0.65
-1.37
-3.3
-5.33
-7.65
-10.35
-13.43
-16.79
-20.21
-23.42
-26.25
-28.69
-30.88
-33.11
-35.74
-39.07
-43.25
-48.11
-53.07
-57.07
-58.76
-56.85
-50.55
-39.98
-26.24
-11.12
3.43
15.89
25.47
32.11
36.22
38.34
38.96
38.43
37.06
35.15
33.05
31.01
29.23
27.74
26.5
25.44
24.5
23.68
22.97
22.34
21.71
21.04
20.25
19.28
18.1
16.64
14.87
12.78
10.42
7.87
5.26
2.68
0.21
-2.16
-4.44
-6.7
-9.0
-11.46
-14.18
-17.19
-20.42
-23.69
-26.78
-29.52
-31.9
-34.05
-36.26
-38.85
-42.11
-46.09
-50.5
-54.55
-57.11
-56.86
-52.78
-44.53
-32.66
-18.49
-3.77
9.84
21.15
29.54
34.98
37.79
38.48
37.59
35.67
33.23
30.73
28.49
26.69
25.33
24.28
23.33
22.32
21.19
19.98
18.88
18.03
17.52
17.29
17.11
16.69
15.78
14.25
12.14
9.63
6.99
4.48
2.21
0.21
-1.62
-3.43
-5.42
-7.72
-10.34
-13.22
-16.16
-18.95
-21.43
-23.56
-25.45
-27.33
-29.49
-32.24
-35.76
-39.95
-44.41
-48.29
-50.47
-49.77
-45.42
-37.29
-26.02
-12.94
0.41
12.57
22.49
29.66
34.02
35.82
35.51
33.64
30.79
27.58
24.53
22.03
20.3
19.29
18.82
18.58
18.33
17.95
17.44
16.9
16.38
15.85
15.15
14.07
12.45
10.28
7.74
5.09
2.57
0.29
-1.8
-3.86
-6.11
-8.68
-11.62
-14.83
-18.13
-21.28
-24.08
-26.41
-28.29
-29.93
-31.73
-34.09
-37.29
-41.15
-44.95
-47.49
-47.44
-43.75
-36.15
-25.18
-12.15
1.37
13.87
24.27
32.01
36.98
39.41
39.72
38.44
36.12
33.29
30.38
27.75
25.64
24.16
23.28
22.83
22.56
22.19
21.61
20.82
19.98
19.21
18.54
17.81
16.8
15.28
13.12
10.33
7.07
3.56
0.05
-3.2
-6.0
-8.29
-10.16
-11.85
-13.68
-15.92
-18.63
-21.69
-24.79
-27.59
-29.87
-31.64
-33.15
-34.83
-37.21
-40.57
-44.86
-49.49
-53.36
-55.11
-53.47
-47.74
-37.99
-25.13
-10.64
3.81
16.81
27.39
35.14
40.05
42.37
42.53
41.02
38.4
35.29
32.24
29.68
27.8
26.59
25.88
25.43
25.05
24.69
24.3
23.9
23.44
22.81
21.95
20.76
19.28
17.58
15.71
13.67
11.38
8.79
5.87
2.77
-0.3
-3.09
-5.44
-7.43
-9.26
-11.25
-13.62
-16.43
-19.52
-22.63
-25.55
-28.17
-30.53
-32.77
-35.07
-37.65
-40.74
-44.49
-48.91
-53.57
-57.55
-59.57
-58.27
-52.77
-43.0
-29.84
-14.79
0.37
14.12
25.41
33.78
39.24
42.1
42.88
42.14
40.44
38.23
35.84
33.47
31.29
29.39
27.88
26.82
26.15
25.79
25.58
25.41
25.21
24.92
24.49
23.83
22.82
21.42
19.59
17.39
14.91
12.27
9.54
6.74
3.92
1.11
-1.62
-4.21
-6.68
-9.1
-11.61
-14.33
-17.28
-20.34
-23.36
-26.17
-28.66
-30.86
-32.9
-34.99
-37.41
-40.49
-44.39
-49.01
-53.77
-57.56
-58.95
-56.59
-49.7
-38.47
-24.08
-8.37
6.64
19.37
28.97
35.37
39.05
40.65
40.79
39.91
38.29
36.17
33.77
31.33
29.04
27.09
25.57
24.48
23.76
23.29
22.89
22.47
21.94
21.29
20.54
19.69
18.7
17.45
15.79
13.62
10.96
7.96
4.83
1.82
-0.89
-3.21
-5.21
-7.04
-8.94
-11.07
-13.55
-16.35
-19.33
-22.26
-24.98
-27.36
-29.46
-31.44
-33.56
-36.14
-39.43
-43.51
-48.12
-52.52
-55.5
-55.73
-52.09
-44.15
-32.42
-18.23
-3.37
10.4
21.87
30.44
36.13
39.26
40.27
39.54
37.46
34.49
31.14
27.95
25.36
23.61
22.63
22.14
21.76
21.21
20.4
19.47
18.63
18.07
17.74
17.4
16.65
15.17
12.89
9.98
6.87
4.0
1.64
-0.18
-1.68
-3.23
-5.17
-7.68
-10.71
-14.02
-17.25
-20.07
-22.29
-23.94
-25.26
-26.68
-28.62
-31.47
-35.28
-39.75
-44.08
-47.09
-47.49
-44.28
-37.05
-26.25
-13.04
0.98
14.21
25.38
33.75
39.07
41.43
41.23
39.02
35.44
31.19
26.88
22.96
19.69
17.14
15.26
13.95
13.12
12.7
12.65
12.87
13.24
13.52
13.47
12.85
11.51
9.46
6.84
3.92
0.94
-1.97
-4.78
-7.64
-10.67
-13.98
-17.51
-21.08
-24.4
-27.22
-29.4
-30.99
-32.24
-33.55
-35.39
-38.13
-41.86
-46.19
-50.21
-52.61
-51.98
-47.38
-38.6
-26.4
-12.21
2.24
15.42
26.29
34.38
39.58
42.07
42.13
40.17
36.79
32.69
28.58
25.02
22.32
20.47
19.28
18.5
17.93
17.49
17.19
17.07
17.08
17.05
16.74
15.82
14.08
11.48
8.2
4.6
1.06
-2.14
-4.94
-7.5
-10.13
-13.08
-16.47
-20.19
-23.93
-27.33
-30.16
-32.37
-34.21
-36.12
-38.56
-41.9
-46.14
-50.78
-54.83
-56.96
-55.81
-50.51
-40.95
-27.89
-12.8
2.56
16.61
28.21
36.83
42.4
45.2
45.71
44.44
41.98
38.91
35.74
32.84
30.45
28.58
27.14
25.93
24.79
23.65
22.55
21.58
20.81
20.22
19.6
18.63
17.02
14.58
11.39
7.73
4.01
0.57
-2.43
-5.1
-7.71
-10.6
-13.97
-17.78
-21.83
-25.76
-29.25
-32.09
-34.29
-36.07
-37.85
-40.13
-43.34
-47.57
-52.37
-56.67
-59.02
-57.93
-52.42
-42.39
-28.69
-12.92
3.0
17.33
28.89
37.16
42.24
44.62
44.97
43.89
41.9
39.35
36.56
33.8
31.35
29.37
27.89
26.77
25.8
24.77
23.64
22.51
21.5
20.69
20.01
19.24
18.13
16.43
14.02
11.0
7.61
4.18
1.05
-1.64
-3.96
-6.2
-8.71
-11.73
-15.25
-18.99
-22.55
-25.57
-27.92
-29.71
-31.3
-33.15
-35.76
-39.5
-44.43
-50.14
-55.66
-59.53
-60.17
-56.36
-47.69
-34.76
-19.06
-2.57
12.8
25.62
35.17
41.41
44.73
45.75
45.08
43.29
40.87
38.23
35.71
33.55
31.87
30.62
29.69
28.89
28.05
27.06
25.87
24.51
23.04
21.56
20.13
18.72
17.2
15.38
13.12
10.43
7.47
4.56
2.01
-0.0
-1.55
-2.92
-4.53
-6.74
-9.66
-13.19
-16.99
-20.66
-23.89
-26.57
-28.77
-30.74
-32.8
-35.29
-38.49
-42.53
-47.2
-51.88
-55.49
-56.67
-54.18
-47.32
-36.23
-21.99
-6.31
8.91
22.06
32.17
38.95
42.67
43.81
42.99
40.72
37.51
33.9
30.4
27.43
25.23
23.78
22.84
22.09
21.23
20.15
18.89
17.6
16.39
15.28
14.18
12.92
11.35
9.39
7.09
4.61
2.12
-0.26
-2.56
-4.92
-7.51
-10.43
-13.61
-16.82
-19.73
-22.09
-23.81
-25.11
-26.43
-28.32
-31.25
-35.33
-40.1
-44.55
-47.24
-46.74
-42.15
-33.39
-21.29
-7.37
6.68
19.35
29.65
37.14
41.82
43.91
43.74
41.74
38.4
34.33
30.19
26.57
23.87
22.19
21.34
20.95
20.64
20.16
19.51
18.79
18.13
17.52
16.8
15.67
13.88
11.35
8.25
4.93
1.77
-0.98
-3.32
-5.45
-7.64
-10.13
-13.01
-16.2
-19.45
-22.5
-25.1
-27.16
-28.74
-30.09
-31.63
-33.86
-37.16
-41.57
-46.62
-51.29
-54.23
-54.06
-49.89
-41.54
-29.69
-15.67
-1.1
12.48
23.91
32.55
38.25
41.22
41.95
41.0
38.98
36.42
33.76
31.32
29.3
27.75
26.61
25.74
24.9
23.94
22.78
21.47
20.16
19.0
18.08
17.29
16.39
15.09
13.13
10.44
7.14
3.55
0.05
-3.01
-5.44
-7.32
-8.9
-10.53
-12.52
-15.01
-17.9
-20.93
-23.8
-26.25
-28.27
-30.03
-31.92
-34.4
-37.82
-42.27
-47.43
-52.43
-56.04
-56.85
-53.72
-46.18
-34.64
-20.37
-5.16
9.21
21.34
30.55
36.78
40.48
42.21
42.54
41.89
40.58
38.85
36.95
35.05
33.31
31.75
30.31
28.87
27.4
25.96
24.7
23.79
23.3
23.08
22.82
22.09
20.62
18.43
15.76
13.07
10.71
8.78
7.14
5.45
3.43
0.97
-1.81
-4.64
-7.3
-9.71
-11.98
-14.36
-17.09
-20.28
-23.85
-27.54
-31.01
-33.97
-36.31
-38.11
-39.68
-41.42
-43.73
-46.82
-50.57
-54.36
-57.14
-57.61
-54.57
-47.36
-36.2
-22.15
-6.89
7.73
20.24
29.8
36.21
39.8
41.15
40.87
39.54
37.63
35.49
33.43
31.6
30.06
28.8
27.71
26.72
25.82
25.04
24.51
24.32
24.41
24.54
24.35
23.49
21.8
19.39
16.59
13.83
11.42
9.44
7.74
6.07
4.21
2.04
-0.38
-2.89
-5.33
-7.56
-9.61
-11.6
-13.71
-16.12
-18.92
-22.02
-25.26
-28.37
-31.17
-33.56
-35.64
-37.67
-40.06
-43.19
-47.24
-51.97
-56.6
-59.88
-60.41
-57.04
-49.32
-37.76
-23.63
-8.68
5.41
17.43
26.73
33.22
37.12
38.82
38.74
37.33
35.08
32.47
29.96
27.85
26.28
25.21
24.48
23.92
23.38
22.8
22.14
21.4
20.58
19.66
18.62
17.44
16.12
14.63
12.94
11.02
8.85
6.49
4.07
1.76
-0.3
-2.09
-3.69
-5.31
-7.17
-9.42
-12.1
-15.14
-18.35
-21.48
-24.32
-26.69
-28.63
-30.3
-32.06
-34.31
-37.38
-41.3
-45.68
-49.71
-52.2
-51.92
-48.0
-40.13
-28.84
-15.31
-1.13
12.11
23.17
31.32
36.39
38.61
38.49
36.63
33.66
30.14
26.57
23.32
20.64
18.62
17.2
16.21
15.38
14.53
13.62
12.76
12.16
11.98
12.14
12.37
12.24
11.37
9.63
7.18
4.36
1.52
-1.11
-3.55
-5.96
-8.52
-11.32
-14.31
-17.32
-20.13
-22.54
-24.53
-26.18
-27.76
-29.62
-32.13
-35.55
-39.81
-44.37
-48.23
-50.09
-48.74
-43.39
-34.08
-21.64
-7.58
6.42
18.85
28.75
35.72
39.81
41.42
41.04
39.2
36.41
33.13
29.78
26.71
24.2
22.38
21.24
20.65
20.38
20.22
20.03
19.73
19.29
18.66
17.72
16.35
14.43
11.94
8.96
5.7
2.37
-0.84
-3.8
-6.47
-8.93
-11.37
-14.03
-17.04
-20.4
-23.88
-27.12
-29.75
-31.6
-32.82
-33.82
-35.24
-37.65
-41.35
-46.15
-51.29
-55.45
-57.12
-54.99
-48.37
-37.48
-23.45
-7.95
7.23
20.61
31.3
39.0
43.82
46.18
46.54
45.38
43.14
40.24
37.04
33.88
31.02
28.65
26.86
25.6
24.77
24.15
23.55
22.86
22.07
21.21
20.33
19.37
18.16
16.49
14.2
11.27
7.95
4.58
1.49
-1.15
-3.39
-5.5
-7.8
-10.55
-13.81
-17.41
-21.08
-24.52
-27.47
-29.86
-31.78
-33.47
-35.34
-37.87
-41.43
-46.11
-51.5
-56.58
-59.93
-60.04
-55.77
-46.82
-33.86
-18.35
-2.19
12.82
25.31
34.56
40.46
43.36
43.83
42.54
40.16
37.27
34.34
31.71
29.54
27.89
26.72
25.91
25.3
24.72
24.02
23.1
21.94
20.64
19.31
18.07
16.93
15.81
14.5
12.77
10.49
7.68
4.59
1.51
-1.28
-3.68
-5.74
-7.67
-9.72
-12.01
-14.52
-17.1
-19.56
-21.8
-23.82
-25.74
-27.71
-29.91
-32.52
-35.75
-39.75
-44.44
-49.28
-53.22
-54.86
-52.86
-46.48
-35.9
-22.26
-7.29
7.15
19.64
29.33
36.01
39.89
41.35
40.82
38.77
35.67
32.06
28.45
25.25
22.74
20.95
19.79
19.05
18.54
18.16
17.85
17.62
17.37
16.96
16.14
14.72
12.64
9.98
6.99
3.94
1.06
-1.6
-4.11
-6.68
-9.5
-12.66
-16.06
-19.42
-22.42
-24.8
-26.55
-27.9
-29.32
-31.35
-34.38
-38.5
-43.27
-47.74
-50.55
-50.34
-46.09
-37.52
-25.25
-10.69
4.31
17.97
28.96
36.6
40.86
42.15
41.15
38.59
35.18
31.47
27.97
24.98
22.69
21.15
20.23
19.76
19.45
19.1
18.62
18.04
17.49
17.03
16.59
15.96
14.8
12.84
10.03
6.57
2.83
-0.73
-3.85
-6.49
-8.93
-11.5
-14.46
-17.84
-21.42
-24.83
-27.74
-30.0
-31.74
-33.31
-35.18
-37.8
-41.37
-45.74
-50.25
-53.73
-54.77
-52.09
-45.02
-33.83
-19.69
-4.39
10.21
22.65
32.12
38.49
42.1
43.48
43.15
41.57
39.12
36.22
33.28
30.69
28.71
27.41
26.67
26.19
25.7
25.02
24.15
23.24
22.45
21.83
21.25
20.44
19.1
17.03
14.23
10.88
7.32
3.9
0.86
-1.72
-3.97
-6.17
-8.63
-11.58
-15.09
-18.99
-22.96
-26.6
-29.61
-31.84
-33.45
-34.8
-36.41
-38.83
-42.48
-47.34
-52.85
-57.86
-60.87
-60.38
-55.41
-45.81
-32.4
-16.71
-0.62
14.17
26.4
35.43
41.22
44.14
44.8
43.9
42.07
39.81
37.48
35.28
33.36
31.76
30.47
29.42
28.5
27.6
26.69
25.76
24.85
23.98
23.11
22.14
20.95
19.43
17.58
15.48
13.25
10.99
8.75
6.47
4.07
1.51
-1.18
-3.88
-6.44
-8.82
-11.08
-13.43
-16.06
-19.05
-22.27
-25.49
-28.4
-30.86
-32.93
-34.85
-37.01
-39.81
-43.5
-48.07
-53.1
-57.65
-60.41
-59.96
-55.24
-45.94
-32.74
-17.13
-1.06
13.66
25.73
34.57
40.16
42.9
43.34
42.06
39.64
36.62
33.53
30.79
28.68
27.23
26.29
25.61
24.96
24.23
23.43
22.66
21.99
21.37
20.65
19.62
18.09
16.01
13.44
10.57
7.63
4.82
2.28
0.04
-1.97
-3.98
-6.24
-8.94
-12.11
-15.57
-19.01
-22.08
-24.58
-26.47
-27.96
-29.35
-30.98
-33.17
-36.12
-39.82
-43.94
-47.72
-50.01
-49.57
-45.39
-37.14
-25.34
-11.31
3.22
16.57
27.48
35.37
40.2
42.33
42.26
40.49
37.54
33.9
30.08
26.61
23.84
21.97
20.91
20.38
20.03
19.58
18.96
18.24
17.59
17.16
16.89
16.57
15.84
14.38
12.04
8.94
5.41
1.89
-1.25
-3.83
-5.92
-7.8
-9.78
-12.13
-14.92
-18.01
-21.13
-23.97
-26.34
-28.25
-29.9
-31.64
-33.86
-36.88
-40.8
-45.36
-49.84
-53.12
-53.87
-50.91
-43.65
-32.38
-18.28
-3.13
11.18
23.17
32.04
37.73
40.63
41.36
40.5
38.5
35.79
32.75
29.85
27.48
25.85
24.97
24.59
24.39
24.11
23.68
23.17
22.72
22.34
21.9
21.15
19.88
18.01
15.67
13.1
10.56
8.21
6.08
4.1
2.18
0.26
-1.67
-3.6
-5.52
-7.49
-9.6
-11.98
-14.79
-18.04
-21.68
-25.45
-29.05
-32.19
-34.75
-36.79
-38.63
-40.68
-43.32
-46.77
-50.88
-55.11
-58.48
-59.78
-57.82
-51.79
-41.62
-28.06
-12.62
2.87
16.68
27.61
35.22
39.72
41.75
42.06
41.28
39.84
38.03
36.07
34.12
32.36
30.87
29.65
28.6
27.64
26.72
25.89
25.25
24.79
24.43
23.99
23.2
21.9
20.03
17.73
15.21
12.68
10.28
8.01
5.72
3.28
0.64
-2.09
-4.76
-7.15
-9.21
-11.01
-12.77
-14.75
-17.16
-20.01
-23.13
-26.27
-29.12
-31.56
-33.63
-35.56
-37.75
-40.6
-44.44
-49.26
-54.65
-59.64
-62.91
-63.04
-58.93
-50.24
-37.51
-22.13
-5.97
9.11
21.7
31.08
37.19
40.46
41.55
41.11
39.69
37.72
35.51
33.33
31.41
29.86
28.67
27.69
26.8
25.89
25.0
24.23
23.68
23.32
22.96
22.35
21.31
19.8
17.94
15.93
13.91
11.91
9.82
7.52
4.95
2.2
-0.54
-3.08
-5.32
-7.29
-9.2
-11.3
-13.75
-16.62
-19.76
-22.96
-25.96
-28.58
-30.78
-32.67
-34.51
-36.66
-39.51
-43.21
-47.59
-51.92
-54.99
-55.4
-51.98
-44.24
-32.58
-18.29
-3.14
11.07
22.98
31.87
37.58
40.36
40.7
39.14
36.24
32.57
28.7
25.13
22.24
20.22
19.01
18.39
18.05
17.71
17.2
16.54
15.89
15.39
15.09
14.88
14.51
13.73
12.37
10.47
8.19
5.78
3.44
1.23
-0.91
-3.16
-5.7
-8.66
-11.95
-15.37
-18.62
-21.41
-23.65
-25.46
-27.18
-29.25
-32.09
-35.88
-40.45
-45.23
-49.26
-51.29
-50.16
-45.06
-35.88
-23.36
-8.88
5.82
19.11
29.8
37.32
41.65
43.16
42.4
39.96
36.45
32.46
28.52
25.09
22.46
20.71
19.67
19.1
18.72
18.38
18.05
17.81
17.7
17.61
17.29
16.38
14.61
11.94
8.59
4.99
1.6
-1.25
-3.54
-5.55
-7.7
-10.36
-13.64
-17.41
-21.28
-24.81
-27.68
-29.8
-31.29
-32.45
-33.72
-35.54
-38.3
-42.12
-46.65
-51.03
-53.91
-53.76
-49.42
-40.52
-27.7
-12.53
3.04
17.15
28.5
36.57
41.48
43.76
44.0
42.79
40.6
37.88
35.05
32.52
30.57
29.26
28.4
27.64
26.65
25.26
23.56
21.83
20.4
19.43
18.83
18.26
17.29
15.54
12.91
9.57
5.95
2.48
-0.51
-2.95
-5.02
-6.99
-9.14
-11.64
-14.48
-17.53
-20.62
-23.52
-26.08
-28.21
-29.93
-31.44
-33.12
-35.41
-38.75
-43.28
-48.7
-54.11
-58.13
-59.22
-56.12
-48.3
-36.2
-21.15
-5.02
10.28
23.24
33.05
39.56
43.12
44.35
43.89
42.31
40.09
37.59
35.15
32.98
31.24
29.93
28.97
28.18
27.4
26.52
25.55
24.56
23.65
22.82
21.99
20.99
19.63
17.82
15.59
13.06
10.41
7.78
5.19
2.64
0.09
-2.46
-4.98
-7.39
-9.71
-12.03
-14.53
-17.4
-20.7
-24.31
-27.93
-31.19
-33.82
-35.82
-37.52
-39.46
-42.26
-46.25
-51.24
-56.42
-60.47
-61.87
-59.36
-52.4
-41.25
-27.04
-11.42
3.86
17.3
27.95
35.44
39.94
41.93
42.06
40.94
39.07
36.77
34.31
31.87
29.61
27.7
26.22
25.13
24.32
23.66
23.05
22.49
22.0
21.6
21.21
20.64
19.68
18.15
15.99
13.32
10.39
7.5
4.91
2.75
1.04
-0.43
-1.9
-3.72
-6.12
-9.14
-12.62
-16.22
-19.58
-22.44
-24.78
-26.8
-28.78
-30.98
-33.63
-36.85
-40.65
-44.86
-48.99
-52.07
-52.85
-50.11
-43.13
-32.08
-18.13
-3.08
11.15
23.1
31.97
37.71
40.64
41.25
39.98
37.27
33.59
29.53
25.71
22.64
20.57
19.41
18.83
18.42
17.9
17.24
16.58
16.14
15.96
15.89
15.6
14.71
13.0
10.5
7.46
4.24
1.22
-1.41
-3.64
-5.64
-7.71
-10.07
-12.84
-15.92
-19.03
-21.87
-24.2
-26.0
-27.5
-29.11
-31.31
-34.44
-38.58
-43.31
-47.72
-50.53
-50.35
-46.21
-37.87
-25.98
-11.94
2.52
15.8
26.8
34.97
40.25
42.9
43.28
41.87
39.18
35.79
32.26
29.11
26.66
25.02
24.05
23.45
22.9
22.13
21.08
19.83
18.6
17.58
16.8
16.09
15.18
13.79
11.79
9.25
6.44
3.69
1.22
-0.89
-2.75
-4.63
-6.8
-9.48
-12.74
-16.46
-20.34
-24.04
-27.22
-29.75
-31.71
-33.39
-35.21
-37.64
-41.03
-45.38
-50.25
-54.65
-57.2
-56.46
-51.42
-41.86
-28.53
-12.99
2.86
17.25
28.95
37.42
42.71
45.23
45.58
44.34
42.06
39.24
36.34
33.69
31.52
29.9
28.74
27.83
27.01
26.14
25.18
24.2
23.21
22.24
21.21
20.05
18.73
17.21
15.5
13.57
11.41
9.01
6.43
3.78
1.19
-1.23
-3.47
-5.57
-7.66
-9.85
-12.28
-15.0
-18.04
-21.31
-24.66
-27.86
-30.68
-33.02
-34.96
-36.84
-39.13
-42.35
-46.72
-51.96
-57.18
-60.95
-61.68
-58.1
-49.69
-36.96
-21.34
-4.79
10.75
23.82
33.68
40.24
43.93
45.35
45.11
43.69
41.5
38.88
36.08
33.33
30.79
28.56
26.69
25.17
23.99
23.16
22.66
22.41
22.24
21.96
21.37
20.33
18.78
16.79
14.45
11.9
9.26
6.64
4.11
1.8
-0.26
-2.07
-3.73
-5.49
-7.57
-10.17
-13.31
-16.84
-20.49
-23.97
-27.08
-29.74
-32.06
-34.23
-36.54
-39.25
-42.62
-46.74
-51.38
-55.86
-59.03
-59.49
-56.02
-48.07
-36.04
-21.22
-5.5
9.28
21.72
31.13
37.46
41.05
42.39
41.95
40.15
37.46
34.32
31.22
28.51
26.4
24.9
23.85
23.04
22.26
21.42
20.52
19.64
18.85
18.14
17.4
16.47
15.15
13.36
11.09
8.47
5.71
2.99
0.52
-1.67
-3.63
-5.54
-7.65
-10.15
-13.09
-16.4
-19.82
-23.03
-25.78
-27.97
-29.67
-31.12
-32.69
-34.72
-37.51
-41.14
-45.28
-49.19
-51.73
-51.67
-48.02
-40.43
-29.34
-16.0
-2.06
10.88
21.62
29.57
34.68
37.19
37.47
35.94
33.06
29.43
25.7
22.47
20.1
18.62
17.77
17.17
16.57
15.94
15.43
15.21
15.27
15.41
15.26
14.44
12.76
10.24
7.13
3.8
0.62
-2.19
-4.57
-6.63
-8.59
-10.65
-12.96
-15.52
-18.23
-20.93
-23.47
-25.79
-27.97
-30.24
-32.91
-36.29
-40.42
-44.94
-48.97
-51.27
-50.48
-45.66
-36.65
-24.14
-9.6
5.19
18.56
29.37
37.08
41.77
43.8
43.69
41.95
39.08
35.55
31.85
28.47
25.75
23.86
22.7
21.99
21.42
20.73
19.88
18.97
18.16
17.52
16.96
16.24
15.07
13.28
10.85
7.97
4.93
2.03
-0.57
-2.87
-4.99
-7.12
-9.43
-12.03
-14.95
-18.11
-21.35
-24.43
-27.15
-29.4
-31.28
-33.06
-35.21
-38.18
-42.26
-47.32
-52.73
-57.31
-59.63
-58.32
-52.53
-42.27
-28.49
-12.82
2.83
16.83
28.09
36.21
41.29
43.8
44.27
43.26
41.3
38.89
36.42
34.23
32.5
31.25
30.38
29.72
29.12
28.48
27.82
27.17
26.59
26.02
25.31
24.28
22.77
20.78
18.43
15.89
13.35
10.89
8.46
5.95
3.26
0.39
-2.53
-5.28
-7.73
-9.84
-11.77
-13.78
-16.12
-18.92
-22.11
-25.45
-28.65
-31.49
-33.89
-35.96
-37.99
-40.39
-43.57
-47.76
-52.72
-57.66
-61.22
-61.84
-58.26
-49.97
-37.47
-22.16
-5.94
9.33
22.31
32.33
39.33
43.64
45.75
46.17
45.37
43.78
41.78
39.68
37.64
35.7
33.78
31.81
29.82
27.96
26.45
25.47
25.09
25.15
25.36
25.38
24.89
23.74
21.99
19.81
17.48
15.19
13.0
10.8
8.42
5.68
2.56
-0.8
-4.13
-7.17
-9.8
-12.05
-14.15
-16.36
-18.89
-21.77
-24.9
-28.04
-30.93
-33.41
-35.45
-37.23
-39.11
-41.54
-44.94
-49.45
-54.72
-59.76
-63.11
-63.14
-58.66
-49.29
-35.78
-19.75
-3.26
11.72
23.87
32.68
38.33
41.41
42.63
42.52
41.45
39.63
37.3
34.75
32.33
30.34
28.87
27.82
26.94
26.03
25.03
24.07
23.33
22.85
22.52
22.04
21.15
19.71
17.78
15.54
13.15
10.73
8.29
5.86
3.51
1.32
-0.67
-2.53
-4.42
-6.55
-9.01
-11.78
-14.65
-17.39
-19.79
-21.77
-23.37
-24.75
-26.14
-27.82
-30.09
-33.08
-36.62
-40.05
-42.26
-41.93
-37.93
-29.77
-17.89
-3.57
11.47
25.52
37.37
46.4
52.52
56.0
57.25
56.77
55.09
52.79
50.33
48.03
45.9
43.58
40.5
35.97
29.56
21.31
11.85
2.33
-5.91
-11.77
-14.77
-15.17
-13.83
-11.87
-10.3
-9.78
-10.6
-12.75
-16.07
-20.26
-24.96
-29.68
-33.88
-37.01
-38.74
-39.01
-38.13
-36.73
-35.55
-35.26
-36.32
-38.84
-42.58
-46.92
-51.0
-53.7
-53.91
-50.78
-43.97
-33.88
-21.48
-8.16
4.79
16.4
26.24
34.33
40.93
46.29
50.47
53.32
54.5
53.76
51.09
46.98
42.4
38.53
36.39
36.36
38.04
40.42
42.37
43.11
42.47
40.82
38.72
36.56
34.34
31.87
28.96
25.55
21.74
17.49
12.56
6.41
-1.47
-11.33
-22.78
-34.79
-45.89
-54.57
-59.66
-60.66
-57.78
-51.69
-43.23
-33.16
-22.0
-10.08
2.23
14.43
25.82
35.7
43.47
48.76
51.39
51.28
48.55
43.58
37.17
30.47
24.84
21.48
21.23
24.38
30.67
39.3
48.97
57.98
64.55
67.17
65.0
58.07
47.18
33.54
18.47
3.25
-10.99
-23.33
-33.32
-41.23
-48.07
-55.27
-64.09
-75.06
-87.79
-101.35
-114.68
-126.96
-137.54
-145.61
-149.94
-149.1
-142.02
-128.69
-110.39
-89.45
-68.5
-49.62
-33.81
-21.03
-10.68
-2.11
4.97
10.37
13.67
14.6
13.27
10.24
6.38
2.63
-0.13
-1.28
-0.51
2.17
6.28
11.03
15.4
18.49
19.76
19.19
17.17
14.32
11.16
7.98
4.84
1.74
-1.28
-4.09
-6.61
-8.99
-11.67
-15.27
-20.35
-26.98
-34.55
-41.63
-46.37
-46.91
-42.07
-31.71
-16.9
0.49
18.31
34.75
48.72
59.87
68.32
74.29
77.89
79.12
78.05
75.04
70.78
66.14
61.88
58.37
55.52
52.92
50.05
46.54
42.3
37.53
32.53
27.59
22.89
18.45
14.17
9.85
5.24
0.09
-5.73
-12.14
-18.86
-25.42
-31.38
-36.49
-40.86
-44.89
-49.19
-54.3
-60.45
-67.29
-73.81
-78.45
-79.38
-75.11
-64.96
-49.4
-29.99
-9.02
11.13
28.53
42.04
51.3
56.62
58.69
58.35
56.5
53.91
51.17
48.64
46.4
44.34
42.25
39.97
37.49
34.96
32.65
30.81
29.52
28.63
27.79
26.5
24.37
21.22
17.18
12.6
7.9
3.41
-0.76
-4.74
-8.79
-13.18
-18.03
-23.22
-28.46
-33.41
-37.8
-41.55
-44.86
-48.18
-52.12
-57.1
-63.07
-69.19
-73.83
-74.94
-70.74
-60.36
-44.32
-24.35
-2.98
17.32
34.64
47.98
57.13
62.44
64.48
63.94
61.53
57.92
53.75
49.56
45.68
42.24
39.21
36.48
33.99
31.77
29.96
28.68
27.91
27.43
26.83
25.72
23.83
21.18
17.97
14.51
10.95
7.24
3.18
-1.45
-6.71
-12.4
-18.17
-23.61
-28.42
-32.56
-36.2
-39.7
-43.49
-47.96
-53.23
-59.01
-64.39
-67.96
-68.1
-63.5
-53.67
-39.19
-21.65
-3.18
14.12
28.63
39.47
46.44
49.78
50.0
47.68
43.44
37.93
31.86
25.93
20.78
16.81
14.11
12.44
11.34
10.35
9.17
7.84
6.57
5.65
5.21
5.08
4.87
4.0
2.03
-1.23
-5.61
-10.63
-15.65
-20.12
-23.78
-26.66
-29.14
-31.72
-34.92
-39.06
-44.13
-49.64
-54.58
-57.57
-57.13
-52.21
-42.5
-28.75
-12.55
4.06
19.14
31.3
39.83
44.68
46.13
44.69
40.93
35.54
29.35
23.22
17.92
13.91
11.28
9.69
8.62
7.52
6.04
4.25
2.49
1.21
0.67
0.78
1.06
0.88
-0.31
-2.73
-6.16
-10.19
-14.31
-18.14
-21.56
-24.63
-27.55
-30.67
-34.41
-39.05
-44.59
-50.45
-55.46
-58.05
-56.73
-50.61
-39.84
-25.56
-9.57
6.15
19.94
30.75
38.1
42.0
42.73
40.71
36.49
30.77
24.32
17.98
12.49
8.34
5.7
4.37
3.89
3.75
3.53
3.08
2.53
2.13
2.07
2.28
2.44
2.0
0.49
-2.32
-6.3
-11.0
-15.83
-20.32
-24.29
-27.78
-30.99
-34.2
-37.66
-41.62
-46.18
-51.14
-55.84
-59.11
-59.48
-55.69
-47.14
-34.31
-18.61
-2.01
13.57
26.73
36.66
43.04
45.83
45.14
41.31
35.01
27.31
19.43
12.46
7.07
3.39
1.13
-0.2
-1.01
-1.51
-1.71
-1.55
-1.02
-0.25
0.42
0.51
-0.41
-2.67
-6.23
-10.79
-15.78
-20.62
-24.91
-28.51
-31.63
-34.63
-38.04
-42.26
-47.44
-53.25
-58.75
-62.47
-62.83
-58.63
-49.55
-36.31
-20.48
-3.97
11.44
24.49
34.42
40.83
43.6
42.8
38.85
32.58
25.14
17.77
11.47
6.78
3.7
1.87
0.85
0.28
0.04
0.15
0.65
1.43
2.17
2.37
1.57
-0.49
-3.78
-7.96
-12.55
-17.12
-21.39
-25.35
-29.13
-33.01
-37.34
-42.45
-48.5
-55.27
-61.9
-66.97
-68.7
-65.58
-56.86
-42.94
-25.26
-5.95
12.81
29.23
42.16
51.11
56.01
57.13
54.98
50.25
43.85
36.81
30.13
24.65
20.78
18.49
17.3
16.58
15.75
14.59
13.24
12.06
11.35
11.06
10.76
9.72
7.3
3.2
-2.37
-8.83
-15.4
-21.44
-26.61
-30.96
-34.88
-38.96
-43.83
-49.92
-57.11
-64.55
-70.59
-73.11
-70.17
-60.7
-44.99
-24.69
-2.35
19.34
38.14
52.69
62.46
67.57
68.52
65.99
60.84
54.09
46.84
40.14
34.79
31.21
29.34
28.75
28.79
28.85
28.49
27.61
26.37
25.04
23.8
22.58
21.07
18.78
15.27
10.37
4.29
-2.42
-9.07
-15.04
-20.04
-24.11
-27.63
-31.15
-35.26
-40.43
-46.74
-53.69
-60.11
-64.22
-64.09
-58.25
-46.26
-28.99
-8.45
12.79
32.24
48.11
59.48
66.22
68.74
67.74
64.01
58.45
52.0
45.56
39.95
35.64
32.8
31.26
30.63
30.49
30.51
30.52
30.41
30.1
29.42
28.17
26.22
23.57
20.36
16.81
13.06
9.09
4.77
-0.01
-5.24
-10.68
-15.98
-20.77
-24.87
-28.33
-31.39
-34.47
-38.02
-42.45
-47.93
-54.22
-60.41
-64.96
-65.98
-61.82
-51.66
-35.99
-16.54
4.18
23.6
39.69
51.37
58.45
61.37
60.91
57.91
53.2
47.56
41.77
36.51
32.31
29.45
27.93
27.5
27.81
28.5
29.3
30.03
30.53
30.63
30.1
28.7
26.32
22.98
18.94
14.56
10.21
6.13
2.32
-1.41
-5.33
-9.61
-14.22
-18.9
-23.27
-27.05
-30.19
-32.89
-35.59
-38.82
-43.03
-48.26
-54.0
-59.03
-61.67
-60.17
-53.31
-40.91
-24.05
-4.82
14.25
30.87
43.53
51.66
55.52
55.82
53.42
49.18
43.9
38.33
33.16
28.95
26.05
24.5
24.06
24.31
24.82
25.28
25.61
25.83
25.97
25.9
25.33
23.93
21.45
17.98
13.86
9.62
5.67
2.17
-1.07
-4.42
-8.17
-12.42
-16.95
-21.37
-25.31
-28.53
-31.06
-33.13
-35.23
-37.91
-41.68
-46.66
-52.37
-57.59
-60.6
-59.6
-53.4
-41.85
-26.04
-7.94
10.13
26.15
38.74
47.31
51.87
52.83
50.79
46.48
40.74
34.5
28.71
24.08
21.03
19.54
19.3
19.78
20.55
21.3
21.91
22.29
22.33
21.83
20.55
18.38
15.38
11.86
8.26
4.92
1.97
-0.75
-3.58
-6.87
-10.81
-15.36
-20.2
-24.89
-28.98
-32.21
-34.55
-36.27
-37.87
-40.03
-43.24
-47.64
-52.63
-56.99
-59.01
-57.11
-50.32
-38.72
-23.49
-6.61
9.72
23.63
33.93
40.19
42.66
41.92
38.76
33.98
28.38
22.71
17.64
13.67
11.11
10.01
10.18
11.25
12.73
14.12
14.97
15.03
14.26
12.81
10.95
8.91
6.77
4.4
1.6
-1.89
-6.15
-10.99
-16.1
-21.03
-25.45
-29.18
-32.23
-34.79
-37.14
-39.66
-42.75
-46.73
-51.63
-56.91
-61.41
-63.48
-61.5
-54.4
-42.22
-26.16
-8.27
9.09
23.93
35.05
42.11
45.44
45.74
43.76
40.22
35.75
30.94
26.34
22.48
