55.69
54.18
53.15
52.38
51.57
50.46
48.96
47.15
45.16
43.14
41.08
38.88
36.4
33.5
30.12
26.27
22.05
17.61
13.12
8.79
4.79
1.23
-1.95
-4.94
-8.1
-11.75
-16.08
-20.99
-26.15
-31.07
-35.35
-38.86
-41.79
-44.64
-48.05
-52.63
-58.73
-66.24
-74.35
-81.48
-85.49
-84.19
-76.11
-61.18
-40.93
-18.11
4.18
23.38
38.17
48.44
54.86
58.22
59.11
57.86
54.77
50.42
45.65
41.34
38.12
36.02
34.56
32.97
30.6
27.22
23.12
18.91
15.2
12.29
9.92
7.37
3.75
-1.64
-8.94
-17.6
-26.58
-34.7
-41.08
-45.49
-48.3
-50.3
-52.39
-55.27
-59.34
-64.67
-70.83
-76.9
-81.49
-83.13
-80.79
-74.4
-65.06
-54.65
-45.04
-37.23
-30.84
-24.34
-15.77
-3.87
11.23
27.86
43.36
55.02
60.93
60.4
53.87
42.46
27.44
10.0
-8.56
-26.59
-42.05
-52.87
-57.76
-56.73
-51.26
-43.78
-36.67
-31.39
-28.04
-25.68
-23.01
-19.22
-14.35
-9.18
-4.68
-1.46
0.55
1.96
3.53
5.72
8.44
11.17
13.18
13.97
13.44
11.86
9.71
7.33
4.77
1.76
-2.2
-7.56
-14.54
-22.86
-31.69
-39.73
-45.44
-47.48
-45.04
-38.22
-28.02
-16.09
-4.24
6.09
14.15
19.96
24.08
27.27
30.15
33.05
36.05
39.07
41.98
44.63
46.91
48.72
50.11
51.27
52.58
54.52
57.44
61.49
66.45
71.74
76.56
80.11
81.84
81.65
79.94
77.46
75.03
73.16
71.8
70.36
67.95
63.79
57.54
49.51
40.34
30.82
21.56
12.87
5.02
-1.8
-7.45
-12.11
-16.45
-21.57
-28.39
-37.06
-46.7
-55.68
-62.53
-66.86
-69.54
-72.06
-75.34
-78.81
-80.51
-78.17
-70.58
-58.53
-44.46
-31.11
-20.08
-11.03
-2.12
8.66
22.22
37.77
53.3
66.72
76.89
84.09
89.53
94.62
100.17
106.24
112.32
117.9
122.65
126.55
129.59
131.65
132.52
132.01
130.08
126.79
122.19
116.26
108.92
100.14
90.06
78.99
67.37
55.59
43.87
32.27
20.66
8.8
-3.59
-16.61
-29.97
-42.84
-53.83
-61.36
-64.13
-61.67
-54.53
-44.18
-32.51
-21.27
-11.58
-3.91
1.85
5.97
8.67
10.04
10.12
9.06
7.21
5.06
3.08
1.57
0.51
-0.35
-1.34
-2.68
-4.37
-6.15
-7.77
-9.08
-10.15
-11.31
-12.93
-15.27
-18.29
-21.69
-24.97
-27.78
-30.03
-32.01
-34.24
-37.25
-41.3
-46.26
-51.7
-57.02
-61.75
-65.66
-68.85
-71.69
-74.7
-78.37
-83.03
-88.56
-94.29
-98.92
-100.79
-98.38
-90.85
-78.44
-62.48
-44.99
-28.03
-13.16
-1.14
7.96
14.47
18.77
21.19
22.04
21.71
20.73
19.7
19.08
19.07
19.58
20.29
20.86
21.08
20.96
20.65
20.34
20.09
19.72
18.92
17.33
14.72
11.14
6.93
2.57
-1.48
-5.02
-8.17
-11.31
-14.89
-19.15
-24.04
-29.19
-34.12
-38.4
-41.92
-44.85
-47.61
-50.78
-54.83
-60.07
-66.38
-73.13
-79.05
-82.48
-81.7
-75.6
-64.09
-48.31
-30.34
-12.52
3.23
15.92
25.54
32.69
38.11
42.27
45.25
46.93
47.26
46.4
44.79
42.96
41.29
39.96
38.82
37.67
36.37
34.92
33.5
32.27
31.26
30.36
29.3
27.77
25.59
22.73
19.26
15.36
11.2
6.97
2.85
-1.03
-4.64
-8.06
-11.47
-15.16
-19.33
-24.03
-29.07
-34.07
-38.65
-42.56
-45.78
-48.53
-51.26
-54.45
-58.55
-63.85
-70.29
-77.29
-83.59
-87.43
-86.95
-80.87
-68.95
-52.34
-33.21
-14.04
3.08
16.98
27.48
35.07
40.5
44.39
47.07
48.71
49.42
49.39
48.85
48.08
47.24
46.42
45.62
44.79
43.93
43.17
42.65
42.51
42.78
43.24
43.51
43.2
42.02
39.98
37.41
34.81
32.68
31.28
30.49
29.91
28.99
27.34
24.85
21.77
18.56
15.59
12.99
10.46
7.47
3.47
-1.86
-8.39
-15.63
-22.86
-29.47
-35.08
-39.7
-43.64
-47.35
-51.32
-55.99
-61.6
-67.97
-74.34
-79.27
-80.91
-77.57
-68.39
-53.78
-35.45
-15.85
2.61
18.2
30.22
38.8
44.45
47.78
49.2
49.04
47.71
45.69
43.52
41.6
40.1
38.89
37.69
36.16
34.13
31.72
29.23
27.09
25.55
24.56
23.7
22.38
20.04
16.45
11.85
6.85
2.17
-1.69
-4.63
-6.97
-9.19
-11.74
-14.8
-18.27
-21.91
-25.47
-28.8
-31.89
-34.75
-37.42
-40.0
-42.72
-45.91
-49.87
-54.59
-59.48
-63.41
-65.01
-63.08
-57.13
-47.54
-35.42
-22.31
-9.62
1.59
10.73
17.6
22.2
24.66
25.2
24.2
22.17
19.75
17.51
15.85
14.94
14.64
14.68
14.72
14.49
13.88
12.88
11.61
10.21
8.76
7.28
5.7
3.86
1.58
-1.28
-4.75
-8.74
-13.03
-17.36
-21.49
-25.25
-28.59
-31.58
-34.37
-37.19
-40.34
-44.15
-48.8
-54.15
-59.54
-63.8
-65.51
-63.39
-56.81
-46.08
-32.43
-17.54
-3.11
9.66
20.21
28.51
34.76
39.21
41.96
43.06
42.71
41.24
39.17
37.0
35.12
33.68
32.61
31.76
30.98
30.21
29.44
28.7
27.93
26.96
25.6
23.67
21.13
18.11
14.81
11.3
7.54
3.37
-1.44
-6.88
-12.78
-18.79
-24.48
-29.56
-33.97
-37.82
-41.38
-45.01
-49.11
-54.01
-59.8
-66.04
-71.67
-75.08
-74.58
-69.0
-58.16
-43.09
-25.68
-8.09
7.89
21.23
31.72
39.66
45.52
49.64
52.2
53.31
53.17
52.12
50.58
48.9
47.28
45.7
43.99
42.05
39.92
37.85
36.12
34.88
34.02
33.16
31.8
29.56
26.28
22.17
17.68
13.35
9.56
6.35
3.48
0.45
-3.2
-7.73
-12.98
-18.49
-23.69
-28.07
-31.48
-34.1
-36.38
-38.94
-42.4
-47.25
-53.61
-61.06
-68.48
-74.18
-76.19
-72.92
-63.72
-49.21
-31.19
-12.06
5.91
21.11
32.85
41.25
46.85
50.22
51.81
51.85
50.59
48.39
45.75
43.19
41.14
39.77
38.99
38.58
38.26
37.88
37.43
37.01
36.68
36.37
35.87
34.9
33.17
30.51
26.92
22.62
17.91
13.16
8.68
4.58
0.87
-2.59
-6.0
-9.55
-13.33
-17.38
-21.61
-25.84
-29.88
-33.56
-36.8
-39.68
-42.46
-45.53
-49.37
-54.26
-60.06
-66.0
-70.71
-72.43
-69.65
-61.58
-48.53
-31.93
-13.83
3.67
18.94
31.09
39.92
45.66
48.71
49.52
48.54
46.26
43.24
40.06
37.22
35.06
33.71
33.02
32.69
32.38
31.85
31.03
30.02
29.0
28.1
27.29
26.42
25.26
23.6
21.34
18.53
15.35
12.07
8.92
6.03
3.43
0.98
-1.56
-4.44
-7.86
-11.86
-16.3
-20.89
-25.27
-29.12
-32.3
-34.85
-37.1
-39.5
-42.56
-46.7
-51.89
-57.6
-62.67
-65.53
-64.62
-58.92
-48.34
-33.86
-17.21
-0.4
14.87
27.48
36.96
43.3
46.73
47.57
46.2
43.21
39.32
35.34
31.97
29.58
28.21
27.57
27.28
26.98
26.5
25.82
25.05
24.26
23.51
22.74
21.82
20.66
19.14
17.27
15.12
12.8
10.46
8.16
5.94
3.68
1.23
-1.61
-4.91
-8.62
-12.57
-16.51
-20.2
-23.5
-26.45
-29.22
-32.1
-35.46
-39.56
-44.42
-49.58
-54.07
-56.51
-55.5
-50.08
-40.12
-26.49
-10.82
4.96
19.15
30.62
38.9
43.99
46.2
45.91
43.57
39.76
35.15
30.47
26.34
23.15
20.91
19.46
18.45
17.63
16.89
16.24
15.74
15.35
14.92
14.22
13.04
11.27
8.95
6.28
3.47
0.67
-2.04
-4.77
-7.63
-10.76
-14.22
-17.94
-21.76
-25.48
-28.92
-31.99
-34.81
-37.66
-40.89
-44.81
-49.42
-54.24
-58.35
-60.53
-59.62
-54.96
-46.63
-35.46
-22.88
-10.41
0.64
9.41
15.52
18.91
19.73
18.26
14.95
10.47
5.67
1.43
-1.6
-3.1
-3.22
-2.45
-1.41
-0.68
-0.56
-1.08
-2.02
-3.07
-3.98
-4.67
-5.29
-6.11
-7.45
-9.51
-12.3
-15.65
-19.3
-22.96
-26.44
-29.67
-32.69
-35.67
-38.85
-42.59
-47.13
-52.46
-58.04
-62.73
-64.97
-63.22
-56.53
-44.96
-29.69
-12.65
4.05
18.71
30.36
38.77
44.16
46.91
47.4
45.97
43.08
39.34
35.42
31.97
29.43
27.93
27.28
27.14
27.1
26.82
26.08
24.8
23.06
20.97
18.68
16.25
13.62
10.62
7.04
2.73
-2.32
-7.93
-13.83
-19.7
-25.29
-30.4
-34.96
-39.07
-42.97
-47.13
-52.06
-58.11
-65.11
-72.11
-77.45
-79.08
-75.19
-64.89
-48.56
-27.81
-5.11
16.92
36.08
51.0
61.15
66.73
68.37
66.93
63.37
58.67
53.76
49.39
46.02
43.76
42.38
41.45
40.55
39.42
38.01
36.38
34.6
32.59
30.18
27.16
23.43
19.06
14.3
9.43
4.65
-0.01
-4.67
-9.51
-14.57
-19.75
-24.77
-29.32
-33.24
-36.56
-39.58
-42.76
-46.61
-51.56
-57.76
-64.89
-71.94
-77.25
-78.73
-74.47
-63.4
-45.74
-23.12
1.75
25.9
46.82
62.95
73.81
79.71
81.37
79.6
75.21
69.06
62.05
55.2
49.33
44.95
42.08
40.27
38.89
37.41
35.6
33.56
31.59
29.89
28.46
27.01
25.17
22.62
19.29
15.42
11.41
7.72
4.65
2.22
0.16
-1.95
-4.52
-7.75
-11.55
-15.6
-19.44
-22.75
-25.5
-27.96
-30.69
-34.32
-39.33
-45.76
-53.06
-59.96
-64.71
-65.46
-60.83
-50.39
-34.97
-16.41
2.89
20.63
35.16
45.7
52.26
55.33
55.57
53.67
50.27
46.0
41.49
37.28
33.76
31.06
29.1
27.7
26.69
26.03
25.78
26.01
26.68
27.6
28.44
28.87
28.63
27.61
25.78
23.22
19.96
16.06
11.52
6.37
0.64
-5.6
-12.16
-18.8
-25.16
-30.92
-35.87
-40.06
-43.9
-48.04
-53.17
-59.62
-66.98
-74.03
-78.86
-79.46
-74.4
-63.39
-47.46
-28.69
-9.53
7.89
22.17
32.74
39.65
43.31
44.17
42.72
39.49
35.12
30.35
25.88
22.26
19.74
18.29
17.59
17.21
16.74
15.9
14.6
12.88
10.92
8.87
6.87
5.01
3.28
1.59
-0.24
-2.4
-5.07
-8.25
-11.84
-15.63
-19.4
-23.01
-26.49
-29.97
-33.77
-38.22
-43.66
-50.18
-57.46
-64.46
-69.57
-70.92
-66.94
-57.06
-41.94
-23.41
-3.87
14.35
29.58
41.02
48.65
52.91
54.4
53.69
51.35
47.94
44.02
40.15
36.7
33.83
31.5
29.52
27.76
26.22
25.03
24.35
24.2
24.37
24.42
23.84
22.21
19.38
15.55
11.16
6.67
2.46
-1.44
-5.2
-9.17
-13.64
-18.67
-24.05
-29.35
-34.12
-38.08
-41.22
-43.8
-46.34
-49.49
-53.82
-59.53
-66.19
-72.56
-76.78
-76.83
-71.21
-59.48
-42.59
-22.54
-1.86
17.13
32.84
44.63
52.57
57.22
59.25
59.24
57.67
54.96
51.57
48.02
44.75
42.1
40.18
38.84
37.8
36.79
35.66
34.4
33.15
32.01
31.01
30.03
28.77
26.87
24.06
20.24
15.59
10.57
5.7
1.46
-2.0
-4.85
-7.52
-10.48
-14.09
-18.4
-23.18
-28.03
-32.56
-36.52
-39.86
-42.78
-45.61
-48.83
-52.92
-58.2
-64.67
-71.66
-77.84
-81.34
-80.2
-73.09
-59.8
-41.48
-20.35
0.91
19.9
35.04
45.77
52.31
55.35
55.7
54.09
51.14
47.44
43.54
39.96
37.03
34.92
33.51
32.59
31.93
31.38
30.93
30.63
30.51
30.42
30.14
29.35
27.85
25.58
22.66
19.34
15.89
12.49
9.18
5.9
2.58
-0.81
-4.19
-7.43
-10.45
-13.29
-16.16
-19.34
-23.01
-27.14
-31.45
-35.52
-38.94
-41.53
-43.42
-45.04
-47.07
-50.17
-54.78
-60.82
-67.48
-73.21
-76.02
-74.02
-66.05
-52.23
-33.96
-13.58
6.26
23.37
36.42
45.07
49.72
51.12
50.13
47.52
43.98
40.13
36.57
33.75
31.91
31.04
30.89
31.13
31.46
31.65
31.65
31.47
31.12
30.62
29.91
28.9
27.49
25.63
23.35
20.76
18.05
15.3
12.47
9.45
6.08
2.35
-1.56
-5.36
-8.75
-11.69
-14.36
-17.12
-20.27
-23.88
-27.79
-31.62
-35.01
-37.78
-39.97
-41.86
-43.9
-46.58
-50.28
-55.08
-60.47
-65.32
-67.95
-66.61
-60.05
-48.04
-31.56
-12.58
6.52
23.64
37.36
47.17
53.23
56.09
56.38
54.71
51.61
47.64
43.39
39.44
36.28
34.21
33.26
33.15
33.46
33.76
33.76
33.38
32.73
31.97
31.16
30.15
28.69
26.49
23.43
19.64
15.46
11.37
7.77
4.83
2.43
0.25
-2.13
-5.0
-8.45
-12.32
-16.33
-20.16
-23.65
-26.8
-29.68
-32.45
-35.23
-38.24
-41.73
-45.98
-51.1
-56.7
-61.83
-65.01
-64.67
-59.74
-50.15
-36.93
-21.96
-7.36
5.17
14.72
21.13
24.77
26.14
25.6
23.45
20.01
15.8
11.47
7.71
4.97
3.35
2.67
2.55
2.75
3.1
3.62
4.28
4.95
5.39
5.36
4.72
3.5
1.92
0.21
-1.45
-3.08
-4.83
-6.95
-9.6
-12.76
-16.28
-19.82
-23.12
-26.02
-28.57
-31.0
-33.68
-37.02
-41.29
-46.45
-51.94
-56.61
-58.94
-57.39
-51.04
-39.91
-25.13
-8.64
7.37
21.12
31.54
38.34
41.83
42.53
41.06
38.02
34.03
29.75
25.8
22.66
20.53
19.35
18.84
18.72
18.8
19.03
19.38
19.79
20.09
19.96
19.12
17.36
14.69
11.31
7.51
3.67
-0.01
-3.5
-6.96
-10.69
-14.92
-19.7
-24.83
-29.93
-34.57
-38.55
-41.89
-44.92
-48.17
-52.25
-57.53
-63.94
-70.71
-76.34
-78.96
-76.76
-68.71
-55.01
-37.11
-17.29
2.03
18.89
32.22
41.74
47.74
50.69
51.07
49.37
46.12
42.03
37.87
34.37
31.93
30.6
30.07
29.85
29.6
29.22
28.86
28.77
29.05
29.44
29.43
28.46
26.09
22.32
17.54
12.42
7.6
3.45
-0.08
-3.42
-7.11
-11.57
-16.8
-22.42
-27.85
-32.6
-36.48
-39.73
-42.89
-46.61
-51.44
-57.62
-64.92
-72.49
-78.84
-82.01
-80.04
-71.58
-56.46
-35.92
-12.33
11.43
32.76
49.91
62.23
69.93
73.73
74.44
72.79
69.41
64.92
59.99
55.3
51.35
48.36
46.21
44.58
43.11
41.64
40.21
38.97
38.03
37.21
36.12
34.24
31.18
26.92
21.81
16.49
11.59
7.45
3.98
0.77
-2.73
-6.88
-11.69
-16.81
-21.76
-26.08
-29.57
-32.34
-34.73
-37.31
-40.68
-45.25
-50.98
-57.13
-62.19
-64.16
-61.15
-52.08
-37.16
-17.98
2.9
22.75
39.32
51.39
58.77
62.01
62.0
59.62
55.56
50.42
44.79
39.27
34.44
30.72
28.23
26.78
26.0
25.52
25.08
24.59
24.0
23.25
22.15
20.49
18.16
15.22
11.91
8.51
5.25
2.11
-1.1
-4.63
-8.66
-13.13
-17.8
-22.28
-26.28
-29.65
-32.47
-35.03
-37.76
-41.13
-45.48
-50.76
-56.32
-60.87
-62.75
-60.44
-53.18
-41.33
-26.39
-10.46
4.35
16.52
25.43
31.13
34.05
34.65
33.32
30.4
26.4
21.96
17.85
14.68
12.76
12.02
12.04
12.31
12.35
11.92
10.99
9.67
8.14
6.46
4.64
2.59
0.17
-2.67
-6.01
-9.83
-14.05
-18.58
-23.3
-28.05
-32.7
-37.13
-41.28
-45.25
-49.22
-53.57
-58.68
-64.76
-71.51
-78.01
-82.72
-83.87
-80.07
-70.88
-57.05
-40.44
-23.52
-8.6
2.62
9.42
12.01
11.21
8.1
3.68
-1.35
-6.7
-12.48
-19.15
-27.26
-37.16
-48.68
-60.83
-71.86
-79.52
-81.7
-77.14
-65.97
-49.85
-31.51
-14.06
-0.12
8.73
12.14
10.79
6.02
-0.7
-7.96
-14.67
-20.12
-23.92
-26.08
-27.02
-27.46
-28.31
-30.45
-34.54
-40.82
-48.96
-57.99
-66.28
-71.84
-72.65
-67.2
-54.98
-36.74
-14.32
9.84
33.43
54.82
73.27
88.83
101.84
112.56
120.98
126.84
129.8
129.8
127.05
122.13
115.75
108.64
101.34
94.16
87.17
80.29
73.46
66.73
60.3
54.44
49.35
44.97
40.95
36.75
31.88
26.06
19.28
11.77
3.9
-4.01
-11.68
-18.89
-25.48
-31.31
-36.3
-40.56
-44.36
-48.11
-52.24
-56.93
-61.89
-66.31
-68.91
-68.33
-63.5
-54.08
-40.61
-24.44
-7.28
9.19
23.69
35.45
44.22
50.07
53.27
54.19
53.23
50.86
47.64
44.12
40.89
38.4
36.93
36.43
36.63
37.05
37.17
36.61
35.22
33.09
30.47
27.62
24.74
21.86
18.91
15.74
12.26
8.54
4.87
1.66
-0.63
-1.62
-1.1
0.89
3.98
7.49
10.47
12.0
11.46
9.04
5.95
4.19
6.0
12.95
25.29
41.71
59.85
77.12
91.53
102.11
108.84
112.25
112.97
111.45
108.09
103.33
97.69
91.7
85.75
79.94
74.25
68.6
63.02
57.7
52.84
48.49
44.55
40.84
37.33
34.22
31.97
31.05
31.74
33.96
37.28
41.06
44.57
47.18
48.46
48.3
46.98
45.0
42.93
41.15
39.82
38.98
38.87
39.85
41.94
44.23
44.55
39.83
27.24
5.42
-24.68
-59.85
-95.52
-127.0
-150.36
-163.0
-163.71
-152.92
-132.71
-106.79
-79.88
-56.72
-40.94
-34.02
-35.25
-42.49
-53.47
-66.8
-82.25
-100.11
-120.36
-142.38
-165.2
-188.41
-212.64
-239.63
-271.36
-308.74
-350.05
-390.4
-422.63
-439.38
-435.69
-410.71
-368.08
-314.52
-257.63
-203.52
-155.46
-114.0
-78.13
-46.85
-19.82
2.94
21.96
38.8
55.66
74.24
94.73
115.64
134.31
148.25
156.3
159.09
158.69
157.42
156.81
157.05
157.28
156.17
152.67
146.34
137.41
126.58
114.73
102.77
91.38
80.98
71.67
63.42
56.13
49.69
43.98
38.81
34.03
29.54
25.39
21.75
18.89
16.98
16.01
15.82
16.13
16.79
17.89
19.9
23.53
29.59
38.74
51.26
66.79
84.28
101.97
117.72
129.62
136.52
138.56
137.2
134.64
133.12
134.07
137.76
143.34
149.49
154.89
158.61
160.3
159.99
157.95
154.54
150.16
145.08
139.24
132.14
122.81
110.09
93.04
71.4
45.85
17.85
-10.7
-38.02
-62.89
-84.75
-103.66
-119.86
-133.4
-143.85
-150.35
-151.89
-147.79
-138.25
-124.58
-109.03
-94.22
-82.22
-73.95
-68.95
-65.85
-63.14
-59.84
-55.78
-51.21
-46.11
-39.54
-29.66
-14.48
7.1
34.33
64.36
93.0
115.9
129.87
133.57
127.54
113.51
93.68
70.13
44.63
18.64
-6.52
-29.76
-50.34
-67.94
-82.66
-94.8
-104.64
-112.26
-117.54
-120.3
-120.45
-118.18
-113.99
-108.61
-102.81
-97.04
-91.29
-85.01
-77.36
-67.59
-55.4
-41.12
-25.64
-10.12
4.3
16.76
26.8
34.27
39.34
42.38
43.98
44.83
45.62
46.78
48.48
50.65
53.08
55.6
58.3
61.33
64.94
69.28
74.23
79.39
84.2
88.16
90.9
92.46
93.05
93.1
93.15
93.66
94.94
96.99
99.24
100.61
99.98
96.5
90.28
82.69
75.56
70.67
68.87
69.71
71.77
73.61
73.72
71.08
65.25
55.51
41.17
21.8
-2.43
-30.44
-59.59
-87.59
-112.37
-132.15
-146.58
-156.19
-161.96
-165.12
-166.64
-165.91
-163.39
-160.22
-157.94
-159.64
-168.75
-187.62
-216.91
-254.88
-296.13
-336.05
-371.11
-390.54
-385.97
-353.02
-292.92
-213.32
-135.42
-67.89
-13.32
28.61
59.09
80.85
94.31
99.63
96.78
86.5
71.98
55.28
37.78
20.56
3.71
-13.09
-25.46
-29.39
-21.87
-0.59
33.13
75.65
122.78
170.33
214.82
253.97
285.89
309.36
324.97
333.52
336.98
336.73
333.38
326.9
316.91
302.55
282.92
258.46
230.32
200.4
170.6
142.25
115.23
87.8
60.07
31.17
0.9
-30.01
-59.88
-86.83
-109.34
-127.03
-140.65
-151.89
-163.05
-176.19
-192.7
-212.83
-235.18
-256.05
-269.7
-269.85
-252.11
-216.74
-169.13
-118.62
-75.34
-46.77
-35.28
-38.16
-49.52
-63.1
-74.62
-82.1
-85.14
-83.79
-77.95
-67.64
-53.65
-38.11
-24.28
-15.65
-14.4
-20.49
-31.72
-44.82
-56.94
-66.93
-75.52
-84.57
-95.68
-108.8
-121.78
-130.9
-132.18
-122.98
-102.89
-73.95
-39.96
-5.23
26.62
53.28
73.76
87.91
95.77
97.41
92.94
82.98
68.89
52.61
36.25
21.49
9.22
-0.43
-7.63
-12.49
-14.88
-14.74
-12.39
-8.82
-5.4
-3.39
-3.38
-5.23
-8.37
-12.31
-17.04
-22.93
-30.43
-39.66
-50.3
-61.65
-72.79
-82.5
-89.03
-90.21
-83.9
-68.92
-45.77
-16.94
13.83
42.68
66.72
84.59
96.25
102.39
103.84
101.34
95.71
87.85
78.85
69.66
60.85
52.56
44.69
37.19
30.26
24.31
19.74
16.7
14.83
13.4
11.43
8.03
2.75
-4.38
-12.81
-21.68
-29.99
-36.86
-41.79
-44.9
-47.04
-49.64
-54.38
-62.38
-73.5
-85.9
-96.26
-100.7
-96.07
-81.09
-56.79
-26.18
6.77
38.19
65.2
86.12
100.35
108.05
109.82
106.59
99.61
90.32
80.04
69.74
59.83
50.25
40.74
31.16
21.82
13.36
6.61
2.18
0.08
-0.39
-0.57
-1.98
-5.79
-12.35
-21.09
-30.73
-39.76
-46.98
-51.87
-54.75
-56.59
-58.73
-62.31
-67.74
-74.24
-79.63
-80.81
-74.72
-59.55
-35.61
-5.47
26.84
57.2
82.65
101.95
115.29
123.57
127.66
128.1
125.28
119.78
112.51
104.56
96.85
89.66
82.59
74.84
65.67
54.92
43.18
31.68
21.84
14.71
10.5
8.49
7.23
5.14
1.13
-5.11
-13.12
-21.94
-30.66
-38.74
-46.27
-53.9
-62.57
-73.21
-86.28
-101.36
-116.8
-129.68
-136.41
-133.66
-119.63
-94.82
-62.15
-26.05
8.85
39.12
63.13
80.88
93.29
101.29
105.43
106.0
103.35
98.24
91.79
85.06
78.63
72.36
65.61
57.66
48.3
38.06
28.1
19.78
14.06
11.13
10.32
10.4
10.01
8.26
4.88
0.27
-4.89
-10.11
-15.31
-20.9
-27.47
-35.62
-45.61
-57.32
-70.25
-83.37
-95.01
-103.04
-105.24
-100.16
-87.72
-69.56
-48.53
-27.76
-9.57
5.08
16.55
25.75
33.46
39.84
44.58
47.25
47.82
46.73
44.73
42.45
40.16
37.68
34.65
30.84
26.36
21.74
17.67
14.76
13.23
12.88
13.06
12.95
11.77
8.99
4.43
-1.71
-8.9
-16.53
-24.05
-31.14
-37.81
-44.26
-50.91
-58.29
-66.96
-77.28
-89.01
-100.91
-110.61
-115.06
-111.47
-98.52
-77.01
-49.81
-20.96
5.81
28.13
45.34
58.02
67.09
73.15
76.26
76.29
73.39
68.31
62.23
56.37
51.5
47.71
44.58
41.42
37.75
33.45
28.88
24.56
21.03
18.61
17.27
16.7
16.38
15.69
14.03
10.9
6.03
-0.51
-8.34
-16.85
-25.38
-33.49
-41.04
-48.27
-55.65
-63.83
-73.25
-83.88
-94.95
-104.72
-110.8
-110.68
-102.61
-86.38
-63.57
-37.13
-10.52
13.37
32.91
47.74
58.33
65.33
69.15
69.93
67.81
63.25
57.1
50.47
44.3
39.16
35.15
32.06
29.55
27.48
25.87
24.84
24.46
24.58
24.86
24.83
23.99
21.89
18.32
13.27
7.0
-0.04
-7.45
-14.93
-22.42
-29.9
-37.37
-44.7
-51.82
-58.85
-66.16
-74.16
-82.78
-91.03
-97.01
-98.39
-93.34
-81.42
-63.85
-43.11
-22.03
-2.83
13.34
26.36
36.61
44.41
49.82
52.61
52.64
50.16
45.89
40.81
35.86
31.57
27.84
24.06
19.44
13.55
6.63
-0.36
-6.13
-9.61
-10.44
-9.14
-6.88
-4.92
-4.15
-4.89
-7.01
-10.28
-14.61
-20.08
-26.81
-34.7
-43.46
-52.75
-62.23
-71.63
-80.4
-87.47
-91.26
-90.02
-82.53
-68.71
-49.88
-28.38
-6.9
12.39
28.24
40.35
48.99
54.57
57.37
57.59
55.58
51.98
47.72
43.78
40.78
38.8
37.36
35.77
33.46
30.38
26.98
23.98
22.01
21.23
21.25
21.29
20.49
18.26
14.43
9.21
2.96
-3.96
-11.36
-19.22
-27.64
-36.76
-46.73
