35.5
34.51
33.48
32.22
30.37
27.61
23.72
18.77
13.16
7.49
2.29
-2.2
-6.14
-10.01
-14.34
-19.34
-24.84
-30.3
-35.13
-39.04
-42.08
-44.69
-47.51
-51.12
-55.91
-61.88
-68.53
-74.81
-79.13
-79.76
-75.33
-65.4
-50.76
-33.21
-15.01
1.84
16.13
27.58
36.56
43.66
49.29
53.55
56.29
57.37
56.86
55.13
52.78
50.44
48.56
47.28
46.49
45.99
45.66
45.52
45.68
46.13
46.62
46.61
45.42
42.53
37.83
31.69
24.88
18.25
12.42
7.56
3.35
-0.8
-5.5
-11.1
-17.49
-24.22
-30.64
-36.19
-40.63
-44.11
-47.15
-50.48
-54.9
-61.0
-68.96
-78.2
-87.29
-94.09
-96.28
-92.12
-81.19
-64.63
-44.77
-24.4
-5.82
9.75
22.19
32.15
40.38
47.45
53.5
58.46
62.16
64.52
65.6
65.54
64.52
62.76
60.52
58.05
55.67
53.7
52.35
51.74
51.71
51.95
52.0
51.4
49.83
47.22
43.71
39.52
34.86
29.7
23.91
17.32
9.93
2.02
-5.79
-12.73
-18.2
-21.97
-24.36
-26.07
-27.97
-30.69
-34.48
-39.1
-44.04
-48.74
-52.9
-56.65
-60.48
-65.09
-71.08
-78.64
-87.22
-95.52
-101.64
-103.63
-100.09
-90.73
-76.47
-59.13
-40.86
-23.39
-7.71
5.89
17.62
27.72
36.42
43.81
50.02
55.26
59.74
63.64
66.94
69.52
71.16
71.7
71.11
69.49
67.09
64.24
61.3
58.53
56.09
53.93
51.81
49.43
46.54
43.07
39.18
35.14
31.28
27.8
24.64
21.56
18.23
14.41
10.09
5.52
1.04
-3.02
-6.54
-9.71
-12.9
-16.53
-20.88
-25.9
-31.28
-36.53
-41.22
-45.15
-48.47
-51.57
-55.0
-59.3
-64.88
-71.9
-80.0
-88.18
-94.78
-97.81
-95.5
-87.04
-72.88
-54.74
-35.04
-16.08
0.6
14.39
25.52
34.59
42.08
48.23
53.01
56.27
58.0
58.36
57.69
56.38
54.76
53.02
51.3
49.7
48.39
47.62
47.5
47.94
48.59
48.97
48.62
47.35
45.17
42.24
38.68
34.5
29.57
23.84
17.38
10.48
3.57
-2.97
-8.91
-14.23
-19.08
-23.68
-28.19
-32.67
-37.05
-41.25
-45.22
-48.94
-52.48
-55.93
-59.48
-63.39
-67.98
-73.48
-79.72
-85.92
-90.69
-92.28
-89.22
-80.88
-67.81
-51.58
-34.18
-17.37
-2.28
10.74
21.83
31.25
39.05
45.08
49.16
51.32
51.84
51.27
50.2
49.09
48.21
47.58
47.02
46.37
45.42
44.11
42.46
40.54
38.41
36.09
33.57
30.7
27.39
23.58
19.29
14.74
10.13
5.71
1.56
-2.41
-6.45
-10.86
-15.89
-21.58
-27.71
-33.84
-39.48
-44.26
-48.13
-51.37
-54.49
-58.09
-62.69
-68.58
-75.71
-83.51
-90.81
-95.92
-96.97
-92.48
-81.98
-66.35
-47.54
-28.06
-10.1
5.03
17.07
26.48
33.95
39.96
44.69
48.08
50.09
50.86
50.75
50.18
49.62
49.32
49.36
49.67
50.08
50.44
50.7
50.88
51.01
51.09
51.03
50.65
49.73
48.07
45.54
42.09
37.71
32.4
26.25
19.38
12.01
4.43
-3.03
-10.16
-16.9
-23.41
-29.96
-36.8
-43.97
-51.26
-58.23
-64.43
-69.57
-73.67
-77.1
-80.44
-84.37
-89.44
-95.71
-102.56
-108.59
-111.74
-109.9
-101.56
-86.49
-65.93
-42.24
-18.24
3.59
21.7
35.62
45.67
52.65
57.43
60.67
62.82
64.1
64.6
64.43
63.8
63.05
62.57
62.66
63.43
64.78
66.47
68.27
69.99
71.49
72.5
72.66
71.56
68.98
65.04
60.14
54.87
49.74
44.93
40.21
35.15
29.33
22.55
15.05
7.3
-0.14
-6.88
-12.82
-18.16
-23.23
-28.36
-33.71
-39.3
-44.97
-50.51
-55.7
-60.35
-64.46
-68.2
-71.99
-76.41
-81.98
-88.92
-96.75
-104.18
-109.26
-109.92
-104.62
-92.95
-75.87
-55.37
-33.87
-13.53
4.29
19.05
30.89
40.27
47.65
53.41
57.76
60.83
62.71
63.5
63.34
62.42
60.95
59.2
57.44
55.95
54.97
54.68
55.08
55.96
56.89
57.4
57.11
55.82
53.62
50.72
47.28
43.37
38.95
33.93
28.35
22.35
16.25
10.41
5.13
0.49
-3.64
-7.59
-11.69
-16.16
-20.98
-25.91
-30.61
-34.81
-38.48
-41.81
-45.23
-49.25
-54.45
-61.26
-69.72
-79.24
-88.39
-95.18
-97.47
-93.78
-83.77
-68.49
-50.06
-30.88
-12.96
2.55
15.38
25.79
34.15
40.62
45.07
47.39
47.62
46.16
43.65
40.74
37.92
35.34
32.95
30.64
28.49
26.79
25.91
26.07
27.09
28.4
29.13
28.52
26.11
21.97
16.64
10.83
5.2
0.05
-4.7
-9.37
-14.33
-19.68
-25.27
-30.69
-35.48
-39.31
-42.15
-44.26
-46.14
-48.41
-51.67
-56.38
-62.58
-69.7
-76.47
-81.09
-81.67
-76.89
-66.44
-51.26
-33.21
-14.47
3.06
18.24
30.68
40.49
47.95
53.21
56.33
57.3
56.27
53.69
50.23
46.7
43.77
41.8
40.73
40.27
40.02
39.74
39.44
39.23
39.2
39.18
38.71
37.2
34.19
29.57
23.7
17.26
10.95
5.28
0.32
-4.22
-8.82
-13.9
-19.55
-25.55
-31.49
-36.96
-41.75
-45.99
-50.03
-54.4
-59.64
-66.16
-74.07
-82.92
-91.57
-98.18
-100.62
-97.2
-87.24
-71.51
-52.04
-31.48
-12.21
4.21
17.36
27.65
35.82
42.57
48.26
52.95
56.51
58.87
60.06
60.24
59.62
58.45
56.89
55.09
53.16
51.31
49.81
48.85
48.45
48.37
48.14
47.28
45.49
42.75
39.28
35.35
31.15
26.71
21.96
16.86
11.45
5.92
0.49
-4.72
-9.72
-14.67
-19.78
-25.19
-30.9
-36.72
-42.4
-47.68
-52.45
-56.77
-60.91
-65.26
-70.33
-76.57
-84.18
-92.82
-101.35
-107.91
-110.29
-106.68
-96.31
-79.91
-59.43
-37.55
-16.69
1.52
16.52
28.56
38.29
46.31
52.94
58.26
62.22
64.82
66.19
66.55
66.19
65.34
64.14
62.67
61.04
59.41
58.07
57.31
57.24
57.74
58.33
58.39
57.31
54.83
51.02
46.32
41.34
36.55
32.21
28.24
24.36
20.24
15.68
10.67
5.45
0.39
-4.19
-8.13
-11.56
-14.79
-18.24
-22.24
-26.95
-32.21
-37.73
-43.13
-48.14
-52.7
-56.94
-61.18
-65.87
-71.49
-78.36
-86.32
-94.5
-101.28
-104.57
-102.54
-94.24
-80.16
-62.03
-42.32
-23.26
-6.3
8.15
20.39
30.93
40.14
48.07
54.57
59.49
62.85
64.78
65.48
65.12
63.89
62.0
59.74
57.49
55.6
54.36
53.82
53.81
54.01
53.99
53.33
51.76
49.12
45.45
40.89
35.65
29.99
24.11
18.19
12.33
6.62
1.17
-3.89
-8.54
-12.82
-16.9
-21.0
-25.24
-29.62
-33.99
-38.15
-42.03
-45.71
-49.38
-53.32
-57.81
-63.08
-69.3
-76.35
-83.64
-89.99
-93.7
-93.07
-86.95
-75.33
-59.39
-41.16
-22.8
-6.01
8.37
20.26
29.97
37.84
43.94
48.17
50.39
50.65
49.31
47.0
44.48
42.43
41.24
41.02
41.54
42.45
43.42
44.31
45.1
45.83
46.43
46.59
45.83
43.64
39.73
34.1
27.08
19.26
11.23
3.44
-3.9
-10.78
-17.31
-23.52
-29.37
-34.67
-39.18
-42.73
-45.29
-47.07
-48.43
-49.86
-51.9
-55.08
-59.82
-66.29
-74.2
-82.51
-89.52
-93.15
-91.48
-83.49
-69.47
-50.97
-30.41
-10.25
7.66
22.4
33.92
42.78
49.62
54.96
59.07
62.01
63.81
64.54
64.38
63.54
62.27
60.79
59.27
57.84
56.58
55.59
54.86
54.29
53.63
52.52
50.66
47.88
44.27
40.11
35.72
31.33
26.98
22.49
17.69
12.51
7.04
1.56
-3.72
-8.75
-13.69
-18.83
-24.35
-30.21
-36.15
-41.77
-46.77
-51.1
-54.97
-58.82
-63.08
-68.2
-74.47
-81.98
-90.32
-98.49
-104.8
-107.23
-104.03
-94.34
-78.69
-58.85
-37.3
-16.45
2.07
17.56
30.14
40.28
48.46
54.96
59.92
63.38
65.45
66.31
66.18
65.33
63.94
62.21
60.34
58.52
56.99
55.95
55.52
55.68
56.21
56.73
56.79
56.03
54.26
51.55
48.1
44.14
39.79
34.95
29.44
23.16
16.19
8.88
1.77
-4.62
-9.95
-14.21
-17.73
-20.99
-24.47
-28.4
-32.79
-37.38
-41.89
-46.1
-49.95
-53.61
-57.37
-61.69
-67.04
-73.78
-81.82
-90.32
-97.66
-101.61
-100.11
-91.96
-77.52
-58.59
-37.89
-18.03
-0.76
13.35
24.69
34.04
42.0
48.75
54.2
58.16
60.67
61.93
62.22
61.75
60.6
58.79
56.37
53.6
50.87
48.63
47.17
46.53
46.42
46.43
46.07
45.02
43.14
40.45
37.09
33.19
28.84
24.07
18.89
13.38
7.66
1.94
-3.57
-8.69
-13.42
-17.92
-22.47
-27.31
-32.52
-37.98
-43.41
-48.51
-53.12
-57.23
-61.07
-65.06
-69.69
-75.33
-81.97
-89.01
-95.15
-98.58
-97.51
-90.83
-78.58
-62.03
-43.28
-24.53
-7.45
7.17
19.28
29.17
37.05
42.83
46.27
47.2
45.88
43.0
39.56
36.52
34.53
33.74
33.97
34.76
35.71
36.6
37.37
38.06
38.65
39.0
38.79
37.62
35.16
31.27
26.1
20.13
13.9
7.92
2.4
-2.76
-7.9
-13.38
-19.26
-25.35
-31.18
-36.31
-40.5
-43.85
-46.73
-49.66
-53.24
-57.92
-63.97
-71.18
-78.79
-85.36
-89.03
-88.03
-81.29
-68.91
-52.21
-33.34
-14.54
2.49
16.88
28.54
37.8
45.01
50.38
53.94
55.68
55.77
54.54
52.51
50.28
48.34
47.04
46.52
46.69
47.31
48.1
48.84
49.36
49.53
49.18
48.1
46.04
42.89
38.67
33.59
27.98
22.16
16.34
10.65
5.15
-0.08
-4.93
-9.37
-13.5
-17.59
-21.98
-26.86
-32.19
-37.67
-42.92
-47.67
-51.91
-55.91
-60.14
-65.08
-71.15
-78.58
-87.2
-96.2
-104.08
-108.77
-108.17
-100.91
-86.96
-67.73
-45.74
-23.68
-3.7
13.1
26.65
37.46
46.18
53.21
58.72
62.7
65.18
66.27
66.25
65.42
64.01
62.24
60.23
58.15
56.24
54.8
54.03
54.0
54.54
55.23
55.52
54.9
53.13
50.23
46.51
42.39
38.23
34.2
30.21
25.98
21.19
15.68
9.57
3.24
-2.79
-8.09
-12.53
-16.36
-20.06
-24.24
-29.26
-35.15
-41.59
-48.01
-53.9
-58.99
-63.33
-67.33
-71.65
-77.0
-83.91
-92.34
-101.48
-109.59
-114.35
-113.51
-105.72
-91.07
-71.22
-48.81
-26.6
-6.67
10.01
23.45
34.21
42.9
49.92
55.42
59.46
62.13
63.67
64.37
64.5
64.25
63.67
62.75
61.55
60.25
59.17
58.62
58.76
59.42
60.16
60.28
59.19
56.57
52.5
47.41
41.92
36.61
31.76
27.37
23.1
18.56
13.49
7.9
2.15
-3.24
-7.85
-11.5
-14.43
-17.15
-20.23
-24.02
-28.56
-33.56
-38.6
-43.34
-47.69
-51.8
-56.03
-60.78
-66.39
-73.09
-80.68
-88.46
-95.03
-98.53
-97.07
-89.45
-75.73
-57.29
-36.49
-15.85
2.64
18.04
30.35
40.11
48.01
54.45
59.56
63.26
65.56
66.64
66.88
66.87
67.19
68.24
70.14
72.73
75.68
78.71
81.71
84.79
88.11
91.73
95.53
99.19
102.33
104.77
106.49
107.77
109.01
110.65
113.03
116.33
120.59
125.7
131.56
138.01
144.95
152.43
160.53
169.24
178.21
186.57
192.84
195.37
192.8
184.51
170.79
152.61
131.01
106.82
80.62
53.09
25.37
-0.87
-23.84
-42.23
-55.77
-65.26
-72.22
-78.25
-84.49
-91.3
-98.11
-103.59
-105.98
-103.65
-95.79
-83.13
-68.05
-54.47
-47.0
-50.03
-66.52
-96.7
-136.97
-179.83
-215.39
-234.73
-233.87
-216.39
-193.16
-178.95
-186.96
-223.87
-287.42
-367.44
-449.64
-520.14
-569.11
-592.37
-590.99
-569.68
-534.75
-492.53
-448.27
-405.9
-368.14
-336.63
-311.94
-293.36
-278.75
-265.02
-249.15
-229.37
-205.93
-180.86
-157.06
-136.97
-121.55
-110.04
-100.43
-90.54
-78.97
-65.63
-51.66
-38.83
-28.69
-21.8
-17.48
-14.1
-9.64
-2.56
7.73
20.7
34.99
49.05
61.84
73.23
84.05
95.72
109.56
126.18
145.21
165.39
185.26
203.7
220.47
236.21
252.09
269.26
288.58
310.65
335.86
364.13
394.18
422.98
445.99
458.38
457.02
441.87
416.03
384.11
350.0
315.34
279.63
241.7
201.61
161.4
124.35
93.29
69.03
50.03
33.45
16.63
-1.48
-20.07
-36.94
-49.6
-56.31
-56.61
-51.33
-42.03
-30.4
-17.72
-4.88
7.25
17.34
23.49
23.78
17.04
3.68
-14.35
-34.04
-52.32
-66.84
-76.25
-79.98
-78.0
-70.61
-58.48
-42.7
-24.65
-5.68
13.19
31.38
48.49
64.08
77.53
88.21
95.7
99.87
100.76
98.1
91.27
79.38
61.97
39.63
14.15
-11.72
-35.16
-54.04
-67.45
-75.63
-79.63
-80.75
-80.36
-79.7
-79.94
-82.12
-86.84
-94.03
-102.66
-110.71
-115.45
-114.05
-104.42
-85.97
-60.07
-29.76
1.08
28.97
51.78
69.24
82.49
93.18
102.42
110.23
115.67
117.43
114.6
107.3
96.61
84.23
71.81
60.48
50.77
42.85
36.7
31.92
27.39
21.28
11.5
-3.33
-22.89
-44.99
-66.25
-83.45
-94.82
-100.37
-101.35
-99.25
-94.97
-88.74
-80.54
-70.59
-59.55
-48.14
-36.93
-26.18
-16.1
-7.11
0.23
5.44
8.51
9.9
10.5
11.33
13.39
17.87
26.19
39.65
58.57
81.3
103.75
120.23
125.27
115.76
92.36
59.21
22.23
-13.12
-43.43
-67.53
-85.6
-97.84
-103.78
-102.43
-93.31
-77.3
-56.87
-35.31
-15.57
0.93
14.67
27.45
41.26
57.12
74.46
91.47
106.01
116.62
123.09
126.53
128.74
131.5
135.95
142.39
150.44
159.39
168.42
176.82
183.99
189.74
194.67
200.6
210.56
227.85
254.33
288.68
325.74
357.53
375.9
375.56
355.89
320.75
276.27
227.92
178.37
127.26
72.26
10.83
-58.31
-134.21
-213.13
-288.22
-349.96
-387.74
-392.69
-361.05
-296.44
-209.78
-116.43
-31.77
33.07
73.26
90.09
88.82
76.15
58.3
40.2
25.3
15.55
11.16
10.18
9.17
4.21
-7.72
-27.6
-54.4
-85.77
-119.06
-151.9
-182.62
-209.42
-230.13
-242.47
-244.91
-237.66
-222.89
-204.0
-184.56
-167.81
-155.85
-149.71
-149.48
-154.23
-161.93
-169.41
-172.81
-166.41
-147.1
-116.03
-78.96
-43.48
-14.91
5.87
21.63
36.26
52.43
69.96
87.15
102.25
114.67
125.14
134.74
143.95
152.16
158.94
161.86
159.18
150.61
137.47
122.21
107.44
95.12
85.99
79.61
73.89
66.72
56.64
43.27
27.22
9.61
-8.77
-28.3
-47.6
-67.6
-90.1
-117.42
-151.56
-193.09
-239.59
-284.97
-320.35
-336.27
-326.59
-290.28
-232.01
-160.22
-83.82
-9.45
58.97
119.02
167.55
199.24
208.32
190.89
147.1
81.54
1.88
-83.08
-164.51
-233.71
-282.81
-305.95
-302.01
-277.14
-244.48
-220.44
-218.31
-242.49
-286.33
-335.44
-373.93
-390.92
-383.96
-357.89
-320.92
-280.18
-239.65
-200.52
-163.14
-128.66
-99.37
-77.49
-63.54
-55.67
-50.1
-42.78
-31.15
-15.11
3.24
20.91
35.55
46.59
55.41
64.61
76.94
94.08
116.16
141.76
168.72
194.94
219.32
242.05
264.43
288.02
313.54
340.15
365.42
386.3
400.39
406.98
407.02
402.28
393.9
381.59
363.87
339.28
307.73
271.0
232.01
193.22
155.21
116.43
74.27
26.82
-25.71
-80.73
-134.29
-182.64
-223.43
-255.81
-279.77
-295.15
-301.19
-296.81
-281.4
-255.45
-220.52
-178.68
-131.79
-81.2
-28.07
25.93
78.03
124.6
161.98
187.62
200.98
203.6
198.58
189.54
179.64
170.84
163.42
156.05
146.3
131.49
109.62
80.21
44.54
5.47
-33.37
-68.41
-96.79
-116.63
-127.06
-128.21
-121.09
-107.59
-90.16
-71.37
-53.19
-36.65
-21.78
-8.12
4.69
16.35
25.82
31.77
33.41
31.13
26.92
23.92
25.55
34.22
50.23
71.22
92.62
108.84
114.95
108.28
89.12
60.46
26.87
-7.07
-37.91
-63.88
-84.58
-100.33
-111.47
-118.04
-119.9
-116.84
-108.77
-95.47
-76.49
-51.12
-18.97
19.28
61.07
101.75
135.3
155.82
159.23
144.56
114.23
73.33
28.18
-15.18
-52.1
-79.82
-97.47
-105.69
-106.19
-101.25
-93.32
-84.61
-76.89
-71.26
-68.19
-67.6
-68.96
-71.39
-73.68
-74.39
-72.11
-65.82
-55.34
-41.48
-25.77
-9.89
4.94
18.31
30.41
41.58
51.76
60.29
66.19
68.59
67.24
62.6
55.71
47.82
40.18
33.77
29.19
26.71
26.21
27.3
29.35
31.69
33.65
34.57
33.89
31.21
26.46
20.04
12.66
5.12
-1.96
-8.38
-14.37
-20.27
-26.28
-32.2
-37.49
-41.38
-43.23
-42.78
-40.32
-36.81
-33.7
-32.5
-34.23
-38.87
-45.18
-51.07
-54.29
-53.33
-47.99
-39.43
-29.59
-20.48
-13.35
-8.37
-4.66
-0.86
4.27
11.25
19.69
28.44
36.1
41.57
44.42
44.94
43.9
42.24
40.73
39.91
40.06
41.26
43.47
46.44
49.62
52.19
53.13
51.51
46.71
38.78
28.37
16.65
4.98
-5.46
-13.93
-20.24
-24.72
-28.08
-31.27
-35.33
-41.2
-49.41
-59.85
-71.48
-82.39
-90.18
-92.57
-88.07
-76.53
-59.16
-38.19
-16.28
4.19
21.54
34.92
44.14
49.35
50.78
48.6
43.08
34.78
24.9
15.41
8.71
7.03
11.53
21.73
35.4
49.24
59.97
65.39
64.96
59.58
50.92
40.7
30.3
20.66
12.48
6.12
1.59
-1.61
-4.46
-8.08
-13.39
-20.74
-29.95
-40.42
-51.35
-61.73
-70.31
-75.6
-76.24
-71.52
-61.93
-49.39
-36.74
-26.74
-21.05
-19.56
-20.51
-21.38
-20.03
-15.51
-8.31
0.17
8.37
15.25
20.58
24.66
27.94
30.65
32.73
34.0
34.4
34.15
33.71
33.66
34.47
36.39
39.42
43.34
47.75
52.18
56.2
59.33
61.08
60.91
58.28
52.84
44.59
34.06
22.3
10.72
0.66
-6.97
-12.01
-15.03
-17.07
-19.25
-22.29
-26.41
-31.27
-36.33
-41.04
-45.1
-48.53
-51.58
-54.61
-57.81
-61.1
-63.91
-65.23
-63.67
-57.98
-47.48
-32.58
-14.79
3.52
19.84
32.25
39.92
43.18
43.23
41.53
39.31
37.26
35.55
33.98
32.23
30.03
27.17
23.6
19.35
14.68
9.99
5.84
2.78
1.22
1.34
3.0
5.81
9.22
12.7
15.79
18.18
19.7
20.25
19.72
17.99
14.92
10.49
4.86
-1.6
-8.4
-15.06
-21.31
-27.13
-32.76
-38.61
-45.06
-52.22
-59.58
-66.01
-69.81
-69.24
-63.18
-51.62
-35.88
-18.25
-1.32
12.84
23.12
29.48
32.57
33.29
32.39
30.43
27.83
25.01
22.5
20.77
20.04
20.19
20.68
20.8
19.93
17.81
14.7
11.21
8.16
6.27
5.94
7.13
9.43
12.18
14.61
16.03
15.88
13.82
9.7
3.61
-4.13
-12.98
-22.25
-31.22
-39.36
-46.44
-52.51
-57.88
-62.7
-66.75
-69.34
-69.42
-66.03
-58.71
-47.85
-34.59
-20.5
-7.08
4.69
14.42
22.17
28.26
32.98
36.57
39.34
41.7
44.22
47.4
51.4
55.83
59.81
62.21
62.06
58.95
53.17
45.65
37.6
30.08
23.73
18.67
14.59
11.13
8.11
5.68
4.21
4.03
5.05
6.69
7.94
7.83
5.91
2.6
-0.99
-3.49
-3.83
-1.63
2.67
7.81
11.87
12.6
7.84
-3.78
-22.06
-44.92
-68.67
-89.14
-103.06
-109.15
-108.34
-102.93
-95.35
-86.94
-77.64
-66.62
-53.23
-37.97
-22.52
-9.21
0.07
4.77
5.93
5.64
6.07
8.5
12.91
18.42
23.95
29.01
33.98
39.79
47.31
56.71
67.37
77.94
86.86
92.62
93.98
89.95
79.95
63.96
42.69
17.7
-8.77
-34.28
-56.61
-74.22
-86.32
-92.88
-94.51
-92.31
-87.85
-82.89
-79.2
-78.1
-80.03
-84.22
-88.88
-91.6
-90.14
-83.06
-70.18
-52.53
-31.96
-10.5
10.1
28.73
44.77
57.95
68.14
75.28
79.38
80.67
79.55
76.59
72.38
67.43
62.18
56.99
52.24
48.25
45.25
43.31
42.22
41.57
40.87
39.73
37.91
35.42
32.46
29.32
26.24
23.32
20.55
17.81
15.11
12.62
10.72
9.92
10.64
13.02
16.68
20.82
24.28
26.03
25.39
22.13
16.45
8.75
-0.63
-11.48
-23.74
-37.22
-51.38
-65.05
-76.54
-83.91
-85.51
-80.56
-69.43
-53.65
-35.45
-17.15
-0.56
13.36
24.47
33.15
39.96
45.43
49.92
53.64
56.67
58.98
60.44
60.82
59.75
56.77
51.34
43.03
31.7
17.71
2.06
-13.71
-27.86
-38.86
-45.85
-48.82
-48.59
-46.48
-43.89
-41.94
-41.32
-42.2
-44.43
-47.67
-51.53
-55.56
-59.26
-61.96
-63.01
-61.98
-58.91
-54.38
-49.5
-45.56
-43.61
-43.96
-45.94
-47.92
-47.7
-43.19
-33.05
-17.31
2.59
24.23
44.94
62.58
76.04
85.18
90.38
92.08
90.41
85.32
76.89
65.7
52.91
39.97
28.14
18.08
9.7
2.45
-4.18
-10.23
-15.23
-18.51
-19.71
-19.04
-17.33
-15.62
-14.71
-14.75
-15.32
-15.78
-15.69
-15.09
-14.42
-14.23
-14.88
-16.29
-18.0
-19.4
-20.06
-19.92
-19.34
-18.97
-19.44
-21.09
-23.75
-26.71
-28.93
-29.38
-27.42
-23.09
-17.07
-10.43
-4.26
0.71
