-55.01
-60.22
-64.65
-66.9
-65.5
-59.46
-48.75
-34.33
-17.92
-1.51
13.25
25.32
34.31
40.36
43.89
45.38
45.31
44.14
42.22
39.92
37.58
35.5
33.96
33.12
32.98
33.48
34.44
35.69
37.02
38.25
39.12
39.38
38.77
37.17
34.61
31.33
27.68
24.01
20.56
17.38
14.35
11.26
7.87
4.13
0.1
-3.98
-7.76
-11.02
-13.7
-15.95
-18.08
-20.39
-23.07
-26.15
-29.48
-32.85
-36.09
-39.12
-42.11
-45.35
-49.19
-53.87
-59.23
-64.56
-68.63
-69.96
-67.27
-59.95
-48.28
-33.44
-17.15
-1.19
12.98
24.45
32.87
38.3
41.06
41.64
40.6
38.54
36.09
33.78
31.99
30.92
30.56
30.73
31.2
31.75
32.23
32.64
33.01
33.4
33.78
34.02
33.87
33.07
31.47
29.12
26.24
23.15
20.15
17.36
14.72
12.04
9.13
5.89
2.4
-1.19
-4.63
-7.75
-10.4
-12.59
-14.42
-16.11
-17.97
-20.3
-23.24
-26.7
-30.38
-33.9
-36.96
-39.55
-41.96
-44.71
-48.29
-52.95
-58.43
-63.85
-67.91
-69.14
-66.35
-59.06
-47.65
-33.33
-17.73
-2.53
10.96
21.94
30.08
35.42
38.23
38.91
37.97
35.95
33.43
30.93
28.88
27.53
27.02
27.31
28.23
29.59
31.22
32.95
34.68
36.27
37.55
38.28
38.18
37.1
35.02
32.09
28.64
24.99
21.39
17.98
14.7
11.43
8.0
4.35
0.52
-3.28
-6.76
-9.68
-11.94
-13.63
-15.08
-16.69
-18.83
-21.61
-24.94
-28.47
-31.81
-34.69
-37.09
-39.26
-41.71
-45.0
-49.44
-54.89
-60.54
-65.08
-66.98
-64.96
-58.43
-47.62
-33.6
-17.91
-2.24
11.91
23.48
31.88
37.04
39.31
39.31
37.81
35.54
33.08
30.82
28.99
27.73
27.1
27.06
27.53
28.34
29.37
30.5
31.75
33.06
34.32
35.27
35.53
34.82
33.04
30.33
27.04
23.57
20.16
16.89
13.63
10.2
6.55
2.73
-1.02
-4.46
-7.4
-9.82
-11.88
-13.85
-16.03
-18.56
-21.47
-24.65
-27.89
-31.01
-33.93
-36.65
-39.32
-42.25
-45.76
-50.14
-55.32
-60.72
-65.28
-67.63
-66.47
-61.03
-51.36
-38.37
-23.52
-8.49
5.28
16.79
25.54
31.5
34.88
36.09
35.57
33.8
31.28
28.46
25.76
23.57
22.15
21.65
22.07
23.22
24.83
26.54
28.04
29.14
29.78
30.01
29.82
29.2
28.0
26.05
23.26
19.72
15.65
11.42
7.33
3.55
0.13
-3.03
-6.08
-9.12
-12.24
-15.45
-18.75
-22.03
-25.18
-28.01
-30.37
-32.21
-33.62
-34.91
-36.55
-38.97
-42.44
-46.7
-50.98
-53.99
-54.36
-50.99
-43.55
-32.54
-19.17
-5.04
8.35
19.86
28.83
35.03
38.57
39.75
39.01
36.88
33.89
30.61
27.54
25.13
23.66
23.2
23.6
24.53
25.62
26.61
27.41
28.07
28.64
29.11
29.33
29.02
27.9
25.74
22.5
18.37
13.65
8.79
4.17
0.04
-3.54
-6.76
-9.88
-13.18
-16.8
-20.68
-24.58
-28.21
-31.36
-33.99
-36.25
-38.45
-40.94
-44.03
-47.91
-52.54
-57.61
-62.41
-65.86
-66.69
-63.75
-56.45
-45.05
-30.65
-14.91
0.44
13.98
24.89
32.91
38.2
41.12
42.07
41.51
39.85
37.54
35.03
32.73
30.94
29.86
29.52
29.82
30.57
31.52
32.44
33.17
33.64
33.76
33.47
32.65
31.14
28.84
25.71
21.85
17.52
13.06
8.8
4.99
1.71
-1.16
-3.82
-6.56
-9.56
-12.9
-16.5
-20.2
-23.8
-27.14
-30.15
-32.86
-35.41
-38.03
-41.01
-44.63
-49.13
-54.47
-60.17
-65.24
-68.26
-67.81
-62.84
-53.24
-39.81
-24.19
-8.27
6.3
18.46
27.81
34.4
38.5
40.46
40.66
39.53
37.59
35.37
33.3
31.67
30.6
30.13
30.21
30.83
31.9
33.29
34.81
36.16
37.08
37.34
36.81
35.5
33.48
30.88
27.87
24.56
21.03
17.32
13.48
9.56
5.64
1.85
-1.73
-5.12
-8.42
-11.8
-15.38
-19.2
-23.15
-26.99
-30.46
-33.38
-35.73
-37.69
-39.65
-42.08
-45.44
-49.94
-55.32
-60.8
-65.07
-66.64
-64.26
-57.35
-46.25
-32.14
-16.7
-1.67
11.6
22.31
30.21
35.45
38.32
39.2
38.48
36.65
34.25
31.82
29.85
28.63
28.26
28.61
29.5
30.71
32.08
33.52
34.95
36.24
37.17
37.47
36.93
35.48
33.19
30.36
27.29
24.25
21.33
18.42
15.3
11.79
7.87
3.7
-0.39
-4.07
-7.15
-9.69
-11.95
-14.31
-17.0
-20.05
-23.26
-26.3
-28.93
-31.09
-32.88
-34.42
-35.9
-37.57
-39.9
-43.51
-48.86
-55.9
-63.78
-70.99
-75.77
-76.71
-73.11
-64.97
-52.82
-37.36
-19.38
0.24
20.38
39.75
56.94
70.71
80.1
84.61
84.35
80.03
73.05
65.06
57.51
51.05
45.5
40.09
34.17
27.67
21.25
15.88
12.19
10.02
8.56
6.74
3.85
-0.08
-4.43
-8.46
-11.78
-14.48
-17.08
-20.08
-23.79
-28.15
-32.99
-38.18
-43.68
-49.57
-55.79
-62.05
-67.8
-72.39
-75.36
-76.67
-76.77
-76.5
-76.76
-78.18
-80.79
-83.78
-85.63
-84.36
-78.16
-65.99
-48.01
-25.73
-1.68
21.49
41.87
58.81
72.87
85.03
95.79
104.65
110.19
110.98
106.41
97.17
85.01
71.99
59.7
49.06
40.37
33.73
29.24
26.96
26.56
27.19
27.62
26.62
23.46
18.23
11.74
5.15
-0.49
-4.63
-7.38
-9.3
-11.16
-13.59
-16.84
-20.74
-24.85
-28.59
-31.55
-33.62
-35.03
-36.32
-38.13
-40.86
-44.38
-47.91
-50.14
-49.64
-45.38
-37.12
-25.58
-12.21
1.21
13.12
22.48
28.97
32.8
34.41
34.23
32.51
29.34
24.86
19.4
13.65
8.52
4.87
3.21
3.44
4.91
6.67
7.87
8.01
7.04
5.31
3.3
1.39
-0.2
-1.44
-2.42
-3.25
-4.07
-5.04
-6.34
-8.15
-10.6
-13.69
-17.3
-21.26
-25.46
-29.89
-34.68
-39.86
-45.14
-49.78
-52.65
-52.49
-48.4
-40.14
-28.3
-14.19
0.57
14.41
26.08
34.84
40.47
43.16
43.46
42.08
39.74
37.08
34.49
32.21
30.32
28.79
27.56
26.6
25.86
25.32
25.01
24.86
24.8
24.6
23.95
22.58
20.36
17.35
13.85
10.2
6.62
3.17
-0.29
-4.04
-8.25
-12.95
-17.94
-22.82
-27.19
-30.8
-33.66
-36.13
-38.81
-42.39
-47.39
-53.83
-61.05
-67.63
-71.72
-71.46
-65.61
-54.01
-37.71
-18.8
0.2
17.01
30.08
38.89
43.78
45.63
45.43
44.08
42.18
40.11
38.17
36.57
35.53
35.08
35.09
35.29
35.39
35.26
34.96
34.76
34.94
35.59
36.48
37.09
36.71
34.76
30.94
25.46
18.95
12.28
6.27
1.43
-2.22
-5.05
-7.67
-10.71
-14.53
-19.18
-24.39
-29.66
-34.46
-38.43
-41.47
-43.86
-46.22
-49.25
-53.46
-58.8
-64.45
-68.89
-70.31
-67.13
-58.59
-45.06
-28.0
-9.55
8.1
23.2
34.72
42.41
46.56
47.84
47.0
44.82
42.01
39.14
36.66
34.87
33.89
33.67
34.06
34.81
35.68
36.47
37.08
37.49
37.73
37.75
37.42
36.5
34.74
31.99
28.24
23.68
18.68
13.69
9.1
5.15
1.9
-0.85
-3.43
-6.19
-9.43
-13.23
-17.48
-21.93
-26.25
-30.14
-33.45
-36.16
-38.43
-40.57
-43.07
-46.45
-51.05
-56.77
-62.86
-67.92
-70.16
-67.98
-60.5
-47.96
-31.75
-14.02
2.97
17.4
28.33
35.67
39.97
41.99
42.44
41.8
40.34
38.27
35.87
33.46
31.44
30.11
29.6
29.85
30.67
31.76
32.85
33.72
34.21
34.22
33.66
32.52
30.81
28.58
25.89
22.8
19.38
15.66
11.74
7.73
3.78
0.03
-3.45
-6.72
-9.92
-13.26
-16.89
-20.81
-24.88
-28.79
-32.28
-35.2
-37.64
-39.85
-42.19
-45.08
-48.84
-53.6
-59.1
-64.51
-68.48
-69.39
-65.82
-57.13
-43.8
-27.41
-10.22
5.53
18.26
27.26
32.72
35.3
35.83
34.96
33.21
30.97
28.57
26.39
24.84
24.15
24.38
25.39
26.86
28.45
29.9
31.07
31.89
32.36
32.47
32.13
31.16
29.36
26.59
22.82
18.19
13.04
7.84
3.08
-0.9
-4.0
-6.37
-8.41
-10.54
-13.11
-16.27
-19.97
-23.98
-27.98
-31.65
-34.78
-37.3
-39.38
-41.41
-43.97
-47.6
-52.5
-58.23
-63.62
-66.93
-66.39
-60.77
-49.87
-34.72
-17.26
0.21
15.62
27.64
35.79
40.33
41.91
41.29
39.14
36.0
32.36
28.67
25.37
22.86
21.36
20.91
21.33
22.34
23.66
25.12
26.61
28.03
29.26
30.07
30.18
29.27
27.18
23.89
19.63
14.79
9.84
5.21
1.14
-2.35
-5.5
-8.65
-12.13
-16.07
-20.38
-24.71
-28.67
-31.96
-34.5
-36.49
-38.29
-40.38
-43.23
-47.17
-52.28
-58.14
-63.78
-67.73
-68.34
-64.3
-55.1
-41.33
-24.57
-6.94
9.49
23.19
33.37
39.94
43.25
43.85
42.32
39.23
35.19
30.8
26.73
23.55
21.67
21.18
21.86
23.31
25.05
26.78
28.31
29.59
30.59
31.13
30.91
29.62
27.08
23.32
18.68
13.69
8.89
4.66
1.11
-1.94
-4.94
-8.36
-12.55
-17.5
-22.87
-28.03
-32.39
-35.62
-37.81
-39.46
-41.34
-44.18
-48.4
-53.86
-59.77
-64.77
-67.26
-65.71
-59.25
-47.96
-32.97
-16.18
0.23
14.41
25.24
32.41
36.25
37.41
36.58
34.38
31.33
27.93
24.68
22.06
20.41
19.86
20.28
21.42
22.98
24.73
26.52
28.28
29.88
31.01
31.28
30.24
27.61
23.48
18.3
12.77
7.58
3.18
-0.38
-3.43
-6.47
-9.99
-14.18
-18.96
-23.92
-28.52
-32.34
-35.14
-37.08
-38.65
-40.57
-43.57
-48.1
-53.96
-60.15
-65.07
-66.8
-63.78
-55.31
-41.91
-25.19
-7.47
8.88
22.12
31.35
36.62
38.56
38.04
35.84
32.61
28.83
24.97
21.52
18.94
17.52
17.32
18.1
19.46
21.0
22.41
23.52
24.3
24.65
24.46
23.54
21.76
19.13
15.81
12.06
8.14
4.16
0.08
-4.3
-9.18
-14.58
-20.3
-25.94
-31.05
-35.29
-38.62
-41.31
-43.94
-47.13
-51.2
-55.93
-60.38
-63.01
-62.13
-56.52
-45.93
-31.3
-14.54
2.01
16.26
26.98
33.86
37.41
38.42
37.64
35.56
32.46
28.62
24.47
20.69
18.01
17.0
17.77
19.97
22.91
25.8
28.06
29.38
29.68
29.08
27.67
25.53
22.72
19.3
15.32
10.87
6.0
0.79
-4.63
-10.04
-15.12
-19.6
-23.33
-26.38
-29.04
-31.76
-34.99
-39.1
-44.11
-49.61
-54.58
-57.58
-57.08
-51.92
-41.85
-27.71
-11.32
5.06
19.37
30.33
37.59
41.52
42.83
42.23
40.26
37.38
34.06
30.91
28.53
27.33
27.42
28.5
30.06
31.63
32.93
33.9
34.59
34.99
34.89
33.97
31.89
28.51
24.01
18.84
13.56
8.7
4.52
0.89
-2.57
-6.36
-10.82
-15.97
-21.46
-26.75
-31.25
-34.7
-37.19
-39.21
-41.46
-44.66
-49.29
-55.33
-62.08
-68.11
-71.57
-70.61
-64.09
-52.0
-35.65
-17.26
0.69
16.19
28.17
36.52
41.75
44.62
45.72
45.46
44.21
42.3
40.17
38.27
36.95
36.37
36.51
37.21
38.23
39.42
40.67
41.88
42.97
43.79
44.04
43.42
41.68
38.7
34.64
29.92
25.07
20.61
16.84
13.8
11.24
8.77
6.07
2.98
-0.4
-3.78
-6.87
-9.49
-11.74
-13.93
-16.52
-19.89
-24.16
-29.13
-34.36
-39.34
-43.62
-47.06
-49.78
-52.21
-54.96
-58.67
-63.76
-70.11
-76.78
-82.06
-83.81
-80.17
-70.26
-54.62
-35.19
-14.71
4.11
19.38
30.29
37.12
40.74
42.18
42.28
41.61
40.58
39.48
38.58
38.09
38.14
38.72
39.74
41.03
42.41
43.8
45.09
46.2
46.99
47.29
46.88
45.57
43.28
40.03
36.08
31.74
27.38
23.32
19.77
16.75
14.2
11.96
9.86
7.75
5.51
3.06
0.45
-2.23
-4.77
-7.04
-9.06
-11.05
-13.44
-16.64
-20.88
-26.02
-31.62
-37.06
-41.8
-45.61
-48.61
-51.25
-54.17
-57.96
-63.03
-69.31
-76.12
-82.09
-85.39
-84.19
-77.31
-64.68
-47.59
-28.27
-9.27
7.27
20.12
29.03
34.52
37.45
38.73
39.04
38.85
38.48
38.1
37.85
37.8
38.01
38.46
39.07
39.74
40.38
41.0
41.68
42.48
43.35
44.06
44.25
43.52
41.57
38.34
34.04
29.09
24.05
19.43
15.63
12.77
10.67
8.9
6.96
4.52
1.51
-1.82
-5.02
-7.73
-9.79
-11.38
-12.89
-14.83
-17.53
-21.13
-25.44
-30.1
-34.64
-38.71
-42.13
-44.98
-47.6
-50.48
-54.17
-59.03
-64.94
-71.12
-76.12
-78.11
-75.44
-67.24
-53.83
-36.78
-18.43
-1.23
12.96
23.28
29.88
33.53
35.26
35.88
35.88
35.5
34.84
34.08
33.45
33.2
33.44
34.09
34.96
35.83
36.6
37.37
38.27
39.39
40.56
41.34
41.16
39.59
36.49
32.17
27.26
22.51
18.45
15.27
12.76
10.5
8.06
5.25
2.15
-0.96
-3.75
-6.06
-7.97
-9.76
-11.85
-14.55
-18.01
-22.12
-26.58
-30.98
-34.95
-38.25
-40.86
-43.02
-45.17
-47.9
-51.73
-56.79
-62.61
-67.99
-71.2
-70.48
-64.67
-53.68
-38.65
-21.61
-4.86
9.65
20.77
28.29
32.66
34.64
35.02
34.38
33.11
31.49
29.79
28.31
27.37
27.19
27.8
29.05
30.68
32.38
33.91
35.14
35.96
36.3
36.02
35.0
33.16
30.57
27.44
24.04
20.62
17.24
13.85
10.29
6.5
2.58
-1.23
-4.62
-7.44
-9.76
-11.86
-14.1
-16.74
-19.83
-23.23
-26.73
-30.1
-33.16
-35.86
-38.22
-40.43
-42.85
-45.99
-50.26
-55.68
-61.57
-66.49
-68.59
-66.19
-58.43
-45.7
-29.57
-12.3
3.81
17.03
26.49
32.24
34.88
35.3
34.32
32.61
30.63
28.67
26.92
25.54
24.66
24.42
24.86
25.92
27.41
29.1
30.72
32.04
32.92
33.25
32.94
31.96
30.28
27.92
24.99
21.61
17.91
14.0
9.96
5.89
1.89
-1.93
-5.55
-9.03
-12.51
-16.17
-20.07
-24.11
-28.06
-31.64
-34.62
-37.03
-39.06
-41.07
-43.51
-46.74
-51.05
-56.42
-62.34
-67.71
-71.03
-70.68
-65.54
-55.41
-41.24
-24.91
-8.69
5.47
16.34
23.57
27.5
28.83
28.27
26.44
23.81
20.81
17.91
15.54
14.05
13.61
14.17
15.43
17.06
18.72
20.25
21.62
22.87
23.93
24.54
24.33
22.95
20.23
16.33
11.67
6.77
2.05
-2.35
-6.51
-10.63
-14.82
-19.0
-22.85
-26.03
-28.28
-29.59
-30.28
-30.91
-32.17
-34.59
-38.33
-42.95
-47.37
-50.03
-49.38
-44.36
-34.87
-21.83
-7.05
7.45
19.86
29.12
34.93
37.65
38.0
36.69
34.33
31.35
28.14
25.03
22.4
20.59
19.8
20.02
21.04
22.47
23.94
25.17
25.95
26.16
25.69
24.43
22.3
19.32
15.72
11.78
7.81
3.92
0.02
-4.1
-8.67
-13.68
-18.85
-23.7
-27.77
-30.86
-33.13
-35.08
-37.41
-40.79
-45.52
-51.36
-57.4
-62.16
-63.91
-61.23
-53.47
-41.03
-25.39
-8.69
6.9
19.69
28.84
34.37
36.86
37.15
36.07
34.24
32.12
30.03
28.27
27.02
26.4
26.39
26.91
27.82
28.96
30.19
31.35
32.19
32.45
31.79
29.98
26.98
22.98
18.38
13.64
9.13
4.97
1.07
-2.83
-7.02
-11.56
-16.32
-20.96
-25.14
-28.65
-31.48
-33.9
-36.37
-39.46
-43.75
-49.46
-56.21
-62.83
-67.52
-68.33
-63.88
-53.85
-39.27
-22.2
-5.06
10.09
22.01
30.38
35.63
38.53
39.78
39.94
39.32
38.13
36.67
35.31
34.44
34.31
34.93
35.98
37.04
37.69
37.8
37.5
37.0
36.45
35.72
34.49
32.36
29.12
24.85
19.94
14.98
10.46
6.65
3.47
0.56
-2.59
-6.33
-10.77
-15.71
-20.69
-25.22
-28.96
-31.85
-34.14
-36.43
-39.42
-43.77
-49.78
-57.11
-64.66
-70.68
-73.17
-70.57
-62.24
-48.78
-31.89
-13.9
2.92
16.91
27.29
34.1
37.95
39.63
39.86
39.15
37.85
36.24
34.66
33.45
32.96
33.34
34.52
36.2
37.98
39.5
40.51
40.93
40.72
39.94
38.57
36.6
34.05
30.9
27.25
23.18
18.84
14.38
10.02
5.95
2.27
-1.0
-4.01
-7.01
-10.29
-14.05
-18.28
-22.77
-27.13
-30.99
-34.13
-36.59
-38.67
-40.87
-43.78
-47.85
-53.22
-59.46
-65.56
-69.96
-71.05
-67.47
-58.76
-45.52
-29.28
-12.18
3.67
16.78
26.45
32.77
36.36
38.03
38.44
38.11
37.37
36.44
35.55
34.97
34.88
35.41
36.46
37.83
39.23
40.41
41.18
41.46
41.25
40.53
39.31
37.54
35.18
32.3
29.01
25.52
22.01
18.6
15.26
11.88
8.32
4.56
0.73
-2.93
-6.18
-8.99
-11.53
-14.12
-17.1
-20.65
-24.71
-28.94
-32.98
-36.48
-39.3
-41.63
-43.84
-46.54
-50.29
-55.38
-61.53
-67.69
-72.22
-73.28
-69.49
-60.41
-46.85
-30.57
-13.76
1.59
14.14
23.4
29.55
33.16
34.88
35.29
34.83
33.85
32.6
31.3
30.16
29.38
29.09
29.39
30.25
31.58
33.16
34.7
35.88
36.39
36.0
34.64
32.35
29.33
25.78
21.92
17.94
13.99
10.17
6.58
3.27
0.26
-2.5
-5.12
-7.76
-10.56
-13.66
-17.11
-20.88
-24.79
-28.54
-31.8
-34.34
-36.16
-37.56
-39.1
-41.45
-45.13
-50.29
-56.43
-62.39
-66.59
-67.37
-63.55
-54.87
-42.1
-26.92
-11.37
2.69
14.02
22.15
27.3
30.02
30.92
30.53
29.2
27.26
25.06
23.06
21.73
21.42
22.22
23.86
25.84
27.58
28.68
29.05
28.91
28.58
28.18
27.55
26.29
23.98
20.45
15.98
11.17
6.75
3.19
0.56
-1.52
-3.62
-6.25
-9.66
-13.69
-17.92
-21.82
-24.97
-27.23
-28.79
-30.13
-31.85
-34.57
-38.67
-44.11
-50.3
-56.05
-59.84
-60.15
-55.98
-47.21
-34.68
-20.02
-5.15
8.22
19.0
26.82
31.9
34.81
36.1
36.25
35.5
34.07
32.19
30.23
28.64
27.78
27.83
28.7
30.07
31.56
32.86
33.78
34.29
34.37
33.94
32.8
30.74
27.59
23.4
18.49
13.31
8.39
4.09
0.49
-2.61
-5.65
-9.01
-12.94
-17.36
-21.99
-26.4
-30.21
-33.25
-35.62
-37.65
-39.79
-42.58
-46.47
-51.63
-57.75
-63.93
-68.69
-70.33
-67.4
-59.26
-46.41
-30.42
-13.45
2.31
15.33
24.97
31.4
35.28
37.39
38.31
38.42
37.94
37.06
36.03
35.14
34.64
34.65
35.17
36.09
37.25
38.51
39.68
40.63
41.17
41.05
40.09
38.15
35.28
31.65
27.59
23.4
19.32
15.39
11.53
7.63
3.68
-0.18
-3.72
-6.77
-9.33
-11.62
-14.0
-16.82
-20.25
-24.21
-28.39
-32.41
-35.99
-39.08
-41.88
-44.8
-48.35
-52.94
-58.7
-65.26
-71.62
-76.24
-77.41
-73.74
-64.75
-51.03
-34.26
-16.61
-0.16
13.63
24.12
31.41
36.03
38.63
39.86
40.19
39.99
39.51
38.91
38.31
37.8
37.55
37.65
38.15
39.0
40.03
41.08
41.95
42.5
42.54
41.89
40.41
38.0
34.78
31.03
27.11
23.35
19.95
16.84
13.81
10.62
7.14
3.41
-0.36
-3.89
-6.98
-9.58
-11.86
-14.17
-16.87
-20.18
-24.09
-28.31
-32.43
-36.11
-39.18
-41.82
-44.47
-47.76
-52.23
-58.07
-64.84
-71.37
-75.96
-76.8
-72.56
-62.91
-48.68
-31.67
-14.08
2.09
15.47
25.49
32.24
36.19
38.0
38.29
37.6
36.42
35.15
34.1
33.46
33.26
33.47
33.92
34.53
35.24
36.08
37.09
38.21
39.23
39.81
39.56
38.23
35.76
32.36
28.33
24.02
19.67
15.37
11.14
6.97
2.92
-0.91
-4.39
-7.47
-10.22
-12.83
-15.59
-18.72
-22.28
-26.14
-30.0
-33.56
-36.63
-39.25
-41.63
-44.19
-47.37
-51.56
-56.88
-62.93
-68.71
-72.69
-73.2
-68.93
-59.51
-45.7
-29.31
-12.61
2.3
14.06
22.21
27.1
29.45
29.99
29.27
27.61
25.32
22.79
20.49
18.93
18.45
19.08
20.54
22.43
24.34
26.07
27.56
28.81
29.72
29.99
29.2
27.01
23.36
18.58
13.31
8.28
4.01
0.62
-2.2
-4.97
-8.18
-12.0
-16.21
-20.29
-23.72
-26.21
-27.86
-29.06
-30.38
-32.36
-35.41
-39.63
-44.77
-50.09
-54.39
-56.12
-53.88
-46.87
-35.32
-20.49
-4.42
10.71
23.18
32.11
37.49
39.87
40.03
38.72
36.46
33.66
30.67
27.9
25.75
24.51
24.24
24.77
25.75
26.84
27.81
28.57
29.09
29.28
28.87
27.51
24.96
21.23
16.66
11.79
7.15
3.03
-0.57
-3.93
-7.41
-11.29
-15.6
-20.2
-24.75
-28.9
-32.42
-35.23
-37.52
-39.74
-42.54
-46.47
-51.74
-57.9
-63.77
-67.65
-67.77
-62.94
-52.99
-38.92
-22.63
-6.31
8.17
19.64
27.81
33.03
36.0
37.39
37.69
37.22
36.17
34.79
33.38
32.22
31.54
31.38
31.58
31.94
32.28
32.54
32.74
32.95
33.08
32.88
31.93
29.8
26.27
21.45
15.87
10.22
5.16
1.03
-2.36
-5.53
-9.1
-13.46
-18.58
-23.99
-29.03
-33.14
-36.13
-38.21
-39.95
-42.15
-45.54
-50.56
-57.08
-64.2
-70.32
-73.45
-71.83
-64.55
-51.95
-35.61
-17.82
-0.92
13.36
24.19
31.64
36.3
38.97
40.31
40.78
40.65
40.08
39.23
38.31
37.6
37.33
37.6
38.32
39.28
40.24
41.0
41.53
41.8
41.76
41.25
40.01
37.8
34.55
30.38
25.58
20.59
15.78
11.44
7.7
4.54
1.77
-0.86
-3.67
-6.9
-10.65
-14.84
-19.19
-23.36
-27.06
-30.21
-32.93
-35.54
-38.4
-41.88
-46.25
-51.69
-58.13
-65.1
-71.54
-75.89
-76.41
-71.75
-61.5
-46.54
-28.8
-10.71
5.54
18.61
28.12
34.45
38.34
40.45
41.24
40.99
39.96
38.56
37.27
36.56
36.67
37.58
39.04
40.63
41.99
42.91
43.3
43.2
42.63
41.61
40.1
38.1
35.59
32.62
29.25
25.57
21.63
17.52
13.33
9.18
5.22
1.59
-1.68
-4.63
-7.47
-10.43
-13.68
-17.29
-21.2
-25.22
-29.13
-32.76
-36.01
-38.89
-41.57
-44.4
-47.85
-52.37
-58.09
-64.5
-70.36
-73.85
-73.16
-67.14
-55.78
-40.38
-23.09
-6.23
8.33
19.57
27.37
32.15
34.59
35.29
34.7
33.18
31.09
28.81
26.76
25.34
24.81
25.21
26.39
28.0
29.65
31.05
32.05
32.65
32.86
32.64
31.78
30.03
27.19
23.26
18.52
13.42
8.48
4.09
0.45
-2.51
-5.02
-7.41
-9.97
-12.89
-16.2
-19.72
-23.14
-26.19
-28.65
-30.54
-32.05
-33.52
-35.33
-37.9
-41.52
-46.25
-51.65
-56.69
-59.85
-59.48
-54.43
-44.5
-30.63
-14.67
1.2
15.09
25.82
33.06
37.07
38.45
37.8
35.67
32.54
28.95
25.49
22.79
21.32
21.24
22.38
24.27
26.37
28.24
29.64
30.52
30.87
30.63
29.63
27.71
24.79
20.96
16.52
11.84
7.31
3.21
-0.4
-3.65
-6.83
-10.25
-14.07
-18.21
-22.34
-26.04
-28.96
-31.06
-32.62
-34.25
-36.68
-40.47
-45.72
-51.89
-57.72
-61.5
-61.52
-56.64
-46.72
-32.73
-16.55
-0.35
13.96
25.18
32.98
37.66
39.85
40.22
39.3
37.45
35.02
32.35
29.89
28.07
27.18
27.31
28.28
29.71
31.15
32.21
32.69
32.59
32.01
31.05
29.69
27.78
25.1
21.51
17.08
12.11
7.07
2.4
-1.61
-4.99
-8.01
-11.11
-14.65
-18.75
-23.26
-27.83
-32.01
-35.47
-38.11
-40.12
-41.96
-44.22
-47.52
-52.3
-58.56
-65.63
-72.07
-75.91
-75.17
-68.49
-55.65
-37.7
-16.7
4.86
24.61
40.86
52.67
59.97
63.29
63.45
61.32
57.54
52.57
46.81
40.85
35.51
31.66
29.81
29.78
30.71
31.45
31.18
29.81
27.94
26.53
26.33
27.48
29.5
31.43
32.29
31.28
28.1
22.93
16.47
9.73
3.85
-0.34
-2.51
-2.98
-2.58
-2.36
-3.21
-5.7
-9.95
-15.8
-22.95
-31.07
-39.82
-48.89
-57.95
-66.64
-74.67
-81.69
-87.22
-90.5
-90.51
-86.18
-76.89
-62.8
-45.1
-25.72
-6.85
9.75
23.06
32.94
39.85
44.48
47.52
49.46
50.69
51.46
51.99
52.42
52.87
53.42
54.11
54.93
55.71
56.19
56.06
55.09
53.24
50.68
47.68
44.45
41.07
37.41
33.33
28.74
23.79
18.81
14.2
10.29
7.1
4.34
1.49
-1.97
-6.41
-11.81
-17.79
-23.8
-29.2
-33.58
-36.77
-38.91
-40.34
-41.57
-43.18
-45.6
-49.02
-53.02
-56.59
-58.25
-56.57
-50.67
-40.73
-27.93
-14.11
-1.13
9.69
17.88
23.58
27.3
29.52
30.51
30.42
29.36
27.58
25.46
23.38
21.56
20.07
18.79
17.53
16.14
14.59
12.98
11.42
10.03
8.81
7.7
6.6
5.33
3.76
1.74
-0.83
-3.99
-7.58
-11.4
-15.16
-18.64
-21.75
-24.51
-27.09
-29.68
-32.52
-35.87
-39.85
-44.39
-48.95
-52.49
-53.6
-51.0
-44.02
-33.02
-19.42
-5.26
7.45
17.33
23.93
27.57
28.98
28.86
27.63
25.46
22.47
18.87
15.21
12.14
10.28
9.95
11.03
12.94
14.9
16.24
16.59
16.0
14.8
13.36
11.87
10.25
8.22
5.47
1.84
-2.55
-7.37
-12.15
-16.53
-20.29
-23.48
-26.32
-29.18
-32.45
-36.53
-41.71
-47.97
-54.75
-60.94
-64.9
-65.05
-60.29
-50.53
-36.74
-20.7
-4.45
10.25
22.22
30.98
36.56
39.33
39.82
38.66
36.48
33.8
31.06
28.55
26.49
25.03
24.28
24.2
24.6
25.16
25.53
25.43
24.7
23.31
21.29
18.69
15.55
11.96
8.02
3.84
-0.53
-5.12
-10.0
-15.17
-20.47
-25.65
-30.34
-34.39
-37.81
-40.93
-44.26
-48.35
-53.48
-59.54
-65.78
-70.95
-73.4
-71.72
-65.06
-53.6
-38.55
-21.76
-5.27
9.3
21.05
29.74
35.64
39.2
40.85
40.99
40.03
38.42
36.65
35.17
34.31
34.18
34.65
35.43
36.2
36.73
36.94
36.87
36.66
36.38
35.94
35.12
33.55
30.92
27.12
22.29
16.83
11.28
6.13
1.62
-2.32
-5.98
-9.82
-14.15
-19.01
-24.16
-29.11
-33.42
-36.82
-39.51
-42.06
-45.27
-49.85
-56.14
-63.78
-71.6
-77.87
-80.63
-78.31
-70.24
-56.91
-39.92
-21.5
-3.84
11.36
23.23
31.67
37.06
39.98
40.95
40.43
38.84
36.6
34.18
32.03
30.47
29.69
29.67
30.3
31.34
32.61
33.92
35.13
36.09
36.58
36.34
35.02
32.39
28.39
23.3
17.62
11.99
6.95
2.75
-0.72
-3.9
-7.3
-11.35
-16.14
-21.46
-26.81
-31.64
-35.55
-38.42
-40.53
-42.51
-45.09
-48.94
-54.34
-60.94
-67.63
-72.71
-74.35
-71.09
-62.43
-49.02
-32.53
-15.16
1.0
14.45
24.52
31.28
35.19
36.89
36.88
35.64
33.52
30.92
28.29
26.02
24.43
23.61
23.5
23.86
24.5
25.26
26.02
26.65
26.95
26.64
25.45
23.25
20.08
16.17
11.82
7.3
2.7
-1.95
-6.75
-11.72
-16.79
-21.78
-26.45
-30.6
-34.1
-37.0
-39.56
-42.15
-45.31
-49.52
-54.98
-61.31
-67.39
-71.45
-71.63
-66.59
-56.05
-41.04
-23.59
-6.02
9.67
22.28
31.44
37.4
40.69
41.89
41.5
40.01
37.93
35.76
33.92
32.65
32.04
31.99
32.35
32.95
33.67
34.46
35.23
35.82
35.95
35.29
33.6
30.87
27.25
23.06
18.6
14.07
9.51
4.86
0.01
-5.14
-10.55
-16.13
-21.69
-26.95
-31.67
-35.74
-39.27
-42.67
-46.55
-51.53
-57.87
-65.21
-72.38
-77.59
-78.91
-74.86
-65.0
-50.17
-32.22
-13.54
3.66
17.86
28.43
35.55
39.8
41.91
42.5
42.03
40.87
39.38
37.95
36.91
36.52
36.83
37.65
38.61
39.39
39.79
39.88
39.87
39.92
39.93
39.54
38.23
35.62
31.66
26.71
21.36
16.18
11.41
6.97
2.5
-2.34
-7.74
-13.6
-19.62
-25.42
-30.68
-35.18
-38.91
-42.05
-44.99
-48.34
-52.77
-58.66
-65.8
-73.13
-78.86
-80.83
-77.34
-67.75
-52.84
-34.55
-15.39
2.33
17.13
28.45
36.49
41.75
44.72
45.78
45.24
43.53
41.26
39.16
37.82
37.58
38.37
39.8
41.31
42.39
42.77
42.47
41.77
40.96
40.15
39.19
37.67
35.12
31.25
26.13
20.26
14.39
9.18
4.94
1.51
-1.66
-5.23
-9.67
-15.08
-21.16
-27.33
-33.03
-37.84
-41.61
-44.49
-46.83
-49.12
-51.94
-55.85
-61.17
-67.71
-74.51
-79.92
-82.0
-79.28
-71.31
-59.0
-44.28
-29.33
-15.84
-4.55
4.71
12.46
19.09
24.62
28.77
31.31
32.34
32.28
31.69
30.98
30.27
29.49
28.7
28.35
29.28
32.39
38.0
45.38
52.79
58.0
59.24
56.04
49.42
41.5
34.54
29.96
27.85
27.09
26.0
23.12
17.75
10.09
0.99
-8.49
-17.49
-25.58
-32.81
-39.42
-45.74
-51.99
-58.36
-64.94
-71.66
-78.01
-82.98
-85.1
-82.9
-75.45
-62.89
-46.54
-28.57
-11.29
3.45
14.75
22.63
27.76
30.92
32.68
33.26
32.7
31.03
28.59
25.97
23.91
22.91
23.03
23.85
24.69
24.96
24.44
23.34
22.09
21.06
20.31
19.52
18.14
15.67
11.82
6.63
0.46
-6.17
-12.73
-18.79
-24.15
-28.8
-32.95
-36.87
-40.88
-45.2
-49.91
-54.81
-59.27
-62.32
-62.67
-59.19
-51.26
-39.17
-24.19
-8.22
6.78
19.3
28.61
34.68
37.85
38.48
36.84
33.26
28.25
22.65
17.48
13.56
11.32
10.64
11.08
12.11
13.37
14.73
16.13
17.5
18.61
19.16
18.81
17.31
14.53
10.45
5.28
-0.56
-6.41
-11.51
-15.32
-17.78
-19.45
-21.33
-24.54
-29.76
-36.94
-45.19
-53.0
-58.58
-60.29
-56.97
-48.23
-34.52
-17.11
2.12
21.04
37.62
50.41
58.71
62.65
62.97
60.74
57.0
52.62
48.23
44.27
41.09
38.96
37.98
38.07
38.94
40.13
41.09
41.38
40.72
39.05
36.51
33.3
29.6
25.53
21.08
16.16
10.71
4.73
-1.58
-7.94
-13.94
-19.28
-23.79
-27.56
-30.93
-34.42
-38.66
-44.13
-50.84
-58.14
-64.62
-68.35
-67.45
-60.71
-48.09
-30.9
-11.39
7.9
24.77
37.88
46.83
52.02
54.23
54.32
53.04
50.92
48.35
45.66
43.14
41.06
39.61
38.76
38.33
38.07
37.77
37.34
36.81
36.19
35.36
34.06
31.95
28.84
24.75
19.97
14.93
9.98
5.25
0.66
-4.02
-8.98
-14.25
-19.68
-25.0
-29.91
-34.24
-38.05
-41.62
-45.45
-50.09
-55.79
-62.26
-68.49
-72.82
-73.37
-68.65
-58.18
-42.74
-24.16
-4.82
13.11
28.08
39.42
47.16
51.79
53.92
54.14
52.94
50.8
48.14
45.43
43.13
41.56
40.88
40.97
41.58
42.33
42.89
43.08
42.85
42.22
41.21
39.77
37.83
35.32
32.22
28.54
24.36
19.79
15.02
10.28
5.78
1.7
-2.0
-5.52
-9.21
-13.36
-18.05
-23.1
-28.11
-32.65
-36.51
-39.7
-42.53
-45.43
-48.82
-53.1
-58.5
-64.98
-72.03
-78.5
-82.68
-82.71
-77.13
-65.56
-48.94
-29.3
-9.23
8.91
23.53
34.07
40.82
44.56
46.2
46.47
45.87
44.72
43.26
41.75
40.5
39.73
39.53
39.82
40.36
40.96
41.52
42.03
42.52
42.91
42.97
42.4
40.92
38.43
35.03
30.96
26.49
21.86
17.16
12.44
7.73
3.09
-1.34
-5.4
-8.97
-12.07
-14.84
-17.54
-20.44
-23.69
-27.23
-30.83
-34.22
-37.19
-39.82
-42.37
-45.29
-49.04
-53.94
-59.97
-66.67
-73.01
-77.49
-78.46
-74.51
-65.05
-50.54
-32.59
-13.49
4.4
19.26
30.2
37.23
41.01
42.38
42.1
40.73
38.71
36.42
34.29
32.71
31.96
32.09
32.9
34.06
35.21
36.08
36.58
36.72
36.55
36.05
35.14
33.69
31.61
28.9
25.62
21.91
17.88
13.62
9.22
4.78
0.45
-3.63
-7.39
-10.87
-14.24
-17.69
-21.37
-25.28
-29.28
-33.13
-36.63
-39.64
-42.18
-44.39
-46.55
-49.03
-52.26
-56.51
-61.65
-66.91
-70.87
-71.79
-68.22
-59.54
-46.35
-30.29
-13.52
1.95
14.77
24.38
30.79
34.28
35.15
33.8
30.7
26.61
22.43
19.01
16.89
16.23
16.74
17.92
19.28
20.49
21.47
22.33
23.22
24.14
24.89
25.07
24.27
22.18
18.79
14.39
9.54
4.8
0.56
-3.09
-6.4
-9.76
-13.51
-17.77
-22.33
-26.75
-30.54
-33.35
-35.15
-36.29
-37.4
-39.19
-42.21
-46.55
-51.68
-56.35
-58.93
-57.81
-51.97
-41.43
-27.22
-11.24
4.38
17.87
28.12
34.83
38.31
39.15
37.98
35.37
31.82
27.85
24.04
20.92
18.86
18.02
18.32
19.46
21.09
22.9
24.72
26.39
27.74
28.47
28.24
26.74
23.85
19.73
14.83
9.73
4.91
0.64
-3.16
-6.81
-10.68
-15.02
-19.8
-24.77
-29.49
-33.62
-36.99
-39.72
-42.25
-45.23
-49.3
-54.81
-61.5
-68.36
-73.7
-75.59
-72.46
-63.65
-49.73
-32.39
-13.94
3.31
17.63
28.2
35.0
38.57
39.68
39.03
37.2
34.72
32.06
29.72
28.17
27.68
28.23
29.51
31.04
32.39
33.29
33.76
33.97
34.09
34.09
33.73
32.57
30.26
26.65
21.93
16.59
11.21
6.3
2.04
-1.68
-5.27
-9.18
-13.73
-18.95
-24.58
-30.14
-35.09
-39.1
-42.07
-44.32
-46.43
-49.16
-53.17
-58.72
-65.41
-72.03
-76.78
-77.72
-73.38
-63.34
-48.49
-30.73
-12.45
4.21
17.8
27.84
34.59
38.71
40.88
41.61
41.18
39.84
37.88
35.74
33.93
32.91
32.9
33.85
35.46
37.32
39.04
40.37
41.19
41.42
41.01
39.92
38.09
35.49
32.13
28.1
23.52
18.62
13.62
8.8
4.37
0.41
-3.12
-6.46
-9.89
-13.66
-17.82
-22.21
-26.5
-30.32
-33.43
-35.82
-37.75
-39.71
-42.26
-45.95
-51.18
-57.96
-65.7
-73.08
-78.16
-78.88
-73.69
-62.22
-45.51
-25.77
-5.71
12.28
26.64
36.89
43.35
46.74
47.87
47.42
46.0
44.19
42.53
41.45
41.22
41.83
43.06
44.57
46.16
47.73
49.32
50.97
52.58
53.85
54.31
53.58
51.46
48.05
43.73
38.94
34.04
29.22
24.46
19.65
14.69
9.61
4.54
-0.31
-4.73
-8.65
-12.16
-15.48
-18.96
-22.82
-27.09
-31.63
-36.13
-40.31
-44.06
-47.47
-50.88
-54.76
-59.57
-65.57
-72.57
-79.69
-85.43
-87.94
-85.56
-77.42
-63.83
-46.28
-27.02
-8.41
7.74
20.41
29.39
34.98
37.77
38.36
37.33
35.23
32.62
30.03
27.96
26.76
26.59
27.39
28.94
30.92
33.04
35.07
36.81
38.12
38.82
38.78
37.85
35.94
33.1
29.46
25.29
20.9
16.56
12.43
8.58
4.92
1.36
-2.19
-5.75
-9.35
-13.08
-17.04
-21.35
-26.0
-30.77
-35.34
-39.38
-42.73
-45.51
-48.07
-50.88
-54.43
-59.02
-64.61
-70.72
-76.24
-79.65
-79.26
-73.8
-62.94
-47.56
-29.54
-11.33
4.83
17.51
26.19
31.21
33.31
33.27
31.74
29.21
26.16
23.11
20.6
19.01
18.54
19.05
20.24
21.76
23.36
24.93
26.43
27.82
28.9
29.37
28.92
27.35
24.63
21.01
16.84
12.53
8.37
4.45
0.66
-3.19
-7.3
-11.66
-16.08
-20.24
-23.82
-26.68
-28.96
-31.08
-33.62
-37.16
-41.92
-47.59
-53.15
-57.05
-57.61
-53.58
-44.6
-31.4
-15.6
0.75
15.7
27.87
36.62
41.95
44.35
44.46
42.92
40.3
37.1
33.79
30.77
28.43
27.02
26.59
26.98
27.9
29.0
30.04
30.85
31.33
31.34
30.7
29.14
26.49
22.73
18.08
12.94
7.76
2.89
-1.57
-5.78
-10.04
-14.58
-19.47
-24.53
-29.38
-33.65
-37.12
-39.78
-41.99
-44.34
-47.49
-51.96
-57.76
-64.16
-69.69
-72.46
-70.7
-63.47
-51.0
-34.73
-16.89
0.21
14.77
25.84
33.37
37.89
40.16
40.84
40.43
39.19
37.42
35.46
33.73
32.66
32.51
33.25
34.57
36.02
37.21
37.95
38.3
38.39
38.32
37.97
37.08
35.3
32.39
28.29
23.2
17.52
11.75
6.36
1.66
-2.28
-5.63
-8.73
-11.97
-15.63
-19.77
-24.22
-28.65
-32.72
-36.25
-39.23
-41.87
-44.55
-47.74
-51.93
-57.45
-64.18
-71.37
-77.58
-80.92
-79.55
-72.37
-59.49
-42.28
-23.04
-4.25
12.07
24.84
33.9
39.73
43.07
44.64
44.95
44.39
43.31
42.08
41.08
40.62
40.85
41.71
42.97
44.35
45.55
46.46
47.04
47.33
47.32
46.9
45.81
43.78
40.67
36.61
32.03
27.5
23.49
20.22
17.58
15.14
12.43
9.16
5.33
1.23
-2.71
-6.15
-8.96
-11.3
-13.56
-16.23
-19.67
-24.04
-29.18
-34.67
-40.01
-44.8
-48.91
-52.54
-56.21
-60.54
-66.08
-72.85
-80.18
-86.6
-90.09
-88.72
-81.25
-67.67
-49.37
-28.71
-8.36
9.47
23.5
33.48
39.93
43.7
45.58
46.17
45.84
44.88
43.57
42.28
41.34
41.03
41.41
42.32
43.52
44.75
45.86
46.79
47.51
47.88
47.71
46.75
44.82
41.9
38.17
33.93
29.52
25.27
21.37
17.93
14.9
12.08
9.23
6.13
2.73
-0.8
-4.12
-6.95
-9.22
-11.24
-13.53
-16.62
-20.8
-25.92
-31.45
-36.77
-41.38
-45.1
-48.09
-50.76
-53.65
-57.32
-62.2
-68.35
-75.17
-81.28
-84.75
-83.57
-76.44
-63.3
-45.51
-25.47
-5.85
11.19
24.46
33.81
39.76
43.1
44.49
44.39
43.11
41.03
38.6
36.34
34.72
34.0
34.18
35.02
36.21
37.5
38.79
40.08
41.36
42.5
43.15
42.9
41.39
38.51
34.51
29.88
25.25
21.14
17.75
14.96
12.35
9.47
6.01
1.99
-2.21
-6.08
-9.21
-11.51
-13.33
-15.27
-17.92
-21.63
-26.28
-31.37
-36.29
-40.5
-43.81
-46.38
-48.64
-51.2
-54.69
-59.5
-65.58
-72.15
-77.77
-80.56
-78.76
-71.35
-58.55
-41.8
-23.38
-5.7
9.32
20.66
28.19
32.43
34.16
34.14
32.94
30.97
28.59
26.18
24.2
23.09
23.12
24.27
26.2
28.39
30.34
31.77
32.64
33.11
33.3
33.16
32.46
30.89
28.19
24.35
19.62
14.47
9.4
4.87
1.11
-1.98
-4.73
-7.56
-10.81
-14.55
-18.55
-22.35
-25.48
-27.67
-28.98
-29.81
-30.79
-32.55
-35.67
-40.36
-46.33
-52.65
-57.86
-60.17
-58.04
-50.7
-38.48
-22.82
-5.9
10.03
23.27
32.94
39.02
42.04
42.68
41.51
39.02
35.62
31.81
28.18
25.33
23.68
23.39
24.28
25.9
27.76
29.46
30.77
31.62
32.07
32.13
31.71
30.58
28.39
24.93
20.2
14.6
8.76
3.38
-1.12
-4.76
-7.95
-11.31
-15.32
-20.08
-25.27
-30.31
-34.61
-37.83
-40.01
-41.53
-43.04
-45.28
-48.89
-54.14
-60.69
-67.45
-72.7
-74.53
-71.36
-62.58
-48.79
-31.67
-13.51
3.44
17.53
28.02
34.98
39.03
40.9
41.25
40.5
38.95
36.89
34.72
32.9
31.86
31.82
32.69
34.11
35.61
36.82
37.56
37.86
37.84
37.52
36.78
35.33
32.85
29.17
24.41
19.03
13.61
8.69
4.6
1.3
-1.55
-4.42
-7.74
-11.77
-16.44
-21.44
-26.34
-30.74
-34.45
-37.56
-40.33
-43.2
-46.64
-51.06
-56.72
-63.48
-70.64
-76.87
-80.38
-79.38
-72.75
-60.49
-43.83
-24.94
-6.25
10.24
23.35
32.78
38.92
42.45
44.09
44.42
43.85
42.71
41.32
39.99
39.01
38.59
38.81
39.53
40.56
41.7
42.85
43.99
45.08
45.98
46.36
45.81
44.02
40.93
36.83
32.23
27.68
23.56
19.95
16.61
13.21
9.47
5.33
0.97
-3.23
-6.91
-9.9
-12.31
-14.5
-16.91
-19.89
-23.57
-27.79
-32.24
-36.55
-40.5
-44.07
-47.51
-51.22
-55.7
-61.33
-68.12
-75.47
-82.06
-86.02
-85.51
-79.27
-67.22
-50.53
-31.32
-11.96
5.55
19.98
30.89
38.45
43.1
45.32
45.67
44.68
42.96
41.07
39.5
38.55
38.39
39.0
40.19
41.69
43.25
44.66
45.84
46.75
47.35
47.47
46.83
45.07
42.0
37.71
32.62
27.36
22.56
18.56
15.32
12.5
9.6
6.33
2.64
-1.23
-4.84
-7.84
-10.1
-11.82
-13.44
-15.51
-18.43
-22.39
-27.16
-32.23
-36.98
-40.89
-43.8
-46.03
-48.41
-51.91
-57.26
-64.45
-72.42
-79.12
-82.08
-79.14
-69.22
-52.77
-31.65
-8.67
13.14
31.26
44.07
51.14
53.14
51.54
48.14
44.55
41.63
39.42
37.28
34.4
30.34
25.25
19.79
14.73
10.62
7.56
5.43
4.08
3.4
3.34
3.66
3.81
3.02
0.59
-3.72
-9.4
-15.41
-20.51
-23.88
-25.42
-25.87
-26.36
-27.99
-31.3
-36.04
-41.26
-45.68
-48.11
-48.03
-45.85
-42.92
-41.09
-42.08
-46.69
-54.36
-63.13
-70.2
-72.78
-68.99
-58.41
-42.15
-22.45
-1.96
16.85
32.21
43.21
49.78
52.57
52.66
51.28
49.46
47.89
46.78
46.05
45.48
44.91
44.31
43.65
42.88
41.89
40.68
39.51
38.95
39.73
42.32
46.71
52.18
57.53
61.4
62.82
61.48
57.77
52.6
46.92
41.32
35.83
30.05
23.47
15.87
7.55
-0.77
-8.3
-14.52
-19.44
-23.49
-27.33
-31.51
-36.42
-42.08
-48.15
-53.9
-58.28
-60.06
-58.14
-51.95
-41.68
-28.32
-13.45
1.22
14.28
24.82
32.48
37.38
39.88
40.44
39.48
37.38
34.45
31.03
27.52
24.35
21.87
20.32
19.71
19.84
20.44
21.23
21.94
22.34
22.21
21.4
19.83
17.56
14.76
11.6
8.18
4.46
0.34
-4.28
-9.4
-14.84
-20.35
-25.61
-30.39
-34.54
-38.03
-40.97
-43.65
-46.58
-50.32
-55.22
-61.05
-66.86
-70.94
-71.46
-67.06
-57.48
-43.71
-27.7
-11.71
2.42
13.66
21.8
27.24
30.54
32.23
32.63
31.99
30.53
28.53
26.32
24.29
22.76
21.92
21.73
21.97
22.31
22.46
22.3
21.87
21.27
20.49
19.4
17.67
14.98
11.13
6.16
0.4
-5.62
-11.35
-16.37
-20.49
-23.8
-26.57
-29.16
-31.98
-35.38
-39.6
-44.57
-49.73
-54.01
-55.96
-54.15
-47.79
-37.06
-23.19
-8.07
6.32
18.48
27.69
33.91
37.55
39.1
38.96
37.42
34.74
31.27
27.5
23.98
21.24
19.62
19.15
19.55
20.31
20.87
20.83
20.11
18.86
17.33
15.68
13.88
11.62
8.57
4.45
-0.77
-6.77
-13.09
-19.19
-24.67
-29.32
-33.21
-36.59
-39.87
-43.56
-48.17
-53.94
-60.69
-67.51
-72.87
-74.99
-72.31
-64.16
-51.03
-34.47
-16.62
0.44
15.17
26.79
35.15
40.61
43.65
44.76
44.45
43.15
41.29
39.23
37.31
35.73
34.61
33.94
33.61
33.52
33.56
33.67
33.79
33.8
33.45
32.43
30.46
27.4
23.33
18.53
13.4
8.28
3.38
-1.28
-5.84
-10.45
-15.19
-19.97
-24.58
-28.75
-32.36
-35.49
-38.49
-41.96
-46.47
-52.4
-59.49
-66.75
-72.5
-74.77
-71.95
-63.38
-49.65
-32.51
-14.28
2.75
17.01
27.78
35.16
39.73
42.2
43.17
43.03
42.03
40.4
38.46
36.61
35.25
34.68
34.89
35.65
36.56
37.25
37.54
37.48
37.18
36.75
36.09
34.99
33.16
30.4
26.69
22.2
17.25
12.19
7.31
2.76
-1.55
-5.84
-10.36
-15.27
-20.5
-25.76
-30.64
-34.77
-37.98
-40.4
-42.39
-44.48
-47.24
-51.21
-56.66
-63.42
-70.66
-76.8
-79.91
-78.18
-70.68
-57.71
-40.84
-22.38
-4.69
10.45
22.19
30.48
35.79
38.72
39.86
39.67
38.57
36.97
35.22
33.65
32.47
31.73
31.4
31.36
31.48
31.66
31.85
32.0
32.01
31.67
30.69
28.84
25.97
22.17
17.7
12.89
8.07
3.42
-1.06
-5.49
-9.96
-14.56
-19.21
-23.76
-28.02
-31.84
-35.19
-38.14
-41.03
-44.31
-48.51
-53.87
-60.09
-66.15
-70.42
-71.09
-66.78
-57.12
-42.9
-25.96
-8.56
7.22
20.0
29.3
35.3
38.62
39.94
39.76
38.42
36.13
33.19
29.97
27.0
24.73
23.5
23.33
23.95
24.99
26.09
26.98
27.52
27.56
26.93
25.46
23.07
19.84
16.0
11.79
7.38
2.79
-2.03
-7.1
-12.3
-17.37
-22.06
-26.2
-29.85
-33.26
-36.77
-40.74
-45.48
-51.15
-57.53
-63.92
-69.0
-71.13
-68.79
-61.16
-48.55
-32.34
-14.61
2.42
17.06
28.38
36.22
40.93
43.05
43.12
41.61
39.01
35.82
32.62
29.95
28.22
27.5
27.57
28.01
28.44
28.73
29.0
29.54
30.46
31.53
32.15
31.6
29.36
25.41
20.28
14.77
9.61
5.09
1.06
-2.96
-7.45
-12.63
-18.31
-24.05
-29.36
-33.87
-37.52
-40.51
-43.28
-46.36
-50.34
-55.6
-62.1
-69.09
-75.08
-78.17
-76.55
-69.24
-56.44
-39.61
-20.96
-2.82
13.01
25.56
34.64
40.58
43.92
45.21
44.94
43.56
41.56
39.4
37.49
36.16
35.48
35.37
35.61
35.95
36.2
36.35
36.5
36.74
37.07
37.27
36.98
35.78
33.38
29.69
24.93
19.51
13.9
8.57
3.79
-0.4
-4.15
-7.71
-11.39
-15.41
-19.83
-24.53
-29.2
-33.48
-37.14
-40.13
-42.71
-45.38
-48.75
-53.34
-59.36
-66.45
-73.59
-79.17
-81.35
-78.58
-70.12
-56.44
-39.06
-20.24
-2.22
13.26
25.29
33.78
39.15
42.05
43.13
42.92
41.86
40.36
38.78
37.46
36.66
36.5
36.96
37.92
39.18
40.51
41.75
42.71
43.18
42.97
41.91
39.96
37.21
33.9
30.26
26.43
22.45
18.26
13.87
9.33
4.8
0.46
-3.62
-7.52
-11.42
-15.54
-19.98
-24.61
-29.19
-33.39
-37.0
-39.97
-42.47
-44.84
-47.5
-50.94
-55.54
-61.45
-68.33
-75.13
-80.19
-81.54
-77.56
-67.59
-52.35
-33.74
-14.32
3.56
18.3
29.34
36.93
41.72
44.34
45.16
44.4
42.3
39.25
35.89
32.9
30.85
29.98
30.18
31.04
32.1
32.98
33.53
33.82
34.03
34.21
34.23
33.81
32.56
30.22
26.77
22.45
17.72
13.0
8.61
4.64
1.04
-2.36
-5.73
-9.23
-13.01
-17.15
-21.64
-26.3
-30.81
-34.8
-38.03
-40.56
-42.72
-45.1
-48.34
-52.82
-58.42
-64.42
-69.46
-71.89
-70.18
-63.43
-51.79
-36.41
-19.19
-2.24
12.68
24.52
32.97
38.27
40.91
41.35
40.0
37.34
33.93
30.47
27.63
25.91
25.49
26.17
27.5
29.01
30.36
31.39
32.18
32.83
33.35
33.6
33.25
31.92
29.33
25.49
20.71
15.57
10.65
6.32
2.61
-0.81
-4.43
-8.67
-13.61
-19.07
-24.58
-29.66
-33.94
-37.34
-40.04
-42.48
-45.23
-48.88
-53.79
-59.92
-66.52
-72.16
-74.92
-73.05
-65.51
-52.49
-35.43
-16.62
1.56
17.22
29.35
37.79
42.92
45.34
45.62
44.26
41.75
38.59
35.33
32.48
30.48
29.61
29.9
31.16
32.99
34.92
36.57
37.73
38.38
38.55
38.25
37.32
35.54
32.7
28.75
23.88
18.47
12.97
7.78
3.11
-1.1
-5.03
-9.02
-13.32
-18.04
-23.06
-28.09
-32.81
-36.9
-40.28
-43.03
-45.49
-48.13
-51.53
-56.22
-62.42
-69.7
-76.78
-81.66
-82.19
-76.77
-65.07
-48.24
-28.58
-8.77
8.93
23.18
33.65
40.68
44.9
46.89
47.11
45.99
43.94
41.44
38.97
36.93
35.59
35.06
35.25
35.99
37.09
38.37
39.67
40.86
41.78
42.25
42.03
