-8.36
-11.63
-14.27
-16.46
-18.5
-20.6
-22.68
-24.5
-25.74
-26.2
-25.93
-25.15
-24.16
-23.22
-22.45
-21.96
-21.84
-22.2
-23.15
-24.66
-26.57
-28.57
-30.33
-31.63
-32.32
-32.42
-32.05
-31.37
-30.55
-29.73
-28.96
-28.19
-27.32
-26.2
-24.75
-22.97
-20.97
-18.88
-16.87
-15.08
-13.59
-12.45
-11.7
-11.38
-11.55
-12.23
-13.39
-14.88
-16.43
-17.59
-17.9
-17.01
-14.74
-11.27
-7.04
-2.68
1.08
3.65
4.71
4.35
3.09
1.79
1.31
2.27
4.79
8.5
12.68
16.66
19.97
22.54
24.47
25.92
26.94
27.46
27.41
26.84
25.97
25.09
24.47
24.22
24.25
24.4
24.5
24.52
24.53
24.74
25.33
26.4
27.89
29.64
31.42
33.03
34.38
35.47
36.34
36.96
37.28
37.2
36.66
35.54
33.62
30.6
26.03
19.59
11.27
1.49
-8.87
-18.75
-27.21
-33.69
-38.06
-40.54
-41.5
-41.38
-40.56
-39.36
-38.02
-36.65
-35.23
-33.67
-31.82
-29.64
-27.18
-24.54
-21.86
-19.22
-16.68
-14.28
-12.03
-9.94
-7.95
-6.0
-3.96
-1.74
0.72
3.41
6.28
9.21
12.07
14.69
16.97
18.87
20.45
21.83
23.15
24.46
25.71
26.78
27.47
27.69
27.41
26.63
25.43
23.85
21.93
19.74
17.31
14.66
11.71
8.29
4.16
-0.81
-6.61
-13.0
-19.69
-26.38
-32.97
-39.46
-45.93
-52.33
-58.32
-63.34
-66.7
-67.81
-66.37
-62.52
-56.82
-50.09
-43.12
-36.49
-30.4
-24.73
-19.22
-13.68
-8.1
-2.64
2.49
7.18
11.43
15.36
19.0
22.27
24.99
26.97
28.14
28.65
28.79
28.91
29.24
29.9
30.8
31.77
32.59
33.14
33.34
33.21
32.83
32.27
31.55
30.72
29.78
28.72
27.59
26.44
25.31
24.23
23.22
22.3
21.47
20.73
20.04
19.34
18.5
17.37
15.74
13.46
10.38
6.44
1.67
-3.79
-9.74
-15.94
-22.12
-28.06
-33.59
-38.57
-42.91
-46.52
-49.38
-51.5
-52.99
-54.03
-54.76
-55.22
-55.23
-54.48
-52.55
-49.19
-44.4
-38.51
-32.05
-25.62
-19.72
-14.64
-10.42
-6.94
-3.96
-1.24
1.48
4.35
7.42
10.63
13.86
16.97
19.86
22.44
24.69
26.58
28.15
29.45
30.61
31.73
32.9
34.11
35.25
36.13
36.57
36.42
35.65
34.26
32.29
29.72
26.42
22.3
17.33
11.67
5.7
-0.13
-5.41
-9.94
-13.74
-17.07
-20.17
-23.18
-26.08
-28.67
-30.69
-31.92
-32.27
-31.79
-30.67
-29.13
-27.39
-25.6
-23.84
-22.15
-20.57
-19.19
-18.1
-17.3
-16.64
-15.92
-14.99
-13.9
-12.94
-12.48
-12.76
-13.6
-14.5
-14.72
-13.64
-10.98
-6.89
-1.83
3.62
8.94
13.71
17.65
20.56
22.4
23.3
23.53
23.43
23.23
22.99
22.57
21.71
20.2
17.98
15.12
11.81
8.24
4.67
1.36
-1.32
-2.96
-3.23
-2.03
0.37
3.43
6.49
9.0
10.76
11.92
12.82
13.71
14.65
15.39
15.63
15.18
14.12
12.75
11.45
10.41
9.59
8.74
7.57
5.9
3.79
1.41
-1.1
-3.66
-6.29
-9.01
-11.73
-14.27
-16.43
-18.16
-19.59
-20.94
-22.37
-23.82
-24.98
-25.47
-25.0
-23.56
-21.36
-18.75
-16.08
-13.65
-11.72
-10.54
-10.3
-11.04
-12.51
-14.21
-15.49
-15.79
-14.93
-13.11
-10.78
-8.4
-6.28
-4.46
-2.86
-1.36
0.12
1.62
3.22
5.03
7.19
9.7
12.4
14.98
17.04
18.32
18.73
18.39
17.51
16.35
15.15
14.12
13.46
13.27
13.5
13.96
14.31
14.24
13.62
12.54
11.3
10.25
9.58
9.25
9.05
8.71
8.09
7.19
6.1
4.98
3.9
2.91
1.96
0.99
-0.14
-1.59
-3.63
-6.5
-10.29
-14.85
-19.71
-24.23
-27.76
-29.87
-30.49
-29.88
-28.58
-27.15
-26.05
-25.51
-25.48
-25.75
-25.95
-25.72
-24.73
-22.77
-19.79
-15.85
-11.18
-6.07
-0.8
4.36
9.23
13.67
17.66
21.19
24.28
26.94
29.19
31.01
32.3
32.95
32.83
31.85
29.98
27.28
23.88
19.99
15.85
11.66
7.62
3.83
0.31
-2.98
-6.06
-8.86
-11.19
-12.81
-13.44
-13.0
-11.63
-9.71
-7.72
-6.09
-5.13
-4.98
-5.65
-7.09
-9.14
-11.61
-14.28
-16.92
-19.39
-21.68
-23.94
-26.33
-28.97
-31.71
-34.18
-35.82
-36.08
-34.58
-31.29
-26.5
-20.75
-14.68
-8.82
-3.53
1.04
4.85
7.95
10.38
12.21
13.55
14.52
15.25
15.91
16.66
17.63
18.89
20.38
21.93
23.33
24.37
24.98
25.3
25.55
25.91
26.38
26.82
26.95
26.53
25.49
23.86
21.76
19.28
16.46
13.31
9.91
6.42
3.09
0.19
-2.1
-3.75
-4.88
-5.74
-6.59
-7.61
-8.84
-10.18
-11.49
-12.69
-13.84
-15.15
-16.81
-19.01
-21.68
-24.57
-27.25
-29.16
-29.8
-28.83
-26.14
-21.93
-16.62
-10.78
-4.96
0.39
5.03
8.91
12.17
14.99
17.53
19.87
22.0
23.89
25.52
26.9
28.1
29.18
30.17
31.03
31.72
32.24
32.64
33.05
33.57
34.24
35.02
35.76
36.2
36.1
35.25
33.58
31.09
27.87
24.02
19.62
14.71
9.39
3.84
-1.68
-6.88
-11.55
-15.63
-19.2
-22.47
-25.6
-28.67
-31.6
-34.1
-35.75
-36.11
-34.88
-32.1
-28.2
-23.87
-19.92
-17.03
-15.54
-15.57
-16.96
-19.52
-22.95
-26.81
-30.39
-32.83
-33.2
-30.83
-25.53
-17.67
-8.1
2.19
12.26
21.47
29.45
36.09
41.39
45.39
48.13
49.64
49.93
49.05
47.06
44.1
40.37
36.13
31.64
27.16
22.89
18.99
15.61
12.87
10.83
9.45
8.57
7.92
7.24
6.33
5.11
3.64
2.04
0.47
-0.92
-2.03
-2.8
-3.2
-3.25
-2.99
-2.45
-1.65
-0.66
0.42
1.48
2.38
3.04
3.44
3.6
3.47
3.0
2.07
0.61
-1.33
-3.55
-5.83
-7.96
-9.95
-11.93
-14.19
-17.01
-20.53
-24.76
-29.48
-34.3
-38.68
-42.02
-43.76
-43.47
-41.04
-36.65
-30.85
-24.34
-17.9
-12.22
-7.73
-4.57
-2.61
-1.53
-0.91
-0.35
0.42
1.51
2.88
4.4
5.88
7.12
8.02
8.55
8.78
8.88
9.08
9.58
10.51
11.86
13.49
15.16
16.67
17.91
18.86
19.63
20.32
21.03
21.76
22.49
23.17
23.76
24.17
24.29
23.95
23.01
21.48
19.46
17.17
14.84
12.53
10.17
7.61
4.72
1.52
-1.78
-4.89
-7.54
-9.59
-11.13
-12.34
-13.52
-14.91
-16.63
-18.64
-20.68
-22.29
-22.84
-21.68
-18.38
-12.82
-5.38
3.18
11.81
19.58
25.8
30.23
33.04
34.59
35.25
35.18
34.39
32.76
30.23
26.91
23.11
19.23
15.67
12.66
10.31
8.53
7.18
6.09
5.06
3.86
2.3
0.24
-2.34
-5.29
-8.37
-11.29
-13.78
-15.71
-17.04
-17.76
-17.91
-17.56
-16.8
-15.75
-14.54
-13.29
-12.05
-10.87
-9.79
-8.9
-8.32
-8.15
-8.42
-9.06
-9.86
-10.6
-11.09
-11.3
-11.33
-11.34
-11.49
-11.88
-12.47
-13.2
-14.05
-15.07
-16.43
-18.34
-20.96
-24.3
-28.19
-32.24
-35.87
-38.42
-39.3
-38.12
-34.86
-29.85
-23.69
-17.14
-10.91
-5.55
-1.38
1.5
3.21
4.06
4.46
4.85
5.56
6.76
8.45
10.47
12.62
14.75
16.76
18.61
20.24
21.62
22.73
23.6
24.26
24.73
25.0
24.95
24.46
23.45
21.91
20.01
17.92
15.86
13.97
12.3
10.81
9.44
8.15
6.91
5.71
4.53
3.34
2.05
0.61
-1.02
-2.8
-4.63
-6.34
-7.76
-8.86
-9.68
-10.46
-11.4
-12.71
-14.43
-16.42
-18.5
-20.5
-22.3
-23.9
-25.42
-27.01
-28.88
-31.24
-34.2
-37.64
-41.11
-43.93
-45.35
-44.76
-41.9
-36.89
-30.17
-22.32
-14.04
-6.0
1.25
7.36
12.28
16.27
19.82
23.55
28.07
33.83
41.07
49.6
58.85
67.84
75.42
80.54
82.66
81.85
78.62
73.67
67.49
60.2
51.7
41.98
31.33
20.42
10.05
0.87
-6.79
-12.99
-18.02
-22.18
-25.64
-28.43
-30.54
-31.97
-32.81
-33.21
-33.36
-33.4
-33.44
-33.54
-33.67
-33.74
-33.64
-33.31
-32.81
-32.26
-31.85
-31.67
-31.7
-31.79
-31.78
-31.65
-31.49
-31.51
-31.96
-32.95
-34.48
-36.37
-38.33
-39.94
-40.7
-40.08
-37.66
-33.2
-26.8
-18.96
-10.45
-2.19
5.04
10.76
14.92
17.79
19.87
21.69
23.57
25.67
27.87
29.9
31.48
32.36
32.48
31.87
30.69
29.06
27.13
24.99
22.76
20.6
18.72
17.29
16.35
15.78
15.32
14.67
13.67
12.35
10.9
9.57
8.55
7.86
7.42
7.03
6.56
5.87
4.91
3.72
2.35
0.96
-0.32
-1.31
-1.99
-2.39
-2.63
-2.78
-2.85
-2.8
-2.65
-2.59
-2.9
-3.79
-5.22
-6.81
-8.05
-8.56
-8.35
-7.78
-7.34
-7.22
-7.19
-6.6
-4.73
-1.17
3.95
10.03
16.25
21.88
26.36
29.38
30.78
30.42
28.22
24.24
18.75
12.28
5.53
-0.75
-5.99
-9.93
-12.55
-14.13
-14.99
-15.41
-15.51
-15.23
-14.39
-12.88
-10.69
-8.01
-5.17
-2.54
-0.45
0.95
1.69
1.9
1.86
1.78
1.84
2.14
2.7
3.41
4.11
4.61
4.71
4.28
3.32
1.9
0.15
-1.85
-4.04
-6.36
-8.69
-10.88
-12.74
-14.15
-15.12
-15.78
-16.34
-17.01
-17.89
-18.95
-20.07
-21.08
-21.9
-22.53
-23.1
-23.9
-25.26
-27.48
-30.72
-34.86
-39.44
-43.74
-46.91
-48.25
-47.33
-44.15
-39.06
-32.62
-25.44
-18.1
-11.04
-4.55
1.23
6.28
10.69
14.58
18.04
21.02
23.43
25.09
25.94
26.01
25.48
24.61
23.67
22.9
22.45
22.37
22.67
23.26
24.08
25.04
26.07
27.11
28.08
28.93
29.69
30.41
31.13
31.84
32.45
32.84
32.97
32.91
32.8
32.69
32.54
32.21
31.65
30.99
30.52
30.56
31.25
32.52
34.09
35.66
36.99
37.82
37.87
36.69
33.82
29.01
22.34
14.33
5.63
-3.25
-12.19
-21.42
-31.34
-42.2
-53.85
-65.65
-76.62
-85.69
-91.9
-94.69
-93.96
-90.03
-83.62
-75.65
-67.12
-58.87
-51.53
-45.41
-40.51
-36.66
-33.57
-30.96
-28.56
-26.19
-23.73
-21.17
-18.56
-16.02
-13.67
-11.6
-9.89
-8.55
-7.55
-6.8
-6.12
-5.14
-3.5
-0.89
2.77
7.26
12.07
16.65
20.51
23.47
25.56
27.05
28.25
29.48
31.01
33.03
35.66
38.85
42.37
45.83
48.79
50.94
52.12
52.39
51.95
50.92
49.29
46.81
43.18
38.06
31.35
23.21
14.14
4.86
-3.71
-10.72
-15.5
-17.73
-17.54
-15.41
-12.1
-8.41
-5.06
-2.51
-0.95
-0.3
-0.26
-0.45
-0.49
-0.15
0.61
1.66
2.75
3.66
4.27
4.59
4.75
4.85
4.98
5.14
5.35
5.67
6.19
6.96
7.94
8.97
9.8
10.26
10.3
10.09
9.86
9.83
10.04
10.37
10.56
10.39
9.73
8.58
7.09
5.43
3.74
2.16
0.73
-0.59
-1.93
-3.41
-5.15
-7.19
-9.46
-11.83
-14.15
-16.31
-18.31
-20.28
-22.42
-25.06
-28.51
-32.96
-38.25
-43.88
-48.94
-52.4
-53.32
-51.26
-46.33
-39.21
-30.86
-22.34
-14.46
-7.73
-2.26
2.11
5.67
8.79
11.71
14.56
17.33
19.9
22.14
23.91
25.14
25.84
26.09
26.01
25.79
25.63
25.69
26.03
26.61
27.3
27.91
28.28
28.35
28.18
27.9
27.59
27.34
27.11
26.86
26.53
26.06
25.44
24.64
23.59
22.17
20.31
17.97
15.25
12.31
9.31
6.36
3.47
0.55
-2.55
-5.91
-9.59
-13.48
-17.47
-21.38
-25.03
-28.36
-31.41
-34.32
-37.36
-40.79
-44.82
-49.49
-54.57
-59.52
-63.57
-65.86
-65.64
-62.57
-56.75
-48.81
-39.63
-30.16
-21.15
-13.06
-6.03
0.03
5.37
10.23
14.83
19.24
23.42
27.18
30.32
32.7
34.31
35.23
35.59
35.48
34.96
34.03
32.81
31.46
30.19
29.17
28.46
28.03
27.74
27.48
27.16
26.76
26.27
25.65
24.83
23.72
22.27
20.51
18.61
16.81
15.38
14.54
14.32
14.56
14.87
14.68
13.45
10.8
6.61
1.04
-5.49
-12.51
-19.6
-26.47
-33.03
-39.31
-45.34
-51.04
-56.2
-60.3
-62.75
-62.92
-60.35
-55.01
-47.33
-38.24
-28.89
-20.43
-13.63
-8.86
-5.99
-4.59
-4.08
-3.9
-3.57
-2.76
-1.27
0.97
3.82
7.02
10.18
12.89
14.86
15.91
16.06
15.51
14.61
13.86
13.76
14.65
16.56
19.18
22.05
24.79
27.34
30.02
33.35
37.68
42.91
48.38
53.07
55.9
56.07
53.22
47.39
38.96
28.6
17.22
5.88
-4.37
-12.75
-18.95
-23.16
-25.94
-27.98
-29.88
-32.05
-34.73
-38.04
-42.12
-46.98
-52.48
-58.18
-63.38
-67.23
-68.93
-67.9
-63.95
-57.3
-48.56
-38.58
-28.27
-18.4
-9.41
-1.4
5.86
12.7
19.33
25.72
31.59
36.59
40.46
43.2
44.97
45.93
46.05
45.02
42.41
37.96
31.88
24.84
17.87
11.92
7.63
5.11
4.05
3.93
4.25
4.68
5.04
5.17
4.94
4.26
3.12
1.65
0.06
-1.43
-2.75
-3.97
-5.23
-6.56
-7.88
-8.9
-9.39
-9.23
-8.58
-7.75
-7.08
-6.76
-6.83
-7.18
-7.73
-8.54
-9.75
-11.62
-14.34
-18.01
-22.61
-27.99
-33.85
-39.67
-44.74
-48.26
-49.47
-47.94
-43.65
-37.04
-28.86
-20.0
-11.31
-3.41
3.39
9.15
14.17
18.88
23.62
28.49
33.42
38.32
43.2
48.25
53.67
59.51
65.51
71.12
75.76
79.03
80.85
81.4
80.86
79.16
75.87
70.37
62.21
51.37
38.43
24.5
10.82
-1.56
-12.08
-20.73
-27.82
-33.68
-38.43
-42.01
-44.27
-45.24
-45.21
-44.64
-43.99
-43.5
-43.16
-42.79
-42.14
-41.17
-40.04
-39.16
-39.02
-40.1
-42.59
-46.34
-50.77
-54.92
-57.68
-58.06
-55.42
-49.7
-41.4
-31.44
-20.93
-10.91
-2.13
5.05
10.58
14.66
17.58
19.62
21.02
21.98
22.67
23.23
23.75
24.21
24.52
24.53
24.16
23.41
22.41
21.37
20.47
19.84
19.52
19.5
19.72
20.09
20.5
20.75
20.67
20.09
18.93
17.24
15.18
12.95
10.66
8.35
5.93
3.3
0.44
-2.55
-5.41
-7.76
-9.32
-10.03
-10.11
-10.16
-10.89
-12.97
-16.69
-21.82
-27.64
-33.15
-37.33
-39.47
-39.25
-36.77
-32.34
-26.45
-19.64
-12.54
-5.81
-0.05
4.36
7.35
9.2
10.36
11.3
12.31
13.43
14.55
15.53
16.31
16.98
17.67
18.5
19.55
20.78
22.15
23.55
24.85
25.82
26.23
25.93
24.93
23.43
21.74
20.16
18.8
17.55
16.09
14.1
11.37
7.91
3.99
-0.01
-3.7
-6.75
-9.0
-10.46
-11.34
-11.98
-12.75
-13.98
-15.78
-18.08
-20.62
-23.14
-25.49
-27.74
-30.13
-32.97
-36.44
-40.51
-44.79
-48.56
-50.91
-50.92
-47.93
-41.78
-32.92
-22.34
-11.33
-1.1
7.49
14.03
18.54
21.23
22.42
22.39
21.38
19.72
17.84
16.18
15.22
15.31
16.66
19.31
23.12
27.85
33.21
38.8
44.22
48.99
52.63
54.71
54.9
53.16
49.7
44.98
39.66
34.36
29.62
25.79
22.99
21.15
20.0
19.1
17.93
16.02
13.06
9.01
4.05
-1.49
-7.3
-13.15
-18.85
-24.22
-29.03
-32.92
-35.54
-36.61
-36.01
-33.9
-30.67
-26.91
-23.32
-20.67
-19.66
-20.87
-24.63
-30.78
-38.67
-47.06
-54.41
-59.13
-60.08
-56.84
-49.8
-40.04
-28.89
-17.67
-7.33
1.56
8.79
14.44
18.73
22.06
24.87
27.61
30.64
34.11
37.87
41.57
44.65
46.6
47.08
46.05
43.81
40.89
37.88
35.25
33.24
31.85
30.91
30.12
29.09
27.36
24.45
19.97
13.71
5.8
-3.26
-12.71
-21.66
-29.32
-35.23
-39.3
-41.78
-43.07
-43.58
-43.59
-43.21
-42.47
-41.38
-40.03
-38.61
-37.35
-36.52
-36.39
-37.14
-38.75
-40.93
-43.08
-44.34
-43.87
-41.06
-35.78
-28.45
-19.86
-10.93
-2.45
5.06
11.36
16.42
20.33
23.21
25.2
26.41
26.95
26.91
26.38
25.46
24.34
23.2
22.25
21.65
21.47
21.64
21.98
22.26
22.27
21.79
20.68
18.86
16.33
13.21
9.76
6.33
3.34
1.12
-0.18
-0.65
-0.56
-0.31
-0.23
-0.5
-1.12
-1.94
-2.74
-3.38
-3.82
-4.27
-5.08
-6.68
-9.32
-12.94
-17.04
-20.76
-23.17
-23.52
-21.46
-17.16
-11.25
-4.58
1.95
7.59
11.91
14.81
16.49
17.31
17.65
17.79
17.82
17.72
17.44
16.95
16.34
15.74
15.26
14.94
14.76
14.66
14.64
14.71
14.95
15.45
16.33
17.65
19.38
21.36
23.31
24.84
25.6
25.34
23.98
21.62
18.46
14.73
10.64
6.36
2.08
-2.06
-5.93
-9.43
-12.59
-15.53
-18.36
-21.21
-24.07
-26.86
-29.45
-31.77
-33.86
-35.99
-38.53
-41.87
-46.18
-51.26
-56.45
-60.76
-63.15
-62.79
-59.37
-53.15
-44.82
-35.33
-25.62
-16.44
-8.28
-1.33
4.46
9.29
13.43
17.11
20.4
23.3
25.7
27.52
28.78
29.57
30.03
30.3
30.45
30.5
30.48
30.41
30.33
30.28
30.27
30.23
30.03
29.52
28.55
27.08
25.23
23.17
21.1
19.17
17.39
15.6
13.63
11.32
8.6
5.54
2.34
-0.74
-3.42
-5.52
-6.98
-8.0
-8.93
-10.14
-11.93
-14.35
-17.21
-20.21
-23.07
-25.67
-28.07
-30.49
-33.22
-36.52
-40.59
-45.45
-50.86
-56.27
-60.82
-63.53
-63.58
-60.54
-54.58
-46.38
-36.97
-27.36
-18.35
-10.4
-3.64
2.03
6.82
10.95
14.63
18.02
21.21
24.19
26.92
29.27
31.12
32.39
33.06
33.26
33.25
33.34
33.8
34.7
35.92
37.11
37.87
37.88
37.03
35.47
33.5
31.49
29.66
28.08
26.63
25.1
23.29
21.09
18.48
15.51
12.25
8.7
4.82
0.55
-4.1
-9.02
-14.01
-18.81
-23.18
-27.0
-30.22
-32.95
-35.37
-37.76
-40.34
-43.23
-46.33
-49.22
-51.24
-51.68
-49.95
-45.86
-39.68
-32.04
-23.78
-15.64
-8.19
-1.71
3.71
8.07
11.46
14.02
15.97
17.62
19.27
21.21
23.61
26.49
29.76
33.23
36.62
39.6
41.86
43.06
42.99
41.52
38.69
34.62
29.58
23.89
17.93
12.11
6.78
2.24
-1.28
-3.69
-5.01
-5.35
-4.9
-3.91
-2.64
-1.32
-0.11
0.87
1.5
1.56
0.75
-1.24
-4.64
-9.5
-15.64
-22.65
-30.08
-37.44
-44.3
-50.19
-54.62
-56.98
-56.71
-53.48
-47.33
-38.8
-28.87
-18.68
-9.34
-1.64
4.04
7.74
9.78
10.65
10.92
11.1
11.59
12.64
14.28
16.43
18.91
21.46
23.86
25.87
27.35
28.22
28.55
28.44
28.06
27.53
26.81
25.79
24.34
22.37
19.94
17.28
14.67
12.4
10.64
9.39
8.49
7.77
7.03
6.17
5.13
3.92
2.51
0.9
-0.93
-3.0
-5.24
-7.63
-10.1
-12.59
-15.11
-17.65
-20.21
-22.77
-25.27
-27.64
-29.9
-32.17
-34.64
-37.5
-40.71
-43.89
-46.32
-47.15
-45.7
-41.73
-35.54
-27.85
-19.63
-11.77
-4.87
0.78
5.23
8.75
11.7
14.36
16.9
19.34
21.55
23.37
24.67
25.39
25.58
25.38
24.96
24.52
24.22
24.14
24.3
24.56
24.76
24.75
24.43
23.85
23.09
22.27
21.46
20.68
19.9
19.1
18.3
17.52
16.79
16.08
15.27
14.25
12.92
11.27
9.39
7.43
5.49
3.61
1.76
-0.19
-2.33
-4.71
-7.32
-10.08
-12.84
-15.5
-17.95
-20.2
-22.37
-24.69
-27.42
-30.76
-34.69
-38.92
-42.91
-45.92
-47.25
-46.37
-43.13
-37.73
-30.72
-22.82
-14.84
-7.43
-1.04
4.2
8.37
11.69
14.43
16.76
18.74
20.36
21.58
22.42
22.96
23.28
23.45
23.47
23.28
22.86
22.28
21.69
21.26
21.13
21.28
21.55
21.71
21.53
20.91
19.87
18.52
17.0
15.37
13.67
11.89
9.99
7.92
5.61
2.99
0.01
-3.29
-6.78
-10.2
-13.29
-15.91
-18.03
-19.82
-21.49
-23.29
-25.38
-27.9
-30.89
-34.29
-37.85
-41.08
-43.32
-43.86
-42.19
-38.17
-32.1
-24.63
-16.64
-8.91
-2.09
3.53
7.91
11.21
13.72
15.68
17.26
18.49
19.35
19.83
19.96
19.89
19.74
19.6
19.49
19.36
19.12
18.76
18.28
17.77
17.3
16.9
16.6
16.4
16.3
16.28
16.33
16.34
16.2
15.79
15.01
13.87
12.45
10.9
9.34
7.88
6.51
5.17
3.76
2.16
0.31
-1.81
-4.18
-6.74
-9.37
-11.94
-14.3
-16.33
-17.98
-19.26
-20.24
-20.99
-21.62
-22.3
-23.24
-24.69
-26.7
-29.04
-30.99
-31.51
-29.56
-24.46
-16.31
-6.02
4.97
15.17
23.54
29.85
34.71
39.26
44.82
52.24
61.58
71.99
81.83
89.26
92.77
91.7
86.47
78.49
69.8
62.54
58.31
57.58
59.26
60.81
58.92
50.66
34.73
12.11
-14.18
-40.21
-62.51
-79.09
-89.72
-95.41
-97.56
-97.35
-95.39
-91.88
-86.75
-79.84
-71.0
-60.2
-47.71
-34.17
-20.5
-7.52
4.26
14.85
24.49
33.29
40.92
46.62
49.65
49.64
46.94
42.4
37.03
31.5
25.93
20.2
14.21
8.29
3.1
-0.62
-2.47
-2.69
-2.04
-1.57
-2.11
-4.13
-7.65
-12.42
-18.09
-24.31
-30.75
-36.99
-42.56
-46.95
-49.83
-51.07
-50.78
-49.27
-46.94
-44.12
-41.06
-37.88
-34.57
-31.08
-27.37
-23.43
-19.27
-14.99
-10.67
-6.36
-2.15
1.84
5.41
8.29
10.16
10.73
9.75
7.12
2.85
-2.84
-9.52
-16.53
-23.2
-28.92
-33.35
-36.57
-38.98
-41.16
-43.66
-46.77
-50.49
-54.54
-58.49
-61.88
-64.3
-65.43
-65.06
-62.97
-59.02
-53.13
-45.43
-36.32
-26.52
-16.98
-8.62
-2.07
2.4
4.94
5.9
5.71
4.75
3.43
2.19
1.58
1.97
3.45
5.67
8.01
9.83
10.84
11.29
11.82
13.21
16.01
20.34
25.88
31.98
37.92
43.04
46.87
49.11
49.59
48.26
45.13
40.27
33.84
26.08
17.39
8.31
-0.48
-8.24
-14.4
-18.67
-21.25
-22.79
-24.24
-26.57
-30.38
-35.66
-41.69
-47.25
-50.99
-51.89
-49.59
-44.39
-37.15
-28.88
-20.56
-12.9
-6.32
-1.05
2.81
5.31
6.62
7.01
6.79
6.13
5.01
3.22
0.42
-3.58
-8.75
-14.67
-20.67
-25.97
-29.81
-31.63
-31.16
-28.51
-24.19
-19.12
-14.44
-11.2
-10.02
-10.89
-13.22
-16.06
-18.48
-19.8
-19.75
-18.41
-16.08
-13.09
-9.75
-6.22
-2.54
1.36
5.65
10.48
15.85
21.64
27.64
33.72
39.87
46.18
52.63
59.05
65.0
69.98
73.62
75.73
76.44
76.09
75.14
74.09
73.28
72.83
72.48
71.66
69.72
66.25
61.38
55.84
50.69
46.85
44.67
43.83
43.47
42.66
40.8
37.77
33.92
29.74
25.68
22.01
18.79
16.0
13.58
11.37
9.12
6.41
2.77
-2.13
-8.31
-15.45
-23.01
-30.43
-37.33
-43.51
-48.81
-52.88
-55.18
-55.12
-52.46
-47.66
-41.81
-36.32
-32.39
-30.54
-30.53
-31.52
-32.58
-32.92
-32.1
-29.92
-26.29
-21.2
-14.85
-7.78
-0.85
4.91
8.76
10.48
10.48
9.59
8.73
8.59
9.46
11.33
14.01
17.29
20.94
24.72
28.24
31.06
32.75
33.06
32.01
30.0
27.59
25.41
24.0
23.68
24.52
26.29
28.54
30.7
32.19
32.65
32.05
30.65
28.93
27.38
26.34
26.04
26.59
28.11
30.62
33.97
37.77
41.46
44.48
46.57
47.83
48.67
49.54
50.8
52.62
54.9
57.24
58.88
58.73
55.61
48.8
38.47
25.84
12.88
1.47
-7.18
-13.04
-16.87
-19.76
-22.46
-25.13
-27.53
-29.35
-30.57
-31.51
-32.66
-34.48
-37.18
-40.77
-45.1
-50.0
-55.28
-60.64
-65.63
-69.65
-72.04
-72.34
-70.38
-66.39
-60.86
-54.43
-47.68
-40.99
-34.6
-28.61
-23.06
-17.94
-13.23
-8.84
-4.68
-0.67
3.19
6.89
10.38
13.59
16.51
19.1
21.34
23.16
24.47
25.18
25.22
24.54
23.17
21.19
18.82
16.3
13.92
11.88
10.29
9.04
7.9
6.6
4.99
3.09
1.15
-0.46
-1.4
-1.5
-0.83
0.27
1.31
1.68
0.89
-1.37
-5.0
-9.48
-13.98
-17.57
-19.48
-19.46
-17.73
-14.95
-11.88
-9.12
-7.0
-5.63
-5.0
-5.1
-5.99
-7.67
-9.99
-12.65
-15.23
-17.39
-18.96
-20.01
-20.78
-21.48
-22.2
-22.78
-22.95
-22.42
-21.04
-18.88
-16.16
-13.19
-10.21
-7.39
-4.85
-2.66
-0.85
0.59
1.74
2.68
3.45
4.02
4.22
3.85
2.71
0.73
-2.05
-5.42
-9.08
-12.55
-15.36
-17.05
-17.35
-16.2
-13.83
-10.66
-7.14
-3.69
-0.56
2.09
4.22
5.84
7.01
7.88
8.63
9.39
10.22
11.07
11.76
12.15
12.2
11.98
11.67
11.45
11.35
11.31
11.21
10.91
10.42
9.8
9.15
8.51
7.84
7.07
6.12
4.95
3.59
2.09
0.52
-1.04
-2.54
-3.93
-5.2
-6.37
-7.5
-8.69
-10.06
-11.7
-13.66
-15.82
-17.96
-19.7
-20.64
-20.44
-18.96
-16.31
-12.87
-9.12
-5.55
-2.48
-0.03
1.83
3.27
4.45
5.52
6.56
7.6
8.63
9.59
10.41
11.04
11.4
11.48
11.32
10.94
10.43
9.91
9.46
9.15
8.99
8.86
8.62
8.11
7.26
6.18
5.1
4.29
3.96
4.15
4.71
5.4
5.98
6.28
6.25
5.94
5.41
4.75
3.98
3.16
2.31
1.44
0.57
-0.3
-1.18
-2.05
-2.89
-3.7
-4.49
-5.33
-6.28
-7.4
-8.65
-9.97
-11.17
-12.02
-12.25
-11.61
-9.97
-7.33
-3.87
0.09
4.18
8.04
11.39
14.09
16.11
17.56
18.62
19.51
20.37
21.22
21.91
22.16
21.65
20.1
17.35
13.38
8.34
2.54
-3.6
-9.54
-14.81
-19.13
-22.48
-25.19
-27.69
-30.37
-33.37
-36.53
-39.5
-41.9
-43.49
-44.2
-44.07
-43.04
-40.95
-37.55
-32.64
-26.27
-18.78
-10.79
-3.0
3.97
9.76
14.28
17.64
20.06
21.66
22.51
22.61
21.89
20.35
18.03
15.01
11.46
7.63
3.84
0.46
-2.21
-3.95
-4.77
-4.8
-4.3
-3.58
-2.87
-2.35
-2.08
-2.03
-2.14
-2.29
-2.38
-2.33
-2.13
-1.78
-1.39
-1.01
-0.62
-0.17
0.44
1.29
2.4
3.69
5.05
6.36
7.53
8.52
9.35
10.01
10.51
10.86
11.09
11.28
11.45
11.61
11.69
11.62
11.34
10.9
10.38
9.9
9.54
9.26
8.97
8.53
7.87
7.02
6.05
5.08
4.2
3.43
2.77
2.17
1.61
1.08
0.55
-0.05
-0.84
-1.94
-3.45
-5.38
-7.67
-10.19
-12.81
-15.33
-17.58
-19.31
-20.33
-20.45
-19.65
-18.05
-15.9
-13.53
-11.2
-9.05
-7.1
-5.32
-3.72
-2.38
-1.44
-1.01
-1.01
-1.23
-1.32
-0.98
-0.1
1.22
2.73
4.2
5.51
6.71
7.91
9.2
10.52
11.71
12.6
13.12
13.31
13.28
13.16
13.02
12.85
12.62
12.33
11.97
11.58
11.1
10.43
9.45
8.08
6.38
4.5
2.7
1.18
0.02
-0.83
-1.56
-2.39
-3.48
-4.91
-6.6
-8.44
-10.28
-11.99
-13.53
-14.89
-16.1
-17.21
-18.26
-19.29
-20.24
-20.99
-21.35
-21.05
-19.88
-17.72
-14.6
-10.75
-6.53
-2.32
1.51
4.69
7.12
8.82
9.93
10.68
11.34
12.16
13.31
14.85
16.65
18.51
20.16
21.44
22.38
23.17
24.1
25.38
27.01
28.71
29.95
30.15
28.83
25.75
21.08
15.27
8.96
2.81
-2.71
-7.42
-11.4
-14.88
-18.1
-21.14
-23.93
-26.23
-27.76
-28.33
-27.85
-26.41
-24.15
-21.27
-17.9
-14.15
-10.14
-6.08
-2.24
1.07
3.6
5.3
6.26
6.72
6.93
7.06
7.17
7.24
7.21
7.07
6.83
6.5
6.11
5.66
5.2
4.79
4.5
4.4
4.51
4.8
5.2
5.61
5.93
6.09
5.99
5.62
5.0
4.24
3.52
2.98
2.72
2.72
2.85
2.95
2.9
2.67
2.28
1.82
1.3
0.75
0.13
-0.58
-1.36
-2.15
-2.92
-3.69
-4.51
-5.5
-6.73
-8.25
-10.03
-12.0
-14.06
-16.03
-17.7
-18.81
-19.12
-18.52
-17.02
-14.79
-12.11
-9.27
-6.46
-3.79
-1.26
1.1
3.22
5.01
6.34
7.14
7.44
7.35
7.04
6.68
6.38
6.21
6.21
6.37
6.67
7.09
7.56
8.03
8.46
8.8
9.04
9.21
9.31
9.36
9.34
9.21
8.92
8.41
7.67
6.72
5.59
4.3
2.87
1.32
-0.34
-2.01
-3.59
-4.97
-6.05
-6.85
-7.45
-8.0
-8.63
-9.45
-10.49
-11.71
-13.01
-14.23
-15.2
-15.75
-15.75
-15.14
-13.93
-12.18
-10.04
-7.66
-5.2
-2.82
-0.59
1.44
3.27
4.9
6.3
7.48
8.42
9.18
9.85
10.48
11.11
11.68
12.11
12.35
12.41
12.34
12.2
11.97
11.57
10.92
10.02
8.98
7.99
7.25
6.85
6.73
6.76
6.76
6.6
6.22
5.63
4.86
3.96
3.01
2.04
1.12
0.25
-0.63
-1.59
-2.74
-4.09
-5.54
-6.94
-8.14
-9.12
-9.95
-10.82
-11.86
-13.06
-14.27
-15.19
-15.56
-15.18
-14.06
-12.31
-10.17
-7.9
-5.73
-3.83
-2.31
-1.19
-0.45
0.02
0.31
0.53
0.79
1.13
1.59
2.15
2.77
3.39
4.01
4.63
5.26
5.93
6.62
7.25
7.72
7.94
7.87
7.53
6.96
6.24
5.44
4.64
3.92
3.34
2.91
2.57
2.21
1.71
1.0
0.07
-0.98
-2.05
-3.05
-3.95
-4.78
-5.6
-6.43
-7.28
-8.14
-8.91
-9.47
-9.65
-9.28
-8.26
-6.61
-4.48
-2.09
0.33
2.58
4.53
6.13
7.38
8.34
9.14
9.87
10.65
11.51
12.42
13.27
13.95
14.32
14.29
13.85
13.08
12.13
11.19
10.44
9.98
9.79
9.75
9.65
9.34
8.75
7.93
6.97
6.0
5.14
4.41
3.83
3.36
2.95
2.56
2.13
1.65
1.17
0.75
0.45
0.26
0.11
-0.13
-0.56
-1.25
-2.14
-3.13
-4.11
-5.03
-5.9
-6.81
-7.8
-8.88
-10.01
-11.13
-12.23
-13.26
-14.11
-14.63
-14.62
-13.92
-12.49
-10.46
-8.1
-5.68
-3.42
-1.41
0.37
1.93
3.3
4.44
5.3
5.87
6.24
6.55
6.93
7.45
8.06
8.65
9.09
9.32
9.4
9.5
9.79
10.34
11.07
11.79
12.26
12.33
12.02
11.44
10.81
10.25
9.79
9.36
8.84
8.17
7.34
6.42
5.52
4.73
4.05
3.47
2.93
2.41
1.89
1.41
0.98
0.59
0.19
-0.27
-0.85
-1.57
-2.39
-3.28
-4.19
-5.07
-5.86
-6.51
-6.97
-7.22
-7.33
-7.4
-7.59
-8.03
-8.77
-9.74
-10.74
-11.5
-11.73
-11.24
-10.05
-8.33
-6.38
-4.52
-2.94
-1.69
-0.71
0.13
0.91
1.64
2.32
2.95
3.53
4.07
4.5
4.7
4.57
4.11
3.45
2.86
2.54
2.62
3.02
3.57
4.08
4.45
4.68
4.86
5.06
5.32
5.59
5.82
5.97
6.0
5.93
5.75
5.44
4.97
4.3
3.46
2.5
1.55
0.75
0.2
-0.08
-0.18
-0.25
-0.44
-0.83
-1.44
-2.22
-3.08
-4.0
-5.01
-6.17
-7.56
-9.17
-10.93
-12.64
-14.07
-14.98
-15.21
-14.72
-13.55
-11.84
-9.73
-7.32
-4.69
-1.9
0.95
3.73
6.29
8.48
10.24
11.6
12.61
13.32
13.72
13.71
13.15
11.94
10.02
7.42
4.22
0.55
-3.38
-7.26
-10.7
-13.24
-14.46
-14.11
-12.14
-8.79
-4.43
0.43
5.28
9.62
13.06
15.34
16.35
16.2
15.12
13.42
11.35
9.07
6.64
4.06
1.36
-1.39
-4.02
-6.3
-7.94
-8.67
-8.33
-6.93
-4.73
-2.21
0.04
1.55
2.04
1.54
0.34
-1.13
-2.44
-3.3
-3.57
-3.3
-2.75
-2.27
-2.24
-2.97
-4.52
-6.73
-9.24
-11.61
-13.43
-14.49
-14.71
-14.2
-13.13
-11.72
-10.14
-8.52
-6.92
-5.3
-3.56
-1.59
0.69
3.2
5.72
7.99
9.76
10.86
11.26
11.03
10.31
9.31
8.29
7.49
7.11
7.19
7.63
8.13
8.38
8.17
7.49
6.48
5.37
4.38
3.59
3.0
2.52
2.09
1.68
1.27
0.86
0.42
-0.12
-0.78
-1.58
-2.47
-3.37
-4.21
-4.94
-5.56
-6.11
-6.65
-7.24
-7.98
-8.91
-10.09
-11.48
-12.98
-14.39
-15.45
-15.92
-15.65
-14.65
-13.08
-11.22
-9.33
-7.63
-6.21
-5.04
-4.03
-3.04
-1.99
-0.86
0.35
1.58
2.72
3.7
4.45
4.96
5.25
5.39
5.38
5.24
4.93
4.46
3.9
3.37
2.95
2.65
2.41
2.08
1.62
1.11
0.7
0.57
0.79
1.29
1.86
2.29
2.41
2.19
1.67
0.94
0.12
-0.74
-1.61
-2.53
-3.52
-4.57
-5.6
-6.5
-7.17
-7.63
-8.03
-8.61
-9.59
-11.05
-12.87
-14.72
-16.2
-16.97
-16.85
-15.85
-14.12
-11.92
-9.51
-7.11
-4.86
-2.8
-0.94
0.74
2.25
3.57
4.68
5.61
6.39
7.09
7.77
8.44
9.05
9.55
9.89
10.06
10.13
10.16
10.19
10.21
10.17
10.04
9.8
9.52
9.21
8.88
8.51
8.05
7.48
6.86
6.26
5.73
5.27
4.79
4.16
3.27
2.07
0.67
-0.8
-2.16
-3.36
-4.44
-5.52
-6.76
-8.23
-9.91
-11.74
-13.59
-15.3
-16.68
-17.5
-17.53
-16.65
-14.89
-12.43
-9.61
-6.75
-4.09
-1.77
0.25
2.04
3.75
5.45
7.2
8.95
10.55
11.79
12.53
12.7
12.39
11.8
11.21
10.84
10.84
11.26
12.03
13.03
14.07
14.97
15.57
15.76
15.52
14.88
13.95
12.83
11.65
10.52
9.5
8.55
7.56
6.35
4.82
2.96
0.95
-0.92
-2.38
-3.31
-3.76
-3.92
-4.08
-4.43
-5.08
-6.01
-7.11
-8.23
-9.23
-10.03
-10.62
-11.1
-11.61
-12.32
-13.32
-14.58
-15.95
-17.18
-18.0
-18.15
-17.47
-15.89
-13.48
-10.41
-6.97
-3.51
-0.35
2.27
4.23
5.59
6.52
7.22
7.86
8.51
9.15
9.69
10.02
10.13
10.02
9.74
9.37
8.98
8.65
8.43
8.4
8.55
8.82
9.08
9.19
9.03
8.57
7.91
7.22
6.66
6.32
6.2
6.19
6.16
5.99
5.62
5.03
4.28
3.43
2.53
1.62
0.71
-0.2
-1.15
-2.18
-3.34
-4.61
-5.97
-7.33
-8.54
-9.53
-10.25
-10.78
-11.25
-11.82
-12.59
-13.59
-14.72
-15.88
-16.92
-17.74
-18.21
-18.22
-17.66
-16.49
-14.74
-12.54
-10.12
-7.7
-5.45
-3.44
-1.67
-0.1
1.29
2.49
3.49
4.3
4.97
5.58
6.17
6.8
7.43
8.0
8.45
8.75
8.91
8.99
9.07
9.2
9.37
9.56
9.66
9.59
9.26
8.63
7.72
6.6
5.36
4.17
3.17
2.51
2.27
2.45
2.94
3.56
4.06
4.23
3.95
3.18
2.04
0.69
-0.67
-1.88
-2.85
-3.56
-4.08
-4.51
-4.96
-5.55
-6.38
-7.5
-8.85
-10.27
-11.51
-12.31
-12.47
-11.9
-10.67
-8.92
-6.88
-4.8
-2.9
-1.32
-0.13
0.7
1.23
1.58
1.81
1.99
2.17
2.41
2.77
3.31
4.02
4.85
5.73
6.59
7.4
8.17
8.85
9.39
9.62
9.43
8.72
7.57
6.2
4.9
3.91
3.37
3.22
3.3
3.38
3.23
2.71
1.78
0.52
-0.95
-2.43
-3.72
-4.71
-5.36
-5.71
-5.9
-6.05
-6.25
-6.56
-7.02
-7.66
-8.48
-9.47
-10.59
-11.79
-13.02
-14.29
-15.55
-16.78
-17.84
-18.53
-18.63
-18.0
-16.66
-14.8
-12.67
-10.51
-8.4
-6.33
-4.21
-2.03
0.09
1.94
3.34
4.26
4.86
5.39
6.11
7.08
8.23
9.33
10.21
10.74
10.98
11.05
11.1
11.19
11.3
11.35
11.28
11.07
10.79
10.5
10.23
9.92
9.48
8.84
8.02
7.11
6.25
5.51
4.87
4.23
3.45
2.48
1.36
0.2
-0.85
-1.74
-2.47
-3.11
-3.77
-4.49
-5.26
-6.04
-6.77
-7.45
-8.1
-8.76
-9.5
-10.36
-11.39
-12.6
-13.93
-15.26
-16.36
-16.97
-16.88
-16.03
-14.5
-12.53
-10.4
-8.36
-6.52
-4.88
-3.35
-1.88
-0.46
0.83
1.91
2.74
3.37
3.89
4.4
4.93
5.45
5.89
6.18
6.3
6.3
6.29
6.36
6.56
6.84
7.13
7.31
7.34
7.24
7.08
6.93
6.78
6.55
6.12
5.36
4.24
2.85
1.33
-0.12
-1.34
-2.24
-2.8
-3.08
-3.18
-3.3
-3.54
-4.0
-4.65
-5.42
-6.21
-6.97
-7.74
-8.58
-9.56
-10.69
-11.9
-13.08
-14.12
-14.89
-15.27
-15.14
-14.35
-12.87
-10.74
-8.15
-5.37
-2.65
-0.18
1.99
3.88
5.52
6.91
8.01
8.79
9.26
9.51
9.7
9.97
10.37
10.88
11.36
11.69
11.77
11.6
11.31
11.04
10.87
10.81
10.73
10.48
9.94
9.09
7.99
6.76
5.47
4.21
3.03
1.93
0.93
0.03
-0.77
-1.44
-1.95
-2.24
-2.31
-2.21
-2.09
-2.13
-2.48
-3.21
-4.26
-5.54
-6.97
-8.51
-10.16
-11.93
-13.72
-15.36
-16.61
-17.28
-17.28
-16.68
-15.61
-14.2
-12.52
-10.54
-8.2
-5.46
-2.4
0.79
3.85
6.52
8.63
10.11
11.02
11.47
11.61
11.5
11.14
10.52
9.68
8.75
7.93
7.39
7.23
7.42
7.79
8.17
8.4
8.43
8.28
8.02
7.7
7.33
6.87
6.24
5.4
4.32
3.07
1.75
0.49
-0.59
-1.4
-1.97
-2.38
-2.75
-3.24
-3.95
-4.9
-6.04
-7.22
-8.27
-9.08
-9.58
-9.77
-9.79
-9.85
-10.17
-10.95
-12.24
-13.91
-15.67
-17.13
-17.95
-17.91
-16.96
-15.19
-12.8
-10.06
-7.23
-4.51
-2.05
0.1
1.97
3.65
5.18
6.59
7.86
8.93
9.83
10.57
11.22
11.8
12.3
12.67
12.86
12.84
12.62
12.22
11.7
11.1
10.47
9.89
9.38
8.96
8.56
8.09
7.47
6.64
5.63
4.48
3.31
2.18
1.15
0.26
-0.46
-1.0
-1.38
-1.7
-2.07
-2.57
-3.21
-3.97
-4.76
-5.55
-6.32
-7.12
-7.94
-8.76
-9.58
-10.42
-11.42
-12.71
-14.37
-16.29
-18.17
-19.61
-20.27
-19.96
-18.75
-16.83
-14.45
-11.82
-9.08
-6.38
-3.8
-1.44
0.66
2.55
4.33
6.05
7.68
9.12
10.22
10.9
11.17
11.11
10.85
10.49
10.11
9.73
9.42
9.18
9.08
9.09
9.17
9.26
9.27
9.17
8.93
8.6
8.22
7.79
7.33
6.79
6.15
5.39
4.53
3.59
2.59
1.54
0.45
-0.65
-1.71
-2.7
-3.59
-4.46
-5.39
-6.52
-7.92
-9.59
-11.46
-13.33
-14.98
-16.17
-16.66
-16.3
-15.07
-13.06
-10.45
-7.46
-4.29
-1.09
2.02
4.93
7.57
9.83
11.68
13.03
13.86
14.11
13.83
13.11
12.17
11.28
10.64
10.31
10.22
10.24
10.2
10.05
9.75
9.33
8.84
8.29
7.74
7.22
6.77
6.43
6.16
5.89
5.54
5.02
4.29
3.36
2.29
1.21
0.29
-0.38
-0.79
-1.03
-1.29
-1.73
-2.4
-3.25
-4.18
-5.12
-6.1
-7.2
-8.48
-9.96
-11.53
-13.1
-14.63
-16.17
-17.77
-19.42
-20.91
-21.91
-22.03
-21.02
-18.86
-15.8
-12.25
-8.67
-5.37
-2.52
-0.1
1.95
3.69
5.12
6.2
6.91
7.33
7.59
7.85
8.29
9.01
10.07
11.46
13.12
14.9
16.64
18.11
19.11
19.51
19.21
18.23
16.68
14.72
12.59
10.51
8.63
7.01
5.57
4.19
2.78
1.33
-0.05
-1.22
-2.04
-2.44
-2.48
-2.31
-2.15
-2.27
-2.89
-4.09
-5.86
-7.98
-10.2
-12.25
-13.94
-15.21
-16.06
-16.56
-16.77
-16.81
-16.76
-16.72
-16.7
-16.65
-16.43
-15.87
-14.9
-13.51
-11.81
-9.99
-8.21
-6.59
-5.13
-3.74
-2.28
-0.56
1.51
3.92
6.54
9.12
11.36
13.04
14.0
14.21
13.71
12.64
11.2
9.63
8.17
7.0
6.2
5.81
5.82
6.23
7.11
8.51
10.38
12.56
14.66
16.19
16.69
15.86
13.73
10.64
7.2
4.14
2.08
1.3
1.66
2.66
3.56
3.72
2.8
0.94
-1.33
-3.32
-4.45
-4.53
-3.73
-2.62
-1.87
-2.11
-3.74
-6.83
-11.02
-15.56
-19.46
-21.71
-21.62
-19.03
-14.46
-8.9
-3.53
0.65
3.06
3.6
2.61
0.66
-1.58
-3.49
-4.61
-4.79
-4.12
-2.91
-1.57
-0.49
0.13
0.22
-0.1
-0.55
-0.78
-0.38
0.98
3.4
6.67
10.25
13.38
15.34
15.66
14.3
11.62
8.24
4.81
1.81
-0.59
-2.51
-4.3
-6.29
-8.67
-11.33
-13.94
-16.07
-17.36
-17.64
-16.98
-15.64
-14.01
-12.52
-11.55
-11.32
-11.91
-13.15
-14.76
-16.37
-17.73
-18.76
-19.5
-19.96
-19.95
-19.04
-16.58
-11.93
-4.71
5.06
16.95
30.27
44.26
58.42
72.54
86.69
101.0
115.44
129.65
142.92
154.45
163.52
169.84
173.55
175.14
175.17
174.01
171.71
168.12
163.03
156.47
148.69
140.06
130.86
121.11
110.59
98.94
85.98
71.81
56.84
41.65
26.76
12.54
-0.93
-13.76
-26.17
-38.39
-50.5
-62.46
-74.05
-84.94
-94.76
-103.12
-109.61
-113.81
-115.29
-113.77
-109.23
-101.99
-92.69
-82.07
-70.75
-59.01
-46.73
-33.55
-19.04
-2.94
14.79
33.91
54.08
74.88
95.93
116.83
137.25
156.83
175.23
192.11
207.14
220.02
230.38
237.85
242.01
242.43
238.79
230.9
218.74
202.46
182.38
158.97
132.84
104.62
74.98
44.55
13.98
-16.02
-44.58
-70.8
-94.04
-114.21
-131.99
-148.64
-165.47
-183.18
-201.51
-219.33
-235.2
-247.94
-257.05
-262.66
-265.18
-264.97
-262.25
-257.14
-249.9
-241.11
-231.61
-222.36
-214.24
-207.83
-203.35
-200.54
-198.71
-196.9
-194.14
-189.71
-183.37
-175.32
-166.07
-156.21
-146.23
-136.44
-126.94
-117.77
-108.9
-100.3
-92.01
-84.15
-76.91
-70.5
-65.11
-60.83
-57.71
-55.7
-54.75
-54.8
-55.79
-57.66
-60.22
-63.13
-65.92
-67.97
-68.67
-67.55
-64.43
-59.42
-52.99
-45.79
-38.56
-31.91
-26.16
-21.16
-16.32
-10.77
-3.77
4.93
14.73
24.31
31.98
36.34
36.77
33.68
28.19
21.72
15.42
9.87
5.13
1.1
-2.29
-4.89
-6.59
-7.48
-8.09
-9.22
-11.58
-15.38
-20.12
-24.64
-27.56
-27.72
-24.61
-18.45
-10.05
-0.5
9.12
17.99
25.64
31.93
37.01
41.1
44.37
46.91
48.68
49.66
49.88
49.47
48.54
47.16
45.28
42.86
39.91
36.6
33.26
30.23
27.78
26.04
25.05
24.7
24.85
25.26
25.65
25.73
25.34
24.44
23.12
21.48
19.52
17.08
13.89
9.79
4.77
-0.88
-6.7
-12.16
-16.78
-20.21
-22.21
-22.71
-21.84
-19.95
-17.56
-15.28
-13.62
-12.87
-13.01
-13.8
-14.89
-15.93
-16.73
-17.24
-17.54
-17.78
-18.1
-18.59
-19.27
-20.14
-21.16
-22.23
-23.12
-23.63
-23.57
-23.0
-22.18
-21.35
-20.4
-18.59
-14.56
-6.69
6.31
25.01
48.99
77.02
107.43
138.44
168.43
195.91
219.67
238.81
252.89
261.95
266.51
267.37
265.28
260.78
254.02
244.86
233.1
218.69
202.02
183.85
165.23
147.12
130.21
114.72
100.51
87.16
74.24
61.4
48.48
35.55
22.88
10.93
0.09
-9.49
-18.08
-26.3
-34.84
-44.12
-54.1
-64.26
-73.86
-82.26
-89.17
-94.69
-99.06
-102.5
-105.03
-106.48
-106.77
-106.0
-104.59
-103.1
-101.98
-101.36
-100.94
-100.15
-98.45
-95.57
-91.67
-87.18
-82.62
-78.28
-74.25
-70.37
-66.51
-62.67
-58.97
-55.64
-52.82
-50.5
-48.49
-46.55
-44.48
-42.19
-39.71
-37.15
-34.61
-32.21
-30.01
-28.09
-26.55
-25.51
-25.04
-25.17
-25.84
-27.05
-28.75
-30.97
-33.68
-36.7
-39.72
-42.33
-44.13
-44.92
-44.68
-43.58
-41.78
-39.45
-36.75
-33.86
-31.1
-28.83
-27.36
-26.81
-27.05
-27.78
-28.63
-29.33
-29.75
-29.92
-29.94
-29.83
-29.49
-28.68
-26.99
-24.03
-19.5
-13.33
-5.73
2.89
12.03
21.33
30.65
40.19
50.36
61.68
74.58
89.19
105.26
122.09
138.68
153.91
166.79
176.6
182.98
185.92
185.64
182.44
176.71
168.77
158.93
147.48
134.76
121.16
107.15
93.25
79.92
67.49
56.13
45.85
36.51
27.89
19.79
12.06
4.66
-2.36
-8.86
-14.71
-19.86
-24.38
-28.45
-32.21
-35.7
-38.81
-41.4
-43.44
-45.14
-46.84
-48.86
-51.23
-53.64
-55.59
-56.65
-56.75
-56.15
-55.36
-54.73
-54.34
-53.9
-53.02
-51.45
-49.23
-46.69
-44.24
-42.12
-40.36
-38.77
-37.16
-35.44
-33.74
-32.3
-31.4
-31.15
-31.47
-32.02
-32.38
-32.19
-31.31
-29.87
-28.21
-26.75
-25.83
-25.55
-25.79
-26.32
-26.85
-27.19
-27.25
-27.02
-26.58
-26.01
-25.39
-24.83
-24.33
-23.88
-23.48
-23.1
-22.76
-22.49
-22.32
-22.28
-22.43
-22.86
-23.63
-24.76
-26.08
-27.28
-27.93
-27.61
-26.13
-23.54
-20.11
-16.25
-12.38
-8.78
-5.59
-2.84
-0.47
1.6
3.45
5.12
6.65
8.05
9.31
10.42
11.37
12.15
12.78
13.3
13.78
14.28
14.85
15.53
16.3
17.13
17.91
18.51
18.79
18.67
18.13
17.21
16.02
14.65
13.2
11.7
10.17
8.65
7.16
5.74
4.38
3.06
1.76
0.53
-0.57
-1.46
-2.15
-2.74
-3.42
-4.31
-5.45
-6.7
-7.87
-8.79
-9.42
-9.9
-10.45
-11.27
-12.44
-13.94
-15.69
-17.55
-19.38
-20.98
-22.1
-22.41
-21.66
-19.75
-16.82
-13.23
-9.45
-5.9
-2.83
-0.27
1.86
3.71
5.33
6.67
7.6
8.07
8.13
8.02
8.0
8.31
8.94
9.71
10.34
10.63
10.6
10.48
10.56
11.01
11.76
12.53
13.0
12.98
12.53
11.88
11.24
10.68
10.04
9.1
7.72
6.0
4.26
2.95
2.35
2.54
3.32
4.34
5.29
5.99
6.39
6.58
6.62
6.49
6.09
5.25
3.91
2.07
-0.17
-2.7
-5.49
-8.58
-12.02
-15.76
-19.55
-22.96
-25.52
-26.87
-26.89
-25.77
-23.84
-21.42
-18.74
-15.81
-12.53
-8.72
-4.28
0.79
6.3
11.93
17.29
21.96
25.64
28.19
29.66
30.19
30.0
29.21
27.91
26.12
23.85
21.23
18.46
15.87
13.79
12.49
12.05
12.38
13.2
14.15
14.94
15.39
15.45
15.17
14.6
13.84
12.95
12.05
11.22
10.54
10.0
9.49
8.88
8.02
6.85
5.45
3.96
2.54
1.32
0.34
-0.4
-0.98
-1.51
-2.17
-3.13
-4.53
-6.43
-8.69
-11.02
-13.01
-14.28
-14.56
-13.81
-12.18
-9.94
-7.41
-4.84
-2.44
-0.27
1.66
3.39
5.0
6.54
8.06
9.51
10.85
11.99
12.93
13.67
14.26
14.7
14.98
15.04
14.83
14.42
13.91
13.47
13.22
13.18
13.27
13.35
13.29
12.97
12.36
11.49
10.43
9.28
8.17
7.17
6.33
5.63
4.98
4.3
3.46
2.41
1.18
-0.18
-1.54
-2.78
-3.83
-4.68
-5.43
-6.17
-7.04
-8.09
-9.38
-10.9
-12.56
-14.18
-15.45
-16.03
-15.63
-14.16
-11.73
-8.64
-5.29
-2.04
0.81
3.09
4.77
5.91
6.73
7.45
8.28
9.3
10.42
11.47
12.25
12.68
12.81
12.79
12.76
12.79
12.87
12.95
12.99
13.04
13.15
13.35
13.59
13.71
13.6
13.19
12.57
11.86
11.17
10.49
9.73
8.81
7.66
6.36
4.99
3.63
2.31
1.0
-0.32
-1.64
-2.96
-4.32
-5.77
-7.36
-9.1
-10.89
-12.51
-13.73
-14.35
-14.25
-13.43
-11.95
-9.92
-7.52
-4.94
-2.39
-0.06
1.91
3.49
4.71
5.67
6.43
7.08
7.65
8.13
8.54
8.87
9.1
9.18
9.03
8.6
7.9
7.03
6.14
5.4
4.81
4.25
3.43
2.03
-0.14
-3.07
-6.48
-9.96
-13.07
-15.49
-17.02
-17.65
-17.45
-16.62
-15.41
-14.12
-13.02
-12.28
-11.92
-11.81
-11.69
-11.34
-10.64
-9.58
-8.28
-6.81
-5.18
-3.26
-0.86
2.29
6.38
11.49
17.66
24.83
32.94
41.97
51.91
62.69
74.17
86.04
97.81
108.86
118.54
126.26
131.63
134.5
135.04
133.63
130.79
127.03
122.7
117.94
112.67
106.75
100.15
93.05
85.77
78.64
71.9
65.53
59.38
53.26
47.07
40.85
34.69
28.67
22.77
16.91
11.06
5.27
-0.27
-5.34
-9.81
-13.64
-16.94
-19.93
-22.84
-25.87
-29.13
-32.58
-36.07
-39.36
-42.27
-44.75
-46.95
-49.19
-51.88
-55.47
-60.38
-66.94
-75.41
-85.72
-97.32
-109.08
-119.51
-127.1
-130.93
-130.91
-127.83
-122.94
-117.42
-112.01
-106.89
-101.92
-96.99
-92.11
-87.44
-82.96
-78.39
-73.13
-66.54
-58.23
-48.26
-37.15
-25.69
-14.65
-4.55
4.42
12.32
19.33
25.56
31.06
35.72
39.35
41.76
42.83
42.58
41.22
39.06
36.48
33.78
31.17
28.71
26.4
24.24
22.31
20.74
19.68
19.21
19.32
19.86
20.59
21.24
21.59
21.52
21.07
20.31
19.34
18.21
16.94
15.49
13.86
12.06
10.09
7.87
5.28
2.26
-1.13
-4.59
-7.68
-10.02
-11.43
-12.07
-12.3
-12.55
-13.08
-13.89
-14.83
-15.73
-16.5
-17.25
-18.13
-19.27
-20.68
-22.24
-23.76
-25.1
-26.23
-27.24
-28.28
-29.39
-30.48
-31.35
-31.79
-31.67
-31.09
-30.24
-29.39
-28.71
-28.24
-27.89
-27.55
-27.17
-26.74
-26.32
-25.9
-25.51
-25.14
-24.84
-24.75
-24.96
-25.54
-26.4
-27.34
-28.16
-28.69
-28.9
-28.88
-28.8
-28.82
-29.07
-29.61
-30.5
-31.78
-33.42
-35.29
-37.11
-38.52
-39.11
-38.69
-37.28
-35.21
-32.92
-30.88
-29.37
-28.5
-28.2
-28.34
-28.86
-29.72
-30.99
-32.69
-34.74
-36.99
-39.23
-41.28
-43.07
-44.72
-46.55
-48.9
-52.07
-56.16
-60.96
-66.06
-70.95
-75.23
-78.66
-81.24
-83.11
-84.48
-85.51
-86.13
-85.95
-84.13
-79.45
-70.59
-56.6
-37.29
-13.58
12.68
39.11
63.48
84.22
100.65
112.89
121.53
127.2
130.36
131.26
129.99
126.7
121.66
115.28
108.02
100.28
92.28
84.05
75.56
66.79
57.9
49.19
41.05
33.79
27.56
22.37
18.08
14.64
12.01
10.27
9.48
9.63
10.61
12.17
14.0
15.8
17.27
18.25
18.68
18.66
18.35
17.93
17.56
17.37
17.45
17.9
18.82
20.25
22.1
24.16
26.16
27.92
29.42
30.79
32.17
33.48
34.48
34.76
34.05
32.32
29.93
27.43
25.33
23.89
23.04
22.43
21.62
20.28
18.28
15.69
12.74
9.72
6.89
4.41
2.28
0.41
-1.36
-3.1
-4.82
-6.47
-8.01
-9.49
-11.04
-12.8
-14.84
-17.1
-19.47
-21.8
-24.0
-26.09
-28.06
-29.83
-31.22
-31.94
-31.75
-30.5
-28.22
-25.13
-21.58
-17.92
-14.5
-11.53
-9.12
-7.23
-5.76
-4.52
-3.36
-2.12
-0.74
0.8
2.45
4.11
5.69
7.12
8.41
9.63
10.89
12.29
13.89
15.67
17.49
19.14
20.36
20.94
20.78
19.97
18.71
17.32
16.04
15.05
14.35
13.87
13.5
13.16
12.86
12.63
12.55
12.69
13.06
13.64
14.36
15.13
15.82
16.31
16.48
16.26
15.64
14.68
13.54
12.36
11.31
10.47
9.87
9.52
9.4
9.51
9.82
10.24
10.63
10.76
10.45
9.57
8.1
6.1
3.7
1.01
-1.84
-4.78
-7.69
-10.47
-12.99
-15.09
-16.67
-17.68
-18.13
-18.17
-17.96
-17.69
-17.5
-17.51
-17.72
-18.13
-18.72
-19.43
-20.25
-21.16
-22.17
-23.28
-24.46
-25.61
-26.58
-27.25
-27.51
-27.4
-27.03
-26.5
-25.86
-25.0
-23.72
-21.85
-19.34
-16.31
-13.07
-9.91
-7.11
-4.81
-3.03
-1.74
-0.84
-0.29
0.02
0.18
0.24
0.23
0.08
-0.36
-1.21
-2.51
-4.16
-5.9
-7.4
-8.35
-8.61
-8.22
-7.37
-6.31
-5.22
-4.19
-3.22
-2.28
-1.38
-0.54
0.21
0.85
1.44
1.99
2.5
2.93
3.2
3.28
3.27
3.31
3.59
4.25
5.31
6.66
8.11
9.49
10.62
11.41
11.82
11.84
11.5
10.85
10.03
9.17
8.48
8.12
8.15
8.55
9.22
9.99
10.69
11.16
11.31
11.07
10.44
9.51
8.37
7.16
5.94
4.7
3.38
1.91
0.31
-1.34
-2.86
-4.13
-5.11
-5.86
-6.5
-7.13
-7.82
-8.59
-9.46
-10.44
-11.51
-12.58
-13.44
-13.81
-13.46
-12.24
-10.26
-7.78
-5.18
-2.78
-0.79
0.76
1.92
2.83
3.58
4.23
4.83
5.39
5.94
6.46
6.9
7.19
7.19
6.78
5.89
4.53
2.81
0.96
-0.79
-2.21
-3.13
-3.5
-3.35
-2.76
-1.88
-0.81
0.31
1.42
2.45
3.37
4.19
4.92
5.58
6.12
6.45
6.49
6.2
5.63
4.94
4.31
3.92
3.8
3.85
3.86
3.59
2.87
1.66
0.07
-1.74
-3.63
-5.47
-7.28
-9.11
-11.09
-13.29
-15.74
-18.36
-20.93
-23.1
-24.37
-24.24
-22.26
-18.29
-12.53
-5.56
1.81
8.68
14.32
18.25
20.26
20.41
18.96
16.41
13.4
10.67
8.89
8.49
9.46
11.38
13.53
15.14
15.6
14.62
12.32
9.12
5.69
2.74
0.83
0.21
0.77
2.07
3.53
4.59
4.93
4.49
3.43
2.05
0.67
-0.45
-1.16
-1.41
-1.24
-0.82
-0.4
-0.22
-0.46
-1.18
-2.33
-3.75
-5.26
-6.66
-7.83
-8.71
-9.4
-10.1
-11.0
-12.22
-13.68
-15.14
-16.23
-16.59
-16.0
-14.41
-11.98
-9.01
-5.84
-2.84
-0.33
1.48
2.52
2.84
2.63
2.1
1.45
0.85
0.43
0.26
0.3
0.35
0.14
-0.64
-2.1
-4.02
-5.87
-6.93
-6.6
-4.52
-0.66
4.79
11.6
19.57
28.51
38.07
47.72
56.74
64.35
69.93
73.16
74.02
72.8
69.95
66.0
61.47
56.77
52.12
47.55
42.93
38.11
33.07
27.96
23.09
18.8
15.32
12.67
10.62
8.83
6.92
4.56
1.54
-2.17
-6.46
-10.99
-15.29
-18.82
-21.13
-21.95
-21.32
-19.56
-17.16
-14.63
-12.34
-10.42
-8.8
-7.23
-5.45
-3.24
-0.52
2.63
5.99
9.35
12.5
15.35
17.89
20.12
22.01
23.42
24.14
23.96
22.81
20.76
18.03
14.91
11.66
8.44
5.28
2.18
-0.88
-3.85
-6.57
-8.83
-10.39
-11.1
-10.93
-10.02
-8.75
-7.6
-7.14
-7.82
-9.87
-13.17
-17.21
-21.19
-24.27
-25.74
-25.31
-23.19
-20.02
-16.69
-14.06
-12.73
-12.79
-13.96
-15.7
-17.5
-19.01
-20.21
-21.29
-22.52
-24.07
-25.91
-27.82
-29.41
-30.33
-30.3
-29.23
-27.14
-24.19
-20.57
-16.49
-12.17
-7.82
-3.64
0.18
3.51
6.32
8.66
10.62
12.33
13.87
15.3
16.6
17.74
18.67
19.36
19.77
19.86
19.65
19.17
18.55
17.95
17.59
17.63
18.11
18.92
19.88
20.71
21.18
21.09
20.32
18.78
16.48
13.54
10.17
6.69
3.44
0.67
-1.54
-3.35
-5.07
-7.03
-9.54
-12.71
-16.53
-20.92
-25.76
-30.87
-35.95
-40.52
-43.95
-45.63
-45.18
-42.63
-38.47
-33.49
-28.54
-24.31
-21.15
-19.06
-17.82
-17.04
-16.29
-15.19
-13.45
-10.9
-7.59
-3.8
-0.06
2.94
4.53
4.31
2.3
-0.99
-4.66
-7.7
-9.29
-9.04
-7.08
-3.99
-0.59
2.29
4.01
4.27
3.21
1.3
-0.78
-2.43
-3.25
-3.25
-2.73
-2.17
-2.02
-2.5
-3.62
-5.25
-7.27
-9.58
-12.11
-14.76
-17.38
-19.73
-21.66
-23.17
-24.45
-25.79
-27.51
-29.82
-32.8
-36.35
-40.25
-44.05
-47.21
-49.12
-49.26
-47.41
-43.71
-38.65
-32.9
-27.06
-21.57
-16.6
-12.14
-8.1
-4.43
-1.13
1.78
4.33
6.55
8.53
10.31
11.91
13.31
14.48
15.41
16.18
16.86
17.53
18.26
19.03
19.81
20.5
20.99
21.22
21.14
20.81
20.34
19.85
19.41
19.01
18.62
18.16
17.63
17.04
16.36
15.54
14.45
12.96
11.05
8.83
6.52
4.41
2.62
1.12
-0.26
-1.77
-3.61
-5.85
-8.42
-11.16
-13.92
-16.66
-19.46
-22.48
-25.86
-29.52
-33.17
-36.29
-38.3
-38.74
-37.41
-34.43
-30.16
-25.07
-19.65
-14.31
-9.39
-5.14
-1.63
1.19
3.51
5.6
7.64
9.76
11.97
14.23
16.43
18.49
20.29
21.71
22.64
23.06
23.0
22.63
22.1
21.54
21.0
20.43
19.78
19.01
18.14
17.22
16.35
15.61
15.06
14.7
14.44
14.12
13.57
12.65
11.29
9.55
7.57
5.51
3.47
1.46
-0.6
-2.77
-5.06
-7.39
-9.66
-11.79
-13.8
-15.8
-17.92
-20.25
-22.82
-25.57
-28.43
-31.21
-33.69
-35.53
-36.35
-35.8
-33.77
-30.34
-25.88
-20.88
-15.85
-11.21
-7.17
-3.78
-0.95
1.46
3.62
5.68
7.74
9.91
12.23
14.71
17.3
19.88
22.22
24.13
25.43
26.1
26.26
26.15
26.01
26.0
26.16
26.41
26.63
26.74
26.74
26.68
26.56
26.31
25.77
24.79
23.27
21.25
18.91
16.4
13.84
11.2
8.47
5.6
2.66
-0.23
-2.94
-5.35
-7.49
-9.49
-11.58
-14.01
-16.96
-20.39
-24.04
-27.39
-29.8
-30.72
-29.9
-27.42
-23.67
-19.18
-14.42
-9.69
-5.17
-0.94
2.93
6.35
9.3
11.78
13.84
15.57
17.01
18.15
18.98
19.5
19.77
19.91
20.01
20.12
20.22
20.27
20.23
20.16
20.1
20.1
20.1
19.94
19.47
18.59
17.36
15.96
14.59
13.39
12.36
11.38
10.28
8.91
7.23
5.26
3.11
0.91
-1.25
-3.35
-5.41
-7.51
-9.73
-12.04
-14.37
-16.56
-18.46
-19.98
-21.17
-22.12
-23.02
-24.04
-25.37
-27.13
-29.34
-31.84
-34.26
-36.07
-36.7
-35.73
-33.06
-28.94
-23.88
-18.49
-13.27
-8.5
-4.25
-0.47
2.91
5.92
8.6
10.95
13.06
14.99
16.78
18.4
19.75
20.74
21.31
21.5
21.41
21.14
20.73
20.2
19.56
18.88
18.27
17.88
17.83
18.09
18.57
19.05
19.3
19.19
18.69
17.84
16.73
15.39
13.8
11.93
9.81
7.55
5.39
3.57
2.21
1.28
0.55
-0.26
-1.38
-2.85
-4.57
-6.34
-7.97
-9.41
-10.71
-12.04
-13.61
-15.54
-17.94
-20.77
-23.88
-27.01
-29.74
-31.55
-31.93
-30.48
-27.12
-22.07
-15.82
-9.01
-2.25
4.04
9.63
14.48
18.65
22.24
25.36
28.14
30.7
33.17
35.59
37.93
40.01
41.58
42.37
42.2
40.96
38.7
35.61
31.93
27.95
23.9
19.97
16.22
12.64
9.2
5.84
2.58
-0.57
-3.59
-6.47
-9.26
-12.04
-14.83
-17.58
-20.16
-22.4
-24.15
-25.37
-26.15
-26.67
-27.09
-27.57
-28.17
-28.87
-29.61
-30.36
-31.09
-31.83
-32.69
-33.74
-35.02
-36.48
-38.01
-39.47
-40.79
-41.95
-42.85
-43.3
-42.92
-41.3
-38.17
-33.57
-27.88
-21.7
-15.61
-10.01
-5.01
-0.52
3.58
7.36
10.79
13.76
16.2
18.1
19.55
20.67
21.53
22.18
22.63
22.93
23.12
23.31
23.58
24.03
24.68
25.48
26.32
27.06
27.54
27.67
27.4
26.81
26.07
25.39
24.92
24.71
24.67
24.63
24.39
23.84
22.98
21.9
20.69
19.37
17.93
16.28
14.36
12.2
9.88
7.49
5.06
2.5
-0.33
-3.59
-7.38
-11.68
-16.29
-20.86
-24.9
-27.92
-29.5
-29.48
-27.95
-25.27
-21.95
-18.48
-15.23
-12.43
-10.1
-8.23
-6.73
-5.52
-4.51
-3.63
-2.8
-2.02
-1.26
-0.54
0.1
0.6
0.9
0.96
0.77
0.43
0.1
-0.04
0.14
0.63
1.31
2.01
2.58
2.93
3.07
3.11
3.19
3.47
4.03
4.84
5.8
6.77
7.56
8.04
8.12
7.75
6.93
5.7
4.1
2.2
0.07
-2.23
-4.62
-6.99
-9.23
-11.22
-12.92
-14.42
-15.92
-17.71
-20.01
-22.94
-26.3
-29.68
-32.5
-34.21
-34.38
-32.85
-29.68
-25.15
-19.68
-13.75
-7.83
-2.35
2.39
6.26
9.34
11.82
13.96
15.93
17.77
19.43
20.81
21.81
22.38
22.51
22.22
21.56
20.64
19.63
18.69
17.9
17.29
16.8
16.36
15.93
15.52
15.14
14.77
14.3
13.64
12.74
11.7
10.66
9.8
9.21
8.88
8.66
8.32
7.63
6.43
4.64
2.35
-0.25
-2.97
-5.63
-8.19
-10.71
-13.31
-16.06
-18.99
-22.04
-25.16
-28.34
-31.65
-35.14
-38.77
-42.38
-45.6
-48.01
-49.21
-48.92
-47.05
-43.68
-39.02
-33.37
-27.11
-20.63
-14.37
-8.66
-3.74
0.36
3.77
6.73
9.49
12.18
14.79
17.2
19.26
20.88
22.1
23.03
23.82
24.55
25.27
25.92
26.46
26.91
27.26
27.53
27.69
27.68
27.42
26.9
26.14
25.21
24.17
23.03
21.76
20.29
18.52
16.39
13.89
11.1
8.18
5.3
2.64
0.32
-1.67
-3.42
-5.08
-6.83
-8.79
-11.05
-13.65
-16.59
-19.85
-23.35
-26.89
-30.17
-32.72
-34.03
-33.7
-31.54
-27.64
-22.42
-16.51
-10.58
-5.19
-0.71
2.78
5.39
7.33
8.86
10.16
11.32
12.34
13.22
13.97
14.57
15.02
15.33
15.5
15.55
15.55
15.58
15.71
15.91
16.07
16.04
15.72
15.15
14.49
13.95
13.63
13.54
13.5
13.3
12.71
11.7
10.34
8.84
7.4
6.15
5.11
4.2
3.28
2.2
0.92
-0.53
-2.07
-3.58
-5.04
-6.48
-8.03
-9.8
-11.89
-14.34
-17.14
-20.27
-23.62
-26.95
-29.9
-32.0
-32.74
-31.77
-29.01
-24.69
-19.29
-13.42
-7.65
-2.41
2.06
5.72
8.67
11.12
13.22
15.1
16.72
18.02
18.89
19.33
19.4
19.25
19.01
18.74
18.41
17.95
17.36
16.66
16.0
15.47
15.13
14.95
14.81
14.59
14.2
13.6
12.82
11.92
10.99
10.1
9.27
8.46
7.57
6.47
5.1
3.49
1.79
0.2
-1.15
-2.25
-3.22
-4.26
-5.57
-7.21
-9.12
-11.12
-12.99
-14.58
-15.87
-16.98
-18.12
-19.53
-21.4
-23.79
-26.6
-29.54
-32.22
-34.16
-34.9
-34.18
-31.92
-28.33
-23.79
-18.8
-13.78
-9.1
-4.94
-1.39
1.55
3.93
5.85
7.46
8.89
10.24
11.52
12.69
13.67
14.43
14.99
15.43
15.81
16.13
16.37
16.45
16.34
16.06
15.63
15.07
14.37
13.52
12.54
11.52
10.55
9.73
9.05
8.43
7.74
6.88
5.79
4.49
3.07
1.64
0.31
-0.91
-2.02
-3.1
-4.22
-5.42
-6.71
-8.09
-9.56
-11.14
-12.85
-14.75
-16.87
-19.27
-21.95
-24.9
-27.98
-30.9
-33.26
-34.63
-34.68
-33.29
-30.58
-26.86
-22.55
-18.06
-13.78
-9.97
-6.8
-4.33
-2.53
-1.33
-0.6
-0.15
0.22
0.71
1.54
2.84
4.66
6.97
9.67
12.66
15.82
18.95
21.78
23.96
25.22
25.34
24.3
22.19
19.13
15.21
10.51
5.17
-0.51
-6.02
-10.77
-14.2
-15.97
-16.0
-14.47
-11.74
-8.21
-4.2
0.02
4.3
8.51
12.55
16.27
19.49
22.06
23.85
24.73
24.58
23.25
20.55
16.34
10.56
3.37
-4.8
-13.27
-21.28
-28.11
-33.28
-36.61
-38.29
-38.65
-38.11
-36.98
-35.43
-33.51
-31.23
-28.58
-25.61
-22.36
-18.87
-15.12
-11.07
-6.67
-1.96
2.97
7.93
12.74
17.15
21.01
24.13
26.38
27.67
28.0
27.48
26.38
25.07
23.97
23.36
23.35
23.82
24.47
24.96
24.95
24.24
22.73
20.46
17.55
14.21
10.64
6.96
3.11
-1.16
-6.18
-12.22
-19.27
-26.96
-34.63
-41.52
-47.0
-50.78
-52.89
-53.59
-53.18
-51.9
-49.82
-47.0
-43.56
-39.79
-36.19
-33.39
-31.91
-31.99
-33.33
-35.06
-35.98
-34.88
-31.0
-24.29
-15.47
-5.8
3.31
10.62
15.28
16.88
15.41
11.22
5.09
-1.88
-8.31
-12.81
-14.33
-12.42
-7.35
-0.09
8.05
15.69
21.73
25.53
27.0
26.43
24.37
21.36
17.91
14.37
11.04
8.2
6.07
4.8
4.38
4.61
5.03
5.06
3.99
1.23
-3.54
-10.17
-17.91
-25.51
-31.43
-34.23
-32.93
-27.19
-17.46
-4.78
9.42
23.57
36.16
45.95
52.06
54.15
52.39
47.45
40.36
32.3
24.38
17.5
12.18
8.5
6.16
4.61
3.19
1.37
-1.1
-4.11
-7.31
-10.18
-12.19
-12.92
-12.04
-9.34
-4.78
1.51
9.18
17.66
26.23
34.12
40.56
44.93
46.77
45.84
42.14
35.98
27.95
18.9
9.89
2.01
-3.85
-7.15
-7.79
-6.16
-3.0
0.73
4.06
6.17
6.58
5.39
3.18
0.97
-0.18
0.38
2.54
5.37
7.46
7.4
4.39
-1.57
-9.62
-18.3
-25.91
-30.85
-31.87
-28.33
-20.4
-9.03
4.21
17.44
28.96
37.57
42.71
44.47
43.3
39.8
34.53
27.95
20.44
12.48
4.68
-2.11
-6.98
-9.12
-8.16
-4.37
1.31
7.43
12.38
14.85
14.23
10.71
5.33
-0.34
-4.68
-6.44
-5.19
-1.41
3.6
8.18
10.79
10.46
7.07
1.29
-5.61
-12.17
-17.07
-19.56
-19.52
-17.5
-14.48
-11.56
-9.65
-9.16
-9.93
-11.31
-12.36
-12.15
-10.06
-5.98
-0.34
5.98
11.98
16.79
19.94
21.38
21.45
20.67
19.55
18.48
17.67
17.22
17.16
17.46
18.11
19.07
20.29
21.66
23.09
24.43
25.55
26.29
26.53
26.22
25.41
24.2
22.83
21.49
20.31
19.2
17.97
16.32
14.08
11.25
7.97
4.48
0.92
-2.64
-6.15
-9.5
-12.46
-14.82
-16.47
-17.56
-18.37
-19.21
-20.16
-21.02
-21.37
-20.89
-19.49
-17.38
-14.87
-12.18
-9.3
-6.09
-2.4
1.78
6.28
10.88
15.44
19.88
24.15
28.0
30.97
32.34
31.46
27.95
22.0
14.47
6.71
0.26
-3.55
-4.0
-1.22
3.86
9.72
14.66
17.25
16.68
12.87
6.49
-1.31
-9.3
-16.43
-22.12
-26.24
-28.97
-30.64
-31.57
-31.95
-31.92
-31.5
-30.64
-29.24
-27.18
-24.4
-21.03
-17.31
-13.59
-10.17
-7.19
-4.62
-2.29
-0.01
2.33
4.72
7.06
9.28
11.27
13.02
14.5
15.71
16.58
17.08
17.14
16.76
16.01
15.02
13.94
12.92
12.08
11.48
11.14
11.02
11.09
11.29
11.53
11.68
11.6
11.17
10.33
9.2
8.0
7.0
6.38
6.16
6.22
6.36
6.5
6.69
7.13
8.0
9.32
10.85
12.2
12.91
12.7
11.58
9.78
7.66
5.58
3.73
2.18
0.92
-0.07
-0.78
-1.2
-1.36
-1.38
-1.45
-1.76
-2.4
-3.32
-4.35
-5.28
-5.89
-6.08
-5.84
-5.23
-4.37
-3.42
-2.62
-2.27
-2.69
-4.16
-6.76
-10.33
-14.48
-18.73
-22.69
-26.19
-29.32
-32.29
-35.32
-38.45
-41.49
-44.1
-45.93
-46.76
-46.54
-45.42
-43.6
-41.32
-38.72
-35.9
-32.92
-29.85
-26.75
-23.68
-20.73
-17.97
-15.49
-13.37
-11.66
-10.37
-9.49
-8.96
-8.71
-8.72
-9.01
-9.63
-10.57
-11.77
-13.09
-14.36
-15.52
-16.67
-18.06
-19.99
-22.62
-25.71
-28.64
-30.52
-30.44
-27.8
-22.45
-14.65
-4.92
6.11
17.78
29.34
39.98
48.81
55.08
58.41
58.91
57.18
54.06
50.31
46.4
42.4
38.19
33.6
28.61
23.42
18.36
13.79
9.93
6.81
4.27
2.07
-0.07
-2.4
-5.05
-8.01
-11.15
-14.23
-16.97
-19.17
-20.72
-21.66
-22.03
-21.88
-21.15
-19.79
-17.76
-15.16
-12.19
-9.16
-6.43
-4.28
-2.91
-2.34
-2.45
-2.96
-3.57
-3.99
-4.05
-3.72
-3.1
-2.36
-1.72
-1.39
-1.51
-2.1
-3.03
-4.02
-4.76
-5.07
-4.97
-4.66
-4.39
-4.28
-4.28
-4.19
-3.83
-3.18
-2.43
-1.82
-1.58
-1.74
-2.19
-2.71
-3.12
-3.37
-3.49
-3.59
-3.78
-4.13
-4.66
-5.29
-5.89
-6.32
-6.52
-6.48
-6.28
-6.05
-5.91
-5.91
-6.0
-6.08
-5.99
-5.61
-4.85
-3.62
-1.89
0.36
3.05
6.0
8.94
11.57
13.63
15.0
15.64
15.57
14.79
13.31
11.19
8.58
5.75
3.03
0.7
-1.12
-2.4
-3.22
-3.67
-3.8
-3.71
-3.56
-3.54
-3.81
-4.43
-5.26
-6.05
-6.53
-6.42
-5.55
-3.85
-1.32
1.84
5.29
8.48
10.87
12.1
12.06
11.02
9.42
7.76
6.35
5.33
4.66
4.23
3.97
3.84
3.78
3.73
3.55
3.12
2.38
1.34
0.11
-1.13
-2.16
-2.81
-2.97
-2.57
-1.65
-0.23
1.64
3.93
6.5
9.14
11.55
13.36
14.37
14.54
14.15
13.67
13.64
14.44
16.15
18.54
21.11
23.27
24.48
24.38
22.9
20.23
16.75
12.95
9.26
5.93
3.03
0.42
-2.05
-4.49
-6.88
-9.09
-10.97
-12.48
-13.68
-14.67
-15.52
-16.2
-16.61
-16.64
-16.33
-15.85
-15.49
-15.48
-15.92
-16.71
-17.62
-18.36
-18.72
-18.58
-17.96
-16.97
-15.76
-14.46
-13.21
-12.08
-11.11
-10.3
-9.63
-9.13
-8.83
-8.79
-9.07
-9.66
-10.46
-11.29
-11.99
-12.41
-12.47
-12.18
-11.62
-10.91
-10.19
-9.59
-9.2
-9.04
-9.04
-9.05
-8.92
-8.54
-7.84
-6.86
-5.68
-4.34
-2.9
-1.39
0.1
1.46
2.49
2.99
2.81
1.95
0.58
-0.97
-2.4
-3.47
-4.16
-4.6
-4.98
-5.42
-5.9
-6.29
-6.47
-6.39
-6.11
-5.77
-5.44
-5.07
-4.55
-3.69
-2.4
-0.68
1.36
3.54
5.62
7.33
8.4
8.57
7.75
6.02
3.67
1.1
-1.29
-3.28
-4.82
-6.03
-7.02
-7.83
-8.43
-8.69
-8.55
-8.03
-7.24
-6.3
-5.28
-4.21
-3.06
-1.83
-0.52
0.8
2.07
3.25
4.35
5.42
6.5
7.62
8.81
9.97
10.97
11.69
12.04
12.08
11.98
11.98
12.3
12.99
13.94
14.95
15.8
16.32
16.42
16.04
15.12
13.63
11.59
9.09
6.32
3.43
0.52
-2.36
-5.22
-8.06
-10.83
-13.41
-15.69
-17.53
-18.79
-19.28
-18.85
-17.44
-15.18
-12.45
-9.78
-7.67
-6.45
-6.14
-6.51
-7.26
-8.12
-9.0
-9.9
-10.85
-11.73
-12.33
-12.41
-11.83
-10.65
-9.09
-7.42
-5.83
-4.37
-2.99
-1.6
-0.17
1.21
2.48
3.57
4.52
5.46
6.49
7.67
8.96
10.25
11.45
12.52
13.56
14.72
16.15
17.9
19.87
21.87
23.68
25.15
26.28
27.15
27.86
28.42
28.77
28.8
28.43
27.64
26.46
24.91
23.0
20.68
18.0
15.14
12.44
10.31
9.07
8.84
9.44
10.51
11.65
12.55
13.04
12.98
12.21
10.53
7.73
3.77
-1.11
-6.44
-11.66
-16.27
-20.02
-22.88
-24.92
-26.26
-27.03
-27.3
-27.19
-26.82
-26.26
-25.46
-24.28
-22.58
-20.33
-17.7
-14.95
-12.35
-10.03
-8.01
-6.24
-4.66
-3.32
-2.29
-1.67
-1.47
-1.58
-1.83
-1.98
-1.82
-1.16
0.06
1.77
3.77
5.79
7.54
8.85
9.68
10.17
10.51
10.9
11.4
11.94
12.32
12.29
11.6
10.12
7.85
4.95
1.76
-1.24
-3.52
-4.57
-4.11
-2.18
0.8
4.1
6.86
8.29
7.88
5.49
1.4
-3.76
-9.16
-13.93
-17.38
-19.09
-18.97
-17.22
-14.2
-10.31
-5.96
-1.55
2.51
5.81
8.09
9.28
9.59
9.46
9.48
10.1
11.56
13.79
16.4
18.91
20.93
22.28
23.01
23.31
23.34
23.19
22.81
22.12
21.11
19.86
18.52
17.24
16.11
15.2
14.58
14.36
14.67
15.49
16.6
17.55
17.75
16.75
14.43
11.08
7.28
3.71
0.87
-1.02
-1.99
-2.28
-2.1
-1.7
-1.25
-0.92
-0.84
-1.03
-1.41
-1.78
-1.95
-1.84
-1.49
-1.08
-0.81
-0.77
-0.96
-1.29
-1.68
-2.06
-2.37
-2.56
-2.56
-2.3
-1.77
-0.98
0.03
1.21
2.5
3.83
5.07
6.03
6.55
6.48
5.84
4.77
3.53
2.36
1.45
0.9
0.72
0.85
1.16
1.52
1.76
1.77
1.5
0.98
0.32
-0.39
-1.1
-1.8
-2.56
-3.43
-4.42
-5.51
-6.65
-7.79
-8.88
-9.87
-10.67
-11.13
-11.1
-10.47
-9.29
-7.78
-6.24
-4.96
-4.11
-3.67
-3.51
-3.43
-3.36
-3.29
-3.27
-3.28
-3.22
-2.91
-2.24
-1.24
-0.09
0.95
1.68
2.06
2.19
2.23
2.32
2.5
2.76
3.02
3.21
3.25
3.05
2.56
1.73
0.63
-0.6
-1.75
-2.64
-3.13
-3.23
-3.02
-2.65
-2.27
-2.02
-2.01
-2.35
-3.05
-4.07
-5.25
-6.41
-7.4
-8.18
-8.78
-9.32
-9.87
-10.5
-11.14
-11.74
-12.2
-12.41
-12.26
-11.69
-10.66
-9.25
-7.65
-6.08
-4.79
-3.87
-3.27
-2.8
-2.24
-1.46
-0.43
0.71
1.79
2.67
3.27
3.61
3.79
3.88
3.96
4.03
4.11
4.18
4.25
4.3
4.32
4.25
4.07
3.77
3.33
2.83
2.36
2.02
1.87
1.93
2.07
2.14
1.95
1.4
0.57
-0.34
-1.05
-1.4
-1.42
-1.42
-1.8
-2.93
-4.91
-7.54
-10.29
-12.57
-13.94
-14.19
-13.47
-12.1
-10.51
-9.06
-8.04
-7.58
-7.66
-8.08
-8.43
-8.27
-7.24
-5.29
-2.69
-0.06
1.92
2.77
2.34
0.9
-1.03
-2.81
-3.94
-4.1
-3.26
-1.64
0.35
2.19
3.39
3.65
2.98
1.67
0.24
-0.82
-1.18
-0.82
0.09
1.2
2.24
2.98
3.35
3.32
2.94
2.25
1.33
0.26
-0.89
-2.04
-3.15
-4.14
-4.9
-5.24
-5.02
-4.13
-2.52
-0.27
2.45
5.42
8.35
10.95
12.95
14.23
14.75
14.61
13.96
12.98
11.88
10.85
10.09
9.77
9.94
10.55
11.46
12.46
13.38
14.14
14.67
14.91
14.76
14.08
12.8
10.97
8.81
6.62
4.65
3.03
1.68
0.44
-0.85
-2.3
-3.85
-5.4
-6.81
-7.99
-8.9
-9.49
-9.77
-9.77
-9.55
-9.28
-9.07
-9.04
-9.18
-9.38
-9.45
-9.22
-8.57
-7.52
-6.17
-4.74
-3.44
-2.45
-1.82
-1.5
-1.46
-1.72
-2.4
-3.61
-5.37
-7.53
-9.75
-11.68
-13.1
-14.0
-14.55
-14.93
-15.23
-15.36
-15.16
-14.55
-13.52
-12.26
-10.97
-9.75
-8.57
-7.3
-5.79
-4.03
-2.11
-0.22
1.45
2.83
3.93
4.84
5.59
6.19
6.56
6.65
6.5
6.28
6.2
6.44
7.03
7.82
8.61
9.2
9.51
9.55
9.44
9.27
9.13
9.06
9.13
9.37
9.81
10.39
10.96
11.27
11.17
10.59
9.66
8.61
7.74
7.21
7.04
7.07
7.0
6.48
5.25
3.2
0.42
-2.83
-6.14
-9.15
-11.51
-13.02
-13.55
-13.11
-11.75
-9.63
-7.01
-4.26
-1.75
0.17
1.4
1.99
2.23
2.44
2.83
3.51
4.4
5.36
6.26
7.06
7.8
8.56
9.39
10.24
11.05
11.69
12.13
12.37
12.49
12.61
12.79
13.07
13.37
13.53
13.31
12.49
10.9
8.55
5.59
2.3
-1.01
-4.07
-6.73
-8.96
-10.77
-12.18
-13.18
-13.75
-13.92
-13.76
-13.43
-13.07
-12.8
-12.67
-12.66
-12.76
-12.91
-13.09
-13.22
-13.2
-12.89
-12.19
-11.06
-9.57
-7.84
-6.0
-4.11
-2.15
-0.09
2.08
4.22
6.12
7.56
8.4
8.66
8.49
8.06
7.53
6.94
6.29
5.57
4.84
4.24
3.91
3.95
4.32
4.87
5.41
5.77
5.9
5.79
5.46
4.92
4.19
3.3
2.29
1.23
0.12
-1.06
-2.34
-3.75
-5.22
-6.61
-7.83
-8.82
-9.62
-10.34
-11.06
-11.79
-12.46
-12.99
-13.31
-13.38
-13.2
-12.74
-11.99
-11.03
-10.0
-9.13
-8.62
-8.53
-8.74
-8.98
-8.96
-8.51
-7.65
-6.48
-5.17
-3.82
-2.43
-0.99
0.5
1.96
3.3
4.41
5.29
6.01
6.67
7.32
7.93
8.38
8.58
8.54
8.34
8.16
8.12
8.27
8.52
8.75
8.83
8.74
8.52
8.21
7.86
7.45
6.96
6.36
5.68
4.96
4.27
3.63
3.05
2.53
2.06
1.58
1.08
0.53
-0.06
-0.64
-1.18
-1.66
-2.12
-2.6
-3.16
-3.86
-4.66
-5.49
-6.23
-6.78
-7.08
-7.19
-7.21
-7.29
-7.49
-7.79
-8.1
-8.31
-8.36
-8.27
-8.06
-7.74
-7.22
-6.35
-5.06
-3.42
-1.59
0.15
1.6
2.69
3.46
4.01
4.45
4.86
5.29
5.79
6.37
7.03
7.67
8.17
8.43
8.4
8.11
7.67
7.21
6.88
6.74
6.85
7.15
7.54
7.85
7.92
7.64
7.02
6.17
5.28
4.47
3.79
3.2
2.6
1.91
1.12
0.25
-0.65
-1.52
-2.37
-3.15
-3.83
-4.36
-4.75
-5.07
-5.48
-6.13
-7.13
-8.42
-9.85
-11.16
-12.11
-12.54
-12.38
-11.68
-10.48
-8.85
-6.89
-4.73
-2.57
-0.64
0.92
2.08
2.94
3.66
4.35
4.99
5.46
5.56
5.22
4.5
3.58
2.63
1.76
0.91
0.02
-0.93
-1.84
-2.49
-2.71
-2.45
-1.84
-1.15
-0.64
-0.44
-0.54
-0.8
-1.04
-1.11
-0.93
-0.47
0.3
1.35
