26.13
26.99
27.73
28.38
28.93
29.36
29.62
29.65
29.41
28.91
28.21
27.37
26.47
25.56
24.67
23.78
22.85
21.83
20.68
19.38
17.91
16.3
14.61
12.86
11.14
9.51
7.99
6.53
4.96
3.09
0.69
-2.34
-5.91
-9.8
-13.72
-17.38
-20.65
-23.59
-26.41
-29.36
-32.74
-36.71
-41.3
-46.32
-51.32
-55.68
-58.66
-59.59
-58.06
-54.08
-48.07
-40.73
-32.91
-25.31
-18.34
-12.1
-6.48
-1.29
3.62
8.28
12.65
16.61
20.09
23.04
25.48
27.42
28.91
29.98
30.68
31.1
31.31
31.43
31.55
31.75
32.05
32.43
32.83
33.15
33.29
33.17
32.76
32.12
31.3
30.35
29.29
28.08
26.68
25.08
23.36
21.64
20.04
18.59
17.24
15.84
14.18
12.12
9.63
6.84
4.0
1.37
-0.91
-2.89
-4.81
-6.97
-9.59
-12.71
-16.16
-19.65
-22.91
-25.81
-28.41
-30.92
-33.65
-36.86
-40.73
-45.19
-49.83
-53.95
-56.69
-57.33
-55.47
-51.22
-45.13
-37.94
-30.42
-23.13
-16.41
-10.38
-5.06
-0.39
3.73
7.42
10.85
14.1
17.18
19.99
22.4
24.26
25.53
26.31
26.78
27.2
27.75
28.53
29.45
30.35
31.07
31.47
31.51
31.21
30.62
29.75
28.64
27.28
25.65
23.77
21.64
19.31
16.84
14.34
11.88
9.48
7.07
4.51
1.71
-1.29
-4.37
-7.3
-9.93
-12.26
-14.45
-16.79
-19.55
-22.92
-26.96
-31.53
-36.32
-40.79
-44.3
-46.15
-45.81
-43.09
-38.2
-31.77
-24.61
-17.49
-10.96
-5.21
-0.21
4.21
8.24
11.97
15.46
18.66
21.51
23.94
25.88
27.29
28.18
28.61
28.7
28.61
28.53
28.61
28.93
29.5
30.2
30.8
31.04
30.7
29.72
28.21
26.4
24.58
22.9
21.38
19.88
18.23
16.3
14.09
11.7
9.26
6.85
4.49
2.12
-0.33
-2.97
-5.82
-8.88
-12.07
-15.25
-18.29
-21.1
-23.7
-26.18
-28.73
-31.56
-34.84
-38.69
-43.1
-47.88
-52.56
-56.44
-58.7
-58.66
-55.97
-50.85
-44.0
-36.38
-28.89
-22.13
-16.26
-11.11
-6.31
-1.56
3.27
8.11
12.74
16.86
20.25
22.8
24.58
25.77
26.57
27.21
27.85
28.56
29.39
30.3
31.26
32.19
33.02
33.65
33.99
34.02
33.71
33.09
32.19
31.07
29.74
28.23
26.52
24.6
22.45
20.09
17.55
14.89
12.21
9.55
6.97
4.5
2.13
-0.16
-2.43
-4.75
-7.23
-9.96
-12.99
-16.27
-19.65
-22.96
-26.06
-28.93
-31.69
-34.57
-37.88
-41.85
-46.5
-51.56
-56.39
-60.14
-61.97
-61.29
-57.91
-52.18
-44.78
-36.55
-28.29
-20.57
-13.73
-7.85
-2.84
1.51
5.44
9.21
12.95
16.67
20.22
23.36
25.85
27.53
28.39
28.57
28.38
28.15
28.17
28.56
29.27
30.1
30.79
31.16
31.12
30.76
30.19
29.51
28.77
27.89
26.77
25.3
23.48
21.37
19.08
16.75
14.41
12.01
9.42
6.53
3.31
-0.19
-3.75
-7.16
-10.26
-13.01
-15.52
-18.08
-20.99
-24.54
-28.86
-33.86
-39.15
-44.07
-47.83
-49.67
-49.11
-46.05
-40.8
-33.96
-26.28
-18.47
-11.04
-4.32
1.57
6.69
11.18
15.24
18.99
22.43
25.42
27.76
29.28
30.01
30.17
30.07
30.01
30.15
30.49
30.92
31.3
31.56
31.65
31.55
31.21
30.59
29.69
28.52
27.15
25.6
23.82
21.72
19.2
16.27
13.01
9.52
5.91
2.22
-1.52
-5.24
-8.83
-12.14
-15.11
-17.86
-20.67
-23.92
-27.84
-32.45
-37.42
-42.2
-46.09
-48.43
-48.72
-46.72
-42.54
-36.58
-29.5
-22.06
-14.9
-8.41
-2.69
2.43
7.19
11.75
16.12
20.17
23.69
26.53
28.61
29.96
30.72
31.13
31.44
31.87
32.58
33.58
34.77
35.94
36.88
37.39
37.41
36.92
35.99
34.73
33.23
31.55
29.71
27.74
25.68
23.63
21.63
19.73
17.88
15.99
13.96
11.74
9.35
6.89
4.44
2.06
-0.25
-2.59
-5.03
-7.61
-10.32
-13.09
-15.9
-18.71
-21.52
-24.35
-27.24
-30.23
-33.41
-36.91
-40.85
-45.3
-50.1
-54.86
-58.86
-61.33
-61.54
-59.12
-54.21
-47.4
-39.55
-31.51
-23.9
-17.0
-10.83
-5.26
-0.12
4.71
9.34
13.8
18.09
22.07
25.56
28.35
30.28
31.39
31.88
32.02
32.09
32.26
32.58
32.98
33.37
33.62
33.65
33.33
32.58
31.34
29.65
27.69
25.72
24.01
22.73
21.86
21.2
20.44
19.36
17.9
16.22
14.54
13.03
11.68
10.34
8.84
7.11
5.22
3.3
1.43
-0.39
-2.29
-4.41
-6.84
-9.54
-12.41
-15.35
-18.31
-21.32
-24.38
-27.55
-30.88
-34.47
-38.45
-42.87
-47.61
-52.28
-56.22
-58.68
-59.05
-57.02
-52.74
-46.72
-39.69
-32.41
-25.46
-19.2
-13.76
-9.06
-4.87
-0.97
2.83
6.56
10.09
13.24
15.82
17.78
19.18
20.17
20.9
21.44
21.86
22.23
22.66
23.28
24.19
25.32
26.44
27.26
27.5
27.07
26.06
24.66
23.07
21.42
19.73
18.0
16.21
14.37
12.5
10.61
8.66
6.64
4.49
2.21
-0.24
-2.87
-5.7
-8.66
-11.65
-14.49
-17.05
-19.27
-21.25
-23.21
-25.41
-28.11
-31.45
-35.39
-39.67
-43.81
-47.17
-49.09
-49.06
-46.87
-42.67
-36.91
-30.23
-23.28
-16.64
-10.66
-5.54
-1.25
2.34
5.48
8.43
11.36
14.31
17.19
19.81
21.97
23.54
24.51
25.01
25.22
25.35
25.55
25.92
26.42
26.98
27.42
27.59
27.33
26.55
25.29
23.65
21.84
20.09
18.53
17.21
16.04
14.88
13.6
12.12
10.45
8.64
6.78
4.94
3.2
1.59
0.09
-1.37
-2.96
-4.84
-7.09
-9.67
-12.41
-15.12
-17.65
-19.99
-22.25
-24.57
-27.11
-30.0
-33.35
-37.23
-41.59
-46.19
-50.53
-53.9
-55.55
-54.93
-51.87
-46.68
-40.01
-32.71
-25.57
-19.13
-13.6
-8.9
-4.73
-0.76
3.24
7.32
11.32
14.99
18.06
20.39
21.95
22.83
23.19
23.21
23.09
22.97
22.99
23.24
23.72
24.36
25.06
25.67
26.1
26.31
26.31
26.1
25.73
25.17
24.4
23.45
22.37
21.27
20.23
19.26
18.23
16.99
15.38
13.36
11.03
8.57
6.15
3.86
1.68
-0.49
-2.71
-5.02
-7.4
-9.85
-12.43
-15.2
-18.24
-21.5
-24.86
-28.13
-31.21
-34.14
-37.11
-40.36
-44.01
-47.89
-51.51
-54.19
-55.23
-54.14
-50.88
-45.78
-39.54
-32.89
-26.44
-20.55
-15.32
-10.63
-6.32
-2.24
1.72
5.57
9.27
12.77
15.99
18.83
21.23
23.1
24.43
25.23
25.57
25.56
25.33
25.04
24.8
24.68
24.69
24.77
24.8
24.67
24.31
23.7
22.92
22.07
21.27
20.52
19.76
18.83
17.56
15.86
13.74
11.33
8.8
6.27
3.83
1.5
-0.75
-2.97
-5.18
-7.38
-9.55
-11.63
-13.58
-15.44
-17.28
-19.28
-21.67
-24.68
-28.42
-32.77
-37.37
-41.56
-44.55
-45.62
-44.41
-40.99
-35.88
-29.89
-23.76
-18.06
-13.0
-8.57
-4.6
-0.91
2.64
6.16
9.66
13.06
16.19
18.88
20.97
22.46
23.4
23.95
24.25
24.43
24.58
24.79
25.13
25.6
26.11
26.5
26.58
26.3
25.7
24.9
24.0
23.03
21.97
20.77
19.44
18.0
16.52
14.99
13.43
11.8
10.14
8.52
7.04
5.73
4.56
3.4
2.13
0.66
-1.01
-2.83
-4.78
-6.83
-9.04
-11.46
-14.06
-16.74
-19.34
-21.74
-23.96
-26.19
-28.74
-31.91
-35.79
-40.19
-44.6
-48.33
-50.68
-51.15
-49.54
-45.98
-40.85
-34.74
-28.22
-21.81
-15.88
-10.65
-6.14
-2.24
1.26
4.61
8.0
11.47
14.93
18.19
21.03
23.31
24.96
25.99
26.5
26.63
26.55
26.43
26.43
26.6
26.87
27.07
27.02
26.59
25.81
24.83
23.84
22.93
22.08
21.16
20.06
18.71
17.19
15.63
14.14
12.76
11.43
10.04
8.53
6.89
5.18
3.46
1.77
0.08
-1.65
-3.47
-5.44
-7.55
-9.78
-12.07
-14.33
-16.46
-18.47
-20.44
-22.53
-24.97
-27.94
-31.49
-35.54
-39.85
-44.0
-47.49
-49.79
-50.39
-48.96
-45.49
-40.28
-33.94
-27.18
-20.71
-14.95
-10.08
-5.99
-2.45
0.78
3.86
6.83
9.66
12.24
14.46
16.3
17.74
18.83
19.64
20.23
20.67
21.05
21.45
21.92
22.43
22.94
23.32
23.45
23.25
22.74
22.0
21.14
20.29
19.47
18.62
17.6
16.26
14.53
12.49
10.31
8.13
6.07
4.13
2.21
0.18
-2.02
-4.42
-6.97
-9.62
-12.36
-15.1
-17.79
-20.42
-23.03
-25.79
-28.9
-32.52
-36.57
-40.72
-44.32
-46.62
-46.93
-44.9
-40.65
-34.69
-27.8
-20.8
-14.3
-8.61
-3.79
0.37
4.08
7.51
10.76
13.77
16.5
18.83
20.72
22.11
23.03
23.52
23.71
23.73
23.76
23.91
24.26
24.79
25.37
25.84
26.09
26.04
25.71
25.18
24.53
23.79
22.97
22.03
20.96
19.78
18.51
17.17
15.76
14.25
12.66
11.01
9.41
7.89
6.44
4.94
3.22
1.2
-1.08
-3.49
-5.84
-8.06
-10.2
-12.42
-14.81
-17.34
-19.89
-22.35
-24.75
-27.33
-30.44
-34.37
-39.17
-44.57
-50.03
-54.8
-58.13
-59.38
-58.23
-54.73
-49.3
-42.64
-35.49
-28.43
-21.78
-15.63
-9.91
-4.54
0.47
5.12
9.36
13.2
16.65
19.71
22.34
24.46
26.03
27.06
27.65
27.92
28.03
28.12
28.32
28.67
29.15
29.63
29.96
30.0
29.67
29.0
28.08
27.02
25.91
24.79
23.71
22.66
21.66
20.68
19.67
18.57
17.34
15.96
14.45
12.84
11.19
9.49
7.75
5.95
4.08
2.15
0.2
-1.71
-3.57
-5.44
-7.44
-9.74
-12.42
-15.44
-18.61
-21.68
-24.45
-26.94
-29.38
-32.16
-35.63
-39.98
-45.0
-50.16
-54.65
-57.64
-58.46
-56.77
-52.68
-46.67
-39.43
-31.74
-24.21
-17.28
-11.12
-5.73
-0.94
3.43
7.53
11.44
15.16
18.61
21.64
24.12
25.96
27.16
27.79
28.0
28.01
28.03
28.25
28.72
29.38
30.02
30.45
30.52
30.24
29.74
29.15
28.6
28.06
27.47
26.77
25.92
24.93
23.81
22.54
21.11
19.52
17.84
16.16
14.57
13.12
11.8
10.57
9.36
8.09
6.7
5.16
3.42
1.51
-0.58
-2.83
-5.32
-8.1
-11.2
-14.52
-17.82
-20.86
-23.47
-25.72
-27.89
-30.36
-33.47
-37.26
-41.51
-45.62
-48.87
-50.5
-50.0
-47.14
-42.13
-35.55
-28.21
-20.98
-14.62
-9.53
-5.79
-3.13
-1.1
0.72
2.61
4.64
6.7
8.62
10.25
11.53
12.49
13.23
13.86
14.48
15.12
15.77
16.42
17.04
17.64
18.23
18.77
19.23
19.54
19.66
19.56
19.28
18.8
18.1
17.17
15.94
14.44
12.76
11.02
9.3
7.65
6.04
4.33
2.42
0.22
-2.31
-5.05
-7.89
-10.65
-13.24
-15.66
-18.07
-20.73
-23.92
-27.79
-32.23
-36.83
-40.88
-43.61
-44.36
-42.84
-39.2
-33.93
-27.78
-21.44
-15.41
-9.96
-5.12
-0.81
3.09
6.7
10.1
13.32
16.33
19.02
21.26
22.96
24.1
24.76
25.07
25.22
25.36
25.62
26.07
26.71
27.49
28.27
28.86
29.03
28.65
27.67
26.21
24.54
22.94
21.63
20.62
19.75
18.69
17.16
15.03
12.47
9.84
7.56
5.93
4.93
4.24
3.33
1.66
-1.0
-4.52
-8.41
-12.03
-14.94
-17.03
-18.65
-20.37
-22.74
-26.08
-30.28
-34.89
-39.15
-42.16
-43.05
-41.31
-37.01
-31.15
-25.56
-22.48
-23.81
-30.23
-40.82
-53.07
-63.69
-69.68
-69.33
-62.73
-51.53
-38.26
-25.32
-14.39
-6.02
0.05
4.48
7.96
10.92
13.61
16.21
18.92
21.97
25.43
29.13
32.69
35.59
37.39
37.93
37.37
36.11
34.7
33.57
32.92
32.69
32.63
32.39
31.73
30.51
28.84
26.9
24.92
22.99
21.12
19.16
16.92
14.23
11.02
7.3
3.18
-1.15
-5.47
-9.57
-13.34
-16.8
-20.11
-23.58
-27.51
-32.08
-37.26
-42.76
-48.02
-52.31
-54.92
-55.32
-53.32
-49.15
-43.43
-37.0
-30.68
-25.03
-20.32
-16.5
-13.35
-10.57
-7.92
-5.22
-2.36
0.65
3.73
6.79
9.73
12.57
15.42
18.47
21.84
25.53
29.37
33.09
36.4
39.12
41.16
42.54
43.35
43.67
43.59
43.24
42.7
42.03
41.24
40.27
39.04
37.52
35.7
33.6
31.26
28.65
25.72
22.4
18.6
14.33
9.62
4.62
-0.51
-5.6
-10.52
-15.2
-19.7
-24.09
-28.45
-32.79
-36.99
-40.73
-43.6
-45.14
-44.96
-42.86
-38.9
-33.47
-27.17
-20.67
-14.56
-9.17
-4.51
-0.39
3.47
7.22
10.8
14.02
16.63
18.52
19.77
20.65
21.41
22.25
23.19
24.17
25.07
25.87
26.61
27.35
28.07
28.64
28.86
28.52
27.55
26.04
24.23
22.41
20.75
19.3
17.92
16.45
14.83
13.07
11.26
9.43
7.45
5.14
2.33
-1.04
-4.8
-8.69
-12.48
-16.08
-19.52
-22.88
-26.15
-29.25
-32.03
-34.34
-36.26
-37.98
-39.83
-41.99
-44.36
-46.44
-47.43
-46.45
-42.91
-36.72
-28.37
-18.76
-8.87
0.48
8.76
15.67
20.98
24.51
26.13
25.87
24.13
21.51
18.71
16.23
14.28
12.76
11.45
10.29
9.43
9.31
10.36
12.83
16.6
21.15
25.81
29.9
33.02
35.06
36.11
36.32
35.84
34.72
33.04
30.93
28.6
26.32
24.27
22.56
21.2
20.08
19.12
18.18
17.14
15.92
14.49
12.91
11.3
9.69
8.05
6.29
4.26
1.89
-0.79
-3.67
-6.6
-9.47
-12.26
-15.02
-17.84
-20.84
-24.12
-27.77
-31.84
-36.26
-40.78
-44.99
-48.32
-50.16
-50.03
-47.68
-43.3
-37.43
-30.84
-24.31
-18.36
-13.14
-8.51
-4.23
-0.14
3.75
7.33
10.5
13.22
15.57
17.64
19.48
21.07
22.33
23.22
23.78
24.13
24.42
24.75
25.14
25.57
25.87
25.9
25.55
24.81
23.79
22.65
21.57
20.64
19.84
19.09
18.29
17.41
16.41
15.33
14.18
12.97
11.76
10.61
9.58
8.68
7.8
6.76
5.33
3.38
0.86
-2.11
-5.31
-8.49
-11.44
-14.05
-16.28
-18.23
-20.0
-21.74
-23.53
-25.35
-27.1
-28.66
-29.92
-30.92
-31.73
-32.59
-33.7
-35.24
-37.29
-39.78
-42.5
-45.05
-46.92
-47.55
-46.46
-43.44
-38.64
-32.58
-25.98
-19.55
-13.78
-8.84
-4.62
-0.86
2.68
6.14
9.57
12.9
16.0
18.68
20.71
21.95
22.34
22.05
21.41
20.84
20.7
21.13
22.02
23.06
23.85
24.04
23.52
22.44
21.1
19.88
19.05
18.68
18.61
18.54
18.14
17.2
15.67
13.65
11.33
8.97
6.8
4.94
3.41
2.09
0.71
-0.97
-3.15
-5.87
-8.95
-12.12
-15.03
-17.43
-19.23
-20.56
-21.73
-23.15
-25.19
-28.03
-31.52
-35.18
-38.3
-40.17
-40.24
-38.34
-34.68
-29.74
-24.12
-18.37
-12.93
-8.08
-3.94
-0.49
2.44
5.07
7.6
10.1
12.51
14.66
16.38
17.62
18.44
19.03
19.54
20.12
20.81
21.63
22.57
23.62
24.7
25.68
26.37
26.64
26.4
25.64
24.47
23.01
21.42
19.77
18.16
16.63
15.21
13.93
12.76
11.61
10.35
8.91
7.29
5.56
3.85
2.22
0.66
-0.93
-2.62
-4.45
-6.38
-8.31
-10.18
-12.01
-13.87
-15.83
-17.91
-20.06
-22.24
-24.47
-26.87
-29.62
-32.84
-36.52
-40.47
-44.29
-47.46
-49.45
-49.81
-48.32
-45.02
-40.21
-34.43
-28.25
-22.21
-16.69
-11.76
-7.36
-3.26
0.71
4.65
8.5
12.16
15.45
18.24
20.46
22.09
23.21
23.92
24.41
24.86
25.4
26.1
26.92
27.71
28.32
28.57
28.38
27.71
26.64
25.32
23.96
22.76
21.84
21.2
20.71
20.16
19.34
18.15
16.58
14.75
12.79
10.82
8.9
7.05
5.23
3.41
1.55
-0.36
-2.28
-4.09
-5.67
-6.94
-7.94
-8.86
-9.95
-11.45
-13.43
-15.82
-18.39
-20.91
-23.29
-25.58
-27.96
-30.69
-33.93
-37.75
-41.99
-46.27
-50.02
-52.52
-53.12
-51.43
-47.45
-41.67
-34.81
-27.73
-21.06
-15.14
-9.97
-5.35
-1.06
3.03
6.97
10.67
14.05
17.07
19.67
21.82
23.44
24.46
24.89
24.86
24.58
24.32
24.27
24.48
24.86
25.2
25.34
25.19
24.81
24.31
23.78
23.24
22.64
21.88
20.92
19.79
18.54
17.23
15.86
14.35
12.62
10.66
8.51
6.37
4.38
2.6
0.94
-0.79
-2.8
-5.18
-7.84
-10.58
-13.24
-15.69
-17.97
-20.2
-22.57
-25.22
-28.29
-31.83
-35.75
-39.78
-43.43
-46.03
-46.95
-45.74
-42.34
-37.09
-30.67
-23.83
-17.28
-11.5
-6.66
-2.68
0.68
3.73
6.75
9.84
12.94
15.86
18.38
20.33
21.68
22.53
23.06
23.45
23.84
24.31
24.89
25.57
26.31
27.0
27.5
27.68
27.4
26.61
25.36
23.76
21.93
20.0
18.01
15.96
13.81
11.57
9.22
6.81
4.39
1.98
-0.42
-2.84
-5.31
-7.84
-10.41
-12.95
-15.4
-17.77
-20.09
-22.5
-25.19
-28.32
-32.03
-36.34
-41.01
-45.58
-49.36
-51.55
-51.48
-48.83
-43.72
-36.71
-28.64
-20.34
-12.48
-5.42
0.74
6.11
10.83
15.04
18.86
22.33
25.46
28.2
30.46
32.14
33.16
33.56
33.46
33.02
32.4
31.71
31.0
30.31
29.66
29.1
28.6
28.12
27.56
26.88
26.04
25.06
23.95
22.67
21.17
19.44
17.47
15.39
13.29
11.25
9.28
7.3
5.24
3.08
0.85
-1.33
-3.38
-5.24
-6.97
-8.66
-10.45
-12.45
-14.7
-17.17
-19.78
-22.46
-25.17
-27.97
-30.98
-34.41
-38.4
-42.96
-47.86
-52.63
-56.52
-58.76
-58.65
-55.89
-50.6
-43.34
-34.95
-26.32
-18.14
-10.83
-4.5
0.95
5.71
9.96
13.85
17.5
20.96
24.25
27.29
29.87
31.79
32.87
33.14
32.8
32.23
31.84
31.89
32.47
33.4
34.39
35.12
35.39
35.15
34.47
33.52
32.4
31.2
29.9
28.47
26.91
25.22
23.44
21.63
19.81
17.97
16.06
14.06
11.92
9.7
7.45
5.26
3.19
1.25
-0.63
-2.58
-4.77
-7.31
-10.23
-13.44
-16.76
-20.01
-23.08
-25.98
-28.88
-32.02
-35.68
-40.02
-45.02
-50.37
-55.45
-59.45
-61.49
-60.89
-57.32
-50.99
-42.6
-33.16
-23.73
-15.14
-7.82
-1.81
3.18
7.58
11.71
15.76
19.74
23.49
26.83
29.65
31.85
33.42
34.36
34.72
34.64
34.3
34.0
33.97
34.37
35.15
36.07
36.77
36.9
36.22
34.73
32.56
30.0
27.28
24.54
21.82
19.04
16.14
13.09
10.02
7.07
4.44
2.19
0.21
-1.7
-3.82
-6.34
-9.27
-12.43
-15.58
-18.48
-21.0
-23.21
-25.28
-27.48
-29.99
-32.9
-36.11
-39.36
-42.25
-44.3
-45.02
-44.02
-41.13
-36.4
-30.18
-22.95
-15.24
-7.53
-0.12
6.78
13.04
18.52
23.06
26.55
28.96
30.41
31.2
31.83
32.92
35.01
38.35
42.69
47.28
51.09
53.15
52.9
50.37
46.06
40.72
35.22
30.34
26.8
25.17
25.72
28.29
32.2
36.45
39.98
41.95
41.84
39.42
34.63
27.66
18.93
9.18
-0.65
-9.62
-17.07
-22.84
-27.18
-30.58
-33.5
-36.23
-38.83
-41.14
-42.88
-43.72
-43.39
-41.72
-38.75
-34.75
-30.13
-25.34
-20.7
-16.36
-12.32
-8.46
-4.71
-1.09
2.28
5.23
7.59
9.32
10.45
11.13
11.55
11.88
12.23
12.63
13.03
13.37
13.59
13.67
13.66
13.59
13.48
13.36
13.2
13.0
12.74
12.37
11.91
11.31
10.57
9.64
8.43
6.87
4.94
2.72
0.43
-1.66
-3.35
-4.63
-5.74
-7.04
-8.83
-11.24
-14.11
-17.15
-20.05
-22.66
-24.99
-27.22
-29.59
-32.33
-35.57
-39.3
-43.29
-47.1
-50.1
-51.58
-51.0
-48.16
-43.32
-37.12
-30.33
-23.68
-17.62
-12.31
-7.65
-3.5
0.34
3.96
7.44
10.82
14.08
17.13
19.84
22.09
23.79
24.99
25.81
26.42
26.94
27.47
28.04
28.63
29.19
29.6
29.66
29.23
28.22
26.74
24.99
23.27
21.72
20.36
19.09
17.75
16.31
14.76
13.18
11.57
9.9
8.11
6.24
4.4
2.72
1.25
-0.07
-1.47
-3.11
-5.09
-7.34
-9.68
-11.94
-14.03
-16.02
-17.99
-20.1
-22.46
-25.16
-28.28
-31.8
-35.57
-39.22
-42.17
-43.75
-43.43
-41.01
-36.72
-31.21
-25.27
-19.59
-14.58
-10.31
-6.61
-3.27
-0.17
2.67
5.19
7.37
9.27
11.02
12.72
14.33
15.74
16.78
17.42
17.74
17.95
18.23
18.67
19.19
19.59
19.69
19.35
18.6
17.52
16.25
14.92
13.61
12.37
11.2
10.1
9.03
7.96
6.88
5.76
4.57
3.25
1.73
-0.1
-2.24
-4.67
-7.24
-9.78
-12.13
-14.22
-16.08
-17.87
-19.77
-21.93
-24.37
-26.99
-29.51
-31.52
-32.56
-32.3
-30.53
-27.37
-23.14
-18.4
-13.74
-9.61
-6.21
-3.48
-1.14
1.14
3.56
6.13
8.66
10.85
12.49
13.53
14.08
14.32
14.44
14.49
14.47
14.35
14.19
14.11
14.21
14.55
14.99
15.34
15.35
14.9
14.01
12.85
11.6
10.43
9.4
8.53
7.76
6.98
6.09
4.98
3.61
1.99
0.2
-1.66
-3.45
-5.09
-6.56
-7.88
-9.13
-10.35
-11.6
-12.92
-14.34
-15.91
-17.7
-19.8
-22.23
-24.98
-27.91
-30.76
-33.11
-34.55
-34.71
-33.42
-30.8
-27.17
-23.02
-18.82
-14.92
-11.47
-8.46
-5.79
-3.33
-1.01
1.23
3.37
5.41
7.29
8.94
10.26
11.17
11.63
11.7
11.55
11.4
11.45
11.83
12.47
13.23
13.87
14.21
14.16
13.79
13.22
12.62
12.12
11.78
11.62
11.59
11.58
11.45
11.05
10.27
9.08
7.62
6.07
4.65
3.46
2.45
1.45
0.26
-1.21
-2.94
-4.79
-6.59
-8.26
-9.79
-11.26
-12.72
-14.21
-15.67
-17.06
-18.42
-19.83
-21.43
-23.38
-25.77
-28.55
-31.52
-34.27
-36.33
-37.22
-36.64
-34.58
-31.34
-27.42
-23.32
-19.42
-15.89
-12.76
-9.94
-7.38
-4.99
-2.75
-0.54
1.73
4.13
6.61
8.99
11.01
12.45
13.23
13.5
13.49
13.48
13.62
13.86
14.05
14.02
13.69
13.11
12.43
11.75
11.1
10.43
9.67
8.86
8.11
7.57
7.3
7.26
7.29
7.26
7.06
6.69
6.2
5.62
4.95
4.13
3.13
1.94
0.59
-0.89
-2.52
-4.31
-6.26
-8.3
-10.3
-12.14
-13.76
-15.22
-16.63
-18.16
-19.9
-21.92
-24.18
-26.61
-29.08
-31.38
-33.2
-34.12
-33.78
-31.98
-28.81
-24.69
-20.22
-16.02
-12.43
-9.54
-7.18
-5.11
-3.19
-1.41
0.18
1.57
2.79
3.99
5.24
6.51
7.65
8.49
8.97
9.16
9.31
9.65
10.33
11.3
12.36
13.25
13.79
13.93
13.77
13.4
12.9
12.27
11.46
10.47
9.37
8.26
7.27
6.43
5.7
4.97
4.08
2.91
1.41
-0.4
-2.43
-4.55
-6.63
-8.53
-10.22
-11.73
-13.23
-14.93
-17.07
-19.76
-22.97
-26.41
-29.56
-31.83
-32.65
-31.7
-29.0
-24.95
-20.15
-15.29
-10.89
-7.21
-4.23
-1.76
0.49
2.73
5.06
7.46
9.79
11.86
13.54
14.73
15.46
15.84
16.05
16.23
16.46
16.79
17.21
17.67
18.13
18.5
18.64
18.41
17.75
16.74
15.57
14.5
13.71
13.24
12.96
12.65
12.06
11.07
9.67
7.98
6.21
4.51
3.02
1.78
0.75
-0.25
-1.39
-2.85
-4.68
-6.8
-9.02
-11.13
-12.99
-14.6
-16.1
-17.69
-19.57
-21.9
-24.74
-28.02
-31.54
-34.91
-37.55
-38.82
-38.22
-35.55
-31.05
-25.34
-19.2
-13.36
-8.32
-4.23
-1.0
1.6
3.84
5.96
8.12
10.35
12.57
14.62
16.3
17.45
18.05
18.24
18.26
18.37
18.73
19.38
20.15
20.85
21.29
21.42
21.31
21.08
20.83
20.56
20.16
19.54
18.64
17.54
16.39
15.36
14.54
13.87
13.21
12.43
11.45
10.25
8.91
7.51
6.12
4.8
3.56
2.37
1.18
-0.12
-1.63
-3.37
-5.32
-7.41
-9.51
-11.54
-13.48
-15.38
-17.29
-19.34
-21.66
-24.34
-27.4
-30.69
-33.87
-36.42
-37.75
-37.46
-35.42
-31.88
-27.41
-22.62
-18.05
-13.91
-10.21
-6.77
-3.44
-0.17
2.94
5.75
8.23
10.41
12.42
14.33
16.09
17.52
18.43
18.73
18.58
18.28
18.19
18.54
19.32
20.32
21.24
21.85
22.08
22.01
21.8
21.56
21.32
21.02
20.54
19.8
18.77
17.55
16.3
15.18
14.31
13.67
13.09
12.36
11.29
9.85
8.2
6.58
5.21
4.18
3.38
2.6
1.61
0.28
-1.45
-3.52
-5.86
-8.35
-10.89
-13.35
-15.62
-17.68
-19.63
-21.7
-24.13
-27.13
-30.66
-34.46
-38.04
-40.76
-42.06
-41.52
-39.11
-35.08
-29.97
-24.44
-19.06
-14.22
-10.09
-6.63
-3.66
-1.0
1.53
4.03
6.54
9.0
11.3
13.27
14.72
15.55
15.75
15.47
14.96
14.52
14.4
14.71
15.4
16.3
17.18
17.86
18.27
18.4
18.33
18.18
17.98
17.75
17.47
17.05
16.42
15.51
14.31
12.83
11.11
9.22
7.18
5.06
2.9
0.73
-1.44
-3.62
-5.8
-7.97
-10.07
-12.04
-13.85
-15.55
-17.3
-19.33
-21.82
-24.82
-28.17
-31.48
-34.24
-35.87
-35.93
-34.16
-30.69
-25.91
-20.44
-14.91
-9.81
-5.4
-1.71
1.4
4.15
6.67
9.08
11.36
13.44
15.21
16.58
17.5
18.04
18.31
18.44
18.58
18.81
19.2
19.81
20.68
21.76
22.9
23.86
24.4
24.37
23.82
22.98
22.09
21.36
20.8
20.29
19.64
18.72
17.47
15.93
14.15
12.13
9.87
7.38
4.77
2.21
-0.11
-2.09
-3.76
-5.27
-6.88
-8.74
-10.89
-13.22
-15.57
-17.78
-19.83
-21.81
-23.9
-26.32
-29.19
-32.61
-36.49
-40.54
-44.3
-47.12
-48.41
-47.75
-45.06
-40.61
-34.96
-28.75
-22.57
-16.83
-11.73
-7.29
-3.39
0.12
3.42
6.58
9.64
12.55
15.19
17.44
19.23
20.53
21.37
21.81
21.97
22.0
22.04
22.24
22.64
23.25
23.96
24.62
25.11
25.33
25.25
24.92
24.41
23.76
23.01
22.15
