13.07
17.43
21.48
25.06
28.0
30.2
31.67
32.45
32.68
32.51
32.15
31.83
31.72
31.87
32.19
32.49
32.57
32.32
31.8
31.14
30.46
29.72
28.73
27.28
25.23
22.61
19.64
16.6
13.75
11.17
8.79
6.42
3.88
1.05
-2.02
-5.23
-8.4
-11.42
-14.25
-16.96
-19.74
-22.88
-26.68
-31.31
-36.75
-42.62
-48.18
-52.53
-54.76
-54.23
-50.8
-44.88
-37.26
-28.95
-20.84
-13.52
-7.17
-1.65
3.34
8.05
12.58
16.86
20.74
24.06
26.75
28.77
30.12
30.85
30.99
30.71
30.19
29.72
29.48
29.57
29.94
30.43
30.84
31.0
30.74
30.0
28.79
27.21
25.43
23.62
21.87
20.15
18.31
16.19
13.73
10.97
8.08
5.25
2.57
0.01
-2.55
-5.25
-8.15
-11.24
-14.45
-17.67
-20.81
-23.83
-26.75
-29.72
-33.0
-36.9
-41.57
-46.88
-52.31
-56.96
-59.81
-60.06
-57.36
-51.96
-44.62
-36.28
-27.87
-19.99
-12.91
-6.63
-1.0
4.12
8.87
13.3
17.48
21.39
24.98
28.14
30.72
32.59
33.71
34.2
34.28
34.23
34.28
34.54
35.01
35.58
36.11
36.46
36.51
36.16
35.31
33.9
31.93
29.56
27.05
24.65
22.58
20.85
19.32
17.76
16.03
14.06
11.94
9.82
7.78
5.82
3.84
1.72
-0.62
-3.21
-5.98
-8.87
-11.84
-14.86
-17.93
-21.03
-24.09
-27.01
-29.81
-32.64
-35.82
-39.74
-44.58
-50.14
-55.73
-60.25
-62.54
-61.8
-57.83
-51.15
-42.8
-33.96
-25.59
-18.21
-11.88
-6.35
-1.28
3.61
8.42
13.1
17.53
21.56
25.04
27.82
29.81
30.98
31.38
31.17
30.68
30.22
30.05
30.27
30.75
31.26
31.54
31.39
30.74
29.61
28.12
26.4
24.6
22.86
21.23
19.72
18.25
16.66
14.83
12.73
10.42
8.06
5.82
3.8
1.97
0.2
-1.7
-3.88
-6.37
-9.14
-11.99
-14.74
-17.21
-19.39
-21.45
-23.73
-26.63
-30.41
-35.05
-40.1
-44.75
-48.02
-49.02
-47.31
-43.01
-36.78
-29.55
-22.21
-15.39
-9.31
-3.88
1.11
5.82
10.23
14.24
17.68
20.49
22.71
24.43
25.73
26.64
27.14
27.28
27.16
26.96
26.91
27.17
27.73
28.47
29.16
29.53
29.37
28.59
27.22
25.35
23.22
21.02
18.92
16.97
15.09
13.19
11.19
9.11
7.05
5.13
3.42
1.88
0.4
-1.19
-3.06
-5.26
-7.78
-10.51
-13.31
-16.04
-18.61
-21.07
-23.56
-26.33
-29.67
-33.78
-38.63
-43.88
-48.91
-52.87
-54.93
-54.47
-51.33
-45.83
-38.73
-30.98
-23.46
-16.76
-11.06
-6.23
-1.97
2.02
5.92
9.77
13.49
16.94
19.97
22.43
24.21
25.28
25.72
25.68
25.41
25.13
25.06
25.27
25.77
26.48
27.25
27.91
28.33
28.4
28.03
27.24
26.07
24.62
23.01
21.37
19.81
18.36
16.98
15.56
13.99
12.2
10.18
7.99
5.73
3.52
1.45
-0.46
-2.28
-4.14
-6.22
-8.58
-11.23
-14.03
-16.75
-19.24
-21.46
-23.53
-25.71
-28.26
-31.34
-34.98
-39.02
-43.17
-46.97
-49.9
-51.39
-50.95
-48.38
-43.82
-37.81
-31.1
-24.43
-18.34
-13.01
-8.35
-4.15
-0.2
3.57
7.12
10.41
13.37
15.98
18.22
19.99
21.23
21.88
22.01
21.8
21.53
21.45
21.71
22.26
22.91
23.38
23.45
23.02
22.19
21.13
20.03
19.03
18.15
17.42
16.83
16.41
16.17
16.08
16.0
15.74
15.2
14.38
13.39
12.36
11.31
10.1
8.47
6.17
3.16
-0.36
-4.0
-7.4
-10.43
-13.25
-16.24
-19.78
-24.04
-28.94
-34.23
-39.69
-45.24
-50.94
-56.77
-62.52
-67.72
-71.72
-74.05
-74.53
-73.48
-71.47
-69.15
-66.94
-64.87
-62.65
-59.82
-55.97
-50.87
-44.6
-37.41
-29.72
-21.94
-14.43
-7.38
-0.85
5.27
11.23
17.35
24.01
31.49
39.9
49.18
59.01
68.91
78.3
86.66
93.56
98.68
101.89
103.19
102.76
100.82
97.7
93.68
88.98
83.73
78.01
71.9
65.54
59.11
52.76
46.56
40.43
34.13
27.39
19.99
11.98
3.62
-4.55
-11.93
-17.95
-22.33
-25.03
-26.29
-26.47
-25.94
-24.93
-23.57
-21.91
-19.98
-17.88
-15.73
-13.68
-11.87
-10.36
-9.19
-8.32
-7.72
-7.28
-6.92
-6.57
-6.18
-5.77
-5.35
-4.96
-4.6
-4.26
-3.92
-3.56
-3.22
-2.97
-2.89
-3.09
-3.69
-4.74
-6.26
-8.23
-10.55
-13.06
-15.54
-17.78
-19.59
-20.92
-21.87
-22.69
-23.73
-25.33
-27.63
-30.52
-33.61
-36.33
-38.07
-38.36
-37.02
-34.17
-30.18
-25.56
-20.76
-16.14
-11.88
-8.04
-4.55
-1.33
1.73
4.69
7.52
10.13
12.38
14.16
15.43
16.29
16.89
17.35
17.76
18.11
18.37
18.49
18.48
18.35
18.18
17.97
17.71
17.3
16.62
15.58
14.17
12.51
10.74
9.01
7.4
5.83
4.18
2.37
0.38
-1.69
-3.75
-5.71
-7.59
-9.53
-11.7
-14.27
-17.35
-20.93
-24.92
-29.06
-32.98
-36.19
-38.17
-38.54
-37.09
-33.92
-29.44
-24.21
-18.84
-13.76
-9.23
-5.24
-1.67
1.66
4.85
7.89
10.74
13.31
15.55
17.41
18.85
19.84
20.37
20.54
20.5
20.45
20.54
20.85
21.34
21.9
22.41
22.8
23.05
23.19
23.2
23.03
22.62
21.94
21.0
19.86
18.59
17.25
15.91
14.6
13.33
12.12
10.97
9.87
8.81
7.75
6.67
5.54
4.35
3.11
1.87
0.69
-0.36
-1.31
-2.23
-3.27
-4.56
-6.14
-7.92
-9.77
-11.55
-13.23
-14.93
-16.79
-18.94
-21.36
-23.86
-26.19
-28.09
-29.34
-29.78
-29.3
-27.85
-25.42
-22.15
-18.29
-14.18
-10.18
-6.6
-3.61
-1.21
0.74
2.45
4.12
5.86
7.62
9.23
10.5
11.29
11.62
11.62
11.53
11.52
11.72
12.09
12.5
12.83
12.96
12.9
12.65
12.25
11.76
11.16
10.49
9.7
8.86
8.02
7.26
6.63
6.17
5.83
5.54
5.21
4.77
4.19
3.52
2.83
2.21
1.73
1.39
1.14
0.88
0.48
-0.08
-0.81
-1.6
-2.35
-3.02
-3.6
-4.22
-4.95
-5.87
-6.99
-8.27
-9.68
-11.18
-12.71
-14.18
-15.4
-16.17
-16.35
-15.92
-14.93
-13.56
-11.96
-10.31
-8.74
-7.35
-6.21
-5.33
-4.65
-4.04
-3.37
-2.56
-1.67
-0.82
-0.19
0.11
0.08
-0.17
-0.5
-0.81
-1.05
-1.22
-1.32
-1.34
-1.26
-1.08
-0.86
-0.69
-0.65
-0.79
-1.07
-1.4
-1.73
-2.04
-2.35
-2.7
-3.11
-3.59
-4.12
-4.67
-5.24
-5.79
-6.29
-6.68
-6.95
-7.11
-7.2
-7.27
-7.41
-7.62
-7.92
-8.29
-8.69
-9.06
-9.37
-9.58
-9.72
-9.83
-10.02
-10.36
-10.88
-11.45
-11.87
-11.88
-11.32
-10.14
-8.51
-6.64
-4.74
-2.97
-1.41
-0.12
0.81
1.3
1.34
1.03
0.57
0.22
0.13
0.34
0.7
1.02
1.16
1.05
0.76
0.42
0.18
0.14
0.38
0.89
1.57
2.25
2.73
2.87
2.64
2.16
1.57
1.05
0.69
0.44
0.23
-0.05
-0.45
-0.95
-1.49
-2.01
-2.47
-2.86
-3.21
-3.53
-3.85
-4.18
-4.54
-4.92
-5.33
-5.76
-6.21
-6.7
-7.23
-7.78
-8.25
-8.51
-8.37
-7.67
-6.37
-4.55
-2.47
-0.5
1.03
1.92
2.13
1.83
1.29
0.75
0.38
0.2
0.16
0.16
0.13
0.05
-0.08
-0.26
-0.48
-0.77
-1.1
-1.45
-1.75
-1.92
-1.92
-1.73
-1.4
-1.01
-0.64
-0.34
-0.18
-0.13
-0.19
-0.29
-0.41
-0.56
-0.76
-1.02
-1.36
-1.76
-2.18
-2.57
-2.89
-3.15
-3.36
-3.6
-3.91
-4.33
-4.84
-5.42
-6.06
-6.76
-7.59
-8.62
-9.87
-11.31
-12.81
-14.2
-15.3
-16.0
-16.2
-15.86
-15.02
-13.77
-12.28
-10.73
-9.28
-8.02
-6.89
-5.8
-4.68
-3.54
-2.48
-1.6
-0.94
-0.47
-0.11
0.17
0.37
0.44
0.37
0.23
0.15
0.24
0.54
0.96
1.34
1.59
1.69
1.74
1.86
2.11
2.41
2.61
2.54
2.15
1.55
0.94
0.52
0.39
0.5
0.67
0.74
0.6
0.27
-0.17
-0.62
-1.07
-1.6
-2.29
-3.19
-4.26
-5.39
-6.41
-7.24
-7.89
-8.47
-9.15
-10.06
-11.21
-12.54
-13.94
-15.37
-16.84
-18.48
-20.39
-22.63
-25.12
-27.62
-29.78
-31.26
-31.73
-31.03
-29.15
-26.27
-22.68
-18.78
-14.95
-11.48
-8.53
-6.18
-4.36
-2.97
-1.83
-0.78
0.31
1.46
2.58
3.53
4.19
4.52
4.59
4.52
4.45
4.45
4.57
4.82
5.24
5.81
6.48
7.14
7.62
7.82
7.72
7.45
7.14
6.91
6.8
6.77
6.7
6.53
6.24
5.87
5.52
5.21
4.94
4.67
4.36
3.94
3.39
2.66
1.73
0.54
-0.94
-2.73
-4.78
-7.0
-9.32
-11.69
-14.12
-16.66
-19.32
-22.06
-24.8
-27.5
-30.22
-33.14
-36.44
-40.15
-44.02
-47.51
-49.97
-50.8
-49.76
-46.97
-42.9
-38.13
-33.16
-28.3
-23.64
-19.17
-14.86
-10.71
-6.73
-2.96
0.55
3.76
6.61
9.03
10.99
12.54
13.78
14.86
15.9
16.97
18.06
19.13
20.13
21.05
21.87
22.56
23.07
23.34
23.29
22.86
22.04
20.83
19.3
17.56
15.76
14.03
12.47
11.11
9.89
8.69
7.38
5.83
3.96
1.78
-0.67
-3.33
-6.11
-8.97
-11.88
-14.88
-18.03
-21.48
-25.4
-29.9
-34.92
-40.09
-44.7
-47.89
-48.9
-47.3
-43.18
-37.13
-30.01
-22.62
-15.58
-9.19
-3.49
1.61
6.21
10.42
14.27
17.77
20.91
23.64
25.97
27.91
29.54
30.92
32.11
33.15
34.06
34.9
35.75
36.64
37.55
38.39
38.98
39.21
39.01
38.4
37.44
36.21
34.73
33.02
31.05
28.84
26.45
23.97
21.47
18.98
16.47
13.86
11.05
7.96
4.58
0.99
-2.66
-6.23
-9.69
-13.18
-16.99
-21.48
-26.9
-33.23
-40.1
-46.81
-52.41
-55.92
-56.49
-53.64
-47.34
-38.09
-26.78
-14.55
-2.42
8.89
19.08
28.19
36.42
43.99
51.0
57.43
63.14
67.9
71.42
73.44
73.7
72.16
68.98
64.55
59.36
53.92
48.61
43.65
39.14
35.12
31.57
28.46
25.67
23.03
20.4
17.66
14.82
12.01
9.4
7.08
5.05
3.13
1.07
-1.29
-3.94
-6.7
-9.28
-11.46
-13.19
-14.64
-16.09
-17.84
-20.02
-22.58
-25.35
-28.13
-30.8
-33.38
-36.02
-38.92
-42.37
-46.56
-51.53
-57.0
-62.29
-66.41
-68.28
-67.08
-62.5
-54.94
-45.3
-34.75
-24.35
-14.85
-6.55
0.55
6.67
12.1
17.07
21.73
26.11
30.15
33.68
36.57
38.74
40.22
41.11
41.58
41.76
41.77
41.69
41.61
41.52
41.38
41.08
40.53
39.65
38.43
36.91
35.21
33.48
31.89
30.57
29.51
28.57
27.45
25.84
23.6
20.78
17.66
14.58
11.79
9.31
6.94
4.42
1.56
-1.69
-5.21
-8.75
-12.16
-15.34
-18.37
-21.45
-24.82
-28.7
-33.15
-37.97
-42.63
-46.38
-48.39
-48.02
-45.02
-39.63
-32.47
-24.38
-16.17
-8.43
-1.48
4.58
9.8
14.28
18.13
21.45
24.35
26.89
29.09
30.94
32.37
33.31
33.72
33.65
33.21
32.53
31.75
30.88
29.94
28.9
27.83
26.84
26.05
25.57
25.33
25.15
24.8
24.09
23.0
21.62
20.13
18.68
17.28
15.87
14.3
12.5
10.49
8.41
6.41
4.6
2.94
1.27
-0.64
-3.04
-6.05
-9.65
-13.7
-17.93
-21.97
-25.37
-27.6
-28.18
-26.81
-23.5
-18.62
-12.82
-6.86
-1.4
3.18
6.82
9.67
12.0
14.04
15.92
17.67
19.23
20.53
21.52
22.16
22.48
22.57
22.53
22.48
22.48
22.55
22.67
22.75
22.75
22.57
22.15
21.43
20.39
19.02
17.38
15.59
13.74
11.87
9.96
7.99
5.93
3.86
1.86
-0.01
-1.75
-3.45
-5.22
-7.08
-8.98
-10.81
-12.45
-13.92
-15.34
-16.94
-18.97
-21.57
-24.72
-28.17
-31.44
-33.93
-35.02
-34.29
-31.64
-27.35
-22.02
-16.36
-11.02
-6.44
-2.78
0.08
2.36
4.38
6.37
8.41
10.48
12.45
14.2
15.59
16.6
17.29
17.75
18.09
18.4
18.72
19.0
19.22
19.34
19.41
19.43
19.41
19.26
18.86
18.06
16.86
15.38
13.88
12.6
11.63
10.88
10.1
9.07
7.62
5.8
3.77
1.75
-0.14
-1.88
-3.56
-5.28
-7.16
-9.22
-11.44
-13.81
-16.27
-18.82
-21.42
-24.03
-26.64
-29.29
-32.08
-35.08
-38.25
-41.31
-43.77
-44.99
-44.47
-42.05
-37.96
-32.8
-27.26
-21.93
-17.14
-12.92
-9.16
-5.69
-2.44
0.56
3.2
5.39
7.08
8.34
9.23
9.79
10.06
10.03
9.74
9.3
8.88
8.67
8.77
9.23
9.97
10.9
11.94
13.05
14.13
15.11
15.83
16.18
16.12
15.71
15.07
14.34
13.59
12.84
12.03
11.14
10.15
9.08
7.96
6.78
5.54
4.25
2.9
1.52
0.06
-1.52
-3.26
-5.16
-7.17
-9.21
-11.21
-13.18
-15.16
-17.26
-19.59
-22.2
-25.09
-28.25
-31.56
-34.78
-37.57
-39.47
-40.01
-38.9
-36.08
-31.79
-26.48
-20.73
-15.08
-9.91
-5.46
-1.77
1.25
3.75
5.87
7.71
9.31
10.68
11.81
12.66
13.23
13.49
13.47
13.22
12.86
12.58
12.55
12.83
13.32
13.78
13.98
13.74
13.06
12.08
10.96
9.8
8.62
7.34
5.91
4.31
2.58
0.78
-1.09
-3.0
-4.95
-6.86
-8.6
-10.09
-11.33
-12.47
-13.76
-15.47
-17.79
-20.73
-24.12
-27.55
-30.51
-32.36
-32.61
-31.0
-27.61
-22.88
-17.45
-11.99
-6.98
-2.68
0.93
3.95
6.53
8.74
10.63
12.18
13.44
14.45
15.27
15.98
16.58
17.04
17.28
17.28
17.04
16.66
16.27
16.03
15.96
16.01
16.02
15.79
15.17
14.11
12.62
10.78
8.7
6.49
4.24
2.1
0.19
-1.41
-2.69
-3.81
-4.99
-6.49
-8.41
-10.69
-13.09
-15.36
-17.36
-19.17
-21.0
-23.14
-25.78
-28.95
-32.49
-36.14
-39.51
-42.16
-43.6
-43.37
-41.17
-37.06
-31.39
-24.86
-18.23
-12.15
-7.0
-2.86
0.46
3.26
5.84
8.38
10.88
13.2
15.14
16.52
17.33
17.69
17.81
17.9
18.05
18.25
18.43
18.59
18.75
18.96
19.24
19.49
19.56
19.32
18.73
17.86
16.8
15.59
14.18
12.5
10.52
8.34
6.16
4.11
2.21
0.32
-1.73
-4.08
-6.68
-9.37
-11.95
-14.27
-16.34
-18.28
-20.28
-22.53
-25.18
-28.29
-31.87
-35.73
-39.5
-42.66
-44.58
-44.72
-42.8
-38.89
-33.42
-27.03
-20.38
-14.02
-8.29
-3.29
1.04
4.86
8.3
11.49
14.49
17.31
19.93
22.27
24.24
25.75
26.77
27.3
27.42
27.27
27.02
26.88
27.0
27.44
28.14
28.92
29.54
29.76
29.45
28.61
27.35
25.84
24.22
22.56
20.9
19.23
17.56
15.93
14.36
12.89
11.47
10.07
8.66
7.19
5.64
4.03
2.35
0.56
-1.38
-3.54
-5.93
-8.47
-10.98
-13.22
-15.06
-16.5
-17.8
-19.33
-21.46
-24.36
-27.92
-31.73
-35.14
-37.46
-38.13
-36.85
-33.65
-28.9
-23.19
-17.19
-11.47
-6.38
-2.04
1.64
4.81
7.64
10.24
12.67
14.9
16.93
18.68
20.09
21.09
21.64
21.76
21.55
21.15
20.76
20.52
20.55
20.83
21.27
21.72
22.04
22.09
21.84
21.3
20.53
19.63
18.66
17.72
16.82
15.98
15.13
14.22
13.22
12.19
11.27
10.61
10.36
10.54
11.08
11.78
12.35
12.49
11.93
10.52
8.23
5.16
1.47
-2.58
-6.67
-10.45
-13.48
-15.28
-15.42
-13.61
-9.78
-4.12
2.96
10.91
19.07
26.75
33.34
38.33
41.48
42.83
42.69
41.54
39.86
37.98
36.05
34.11
32.09
29.97
27.78
25.55
23.34
21.16
19.0
16.82
14.61
12.4
10.24
8.17
6.19
4.17
1.98
-0.51
-3.37
-6.47
-9.6
-12.52
-15.07
-17.26
-19.2
-21.11
-23.13
-25.3
-27.58
-29.86
-32.06
-34.14
-36.11
-38.02
-39.91
-41.82
-43.77
-45.8
-47.97
-50.3
-52.75
-55.13
-57.1
-58.21
-57.98
-56.09
-52.51
-47.51
-41.62
-35.46
-29.52
-24.12
-19.29
-14.89
-10.75
-6.74
-2.83
0.92
4.44
7.7
10.67
13.32
15.63
17.56
19.12
20.43
21.63
22.89
24.31
25.9
27.58
29.27
30.84
32.2
33.25
33.9
34.09
33.87
33.33
32.59
31.65
30.37
28.5
25.79
22.11
17.58
12.42
6.92
1.22
-4.65
-10.7
-16.87
-22.95
-28.56
-33.28
-36.77
-38.82
-39.43
-38.68
-36.82
-34.15
-31.01
-27.72
-24.6
-21.81
-19.4
-17.29
-15.34
-13.38
-11.37
-9.35
-7.45
-5.81
-4.52
-3.59
-2.98
-2.59
-2.32
-2.06
-1.7
-1.16
-0.42
0.52
1.59
2.67
3.67
4.49
5.06
5.35
5.33
5.03
4.54
4.03
3.65
3.5
3.53
3.58
3.42
2.85
1.79
0.28
-1.55
-3.51
-5.46
-7.26
-8.75
-9.73
-10.02
-9.48
-8.14
-6.21
-4.06
-2.05
-0.46
0.64
1.38
1.92
2.46
3.06
3.71
4.33
4.77
4.91
4.63
3.87
2.63
0.99
-0.89
-2.82
-4.62
-6.11
-7.24
-8.0
-8.47
-8.79
-9.11
-9.54
-10.19
-11.08
-12.17
-13.34
-14.44
-15.34
-15.96
-16.32
-16.52
-16.69
-16.99
-17.52
-18.36
-19.54
-21.09
-23.02
-25.21
-27.4
-29.18
-30.11
-29.81
-28.2
-25.5
-22.18
-18.81
-15.82
-13.42
-11.57
-10.08
-8.7
-7.28
-5.78
-4.26
-2.85
-1.69
-0.86
-0.39
-0.19
-0.16
-0.2
-0.23
-0.25
-0.24
-0.19
-0.05
0.18
0.48
0.74
0.81
0.57
0.01
-0.81
-1.76
-2.71
-3.57
-4.25
-4.74
-5.03
-5.19
-5.36
-5.7
-6.33
-7.25
-8.38
-9.58
-10.7
-11.64
-12.27
-12.42
-11.9
-10.56
-8.43
-5.83
-3.23
-1.15
0.09
0.46
0.16
-0.51
-1.33
-2.25
-3.34
-4.64
-6.11
-7.54
-8.68
-9.26
-9.12
-8.21
-6.62
-4.48
-1.94
0.87
3.84
6.86
9.8
12.48
14.72
16.41
17.54
18.25
18.73
19.17
19.71
20.39
21.15
21.9
22.54
23.01
23.26
23.28
23.07
22.67
22.17
21.65
21.26
21.11
21.21
21.47
21.6
21.17
19.66
16.7
12.19
6.44
0.09
-6.1
-11.41
-15.39
-17.83
-18.78
-18.39
-16.92
-14.7
-12.09
-9.45
-7.04
-4.97
-3.18
-1.55
0.03
1.58
3.04
4.29
5.28
6.0
6.53
6.94
7.27
7.59
7.92
8.29
8.71
9.19
9.73
10.35
11.05
11.83
12.61
13.32
13.83
14.04
13.98
13.75
13.5
13.36
13.39
13.55
13.74
13.82
13.69
13.27
12.53
11.42
9.91
8.02
5.82
3.38
0.77
-2.0
-4.93
-8.04
-11.38
-14.88
-18.41
-21.69
-24.33
-25.91
-26.07
-24.68
-21.9
-18.18
-14.09
-10.17
-6.73
-3.86
-1.45
0.65
2.52
4.2
5.65
6.89
7.91
8.77
9.44
9.94
10.27
10.5
10.77
11.22
11.97
12.95
14.0
14.84
15.22
15.01
14.22
13.01
11.58
10.16
8.92
7.96
7.28
6.82
6.45
6.02
5.36
4.34
2.91
1.1
-0.96
-3.11
-5.21
-7.2
-9.17
-11.36
-14.08
-17.56
-21.87
-26.77
-31.79
-36.27
-39.58
-41.25
-41.15
-39.41
-36.4
-32.59
-28.37
-24.05
-19.79
-15.7
-11.83
-8.23
-4.96
-1.99
0.66
3.05
5.21
7.14
8.89
10.52
12.13
13.75
15.38
16.98
18.44
19.77
20.99
22.13
23.15
23.9
24.14
23.75
22.73
21.32
19.83
18.51
17.42
16.47
15.48
14.34
13.01
11.57
10.14
8.77
7.5
6.32
5.17
3.93
2.5
0.73
-1.44
-3.93
-6.56
-9.1
-11.39
-13.44
-15.48
-17.82
-20.78
-24.48
-28.79
-33.31
-37.42
-40.46
-41.84
-41.21
-38.56
-34.17
-28.6
-22.5
-16.48
-11.02
-6.37
-2.57
0.53
3.17
5.57
7.9
10.21
12.44
14.48
16.21
17.58
18.59
19.29
19.75
20.05
20.28
20.52
20.9
21.45
22.19
22.99
23.7
24.15
24.24
23.97
23.44
22.75
22.01
21.26
20.45
19.56
18.54
17.34
15.96
14.41
12.67
10.77
8.73
6.61
4.48
2.36
0.29
-1.72
-3.65
-5.53
-7.34
-9.13
-10.99
-13.0
-15.24
-17.68
-20.23
-22.76
-25.24
-27.79
-30.66
-34.11
-38.25
-42.87
-47.4
-51.01
-52.9
-52.49
-49.68
-44.84
-38.73
-32.17
-25.86
-20.18
-15.26
-11.03
-7.33
-4.06
-1.09
1.66
4.34
7.04
9.78
12.48
14.96
17.03
18.55
19.53
20.08
20.38
20.61
20.9
21.32
21.86
22.48
23.09
23.59
23.88
23.91
23.68
23.22
22.62
21.93
21.19
20.39
19.49
18.45
17.22
15.77
14.09
12.2
10.15
8.04
5.99
4.05
2.23
0.41
-1.54
-3.74
-6.23
-8.97
-11.88
-14.83
-17.73
-20.48
-23.07
-25.59
-28.22
-31.19
-34.69
-38.68
-42.83
-46.56
-49.1
-49.79
-48.24
-44.47
-38.89
-32.16
-25.06
-18.23
-12.14
-6.97
-2.74
0.66
3.43
5.77
7.84
9.8
11.75
13.68
15.54
17.2
18.55
19.55
20.27
20.83
21.41
22.09
22.86
23.63
24.29
24.75
24.93
24.82
24.36
23.53
22.33
20.84
19.19
17.51
15.84
14.14
12.25
9.99
7.3
4.2
0.87
-2.51
-5.77
-8.82
-11.72
-14.55
-17.48
-20.68
-24.33
-28.52
-33.19
-38.05
-42.6
-46.14
-47.96
-47.54
-44.71
-39.72
-33.15
-25.82
-18.47
-11.69
-5.79
-0.81
3.4
7.05
10.36
13.45
16.34
18.98
21.33
23.33
24.96
26.23
27.18
27.88
28.42
28.95
29.55
30.31
31.22
32.16
32.95
33.4
33.32
32.67
31.56
30.19
28.79
27.5
26.32
25.12
23.73
21.98
19.8
17.22
14.35
11.38
8.44
5.66
3.08
0.66
-1.71
-4.2
-6.91
-9.86
-12.97
-16.08
-19.02
-21.71
-24.15
-26.53
