16.14
13.56
10.7
7.75
4.92
2.34
0.0
-2.23
-4.54
-7.11
-10.08
-13.46
-17.16
-20.99
-24.73
-28.21
-31.4
-34.51
-37.9
-41.93
-46.81
-52.33
-57.87
-62.41
-64.88
-64.41
-60.71
-54.07
-45.34
-35.63
-25.97
-17.17
-9.59
-3.27
1.96
6.4
10.35
14.08
17.75
21.38
24.84
27.88
30.25
31.79
32.53
32.65
32.43
32.13
31.96
32.02
32.34
32.87
33.48
33.97
34.12
33.76
32.86
31.51
29.86
28.05
26.12
24.05
21.81
19.41
16.9
14.34
11.74
9.07
6.34
3.64
1.07
-1.26
-3.36
-5.4
-7.6
-10.16
-13.1
-16.31
-19.6
-22.82
-25.94
-29.08
-32.48
-36.37
-40.96
-46.34
-52.35
-58.57
-64.24
-68.44
-70.27
-69.1
-64.87
-58.02
-49.43
-40.11
-31.01
-22.77
-15.68
-9.71
-4.6
0.04
4.59
9.32
14.27
19.26
23.9
27.78
30.58
32.23
32.96
33.14
33.19
33.37
33.77
34.3
34.8
35.15
35.32
35.28
35.04
34.52
33.64
32.36
30.72
28.84
26.84
24.75
22.56
20.18
17.57
14.78
11.9
9.05
6.3
3.6
0.83
-2.1
-5.21
-8.45
-11.71
-14.85
-17.82
-20.63
-23.34
-26.11
-29.16
-32.73
-36.99
-41.85
-46.9
-51.41
-54.4
-55.01
-52.74
-47.66
-40.37
-31.87
-23.15
-15.03
-7.89
-1.79
3.5
8.2
12.54
16.56
20.22
23.4
26.01
28.01
29.41
30.3
30.77
30.95
30.95
30.87
30.78
30.71
30.66
30.59
30.42
30.05
29.36
28.27
26.79
25.04
23.15
21.22
19.27
17.19
14.82
12.07
8.94
5.56
2.15
-1.14
-4.24
-7.17
-9.98
-12.69
-15.29
-17.78
-20.25
-22.86
-25.83
-29.37
-33.59
-38.38
-43.38
-48.0
-51.48
-53.1
-52.34
-49.02
-43.47
-36.35
-28.48
-20.63
-13.34
-6.87
-1.24
3.65
7.97
11.88
15.5
18.88
21.96
24.61
26.68
28.05
28.8
29.07
29.11
29.1
29.15
29.3
29.55
29.86
30.2
30.51
30.67
30.54
30.03
29.07
27.72
26.09
24.29
22.37
20.37
18.29
16.09
13.78
11.36
8.84
6.3
3.82
1.52
-0.51
-2.28
-3.89
-5.54
-7.5
-9.95
-12.92
-16.3
-19.86
-23.39
-26.8
-30.2
-33.81
-37.92
-42.76
-48.28
-54.12
-59.6
-63.82
-65.91
-65.24
-61.65
-55.5
-47.54
-38.7
-29.89
-21.73
-14.53
-8.33
-2.99
1.76
6.16
10.43
14.61
18.65
22.35
25.49
27.92
29.64
30.72
31.34
31.64
31.79
31.91
32.1
32.43
32.91
33.39
33.67
33.5
32.75
31.44
29.73
27.86
26.04
24.4
22.97
21.67
20.38
18.95
17.25
15.18
12.8
10.22
7.64
5.23
3.05
1.04
-0.98
-3.18
-5.71
-8.56
-11.66
-14.84
-17.97
-20.96
-23.8
-26.56
-29.4
-32.54
-36.22
-40.6
-45.65
-51.06
-56.21
-60.28
-62.41
-61.95
-58.63
-52.68
-44.77
-35.84
-26.83
-18.46
-11.13
-4.88
0.44
5.06
9.17
12.91
16.36
19.56
22.53
25.18
27.39
29.01
29.95
30.27
30.17
29.95
29.86
30.0
30.32
30.61
30.69
30.45
29.89
29.11
28.18
27.15
25.94
24.45
22.61
20.4
17.87
15.15
12.34
9.51
6.69
3.89
1.14
-1.57
-4.24
-6.94
-9.72
-12.62
-15.6
-18.6
-21.59
-24.61
-27.86
-31.56
-35.83
-40.5
-45.06
-48.74
-50.68
-50.27
-47.28
-41.99
-35.01
-27.17
-19.25
-11.84
-5.24
0.49
5.44
9.8
13.68
17.17
20.3
23.07
25.45
27.45
29.04
30.21
30.93
31.26
31.28
31.18
31.1
31.14
31.29
31.46
31.44
31.11
30.37
29.23
27.78
26.17
24.54
22.95
21.4
19.81
18.06
16.1
13.92
11.61
9.31
7.14
5.19
3.43
1.77
0.05
-1.89
-4.19
-6.89
-9.94
-13.2
-16.49
-19.65
-22.62
-25.47
-28.4
-31.7
-35.57
-40.09
-45.05
-50.01
-54.27
-57.06
-57.7
-55.79
-51.33
-44.78
-36.9
-28.6
-20.63
-13.52
-7.44
-2.32
2.06
5.94
9.53
12.96
16.29
19.49
22.4
24.81
26.51
27.43
27.64
27.39
26.97
26.67
26.61
26.81
27.21
27.67
28.06
28.21
28.0
27.38
26.36
25.05
23.64
22.28
21.04
19.9
18.78
17.55
16.15
14.51
12.65
10.61
8.48
6.36
4.36
2.56
0.9
-0.74
-2.57
-4.76
-7.42
-10.44
-13.58
-16.59
-19.21
-21.42
-23.32
-25.18
-27.33
-30.07
-33.59
-37.87
-42.59
-47.18
-50.86
-52.82
-52.48
-49.63
-44.56
-37.95
-30.66
-23.53
-17.12
-11.68
-7.15
-3.32
0.08
3.29
6.4
9.44
12.31
14.88
17.05
18.74
19.91
20.6
20.89
20.89
20.8
20.8
20.99
21.35
21.75
21.97
21.85
21.34
20.54
19.62
18.73
17.91
17.11
16.19
15.05
13.66
12.03
10.26
8.4
6.5
4.56
2.58
0.53
-1.6
-3.82
-6.12
-8.47
-10.8
-13.05
-15.14
-17.05
-18.82
-20.65
-22.79
-25.53
-28.99
-32.99
-36.97
-40.1
-41.46
-40.42
-36.85
-31.17
-24.22
-16.98
-10.28
-4.58
-0.02
3.58
6.54
9.15
11.65
14.08
16.4
18.45
20.11
21.26
21.88
22.01
21.76
21.25
20.63
20.1
19.82
19.88
20.29
20.9
21.49
21.8
21.64
20.98
19.89
18.52
17.08
15.74
14.55
13.44
12.21
10.65
8.6
6.12
3.42
0.82
-1.43
-3.28
-4.9
-6.59
-8.6
-11.04
-13.78
-16.58
-19.19
-21.46
-23.45
-25.33
-27.34
-29.71
-32.58
-35.98
-39.71
-43.39
-46.43
-48.21
-48.19
-46.11
-42.06
-36.47
-29.94
-23.09
-16.43
-10.28
-4.82
-0.08
4.0
7.48
10.5
13.15
15.5
17.57
19.33
20.75
21.8
22.47
22.75
22.67
22.31
21.82
21.39
21.26
21.56
22.31
23.35
24.38
25.06
25.15
24.57
23.41
21.92
20.34
18.84
17.46
16.12
14.71
13.13
11.36
9.43
7.37
5.19
2.91
0.58
-1.71
-3.81
-5.66
-7.29
-8.92
-10.83
-13.24
-16.15
-19.41
-22.77
-26.05
-29.2
-32.34
-35.66
-39.35
-43.56
-48.35
-53.66
-59.25
-64.66
-69.14
-71.89
-72.23
-69.92
-65.25
-58.98
-52.0
-45.13
-38.83
-33.2
-28.11
-23.32
-18.6
-13.73
-8.54
-2.9
3.24
9.78
16.44
22.84
28.59
33.51
37.6
41.11
44.32
47.49
50.71
53.9
56.8
59.16
60.75
61.49
61.38
60.52
59.0
56.89
54.18
50.9
47.06
42.79
38.23
33.51
28.75
23.96
19.16
14.39
9.78
5.48
1.68
-1.55
-4.31
-6.74
-9.08
-11.46
-13.94
-16.45
-18.86
-21.08
-23.1
-24.99
-26.86
-28.8
-30.9
-33.18
-35.65
-38.28
-40.92
-43.25
-44.76
-44.85
-43.05
-39.23
-33.69
-27.07
-20.15
-13.57
-7.7
-2.6
1.86
5.86
9.53
12.97
16.23
19.28
22.02
24.3
25.93
26.7
26.53
25.46
23.7
21.56
19.39
17.52
16.22
15.58
15.52
15.87
16.36
16.83
17.19
17.48
17.78
18.13
18.44
18.57
18.29
17.43
15.94
13.87
11.39
8.7
5.98
3.38
0.97
-1.18
-3.08
-4.79
-6.41
-8.12
-10.09
-12.52
-15.57
-19.38
-24.05
-29.61
-35.87
-42.36
-48.36
-52.99
-55.48
-55.39
-52.76
-48.11
-42.2
-35.8
-29.49
-23.57
-18.11
-13.06
-8.35
-3.9
0.32
4.32
8.07
11.5
14.53
17.08
19.16
20.82
22.12
23.15
23.97
24.62
25.16
25.66
26.21
26.83
27.49
28.03
28.33
28.32
28.09
27.85
27.84
28.2
28.87
29.65
30.29
30.6
30.54
30.17
29.59
28.85
27.9
26.62
24.89
22.61
19.76
16.33
12.41
8.13
3.7
-0.64
-4.71
-8.5
-12.21
-16.24
-20.99
-26.69
-33.29
-40.31
-47.02
-52.53
-56.1
-57.21
-55.79
-52.15
-46.84
-40.6
-34.05
-27.71
-21.88
-16.69
-12.12
-8.09
-4.48
-1.21
1.76
4.41
6.67
8.47
9.77
10.61
11.12
11.45
11.79
12.29
13.06
14.06
15.18
16.19
16.87
17.06
16.75
16.06
15.21
14.4
13.73
13.16
12.52
11.61
10.28
8.52
6.48
4.34
2.3
0.4
-1.42
-3.29
-5.36
-7.68
-10.21
-12.89
-15.62
-18.35
-21.03
-23.69
-26.39
-29.27
-32.5
-36.22
-40.45
-44.89
-48.93
-51.8
-52.74
-51.37
-47.78
-42.45
-36.11
-29.41
-22.78
-16.46
-10.57
-5.21
-0.49
3.51
6.83
9.65
12.2
14.65
17.02
19.24
21.16
22.71
23.94
24.92
25.74
26.43
26.99
27.42
27.75
28.05
28.31
28.46
28.31
27.69
26.52
24.87
22.97
21.07
19.35
17.81
16.25
14.37
11.94
8.88
5.31
1.53
-2.15
-5.46
-8.33
-10.89
-13.39
-16.13
-19.34
-23.14
-27.48
-32.12
-36.69
-40.65
-43.43
-44.51
-43.54
-40.45
-35.49
-29.21
-22.25
-15.27
-8.74
-2.93
2.11
6.47
10.25
13.56
16.45
18.96
21.11
22.95
24.48
25.69
26.53
26.96
27.05
26.89
26.68
26.55
26.6
26.83
27.19
27.58
27.87
27.94
27.63
26.86
25.57
23.79
21.65
19.34
17.04
14.9
12.96
11.13
9.28
7.22
4.83
2.07
-1.02
-4.31
-7.67
-10.96
-14.1
-17.06
-19.84
-22.55
-25.36
-28.52
-32.15
-36.23
-40.39
-44.01
-46.27
-46.51
-44.39
-40.03
-33.93
-26.85
-19.53
-12.58
-6.38
-1.07
3.35
7.02
10.14
12.9
15.45
17.82
19.93
21.67
22.94
23.7
24.03
24.09
24.05
24.05
24.16
24.4
24.69
24.97
25.13
25.04
24.58
23.66
22.24
20.4
18.27
16.04
13.89
11.88
9.99
8.07
5.98
3.64
1.08
-1.58
-4.19
-6.63
-8.94
-11.27
-13.86
-16.95
-20.68
-25.04
-29.78
-34.37
-38.12
-40.3
-40.37
-38.17
-33.95
-28.27
-21.87
-15.37
-9.25
-3.77
0.97
4.98
8.37
11.29
13.94
16.45
18.83
20.98
22.71
23.92
24.56
24.78
24.73
24.62
24.53
24.52
24.6
24.76
24.94
25.05
24.95
24.47
23.46
21.91
19.88
17.52
15.03
12.54
10.12
7.8
5.51
3.22
0.89
-1.47
-3.79
-6.01
-8.08
-10.01
-11.96
-14.19
-17.02
-20.72
-25.31
-30.51
-35.7
-40.07
-42.78
-43.24
-41.26
-37.04
-31.11
-24.15
-16.86
-9.79
-3.3
2.45
7.41
11.64
15.22
18.24
20.78
22.98
24.89
26.51
27.8
28.62
28.89
28.59
27.84
26.89
26.06
25.58
25.56
25.89
26.35
26.65
26.57
26.0
24.96
23.57
21.98
20.34
18.78
17.34
16.03
14.77
13.47
12.02
10.39
8.6
6.72
4.83
2.94
1.0
-1.09
-3.41
-5.97
-8.7
-11.45
-14.1
-16.59
-18.94
-21.32
-23.92
-26.92
-30.3
-33.82
-36.96
-39.08
-39.6
-38.16
-34.81
-29.92
-24.08
-17.94
-11.98
-6.51
-1.67
2.51
6.03
8.93
11.28
13.18
14.72
15.98
17.03
17.92
18.69
19.38
20.02
20.66
21.23
21.7
22.0
22.14
22.16
22.16
22.19
22.27
22.28
22.11
21.64
20.84
19.73
18.42
17.02
15.59
14.14
12.63
11.0
9.25
7.44
5.68
4.1
2.76
1.59
0.41
-0.97
-2.71
-4.82
-7.21
-9.67
-11.98
-14.03
-15.78
-17.32
-18.85
-20.57
-22.66
-25.16
-27.92
-30.58
-32.68
-33.72
-33.36
-31.49
-28.32
-24.21
-19.67
-15.14
-10.93
-7.18
-3.88
-0.97
1.64
3.98
6.1
8.03
9.79
11.43
12.92
14.21
15.18
15.77
15.98
15.89
15.71
15.62
15.74
16.04
16.34
16.42
16.15
15.5
14.57
13.54
12.56
11.67
10.82
9.94
8.99
7.96
6.93
5.95
5.02
4.1
3.1
1.93
0.55
-1.0
-2.68
-4.44
-6.24
-8.09
-9.96
-11.79
-13.52
-15.13
-16.65
-18.21
-19.97
-22.05
-24.47
-27.08
-29.56
-31.51
-32.52
-32.28
-30.66
-27.8
-24.01
-19.77
-15.55
-11.73
-8.48
-5.81
-3.59
-1.68
0.05
1.65
3.12
4.45
5.64
6.7
7.68
8.58
9.38
10.08
10.65
11.06
11.35
11.55
11.68
11.73
11.64
11.34
10.75
9.83
8.62
7.26
5.91
4.7
3.68
2.82
1.96
1.01
-0.14
-1.52
-3.06
-4.71
-6.4
-8.13
-9.9
-11.8
-13.85
-16.09
-18.52
-21.09
-23.62
-25.88
-27.55
-28.3
-27.94
-26.4
-23.83
-20.49
-16.73
-12.92
-9.37
-6.25
-3.63
-1.46
0.41
2.09
3.66
5.11
6.36
7.34
7.99
8.35
8.49
8.5
8.42
8.25
7.95
7.54
7.1
6.73
6.53
6.5
6.54
6.49
6.18
5.54
4.65
3.67
2.77
2.01
1.34
0.63
-0.25
-1.37
-2.71
-4.24
-5.9
-7.67
-9.5
-11.36
-13.22
-15.06
-16.91
-18.86
-21.01
-23.46
-26.2
-29.03
-31.61
-33.46
-34.1
-33.24
-30.87
-27.3
-23.06
-18.7
-14.64
-11.09
-8.03
-5.35
-2.91
-0.68
1.35
3.13
4.67
5.96
7.04
7.92
8.59
9.04
9.3
9.48
9.75
10.27
11.15
12.33
13.63
14.78
15.56
15.84
15.67
15.18
14.56
13.93
13.29
12.6
11.74
10.67
9.4
8.05
6.69
5.39
4.13
2.81
1.29
-0.54
-2.67
-5.0
-7.38
-9.68
-11.86
-13.99
-16.17
-18.49
-20.99
-23.69
-26.57
-29.65
-32.88
-36.16
-39.18
-41.51
-42.67
-42.28
-40.18
-36.54
-31.81
-26.6
-21.53
-17.03
-13.29
-10.24
-7.65
-5.28
-3.01
-0.89
0.98
2.5
3.65
4.53
5.25
5.86
6.32
6.54
6.52
6.37
6.28
6.45
6.97
7.85
8.94
10.12
11.28
12.35
13.32
14.18
14.91
15.5
15.95
16.27
16.5
16.68
16.83
16.94
16.95
16.8
16.44
15.88
15.17
14.39
13.65
12.99
12.41
11.9
11.46
11.16
11.09
11.32
11.82
12.35
12.54
11.99
10.37
7.58
3.8
-0.52
-4.81
-8.47
-11.0
-12.13
-11.78
-10.1
-7.44
-4.21
-0.89
2.18
4.82
6.97
8.71
10.11
11.25
12.16
12.8
13.18
13.23
12.96
12.4
11.6
10.67
9.75
8.98
8.46
8.27
8.41
8.84
9.51
10.29
11.1
11.84
12.45
12.91
13.21
13.29
13.08
12.49
11.49
10.11
8.43
6.55
4.47
2.2
-0.25
-2.78
-5.2
-7.34
-9.08
-10.51
-11.88
-13.51
-15.68
-18.47
-21.75
-25.2
-28.4
-30.87
-32.26
-32.3
-30.9
-28.17
-24.38
-19.87
-15.06
-10.33
-5.93
-1.99
1.47
4.55
7.33
9.83
12.01
13.78
15.07
15.88
16.28
16.42
16.44
16.42
16.46
16.57
16.74
16.92
17.02
16.96
16.64
16.03
15.12
13.98
12.64
11.14
9.46
7.59
5.55
3.44
1.39
-0.47
-2.1
-3.57
-5.06
-6.77
-8.84
-11.31
-14.05
-16.78
-19.13
-20.72
-21.19
-20.31
-18.04
-14.59
-10.34
-5.78
-1.38
2.59
5.99
8.89
11.4
13.62
15.56
17.17
18.4
19.24
19.69
19.81
19.66
19.3
18.8
18.24
17.7
17.24
16.89
16.61
16.39
16.14
15.75
15.14
14.25
13.13
11.89
10.66
9.48
8.31
6.96
5.28
3.18
0.74
-1.81
-4.25
-6.39
-8.18
-9.69
-11.05
-12.42
-13.95
-15.78
-17.98
-20.51
-23.18
-25.62
-27.4
-28.09
-27.44
-25.43
-22.28
-18.39
-14.19
-10.06
-6.29
-3.02
-0.24
2.14
4.26
6.28
8.29
10.29
12.21
13.94
15.32
16.3
16.87
17.07
17.02
16.84
16.63
16.45
16.35
16.28
16.16
15.92
15.51
14.95
14.32
13.69
13.08
12.51
11.92
11.23
10.37
9.27
7.94
6.43
4.83
3.26
1.8
0.51
-0.61
-1.66
-2.74
-3.96
-5.42
-7.13
-9.05
-11.07
-13.03
-14.83
-16.45
-17.98
-19.63
-21.64
-24.11
-26.9
-29.65
-31.79
-32.74
-32.12
-29.86
-26.24
-21.8
-17.14
-12.74
-8.87
-5.57
-2.7
-0.11
2.35
4.75
7.05
9.2
11.15
12.83
14.22
15.3
16.1
16.63
16.95
17.14
17.34
17.68
18.24
19.03
19.9
20.66
21.11
21.15
20.8
20.14
19.32
18.4
17.44
16.46
15.5
14.6
13.75
12.91
11.99
10.91
9.64
8.25
6.9
5.76
4.93
4.43
4.17
4.0
3.77
3.33
2.68
1.84
0.91
0.01
-0.81
-1.54
-2.28
-3.15
-4.25
-5.61
-7.19
-8.87
-10.54
-12.13
-13.67
-15.24
-16.96
-18.93
-21.24
-23.88
-26.77
-29.69
-32.3
-34.14
-34.79
-33.98
-31.69
-28.21
-24.03
-19.68
-15.6
-12.03
-9.03
-6.53
-4.4
-2.52
-0.78
0.91
2.53
4.05
5.34
6.32
6.92
7.18
7.22
7.21
7.27
7.51
7.92
8.5
9.21
9.97
10.7
11.24
11.48
11.32
10.76
9.84
8.67
7.34
5.93
4.51
3.15
1.95
0.94
0.11
-0.62
-1.39
-2.32
-3.47
-4.79
-6.2
-7.57
-8.82
-9.92
-10.94
-12.01
-13.29
-14.94
-17.0
-19.42
-21.99
-24.37
-26.22
-27.19
-27.03
-25.61
-23.03
-19.54
-15.54
-11.54
-7.94
-5.02
-2.81
-1.16
0.23
1.61
3.14
4.81
6.48
7.99
9.16
9.94
10.34
10.48
10.49
10.53
10.69
10.98
11.4
11.88
12.37
12.79
13.05
13.06
12.77
12.14
11.25
10.26
9.32
8.63
8.2
7.97
7.75
7.34
6.56
5.39
3.92
2.35
0.88
-0.35
-1.34
-2.2
-3.11
-4.26
-5.73
-7.5
-9.5
-11.6
-13.73
-15.8
-17.79
-19.64
-21.38
-23.06
-24.85
-26.9
-29.31
-32.0
-34.67
-36.84
-38.03
-37.87
-36.25
-33.34
-29.56
-25.4
-21.3
-17.55
-14.24
-11.33
-8.69
-6.2
-3.85
-1.66
0.33
2.1
3.71
5.28
6.91
8.62
10.35
11.96
13.29
14.3
15.01
15.54
16.01
16.47
16.88
17.11
17.04
16.65
16.08
15.48
15.06
14.85
14.8
14.71
14.4
13.75
12.78
11.6
10.34
9.11
7.9
6.69
5.43
4.12
2.77
1.39
-0.06
-1.71
-3.61
-5.82
-8.24
-10.69
-13.02
-15.15
-17.14
-19.13
-21.26
-23.65
-26.38
-29.5
-33.0
-36.81
-40.64
-44.01
-46.34
-47.08
-45.98
-43.11
-38.89
-33.88
-28.63
-23.57
-18.95
-14.91
-11.41
-8.37
-5.59
-2.86
0.0
3.07
6.21
9.2
11.75
13.71
15.13
16.21
17.25
18.42
19.77
21.14
22.28
23.03
23.33
23.29
23.06
22.77
22.43
22.0
21.44
20.74
19.96
19.12
18.21
17.14
15.82
14.2
12.33
10.32
8.34
6.47
4.72
3.01
1.2
-0.83
-3.16
-5.77
-8.57
-11.38
-14.04
-16.45
-18.55
-20.42
-22.25
-24.31
-26.91
-30.28
-34.45
-39.11
-43.61
-47.09
-48.71
-47.98
-44.93
-40.05
-34.12
-27.88
-21.87
-16.28
-11.13
-6.34
-1.88
2.3
6.23
9.95
13.47
16.72
19.52
21.66
23.06
23.84
24.28
24.69
25.3
26.15
27.1
28.0
28.71
29.26
29.66
29.92
29.94
29.61
28.82
27.6
26.1
24.47
22.82
21.14
19.32
17.26
14.94
12.46
9.94
7.48
5.07
2.58
-0.13
-3.13
-6.42
-9.86
-13.3
-16.62
-19.79
-22.92
-26.16
-29.78
-33.98
-38.82
-44.08
-49.21
-53.46
-56.02
-56.29
-54.07
-49.56
-43.29
-35.91
-28.07
-20.29
-12.97
-6.33
-0.45
4.76
9.47
13.93
18.25
22.43
26.31
29.67
32.33
34.26
35.56
36.45
37.2
37.98
38.95
40.08
41.24
42.25
42.9
43.08
42.78
42.09
41.15
40.08
38.96
37.78
36.47
35.01
33.37
31.6
29.78
28.02
26.4
24.95
23.57
22.08
20.32
18.16
15.65
12.91
10.11
7.41
4.81
2.21
-0.5
-3.48
-6.79
-10.39
-14.21
-18.12
-22.0
-25.8
-29.51
-33.29
-37.34
-41.92
-47.19
-53.05
-59.05
-64.37
-68.07
-69.23
-67.31
-62.31
-54.76
-45.57
-35.77
-26.21
-17.45
-9.69
-2.9
3.09
8.46
13.4
17.99
22.31
26.33
29.96
33.1
35.63
37.49
38.76
39.58
40.16
40.69
41.25
41.89
42.54
43.12
43.53
43.67
43.52
43.03
42.24
41.18
39.89
38.46
36.91
35.28
33.58
31.81
29.96
28.03
26.03
23.92
21.68
19.27
16.66
13.84
10.89
7.92
5.0
2.13
-0.78
-3.9
-7.3
-10.95
-14.7
-18.34
-21.77
-25.04
-28.35
-31.95
-36.09
-40.92
-46.43
-52.44
-58.48
-63.82
-67.52
-68.68
-66.66
-61.37
-53.28
-43.36
-32.75
-22.53
-13.4
-5.64
0.86
6.42
11.45
16.22
20.8
25.09
28.91
32.09
34.57
36.33
37.44
37.96
38.05
37.91
37.81
38.0
38.6
39.51
40.46
41.12
41.22
40.7
39.66
38.26
36.62
34.82
32.77
30.42
27.71
24.68
21.41
18.06
14.76
11.62
8.61
5.63
2.51
-0.91
-4.68
-8.74
-12.94
-17.07
-21.0
-24.72
-28.43
-32.42
-37.01
-42.35
-48.27
-54.17
-59.09
-61.98
-61.99
-58.78
-52.59
-44.18
-34.55
-24.74
-15.51
-7.32
-0.28
5.77
11.09
15.97
20.58
24.9
28.78
32.03
34.5
36.14
37.07
37.42
37.34
36.98
36.51
36.1
35.94
36.16
36.69
37.38
37.93
38.09
37.75
36.93
35.77
34.37
32.8
31.06
29.11
27.0
24.76
22.46
20.15
17.8
15.36
12.79
10.1
7.33
4.56
1.84
-0.86
-3.64
-6.63
-9.98
-13.71
-17.79
-22.04
-26.21
-30.08
-33.52
-36.6
-39.63
-43.04
-47.23
-52.44
-58.54
-65.05
-71.14
-75.86
-78.27
-77.69
-73.83
-66.9
-57.54
-46.74
-35.6
-25.06
-15.74
-7.8
-1.05
4.87
10.34
15.57
20.59
25.28
29.45
32.92
35.59
37.43
38.51
39.0
39.11
39.11
39.23
39.65
40.39
41.36
42.34
43.03
43.19
42.7
41.6
40.06
38.28
36.42
34.56
32.71
30.79
28.78
26.67
24.46
22.2
19.87
17.45
14.92
12.26
9.49
6.68
3.86
1.06
-1.75
-4.65
-7.74
-11.1
-14.73
-18.59
-22.51
-26.33
-29.96
-33.37
-36.64
-40.01
-43.81
-48.39
-53.96
-60.46
-67.37
-73.76
-78.45
-80.35
-78.74
-73.51
-65.24
-54.89
-43.58
-32.35
-21.89
-12.61
-4.66
2.02
7.62
12.43
16.75
20.81
24.74
28.48
31.84
34.6
36.59
37.82
38.44
38.71
38.88
39.11
39.48
39.94
40.36
40.59
40.46
39.87
38.78
37.23
35.32
33.21
31.13
29.23
27.6
26.19
24.78
23.12
21.0
18.36
15.33
12.21
9.25
6.58
4.11
1.6
-1.15
-4.28
-7.72
-11.29
-14.81
-18.17
-21.34
-24.38
-27.4
-30.53
-33.98
-37.97
-42.7
-48.17
-54.08
-59.72
-64.05
-65.97
-64.63
-59.77
-51.82
-41.81
-31.03
-20.67
-11.48
-3.74
2.67
8.06
12.68
16.71
20.25
23.4
26.24
28.82
31.1
32.98
34.35
35.19
35.58
35.7
35.78
35.97
36.33
36.76
37.11
37.17
36.78
35.86
34.45
32.68
30.76
28.86
27.07
25.35
23.63
21.78
19.7
17.34
14.66
11.71
8.54
5.25
1.97
-1.23
-4.32
-7.4
-10.61
-14.08
-17.82
-21.76
-25.73
-29.62
-33.39
-37.19
-41.33
-46.11
-51.7
-57.93
-64.28
-69.81
-73.46
-74.28
-71.71
-65.8
-57.15
-46.79
-35.87
-25.37
-15.96
-7.93
-1.21
4.44
9.4
14.0
18.46
22.81
26.91
30.51
33.34
35.22
36.18
36.42
36.29
36.14
36.2
36.55
37.12
37.73
38.2
38.39
38.26
37.77
36.97
35.9
34.62
33.2
31.66
30.02
28.25
26.3
24.15
21.78
19.23
16.56
13.85
11.19
8.63
6.2
3.86
1.57
-0.77
-3.25
-5.97
-8.95
-12.19
-15.63
-19.16
-22.7
-26.17
-29.55
-32.9
-36.35
-40.09
-44.37
-49.37
-55.14
-61.37
-67.41
-72.27
-74.86
-74.37
-70.46
-63.44
-54.16
-43.75
-33.31
-23.69
-15.35
-8.39
-2.59
2.39
6.97
11.43
15.92
20.36
24.54
28.21
31.12
33.18
34.41
34.99
35.12
35.08
35.09
35.3
35.76
36.41
37.06
37.51
37.59
37.22
36.39
35.16
33.65
31.97
30.23
28.5
26.83
25.2
23.56
21.85
20.0
17.97
15.78
13.45
11.07
8.71
6.41
4.19
1.95
-0.42
-3.07
-6.13
-9.61
-13.42
-17.42
-21.43
-25.3
-28.99
-32.49
-35.87
-39.29
-42.95
-47.1
-51.84
-57.07
-62.24
-66.44
-68.63
-67.92
-63.95
-57.03
-48.03
-38.08
-28.2
-19.13
-11.19
-4.46
1.19
5.91
9.92
13.46
16.71
19.79
22.63
25.05
26.85
27.95
28.47
28.64
28.76
29.0
29.44
30.02
30.62
31.13
31.45
31.49
31.15
30.37
29.11
27.43
25.44
23.28
21.06
18.84
16.56
14.12
11.42
8.44
5.29
2.15
-0.77
-3.36
-5.68
-7.94
-10.32
-12.93
-15.74
-18.61
-21.46
-24.33
-27.38
-30.88
-35.04
-39.88
-45.18
-50.43
-54.9
-57.74
-58.19
-55.83
-50.66
-43.22
-34.43
-25.34
-16.84
-9.45
-3.28
1.91
6.44
10.64
14.65
18.5
22.1
25.33
28.04
30.1
31.46
32.1
32.18
31.96
31.76
31.84
32.29
33.03
33.83
34.45
34.76
34.72
34.4
33.83
33.03
31.93
30.46
28.63
26.5
24.17
21.76
19.28
16.68
13.86
10.81
7.63
4.48
1.54
-1.12
-3.58
-6.05
-8.72
-11.72
-15.0
-18.41
-21.76
-24.93
-27.94
-30.87
-33.92
-37.35
-41.41
-46.27
-51.84
-57.65
-62.84
-66.36
-67.23
-64.91
-59.47
-51.57
-42.21
-32.47
-23.23
-15.06
-8.22
-2.67
1.84
5.69
9.28
12.94
16.73
20.49
23.85
26.45
28.07
28.76
28.79
28.53
28.31
28.37
28.78
29.47
30.31
31.08
31.56
31.57
31.0
29.84
28.25
26.46
24.68
23.11
21.76
20.53
19.24
17.69
15.73
13.37
10.71
7.92
5.23
2.78
0.61
-1.4
-3.4
-5.59
-8.08
-10.91
-14.01
-17.26
-20.54
-23.78
-26.97
-30.2
-33.61
-37.36
-41.6
-46.31
-51.27
-55.97
-59.68
-61.62
-61.14
-58.0
-52.37
-44.9
-36.5
-28.13
-20.57
-14.2
-9.04
-4.8
-1.05
2.55
6.17
9.74
13.13
16.21
18.93
21.32
23.45
25.32
26.9
28.17
29.13
29.89
30.54
31.18
31.74
32.15
32.29
32.1
31.59
30.78
29.64
28.09
26.03
23.42
20.35
16.98
13.53
10.2
7.07
4.12
1.27
-1.57
-4.44
-7.3
-10.05
-12.58
-14.81
-16.82
-18.79
-21.01
-23.79
-27.33
-31.58
-36.24
-40.72
-44.26
-46.15
-45.87
-43.25
-38.52
-32.2
-25.0
-17.63
-10.67
-4.5
0.73
5.03
8.55
11.51
14.1
16.47
18.62
20.49
21.93
22.84
23.18
23.04
22.57
21.96
21.34
20.75
20.21
19.71
19.29
19.03
18.95
18.98
18.92
18.53
17.64
16.22
14.4
12.41
10.47
8.73
7.18
5.7
4.11
2.25
0.06
-2.47
-5.26
-8.22
-11.24
-14.25
-17.17
-19.99
-22.76
-25.63
-28.79
-32.39
-36.39
-40.5
-44.16
-46.71
-47.57
-46.42
-43.3
-38.57
-32.78
-26.53
-20.36
-14.63
-9.49
-4.9
-0.6
3.72
8.31
13.3
18.59
23.92
28.97
33.47
37.24
40.22
42.43
43.98
45.01
45.76
46.43
47.19
48.06
48.89
49.38
49.19
48.08
45.94
42.91
39.21
35.16
30.96
26.73
22.42
17.9
13.03
7.75
2.17
-3.48
-8.87
-13.71
-17.85
-21.35
-24.46
-27.48
-30.73
-34.37
-38.39
-42.59
-46.63
-49.99
-52.13
-52.54
-50.89
-47.14
-41.61
-34.88
-27.68
-20.74
-14.59
-9.49
-5.41
-2.08
0.83
3.57
6.22
8.66
10.68
12.11
12.9
13.2
13.2
13.14
13.13
13.23
13.45
13.74
14.08
14.38
14.57
14.51
14.14
13.41
12.38
11.13
9.75
8.26
6.61
4.73
2.53
-0.05
-3.05
-6.43
-10.16
-14.17
-18.48
-23.12
-28.1
-33.3
-38.37
-42.66
-45.35
-45.63
-42.93
-37.19
-28.89
-18.95
-8.47
1.59
10.62
18.42
25.09
30.85
35.83
39.99
43.2
45.25
46.05
45.69
44.41
42.56
40.49
38.43
36.51
34.72
32.96
31.04
28.82
26.14
22.98
19.38
15.44
11.35
7.2
3.08
-0.99
-4.99
-8.87
-12.51
-15.74
-18.41
-20.47
-22.05
-23.45
-25.03
-27.11
-29.82
-33.07
-36.51
-39.67
-41.98
-42.94
-42.18
-39.52
-35.05
-29.12
-22.3
-15.27
-8.67
-2.88
1.91
5.8
9.04
11.88
14.47
16.82
18.83
20.36
21.32
21.71
21.63
21.24
20.66
19.99
19.32
18.7
18.17
17.78
17.48
17.19
16.76
16.06
15.0
13.54
11.75
9.71
7.56
5.37
3.18
0.98
-1.29
-3.65
-6.13
-8.73
-11.5
-14.54
-17.97
-21.87
-26.08
-30.19
-33.53
-35.41
-35.32
-33.13
-29.11
-23.86
-18.13
-12.55
-7.58
-3.38
0.08
2.94
5.39
7.6
9.64
11.52
13.21
14.66
15.86
16.84
17.65
18.3
18.79
19.1
19.21
19.11
18.85
18.49
18.05
17.51
16.78
15.74
14.27
12.37
10.18
7.92
5.87
4.25
3.11
2.35
1.81
1.35
0.93
0.66
0.67
1.03
1.64
2.2
2.33
1.66
-0.03
-2.77
-6.37
-10.43
-14.39
-17.67
-19.69
-20.13
-18.91
-16.33
-12.93
-9.33
-6.06
-3.4
-1.31
0.42
2.05
3.8
5.69
7.59
9.38
10.97
12.38
13.68
14.96
16.18
17.21
17.87
18.04
17.79
17.29
16.81
16.57
16.62
16.85
17.1
17.2
17.05
16.63
15.96
15.04
13.87
12.53
11.07
9.62
8.28
7.05
5.85
4.52
2.89
0.88
-1.47
-4.03
-6.58
-8.91
-10.9
-12.58
-14.1
-15.74
-17.74
-20.27
-23.3
-26.59
-29.79
-32.46
-34.23
-34.87
-34.24
-32.36
-29.34
-25.4
-20.81
-15.94
-11.18
-6.9
-3.34
-0.62
1.37
2.82
4.04
5.28
6.69
8.3
10.07
11.93
13.93
16.16
18.82
22.1
26.11
30.74
35.68
40.38
44.24
46.77
47.7
47.16
45.63
43.83
42.51
42.15
42.66
43.29
42.65
39.14
31.54
19.63
4.5
-11.6
-25.97
-36.44
-42.09
-43.53
-42.45
-40.76
-39.8
-39.95
-40.75
-41.43
-41.43
-40.59
-39.15
-37.42
-35.59
-33.69
-31.65
-29.57
-27.65
-26.19
-25.31
-24.87
-24.38
-23.21
-20.84
-17.05
-12.11
-6.61
-1.33
3.08
6.25
8.11
8.91
8.93
8.43
7.5
6.15
4.32
2.03
-0.54
-3.11
-5.35
-7.05
-8.14
-8.81
-9.28
-9.77
-10.37
-10.98
-11.47
-11.68
-11.57
-11.21
-10.74
-10.28
-9.94
-9.77
-9.73
-9.77
-9.83
-9.87
-9.93
-10.1
-10.48
-11.15
-12.12
-13.37
-14.81
-16.32
-17.74
-18.88
-19.55
-19.59
-18.9
-17.51
-15.58
-13.33
-11.04
-8.99
-7.37
-6.3
-5.82
-5.87
-6.34
-7.13
-8.18
-9.45
-10.96
-12.68
-14.59
-16.62
-18.66
-20.61
-22.33
-23.68
-24.56
-24.92
-24.75
-24.07
-22.93
-21.3
-19.16
-16.46
-13.2
-9.47
-5.47
-1.44
2.31
5.53
8.02
9.72
10.69
11.07
11.07
10.8
10.32
9.6
8.59
7.19
5.42
3.36
1.21
-0.69
-1.93
-2.12
-1.09
1.03
3.78
6.48
8.54
9.65
9.89
9.59
9.13
8.76
8.54
8.37
8.19
8.0
7.87
7.79
7.67
7.34
6.68
5.77
4.86
4.28
4.27
4.88
5.93
7.09
7.99
8.31
7.84
6.51
4.45
1.97
-0.48
-2.44
-3.61
-4.0
-3.94
-3.95
-4.5
-5.82
-7.82
-10.18
-12.52
-14.58
-16.29
-17.76
-19.19
-20.78
-22.6
-24.63
-26.74
-28.7
-30.19
-30.89
-30.48
-28.76
-25.77
-21.77
-17.25
-12.72
-8.63
-5.24
-2.6
-0.63
0.84
1.93
2.76
3.4
3.93
4.43
4.94
5.45
5.84
6.0
5.89
5.55
5.14
4.87
4.85
5.06
5.4
5.71
5.88
5.88
5.66
5.11
4.14
2.64
0.64
-1.68
-4.06
-6.26
-8.23
-10.09
-12.07
-14.39
-17.16
-20.34
-23.75
-27.16
-30.35
-33.1
-35.23
-36.48
-36.67
-35.56
-33.05
-29.02
-23.42
-16.26
-7.66
1.95
11.71
20.41
26.63
29.21
27.58
22.08
13.87
4.68
-3.63
-9.5
-11.99
-10.96
-7.05
-1.52
4.0
7.9
8.97
6.79
1.89
-4.29
-9.81
-12.71
-11.6
-6.04
3.22
14.38
25.07
32.97
36.55
35.46
30.55
23.46
15.88
8.94
2.98
-2.32
-7.47
-12.62
-17.42
-21.16
-23.16
-23.13
-21.3
-18.22
-14.57
-10.83
-7.26
-3.92
-0.82
1.98
4.36
6.23
7.54
8.42
9.1
9.89
11.0
12.47
14.11
15.57
16.44
16.46
15.59
14.06
12.2
10.35
8.7
7.26
5.9
4.44
2.76
0.85
-1.25
-3.41
-5.56
-7.63
-9.61
-11.5
-13.31
-15.0
-16.51
-17.81
-18.87
-19.75
-20.6
-21.64
-22.96
-24.48
-25.84
-26.5
-25.89
-23.63
-19.69
-14.42
-8.43
-2.39
3.15
7.88
11.76
14.91
17.6
20.01
22.26
24.37
26.34
28.15
29.95
31.92
34.24
36.9
39.66
42.03
43.49
43.61
42.29
39.71
36.24
32.29
28.17
24.12
20.3
16.83
13.83
11.24
8.82
6.06
2.33
-2.97
-10.06
-18.66
-27.89
-36.49
-43.17
-47.12
-48.23
-47.18
-45.04
-42.83
-41.05
-39.56
-37.76
-35.0
-30.9
-25.5
-19.19
-12.48
-5.82
0.52
6.38
11.71
16.47
20.62
24.21
27.24
29.79
31.93
33.73
35.24
36.54
37.65
38.55
39.18
39.43
39.22
38.56
37.53
36.28
34.94
33.56
32.12
30.5
28.57
26.3
23.8
21.22
18.76
16.47
14.25
11.86
9.09
5.87
2.29
-1.4
-4.95
-8.21
-11.24
-14.27
-17.63
-21.56
-26.13
-31.04
-35.65
-39.09
-40.48
-39.22
-35.19
-28.76
-20.77
-12.18
-3.84
3.68
10.12
15.52
20.02
23.79
26.97
29.59
31.65
33.1
33.9
34.09
33.78
33.11
32.23
31.25
30.25
29.3
28.46
27.8
27.3
26.85
26.2
25.14
23.51
21.36
18.89
16.3
13.74
11.18
8.51
5.63
2.59
-0.44
-3.24
-5.69
-7.85
-9.93
-12.27
-15.17
-18.84
-23.32
-28.42
-33.73
-38.62
-42.3
-43.99
-43.16
-39.66
-33.8
-26.29
-18.01
-9.82
-2.38
3.94
9.07
13.1
16.24
18.72
20.73
22.37
23.68
24.65
25.23
25.46
25.44
25.34
25.39
25.72
26.37
27.27
28.29
29.28
30.1
30.62
30.71
30.27
29.18
27.44
25.17
22.56
19.84
17.15
14.5
11.82
9.02
6.02
2.89
-0.25
-3.25
-5.99
-8.49
-10.81
-12.98
-14.84
-16.05
-16.12
-14.6
-11.33
-6.54
-0.9
4.69
9.37
12.54
14.07
14.17
13.34
12.11
11.02
10.41
10.5
11.31
12.68
14.34
15.95
17.16
17.8
17.87
17.58
17.2
16.96
16.85
16.62
15.78
13.83
10.41
5.5
-0.55
-7.13
-13.49
-19.0
-23.26
-26.19
-27.97
-28.94
-29.4
-29.54
-29.39
-28.94
-28.27
-27.7
-27.66
-28.53
-30.45
-33.15
-36.15
-38.96
-41.35
-43.51
-45.94
-49.2
-53.55
-58.74
-63.98
-68.13
-70.01
-68.72
-63.9
-55.84
-45.34
-33.51
-21.46
-10.07
0.1
8.82
16.12
22.12
27.01
30.89
33.88
36.03
37.44
38.23
38.56
38.57
38.38
38.03
37.55
36.98
36.36
35.76
35.27
34.92
34.69
34.51
34.29
33.87
33.11
31.86
30.04
27.7
25.02
22.21
19.49
16.97
14.59
12.2
9.6
6.67
3.4
-0.09
-3.6
-6.97
-10.15
-13.21
-16.34
-19.78
-23.76
-28.47
-33.97
-40.15
-46.61
-52.61
-57.15
-59.25
-58.18
-53.8
-46.58
-37.47
-27.57
-17.89
-9.13
-1.64
4.49
9.35
13.13
16.11
18.57
20.75
22.76
24.58
26.09
27.24
27.96
28.33
28.42
28.36
28.29
28.35
28.72
29.49
30.57
31.68
32.37
32.24
31.07
28.91
26.08
22.98
19.93
17.05
14.28
11.42
8.29
4.81
1.05
-2.83
-6.6
-10.05
-13.09
-15.8
-18.38
-21.19
-24.6
-28.87
-33.99
-39.62
-45.06
-49.33
-51.45
-50.65
-46.7
-39.9
-31.1
-21.34
-11.65
-2.8
4.81
11.09
16.16
20.22
23.47
26.05
28.05
29.55
30.63
31.36
31.8
31.99
31.93
31.64
31.18
30.63
30.1
29.63
29.18
28.62
27.77
26.49
24.74
22.56
20.1
17.53
14.99
12.61
10.36
8.16
5.82
3.11
-0.09
-3.78
-7.77
-11.75
-15.45
-18.72
-21.62
-24.41
-27.45
-31.09
-35.52
-40.64
-46.04
-50.98
-54.53
-55.79
-54.13
-49.4
-42.01
-32.84
-22.97
-13.43
-4.95
2.17
7.93
12.59
16.4
19.57
22.21
24.39
26.15
27.56
28.65
29.45
29.97
30.23
30.31
30.34
30.43
30.67
31.05
31.52
31.97
32.34
32.54
32.46
31.99
31.03
29.53
27.59
25.41
23.17
20.97
18.74
16.26
13.35
9.92
6.05
1.93
-2.26
-6.44
-10.6
-14.73
-18.75
-22.5
-25.84
-28.82
-31.67
-34.8
-38.56
-43.01
-47.76
-51.98
-54.65
-54.83
-52.04
-46.43
-38.69
-29.85
-20.93
-12.72
-5.57
0.47
5.61
10.07
14.01
17.52
20.59
23.22
25.42
27.23
28.68
29.72
30.31
30.42
30.08
29.43
28.66
27.97
27.44
27.05
26.62
25.95
24.88
23.36
21.48
19.39
17.26
15.21
13.29
11.46
9.68
7.9
6.02
4.03
1.88
-0.42
-2.86
-5.39
-7.95
-10.47
-12.89
-15.17
-17.33
-19.4
-21.48
-23.68
-26.11
-28.89
-32.09
-35.64
-39.29
-42.54
-44.75
-45.23
-43.54
-39.6
-33.77
-26.75
-19.36
-12.3
-6.03
-0.69
3.73
7.41
10.46
12.99
15.09
16.81
18.26
19.49
20.52
21.27
21.63
21.49
20.82
19.73
18.39
17.07
15.98
15.23
14.77
14.38
13.8
12.82
11.35
9.52
7.55
5.68
4.05
2.62
1.26
-0.19
-1.82
-3.57
-5.38
-7.18
-8.97
-10.79
-12.65
-14.51
-16.3
-18.03
-19.87
-22.06
-24.8
-28.06
-31.47
-34.39
-36.08
-36.01
-33.95
-30.11
-24.96
-19.08
-13.01
-7.17
-1.83
2.85
6.84
10.11
12.75
14.83
16.44
17.69
18.72
19.69
20.67
21.7
22.71
23.51
24.0
24.16
24.13
24.06
24.1
24.28
24.5
24.63
24.55
24.17
23.35
21.95
19.81
16.93
13.53
10.06
7.0
4.74
3.37
2.69
2.38
2.11
1.73
1.26
0.86
0.75
1.15
2.24
4.11
6.7
9.68
12.41
14.04
13.76
11.13
6.34
0.38
-5.21
-8.77
-9.07
-5.65
1.03
9.83
19.28
27.99
34.94
39.63
42.01
42.47
41.6
40.06
38.25
36.15
33.22
28.58
21.35
11.03
-2.13
-17.12
-32.37
-46.05
-56.53
-62.61
-63.83
-60.45
-53.41
-44.12
-34.13
-24.87
-17.32
-11.9
-8.4
-6.24
-4.68
-3.27
-1.98
-1.24
-1.69
-3.8
-7.61
-12.62
-18.01
-22.92
-26.8
-29.49
-31.07
-31.69
-31.43
-30.34
-28.59
-26.6
-24.99
-24.38
-25.13
-27.12
-29.82
-32.41
-34.05
-34.16
-32.55
-29.46
-25.47
-21.26
-17.5
-14.56
-12.5
-11.06
-9.85
-8.47
-6.72
-4.53
-2.01
0.76
3.69
6.67
9.55
12.09
14.06
15.3
15.83
15.82
15.55
15.3
15.22
15.28
15.36
15.25
14.78
13.87
12.55
10.95
9.26
7.64
6.2
4.93
3.75
2.53
1.22
-0.24
-1.79
-3.41
-5.05
-6.73
-8.48
-10.33
-12.34
-14.55
-17.04
-19.88
-23.08
-26.46
-29.61
-32.0
-32.99
-32.17
-29.47
-25.19
-19.93
-14.43
-9.25
-4.73
-0.92
2.35
5.26
8.0
10.61
13.02
15.1
16.71
17.76
18.28
18.41
18.37
18.4
18.61
18.97
19.38
19.68
19.78
19.65
19.35
18.89
18.27
17.45
16.41
15.18
13.84
12.48
11.16
9.9
8.66
7.4
6.06
4.59
2.95
1.12
-0.93
-3.15
-5.5
-7.92
-10.33
-12.68
-14.91
-17.02
-19.06
-21.21
-23.72
-26.8
-30.46
-34.45
-38.17
-40.88
-41.92
-40.9
-37.87
-33.21
-27.54
-21.43
-15.39
-9.69
-4.54
-0.02
3.83
7.05
9.73
12.0
13.99
15.74
17.22
18.35
19.06
19.34
19.25
18.91
18.49
18.13
17.93
17.98
18.25
18.62
18.92
19.01
18.78
18.29
17.65
17.0
16.35
15.62
14.66
13.34
11.65
9.7
7.69
5.8
4.15
2.76
1.58
0.55
-0.39
-1.31
-2.26
-3.3
-4.52
-5.96
-7.66
-9.62
-11.77
-14.02
-16.25
-18.35
-20.28
-22.1
-24.01
-26.27
-29.13
-32.64
-36.56
-40.33
-43.15
-44.26
-43.14
-39.74
-34.5
-28.2
-21.69
-15.61
-10.28
-5.69
-1.65
2.04
5.5
8.73
11.69
14.37
16.78
18.98
21.0
22.82
24.37
25.57
26.34
26.71
26.78
26.69
26.57
26.52
26.53
26.56
26.53
26.35
25.94
25.27
24.31
23.07
21.59
19.95
18.26
16.66
15.24
14.07
13.14
12.37
11.63
10.76
9.58
7.97
5.91
3.53
1.04
-1.34
-3.5
-5.45
-7.26
-8.99
-10.63
-12.07
-13.25
-14.19
-15.07
-16.15
-17.73
-20.02
-22.96
-26.31
-29.56
-32.07
-33.21
-32.54
-29.92
-25.59
-20.07
-14.05
-8.18
-2.9
1.61
5.37
8.54
11.27
13.69
15.85
17.77
19.5
21.1
22.61
24.08
25.46
26.74
27.92
29.05
30.17
31.31
32.41
33.37
34.13
34.65
35.0
35.25
35.44
35.52
35.41
35.07
34.53
33.95
33.55
33.6
34.35
36.04
38.72
42.21
45.89
48.71
49.43
46.94
40.72
31.15
19.37
6.9
-4.95
-15.5
-24.75
-33.03
-40.53
-47.0
-51.86
-54.5
-54.71
-52.77
-49.31
-44.95
-40.13
-35.09
-30.05
-25.29
-21.21
-18.07
-15.82
-14.03
-12.07
-9.39
-5.85
-1.74
2.3
5.54
7.46
7.84
6.84
4.92
2.65
0.56
-0.98
-1.84
-2.09
-1.89
-1.42
-0.82
-0.21
0.32
0.67
0.71
0.39
-0.24
-1.03
-1.74
-2.19
-2.33
-2.3
-2.36
-2.79
-3.78
-5.32
-7.25
-9.29
-11.25
-13.0
-14.62
-16.28
-18.15
-20.33
-22.75
-25.28
-27.76
-30.15
-32.53
-35.07
-37.95
-41.34
-45.27
-49.67
-54.3
-58.67
-62.16
-64.08
-63.88
-61.38
-56.85
-50.85
-44.14
-37.36
-30.91
-24.94
-19.46
-14.35
-9.52
-4.84
-0.22
4.39
8.92
13.18
16.96
20.1
22.64
24.72
26.55
28.28
29.93
31.4
32.54
33.3
33.69
33.79
33.68
33.38
32.82
31.93
30.66
29.08
27.35
25.68
24.29
23.24
22.45
21.73
20.85
19.66
18.12
16.31
14.35
12.36
10.43
8.56
6.74
4.91
3.01
0.96
-1.3
-3.8
-6.55
-9.45
-12.42
-15.39
-18.35
-21.42
-24.78
-28.62
-33.02
-37.82
-42.6
-46.72
-49.52
-50.44
-49.27
-46.16
-41.58
-36.18
-30.58
-25.25
-20.45
-16.23
-12.5
-9.06
-5.74
-2.41
0.9
4.08
6.93
9.3
11.13
12.51
13.59
14.58
15.64
16.9
18.39
20.15
22.17
24.35
26.54
28.55
30.2
31.4
32.15
32.59
32.87
33.07
33.21
33.16
32.84
32.17
31.22
30.06
28.77
27.29
25.53
23.34
20.65
17.55
14.21
10.82
7.5
4.19
0.8
-2.85
-6.89
-11.39
-16.32
-21.55
-26.8
-31.61
-35.4
-37.65
-38.02
-36.49
-33.34
-29.11
-24.35
-19.55
-15.0
-10.82
-7.02
-3.54
-0.32
2.68
5.48
8.02
10.27
12.17
13.68
14.82
15.63
16.23
16.71
17.12
17.51
17.87
18.21
18.52
18.81
19.06
19.21
19.18
18.92
18.45
17.84
17.21
16.61
16.05
15.44
14.69
13.73
12.61
11.46
10.39
9.51
8.77
8.06
7.2
6.04
4.49
2.61
0.56
-1.47
-3.33
-5.01
-6.65
-8.47
-10.61
-13.1
-15.8
-18.45
-20.87
-23.01
-25.01
-27.09
-29.46
-32.24
-35.43
-38.9
-42.35
-45.37
-47.41
-47.96
-46.64
-43.41
-38.58
-32.72
-26.51
-20.53
-15.14
-10.51
-6.61
-3.3
-0.34
2.47
5.27
8.09
10.8
13.2
15.15
16.61
17.65
18.44
19.06
19.57
19.98
20.3
20.63
21.04
21.53
22.02
22.31
22.24
21.75
20.9
19.87
18.82
17.78
16.72
15.52
14.14
12.57
10.92
9.27
7.67
6.11
4.53
2.9
1.19
-0.54
-2.27
-3.97
-5.66
-7.42
-9.32
-11.46
-13.83
-16.4
-19.05
-21.69
-24.23
-26.73
-29.29
-32.05
-35.12
-38.57
-42.39
-46.46
-50.51
-54.06
-56.46
-57.05
-55.37
-51.39
-45.48
-38.34
-30.72
-23.24
-16.17
-9.53
-3.24
2.78
8.49
13.8
18.62
22.92
26.76
30.16
33.11
35.53
37.33
38.46
38.95
38.93
38.6
38.13
37.62
37.1
36.52
35.77
34.73
33.32
31.52
29.35
26.95
24.44
21.95
19.52
17.14
14.75
12.28
9.73
7.14
4.56
2.05
-0.34
-2.66
-4.93
-7.19
-9.45
-11.71
-13.96
-16.24
-18.62
-21.25
-24.26
-27.74
-31.63
-35.61
-39.19
-41.77
-42.78
-41.93
-39.23
-35.07
-30.01
-24.69
-19.6
-15.04
-11.06
-7.57
-4.43
-1.52
1.26
3.87
6.31
8.53
10.49
12.17
13.56
14.67
15.52
16.19
16.8
17.5
18.36
19.37
20.41
21.28
21.83
22.0
21.87
21.55
21.13
20.67
20.15
19.54
18.8
17.91
16.84
15.49
13.81
11.75
9.41
6.99
4.72
2.81
1.25
-0.09
-1.51
-3.27
-5.49
-8.1
-10.86
-13.5
-15.85
-17.92
-19.89
-22.02
-24.54
-27.56
-31.09
-35.0
-39.01
-42.67
-45.46
-46.79
-46.26
-43.71
-39.37
-33.77
-27.57
-21.39
-15.67
-10.6
-6.19
-2.32
1.15
4.36
7.43
10.45
13.44
16.36
19.06
21.37
23.15
24.31
24.91
25.1
25.14
25.27
25.63
26.21
26.86
27.36
27.52
27.25
26.56
25.56
24.36
23.11
21.87
20.71
19.64
18.62
17.62
16.57
15.45
14.23
12.91
11.48
9.93
8.23
6.41
4.54
2.71
1.01
-0.56
-2.07
-3.64
-5.4
-7.42
-9.66
-12.04
-14.46
-16.9
-19.36
-21.88
-24.52
-27.37
-30.54
-34.11
-38.07
-42.2
-46.02
-48.88
-50.1
-49.19
-46.05
-40.98
-34.62
-27.76
-21.1
-15.13
-10.05
-5.8
-2.13
1.24
4.56
7.91
11.23
14.38
17.17
19.47
21.25
22.53
23.42
24.03
24.46
24.81
25.16
25.54
25.92
26.25
26.45
26.43
26.14
25.55
24.68
23.54
22.18
20.64
19.0
17.36
15.83
14.47
13.25
12.07
10.76
9.2
7.36
5.31
3.17
1.05
-1.03
-3.17
-5.43
-7.86
-10.41
-12.99
-15.51
-17.96
-20.42
-23.1
-26.21
-29.89
-34.08
-38.42
-42.32
-45.03
-45.91
-44.59
-41.17
-36.1
-30.08
-23.8
-17.74
-12.14
-6.98
-2.17
2.36
6.65
10.67
14.38
17.7
20.59
22.95
24.71
25.85
26.43
26.63
26.65
26.68
26.85
27.13
27.47
27.75
27.91
27.87
27.58
27.0
26.09
24.89
23.48
22.04
20.7
19.52
18.44
17.34
16.07
14.57
12.92
11.26
9.74
8.38
7.06
5.57
3.67
1.19
-1.88
-5.41
-9.17
-12.88
-16.31
-19.3
-21.84
-24.04
-26.11
-28.31
-30.89
-34.0
-37.66
-41.72
-45.75
-49.15
-51.17
-51.19
-48.86
-44.24
-37.86
-30.47
-22.92
-15.84
-9.59
-4.26
0.27
4.21
7.75
11.04
14.13
17.04
19.71
22.08
24.06
25.63
26.83
27.74
28.49
29.22
29.98
30.78
31.53
32.13
32.45
32.44
32.07
31.36
30.35
29.13
27.82
26.51
25.26
24.08
22.92
21.67
20.28
18.73
17.07
15.38
13.71
12.05
10.34
8.56
6.73
4.89
3.11
1.42
-0.22
-1.87
-3.62
-5.53
-7.65
-9.99
-12.54
-15.26
-18.09
-20.96
-23.81
-26.62
-29.48
-32.55
-36.03
-40.03
-44.42
-48.79
-52.44
-54.62
-54.72
-52.47
-48.03
-41.93
-34.88
-27.6
-20.64
-14.34
-8.85
-4.16
-0.14
3.4
6.69
9.94
13.22
16.54
19.74
22.65
25.06
26.84
27.95
28.49
28.64
28.64
28.68
28.9
29.26
29.68
30.03
30.21
30.19
29.96
29.54
28.97
28.25
27.36
26.28
24.96
23.37
21.5
19.45
17.35
15.39
13.69
12.22
10.86
9.45
7.87
6.13
4.37
2.71
1.2
-0.28
-1.92
-3.86
-6.16
-8.71
-11.37
-13.98
-16.46
-18.89
-21.34
-23.97
-26.89
-30.18
-33.9
-37.99
-42.24
-46.22
-49.35
-50.97
-50.61
-48.03
-43.44
-37.33
-30.42
-23.39
-16.81
-10.98
-5.98
-1.7
2.09
5.6
8.98
12.22
15.24
17.87
19.94
21.37
22.18
22.46
22.38
22.17
22.04
22.15
22.62
23.37
24.28
25.12
25.69
25.84
25.52
24.76
23.64
22.25
20.68
19.0
17.25
15.45
13.6
11.72
9.84
8.01
6.3
4.73
3.25
1.73
0.04
-1.89
-4.07
-6.41
-8.82
-11.18
-13.48
-15.76
-18.15
-20.82
-23.94
-27.59
-31.66
-35.81
-39.46
-41.93
-42.56
-41.01
-37.32
-31.93
-25.58
-19.01
-12.85
-7.42
-2.8
1.07
4.33
7.08
9.42
11.45
13.27
14.99
16.68
18.34
19.89
21.21
22.25
23.02
23.6
24.15
24.81
25.66
26.63
27.58
28.22
28.31
27.73
26.54
24.98
23.36
21.89
20.65
19.54
18.42
17.2
15.92
14.67
13.5
12.37
11.13
9.61
7.79
5.74
3.63
1.58
-0.38
-2.38
-4.59
-7.13
-10.02
-13.13
-16.24
-19.17
-21.83
-24.28
