-30.11
-35.41
-41.67
-48.46
-55.03
-60.42
-63.61
-63.82
-60.68
-54.42
-45.75
-35.71
-25.33
-15.45
-6.58
1.13
7.74
13.45
18.48
22.98
27.0
30.49
33.36
35.56
37.06
37.98
38.48
38.72
38.87
39.04
39.27
39.58
39.93
40.27
40.5
40.46
39.97
38.85
37.01
34.49
31.45
28.13
24.8
21.57
18.47
15.41
12.31
9.13
5.94
2.84
-0.12
-3.0
-5.95
-9.18
-12.78
-16.77
-20.97
-25.16
-29.16
-32.88
-36.45
-40.17
-44.42
-49.54
-55.57
-62.14
-68.44
-73.33
-75.65
-74.57
-69.82
-61.8
-51.42
-39.92
-28.43
-17.85
-8.61
-0.76
5.9
11.73
17.01
21.91
26.48
30.61
34.21
37.17
39.43
41.01
41.98
42.44
42.52
42.41
42.3
42.34
42.64
43.18
43.79
44.22
44.24
43.63
42.37
40.58
38.45
36.15
33.82
31.45
28.98
26.31
23.39
20.2
16.81
13.35
9.93
6.68
3.64
0.77
-2.09
-5.12
-8.47
-12.23
-16.36
-20.73
-25.18
-29.5
-33.54
-37.26
-40.82
-44.5
-48.73
-53.88
-60.03
-66.83
-73.42
-78.6
-81.14
-80.15
-75.38
-67.22
-56.7
-45.05
-33.48
-22.82
-13.48
-5.43
1.6
7.95
13.85
19.38
24.48
29.02
32.91
36.07
38.49
40.15
41.1
41.45
41.44
41.4
41.64
42.34
43.4
44.51
45.25
45.26
44.44
42.92
40.96
38.83
36.63
34.3
31.67
28.6
25.06
21.15
17.06
12.94
8.94
5.06
1.26
-2.53
-6.37
-10.22
-14.01
-17.63
-21.01
-24.15
-27.15
-30.19
-33.57
-37.62
-42.62
-48.62
-55.33
-62.01
-67.58
-70.83
-70.81
-67.1
-59.99
-50.36
-39.42
-28.32
-17.97
-8.82
-0.96
5.78
11.66
16.93
21.75
26.15
30.04
33.28
35.72
37.34
38.23
38.63
38.83
39.07
39.52
40.19
41.02
41.86
42.54
42.86
42.62
41.71
40.06
37.74
34.91
31.79
28.58
25.46
22.5
19.69
16.92
14.11
11.21
8.24
5.26
2.3
-0.67
-3.73
-6.97
-10.41
-14.02
-17.71
-21.41
-25.08
-28.74
-32.46
-36.37
-40.69
-45.66
-51.39
-57.68
-63.9
-69.03
-71.89
-71.56
-67.67
-60.57
-51.16
-40.61
-29.98
-20.06
-11.23
-3.59
2.98
8.65
13.66
18.21
22.46
26.43
30.04
33.11
35.5
37.14
38.11
38.62
38.9
39.12
39.41
39.77
40.16
40.56
40.95
41.29
41.44
41.28
40.62
39.35
37.5
35.23
32.76
30.31
27.98
25.72
23.41
20.88
18.12
15.19
12.24
9.4
6.69
4.04
1.34
-1.47
-4.39
-7.36
-10.37
-13.47
-16.76
-20.26
-23.86
-27.39
-30.63
-33.55
-36.35
-39.46
-43.33
-48.22
-54.01
-60.15
-65.69
-69.6
-70.95
-69.25
-64.54
-57.31
-48.44
-38.88
-29.45
-20.72
-12.94
-6.13
-0.13
5.23
10.13
14.69
18.96
22.9
26.42
29.42
31.77
33.42
34.41
34.85
34.99
35.07
35.31
35.79
36.43
37.03
37.36
37.18
36.38
34.93
32.96
30.7
28.38
26.21
24.28
22.51
20.67
18.53
15.95
12.98
9.85
6.84
4.16
1.81
-0.35
-2.57
-5.05
-7.82
-10.84
-13.94
-16.99
-19.91
-22.72
-25.53
-28.53
-31.92
-35.89
-40.52
-45.6
-50.63
-54.79
-57.18
-57.05
-54.11
-48.66
-41.46
-33.52
-25.75
-18.74
-12.7
-7.52
-3.01
1.03
4.71
8.06
11.11
13.88
16.35
18.48
20.21
21.49
22.36
22.93
23.42
23.97
24.64
25.36
25.95
26.25
26.18
25.74
24.97
23.93
22.65
21.11
19.35
17.41
15.38
13.35
11.32
9.27
7.11
4.77
2.23
-0.43
-3.11
-5.7
-8.14
-10.43
-12.66
-14.95
-17.48
-20.43
-23.98
-28.21
-32.98
-37.9
-42.32
-45.48
-46.71
-45.63
-42.3
-37.15
-30.84
-24.03
-17.31
-11.04
-5.43
-0.56
3.57
7.06
10.03
12.66
15.07
17.31
19.36
21.14
22.57
23.6
24.24
24.57
24.75
24.96
25.33
25.91
26.61
27.23
27.53
27.26
26.32
24.79
22.87
20.81
18.8
16.93
15.15
13.35
11.44
9.4
7.3
5.22
3.22
1.29
-0.66
-2.77
-5.15
-7.81
-10.67
-13.56
-16.29
-18.73
-20.88
-22.86
-24.9
-27.27
-30.18
-33.72
-37.84
-42.25
-46.5
-49.96
-51.96
-51.94
-49.59
-45.06
-38.88
-31.86
-24.79
-18.23
-12.46
-7.45
-3.06
0.9
4.54
7.92
11.06
13.96
16.62
18.98
20.98
22.58
23.74
24.53
25.07
25.47
25.85
26.27
26.72
27.19
27.59
27.86
27.91
27.7
27.21
26.47
25.55
24.54
23.52
22.53
21.55
20.53
19.37
17.93
16.12
13.89
11.27
8.38
5.39
2.42
-0.5
-3.36
-6.22
-9.11
-11.99
-14.79
-17.43
-19.87
-22.16
-24.36
-26.54
-28.71
-30.86
-32.99
-35.25
-37.85
-40.99
-44.71
-48.75
-52.45
-54.96
-55.47
-53.53
-49.21
-43.11
-36.13
-29.1
-22.63
-16.93
-11.96
-7.56
-3.57
0.1
3.49
6.63
9.56
12.27
14.72
16.81
18.38
19.37
19.82
19.89
19.82
19.86
20.15
20.71
21.44
22.14
22.59
22.6
22.08
21.1
19.84
18.49
17.25
16.13
15.05
13.84
12.31
10.45
8.32
6.14
4.06
2.17
0.41
-1.38
-3.4
-5.76
-8.41
-11.18
-13.84
-16.25
-18.4
-20.44
-22.65
-25.33
-28.67
-32.66
-37.0
-41.11
-44.3
-45.86
-45.3
-42.5
-37.74
-31.65
-25.0
-18.56
-12.85
-8.11
-4.28
-1.13
1.67
4.33
6.97
9.52
11.81
13.69
15.08
16.03
16.69
17.16
17.57
17.94
18.27
18.56
18.84
19.13
19.45
19.77
20.0
20.03
19.79
19.21
18.29
17.06
15.61
14.04
12.45
10.93
9.51
8.13
6.67
4.98
2.93
0.52
-2.17
-4.95
-7.63
-10.1
-12.38
-14.61
-16.98
-19.71
-22.93
-26.68
-30.85
-35.14
-39.09
-42.08
-43.51
-42.89
-40.06
-35.26
-29.08
-22.33
-15.79
-9.98
-5.11
-1.09
2.34
5.44
8.36
11.12
13.63
15.82
17.64
19.1
20.27
21.2
21.94
22.56
23.11
23.7
24.42
25.31
26.3
27.21
27.82
27.87
27.22
25.9
24.05
21.95
19.85
17.97
16.38
15.03
13.78
12.45
10.92
9.21
7.39
5.61
3.93
2.3
0.58
-1.41
-3.78
-6.5
-9.42
-12.32
-15.03
-17.47
-19.73
-22.03
-24.64
-27.81
-31.66
-36.15
-40.94
-45.48
-49.03
-50.87
-50.48
-47.71
-42.87
-36.6
-29.69
-22.87
-16.6
-11.06
-6.19
-1.8
2.29
6.24
10.11
13.86
17.36
20.47
23.03
24.97
26.33
27.2
27.77
28.18
28.54
28.93
29.4
29.94
30.55
31.15
31.56
31.6
31.09
29.99
28.37
26.4
24.31
22.31
20.5
18.89
17.41
15.92
14.32
12.58
10.74
8.88
7.05
5.27
3.42
1.4
-0.9
-3.47
-6.23
-9.04
-11.72
-14.2
-16.45
-18.54
-20.63
-22.96
-25.75
-29.19
-33.2
-37.46
-41.36
-44.16
-45.19
-44.1
-40.93
-36.12
-30.31
-24.18
-18.23
-12.79
-7.98
-3.79
-0.14
3.09
6.06
8.89
11.65
14.32
16.81
18.97
20.71
21.96
22.8
23.36
23.79
24.22
24.7
25.22
25.66
25.92
25.88
25.51
24.79
23.75
22.47
21.04
19.59
18.18
16.87
15.58
14.21
12.61
10.71
8.57
6.32
4.14
2.11
0.2
-1.71
-3.74
-5.94
-8.23
-10.51
-12.7
-14.82
-17.06
-19.65
-22.77
-26.37
-30.13
-33.53
-35.94
-36.85
-35.93
-33.19
-28.9
-23.56
-17.75
-12.01
-6.76
-2.17
1.72
5.05
8.0
10.76
13.43
16.03
18.48
20.65
22.39
23.61
24.3
24.54
24.46
24.26
24.11
24.16
24.45
24.89
25.26
25.34
24.92
23.98
22.64
21.17
19.81
18.66
17.7
16.79
15.83
14.74
13.5
12.13
10.64
8.99
7.18
5.22
3.11
0.87
-1.5
-4.02
-6.71
-9.54
-12.44
-15.32
-18.1
-20.75
-23.32
-25.96
-28.83
-32.09
-35.71
-39.41
-42.63
-44.71
-45.04
-43.33
-39.67
-34.52
-28.52
-22.28
-16.31
-10.88
-6.1
-1.95
1.64
4.82
7.7
10.34
12.71
14.69
16.13
16.99
17.34
17.35
17.3
17.39
17.74
18.35
19.12
19.93
20.66
21.26
21.68
21.91
21.97
21.84
21.52
20.97
20.17
19.12
17.84
16.37
14.74
12.96
11.01
8.92
6.75
4.61
2.61
0.79
-0.85
-2.46
-4.2
-6.19
-8.46
-10.94
-13.42
-15.68
-17.56
-19.07
-20.38
-21.78
-23.6
-26.08
-29.31
-33.08
-37.0
-40.45
-42.78
-43.39
-41.92
-38.41
-33.25
-27.14
-20.88
-15.16
-10.36
-6.52
-3.41
-0.71
1.89
4.52
7.17
9.72
12.01
13.93
15.43
16.53
17.29
17.79
18.1
18.27
18.35
18.38
18.38
18.38
18.39
18.37
18.27
17.99
17.46
16.61
15.42
13.91
12.16
10.29
8.39
6.56
4.83
3.2
1.65
0.12
-1.45
-3.1
-4.85
-6.7
-8.61
-10.51
-12.34
-14.08
-15.77
-17.56
-19.66
-22.26
-25.45
-29.09
-32.81
-36.06
-38.23
-38.81
-37.51
-34.4
-29.81
-24.3
-18.5
-12.95
-8.02
-3.85
-0.37
2.61
5.27
7.73
9.98
11.97
13.6
14.85
15.73
16.33
16.73
17.04
17.33
17.72
18.28
19.1
20.14
21.29
22.31
23.02
23.24
22.97
22.27
21.26
20.05
18.73
17.34
15.86
14.31
12.67
10.91
9.04
7.04
4.89
2.62
0.22
-2.21
-4.56
-6.7
-8.62
-10.33
-11.99
-13.78
-15.86
-18.36
-21.33
-24.73
-28.39
-32.01
-35.09
-37.1
-37.6
-36.36
-33.48
-29.29
-24.25
-18.8
-13.3
-8.0
-3.1
1.28
5.07
8.29
11.01
13.35
15.38
17.12
18.56
19.68
20.47
20.98
21.3
21.5
21.67
21.88
22.18
22.59
23.07
23.5
23.77
23.71
23.25
22.38
21.22
19.9
18.57
17.32
16.13
14.93
13.65
12.19
10.55
8.82
7.13
5.64
4.44
3.47
2.6
1.6
0.27
-1.46
-3.58
-5.95
-8.4
-10.77
-12.94
-14.92
-16.75
-18.55
-20.46
-22.64
-25.19
-28.12
-31.29
-34.38
-36.96
-38.5
-38.58
-36.96
-33.74
-29.28
-24.16
-18.96
-14.14
-9.93
-6.35
-3.23
-0.4
2.3
4.93
7.46
9.82
11.93
13.77
15.32
16.61
17.65
18.44
18.98
19.32
19.56
19.81
20.15
20.57
20.99
21.3
21.41
21.26
20.89
20.33
19.65
18.85
17.95
16.95
15.81
14.52
13.04
11.41
9.63
7.77
5.92
4.12
2.4
0.73
-0.91
-2.51
-4.04
-5.49
-6.91
-8.36
-9.95
-11.74
-13.66
-15.64
-17.59
-19.54
-21.6
-23.94
-26.66
-29.67
-32.64
-35.03
-36.23
-35.78
-33.54
-29.72
-24.87
-19.69
-14.79
-10.55
-7.04
-4.13
-1.59
0.76
2.98
5.07
7.03
8.87
10.59
12.17
13.52
14.53
15.09
15.2
14.99
14.67
14.47
14.5
14.75
15.08
15.31
15.33
15.1
14.64
13.98
13.14
12.15
11.04
9.86
8.67
7.53
6.48
5.53
4.7
3.95
3.18
2.27
1.05
-0.58
-2.63
-4.95
-7.34
-9.6
-11.59
-13.35
-14.99
-16.69
-18.63
-20.98
-23.8
-26.95
-30.08
-32.62
-33.94
-33.56
-31.28
-27.37
-22.41
-17.08
-12.03
-7.63
-4.02
-1.11
1.28
3.33
5.17
6.86
8.43
9.85
11.1
12.1
12.84
13.31
13.55
13.66
13.72
13.81
13.99
14.3
14.77
15.43
16.24
17.05
17.69
17.99
17.86
17.36
16.64
15.86
15.07
14.22
13.16
11.79
10.09
8.19
6.25
4.41
2.7
1.08
-0.55
-2.28
-4.15
-6.15
-8.27
-10.44
-12.62
-14.74
-16.76
-18.69
-20.62
-22.7
-25.11
-27.94
-31.13
-34.41
-37.27
-39.14
-39.48
-38.04
-34.88
-30.41
-25.24
-19.97
-15.04
-10.67
-6.89
-3.59
-0.68
1.95
4.36
6.57
8.58
10.32
11.75
12.82
13.53
13.98
14.31
14.69
15.25
16.06
17.13
18.39
19.7
20.87
21.72
22.14
22.06
21.54
20.71
19.73
18.77
17.88
17.08
16.28
15.4
14.39
13.24
12.01
10.77
9.54
8.35
7.13
5.89
4.59
3.25
1.92
0.56
-0.84
-2.38
-4.1
-6.01
-8.06
-10.18
-12.26
-14.28
-16.25
-18.32
-20.69
-23.55
-27.02
-31.02
-35.28
-39.31
-42.52
-44.36
-44.44
-42.66
-39.23
-34.58
-29.26
-23.77
-18.53
-13.79
-9.69
-6.28
-3.46
-1.03
1.24
3.59
6.08
8.61
10.97
12.92
14.35
15.32
16.01
16.67
17.49
18.52
19.72
20.95
22.06
22.92
23.43
23.54
23.25
22.57
21.56
20.29
18.84
17.31
15.77
14.26
12.77
11.23
9.61
7.91
6.22
4.65
3.23
1.9
0.53
-1.04
-2.88
-4.95
-7.16
-9.43
-11.71
-14.01
-16.4
-18.93
-21.65
-24.63
-27.86
-31.23
-34.47
-37.09
-38.54
-38.34
-36.27
-32.48
-27.42
-21.7
-15.93
-10.54
-5.79
-1.75
1.65
4.54
7.09
9.43
11.66
13.8
15.77
17.48
18.8
19.72
20.29
20.69
21.06
21.55
22.19
22.89
23.58
24.12
24.43
24.47
24.23
23.74
23.03
22.1
20.97
19.64
18.09
16.34
14.45
12.54
10.7
9.03
7.53
6.14
4.77
3.31
1.67
-0.2
-2.33
-4.67
-7.15
-9.67
-12.16
-14.68
-17.39
-20.53
-24.25
-28.48
-32.86
-36.76
-39.45
-40.31
-39.02
-35.67
-30.7
-24.77
-18.55
-12.62
-7.31
-2.75
1.11
4.42
7.36
10.14
12.85
15.53
18.05
20.23
21.88
22.92
23.44
23.64
23.75
23.95
24.34
24.91
25.56
26.19
26.65
26.85
26.76
26.42
25.91
25.35
24.77
24.18
23.53
22.77
21.86
20.79
19.57
18.21
16.75
15.2
13.62
12.03
10.43
8.83
7.22
5.56
3.79
1.82
-0.5
-3.21
-6.3
-9.57
-12.77
-15.65
-18.13
-20.31
-22.41
-24.7
-27.38
-30.59
-34.39
-38.72
-43.37
-47.91
-51.71
-54.04
-54.32
-52.32
-48.24
-42.71
-36.58
-30.68
-25.66
-21.82
-19.09
-17.19
-15.61
-13.87
-11.58
-8.61
-5.08
-1.29
2.44
5.9
9.05
11.98
14.84
17.75
20.78
24.07
27.73
31.81
36.14
40.24
43.41
44.96
44.54
42.34
39.11
35.87
33.53
32.61
33.04
34.36
35.87
36.94
37.11
36.15
34.08
31.07
27.45
23.59
19.86
16.44
13.34
10.31
7.0
3.06
-1.77
-7.58
-14.31
-21.73
-29.48
-37.09
-43.99
-49.61
-53.53
-55.61
-56.1
-55.53
-54.58
-53.92
-53.96
-54.84
-56.38
-58.26
-60.02
-61.23
-61.45
-60.32
-57.56
-53.1
-47.15
-40.22
-33.07
-26.43
-20.88
-16.61
-13.48
-11.04
-8.77
-6.2
-3.02
0.88
5.43
10.42
15.5
20.22
24.2
27.17
29.08
30.14
30.67
30.96
31.2
31.37
31.4
31.18
30.67
29.88
28.78
27.25
25.13
22.32
18.91
15.19
11.6
8.55
6.23
4.67
3.75
3.37
3.51
4.22
5.53
7.35
9.46
11.52
13.19
14.22
14.44
13.8
12.33
10.14
7.44
4.58
1.99
0.2
-0.33
0.71
3.35
7.33
12.11
17.02
21.34
24.55
26.34
26.72
25.93
24.37
22.49
20.69
19.17
17.97
16.95
15.9
14.63
13.1
11.4
9.75
8.43
7.61
7.39
7.69
8.34
9.15
9.91
10.46
10.62
10.28
9.36
7.89
6.04
4.03
2.12
0.5
-0.79
-1.79
-2.63
-3.46
-4.36
-5.35
-6.43
-7.63
-9.07
-10.88
-13.27
-16.33
-20.0
-23.96
-27.65
-30.42
-31.64
-30.93
-28.24
-23.89
-18.5
-12.73
-7.2
-2.25
1.99
5.62
8.86
11.91
14.9
17.85
20.69
23.26
25.38
26.91
27.75
27.89
27.42
26.47
25.27
24.02
22.85
21.85
20.95
20.05
19.02
17.76
16.26
14.55
12.7
10.75
8.71
6.51
4.1
1.39
-1.6
-4.84
-8.16
-11.4
-14.34
-16.91
-19.14
-21.21
-23.39
-25.94
-28.93
-32.22
-35.36
-37.77
-38.84
-38.17
-35.61
-31.41
-26.03
-20.07
-14.1
-8.55
-3.67
0.48
3.93
6.84
9.29
11.4
13.21
14.74
16.01
17.01
17.78
18.31
18.66
18.88
19.07
19.34
19.72
20.15
20.45
20.38
19.78
18.61
16.94
14.93
12.7
10.3
7.75
5.08
2.39
-0.19
-2.54
-4.67
-6.68
-8.77
-11.11
-13.83
-16.95
-20.4
-24.0
-27.42
-30.18
-31.74
-31.67
-29.77
-26.18
-21.38
-15.94
-10.43
-5.2
-0.4
3.96
7.97
11.67
15.04
18.01
20.51
22.49
23.96
24.97
25.62
26.02
26.23
26.34
26.34
26.24
26.01
25.64
25.08
24.31
23.27
21.94
20.3
18.38
16.2
13.79
11.14
8.24
5.1
1.83
-1.44
-4.51
-7.27
-9.74
-12.07
-14.51
-17.25
-20.41
-23.9
-27.5
-30.86
-33.56
-35.14
-35.18
-33.42
-29.86
-24.81
-18.81
-12.5
-6.41
-0.88
3.96
8.18
11.88
15.18
18.12
20.72
22.92
24.67
25.92
26.62
26.81
26.57
26.03
25.34
24.58
23.81
23.06
22.37
21.79
21.37
21.09
20.79
20.27
19.33
17.9
16.06
14.0
11.94
9.95
7.97
5.86
3.53
1.02
-1.57
-4.1
-6.49
-8.81
-11.16
-13.65
-16.37
-19.34
-22.49
-25.66
-28.57
-30.81
-31.95
-31.61
-29.69
-26.35
-22.03
-17.23
-12.41
-7.83
-3.6
0.25
3.71
6.68
9.11
10.97
12.34
13.38
14.27
15.14
16.0
16.81
17.47
17.91
18.12
18.14
18.12
18.18
18.38
18.66
18.86
18.82
18.42
17.65
16.6
15.42
14.22
13.1
12.06
11.09
10.11
9.06
7.89
6.62
5.31
4.1
3.09
2.33
1.77
1.31
0.8
0.13
-0.8
-2.09
-3.8
-5.91
-8.33
-10.93
-13.59
-16.28
-19.08
-22.11
-25.38
-28.71
-31.72
-33.86
-34.68
-33.9
-31.59
-28.06
-23.82
-19.39
-15.14
-11.32
-7.99
-5.09
-2.52
-0.16
2.06
4.16
6.12
7.89
9.4
10.61
11.53
12.22
12.74
13.15
13.47
13.68
13.77
13.73
13.54
13.16
12.6
11.88
11.06
10.28
9.64
9.2
8.91
8.62
8.24
7.66
6.92
6.07
5.24
4.51
3.89
3.37
2.85
2.28
1.63
0.87
0.01
-0.94
-1.99
-3.18
-4.53
-6.07
-7.73
-9.43
-11.03
-12.45
-13.67
-14.73
-15.67
-16.54
-17.41
-18.32
-19.42
-20.88
-22.82
-25.21
-27.78
-30.08
-31.56
-31.8
-30.61
-28.13
-24.73
-20.88
-17.01
-13.44
-10.32
-7.75
-5.72
-4.17
-2.95
-1.89
-0.81
0.35
1.54
2.65
3.57
4.29
4.92
5.6
6.45
7.43
8.47
9.46
10.32
11.05
11.63
12.06
12.27
12.21
11.87
11.38
10.88
10.48
10.2
9.94
9.5
8.74
7.59
6.11
4.47
2.86
1.44
0.25
-0.75
-1.67
-2.66
-3.82
-5.17
-6.69
-8.35
-10.09
-11.86
-13.61
-15.3
-16.87
-18.28
-19.57
-20.83
-22.2
-23.8
-25.61
-27.49
-29.14
-30.2
-30.37
-29.51
-27.64
-24.98
-21.79
-18.39
-15.02
-11.84
-8.92
-6.28
-3.93
-1.91
-0.31
0.82
1.48
1.74
1.75
1.67
1.62
1.68
1.89
2.23
2.74
3.47
4.44
5.63
6.93
8.15
9.11
9.69
9.89
9.81
9.57
9.27
8.94
8.51
7.92
7.1
6.07
4.86
3.53
2.12
0.72
-0.56
-1.65
-2.53
-3.34
-4.28
-5.54
-7.16
-9.0
-10.82
-12.42
-13.81
-15.2
-16.92
-19.27
-22.27
-25.68
-29.02
-31.69
-33.19
-33.19
-31.66
-28.78
-24.94
-20.61
-16.21
-12.09
-8.47
-5.4
-2.84
-0.65
1.34
3.32
5.32
7.31
9.07
10.41
11.22
11.55
11.59
11.58
11.72
12.11
12.72
13.45
14.19
14.83
15.3
15.48
15.32
14.77
13.87
12.74
11.52
10.38
9.41
8.6
7.85
7.05
6.12
5.04
3.88
2.71
1.61
0.63
-0.28
-1.16
-2.07
-3.07
-4.22
-5.56
-7.13
-8.93
-10.87
-12.86
-14.73
-16.43
-17.99
-19.57
-21.42
-23.79
-26.81
-30.37
-34.14
-37.59
-40.2
-41.52
-41.37
-39.78
-36.93
-33.12
-28.63
-23.76
-18.83
-14.17
-10.05
-6.57
-3.6
-0.9
1.8
4.64
7.52
10.2
12.42
14.04
15.09
15.72
16.08
16.31
16.46
16.61
16.85
17.24
17.8
18.46
19.08
19.48
19.59
19.41
19.04
18.56
18.06
17.56
17.03
16.43
15.74
15.0
14.24
13.54
12.94
12.43
11.92
11.27
10.38
9.18
7.71
6.06
4.32
2.57
0.78
-1.13
-3.24
-5.63
-8.29
-11.1
-13.94
-16.67
-19.28
-21.86
-24.58
-27.66
-31.29
-35.53
-40.27
-45.12
-49.49
-52.63
-53.86
-52.81
-49.53
-44.52
-38.52
-32.24
-26.19
-20.54
-15.34
-10.53
-6.12
-2.12
1.54
5.01
8.45
11.92
15.32
18.39
20.87
22.63
23.75
24.46
25.02
25.61
26.31
27.09
27.88
28.62
29.2
29.55
29.61
29.4
28.98
28.48
28.0
27.56
27.11
26.52
25.72
24.71
23.61
22.61
21.81
21.22
20.71
20.11
19.26
18.13
16.74
15.14
13.36
11.36
9.12
6.61
3.9
1.07
-1.81
-4.75
-7.82
-11.09
-14.56
-18.11
-21.55
-24.75
-27.72
-30.66
-33.91
-37.73
-42.21
-47.13
-51.95
-55.97
-58.46
-58.9
-57.03
-52.93
-46.96
-39.72
-31.87
-24.08
-16.89
-10.58
-5.21
-0.6
3.52
7.35
10.95
14.22
17.03
19.29
20.99
22.22
23.09
23.68
24.08
24.43
24.88
25.61
26.72
28.18
29.81
31.35
32.55
33.23
33.3
32.77
31.73
30.31
28.69
26.99
25.3
23.6
21.79
19.76
17.53
15.18
12.94
10.94
9.24
7.73
6.08
3.93
1.01
-2.61
-6.42
-9.47
-10.63
-9.0
-4.26
3.06
11.68
19.92
26.2
29.42
29.14
25.39
18.36
8.14
-5.3
-21.88
-41.07
-61.63
-81.64
-98.75
-110.59
-115.2
-111.24
-98.2
-76.47
-47.47
-13.6
22.02
56.06
85.7
109.29
126.62
138.66
146.73
151.72
153.44
150.69
141.88
125.97
103.27
75.63
46.04
17.76
-6.61
-25.67
-39.15
-47.57
-51.71
-52.37
-50.35
-46.56
-42.1
-38.15
-35.67
-34.98
-35.72
-36.98
-37.8
-37.54
-36.14
-34.07
-32.01
-30.56
-30.0
-30.32
-31.25
-32.56
-34.1
-35.89
-38.12
-41.06
-44.87
-49.42
-54.22
-58.35
-60.75
-60.56
-57.46
-51.78
-44.44
-36.56
-29.05
-22.38
-16.58
-11.38
-6.47
-1.64
3.15
7.82
12.26
16.41
20.25
23.8
27.04
29.95
32.4
34.28
35.54
36.33
36.98
37.9
39.45
41.72
44.51
47.38
49.82
51.4
51.93
51.42
50.02
47.93
45.3
42.2
38.61
34.51
29.91
24.88
19.59
14.27
9.12
4.21
-0.46
-5.05
-9.66
-14.35
-19.06
-23.62
-27.92
-31.88
-35.53
-38.99
-42.44
-46.04
-49.98
-54.34
-59.05
-63.76
-67.84
-70.46
-70.81
-68.37
-63.07
-55.33
-45.86
-35.52
-25.09
-15.21
-6.35
1.23
7.5
12.63
17.01
21.01
24.92
28.78
32.42
35.6
38.12
39.96
41.26
42.21
43.0
43.73
44.44
45.12
45.73
46.21
46.45
46.36
45.85
44.94
43.7
42.29
40.81
39.32
37.81
36.22
34.53
32.76
30.93
29.02
26.95
24.59
21.85
18.77
15.43
11.99
8.64
5.5
2.67
0.13
-2.24
-4.68
-7.56
-11.23
-15.82
-21.11
-26.47
-30.98
-33.74
-34.14
-32.08
-27.97
-22.54
-16.63
-10.92
-5.9
-1.84
1.17
3.18
4.39
5.11
5.74
6.63
7.98
9.79
11.88
14.0
15.94
17.63
19.1
20.47
21.8
23.12
24.37
25.46
26.28
26.72
26.68
26.09
24.92
23.25
21.23
19.13
17.23
15.78
14.89
14.48
14.29
13.97
13.23
11.95
10.19
8.16
6.09
4.14
2.35
0.67
-0.96
-2.53
-3.97
-5.23
-6.32
-7.36
-8.56
-10.12
-12.22
-14.94
-18.25
-22.01
-25.87
-29.23
-31.31
-31.3
-28.63
-23.22
-15.55
-6.56
2.6
10.95
17.82
22.91
26.19
27.81
27.97
26.96
25.14
22.88
20.49
18.11
15.71
13.15
10.34
7.38
4.56
2.28
0.89
0.53
1.09
2.34
4.0
5.88
7.88
9.95
11.96
13.82
15.37
16.59
17.54
18.38
19.21
20.05
20.79
21.25
21.28
20.88
20.13
19.16
18.15
17.16
16.25
15.4
14.56
13.65
12.56
11.09
9.07
6.37
3.03
-0.7
-4.42
-7.75
-10.49
-12.71
-14.73
-17.03
-20.01
-23.9
-28.63
-33.9
-39.23
-44.08
-47.99
-50.6
-51.71
-51.35
-49.75
-47.27
-44.35
-41.37
-38.56
-36.01
-33.67
-31.44
-29.16
-26.75
-24.14
-21.34
-18.39
-15.36
-12.35
-9.46
-6.73
-4.15
-1.62
0.94
3.54
6.13
8.57
10.74
12.59
14.11
15.31
16.13
16.49
16.3
15.57
14.48
13.34
12.5
12.15
12.27
12.63
12.91
12.87
12.45
11.8
11.15
10.68
10.45
10.34
10.15
9.7
8.86
7.65
6.14
4.46
2.7
0.97
-0.68
-2.23
-3.71
-5.17
-6.73
-8.52
-10.6
-12.99
-15.62
-18.38
-21.14
-23.81
-26.37
-28.95
-31.77
-35.08
-38.98
-43.34
-47.71
-51.45
-53.85
-54.42
-53.02
-49.88
-45.51
-40.49
-35.35
-30.41
-25.86
-21.76
-18.1
-14.92
-12.22
-10.01
-8.27
-6.91
-5.77
-4.73
-3.65
-2.44
-1.05
0.62
2.67
5.24
8.43
12.22
16.43
20.75
24.82
28.35
31.2
33.41
35.14
36.52
37.6
38.31
38.53
38.19
37.3
36.01
34.49
32.8
30.93
28.75
26.19
23.23
19.98
16.57
13.11
9.58
5.92
2.1
-1.82
-5.67
-9.26
-12.47
-15.36
-18.07
-20.79
-23.54
-26.14
-28.24
-29.39
-29.2
-27.47
-24.26
-19.9
-14.93
-9.99
-5.58
-2.03
0.64
2.63
4.24
5.75
7.26
8.72
9.97
10.86
11.28
11.24
10.84
10.21
9.5
8.87
8.4
8.12
8.0
8.0
8.06
8.12
8.15
8.1
7.88
7.44
6.73
5.85
4.93
4.14
3.55
3.06
2.48
1.62
0.44
-0.85
-1.92
-2.48
-2.42
-1.91
-1.32
-0.98
-1.02
-1.36
-1.81
-2.17
-2.39
-2.57
-2.84
-3.29
-3.91
-4.58
-5.14
-5.39
-5.13
-4.18
-2.47
-0.04
2.76
5.41
7.28
7.92
7.23
5.64
3.93
2.97
3.42
5.5
8.98
13.27
17.7
21.59
24.44
25.88
25.82
24.31
21.62
18.1
14.03
9.63
4.99
0.19
-4.59
-9.09
-12.93
-15.79
-17.47
-17.96
-17.33
-15.73
-13.34
-10.33
-6.99
-3.68
-0.78
1.42
2.93
4.08
5.51
7.8
11.17
15.22
18.97
21.12
20.57
16.8
10.13
1.49
-7.84
-16.74
-24.49
-30.87
-36.13
-40.77
-45.32
-50.14
-55.33
-60.68
-65.8
-70.23
-73.7
-76.1
-77.59
-78.49
-79.19
-80.01
-81.18
-82.77
-84.72
-86.84
-88.77
-90.04
-90.1
-88.5
-84.96
-79.57
-72.7
-64.96
-56.98
-49.24
-41.95
-35.06
-28.31
-21.41
-14.15
-6.53
1.2
8.64
15.32
20.94
25.42
28.91
31.71
34.01
35.92
37.42
38.45
39.04
39.28
39.29
39.07
38.57
37.71
36.45
34.89
33.18
31.46
29.8
28.12
26.32
24.31
22.11
19.83
17.63
15.66
13.99
12.57
11.3
9.95
8.31
6.16
3.37
-0.12
-4.25
-8.83
-13.53
-17.91
-21.52
-23.94
-24.92
-24.38
-22.48
-19.55
-16.0
-12.21
-8.49
-4.94
-1.51
1.94
5.56
9.37
13.28
17.04
20.41
23.25
25.52
27.3
28.72
29.9
30.89
31.75
32.48
33.04
33.41
33.48
33.19
32.52
31.56
30.42
29.23
28.0
26.65
25.1
23.27
21.15
18.86
16.52
14.16
11.77
9.28
6.65
3.89
1.06
-1.78
-4.66
-7.73
-11.2
-15.32
-20.23
-25.89
-32.02
-38.12
-43.53
-47.53
-49.54
-49.2
-46.47
-41.66
-35.37
-28.33
-21.2
-14.47
-8.29
-2.65
2.62
7.62
12.38
16.87
21.0
24.69
27.87
30.47
32.45
33.8
34.62
35.12
35.52
36.02
36.65
37.3
37.79
37.96
37.76
37.24
36.49
35.6
34.57
33.38
31.97
30.32
28.47
26.49
24.42
22.26
19.98
17.5
14.8
11.89
8.89
5.9
3.07
0.45
-1.93
-4.1
-6.19
-8.32
-10.7
-13.49
-16.82
-20.72
-25.09
-29.66
-34.01
-37.6
-39.85
-40.3
-38.71
-35.14
-29.96
-23.78
-17.25
-10.93
-5.14
0.03
4.7
9.06
13.28
17.42
21.38
25.03
28.18
30.76
32.74
34.15
35.09
35.65
35.99
36.28
36.71
37.34
38.12
38.86
39.39
39.57
39.37
38.85
38.08
37.13
36.02
34.79
33.54
32.39
31.46
30.82
30.42
30.15
29.81
29.26
28.38
27.1
25.46
23.52
21.4
19.23
17.09
14.98
12.93
10.89
8.88
6.94
5.11
3.37
1.71
0.03
-1.75
-3.67
-5.71
-7.82
-9.98
-12.17
-14.41
-16.7
-19.01
-21.24
-23.38
-25.51
-27.82
-30.55
-33.8
-37.35
-40.67
-43.03
-43.8
-42.61
-39.53
-35.0
-29.65
-24.05
-18.65
-13.69
-9.25
-5.35
-1.9
1.19
4.06
6.83
9.54
12.17
14.62
16.75
18.5
19.83
20.83
21.6
22.26
22.87
23.44
23.95
24.36
24.65
24.73
24.54
24.0
23.07
21.83
20.43
19.06
17.9
17.05
16.43
15.89
15.24
14.35
13.2
11.9
10.6
9.48
8.62
8.02
7.56
7.05
6.31
5.26
3.96
2.54
1.16
-0.06
-1.15
-2.2
-3.32
-4.54
-5.82
-7.09
-8.28
-9.48
-10.79
-12.37
-14.22
-16.22
-18.19
-19.99
-21.65
-23.28
-25.01
-26.8
-28.41
-29.42
-29.48
-28.39
-26.26
-23.38
-20.11
-16.75
-13.49
-10.46
-7.72
-5.33
-3.33
-1.66
-0.23
1.08
2.33
3.51
4.54
5.32
5.8
5.98
5.98
5.93
6.02
6.37
6.97
7.66
8.21
8.38
8.05
7.27
6.19
5.04
3.96
2.99
2.11
1.31
0.61
0.05
-0.32
-0.56
-0.77
-1.09
-1.59
-2.24
-2.96
-3.66
-4.28
-4.85
-5.46
-6.18
-7.07
-8.13
-9.29
-10.46
-11.5
-12.35
-12.96
-13.4
-13.84
-14.46
-15.45
-16.85
-18.6
-20.52
-22.36
-23.86
-24.82
-25.09
-24.59
-23.35
-21.45
-19.06
-16.4
-13.77
-11.37
-9.36
-7.73
-6.38
-5.17
-4.0
-2.85
-1.82
-1.02
-0.48
-0.17
0.03
0.25
0.54
0.88
1.19
1.46
1.74
2.12
2.64
3.31
3.99
4.58
4.97
5.18
5.26
5.26
5.22
5.07
4.74
4.16
3.3
2.17
0.85
-0.59
-2.03
-3.36
-4.52
-5.5
-6.36
-7.19
-8.08
-9.06
-10.09
-11.1
-12.03
-12.87
-13.7
-14.59
-15.63
-16.89
-18.39
-20.09
-21.85
-23.43
-24.53
-24.81
-24.06
-22.3
-19.73
-16.73
-13.75
-11.13
-9.03
-7.41
-6.16
-5.09
-4.04
-2.89
-1.63
-0.3
1.06
2.31
3.34
4.03
4.35
4.35
4.15
3.96
3.93
4.17
4.71
5.44
6.2
6.86
7.32
7.56
7.62
7.53
7.31
6.95
6.43
5.78
5.04
4.25
3.43
2.54
1.53
0.4
-0.81
-1.97
-2.97
-3.7
-4.17
-4.44
-4.65
-4.91
-5.36
-6.1
-7.19
-8.63
-10.29
-11.95
-13.36
-14.34
-14.83
-14.95
-14.94
-15.06
-15.57
-16.66
-18.44
-20.88
-23.78
-26.75
-29.28
-30.87
-31.21
-30.25
-28.2
-25.5
-22.52
-19.55
-16.69
-13.9
-11.13
-8.4
-5.76
