-8.49
-1.7
4.24
9.38
13.79
17.57
20.83
23.63
25.93
27.68
28.82
29.42
29.68
29.9
30.43
31.45
32.97
34.78
36.51
37.79
38.37
38.18
37.33
36.04
34.51
32.88
31.18
29.38
27.42
25.29
23.02
20.67
18.3
15.91
13.48
10.97
8.33
5.55
2.6
-0.6
-4.12
-8.01
-12.24
-16.65
-20.98
-24.99
-28.58
-31.82
-35.0
-38.51
-42.7
-47.73
-53.5
-59.51
-64.99
-68.92
-70.37
-68.71
-63.83
-56.22
-46.78
-36.62
-26.71
-17.72
-9.95
-3.38
2.22
7.14
11.6
15.79
19.72
23.29
26.35
28.75
30.44
31.49
32.06
32.37
32.59
32.82
33.1
33.4
33.68
33.89
33.93
33.7
33.07
31.97
30.39
28.39
26.12
23.73
21.32
18.94
16.63
14.34
12.08
9.83
7.53
5.13
2.48
-0.45
-3.69
-7.1
-10.5
-13.74
-16.78
-19.76
-22.92
-26.56
-30.96
-36.16
-41.92
-47.7
-52.66
-55.89
-56.61
-54.4
-49.38
-42.14
-33.59
-24.69
-16.15
-8.39
-1.5
4.61
10.08
14.97
19.31
23.01
26.06
28.44
30.25
31.58
32.54
33.17
33.54
33.7
33.8
33.99
34.39
35.03
35.74
36.26
36.32
35.75
34.58
33.04
31.35
29.68
28.04
26.31
24.34
22.02
19.36
16.41
13.27
10.04
6.79
3.65
0.71
-2.01
-4.57
-7.16
-9.98
-13.12
-16.52
-19.97
-23.21
-26.1
-28.67
-31.22
-34.12
-37.74
-42.28
-47.67
-53.49
-59.05
-63.53
-66.09
-66.09
-63.25
-57.75
-50.16
-41.34
-32.17
-23.41
-15.54
-8.71
-2.82
2.35
7.04
11.36
15.35
18.97
22.12
24.74
26.82
28.42
29.66
30.65
31.5
32.25
32.92
33.55
34.18
34.83
35.45
35.91
36.0
35.55
34.48
32.91
31.05
29.12
27.27
25.5
23.73
21.87
19.93
17.97
16.07
14.28
12.52
10.69
8.67
6.43
4.04
1.61
-0.73
-2.95
-5.04
-7.13
-9.34
-11.79
-14.53
-17.5
-20.57
-23.54
-26.32
-28.88
-31.37
-34.0
-37.09
-40.87
-45.44
-50.64
-55.98
-60.74
-64.01
-65.0
-63.21
-58.64
-51.79
-43.48
-34.67
-26.16
-18.47
-11.78
-6.06
-1.1
3.28
7.24
10.86
14.19
17.21
19.93
22.31
24.29
25.83
26.89
27.5
27.78
27.9
28.02
28.29
28.72
29.26
29.74
30.0
29.92
29.44
28.61
27.55
26.36
25.15
23.94
22.72
21.45
20.09
18.6
17.01
15.32
13.53
11.64
9.6
7.4
5.06
2.65
0.29
-1.92
-3.97
-5.95
-7.98
-10.16
-12.51
-14.93
-17.34
-19.68
-21.98
-24.32
-26.77
-29.34
-32.01
-34.82
-37.85
-41.23
-44.97
-48.84
-52.34
-54.76
-55.42
-53.9
-50.18
-44.65
-37.99
-30.94
-24.17
-18.13
-12.96
-8.6
-4.82
-1.38
1.94
5.18
8.25
11.01
13.31
15.08
16.36
17.24
17.82
18.21
18.49
18.75
19.04
19.39
19.8
20.17
20.42
20.46
20.26
19.85
19.29
18.6
17.79
16.81
15.61
14.18
12.57
10.86
9.12
7.39
5.63
3.74
1.68
-0.58
-2.97
-5.43
-7.88
-10.33
-12.79
-15.3
-17.88
-20.56
-23.46
-26.71
-30.43
-34.56
-38.79
-42.54
-45.07
-45.73
-44.16
-40.41
-34.88
-28.25
-21.26
-14.6
-8.73
-3.89
-0.07
2.92
5.34
7.41
9.3
11.03
12.55
13.76
14.62
15.15
15.42
15.58
15.75
16.04
16.48
17.06
17.8
18.65
19.59
20.54
21.36
21.94
22.18
22.05
21.6
20.89
19.96
18.84
17.5
15.91
14.06
11.96
9.67
7.24
4.75
2.23
-0.34
-2.98
-5.74
-8.57
-11.41
-14.16
-16.74
-19.22
-21.83
-24.86
-28.62
-33.25
-38.6
-44.21
-49.36
-53.2
-55.02
-54.4
-51.31
-46.19
-39.68
-32.51
-25.31
-18.49
-12.28
-6.75
-1.86
2.52
6.55
10.42
14.2
17.82
21.07
23.72
25.62
26.8
27.48
27.92
28.36
28.89
29.5
30.09
30.59
30.96
31.17
31.17
30.89
30.24
29.2
27.83
26.31
24.78
23.33
21.93
20.46
18.8
16.9
14.78
12.58
10.45
8.49
6.72
5.08
3.47
1.78
-0.13
-2.39
-5.07
-8.15
-11.5
-14.92
-18.2
-21.23
-24.02
-26.77
-29.72
-33.12
-37.11
-41.59
-46.15
-50.16
-52.85
-53.53
-51.86
-47.9
-42.19
-35.49
-28.56
-21.94
-15.9
-10.43
-5.43
-0.73
3.77
8.13
12.37
16.42
20.19
23.54
26.35
28.55
30.09
31.01
31.42
31.52
31.54
31.69
32.08
32.67
33.28
33.61
33.44
32.63
31.26
29.51
27.6
25.76
24.15
22.82
21.73
20.76
19.72
18.39
16.67
14.57
12.26
9.98
7.9
6.06
4.33
2.5
0.41
-2.02
-4.7
-7.48
-10.17
-12.66
-14.91
-16.99
-19.06
-21.31
-23.96
-27.13
-30.75
-34.49
-37.82
-40.01
-40.44
-38.68
-34.74
-29.07
-22.43
-15.67
-9.48
-4.22
0.13
3.84
7.21
10.45
13.55
16.39
18.78
20.62
21.9
22.71
23.14
23.31
23.33
23.32
23.41
23.73
24.32
25.1
25.91
26.51
26.63
26.13
24.97
23.28
21.28
19.26
17.43
15.88
14.56
13.32
11.98
10.39
8.51
6.35
4.02
1.61
-0.76
-3.01
-5.06
-6.92
-8.66
-10.47
-12.63
-15.35
-18.68
-22.42
-26.09
-29.1
-30.88
-31.05
-29.55
-26.61
-22.63
-18.08
-13.33
-8.64
-4.15
0.09
3.99
7.52
10.61
13.24
15.41
17.16
18.56
19.64
20.4
20.87
21.12
21.26
21.4
21.6
21.86
22.09
22.16
21.98
21.55
20.94
20.23
19.46
18.62
17.65
16.51
15.25
13.93
12.65
11.44
10.3
9.15
7.91
6.54
5.04
3.47
1.86
0.22
-1.49
-3.29
-5.17
-7.05
-8.84
-10.45
-11.83
-13.07
-14.35
-15.87
-17.78
-20.12
-22.8
-25.57
-28.07
-29.87
-30.56
-29.86
-27.72
-24.38
-20.26
-15.85
-11.59
-7.77
-4.48
-1.74
0.52
2.4
4.03
5.56
7.05
8.52
9.91
11.09
11.97
12.51
12.69
12.52
12.04
11.33
10.52
9.76
9.21
8.93
8.82
8.78
8.71
8.59
8.45
8.33
8.17
7.86
7.29
6.45
5.42
4.32
3.25
2.23
1.22
0.16
-0.89
-1.9
-2.8
-3.63
-4.44
-5.32
-6.29
-7.3
-8.27
-9.13
-9.9
-10.67
-11.51
-12.48
-13.58
-14.77
-16.05
-17.5
-19.21
-21.27
-23.67
-26.25
-28.69
-30.61
-31.64
-31.56
-30.33
-28.09
-25.14
-21.8
-18.41
-15.21
-12.32
-9.78
-7.5
-5.4
-3.38
-1.41
0.45
2.14
3.6
4.83
5.85
6.74
7.57
8.39
9.25
10.14
11.0
11.75
12.29
12.56
12.57
12.37
12.07
11.71
11.3
10.76
10.07
9.25
8.35
7.5
6.75
6.12
5.58
5.09
4.61
4.11
3.55
2.9
2.11
1.17
0.13
-0.95
-1.99
-2.96
-3.86
-4.75
-5.77
-6.99
-8.46
-10.11
-11.79
-13.3
-14.52
-15.47
-16.31
-17.34
-18.82
-20.89
-23.46
-26.24
-28.84
-30.83
-31.87
-31.76
-30.47
-28.14
-25.03
-21.54
-18.04
-14.85
-12.16
-10.0
-8.26
-6.8
-5.44
-4.05
-2.56
-0.99
0.62
2.14
3.44
4.4
4.96
5.18
5.19
5.19
5.38
5.85
6.6
7.48
8.33
8.96
9.24
9.15
8.71
8.05
7.31
6.63
6.08
5.65
5.25
4.73
3.98
2.94
1.64
0.18
-1.32
-2.75
-4.09
-5.35
-6.6
-7.89
-9.24
-10.64
-12.04
-13.46
-14.94
-16.58
-18.49
-20.77
-23.4
-26.27
-29.07
-31.43
-32.97
-33.39
-32.58
-30.64
-27.82
-24.47
-20.94
-17.5
-14.32
-11.4
-8.68
-6.1
-3.63
-1.29
0.79
2.55
3.96
5.04
5.88
6.59
7.23
7.89
8.62
9.43
10.31
11.16
11.9
12.43
12.72
12.82
12.79
12.68
12.47
12.1
11.5
10.68
9.69
8.64
7.64
6.68
5.73
4.7
3.56
2.32
1.05
-0.18
-1.36
-2.57
-3.93
-5.57
-7.52
-9.75
-12.13
-14.52
-16.87
-19.24
-21.79
-24.74
-28.27
-32.43
-37.04
-41.67
-45.7
-48.44
-49.39
-48.32
-45.43
-41.2
-36.26
-31.2
-26.4
-22.0
-17.99
-14.28
-10.75
-7.32
-3.92
-0.55
2.73
5.81
8.54
10.85
12.73
14.28
15.6
16.82
18.0
19.16
20.3
21.43
22.51
23.49
24.25
24.66
24.67
24.3
23.73
23.14
22.69
22.39
22.12
21.68
20.9
19.67
18.01
16.02
13.87
11.69
9.6
7.62
5.7
3.76
1.66
-0.69
-3.29
-6.06
-8.86
-11.53
-13.98
-16.24
-18.46
-20.87
-23.75
-27.31
-31.66
-36.7
-42.11
-47.29
-51.51
-54.02
-54.26
-52.09
-47.77
-41.92
-35.32
-28.64
-22.31
-16.45
-10.97
-5.69
-0.44
4.83
10.07
15.15
19.9
24.17
27.85
30.9
33.36
35.33
36.93
38.34
39.66
40.98
42.33
43.64
44.82
45.74
46.23
46.19
45.6
44.52
43.12
41.64
40.26
39.06
37.99
36.91
35.68
34.21
32.51
30.65
28.74
26.83
24.93
23.01
21.09
19.16
17.24
15.31
13.3
11.13
8.68
5.96
2.98
-0.13
-3.25
-6.26
-9.1
-11.73
-14.21
-16.66
-19.23
-22.12
-25.56
-29.69
-34.41
-39.35
-43.84
-47.03
-48.16
-46.73
-42.74
-36.65
-29.25
-21.42
-13.93
-7.2
-1.35
3.76
8.42
12.85
17.23
21.52
25.58
29.17
32.05
34.13
35.44
36.19
36.62
36.97
37.36
37.79
38.19
38.48
38.57
38.42
37.99
37.23
36.07
34.51
32.55
30.3
27.9
25.48
23.12
20.84
18.61
16.37
14.04
11.55
8.83
5.86
2.74
-0.39
-3.33
-5.91
-8.14
-10.23
-12.54
-15.4
-18.93
-22.99
-27.19
-31.07
-34.34
-36.84
-38.44
-39.07
-38.7
-37.51
-35.94
-34.61
-33.99
-34.09
-34.32
-33.7
-31.33
-26.77
-20.24
-12.47
-4.26
3.77
11.38
18.5
25.13
31.2
36.65
41.57
46.23
51.03
56.4
62.6
69.56
76.8
83.61
89.14
92.68
93.92
92.99
90.5
87.28
84.12
81.52
79.59
78.09
76.63
74.83
72.48
69.5
65.88
61.61
56.62
50.87
44.39
37.31
29.9
22.41
15.03
7.82
0.72
-6.41
-13.72
-21.27
-29.01
-36.78
-44.38
-51.6
-58.31
-64.49
-70.16
-75.39
-80.2
-84.52
-88.2
-90.97
-92.47
-92.37
-90.37
-86.35
-80.42
-72.91
-64.3
-55.1
-45.75
-36.51
-27.59
-19.07
-11.13
-3.96
2.19
7.19
10.99
13.71
15.48
16.43
16.68
16.34
15.57
14.63
13.81
13.36
13.35
13.64
13.96
14.02
13.64
12.79
11.62
10.28
8.93
7.65
6.42
5.21
3.92
2.43
0.61
-1.64
-4.35
-7.42
-10.61
-13.64
-16.26
-18.38
-20.06
-21.45
-22.72
-24.01
-25.33
-26.59
-27.63
-28.19
-27.98
-26.75
-24.31
-20.58
-15.65
-9.74
-3.17
3.66
10.36
16.6
22.19
27.04
31.16
34.54
37.15
38.93
39.81
39.79
38.93
37.43
35.51
33.42
31.36
29.45
27.76
26.29
24.94
23.62
22.17
20.4
18.17
15.35
11.93
7.99
3.74
-0.63
-4.95
-9.21
-13.55
-18.12
-23.07
-28.33
-33.7
-38.9
-43.7
-48.02
-51.99
-55.77
-59.49
-63.07
-66.25
-68.66
-70.02
-70.16
-69.13
-67.04
-64.08
-60.39
-56.08
-51.2
-45.77
-39.8
-33.2
-25.92
-17.95
-9.47
-0.78
7.62
15.25
21.75
26.93
30.9
33.87
36.16
37.99
39.48
40.59
41.26
41.4
41.01
40.13
38.89
37.41
35.78
34.02
32.16
30.25
28.39
26.74
25.48
24.68
24.26
24.0
23.59
22.76
21.37
19.44
17.07
14.45
11.69
8.81
5.79
2.59
-0.78
-4.18
-7.43
-10.33
-12.75
-14.69
-16.23
-17.47
-18.46
-19.17
-19.56
-19.62
-19.38
-18.94
-18.45
-18.0
-17.68
-17.63
-17.99
-18.9
-20.42
-22.41
-24.52
-26.27
-27.15
-26.83
-25.18
-22.3
-18.42
-13.89
-9.06
-4.3
0.09
3.96
7.28
10.15
12.77
15.27
17.69
19.93
21.83
23.23
24.06
24.37
24.27
23.88
23.29
22.51
21.53
20.28
18.74
16.91
14.78
12.42
9.88
7.21
4.49
1.8
-0.78
-3.15
-5.24
-7.02
-8.51
-9.76
-10.8
-11.66
-12.37
-12.92
-13.32
-13.57
-13.65
-13.56
-13.31
-12.98
-12.61
-12.24
-11.89
-11.52
-11.08
-10.63
-10.24
-10.02
-10.01
-10.13
-10.18
-9.96
-9.39
-8.62
-8.02
-8.04
-8.98
-10.81
-13.11
-15.22
-16.45
-16.36
-14.91
-12.45
-9.52
-6.61
-4.04
-1.89
-0.12
1.33
2.52
3.46
4.16
4.7
5.13
5.5
5.77
5.87
5.74
5.41
5.03
4.81
4.93
5.44
6.32
7.42
8.61
9.83
11.11
12.53
14.15
15.94
17.77
19.48
20.93
22.02
22.76
23.15
23.25
23.05
22.58
21.85
20.95
20.01
19.1
18.32
17.66
17.12
16.68
16.39
16.24
16.18
16.07
15.61
14.44
12.24
8.82
4.2
-1.32
-7.24
-12.97
-17.96
-21.8
-24.43
-25.99
-26.84
-27.32
-27.67
-27.93
-27.98
-27.67
-26.96
-25.87
-24.62
-23.36
-22.19
-21.07
-19.89
-18.59
-17.28
-16.16
-15.5
-15.4
-15.84
-16.58
-17.33
-17.87
-18.14
-18.19
-18.13
-17.99
-17.72
-17.22
-16.39
-15.19
-13.64
-11.83
-9.83
-7.72
-5.57
-3.4
-1.24
0.91
3.01
5.02
6.88
8.59
10.13
11.57
12.95
14.32
15.66
16.9
17.91
18.56
18.73
18.37
17.54
16.42
15.31
14.49
14.24
14.63
15.61
17.02
18.63
20.23
21.67
22.84
23.7
24.33
24.8
25.21
25.59
25.86
25.89
25.57
24.88
23.93
22.89
21.87
20.91
19.97
19.0
17.97
16.87
15.72
14.44
12.97
11.26
9.35
7.33
5.34
3.44
1.58
-0.34
-2.38
-4.53
-6.65
-8.57
-10.19
-11.51
-12.63
-13.69
-14.73
-15.74
-16.63
-17.3
-17.71
-17.91
-17.97
-17.99
-18.03
-18.11
-18.28
-18.58
-19.05
-19.73
-20.6
-21.59
-22.6
-23.55
-24.36
-25.05
-25.69
-26.32
-26.97
-27.56
-27.93
-27.84
-27.11
-25.67
-23.6
-21.14
-18.61
-16.28
-14.3
-12.67
-11.32
-10.12
-8.97
-7.83
-6.67
-5.5
-4.34
-3.29
-2.41
-1.8
-1.48
-1.39
-1.4
-1.4
-1.3
-1.09
-0.82
-0.52
-0.27
-0.15
-0.22
-0.56
-1.22
-2.19
-3.36
-4.6
-5.82
-6.97
-8.15
-9.49
-11.09
-13.01
-15.15
-17.31
-19.23
-20.67
-21.54
-21.87
-21.86
-21.75
-21.74
-21.89
-22.12
-22.25
-22.13
-21.67
-20.87
-19.82
-18.67
-17.6
-16.84
-16.6
-17.03
-18.16
-19.79
-21.57
-23.03
-23.86
-23.88
-23.19
-22.05
-20.79
-19.66
-18.77
-18.06
-17.39
-16.59
-15.52
-14.12
-12.44
-10.57
-8.63
-6.68
-4.72
-2.67
-0.41
2.24
5.38
9.08
13.26
17.77
22.44
27.08
31.58
35.86
39.87
43.49
46.59
49.02
50.69
51.61
51.9
51.67
50.97
49.77
47.94
45.36
42.05
38.13
33.82
29.39
25.05
20.9
16.94
13.06
9.05
4.7
-0.17
-5.64
-11.63
-17.85
-23.86
-29.12
-33.14
-35.63
-36.57
-36.24
-35.08
-33.52
-31.82
-29.98
-27.81
-25.09
-21.67
-17.63
-13.21
-8.73
-4.47
-0.66
2.61
5.31
7.51
9.32
10.89
12.35
13.76
15.12
16.33
17.31
18.02
18.46
18.67
18.68
18.48
18.06
17.4
16.53
15.49
14.34
13.12
11.77
10.23
8.44
6.37
4.09
1.7
-0.67
-2.91
-5.05
-7.18
-9.43
-11.92
-14.64
-17.46
-20.21
-22.79
-25.23
-27.72
-30.54
-33.95
-38.03
-42.62
-47.34
-51.72
-55.22
-57.37
-57.84
-56.52
-53.49
-49.07
-43.73
-37.99
-32.27
-26.83
-21.74
-16.91
-12.2
-7.52
-2.87
1.64
5.88
9.75
13.2
16.3
19.1
21.62
23.89
25.9
27.71
29.38
30.97
32.5
33.96
35.27
36.33
37.02
37.2
36.8
35.85
34.49
32.96
31.53
30.4
29.56
28.84
28.0
26.85
25.36
23.61
21.72
19.78
17.76
15.61
13.28
10.75
8.04
5.17
2.19
-0.86
-3.91
-6.85
-9.62
-12.2
-14.75
-17.51
-20.76
-24.64
-29.09
-33.69
-37.81
-40.69
-41.73
-40.61
-37.39
-32.46
-26.38
-19.74
-13.03
-6.61
-0.71
4.56
9.21
13.27
16.83
19.93
22.6
24.8
26.55
27.9
28.95
29.79
30.46
30.98
31.33
31.54
31.72
31.97
32.36
32.83
33.24
33.38
33.15
32.54
31.72
30.84
30.09
29.46
28.85
28.12
27.12
25.82
24.34
22.81
21.37
20.06
18.76
17.31
15.55
13.42
10.99
8.45
6.03
3.92
2.19
0.75
-0.63
-2.28
-4.46
-7.33
-10.87
-14.88
-19.02
-22.8
-25.69
-27.19
-26.97
-24.99
-21.49
-16.96
-11.97
-7.03
-2.44
1.7
5.43
8.88
12.11
15.11
17.81
20.09
21.87
23.14
24.01
24.63
25.14
25.64
26.09
26.44
26.64
26.75
26.88
27.11
27.44
27.7
27.66
27.17
26.2
24.93
23.63
22.54
21.71
21.04
20.31
19.36
18.16
16.84
15.55
14.35
13.16
11.82
10.16
8.16
5.94
3.71
1.63
-0.23
-1.94
-3.61
-5.33
-7.16
-9.14
-11.31
-13.71
-16.34
-19.04
-21.49
-23.29
-23.99
-23.34
-21.37
-18.35
-14.74
-11.02
-7.53
-4.44
-1.77
0.53
2.55
4.37
6.03
7.6
9.11
10.55
11.85
12.89
13.55
13.78
13.66
13.32
12.99
12.84
12.94
13.21
13.5
13.62
13.41
12.82
11.9
10.77
9.59
8.47
7.5
6.7
6.05
5.52
5.02
4.52
4.01
3.53
3.15
2.88
2.67
2.42
2.03
1.45
0.77
0.13
-0.4
-0.82
-1.26
-1.88
-2.77
-3.88
-5.13
-6.39
-7.62
-8.84
-10.09
-11.44
-12.93
-14.62
-16.59
-18.84
-21.28
-23.63
-25.48
-26.42
-26.19
-24.78
-22.45
-19.57
-16.56
-13.72
-11.21
-9.07
-7.25
-5.64
-4.14
-2.65
-1.12
0.42
1.9
3.26
4.42
5.35
6.05
6.53
6.8
6.89
6.83
6.7
6.57
6.53
6.59
6.73
6.9
7.02
7.06
6.96
6.71
6.31
5.81
5.28
4.83
4.5
4.27
4.06
3.74
3.19
2.38
1.33
0.15
-1.03
-2.07
-2.9
-3.49
-3.89
-4.18
-4.51
-4.97
-5.58
-6.35
-7.2
-8.09
-9.02
-9.99
-11.03
-12.06
-12.98
-13.69
-14.16
-14.51
-14.95
-15.74
-17.04
-18.84
-20.96
-23.06
-24.79
-25.89
-26.19
-25.63
-24.19
-21.99
-19.23
-16.21
-13.34
-10.96
-9.26
-8.18
-7.44
-6.66
-5.53
-3.93
-2.0
-0.03
1.64
2.77
3.3
3.37
3.19
3.0
2.98
3.2
3.66
4.29
5.0
5.71
6.3
6.72
6.92
6.92
6.76
6.49
6.18
5.83
5.41
4.88
4.26
3.57
2.93
2.36
1.91
1.55
1.22
0.89
0.53
0.11
-0.43
-1.19
-2.24
-3.56
-5.0
-6.36
-7.48
-8.33
-9.08
-9.93
-11.02
-12.34
-13.72
-14.97
-15.99
-16.82
-17.62
-18.6
-19.88
-21.46
-23.23
-24.96
-26.39
-27.22
-27.22
-26.25
-24.39
-21.86
-19.06
-16.34
-13.97
-12.07
-10.56
-9.33
-8.18
-7.0
-5.69
-4.24
-2.66
-1.04
0.49
1.79
2.75
3.35
3.66
3.8
3.92
4.14
4.52
5.1
5.84
6.68
7.47
8.04
8.23
7.93
7.22
6.26
5.27
4.39
3.66
2.95
2.11
1.05
-0.2
-1.48
-2.55
-3.25
-3.58
-3.7
-3.89
-4.44
-5.53
-7.16
-9.14
-11.22
-13.17
-14.92
-16.54
-18.24
-20.2
-22.49
-25.1
-27.81
-30.38
-32.46
-33.71
-33.81
-32.59
-30.03
-26.33
-21.9
-17.24
-12.88
-9.15
-6.2
-3.96
-2.21
-0.68
0.78
2.24
3.67
5.02
6.22
7.26
8.14
8.86
9.42
9.79
9.99
10.08
10.14
10.26
10.46
10.72
10.98
11.15
11.16
10.93
10.44
9.69
8.74
7.69
6.62
5.58
4.58
3.59
2.59
1.53
0.39
-0.83
-2.12
-3.52
-5.06
-6.78
-8.72
-10.88
-13.21
-15.65
-18.23
-21.04
-24.28
-28.05
-32.27
-36.52
-40.11
-42.33
-42.67
-41.09
-37.86
-33.55
-28.67
-23.66
-18.78
-14.18
-10.01
-6.33
-3.09
-0.13
2.77
5.79
8.89
11.89
14.51
16.53
17.93
18.88
19.67
20.56
21.68
22.97
24.27
25.41
26.3
26.98
27.5
27.89
28.03
27.83
27.17
26.11
24.81
23.47
22.25
21.15
20.05
18.76
17.15
15.2
13.03
10.82
8.76
6.93
5.28
3.65
1.9
-0.08
-2.31
-4.71
-7.23
-9.85
-12.64
-15.65
-18.9
-22.38
-26.05
-29.9
-34.07
-38.69
-43.86
-49.43
-54.95
-59.67
-62.72
-63.36
-61.2
-56.42
-49.61
-41.66
-33.43
-25.58
-18.45
-12.13
-6.55
-1.57
2.99
7.29
11.48
15.64
19.72
23.57
26.93
29.63
31.64
33.13
34.36
35.62
37.04
38.64
40.29
41.85
43.16
44.01
44.18
43.49
41.85
39.41
36.58
33.85
31.62
29.99
28.75
27.54
26.03
24.13
22.0
19.87
17.9
16.12
14.4
12.57
10.54
8.26
5.76
3.03
0.05
-3.25
-6.88
-10.76
-14.76
-18.75
-22.66
-26.6
-30.82
-35.61
-41.21
-47.59
-54.4
-60.88
-66.04
-68.86
-68.56
-64.85
-58.04
-49.0
-38.86
-28.76
-19.53
-11.56
-4.84
0.95
6.14
11.02
15.69
20.09
24.06
27.41
30.05
32.0
33.39
34.4
35.22
35.98
36.76
37.63
38.62
39.69
40.73
41.55
41.96
41.85
41.2
40.12
38.71
37.05
35.1
32.8
30.12
27.1
23.9
20.67
17.51
14.44
11.4
8.29
5.08
1.75
-1.64
-5.06
-8.47
-11.85
-15.23
-18.7
-22.42
-26.63
-31.63
-37.6
-44.42
-51.54
-57.98
-62.6
-64.36
-62.69
-57.64
-49.85
-40.32
-30.11
-20.14
-11.05
-3.14
3.53
9.14
13.98
18.38
22.52
26.42
29.9
32.71
34.65
35.74
36.18
36.28
36.4
36.8
37.57
38.62
39.72
40.59
40.97
40.69
39.71
38.05
35.82
33.15
30.14
26.89
23.49
19.98
16.41
12.73
8.89
4.82
0.45
-4.21
-9.16
-14.31
-19.59
-24.89
-30.13
-35.32
-40.55
-46.0
-51.93
-58.55
-65.97
-74.12
-82.59
-90.64
-97.22
-101.18
-101.53
-97.71
-89.78
-78.46
-64.89
-50.36
-35.98
-22.53
-10.31
0.76
10.97
20.63
29.93
38.8
47.02
54.25
60.26
64.98
68.52
71.07
72.82
73.89
74.36
74.25
73.62
72.52
71.0
69.0
66.49
63.4
59.77
55.73
51.48
47.26
43.24
39.49
35.95
32.48
28.97
25.37
21.7
18.02
14.43
10.96
7.56
4.16
0.69
-2.89
-6.51
-10.0
-13.2
-16.01
-18.48
-20.86
-23.58
-27.1
-31.7
-37.32
-43.37
-48.8
-52.33
-52.72
-49.18
-41.58
-30.52
-17.12
-2.7
11.58
24.91
36.88
47.42
56.56
64.4
70.98
76.29
80.25
82.74
83.59
82.7
80.09
76.0
70.87
65.23
59.58
54.23
49.33
44.89
40.84
37.11
33.6
30.15
26.58
22.78
18.73
14.53
10.36
6.33
2.43
-1.47
-5.46
-9.6
-13.76
-17.79
-21.57
-25.11
-28.47
-31.78
-35.09
-38.37
-41.53
-44.53
-47.35
-50.08
-52.86
-55.86
-59.31
-63.46
-68.4
-73.93
-79.47
-84.06
-86.59
-86.07
-81.97
-74.38
-63.95
-51.74
-38.91
-26.47
-15.09
-5.03
3.76
11.56
18.66
25.23
31.23
36.5
40.83
44.16
46.6
48.36
49.73
50.91
52.02
53.1
54.17
55.26
56.33
57.25
57.8
57.67
56.63
54.64
51.87
48.68
45.46
42.5
39.92
37.59
35.32
32.86
30.11
27.1
23.98
20.91
17.92
14.93
11.69
7.82
2.94
-3.23
-10.79
-19.45
-28.56
-37.17
-44.23
-48.84
-50.49
-49.21
-45.49
-40.11
-33.86
-27.39
-21.06
-15.02
-9.22
-3.56
2.03
