15.67
14.45
13.09
11.62
10.12
8.59
7.03
5.36
3.5
1.39
-0.99
-3.52
-6.03
-8.33
-10.31
-12.02
-13.65
-15.46
-17.67
-20.42
-23.69
-27.42
-31.38
-35.3
-38.78
-41.3
-42.38
-41.67
-39.12
-35.04
-29.95
-24.48
-19.1
-14.13
-9.62
-5.55
-1.84
1.61
4.87
7.99
11.0
13.86
16.46
18.64
20.31
21.48
22.27
22.88
23.46
24.08
24.73
25.32
25.8
26.13
26.33
26.39
26.28
25.93
25.29
24.33
23.06
21.53
19.81
17.93
15.86
13.56
11.0
8.18
5.19
2.1
-0.98
-3.99
-6.88
-9.6
-12.16
-14.53
-16.77
-19.02
-21.49
-24.38
-27.72
-31.32
-34.66
-37.08
-37.92
-36.79
-33.65
-28.87
-23.08
-16.94
-11.02
-5.66
-1.02
2.88
6.12
8.86
11.3
13.65
16.04
18.43
20.66
22.47
23.69
24.3
24.49
24.53
24.64
24.88
25.17
25.33
25.26
24.92
24.4
23.74
22.95
21.94
20.59
18.89
16.93
14.93
13.12
11.61
10.38
9.24
7.97
6.4
4.46
2.22
-0.21
-2.7
-5.12
-7.44
-9.67
-11.88
-14.22
-16.89
-20.05
-23.72
-27.72
-31.63
-34.85
-36.76
-36.85
-34.95
-31.23
-26.15
-20.34
-14.39
-8.72
-3.53
1.12
5.3
9.05
12.48
15.65
18.66
21.55
24.28
26.71
28.63
29.9
30.51
30.64
30.53
30.4
30.3
30.15
29.83
29.25
28.47
27.61
26.76
25.92
24.93
23.65
22.0
20.05
17.97
15.97
14.15
12.46
10.73
8.72
6.34
3.65
0.87
-1.75
-4.02
-5.95
-7.7
-9.55
-11.7
-14.26
-17.24
-20.53
-23.9
-27.05
-29.58
-31.02
-30.93
-29.1
-25.58
-20.77
-15.32
-9.89
-5.0
-0.92
2.34
4.94
7.15
9.15
11.05
12.88
14.61
16.19
17.57
18.72
19.62
20.26
20.63
20.76
20.75
20.68
20.65
20.69
20.75
20.7
20.42
19.78
18.73
17.25
15.46
13.47
11.48
9.66
8.12
6.86
5.75
4.54
3.0
1.01
-1.37
-3.88
-6.26
-8.38
-10.27
-12.16
-14.29
-16.86
-19.89
-23.28
-26.84
-30.33
-33.39
-35.6
-36.5
-35.75
-33.27
-29.33
-24.48
-19.36
-14.48
-10.14
-6.36
-3.02
0.04
2.89
5.52
7.88
9.87
11.45
12.59
13.33
13.72
13.89
13.94
13.97
14.03
14.11
14.19
14.26
14.29
14.27
14.13
13.83
13.27
12.41
11.27
9.95
8.6
7.37
6.33
5.45
4.59
3.56
2.23
0.54
-1.4
-3.44
-5.42
-7.28
-9.08
-11.0
-13.23
-15.88
-18.94
-22.22
-25.36
-27.95
-29.53
-29.77
-28.53
-25.89
-22.12
-17.61
-12.84
-8.18
-3.94
-0.28
2.8
5.39
7.66
9.72
11.63
13.28
14.58
15.41
15.78
15.77
15.52
15.14
14.69
14.18
13.6
13.03
12.55
12.23
12.07
11.94
11.7
11.24
10.59
9.86
9.2
8.64
8.12
7.49
6.56
5.27
3.67
1.87
0.03
-1.74
-3.37
-4.87
-6.22
-7.53
-8.89
-10.51
-12.51
-14.9
-17.48
-19.89
-21.69
-22.48
-22.06
-20.42
-17.74
-14.32
-10.53
-6.75
-3.27
-0.32
2.05
3.91
5.45
6.88
8.32
9.75
11.08
12.15
12.88
13.3
13.47
13.54
13.59
13.68
13.81
13.96
14.1
14.18
14.14
13.94
13.54
12.95
12.17
11.23
10.15
8.93
7.61
6.32
5.15
4.16
3.32
2.46
1.36
-0.1
-1.89
-3.78
-5.45
-6.72
-7.58
-8.28
-9.16
-10.5
-12.42
-14.82
-17.47
-20.12
-22.44
-24.15
-24.94
-24.58
-22.95
-20.21
-16.7
-12.93
-9.35
-6.28
-3.77
-1.76
-0.15
1.14
2.13
2.83
3.28
3.57
3.78
3.98
4.21
4.47
4.76
5.03
5.29
5.53
5.81
6.16
6.61
7.16
7.74
8.23
8.54
8.56
8.25
7.65
6.85
5.92
4.92
3.84
2.64
1.3
-0.19
-1.73
-3.2
-4.52
-5.69
-6.82
-8.1
-9.68
-11.62
-13.86
-16.19
-18.32
-19.93
-20.7
-20.44
-19.1
-16.86
-14.05
-11.09
-8.32
-5.9
-3.85
-2.02
-0.31
1.4
3.04
4.52
5.73
6.59
7.15
7.43
7.54
7.53
7.42
7.28
7.16
7.12
7.19
7.37
7.58
7.67
7.56
7.22
6.67
6.02
5.32
4.61
3.82
2.89
1.81
0.63
-0.53
-1.54
-2.33
-2.98
-3.64
-4.5
-5.68
-7.13
-8.65
-9.98
-10.98
-11.67
-12.24
-13.0
-14.21
-15.96
-18.17
-20.62
-23.03
-25.07
-26.39
-26.7
-25.75
-23.52
-20.23
-16.33
-12.34
-8.67
-5.52
-2.83
-0.43
1.83
4.0
6.01
7.75
9.14
10.11
10.64
10.76
10.51
10.0
9.43
9.01
8.88
9.12
9.68
10.4
11.1
11.61
11.77
11.52
10.83
9.79
8.58
7.41
6.43
5.63
4.93
4.12
3.03
1.65
0.06
-1.54
-2.98
-4.14
-5.03
-5.72
-6.33
-6.94
-7.63
-8.42
-9.28
-10.17
-11.01
-11.79
-12.56
-13.47
-14.68
-16.27
-18.15
-20.07
-21.65
-22.51
-22.4
-21.24
-19.18
-16.48
-13.47
-10.4
-7.49
-4.82
-2.45
-0.35
1.47
3.09
4.56
5.87
7.03
7.96
8.58
8.85
8.81
8.57
8.29
8.1
8.06
8.16
8.33
8.52
8.74
8.99
9.26
9.49
9.58
9.45
9.06
8.49
7.87
7.32
6.91
6.58
6.19
5.62
4.8
3.78
2.69
1.61
0.6
-0.42
-1.53
-2.8
-4.22
-5.72
-7.21
-8.67
-10.1
-11.56
-13.07
-14.67
-16.37
-18.2
-20.17
-22.22
-24.2
-25.81
-26.75
-26.7
-25.51
-23.19
-19.98
-16.25
-12.48
-9.09
-6.35
-4.33
-2.86
-1.69
-0.52
0.77
2.14
3.42
4.43
5.08
5.37
5.44
5.41
5.36
5.33
5.32
5.35
5.47
5.75
6.23
6.88
7.58
8.2
8.55
8.55
8.17
7.51
6.67
5.78
4.95
4.19
3.51
2.84
2.11
1.27
0.28
-0.85
-2.1
-3.47
-4.95
-6.53
-8.24
-10.08
-12.04
-14.1
-16.22
-18.29
-20.18
-21.65
-22.47
-22.4
-21.29
-19.14
-16.17
-12.73
-9.2
-5.91
-3.07
-0.72
1.19
2.76
4.07
5.19
6.19
7.09
7.93
8.68
9.35
9.87
10.24
10.44
10.47
10.32
10.03
9.61
9.11
8.56
8.02
7.49
6.96
6.39
5.72
4.9
3.89
2.72
1.46
0.17
-1.09
-2.33
-3.58
-4.83
-5.99
-6.83
-7.07
-6.57
-5.46
-4.18
-3.31
-3.35
-4.43
-6.32
-8.56
-10.78
-12.83
-14.85
-17.03
-19.43
-21.86
-23.91
-25.18
-25.48
-24.87
-23.6
-21.96
-20.13
-18.21
-16.25
-14.34
-12.6
-11.19
-10.21
-9.75
-9.8
-10.31
-11.13
-11.96
-12.44
-12.14
-10.73
-8.04
-4.19
0.57
5.86
11.35
16.76
21.87
26.48
30.41
33.5
35.63
36.82
37.19
36.94
36.32
35.45
34.4
33.12
31.56
29.74
27.73
25.67
23.65
21.7
19.76
17.75
15.6
13.34
11.07
8.88
6.79
4.77
2.74
0.68
-1.43
-3.54
-5.62
-7.64
-9.55
-11.23
-12.45
-12.92
-12.35
-10.53
-7.45
-3.33
1.42
6.33
11.02
15.22
18.89
22.14
25.13
28.03
30.9
33.72
36.46
39.17
41.95
44.84
47.65
49.97
51.27
51.1
49.26
45.84
41.0
34.76
26.87
16.91
4.56
-10.1
-26.41
-43.17
-59.01
-72.63
-83.08
-89.82
-92.63
-91.54
-86.78
-78.91
-68.8
-57.56
-46.45
-36.49
-28.29
-21.93
-17.1
-13.4
-10.61
-8.7
-7.72
-7.63
-8.05
-8.49
-8.54
-8.12
-7.51
-7.18
-7.5
-8.48
-9.78
-10.81
-11.05
-10.25
-8.42
-5.75
-2.43
1.42
5.74
10.34
14.81
18.55
20.91
21.47
20.23
17.71
14.83
12.57
11.57
11.91
13.09
14.33
14.91
14.52
13.31
11.76
10.37
9.47
9.25
9.79
11.15
13.24
15.72
17.95
19.19
18.91
17.15
14.47
11.71
9.61
8.47
8.16
8.36
8.75
9.11
9.19
8.63
6.91
3.59
-1.47
-7.88
-14.79
-21.06
-25.58
-27.7
-27.4
-25.38
-22.84
-21.02
-20.73
-21.98
-24.0
-25.6
-25.76
-24.06
-20.83
-16.86
-12.93
-9.42
-6.26
-3.11
0.31
3.95
7.44
10.34
12.37
13.62
14.47
15.35
16.54
18.05
19.62
20.9
21.67
21.93
21.9
21.83
21.93
22.22
22.57
22.79
22.72
22.32
21.63
20.77
19.82
18.85
17.85
16.78
15.53
14.04
12.27
10.3
8.22
6.21
4.32
2.55
0.84
-0.92
-2.75
-4.61
-6.43
-8.16
-9.84
-11.56
-13.43
-15.54
-17.9
-20.49
-23.28
-26.14
-28.83
-30.98
-32.13
-31.92
-30.16
-27.01
-22.91
-18.46
-14.17
-10.37
-7.15
-4.41
-1.99
0.25
2.39
4.43
6.35
8.14
9.81
11.38
12.82
14.08
15.08
15.77
16.16
16.37
16.62
17.05
17.72
18.5
19.11
19.3
18.92
18.02
16.79
15.48
14.29
13.28
12.41
11.55
10.61
9.48
8.2
6.82
5.43
4.12
2.95
1.91
0.93
-0.04
-1.04
-2.1
-3.21
-4.39
-5.68
-7.11
-8.69
-10.38
-12.15
-14.02
-16.05
-18.34
-20.85
-23.4
-25.54
-26.76
-26.66
-25.11
-22.35
-18.85
-15.09
-11.44
-8.06
-4.91
-1.96
0.8
3.33
5.61
7.62
9.38
10.92
12.21
13.18
13.77
13.99
13.92
13.73
13.59
13.6
13.82
14.23
14.79
15.44
16.11
16.71
17.13
17.29
17.11
16.61
15.86
15.0
14.14
13.38
12.72
12.1
11.44
10.7
9.88
9.0
8.13
7.35
6.65
6.02
5.37
4.59
3.63
2.5
1.27
0.03
-1.17
-2.41
-3.82
-5.54
-7.58
-9.81
-11.99
-13.9
-15.46
-16.72
-17.92
-19.28
-20.95
-22.9
-24.97
-26.89
-28.31
-28.94
-28.53
-26.96
-24.27
-20.65
-16.49
-12.24
-8.34
-5.13
-2.72
-1.0
0.29
1.46
2.72
4.15
5.65
7.08
8.3
9.22
9.85
10.23
10.46
10.64
10.9
11.4
12.16
13.14
14.19
15.15
15.85
16.21
16.26
16.05
15.68
15.19
14.63
14.09
13.6
13.15
12.71
12.15
11.39
10.36
9.08
7.67
6.28
5.06
4.14
3.58
3.3
3.14
2.85
2.15
0.83
-1.15
-3.72
-6.68
-9.77
-12.74
-15.31
-17.23
-18.29
-18.34
-17.37
-15.52
-13.07
-10.33
-7.6
-5.04
-2.67
-0.38
1.94
4.36
6.8
9.13
11.18
12.81
14.02
14.84
15.32
15.48
15.34
14.9
14.28
13.61
13.08
12.78
12.71
12.78
12.87
12.87
12.72
12.39
11.88
11.21
10.41
9.55
8.71
7.97
7.39
6.97
6.67
6.38
5.98
5.41
4.62
3.66
2.6
1.56
0.63
-0.16
-0.82
-1.46
-2.2
-3.17
-4.45
-5.97
-7.6
-9.1
-10.32
-11.23
-11.92
-12.6
-13.45
-14.51
-15.68
-16.76
-17.51
-17.75
-17.35
-16.24
-14.39
-11.87
-8.86
-5.63
-2.49
0.29
2.56
4.3
5.63
6.66
7.53
8.33
9.11
9.89
10.65
11.34
11.89
12.22
12.31
12.17
11.89
11.57
11.33
11.21
11.19
11.18
11.06
10.75
10.23
9.58
8.89
8.27
7.72
7.2
6.64
6.02
5.37
4.78
4.31
3.99
3.78
3.59
3.39
3.13
2.82
2.45
1.99
1.38
0.59
-0.37
-1.42
-2.46
-3.42
-4.27
-5.06
-5.83
-6.59
-7.31
-7.96
-8.54
-9.14
-9.85
-10.73
-11.66
-12.45
-12.8
-12.53
-11.62
-10.21
-8.58
-6.93
-5.38
-3.97
-2.68
-1.52
-0.54
0.23
0.81
1.27
1.65
2.02
2.35
2.61
2.79
2.88
2.91
2.93
2.97
3.08
3.31
3.68
4.14
4.58
4.84
4.84
4.55
4.05
3.48
2.9
2.36
1.82
1.3
0.79
0.34
-0.0
-0.23
-0.38
-0.52
-0.69
-0.89
-1.09
-1.22
-1.28
-1.32
-1.44
-1.75
-2.3
-3.09
-4.01
-4.95
-5.82
-6.54
-7.08
-7.45
-7.7
-7.96
-8.36
-9.05
-10.04
-11.17
-12.16
-12.64
-12.39
-11.36
-9.75
-7.89
-6.1
-4.64
-3.61
-3.02
-2.79
-2.76
-2.76
-2.67
-2.42
-2.02
-1.54
-1.04
-0.55
-0.05
0.46
0.96
1.38
1.66
1.81
1.92
2.1
2.38
2.71
2.97
3.02
2.84
2.51
2.12
1.71
1.24
0.62
-0.18
-1.1
-1.97
-2.65
-3.07
-3.32
-3.51
-3.79
-4.18
-4.65
-5.08
-5.37
-5.5
-5.44
-5.31
-5.23
-5.34
-5.78
-6.59
-7.72
-8.96
-10.14
-11.08
-11.72
-12.06
-12.13
-11.95
-11.5
-10.77
-9.75
-8.47
-7.05
-5.6
-4.25
-3.11
-2.2
-1.55
-1.13
-0.91
-0.83
-0.86
-0.94
-0.98
-0.9
-0.66
-0.27
0.21
0.66
0.99
1.22
1.44
1.77
2.25
2.81
3.25
3.43
3.26
2.81
2.28
1.83
1.52
1.29
1.06
0.74
0.37
0.01
-0.29
-0.52
-0.75
-1.03
-1.41
-1.84
-2.27
-2.67
-3.07
-3.53
-4.08
-4.74
-5.5
-6.33
-7.24
-8.2
-9.2
-10.19
-11.15
-12.13
-13.28
-14.7
-16.42
-18.28
-19.95
-21.05
-21.33
-20.74
-19.43
-17.65
-15.7
-13.78
-12.02
-10.46
-9.07
-7.79
-6.57
-5.37
-4.17
-2.99
-1.85
-0.76
0.29
1.29
2.19
2.93
3.48
3.86
4.13
4.4
4.76
5.24
5.79
6.36
6.83
7.16
7.35
7.45
7.56
7.76
8.04
8.34
8.53
8.46
8.09
7.49
6.81
6.25
5.89
5.72
5.6
5.34
4.8
3.94
2.89
1.8
0.88
0.25
-0.08
-0.18
-0.18
-0.19
-0.31
-0.56
-1.03
-1.78
-2.88
-4.38
-6.25
-8.33
-10.46
-12.48
-14.38
-16.22
-18.17
-20.24
-22.29
-23.96
-24.79
-24.45
-22.86
-20.24
-17.07
-13.79
-10.71
-7.97
-5.54
-3.42
-1.63
-0.26
0.69
1.29
1.74
2.3
3.1
4.16
5.36
6.5
7.41
8.03
8.39
8.6
8.83
9.2
9.81
10.69
11.79
13.0
14.18
15.19
15.96
16.49
16.85
17.15
17.5
17.96
18.55
19.27
20.07
20.89
21.69
22.42
23.07
23.75
24.63
25.88
27.61
29.76
32.04
34.12
35.62
36.33
36.14
35.05
33.11
30.33
26.75
22.39
17.35
11.84
6.2
0.9
-3.54
-6.56
-7.67
-6.5
-2.85
3.23
11.41
21.03
31.13
40.49
47.88
52.27
53.12
50.57
45.36
38.52
30.99
23.23
15.17
6.51
-2.74
-11.91
-19.67
-24.44
-25.15
-21.71
-15.13
-7.07
0.81
7.37
12.21
15.37
17.03
17.26
16.05
13.44
9.68
5.28
0.78
-3.37
-7.0
-10.22
-13.31
-16.52
-19.96
-23.53
-26.95
-29.85
-31.92
-33.01
-33.19
-32.72
-32.0
-31.39
-31.18
-31.51
-32.4
-33.83
-35.81
-38.34
-41.44
-44.99
-48.67
-51.97
-54.23
-54.85
-53.4
-49.85
-44.53
-38.07
-31.22
-24.6
-18.59
-13.25
-8.47
-4.06
0.11
4.03
7.63
10.82
13.54
15.81
17.69
19.2
20.37
21.16
21.54
21.54
21.25
20.8
20.37
20.04
19.78
19.45
18.88
17.89
16.42
14.59
12.64
10.83
9.35
8.24
7.42
6.66
5.78
4.64
3.21
1.53
-0.33
-2.29
-4.32
-6.44
-8.65
-10.98
-13.45
-16.12
-19.08
-22.45
-26.31
-30.6
-35.03
-39.09
-42.15
-43.58
-43.0
-40.36
-35.95
-30.33
-24.11
-17.83
-11.83
-6.32
-1.38
2.97
6.75
10.05
12.97
15.67
18.26
20.76
23.09
25.08
26.61
27.63
28.21
28.5
28.62
28.66
28.62
28.42
27.99
27.27
26.23
24.9
23.31
21.49
19.52
17.46
15.41
13.46
11.64
9.92
8.24
6.53
4.75
2.91
1.0
-1.02
-3.27
-5.9
-9.01
-12.63
-16.64
-20.77
-24.62
-27.79
-29.8
-30.29
-29.06
-26.16
-21.97
-17.09
-12.18
-7.77
-4.09
-1.06
1.63
4.3
7.1
10.0
12.85
15.52
17.97
20.25
22.44
24.57
26.55
28.27
29.67
30.74
31.62
32.45
33.31
34.12
34.74
34.97
34.7
33.96
32.86
31.61
30.3
28.93
27.41
25.6
23.43
20.95
18.29
15.59
12.91
10.22
7.4
4.31
0.88
-2.91
-7.02
-11.27
-15.4
-18.95
-21.44
-22.41
-21.61
-19.17
-15.58
-11.47
-7.48
-3.99
-1.09
1.31
3.34
5.1
6.58
7.75
8.58
9.1
9.32
9.24
8.81
7.97
6.69
5.06
3.25
1.51
0.06
-0.94
-1.47
-1.64
-1.71
-1.97
-2.66
-3.9
-5.62
-7.63
-9.68
-11.57
-13.22
-14.67
-16.0
-17.29
-18.53
-19.58
-20.32
-20.61
-20.45
-19.96
-19.33
-18.77
-18.39
-18.24
-18.28
-18.44
-18.62
-18.74
-18.64
-18.15
-17.06
-15.24
-12.72
-9.7
-6.52
-3.55
-1.08
0.78
2.07
2.99
3.76
4.57
5.5
6.48
7.39
8.0
8.18
7.87
7.14
6.16
5.1
4.14
3.36
2.74
2.23
1.71
1.08
0.25
-0.82
-2.09
-3.47
-4.86
-6.16
-7.33
-8.38
-9.39
-10.54
-12.06
-14.19
-17.08
-20.66
-24.59
-28.28
-31.04
-32.34
-32.02
-30.42
-28.22
-26.17
-24.84
-24.4
-24.66
-25.23
-25.74
-25.97
-25.88
-25.54
-25.05
-24.49
-23.88
-23.19
-22.33
-21.13
-19.41
-16.99
-13.82
-10.01
-5.78
-1.44
2.72
6.47
9.73
12.52
14.9
17.05
19.1
21.14
23.19
25.22
27.11
28.76
30.06
30.99
31.54
31.79
31.88
32.0
32.41
33.27
34.58
36.09
37.36
37.94
37.49
35.97
33.68
31.05
28.52
26.35
24.55
22.95
21.35
19.62
17.72
15.67
13.51
11.28
9.06
6.99
5.34
4.37
4.2
4.71
5.51
6.1
6.14
5.6
4.82
4.33
4.62
5.86
7.87
10.2
12.38
14.05
15.02
15.29
14.9
13.87
12.2
9.86
6.81
3.02
-1.45
-6.41
-11.46
-16.02
-19.47
-21.33
-21.42
-19.98
-17.5
-14.57
-11.65
-9.0
-6.71
-4.84
-3.5
-2.77
-2.68
-3.03
-3.51
-3.82
-3.8
-3.53
-3.29
-3.37
-3.9
-4.8
-5.77
-6.48
-6.73
-6.54
-6.08
-5.57
-5.12
-4.72
-4.23
-3.51
-2.52
-1.36
-0.22
0.76
1.5
2.05
2.52
2.98
3.47
3.95
4.37
4.72
4.95
5.04
4.91
4.46
3.65
2.53
1.28
0.13
-0.72
-1.17
-1.26
-1.17
-1.08
-1.16
-1.43
-1.87
-2.39
-2.98
-3.68
-4.59
-5.8
-7.3
-9.0
-10.68
-12.09
-13.01
-13.3
-12.92
-11.9
-10.36
-8.41
-6.22
-3.96
-1.79
0.14
1.76
3.07
4.19
5.28
6.53
8.05
9.82
11.68
13.43
14.92
16.1
17.06
17.93
18.88
19.88
20.8
21.37
21.41
20.92
20.13
19.45
19.18
19.39
19.89
20.32
20.4
20.01
19.31
18.51
17.81
17.21
16.58
15.71
14.45
12.68
10.22
6.77
1.78
-5.32
-14.84
-26.41
-38.93
-50.78
-60.45
-67.14
-71.04
-73.12
-74.5
-75.8
-76.96
-77.42
-76.72
-74.89
-72.48
-70.13
-68.15
-66.34
-64.11
-60.92
-56.46
-50.77
-43.99
-36.23
-27.54
-18.03
-7.99
2.08
11.55
19.9
26.84
32.36
36.64
39.9
42.32
43.99
44.91
45.03
44.29
42.57
39.83
36.15
31.76
27.08
22.59
18.64
15.33
12.53
9.95
7.35
4.68
2.04
-0.36
-2.45
-4.27
-5.96
-7.6
-9.16
-10.49
-11.46
-12.05
-12.41
-12.79
-13.43
-14.4
-15.6
-16.77
-17.63
-18.02
-17.95
-17.61
-17.26
-17.11
-17.28
-17.72
-18.32
-18.92
-19.44
-19.85
-20.22
-20.63
-21.2
-21.97
-22.98
-24.15
-25.35
-26.42
-27.22
-27.57
-27.35
-26.42
-24.76
-22.48
-19.83
-17.18
-14.8
-12.82
-11.12
-9.48
-7.66
-5.67
-3.66
-1.89
-0.51
0.5
1.31
2.11
2.98
3.83
4.53
4.99
5.23
5.33
5.38
5.36
5.19
4.77
4.1
3.28
2.46
1.82
1.46
1.39
1.56
1.85
2.11
2.22
2.07
1.62
0.88
-0.1
-1.24
-2.47
-3.74
-5.02
-6.33
-7.7
-9.26
-11.16
-13.53
-16.43
-19.75
-23.19
-26.3
-28.65
-29.86
-29.76
-28.36
-25.86
-22.53
-18.66
-14.54
-10.45
-6.61
-3.18
-0.25
2.25
4.44
6.48
8.43
10.32
12.06
13.59
14.9
16.05
17.11
18.14
19.12
19.99
20.64
20.99
21.0
20.63
19.85
18.71
17.3
15.8
14.43
13.38
12.76
12.52
12.5
12.45
12.14
11.48
10.48
9.28
8.01
6.68
5.18
3.37
1.09
-1.67
-4.77
-7.95
-10.94
-13.57
-15.83
-17.8
-19.7
-21.74
-24.12
-27.01
-30.44
-34.27
-38.07
-41.25
-43.15
-43.22
-41.29
-37.52
-32.42
-26.64
-20.8
-15.39
-10.69
-6.8
-3.63
-0.94
1.56
4.15
6.95
9.84
12.61
15.03
17.0
18.61
20.02
21.37
22.69
23.92
25.0
25.91
26.75
27.59
28.45
29.28
29.95
30.36
30.51
30.45
30.28
30.07
29.79
29.35
28.6
27.45
25.85
23.89
21.69
19.39
17.11
14.9
12.75
10.59
8.31
5.82
3.06
0.04
-3.15
-6.38
-9.48
-12.43
-15.28
-18.24
-21.61
-25.63
-30.39
-35.75
-41.24
-46.22
-49.93
-51.71
-51.18
-48.28
-43.34
-36.9
-29.64
-22.23
-15.19
-8.86
-3.35
1.42
5.66
9.59
13.38
17.05
20.52
23.65
26.35
28.6
30.36
31.59
32.2
32.15
31.53
30.65
29.94
29.78
30.35
31.45
32.66
33.46
33.52
32.84
31.67
30.37
29.18
28.12
27.05
25.8
24.3
22.58
20.75
18.89
16.97
14.9
12.59
9.97
7.09
4.08
1.06
-1.89
-4.77
-7.67
-10.77
-14.25
-18.24
-22.83
-27.97
-33.51
-39.21
-44.62
-49.14
-52.02
-52.61
-50.55
-45.88
-39.17
-31.25
-22.99
-15.09
-7.93
-1.66
3.78
8.46
12.55
16.2
19.59
22.87
26.06
29.08
31.75
33.91
35.46
36.45
37.01
37.33
37.57
37.85
38.24
38.75
39.31
39.82
40.11
39.99
39.33
38.09
36.3
34.06
31.54
28.87
26.15
23.44
20.71
17.88
14.81
11.4
7.63
3.64
-0.33
-4.02
-7.26
-10.16
-13.0
-16.16
-20.02
-24.72
-30.19
-36.06
-41.79
-46.69
-50.03
-51.16
-49.67
-45.52
-39.1
-31.17
-22.66
-14.4
-6.93
-0.47
5.09
10.01
14.53
18.83
22.95
26.8
30.25
33.11
35.27
36.64
37.24
37.15
36.57
35.76
35.0
34.5
34.33
34.44
34.6
34.5
33.86
32.56
30.63
28.34
25.97
23.78
21.87
20.09
18.21
15.95
13.17
9.91
6.35
2.76
-0.61
-3.63
-6.41
-9.2
-12.38
-16.37
-21.41
-27.43
-33.96
-40.19
-45.13
-47.88
-47.84
-44.88
-39.33
-31.87
-23.32
-14.52
-6.14
1.35
7.7
12.9
17.08
20.47
23.26
25.62
27.59
29.12
30.13
30.59
30.53
30.01
29.22
28.32
27.46
26.67
25.93
25.2
24.38
23.47
22.52
21.61
20.73
19.76
18.47
16.58
14.01
10.88
7.48
4.16
1.13
-1.58
-4.16
-6.83
-9.79
-13.17
-17.0
-21.24
-25.74
-30.16
-33.91
-36.27
-36.53
-34.3
-29.65
-23.18
-15.85
-8.64
-2.31
2.79
6.72
9.79
12.39
14.75
16.94
18.85
20.33
21.29
21.74
21.83
21.7
21.49
21.22
20.87
20.38
19.73
18.96
18.15
17.35
16.53
15.59
14.4
12.87
10.96
8.71
6.18
3.44
0.48
-2.65
-5.92
-9.23
-12.48
-15.6
-18.67
-21.85
-25.39
-29.37
-33.65
-37.76
-40.97
-42.54
-41.93
-38.99
-33.98
-27.54
-20.42
-13.33
-6.82
-1.16
3.59
7.51
10.78
13.61
16.17
18.58
20.84
22.86
24.48
25.54
25.96
25.73
24.97
23.89
22.73
21.75
21.13
20.91
20.92
20.86
20.33
19.06
17.04
14.55
12.01
9.82
8.1
6.67
5.18
3.3
0.9
-1.93
-4.95
-7.91
-10.67
-13.23
-15.67
-18.09
-20.66
-23.57
-27.01
-31.15
-35.94
-41.03
-45.7
-49.09
-50.37
-49.06
-45.2
-39.26
-32.03
-24.37
-16.96
-10.27
-4.56
0.16
4.01
7.27
10.21
13.09
15.97
18.76
21.2
23.05
24.15
24.56
24.46
24.13
23.83
23.77
24.01
24.56
25.3
26.02
26.5
26.52
25.95
24.77
23.07
21.03
18.89
16.9
15.21
13.83
12.66
11.44
9.97
8.14
5.97
3.59
1.15
-1.28
-3.72
-6.2
-8.72
-11.18
-13.49
-15.64
-17.81
-20.28
-23.41
-27.38
-32.14
-37.38
-42.54
-46.95
-49.93
-50.9
-49.55
-45.9
-40.35
-33.64
-26.59
-19.95
-14.16
-9.33
-5.27
-1.73
1.53
4.6
7.47
10.06
12.36
14.37
16.1
17.55
18.66
19.39
19.74
19.78
19.69
19.66
19.82
20.16
20.58
20.87
20.93
20.72
20.32
19.84
19.33
18.73
17.92
16.76
15.22
13.37
11.37
9.34
7.34
5.38
3.41
1.43
-0.57
-2.63
-4.82
-7.19
-9.72
-12.3
-14.75
-16.96
-18.91
-20.78
-22.84
-25.36
-28.55
-32.45
-36.9
-41.52
-45.72
-48.77
-49.9
-48.63
-44.88
-39.03
-31.88
-24.35
-17.27
-11.16
-6.21
-2.31
0.81
3.46
5.95
8.49
11.13
13.84
16.41
18.62
20.31
21.38
21.88
21.96
21.81
21.59
21.47
21.45
21.52
21.57
21.5
21.2
20.64
19.83
18.84
17.78
16.73
15.73
14.7
13.52
12.09
10.37
8.44
6.46
4.63
3.02
1.62
0.29
-1.17
-2.91
-4.96
-7.27
-9.68
-12.04
-14.26
-16.35
-18.42
-20.63
-23.17
-26.19
-29.74
-33.76
-38.03
-42.16
-45.6
-47.73
-48.0
-46.12
-42.16
-36.57
-30.05
-23.36
-17.14
-11.74
-7.26
-3.54
-0.36
2.56
5.37
8.12
10.75
13.14
15.19
16.86
18.16
19.15
19.91
20.53
21.09
21.65
22.27
22.9
23.39
23.61
23.4
22.76
21.82
20.76
19.73
18.77
17.83
16.78
15.53
14.02
12.25
10.25
8.09
5.85
3.65
1.62
-0.22
-1.89
-3.55
-5.34
-7.4
-9.74
-12.29
-14.91
-17.5
-20.1
-22.83
-25.9
-29.46
-33.47
-37.61
-41.33
-43.95
-44.9
-43.81
-40.65
-35.75
-29.69
-23.17
-16.84
-11.18
-6.4
-2.52
0.65
3.29
5.57
7.55
9.24
10.6
11.66
12.5
13.21
13.92
14.63
15.3
15.85
16.22
16.43
16.58
16.74
16.94
17.13
17.14
16.83
16.14
15.12
13.88
12.56
11.21
9.75
8.08
6.08
3.77
1.2
-1.47
-4.08
-6.51
-8.72
-10.8
-12.9
-15.26
-18.1
-21.57
-25.64
-30.07
-34.33
-37.73
-39.57
-39.3
-36.77
-32.2
-26.22
-19.59
-13.08
-7.24
-2.3
1.75
5.12
8.05
10.71
13.14
15.3
17.09
18.46
19.38
19.95
20.3
20.59
20.94
21.45
22.13
22.98
23.93
24.87
25.64
26.1
26.13
25.67
24.74
23.42
21.82
20.04
18.18
16.33
14.52
12.78
11.05
9.25
7.26
5.02
2.49
-0.21
-2.98
-5.72
-8.39
-11.0
-13.64
-16.33
-19.09
-21.95
-24.97
-28.3
-32.17
-36.67
-41.69
-46.74
-51.08
-53.85
-54.37
-52.33
-47.89
-41.58
-34.12
-26.28
-18.68
-11.77
-5.79
-0.79
3.39
7.03
10.42
13.77
17.06
20.14
22.75
24.65
25.77
26.18
26.07
25.66
25.15
24.67
24.33
24.15
24.14
24.24
24.32
24.25
23.96
23.46
22.83
22.15
21.43
20.62
19.64
18.39
16.82
14.89
12.63
10.1
7.41
4.78
2.4
0.43
-1.14
-2.47
-3.84
-5.56
-7.82
-10.62
-13.77
-17.01
-20.07
-22.8
-25.22
-27.5
-29.91
-32.76
-36.23
-40.3
-44.63
-48.59
-51.37
-52.17
-50.45
-46.16
-39.76
-32.16
-24.34
-17.14
-10.97
-5.86
-1.55
2.26
5.8
9.23
12.64
16.12
19.66
23.14
26.28
28.75
30.26
30.74
30.4
29.65
28.91
28.52
28.56
28.95
29.45
29.84
29.9
29.5
28.55
27.08
25.2
23.12
21.11
19.37
17.98
16.85
15.76
14.48
12.91
11.09
9.15
7.23
5.36
3.44
1.36
-0.97
-3.51
-6.15
-8.79
-11.43
-14.2
-17.37
-21.19
-25.85
-31.32
-37.31
-43.31
-48.58
-52.33
-53.91
-52.98
-49.63
-44.39
-38.02
-31.33
-24.99
-19.38
-14.59
-10.52
-7.02
-3.95
-1.23
1.17
3.31
5.23
7.0
8.63
10.06
11.21
12.04
12.55
12.81
12.94
13.03
13.13
13.16
13.05
12.66
11.91
10.75
9.2
7.36
5.32
3.17
0.92
-1.48
-4.13
-7.05
-10.23
-13.47
-16.54
-19.17
-21.12
-22.33
-22.9
-23.14
-23.51
-24.43
-26.13
-28.44
-30.78
-32.31
-32.21
-29.99
-25.65
-19.7
-12.86
-5.93
0.53
6.21
11.01
15.02
18.37
21.19
23.59
25.61
27.2
28.29
28.83
28.85
28.44
27.77
26.98
26.19
25.46
24.8
24.27
23.83
23.46
23.03
22.36
21.33
19.88
18.08
16.09
14.08
12.1
10.16
8.18
6.06
3.81
1.47
-0.86
-3.11
-5.28
-7.5
-9.97
-12.92
-16.56
-20.96
-26.02
-31.33
-36.28
-40.05
-41.88
-41.19
-37.82
-32.0
-24.34
-15.66
-6.83
1.41
8.49
14.09
18.07
20.5
21.6
21.74
21.33
20.81
20.48
20.46
20.73
21.21
21.78
22.44
23.22
24.15
25.21
26.3
27.27
27.94
28.23
28.12
27.63
26.79
25.61
24.06
22.17
20.04
17.81
15.67
13.64
11.62
9.34
6.46
2.72
-1.9
-7.22
-12.81
-18.2
-22.98
-26.96
-30.16
-32.81
-35.26
-37.89
-40.99
-44.62
-48.59
-52.37
-55.11
-55.9
-54.01
-49.18
-41.75
-32.54
-22.66
-13.08
-4.47
2.92
9.14
14.42
19.0
23.09
26.8
30.17
33.17
35.7
37.61
38.8
39.24
39.04
38.42
37.62
36.88
36.35
36.04
35.9
35.78
35.48
34.82
33.67
31.96
29.79
27.34
24.84
22.51
20.42
18.53
16.7
14.77
12.7
10.52
8.32
6.19
4.13
2.04
-0.17
-2.58
-5.15
-7.75
-10.23
-12.54
-14.72
-16.91
-19.3
-22.05
-25.29
-29.09
-33.49
-38.49
-43.92
-49.28
-53.74
-56.25
-55.85
-52.16
-45.5
-36.93
-27.78
-19.21
-11.84
-5.64
-0.21
4.9
9.91
14.73
19.14
22.96
26.17
28.89
31.25
33.34
35.16
36.66
37.86
38.75
39.42
39.92
40.24
40.34
40.12
39.41
38.07
36.01
33.23
29.95
26.49
23.25
20.47
18.15
16.04
13.74
10.94
7.59
3.83
-0.01
-3.59
-6.73
-9.43
-11.78
-13.93
-16.01
-18.17
-20.51
-23.18
-26.26
-29.84
-33.91
-38.29
-42.64
-46.4
-48.9
-49.46
-47.7
-43.63
-37.78
-30.96
-24.08
-17.77
-12.34
-7.66
-3.45
0.54
4.46
8.26
11.85
15.08
17.82
19.95
21.42
22.21
22.41
22.24
21.98
21.9
22.19
22.82
23.65
24.42
24.91
25.0
24.72
24.17
23.45
22.64
21.66
20.4
18.7
16.46
13.71
10.59
7.29
4.07
1.18
-1.25
-3.2
-4.86
-6.59
-8.82
-11.93
-16.0
-20.81
-25.7
-29.87
-32.57
-33.34
-32.13
-29.27
-25.29
-20.73
-16.03
-11.49
-7.32
-3.64
-0.51
2.02
4.02
5.57
6.81
7.87
8.86
9.79
10.61
11.2
11.38
11.06
10.18
8.81
7.07
5.07
2.94
0.78
-1.23
-2.9
-4.06
-4.57
-4.44
-3.78
-2.78
-1.59
-0.31
1.01
2.34
3.6
4.63
5.29
5.44
5.02
4.06
2.66
0.91
-1.1
-3.39
-6.07
-9.26
-13.08
-17.46
-22.15
-26.67
-30.46
-32.96
-33.75
-32.69
-29.88
-25.68
-20.58
-15.15
-9.87
-5.16
-1.24
1.89
4.37
6.48
8.51
10.63
12.85
15.01
16.93
18.46
19.6
20.44
21.15
21.87
22.65
23.44
24.2
24.88
25.51
26.1
26.69
27.22
27.57
27.59
27.2
26.42
25.36
24.21
23.1
22.08
21.06
19.91
18.47
16.69
14.67
12.55
10.52
8.68
7.02
5.45
3.83
2.06
0.17
-1.8
-3.68
-5.34
-6.71
-7.79
-8.68
-9.6
-10.83
-12.71
-15.47
-19.23
-23.79
-28.72
-33.33
-36.91
-38.82
-38.78
-36.87
-33.54
-29.47
-25.31
-21.55
-18.38
-15.72
-13.27
-10.75
-7.95
-4.86
-1.61
1.56
4.46
6.95
8.99
10.62
11.87
12.75
13.31
13.64
13.85
14.13
14.55
15.15
15.81
16.37
16.61
16.44
15.82
14.82
13.55
12.12
10.64
9.14
7.65
6.18
4.75
3.38
2.09
0.93
-0.11
-1.05
-1.96
-2.89
-3.9
-5.04
-6.26
-7.58
-8.96
-10.4
-11.92
-13.52
-15.2
-16.85
-18.32
-19.37
-19.72
-19.16
-17.56
-15.0
-11.71
-8.05
-4.43
-1.24
1.26
2.97
4.01
4.57
4.93
5.28
5.72
6.19
6.6
6.8
6.77
6.52
6.12
5.63
5.08
4.46
3.8
3.15
2.58
2.08
1.57
0.85
-0.32
-2.08
-4.4
-7.02
-9.55
-11.56
-12.74
-13.02
-12.58
-11.76
-10.95
-10.4
-10.21
-10.29
-10.45
-10.53
-10.54
-10.62
-10.96
-11.74
-13.02
-14.68
-16.45
-18.05
-19.16
-19.57
-19.14
-17.8
-15.63
-12.81
-9.65
-6.5
-3.72
-1.48
0.21
1.54
2.72
3.91
5.1
6.23
7.16
7.84
8.31
8.63
8.86
9.02
9.1
9.13
9.19
9.37
9.69
10.08
10.38
10.39
9.95
8.98
7.59
5.97
4.35
2.95
1.85
0.99
0.24
-0.57
-1.48
-2.43
-3.32
-4.05
-4.7
-5.35
-6.12
-7.0
-7.83
-8.38
-8.48
-8.12
-7.53
-7.09
-7.19
-8.09
-9.82
-12.18
-14.81
-17.29
-19.21
-20.21
-20.04
-18.58
-15.87
-12.18
-7.97
-3.75
0.01
3.0
5.19
6.71
7.78
8.62
9.33
9.96
10.54
11.04
11.45
11.7
11.66
11.22
10.34
9.14
7.82
6.65
5.77
5.22
4.89
4.58
4.18
3.65
3.01
2.34
1.65
0.84
-0.15
-1.4
-2.97
-4.88
-7.18
-9.84
-12.75
-15.62
-18.07
-19.75
-20.51
-20.51
-20.12
-19.78
-19.78
-20.13
-20.63
-21.01
-21.08
-20.85
-20.49
-20.28
-20.44
-21.12
-22.29
-23.71
-24.97
-25.57
-25.02
-23.05
-19.72
-15.38
-10.59
-5.89
-1.62
2.1
5.34
8.16
10.62
12.66
14.26
15.42
16.15
16.53
16.53
16.17
15.45
14.47
13.44
12.53
11.87
11.48
11.26
11.12
11.0
10.94
10.93
10.95
10.88
10.58
9.94
9.0
7.82
6.57
5.38
4.36
3.52
2.83
2.16
1.33
0.18
-1.34
-3.18
-5.15
-7.05
-8.81
-10.45
-12.11
-13.9
-15.86
-17.99
-20.29
-22.8
-25.57
-28.53
-31.42
-33.79
-35.13
-35.11
-33.68
-31.14
-27.95
-24.55
-21.23
-18.16
-15.34
-12.77
-10.42
-8.27
-6.31
-4.5
-2.77
-1.1
0.57
2.22
3.83
5.33
6.66
7.81
8.82
9.81
10.9
12.17
13.6
15.08
16.43
17.52
18.26
18.66
18.75
18.53
18.0
17.11
15.91
14.48
12.97
11.52
10.22
9.08
8.04
6.98
5.79
4.35
2.63
0.71
-1.28
-3.14
-4.74
-6.05
-7.21
-8.43
-9.92
-11.9
-14.47
-17.67
-21.45
-25.59
-29.65
-33.01
-34.97
-35.02
-32.98
-29.11
-24.02
-18.4
-12.83
-7.67
-3.04
1.12
4.92
8.54
12.08
15.61
19.12
22.5
25.66
28.53
31.08
33.29
35.02
36.05
36.11
35.02
32.77
29.58
25.8
21.75
17.66
13.65
9.75
6.07
2.75
-0.01
-2.05
-3.4
-4.22
-4.83
-5.55
-6.6
-7.97
-9.5
-10.92
-12.03
-12.75
-13.2
-13.6
-14.14
-14.86
-15.65
-16.37
-16.87
-17.2
-17.54
-18.2
-19.42
-21.34
-23.89
-26.74
-29.36
-31.13
-31.46
-29.99
-26.66
-21.79
-15.98
-9.96
-4.3
0.65
4.86
8.55
12.05
15.58
19.22
22.82
26.1
28.74
30.53
31.44
31.6
31.26
30.66
29.95
29.18
28.41
27.68
27.11
26.82
26.84
27.07
27.25
27.14
26.59
25.61
24.35
22.99
21.61
20.19
18.62
16.78
14.61
12.07
9.22
6.11
2.86
-0.41
-3.57
-6.56
-9.4
-12.14
-14.8
-17.31
-19.53
-21.3
-22.55
-23.28
-23.47
-23.06
-21.83
-19.56
-16.09
-11.48
-5.99
-0.0
6.08
11.95
17.42
22.37
26.66
30.2
32.83
34.44
34.92
34.25
32.5
29.81
26.45
22.69
18.86
15.12
11.61
8.35
5.37
2.75
0.57
-1.09
-2.25
-3.0
-3.5
-3.87
-4.16
-4.35
-4.36
-4.18
-3.91
-3.71
-3.76
-4.1
-4.64
-5.19
-5.55
-5.61
-5.44
-5.21
-5.19
-5.6
-6.61
-8.27
-10.5
-13.04
-15.53
-17.55
-18.65
-18.55
-17.14
-14.5
-10.89
-6.64
-2.16
2.21
6.14
9.47
12.14
14.27
16.04
17.59
18.99
20.13
20.84
20.93
20.33
19.12
17.52
15.81
14.25
13.07
12.41
12.32
12.75
13.56
14.53
15.41
16.0
16.2
16.02
15.5
14.8
13.99
13.12
12.2
11.17
9.91
8.27
6.1
3.29
-0.14
-4.06
-8.28
-12.61
-16.94
-21.2
-25.37
-29.37
-33.01
-36.0
-37.99
-38.72
-38.09
-36.19
-33.3
-29.81
-26.08
-22.44
-19.07
-16.03
-13.25
-10.58
-7.84
-4.89
-1.69
1.7
5.04
8.09
10.56
12.29
13.24
13.53
13.42
13.22
13.25
13.66
14.44
15.38
16.13
16.34
15.78
14.44
12.46
10.1
7.61
5.17
2.92
0.92
-0.82
-2.35
-3.76
-5.16
-6.64
-8.21
-9.83
-11.44
-12.99
-14.52
-16.14
-17.94
-19.89
-21.79
-23.28
-23.94
-23.48
-21.8
-19.1
-15.73
-12.08
-8.45
-4.98
-1.75
1.15
3.61
5.51
6.79
7.48
7.7
7.65
7.48
7.3
7.1
6.89
6.67
6.48
6.46
6.74
7.36
8.28
9.28
10.12
10.56
10.5
9.95
9.08
8.09
7.13
6.31
5.67
5.24
5.03
5.01
5.11
5.21
5.2
4.93
4.26
3.06
1.16
-1.53
-5.05
-9.23
-13.68
-17.82
-20.98
-22.59
-22.41
-20.57
-17.54
-13.95
-10.39
-7.25
-4.7
-2.68
-1.02
0.47
1.99
3.62
5.36
7.12
8.73
10.06
11.04
11.67
12.06
12.22
12.2
11.93
11.4
10.62
9.7
8.75
7.85
7.03
6.21
5.33
4.28
3.0
1.48
-0.29
-2.23
-4.22
-6.05
-7.59
-8.8
-9.78
-10.76
-12.04
-13.86
-16.34
-19.44
-22.96
-26.57
-29.87
-32.43
-33.86
-33.97
-32.74
-30.37
-27.19
-23.54
-19.74
-16.03
-12.58
-9.47
-6.69
-4.14
-1.67
0.83
3.36
5.81
8.03
9.89
11.43
12.75
14.0
15.28
16.61
17.92
19.16
20.34
21.5
22.69
23.95
25.2
26.35
27.31
27.99
28.39
28.52
28.34
27.77
26.65
24.88
22.37
19.19
15.48
11.37
6.98
2.4
-2.25
-6.77
-10.89
-14.37
-17.1
-19.17
-20.82
-22.36
-24.02
-25.93
-28.08
-30.36
-32.57
-34.41
-35.5
-35.45
-33.96
-30.92
-26.57
-21.34
-15.8
-10.44
-5.53
-1.1
2.97
6.77
10.29
13.31
15.57
16.84
17.13
16.63
15.74
14.84
14.16
13.78
13.62
13.59
13.63
13.78
14.07
14.51
14.96
15.26
15.21
14.68
13.68
12.28
10.63
8.9
7.24
5.79
4.6
3.65
2.83
2.0
1.11
0.15
-0.79
-1.58
-2.15
-2.54
-2.89
-3.36
-4.1
-5.2
-6.65
-8.44
-10.54
-12.92
-15.46
-17.92
-19.9
-20.95
-20.79
-19.34
-16.89
-13.88
-10.79
-7.98
-5.59
-3.61
-1.94
-0.5
0.78
1.91
2.9
3.7
4.28
4.61
4.76
4.88
5.19
5.84
6.88
8.16
9.48
10.63
11.5
12.09
12.46
12.62
12.54
12.17
11.51
10.62
9.61
8.54
7.45
6.31
5.08
3.82
2.65
1.72
1.1
0.78
0.64
0.59
0.5
0.28
-0.23
-1.24
-3.0
-5.69
-9.32
-13.72
-18.51
-23.21
-27.29
-30.32
-31.96
-32.04
-30.62
-27.97
-24.53
-20.82
-17.28
-14.16
-11.48
-9.13
-7.0
-5.06
-3.36
-1.94
-0.77
0.28
1.37
2.62
4.03
5.53
7.04
8.56
10.18
11.93
13.78
15.54
16.96
17.9
18.34
18.42
18.35
18.25
18.14
18.01
17.85
17.72
17.71
17.84
18.04
18.09
17.75
16.84
15.3
13.21
10.75
8.14
5.55
3.05
0.65
-1.71
-4.13
-6.64
-9.24
-11.93
-14.73
-17.72
-20.98
-24.52
-28.15
-31.48
-33.97
-35.17
-34.8
-32.93
-29.91
-26.25
-22.49
-19.0
-15.97
-13.39
-11.12
-9.0
-6.94
-4.93
-3.01
-1.26
0.31
1.72
2.95
3.96
4.61
4.8
4.56
4.06
3.59
3.45
3.79
4.58
5.58
6.53
7.22
7.54
7.51
7.21
6.79
6.4
6.22
6.37
6.87
7.61
8.4
8.98
9.18
8.9
8.2
7.18
5.99
4.75
3.48
2.19
0.81
-0.69
-2.33
-4.05
-5.77
-7.39
-8.87
-10.22
-11.57
-13.09
-14.99
-17.42
-20.38
-23.72
-27.02
-29.74
-31.29
-31.25
-29.49
-26.27
-22.09
-17.58
-13.27
-9.52
-6.4
-3.84
-1.66
0.35
2.32
4.35
6.39
8.35
10.06
11.37
12.17
12.45
12.3
11.91
11.53
11.42
11.77
12.64
13.87
15.17
16.18
16.62
16.38
15.53
14.32
13.0
11.8
10.86
10.17
9.62
9.05
8.29
7.24
5.89
4.36
2.82
1.41
0.16
-0.95
-2.05
-3.23
-4.51
-5.86
-7.21
-8.48
-9.65
-10.76
-11.89
-13.21
-14.9
-17.16
-20.03
-23.36
-26.76
-29.7
-31.62
-32.14
-31.14
-28.75
-25.31
-21.25
-16.98
-12.87
-9.18
-5.98
-3.24
-0.78
1.59
4.01
6.5
8.95
11.18
12.98
14.24
14.94
15.22
15.34
15.57
16.15
17.13
18.39
19.67
20.7
21.34
21.56
21.42
21.01
20.38
19.55
18.55
17.44
16.27
15.08
13.82
12.41
10.75
8.81
6.63
4.31
1.97
-0.28
-2.36
-4.24
-5.92
-7.43
-8.87
-10.31
-11.86
-13.55
-15.46
-17.67
-20.26
-23.31
-26.67
-29.98
-32.68
-34.12
-33.83
-31.68
-27.95
-23.2
-18.07
-13.07
-8.47
-4.37
-0.73
2.54
5.47
8.14
10.57
12.8
14.8
16.57
18.02
19.08
19.73
19.99
19.95
19.75
19.56
19.54
19.77
20.25
20.88
21.5
21.92
21.97
21.59
20.83
19.83
18.76
17.72
16.74
15.76
14.69
13.44
11.97
10.31
8.48
6.52
4.45
2.28
0.05
-2.22
-4.52
-6.86
-9.27
-11.75
-14.25
-16.74
-19.16
-21.59
-24.18
-27.15
-30.7
-34.94
-39.84
-45.16
-50.46
-55.14
-58.48
-59.87
-58.98
-55.87
-51.05
-45.26
-39.29
-33.71
-28.8
-24.53
-20.69
-16.98
-13.1
-8.87
-4.14
1.08
6.65
12.37
17.9
22.89
26.96
29.74
30.96
30.56
28.79
26.34
24.2
23.5
25.09
29.34
35.91
43.94
52.31
59.94
66.05
70.24
72.44
72.75
71.41
68.71
64.95
60.49
55.65
50.67
45.73
40.92
36.22
31.52
26.64
21.42
15.82
9.97
4.11
-1.43
-6.49
-11.07
-15.38
-19.75
-24.43
-29.53
-35.01
-40.59
-45.89
-50.42
-53.64
-55.05
-54.37
-51.6
-47.04
-41.25
-34.83
-28.32
-22.01
-15.96
-10.1
-4.32
1.38
6.82
11.63
15.46
18.05
19.34
19.47
18.76
17.54
16.06
14.45
12.85
11.39
10.25
9.62
9.56
9.97
10.59
11.1
11.25
10.98
10.43
9.84
9.42
9.25
9.23
9.2
8.93
8.3
7.28
5.9
4.24
2.33
0.17
-2.24
-4.86
-7.61
-10.39
-13.12
-15.86
-18.76
-22.01
-25.76
-29.93
-34.2
-37.98
-40.59
-41.47
-40.29
-37.1
-32.23
-26.26
-19.84
-13.56
-7.79
-2.75
1.6
5.37
8.77
11.97
15.05
17.99
20.65
22.83
24.32
25.09
25.23
25.02
24.81
24.89
25.38
26.24
27.28
28.28
29.03
29.41
29.39
28.95
28.13
26.93
25.34
23.41
21.21
18.86
16.54
14.37
12.41
10.62
8.88
7.03
4.96
2.68
0.24
-2.24
-4.68
-7.04
-9.32
-11.57
-13.82
-16.15
-18.66
-21.58
-25.19
-29.74
-35.27
-41.47
-47.58
-52.59
-55.47
-55.55
-52.75
-47.56
-40.94
-33.87
-27.16
-21.26
-16.23
-11.93
-8.12
-4.55
-1.07
2.46
6.08
9.73
13.25
16.49
19.27
21.53
23.29
24.63
25.66
26.52
27.38
28.4
29.71
31.34
33.15
34.87
36.19
36.87
36.89
36.39
35.64
34.83
34.02
33.15
32.09
30.67
28.83
26.54
23.86
20.88
17.76
14.61
11.52
8.51
5.57
2.65
-0.24
-3.09
-5.84
-8.5
-11.16
-13.97
-17.09
-20.65
-24.68
-29.14
-33.89
-38.7
-43.15
-46.67
-48.57
-48.31
-45.65
-40.85
-34.57
-27.76
-21.27
-15.68
-11.14
-7.46
-4.32
-1.44
1.36
4.05
6.57
8.83
10.8
12.51
13.99
15.23
16.22
16.96
17.54
18.05
18.63
19.34
20.07
20.69
21.01
20.97
20.62
20.11
19.55
19.0
18.39
17.58
16.44
14.87
12.92
10.71
8.49
6.48
4.84
3.54
2.42
1.27
-0.03
-1.47
-2.88
-4.07
-5.01
-5.79
-6.68
-7.92
-9.71
-12.08
-15.03
-18.39
-21.87
-24.98
-27.1
-27.63
-26.23
-22.97
-18.35
-13.16
-8.1
-3.66
0.04
3.11
5.73
8.05
10.13
11.99
13.64
15.07
16.23
17.08
17.63
17.93
18.15
18.5
19.15
20.13
21.36
22.64
23.75
24.48
24.73
24.41
23.51
22.09
20.26
18.26
16.35
14.77
13.68
13.03
12.64
12.22
11.54
10.5
9.13
7.54
5.81
3.92
1.83
-0.49
-2.97
-5.45
-7.82
-10.02
-12.17
-14.45
-17.05
-20.04
-23.43
-27.08
-30.78
-34.24
-37.02
-38.63
-38.64
-36.85
-33.42
-28.85
-23.82
-18.9
-14.4
-10.34
-6.56
-2.89
0.73
4.29
7.71
10.93
13.89
16.51
18.66
20.25
21.22
21.63
21.63
21.44
21.25
21.19
21.34
21.75
22.36
23.05
23.6
23.78
23.4
22.44
21.04
19.42
17.82
16.38
15.14
14.11
13.29
12.73
12.46
12.39
12.36
12.16
11.67
10.87
9.93
9.08
8.43
7.97
7.55
7.04
6.41
5.8
5.43
5.46
5.91
6.58
7.2
7.47
7.18
6.28
4.84
3.03
1.02
-0.99
-2.92
-4.79
-6.78
-9.2
-12.41
-16.66
-21.99
-28.1
-34.46
-40.39
-45.25
-48.59
-50.31
-50.55
-49.59
-47.64
-44.81
-41.1
-36.53
-31.29
-25.73
-20.25
-15.15
-10.49
-6.14
-1.97
1.98
5.45
8.05
9.48
9.74
9.13
8.12
7.1
6.3
5.66
5.01
4.2
3.2
2.12
1.12
0.3
-0.33
-0.86
-1.41
-2.07
-2.84
-3.74
-4.79
-6.04
-7.57
-9.4
-11.44
-13.52
-15.41
-16.9
-17.92
-18.55
-19.05
-19.8
-21.15
-23.28
-26.06
-29.0
-31.41
-32.62
-32.2
-30.11
-26.68
-22.46
-17.99
-13.71
-9.88
-6.55
-3.65
-1.04
1.44
3.89
6.31
8.6
10.6
12.22
13.41
14.26
14.85
15.27
15.54
15.64
15.57
15.39
15.22
15.15
15.24
15.45
15.66
15.73
15.54
15.01
14.1
12.82
11.21
9.32
7.25
5.09
2.95
0.87
-1.19
-3.32
-5.66
-8.29
-11.2
-14.32
-17.44
-20.35
-22.89
-25.02
-26.79
-28.37
-29.93
-31.59
-33.36
-35.12
-36.61
-37.49
-37.44
-36.22
-33.73
-30.1
-25.63
-20.77
-16.01
-11.8
-8.38
-5.79
-3.83
-2.23
-0.72
0.82
2.38
3.86
5.11
6.06
6.68
7.04
7.24
7.42
7.68
8.1
8.72
9.48
10.31
11.12
11.84
12.41
12.86
13.25
13.65
14.13
14.75
15.46
16.21
16.88
17.36
17.59
17.58
17.4
17.13
16.81
16.39
15.79
14.9
13.61
11.91
9.83
7.4
4.68
1.72
-1.46
-4.82
-8.34
-12.0
-15.84
-19.91
-24.13
-28.27
-31.93
-34.58
-35.73
-35.13
-32.83
-29.19
-24.71
-19.95
-15.35
-11.2
-7.65
-4.65
-2.06
0.32
2.66
5.0
7.29
9.38
11.14
12.47
13.36
13.87
14.08
14.12
14.13
14.28
14.68
15.36
16.19
16.94
17.39
17.38
16.94
16.23
15.46
14.83
14.39
14.07
13.74
13.23
12.44
11.31
9.87
8.18
6.33
4.43
2.6
0.91
-0.6
-2.01
-3.45
-5.09
-7.04
-9.31
-11.74
-14.14
-16.35
-18.29
-20.06
-21.9
-24.11
-26.91
-30.39
-34.32
-38.24
-41.5
-43.41
-43.48
-41.53
-37.77
-32.73
-27.08
-21.45
-16.28
-11.77
-7.91
-4.57
-1.57
1.27
4.02
6.67
9.12
11.25
12.96
14.23
15.18
15.96
16.73
17.59
18.52
19.48
20.41
21.26
22.01
22.6
22.98
23.1
22.93
22.5
21.87
21.08
20.16
19.08
17.76
16.16
14.24
12.07
9.74
7.32
4.86
2.36
-0.24
-2.95
-5.71
-8.46
-11.12
-13.69
-16.26
-19.01
-22.1
-25.59
-29.39
-33.23
-36.66
-39.19
-40.32
-39.71
-37.25
-33.14
-27.85
-21.99
-16.15
-10.73
-5.92
-1.68
2.11
5.57
8.77
11.71
14.36
16.67
18.62
20.18
21.39
22.29
22.98
23.58
24.2
24.93
25.77
26.61
27.3
27.72
27.77
27.45
26.86
26.1
25.28
24.47
23.67
22.83
21.87
20.68
19.2
17.42
15.4
13.27
11.16
9.16
7.24
5.27
3.04
0.42
-2.62
-5.95
-9.36
-12.6
-15.57
-18.33
-21.12
-24.25
-27.99
-32.42
-37.36
-42.32
-46.58
-49.36
-50.0
-48.22
-44.11
-38.21
-31.27
-24.11
-17.35
-11.32
-6.05
-1.39
2.89
7.04
11.16
15.25
19.18
22.73
25.63
27.73
29.01
29.59
29.78
29.87
30.11
30.62
31.36
32.17
32.87
33.31
33.4
33.17
32.69
32.04
31.23
30.27
29.14
27.83
26.41
24.97
23.58
22.31
21.11
19.89
18.53
16.94
15.08
12.99
10.74
8.44
6.14
3.85
1.55
-0.83
-3.35
-6.04
-8.9
-11.94
-15.12
-18.33
-21.49
-24.55
-27.56
-30.72
-34.32
-38.56
-43.39
-48.37
-52.75
-55.66
-56.36
-54.51
-50.23
-44.04
-36.64
-28.8
-21.15
-14.11
-7.89
-2.49
2.17
6.27
9.94
13.32
16.47
19.42
22.15
24.57
26.58
28.14
29.28
30.09
30.73
31.34
31.95
32.52
32.93
33.02
32.66
31.77
30.29
28.22
25.63
22.65
19.46
16.29
13.36
10.85
8.85
7.24
5.78
4.09
1.81
-1.23
-4.93
-9.02
-13.12
-16.97
-20.55
-24.04
-27.78
-32.02
-36.9
-42.25
-47.66
-52.43
-55.79
-57.01
-55.69
-51.91
-46.26
-39.74
-33.4
-28.03
-23.93
-20.82
-18.04
-14.73
-10.18
-3.96
3.95
13.21
23.23
33.32
42.79
51.13
57.99
63.27
67.05
69.55
70.99
71.55
71.33
70.36
68.67
66.34
63.55
60.49
57.34
54.21
51.18
48.31
45.65
43.21
40.85
38.29
35.15
31.09
26.0
20.09
13.8
7.64
2.0
-2.94
-7.23
-11.01
-14.39
-17.41
-20.08
-22.38
-24.34
-25.96
-27.18
-27.8
-27.56
-26.25
-23.8
-20.32
-16.12
-11.5
-6.8
-2.26
1.9
5.48
8.28
10.04
10.51
9.46
6.82
2.7
-2.44
-7.9
-12.79
-16.33
-18.03
-17.85
-16.17
-13.6
-10.78
-8.15
-5.98
-4.32
-3.13
-2.34
-1.82
-1.49
-1.26
-1.09
-0.99
-0.98
-1.12
-1.37
-1.69
-2.01
-2.31
-2.61
-2.88
-2.99
-2.76
-2.03
-0.81
0.71
2.16
3.18
3.6
3.44
2.92
2.28
1.62
0.91
0.06
-0.95
-2.1
-3.28
-4.46
-5.68
-7.02
-8.49
-10.04
-11.5
-12.76
-13.82
-14.83
-16.07
-17.83
-20.3
-23.46
-27.05
-30.58
-33.43
-34.94
-34.67
-32.48
-28.6
-23.57
-18.09
-12.81
-8.15
-4.27
-1.07
1.7
4.29
6.87
9.47
11.99
14.28
16.18
17.59
18.54
19.12
19.49
19.77
20.03
20.28
20.47
20.55
20.49
20.28
19.97
19.55
19.04
18.4
17.6
16.58
15.32
13.81
12.11
10.32
8.56
6.96
5.55
4.25
2.88
1.24
-0.78
-3.12
-5.64
-8.16
-10.54
-12.79
-15.02
-17.43
-20.22
-23.54
-27.44
-31.77
-36.15
-39.97
-42.55
-43.28
-41.83
-38.27
-33.05
-26.88
-20.48
-14.46
-9.18
-4.75
-1.09
2.03
4.83
7.53
10.22
12.87
15.34
17.48
19.18
20.41
21.26
21.85
22.33
22.81
23.3
23.79
24.24
24.55
24.71
24.71
24.62
24.5
24.34
24.04
23.49
22.54
21.2
19.54
17.75
15.97
14.31
12.73
11.16
9.54
7.88
6.25
4.69
3.18
1.61
-0.2
-2.36
-4.88
-7.66
-10.52
-13.3
-15.94
-18.51
-21.14
-23.98
-27.13
-30.64
-34.51
-38.61
-42.62
-46.05
-48.26
-48.66
-46.92
-43.09
-37.64
-31.29
-24.82
-18.82
-13.62
-9.26
-5.57
-2.32
0.73
3.73
6.72
9.65
12.36
14.7
16.49
17.65
18.17
18.17
17.89
17.55
17.4
17.54
17.94
18.45
18.9
19.12
19.05
18.71
18.15
17.45
16.65
15.84
15.12
14.52
14.05
13.58
12.95
11.99
10.61
8.88
6.94
4.94
2.97
1.02
-0.96
-2.99
-5.06
-7.07
-8.98
-10.72
-12.3
-13.74
-15.06
-16.32
-17.63
-19.18
-21.16
-23.67
-26.65
-29.81
-32.63
-34.54
-35.04
-33.86
-31.07
-27.02
-22.29
-17.48
-13.13
-9.52
-6.68
-4.39
-2.36
-0.34
1.79
3.95
5.96
7.6
8.76
9.48
9.89
10.17
10.41
10.62
10.73
10.7
10.49
10.14
9.69
9.16
8.56
7.86
7.03
6.04
4.92
3.74
2.6
1.62
0.91
0.52
0.43
0.57
0.77
0.86
0.7
0.21
-0.64
-1.78
-3.08
-4.35
-5.45
-6.3
-7.0
-7.75
-8.77
-10.17
-11.86
-13.48
-14.56
-14.63
-13.4
-10.88
-7.32
-3.2
0.98
4.75
7.82
10.13
11.79
13.01
14.02
14.93
15.76
16.49
17.07
17.41
17.47
17.21
16.63
15.82
14.93
14.17
13.68
13.44
13.28
12.98
