6.01
4.52
2.96
1.4
-0.11
-1.61
-3.19
-4.96
-7.01
-9.32
-11.76
-14.16
-16.39
-18.43
-20.43
-22.66
-25.37
-28.63
-32.26
-35.78
-38.54
-39.9
-39.45
-37.09
-33.11
-28.08
-22.65
-17.41
-12.72
-8.72
-5.32
-2.3
0.54
3.31
6.01
8.55
10.82
12.74
14.32
15.63
16.74
17.68
18.47
19.09
19.56
19.95
20.34
20.78
21.26
21.69
21.94
21.87
21.41
20.59
19.52
18.33
17.13
15.99
14.91
13.83
12.68
11.42
10.04
8.56
7.06
5.63
4.33
3.15
2.0
0.76
-0.72
-2.5
-4.52
-6.65
-8.73
-10.65
-12.37
-13.96
-15.53
-17.25
-19.29
-21.81
-24.88
-28.33
-31.8
-34.72
-36.45
-36.53
-34.78
-31.37
-26.78
-21.57
-16.3
-11.35
-6.92
-3.08
0.23
3.06
5.44
7.39
8.92
10.1
11.08
12.02
13.07
14.24
15.43
16.51
17.36
18.0
18.55
19.11
19.75
20.36
20.77
20.82
20.48
19.8
18.95
18.06
17.2
16.37
15.52
14.6
13.54
12.32
10.92
9.35
7.64
5.89
4.17
2.52
0.89
-0.86
-2.86
-5.19
-7.8
-10.53
-13.19
-15.63
-17.87
-20.07
-22.43
-25.14
-28.27
-31.72
-35.22
-38.36
-40.61
-41.47
-40.55
-37.69
-33.11
-27.33
-21.05
-14.91
-9.36
-4.57
-0.46
3.13
6.4
9.42
12.19
14.54
16.35
17.52
18.1
18.33
18.47
18.8
19.4
20.22
21.11
21.94
22.66
23.3
23.89
24.4
24.75
24.82
24.53
23.92
23.05
21.97
20.78
19.53
18.25
16.96
15.61
14.12
12.39
10.41
8.25
6.08
4.05
2.24
0.57
-1.13
-3.04
-5.24
-7.68
-10.2
-12.61
-14.83
-16.86
-18.84
-20.98
-23.41
-26.24
-29.45
-32.91
-36.37
-39.49
-41.78
-42.75
-41.98
-39.24
-34.64
-28.61
-21.81
-14.98
-8.73
-3.43
0.82
4.16
6.87
9.22
11.44
13.62
15.72
17.62
19.21
20.38
21.11
21.49
21.62
21.65
21.69
21.84
22.15
22.57
23.03
23.37
23.46
23.17
22.49
21.5
20.36
19.2
18.09
16.98
15.78
14.39
12.77
10.97
9.1
7.23
5.38
3.51
1.54
-0.59
-2.88
-5.25
-7.62
-9.92
-12.1
-14.19
-16.23
-18.29
-20.46
-22.86
-25.59
-28.7
-32.11
-35.57
-38.64
-40.77
-41.45
-40.39
-37.6
-33.41
-28.33
-22.93
-17.63
-12.72
-8.28
-4.32
-0.81
2.28
5.01
7.42
9.57
11.51
13.22
14.7
15.92
16.83
17.45
17.79
17.92
17.95
18.0
18.19
18.56
19.09
19.63
19.96
19.88
19.21
17.95
16.22
14.24
12.26
10.46
8.9
7.51
6.13
4.59
2.77
0.65
-1.71
-4.16
-6.52
-8.69
-10.67
-12.57
-14.55
-16.86
-19.63
-22.92
-26.59
-30.29
-33.5
-35.6
-36.09
-34.67
-31.43
-26.75
-21.21
-15.46
-9.98
-5.02
-0.66
3.2
6.67
9.83
12.69
15.22
17.32
18.96
20.09
20.78
21.17
21.43
21.71
22.11
22.65
23.33
24.07
24.82
25.49
25.96
26.12
25.87
25.18
24.08
22.69
21.15
19.61
18.17
16.85
15.6
14.3
12.85
11.16
9.26
7.22
5.18
3.21
1.28
-0.73
-2.94
-5.44
-8.22
-11.13
-14.0
-16.73
-19.29
-21.74
-24.21
-26.85
-29.81
-33.15
-36.79
-40.41
-43.5
-45.4
-45.51
-43.49
-39.42
-33.74
-27.2
-20.57
-14.46
-9.16
-4.68
-0.85
2.6
5.84
8.97
11.94
14.67
17.04
19.01
20.58
21.8
22.72
23.37
23.76
23.88
23.82
23.72
23.75
24.04
24.57
25.14
25.51
25.43
24.84
23.82
22.6
21.34
20.14
18.98
17.8
16.51
15.11
13.58
11.92
10.12
8.21
6.24
4.32
2.54
0.93
-0.59
-2.17
-3.93
-5.88
-7.96
-10.04
-12.01
-13.9
-15.81
-17.93
-20.42
-23.42
-26.89
-30.68
-34.43
-37.64
-39.75
-40.3
-39.04
-36.03
-31.65
-26.44
-21.02
-15.86
-11.23
-7.2
-3.66
-0.39
2.82
6.07
9.33
12.46
15.28
17.64
19.51
20.96
22.09
23.0
23.71
24.21
24.52
24.72
24.9
25.12
25.36
25.49
25.37
24.91
24.14
23.16
22.07
20.95
19.79
18.49
17.0
15.33
13.6
11.92
10.41
9.1
7.94
6.82
5.59
4.11
2.27
0.09
-2.33
-4.8
-7.14
-9.27
-11.23
-13.22
-15.48
-18.22
-21.46
-25.02
-28.48
-31.36
-33.16
-33.51
-32.27
-29.49
-25.44
-20.57
-15.37
-10.34
-5.86
-2.11
0.9
3.36
5.54
7.65
9.8
11.93
13.83
15.33
16.34
16.9
17.23
17.53
17.98
18.6
19.28
19.88
20.3
20.55
20.68
20.76
20.75
20.56
20.05
19.16
17.97
16.66
15.44
14.44
13.6
12.77
11.77
10.51
9.04
7.47
5.93
4.45
2.96
1.38
-0.35
-2.15
-3.9
-5.52
-7.01
-8.5
-10.21
-12.33
-14.91
-17.93
-21.22
-24.64
-28.02
-31.18
-33.87
-35.74
-36.46
-35.79
-33.69
-30.37
-26.25
-21.8
-17.47
-13.52
-10.03
-6.93
-4.07
-1.29
1.51
4.37
7.23
9.97
12.43
14.47
16.01
17.04
17.64
17.91
17.99
17.98
17.98
18.06
18.21
18.44
18.67
18.79
18.71
18.31
17.59
16.62
15.55
14.53
13.68
12.98
12.34
11.59
10.62
9.42
8.08
6.73
5.49
4.38
3.32
2.22
0.96
-0.51
-2.19
-4.03
-5.96
-7.89
-9.74
-11.47
-13.03
-14.45
-15.73
-16.97
-18.27
-19.81
-21.71
-24.06
-26.77
-29.54
-31.92
-33.39
-33.53
-32.18
-29.45
-25.72
-21.44
-17.07
-12.99
-9.4
-6.38
-3.89
-1.79
0.1
1.9
3.71
5.47
7.1
8.46
9.48
10.15
10.55
10.77
10.91
11.02
11.15
11.31
11.5
11.69
11.82
11.86
11.75
11.51
11.15
10.69
10.09
9.3
8.27
6.99
5.52
3.99
2.56
1.33
0.29
-0.67
-1.7
-2.98
-4.55
-6.36
-8.23
-10.01
-11.61
-13.06
-14.51
-16.11
-17.98
-20.14
-22.42
-24.52
-26.08
-26.67
-26.03
-24.06
-20.92
-17.0
-12.79
-8.78
-5.33
-2.6
-0.54
1.04
2.41
3.81
5.38
7.1
8.78
10.21
11.21
11.75
11.95
11.94
11.84
11.67
11.41
11.08
10.76
10.59
10.65
10.92
11.23
11.38
11.21
10.65
9.75
8.66
7.5
6.36
5.31
4.31
3.31
2.3
1.26
0.22
-0.8
-1.79
-2.79
-3.86
-5.05
-6.36
-7.78
-9.32
-11.02
-12.98
-15.31
-18.08
-21.24
-24.55
-27.62
-29.97
-31.18
-30.98
-29.41
-26.74
-23.42
-19.86
-16.38
-13.04
-9.84
-6.71
-3.65
-0.73
1.97
4.39
6.52
8.35
9.88
11.07
11.9
12.4
12.63
12.71
12.77
12.95
13.34
14.0
14.87
15.78
16.48
16.74
16.44
15.68
14.69
13.7
12.89
12.22
11.51
10.6
9.4
7.96
6.43
4.95
3.61
2.41
1.31
0.24
-0.93
-2.27
-3.87
-5.7
-7.69
-9.67
-11.5
-13.09
-14.47
-15.78
-17.2
-18.91
-21.01
-23.45
-26.0
-28.26
-29.72
-29.95
-28.7
-26.05
-22.37
-18.19
-14.03
-10.26
-6.99
-4.2
-1.78
0.36
2.3
4.08
5.77
7.4
8.96
10.35
11.42
12.09
12.33
12.31
12.26
12.4
12.82
13.45
14.13
14.67
14.95
14.89
14.47
13.71
12.67
11.44
10.19
9.05
8.1
7.32
6.59
5.77
4.8
3.63
2.33
0.95
-0.47
-1.85
-3.15
-4.32
-5.35
-6.34
-7.45
-8.83
-10.62
-12.8
-15.2
-17.59
-19.65
-21.11
-21.76
-21.46
-20.16
-17.97
-15.1
-11.82
-8.43
-5.13
-2.08
0.64
3.0
5.0
6.66
8.05
9.26
10.36
11.38
12.29
12.99
13.44
13.64
13.67
13.65
13.66
13.72
13.79
13.78
13.62
13.3
12.85
12.34
11.85
11.43
11.01
10.52
9.84
8.93
7.84
6.67
5.55
4.55
3.64
2.76
1.81
0.72
-0.54
-1.96
-3.53
-5.18
-6.83
-8.38
-9.8
-11.15
-12.57
-14.25
-16.31
-18.69
-21.16
-23.34
-24.87
-25.45
-24.97
-23.43
-21.0
-17.92
-14.48
-10.95
-7.52
-4.33
-1.41
1.25
3.67
5.85
7.77
9.38
10.65
11.6
12.27
12.68
12.92
13.09
13.3
13.64
14.16
14.8
15.48
16.04
16.38
16.43
16.18
15.67
14.98
14.19
13.37
12.59
11.85
11.13
10.39
9.61
8.79
7.99
7.3
6.8
6.52
6.36
6.17
5.79
5.08
4.02
2.7
1.24
-0.24
-1.68
-3.11
-4.52
-5.93
-7.32
-8.65
-9.96
-11.23
-12.52
-13.82
-15.16
-16.58
-18.15
-19.95
-21.99
-24.17
-26.24
-27.8
-28.48
-28.03
-26.39
-23.78
-20.54
-17.09
-13.8
-10.89
-8.4
-6.25
-4.28
-2.4
-0.6
1.11
2.68
4.15
5.57
7.01
8.46
9.81
10.92
11.64
11.96
11.98
11.89
11.83
11.88
11.99
12.07
12.02
11.84
11.6
11.32
11.01
10.63
10.09
9.37
8.52
7.65
6.85
6.14
5.45
4.66
3.67
2.51
1.29
0.12
-0.91
-1.84
-2.77
-3.81
-5.01
-6.37
-7.79
-9.19
-10.5
-11.69
-12.81
-13.92
-15.15
-16.6
-18.33
-20.28
-22.26
-23.96
-24.99
-25.05
-23.98
-21.88
-19.04
-15.85
-12.65
-9.68
-7.0
-4.57
-2.32
-0.22
1.7
3.39
4.82
5.96
6.85
7.53
8.04
8.41
8.67
8.84
9.02
9.28
9.68
10.22
10.83
11.41
11.81
11.97
11.86
11.51
11.0
10.44
9.87
9.3
8.65
7.83
6.78
5.49
4.05
2.57
1.16
-0.16
-1.42
-2.71
-4.08
-5.52
-6.96
-8.32
-9.57
-10.78
-12.06
-13.57
-15.38
-17.45
-19.6
-21.55
-22.98
-23.57
-23.16
-21.73
-19.46
-16.65
-13.64
-10.71
-8.02
-5.6
-3.4
-1.39
0.44
2.05
3.39
4.47
5.33
6.05
6.73
7.45
8.23
9.08
9.96
10.8
11.49
11.97
12.18
12.17
12.07
11.95
11.91
11.91
11.85
11.63
11.19
10.56
9.86
9.23
8.74
8.33
7.85
7.16
6.2
5.02
3.76
2.58
1.55
0.61
-0.38
-1.56
-2.99
-4.6
-6.2
-7.64
-8.83
-9.85
-10.91
-12.26
-14.12
-16.53
-19.37
-22.37
-25.16
-27.35
-28.59
-28.68
-27.56
-25.41
-22.57
-19.44
-16.38
-13.59
-11.07
-8.7
-6.33
-3.86
-1.27
1.36
3.96
6.47
8.84
10.99
12.84
14.3
15.31
15.9
16.19
16.34
16.54
16.9
17.42
18.03
18.56
18.86
18.8
18.37
17.63
16.71
15.7
14.68
13.64
12.53
11.33
10.06
8.79
7.63
6.68
5.97
5.46
5.07
4.67
4.2
3.59
2.78
1.74
0.44
-1.1
-2.8
-4.52
-6.17
-7.69
-9.19
-10.85
-12.86
-15.28
-17.96
-20.55
-22.58
-23.61
-23.39
-21.95
-19.56
-16.6
-13.47
-10.48
-7.77
-5.37
-3.28
-1.45
0.16
1.65
3.11
4.65
6.27
7.87
9.29
10.39
11.11
11.56
11.97
12.54
13.4
14.49
15.64
16.61
17.21
17.38
17.13
16.6
15.92
15.2
14.47
13.71
12.88
11.98
11.06
10.16
9.29
8.39
7.39
6.2
4.86
3.45
2.07
0.8
-0.41
-1.71
-3.24
-5.12
-7.36
-9.93
-12.76
-15.76
-18.77
-21.56
-23.84
-25.3
-25.69
-24.89
-22.97
-20.13
-16.67
-12.93
-9.27
-5.94
-3.05
-0.55
1.74
3.99
6.28
8.5
10.42
11.83
12.63
12.95
13.02
13.13
13.47
14.03
14.75
15.55
16.33
17.05
17.66
18.02
18.05
17.67
16.97
16.11
15.29
14.64
14.19
13.83
13.42
12.82
12.05
11.14
10.18
9.24
8.32
7.4
6.45
5.41
4.23
2.91
1.47
-0.03
-1.53
-3.03
-4.54
-6.19
-8.09
-10.32
-12.84
-15.5
-18.04
-20.16
-21.59
-22.14
-21.71
-20.35
-18.23
-15.66
-12.96
-10.44
-8.27
-6.5
-5.05
-3.75
-2.47
-1.12
0.26
1.54
2.58
3.28
3.69
3.93
4.16
4.5
4.98
5.51
6.0
6.41
6.77
7.16
7.64
8.23
8.83
9.3
9.53
9.45
9.05
8.44
7.7
6.95
6.2
5.43
4.58
3.61
2.57
1.58
0.8
0.31
0.08
-0.1
-0.45
-1.16
-2.27
-3.65
-5.13
-6.61
-8.09
-9.62
-11.2
-12.67
-13.76
-14.15
-13.66
-12.3
-10.28
-7.97
-5.7
-3.69
-1.99
-0.54
0.79
2.06
3.31
4.47
5.48
6.26
6.84
7.21
7.44
7.56
7.61
7.63
7.67
7.78
7.99
8.28
8.54
8.68
8.61
8.32
7.85
7.25
6.55
5.76
4.88
3.98
3.14
2.44
1.89
1.41
0.84
0.06
-0.97
-2.14
-3.34
-4.43
-5.36
-6.13
-6.81
-7.44
-8.08
-8.81
-9.78
-11.13
-12.96
-15.21
-17.61
-19.77
-21.26
-21.78
-21.28
-19.96
-18.16
-16.24
-14.44
-12.83
-11.34
-9.86
-8.32
-6.72
-5.12
-3.62
-2.22
-0.88
0.42
1.72
2.94
3.96
4.73
5.25
5.64
6.08
6.7
7.54
8.5
9.42
10.15
10.62
10.79
10.7
10.39
9.88
9.21
8.44
7.6
6.73
5.9
5.15
4.52
4.05
3.71
3.4
3.0
2.41
1.64
0.75
-0.12
-0.86
-1.49
-2.11
-2.88
-3.86
-5.08
-6.47
-7.95
-9.45
-10.93
-12.36
-13.74
-15.09
-16.44
-17.83
-19.25
-20.59
-21.63
-22.12
-21.88
-20.84
-19.13
-17.01
-14.76
-12.59
-10.58
-8.71
-6.92
-5.21
-3.64
-2.28
-1.16
-0.23
0.6
1.38
2.12
2.75
3.26
3.68
4.12
4.66
5.31
5.96
6.51
6.9
7.15
7.36
7.6
7.86
8.12
8.28
8.31
8.22
8.01
7.67
7.18
6.55
5.86
5.21
4.69
4.3
3.93
3.41
2.62
1.54
0.31
-0.91
-1.96
-2.8
-3.43
-3.94
-4.39
-4.86
-5.39
-6.03
-6.86
-7.94
-9.33
-11.06
-13.12
-15.47
-17.94
-20.29
-22.26
-23.54
-23.95
-23.43
-22.05
-19.98
-17.49
-14.83
-12.22
-9.82
-7.66
-5.71
-3.85
-2.02
-0.2
1.52
3.01
4.16
4.96
5.46
5.81
6.13
6.51
6.98
7.52
8.11
8.69
9.23
9.7
10.08
10.39
10.63
10.79
10.86
10.75
10.42
9.81
8.94
7.9
6.81
5.75
4.76
3.79
2.81
1.78
0.79
-0.1
-0.83
-1.43
-2.01
-2.75
-3.8
-5.19
-6.86
-8.65
-10.43
-12.15
-13.83
-15.55
-17.32
-19.04
-20.49
-21.36
-21.37
-20.4
-18.48
-15.84
-12.8
-9.66
-6.69
-4.04
-1.75
0.21
1.93
3.51
5.04
6.56
8.06
9.47
10.72
11.74
12.5
13.03
13.39
13.63
13.84
14.06
14.31
14.58
14.82
14.93
14.86
14.56
14.03
13.28
12.38
11.41
10.48
9.7
9.14
8.83
8.67
8.51
8.15
7.48
6.47
5.22
3.89
2.58
1.38
0.24
-0.89
-2.04
-3.22
-4.4
-5.56
-6.7
-7.9
-9.23
-10.8
-12.63
-14.7
-16.94
-19.27
-21.59
-23.77
-25.65
-26.97
-27.46
-26.9
-25.21
-22.57
-19.31
-15.83
-12.49
-9.46
-6.75
-4.28
-1.93
0.35
2.55
4.65
6.58
8.3
9.77
10.94
11.77
12.17
12.12
11.64
10.89
10.09
9.53
9.42
9.89
10.85
12.06
13.21
14.03
14.4
14.37
14.07
13.65
13.18
12.64
12.0
11.31
10.68
10.24
10.05
10.02
9.96
9.63
8.93
7.87
6.57
5.18
3.79
2.43
1.06
-0.33
-1.76
-3.2
-4.67
-6.17
-7.73
-9.38
-11.18
-13.16
-15.36
-17.78
-20.32
-22.74
-24.7
-25.83
-25.86
-24.69
-22.44
-19.39
-15.94
-12.46
-9.23
-6.4
-4.02
-2.0
-0.23
1.43
3.09
4.77
6.41
7.94
9.29
10.39
11.26
11.92
12.43
12.82
13.19
13.59
14.12
14.8
15.58
16.38
17.03
17.43
17.51
17.3
16.84
16.18
15.34
14.37
13.3
12.19
11.09
10.01
8.89
7.66
6.21
4.54
2.7
0.81
-1.01
-2.71
-4.27
-5.77
-7.31
-9.02
-11.0
-13.28
-15.84
-18.54
-21.19
-23.52
-25.22
-25.98
-25.55
-23.8
-20.83
-16.92
-12.56
-8.24
-4.35
-1.07
1.67
4.08
6.39
8.71
10.98
13.03
14.67
15.84
16.58
17.07
17.44
17.79
18.13
18.4
18.57
18.66
18.75
18.85
18.93
18.84
18.44
17.66
16.55
15.3
14.14
13.23
12.58
12.07
11.48
10.65
9.54
8.23
6.88
5.66
4.62
3.74
2.89
1.98
0.91
-0.32
-1.71
-3.21
-4.85
-6.63
-8.54
-10.53
-12.59
-14.72
-17.0
-19.54
-22.32
-25.2
-27.81
-29.66
-30.29
-29.41
-27.04
-23.49
-19.28
-14.95
-10.96
-7.55
-4.72
-2.31
-0.08
2.18
4.59
7.12
9.63
11.95
13.9
15.39
16.4
17.01
17.35
17.57
17.79
18.08
18.45
18.84
19.18
19.4
19.45
19.27
18.84
18.19
17.42
16.64
15.93
15.33
14.75
14.05
13.08
11.75
10.08
8.2
6.31
4.55
3.02
1.74
0.66
-0.35
-1.39
-2.61
-4.07
-5.77
-7.67
-9.61
-11.46
-13.14
-14.7
-16.32
-18.23
-20.6
-23.45
-26.57
-29.55
-31.83
-32.89
-32.4
-30.29
-26.79
-22.39
-17.65
-13.09
-9.04
-5.58
-2.64
-0.04
2.42
4.86
7.33
9.78
12.13
14.23
15.98
17.27
18.1
18.5
18.59
18.52
18.38
18.28
18.25
18.29
18.37
18.4
18.29
17.95
17.37
16.61
15.78
14.98
14.25
13.56
12.85
12.09
11.29
10.49
9.69
8.83
7.8
6.52
5.0
3.36
1.75
0.26
-1.11
-2.49
-4.01
-5.68
-7.4
-9.03
-10.52
-11.94
-13.52
-15.48
-17.94
-20.76
-23.64
-26.15
-27.9
-28.59
-28.09
-26.38
-23.59
-19.94
-15.77
-11.44
-7.35
-3.76
-0.82
1.49
3.34
4.93
6.44
8.01
9.65
11.25
12.68
13.82
14.61
15.06
15.26
15.3
15.25
15.18
15.15
15.22
15.38
15.61
15.84
15.95
15.86
15.52
14.96
14.19
13.24
12.16
10.97
9.74
8.56
7.44
6.35
5.19
3.88
2.43
0.91
-0.58
-1.94
-3.15
-4.26
-5.4
-6.66
-8.17
-9.99
-12.2
-14.8
-17.7
-20.67
-23.4
-25.51
-26.7
-26.73
-25.52
-23.12
-19.73
-15.64
-11.22
-6.84
-2.79
0.74
3.74
6.33
8.61
10.66
12.48
14.0
15.2
16.13
16.87
17.46
17.88
18.09
18.05
17.86
17.71
17.71
17.87
18.02
17.93
17.43
16.56
15.54
14.65
14.07
13.76
13.52
13.06
12.24
11.04
9.57
7.97
6.34
4.75
3.21
1.71
0.24
-1.2
-2.66
-4.15
-5.69
-7.24
-8.78
-10.24
-11.6
-12.93
-14.32
-15.94
-17.92
-20.29
-22.94
-25.6
-27.85
-29.26
-29.51
-28.45
-26.2
-23.03
-19.36
-15.6
-12.05
-8.92
-6.26
-4.03
-2.14
-0.49
1.01
2.46
3.9
5.33
6.72
7.99
9.05
9.83
10.28
10.42
10.36
10.21
10.12
10.15
10.29
10.43
10.4
10.08
9.41
8.44
7.31
6.2
5.2
4.33
3.52
2.65
1.65
0.46
-0.9
-2.37
-3.84
-5.25
-6.54
-7.76
-8.99
-10.37
-12.01
-13.98
-16.23
-18.64
-20.97
-22.96
-24.29
-24.71
-24.03
-22.24
-19.54
-16.27
-12.8
-9.42
-6.29
-3.41
-0.72
1.76
3.95
5.74
7.01
7.82
8.29
8.65
9.05
9.55
10.13
10.7
11.16
11.47
11.63
11.66
11.64
11.58
11.52
11.44
11.28
10.96
10.43
9.65
8.62
7.43
6.11
4.73
3.3
1.83
0.36
-1.09
-2.46
-3.76
-5.03
-6.39
-7.97
-9.85
-11.97
-14.19
-16.27
-17.98
-19.09
-19.44
-18.94
-17.59
-15.47
-12.75
-9.75
-6.74
-4.01
-1.71
0.19
1.77
3.23
4.66
6.09
7.46
8.65
9.56
10.17
10.53
10.76
10.97
11.23
11.56
11.92
12.27
12.55
12.72
12.72
12.54
12.16
11.61
10.91
10.05
9.01
7.78
6.34
4.77
3.16
1.6
0.16
-1.19
-2.52
-3.9
-5.33
-6.82
-8.35
-9.95
-11.72
-13.71
-15.89
-18.01
-19.68
-20.44
-19.99
-18.28
-15.55
-12.22
-8.74
-5.39
-2.29
0.56
3.16
5.49
7.5
9.16
10.51
11.65
12.69
13.7
14.65
15.47
16.11
16.55
16.84
16.99
17.01
16.88
16.64
16.36
16.12
15.99
15.96
15.91
15.74
15.34
14.7
13.86
12.87
11.79
10.67
9.55
8.52
7.66
6.97
6.39
5.8
5.06
4.08
2.91
1.64
0.41
-0.71
-1.74
-2.75
-3.82
-5.0
-6.28
-7.61
-8.96
-10.38
-11.91
-13.62
-15.43
-17.16
-18.56
-19.33
-19.28
-18.32
-16.53
-14.07
-11.19
-8.13
-5.16
-2.5
-0.3
1.43
2.76
3.85
4.85
5.83
6.79
7.66
8.38
8.93
9.32
9.58
9.69
9.63
9.4
9.03
8.65
8.42
8.41
8.63
8.94
9.17
9.18
8.91
8.42
7.84
7.29
6.81
6.37
5.87
5.23
4.41
3.45
2.43
1.48
0.68
0.09
-0.28
-0.45
-0.5
-0.53
-0.67
-0.96
-1.45
-2.12
-2.95
-3.86
-4.81
-5.77
-6.73
-7.74
-8.86
-10.16
-11.64
-13.21
-14.66
-15.69
-16.04
-15.57
-14.3
-12.48
-10.42
-8.41
-6.63
-5.13
-3.85
-2.69
-1.57
-0.47
0.62
1.71
2.81
3.89
4.88
5.68
6.19
6.36
6.27
6.07
5.87
5.74
5.63
5.47
5.18
4.74
4.18
3.56
2.96
2.41
1.94
1.57
1.29
1.1
0.92
0.69
0.35
-0.14
-0.73
-1.36
-1.98
-2.6
-3.24
-3.97
-4.79
-5.62
-6.34
-6.86
-7.18
-7.45
-7.86
-8.58
-9.64
-10.92
-12.17
-13.11
-13.51
-13.22
-12.26
-10.75
-8.92
-7.04
-5.34
-3.95
-2.88
-2.02
-1.23
-0.43
0.37
1.08
1.56
1.75
1.64
1.36
1.05
0.88
0.95
1.25
1.69
2.13
2.43
2.54
2.49
2.37
2.29
2.27
2.3
2.28
2.13
1.83
1.42
0.98
0.55
0.12
-0.35
-0.9
-1.56
-2.28
-3.0
-3.69
-4.3
-4.8
-5.19
-5.48
-5.69
-5.85
-6.02
-6.25
-6.54
-6.88
-7.26
-7.68
-8.22
-8.96
-9.97
-11.22
-12.56
-13.74
-14.46
-14.5
-13.81
-12.5
-10.79
-8.97
-7.21
-5.64
-4.26
-3.06
-2.07
-1.34
-0.88
-0.67
-0.62
-0.58
-0.45
-0.23
0.03
0.24
0.36
0.43
0.55
0.81
1.24
1.75
2.2
2.46
2.49
2.33
2.07
1.76
1.42
1.05
0.67
0.37
0.24
0.34
0.56
0.76
0.72
0.34
-0.31
-1.06
-1.72
-2.2
-2.54
-2.9
-3.4
-4.09
-4.95
-5.91
-6.92
-7.95
-9.0
-10.05
-11.05
-11.95
-12.75
-13.52
-14.34
-15.3
-16.39
-17.46
-18.27
-18.58
-18.21
-17.16
-15.57
-13.7
-11.78
-10.02
-8.48
-7.13
-5.89
-4.69
-3.49
-2.32
-1.25
-0.32
0.44
1.03
1.48
1.88
2.28
2.74
3.31
3.99
4.73
5.5
6.23
6.86
7.36
7.71
7.86
7.82
7.6
7.25
6.82
6.39
6.0
5.66
5.37
5.06
4.69
4.2
3.58
2.89
2.24
1.75
1.43
1.21
0.95
0.47
-0.34
-1.5
-2.91
-4.45
-5.98
-7.45
-8.84
-10.17
-11.46
-12.72
-13.96
-15.22
-16.55
-17.97
-19.47
-20.95
-22.23
-23.09
-23.33
-22.88
-21.74
-20.03
-17.93
-15.64
-13.3
-11.04
-8.96
-7.12
-5.52
-4.1
-2.74
-1.39
-0.05
1.21
2.3
3.17
3.8
4.27
4.61
4.84
4.95
4.97
4.97
5.07
5.35
5.8
6.34
6.83
7.18
7.35
7.37
7.29
7.12
6.89
6.55
6.15
5.71
5.25
4.76
4.19
3.48
2.56
1.44
0.13
-1.3
-2.77
-4.19
-5.51
-6.75
-7.96
-9.21
-10.59
-12.14
-13.87
-15.8
-17.89
-20.07
-22.15
-23.82
-24.77
-24.74
-23.67
-21.7
-19.14
-16.35
-13.58
-10.98
-8.54
-6.25
-4.03
-1.91
0.08
1.89
3.51
4.92
6.16
7.25
8.22
9.07
9.8
10.42
10.93
11.38
11.81
12.26
12.72
13.16
13.54
13.8
13.93
13.92
13.76
13.4
12.82
12.06
11.16
10.23
9.37
8.59
7.84
7.03
6.11
5.11
4.11
3.18
2.31
1.37
0.17
-1.4
-3.34
-5.51
-7.67
-9.66
-11.44
-13.13
-14.95
-17.11
-19.71
-22.68
-25.75
-28.5
-30.43
-31.11
-30.31
-28.03
-24.56
-20.36
-15.9
-11.6
-7.65
-4.14
-1.01
1.81
4.39
6.76
8.92
10.82
12.43
13.7
14.67
15.4
16.02
16.62
17.3
18.11
19.07
20.16
21.33
22.48
23.53
24.38
24.95
25.14
24.96
24.4
23.54
22.48
21.33
20.16
18.98
17.71
16.3
14.71
12.99
11.26
9.61
8.09
6.64
5.16
3.55
1.76
-0.18
-2.19
-4.23
-6.24
-8.28
-10.39
-12.69
-15.29
-18.26
-21.62
-25.2
-28.7
-31.63
-33.44
-33.7
-32.19
-29.04
-24.67
-19.67
-14.59
-9.84
-5.57
-1.74
1.83
5.3
8.73
12.08
15.18
17.85
19.95
21.44
22.4
22.99
23.38
23.68
23.97
24.28
24.64
25.08
25.61
26.23
26.84
27.31
27.49
27.28
26.7
25.85
24.84
23.79
22.72
21.61
20.38
18.96
17.34
15.58
13.79
12.11
10.63
9.36
8.21
7.04
5.73
4.17
2.3
0.08
-2.49
-5.3
-8.13
-10.65
-12.51
-13.58
-14.04
-14.31
-14.89
-15.99
-17.41
-18.61
-18.92
-17.9
-15.52
-12.12
-8.22
-4.25
-0.44
3.16
6.56
9.73
12.61
15.09
17.12
18.7
19.88
20.69
21.16
21.29
21.12
20.72
20.24
19.8
19.52
19.49
19.71
20.13
20.68
21.21
21.59
21.68
21.39
20.71
19.71
18.51
17.22
15.92
14.61
13.24
11.76
10.12
8.31
6.38
4.41
2.45
0.59
-1.14
-2.74
-4.24
-5.72
-7.23
-8.86
-10.67
-12.73
-14.97
-17.22
-19.12
-20.23
-20.17
-18.81
-16.31
-13.15
-9.88
-6.95
-4.62
-2.9
-1.65
-0.7
0.08
0.77
1.43
2.11
2.83
3.55
4.19
4.69
5.0
5.14
5.21
5.32
5.57
6.02
6.67
7.43
8.19
8.83
9.26
9.48
9.52
9.46
9.35
9.25
9.15
9.05
8.91
8.65
8.2
7.52
6.6
5.51
4.34
3.2
2.1
0.98
-0.26
-1.7
-3.34
-5.09
-6.77
-8.24
-9.5
-10.7
-12.14
-14.12
-16.83
-20.18
-23.78
-27.01
-29.22
-29.97
-29.1
-26.82
-23.55
-19.78
-15.89
-12.16
-8.74
-5.7
-3.05
-0.78
1.19
2.99
4.72
6.48
8.27
10.0
11.58
12.9
13.95
14.78
15.5
16.25
17.11
18.1
19.17
20.15
20.88
21.19
20.98
20.23
19.01
17.46
15.76
14.07
12.51
11.09
9.78
8.49
7.17
5.84
4.54
3.33
2.26
1.27
0.28
-0.81
-2.04
-3.4
-4.87
-6.38
-7.91
-9.5
-11.23
-13.23
-15.59
-18.31
-21.22
-23.93
-25.97
-26.89
-26.42
-24.55
-21.56
-17.87
-13.88
-9.92
-6.22
-2.88
0.03
2.54
4.67
6.5
8.07
9.41
10.56
11.54
12.38
13.16
13.9
14.61
15.21
15.67
15.98
