-9.06
-13.03
-17.11
-21.29
-25.48
-29.6
-33.63
-37.63
-41.82
-46.55
-52.16
-58.77
-66.16
-73.63
-80.13
-84.4
-85.42
-82.67
-76.3
-67.12
-56.33
-45.15
-34.51
-24.92
-16.51
-9.12
-2.51
3.57
9.33
14.92
20.4
25.71
30.67
35.08
38.73
41.54
43.6
45.15
46.48
47.83
49.36
51.15
53.14
55.23
57.18
58.74
59.65
59.72
58.87
57.19
54.88
52.18
49.3
46.34
43.29
40.04
36.47
32.54
28.28
23.85
19.42
15.16
11.14
7.31
3.5
-0.51
-4.87
-9.66
-14.82
-20.17
-25.5
-30.62
-35.47
-40.13
-44.87
-50.04
-55.99
-62.84
-70.33
-77.75
-83.96
-87.72
-87.98
-84.22
-76.67
-66.17
-53.97
-41.37
-29.4
-18.65
-9.27
-1.06
6.33
13.23
19.85
26.21
32.16
37.47
41.96
45.51
48.11
49.86
50.88
51.32
51.34
51.12
50.87
50.74
50.77
50.87
50.78
50.19
48.93
47.0
44.66
42.25
40.03
38.03
36.07
33.81
31.0
27.51
23.46
19.06
14.57
10.22
6.1
2.21
-1.54
-5.31
-9.27
-13.51
-18.06
-22.76
-27.37
-31.63
-35.38
-38.65
-41.72
-45.04
-49.17
-54.53
-61.2
-68.7
-76.07
-81.95
-85.0
-84.25
-79.41
-70.96
-59.96
-47.77
-35.6
-24.32
-14.31
-5.57
2.14
9.13
15.63
21.74
27.39
32.43
36.65
39.9
42.17
43.5
44.13
44.28
44.19
44.03
43.86
43.7
43.52
43.28
42.94
42.44
41.64
40.39
38.57
36.1
33.02
29.46
25.62
21.74
17.98
14.42
11.0
7.57
3.95
-0.05
-4.48
-9.23
-14.09
-18.79
-23.12
-27.06
-30.76
-34.55
-38.81
-43.93
-50.06
-57.07
-64.44
-71.25
-76.35
-78.63
-77.35
-72.34
-64.09
-53.63
-42.2
-30.93
-20.62
-11.61
-3.87
2.89
9.02
14.78
20.23
25.26
29.66
33.24
35.92
37.77
38.96
39.64
39.93
39.94
39.76
39.53
39.37
39.36
39.38
39.18
38.43
36.83
34.3
31.0
27.27
23.5
19.99
16.8
13.76
10.53
6.77
2.33
-2.72
-8.06
-13.29
-18.06
-22.31
-26.26
-30.37
-35.21
-41.18
-48.41
-56.59
-65.02
-72.63
-78.27
-80.87
-79.77
-74.81
-66.46
-55.62
-43.49
-31.21
-19.65
-9.3
-0.25
7.66
14.73
21.18
27.14
32.57
37.33
41.25
44.22
46.22
47.35
47.86
47.97
47.93
47.89
47.88
47.87
47.7
47.25
46.42
45.18
43.55
41.6
39.4
36.94
34.24
31.24
28.0
24.55
20.98
17.37
13.71
9.97
6.07
1.95
-2.43
-7.06
-11.96
-17.13
-22.55
-28.18
-33.9
-39.59
-45.22
-50.88
-56.81
-63.33
-70.65
-78.63
-86.66
-93.63
-98.18
-99.09
-95.67
-88.0
-76.96
-63.89
-50.22
-37.06
-24.97
-14.09
-4.22
4.89
13.48
21.67
29.47
36.82
43.53
49.39
54.13
57.57
59.69
60.63
60.74
60.44
60.12
60.06
60.32
60.78
61.2
61.24
60.65
59.25
57.07
54.24
51.04
47.71
44.42
41.25
38.12
34.93
31.61
28.18
24.69
21.17
17.61
13.93
10.11
6.15
2.14
-1.82
-5.74
-9.76
-14.09
-18.93
-24.33
-30.13
-35.99
-41.59
-46.7
-51.34
-55.74
-60.34
-65.63
-72.01
-79.68
-88.41
-97.5
-105.71
-111.51
-113.44
-110.53
-102.69
-90.71
-76.08
-60.45
-45.23
-31.24
-18.73
-7.53
2.7
12.27
21.41
30.22
38.67
46.63
53.78
59.75
64.18
66.89
67.99
67.88
67.11
66.24
65.65
65.45
65.54
65.66
65.55
64.99
63.9
62.23
60.01
57.28
54.11
50.59
46.89
43.16
39.52
36.02
32.58
29.03
25.21
21.04
16.61
12.12
7.82
3.81
0.04
-3.75
-7.85
-12.48
-17.66
-23.25
-29.01
-34.72
-40.23
-45.52
-50.61
-55.66
-60.89
-66.64
-73.32
-81.16
-90.01
-99.08
-107.0
-112.1
-112.9
-108.62
-99.41
-86.34
-70.95
-54.85
-39.3
-25.04
-12.36
-1.2
8.74
17.84
26.45
34.84
43.03
50.77
57.56
62.86
66.3
67.86
67.9
67.06
65.99
65.19
64.88
64.99
65.26
65.36
64.97
63.83
61.79
58.88
55.27
51.24
47.09
43.01
39.02
35.01
30.84
26.43
21.84
17.18
12.55
7.95
3.28
-1.62
-6.87
-12.47
-18.31
-24.21
-29.94
-35.33
-40.37
-45.19
-50.12
-55.63
-62.17
-69.92
-78.6
-87.36
-94.8
-99.26
-99.35
-94.33
-84.42
-70.76
-55.06
-39.06
-24.08
-10.82
0.67
10.69
19.7
28.04
35.84
43.02
49.34
54.49
58.19
60.36
61.12
60.8
59.84
58.67
57.6
56.8
56.28
55.93
55.6
55.07
54.15
52.73
50.72
48.13
45.01
41.41
37.4
33.05
28.44
23.7
18.98
14.29
9.6
4.77
-0.36
-5.79
-11.46
-17.13
-22.61
-27.76
-32.58
-37.21
-41.86
-46.77
-52.21
-58.44
-65.6
-73.52
-81.63
-88.8
-93.62
-94.73
-91.27
-83.24
-71.49
-57.51
-42.87
-28.83
-16.12
-4.95
4.84
13.52
21.41
28.72
35.58
41.97
47.7
52.49
56.09
58.45
59.71
60.26
60.44
60.52
60.53
60.42
60.05
59.4
58.49
57.34
55.91
54.08
51.78
48.98
45.79
42.38
38.94
35.61
32.4
29.18
25.77
22.0
17.82
13.34
8.84
4.58
0.73
-2.78
-6.25
-10.09
-14.62
-19.9
-25.74
-31.69
-37.33
-42.33
-46.67
-50.55
-54.42
-58.77
-64.09
-70.67
-78.48
-87.07
-95.51
-102.49
-106.55
-106.49
-101.74
-92.56
-79.99
-65.52
-50.66
-36.55
-23.74
-12.31
-2.03
7.4
16.22
24.52
32.32
39.55
46.01
51.46
55.61
58.29
59.55
59.69
59.21
58.65
58.36
58.46
58.84
59.22
59.31
58.9
57.89
56.29
54.17
51.65
48.85
45.9
42.88
39.85
36.83
33.81
30.8
27.82
24.86
21.9
18.91
15.83
12.66
9.44
6.26
3.17
0.16
-2.88
-6.1
-9.65
-13.61
-17.96
-22.58
-27.33
-32.08
-36.74
-41.27
-45.69
-50.01
-54.36
-58.92
-63.98
-69.85
-76.62
-84.06
-91.43
-97.55
-101.07
-100.84
-96.32
-87.77
-76.24
-63.16
-49.97
-37.7
-26.81
-17.28
-8.81
-1.04
6.29
13.32
20.09
26.51
32.43
37.61
41.8
44.8
46.57
47.29
47.27
46.9
46.5
46.26
46.21
46.27
46.27
46.06
45.45
44.34
42.68
40.53
38.03
35.35
32.6
29.79
26.83
23.6
20.04
16.21
12.24
8.33
4.6
1.05
-2.43
-6.02
-9.84
-13.9
-18.09
-22.24
-26.19
-29.9
-33.42
-36.97
-40.89
-45.56
-51.2
-57.79
-64.87
-71.55
-76.61
-78.92
-77.65
-72.65
-64.44
-54.04
-42.63
-31.26
-20.66
-11.18
-2.87
4.36
10.74
16.52
21.95
27.19
32.27
36.99
41.12
44.36
46.57
47.8
48.29
48.35
48.29
48.25
48.26
48.2
47.89
47.18
45.96
44.18
41.86
39.1
36.0
32.67
29.21
25.66
22.03
18.29
14.44
10.51
6.55
2.7
-1.02
-4.59
-8.13
-11.76
-15.58
-19.58
-23.67
-27.66
-31.4
-34.84
-38.06
-41.28
-44.81
-49.01
-54.14
-60.28
-67.17
-74.11
-80.02
-83.67
-83.99
-80.5
-73.45
-63.76
-52.72
-41.58
-31.25
-22.1
-14.1
-7.0
-0.5
5.61
11.48
17.14
22.59
27.7
32.22
35.88
38.41
39.72
39.99
39.61
39.12
38.94
39.33
40.27
41.53
42.77
43.63
43.85
43.3
42.0
40.13
37.94
35.67
33.5
31.41
29.28
26.92
24.11
20.77
16.93
12.81
8.69
4.86
1.52
-1.33
-3.89
-6.51
-9.51
-13.07
-17.15
-21.49
-25.76
-29.69
-33.17
-36.33
-39.44
-42.91
-47.15
-52.47
-58.85
-65.88
-72.65
-77.97
-80.6
-79.68
-74.98
-67.03
-56.89
-45.83
-35.01
-25.23
-16.84
-9.82
-3.93
1.22
6.03
10.83
15.76
20.73
25.44
29.47
32.45
34.25
34.99
35.0
34.69
34.41
34.32
34.46
34.69
34.87
34.81
34.35
33.4
31.87
29.79
27.28
24.59
22.08
20.1
18.91
18.52
18.72
19.14
19.45
19.4
18.98
18.26
17.29
15.99
14.14
11.46
7.8
3.21
-2.06
-7.63
-13.14
-18.43
-23.48
-28.4
-33.34
-38.42
-43.71
-49.33
-55.3
-61.43
-67.26
-71.96
-74.57
-74.32
-70.89
-64.66
-56.5
-47.55
-38.78
-30.75
-23.57
-17.08
-11.02
-5.19
0.48
5.96
11.14
15.86
19.91
23.1
25.28
26.46
26.81
26.66
26.32
26.08
26.09
26.35
26.77
27.21
27.54
27.68
27.52
27.01
26.06
24.63
22.71
20.38
17.77
15.03
12.22
9.31
6.15
2.59
-1.47
-5.94
-10.58
-15.07
-19.17
-22.78
-26.0
-29.08
-32.29
-35.87
-40.05
-44.98
-50.72
-57.08
-63.58
-69.37
-73.38
-74.63
-72.55
-67.24
-59.38
-50.04
-40.28
-30.89
-22.23
-14.32
-7.01
-0.18
6.27
12.34
18.01
23.18
27.74
31.52
34.38
36.3
37.43
38.02
38.45
38.99
39.83
41.01
42.43
43.91
45.23
46.19
46.6
46.34
45.38
43.77
41.67
39.28
36.82
34.42
32.13
29.89
27.56
24.98
22.06
18.81
15.34
11.85
8.54
5.53
2.79
0.11
-2.79
-6.16
-10.11
-14.61
-19.42
-24.27
-28.9
-33.19
-37.19
-41.08
-45.19
-49.89
-55.51
-62.28
-70.05
-78.25
-85.82
-91.38
-93.64
-91.77
-85.75
-76.31
-64.75
-52.5
-40.67
-29.86
-20.17
-11.38
-3.19
4.61
12.11
19.3
26.06
32.28
37.8
42.47
46.14
48.71
50.22
50.86
50.97
50.91
51.02
51.47
52.18
52.98
53.59
53.81
53.53
52.75
51.52
49.89
47.94
45.73
43.4
41.06
38.85
36.81
34.91
33.01
30.92
28.46
25.56
22.2
18.45
14.45
10.32
6.17
2.06
-2.02
-6.11
-10.26
-14.49
-18.83
-23.21
-27.57
-31.86
-36.05
-40.22
-44.55
-49.28
-54.7
-60.97
-67.98
-75.17
-81.56
-85.88
-86.99
-84.16
-77.41
-67.5
-55.62
-43.13
-31.15
-20.33
-10.88
-2.64
4.73
11.58
18.12
24.48
30.55
36.14
40.97
44.79
47.5
49.13
49.92
50.17
50.22
50.32
50.56
50.95
51.36
51.64
51.66
51.29
50.47
49.2
47.51
45.47
43.11
40.43
37.37
33.89
30.02
25.86
21.61
17.48
13.56
9.86
6.26
2.58
-1.28
-5.36
-9.58
-13.79
-17.85
-21.68
-25.33
-28.95
-32.78
-37.13
-42.21
-48.14
-54.77
-61.52
-67.46
-71.42
-72.33
-69.51
-62.97
-53.42
-42.11
-30.39
-19.37
-9.68
-1.42
5.72
12.17
18.27
24.16
29.76
34.8
38.96
42.03
43.95
44.85
45.0
44.73
44.31
43.98
43.85
43.97
44.28
44.64
44.82
44.56
43.66
42.04
39.81
37.16
34.34
31.54
28.84
26.22
23.62
20.93
18.13
15.2
12.19
9.13
5.99
2.7
-0.83
-4.64
-8.7
-12.88
-17.06
-21.14
-25.16
-29.27
-33.69
-38.7
-44.45
-50.93
-57.87
-64.7
-70.54
-74.39
-75.39
-73.05
-67.49
-59.36
-49.7
-39.67
-30.24
-21.98
-15.02
-9.11
-3.76
1.56
7.16
13.02
18.74
23.67
27.19
28.97
29.13
28.24
27.09
26.49
27.02
28.9
32.1
36.47
41.79
47.86
54.33
60.65
65.96
69.2
69.21
64.94
55.63
40.92
20.97
-3.26
-29.72
-55.05
-74.98
-85.38
-83.69
-70.06
-47.59
-21.3
3.64
23.62
37.35
45.53
49.73
51.22
50.51
47.61
42.64
36.25
29.48
23.3
17.98
13.01
7.42
0.39
-8.21
-17.57
-26.17
-32.4
-35.12
-34.13
-30.19
-24.71
-19.19
-14.73
-11.83
-10.43
-10.14
-10.53
-11.22
-11.95
-12.55
-12.88
-12.78
-12.17
-11.01
-9.38
-7.39
-5.18
-2.84
-0.37
2.23
4.91
7.55
9.95
11.88
13.2
13.86
13.93
13.58
12.97
12.26
11.58
10.98
10.43
9.81
8.96
7.73
6.08
4.05
1.69
-1.04
-4.32
-8.35
-13.21
-18.69
-24.32
-29.55
-33.97
-37.45
-40.22
-42.62
-45.02
-47.67
-50.68
-53.97
-57.34
-60.38
-62.51
-63.03
-61.42
-57.48
-51.48
-44.09
-36.11
-28.25
-20.93
-14.31
-8.37
-3.06
1.67
5.84
9.49
12.69
15.51
17.98
20.1
21.83
23.16
24.17
24.99
25.77
26.62
27.59
28.58
29.51
30.17
30.4
30.02
28.98
27.3
25.13
22.75
20.46
18.47
16.82
15.37
13.83
11.9
9.42
6.43
3.14
-0.16
-3.21
-5.92
-8.36
-10.73
-13.28
-16.24
-19.76
-23.85
-28.32
-32.77
-36.63
-39.21
-39.94
-38.56
-35.15
-30.19
-24.34
-18.32
-12.65
-7.58
-3.09
1.01
4.95
8.87
12.78
16.57
20.05
23.06
25.52
27.44
28.87
29.91
30.59
30.94
31.02
30.95
30.89
30.96
31.14
31.24
31.05
30.39
29.25
27.8
26.27
24.83
23.5
22.17
20.72
19.05
17.14
15.05
12.84
10.53
8.19
5.88
3.71
1.72
-0.09
-1.86
-3.74
-5.84
-8.2
-10.71
-13.19
-15.5
-17.54
-19.36
-21.1
-23.01
-25.35
-28.3
-31.9
-35.87
-39.69
-42.61
-43.94
-43.24
-40.53
-36.21
-31.0
-25.59
-20.44
-15.72
-11.3
-6.97
-2.51
2.1
6.76
11.27
15.37
18.83
21.47
23.23
24.14
24.35
24.03
23.45
22.81
22.3
21.98
21.83
21.73
21.56
21.2
20.62
19.89
19.12
18.44
17.92
17.61
17.47
17.43
17.42
17.36
17.18
16.79
16.09
15.04
13.64
11.96
10.16
8.37
6.7
5.13
3.62
2.08
0.49
-1.13
-2.75
-4.35
-6.02
-7.86
-9.93
-12.2
-14.51
-16.71
-18.71
-20.62
-22.65
-25.05
-27.93
-31.14
-34.2
-36.48
-37.3
-36.17
-33.01
-28.05
-21.92
-15.33
-8.96
-3.22
1.77
6.16
10.33
14.67
19.52
24.94
30.72
36.4
41.44
45.43
48.25
50.12
51.51
52.98
54.96
57.64
60.92
64.42
67.56
69.7
70.25
68.88
65.61
60.85
55.39
50.13
45.88
43.15
41.98
42.0
42.47
42.5
41.21
38.07
32.95
26.25
18.73
11.3
4.75
-0.53
-4.58
-7.85
-10.97
-14.56
-19.07
-24.67
-31.37
-38.98
-47.2
-55.69
-64.24
-72.78
-81.4
-90.18
-98.94
-107.07
-113.51
-117.03
-116.75
-112.45
-104.71
-94.72
-83.74
-72.76
-62.17
-51.92
-41.71
-31.34
-20.82
-10.34
-0.21
9.31
18.0
25.65
32.02
36.86
40.09
41.86
42.64
43.02
43.51
44.3
45.24
45.96
46.14
45.72
44.87
43.96
43.24
42.75
42.3
41.5
40.0
37.58
34.21
29.99
25.12
19.82
14.27
8.62
2.97
-2.61
-7.97
-13.01
-17.64
-21.85
-25.67
-29.23
-32.71
-36.29
-40.17
-44.43
-49.07
-53.86
-58.4
-62.14
-64.54
-65.16
-63.89
-60.91
-56.66
-51.65
-46.37
-41.09
-36.0
-31.13
-26.5
-22.13
-18.02
-14.16
-10.5
-6.99
-3.6
-0.43
2.39
4.72
6.45
7.61
8.33
8.77
9.14
9.57
10.1
10.73
11.43
12.18
12.95
13.71
14.36
14.82
14.97
14.79
14.31
13.66
12.96
12.31
11.74
11.21
10.67
10.06
9.37
8.55
7.58
6.44
5.17
3.84
2.48
1.06
-0.53
-2.42
-4.7
-7.33
-10.15
-12.94
-15.5
-17.71
-19.58
-21.2
-22.68
-24.24
-26.04
-28.25
-30.91
-33.86
-36.74
-38.97
-40.01
-39.46
-37.23
-33.56
-28.94
-23.97
-19.12
-14.69
-10.75
-7.23
-4.05
-1.12
1.62
4.23
6.78
9.33
11.83
14.19
16.23
17.81
18.89
19.57
20.05
20.54
21.17
21.95
22.79
23.54
24.12
24.44
24.48
24.2
23.6
22.69
21.51
20.13
18.62
16.99
15.18
13.17
10.95
8.67
6.55
4.78
3.43
2.36
1.31
0.04
-1.54
-3.33
-5.07
-6.58
-7.82
-8.95
-10.23
-11.89
-14.0
-16.54
-19.4
-22.56
-25.94
-29.47
-32.82
-35.52
-37.03
-36.93
-35.12
-31.83
-27.55
-22.84
-18.16
-13.79
-9.88
-6.45
-3.47
-0.81
1.66
4.08
6.55
9.02
11.34
13.38
14.99
16.17
17.01
17.67
18.31
19.06
19.99
21.0
21.91
22.47
22.45
21.8
20.65
19.24
17.85
16.61
15.48
14.35
13.05
11.52
9.81
8.06
6.35
4.71
3.08
1.42
-0.31
-2.09
-3.88
-5.66
-7.49
-9.46
-11.63
-14.04
-16.68
-19.46
-22.29
-25.11
-27.91
-30.74
-33.65
-36.57
-39.26
-41.32
-42.24
-41.62
-39.3
-35.45
-30.52
-25.02
-19.45
-14.13
-9.28
-4.96
-1.16
2.24
5.4
8.52
11.66
14.75
17.57
19.86
21.5
22.52
23.13
23.55
23.95
24.36
24.77
25.2
25.69
26.27
26.83
27.21
27.16
26.55
25.45
24.12
22.91
22.01
21.43
20.94
20.23
19.08
17.47
15.52
13.42
11.34
9.33
7.38
5.43
3.42
1.33
-0.89
-3.26
-5.77
-8.35
-10.87
-13.24
-15.4
-17.42
-19.42
-21.62
-24.18
-27.18
-30.59
-34.19
-37.58
-40.22
-41.61
-41.35
-39.36
-35.86
-31.29
-26.22
-21.12
-16.28
-11.82
-7.7
-3.8
-0.1
3.43
6.72
9.74
12.41
14.67
16.45
17.67
18.25
18.16
17.41
16.08
14.36
12.52
10.8
9.39
8.28
7.32
6.27
4.92
3.19
1.18
-0.89
-2.76
-4.29
-5.44
-6.24
-6.7
-6.78
-6.31
-5.08
-2.84
0.65
5.56
12.05
20.11
29.49
39.47
48.78
55.59
57.82
53.63
41.98
22.96
-2.11
-31.02
-61.13
-89.72
-114.32
-132.77
-143.47
-145.61
-139.52
-126.83
-110.27
-92.96
-77.57
-65.49
-56.68
-49.98
-44.0
-37.72
-30.82
-23.45
-15.74
-7.55
1.46
11.48
22.16
32.54
41.38
47.75
51.48
53.28
54.36
55.9
58.52
62.13
66.08
69.6
72.18
73.76
74.57
74.94
75.08
75.03
74.72
74.12
73.31
72.5
71.81
71.28
70.82
70.26
69.43
68.12
66.09
62.94
58.27
51.77
43.38
33.36
22.18
10.42
-1.3
-12.48
-22.59
-31.14
-37.64
-41.76
-43.4
-42.82
-40.52
-37.15
-33.21
-28.94
-24.32
-19.2
-13.54
-7.49
-1.41
4.3
9.38
13.82
17.76
21.38
24.72
27.64
29.93
31.4
32.04
31.96
31.32
30.28
28.86
27.01
24.69
21.92
18.89
15.83
13.03
10.64
8.63
6.79
4.84
2.53
-0.23
-3.35
-6.65
-9.9
-12.9
-15.52
-17.65
-19.19
-20.08
-20.29
-19.99
-19.43
-19.01
-19.04
-19.75
-21.15
-23.12
-25.48
-28.03
-30.57
-32.85
-34.55
-35.23
-34.53
-32.26
-28.62
-24.13
-19.53
-15.48
-12.28
-9.79
-7.57
-5.08
-2.0
1.63
5.49
9.14
12.21
14.5
16.0
16.83
17.15
17.14
16.92
16.58
16.21
15.89
15.75
15.89
16.39
17.19
18.11
18.84
19.14
18.87
18.11
17.07
15.96
14.89
13.81
12.58
11.09
9.3
7.28
5.1
2.87
0.63
-1.56
-3.66
-5.61
-7.4
-9.11
-10.91
-12.99
-15.48
-18.33
-21.25
-23.8
-25.49
-25.94
-24.99
-22.73
-19.52
-15.82
-12.05
-8.53
-5.37
-2.52
0.14
2.74
5.29
7.72
9.94
11.87
13.54
14.99
16.26
17.31
17.99
18.15
17.74
16.82
15.61
14.38
13.38
12.73
12.4
12.28
12.22
12.09
11.82
11.37
10.73
9.88
8.83
7.54
6.07
4.47
2.85
1.31
-0.09
-1.36
-2.59
-3.84
-5.17
-6.54
-7.93
-9.34
-10.77
-12.29
-13.94
-15.77
-17.78
-20.0
-22.41
-24.9
-27.24
-29.09
-30.05
-29.79
-28.18
-25.28
-21.38
-16.9
-12.27
-7.84
-3.86
-0.42
2.49
4.97
7.18
9.18
10.99
12.59
13.9
14.91
15.63
16.1
16.39
16.59
16.77
17.02
17.4
17.91
18.48
19.01
19.41
19.64
19.69
19.6
19.35
18.92
18.25
17.32
16.18
14.95
13.74
12.6
11.51
10.38
9.11
7.7
6.19
4.72
3.38
2.21
1.16
0.11
-1.07
-2.43
-3.95
-5.51
-6.96
-8.2
-9.2
-10.02
-10.76
-11.5
-12.3
-13.27
-14.53
-16.25
-18.55
-21.43
-24.61
-27.58
-29.7
-30.38
-29.31
-26.6
-22.68
-18.22
-13.81
-9.84
-6.47
-3.64
-1.19
1.02
3.1
5.14
7.15
9.13
11.03
12.75
14.18
15.26
15.99
16.42
16.65
16.8
16.94
17.12
17.33
17.58
17.77
17.81
17.6
17.07
16.27
15.34
14.48
13.84
13.47
13.28
13.06
12.59
11.73
10.51
9.04
7.5
6.0
4.59
3.23
1.87
0.48
-0.93
-2.37
-3.9
-5.63
-7.67
-10.04
-12.67
-15.41
-18.09
-20.68
-23.18
-25.65
-28.03
-30.11
-31.55
-32.07
-31.49
-29.91
-27.59
-24.83
-21.88
-18.81
-15.68
-12.55
-9.59
-7.03
-5.04
-3.68
-2.85
-2.43
-2.35
-2.61
-3.29
-4.42
-5.97
-7.81
-9.84
-11.99
-14.21
-16.39
-18.32
-19.66
-20.13
-19.63
-18.34
-16.62
-14.85
-13.27
-11.88
-10.51
-8.98
-7.24
-5.33
-3.44
-1.7
-0.17
1.18
2.37
3.43
4.35
5.19
6.07
7.18
8.72
10.75
13.14
15.59
17.74
19.24
19.91
19.74
18.84
17.36
15.4
13.0
10.23
7.27
4.45
2.18
0.81
0.53
1.19
2.44
3.84
4.98
5.66
5.86
5.73
5.48
5.28
5.28
5.52
5.99
6.64
7.32
7.88
8.09
7.74
6.69
4.88
2.37
-0.69
-4.11
-7.68
-11.15
-14.29
-16.89
-18.75
-19.81
-20.08
-19.66
-18.64
-17.09
-15.04
-12.55
-9.64
-6.37
-2.7
1.41
6.06
11.21
16.63
21.86
26.33
29.54
31.2
31.32
30.17
28.13
25.64
23.1
20.82
18.98
17.61
16.58
15.64
14.63
13.66
13.11
13.67
15.95
20.11
25.59
31.13
35.11
36.2
33.82
28.42
21.19
13.67
7.18
2.48
-0.26
-1.39
-1.51
-1.29
-1.33
-2.13
-3.97
-6.84
-10.46
-14.29
-17.74
-20.24
-21.47
-21.44
-20.52
-19.32
-18.53
-18.7
-20.0
-22.21
-24.76
-27.1
-28.86
-30.12
-31.23
-32.65
-34.59
-36.89
-39.03
-40.39
-40.54
-39.45
-37.43
-34.94
-32.4
-30.03
-27.93
-26.17
-24.97
-24.57
-25.21
-26.89
-29.41
-32.35
-35.23
-37.56
-38.98
-39.2
-37.99
-35.27
-31.05
-25.55
-19.09
-12.13
-5.09
1.64
7.74
12.96
17.08
19.98
21.57
21.91
21.13
19.48
17.23
14.7
12.17
9.88
7.99
6.57
5.62
5.0
4.6
4.29
3.99
3.65
3.23
2.69
1.99
1.09
-0.02
-1.26
-2.55
-3.74
-4.76
-5.56
-6.19
-6.79
-7.53
-8.52
-9.84
-11.44
-13.25
-15.23
-17.38
-19.75
-22.4
-25.4
-28.79
-32.57
-36.61
-40.62
-44.15
-46.61
-47.43
-46.29
-43.19
-38.49
-32.75
-26.56
-20.44
-14.71
-9.5
-4.75
-0.34
3.93
8.16
12.36
16.39
20.06
23.22
25.8
27.9
29.69
31.3
32.77
34.05
35.05
35.77
36.29
36.82
37.56
38.63
40.02
41.47
42.65
43.2
42.89
41.84
40.43
39.32
39.16
40.46
43.34
47.51
52.27
56.62
59.46
59.88
57.4
52.08
44.46
35.33
25.48
15.44
5.45
-4.37
-13.9
-22.84
-30.78
-37.31
-42.18
-45.38
-46.98
-47.0
-45.3
-41.62
-35.7
-27.45
-17.0
-4.79
8.33
21.13
31.94
39.02
41.0
37.45
29.2
18.12
6.57
-3.48
-10.96
-15.9
-19.05
-21.31
-23.19
-24.72
-25.6
-25.46
-24.2
-21.95
-19.16
-16.27
-13.69
-11.57
-9.89
-8.6
-7.73
-7.45
-7.93
-9.13
-10.67
-11.93
-12.29
-11.49
-9.77
-7.76
-6.16
-5.42
-5.57
-6.41
-7.7
-9.41
-11.73
-14.84
-18.72
-23.03
-27.12
-30.26
-31.8
-31.38
-28.91
-24.6
-18.87
-12.25
-5.33
1.4
7.6
13.14
18.1
22.63
26.85
30.77
34.29
37.21
39.39
40.79
41.46
41.6
41.48
41.31
41.31
41.57
42.06
42.64
43.12
43.34
43.19
42.7
41.92
40.94
39.78
38.45
36.91
35.17
33.3
31.38
29.53
27.79
26.08
24.29
22.28
19.99
17.47
14.86
12.32
9.97
7.85
5.87
3.89
1.77
-0.67
-3.53
-6.87
-10.67
-14.74
-18.74
-22.15
-24.43
-25.09
-23.85
-20.75
-16.11
-10.51
-4.64
0.89
5.64
9.5
12.65
15.4
18.0
20.52
22.84
24.74
25.99
26.51
26.34
25.52
24.07
21.94
19.11
15.64
11.73
7.65
3.64
-0.13
-3.59
-6.73
-9.51
-11.89
-13.87
-15.47
-16.78
-17.87
-18.74
-19.34
-19.6
-19.5
-19.09
-18.5
-17.84
-17.13
-16.3
-15.19
-13.66
-11.69
-9.35
-6.76
-4.06
-1.33
1.36
3.92
6.21
8.1
9.47
10.31
10.68
10.72
10.54
10.16
9.5
8.4
6.72
4.36
1.3
-2.35
-6.34
-10.31
-13.81
-16.39
-17.69
-17.56
-16.08
-13.53
-10.32
-6.83
-3.44
-0.39
2.18
4.25
5.88
7.22
8.45
9.69
11.0
12.35
13.62
14.68
15.46
15.94
16.14
16.15
16.04
15.91
15.81
15.75
15.72
15.66
15.54
15.34
15.06
14.69
14.26
13.74
13.17
12.54
11.88
11.21
10.58
10.01
9.52
9.13
8.76
8.33
7.74
6.93
5.89
4.73
3.56
2.46
1.47
0.5
-0.57
-1.9
-3.56
-5.48
-7.51
-9.46
-11.22
-12.76
-14.17
-15.6
-17.18
-18.97
-20.96
-23.05
-25.1
-26.89
-28.11
-28.44
-27.63
-25.62
-22.58
-18.96
-15.27
-11.95
-9.27
-7.21
-5.6
-4.18
-2.75
-1.19
0.46
2.04
3.4
4.36
4.89
5.06
5.06
5.08
5.28
5.69
6.24
6.83
7.33
7.74
8.05
8.31
8.48
8.51
8.27
7.71
6.86
5.85
4.89
4.11
3.56
3.15
2.69
2.05
1.16
0.09
-1.03
-2.06
-2.96
-3.86
-4.95
-6.41
-8.28
-10.43
-12.56
-14.37
-15.7
-16.61
-17.34
-18.18
-19.33
-20.88
-22.76
-24.84
-26.96
-28.91
-30.44
-31.24
-31.05
-29.74
-27.39
-24.27
-20.75
-17.19
-13.81
-10.79
-8.16
-5.93
-4.03
-2.37
-0.82
0.69
2.16
3.52
4.69
5.62
6.32
6.83
7.19
7.4
7.51
7.57
7.71
8.02
8.53
9.19
9.88
10.48
10.88
11.08
11.09
10.92
10.58
10.11
9.57
9.0
8.38
7.68
6.84
5.85
4.75
3.65
2.66
1.86
1.21
0.61
-0.07
-0.92
-1.95
-3.14
-4.41
-5.68
-6.94
-8.22
-9.61
-11.17
-12.92
-14.81
-16.75
-18.62
-20.38
-22.04
-23.72
-25.51
-27.51
-29.7
-31.99
-34.14
-35.8
-36.65
-36.38
-34.87
-32.21
-28.68
-24.7
-20.68
-16.99
-13.82
-11.18
-9.0
-7.08
-5.27
-3.45
-1.53
0.45
2.45
4.39
6.15
7.63
8.74
9.52
10.1
10.69
11.48
12.54
13.77
14.95
15.88
16.44
16.67
16.66
16.49
16.19
15.73
15.08
14.33
13.57
12.89
12.33
11.81
11.24
10.59
9.86
9.13
8.41
7.64
6.74
5.61
4.26
2.77
1.24
-0.28
-1.78
-3.3
-4.92
-6.64
-8.47
-10.37
-12.31
-14.22
-16.08
-17.87
-19.65
-21.5
-23.61
-26.09
-29.03
-32.36
-35.86
-39.17
-41.84
-43.37
-43.4
-41.7
-38.34
-33.64
-28.16
-22.51
-17.26
-12.77
-9.15
-6.31
-4.01
-1.95
0.13
2.39
4.84
7.4
9.87
12.08
13.88
15.22
16.17
16.88
17.52
18.25
19.11
20.08
21.03
21.78
22.19
22.2
21.82
21.16
20.29
19.26
18.05
16.63
15.01
13.27
11.55
9.97
8.6
7.42
6.35
5.24
3.99
2.5
0.71
-1.32
-3.54
-5.84
-8.14
-10.43
-12.73
-15.15
-17.78
-20.74
-24.15
-28.04
-32.36
-36.92
-41.28
-44.89
-47.1
-47.38
-45.46
-41.43
-35.74
-29.08
-22.22
-15.76
-10.07
-5.23
-1.12
2.52
5.86
9.0
11.93
14.57
16.83
18.72
20.3
21.63
22.76
23.69
24.38
24.81
25.02
25.16
25.45
26.03
26.94
27.98
28.85
29.27
29.08
28.33
27.21
25.94
24.71
23.57
22.53
21.54
20.53
19.43
18.12
16.51
14.54
12.25
9.81
7.43
5.24
3.21
1.18
-1.07
-3.69
-6.65
-9.82
-12.99
-15.97
-18.73
-21.35
-24.03
-26.96
-30.29
-34.08
-38.25
-42.52
-46.38
-49.18
-50.26
-49.1
-45.57
-39.91
-32.7
-24.77
-16.9
-9.74
-3.62
1.46
5.71
9.47
13.04
16.55
19.98
23.15
25.89
28.07
29.66
30.73
31.38
31.71
31.85
31.95
32.14
32.48
32.97
33.49
33.86
33.9
33.52
32.74
31.62
30.3
28.9
27.52
26.23
25.08
24.0
22.89
21.6
19.99
18.07
15.94
13.79
11.8
10.01
8.36
6.71
4.94
2.96
0.72
-1.78
-4.54
-7.53
-10.7
-13.94
-17.15
-20.25
-23.31
-26.52
-30.09
-34.18
-38.68
-43.14
-46.85
-48.97
-48.82
-46.1
-40.99
-34.12
-26.39
-18.68
-11.69
-5.79
-1.01
2.9
6.27
9.46
12.67
15.89
18.95
21.57
23.52
24.73
25.36
25.69
26.07
26.7
27.6
28.63
29.64
30.56
31.47
32.55
33.95
35.7
37.64
39.5
40.99
41.9
42.17
41.83
41.09
40.27
39.93
40.74
43.3
47.77
53.68
59.86
64.81
67.13
66.05
61.6
54.42
45.43
35.41
24.83
13.9
2.72
-8.58
-19.75
-30.5
-40.49
-49.32
-56.5
-61.44
-63.52
-62.29
-57.63
-49.9
-39.94
-28.9
-18.03
-8.33
-0.39
5.76
10.4
14.0
16.89
19.25
21.05
22.26
22.94
23.22
23.29
23.23
23.01
22.48
21.44
19.84
17.72
15.32
12.91
10.71
8.79
7.04
5.23
3.17
0.8
-1.76
-4.26
-6.42
-8.08
-9.27
-10.14
-10.9
-11.69
-12.57
-13.51
-14.52
-15.6
-16.76
-18.0
-19.27
-20.54
-21.88
-23.5
-25.64
-28.46
-31.89
-35.57
-38.96
-41.45
-42.56
-42.06
-39.95
-36.5
-32.1
-27.22
-22.33
-17.83
-13.92
-10.63
-7.79
-5.19
-2.64
-0.11
2.31
4.45
6.16
7.42
8.33
9.04
9.69
10.33
10.97
11.58
12.19
12.79
13.4
13.9
14.17
14.05
13.49
12.53
11.31
9.93
8.48
6.97
5.39
3.67
1.78
-0.3
-2.59
-5.06
-7.56
-9.93
-12.02
-13.85
-15.56
-17.47
-19.84
-22.79
-26.13
-29.48
-32.29
-34.03
-34.34
-33.07
-30.3
-26.31
-21.49
-16.32
-11.24
-6.6
-2.63
0.6
3.17
5.24
7.0
8.65
10.26
11.8
13.14
14.16
14.74
14.91
14.76
14.46
14.14
13.85
13.58
13.26
12.83
12.24
11.46
10.5
9.39
8.19
6.92
5.63
4.3
2.9
1.42
-0.15
-1.81
-3.47
-5.11
-6.71
-8.36
-10.17
-12.29
-14.82
-17.76
-20.96
-24.08
-26.66
-28.22
-28.4
-27.07
-24.37
-20.65
-16.41
-12.11
-8.06
-4.44
-1.23
1.67
4.37
6.93
9.31
11.43
13.19
14.55
15.56
16.28
16.79
17.11
17.2
17.1
16.88
16.66
16.57
16.63
16.75
16.74
16.45
15.77
14.69
13.3
11.69
9.97
8.25
6.66
5.29
4.22
3.41
2.72
1.94
0.88
-0.59
-2.41
-4.42
-6.39
-8.15
-9.69
-11.13
