-2.97
1.31
6.35
12.06
18.23
24.61
30.9
36.75
41.83
45.9
48.85
50.78
51.89
52.45
52.63
52.49
52.0
51.09
49.77
48.09
46.16
44.06
41.86
39.55
37.14
34.58
31.84
28.84
25.53
21.88
17.85
13.48
8.79
3.76
-1.69
-7.67
-14.15
-20.93
-27.51
-33.12
-37.02
-38.63
-37.84
-34.97
-30.65
-25.65
-20.61
-15.94
-11.8
-8.18
-4.99
-2.08
0.68
3.33
5.81
7.96
9.6
10.61
11.03
11.08
11.03
11.12
11.45
11.92
12.4
12.77
13.01
13.15
13.18
13.02
12.49
11.43
9.75
7.56
5.07
2.59
0.31
-1.72
-3.58
-5.42
-7.39
-9.52
-11.8
-14.16
-16.55
-18.95
-21.35
-23.73
-25.97
-27.94
-29.57
-30.94
-32.29
-33.98
-36.36
-39.59
-43.52
-47.61
-51.08
-53.02
-52.75
-49.95
-44.78
-37.82
-29.89
-21.81
-14.19
-7.38
-1.4
3.91
8.8
13.48
18.08
22.58
26.82
30.61
33.71
36.0
37.42
38.13
38.35
38.41
38.6
39.1
39.9
40.82
41.62
42.03
41.94
41.39
40.47
39.24
37.66
35.64
33.07
30.01
26.63
23.26
20.15
17.46
15.23
13.38
11.85
10.62
9.69
9.06
8.63
8.23
7.65
6.76
5.52
4.01
2.31
0.52
-1.42
-3.57
-6.09
-9.14
-12.83
-17.24
-22.35
-28.03
-33.95
-39.6
-44.29
-47.36
-48.26
-46.81
-43.23
-38.03
-31.89
-25.4
-18.97
-12.79
-6.92
-1.36
3.9
8.81
13.32
17.41
21.09
24.39
27.33
29.97
32.39
34.66
36.86
39.0
41.05
42.91
44.51
45.77
46.7
47.28
47.48
47.19
46.27
44.61
42.17
39.07
35.51
31.71
27.75
23.58
19.1
14.2
8.93
3.49
-1.82
-6.75
-11.13
-14.94
-18.23
-21.1
-23.61
-25.79
-27.72
-29.48
-31.19
-32.9
-34.67
-36.5
-38.5
-40.81
-43.62
-47.02
-50.97
-55.15
-59.02
-61.91
-63.18
-62.41
-59.5
-54.74
-48.66
-41.93
-35.15
-28.7
-22.73
-17.23
-12.09
-7.23
-2.61
1.78
5.93
9.79
13.28
16.34
18.87
20.89
22.47
23.69
24.62
25.29
25.71
25.89
25.93
25.96
26.04
26.17
26.17
25.9
25.26
24.26
23.03
21.68
20.28
18.77
17.11
15.3
13.4
11.52
9.72
7.96
6.12
4.1
1.83
-0.66
-3.29
-5.95
-8.6
-11.29
-14.11
-17.18
-20.64
-24.57
-28.97
-33.68
-38.29
-42.24
-44.86
-45.63
-44.3
-41.03
-36.28
-30.69
-24.9
-19.38
-14.43
-10.15
-6.53
-3.49
-0.93
1.19
2.86
4.0
4.57
4.6
4.27
3.84
3.59
3.62
3.92
4.3
4.59
4.74
4.82
4.94
5.22
5.68
6.29
7.0
7.79
8.69
9.72
10.82
11.93
12.94
13.82
14.61
15.4
16.25
17.16
18.03
18.74
19.17
19.23
18.91
18.21
17.2
16.01
14.75
13.58
12.6
11.83
11.21
10.61
9.9
9.0
7.94
6.77
5.56
4.35
3.1
1.72
0.19
-1.42
-2.88
-3.85
-3.93
-2.79
-0.29
3.42
7.97
12.79
17.31
21.08
23.84
25.62
26.6
27.08
27.33
27.57
27.91
28.3
28.65
28.75
28.45
27.64
26.35
24.73
23.03
21.47
20.18
19.17
18.27
17.28
15.99
14.36
12.44
10.41
8.46
6.71
5.24
3.99
2.88
1.77
0.48
-1.19
-3.37
-6.12
-9.36
-12.84
-16.32
-19.56
-22.48
-25.09
-27.47
-29.71
-31.84
-33.82
-35.65
-37.31
-38.84
-40.24
-41.5
-42.56
-43.38
-43.98
-44.54
-45.3
-46.49
-48.18
-50.14
-51.92
-52.88
-52.47
-50.35
-46.47
-41.09
-34.69
-27.82
-21.0
-14.69
-9.21
-4.67
-1.03
1.97
4.62
7.2
9.8
12.29
14.44
15.97
16.77
16.88
16.51
15.93
15.4
15.05
14.92
14.98
15.12
15.21
15.12
14.66
13.69
12.15
10.05
7.53
4.79
2.03
-0.61
-3.07
-5.29
-7.28
-8.97
-10.25
-10.98
-11.11
-10.72
-10.01
-9.28
-8.8
-8.7
-8.97
-9.47
-10.02
-10.48
-10.85
-11.24
-11.85
-12.86
-14.35
-16.24
-18.2
-19.79
-20.52
-19.98
-18.0
-14.65
-10.22
-5.12
0.16
5.19
9.64
13.37
16.36
18.76
20.78
22.55
24.14
25.53
26.64
27.44
27.94
28.2
28.32
28.36
28.33
28.22
28.06
27.88
27.78
27.79
27.86
27.88
27.65
27.04
25.99
24.6
23.02
21.39
19.75
18.05
16.19
14.14
11.94
9.69
7.42
5.11
2.63
-0.1
-3.11
-6.27
-9.38
-12.27
-14.89
-17.35
-19.88
-22.71
-26.05
-29.92
-34.2
-38.57
-42.56
-45.64
-47.33
-47.3
-45.45
-41.98
-37.34
-32.1
-26.9
-22.15
-18.04
-14.45
-11.12
-7.77
-4.3
-0.8
2.45
5.21
7.35
8.9
10.03
10.91
11.6
12.13
12.49
12.74
12.97
13.31
13.73
14.13
14.33
14.16
13.6
12.71
11.68
10.68
9.86
9.22
8.7
8.16
7.47
6.59
5.53
4.43
3.41
2.52
1.73
0.95
0.08
-0.89
-1.9
-2.88
-3.8
-4.73
-5.8
-7.1
-8.64
-10.32
-12.06
-13.77
-15.53
-17.5
-19.86
-22.76
-26.22
-30.07
-33.98
-37.46
-39.93
-40.84
-39.87
-36.96
-32.43
-26.88
-20.99
-15.35
-10.31
-5.9
-2.01
1.57
4.97
8.22
11.24
13.94
16.21
18.02
19.34
20.19
20.63
20.72
20.55
20.25
19.92
19.66
19.49
19.39
19.31
19.22
19.05
18.76
18.33
17.78
17.14
16.52
15.97
15.48
15.0
14.42
13.66
12.77
11.85
11.03
10.36
9.72
8.95
7.9
6.57
5.09
3.6
2.24
1.01
-0.21
-1.55
-3.12
-4.92
-6.89
-8.94
-11.01
-13.06
-15.1
-17.15
-19.25
-21.46
-23.86
-26.55
-29.59
-32.93
-36.33
-39.35
-41.4
-41.93
-40.55
-37.27
-32.42
-26.63
-20.59
-14.88
-9.86
-5.65
-2.17
0.75
3.31
5.7
8.03
10.35
12.63
14.77
16.65
18.19
19.32
20.07
20.52
20.83
21.2
21.81
22.73
23.88
25.05
25.94
26.3
26.04
25.23
24.09
22.85
21.68
20.59
19.49
18.25
16.81
15.17
13.42
11.65
9.91
8.23
6.63
5.11
3.67
2.25
0.78
-0.86
-2.72
-4.77
-6.89
-8.98
-11.0
-13.04
-15.27
-17.89
-20.99
-24.54
-28.28
-31.82
-34.64
-36.24
-36.26
-34.55
-31.3
-26.92
-21.93
-16.85
-12.08
-7.79
-4.01
-0.64
2.47
5.46
8.37
11.14
13.64
15.7
17.24
18.3
19.06
19.73
20.47
21.29
22.09
22.7
23.06
23.2
23.24
23.29
23.37
23.37
23.1
22.46
21.44
20.19
18.94
17.85
16.96
16.17
15.34
14.39
13.29
12.08
10.84
9.58
8.3
6.97
5.53
3.96
2.25
0.44
-1.44
-3.34
-5.25
-7.2
-9.24
-11.37
-13.52
-15.59
-17.52
-19.36
-21.31
-23.62
-26.48
-29.85
-33.42
-36.68
-39.0
-39.83
-38.88
-36.11
-31.82
-26.57
-21.01
-15.72
-11.1
-7.26
-4.04
-1.19
1.54
4.27
6.97
9.47
11.62
13.28
14.46
15.25
15.8
16.25
16.71
17.21
17.79
18.42
19.1
19.76
20.32
20.71
20.84
20.69
20.25
19.56
18.7
17.73
16.74
15.81
14.93
14.07
13.17
12.19
11.11
10.01
8.93
7.89
6.86
5.76
4.55
3.22
1.83
0.41
-1.0
-2.42
-3.87
-5.36
-6.87
-8.32
-9.71
-11.03
-12.34
-13.74
-15.36
-17.32
-19.71
-22.57
-25.8
-29.19
-32.41
-35.05
-36.73
-37.16
-36.21
-33.93
-30.53
-26.35
-21.8
-17.27
-13.11
-9.5
-6.45
-3.78
-1.29
1.17
3.58
5.81
7.72
9.25
10.48
11.59
12.72
13.88
14.98
15.87
16.45
16.77
16.96
17.17
17.44
17.73
17.91
17.82
17.38
16.6
15.58
14.5
13.49
12.68
12.06
11.54
10.99
10.28
9.33
8.14
6.8
5.41
4.05
2.81
1.71
0.75
-0.14
-1.04
-2.06
-3.3
-4.79
-6.44
-8.14
-9.77
-11.31
-12.84
-14.53
-16.56
-19.02
-21.87
-24.88
-27.7
-29.87
-30.94
-30.64
-28.91
-25.95
-22.12
-17.9
-13.7
-9.87
-6.58
-3.88
-1.68
0.19
1.9
3.58
5.26
6.89
8.43
9.82
11.08
12.23
13.28
14.18
14.89
15.41
15.81
16.19
16.65
17.21
17.76
18.19
18.37
18.22
17.73
16.96
15.99
14.9
13.77
12.63
11.52
10.43
9.35
8.29
7.21
6.08
4.88
3.59
2.24
0.86
-0.47
-1.78
-3.17
-4.73
-6.53
-8.53
-10.62
-12.68
-14.67
-16.69
-18.89
-21.4
-24.27
-27.38
-30.48
-33.24
-35.28
-36.22
-35.76
-33.78
-30.4
-26.0
-21.12
-16.35
-12.1
-8.51
-5.53
-2.98
-0.73
1.27
3.05
4.62
6.08
7.51
8.96
10.38
11.66
12.67
13.37
13.81
14.13
14.46
14.9
15.47
16.14
16.82
17.41
17.77
17.84
17.59
17.12
16.53
15.93
15.35
14.76
14.06
13.23
12.27
11.23
10.14
8.98
7.72
6.3
4.74
3.12
1.55
0.11
-1.21
-2.51
-3.92
-5.57
-7.45
-9.47
-11.47
-13.37
-15.19
-17.1
-19.32
-22.0
-25.19
-28.73
-32.35
-35.68
-38.3
-39.82
-39.92
-38.42
-35.39
-31.14
-26.12
-20.87
-15.81
-11.21
-7.14
-3.56
-0.38
2.46
5.02
7.3
9.31
10.99
12.34
13.33
13.99
14.36
14.56
14.73
14.97
15.35
15.89
16.53
17.17
17.68
17.97
18.02
17.83
17.46
16.96
16.33
15.51
14.43
13.05
11.4
9.58
7.73
5.97
4.39
3.01
1.74
0.54
-0.65
-1.85
-3.04
-4.25
-5.54
-6.99
-8.7
-10.71
-12.99
-15.49
-18.14
-20.92
-23.79
-26.62
-29.2
-31.16
-32.12
-31.79
-30.1
-27.18
-23.4
-19.17
-14.86
-10.72
-6.88
-3.35
-0.1
2.92
5.72
8.28
10.54
12.39
13.78
14.69
15.18
15.37
15.42
15.46
15.6
15.88
16.3
16.79
17.21
17.37
17.09
16.23
14.78
12.9
10.78
8.66
6.69
4.93
3.35
1.91
0.54
-0.75
-1.98
-3.14
-4.27
-5.43
-6.65
-8.0
-9.48
-11.13
-12.95
-14.94
-17.13
-19.5
-22.01
-24.58
-27.1
-29.46
-31.53
-33.19
-34.3
-34.67
-34.11
-32.45
-29.68
-25.92
-21.49
-16.68
-11.68
-6.46
-0.77
5.7
13.19
21.73
31.1
40.91
50.65
59.75
67.69
73.99
78.32
80.52
80.63
78.85
75.54
71.07
65.84
60.16
54.23
48.19
42.11
36.13
30.43
25.24
20.75
17.03
13.93
11.19
8.51
5.67
2.63
-0.51
-3.59
-6.52
-9.28
-11.92
-14.47
-16.9
-19.12
-21.07
-22.72
-24.12
-25.38
-26.62
-27.92
-29.31
-30.84
-32.52
-34.35
-36.33
-38.35
-40.18
-41.53
-42.0
-41.27
-39.2
-35.85
-31.54
-26.73
-21.89
-17.33
-13.22
-9.49
-6.01
-2.68
0.55
3.6
6.31
8.59
10.36
11.7
12.72
13.52
14.22
14.84
15.36
15.77
16.11
16.43
16.8
17.17
17.45
17.44
17.01
16.12
14.86
13.42
11.99
10.68
9.51
8.39
7.22
5.9
4.4
2.72
0.88
-1.06
-3.01
-4.86
-6.51
-7.94
-9.19
-10.43
-11.86
-13.63
-15.81
-18.34
-21.02
-23.56
-25.6
-26.74
-26.73
-25.48
-23.12
-19.99
-16.49
-12.98
-9.66
-6.6
-3.78
-1.14
1.32
3.56
5.54
7.19
8.46
9.33
9.88
10.2
10.44
10.74
11.2
11.82
12.58
13.46
14.41
15.36
16.18
16.75
16.91
16.62
15.95
15.03
14.02
12.97
11.89
10.71
9.4
7.97
6.48
4.97
3.47
1.95
0.33
-1.45
-3.38
-5.45
-7.58
-9.74
-11.88
-14.04
-16.27
-18.62
-21.08
-23.47
-25.51
-26.77
-26.87
-25.59
-23.0
-19.44
-15.4
-11.38
-7.71
-4.51
-1.7
0.86
3.31
5.68
7.93
9.91
11.49
12.61
13.29
13.66
13.89
14.14
14.47
14.88
15.32
15.73
16.11
16.49
16.85
17.15
17.27
17.1
16.58
15.77
14.77
13.72
12.73
11.79
10.89
9.98
9.03
8.04
6.99
5.91
4.8
3.7
2.65
1.71
0.87
0.08
-0.82
-1.99
-3.57
-5.55
-7.78
-10.09
-12.29
-14.37
-16.48
-18.85
-21.65
-24.91
-28.4
-31.72
-34.38
-35.91
-36.04
-34.68
-31.96
-28.21
-23.82
-19.25
-14.88
-10.99
-7.7
-4.96
-2.63
-0.49
1.65
3.88
6.15
8.32
10.22
11.78
13.02
14.02
14.87
15.61
16.23
16.72
17.11
17.43
17.71
17.9
17.89
17.53
16.77
15.69
14.43
13.17
11.99
10.93
9.9
8.84
7.7
6.5
5.28
4.06
2.89
1.78
0.76
-0.25
-1.31
-2.53
-3.95
-5.54
-7.2
-8.8
-10.24
-11.52
-12.72
-13.95
-15.37
-17.1
-19.24
-21.75
-24.44
-26.97
-28.83
-29.56
-28.8
-26.55
-23.08
-18.89
-14.55
-10.56
-7.19
-4.45
-2.17
-0.13
1.86
3.79
5.55
6.95
7.88
8.36
8.55
8.65
8.82
9.13
9.57
10.1
10.69
11.37
12.12
12.86
13.45
13.76
13.7
13.28
12.58
11.72
10.79
9.84
8.86
7.85
6.77
5.63
4.46
3.32
2.23
1.22
0.24
-0.78
-1.88
-3.1
-4.41
-5.7
-6.91
-8.0
-8.99
-10.03
-11.3
-12.96
-15.07
-17.5
-19.98
-22.13
-23.55
-23.95
-23.2
-21.32
-18.52
-15.06
-11.28
-7.51
-4.02
-0.98
1.57
3.7
5.58
7.33
9.03
10.63
12.02
13.06
13.63
13.74
13.51
13.14
12.88
12.93
13.32
13.92
14.51
14.88
14.89
14.56
14.02
13.38
12.72
11.98
11.08
9.99
8.71
7.35
6.01
4.76
3.61
2.52
1.43
0.29
-0.96
-2.36
-3.89
-5.54
-7.22
-8.86
-10.4
-11.86
-13.35
-15.0
-17.0
-19.45
-22.33
-25.41
-28.27
-30.32
-31.06
-30.16
-27.65
-23.84
-19.29
-14.56
-10.02
-5.9
-2.23
1.03
3.91
6.43
8.58
10.35
11.8
13.0
14.0
14.84
15.48
15.86
15.94
15.76
15.43
15.15
15.09
15.36
15.91
16.62
17.25
17.61
17.61
17.24
16.58
15.71
14.71
13.62
12.46
11.24
9.96
8.65
7.32
5.99
4.69
3.42
2.24
1.13
0.05
-1.11
-2.47
-4.07
-5.86
-7.66
-9.26
-10.56
-11.61
-12.64
-13.94
-15.77
-18.21
-21.18
-24.48
-27.8
-30.73
-32.85
-33.73
-33.08
-30.86
-27.32
-22.96
-18.35
-13.95
-10.01
-6.57
-3.53
-0.79
1.74
4.06
6.17
8.04
9.68
11.1
12.31
13.31
14.1
14.68
15.09
15.43
15.82
16.35
17.04
17.77
18.36
18.61
18.44
17.93
17.29
16.72
16.33
16.09
15.84
15.47
14.9
14.19
13.41
12.61
11.77
10.85
9.84
8.74
7.59
6.42
5.22
3.96
2.61
1.22
-0.14
-1.39
-2.51
-3.53
-4.59
-5.79
-7.24
-8.94
-10.87
-12.91
-14.97
-17.0
-19.03
-21.19
-23.61
-26.32
-29.18
-31.86
-33.88
-34.81
-34.34
-32.49
-29.47
-25.66
-21.45
-17.14
-12.97
-9.08
-5.57
-2.43
0.37
2.88
5.14
7.17
8.92
10.39
11.59
12.6
13.47
14.23
14.89
15.46
15.98
16.55
17.23
18.03
18.84
19.47
19.76
19.61
19.09
18.33
17.5
16.73
16.07
15.51
14.95
14.3
13.42
12.22
10.67
8.87
6.94
5.07
3.37
1.87
0.5
-0.91
-2.47
-4.23
-6.1
-7.97
-9.7
-11.23
-12.61
-13.98
-15.5
-17.35
-19.62
-22.28
-25.19
-28.07
-30.52
-32.13
-32.49
-31.33
-28.62
-24.59
-19.74
-14.7
-10.01
-6.02
-2.82
-0.23
1.95
3.93
5.8
7.53
9.08
10.44
11.63
12.66
13.51
14.14
14.51
14.69
14.84
15.12
15.67
16.47
17.41
18.28
18.92
19.24
19.25
19.0
18.54
17.9
17.09
16.13
15.05
13.91
12.68
11.33
9.81
8.09
6.23
4.38
2.69
1.32
0.26
-0.62
-1.54
-2.71
-4.27
-6.21
-8.4
-10.62
-12.72
-14.59
-16.27
-17.9
-19.69
-21.85
-24.53
-27.71
-31.15
-34.41
-36.86
-37.94
-37.29
-34.9
-31.08
-26.39
-21.35
-16.36
-11.6
-7.13
-2.93
0.99
4.58
7.82
10.67
13.18
15.34
17.09
18.33
18.96
18.97
18.52
17.84
17.18
16.74
16.55
16.53
16.61
16.7
16.83
17.06
17.41
17.82
18.17
18.29
18.09
17.59
16.86
16.02
15.11
14.18
13.18
12.09
10.9
9.62
8.31
6.99
5.69
4.39
3.09
1.74
0.3
-1.25
-2.93
-4.72
-6.61
-8.54
-10.48
-12.37
-14.19
-15.94
-17.61
-19.3
-21.12
-23.25
-25.85
-28.92
-32.19
-35.12
-37.01
-37.23
-35.49
-31.96
-27.24
-22.09
-17.21
-12.97
-9.4
-6.37
-3.68
-1.23
1.02
3.09
5.09
7.13
9.23
11.33
13.2
14.62
15.48
15.84
15.95
16.07
16.44
17.15
18.16
19.33
20.48
21.43
22.0
22.06
21.53
20.47
19.01
17.39
15.82
14.46
13.33
12.36
11.4
10.29
8.94
7.36
5.68
4.09
2.79
1.81
1.04
0.24
-0.87
-2.41
-4.35
-6.52
-8.68
-10.7
-12.56
-14.35
-16.25
-18.42
-20.94
-23.82
-26.94
-30.07
-32.82
-34.75
-35.39
-34.47
-31.95
-28.09
-23.37
-18.31
-13.37
-8.79
-4.66
-0.97
2.33
5.2
7.62
9.58
11.17
12.56
13.88
15.22
16.49
17.53
18.2
18.46
18.43
18.31
18.36
18.67
19.23
19.9
20.47
20.79
20.71
20.21
19.28
17.97
16.36
14.52
12.59
10.71
8.98
7.5
6.25
5.14
4.03
2.76
1.25
-0.53
-2.51
-4.57
-6.58
-8.47
-10.23
-11.91
-13.62
-15.52
-17.77
-20.48
-23.66
-27.14
-30.56
-33.36
-34.96
-34.9
-32.99
-29.4
-24.56
-19.07
-13.52
-8.35
-3.79
0.13
3.5
6.44
9.05
11.37
13.36
14.99
16.26
17.24
18.03
18.78
19.56
20.34
21.08
21.72
22.26
22.75
23.26
23.74
24.06
24.04
23.55
22.59
21.36
20.12
19.08
18.31
17.7
17.01
16.02
14.65
12.97
11.13
9.34
7.68
6.18
4.78
3.38
1.93
0.4
-1.2
-2.91
-4.76
-6.81
-9.11
-11.65
-14.34
-17.04
-19.68
-22.24
-24.9
-27.87
-31.33
-35.19
-39.01
-42.09
-43.66
-43.14
-40.38
-35.72
-29.84
-23.54
-17.46
-11.93
-7.07
-2.81
0.93
4.21
7.04
9.47
11.61
13.58
15.48
17.27
18.83
19.97
20.59
20.73
20.58
20.42
20.46
20.81
21.42
22.11
22.68
22.98
22.91
22.45
21.65
20.57
19.31
17.99
16.69
15.46
14.26
13.02
11.67
10.16
8.53
6.9
5.36
4.01
2.84
1.79
0.73
-0.45
-1.86
-3.55
-5.5
-7.64
-9.87
-12.07
-14.15
-16.09
-17.97
-19.91
-22.11
-24.71
-27.82
-31.37
-35.15
-38.72
-41.5
-42.88
-42.39
-39.88
-35.61
-30.14
-24.2
-18.41
-13.19
-8.64
-4.69
-1.19
1.95
4.79
7.34
9.63
11.69
13.52
15.11
16.37
17.25
17.74
17.93
18.0
18.16
18.56
19.27
20.17
21.08
21.74
21.97
21.73
21.05
20.08
18.93
17.68
16.35
14.96
13.49
11.95
10.36
8.68
6.89
4.95
2.83
0.58
-1.76
-4.09
-6.3
-8.32
-10.11
-11.7
-13.17
-14.7
-16.51
-18.87
-21.96
-25.79
-30.09
-34.33
-37.78
-39.71
-39.61
-37.3
-33.04
-27.36
-20.97
-14.56
-8.67
-3.62
0.53
3.89
6.7
9.23
11.64
13.99
16.23
18.22
19.88
21.16
22.07
22.67
23.03
23.24
23.34
23.41
23.48
23.59
23.74
23.94
24.11
24.15
23.96
23.43
22.52
21.27
19.84
18.37
16.96
15.63
14.3
12.89
11.37
9.76
8.1
6.42
4.68
2.83
0.8
-1.39
-3.7
-6.03
-8.38
-10.78
-13.27
-15.88
-18.58
-21.28
-23.93
-26.56
-29.34
-32.46
-36.03
-39.97
-43.88
-47.13
-48.96
-48.78
-46.3
-41.68
-35.49
-28.48
-21.44
-14.95
-9.35
-4.7
-0.89
2.32
5.17
7.86
10.49
13.04
15.38
17.38
18.94
20.07
20.86
21.49
22.13
22.89
23.75
24.65
25.48
26.12
26.49
26.57
26.35
25.87
25.15
24.21
23.09
21.86
20.62
19.42
18.28
17.16
15.92
14.45
12.68
10.63
8.43
6.21
4.1
2.13
0.26
-1.62
-3.6
-5.77
-8.11
-10.58
-13.09
-15.57
-17.94
-20.18
-22.37
-24.65
-27.25
-30.43
-34.33
-38.84
-43.55
-47.77
-50.62
-51.41
-49.75
-45.73
-39.89
-33.02
-25.92
-19.21
-13.24
-8.09
-3.69
0.11
3.54
6.73
9.81
12.81
15.66
18.16
20.11
21.35
21.85
21.73
21.22
20.62
20.17
20.09
20.5
21.4
22.66
24.04
25.21
25.88
25.95
25.51
24.85
24.24
23.86
23.63
23.3
22.55
21.19
19.22
16.83
14.35
12.03
10.06
8.42
6.95
5.44
3.66
1.44
-1.22
-4.22
-7.33
-10.34
-13.12
-15.7
-18.3
-21.23
-24.78
-29.07
-33.91
-38.79
-42.98
-45.7
-46.34
-44.62
-40.68
-34.96
-28.14
-20.89
-13.82
-7.35
-1.73
2.97
6.83
10.02
12.73
15.12
17.28
19.24
20.95
22.37
23.5
24.4
25.13
25.78
26.36
26.84
27.17
27.28
27.18
26.87
26.4
25.76
24.91
23.8
22.37
20.65
18.67
16.56
14.43
12.38
10.44
8.57
6.66
4.57
2.2
-0.45
-3.31
-6.16
-8.79
-11.07
-12.98
-14.7
-16.5
-18.7
-21.5
-25.0
-29.1
-33.52
-37.84
-41.48
-43.84
-44.34
-42.61
-38.64
-32.77
-25.71
-18.31
-11.35
-5.33
-0.39
3.6
6.94
9.91
12.66
15.24
17.6
19.66
21.34
22.63
23.49
23.98
24.21
24.33
24.5
24.84
25.37
26.02
26.66
27.17
27.49
27.61
27.51
27.19
26.6
25.72
24.57
23.22
21.77
20.3
18.84
17.37
15.84
14.19
12.4
10.48
8.48
6.47
4.47
2.5
0.48
-1.67
-4.04
-6.64
-9.42
-12.29
-15.1
-17.8
-20.34
-22.78
-25.21
-27.8
-30.76
-34.29
-38.48
-43.14
-47.78
-51.64
-53.91
-53.97
-51.57
-46.93
-40.63
-33.45
-26.1
-19.12
-12.79
-7.19
-2.29
1.99
5.79
9.25
12.52
15.63
18.52
21.01
22.85
23.94
24.32
24.26
24.14
24.3
24.9
25.87
26.98
27.97
28.66
28.98
28.98
28.74
28.3
27.71
26.99
26.16
25.25
24.29
23.29
22.22
21.05
19.7
18.16
16.45
14.63
12.8
11.0
9.22
7.42
5.51
3.47
1.37
-0.7
-2.65
-4.5
-6.37
-8.44
-10.81
-13.44
-16.14
-18.67
-20.91
-22.95
-25.05
-27.6
-30.86
-34.86
-39.29
-43.57
-46.96
-48.78
-48.54
-46.11
-41.7
-35.87
-29.38
-22.9
-16.99
-11.87
-7.5
-3.7
-0.19
3.18
6.45
9.53
12.27
14.52
16.2
17.33
18.01
18.42
18.73
19.1
19.63
20.29
21.0
21.67
22.25
22.71
23.07
23.28
23.25
22.87
22.07
20.95
19.65
18.37
17.26
16.32
15.48
14.6
13.58
12.33
10.86
9.22
7.51
5.8
4.17
2.61
1.03
-0.69
-2.67
-4.94
-7.41
-9.92
-12.28
-14.38
-16.21
-17.92
-19.69
-21.76
-24.3
-27.41
-30.97
-34.73
-38.21
-40.82
-41.96
-41.19
-38.41
-33.87
-28.13
-21.95
-16.02
-10.83
-6.6
-3.27
-0.58
1.77
4.04
6.33
8.6
10.7
12.49
13.82
14.69
15.16
15.38
15.57
15.88
16.39
17.05
17.72
18.25
18.53
18.54
18.34
17.98
17.47
16.69
15.54
13.94
11.99
9.86
7.73
5.71
3.73
1.7
-0.49
-2.81
-5.11
-7.25
-9.14
-10.8
-12.37
-14.03
-15.92
-18.15
-20.79
-23.86
-27.33
-31.03
-34.67
-37.83
-40.04
-40.86
-40.02
-37.5
-33.52
-28.54
-23.1
-17.76
-12.89
-8.64
-4.95
-1.61
1.55
4.62
7.51
10.04
12.04
13.43
14.26
14.61
14.59
14.32
13.97
13.75
13.94
14.74
16.23
18.25
20.46
22.47
23.92
24.61
24.53
23.79
22.54
20.97
19.19
17.27
15.26
13.18
11.07
8.98
6.99
5.1
3.28
1.42
-0.59
-2.8
-5.21
-7.72
-10.22
-12.64
-14.95
-17.24
-19.66
-22.39
-25.56
-29.21
-33.17
-37.07
-40.43
-42.66
-43.28
-41.98
-38.77
-33.94
-28.03
-21.71
-15.59
-10.16
-5.61
-1.92
1.13
3.82
6.41
9.0
11.55
13.88
15.76
17.02
17.65
17.83
17.84
17.98
18.46
19.33
20.49
21.78
23.02
24.08
24.88
25.36
25.47
25.19
24.55
23.62
22.54
21.42
20.31
19.15
17.85
16.28
14.4
12.29
10.1
8.05
6.27
4.77
3.42
1.98
0.26
-1.85
-4.31
-6.98
-9.64
-12.12
-14.37
-16.44
-18.5
-20.77
-23.44
-26.6
-30.11
-33.63
-36.65
-38.57
-38.91
-37.39
-34.06
-29.24
-23.51
-17.51
-11.84
-6.92
-2.94
0.15
2.56
4.59
6.51
8.44
10.36
12.1
13.44
14.24
14.49
14.34
14.07
13.94
14.13
14.65
15.41
16.24
16.98
17.52
17.79
17.73
17.29
16.46
15.29
13.92
12.57
11.41
10.5
9.72
8.82
7.53
5.75
3.52
1.08
-1.29
-3.38
-5.14
-6.66
-8.07
-9.57
-11.32
-13.47
-16.12
-19.26
-22.66
-25.89
-28.37
-29.52
-28.96
-26.61
-22.73
-17.83
-12.51
-7.36
-2.79
1.02
4.1
6.63
8.91
11.09
13.23
15.16
16.66
17.54
17.78
17.56
17.17
16.94
17.07
17.58
18.34
19.14
19.8
20.22
20.37
20.31
20.06
19.62
18.97
18.07
16.93
15.59
14.11
12.57
11.03
9.53
8.07
6.65
5.25
3.8
2.26
0.57
-1.28
-3.24
-5.25
-7.2
-9.03
-10.71
-12.34
-14.1
-16.22
-18.88
-22.11
-25.68
-29.15
-31.88
-33.28
-32.94
-30.74
-26.93
-22.02
-16.65
-11.41
-6.73
-2.82
0.34
2.92
5.14
7.19
9.16
11.02
12.68
14.03
14.98
15.57
15.88
16.09
16.37
16.83
17.53
18.41
19.36
20.28
21.04
21.56
21.76
21.61
21.12
20.34
19.4
18.42
17.49
16.64
15.8
14.9
13.87
12.68
11.36
9.96
8.52
7.09
5.7
4.39
3.18
2.06
0.94
-0.33
-1.86
-3.71
-5.82
-7.99
-10.05
-11.85
-13.36
-14.66
-15.89
-17.19
-18.66
-20.36
-22.34
-24.68
-27.37
-30.27
-32.97
-34.91
-35.47
-34.24
-31.2
-26.71
-21.43
-16.08
-11.17
-6.94
-3.34
-0.17
2.76
5.54
8.1
10.33
12.12
13.45
14.44
15.19
15.82
16.33
16.65
16.74
16.59
16.33
16.11
16.01
16.04
16.04
15.86
15.38
14.65
13.79
12.96
12.24
11.63
11.05
10.46
9.85
9.27
8.72
8.17
7.53
6.72
5.73
4.64
3.59
2.7
2.03
1.54
1.09
0.54
-0.21
-1.21
-2.41
-3.76
-5.16
-6.56
-7.95
-9.35
-10.81
-12.37
-14.08
-15.99
-18.2
-20.79
-23.76
-26.9
-29.79
-31.88
-32.61
-31.67
-29.11
-25.29
-20.83
-16.3
-12.17
-8.64
-5.74
-3.36
-1.38
0.34
1.9
3.33
4.64
5.77
6.67
7.31
7.71
7.98
8.23
8.51
8.88
9.3
9.73
10.15
10.56
10.93
11.22
11.35
11.27
10.97
10.48
9.91
9.34
8.82
8.33
7.81
7.19
6.4
5.38
4.16
2.8
1.46
0.28
-0.64
-1.31
-1.88
-2.56
-3.5
-4.76
-6.24
-7.76
-9.15
-10.34
-11.3
-12.14
-12.99
-14.02
-15.42
-17.33
-19.77
-22.55
-25.33
-27.6
-28.84
-28.71
-27.12
-24.29
-20.63
-16.62
-12.68
-9.08
-5.91
-3.17
-0.78
1.28
3.04
4.56
5.87
7.05
8.07
8.89
9.41
9.59
9.49
9.25
9.08
9.12
9.44
9.97
10.61
11.2
11.59
11.67
11.32
10.54
9.41
8.11
6.8
5.62
4.58
3.64
2.71
1.76
0.83
-0.05
-0.88
-1.7
-2.59
-3.6
-4.76
-6.03
-7.4
-8.79
-10.16
-11.41
-12.54
-13.55
-14.58
-15.86
-17.62
-19.97
-22.77
-25.65
-28.09
-29.53
-29.58
-28.14
-25.32
-21.53
-17.26
-13.02
-9.21
-6.06
-3.61
-1.73
-0.19
1.23
2.66
4.13
5.53
6.74
7.64
8.19
8.46
8.55
8.61
8.74
9.0
9.44
10.07
10.85
11.73
12.57
13.24
13.65
13.72
13.53
13.21
12.89
12.69
12.6
12.55
12.43
12.13
11.62
10.89
9.96
8.92
7.82
6.74
5.69
4.67
3.6
2.41
1.01
-0.65
-2.57
-4.71
-7.0
-9.35
-11.67
-13.92
-16.02
-17.97
-19.8
-21.56
-23.32
-25.22
-27.33
-29.74
-32.41
-35.09
-37.34
-38.59
-38.39
-36.56
-33.3
-29.07
-24.45
-19.91
-15.71
-11.91
-8.48
-5.37
-2.56
-0.01
2.32
4.52
6.61
8.55
10.22
11.46
12.23
12.6
12.74
12.84
13.03
13.34
13.77
14.29
14.91
15.58
16.26
16.79
17.04
16.93
16.47
15.79
15.05
14.32
13.65
12.99
12.29
11.56
10.84
10.18
9.55
8.9
8.13
7.19
6.11
4.95
3.83
2.78
1.77
0.72
-0.47
-1.84
-3.37
-5.03
-6.79
-8.63
-10.56
-12.59
-14.71
-16.95
-19.37
-22.06
-25.15
-28.66
-32.36
-35.82
-38.4
-39.51
-38.74
-36.06
-31.82
-26.62
-21.15
-15.97
-11.37
-7.43
-4.02
-0.97
1.88
4.56
7.06
9.28
11.16
12.7
13.95
15.0
15.92
16.73
17.45
18.1
18.74
19.45
20.33
21.39
22.57
23.71
24.58
24.99
24.81
24.07
22.9
21.52
20.15
18.91
17.81
16.72
15.47
13.95
12.17
10.22
8.31
6.54
4.95
3.47
1.98
0.42
-1.19
-2.76
-4.24
-5.61
-6.93
-8.29
-9.73
-11.26
-12.82
-14.37
-15.94
-17.68
-19.78
-22.34
-25.31
-28.28
-30.64
-31.68
-30.9
-28.15
-23.78
-18.48
-13.02
-7.95
-3.56
0.2
3.48
6.42
9.04
11.25
13.0
14.27
15.16
15.77
16.22
16.51
16.67
16.74
16.83
17.13
17.73
18.65
19.72
20.69
21.33
21.52
21.29
20.78
20.13
19.42
18.65
17.76
16.72
15.56
14.37
13.23
12.14
11.01
9.7
8.08
6.1
3.88
1.63
-0.41
-2.13
-3.57
-4.92
-6.41
-8.21
-10.41
-12.98
-15.89
-19.02
-22.19
-25.08
-27.21
-28.07
-27.27
-24.75
-20.82
-16.03
-11.05
-6.38
-2.28
1.21
4.23
6.89
9.27
11.35
13.08
14.39
15.28
15.82
16.11
16.28
16.47
16.76
17.2
17.77
18.42
19.1
19.72
20.21
20.49
20.5
20.21
19.6
18.73
17.71
16.69
15.82
15.12
14.55
13.89
12.94
11.55
9.74
7.68
5.59
3.68
2.07
0.74
-0.41
-1.5
-2.66
-3.95
-5.41
-6.99
-8.61
-10.18
-11.64
-12.97
-14.24
-15.61
-17.25
-19.33
-21.98
-25.18
-28.76
-32.34
-35.36
-37.22
-37.41
-35.71
-32.25
-27.51
-22.13
-16.72
-11.76
-7.5
-3.98
-1.1
1.3
3.42
5.43
7.44
9.45
11.38
13.1
14.47
15.44
16.05
16.44
16.78
17.24
17.86
18.63
19.4
20.03
20.39
20.44
20.21
19.82
19.37
18.91
18.41
17.82
17.11
16.23
15.21
14.09
12.91
11.68
10.38
9.02
7.64
6.31
5.12
4.12
3.3
2.59
1.84
0.92
-0.25
-1.72
-3.5
-5.58
-7.91
-10.42
-12.98
-15.45
-17.74
-19.85
-21.9
-24.08
-26.53
-29.29
-32.16
-34.75
-36.54
-36.98
-35.7
-32.63
-28.06
-22.55
-16.79
-11.43
-6.84
-3.15
-0.24
2.11
4.15
6.03
7.83
9.54
11.1
12.45
13.55
14.39
14.98
15.39
15.7
16.01
16.39
16.87
17.4
17.87
18.19
18.24
17.96
17.35
16.48
15.45
14.34
13.23
12.13
11.05
10.01
9.06
8.21
7.48
6.77
5.97
4.94
3.62
2.01
0.25
-1.55
-3.3
-4.96
-6.6
-8.21
-9.81
-11.32
-12.67
-13.84
-14.87
-15.96
-17.33
-19.22
-21.7
-24.61
-27.51
-29.75
-30.63
-29.74
-27.03
-22.94
-18.19
-13.56
-9.59
-6.43
-3.9
-1.66
0.56
2.85
5.16
7.36
9.38
11.2
12.81
14.18
15.19
15.7
15.68
15.27
14.73
14.35
14.32
14.63
15.09
15.45
15.5
15.15
14.47
13.61
12.71
11.88
11.08
10.2
9.12
7.74
6.1
4.33
2.62
1.13
-0.07
-1.05
-1.91
-2.82
-3.84
-4.92
-5.97
-6.91
-7.72
-8.49
-9.36
-10.47
-11.95
-13.86
-16.23
-19.01
-22.05
-25.11
-27.76
-29.5
-29.87
-28.64
-25.9
-22.11
-17.88
-13.81
-10.24
-7.24
-4.64
-2.24
0.11
2.41
4.6
6.64
8.54
10.31
11.9
13.23
14.2
14.76
15.0
15.1
15.29
15.72
16.44
17.39
18.46
19.5
20.37
20.94
21.08
20.73
19.9
18.7
17.31
15.92
14.67
13.58
12.56
11.44
10.07
8.43
6.63
4.87
3.35
2.16
1.25
0.47
-0.35
-1.33
-2.49
-3.79
-5.22
-6.82
-8.63
-10.65
-12.82
-14.99
-17.02
-18.91
-20.81
-22.98
-25.67
-28.9
-32.32
-35.31
-37.15
-37.24
-35.41
-31.87
-27.21
-22.07
-17.06
-12.57
-8.74
-5.54
-2.83
-0.46
1.67
3.65
5.54
7.36
9.17
