-54.56
-54.42
-52.08
-47.69
-41.73
-34.87
-27.81
-21.15
-15.29
-10.38
-6.32
-2.84
0.4
3.68
7.11
10.61
13.94
16.82
19.06
20.67
21.75
22.52
23.11
23.63
24.11
24.55
24.99
25.46
25.96
26.46
26.83
26.89
26.52
25.71
24.53
23.13
21.67
20.23
18.83
17.43
16.02
14.58
13.15
11.68
10.11
8.39
6.52
4.59
2.75
1.11
-0.3
-1.59
-2.93
-4.51
-6.42
-8.66
-11.11
-13.58
-15.95
-18.16
-20.21
-22.24
-24.43
-26.93
-29.89
-33.33
-37.06
-40.68
-43.61
-45.24
-45.05
-42.83
-38.78
-33.48
-27.69
-22.18
-17.41
-13.55
-10.43
-7.74
-5.23
-2.73
-0.27
2.05
4.08
5.77
7.16
8.36
9.49
10.59
11.65
12.61
13.46
14.22
14.95
15.67
16.29
16.67
16.66
16.18
15.3
14.15
12.86
11.53
10.16
8.73
7.26
5.76
4.29
2.88
1.52
0.17
-1.21
-2.65
-4.19
-5.85
-7.65
-9.58
-11.59
-13.63
-15.63
-17.62
-19.65
-21.84
-24.28
-26.97
-29.77
-32.38
-34.35
-35.27
-34.82
-32.88
-29.61
-25.31
-20.4
-15.31
-10.39
-5.87
-1.9
1.47
4.25
6.53
8.4
9.95
11.23
12.25
12.96
13.38
13.56
13.61
13.69
13.92
14.36
14.99
15.72
16.46
17.13
17.62
17.89
17.82
17.4
16.63
15.59
14.43
13.25
12.11
10.97
9.75
8.37
6.8
5.05
3.19
1.32
-0.49
-2.18
-3.72
-5.16
-6.61
-8.18
-10.01
-12.07
-14.25
-16.36
-18.2
-19.71
-20.97
-22.25
-23.83
-25.94
-28.68
-31.91
-35.34
-38.49
-40.85
-41.96
-41.46
-39.26
-35.55
-30.74
-25.38
-19.98
-14.96
-10.53
-6.77
-3.61
-0.93
1.43
3.59
5.62
7.5
9.18
10.56
11.63
12.43
13.09
13.74
14.45
15.27
16.16
17.08
17.93
18.64
19.15
19.43
19.47
19.32
19.01
18.57
18.0
17.3
16.45
15.5
14.47
13.39
12.3
11.22
10.18
9.16
8.16
7.11
5.89
4.45
2.76
0.9
-1.0
-2.82
-4.5
-6.11
-7.8
-9.71
-11.9
-14.29
-16.71
-18.96
-20.9
-22.56
-24.15
-25.95
-28.28
-31.31
-34.99
-39.02
-42.82
-45.67
-46.93
-46.17
-43.35
-38.81
-33.11
-26.92
-20.81
-15.17
-10.24
-6.05
-2.54
0.45
3.09
5.52
7.78
9.81
11.5
12.73
13.48
13.84
13.98
14.07
14.26
14.63
15.22
16.05
17.06
18.15
19.15
19.86
20.13
19.86
19.09
17.95
16.6
15.13
13.57
11.88
10.07
8.2
6.4
4.76
3.29
1.87
0.33
-1.47
-3.57
-5.85
-8.12
-10.2
-11.98
-13.5
-14.88
-16.32
-17.98
-20.03
-22.58
-25.66
-29.18
-32.85
-36.16
-38.49
-39.23
-38.0
-34.78
-29.95
-24.15
-18.08
-12.28
-7.07
-2.54
1.34
4.65
7.49
9.92
11.99
13.7
15.06
16.09
16.83
17.35
17.73
18.0
18.16
18.25
18.29
18.39
18.62
19.0
19.48
19.9
20.13
20.05
19.63
18.87
17.77
16.35
14.67
12.82
10.91
9.04
7.22
5.34
3.24
0.8
-1.98
-4.91
-7.7
-10.14
-12.16
-13.96
-15.84
-18.15
-21.09
-24.71
-28.88
-33.29
-37.48
-40.87
-42.84
-42.9
-40.8
-36.71
-31.14
-24.77
-18.28
-12.13
-6.55
-1.61
2.71
6.45
9.71
12.57
15.16
17.5
19.54
21.17
22.27
22.87
23.12
23.27
23.57
24.13
24.94
25.84
26.69
27.38
27.87
28.12
28.05
27.6
26.72
25.45
23.93
22.3
20.68
19.08
17.44
15.72
13.91
12.06
10.22
8.45
6.74
5.03
3.25
1.34
-0.75
-3.05
-5.57
-8.25
-11.02
-13.76
-16.37
-18.84
-21.28
-23.92
-27.03
-30.78
-35.11
-39.69
-43.86
-46.85
-47.93
-46.66
-43.01
-37.4
-30.5
-23.06
-15.75
-8.96
-2.91
2.36
6.89
10.79
14.17
17.16
19.84
22.21
24.23
25.84
27.06
27.95
28.64
29.19
29.64
29.98
30.2
30.4
30.66
31.05
31.48
31.77
31.68
31.11
30.09
28.8
27.43
26.07
24.67
23.14
21.46
19.73
18.11
16.7
15.48
14.25
12.79
11.0
8.95
6.87
5.02
3.48
2.16
0.82
-0.76
-2.7
-4.92
-7.26
-9.52
-11.6
-13.52
-15.44
-17.59
-20.21
-23.43
-27.19
-31.24
-35.12
-38.25
-40.09
-40.21
-38.43
-34.83
-29.73
-23.65
-17.21
-10.98
-5.4
-0.71
3.09
6.17
8.75
11.04
13.14
15.02
16.64
17.91
18.82
19.42
19.79
20.06
20.3
20.54
20.78
20.97
21.08
21.08
20.92
20.6
20.1
19.41
18.54
17.51
16.36
15.14
13.89
12.65
11.43
10.21
8.94
7.54
5.96
4.18
2.25
0.26
-1.71
-3.61
-5.45
-7.26
-9.13
-11.13
-13.37
-15.91
-18.76
-21.79
-24.7
-27.1
-28.56
-28.75
-27.52
-24.94
-21.25
-16.79
-11.94
-7.13
-2.69
1.13
4.24
6.73
8.77
10.57
12.23
13.77
15.17
16.35
17.31
18.04
18.53
18.77
18.74
18.45
17.98
17.48
17.09
16.9
16.87
16.85
16.64
16.11
15.22
14.08
12.87
11.77
10.88
10.18
9.53
8.78
7.83
6.64
5.29
3.95
2.77
1.87
1.23
0.71
0.08
-0.83
-2.15
-3.85
-5.83
-7.93
-10.05
-12.13
-14.19
-16.25
-18.38
-20.64
-23.1
-25.82
-28.66
-31.32
-33.3
-34.05
-33.14
-30.48
-26.37
-21.36
-16.14
-11.29
-7.12
-3.7
-0.89
1.52
3.69
5.75
7.74
9.66
11.45
13.03
14.29
15.18
15.69
15.87
15.85
15.78
15.79
15.92
16.15
16.39
16.46
16.24
15.62
14.63
13.38
12.08
10.95
10.1
9.56
9.19
8.8
8.23
7.36
6.21
4.87
3.49
2.17
0.99
-0.02
-0.92
-1.76
-2.64
-3.66
-4.91
-6.43
-8.15
-9.94
-11.62
-13.05
-14.22
-15.24
-16.36
-17.81
-19.76
-22.19
-24.91
-27.55
-29.62
-30.7
-30.49
-28.91
-26.11
-22.44
-18.33
-14.19
-10.39
-7.12
-4.44
-2.29
-0.56
0.91
2.23
3.5
4.73
5.93
7.03
7.98
8.69
9.1
9.21
9.09
8.91
8.86
9.07
9.51
10.03
10.4
10.45
10.17
9.69
9.21
8.87
8.63
8.36
7.87
7.07
6.0
4.81
3.64
2.58
1.62
0.65
-0.43
-1.67
-3.04
-4.52
-6.05
-7.62
-9.23
-10.92
-12.71
-14.64
-16.75
-19.05
-21.5
-23.99
-26.29
-28.1
-29.09
-28.98
-27.64
-25.13
-21.69
-17.7
-13.58
-9.69
-6.26
-3.37
-0.94
1.18
3.11
4.92
6.59
7.98
9.03
9.68
10.03
10.21
10.34
10.48
10.63
10.78
10.94
11.16
11.47
11.88
12.32
12.64
12.66
12.24
11.34
10.03
8.44
6.73
5.06
3.56
2.3
1.29
0.45
-0.38
-1.4
-2.78
-4.59
-6.76
-9.14
-11.54
-13.8
-15.89
-17.92
-20.05
-22.47
-25.34
-28.69
-32.5
-36.58
-40.65
-44.26
-46.95
-48.33
-48.21
-46.62
-43.87
-40.34
-36.43
-32.37
-28.27
-24.1
-19.85
-15.54
-11.24
-7.08
-3.11
0.63
4.17
7.4
10.18
12.32
13.64
14.12
13.92
13.33
12.74
12.45
12.63
13.28
14.25
15.4
16.63
17.92
19.33
20.98
22.9
25.11
27.53
29.97
32.18
33.85
34.71
34.73
34.22
33.77
34.14
35.9
39.25
43.92
49.29
54.67
59.49
63.4
66.17
67.52
67.08
64.44
59.37
51.97
42.72
32.31
21.43
10.53
-0.13
-10.38
-19.94
-28.27
-34.76
-39.01
-41.07
-41.55
-41.38
-41.42
-42.08
-43.18
-44.01
-43.68
-41.42
-36.91
-30.24
-21.93
-12.65
-3.09
6.13
14.62
22.1
28.32
33.11
36.26
37.67
37.42
35.78
33.16
29.96
26.45
22.77
18.95
15.05
11.27
7.83
4.91
2.54
0.5
-1.61
-4.18
-7.45
-11.37
-15.73
-20.19
-24.43
-28.31
-31.78
-34.92
-37.82
-40.61
-43.45
-46.49
-49.88
-53.55
-57.23
-60.37
-62.33
-62.55
-60.82
-57.28
-52.44
-46.87
-41.14
-35.61
-30.44
-25.68
-21.31
-17.26
-13.52
-10.06
-6.89
-4.06
-1.63
0.39
2.06
3.44
4.65
5.77
6.89
8.02
9.21
10.44
11.68
12.81
13.7
14.22
14.32
14.03
13.47
12.74
11.93
11.1
10.26
9.38
8.45
7.41
6.19
4.74
3.09
1.31
-0.47
-2.18
-3.81
-5.49
-7.41
-9.67
-12.23
-14.81
-16.96
-18.21
-18.18
-16.75
-14.05
-10.43
-6.32
-2.17
1.7
5.05
7.83
10.1
12.02
13.72
15.31
16.79
18.09
19.11
19.8
20.14
20.21
20.05
19.74
19.34
18.96
18.67
18.57
18.68
18.96
19.27
19.44
19.3
18.72
17.68
16.24
14.57
12.83
11.21
9.84
8.73
7.84
7.0
6.05
4.82
3.22
1.32
-0.74
-2.74
-4.53
-6.0
-7.22
-8.36
-9.67
-11.36
-13.58
-16.28
-19.19
-21.88
-23.8
-24.49
-23.68
-21.4
-17.97
-13.88
-9.67
-5.77
-2.43
0.29
2.46
4.26
5.9
7.53
9.23
10.94
12.54
13.87
14.81
15.36
15.6
15.66
15.67
15.73
15.88
16.11
16.42
16.8
17.25
17.74
18.18
18.45
18.44
18.1
17.44
16.57
15.56
14.47
13.26
11.9
10.39
8.74
7.06
5.46
4.03
2.8
1.74
0.76
-0.23
-1.33
-2.56
-3.88
-5.21
-6.48
-7.69
-8.89
-10.23
-11.84
-13.79
-16.04
-18.46
-20.81
-22.85
-24.31
-24.98
-24.68
-23.33
-20.97
-17.77
-14.01
-10.07
-6.27
-2.91
-0.12
2.1
3.86
5.34
6.72
8.11
9.52
10.87
12.04
12.91
13.45
13.69
13.77
13.8
13.88
14.05
14.28
14.53
14.75
14.91
14.97
14.9
14.7
14.35
13.84
13.17
12.33
11.35
10.27
9.1
7.85
6.53
5.17
3.81
2.58
1.54
0.74
0.06
-0.66
-1.6
-2.86
-4.38
-6.01
-7.57
-8.94
-10.14
-11.27
-12.48
-13.89
-15.61
-17.62
-19.83
-22.03
-23.91
-25.12
-25.32
-24.32
-22.1
-18.88
-15.06
-11.13
-7.55
-4.68
-2.62
-1.27
-0.36
0.41
1.27
2.26
3.31
4.28
5.05
5.63
6.09
6.53
7.0
7.47
7.88
8.15
8.26
8.23
8.12
7.97
7.78
7.52
7.12
6.55
5.85
5.06
4.28
3.58
2.94
2.32
1.62
0.77
-0.26
-1.42
-2.64
-3.83
-4.92
-5.89
-6.77
-7.63
-8.55
-9.62
-10.88
-12.3
-13.77
-15.06
-15.87
-15.94
-15.1
-13.35
-10.87
-7.96
-4.95
-2.14
0.28
2.22
3.69
4.71
5.39
5.89
6.35
6.9
7.54
8.2
8.71
8.93
8.88
8.69
8.55
8.58
8.76
8.96
8.97
8.71
8.23
7.67
7.16
6.74
6.37
5.95
5.45
4.85
4.19
3.48
2.68
1.74
0.6
-0.69
-2.02
-3.25
-4.3
-5.11
-5.74
-6.31
-6.94
-7.75
-8.85
-10.36
-12.34
-14.77
-17.49
-20.13
-22.24
-23.35
-23.21
-21.81
-19.4
-16.37
-13.18
-10.14
-7.45
-5.13
-3.14
-1.4
0.15
1.54
2.74
3.77
4.65
5.43
6.2
7.0
7.86
8.73
9.55
10.26
10.85
11.33
11.74
12.07
12.3
12.37
12.25
11.93
11.45
10.88
10.27
9.64
8.95
8.09
6.99
5.65
4.15
2.65
1.27
0.07
-1.0
-2.05
-3.16
-4.32
-5.45
-6.48
-7.4
-8.29
-9.31
-10.6
-12.25
-14.26
-16.57
-19.03
-21.45
-23.56
-24.99
-25.43
-24.64
-22.61
-19.54
-15.81
-11.88
-8.17
-4.9
-2.19
0.05
1.99
3.84
5.75
7.77
9.81
11.66
13.1
13.96
14.23
13.99
13.48
12.92
12.5
12.34
12.45
12.78
13.21
13.59
13.76
13.61
13.13
12.39
11.53
10.66
9.86
9.1
8.33
7.51
6.64
5.8
5.02
4.37
3.82
3.35
2.94
2.57
2.24
1.92
1.58
1.14
0.54
-0.25
-1.22
-2.39
-3.77
-5.41
-7.32
-9.44
-11.58
-13.44
-14.67
-14.97
-14.17
-12.33
-9.67
-6.45
-2.98
0.48
3.75
6.63
9.02
10.91
12.38
13.54
14.47
15.14
15.47
15.36
14.83
14.04
13.22
12.57
12.18
11.96
11.75
11.4
10.89
10.31
9.78
9.36
9.02
8.65
8.11
7.31
6.26
5.03
3.7
2.35
0.98
-0.41
-1.84
-3.36
-5.08
-7.19
-9.93
-13.5
-17.89
-22.74
-27.39
-30.93
-32.54
-31.74
-28.59
-23.67
-17.89
-12.19
-7.3
-3.54
-0.88
1.04
2.64
4.28
6.11
8.09
10.05
11.8
13.2
14.16
14.7
14.83
14.52
13.75
12.58
11.12
9.58
8.18
7.1
6.42
6.07
5.97
6.01
6.14
6.35
6.6
6.84
7.01
7.05
6.97
6.82
6.67
6.57
6.52
6.47
6.36
6.19
5.99
5.79
5.6
5.34
4.96
4.39
3.69
2.98
2.41
2.08
1.97
1.95
1.87
1.55
0.93
0.02
-1.08
-2.28
-3.52
-4.73
-5.92
-7.03
-8.03
-8.91
-9.73
-10.59
-11.55
-12.56
-13.44
-13.96
-13.89
-13.18
-11.94
-10.36
-8.72
-7.18
-5.86
-4.77
-3.87
-3.07
-2.31
-1.56
-0.86
-0.29
0.08
0.2
0.13
0.0
-0.08
-0.05
0.07
0.17
0.18
0.06
-0.11
-0.2
-0.1
0.3
0.98
1.86
2.79
3.58
4.06
4.11
3.71
2.93
1.87
0.69
-0.47
-1.56
-2.53
-3.39
-4.11
-4.68
-5.09
-5.36
-5.57
-5.8
-6.11
-6.51
-6.92
-7.26
-7.48
-7.63
-7.77
-8.0
-8.34
-8.78
-9.27
-9.81
-10.35
-10.91
-11.43
-11.91
-12.35
-12.79
-13.32
-13.92
-14.54
-14.98
-15.03
-14.52
-13.39
-11.73
-9.73
-7.66
-5.74
-4.17
-3.04
-2.34
-1.93
-1.65
-1.34
-0.95
-0.49
-0.03
0.41
0.87
1.37
1.93
2.49
2.93
3.19
3.26
3.27
3.33
3.56
3.93
4.32
4.55
4.46
4.03
3.31
2.44
1.61
0.99
0.67
0.65
0.85
1.1
1.25
1.2
0.95
0.59
0.26
0.04
-0.1
-0.25
-0.55
-1.04
-1.68
-2.31
-2.82
-3.18
-3.48
-3.87
-4.45
-5.25
-6.16
-7.07
-7.87
-8.59
-9.28
-10.05
-10.99
-12.16
-13.55
-15.1
-16.65
-18.02
-18.96
-19.29
-18.89
-17.78
-16.08
-14.03
-11.91
-9.93
-8.23
-6.84
-5.67
-4.63
-3.64
-2.68
-1.8
-1.06
-0.51
-0.19
-0.07
-0.05
-0.07
-0.01
0.2
0.54
0.98
1.43
1.81
2.1
2.33
2.55
2.83
3.15
3.47
3.71
3.81
3.72
3.48
3.14
2.79
2.5
2.32
2.24
2.23
2.26
2.29
2.27
2.14
1.85
1.37
0.71
-0.08
-0.97
-1.95
-3.04
-4.26
-5.56
-6.85
-8.07
-9.17
-10.25
-11.46
-12.93
-14.75
-16.89
-19.25
-21.66
-23.85
-25.52
-26.33
-26.02
-24.51
-22.01
-18.96
-15.84
-13.04
-10.69
-8.68
-6.83
-5.01
-3.21
-1.51
-0.03
1.21
2.26
3.23
4.2
5.17
6.09
6.92
7.64
8.31
9.03
9.89
10.89
11.99
13.1
14.1
14.87
15.34
15.48
15.34
15.05
14.69
14.37
14.05
13.67
13.14
12.44
11.59
10.72
9.91
9.19
8.5
7.72
6.77
5.64
4.4
3.16
2.04
1.06
0.21
-0.63
-1.59
-2.79
-4.24
-5.87
-7.52
-9.05
-10.36
-11.43
-12.33
-13.21
-14.26
-15.66
-17.59
-20.09
-23.02
-26.06
-28.66
-30.26
-30.36
-28.69
-25.35
-20.69
-15.3
-9.87
-5.0
-1.11
1.67
3.47
4.58
5.38
6.2
7.21
8.46
9.88
11.4
12.95
14.52
16.06
17.5
18.71
19.57
20.06
20.29
20.43
20.69
21.2
21.98
22.99
24.14
25.34
26.52
27.59
28.42
28.86
28.76
28.08
26.84
25.18
23.27
21.31
19.45
17.76
16.25
14.84
13.38
11.76
9.96
8.04
6.12
4.28
2.56
0.92
-0.68
-2.27
-3.88
-5.5
-7.18
-8.99
-10.96
-13.07
-15.25
-17.46
-19.74
-22.29
-25.39
-29.19
-33.53
-37.93
-41.6
-43.77
-43.88
-41.8
-37.87
-32.76
-27.25
-21.99
-17.37
-13.47
-10.16
-7.22
-4.46
-1.77
0.84
3.32
5.6
7.64
9.45
11.07
12.54
13.92
15.22
16.47
17.66
18.8
19.89
20.96
22.03
23.03
23.87
24.43
24.62
24.46
24.09
23.66
23.32
23.05
22.73
22.14
21.13
19.66
17.86
15.92
14.04
12.3
10.63
8.94
7.12
5.11
2.94
0.58
-1.97
-4.77
-7.81
-10.99
-14.13
-17.01
-19.53
-21.77
-23.99
-26.57
-29.84
-33.92
-38.64
-43.5
-47.74
-50.56
-51.23
-49.38
-45.04
-38.67
-31.03
-22.99
-15.28
-8.37
-2.45
2.57
6.86
10.61
13.96
16.98
19.68
22.04
24.04
25.67
26.94
27.87
28.53
29.03
29.47
29.95
30.53
31.19
31.87
32.47
32.91
33.11
33.05
32.8
32.42
32.0
31.61
31.22
30.75
30.06
29.04
27.65
25.93
23.99
21.97
19.98
18.08
16.24
14.38
12.38
10.14
7.66
4.99
2.21
-0.55
-3.26
-5.9
-8.5
-11.09
-13.65
-16.19
-18.69
-21.17
-23.73
-26.51
-29.68
-33.4
-37.77
-42.66
-47.73
-52.37
-55.76
-57.09
-55.81
-51.78
-45.33
-37.2
-28.3
-19.47
-11.4
-4.46
1.24
5.83
9.59
12.82
15.76
18.57
21.25
23.71
25.83
27.51
28.74
29.61
30.24
30.79
31.42
32.23
33.28
34.5
35.74
36.8
37.5
37.74
37.54
36.97
36.13
35.12
33.99
32.79
31.54
30.27
28.95
27.51
25.87
23.99
21.91
19.73
17.56
15.52
13.63
11.86
10.19
8.57
6.99
5.44
3.87
2.19
0.28
-2.0
-4.73
-7.86
-11.24
-14.68
-17.98
-21.08
-24.1
-27.32
-31.04
-35.47
-40.54
-45.82
-50.58
-53.89
-54.89
-53.03
-48.3
-41.19
-32.61
-23.62
-15.21
-7.99
-2.22
2.22
5.69
8.59
11.29
13.98
16.7
19.34
21.77
23.83
25.46
26.68
27.59
28.33
29.05
29.82
30.67
31.51
32.25
32.72
32.77
32.32
31.37
30.02
28.44
26.79
25.16
23.56
21.91
20.15
18.23
16.17
14.02
11.85
9.66
7.44
5.19
2.98
0.89
-0.99
-2.65
-4.23
-5.94
-7.98
-10.39
-13.06
-15.74
-18.17
-20.21
-21.97
-23.73
-25.94
-28.97
-33.03
-38.01
-43.45
-48.64
-52.66
-54.68
-54.11
-50.8
-45.09
-37.7
-29.53
-21.46
-14.1
-7.78
-2.56
1.7
5.21
8.19
10.81
13.17
15.27
17.09
18.54
19.57
20.21
20.6
20.92
21.32
21.85
22.44
22.95
23.26
23.34
23.21
22.9
22.36
21.47
20.12
18.28
16.02
13.59
11.18
8.93
6.83
4.73
2.4
-0.36
-3.65
-7.46
-11.59
-15.72
-19.47
-22.47
-24.54
-25.68
-26.13
-26.32
-26.77
-27.96
-30.28
-33.79
-38.22
-42.9
-46.91
-49.29
-49.33
-46.74
-41.73
-34.92
-27.07
-18.94
-11.12
-4.0
2.23
7.52
11.95
15.66
18.82
21.56
23.88
25.71
26.86
27.24
26.88
25.99
24.96
24.14
23.79
23.93
24.39
24.88
25.15
25.05
24.6
23.88
23.02
22.05
20.95
19.66
18.14
16.39
14.45
12.37
10.2
7.95
5.64
3.31
0.99
-1.3
-3.6
-5.96
-8.47
-11.14
-13.89
-16.56
-18.99
-21.13
-23.1
-25.19
-27.72
-30.82
-34.27
-37.53
-39.8
-40.31
-38.53
-34.34
-28.06
-20.32
-11.86
-3.45
4.39
11.34
17.4
22.75
27.64
32.28
36.72
40.9
44.62
47.7
49.98
51.42
52.01
51.88
51.26
50.5
49.95
49.84
50.19
50.73
51.01
50.55
49.14
46.86
44.11
41.35
38.9
36.75
34.59
31.96
28.48
24.0
18.66
12.86
7.08
1.73
-2.92
-6.79
-9.93
-12.52
-14.8
-17.08
-19.67
-22.74
-26.34
-30.31
-34.4
-38.37
-42.15
-45.78
-49.44
-53.2
-56.87
-59.95
-61.74
-61.59
-59.02
-54.01
-46.91
-38.42
-29.34
-20.43
-12.23
-5.02
1.18
6.53
11.25
15.53
19.48
23.09
26.28
28.96
31.1
32.71
33.89
34.8
35.61
36.41
37.2
37.86
38.19
37.96
37.02
35.26
32.73
29.59
26.1
22.5
19.0
15.68
12.55
9.52
6.45
3.25
-0.16
-3.78
-7.61
-11.64
-15.84
-20.17
-24.48
-28.5
-31.85
-34.15
-35.2
-35.12
-34.33
-33.45
-33.08
-33.6
-35.07
-37.25
-39.65
-41.73
-42.9
-42.69
-40.78
-37.12
-31.9
-25.57
-18.67
-11.75
-5.27
0.44
5.18
8.93
11.78
13.98
15.77
17.32
18.65
19.67
20.26
20.43
20.32
20.18
20.25
20.59
21.14
21.74
22.29
22.79
23.3
23.86
24.36
24.58
24.22
23.11
21.29
19.03
16.66
14.49
12.62
11.02
9.5
7.92
6.15
4.19
2.07
-0.14
-2.32
-4.39
-6.29
-8.0
-9.63
-11.31
-13.2
-15.42
-18.02
-21.02
-24.37
-27.94
-31.46
-34.5
-36.56
-37.14
-35.98
-33.13
-28.94
-23.93
-18.67
-13.58
-8.96
-4.93
-1.5
1.41
3.92
6.17
8.25
10.18
11.92
13.37
14.44
15.11
15.4
15.36
15.13
14.87
14.75
14.91
15.34
15.91
16.4
16.55
16.15
15.17
13.69
11.91
10.1
8.49
7.25
6.46
6.04
5.84
5.7
5.54
5.34
5.16
5.02
4.89
4.68
4.29
3.63
2.62
1.21
-0.67
-3.06
-5.89
-8.96
-12.03
-14.89
-17.42
-19.68
-21.81
-23.9
-25.95
-27.88
-29.52
-30.76
-31.5
-31.67
-31.17
-29.87
-27.66
-24.52
-20.56
-16.04
-11.32
-6.76
-2.62
1.08
4.49
7.89
11.54
15.53
19.69
23.67
27.06
29.6
31.28
32.29
32.89
33.29
33.53
33.56
33.32
32.8
32.08
31.23
30.34
29.36
28.2
26.75
24.98
22.94
20.77
18.6
16.52
14.53
12.61
10.71
8.86
7.12
5.6
4.36
3.42
2.71
2.21
1.86
1.62
1.41
1.07
0.41
-0.72
-2.44
-4.69
-7.3
-9.93
-12.21
-13.87
-14.83
-15.25
-15.52
-16.12
-17.41
-19.47
-22.12
-24.87
-27.17
-28.49
-28.53
-27.16
-24.51
-20.86
-16.56
-12.04
-7.67
-3.72
-0.35
2.4
4.68
6.7
8.69
10.77
12.93
14.97
16.6
17.55
17.69
17.05
15.79
14.16
12.34
10.44
8.47
6.38
4.09
1.54
-1.21
-4.04
-6.72
-9.05
-10.87
-12.18
-13.09
-13.76
-14.31
-14.7
-14.75
-14.25
-13.02
-11.04
-8.47
-5.61
-2.76
-0.21
1.88
3.46
4.62
5.45
6.05
6.43
6.51
6.15
5.19
3.6
1.41
-1.2
-3.98
-6.72
-9.26
-11.55
-13.7
-15.86
-18.23
-20.94
-23.93
-26.92
-29.45
-31.04
-31.34
-30.26
-28.0
-24.96
-21.57
-18.21
-15.12
-12.38
-10.03
-8.03
-6.36
-5.01
-3.92
-3.05
-2.32
-1.66
-1.02
-0.44
0.0
0.22
0.15
-0.13
-0.46
-0.61
-0.46
0.01
0.68
1.36
1.89
2.23
2.4
2.48
2.58
2.69
2.78
2.74
2.45
1.81
0.81
-0.47
-1.88
-3.29
-4.57
-5.67
-6.63
-7.49
-8.26
-9.0
-9.71
-10.47
-11.38
-12.49
-13.87
-15.5
-17.34
-19.35
-21.54
-23.88
-26.27
-28.53
-30.33
-31.36
-31.36
-30.19
-27.93
-24.76
-20.97
-16.88
-12.77
-8.87
-5.32
-2.15
0.67
3.24
5.55
7.62
9.36
10.69
11.58
12.06
12.27
12.36
12.51
12.82
13.34
14.05
14.84
15.59
16.2
16.58
16.71
16.62
16.33
15.87
15.24
14.47
13.57
12.63
11.71
10.85
10.07
9.29
8.37
7.15
5.46
3.26
0.6
-2.3
-5.12
-7.54
-9.35
-10.52
-11.2
-11.67
-12.23
-13.13
-14.5
-16.41
-18.86
-21.8
-25.13
-28.76
-32.57
-36.5
-40.53
-44.7
-49.0
-53.27
-57.21
-60.31
-62.01
-61.88
-59.74
-55.72
-50.17
-43.6
-36.55
-29.5
-22.85
-16.93
-11.88
-7.66
-3.98
-0.39
3.52
7.91
12.62
17.22
21.22
24.26
26.23
27.25
27.56
27.4
26.94
26.32
25.62
24.85
23.97
22.87
21.39
19.44
17.06
14.41
11.74
9.28
7.17
5.42
4.0
2.76
1.59
0.4
-0.88
-2.28
-3.8
-5.43
-7.12
-8.85
-10.65
-12.6
-14.76
-17.18
-19.78
-22.39
-24.72
-26.54
-27.7
-28.17
-28.02
-27.36
-26.37
-25.23
-24.18
-23.45
-23.13
-23.07
-22.83
-21.81
-19.44
-15.46
-10.05
-3.78
2.61
8.46
13.31
17.01
19.65
21.45
22.67
23.55
24.27
24.87
25.33
25.6
25.61
25.38
24.99
24.48
23.87
23.13
22.22
21.16
19.98
18.76
17.52
16.26
14.96
13.61
12.29
11.02
9.81
8.57
7.21
5.72
4.21
2.88
1.84
1.02
0.17
-1.1
-3.09
-5.9
-9.37
-13.17
-16.93
-20.31
-23.15
-25.42
-27.22
-28.71
-30.13
-31.68
-33.51
-35.64
-37.92
-40.15
-42.03
-43.3
-43.74
-43.11
-41.22
-37.89
-33.12
-27.1
-20.31
-13.36
-6.88
-1.22
3.59
7.81
11.84
16.01
20.41
24.94
29.39
33.57
37.3
40.44
42.86
44.4
44.99
44.71
43.79
42.55
41.28
40.14
39.12
38.11
36.99
35.7
34.29
32.81
31.37
30.05
28.93
28.02
27.33
26.81
26.39
25.94
25.39
24.63
23.64
22.38
20.78
18.82
16.47
13.82
10.99
8.19
5.5
2.89
0.17
-2.85
-6.25
-9.83
-13.05
-15.26
-15.82
-14.45
-11.22
-6.57
-1.11
4.64
10.3
15.71
20.79
25.45
29.46
32.53
34.35
34.77
33.87
31.85
28.89
25.11
20.54
15.29
9.63
4.08
-0.78
-4.46
-6.78
-7.89
-8.16
-8.04
-7.82
-7.71
-7.8
-8.14
-8.74
-9.53
-10.4
-11.17
-11.74
-12.11
-12.37
-12.69
-13.19
-13.87
-14.65
-15.4
-16.05
-16.6
-17.17
-17.92
-19.05
-20.74
-23.12
-26.15
-29.61
-33.06
-35.86
-37.38
-37.18
-35.17
-31.58
-26.94
-21.8
-16.61
-11.66
-7.02
-2.67
1.45
5.36
8.97
12.15
14.75
16.72
18.1
19.09
19.84
20.45
20.89
21.02
20.71
20.01
19.12
18.35
18.0
18.16
18.72
19.38
19.85
19.93
19.59
18.94
18.17
17.42
16.69
15.84
14.64
12.85
10.34
7.18
3.59
-0.1
-3.52
-6.48
-8.93
-11.0
-12.93
-14.97
-17.36
-20.23
-23.54
-27.09
-30.48
-33.14
-34.48
-34.04
-31.66
-27.55
-22.21
-16.35
-10.65
-5.59
-1.37
2.09
5.06
7.85
10.65
13.41
15.94
17.99
19.44
20.34
20.9
21.32
21.69
21.95
21.97
21.67
21.08
20.3
19.4
18.39
17.23
15.87
14.37
12.83
11.3
9.79
8.14
6.24
4.01
1.54
-0.96
-3.29
-5.39
-7.37
-9.45
-11.89
-14.86
-18.39
-22.32
-26.37
-30.13
-33.11
-34.77
-34.67
-32.59
-28.58
-23.06
-16.65
-10.05
-3.8
1.76
6.57
10.74
14.41
17.71
20.65
23.2
25.31
26.95
28.14
28.9
29.3
29.39
29.29
29.05
28.78
28.53
28.28
27.99
27.57
26.95
26.11
25.07
23.85
22.49
21.03
19.48
17.9
16.33
14.84
13.41
11.93
10.27
8.3
6.0
3.48
0.92
-1.5
-3.66
-5.57
-7.31
-9.07
-10.99
-13.23
-15.89
-19.0
-22.55
-26.36
-30.15
-33.47
-35.81
-36.72
-35.92
-33.4
-29.41
-24.37
-18.79
-13.11
-7.7
-2.75
1.62
5.4
8.66
11.48
13.95
16.15
18.08
19.74
21.1
22.14
22.87
23.28
23.39
23.28
23.03
22.77
22.61
22.6
22.72
22.83
22.81
22.52
21.95
21.17
20.32
19.52
18.82
18.16
17.42
16.5
15.37
14.08
12.77
11.54
10.46
9.53
8.72
8.0
7.34
6.7
6.0
5.17
4.17
3.02
1.81
0.62
-0.5
-1.61
-2.81
-4.19
-5.77
-7.48
-9.21
-10.86
-12.39
-13.85
-15.35
-17.05
-19.09
-21.6
-24.57
-27.87
-31.2
-34.08
-35.99
-36.48
-35.35
-32.68
-28.88
-24.49
-20.06
-16.02
-12.55
-9.67
-7.25
-5.13
-3.18
-1.3
0.54
2.35
4.11
5.75
7.23
8.47
9.42
10.04
10.34
10.38
10.3
10.25
10.4
10.8
11.44
12.21
12.97
13.57
13.98
14.17
14.14
13.87
13.31
12.43
11.26
9.89
8.45
7.07
5.8
4.65
3.56
2.5
1.42
0.38
-0.58
-1.45
-2.22
-2.97
-3.74
-4.59
-5.52
-6.51
-7.58
-8.75
-10.05
-11.52
-13.2
-15.15
-17.44
-20.12
-23.15
-26.33
-29.32
-31.64
-32.83
-32.61
-30.91
-27.94
-24.09
-19.8
-15.5
-11.51
-8.06
-5.23
-2.97
-1.12
0.59
2.44
4.56
6.88
9.14
10.97
12.1
12.45
12.17
11.59
11.03
10.68
10.62
10.78
11.01
11.16
11.11
10.78
10.14
9.23
8.14
6.99
5.88
4.83
3.8
2.72
1.52
0.15
-1.33
-2.86
-4.36
-5.78
-7.14
-8.42
-9.66
-10.82
-11.9
-12.91
-13.91
-15.0
-16.23
-17.61
-19.08
-20.55
-21.95
-23.24
-24.38
-25.27
-25.68
-25.38
-24.15
-22.01
-19.13
-15.87
-12.58
-9.49
-6.68
-4.14
-1.84
0.22
1.95
3.29
4.24
4.87
5.31
5.7
6.12
6.61
7.16
7.74
8.27
8.67
8.87
8.87
8.67
8.34
7.95
7.53
7.11
6.68
6.22
5.74
5.25
4.78
4.37
4.05
3.79
3.51
3.07
2.36
1.34
0.1
-1.17
-2.29
-3.18
-3.91
-4.64
-5.57
-6.81
-8.34
-10.03
-11.77
-13.47
-15.14
-16.83
-18.56
-20.34
-22.14
-23.96
-25.8
-27.7
-29.64
-31.54
-33.18
-34.27
-34.5
-33.61
-31.51
-28.31
-24.37
-20.14
-16.06
-12.46
-9.41
-6.85
-4.62
-2.6
-0.73
0.97
2.47
3.74
4.75
5.49
5.95
6.14
6.18
6.26
6.58
7.26
8.3
9.55
10.81
11.92
12.81
13.44
13.79
13.84
13.51
12.84
11.93
10.97
10.12
9.45
8.85
8.15
7.14
5.77
4.11
2.38
0.78
-0.53
-1.49
-2.16
-2.64
-3.04
-3.47
-4.04
-4.83
-5.92
-7.34
-9.05
-10.96
-12.94
-14.85
-16.69
-18.52
-20.56
-23.0
-25.98
-29.42
-32.98
-36.17
-38.39
-39.2
-38.39
-36.06
-32.56
-28.35
-23.87
-19.48
-15.38
-11.65
-8.27
-5.2
-2.39
0.2
2.52
4.55
6.21
7.48
8.41
9.08
9.64
10.2
10.89
11.75
12.76
13.92
15.15
16.39
17.56
18.61
19.48
20.18
20.67
20.95
20.98
20.78
20.39
19.89
19.35
18.76
18.07
17.11
15.79
14.13
12.24
10.28
8.37
6.52
4.65
2.7
0.64
-1.43
-3.4
-5.19
-6.81
-8.39
-10.09
-12.06
-14.38
-17.08
-20.14
-23.41
-26.67
-29.48
-31.32
-31.74
-30.46
-27.53
-23.37
-18.54
-13.64
-9.06
-4.99
-1.45
1.62
4.28
6.59
8.61
10.41
12.04
13.51
14.78
15.84
16.73
17.58
18.56
19.75
21.12
22.48
23.6
24.32
24.65
24.71
24.64
24.5
24.25
23.76
22.95
21.82
20.45
18.93
17.32
15.63
13.86
12.09
10.45
9.0
7.77
6.61
5.34
3.79
1.92
-0.2
-2.38
-4.49
-6.51
-8.55
-10.75
-13.26
-16.17
-19.42
-22.79
-25.91
-28.31
-29.5
-29.13
-27.05
-23.47
-18.8
-13.59
-8.32
-3.36
1.12
5.08
8.54
11.56
14.24
16.64
18.77
20.6
22.04
23.06
23.67
23.99
24.15
24.27
24.4
24.54
24.65
24.72
24.76
24.75
24.63
24.32
23.71
22.81
21.66
20.39
19.14
17.94
16.8
15.64
14.41
13.09
11.74
10.42
9.21
8.13
7.15
6.17
5.17
4.12
3.05
1.96
0.78
-0.6
-2.29
-4.29
-6.47
-8.58
-10.4
-11.9
-13.2
-14.57
-16.3
-18.52
-21.21
-24.15
-27.01
-29.46
-31.12
-31.69
-30.91
-28.7
-25.15
-20.62
-15.59
-10.6
-6.09
-2.26
0.87
3.46
5.73
7.86
9.96
12.01
13.92
15.57
16.85
17.7
18.14
18.27
18.25
18.25
18.38
18.73
19.29
20.04
20.83
21.55
22.05
22.25
22.16
21.84
21.42
20.97
20.51
20.02
19.47
18.83
18.09
17.24
16.26
15.12
13.79
12.28
10.62
8.9
7.21
5.6
4.1
2.68
1.28
-0.14
-1.61
-3.13
-4.68
-6.21
-7.73
-9.24
-10.77
-12.34
-13.94
-15.54
-17.14
-18.75
-20.43
-22.26
-24.3
-26.54
-28.87
-31.0
-32.55
-33.08
-32.24
-29.91
-26.24
-21.71
-16.92
-12.48
-8.79
-5.96
-3.83
-2.11
-0.51
1.14
2.85
4.55
6.15
7.61
8.91
10.02
10.91
11.48
11.67
11.54
11.23
10.95
10.88
11.09
11.49
11.91
12.15
12.1
11.77
11.25
10.66
10.09
9.56
9.0
8.33
7.49
6.48
5.37
4.27
3.24
2.25
1.22
0.01
-1.45
-3.16
-4.97
-6.71
-8.25
-9.53
-10.66
-11.78
-13.04
-14.57
-16.44
-18.63
-21.03
-23.38
-25.28
-26.28
-26.01
-24.32
-21.39
-17.67
-13.76
-10.14
-7.1
-4.69
-2.78
-1.24
-0.01
0.98
1.76
2.45
3.16
3.96
4.79
5.5
5.91
5.96
5.75
5.53
5.58
6.12
7.13
8.45
9.74
10.69
11.15
11.13
10.81
10.44
10.18
10.11
10.17
10.26
10.31
10.24
10.04
9.66
9.05
8.22
7.18
6.0
4.74
3.44
2.03
0.42
-1.43
-3.52
-5.77
-8.03
-10.17
-12.08
-13.71
-15.11
-16.43
-17.87
-19.66
-21.98
-24.84
-28.04
-31.18
-33.8
-35.42
-35.75
-34.67
-32.33
-29.03
-25.18
-21.15
-17.27
-13.74
-10.63
-7.87
-5.35
-2.92
-0.49
1.95
4.3
6.37
8.0
9.11
9.78
10.2
10.6
11.11
11.7
12.24
12.59
12.7
12.62
12.47
12.38
12.34
12.3
12.12
11.73
11.13
10.38
9.61
8.93
8.4
8.02
7.73
7.44
7.09
6.67
6.21
5.75
5.29
4.81
4.21
3.43
2.48
1.42
0.33
-0.75
-1.87
-3.13
-4.61
-6.34
-8.22
-10.16
-12.12
-14.13
-16.31
-18.82
-21.71
-24.94
-28.42
-31.96
-35.32
-38.22
-40.28
-41.14
-40.51
-38.38
-35.02
-30.89
-26.5
-22.24
-18.35
-14.8
-11.52
-8.38
-5.26
-2.09
1.16
4.44
7.58
10.36
12.54
14.0
14.79
15.12
15.28
15.54
16.05
16.81
17.73
18.67
19.47
20.0
20.19
20.01
19.46
18.62
17.63
16.57
15.5
14.39
13.14
11.65
9.89
7.95
5.98
4.19
2.65
1.38
0.25
-0.9
-2.22
-3.78
-5.58
-7.52
-9.49
-11.44
-13.35
-15.31
-17.45
-19.89
-22.68
-25.72
-28.69
-31.13
-32.52
-32.4
-30.55
-27.09
-22.4
-17.07
-11.69
-6.69
-2.32
1.45
4.76
7.75
10.51
13.04
15.27
17.15
18.69
19.92
20.89
21.69
22.4
23.1
23.89
24.76
25.62
26.33
26.71
26.68
26.25
25.54
24.72
23.88
23.03
22.11
21.05
19.79
18.34
16.77
15.14
13.51
11.93
10.41
8.93
7.42
5.79
4.0
2.04
-0.05
-2.17
-4.27
-6.3
-8.3
-10.38
-12.69
-15.38
-18.52
-22.04
-25.67
-28.96
-31.37
-32.38
-31.65
-29.14
-25.11
-20.05
-14.53
-9.06
-3.98
0.54
4.49
7.92
10.95
13.68
16.2
18.55
20.73
22.67
24.26
25.36
25.96
26.13
26.07
26.02
26.15
26.53
27.09
27.69
28.15
28.34
28.19
27.71
26.95
25.99
24.93
23.83
22.78
21.8
20.87
19.9
18.76
17.33
15.59
13.62
11.6
9.74
8.16
6.85
5.69
4.49
3.1
1.48
-0.35
-2.28
-4.27
-6.25
-8.15
-9.92
-11.55
-13.12
-14.8
-16.82
-19.38
-22.54
-26.11
-29.68
-32.65
-34.4
-34.46
-32.68
-29.27
-24.73
-19.72
-14.81
-10.35
-6.41
-2.92
0.28
3.23
5.9
8.23
10.23
11.98
13.58
15.05
16.36
17.36
17.99
18.24
18.27
18.26
18.39
18.73
19.24
19.75
20.11
20.17
19.88
19.27
18.43
17.5
16.58
15.77
15.1
14.55
14.08
13.61
13.08
12.43
11.67
10.8
9.87
8.9
7.91
6.92
5.91
4.83
3.65
2.36
0.99
-0.4
-1.77
-3.09
-4.44
-5.9
-7.57
-9.43
-11.36
-13.17
-14.71
-15.99
-17.18
-18.6
-20.5
-23.0
-25.97
-29.03
-31.65
-33.31
-33.64
-32.49
-29.97
-26.42
-22.29
-18.03
-14.01
-10.47
-7.48
-5.0
-2.91
-1.09
0.58
2.18
3.7
5.13
6.39
7.45
8.28
8.91
9.41
9.83
10.22
10.6
10.99
11.4
11.85
12.34
12.81
13.17
13.29
13.07
12.51
11.7
10.75
9.81
8.94
8.1
7.23
6.26
5.21
4.13
3.09
2.15
1.25
0.31
-0.79
-2.14
-3.78
-5.63
-7.58
-9.49
-11.24
-12.81
-14.24
-15.62
-17.08
-18.72
-20.58
-22.58
-24.49
-25.97
-26.66
-26.31
-24.81
-22.3
-19.07
-15.5
-11.93
-8.55
-5.45
-2.61
-0.02
2.33
4.42
6.23
7.76
9.0
9.94
10.55
10.85
10.83
10.59
10.23
9.89
9.69
9.67
9.86
10.23
10.67
11.09
11.33
11.27
10.87
10.15
9.22
8.21
7.2
6.23
5.28
4.34
3.41
2.51
1.61
0.71
-0.25
-1.27
-2.32
-3.33
-4.27
-5.13
-6.0
-6.98
-8.16
-9.51
-10.95
-12.37
-13.69
-14.94
-16.25
-17.83
-19.84
-22.41
-25.5
-28.89
-32.23
-35.09
-37.01
-37.68
-36.97
-35.04
-32.27
-29.17
-26.23
-23.77
-21.86
-20.41
-19.2
-18.11
-17.05
-16.06
-15.22
-14.6
-14.23
-14.15
-14.45
-15.2
-16.43
-18.05
-19.81
-21.45
-22.71
-23.52
-23.94
-24.17
-24.4
-24.76
-25.12
-25.2
-24.59
-22.88
-19.95
-16.02
-11.7
-7.64
-4.22
-1.31
1.66
5.29
9.76
14.5
18.32
19.87
18.16
12.83
4.21
-6.99
-19.8
-32.99
-45.03
-54.23
-59.32
-60.06
-57.53
-53.73
-50.57
-48.9
-48.13
-46.77
-43.47
-38.03
-31.7
-26.53
-24.21
-25.22
-28.58
-32.42
-34.93
-35.16
-33.29
-30.28
-27.3
-25.06
-23.64
-22.45
-20.71
-17.85
-13.83
-9.06
-4.18
0.42
4.79
9.41
14.92
21.69
29.6
38.07
46.39
54.07
61.08
67.7
74.33
81.13
87.91
94.22
99.53
103.53
106.12
107.33
107.21
105.71
102.72
98.19
92.15
84.78
76.31
66.97
56.93
46.37
35.56
24.93
15.09
6.72
0.39
-3.65
-5.62
-6.17
-6.22
-6.67
-8.28
-11.48
-16.39
-22.79
-30.14
-37.6
-44.13
-48.57
-49.97
-47.85
-42.34
-34.22
-24.67
-15.0
-6.24
1.03
6.8
11.46
15.51
19.34
23.05
26.46
29.35
31.57
33.24
34.64
36.14
37.94
40.06
42.3
44.4
46.19
47.65
48.91
50.03
51.01
51.67
51.79
51.11
49.56
47.18
44.12
40.63
36.93
33.23
29.71
26.48
23.59
20.95
18.41
15.81
13.01
9.93
6.55
2.87
-1.18
-5.66
-10.57
-15.78
-20.98
-25.79
-29.85
-32.88
-34.81
-35.66
-35.55
-34.62
-33.08
-31.13
-29.03
-26.96
-25.0
-23.06
-21.0
-18.73
-16.23
-13.65
-11.18
-8.97
-7.08
-5.45
-4.03
-2.77
-1.71
-0.8
0.0
0.92
2.12
3.64
5.35
6.88
7.83
7.85
6.88
5.07
2.79
0.43
-1.75
-3.67
-5.43
-7.26
-9.37
-11.88
-14.77
-17.85
-20.85
-23.52
-25.68
-27.39
-28.87
-30.46
-32.49
-35.17
-38.53
-42.4
-46.48
-50.39
-53.73
-56.09
-57.18
-56.82
-55.05
-52.12
-48.3
-43.84
-38.74
-32.85
-25.93
-17.84
-8.73
0.97
10.59
19.42
26.84
32.49
36.31
38.48
39.4
39.56
39.37
39.16
39.07
39.14
39.32
39.56
39.78
39.84
39.56
38.71
37.17
34.97
32.32
29.54
26.93
24.66
22.75
21.17
19.88
18.92
18.32
18.05
17.97
17.84
17.45
16.73
15.8
14.84
14.03
13.41
12.87
12.18
11.15
9.64
7.63
5.21
2.57
0.04
-1.97
-2.98
-2.58
-0.65
2.54
6.36
9.98
12.69
14.13
14.38
13.92
13.39
13.31
13.96
15.24
16.86
18.38
19.44
19.82
19.49
18.51
16.98
15.0
12.62
9.91
7.07
4.37
2.05
0.25
-1.15
-2.42
-3.9
-5.81
-8.15
-10.65
-12.99
-14.88
-16.23
-17.1
-17.68
-18.17
-18.68
-19.2
-19.62
-19.86
-19.88
-19.75
-19.61
-19.58
-19.76
-20.14
-20.65
-21.2
-21.67
-21.96
-21.91
-21.31
-20.02
-18.0
-15.36
-12.4
-9.45
-6.76
-4.45
-2.46
-0.7
0.96
2.55
4.06
5.42
6.58
7.5
8.21
8.75
9.18
9.59
10.04
10.53
10.98
11.26
11.27
10.99
10.54
10.07
9.66
9.28
8.73
7.81
6.42
4.69
2.86
1.2
-0.17
-1.29
-2.37
-3.58
-4.97
-6.49
-8.06
-9.71
-11.54
-13.76
-16.43
-19.44
-22.52
-25.34
-27.63
-29.22
-30.01
-29.89
-28.69
-26.26
-22.61
-18.0
-12.9
-7.86
-3.39
0.28
3.1
5.22
6.85
8.21
9.46
10.69
11.91
13.07
14.08
14.88
15.45
15.86
16.19
16.49
16.76
16.96
17.07
17.08
17.02
16.87
16.59
16.1
15.35
14.36
13.24
12.14
11.13
10.22
9.32
8.36
7.3
6.18
5.05
3.91
2.7
1.36
-0.1
-1.57
-2.9
-3.91
-4.52
-4.76
-4.69
-4.4
-3.9
-3.19
-2.32
-1.42
-0.69
-0.37
-0.61
-1.43
-2.7
-4.11
-5.25
-5.71
-5.2
-3.64
-1.21
1.73
4.72
7.35
9.41
10.86
11.81
12.42
12.84
13.15
13.38
13.52
13.51
13.28
12.73
11.78
10.42
8.66
6.63
4.51
2.51
0.84
-0.41
-1.27
-1.9
-2.52
-3.33
-4.41
-5.78
-7.39
-9.18
-11.06
-12.95
-14.71
-16.21
-17.37
-18.18
-18.67
-18.91
-18.95
-18.77
-18.34
-17.65
-16.75
-15.71
-14.61
-13.53
-12.52
-11.63
-10.9
-10.41
-10.19
-10.22
-10.44
-10.72
-10.96
-11.09
-11.12
-11.12
-11.22
-11.47
-11.87
-12.42
-13.04
-13.67
-14.24
-14.62
-14.59
-13.9
-12.32
-9.78
-6.39
-2.5
1.47
5.14
8.26
10.78
12.78
14.34
15.5
16.26
16.57
16.39
15.77
14.77
13.45
11.84
9.9
7.65
5.13
2.48
-0.11
-2.44
-4.38
-5.84
-6.82
-7.34
-7.46
-7.27
-6.84
-6.23
-5.47
-4.5
-3.31
-1.9
-0.36
1.15
2.5
3.57
4.33
4.79
4.91
4.6
3.82
2.54
0.91
-0.83
-2.42
-3.72
-4.75
-5.68
-6.66
-7.78
-8.93
-9.91
-10.5
-10.6
-10.22
-9.5
-8.62
-7.73
-7.0
-6.5
-6.31
-6.44
-6.83
-7.4
-8.0
-8.52
-8.84
-8.88
-8.58
-7.93
-6.96
-5.77
-4.46
-3.16
-1.89
-0.64
0.69
2.13
3.63
5.07
6.24
7.02
7.35
7.27
6.86
6.1
4.91
3.16
0.76
-2.23
-5.6
-9.09
-12.46
-15.54
-18.33
-20.84
-23.07
-24.93
-26.29
-27.05
-27.21
-26.9
-26.28
-25.49
-24.48
-23.06
-20.98
-18.09
-14.46
-10.36
-6.19
-2.28
1.15
4.09
6.61
8.82
10.75
12.37
13.62
14.46
14.91
15.04
14.98
14.78
14.46
13.93
13.1
11.93
10.49
8.92
7.34
5.73
3.88
1.55
-1.4
-4.84
-8.42
-11.74
-14.56
-16.94
-19.1
-21.24
-23.38
-25.34
-26.85
-27.8
-28.31
-28.66
-29.12
-29.85
-30.78
-31.85
-33.0
-34.28
-35.74
-37.32
-38.82
-39.92
-40.3
-39.77
-38.28
-35.95
-32.96
-29.56
-25.96
-22.39
-19.06
-16.13
-13.63
-11.5
-9.57
-7.67
-5.73
-3.85
-2.21
-0.99
-0.22
0.22
0.58
1.07
1.81
2.78
3.93
5.13
6.34
7.56
8.74
9.81
10.65
11.16
11.28
11.03
10.45
9.58
8.43
7.0
5.3
3.41
1.45
-0.45
-2.16
-3.64
-4.92
-6.12
-7.43
-9.02
-10.99
-13.31
-15.88
-18.55
-21.24
-24.0
-26.9
-30.11
-33.66
-37.53
-41.54
-45.39
-48.68
-50.91
-51.63
-50.5
-47.45
-42.73
-36.89
-30.57
-24.33
-18.5
-13.11
-8.04
-3.12
1.73
6.46
10.94
15.0
18.5
21.34
23.48
24.95
25.86
26.34
26.57
26.71
26.92
27.28
27.83
28.51
29.14
29.51
29.42
28.78
27.63
26.13
24.43
22.67
20.86
18.99
17.02
14.96
12.84
10.62
8.25
5.62
2.74
-0.33
-3.39
-6.23
-8.73
-10.86
-12.72
-14.45
-16.23
-18.22
-20.59
-23.38
-26.5
-29.59
-32.09
-33.35
-32.81
-30.25
-25.76
-19.76
-12.83
-5.56
1.53
8.07
13.88
18.99
23.54
27.77
31.83
35.77
39.4
42.47
44.75
46.11
46.64
46.47
45.87
45.06
44.24
43.58
43.17
42.99
42.95
42.84
42.4
41.46
39.94
37.94
35.59
33.06
30.4
27.6
24.59
21.3
17.77
14.07
10.32
6.59
2.82
-1.17
-5.58
-10.56
-16.1
-21.95
-27.68
-32.77
-36.65
-38.86
-39.06
-37.14
-33.14
-27.39
-20.45
-13.02
-5.78
0.82
6.58
11.55
15.94
19.94
23.57
26.78
29.45
31.6
33.31
34.76
36.12
37.44
38.7
39.9
41.03
42.1
43.14
44.07
44.72
44.87
44.32
42.95
40.77
37.9
34.48
30.67
26.67
22.63
18.72
15.08
11.76
8.73
5.92
3.22
0.57
-1.99
-4.41
-6.58
-8.5
-10.23
-11.92
-13.69
-15.61
-17.73
-20.1
-22.74
-25.61
-28.49
-30.94
-32.31
-31.9
-29.25
-24.25
-17.25
-8.99
-0.38
7.76
14.8
20.48
24.83
28.06
30.46
32.27
33.63
34.58
35.13
35.37
35.34
35.13
34.77
34.21
33.45
32.48
31.4
30.37
29.51
28.8
28.15
27.3
26.04
24.28
22.13
19.84
17.64
15.68
13.89
12.08
10.07
7.77
5.31
2.93
0.82
-0.94
-2.46
-3.92
-5.48
-7.21
-9.1
-11.08
-13.15
-15.34
-17.66
-20.05
-22.37
-24.48
-26.35
-28.09
-29.96
-32.22
-34.98
-38.07
-41.01
-43.12
-43.66
-42.04
-38.01
-31.67
-23.51
-14.25
-4.69
4.48
12.72
19.73
25.43
29.89
33.3
35.92
37.98
39.62
40.91
41.83
42.26
42.12
41.3
39.78
37.62
34.95
32.07
29.29
26.87
24.97
23.49
22.17
20.72
19.01
17.09
15.2
13.59
12.37
11.47
10.7
9.83
8.77
7.57
6.33
5.15
4.02
2.85
1.51
-0.08
-1.9
-3.89
-5.91
-7.88
-9.75
-11.56
-13.37
-15.2
-17.05
-18.84
-20.5
-22.05
-23.63
-25.49
-27.89
-30.99
-34.68
-38.64
-42.3
-45.08
-46.49
-46.26
-44.42
-41.23
-37.15
-32.65
-28.17
-23.97
-20.15
-16.69
-13.48
-10.44
-7.51
-4.7
-2.07
0.31
2.41
4.21
5.78
7.25
8.78
10.53
12.6
14.96
17.55
20.26
22.96
25.52
27.79
29.54
30.56
30.65
29.73
27.89
25.36
22.43
19.39
16.45
13.78
11.45
9.54
8.04
6.87
5.86
4.77
3.41
1.7
-0.31
-2.49
-4.69
-6.8
-8.84
-10.82
-12.77
-14.65
-16.4
-17.97
-19.36
-20.67
-22.06
-23.73
-25.84
-28.41
-31.25
-33.96
-35.99
-36.83
-36.16
-33.98
-30.59
-26.47
-22.1
-17.87
-13.97
-10.47
-7.35
-4.53
-1.89
0.69
3.3
5.94
8.48
10.72
12.44
13.53
14.01
14.07
13.91
13.76
13.73
13.83
13.99
14.1
14.07
13.86
13.49
12.93
12.15
11.11
9.83
8.4
7.04
5.94
5.21
4.83
4.58
4.25
3.72
2.96
2.04
0.98
-0.26
-1.8
-3.66
-5.74
-7.81
-9.65
-11.11
-12.3
-13.47
-14.88
-16.71
-18.95
-21.36
-23.55
-25.07
-25.5
-24.58
-22.3
-18.88
-14.71
-10.27
-5.99
-2.16
1.08
3.7
5.8
7.47
8.81
9.88
10.71
11.23
11.43
11.3
10.9
10.38
9.92
9.63
9.6
9.82
10.25
10.85
11.61
12.48
13.4
14.22
14.75
14.82
14.36
13.42
12.17
10.79
9.43
8.08
6.67
5.09
3.31
1.38
-0.53
-2.24
-3.61
-4.64
-5.37
-5.9
-6.3
-6.61
-6.87
-7.18
-7.67
-8.52
-9.8
-11.55
-13.72
-16.29
-19.24
-22.58
-26.16
-29.62
-32.41
-33.91
-33.63
-31.47
-27.72
-23.0
-18.04
-13.47
-9.67
-6.74
-4.52
-2.76
-1.18
0.4
2.06
3.76
5.37
6.8
7.96
8.8
9.32
9.5
9.34
8.91
8.34
7.82
7.5
7.38
7.35
7.18
6.64
5.66
4.32
2.84
1.41
0.14
-1.01
-2.12
-3.23
-4.26
-5.1
-5.63
-5.87
-5.93
-5.98
-6.13
-6.34
-6.52
-6.59
-6.57
-6.61
-6.91
-7.6
-8.68
-10.08
-11.64
-13.23
-14.75
-16.11
-17.22
-18.08
-18.79
-19.62
-20.95
-23.12
-26.2
-29.92
-33.67
-36.69
-38.3
-38.1
-36.05
-32.44
-27.72
-22.39
-16.93
-11.71
-6.96
-2.79
0.82
3.93
6.61
8.93
10.92
12.62
14.1
15.43
16.64
17.72
18.65
19.44
20.19
21.02
22.01
23.15
24.28
25.19
25.68
25.7
25.3
24.65
23.85
22.97
22.02
21.0
19.97
18.99
18.1
17.29
16.44
15.4
14.08
12.5
10.76
9.05
7.51
6.15
4.88
3.49
1.8
-0.31
-2.85
-5.69
-8.62
-11.42
-13.94
-16.17
-18.28
-20.52
-23.19
-26.43
-30.18
-34.15
-37.88
-40.82
-42.51
-42.62
-41.02
-37.84
-33.37
-28.08
-22.43
-16.86
-11.67
-7.01
-2.91
0.74
4.08
7.25
10.29
13.15
15.67
17.68
19.12
20.0
20.51
20.81
21.05
21.29
21.53
21.8
22.12
22.57
23.16
23.85
24.5
24.89
24.78
23.99
22.46
20.3
17.75
15.04
12.33
9.67
7.0
4.19
1.2
-1.98
-5.32
-8.86
-12.68
-16.79
-21.04
-25.11
-28.57
-31.15
-32.83
-33.8
-34.33
-34.53
-34.25
-33.17
-31.03
-27.77
-23.63
-19.02
-14.37
-9.96
-5.89
-2.1
1.46
4.83
7.94
10.65
12.84
14.41
15.4
15.9
16.12
16.24
16.38
16.56
16.78
17.03
17.34
17.79
18.45
19.36
20.52
21.9
23.46
25.18
27.05
28.94
30.76
32.33
33.51
34.27
34.62
34.6
34.21
33.39
32.06
30.17
27.73
24.88
21.76
18.45
14.97
11.2
7.0
2.22
-3.25
-9.49
-16.46
-23.96
-31.59
-38.75
-44.77
-49.03
-51.19
-51.27
-49.62
-46.78
-43.33
-39.67
-36.01
-32.39
-28.73
-25.01
-21.23
-17.42
-13.61
-9.83
-6.1
-2.53
0.75
3.58
5.86
7.58
8.85
9.85
10.78
11.75
12.82
13.95
14.98
15.71
15.95
15.58
14.6
13.2
11.63
10.13
8.82
7.65
6.5
5.23
3.74
2.01
0.1
-1.95
-4.07
-6.24
-8.51
-10.91
-13.52
-16.35
-19.41
-22.63
-25.97
-29.46
-33.26
-37.6
-42.62
-48.28
-54.14
-59.49
-63.44
-65.23
-64.42
-60.97
-55.21
-47.8
-39.53
-31.22
-23.57
-17.04
-11.69
-7.26
-3.21
1.03
5.81
11.18
16.85
22.33
27.17
31.06
33.86
35.59
36.43
36.66
36.68
36.99
38.0
39.93
42.67
45.83
48.89
51.43
53.21
54.22
54.6
54.44
53.76
52.52
50.68
48.23
45.23
41.74
37.83
33.59
29.11
24.53
19.94
15.4
10.86
6.25
1.56
-3.18
-7.8
-12.21
-16.4
-20.61
-25.16
-30.42
-36.51
-43.21
-49.88
-55.63
-59.5
-60.74
-59.1
-54.86
-48.74
-41.62
-34.33
-27.32
-20.75
-14.52
-8.51
-2.67
2.94
8.19
12.94
17.08
20.54
23.25
25.21
26.47
27.19
27.57
27.84
28.16
28.55
28.98
29.38
29.64
29.67
29.36
28.54
27.09
25.0
22.4
19.53
16.7
14.11
11.87
9.87
7.93
5.81
3.29
0.23
-3.38
-7.37
-11.48
-15.41
-18.97
-22.2
-25.34
-28.74
-32.68
-37.22
-42.17
-47.13
-51.59
-54.99
-56.78
-56.45
-53.64
-48.3
-40.78
-31.87
-22.53
-13.63
-5.74
0.99
6.64
11.38
15.3
18.4
20.66
22.18
23.12
23.72
24.23
24.79
25.49
26.39
27.57
29.07
30.9
33.01
35.23
37.4
39.29
40.77
41.73
42.13
41.98
41.32
40.24
38.87
37.31
35.65
33.86
31.79
29.26
26.12
22.37
18.26
14.14
10.34
7.0
4.04
1.17
-1.92
-5.41
-9.38
-13.77
-18.45
-23.12
-27.33
-30.37
-31.48
-30.04
-25.88
-19.39
-11.52
-3.5
3.48
8.54
11.24
11.57
9.85
6.6
2.31
-2.54
-7.65
-12.77
-17.77
-22.52
-26.92
-30.85
-34.14
-36.56
-37.76
-37.39
-35.16
-31.01
-25.17
-18.17
-10.7
-3.45
2.99
8.29
12.34
15.22
17.17
18.49
19.42
20.12
20.52
20.43
19.59
17.82
15.12
11.73
8.02
4.45
1.44
-0.83
-2.38
-3.49
-4.62
-6.25
-8.78
-12.43
-17.23
-22.94
-29.08
-34.95
-39.7
-42.53
-42.86
-40.51
-35.78
-29.33
-21.91
-14.17
-6.51
0.86
7.86
14.36
20.16
25.1
29.07
32.06
34.15
35.34
35.63
34.94
33.29
30.86
27.99
25.2
23.02
21.86
21.95
23.22
25.38
27.9
30.21
31.75
32.15
31.23
29.06
25.87
21.91
17.4
12.41
6.92
0.81
-6.02
-13.52
-21.46
-29.39
-36.73
-42.89
-47.45
-50.25
-51.47
-51.56
-51.05
-50.34
-49.55
-48.43
-46.47
-43.15
-38.12
-31.4
-23.35
-14.58
-5.79
2.48
9.83
16.14
21.37
25.6
28.96
31.6
33.75
35.56
37.2
38.68
39.92
40.82
41.3
41.33
40.99
40.38
39.63
38.83
38.02
37.19
36.25
35.09
33.62
31.82
29.78
27.69
25.7
23.88
22.18
20.42
18.47
16.22
13.72
11.05
8.35
5.72
3.25
0.92
-1.29
-3.49
-5.86
-8.59
-11.82
-15.52
-19.43
-23.08
-25.82
-27.0
-26.13
-23.03
-17.94
-11.45
-4.36
2.58
8.81
14.13
18.6
22.44
25.81
28.8
31.38
33.54
35.3
36.73
37.9
38.88
39.69
40.33
40.78
41.07
41.2
41.22
41.22
41.39
41.9
42.78
43.82
44.49
44.05
41.97
38.13
32.98
27.42
22.4
18.54
15.99
14.47
13.48
12.61
11.68
10.73
9.94
9.56
9.76
10.51
11.41
11.56
9.66
4.38
-5.15
-18.81
-35.38
-52.75
-68.52
-80.58
-87.58
-89.22
-86.2
-79.99
-72.51
-65.62
-60.58
-57.82
-56.88
-56.82
-56.65
-55.78
-54.11
-51.76
-48.85
-45.31
-41.02
-36.04
-30.76
-25.83
-21.81
-18.89
-16.73
-14.73
-12.31
-9.31
-6.07
-3.26
-1.47
-0.91
-1.33
-2.17
-2.88
-3.18
-3.17
-3.17
-3.47
-4.17
-5.15
-6.13
-6.92
-7.5
-8.06
-8.85
-10.11
-11.88
-13.98
-16.01
-17.46
-17.82
-16.71
-13.93
-9.54
-3.85
2.62
9.24
15.4
20.64
24.72
27.65
29.63
30.89
31.6
31.86
31.7
31.12
30.18
28.94
27.47
25.8
23.99
22.11
20.3
18.69
17.39
16.4
15.61
14.84
13.91
12.69
11.14
9.28
7.19
4.97
2.72
0.54
-1.51
-3.44
-5.3
-7.17
-9.11
-11.18
-13.45
-15.95
-18.73
-21.75
-24.87
-27.77
-30.04
-31.23
-31.03
-29.37
-26.47
-22.74
-18.71
-14.79
-11.22
-8.09
-5.37
-3.03
-1.08
0.4
1.34
1.74
1.69
1.33
0.84
0.28
-0.27
-0.83
-1.35
-1.74
-1.8
-1.4
-0.46
0.9
2.41
3.72
4.54
4.72
4.31
3.46
2.32
1.0
-0.52
-2.23
-4.12
-6.08
-8.01
-9.84
-11.66
-13.59
-15.73
-18.03
-20.24
-21.92
-22.69
-22.32
-20.84
-18.54
-15.81
-12.99
-10.28
-7.74
-5.37
-3.17
-1.16
0.66
2.35
4.02
5.82
7.76
9.73
11.49
12.74
13.32
13.24
12.66
11.77
10.69
9.45
8.0
6.34
4.58
2.96
1.64
0.68
-0.03
-0.7
-1.44
-2.27
-3.03
-3.59
-3.92
-4.16
-4.5
-5.15
-6.24
-7.78
-9.67
-11.71
-13.68
-15.26
-16.19
-16.29
-15.57
-14.21
-12.49
-10.78
-9.3
-8.18
-7.41
-6.9
-6.51
-6.04
-5.3
-4.06
-2.16
0.48
3.78
7.39
10.8
13.41
14.8
14.93
14.13
13.04
12.22
11.96
12.15
12.37
12.11
11.02
9.02
6.29
3.2
0.11
-2.76
-5.31
-7.54
-9.48
-11.13
-12.45
-13.34
-13.82
-13.97
-13.99
-14.05
-14.16
-14.2
-13.9
-13.05
-11.61
-9.75
-7.81
-6.04
-4.58
-3.43
-2.49
-1.74
-1.21
-0.98
-1.07
-1.43
-1.89
-2.28
-2.53
-2.66
-2.79
-2.99
-3.27
-3.53
-3.69
-3.72
-3.68
-3.67
-3.82
-4.1
-4.42
-4.6
-4.58
-4.39
-4.18
-4.21
-4.65
-5.56
-6.89
-8.47
-10.09
-11.53
-12.63
-13.22
-13.23
-12.65
-11.56
-10.1
-8.48
-6.83
-5.3
-3.94
-2.75
-1.71
-0.74
0.21
1.16
2.03
2.69
3.01
2.95
2.59
2.1
1.7
1.49
1.48
1.61
1.79
1.97
2.16
2.36
2.51
2.51
2.26
1.75
1.04
0.27
-0.4
-0.93
-1.39
-1.91
-2.66
-3.71
-5.06
-6.61
-8.18
-9.53
-10.42
-10.62
-10.07
-8.8
-7.01
-4.93
-2.81
-0.79
1.08
2.79
4.28
5.5
6.35
6.78
6.82
6.55
6.11
5.63
5.19
4.84
4.58
4.39
4.15
3.78
3.16
2.28
1.23
0.15
-0.76
-1.43
-1.91
-2.36
-2.95
-3.78
-4.76
-5.73
-6.49
-6.95
-7.17
-7.29
-7.46
-7.8
-8.35
-9.09
-9.95
-10.84
-11.6
-12.05
-12.06
-11.58
-10.64
-9.25
-7.41
-5.11
-2.44
0.29
2.57
3.89
3.95
2.88
1.15
-0.64
-2.07
-3.05
-3.77
-4.47
-5.23
-5.95
-6.39
-6.43
-6.1
-5.56
-4.92
-4.2
-3.27
-1.96
-0.14
2.14
4.69
7.21
9.43
11.2
12.52
13.5
14.23
14.64
14.61
13.98
12.8
11.43
10.39
10.17
10.95
12.5
14.31
15.84
16.77
17.04
16.79
16.2
15.4
14.46
13.46
12.53
11.79
11.27
10.84
10.34
9.72
9.16
9.07
9.83
11.49
13.62
15.35
15.69
13.97
10.15
4.88
-0.8
-5.85
-9.57
-11.71
-12.31
-11.64
-10.01
-7.78
-5.42
-3.44
-2.31
-2.28
-3.2
-4.65
-6.06
-7.06
-7.63
-8.08
-8.87
-10.27
-12.2
-14.17
-15.55
-15.77
-14.66
-12.48
-9.79
-7.21
-5.18
-3.84
-3.03
-2.5
-2.05
-1.64
-1.36
-1.4
-1.82
-2.57
-3.34
-3.74
-3.32
-1.76
0.99
4.73
8.97
13.1
16.47
18.58
19.2
18.43
16.61
14.22
11.77
9.64
8.04
7.02
6.54
6.49
6.78
7.27
7.9
8.6
9.4
10.37
11.6
13.07
14.59
15.83
16.39
15.94
14.31
11.53
7.8
3.43
-1.21
-5.79
-10.06
-13.94
-17.56
-21.19
-25.15
-29.61
-34.46
-39.33
-43.65
-46.93
-48.89
-49.47
-48.77
-46.93
-43.98
-39.94
-34.9
-29.05
-22.69
-16.13
-9.6
-3.25
2.73
8.02
12.17
14.73
15.53
14.82
13.23
11.53
10.31
9.83
10.01
10.66
11.67
13.0
14.6
16.22
17.45
17.81
17.08
15.38
13.2
11.14
9.68
9.04
9.13
9.68
10.21
10.07
8.47
4.7
-1.58
-9.99
-19.36
-27.97
-34.18
-37.06
-36.71
-34.16
-30.85
-28.08
-26.51
-26.19
-26.74
-27.65
-28.42
-28.55
-27.42
-24.35
-18.79
-10.62
-0.46
10.45
20.54
28.45
33.43
35.47
35.11
33.09
30.04
26.34
22.17
17.67
12.93
8.05
3.08
-2.03
-7.34
-12.92
-18.71
-24.53
-30.02
-34.74
-38.27
-40.45
-41.53
-42.18
-43.2
-45.16
-48.0
-50.96
-52.81
-52.4
-49.18
-43.45
-36.16
-28.48
-21.34
-15.22
-10.2
-6.17
-3.08
-0.94
0.22
0.53
0.34
0.16
0.5
1.65
3.6
6.01
8.36
10.18
11.23
11.6
11.67
11.97
12.93
14.71
17.11
19.64
21.7
22.71
22.43
20.95
18.74
16.49
14.79
13.99
14.08
14.67
15.26
15.39
14.85
13.73
12.36
11.12
10.36
10.27
10.97
12.48
14.81
17.92
21.68
25.82
29.96
33.62
36.34
37.75
37.74
36.41
34.14
31.43
28.79
26.64
25.22
24.55
24.48
24.79
25.27
25.77
26.28
26.91
27.91
29.56
32.08
35.49
39.47
43.37
46.37
47.68
46.93
44.27
40.31
35.92
31.85
28.6
26.27
24.75
23.88
23.57
23.79
24.48
25.39
26.11
26.13
24.94
22.22
17.9
12.14
5.32
-2.08
-9.57
-16.73
-23.22
-28.84
-33.44
-36.95
-39.28
-40.39
-40.31
-39.16
-37.23
-34.82
-32.23
-29.61
-26.99
-24.3
-21.53
-18.76
-16.17
-13.91
-12.0
-10.34
-8.71
-6.98
-5.09
-3.15
-1.31
0.31
1.72
2.99
4.25
5.58
6.95
8.23
9.23
9.77
9.75
9.22
8.31
7.23
6.11
4.94
3.6
1.89
-0.3
-2.93
-5.81
-8.71
-11.39
-13.67
-15.43
-16.52
-16.76
-16.01
-14.27
-11.7
-8.68
-5.69
-3.12
-1.19
0.16
1.13
1.98
2.88
3.83
4.73
5.47
6.01
6.39
6.71
7.02
7.29
7.46
7.47
7.34
7.18
7.12
7.29
7.71
8.29
8.89
9.34
9.56
9.56
9.39
9.16
8.96
8.8
8.65
8.44
8.13
7.71
7.21
6.72
6.26
5.82
5.29
4.55
3.49
2.16
0.73
-0.58
-1.54
-2.13
-2.48
-2.94
-3.89
-5.72
-8.74
-13.04
-18.48
-24.64
-30.84
-36.24
-40.08
-41.87
-41.55
-39.49
-36.34
-32.72
-29.07
-25.6
-22.33
-19.24
-16.36
-13.78
-11.62
-9.88
-8.5
-7.34
-6.3
-5.27
-4.25
-3.24
-2.21
-1.05
0.28
1.79
3.36
4.76
5.77
6.25
6.25
5.97
5.63
5.43
5.43
5.52
5.55
5.4
5.01
4.45
3.83
3.17
2.49
1.72
0.83
-0.17
-1.13
-1.95
-2.51
-2.86
-3.13
-3.47
-4.01
-4.78
-5.74
-6.8
-7.96
-9.24
-10.68
-12.28
-13.89
-15.3
-16.3
-16.78
-16.82
-16.6
-16.34
-16.2
-16.19
-16.23
-16.23
-16.13
-15.9
-15.54
-15.01
-14.23
-13.11
-11.64
-9.9
-8.05
-6.27
-4.69
-3.37
-2.25
-1.26
-0.27
0.85
2.19
3.72
5.3
6.72
7.76
8.31
8.41
8.22
7.96
7.75
7.58
7.39
7.13
6.82
6.59
6.56
6.73
6.99
7.14
7.02
6.56
5.85
5.03
