-19.39
-21.76
-24.13
-26.73
-29.78
-33.47
-37.81
-42.61
-47.46
-51.72
-54.66
-55.64
-54.29
-50.62
-45.03
-38.23
-30.99
-24.01
-17.7
-12.19
-7.36
-2.98
1.16
5.18
9.05
12.64
15.84
18.61
21.0
23.12
25.05
26.83
28.39
29.67
30.66
31.41
31.99
32.48
32.86
33.03
32.87
32.28
31.25
29.9
28.33
26.7
25.11
23.62
22.25
20.94
19.62
18.17
16.5
14.65
12.67
10.75
8.99
7.47
6.07
4.59
2.81
0.61
-2.0
-4.85
-7.72
-10.43
-12.92
-15.27
-17.68
-20.41
-23.72
-27.73
-32.38
-37.36
-42.07
-45.73
-47.58
-47.07
-44.07
-38.89
-32.23
-24.89
-17.59
-10.82
-4.83
0.37
4.84
8.7
12.1
15.19
18.09
20.83
23.37
25.58
27.31
28.51
29.26
29.7
30.04
30.45
31.01
31.76
32.63
33.52
34.24
34.64
34.6
34.07
33.15
31.98
30.69
29.36
27.93
26.33
24.45
22.3
19.97
17.58
15.26
13.09
11.03
8.98
6.8
4.35
1.57
-1.52
-4.77
-8.04
-11.17
-14.08
-16.82
-19.56
-22.56
-26.12
-30.46
-35.6
-41.27
-46.86
-51.55
-54.48
-54.97
-52.76
-48.06
-41.48
-33.82
-25.86
-18.26
-11.39
-5.43
-0.34
4.04
7.95
11.64
15.28
18.88
22.31
25.34
27.73
29.44
30.58
31.4
32.16
33.01
33.94
34.84
35.59
36.12
36.45
36.62
36.61
36.34
35.68
34.53
32.92
30.99
28.97
27.05
25.29
23.6
21.85
19.87
17.63
15.17
12.63
10.15
7.81
5.55
3.3
0.94
-1.63
-4.36
-7.21
-10.06
-12.87
-15.59
-18.27
-20.97
-23.77
-26.77
-30.11
-33.99
-38.53
-43.63
-48.85
-53.43
-56.4
-56.98
-54.86
-50.31
-44.08
-37.05
-29.94
-23.14
-16.78
-10.89
-5.47
-0.57
3.78
7.65
11.14
14.36
17.3
19.87
21.94
23.44
24.41
24.98
25.3
25.54
25.81
26.22
26.77
27.4
27.92
28.12
27.89
27.23
26.32
25.37
24.46
23.52
22.33
20.64
18.32
15.48
12.39
9.42
6.82
4.67
2.87
1.2
-0.57
-2.56
-4.78
-7.18
-9.63
-12.05
-14.47
-16.95
-19.63
-22.66
-26.14
-30.03
-34.17
-38.23
-41.67
-43.94
-44.52
-43.08
-39.64
-34.5
-28.2
-21.42
-14.77
-8.66
-3.35
1.14
4.88
8.01
10.69
13.02
15.06
16.79
18.19
19.29
20.16
20.89
21.6
22.37
23.22
24.14
25.1
26.05
26.91
27.59
27.92
27.76
27.02
25.71
23.96
21.98
19.98
18.11
16.4
14.82
13.25
11.58
9.71
7.61
5.32
2.94
0.61
-1.52
-3.4
-5.07
-6.7
-8.48
-10.55
-12.92
-15.46
-18.03
-20.52
-22.99
-25.61
-28.66
-32.35
-36.73
-41.6
-46.52
-50.88
-54.01
-55.29
-54.34
-51.05
-45.68
-38.83
-31.28
-23.85
-17.11
-11.34
-6.51
-2.36
1.39
4.91
8.2
11.12
13.5
15.24
16.35
16.99
17.34
17.61
17.96
18.54
19.4
20.53
21.82
23.09
24.13
24.81
25.05
24.93
24.56
24.05
23.49
22.85
22.14
21.33
20.45
19.54
18.63
17.65
16.52
15.13
13.41
11.37
9.09
6.71
4.36
2.1
-0.05
-2.11
-4.14
-6.18
-8.28
-10.45
-12.71
-15.02
-17.36
-19.67
-21.92
-24.14
-26.47
-29.09
-32.21
-35.96
-40.21
-44.59
-48.49
-51.24
-52.23
-51.15
-48.01
-43.15
-37.12
-30.59
-24.13
-18.18
-12.97
-8.53
-4.71
-1.29
1.97
5.19
8.34
11.31
13.91
16.01
17.56
18.64
19.38
19.98
20.58
21.3
22.21
23.3
24.52
25.73
26.72
27.23
27.08
26.21
24.76
23.0
21.28
19.8
18.57
17.43
16.16
14.66
12.97
11.24
9.63
8.15
6.69
5.11
3.3
1.27
-0.89
-3.09
-5.27
-7.47
-9.73
-12.08
-14.53
-17.08
-19.82
-22.86
-26.35
-30.29
-34.44
-38.32
-41.27
-42.62
-41.95
-39.21
-34.73
-29.15
-23.15
-17.33
-12.02
-7.35
-3.29
0.24
3.31
5.97
8.26
10.22
11.95
13.51
14.97
16.35
17.67
18.91
20.08
21.15
22.09
22.83
23.31
23.51
23.47
23.25
22.93
22.52
22.0
21.25
20.14
18.62
16.71
14.52
12.22
9.93
7.73
5.64
3.6
1.54
-0.56
-2.71
-4.88
-7.01
-9.12
-11.2
-13.33
-15.6
-18.12
-21.02
-24.39
-28.22
-32.35
-36.38
-39.81
-42.04
-42.62
-41.35
-38.26
-33.68
-28.07
-21.94
-15.8
-10.07
-5.02
-0.75
2.79
5.8
8.46
10.88
13.09
15.07
16.81
18.34
19.72
20.97
22.05
22.88
23.41
23.74
24.06
24.58
25.44
26.58
27.74
28.61
28.94
28.66
27.82
26.59
25.13
23.55
21.89
20.14
18.24
16.16
13.9
11.48
8.96
6.42
3.9
1.45
-0.95
-3.34
-5.73
-8.09
-10.39
-12.6
-14.71
-16.78
-18.88
-21.07
-23.39
-25.9
-28.71
-31.94
-35.64
-39.69
-43.67
-46.93
-48.76
-48.66
-46.47
-42.48
-37.24
-31.43
-25.59
-20.09
-15.09
-10.62
-6.62
-2.98
0.46
3.86
7.29
10.74
14.03
16.96
19.32
21.02
22.14
22.85
23.35
23.81
24.28
24.7
25.02
25.17
25.14
24.97
24.73
24.41
23.96
23.3
22.34
21.06
19.53
17.84
16.07
14.27
12.42
10.52
8.57
6.63
4.76
2.97
1.17
-0.72
-2.79
-5.02
-7.33
-9.62
-11.85
-14.12
-16.65
-19.72
-23.48
-27.89
-32.58
-36.95
-40.26
-41.86
-41.37
-38.8
-34.53
-29.2
-23.44
-17.76
-12.43
-7.52
-2.97
1.27
5.21
8.8
11.94
14.53
16.54
18.04
19.18
20.17
21.16
22.22
23.3
24.3
25.11
25.7
26.11
26.43
26.65
26.75
26.6
26.12
25.29
24.16
22.86
21.5
20.12
18.69
17.09
15.23
13.03
10.5
7.72
4.85
2.04
-0.57
-2.92
-5.05
-7.14
-9.44
-12.2
-15.58
-19.53
-23.8
-27.92
-31.32
-33.47
-33.96
-32.67
-29.73
-25.53
-20.54
-15.29
-10.18
-5.43
-1.1
2.83
6.44
9.77
12.83
15.56
17.89
19.77
21.21
22.25
22.97
23.49
23.82
24.01
24.08
24.07
24.08
24.16
24.34
24.54
24.64
24.51
24.03
23.21
22.08
20.79
19.48
18.28
17.26
16.37
15.48
14.45
13.15
11.56
9.77
7.92
6.17
4.59
3.15
1.78
0.36
-1.16
-2.8
-4.52
-6.3
-8.1
-9.94
-11.82
-13.74
-15.72
-17.76
-19.97
-22.47
-25.34
-28.56
-31.87
-34.85
-36.96
-37.76
-37.0
-34.72
-31.22
-26.93
-22.32
-17.76
-13.45
-9.46
-5.8
-2.42
0.69
3.52
6.08
8.33
10.29
11.96
13.35
14.46
15.32
15.96
16.44
16.81
17.09
17.31
17.45
17.51
17.5
17.44
17.35
17.24
17.05
16.71
16.14
15.31
14.28
13.19
12.14
11.25
10.49
9.8
9.06
8.21
7.26
6.23
5.16
4.04
2.86
1.58
0.22
-1.24
-2.81
-4.52
-6.41
-8.45
-10.59
-12.72
-14.73
-16.56
-18.22
-19.77
-21.32
-22.97
-24.81
-26.88
-29.07
-31.12
-32.64
-33.2
-32.49
-30.48
-27.41
-23.74
-19.95
-16.38
-13.16
-10.26
-7.57
-5.0
-2.59
-0.39
1.57
3.3
4.88
6.38
7.82
9.12
10.21
10.98
11.46
11.69
11.82
11.94
12.12
12.37
12.63
12.84
12.91
12.81
12.52
12.05
11.47
10.87
10.33
9.86
9.42
8.94
8.34
7.61
6.8
5.97
5.21
4.53
3.92
3.3
2.57
1.71
0.68
-0.44
-1.58
-2.67
-3.66
-4.59
-5.54
-6.6
-7.8
-9.18
-10.67
-12.23
-13.87
-15.59
-17.44
-19.43
-21.56
-23.8
-26.14
-28.54
-30.88
-33.01
-34.61
-35.32
-34.86
-33.11
-30.19
-26.46
-22.41
-18.49
-14.99
-12.01
-9.45
-7.16
-5.01
-2.95
-1.0
0.81
2.47
4.01
5.42
6.67
7.66
8.34
8.68
8.78
8.78
8.88
9.2
9.74
10.45
11.2
11.84
12.27
12.4
12.23
11.83
11.29
10.73
10.19
9.65
9.06
8.39
7.66
6.95
6.3
5.75
5.2
4.54
3.64
2.47
1.08
-0.42
-1.92
-3.36
-4.74
-6.14
-7.61
-9.18
-10.78
-12.3
-13.59
-14.59
-15.39
-16.19
-17.28
-18.86
-20.96
-23.37
-25.76
-27.75
-29.02
-29.4
-28.81
-27.31
-24.99
-22.08
-18.86
-15.65
-12.74
-10.27
-8.22
-6.44
-4.73
-2.95
-1.07
0.78
2.43
3.74
4.7
5.36
5.87
6.37
6.93
7.54
8.16
8.71
9.14
9.42
9.54
9.5
9.3
8.92
8.35
7.62
6.77
5.9
5.12
4.47
3.94
3.41
2.72
1.76
0.5
-0.99
-2.57
-4.1
-5.51
-6.79
-7.99
-9.18
-10.44
-11.85
-13.54
-15.65
-18.26
-21.32
-24.52
-27.4
-29.4
-30.05
-29.19
-26.96
-23.76
-20.11
-16.43
-12.97
-9.83
-6.96
-4.3
-1.79
0.59
2.81
4.78
6.42
7.69
8.6
9.24
9.71
10.1
10.46
10.82
11.21
11.74
12.47
13.42
14.47
15.44
16.15
16.52
16.59
16.5
16.35
16.21
16.02
15.69
15.15
14.4
13.46
12.38
11.1
9.56
7.73
5.71
3.7
1.97
0.65
-0.35
-1.27
-2.45
-4.1
-6.24
-8.7
-11.23
-13.67
-16.02
-18.42
-21.1
-24.26
-27.96
-32.06
-36.17
-39.74
-42.13
-42.86
-41.72
-38.85
-34.71
-29.85
-24.75
-19.73
-14.96
-10.5
-6.43
-2.8
0.38
3.2
5.75
8.17
10.46
12.51
14.2
15.44
16.3
16.96
17.62
18.44
19.45
20.57
21.69
22.73
23.62
24.35
24.88
25.14
25.11
24.81
24.35
23.92
23.6
23.41
23.24
22.88
22.18
21.07
19.65
18.13
16.72
15.53
14.52
13.54
12.38
10.9
9.1
7.09
5.05
3.09
1.2
-0.71
-2.79
-5.16
-7.79
-10.55
-13.25
-15.74
-18.03
-20.24
-22.66
-25.55
-29.06
-33.06
-37.16
-40.75
-43.15
-43.84
-42.58
-39.48
-34.95
-29.58
-23.94
-18.49
-13.47
-8.95
-4.9
-1.25
2.08
5.15
8.02
10.71
13.21
15.48
17.47
19.11
20.42
21.43
22.29
23.11
24.03
25.07
26.21
27.33
28.3
29.01
29.38
29.39
29.07
28.46
27.61
26.58
25.43
24.2
22.93
21.66
20.38
19.08
17.76
16.39
14.97
13.5
11.97
10.39
8.75
7.05
5.27
3.39
1.34
-0.9
-3.28
-5.72
-8.09
-10.29
-12.31
-14.25
-16.29
-18.64
-21.45
-24.77
-28.42
-32.04
-35.09
-37.0
-37.26
-35.59
-32.08
-27.11
-21.32
-15.39
-9.92
-5.22
-1.36
1.84
4.64
7.27
9.82
12.27
14.51
16.42
17.98
19.22
20.19
20.91
21.33
21.42
21.21
20.86
20.58
20.59
20.94
21.51
22.07
22.36
22.21
21.58
20.58
19.31
17.87
16.28
14.56
12.74
10.82
8.83
6.77
4.66
2.54
0.48
-1.38
-2.99
-4.35
-5.61
-6.99
-8.74
-11.05
-13.98
-17.5
-21.45
-25.51
-29.24
-32.12
-33.67
-33.54
-31.68
-28.26
-23.7
-18.49
-13.1
-7.92
-3.19
0.96
4.51
7.56
10.23
12.65
14.84
16.74
18.23
19.23
19.76
19.96
20.0
20.03
20.11
20.25
20.47
20.78
21.21
21.78
22.37
22.82
22.92
22.56
21.74
20.59
19.29
17.97
16.7
15.46
14.22
12.98
11.78
10.67
9.66
8.66
7.54
6.16
4.44
2.41
0.22
-2.01
-4.12
-6.05
-7.81
-9.52
-11.34
-13.47
-16.1
-19.35
-23.2
-27.48
-31.84
-35.79
-38.82
-40.45
-40.37
-38.51
-35.05
-30.41
-25.08
-19.57
-14.29
-9.48
-5.24
-1.59
1.53
4.21
6.61
8.87
11.03
13.03
14.72
15.92
16.54
16.68
16.59
16.6
16.95
17.71
18.73
19.77
20.59
21.06
21.14
20.88
20.32
19.49
18.41
17.11
15.73
14.44
13.38
12.58
11.95
11.33
10.52
9.48
8.25
7.02
5.95
5.07
4.29
3.34
2.01
0.13
-2.26
-5.02
-7.95
-10.88
-13.75
-16.54
-19.26
-21.92
-24.57
-27.29
-30.2
-33.48
-37.2
-41.23
-45.27
-48.82
-51.33
-52.39
-51.82
-49.78
-46.69
-43.15
-39.72
-36.76
-34.43
-32.65
-31.22
-29.94
-28.71
-27.61
-26.86
-26.72
-27.36
-28.7
-30.39
-31.83
-32.36
-31.47
-28.94
-24.94
-19.91
-14.51
-9.41
-5.25
-2.48
-1.28
-1.54
-2.87
-4.97
-7.89
-12.2
-19.01
-29.52
-44.56
-64.14
-87.32
-112.33
-136.77
-157.94
-173.05
-179.55
-175.68
-161.02
-136.91
-106.31
-73.15
-41.23
-13.26
9.71
28.14
43.5
57.57
71.8
86.85
102.52
117.75
131.01
140.77
146.07
146.83
144.01
139.22
134.32
130.86
129.82
131.55
135.82
141.95
148.88
155.28
159.83
161.46
159.69
154.75
147.44
138.71
129.33
119.6
109.4
98.48
86.81
74.82
63.3
53.06
44.62
37.96
32.55
27.67
22.61
16.97
10.71
4.08
-2.51
-8.65
-14.06
-18.67
-22.54
-25.78
-28.47
-30.59
-31.98
-32.42
-31.62
-29.31
-25.29
-19.46
-11.97
-3.2
6.15
15.16
22.88
28.42
31.13
30.72
27.28
21.31
13.6
5.12
-3.26
-10.94
-17.66
-23.47
-28.52
-32.93
-36.71
-39.75
-41.94
-43.22
-43.7
-43.56
-43.06
-42.51
-42.14
-42.06
-42.27
-42.58
-42.84
-42.99
-43.15
-43.63
-44.78
-46.77
-49.56
-52.98
-56.81
-60.98
-65.5
-70.45
-75.68
-80.88
-85.58
-89.31
-91.76
-92.8
-92.32
-90.18
-86.26
-80.5
-73.22
-65.04
-56.74
-48.87
-41.35
-33.35
-23.52
-10.6
6.12
26.3
48.72
71.62
93.16
111.88
126.89
137.76
144.38
146.85
145.4
140.39
132.43
122.23
110.63
98.33
85.88
73.62
61.7
50.19
39.16
28.76
19.23
10.87
3.99
-1.23
-4.8
-6.99
-8.32
-9.45
-10.95
-13.16
-16.14
-19.66
-23.44
-27.18
-30.7
-33.89
-36.7
-39.1
-41.08
-42.74
-44.19
-45.57
-46.96
-48.27
-49.25
-49.6
-49.04
-47.45
-44.93
-41.77
-38.45
-35.49
-33.32
-32.21
-32.12
-32.77
-33.76
-34.75
-35.53
-36.15
-36.74
-37.36
-37.94
-38.24
-38.02
-37.2
-35.93
-34.46
-33.02
-31.57
-29.76
-27.03
-22.72
-16.29
-7.45
3.67
16.43
29.64
41.73
51.11
56.61
57.98
55.89
51.74
47.02
42.83
39.54
36.99
34.82
32.84
31.17
30.06
29.74
30.24
31.33
32.66
33.74
33.88
32.21
27.69
19.42
7.05
-8.9
-26.88
-44.55
-59.36
-69.28
-73.42
-72.2
-67.08
-59.91
-52.27
-45.13
-38.93
-33.86
-30.15
-28.04
-27.63
-28.58
-30.23
-31.9
-33.28
-34.78
-37.22
-41.45
-47.74
-55.58
-63.63
-70.15
-73.45
-72.36
-66.59
-56.77
-44.27
-30.82
-17.95
-6.64
2.82
10.71
17.55
23.77
29.52
34.68
38.99
42.24
44.38
45.53
45.95
45.89
45.6
45.25
44.98
45.0
45.52
46.71
48.45
50.28
51.47
51.17
48.88
44.57
38.81
32.62
27.04
22.88
20.49
19.81
20.59
22.69
26.15
31.14
37.76
45.84
54.89
64.2
72.95
80.35
85.62
88.01
86.88
81.92
73.38
62.18
49.73
37.59
27.04
18.72
12.63
8.31
5.16
2.71
0.72
-0.84
-1.91
-2.42
-2.34
-1.68
-0.52
0.93
2.34
3.24
3.26
2.15
0.01
-2.82
-5.84
-8.59
-10.76
-12.3
-13.3
-13.98
-14.51
-15.07
-15.75
-16.53
-17.38
-18.15
-18.78
-19.21
-19.51
-19.77
-20.05
-20.34
-20.56
-20.71
-20.89
-21.42
-22.72
-25.24
-29.13
-34.23
-39.9
-45.2
-49.03
-50.36
-48.47
-43.13
-34.69
-24.08
-12.66
-1.92
6.84
12.82
15.86
16.34
14.95
12.48
9.55
6.67
4.24
2.6
2.06
2.76
4.59
7.18
10.01
12.61
14.68
16.16
17.18
17.87
18.3
18.49
18.46
18.34
18.37
18.79
19.76
21.22
22.94
24.68
26.25
27.52
28.22
27.82
25.55
20.74
13.24
3.62
-6.86
-16.75
-24.98
-31.2
-35.83
-39.68
-43.52
-47.74
-52.32
-56.95
-61.2
-64.76
-67.39
-69.0
-69.66
-69.53
-68.84
-67.84
-66.79
-65.94
-65.48
-65.46
-65.71
-65.86
-65.51
-64.43
-62.76
-60.92
-59.36
-58.23
-57.27
-55.95
-53.81
-50.77
-47.21
-43.76
-40.93
-38.88
-37.39
-36.05
-34.48
-32.44
-29.81
-26.49
-22.31
-17.25
-11.66
-6.37
-2.47
-0.77
-1.19
-2.53
-2.76
0.12
7.19
18.1
31.26
44.46
55.79
64.2
69.53
72.23
72.94
72.15
70.24
67.55
64.48
61.34
58.26
55.12
51.76
48.11
44.32
40.73
37.66
35.32
33.8
33.12
33.33
34.46
36.3
38.31
39.6
39.22
36.59
31.87
25.98
20.21
15.77
13.24
12.49
12.82
13.37
13.44
12.74
11.41
9.85
8.41
7.16
5.78
3.53
-0.34
-6.32
-14.23
-23.21
-31.97
-39.2
-43.97
-46.02
-45.67
-43.56
-40.38
-36.75
-33.18
-30.05
-27.6
-25.81
-24.27
-22.29
-19.1
-14.13
-7.21
1.41
11.13
21.14
30.57
38.52
44.21
47.15
47.33
45.37
42.35
39.55
37.86
37.48
37.85
37.95
36.79
33.89
29.37
23.84
17.99
12.35
7.14
2.36
-1.95
-5.64
-8.47
-10.23
-10.87
-10.52
-9.4
-7.67
-5.39
-2.58
0.67
4.11
7.35
9.96
11.62
12.18
11.72
10.43
8.54
6.27
3.79
1.27
-1.19
-3.5
-5.67
-7.76
-9.83
-11.79
-13.46
-14.59
-15.02
-14.88
-14.55
-14.52
-15.12
-16.41
-18.12
-19.93
-21.67
-23.44
-25.5
-28.04
-30.87
-33.44
-35.01
-34.96
-33.11
-29.75
-25.52
-21.11
-17.03
-13.54
-10.68
-8.37
-6.53
-5.08
-3.99
-3.17
-2.51
-1.87
-1.13
-0.22
0.77
1.64
2.01
1.46
-0.3
-3.28
-7.14
-11.23
-14.82
-17.29
-18.41
-18.37
-17.64
-16.75
-16.08
-15.8
-15.83
-16.02
-16.3
-16.66
-17.16
-17.84
-18.66
-19.48
-20.22
-20.83
-21.39
-22.03
-22.83
-23.76
-24.68
-25.33
-25.47
-24.81
-23.12
-20.28
-16.35
-11.63
-6.71
-2.19
1.46
4.18
6.32
8.49
11.27
14.88
19.04
23.15
26.63
29.12
30.71
31.82
32.93
34.35
36.12
38.05
39.91
41.58
43.06
44.42
45.7
46.77
47.38
47.25
46.17
44.17
41.5
38.62
36.02
34.1
32.95
32.39
32.01
31.42
30.41
28.99
27.32
25.52
23.6
21.43
18.96
16.28
13.66
11.4
9.61
8.11
6.54
4.58
2.18
-0.35
-2.44
-3.55
-3.32
-1.69
1.26
5.44
10.81
17.4
25.06
33.33
41.42
48.35
53.33
55.94
56.3
54.95
52.51
49.38
45.62
41.05
35.49
28.97
21.82
14.48
7.26
0.2
-6.91
-14.27
-21.82
-29.1
-35.4
-40.03
-42.64
-43.32
-42.57
-41.01
-39.15
-37.28
-35.48
-33.77
-32.16
-30.7
-29.44
-28.3
-27.03
-25.32
-22.92
-19.8
-16.17
-12.47
-9.14
-6.43
-4.35
-2.72
-1.29
0.0
1.08
1.78
2.08
2.11
2.11
2.36
2.94
3.73
4.55
5.28
5.9
6.44
6.77
6.54
5.28
2.59
-1.54
-6.67
-12.01
-16.7
-20.18
-22.26
-23.09
-22.96
-22.09
-20.6
-18.62
-16.41
-14.43
-13.18
-12.97
-13.7
-14.82
-15.54
-15.13
-13.21
-9.93
-5.82
-1.64
1.9
4.39
5.75
6.23
6.24
6.2
6.38
6.86
7.54
8.24
8.83
9.32
9.78
10.34
11.03
11.83
12.64
13.39
14.04
14.63
15.16
15.61
15.91
15.99
15.78
15.26
14.49
13.55
12.61
11.79
11.21
10.88
10.71
10.5
9.96
8.93
7.32
5.29
3.15
1.28
0.08
-0.17
0.61
2.25
4.39
6.5
8.04
8.6
7.97
6.2
3.56
0.53
-2.41
-4.8
-6.38
-7.11
-7.13
-6.66
-5.95
-5.12
-4.25
-3.33
-2.29
-1.06
0.5
2.5
4.94
7.59
9.97
11.43
11.38
9.52
5.98
1.26
-3.89
-8.75
-12.8
-15.83
-17.9
-19.26
-20.12
-20.58
-20.51
-19.7
-17.96
-15.25
-11.77
-7.84
-3.8
0.04
3.53
6.61
9.24
11.4
13.03
14.1
14.65
14.82
14.77
14.68
14.62
14.55
14.31
13.71
12.63
11.11
9.29
7.37
5.48
3.59
1.59
-0.71
-3.4
-6.44
-9.65
-12.78
-15.65
-18.19
-20.43
-22.41
-24.14
-25.52
-26.44
-26.84
-26.82
-26.57
-26.31
-26.09
-25.74
-24.91
-23.26
-20.64
-17.21
-13.39
-9.67
-6.42
-3.82
-1.84
-0.4
0.6
1.15
1.25
0.93
0.3
-0.44
-1.17
-1.85
-2.58
-3.47
-4.58
-5.85
-7.07
-8.01
-8.59
-8.85
-9.01
-9.32
-9.92
-10.82
-11.9
-12.94
-13.67
-13.88
-13.44
-12.28
-10.51
-8.24
-5.64
-2.72
0.62
4.63
9.57
15.69
23.09
31.76
41.59
52.38
63.84
75.64
87.35
98.5
108.57
117.09
123.59
127.79
129.53
128.92
126.34
122.41
117.94
113.69
110.25
107.79
106.12
104.67
102.83
100.18
96.69
92.67
88.58
84.7
80.97
76.96
72.16
66.25
59.3
51.72
44.06
36.8
30.19
24.19
18.59
12.94
6.48
-1.89
-13.42
-29.04
-48.69
-70.86
-92.67
-110.47
-121.12
-122.92
-116.31
-103.57
-88.1
-73.31
-61.77
-54.71
-52.13
-53.13
-56.45
-60.93
-65.77
-70.54
-74.96
-78.7
-81.16
-81.6
-79.46
-74.67
-67.9
-60.27
-53.07
-47.27
-43.36
-41.37
-41.16
-42.54
-45.25
-48.78
-52.26
-54.57
-54.83
-52.83
-49.35
-45.93
-44.31
-45.7
-50.27
-57.09
-64.51
-70.68
-74.24
-74.59
-71.97
-67.23
-61.42
-55.5
-50.15
-45.71
-42.25
-39.65
-37.66
-35.95
-34.13
-31.91
-29.15
-25.89
-22.43
-19.1
-16.21
-13.94
-12.32
-11.26
-10.51
-9.73
-8.58
-6.89
-4.81
-2.81
-1.48
-1.29
-2.33
-4.28
-6.62
-8.87
-10.78
-12.39
-13.84
-15.24
-16.56
-17.77
-18.8
-19.75
-20.66
-21.49
-21.93
-21.57
-20.1
-17.48
-14.08
-10.58
-7.76
-6.21
-6.2
-7.66
-10.25
-13.41
-16.51
-18.87
-19.97
-19.54
-17.65
-14.72
-11.31
-7.9
-4.79
-2.04
0.33
2.35
4.11
5.76
7.61
9.86
12.52
15.22
17.37
18.45
18.31
17.28
15.95
14.77
13.75
12.49
10.37
6.9
2.02
-3.95
-10.39
-16.65
-22.14
-26.44
-29.27
-30.49
-29.99
-27.69
-23.62
-17.95
-11.15
-3.86
3.13
9.18
14.0
17.63
20.32
22.34
23.9
25.15
26.4
28.04
30.41
33.48
36.77
39.49
40.94
41.04
40.3
39.55
39.34
39.53
39.39
38.09
35.29
31.37
27.2
23.54
20.52
17.6
13.91
8.86
2.62
-3.97
-9.89
-14.44
-17.62
-19.89
-21.76
-23.24
-23.85
-22.86
-19.8
-14.88
-8.92
-2.98
2.0
5.49
7.25
7.07
4.64
-0.21
-7.25
-15.54
-23.57
-29.69
-32.71
-32.29
-29.0
-24.11
-19.11
-15.34
-13.71
-14.47
-17.33
-21.52
-26.12
-30.34
-33.63
-35.64
-36.07
-34.66
-31.48
-27.33
-23.88
-23.28
-27.23
-36.03
-48.07
-60.4
-69.88
-74.47
-73.91
-69.45
-62.92
-55.76
-48.6
-41.37
-33.94
-26.44
-19.38
-13.31
-8.6
-5.22
-2.86
-1.02
0.8
2.99
5.71
8.79
11.8
14.25
15.88
16.84
17.56
18.5
19.73
21.01
22.07
23.02
24.5
27.34
31.97
37.91
43.84
48.09
49.47
47.77
43.62
38.05
31.91
25.64
19.44
13.66
8.91
6.05
5.73
8.1
12.57
18.11
23.5
27.8
30.58
31.95
32.43
32.65
33.08
33.84
34.73
35.37
35.4
34.67
33.15
30.86
27.74
23.7
18.72
13.08
7.37
2.29
-1.59
-4.1
-5.46
-6.11
-6.48
-6.82
-7.19
-7.63
-8.32
-9.64
-12.07
-15.91
-21.14
-27.23
-33.29
-38.25
-41.09
-40.98
-37.45
-30.55
-20.91
-9.61
1.95
12.43
20.93
27.28
31.97
35.86
39.63
43.42
46.74
48.78
48.88
46.83
42.95
37.78
31.82
25.46
19.1
13.41
9.19
7.06
6.92
7.79
7.96
5.86
0.83
-6.6
-14.97
-22.73
-28.86
-33.24
-36.35
-38.85
-41.08
-43.09
-44.73
-45.81
-46.04
-45.06
-42.33
-37.36
-29.81
-19.74
-7.68
5.38
18.29
29.98
39.76
47.46
53.41
58.17
62.13
65.27
67.09
66.91
64.25
59.2
52.55
45.56
39.54
35.38
33.32
32.93
33.31
33.39
32.32
29.68
25.5
20.19
14.32
8.4
2.83
-2.14
-6.31
-9.55
-11.91
-13.66
-15.26
-17.2
-19.82
-23.05
-26.41
-29.09
-30.19
-29.07
-25.57
-20.09
-13.53
-6.95
-1.23
3.21
6.51
9.16
11.66
14.24
16.72
18.58
19.36
18.9
17.47
15.59
13.75
12.11
10.48
8.46
5.81
2.52
-1.12
-4.84
-8.48
-12.13
-15.97
-20.1
-24.4
-28.51
-32.03
-34.58
-35.95
-36.08
-35.03
-32.87
-29.64
-25.29
-19.81
-13.32
-6.2
0.91
7.31
12.47
16.44
19.78
23.36
27.83
33.16
38.61
43.06
45.66
46.38
45.97
45.49
45.65
46.29
46.59
45.63
43.0
39.14
35.11
32.01
30.48
30.56
31.82
33.72
35.64
36.97
37.1
35.59
32.45
28.34
24.45
22.09
22.16
24.8
29.28
34.32
38.38
40.03
38.4
33.4
25.93
17.63
10.31
5.18
2.33
0.88
-0.45
-2.41
-4.8
-6.66
-6.92
-5.22
-2.13
1.16
3.52
4.5
4.47
4.18
4.15
4.28
3.88
2.14
-1.28
-6.02
-11.12
-15.51
-18.55
-20.25
-21.06
-21.47
-21.69
-21.63
-21.18
-20.48
-19.98
-20.18
-21.35
-23.32
-25.73
-28.27
-30.95
-33.93
-37.25
-40.53
-42.93
-43.57
-41.91
-38.07
-32.74
-26.73
-20.64
-14.68
-8.77
-2.88
2.76
7.7
11.44
13.67
14.43
14.09
13.16
12.09
11.19
10.52
10.01
9.51
8.94
8.27
7.61
7.03
6.58
6.15
5.56
4.62
3.34
1.87
0.51
-0.53
-1.29
-1.99
-2.89
-4.06
-5.3
-6.25
-6.61
-6.38
-5.86
-5.51
-5.76
-6.79
-8.56
-10.82
-13.27
-15.56
-17.35
-18.33
-18.31
-17.25
-15.32
-12.86
-10.16
-7.48
-4.99
-2.84
-1.21
-0.24
-0.02
-0.41
-1.14
-1.87
-2.36
-2.56
-2.54
-2.45
-2.39
-2.44
-2.68
-3.3
-4.52
-6.6
-9.65
-13.52
-17.81
-21.89
-25.08
-26.83
-26.86
-25.26
-22.44
-18.93
-15.32
-12.02
-9.19
-6.78
-4.6
-2.47
-0.31
1.82
3.77
5.32
6.33
6.78
6.81
6.64
6.5
6.6
7.03
7.77
8.66
9.38
9.51
8.67
6.67
3.59
-0.25
-4.39
-8.51
-12.46
-16.28
-20.05
-23.78
-27.41
-30.83
-33.99
-36.84
-39.28
-41.0
-41.59
-40.68
-38.12
-34.15
-29.19
-23.63
-17.68
-11.33
-4.54
2.55
9.51
15.79
20.93
24.75
27.47
29.48
31.13
32.53
33.55
33.87
33.21
31.45
28.7
25.21
21.36
17.49
13.93
10.85
8.4
6.65
5.59
5.13
5.04
4.95
4.44
3.05
0.56
-3.03
-7.52
-12.66
-18.27
-24.23
-30.34
-36.16
-40.99
-44.07
-44.8
-43.0
-38.86
-32.74
-25.05
-16.2
-6.64
2.96
11.79
19.0
24.06
26.83
27.65
27.03
25.49
23.48
21.31
19.22
17.38
15.93
14.92
14.31
