13.18
11.6
9.95
7.93
5.36
2.14
-1.69
-6.05
-10.86
-16.11
-21.82
-27.95
-34.36
-40.73
-46.65
-51.73
-55.75
-58.76
-61.04
-62.97
-64.91
-67.02
-69.35
-71.89
-74.7
-77.82
-81.02
-83.54
-84.04
-81.01
-73.51
-61.72
-47.23
-32.39
-19.39
-9.33
-1.92
4.07
10.02
16.81
24.69
33.71
44.14
56.5
71.14
87.57
104.21
118.73
128.93
133.64
133.17
129.13
123.75
119.06
116.42
116.26
118.17
121.27
124.34
126.07
125.35
121.45
114.15
103.89
91.64
78.79
66.86
57.16
50.49
46.93
45.84
46.07
46.3
45.51
43.23
39.57
35.15
30.83
27.48
25.76
25.98
27.95
30.95
33.8
35.22
34.26
30.69
25.16
18.89
13.12
8.51
4.9
1.42
-3.08
-9.47
-18.03
-28.31
-39.37
-50.12
-59.66
-67.52
-73.73
-78.71
-83.15
-87.78
-93.21
-99.78
-107.33
-115.2
-122.19
-126.9
-128.13
-125.35
-119.06
-110.7
-102.21
-95.27
-90.78
-88.47
-87.17
-85.26
-81.3
-74.47
-64.86
-53.35
-41.32
-30.23
-21.1
-14.29
-9.47
-5.88
-2.79
0.32
3.6
7.07
10.74
14.72
19.01
23.36
27.25
30.02
31.24
31.06
30.13
29.36
29.43
30.45
31.86
32.85
32.79
31.64
30.01
28.82
28.84
30.24
32.52
34.72
35.88
35.4
33.1
29.17
23.97
17.92
11.54
5.52
0.7
-2.06
-2.21
0.31
5.0
10.93
17.09
22.64
27.13
30.5
33.05
35.13
37.06
38.88
40.39
41.23
41.13
40.06
38.37
36.62
35.36
34.84
34.95
35.26
35.31
34.8
33.71
32.22
30.51
28.66
26.56
24.04
20.95
17.32
13.3
9.21
5.28
1.65
-1.69
-4.89
-8.1
-11.44
-14.88
-18.34
-21.67
-24.8
-27.71
-30.44
-33.07
-35.71
-38.51
-41.66
-45.35
-49.67
-54.43
-59.12
-62.95
-65.03
-64.65
-61.53
-55.9
-48.43
-39.96
-31.32
-23.05
-15.38
-8.32
-1.72
4.57
10.64
16.51
22.09
27.19
31.6
35.13
37.67
39.28
40.17
40.6
40.86
41.15
41.62
42.26
43.03
43.8
44.38
44.56
44.18
43.17
41.66
39.87
38.09
36.48
35.08
33.77
32.39
30.81
29.06
27.24
25.51
23.98
22.75
21.78
21.03
20.42
19.84
19.17
18.33
17.25
15.98
14.61
13.25
11.95
10.64
9.14
7.24
4.85
1.99
-1.12
-4.24
-7.14
-9.7
-11.91
-13.83
-15.56
-17.21
-18.87
-20.62
-22.53
-24.6
-26.8
-29.07
-31.35
-33.6
-35.83
-38.15
-40.74
-43.7
-46.99
-50.18
-52.51
-53.01
-50.85
-45.7
-37.99
-28.78
-19.4
-10.99
-4.15
1.14
5.27
8.71
11.81
14.69
17.35
19.77
21.89
23.6
24.68
24.89
24.1
22.42
20.26
18.2
16.86
16.62
17.6
19.6
22.22
24.95
27.3
28.91
29.7
29.8
29.53
29.21
29.05
29.02
28.95
28.62
27.86
26.59
24.8
22.5
19.77
16.73
13.58
10.56
7.87
5.52
3.37
1.2
-1.16
-3.74
-6.39
-8.91
-11.06
-12.72
-13.9
-14.66
-15.15
-15.52
-15.9
-16.4
-17.06
-17.85
-18.7
-19.55
-20.39
-21.28
-22.36
-23.74
-25.45
-27.34
-29.1
-30.32
-30.63
-29.77
-27.73
-24.71
-21.09
-17.27
-13.6
-10.33
-7.52
-5.11
-2.92
-0.76
1.53
4.0
6.58
9.16
11.57
13.65
15.32
16.57
17.42
17.98
18.36
18.64
18.87
19.05
19.15
19.14
19.01
18.72
18.27
17.65
16.88
15.98
15.01
14.01
13.03
12.09
11.12
10.06
8.87
7.55
6.15
4.73
3.35
2.04
0.83
-0.23
-1.14
-1.91
-2.62
-3.37
-4.22
-5.16
-6.1
-6.95
-7.66
-8.26
-8.84
-9.48
-10.2
-10.97
-11.79
-12.68
-13.74
-15.06
-16.69
-18.63
-20.82
-23.15
-25.48
-27.57
-29.15
-29.88
-29.56
-28.16
-25.93
-23.26
-20.54
-18.03
-15.74
-13.49
-11.07
-8.42
-5.61
-2.87
-0.45
1.49
2.93
3.93
4.48
4.51
3.94
2.75
1.12
-0.6
-2.0
-2.77
-2.85
-2.38
-1.63
-0.82
-0.01
0.87
1.92
3.15
4.39
5.4
5.99
6.1
5.83
5.38
4.95
4.62
4.39
4.16
3.8
3.25
2.48
1.47
0.23
-1.22
-2.89
-4.67
-6.43
-8.02
-9.25
-10.02
-10.32
-10.23
-9.9
-9.53
-9.27
-9.24
-9.47
-9.97
-10.7
-11.67
-12.85
-14.23
-15.77
-17.47
-19.29
-21.21
-23.14
-24.88
-26.07
-26.3
-25.26
-22.95
-19.69
-16.08
-12.7
-9.96
-7.98
-6.61
-5.68
-5.03
-4.53
-4.06
-3.39
-2.28
-0.58
1.56
3.8
5.65
6.72
6.9
6.34
5.45
4.59
3.98
3.63
3.44
3.29
3.13
3.02
2.97
2.96
2.82
2.4
1.63
0.63
-0.4
-1.3
-2.08
-2.93
-4.09
-5.7
-7.65
-9.72
-11.61
-13.18
-14.36
-15.2
-15.76
-15.99
-15.87
-15.34
-14.45
-13.29
-11.98
-10.69
-9.57
-8.85
-8.72
-9.33
-10.67
-12.54
-14.6
-16.46
-17.79
-18.34
-18.02
-16.86
-15.05
-12.89
-10.71
-8.76
-7.14
-5.76
-4.42
-2.93
-1.21
0.71
2.7
4.65
6.46
8.12
9.6
10.89
11.93
12.67
13.09
13.25
13.19
12.99
12.68
12.27
11.7
10.91
9.89
8.68
7.42
6.27
5.38
4.81
4.54
4.43
4.35
4.24
4.11
4.04
4.06
4.08
3.93
3.42
2.49
1.18
-0.32
-1.84
-3.23
-4.49
-5.64
-6.79
-8.0
-9.26
-10.51
-11.63
-12.44
-12.73
-12.41
-11.5
-10.29
-9.27
-9.04
-10.18
-12.97
-17.21
-22.24
-26.93
-30.16
-31.14
-29.69
-26.36
-22.12
-18.0
-14.66
-12.31
-10.72
-9.46
-8.15
-6.53
-4.49
-2.0
0.88
3.93
6.81
9.07
10.35
10.43
9.43
7.69
5.74
4.05
2.97
2.59
2.75
3.15
3.44
3.39
2.95
2.35
1.96
2.14
3.1
4.75
6.76
8.68
10.07
10.66
10.45
9.7
8.8
8.12
7.87
8.05
8.43
8.68
8.6
8.17
7.54
6.96
6.61
6.5
6.51
6.46
6.27
5.93
5.47
4.89
4.08
2.92
1.35
-0.58
-2.75
-5.07
-7.61
-10.61
-14.33
-18.88
-24.1
-29.54
-34.57
-38.61
-41.26
-42.32
-41.76
-39.64
-36.1
-31.38
-25.95
-20.36
-15.23
-11.02
-7.97
-6.0
-4.82
-4.03
-3.26
-2.28
-1.04
0.41
1.91
3.32
4.5
5.44
6.22
6.99
7.86
8.9
10.02
11.03
11.73
11.98
11.81
11.34
10.75
10.14
9.52
8.8
7.89
6.78
5.53
4.27
3.08
2.01
1.01
0.04
-0.93
-1.9
-2.87
-3.85
-4.95
-6.34
-8.22
-10.74
-13.95
-17.74
-21.79
-25.7
-29.02
-31.34
-32.43
-32.2
-30.7
-28.06
-24.51
-20.4
-16.14
-12.12
-8.59
-5.56
-2.83
-0.13
2.73
5.76
8.78
11.58
14.04
16.16
18.0
19.63
21.07
22.31
23.39
24.45
25.69
27.21
28.92
30.5
31.51
31.56
30.51
28.49
25.94
23.35
21.15
19.61
18.81
18.63
18.85
19.22
19.47
19.43
19.09
18.68
18.58
19.16
20.57
22.59
24.69
26.18
26.51
25.45
23.11
19.86
16.11
12.16
8.19
4.23
0.16
-4.22
-9.27
-15.41
-22.93
-31.86
-41.73
-51.6
-60.27
-66.62
-70.09
-70.75
-69.35
-66.88
-64.21
-61.71
-59.2
-56.18
-52.11
-46.71
-40.09
-32.61
-24.71
-16.8
-9.22
-2.26
3.77
8.59
12.13
14.65
16.75
19.24
22.75
27.54
33.33
39.4
44.95
49.33
52.25
53.76
54.1
53.65
52.7
51.49
50.11
48.57
46.72
44.34
41.22
37.33
32.88
28.27
23.9
20.01
16.55
13.22
9.66
5.61
1.04
-3.85
-8.83
-13.77
-18.75
-23.99
-29.65
-35.61
-41.4
-46.21
-49.13
-49.39
-46.69
-41.27
-33.96
-25.89
-18.22
-11.89
-7.38
-4.75
-3.69
-3.69
-4.17
-4.52
-4.23
-2.85
-0.14
3.94
9.22
15.3
21.65
27.79
33.3
37.89
41.53
44.31
46.4
47.92
48.9
49.29
49.07
48.34
47.36
46.43
45.75
45.16
44.23
42.27
38.68
33.24
26.11
17.95
9.57
1.76
-5.0
-10.61
-15.32
-19.53
-23.6
-27.66
-31.58
-35.07
-37.84
-39.68
-40.47
-40.17
-38.75
-36.14
-32.36
-27.56
-22.11
-16.55
-11.39
-6.95
-3.23
0.02
3.18
6.51
10.07
13.7
17.07
19.87
21.83
22.89
23.14
22.83
22.31
21.92
21.91
22.33
23.04
23.75
24.16
24.05
23.41
22.36
21.14
19.99
19.04
18.33
17.78
17.29
16.7
15.96
15.05
14.02
12.96
11.93
10.93
9.92
8.79
7.42
5.7
3.56
0.99
-1.92
-4.95
-7.77
-9.99
-11.28
-11.5
-10.74
-9.26
-7.41
-5.49
-3.64
-1.89
-0.23
1.35
2.76
3.97
4.95
5.82
6.64
7.48
8.23
8.77
8.99
8.86
8.49
8.04
7.67
7.44
7.33
7.26
7.12
6.83
6.36
5.69
4.89
4.0
3.09
2.19
1.3
0.39
-0.56
-1.52
-2.46
-3.36
-4.26
-5.24
-6.33
-7.51
-8.7
-9.79
-10.74
-11.64
-12.65
-13.86
-15.2
-16.38
-17.02
-16.78
-15.53
-13.44
-10.83
-8.08
-5.48
-3.22
-1.34
0.16
1.34
2.28
3.1
3.89
4.71
5.51
6.21
6.69
6.89
6.79
6.46
5.95
5.34
4.74
4.26
3.99
4.01
4.29
4.73
5.15
5.43
5.44
5.17
4.63
3.89
2.98
1.93
0.78
-0.43
-1.59
-2.65
-3.57
-4.39
-5.23
-6.17
-7.23
-8.37
-9.49
-10.46
-11.26
-11.91
-12.47
-12.99
-13.49
-13.96
-14.4
-14.81
-15.25
-15.81
-16.54
-17.51
-18.64
-19.74
-20.48
-20.46
-19.42
-17.31
-14.41
-11.22
-8.27
-5.94
-4.32
-3.26
-2.46
-1.72
-0.97
-0.27
0.3
0.71
1.02
1.32
1.69
2.09
2.46
2.7
2.8
2.78
2.72
2.65
2.56
2.42
2.2
1.93
1.66
1.47
1.42
1.55
1.84
2.28
2.84
3.49
4.16
4.76
5.23
5.55
5.81
6.16
6.72
7.53
8.47
9.33
9.87
9.91
9.43
8.49
7.25
5.8
4.23
2.56
0.82
-0.98
-2.8
-4.61
-6.43
-8.28
-10.18
-12.12
-14.02
-15.77
-17.25
-18.4
-19.23
-19.81
-20.19
-20.41
-20.48
-20.41
-20.22
-19.98
-19.81
-19.85
-20.27
-21.21
-22.74
-24.75
-26.93
-28.8
-29.77
-29.37
-27.44
-24.17
-20.05
-15.74
-11.83
-8.74
-6.68
-5.65
-5.47
-5.82
-6.26
-6.31
-5.59
-3.93
-1.44
1.53
4.54
7.12
9.02
10.14
10.58
10.55
10.29
9.99
9.8
9.77
9.88
10.06
10.22
10.28
10.22
10.05
9.84
9.69
9.72
10.06
10.84
12.12
13.8
15.6
17.1
17.89
17.72
16.56
14.6
12.11
9.22
5.91
1.99
-2.68
-8.11
-14.02
-19.99
-25.57
-30.48
-34.69
-38.29
-41.42
-44.14
-46.42
-48.22
-49.63
-50.9
-52.34
-54.15
-56.18
-57.94
-58.73
-57.97
-55.41
-51.27
-46.08
-40.47
-34.91
-29.66
-24.82
-20.36
-16.28
-12.56
-9.18
-6.09
-3.26
-0.72
1.45
3.09
4.08
4.41
4.2
3.67
3.09
2.72
2.73
3.19
4.07
5.3
6.72
8.15
9.36
10.08
10.09
9.28
7.72
5.71
3.66
1.92
0.65
-0.24
-1.03
-2.03
-3.38
-5.03
-6.69
-8.13
-9.25
-10.21
-11.36
-13.17
-15.95
-19.86
-24.79
-30.41
-36.19
-41.49
-45.57
-47.83
-47.92
-45.82
-41.85
-36.63
-30.82
-25.01
-19.59
-14.74
-10.45
-6.53
-2.72
1.24
5.48
9.94
14.36
18.38
21.75
24.38
26.4
28.05
29.57
31.04
32.41
33.55
34.3
34.59
34.44
33.96
33.26
32.45
31.55
30.57
29.41
27.96
26.17
24.03
21.63
19.16
16.8
14.66
12.77
10.96
9.02
6.66
3.71
0.12
-3.98
-8.36
-12.75
-16.95
-20.95
-24.93
-29.25
-34.24
-40.04
-46.42
-52.71
-57.9
-60.93
-60.98
-57.77
-51.65
-43.43
-34.13
-24.71
-15.84
-7.81
-0.67
5.78
11.78
17.58
23.34
29.09
34.7
39.93
44.47
48.13
50.85
52.79
54.21
55.38
56.54
57.77
59.09
60.43
61.74
62.93
63.92
64.55
64.68
64.24
63.25
61.84
60.19
58.47
56.74
54.96
52.98
50.72
48.15
45.33
42.41
39.53
36.77
34.15
31.66
29.23
26.81
24.31
21.58
18.54
15.11
11.3
7.24
3.12
-0.86
-4.59
-8.1
-11.54
-15.15
-19.22
-23.99
-29.6
-35.91
-42.44
-48.33
-52.44
-53.66
-51.29
-45.32
-36.56
-26.35
-16.2
-7.24
0.02
5.75
10.51
14.97
19.56
24.39
29.34
34.15
38.58
42.46
45.66
48.11
49.76
50.69
51.06
51.2
51.42
51.96
52.83
53.83
54.61
54.83
54.32
53.11
51.41
49.46
47.44
45.39
43.33
41.2
38.91
36.35
33.36
29.87
25.93
21.71
17.51
13.55
9.89
6.44
3.01
-0.45
-3.83
-6.89
-9.43
-11.43
-13.14
-14.92
-17.13
-19.97
-23.38
-27.07
-30.55
-33.2
-34.38
-33.6
-30.67
-25.81
-19.59
-12.81
-6.28
-0.54
4.18
8.02
11.3
14.31
17.21
19.95
22.32
24.1
25.2
25.65
25.59
25.22
24.67
24.06
23.52
23.17
23.13
23.41
23.87
24.22
24.15
23.48
22.22
20.59
18.85
17.23
15.84
14.66
13.56
12.43
11.23
9.94
8.66
7.45
6.38
5.46
4.61
3.73
2.73
1.54
0.15
-1.44
-3.3
-5.44
-7.91
-10.64
-13.51
-16.35
-19.09
-21.76
-24.5
-27.41
-30.46
-33.35
-35.61
-36.72
-36.35
-34.45
-31.29
-27.33
-23.12
-19.07
-15.45
-12.33
-9.61
-7.13
-4.74
-2.32
0.13
2.53
4.72
6.58
8.04
9.11
9.89
10.47
10.9
11.16
11.22
11.09
10.83
10.52
10.24
10.01
9.76
9.39
8.83
8.05
7.13
6.19
5.36
4.71
4.24
3.87
3.46
2.89
2.08
1.09
0.03
-0.93
-1.67
-2.21
-2.63
-3.08
-3.66
-4.35
-5.09
-5.74
-6.25
-6.67
-7.11
-7.69
-8.47
-9.41
-10.41
-11.4
-12.3
-13.16
-14.02
-14.98
-16.08
-17.32
-18.68
-20.09
-21.56
-23.11
-24.8
-26.67
-28.56
-30.17
-31.11
-31.05
-29.87
-27.75
-25.08
-22.3
-19.7
-17.39
-15.28
-13.26
-11.31
-9.45
-7.78
-6.31
-4.95
-3.61
-2.18
-0.67
0.83
2.15
3.19
3.89
4.34
4.64
4.89
5.12
5.27
5.25
4.99
4.52
3.94
3.44
3.13
3.05
3.14
3.28
3.4
3.45
3.46
3.39
3.15
2.63
1.78
0.65
-0.58
-1.69
-2.49
-2.95
-3.18
-3.37
-3.71
-4.32
-5.16
-6.13
-7.08
-7.91
-8.58
-9.12
-9.6
-10.07
-10.55
-11.04
-11.52
-12.01
-12.59
-13.3
-14.14
-14.99
-15.7
-16.16
-16.41
-16.69
-17.31
-18.53
-20.36
-22.51
-24.51
-25.84
-26.17
-25.42
-23.74
-21.46
-18.93
-16.43
-14.17
-12.26
-10.77
-9.66
-8.85
-8.16
-7.44
-6.53
-5.4
-4.1
-2.77
-1.54
-0.51
0.27
0.79
1.07
1.2
1.25
1.33
1.55
1.96
2.59
3.39
4.28
5.14
5.88
6.39
6.61
6.53
6.24
5.85
5.51
5.32
5.26
5.21
5.01
4.54
3.8
2.88
1.93
1.08
0.4
-0.13
-0.57
-1.01
-1.51
-2.08
-2.69
-3.26
-3.69
-3.84
-3.69
-3.32
-3.0
-3.07
-3.9
-5.71
-8.48
-11.95
-15.67
-19.18
-22.15
-24.5
-26.35
-27.95
-29.48
-31.02
-32.47
-33.62
-34.24
-34.15
-33.24
-31.52
-29.06
-26.01
-22.56
-19.03
-15.72
-12.88
-10.59
-8.75
-7.13
-5.44
-3.53
-1.43
0.65
2.46
3.8
4.64
5.06
5.17
5.02
4.54
3.68
2.5
1.21
0.17
-0.31
-0.11
0.6
1.46
2.07
2.16
1.75
1.06
0.4
0.03
0.01
0.25
0.54
0.68
0.53
0.09
-0.59
-1.4
-2.29
-3.25
-4.3
-5.46
-6.7
-8.0
-9.32
-10.71
-12.32
-14.28
-16.7
-19.48
-22.34
-24.8
-26.35
-26.64
-25.55
-23.27
-20.21
-16.81
-13.47
-10.36
-7.51
-4.9
-2.47
-0.23
1.8
3.61
5.2
6.58
7.77
8.75
9.48
10.01
10.39
10.74
11.15
11.7
12.42
13.31
14.29
15.3
16.22
16.88
17.19
17.11
16.76
16.32
15.99
15.91
16.07
16.32
16.41
16.12
15.29
13.92
12.12
10.1
8.04
6.06
4.15
2.23
0.17
-2.12
-4.61
-7.22
-9.77
-12.2
-14.52
-16.85
-19.39
-22.32
-25.76
-29.66
-33.86
-38.0
-41.62
-44.16
-45.13
-44.2
-41.37
-36.94
-31.46
-25.58
-19.92
-14.84
-10.51
-6.84
-3.62
-0.56
2.56
5.88
9.37
12.81
15.96
18.53
20.4
21.57
22.18
22.46
22.61
22.83
23.26
24.01
25.1
26.42
27.73
28.73
29.15
28.92
28.22
27.36
26.66
26.28
26.16
26.05
25.69
24.91
23.75
22.38
21.01
19.83
18.93
18.3
17.82
17.36
16.76
15.88
14.67
13.17
11.48
9.74
8.01
6.23
4.28
2.01
-0.6
-3.52
-6.63
-9.8
-12.95
-16.09
-19.22
-22.34
-25.49
-28.8
-32.39
-36.37
-40.61
-44.61
-47.62
-48.79
-47.56
-43.91
-38.38
-31.8
-25.0
-18.53
-12.65
-7.36
-2.62
1.64
5.49
9.04
12.52
16.13
19.94
23.84
27.51
30.61
32.85
34.15
34.67
34.71
34.63
34.7
35.05
35.61
36.19
36.58
36.6
36.26
35.65
34.88
34.04
33.13
32.14
31.08
30.06
29.18
28.5
27.94
27.37
26.65
25.74
24.72
23.7
22.78
21.94
21.04
19.98
18.69
17.26
15.76
14.28
12.77
11.14
9.31
7.27
5.1
2.91
0.76
-1.37
-3.53
-5.78
-8.09
-10.36
-12.49
-14.42
-16.26
-18.17
-20.42
-23.13
-26.28
-29.57
-32.49
-34.44
-34.86
-33.49
-30.43
-26.11
-21.16
-16.23
-11.78
-8.04
-4.98
-2.43
-0.19
1.96
4.16
6.54
9.12
11.84
14.53
16.91
18.75
19.94
20.52
20.68
20.68
20.69
20.73
20.73
20.61
20.34
19.98
19.61
19.27
18.87
18.27
17.36
16.16
14.83
13.56
12.49
11.61
10.81
9.92
8.85
7.62
6.4
5.32
4.45
3.7
2.87
1.76
0.26
-1.56
-3.5
-5.33
-6.92
-8.31
-9.69
-11.32
-13.33
-15.71
-18.23
-20.56
-22.32
-23.22
-23.06
-21.82
-19.63
-16.76
-13.58
-10.42
-7.6
-5.27
-3.48
-2.09
-0.93
0.16
1.34
2.67
4.14
5.65
7.08
8.28
9.18
9.75
10.15
10.52
11.05
11.81
12.75
13.71
14.46
14.84
14.74
14.23
13.43
12.5
11.52
10.57
9.67
8.85
8.15
7.61
7.19
6.8
6.32
5.66
4.8
3.82
2.87
2.04
1.38
0.78
0.15
-0.6
-1.48
-2.38
-3.18
-3.81
-4.29
-4.74
-5.32
-6.16
-7.32
-8.74
-10.28
-11.8
-13.17
-14.34
-15.32
-16.19
-17.05
-18.08
-19.42
-21.15
-23.2
-25.27
-26.92
-27.69
-27.26
-25.57
-22.87
-19.63
-16.32
-13.32
-10.81
-8.79
-7.16
-5.77
-4.51
-3.26
-1.94
-0.44
1.26
3.14
5.05
6.76
8.01
8.65
8.67
8.24
7.65
7.18
6.97
7.05
7.31
7.65
8.0
8.32
8.57
8.65
8.44
7.85
6.92
5.81
4.79
4.03
3.58
3.32
3.03
2.47
1.54
0.3
-1.1
-2.45
-3.63
-4.58
-5.38
-6.13
-6.95
-7.93
-9.12
-10.48
-11.97
-13.48
-14.94
-16.29
-17.52
-18.69
