-59.61
-67.06
-73.79
-78.67
-80.73
-79.36
-74.53
-66.86
-57.36
-47.14
-37.12
-27.83
-19.41
-11.74
-4.62
2.17
8.71
14.99
20.94
26.43
31.26
35.26
38.3
40.38
41.58
42.14
42.33
42.45
42.71
43.21
43.9
44.66
45.27
45.54
45.35
44.66
43.52
42.07
40.43
38.7
36.97
35.28
33.66
32.09
30.55
29.0
27.41
25.8
24.2
22.66
21.13
19.47
17.53
15.17
12.39
9.32
6.22
3.31
0.69
-1.7
-4.09
-6.75
-9.86
-13.5
-17.59
-21.96
-26.37
-30.61
-34.59
-38.3
-41.9
-45.67
-49.96
-55.04
-60.97
-67.46
-73.78
-78.89
-81.65
-81.19
-77.14
-69.84
-60.16
-49.31
-38.46
-28.47
-19.79
-12.45
-6.14
-0.44
5.05
10.58
16.14
21.54
26.48
30.68
33.98
36.31
37.73
38.37
38.42
38.08
37.64
37.33
37.34
37.7
38.27
38.75
38.84
38.33
37.13
35.4
33.37
31.33
29.44
27.76
26.21
24.67
23.03
21.2
19.14
16.8
14.16
11.27
8.23
5.25
2.46
-0.05
-2.37
-4.69
-7.19
-9.98
-13.02
-16.19
-19.33
-22.36
-25.29
-28.27
-31.47
-35.1
-39.32
-44.22
-49.75
-55.58
-61.14
-65.57
-67.93
-67.45
-63.82
-57.33
-48.74
-39.09
-29.32
-20.07
-11.62
-3.97
2.95
9.24
14.97
20.22
25.04
29.49
33.48
36.83
39.29
40.77
41.34
41.29
40.99
40.73
40.65
40.7
40.74
40.65
40.33
39.79
39.05
38.09
36.88
35.36
33.53
31.4
29.11
26.77
24.5
22.31
20.18
17.98
15.57
12.86
9.89
6.82
3.86
1.17
-1.25
-3.59
-6.13
-9.11
-12.58
-16.4
-20.29
-23.96
-27.21
-30.05
-32.6
-35.12
-37.9
-41.25
-45.41
-50.44
-56.1
-61.73
-66.36
-68.95
-68.65
-65.16
-58.83
-50.52
-41.29
-32.12
-23.6
-15.93
-9.02
-2.66
3.33
9.02
14.46
19.64
24.53
29.04
33.0
36.19
38.43
39.64
39.99
39.77
39.37
39.11
39.15
39.45
39.86
40.13
40.07
39.57
38.61
37.29
35.7
33.98
32.21
30.45
28.74
27.12
25.62
24.2
22.8
21.31
19.64
17.79
15.84
13.94
12.22
10.7
9.25
7.68
5.83
3.62
1.14
-1.43
-3.9
-6.15
-8.22
-10.26
-12.52
-15.18
-18.32
-21.89
-25.73
-29.69
-33.63
-37.45
-41.13
-44.69
-48.23
-51.98
-56.17
-60.89
-65.92
-70.61
-74.0
-75.09
-73.18
-68.21
-60.76
-51.8
-42.4
-33.4
-25.24
-18.06
-11.79
-6.32
-1.55
2.65
6.39
9.82
12.95
15.71
17.9
19.37
20.0
19.85
19.13
18.09
17.01
16.08
15.43
15.1
15.03
15.07
14.94
14.35
13.08
11.03
8.32
5.26
2.29
-0.08
-1.39
-1.27
0.43
3.6
7.97
13.12
18.64
24.3
30.06
36.07
42.44
49.17
55.9
62.07
66.96
70.0
70.89
69.63
66.45
61.53
54.91
46.44
35.86
23.1
8.32
-7.91
-24.71
-41.02
-55.77
-67.96
-76.82
-81.89
-83.07
-80.7
-75.47
-68.34
-60.24
-51.94
-43.9
-36.22
-28.84
-21.63
-14.58
-7.8
-1.54
3.99
8.6
12.27
15.08
17.18
18.85
20.35
21.96
23.86
26.13
28.67
31.28
33.66
35.52
36.62
36.83
36.12
34.55
32.34
29.73
27.05
24.52
22.23
20.12
18.05
15.83
13.36
10.62
7.7
4.74
1.82
-1.03
-3.9
-6.88
-10.05
-13.45
-17.01
-20.68
-24.35
-27.95
-31.42
-34.68
-37.67
-40.35
-42.75
-45.01
-47.4
-50.27
-53.92
-58.42
-63.49
-68.5
-72.51
-74.59
-74.03
-70.57
-64.48
-56.46
-47.44
-38.33
-29.86
-22.38
-15.93
-10.33
-5.3
-0.59
3.96
8.35
12.55
16.41
19.81
22.61
24.7
26.02
26.67
26.83
26.81
26.89
27.25
27.93
28.81
29.75
30.58
31.18
31.45
31.36
30.87
30.01
28.88
27.61
26.33
25.08
23.8
22.33
20.53
18.35
15.88
13.32
10.87
8.67
6.75
4.97
3.2
1.32
-0.74
-2.96
-5.35
-7.92
-10.78
-14.03
-17.78
-22.08
-26.96
-32.36
-38.14
-43.96
-49.26
-53.29
-55.27
-54.67
-51.34
-45.67
-38.41
-30.49
-22.71
-15.58
-9.29
-3.78
1.1
5.52
9.53
13.14
16.33
19.07
21.32
23.01
24.14
24.72
24.89
24.86
24.9
25.17
25.73
26.48
27.21
27.75
27.98
27.89
27.51
26.88
25.97
24.7
23.01
20.86
18.3
15.38
12.18
8.73
5.05
1.17
-2.86
-6.96
-11.04
-15.01
-18.81
-22.39
-25.8
-29.09
-32.4
-35.86
-39.59
-43.66
-48.1
-52.84
-57.78
-62.66
-67.03
-70.22
-71.48
-70.15
-65.92
-58.94
-49.82
-39.49
-28.89
-18.76
-9.49
-1.2
6.24
12.97
19.09
24.68
29.73
34.22
38.14
41.46
44.14
46.12
47.37
47.94
47.99
47.72
47.35
47.01
46.67
46.26
45.63
44.73
43.56
42.17
40.63
38.95
37.08
34.99
32.66
30.14
27.57
25.07
22.74
20.59
18.59
16.66
14.75
12.8
10.76
8.58
6.2
3.56
0.69
-2.37
-5.53
-8.78
-12.13
-15.63
-19.31
-23.14
-26.99
-30.73
-34.27
-37.73
-41.37
-45.57
-50.63
-56.6
-63.14
-69.52
-74.74
-77.81
-78.01
-75.09
-69.27
-61.16
-51.52
-41.15
-30.8
-21.1
-12.57
-5.51
0.16
4.86
9.31
14.32
20.5
28.04
36.71
45.9
54.7
62.14
67.25
69.25
67.78
63.06
56.06
48.27
41.32
36.47
34.16
33.92
34.71
35.43
35.42
34.61
33.38
32.16
31.12
30.05
28.57
26.39
23.53
20.26
16.92
13.7
10.53
7.25
3.78
0.2
-3.2
-6.13
-8.43
-10.23
-11.87
-13.78
-16.33
-19.67
-23.69
-28.09
-32.48
-36.5
-39.94
-42.89
-45.7
-48.9
-52.97
-58.18
-64.31
-70.67
-76.24
-79.84
-80.54
-77.82
-71.8
-63.12
-52.76
-41.79
-31.15
-21.5
-13.12
-6.02
0.07
5.53
10.74
15.94
21.16
26.21
30.76
34.51
37.25
39.04
40.06
40.58
40.87
41.06
41.24
41.44
41.66
41.87
42.02
41.97
41.54
40.59
39.07
37.08
34.77
32.28
29.64
26.78
23.6
20.04
16.19
12.24
8.42
4.87
1.57
-1.59
-4.82
-8.23
-11.83
-15.53
-19.27
-23.05
-27.02
-31.42
-36.52
-42.41
-48.89
-55.38
-61.02
-64.74
-65.62
-63.13
-57.31
-48.79
-38.59
-27.84
-17.46
-7.97
0.45
7.91
14.55
20.51
25.81
30.48
34.55
38.08
41.05
43.41
45.03
45.79
45.73
45.06
44.13
43.36
43.06
43.31
43.98
44.75
45.23
45.16
44.4
43.03
41.27
39.35
37.41
35.43
33.26
30.68
27.51
23.75
19.56
15.24
11.09
7.32
4.05
1.21
-1.41
-4.04
-6.93
-10.22
-13.93
-17.97
-22.15
-26.29
-30.28
-34.13
-38.03
-42.26
-47.15
-52.89
-59.41
-66.22
-72.43
-76.86
-78.4
-76.28
-70.42
-61.44
-50.46
-38.79
-27.51
-17.29
-8.32
-0.48
6.5
12.89
18.94
24.8
30.45
35.77
40.46
44.17
46.67
47.96
48.31
48.1
47.73
47.41
47.19
47.02
46.84
46.61
46.32
45.9
45.24
44.23
42.85
41.15
39.26
37.32
35.41
33.57
31.78
30.0
28.2
26.3
24.27
22.04
19.55
16.8
13.82
10.66
7.39
4.03
0.6
-2.93
-6.62
-10.55
-14.74
-19.16
-23.69
-28.12
-32.29
-36.12
-39.72
-43.34
-47.38
-52.16
-57.84
-64.22
-70.7
-76.34
-80.07
-80.94
-78.43
-72.59
-64.07
-53.87
-43.06
-32.51
-22.74
-13.89
-5.85
1.58
8.6
15.35
21.86
28.07
33.81
38.82
42.85
45.76
47.54
48.4
48.62
48.49
48.21
47.83
47.36
46.71
45.84
44.71
43.28
41.53
39.5
37.26
34.91
32.56
30.23
27.87
25.38
22.63
19.58
16.31
12.95
9.66
6.57
3.68
0.9
-1.91
-4.87
-7.98
-11.16
-14.29
-17.31
-20.25
-23.3
-26.69
-30.63
-35.2
-40.24
-45.31
-49.76
-52.81
-53.72
-52.08
-47.87
-41.53
-33.85
-25.71
-17.85
-10.68
-4.34
1.28
6.35
11.03
15.42
19.47
23.05
25.99
28.1
29.35
29.82
29.78
29.62
29.63
29.99
30.66
31.48
32.22
32.7
32.81
32.52
31.8
30.65
29.11
27.25
25.21
23.13
21.09
19.08
16.97
14.64
11.98
9.04
5.98
3.03
0.36
-1.98
-4.06
-6.06
-8.13
-10.37
-12.77
-15.27
-17.8
-20.34
-22.89
-25.53
-28.36
-31.5
-35.06
-39.09
-43.5
-47.97
-51.92
-54.63
-55.42
-53.82
-49.84
-43.91
-36.8
-29.36
-22.32
-16.12
-10.83
-6.28
-2.13
1.92
6.0
10.04
13.82
17.13
19.79
21.79
23.2
24.14
24.7
24.97
25.03
24.97
24.93
25.02
25.25
25.5
25.61
25.39
24.78
23.82
22.63
21.33
20.0
18.7
17.45
16.27
15.12
13.99
12.8
11.49
9.99
8.3
6.41
4.41
2.39
0.47
-1.29
-2.89
-4.43
-6.08
-7.97
-10.14
-12.49
-14.85
-17.11
-19.29
-21.52
-24.02
-26.92
-30.2
-33.74
-37.39
-41.04
-44.56
-47.69
-50.0
-50.92
-49.93
-46.82
-41.86
-35.7
-29.2
-23.1
-17.76
-13.19
-9.18
-5.45
-1.83
1.71
5.12
8.34
11.33
13.99
16.19
17.8
18.7
18.95
18.7
18.25
17.9
17.85
18.19
18.84
19.67
20.49
21.14
21.5
21.47
21.05
20.24
19.09
17.67
16.09
14.48
12.96
11.63
10.53
9.55
8.54
7.36
5.92
4.27
2.55
0.92
-0.56
-1.92
-3.3
-4.89
-6.8
-9.01
-11.43
-13.87
-16.17
-18.19
-19.95
-21.53
-23.17
-25.12
-27.58
-30.63
-34.13
-37.69
-40.74
-42.62
-42.82
-41.06
-37.45
-32.46
-26.79
-21.14
-16.0
-11.6
-7.9
-4.69
-1.81
0.87
3.36
5.64
7.71
9.58
11.23
12.62
13.65
14.26
14.45
14.33
14.08
13.92
14.03
14.48
15.2
16.02
16.7
17.01
16.84
16.16
15.08
13.75
12.3
10.83
9.35
7.87
6.41
4.96
3.58
2.24
0.9
-0.53
-2.14
-3.99
-6.06
-8.28
-10.49
-12.55
-14.36
-15.96
-17.5
-19.24
-21.43
-24.24
-27.61
-31.19
-34.4
-36.56
-37.11
-35.79
-32.69
-28.26
-23.15
-17.98
-13.16
-8.89
-5.11
-1.71
1.37
4.2
6.8
9.17
11.34
13.27
14.91
16.13
16.87
17.12
17.04
16.84
16.74
16.91
17.32
17.89
18.45
18.83
18.96
18.79
18.36
17.77
17.07
16.35
15.6
14.81
13.95
13.04
12.07
11.08
10.03
8.9
7.65
6.33
5.06
4.01
3.3
2.84
2.48
1.96
1.12
-0.06
-1.52
-3.19
-5.08
-7.26
-9.8
-12.64
-15.57
-18.29
-20.56
-22.34
-23.83
-25.36
-27.3
-29.85
-33.02
-36.6
-40.12
-43.04
-44.72
-44.7
-42.75
-39.01
-33.95
-28.26
-22.68
-17.69
-13.56
-10.21
-7.4
-4.82
-2.24
0.46
3.3
6.22
9.07
11.71
13.93
15.63
16.76
17.43
17.84
18.25
18.84
19.66
20.61
21.52
22.23
22.63
22.7
22.48
22.0
21.28
20.37
19.33
18.29
17.34
16.57
15.94
15.37
14.73
13.92
12.9
11.74
10.55
9.43
8.47
7.71
7.11
6.59
6.04
5.34
4.38
3.11
1.5
-0.39
-2.45
-4.59
-6.77
-9.05
-11.52
-14.3
-17.44
-20.86
-24.39
-27.78
-30.85
-33.53
-35.94
-38.33
-41.0
-44.21
-48.02
-52.21
-56.3
-59.58
-61.38
-61.15
-58.71
-54.21
-48.12
-41.13
-33.98
-27.31
-21.51
-16.58
-12.14
-7.55
-2.19
4.21
11.38
18.46
24.26
27.66
27.99
25.36
20.66
15.44
11.5
10.46
13.31
20.15
30.09
41.53
52.53
61.36
66.84
68.57
66.83
62.43
56.41
49.93
44.14
40.02
38.28
39.15
42.42
47.48
53.6
60.0
65.91
70.44
72.56
71.21
65.54
55.32
41.11
24.31
6.88
-9.06
-21.69
-29.83
-33.29
-32.9
-30.32
-27.59
-26.43
-27.77
-31.49
-36.62
-41.78
-45.76
-47.72
-47.39
-44.86
-40.59
-35.31
-29.97
-25.62
-23.22
-23.27
-25.71
-29.75
-34.19
-37.78
-39.68
-39.65
-38.16
-36.05
-34.18
-33.11
-32.87
-33.02
-32.73
-31.08
-27.35
-21.43
-13.89
-5.94
1.18
6.71
10.87
14.67
19.17
24.67
30.24
34.12
34.62
31.09
24.36
16.25
8.62
2.57
-1.81
-5.04
-7.58
-9.42
-10.22
-9.69
-8.0
-5.85
-4.14
-3.59
-4.42
-6.36
-8.81
-11.2
-13.12
-14.5
-15.55
-16.59
-17.87
-19.48
-21.2
-22.61
-23.15
-22.29
-19.7
-15.29
-9.31
-2.22
5.26
12.35
18.32
22.68
25.33
26.52
26.77
26.59
26.37
26.21
26.07
25.89
25.67
25.5
25.44
25.43
25.35
25.08
24.62
24.11
23.83
23.99
24.64
25.68
26.9
28.03
28.87
29.22
28.91
27.81
25.88
23.26
20.18
17.02
14.07
11.52
9.35
7.33
5.16
2.56
-0.55
-4.06
-7.63
-10.95
-13.87
-16.54
-19.37
-22.81
-27.1
-32.07
-37.25
-42.04
-46.11
-49.59
-53.03
-57.05
-61.9
-67.16
-71.76
-74.46
-74.22
-70.7
-64.21
-55.58
-45.91
-36.44
-28.54
-23.59
-22.59
-25.57
-31.1
-36.39
-38.29
-34.71
-25.82
-14.11
-3.31
3.41
4.86
2.26
-1.73
-4.49
-4.55
-1.91
2.66
8.51
15.63
24.42
35.02
46.81
58.41
68.2
75.12
79.05
80.79
81.63
82.72
84.58
86.97
89.06
89.86
88.61
85.14
79.82
73.39
66.64
60.07
53.79
47.63
41.32
34.76
28.11
21.74
16.07
11.38
7.81
5.42
4.27
4.49
6.24
9.59
14.42
20.32
26.73
33.03
38.77
43.68
47.72
50.87
53.14
54.5
54.91
54.3
52.57
49.69
45.63
40.46
34.36
27.52
20.11
12.09
3.28
-6.58
-17.62
-29.63
-42.04
-54.03
-64.81
-73.79
-80.79
-85.93
-89.6
-92.2
-94.12
-95.62
-96.89
-97.99
-98.89
-99.41
-99.35
-98.53
-96.85
-94.41
-91.4
-88.12
-84.94
-82.28
-80.57
-80.09
-80.8
-82.07
-82.76
-81.4
-76.71
-68.18
-56.39
-42.95
-29.92
-19.17
-11.75
-7.61
-5.85
-5.11
-4.1
-1.95
1.7
6.78
12.94
19.61
26.18
32.1
36.91
40.39
42.6
43.92
44.93
46.35
48.79
52.58
57.57
63.03
67.86
70.79
70.78
67.42
61.06
52.76
44.02
36.24
30.33
26.45
24.07
22.27
20.18
17.35
13.86
10.19
6.94
4.59
3.37
3.41
4.74
7.33
10.97
15.22
19.36
22.56
24.17
23.89
21.86
18.63
15.05
12.07
10.54
10.98
13.31
16.84
20.33
22.5
22.4
19.67
14.63
7.91
0.15
-8.18
-16.77
-25.24
-33.05
-39.52
-44.07
-46.43
-46.73
-45.33
-42.68
-39.18
-35.23
-31.21
-27.49
-24.37
-21.92
-19.91
-17.93
-15.48
-12.29
-8.42
-4.18
-0.01
3.76
6.98
9.72
12.11
14.27
16.24
18.1
19.99
22.17
24.91
28.29
32.09
35.86
38.97
40.98
41.74
41.47
40.58
39.57
38.77
38.34
38.24
38.38
38.59
38.71
38.56
37.98
36.85
35.23
33.25
31.14
29.06
27.06
25.05
22.84
20.18
16.8
12.41
6.81
-0.1
-8.17
-16.93
-25.74
-33.88
-40.86
-46.51
-50.97
-54.54
-57.44
-59.77
-61.49
-62.6
-63.21
-63.55
-63.81
-64.02
-64.0
-63.43
-62.05
-59.75
-56.6
-52.81
-48.54
-43.89
-38.96
-33.8
-28.53
-23.28
-18.19
-13.33
-8.72
-4.4
-0.38
3.23
6.29
8.7
10.43
11.5
12.06
12.23
12.14
11.88
11.47
10.93
10.3
9.57
8.72
7.69
6.44
4.95
3.28
1.55
-0.13
-1.74
-3.33
-5.04
-7.01
-9.27
-11.77
-14.42
-17.16
-20.04
-23.16
-26.7
-30.82
-35.58
-40.87
-46.37
-51.54
-55.7
-58.13
-58.27
-55.91
-51.2
-44.63
-36.88
-28.59
-20.29
-12.36
-5.02
1.62
7.52
12.75
17.4
21.58
25.29
28.54
31.24
33.31
34.71
35.43
35.55
35.14
34.41
33.56
32.83
32.4
32.32
32.47
32.58
32.28
31.3
29.51
27.04
24.22
21.42
18.95
16.93
15.35
14.07
12.96
11.98
11.05
10.13
9.04
7.58
5.58
3.02
0.03
-3.22
-6.52
-9.81
-13.07
-16.34
-19.6
-22.78
-25.74
-28.38
-30.66
-32.65
-34.53
-36.52
-38.87
-41.84
-45.69
-50.58
-56.46
-62.95
-69.29
-74.47
-77.42
-77.3
-73.77
-67.02
-57.7
-46.71
-34.97
-23.3
-12.29
-2.31
6.53
14.37
21.48
28.14
34.48
40.41
45.66
49.94
53.16
55.47
57.23
58.74
60.2
61.56
62.71
63.64
64.46
65.35
66.38
67.39
68.0
67.86
66.8
64.91
62.52
59.91
57.13
54.04
50.39
46.1
41.32
36.39
31.62
27.03
22.38
17.31
11.56
5.2
-1.36
-7.63
-13.26
-18.33
-23.22
-28.49
-34.55
-41.39
-48.6
-55.4
-60.88
-64.25
-64.93
-62.67
-57.54
-49.91
-40.43
-29.91
-19.17
-8.93
0.35
8.47
15.51
21.64
27.0
31.65
35.54
38.6
40.83
42.39
43.49
44.35
45.09
45.72
46.19
46.5
46.71
46.9
47.12
47.3
47.3
46.94
46.14
44.92
43.34
41.46
39.23
36.57
33.42
29.83
25.97
22.04
18.16
14.33
10.46
6.41
2.22
-2.05
-6.25
-10.37
-14.5
-18.83
-23.49
-28.49
-33.71
-38.96
-44.15
-49.23
-54.16
-58.66
-62.22
-64.05
-63.4
-59.82
-53.4
-44.75
-34.84
-24.67
-15.01
-6.32
1.31
7.98
13.89
19.21
24.03
28.36
32.17
35.33
37.77
39.41
40.23
40.34
39.95
39.34
38.81
38.6
38.8
39.38
40.16
40.91
41.41
41.47
41.0
39.97
38.42
36.39
33.98
31.26
28.37
25.42
22.51
19.63
16.7
13.59
10.2
6.55
2.71
-1.16
-4.95
-8.56
-12.01
-15.35
-18.64
-21.99
-25.57
-29.55
-34.09
-39.19
-44.51
-49.42
-53.01
-54.43
-53.08
-48.88
-42.26
-34.04
-25.18
-16.5
-8.56
-1.59
4.46
9.74
14.43
18.61
22.31
25.49
28.09
30.06
31.35
31.95
31.91
31.36
30.47
29.46
28.57
27.96
27.71
27.83
28.21
28.62
28.78
28.46
27.51
25.99
24.09
22.02
19.91
17.7
15.25
12.4
9.19
5.76
2.38
-0.77
-3.63
-6.36
-9.16
-12.28
-15.87
-20.03
-24.74
-29.81
-34.86
-39.3
-42.42
-43.56
-42.34
-38.82
-33.5
-27.12
-20.48
-14.16
-8.52
-3.6
0.71
4.54
8.02
11.22
14.13
16.7
18.87
20.55
21.74
22.52
23.02
23.42
23.93
24.64
25.6
26.71
27.84
28.76
29.29
29.28
28.72
27.68
26.3
24.74
23.08
21.34
19.45
17.4
15.2
12.91
10.62
8.42
6.34
4.39
2.5
0.62
-1.35
-3.49
-5.82
-8.36
-11.03
-13.72
-16.32
-18.81
-21.27
-23.94
-27.06
-30.85
-35.29
-40.07
-44.63
-48.24
-50.25
-50.22
-48.1
-44.19
-39.02
-33.19
-27.2
-21.41
-15.99
-11.0
-6.47
-2.37
1.37
4.82
8.09
11.22
14.14
16.68
18.64
19.88
20.42
20.46
20.33
20.34
20.65
21.2
21.77
22.1
21.99
21.37
20.34
19.05
17.73
16.6
15.79
15.32
15.07
14.73
14.02
12.73
10.89
8.78
6.75
5.11
3.94
3.12
2.34
1.29
-0.17
-2.05
-4.22
-6.52
-8.78
-10.94
-12.98
-14.98
-17.11
-19.63
-22.78
-26.65
-31.1
-35.69
-39.77
-42.63
-43.77
-42.98
-40.45
-36.61
-32.02
-27.2
-22.5
-18.15
-14.24
-10.75
-7.63
-4.79
-2.13
0.38
2.72
4.82
6.62
8.08
9.22
10.07
10.71
11.2
11.66
12.14
12.73
13.41
14.11
14.75
15.2
15.43
15.47
15.4
15.28
15.11
14.79
14.14
13.02
11.37
9.3
6.99
4.72
2.66
0.87
-0.74
-2.34
-4.08
-6.03
-8.16
-10.36
-12.48
-14.45
-16.25
-17.96
-19.71
-21.65
-23.93
-26.64
-29.77
-33.12
-36.32
-38.83
-40.05
-39.52
-37.13
-33.14
-28.17
-22.92
-17.98
-13.62
-9.84
-6.47
-3.39
-0.55
1.99
4.21
6.12
7.82
9.33
10.63
11.6
12.16
12.33
12.22
12.07
12.09
12.4
12.99
13.71
14.36
14.7
14.56
13.86
12.64
11.08
9.38
7.73
6.18
4.67
3.05
1.13
-1.15
-3.76
-6.55
-9.32
-11.9
-14.18
-16.19
-18.07
-20.02
-22.31
-25.24
-28.95
-33.38
-38.16
-42.56
-45.73
-46.92
-45.81
-42.58
-37.95
-32.77
-27.8
-23.48
-19.94
-17.03
-14.57
-12.34
-10.1
-7.62
-4.73
-1.4
2.13
5.48
8.24
10.21
11.48
12.34
13.11
14.0
15.02
16.05
16.95
17.63
18.01
18.0
17.54
16.61
15.29
13.84
12.58
11.85
11.76
12.19
12.77
12.95
12.26
10.48
7.77
4.67
1.92
0.11
-0.5
-0.11
0.83
1.76
2.29
2.29
1.78
0.85
-0.43
-2.04
-3.93
-6.02
-8.22
-10.51
-13.07
-16.13
-19.83
-24.0
-28.06
-31.12
-32.35
-31.26
-27.95
-23.05
-17.43
-11.95
-7.12
-3.06
0.45
3.88
7.78
12.53
18.13
24.07
29.33
32.78
33.61
31.76
27.92
23.26
18.85
15.28
12.53
10.27
8.23
6.4
5.0
4.23
4.12
4.5
5.2
6.21
7.66
9.66
12.06
14.4
16.02
16.35
15.2
12.79
9.64
6.37
3.43
1.01
-0.9
-2.42
-3.72
-4.94
-6.2
-7.62
-9.26
-11.04
-12.72
-13.96
-14.48
-14.23
-13.45
-12.72
-12.7
-13.99
-16.89
-21.27
-26.62
-32.18
-37.11
-40.65
-42.35
-42.07
-39.95
-36.38
-31.8
-26.66
-21.34
-16.17
-11.43
-7.34
-4.03
-1.42
0.74
2.79
5.01
7.46
9.95
12.06
13.37
13.68
13.05
11.87
10.62
9.75
9.53
10.04
11.19
12.65
13.73
13.32
10.16
3.26
-7.51
-21.12
-35.57
-48.62
-58.56
-64.78
-67.67
-68.23
-67.4
-65.74
-63.45
-60.58
-57.35
-54.13
-51.32
-49.17
-47.62
-46.4
-45.19
-43.78
-42.16
-40.48
-38.97
-37.77
-36.81
-35.75
-34.06
-31.23
-26.96
-21.25
-14.37
-6.74
1.23
9.26
17.12
24.62
31.53
37.56
42.49
46.12
48.41
49.45
49.42
48.58
47.2
45.58
43.94
42.48
41.34
40.54
40.09
39.88
39.82
39.75
39.58
39.26
38.79
38.21
37.52
36.69
35.58
34.09
32.16
29.88
27.4
24.89
22.5
20.28
18.17
16.07
13.86
11.42
8.69
5.71
2.55
-0.63
-3.71
-6.62
-9.4
-12.16
-15.07
-18.31
-21.96
-26.01
-30.27
-34.4
-37.87
-40.13
-40.7
-39.34
-36.13
-31.44
-25.87
-19.95
-14.13
-8.67
-3.69
0.79
4.8
8.41
11.73
14.89
17.96
20.95
23.78
26.34
28.48
30.16
31.37
32.19
32.74
33.16
33.6
34.13
34.73
35.3
35.64
35.58
35.04
34.09
32.84
31.51
30.26
29.18
28.27
27.44
26.56
25.54
24.29
22.84
21.23
19.53
17.79
16.01
14.18
12.27
10.28
8.16
5.88
3.37
0.63
-2.29
-5.28
-8.16
-10.83
-13.35
-15.89
-18.7
-21.93
-25.52
-29.18
-32.39
-34.63
-35.45
-34.64
-32.21
-28.37
-23.52
-18.14
-12.65
-7.4
-2.54
1.84
5.76
9.19
12.06
14.26
15.68
16.34
16.32
15.79
14.92
13.88
12.82
11.88
11.25
11.1
11.55
12.62
14.22
16.19
18.32
20.42
22.3
23.78
24.74
25.15
25.06
24.58
23.82
22.84
21.57
19.93
17.88
15.43
12.72
9.91
7.13
4.42
1.78
-0.81
-3.32
-5.71
-8.0
-10.31
-12.89
-15.97
-19.68
-23.9
-28.24
-32.07
-34.78
-35.85
-35.07
-32.54
-28.61
-23.83
-18.73
-13.76
-9.23
-5.26
-1.8
1.28
4.11
6.83
9.45
11.92
14.09
15.82
16.98
17.56
17.63
17.36
17.02
16.85
17.0
17.48
18.17
18.86
19.34
19.49
19.3
18.86
18.23
17.48
16.6
15.56
14.3
12.84
11.24
9.56
7.9
6.29
4.75
3.25
1.72
0.1
-1.68
-3.63
-5.75
-7.93
-10.06
-12.04
-13.82
-15.46
-17.11
-18.98
-21.25
-24.0
-27.17
-30.51
-33.66
-36.18
-37.59
-37.49
-35.71
-32.34
-27.8
-22.68
-17.62
-13.08
-9.26
-6.08
-3.3
-0.69
1.92
4.5
6.93
9.04
10.7
11.89
12.68
13.23
13.73
14.32
15.05
15.79
16.35
16.48
16.12
15.36
14.48
13.83
13.66
13.96
14.48
14.84
14.78
14.38
14.08
14.57
16.44
19.84
24.37
29.18
33.2
35.43
34.98
31.19
23.88
13.64
2.11
-8.18
-14.54
-15.15
-9.93
-0.72
9.42
17.5
21.7
21.83
18.89
14.31
9.08
3.6
-2.16
-8.18
-14.15
-19.55
-23.8
-26.56
-27.8
-27.74
-26.73
-25.06
-22.93
-20.4
-17.44
-14.08
-10.41
-6.71
-3.3
-0.48
1.66
3.27
4.71
6.44
8.78
11.8
15.24
18.6
21.27
22.76
22.83
21.49
19.07
16.04
12.88
9.98
7.53
5.54
3.8
1.92
-0.57
-4.12
-8.94
-14.99
-21.9
-29.14
-36.17
-42.53
-47.83
-51.76
-54.01
-54.37
-52.88
-49.96
-46.34
-42.87
-40.25
-38.77
-38.37
-38.74
-39.49
-40.31
-40.94
-41.12
-40.55
-38.95
-36.13
-32.15
-27.29
-21.95
-16.46
-11.03
-5.66
-0.28
5.12
10.46
15.61
20.47
24.99
29.2
33.08
36.51
39.26
41.08
41.86
41.67
40.82
39.73
38.77
38.18
38.01
38.13
38.36
38.46
38.27
37.75
36.97
36.1
35.33
34.81
34.58
34.63
34.86
35.19
35.53
35.8
35.92
35.74
35.19
34.21
32.85
31.24
29.53
27.79
26.02
24.11
21.88
19.18
15.97
12.27
8.2
3.88
-0.59
-5.21
-10.01
-14.96
-19.91
-24.53
-28.36
-31.05
-32.46
-32.82
-32.61
-32.4
-32.59
-33.3
-34.45
-35.83
-37.32
-38.85
-40.41
-41.92
-43.19
-44.02
-44.24
-43.85
-42.99
-41.82
-40.44
-38.82
-36.89
-34.57
-31.86
-28.84
-25.67
-22.56
-19.69
-17.22
-15.19
-13.5
-11.93
-10.21
-8.12
-5.62
-2.85
-0.12
2.3
4.29
5.92
7.42
9.03
10.86
12.79
14.54
15.74
16.07
15.44
13.93
11.79
9.31
6.7
4.05
1.36
-1.49
-4.66
-8.35
-12.72
-17.83
-23.46
-29.07
-33.83
-36.82
-37.35
-35.27
-31.03
-25.54
-19.78
-14.6
-10.36
-7.07
-4.46
-2.2
-0.07
2.02
4.06
5.94
7.59
8.94
9.97
10.74
11.34
11.93
12.59
13.41
14.37
15.42
16.47
17.44
18.22
18.73
18.94
18.87
18.55
18.03
17.31
16.38
15.22
13.83
12.33
10.8
9.33
7.89
6.39
4.67
2.67
0.38
-2.14
-4.8
-7.57
-10.4
-13.23
-15.89
-18.2
-20.03
-21.44
-22.66
-23.96
-25.5
-27.15
-28.49
-29.0
-28.29
-26.3
-23.27
-19.67
-15.97
-12.43
-9.17
-6.1
-3.09
-0.02
3.16
6.37
9.5
12.37
14.87
16.92
18.6
19.97
21.13
22.08
22.76
23.11
23.14
22.92
22.54
22.06
21.41
20.49
19.19
17.51
15.58
13.62
11.82
10.29
9.03
7.89
6.77
5.53
4.14
2.61
0.99
-0.65
-2.27
-3.85
-5.38
-6.91
-8.45
-9.99
-11.56
-13.14
-14.79
-16.49
-18.22
-19.88
-21.41
-22.8
-24.19
-25.88
-28.12
-31.05
-34.52
-38.05
-41.0
-42.7
-42.73
-41.02
-37.77
-33.41
-28.44
-23.25
-18.16
-13.34
-8.89
-4.84
-1.14
2.29
5.56
8.7
11.68
14.37
16.63
18.35
19.57
20.4
21.04
21.7
22.52
23.57
24.86
26.36
27.98
29.6
31.02
32.08
32.67
32.73
32.31
31.44
30.2
28.65
26.84
24.86
22.79
20.74
18.76
16.83
14.94
13.03
11.08
9.12
7.16
5.23
3.33
1.38
-0.7
-2.98
-5.51
-8.28
-11.15
-13.95
-16.5
-18.69
-20.51
-22.09
-23.6
-25.2
-27.02
-29.1
-31.42
-33.87
-36.2
-38.01
-38.83
-38.23
-36.01
-32.29
-27.44
-22.0
-16.45
-11.15
-6.29
-1.89
2.03
5.52
8.68
11.61
14.42
17.17
19.84
22.31
24.41
26.02
27.1
27.71
28.01
28.14
28.23
28.37
28.56
28.8
29.05
29.29
29.47
29.57
29.52
29.32
28.97
28.49
27.84
26.97
25.77
24.21
22.31
20.2
18.07
16.08
14.24
12.46
10.57
8.37
5.81
2.95
-0.01
-2.87
-5.5
-7.9
-10.18
-12.55
-15.15
-18.1
-21.41
-24.95
-28.51
-31.74
-34.25
-35.58
-35.42
-33.66
-30.51
-26.37
-21.76
-17.11
-12.69
-8.55
-4.61
-0.81
2.9
6.47
9.83
12.85
15.41
17.44
18.88
19.76
20.2
20.36
20.4
20.47
20.65
20.95
21.36
21.82
22.3
22.74
23.07
23.25
23.16
22.72
21.88
20.66
19.17
17.62
16.2
15.05
14.17
13.42
12.58
11.51
10.11
8.41
6.5
4.47
2.36
0.17
-2.1
-4.44
-6.84
-9.26
-11.69
-14.14
-16.62
-19.17
-21.81
-24.55
-27.36
-30.29
-33.4
-36.8
-40.48
-44.23
-47.63
-50.08
-51.02
-50.09
-47.35
-43.16
-38.07
-32.63
-27.24
-22.09
-17.25
-12.74
-8.62
-4.91
-1.59
1.38
4.09
6.59
8.87
10.86
12.48
13.72
14.67
15.47
16.31
17.31
18.47
19.71
20.86
21.79
22.44
22.84
23.06
23.16
23.11
22.87
22.36
21.58
20.6
19.54
18.5
17.56
16.7
15.9
15.07
14.15
13.06
11.73
10.13
8.29
6.3
4.32
2.47
0.81
-0.7
-2.14
-3.63
-5.22
-6.92
-8.71
-10.55
-12.43
-14.36
-16.39
-18.55
-20.91
-23.54
-26.43
-29.48
-32.39
-34.67
-35.77
-35.22
-32.85
-28.83
-23.74
-18.24
-12.99
-8.38
-4.55
-1.42
1.19
3.49
5.66
7.82
10.06
12.38
14.64
16.61
18.05
18.76
18.73
18.11
17.15
16.18
15.45
15.12
15.25
15.79
16.65
17.67
18.69
19.43
19.65
19.09
17.63
15.32
12.42
9.43
6.86
5.16
4.47
4.64
5.23
5.72
5.65
4.77
3.0
0.39
-2.93
-6.8
-10.98
-15.23
-19.36
-23.24
-26.91
-30.52
-34.25
-38.14
-42.03
-45.53
-48.16
-49.48
-49.22
-47.44
-44.37
-40.41
-35.92
-31.2
-26.37
-21.48
-16.53
-11.55
-6.64
-1.93
2.45
6.42
9.93
12.98
15.55
17.61
19.12
20.13
20.73
21.15
21.59
22.24
23.14
24.18
25.12
25.71
25.73
25.15
24.03
22.56
20.97
19.42
17.99
16.65
15.38
14.1
12.82
11.52
10.27
9.08
7.94
6.83
5.72
4.58
3.41
2.23
1.04
-0.23
-1.67
-3.4
-5.48
-7.88
-10.48
-13.2
-16.0
-18.98
-22.27
-25.94
-29.79
-33.37
-36.06
-37.26
-36.63
-34.2
-30.34
-25.58
-20.41
-15.2
-10.07
-5.11
-0.39
3.99
7.88
11.22
14.04
16.44
18.54
20.39
21.96
23.16
23.99
24.51
24.89
25.3
25.83
26.4
26.89
27.1
26.98
26.55
25.89
25.08
24.15
23.03
21.68
20.13
18.53
17.08
15.98
15.31
14.98
14.77
14.42
13.71
12.54
10.98
9.18
7.34
5.61
4.06
2.72
1.58
0.61
-0.21
-0.97
-1.87
-3.19
-5.22
-8.17
-12.05
-16.63
-21.53
-26.37
-30.87
-34.91
-38.54
-41.84
-44.82
-47.33
-49.03
-49.54
-48.55
-46.0
-42.07
-37.21
-31.93
-26.73
-21.92
-17.65
-13.92
-10.64
-7.68
-4.88
-2.1
0.73
3.62
6.45
9.06
11.27
13.02
14.32
15.3
16.08
16.78
17.45
18.13
18.75
19.28
19.7
19.97
20.06
19.92
19.5
18.78
17.73
16.42
14.92
13.4
11.99
10.84
9.96
9.24
8.5
7.52
6.17
4.44
2.42
0.33
-1.66
-3.43
-4.99
-6.47
-8.08
-10.0
-12.41
-15.36
-18.78
-22.45
-25.96
-28.82
-30.57
-30.85
-29.56
-26.83
-23.01
-18.56
-13.93
-9.52
-5.59
-2.24
0.56
2.98
5.28
7.67
10.27
13.0
15.65
17.92
19.63
20.76
21.45
21.96
22.53
23.33
24.51
26.17
28.37
31.04
33.96
36.66
38.6
39.3
38.53
36.39
33.27
29.67
26.03
22.6
19.49
16.71
14.24
12.1
10.28
8.75
7.41
6.15
4.95
3.79
2.77
1.97
1.45
1.21
1.11
1.0
0.63
-0.16
-1.5
-3.38
-5.73
-8.5
-11.72
-15.5
-19.89
-24.8
-29.82
-34.29
-37.43
-38.71
-37.91
-35.26
-31.28
-26.54
-21.55
-16.59
-11.86
-7.4
-3.27
0.5
3.88
6.9
9.6
12.03
14.19
16.02
17.38
18.11
18.15
17.52
16.41
15.08
13.78
12.75
12.1
11.89
12.06
12.47
12.88
12.98
12.5
11.29
9.36
6.93
4.33
1.9
-0.12
-1.61
-2.57
-3.13
-3.46
-3.71
-4.01
-4.39
-4.86
-5.37
-5.91
-6.47
-7.09
-7.78
-8.55
-9.42
-10.44
-11.65
-13.1
-14.79
-16.62
-18.45
-20.15
-21.64
-22.98
-24.36
-26.04
-28.23
-30.98
-34.1
-37.17
-39.62
-40.9
-40.6
-38.61
-35.08
-30.44
-25.18
-19.78
-14.6
-9.88
-5.7
-2.04
1.18
4.09
6.82
9.46
12.01
14.39
16.48
18.15
19.35
20.1
20.54
20.8
21.0
21.16
21.24
21.21
20.97
20.48
19.69
18.6
17.26
15.8
14.4
13.22
12.36
11.77
11.3
10.75
9.96
8.89
7.61
6.23
4.92
3.76
2.87
2.26
1.9
1.68
1.42
0.93
0.01
-1.39
-3.31
-5.78
-8.86
-12.63
-17.11
-22.06
-26.95
-31.03
-33.55
-34.03
-32.44
-29.19
-24.94
-20.28
-15.65
-11.22
-7.04
-3.16
0.29
3.24
5.68
7.74
9.59
11.38
13.12
14.72
16.05
16.99
17.5
17.59
17.3
16.73
16.03
15.37
14.96
14.84
15.0
15.28
15.52
15.61
15.49
15.2
14.76
14.18
13.43
12.46
11.28
9.89
8.33
6.68
4.98
3.32
1.75
0.36
-0.83
-1.86
-2.84
-3.91
-5.25
-6.93
-8.91
-11.03
-13.1
-14.96
-16.59
-18.1
-19.64
-21.42
-23.54
-26.04
-28.85
-31.83
-34.7
-37.08
-38.52
-38.56
-36.94
-33.67
-29.09
-23.78
-18.33
-13.23
-8.74
-4.93
-1.73
0.98
3.31
5.37
7.27
9.07
10.79
12.41
13.87
15.1
16.11
16.97
17.78
18.59
19.44
20.29
21.12
21.89
22.57
23.12
23.5
23.65
23.52
23.11
22.48
21.68
20.79
19.89
18.99
18.14
17.32
16.48
15.52
14.34
12.88
11.2
9.43
7.75
6.29
5.09
4.1
3.2
2.23
1.07
-0.36
-2.16
-4.33
-6.83
-9.54
-12.25
-14.78
-17.01
-18.96
-20.77
-22.68
-24.93
-27.71
-31.06
-34.83
-38.67
-42.01
-44.21
-44.72
-43.21
-39.7
-34.61
-28.6
-22.44
-16.76
-11.94
-8.03
-4.83
-2.04
0.63
3.35
6.16
8.95
11.54
13.79
15.56
16.78
17.5
17.83
17.97
18.13
18.52
19.24
20.25
21.35
22.28
22.76
22.61
21.8
20.46
18.83
17.21
15.82
14.87
14.38
14.33
14.6
15.03
15.44
15.64
15.49
14.88
13.79
12.25
10.41
8.42
6.42
4.51
2.73
1.03
-0.7
-2.58
-4.69
-7.04
-9.56
-12.11
-14.57
-16.94
-19.36
-22.02
-25.1
-28.6
-32.27
-35.69
-38.32
-39.66
-39.4
-37.49
-34.13
-29.76
-24.9
-20.08
-15.67
-11.83
-8.52
-5.63
-3.0
-0.54
1.76
3.89
5.85
7.64
9.3
10.81
12.09
13.07
13.7
14.04
14.17
14.23
14.25
14.22
14.06
13.69
13.13
12.45
11.75
11.11
10.55
9.99
9.39
8.69
7.84
6.81
5.54
3.99
2.16
0.11
-2.03
-4.17
-6.3
-8.46
-10.81
-13.47
-16.53
-19.95
-23.56
-27.17
-30.6
-33.76
-36.69
-39.55
-42.55
-45.85
-49.49
-53.33
-57.04
-60.16
-62.22
-62.82
-61.76
-59.01
-54.82
-49.58
-43.78
-37.87
-32.26
-27.29
-23.27
-20.6
-19.67
-20.75
-23.8
-28.37
-33.54
-38.16
-41.18
-41.97
-40.39
-36.7
-31.19
-24.04
-15.25
-4.85
6.79
18.93
30.56
40.74
48.94
55.15
59.84
63.64
67.04
70.26
73.18
75.48
76.83
76.98
75.87
73.69
70.72
67.27
63.64
59.97
56.4
53.01
49.91
47.16
44.75
42.54
40.31
37.81
34.87
31.43
27.59
23.52
19.44
15.45
11.53
7.54
3.35
-1.05
-5.42
-9.3
-12.15
-13.48
-13.1
-11.08
-7.8
-3.76
0.49
4.42
7.72
10.27
12.21
13.88
15.64
17.68
19.91
21.98
23.4
23.84
23.23
21.77
19.81
17.65
15.43
13.12
10.7
8.21
5.83
3.81
2.29
1.24
0.43
-0.45
-1.6
-3.02
-4.58
-6.07
-7.35
-8.38
-9.21
-9.97
-10.74
-11.6
-12.56
-13.63
-14.78
-15.98
-17.19
-18.39
-19.56
-20.71
-21.84
-22.94
-24.03
-25.13
-26.28
-27.56
-29.01
-30.71
-32.72
-35.18
-38.14
-41.59
-45.34
-49.0
-52.04
-53.88
-54.06
-52.31
-48.68
-43.46
-37.18
-30.43
-23.79
-17.72
-12.46
-8.04
-4.35
-1.17
1.69
4.38
6.98
9.45
11.76
13.86
15.75
17.48
19.09
20.61
22.04
23.38
24.62
25.75
26.82
27.79
28.61
29.16
29.25
28.74
27.57
25.82
23.69
21.45
19.36
17.53
15.92
14.37
12.64
10.58
8.15
5.46
2.71
0.13
-2.17
-4.23
-6.24
-8.46
-11.13
-14.4
-18.27
-22.55
-26.88
-30.79
-33.75
-35.26
-34.97
-32.79
-28.94
-23.91
-18.28
-12.59
-7.14
-2.05
2.73
7.27
11.59
15.61
19.24
22.36
24.88
26.73
27.89
28.32
28.02
27.08
25.67
23.97
22.24
20.68
19.41
18.5
17.92
17.61
17.49
17.5
17.63
17.93
18.43
19.12
19.91
20.67
21.26
21.6
21.68
21.51
21.11
20.43
19.41
17.95
16.02
13.69
11.0
8.09
5.02
1.93
-1.06
-3.8
-6.26
-8.57
-11.04
-14.09
-18.02
-22.79
-27.97
-32.81
-36.42
-38.04
-37.28
-34.12
-28.95
-22.42
-15.28
-8.26
-1.89
3.54
8.03
11.82
15.22
18.51
21.76
24.83
27.44
29.32
30.31
30.49
30.11
29.47
28.84
28.32
27.96
27.73
27.58
27.48
27.39
27.18
26.72
25.93
24.81
23.5
22.13
20.82
19.59
18.35
16.98
15.36
13.45
11.26
8.86
6.28
3.59
0.81
-1.99
-4.73
-7.33
-9.79
-12.22
-14.8
-17.74
-21.16
-24.98
-28.99
-32.83
-36.22
-39.03
-41.31
-43.3
-45.29
-47.56
-50.27
-53.42
-56.71
-59.57
-61.27
-61.0
-58.24
-52.9
-45.39
-36.53
-27.23
-18.29
-10.2
-3.15
2.92
8.2
12.91
17.21
21.17
24.76
27.92
30.55
32.61
34.14
35.23
35.99
36.53
36.91
37.16
37.28
37.25
36.99
36.45
35.59
34.47
33.17
31.82
30.45
29.06
27.57
25.93
24.16
22.3
20.43
18.6
16.82
15.06
13.35
11.78
10.44
9.4
8.57
7.8
6.86
5.53
3.74
1.57
-0.77
-3.0
-4.96
-6.63
-8.2
-9.87
-11.87
-14.33
-17.29
-20.71
-24.53
-28.55
-32.49
-35.87
-38.18
-38.96
-37.95
-35.2
-31.05
-25.99
-20.51
-14.99
-9.66
-4.63
0.04
4.28
8.0
11.17
13.82
16.02
17.9
19.53
20.94
22.08
22.88
23.32
23.41
23.22
22.85
22.37
21.84
21.31
20.86
20.49
20.16
19.72
19.02
17.89
16.28
14.29
12.12
9.98
8.0
6.17
4.38
2.5
0.44
-1.79
-4.1
-6.37
-8.49
-10.45
-12.3
-14.19
-16.27
-18.68
-21.51
-24.7
-28.05
-31.23
-33.83
-35.45
-35.76
-34.58
-31.85
-27.72
-22.5
-16.68
-10.82
-5.45
-0.93
2.69
5.63
8.24
10.85
13.58
16.29
18.72
20.56
21.64
21.97
21.71
21.06
20.28
19.56
19.05
18.85
19.0
19.41
19.93
20.35
20.5
20.29
19.74
18.95
18.02
17.0
15.88
14.63
13.21
11.67
10.06
8.47
6.92
5.44
4.02
2.68
1.48
0.4
-0.64
-1.8
-3.26
-5.12
-7.35
-9.75
-12.06
-14.11
-15.85
-17.37
-18.81
-20.32
-22.0
-23.91
-26.12
-28.76
-31.92
-35.59
-39.48
-43.09
-45.71
-46.74
-45.81
-42.94
-38.56
-33.26
-27.63
-22.16
-17.11
-12.58
-8.59
-5.09
-1.96
0.98
3.91
6.94
10.02
12.95
15.44
17.25
18.3
18.67
18.59
18.38
18.28
18.43
18.83
19.4
19.99
20.45
20.63
20.47
19.99
19.26
18.37
17.41
16.38
15.26
14.01
12.65
11.23
9.81
8.45
7.13
5.83
4.5
3.14
1.77
0.41
-0.91
-2.2
-3.48
-4.75
-6.01
-7.23
-8.43
-9.65
-10.98
-12.49
-14.19
-16.09
-18.13
-20.22
-22.25
-24.19
-26.05
-27.98
-30.17
-32.76
-35.73
-38.8
-41.48
-43.18
-43.41
-41.91
-38.77
-34.33
-29.13
-23.71
-18.52
-13.85
-9.82
-6.39
-3.42
-0.72
1.89
4.49
7.09
9.59
11.86
13.74
15.1
15.9
16.19
16.1
15.85
15.66
15.74
16.18
16.98
18.04
19.22
20.36
21.3
21.9
22.06
21.74
20.95
19.79
18.41
16.96
15.53
14.16
12.85
11.55
10.2
8.79
7.29
5.7
4.01
2.29
0.61
-0.95
-2.37
-3.72
-5.15
-6.84
-8.92
-11.4
-14.1
-16.78
-19.17
-21.16
-22.77
-24.21
-25.83
-27.91
-30.62
-33.9
-37.47
-40.88
-43.62
-45.18
-45.16
-43.41
-39.99
-35.23
-29.68
-23.93
-18.53
-13.82
-9.87
-6.54
-3.56
-0.71
2.13
4.91
7.47
9.67
11.44
12.78
13.78
14.53
15.06
15.44
15.71
16.0
16.42
17.02
17.74
18.42
18.83
18.83
18.38
17.54
16.5
15.4
14.34
13.36
12.42
11.43
10.32
9.02
7.52
5.9
4.26
2.71
1.27
-0.13
-1.64
-3.37
-5.37
-7.58
-9.88
-12.18
-14.46
-16.73
-19.09
-21.55
-24.21
-27.18
-30.61
-34.61
-39.04
-43.43
-47.04
-48.96
-48.54
-45.53
-40.28
-33.56
-26.3
-19.33
-13.12
-7.8
-3.26
0.71
4.26
7.46
10.33
12.83
14.96
16.7
18.07
19.11
19.91
20.57
21.18
21.86
22.65
23.58
24.64
25.75
26.82
27.67
28.14
28.13
27.65
26.82
25.79
24.68
23.54
22.34
21.05
19.63
18.15
16.66
15.18
13.69
12.07
10.29
8.36
6.36
4.43
2.64
0.96
-0.72
-2.62
-4.89
-7.59
-10.65
-13.86
-16.97
-19.77
-22.2
-24.39
-26.61
-29.21
-32.5
-36.62
-41.44
-46.61
-51.51
-55.4
-57.56
-57.4
-54.71
-49.63
-42.73
-34.81
-26.71
-19.2
-12.72
-7.42
-3.13
0.53
3.93
7.37
10.96
14.62
18.17
21.42
24.23
26.55
28.37
29.71
30.63
31.24
31.69
32.15
32.7
33.3
33.84
34.11
34.02
33.59
32.87
31.96
30.92
29.74
28.46
27.11
25.72
24.31
22.76
20.97
18.88
16.51
13.99
11.49
9.11
6.83
4.56
2.16
-0.42
-3.14
-5.92
-8.61
-11.16
-13.57
-15.9
-18.21
-20.61
-23.19
-26.05
-29.3
-33.03
-37.32
-42.16
-47.36
-52.45
-56.69
-59.17
-59.06
-55.96
-49.99
-41.9
-32.78
-23.74
-15.59
-8.68
-2.95
1.83
5.99
9.78
13.35
16.81
20.21
23.49
26.53
29.15
31.19
32.56
33.36
33.77
34.04
34.35
34.76
35.23
35.63
35.78
35.54
34.79
33.54
31.87
29.93
27.89
25.91
24.06
22.32
20.63
18.89
17.01
14.98
12.83
10.63
8.52
6.59
4.88
3.33
1.76
-0.02
-2.2
-4.78
-7.67
-10.66
-13.61
-16.48
-19.33
-22.26
-25.38
-28.74
-32.35
-36.22
-40.34
-44.52
-48.39
-51.33
-52.59
-51.51
-47.79
-41.69
-33.89
-25.41
-17.21
-9.98
-3.94
1.06
5.42
9.53
13.65
17.83
21.91
25.7
28.98
31.61
33.56
34.84
35.58
35.98
36.33
36.94
38.05
39.72
41.76
43.81
45.47
46.47
46.82
46.77
46.7
46.94
47.61
48.61
49.69
50.58
51.21
51.61
52.01
52.67
53.76
55.38
57.43
59.69
61.77
63.25
63.68
62.79
60.45
56.76
52.02
46.57
40.72
34.63
28.28
21.46
13.82
4.98
-5.41
-17.52
-31.26
-46.22
-61.74
-76.99
-91.14
-103.45
-113.42
-120.76
-125.36
-127.32
-126.98
-124.9
-121.78
-118.24
-114.64
-110.97
-106.9
-102.0
-95.95
-88.68
-80.35
-71.24
-61.68
-52.01
-42.56
-33.7
-25.72
-18.83
-13.02
-8.21
-4.23
-1.0
1.55
3.54
5.17
6.73
8.51
10.68
13.28
16.31
19.84
23.96
28.82
34.42
40.57
46.9
52.99
58.48
63.12
66.78
69.37
70.79
70.92
69.72
67.25
63.69
59.32
54.48
49.52
44.7
40.17
35.92
31.73
27.26
22.14
16.1
9.09
1.34
-6.67
-14.28
-20.81
-25.63
-28.34
-28.84
-27.36
-24.44
-20.76
-16.99
-13.61
-10.77
-8.35
-6.05
-3.54
-0.63
2.71
6.33
10.0
13.4
16.24
18.27
19.35
19.53
19.09
18.45
18.07
18.21
18.86
19.72
20.48
20.93
21.12
21.23
21.37
21.45
21.18
20.22
18.34
15.6
12.19
8.36
4.23
-0.22
-5.05
-10.27
-15.71
-21.06
-26.0
-30.34
-34.0
-37.04
-39.5
-41.3
-42.24
-42.09
-40.8
-38.63
-36.15
-34.11
-33.08
-33.23
-34.22
-35.33
-35.79
-35.13
-33.28
-30.53
-27.26
-23.72
-19.96
-15.88
-11.37
-6.5
-1.48
3.4
7.88
11.77
15.0
17.46
19.05
19.65
19.23
17.91
15.98
13.84
11.87
10.39
9.55
9.38
9.78
10.57
11.53
12.43
13.1
13.44
13.43
13.14
12.67
12.17
11.7
11.33
11.01
10.7
10.34
9.88
9.34
8.77
8.21
7.67
7.08
6.32
5.24
3.77
1.93
-0.13
-2.24
-4.21
-5.92
-7.4
-8.79
-10.32
-12.27
-14.84
-18.11
-21.97
-26.15
-30.2
-33.52
-35.52
-35.71
-33.83
-29.97
-24.53
-18.1
-11.36
-4.91
0.86
5.75
9.78
13.09
15.88
18.32
20.5
22.4
23.89
24.84
25.22
25.11
24.73
24.3
23.97
23.82
23.81
23.87
23.97
24.05
24.04
23.83
23.27
22.33
21.06
19.65
18.35
17.28
16.38
15.46
14.21
12.47
10.23
7.64
4.92
2.23
-0.35
-2.86
-5.37
-7.89
-10.41
-12.86
-15.21
-17.44
-19.61
-21.83
-24.27
-27.1
-30.45
-34.24
-38.14
-41.58
-43.82
-44.3
-42.71
-39.15
-34.05
-28.04
-21.7
-15.5
-9.77
-4.69
-0.32
3.4
6.61
9.51
12.29
15.0
17.56
19.8
21.53
22.69
23.29
23.48
23.39
23.16
22.86
22.54
22.23
21.97
21.76
21.53
21.18
20.59
19.72
18.55
17.17
15.62
13.96
12.19
10.34
8.44
6.53
4.64
2.69
0.59
-1.77
-4.4
-7.18
-9.86
-12.22
-14.18
-15.85
-17.48
-19.42
-21.9
-25.0
-28.58
-32.35
-35.86
-38.61
-40.1
-39.92
-37.92
-34.16
-29.05
-23.16
-17.09
-11.35
-6.23
-1.81
1.97
5.25
8.11
10.62
12.82
14.69
16.3
17.69
18.9
19.96
20.83
21.47
21.88
22.12
22.29
22.5
22.81
23.24
23.71
24.1
24.28
24.16
23.68
22.86
21.78
20.56
19.26
17.93
16.52
14.98
13.29
11.42
9.45
7.46
5.57
3.83
2.28
0.86
-0.52
-2.01
-3.74
-5.83
-8.25
-10.9
-13.61
-16.18
-18.53
-20.68
-22.76
-24.99
-27.6
-30.73
-34.34
-38.12
-41.5
-43.76
-44.25
-42.55
-38.67
-33.05
-26.39
-19.48
-12.99
-7.37
-2.75
0.98
4.08
6.89
9.72
12.73
15.88
19.02
21.87
24.18
25.86
26.92
27.54
27.94
28.3
28.72
29.2
29.69
30.08
30.26
30.13
29.59
28.58
27.13
25.39
23.56
21.89
20.57
19.66
19.09
18.7
18.3
17.71
16.85
15.75
14.52
13.27
12.03
10.73
9.24
7.43
5.29
3.01
0.87
-0.88
-2.17
-3.18
-4.2
-5.51
-7.23
-9.26
-11.4
-13.49
-15.49
-17.48
-19.63
-22.08
-24.9
-28.05
-31.38
-34.58
-37.24
-38.89
-39.07
-37.56
-34.39
-29.95
-24.76
-19.43
-14.4
-9.89
-5.94
-2.45
0.71
3.63
6.37
8.92
11.27
13.34
15.05
16.26
16.88
16.94
16.6
16.12
15.83
15.91
16.37
16.97
17.37
17.24
16.41
14.91
12.89
10.63
8.32
6.14
4.12
2.31
0.68
-0.79
-2.15
-3.5
-4.95
-6.62
-8.55
-10.62
-12.63
-14.32
-15.48
-16.05
-16.15
-16.01
-15.9
-16.01
-16.41
-17.05
-17.85
-18.69
-19.54
-20.42
-21.39
-22.55
-23.98
-25.72
-27.73
-29.92
-32.13
-34.19
-35.88
-36.93
-37.0
-35.75
-32.93
-28.44
-22.46
-15.46
-8.05
-0.88
5.51
10.73
14.62
17.17
18.48
18.79
18.36
17.56
16.69
15.98
15.52
15.27
15.07
14.78
14.29
13.57
12.67
11.69
10.75
9.94
9.33
8.96
8.83
8.88
9.01
9.11
9.06
8.76
8.16
7.27
6.16
4.93
3.67
2.45
1.3
0.23
-0.83
-1.93
-3.18
-4.66
-6.41
-8.4
-10.53
-12.69
-14.87
-17.11
-19.58
-22.43
-25.72
-29.29
-32.74
-35.5
-37.0
-36.83
-34.83
-31.17
-26.26
-20.67
-14.97
-9.63
-4.97
-1.08
2.1
4.81
7.25
9.59
11.85
13.9
15.58
16.73
17.33
17.49
17.4
17.3
17.34
17.56
17.88
18.15
18.25
18.09
17.72
17.21
16.63
16.03
15.34
14.51
13.53
12.46
11.4
10.41
9.44
8.34
6.95
5.21
3.2
1.14
-0.7
-2.2
-3.41
-4.54
-5.87
-7.57
-9.69
-12.09
-14.54
-16.84
-18.91
-20.81
-22.74
-24.92
-27.56
-30.71
-34.25
-37.86
-41.05
-43.3
-44.13
-43.26
-40.65
-36.51
-31.25
-25.42
-19.62
-14.31
-9.8
-6.15
-3.19
-0.62
1.85
4.38
6.95
9.37
11.46
13.08
14.22
14.98
15.47
15.78
15.97
16.05
16.04
15.98
15.91
15.88
15.92
16.02
16.11
16.08
15.77
15.09
13.99
12.58
11.05
9.59
8.33
7.22
6.14
4.91
3.41
1.63
-0.39
-2.55
-4.74
-6.92
-9.05
-11.13
-13.19
-15.35
-17.72
-20.5
-23.77
-27.5
-31.41
-35.04
-37.83
-39.2
-38.75
-36.34
-32.15
-26.61
-20.39
-14.1
-8.24
-3.12
1.23
4.92
8.16
11.13
13.92
16.53
18.85
20.77
22.21
23.2
23.86
24.34
24.75
25.12
25.44
25.68
25.89
26.12
26.45
26.82
27.08
27.05
26.57
25.66
24.47
23.15
21.8
20.35
18.67
16.66
14.33
11.85
9.48
7.39
5.64
4.1
2.58
0.87
-1.1
-3.31
-5.64
-7.94
-10.1
-12.1
-14.02
-15.99
-18.15
-20.64
-23.54
-26.85
-30.45
-34.08
-37.3
-39.52
-40.15
-38.8
-35.4
-30.32
-24.24
-17.91
-11.96
-6.7
-2.17
1.8
5.42
8.81
11.99
14.91
17.46
19.59
21.34
22.76
23.99
25.13
26.22
27.23
28.08
28.7
29.12
29.4
29.61
29.78
29.82
29.58
28.94
27.9
26.58
25.14
23.69
22.22
20.66
18.94
17.07
15.19
13.45
11.98
10.76
9.65
8.43
7.0
5.34
3.59
1.86
0.27
-1.22
-2.76
-4.47
-6.47
-8.7
-11.08
-13.53
-15.99
-18.51
-21.18
-24.1
-27.38
-31.0
-34.89
-38.79
-42.27
-44.8
-45.87
-45.13
-42.5
-38.19
-32.62
-26.32
-19.86
-13.72
-8.29
-3.74
-0.06
2.99
5.73
8.42
11.12
13.74
16.08
17.97
19.36
20.32
20.99
21.48
21.85
22.19
22.6
23.19
24.03
25.06
26.1
26.9
27.29
27.23
26.75
25.96
24.94
23.72
22.36
20.9
19.45
18.08
16.79
15.5
14.08
12.41
10.48
8.4
6.3
4.34
2.57
0.96
-0.62
-2.29
-4.14
-6.2
-8.41
-10.71
-13.03
-15.33
-17.62
-19.96
-22.44
-25.23
-28.47
-32.2
-36.27
-40.31
-43.74
-45.91
-46.29
-44.59
-40.89
-35.61
-29.34
-22.73
-16.34
-10.55
-5.57
-1.45
1.93
4.75
7.22
9.52
11.73
13.88
15.88
17.65
19.06
20.05
20.55
20.59
20.3
19.88
19.57
19.53
19.76
20.13
20.38
20.3
19.79
18.9
17.75
16.45
15.06
13.59
12.08
10.59
9.19
7.92
6.74
5.51
4.07
2.31
0.25
-1.97
-4.19
-6.28
-8.25
-10.19
-12.25
-14.59
-17.3
-20.41
-23.9
-27.67
-31.48
-34.94
-37.54
-38.73
-38.11
