-4.13
-6.19
-8.47
-10.95
-13.56
-16.2
-18.79
-21.27
-23.62
-25.9
-28.24
-30.78
-33.68
-36.93
-40.31
-43.31
-45.27
-45.56
-43.84
-40.13
-34.85
-28.66
-22.22
-16.08
-10.56
-5.77
-1.68
1.83
4.93
7.77
10.44
12.95
15.21
17.05
18.34
19.0
19.08
18.76
18.26
17.86
17.79
18.16
18.95
19.94
20.86
21.43
21.48
21.04
20.27
19.38
18.52
17.69
16.83
15.83
14.65
13.31
11.85
10.32
8.75
7.14
5.51
3.85
2.14
0.32
-1.66
-3.84
-6.19
-8.61
-10.99
-13.26
-15.48
-17.76
-20.29
-23.19
-26.53
-30.3
-34.32
-38.29
-41.73
-44.05
-44.71
-43.34
-39.94
-34.83
-28.64
-22.02
-15.54
-9.55
-4.19
0.51
4.56
8.0
10.9
13.34
15.41
17.2
18.72
19.94
20.81
21.31
21.51
21.57
21.7
22.09
22.82
23.88
25.09
26.26
27.22
27.86
28.1
27.91
27.24
26.07
24.42
22.45
20.35
18.35
16.54
14.91
13.34
11.68
9.88
7.99
6.12
4.33
2.65
0.98
-0.79
-2.74
-4.87
-7.09
-9.33
-11.52
-13.67
-15.84
-18.14
-20.64
-23.42
-26.54
-30.06
-34.01
-38.26
-42.51
-46.19
-48.61
-49.07
-47.12
-42.8
-36.63
-29.47
-22.28
-15.77
-10.27
-5.67
-1.68
2.02
5.61
9.06
12.23
14.99
17.27
19.08
20.48
21.54
22.31
22.86
23.29
23.73
24.25
24.91
25.63
26.29
26.79
27.04
27.03
26.81
26.4
25.79
24.99
24.01
22.9
21.71
20.51
19.31
18.07
16.69
15.07
13.18
11.04
8.77
6.5
4.37
2.4
0.54
-1.31
-3.3
-5.53
-8.01
-10.69
-13.46
-16.19
-18.81
-21.31
-23.77
-26.33
-29.14
-32.4
-36.18
-40.42
-44.84
-48.92
-51.99
-53.35
-52.51
-49.28
-43.93
-37.09
-29.55
-22.1
-15.3
-9.43
-4.5
-0.36
3.24
6.48
9.44
12.12
14.46
16.4
17.94
19.13
20.04
20.73
21.23
21.56
21.82
22.13
22.59
23.26
24.05
24.76
25.14
25.05
24.47
23.49
22.23
20.79
19.18
17.39
15.42
13.38
11.39
9.59
8.01
6.59
5.22
3.79
2.22
0.48
-1.45
-3.64
-6.09
-8.74
-11.46
-14.13
-16.77
-19.6
-22.99
-27.23
-32.28
-37.66
-42.48
-45.69
-46.52
-44.65
-40.34
-34.28
-27.34
-20.26
-13.56
-7.48
-2.07
2.7
6.93
10.68
14.0
16.91
19.36
21.28
22.58
23.27
23.41
23.2
22.87
22.63
22.63
22.94
23.57
24.43
25.39
26.22
26.66
26.49
25.59
24.05
22.11
20.12
18.35
16.92
15.73
14.55
13.07
11.13
8.74
6.09
3.49
1.23
-0.6
-2.1
-3.5
-5.06
-6.98
-9.27
-11.86
-14.57
-17.26
-19.83
-22.24
-24.54
-26.86
-29.4
-32.4
-36.04
-40.31
-44.93
-49.27
-52.53
-53.84
-52.6
-48.6
-42.14
-33.99
-25.12
-16.47
-8.7
-2.1
3.37
7.95
11.96
15.66
19.22
22.7
26.07
29.16
31.77
33.69
34.79
35.1
34.83
34.32
33.94
33.95
34.38
35.08
35.79
36.2
36.15
35.58
34.51
33.03
31.23
29.22
27.1
24.98
22.91
20.87
18.77
16.47
13.9
11.1
8.23
5.53
3.15
1.16
-0.54
-2.16
-3.94
-6.06
-8.61
-11.54
-14.71
-17.95
-21.18
-24.4
-27.8
-31.68
-36.33
-41.93
-48.33
-54.99
-61.07
-65.55
-67.52
-66.39
-62.07
-54.99
-45.97
-36.03
-26.18
-17.2
-9.47
-3.03
2.45
7.4
12.23
17.09
21.83
26.06
29.4
31.59
32.72
33.12
33.25
33.43
33.79
34.24
34.62
34.83
34.8
34.56
34.11
33.41
32.4
31.05
29.38
27.45
25.31
22.97
20.43
17.7
14.89
12.08
9.32
6.59
3.78
0.83
-2.24
-5.32
-8.27
-11.0
-13.57
-16.17
-19.03
-22.32
-26.16
-30.56
-35.48
-40.76
-46.08
-50.82
-54.19
-55.36
-53.8
-49.47
-42.91
-35.01
-26.76
-18.9
-11.81
-5.49
0.2
5.46
10.37
14.93
19.03
22.56
25.43
27.55
28.93
29.63
29.77
29.52
29.07
28.62
28.33
28.34
28.68
29.3
30.06
30.79
31.33
31.61
31.68
31.65
31.66
31.8
32.06
32.28
32.24
31.72
30.6
28.89
26.69
24.17
21.47
18.63
15.69
12.63
9.48
6.31
3.13
-0.05
-3.32
-6.73
-10.29
-13.9
-17.39
-20.58
-23.46
-26.24
-29.34
-33.2
-38.12
-44.07
-50.59
-56.83
-61.8
-64.54
-64.43
-61.31
-55.48
-47.64
-38.65
-29.36
-20.43
-12.3
-5.2
0.87
6.03
10.51
14.54
18.36
22.04
25.56
28.77
31.5
33.65
35.24
36.36
37.18
37.85
38.43
38.97
39.5
39.96
40.32
40.45
40.23
39.56
38.41
36.85
35.01
33.03
30.96
28.82
26.57
24.22
21.83
19.45
17.13
14.8
12.36
9.7
6.82
3.86
1.04
-1.45
-3.57
-5.45
-7.32
-9.45
-11.97
-14.82
-17.78
-20.61
-23.13
-25.35
-27.43
-29.6
-32.13
-35.23
-39.02
-43.5
-48.44
-53.33
-57.4
-59.69
-59.34
-55.94
-49.74
-41.57
-32.61
-23.98
-16.36
-9.94
-4.5
0.28
4.67
8.78
12.6
16.06
19.14
21.77
23.93
25.53
26.55
27.02
27.07
26.93
26.82
26.92
27.3
27.93
28.66
29.26
29.56
29.4
28.79
27.82
26.64
25.38
24.04
22.52
20.67
18.43
15.9
13.27
10.78
8.6
6.7
4.89
2.9
0.54
-2.23
-5.25
-8.24
-10.97
-13.3
-15.29
-17.13
-19.1
-21.51
-24.6
-28.45
-32.85
-37.27
-40.91
-42.89
-42.54
-39.6
-34.38
-27.59
-20.14
-12.83
-6.2
-0.45
4.44
8.64
12.32
15.65
18.73
21.56
24.06
26.11
27.53
28.23
28.21
27.62
26.69
25.73
25.01
24.69
24.79
25.13
25.45
25.49
25.1
24.24
22.99
21.45
19.7
17.79
15.8
13.81
11.91
10.11
8.3
6.3
3.92
1.1
-2.05
-5.28
-8.31
-10.93
-13.12
-15.03
-16.89
-18.95
-21.39
-24.18
-27.17
-30.09
-32.65
-34.66
-36.13
-37.23
-38.26
-39.54
-41.34
-43.83
-46.99
-50.59
-54.11
-56.84
-57.97
-56.88
-53.26
-47.32
-39.67
-31.21
-22.8
-15.11
-8.49
-2.97
1.65
5.63
9.28
12.82
16.32
19.73
22.83
25.4
27.24
28.28
28.58
28.33
27.79
27.22
26.83
26.79
27.14
27.79
28.54
29.12
29.32
29.05
28.39
27.5
26.54
25.55
24.47
23.16
21.58
19.77
17.86
15.95
14.07
12.15
10.06
7.71
5.11
2.38
-0.27
-2.7
-4.8
-6.6
-8.17
-9.64
-11.14
-12.81
-14.73
-16.92
-19.34
-21.9
-24.47
-26.98
-29.47
-32.11
-35.14
-38.79
-43.08
-47.73
-52.11
-55.38
-56.7
-55.51
-51.7
-45.65
-38.15
-30.08
-22.26
-15.2
-9.16
-4.11
0.14
3.82
7.16
10.3
13.28
16.0
18.32
20.12
21.3
21.9
22.06
21.99
21.95
22.15
22.66
23.42
24.25
24.88
25.13
24.9
24.26
23.3
22.17
20.93
19.64
18.35
17.11
15.96
14.88
13.77
12.46
10.83
8.79
6.43
3.91
1.39
-1.03
-3.39
-5.81
-8.42
-11.26
-14.26
-17.25
-20.06
-22.59
-24.89
-27.17
-29.74
-32.88
-36.68
-40.91
-45.02
-48.21
-49.67
-48.81
-45.47
-39.92
-32.81
-24.97
-17.17
-9.95
-3.63
1.68
6.03
9.52
12.31
14.57
16.48
18.21
19.82
21.31
22.57
23.47
23.91
23.94
23.68
23.34
23.1
23.05
23.15
23.29
23.34
23.24
22.95
22.47
21.76
20.77
19.46
17.93
16.37
15.03
14.07
13.44
12.88
11.99
10.46
8.2
5.42
2.46
-0.28
-2.57
-4.4
-6.0
-7.61
-9.47
-11.69
-14.21
-16.88
-19.54
-22.09
-24.51
-26.86
-29.28
-31.97
-35.12
-38.87
-43.19
-47.81
-52.17
-55.51
-57.01
-56.1
-52.59
-46.79
-39.45
-31.46
-23.64
-16.55
-10.43
-5.21
-0.68
3.37
7.12
10.62
13.84
16.72
19.17
21.14
22.64
23.74
24.52
25.08
25.5
25.83
26.15
26.6
27.28
28.23
29.36
30.43
31.11
31.09
30.27
28.8
26.99
25.24
23.82
22.78
21.91
20.94
19.61
17.85
15.78
13.61
11.55
9.69
7.98
6.25
4.34
2.12
-0.45
-3.34
-6.46
-9.69
-12.92
-16.09
-19.21
-22.35
-25.63
-29.2
-33.2
-37.65
-42.43
-47.22
-51.48
-54.5
-55.58
-54.23
-50.31
-44.13
-36.38
-27.93
-19.61
-12.07
-5.67
-0.46
3.79
7.36
10.6
13.67
16.61
19.3
21.59
23.38
24.67
25.51
26.0
26.2
26.17
25.97
25.74
25.63
25.73
26.0
26.29
26.36
26.01
25.15
23.84
22.16
20.24
18.16
15.98
13.78
11.61
9.53
7.49
5.38
3.09
0.56
-2.19
-4.99
-7.67
-10.14
-12.43
-14.72
-17.25
-20.26
-23.84
-27.92
-32.21
-36.19
-39.23
-40.71
-40.12
-37.25
-32.27
-25.68
-18.23
-10.72
-3.81
2.12
6.99
10.99
14.38
17.41
20.19
22.66
24.69
26.15
27.05
27.51
27.69
27.76
27.8
27.83
27.87
27.96
28.14
28.4
28.63
28.62
28.12
26.99
25.28
23.23
21.15
19.28
17.72
16.39
15.12
13.76
12.21
10.48
8.63
6.73
4.85
2.99
1.12
-0.83
-2.94
-5.3
-7.93
-10.77
-13.69
-16.51
-19.1
-21.45
-23.67
-26.0
-28.67
-31.85
-35.5
-39.38
-42.98
-45.67
-46.8
-45.93
-42.97
-38.21
-32.24
-25.75
-19.32
-13.26
-7.63
-2.39
2.54
7.18
11.47
15.37
18.84
21.85
24.39
26.35
27.68
28.34
28.43
28.13
27.69
27.26
26.92
26.62
26.28
25.83
25.23
24.47
23.6
22.59
21.5
20.32
19.16
18.04
17.03
16.12
15.24
14.28
13.16
11.84
10.34
8.73
7.08
5.48
3.94
2.47
1.04
-0.4
-1.9
-3.55
-5.46
-7.69
-10.2
-12.86
-15.44
-17.74
-19.73
-21.56
-23.6
-26.21
-29.6
-33.66
-37.89
-41.57
-43.9
-44.23
-42.31
-38.29
-32.7
-26.25
-19.7
-13.65
-8.41
-4.09
-0.53
2.45
5.08
7.52
9.83
12.0
13.98
15.65
16.91
17.67
17.94
17.85
17.6
17.47
17.61
18.03
18.59
19.05
19.19
18.95
18.35
17.54
16.65
15.71
14.75
13.69
12.5
11.17
9.7
8.1
6.37
4.52
2.55
0.49
-1.61
-3.71
-5.8
-7.9
-10.07
-12.38
-14.83
-17.39
-19.97
-22.49
-24.97
-27.54
-30.41
-33.76
-37.59
-41.57
-45.1
-47.45
-47.96
-46.3
-42.56
-37.22
-30.96
-24.46
-18.19
-12.37
-7.05
-2.16
2.31
6.36
9.99
13.19
16.02
18.5
20.65
22.44
23.82
24.79
25.4
25.75
25.99
26.27
26.67
27.17
27.68
28.06
28.18
28.0
27.53
26.87
26.1
25.29
24.41
23.44
22.37
21.2
20.01
18.82
17.61
16.28
14.75
12.97
10.98
8.92
6.88
4.93
3.05
1.16
-0.8
-2.84
-4.94
-7.06
-9.23
-11.5
-13.88
-16.34
-18.77
-21.1
-23.38
-25.76
-28.51
-31.79
-35.58
-39.48
-42.88
-45.03
-45.32
-43.46
-39.57
-34.11
-27.77
-21.3
-15.3
-10.15
-5.91
-2.4
0.69
3.65
6.62
9.58
12.36
14.74
16.61
17.98
18.91
19.52
19.88
20.01
19.9
19.55
19.05
18.5
18.05
17.79
17.73
17.75
17.62
17.14
16.2
14.86
13.37
11.98
10.88
10.05
9.31
8.43
7.26
5.85
4.33
2.84
1.49
0.22
-1.05
-2.39
-3.8
-5.22
-6.6
-7.93
-9.26
-10.67
-12.22
-14.0
-16.05
-18.44
-21.24
-24.52
-28.29
-32.41
-36.56
-40.24
-42.83
-43.78
-42.72
-39.64
-34.87
-29.01
-22.77
-16.76
-11.41
-6.88
-3.14
-0.02
2.68
5.11
7.37
9.48
11.44
13.21
14.75
15.99
16.92
17.5
17.75
17.73
17.54
17.3
17.12
17.07
17.11
17.15
17.06
16.7
15.99
14.93
13.59
12.07
10.5
8.97
7.54
6.23
5.0
3.78
2.46
0.92
-0.92
-3.07
-5.45
-7.95
-10.4
-12.71
-14.84
-16.91
-19.11
-21.68
-24.83
-28.65
-33.0
-37.48
-41.47
-44.26
-45.24
-44.07
-40.78
-35.79
-29.72
-23.3
-17.08
-11.45
-6.52
-2.24
1.51
4.85
7.87
10.68
13.27
15.63
17.66
19.23
20.23
20.64
20.61
20.34
20.09
20.05
20.3
20.79
21.39
21.95
22.32
22.42
22.18
21.57
20.58
19.24
17.63
15.89
14.18
12.57
11.07
9.55
7.85
5.87
3.57
1.1
-1.39
-3.8
-6.17
-8.65
-11.38
-14.37
-17.48
-20.5
-23.24
-25.72
-28.08
-30.54
-33.29
-36.47
-40.13
-44.25
-48.69
-53.11
-56.9
-59.29
-59.53
-57.15
-52.19
-45.16
-36.88
-28.26
-19.99
-12.5
-5.91
-0.19
4.83
9.34
13.55
17.55
21.42
25.06
28.29
30.91
32.78
33.9
34.44
34.6
34.59
34.52
34.43
34.3
34.15
33.99
33.82
33.57
33.11
32.31
31.06
29.41
27.45
25.33
23.11
20.81
18.4
15.85
13.21
10.57
8.02
5.58
3.25
0.95
-1.37
-3.73
-6.13
-8.58
-11.06
-13.58
-16.16
-18.89
-21.92
-25.43
-29.54
-34.17
-38.96
-43.21
-46.11
-46.92
-45.19
-40.95
-34.67
-27.17
-19.3
-11.82
-5.17
0.48
5.22
9.25
12.78
15.99
18.9
21.52
23.79
25.64
27.0
27.85
28.23
28.24
28.04
27.79
27.64
27.65
27.83
28.1
28.36
28.44
28.19
27.49
26.26
24.56
22.54
20.4
18.37
16.57
14.95
13.3
11.38
8.95
5.93
2.45
-1.25
-4.86
-8.17
-11.13
-13.86
-16.64
-19.79
-23.51
-27.8
-32.33
-36.49
-39.51
-40.66
-39.53
-36.12
-30.81
-24.28
-17.24
-10.27
-3.8
1.92
6.83
10.93
14.36
17.29
19.88
22.22
24.3
26.03
27.33
28.15
28.59
28.79
28.91
29.04
29.21
29.4
29.58
29.79
30.05
30.36
30.6
30.58
30.14
29.18
27.77
26.04
24.19
22.34
20.54
18.75
16.97
15.17
13.37
11.58
9.73
7.83
5.82
3.78
1.8
-0.02
-1.6
-3.04
-4.46
-6.09
-8.1
-10.54
-13.31
-16.2
-18.97
-21.43
-23.65
-25.86
-28.42
-31.64
-35.58
-39.99
-44.29
-47.67
-49.38
-48.88
-45.95
-40.87
-34.22
-26.81
-19.44
-12.67
-6.82
-1.89
2.25
5.82
9.0
11.91
14.65
17.28
19.78
22.09
24.08
25.61
26.6
27.06
27.11
26.91
26.64
26.44
26.38
26.46
26.6
26.7
26.61
26.28
25.69
24.91
24.0
22.97
21.79
20.41
18.8
17.06
15.29
13.57
11.92
10.3
8.61
6.82
4.98
3.22
1.68
0.38
-0.77
-1.98
-3.42
-5.19
-7.26
-9.45
-11.62
-13.68
-15.62
-17.55
-19.6
-21.93
-24.69
-27.99
-31.79
-35.83
-39.58
-42.29
-43.26
-42.06
-38.72
-33.73
-27.87
-21.87
-16.25
-11.25
-6.84
-2.92
0.61
3.79
6.69
9.33
11.8
14.06
16.04
17.59
18.59
19.01
18.98
18.75
18.53
18.48
18.64
18.94
19.25
19.47
19.55
19.44
19.13
18.64
17.99
17.22
16.31
15.23
13.89
12.21
10.18
7.91
5.57
3.34
1.32
-0.49
-2.15
-3.8
-5.47
-7.17
-8.84
-10.43
-11.97
-13.5
-15.12
-16.94
-19.11
-21.72
-24.79
-28.2
-31.62
-34.53
-36.39
-36.73
-35.34
-32.29
-27.92
-22.7
-17.18
-11.8
-6.95
-2.81
0.54
3.22
5.44
7.47
9.53
11.71
13.91
15.91
17.39
18.19
18.3
17.9
17.3
16.79
16.53
16.54
16.75
17.02
17.26
17.36
17.26
16.89
16.26
15.42
14.44
13.41
12.38
11.31
10.15
8.88
7.48
5.99
4.46
2.89
1.32
-0.19
-1.6
-2.86
-4.02
-5.21
-6.59
-8.3
-10.35
-12.59
-14.83
-16.88
-18.68
-20.29
-21.89
-23.72
-25.93
-28.57
-31.5
-34.36
-36.66
-37.83
-37.48
-35.43
-31.88
-27.25
-22.12
-16.99
-12.23
-8.02
-4.4
-1.32
1.3
3.53
5.44
7.1
8.57
9.88
11.06
12.06
12.83
13.31
13.5
13.52
13.52
13.63
13.9
14.29
14.68
14.98
15.18
15.27
15.31
15.25
15.04
14.57
13.81
12.79
11.61
10.38
9.17
8.03
6.96
5.91
4.82
3.64
2.35
1.0
-0.28
-1.37
-2.19
-2.78
-3.27
-3.89
-4.83
-6.17
-7.89
-9.84
-11.85
-13.79
-15.61
-17.38
-19.24
-21.35
-23.87
-26.82
-30.09
-33.42
-36.37
-38.47
-39.23
-38.29
-35.58
-31.31
-25.94
-20.13
-14.53
-9.64
-5.7
-2.72
-0.45
1.46
3.33
5.32
7.4
9.34
10.86
11.75
11.99
11.71
11.16
10.57
10.07
9.76
9.64
9.73
10.02
10.45
10.93
11.34
11.52
11.41
10.96
10.2
9.19
8.0
6.68
5.32
3.93
2.51
1.05
-0.46
-2.05
-3.69
-5.39
-7.14
-8.91
-10.66
-12.3
-13.77
-15.05
-16.25
-17.59
-19.32
-21.66
-24.66
-28.08
-31.43
-34.06
-35.41
-35.11
-33.13
-29.7
-25.27
-20.31
-15.23
-10.34
-5.87
-1.93
1.5
4.54
7.38
10.18
12.97
15.62
17.89
19.55
20.49
20.8
20.66
20.34
20.03
19.85
19.86
20.05
20.39
20.81
21.19
21.41
21.34
20.92
20.2
19.26
18.24
17.26
16.4
15.66
14.99
14.22
13.19
11.76
9.91
7.73
5.45
3.31
1.51
0.13
-0.93
-1.88
-2.94
-4.27
-5.96
-7.96
-10.18
-12.48
-14.74
-16.89
-18.94
-20.98
-23.17
-25.74
-28.86
-32.56
-36.61
-40.46
-43.38
-44.61
-43.65
-40.42
-35.29
-28.99
-22.33
-16.0
-10.43
-5.7
-1.71
1.82
5.1
8.26
11.32
14.22
16.83
19.06
20.84
22.16
23.05
23.54
23.7
23.62
23.43
23.27
23.26
23.45
23.79
24.18
24.47
24.56
24.37
23.92
23.23
22.31
21.19
19.86
18.36
16.78
15.22
13.76
12.4
11.1
9.76
8.31
6.74
5.11
3.54
2.12
0.87
-0.28
-1.5
-2.93
-4.68
-6.73
-8.92
-11.08
-13.05
-14.81
-16.53
-18.46
-20.88
-23.99
-27.72
-31.78
-35.59
-38.47
-39.8
-39.18
-36.56
-32.21
-26.64
-20.42
-14.08
-8.05
-2.64
1.96
5.67
8.56
10.82
12.71
14.44
16.07
17.55
18.74
19.5
19.83
19.79
19.5
19.11
18.74
18.48
18.4
18.54
18.85
19.23
19.53
19.55
19.13
18.22
16.86
15.2
13.46
11.84
10.48
9.39
8.49
7.63
6.64
5.45
4.03
2.48
0.87
-0.71
-2.26
-3.84
-5.6
-7.69
-10.22
-13.31
-16.97
-21.17
-25.77
-30.44
-34.66
-37.81
-39.26
-38.63
-35.9
-31.45
-25.95
-20.1
-14.44
-9.29
-4.72
-0.7
2.79
5.78
8.32
10.49
12.43
14.29
16.09
17.74
19.02
19.74
19.83
19.41
18.75
18.17
17.88
17.95
18.25
18.58
18.78
18.74
18.46
18.01
17.43
16.73
15.91
14.94
13.85
12.63
11.31
9.86
8.26
6.51
4.63
2.7
0.82
-0.97
-2.7
-4.46
-6.33
-8.32
-10.35
-12.27
-13.98
-15.48
-16.93
-18.56
-20.59
-23.18
-26.33
-29.95
-33.78
-37.38
-40.21
-41.66
-41.2
-38.62
-34.07
-28.05
-21.31
-14.59
-8.43
-3.14
1.27
4.96
8.18
11.17
14.12
17.11
20.06
22.8
25.08
26.69
27.55
27.68
27.28
26.56
25.75
24.99
24.34
23.77
23.25
22.7
22.08
21.33
20.4
19.25
17.89
16.36
14.75
13.15
11.63
10.23
8.93
7.67
6.39
5.05
3.66
2.25
0.84
-0.63
-2.28
-4.19
-6.42
-8.89
-11.43
-13.84
-16.03
-18.0
-19.87
-21.81
-24.01
-26.54
-29.45
-32.62
-35.82
-38.65
-40.59
-41.11
-39.78
-36.51
-31.55
-25.51
-19.15
-13.18
-8.05
-3.87
-0.51
2.32
4.84
7.16
9.27
11.13
12.7
14.0
15.09
15.99
16.73
17.34
17.88
18.42
19.04
19.74
20.48
21.15
21.6
21.75
21.53
20.95
20.07
18.97
17.72
16.38
14.95
13.41
11.78
10.09
8.39
6.7
5.02
3.27
1.4
-0.63
-2.79
-4.97
-7.08
-9.02
-10.81
-12.54
-14.42
-16.73
-19.67
-23.3
-27.43
-31.63
-35.27
-37.7
-38.42
-37.15
-33.92
-29.05
-23.08
-16.66
-10.41
-4.77
0.02
4.0
7.31
10.16
12.69
14.97
17.03
18.8
20.26
21.33
21.99
22.25
22.17
21.91
21.64
21.55
21.74
22.22
22.9
23.62
24.22
24.51
24.35
23.66
22.43
20.76
18.84
16.92
15.16
13.65
12.31
10.98
9.5
7.77
5.82
3.8
1.86
0.14
-1.28
-2.46
-3.49
-4.5
-5.61
-6.9
-8.42
-10.16
