3.09
1.03
-1.06
-3.3
-5.83
-8.7
-11.91
-15.35
-18.87
-22.3
-25.53
-28.47
-31.2
-33.9
-36.87
-40.38
-44.61
-49.47
-54.53
-59.01
-61.98
-62.62
-60.38
-55.2
-47.52
-38.17
-28.16
-18.46
-9.82
-2.63
3.02
7.36
10.77
13.67
16.34
18.94
21.4
23.58
25.33
26.49
27.05
27.14
26.94
26.74
26.8
27.28
28.18
29.31
30.38
31.08
31.19
30.7
29.71
28.41
26.94
25.37
23.72
21.88
19.8
17.45
14.89
12.28
9.79
7.56
5.6
3.85
2.11
0.23
-1.93
-4.38
-7.03
-9.75
-12.41
-14.96
-17.44
-19.99
-22.79
-26.08
-30.03
-34.68
-39.83
-44.99
-49.42
-52.21
-52.62
-50.21
-45.12
-37.94
-29.62
-21.14
-13.28
-6.48
-0.82
3.87
7.88
11.44
14.72
17.75
20.44
22.67
24.32
25.3
25.66
25.55
25.18
24.81
24.66
24.85
25.37
26.14
26.99
27.74
28.21
28.27
27.84
26.88
25.45
23.68
21.76
19.86
18.06
16.34
14.58
12.64
10.45
8.05
5.59
3.24
1.1
-0.79
-2.5
-4.15
-5.89
-7.9
-10.29
-13.08
-16.13
-19.21
-22.05
-24.51
-26.64
-28.74
-31.24
-34.5
-38.67
-43.56
-48.59
-52.97
-55.87
-56.6
-54.83
-50.58
-44.26
-36.56
-28.32
-20.32
-13.14
-7.09
-2.14
1.96
5.57
9.02
12.49
15.96
19.26
22.12
24.3
25.7
26.39
26.58
26.54
26.53
26.72
27.16
27.85
28.73
29.67
30.47
30.89
30.69
29.79
28.27
26.38
24.43
22.64
21.09
19.73
18.44
17.15
15.8
14.38
12.84
11.14
9.25
7.24
5.21
3.29
1.55
-0.03
-1.61
-3.33
-5.32
-7.64
-10.21
-12.93
-15.7
-18.41
-21.09
-23.76
-26.52
-29.48
-32.75
-36.42
-40.45
-44.61
-48.45
-51.32
-52.49
-51.45
-48.0
-42.48
-35.6
-28.29
-21.38
-15.44
-10.64
-6.82
-3.63
-0.73
2.14
5.07
8.03
10.88
13.44
15.53
17.07
18.1
18.77
19.25
19.71
20.22
20.78
21.34
21.83
22.22
22.42
22.38
21.99
21.22
20.08
18.68
17.17
15.69
14.34
13.13
11.99
10.82
9.55
8.15
6.6
4.92
3.11
1.14
-1.03
-3.4
-5.92
-8.45
-10.86
-13.1
-15.21
-17.37
-19.84
-22.84
-26.41
-30.35
-34.25
-37.47
-39.38
-39.43
-37.42
-33.45
-28.0
-21.77
-15.49
-9.74
-4.84
-0.8
2.61
5.7
8.71
11.71
14.58
17.1
19.05
20.36
21.14
21.65
22.09
22.62
23.19
23.72
24.06
24.21
24.21
24.18
24.15
24.09
23.89
23.44
22.71
21.76
20.72
19.68
18.7
17.75
16.72
15.52
14.06
12.34
10.44
8.49
6.59
4.78
3.05
1.28
-0.62
-2.71
-5.01
-7.49
-10.14
-12.95
-15.98
-19.3
-23.0
-27.11
-31.61
-36.31
-40.83
-44.62
-47.07
-47.65
-46.1
-42.5
-37.27
-31.0
-24.36
-17.92
-12.06
-7.0
-2.73
0.87
3.94
6.66
9.14
11.4
13.42
15.12
16.42
17.3
17.78
17.97
17.99
18.0
18.1
18.32
18.67
19.09
19.54
20.0
20.44
20.8
20.99
20.91
20.51
19.78
18.79
17.63
16.36
15.01
13.57
12.05
10.54
9.13
7.94
6.98
6.23
5.55
4.82
3.95
2.89
1.7
0.47
-0.69
-1.71
-2.63
-3.6
-4.82
-6.45
-8.51
-10.93
-13.51
-16.08
-18.54
-20.88
-23.17
-25.51
-28.0
-30.76
-33.86
-37.32
-40.96
-44.37
-46.94
-48.01
-47.08
-44.01
-39.07
-32.9
-26.25
-19.82
-14.14
-9.43
-5.67
-2.66
-0.09
2.33
4.78
7.29
9.74
11.97
13.82
15.29
16.42
17.34
18.11
18.76
19.29
19.66
19.94
20.21
20.51
20.86
21.2
21.44
21.51
21.38
21.05
20.51
19.78
18.87
17.8
16.61
15.38
14.18
13.05
12.05
11.12
10.21
9.25
8.18
7.04
5.89
4.82
3.85
2.92
1.9
0.68
-0.84
-2.64
-4.69
-6.91
-9.24
-11.63
-13.97
-16.17
-18.13
-19.81
-21.3
-22.83
-24.69
-27.17
-30.31
-33.89
-37.4
-40.13
-41.37
-40.65
-37.85
-33.29
-27.61
-21.55
-15.79
-10.8
-6.77
-3.67
-1.31
0.58
2.29
4.05
5.99
8.12
10.33
12.45
14.3
15.76
16.78
17.43
17.79
17.99
18.17
18.45
18.92
19.56
20.29
20.96
21.38
21.38
20.9
19.96
18.66
17.18
15.68
14.26
12.98
11.82
10.72
9.65
8.57
7.48
6.34
5.12
3.79
2.31
0.71
-0.96
-2.66
-4.36
-6.05
-7.72
-9.36
-10.97
-12.52
-14.0
-15.44
-16.9
-18.53
-20.49
-22.91
-25.93
-29.5
-33.39
-37.18
-40.27
-42.05
-42.02
-39.94
-35.94
-30.45
-24.15
-17.76
-11.92
-7.05
-3.25
-0.38
1.85
3.83
5.79
7.88
10.06
12.2
14.13
15.7
16.84
17.55
17.87
17.89
17.75
17.56
17.43
17.42
17.51
17.63
17.63
17.44
17.0
16.37
15.64
14.9
14.21
13.59
13.02
12.47
11.93
11.37
10.8
10.18
9.49
8.7
7.83
6.85
5.76
4.52
3.11
1.54
-0.15
-1.93
-3.76
-5.67
-7.67
-9.75
-11.85
-13.87
-15.73
-17.37
-18.87
-20.4
-22.18
-24.46
-27.33
-30.73
-34.39
-37.8
-40.31
-41.3
-40.31
-37.28
-32.52
-26.7
-20.66
-15.12
-10.54
-7.0
-4.31
-2.14
-0.15
1.9
4.12
6.52
9.02
11.45
13.63
15.35
16.48
17.0
17.04
16.84
16.7
16.83
17.31
18.02
18.75
19.23
19.3
18.94
18.25
17.37
16.41
15.39
14.25
12.96
11.56
10.15
8.86
7.76
6.79
5.86
4.85
3.74
2.56
1.4
0.32
-0.73
-1.88
-3.23
-4.83
-6.59
-8.41
-10.16
-11.86
-13.63
-15.67
-18.14
-21.09
-24.42
-27.85
-30.92
-33.11
-33.88
-32.86
-29.98
-25.52
-20.06
-14.27
-8.74
-3.77
0.57
4.37
7.75
10.78
13.46
15.76
17.66
19.19
20.38
21.27
21.82
21.97
21.65
20.86
19.72
18.52
17.55
17.05
17.05
17.36
17.64
17.57
17.02
16.08
15.0
14.05
13.3
12.66
11.91
10.86
9.46
7.84
6.16
4.54
3.03
1.52
-0.07
-1.75
-3.48
-5.21
-6.92
-8.68
-10.51
-12.42
-14.35
-16.26
-18.11
-20.02
-22.2
-24.86
-28.13
-31.94
-36.03
-39.86
-42.81
-44.23
-43.66
-40.97
-36.47
-30.75
-24.6
-18.74
-13.6
-9.3
-5.67
-2.44
0.67
3.83
7.06
10.27
13.3
16.02
18.31
20.12
21.43
22.24
22.65
22.75
22.69
22.63
22.64
22.74
22.86
22.85
22.57
21.96
21.05
19.98
18.91
17.96
17.21
16.58
15.98
15.28
14.39
13.31
12.05
10.71
9.39
8.18
7.12
6.21
5.36
4.44
3.32
1.93
0.24
-1.71
-3.84
-6.07
-8.31
-10.46
-12.49
-14.43
-16.48
-18.9
-21.99
-25.85
-30.27
-34.72
-38.41
-40.58
-40.66
-38.46
-34.22
-28.5
-22.05
-15.61
-9.79
-4.95
-1.15
1.83
4.31
6.64
9.05
11.55
14.03
16.27
18.07
19.31
19.95
20.08
19.85
19.46
19.09
18.93
19.06
19.47
20.07
20.68
21.15
21.34
21.22
20.79
20.11
19.24
18.24
17.19
16.15
15.21
14.38
13.6
12.74
11.66
10.28
8.64
6.81
4.89
2.89
0.8
-1.44
-3.81
-6.21
-8.49
-10.53
-12.34
-14.07
-15.95
-18.21
-20.97
-24.15
-27.48
-30.49
-32.66
-33.47
-32.57
-29.84
-25.49
-19.98
-13.94
-8.01
-2.74
1.58
4.91
7.5
9.67
11.73
13.81
15.83
17.54
18.71
19.18
19.01
18.43
17.72
17.14
16.83
16.84
17.16
17.7
18.41
19.21
19.94
20.43
20.48
19.99
18.98
17.62
16.19
14.94
13.98
13.23
12.49
11.56
10.33
8.85
7.24
5.67
4.27
3.08
2.04
1.05
-0.01
-1.25
-2.71
-4.4
-6.26
-8.19
-10.1
-11.93
-13.67
-15.44
-17.41
-19.77
-22.65
-25.97
-29.37
-32.29
-34.07
-34.22
-32.57
-29.37
-25.13
-20.44
-15.79
-11.43
-7.44
-3.77
-0.39
2.73
5.59
8.2
10.54
12.57
14.24
15.49
16.34
16.88
17.27
17.65
18.04
18.38
18.54
18.47
18.23
17.93
17.71
17.59
17.51
17.37
17.05
16.56
15.92
15.22
14.48
13.73
13.01
12.33
11.7
11.07
10.36
9.52
8.53
7.43
6.32
5.24
4.22
3.19
2.07
0.79
-0.68
-2.32
-4.11
-5.98
-7.86
-9.73
-11.58
-13.43
-15.35
-17.39
-19.63
-22.11
-24.82
-27.7
-30.56
-33.02
-34.63
-34.89
-33.47
-30.36
-25.94
-20.84
-15.77
-11.27
-7.61
-4.72
-2.39
-0.36
1.57
3.45
5.29
7.04
8.64
10.04
11.21
12.13
12.8
13.32
13.78
14.27
14.81
15.35
15.78
16.01
16.0
15.75
15.33
14.74
13.99
13.12
12.13
11.11
10.12
9.19
8.29
7.35
6.29
5.09
3.81
2.56
1.43
0.47
-0.35
-1.17
-2.1
-3.24
-4.64
-6.23
-7.93
-9.65
-11.36
-13.07
-14.84
-16.73
-18.8
-21.04
-23.39
-25.75
-27.91
-29.59
-30.44
-30.15
-28.59
-25.85
-22.3
-18.42
-14.65
-11.32
-8.5
-6.13
-4.08
-2.17
-0.35
1.43
3.14
4.7
6.02
7.01
7.67
8.06
8.31
8.58
8.98
9.55
10.24
10.95
11.58
12.06
12.31
12.29
12.0
11.48
10.8
9.99
9.08
8.03
6.8
5.35
3.73
2.01
0.25
-1.51
-3.29
-5.09
-6.88
-8.6
-10.16
-11.55
-12.82
-14.03
-15.27
-16.58
-17.98
-19.58
-21.49
-23.85
-26.66
-29.7
-32.56
-34.69
-35.62
-35.09
-33.09
-29.86
-25.72
-21.05
-16.22
-11.59
-7.46
-4.03
-1.35
0.72
2.45
4.11
5.86
7.67
9.37
10.8
11.85
12.55
13.0
13.28
13.46
13.55
13.56
13.55
13.56
13.67
13.86
14.1
14.28
14.32
14.16
13.86
13.51
13.19
12.97
12.77
12.5
11.96
11.06
9.77
8.21
6.54
4.94
3.47
2.1
0.73
-0.78
-2.49
-4.4
-6.48
-8.66
-10.92
-13.21
-15.55
-17.91
-20.31
-22.74
-25.32
-28.16
-31.37
-34.88
-38.41
-41.42
-43.26
-43.4
-41.6
-38.01
-33.14
-27.68
-22.27
-17.35
-13.09
-9.44
-6.26
-3.39
-0.71
1.83
4.24
6.5
8.59
10.43
11.97
13.18
14.08
14.77
15.38
16.1
17.06
18.31
19.76
21.2
22.39
23.1
23.22
22.78
21.91
20.76
19.45
18.0
16.46
14.82
13.14
11.47
9.79
8.08
6.28
4.35
2.28
0.15
-1.99
-4.13
-6.29
-8.54
-10.89
-13.35
-15.9
-18.54
-21.34
-24.44
-27.98
-31.98
-36.27
-40.43
-43.86
-45.93
-46.16
-44.32
-40.53
-35.19
-28.88
-22.23
-15.75
-9.82
-4.57
0.05
4.24
8.17
11.97
15.6
18.92
21.75
23.94
25.49
26.48
27.08
27.49
27.89
28.41
29.12
30.0
30.97
31.9
32.63
33.04
33.06
32.72
32.1
31.31
30.44
29.53
28.53
27.37
25.92
24.06
21.78
19.13
16.29
13.46
10.8
8.36
6.07
3.74
1.23
-1.52
-4.42
-7.29
-9.98
-12.48
-14.92
-17.59
-20.82
-24.78
-29.43
-34.41
-39.1
-42.76
-44.66
-44.3
-41.54
-36.64
-30.16
-22.88
-15.5
-8.62
-2.56
2.57
6.88
10.59
13.93
17.09
20.16
23.14
25.97
28.51
30.65
32.3
33.42
34.08
34.43
34.69
35.01
35.49
36.06
36.55
36.8
36.67
36.16
35.32
34.28
33.12
31.91
30.69
29.48
28.25
26.95
25.51
23.85
21.94
19.83
17.58
15.3
13.05
10.84
8.66
6.48
4.26
1.98
-0.43
-2.99
-5.7
-8.5
-11.27
-13.88
-16.3
-18.62
-21.14
-24.19
-28.02
-32.59
-37.46
-41.83
-44.77
-45.51
-43.7
-39.53
-33.63
-26.82
-19.9
-13.47
-7.84
-3.03
1.09
4.73
8.08
11.27
14.3
17.07
19.47
21.36
22.72
23.59
24.07
24.31
24.44
24.56
24.73
24.95
25.16
25.27
25.21
24.92
24.4
23.61
22.54
21.16
19.51
17.68
15.79
13.96
12.26
10.64
9.02
7.31
5.48
3.55
1.52
-0.58
-2.78
-5.06
-7.35
-9.52
-11.46
-13.16
-14.75
-16.51
-18.74
-21.62
-25.16
-29.06
-32.82
-35.77
-37.32
-37.09
-34.99
-31.26
-26.36
-20.81
-15.12
-9.67
-4.71
-0.39
3.24
6.21
8.64
10.72
12.59
14.3
15.78
16.9
17.53
17.69
17.49
17.21
17.11
17.35
17.91
18.64
19.31
19.74
19.83
19.6
19.07
18.27
17.17
15.75
14.06
12.19
10.3
8.49
6.82
5.2
3.55
1.78
-0.12
-2.08
-4.0
-5.81
-7.48
-9.06
-10.58
-12.11
-13.68
-15.35
-17.2
-19.33
-21.85
-24.81
-28.14
-31.56
-34.65
-36.85
-37.66
-36.74
-34.08
-29.95
-24.86
-19.4
-14.08
-9.24
-5.02
-1.41
1.68
4.35
6.7
8.78
10.63
12.25
13.66
14.85
15.77
16.44
16.83
17.01
17.06
17.11
17.27
17.63
18.16
18.79
19.39
19.85
20.06
19.98
19.57
18.89
18.0
17.04
16.15
15.39
14.74
14.05
13.15
11.9
10.33
8.58
6.83
5.23
3.8
2.42
0.94
-0.77
-2.69
-4.74
-6.8
-8.75
-10.56
-12.21
-13.73
-15.17
-16.63
-18.26
-20.2
-22.56
-25.32
-28.28
-31.03
-33.06
-33.9
-33.26
-31.11
-27.73
-23.57
-19.16
-14.92
-11.08
-7.68
-4.64
-1.85
0.75
3.17
5.38
7.35
9.05
10.49
11.59
12.29
12.56
12.4
11.94
11.38
10.91
10.65
10.59
10.63
10.61
10.4
9.97
9.35
8.62
7.86
7.09
6.3
5.41
4.4
3.25
1.99
0.67
-0.67
-2.04
-3.47
-5.01
-6.67
-8.43
-10.26
-12.1
-13.86
-15.49
-16.93
-18.18
-19.27
-20.35
-21.56
-23.05
-24.9
-27.01
-29.14
-30.92
-31.89
-31.63
-29.87
-26.62
-22.14
-16.97
-11.75
-7.02
-3.07
0.07
2.65
4.9
6.99
8.91
10.52
11.7
12.43
12.81
13.04
13.3
13.67
14.13
14.62
15.06
15.43
15.76
16.1
16.45
16.77
16.94
16.84
16.38
15.52
14.32
12.85
11.2
9.41
7.54
5.59
3.58
1.51
-0.64
-2.91
-5.26
-7.63
-9.89
-11.9
-13.64
-15.19
-16.8
-18.75
-21.23
-24.28
-27.73
-31.18
-34.16
-36.15
-36.73
-35.68
-33.01
-28.99
-24.07
-18.76
-13.51
-8.66
-4.4
-0.77
2.25
4.78
6.99
9.05
11.14
13.33
15.58
17.7
19.54
20.94
21.89
22.47
22.81
23.02
23.18
23.28
23.3
23.18
22.84
22.23
21.3
20.07
18.62
17.09
15.64
14.37
13.27
12.22
11.05
9.61
7.85
5.85
3.79
1.8
-0.03
-1.75
-3.52
-5.43
-7.5
-9.62
-11.64
-13.46
-15.08
-16.63
-18.26
-20.14
-22.38
-25.03
-28.14
-31.65
-35.33
-38.77
-41.36
-42.45
-41.6
-38.74
-34.19
-28.62
-22.75
-17.13
-12.07
-7.6
-3.59
0.05
3.37
6.4
9.1
11.53
13.72
15.76
17.64
19.3
20.66
21.64
22.26
22.59
22.79
23.02
23.35
23.82
24.35
24.82
25.14
25.23
25.07
24.68
24.06
23.22
22.17
20.91
19.51
18.02
16.51
15.02
13.55
12.1
10.69
9.35
8.11
6.99
5.92
4.8
3.49
1.89
-0.02
-2.17
-4.46
-6.77
-9.03
-11.21
-13.36
-15.57
-17.98
-20.77
-24.03
-27.84
-32.06
-36.35
-40.19
-42.96
-44.04
-43.05
-39.94
-35.02
-28.94
-22.49
-16.4
-11.14
-6.85
-3.37
-0.39
2.38
5.1
7.75
10.18
12.26
13.87
15.05
15.86
16.41
16.84
17.23
17.67
18.21
18.88
19.62
20.38
21.06
21.55
21.76
21.69
21.34
20.78
20.04
19.15
18.08
16.82
15.36
13.77
12.08
10.38
8.73
7.12
5.55
3.97
2.32
0.52
-1.48
-3.69
-6.0
-8.28
-10.44
-12.48
-14.53
-16.81
-19.53
-22.76
-26.43
-30.26
-33.82
-36.61
-38.11
-37.92
-35.85
-32.06
-26.95
-21.1
-15.08
-9.32
-4.07
0.62
4.76
8.39
11.53
14.21
16.43
18.22
19.63
20.68
21.42
21.87
22.08
22.1
22.01
21.93
22.01
22.37
23.03
23.89
24.7
25.21
25.22
24.72
23.79
22.65
21.44
20.27
19.15
18.03
16.86
15.57
14.13
12.52
10.73
8.82
6.86
4.96
3.15
1.42
-0.32
-2.18
-4.21
-6.42
-8.66
-10.82
-12.77
-14.5
-16.07
-17.66
-19.46
-21.63
-24.3
-27.48
-31.07
-34.76
-38.08
-40.41
-41.15
-39.88
-36.55
-31.52
-25.44
-19.1
-13.15
-7.95
-3.55
0.22
3.65
6.91
10.05
12.96
15.49
17.53
19.04
20.09
20.78
21.18
21.3
21.1
20.63
19.97
19.32
18.86
18.7
18.82
19.08
19.33
19.41
19.27
18.9
18.34
17.63
16.85
16.06
15.29
14.55
13.77
12.88
11.82
10.64
9.43
8.23
7.07
5.86
4.55
3.16
1.75
0.45
-0.74
-1.92
-3.27
-5.0
-7.16
-9.62
-12.12
-14.37
-16.23
-17.74
-19.12
-20.69
-22.74
-25.45
-28.77
-32.45
-36.05
-39.0
-40.72
-40.79
-39.02
-35.54
-30.79
-25.35
-19.83
-14.73
-10.34
-6.72
-3.76
-1.24
1.08
3.39
5.76
8.16
10.47
12.54
14.29
15.66
16.7
17.49
18.1
18.61
19.05
19.45
19.8
20.09
20.29
20.33
20.15
19.65
18.77
17.55
16.06
14.5
13.04
11.81
10.79
9.89
8.9
7.68
6.18
4.51
2.85
1.38
0.14
-0.96
-2.14
-3.55
-5.28
-7.22
-9.19
-11.04
-12.74
-14.37
-16.11
-18.12
-20.49
-23.19
-26.16
-29.31
-32.46
-35.32
-37.5
-38.5
-37.88
-35.46
-31.38
-26.14
-20.41
-14.86
-9.93
-5.78
-2.34
0.62
3.31
5.88
8.36
10.69
12.81
14.64
16.08
17.08
17.58
17.59
17.21
16.66
16.21
16.1
16.46
17.23
18.24
19.2
19.86
20.1
19.9
19.39
18.75
18.13
17.61
17.15
16.61
15.79
14.58
12.96
11.04
8.97
6.93
5.01
3.2
1.47
-0.25
-1.95
-3.66
-5.36
-7.1
-8.92
-10.85
-12.86
-14.86
-16.75
-18.47
-20.11
-21.84
-23.91
-26.53
-29.72
-33.29
-36.81
-39.71
-41.44
-41.58
-39.97
-36.75
-32.3
-27.18
-21.95
-17.07
-12.76
-9.02
-5.66
-2.44
0.83
4.14
7.34
10.17
12.46
14.16
15.38
16.27
16.95
17.5
17.95
18.37
18.93
19.75
20.89
22.22
23.49
24.47
25.05
25.25
25.21
25.04
24.72
24.17
23.35
22.3
21.15
20.07
19.11
18.2
17.17
15.84
14.13
12.08
9.89
7.71
5.71
3.89
2.21
0.51
-1.35
-3.44
-5.75
-8.17
-10.54
-12.74
-14.73
-16.6
-18.54
-20.78
-23.51
-26.85
-30.73
-34.93
-39.0
-42.36
-44.37
-44.49
-42.43
-38.28
-32.46
-25.73
-18.92
-12.71
-7.56
-3.55
-0.48
1.99
4.17
6.28
8.4
10.5
12.53
14.38
15.93
17.09
17.76
17.98
17.94
17.91
18.14
18.75
19.67
20.63
21.34
21.6
21.35
20.64
19.64
18.49
17.3
16.13
14.97
13.82
12.61
11.33
9.99
8.61
7.26
5.96
4.7
3.42
2.03
0.48
-1.25
-3.14
-5.15
-7.21
-9.32
-11.46
-13.61
-15.8
-18.1
-20.62
-23.44
-26.54
-29.71
-32.47
-34.23
-34.4
-32.66
-29.06
-24.06
-18.39
-12.76
-7.73
-3.51
-0.07
2.85
5.45
7.91
10.25
12.43
14.37
16.0
17.24
18.05
18.44
18.52
18.48
18.51
18.74
19.18
19.73
20.21
20.46
20.44
20.19
19.78
19.29
18.7
18.0
17.17
16.21
15.22
14.25
13.35
12.48
11.58
10.57
9.41
8.1
6.72
5.33
3.91
2.36
0.53
-1.73
-4.39
-7.28
-10.11
-12.58
-14.54
-16.08
-17.47
-19.03
-21.04
-23.63
-26.76
-30.2
-33.65
-36.67
-38.78
-39.53
-38.59
-35.88
-31.65
-26.38
-20.69
-15.16
-10.18
-5.91
-2.35
0.61
3.1
5.25
7.18
9.02
10.85
12.62
14.26
15.63
16.67
17.4
17.94
18.43
18.92
19.36
19.67
19.79
19.74
19.56
19.32
19.06
18.75
18.38
17.95
17.45
16.88
16.18
15.3
14.2
12.92
11.54
10.14
8.77
7.42
6.08
4.73
3.38
2.02
0.65
-0.83
-2.49
-4.38
-6.44
-8.57
-10.6
-12.44
-14.07
-15.59
-17.19
-19.07
-21.38
-24.15
-27.28
-30.44
-33.18
-34.93
-35.2
-33.76
-30.65
-26.26
-21.14
-15.91
-11.03
-6.8
-3.31
-0.51
1.68
3.37
4.69
5.8
6.82
7.87
8.99
10.16
11.28
12.23
12.99
13.58
14.13
14.76
15.55
16.43
17.27
17.9
18.22
18.24
18.04
17.71
17.29
16.71
15.85
14.62
13.03
11.18
9.23
7.31
5.44
3.58
1.61
-0.49
-2.69
-4.86
-6.9
-8.72
-10.38
-11.99
-13.73
-15.71
-18.05
-20.73
-23.65
-26.62
-29.28
-31.15
-31.76
-30.78
-28.12
-24.0
-18.9
-13.43
-8.17
-3.54
0.28
3.33
5.83
8.01
10.03
11.89
13.5
14.74
15.57
16.04
16.28
16.42
16.51
16.55
16.52
16.44
16.39
16.45
16.64
16.9
17.11
17.09
16.73
16.01
15.01
13.85
12.63
11.44
10.24
8.95
7.47
5.76
3.89
2.03
0.39
-0.89
-1.78
-2.46
-3.18
-4.2
-5.66
-7.53
-9.67
-11.87
-13.97
-15.95
-17.88
-19.95
-22.31
-25.11
-28.35
-31.87
-35.33
-38.27
-40.14
-40.51
-39.18
-36.22
-31.97
-26.91
-21.56
-16.33
-11.52
-7.29
-3.69
-0.64
1.96
4.26
6.34
8.24
9.89
11.2
12.12
12.69
13.03
13.21
13.31
13.35
13.37
13.48
13.81
14.48
15.49
16.71
17.87
18.72
19.1
19.01
18.63
18.1
17.52
16.81
15.86
14.55
12.92
11.11
9.33
7.73
6.37
5.13
3.88
2.5
0.94
-0.81
-2.72
-4.78
-6.95
-9.18
-11.39
-13.53
-15.58
-17.62
-19.8
-22.28
-25.16
-28.44
-31.99
-35.55
-38.71
-41.04
-42.05
-41.41
-39.01
-35.02
-29.85
-24.1
-18.39
-13.2
-8.86
-5.37
-2.6
-0.25
1.93
4.13
6.4
8.7
10.9
12.83
14.37
15.44
16.09
16.46
16.78
17.28
18.07
19.1
20.19
21.06
21.47
21.29
20.59
19.51
18.28
17.04
15.88
14.8
13.73
12.63
11.47
10.26
9.02
7.78
6.58
5.43
4.36
3.31
2.16
0.73
-1.12
-3.42
-6.06
-8.85
-11.61
-14.28
-16.98
-19.92
-23.25
-26.96
-30.79
-34.29
-36.94
-38.32
-38.17
-36.43
-33.21
-28.78
-23.48
-17.75
-12.06
-6.81
-2.26
1.52
4.63
7.26
9.6
11.74
13.67
15.37
16.81
17.97
18.92
19.66
20.22
20.62
20.88
21.12
21.48
22.07
22.87
23.73
24.38
24.56
24.13
23.16
21.87
20.56
19.46
18.63
17.99
17.32
16.42
15.19
13.62
11.85
10.05
8.32
6.67
5.0
3.16
1.01
-1.43
-4.08
-6.79
-9.41
-11.88
-14.23
-16.56
-18.98
-21.64
-24.66
-28.14
-32.09
-36.4
-40.72
-44.52
-47.12
-47.88
-46.39
-42.66
-37.15
-30.65
-24.0
-17.85
-12.48
-7.83
-3.63
0.35
4.26
8.02
11.5
14.55
17.09
19.11
20.68
21.9
22.83
23.57
24.13
24.58
24.96
25.35
25.81
26.36
26.96
27.48
27.76
27.66
27.09
26.03
24.58
22.89
21.17
19.6
18.28
17.18
16.14
14.95
13.46
11.68
9.71
7.71
5.78
3.87
1.83
-0.51
-3.25
-6.33
-9.62
-12.9
-16.04
-18.96
-21.71
-24.4
-27.22
-30.39
-34.07
-38.28
-42.81
-47.18
-50.69
-52.56
-52.2
-49.35
-44.19
-37.32
-29.58
-21.88
-14.92
-9.08
-4.36
-0.53
2.79
5.94
9.06
12.12
14.95
17.38
19.31
20.79
21.95
22.95
23.88
24.77
25.61
26.4
27.16
27.93
28.71
29.42
29.93
30.06
29.66
28.66
27.13
25.18
23.03
20.88
18.8
16.76
14.58
12.06
9.08
5.68
2.08
-1.39
-4.45
-7.02
-9.22
-11.37
-13.79
-16.75
-20.4
-24.78
-29.76
-35.1
-40.32
-44.74
-47.62
-48.26
-46.32
-41.87
-35.47
-27.94
-20.16
-12.81
-6.28
-0.64
4.25
8.62
12.62
16.31
19.63
22.46
24.7
26.32
27.41
28.07
28.44
28.63
28.71
28.78
28.95
29.3
29.9
30.66
31.43
31.93
31.94
31.33
30.1
28.38
26.41
24.4
22.51
20.8
19.18
17.52
15.64
13.43
10.88
8.11
5.31
2.62
0.08
-2.37
-4.85
-7.52
-10.43
-13.52
-16.63
-19.6
-22.36
-25.03
-27.89
-31.33
-35.68
-41.01
-47.01
-52.95
-57.88
-60.82
-61.01
-58.11
-52.29
-44.16
-34.63
-24.73
-15.37
-7.19
-0.48
4.83
9.03
12.54
15.7
18.74
21.73
24.62
27.33
29.71
31.68
33.18
34.21
34.85
35.23
35.52
35.86
36.31
36.86
37.36
37.64
37.49
36.77
35.49
33.73
31.67
29.49
27.3
25.11
22.79
20.26
17.46
14.48
11.48
8.61
6.02
3.7
1.58
-0.49
-2.65
-5.05
-7.78
-10.87
-14.26
-17.83
-21.44
-24.97
-28.46
-32.05
-35.97
-40.41
-45.41
-50.76
-55.94
-60.2
-62.67
-62.61
-59.54
-53.5
-45.02
-35.04
-24.71
-15.04
-6.72
0.04
5.41
9.77
13.53
16.95
20.11
22.96
25.39
27.37
28.86
29.89
30.51
30.83
30.97
31.13
31.41
31.82
32.25
32.55
32.57
32.24
31.61
30.69
29.47
27.9
25.89
23.46
20.73
17.93
15.22
12.71
10.36
8.08
5.79
3.44
1.02
-1.5
-4.17
-7.06
-10.2
-13.58
-17.15
-20.88
-24.81
-29.04
-33.74
-38.94
-44.43
-49.68
-53.89
-56.17
-55.84
-52.62
-46.72
-38.81
-29.78
-20.54
-11.8
-4.0
2.75
8.52
13.5
17.88
21.78
25.22
28.15
30.46
32.13
33.2
33.78
34.0
33.97
33.78
33.5
33.27
33.23
33.48
34.0
34.59
34.95
34.78
33.89
32.26
30.11
27.69
25.26
22.93
20.64
18.25
15.63
12.74
9.71
6.73
4.02
1.67
-0.38
-2.37
-4.6
-7.31
-10.56
-14.2
-17.93
-21.44
-24.59
-27.48
-30.4
-33.75
-37.82
-42.65
-47.96
-53.13
-57.31
-59.62
-59.33
-56.1
-50.09
-41.92
-32.58
-23.08
-14.29
-6.65
-0.27
5.06
9.66
13.77
17.48
20.73
23.4
25.42
26.83
27.77
28.43
28.94
29.38
29.77
30.15
30.58
31.12
31.84
32.71
33.61
34.32
34.64
34.39
33.53
32.12
30.32
28.31
26.26
24.28
22.41
20.61
18.86
17.1
15.27
13.33
11.23
8.92
6.44
3.85
1.29
-1.11
-3.31
-5.38
-7.48
-9.77
-12.39
-15.34
-18.5
-21.72
-24.88
-27.94
-30.96
-34.12
-37.61
-41.64
-46.27
-51.36
-56.44
-60.75
-63.3
-63.26
-60.13
-54.03
-45.64
-36.02
-26.31
-17.41
-9.85
-3.76
1.02
4.79
7.86
10.55
13.06
15.47
17.74
19.69
21.16
22.05
22.41
22.45
22.43
22.58
23.01
23.76
24.73
25.76
26.72
27.41
27.7
27.47
26.68
25.34
23.56
21.46
19.17
16.76
14.3
11.83
9.37
6.93
4.48
2.0
-0.52
-3.07
-5.66
-8.25
-10.8
-13.31
-15.78
-18.26
-20.88
-23.82
-27.25
-31.3
-35.86
-40.63
-45.02
-48.3
-49.74
-48.81
-45.33
-39.57
-32.18
-24.04
-16.04
-8.84
-2.71
2.39
6.71
10.53
13.98
17.05
19.63
21.65
23.08
24.03
24.61
24.91
25.0
24.93
24.81
24.8
25.06
25.64
26.43
27.18
27.6
27.48
26.78
25.63
24.27
22.88
21.52
20.16
18.68
17.02
15.15
13.12
10.95
8.69
6.36
4.0
1.67
-0.58
-2.75
-4.93
-7.25
-9.81
-12.61
-15.53
-18.39
-21.05
-23.51
-25.98
-28.76
-32.17
-36.43
-41.5
-47.06
-52.55
-57.18
-60.11
-60.62
-58.3
-53.21
-45.92
-37.32
-28.44
-20.12
-12.87
-6.83
-1.84
2.36
6.03
9.34
12.38
15.14
17.63
19.81
21.64
23.12
24.26
25.1
25.67
26.02
26.21
26.34
26.54
26.86
27.27
27.63
27.67
27.21
26.17
24.71
23.07
21.48
20.04
18.67
17.23
15.6
13.76
11.75
9.64
7.44
5.14
2.73
0.3
-2.04
-4.23
-6.26
-8.28
-10.47
-12.97
-15.82
-18.89
-22.02
-25.07
-28.06
-31.14
-34.53
-38.44
-42.9
-47.7
-52.28
-55.88
-57.67
-57.0
-53.63
-47.85
-40.36
-32.09
-23.91
-16.44
-9.95
-4.41
0.36
4.56
8.35
11.77
14.81
17.38
19.43
20.94
21.97
22.61
22.98
23.16
23.23
23.25
23.27
23.38
23.6
23.92
24.26
24.5
24.52
24.23
23.6
22.59
21.23
19.57
17.68
15.66
13.6
11.57
9.58
7.59
5.57
3.46
1.25
-1.08
-3.52
-6.04
-8.63
-11.28
-13.99
-16.81
-19.87
-23.3
-27.21
-31.63
-36.38
-41.03
-44.91
-47.27
-47.42
-44.99
-40.05
-33.17
-25.22
-17.18
-9.86
-3.73
1.15
5.0
8.21
11.14
13.96
16.69
19.18
21.3
22.93
24.14
25.03
25.74
26.38
26.97
27.52
28.05
28.62
29.23
29.84
30.3
30.41
30.01
29.03
27.55
25.74
23.82
21.94
20.16
18.45
16.72
14.84
12.75
10.44
7.97
5.45
2.98
0.61
-1.71
-4.09
-6.61
-9.32
-12.15
-14.99
-17.71
-20.32
-22.94
-25.84
-29.28
-33.45
-38.27
-43.41
-48.27
-52.1
-54.13
-53.78
-50.8
-45.37
-38.1
-29.93
-21.86
-14.69
-8.8
-4.14
-0.37
2.94
6.13
9.35
12.57
15.68
18.54
21.06
23.14
24.75
25.88
26.64
27.21
27.77
28.46
29.34
30.29
31.19
31.83
32.07
31.79
30.92
29.48
27.59
25.46
23.33
21.4
19.78
18.41
17.15
15.8
14.22
12.35
10.31
8.26
6.39
4.83
3.57
2.47
1.3
-0.15
-2.04
-4.41
-7.15
-10.12
-13.16
-16.16
-19.02
-21.73
-24.34
-26.99
-29.9
-33.34
-37.48
-42.26
-47.29
-51.83
-54.97
-55.9
-54.16
-49.79
-43.32
-35.6
-27.59
-20.02
-13.34
-7.67
-2.85
1.37
5.26
8.96
12.5
15.8
18.74
21.16
23.01
24.26
25.02
25.4
25.56
25.65
25.74
25.87
25.99
26.03
25.93
25.64
25.14
24.39
23.45
22.33
21.09
19.8
18.46
17.07
15.58
14.0
12.33
10.63
8.92
7.22
5.45
3.53
1.4
-0.95
-3.44
-5.96
-8.36
-10.56
-12.6
-14.55
-16.59
-18.91
-21.67
-24.96
-28.71
-32.7
-36.47
-39.39
-40.81
-40.18
-37.28
-32.35
-26.02
-19.18
-12.65
-7.0
-2.41
1.27
4.37
7.21
9.97
12.67
15.24
17.57
19.52
21.04
22.09
22.7
22.96
23.03
23.14
23.48
24.16
25.11
26.16
27.02
27.48
27.44
26.9
25.97
24.77
23.39
21.88
20.25
18.55
16.79
14.96
13.05
11.04
8.94
6.79
4.65
2.57
0.54
-1.52
-3.68
-5.97
-8.4
-10.87
-13.3
-15.64
-17.91
-20.22
-22.73
-25.6
-28.96
-32.75
-36.74
-40.46
-43.27
-44.52
-43.77
-40.95
-36.35
-30.6
-24.43
-18.46
-13.08
-8.4
-4.29
-0.59
2.87
6.17
9.27
12.09
14.52
16.48
17.94
18.9
19.42
19.6
19.55
19.38
19.2
19.11
19.19
19.47
19.93
20.47
20.94
21.16
21.01
20.43
19.5
18.34
17.12
15.89
14.67
13.36
11.91
10.24
8.43
6.55
4.73
3.08
1.6
0.23
-1.16
-2.69
-4.48
-6.51
-8.71
-10.98
-13.23
-15.43
-17.61
-19.83
-22.14
-24.61
-27.32
-30.36
-33.77
-37.43
-40.97
-43.81
-45.28
-44.85
-42.32
-37.96
-32.37
-26.29
-20.41
-15.19
-10.79
-7.18
-4.18
-1.55
0.9
3.33
5.78
8.14
10.25
11.92
13.06
13.72
14.04
14.25
14.57
15.08
15.81
16.68
17.58
18.37
18.93
19.21
19.18
18.87
18.28
17.41
16.24
14.75
12.98
11.05
9.09
7.23
5.47
3.8
2.14
0.43
-1.35
-3.18
-5.07
-6.99
-8.93
-10.88
-12.85
-14.89
-17.09
-19.62
-22.62
-26.14
-30.07
-34.11
-37.8
-40.61
-42.0
-41.56
-39.11
-34.81
-29.1
-22.66
-16.18
-10.19
-4.98
-0.57
3.19
6.47
9.38
11.93
14.07
15.79
17.11
18.09
18.79
19.24
19.43
19.36
19.08
18.7
18.37
18.25
18.46
19.0
19.71
20.31
20.55
20.24
19.39
18.21
16.98
15.91
15.05
14.24
13.28
12.01
10.46
8.77
7.09
5.51
3.94
2.26
0.38
-1.66
-3.78
-5.86
-7.88
-9.88
-11.97
-14.22
-16.58
-19.01
-21.42
-23.9
-26.62
-29.86
-33.72
-38.11
-42.55
-46.28
-48.53
-48.66
-46.49
-42.29
-36.65
-30.28
-23.82
-17.7
-12.13
-7.15
-2.73
1.24
4.88
8.31
11.6
14.79
17.78
20.41
22.53
24.03
24.91
25.3
25.41
25.48
25.66
26.03
26.54
27.1
27.58
27.83
27.75
27.25
26.35
25.12
23.65
22.05
20.41
18.74
17.05
15.31
13.51
11.64
9.69
7.68
5.63
3.59
1.6
-0.38
-2.42
-4.64
-7.12
-9.83
-12.6
-15.22
-17.56
-19.65
-21.66
-23.86
-26.44
-29.49
-32.99
-36.75
-40.43
-43.52
-45.38
-45.4
-43.17
-38.74
-32.58
-25.48
-18.28
-11.6
-5.77
-0.83
3.33
6.86
9.87
12.48
14.73
16.69
18.35
19.69
20.69
21.38
21.83
22.14
22.45
22.81
23.29
23.85
24.46
25.03
25.47
25.7
25.65
25.26
24.49
23.29
21.7
19.79
17.67
15.53
13.45
11.46
9.55
7.64
5.68
3.63
1.52
-0.65
-2.84
-5.03
-7.19
-9.31
-11.41
-13.56
-15.96
-18.81
-22.25
-26.27
-30.59
-34.64
-37.71
-39.11
-38.4
-35.54
-30.92
-25.19
-19.11
-13.29
-8.07
-3.52
0.46
4.09
7.54
10.91
14.13
17.03
19.38
20.99
21.82
21.99
21.74
21.39
21.15
21.16
21.37
21.72
22.11
22.49
22.84
23.14
23.36
23.37
23.07
22.41
21.44
20.3
19.14
18.06
17.06
15.99
14.68
13.04
11.05
8.86
6.65
4.56
2.67
0.91
-0.8
-2.57
-4.5
-6.62
-8.95
-11.45
-14.06
-16.69
-19.26
-21.79
-24.38
-27.24
-30.5
-34.12
-37.77
-40.83
-42.61
-42.59
-40.54
-36.68
-31.5
-25.66
-19.75
-14.17
-9.14
-4.66
-0.68
2.91
6.21
9.24
11.94
14.25
16.1
17.45
18.36
18.91
19.19
19.26
19.17
19.01
18.94
19.09
19.53
20.19
20.91
21.48
21.77
21.77
21.51
21.03
20.32
19.33
18.03
16.51
14.88
13.26
11.7
10.16
8.57
6.9
5.19
3.49
1.86
0.29
-1.27
-2.83
-4.4
-5.99
-7.57
-9.14
-10.7
-12.22
-13.69
-15.13
-16.64
-18.45
-20.75
-23.7
-27.18
-30.87
-34.19
-36.53
-37.42
-36.59
-34.1
-30.23
-25.4
-20.08
-14.73
-9.76
-5.46
-1.98
0.77
3.03
5.1
7.21
9.38
11.46
13.19
14.37
14.99
15.22
15.27
15.31
15.42
15.54
15.66
15.81
16.08
16.54
17.14
17.71
17.98
17.7
16.8
15.37
13.63
11.85
10.19
8.7
7.32
5.93
4.4
2.66
0.74
-1.31
-3.36
-5.31
-7.13
-8.83
-10.56
-12.45
-14.61
-17.12
-19.93
-22.95
-26.04
-29.06
-31.75
-33.8
-34.81
-34.45
-32.53
-29.15
-24.68
-19.64
-14.57
-9.8
-5.45
-1.53
2.05
5.29
8.11
10.42
12.22
13.59
14.71
15.74
16.78
17.82
18.78
19.57
20.16
20.57
20.81
20.87
20.71
20.3
19.64
18.76
17.72
16.59
15.43
14.29
13.27
12.4
11.67
10.98
10.15
9.02
7.53
5.75
3.84
1.96
0.2
-1.41
-2.91
-4.37
-5.84
-7.36
-8.96
-10.63
-12.35
-14.06
-15.71
-17.25
-18.74
-20.34
-22.21
-24.54
-27.4
-30.75
-34.35
-37.81
-40.56
-42.03
-41.75
-39.54
-35.62
-30.47
-24.79
-19.16
-13.99
-9.46
-5.55
-2.17
0.84
3.57
6.12
8.54
10.8
12.81
14.46
15.69
16.53
17.07
17.47
17.83
18.19
18.55
18.89
19.22
19.56
19.91
20.21
20.36
20.23
19.71
18.8
17.62
16.41
15.41
14.75
14.37
14.04
13.49
12.51
11.14
9.56
8.03
6.69
5.48
4.21
2.68
0.77
-1.52
-4.07
-6.76
-9.47
-12.18
-14.83
-17.41
-19.98
-22.7
-25.8
-29.45
-33.58
-37.8
-41.41
-43.66
-43.96
-42.15
-38.47
-33.51
-27.93
-22.34
-17.14
-12.56
-8.66
-5.36
-2.52
0.04
2.51
4.96
7.33
9.5
11.34
12.8
13.91
14.76
15.44
15.95
16.28
16.45
16.55
16.74
17.18
17.86
18.65
19.24
19.36
18.84
17.74
16.26
14.64
13.08
11.62
10.22
8.78
7.2
5.44
3.5
1.36
-1.02
-3.62
-6.4
-9.19
-11.83
-14.18
-16.24
-18.2
-20.33
-22.88
-25.94
-29.29
-32.48
-34.86
-35.8
-34.89
-32.04
-27.55
-21.96
-15.88
-9.88
-4.3
0.65
4.9
8.42
11.2
13.31
14.91
16.21
17.38
18.5
19.54
20.41
21.06
21.51
21.83
22.11
22.39
22.7
23.04
23.38
23.71
23.95
23.97
23.62
22.78
21.5
19.92
18.3
16.82
15.61
14.63
13.73
12.72
11.48
9.95
8.19
6.31
4.46
2.72
1.09
-0.51
-2.23
-4.23
-6.55
-9.14
-11.83
-14.45
-16.9
-19.19
-21.45
-23.88
-26.62
-29.75
-33.21
-36.78
-40.07
-42.59
-43.75
-43.04
-40.19
-35.31
-28.9
-21.74
-14.66
-8.26
-2.84
1.6
5.29
8.49
11.42
14.22
16.88
19.34
21.46
23.11
24.22
24.82
25.03
25.05
25.01
25.01
25.06
25.12
25.22
25.39
25.65
25.96
26.15
26.07
25.55
24.63
23.41
22.11
20.88
19.77
18.71
17.55
16.15
14.41
12.41
10.25
8.13
6.21
4.54
3.08
1.69
0.17
-1.62
-3.7
-6.0
-8.35
-10.59
-12.65
-14.57
-16.51
-18.68
-21.26
-24.35
-27.89
-31.63
-35.08
-37.62
-38.61
-37.63
-34.54
-29.64
-23.53
-16.97
-10.68
-5.19
-0.74
2.68
5.31
7.48
9.49
11.51
13.53
15.41
16.91
17.91
18.35
18.38
18.18
17.95
17.84
17.88
18.05
18.25
18.4
18.46
18.42
18.31
18.08
17.65
16.87
15.64
13.99
12.06
10.16
8.53
7.28
6.34
5.47
4.41
2.98
1.15
-1.01
-3.34
-5.67
-7.82
-9.72
-11.37
-12.87
-14.37
-16.08
-18.15
-20.71
-23.7
-26.93
-29.99
-32.3
-33.32
-32.63
-30.11
-26.06
-21.03
-15.71
-10.67
-6.26
-2.49
0.83
3.95
7.07
10.19
13.11
15.57
17.34
18.34
18.69
18.64
18.45
18.33
18.36
18.57
18.94
19.46
20.1
20.83
21.47
21.82
21.7
20.99
19.75
18.2
16.6
15.2
14.08
13.16
12.22
11.08
9.64
7.97
6.24
4.59
3.06
1.58
0.01
-1.74
-3.65
-5.61
-7.52
-9.32
-11.03
-12.72
-14.5
-16.42
-18.52
-20.8
-23.31
-26.06
-29.03
-32.07
-34.81
-36.77
-37.36
-36.15
-33.0
-28.19
-22.29
-16.06
-10.2
-5.13
-0.99
2.34
5.1
7.48
9.53
11.24
12.55
13.45
14.02
14.36
14.58
14.72
14.82
14.88
14.93
15.03
15.21
15.47
15.78
16.1
16.36
16.47
16.37
15.99
15.34
14.5
13.62
12.81
12.11
11.43
10.65
9.64
8.41
7.07
5.75
4.53
3.34
2.05
0.52
-1.31
-3.41
-5.64
-7.84
-9.9
-11.77
-13.48
-15.16
-16.98
-19.12
-21.75
-24.94
-28.58
-32.4
-35.97
-38.77
-40.3
-40.21
-38.38
-34.94
-30.24
-24.75
-19.02
-13.48
-8.45
-4.05
-0.27
2.99
5.83
8.3
10.4
12.12
13.52
14.67
15.66
16.51
17.18
17.61
17.78
17.78
17.73
17.78
17.98
18.28
18.56
18.69
18.6
18.24
17.63
16.77
15.67
14.37
12.91
11.37
9.83
8.35
6.93
5.51
3.99
2.27
0.26
-2.01
-4.43
-6.81
-8.95
-10.76
-12.31
-13.8
-15.5
-17.64
-20.3
-23.45
-26.88
-30.27
-33.15
-35.04
-35.53
-34.35
-31.53
-27.35
-22.33
-17.02
-11.95
-7.4
-3.46
-0.07
2.92
5.63
8.12
10.4
12.4
14.06
15.34
16.24
16.78
17.03
17.11
17.1
17.12
17.22
17.41
17.65
17.84
17.88
17.74
17.37
16.78
15.97
14.96
13.75
12.37
10.85
9.24
7.57
5.85
4.04
2.14
0.13
-1.93
-3.98
-5.93
-7.72
-9.31
-10.78
-12.3
-14.08
-16.35
-19.23
-22.63
-26.25
-29.6
-32.12
-33.38
-33.07
-31.17
-27.9
-23.66
-18.9
-14.09
-9.53
-5.42
-1.77
1.48
4.44
7.16
9.67
11.9
13.79
15.3
16.43
17.28
17.94
18.54
19.14
19.76
20.41
21.13
21.97
22.97
24.08
25.18
26.1
26.66
26.77
26.46
25.78
24.84
23.74
22.51
21.18
19.76
18.3
16.89
15.62
14.58
13.78
13.06
12.1
10.46
7.72
3.67
-1.58
-7.6
-13.77
-19.46
-24.28
-28.14
-31.29
-34.11
-36.97
-40.07
-43.36
-46.58
-49.29
-51.04
-51.41
-50.14
-47.16
-42.66
-37.02
-30.79
-24.53
-18.71
-13.59
-9.24
-5.51
-2.17
1.02
4.22
7.49
10.78
13.9
16.67
18.95
20.65
21.81
22.53
22.95
23.23
23.49
23.85
24.39
25.09
25.83
26.4
26.58
26.25
25.42
24.25
23.01
21.88
20.92
20.02
18.93
17.44
15.42
12.93
10.2
7.48
5.0
2.85
0.97
-0.77
-2.54
-4.38
-6.28
-8.14
-9.89
-11.51
-13.05
-14.6
-16.2
-17.84
-19.54
-21.36
-23.46
-26.02
-29.08
-32.41
-35.5
-37.62
-38.14
-36.71
-33.4
-28.68
-23.22
-17.65
-12.43
-7.75
-3.66
-0.1
2.99
5.65
7.91
9.85
11.53
13.04
14.39
15.56
16.47
17.05
17.34
17.45
17.54
17.75
18.12
18.6
19.08
19.42
19.5
19.23
18.6
17.61
16.33
14.84
13.27
11.72
10.26
8.95
7.75
6.62
5.49
4.24
2.84
1.29
-0.34
-1.92
-3.37
-4.65
-5.84
-7.04
-8.35
-9.82
-11.47
-13.35
-15.51
-18.03
-20.89
-23.83
-26.39
-27.97
-28.05
-26.37
-23.07
-18.61
-13.63
-8.71
-4.27
-0.49
2.64
5.22
7.38
9.25
10.91
12.4
13.72
14.79
15.55
15.94
15.95
15.67
15.22
14.76
14.45
14.41
14.68
15.22
15.93
16.65
17.22
17.5
17.4
16.91
16.06
14.91
13.55
12.05
10.49
8.92
7.39
5.9
4.42
2.93
1.4
-0.16
-1.72
-3.25
-4.77
-6.34
-7.99
-9.76
-11.59
-13.36
-14.96
-16.32
-17.55
-18.84
-20.44
-22.57
-25.25
-28.3
-31.33
-33.81
-35.23
-35.17
-33.46
-30.14
-25.53
-20.1
-14.45
-9.12
-4.52
-0.82
2.02
4.24
6.14
7.94
9.73
11.43
12.9
14.0
14.66
14.94
14.92
14.77
14.62
14.59
14.77
15.24
15.97
16.86
17.7
18.26
18.38
18.0
17.26
16.36
15.51
14.78
14.13
13.43
12.56
11.48
10.23
8.84
7.38
5.91
4.47
3.13
1.98
1.06
0.33
-0.32
-1.06
-2.08
-3.46
-5.18
-7.15
-9.23
-11.31
-13.26
-15.01
-16.55
-17.95
-19.36
-21.03
-23.17
-25.84
-28.83
-31.66
-33.71
-34.37
-33.3
-30.45
-26.15
-20.94
-15.52
-10.48
-6.27
-3.06
-0.75
0.93
2.36
3.78
5.29
6.83
8.26
9.48
10.45
11.22
11.8
12.2
12.4
12.44
12.4
12.47
12.75
13.33
14.09
14.84
15.37
15.55
15.39
14.96
14.41
13.81
13.19
12.54
11.85
11.12
10.36
9.55
8.61
7.49
6.14
4.6
2.95
1.27
-0.41
-2.12
-3.93
-5.89
-7.93
-10.0
-11.99
-13.81
-15.44
-16.89
-18.29
-19.82
-21.67
-23.96
-26.64
-29.41
-31.8
-33.25
-33.35
-31.9
-28.99
-24.98
-20.32
-15.52
-10.95
-6.89
-3.46
-0.67
1.59
3.47
5.19
6.85
8.49
10.05
11.37
12.31
12.74
12.73
12.41
12.02
11.77
11.79
12.07
12.56
13.15
13.74
14.22
14.53
14.6
14.43
14.05
13.52
12.89
12.23
11.55
10.89
10.26
9.64
9.01
8.27
7.32
6.1
4.62
2.95
1.22
-0.46
-2.1
-3.74
-5.47
-7.29
-9.17
-11.03
-12.84
-14.64
-16.49
-18.52
-20.83
-23.45
-26.33
-29.29
-32.04
-34.17
-35.26
-34.96
-33.13
-29.9
-25.62
-20.79
-15.9
-11.34
-7.34
-3.97
-1.18
1.19
3.3
5.29
7.27
9.2
11.01
12.55
13.74
14.56
15.05
15.3
15.42
15.49
15.6
15.83
16.21
16.67
17.14
17.44
17.45
17.09
16.37
15.41
14.32
13.22
12.14
11.08
9.98
8.79
7.5
6.13
4.7
3.25
1.83
0.48
-0.82
-2.1
-3.41
-4.8
-6.3
-7.89
-9.55
-11.29
-13.13
-15.14
-17.42
-20.05
-23.06
-26.41
-29.93
-33.25
-35.89
-37.33
-37.13
-35.11
-31.42
-26.48
-20.91
-15.29
-10.05
-5.45
-1.55
1.71
4.45
6.8
8.81
10.48
11.76
12.57
12.96
13.07
13.15
13.41
13.98
14.78
15.62
16.35
16.94
17.5
18.18
19.04
19.9
20.44
20.33
19.43
17.87
16.02
14.28
12.93
12.01
11.35
10.66
9.68
8.3
6.51
4.41
2.14
-0.2
-2.5
-4.7
-6.78
-8.74
-10.67
-12.69
-14.99
-17.71
-20.9
-24.45
-28.06
-31.27
-33.58
-34.57
-33.91
-31.58
-27.78
-22.93
-17.61
-12.36
-7.59
-3.48
-0.01
2.98
5.65
8.14
10.46
12.59
14.49
16.13
17.49
18.57
19.42
20.12
20.8
21.55
22.43
23.35
24.16
24.73
24.97
24.91
24.67
24.34
23.91
23.29
22.38
21.11
19.56
17.9
16.31
14.86
13.53
12.18
10.63
8.86
6.91
4.98
3.28
1.93
0.88
-0.06
-1.16
-2.6
-4.43
-6.58
-8.86
-11.08
-13.16
-15.13
-17.13
-19.38
-22.04
-25.17
-28.62
-32.02
-34.82
-36.41
-36.32
-34.36
-30.72
-25.87
-20.44
-15.0
-9.95
-5.44
-1.46
2.12
5.38
8.43
11.32
14.12
16.89
19.61
22.2
24.47
26.22
27.3
27.69
27.51
27.0
26.42
25.99
25.79
25.73
25.6
25.13
24.09
22.39
20.12
17.56
15.03
12.8
11.01
9.61
8.44
7.31
6.07
4.66
3.07
1.33
-0.46
-2.23
-3.95
-5.57
-7.13
-8.67
-10.25
-11.81
-13.34
-14.75
-16.12
-17.56
-19.23
-21.28
-23.73
-26.56
-29.64
-32.78
-35.73
-38.08
-39.34
-39.07
-36.99
-33.21
-28.19
-22.64
-17.26
-12.55
-8.63
-5.41
-2.63
-0.06
2.45
4.91
7.29
9.48
11.37
12.86
13.93
14.6
14.95
15.12
15.22
15.39
15.71
16.24
16.96
17.78
18.54
19.11
19.38
19.28
18.82
18.04
16.99
15.7
14.22
12.65
11.09
9.59
8.16
6.69
5.06
3.18
1.06
-1.21
-3.5
-5.69
-7.67
-9.44
-11.04
-12.53
-14.01
-15.6
-17.4
-19.55
-22.07
-24.84
-27.56
-29.73
-30.83
-30.47
-28.55
-25.3
-21.15
-16.61
-12.1
-7.9
-4.15
-0.93
1.72
3.85
5.58
7.12
8.66
10.29
11.92
13.36
14.45
15.18
15.64
16.03
16.51
17.13
17.85
18.57
19.24
19.81
20.23
20.37
20.11
19.38
18.2
16.78
15.36
14.12
13.11
12.19
11.16
9.87
8.25
6.39
4.44
2.54
0.72
-1.04
-2.82
-4.66
-6.6
-8.58
-10.52
-12.39
-14.22
-16.12
-18.21
-20.64
-23.46
-26.63
-29.92
-32.95
-35.23
-36.3
-35.82
-33.68
-30.06
-25.39
-20.21
-15.02
-10.19
-5.89
-2.1
1.29
4.36
7.15
9.61
11.7
13.38
14.71
15.76
16.61
17.33
17.93
18.46
18.94
19.43
19.97
20.55
21.13
21.65
22.07
22.32
22.36
22.16
21.71
20.99
20.04
18.94
17.78
16.63
15.53
14.48
13.38
12.14
10.69
9.02
7.25
5.52
3.95
2.56
1.26
-0.14
-1.8
-3.76
-5.93
-8.18
-10.34
-12.37
-14.34
-16.4
-18.73
-21.47
-24.64
-28.18
-31.89
-35.42
-38.28
-39.93
-39.95
-38.11
-34.53
-29.63
-24.04
-18.38
-13.19
-8.74
-5.09
-2.16
0.23
2.27
4.13
5.96
7.82
9.66
11.4
12.92
14.19
15.23
16.12
16.97
17.76
18.43
18.91
19.18
19.3
19.38
19.47
19.53
19.37
18.84
17.86
16.5
14.94
13.42
12.05
10.88
9.81
8.76
7.64
6.4
5.03
3.53
1.85
-0.01
-2.06
-4.23
-6.38
-8.39
-10.17
-11.79
-13.39
-15.23
-17.57
-20.56
-24.16
-28.1
-31.83
-34.7
-36.03
-35.38
-32.68
-28.3
-22.94
-17.37
-12.25
-7.89
-4.28
-1.19
1.62
4.29
6.84
9.21
11.38
13.35
15.15
16.71
17.93
18.71
19.05
19.12
19.2
19.53
20.2
21.06
21.83
22.24
22.15
21.57
20.68
19.67
18.77
18.1
17.68
17.43
17.14
16.58
15.55
14.01
12.05
9.87
7.69
5.62
3.6
1.48
-0.88
-3.52
-6.35
-9.17
-11.78
-14.05
-15.99
-17.73
-19.46
-21.38
-23.67
-26.44
-29.66
-33.1
-36.29
-38.58
-39.38
-38.27
-35.24
-30.65
-25.17
-19.47
-14.09
-9.32
-5.19
-1.6
1.61
4.57
7.38
10.08
12.67
15.12
17.37
19.3
20.81
21.82
22.3
22.32
22.03
21.63
21.3
21.16
21.21
21.36
21.43
21.25
20.7
19.73
18.43
16.93
15.41
14.01
12.76
11.63
10.52
9.33
8.02
6.62
5.21
3.88
2.66
1.5
0.29
-1.07
-2.65
-4.48
-6.48
-8.6
-10.74
-12.92
-15.2
-17.69
-20.48
-23.63
-27.08
-30.6
-33.86
-36.44
-37.89
-37.86
-36.19
-32.95
-28.47
-23.3
-18.01
-13.08
-8.79
-5.18
-2.12
0.6
3.12
5.5
7.69
9.61
11.19
12.42
13.38
14.2
15.02
15.92
16.93
17.96
18.96
19.9
20.78
21.65
22.48
23.17
23.53
23.42
22.72
21.5
19.89
18.13
16.38
14.76
13.26
11.77
10.17
8.3
6.13
3.68
1.08
-1.51
-3.95
-6.15
-8.15
-10.04
-12.03
-14.3
-17.0
-20.18
-23.67
-27.12
-30.03
-31.81
-32.0
-30.35
-26.94
-22.15
-16.64
-11.07
-5.99
-1.67
1.89
4.89
7.57
10.06
12.32
14.23
15.71
16.76
17.49
18.04
18.49
18.8
18.92
18.82
18.57
18.36
18.35
18.64
19.14
19.68
20.0
19.93
19.38
18.4
17.1
15.63
14.08
12.52
10.95
9.36
7.78
6.26
4.92
3.8
2.85
1.91
0.75
-0.75
-2.6
-4.62
-6.58
-8.32
-9.81
-11.16
-12.62
-14.41
-16.74
-19.7
-23.22
-27.02
-30.63
-33.45
-34.9
-34.57
-32.36
-28.54
-23.59
-18.13
-12.73
-7.85
-3.76
-0.52
1.95
3.88
5.52
7.11
8.79
10.57
12.36
14.03
15.43
16.46
17.06
17.24
17.09
16.76
16.46
16.37
16.59
17.09
17.71
18.24
18.49
18.36
17.87
17.1
16.2
15.3
14.46
13.69
12.93
12.08
11.03
9.76
8.31
6.79
5.29
3.85
2.41
0.88
-0.8
-2.61
-4.44
-6.19
-7.79
-9.28
-10.78
-12.4
-14.23
-16.34
-18.8
-21.69
-24.98
-28.45
-31.67
-34.03
-34.96
-34.12
-31.54
-27.57
-22.8
-17.8
-13.03
-8.78
-5.21
-2.36
-0.17
1.52
2.95
4.39
6.01
7.84
9.76
11.57
13.1
14.24
15.0
15.47
15.71
15.83
15.88
15.89
15.86
15.77
15.54
15.1
14.39
13.39
12.13
10.69
9.14
7.55
5.99
4.51
3.15
1.92
0.77
-0.4
-1.68
-3.09
-4.6
-6.11
-7.51
-8.75
-9.88
-11.0
-12.21
-13.67
-15.47
-17.67
-20.23
-22.94
-25.44
-27.25
-27.89
-27.03
-24.63
-20.91
-16.36
-11.56
-7.02
-3.11
0.07
2.57
4.56
6.22
7.7
9.06
10.33
11.5
12.55
13.44
14.14
14.66
15.02
15.31
15.61
15.95
16.32
16.66
16.92
17.04
16.99
16.76
16.28
15.55
14.58
13.39
12.06
10.69
9.31
7.95
6.62
5.29
3.96
2.66
1.46
0.35
-0.66
-1.66
-2.76
-4.05
-5.57
-7.26
-8.99
-10.65
-12.19
-13.67
-15.27
-17.2
-19.59
-22.48
-25.72
-29.02
-32.0
-34.2
-35.19
-34.69
-32.61
-29.14
-24.7
-19.81
-15.03
-10.73
-7.09
-4.04
-1.44
0.86
2.91
4.69
6.17
7.36
8.34
9.22
10.06
10.87
11.63
12.28
12.83
13.34
13.92
14.61
15.4
16.17
16.79
17.14
17.13
16.75
16.05
15.1
13.99
12.84
11.72
10.66
9.65
8.64
7.56
6.36
5.09
3.83
2.67
1.67
0.8
0.01
-0.83
-1.78
-2.9
-4.17
-5.56
-7.06
-8.64
-10.29
-12.04
-13.93
-16.05
-18.55
-21.51
-24.9
-28.49
-31.89
-34.59
-36.1
-36.1
-34.53
-31.55
-27.52
-22.91
-18.18
-13.7
-9.68
-6.15
-3.01
-0.12
2.59
5.15
7.44
9.38
10.93
12.12
13.02
13.69
14.2
14.51
14.67
14.73
14.81
15.01
15.37
15.81
16.17
16.27
16.01
15.38
14.51
13.55
12.62
11.75
10.89
9.94
8.76
7.3
5.55
3.62
1.63
-0.3
-2.1
-3.79
-5.41
-6.98
-8.5
-9.93
-11.26
-12.52
-13.78
-15.12
-16.59
-18.21
-20.0
-21.96
-23.99
-25.95
-27.51
-28.33
-28.07
-26.59
-23.98
-20.58
-16.8
-13.04
-9.55
-6.43
-3.67
-1.18
1.11
3.3
5.46
7.64
9.81
11.9
13.8
15.38
16.56
17.32
17.74
17.95
18.08
18.26
18.53
18.83
19.09
19.22
19.12
18.76
18.16
17.4
16.57
15.78
15.09
14.49
13.85
13.02
11.88
10.43
8.78
7.11
5.61
4.36
3.31
2.35
1.34
0.14
-1.28
-2.97
-4.89
-6.99
-9.22
-11.49
-13.77
-16.04
-18.36
-20.83
-23.57
-26.66
-30.02
-33.4
-36.35
-38.32
-38.84
-37.63
-34.79
-30.71
-25.97
-21.13
-16.6
-12.53
-8.93
-5.71
-2.77
-0.06
2.45
4.75
6.81
8.62
10.12
11.31
12.21
12.89
13.43
13.95
14.51
15.19
16.0
16.97
18.05
19.17
20.17
20.92
21.29
21.23
20.81
20.14
19.37
18.61
17.93
17.32
16.73
16.07
15.24
14.15
12.76
11.04
9.06
6.9
4.65
2.37
0.11
-2.14
-4.4
-6.7
-9.08
-11.51
-13.97
-16.41
-18.83
-21.31
-24.01
-27.09
-30.65
-34.55
-38.39
-41.55
-43.35
-43.33
-41.35
-37.65
-32.78
-27.34
-21.89
-16.78
-12.18
-8.08
-4.46
-1.21
1.75
4.52
7.16
9.7
12.06
14.11
15.7
16.73
17.19
17.18
16.89
16.51
16.16
15.88
15.66
15.46
15.25
15.02
14.73
14.36
13.89
13.3
12.57
11.72
10.72
9.57
8.28
6.9
5.54
4.29
3.17
2.07
0.79
-0.89
-3.09
-5.76
-8.66
-11.48
-13.92
-15.91
-17.57
-19.21
-21.18
-23.77
-27.0
-30.63
-34.21
-37.11
-38.74
-38.66
-36.69
-32.96
-27.91
-22.15
-16.35
-11.05
-6.6
-3.04
-0.22
2.16
4.41
6.74
9.18
11.6
13.77
15.53
16.77
17.56
18.02
18.33
18.59
18.84
19.05
19.2
19.28
19.33
19.36
19.39
19.34
19.13
18.64
17.76
16.46
14.8
12.92
10.97
9.07
7.22
5.35
3.4
1.29
-0.93
-3.18
-5.4
-7.57
-9.74
-11.99
-14.36
-16.81
-19.33
-21.93
-24.75
-28.0
-31.82
-36.14
-40.57
-44.45
-46.97
-47.47
-45.57
-41.38
-35.42
-28.42
-21.14
-14.17
-7.87
-2.32
2.51
6.75
10.5
13.82
16.72
19.22
21.35
23.11
24.52
25.58
26.29
26.7
26.98
27.33
27.94
28.91
30.17
31.47
32.57
33.25
33.47
33.28
32.75
31.92
30.8
29.37
27.72
25.96
24.17
22.41
20.59
18.62
16.39
13.89
11.23
8.59
6.15
3.99
2.09
0.26
-1.72
-4.02
-6.66
-9.51
-12.32
-14.93
-17.28
-19.54
-22.02
-25.07
-28.96
-33.74
-39.22
-44.9
-50.11
-54.04
-55.94
-55.33
-52.06
-46.41
-39.02
-30.72
-22.36
-14.64
-7.97
-2.45
2.05
5.89
9.36
12.71
15.98
19.1
21.93
24.38
26.38
27.98
29.22
30.18
30.92
31.54
32.13
32.79
33.56
34.43
35.28
35.94
36.22
35.98
35.16
33.85
32.19
30.35
28.5
26.65
24.77
22.79
20.61
18.19
15.58
12.82
9.96
6.99
3.89
0.64
-2.72
-6.11
-9.39
-12.44
-15.21
-17.7
-20.06
-22.54
-25.47
-29.15
-33.68
-38.86
-44.11
-48.55
-51.18
-51.19
-48.22
-42.46
-34.62
-25.75
-16.84
-8.69
-1.7
4.06
8.77
12.66
15.98
18.92
21.55
23.89
25.88
27.42
28.41
28.86
28.91
28.79
28.79
29.08
29.71
30.56
31.4
32.04
32.31
32.13
31.51
30.45
28.97
27.1
24.87
22.4
19.81
17.25
14.81
12.5
10.27
8.01
5.68
3.21
0.6
-2.2
-5.23
-8.48
-11.87
-15.26
-18.53
-21.63
-24.75
-28.19
-32.26
-37.02
-42.22
-47.2
-51.1
-53.04
-52.41
-48.99
-43.03
-35.15
-26.19
-17.05
-8.52
-1.12
4.95
9.81
13.75
17.13
20.2
23.07
25.66
27.86
29.59
30.85
31.7
32.25
32.55
32.6
32.42
32.07
31.68
31.4
31.35
31.49
31.66
31.63
31.14
30.04
28.37
26.32
24.16
22.12
20.27
18.51
16.65
14.51
12.09
9.51
7.01
4.75
2.8
1.01
-0.86
-3.05
-5.69
-8.73
-11.99
-15.23
-18.3
-21.15
-23.9
-26.75
-29.95
-33.71
-38.12
-43.11
-48.37
-53.36
-57.31
-59.38
-58.88
-55.48
-49.36
-41.23
-32.11
-23.04
-14.82
-7.84
-2.08
2.71
6.87
10.67
14.25
17.62
20.72
23.43
25.65
27.33
28.45
29.06
29.3
29.38
29.5
29.85
30.5
31.39
32.29
32.93
33.06
32.54
31.41
29.84
28.07
26.3
24.63
23.05
21.45
19.69
17.67
15.35
12.8
10.1
7.4
4.82
2.43
0.23
-1.81
-3.82
-5.91
-8.14
-10.52
-12.99
-15.49
-17.95
-20.38
-22.87
-25.64
-28.91
-32.8
-37.27
-41.95
-46.2
-49.2
-50.2
-48.75
-44.79
-38.79
-31.48
-23.74
-16.35
-9.79
-4.31
0.11
3.63
6.47
8.86
11.0
13.0
14.89
16.59
17.96
18.85
19.23
19.18
18.9
18.65
18.54
18.64
18.88
19.2
19.57
19.99
20.43
20.77
20.81
20.36
19.34
17.83
16.06
14.27
12.63
11.08
9.49
7.65
5.42
2.83
-0.03
-2.96
-5.79
-8.45
-10.91
-13.24
-15.51
-17.87
-20.48
-23.54
-27.25
-31.66
-36.57
-41.49
-45.66
-48.28
-48.68
-46.55
-41.99
-35.49
-27.82
-19.77
-12.08
-5.22
0.57
5.32
9.21
12.49
15.34
17.85
20.01
21.77
23.07
23.91
24.39
24.61
24.73
24.88
25.16
25.62
26.21
26.85
27.41
27.77
27.78
27.33
26.41
25.04
23.38
21.65
20.03
18.64
17.42
16.18
14.67
12.71
10.28
7.56
4.82
2.31
0.12
-1.85
-3.84
-6.09
-8.74
-11.77
-15.07
-18.45
-21.75
-24.89
-27.87
-30.79
-33.85
-37.28
-41.25
-45.7
-50.28
-54.31
-56.9
-57.26
-54.87
-49.71
-42.31
-33.59
-24.63
-16.37
-9.43
-3.98
0.2
3.53
6.48
9.37
12.36
15.46
18.53
21.39
23.83
25.71
26.94
27.54
27.65
27.48
27.28
27.23
27.36
27.58
27.76
27.74
27.43
26.78
25.83
24.6
23.16
21.62
20.09
18.67
17.39
16.17
14.88
13.35
11.48
9.26
6.81
4.34
2.06
0.11
-1.57
-3.14
-4.88
-7.03
-9.69
-12.76
-16.01
-19.17
-22.07
-24.72
-27.28
-30.03
-33.23
-37.02
-41.36
-46.0
-50.41
-53.88
-55.61
-54.89
-51.41
-45.34
-37.4
-28.63
-20.07
-12.54
-6.38
-1.54
2.31
5.56
8.51
11.31
13.97
16.4
18.46
20.03
21.04
21.48
21.48
21.24
20.95
20.79
20.86
21.17
21.67
22.28
22.88
23.35
23.52
23.22
22.34
20.89
18.99
16.9
14.86
13.02
11.38
9.81
8.05
5.91
3.29
0.28
-2.93
-6.07
-8.96
-11.47
-13.64
-15.62
-17.62
-19.93
-22.85
-26.56
-31.06
-36.06
-40.93
-44.85
-46.97
-46.68
-43.81
-38.69
-32.01
-24.67
-17.48
-10.97
-5.36
-0.58
3.58
7.32
10.8
14.06
17.09
19.81
22.12
23.9
25.0
25.41
25.25
24.78
24.34
24.16
24.31
24.71
25.14
25.42
25.43
25.14
24.57
23.76
22.73
21.52
20.14
18.6
16.85
14.9
12.75
10.45
8.15
5.96
3.94
2.08
0.26
-1.62
-3.63
-5.82
-8.13
-10.5
-12.89
-15.28
-17.67
-20.13
-22.79
-25.84
-29.47
-33.77
-38.61
-43.57
-47.96
-50.98
-51.94
-50.42
-46.45
-40.44
-33.1
-25.22
-17.55
-10.65
-4.8
-0.1
3.61
6.61
9.21
11.72
14.31
16.96
19.54
21.81
23.63
24.94
25.82
26.36
26.71
26.93
27.06
27.16
27.26
27.37
27.44
27.4
27.1
26.47
25.49
24.24
22.82
21.3
19.7
17.97
16.07
13.99
11.77
9.52
7.3
5.16
3.04
0.86
-1.47
-4.02
-6.74
-9.49
-12.13
-14.55
-16.78
-18.99
-21.45
-24.41
-28.05
-32.38
-37.18
-42.01
-46.21
-49.06
-49.9
-48.36
-44.45
-38.63
-31.6
-24.17
-17.04
-10.63
-5.11
-0.46
3.45
6.82
9.82
12.59
15.23
17.77
20.14
22.19
23.74
24.66
24.94
24.69
24.16
23.62
23.29
23.24
23.4
23.62
23.75
23.67
23.33
22.68
21.67
20.29
18.57
16.6
14.48
12.33
10.14
7.84
5.33
2.6
-0.28
-3.11
-5.7
-7.98
-10.0
-11.99
-14.18
-16.83
-20.08
-23.9
-28.14
-32.43
-36.31
-39.15
-40.41
-39.63
-36.7
-31.84
-25.58
-18.66
-11.82
-5.6
-0.26
4.21
8.0
11.33
14.3
16.89
18.97
20.45
21.33
21.69
21.67
21.38
20.9
20.31
19.71
19.28
19.17
19.41
19.9
20.41
20.69
20.6
20.1
19.3
18.3
17.21
16.07
14.91
13.77
12.69
11.67
10.66
9.6
8.4
7.06
5.6
4.08
2.57
1.04
-0.54
-2.17
-3.8
-5.26
-6.41
-7.26
-8.05
-9.28
-11.6
-15.51
-21.12
-28.0
-35.21
-41.59
-46.03
-47.83
-46.8
-43.32
-38.07
-31.89
-25.52
-19.51
-14.19
-9.62
-5.69
-2.2
1.1
4.36
7.67
10.93
14.01
16.7
18.85
20.36
21.24
21.62
21.68
21.66
21.75
22.08
22.6
23.11
23.36
23.14
22.37
21.16
19.71
18.21
16.77
15.38
13.94
12.4
10.75
9.05
7.38
5.78
4.26
2.83
1.5
0.26
-0.98
-2.38
-4.09
-6.24
-8.75
-11.43
-13.98
-16.23
-18.23
-20.17
-22.41
-25.22
-28.69
-32.64
-36.68
-40.25
-42.69
-43.41
-42.03
-38.48
-33.15
-26.75
-20.18
-14.18
-9.15
-5.11
-1.81
1.13
3.97
6.76
9.45
11.92
14.07
15.84
17.19
18.14
18.72
19.01
19.18
19.37
19.68
20.12
20.62
21.08
21.36
21.36
21.02
20.29
19.25
17.97
16.59
15.2
13.85
12.54
11.2
9.78
8.22
6.55
4.77
2.89
0.92
-1.13
-3.2
-5.2
-7.04
-8.67
-10.15
-11.6
-13.21
-15.19
-17.68
-20.7
-24.13
-27.68
-30.9
-33.27
-34.31
-33.71
-31.39
-27.58
-22.75
-17.5
-12.39
-7.79
-3.86
-0.49
2.51
5.29
7.96
10.5
12.85
14.94
16.76
18.29
19.55
20.53
21.19
21.57
21.7
21.67
21.56
21.47
21.41
21.33
21.17
20.78
20.1
19.08
17.76
16.25
14.65
13.08
11.56
10.1
8.67
7.28
5.91
4.59
3.28
1.94
0.48
-1.15
-2.96
-4.87
-6.81
-8.66
-10.39
-11.99
-13.55
-15.17
-16.98
-19.1
-21.62
-24.55
-27.77
-31.02
-33.86
-35.77
-36.27
-35.07
-32.13
-27.74
-22.42
-16.77
-11.37
-6.55
-2.48
0.89
3.7
6.09
8.23
10.21
12.06
13.74
15.17
16.26
16.96
17.28
17.29
17.14
16.97
16.92
17.07
17.46
18.01
18.65
19.25
19.73
20.04
20.16
20.09
19.81
19.31
18.56
17.54
16.32
14.99
13.68
12.51
11.56
10.83
10.3
9.91
9.57
9.2
8.72
8.11
7.33
6.42
5.4
4.35
3.35
2.5
1.9
1.63
1.66
1.87
2.01
1.82
1.19
0.25
-0.52
-0.45
1.14
4.65
10.05
16.95
24.74
32.85
40.87
48.72
56.49
64.39
72.61
81.18
89.92
98.39
105.89
111.65
114.98
115.39
112.71
107.05
98.71
88.13
75.82
62.41
48.46
34.44
20.6
6.97
-6.55
-20.04
-33.54
-47.02
-60.38
-73.4
-85.67
-96.57
-105.4
-111.7
-115.47
-117.25
-117.86
-117.95
-117.69
-116.74
-114.52
-110.58
-104.94
-98.06
-90.6
-83.09
-75.9
-69.18
-63.06
-57.77
-53.59
-50.68
-49.01
-48.14
-47.44
-46.16
-43.74
-39.97
-35.06
-29.52
-24.02
-19.05
-14.84
-11.31
-8.22
-5.3
-2.43
0.31
2.76
4.71
6.07
6.9
7.38
7.78
8.25
8.87
9.6
10.39
11.18
11.96
12.77
13.62
14.46
15.16
15.56
15.51
14.97
14.01
12.78
11.47
10.19
8.97
7.71
6.34
4.78
3.05
1.23
-0.57
-2.29
-3.9
-5.45
-6.95
-8.43
-9.89
-11.32
-12.76
-14.3
-16.01
-17.99
-20.28
-22.83
-25.54
-28.17
-30.42
-31.86
-32.11
-30.91
-28.24
-24.41
-19.94
-15.42
-11.3
-7.74
-4.65
-1.8
1.02
3.84
6.52
8.84
10.62
11.82
12.49
12.74
12.64
12.24
11.55
10.6
9.51
8.41
7.39
6.46
5.54
4.47
3.09
1.32
-0.84
-3.21
-5.59
-7.7
-9.33
-10.33
-10.64
-10.26
-9.2
-7.5
-5.19
-2.35
0.88
4.26
7.52
10.45
12.93
14.94
16.47
17.57
18.14
18.12
17.43
16.17
14.53
12.83
11.4
10.44
10.09
10.35
11.18
12.45
13.99
15.6
17.03
18.13
18.8
19.07
18.99
18.63
18.04
17.28
16.39
15.4
14.31
13.04
11.51
9.67
7.56
5.41
3.48
2.06
1.35
1.42
2.23
3.65
5.52
7.65
9.9
12.17
14.42
16.59
18.56
20.12
20.98
20.89
19.72
17.52
14.49
10.86
6.86
2.68
-1.57
-5.8
-9.96
-14.07
-18.22
-22.51
-26.94
-31.32
-35.19
-37.96
-39.07
-38.16
-35.26
-30.74
-25.24
-19.46
-13.97
-9.16
-5.16
-1.91
0.73
2.93
4.79
6.38
7.73
8.88
9.89
10.82
11.66
12.39
12.95
13.32
13.58
13.85
14.29
14.93
15.73
16.54
17.2
17.58
17.63
17.36
16.75
15.79
14.41
12.59
10.34
7.7
4.72
1.39
-2.35
-6.6
-11.37
-16.61
-22.15
-27.84
-33.5
-39.04
-44.31
-49.07
-52.96
-55.56
-56.51
-55.63
-53.06
-49.17
-44.47
-39.48
-34.59
-30.02
-25.83
-21.94
-18.28
-14.81
-11.61
-8.83
-6.62
-5.05
-4.01
-3.27
-2.58
-1.75
-0.77
0.27
1.19
1.88
2.36
2.73
3.14
3.64
4.19
4.58
4.54
3.84
2.42
0.39
-1.99
-4.36
-6.49
-8.29
-9.86
-11.41
-13.26
-15.65
-18.69
-22.37
-26.49
-30.7
-34.43
-37.09
-38.09
-37.08
-34.02
-29.25
-23.39
-17.14
-11.09
-5.6
-0.78
3.41
7.09
10.34
13.21
15.72
17.93
19.9
21.66
23.28
24.8
26.31
27.93
29.86
32.23
35.1
38.4
41.96
45.52
48.88
51.85
54.33
56.24
57.59
58.52
59.28
60.15
61.32
62.7
63.87
64.14
62.89
59.79
54.92
48.77
41.92
34.8
27.49
19.77
11.33
2.04
-7.87
-17.78
-26.89
-34.37
-39.69
-42.64
-43.39
-42.36
-40.08
-37.08
-33.73
-30.21
-26.59
-22.89
-19.16
-15.51
-12.03
-8.77
-5.69
-2.76
0.02
2.45
4.29
5.27
5.3
4.5
3.16
1.58
-0.06
-1.74
-3.5
-5.39
-7.37
-9.33
-11.15
-12.7
-13.85
-14.43
-14.19
-12.94
-10.58
-7.24
-3.32
0.65
4.05
6.42
7.49
7.25
5.81
3.43
0.35
-3.26
-7.3
-11.76
-16.75
-22.39
-28.7
-35.52
-42.47
-48.89
-54.08
-57.4
-58.45
-57.19
-53.93
-49.24
-43.78
-38.16
-32.8
-27.93
-23.56
-19.66
-16.17
-13.08
-10.44
-8.28
-6.56
-5.16
-3.89
-2.61
-1.27
0.11
1.44
2.7
3.96
5.37
7.05
9.01
11.09
13.04
14.57
15.5
15.81
15.61
15.1
14.46
13.8
13.17
12.47
11.59
10.35
8.66
6.45
3.83
0.94
-2.04
-5.07
-8.23
-11.73
-15.76
-20.31
-25.1
-29.55
-32.95
-34.68
-34.33
-31.88
-27.61
-22.06
-15.81
-9.49
-3.57
1.59
5.88
9.36
12.25
14.78
17.12
19.31
21.26
22.88
24.11
24.97
25.51
25.81
25.93
25.97
26.08
26.42
27.09
28.02
29.0
29.76
30.07
29.82
29.02
27.75
26.06
23.93
21.32
18.22
14.75
11.1
7.49
4.08
0.89
-2.2
-5.35
-8.77
-12.6
-16.87
-21.43
-25.94
-29.86
-32.6
-33.62
-32.63
-29.68
-25.11
-19.51
-13.48
-7.5
-1.89
3.25
7.88
11.97
15.5
18.46
20.85
22.75
24.29
25.55
26.56
27.31
27.76
27.91
27.81
27.62
27.49
27.54
27.82
28.26
28.74
29.06
29.04
28.53
27.49
25.95
24.03
21.87
19.57
17.15
14.58
11.79
8.74
5.47
2.1
-1.23
-4.39
-7.33
-10.06
-12.72
-15.52
-18.73
-22.57
-27.1
-32.13
-37.13
-41.27
-43.71
-43.76
-41.16
-36.21
-29.57
-22.11
-14.57
-7.48
-1.04
4.67
9.64
13.89
17.39
20.18
22.32
23.93
25.11
25.97
26.57
26.98
27.25
27.42
27.52
27.54
27.5
27.44
27.39
27.39
27.44
27.46
27.32
26.85
25.94
24.57
22.82
20.88
18.9
17.0
15.17
13.28
11.19
8.79
6.06
3.08
0.01
-3.04
-5.96
-8.74
-11.45
-14.18
-17.09
-20.38
-24.22
-28.68
-33.64
-38.67
-43.1
-46.13
-47.07
-45.61
-41.87
-36.36
-29.8
-22.87
-16.04
-9.6
-3.68
1.68
6.47
10.72
14.52
17.96
21.06
23.73
25.82
27.21
27.91
28.07
27.97
27.88
27.95
28.24
28.73
29.37
30.06
30.67
31.04
31.0
30.45
29.4
27.99
26.38
24.69
22.92
20.97
18.74
16.23
13.59
11.01
8.67
6.61
4.71
2.7
0.34
-2.5
-5.76
-9.23
-12.67
-15.9
-18.82
-21.53
-24.21
-27.11
-30.51
-34.57
-39.23
-44.13
-48.58
-51.73
-52.75
-51.13
-46.79
-40.17
-32.02
-23.25
-14.64
-6.75
0.17
6.02
10.89
14.87
18.08
20.62
22.58
24.06
25.13
25.87
26.29
26.4
26.22
25.8
25.26
24.78
24.55
24.7
25.22
25.95
26.59
26.76
26.22
24.86
22.78
20.23
17.45
14.62
11.82
9.03
6.14
3.08
-0.11
-3.38
-6.6
-9.64
-12.46
-15.1
-17.69
-20.4
-23.43
-26.88
-30.77
-34.91
-38.94
-42.32
-44.39
-44.59
-42.59
-38.45
-32.61
-25.76
-18.66
-11.87
-5.76
-0.4
4.24
8.24
11.62
14.38
16.51
18.03
19.04
19.64
19.98
20.15
20.21
20.19
20.14
20.11
20.17
20.36
20.62
20.8
20.76
20.33
19.47
18.23
16.68
14.86
12.81
10.48
7.85
4.96
1.91
-1.13
-4.06
-6.84
-9.54
-12.32
-15.39
-18.9
-22.94
-27.45
-32.18
-36.69
-40.36
-42.52
-42.62
-40.39
-35.92
-29.71
-22.45
-14.88
-7.58
-0.93
4.89
9.87
13.99
17.24
19.65
21.27
22.24
22.72
22.9
22.91
22.84
22.76
22.74
22.86
23.16
23.62
24.19
24.79
25.31
25.63
25.65
25.21
24.17
22.48
20.19
17.5
14.71
12.06
9.66
7.45
5.21
2.68
-0.29
-3.69
-7.35
-11.02
-14.47
-17.56
-20.35
-23.02
-25.85
-29.13
-33.04
-37.56
-42.41
-47.06
-50.76
-52.78
-52.52
-49.7
-44.44
-37.25
-28.89
-20.17
-11.78
-4.16
2.44
7.96
12.46
16.05
18.91
21.2
23.08
24.62
25.87
26.76
27.25
27.31
27.02
26.56
26.19
26.1
26.4
27.01
27.7
28.21
28.31
27.94
27.17
26.16
25.03
23.85
22.59
21.17
19.54
17.72
15.8
13.85
11.93
10.05
8.15
6.16
4.03
1.7
-0.81
-3.5
-6.34
-9.25
-12.17
-15.03
-17.77
-20.42
-23.12
-26.09
-29.6
-33.86
-38.82
-44.1
-48.97
-52.49
-53.8
-52.35
-48.14
-41.63
-33.65
-25.03
-16.48
-8.46
-1.18
5.31
11.07
16.19
20.78
24.88
28.45
31.38
33.51
34.76
35.08
34.6
33.5
32.05
30.5
29.07
27.95
27.19
26.79
26.63
26.49
26.17
25.48
24.35
22.81
20.99
19.08
17.23
15.5
13.83
12.11
10.21
8.05
5.64
3.03
0.32
-2.36
-4.96
-7.42
-9.73
-11.93
-14.08
-16.25
-18.49
-20.81
-23.19
-25.58
-28.02
-30.62
-33.58
-37.1
-41.22
-45.69
-49.94
-53.14
-54.42
-53.17
-49.27
-43.15
-35.63
-27.63
-19.88
-12.76
-6.36
-0.6
4.54
9.01
12.69
15.51
17.51
18.87
19.83
20.58
21.24
21.84
22.36
22.77
23.07
23.3
23.5
23.75
24.04
24.3
24.46
24.34
23.81
22.73
21.06
18.86
16.31
13.68
11.18
8.94
6.91
4.88
2.61
-0.07
-3.12
-6.29
-9.27
-11.84
-13.95
-15.75
-17.54
-19.62
-22.24
-25.5
-29.33
-33.41
-37.24
-40.15
-41.51
-40.84
-37.99
-33.16
-26.84
-19.68
-12.3
-5.24
1.07
6.41
10.69
14.0
16.53
18.49
20.02
21.14
21.78
21.94
21.67
21.19
20.74
20.53
20.59
20.85
21.16
21.44
21.68
21.93
22.23
22.49
22.53
22.1
21.04
19.27
16.87
14.04
11.04
8.13
5.49
3.19
1.17
-0.68
-2.54
-4.57
-6.86
-9.41
-12.14
-14.88
-17.49
-19.9
-22.16
-24.43
-26.99
-30.05
-33.69
-37.71
-41.63
-44.75
-46.34
-45.84
-43.01
-38.08
-31.6
-24.35
-17.06
-10.25
-4.22
0.95
5.32
8.98
12.01
14.52
16.62
18.43
