-89.96
-76.15
-54.13
-26.75
1.98
28.12
48.8
62.8
70.28
72.17
69.5
63.2
54.31
44.25
34.88
28.02
24.7
24.66
26.28
27.2
25.3
19.68
10.89
0.59
-9.28
-17.45
-23.7
-28.86
-34.27
-41.19
-50.43
-62.09
-75.48
-89.0
-100.14
-105.84
-103.23
-90.68
-68.65
-39.86
-8.63
20.59
44.48
61.62
72.28
77.55
78.52
75.77
69.67
60.87
50.7
41.08
33.87
30.13
29.61
30.83
31.73
30.51
26.36
19.68
11.73
3.97
-2.59
-7.81
-12.34
-17.32
-23.95
-33.16
-45.22
-59.53
-74.45
-87.28
-94.74
-93.84
-83.02
-62.83
-36.07
-6.88
20.55
43.26
60.04
71.23
77.87
80.88
80.67
77.27
70.97
62.58
53.57
45.69
40.25
37.68
37.34
37.81
37.5
35.29
30.83
24.6
17.54
10.51
3.98
-2.12
-8.19
-14.74
-22.14
-30.77
-40.96
-52.89
-66.23
-79.58
-90.23
-94.74
-90.0
-74.74
-50.34
-20.61
9.51
35.61
55.28
68.22
75.55
78.72
78.65
75.64
69.87
61.95
53.07
44.78
38.38
34.44
32.65
32.02
31.22
29.11
25.01
18.89
11.31
3.13
-4.82
-12.0
-18.28
-23.87
-29.19
-34.78
-41.28
-49.37
-59.51
-71.46
-83.8
-93.85
-98.15
-93.65
-79.03
-55.46
-26.45
3.36
29.7
49.94
63.37
70.69
73.04
71.33
66.12
58.0
48.09
38.09
29.86
24.73
22.93
23.45
24.59
24.63
22.5
18.11
12.1
5.44
-1.06
-7.09
-12.8
-18.57
-24.83
-31.98
-40.36
-50.27
-61.71
-73.97
-85.23
-92.67
-93.18
-84.52
-66.43
-41.01
-12.22
15.51
38.65
55.43
65.9
71.13
72.4
70.55
66.01
59.08
50.46
41.28
32.9
26.48
22.59
21.02
20.84
20.76
19.56
16.46
11.38
4.86
-2.29
-9.34
-15.96
-22.22
-28.53
-35.34
-43.04
-51.95
-62.22
-73.61
-84.99
-94.15
-98.06
-93.81
-79.84
-56.92
-28.19
1.83
28.75
49.62
63.63
71.52
74.73
74.49
71.49
66.07
58.75
50.44
42.42
35.93
31.72
29.82
29.55
29.82
29.5
27.75
24.2
19.0
12.63
5.72
-1.15
-7.62
-13.63
-19.34
-25.08
-31.26
-38.39
-47.01
-57.45
-69.44
-81.62
-91.38
-95.21
-89.89
-73.81
-47.92
-15.84
17.27
46.41
68.18
81.49
87.25
87.3
83.46
76.95
68.48
58.68
48.44
38.9
31.17
25.92
23.09
22.01
21.62
20.91
19.18
16.17
11.99
6.94
1.32
-4.67
-10.94
-17.49
-24.34
-31.55
-39.29
-47.87
-57.73
-69.17
-81.89
-94.47
-104.22
-107.67
-101.68
-84.88
-58.53
-26.45
6.16
34.46
55.42
68.36
74.38
75.23
72.41
66.71
58.65
49.01
39.21
31.02
25.86
24.18
25.15
26.97
27.63
25.69
20.74
13.39
4.81
-3.82
-11.76
-18.84
-25.25
-31.43
-37.95
-45.44
-54.58
-65.79
-78.85
-92.38
-103.73
-109.47
-106.39
-92.69
-68.99
-38.35
-5.48
24.76
48.68
64.59
72.76
74.66
72.12
66.69
59.49
51.33
42.98
35.29
29.09
24.9
22.79
22.26
22.38
21.99
20.1
16.16
10.21
2.79
-5.35
-13.53
-21.4
-28.9
-36.25
-43.73
-51.72
-60.69
-71.09
-82.92
-95.23
-105.68
-110.91
-107.43
-93.04
-68.11
-35.78
-1.09
30.64
55.56
72.11
80.88
83.66
82.35
78.29
72.24
64.77
56.65
48.82
42.24
37.43
34.34
32.43
30.96
29.28
27.0
23.86
19.74
14.54
8.27
1.1
-6.64
-14.48
-21.99
-28.84
-35.08
-41.1
-47.67
-55.75
-66.07
-78.48
-91.44
-101.86
-105.83
-99.9
-82.55
-55.18
-21.86
12.01
41.47
63.46
77.27
83.95
85.28
82.83
77.68
70.65
62.67
54.86
48.33
43.7
40.93
39.36
38.14
36.5
33.96
30.34
25.49
19.35
11.92
3.38
-5.87
-15.37
-24.66
-33.47
-41.69
-49.45
-56.97
-64.72
-73.26
-83.06
-94.02
-104.96
-113.45
-116.16
-109.97
-93.26
-66.91
-34.32
-0.45
29.8
53.01
67.97
75.32
76.69
73.82
68.01
60.19
51.25
42.2
34.1
27.84
23.81
21.89
21.36
21.27
20.49
18.15
13.69
7.21
-0.65
-8.88
-16.52
-23.03
-28.47
-33.49
-38.91
-45.53
-53.74
-63.57
-74.5
-85.43
-94.46
-99.03
-96.38
-84.48
-63.09
-34.17
-1.69
29.6
55.57
73.85
84.14
87.59
85.91
80.67
72.95
63.59
53.45
43.54
34.9
28.31
24.13
22.16
21.76
21.97
21.73
20.09
16.41
10.55
2.9
-5.82
-14.84
-23.57
-31.74
-39.42
-46.82
-54.28
-62.34
-71.64
-82.59
-94.86
-106.82
-115.47
-117.14
-108.73
-89.16
-60.07
-25.55
9.27
39.85
63.46
79.49
88.72
92.47
91.93
87.93
81.32
73.18
64.79
57.33
51.47
47.2
43.97
41.03
37.81
33.99
29.49
24.3
18.45
11.93
4.79
-2.83
-10.72
-18.69
-26.5
-33.97
-41.05
-47.92
-55.1
-63.28
-73.07
-84.3
-95.65
-104.49
-107.47
-101.63
-85.51
-60.11
-28.64
4.37
34.48
58.53
75.19
84.71
88.2
86.98
82.2
74.91
66.18
57.22
49.23
43.04
38.93
36.61
35.41
34.48
33.17
30.97
27.61
22.93
16.86
9.46
0.93
-8.37
-17.85
-26.88
-34.89
-41.7
-47.54
-53.15
-59.48
-67.34
-76.94
-87.34
-96.39
-101.03
-98.18
-85.85
-64.09
-35.22
-3.31
27.04
52.11
69.83
79.93
83.34
81.52
75.81
67.43
57.58
47.6
38.81
32.2
28.12
26.2
25.63
25.38
24.54
22.42
18.65
13.12
6.09
-2.0
-10.5
-18.81
-26.51
-33.49
-39.9
-46.14
-52.77
-60.36
-69.32
-79.53
-89.9
-98.25
-101.51
-96.7
-82.05
-57.96
-27.25
5.59
35.72
59.43
74.98
82.71
84.24
81.55
76.2
69.2
61.2
52.96
45.4
39.48
35.85
34.45
34.55
34.92
34.33
31.94
27.44
21.04
13.23
4.63
-4.22
-12.92
-21.23
-29.12
-36.73
-44.36
-52.43
-61.38
-71.57
-83.02
-95.01
-105.83
-112.75
-112.64
-102.98
-83.0
-54.34
-20.74
13.04
42.67
65.46
80.69
89.18
92.4
91.69
88.06
82.25
75.16
67.88
61.53
56.89
54.12
52.73
51.83
50.54
48.3
44.97
40.64
35.46
29.39
22.21
13.63
3.63
-7.39
-18.59
-29.02
-37.97
-45.32
-51.75
-58.44
-66.65
-76.98
-88.93
-100.51
-108.66
-109.91
-101.65
-83.15
-56.09
-24.15
8.07
36.43
58.34
73.08
81.31
84.34
83.41
79.43
73.18
65.47
57.28
49.61
43.18
38.25
34.63
31.87
29.43
26.78
23.54
19.37
14.09
7.66
0.24
-7.81
-15.99
-23.81
-30.99
-37.48
-43.61
-49.95
-57.18
-65.86
-76.05
-86.93
-96.64
-102.37
-101.09
-90.62
-70.54
-42.81
-11.33
19.15
44.51
62.36
72.4
75.92
74.87
70.99
65.36
58.53
50.85
42.88
35.56
29.86
26.45
25.3
25.55
25.72
24.24
20.06
13.0
3.81
-6.23
-15.83
-24.15
-31.0
-36.79
-42.27
-48.22
-55.33
-64.02
-74.28
-85.4
-95.68
-102.42
-102.47
-93.31
-74.14
-46.63
-14.61
17.03
43.89
63.41
75.23
80.7
81.73
79.86
75.83
69.92
62.37
53.93
45.76
39.02
34.42
31.84
30.48
29.19
26.95
23.15
17.7
10.9
3.24
-4.77
-12.74
-20.42
-27.74
-34.76
-41.7
-48.99
-57.2
-66.97
-78.54
-91.21
-102.98
-110.66
-110.66
-100.39
-79.34
-49.75
-16.01
16.74
44.23
64.17
76.5
82.58
84.23
82.89
79.36
74.12
67.8
61.28
55.48
51.02
47.92
45.73
43.79
41.63
39.09
36.15
32.7
28.37
22.71
15.45
6.78
-2.69
-12.14
-20.9
-28.68
-35.72
-42.55
-49.96
-58.75
-69.41
-81.7
-94.22
-104.29
-108.47
-103.61
-88.19
-63.23
-32.19
0.03
28.8
51.07
65.95
74.28
77.64
77.42
74.48
69.28
62.39
54.65
47.16
40.85
36.19
33.16
31.3
30.02
28.71
26.74
23.56
18.79
12.32
4.49
-4.03
-12.49
-20.31
-27.35
-33.89
-40.41
-47.51
-55.77
-65.64
-77.2
-89.74
-101.42
-109.3
-110.03
-101.01
-81.6
-53.72
-21.48
10.17
36.95
56.46
68.38
73.83
74.5
71.78
66.6
59.69
51.87
44.19
37.78
33.47
31.46
31.23
31.76
31.88
30.65
27.56
22.59
16.04
8.45
0.31
-7.92
-15.93
-23.47
-30.47
-36.98
-43.31
-50.11
-58.2
-68.28
-80.37
-93.27
-104.41
-110.24
-107.33
-93.8
-70.23
-39.83
-7.34
22.53
46.52
63.44
73.79
78.9
80.03
78.09
73.78
67.94
61.65
55.97
51.61
48.66
46.74
45.23
43.64
41.68
39.19
36.07
32.13
27.16
20.96
13.41
4.61
-5.1
-15.16
-24.88
-33.62
-41.13
-47.68
-54.21
-61.98
-72.0
-84.24
-97.01
-107.1
-110.58
-104.23
-86.89
-60.19
-28.04
4.62
33.45
55.84
71.16
80.17
84.16
84.28
81.43
76.4
70.16
63.84
58.51
54.76
52.56
51.23
49.84
47.57
44.07
39.48
34.24
28.74
23.01
16.76
9.5
0.95
-8.68
-18.77
-28.46
-37.04
-44.29
-50.6
-56.85
-64.12
-73.19
-84.2
-96.2
-107.1
-113.98
-113.81
-104.44
-85.45
-58.67
-27.68
3.14
29.92
50.3
63.71
71.01
73.6
72.81
69.48
64.18
57.51
50.31
43.61
38.31
34.8
32.89
31.89
30.97
29.49
27.07
23.52
18.77
12.66
5.17
-3.48
-12.79
-22.01
-30.43
-37.72
-44.21
-50.82
-58.7
-68.64
-80.54
-92.97
-103.34
-108.39
-105.14
-91.92
-69.05
-39.06
-6.0
25.69
52.37
72.02
84.27
89.99
90.47
87.0
80.6
72.25
63.03
54.15
46.65
41.05
37.26
34.62
32.36
29.88
26.95
23.59
19.88
15.69
10.66
4.4
-3.34
-12.35
-22.01
-31.5
-40.13
-47.6
-54.19
-60.76
-68.4
-78.03
-89.84
-102.81
-114.65
-122.12
-121.92
-111.79
-91.44
-62.91
-30.05
2.65
31.41
54.07
70.24
80.65
86.28
87.85
85.8
80.69
73.61
66.19
60.08
56.32
54.87
54.75
54.62
53.46
51.03
47.69
44.04
40.36
36.39
31.49
25.01
16.68
6.76
-3.99
-14.67
-24.5
-33.11
-40.59
-47.51
-54.68
-62.98
-72.97
-84.53
-96.47
-106.52
-111.63
-108.86
-96.43
-74.57
-45.67
-13.66
17.19
43.52
63.61
77.29
85.36
88.81
88.42
84.78
78.59
70.94
63.16
56.44
51.39
47.83
45.03
42.18
38.73
34.53
29.74
24.44
18.53
11.73
3.76
-5.38
-15.34
-25.44
-34.95
-43.32
-50.44
-56.65
-62.75
-69.62
-77.98
-87.84
-98.16
-106.72
-110.51
-106.58
-93.13
-70.3
-40.53
-7.9
23.04
48.58
66.81
77.72
82.62
83.19
80.77
76.01
69.19
60.73
51.5
42.75
35.71
31.09
28.81
28.03
27.5
26.04
22.91
17.96
11.55
4.32
-3.1
-10.33
-17.32
-24.33
-31.72
-39.88
-49.14
-59.75
-71.73
-84.83
-98.04
-109.42
-116.12
-115.1
-104.2
-83.21
-54.33
-21.63
10.14
37.09
57.15
70.16
77.28
80.1
79.93
77.59
73.53
68.17
62.06
55.89
50.29
45.73
42.35
39.98
38.15
36.24
33.6
29.67
24.18
17.21
9.18
0.7
-7.6
-15.36
-22.47
-29.18
-36.0
-43.56
-52.48
-63.15
-75.5
-88.48
-99.92
-106.65
-105.3
-93.59
-71.41
-41.29
-7.75
24.2
50.72
70.04
82.45
89.32
92.08
91.58
88.19
82.3
74.73
66.8
59.79
54.51
50.99
48.59
46.42
43.76
40.25
35.89
30.78
24.9
18.12
10.28
1.4
-8.19
-17.93
-27.22
-35.62
-43.1
-50.13
-57.56
-66.34
-77.01
-89.13
-100.98
-109.65
-111.71
-104.41
-86.83
-60.45
-28.91
3.05
31.15
52.7
66.98
74.82
77.63
76.7
72.87
66.69
58.81
50.28
42.37
36.22
32.38
30.55
29.78
28.78
26.48
22.22
15.98
8.18
-0.49
-9.26
-17.58
-25.08
-31.8
-38.13
-44.71
-52.34
-61.64
-72.76
-85.04
-96.85
-105.64
-108.47
-102.82
-87.54
-63.5
-33.61
-2.14
26.56
49.24
64.53
72.87
75.8
75.02
71.72
66.48
59.56
51.56
43.47
36.6
32.03
30.04
29.95
30.32
29.52
26.36
20.54
12.63
3.71
-5.11
-13.16
-20.36
-27.1
-34.03
-41.76
-50.75
-61.29
-73.35
-86.42
-99.09
-108.91
-112.64
-107.25
-91.09
-64.91
-32.08
2.42
33.52
57.7
73.82
82.78
86.48
86.63
84.16
79.26
72.1
63.31
54.11
45.98
39.97
36.33
34.43
33.12
31.19
27.86
22.85
16.36
8.86
0.86
-7.17
-14.96
-22.41
-29.63
-36.86
-44.55
-53.31
-63.74
-76.17
-90.09
-103.76
-114.13
-117.5
-110.76
-92.69
-64.82
-31.12
3.21
33.44
56.68
72.3
81.41
85.74
86.81
85.4
81.86
76.48
69.85
62.88
56.52
51.46
47.92
45.59
43.81
41.83
38.95
34.8
29.3
22.72
15.42
7.77
0.07
-7.59
-15.22
-22.99
-31.27
-40.58
-51.54
-64.52
-79.24
-94.21
-106.76
-113.44
-111.05
-97.96
-74.89
-45.02
-13.05
16.28
39.62
55.67
65.0
69.09
69.41
66.84
61.84
54.84
46.72
38.81
32.47
28.54
26.93
26.7
26.47
24.97
21.5
16.08
9.3
2.0
-5.17
-11.88
-18.22
-24.6
-31.42
-39.07
-47.88
-58.1
-69.76
-82.35
-94.4
-103.43
-106.3
-100.33
-84.34
-59.51
-29.24
1.89
29.58
50.97
65.13
72.64
74.82
73.01
68.16
60.93
52.01
42.35
33.2
25.8
20.98
18.84
18.6
18.89
18.21
15.58
10.88
4.76
-1.72
-7.76
-13.12
-18.13
-23.45
-29.72
-37.38
-46.7
-57.83
-70.55
-83.9
-95.86
-103.41
-103.36
-93.5
-73.72
-46.34
-15.48
14.28
39.31
57.83
69.85
76.49
79.05
78.49
75.28
69.88
62.99
55.69
49.16
44.29
41.34
39.96
39.32
38.41
36.34
32.59
26.95
19.61
11.01
1.7
-7.76
-17.0
-25.78
-34.08
-42.04
-49.98
-58.42
-67.96
-78.9
-90.65
-101.31
-107.81
-106.74
-95.66
-74.3
-45.03
-12.25
19.09
44.99
63.51
74.77
80.26
81.77
80.65
77.63
73.14
67.63
61.81
56.5
52.25
49.19
46.99
45.16
43.29
41.19
38.77
35.86
32.12
27.08
20.43
12.2
2.9
-6.75
-15.99
-24.41
-32.05
-39.4
-47.34
-56.83
-68.5
-82.03
-95.8
-106.77
-111.23
-105.96
-89.6
-63.49
-31.33
1.86
31.42
54.33
69.68
78.22
81.43
80.76
77.22
71.5
64.35
56.73
49.74
44.26
40.66
38.62
37.4
36.12
34.17
31.3
27.57
23.09
17.8
11.48
3.93
-4.76
-14.11
-23.36
-31.86
-39.33
-46.1
-52.98
-61.02
-71.03
-83.03
-95.99
-107.51
-114.27
-112.91
-101.21
-79.18
-49.43
-16.55
14.32
39.19
56.24
65.83
69.65
69.54
66.74
61.76
54.92
46.87
38.77
32.02
27.61
25.76
25.78
26.49
26.66
25.37
22.28
17.48
11.39
4.56
-2.54
-9.55
-16.41
-23.26
-30.42
-38.26
-47.19
-57.51
-69.35
-82.25
-94.83
-104.61
-108.34
-103.0
-87.08
-61.51
-29.71
3.38
32.96
55.77
70.74
78.75
81.53
80.77
77.62
72.74
66.6
59.77
52.95
46.73
41.49
37.3
33.97
31.13
28.29
24.95
20.66
15.18
8.56
1.1
-6.85
-14.98
-23.12
-31.17
-39.14
-47.07
-55.22
-64.07
-74.15
-85.53
-97.26
-106.98
-111.39
-107.19
-92.49
-67.82
-36.27
-2.57
28.47
53.41
70.91
81.54
86.82
88.26
86.81
82.94
77.09
70.09
63.11
57.34
53.41
51.19
49.89
48.45
46.12
42.58
37.9
32.31
25.9
18.63
10.51
1.7
-7.45
-16.48
-25.08
-33.22
-41.24
-49.79
-59.57
-71.07
-84.09
-97.28
-108.06
-113.06
-109.18
-94.73
-70.37
-39.17
-5.72
25.32
50.55
68.49
79.39
84.44
84.99
81.93
75.9
67.48
57.65
47.77
39.26
33.11
29.48
27.65
26.25
23.89
19.58
13.11
4.92
-4.19
-13.4
-22.23
-30.54
-38.44
-46.16
-53.93
-61.99
-70.55
-79.61
-88.74
-96.87
-102.12
-102.17
-94.92
-79.34
-56.15
-27.87
1.69
28.55
49.66
63.61
70.57
71.69
68.43
61.93
53.09
42.86
32.5
23.54
17.32
14.43
14.25
15.2
15.26
12.85
7.46
-0.27
-8.95
-17.15
-24.14
-30.03
-35.64
-42.03
-50.03
-59.94
-71.42
-83.48
-94.41
-101.94
-103.57
-97.15
-81.74
-58.2
-29.23
1.3
29.43
52.18
68.15
77.29
80.36
78.31
71.89
62.02
50.01
37.77
27.42
20.53
17.5
17.26
17.68
16.59
12.56
5.53
-3.4
-12.59
-20.75
-27.4
-32.99
-38.59
-45.39
-54.26
-65.63
-79.22
-93.91
-107.62
-117.43
-120.12
-113.14
-95.64
-69.03
-36.9
-3.83
25.99
49.86
67.03
78.13
84.3
86.41
84.84
79.86
72.13
63.0
54.3
47.63
43.86
42.56
42.39
41.58
38.73
33.36
26.05
18.02
10.51
4.21
-1.09
-6.36
-12.84
-21.64
-33.33
-47.83
-64.29
-81.0
-95.43
-104.5
-105.2
-95.69
-76.06
-48.76
-17.95
11.84
37.05
55.98
68.78
76.57
80.47
81.07
78.44
72.73
64.75
55.99
48.28
43.02
40.63
40.39
40.75
40.09
37.33
32.32
25.71
18.66
12.08
6.32
0.95
-4.86
-11.94
-20.75
-31.28
-43.3
-56.39
-69.95
-82.69
-92.38
-96.05
-90.81
-75.24
-50.37
-19.71
11.76
39.37
60.21
73.7
80.95
83.6
82.76
78.84
71.89
62.45
51.8
41.83
34.33
30.16
28.94
29.19
29.01
26.84
22.06
15.0
6.72
-1.64
-9.36
-16.32
-22.99
-29.95
-37.76
-46.71
-56.96
-68.42
-80.56
-92.11
-100.76
-103.68
-98.29
-83.4
-59.97
-31.02
-0.72
26.98
49.39
65.56
75.72
80.58
80.71
76.48
68.43
57.73
46.24
36.16
29.25
26.02
25.62
26.18
25.61
22.52
16.69
9.06
1.13
-5.81
-11.18
-15.34
-19.35
-24.56
-32.09
-42.56
-55.81
-70.83
-85.58
-97.22
-102.63
-99.13
-85.62
-63.08
-34.53
-4.24
23.65
46.19
62.15
71.85
76.35
76.75
73.84
68.18
60.38
51.39
42.53
35.08
29.93
27.2
26.15
25.48
23.8
20.18
14.43
7.11
-0.84
-8.46
-15.2
-21.01
-26.29
-31.69
-37.99
-46.01
-56.34
-68.98
-82.9
-95.76
-104.17
-104.69
-94.98
-74.96
-46.93
-15.05
16.06
42.66
62.69
75.88
83.14
85.79
84.94
81.36
75.66
68.5
60.79
53.55
47.6
43.36
40.67
38.87
37.06
34.45
30.6
25.42
19.16
12.24
5.06
-2.08
-9.01
-15.74
-22.48
-29.68
-37.96
-47.96
-59.92
-73.28
-86.31
-96.17
-99.6
-93.94
-78.25
-53.96
-24.52
5.64
32.52
53.6
68.18
76.87
80.73
80.72
77.42
71.4
63.45
54.74
46.61
40.1
35.68
33.09
31.63
30.39
28.59
25.68
21.39
15.66
8.76
1.08
-6.86
-14.59
-21.83
-28.64
-35.38
-42.68
-51.26
-61.65
-73.91
-87.19
-99.48
-107.79
-108.82
-100.11
-81.23
-54.2
-23.1
7.27
32.91
51.67
63.38
69.11
70.22
67.72
62.24
54.35
45.06
35.9
28.45
23.86
22.29
22.82
23.86
23.78
21.47
16.73
10.17
2.84
-4.27
-10.56
-16.01
-21.09
-26.5
-33.0
-41.22
-51.55
-63.84
-77.12
-89.39
-97.79
-99.3
-91.69
-74.58
-49.71
-20.66
8.3
33.51
52.78
65.58
72.57
74.77
72.95
67.64
59.3
48.89
37.92
28.24
21.4
18.1
17.86
19.19
20.15
19.12
15.3
8.99
1.27
-6.48
-13.26
-18.77
-23.46
-28.28
-34.18
-41.91
-51.72
-63.43
-76.28
-88.82
-98.81
-103.4
-99.86
-86.59
-64.04
-34.89
-3.41
25.96
49.96
67.36
78.55
84.84
87.38
86.73
83.03
76.53
68.04
58.86
50.44
43.8
39.26
36.42
34.44
32.38
29.51
25.35
19.83
13.11
5.58
-2.26
-9.96
-17.15
-23.74
-29.93
-36.18
-43.2
-51.81
-62.63
-75.53
-89.24
-101.12
-107.67
-105.55
-92.83
-69.9
-39.65
-6.66
24.21
49.33
67.01
77.52
82.39
83.3
81.54
77.73
72.2
65.45
58.26
51.64
46.48
43.11
41.23
40.04
38.57
36.11
32.29
27.13
20.8
13.49
5.39
-3.32
-12.4
-21.52
-30.42
-39.02
-47.63
-56.89
-67.55
-79.93
-93.28
-105.4
-112.96
-112.43
-101.47
-80.05
-50.83
-18.35
12.36
37.4
54.94
65.16
69.49
69.49
66.28
60.5
52.69
43.69
34.73
27.22
22.14
19.77
19.53
20.27
20.64
19.53
16.33
11.05
4.21
-3.33
-10.72
-17.41
-23.33
-28.98
-35.23
-43.06
-53.13
-65.45
-79.04
-91.74
-100.6
-102.47
-95.07
-77.88
-52.63
-22.93
6.8
32.72
52.62
66.01
73.68
76.73
75.96
71.81
64.64
55.26
45.05
35.68
28.56
24.35
22.77
22.75
22.87
21.82
18.68
13.16
5.57
-3.31
-12.43
-20.88
-28.21
-34.57
-40.73
-47.67
-56.31
-67.1
-79.78
-93.15
-105.09
-112.76
-113.1
-103.87
-84.51
-56.71
-24.27
8.07
36.04
57.09
70.72
78.02
80.59
79.72
76.1
70.14
62.47
54.15
46.46
40.45
36.55
34.47
33.39
32.36
30.54
27.4
22.8
16.93
10.25
3.35
-3.31
-9.58
-15.62
-21.92
-29.05
-37.6
-47.94
-60.11
-73.42
-86.2
-95.72
-98.78
-92.63
-76.28
-51.16
-20.92
9.68
36.38
56.58
69.76
76.91
79.47
78.54
74.63
68.06
59.52
50.27
42.01
36.23
33.59
33.62
34.92
35.68
34.4
30.41
23.9
15.74
7.02
-1.38
-9.09
-16.18
-23.09
-30.46
-38.96
-49.15
-61.28
-74.95
-88.85
-100.57
-107.06
-105.46
-94.19
-73.68
-46.5
-16.6
11.89
35.79
53.44
64.55
69.66
69.56
65.05
57.09
47.07
36.82
28.28
22.81
20.78
21.23
22.34
22.13
19.22
13.39
5.57
-2.67
-9.82
-15.09
-18.75
-21.97
-26.3
-33.1
-42.97
-55.57
-69.49
-82.48
-91.7
-94.34
-88.35
-73.22
-50.35
-22.86
5.25
30.28
49.85
63.18
70.78
73.62
72.54
67.99
60.49
50.99
41.07
32.59
27.02
24.75
24.84
25.45
24.66
21.29
15.34
7.87
0.33
-6.19
-11.46
-16.15
-21.45
-28.58
-38.38
-51.0
-65.69
-80.77
-93.61
-101.14
-100.55
-90.41
-71.24
-45.58
-17.22
10.02
33.35
51.42
64.1
71.78
74.89
73.75
68.82
61.15
52.34
44.21
38.24
34.95
33.77
33.33
32.06
28.89
23.6
16.8
9.46
2.45
-3.86
-9.61
-15.29
-21.55
-28.92
-37.98
-49.03
-61.93
-75.62
-87.86
-95.51
-95.39
-85.5
-66.03
-39.58
-10.41
17.06
39.61
55.98
66.67
73.03
76.29
76.95
75.0
70.36
63.51
55.58
48.09
42.36
38.98
37.65
37.28
36.55
34.39
30.33
24.58
17.85
10.98
4.56
-1.24
-6.79
-12.66
-19.45
-27.6
-37.35
-48.69
-61.27
-74.15
-85.46
-92.51
-92.42
-83.11
-64.41
-38.44
-9.13
19.07
42.6
59.76
70.68
76.55
78.69
77.9
74.49
68.7
61.17
53.11
45.97
40.87
38.12
37.2
36.9
35.92
33.36
28.93
22.92
15.94
8.58
1.19
-6.15
-13.48
-20.87
-28.38
-36.14
-44.5
-54.08
-65.37
-78.29
-91.58
-102.63
-107.98
-104.45
-90.48
-67.09
-37.76
-7.33
19.66
40.36
54.08
61.82
65.06
64.91
61.77
55.84
47.6
38.32
29.72
23.42
20.18
19.67
20.62
21.4
20.73
17.94
13.16
7.07
0.49
-5.94
-11.97
-17.76
-23.75
-30.37
-37.97
-46.73
-56.54
-66.99
-76.96
-84.6
-87.47
-83.25
-70.67
-50.33
-24.71
2.43
27.34
47.38
61.59
70.34
74.63
75.28
72.66
66.97
58.61
48.57
38.39
29.67
23.54
20.3
19.24
19.0
18.07
15.39
10.62
4.25
-2.77
-9.5
-15.4
-20.49
-25.27
-30.42
-36.56
-44.21
-53.68
-64.94
-77.22
-88.68
-96.46
-97.4
-89.15
-71.33
-45.97
-17.01
11.05
34.64
51.92
62.95
68.82
70.83
69.89
66.53
61.21
54.62
47.78
41.74
37.28
34.64
33.54
33.29
33.03
31.98
29.55
25.58
20.25
14.02
7.43
0.88
-5.52
-11.86
-18.34
-25.18
-32.6
-40.8
-49.97
-60.02
-70.24
-78.98
-83.75
-81.91
-71.72
-53.2
-28.49
-1.27
24.42
45.39
60.11
68.72
72.43
72.66
70.46
66.37
60.67
53.82
46.55
39.85
34.62
31.35
29.82
29.21
28.41
26.46
22.89
17.72
11.37
4.3
-3.16
-10.86
-18.71
-26.55
-34.08
-41.14
-47.85
