-19.5
-28.73
-40.05
-53.5
-68.42
-83.25
-95.4
-101.67
-99.13
-86.34
-64.07
-35.45
-5.02
22.79
45.01
60.65
70.33
75.3
76.48
74.25
68.76
60.56
50.97
41.84
34.89
31.05
30.04
30.62
31.16
30.27
27.26
22.18
15.64
8.45
1.26
-5.55
-11.98
-18.31
-25.01
-32.6
-41.56
-52.21
-64.39
-77.25
-88.94
-96.83
-98.05
-90.5
-73.79
-49.57
-21.3
6.9
31.47
50.3
62.95
70.11
72.77
71.69
67.26
59.95
50.71
41.04
32.69
27.02
24.43
24.23
24.89
24.74
22.48
17.73
10.92
3.12
-4.57
-11.33
-16.98
-21.9
-26.81
-32.59
-39.96
-49.43
-61.06
-74.14
-86.96
-96.82
-100.49
-95.24
-79.92
-55.69
-25.94
4.79
32.22
53.54
67.86
75.81
78.77
78.03
74.53
68.91
61.85
54.19
46.9
40.82
36.41
33.7
32.25
31.33
30.16
27.96
24.24
18.88
12.14
4.54
-3.34
-11.12
-18.6
-25.88
-33.21
-40.94
-49.56
-59.62
-71.48
-84.77
-97.98
-108.34
-112.38
-107.1
-91.24
-65.97
-34.84
-2.57
26.43
49.18
64.72
73.57
77.06
76.56
73.22
68.03
61.93
55.84
50.49
46.34
43.41
41.45
40.12
39.11
38.15
36.89
34.89
31.68
26.92
20.62
13.13
5.01
-3.18
-11.09
-18.65
-26.06
-33.74
-42.29
-52.35
-64.27
-77.58
-90.58
-100.3
-103.23
-96.51
-79.27
-53.22
-22.29
8.73
35.74
56.39
70.31
78.44
82.09
82.23
79.41
73.97
66.46
57.8
49.17
41.64
35.85
31.92
29.31
27.16
24.53
20.64
15.21
8.46
0.97
-6.56
-13.62
-20.05
-25.98
-31.7
-37.6
-44.04
-51.5
-60.48
-71.19
-83.11
-94.57
-102.74
-104.33
-96.68
-78.95
-52.75
-21.84
9.13
35.99
56.26
69.38
76.26
78.22
76.41
71.5
64.0
54.79
45.22
36.84
30.86
27.64
26.5
26.1
24.97
22.08
17.22
10.8
3.67
-3.33
-9.71
-15.35
-20.5
-25.63
-31.29
-37.98
-46.16
-56.15
-67.84
-80.43
-92.09
-100.01
-101.13
-93.07
-75.3
-49.54
-19.5
10.35
36.11
55.53
68.25
75.2
77.73
76.95
73.42
67.55
59.98
51.62
43.63
36.96
32.06
28.84
26.8
25.23
23.45
20.94
17.3
12.35
6.15
-1.02
-8.67
-16.35
-23.72
-30.74
-37.56
-44.54
-52.18
-60.96
-71.25
-82.82
-94.51
-104.0
-108.1
-103.74
-89.24
-65.29
-35.01
-3.11
25.79
48.53
64.06
73.15
77.4
78.27
76.66
73.06
67.96
62.2
56.82
52.63
49.94
48.38
47.21
45.72
43.6
40.86
37.68
34.01
29.45
23.48
15.72
6.36
-3.85
-13.81
-22.6
-29.91
-36.23
-42.71
-50.69
-61.18
-74.29
-88.78
-102.0
-110.39
-110.39
-99.69
-78.33
-48.97
-16.18
15.04
40.72
59.06
70.32
76.0
77.77
76.63
72.95
66.85
58.82
49.88
41.41
34.63
30.14
27.77
26.65
25.65
23.7
20.16
14.92
8.39
1.3
-5.59
-11.83
-17.42
-22.77
-28.48
-35.03
-42.69
-51.48
-61.38
-72.17
-83.05
-92.36
-97.52
-95.62
-84.59
-64.34
-37.16
-7.18
21.04
43.96
60.04
69.56
73.83
74.14
71.28
65.58
57.5
48.01
38.66
31.1
26.38
24.56
24.63
24.93
23.9
20.6
15.04
7.98
0.51
-6.51
-12.75
-18.45
-24.2
-30.67
-38.42
-47.85
-59.12
-71.89
-84.91
-95.93
-101.95
-100.11
-88.8
-68.51
-41.83
-12.75
14.66
37.37
54.03
64.67
70.05
71.04
68.26
62.3
53.96
44.46
35.27
27.78
22.77
20.17
19.2
18.61
17.2
14.23
9.6
3.81
-2.3
-7.89
-12.52
-16.27
-19.78
-23.98
-29.9
-38.3
-49.43
-62.73
-76.6
-88.46
-95.14
-93.82
-82.98
-63.21
-37.18
-8.85
17.76
39.8
56.09
66.86
73.04
75.47
74.61
70.79
64.53
56.84
49.09
42.59
38.16
35.83
34.93
34.38
33.11
30.46
26.24
20.74
14.48
7.98
1.58
-4.66
-10.94
-17.66
-25.28
-34.32
-45.12
-57.68
-71.19
-83.84
-92.84
-95.13
-88.38
-72.19
-48.38
-20.65
6.78
30.43
48.46
60.66
67.65
70.19
68.7
63.47
55.17
45.15
35.33
27.6
23.07
21.68
22.24
22.99
22.39
19.65
15.0
9.33
3.64
-1.49
-6.17
-11.14
-17.25
-25.21
-35.21
-47.02
-59.9
-72.54
-83.08
-89.16
-88.48
-79.55
-62.45
-39.14
-12.89
12.73
34.96
52.41
64.89
72.74
76.31
75.79
71.49
64.38
56.09
48.6
43.43
41.18
41.26
42.23
42.47
40.64
36.03
28.65
19.08
8.25
-2.95
-14.05
-25.3
-37.75
-52.88
-72.07
-95.94
-123.92
-154.27
-184.5
-212.12
-235.52
-254.43
-269.9
-283.68
-297.39
-311.68
-326.02
-338.91
-348.38
-352.54
-349.83
-339.21
-320.2
-293.2
-259.68
-222.26
-184.32
-149.33
-120.01
-97.87
-83.18
-75.44
-73.74
-77.17
-84.82
-95.88
-109.51
-124.87
-141.19
-157.69
-173.58
-188.04
-200.2
-209.24
-214.49
-215.56
-212.4
-205.29
-194.76
-181.52
-166.32
-149.84
-132.66
-115.24
-97.92
-80.99
-64.71
-49.37
-35.28
-22.74
-12.0
-3.16
3.89
9.44
13.95
17.97
22.01
26.46
31.51
37.23
43.6
50.67
58.56
67.58
78.05
90.24
104.25
119.92
136.95
154.91
173.42
192.16
211.02
230.08
249.74
270.66
293.46
318.29
344.27
369.32
390.34
404.2
408.7
403.41
389.76
370.47
348.55
326.39
305.4
285.97
267.91
250.72
233.91
217.07
199.9
182.48
165.33
149.56
136.47
127.05
121.31
118.01
114.99
109.92
101.36
89.41
75.81
63.3
54.54
51.22
53.56
60.44
70.03
80.49
90.46
99.25
106.74
113.12
118.77
124.08
129.47
135.31
141.96
149.55
158.06
167.23
176.65
185.94
194.68
202.6
209.47
215.18
219.57
222.27
222.55
219.38
211.81
199.49
183.01
163.78
143.5
123.52
104.52
86.8
70.95
58.38
51.16
51.09
58.48
71.43
86.08
97.83
103.07
100.29
90.37
75.8
59.37
43.15
28.03
14.07
1.15
-10.5
-20.31
-27.85
-33.52
-38.77
-45.54
-55.19
-67.29
-79.15
-86.39
-84.55
-70.92
-45.73
-12.06
25.42
62.31
95.92
125.79
153.04
179.06
204.29
227.67
246.91
259.51
263.79
259.66
248.65
233.17
215.6
197.54
179.53
161.45
143.16
124.99
107.81
92.63
79.99
69.58
60.37
50.99
40.43
28.3
15.04
1.53
-11.26
-22.73
-32.92
-42.39
-52.0
-62.49
-74.15
-86.73
-99.55
-111.86
-123.16
-133.46
-143.26
-153.34
-164.51
-177.46
-192.71
-210.61
-231.09
-253.36
-275.59
-295.03
-308.74
-314.53
-311.88
-302.13
-287.98
-272.36
-257.42
-244.06
-232.09
-220.94
-210.14
-199.55
-189.16
-178.91
-168.51
-157.71
-146.6
-135.7
-125.89
-118.03
-112.55
-109.26
-107.37
-105.8
-103.61
-100.32
-96.06
-91.51
-87.54
-84.86
-83.73
-83.74
-83.95
-83.22
-80.59
-75.55
-68.29
-59.51
-50.19
-41.25
-33.33
-26.66
-21.23
-16.93
-13.74
-11.77
-11.11
-11.69
-13.14
-14.88
-16.3
-17.0
-16.97
-16.58
-16.35
-16.69
-17.64
-18.95
-20.19
-21.09
-21.62
-22.06
-22.8
-24.21
-26.45
-29.48
-33.03
-36.68
-39.88
-42.02
-42.56
-41.08
-37.49
-32.02
-25.19
-17.69
-10.13
-3.02
3.33
8.66
12.72
15.23
16.07
15.3
13.33
10.75
8.17
5.96
4.22
2.82
1.52
0.1
-1.6
-3.61
-5.96
-8.52
-11.01
-13.12
-14.59
-15.54
-16.44
-18.04
-21.0
-25.59
-31.38
-37.43
-42.47
-45.31
-45.1
-41.6
-35.13
-26.57
-17.07
-7.77
0.47
7.22
12.42
16.2
18.71
20.02
20.15
19.15
17.26
14.85
12.38
10.29
8.8
7.9
7.34
6.72
5.62
3.8
1.33
-1.46
-4.15
-6.47
-8.45
-10.38
-12.63
-15.49
-19.07
-23.31
-27.97
-32.55
-36.34
-38.39
-37.87
-34.33
-28.0
-19.73
-10.69
-1.96
5.77
12.21
17.21
20.61
22.24
22.03
20.31
17.74
15.18
13.33
12.47
12.38
12.5
12.16
10.87
8.45
5.08
1.27
-2.36
-5.31
-7.37
-8.73
-9.97
-11.75
-14.6
-18.74
-23.93
-29.51
-34.46
-37.72
-38.32
-35.69
-29.9
-21.62
-12.05
-2.5
5.89
12.45
17.0
19.65
20.65
20.33
19.06
17.21
15.18
13.29
11.74
10.5
9.44
8.36
7.12
5.61
3.81
1.83
-0.18
-2.03
-3.55
-4.76
-5.9
-7.4
-9.71
-13.04
-17.17
-21.47
-25.04
-26.96
-26.61
-23.76
-18.62
-11.72
-3.83
4.22
11.61
17.66
21.92
24.23
24.72
23.78
21.91
19.58
17.13
14.77
12.6
10.67
9.01
7.58
6.29
4.98
3.49
1.66
-0.54
-3.04
-5.68
-8.37
-11.1
-14.0
-17.25
-20.95
-24.97
-28.92
-32.16
-33.96
-33.72
-31.01
-25.8
-18.39
-9.47
0.03
9.08
16.74
22.36
25.62
26.6
25.63
23.32
20.36
17.41
14.97
13.25
12.19
11.46
10.66
9.41
7.55
5.16
2.46
-0.22
-2.66
-4.7
-6.37
-7.81
-9.33
-11.35
-14.17
-17.85
-22.06
-26.11
-29.01
-29.84
-28.02
-23.5
-16.81
-8.84
-0.57
7.14
13.65
18.51
21.43
22.33
21.35
18.88
15.53
11.98
8.84
6.46
4.9
3.99
3.51
3.2
2.87
2.38
1.56
0.24
-1.71
-4.39
-7.7
-11.48
-15.5
-19.54
-23.49
-27.14
-30.21
-32.15
-32.33
-30.2
-25.55
-18.75
-10.6
-2.16
5.64
12.25
17.42
21.12
23.34
23.94
22.8
20.02
16.06
11.73
7.95
5.39
4.22
4.04
4.11
3.77
2.68
0.84
-1.41
-3.77
-6.03
-8.22
-10.48
-13.08
-16.24
-20.17
-24.84
-29.9
-34.59
-37.88
-38.64
-36.15
-30.32
-21.72
-11.47
-0.82
9.12
17.59
24.21
28.78
31.28
31.75
30.41
27.69
24.24
20.78
17.89
15.83
14.5
13.51
12.37
10.69
8.3
5.29
1.93
-1.49
-4.71
-7.71
-10.63
-13.76
-17.35
-21.52
-26.17
-30.99
-35.46
-38.94
-40.76
-40.28
-37.04
-30.97
-22.49
-12.46
-2.03
7.72
16.03
22.57
27.34
30.41
31.8
31.43
29.4
26.13
22.4
19.08
16.75
15.5
14.95
14.44
13.41
11.63
9.18
6.32
3.34
0.46
-2.24
-4.81
-7.39
-10.25
-13.71
-18.11
-23.53
-29.68
-35.74
-40.58
-42.94
-41.83
-36.86
-28.45
-17.73
-6.32
4.26
12.94
19.34
23.69
26.45
28.02
28.61
28.26
26.97
24.94
22.44
19.83
17.38
15.2
13.3
11.58
9.92
8.22
6.45
4.62
2.82
1.12
-0.53
-2.3
-4.56
-7.65
-11.78
-16.89
-22.64
-28.45
-33.6
-37.31
-38.81
-37.56
-33.36
-26.53
-17.83
-8.27
1.19
9.88
17.39
23.51
27.97
30.51
30.92
29.3
26.13
22.2
18.42
15.51
13.81
13.2
13.22
13.25
12.74
11.39
9.19
6.35
3.2
-0.0
-3.23
-6.56
-10.17
-14.21
-18.68
-23.48
-28.41
-33.17
-37.34
-40.26
-41.12
-39.19
-34.09
-25.99
-15.72
-4.53
6.2
15.32
22.12
26.42
28.34
28.24
26.53
23.64
20.15
16.63
13.64
11.58
10.53
10.18
9.98
9.31
7.7
5.06
1.68
-1.92
-5.21
-7.87
-9.93
-11.68
-13.61
-16.24
-19.89
-24.66
-30.2
-35.8
-40.4
-42.8
-42.04
-37.68
-30.0
-19.96
-8.92
1.78
11.17
18.78
24.54
28.63
31.14
32.06
31.36
29.07
25.54
21.37
17.26
13.9
11.65
10.57
10.26
10.18
9.66
8.23
5.73
2.39
-1.32
-4.95
-8.19
-11.09
-13.89
-16.93
-20.56
-25.01
-30.33
-36.2
-41.86
-46.13
-47.68
-45.48
-39.25
-29.59
-17.84
-5.51
6.13
16.24
24.41
30.4
34.07
35.47
34.94
33.08
30.59
27.99
25.49
23.04
20.57
18.18
16.07
14.41
13.21
12.21
11.08
9.56
7.61
5.33
2.84
0.2
-2.7
-5.98
-9.76
-14.11
-19.02
-24.46
-30.29
-36.18
-41.42
-44.92
-45.43
-41.97
-34.32
-23.15
-9.98
3.31
14.96
23.84
29.62
32.65
33.59
33.16
31.95
30.29
28.39
26.32
24.19
22.14
20.32
18.91
17.89
17.1
16.21
14.84
12.75
9.97
6.76
3.48
0.47
-2.13
-4.5
-6.95
-9.88
-13.67
-18.48
-24.21
-30.55
-36.8
-42.06
-45.22
-45.21
-41.32
-33.51
-22.51
-9.77
2.96
14.14
22.75
28.49
31.55
32.32
31.25
28.72
25.23
21.41
17.99
15.5
14.13
13.65
13.57
13.34
12.61
11.25
9.36
7.18
4.97
2.93
1.03
-0.94
-3.36
-6.61
-10.89
-16.14
-22.02
-28.03
-33.62
-38.16
-40.97
-41.26
-38.46
-32.3
-23.17
-12.11
-0.5
10.3
19.35
26.27
31.17
34.25
35.61
35.18
32.87
28.83
23.65
18.35
14.0
11.32
10.41
10.74
11.36
11.42
10.39
8.25
5.35
2.11
-1.16
-4.38
-7.59
-10.87
-14.31
-17.92
-21.9
-26.48
-31.84
-37.72
-43.28
-47.15
-47.81
-44.25
-36.32
-24.97
-11.85
1.15
12.58
21.64
28.17
32.35
34.4
34.58
33.08
30.37
27.0
23.65
20.9
19.0
17.87
17.12
16.38
15.33
13.89
12.04
9.87
7.43
4.73
1.81
-1.28
-4.5
-7.83
-11.34
-15.22
-19.69
-24.96
-31.05
-37.58
-43.75
-48.43
-50.31
-48.4
-42.32
-32.55
-20.23
-6.98
5.62
16.32
24.49
30.05
33.34
34.92
35.34
34.99
34.11
32.85
31.3
29.62
27.92
26.28
24.75
23.32
21.95
20.58
19.04
17.18
14.82
11.82
8.19
4.05
-0.41
-4.98
-9.49
-13.87
-18.22
-22.73
-27.61
-32.93
-38.4
-43.23
-46.26
-46.21
-42.23
-34.36
-23.5
-11.22
0.78
11.15
19.2
24.87
28.45
30.43
31.14
30.81
29.59
27.65
25.28
22.86
20.74
19.16
18.17
17.62
17.22
16.65
15.62
13.97
11.71
8.93
5.82
2.59
-0.63
-3.79
-6.94
-10.25
-13.93
-18.22
-23.28
-29.09
-35.23
-40.74
-44.24
-44.36
-40.22
-31.88
-20.39
-7.53
4.84
15.26
23.0
27.95
30.38
30.71
29.31
26.64
23.2
19.62
16.52
14.29
13.06
12.64
12.65
12.56
11.87
10.27
7.72
4.45
0.95
-2.27
-4.87
-6.82
-8.54
-10.66
-13.75
-18.16
-23.69
-29.7
-35.2
-39.09
-40.39
-38.4
-32.95
-24.41
-13.77
-2.3
8.74
18.35
25.99
31.38
34.44
35.08
33.35
29.55
24.42
18.99
14.38
11.34
10.02
9.96
10.4
10.58
10.06
8.75
6.73
4.09
0.92
-2.67
-6.46
-10.11
-13.35
-16.24
-19.26
-23.12
-28.41
-35.13
-42.45
-48.86
-52.64
-52.45
-47.7
-38.73
-26.62
-12.88
0.87
13.26
23.34
30.64
35.17
37.2
37.14
35.33
32.17
28.16
24.01
20.5
18.22
17.33
17.39
17.65
17.29
15.84
13.34
10.14
6.65
3.12
-0.42
-4.08
-7.85
-11.63
-15.24
-18.66
-22.18
-26.24
-31.18
-36.81
-42.32
-46.31
-47.27
-44.14
-36.68
-25.69
-12.65
0.61
12.56
22.2
29.24
33.85
36.38
37.14
36.37
34.33
31.38
28.12
25.24
23.28
22.44
22.49
22.89
23.04
22.48
21.06
18.84
16.01
12.74
9.14
5.27
1.23
-2.85
-6.84
-10.68
-14.5
-18.61
-23.5
-29.52
-36.73
-44.53
-51.63
-56.23
-56.55
-51.55
-41.42
-27.6
-12.37
1.96
13.75
22.41
28.25
31.95
34.1
34.97
34.62
33.17
30.95
28.47
26.2
24.34
22.83
21.45
19.98
18.39
16.7
14.96
13.13
11.12
8.8
6.11
3.0
-0.44
-4.11
-7.84
-11.4
-14.7
-17.85
-21.2
-25.24
-30.25
-35.96
-41.46
-45.32
-46.09
-42.8
-35.33
-24.44
-11.51
1.84
14.08
23.97
30.73
34.09
34.23
31.74
27.56
22.8
18.53
15.52
14.04
13.95
14.69
15.53
15.85
15.25
13.64
11.15
8.09
4.81
1.68
-1.05
-3.31
-5.3
-7.42
-10.2
-14.14
-19.41
-25.9
-33.08
-40.09
-45.83
-49.06
-48.68
-44.07
-35.32
-23.34
-9.65
4.02
16.19
25.92
32.78
36.82
38.26
37.53
35.11
31.6
27.7
24.06
21.27
19.62
19.0
18.91
18.6
17.29
14.52
10.35
5.36
0.39
-3.86
-7.16
-9.76
-12.24
-15.21
-19.02
-23.74
-29.25
-35.35
-41.74
-47.88
-52.96
-55.77
-55.15
-50.34
-41.39
-29.26
-15.55
-2.01
9.97
19.67
26.98
32.11
35.35
36.81
36.53
34.62
31.41
27.51
23.67
20.62
18.77
18.1
18.19
18.31
17.77
16.11
13.25
9.53
5.51
1.66
-1.73
-4.7
-7.58
-10.73
-14.48
-18.98
-24.3
-30.37
-36.9
-43.26
-48.47
-51.29
-50.59
-45.73
-36.82
-24.76
-11.01
2.81
15.3
25.5
32.85
37.24
38.9
38.3
36.18
33.27
30.19
27.36
25.01
23.23
22.05
21.42
21.05
20.45
18.98
16.14
11.85
6.57
1.14
-3.65
-7.42
-10.39
-13.13
-16.24
-20.04
-24.48
-29.35
-34.47
-39.61
-44.32
-47.84
-49.04
-46.89
-40.84
-31.19
-19.05
-6.02
6.3
16.66
24.4
29.38
31.77
31.99
30.54
28.03
25.07
22.29
20.22
19.1
18.89
19.17
19.35
18.82
17.22
14.54
11.11
7.4
3.87
0.73
-2.05
-4.76
-7.85
-11.78
-16.95
-23.48
-30.97
-38.48
-44.55
-47.65
-46.58
-40.98
-31.45
-19.35
-6.43
5.73
16.07
24.09
29.72
33.03
34.18
33.39
31.05
27.76
24.14
20.79
18.02
15.94
14.41
13.13
11.79
10.11
7.89
5.12
1.94
-1.39
-4.64
-7.69
-10.64
-13.72
-17.29
-21.71
-27.22
-33.78
-40.97
-47.81
-52.86
-54.6
-51.85
-44.28
-32.62
-18.52
-4.04
9.02
19.55
27.31
32.64
36.07
37.95
38.33
37.22
34.74
31.38
27.89
24.94
22.92
21.7
20.75
19.36
17.08
13.81
9.86
5.8
2.12
-0.99
-3.65
-6.27
-9.38
-13.4
-18.57
-24.92
-32.23
-39.96
-47.2
-52.64
-54.83
-52.63
-45.64
-34.47
-20.65
-6.07
7.53
19.02
27.97
34.43
38.66
40.89
41.35
40.26
37.96
34.87
31.5
28.32
25.7
23.83
22.66
21.85
20.95
19.45
17.11
13.99
10.34
6.54
2.78
-0.89
-4.62
-8.57
-12.95
-17.92
-23.61
-30.09
-37.13
-44.04
-49.58
-52.2
-50.56
-43.99
-32.93
-18.82
-3.67
10.51
22.26
30.89
36.44
39.38
40.26
39.55
37.54
34.47
30.77
27.04
23.98
22.11
21.5
21.59
21.47
20.28
17.61
13.8
9.63
5.95
3.18
1.2
-0.6
-2.84
-5.95
-10.08
-15.28
-21.56
-28.85
-36.79
-44.49
-50.6
-53.53
-52.05
-45.67
-34.91
-21.12
-6.13
8.28
20.76
30.49
37.12
40.6
41.11
38.99
34.83
29.5
24.04
19.4
16.2
14.61
14.25
14.52
14.72
14.3
12.94
10.52
7.21
3.36
-0.56
-4.18
-7.41
-10.42
-13.67
-17.72
-22.96
-29.4
-36.61
-43.61
-49.05
-51.53
-49.91
-43.77
-33.57
-20.57
-6.41
7.3
19.35
29.1
36.33
41.0
43.08
42.68
40.06
35.86
30.95
26.27
22.58
20.12
18.66
17.61
16.29
14.23
11.35
7.92
4.38
1.13
-1.72
-4.28
-6.88
-9.89
-13.6
-18.19
-23.71
-30.15
-37.33
-44.89
-52.03
-57.54
-59.98
-58.13
-51.43
-40.3
-26.05
-10.49
4.65
18.05
29.02
37.29
42.91
45.97
46.69
45.35
42.48
38.69
34.66
30.92
27.79
25.34
23.42
21.76
20.05
18.04
15.56
12.61
9.25
5.6
1.78
-2.09
-5.96
-9.87
-13.9
-18.28
-23.3
-29.24
-36.12
-43.56
-50.67
-56.17
-58.68
-57.02
-50.67
-39.93
-25.9
-10.29
5.16
18.92
30.14
38.47
44.06
47.2
48.24
47.54
45.5
42.56
39.24
36.01
33.17
30.76
28.63
26.58
24.5
22.37
20.22
17.98
15.5
12.51
8.83
4.47
-0.34
-5.21
-9.85
-14.17
-18.38
-22.85
-28.04
-34.2
-41.21
-48.55
-55.23
-59.98
-61.41
-58.46
-50.67
-38.51
-23.33
-7.0
8.43
21.35
30.86
36.79
39.53
39.78
38.26
35.59
32.26
28.66
25.15
22.04
19.51
17.62
16.31
15.32
14.39
13.23
11.58
9.34
6.49
3.18
-0.4
-4.04
-7.55
-10.92
-14.3
-18.04
-22.57
-28.21
-34.92
-42.01
-48.24
-52.01
-51.88
-47.06
-37.77
-25.12
-10.83
3.32
15.89
26.01
33.25
37.53
38.94
37.75
34.44
29.78
24.72
20.16
16.76
14.69
13.74
13.43
13.24
12.76
11.76
10.15
7.9
5.08
1.83
-1.65
-5.27
-9.02
-13.08
-17.65
-22.94
-28.95
-35.52
-42.3
-48.77
-54.2
-57.56
-57.68
-53.47
-44.54
-31.38
-15.54
0.8
15.52
27.06
34.89
39.34
41.23
41.47
40.71
39.26
37.09
34.14
30.53
26.64
23.0
20.13
18.27
17.18
16.32
15.03
12.93
9.98
6.55
2.99
-0.48
-3.91
-7.57
-11.56
-15.87
-20.25
-24.57
-29.02
-34.04
-40.06
-46.96
-53.88
-59.16
-60.96
-57.81
-49.37
-36.46
-20.82
-4.54
10.58
23.41
33.46
40.65
45.1
46.98
46.56
44.28
40.83
37.03
33.62
31.03
29.22
27.84
26.41
24.61
22.47
20.22
18.11
16.18
14.19
11.69
8.29
3.83
-1.47
-7.11
-12.54
-17.33
-21.42
-25.22
-29.48
-34.86
-41.65
-49.4
-56.85
-62.33
-64.18
-61.35
-53.66
-41.86
-27.3
-11.63
3.49
16.7
26.99
33.93
37.59
38.53
37.5
35.28
32.39
29.19
26.01
23.17
21.05
19.89
19.58
19.61
19.27
17.97
15.48
12.06
8.22
4.4
0.83
-2.53
-5.86
-9.34
-13.11
-17.31
-22.13
-27.8
-34.46
-41.77
-48.88
-54.34
-56.52
-54.12
-46.67
-34.81
-20.17
-4.91
8.91
19.89
27.49
32.01
34.1
34.42
33.39
31.24
28.1
24.35
20.56
17.38
15.3
14.34
14.11
13.97
13.38
12.05
9.96
7.17
3.75
-0.33
-5.0
-10.04
-15.09
-19.82
-24.12
-28.29
-32.83
-38.15
-44.22
-50.32
-55.09
-56.99
-54.74
-47.86
-36.82
-23.01
-8.26
5.69
17.48
26.36
32.13
35.01
35.49
34.21
31.9
29.27
26.79
24.67
22.88
21.24
19.64
18.09
16.62
15.18
13.57
11.56
8.97
5.84
2.4
-1.09
-4.43
-7.6
-10.76
-14.23
-18.4
-23.59
-29.92
-37.14
-44.56
-50.99
-55.02
-55.32
-51.05
-42.19
-29.59
-14.78
0.45
14.48
26.2
35.03
40.84
43.72
43.93
41.8
37.93
33.14
28.42
24.58
22.05
20.75
20.15
19.64
18.75
17.29
15.34
13.01
10.4
7.51
4.34
0.91
-2.65
-6.2
-9.74
-13.44
-17.63
-22.73
-28.96
-36.1
-43.42
-49.64
-53.2
-52.76
-47.62
-38.07
-25.32
-11.15
2.66
14.73
24.31
31.21
35.5
37.45
37.31
35.43
32.26
28.31
24.09
20.05
16.49
13.66
11.7
10.64
10.37
10.53
10.59
10.03
8.52
6.04
2.84
-0.74
-4.42
-8.14
-12.07
-16.5
-21.78
-27.97
-34.81
-41.47
-46.73
-49.14
-47.49
-41.24
-30.78
-17.44
-3.12
10.25
21.26
29.3
34.39
37.0
37.56
36.38
33.67
29.71
25.08
20.56
16.95
14.74
13.87
13.79
13.65
12.69
10.51
7.17
3.09
-1.18
-5.25
-8.93
-12.36
-15.8
-19.54
-23.8
-28.72
-34.33
-40.5
-46.73
-52.1
-55.29
-54.97
-50.24
-41.11
-28.52
-14.07
0.47
13.75
24.99
33.87
40.29
44.17
45.5
44.46
41.6
37.78
33.93
30.77
28.55
27.09
25.93
24.6
22.75
20.3
17.34
14.07
10.63
7.07
3.35
-0.64
-4.92
-9.47
-14.19
-18.99
-23.88
-28.99
-34.49
-40.41
-46.4
-51.7
-55.06
-55.19
-51.11
-42.64
-30.57
-16.45
-2.14
10.81
21.5
29.74
35.66
39.46
41.12
40.63
38.2
34.45
30.37
26.93
24.71
23.76
23.63
23.68
23.35
22.3
20.43
17.78
14.44
10.57
6.35
2.02
-2.22
-6.21
-9.92
-13.4
-16.87
-20.63
-25.01
-30.18
-36.03
-41.97
-46.98
-49.76
-49.12
-44.34
-35.54
-23.67
-10.34
2.73
14.07
22.88
29.01
32.75
34.53
34.64
33.3
30.69
27.28
23.68
20.69
18.89
18.48
19.06
19.75
19.62
17.99
14.77
10.37
5.5
0.79
-3.39
-6.93
-10.03
-12.92
-16.03
-19.79
-24.72
-31.06
-38.48
-45.85
-51.33
-53.0
-49.56
-40.92
-28.24
-13.47
1.25
14.3
24.85
32.8
38.41
41.97
43.57
43.19
40.96
37.3
32.9
28.54
24.84
21.97
19.69
17.48
14.88
11.72
8.16
4.48
0.92
-2.46
-5.75
-9.03
-12.32
-15.58
-18.93
-22.73
-27.57
-33.99
-41.98
-50.73
-58.58
-63.52
-63.83
-58.73
-48.63
-34.95
-19.55
-4.22
9.76
21.63
31.07
37.87
41.99
43.58
43.0
40.9
37.94
34.69
31.47
28.39
25.53
22.91
20.62
18.61
16.74
14.75
12.41
9.62
6.43
2.93
-0.81
-4.83
-9.13
-13.7
-18.52
-23.61
-29.12
-35.23
-41.98
-48.9
-54.95
