-50.71
-54.63
-54.97
-50.78
-42.08
-29.88
-15.95
-2.19
9.87
19.44
26.36
30.88
33.24
33.54
31.94
28.79
24.86
21.15
18.59
17.64
18.08
19.11
19.79
19.37
17.57
14.56
10.77
6.61
2.33
-1.96
-6.26
-10.57
-14.96
-19.64
-24.95
-31.17
-38.27
-45.63
-52.02
-55.87
-55.77
-51.02
-41.93
-29.68
-15.96
-2.42
9.77
19.96
27.88
33.4
36.38
36.72
34.58
30.49
25.45
20.66
17.12
15.3
15.05
15.69
16.37
16.36
15.2
12.8
9.43
5.49
1.52
-2.11
-5.3
-8.36
-11.93
-16.74
-23.26
-31.39
-40.38
-48.9
-55.35
-58.27
-56.7
-50.43
-40.06
-26.87
-12.54
1.37
13.77
24.11
32.31
38.44
42.45
44.17
43.6
41.08
37.4
33.68
30.85
29.29
28.72
28.33
27.27
25.04
21.68
17.63
13.47
9.58
6.01
2.54
-1.16
-5.28
-9.94
-15.19
-21.1
-27.8
-35.21
-42.84
-49.52
-53.66
-53.67
-48.68
-38.92
-25.65
-10.73
4.04
17.32
28.36
36.85
42.67
45.74
46.13
44.16
40.41
35.73
30.93
26.7
23.47
21.39
20.31
19.9
19.61
18.89
17.3
14.7
11.18
7.06
2.73
-1.45
-5.32
-8.99
-12.83
-17.37
-23.09
-30.09
-37.84
-45.18
-50.62
-52.72
-50.66
-44.36
-34.58
-22.6
-9.84
2.47
13.43
22.52
29.45
34.01
36.07
35.6
32.9
28.61
23.75
19.43
16.49
15.2
15.16
15.63
15.79
15.07
13.32
10.59
7.04
2.84
-1.82
-6.74
-11.74
-16.81
-22.15
-28.08
-34.77
-41.85
-48.27
-52.58
-53.32
-49.68
-41.75
-30.45
-17.13
-3.21
10.15
22.04
31.76
38.7
42.5
43.2
41.27
37.61
33.22
28.98
25.53
23.08
21.64
20.98
20.58
19.84
18.13
15.1
10.79
5.71
0.54
-4.14
-8.22
-12.06
-16.37
-21.88
-28.97
-37.5
-46.65
-55.06
-61.11
-63.26
-60.54
-52.81
-40.9
-26.31
-10.86
3.9
16.91
27.73
36.32
42.86
47.45
50.05
50.57
49.06
45.82
41.47
36.82
32.56
29.12
26.42
24.05
21.5
18.39
14.7
10.67
6.71
3.09
-0.16
-3.27
-6.63
-10.57
-15.3
-20.94
-27.53
-35.01
-43.02
-50.78
-56.98
-60.0
-58.43
-51.61
-40.01
-25.1
-8.93
6.59
20.16
31.19
39.63
45.57
49.1
50.4
49.77
47.76
44.95
41.88
38.82
35.84
32.94
30.11
27.36
24.66
21.9
18.95
15.68
12.07
8.29
4.51
0.86
-2.72
-6.42
-10.53
-15.35
-21.07
-27.76
-35.3
-43.33
-51.13
-57.63
-61.6
-61.82
-57.44
-48.38
-35.34
-19.82
-3.72
11.15
23.47
32.67
38.77
42.09
43.03
41.88
39.0
34.91
30.4
26.36
23.48
21.98
21.54
21.41
20.79
19.09
16.15
12.22
7.79
3.38
-0.65
-4.25
-7.63
-11.17
-15.29
-20.37
-26.56
-33.77
-41.49
-48.84
-54.56
-57.32
-56.03
-50.22
-40.29
-27.36
-12.98
1.33
14.35
25.33
33.85
39.76
43.02
43.81
42.49
39.62
35.88
31.89
28.2
25.08
22.67
20.84
19.25
17.5
15.18
12.04
8.08
3.48
-1.41
-6.28
-10.93
-15.45
-20.11
-25.35
-31.56
-38.87
-46.99
-55.16
-62.17
-66.62
-67.23
-63.19
-54.4
-41.58
-26.1
-9.62
6.18
20.03
31.12
39.19
44.36
46.96
47.48
46.41
44.24
41.46
38.5
35.66
33.16
31.03
29.13
27.23
25.01
22.2
18.67
14.46
9.78
4.96
0.33
-3.91
-7.71
-11.25
-14.78
-18.56
-22.88
-27.94
-33.97
-41.11
-49.18
-57.49
-64.7
-68.98
-68.58
-62.45
-50.75
-34.93
-17.17
0.26
15.73
28.38
38.06
44.92
49.17
51.01
50.67
48.65
45.55
42.04
38.67
35.73
33.36
31.46
29.89
28.37
26.65
24.49
21.73
18.39
14.56
10.29
5.67
0.72
-4.44
-9.59
-14.46
-18.85
-22.85
-26.84
-31.42
-37.18
-44.29
-52.26
-59.85
-65.35
-66.98
-63.51
-54.7
-41.39
-25.29
-8.5
7.07
20.11
30.05
36.94
41.16
43.16
43.27
41.75
38.83
34.93
30.64
26.71
23.77
22.09
21.48
21.31
20.8
19.32
16.66
13.04
8.9
4.63
0.41
-3.82
-8.21
-12.89
-17.87
-23.18
-28.88
-35.04
-41.61
-48.11
-53.56
-56.62
-55.97
-50.8
-41.16
-28.07
-13.2
1.67
14.96
25.73
33.52
38.41
40.63
40.54
38.55
35.15
31.0
26.77
23.06
20.23
18.27
16.89
15.53
13.66
10.9
7.21
2.79
-1.97
-6.71
-11.23
-15.45
-19.4
-23.13
-26.71
-30.29
-34.18
-38.71
-44.1
-50.16
-56.0
-60.2
-61.11
-57.42
-48.7
-35.66
-19.94
-3.65
11.31
23.63
32.77
38.79
42.05
43.01
42.11
39.85
36.77
33.48
30.49
28.03
26.12
24.57
23.08
21.43
19.44
17.02
14.08
10.59
6.61
2.28
-2.15
-6.5
-10.7
-14.81
-19.11
-23.98
-29.81
-36.8
-44.82
-53.22
-60.87
-66.24
-67.77
-64.3
-55.49
-42.02
-25.52
-8.06
8.38
22.43
33.48
41.55
46.92
49.83
50.39
48.69
45.01
40.05
34.75
30.06
26.58
24.36
22.94
21.62
19.84
17.38
14.4
11.24
8.17
5.21
2.13
-1.36
-5.45
-10.1
-15.06
-20.09
-25.09
-30.27
-35.98
-42.49
-49.6
-56.44
-61.55
-63.22
-60.16
-51.97
-39.4
-24.16
-8.34
6.18
18.19
27.17
33.18
36.54
37.64
36.9
34.8
31.87
28.65
25.64
23.24
21.63
20.8
20.47
20.17
19.33
17.44
14.26
9.92
4.89
-0.2
-4.83
-8.74
-12.06
-15.2
-18.72
-23.13
-28.71
-35.39
-42.68
-49.62
-54.88
-57.0
-54.77
-47.61
-35.87
-20.83
-4.41
11.28
24.54
34.36
40.53
43.43
43.73
42.05
38.93
34.78
30.01
25.17
20.87
17.63
15.65
14.72
14.18
13.21
11.17
7.87
3.69
-0.73
-4.79
-8.31
-11.52
-14.93
-19.02
-24.05
-30.04
-36.88
-44.39
-52.16
-59.32
-64.55
-66.16
-62.75
-53.77
-39.92
-23.0
-5.41
10.62
23.64
33.14
39.31
42.65
43.62
42.55
39.8
35.8
31.2
26.74
23.04
20.48
19.08
18.55
18.31
17.7
16.2
13.63
10.21
6.47
2.92
-0.25
-3.27
-6.71
-11.14
-16.82
-23.64
-31.22
-39.03
-46.53
-52.98
-57.38
-58.47
-55.12
-46.84
-34.2
-18.76
-2.67
12.14
24.43
33.84
40.61
45.09
47.43
47.56
45.52
41.68
36.83
31.95
27.84
24.9
23.02
21.71
20.4
18.6
16.08
12.84
9.04
4.99
0.98
-2.81
-6.38
-9.93
-13.79
-18.34
-23.89
-30.6
-38.32
-46.52
-54.17
-59.82
-61.84
-59.0
-50.86
-38.13
-22.48
-6.06
9.14
21.75
31.09
37.18
40.34
41.03
39.74
37.0
33.42
29.62
26.22
23.58
21.87
20.98
20.59
20.29
19.57
18.06
15.62
12.31
8.41
4.24
0.03
-4.11
-8.19
-12.31
-16.58
-21.24
-26.5
-32.54
-39.17
-45.69
-50.89
-53.31
-51.7
-45.45
-34.98
-21.5
-6.75
7.53
19.99
29.76
36.49
40.09
40.67
38.53
34.22
28.61
22.76
17.79
14.48
13.07
13.13
13.75
13.89
12.85
10.46
7.09
3.36
-0.22
-3.54
-6.82
-10.49
-14.88
-20.0
-25.66
-31.54
-37.27
-42.42
-46.37
-48.23
-47.05
-42.09
-33.21
-21.14
-7.31
6.51
18.77
28.45
35.19
39.03
40.26
39.19
36.19
31.8
26.79
22.07
18.46
16.42
15.83
16.0
15.94
14.73
11.87
7.48
2.17
-3.27
-8.13
-12.16
-15.6
-19.12
-23.54
-29.42
-36.8
-45.06
-52.94
-58.87
-61.31
-59.17
-52.08
-40.59
-26.01
-10.11
5.34
18.88
29.66
37.28
41.82
43.6
43.02
40.65
37.07
33.05
29.3
26.43
24.69
23.86
23.33
22.28
20.06
16.42
11.61
6.27
1.08
-3.52
-7.6
-11.56
-16.01
-21.33
-27.59
-34.6
-42.01
-49.32
-55.85
-60.63
-62.43
-60.07
-52.88
-41.03
-25.61
-8.37
8.79
24.29
37.06
46.59
52.78
55.81
56.05
54.12
50.79
46.89
43.13
39.92
37.38
35.34
33.42
31.2
28.29
24.54
19.99
14.88
9.46
3.89
-1.82
-7.69
-13.69
-19.77
-25.87
-32.11
-38.79
-46.14
-54.01
-61.54
-67.23
-69.3
-66.33
-57.83
-44.46
-27.84
-10.02
7.15
22.34
34.86
44.5
51.21
55.04
56.07
54.63
51.34
47.1
42.88
39.41
37.04
35.61
34.67
33.58
31.81
29.01
25.1
20.27
14.88
9.3
3.86
-1.37
-6.48
-11.62
-16.97
-22.64
-28.79
-35.63
-43.31
-51.68
-59.99
-66.77
-70.09
-68.22
-60.33
-46.9
-29.66
-11.0
6.77
21.92
33.58
41.58
46.15
47.68
46.67
43.71
39.53
34.95
30.74
27.4
25.07
23.54
22.33
20.94
18.99
16.43
13.38
10.08
6.67
3.18
-0.45
-4.24
-8.19
-12.33
-16.82
-21.95
-28.03
-35.02
-42.31
-48.65
-52.47
-52.38
-47.69
-38.61
-26.19
-11.94
2.53
15.84
27.0
35.35
40.58
42.64
41.82
38.64
33.94
28.65
23.6
19.38
16.2
13.97
12.31
10.73
8.73
5.96
2.39
-1.7
-5.8
-9.43
-12.33
-14.69
-17.13
-20.35
-24.89
-30.85
-37.88
-45.27
-52.07
-57.17
-59.45
-57.9
-51.92
-41.59
-27.84
-12.27
3.28
17.21
28.49
36.69
41.9
44.44
44.69
43.02
39.87
35.85
31.66
27.97
25.14
23.13
21.51
19.66
17.07
13.56
9.37
4.97
0.82
-2.84
-6.07
-9.15
-12.47
-16.43
-21.4
-27.61
-35.05
-43.29
-51.42
-58.18
-62.12
-61.98
-57.03
-47.35
-33.86
-18.12
-2.01
12.88
25.5
35.39
42.55
47.1
49.05
48.43
45.45
40.72
35.25
30.11
26.15
23.6
22.08
20.85
19.2
16.7
13.29
9.25
4.94
0.71
-3.23
-6.79
-10.11
-13.43
-17.12
-21.55
-26.99
-33.5
-40.74
-47.86
-53.65
-56.73
-55.87
-50.45
-40.65
-27.46
-12.5
2.5
16.07
27.31
35.81
41.51
44.41
44.56
42.17
37.8
32.41
27.15
22.94
20.22
18.77
17.93
17.0
15.45
13.16
10.23
6.88
3.32
-0.31
-3.85
-7.24
-10.49
-13.84
-17.74
-22.71
-28.95
-36.14
-43.27
-48.86
-51.37
-49.72
-43.59
-33.55
-20.82
-6.85
6.85
19.1
29.0
35.97
39.74
40.35
38.2
34.01
28.7
23.29
18.69
15.49
13.87
13.47
13.52
13.15
11.74
9.07
5.46
1.42
-2.54
-6.22
-9.7
-13.22
-17.09
-21.57
-26.88
-33.09
-39.96
-46.77
-52.27
-54.95
-53.54
-47.53
-37.42
-24.56
-10.67
2.69
14.45
24.07
31.38
36.3
38.77
38.79
36.59
32.71
27.98
23.34
19.63
17.29
16.25
15.89
15.35
13.74
10.64
6.21
1.11
-3.84
-8.08
-11.55
-14.68
-18.09
-22.23
-27.24
-32.96
-39.1
-45.23
-50.79
-54.9
-56.36
-54.0
-47.13
-35.96
-21.64
-6.03
9.01
22.08
32.43
39.99
44.95
47.59
48.11
46.68
43.52
39.03
33.84
28.66
24.26
21.11
19.37
18.67
18.28
17.28
15.0
11.2
6.19
0.63
-4.88
-9.95
-14.68
-19.41
-24.61
-30.57
-37.32
-44.6
-51.82
-58.17
-62.57
-63.89
-61.17
-53.81
-42.0
-26.79
-9.84
6.88
21.68
33.48
41.95
47.28
49.91
50.26
48.76
45.77
41.86
37.62
33.7
30.57
28.41
27.1
26.26
25.44
24.24
22.28
19.39
15.51
10.79
5.55
0.17
-5.05
-9.95
-14.53
-19.09
-23.98
-29.57
-36.05
-43.26
-50.52
-56.69
-60.33
-60.08
-55.07
-45.3
-31.77
-16.22
-0.71
13.03
23.96
31.81
36.84
39.45
39.97
38.66
35.86
32.13
28.25
24.98
22.75
21.5
20.76
19.94
18.48
16.14
12.95
9.17
5.19
1.37
-2.05
-5.0
-7.75
-10.7
-14.36
-19.09
-24.88
-31.31
-37.62
-42.8
-45.81
-45.73
-41.96
-34.41
-23.62
-10.74
2.67
15.1
25.36
32.82
37.3
38.92
37.95
34.73
29.87
24.23
18.9
14.84
12.56
11.84
11.93
11.8
10.67
8.26
4.71
0.52
-3.83
-8.0
-11.8
-15.23
-18.48
-21.84
-25.74
-30.54
-36.32
-42.69
-48.67
-52.89
-53.89
-50.68
-43.04
-31.65
-17.84
-3.18
10.82
23.08
32.87
39.74
43.48
44.04
41.76
37.31
31.75
26.15
21.42
18.0
15.82
14.47
13.3
11.71
9.32
6.11
2.35
-1.49
-5.02
-8.11
-10.92
-13.86
-17.44
-22.05
-27.87
-34.83
-42.59
-50.46
-57.32
-61.65
-61.91
-57.07
-47.08
-33.03
-16.81
-0.57
14.02
26.04
35.31
41.96
46.14
47.86
47.16
44.35
40.09
35.26
30.65
26.72
23.58
21.03
18.82
16.67
14.35
11.63
8.38
4.61
0.49
-3.66
-7.64
-11.4
-15.17
-19.4
-24.5
-30.73
-37.98
-45.68
-52.67
-57.44
-58.39
-54.44
-45.43
-32.4
-17.15
-1.67
12.5
24.58
34.32
41.73
46.64
48.85
48.34
45.58
41.38
36.84
32.78
29.57
27.19
25.34
23.7
21.99
20.02
17.55
14.45
10.7
6.44
1.93
-2.53
-6.83
-11.05
-15.5
-20.58
-26.62
-33.74
-41.56
-49.2
-55.23
-58.08
-56.42
-49.72
-38.49
-24.17
-8.8
5.7
17.95
27.23
33.46
36.89
37.83
36.62
33.71
29.73
25.47
21.73
19.03
17.41
16.6
16.0
15.02
13.24
10.52
6.96
2.91
-1.2
-4.92
-8.04
-10.66
-13.32
-16.83
-21.91
-28.82
-37.03
-45.29
-51.85
-55.04
-53.72
-47.67
-37.53
-24.65
-10.63
3.02
15.15
25.01
32.21
36.63
38.35
37.61
34.87
30.81
26.25
22.04
18.85
16.92
16.04
15.58
14.75
12.98
10.09
6.34
2.17
-2.09
-6.36
-10.85
-15.92
-21.84
-28.69
-36.28
-44.14
-51.49
-57.27
-60.22
-59.18
-53.56
-43.61
-30.5
-15.89
-1.42
11.84
23.36
32.97
40.46
45.42
47.44
46.43
42.89
37.88
32.67
28.25
25.03
22.81
21.0
18.95
16.19
12.52
8.02
2.96
-2.23
-7.2
-11.77
-16.08
-20.47
-25.44
-31.31
-38.17
-45.67
-53.04
-59.15
-62.64
-62.24
-57.11
-47.23
-33.51
-17.56
-1.28
13.72
26.45
36.63
44.32
49.68
52.72
53.38
51.69
48.03
43.13
37.89
33.2
29.62
27.2
25.52
23.9
21.64
18.41
14.27
9.63
4.93
0.43
-3.93
-8.4
-13.35
-18.98
-25.38
-32.4
-39.75
-46.87
-52.79
-56.38
-56.47
-52.36
-43.99
-32.08
-17.85
-2.81
11.63
24.29
34.38
41.44
45.4
46.58
45.55
43.07
39.89
36.64
33.77
31.52
29.87
28.59
27.26
25.45
22.82
19.27
14.89
9.93
4.72
-0.43
-5.31
-9.8
-13.93
-17.94
-22.18
-27.08
-32.88
-39.4
-45.91
-51.16
-53.71
-52.31
-46.44
-36.43
-23.49
-9.27
4.6
16.87
26.89
34.4
39.35
41.74
41.63
39.3
35.25
30.3
25.35
21.2
18.33
16.81
16.26
16.0
15.26
13.39
10.11
5.65
0.72
-3.84
-7.41
-9.94
-12.04
-14.67
-18.8
-24.85
-32.51
-40.65
-47.65
-51.78
-51.71
-46.91
-37.73
-25.32
-11.27
2.79
15.53
26.07
33.87
38.72
40.58
39.63
36.33
31.46
26.0
20.97
17.11
14.73
13.62
13.1
12.4
10.87
8.31
4.88
0.99
-2.93
-6.66
-10.21
-13.76
-17.6
-22.05
-27.41
-33.95
-41.58
-49.63
-56.73
-61.07
-60.97
-55.48
-44.83
-30.39
-14.14
1.92
16.25
28.0
36.84
42.72
45.71
45.94
43.75
39.78
34.96
30.29
26.64
24.47
23.63
23.49
23.11
21.62
18.55
13.99
8.52
2.89
-2.32
-6.93
-11.19
-15.56
-20.55
-26.45
-33.35
-41.03
-48.97
-56.19
-61.48
-63.44
-60.93
-53.51
-41.61
-26.51
-9.97
6.28
20.85
32.84
41.81
47.57
50.18
49.97
47.57
43.89
39.89
36.39
33.74
31.81
30.2
28.34
25.85
22.55
18.56
14.14
9.62
5.26
1.18
-2.63
-6.37
-10.33
-14.89
-20.38
-27.01
-34.76
-43.26
-51.69
-58.87
-63.36
-63.88
-59.6
-50.52
-37.45
-21.88
-5.55
9.91
23.29
33.94
41.73
46.89
49.78
50.81
50.33
48.68
46.13
43.04
39.77
36.65
33.88
31.45
29.18
26.84
24.21
21.16
17.66
13.62
9.0
3.74
-2.1
-8.36
-14.74
-21.01
-27.11
-33.26
-39.84
-47.05
-54.66
-61.75
-66.88
-68.48
-65.27
-56.82
-43.67
-27.29
-9.73
6.97
21.17
31.99
39.32
43.66
45.65
45.88
44.69
42.26
38.8
34.77
30.82
27.59
25.45
24.32
23.75
23.11
21.96
20.09
17.54
14.4
10.68
6.37
1.45
-3.91
-9.47
-14.96
-20.31
-25.72
-31.54
-38.06
-45.19
-52.16
-57.64
-60.0
-57.85
-50.6
-38.78
-23.92
-8.14
6.56
18.79
28.11
34.69
38.96
41.18
41.33
39.27
35.19
29.75
24.09
19.49
16.8
16.13
16.76
17.52
17.28
15.38
11.87
7.33
2.5
-2.06
-6.16
-9.9
-13.54
-17.37
-21.7
-26.83
-33.04
-40.31
-48.11
-55.24
-59.98
-60.64
-56.09
-46.26
-32.27
-16.07
0.13
14.54
26.09
34.51
40.03
43.03
43.78
42.45
39.24
34.65
29.53
24.93
21.78
20.45
20.61
21.33
21.41
19.94
16.57
11.6
5.78
-0.09
-5.48
-10.25
-14.62
-18.97
-23.7
-29.1
-35.3
-42.3
-49.84
-57.24
-63.4
-66.87
-66.22
-60.5
-49.7
-34.85
-17.77
-0.58
14.96
27.73
37.37
43.92
47.7
48.99
48.1
45.46
41.62
37.24
32.92
29.07
25.87
23.25
21.02
18.95
16.78
14.25
11.13
7.32
2.92
-1.85
-6.62
-11.1
-15.15
-18.76
-22.18
-25.79
-30.11
-35.64
-42.56
-50.52
-58.39
-64.38
-66.46
-63.13
-53.97
-39.95
-23.08
-5.78
9.94
22.84
32.53
39.16
43.1
44.66
44.11
41.79
38.17
33.93
29.8
26.38
24.05
22.79
22.32
22.06
21.41
19.95
17.54
14.4
10.88
7.29
3.75
0.18
-3.56
-7.66
-12.26
-17.6
-23.95
-31.59
-40.44
-49.81
-58.29
-64.02
-65.27
-61.0
-51.31
-37.4
-21.14
-4.5
10.93
24.15
34.61
42.08
46.44
47.77
46.41
43.03
38.55
33.96
30.0
26.94
24.71
23.0
21.52
20.15
18.77
17.19
15.07
11.96
7.69
2.45
-3.19
-8.51
-13.03
-16.74
-20.13
-24.02
-29.1
-35.6
-43.1
-50.54
-56.45
-59.3
-57.98
-52.06
-42.0
-29.04
-14.88
-1.26
10.52
19.71
26.2
30.24
32.26
32.69
31.84
30.0
27.47
24.69
22.18
20.37
19.43
19.09
18.7
17.49
14.89
10.86
5.89
0.81
-3.59
-6.93
-9.4
-11.63
-14.42
-18.51
-24.28
-31.56
-39.65
-47.32
-53.01
-55.16
-52.67
-45.25
-33.61
-19.31
-4.32
9.53
21.01
29.56
35.17
38.04
38.44
36.65
33.09
28.45
23.64
19.52
16.64
15.02
14.11
13.14
11.39
8.58
4.91
0.94
-2.73
-5.72
-8.02
-10.01
-12.37
-15.88
-21.23
-28.73
-38.03
-48.04
-57.0
-62.91
