2.49
-2.45
-7.58
-12.67
-17.7
-22.88
-28.52
-34.83
-41.74
-48.84
-55.38
-60.28
-62.39
-60.76
-54.97
-45.45
-33.37
-20.33
-7.87
3.02
11.96
19.05
24.54
28.61
31.25
32.47
32.42
31.45
30.04
28.56
27.21
25.93
24.55
22.94
21.1
19.09
17.03
14.88
12.46
9.55
5.97
1.84
-2.54
-6.77
-10.57
-13.94
-17.24
-21.0
-25.72
-31.64
-38.5
-45.59
-51.9
-56.28
-57.74
-55.63
-49.86
-40.88
-29.71
-17.63
-5.99
4.13
12.11
17.8
21.48
23.62
24.71
25.03
24.74
23.88
22.43
20.54
18.46
16.48
14.92
13.92
13.39
13.04
12.42
11.08
8.79
5.62
1.9
-1.96
-5.65
-9.19
-12.79
-16.8
-21.47
-26.82
-32.7
-38.84
-44.81
-50.0
-53.56
-54.5
-52.02
-45.91
-36.66
-25.41
-13.56
-2.31
7.57
15.8
22.35
27.24
30.42
31.9
31.79
30.42
28.28
25.86
23.55
21.56
19.88
18.44
17.07
15.65
14.11
12.48
10.72
8.71
6.25
3.12
-0.74
-5.14
-9.67
-13.87
-17.46
-20.48
-23.34
-26.66
-30.97
-36.52
-43.08
-49.82
-55.5
-58.69
-58.26
-53.74
-45.52
-34.76
-22.91
-11.27
-0.68
8.61
16.61
23.35
28.68
32.37
34.24
34.4
33.35
31.71
30.09
28.76
27.68
26.54
25.04
23.02
20.65
18.2
15.93
13.87
11.78
9.27
6.04
2.09
-2.35
-6.81
-10.89
-14.38
-17.35
-20.13
-23.2
-27.05
-31.99
-37.99
-44.5
-50.43
-54.4
-55.11
-51.82
-44.61
-34.41
-22.65
-10.76
0.17
9.56
17.27
23.34
27.85
30.87
32.47
32.81
32.16
30.85
29.16
27.28
25.34
23.38
21.49
19.76
18.28
17.05
15.96
14.76
13.14
10.81
7.58
3.49
-1.23
-6.18
-10.93
-15.14
-18.73
-21.87
-24.92
-28.37
-32.61
-37.84
-43.8
-49.82
-54.79
-57.46
-56.75
-52.22
-44.21
-33.85
-22.62
-11.87
-2.46
5.36
11.73
16.76
20.43
22.57
23.09
22.19
20.5
18.76
17.57
17.13
17.2
17.34
17.21
16.69
15.83
14.68
13.12
10.93
7.95
4.25
0.2
-3.73
-7.15
-10.06
-12.76
-15.75
-19.41
-23.89
-29.04
-34.53
-39.77
-44.01
-46.36
-46.03
-42.5
-35.77
-26.5
-15.84
-5.14
4.43
12.16
17.85
21.7
24.02
25.13
25.22
24.41
22.9
20.94
18.85
16.95
15.43
14.36
13.63
13.0
12.18
10.86
8.81
5.91
2.23
-2.01
-6.5
-10.92
-15.05
-18.87
-22.58
-26.5
-31.03
-36.36
-42.37
-48.41
-53.44
-56.17
-55.58
-51.18
-43.28
-32.88
-21.35
-10.06
0.04
8.42
15.01
19.94
23.39
25.53
26.49
26.4
25.38
23.57
21.13
18.3
15.44
12.98
11.32
10.59
10.57
10.62
9.92
7.76
3.85
-1.51
-7.56
-13.31
-17.88
-20.74
-21.93
-21.98
-21.96
-23.19
-26.83
-33.41
-42.23
-51.28
-57.66
-58.49
-52.05
-38.59
-20.3
-0.47
17.73
32.38
43.23
51.29
57.88
63.82
68.89
72.2
72.91
70.81
66.61
61.53
56.77
52.98
50.15
47.88
45.74
43.51
41.12
38.57
35.63
32.07
27.78
22.99
18.28
14.24
11.12
8.5
5.44
0.76
-6.38
-16.11
-27.83
-40.38
-52.62
-63.65
-73.03
-80.57
-86.09
-89.22
-89.46
-86.31
-79.5
-69.07
-55.44
-39.49
-22.62
-6.57
6.89
16.59
22.41
25.42
27.26
29.48
32.74
36.78
40.7
43.69
45.44
46.18
46.37
46.26
45.77
44.56
42.27
38.7
33.89
28.09
21.58
14.7
7.67
0.54
-6.77
-14.46
-22.67
-31.41
-40.43
-49.34
-57.54
-64.32
-68.86
-70.37
-68.28
-62.51
-53.64
-42.72
-31.06
-19.8
-9.68
-0.97
6.27
12.07
16.35
19.03
20.14
19.9
18.77
17.29
15.96
15.04
14.56
14.4
14.29
14.05
13.52
12.57
11.11
9.05
6.33
2.99
-0.81
-4.81
-8.71
-12.31
-15.66
-19.02
-22.83
-27.54
-33.36
-40.11
-47.11
-53.24
-57.17
-57.7
-54.13
-46.55
-35.8
-23.29
-10.62
0.93
10.55
18.02
23.5
27.28
29.59
30.57
30.4
29.3
27.66
25.94
24.56
23.76
23.47
23.43
23.24
22.55
21.15
19.01
16.2
12.86
9.1
5.02
0.77
-3.51
-7.66
-11.65
-15.59
-19.77
-24.57
-30.24
-36.82
-43.93
-50.75
-56.09
-58.71
-57.57
-52.31
-43.3
-31.62
-18.77
-6.21
5.0
14.34
21.69
27.19
31.02
33.31
34.23
34.05
33.17
32.04
31.03
30.25
29.66
29.08
28.36
27.45
26.39
25.19
23.72
21.73
18.91
15.1
10.37
5.07
-0.33
-5.42
-10.0
-14.16
-18.29
-22.86
-28.26
-34.6
-41.56
-48.33
-53.79
-56.71
-56.09
-51.53
-43.33
-32.48
-20.36
-8.38
2.47
11.69
19.24
25.25
29.89
33.21
35.21
36.03
35.89
35.16
34.12
32.97
31.79
30.59
29.39
28.25
27.14
25.98
24.62
22.88
20.62
17.8
14.4
10.44
5.95
1.07
-3.99
-8.99
-13.76
-18.34
-23.02
-28.27
-34.47
-41.64
-49.22
-56.04
-60.69
-61.89
-58.95
-51.96
-41.76
-29.61
-16.85
-4.54
6.64
16.35
24.45
30.86
35.46
38.2
39.17
38.7
37.31
35.61
34.07
32.9
31.98
30.98
29.61
27.8
25.68
23.59
21.77
20.24
18.72
16.75
13.93
10.12
5.51
0.51
-4.42
-9.0
-13.19
-17.15
-21.18
-25.6
-30.65
-36.39
-42.59
-48.59
-53.35
-55.64
-54.46
-49.43
-40.94
-30.12
-18.41
-7.1
2.96
11.4
18.19
23.46
27.33
29.85
31.15
31.37
30.8
29.74
28.51
27.29
26.15
25.08
24.02
22.92
21.74
20.39
18.73
16.6
13.86
10.5
6.67
2.6
-1.44
-5.3
-8.98
-12.6
-16.41
-20.64
-25.56
-31.3
-37.74
-44.39
-50.27
-54.11
-54.67
-51.19
-43.72
-33.13
-20.86
-8.5
2.68
11.84
18.71
23.34
26.01
27.17
27.24
26.69
25.81
24.76
23.62
22.4
21.17
20.06
19.15
18.42
17.71
16.76
15.3
13.12
10.16
6.49
2.34
-1.96
-6.13
-9.96
-13.44
-16.7
-20.0
-23.69
-28.07
-33.36
-39.57
-46.31
-52.73
-57.58
-59.52
-57.55
-51.44
-41.86
-30.11
-17.75
-6.05
4.26
12.89
19.86
25.22
28.93
30.97
31.41
30.56
28.9
26.97
25.19
23.72
22.44
21.07
19.38
17.29
14.98
12.71
10.59
8.47
6.04
2.95
-0.91
-5.39
-10.13
-14.76
-18.99
-22.75
-26.17
-29.57
-33.46
-38.4
-44.72
-52.28
-60.21
-66.97
-70.77
-70.18
-64.69
-54.96
-42.51
-29.18
-16.5
-5.41
3.81
11.29
17.28
21.94
25.32
27.44
28.43
28.54
28.16
27.67
27.29
27.02
26.72
26.13
25.12
23.74
22.14
20.54
18.97
17.26
15.06
12.1
8.35
4.05
-0.43
-4.8
-8.99
-13.18
-17.66
-22.66
-28.28
-34.52
-41.2
-47.99
-54.16
-58.66
-60.21
-57.78
-50.99
-40.39
-27.32
-13.44
-0.22
11.46
21.29
29.24
35.3
39.44
41.63
42.02
41.02
39.22
37.24
35.5
34.21
33.3
32.56
31.7
30.55
29.01
27.08
24.83
22.22
19.18
15.63
11.57
7.18
2.74
-1.48
-5.46
-9.36
-13.56
-18.48
-24.34
-31.16
-38.56
-45.88
-52.12
-56.17
-56.96
-53.91
-47.06
-37.16
-25.5
-13.45
-2.15
7.7
15.83
22.17
26.72
29.5
30.64
30.37
29.07
27.17
25.12
23.28
21.92
21.21
21.15
21.52
21.9
21.88
21.1
19.49
17.18
14.37
11.25
7.83
4.09
0.07
-4.06
-8.1
-12.1
-16.4
-21.58
-27.94
-35.15
-42.03
-46.84
-47.92
-44.38
-36.38
-25.09
-12.2
0.65
12.27
22.05
29.86
35.87
40.34
43.57
45.82
47.25
48.06
48.42
48.55
48.66
48.79
48.84
48.61
48.07
47.46
47.31
48.13
50.16
53.31
57.21
61.6
66.38
71.5
76.64
80.89
82.91
81.43
76.04
67.69
58.68
51.91
49.89
53.72
62.62
74.32
85.94
94.99
100.22
101.76
100.73
98.5
96.03
93.49
90.36
85.69
78.68
68.94
56.82
43.3
29.78
17.72
8.18
1.74
-1.65
-2.43
-1.27
1.11
4.0
6.73
8.8
9.91
10.09
9.53
8.5
7.11
5.3
2.7
-1.19
-6.92
-14.99
-25.66
-38.92
-54.31
-71.01
-87.88
-103.77
-117.78
-129.45
-138.88
-146.55
-153.23
-159.47
-165.4
-170.54
-174.01
-174.92
-172.86
-168.13
-161.62
-154.32
-146.89
-139.38
-131.47
-122.87
-113.69
-104.42
-95.76
-88.03
-81.02
-74.01
-66.18
-57.0
-46.5
-35.16
-23.62
-12.46
-2.12
7.02
14.65
20.67
25.32
29.31
33.57
38.8
44.98
51.27
56.32
59.0
58.92
56.6
53.16
49.59
46.33
43.05
38.9
33.02
24.96
14.94
3.83
-7.12
-16.54
-23.46
-27.45
-28.72
-27.92
-25.8
-23.01
-19.95
-16.88
-13.95
-11.41
-9.4
-7.99
-7.03
-6.21
-5.22
-3.99
-2.69
-1.58
-0.91
-0.5
0.2
2.01
5.62
11.41
19.23
28.54
38.72
49.22
59.67
69.68
78.74
86.13
91.17
93.35
92.62
89.3
83.94
77.1
69.12
60.21
50.37
39.59
27.89
15.35
2.19
-11.21
-24.26
-36.23
-46.33
-53.96
-58.88
-61.23
-61.56
-60.59
-59.03
-57.45
-56.16
-55.34
-55.17
-55.91
-57.88
-61.22
-65.65
-70.41
-74.4
-76.55
-76.24
-73.45
-68.73
-62.85
-56.51
-50.05
-43.56
-37.08
-30.75
-24.87
-19.76
-15.6
-12.34
-9.7
-7.34
-4.99
-2.55
-0.12
2.13
3.97
5.2
5.72
5.5
4.65
3.34
1.78
0.15
-1.54
-3.38
-5.54
-8.16
-11.26
-14.8
-18.69
-22.86
-27.33
-32.08
-36.98
-41.59
-45.23
-47.1
-46.48
-43.07
-37.01
-28.87
-19.46
-9.5
0.4
9.82
18.36
25.65
31.35
35.29
37.61
38.7
39.06
39.09
38.97
38.68
38.13
37.29
36.19
34.9
33.41
31.62
29.38
26.57
23.18
19.25
14.86
10.12
5.28
0.65
-3.48
-7.07
-10.44
-14.12
-18.69
-24.38
-30.89
-37.42
-42.85
-46.06
-46.19
-42.79
-35.94
-26.23
-14.64
-2.45
9.16
19.31
27.52
33.78
38.21
41.03
42.46
42.8
42.47
41.97
41.64
41.58
41.59
41.38
40.67
39.37
37.57
35.35
32.76
29.79
26.46
22.83
19.07
15.31
11.62
7.98
4.34
0.62
-3.25
-7.47
-12.26
-17.85
-24.28
-31.24
-38.01
-43.57
-46.88
-47.15
-44.08
-37.91
-29.33
-19.28
-8.75
1.42
10.59
18.36
24.51
28.93
31.68
32.96
33.14
32.69
32.11
31.73
31.67
31.85
32.06
32.08
31.77
31.02
29.84
28.22
26.19
23.79
21.07
18.06
14.72
10.99
6.85
2.28
-2.55
-7.46
-12.31
-17.12
-22.05
-27.27
-32.67
-37.76
-41.68
-43.46
-42.29
-37.87
-30.4
-20.68
-9.81
1.01
10.66
18.41
23.95
27.52
29.64
30.91
31.76
32.31
32.48
32.17
31.41
30.37
29.27
28.14
26.87
25.27
23.18
20.66
17.85
14.96
12.09
9.25
6.33
3.22
-0.16
-3.87
-7.96
-12.48
-17.45
-22.87
-28.59
-34.41
-39.98
-44.8
-48.21
-49.45
-47.86
-43.11
-35.39
-25.38
-14.13
-2.69
8.05
17.46
25.21
31.05
34.88
36.78
37.03
36.14
34.8
33.61
32.94
32.83
32.98
32.94
32.29
30.75
28.32
25.25
21.85
18.42
15.08
11.77
8.28
4.44
0.22
-4.26
-8.78
-13.18
-17.44
-21.73
-26.28
-31.21
-36.33
-41.13
-44.81
-46.54
-45.69
-42.0
-35.63
-27.07
-17.02
-6.21
4.54
14.47
22.83
29.03
32.85
34.42
34.26
33.07
31.56
30.17
29.19
28.69
28.57
28.72
28.88
28.75
28.03
26.49
24.09
20.97
17.41
13.64
9.85
6.15
2.59
-0.83
-4.15
-7.55
-11.24
-15.49
-20.46
-26.09
-32.11
-38.0
-43.14
-46.8
-48.27
-46.98
-42.66
-35.54
-26.28
-15.97
-5.74
3.49
11.22
17.43
22.28
25.95
28.48
29.83
30.03
29.36
28.38
27.65
27.49
27.82
28.18
28.03
27.06
25.31
23.12
20.86
18.67
16.4
13.75
10.51
6.74
2.72
-1.17
-4.77
-8.19
-11.8
-16.04
-21.11
-26.86
-32.66
-37.61
-40.74
-41.32
-39.07
-34.19
-27.3
-19.21
-10.75
-2.62
4.64
10.7
15.38
18.64
20.55
21.34
21.24
20.55
19.57
18.49
17.45
16.52
15.7
14.96
14.24
13.42
12.33
10.74
8.46
5.42
1.78
-2.12
-5.9
-9.23
-12.13
-14.9
-18.03
-21.96
-26.86
-32.5
-38.29
-43.45
-47.11
-48.54
-47.22
-42.95
-35.92
-26.68
-16.12
-5.28
4.79
13.29
19.73
24.03
26.48
27.51
27.63
27.22
26.54
25.71
24.82
23.86
22.88
21.86
20.75
19.39
17.66
15.47
12.84
9.86
6.64
3.27
-0.22
-3.83
-7.54
-11.29
-15.04
-18.83
-22.81
-27.19
-32.17
-37.67
-43.23
-47.98
-50.81
-50.73
-47.17
-40.22
-30.65
-19.61
-8.35
2.15
11.33
18.94
24.96
29.39
32.19
33.45
33.39
32.45
31.15
29.88
28.76
27.72
26.59
25.27
23.81
22.33
20.93
19.55
18.05
16.23
13.9
10.96
7.39
3.23
-1.38
-6.25
-11.18
-16.0
-20.72
-25.48
-30.48
-35.82
-41.27
-46.22
-49.76
-50.94
-49.05
-43.88
-35.74
-25.44
-13.99
-2.37
8.53
18.09
25.81
31.41
34.74
35.98
35.65
34.46
33.16
32.25
31.86
31.71
31.39
30.49
28.89
26.73
24.25
21.72
19.21
16.65
13.86
10.72
7.19
3.42
-0.39
-4.04
-7.44
-10.66
-13.88
-17.36
-21.41
-26.17
-31.63
-37.5
-43.19
-47.76
-50.17
-49.45
-45.05
-37.16
-26.67
-14.97
-3.48
6.67
15.01
21.5
26.37
29.8
31.87
32.6
32.18
31.03
29.62
28.39
27.4
26.39
25.04
23.11
20.71
18.19
15.92
14.1
12.62
11.09
9.06
6.26
2.71
-1.32
-5.42
-9.23
-12.57
-15.56
-18.54
-21.98
-26.21
-31.27
-36.66
-41.48
-44.52
-44.7
-41.44
-34.88
-25.88
-15.68
-5.55
3.62
11.44
17.83
22.89
26.61
28.88
29.64
28.98
27.28
25.08
22.9
21.1
19.76
18.75
17.82
16.76
15.45
13.8
11.79
9.39
6.55
3.29
-0.29
-3.94
-7.38
-10.36
-12.84
-15.03
-17.39
-20.39
-24.4
-29.53
-35.5
-41.64
-46.96
-50.29
-50.55
-47.07
-39.88
-29.77
-17.97
-5.96
5.06
14.28
21.36
26.2
28.91
29.67
28.9
27.19
25.25
23.7
22.8
22.4
22.09
21.47
20.39
19.01
17.63
16.43
15.3
13.89
11.77
8.73
4.84
0.42
-4.12
-8.5
-12.61
-16.47
-20.21
-24.03
-28.16
-32.88
-38.34
-44.34
-50.15
-54.57
-56.25
-54.16
-48.03
-38.44
-26.61
-14.01
-1.87
8.94
17.92
24.86
29.7
32.53
33.65
33.52
32.67
31.6
30.6
29.76
29.01
28.25
27.39
26.36
25.12
23.64
21.95
20.09
18.15
16.09
13.74
10.8
7.03
2.39
-2.89
-8.29
-13.28
-17.54
-21.13
-24.53
-28.36
-33.08
-38.73
-44.69
-49.89
-53.0
-52.88
-48.99
-41.52
-31.34
-19.8
-8.24
2.25
11.09
18.13
23.48
27.38
29.95
31.3
31.51
30.82
29.57
28.18
26.98
26.14
25.55
24.95
24.06
22.72
21.01
19.16
17.35
15.62
13.81
11.61
8.81
5.42
1.63
-2.2
-5.79
-9.01
-11.98
-14.93
-18.12
-21.86
-26.36
-31.71
-37.76
-43.98
-49.41
-52.83
-53.14
-49.71
-42.69
-32.92
-21.72
-10.37
0.13
9.23
16.77
22.71
27.06
29.76
30.83
30.42
28.93
26.87
24.68
22.61
20.67
18.79
16.95
15.3
14.04
13.29
12.9
12.49
11.64
10.01
7.63
4.63
1.3
-2.2
-5.81
-9.53
-13.41
-17.43
-21.66
-26.14
-30.89
-35.77
-40.3
-43.76
-45.21
-43.88
-39.4
-32.01
-22.54
-12.21
-2.26
6.41
13.32
18.46
22.04
24.34
25.53
25.74
25.14
23.97
22.58
21.25
20.2
19.45
18.91
18.39
17.66
16.51
14.76
12.34
9.26
5.65
1.68
-2.41
-6.42
-10.19
-13.59
-16.65
-19.52
-22.55
-26.21
-30.92
-36.83
-43.56
-50.16
-55.23
-57.39
-55.59
-49.69
-40.38
-29.07
-17.32
-6.36
3.14
11.08
17.61
22.9
26.93
29.57
30.79
30.79
30.01
29.01
28.19
27.66
27.25
26.6
25.44
23.65
21.39
18.93
16.45
13.98
11.25
7.94
3.85
-0.9
-5.86
-10.44
-14.2
-17.17
-19.74
-22.68
-26.68
-32.08
-38.62
-45.49
-51.46
-55.23
-55.75
-52.5
-45.69
-36.01
-24.47
-12.15
0.0
11.15
20.59
27.78
32.42
34.6
34.82
33.85
32.49
31.35
30.63
30.23
29.87
29.34
28.56
27.56
26.5
25.39
24.2
22.72
20.71
17.97
14.49
10.4
5.97
1.51
-2.8
-6.89
-10.83
-14.76
-18.86
-23.35
-28.45
-34.28
-40.7
-47.15
-52.53
-55.47
-54.71
-49.58
-40.36
-28.26
-15.02
-2.33
8.65
17.47
24.19
29.09
32.34
33.99
34.1
32.95
31.07
29.1
27.59
26.75
26.53
26.57
26.5
25.95
24.69
22.64
19.87
16.66
13.29
10.04
6.97
3.94
0.66
-3.1
-7.44
-12.28
-17.44
-22.85
-28.53
-34.51
-40.49
-45.7
-49.01
-49.21
-45.53
-37.96
-27.33
-15.01
-2.47
9.08
18.93
26.73
32.35
35.74
37.0
36.39
34.42
31.8
29.2
27.12
25.72
24.91
24.41
23.9
23.11
21.82
19.89
17.25
13.98
10.3
6.5
2.79
-0.8
-4.49
-8.59
-13.37
-18.91
-25.14
-31.87
-38.8
-45.53
-51.34
-55.22
-56.02
-52.82
-45.39
-34.42
-21.37
-8.1
3.8
13.42
20.62
25.75
29.34
31.69
32.91
33.04
32.22
30.78
29.17
27.75
26.67
25.85
25.01
23.92
22.46
20.62
18.46
15.94
13.0
9.53
5.54
1.17
-3.27
-7.49
-11.37
