-39.67
-45.88
-51.96
-58.95
-67.65
-78.53
-91.62
-106.08
-119.79
-129.48
-131.28
-122.15
-101.23
-70.47
-34.29
1.99
33.77
58.38
75.34
85.53
90.29
90.65
87.3
80.96
72.75
64.17
56.84
51.88
49.57
49.31
49.93
50.16
49.04
46.24
41.98
36.89
31.67
26.82
22.38
17.88
12.6
5.83
-2.69
-12.55
-22.78
-32.17
-39.84
-45.61
-50.08
-54.36
-59.7
-67.05
-76.88
-88.94
-102.06
-114.0
-121.63
-121.61
-111.43
-90.6
-61.11
-27.11
6.38
35.1
56.69
70.8
78.47
81.09
79.63
74.64
66.74
57.06
47.42
39.79
35.61
35.17
37.57
41.04
43.76
44.53
43.07
39.99
36.23
32.63
29.47
26.44
22.8
17.86
11.38
3.67
-4.45
-12.07
-18.45
-23.43
-27.4
-31.25
-36.03
-42.71
-51.98
-63.9
-77.73
-91.7
-103.07
-108.54
-105.28
-91.83
-68.95
-39.57
-7.97
21.43
45.3
61.93
71.11
73.56
70.33
62.58
51.63
39.19
27.33
18.05
12.71
11.64
13.97
17.89
21.4
22.91
21.83
18.62
14.47
10.61
7.65
5.14
1.83
-3.82
-12.84
-25.08
-39.17
-53.04
-64.8
-73.51
-79.63
-84.83
-91.46
-101.85
-117.76
-139.98
-168.15
-200.61
-234.4
-265.66
-290.46
-306.2
-312.71
-312.45
-309.44
-307.3
-307.41
-308.35
-306.88
-299.92
-286.52
-268.34
-248.85
-231.48
-218.25
-209.25
-203.49
-199.94
-198.3
-198.88
-201.85
-206.58
-211.44
-214.33
-213.43
-207.93
-198.23
-185.67
-171.87
-158.05
-144.69
-131.54
-117.97
-103.49
-88.13
-72.51
-57.55
-44.07
-32.41
-22.29
-12.98
-3.62
6.43
17.36
29.02
41.08
53.3
65.77
78.79
92.73
107.86
124.13
141.29
159.01
177.13
195.65
214.73
234.49
255.12
276.86
300.25
325.9
353.94
383.31
411.33
434.19
448.07
450.66
442.06
424.63
402.02
377.73
354.21
332.67
313.58
297.2
283.65
272.73
263.52
254.5
244.23
232.37
220.5
211.93
210.59
219.09
237.31
261.93
287.54
308.67
321.77
326.08
323.24
315.9
306.31
295.75
284.74
273.84
263.96
256.2
251.13
248.33
246.34
243.29
237.68
228.88
217.32
204.03
190.18
176.55
163.28
150.0
136.14
121.35
105.67
89.6
73.85
58.95
44.92
31.28
17.16
1.79
-15.22
-33.72
-53.09
-72.54
-91.47
-109.72
-127.57
-145.64
-164.73
-185.54
-208.56
-233.66
-259.78
-284.92
-306.34
-321.29
-327.94
-325.93
-316.57
-302.34
-285.94
-269.46
-254.05
-239.95
-226.95
-214.91
-203.9
-194.13
-185.8
-178.88
-173.13
-168.33
-164.39
-161.45
-159.74
-159.36
-159.78
-159.79
-157.56
-151.18
-139.42
-122.25
-100.97
-77.87
-55.51
-36.01
-20.54
-9.42
-2.33
1.28
2.01
0.52
-2.4
-5.82
-8.71
-10.31
-10.34
-9.08
-7.32
-5.99
-5.86
-7.28
-10.16
-13.98
-18.12
-22.08
-25.73
-29.38
-33.69
-39.39
-47.02
-56.46
-66.8
-76.39
-83.13
-84.99
-80.62
-69.77
-53.46
-33.71
-13.03
6.28
22.58
35.11
43.73
48.62
50.03
48.32
44.02
38.16
32.09
27.23
24.49
23.9
24.57
25.08
24.11
21.02
16.02
10.01
4.08
-0.97
-5.0
-8.58
-12.75
-18.59
-26.87
-37.6
-49.9
-61.91
-71.18
-75.17
-71.99
-61.16
-43.81
-22.46
-0.28
19.88
36.13
47.79
54.97
58.1
57.55
53.64
46.91
38.35
29.53
22.07
17.18
15.11
15.05
15.5
14.92
12.43
8.02
2.45
-3.23
-8.27
-12.6
-16.76
-21.75
-28.38
-37.04
-47.45
-58.62
-69.0
-76.64
-79.5
-75.98
-65.49
-48.77
-27.88
-5.67
15.0
31.98
44.15
51.3
53.76
52.1
47.02
39.51
30.89
22.68
16.17
12.02
10.0
9.16
8.29
6.49
3.43
-0.65
-5.13
-9.44
-13.31
-16.97
-21.12
-26.7
-34.51
-44.77
-56.67
-68.34
-77.16
-80.52
-76.62
-65.16
-47.46
-26.09
-4.02
16.16
32.76
45.05
52.92
56.57
56.22
52.24
45.31
36.68
28.04
21.11
16.94
15.53
15.8
16.12
15.04
11.94
7.14
1.55
-3.9
-8.77
-13.27
-18.12
-24.18
-32.15
-42.33
-54.29
-66.73
-77.45
-83.69
-83.0
-74.01
-57.14
-34.58
-9.59
14.55
35.39
51.69
63.19
70.15
72.9
71.76
67.21
60.11
51.73
43.52
36.7
31.92
29.08
27.41
25.75
23.04
18.71
12.95
6.49
0.34
-4.77
-8.77
-12.3
-16.49
-22.43
-30.85
-41.79
-54.55
-67.63
-78.82
-85.55
-85.4
-76.92
-60.24
-37.31
-11.43
13.73
35.21
51.51
62.58
69.24
72.47
72.8
70.3
64.98
57.31
48.43
39.94
33.29
29.21
27.33
26.45
25.13
22.37
17.9
12.19
5.98
-0.12
-5.81
-11.08
-16.06
-20.87
-25.74
-31.13
-37.73
-46.22
-56.77
-68.57
-79.64
-87.16
-88.23
-80.91
-64.93
-42.0
-15.3
11.44
34.95
53.18
65.52
72.47
75.06
74.34
71.18
66.29
60.44
54.5
49.26
45.26
42.52
40.57
38.67
36.21
32.88
28.76
24.11
19.2
14.04
8.4
2.06
-4.98
-12.31
-19.29
-25.28
-30.15
-34.35
-38.91
-45.0
-53.4
-63.96
-75.38
-85.4
-91.26
-90.54
-81.87
-65.44
-43.09
-17.75
7.33
29.4
46.81
58.97
66.12
68.85
67.89
64.12
58.65
52.74
47.55
43.78
41.52
40.29
39.35
38.07
36.16
33.66
30.79
27.7
24.44
20.85
16.66
11.62
5.59
-1.32
-8.71
-15.97
-22.52
-28.03
-32.62
-36.84
-41.49
-47.41
-55.11
-64.58
-75.0
-84.67
-91.24
-92.26
-85.97
-72.0
-51.7
-27.72
-3.22
19.1
37.58
51.63
61.37
67.08
69.04
67.52
63.2
57.24
51.13
46.25
43.29
42.0
41.41
40.34
37.97
34.16
29.46
24.69
20.53
17.17
14.25
11.09
7.03
1.75
-4.61
-11.5
-18.29
-24.42
-29.72
-34.39
-38.95
-44.07
-50.34
-58.08
-67.19
-77.0
-86.16
-92.8
-94.8
-90.48
-79.21
-61.76
-40.16
-17.09
4.85
23.86
39.05
50.28
57.73
61.61
62.15
59.79
55.31
49.9
44.8
40.9
38.4
36.88
35.53
33.61
30.81
27.32
23.65
20.26
17.34
14.67
11.81
8.28
3.8
-1.6
-7.63
-13.86
-19.82
-25.21
-29.97
-34.33
-38.72
-43.73
-49.83
-57.3
-65.98
-75.13
-83.34
-88.65
-88.98
-82.69
-69.32
-49.89
-26.77
-3.05
18.47
35.98
48.86
57.33
61.94
63.02
60.82
55.74
48.68
41.14
34.76
30.77
29.43
29.99
31.1
31.46
30.44
28.13
25.14
22.0
18.84
15.27
10.74
4.86
-2.23
-9.89
-17.28
-23.74
-29.17
-33.98
-39.03
-45.15
-52.93
-62.19
-71.85
-80.05
-84.41
-82.81
-74.1
-58.56
-38.02
-15.31
6.51
25.16
39.44
49.33
55.4
58.3
58.43
56.12
51.87
46.61
41.59
37.89
35.97
35.45
35.28
34.41
32.3
29.2
25.84
22.93
20.55
18.14
14.75
9.62
2.66
-5.54
-13.96
-21.69
-28.32
-34.11
-39.75
-46.09
-53.84
-63.27
-74.04
-85.02
-94.39
-99.74
-98.85
-90.4
-74.59
-53.26
-29.36
-5.98
14.52
30.97
43.15
51.41
56.1
57.54
56.2
52.86
48.66
44.67
41.54
39.24
37.23
34.88
31.92
28.52
25.23
22.47
20.28
18.27
15.76
12.1
7.03
0.7
-6.44
-13.72
-20.6
-26.71
-32.0
-36.73
-41.47
-47.06
-54.3
-63.48
-73.97
-83.98
-90.81
-91.69
-84.78
-69.88
-48.77
-24.46
-0.29
21.11
38.28
50.92
59.42
64.25
65.83
64.57
61.03
56.07
50.78
46.08
42.48
39.94
37.96
35.88
33.26
30.02
26.41
22.84
19.51
16.29
12.67
8.06
2.11
-5.07
-12.83
-20.35
-26.9
-32.25
-36.76
-41.32
-46.99
-54.64
-64.53
-75.84
-86.71
-94.41
-96.16
-90.04
-75.84
-55.16
-30.96
-6.54
15.45
33.52
47.25
56.81
62.53
64.73
63.76
60.29
55.32
50.01
45.3
41.76
39.48
38.19
37.45
36.74
35.62
33.78
31.07
27.45
22.96
17.6
11.36
4.3
-3.38
-11.15
-18.46
-24.81
-30.11
-34.78
-39.67
-45.7
-53.46
-62.86
-72.91
-81.84
-87.41
-87.47
-80.63
-66.73
-47.12
-24.33
-1.35
19.16
35.54
47.23
54.5
57.93
58.06
55.37
50.45
44.15
37.58
31.75
27.32
24.35
22.47
21.13
19.8
18.13
15.86
12.81
8.88
4.18
-0.99
-6.26
-11.28
-15.95
-20.46
-25.2
-30.66
-37.26
-45.26
-54.53
-64.29
-73.01
-78.59
-78.88
-72.42
-59.08
-40.15
-18.1
4.21
24.29
40.52
52.21
59.4
62.56
62.3
59.39
54.69
49.14
43.63
38.8
34.98
32.15
30.16
28.77
27.71
26.63
24.98
22.15
17.68
11.5
4.07
-3.81
-11.36
-18.18
-24.32
-30.16
-36.13
-42.55
-49.65
-57.68
-66.72
-76.41
-85.49
-91.74
-92.54
-85.81
-71.02
-49.58
-24.45
0.89
23.56
41.83
55.19
63.82
68.17
68.72
66.11
61.32
55.6
50.15
45.83
42.94
41.15
39.94
38.77
37.36
35.58
33.35
30.48
26.75
22.01
16.27
9.85
3.09
-3.67
-10.38
-17.15
-24.23
-31.83
-40.1
-49.16
-59.04
-69.55
-79.95
-88.77
-93.92
-93.25
-85.42
-70.47
-49.96
-26.49
-2.84
18.68
36.65
50.43
59.88
65.04
66.21
64.03
59.66
54.52
50.0
46.99
45.56
45.15
44.89
44.01
42.14
39.39
36.04
32.36
28.32
23.73
18.31
11.97
4.83
-2.74
-10.35
-17.67
-24.57
-31.13
-37.67
-44.71
-52.81
-62.26
-72.65
-82.65
-89.98
-92.16
-87.24
-74.73
-55.82
-33.04
-9.36
12.75
31.69
46.79
57.82
64.74
67.57
66.64
62.81
57.43
51.9
47.29
44.03
42.02
40.84
39.99
39.1
37.87
36.07
33.5
30.0
25.5
19.95
13.41
6.02
-1.89
-9.89
-17.44
-24.18
-30.01
-35.34
-40.95
-47.76
-56.34
-66.45
-76.71
-84.84
-88.17
-84.62
-73.49
-55.88
-34.25
-11.67
9.17
26.56
39.81
48.88
53.93
55.32
53.56
49.55
44.49
39.49
35.3
32.13
29.76
27.75
25.7
23.28
20.33
16.7
12.33
7.29
1.7
-4.28
-10.62
-17.37
-24.6
-32.22
-40.07
-48.07
-56.51
-66.09
-77.55
-91.13
-106.11
-120.72
-132.71
-140.16
-142.17
-138.92
-131.33
-120.47
-107.39
-93.26
-79.87
-69.81
-66.1
-71.21
-86.1
-109.67
-138.96
-170.04
-199.04
-222.86
-239.54
-248.27
-249.42
-244.49
-235.93
-226.69
-219.46
-215.82
-215.75
-217.78
-219.63
-219.05
-214.66
-206.2
-194.36
-180.29
-165.24
-150.2
-135.95
-123.09
-112.03
-103.03
-96.09
-90.96
-87.17
-84.17
-81.48
-78.82
-76.2
-73.76
-71.7
-70.09
-68.82
-67.65
-66.29
-64.55
-62.42
-60.01
-57.57
-55.32
-53.37
-51.67
-50.05
-48.26
-46.06
-43.31
-39.98
-36.13
-31.92
-27.54
-23.2
-19.06
-15.23
-11.78
-8.65
-5.71
-2.82
0.14
3.24
6.46
9.76
13.2
16.94
21.36
26.9
33.98
42.8
53.28
65.04
77.55
90.37
103.29
116.44
130.18
144.94
160.82
177.57
194.53
210.81
225.64
238.6
249.7
259.33
268.3
277.58
288.22
300.82
315.14
329.59
341.34
347.06
343.96
331.07
309.61
282.48
253.07
223.95
196.29
170.14
145.26
121.85
100.81
83.31
70.36
62.49
59.85
62.41
70.11
82.7
99.45
119.08
139.91
160.32
179.13
195.68
209.81
221.58
231.25
239.27
246.26
252.98
260.05
267.72
275.74
283.46
290.16
295.39
299.14
301.74
303.54
304.47
303.97
301.15
295.14
285.45
272.08
255.39
235.86
214.05
190.63
166.57
143.07
121.35
102.35
86.45
73.49
62.92
54.04
46.11
38.29
29.56
18.68
4.56
-13.4
-34.85
-58.33
-81.55
-101.85
-116.85
-125.12
-126.66
-122.84
-115.83
-107.74
-99.63
-91.35
-81.95
-70.76
-58.25
-46.4
-37.89
-34.93
-38.14
-46.27
-56.93
-67.66
-76.96
-84.47
-90.58
-95.79
-100.4
-104.56
-108.62
-113.23
-119.17
-126.93
-136.35
-146.69
-156.88
-165.92
-173.03
-177.64
-179.3
-177.59
-172.25
-163.29
-151.14
-136.67
-121.04
-105.56
-91.41
-79.43
-69.75
-61.63
-53.31
-42.49
-27.01
-5.73
20.96
51.31
82.92
113.86
143.27
171.28
198.45
225.12
251.11
275.87
298.81
319.1
335.44
345.83
348.19
341.46
326.61
306.75
285.89
267.16
251.31
236.68
220.44
200.36
175.95
148.42
119.73
91.71
65.85
43.31
25.18
11.97
3.1
-3.45
-10.82
-21.89
-38.17
-59.01
-82.0
-104.0
-122.48
-136.38
-146.21
-153.68
-160.9
-169.64
-180.77
-194.15
-208.78
-223.25
-236.44
-247.83
-257.58
-266.31
-274.52
-282.23
-288.75
-292.83
-293.09
-288.49
-278.67
-264.07
-245.8
-225.34
-204.18
-183.5
-164.11
-146.46
-130.77
-117.07
-105.14
-94.55
-84.56
-74.45
-63.72
-52.37
-40.92
-30.15
-20.83
-13.47
-8.17
-4.78
-3.06
-2.75
-3.67
-5.66
-8.59
-12.23
-16.3
-20.57
-24.97
-29.65
-34.94
-41.13
-48.12
-55.21
-61.05
-64.05
-62.91
-57.2
-47.54
-35.38
-22.43
-10.12
0.66
9.56
16.45
21.18
23.51
23.31
20.83
16.72
12.08
8.0
5.24
3.97
3.76
3.92
3.66
2.55
0.45
-2.41
-5.68
-9.06
-12.35
-15.57
-18.81
-22.38
-26.63
-31.98
-38.64
-46.38
-54.37
-61.24
-65.35
-65.17
-59.86
-49.52
-35.22
-18.75
-2.06
13.13
25.66
35.0
41.03
43.93
43.98
41.53
37.15
31.6
25.81
20.76
17.09
14.99
14.04
13.45
12.35
10.15
6.78
2.61
-1.75
-5.84
-9.55
-13.2
-17.31
-22.45
-28.94
-36.8
-45.8
-55.3
-64.27
-71.28
-74.58
-72.58
-64.44
-50.47
-32.26
-12.23
7.13
23.81
36.76
45.72
50.96
52.89
51.97
48.75
43.92
38.45
33.31
29.26
26.56
24.92
23.63
21.8
18.77
14.26
8.51
2.11
-4.21
-9.85
-14.66
-18.89
-23.17
-28.31
-35.04
-43.69
-53.99
-64.86
-74.46
-80.53
-80.97
-74.57
-61.45
-43.21
-22.35
-1.58
16.94
32.03
43.39
51.24
55.91
57.63
56.53
52.92
47.48
41.2
35.27
30.66
27.75
26.24
25.23
23.69
20.85
16.63
11.43
5.93
0.61
-4.44
-9.51
-14.95
-20.93
-27.36
-34.11
-41.15
-48.66
-56.76
-65.09
-72.49
-77.14
-76.96
-70.49
-57.4
-38.86
-17.22
4.62
24.06
39.44
50.2
56.71
59.79
60.26
58.65
55.27
50.48
44.81
39.11
34.24
30.78
28.83
27.86
27.0
25.39
22.47
18.18
12.85
6.99
1.07
-4.64
-10.06
-15.34
-20.69
-26.37
-32.69
-39.98
-48.38
-57.56
-66.55
-73.55
-76.33
-72.87
-62.25
-45.19
-24.05
-2.08
17.64
33.12
43.82
50.3
53.48
54.05
52.24
48.16
42.19
35.27
28.69
23.68
20.88
20.05
20.36
20.64
19.92
17.75
14.14
9.41
4.01
-1.79
-7.82
-14.06
-20.45
-26.96
-33.63
-40.59
-48.09
-56.24
-64.62
-72.03
-76.6
-76.24
-69.47
-56.14
-37.67
-16.63
4.0
21.85
35.61
44.98
50.31
52.08
50.69
46.56
40.43
33.46
27.04
22.33
19.91
19.49
20.15
20.7
20.16
18.03
14.3
9.25
3.34
-3.03
-9.5
-15.86
-21.93
-27.7
-33.34
-39.28
-46.02
-53.91
-62.87
-71.96
-79.42
-82.94
-80.41
-70.72
-54.24
-32.93
-9.7
12.42
31.17
45.51
55.45
61.53
64.32
64.12
61.06
55.51
48.29
40.72
34.17
29.64
27.33
26.63
26.47
25.84
24.11
21.15
17.13
12.26
6.65
0.38
-6.44
-13.58
-20.71
-27.6
-34.33
-41.4
-49.46
-58.98
-69.71
-80.38
-88.81
-92.4
-88.97
-77.61
-59.08
-35.7
-10.63
12.99
32.81
47.64
57.33
62.42
63.8
62.44
59.27
55.22
51.09
47.49
44.68
42.57
40.83
39.03
36.88
34.29
31.36
28.14
24.58
20.43
15.32
9.04
1.61
-6.54
-14.76
-22.39
-29.05
-34.81
-40.25
-46.32
-53.87
-63.3
-74.15
-84.9
-93.24
-96.63
-93.07
-81.78
-63.48
-40.3
-15.18
8.91
29.63
45.65
56.61
62.91
65.32
64.77
62.21
58.59
54.78
51.4
48.81
46.96
45.55
44.15
42.39
40.12
37.32
34.13
30.66
26.88
22.71
17.96
12.42
5.98
-1.24
-8.89
-16.47
-23.52
-29.89
-35.87
-42.16
-49.54
-58.38
-68.13
-77.21
-83.25
-83.78
-77.16
-63.18
-43.28
-20.13
3.17
23.98
40.6
52.42
59.59
62.66
62.36
59.45
54.74
49.09
43.32
38.1
33.91
30.93
29.02
27.78
26.68
25.13
22.67
19.1
14.5
9.12
3.23
-2.89
-9.04
-14.97
-20.48
-25.39
-29.82
-34.18
-39.16
-45.48
-53.47
-62.82
-72.32
-80.09
-83.88
-81.79
-72.81
-57.28
-36.87
-14.19
7.91
27.01
41.65
51.43
56.77
58.43
57.36
54.45
50.56
46.51
42.95
40.25
38.45
37.26
36.32
35.26
33.88
32.05
29.68
26.64
22.71
17.8
11.97
5.41
-1.55
-8.63
-15.61
-22.41
-29.07
-35.8
-42.9
-50.79
-59.67
-69.29
-78.69
-86.18
-89.72
-87.49
-78.54
-63.14
-42.81
-19.96
2.75
23.03
39.3
50.78
57.46
59.81
58.64
55.01
50.07
44.98
40.57
37.25
34.96
33.31
31.85
30.32
28.69
27.01
25.23
23.07
20.19
16.36
11.64
6.32
0.73
-4.95
-10.71
-16.69
-22.93
-29.5
-36.42
-43.83
-51.95
-60.71
-69.46
-76.85
-81.01
-80.14
-73.28
-60.63
-43.54
-24.07
-4.36
13.82
29.24
41.19
49.36
53.73
54.68
52.88
49.27
44.83
40.42
36.59
33.58
31.4
29.87
28.71
27.55
26.05
24.04
21.47
18.42
14.94
10.95
6.26
0.75
-5.46
-11.89
-17.87
-22.85
-26.82
-30.42
-34.84
-41.2
-49.99
-60.49
-70.83
-78.44
-80.94
-76.93
-66.47
-50.95
-32.57
-13.66
3.79
18.49
29.75
37.45
41.78
43.2
42.3
39.87
36.68
33.4
30.5
28.21
26.5
25.23
24.15
23.04
21.64
19.75
17.14
13.64
9.18
3.92
-1.78
-7.47
-12.83
-17.8
-22.68
-27.94
-34.03
-41.2
-49.25
-57.45
-64.63
-69.24
-69.76
-65.02
-54.74
-39.63
-21.4
-2.24
15.69
30.76
42.1
49.43
52.91
52.87
49.89
44.77
38.57
32.44
27.4
24.0
22.26
21.66
21.42
20.77
19.14
16.25
12.05
6.73
0.64
-5.72
-11.9
-17.58
-22.76
-27.82
-33.43
-40.26
-48.65
-58.25
-67.89
-75.71
-79.63
-77.9
-69.76
-55.7
-37.37
-17.17
2.45
19.67
33.46
43.51
49.9
52.82
52.49
49.35
44.2
38.15
32.42
27.89
24.81
22.88
21.44
19.85
17.7
14.83
11.18
6.64
1.19
-5.07
-11.78
-18.48
-24.79
-30.69
-36.61
-43.33
-51.62
-61.72
-72.94
-83.59
-91.26
-93.41
-88.29
-75.55
-56.53
-33.9
-10.82
9.92
26.68
38.98
47.2
51.97
53.82
53.14
50.36
46.14
41.47
37.35
34.46
32.87
32.05
31.02
28.91
25.24
20.14
14.19
8.17
2.7
-2.02
-6.17
-10.27
-14.92
-20.7
-28.06
-37.25
-48.2
-60.23
-71.97
-81.43
-86.45
-85.36
-77.49
-63.44
-44.9
-24.18
-3.6
15.04
30.7
42.99
51.96
57.77
60.54
60.42
57.62
52.75
46.74
40.8
35.97
32.78
31.09
30.13
28.93
26.69
23.08
18.28
12.73
6.91
1.17
-4.39
-9.84
-15.34
-21.1
-27.38
-34.5
-42.74
-52.05
-61.85
-70.8
-76.98
-78.35
-73.4
-61.74
-44.35
-23.36
-1.44
18.86
35.74
48.35
56.67
61.2
62.6
61.54
58.65
54.54
49.87
45.3
41.36
38.41
36.48
35.25
34.18
32.6
29.99
26.12
21.12
15.3
9.1
2.84
-3.36
-9.5
-15.76
-22.35
-29.57
-37.74
-47.11
-57.59
-68.41
-78.02
-84.25
-84.86
-78.31
-64.5
-44.84
-21.98
1.12
21.91
38.82
51.27
59.34
63.36
63.64
60.66
55.16
48.34
41.65
36.33
33.08
31.75
31.55
31.44
30.5
28.24
24.67
20.11
14.97
9.6
4.17
-1.38
-7.17
-13.37
-20.19
-27.78
-36.18
-45.25
-54.44
-62.74
-68.75
-70.78
-67.4
-57.92
-42.73
-23.37
-2.28
17.98
35.17
48.03
56.27
60.3
60.85
58.6
54.16
48.2
41.57
35.36
30.59
27.85
27.01
27.17
27.11
25.72
22.43
17.43
11.43
5.24
-0.59
-5.98
-11.33
-17.26
-24.38
-33.11
-43.49
-55.09
-66.93
-77.36
-84.35
-85.79
-80.23
-67.39
-48.43
-25.72
-2.15
19.58
37.57
50.88
59.39
63.49
63.78
60.98
55.84
49.28
42.3
35.95
31.08
28.12
26.89
26.64
26.22
24.54
20.96
15.56
9.03
2.34
-3.72
-8.89
-13.55
-18.44
-24.43
-32.11
-41.7
-52.86
-64.73
-75.83
-84.16
-87.53
-83.99
-72.67
-54.08
-30.29
-4.38
20.37
41.3
57.03
67.3
72.75
74.26
72.68
68.68
62.91
56.13
49.3
43.33
38.86
35.98
34.25
32.81
30.78
27.51
22.83
16.95
10.38
3.63
-2.95
-9.28
-15.51
-21.86
-28.65
-36.17
-44.73
-54.52
-65.45
-76.76
-86.87
-93.49
-94.17
-87.12
-71.97
-50.15
-24.55
1.39
24.56
43.01
56.11
64.27
68.33
69.25
67.81
64.67
60.53
56.06
51.87
48.3
45.37
42.78
40.14
37.12
33.46
29.12
24.15
18.7
12.97
7.07
1.09
-4.99
-11.24
-17.75
-24.61
-31.94
-39.91
-48.72
-58.4
-68.54
-78.04
-85.08
-87.47
-83.23
-71.48
-52.88
-29.62
-4.83
18.28
37.29
50.99
59.41
63.3
63.7
61.54
57.56
52.45
46.92
41.76
37.61
34.78
33.08
31.97
30.73
28.81
26.0
22.38
18.26
13.93
9.56
5.13
0.5
-4.53
-10.04
-15.97
-22.13
-28.42
-34.97
-42.21
-50.65
-60.37
-70.55
-79.3
-83.94
-81.95
-71.91
-54.29
-31.48
-7.03
15.48
33.52
46.04
53.35
56.42
56.32
53.86
49.65
44.27
38.53
33.32
29.41
27.16
26.32
26.24
26.1
25.19
23.08
19.61
14.87
9.1
2.67
-3.92
-10.21
-15.84
-20.79
-25.43
-30.51
-36.85
-45.01
-54.87
-65.37
-74.52
-79.94
-79.4
-71.6
-56.62
-36.01
-12.36
11.27
32.15
48.36
58.99
64.16
64.65
61.65
56.39
49.96
43.25
37.01
31.82
28.05
25.75
24.5
23.55
21.96
19.0
14.42
8.51
1.93
-4.58
-10.48
-15.7
-20.43
-25.13
-30.27
-36.26
-43.47
-52.08
-62.0
-72.49
-82.12
-88.76
-90.0
-83.99
-70.1
-49.45
-24.67
0.78
23.7
41.91
54.57
61.92
64.8
64.22
61.07
56.21
50.52
44.92
40.2
36.78
34.56
33.05
31.63
29.77
27.25
24.04
20.23
15.94
11.19
6.03
0.52
-5.18
-11.0
-16.88
-22.91
-29.35
-36.51
-44.67
-53.93
-63.93
-73.63
-81.31
-84.66
-81.69
-71.34
-54.16
-32.22
-8.57
13.76
32.5
46.58
55.9
