23.88
18.04
11.15
3.45
-4.52
-12.19
-19.27
-25.95
-32.82
-40.58
-49.64
-59.77
-69.92
-78.43
-83.26
-82.59
-75.29
-61.45
-42.42
-20.58
1.22
20.53
35.74
46.36
52.79
55.87
56.49
55.37
53.09
50.13
47.03
44.19
41.83
39.84
37.91
35.75
33.25
30.6
28.1
25.94
23.97
21.72
18.53
13.91
7.77
0.57
-6.93
-13.93
-19.95
-25.13
-30.12
-35.88
-43.2
-52.26
-62.38
-71.97
-78.87
-80.99
-76.9
-66.29
-50.13
-30.4
-9.59
9.91
26.3
38.62
46.73
51.08
52.46
51.72
49.6
46.69
43.52
40.52
38.04
36.21
34.96
33.92
32.57
30.46
27.45
23.77
19.91
16.33
13.15
9.99
6.19
1.23
-4.92
-11.73
-18.4
-24.25
-29.15
-33.56
-38.28
-44.05
-51.14
-59.22
-67.38
-74.31
-78.47
-78.32
-72.77
-61.42
-44.99
-25.3
-4.9
13.59
28.15
37.89
43.07
44.7
44.14
42.52
40.57
38.61
36.77
35.04
33.46
32.05
30.8
29.66
28.52
27.23
25.62
23.57
20.93
17.52
13.2
7.84
1.48
-5.71
-13.38
-21.17
-28.81
-36.16
-43.29
-50.31
-57.35
-64.18
-70.18
-74.2
-74.87
-70.94
-61.82
-47.95
-30.84
-12.74
4.07
17.85
27.8
34.05
37.2
38.04
37.11
34.83
31.55
27.72
23.82
20.25
17.26
14.82
12.72
10.73
8.65
6.32
3.58
0.3
-3.63
-8.16
-13.11
-18.26
-23.35
-28.3
-33.18
-38.21
-43.69
-49.94
-57.2
-65.46
-74.09
-81.65
-85.97
-84.69
-76.17
-60.33
-38.9
-14.98
7.96
27.26
41.66
51.34
57.19
60.22
61.02
59.89
57.14
53.38
49.43
46.1
43.83
42.57
41.83
41.02
39.6
37.31
34.12
30.15
25.55
20.46
15.03
9.39
3.62
-2.27
-8.42
-15.06
-22.51
-31.02
-40.73
-51.54
-62.94
-73.84
-82.5
-86.75
-84.66
-75.28
-59.2
-38.64
-16.76
3.4
19.7
31.41
38.91
43.18
45.1
45.15
43.57
40.58
36.68
32.66
29.34
27.28
26.51
26.55
26.57
25.82
23.87
20.8
17.02
13.02
8.99
4.83
0.2
-5.2
-11.46
-18.48
-26.11
-34.29
-43.04
-52.15
-60.86
-67.67
-70.6
-67.87
-58.69
-43.77
-25.27
-6.09
11.1
24.61
34.03
39.89
42.96
43.86
42.89
40.26
36.42
32.14
28.36
25.78
24.6
24.46
24.56
23.98
22.03
18.44
13.54
8.01
2.68
-1.81
-5.32
-8.28
-11.55
-16.08
-22.53
-31.02
-40.97
-51.01
-59.23
-63.49
-62.09
-54.32
-40.84
-23.58
-5.15
11.91
25.84
35.92
42.17
45.0
44.8
42.02
37.21
31.23
25.14
19.93
16.2
13.94
12.69
11.67
10.1
7.48
3.76
-0.73
-5.38
-9.55
-12.91
-15.62
-18.44
-22.37
-28.29
-36.47
-46.3
-56.3
-64.46
-68.7
-67.46
-60.16
-47.43
-30.9
-12.84
4.49
19.28
30.46
37.65
40.97
40.8
37.71
32.49
26.25
20.38
16.16
14.31
14.57
15.79
16.39
15.07
11.45
6.15
0.46
-4.44
-8.04
-10.77
-13.68
-17.99
-24.48
-33.32
-43.84
-54.73
-64.13
-69.9
-70.1
-63.51
-50.23
-31.74
-10.66
10.01
27.69
40.83
49.0
52.65
52.69
50.05
45.59
40.1
34.38
29.24
25.27
22.61
20.92
19.42
17.31
14.12
9.91
5.14
0.39
-4.02
-8.24
-12.82
-18.51
-25.91
-35.22
-45.94
-56.88
-66.11
-71.41
-70.86
-63.48
-49.69
-31.21
-10.6
9.61
27.49
41.97
52.71
59.6
62.6
61.73
57.42
50.69
43.2
36.71
32.44
30.62
30.31
29.96
28.1
24.01
18.01
11.11
4.5
-1.05
-5.5
-9.46
-13.84
-19.57
-27.27
-37.15
-48.74
-60.77
-71.17
-77.43
-77.36
-69.87
-55.53
-36.47
-15.66
4.09
20.98
34.44
44.75
52.3
57.13
58.83
57.06
52.11
45.18
38.2
32.95
30.45
30.39
31.39
31.69
30.01
26.06
20.52
14.51
8.97
4.18
-0.28
-5.18
-11.31
-19.09
-28.61
-39.5
-51.07
-62.11
-70.84
-75.15
-73.09
-63.63
-47.23
-25.98
-3.05
18.24
35.49
47.8
55.57
59.94
61.98
62.22
60.71
57.45
52.77
47.53
42.83
39.47
37.57
36.49
35.1
32.42
27.94
21.89
14.98
8.05
1.63
-4.22
-9.81
-15.62
-22.01
-29.19
-37.25
-46.27
-56.18
-66.46
-75.85
-82.35
-83.7
-78.15
-65.26
-46.26
-23.74
-0.79
19.92
36.74
49.11
57.13
61.14
61.45
58.4
52.71
45.55
38.46
32.91
29.77
29.0
29.57
30.04
29.0
25.74
20.41
13.89
7.31
1.55
-3.11
-7.08
-11.15
-16.19
-22.78
-31.07
-40.86
-51.47
-61.87
-70.49
-75.42
-74.75
-67.24
-52.86
-33.05
-10.45
11.91
31.44
46.62
57.07
63.19
65.68
65.24
62.46
57.96
52.52
46.99
42.09
38.3
35.71
34.07
32.9
31.63
29.78
26.91
22.74
17.15
10.33
2.65
-5.35
-13.14
-20.35
-26.9
-33.01
-39.26
-46.4
-55.12
-65.65
-77.29
-88.33
-96.17
-98.05
-92.03
-77.77
-56.75
-31.94
-6.78
15.75
33.87
47.01
55.53
60.16
61.66
60.76
58.25
55.01
51.87
49.43
47.81
46.71
45.6
43.99
41.72
38.98
36.15
33.52
31.13
28.62
25.44
21.05
15.18
7.94
-0.11
-8.27
-15.85
-22.56
-28.59
-34.58
-41.41
-49.84
-60.15
-71.9
-83.71
-93.43
-98.62
-97.16
-88.0
-71.61
-50.0
-26.07
-2.77
17.78
34.59
47.63
57.33
63.93
67.49
68.06
66.09
62.58
58.85
56.03
54.5
53.8
52.93
50.89
47.28
42.45
37.31
32.79
29.39
26.91
24.51
21.13
15.99
8.97
0.64
-8.05
-16.17
-23.18
-29.11
-34.42
-39.73
-45.68
-52.82
-61.42
-71.39
-81.96
-91.61
-98.24
-99.69
-94.42
-82.17
-64.09
-42.37
-19.6
1.89
20.45
35.15
45.65
52.06
54.82
54.58
52.24
48.75
45.02
41.74
39.3
37.84
37.19
36.97
36.68
35.94
34.46
32.19
29.22
25.62
21.35
16.28
10.26
3.32
-4.17
-11.59
-18.31
-23.91
-28.48
-32.56
-37.06
-42.91
-50.67
-60.1
-69.95
-78.05
-81.86
-79.27
-69.37
-52.88
-32.05
-9.91
10.6
27.37
39.47
47.0
50.67
51.44
50.21
47.78
44.8
41.78
39.05
36.7
34.7
32.96
31.4
29.97
28.6
27.21
25.6
23.48
20.53
16.51
11.3
5.0
-2.11
-9.58
-16.93
-23.8
-30.09
-36.03
-42.18
-49.23
-57.64
-67.14
-76.53
-83.72
-86.24
-82.13
-70.7
-52.92
-31.18
-8.58
12.08
28.97
41.44
49.82
54.78
57.02
57.02
55.19
52.07
48.4
45.0
42.43
40.84
39.78
38.57
36.53
33.39
29.42
25.17
21.15
17.5
13.91
9.78
4.63
-1.6
-8.45
-15.19
-21.17
-26.19
-30.59
-35.08
-40.47
-47.34
-55.81
-65.55
-75.71
-84.92
-91.46
-93.47
-89.46
-78.85
-62.33
-41.79
-19.89
0.79
18.44
32.33
42.56
49.6
53.82
55.42
54.67
52.18
49.02
46.37
45.05
45.12
45.91
46.35
45.55
43.19
39.56
35.4
31.38
27.82
24.62
21.29
17.25
12.11
5.83
-1.28
-8.62
-15.64
-21.94
-27.57
-32.86
-38.38
-44.71
-52.23
-60.96
-70.32
-79.08
-85.42
-87.27
-83.07
-72.36
-56.09
-36.46
-16.13
2.54
18.1
30.12
38.88
44.77
48.04
48.79
47.26
44.06
40.09
36.36
33.53
31.73
30.6
29.54
28.01
25.83
23.2
20.46
17.86
15.28
12.22
8.1
2.65
-3.83
-10.49
-16.33
-20.8
-24.11
-27.21
-31.29
-37.24
-45.13
-54.2
-63.0
-69.7
-72.5
-69.99
-61.53
-47.57
-29.77
-10.58
7.37
22.11
32.72
39.37
42.83
43.97
43.39
41.42
38.41
34.88
31.51
28.83
27.02
25.85
24.75
23.15
20.74
17.58
14.01
10.43
7.03
3.74
0.24
-3.83
-8.61
-14.08
-20.02
-26.29
-32.95
-40.07
-47.64
-55.27
-62.12
-67.0
-68.67
-66.14
-58.96
-47.35
-32.2
-15.04
2.3
18.02
30.71
39.71
45.08
47.45
47.7
46.59
44.61
42.04
39.14
36.17
33.39
30.98
28.95
27.12
25.22
22.98
20.21
16.75
12.49
7.42
1.58
-4.79
-11.35
-17.72
-23.73
-29.44
-35.26
-41.69
-49.13
-57.61
-66.56
-74.86
-80.97
-83.18
-80.11
-71.11
-56.59
-38.03
-17.72
1.9
18.82
31.93
40.98
46.39
48.84
49.04
47.72
45.51
43.02
40.73
38.79
37.11
35.35
33.25
30.73
27.93
25.05
22.15
19.01
15.34
10.83
5.41
-0.69
-7.15
-13.57
-19.78
-25.79
-31.84
-38.26
-45.31
-52.97
-60.84
-68.13
-73.67
-76.15
-74.36
-67.5
-55.5
-39.17
-20.21
-0.83
16.69
30.59
40.07
45.33
47.32
47.24
46.11
44.52
42.75
40.91
39.14
37.51
36.04
34.59
32.82
30.44
27.25
23.27
18.6
13.42
7.81
1.84
-4.4
-10.72
-16.9
-22.79
-28.45
-34.21
-40.5
-47.71
-55.9
-64.6
-72.66
-78.36
-79.79
-75.4
-64.66
-48.33
-28.38
-7.45
11.87
27.7
39.19
46.42
50.05
50.88
49.64
46.92
43.28
39.34
35.71
32.89
31.13
30.37
30.19
29.89
28.78
26.31
22.29
16.94
10.79
4.48
-1.56
-7.21
-12.72
-18.56
-25.15
-32.63
-40.88
-49.47
-57.75
-64.72
-69.07
-69.29
-64.14
-53.18
-37.17
-18.12
1.31
18.6
32.17
41.55
47.21
49.87
50.11
48.25
44.59
39.77
34.84
30.98
28.97
28.81
29.69
30.27
29.42
26.53
21.8
15.91
9.62
3.42
-2.54
-8.37
-14.21
-20.07
-25.97
-32.03
-38.58
-45.99
-54.42
-63.44
-71.88
-77.95
-79.64
-75.38
-64.64
-48.26
-28.23
-7.13
12.65
29.46
42.66
52.35
58.99
63.03
64.83
64.74
63.28
61.04
58.59
56.25
53.93
51.3
48.04
43.94
38.99
33.26
26.82
19.7
12.0
3.93
-4.15
-11.88
-19.04
-25.65
-31.96
-38.33
-45.11
-52.51
-60.58
-68.93
-76.69
-82.43
-84.45
-81.17
-71.82
-56.84
-37.89
-17.37
2.26
19.2
32.53
42.19
48.57
52.17
53.41
52.69
50.6
47.85
45.16
42.98
41.38
40.03
38.39
36.09
33.03
29.41
25.48
21.44
17.27
12.88
8.15
3.1
-2.18
-7.58
-13.09
-18.95
-25.54
-33.29
-42.47
-52.87
-63.66
-73.36
-80.08
-81.95
-77.71
-67.02
-50.83
-31.07
-10.28
9.1
25.2
37.13
44.85
48.98
50.44
50.06
48.51
46.29
43.74
41.17
38.87
37.03
35.68
34.7
33.73
32.29
29.91
26.28
21.33
15.32
8.71
2.04
-4.2
-9.8
-14.82
-19.6
-24.69
-30.64
-37.85
-46.29
-55.39
-63.92
-70.17
-72.3
-68.76
-58.98
-43.66
-24.76
-4.97
12.96
27.15
36.92
42.68
45.55
46.55
46.37
45.26
43.27
40.6
37.73
35.19
33.33
32.16
31.28
30.02
27.82
24.38
19.72
14.16
8.13
2.03
-3.88
-9.53
-15.02
-20.63
-26.78
-33.83
-41.91
-50.73
-59.48
-66.9
-71.49
-71.88
-67.07
-56.9
-42.07
-24.15
-5.24
12.52
27.38
38.39
45.38
48.82
49.51
48.27
45.83
42.83
39.79
37.08
34.82
32.9
31.09
29.15
26.96
24.51
21.77
18.7
15.1
10.79
5.66
-0.18
-6.48
-12.97
-19.5
-26.17
-33.23
-40.95
-49.44
-58.48
-67.49
-75.36
-80.67
-81.81
-77.45
-67.01
-51.02
-31.22
-10.08
9.79
26.34
38.56
46.46
50.73
52.3
52.05
50.65
48.64
46.43
44.32
42.45
40.76
39.11
37.4
35.52
33.39
30.83
27.52
23.15
17.64
11.21
4.35
-2.33
-8.44
-14.01
-19.4
-25.25
-31.99
-39.78
-48.38
-57.11
-65.02
-70.88
-73.36
-71.24
-63.78
-51.1
-34.38
-15.57
2.97
19.27
32.1
41.2
47.03
50.34
51.85
52.01
51.16
49.56
47.53
45.34
43.13
40.86
38.32
35.35
31.89
28.07
24.06
19.94
15.66
11.01
5.9
0.43
-5.11
-10.45
-15.47
-20.48
-26.07
-32.83
-41.01
-50.34
-59.9
-68.35
-74.15
-75.87
-72.49
-63.71
-50.1
-33.18
-15.01
2.33
17.2
28.8
37.12
42.62
45.84
47.17
46.76
44.77
41.56
37.71
33.96
30.93
28.85
27.59
26.65
25.43
23.45
20.46
16.55
11.95
7.03
2.01
-3.0
-8.01
-13.17
-18.66
-24.67
-31.32
-38.56
-46.06
-53.04
-58.32
-60.56
-58.6
-51.93
-40.94
-26.84
-11.38
3.65
16.86
27.42
35.02
39.76
41.88
41.77
39.86
36.69
32.89
29.08
25.79
23.37
21.87
21.02
20.28
19.08
16.93
13.63
9.29
4.24
-1.13
-6.51
-11.78
-17.01
-22.42
-28.34
-34.99
-42.46
-50.45
-58.28
-65.03
-69.6
-71.03
-68.59
-62.02
-51.54
-38.02
-22.74
-7.3
6.79
18.41
27.05
32.76
35.96
37.14
36.7
35.0
32.44
29.55
26.93
25.01
23.84
23.15
22.41
21.14
19.08
16.26
12.89
9.22
5.35
1.22
-3.25
-8.13
-13.4
-19.07
-25.29
-32.28
-40.2
-48.92
-57.69
-65.16
-69.55
-69.3
-63.5
-52.27
-36.8
-18.9
-0.59
16.43
30.93
42.23
50.06
54.5
55.95
55.04
52.61
49.52
46.52
44.04
42.2
40.82
39.54
37.97
35.82
32.91
29.24
24.91
20.07
14.89
9.53
4.1
-1.35
-6.88
-12.63
-18.78
-25.58
-33.19
-41.57
-50.39
-58.87
-65.84
-69.92
-69.86
-64.97
-55.43
-42.21
-26.81
-10.85
4.37
17.91
29.11
37.5
42.71
44.7
43.86
41.04
37.41
34.05
31.66
30.43
30.08
30.04
29.7
28.59
26.52
23.48
19.61
15.05
9.9
4.3
-1.53
-7.2
-12.31
-16.67
-20.53
-24.58
-29.66
-36.24
-44.01
-51.87
-58.16
-61.26
-60.06
-54.18
-43.99
-30.47
-14.97
0.92
15.61
27.77
36.57
41.84
43.91
43.54
41.5
38.57
35.36
32.38
30.02
28.4
27.39
26.58
25.44
23.55
20.7
16.95
12.55
7.83
3.01
-1.74
-6.43
-11.16
-16.13
-21.6
-27.74
-34.47
-41.3
-47.49
-52.08
-54.15
-53.04
-48.45
-40.45
-29.5
-16.49
-2.53
11.07
23.04
32.4
38.65
41.75
42.08
40.34
37.32
33.8
30.52
27.98
26.36
25.39
24.5
23.04
20.53
16.87
12.36
7.4
2.42
-2.44
-7.22
-12.04
-17.04
-22.19
-27.55
-33.26
-39.53
-46.45
-53.6
-59.98
-64.11
-64.54
-60.32
-51.5
-39.1
-24.74
-10.17
3.3
14.92
24.46
31.92
37.34
40.7
42.06
41.61
39.72
36.94
33.84
30.91
28.46
26.57
25.01
23.37
21.24
18.27
14.42
9.91
5.12
0.41
-4.04
-8.32
-12.69
-17.41
-22.71
-28.64
-35.14
-42.01
-48.86
-54.94
-59.18
-60.31
-57.25
-49.53
-37.57
-22.79
-7.15
7.38
19.36
28.28
34.32
38.03
39.91
40.21
39.04
36.6
33.35
29.94
27.0
24.83
23.25
21.8
19.93
17.39
14.18
10.47
6.44
2.13
-2.47
-7.34
-12.33
-17.18
-21.7
-25.95
-30.31
-35.38
-41.69
-49.29
-57.5
-64.92
-69.7
-70.12
-65.13
-54.73
-40.02
-22.84
-5.27
10.85
24.28
34.39
41.06
44.5
45.13
43.52
40.38
36.43
32.38
28.76
25.84
23.6
21.78
19.99
17.74
14.7
10.73
6.04
1.07
-3.67
-7.86
-11.54
-15.11
-19.21
-24.38
-30.84
-38.38
-46.41
-54.06
-60.12
-63.22
-61.91
-55.15
-42.79
-25.79
-6.16
13.7
31.66
46.43
57.56
65.18
69.55
70.89
69.4
65.64
60.53
55.35
51.19
48.55
47.25
46.55
45.55
43.62
40.56
36.47
31.68
26.43
20.82
14.9
8.64
2.0
-5.16
-13.04
-21.79
-31.27
-40.83
-49.18
-54.65
-55.65
-51.22
-41.42
-27.38
-10.96
5.78
21.07
33.64
42.88
48.54
50.64
49.38
45.26
39.11
32.17
25.8
21.05
18.32
17.17
16.57
15.35
12.79
8.82
4.01
-0.83
-5.1
-8.65
-11.78
-14.93
-18.56
-22.92
-28.17
-34.39
-41.55
-49.33
-56.92
-63.05
-66.13
-64.8
-58.47
-47.6
-33.67
-18.71
-4.61
7.33
16.62
23.32
27.68
29.86
29.89
27.83
24.08
19.53
15.31
12.46
11.51
12.13
13.35
14.0
13.18
10.72
7.1
3.16
-0.43
-3.45
-6.22
-9.27
-13.05
-17.76
-23.42
-29.98
-37.29
-44.97
-52.11
-57.27
-58.79
-55.42
-46.85
-33.91
-18.34
-2.2
12.75
25.35
35.02
41.68
45.4
46.34
44.83
41.41
36.83
31.97
27.71
24.6
22.77
21.9
21.25
20.02
17.6
13.81
8.96
3.74
-1.21
-5.58
-9.48
-13.45
-18.13
-24.03
-31.36
-40.07
-49.8
-59.89
-69.23
-76.19
-78.91
-75.8
-66.32
-51.26
-32.72
-13.38
4.2
18.26
27.95
33.06
33.72
30.11
22.53
11.56
-1.87
-16.61
-31.47
-45.57
-58.63
-70.88
-83.12
-96.32
-111.2
-127.85
-145.61
-163.29
-179.6
-193.72
-205.44
-215.09
-223.05
-229.48
-234.14
-236.5
-235.99
-232.08
-224.42
-212.89
-197.72
-179.64
-160.03
-140.62
-122.96
-108.01
-95.8
-85.67
-76.65
-67.97
-59.25
-50.44
-41.58
-32.62
-23.51
-14.22
-4.97
3.86
11.76
18.22
22.89
25.53
25.94
23.93
19.43
12.61
4.1
-5.16
-14.15
-22.27
-29.53
-36.46
-43.49
-50.28
-55.4
-56.66
-52.18
-41.54
-26.42
-10.22
3.25
11.31
13.44
11.16
7.18
3.99
2.96
4.15
6.69
9.47
11.52
12.17
11.05
8.1
3.73
-1.09
-4.98
-6.66
-5.66
-2.84
-0.41
-1.21
-7.8
-21.45
-41.71
-66.43
-92.33
-115.73
-133.44
-143.39
-145.06
-139.45
-128.68
-115.35
-101.81
-89.74
-79.89
-72.27
-66.38
-61.52
-57.05
-52.42
-47.26
-41.42
-35.07
-28.59
-22.47
-17.11
-12.68
-9.03
-5.82
-2.67
0.71
4.38
8.21
11.98
15.48
18.62
21.5
24.3
27.25
30.48
34.06
37.98
42.2
46.67
51.36
56.24
61.25
66.26
71.14
