76.62
80.65
83.12
82.87
79.04
71.36
60.13
46.21
30.83
15.29
0.59
-12.76
-24.88
-36.33
-47.86
-60.12
-73.29
-86.73
-98.85
-107.36
-109.86
-104.73
-91.77
-72.43
-49.32
-25.21
-2.13
19.01
38.15
55.26
69.7
80.11
85.01
83.66
76.72
66.19
54.67
44.45
36.76
31.6
28.03
24.77
20.64
14.91
7.35
-1.79
-11.93
-22.38
-32.61
-42.37
-51.69
-60.68
-69.39
-77.87
-86.33
-95.3
-105.55
-117.6
-131.02
-144.07
-153.85
-157.07
-151.15
-135.06
-109.35
-75.88
-37.12
4.33
45.83
84.68
118.22
144.17
161.16
169.18
169.62
164.7
156.8
147.6
137.94
127.82
116.91
104.82
91.28
76.2
59.65
42.01
23.94
6.48
-9.33
-22.77
-33.92
-43.66
-53.5
-65.07
-79.7
-98.18
-120.61
-146.27
-173.47
-199.4
-220.28
-232.06
-231.52
-217.47
-191.39
-157.2
-120.12
-85.38
-57.44
-40.01
-36.5
-49.8
-81.18
-128.45
-184.81
-239.66
-281.39
-301.33
-296.58
-270.66
-231.3
-187.22
-145.4
-110.15
-84.03
-68.94
-66.31
-76.05
-95.39
-118.69
-138.99
-150.58
-151.01
-141.72
-126.72
-110.43
-95.89
-84.14
-74.77
-67.08
-60.86
-56.47
-54.4
-54.76
-57.08
-60.64
-64.67
-68.76
-72.76
-76.72
-80.68
-84.59
-88.29
-91.54
-94.18
-96.18
-97.68
-98.93
-100.18
-101.55
-102.91
-103.94
-104.24
-103.43
-101.31
-97.91
-93.5
-88.43
-83.03
-77.53
-71.96
-66.24
-60.28
-54.01
-47.47
-40.83
-34.3
-28.03
-22.07
-16.28
-10.41
-4.17
2.65
10.12
18.09
26.31
34.52
42.61
50.67
59.0
68.0
77.95
88.85
100.39
112.04
123.23
133.67
143.38
152.7
162.08
171.76
181.65
191.35
200.44
208.45
214.98
219.53
221.54
220.63
216.94
211.22
204.57
197.7
190.36
181.21
168.66
152.06
132.78
114.19
100.59
95.54
100.44
114.19
133.88
156.01
177.44
195.8
209.35
216.96
218.19
213.56
204.54
192.96
180.18
166.31
150.27
130.47
106.04
77.42
46.34
15.17
-14.01
-39.66
-60.84
-76.94
-87.74
-93.62
-95.84
-96.44
-97.56
-100.7
-106.01
-112.34
-117.67
-120.05
-118.24
-112.13
-102.72
-91.73
-81.11
-72.5
-66.87
-64.48
-64.95
-67.76
-72.56
-79.35
-88.27
-99.34
-112.14
-125.78
-139.16
-151.33
-161.95
-171.37
-180.33
-189.31
-197.95
-204.7
-207.11
-202.7
-189.77
-168.04
-138.68
-103.81
-65.98
-27.62
9.32
43.59
74.78
103.4
130.56
157.47
184.7
211.69
236.73
257.49
271.97
279.2
279.65
274.98
267.46
259.36
252.41
247.59
245.08
244.49
245.1
246.28
247.57
248.68
249.13
248.17
244.76
238.06
227.84
214.74
199.95
184.49
168.47
150.96
130.48
106.17
78.75
50.89
26.61
9.93
3.57
8.04
21.77
41.69
64.41
86.95
107.27
124.18
136.93
144.98
147.82
145.28
137.77
126.59
113.62
100.89
89.8
80.73
72.99
65.32
56.64
46.55
35.54
24.64
14.86
6.7
-0.12
-6.5
-13.6
-22.53
-33.92
-47.66
-62.63
-76.72
-87.13
-91.15
-87.0
-74.6
-55.66
-33.07
-9.99
11.12
28.88
42.93
53.31
60.08
63.04
62.04
57.42
50.27
42.3
35.27
30.47
28.07
27.27
26.6
24.78
21.19
16.1
10.41
5.04
0.52
-3.31
-7.12
-11.79
-18.12
-26.6
-37.33
-49.89
-63.17
-75.33
-84.03
-86.92
-82.41
-70.22
-51.54
-28.75
-4.57
18.58
39.05
55.84
68.42
76.42
79.69
78.5
73.73
66.84
59.54
53.27
48.75
45.82
43.59
40.99
37.16
31.89
25.55
18.9
12.59
6.94
1.71
-3.75
-10.31
-18.7
-29.34
-42.07
-56.0
-69.45
-80.14
-85.64
-84.07
-74.75
-58.5
-37.42
-14.24
8.46
28.73
45.45
58.12
66.51
70.53
70.29
66.3
59.63
51.7
44.02
37.68
33.04
29.75
26.92
23.6
19.13
13.34
6.55
-0.68
-7.76
-14.33
-20.39
-26.23
-32.46
-39.78
-48.86
-59.98
-72.69
-85.5
-96.03
-101.53
-99.71
-89.61
-72.04
-49.36
-24.71
-1.04
19.6
36.27
48.82
57.46
62.38
63.77
61.99
57.8
52.34
46.83
42.2
38.83
36.42
34.25
31.51
27.6
22.4
16.11
9.22
2.15
-4.81
-11.57
-18.22
-24.91
-31.86
-39.42
-48.04
-58.15
-69.82
-82.37
-94.14
-102.67
-105.31
-100.17
-86.84
-66.61
-42.12
-16.44
7.73
28.56
45.15
57.27
65.04
68.78
69.01
66.52
62.32
57.41
52.58
48.23
44.36
40.74
37.11
33.24
28.99
24.27
19.04
13.27
7.0
0.34
-6.52
-13.4
-20.17
-26.75
-33.17
-39.67
-46.7
-54.89
-64.71
-76.03
-87.73
-97.65
-103.01
-101.36
-91.48
-73.97
-51.07
-25.99
-1.82
19.14
35.73
47.66
55.21
58.85
59.23
57.1
53.35
48.89
44.48
40.59
37.37
34.73
32.45
30.27
27.95
25.25
22.02
18.11
13.45
7.98
1.76
-5.09
-12.32
-19.56
-26.51
-32.97
-39.07
-45.26
-52.2
-60.53
-70.48
-81.5
-92.1
-100.04
-102.84
-98.62
-86.72
-68.05
-44.91
-20.22
3.2
23.26
38.84
49.61
55.77
57.8
56.39
52.51
47.35
42.1
37.71
34.64
32.77
31.53
30.27
28.5
26.09
23.2
20.05
16.74
13.09
8.74
3.36
-3.13
-10.48
-18.14
-25.47
-32.06
-37.85
-43.2
-48.84
-55.56
-63.98
-74.09
-84.97
-94.74
-100.95
-101.22
-94.1
-79.61
-59.32
-35.89
-12.28
9.01
26.39
39.2
47.47
51.65
52.44
50.71
47.42
43.52
39.8
36.74
34.42
32.67
31.17
29.56
27.61
25.16
22.19
18.65
14.54
9.81
4.44
-1.56
-8.07
-14.79
-21.38
-27.55
-33.2
-38.59
-44.3
-51.11
-59.62
-69.81
-80.69
-90.25
-95.93
-95.37
-87.32
-72.16
-51.87
-29.39
-7.7
10.97
25.48
35.65
41.83
44.54
44.22
41.43
36.9
31.59
26.54
22.53
19.93
18.55
17.85
17.11
15.7
13.25
9.67
5.1
-0.16
-5.76
-11.41
-16.89
-22.17
-27.38
-32.8
-38.83
-45.91
-54.41
-64.36
-75.17
-85.44
-93.09
-95.76
-91.62
-80.1
-62.17
-40.15
-17.02
4.47
22.48
36.21
45.69
51.38
53.79
53.42
50.83
46.71
41.9
37.24
33.32
30.38
28.26
26.5
24.54
21.91
18.3
13.61
7.95
1.5
-5.47
-12.65
-19.82
-26.79
-33.52
-40.08
-46.74
-53.91
-62.19
-72.08
-83.6
-95.93
-107.14
-114.58
-115.59
-108.47
-93.18
-71.5
-46.4
-21.07
2.0
21.39
36.68
48.0
55.59
59.76
60.88
59.57
56.69
53.13
49.61
46.53
43.92
41.59
39.27
36.64
33.49
29.61
24.88
19.28
12.92
6.02
-1.14
-8.35
-15.48
-22.51
-29.5
-36.58
-43.99
-52.09
-61.3
-71.89
-83.57
-95.13
-104.45
-108.89
-106.23
-95.49
-77.39
-54.2
-28.95
-4.46
17.27
35.26
49.21
59.13
65.15
67.5
66.79
63.97
60.24
56.65
53.82
51.77
50.14
48.46
46.39
43.88
41.06
38.05
34.79
30.97
26.19
20.1
12.68
4.25
-4.57
-13.15
-21.05
-28.2
-34.98
-42.09
-50.39
-60.55
-72.74
-86.24
-99.3
-109.36
-113.69
-110.27
-98.47
-79.38
-55.43
-29.64
-4.69
17.58
36.2
50.89
61.55
68.26
71.26
71.17
69.0
65.92
62.99
60.75
59.13
57.61
55.59
52.7
49.02
44.93
40.91
37.21
33.63
29.7
24.81
18.56
10.95
2.44
-6.28
-14.52
-21.88
-28.4
-34.57
-41.16
-49.06
-58.93
-70.86
-84.03
-96.64
-106.16
-110.02
-106.39
-94.82
-76.51
-53.79
-29.44
-5.89
15.21
33.07
47.35
57.92
64.75
67.96
68.04
65.89
62.67
59.49
57.08
55.62
54.77
53.9
52.42
50.12
47.1
43.71
40.21
36.58
32.43
27.23
20.55
12.37
3.18
-6.22
-15.0
-22.63
-29.06
-34.74
-40.42
-46.9
-54.94
-64.88
-76.52
-88.83
-99.96
-107.48
-109.06
-103.13
-89.54
-69.67
-46.0
-21.37
1.78
21.87
38.12
50.34
58.55
62.98
64.05
62.57
59.64
56.47
53.94
52.38
51.56
50.86
49.68
47.68
44.94
41.77
38.45
35.02
31.19
26.46
20.42
12.99
4.52
-4.33
-12.81
-20.43
-27.08
-33.13
-39.2
-46.09
-54.49
-64.72
-76.49
-88.6
-99.08
-105.49
-105.67
-98.43
-84.06
-64.17
-41.25
-17.83
4.07
23.19
38.89
50.86
58.99
63.34
64.35
62.85
59.94
56.79
54.2
52.45
51.33
50.28
48.8
46.59
43.66
40.19
36.38
32.26
27.65
22.26
15.87
8.49
0.4
-7.93
-15.99
-23.45
-30.25
-36.63
-43.07
-50.23
-58.75
-68.97
-80.61
-92.49
-102.55
-108.31
-107.59
-99.35
-84.1
-63.71
-40.78
-17.83
3.34
21.74
36.96
48.83
57.18
61.97
63.5
62.54
60.21
57.66
55.62
54.25
53.15
51.63
49.2
45.78
41.77
37.77
34.21
31.09
27.97
24.11
18.93
12.21
4.25
-4.28
-12.65
-20.33
-27.15
-33.31
-39.31
-45.78
-53.36
-62.5
-73.17
-84.65
-95.41
-103.31
-106.15
-102.36
-91.55
-74.65
-53.71
-31.12
-9.05
10.92
27.88
41.38
51.2
57.32
59.97
59.78
57.7
54.83
52.06
49.88
48.27
46.84
45.16
42.95
40.22
37.24
34.25
31.33
28.23
24.53
19.73
13.59
6.19
-2.01
-10.34
-18.19
-25.23
-31.56
-37.65
-44.3
-52.3
-62.1
-73.51
-85.42
-95.91
-102.59
-103.35
-97.03
-83.79
-65.14
-43.38
-20.9
0.39
19.29
35.22
47.85
56.91
62.29
64.17
63.24
60.61
57.49
54.83
52.98
51.72
50.49
48.74
46.2
43.0
39.49
36.02
32.68
29.24
25.17
19.94
13.23
5.14
-3.82
-12.9
-21.44
-29.06
-35.82
-42.17
-48.86
-56.64
-66.07
-77.13
-88.98
-99.9
-107.56
-109.62
-104.54
-92.16
-73.83
-51.9
-28.99
-7.2
12.28
28.99
42.82
53.68
61.32
65.59
66.72
65.45
62.92
60.35
58.56
57.76
57.53
57.12
55.78
53.13
49.29
44.71
39.99
35.53
31.3
26.91
21.73
15.32
7.59
-1.03
-9.82
-18.07
-25.37
-31.85
-38.03
-44.69
-52.52
-61.92
-72.86
-84.66
-96.01
-105.03
-109.6
-107.96
-99.28
-84.01
-63.84
-41.16
-18.3
2.96
21.66
37.44
50.23
59.9
66.35
69.58
69.91
68.11
65.17
62.09
59.51
57.65
56.24
54.81
52.88
50.25
47.04
43.59
40.24
37.05
33.75
29.77
24.53
17.73
9.53
0.55
-8.42
-16.66
-23.83
-30.09
-35.93
-42.04
-49.07
-57.52
-67.59
-79.04
-90.97
-101.76
-109.28
-111.33
-106.43
-94.31
-76.15
-54.18
-31.04
-9.01
10.47
26.72
39.66
49.32
55.79
59.2
59.93
58.74
56.62
54.53
53.07
52.38
52.06
51.56
50.36
48.29
45.5
42.36
39.2
36.07
32.68
28.51
23.08
16.19
8.03
-0.8
-9.57
-17.64
-24.77
-31.15
-37.39
-44.27
-52.54
-62.55
-74.01
-85.88
-96.33
-103.15
-104.34
-98.66
-86.14
-68.05
-46.56
-24.03
-2.51
16.62
32.63
45.21
54.23
59.7
61.89
61.42
59.28
56.59
54.24
52.62
51.56
50.53
48.96
46.58
43.51
40.13
36.88
33.89
30.96
27.62
23.29
17.67
10.77
3.0
-5.03
-12.73
-19.73
-26.02
-31.93
-38.1
-45.21
-53.85
-64.14
-75.51
-86.55
-95.28
-99.53
-97.65
-89.07
-74.45
-55.54
-34.59
-13.81
5.18
21.34
34.22
43.71
49.89
53.03
53.64
52.45
50.28
47.94
45.94
44.46
43.37
42.33
41.0
39.19
36.85
34.03
30.77
26.99
22.49
17.09
10.74
3.66
-3.78
-11.11
-17.98
-24.34
-30.45
-36.88
-44.31
-53.2
-63.36
-73.82
-82.73
-87.87
-87.29
-80.08
-66.75
-49.03
-29.37
-10.07
7.2
21.6
32.88
41.12
46.44
49.03
49.26
47.72
45.17
42.35
39.8
37.77
36.24
34.99
33.71
32.06
29.75
26.59
22.53
17.65
12.11
6.1
-0.22
-6.73
-13.26
-19.68
-25.9
-32.04
-38.53
-46.03
-55.16
-66.02
-77.78
-88.52
-95.72
-97.0
-90.99
-77.99
-59.75
-38.94
-18.19
0.61
16.55
29.51
39.68
47.16
51.98
54.17
54.04
52.25
49.65
47.02
44.82
43.12
41.68
40.2
38.45
36.34
33.85
30.91
27.34
22.92
17.53
11.18
4.15
-3.19
-10.48
-17.52
-24.38
-31.42
-39.21
-48.28
-58.66
-69.63
-79.55
-86.21
-87.47
-82.08
-70.18
-53.3
-33.85
-14.28
3.55
18.66
30.84
40.26
47.16
51.72
54.13
54.67
53.78
52.0
49.83
47.64
45.63
43.81
42.06
40.23
38.13
35.61
32.49
28.65
23.99
18.51
12.27
5.46
-1.62
-8.68
-15.49
-22.04
-28.59
-35.64
-43.77
-53.24
-63.65
-73.74
-81.57
-85.02
-82.49
-73.53
-59.05
-41.02
-21.81
-3.54
12.39
25.33
35.23
42.23
46.5
48.22
47.68
45.39
42.11
38.68
35.85
33.99
32.98
32.34
31.4
29.6
26.69
22.75
18.08
13.06
7.95
2.88
-2.2
-7.41
-12.94
-19.01
-25.87
-33.76
-42.73
-52.45
-61.97
-69.81
-74.15
-73.43
-66.85
-54.76
-38.64
-20.65
-2.97
12.76
25.7
35.68
42.88
47.47
49.56
49.25
46.93
43.27
39.23
35.7
33.24
31.87
31.07
30.09
28.17
24.91
20.34
14.78
8.76
2.71
-3.1
-8.69
-14.25
-20.05
-26.39
-33.56
-41.78
-51.08
-61.18
-71.18
-79.61
-84.63
-84.58
-78.55
-66.77
-50.67
-32.34
-13.95
2.91
17.44
29.46
39.08
46.31
51.06
53.28
53.25
51.55
49.0
46.36
44.08
42.25
40.7
39.23
37.78
36.4
35.17
34.03
32.72
30.87
28.17
24.51
20.01
14.97
9.73
4.49
-0.76
-6.29
-12.6
-20.29
-29.82
-41.2
-53.67
-65.54
-74.55
-78.47
-75.8
-66.41
-51.56
-33.44
-14.45
3.49
19.23
32.33
42.7
50.3
55.13
57.31
57.31
55.89
54.0
52.41
51.44
50.94
50.41
49.31
47.36
44.62
41.42
38.06
34.61
30.83
26.29
20.62
13.78
6.15
-1.61
-8.85
-15.17
-20.63
-25.68
-31.01
-37.32
-45.13
-54.63
-65.48
-76.75
-86.83
-93.72
-95.49
-90.92
-80.01
-64.06
-45.24
-25.9
-7.84
8.01
21.51
32.87
42.2
49.34
54.0
56.05
55.82
54.15
52.1
50.55
49.88
49.87
49.85
49.08
47.12
44.0
40.17
36.19
32.47
28.99
25.34
20.95
15.41
8.71
1.26
-6.27
-13.24
-19.31
-24.59
-29.55
-34.75
-40.75
-47.89
-56.3
-65.82
-75.87
-85.37
-92.74
-96.2
-94.25
-86.25
-72.76
-55.44
-36.48
-17.98
-1.41
12.56
23.82
32.45
38.54
42.12
43.42
42.99
41.69
40.42
39.82
40.01
40.62
40.98
40.55
39.15
36.99
34.53
32.19
30.05
27.83
24.99
21.04
15.77
9.4
2.46
-4.36
-10.58
-16.04
-20.96
-25.82
-31.22
-37.7
-45.52
-54.47
-63.73
-71.89
-77.19
-77.99
-73.34
-63.31
-49.04
-32.35
-15.18
0.9
14.94
26.49
35.38
41.52
44.87
45.6
44.24
41.71
39.02
37.04
36.08
35.98
36.12
35.85
34.75
32.82
30.33
27.61
24.8
21.77
18.22
13.78
8.3
1.95
-4.86
-11.62
-17.92
-23.6
-28.81
-33.92
-39.55
-46.31
-54.66
-64.55
-75.2
-85.02
-91.89
-93.79
-89.41
-78.75
-63.12
-44.67
-25.71
-8.03
7.41
20.33
30.77
38.76
44.23
47.18
47.88
47.0
45.44
44.06
43.34
43.31
43.56
43.55
42.82
41.19
38.78
35.88
32.84
29.82
26.72
23.16
18.69
13.04
6.29
-1.03
-8.23
-14.67
-20.16
-24.97
-29.74
-35.22
-41.97
-50.23
-59.82
-70.04
-79.61
-86.83
-89.88
-87.4
-78.97
-65.38
-48.38
-30.09
-12.44
3.35
16.76
27.77
36.46
42.86
46.99
48.95
49.15
48.28
47.13
46.3
46.04
46.19
46.24
45.63
44.0
41.37
38.08
34.65
31.49
28.63
25.74
22.22
17.56
11.62
4.72
-2.5
-9.29
-15.19
-20.17
-24.68
-29.42
-35.08
-42.18
-50.8
-60.62
-70.73
-79.73
-85.83
-87.35
-83.22
-73.36
-58.87
-41.67
-23.95
-7.53
6.49
17.73
26.23
32.16
35.69
37.03
36.59
35.06
33.24
31.83
31.2
31.3
31.75
32.12
32.09
31.56
30.55
29.07
27.01
24.16
20.32
15.5
9.99
4.19
-1.43
-6.65
-11.48
-16.22
-21.31
-27.24
-34.41
-42.91
-52.41
-61.88
-69.72
-74.06
-73.29
-66.74
-54.91
-39.44
-22.52
-6.27
7.78
18.88
26.9
32.02
34.59
35.05
33.98
32.11
30.11
28.52
27.51
27.01
26.75
26.51
26.11
25.45
24.41
22.81
20.43
17.09
12.78
7.62
1.84
-4.3
-10.56
-16.78
-22.84
-28.76
-34.75
-41.27
-48.9
-57.98
-68.24
-78.53
-86.85
-90.95
-89.06
-80.56
-66.34
-48.39
-29.2
-10.93
5.03
18.15
28.4
35.97
41.02
43.81
44.71
44.33
43.32
42.27
41.41
40.67
39.81
38.62
37.05
35.19
33.17
31.02
28.62
25.68
21.95
17.27
11.69
5.45
-1.08
-7.51
-13.6
-19.29
-24.82
-30.65
-37.36
-45.42
-54.95
-65.32
-75.11
-82.33
-84.88
-81.37
-71.6
-56.67
-38.67
-19.97
-2.51
12.53
24.74
34.21
41.15
45.8
48.36
49.15
48.7
47.66
46.65
46.02
45.76
45.49
44.75
43.28
41.06
38.39
35.58
32.73
29.67
26.01
21.38
15.73
9.34
2.69
-3.72
-9.66
-15.21
-20.7
-26.64
-33.49
-41.6
-50.95
-60.96
-70.35
-77.29
-79.85
-76.61
-67.31
-52.94
-35.54
-17.5
-0.8
13.39
24.71
33.27
39.4
43.32
45.22
45.41
44.37
42.69
40.91
39.42
38.3
37.47
36.69
35.71
34.33
32.39
29.8
26.53
22.62
18.18
13.3
8.12
2.71
-2.84
-8.45
-14.13
-20.03
-26.49
-33.94
-42.58
-52.12
-61.48
-68.87
-72.31
-70.24
-62.2
-49.1
-32.88
-15.9
-0.18
13.11
23.64
31.53
37.03
40.26
41.3
40.37
38.04
35.17
32.61
30.99
30.42
30.6
30.93
30.77
29.58
27.1
23.29
18.38
12.74
6.8
0.89
-4.8
-10.29
-15.73
-21.35
-27.4
-34.14
-41.77
-50.34
-59.46
-68.14
-74.82
-77.69
-75.26
-67.03
-53.74
-37.21
-19.74
-3.34
10.69
21.98
30.67
37.09
41.45
43.88
44.49
43.64
41.87
39.84
38.09
36.91
36.27
35.85
35.23
33.96
31.76
28.48
24.25
19.31
13.96
8.43
2.83
-2.9
-8.87
-15.18
-21.94
-29.27
-37.31
-46.18
-55.75
-65.34
-73.67
-79.0
-79.62
-74.51
-63.76
-48.64
-31.23
-13.7
2.28
15.87
26.92
35.61
42.13
46.51
48.71
48.88
47.54
45.45
43.44
42.03
41.32
41.0
40.56
39.5
37.54
34.64
30.88
26.41
21.38
15.92
10.16
4.3
-1.44
-6.93
-12.19
-17.45
-23.21
-30.05
-38.34
-47.92
-57.82
-66.32
-71.42
-71.41
-65.58
-54.46
-39.69
-23.42
-7.65
6.36
18.12
27.68
35.25
40.88
44.49
46.0
45.63
43.91
41.56
39.28
37.49
36.28
35.45
34.64
33.51
31.76
29.26
25.92
21.84
17.2
12.23
7.11
1.92
-3.33
-8.73
-14.43
-20.68
-27.79
-35.96
-45.06
-54.33
-62.36
-67.4
-67.84
-62.88
-52.84
-39.05
-23.45
-7.91
6.16
17.98
27.24
33.9
38.03
39.78
39.49
37.71
35.09
32.34
30.05
28.54
27.87
27.74
27.65
27.0
25.3
22.33
18.24
13.42
8.38
3.45
-1.3
-6.05
-11.1
-16.74
-23.17
-30.52
-38.84
-47.92
-57.19
-65.47
-71.15
-72.6
-68.73
-59.52
-46.06
-30.25
-14.15
0.66
13.36
23.75
31.99
38.2
42.41
44.63
45.02
43.99
42.16
40.21
38.61
37.56
36.92
36.36
35.38
33.56
30.59
26.43
21.24
15.36
9.2
3.1
-2.73
-8.34
-13.87
-19.59
-25.8
-32.81
-40.83
-49.85
-59.38
-68.34
-75.1
-77.88
-75.34
-67.13
-54.08
-37.96
-20.88
-4.63
9.74
21.85
31.81
39.73
45.59
49.34
51.03
51.05
50.04
48.68
47.45
46.54
45.75
44.74
43.27
41.25
38.74
35.83
32.52
28.66
24.11
18.77
12.73
6.28
-0.25
-6.62
-12.75
-18.82
-25.23
-32.46
-40.82
-50.2
-59.8
-68.12
-73.28
-73.58
-68.18
-57.42
-42.76
-26.28
-9.95
4.86
17.59
28.21
36.85
43.54
48.19
50.79
51.59
51.12
50.06
48.89
47.83
46.76
45.46
43.81
41.81
39.56
37.07
34.19
30.67
26.31
21.1
15.27
9.2
3.23
-2.41
-7.69
-12.79
-18.02
-23.8
-30.56
-38.54
-47.48
-56.47
-63.91
-67.97
-67.13
-60.79
-49.49
-34.84
-18.89
-3.56
9.83
20.72
29.1
35.22
39.31
41.56
42.15
41.38
39.7
37.62
35.58
33.87
32.54
31.39
30.05
28.17
25.53
22.1
18.08
13.73
9.28
4.82
0.3
-4.36
-9.25
-14.38
-19.79
-25.65
-32.24
-39.81
-48.14
-56.34
-62.85
-65.9
-64.1
-57.02
-45.42
-31.02
-15.83
-1.61
10.6
20.43
27.93
33.27
36.59
38.0
37.74
36.26
34.11
31.86
29.92
28.46
27.42
26.6
25.78
24.74
23.24
21.04
17.96
13.93
9.12
3.81
-1.58
-6.77
-11.68
-16.48
-21.59
-27.46
-34.48
-42.77
-51.92
-60.99
-68.46
-72.63
-72.07
-66.2
-55.49
-41.38
-25.77
-10.46
3.33
15.08
24.69
32.26
37.81
41.32
42.92
42.95
42.04
40.78
39.56
38.46
37.32
35.91
34.17
32.16
30.03
27.81
25.33
22.29
18.4
13.57
7.99
2.06
-3.82
-9.34
-14.44
-19.24
-24.08
-29.46
-35.89
-43.6
-52.3
-60.95
-67.85
-71.09
-69.24
-61.9
-49.87
-34.91
-19.07
-4.13
8.88
19.6
28.13
34.66
39.33
42.22
43.5
43.46
42.55
41.17
39.64
38.05
36.41
34.65
32.73
30.65
28.41
25.96
23.11
19.7
15.6
10.85
5.7
0.51
-4.39
-8.82
-12.89
-16.96
-21.54
-27.16
-34.18
-42.54
-51.61
-60.17
-66.57
-69.14
-66.72
-59.1
-47.18
-32.67
-17.61
-3.71
8.02
17.31
24.34
29.38
32.53
33.86
33.46
31.73
29.26
26.75
24.72
23.38
22.57
21.92
21.05
19.69
17.73
15.16
12.09
8.63
4.86
0.84
-3.38
-7.79
-12.39
-17.28
-22.65
-28.76
-35.81
-43.74
-51.97
-59.34
-64.24
-65.14
-61.06
-52.11
-39.38
-24.68
-9.93
3.38
14.41
22.88
28.88
32.61
34.3
34.27
32.89
30.71
28.21
25.79
23.7
22.0
20.6
19.3
17.84
15.92
13.3
9.94
5.92
1.54
-2.97
-7.44
-11.95
-16.69
-21.92
-27.81
-34.43
-41.86
-50.1
-59.11
-68.58
-77.68
-85.09
-89.18
-88.61
-82.73
-72.03
-57.94
-42.46
-27.49
-14.42
-3.91
4.0
9.55
13.15
15.14
15.86
15.6
14.65
13.25
11.58
9.74
7.7
5.46
3.02
0.47
-1.93
-3.79
-4.65
-4.24
-2.55
0.06
2.98
5.65
7.75
9.4
10.92
12.5
13.77
13.93
12.07
7.98
2.73
-1.37
-1.54
4.14
15.72
31.28
47.79
62.49
73.89
81.91
87.14
90.13
90.98
89.71
86.84
83.73
82.14
83.43
87.83
94.4
101.8
109.15
116.6
124.94
134.79
145.8
156.59
165.42
171.06
173.61
174.25
174.52
175.23
175.78
174.3
168.44
156.48
138.05
114.26
87.05
58.35
29.32
0.03
-30.26
-62.5
-97.03
-133.2
-169.35
-203.34
-233.27
-257.94
-276.99
-290.5
-298.54
-300.84
-296.98
-286.57
-269.55
-246.09
-216.35
-180.6
-139.62
-95.33
-51.08
-11.2
20.3
41.09
51.36
53.57
51.19
47.29
43.53
40.02
35.88
30.06
21.84
11.19
-1.25
-14.17
-25.75
-34.04
-37.54
-35.69
-29.12
-19.39
-8.46
1.98
10.8
17.39
21.44
22.66
20.91
16.34
9.68
2.18
-4.62
-9.42
-11.53
-11.13
-9.12
-6.74
-5.11
-4.89
-6.14
-8.41
-11.09
-13.67
-16.04
-18.56
-21.88
-26.62
-33.15
-41.4
-50.79
-60.15
-67.86
-71.85
-70.12
-61.18
-44.77
-22.27
3.43
28.77
50.74
67.89
80.84
91.85
104.0
119.98
141.34
168.13
198.85
230.91
261.23
286.97
306.16
317.98
322.59
320.67
312.97
300.13
282.8
261.97
239.1
215.76
193.12
171.37
149.61
126.31
99.9
69.3
34.34
-4.51
-46.32
-90.08
-134.64
-178.7
-220.59
-258.29
-289.73
-313.15
-327.59
-333.07
-330.48
-321.25
-306.92
-289.01
-269.02
-248.7
-229.93
-214.35
-202.65
-194.05
-186.34
-176.53
-162.17
-142.37
-118.32
-92.76
-68.88
-49.05
-34.08
-23.35
-15.52
-9.39
-4.39
-0.49
2.32
4.49
6.9
10.58
16.07
23.07
30.48
37.0
41.7
44.57
46.41
48.45
51.7
56.49
62.37
68.43
73.69
77.44
79.31
79.17
77.01
72.91
67.05
59.88
52.06
44.35
37.28
31.02
25.33
19.76
13.87
7.49
0.79
-5.9
-12.23
-18.03
-23.34
-28.35
-33.32
-38.53
-44.2
-50.4
-56.9
-63.13
-68.11
-70.69
-69.91
-65.33
-57.22
-46.52
-34.51
-22.41
-11.08
-0.98
7.7
14.88
20.39
24.1
25.99
26.28
25.49
24.24
23.08
22.3
21.8
21.27
20.28
18.55
15.99
12.78
9.17
5.45
1.75
-1.92
-5.73
-9.84
-14.41
-19.5
-25.15
-31.38
-38.02
-44.64
-50.44
-54.3
-55.06
-51.96
-44.92
-34.68
-22.51
-9.82
2.26
13.03
22.22
29.69
35.38
39.23
41.24
41.62
40.76
39.15
37.27
35.46
33.84
32.41
31.01
29.52
27.82
25.83
23.48
20.68
17.38
13.53
9.16
4.42
-0.47
-5.28
-9.92
-14.54
-19.61
-25.68
-33.1
-41.68
-50.52
-58.1
-62.68
-62.91
-58.24
-49.18
-37.09
-23.75
-10.79
0.66
10.03
17.26
22.42
25.64
26.99
26.63
24.96
22.64
20.45
19.0
18.51
18.73
19.16
19.21
18.51
16.99
14.74
11.95
8.73
5.18
1.4
-2.44
-6.2
-9.83
-13.5
-17.59
-22.52
-28.54
-35.46
-42.6
-48.86
-52.94
-53.7
-50.53
-43.5
-33.41
-21.56
-9.35
1.99
11.68
19.43
25.25
29.26
31.55
32.22
31.45
29.68
27.5
25.51
24.11
23.31
22.81
22.18
21.08
19.35
17.05
14.24
10.95
7.21
3.02
-1.5
-6.23
-11.05
-15.96
-21.14
-26.83
-33.23
-40.35
-47.81
-54.83
-60.27
-62.93
-61.87
-56.71
-47.8
-36.16
-23.12
-9.94
2.44
13.47
22.81
30.22
35.5
38.55
39.57
39.03
37.57
35.82
34.15
32.69
31.38
30.14
28.95
27.77
26.48
24.86
22.64
19.62
15.81
11.45
6.82
2.18
-2.36
-6.8
-11.31
-16.09
-21.35
-27.37
-34.27
-41.97
-49.95
-57.28
-62.65
-64.82
-62.87
-56.61
-46.62
-33.98
-20.04
-6.0
7.23
19.07
29.1
37.03
42.67
46.02
47.41
47.35
46.51
45.42
44.37
43.41
42.34
40.96
39.1
36.79
34.16
31.36
28.51
25.6
22.51
19.03
14.98
10.3
5.11
-0.35
-5.74
-10.83
-15.57
-20.13
-24.84
-30.07
-36.13
-43.07
-50.59
-57.91
-63.9
-67.24
-66.77
-61.9
-52.78
-40.4
-26.26
-11.99
1.06
12.07
20.73
27.1
31.44
34.03
35.18
35.28
34.78
34.13
33.67
33.51
33.52
33.45
33.07
32.32
31.26
30.06
28.76
27.23
25.15
22.16
18.08
12.99
7.3
1.53
-3.88
-8.79
-13.36
-18.0
-23.22
-29.34
-36.41
-44.05
-51.39
-57.32
-60.61
-60.2
-55.55
-46.83
-34.82
-20.81
-6.23
7.58
19.55
28.9
35.27
38.65
39.43
38.41
36.51
34.59
33.17
32.33
31.78
31.09
29.89
28.0
25.47
22.47
19.19
15.77
12.25
8.58
4.66
0.43
-4.11
-8.77
-13.32
-17.56
-21.41
-25.07
-29.0
-33.71
-39.57
-46.55
-53.99
-60.71
-65.23
-66.16
-62.66
-54.65
-42.84
-28.57
-13.39
1.23
14.21
24.84
32.82
38.1
40.84
41.41
40.35
38.33
36.05
34.13
32.83
32.13
31.73
31.19
30.26
28.85
27.07
25.06
22.84
20.26
17.08
13.14
8.41
3.08
-2.56
-8.2
-13.58
-18.6
-23.36
-28.14
-33.37
-39.52
-46.81
-55.07
-63.5
-70.84
-75.6
-76.51
-72.87
-64.76
-53.0
-38.85
-23.73
-8.88
4.75
16.54
26.08
33.17
37.87
40.48
41.6
41.93
42.07
42.34
42.72
42.96
42.71
41.81
40.25
38.3
36.24
34.24
32.28
30.08
27.35
23.81
19.35
14.06
8.24
2.28
-3.45
-8.74
-13.68
-18.56
-23.86
-29.96
-37.07
-44.98
-53.08
-60.37
-65.58
-67.5
-65.21
-58.44
-47.61
-33.86
-18.69
-3.67
9.89
21.12
29.53
35.02
37.78
38.32
37.39
35.92
34.71
34.17
34.27
34.58
34.56
33.8
32.23
30.08
27.71
25.43
23.33
21.28
18.95
15.97
12.06
7.21
1.68
-4.07
-9.53
-14.37
