44.32
45.61
45.3
43.65
40.84
37.18
33.11
29.09
25.45
22.37
19.87
17.85
16.1
14.38
12.45
10.16
7.44
4.34
0.95
-2.63
-6.42
-10.44
-14.69
-19.2
-23.96
-29.03
-34.5
-40.47
-46.72
-52.59
-56.86
-57.94
-54.48
-45.84
-32.6
-16.48
0.16
15.11
26.85
34.86
39.42
41.19
40.82
38.86
35.78
32.1
28.48
25.47
23.42
22.35
21.99
21.98
21.94
21.57
20.58
18.71
15.74
11.66
6.73
1.42
-3.64
-8.02
-11.68
-14.92
-18.34
-22.53
-27.88
-34.41
-41.67
-48.72
-54.24
-56.73
-54.88
-47.97
-36.32
-21.36
-5.29
9.42
20.86
28.17
31.56
32.05
30.77
28.52
25.7
22.39
18.76
15.28
12.6
11.32
11.56
12.84
14.24
14.8
13.92
11.55
8.22
4.65
1.45
-1.12
-3.3
-5.6
-8.63
-12.82
-18.27
-24.76
-31.79
-38.65
-44.29
-47.47
-46.89
-41.63
-31.67
-18.09
-2.9
11.58
23.48
31.9
36.89
39.09
39.16
37.6
34.67
30.76
26.47
22.58
19.77
18.26
17.77
17.67
17.29
16.15
14.09
11.23
7.77
4.02
0.17
-3.59
-7.15
-10.45
-13.57
-16.68
-20.08
-24.2
-29.31
-35.52
-42.42
-48.97
-53.54
-54.35
-50.02
-40.15
-25.73
-8.77
8.2
22.93
34.03
41.05
44.3
44.53
42.54
39.11
34.99
30.87
27.29
24.59
22.76
21.59
20.73
19.85
18.73
17.24
15.36
13.12
10.59
7.78
4.69
1.34
-2.25
-5.97
-9.64
-13.13
-16.49
-19.96
-23.94
-28.8
-34.59
-40.84
-46.55
-50.33
-50.87
-47.3
-39.53
-28.36
-15.31
-2.17
9.46
18.57
24.91
28.79
30.83
31.58
31.32
30.07
27.82
24.8
21.51
18.68
16.88
16.27
16.46
16.65
16.03
14.12
10.93
6.94
2.75
-1.14
-4.56
-7.6
-10.47
-13.32
-16.35
-19.79
-23.97
-29.15
-35.33
-41.94
-47.76
-51.11
-50.37
-44.65
-34.28
-20.73
-6.19
7.17
17.93
25.57
30.38
32.89
33.53
32.48
29.89
26.06
21.71
17.74
14.9
13.46
13.11
13.12
12.7
11.31
8.79
5.4
1.58
-2.17
-5.49
-8.32
-10.86
-13.52
-16.79
-21.06
-26.45
-32.68
-39.09
-44.59
-47.97
-48.15
-44.51
-37.22
-27.13
-15.64
-4.27
5.73
13.59
19.0
21.92
22.4
20.57
16.73
11.55
5.92
0.8
-3.12
-5.8
-7.68
-9.6
-12.32
-16.23
-21.2
-26.75
-32.3
-37.54
-42.52
-47.64
-53.4
-60.25
-68.42
-77.89
-88.46
-99.77
-111.26
-122.16
-131.49
-138.24
-141.75
-142.11
-140.27
-137.93
-137.06
-139.33
-145.71
-156.47
-171.36
-189.89
-211.37
-234.65
-257.78
-278.04
-292.38
-298.43
-295.4
-284.47
-268.38
-250.43
-233.27
-218.28
-205.54
-194.44
-184.42
-175.32
-167.39
-160.97
-156.08
-152.46
-149.7
-147.52
-146.02
-145.57
-146.61
-149.32
-153.48
-158.42
-163.24
-167.09
-169.38
-169.9
-168.68
-165.8
-161.2
-154.49
-145.08
-132.4
-116.2
-96.71
-74.63
-50.89
-26.43
-1.86
22.57
46.93
71.26
95.4
118.85
140.83
160.61
177.68
192.03
204.04
214.39
223.89
233.32
243.4
254.5
266.33
277.71
286.55
290.51
287.83
278.21
263.03
244.84
226.32
209.24
194.07
180.22
166.79
153.25
139.65
126.32
113.33
100.24
86.2
70.48
53.1
35.12
18.43
5.19
-3.03
-5.88
-4.28
-0.01
5.07
9.74
13.64
17.1
20.76
25.16
30.8
38.38
48.81
63.06
81.57
103.8
128.19
152.64
175.31
195.06
211.65
225.11
235.36
241.94
244.35
242.49
237.05
229.38
221.02
213.18
206.45
200.82
196.03
191.78
187.83
183.94
179.78
174.9
168.87
161.36
152.22
141.49
129.24
115.62
100.81
85.12
69.1
53.53
39.4
27.79
19.71
15.75
16.02
19.89
26.2
33.42
40.08
44.99
47.44
47.25
44.64
40.21
34.76
29.2
24.27
20.39
17.5
15.2
12.99
10.54
7.86
5.14
2.57
0.08
-2.71
-6.32
-11.22
-17.44
-24.49
-31.3
-36.4
-38.25
-35.65
-28.13
-16.13
-0.92
15.77
32.25
47.26
60.12
70.65
78.93
85.06
89.0
90.61
89.79
86.58
81.33
74.65
67.24
59.7
52.26
44.8
37.02
28.73
20.13
11.92
5.04
0.24
-2.33
-3.26
-3.57
-4.2
-5.61
-7.56
-9.48
-10.82
-11.51
-11.95
-12.59
-13.45
-13.84
-12.61
-8.81
-2.41
5.55
13.21
18.75
21.07
20.11
16.61
11.67
6.2
0.75
-4.45
-9.4
-14.08
-18.46
-22.48
-26.13
-29.39
-32.29
-34.85
-37.17
-39.36
-41.59
-43.96
-46.55
-49.38
-52.31
-55.07
-57.14
-57.86
-56.59
-52.95
-46.93
-39.02
-30.06
-21.04
-12.89
-6.38
-1.94
0.27
0.41
-0.99
-3.19
-5.38
-6.87
-7.31
-6.72
-5.46
-4.04
-2.97
-2.57
-2.99
-4.16
-5.91
-8.07
-10.56
-13.34
-16.48
-20.06
-24.11
-28.51
-32.9
-36.71
-39.29
-40.02
-38.54
-34.81
-29.15
-22.04
-14.14
-6.07
1.6
8.42
14.02
18.21
21.0
22.55
23.18
23.19
22.79
22.1
21.11
19.74
17.97
15.77
13.18
10.28
7.14
3.83
0.37
-3.23
-7.04
-11.16
-15.73
-20.83
-26.42
-32.13
-37.31
-41.11
-42.72
-41.6
-37.73
-31.59
-23.9
-15.48
-6.97
1.16
8.57
14.96
20.0
23.47
25.29
25.65
24.9
23.48
21.72
19.8
17.69
15.35
12.75
10.02
7.31
4.74
2.28
-0.25
-3.07
-6.35
-10.11
-14.25
-18.69
-23.46
-28.65
-34.26
-40.05
-45.38
-49.4
-51.25
-50.37
-46.73
-40.69
-32.91
-24.07
-14.75
-5.46
3.34
11.15
17.5
22.08
24.89
26.22
26.59
26.51
26.27
25.91
25.24
24.05
22.25
19.93
17.33
14.62
11.9
9.05
5.9
2.32
-1.64
-5.85
-10.1
-14.35
-18.68
-23.26
-28.27
-33.76
-39.63
-45.52
-50.9
-55.05
-57.23
-56.75
-53.21
-46.65
-37.58
-26.87
-15.49
-4.4
5.67
14.18
20.81
25.49
28.43
30.03
30.81
31.14
31.23
31.07
30.66
30.05
29.41
28.82
28.23
27.35
25.83
23.4
20.06
16.08
11.83
7.69
3.87
0.46
-2.66
-5.65
-8.75
-12.2
-16.14
-20.58
-25.37
-30.23
-34.77
-38.58
-41.23
-42.25
-41.27
-38.07
-32.7
-25.51
-17.15
-8.32
0.28
8.11
14.79
20.07
23.85
26.19
27.34
27.69
27.66
27.52
27.39
27.18
26.71
25.87
24.67
23.19
21.56
19.82
17.99
15.96
13.64
10.95
7.89
4.49
0.92
-2.61
-5.97
-9.1
-12.14
-15.27
-18.8
-22.9
-27.66
-32.97
-38.52
-43.85
-48.28
-51.07
-51.55
-49.35
-44.53
-37.62
-29.42
-20.87
-12.71
-5.49
0.47
5.1
8.43
10.57
11.71
12.09
11.94
11.53
11.12
10.92
11.06
11.46
11.92
12.16
11.93
11.12
9.72
7.83
5.47
2.66
-0.55
-4.03
-7.58
-11.05
-14.45
-17.95
-21.84
-26.34
-31.42
-36.79
-41.92
-46.14
-48.8
-49.38
-47.56
-43.25
-36.69
-28.37
-19.02
-9.48
-0.54
7.15
13.16
17.34
19.8
20.84
20.94
20.58
20.15
19.85
19.63
19.35
18.84
18.1
17.21
16.34
15.51
14.55
13.19
11.13
8.28
4.76
0.85
-3.16
-7.11
-10.92
-14.7
-18.55
-22.65
-27.21
-32.44
-38.33
-44.52
-50.26
-54.47
-56.2
-54.88
-50.6
-43.98
-35.9
-27.23
-18.65
-10.58
-3.27
3.06
8.28
12.38
15.45
17.72
19.45
20.8
21.83
22.52
22.8
22.71
22.36
21.86
21.28
20.55
19.57
18.22
16.5
14.44
12.16
9.67
6.93
3.88
0.43
-3.4
-7.58
-12.06
-16.85
-21.98
-27.46
-33.2
-38.88
-44.02
-48.0
-50.12
-49.91
-47.16
-42.06
-35.14
-27.14
-18.79
-10.68
-3.17
3.55
9.4
14.3
18.23
21.2
23.29
24.67
25.46
25.79
25.73
25.33
24.7
23.92
23.05
22.08
20.96
19.52
17.63
15.17
12.11
8.54
4.66
0.65
-3.24
-6.94
-10.56
-14.3
-18.48
-23.37
-29.09
-35.53
-42.32
-48.83
-54.27
-57.8
-58.67
-56.45
-51.17
-43.34
-33.9
-23.92
-14.36
-5.91
1.14
6.75
11.0
13.97
15.76
16.49
16.39
15.82
15.17
14.71
14.56
14.63
14.64
14.29
13.31
11.54
8.96
5.66
1.89
-2.07
-5.92
-9.48
-12.75
-15.92
-19.27
-23.08
-27.6
-32.87
-38.79
-45.0
-50.9
-55.61
-58.24
-58.08
-54.86
-48.92
-41.08
-32.41
-23.84
-16.01
-9.22
-3.56
0.91
4.28
6.73
8.56
10.13
11.71
13.3
14.7
15.6
15.81
15.41
14.61
13.73
12.93
12.18
11.28
9.97
7.99
5.26
1.78
-2.29
-6.7
-11.13
-15.37
-19.44
-23.6
-28.24
-33.64
-39.68
-45.83
-51.16
-54.66
-55.51
-53.28
-47.97
-39.95
-29.91
-18.66
-7.13
3.84
13.58
21.69
28.02
32.67
35.81
37.64
38.37
38.22
37.52
36.57
35.7
35.06
34.64
34.24
33.59
32.44
30.66
28.26
25.33
22.01
18.43
14.66
10.79
6.83
2.8
-1.37
-5.87
-10.98
-16.93
-23.78
-31.32
-38.95
-45.77
-50.73
-52.81
-51.31
-46.05
-37.46
-26.51
-14.43
-2.51
8.2
17.05
23.77
28.46
31.44
33.12
33.93
34.28
34.44
34.58
34.73
34.82
34.69
34.16
33.1
31.46
29.28
26.68
23.8
20.72
17.49
14.08
10.49
6.74
2.91
-0.89
-4.72
-8.77
-13.34
-18.7
-24.84
-31.35
-37.47
-42.23
-44.75
-44.51
-41.39
-35.65
-27.86
-18.71
-8.92
0.73
9.52
16.89
22.46
26.2
28.33
29.27
29.48
29.3
28.93
28.4
27.68
26.73
25.56
24.21
22.64
20.78
18.52
15.82
12.73
9.43
6.12
2.97
-0.06
-3.13
-6.52
-10.47
-15.12
-20.45
-26.22
-32.09
-37.55
-42.01
-44.82
-45.41
-43.35
-38.54
-31.25
-22.06
-11.86
-1.59
7.85
15.79
21.87
26.05
28.59
29.88
30.39
30.48
30.41
30.28
30.09
29.81
29.35
28.61
27.45
25.77
23.51
20.69
17.44
13.93
10.31
6.63
2.88
-0.97
-4.94
-9.04
-13.3
-17.78
-22.64
-27.92
-33.47
-38.9
-43.61
-46.96
-48.37
-47.46
-44.09
-38.4
-30.73
-21.65
-11.83
-2.0
7.22
15.39
22.23
27.7
31.75
34.41
35.72
35.85
35.15
34.07
33.05
32.33
31.89
31.46
30.7
29.38
27.46
25.05
22.33
19.39
16.24
12.84
9.21
5.45
1.74
-1.8
-5.3
-9.02
-13.34
-18.48
-24.28
-30.23
-35.56
-39.47
-41.43
-41.27
-39.18
-35.42
-30.3
-24.04
-16.92
-9.34
-1.88
4.82
10.27
14.3
17.09
19.02
20.44
21.57
22.42
23.0
23.31
23.5
23.67
23.79
23.64
22.91
21.39
19.12
16.37
13.52
10.9
8.56
6.38
4.09
1.48
-1.57
-5.07
-8.93
-13.06
-17.28
-21.35
-24.91
-27.5
-28.69
-28.24
-26.1
-22.51
-17.82
-12.48
-6.86
-1.32
3.87
8.35
11.84
14.14
15.3
15.56
15.32
15.01
14.95
15.28
16.01
17.04
18.15
19.0
19.25
18.61
16.97
14.46
11.36
8.09
4.97
2.12
-0.49
-3.07
-5.9
-9.2
-13.11
-17.55
-22.17
-26.32
-29.27
-30.32
-29.06
-25.52
-20.05
-13.27
-5.82
1.74
8.96
15.47
20.98
25.32
28.53
30.86
32.75
34.58
36.58
38.71
40.76
42.46
43.63
44.17
44.06
43.31
41.91
39.86
37.17
33.85
29.93
25.39
20.17
14.28
7.73
0.57
-7.1
-15.12
-23.26
-31.12
-38.07
-43.38
-46.36
-46.53
-43.88
-38.9
-32.42
-25.46
-18.88
-13.26
-8.8
-5.38
-2.76
-0.77
0.64
1.41
1.52
1.08
0.38
-0.26
-0.6
-0.63
-0.52
-0.51
-0.79
-1.41
-2.34
-3.55
-5.09
-7.09
-9.62
-12.7
-16.21
-19.99
-23.96
-28.09
-32.45
-37.03
-41.68
-45.99
-49.36
-51.14
-50.86
-48.34
-43.75
-37.54
-30.28
-22.51
-14.65
-7.0
0.16
6.52
11.74
15.6
18.12
19.52
20.23
20.64
20.97
21.26
21.43
21.37
21.11
20.75
20.36
19.89
19.13
17.76
15.56
12.52
8.83
4.81
0.71
-3.42
-7.64
-12.07
-16.78
-21.72
-26.77
-31.76
-36.46
-40.56
-43.54
-44.79
-43.73
-40.13
-34.24
-26.77
-18.66
-10.81
-3.76
2.27
7.36
11.6
15.0
17.46
18.87
19.26
18.95
18.37
17.98
18.07
18.54
19.02
18.99
18.02
15.98
13.12
9.84
6.61
3.66
0.99
-1.57
-4.21
-7.1
-10.36
-14.12
-18.5
-23.54
-29.06
-34.57
-39.26
-42.2
-42.61
-40.15
-35.03
-28.0
-20.01
-11.96
-4.47
2.22
8.07
13.05
17.01
19.72
21.02
20.99
19.98
18.5
17.04
15.91
15.15
14.6
14.0
13.06
11.54
9.31
6.41
3.06
-0.48
-3.95
-7.26
-10.56
-14.1
-18.13
-22.77
-28.04
-33.82
-39.92
-45.93
-51.22
-54.94
-56.28
-54.74
-50.3
-43.55
-35.37
-26.72
-18.29
-10.5
-3.46
2.8
8.23
12.76
16.32
18.91
20.55
21.36
21.43
20.9
19.96
18.78
17.56
16.43
15.42
14.44
13.21
11.52
9.17
6.2
2.81
-0.71
-4.14
-7.44
-10.7
-14.19
-18.15
-22.72
-27.87
-33.33
-38.57
-42.91
-45.61
-46.08
-44.06
-39.7
-33.5
-26.17
-18.38
-10.65
-3.3
3.43
9.27
13.88
16.91
18.19
17.83
16.28
14.14
12.09
10.46
9.29
8.2
6.61
3.93
-0.32
-6.31
-13.93
-22.71
-31.99
-40.93
-48.85
-55.33
-60.34
-64.15
-67.14
-69.63
-71.81
-73.74
-75.4
-76.69
-77.32
-76.8
-74.58
-70.26
-63.85
-55.84
-47.06
-38.4
-30.49
-23.6
-17.66
-12.51
-8.05
-4.29
-1.31
0.89
2.48
3.83
5.42
7.74
11.1
15.55
20.83
26.44
31.81
36.47
40.18
42.92
44.87
46.24
47.15
47.57
47.37
46.3
44.18
40.83
36.19
30.28
23.43
16.33
10.06
6.02
5.47
9.2
17.08
28.06
40.43
52.36
62.39
69.72
74.16
75.9
75.3
72.74
68.7
63.79
58.75
54.29
50.85
48.49
46.9
45.54
43.96
41.89
39.31
36.34
33.12
29.78
26.43
23.14
19.93
16.72
13.27
9.36
4.78
-0.43
-5.99
-11.42
-16.14
-19.7
-21.75
-22.14
-20.88
-18.12
-14.18
-9.51
-4.58
0.13
4.19
7.27
9.18
9.97
9.86
9.21
8.35
7.43
6.48
5.41
4.18
2.87
1.61
0.55
-0.39
-1.49
-3.07
-5.32
-8.13
-11.16
-14.03
-16.57
-18.96
-21.6
-24.92
-29.17
-34.3
-40.08
-46.05
-51.51
-55.49
-56.83
-54.44
-47.74
-37.04
-23.56
-9.12
4.42
15.75
24.31
30.26
34.05
36.16
36.9
36.42
34.98
32.97
30.93
29.38
28.6
28.49
28.57
28.18
26.74
24.07
20.42
16.33
12.31
8.56
5.0
1.31
-2.78
-7.36
-12.44
-18.01
-24.1
-30.73
-37.59
-43.89
-48.43
-49.86
-47.27
-40.49
-30.29
-17.94
-4.88
7.68
19.02
28.67
36.39
41.99
45.34
46.45
45.54
43.07
39.63
35.93
32.59
30.1
28.61
27.94
27.57
26.91
25.46
23.04
19.76
15.91
11.79
7.54
3.21
-1.22
-5.77
-10.41
-15.24
-20.46
-26.35
-33.02
-40.05
-46.43
-50.69
-51.38
-47.6
-39.44
-27.97
-14.86
-1.86
9.78
19.39
26.87
32.27
35.7
37.24
37.02
35.36
32.82
30.03
27.5
25.57
24.23
23.31
22.43
21.23
19.46
17.02
14.0
10.58
6.98
3.3
-0.42
-4.27
-8.35
-12.79
-17.75
-23.29
-29.39
-35.72
-41.59
-45.9
-47.49
-45.43
-39.4
-29.92
-18.14
-5.49
6.71
17.45
26.18
32.62
36.69
38.43
38.0
35.79
32.38
28.6
25.22
22.83
21.63
21.34
21.35
20.86
19.28
16.31
12.13
7.22
2.2
-2.45
-6.48
-9.95
-13.11
-16.34
-20.13
-24.9
-30.94
-38.05
-45.44
-51.74
-55.3
-54.73
-49.43
-39.87
-27.38
-13.72
-0.39
11.64
21.89
30.2
36.37
40.15
41.43
40.42
37.76
34.43
31.39
29.27
28.24
27.97
27.87
27.32
25.87
23.36
19.86
15.66
11.12
6.57
2.17
-2.11
-6.42
-10.95
-15.81
-21.03
-26.56
-32.35
-38.31
-44.24
-49.58
-53.43
-54.6
-52.04
-45.26
-34.63
-21.38
-7.21
6.21
17.7
26.74
33.29
37.59
39.87
40.29
39.08
36.59
33.38
30.06
27.15
24.91
23.29
22.04
20.83
19.38
17.57
15.36
12.72
9.64
6.06
2.0
-2.44
-7.04
-11.54
-15.72
-19.51
-23.1
-26.92
-31.51
-37.22
-43.81
-50.32
-55.14
-56.58
-53.47
-45.72
-34.37
-21.24
-8.25
3.19
12.42
19.36
24.22
27.18
28.29
27.66
25.56
22.54
19.25
16.31
14.08
12.59
11.56
10.55
9.17
7.12
4.32
0.92
-2.81
-6.48
-9.75
-12.43
-14.61
-16.64
-19.09
-22.5
-27.14
-32.79
-38.75
-43.94
-47.17
-47.44
-44.15
-37.37
-27.8
-16.62
-5.22
5.16
13.8
20.52
25.62
29.52
32.52
34.67
35.91
36.23
35.84
35.11
34.36
33.76
33.22
32.51
31.37
29.61
27.1
23.82
19.74
14.92
9.52
3.82
-1.81
-7.04
-11.68
-15.83
-19.81
-24.11
-29.17
-35.09
-41.46
-47.29
-51.2
-51.74
-48.0
-39.85
-28.12
-14.33
-0.23
12.6
23.14
30.93
36.02
38.68
39.27
38.25
36.06
33.24
30.26
27.54
25.26
23.35
21.55
19.54
17.08
14.08
10.64
6.95
3.23
-0.4
-3.87
-7.22
-10.49
-13.73
-17.02
-20.47
-24.32
-28.76
-33.97
-39.8
-45.67
-50.52
-53.03
-52.08
-47.11
-38.45
-27.21
-14.9
-2.96
7.69
16.62
23.83
29.34
33.11
35.01
35.0
33.4
30.78
27.87
25.24
23.17
21.62
20.37
19.18
17.88
16.38
14.57
12.31
9.44
5.87
1.62
-3.1
-7.91
-12.39
-16.22
-19.41
-22.34
-25.67
-29.98
-35.45
-41.45
-46.67
-49.52
-48.67
-43.65
-34.94
-23.77
-11.73
-0.21
9.81
17.76
23.46
26.91
28.21
27.61
25.51
22.48
19.19
16.27
14.21
13.14
12.87
12.86
12.57
11.55
9.71
7.26
4.56
1.86
-0.78
-3.5
-6.55
-10.04
-13.97
-18.28
-22.92
-27.92
-33.18
-38.3
-42.36
-44.17
-42.65
-37.32
-28.65
-17.87
-6.59
3.81
12.53
19.32
24.22
27.29
28.5
27.78
25.36
21.82
18.03
14.89
12.98
12.34
12.52
12.8
12.43
10.98
8.37
