26.01
23.2
21.06
19.98
19.87
20.24
20.45
19.98
18.66
16.59
13.99
11.06
7.88
4.44
0.77
-3.02
-6.8
-10.45
-14.03
-17.83
-22.22
-27.43
-33.39
-39.45
-44.52
-47.24
-46.47
-41.67
-33.15
-21.98
-9.68
2.24
12.62
20.86
26.83
30.71
32.74
33.21
32.41
30.72
28.6
26.54
24.91
23.87
23.32
22.91
22.25
21.0
19.03
16.4
13.32
10.0
6.56
3.03
-0.7
-4.63
-8.79
-13.08
-17.5
-22.09
-27.07
-32.68
-38.92
-45.38
-51.02
-54.51
-54.52
-50.31
-42.05
-30.83
-18.22
-5.79
5.39
14.83
22.52
28.52
32.86
35.46
36.33
35.73
34.18
32.32
30.7
29.59
28.95
28.55
28.03
27.15
25.76
23.81
21.38
18.56
15.51
12.36
9.18
5.94
2.56
-1.04
-4.89
-8.83
-12.68
-16.3
-19.81
-23.46
-27.49
-31.84
-35.87
-38.55
-38.65
-35.36
-28.53
-18.83
-7.4
4.54
16.12
26.84
36.31
44.12
49.68
52.55
52.78
51.11
48.78
47.09
46.83
48.05
50.11
52.12
53.38
53.57
52.86
51.63
50.3
49.11
48.16
47.4
46.61
45.54
44.0
41.88
39.19
35.99
32.28
27.99
23.05
17.58
11.95
6.83
2.98
1.02
1.26
3.56
7.46
12.34
17.64
23.03
28.36
33.55
38.44
42.77
46.21
48.52
49.66
49.92
49.77
49.71
50.08
50.91
51.95
52.75
52.8
51.71
49.21
45.23
39.91
33.52
26.43
18.98
11.41
3.7
-4.32
-12.91
-22.29
-32.41
-42.86
-52.8
-61.17
-66.89
-69.21
-67.96
-63.53
-56.81
-48.8
-40.38
-32.28
-24.96
-18.79
-14.07
-10.95
-9.42
-9.28
-10.17
-11.73
-13.61
-15.56
-17.41
-19.06
-20.49
-21.74
-22.95
-24.24
-25.65
-27.14
-28.64
-30.19
-31.95
-34.05
-36.53
-39.25
-42.01
-44.66
-47.27
-50.05
-53.18
-56.57
-59.66
-61.59
-61.48
-58.77
-53.51
-46.36
-38.32
-30.44
-23.48
-17.75
-13.18
-9.5
-6.44
-3.86
-1.73
-0.08
1.04
1.7
1.93
1.81
1.41
0.79
0.02
-0.87
-1.91
-3.24
-4.96
-7.12
-9.6
-12.17
-14.62
-16.86
-19.05
-21.5
-24.53
-28.28
-32.68
-37.37
-41.86
-45.53
-47.78
-48.14
-46.35
-42.49
-36.95
-30.38
-23.45
-16.7
-10.47
-4.96
-0.29
3.42
6.04
7.56
8.07
7.9
7.42
6.99
6.82
6.99
7.43
7.94
8.25
8.02
7.01
5.12
2.54
-0.34
-3.11
-5.48
-7.5
-9.51
-11.97
-15.22
-19.31
-23.9
-28.37
-31.96
-33.97
-34.04
-32.11
-28.53
-23.78
-18.37
-12.69
-6.91
-1.2
4.22
8.96
12.62
14.83
15.55
15.08
13.94
12.73
11.85
11.39
11.18
10.88
10.12
8.68
6.6
4.11
1.52
-0.93
-3.22
-5.57
-8.27
-11.6
-15.71
-20.51
-25.79
-31.15
-36.13
-40.2
-42.81
-43.48
-41.91
-38.11
-32.37
-25.25
-17.43
-9.64
-2.5
3.61
8.48
12.09
14.52
15.9
16.38
16.18
15.57
14.85
14.26
13.88
13.58
13.12
12.22
10.74
8.72
6.3
3.69
1.01
-1.66
-4.38
-7.2
-10.33
-13.94
-18.3
-23.48
-29.36
-35.47
-41.04
-45.1
-46.83
-45.73
-41.79
-35.5
-27.6
-18.95
-10.27
-2.08
5.34
11.78
17.12
21.26
24.09
25.62
25.95
25.36
24.26
23.08
22.14
21.54
21.19
20.83
20.23
19.28
17.92
16.2
14.13
11.67
8.81
5.59
2.12
-1.45
-5.09
-8.93
-13.18
-18.15
-23.92
-30.21
-36.35
-41.37
-44.27
-44.33
-41.35
-35.62
-27.9
-19.09
-10.01
-1.3
6.61
13.45
19.01
23.12
25.77
27.15
27.65
27.79
27.99
28.41
28.96
29.38
29.39
28.93
28.06
26.97
25.76
24.41
22.82
20.86
18.53
15.81
12.74
9.29
5.43
1.19
-3.31
-7.97
-12.74
-17.73
-23.15
-29.03
-35.06
-40.55
-44.43
-45.72
-43.8
-38.69
-31.11
-22.14
-12.94
-4.4
2.98
9.08
13.84
17.28
19.32
19.98
19.51
18.42
17.36
16.8
16.93
17.52
18.18
18.57
18.56
18.17
17.53
16.66
15.45
13.81
11.61
8.91
5.75
2.24
-1.52
-5.42
-9.38
-13.37
-17.51
-21.94
-26.7
-31.57
-35.87
-38.71
-39.11
-36.46
-30.8
-22.73
-13.39
-3.97
4.46
11.27
16.26
19.62
21.72
22.88
23.36
23.24
22.65
21.8
21.03
20.64
20.7
21.02
21.2
20.87
19.84
18.2
16.16
13.94
11.56
8.94
5.97
2.61
-1.05
-4.9
-8.86
-12.95
-17.35
-22.21
-27.64
-33.49
-39.36
-44.52
-48.16
-49.49
-48.0
-43.59
-36.53
-27.45
-17.19
-6.71
3.06
11.28
17.47
21.52
23.76
24.81
25.4
26.11
27.21
28.64
30.07
31.11
31.47
31.15
30.39
29.6
29.12
29.0
28.97
28.44
26.87
24.01
20.04
15.52
11.12
7.29
4.04
0.97
-2.57
-7.13
-12.92
-19.76
-27.03
-33.92
-39.56
-43.23
-44.41
-42.87
-38.7
-32.23
-24.07
-14.95
-5.59
3.32
11.28
17.87
22.83
26.07
27.74
28.2
27.99
27.62
27.45
27.58
27.91
28.22
28.29
27.97
27.16
25.83
24.02
21.78
19.25
16.57
13.87
11.22
8.61
6.0
3.31
0.48
-2.58
-5.99
-9.92
-14.5
-19.8
-25.74
-31.97
-37.82
-42.35
-44.69
-44.12
-40.52
-34.35
-26.58
-18.3
-10.47
-3.58
2.25
7.08
11.01
14.0
16.01
17.1
17.55
17.75
18.01
18.43
18.84
18.88
18.32
17.17
15.7
14.29
13.13
12.06
10.72
8.66
5.75
2.16
-1.64
-5.22
-8.38
-11.22
-14.07
-17.24
-20.95
-25.21
-29.87
-34.6
-38.9
-42.06
-43.29
-41.91
-37.66
-30.86
-22.32
-13.11
-4.14
3.95
10.83
16.34
20.4
22.97
24.13
24.16
23.51
22.66
21.95
21.5
21.24
21.03
20.68
20.09
19.18
17.89
16.23
14.22
11.94
9.43
6.73
3.84
0.8
-2.28
-5.27
-8.15
-11.09
-14.45
-18.71
-24.2
-30.83
-38.03
-44.76
-49.86
-52.31
-51.5
-47.38
-40.45
-31.56
-21.77
-12.01
-2.99
4.88
11.42
16.57
20.41
23.09
24.84
26.0
26.87
27.62
28.21
28.48
28.23
27.43
26.22
24.84
23.5
22.24
20.88
19.13
16.81
13.85
10.41
6.75
3.12
-0.35
-3.68
-7.03
-10.65
-14.79
-19.63
-25.13
-31.05
-36.88
-41.84
-45.04
-45.67
-43.2
-37.66
-29.65
-20.23
-10.63
-1.83
5.6
11.51
16.09
19.54
22.0
23.51
24.13
23.99
23.37
22.63
21.99
21.56
21.26
20.96
20.56
20.02
19.33
18.49
17.44
16.01
14.11
11.66
8.72
5.41
1.84
-1.97
-6.07
-10.53
-15.44
-20.74
-26.31
-31.85
-36.81
-40.51
-42.13
-40.98
-36.78
-29.88
-21.22
-12.11
-3.78
2.97
7.91
11.31
13.63
15.23
16.22
16.64
16.49
15.98
15.45
15.22
15.4
15.8
15.99
15.54
14.27
12.29
9.95
7.63
5.53
3.56
1.45
-1.1
-4.22
-7.9
-12.07
-16.72
-21.97
-27.92
-34.39
-40.81
-46.17
-49.29
-49.31
-46.01
-39.88
-31.93
-23.24
-14.64
-6.58
0.77
7.3
12.84
17.15
20.07
21.65
22.17
22.02
21.58
21.08
20.58
20.07
19.54
18.99
18.41
17.68
16.63
14.99
12.53
9.17
5.08
0.7
-3.48
-7.05
-9.98
-12.69
-15.83
-20.05
-25.6
-32.19
-38.99
-44.84
-48.62
-49.57
-47.43
-42.48
-35.34
-26.8
-17.62
-8.49
0.04
7.53
13.63
18.14
21.09
22.72
23.48
23.82
24.08
24.38
24.69
24.91
24.96
24.81
24.43
23.8
22.82
21.43
19.59
17.32
14.7
11.79
8.66
5.29
1.66
-2.25
-6.47
-11.11
-16.31
-22.17
-28.61
-35.15
-40.91
-44.8
-45.8
-43.43
-37.82
-29.76
-20.31
-10.55
-1.26
7.07
14.2
20.02
24.57
27.96
30.4
32.12
33.26
33.84
33.8
33.13
31.98
30.57
29.17
27.99
27.06
26.32
25.58
24.61
23.13
20.86
17.68
13.66
9.15
4.58
0.26
-3.83
-8.08
-13.1
-19.34
-26.81
-34.92
-42.61
-48.55
-51.64
-51.17
-47.06
-39.85
-30.54
-20.3
-10.22
-1.07
6.74
13.11
18.1
21.76
24.1
25.15
25.12
24.33
23.23
22.19
21.42
20.86
20.41
19.86
19.13
18.23
17.16
15.95
14.5
12.7
10.42
7.59
4.12
0.02
-4.69
-9.95
-15.64
-21.61
-27.64
-33.34
-38.19
-41.57
-42.85
-41.61
-37.75
-31.53
-23.54
-14.56
-5.3
3.56
11.49
18.04
22.87
25.8
26.93
26.61
25.46
24.1
22.99
22.31
22.03
21.99
22.01
21.97
21.64
20.75
19.04
16.35
12.79
8.73
4.63
0.9
-2.32
-5.26
-8.33
-12.06
-16.85
-22.81
-29.63
-36.66
-42.92
-47.38
-49.21
-47.97
-43.69
-36.77
-27.88
-17.76
-7.14
3.28
12.92
21.31
28.14
33.31
36.91
39.22
40.6
41.44
42.0
42.45
42.81
43.08
43.23
43.2
42.98
42.45
41.37
39.49
36.61
32.68
27.84
22.39
16.69
11.05
5.7
0.7
-4.12
-9.07
-14.59
-20.92
-27.91
-34.92
-40.85
-44.59
-45.23
-42.46
-36.6
-28.42
-18.91
-8.96
0.62
9.25
16.45
21.93
25.62
27.65
28.33
28.07
27.26
26.22
25.23
24.45
23.89
23.44
22.83
21.77
20.11
17.92
15.4
12.91
10.62
8.48
6.18
3.34
-0.3
-4.76
-9.93
-15.63
-21.73
-28.14
-34.73
-41.01
-46.3
-49.71
-50.45
-48.14
-42.88
-35.26
-26.17
-16.55
-7.18
1.32
8.61
14.55
19.1
22.33
24.36
25.36
25.52
25.19
24.64
24.18
23.99
24.06
24.2
24.12
23.42
21.8
19.12
15.41
10.95
6.15
1.43
-2.87
-6.6
-9.88
-13.14
-16.92
-21.79
-28.04
-35.42
-43.12
-49.89
-54.39
-55.59
-53.05
-47.02
-38.34
-28.11
-17.35
-6.94
2.55
10.78
17.56
22.8
26.54
28.92
30.19
30.67
30.63
30.3
29.76
29.09
28.33
27.61
27.01
26.51
25.92
24.88
23.04
20.24
16.57
12.35
7.98
3.77
-0.22
-4.12
-8.18
-12.68
-17.81
-23.7
-30.29
-37.3
-44.13
-49.81
-53.22
-53.33
-49.63
-42.31
-32.26
-20.75
-9.08
1.72
11.04
18.69
24.66
29.12
32.32
34.56
36.07
37.02
37.46
37.37
36.74
35.62
34.17
32.55
30.86
29.09
27.16
25.03
22.74
20.33
17.81
15.01
11.73
7.8
3.2
-1.83
-7.02
-12.22
-17.58
-23.37
-29.87
-36.93
-43.84
-49.43
-52.43
-51.97
-47.89
-40.83
-31.87
-22.19
-12.68
-3.83
4.21
11.33
17.33
21.95
24.86
26.03
25.72
24.59
23.35
22.59
22.55
23.08
23.72
23.97
23.45
21.99
19.67
16.67
13.15
9.28
5.13
0.85
-3.36
-7.29
-10.91
-14.35
-17.98
-22.33
-27.7
-33.98
-40.49
-46.09
-49.46
-49.63
-46.24
-39.66
-30.83
-20.93
-11.09
-2.04
5.78
12.22
17.25
20.83
23.0
23.81
23.55
22.58
21.31
20.11
19.14
18.45
17.97
17.59
17.17
16.61
15.74
14.37
12.38
9.71
6.44
2.79
-1.0
-4.79
-8.6
-12.66
-17.38
-23.05
-29.78
-37.24
-44.65
-50.92
-55.0
-56.07
-53.84
-48.54
-40.77
-31.31
-20.97
-10.52
-0.66
7.99
14.98
20.09
23.45
25.44
26.6
27.42
28.18
28.9
29.44
29.66
29.48
28.99
28.31
27.53
26.6
25.34
23.47
20.75
17.1
12.7
7.85
2.96
-1.68
-5.96
-10.01
-14.12
-18.63
-23.82
-29.73
-36.08
-42.18
-47.08
-49.74
-49.33
-45.54
-38.73
-29.82
-19.93
-10.06
-0.87
7.39
14.65
20.79
25.63
29.02
31.04
32.04
32.59
33.15
33.86
34.5
34.7
34.21
33.07
31.51
29.84
28.14
26.23
23.8
20.65
16.81
12.51
8.09
3.77
-0.39
-4.5
-8.71
-13.25
-18.37
-24.23
-30.87
-37.96
-44.85
-50.57
-54.05
-54.4
-51.15
-44.51
-35.25
-24.62
-13.94
-4.29
3.75
10.08
14.94
18.57
21.09
22.46
22.68
22.0
20.9
19.93
19.48
19.52
19.75
19.76
19.35
18.53
17.49
16.27
14.78
12.79
10.02
6.47
2.4
-1.8
-5.86
-9.79
-13.92
-18.76
-24.65
-31.54
-38.86
-45.59
-50.53
-52.64
-51.32
-46.55
-38.86
-29.1
-18.34
-7.54
2.41
10.86
17.4
21.85
24.33
25.21
25.09
24.63
24.38
24.59
25.16
25.74
25.91
25.46
24.47
23.24
22.02
20.87
19.47
17.35
14.11
9.69
4.4
-1.23
-6.72
-11.87
-16.8
-21.9
-27.58
-34.03
-41.17
-48.49
-55.24
-60.45
-63.16
-62.66
-58.64
-51.32
-41.45
-30.13
-18.49
-7.5
2.25
10.48
17.15
22.33
26.08
28.6
30.1
30.95
31.48
31.95
32.46
32.92
33.25
33.4
33.41
33.31
32.91
31.87
29.84
26.63
22.37
17.5
12.5
7.78
3.37
-0.91
-5.45
-10.58
-16.51
-23.26
-30.58
-37.94
-44.51
-49.28
-51.28
-49.83
-44.86
-36.85
-26.77
-15.72
-4.67
5.67
14.87
22.68
28.98
33.67
36.79
38.5
39.11
39.06
38.67
38.16
37.51
36.6
35.33
33.7
31.78
29.67
27.41
24.92
22.12
18.98
15.54
11.84
7.92
3.76
-0.78
-5.82
-11.45
-17.71
-24.51
-31.62
-38.52
-44.49
-48.63
-50.11
-48.48
-43.83
-36.68
-27.89
-18.3
-8.62
0.63
9.03
16.12
21.45
24.66
25.7
24.94
23.18
21.35
20.31
20.43
21.52
22.94
23.87
23.72
22.3
19.83
16.72
13.31
9.73
5.96
1.99
-2.13
-6.27
-10.4
-14.74
-19.67
-25.56
-32.36
-39.39
-45.46
-49.2
-49.65
-46.55
-40.44
-32.31
-23.21
-13.93
-4.88
3.72
11.61
18.37
23.49
26.55
27.49
26.75
25.14
23.57
22.72
22.8
23.55
24.42
24.79
24.26
22.74
20.37
17.39
14.03
10.43
6.64
2.69
-1.44
-5.84
-10.62
-15.95
-21.96
-28.66
-35.82
-42.95
-49.25
-53.79
-55.7
-54.4
-49.84
-42.44
-33.06
-22.63
-11.99
-1.75
7.7
16.1
23.25
28.94
33.02
35.42
36.27
35.85
34.61
33.01
31.5
30.32
29.49
28.83
27.99
26.62
24.54
21.73
18.41
14.91
11.47
8.17
4.88
1.31
-2.85
-7.87
-13.93
-21.0
-28.8
-36.68
-43.67
-48.61
-50.5
-48.79
-43.61
-35.73
-26.24
-16.21
-6.33
3.04
11.8
19.74
26.48
31.51
34.45
35.33
34.62
33.16
31.77
30.98
30.83
31.05
31.13
30.67
29.46
27.46
24.78
21.52
17.83
13.8
9.59
5.37
1.29
-2.64
-6.56
-10.79
-15.77
-21.74
-28.69
-36.08
-42.91
-47.99
-50.26
-49.07
-44.44
-36.95
-27.48
-17.02
-6.51
3.32
11.86
18.67
23.51
26.41
27.64
27.7
27.1
26.28
25.52
24.92
24.51
24.18
23.83
23.25
22.24
20.55
18.07
14.87
11.13
7.2
3.33
-0.34
-3.87
-7.55
-11.79
-16.95
-23.08
-29.92
-36.7
-42.41
-45.94
-46.52
-43.82
-38.11
-30.05
-20.46
-10.17
0.12
9.68
17.86
24.02
27.86
29.5
29.54
28.83
28.13
27.84
27.86
27.81
27.32
26.25
24.75
23.04
21.3
19.48
17.39
14.87
11.82
8.3
4.38
0.17
-4.3
-9.0
-14.03
-19.51
-25.61
-32.39
-39.64
-46.74
-52.7
-56.38
-56.84
-53.68
-47.12
-37.95
-27.25
-16.03
-5.13
4.88
13.64
20.92
26.56
30.52
32.88
33.87
33.9
33.39
32.75
32.26
31.99
31.88
31.75
31.35
30.43
28.81
26.37
23.17
19.39
15.35
11.31
7.42
3.6
-0.35
-4.71
-9.68
-15.32
-21.59
-28.4
-35.52
-42.5
-48.56
-52.64
-53.72
-51.18
-45.16
-36.41
-26.08
-15.26
-4.74
5.07
13.9
21.44
27.32
31.22
33.21
33.68
33.32
32.72
32.23
31.84
31.36
30.67
29.78
28.79
27.7
26.36
24.48
21.8
18.33
14.27
10.07
6.14
2.72
-0.27
-3.15
-6.44
-10.67
-16.14
-22.83
-30.24
-37.49
-43.44
-47.04
-47.61
-45.04
-39.73
-32.38
-23.82
-14.77
-5.78
2.7
10.28
16.59
21.33
24.29
25.55
25.4
24.36
23.05
21.92
21.18
20.69
20.15
19.28
17.95
16.28
14.48
12.67
10.75
8.49
5.68
2.3
-1.49
-5.36
-9.22
-13.22
-17.81
-23.42
-30.1
-37.29
-43.9
-48.65
-50.48
-48.99
-44.46
-37.69
-29.6
-20.86
-11.84
-2.72
6.23
14.44
21.21
25.96
28.52
29.25
28.91
28.29
27.91
27.83
27.74
27.32
26.37
24.99
23.42
21.82
20.17
18.27
15.86
12.87
9.48
5.9
2.36
-1.17
-4.96
-9.38
-14.73
-21.03
-28.04
-35.26
-42.14
-47.98
-52.07
-53.71
-52.37
-47.86
-40.45
-30.9
-20.25
-9.57
0.33
9.0
16.25
22.03
26.37
29.37
31.16
32.05
32.38
32.45
32.37
32.1
31.52
30.58
29.34
27.91
26.43
24.85
22.98
20.58
17.42
13.5
9.0
4.31
-0.14
-4.01
-7.28
-10.3
-13.68
-18.15
-24.12
-31.47
-39.41
-46.67
-51.87
-53.95
-52.45
-47.5
-39.78
-30.2
-19.73
-9.27
0.45
8.9
15.73
20.82
24.27
26.24
27.01
26.86
26.08
24.99
23.89
23.0
22.33
21.7
20.82
19.44
17.49
15.16
12.76
10.53
8.47
6.34
3.82
0.68
-3.02
-7.09
