-24.9
-20.64
-16.49
-12.53
-8.97
-6.15
-4.39
-3.92
-4.74
-6.6
-9.15
-12.04
-15.21
-18.72
-22.68
-27.14
-31.95
-36.86
-41.65
-46.1
-49.89
-52.53
-53.23
-51.15
-45.77
-37.12
-25.92
-13.33
-0.66
11.06
21.16
29.4
35.78
40.43
43.52
45.28
45.99
45.98
45.59
45.15
44.89
44.86
44.96
44.86
44.18
42.58
39.89
36.24
31.96
27.45
23.03
18.78
14.6
10.29
5.61
0.33
-5.7
-12.59
-20.25
-28.28
-35.86
-41.76
-44.67
-43.64
-38.48
-29.85
-19.13
-7.88
2.62
11.64
19.03
24.89
29.4
32.68
34.88
36.19
36.88
37.26
37.53
37.74
37.82
37.69
37.34
36.89
36.35
35.7
34.69
32.98
30.32
26.63
22.02
16.72
10.97
4.96
-1.15
-7.33
-13.65
-20.18
-26.99
-33.89
-40.39
-45.65
-48.63
-48.5
-44.92
-38.27
-29.52
-19.85
-10.27
-1.32
6.85
14.25
20.73
25.95
29.42
30.9
30.55
28.99
27.07
25.51
24.68
24.53
24.65
24.54
23.76
22.11
19.54
16.22
12.43
8.53
4.82
1.44
-1.64
-4.71
-8.22
-12.62
-18.2
-24.89
-32.19
-39.19
-44.72
-47.62
-47.08
-42.91
-35.56
-26.02
-15.52
-5.27
3.85
11.29
16.92
20.8
23.2
24.39
24.74
24.58
24.18
23.8
23.51
23.25
22.82
21.94
20.37
17.99
14.89
11.36
7.84
4.7
2.14
0.01
-2.15
-4.92
-8.76
-13.83
-19.84
-26.27
-32.52
-38.11
-42.7
-46.0
-47.67
-47.3
-44.49
-39.13
-31.45
-22.09
-11.9
-1.76
7.67
15.96
22.93
28.45
32.43
34.82
35.75
35.51
34.6
33.57
32.83
32.5
32.46
32.34
31.82
30.74
29.13
27.15
24.85
22.19
18.98
15.06
10.45
5.39
0.26
-4.62
-9.21
-13.82
-18.94
-25.07
-32.29
-40.15
-47.59
-53.2
-55.63
-54.02
-48.28
-39.21
-28.15
-16.65
-5.92
3.44
11.42
18.27
24.2
29.16
32.92
35.24
36.2
36.17
35.69
35.19
34.86
34.63
34.31
33.8
33.13
32.35
31.44
30.18
28.21
25.22
21.1
16.08
10.61
5.21
0.28
-4.06
-7.9
-11.52
-15.32
-19.7
-24.97
-31.13
-37.72
-43.81
-48.22
-49.81
-47.94
-42.74
-35.0
-25.9
-16.59
-7.88
-0.11
6.65
12.37
17.01
20.37
22.38
23.17
23.12
22.71
22.45
22.52
22.84
23.15
23.17
22.87
22.38
21.87
21.33
20.51
19.05
16.72
13.57
9.92
6.2
2.64
-0.84
-4.61
-9.12
-14.64
-21.06
-27.97
-34.67
-40.35
-44.19
-45.46
-43.67
-38.8
-31.38
-22.4
-13.01
-4.24
3.29
9.41
14.14
17.54
19.59
20.23
19.58
18.03
16.13
14.46
13.35
12.83
12.68
12.6
12.3
11.59
10.35
8.53
6.17
3.41
0.46
-2.51
-5.44
-8.4
-11.55
-15.06
-19.05
-23.6
-28.75
-34.41
-40.25
-45.6
-49.5
-50.89
-48.98
-43.58
-35.27
-25.18
-14.68
-4.93
3.33
9.89
14.82
18.35
20.7
22.07
22.65
22.66
22.3
21.78
21.24
20.79
20.48
20.31
20.22
20.01
19.43
18.14
15.93
12.78
8.94
4.82
0.86
-2.61
-5.53
-8.04
-10.47
-13.21
-16.67
-21.14
-26.76
-33.31
-40.13
-46.12
-49.97
-50.59
-47.49
-41.0
-32.11
-22.06
-11.85
-2.07
7.01
15.24
22.25
27.61
30.97
32.4
32.43
31.85
31.4
31.37
31.63
31.75
31.35
30.36
29.01
27.63
26.45
25.44
24.29
22.62
20.11
16.62
12.31
7.57
2.81
-1.62
-5.57
-9.19
-12.9
-17.17
-22.43
-28.7
-35.52
-41.9
-46.62
-48.55
-47.02
-42.04
-34.26
-24.82
-14.9
-5.47
2.98
10.28
16.42
21.39
25.11
27.52
28.68
28.88
28.51
27.97
27.55
27.36
27.31
27.22
26.86
25.95
24.28
21.78
18.51
14.71
10.64
6.47
2.26
-1.96
-6.18
-10.28
-14.29
-18.39
-22.96
-28.3
-34.29
-40.15
-44.59
-46.28
-44.4
-39.01
-31.04
-21.83
-12.66
-4.42
2.48
7.98
12.11
14.99
16.71
17.4
17.27
16.54
15.43
14.19
13.03
12.11
11.44
10.87
10.04
8.65
6.53
3.74
0.56
-2.67
-5.73
-8.6
-11.44
-14.53
-18.09
-22.32
-27.3
-33.01
-39.2
-45.31
-50.45
-53.59
-53.89
-50.96
-45.07
-37.02
-27.79
-18.26
-9.02
-0.37
7.43
14.01
18.92
21.8
22.63
21.83
20.2
18.63
17.76
17.8
18.45
19.17
19.37
18.7
17.11
14.82
12.06
9.03
5.79
2.34
-1.34
-5.24
-9.32
-13.56
-18.07
-23.02
-28.55
-34.63
-40.87
-46.53
-50.64
-52.25
-50.73
-46.02
-38.61
-29.45
-19.54
-9.89
-1.15
6.38
12.62
17.64
21.43
23.94
25.06
24.85
23.61
21.89
20.36
19.49
19.37
19.65
19.73
19.07
17.38
14.73
11.44
7.84
4.15
0.51
-3.05
-6.56
-10.03
-13.62
-17.53
-21.93
-26.85
-32.09
-37.05
-40.93
-42.82
-41.98
-38.08
-31.34
-22.49
-12.57
-2.69
6.33
13.96
20.03
24.61
27.82
29.8
30.73
30.86
30.54
30.18
30.07
30.24
30.47
30.34
29.41
27.38
24.24
20.24
15.8
11.37
7.23
3.48
-0.09
-3.79
-8.04
-13.14
-19.18
-25.89
-32.63
-38.44
-42.34
-43.53
-41.65
-36.82
-29.63
-20.91
-11.55
-2.3
6.19
13.5
19.28
23.37
25.75
26.53
26.02
24.6
22.76
20.97
19.57
18.76
18.49
18.48
18.3
17.54
15.88
13.29
9.94
6.13
2.1
-2.04
-6.38
-11.07
-16.3
-22.16
-28.6
-35.39
-42.06
-47.86
-51.8
-52.94
-50.64
-44.87
-36.21
-25.69
-14.52
-3.73
6.02
14.34
21.1
26.32
30.04
32.35
33.4
33.35
32.44
30.98
29.32
27.87
26.89
26.42
26.17
25.68
24.42
22.09
18.66
14.4
9.77
5.22
1.04
-2.75
-6.29
-9.96
-14.15
-19.24
-25.42
-32.47
-39.84
-46.56
-51.46
-53.46
-51.89
-46.67
-38.33
-27.89
-16.42
-4.95
5.8
15.36
23.47
29.98
34.88
38.21
40.15
41.04
41.24
41.2
41.17
41.29
41.48
41.52
41.15
40.15
38.48
36.18
33.42
30.3
26.79
22.88
18.5
13.76
8.8
3.87
-0.93
-5.62
-10.43
-15.66
-21.53
-27.98
-34.6
-40.65
-45.14
-47.18
-46.14
-41.94
-35.06
-26.37
-16.86
-7.37
1.57
9.77
17.13
23.59
29.0
33.09
35.75
37.03
37.19
36.6
35.62
34.5
33.32
32.09
30.69
29.09
27.23
25.14
22.81
20.22
17.35
14.13
10.61
6.83
2.85
-1.27
-5.53
-10.05
-15.0
-20.55
-26.7
-33.08
-39.0
-43.49
-45.52
-44.41
-39.98
-32.7
-23.52
-13.69
-4.31
3.8
10.25
14.96
18.08
19.86
20.56
20.5
20.03
19.54
19.41
19.84
20.85
22.12
23.19
23.58
22.94
21.15
18.35
14.82
10.84
6.69
2.55
-1.4
-4.99
-8.15
-10.96
-13.73
-16.93
-21.04
-26.28
-32.52
-39.15
-45.21
-49.61
-51.38
-49.95
-45.21
-37.62
-28.08
-17.7
-7.49
1.82
9.84
16.47
21.65
25.32
27.46
28.18
27.82
26.94
26.16
25.87
26.14
26.7
27.18
27.25
26.82
25.92
24.63
22.95
20.77
17.94
14.38
10.17
5.55
0.88
-3.49
-7.4
-10.9
-14.31
-18.03
-22.46
-27.74
-33.75
-39.93
-45.41
-49.2
-50.41
-48.56
-43.67
-36.26
-27.22
-17.49
-7.91
0.93
8.62
14.92
19.68
22.89
24.71
25.53
25.86
26.2
26.82
27.71
28.63
29.3
29.49
29.19
28.54
27.69
26.7
25.48
23.84
21.66
18.97
15.95
12.74
9.39
5.8
1.79
-2.67
-7.53
-12.63
-17.91
-23.43
-29.22
-35.15
-40.64
-44.73
-46.33
-44.69
-39.67
-31.86
-22.37
-12.4
-3.03
5.11
11.79
17.01
20.95
23.74
25.47
26.23
26.14
25.43
24.45
23.59
23.13
23.16
23.47
23.66
23.31
22.24
20.5
18.35
16.06
13.76
11.37
8.71
5.67
2.24
-1.45
-5.33
-9.42
-13.94
-19.09
-24.83
-30.71
-35.84
-39.24
-40.03
-37.9
-33.17
-26.64
-19.37
-12.32
-6.13
-1.05
2.93
5.91
8.0
9.21
9.54
9.1
8.14
6.96
5.82
4.87
4.06
3.27
2.33
1.15
-0.35
-2.2
-4.5
-7.3
-10.67
-14.54
-18.73
-22.99
-27.03
-30.77
-34.34
-38.09
-42.5
-47.89
-54.14
-60.56
-65.97
-68.92
-68.18
-63.15
-54.1
-42.09
-28.69
-15.41
-3.27
7.39
16.79
25.43
33.71
41.64
48.94
55.18
60.06
63.52
65.67
66.79
67.1
66.85
66.29
65.71
65.35
65.22
64.97
63.87
61.09
55.98
48.39
38.74
27.87
16.75
6.19
-3.47
-12.37
-20.98
-29.95
-39.66
-50.04
-60.41
-69.61
-76.29
-79.27
-77.86
-72.01
-62.33
-49.93
-36.19
-22.53
-10.21
-0.18
7.03
11.26
12.73
11.97
9.77
7.02
4.58
3.1
2.77
3.38
4.38
5.13
5.17
4.43
3.12
1.61
0.22
-0.93
-2.03
-3.41
-5.43
-8.29
-12.02
-16.52
-21.67
-27.38
-33.47
-39.55
-44.86
-48.42
-49.25
-46.8
-41.19
-33.15
-23.77
-14.15
-5.1
2.94
9.71
15.07
18.82
20.84
21.2
20.24
18.56
16.81
15.55
15.03
15.16
15.62
15.99
15.95
15.24
13.84
11.74
9.01
5.69
1.87
-2.36
-6.82
-11.41
-16.21
-21.43
-27.36
-34.09
-41.33
-48.26
-53.7
-56.4
-55.52
-50.95
-43.35
-33.93
-23.99
-14.59
-6.26
0.9
6.98
12.08
16.19
19.21
21.12
22.02
22.22
22.0
21.6
21.12
20.61
20.09
19.63
19.15
18.48
17.37
15.51
12.81
9.36
5.39
1.18
-3.15
-7.59
-12.26
-17.3
-22.81
-28.81
-35.18
-41.57
-47.41
-51.83
-53.9
-52.89
-48.5
-41.06
-31.36
-20.58
-9.86
-0.09
8.28
15.2
20.85
25.46
29.11
31.69
32.99
33.03
32.1
30.75
29.57
28.87
28.55
28.2
27.33
25.74
23.54
21.08
18.62
16.16
13.48
10.26
6.38
1.97
-2.66
-7.26
-11.81
-16.63
-22.13
-28.53
-35.57
-42.45
-47.92
-50.68
-49.75
-44.88
-36.58
-25.96
-14.36
-2.99
7.35
16.25
23.59
29.29
33.3
35.6
36.38
36.08
35.3
34.61
34.33
34.4
34.5
34.2
33.24
31.61
29.45
26.94
24.18
21.14
17.76
14.01
9.98
5.83
1.71
-2.37
-6.5
-10.9
-15.78
-21.22
-27.1
-32.98
-38.22
-41.97
-43.43
-42.02
-37.56
-30.39
-21.31
-11.37
-1.6
7.18
14.54
20.31
24.54
27.31
28.73
29.02
28.47
27.5
26.56
25.99
25.91
26.2
26.5
26.38
25.47
23.58
20.76
17.27
13.48
9.72
6.16
2.83
-0.44
-3.88
-7.75
-12.21
-17.35
-23.09
-29.11
-34.88
-39.57
-42.34
-42.45
-39.56
-33.86
-25.91
-16.53
-6.54
3.35
12.55
20.53
26.87
31.24
33.57
34.11
33.39
32.15
30.99
30.3
30.09
30.1
29.96
29.31
28.0
26.06
23.65
20.89
17.85
14.54
10.99
7.25
3.4
-0.55
-4.68
-9.17
-14.23
-20.03
-26.52
-33.47
-40.35
-46.38
-50.58
-51.96
-49.87
-44.15
-35.38
-24.66
-13.32
-2.57
6.85
14.55
20.52
24.9
27.91
29.78
30.8
31.21
31.19
30.91
30.45
29.96
29.56
29.29
29.03
28.55
27.55
25.88
23.54
20.67
17.43
13.87
9.95
5.61
0.94
-3.84
-8.53
-13.05
-17.66
-22.71
-28.48
-34.79
-40.91
-45.64
-47.75
-46.43
-41.56
-33.79
-24.29
-14.29
-4.74
3.86
11.36
17.76
22.96
26.79
29.14
30.09
30.01
29.47
28.91
28.57
28.35
27.96
27.16
25.84
24.14
22.26
20.36
18.37
16.06
13.19
9.6
5.4
0.86
-3.6
-7.71
-11.41
-14.92
-18.63
-22.9
-27.86
-33.16
-37.94
-41.1
-41.63
-39.01
-33.38
-25.54
-16.58
-7.55
0.85
8.24
14.43
19.23
22.38
23.69
23.22
21.43
19.07
16.96
15.66
15.3
15.64
16.18
16.42
15.99
14.79
12.83
10.29
7.37
4.27
1.16
-1.9
-4.95
-8.16
-11.8
-16.11
-21.23
-26.99
-32.92
-38.19
-41.88
-43.13
-41.41
-36.75
-29.67
-21.12
-12.18
-3.75
3.62
9.79
14.91
19.17
22.64
25.2
26.62
26.82
25.87
24.15
22.13
20.28
18.83
17.76
16.76
15.46
13.59
11.11
8.21
5.21
2.37
-0.35
-3.19
-6.49
-10.5
-15.2
-20.42
-25.91
-31.52
-37.05
-42.2
-46.36
-48.72
-48.49
-45.21
-39.03
-30.57
-20.79
-10.73
-1.24
7.02
13.72
18.74
22.16
24.23
25.25
25.51
25.23
24.63
23.92
23.33
23.02
22.99
22.97
22.59
21.48
19.49
16.75
13.57
10.32
7.1
3.82
0.21
-3.96
-8.68
-13.8
-19.08
-24.52
-30.24
-36.4
-42.84
-48.88
-53.5
-55.6
-54.5
-50.18
-43.27
-34.79
-25.78
-17.05
-9.09
-2.2
3.5
7.94
11.17
13.34
14.65
15.34
15.59
15.49
15.13
14.66
14.32
14.45
15.28
16.88
18.95
20.98
22.39
22.77
22.05
20.42
18.26
15.94
13.79
12.15
11.28
11.28
11.78
11.81
9.97
5.08
-3.09
-13.37
-23.45
-30.79
-33.64
-31.6
-25.51
-16.65
-5.91
6.47
20.61
36.27
52.44
67.48
79.79
88.52
93.89
96.96
98.95
100.61
102.04
102.75
102.11
99.74
95.69
90.33
84.12
77.36
70.06
62.04
53.11
43.28
32.85
22.33
12.21
2.74
-6.22
-15.0
-23.81
-32.42
-40.09
-45.76
-48.45
-47.79
-44.08
-38.24
-31.42
-24.56
-18.22
-12.66
-8.03
-4.63
-2.89
-3.14
-5.39
-9.13
-13.37
-17.07
-19.53
-20.6
-20.73
-20.66
-20.99
-22.0
-23.63
-25.63
-27.83
-30.18
-32.75
-35.53
-38.4
-41.15
-43.73
-46.44
-49.74
-54.03
-59.16
-64.29
-68.11
-69.28
-67.0
-61.31
-53.0
-43.23
-33.1
-23.4
-14.56
-6.84
-0.43
4.43
7.64
9.25
9.57
9.07
8.19
7.27
6.45
5.65
4.71
3.39
1.53
-0.91
-3.86
-7.14
-10.47
-13.6
-16.4
-18.9
-21.39
-24.28
-27.96
-32.6
-38.07
-43.78
-48.9
-52.54
-53.99
-52.91
-49.32
-43.59
-36.31
-28.19
-19.93
-12.16
-5.27
0.55
5.27
9.0
11.81
13.74
14.81
15.09
14.75
14.02
13.14
12.21
11.22
10.06
8.59
6.75
4.57
2.19
-0.29
-2.81
-5.44
-8.47
-12.27
-17.14
-23.13
-29.84
-36.42
-41.77
-44.86
-45.05
-42.22
-36.75
-29.3
-20.55
-11.16
-1.68
7.34
15.36
21.84
26.42
29.01
29.84
29.42
28.33
27.06
25.87
24.75
23.49
21.83
19.6
16.76
13.42
9.8
6.07
2.38
-1.26
-4.95
-8.89
-13.33
-18.52
-24.63
-31.68
-39.39
-47.09
-53.72
-58.01
-58.82
-55.51
-48.28
-38.05
-26.22
-14.17
-2.84
7.27
16.12
23.68
29.9
34.63
37.8
39.54
40.14
40.0
39.43
38.54
37.28
35.51
33.12
30.15
26.77
23.17
19.55
15.99
12.47
8.88
5.08
0.95
-3.65
-8.79
-14.55
-20.88
-27.58
-34.23
-40.14
-44.44
-46.27
-45.01
-40.44
-32.86
-23.05
-12.01
-0.77
9.84
19.35
27.53
34.31
39.66
43.5
45.82
46.7
46.41
45.31
43.82
42.3
41.0
40.07
39.49
39.18
38.92
38.37
37.17
35.05
31.96
28.02
23.5
18.65
13.68
8.69
3.67
-1.48
-6.95
-12.97
-19.69
-26.97
-34.27
-40.63
-44.86
-45.94
-43.32
-37.2
-28.38
-18.01
-7.13
3.5
13.42
22.29
29.8
35.64
39.61
41.83
42.75
42.96
42.91
42.74
42.27
41.19
39.41
37.16
34.87
32.99
31.69
30.86
30.1
29.01
27.22
24.55
20.94
16.54
11.7
6.92
2.78
-0.26
-2.06
-2.98
-3.84
-5.71
-9.45
-15.28
-22.52
-29.59
-34.59
-35.91
-32.84
-25.82
-16.23
-5.77
4.09
12.51
19.34
24.75
28.94
31.95
33.71
34.29
34.0
33.38
32.91
32.77
32.77
32.48
31.52
29.77
27.47
25.0
22.6
20.32
18.01
15.45
12.6
9.51
6.25
2.8
-0.99
-5.32
-10.29
-15.82
-21.72
-27.8
-33.93
-40.04
-45.91
-51.07
-54.76
-56.1
-54.37
-49.3
-41.25
-31.03
-19.77
-8.56
1.72
10.47
17.23
21.69
23.7
23.38
21.23
17.98
14.51
11.55
9.55
8.56
8.37
8.61
8.93
9.08
8.88
8.31
7.45
6.46
5.55
4.8
4.18
3.49
2.49
0.91
-1.3
-4.07
-7.11
-10.15
-13.05
-15.9
-19.0
-22.6
-26.68
-30.73
-33.83
-34.97
-33.43
-29.09
-22.42
-14.4
-6.01
1.86
8.66
14.04
17.85
20.07
20.83
20.44
19.32
17.93
16.65
15.69
15.06
14.69
14.42
14.14
13.79
13.32
12.74
12.0
11.03
9.7
7.93
5.67
2.95
-0.11
-3.33
-6.54
-9.68
-12.79
-15.98
-19.45
-23.27
-27.38
-31.44
-34.89
-37.14
-37.62
-36.03
-32.31
-26.8
-20.06
-12.87
-6.03
-0.24
3.97
6.42
7.17
6.59
5.23
3.67
2.43
1.84
1.94
2.52
3.27
3.86
4.08
3.85
3.2
2.16
0.8
-0.79
-2.58
-4.5
-6.51
-8.61
-10.8
-13.14
-15.71
-18.58
-21.76
-25.21
-28.74
-32.0
-34.52
-35.79
-35.37
-33.05
-28.86
-23.18
-16.61
-9.87
-3.64
1.59
5.6
8.41
10.02
10.5
9.87
8.28
6.07
3.8
2.01
0.99
0.64
0.5
0.02
-1.16
-3.03
-5.3
-7.59
-9.7
-11.62
-13.46
-15.38
-17.36
-19.3
-21.12
-22.86
-24.76
-27.12
-30.1
-33.46
-36.54
-38.4
-38.19
-35.47
-30.37
-23.59
-16.1
-8.82
-2.41
2.8
6.75
9.48
11.07
11.61
11.27
10.26
8.85
7.31
5.95
5.02
4.69
4.86
5.22
5.29
4.64
3.11
0.83
-1.83
-4.43
-6.7
-8.58
-10.21
-11.81
-13.58
-15.67
-18.2
-21.17
-24.45
-27.66
-30.19
-31.37
-30.68
-27.96
-23.53
-18.03
-12.23
-6.73
-1.88
2.2
5.45
7.8
9.14
9.49
9.12
8.39
7.66
7.07
6.52
5.74
4.57
3.07
1.5
0.16
-0.79
-1.49
-2.24
-3.32
-4.95
-7.08
-9.63
-12.47
-15.58
-19.11
-23.18
-27.77
-32.58
-36.96
-40.14
-41.4
-40.44
-37.35
-32.61
-26.85
-20.53
-14.03
-7.59
-1.5
3.84
7.96
10.52
11.49
11.21
10.27
9.25
8.53
8.18
8.04
7.79
7.22
6.28
5.05
3.7
2.35
0.98
-0.55
-2.46
-4.95
-8.1
-11.9
-16.33
-21.29
-26.61
-31.94
-36.71
-40.13
-41.45
-40.18
-36.3
-30.31
-23.03
-15.3
-7.77
-0.83
5.3
10.43
14.33
16.8
17.81
17.56
16.49
15.11
13.93
13.29
13.3
13.84
14.58
15.08
14.95
13.97
12.12
9.6
6.71
3.68
0.59
-2.72
-6.61
-11.43
-17.25
-23.75
-30.15
-35.45
-38.72
-39.37
-37.29
-32.78
-26.4
-18.74
-10.37
-1.75
6.64
14.31
20.78
25.69
28.85
30.32
30.4
29.61
