-18.07
-4.36
8.09
18.78
27.64
34.7
39.91
43.16
44.42
43.95
42.29
40.09
37.92
36.14
34.77
33.65
32.54
31.18
29.44
27.27
24.62
21.5
17.89
13.8
9.3
4.51
-0.42
-5.36
-10.28
-15.31
-20.67
-26.62
-33.27
-40.43
-47.51
-53.57
-57.44
-57.98
-54.47
-46.86
-35.85
-22.7
-8.91
4.16
15.53
24.66
31.43
35.92
38.42
39.29
38.97
37.95
36.63
35.22
33.76
32.17
30.33
28.23
25.99
23.82
21.86
20.14
18.49
16.62
14.23
11.15
7.39
3.14
-1.38
-5.95
-10.45
-14.87
-19.3
-23.95
-29.09
-34.96
-41.53
-48.38
-54.51
-58.54
-59.13
-55.43
-47.49
-36.3
-23.43
-10.55
1.06
10.69
18.2
23.65
27.24
29.15
29.65
29.14
28.14
27.18
26.62
26.5
26.59
26.52
25.97
24.85
23.3
21.56
19.78
17.92
15.72
12.9
9.29
5.01
0.4
-4.13
-8.28
-11.98
-15.36
-18.73
-22.41
-26.76
-32.02
-38.17
-44.69
-50.54
-54.35
-54.84
-51.3
-43.96
-33.86
-22.53
-11.44
-1.61
6.52
12.93
17.78
21.24
23.38
24.3
24.12
23.1
21.61
20.02
18.62
17.56
16.77
16.11
15.37
14.48
13.4
12.16
10.78
9.2
7.29
4.87
1.79
-1.93
-6.18
-10.69
-15.17
-19.57
-24.03
-28.91
-34.54
-40.85
-47.15
-52.23
-54.71
-53.55
-48.5
-40.18
-29.78
-18.62
-7.84
1.89
10.15
16.73
21.52
24.46
25.7
25.58
24.58
23.17
21.76
20.55
19.62
19.0
18.59
18.34
18.04
17.51
16.5
14.84
12.44
9.28
5.49
1.23
-3.24
-7.65
-11.73
-15.31
-18.36
-21.12
-24.0
-27.55
-32.26
-38.21
-44.91
-51.25
-55.77
-57.08
-54.4
-47.79
-38.09
-26.7
-14.96
-3.95
5.72
13.74
19.98
24.36
26.9
27.79
27.44
26.42
25.26
24.3
23.64
23.17
22.73
22.13
21.35
20.39
19.3
18.07
16.61
14.78
12.43
9.49
5.96
2.0
-2.19
-6.36
-10.34
-14.03
-17.49
-20.88
-24.5
-28.76
-33.97
-40.2
-46.9
-52.93
-56.83
-57.28
-53.66
-46.25
-36.13
-24.72
-13.32
-2.79
6.48
14.34
20.72
25.47
28.51
29.92
30.05
29.42
28.56
27.9
27.56
27.42
27.2
26.61
25.47
23.81
21.85
19.85
17.96
16.13
14.11
11.65
8.58
4.95
0.99
-3.05
-6.99
-10.85
-14.72
-18.71
-22.8
-26.96
-31.3
-36.1
-41.72
-48.22
-55.06
-61.01
-64.46
-64.01
-59.07
-50.12
-38.55
-26.09
-14.3
-4.19
3.82
9.63
13.41
15.33
15.71
14.95
13.49
11.78
10.11
8.65
7.47
6.62
6.15
6.06
6.27
6.58
6.71
6.4
5.57
4.17
2.33
0.18
-2.1
-4.37
-6.52
-8.52
-10.49
-12.64
-15.3
-18.73
-23.02
-27.97
-33.02
-37.36
-39.99
-40.05
-36.96
-30.7
-21.77
-11.17
-0.05
10.46
19.53
26.65
31.65
34.61
35.72
35.32
33.79
31.6
29.19
27.02
25.35
24.14
23.06
21.46
18.7
14.46
8.96
3.0
-2.44
-6.6
-9.41
-11.46
-13.68
-16.88
-21.4
-27.04
-33.4
-40.2
-47.32
-54.69
-61.91
-68.05
-71.77
-71.75
-67.31
-58.72
-47.27
-34.79
-22.95
-12.77
-4.49
2.25
7.95
12.89
17.02
20.11
22.01
22.85
22.96
22.75
22.47
22.22
21.93
21.51
20.89
19.98
18.62
16.63
13.9
10.42
6.37
1.98
-2.5
-6.96
-11.4
-15.95
-20.82
-26.24
-32.35
-39.01
-45.69
-51.38
-54.82
-54.85
-50.88
-43.05
-32.27
-19.89
-7.29
4.43
14.56
22.75
28.98
33.36
36.09
37.42
37.61
36.96
35.73
34.19
32.61
31.2
30.08
29.21
28.41
27.37
25.8
23.5
20.44
16.73
12.57
8.21
3.84
-0.48
-4.8
-9.25
-14.05
-19.4
-25.4
-31.92
-38.47
-44.14
-47.77
-48.31
-45.14
-38.35
-28.66
-17.23
-5.27
6.25
16.65
25.5
32.51
37.37
39.9
40.14
38.45
35.58
32.39
29.69
27.99
27.36
27.45
27.71
27.62
26.84
25.3
23.1
20.42
17.38
14.03
10.44
6.67
2.79
-1.26
-5.65
-10.7
-16.65
-23.44
-30.57
-37.09
-41.73
-43.32
-41.13
-35.2
-26.3
-15.66
-4.6
5.8
14.91
22.48
28.47
32.85
35.6
36.69
36.18
34.37
31.75
28.94
26.49
24.67
23.49
22.63
21.66
20.2
18.06
15.26
11.96
8.34
4.55
0.68
-3.22
-7.08
-10.95
-15.02
-19.63
-25.05
-31.2
-37.42
-42.49
-45.01
-43.9
-38.9
-30.63
-20.32
-9.35
1.22
10.77
19.07
25.98
31.32
34.89
36.54
36.46
35.05
32.92
30.59
28.42
26.54
24.89
23.31
21.61
19.62
17.23
14.35
11.02
7.35
3.56
-0.15
-3.67
-7.08
-10.67
-14.91
-20.14
-26.52
-33.75
-41.08
-47.43
-51.56
-52.41
-49.34
-42.37
-32.19
-20.04
-7.38
4.45
14.53
22.52
28.52
32.85
35.79
37.42
37.67
36.51
34.17
31.15
28.13
25.63
23.82
22.49
21.14
19.35
16.91
13.91
10.57
7.11
3.57
-0.12
-4.01
-8.11
-12.29
-16.51
-20.86
-25.64
-31.12
-37.26
-43.44
-48.46
-50.85
-49.36
-43.5
-33.8
-21.64
-8.75
3.33
13.65
21.94
28.39
33.3
36.84
38.94
39.49
38.57
36.55
34.08
31.82
30.2
29.21
28.52
27.63
26.17
24.08
21.55
18.84
16.08
13.18
9.9
6.0
1.42
-3.71
-9.14
-14.6
-19.97
-25.3
-30.74
-36.28
-41.64
-46.1
-48.75
-48.68
-45.38
-38.82
-29.57
-18.57
-6.87
4.49
14.68
23.05
29.22
33.05
34.72
34.59
33.14
30.91
28.37
25.95
24.02
22.9
22.63
23.02
23.56
23.68
22.97
21.32
19.02
16.5
14.12
11.93
9.67
6.97
3.61
-0.34
-4.64
-9.05
-13.54
-18.21
-23.08
-27.82
-31.58
-33.31
-32.14
-27.85
-20.94
-12.44
-3.48
5.1
12.84
19.6
25.32
29.9
33.15
34.92
35.18
34.15
32.21
29.84
27.52
25.57
24.1
23.02
22.11
21.11
19.85
18.29
16.43
14.23
11.57
8.33
4.45
0.03
-4.73
-9.62
-14.53
-19.58
-25.02
-31.1
-37.78
-44.62
-50.66
-54.74
-55.73
-53.11
-47.05
-38.51
-28.82
-19.23
-10.67
-3.51
2.16
6.35
8.98
9.88
9.05
6.78
3.75
0.75
-1.5
-2.73
-3.06
-2.95
-2.83
-3.0
-3.57
-4.65
-6.46
-9.3
-13.37
-18.54
-24.29
-29.89
-34.79
-38.84
-42.43
-46.13
-50.42
-55.36
-60.61
-65.5
-69.31
-71.34
-71.0
-67.79
-61.46
-52.22
-40.77
-28.26
-15.95
-4.79
4.79
12.76
19.33
24.64
28.67
31.32
32.66
32.98
32.79
32.64
32.91
33.69
34.77
35.88
36.63
36.75
35.99
34.29
31.65
28.22
24.21
19.84
15.31
10.72
6.15
1.63
-2.85
-7.47
-12.46
-18.11
-24.57
-31.62
-38.49
-43.96
-46.72
-45.86
-41.23
-33.54
-24.07
-14.19
-4.84
3.54
10.98
17.59
23.29
27.79
30.72
31.92
31.58
30.21
28.43
26.76
25.44
24.48
23.72
22.97
22.09
21.01
19.7
18.11
16.15
13.67
10.58
6.88
2.68
-1.78
-6.29
-10.72
-15.13
-19.65
-24.5
-29.72
-35.04
-39.86
-43.33
-44.57
-42.95
-38.3
-30.92
-21.63
-11.49
-1.6
7.12
14.08
19.07
22.18
23.65
23.8
22.89
21.2
19.05
16.78
14.76
13.23
12.25
11.63
11.02
10.06
8.54
6.49
4.08
1.59
-0.77
-2.91
-4.9
-6.86
-8.97
-11.4
-14.32
-17.92
-22.29
-27.36
-32.73
-37.68
-41.22
-42.42
-40.67
-35.88
-28.61
-19.78
-10.44
-1.52
6.35
12.84
17.83
21.31
23.38
24.19
23.98
23.04
21.67
20.16
18.72
17.52
16.6
15.9
15.21
14.19
12.56
10.12
6.98
3.45
-0.08
-3.31
-6.23
-9.03
-12.04
-15.47
-19.44
-23.95
-29.0
-34.57
-40.49
-46.2
-50.82
-53.22
-52.45
-48.06
-40.37
-30.33
-19.23
-8.32
1.54
9.85
16.49
21.53
25.08
27.32
28.37
28.38
27.53
26.07
24.29
22.47
20.85
19.56
18.54
17.65
16.69
15.49
13.94
11.95
9.42
6.32
2.68
-1.3
-5.32
-9.15
-12.77
-16.45
-20.7
-25.99
-32.34
-39.25
-45.61
-50.09
-51.53
-49.3
-43.5
-34.81
-24.33
-13.22
-2.53
6.99
14.82
20.74
24.76
27.14
28.29
28.67
28.64
28.33
27.75
26.81
25.48
23.88
22.18
20.53
19.02
17.63
16.2
14.58
12.62
10.18
7.17
3.57
-0.57
-5.06
-9.64
-14.09
-18.34
-22.56
-27.08
-32.16
-37.61
-42.68
-46.16
-46.77
-43.65
-36.78
-27.04
-15.92
-4.9
4.9
12.94
19.21
23.86
27.03
28.74
28.97
27.86
25.78
23.34
21.2
19.87
19.48
19.74
20.02
19.64
18.12
15.42
11.94
8.26
4.96
2.23
-0.09
-2.41
-5.11
-8.43
-12.44
-17.16
-22.59
-28.59
-34.77
-40.25
-43.84
-44.38
-41.16
-34.25
-24.56
-13.47
-2.42
7.48
15.58
21.64
25.63
27.65
27.88
26.65
24.42
21.8
19.38
17.64
16.83
16.85
17.3
17.59
17.07
15.31
12.23
8.2
3.82
-0.24
-3.61
-6.28
-8.6
-11.08
-14.21
-18.3
-23.5
-29.7
-36.46
-42.94
-47.89
-49.98
-48.2
-42.31
-33.02
-21.74
-10.09
0.64
9.81
17.33
23.4
28.2
31.78
34.09
35.12
34.98
33.96
32.39
30.63
28.94
27.48
26.25
25.07
23.63
21.63
18.92
15.52
11.7
7.77
3.97
0.38
-3.13
-6.73
-10.61
-14.94
-19.83
-25.35
-31.44
-37.81
-43.74
-48.22
-50.08
-48.43
-42.91
-33.94
-22.62
-10.37
1.48
11.97
20.66
27.51
32.61
36.06
37.94
38.33
37.47
35.78
33.74
31.87
30.47
29.63
29.18
28.82
28.22
27.11
25.32
22.85
19.8
16.32
12.54
8.53
4.28
-0.16
-4.69
-9.2
-13.66
-18.23
-23.31
-29.24
-35.95
-42.76
-48.4
-51.4
-50.62
-45.71
-37.21
-26.39
-14.71
-3.39
6.79
15.53
22.82
28.74
33.29
36.4
38.04
38.31
37.47
35.96
34.22
32.57
31.11
29.76
28.39
26.95
25.48
24.05
22.66
21.15
19.24
16.67
13.36
9.41
5.1
0.74
-3.47
-7.48
-11.36
-15.29
-19.52
-24.31
-29.9
-36.28
-42.98
-48.98
-52.92
-53.46
-49.83
-42.13
-31.35
-19.04
-6.74
4.44
13.91
21.49
27.18
30.98
32.96
33.38
32.68
31.43
30.09
28.84
27.62
26.3
24.84
23.36
22.05
20.98
20.06
19.02
17.55
15.47
12.72
9.37
5.54
1.4
-2.82
-6.87
-10.54
-13.84
-17.03
-20.55
-24.83
-29.99
-35.72
-41.21
-45.39
-47.19
-45.8
-40.98
-33.08
-23.05
-12.18
-1.79
7.12
14.11
19.19
22.7
24.98
26.19
26.37
25.63
24.19
22.47
20.94
19.84
19.16
18.58
17.74
16.43
14.69
12.7
10.67
8.62
6.39
3.82
0.82
-2.5
-5.93
-9.25
-12.41
-15.61
-19.14
-23.3
-28.15
-33.44
-38.58
-42.74
-45.02
-44.65
-41.15
-34.56
-25.45
-14.82
-3.88
6.28
14.85
21.43
25.99
28.67
29.77
29.55
28.27
26.25
23.88
21.49
19.39
17.8
16.74
16.1
15.64
15.1
14.19
12.74
10.69
8.11
5.13
1.87
-1.57
-5.07
-8.48
-11.65
-14.47
-16.99
-19.48
-22.43
-26.35
-31.53
-37.72
-44.08
-49.3
-51.99
-51.09
-46.3
-38.12
-27.64
-16.25
-5.17
4.77
13.13
19.69
24.33
27.05
28.03
27.64
26.48
25.09
23.85
22.88
22.13
21.49
20.9
20.43
20.14
19.99
19.84
19.45
18.52
16.85
14.25
10.7
6.29
1.35
-3.65
-8.21
-12.0
-15.07
-17.8
-20.83
-24.75
-29.89
-36.0
-42.25
-47.41
-50.08
-49.21
-44.4
-36.1
-25.49
-14.06
-3.26
5.98
13.27
18.65
22.38
24.73
25.92
26.18
25.83
25.21
24.63
24.24
24.06
23.95
23.74
23.25
22.41
21.19
19.66
17.87
15.96
14.0
11.97
9.79
7.29
4.33
0.9
-2.97
-7.13
-11.42
-15.8
-20.24
-24.71
-29.01
-32.61
-34.69
-34.32
-30.81
-24.0
-14.52
-3.55
7.45
17.25
25.21
31.22
35.66
38.96
41.44
43.3
44.73
46.08
47.8
50.4
54.17
59.06
64.67
70.49
76.05
81.19
86.07
91.03
96.48
102.62
109.46
116.8
124.4
132.1
139.82
147.56
155.2
162.66
169.91
177.09
184.67
193.42
204.28
218.07
235.24
255.46
277.49
299.03
317.0
328.2
330.13
321.85
304.36
280.32
253.41
227.33
204.95
187.82
175.9
167.84
161.47
154.5
145.26
133.02
118.15
101.65
84.7
68.24
52.89
39.02
26.95
16.99
9.22
3.33
-1.4
-5.8
-10.5
-15.73
-21.33
-26.98
-32.49
-37.87
-43.41
-49.42
-56.08
-63.39
-71.11
-78.96
-86.74
-94.47
-102.33
-110.61
-119.52
-129.14
-139.42
-150.23
-161.46
-173.09
-185.19
-197.95
-211.72
-227.03
-244.39
-263.91
-284.93
-305.81
-324.19
-337.62
-344.43
-344.28
-338.25
-328.22
-316.18
-303.67
-291.65
-280.64
-270.94
-262.66
-255.5
-248.54
-240.25
-228.87
-213.1
-192.68
-168.62
-142.85
-117.71
-95.15
-76.31
-61.4
-50.03
-41.5
-35.18
-30.59
-27.34
-25.06
-23.38
-21.96
-20.69
-19.68
-19.22
-19.69
-21.3
-24.11
-27.92
-32.36
-37.0
-41.51
-45.73
-49.83
-54.23
-59.5
-66.13
-74.2
-83.28
-92.35
-100.1
-105.28
-106.94
-104.66
-98.6
-89.5
-78.44
-66.81
-56.01
-47.2
-41.02
-37.46
-35.97
-35.71
-35.93
-36.04
-35.82
-35.21
-34.09
-32.26
-29.34
-24.93
-18.71
-10.66
-1.09
9.3
19.59
28.78
35.96
40.52
42.16
40.87
36.89
30.72
22.97
14.42
5.92
-1.61
-7.27
-10.24
-9.88
-5.87
1.65
12.06
24.27
36.94
48.71
58.51
65.6
69.74
71.05
69.98
67.14
63.22
58.92
54.88
51.58
49.28
47.82
46.76
45.37
42.91
38.83
32.99
25.59
17.11
8.08
-1.1
-10.37
-19.94
-30.38
-42.22
-55.57
-69.71
-82.83
-92.34
-95.69
-91.35
-79.57
-62.41
-42.98
-24.43
-8.99
2.44
9.94
14.08
15.36
14.19
11.04
6.74
2.44
-0.8
-2.42
-2.72
-2.72
-3.6
-6.19
-10.45
-15.64
-20.62
-24.48
-26.89
-28.34
-29.97
-33.09
-38.83
-47.52
-58.48
-69.94
-79.33
-83.83
-81.24
-70.6
-52.57
-29.16
-3.21
22.31
44.92
62.79
74.85
80.68
80.54
75.4
66.92
57.2
48.25
41.55
37.62
36.04
35.72
35.4
34.06
31.17
26.71
21.09
14.94
8.77
2.79
-3.22
-9.95
-18.16
-28.29
-39.84
-51.19
-59.77
-62.79
-58.17
-45.35
-25.62
-1.61
23.5
46.87
66.64
81.86
92.17
97.38
97.42
92.57
83.79
72.85
61.98
53.11
47.33
44.47
43.32
42.21
39.72
35.15
28.69
21.2
13.7
6.96
1.13
-4.36
-10.54
-18.58
-29.21
-42.22
-56.11
-68.19
-75.19
-74.21
-63.71
-44.19
-18.11
10.85
38.89
63.2
82.32
95.95
104.37
107.86
106.63
101.01
91.99
81.28
71.06
63.16
58.49
56.56
55.81
54.38
50.9
45.06
37.54
29.57
22.23
15.95
10.41
4.63
-2.57
-12.11
-24.39
-39.12
-55.12
-70.5
-82.76
-89.33
-88.3
-79.03
-62.51
-41.14
-18.01
3.91
22.48
36.51
45.47
49.08
47.17
39.84
27.86
12.8
-3.24
-18.3
-31.26
-42.32
-52.8
-64.58
-79.43
-98.35
-121.22
-146.83
-173.21
-198.2
-220.18
-238.51
-253.53
-265.97
-275.99
-282.38
-282.45
-272.96
-251.53
-218.03
-174.94
-126.53
-77.28
-30.22
13.82
56.02
98.47
143.19
191.4
243.03
296.55
348.68
394.65
429.12
447.64
448.45
433.52
408.21
379.28
352.52
330.72
313.32
297.73
281.24
262.68
242.65
222.51
202.83
182.57
159.39
130.99
96.36
56.47
14.02
-27.69
-65.9
-98.87
-125.87
-146.8
-161.79
-171.16
-175.29
-174.61
-169.71
-161.42
-151.02
-140.17
-130.46
-122.58
-115.68
-107.62
-96.11
-80.31
-61.75
-43.92
-30.62
-24.12
-23.98
-27.44
-30.82
-31.2
-27.47
-20.14
-10.67
-0.8
7.88
13.88
15.94
13.4
6.82
-1.66
-8.61
-10.45
-4.91
7.9
25.32
43.11
57.12
64.83
66.1
62.92
58.4
55.62
56.85
63.23
74.71
89.97
106.38
120.3
127.97
126.75
116.26
98.78
78.21
58.42
41.4
26.62
11.9
-4.76
-23.41
-41.66
-55.83
-62.98
-62.6
-56.82
-49.26
-43.05
-39.42
-37.63
-36.13
-33.95
-31.63
-31.03
-34.16
-42.14
-54.39
-69.1
-83.85
-96.53
-105.86
-111.37
-113.09
-111.26
-106.23
-98.45
-88.61
-77.73
-67.08
-57.9
-51.19
-47.43
-46.57
-47.98
-50.67
-53.51
-55.48
-55.86
-54.47
-51.55
-47.74
-43.8
-40.43
-38.12
-37.02
-36.98
-37.61
-38.39
-38.83
-38.73
-38.31
-38.12
-38.86
-40.99
-44.48
-48.66
-52.42
-54.56
-54.01
-50.11
-42.68
-32.03
-18.92
-4.49
9.96
23.19
34.32
42.89
48.86
52.42
53.8
53.21
50.93
47.4
43.25
39.06
35.31
32.07
29.07
25.83
21.88
17.1
11.67
6.11
1.04
-3.05
-5.98
-7.91
-9.33
-10.96
-13.49
-17.29
-22.23
-27.52
-31.89
-33.88
-32.3
-26.65
-17.29
-5.31
7.79
20.56
31.93
41.34
48.68
53.97
57.25
58.43
57.43
54.38
49.72
44.29
39.07
34.89
32.17
30.68
29.78
28.64
26.69
23.8
20.31
16.74
13.47
10.5
7.49
3.92
-0.65
-6.37
-13.08
-20.42
-27.85
-34.69
-40.09
-43.04
-42.59
-38.19
-29.93
-18.71
-6.06
6.31
16.95
25.09
30.59
33.79
35.17
35.15
34.02
32.05
29.58
26.97
24.6
22.59
20.83
19.0
16.71
13.66
9.82
5.34
0.57
-4.08
-8.33
-12.03
-15.26
-18.31
-21.61
-25.55
-30.36
-35.94
-41.81
-47.17
-51.04
-52.43
-50.58
-45.1
-36.17
-24.54
-11.46
1.68
13.54
23.31
30.62
35.55
38.37
39.32
38.51
35.98
32.02
27.2
22.39
18.42
15.79
14.46
13.9
13.37
12.2
10.03
6.78
2.65
-1.98
-6.71
-11.1
-14.85
-17.88
-20.48
-23.27
-26.93
-31.78
-37.4
-42.54
-45.44
-44.52
-38.98
-29.19
-16.52
-2.91
9.79
20.31
28.05
33.02
35.5
35.83
34.42
31.7
28.18
24.44
20.94
17.96
15.47
13.18
10.66
7.52
3.51
-1.29
-6.65
-12.23
-17.8
-23.25
-28.59
-33.84
-39.02
-44.11
-49.17
-54.36
-59.86
-65.69
-71.37
-75.99
-78.16
-76.58
-70.4
-59.55
-44.76
-27.36
-8.85
9.36
26.05
40.28
51.26
58.5
61.92
61.89
59.32
55.36
51.11
47.31
44.28
41.94
40.07
38.45
36.89
35.21
33.18
30.54
27.11
22.82
17.8
12.19
6.21
-0.08
-6.71
-13.8
-21.43
-29.52
-37.77
-45.54
-51.87
-55.66
-55.81
-51.52
-42.61
-29.58
-13.62
3.69
20.73
36.07
48.73
58.09
63.86
66.12
65.16
61.62
56.35
50.31
44.44
39.35
35.27
31.98
29.03
25.95
22.51
18.72
14.7
10.55
6.21
1.49
-3.74
-9.42
-15.23
-20.74
-25.63
-29.92
-34.05
-38.64
-44.13
-50.39
-56.62
-61.55
-63.73
-62.03
-55.93
-45.68
-32.23
-16.96
-1.43
12.92
24.95
33.98
39.8
42.67
43.11
41.71
39.03
35.52
31.54
27.4
23.33
19.52
16.04
12.79
9.65
6.4
2.91
-0.99
-5.34
-10.12
-15.16
-20.13
-24.65
-28.53
-31.83
-35.0
-38.8
-43.82
-50.13
-57.07
-63.19
-66.7
-65.98
-60.19
-49.39
-34.58
-17.23
0.95
18.41
33.83
46.31
55.28
60.69
62.91
62.6
60.48
57.18
53.13
48.74
44.51
41.02
38.75
37.75
37.49
36.94
35.06
31.18
25.39
18.32
10.77
3.39
-3.56
-10.13
-16.4
-22.44
-28.35
-34.33
-40.7
-47.63
-54.77
-60.96
-64.48
-63.44
-56.65
-44.08
-26.98
-7.49
12.06
29.7
44.18
55.0
62.19
66.09
67.17
65.98
63.17
59.44
55.43
51.64
48.26
45.27
42.45
39.57
