20.48
19.89
19.49
18.9
17.71
15.71
12.93
9.65
6.19
2.81
-0.46
-3.74
-7.17
-10.9
-15.03
-19.64
-24.87
-30.85
-37.46
-44.17
-50.02
-53.79
-54.32
-50.87
-43.35
-32.42
-19.33
-5.62
7.15
17.82
25.73
30.8
33.43
34.18
33.66
32.28
30.35
28.14
25.95
24.12
22.84
22.11
21.66
21.07
19.88
17.89
15.11
11.79
8.21
4.57
0.87
-2.96
-6.99
-11.22
-15.59
-20.11
-24.96
-30.42
-36.78
-44.03
-51.63
-58.52
-63.32
-64.8
-62.26
-55.76
-46.0
-34.06
-21.12
-8.16
3.98
14.65
23.32
29.66
33.6
35.45
35.76
35.16
34.19
33.21
32.35
31.63
30.96
30.26
29.37
28.14
26.47
24.34
21.76
18.82
15.54
11.89
7.85
3.45
-1.21
-6.03
-10.94
-16.03
-21.52
-27.65
-34.56
-42.12
-49.85
-56.99
-62.54
-65.49
-64.99
-60.58
-52.4
-41.16
-28.07
-14.5
-1.72
9.33
18.11
24.5
28.58
30.65
31.11
30.44
29.15
27.66
26.26
25.06
24.03
23.08
22.11
21.0
19.63
17.81
15.43
12.42
8.86
4.91
0.76
-3.45
-7.71
-12.12
-16.84
-22.01
-27.72
-33.93
-40.35
-46.46
-51.49
-54.58
-54.93
-52.11
-46.1
-37.39
-26.87
-15.52
-4.34
5.86
14.44
20.98
25.31
27.44
27.66
26.38
24.18
21.58
19.06
16.91
15.3
14.18
13.33
12.41
11.02
8.86
5.82
2.06
-2.14
-6.43
-10.57
-14.51
-18.33
-22.2
-26.35
-31.05
-36.56
-43.05
-50.41
-58.09
-64.99
-69.7
-70.83
-67.52
-59.74
-48.32
-34.71
-20.55
-7.25
4.24
13.43
20.25
24.85
27.51
28.64
28.63
27.91
26.81
25.56
24.28
23.03
21.79
20.53
19.2
17.64
15.71
13.26
10.22
6.64
2.65
-1.62
-6.12
-10.86
-15.95
-21.47
-27.5
-34.13
-41.45
-49.43
-57.82
-66.02
-72.96
-77.35
-78.03
-74.32
-66.33
-54.89
-41.29
-26.94
-12.98
-0.21
10.88
20.02
27.08
32.0
34.92
36.17
36.2
35.53
34.61
33.7
32.95
32.34
31.76
31.04
29.92
28.15
25.53
22.01
17.67
12.74
7.55
2.39
-2.51
-7.14
-11.69
-16.61
-22.42
-29.54
-38.01
-47.3
-56.31
-63.56
-67.57
-67.28
-62.3
-53.05
-40.61
-26.39
-11.83
1.89
13.93
23.83
31.36
36.52
39.48
40.54
40.18
38.98
37.54
36.31
35.5
35.01
34.58
33.85
32.57
30.69
28.23
25.32
22.02
18.4
14.47
10.23
5.68
0.73
-4.79
-11.17
-18.64
-27.25
-36.66
-46.0
-54.06
-59.39
-60.78
-57.53
-49.76
-38.32
-24.65
-10.32
3.23
14.98
24.41
31.35
35.91
38.36
39.1
38.62
37.42
36.02
34.79
33.94
33.43
33.06
32.49
31.4
29.51
26.7
22.98
18.5
13.51
8.23
2.8
-2.8
-8.8
-15.56
-23.47
-32.69
-42.98
-53.6
-63.32
-70.66
-74.23
-73.1
-67.0
-56.46
-42.6
-26.89
-10.78
4.51
18.08
29.33
37.87
43.55
46.52
47.24
46.46
45.02
43.68
42.86
42.56
42.47
42.09
40.98
38.86
35.68
31.59
26.85
21.73
16.48
11.25
6.08
0.87
-4.59
-10.63
-17.63
-25.89
-35.41
-45.76
-55.94
-64.46
-69.7
-70.27
-65.56
-55.87
-42.45
-27.01
-11.34
3.24
15.96
26.59
35.21
41.88
46.67
49.66
51.1
51.41
51.12
50.7
50.41
50.24
49.93
49.16
47.67
45.33
42.15
38.24
33.72
28.73
23.38
17.83
12.2
6.58
0.83
-5.41
-12.66
-21.36
-31.52
-42.51
-53.06
-61.53
-66.35
-66.52
-61.77
-52.6
-40.09
-25.56
-10.36
4.25
17.28
28.09
36.34
42.07
45.57
47.3
47.75
47.37
46.51
45.37
44.13
42.82
41.47
40.0
38.35
36.41
34.09
31.38
28.25
24.75
20.94
16.87
12.54
7.87
2.75
-3.06
-9.79
-17.62
-26.5
-36.05
-45.42
-53.35
-58.42
-59.37
-55.58
-47.19
-35.22
-21.21
-6.84
6.49
17.88
26.96
33.74
38.36
41.03
41.92
41.32
39.68
37.58
35.57
34.03
33.01
32.26
31.38
29.96
27.76
24.76
21.12
17.12
12.97
8.84
4.75
0.58
-3.92
-9.08
-15.24
-22.63
-31.14
-40.3
-49.19
-56.59
-61.15
-61.79
-58.0
-49.94
-38.53
-25.07
-11.06
2.28
14.0
23.54
30.66
35.28
37.55
37.86
36.79
35.04
33.32
32.03
31.29
30.89
30.43
29.51
27.83
25.29
21.95
17.94
13.43
8.56
3.45
-1.76
-6.92
-12.0
-17.05
-22.35
-28.35
-35.51
-43.97
-53.31
-62.54
-70.14
-74.53
-74.45
-69.35
-59.54
-46.08
-30.57
-14.7
0.07
12.75
22.86
30.42
35.75
39.24
41.29
42.17
42.09
41.3
40.04
38.58
37.11
35.72
34.37
33.01
31.48
29.65
27.38
24.5
20.87
16.42
11.2
5.43
-0.6
-6.58
-12.4
-18.2
-24.37
-31.37
-39.51
-48.61
-57.89
-66.01
-71.42
-72.73
-69.17
-60.8
-48.46
-33.52
-17.5
-1.81
12.42
24.42
33.77
40.35
44.37
46.34
46.87
46.63
46.12
45.61
45.15
44.57
43.65
42.2
40.15
37.59
34.68
31.56
28.29
24.77
20.81
16.25
11.01
5.25
-0.78
-6.76
-12.53
-18.16
-23.92
-30.28
-37.56
-45.73
-54.18
-61.8
-67.17
-68.96
-66.37
-59.29
-48.37
-34.8
-20.05
-5.56
7.49
18.32
26.54
32.18
35.54
37.02
37.08
36.18
34.74
33.19
31.84
30.84
30.18
29.63
28.95
27.88
26.27
24.04
21.15
17.58
13.35
8.57
3.44
-1.84
-7.1
-12.3
-17.59
-23.15
-29.18
-35.69
-42.42
-48.72
-53.58
-55.8
-54.33
-48.71
-39.28
-27.22
-14.14
-1.6
9.31
18.11
24.76
29.42
32.16
33.05
32.23
30.11
27.33
24.61
22.5
21.13
20.3
19.53
18.35
16.42
13.61
9.99
5.77
1.22
-3.36
-7.79
-11.96
-16.01
-20.17
-24.83
-30.33
-36.83
-44.15
-51.69
-58.46
-63.25
-64.93
-62.79
-56.69
-47.15
-35.22
-22.15
-9.22
2.62
12.68
20.62
26.29
29.73
31.1
30.79
29.31
27.29
25.39
24.04
23.37
23.21
23.13
22.68
21.53
19.51
16.65
13.06
8.85
4.17
-0.83
-5.96
-11.07
-16.13
-21.35
-27.1
-33.83
-41.81
-50.81
-59.96
-67.92
-73.1
-74.18
-70.53
-62.35
-50.59
-36.69
-22.13
-8.14
4.43
15.13
23.79
30.46
35.19
38.16
39.59
39.8
39.2
38.16
37.05
36.05
35.2
34.41
33.48
32.22
30.43
27.98
24.73
20.64
15.77
10.25
4.35
-1.64
-7.51
-13.25
-19.11
-25.48
-32.75
-41.07
-50.17
-59.25
-67.07
-72.22
-73.51
-70.2
-62.31
-50.54
-36.13
-20.54
-5.08
9.21
21.65
31.85
39.64
45.0
48.09
49.29
49.16
48.32
47.3
46.42
45.75
45.2
44.55
43.63
42.36
40.71
38.74
36.47
33.91
31.01
27.74
24.08
20.07
15.8
11.31
6.6
1.56
-3.95
-10.09
-16.81
-23.76
-30.22
-35.13
-37.31
-35.78
-30.03
-20.26
-7.33
7.43
22.61
36.96
49.6
59.97
67.77
72.83
75.18
75.11
73.24
70.44
67.56
65.17
63.39
62.02
60.75
59.47
58.25
57.19
56.11
54.47
51.65
47.3
41.71
35.8
30.75
27.39
25.78
25.29
24.86
23.55
20.68
15.83
8.68
-1.04
-13.21
-26.96
-40.62
-52.19
-60.3
-65.16
-68.76
-74.08
-83.79
-98.88
-118.21
-139.09
-158.63
-174.97
-187.71
-197.49
-204.86
-209.49
-209.93
-204.41
-191.84
-172.65
-148.85
-123.39
-99.15
-78.07
-60.82
-47.0
-35.76
-26.25
-17.91
-10.58
-4.39
0.31
3.03
3.15
0.18
-6.07
-15.21
-26.11
-36.9
-45.26
-48.94
-46.39
-37.27
-22.62
-4.44
14.98
33.81
50.99
66.1
78.8
88.41
93.9
94.35
89.62
80.75
69.78
59.07
50.44
44.57
40.94
38.37
35.66
32.16
27.83
23.11
18.42
13.94
9.5
4.83
-0.16
-5.26
-10.02
-14.1
-17.43
-20.19
-22.48
-23.88
-23.31
-19.23
-10.35
3.77
22.24
43.05
63.67
81.73
95.61
104.56
108.57
108.08
103.79
96.62
87.52
77.37
66.72
55.7
44.11
31.7
18.46
4.83
-8.25
-19.57
-27.92
-32.4
-32.76
-29.51
-23.94
-18.03
-14.09
-14.3
-20.16
-32.05
-49.03
-68.98
-89.07
-106.51
-119.13
-125.77
-126.19
-120.76
-110.04
-94.6
-75.14
-52.77
-29.12
-6.22
13.94
29.87
40.8
46.8
48.59
47.31
44.34
41.08
38.75
38.06
39.1
41.34
43.88
45.88
46.75
46.25
44.31
40.82
35.57
28.4
19.38
8.88
-2.5
-14.14
-25.46
-35.91
-44.64
-50.47
-52.0
-48.18
-38.82
-24.93
-8.47
8.34
23.65
36.53
46.77
54.55
59.88
62.48
61.94
58.21
51.92
44.33
37.02
31.23
27.46
25.31
23.77
21.7
18.27
13.35
7.31
0.83
-5.46
-11.23
-16.47
-21.39
-26.32
-31.54
-37.21
-43.38
-49.86
-56.27
-61.94
-65.91
-67.21
-64.92
-58.6
-48.34
-34.84
-19.3
-3.14
12.3
25.99
37.29
45.95
51.98
55.56
57.01
56.75
55.32
53.31
51.25
49.47
48.01
46.66
45.03
42.73
39.49
35.26
30.2
24.61
18.76
12.86
6.89
0.61
-6.41
-14.59
-24.13
-34.77
-45.56
-54.82
-60.52
-60.79
-54.61
-42.25
-25.27
-6.04
12.98
29.9
43.75
54.33
61.87
66.69
69.01
69.04
67.09
63.69
59.57
55.48
51.97
49.31
47.43
46.01
44.63
42.9
40.59
37.61
34.07
30.09
25.83
21.4
16.86
12.28
7.69
3.12
-1.54
-6.53
-12.18
-18.62
-25.5
-31.65
-35.27
-34.4
-27.63
-14.8
2.89
23.21
43.69
62.32
77.98
90.41
99.91
107.02
112.26
116.19
119.35
122.26
125.21
128.25
131.19
133.92
136.58
139.7
143.97
149.86
157.22
165.28
172.91
179.2
183.89
187.48
191.02
195.79
203.07
213.98
229.1
247.98
268.59
287.25
299.4
300.96
289.8
266.59
234.42
197.55
159.87
123.97
91.04
61.37
34.93
11.55
-9.24
-28.43
-47.33
-67.12
-88.22
-110.1
-131.54
-151.35
-169.08
-185.42
-201.97
-220.49
-242.07
-266.57
-292.83
-319.1
-344.0
-367.15
-389.25
-411.93
-437.34
-467.68
-504.51
-547.8
-594.87
-639.93
-675.01
-692.22
-686.6
-658.16
-611.99
-556.26
-499.16
-446.36
-400.11
-360.11
-325.17
-294.47
-267.55
-243.73
-221.32
-197.75
-170.53
-138.41
-101.99
-63.38
-25.44
9.68
41.24
70.04
98.02
127.52
160.49
197.78
238.59
280.28
318.83
349.81
369.81
377.69
374.95
365.09
352.06
338.81
326.48
314.79
303.17
291.8
282.04
276.02
275.67
281.9
294.36
311.71
332.27
354.43
376.79
398.07
416.76
431.05
439.07
439.35
431.38
415.92
394.9
370.92
346.48
323.35
302.14
282.51
263.43
243.77
222.7
199.94
175.78
150.91
126.2
102.37
79.86
58.59
38.11
17.7
-3.21
-24.79
-46.76
-68.49
-89.3
-108.81
-127.15
-144.88
-162.85
-182.03
-203.4
-227.78
-255.39
-285.28
-314.9
-340.43
-357.81
-364.31
-359.69
-346.31
-328.0
-308.38
-289.56
-271.83
-254.54
-237.14
-219.88
-203.68
-189.39
-177.23
-166.6
-156.65
-146.77
-136.96
-127.64
-119.45
-112.94
-108.39
-105.79
-104.75
-104.37
-103.22
-99.68
-92.44
-81.02
-66.0
-48.72
-30.7
-12.96
4.26
21.28
38.46
55.64
71.96
86.14
97.12
104.4
108.15
108.91
107.12
102.95
96.43
87.82
77.77
67.29
57.3
48.22
39.84
31.53
22.79
13.53
4.13
-5.01
-13.76
-22.49
-31.74
-41.75
-52.01
-61.25
-67.7
-69.78
-66.64
-58.44
-46.39
-32.49
-18.99
-8.08
-1.31
0.54
-2.38
-9.34
-19.24
-30.95
-43.37
-55.43
-66.07
-74.4
-79.92
-82.71
-83.44
-82.98
-82.08
-81.01
-79.59
-77.48
-74.46
-70.56
-66.1
-61.46
-57.02
-53.13
-49.98
-47.64
-45.99
-44.51
-42.37
-38.55
-32.14
-22.6
-10.16
3.95
17.63
28.11
32.6
29.02
16.72
-3.21
-28.04
-54.19
-78.11
-97.44
-111.75
-122.54
-132.74
-145.68
-164.12
-189.22
-219.77
-251.9
-279.57
-296.05
-295.86
-276.91
-241.43
-195.67
-148.09
-106.61
-76.11
-57.15
-46.16
-36.92
-22.98
0.12
33.37
74.17
117.55
158.32
193.22
222.01
247.0
271.06
295.68
319.84
340.58
354.27
358.15
351.06
333.47
307.16
274.85
240.14
207.29
180.5
162.86
155.31
156.22
161.83
167.29
167.98
160.66
144.27
120.23
92.26
65.61
45.76
36.76
39.84
52.92
71.23
88.95
100.8
103.62
96.83
82.0
61.82
39.03
15.72
-6.77
-27.65
-46.39
-62.46
-75.44
-85.11
-91.47
-94.92
-96.16
-96.08
-95.69
-95.98
-97.83
-101.77
-107.92
-116.03
-125.53
-135.81
-146.35
-156.66
-166.12
-173.83
-178.4
-178.21
-171.72
-157.94
-136.94
-110.05
-79.71
-48.95
-20.74
2.78
20.45
32.16
38.4
40.05
38.06
33.62
27.99
22.48
18.11
15.23
13.42
11.68
8.88
4.34
-1.87
-9.09
-16.39
-23.09
-28.99
-34.41
-39.99
-46.37
-53.96
-62.66
-71.72
-79.76
-84.8
-84.77
-78.12
-64.33
-44.38
-20.66
3.77
25.79
43.17
54.83
60.8
61.85
58.95
53.08
45.12
36.02
26.84
18.63
12.15
7.59
4.51
2.07
-0.59
-4.04
-8.31
-13.08
-17.94
-22.76
-27.8
-33.63
-40.87
-49.74
-59.63
-68.96
-75.44
-76.59
-70.56
-56.95
-36.99
-13.38
10.53
31.57
47.56
57.52
61.52
60.33
55.08
47.05
37.56
28.01
19.58
13.06
8.6
5.76
3.7
1.58
-1.1
-4.44
-8.14
-11.91
-15.66
-19.71
-24.68
-31.31
-40.02
-50.6
-61.98
-72.16
-78.56
-78.68
-70.82
-54.9
-32.56
-6.91
18.45
40.3
56.5
66.23
69.73
67.92
62.04
53.48
43.65
33.93
25.4
18.63
13.63
9.9
6.83
3.85
0.66
-2.83
-6.55
-10.52
-14.85
-19.9
-26.14
-34.12
-44.09
-55.7
-67.64
-77.52
-82.38
-79.52
-67.58
-47.17
-21.02
6.86
32.38
52.52
65.89
72.61
73.8
70.71
64.57
56.43
47.36
38.47
30.77
24.8
20.47
17.13
13.89
10.07
5.47
0.4
-4.58
-9.11
-13.29
-17.86
-23.84
-32.18
-43.11
-55.81
-68.28
-77.67
-81.07
-76.41
-63.21
-42.88
-18.36
6.83
29.54
47.76
60.79
68.87
72.62
72.59
69.21
63.0
54.87
46.17
38.33
32.35
28.35
25.56
22.8
18.98
13.78
7.61
1.42
-3.92
-8.15
-11.77
-15.87
-21.72
-30.24
-41.54
-54.77
-67.92
-78.25
-82.88
-79.62
-67.79
-48.57
-24.76
0.16
23.04
41.88
56.05
65.85
71.87
74.46
73.76
69.86
63.35
55.35
47.34
40.64
35.97
33.19
31.44
29.55
26.53
21.94
15.97
9.25
2.49
-3.77
-9.41
-14.73
-20.27
-26.61
-34.26
-43.54
-54.39
-66.19
-77.54
-86.2
-89.5
-85.09
-71.88
-50.69
-24.23
3.67
29.25
49.89
64.53
73.45
77.71
78.32
76.06
71.58
65.51
58.68
52.03
46.32
41.87
38.61
36.1
33.85
31.41
28.49
24.95
20.72
15.81
10.27
4.29
-1.91
-8.04
-13.95
-19.67
-25.43
-31.7
-39.06
-48.03
-58.81
-70.9
-82.76
-91.82
-95.09
-90.0
-75.45
-52.5
-24.12
5.51
32.3
53.32
67.42
74.95
77.21
75.62
71.38
65.36
58.28
50.97
44.28
38.93
35.24
33.0
31.57
30.22
28.41
25.96
22.92
19.36
15.14
9.98
3.63
-3.83
-11.95
-19.97
-27.17
-33.14
-38.09
-42.79
-48.33
-55.76
-65.53
-77.09
-88.61
-97.17
-99.41
-92.73
-76.22
-51.38
-21.69
8.36
34.67
54.64
67.45
73.69
74.57
71.37
65.13
56.84
47.69
39.03
32.2
27.98
26.43
26.8
27.83
28.13
26.61
22.8
16.91
9.7
2.18
-4.72
-10.53
-15.31
-19.63
-24.29
-30.04
-37.4
-46.51
-57.03
-68.02
-77.89
-84.38
-85.01
-77.77
-62.03
-39.03
-11.74
15.88
40.0
58.02
68.98
73.37
72.56
68.04
61.12
52.89
44.34
36.46
30.13
25.94
23.91
23.43
23.49
22.87
20.64
16.45
10.53
3.63
-3.32
-9.64
-15.1
-19.94
-24.74
-30.17
-36.78
-44.99
-54.89
-66.15
-77.76
-87.76
-93.48
-92.19
-82.01
-62.89
-36.9
-7.82
20.05
43.12
59.43
68.84
72.4
71.7
68.13
62.68
56.04
48.92
42.06
36.26
32.12
29.8
28.97
28.86
28.48
26.98
23.82
18.98
12.84
5.98
-1.01
-7.8
-14.26
-20.45
-26.56
-32.85
-39.73
-47.7
-57.18
-68.09
-79.42
-89.03
-93.98
-91.32
-79.26
-58.03
-30.05
0.62
29.54
53.16
69.64
78.93
82.24
81.26
77.43
71.73
64.78
57.18
49.6
42.87
37.64
34.14
32.17
31.02
29.84
27.89
24.73
20.34
14.97
9.03
2.83
-3.39
-9.58
-15.77
-22.06
-28.66
-35.79
-43.81
-53.1
-63.83
-75.54
-86.78
-95.09
-97.43
-91.14
-75.06
-50.29
-20.08
11.0
38.56
59.59
73.02
79.52
80.66
78.09
73.0
66.23
58.43
50.38
43.02
37.09
32.91
30.28
28.59
27.03
25.03
22.23
18.55
14.05
8.78
2.79
-3.83
-10.82
-17.84
-24.46
-30.48
-36.01
-41.64
-48.26
-56.66
-67.03
-78.49
-88.91
-95.29
-94.54
-84.57
-65.22
-38.52
-8.26
21.08
45.64
63.05
72.71
75.53
73.09
67.1
59.02
50.03
41.18
33.47
27.73
24.4
23.38
23.87
24.71
24.61
22.6
18.28
12.02
4.72
-2.52
-8.82
-13.89
-18.08
-22.21
-27.21
-33.82
-42.29
-52.41
-63.39
-73.83
-81.82
-85.03
-81.36
-69.61
-50.18
-25.24
1.69
26.76
46.94
60.67
67.9
69.58
66.88
60.81
52.21
42.08
31.72
22.72
16.43
13.46
13.41
14.86
16.01
15.32
11.99
6.22
-1.06
-8.6
-15.38
-20.9
-25.35
-29.4
-34.01
-40.16
-48.5
-59.13
-71.28
-83.1
-91.84
-94.42
-88.45
-73.12
-49.75
-21.54
7.4
33.2
53.25
66.56
73.41
74.7
71.49
64.65
55.2
44.43
34.0
25.56
20.3
18.49
19.29
21.16
22.3
21.37
17.88
12.29
5.64
-0.92
-6.61
-11.38
-15.74
-20.65
-27.02
-35.56
-46.53
-59.57
-73.5
-86.21
-94.87
-96.55
-89.16
-72.38
-48.0
-19.55
8.73
33.21
51.73
63.8
70.17
72.04
70.45
66.06
59.43
51.33
42.9
35.5
30.31
27.79
27.51
28.19
28.21
26.25
21.86
15.47
8.25
1.35
-4.54
-9.47
-14.21
-19.79
-27.13
-36.79
-48.74
-62.31
-76.06
-87.82
-94.9
-94.72
-85.67
-67.85
-43.33
-15.67
11.19
34.1
51.44
63.09
69.88
72.81
72.6
69.59
64.16
57.01
49.28
42.27
37.0
33.82
32.37
31.74
30.88
28.98
25.67
21.07
15.63
9.92
4.32
-1.03
-6.34
-12.03
-18.62
-26.54
-36.08
-47.21
-59.37
-71.36
-81.17
-86.25
-84.23
-73.68
-54.9
-30.11
-2.86
23.03
44.56
60.2
69.98
74.74
75.66
73.6
69.19
62.99
55.78
48.5
42.17
37.43
34.34
32.39
30.71
28.4
24.88
20.1
14.4
8.41
2.66
-2.54
-7.26
-11.83
-16.65
-22.08
-28.35
-35.66
-44.19
-54.11
-65.2
-76.55
-86.28
-91.76
-90.29
-80.14
-61.39
-36.24
-8.46
17.79
39.25
54.33
63.06
66.51
65.99
62.45
56.6
49.1
41.02
33.72
28.47
25.94
25.81
26.91
27.73
27.04
24.29
19.81
14.37
8.82
3.65
-1.11
-5.71
-10.52
-15.76
-21.6
-28.22
-35.95
-45.14
-55.82
-67.13
-77.12
-83.03
-82.02
-72.32
-54.11
-29.7
-2.85
22.42
43.01
57.37
65.47
68.19
66.69
61.99
54.99
46.65
38.14
30.72
25.42
22.66
22.17
23.06
24.09
24.1
22.35
18.6
13.19
6.8
0.27
-5.74
-10.88
-15.28
-19.36
-23.71
-28.94
-35.58
-44.04
-54.5
-66.59
-79.01
-89.42
-94.72
-91.97
-79.64
-58.35
-31.0
-1.86
24.77
45.87
60.29
68.44
71.58
71.02
67.73
62.46
55.93
49.05
42.79
37.91
34.7
32.88
31.8
30.72
28.97
26.22
22.36
17.5
11.89
5.77
-0.61
-7.06
-13.42
-19.58
-25.5
-31.29
-37.31
-44.19
-52.61
-62.93
-74.66
-86.1
-94.43
-96.46
-89.68
-73.41
-49.21
-20.62
8.07
33.01
51.91
64.19
70.74
72.93
72.04
68.98
64.33
58.71
52.84
47.5
43.23
40.2
38.13
36.51
34.85
32.87
30.58
27.96
24.91
21.1
16.12
9.74
2.17
-6.0
-13.98
-21.01
-26.82
-31.74
-36.72
-43.04
-51.79
-63.33
-76.71
-89.62
-98.71
-100.54
-92.77
-75.14
-49.72
-20.36
8.57
33.41
52.03
63.94
69.83
70.94
68.55
63.73
57.52
50.88
44.79
40.0
36.87
35.28
34.72
34.51
34.01
32.83
30.85
28.08
24.54
20.14
14.75
8.33
1.07
-6.6
-14.13
-21.03
-27.14
-32.78
-38.7
-45.92
-55.26
-66.83
-79.57
-91.06
-97.98
-97.16
-86.71
-66.95
-40.51
-11.56
15.54
37.53
52.83
61.55
64.71
63.63
59.48
53.2
45.78
38.34
32.01
27.68
25.65
25.59
26.61
27.66
27.79
26.47
23.61
19.46
14.4
8.79
2.88
-3.22
-9.43
-15.69
-21.85
-27.86
-33.89
-40.4
-48.07
-57.37
-68.08
-78.79
-86.92
-89.28
-83.23
-67.78
-44.28
-16.21
11.98
36.27
54.2
65.21
70.13
70.4
67.28
61.67
54.3
46.03
37.95
31.15
26.41
23.83
22.93
22.8
22.5
21.31
18.81
14.93
9.86
3.96
-2.32
-8.57
-14.5
-20.04
-25.3
-30.65
-36.62
-43.84
-52.83
-63.74
-75.96
-87.81
-96.64
-99.41
-93.61
-78.28
-54.62
-25.85
3.73
30.03
50.26
63.42
70.1
71.68
69.65
65.18
59.06
52.03
44.88
38.5
33.67
30.75
29.58
29.5
29.55
28.85
26.76
23.06
17.93
11.75
4.98
-1.96
-8.8
-15.37
-21.65
-27.75
-33.91
-40.59
-48.4
-57.9
-69.2
-81.5
-92.79
-100.08
-100.21
-91.01
-72.3
-46.27
-16.88
11.36
34.78
51.46
61.28
65.34
65.06
61.64
55.88
48.49
40.41
32.71
26.42
22.1
19.56
18.06
16.56
14.28
10.92
6.7
2.09
-2.48
-6.76
-10.77
-14.65
-18.52
-22.43
-26.39
-30.53
-35.14
-40.8
-48.16
-57.66
-69.0
-80.9
-90.97
-96.26
-94.11
-83.21
-64.21
-39.65
-13.24
11.4
31.68
46.54
56.18
61.49
63.31
62.24
58.75
53.44
47.27
41.37
36.77
33.93
32.63
32.05
31.22
29.36
26.12
21.62
16.17
10.14
3.66
-3.31
-10.9
-19.08
-27.58
-35.96
-43.79
-50.86
-57.39
-63.86
-70.66
-77.61
-83.55
-86.32
-83.39
-72.74
-53.84
-28.21
0.98
29.74
54.54
73.27
85.46
91.9
93.83
92.27
87.83
80.98
72.32
62.99
54.27
47.35
42.69
39.99
38.32
36.49
33.55
29.04
22.96
15.63
7.56
-0.76
-8.88
-16.44
-23.21
-29.23
-34.85
-40.73
-47.68
-56.44
-67.22
-79.3
-90.85
-99.03
-100.69
-93.35
-76.18
-50.59
-19.97
11.28
39.04
60.54
74.75
82.17
84.14
82.13
77.39
70.94
63.65
56.39
50.0
45.06
41.77
39.8
38.45
36.84
34.2
30.09
24.49
17.78
10.45
3.0
-4.31
-11.34
-18.07
-24.51
-30.72
-36.99
-43.9
-52.21
-62.5
-74.54
-86.93
-97.01
-101.47
-97.28
-82.93
-59.11
-28.79
3.68
33.79
58.14
75.11
84.87
88.68
88.08
84.36
78.48
71.29
63.77
56.93
51.62
48.13
46.1
44.66
42.89
40.15
36.28
31.51
26.17
20.46
14.37
7.75
0.48
-7.37
-15.57
-23.83
-31.95
-40.03
-48.48
-57.91
-68.63
-80.22
-91.23
-99.29
-101.7
-96.33
-82.52
-61.36
-35.54
-8.55
16.33
36.69
51.38
60.36
64.34
64.34
61.47
56.75
51.1
45.37
40.24
36.23
33.53
32.04
31.28
30.59
29.26
26.68
22.57
16.9
10.02
2.44
-5.21
-12.42
-18.78
-24.21
-28.93
-33.44
-38.56
-45.15
-53.87
-64.68
-76.61
-87.51
-94.54
-94.83
-86.5
-69.43
-45.43
-17.78
9.75
33.91
52.7
65.39
72.3
74.31
72.49
67.97
61.87
55.25
48.96
43.58
39.29
35.99
33.48
31.5
29.84
28.17
26.05
23.0
18.68
13.01
6.32
-0.86
-8.01
-14.78
-21.13
-27.25
-33.47
-40.18
-47.82
-56.76
-67.08
-78.33
-89.16
-97.34
-100.19
-95.31
-81.5
-59.42
-31.63
-1.85
25.97
48.79
64.95
74.27
77.64
76.45
72.15
66.09
59.47
53.32
48.42
45.1
43.21
42.15
41.19
39.67
37.37
34.38
31.0
27.39
23.44
18.78
12.93
5.71
-2.64
-11.44
-19.92
-27.47
-33.98
-39.84
-45.92
-53.21
-62.45
-73.59
-85.55
-96.21
-102.65
-102.09
-92.73
-74.54
-49.45
-20.76
7.7
32.67
52.11
65.25
72.41
74.46
72.45
67.54
60.97
53.99
47.73
43.06
40.2
38.77
37.96
36.93
35.22
32.86
30.26
27.78
25.45
22.79
19.08
13.74
6.71
-1.53
-10.1
-18.1
-24.97
-30.62
-35.5
-40.47
-46.58
-54.72
-65.15
-77.11
-88.58
-96.71
-98.5
-91.93
-76.69
-54.38
-28.05
-1.22
23.08
42.96
57.58
66.94
71.39
71.49
67.97
61.94
54.78
47.96
42.62
39.21
37.47
36.6
35.69
34.16
31.89
29.12
26.14
23.07
19.67
15.56
10.41
4.19
-2.7
-9.64
-16.0
-21.46
-26.11
-30.53
-35.53
-41.96
-50.39
-60.78
-72.25
-82.91
-90.17
-91.33
-84.47
-69.24
-47.18
