29.78
45.43
56.71
63.79
67.02
66.85
63.92
59.12
53.59
48.48
44.65
42.41
41.48
41.08
40.3
38.37
34.94
30.06
24.07
17.34
10.11
2.51
-5.47
-13.7
-22.0
-30.21
-38.34
-46.76
-56.01
-66.41
-77.49
-87.61
-94.18
-94.46
-86.6
-70.65
-48.68
-24.17
-0.76
18.86
33.51
43.38
49.29
52.08
52.25
50.18
46.37
41.66
37.08
33.45
31.16
30.03
29.53
28.96
27.68
25.25
21.46
16.33
10.07
3.08
-4.18
-11.33
-18.14
-24.62
-31.01
-37.66
-44.93
-53.01
-61.84
-70.87
-78.93
-84.29
-84.99
-79.48
-67.21
-49.17
-27.63
-5.61
14.06
29.41
39.69
45.16
46.59
44.93
41.01
35.65
29.73
24.2
19.88
17.15
15.84
15.27
14.53
12.78
9.56
4.79
-1.18
-7.78
-14.44
-20.67
-26.29
-31.38
-36.34
-41.84
-48.54
-56.9
-66.79
-77.23
-86.41
-91.98
-91.69
-84.1
-69.22
-48.55
-24.76
-0.89
20.44
37.64
50.15
58.18
62.32
63.11
61.1
56.87
51.24
45.21
39.82
35.81
33.48
32.53
32.22
31.57
29.67
25.99
20.54
13.82
6.59
-0.46
-6.97
-13.02
-18.97
-25.39
-32.8
-41.67
-52.29
-64.58
-77.67
-89.66
-97.83
-99.24
-91.97
-75.88
-52.96
-26.65
-0.71
22.03
40.24
53.89
63.69
70.25
73.83
74.5
72.45
68.39
63.39
58.63
54.89
52.41
50.86
49.6
47.98
45.54
42.01
37.34
31.62
24.98
17.61
9.7
1.51
-6.7
-14.68
-22.34
-29.91
-37.95
-47.28
-58.47
-71.41
-84.7
-95.71
-101.15
-98.13
-85.44
-64.09
-37.11
-8.54
17.94
39.98
56.83
68.9
77.01
81.78
83.5
82.4
79.04
74.39
69.61
65.57
62.58
60.37
58.36
56.07
53.31
50.1
46.5
42.41
37.51
31.49
24.26
16.07
7.45
-1.06
-9.08
-16.56
-23.79
-31.24
-39.52
-49.25
-60.66
-73.26
-85.38
-94.39
-97.19
-91.44
-76.56
-54.12
-27.52
-0.76
22.71
40.86
53.19
60.21
62.72
61.57
57.49
51.31
44.17
37.37
32.05
28.8
27.56
27.6
27.89
27.43
25.54
22.01
17.04
11.11
4.72
-1.72
-7.97
-13.99
-19.87
-25.84
-32.23
-39.55
-48.29
-58.76
-70.71
-83.09
-93.88
-100.37
-99.94
-90.97
-73.63
-49.99
-23.53
1.96
23.4
39.17
49.17
54.18
55.33
53.52
49.44
43.72
37.3
31.4
27.17
25.33
25.76
27.51
29.16
29.35
27.25
22.84
16.71
9.79
2.93
-3.45
-9.34
-15.11
-21.28
-28.33
-36.6
-46.26
-57.26
-69.25
-81.38
-92.03
-98.88
-99.43
-91.7
-75.18
-51.41
-23.66
3.95
27.81
45.81
57.59
64.09
66.74
66.63
64.4
60.35
54.9
48.77
42.92
38.23
35.14
33.56
32.84
32.16
30.64
27.7
23.11
17.02
9.92
2.44
-4.8
-11.46
-17.48
-23.13
-28.95
-35.59
-43.72
-53.82
-65.86
-79.04
-91.49
-100.48
-102.97
-96.64
-80.84
-57.06
-28.64
0.27
26.0
46.27
60.53
69.45
74.16
75.65
74.52
71.24
66.44
61.0
55.91
51.88
49.08
47.14
45.4
43.25
40.36
36.64
32.1
26.7
20.36
13.09
5.16
-2.87
-10.41
-17.03
-22.77
-28.15
-33.97
-41.1
-50.15
-61.22
-73.65
-85.79
-95.07
-98.56
-93.84
-79.91
-57.86
-30.62
-2.11
23.96
45.09
60.33
69.98
75.01
76.45
75.2
72.05
67.79
63.18
58.92
55.39
52.67
50.55
48.72
46.86
44.69
42.03
38.73
34.67
29.75
23.95
17.37
10.19
2.67
-4.91
-12.34
-19.59
-26.89
-34.76
-43.85
-54.68
-67.12
-79.95
-90.79
-96.57
-94.5
-83.2
-63.4
-37.92
-10.73
14.29
34.48
48.8
57.6
61.85
62.54
60.35
55.79
49.48
42.3
35.32
29.47
25.25
22.59
20.96
19.58
17.75
15.03
11.24
6.4
0.62
-5.91
-12.94
-20.12
-27.08
-33.58
-39.65
-45.76
-52.7
-61.3
-71.91
-83.94
-95.59
-104.04
-106.19
-99.78
-84.28
-61.37
-34.48
-7.68
15.63
33.53
45.72
52.96
56.27
56.42
53.84
48.96
42.53
35.71
29.76
25.62
23.59
23.29
23.82
24.17
23.42
21.07
16.96
11.32
4.65
-2.53
-9.78
-16.93
-24.06
-31.47
-39.57
-48.83
-59.54
-71.62
-84.3
-95.85
-103.67
-104.87
-97.23
-80.21
-55.51
-26.67
1.98
26.74
45.59
58.34
66.03
69.94
70.93
69.26
65.09
58.87
51.58
44.53
38.8
34.88
32.57
31.16
29.79
27.82
24.96
21.14
16.49
11.11
5.06
-1.55
-8.61
-15.98
-23.51
-31.17
-39.13
-47.78
-57.61
-68.82
-80.87
-92.13
-100.0
-101.53
-94.51
-78.42
-54.79
-26.9
1.29
26.32
46.05
59.93
68.53
72.89
73.99
72.49
68.93
63.9
58.25
52.89
48.55
45.56
43.66
42.24
40.56
38.02
34.36
29.58
23.86
17.38
10.4
3.15
-4.08
-11.03
-17.6
-23.91
-30.3
-37.26
-45.39
-55.12
-66.45
-78.46
-89.12
-95.45
-94.31
-83.61
-63.37
-36.02
-5.76
22.78
46.11
62.6
72.52
77.23
78.25
76.81
73.65
69.38
64.7
60.32
56.83
54.38
52.72
51.28
49.5
47.0
43.76
39.88
35.41
30.32
24.44
17.68
10.05
1.83
-6.59
-14.86
-22.9
-30.89
-39.29
-48.73
-59.77
-72.55
-86.29
-99.07
-107.96
-109.83
-102.45
-85.59
-61.38
-33.72
-7.05
15.07
30.82
40.22
44.42
44.86
42.73
38.79
33.62
27.94
22.59
18.37
15.68
14.34
13.64
12.67
10.71
7.57
3.52
-0.78
-4.7
-7.73
-9.7
-10.82
-11.64
-12.97
-15.75
-20.85
-28.72
-39.31
-51.82
-64.65
-75.62
-82.28
-82.39
-74.53
-58.67
-36.39
-10.68
14.87
37.06
53.93
64.91
70.56
71.83
69.54
64.31
56.74
47.76
38.67
30.89
25.46
22.73
22.3
23.26
24.6
25.42
25.04
22.9
18.66
12.22
3.88
-5.73
-15.87
-25.85
-35.31
-44.15
-52.54
-60.77
-69.11
-77.41
-84.71
-89.15
-88.11
-79.12
-60.96
-34.56
-3.05
29.07
57.4
78.93
92.61
99.08
99.87
96.55
90.43
82.5
73.69
64.97
57.24
51.09
46.71
43.84
41.88
40.08
37.78
34.4
29.62
23.36
15.87
7.66
-0.58
-8.26
-15.03
-20.93
-26.4
-32.1
-38.81
-47.21
-57.7
-70.07
-83.3
-95.31
-103.22
-104.06
-95.7
-77.91
-52.65
-23.64
4.89
29.41
48.08
60.79
68.58
72.81
74.48
74.04
71.64
67.58
62.46
57.12
52.36
48.59
45.72
43.2
40.35
36.62
31.76
25.8
18.91
11.23
2.77
-6.35
-15.89
-25.31
-33.93
-41.3
-47.59
-53.73
-61.2
-71.36
-84.69
-100.11
-114.9
-125.33
-127.79
-120.03
-102.04
-76.15
-46.26
-16.64
9.24
29.37
43.26
51.43
54.87
54.6
51.5
46.47
40.5
34.66
29.9
26.89
25.75
26.12
27.16
27.81
27.03
24.16
19.07
12.31
4.78
-2.59
-9.23
-15.12
-20.7
-26.62
-33.48
-41.69
-51.41
-62.49
-74.3
-85.46
-93.83
-96.8
-92.09
-78.78
-57.9
-32.32
-5.9
17.78
36.46
49.52
57.65
61.95
63.3
62.12
58.55
52.95
46.14
39.37
33.88
30.51
29.36
29.79
30.71
30.89
29.42
25.88
20.44
13.73
6.56
-0.33
-6.51
-11.99
-17.13
-22.57
-29.05
-37.31
-47.86
-60.67
-74.83
-88.31
-98.12
-101.04
-94.7
-78.57
-54.45
-25.96
2.52
27.27
46.15
58.77
65.92
68.88
68.75
66.27
62.06
56.76
51.13
45.91
41.63
38.51
36.44
35.09
33.94
32.46
30.11
26.45
21.19
14.25
5.84
-3.7
-13.89
-24.27
-34.48
-44.25
-53.55
-62.56
-71.71
-81.53
-92.3
-103.56
-113.79
-120.37
-120.23
-110.86
-91.38
-63.17
-29.64
4.75
35.82
60.75
78.5
89.36
94.4
94.89
92.04
87.02
81.0
75.08
69.93
65.69
62.01
58.27
54.02
49.09
43.59
37.63
31.17
23.94
15.56
5.77
-5.43
-17.69
-30.42
-42.89
-54.5
-65.07
-74.99
-85.28
-97.18
-111.58
-128.39
-146.03
-161.39
-170.39
-168.93
-154.07
-125.09
-83.82
-34.41
17.84
67.76
111.43
146.71
173.01
190.67
200.3
202.44
197.74
187.19
172.42
155.47
138.4
122.68
108.91
96.76
85.41
74.05
62.31
50.4
38.94
28.46
18.95
9.73
-0.37
-12.39
-26.78
-43.08
-60.15
-76.71
-91.71
-104.45
-114.28
-120.18
-120.68
-114.31
-100.44
-79.84
-54.87
-28.85
-4.99
14.47
28.63
37.72
42.53
43.93
42.67
39.38
34.77
29.71
25.08
21.59
19.56
18.84
18.86
18.87
18.13
16.1
12.46
7.18
0.41
-7.46
-15.89
-24.2
-31.78
-38.37
-44.23
-50.22
-57.5
-67.17
-79.6
-93.98
-108.07
-118.56
-121.88
-115.46
-98.71
-73.47
-43.44
-12.96
14.27
36.14
52.26
63.31
70.26
73.89
74.65
72.92
69.33
64.73
60.02
55.9
52.64
50.22
48.32
46.5
44.3
41.31
37.27
32.06
25.8
18.75
11.22
3.55
-4.03
-11.37
-18.4
-25.27
-32.43
-40.64
-50.68
-62.75
-75.91
-87.78
-94.98
-94.17
-83.37
-62.94
-35.66
-5.88
21.94
44.57
60.77
71.06
76.94
79.9
80.81
79.92
77.19
72.8
67.34
61.73
56.74
52.78
49.65
46.85
43.78
40.07
35.57
30.29
24.28
17.5
9.94
1.58
-7.46
-17.01
-26.91
-37.07
-47.61
-58.78
-70.91
-83.97
-97.2
-108.82
-116.18
-116.47
-107.79
-90.06
-65.32
-37.22
-9.74
13.88
31.94
44.16
51.16
53.8
52.79
48.77
42.55
35.25
28.23
22.79
19.73
19.11
20.16
21.5
21.62
19.36
14.35
7.14
-1.04
-8.88
-15.41
-20.42
-24.4
-28.22
-32.86
-39.12
-47.6
-58.43
-71.09
-84.03
-94.69
-99.84
-96.63
-83.68
-61.81
-34.03
-4.58
22.47
44.36
60.13
70.27
75.9
78.03
77.23
73.77
68.12
61.14
54.05
48.03
43.8
41.44
40.29
39.45
37.99
35.31
31.16
25.58
18.81
11.18
3.12
-5.0
-12.86
-20.42
-27.87
-35.74
-44.72
-55.36
-67.74
-81.06
-93.35
-101.77
-103.21
-95.36
-77.78
-52.26
-22.46
7.17
32.79
52.14
64.86
71.87
74.61
74.32
71.79
67.59
62.33
56.87
52.14
48.8
47.03
46.45
46.25
45.53
43.6
40.2
35.45
29.72
23.48
17.05
10.55
3.95
-2.77
-9.65
-16.76
-24.31
-32.82
-42.95
-55.12
-68.88
-82.5
-92.94
-96.67
-90.91
-74.87
-50.35
-21.17
8.08
33.53
53.08
66.46
74.55
78.57
79.37
77.38
72.89
66.42
58.89
51.45
45.11
40.44
37.38
35.38
33.61
31.28
27.89
23.29
17.64
11.19
4.23
-3.1
-10.67
-18.37
-26.11
-33.93
-42.16
-51.41
-62.32
-75.05
-88.68
-100.96
-108.69
-108.66
-98.91
-79.67
-53.52
-24.56
2.93
25.74
42.41
53.0
58.43
59.73
57.64
52.68
45.46
37.01
28.69
21.91
17.66
16.15
16.68
17.88
18.2
16.41
12.11
5.72
-1.77
-9.3
-16.18
-22.31
-28.06
-34.04
-40.76
-48.58
-57.69
-68.07
-79.29
-90.16
-98.51
-101.62
-96.88
-82.96
-60.62
-32.7
-3.42
23.03
43.71
57.62
65.33
68.27
67.73
64.51
59.04
51.86
43.93
36.64
31.22
28.28
27.42
27.4
26.74
24.34
19.95
14.04
7.48
0.94
-5.29
-11.36
-17.61
-24.27
-31.43
-39.13
-47.63
-57.41
-69.07
-82.61
-96.91
-109.41
-116.57
-114.97
-102.68
-80.35
-51.08
-19.57
9.54
33.15
50.14
61.16
67.5
70.27
70.01
66.99
61.65
54.96
48.21
42.57
38.63
36.3
35.0
33.99
32.67
30.67
27.74
23.74
18.59
12.32
5.13
-2.69
-10.82
-19.02
-27.18
-35.32
-43.62
-52.5
-62.56
-74.13
-86.78
-98.82
-107.33
-108.95
-101.15
-83.39
-57.55
-27.39
2.76
29.36
50.49
65.82
75.94
81.72
83.83
82.9
79.74
75.42
71.14
67.74
65.48
64.02
62.76
61.23
59.3
57.11
54.79
52.16
48.64
43.59
36.58
27.71
17.67
7.47
-2.02
-10.27
-17.34
-23.8
-30.5
-38.43
-48.37
-60.59
-74.38
-87.86
-98.06
-101.6
-95.82
-79.87
-55.3
-25.7
4.3
30.55
50.45
63.34
70.1
72.32
71.53
68.77
64.69
59.74
54.46
49.46
45.19
41.84
39.24
37.01
34.78
32.32
29.51
26.18
22.05
16.71
9.83
1.41
-8.12
-18.03
-27.51
-36.07
-43.75
-51.05
-58.84
-67.99
-79.05
-91.86
-105.2
-116.72
-123.27
-121.76
-110.24
-88.85
-60.08
-28.16
2.24
27.44
45.6
56.82
62.41
63.96
62.7
59.28
54.13
47.85
41.38
35.82
32.04
30.37
30.37
31.02
31.08
29.5
25.71
19.78
12.32
4.2
-3.78
-11.12
-17.75
-23.98
-30.32
-37.31
-45.43
-55.08
-66.44
-79.2
-92.25
-103.41
-109.74
-108.3
-97.31
-77.07
-50.13
-20.59
7.27
30.33
47.24
58.23
64.31
66.48
65.35
61.39
55.25
48.09
41.33
36.22
33.34
32.48
32.86
33.51
33.62
32.7
30.49
26.85
21.74
15.21
7.55
-0.76
-9.13
-17.05
-24.34
-31.21
-38.17
-45.94
-55.2
-66.31
-79.03
-92.14
-103.32
-109.46
-107.51
-95.58
-73.89
-45.06
-13.38
16.55
41.27
59.22
70.69
76.97
79.48
79.27
76.94
73.09
68.49
64.05
60.5
58.03
56.24
54.46
52.13
49.12
45.67
42.1
38.48
34.44
29.37
22.81
14.79
5.89
-2.93
-10.84
-17.43
-22.93
-28.1
-33.95
-41.43
-51.12
-62.86
-75.43
-86.48
-92.84
-91.39
-80.17
-59.34
-31.4
-0.42
29.25
54.28
73.17
86.02
93.88
97.88
98.87
97.44
94.26
90.23
86.42
83.59
81.97
81.2
80.67
79.96
79.02
78.14
77.54
77.1
76.26
74.2
70.22
64.08
56.14
47.22
38.27
30.12
23.16
17.27
11.84
5.94
-1.53
-11.47
-24.27
-39.39
-55.16
-68.89
-77.38
-77.79
-68.62
-50.33
-25.39
2.46
29.16
51.45
67.22
75.53
75.97
68.33
52.58
29.27
-0.04
-32.76
-65.82
-96.69
-124.28
-149.17
-173.05
-197.6
-223.44
-249.65
-274.14
-294.66
-309.87
-320.05
-327.06
-333.42
-341.2
-350.88
-361.06
-369.03
-372.05
-368.4
-357.96
-341.73
-321.14
-297.32
-270.97
-242.74
-213.55
-184.73
-157.59
-132.97
-110.94
-91.03
-72.79
-56.23
-41.89
-30.61
-23.12
-19.84
-20.92
-26.32
-35.85
-49.21
-65.87
-85.13
-106.27
-128.61
-151.51
-174.33
-196.23
-216.17
-232.89
-245.03
-251.39
-251.12
-243.88
-229.93
-209.97
-184.96
-155.94
-123.96
-89.98
-54.91
-19.74
14.48
46.71
76.02
101.85
124.06
142.94
159.07
173.01
185.17
195.59
204.09
210.38
214.32
216.03
215.91
214.6
212.9
211.71
211.91
214.02
217.84
222.25
225.35
225.17
220.4
211.05
198.42
184.39
170.58
157.69
145.4
132.85
119.34
104.73
89.47
74.43
60.54
48.68
39.65
34.06
32.15
33.62
37.57
42.65
47.55
51.36
53.86
55.56
57.47
60.89
67.08
76.91
90.53
107.17
125.06
141.86
155.18
163.29
165.63
162.92
156.77
149.1
141.52
134.86
129.16
123.92
118.49
112.42
105.55
97.96
89.78
81.06
71.69
61.51
50.56
39.24
28.34
19.0
12.43
9.54
10.66
15.5
23.25
32.92
43.57
54.47
65.05
74.68
82.64
88.15
90.65
90.04
86.85
82.09
76.89
72.16
68.37
65.46
63.06
60.74
58.18
55.35
52.4
49.55
46.95
44.53
42.01
39.06
35.29
30.41
24.27
16.93
8.74
0.44
-6.93
-12.18
-14.3
-12.83
-7.99
-0.69
7.83
16.35
24.01
30.32
35.08
38.24
39.83
40.0
39.13
37.71
36.3
35.22
34.52
33.95
33.16
31.89
30.06
27.8
25.26
22.52
19.58
16.33
12.64
8.4
3.51
-2.11
-8.45
-15.27
-22.03
-27.89
-31.9
-33.25
-31.6
-27.13
-20.53
-12.65
-4.25
4.16
12.24
19.7
26.06
30.76
33.34
33.64
32.01
29.23
26.23
23.74
22.05
20.91
19.75
18.0
15.32
11.79
7.83
3.93
0.37
-2.94
-6.44
-10.67
-15.97
-22.35
-29.47
-36.76
-43.53
-48.99
-52.35
-52.84
-49.87
-43.26
-33.38
-21.12
-7.67
5.69
17.87
28.04
35.63
40.41
42.5
42.35
40.67
38.28
35.85
33.76
32.02
30.34
28.36
25.76
22.37
18.24
13.6
8.76
4.04
-0.43
-4.69
-9.08
-14.08
-20.12
-27.34
-35.41
-43.4
-49.98
-53.68
-53.37
-48.61
-39.84
-28.19
-15.09
-1.93
10.31
21.06
30.06
37.16
42.15
44.85
45.25
43.65
40.72
37.33
34.28
32.05
30.65
29.63
28.39
26.39
23.36
19.43
14.94
10.32
5.86
1.58
-2.72
-7.33
-12.57
-18.65
-25.66
-33.43
-41.5
-49.0
-54.76
-57.56
-56.45
-51.12
-42.02
-30.23
-17.12
-4.04
8.03
18.47
26.98
33.46
37.92
40.45
41.26
40.74
39.3
37.37
35.27
33.13
30.98
28.8
26.54
24.15
21.58
18.72
15.53
11.96
8.02
3.81
-0.59
-5.16
-9.95
-15.11
-20.77
-27.08
-33.99
-41.3
-48.48
-54.71
-58.93
-60.11
-57.52
-51.02
-41.16
-29.09
-16.22
-3.82
7.17
16.28
23.44
28.74
32.29
34.16
34.39
33.17
30.92
28.22
25.73
23.86
22.73
22.07
21.39
20.23
18.34
15.7
12.44
8.75
4.73
0.42
-4.15
-8.93
-13.86
-18.96
-24.39
-30.37
-36.97
-43.9
-50.34
-55.01
-56.54
-53.93
-47.05
-36.65
-24.22
-11.43
0.33
10.26
18.11
23.95
27.94
30.09
30.45
29.14
26.6
23.51
20.6
18.43
17.17
16.53
15.97
14.94
13.09
10.4
7.13
3.56
-0.05
-3.62
-7.17
-10.77
-14.47
-18.39
-22.75
-27.87
-34.0
-41.14
-48.71
-55.53
-60.09
-60.95
-57.25
-49.11
-37.63
-24.48
-11.37
0.44
10.35
18.32
24.53
29.15
32.19
33.64
33.64
