39.3
50.13
60.21
69.32
77.35
84.16
89.62
93.58
95.99
96.78
95.91
93.23
88.42
81.16
71.29
59.04
45.13
30.61
16.45
3.33
-8.63
-19.72
-30.4
-41.08
-52.02
-63.4
-75.31
-87.65
-99.81
-110.58
-118.21
-121.05
-118.15
-109.85
-97.56
-83.26
-68.68
-54.81
-41.9
-29.9
-18.8
-8.89
-0.47
6.55
12.83
19.38
27.04
35.89
45.11
53.25
58.82
60.95
59.74
56.1
51.32
46.6
42.6
39.55
37.41
35.97
35.02
34.23
33.17
31.56
29.44
27.16
25.13
23.31
20.88
16.37
8.28
-4.08
-20.03
-37.71
-54.87
-69.82
-82.07
-92.15
-101.02
-109.1
-115.83
-119.66
-118.6
-110.97
-96.1
-74.55
-48.02
-18.75
11.06
39.68
65.87
88.67
106.99
119.62
125.46
124.08
116.13
103.37
88.19
72.91
59.13
47.47
37.71
29.27
21.52
14.19
7.27
1.06
-4.11
-7.99
-10.58
-12.3
-13.83
-16.04
-19.73
-25.47
-33.47
-43.57
-55.35
-68.18
-81.45
-94.55
-107.07
-118.8
-129.79
-140.26
-150.62
-161.23
-172.39
-184.18
-196.26
-207.74
-217.18
-222.76
-222.76
-216.21
-203.2
-184.72
-162.18
-136.67
-108.66
-78.18
-45.49
-11.63
21.62
52.26
78.91
101.29
120.03
135.95
149.38
159.83
166.33
168.08
164.96
157.55
146.76
133.47
118.34
102.01
85.46
70.02
57.05
47.29
40.4
34.98
29.15
21.39
11.29
-0.17
-11.12
-19.49
-23.86
-23.85
-20.05
-13.73
-6.41
0.45
5.63
8.34
8.28
5.77
1.67
-2.85
-6.71
-9.36
-10.93
-12.13
-13.72
-15.94
-18.18
-19.05
-17.04
-11.35
-2.35
8.4
18.69
26.54
30.83
31.33
28.5
23.13
16.16
8.81
2.61
-0.74
0.11
5.52
14.6
25.43
35.74
43.77
48.74
50.83
50.71
49.04
46.26
42.51
37.99
33.01
28.02
23.43
19.34
15.55
11.77
7.85
3.97
0.52
-2.14
-3.91
-5.13
-6.41
-8.4
-11.56
-15.95
-21.24
-26.82
-31.84
-35.44
-36.77
-35.29
-30.88
-23.92
-15.16
-5.55
4.0
12.82
20.42
26.49
30.8
33.26
33.93
33.13
31.36
29.16
26.98
25.03
23.26
21.48
19.48
17.06
14.19
10.91
7.37
3.68
-0.06
-3.86
-7.73
-11.82
-16.3
-21.28
-26.68
-32.07
-36.64
-39.34
-39.22
-35.74
-29.09
-20.07
-9.91
0.2
9.45
17.51
24.28
29.66
33.45
35.4
35.43
33.88
31.42
28.87
26.78
25.38
24.37
23.33
21.87
19.84
17.28
14.35
11.15
7.67
3.96
0.12
-3.73
-7.46
-11.11
-14.93
-19.24
-24.26
-29.86
-35.39
-39.87
-42.15
-41.4
-37.31
-30.23
-21.01
-10.7
-0.32
9.35
17.74
24.51
29.51
32.74
34.39
34.76
34.19
32.97
31.37
29.59
27.9
26.51
25.48
24.65
23.66
22.08
19.64
16.35
12.5
8.46
4.53
0.81
-2.76
-6.31
-9.9
-13.55
-17.37
-21.51
-26.14
-31.15
-35.98
-39.68
-41.14
-39.54
-34.71
-27.2
-18.07
-8.48
0.65
8.81
15.87
21.81
26.58
30.02
31.91
32.18
30.9
28.5
25.53
22.61
20.26
18.72
17.89
17.39
16.72
15.5
13.56
11.02
8.13
5.21
2.42
-0.27
-3.0
-5.92
-9.04
-12.31
-15.7
-19.33
-23.44
-28.13
-33.15
-37.65
-40.42
-40.28
-36.64
-29.77
-20.75
-11.01
-1.83
6.0
12.26
17.06
20.48
22.59
23.41
23.07
21.89
20.24
18.42
16.6
14.82
13.08
11.46
10.03
8.79
7.61
6.32
4.77
2.89
0.77
-1.47
-3.79
-6.21
-8.8
-11.57
-14.52
-17.62
-20.95
-24.6
-28.52
-32.34
-35.38
-36.76
-35.71
-31.93
-25.74
-17.94
-9.55
-1.44
5.77
11.77
16.34
19.25
20.25
19.25
16.58
12.99
9.45
6.82
5.52
5.34
5.63
5.65
4.92
3.32
1.11
-1.33
-3.77
-6.11
-8.32
-10.4
-12.34
-14.26
-16.4
-19.15
-22.73
-26.97
-31.15
-34.16
-34.9
-32.67
-27.52
-20.11
-11.48
-2.61
5.66
12.78
18.25
21.67
22.83
21.73
18.91
15.19
11.5
8.58
6.76
5.94
5.69
5.52
5.03
3.98
2.31
0.13
-2.37
-4.92
-7.26
-9.27
-11.08
-13.0
-15.41
-18.61
-22.64
-27.24
-31.83
-35.71
-38.11
-38.39
-36.2
-31.51
-24.78
-16.75
-8.28
-0.18
6.99
12.93
17.46
20.45
21.81
21.54
19.87
17.26
14.33
11.66
9.63
8.32
7.5
6.79
5.83
4.41
2.49
0.22
-2.17
-4.46
-6.55
-8.48
-10.39
-12.45
-14.84
-17.77
-21.37
-25.63
-30.26
-34.6
-37.73
-38.79
-37.21
-33.0
-26.69
-19.09
-11.01
-3.02
4.47
11.17
16.62
20.37
22.07
21.77
19.9
17.23
14.49
12.21
10.58
9.56
8.96
8.5
7.92
6.92
5.26
2.89
-0.07
-3.3
-6.48
-9.36
-11.91
-14.25
-16.6
-19.25
-22.45
-26.43
-31.23
-36.54
-41.63
-45.42
-46.78
-44.97
-39.98
-32.42
-23.41
-14.09
-5.31
2.48
9.15
14.67
18.99
21.9
23.19
22.77
20.85
17.95
14.76
11.96
9.97
8.84
8.23
7.66
6.7
5.13
3.0
0.43
-2.43
-5.49
-8.68
-11.92
-15.09
-18.13
-21.22
-24.68
-28.92
-34.03
-39.59
-44.64
-47.89
-48.24
-45.12
-38.71
-29.75
-19.34
-8.59
1.54
10.27
17.08
21.65
23.91
24.12
22.77
20.5
18.0
15.79
14.17
13.16
12.57
12.03
11.16
9.66
7.46
4.69
1.64
-1.46
-4.44
-7.33
-10.32
-13.69
-17.67
-22.37
-27.76
-33.63
-39.51
-44.65
-48.19
-49.22
-47.14
-41.78
-33.52
-23.18
-11.8
-0.47
9.93
18.73
25.53
30.1
32.45
32.79
31.55
29.34
26.79
24.48
22.78
21.77
21.26
20.85
20.08
18.61
16.25
13.01
9.1
4.79
0.34
-4.0
-8.16
-12.12
-16.12
-20.58
-25.98
-32.64
-40.35
-48.24
-54.85
-58.53
-57.96
-52.7
-43.22
-30.76
-16.83
-2.85
10.13
21.41
30.54
37.26
41.52
43.51
43.66
42.59
40.85
38.9
37.04
35.38
33.94
32.58
31.05
29.02
26.23
22.56
18.22
13.58
9.05
4.86
0.99
-2.77
-6.72
-11.15
-16.31
-22.44
-29.57
-37.4
-45.05
-51.1
-53.92
-52.24
-45.61
-34.68
-20.88
-6.02
8.24
20.76
30.9
38.48
43.57
46.42
47.33
46.72
45.04
42.76
40.36
38.13
36.24
34.68
33.28
31.81
30.03
27.79
25.0
21.64
17.72
13.34
8.71
4.14
-0.1
-4.07
-8.14
-12.97
-19.11
-26.6
-34.69
-41.99
-46.85
-47.88
-44.53
-37.09
-26.61
-14.46
-1.91
10.06
20.86
30.09
37.48
42.69
45.47
45.76
43.84
40.44
36.52
33.09
30.74
29.52
28.96
28.27
26.86
24.47
21.28
17.67
14.03
10.53
7.11
3.59
-0.24
-4.52
-9.41
-15.09
-21.67
-29.0
-36.48
-42.99
-47.11
-47.57
-43.65
-35.54
-24.26
-11.33
1.69
13.54
23.45
31.05
36.22
39.02
39.61
38.39
35.9
32.84
29.88
27.49
25.82
24.67
23.59
22.08
19.85
16.87
13.44
9.97
6.73
3.75
0.78
-2.51
-6.41
-11.01
-16.3
-22.26
-28.82
-35.69
-42.14
-46.98
-48.8
-46.52
-39.85
-29.52
-17.02
-4.15
7.53
17.1
24.24
29.01
31.64
32.35
31.28
28.7
24.95
20.61
16.32
12.68
10.04
8.4
7.45
6.7
5.74
4.42
2.84
1.24
-0.29
-1.9
-4.05
-7.12
-11.19
-15.89
-20.54
-24.55
-27.69
-30.11
-31.89
-32.47
-30.31
-23.36
-10.04
9.6
33.39
57.53
78.02
92.18
99.38
100.83
98.42
93.72
87.58
80.47
73.02
66.32
61.38
58.49
56.89
55.17
52.16
47.76
42.91
38.84
36.18
34.43
32.23
28.3
22.13
14.12
5.23
-3.79
-12.69
-21.55
-30.34
-38.56
-45.2
-49.17
-49.71
-46.76
-40.99
-33.44
-25.24
-17.39
-10.7
-5.85
-3.54
-4.38
-8.76
-16.59
-27.14
-39.06
-50.69
-60.54
-67.73
-72.25
-74.76
-76.16
-77.16
-77.89
-77.95
-76.77
-73.98
-69.64
-64.28
-58.59
-53.12
-47.99
-43.04
-37.86
-32.0
-24.98
-16.25
-5.4
7.81
23.07
39.42
55.38
69.39
80.23
87.33
90.78
90.99
88.38
83.08
75.04
64.26
51.27
37.36
24.57
15.3
11.59
14.44
23.29
36.2
50.44
63.4
73.46
80.21
84.28
86.68
88.17
88.76
87.68
83.64
75.29
61.95
43.96
22.91
1.28
-18.15
-33.09
-42.27
-45.52
-43.53
-37.38
-28.35
-17.9
-7.76
0.21
4.46
4.22
-0.11
-7.14
-15.03
-22.28
-28.13
-32.63
-36.21
-39.24
-41.74
-43.45
-44.15
-43.92
-43.29
-42.96
-43.52
-45.13
-47.39
-49.59
-51.08
-51.62
-51.47
-51.33
-51.87
-53.48
-55.96
-58.62
-60.46
-60.53
-58.12
-52.99
-45.39
-35.98
-25.65
-15.39
-5.92
2.23
8.84
13.75
16.79
17.89
17.09
14.82
11.85
9.12
7.34
6.76
7.08
7.61
7.65
6.74
4.88
2.28
-0.63
-3.54
-6.31
-8.96
-11.65
-14.65
-18.25
-22.65
-27.84
-33.46
-38.85
-43.11
-45.28
-44.7
-41.08
-34.67
-26.09
-16.17
-5.8
4.21
13.13
20.32
25.26
27.68
27.69
25.83
22.96
20.01
17.71
16.32
15.65
15.15
14.29
12.77
10.61
8.09
5.45
2.91
0.38
-2.26
-5.23
-8.7
-12.79
-17.58
-23.03
-28.81
-34.16
-38.01
-39.22
-37.02
-31.34
-22.89
-12.92
-2.77
6.54
14.42
20.64
25.17
27.93
28.89
28.16
26.05
23.18
20.15
17.44
15.17
13.2
11.25
9.06
6.58
3.9
1.23
-1.25
-3.44
-5.43
-7.42
-9.77
-12.93
-17.19
-22.55
-28.43
-33.83
-37.49
-38.39
-36.0
-30.48
-22.55
-13.12
-3.13
6.65
15.55
22.98
28.44
31.53
32.12
30.44
27.11
22.93
18.81
15.39
13.01
11.55
10.52
9.34
7.54
5.05
2.12
-0.76
-3.2
-5.15
-6.94
-9.14
-12.34
-16.82
-22.46
-28.72
-34.63
-39.11
-41.14
-39.96
-35.3
-27.51
-17.44
-6.27
4.77
14.64
22.61
28.24
31.36
31.99
30.43
27.29
23.45
19.84
17.1
15.43
14.57
13.97
13.1
11.64
9.57
7.05
4.24
1.2
-2.02
-5.38
-8.86
-12.51
-16.58
-21.38
-27.05
-33.2
-38.81
-42.46
-42.84
-39.33
-32.25
-22.73
-12.24
-2.04
7.04
14.59
20.35
24.08
25.54
24.78
22.28
18.92
15.67
13.21
11.66
10.63
9.45
7.63
5.06
2.02
-1.01
-3.68
-5.92
-7.97
-10.18
-12.94
-16.54
-21.11
-26.6
-32.61
-38.37
-42.7
-44.36
-42.41
-36.62
-27.56
-16.42
-4.63
6.58
16.36
24.22
29.85
33.01
33.57
31.61
27.65
22.64
17.66
13.68
11.17
9.91
9.19
8.18
6.28
3.36
-0.27
-4.08
-7.65
-10.92
-14.16
-17.86
-22.52
-28.45
-35.56
-43.22
-50.26
-55.25
-56.84
-54.24
-47.49
-37.41
-25.29
-12.47
0.01
11.42
21.26
29.09
34.46
37.14
37.21
35.12
31.75
28.05
24.81
22.44
20.89
19.74
18.39
16.38
13.5
9.9
5.92
1.88
-2.05
-5.98
-10.27
-15.3
-21.35
-28.44
-36.1
-43.35
-48.91
-51.42
-49.95
-44.33
-35.11
-23.43
-10.61
2.26
14.35
25.04
33.78
39.99
43.33
43.84
42.1
39.09
35.9
33.34
31.66
30.61
29.59
27.96
25.33
21.67
17.22
12.43
7.65
3.06
-1.35
-5.8
-10.65
-16.24
-22.77
-30.1
-37.64
-44.35
-48.88
-49.99
-46.92
-39.7
-29.15
-16.61
-3.55
8.82
19.68
28.53
35.04
38.98
40.23
38.99
35.84
31.71
27.6
24.25
21.92
20.38
19.06
17.43
15.17
12.34
9.21
6.09
3.14
0.32
-2.66
-6.15
-10.54
-16.06
-22.67
-29.93
-36.98
-42.62
-45.62
-44.97
-40.26
-31.78
-20.48
-7.69
5.17
16.9
26.67
33.99
38.67
40.76
40.59
38.65
35.66
32.37
29.4
27.11
25.54
24.37
23.1
21.29
18.67
15.28
11.38
7.3
3.22
-0.87
-5.25
-10.38
-16.63
-24.08
-32.38
-40.65
-47.69
-52.19
-53.08
-49.85
-42.71
-32.5
-20.5
-7.98
4.05
14.94
24.29
31.74
36.93
39.59
39.75
37.92
34.95
31.78
29.08
27.08
25.56
24.04
22.12
19.56
16.34
12.59
8.53
4.37
0.18
-4.07
-8.61
-13.77
-19.89
-27.15
-35.34
-43.68
-50.88
-55.36
-55.73
-51.29
-42.34
-30.13
-16.38
-2.72
9.76
20.67
29.95
37.51
43.01
45.96
46.04
43.51
39.25
34.51
30.47
27.79
26.45
25.86
25.2
23.8
21.33
17.91
13.93
9.83
5.94
2.33
-1.15
-4.82
-9.0
-14.06
-20.23
-27.52
-35.47
-43.12
-49.03
-51.7
-50.08
-43.95
-34.07
-21.87
-8.85
3.79
15.36
25.51
33.91
40.15
43.81
44.76
43.37
40.51
37.27
34.56
32.78
31.86
31.35
30.68
29.41
27.35
24.47
20.9
16.84
12.49
8.04
3.62
-0.76
-5.23
-10.05
-15.47
-21.73
-28.76
-36.17
-43.18
-48.72
-51.66
-51.1
-46.7
-38.75
-28.19
-16.26
-4.23
7.0
16.88
25.16
31.72
36.31
38.74
38.95
37.3
34.52
31.6
29.34
28.13
27.8
27.78
27.42
26.26
24.21
21.49
18.38
15.05
11.53
7.7
3.43
-1.31
-6.5
-12.16
-18.38
-25.22
-32.49
-39.53
-45.18
-48.11
-47.23
-42.22
-33.7
-22.93
-11.43
-0.43
9.34
17.67
24.51
29.78
33.21
34.55
33.83
31.48
28.28
25.11
22.61
20.99
20.08
19.4
18.49
17.04
14.91
12.15
8.83
5.07
0.98
-3.3
-7.72
-12.23
-16.89
-21.86
-27.3
-33.28
-39.61
-45.68
-50.47
-52.69
-51.22
-45.52
-35.96
-23.69
-10.38
2.39
13.53
22.53
29.36
34.11
36.88
37.7
36.7
34.23
30.9
27.38
24.24
21.83
20.21
19.12
18.22
17.16
15.72
13.78
11.34
8.34
4.72
0.41
-4.6
-10.06
-15.6
-20.8
-25.49
-29.79
-34.14
-38.86
-43.87
-48.44
-51.27
-51.01
-46.79
-38.63
-27.51
-15.0
-2.68
8.32
17.46
24.69
30.11
33.71
35.46
35.44
34.0
31.79
29.55
27.73
26.47
25.5
24.47
23.17
21.58
19.79
17.8
15.55
12.82
9.51
5.66
1.48
-2.73
-6.82
-10.72
-14.57
-18.53
-22.87
-27.87
-33.7
-40.25
-46.83
-52.19
-54.76
-53.21
-46.99
-36.68
-23.8
-10.29
2.14
12.55
20.71
26.91
31.45
34.41
35.67
35.18
33.11
30.04
26.7
23.75
21.58
20.14
19.15
18.18
16.91
15.22
13.15
10.86
8.45
5.97
3.33
0.45
-2.77
-6.36
-10.3
-14.6
-19.31
-24.6
-30.58
-37.13
-43.71
-49.3
-52.6
-52.45
-48.25
-40.24
-29.47
-17.38
-5.43
5.39
14.57
21.89
27.28
30.6
31.76
30.84
28.26
24.71
21.0
17.86
15.64
14.34
13.57
12.85
11.71
9.91
7.43
4.43
1.13
-2.31
-5.79
-9.23
-12.6
-15.94
-19.41
-23.39
-28.33
-34.43
-41.4
-48.18
-53.19
-54.83
-52.03
-44.73
-33.92
-21.22
-8.32
3.46
13.45
21.4
27.21
30.82
32.16
31.28
28.59
24.86
21.0
17.84
15.84
15.0
14.89
14.87
14.3
12.78
10.2
6.75
2.8
-1.28
-5.24
-8.96
-12.51
-16.08
-19.92
-24.43
-29.92
-36.45
-43.6
-50.36
-55.28
-56.89
-54.25
-47.32
-37.02
-24.83
-12.3
-0.64
9.5
17.89
24.48
29.21
32.01
32.89
32.01
29.85
27.11
24.56
22.73
21.78
21.37
20.9
19.72
17.46
14.14
10.15
5.99
2.12
-1.28
-4.27
-7.11
-10.09
-13.47
-17.49
-22.36
-28.25
-35.12
-42.52
-49.45
-54.49
-56.19
-53.59
-46.61
-36.18
-23.91
-11.44
0.0
9.85
17.99
24.49
29.23
31.99
32.56
31.08
28.18
24.74
21.58
19.26
17.88
17.17
16.75
16.25
15.5
14.45
13.11
11.47
9.47
7.03
4.09
0.65
-3.34
-7.89
-13.09
-19.02
-25.78
-33.24
-41.02
-48.4
-54.27
-57.45
-56.91
-52.16
-43.45
-31.7
-18.28
-4.68
7.81
18.34
26.45
32.06
35.27
36.36
35.7
33.72
30.95
27.94
25.25
23.27
22.19
21.83
21.71
21.17
19.62
16.79
12.86
8.36
3.91
-0.1
-3.66
-7.14
-11.08
-15.86
-21.64
-28.3
-35.54
-42.93
-49.8
-55.13
-57.61
-56.06
-49.88
-39.42
-26.07
-11.73
1.75
13.17
22.11
28.66
33.05
35.36
35.56
33.81
30.7
27.12
24.07
22.19
21.44
21.16
20.48
18.73
15.81
12.19
8.58
5.54
3.18
1.13
-1.23
-4.41
-8.67
-14.05
-20.39
-27.5
-35.04
-42.31
-48.24
-51.5
-50.88
-45.82
-36.67
-24.7
-11.56
1.1
12.1
20.87
27.31
31.57
33.78
34.1
32.78
30.24
27.13
24.2
22.05
21.01
20.93
21.23
21.14
20.02
17.55
13.89
9.5
4.91
0.45
-3.85
-8.22
-13.1
-18.88
-25.87
-34.0
-42.75
-51.06
-57.52
-60.65
-59.41
-53.59
-43.78
-31.28
-17.58
-3.96
8.66
19.66
28.61
35.12
38.89
39.85
38.38
35.32
31.67
28.41
26.08
24.73
23.91
23.01
21.5
19.15
16.09
12.61
9.03
5.6
2.39
-0.68
-3.75
-7.16
-11.32
-16.73
-23.73
-32.19
-41.35
-49.76
-55.66
-57.52
-54.47
-46.7
-35.29
-21.87
-8.03
4.98
16.48
26.21
34.05
39.88
43.54
44.98
44.43
42.45
39.77
37.13
34.97
33.38
32.09
30.72
28.91
26.51
23.59
20.33
16.86
13.19
9.23
4.83
-0.11
-5.55
-11.43
-17.7
-24.4
-31.59
-39.12
-46.34
-52.07
-54.88
-53.46
-47.29
-36.88
-23.61
-9.33
4.37
16.39
26.42
34.45
40.56
44.63
46.47
46.05
43.79
40.54
37.3
34.86
33.42
32.63
31.87
30.54
28.44
25.72
22.74
19.72
16.66
13.33
9.44
4.88
-0.28
-5.8
-11.49
-17.34
-23.53
-30.23
-37.34
-44.2
-49.67
-52.38
-51.21
-45.73
-36.48
-24.7
-11.91
0.52
11.72
21.29
29.08
34.96
38.78
40.43
40.04
38.01
34.96
31.57
28.48
26.04
24.41
23.42
22.73
21.85
20.36
18.03
14.92
11.36
7.69
4.19
0.87
-2.48
-6.19
-10.6
-16.02
-22.57
-30.04
-37.8
-44.73
-49.39
-50.45
-47.1
-39.41
-28.36
-15.49
-2.45
9.43
19.4
27.27
33.13
37.14
39.39
39.92
38.9
36.73
33.99
31.37
29.32
27.91
26.87
25.7
24.0
21.64
18.72
15.47
12.12
8.73
5.2
1.43
-2.65
-7.09
-11.92
-17.27
-23.28
-30.09
-37.62
-45.45
-52.67
-58.03
-60.2
-58.17
-51.64
-41.17
-28.09
-14.01
-0.42
11.67
21.76
29.68
35.41
38.98
40.48
40.2
38.64
36.43
34.13
32.09
30.43
29.14
28.15
27.37
26.67
25.82
24.48
22.39
19.36
15.49
11.01
6.24
1.49
-3.06
-7.34
-11.41
-15.38
-19.48
-24.08
-29.47
-35.72
-42.39
-48.45
-52.52
-53.28
-49.95
-42.56
-31.98
-19.57
-6.75
5.32
15.86
24.38
30.61
34.41
35.86
35.3
33.39
30.95
28.73
27.18
26.32
25.8
25.15
24.08
22.61
21.02
19.57
18.26
16.76
14.57
11.37
7.27
2.76
-1.55
-5.31
-8.6
-11.92
-15.82
-20.68
-26.56
-33.18
-40.04
-46.37
-51.23
-53.5
-52.29
-47.15
-38.37
-26.93
-14.26
-1.82
9.25
18.24
24.83
28.93
30.69
30.4
28.56
25.8
22.78
20.03
17.88
16.49
15.8
15.62
15.61
15.36
14.49
12.75
10.18
6.99
3.54
0.1
-3.17
-6.31
-9.46
-12.75
-16.31
-20.25
-24.75
-29.99
-36.02
-42.48
-48.6
-53.12
-54.65
-52.12
-45.25
-34.77
-22.17
-9.3
2.39
12.06
19.57
25.18
29.17
31.64
32.57
32.02
30.31
28.0
25.7
23.83
22.58
21.8
21.22
20.55
19.55
18.04
15.9
13.04
9.5
5.45
1.16
-3.09
-7.13
-10.95
-14.67
-18.47
-22.57
-27.12
-32.26
-38.04
-44.23
-50.26
-55.08
-57.41
-56.07
-50.51
-41.07
-28.94
-15.77
-3.16
7.76
16.43
22.83
27.16
29.72
30.8
30.76
29.94
28.69
27.25
25.81
24.47
23.33
22.44
21.74
20.98
19.85
18.06
15.54
12.44
8.99
5.4
1.76
-2.0
-5.95
-10.14
-14.58
-19.28
-24.44
-30.3
-36.97
-44.08
-50.73
-55.53
-57.1
-54.44
-47.39
-36.69
-23.75
-10.22
2.42
13.16
21.54
27.51
31.28
33.08
33.18
31.83
29.38
26.31
23.14
20.33
18.11
16.48
15.17
13.81
12.12
10.01
7.55
4.9
2.12
-0.82
-4.06
-7.72
-11.81
-16.27
-21.02
-26.07
-31.43
-37.04
-42.58
-47.36
-50.42
-50.69
-47.43
-40.55
-30.68
-19.08
-7.19
3.75
12.93
20.09
25.33
28.82
30.71
31.01
29.84
27.45
24.37
21.22
18.56
16.68
15.45
14.5
13.26
11.34
8.62
5.28
1.7
-1.79
-5.02
-8.06
-11.14
-14.52
-18.39
-22.87
-27.99
-33.76
-40.09
-46.68
-52.84
-57.48
-59.37
-57.43
-51.21
-41.14
-28.41
-14.69
-1.56
9.81
18.92
25.67
30.26
32.83
33.49
32.5
30.27
27.5
24.92
23.14
22.39
22.49
22.9
23.01
22.34
20.64
17.99
14.63
10.86
6.9
2.82
-1.37
-5.75
-10.3
-15.06
-20.11
-25.62
-31.81
-38.75
-46.16
-53.23
-58.71
-61.19
-59.63
-53.68
-43.88
-31.47
-18.09
-5.2
6.18
15.58
23.04
28.76
32.98
35.84
37.38
37.66
36.87
35.37
33.54
31.76
30.18
28.87
27.72
26.59
25.3
23.64
21.41
18.43
14.59
9.96
4.76
-0.62
-5.8
-10.51
-14.74
-18.73
-23.0
-28.1
-34.31
-41.4
-48.37
-53.73
-55.87
-53.65
-46.9
-36.45
-23.83
-10.75
1.38
11.76
20.08
26.34
30.6
32.98
33.61
32.8
30.99
28.68
26.38
24.42
22.95
22.01
21.45
21.06
20.54
19.58
17.88
15.36
12.1
8.35
4.43
0.53
-3.3
-7.23
-11.52
-16.47
-22.25
-28.85
-35.94
-42.83
-48.5
-51.7
-51.28
-46.63
-38.0
-26.47
-13.66
-1.25
9.65
18.54
25.49
30.74
34.35
36.16
35.98
33.89
30.47
26.66
23.41
21.32
20.43
20.28
20.24
19.82
18.77
17.03
14.65
11.61
7.92
3.64
-1.03
-5.85
-10.58
-15.18
-19.86
-25.04
-31.11
-38.2
-45.86
-53.04
-58.27
-60.07
-57.5
-50.51
-39.94
-27.22
-13.86
-1.03
10.54
20.51
28.67
34.82
38.74
40.4
40.12
38.52
36.46
34.63
33.41
32.75
32.22
31.33
29.74
27.44
24.65
21.71
18.78
15.79
12.57
8.86
4.58
-0.07
-4.74
-9.11
-13.04
-16.82
-21.01
-26.22
-32.79
-40.37
-47.9
-53.82
-56.57
-55.08
-49.11
-39.29
-26.8
-13.11
0.38
12.49
