72.15
78.18
79.86
78.28
74.23
68.27
61.08
53.66
47.14
42.43
39.79
38.75
38.22
37.05
34.33
29.7
23.39
15.94
8.02
0.16
-7.32
-14.35
-20.98
-27.41
-33.99
-41.23
-49.65
-59.49
-70.4
-81.0
-88.97
-91.46
-86.04
-71.68
-49.3
-21.77
6.97
33.1
53.94
68.39
76.79
80.24
79.95
76.95
71.99
65.84
59.36
53.43
48.74
45.53
43.45
41.72
39.46
36.02
31.11
24.91
17.82
10.37
2.94
-4.25
-11.12
-17.74
-24.27
-30.99
-38.39
-47.01
-57.34
-69.47
-82.71
-95.36
-104.87
-108.42
-103.85
-90.48
-69.54
-43.88
-17.05
7.72
28.34
43.91
54.44
60.29
61.86
59.58
54.13
46.71
38.81
31.9
26.98
24.3
23.33
23.08
22.43
20.51
16.91
11.66
5.21
-1.83
-8.88
-15.58
-21.82
-27.79
-33.83
-40.44
-48.15
-57.38
-68.14
-79.62
-89.96
-96.43
-96.21
-87.31
-69.47
-44.43
-15.46
13.62
39.48
59.93
74.08
82.07
84.6
82.67
77.38
69.96
61.64
53.55
46.58
41.3
37.8
35.8
34.66
33.5
31.43
27.8
22.41
15.52
7.76
-0.21
-7.89
-15.17
-22.28
-29.57
-37.55
-46.68
-57.26
-69.28
-82.0
-93.8
-102.17
-104.32
-97.97
-82.38
-58.72
-29.89
0.32
28.29
51.53
68.89
80.46
86.96
89.29
88.28
84.73
79.54
73.7
68.16
63.54
60.06
57.46
55.19
52.66
49.33
44.84
38.96
31.69
23.16
13.75
3.93
-5.82
-15.17
-24.06
-32.68
-41.39
-50.66
-60.95
-72.52
-85.13
-97.73
-108.31
-114.17
-112.59
-101.82
-81.81
-54.55
-23.53
7.19
34.11
54.96
68.93
76.37
78.26
75.9
70.64
63.85
56.88
50.82
46.35
43.6
42.12
41.18
40.02
38.1
35.25
31.59
27.32
22.54
17.23
11.27
4.57
-2.76
-10.4
-17.89
-24.88
-31.21
-37.24
-43.71
-51.58
-61.57
-73.66
-86.75
-98.51
-105.93
-106.1
-97.3
-79.68
-55.38
-27.91
-1.08
21.99
39.56
51.22
57.53
59.37
57.63
53.11
46.65
39.25
31.99
25.86
21.48
18.99
17.95
17.67
17.38
16.48
14.64
11.73
7.78
2.89
-2.75
-8.91
-15.23
-21.42
-27.33
-33.01
-38.92
-45.7
-54.0
-63.97
-74.81
-84.66
-90.8
-90.47
-81.79
-64.62
-40.73
-13.3
13.99
37.99
56.76
69.48
76.3
77.81
74.83
68.38
59.76
50.51
42.15
35.85
32.08
30.51
30.25
30.16
29.26
26.95
23.07
17.77
11.42
4.32
-3.22
-10.95
-18.66
-26.16
-33.32
-40.24
-47.29
-55.11
-64.41
-75.45
-87.52
-98.77
-106.3
-106.95
-98.48
-80.43
-54.58
-24.49
5.58
31.93
52.28
65.99
73.66
76.48
75.65
72.19
66.99
60.97
55.02
49.83
45.83
42.95
40.85
39.07
37.21
35.01
32.32
28.95
24.68
19.3
12.77
5.28
-2.73
-10.69
-18.14
-24.83
-30.92
-36.98
-43.9
-52.57
-63.43
-75.97
-88.47
-98.09
-101.57
-96.23
-80.99
-56.91
-27.11
4.17
32.76
55.66
71.58
80.73
84.22
83.46
79.67
73.84
66.86
59.71
53.26
48.16
44.62
42.32
40.6
38.81
36.48
33.4
29.57
24.99
19.61
13.39
6.33
-1.4
-9.46
-17.48
-25.12
-32.3
-39.26
-46.58
-55.02
-65.21
-77.24
-90.11
-101.7
-108.98
-108.91
-99.56
-80.9
-55.02
-25.64
3.03
27.55
45.89
57.57
63.24
64.01
61.08
55.56
48.62
41.46
35.19
30.61
27.96
26.92
26.85
26.96
26.57
25.11
22.18
17.6
11.45
4.2
-3.45
-10.77
-17.29
-22.97
-28.29
-33.92
-40.55
-48.73
-58.61
-69.84
-81.39
-91.38
-97.31
-96.61
-87.55
-69.99
-45.74
-18.07
9.19
32.76
50.7
62.48
68.61
70.09
67.93
63.04
56.33
48.8
41.59
35.69
31.79
29.97
29.75
30.22
30.3
29.14
26.24
21.53
15.4
8.38
0.96
-6.52
-13.99
-21.49
-29.02
-36.64
-44.48
-52.86
-62.27
-73.04
-84.8
-96.14
-104.51
-106.88
-100.73
-85.12
-61.2
-31.99
-1.54
26.34
48.9
64.92
74.51
78.56
78.31
75.02
69.83
63.79
57.81
52.51
48.26
45.02
42.47
40.11
37.53
34.46
30.82
26.61
21.77
16.21
9.86
2.79
-4.69
-12.03
-18.68
-24.3
-28.97
-33.29
-38.2
-44.67
-53.39
-64.28
-76.27
-87.24
-94.4
-94.99
-87.15
-70.69
-47.27
-20.09
7.15
31.18
49.9
62.61
69.64
71.87
70.33
66.06
60.15
53.81
48.14
44.0
41.65
40.82
40.81
40.81
40.18
38.57
35.84
31.94
26.84
20.54
13.14
4.85
-3.94
-12.76
-21.13
-28.77
-35.66
-42.19
-49.09
-57.2
-67.14
-78.73
-90.77
-100.88
-106.11
-103.84
-92.72
-73.38
-48.31
-21.14
4.49
25.94
42.0
52.75
58.88
61.17
60.21
56.45
50.55
43.61
36.93
31.79
28.84
28.01
28.53
29.27
29.26
27.86
24.94
20.65
15.32
9.26
2.79
-3.74
-10.04
-15.86
-21.18
-26.29
-31.81
-38.53
-47.18
-57.94
-70.04
-81.57
-89.7
-91.38
-84.41
-68.32
-44.77
-17.16
10.46
34.56
52.97
65.13
71.61
73.43
71.63
66.99
60.4
52.85
45.59
39.73
35.94
34.19
33.85
34.09
34.05
33.24
31.38
28.29
23.83
17.92
10.65
2.38
-6.21
-14.48
-22.0
-28.74
-35.13
-41.95
-50.07
-60.18
-72.44
-86.03
-98.99
-108.43
-111.15
-104.7
-88.35
-63.54
-33.62
-2.81
25.04
47.33
63.06
72.51
76.65
76.69
73.81
69.16
63.84
58.84
54.79
51.79
49.53
47.48
45.19
42.49
39.41
36.05
32.35
28.07
22.91
16.66
9.38
1.36
-6.96
-15.08
-22.69
-29.71
-36.45
-43.48
-51.64
-61.47
-72.86
-84.54
-94.08
-98.41
-94.78
-81.85
-60.38
-33.17
-4.17
22.68
44.54
60.15
69.66
73.97
74.17
71.26
66.11
59.68
53.03
47.15
42.69
39.76
37.98
36.7
35.31
33.38
30.67
27.06
22.43
16.73
9.98
2.39
-5.69
-13.76
-21.34
-28.23
-34.5
-40.67
-47.63
-56.31
-67.34
-80.48
-94.31
-106.2
-112.9
-111.51
-100.54
-80.48
-53.97
-24.96
2.44
25.02
41.18
50.85
55.08
55.33
53.05
49.37
45.21
41.28
38.12
36.09
35.18
35.08
35.13
34.63
32.93
29.65
24.79
18.68
11.88
4.94
-1.74
-8.05
-14.15
-20.35
-27.0
-34.43
-42.99
-52.85
-63.92
-75.46
-85.88
-92.84
-93.78
-86.74
-71.25
-48.75
-22.23
4.62
28.65
47.87
61.73
70.62
75.27
76.3
74.17
69.47
63.15
56.46
50.64
46.53
44.26
43.3
42.8
41.89
39.93
36.64
31.96
26.01
19.01
11.32
3.29
-4.69
-12.35
-19.63
-26.74
-34.13
-42.39
-52.07
-63.27
-75.43
-86.91
-95.27
-97.69
-91.97
-77.36
-55.13
-28.28
-0.67
24.18
43.95
57.88
66.45
70.72
71.7
70.14
66.62
61.71
56.16
50.81
46.35
43.11
40.95
39.34
37.6
35.09
31.46
26.56
20.54
13.66
6.22
-1.49
-9.21
-16.72
-23.9
-30.79
-37.69
-45.2
-54.04
-64.7
-76.82
-88.92
-98.42
-102.25
-97.95
-84.58
-63.33
-37.16
-9.84
15.25
35.92
51.37
61.8
67.73
69.61
67.76
62.73
55.43
47.33
39.93
34.43
31.25
29.96
29.58
28.9
26.97
23.31
17.92
11.23
3.8
-3.78
-11.14
-18.11
-24.75
-31.22
-37.77
-44.79
-52.71
-61.89
-72.24
-82.92
-92.08
-97.19
-95.75
-86.15
-68.5
-44.69
-17.8
8.73
32.06
50.48
63.32
70.73
73.27
71.75
67.23
60.9
54.13
48.07
43.54
40.79
39.55
39.24
39.11
38.46
36.71
33.51
28.7
22.38
14.81
6.37
-2.44
-11.25
-19.74
-27.8
-35.53
-43.36
-51.94
-62.01
-73.87
-86.91
-99.35
-108.32
-110.61
-103.78
-87.16
-62.26
-32.45
-1.87
25.72
47.84
63.55
73.12
77.45
77.55
74.36
68.81
61.91
54.76
48.42
43.57
40.42
38.61
37.39
35.92
33.51
29.81
24.82
18.76
11.98
4.78
-2.5
-9.58
-16.2
-22.23
-27.81
-33.35
-39.47
-46.93
-56.2
-67.1
-78.52
-88.36
-93.95
-92.76
-83.23
-65.47
-41.35
-13.96
13.25
37.38
56.62
70.31
78.63
82.22
81.93
78.67
73.41
67.19
60.87
55.1
50.23
46.32
43.22
40.73
38.57
36.37
33.67
30.0
25.0
18.53
10.77
2.2
-6.58
-14.91
-22.36
-28.83
-34.68
-40.67
-47.7
-56.66
-67.79
-80.4
-92.59
-101.52
-104.12
-98.02
-82.53
-59.09
-30.94
-2.24
23.28
43.13
56.5
63.88
66.39
65.1
60.91
54.53
46.84
38.94
32.05
27.09
24.42
23.62
23.75
23.69
22.49
19.68
15.29
9.72
3.54
-2.74
-8.8
-14.53
-20.0
-25.4
-31.03
-37.29
-44.66
-53.47
-63.56
-73.91
-82.48
-86.65
-83.86
-72.71
-53.51
-28.47
-1.01
25.16
47.09
63.13
72.93
77.09
76.57
72.43
65.61
57.13
48.11
39.71
33.0
28.65
26.65
26.36
26.59
26.07
23.89
19.65
13.57
6.26
-1.57
-9.41
-16.95
-24.14
-31.09
-38.05
-45.43
-53.79
-63.71
-75.35
-88.02
-99.89
-108.13
-109.68
-102.23
-85.24
-60.37
-30.99
-1.22
25.29
46.24
60.92
69.77
73.81
74.09
71.48
66.78
60.81
54.55
48.92
44.58
41.71
40.03
38.89
37.48
35.14
31.51
26.55
20.44
13.59
6.34
-1.01
-8.28
-15.42
-22.48
-29.72
-37.46
-46.16
-56.18
-67.59
-79.78
-91.23
-99.62
-102.22
-96.73
-82.18
-59.5
-31.49
-1.98
25.22
47.34
63.18
72.85
77.28
77.57
74.73
69.66
63.37
56.88
51.19
47.01
44.46
43.19
42.41
41.31
39.2
35.72
30.76
24.43
17.02
8.82
0.26
-8.23
-16.23
-23.47
-29.92
-36.06
-42.73
-50.97
-61.48
-74.05
-87.22
-98.36
-104.33
-102.43
-91.43
-72.04
-46.82
-19.41
6.54
28.27
44.36
54.64
59.69
60.44
57.8
52.65
45.98
38.95
32.73
28.24
25.85
25.28
25.69
26.02
25.34
23.08
19.12
13.65
7.14
0.08
-7.06
-13.96
-20.5
-26.82
-33.3
-40.48
-48.91
-58.83
-69.87
-80.8
-89.61
-93.8
-91.19
-80.59
-62.45
-38.82
-12.87
12.05
33.27
49.33
59.91
65.5
66.91
64.96
60.42
54.23
47.45
41.3
36.76
34.37
33.93
34.53
34.92
33.9
30.79
25.65
19.07
11.89
4.78
-1.98
-8.54
-15.29
-22.65
-30.93
-40.37
-51.15
-63.29
-76.27
-88.72
-98.33
-102.25
-97.98
-84.45
-62.63
-35.45
-6.94
19.02
39.84
54.53
63.53
67.95
68.8
66.8
62.49
56.51
49.91
43.93
39.64
37.55
37.34
38.03
38.43
37.55
34.93
30.66
25.16
18.92
12.32
5.53
-1.4
-8.5
-15.78
-23.39
-31.64
-41.0
-51.86
-64.11
-76.7
-87.56
-93.93
-93.09
-83.47
-65.29
-40.77
-13.45
12.85
35.16
52.0
63.29
69.75
72.32
71.66
68.25
62.63
55.69
48.61
42.62
38.55
36.51
35.93
35.77
34.97
32.78
28.92
23.55
17.09
9.98
2.62
-4.8
-12.22
-19.62
-27.13
-34.96
-43.49
-53.17
-64.24
-76.28
-87.97
-97.08
-100.9
-97.24
-85.26
-65.95
-41.95
-16.77
6.3
24.97
38.31
46.55
50.4
50.71
48.21
43.64
37.89
32.05
27.18
24.09
22.94
23.25
24.03
24.22
23.04
20.2
15.92
10.75
5.28
-0.1
-5.3
-10.42
-15.73
-21.49
-28.06
-35.8
-45.06
-55.9
-67.66
-78.75
-86.67
-88.61
-82.46
-67.73
-45.95
-20.39
5.08
27.16
43.98
55.31
61.85
64.58
64.21
61.15
55.87
49.19
42.41
36.85
33.45
32.38
32.96
34.03
34.34
33.0
29.57
24.15
17.17
9.2
0.83
-7.43
-15.29
-22.59
-29.5
-36.45
-44.11
-53.22
-64.24
-76.86
-89.64
-100.1
-105.15
-102.14
-89.8
-68.91
-42.12
-13.22
14.0
36.72
53.55
64.42
70.02
71.36
69.43
65.19
59.62
53.8
48.65
44.81
42.45
41.26
40.62
39.83
38.39
36.02
32.71
28.53
23.6
18.05
11.97
5.57
-0.9
-7.21
-13.3
-19.34
-25.86
-33.59
-43.17
-54.75
-67.56
-79.8
-88.82
-91.86
-86.8
-73.13
-52.14
-26.73
-0.5
23.27
42.38
55.97
64.28
68.03
68.05
65.12
60.04
53.8
47.58
42.49
39.25
37.93
37.94
38.29
37.99
36.34
33.15
28.66
23.35
17.65
11.84
5.98
0.03
-6.11
-12.51
-19.23
-26.44
-34.51
-43.88
-54.87
-67.27
-80.0
-91.02
-97.69
-97.51
-89.04
-72.51
-49.9
-24.48
0.27
21.54
37.73
48.44
54.1
55.51
53.52
49.01
42.91
36.29
30.18
25.39
22.23
20.58
19.81
19.14
17.84
15.38
11.61
6.68
1.01
-4.91
-10.65
-16.0
-21.06
-26.18
-31.92
-38.85
-47.4
-57.54
-68.57
-78.99
-86.6
-89.01
-84.33
-71.9
-52.64
-28.86
-3.67
19.97
39.83
54.76
64.58
69.56
70.17
66.97
60.63
52.21
43.17
35.08
29.27
26.34
25.97
27.02
27.96
27.43
24.7
19.75
13.2
5.9
-1.48
-8.53
-15.2
-21.72
-28.45
-35.85
-44.46
-54.71
-66.65
-79.51
-91.51
-99.99
-102.15
-95.93
-80.89
-58.51
-31.84
-4.52
20.29
40.56
55.58
65.57
71.16
73.0
71.7
67.9
62.48
56.49
51.05
47.0
44.62
43.54
42.91
41.65
38.95
34.48
28.44
21.45
14.17
6.99
0.04
-6.88
-14.01
-21.53
-29.69
-38.8
-49.27
-61.24
-74.27
-86.77
-96.18
-99.54
-94.48
-80.29
-58.24
-31.32
-3.26
22.55
43.89
59.9
70.73
77.13
79.87
79.64
77.06
72.81
67.69
62.52
57.95
54.36
51.76
49.8
47.96
45.57
42.11
37.22
30.87
23.32
15.04
6.65
-1.43
-8.93
-15.98
-22.97
-30.49
-39.18
-49.59
-61.84
-75.32
-88.47
-98.83
-103.57
-100.33
-88.12
-67.85
-42.18
-14.76
10.86
32.11
47.8
57.93
63.16
64.29
62.0
57.09
50.43
43.23
36.75
32.02
29.47
28.77
28.96
28.9
27.63
24.65
19.97
14.0
7.27
0.24
-6.8
-13.72
-20.5
-27.28
-34.4
-42.36
-51.69
-62.57
-74.47
-85.83
-94.3
-97.24
-92.58
-79.57
-59.18
-33.92
-7.14
17.87
38.55
53.51
62.4
65.65
64.14
58.98
51.46
42.98
34.98
28.64
24.67
23.03
22.97
23.22
22.44
19.73
14.88
8.35
1.07
-6.09
-12.64
-18.58
-24.32
-30.47
-37.56
-46.0
-56.0
-67.44
-79.63
-91.03
-99.27
-101.62
-95.88
-81.36
-59.34
-32.82
-5.51
19.32
39.68
55.0
65.58
71.91
74.29
72.86
68.03
60.82
52.79
45.62
40.53
37.81
36.85
36.46
35.34
32.68
28.24
22.33
15.56
8.55
1.75
-4.69
-10.84
-17.03
-23.71
-31.43
-40.77
-52.04
-64.88
-77.95
-88.88
-94.66
-92.6
-81.31
-61.43
-35.59
-7.65
18.61
40.43
56.62
67.31
73.32
75.53
74.57
70.96
65.33
58.66
52.12
46.84
43.44
41.88
41.42
41.0
39.64
36.73
32.25
26.68
20.69
14.86
9.32
3.75
-2.46
-9.96
-19.24
-30.49
-43.58
-57.98
-72.57
-85.57
-94.63
-97.32
-91.87
-77.96
-57.07
-32.15
-6.74
16.09
34.46
47.8
56.4
60.77
61.32
58.4
52.61
45.06
37.31
30.89
26.74
24.81
24.17
23.46
21.52
17.8
12.52
6.43
0.35
-5.18
-10.05
-14.57
-19.28
-24.78
-31.51
-39.76
-49.48
-60.16
-70.69
-79.32
-83.98
-82.67
-74.22
-58.73
-37.76
-13.97
9.68
30.53
46.85
57.76
63.15
63.4
59.26
51.88
42.82
33.86
26.58
21.98
20.06
20.0
20.5
20.3
18.66
15.46
11.03
5.84
0.3
-5.43
-11.45
-17.96
-25.38
-34.11
-44.53
-56.63
-69.67
-81.98
-91.12
-94.48
-90.16
-77.61
-58.05
-33.95
-8.42
15.72
36.45
52.6
63.71
69.74
70.89
67.68
61.11
52.66
43.96
36.55
31.32
28.31
26.77
25.43
23.09
19.06
13.39
6.76
0.08
-6.0
-11.34
-16.36
-21.79
-28.45
-36.93
-47.47
-59.77
-72.89
-85.12
-94.15
-97.41
-92.94
-80.04
-59.77
-34.69
-8.14
16.76
37.86
54.19
65.74
72.85
75.87
75.06
70.84
64.09
56.17
48.65
42.84
39.22
37.36
36.11
34.2
30.68
25.39
18.8
11.75
5.01
-1.1
-6.77
-12.58
-19.17
-27.14
-36.81
-48.12
-60.45
-72.5
-82.25
-87.31
-85.45
-75.47
-57.75
-34.38
-8.54
16.36
37.74
54.27
65.81
72.94
76.38
76.66
74.22
69.6
63.69
57.65
52.57
49.03
46.92
45.41
43.41
40.01
34.81
28.03
20.34
12.44
4.84
-2.33
-9.21
-16.14
-23.49
-31.65
-41.01
-51.86
-64.16
-77.3
-89.79
-99.39
-103.43
-99.71
-87.25
-66.88
-41.12
-13.46
12.59
34.45
50.84
61.6
67.24
68.43
65.86
60.35
52.97
45.11
38.11
32.92
29.75
28.08
26.92
25.27
22.41
18.13
12.59
6.28
-0.28
-6.67
-12.68
-18.53
-24.72
-31.98
-40.86
-51.52
-63.45
-75.36
-85.36
-91.22
-90.96
-83.37
-68.45
-47.58
-23.28
1.49
24.03
42.4
55.65
63.56
66.35
64.5
58.78
50.42
41.12
32.7
26.61
23.39
22.48
22.5
21.86
19.34
14.56
7.96
0.48
-6.9
-13.54
-19.32
-24.63
-30.23
-36.89
-45.29
-55.59
-67.37
-79.31
-89.3
-94.81
-93.58
-84.37
-67.51
-44.95
-19.71
5.09
27.03
44.79
57.99
66.79
71.37
71.83
68.46
62.11
54.28
46.8
41.24
38.3
37.53
37.57
36.74
33.78
28.28
20.71
12.11
3.63
-3.97
-10.5
-16.35
-22.31
-29.23
-37.9
-48.7
-61.41
-75.03
-87.76
-97.06
-100.29
-95.36
-81.56
-59.94
-33.25
-5.07
21.15
43.03
59.6
71.0
77.88
80.85
80.31
76.58
70.34
62.7
55.09
48.76
44.39
41.81
40.25
38.6
35.93
31.77
26.15
19.52
12.49
5.65
-0.69
-6.5
-12.11
-18.14
-25.32
-34.27
-45.34
-58.24
-71.85
-84.22
-92.78
-94.89
-88.68
-73.67
-51.18
-24.08
4.02
29.72
50.62
65.66
74.91
79.08
79.02
75.61
69.75
62.53
55.19
48.88
44.29
41.51
40.0
38.85
37.24
34.61
30.79
25.9
20.2
13.88
7.03
-0.25
-7.91
-15.83
-23.93
-32.29
-41.25
-51.3
-62.81
-75.58
-88.4
-99.1
-104.94
-103.47
-93.39
-75.17
-50.95
-23.98
2.35
25.33
43.29
55.61
62.35
64.01
61.37
55.47
47.67
39.47
32.27
27.03
24.01
22.76
22.32
21.65
19.84
16.49
11.62
5.68
-0.77
-7.16
-13.13
-18.71
-24.26
-30.4
-37.9
-47.3
-58.63
-71.12
-83.06
-92.08
-95.57
-91.53
-79.25
-59.67
-35.17
-8.92
15.9
36.86
52.64
62.86
67.86
68.26
64.87
58.69
50.94
43.08
36.48
32.11
30.22
30.22
30.91
30.87
28.95
24.63
18.17
10.49
2.71
-4.23
-9.97
-14.92
-20.01
-26.45
-35.22
-46.77
-60.78
-76.12
-90.81
-102.24
-107.62
-104.57
-91.96
-70.48
-42.63
-12.17
16.9
41.45
59.82
71.8
78.14
79.84
77.86
73.01
66.19
58.57
51.46
46.02
42.81
41.59
41.34
40.73
38.55
34.16
27.61
19.55
10.85
2.24
-5.9
-13.66
-21.39
-29.52
-38.5
-48.67
-60.21
-72.99
-86.18
-98.01
-105.83
-106.7
-98.32
-80.13
-53.78
-22.83
8.37
35.96
57.57
72.54
81.44
85.25
84.86
80.95
74.25
65.89
57.32
50.03
44.99
42.32
41.23
40.42
38.62
34.96
29.27
21.93
13.71
5.34
-2.58
-9.84
-16.57
-23.18
-30.25
-38.46
-48.27
-59.81
-72.53
-85.07
-95.28
-100.58
-98.65
-88.2
-69.54
-44.64
-16.69
10.78
34.68
53.06
65.13
71.1
71.78
68.25
61.7
53.35
44.54
36.54
30.39
26.61
25.0
24.67
24.32
22.69
18.99
13.19
5.9
-1.88
-9.3
-15.97
-22.17
-28.62
-36.16
-45.38
-56.43
-68.82
-81.48
-92.77
-100.58
-102.72
-97.5
-84.33
-64.07
-39.04
-12.45
12.45
33.15
48.29
57.57
61.43
60.62
56.02
48.73
40.01
31.36
24.22
19.54
17.42
17.08
17.15
16.22
13.38
8.5
2.27
-4.3
-10.31
-15.43
-20.01
-24.79
-30.72
-38.53
-48.54
-60.47
-73.23
-84.93
-93.04
-94.93
-88.69
-73.85
-51.78
-25.35
1.86
26.66
46.88
61.66
71.09
75.65
75.84
72.2
65.45
56.78
47.78
40.12
34.93
32.4
31.62
31.03
29.06
24.84
18.42
10.67
2.76
-4.42
-10.56
-16.0
-21.49
-27.87
-35.89
-46.03
-58.3
-71.96
-85.35
-95.91
-100.7
-97.27
-84.63
-63.71
-37.25
-8.86
18.0
40.83
58.47
70.69
77.79
80.19
78.37
73.07
65.43
56.89
48.96
42.82
38.92
36.99
36.16
35.25
33.22
29.47
24.01
17.38
10.35
3.6
-2.56
-8.35
-14.29
-21.06
-29.3
-39.34
-51.13
-63.96
-76.31
-85.87
-89.97
-86.34
-73.97
-53.63
-27.83
-0.07
26.15
48.27
65.06
76.46
82.97
85.2
83.65
78.82
71.52
62.95
54.56
47.69
42.98
40.29
38.65
36.83
33.82
29.18
23.12
16.23
9.14
2.25
-4.33
-10.68
-17.01
-23.61
-30.84
-39.22
-49.22
-61.0
-73.91
-86.4
-96.05
-100.1
-96.33
-83.77
-63.26
-37.33
-9.54
16.48
37.96
53.42
62.7
66.43
65.62
61.34
54.64
46.7
38.84
32.31
27.94
25.86
25.36
25.23
24.21
21.5
16.94
10.96
4.33
-2.2
-8.18
-13.53
-18.51
-23.62
-29.46
-36.65
-45.75
-56.92
-69.69
-82.67
-93.44
-99.07
-96.91
-85.58
-65.65
-39.58
-11.07
16.05
38.86
55.79
66.62
71.92
72.58
69.55
63.81
56.54
49.05
42.58
38.01
35.58
34.87
35.0
34.85
33.47
30.18
24.78
17.52
9.04
0.12
-8.48
-16.32
-23.35
-29.99
-36.95
-45.04
-54.91
-66.77
-80.07
-93.24
-103.75
-108.6
-105.13
-92.1
-70.27
-42.46
-12.6
15.39
38.72
56.21
67.98
74.81
77.47
76.5
72.44
66.17
59.04
52.6
48.05
45.84
45.42
45.61
45.07
42.94
39.01
33.67
27.49
20.89
13.99
6.75
-0.88
-8.79
-16.75
-24.67
-32.79
-41.71
-52.12
-64.24
-77.33
-89.4
-97.52
-98.58
-90.44
-72.82
-47.62
-18.49
10.31
35.15
53.94
66.2
72.71
74.66
73.1
68.79
62.43
54.87
47.25
40.75
36.21
33.78
32.86
32.39
31.15
28.28
23.54
17.24
10.11
2.88
-3.97
-10.34
-16.48
-22.77
-29.62
-37.45
-46.62
-57.36
-69.58
-82.52
-94.45
-102.95
-105.34
-99.57
-84.97
-62.74
-35.61
-7.15
19.15
40.76
56.43
66.01
70.07
69.44
65.01
57.82
49.12
40.38
33.05
28.12
25.84
25.6
26.2
26.25
24.71
21.12
15.66
8.99
1.85
-5.18
-11.81
-18.06
-24.24
-30.81
-38.4
-47.55
-58.53
-70.92
-83.3
-93.24
-97.76
-94.27
-81.51
-60.29
-33.27
-4.3
22.81
45.24
61.59
71.76
76.41
76.46
72.86
66.61
58.84
50.74
43.41
37.65
33.7
31.32
29.79
28.27
25.89
22.05
16.5
9.39
1.24
-7.32
-15.66
-23.48
-30.81
-37.95
-45.39
-53.67
-63.26
-74.3
-86.38
-98.2
-107.43
-111.14
-106.64
-92.49
-69.34
-39.96
-8.45
20.99
45.34
63.29
75.05
81.67
84.22
83.45
79.86
74.05
66.97
59.82
53.75
49.32
46.38
44.15
41.66
38.16
33.41
27.6
21.12
14.31
7.21
-0.22
-8.08
-16.26
-24.53
-32.64
-40.68
-49.11
-58.63
-69.85
-82.63
-95.67
-106.45
-111.75
-108.67
-95.74
-73.6
-44.99
-13.93
15.51
40.25
58.78
70.98
77.59
79.57
77.86
73.35
67.01
60.01
53.51
48.39
45.0
43.13
42.14
41.27
39.86
37.45
33.86
29.04
23.1
16.17
8.54
0.54
-7.42
-15.04
-22.19
-29.14
-36.54
-45.25
-56.04
-68.95
-82.96
-95.76
-104.21
-105.11
-96.29
-77.48
-50.49
-18.97
12.74
40.72
62.38
76.77
84.36
86.38
84.22
79.08
71.98
63.87
55.78
48.69
43.31
39.79
37.71
36.18
34.28
31.29
26.96
21.4
14.94
7.86
0.36
-7.48
-15.6
-23.84
-32.03
-40.07
-48.15
-56.73
-66.37
-77.32
-88.99
-99.73
-107.04
-108.2
-101.17
-85.45
-62.36
-34.77
-6.29
19.59
40.39
54.87
62.99
65.57
63.82
58.99
52.28
44.8
37.6
31.62
27.48
25.37
24.87
25.04
24.73
22.97
19.27
13.76
7.05
-0.11
-7.12
-13.69
-19.87
-25.96
-32.46
-40.0
-49.15
-60.23
-72.86
-85.67
-96.34
-101.96
-99.96
-88.96
-69.4
-43.56
-14.92
12.81
36.6
54.67
66.55
72.71
74.07
71.67
66.53
59.77
52.54
46.0
41.07
38.11
36.81
36.28
35.37
33.13
29.01
23.03
15.65
7.51
-0.77
-8.76
-16.28
-23.37
-30.23
-37.25
-44.92
-53.84
-64.49
-76.96
-90.47
-103.18
-112.19
-114.27
-106.94
-89.39
-63.2
-31.88
0.09
28.67
51.29
67.13
76.7
81.12
81.46
78.57
73.21
66.35
59.13
52.76
48.06
45.21
43.72
42.67
41.14
38.48
34.4
28.94
22.3
14.72
6.52
-1.94
-10.21
-17.99
-25.17
-31.95
-38.9
-46.72
-56.12
-67.42
-80.22
-93.11
-103.59
-108.56
-105.16
-91.83
-69.1
-39.65
-7.5
23.15
49.07
68.55
81.31
88.02
89.69
87.43
82.42
75.87
69.03
62.9
58.0
54.31
51.42
48.77
45.93
42.73
39.13
35.12
30.56
25.17
18.63
10.81
1.92
-7.47
-16.57
-24.73
-31.69
-37.75
-43.71
-50.57
-59.24
-70.04
-82.43
-94.82
-104.66
-108.96
-105.16
-91.97
-70.04
-41.9
-11.37
17.58
41.83
59.69
70.87
76.08
76.44
73.22
67.67
61.08
54.63
49.24
45.25
42.43
40.09
37.51
34.27
30.41
26.23
21.95
17.46
12.23
5.71
-2.33
-11.46
-20.73
-29.05
-35.72
-40.76
-44.91
-49.34
-55.19
-63.24
-73.58
-85.43
-96.98
-105.56
-108.16
-102.22
-86.69
-62.55
-32.76
-1.45
27.35
50.71
67.24
77.01
80.9
80.11
75.96
69.77
62.91
56.66
51.86
48.81
47.13
46.14
45.07
43.47
41.14
38.03
34.04
28.92
22.37
14.27
4.82
-5.4
-15.58
-25.01
-33.26
-40.35
-46.74
-53.26
-60.83
-70.25
-81.7
-94.33
-106.09
-113.96
-114.71
-106.05
-87.45
-60.65
-29.16
2.78
31.35
54.07
69.91
79.09
82.53
81.44
77.17
71.15
64.77
59.14
54.91
52.15
50.47
49.32
48.2
46.79
44.88
42.26
38.64
33.72
27.34
19.5
10.48
0.68
-9.37
-19.19
-28.38
-36.8
-44.67
-52.64
-61.68
-72.68
-85.86
-100.29
-113.71
-122.9
-124.52
-116.26
-97.7
-70.66
-38.68
-5.97
23.69
47.83
65.46
76.72
82.44
83.61
81.26
76.6
70.87
65.35
60.94
58.03
56.41
55.42
54.34
52.58
49.87
46.07
41.16
35.12
28.01
19.99
11.33
2.46
-6.24
-14.51
-22.27
-29.73
-37.41
-46.0
-56.18
-68.28
-81.77
-95.07
-105.56
-110.2
-106.47
-93.28
-71.55
-44.08
-14.66
12.95
35.95
52.96
63.81
69.1
69.72
66.56
60.52
52.7
44.39
36.91
31.33
28.17
27.17
27.46
27.79
26.94
24.06
18.91
11.8
3.51
-5.06
-13.17
-20.45
-26.92
-32.96
-39.21
-46.36
-55.04
-65.56
-77.55
-89.67
-99.58
-104.38
-101.46
-89.48
-69.08
-42.85
-14.55
11.99
33.92
49.85
59.67
64.09
64.02
60.42
54.25
46.68
39.05
32.7
28.6
27.04
27.45
28.7
29.35
28.12
24.36
18.16
10.23
1.65
-6.57
-13.8
-20.04
-25.8
-31.86
-39.0
-47.8
-58.5
-70.88
-84.05
-96.22
-104.82
-106.92
-100.16
-83.71
-58.86
-28.89
1.94
29.61
51.5
66.7
75.71
79.68
79.74
76.75
71.47
64.82
57.9
52.01
48.07
46.36
46.34
46.83
46.45
44.1
39.39
32.67
24.89
17.09
9.95
3.58
-2.46
-8.72
-15.69
-23.54
-32.35
-42.27
-53.34
-65.31
-77.0
-86.25
-90.36
-86.96
-75.15
-56.07
-32.65
-8.59
12.81
29.53
40.95
47.41
49.57
48.03
43.29
35.97
27.06
17.89
9.8
3.76
0.05
-1.8
-2.79
-4.07
-6.64
-11.0
-17.19
-24.89
-33.69
-43.29
-53.68
-65.06
-77.62
-91.48
-106.5
-122.49
-139.3
-156.86
-175.1
-193.55
-211.06
-225.75
-235.46
-238.49
-234.28
-223.72
-208.95
-192.67
-177.39
-164.82
-155.57
-149.03
-143.6
-136.98
-126.82
-111.3
-89.91
-63.68
-34.95
-6.59
19.02
40.76
59.02
75.16
90.73
106.69
123.1
139.4
154.8
168.95
182.25
195.7
210.78
229.39
253.74
286.05
327.47
376.57
428.33
474.52
505.91
515.52
501.35
467.13
420.61
370.26
322.19
278.87
239.65
202.71
166.76
131.4
96.54
61.39
24.16
-16.99
-62.61
-111.07
-158.69
-200.76
-233.66
-256.07
-269.24
-276.16
-280.09
-283.5
-287.99
-294.64
-304.63
-319.22
-339.29
-364.53
-393.17
-422.14
-447.74
-466.45
-475.48
-473.15
-459.18
-434.79
-402.57
-366.0
-328.56
-292.94
-260.45
-231.13
-204.24
-178.96
-154.67
-131.07
-108.05
-85.43
-62.97
-40.57
-18.34
3.33
23.92
43.08
60.96
78.3
96.12
115.05
134.67
153.28
168.22
176.7
176.77
167.62
149.51
123.34
90.58
53.49
15.64
-18.24
-43.05
-54.95
-52.74
-38.41
-16.31
8.63
32.65
54.09
73.21
91.26
109.49
128.66
149.12
171.07
194.53
219.11
243.49
265.47
282.4
291.95
293.03
286.05
272.73
255.38
236.13
216.4
196.77
177.11
156.81
135.07
111.13
84.44
54.75
21.99
-13.68
-51.82
-91.14
-129.06
-161.62
-184.23
-193.01
-186.34
-165.51
-134.17
-96.73
-56.5
-14.78
28.55
73.41
117.9
157.98
188.71
206.42
210.76
205.09
195.27
187.25
184.94
189.02
197.41
206.7
213.74
216.65
214.94
209.02
199.53
186.88
171.26
152.75
131.63
108.43
83.74
57.9
31.01
3.22
-24.36
-49.01
-66.29
-70.95
-58.76
-28.34
17.85
73.87
132.15
185.58
229.36
261.48
282.23
293.03
295.48
291.05
281.34
268.48
255.07
243.52
234.95
228.34
220.58
207.5
185.68
153.94
113.86
68.8
22.22
-23.76
-68.72
-113.19
-157.34
-200.36
-240.76
-277.44
-310.53
-341.21
-370.69
-399.14
-425.4
-447.61
-464.29
-474.82
-479.37
-478.07
-470.6
-456.53
-436.21
-411.51
-385.66
-362.32
-344.21
-332.4
-326.28
-324.44
-325.63
-329.14
-334.62
-341.67
-349.46
-356.74
-362.07
-364.22
-362.39
-356.4
-346.45
-333.02
-316.63
-297.67
-276.42
-253.14
-228.21
-202.21
-175.96
-150.41
-126.39
-104.49
-84.8
-66.93
-50.16
-33.65
-16.82
0.54
18.18
35.57
52.13
67.6
82.16
96.43
111.21
127.09
144.15
161.87
179.37
195.68
210.21
222.89
234.28
245.4
257.55
272.07
289.84
310.67
332.72
352.46
365.32
366.97
354.76
328.49
290.35
243.98
193.12
140.59
87.9
35.51
-16.45
-67.32
-115.48
-158.32
-192.75
-216.19
-227.45
-227.21
-217.89
-202.85
-185.33
-167.88
-152.19
-139.3
-129.82
-123.83
-120.59
-118.4
-114.85
-107.54
-94.93
-76.67
-53.49
-26.68
2.72
34.31
68.29
105.01
144.33
185.2
225.74
263.69
297.0
324.26
344.66
357.66
362.86
360.03
349.52
332.72
311.87
289.56
267.86
247.83
229.56
212.77
197.33
183.44
171.36
161.03
152.02
143.88
136.67
131.07
128.11
128.4
131.64
136.42
140.73
142.64
140.94
135.3
126.22
114.63
101.59
88.15
75.18
63.32
52.79
43.3
34.06
23.98
11.89
-2.92
-20.4
-39.4
-57.74
-72.51
-80.79
-80.48
-71.0
-53.45
-30.33
-4.76
20.36
42.91
61.69
76.24
86.46
92.43
94.37
92.91
88.96
83.79
78.58
74.18
70.77
67.96
64.96
60.98
55.6
48.94
41.56
34.23
27.47
21.36
15.41
8.83
0.73
-9.48
-21.9
-35.93
-50.25
-62.91
-71.65
-74.44
-70.02
-58.39
-40.82
-19.48
3.17
24.96
44.32
60.33
72.4
80.27
83.87
83.59
80.23
75.03
69.37
64.29
60.26
57.04
53.9
50.02
44.88
38.44
31.08
23.44
16.06
9.15
2.53
-4.29
-11.96
-21.08
-31.98
-44.6
-58.3
-71.72
-82.92
-89.67
-90.08
-83.16
-69.24
-49.95
-27.76
-5.32
15.12
32.11
44.92
53.33
57.49
57.78
54.95
50.09
44.51
39.42
35.58
33.15
31.65
30.3
28.29
25.11
20.67
15.27
9.4
3.47
-2.32
-8.09
-14.32
-21.59
-30.44
-41.02
-52.93
-65.09
-75.83
-83.2
-85.39
-81.26
-70.68
-54.57
-34.74
-13.42
7.24
25.42
39.86
49.82
55.08
55.85
52.89
47.36
40.71
34.39
29.42
26.16
24.21
22.6
20.24
16.36
10.79
3.96
-3.31
-10.31
-16.72
-22.78
-29.15
-36.65
-45.89
-56.99
-69.41
-81.89
-92.52
-99.07
-99.51
-92.63
-78.48
-58.5
-35.11
-11.07
11.21
30.1
44.82
55.09
60.98
62.67
60.65
55.75
49.26
42.61
36.93
32.67
29.53
26.62
22.95
17.9
11.48
4.2
-3.17
-9.98
-16.02
-21.56
-27.23
-33.86
-42.22
-52.72
-65.18
-78.56
-90.98
-99.93
-102.94
-98.27
-85.6
-66.1
-42.21
-16.83
7.36
28.43
45.32
57.58
65.19
68.35
67.53
63.59
57.79
51.49
45.91
41.65
38.64
36.15
33.25
29.16
23.58
16.71
9.13
1.5
-5.73
-12.4
-18.79
-25.41
-32.98
-42.16
-53.35
-66.34
-80.03
-92.4
-100.88
-102.93
-96.93
-82.75
-61.88
-37.02
-11.22
12.84
33.39
49.61
61.33
68.69
71.91
71.35
67.66
61.83
55.19
49.0
44.13
40.75
38.35
35.98
32.71
27.97
21.74
14.54
7.03
-0.21
-6.96
-13.3
-19.63
-26.44
-34.26
-43.55
-54.58
-67.15
-80.31
-92.28
-100.63
-102.92
-97.46
-83.99
-63.92
-39.91
-15.09
7.84
27.03
41.7
51.67
57.12
58.36
55.92
50.73
44.15
37.76
32.86
30.06
29.08
28.91
28.25
26.04
21.91
16.14
9.52
2.86
-3.33
-8.96
-14.38
-20.12
-26.79
-34.83
-44.56
-55.91
-68.3
-80.41
-90.25
-95.44
-93.98
-84.88
-68.66
-47.26
-23.48
-0.2
20.3
36.64
48.23
55.07
57.45
55.9
51.29
44.83
37.97
32.02
27.87
25.6
24.56
23.59
21.51
17.58
11.76
4.68
-2.75
-9.76
-16.06
-21.94
-28.0
-34.99
-43.49
-53.82
-65.91
-79.17
-92.3
-103.25
-109.52
-108.81
-99.86
-82.94
-59.97
-33.91
-7.84
15.8
35.55
50.86
61.61
67.88
69.81
67.8
62.73
55.93
48.95
43.06
38.96
36.51
34.92
33.09
30.07
25.32
18.9
11.28
3.12
-5.02
-12.85
-20.44
-28.03
-36.06
-45.01
-55.38
-67.39
-80.8
-94.51
-106.51
-114.09
-114.67
-106.58
-89.84
-66.26
-38.93
-11.27
13.9
34.88
51.09
62.65
69.96
73.41
73.45
70.66
65.92
60.3
54.86
50.34
47.0
44.58
42.45
39.83
36.07
30.79
24.07
16.23
7.81
-0.72
-9.08
-17.21
-25.2
-33.29
-41.83
-51.22
-61.87
-73.94
-86.95
-99.53
-109.41
-113.87
-110.59
-98.49
-78.22
-52.06
-23.24
4.96
29.97
50.26
65.34
75.36
80.8
82.33
80.7
76.77
71.51
65.85
60.55
56.05
52.4
49.29
46.27
42.84
38.64
33.51
27.44
20.56
13.07
5.15
-3.02
-11.28
-19.56
-27.83
-36.2
-44.99
-54.66
-65.67
-78.08
-91.16
-103.19
-111.64
-113.79
-107.71
-93.04
-71.22
-45.13
-18.17
6.65
27.34
43.07
53.84
60.12
62.55
61.87
58.95
54.76
50.29
46.35
43.33
41.23
39.63
37.96
35.62
32.21
27.55
21.72
14.96
7.6
0.0
-7.54
-14.83
-21.84
-28.76
-35.92
-43.79
-52.82
-63.23
-74.7
-86.24
-96.03
-101.76
-101.18
-92.89
-76.91
-54.87
-29.58
-4.25
18.39
36.63
49.85
58.25
62.38
62.93
60.61
56.24
50.84
45.44
40.87
37.58
35.49
34.1
32.71
30.65
27.45
22.97
17.34
10.82
3.76
-3.55
-10.87
-18.08
-25.2
-32.41
-40.06
-48.7
-58.79
-70.5
-83.31
-95.78
-105.62
-110.18
-107.23
-95.81
-76.61
-51.87
-24.72
1.68
24.86
43.37
56.69
64.97
68.79
68.96
66.5
62.51
58.05
53.91
50.47
47.72
45.41
43.18
40.71
37.72
33.99
29.34
23.63
16.84
9.1
0.74
-7.83
-16.2
-24.13
-31.65
-39.04
-46.81
-55.55
-65.81
-77.78
-90.97
-103.97
-114.52
-119.94
-117.84
-107.04
-87.97
-62.69
-34.3
-6.05
19.42
40.51
56.54
67.55
73.96
76.39
75.72
72.98
69.27
65.55
62.43
60.04
58.14
56.25
53.92
50.9
47.22
43.02
38.45
33.49
27.83
21.12
13.09
3.81
-6.2
-16.23
-25.6
-33.99
-41.59
-49.1
-57.46
-67.51
-79.59
-93.24
-106.96
-118.29
-124.36
-122.69
-112.03
-92.9
-67.54
-39.21
-11.23
13.83
34.52
50.42
61.64
68.59
71.72
71.7
69.48
66.2
62.9
60.27
58.4
56.9
55.2
52.82
49.63
45.73
41.37
36.67
31.54
25.69
18.84
10.87
2.0
-7.29
-16.37
-24.75
-32.31
-39.37
-46.69
-55.2
-65.55
-77.68
-90.45
-101.65
-108.5
-108.44
-99.99
-83.4
-60.62
-34.74
-9.05
13.8
32.31
46.01
55.19
60.37
62.18
61.25
58.37
54.44
50.36
46.86
44.26
42.45
41.03
39.43
37.15
33.84
29.36
23.77
17.27
10.14
2.7
-4.78
-12.11
-19.23
-26.21
-33.3
-40.89
-49.39
-59.14
-70.04
-81.26
-91.16
-97.49
-97.99
-91.14
-76.86
-56.63
-33.13
-9.45
11.74
28.75
41.0
48.68
52.41
52.88
50.78
46.86
41.98
37.01
32.76
29.7
27.84
26.75
25.67
23.83
20.65
15.99
10.12
3.62
-2.91
-9.03
-14.61
-19.93
-25.43
-31.69
-39.27
-48.58
-59.74
-72.33
-85.11
-96.03
-102.52
-102.28
-94.01
-78.02
-56.25
-31.65
-7.3
14.38
32.08
45.42
54.62
59.99
61.88
60.73
57.24
52.47
47.62
43.73
