110.83
122.14
128.7
131.19
130.58
128.03
124.61
121.09
117.94
115.32
113.15
111.15
108.77
105.27
99.7
91.16
79.0
63.07
43.85
22.34
-0.13
-22.27
-43.19
-62.64
-81.0
-99.05
-117.47
-136.28
-154.48
-169.91
-179.81
-181.51
-173.41
-155.5
-129.55
-98.49
-65.78
-34.6
-7.38
14.35
29.8
38.88
41.99
40.08
34.54
27.12
19.53
13.23
9.04
6.97
6.38
6.15
5.15
2.51
-2.13
-8.58
-16.31
-24.61
-32.91
-40.9
-48.55
-56.18
-64.37
-73.82
-85.06
-98.07
-111.9
-124.53
-133.19
-135.08
-128.31
-112.56
-89.32
-61.45
-32.25
-4.63
19.34
38.51
52.36
60.74
63.84
62.26
57.01
49.48
41.18
33.26
26.34
20.36
14.8
8.97
2.32
-5.53
-14.52
-24.25
-34.25
-44.15
-53.96
-64.02
-74.83
-86.94
-101.12
-117.78
-136.88
-157.89
-179.7
-200.64
-218.49
-230.55
-234.49
-229.57
-215.97
-194.83
-168.2
-138.89
-110.57
-87.48
-73.72
-73.2
-89.53
-123.34
-171.4
-226.76
-280.05
-321.9
-345.1
-345.84
-325.25
-289.73
-247.03
-204.13
-165.86
-134.77
-112.04
-98.24
-93.28
-87.76
-77.18
-60.79
-41.6
-24.13
-11.68
-5.34
-7.96
-16.01
-25.69
-35.34
-43.4
-48.21
-47.9
-40.09
-24.02
0.0
31.6
69.26
109.86
150.56
189.09
224.06
254.95
281.98
306.1
329.21
352.62
376.27
399.48
421.38
441.11
458.28
473.11
486.5
500.3
516.5
537.07
563.92
597.7
636.32
674.1
702.36
712.08
697.34
657.59
597.93
527.11
454.12
385.2
322.88
266.9
216.26
170.87
131.69
99.98
76.51
61.07
52.64
49.84
50.85
53.33
54.64
52.06
43.53
28.36
7.4
-17.21
-42.73
-66.54
-86.8
-102.75
-114.79
-124.25
-132.86
-142.15
-152.82
-164.41
-175.52
-184.57
-190.61
-193.83
-195.48
-197.2
-200.24
-204.87
-210.36
-215.28
-218.06
-217.5
-212.8
-203.71
-190.47
-174.02
-156.07
-139.01
-125.31
-116.66
-113.28
-113.67
-115.3
-115.69
-113.46
-108.74
-102.92
-97.85
-94.83
-94.23
-95.39
-97.06
-97.92
-97.06
-94.1
-89.24
-83.22
-77.17
-72.42
-70.2
-71.28
-75.7
-82.58
-90.31
-96.92
-100.62
-100.25
-95.56
-87.12
-76.18
-64.34
-53.26
-44.27
-37.84
-33.45
-29.56
-24.42
-16.88
-7.19
2.94
11.15
15.52
15.54
12.26
7.66
3.55
0.94
-0.13
-0.13
0.47
1.32
2.02
1.81
-0.37
-5.36
-13.24
-22.99
-32.69
-40.19
-43.87
-43.26
-39.0
-32.43
-25.04
-17.89
-11.46
-5.72
-0.44
4.46
8.85
12.28
14.16
13.97
11.4
6.46
-0.37
-8.12
-15.45
-20.89
-23.27
-22.22
-18.37
-13.25
-8.73
-6.28
-6.4
-8.6
-11.74
-14.72
-17.07
-19.14
-21.75
-25.71
-31.25
-37.88
-44.59
-50.23
-53.79
-54.51
-51.83
-45.37
-35.09
-21.58
-6.26
8.74
21.11
29.15
32.31
31.35
27.92
23.85
20.46
18.28
17.03
15.97
14.31
11.42
6.92
0.68
-7.18
-16.22
-25.66
-34.5
-41.72
-46.69
-49.43
-50.73
-51.96
-54.69
-60.08
-68.34
-78.43
-88.28
-95.22
-96.84
-91.73
-80.0
-63.36
-44.63
-27.07
-13.47
-5.47
-3.22
-5.59
-10.7
-16.77
-22.82
-28.89
-35.85
-44.74
-56.06
-69.45
-83.67
-97.04
-108.06
-116.1
-121.95
-128.08
-138.06
-155.22
-180.85
-212.76
-245.21
-270.58
-282.21
-276.94
-256.31
-225.45
-190.76
-157.44
-128.36
-104.36
-85.56
-72.49
-66.22
-67.71
-76.85
-92.07
-110.73
-130.13
-148.45
-165.16
-180.85
-196.42
-212.37
-228.22
-242.63
-253.89
-260.6
-262.22
-259.23
-252.89
-244.67
-235.77
-226.69
-217.34
-207.28
-196.11
-183.79
-170.69
-157.48
-144.86
-133.28
-122.76
-112.99
-103.44
-93.59
-83.08
-71.79
-59.82
-47.33
-34.46
-21.22
-7.52
6.76
21.72
37.32
53.36
69.48
85.23
100.19
114.08
126.77
138.29
148.73
158.17
166.58
173.84
179.82
184.49
188.05
190.97
193.92
197.54
202.33
208.43
215.71
223.8
232.39
241.31
250.63
260.6
271.56
283.9
298.02
314.15
332.06
350.8
368.6
383.22
392.56
395.44
391.98
383.46
371.66
358.07
343.39
327.55
310.2
291.32
271.43
251.49
232.35
214.41
197.4
180.6
163.23
144.73
125.0
104.36
83.34
62.47
42.17
22.62
3.86
-14.24
-31.89
-49.37
-67.05
-85.22
-103.88
-122.38
-139.28
-152.45
-159.62
-158.98
-149.81
-132.61
-108.91
-80.82
-50.43
-19.56
10.36
38.36
63.77
86.38
106.35
124.08
140.02
154.39
167.11
177.83
186.11
191.54
193.9
193.14
189.31
182.56
173.17
161.6
148.48
134.64
120.87
107.79
95.56
83.89
72.13
59.62
46.04
31.66
17.38
4.31
-6.54
-14.7
-20.23
-23.43
-24.63
-23.83
-20.88
-15.75
-8.86
-1.15
6.19
12.08
16.01
18.08
18.84
18.97
19.0
19.15
19.43
19.76
19.92
19.72
18.83
16.96
13.9
9.63
4.38
-1.47
-7.52
-13.53
-19.39
-25.24
-31.29
-37.8
-44.9
-52.41
-59.76
-66.0
-69.94
-70.46
-66.84
-58.96
-47.34
-33.04
-17.34
-1.53
13.26
26.2
36.76
44.7
50.05
53.11
54.34
54.32
53.59
52.62
51.65
50.72
49.67
48.25
46.25
43.54
40.18
36.3
32.04
27.58
23.0
18.32
13.54
8.61
3.44
-2.17
-8.49
-15.79
-24.09
-33.12
-42.07
-49.85
-55.28
-57.43
-55.89
-50.79
-42.73
-32.58
-21.3
-9.78
1.17
10.88
18.82
24.74
28.68
30.96
32.08
32.54
32.73
32.78
32.68
32.33
31.68
30.79
29.69
28.44
26.98
25.16
22.82
19.89
16.4
12.47
8.25
3.83
-0.74
-5.54
-10.71
-16.42
-22.83
-29.99
-37.64
-45.17
-51.61
-55.87
-57.06
-54.82
-49.43
-41.64
-32.45
-22.77
-13.28
-4.47
3.3
9.65
14.31
17.19
18.52
18.79
18.59
18.41
18.42
18.55
18.53
18.08
17.06
15.45
13.34
10.85
8.08
5.06
1.83
-1.6
-5.13
-8.67
-12.22
-15.92
-20.07
-25.04
-31.06
-37.94
-45.04
-51.28
-55.52
-56.81
-54.7
-49.32
-41.29
-31.44
-20.72
-10.01
-0.1
8.4
15.08
19.79
22.7
24.18
24.68
24.58
24.09
23.26
22.1
20.64
18.99
17.25
15.46
13.53
11.29
8.6
5.43
1.9
-1.79
-5.43
-8.94
-12.36
-15.9
-19.81
-24.37
-29.79
-36.12
-43.15
-50.35
-56.81
-61.49
-63.38
-61.91
-57.01
-49.2
-39.35
-28.43
-17.38
-6.97
2.14
9.46
14.71
17.94
19.48
19.93
19.93
19.96
20.23
20.64
20.99
21.1
20.85
20.2
19.15
17.64
15.57
12.91
9.69
6.01
2.02
-2.15
-6.43
-10.73
-15.01
-19.28
-23.66
-28.37
-33.61
-39.45
-45.56
-51.26
-55.55
-57.46
-56.3
-51.94
-44.8
-35.73
-25.7
-15.66
-6.29
1.89
8.59
13.6
16.89
18.55
18.88
18.35
17.47
16.64
16.07
15.78
15.61
15.43
15.2
14.88
14.46
13.79
12.66
10.9
8.42
5.29
1.67
-2.26
-6.38
-10.62
-15.0
-19.57
-24.45
-29.76
-35.53
-41.58
-47.36
-52.02
-54.53
-54.05
-50.18
-43.2
-33.9
-23.46
-12.99
-3.47
4.44
10.38
14.22
16.08
16.25
15.28
13.74
12.18
10.96
10.14
9.6
9.08
8.39
7.45
6.28
4.87
3.14
0.94
-1.84
-5.18
-8.91
-12.72
-16.35
-19.7
-22.96
-26.55
-30.88
-36.14
-42.02
-47.75
-52.22
-54.37
-53.51
-49.49
-42.7
-33.9
-24.06
-14.1
-4.9
2.84
8.64
12.24
13.75
13.54
12.18
10.29
8.42
6.95
6.06
5.72
5.66
5.54
4.95
3.64
1.52
-1.29
-4.57
-8.06
-11.59
-15.08
-18.53
-21.98
-25.54
-29.4
-33.85
-39.15
-45.4
-52.27
-59.06
-64.67
-67.91
-67.78
-63.74
-55.87
-44.89
-32.0
-18.61
-6.08
4.53
12.67
18.26
21.68
23.47
24.15
24.17
23.77
23.13
22.34
21.49
20.61
19.64
18.47
16.89
14.71
11.81
8.17
3.98
-0.44
-4.77
-8.82
-12.66
-16.62
-21.22
-26.96
-34.07
-42.37
-51.16
-59.32
-65.51
-68.38
-66.92
-60.69
-50.01
-35.94
-20.09
-4.27
9.89
21.27
29.42
34.44
36.8
37.11
36.01
34.1
31.98
30.14
28.86
28.19
27.85
27.41
26.39
24.54
21.83
18.45
14.68
10.73
6.7
2.53
-1.82
-6.44
-11.37
-16.7
-22.55
-29.04
-36.1
-43.3
-49.77
-54.3
-55.68
-53.05
-46.26
-35.96
-23.42
-10.2
2.33
13.11
21.56
27.54
31.14
32.61
32.38
30.92
28.83
26.7
25.05
24.14
23.95
24.16
24.25
23.72
22.2
19.62
16.13
12.09
7.91
3.86
0.06
-3.63
-7.52
-12.01
-17.45
-24.0
-31.54
-39.53
-47.04
-52.86
-55.69
-54.5
-48.83
-39.03
-26.23
-12.06
1.77
13.89
23.43
30.08
33.87
35.07
34.14
31.7
28.55
25.55
23.33
22.08
21.56
21.12
20.09
17.97
14.71
10.58
6.1
1.72
-2.28
-5.92
-9.56
-13.72
-18.99
-25.7
-33.84
-42.81
-51.44
-58.22
-61.51
-60.11
-53.6
-42.51
-28.21
-12.54
2.75
16.33
27.47
35.94
41.74
44.92
45.6
44.05
40.83
36.83
33.01
30.1
28.36
27.41
26.48
24.74
21.67
17.26
11.98
6.53
1.45
-3.06
-7.2
-11.45
-16.4
-22.59
-30.28
-39.42
-49.38
-58.92
-66.2
-69.31
-66.75
-58.1
-44.28
-27.22
-9.29
7.5
21.89
33.49
42.38
48.78
52.79
54.4
53.79
51.42
48.17
44.95
42.53
41.14
40.49
39.87
38.44
35.63
31.28
25.76
19.74
13.91
8.7
4.11
-0.22
-4.85
-10.32
-17.03
-25.2
-34.81
-45.44
-56.04
-64.93
-69.99
-69.4
-62.2
-48.88
-31.23
-11.77
7.03
23.47
36.75
46.83
53.91
58.28
60.18
59.97
58.24
55.73
53.14
50.86
48.98
47.29
45.52
43.51
41.19
38.54
35.47
31.8
27.33
21.99
15.93
9.49
3.07
-2.98
-8.54
-13.71
-18.8
-24.32
-30.82
-38.7
-47.9
-57.59
-66.12
-71.27
-71.06
-64.41
-51.73
-34.81
-16.27
1.35
16.31
27.9
36.28
41.96
45.46
47.1
47.17
46.03
44.16
42.1
40.2
38.6
37.24
35.94
34.56
33.04
31.34
29.35
26.9
23.73
19.72
14.88
9.44
3.75
-1.85
-7.14
-12.07
-16.77
-21.58
-26.97
-33.37
-41.0
-49.46
-57.65
-63.77
-65.87
-62.48
-53.35
-39.52
-23.13
-6.64
7.9
19.3
27.26
32.07
34.33
34.66
33.65
31.91
30.06
28.59
27.76
27.55
27.68
27.71
27.24
25.94
23.66
20.42
16.39
11.83
7.0
2.13
-2.6
-7.15
-11.49
-15.67
-19.83
-24.15
-29.02
-34.8
-41.8
-49.88
-58.2
-65.23
-69.02
-67.88
-61.0
-48.91
-33.28
-16.42
-0.44
13.28
24.18
32.37
38.08
41.47
42.69
41.95
39.78
36.96
34.27
32.22
30.9
29.99
29.07
27.69
25.71
23.16
20.18
16.84
13.18
9.2
4.91
0.45
-4.04
-8.42
-12.68
-16.91
-21.32
-26.16
-31.73
-38.27
-45.79
-53.81
-61.2
-66.26
-67.16
-62.68
-52.69
-38.39
-21.9
-5.56
8.73
19.98
28.01
33.16
35.98
37.0
36.77
35.81
34.72
33.9
33.46
33.2
32.66
31.47
29.5
26.95
24.25
21.86
19.96
18.43
16.83
14.62
11.44
7.19
2.13
-3.33
-8.74
-13.8
-18.44
-22.78
-27.2
-32.14
-38.0
-44.87
-52.29
-59.15
-63.86
-64.8
-60.92
-52.16
-39.54
-24.85
-10.05
3.33
14.41
22.95
29.04
32.8
34.29
33.67
31.36
28.13
24.95
22.71
21.84
22.24
23.37
24.52
25.08
24.73
23.38
21.12
18.07
14.29
9.9
5.02
-0.09
-5.15
-9.88
-14.02
-17.52
-20.49
-23.29
-26.45
-30.55
-36.0
-42.79
-50.24
-57.06
-61.54
-62.06
-57.63
-48.25
-35.06
-19.96
-5.07
7.89
17.91
24.75
28.73
30.36
30.19
28.79
26.72
24.58
22.95
22.17
22.23
22.82
23.36
23.32
22.39
20.55
18.07
15.29
12.43
9.48
6.26
2.52
-1.8
-6.57
-11.44
-16.1
-20.44
-24.63
-29.06
-34.23
-40.41
-47.51
-54.96
-61.69
-66.33
-67.49
-64.22
-56.34
-44.58
-30.36
-15.43
-1.36
10.71
20.14
26.67
30.35
31.43
30.49
28.36
26.0
24.18
23.25
23.06
23.12
22.92
22.21
21.03
19.66
18.41
17.42
16.56
15.45
13.63
10.74
6.66
1.65
-3.84
-9.23
-14.12
-18.41
-22.37
-26.53
-31.5
-37.73
-45.19
-53.26
-60.75
-66.06
-67.63
-64.42
-56.27
-44.02
-29.34
-14.21
-0.41
10.84
19.07
24.46
27.59
29.13
29.76
29.9
29.9
29.93
30.01
30.08
30.03
29.76
29.21
28.43
27.5
26.51
25.53
24.55
23.5
22.25
20.77
19.08
17.37
15.9
14.93
14.49
14.35
14.07
13.05
10.94
7.8
4.27
1.59
1.32
4.94
13.34
26.71
44.27
64.69
86.36
107.8
127.93
146.1
162.02
175.63
187.09
196.7
204.93
212.31
219.43
226.8
234.84
243.82
253.71
264.2
274.53
283.73
290.76
294.99
296.4
295.68
293.96
292.2
290.64
288.51
284.31
276.49
264.22
247.77
228.32
207.3
185.73
163.89
141.52
118.37
94.71
71.35
49.39
29.64
12.33
-2.89
-16.61
-29.34
-41.29
-52.44
-62.72
-72.15
-80.9
-89.15
-97.04
-104.51
-111.43
-117.68
-123.29
-128.49
-133.69
-139.23
-145.37
-152.09
-159.18
-166.36
-173.42
-180.42
-187.72
-196.09
-206.5
-219.85
-236.35
-255.02
-273.34
-287.71
-294.3
-290.25
-274.6
-248.58
-215.13
-178.03
-140.92
-106.64
-77.19
-53.81
-37.13
-27.31
-24.01
-26.43
-33.37
-43.46
-55.25
-67.47
-79.04
-89.18
-97.43
-103.57
-107.64
-109.78
-110.25
-109.32
-107.34
-104.78
-102.16
-100.01
-98.73
-98.46
-99.06
-100.14
-101.28
-102.13
-102.58
-102.71
-102.78
-103.05
-103.63
-104.49
-105.33
-105.7
-104.96
-102.47
-97.64
-90.19
-80.27
-68.55
-56.05
-43.92
-33.21
-24.64
-18.57
-14.95
-13.56
-14.0
-15.79
-18.41
-21.29
-24.0
-26.23
-27.84
-28.82
-29.27
-29.27
-28.91
-28.33
-27.7
-27.22
-27.0
-27.07
-27.34
-27.72
-28.12
-28.56
-29.17
-30.03
-31.28
-32.92
-34.96
-37.35
-39.93
-42.35
-44.01
-44.16
-42.04
-37.23
-29.82
-20.49
-10.35
-0.56
7.85
14.23
18.3
20.1
19.84
17.86
14.55
10.29
5.49
0.39
-4.8
-9.96
-15.0
-19.83
-24.42
-28.85
-33.35
-38.19
-43.76
-50.26
-57.65
-65.6
-73.33
-79.98
-84.67
-86.82
-86.22
-83.02
-77.47
-69.66
-59.42
-46.34
-29.98
-10.19
12.71
37.8
63.68
88.78
111.69
131.42
147.62
160.37
170.0
176.63
179.94
179.09
173.09
161.2
143.47
120.9
95.32
68.93
43.65
20.75
0.61
-17.06
-32.79
-46.97
-59.65
-70.67
-79.89
-87.43
-93.71
-99.26
-104.57
-109.86
-115.16
-120.36
-125.34
-129.95
-133.83
-136.39
-136.63
-133.37
-125.56
-112.59
-94.65
-72.85
-49.01
-25.32
-3.8
14.18
28.03
37.99
44.78
49.27
52.2
54.1
55.31
56.01
56.37
56.5
56.49
56.29
55.77
54.68
52.72
49.61
45.19
39.52
32.89
25.72
18.48
11.5
4.84
-1.66
-8.45
-16.05
-24.97
-35.42
-47.08
-58.95
-69.17
-75.34
-75.06
-66.75
-50.39
-27.7
-1.96
22.97
43.75
58.45
66.69
69.36
67.9
63.56
57.21
49.37
40.62
31.69
23.49
16.71
11.59
7.85
4.77
1.57
-2.33
-7.08
-12.53
-18.36
-24.31
-30.22
-36.03
-41.75
-47.43
-53.17
-59.15
-65.66
-72.98
-81.0
-88.96
-95.32
-97.9
-94.43
-83.42
-64.72
-39.74
-11.2
17.66
43.81
65.13
80.65
90.57
96.03
98.62
100.09
101.8
104.44
107.89
111.23
113.17
112.43
108.1
99.91
88.15
73.55
57.02
39.41
21.47
3.79
-13.21
-29.24
-44.21
-58.3
-72.02
-86.03
-100.72
-115.67
-129.29
-139.05
-142.33
-137.68
-125.71
-109.45
-93.66
-83.49
-82.93
-93.7
-114.83
-143.1
-174.04
-202.96
-225.82
-239.59
-242.3
-232.95
-211.5
-178.89
-137.23
-89.33
-38.08
14.37
66.8
117.94
164.84
202.05
222.15
218.25
187.02
130.68
56.7
-24.91
-105.01
-177.55
-239.7
-290.19
-327.59
-349.81
-355.25
-344.58
-321.65
-292.71
-264.22
-240.56
-222.84
-209.26
-196.56
-181.92
-163.97
-142.98
-120.24
-96.94
-73.76
-50.72
-27.33
-3.08
22.13
48.17
74.9
102.48
131.21
161.04
190.73
217.57
237.75
247.56
244.74
229.26
203.23
169.95
133.12
96.19
62.6
35.77
18.97
14.52
23.01
43.01
71.42
104.5
138.69
170.94
198.54
218.94
229.99
230.53
221.06
203.87
182.55
160.93
142.06
127.62
117.84
111.88
108.25
105.28
101.37
95.37
86.69
75.45
62.33
48.35
34.41
20.95
7.81
-5.8
-20.99
-38.53
-58.23
-78.34
-95.57
-105.72
-104.89
-90.84
-64.01
-27.58
13.37
53.29
87.59
113.55
130.26
138.15
138.27
131.9
120.59
106.32
91.54
78.69
69.51
64.39
62.11
60.35
56.58
49.18
37.98
24.27
10.14
-2.45
-12.47
-20.1
-26.59
-33.7
-43.06
-55.65
-71.28
-88.32
-103.8
-113.8
-114.42
-103.01
-79.26
-45.51
-6.21
33.39
68.76
97.11
117.41
129.85
134.99
133.45
126.05
114.2
100.2
86.9
76.93
71.77
71.15
73.25
75.44
75.37
71.79
64.87
55.87
46.39
37.64
29.87
22.33
13.56
1.96
-13.57
-33.13
-55.4
-77.66
-96.13
-106.74
-106.2
-93.12
-68.54
-35.8
0.47
35.69
66.45
91.05
109.17
121.12
127.11
127.14
121.26
110.29
96.07
81.26
68.52
59.53
54.39
51.69
49.19
44.89
37.84
28.39
17.79
7.49
-1.63
-9.58
-17.15
-25.44
-35.44
-47.76
-62.5
-79.14
-96.27
-111.48
-121.51
-122.88
-113.12
-91.82
-61.2
-25.59
9.96
41.3
66.29
84.84
98.17
107.72
114.23
117.7
117.81
114.53
108.51
100.98
93.28
86.42
80.72
75.92
71.39
66.58
61.23
55.47
49.58
43.77
37.9
31.53
24.09
15.2
4.79
-6.92
-19.73
-33.57
-48.27
-63.08
-76.1
-84.23
-83.86
-72.24
-48.8
-15.81
22.21
59.88
92.58
117.64
134.4
143.6
146.57
144.56
138.68
130.11
120.35
111.22
104.71
102.51
105.56
113.6
125.03
137.15
147.01
152.43
152.75
149.09
143.61
138.52
135.05
133.2
132.04
130.46
127.52
122.39
113.93
100.51
80.62
53.92
22.16
-10.69
-39.62
-60.39
-71.11
-72.9
-69.25
-64.53
-62.37
-64.8
-72.06
-83.06
-96.02
-108.8
-119.27
-125.49
-126.11
-120.79
-110.45
-97.15
-83.66
-72.85
-67.17
-68.3
-76.94
-92.71
-114.23
-139.21
-164.88
-188.58
-208.46
-224.07
-236.41
-247.62
-260.13
-275.85
-295.23
-316.83
-337.31
-351.99
-356.09
-346.18
-321.5
-284.35
-239.57
-192.88
-149.09
-110.8
-78.08
-49.11
-21.2
8.05
39.71
73.19
106.37
136.75
162.92
185.85
208.82
235.63
267.91
302.89
333.29
349.82
344.91
316.03
266.73
204.98
140.01
79.41
27.73
-13.25
-43.45
-63.65
-75.4
-80.91
-83.06
-84.53
-86.7
-88.82
-88.16
-81.01
-64.38
-37.47
-2.36
36.38
73.05
102.48
121.42
129.03
126.68
117.1
103.35
88.1
73.16
59.48
47.43
37.22
29.09
23.37
20.25
19.45
20.13
20.94
20.54
17.94
12.97
6.23
-1.2
-8.21
-14.18
-19.12
-23.7
-28.93
-35.96
-45.68
-58.43
-73.5
-88.8
-100.96
-106.0
-100.65
-83.65
-56.58
-23.66
9.62
38.24
59.1
71.53
76.68
76.48
72.57
65.97
57.33
47.38
37.25
28.31
21.75
18.05
16.82
16.89
16.76
15.08
11.08
4.72
-3.42
-12.42
-21.34
-29.56
-36.86
-43.34
-49.44
-55.77
-63.05
-72.11
-83.51
-97.15
-111.72
-124.34
-131.0
-127.73
-112.14
-84.69
-49.01
-10.93
23.48
49.76
66.18
73.53
73.96
69.51
61.43
50.27
36.7
22.2
9.06
-0.26
-4.25
-3.09
1.27
5.92
8.09
6.25
0.51
-7.75
-16.62
-24.61
-31.06
-36.23
-40.98
-46.32
-53.15
-62.13
-73.52
-86.84
-100.56
-111.84
-117.04
-112.68
-96.88
-70.31
-36.42
-0.41
32.37
58.03
74.97
83.62
85.52
82.24
74.89
64.19
51.02
36.9
23.84
13.89
8.27
6.9
8.36
10.48
11.18
9.2
4.45
-2.27
-9.73
-16.98
-23.62
-29.89
-36.32
-43.51
-51.87
-61.79
-73.64
-87.48
-102.66
-117.24
-127.83
-130.41
-121.72
-100.72
-69.49
-32.68
3.93
35.38
58.92
74.21
82.51
85.49
84.27
79.38
71.19
60.63
49.3
39.22
32.06
28.48
27.92
28.84
29.36
27.9
23.72
16.97
8.53
-0.47
-9.08
-16.83
-23.79
-30.37
-37.17
-44.72
-53.6
-64.34
-77.22
-91.78
-106.29
-117.54
-121.49
-114.61
-95.44
-65.54
-29.22
7.82
40.38
65.28
81.76
90.93
94.54
94.1
90.46
84.08
75.62
66.19
57.33
50.48
46.53
45.42
46.17
47.26
47.24
45.16
40.78
34.54
27.24
19.61
12.15
4.95
-2.14
-9.42
-17.27
-26.24
-37.07
-50.49
-66.73
-84.74
-101.79
-113.71
-116.18
-106.29
-84.01
-52.45
-16.95
16.76
44.32
63.72
75.11
79.77
79.13
74.16
65.61
54.44
42.31
31.42
23.92
21.08
22.78
27.48
32.68
35.86
35.23
30.29
21.82
11.35
0.56
-9.36
-17.94
-25.46
-32.67
-40.45
-49.65
-60.97
-74.75
-90.67
-107.17
-121.36
-129.32
-127.25
-113.04
-87.35
-53.74
-17.61
15.66
42.32
60.93
72.04
77.03
77.19
73.27
65.9
56.03
45.28
35.65
28.91
26.03
26.74
29.72
32.96
34.51
33.0
28.07
20.41
11.4
2.54
-5.11
-11.35
-16.71
-22.2
-28.89
-37.7
-49.19
-63.39
-79.39
-94.98
-106.67
-110.36
-102.74
-82.72
-52.25
-16.02
19.99
50.55
72.61
85.73
91.44
91.94
89.05
83.82
76.74
68.35
59.53
51.53
45.48
42.05
41.04
41.45
41.78
40.61
37.02
30.89
22.87
13.96
5.18
-2.97
-10.42
-17.56
-24.82
-32.66
-41.45
-51.72
-64.06
-78.69
-94.75
-109.71
-119.49
-119.65
-107.05
-81.4
-45.83
-5.97
31.92
62.99
84.95
98.06
104.05
104.85
101.84
95.74
87.22
77.31
67.6
59.78
55.08
53.79
55.16
57.68
59.64
59.58
56.73
51.04
43.09
33.74
23.84
14.0
4.57
-4.4
-12.97
-21.41
-30.23
-40.3
-52.62
-67.86
-85.53
-103.36
-117.27
-122.36
-114.66
-92.84
-59.2
-19.18
20.43
53.71
77.35
91.08
96.74
96.84
93.25
86.81
77.81
66.75
54.92
44.23
36.55
32.9
32.97
35.21
37.41
37.54
34.43
27.96
18.94
8.62
-1.83
-11.67
-20.66
-28.99
-37.08
-45.45
-54.83
-66.01
-79.73
-96.05
-113.69
-129.56
-139.2
-138.02
-123.18
-95.12
-57.78
-17.51
19.16
47.57
66.04
75.51
78.15
75.99
70.14
61.11
49.56
36.9
25.25
16.77
12.75
13.03
16.05
19.44
21.02
19.49
14.85
8.04
0.36
-7.15
-14.13
-20.85
-27.88
-35.69
-44.54
-54.59
-66.09
-79.35
-94.22
-109.4
-122.0
-127.93
-123.28
-105.97
-76.97
-40.4
-2.19
31.95
58.25
75.63
85.1
88.54
87.54
82.96
75.27
65.22
54.25
44.29
37.13
33.79
34.03
36.53
39.4
40.84
39.7
35.63
29.08
20.9
12.02
3.1
-5.55
-13.9
-22.09
-30.28
-38.78
-48.14
-59.18
-72.56
-88.02
-103.64
-115.82
-120.06
-112.62
-92.26
-61.08
-24.09
12.54
43.51
65.96
79.7
86.33
87.85
85.68
80.44
72.46
62.43
51.71
42.05
34.99
31.23
30.41
31.32
32.51
32.72
31.25
27.9
22.85
16.42
8.95
0.72
-7.97
-16.82
-25.53
-33.87
-41.91
-50.16
-59.55
-70.99
-84.58
-98.85
-110.47
-115.0
-108.49
-89.19
-58.63
-21.39
16.45
49.39
74.12
90.07
98.57
101.63
100.76
96.68
89.69
80.35
69.89
60.0
52.33
47.77
46.16
46.37
46.8
46.0
43.03
37.61
30.02
20.78
10.48
-0.31
-11.07
-21.36
-30.86
-39.44
-47.33
-55.19
-64.06
-75.05
-88.59
-103.78
-117.83
-126.51
-125.35
-111.5
-85.12
-49.77
-11.38
23.81
51.23
69.01
77.82
79.68
76.52
69.57
59.42
46.69
32.67
19.42
9.17
3.55
2.86
5.88
10.37
13.87
14.52
11.64
5.6
-2.53
-11.59
-20.76
-29.59
-37.97
-45.88
-53.37
-60.74
-68.69
-78.17
-89.77
-102.87
-115.12
-122.69
-121.41
-108.54
-84.17
-51.46
-15.73
17.46
44.1
62.52
73.21
77.71
77.52
73.58
66.45
56.87
46.18
36.21
28.77
24.95
24.68
26.72
29.12
29.94
27.86
22.57
14.72
5.51
-3.84
-12.56
-20.48
-27.93
-35.45
-43.49
-52.5
-62.92
-75.14
-89.12
-103.78
-116.47
-123.33
-120.38
-105.22
-78.3
-43.23
-5.66
28.69
55.86
74.49
85.41
90.42
91.08
88.27
82.41
74.13
64.7
55.82
49.08
45.31
44.26
44.7
44.94
43.49
39.5
32.91
24.31
14.61
4.67
-4.94
-14.0
-22.56
-30.81
-38.93
-47.23
-56.22
-66.69
-79.22
-93.65
-108.35
-120.17
-125.1
-119.7
-102.57
-75.24
-41.85
-7.74
22.3
45.5
61.28
70.65
74.93
74.95
70.91
62.89
51.62
38.61
26.06
15.89
9.12
5.44
3.35
0.85
-3.89
-11.96
-23.53
-37.95
-54.11
-70.84
-87.17
-102.41
-116.23
-128.56
-139.73
-150.47
-161.95
-175.56
-192.35
-212.24
-233.47
-252.53
-265.08
-267.41
-257.98
-238.1
-211.53
-182.88
-155.63
-131.05
-108.1
-84.73
-59.39
-32.01
-3.9
23.31
48.87
73.46
98.8
126.58
157.27
189.69
221.3
249.28
271.66
288.0
299.21
306.66
311.13
312.19
308.28
297.38
278.16
250.58
216.01
176.6
134.56
91.84
50.44
12.96
-17.09
-35.82
-40.17
-29.4
-5.76
25.82
59.18
88.64
110.33
122.5
124.97
118.41
103.88
82.98
58.2
32.9
10.67
-5.7
-15.2
-18.82
-18.91
-18.1
-18.06
-19.11
-20.46
-20.96
-19.93
-17.48
-14.38
-11.5
-9.33
-7.7
-6.06
-4.13
-2.44
-2.43
-5.76
-13.07
-22.88
-31.36
-33.3
-24.18
-2.21
30.55
68.72
105.39
134.46
152.29
158.13
153.39
140.41
121.43
98.23
72.33
45.43
19.51
-3.42
-21.83
-35.2
-44.28
-50.84
-57.14
-65.11
-75.84
-89.24
-104.24
-119.38
-133.41
-145.68
-156.22
-165.6
-174.55
-183.88
-194.46
-207.13
-222.41
-239.93
-257.67
-271.89
-277.87
-271.45
-250.78
-217.29
-175.29
-130.4
-87.42
-48.73
-14.13
18.31
50.83
84.81
120.46
156.97
192.9
226.3
255.0
276.98
291.37
299.34
304.14
309.95
319.78
333.36
346.53
352.64
345.13
320.36
279.05
225.66
166.56
107.83
53.9
7.19
-31.43
-62.17
-86.11
-105.17
-121.76
-137.87
-153.97
-168.27
-176.96
-175.5
-160.53
-131.4
-90.75
-43.96
2.53
42.93
73.42
92.54
100.91
100.51
93.85
83.49
71.59
59.76
48.99
39.69
31.93
25.69
21.09
18.33
17.63
18.81
21.22
23.66
24.72
23.09
17.92
9.07
-3.02
-17.4
-32.95
-48.66
-63.85
-78.43
-92.82
-107.67
-123.19
-138.37
-150.56
-155.83
-150.17
-131.18
-99.45
-58.86
-15.59
23.88
54.58
74.25
83.16
83.04
75.92
63.4
46.77
27.52
7.81
-9.64
-22.11
-27.87
-26.82
-20.66
-12.35
-5.18
-1.6
-2.57
-7.45
-14.61
-22.3
-29.46
-35.94
-42.33
-49.39
-57.62
-67.16
-77.96
-89.85
-102.28
-113.88
-122.08
-123.46
-114.92
-95.07
-65.28
-29.64
6.27
37.13
59.49
72.35
76.76
74.73
68.34
59.21
48.59
37.72
27.97
20.73
17.03
17.11
20.12
24.27
27.27
27.09
22.68
14.38
3.75
-7.1
-16.31
-23.09
-27.86
-32.0
-37.23
-45.06
-56.41
-71.3
-88.67
-106.08
-119.92
-125.99
-120.78
-102.88
-73.67
-37.33
0.56
34.74
61.73
80.3
91.12
95.63
95.17
90.6
82.53
71.82
59.88
48.5
39.43
33.75
31.42
31.31
31.6
30.49
26.84
20.47
12.13
3.0
-5.8
-13.63
-20.46
-26.68
-32.87
-39.67
-47.74
-57.71
-69.97
-84.15
-98.57
-110.05
-114.57
-108.53
-90.3
-61.19
-25.34
11.59
44.31
69.37
85.84
94.69
97.74
96.6
92.2
85.07
75.78
65.42
55.45
47.37
42.04
39.49
38.81
38.54
37.27
33.99
28.38
20.79
12.0
2.91
-5.72
-13.43
-20.17
-26.17
-31.95
-38.31
-46.24
-56.73
-70.17
-85.64
-100.49
-110.57
-111.38
-99.84
-75.81
-42.53
-5.7
28.55
55.63
73.69
83.35
86.5
84.91
79.51
70.65
58.86
45.43
32.54
22.52
16.93
15.9
18.03
20.98
22.42
20.86
16.13
9.24
1.75
-4.94
-10.12
-13.98
-17.31
-21.04
-25.92
-32.32
-40.25
-49.36
-58.59
-65.97
-68.52
-62.84
-46.2
-17.83
20.45
64.44
108.79
148.59
180.49
202.99
215.77
218.87
212.16
195.52
169.66
136.54
99.15
60.51
22.55
-14.34
-50.83
-87.72
-125.02
-161.96
-197.87
-233.06
-268.9
-306.82
-347.14
-388.26
-427.22
-461.03
-487.4
-504.75
-511.54
-506.25
-488.39
-459.8
-425.21
-390.91
-362.05
-340.1
-322.37
-303.85
-280.41
-251.28
-219.23
-188.67
-163.06
-143.38
-128.57
-117.03
-108.08
-102.3
-100.89
-104.44
-112.35
-123.01
-134.36
-144.58
-152.62
-158.18
-161.31
-162.05
-159.97
-154.34
-144.43
-129.83
-110.88
-88.55
-64.18
-38.98
-13.7
11.56
37.11
63.27
90.09
117.11
143.54
168.52
191.52
212.45
231.84
250.73
270.39
291.93
315.49
339.75
361.93
378.3
385.42
381.47
366.97
344.66
318.42
291.69
266.43
242.84
219.97
196.83
173.19
149.66
127.33
107.0
88.66
71.59
54.66
37.0
18.32
-1.02
-20.31
-38.97
-56.67
-73.23
-88.11
-100.16
-107.57
-108.43
-101.47
-86.59
-64.93
-38.23
-8.11
24.35
58.34
92.81
125.89
155.08
178.12
193.98
203.43
208.68
212.34
216.09
220.02
222.74
222.22
216.94
206.55
191.9
174.38
155.17
134.73
112.88
89.44
64.87
40.86
19.87
4.32
-4.6
-7.71
-7.57
-7.31
-9.03
-12.78
-16.43
-16.92
-11.87
-0.96
13.87
29.23
41.83
49.75
52.89
52.51
50.29
47.47
44.55
41.55
38.55
35.94
34.45
34.62
36.45
39.1
41.21
41.4
38.9
33.89
27.39
20.82
15.36
11.44
8.64
5.88
1.89
-4.3
-13.05
-23.96
-35.83
-46.86
-55.0
-58.38
-55.79
-47.11
-33.29
-16.15
2.2
19.93
35.69
48.76
58.79
65.64
69.3
70.0
68.31
65.09
61.38
58.01
55.45
53.65
52.16
50.33
47.61
43.74
38.73
32.9
26.7
20.53
14.71
9.29
4.12
-1.17
-7.03
-13.93
-22.11
-31.45
-41.23
-50.14
-56.5
-58.64
-55.48
-46.91
-33.87
-18.07
-1.42
14.4
28.26
39.48
47.69
52.63
54.27
52.94
49.48
45.12
41.15
38.5
37.37
37.28
37.25
36.32
33.9
29.97
25.03
19.79
14.88
10.56
6.72
2.93
-1.44
-7.0
-14.16
-22.98
-33.02
-43.23
-52.1
-57.89
-59.15
-55.18
-46.22
-33.47
-18.62
-3.44
10.65
22.67
32.05
38.43
41.63
41.78
39.29
35.0
29.96
25.21
21.44
18.81
17.01
15.38
13.26
10.24
6.22
1.5
-3.41
-8.04
-12.12
-15.72
-19.22
-23.21
-28.31
-34.94
-43.17
-52.51
-61.92
-69.85
-74.58
-74.7
-69.55
-59.46
-45.61
-29.72
-13.52
1.67
15.06
26.21
34.87
40.82
43.97
44.47
42.83
39.84
36.42
33.31
30.87
29.05
27.4
25.33
22.38
18.34
13.37
7.88
2.33
-2.96
-7.91
-12.66
-17.56
-22.96
-29.16
-36.33
-44.37
-52.87
-60.87
-67.05
-69.87
-68.07
-61.12
-49.42
-34.29
-17.52
-0.97
13.95
26.36
35.86
42.36
45.91
46.72
45.16
41.9
37.79
33.74
30.46
28.24
26.97
26.15
25.18
23.52
20.89
17.32
13.09
8.57
4.09
-0.18
-4.26
-8.32
-12.67
-17.73
-23.87
-31.4
-40.25
-49.85
-59.0
-66.04
-69.23
-67.33
-60.01
-47.99
-32.83
-16.41
-0.51
13.61
25.22
34.04
40.01
43.25
44.01
42.73
40.06
36.75
33.48
30.73
28.67
27.14
25.82
24.37
22.5
20.11
17.18
13.78
9.97
5.84
1.47
-3.04
-7.54
-11.98
-16.43
-21.19
-26.75
-33.49
-41.47
-50.08
-57.98
-63.33
-64.42
-60.17
-50.67
-37.1
-21.38
-5.48
9.0
21.14
30.52
37.0
40.6
41.39
39.72
36.29
32.09
28.18
25.32
23.75
23.18
22.99
22.47
21.09
18.63
15.11
10.76
5.91
0.84
-4.19
-9.05
-13.72
-18.38
-23.33
-28.99
-35.77
-43.78
-52.69
-61.56
-68.9
-72.99
-72.43
-66.62
-56.03
-42.04
-26.48
-11.06
2.97
14.89
24.39
31.31
35.59
37.36
37.0
35.18
32.69
30.19
28.08
26.45
25.18
24.02
22.71
20.95
18.48
15.08
10.74
5.65
0.18
-5.27
-10.43
-15.24
-19.86
-24.63
-29.97
-36.35
-44.03
-52.9
-62.22
-70.54
-75.99
-76.78
-71.89
-61.42
-46.63
-29.5
-12.08
3.97
17.63
28.46
36.35
41.37
43.69
43.67
41.9
39.1
36.01
33.2
30.91
29.12
27.63
26.14
24.42
22.3
19.65
16.38
12.44
7.85
2.75
-2.64
-8.07
-13.34
-18.41
-23.47
-28.87
-35.08
-42.4
-50.74
-59.42
-67.07
-71.96
-72.46
-67.6
-57.46
-43.27
-26.98
-10.68
3.98
16.01
25.12
31.41
35.1
36.47
35.81
33.65
30.65
27.57
24.99
23.14
21.94
21.03
20.05
18.67
16.76
14.27
11.3
7.95
4.34
0.56
-3.36
-7.44
-11.8
-16.6
-22.06
-28.39
-35.71
-43.82
-52.04
-59.2
-63.77
-64.31
-59.98
-50.9
-38.16
-23.43
-8.56
5.03
16.42
25.2
31.26
34.59
35.38
33.96
30.98
27.17
23.32
20.0
17.5
15.75
14.47
13.25
11.71
9.57
6.73
3.27
-0.6
-4.63
-8.62
-12.5
-16.36
-20.49
-25.22
-30.98
-38.08
-46.51
-55.76
-64.68
-71.63
-74.87
-73.13
-66.02
-54.22
-39.27
-23.06
-7.33
6.71
18.4
27.47
33.86
37.61
38.92
38.18
36.03
33.18
30.28
27.77
25.8
24.29
23.0
21.66
19.99
17.78
14.86
11.23
6.99
2.36
-2.5
-7.48
-12.6
-18.0
-23.83
-30.32
-37.75
-46.28
-55.75
-65.46
-74.03
-79.67
-80.62
-75.85
-65.46
-50.68
-33.45
-15.8
0.66
14.97
26.7
35.66
41.8
45.06
45.6
43.9
40.73
37.08
33.84
31.54
30.23
29.54
28.8
27.4
24.99
21.55
17.36
12.79
8.13
3.52
-1.08
-5.81
-10.84
-16.35
-22.58
-29.77
-38.1
-47.54
-57.56
-67.05
-74.37
-77.72
-75.71
-67.89
-54.96
-38.64
-21.1
-4.35
10.22
21.95
30.73
36.68
39.97
40.85
39.66
37.03
33.81
30.84
28.75
27.68
27.37
27.17
26.4
24.51
21.33
17.06
12.17
7.2
2.52
-1.77
-5.92
-10.35
-15.53
-21.82
-29.38
-38.03
-47.14
-55.71
-62.35
-65.61
-64.3
-57.9
-46.84
-32.38
-16.37
-0.65
13.3
24.66
33.13
38.76
41.71
42.17
40.43
37.04
32.85
28.81
25.76
24.14
23.82
24.16
24.3
23.43
21.11
17.33
12.48
7.13
1.75
-3.49
-8.71
-14.3
-20.71
-28.33
-37.32
-47.52
-58.25
-68.29
-76.0
-79.59
-77.73
-69.93
-56.87
-40.2
-22.03
-4.33
11.51
24.81
35.39
43.23
48.33
50.72
50.63
48.58
45.35
41.82
38.67
36.27
34.57
33.23
31.8
29.87
27.17
23.61
19.29
14.4
9.21
3.93
-1.34
-6.6
-12.12
-18.28
-25.61
-34.43
-44.64
-55.46
-65.36
-72.4
-74.71
-71.12
-61.56
-47.15
-29.76
-11.57
5.58
20.47
32.49
41.54
47.75
51.37
52.76
52.37
50.77
48.6
46.47
44.76
43.59
42.71
41.69
40.01
37.31
33.58
29.05
24.14
19.24
14.54
9.98
5.32
0.31
-5.24
-11.48
-18.59
-26.8
-36.22
-46.52
-56.7
-65.05
-69.58
-68.72
-61.88
-49.75
-34.04
-16.96
-0.53
13.87
25.56
34.41
40.57
44.29
45.81
45.51
43.84
41.39
38.78
36.54
35.0
34.21
33.85
33.41
32.31
30.11
26.71
22.31
17.32
12.14
6.96
1.77
-3.65
-9.53
-16.06
-23.36
-31.47
-40.22
-49.19
-57.48
-63.76
-66.52
-64.53
-57.32
-45.46
-30.38
-14.0
1.86
15.89
27.38
36.08
41.96
45.12
45.74
44.15
40.99
37.06
33.26
30.27
28.43
27.6
27.28
26.81
25.63
23.44
20.29
16.42
12.08
7.46
2.58
-2.58
-8.0
-13.66
-19.52
-25.78
-32.74
-40.74
-49.82
-59.34
-67.98
-73.91
-75.36
-71.19
-61.42
-47.17
-30.33
-12.95
3.34
17.53
29.19
38.13
44.31
47.71
48.52
47.22
44.6
41.53
38.77
36.72
35.41
34.55
33.75
32.59
30.77
28.14
24.71
20.64
16.16
11.5
6.72
1.83
-3.27
-8.63
-14.25
-20.13
-26.44
-33.49
-41.59
-50.67
-59.91
-67.69
-71.99
-71.04
-64.12
-51.82
-35.9
-18.6
-1.94
12.79
25.02
34.6
41.53
45.74
47.29
46.49
44.03
40.85
37.81
35.53
34.14
33.46
33.03
32.35
31.02
28.78
25.58
21.63
17.24
12.74
8.39
4.26
0.22
-3.91
-8.36
-13.33
-19.05
-25.73
-33.5
-42.15
-50.94
-58.6
-63.47
-64.1
-59.63
-50.28
-37.17
-22.1
-6.85
7.1
18.86
28.04
34.52
38.32
39.54
38.48
35.68
31.99
28.35
25.54
23.97
23.49
23.56
23.42
22.45
20.35
17.2
13.38
9.27
5.17
1.15
-2.92
-7.23
-11.95
-17.21
-23.19
-30.07
-37.88
-46.19
-54.04
-59.89
-62.1
-59.54
-52.03
-40.51
-26.69
-12.4
0.93
12.53
22.14
29.7
35.06
38.07
38.69
37.27
34.54
31.36
28.46
26.23
24.7
23.61
22.61
21.39
19.67
17.26
14.01
9.91
5.12
-0.12
-5.49
-10.76
-15.88
-20.98
-26.4
-32.58
-39.86
-48.25
-57.15
-65.29
-70.97
-72.47
-68.7
-59.57
-46.07
-29.99
-13.3
2.32
15.82
26.72
34.9
40.42
43.42
44.14
43.02
40.73
37.97
35.3
33.07
31.33
29.93
28.66
27.29
25.63
23.52
20.83
17.49
13.54
9.12
4.4
-0.46
-5.39
-10.41
-15.66
-21.37
-27.86
-35.35
-43.78
-52.6
-60.61
-66.2
-67.74
-64.17
-55.39
-42.41
-26.96
-10.94
4.05
17.04
27.59
35.58
41.0
43.9
44.52
43.29
40.91
38.08
35.41
33.21
31.55
30.23
29.02
27.69
26.06
23.98
21.32
18.05
14.15
9.75
5.01
0.1
-4.81
-9.64
-14.44
-19.37
-24.75
-30.98
-38.36
-46.83
-55.75
-63.79
-69.22
-70.32
-66.02
-56.34
-42.38
-26.06
-9.52
5.5
17.95
27.38
33.86
37.61
38.92
38.14
35.79
32.53
29.12
26.22
24.22
23.15
22.65
22.2
21.28
19.55
16.92
13.54
9.71
5.73
1.82
-1.93
-5.57
-9.29
-13.42
-18.38
-24.53
-32.03
-40.61
-49.35
-56.79
-61.24
-61.25
-56.1
-46.13
-32.55
-17.2
-1.96
11.68
22.8
31.07
36.52
39.39
39.96
38.58
35.72
31.98
28.07
24.65
22.12
20.56
19.6
18.68
17.22
14.83
11.43
7.2
2.46
-2.5
-7.49
-12.44
-17.4
-22.39
-27.58
-33.22
-39.63
-47.03
-55.24
-63.48
-70.32
-74.04
-73.12
-66.9
-55.83
-41.3
-25.19
-9.31
5.06
17.26
27.01
34.25
38.97
41.24
41.36
39.83
37.38
34.72
32.44
30.77
29.7
28.93
28.11
26.87
24.94
22.24
18.75
14.64
10.04
5.15
0.09
-5.05
-10.2
-15.33
-20.44
-25.7
-31.45
-38.12
-45.92
-54.54
-62.93
-69.37
-72.02
-69.52
-61.6
-49.13
-33.89
-17.91
-2.93
9.96
20.31
28.06
33.36
36.35
37.3
36.57
34.64
32.12
29.59
27.52
26.2
25.64
25.59
25.54
24.94
23.28
20.38
16.43
11.86
7.12
2.5
-2.0
-6.6
-11.54
-17.04
-23.21
-30.2
-38.03
-46.57
-55.15
-62.57
-67.21
-67.49
-62.49
-52.37
-38.35
-22.36
-6.41
7.88
19.55
28.23
34.01
37.15
38.04
37.09
