-9.48
-13.34
-17.79
-22.85
-28.2
-33.17
-36.93
-38.81
-38.49
-36.11
-32.08
-26.85
-20.77
-14.03
-6.86
0.38
7.2
13.09
17.64
20.76
22.64
23.64
24.18
24.48
24.64
24.54
24.11
23.3
22.17
20.84
19.37
17.7
15.7
13.3
10.53
7.55
4.55
1.62
-1.34
-4.68
-8.74
-13.71
-19.44
-25.49
-31.14
-35.68
-38.5
-39.27
-37.88
-34.4
-29.06
-22.2
-14.32
-6.05
1.91
8.93
14.6
18.76
21.6
23.43
24.52
25.15
25.44
25.44
25.15
24.53
23.55
22.29
20.94
19.76
18.92
18.32
17.59
16.24
13.9
10.56
6.53
2.29
-1.85
-5.8
-9.78
-14.06
-18.79
-23.93
-29.25
-34.41
-39.01
-42.56
-44.49
-44.31
-41.74
-36.9
-30.3
-22.71
-14.92
-7.6
-1.14
4.35
8.92
12.72
15.87
18.45
20.51
22.06
23.13
23.74
23.92
23.72
23.23
22.57
21.81
21.01
20.14
19.05
17.54
15.48
12.87
9.85
6.67
3.49
0.37
-2.87
-6.47
-10.71
-15.62
-21.05
-26.58
-31.71
-35.95
-38.88
-40.2
-39.78
-37.66
-33.99
-29.07
-23.28
-17.0
-10.61
-4.42
1.32
6.47
10.99
14.84
18.05
20.59
22.5
23.76
24.45
24.71
24.76
24.79
24.88
24.96
24.77
24.06
22.62
20.43
17.61
14.43
11.18
8.12
5.37
2.89
0.48
-2.15
-5.3
-9.13
-13.67
-18.66
-23.61
-27.84
-30.64
-31.4
-29.89
-26.27
-21.09
-15.06
-8.88
-3.03
2.25
6.83
10.65
13.57
15.51
16.55
17.02
17.4
18.04
19.06
20.26
21.28
21.77
21.6
20.85
19.71
18.36
16.86
15.23
13.46
11.57
9.57
7.36
4.79
1.6
-2.35
-7.03
-12.07
-16.92
-20.82
-23.14
-23.51
-21.87
-18.5
-13.84
-8.33
-2.33
3.94
10.22
16.24
21.6
25.93
28.96
30.73
31.48
31.65
31.61
31.6
31.68
31.77
31.73
31.35
30.47
28.9
26.53
23.42
19.8
16.02
12.35
8.9
5.45
1.69
-2.69
-7.81
-13.46
-19.25
-24.64
-29.15
-32.32
-33.79
-33.36
-31.0
-26.99
-21.78
-15.97
-10.14
-4.72
0.05
4.04
7.2
9.46
10.76
11.19
10.87
10.03
8.84
7.45
5.9
4.26
2.59
1.0
-0.5
-2.02
-3.79
-6.0
-8.68
-11.63
-14.54
-17.22
-19.77
-22.63
-26.32
-31.17
-37.05
-43.36
-49.22
-53.74
-56.26
-56.41
-54.2
-49.94
-44.14
-37.48
-30.67
-24.25
-18.62
-13.91
-10.08
-6.88
-4.16
-1.78
0.25
1.8
2.72
2.96
2.59
1.85
1.0
0.19
-0.58
-1.44
-2.5
-3.75
-5.03
-6.16
-7.13
-8.09
-9.31
-11.0
-13.24
-16.0
-19.17
-22.69
-26.49
-30.36
-33.85
-36.26
-36.87
-35.12
-30.89
-24.49
-16.6
-8.06
0.37
8.02
14.47
19.45
22.84
24.69
25.2
24.76
23.8
22.77
22.0
21.57
21.33
21.07
20.55
19.67
18.5
17.14
15.73
14.22
12.49
10.39
7.81
4.83
1.54
-1.85
-5.23
-8.49
-11.68
-14.92
-18.44
-22.42
-26.83
-31.41
-35.52
-38.38
-39.26
-37.78
-34.03
-28.53
-22.06
-15.41
-9.23
-3.88
0.53
4.09
7.01
9.49
11.61
13.33
14.58
15.31
15.63
15.76
15.88
16.1
16.32
16.37
16.01
15.18
13.89
12.26
10.39
8.29
5.95
3.31
0.34
-3.0
-6.68
-10.75
-15.16
-19.78
-24.35
-28.43
-31.47
-32.9
-32.36
-29.74
-25.28
-19.55
-13.26
-7.16
-1.76
2.67
6.15
8.81
10.75
11.98
12.41
12.05
10.99
9.53
8.06
6.85
5.95
5.16
4.2
2.9
1.3
-0.43
-2.09
-3.63
-5.18
-6.96
-9.19
-11.96
-15.23
-18.87
-22.79
-26.84
-30.84
-34.43
-37.02
-37.97
-36.77
-33.3
-27.86
-21.22
-14.2
-7.58
-1.83
2.87
6.46
8.98
10.44
11.0
10.9
10.54
10.28
10.34
10.73
11.26
11.7
11.81
11.43
10.5
9.05
7.27
5.35
3.5
1.77
0.06
-1.96
-4.59
-8.08
-12.44
-17.5
-22.92
-28.2
-32.76
-35.95
-37.2
-36.17
-32.9
-27.84
-21.61
-14.89
-8.14
-1.65
4.39
9.78
14.23
17.44
19.27
19.88
19.68
19.19
18.89
18.96
19.28
19.55
19.41
18.58
17.02
14.85
12.26
9.47
6.59
3.64
0.63
-2.37
-5.31
-8.23
-11.3
-14.78
-18.91
-23.65
-28.5
-32.64
-35.11
-35.19
-32.7
-28.04
-22.01
-15.44
-9.01
-2.98
2.6
7.73
12.31
16.13
18.95
20.73
21.65
22.04
22.18
22.19
21.96
21.28
20.0
18.21
16.14
14.11
12.29
10.69
9.09
7.25
4.98
2.26
-0.79
-4.06
-7.48
-11.16
-15.29
-20.05
-25.32
-30.61
-35.12
-37.9
-38.22
-35.8
-31.02
-24.67
-17.75
-11.06
-4.98
0.5
5.53
10.1
14.08
17.17
19.16
20.13
20.43
20.48
20.64
20.98
21.34
21.45
21.07
20.19
18.9
17.33
15.54
13.49
11.08
8.26
5.14
1.94
-1.14
-4.02
-6.92
-10.18
-14.13
-18.7
-23.35
-27.12
-29.03
-28.51
-25.53
-20.65
-14.68
-8.36
-2.2
3.57
8.78
13.23
16.63
18.77
19.6
19.34
18.39
17.23
16.22
15.56
15.27
15.22
15.23
15.07
14.54
13.53
12.01
10.01
7.62
4.85
1.67
-1.92
-5.95
-10.34
-14.96
-19.59
-23.96
-27.71
-30.44
-31.76
-31.45
-29.44
-25.92
-21.2
-15.64
-9.55
-3.22
3.04
8.76
13.41
16.52
17.9
17.75
16.6
15.13
13.93
13.32
13.24
13.43
13.54
13.29
12.48
11.02
8.86
6.04
2.74
-0.72
-3.99
-6.91
-9.59
-12.49
-16.12
-20.75
-26.11
-31.39
-35.54
-37.61
-37.2
-34.48
-30.01
-24.44
-18.16
-11.46
-4.49
2.35
8.51
13.35
16.41
17.77
17.9
17.54
17.34
17.62
18.29
18.96
19.17
18.57
17.11
14.94
12.39
9.74
7.22
4.87
2.62
0.35
-2.1
-4.88
-8.18
-12.15
-16.89
-22.16
-27.41
-31.74
-34.18
-34.12
-31.54
-26.96
-21.23
-15.07
-8.82
-2.52
3.84
10.13
15.84
20.38
23.33
24.75
25.09
24.99
24.98
25.21
25.52
25.57
25.16
24.24
22.91
21.34
19.57
17.51
15.0
11.98
8.52
4.87
1.33
-1.92
-4.95
-8.05
-11.63
-15.9
-20.69
-25.42
-29.17
-31.07
-30.57
-27.58
-22.58
-16.23
-9.18
-1.85
5.51
12.68
19.3
24.8
28.66
30.58
30.74
29.74
28.33
27.1
26.35
25.98
25.74
25.41
24.85
24.1
23.15
22.01
20.64
18.95
16.9
14.39
11.38
7.82
3.83
-0.42
-4.74
-9.03
-13.4
-17.98
-22.79
-27.52
-31.52
-33.97
-34.21
-31.99
-27.48
-21.21
-13.83
-5.99
1.82
9.19
15.76
21.29
25.68
28.98
31.39
33.15
34.5
35.59
36.52
37.36
38.15
38.92
39.66
40.31
40.86
41.29
41.6
41.82
41.95
41.98
41.95
41.89
41.83
41.73
41.52
41.13
40.62
40.1
39.67
39.19
38.28
36.44
33.36
29.22
24.91
21.8
21.34
24.67
32.31
44.17
59.62
77.58
96.69
115.48
132.72
147.91
161.46
174.73
189.45
207.07
228.19
252.3
277.86
302.79
324.85
341.95
352.38
354.92
349.13
335.46
315.37
291.05
264.93
239.16
215.14
193.29
173.19
153.88
134.34
113.83
92.17
69.68
47.14
25.35
4.87
-14.24
-32.47
-50.54
-69.08
-88.23
-107.53
-126.06
-142.87
-157.42
-169.73
-180.42
-190.5
-201.09
-213.4
-228.52
-246.98
-267.98
-288.87
-305.47
-313.36
-309.78
-294.96
-272.22
-246.54
-222.4
-202.17
-185.62
-171.03
-156.84
-142.71
-129.64
-119.11
-112.07
-108.47
-107.47
-107.98
-109.14
-110.36
-111.12
-110.83
-108.73
-104.21
-97.09
-87.84
-77.57
-67.73
-59.68
-54.31
-51.81
-51.71
-53.07
-54.82
-56.15
-56.63
-56.35
-55.68
-55.12
-55.07
-55.66
-56.86
-58.49
-60.31
-62.12
-63.65
-64.67
-64.98
-64.62
-63.86
-63.33
-63.87
-66.28
-71.0
-77.8
-85.7
-93.04
-97.87
-98.38
-93.49
-83.0
-67.73
-49.26
-29.53
-10.47
6.38
20.03
30.04
36.48
39.8
40.67
39.96
38.63
37.54
37.34
38.21
39.83
41.5
42.32
41.6
38.98
34.6
28.89
22.31
15.11
7.24
-1.64
-11.96
-23.98
-37.68
-52.67
-68.13
-82.89
-95.43
-104.01
-107.0
-103.38
-92.99
-76.86
-56.93
-35.55
-14.87
3.6
19.08
31.34
40.42
46.5
49.92
51.21
51.12
50.51
50.05
49.99
50.11
49.78
48.25
45.02
40.04
33.82
27.14
20.83
15.31
10.42
5.45
-0.58
-8.51
-18.64
-30.5
-42.95
-54.34
-62.88
-66.97
-65.53
-58.33
-46.09
-30.46
-13.64
2.16
15.24
24.65
30.27
32.44
31.7
28.65
23.97
18.43
12.87
7.93
3.85
0.38
-3.01
-6.83
-11.21
-15.89
-20.45
-24.62
-28.45
-32.35
-36.83
-42.29
-48.84
-56.19
-63.81
-70.94
-76.61
-79.75
-79.23
-74.15
-64.12
-49.42
-31.01
-10.45
10.47
29.97
46.5
58.89
66.53
69.33
67.82
63.07
56.43
49.24
42.49
36.6
31.48
26.67
21.71
16.28
10.41
4.39
-1.37
-6.6
-11.26
-15.66
-20.34
-25.85
-32.67
-40.97
-50.46
-60.26
-68.91
-74.62
-75.71
-71.17
-61.0
-46.33
-28.92
-10.68
6.88
22.75
36.27
46.92
54.21
57.81
57.86
55.12
50.83
46.24
42.26
39.04
36.21
33.12
29.28
24.58
19.26
13.78
8.5
3.58
-1.09
-5.78
-10.82
-16.61
-23.51
-31.78
-41.3
-51.35
-60.48
-66.88
-68.79
-65.21
-56.14
-42.62
-26.31
-8.94
8.16
24.18
38.64
51.14
61.06
67.66
70.36
69.14
64.75
58.55
52.13
46.77
43.01
40.54
38.51
36.01
32.54
28.14
23.3
18.54
14.11
9.78
5.02
-0.71
-7.81
-16.31
-26.02
-36.6
-47.46
-57.74
-66.1
-70.87
-70.39
-63.68
-50.83
-33.24
-13.17
6.98
25.29
40.66
52.73
61.47
66.87
68.89
67.65
63.69
58.04
51.99
46.65
42.63
39.82
37.57
35.08
31.69
27.16
21.62
15.38
8.8
2.25
-4.02
-9.78
-14.96
-19.72
-24.55
-30.14
-37.15
-45.71
-55.15
-63.91
-69.91
-71.24
-66.78
-56.6
-41.84
-24.25
-5.61
12.62
29.29
43.47
54.32
61.07
63.3
61.25
55.82
48.48
40.79
34.02
28.86
25.39
23.18
21.55
19.82
17.47
14.22
10.07
5.14
-0.31
-6.07
-12.02
-18.19
-24.73
-31.91
-40.07
-49.42
-59.84
-70.58
-80.19
-86.75
-88.4
-83.91
-73.16
-57.17
-37.76
-17.13
2.77
20.41
34.8
45.51
52.51
56.14
56.91
55.47
52.34
48.05
43.13
38.22
33.97
30.83
28.82
27.36
25.55
22.52
17.95
12.08
5.66
-0.57
-6.15
-11.07
-15.63
-20.3
-25.54
-31.78
-39.44
-48.71
-59.32
-70.19
-79.48
-84.94
-84.59
-77.41
-63.71
-45.05
-23.72
-2.1
18.02
35.48
49.79
60.84
68.58
73.07
74.4
72.94
69.25
64.05
58.1
52.03
46.28
41.15
36.82
33.33
30.51
27.96
25.08
21.29
16.26
10.06
3.13
-3.91
-10.52
-16.44
-21.75
-26.83
-32.28
-38.73
-46.64
-56.05
-66.26
-75.73
-82.25
-83.48
-77.69
-64.44
-44.83
-21.24
3.37
26.32
45.7
60.62
70.92
76.94
79.25
78.53
75.59
71.24
66.19
60.84
55.32
49.57
43.62
37.77
32.55
28.45
25.59
23.64
21.87
19.49
16.0
11.26
5.55
-0.58
-6.53
-11.86
-16.45
-20.58
-24.94
-30.37
-37.51
-46.33
-55.97
-64.78
-70.72
-71.85
-66.92
-55.7
-39.07
-18.88
2.41
22.33
38.93
51.18
58.91
62.69
63.32
61.53
57.84
52.68
46.49
39.97
33.83
28.68
24.77
21.92
19.55
16.96
13.56
9.11
3.72
-2.24
-8.44
-14.67
-20.85
-27.01
-33.14
-39.21
-45.29
-51.67
-58.72
-66.54
-74.55
-81.3
-84.74
-82.91
-74.76
-60.58
-41.93
-21.13
-0.44
18.42
34.42
47.06
56.04
61.18
62.5
60.39
55.74
49.71
43.47
37.87
33.21
29.39
26.06
22.79
19.2
15.05
10.33
5.23
0.16
-4.39
-8.12
-11.11
-13.91
-17.37
-22.35
-29.4
-38.6
-49.5
-61.05
-71.63
-79.15
-81.4
-76.75
-64.85
-46.85
-25.33
-3.36
16.36
32.2
43.64
50.96
54.71
55.39
53.5
49.54
44.17
38.1
31.88
25.78
19.82
13.9
8.0
2.29
-3.01
-7.61
-11.35
-14.17
-16.22
-17.73
-19.03
-20.57
-22.82
-26.28
-31.4
-38.4
-47.29
-57.68
-68.74
-79.05
-86.73
-89.66
-86.18
-75.57
-58.59
-37.31
-14.41
7.55
26.88
42.92
55.65
65.25
71.78
75.17
75.42
72.87
68.08
61.71
54.38
46.64
39.11
32.58
27.71
24.79
23.37
22.37
20.41
16.53
10.51
2.92
-5.11
-12.56
-18.91
-24.34
-29.54
-35.38
-42.48
-51.06
-60.76
-70.61
-79.19
-84.65
-85.1
-79.09
-66.06
-46.74
-23.06
2.23
26.31
46.99
63.11
74.55
81.83
85.62
86.45
84.71
80.82
75.3
68.83
62.05
55.42
49.21
43.53
38.37
33.73
29.54
25.54
21.37
16.61
10.95
4.34
-2.92
-10.35
-17.48
-24.05
-30.09
-35.93
-42.15
-49.4
-58.09
-68.04
-78.2
-86.7
-91.15
-89.47
-80.54
-64.79
-44.16
-21.49
0.38
19.35
34.48
45.69
53.4
58.05
59.83
58.93
55.74
51.0
45.63
40.49
36.07
32.33
28.9
25.26
21.02
15.99
10.16
3.69
-3.11
-9.83
-16.08
-21.62
-26.58
-31.43
-36.85
-43.5
-51.75
-61.45
-71.97
-82.07
-90.04
-93.95
-92.02
-83.29
-68.07
-48.02
-25.77
-4.1
14.82
29.91
41.03
48.56
52.92
54.4
53.27
50.01
45.45
40.66
36.63
33.95
32.67
32.19
31.6
29.95
26.71
21.81
15.77
9.33
3.19
-2.31
-7.25
-12.05
-17.26
-23.34
-30.67
-39.44
-49.53
-60.3
-70.38
-77.66
-79.81
-74.98
-62.63
-43.97
-21.6
1.27
21.85
38.46
50.69
58.86
63.59
65.3
64.3
60.97
55.99
50.33
45.05
40.91
38.22
36.73
35.78
34.5
32.15
28.22
22.62
15.66
7.98
0.33
-6.73
-12.95
-18.47
-23.79
-29.55
-36.47
-45.09
-55.52
-67.2
-78.63
-87.5
-91.23
-87.76
-76.31
-57.76
-34.48
-9.57
14.09
34.49
50.71
62.69
70.7
75.1
76.32
74.88
71.53
67.15
62.52
58.09
53.96
50.01
46.11
42.34
38.9
35.85
32.94
29.57
25.1
19.08
11.63
3.32
-5.09
-12.97
-20.08
-26.64
-33.16
-40.25
-48.41
-57.88
-68.35
-78.8
-87.42
-91.92
-90.1
-80.6
-63.55
-40.74
-15.05
10.3
32.73
50.8
64.2
73.36
78.86
81.24
80.85
78.12
73.74
68.61
63.65
59.48
56.23
53.57
50.99
48.11
44.89
41.5
38.13
34.69
30.8
25.93
19.69
12.14
3.76
-4.7
-12.55
-19.4
-25.31
-30.77
-36.53
-43.45
-52.24
-63.07
-75.27
-87.12
-96.09
-99.43
-95.16
-82.76
-63.44
-39.89
-15.26
7.69
27.17
42.53
53.79
61.23
65.07
65.49
62.88
58.11
52.34
46.82
42.43
39.36
37.29
35.49
33.33
30.49
26.94
22.77
18.0
12.51
6.15
-1.05
-8.77
-16.43
-23.46
-29.57
-34.91
-40.1
-45.99
-53.41
-62.84
-73.94
-85.47
-95.29
-100.8
-99.73
-90.96
-74.98
-53.89
-30.65
-8.21
11.29
26.79
38.12
45.62
49.77
51.04
49.99
47.3
43.73
39.99
36.59
33.76
31.55
29.85
28.46
27.02
25.09
22.23
18.2
13.08
7.24
1.09
-5.05
-11.12
-17.23
-23.65
-30.59
-38.22
-46.65
-55.86
-65.61
-75.16
-83.16
-87.75
-87.01
-79.63
-65.48
-45.85
-23.13
-0.14
20.65
37.61
50.16
58.43
62.94
64.21
62.73
59.03
53.85
48.02
42.49
38.01
34.9
33.08
32.02
30.99
29.3
26.51
22.55
17.63
12.11
6.23
0.08
-6.49
-13.55
-21.04
-28.74
-36.5
-44.43
-52.97
-62.57
-73.17
-83.66
-91.83
-94.9
-90.57
-78.01
-58.27
-34.05
-8.71
14.81
34.64
50.08
61.18
68.24
71.54
71.41
68.39
63.37
57.43
51.61
46.6
42.61
39.51
36.99
34.75
32.57
30.26
27.6
24.33
20.15
14.9
8.59
1.56
-5.69
-12.67
-19.09
-25.1
-31.21
-38.19
-46.76
-57.16
-68.96
-80.8
-90.52
-95.62
-93.92
-84.25
-66.96
-43.93
-18.1
7.34
29.74
47.6
60.6
69.23
74.36
76.73
76.85
74.99
71.47
66.81
61.77
57.12
53.33
50.45
48.12
45.86
43.32
40.37
36.97
33.0
28.2
22.27
15.12
7.08
-1.23
-9.18
-16.43
-23.17
-29.95
-37.52
-46.5
-57.1
-68.87
-80.59
-90.25
-95.43
-93.99
-84.81
-68.34
-46.62
-22.7
0.35
20.24
35.91
47.34
54.98
59.32
60.69
59.3
55.62
50.42
44.72
39.51
35.48
32.78
31.13
29.94
28.54
26.42
23.34
19.27
14.37
8.84
2.79
-3.69
-10.53
-17.66
-24.9
-32.13
-39.34
-46.83
-55.11
-64.65
-75.36
-86.27
-95.46
-100.45
-99.04
-90.07
-73.98
-52.68
-29.03
-5.95
14.36
30.69
42.77
50.87
55.39
56.71
55.19
51.38
46.08
40.3
35.0
30.86
28.13
26.55
25.56
24.54
22.91
20.33
16.65
11.91
6.34
0.23
-6.07
-12.3
-18.3
-24.13
-30.09
-36.6
-44.13
-52.96
-62.97
-73.44
-82.89
-89.23
-90.17
-83.98
-70.16
-49.82
-25.48
-0.34
22.64
41.47
55.39
64.51
69.39
70.64
68.82
64.62
59.0
53.11
48.02
44.27
41.79
39.97
38.06
35.57
32.41
28.8
24.92
20.74
15.95
10.23
3.47
-4.08
-11.88
-19.41
-26.42
-33.07
-39.92
-47.64
-56.78
-67.46
-79.14
-90.46
-99.35
-103.37
-100.43
-89.53
-71.32
-47.97
-22.58
1.79
22.97
39.92
52.67
61.68
67.49
70.46
70.93
69.33
66.3
62.57
58.72
55.09
51.74
48.55
45.4
42.16
38.77
35.18
31.28
26.94
21.99
16.29
9.79
2.63
-4.84
-12.19
-19.04
-25.34
-31.46
-38.14
-46.21
-56.13
-67.61
-79.43
-89.52
-95.38
-94.8
-86.54
-70.77
-49.1
-24.16
1.19
24.56
44.39
60.04
71.42
78.68
82.05
81.88
78.81
73.86
68.27
63.18
59.23
56.46
54.34
52.08
49.07
45.11
40.42
35.35
30.21
24.91
19.17
12.62
5.13
-3.08
-11.55
-19.82
-27.65
-35.1
-42.54
-50.37
-58.93
-68.32
-78.28
-87.95
-95.84
-99.94
-98.23
-89.41
-73.47
-51.83
-26.96
-1.58
22.06
42.6
59.53
72.78
82.34
88.18
90.28
88.87
84.59
78.33
71.11
63.86
57.33
51.93
47.7
44.23
40.78
36.55
30.86
23.46
14.55
4.59
-5.84
-16.31
-26.55
-36.48
-46.08
-55.42
-64.64
-73.97
-83.65
-93.6
-103.11
-110.66
-114.05
-111.0
-100.05
-81.25
-56.5
-29.07
-2.57
20.07
37.29
48.98
55.84
58.69
58.14
54.51
48.3
40.48
32.43
25.56
20.83
18.37
17.55
17.29
16.59
14.9
12.26
9.09
5.88
2.87
0.04
-2.83
-6.04
-9.89
-14.72
-21.01
-29.4
-40.36
-53.81
-68.59
-82.41
-92.31
-95.52
-90.48
-77.34
-57.98
-35.18
-11.86
9.75
28.44
43.73
55.58
63.99
68.88
70.24
68.41
64.04
58.14
51.81
45.98
41.25
37.74
35.02
32.34
28.89
24.08
17.81
10.44
2.61
-5.11
-12.41
-19.42
-26.41
-33.72
-41.58
-50.2
-59.85
-70.85
-83.23
-96.32
-108.49
-117.33
-120.24
-115.38
-102.31
-82.27
-57.77
-31.81
-7.06
14.58
32.16
45.39
54.37
59.38
60.93
59.77
56.81
53.02
49.1
45.41
41.86
38.11
33.78
28.72
22.99
16.98
11.25
6.36
2.83
0.94
0.71
1.86
3.96
6.52
9.13
11.34
12.57
12.08
9.0
2.69
-6.83
-18.58
-30.64
-40.51
-45.87
-45.24
-38.39
-26.26
-10.6
6.66
23.91
40.01
54.36
66.61
76.44
83.49
87.35
87.83
85.21
80.25
74.12
68.04
62.95
59.2
56.57
54.54
52.55
50.34
47.83
44.98
41.54
36.96
30.7
22.48
12.64
2.18
-7.61
-15.71
-21.85
-26.79
-31.99
-39.15
-49.4
-62.8
-78.08
-92.83
-104.08
-108.98
-105.59
-93.35
-73.28
-47.74
-19.81
7.42
31.45
50.74
64.66
73.28
77.13
77.12
74.4
70.24
65.87
62.1
59.21
57.04
55.09
52.86
50.08
46.71
42.82
38.41
33.38
27.52
20.65
12.71
3.75
-6.07
-16.55
-27.49
-38.7
-50.15
-61.96
-74.35
-87.47
-101.02
-113.94
-124.43
-130.2
-129.14
-120.17
-103.59
-81.05
-55.16
-28.64
-3.84
17.66
35.03
48.03
56.77
61.52
62.75
61.0
57.01
51.76
46.38
42.03
39.53
39.12
40.22
41.59
41.75
39.54
34.49
26.84
17.41
7.25
-2.67
-11.64
-19.44
-26.32
-33.05
-40.76
-50.43
-62.39
-75.87
-88.78
-98.29
-101.51
-96.56
-83.15
-62.73
-38.11
-12.52
11.19
31.1
46.37
56.98
63.33
65.84
64.97
61.24
55.5
48.89
42.72
38.04
35.27
34.12
33.65
32.66
30.19
25.78
19.59
12.2
4.33
-3.41
-10.69
-17.41
-23.53
-29.07
-34.13
-39.06
-44.58
-51.59
-60.78
-72.0
-83.88
-93.93
-99.14
-96.97
-86.22
-67.54
-43.14
-16.09
10.66
34.8
54.94
70.47
81.22
87.22
88.78
86.54
81.59
75.26
68.84
63.11
58.28
54.07
50.02
45.76
41.23
36.51
31.69
26.64
21.04
14.54
6.98
-1.46
-10.32
-19.0
-27.08
-34.5
-41.64
-49.24
-58.05
-68.64
-80.8
-93.47
-104.62
-111.71
-112.21
-104.52
-88.48
-65.65
-38.98
-12.02
12.06
31.26
45.02
54.02
59.72
