30.92
28.74
26.5
23.65
19.56
13.78
6.16
-2.96
-12.92
-22.85
-31.9
-39.49
-45.48
-50.22
-54.6
-59.76
-66.74
-75.97
-86.78
-97.32
-104.83
-106.42
-100.03
-85.16
-63.17
-36.91
-9.91
14.7
35.01
50.46
61.52
69.01
73.61
75.65
75.37
73.25
70.12
66.9
64.27
62.33
60.7
58.79
56.24
53.15
49.86
46.73
43.8
40.68
36.82
31.71
25.12
17.23
8.53
-0.3
-8.65
-16.19
-23.09
-30.07
-38.22
-48.48
-61.06
-74.96
-87.94
-97.01
-99.36
-93.42
-79.39
-59.18
-35.79
-12.25
9.18
27.37
42.18
53.88
62.77
68.98
72.59
73.9
73.68
72.9
72.46
72.77
73.59
74.25
74.03
72.52
69.79
66.17
61.98
57.25
51.71
45.05
37.1
28.05
18.33
8.49
-0.94
-9.51
-16.92
-23.22
-28.85
-34.85
-42.62
-53.34
-67.21
-82.94
-97.75
-107.96
-110.3
-103.0
-86.56
-63.44
-37.27
-11.59
11.11
29.75
44.32
55.35
63.33
68.44
70.79
70.61
68.46
65.25
61.92
59.2
57.42
56.49
55.93
55.01
52.99
49.18
43.28
35.41
26.07
15.92
5.51
-4.91
-15.31
-25.78
-36.34
-46.95
-57.64
-68.63
-80.3
-92.89
-105.99
-118.09
-126.69
-128.98
-122.72
-107.32
-84.21
-56.53
-28.13
-2.46
18.27
33.36
43.16
48.56
50.34
49.07
45.26
39.63
33.23
27.31
22.91
20.55
20.01
20.45
20.72
19.73
16.74
11.64
4.79
-3.09
-11.24
-19.07
-26.35
-33.14
-39.7
-46.44
-53.85
-62.39
-72.42
-83.7
-95.18
-104.73
-109.61
-107.22
-96.15
-76.85
-51.64
-23.98
2.73
26.05
44.84
59.05
69.05
75.14
77.46
76.21
71.93
65.68
58.75
52.44
47.57
44.32
42.21
40.35
37.79
33.8
28.15
21.03
12.98
4.63
-3.59
-11.51
-19.29
-27.27
-35.74
-44.92
-55.01
-66.07
-78.05
-90.54
-102.43
-111.84
-116.35
-113.66
-102.49
-83.14
-57.67
-29.25
-1.25
23.75
44.36
60.36
72.12
80.2
84.98
86.8
86.1
83.54
80.04
76.46
73.44
71.18
69.45
67.7
65.33
61.73
56.51
49.55
41.01
31.41
21.37
11.59
2.53
-5.62
-13.13
-20.56
-28.71
-38.35
-49.97
-63.52
-78.09
-91.9
-102.39
-106.84
-103.16
-90.65
-70.46
-45.35
-18.98
5.21
24.84
38.91
47.7
52.14
53.32
52.13
49.13
44.71
39.14
32.69
25.61
18.17
10.59
3.19
-3.76
-10.02
-15.46
-20.13
-24.22
-28.04
-31.9
-36.06
-40.59
-45.45
-50.59
-56.09
-62.38
-70.21
-80.49
-93.78
-109.87
-127.31
-143.47
-155.02
-158.73
-152.45
-135.73
-109.89
-77.67
-42.41
-7.38
24.79
52.24
73.89
89.34
98.76
102.88
102.88
100.25
96.51
92.95
90.41
89.18
89.11
89.78
90.68
91.41
91.75
91.6
90.87
89.37
86.82
82.9
77.36
69.91
60.23
47.85
32.23
13.01
-9.61
-34.4
-58.96
-79.99
-94.05
-98.46
-92.27
-76.52
-53.93
-28.01
-2.06
21.52
41.41
57.06
68.3
75.02
77.2
75.15
69.59
61.65
52.55
43.38
34.84
27.33
21.01
15.86
11.83
8.77
6.38
4.19
1.63
-1.86
-6.75
-13.2
-21.03
-29.71
-38.55
-47.01
-54.99
-63.01
-72.0
-82.85
-95.71
-109.51
-121.83
-129.47
-129.39
-119.8
-100.8
-74.5
-44.22
-13.51
14.77
38.96
58.4
73.07
83.14
88.76
90.25
88.34
84.24
79.41
75.1
71.99
70.0
68.5
66.69
64.08
60.64
56.72
52.68
48.64
44.25
38.85
31.82
22.85
12.25
0.81
-10.43
-20.66
-29.57
-37.53
-45.5
-54.65
-66.03
-80.01
-95.95
-112.04
-125.45
-132.98
-131.88
-120.85
-100.52
-73.34
-42.83
-12.5
15.12
38.81
58.4
74.11
85.98
93.75
97.06
96.03
91.46
84.86
78.0
72.26
68.25
65.72
63.77
61.38
57.82
53.02
47.44
41.83
36.7
32.04
27.28
21.54
14.12
4.86
-5.73
-16.79
-27.48
-37.4
-46.72
-56.07
-66.27
-77.99
-91.73
-107.46
-124.56
-141.54
-156.0
-164.98
-165.64
-156.21
-136.75
-109.32
-77.48
-45.27
-16.1
7.97
26.25
39.01
46.81
50.17
49.48
45.34
38.6
30.41
21.84
13.48
5.5
-2.33
-10.09
-17.5
-23.8
-28.14
-29.94
-29.23
-26.58
-22.87
-18.99
-15.49
-12.58
-10.19
-8.11
-6.22
-4.66
-3.94
-4.82
-8.14
-14.5
-23.96
-35.96
-49.24
-61.86
-71.29
-74.84
-70.11
-55.79
-32.29
-1.9
31.65
64.28
92.68
115.1
131.32
142.08
148.42
151.24
151.3
149.52
147.1
145.31
145.14
146.78
149.57
152.25
153.59
152.96
150.52
147.09
143.57
140.49
137.69
134.42
129.7
122.84
113.72
102.74
90.6
77.82
64.55
50.43
34.88
17.24
-3.01
-26.06
-51.61
-78.46
-104.4
-126.21
-140.34
-143.94
-135.82
-117.15
-91.05
-61.7
-32.91
-7.18
14.45
31.99
45.69
55.55
61.36
63.13
61.51
57.8
53.53
49.9
47.31
45.29
43.02
39.79
35.49
30.64
26.15
22.83
20.9
19.89
18.73
16.22
11.43
4.12
-5.27
-15.77
-26.2
-35.64
-43.57
-50.09
-55.92
-62.17
-70.14
-80.78
-94.34
-109.91
-125.47
-138.13
-144.95
-143.73
-133.64
-115.56
-91.82
-65.57
-39.95
-17.4
0.72
14.04
22.92
27.91
29.49
28.07
24.26
19.05
13.77
9.75
7.73
7.62
8.58
9.51
9.72
9.28
8.98
9.69
11.76
14.69
17.26
18.11
16.35
11.94
5.62
-1.55
-8.73
-15.63
-22.52
-30.09
-39.03
-49.88
-62.76
-77.27
-92.18
-105.41
-114.28
-116.05
-108.91
-92.71
-69.26
-41.81
-14.07
10.87
31.23
46.49
56.85
62.79
64.76
63.34
59.46
54.36
49.34
45.37
42.79
41.3
40.19
38.78
36.57
33.45
29.48
24.72
19.18
12.75
5.39
-2.76
-11.31
-19.78
-27.77
-35.19
-42.4
-50.11
-59.13
-69.97
-82.42
-95.31
-106.56
-113.56
-113.84
-105.85
-89.6
-66.77
-40.36
-13.86
9.7
28.42
41.71
50.01
54.23
55.31
54.02
50.95
46.64
41.56
36.26
31.21
26.85
23.41
20.93
19.11
17.39
14.99
11.22
5.65
-1.67
-10.24
-19.35
-28.36
-36.9
-44.95
-52.76
-60.73
-69.35
-79.2
-90.79
-104.26
-118.96
-133.09
-143.84
-148.04
-143.35
-129.19
-107.21
-80.73
-53.59
-28.82
-8.06
8.44
21.07
30.08
35.41
36.82
34.48
29.3
22.91
17.17
13.64
13.11
15.49
20.01
25.52
30.81
34.93
37.29
37.74
36.52
34.11
31.07
27.76
24.33
20.55
15.99
10.07
2.06
-8.71
-22.71
-39.86
-59.06
-78.09
-93.78
-102.7
-102.16
-91.14
-70.64
-43.52
-13.53
15.81
42.08
64.25
82.42
97.06
108.51
116.72
121.52
123.02
121.86
119.21
116.25
113.82
112.15
110.96
109.85
108.6
107.18
105.64
103.8
101.18
97.12
91.02
82.71
72.54
61.22
49.52
37.8
25.76
12.44
-3.42
-22.79
-45.62
-70.35
-93.94
-112.31
-121.51
-118.94
-104.21
-79.38
-48.3
-15.46
15.22
41.17
61.27
75.38
83.79
86.89
85.22
79.69
71.71
62.96
55.0
48.84
44.76
42.35
40.81
39.23
36.78
32.76
26.75
18.69
8.85
-2.19
-13.73
-25.1
-35.82
-45.65
-54.57
-62.87
-71.14
-80.21
-90.9
-103.41
-116.82
-128.93
-136.61
-136.79
-127.58
-109.05
-83.3
-53.87
-24.54
1.66
22.93
38.71
49.28
55.24
57.29
56.18
52.79
48.23
43.67
40.06
37.87
36.94
36.62
36.12
34.8
32.37
28.9
24.57
19.55
13.88
7.53
0.52
-6.94
-14.5
-21.77
-28.45
-34.58
-40.54
-47.1
-55.26
-65.81
-78.84
-93.27
-106.68
-115.76
-117.29
-109.21
-91.44
-66.0
-36.34
-6.18
21.49
44.97
63.81
78.2
88.41
94.63
97.04
96.1
92.81
88.49
84.38
81.19
78.83
76.62
73.72
69.73
64.83
59.68
54.91
50.68
46.54
41.65
35.22
26.94
17.08
6.35
-4.36
-14.36
-23.31
-31.37
-39.18
-47.74
-58.23
-71.55
-87.66
-105.18
-121.27
-132.29
-134.87
-127.17
-109.46
-84.14
-54.91
-25.67
0.48
21.69
37.37
47.81
53.83
56.49
56.87
55.86
54.11
52.0
49.66
47.17
44.64
42.25
40.12
38.3
36.68
35.05
33.06
30.3
26.33
20.77
13.43
4.49
-5.54
-15.85
-25.69
-34.7
-43.03
-51.41
-60.75
-71.74
-84.38
-97.66
-109.57
-117.49
-118.9
-112.12
-97.01
-75.05
-49.06
-22.24
2.52
23.38
39.6
51.31
59.02
63.19
64.25
62.64
59.04
54.3
49.49
45.45
42.68
41.12
40.19
39.05
36.78
32.87
27.25
20.3
12.65
4.86
-2.7
-10.0
-17.2
-24.6
-32.63
-41.82
-52.7
-65.51
-79.84
-94.21
-106.14
-112.63
-111.09
-100.26
-80.68
-54.7
-25.73
2.61
27.48
47.24
61.52
70.86
76.17
78.25
77.61
74.59
69.54
63.16
56.46
50.49
46.04
43.24
41.5
39.75
36.95
32.39
26.03
18.33
9.95
1.47
-6.84
-15.0
-23.18
-31.57
-40.34
-49.66
-59.81
-71.12
-83.65
-96.83
-109.07
-117.72
-119.78
-112.85
-96.15
-71.06
-40.86
-9.6
19.14
43.23
62.13
76.34
86.55
93.21
96.39
96.27
93.45
89.09
84.43
80.42
77.3
74.7
72.03
68.89
65.33
61.75
58.55
55.73
52.79
48.78
42.81
34.46
24.07
12.65
1.44
-8.61
-17.34
-25.39
-34.03
-44.65
-58.08
-73.98
-90.55
-104.65
-112.65
-111.51
-99.88
-78.76
-51.22
-21.46
6.59
30.22
48.34
61.18
69.46
73.96
75.19
73.55
69.57
63.94
57.48
50.89
44.62
38.85
33.65
28.96
24.74
20.92
17.31
13.62
9.44
4.4
-1.8
-9.24
-17.73
-26.88
-36.2
-45.29
-54.15
-63.25
-73.57
-86.19
-101.7
-119.68
-138.36
-154.87
-166.03
-169.38
-164.17
-151.61
-134.49
-116.16
-99.5
-86.24
-76.89
-71.14
-68.58
-69.05
-72.7
-79.71
-89.88
-102.42
-115.9
-128.53
-138.63
-145.03
-147.38
-146.29
-143.1
-139.38
-136.36
-134.44
-133.04
-130.84
-126.07
-116.98
-102.12
-80.72
-52.92
-20.05
15.63
51.42
85.08
115.78
144.47
173.56
205.81
243.02
285.07
329.87
374.2
414.95
449.84
477.56
497.06
506.94
505.17
489.76
459.71
415.88
361.22
300.23
238.01
179.3
127.87
86.11
54.89
33.55
20.13
11.84
5.85
0.02
-6.77
-14.77
-23.86
-33.94
-45.16
-57.77
-71.71
-86.56
-101.46
-115.22
-126.52
-134.02
-136.54
-133.23
-123.9
-109.21
-90.61
-70.11
-49.74
-31.25
-15.8
-4.0
4.02
8.45
9.89
9.36
8.13
7.49
8.2
10.13
12.27
13.12
11.39
6.58
-0.75
-9.28
-17.51
-24.5
-30.16
-35.23
-40.82
-48.01
-57.39
-69.04
-82.45
-96.55
-109.72
-119.84
-124.54
-121.87
-110.92
-92.33
-68.32
-42.12
-17.13
3.89
19.26
28.32
31.04
27.75
19.14
6.39
-8.54
-23.06
-34.44
-40.69
-41.17
-36.8
-29.6
-21.83
-15.21
-10.51
-7.7
-6.43
-6.54
-8.11
-11.32
-16.13
-22.08
-28.36
-34.01
-38.05
-39.66
-38.21
-33.39
-25.28
-14.58
-2.47
9.61
20.41
29.14
35.55
39.82
42.27
43.11
42.46
40.56
37.92
35.36
33.8
33.93
35.79
38.68
41.24
41.82
39.14
32.57
22.35
9.31
-5.39
-20.65
-35.62
-49.64
-62.31
-73.27
-82.29
-89.05
-93.16
-94.08
-91.19
-84.05
-72.64
-57.6
-40.33
-22.61
-6.32
6.98
16.3
21.18
21.59
17.84
10.5
0.5
-10.86
-22.04
-31.54
-38.22
-41.65
-42.06
-40.27
-37.29
-34.01
-30.98
-28.37
-26.14
-24.14
-22.27
-20.74
-19.93
-20.44
-22.81
-27.4
-34.06
-42.09
-50.23
-56.92
-60.57
-60.04
-54.96
-45.82
-33.76
-20.24
-6.56
6.4
18.19
28.67
37.7
44.98
50.15
52.83
52.97
50.77
46.7
41.28
35.05
28.53
22.11
16.05
10.43
5.18
0.21
-4.52
-8.93
-12.87
-16.26
-19.23
-22.09
-25.28
-29.14
-33.87
-39.49
-45.73
-52.02
-57.28
-60.07
-58.82
-52.45
-40.86
-25.19
-7.51
9.94
25.39
38.02
47.85
55.27
60.57
63.74
64.68
63.41
60.37
56.23
51.71
47.28
43.06
38.91
34.62
30.13
25.45
20.65
15.68
10.45
4.9
-0.97
-6.97
-12.86
-18.43
-23.59
-28.38
-32.94
-37.52
-42.48
-48.19
-54.84
-62.12
-68.94
-73.47
-73.62
-67.78
-55.6
-38.27
-18.18
1.87
19.57
33.66
43.95
50.89
55.15
57.2
57.38
56.0
53.48
50.34
47.07
43.92
40.91
37.88
34.7
31.32
27.87
24.52
21.35
18.23
14.86
10.81
5.79
-0.22
-6.87
-13.5
-19.37
-23.97
-27.28
-29.82
-32.52
-36.33
-41.84
-48.87
-56.43
-62.82
-66.16
-64.89
-58.29
-46.61
-31.12
-13.64
3.88
19.82
33.11
43.22
50.05
53.66
54.3
52.38
48.57
43.79
38.94
34.7
31.32
28.59
26.06
23.33
20.32
17.24
14.43
12.04
9.89
7.48
4.25
-0.16
-5.64
-11.73
-17.71
-22.88
-26.88
-29.7
-31.71
-33.61
-36.16
-39.93
-44.99
-50.74
-55.77
-58.22
-56.35
-49.2
-37.1
-21.61
-4.99
10.55
23.56
33.53
40.6
45.12
47.29
47.1
44.73
40.75
36.18
32.17
29.47
28.09
27.32
26.08
23.47
19.33
14.2
9.18
5.33
3.17
2.35
1.84
0.35
-3.07
-8.55
-15.45
-22.61
-28.87
-33.54
-36.57
-38.41
-39.81
-41.51
-43.89
-46.81
-49.44
-50.43
-48.29
-41.85
-30.8
-15.9
1.16
18.19
33.03
44.08
50.56
52.45
50.47
45.66
39.14
31.86
24.6
17.9
12.18
7.83
5.05
3.86
3.93
4.63
5.18
4.83
3.1
-0.14
-4.53
-9.44
-14.08
-17.76
-20.18
-21.46
-22.06
-22.72
-24.11
-26.68
-30.53
-35.34
-40.37
-44.58
-46.71
-45.7
-40.96
-32.71
-21.9
-10.03
1.3
10.83
17.75
21.83
23.26
22.44
19.89
16.22
12.06
8.03
4.63
2.13
0.64
0.08
0.21
0.86
1.7
2.41
2.65
2.19
0.98
-0.83
-2.96
-5.18
-7.3
-9.35
-11.31
-13.23
-15.16
-17.26
-19.83
-23.11
-27.02
-30.82
-33.23
-32.75
-28.22
-19.42
-7.27
6.4
19.51
30.39
38.16
42.81
44.87
45.07
43.95
41.9
39.16
36.04
32.94
30.35
28.63
27.92
28.03
28.47
28.76
28.5
27.63
26.33
24.89
23.46
22.09
20.62
18.91
17.03
15.2
13.61
12.26
10.72
8.37
4.59
-0.92
-7.93
-15.7
-23.06
-28.71
-31.42
-30.38
-25.44
-17.23
-6.99
3.69
13.4
21.11
26.37
29.03
29.05
26.47
21.46
14.6
6.9
-0.43
-6.48
-10.99
-14.49
-17.91
-21.98
-26.83
-31.8
-35.73
-37.52
-36.7
-33.55
-29.19
-25.13
-22.77
-22.96
-25.86
-30.84
-36.92
-43.02
-48.34
-52.51
-55.45
-57.06
-57.05
-54.83
-49.77
-41.64
-30.93
-18.93
-7.36
2.16
8.69
12.18
13.24
12.74
11.24
8.94
5.81
1.95
-2.03
-5.14
-6.35
-5.11
-1.6
3.3
8.44
12.79
15.81
17.46
18.06
18.11
18.15
18.69
20.01
22.11
24.55
26.55
27.29
26.09
22.69
17.2
9.96
1.39
-7.93
-17.13
-25.03
-30.3
-31.85
-29.28
-23.04
-14.38
-4.8
4.41
12.44
19.06
24.27
28.1
30.41
31.01
29.77
26.81
22.61
17.83
13.2
9.24
6.19
3.94
2.13
0.29
-1.91
-4.65
-7.86
-11.33
-14.82
-18.1
-21.01
-23.46
-25.41
-27.05
-28.72
-30.91
-33.98
-37.79
-41.56
-43.89
-43.31
-38.74
-30.08
-18.21
-4.76
8.48
19.97
28.75
34.51
37.34
37.62
35.78
32.25
27.48
22.04
16.58
11.8
8.26
6.15
5.28
5.1
4.94
4.21
2.61
0.24
-2.6
-5.54
-8.34
-10.91
-13.32
-15.71
-18.23
-21.01
-24.21
-27.9
-32.08
-36.39
-40.1
-42.14
-41.37
-37.03
-29.01
-18.03
-5.52
6.85
17.65
26.01
31.72
35.0
36.23
35.71
33.59
30.04
25.41
20.4
15.73
12.06
9.59
8.05
6.88
5.51
3.68
1.39
-1.21
-3.99
-6.87
-9.77
-12.59
-15.2
-17.63
-20.04
-22.74
-26.0
-29.81
-33.77
-37.0
-38.44
-37.04
-32.21
-24.03
-13.25
-1.21
10.67
21.1
29.27
34.79
37.71
38.2
36.5
32.91
27.9
22.23
16.68
11.97
8.5
6.2
4.71
3.5
2.12
0.28
-2.06
-4.78
-7.59
-10.17
-12.35
-14.22
-16.14
-18.68
-22.37
-27.38
-33.43
-39.68
-44.85
-47.6
-46.75
-41.71
-32.58
-20.3
-6.38
7.5
19.88
29.84
37.0
41.4
43.22
42.69
40.15
36.1
31.28
26.48
22.24
18.74
15.84
13.14
10.3
7.23
4.0
0.74
-2.52
-5.84
-9.36
-13.07
-16.84
-20.44
-23.74
-26.89
-30.34
-34.58
-39.73
-45.24
-49.83
-51.88
-49.98
-43.5
-32.8
-19.07
-3.96
11.03
24.63
36.02
44.61
50.11
52.51
52.04
49.36
45.23
40.48
35.72
31.36
27.54
24.31
21.59
19.17
16.79
14.04
10.6
6.28
1.16
-4.46
-10.06
-15.21
-19.7
-23.57
-27.17
-30.89
-35.14
-40.14
-45.83
-51.75
-57.06
-60.59
-60.98
-57.13
-48.45
-35.2
-18.58
-0.36
17.47
33.23
45.77
54.59
59.63
61.17
59.72
56.05
51.17
46.23
42.23
39.7
38.51
37.9
36.9
34.74
31.14
26.49
21.48
16.78
12.68
8.93
5.05
0.5
-4.88
-10.91
-17.17
-23.2
-28.69
-33.52
-37.78
-41.7
-45.76
-50.46
-56.12
-62.43
-68.36
-72.15
-71.86
-66.06
-54.47
-38.1
-18.97
0.6
18.59
33.77
45.63
54.16
59.59
62.2
62.2
59.96
56.0
51.06
45.94
41.4
37.87
35.37
33.51
31.68
29.37
26.33
22.65
18.73
14.94
11.48
8.19
4.71
0.6
-4.36
-10.04
-16.02
-21.74
-26.81
-31.08
-34.68
-37.91
-41.08
-44.46
-48.29
-52.61
-57.09
-60.91
-62.71
-61.03
-54.79
-43.82
-29.1
-12.39
4.28
19.34
31.88
41.65
48.64
52.85
54.25
53.04
49.76
45.36
40.94
37.34
34.91
33.47
32.47
31.32
29.62
27.27
24.41
21.28
18.07
14.77
11.22
7.1
2.18
-3.57
-9.87
-16.21
-21.97
-26.72
-30.33
-33.03
-35.37
-38.04
-41.67
-46.53
-52.28
-57.88
-61.74
-62.13
-57.76
-48.43
-34.99
-19.17
-2.95
12.09
25.05
35.64
43.86
49.68
52.92
53.43
51.36
47.41
42.7
38.39
35.3
33.47
32.32
30.93
28.62
25.29
21.41
17.73
14.74
12.44
10.22
7.3
3.14
-2.26
-8.38
-14.48
-19.93
-24.47
-28.09
-31.03
-33.57
-36.03
-38.84
-42.45
-47.17
-52.86
-58.71
-63.18
-64.44
-60.96
-52.18
-38.76
-22.37
-5.18
11.03
25.1
36.69
45.84
52.73
57.28
59.33
58.8
55.94
51.34
45.91
40.5
35.85
32.33
30.05
28.77
28.03
27.25
25.85
23.53
20.24
16.22
11.81
7.23
2.57
-2.3
-7.45
-12.84
-18.17
-23.02
-27.05
-30.11
-32.44
-34.51
-36.93
-40.2
-44.54
-49.78
-55.27
-60.03
-62.73
-62.08
-57.05
-47.28
-33.25
-16.25
1.86
19.1
33.78
44.95
52.4
56.45
57.75
56.87
54.27
50.37
45.67
40.8
36.41
32.95
30.52
28.86
27.48
25.92
23.96
21.58
18.96
16.27
13.58
10.88
8.08
5.04
1.56
-2.52
-7.21
-12.27
-17.24
-21.63
-25.09
-27.63
-29.6
-31.51
-33.75
-36.58
-39.97
-43.71
-47.36
-50.1
-50.82
-48.3
-41.73
-31.14
-17.59
-2.98
10.7
21.97
30.33
36.09
39.95
42.4
43.45
42.85
40.38
36.3
31.34
26.58
22.93
20.85
20.19
20.28
20.31
19.62
17.93
15.33
12.16
8.8
5.49
2.32
-0.73
-3.74
-6.73
-9.7
-12.56
-15.26
-17.72
-19.87
-21.73
-23.55
-25.67
-28.58
-32.52
-37.22
-41.81
-44.97
-45.37
-42.12
-35.17
-25.21
-13.39
-0.99
10.9
21.4
29.76
35.34
37.79
37.18
34.1
29.62
24.92
20.96
18.21
16.54
15.48
14.49
13.21
11.64
10.08
8.87
8.2
7.88
7.46
6.39
4.33
1.31
-2.27
-5.85
-9.01
-11.6
-13.79
-15.88
-18.09
-20.5
-23.15
-26.09
-29.36
-32.94
-36.34
-38.67
-38.75
-35.58
-28.79
-18.91
-7.31
4.32
14.48
22.31
27.63
30.72
32.07
32.05
30.96
29.02
26.58
24.02
21.73
19.94
18.6
17.44
16.11
14.32
12.04
9.45
6.97
4.93
3.43
2.25
0.92
-0.95
-3.57
-6.75
-10.12
-13.25
-15.86
-17.92
-19.55
-21.06
-22.81
-25.15
-28.28
-32.0
-35.67
-38.29
-38.7
-36.07
-30.19
-21.55
-11.12
-0.02
10.72
20.28
28.09
33.73
37.06
38.16
37.39
35.25
32.2
28.71
25.16
21.95
19.42
17.78
16.95
16.57
16.12
15.16
13.55
11.43
9.09
6.77
4.43
1.96
-0.86
-4.1
-7.63
-11.16
-14.33
-16.88
-18.71
-20.02
-21.17
-22.66
-24.86
-27.92
-31.58
-35.21
-37.95
-38.82
-37.08
-32.31
-24.58
-14.51
-3.11
8.42
18.87
27.41
33.49
36.95
37.96
36.85
34.09
30.23
25.9
21.73
18.2
15.57
13.82
12.73
11.99
11.31
10.55
9.64
8.53
7.23
5.69
3.86
1.68
-0.9
-3.84
-6.93
-9.87
-12.37
-14.22
-15.53
-16.72
-18.42
-21.15
-25.0
-29.61
-34.2
-37.81
-39.57
-38.86
-35.39
-29.22
-20.76
-10.78
-0.3
9.57
17.87
24.04
27.93
29.76
29.92
28.72
26.46
23.39
19.85
16.37
13.51
11.67
10.94
11.02
11.36
11.43
10.93
9.87
8.44
6.84
5.04
2.89
0.18
-3.06
-6.56
-9.93
-12.83
-15.26
-17.45
-19.72
-22.34
-25.34
-28.47
-31.25
-33.16
-33.56
-31.83
-27.56
-20.64
-11.49
-1.05
9.42
18.7
25.89
30.63
33.0
33.37
32.18
29.84
26.79
23.45
20.35
17.93
16.42
15.77
15.54
15.2
14.31
12.67
10.41
7.79
4.94
1.86
-1.57
-5.44
-9.6
-13.67
-17.19
-19.79
-21.4
-22.28
-22.98
-24.14
-26.31
-29.68
-33.9
-38.05
-40.75
-40.64
-36.85
-29.44
-19.35
-8.14
2.67
12.05
19.49
24.95
28.53
30.28
30.27
28.71
26.06
23.05
20.32
18.27
17.01
16.33
15.97
15.74
15.51
15.16
14.55
13.52
11.88
9.6
6.81
3.69
0.42
-2.91
-6.32
-9.77
-13.1
-16.05
-18.38
-20.07
-21.44
-23.04
-25.45
-28.89
-33.03
-37.0
-39.59
-39.69
-36.66
-30.42
-21.51
-10.95
0.05
10.25
18.75
25.03
29.02
30.98
31.29
30.37
28.55
26.25
23.89
21.87
20.47
19.69
19.24
18.68
17.63
15.96
13.78
11.45
9.42
7.98
7.07
6.28
5.0
2.66
-0.91
-5.41
-10.18
-14.5
-17.95
-20.73
-23.35
-26.42
-30.19
-34.32
-37.95
-39.96
-39.4
-35.63
-28.72
-19.26
-8.31
2.91
13.28
22.08
28.92
33.61
36.06
36.18
34.09
30.21
25.28
20.28
16.02
13.02
11.29
10.48
10.13
9.77
9.08
7.78
5.67
2.77
-0.67
-4.17
-7.21
-9.51
-11.2
-12.68
-14.42
-16.63
-19.28
-22.22
-25.36
-28.74
-32.37
-35.99
-38.82
-39.71
-37.51
-31.55
-22.0
-9.9
3.18
15.58
25.89
33.28
37.5
38.77
37.59
34.62
30.54
26.13
22.12
19.14
17.43
16.82
16.79
16.73
16.22
15.15
13.6
11.69
9.31
6.28
2.43
-2.17
-7.12
-11.88
-16.06
-19.49
-22.35
-24.96
-27.66
-30.69
-34.21
-38.13
-42.1
-45.39
-46.95
-45.71
-40.95
-32.66
-21.53
-8.87
3.89
15.55
25.32
32.85
38.07
41.07
42.07
41.36
39.35
36.56
33.45
30.33
27.42
24.71
22.16
19.77
17.45
15.11
12.66
10.0
7.08
3.87
0.42
-3.2
-6.87
-10.42
-13.73
-16.7
-19.4
-21.96
-24.65
-27.71
-31.34
-35.46
-39.71
-43.44
-45.71
-45.63
-42.39
-35.77
-26.12
-14.47
-2.23
9.19
18.84
26.36
31.81
35.52
37.7
38.45
37.84
36.04
33.41
30.45
27.59
25.07
22.98
21.29
19.88
18.67
17.51
16.13
14.21
11.54
8.05
3.86
-0.81
-5.72
-10.65
-15.35
-19.56
-23.03
-25.73
-27.89
-30.14
-33.2
-37.65
-43.33
-49.29
-53.76
-54.81
-50.97
-41.97
-28.84
-13.58
1.6
15.01
25.84
34.08
40.04
43.85
45.38
44.44
41.21
36.37
30.99
26.11
22.4
19.94
18.44
17.43
16.47
15.29
13.67
11.42
8.45
4.8
0.66
-3.7
-7.99
-12.02
-15.76
-19.19
-22.42
-25.54
-28.72
-32.19
-36.14
-40.53
-45.02
-48.83
-50.78
-49.66
-44.6
-35.48
-23.08
-8.92
5.2
17.72
27.77
35.11
39.94
42.48
42.91
41.37
38.26
34.33
30.56
27.76
26.24
25.63
25.26
24.49
23.12
21.36
19.55
17.83
15.9
13.19
9.24
4.04
-1.94
-8.0
-13.54
-18.34
-22.58
-26.65
-30.86
-35.39
-40.2
-45.19
-50.15
-54.57
-57.62
-58.22
-55.27
-48.19
-37.21
-23.41
-8.43
6.07
18.86
29.27
37.18
42.72
46.1
47.53
47.31
45.87
43.74
41.55
39.7
38.32
37.16
35.79
33.78
30.92
27.33
23.34
19.36
15.59
11.96
8.2
3.96
-0.86
-6.11
-11.37
-16.28
-20.67
-24.65
-28.47
-32.39
-36.59
-41.18
-46.19
-51.48
-56.54
-60.36
-61.55
-58.72
-51.14
-39.11
-24.0
-7.81
7.49
20.52
30.65
37.88
42.5
44.85
45.23
44.03
41.77
39.04
36.35
33.94
31.77
29.68
27.52
25.25
22.94
20.65
18.31
15.71
12.56
8.7
4.2
-0.66
-5.49
-9.9
-13.73
-17.04
-20.09
-23.14
-26.48
-30.25
-34.52
-39.21
-44.07
-48.48
-51.47
-51.84
-48.44
-40.72
-29.01
-14.52
0.95
15.5
27.7
36.78
42.59
45.41
45.68
43.89
40.57
36.33
31.79
27.58
24.17
21.78
20.23
19.11
17.9
16.22
14.0
11.48
9.04
6.87
4.85
2.55
-0.47
-4.38
-9.0
-13.84
-18.42
-22.48
-26.09
-29.57
-33.35
-37.82
-43.12
-49.01
-54.74
-59.08
-60.55
-57.86
-50.47
-38.84
-24.41
-9.06
5.45
18.02
28.29
36.38
42.52
46.74
48.85
48.72
46.51
42.81
38.56
34.68
31.69
29.56
27.84
25.93
23.47
20.49
17.36
14.52
12.1
9.92
7.51
4.49
0.82
-3.22
-7.23
-10.91
-14.21
-17.32
-20.44
-23.69
-27.18
-31.09
-35.71
-41.26
-47.45
-53.39
-57.51
-58.18
-54.3
-45.81
-33.74
-19.76
-5.53
7.68
19.33
29.2
37.26
43.34
47.18
48.6
47.74
45.04
41.31
37.43
34.17
31.99
30.89
30.47
30.14
29.27
27.5
24.81
21.47
17.86
14.21
10.46
6.37
1.65
-3.71
-9.37
-14.75
-19.25
-22.58
-24.86
-26.61
-28.54
-31.36
-35.43
-40.71
-46.62
-52.1
-55.89
-56.73
-53.77
-46.75
-36.06
-22.68
-7.94
6.73
19.98
30.77
38.47
42.93
44.45
43.64
41.29
38.09
34.59
31.19
28.1
25.55
23.64
22.37
21.52
20.71
19.58
17.87
15.48
12.43
8.84
4.85
0.6
-3.74
-7.96
-11.82
-15.15
-17.86
-20.08
-22.08
-24.23
-26.88
-30.26
-34.36
-38.79
-42.73
-45.1
-44.76
-40.97
-33.58
-23.27
-11.23
1.08
12.28
21.35
27.79
31.57
33.08
32.93
31.77
30.14
28.31
26.38
24.33
22.23
20.26
18.64
17.49
16.63
15.75
14.4
12.3
9.42
5.9
2.02
-1.98
-5.96
-9.84
-13.55
-17.01
-20.15
-22.95
-25.53
-28.13
-31.17
-35.04
-39.78
-45.01
-49.73
-52.54
-52.03
-47.31
-38.32
-25.98
-11.91
2.13
14.66
24.82
32.28
37.11
39.55
39.95
38.69
36.33
33.53
30.92
28.96
27.78
27.21
26.75
25.9
24.24
21.61
18.16
14.33
10.69
7.71
5.46
3.6
1.5
-1.38
-5.16
-9.51
-13.82
-17.6
-20.64
-23.2
-25.8
-28.9
-32.8
-37.42
-42.36
-46.93
-50.16
-50.96
-48.38
-41.89
-31.68
-18.65
-4.24
9.9
22.28
31.89
38.23
41.32
41.61
39.79
36.68
33.07
29.6
26.7
24.6
23.31
22.66
22.41
22.22
21.78
20.8
19.19
16.99
14.38
11.6
8.75
5.77
2.41
-1.52
-5.96
-10.56
-14.81
-18.32
-21.09
-23.52
-26.33
-30.07
-34.91
-40.52
-46.11
-50.69
-53.25
-52.89
-49.03
-41.58
-30.96
-18.14
-4.52
8.52
19.82
28.72
34.98
38.69
40.09
39.53
37.49
34.63
31.62
29.03
27.06
25.62
24.35
22.83
20.81
18.22
15.25
12.15
9.16
6.35
3.69
1.02
-1.83
-4.98
-8.4
-11.9
-15.11
-17.76
-19.75
-21.25
-22.74
-24.8
-27.87
-31.98
-36.61
-40.74
-43.08
-42.51
-38.5
-31.24
-21.58
-10.67
0.37
10.67
19.63
26.77
31.68
34.02
33.8
31.37
27.5
23.16
19.16
16.09
14.1
13.15
12.96
13.19
13.35
12.98
11.8
9.64
6.73
3.44
0.22
-2.59
-4.92
-6.89
-8.84
-11.04
-13.75
-17.06
-21.05
-25.77
-31.16
-36.84
-42.09
-45.76
-46.63
-43.88
-37.27
-27.43
-15.53
-2.9
9.24
20.02
28.78
35.13
38.74
39.56
37.86
34.29
29.79
25.33
21.61
18.96
17.33
16.39
15.78
15.17
14.33
13.08
11.24
8.65
5.25
1.22
-3.1
-7.2
-10.7
-13.47
-15.66
-17.6
-19.61
-21.92
-24.7
-28.15
-32.41
-37.37
-42.45
-46.5
-48.02
-45.74
-39.11
-28.66
-15.81
-2.38
10.04
20.4
28.34
33.88
37.23
38.6
38.3
36.69
34.28
31.57
28.97
26.79
25.17
24.1
23.45
22.94
22.19
20.87
18.83
16.13
12.97
9.53
5.79
1.62
-3.06
-8.12
-13.16
-17.67
-21.26
-23.91
-25.98
-28.04
-30.6
-33.94
-37.91
-41.9
-44.95
-45.98
-44.0
-38.49
-29.46
-17.62
-4.28
9.05
20.93
30.29
36.64
40.0
40.7
39.28
36.39
32.68
28.87
25.64
23.42
22.33
22.07
22.12
21.93
21.22
19.94
18.26
16.3
14.04
11.35
8.11
4.27
-0.01
-4.45
-8.79
-12.77
-16.28
-19.4
-22.31
-25.39
-29.01
-33.39
-38.43
-43.58
-47.84
-49.97
-48.86
-43.85
-35.01
-23.18
-9.81
3.42
15.06
24.21
30.62
34.5
36.3
36.46
35.33
33.16
30.28
27.12
24.18
21.85
20.33
19.5
19.0
18.34
17.04
14.79
11.58
7.72
3.66
-0.12
-3.38
-6.17
-8.71
-11.33
-14.27
-17.71
-21.7
-26.21
-31.1
-36.04
-40.49
-43.7
-44.86
-43.25
-38.48
-30.55
-19.91
-7.58
5.11
16.69
25.97
32.19
35.33
35.86
34.51
31.89
28.35
24.12
19.44
14.79
10.86
8.27
7.3
7.68
8.74
9.6
9.48
8.0
5.21
1.48
-2.66
-6.77
-10.58
-14.06
-17.32
-20.53
-23.78
-27.15
-30.69
-34.42
-38.25
-41.78
-44.2
-44.5
-41.68
-35.25
-25.52
-13.54
-0.79
11.21
21.35
28.91
33.72
35.89
35.8
34.01
31.24
28.2
25.43
23.19
21.47
20.08
18.88
17.73
16.58
15.37
13.99
12.24
9.99
7.13
3.64
-0.39
-4.87
-9.65
-14.49
-19.11
-23.24
-26.77
-29.83
-32.8
-36.06
-39.8
-43.72
-47.03
-48.58
-47.21
-42.17
-33.46
-21.82
-8.61
4.59
16.45
26.12
33.27
38.01
40.57
41.2
40.1
37.54
34.05
30.37
27.2
24.97
23.63
22.71
21.66
20.09
17.95
15.44
12.8
10.11
7.24
3.98
0.18
-4.08
-8.55
-12.88
-16.79
-20.18
-23.11
-25.85
-28.72
-32.1
-36.11
-40.55
-44.78
-47.75
-48.24
-45.33
-38.64
-28.6
-16.32
-3.17
9.44
20.54
29.52
36.17
40.45
42.45
42.36
40.46
37.22
33.24
29.15
25.48
22.57
20.5
19.15
18.28
17.6
16.88
16.04
14.94
13.46
11.32
8.24
4.13
-0.81
-6.13
-11.22
-15.58
-19.03
-21.74
-24.16
-26.81
-30.21
-34.58
-39.75
-45.09
-49.5
-51.74
-50.66
-45.65
-36.91
-25.36
-12.42
0.41
11.84
21.06
27.77
31.99
33.99
34.13
32.85
30.66
28.05
25.41
23.02
21.0
19.41
18.29
17.69
17.52
17.5
17.13
15.83
13.21
9.3
4.59
-0.22
-4.53
-8.06
-10.98
-13.66
-16.43
-19.48
-22.89
-26.63
-30.66
-34.83
-38.68
-41.39
-41.84
-39.03
-32.5
-22.66
-10.79
1.37
12.13
20.37
25.71
28.39
28.95
27.99
25.92
23.1
19.91
16.77
14.2
12.56
11.99
12.22
12.72
12.89
12.23
10.54
7.9
4.59
0.84
-3.13
-7.21
-11.29
-15.17
-18.62
-21.52
-23.97
-26.36
-29.2
-32.86
-37.36
-42.14
-46.16
-48.15
-47.0
-42.02
-33.23
-21.46
-8.01
5.43
17.36
26.7
32.98
36.35
37.35
36.67
34.98
32.72
30.16
27.37
24.46
21.54
18.86
16.73
15.3
14.53
14.06
13.36
11.88
9.31
5.73
1.55
-2.67
-6.49
-9.75
-12.57
-15.18
-17.81
-20.68
-24.01
-28.04
-33.0
-38.75
-44.62
-49.45
-51.77
-50.29
-44.45
-34.6
-21.96
-8.2
4.97
16.27
24.95
30.83
34.15
35.36
35.01
33.64
31.68
29.43
