-48.93
-56.72
-62.06
-63.59
-60.43
-52.6
-41.05
-27.35
-13.15
0.26
12.1
22.06
30.08
36.2
40.54
43.35
45.05
46.14
46.98
47.68
48.17
48.2
47.63
46.42
44.66
42.46
39.92
37.08
33.91
30.36
26.31
21.64
16.33
10.46
4.31
-1.68
-7.12
-11.86
-16.09
-20.43
-25.56
-32.01
-39.67
-47.69
-54.59
-58.68
-58.63
-53.9
-44.96
-33.0
-19.55
-6.01
6.67
17.91
27.38
34.81
39.9
42.51
42.84
41.54
39.57
37.89
37.1
37.21
37.77
38.09
37.66
36.3
34.16
31.44
28.33
24.79
20.79
16.39
11.78
7.29
3.11
-0.75
-4.56
-8.66
-13.4
-18.98
-25.35
-32.17
-38.71
-43.89
-46.43
-45.3
-40.03
-31.07
-19.68
-7.56
3.68
12.98
19.97
24.86
27.98
29.66
30.08
29.45
28.07
26.38
24.86
23.78
23.15
22.67
22.0
20.86
19.17
17.02
14.49
11.63
8.38
4.62
0.29
-4.52
-9.65
-14.89
-20.16
-25.64
-31.72
-38.83
-47.02
-55.72
-63.56
-68.71
-69.43
-64.78
-55.0
-41.5
-26.35
-11.49
1.71
12.74
21.56
28.27
32.93
35.49
36.07
35.12
33.37
31.59
30.25
29.4
28.72
27.86
26.63
25.1
23.45
21.79
20.04
17.95
15.24
11.74
7.45
2.44
-3.08
-8.96
-15.03
-21.22
-27.54
-34.13
-41.17
-48.63
-56.13
-62.7
-67.0
-67.67
-63.86
-55.55
-43.65
-29.66
-15.14
-1.29
11.18
22.02
31.18
38.62
44.22
47.92
49.92
50.69
50.91
51.25
52.12
53.5
54.98
56.08
56.41
55.93
54.8
53.28
51.44
49.18
46.32
42.81
38.75
34.34
29.69
24.67
18.98
12.3
4.5
-4.31
-13.91
-23.94
-33.98
-43.37
-51.13
-56.03
-56.92
-53.16
-44.92
-33.24
-19.74
-6.1
6.28
16.59
24.51
30.02
33.2
34.15
33.07
30.37
26.64
22.66
19.14
16.48
14.74
13.63
12.75
11.74
10.35
8.4
5.74
2.2
-2.32
-7.77
-13.9
-20.29
-26.57
-32.45
-37.91
-43.16
-48.68
-54.91
-62.06
-69.8
-77.03
-82.07
-83.15
-79.0
-69.41
-55.34
-38.66
-21.51
-5.74
7.47
17.56
24.43
28.2
29.21
28.06
25.62
22.89
20.72
19.6
19.5
19.95
20.34
20.03
18.68
16.19
12.67
8.44
3.91
-0.51
-4.52
-8.11
-11.6
-15.48
-20.22
-26.15
-33.42
-41.91
-51.27
-60.73
-69.07
-74.69
-75.94
-71.74
-62.02
-47.92
-31.41
-14.61
0.78
13.89
24.52
32.73
38.53
41.81
42.56
41.14
38.3
34.98
31.97
29.66
28.01
26.72
25.49
24.08
22.4
20.24
17.38
13.65
8.96
3.47
-2.55
-8.82
-15.14
-21.45
-27.79
-34.34
-41.4
-49.3
-58.14
-67.53
-76.36
-82.95
-85.43
-82.48
-73.77
-60.12
-43.29
-25.32
-8.04
7.24
19.72
29.04
35.12
38.14
38.58
37.17
34.77
32.26
30.28
29.15
28.81
28.92
28.89
28.24
26.56
23.77
20.05
15.76
11.29
6.89
2.61
-1.69
-6.24
-11.28
-16.91
-23.17
-30.1
-37.7
-45.95
-54.52
-62.67
-69.19
-72.64
-71.78
-65.95
-55.41
-41.22
-24.94
-8.18
7.73
21.84
33.6
42.73
49.21
53.21
55.17
55.62
55.09
53.96
52.48
50.77
48.89
46.89
44.7
42.2
39.14
35.32
30.73
25.56
20.22
15.08
10.34
5.86
1.26
-3.96
-10.2
-17.61
-26.07
-35.32
-45.06
-54.84
-64.08
-71.73
-76.37
-76.57
-71.33
-60.64
-45.67
-28.5
-11.46
3.54
15.56
24.59
31.14
35.76
38.76
40.15
39.93
38.33
35.95
33.52
31.7
30.69
30.28
29.89
28.91
26.89
23.71
19.54
14.68
9.46
4.05
-1.44
-7.03
-12.77
-18.76
-25.2
-32.33
-40.36
-49.25
-58.45
-66.86
-72.98
-75.26
-72.61
-64.85
-52.76
-37.85
-21.94
-6.73
6.63
17.51
25.77
31.58
35.19
36.94
37.21
36.49
35.31
34.2
33.52
33.33
33.4
33.2
32.13
29.71
25.81
20.68
14.88
9.02
3.58
-1.26
-5.68
-10.02
-14.76
-20.37
-27.3
-35.89
-46.12
-57.45
-68.5
-77.29
-81.72
-80.27
-72.62
-59.69
-43.39
-25.87
-8.87
6.53
19.83
30.79
39.19
44.87
47.87
48.6
47.79
46.2
44.44
42.77
41.22
39.71
38.12
36.4
34.45
32.14
29.3
25.87
21.86
17.4
12.6
7.45
1.85
-4.38
-11.3
-18.97
-27.38
-36.49
-46.2
-56.04
-65.06
-71.77
-74.57
-72.23
-64.52
-52.3
-37.35
-21.61
-6.61
6.89
18.76
29.14
37.93
44.73
49.06
50.73
50.16
48.34
46.37
45.1
44.72
44.85
44.83
44.08
42.41
39.98
37.1
33.91
30.32
26.05
20.89
14.88
8.35
1.79
-4.5
-10.63
-17.15
-24.76
-33.85
-44.03
-54.03
-61.92
-65.77
-64.37
-57.62
-46.57
-32.92
-18.48
-4.63
7.89
18.76
27.95
35.37
40.87
44.33
45.79
45.58
44.31
42.62
41.04
39.8
38.81
37.76
36.27
34.08
31.12
27.49
23.41
19.06
14.55
9.88
4.94
-0.46
-6.56
-13.6
-21.77
-30.99
-40.77
-50.19
-57.95
-62.68
-63.3
-59.36
-51.16
-39.69
-26.26
-12.23
1.32
13.58
24.02
32.25
37.95
40.95
41.35
39.65
36.61
33.14
30.01
27.56
25.78
24.32
22.82
21.08
19.09
16.95
14.65
12.08
8.97
5.05
0.17
-5.73
-12.63
-20.52
-29.36
-38.91
-48.55
-57.23
-63.57
-66.28
-64.55
-58.35
-48.48
-36.2
-22.91
-9.68
2.8
14.25
24.4
32.96
39.49
43.58
45.09
44.27
41.8
38.55
35.39
32.89
31.23
30.17
29.25
27.93
25.86
22.94
19.24
14.93
10.2
5.14
-0.28
-6.18
-12.78
-20.38
-29.15
-38.99
-49.4
-59.27
-67.16
-71.53
-71.23
-65.84
-55.86
-42.52
-27.41
-12.03
2.54
15.72
27.32
37.25
45.38
51.42
55.15
56.58
56.15
54.71
53.22
52.44
52.62
53.5
54.49
54.98
54.62
53.39
51.53
49.34
46.99
44.45
41.63
38.43
34.83
30.88
26.51
21.57
15.88
9.54
3.14
-2.14
-4.77
-3.31
3.01
13.91
28.19
44.01
59.58
73.54
85.06
93.71
99.17
101.2
99.7
95.05
88.09
80.02
71.94
64.47
57.52
50.42
42.16
31.83
18.8
3.02
-14.92
-33.84
-52.28
-68.72
-82.17
-92.48
-100.4
-107.38
-115.09
-124.89
-137.46
-152.57
-169.09
-185.3
-199.17
-208.84
-213.02
-211.31
-204.36
-193.8
-181.89
-171.09
-163.5
-160.46
-162.28
-168.4
-177.5
-188.02
-198.44
-207.51
-214.27
-217.95
-217.76
-212.94
-202.97
-187.8
-168.06
-144.99
-120.14
-94.93
-70.34
-46.91
-24.94
-4.94
12.21
25.35
33.49
36.3
34.38
29.28
23.01
17.51
14.19
13.7
16.03
20.84
27.74
36.46
46.84
58.67
71.42
84.31
96.46
107.14
116.01
123.18
129.09
134.23
138.87
142.88
145.73
146.76
145.45
141.74
136.18
129.74
123.46
118.04
113.5
109.12
103.8
96.5
86.75
75.01
62.66
51.62
43.77
40.37
41.58
46.43
53.19
60.0
65.44
68.93
70.68
71.56
72.68
75.13
79.79
87.12
96.99
108.64
120.74
131.87
141.05
148.17
153.92
159.18
164.09
167.5
167.1
160.42
146.16
125.11
100.1
74.91
52.84
35.56
22.9
13.57
6.3
0.49
-3.64
-5.6
-5.36
-3.59
-1.48
-0.11
0.08
-0.43
-0.56
0.8
4.22
9.33
14.98
19.73
22.5
23.08
22.24
21.31
21.56
23.49
26.43
28.76
28.65
24.79
17.01
6.34
-5.54
-17.02
-27.14
-35.86
-43.69
-51.35
-59.31
-67.62
-75.95
-83.74
-90.22
-94.48
-95.53
-92.61
-85.6
-75.27
-63.17
-51.15
-40.65
-32.25
-25.68
-20.23
-15.26
-10.62
-6.58
-3.39
-0.99
1.08
3.49
6.63
10.39
14.19
17.27
19.05
19.31
18.07
15.49
11.68
6.72
0.73
-6.06
-13.36
-21.0
-28.94
-37.33
-46.17
-55.11
-63.34
-69.76
-73.3
-73.38
-69.98
-63.73
-55.5
-46.16
-36.36
-26.45
-16.71
-7.45
0.86
7.68
12.58
15.42
16.47
16.34
15.69
15.07
14.72
14.61
14.54
14.3
13.73
12.75
11.3
9.34
6.8
3.67
-0.05
-4.32
-9.08
-14.3
-19.94
-26.03
-32.53
-39.32
-46.07
-52.13
-56.62
-58.51
-56.99
-51.74
-43.12
-32.11
-20.04
-8.18
2.58
11.87
19.71
26.31
31.87
36.39
39.81
42.09
43.36
43.83
43.74
43.22
42.2
40.59
38.36
35.71
32.97
30.47
28.39
26.54
24.52
21.85
18.29
13.84
8.87
3.84
-0.93
-5.38
-9.81
-14.73
-20.64
-27.75
-35.83
-44.1
-51.42
-56.53
-58.38
-56.4
-50.6
-41.64
-30.56
-18.64
-7.05
3.38
12.25
19.56
25.45
30.1
33.61
35.98
37.32
37.87
37.97
37.89
37.72
37.26
36.23
34.46
32.11
29.62
27.51
26.03
25.03
23.89
21.86
18.47
13.77
8.26
2.73
-2.21
-6.33
-9.91
-13.5
-17.68
-22.83
-29.04
-36.04
-43.21
-49.59
-54.01
-55.36
-52.9
-46.61
-37.25
-26.14
-14.73
-4.15
4.99
12.56
18.69
23.53
27.14
29.56
30.88
31.35
31.24
30.83
30.26
29.59
28.8
27.91
26.95
25.98
25.04
24.13
23.19
22.06
20.53
18.35
15.32
11.37
6.65
1.5
-3.66
-8.47
-12.83
-16.86
-20.95
-25.53
-30.88
-37.08
-43.71
-49.95
-54.62
-56.52
-54.79
-49.23
-40.44
-29.67
-18.37
-7.8
1.23
8.44
13.92
17.92
20.75
22.64
23.83
24.57
25.09
25.53
25.92
26.11
25.88
25.01
23.45
21.41
19.32
17.65
16.63
16.13
15.66
14.59
12.49
9.27
5.23
0.92
-3.22
-6.98
-10.41
-13.85
-17.66
-22.21
-27.72
-34.17
-41.17
-47.94
-53.4
-56.42
-56.1
-52.11
-44.77
-34.96
-23.9
-12.77
-2.51
6.3
13.41
18.71
22.27
24.14
24.53
23.75
22.31
20.73
19.47
18.71
18.35
18.05
17.46
16.41
14.99
13.43
11.96
10.65
9.31
7.64
5.28
2.08
-1.95
-6.63
-11.61
-16.56
-21.22
-25.44
-29.35
-33.36
-38.03
-43.81
-50.71
-58.07
-64.61
-68.83
-69.57
-66.43
-60.05
-51.9
-43.89
-37.76
-34.6
-34.64
-37.34
-41.77
-47.05
-52.8
-59.2
-66.78
-76.01
-86.87
-98.68
-110.33
-120.67
-128.9
-134.88
-139.14
-142.72
-146.91
-152.7
-160.5
-169.63
-178.48
-184.8
-186.42
-182.0
-171.38
-155.6
-136.31
-115.23
-93.69
-72.53
-52.21
-32.98
-14.99
1.7
16.95
30.62
42.38
52.04
59.75
66.26
72.86
80.77
90.42
100.87
110.1
115.85
116.79
113.26
107.17
101.08
96.97
95.42
95.52
95.54
93.86
89.6
82.73
73.87
63.86
53.45
43.28
33.82
25.41
18.25
12.33
7.45
3.12
-1.3
-6.6
-13.56
-22.72
-34.1
-46.91
-59.6
-69.96
-75.72
-75.21
-67.88
-54.51
-36.98
-17.74
0.93
17.42
31.01
41.67
49.71
55.45
59.06
60.66
60.43
58.85
56.57
54.26
52.43
51.25
50.57
49.94
48.82
46.7
43.23
38.33
32.22
25.3
18.13
11.19
4.71
-1.29
-6.99
-12.67
-18.7
-25.52
-33.57
-43.01
-53.37
-63.37
-70.96
-73.95
-70.7
-60.89
-45.69
-27.36
-8.49
8.83
23.39
34.88
43.39
49.09
52.02
52.3
50.28
46.77
42.81
39.41
37.17
36.09
35.72
35.37
34.45
32.67
30.0
26.66
22.88
18.84
14.58
10.08
5.18
-0.35
-6.79
-14.44
-23.42
-33.38
-43.42
-52.0
-57.3
-57.66
-52.17
-41.02
-25.48
-7.55
10.58
27.13
40.95
51.54
58.78
62.8
63.84
62.27
58.72
54.12
49.47
45.64
43.06
41.59
40.58
39.22
36.86
33.27
28.67
23.48
18.18
12.93
7.66
2.02
-4.34
-11.67
-20.06
-29.44
-39.51
-49.64
-58.69
-65.06
-67.05
-63.39
-53.85
-39.42
-22.1
-4.16
12.52
26.91
38.7
47.95
54.7
58.87
60.39
59.51
56.89
53.48
50.23
47.81
46.41
45.71
45.11
43.86
41.4
37.49
32.34
26.44
20.47
14.91
9.85
4.95
-0.37
-6.8
-14.71
-24.1
-34.36
-44.29
-52.24
-56.42
-55.41
-48.6
-36.49
-20.5
-2.66
15.05
31.12
44.63
55.26
62.93
67.63
69.44
68.66
65.9
62.07
58.22
55.12
53.05
51.73
50.45
48.43
45.19
40.67
35.29
29.67
24.31
19.4
14.76
9.96
4.58
-1.68
-8.93
-17.2
-26.4
-36.22
-45.88
-54.04
-58.94
-58.94
-53.1
-41.71
-26.28
-9.03
7.78
22.59
34.69
44.04
50.85
55.33
57.61
57.83
56.34
53.74
50.72
47.89
45.68
44.22
43.37
42.78
41.93
40.28
37.42
33.21
27.81
21.63
15.18
8.9
2.97
-2.68
-8.25
-14.05
-20.37
-27.48
-35.57
-44.56
-53.91
-62.48
-68.65
-70.71
-67.46
-58.62
-45.09
-28.64
-11.41
4.72
18.52
29.47
37.57
43.01
46.01
46.78
45.66
43.13
39.84
36.51
33.73
31.84
30.85
30.47
30.22
29.59
28.18
25.75
22.27
17.94
13.01
7.8
2.54
-2.69
-7.84
-13.04
-18.5
-24.55
-31.54
-39.6
-48.44
-57.12
-64.13
-67.74
-66.55
-60.0
-48.63
-33.87
-17.62
-1.67
12.57
24.32
33.25
39.37
42.94
44.36
44.18
42.98
41.26
39.36
37.5
35.76
34.17
32.63
31.03
29.11
26.63
23.41
19.39
14.65
9.39
3.86
-1.7
-7.1
-12.24
-17.12
-21.87
-26.77
-32.21
-38.6
-46.1
-54.39
-62.51
-68.99
-72.17
-70.67
-63.94
-52.47
-37.69
-21.53
-5.87
7.9
19.09
27.57
33.57
37.35
39.14
39.15
37.71
35.29
32.47
29.83
27.77
26.43
25.67
25.14
24.44
23.24
21.4
18.88
15.75
12.06
7.85
3.13
-2.01
-7.46
-12.98
-18.41
-23.76
-29.28
-35.39
-42.35
-49.93
-57.17
-62.51
-64.24
-61.16
-53.08
-40.92
-26.45
-11.57
2.16
13.89
23.32
30.42
35.16
37.43
37.29
35.13
31.73
28.12
25.22
23.52
22.92
22.88
22.66
21.69
19.71
16.84
13.42
9.73
6.01
2.26
-1.61
-5.73
-10.13
-14.78
-19.68
-24.89
-30.72
-37.41
-45.0
-52.92
-59.91
-64.28
-64.47
-59.62
-50.03
-37.03
-22.51
-8.25
4.53
15.28
23.95
30.57
35.1
37.42
37.55
35.78
32.76
29.33
26.25
24.02
22.73
22.16
21.9
21.45
20.4
18.49
15.66
12.08
8.05
3.93
-0.02
-3.7
-7.2
-10.71
-14.48
-18.72
-23.64
-29.47
-36.34
-44.1
-52.04
-58.93
-63.16
-63.29
-58.56
-49.19
-36.36
-21.76
-7.14
6.14
17.28
25.95
32.16
36.1
38.04
38.37
37.54
36.0
34.13
32.2
30.32
28.53
26.77
24.98
23.1
21.06
18.77
16.19
13.22
9.78
5.82
1.3
-3.67
-8.91
-14.1
-18.97
-23.36
-27.38
-31.45
-36.08
-41.79
-48.64
-56.07
-62.83
-67.21
-67.59
-63.03
-53.68
-40.75
-26.08
-11.45
1.87
13.29
22.76
30.25
35.63
38.67
39.38
38.18
35.86
33.26
30.95
29.09
27.5
25.97
24.43
22.98
21.72
20.59
19.32
17.49
14.83
11.26
6.95
2.18
-2.75
-7.66
-12.47
-17.28
-22.35
-28.05
-34.74
-42.48
-50.75
-58.38
-63.68
-64.99
-61.3
-52.63
-40.11
-25.59
-10.95
2.38
13.59
22.44
28.96
33.18
35.18
35.24
33.88
31.87
29.88
28.36
27.3
26.44
25.41
23.97
22.08
19.86
17.41
14.74
11.78
8.38
4.44
-0.05
-5.04
-10.36
-15.77
-21.04
-26.06
-30.93
-35.97
-41.65
-48.28
-55.7
-63.11
-69.07
-71.9
-70.18
-63.38
-52.0
-37.44
-21.58
-6.14
7.66
19.21
28.33
35.03
39.4
41.63
42.11
41.42
40.29
39.27
38.57
38.01
37.23
35.83
33.68
30.96
28.03
25.27
22.89
20.74
18.45
15.49
11.44
6.18
-0.05
-6.72
-13.14
-18.78
-23.44
-27.27
-30.77
-34.64
-39.61
-46.22
-54.49
-63.71
-72.45
-78.73
-80.64
-76.96
-67.55
-53.57
-36.92
-19.72
-3.69
10.18
21.52
30.36
36.83
41.06
43.18
43.49
42.5
40.9
39.36
38.34
37.93
37.89
37.78
37.21
36.03
34.34
32.41
30.46
28.5
26.32
23.58
19.98
15.43
10.1
4.33
-1.52
-7.09
-12.24
-17.0
-21.61
-26.46
-31.99
-38.54
-46.23
-54.8
-63.44
-70.87
-75.55
-76.04
-71.49
-62.0
-48.67
-33.27
-17.67
-3.26
9.3
20.0
29.05
36.44
41.9
45.01
45.72
44.48
42.21
39.97
38.48
37.88
37.82
37.73
37.15
35.94
34.21
32.24
30.24
28.25
26.2
23.83
20.79
16.78
11.66
5.63
-0.8
-6.95
-12.29
-16.64
-20.27
-23.78
-27.79
-32.81
-39.09
-46.58
-54.9
-63.24
-70.31
-74.51
-74.34
-68.89
-58.28
-43.7
-27.04
-10.33
4.8
17.47
27.32
34.41
38.95
41.17
41.48
40.38
38.59
36.79
35.53
35.07
35.26
35.72
35.88
35.21
33.38
30.46
26.82
23.09
19.74
16.94
14.43
11.63
8.0
3.37
-1.97
-7.4
-12.31
-16.41
-19.87
-23.16
-26.8
-31.13
-36.26
-42.2
-48.93
-56.33
-63.91
-70.63
-74.94
-75.24
-70.46
-60.57
-46.71
-30.77
-14.7
0.04
12.72
23.16
31.35
37.21
40.59
41.55
40.51
38.33
36.02
34.41
33.85
34.16
34.83
35.21
34.87
33.67
31.76
29.39
26.85
24.24
21.54
18.58
15.13
10.99
6.11
0.59
-5.32
-11.28
-16.98
-22.21
-26.94
-31.33
-35.71
-40.48
-46.04
-52.65
-60.21
-68.15
-75.34
-80.22
-81.24
-77.4
-68.59
-55.84
-40.89
-25.68
-11.8
-0.2
8.77
15.13
18.97
20.39
19.52
16.77
12.87
8.68
4.99
2.1
-0.19
-2.48
-5.47
-9.57
-14.64
-20.11
-25.23
-29.45
-32.54
-34.59
-35.77
-36.11
-35.46
-33.71
-31.07
-28.24
-26.28
-26.3
-29.01
-34.28
-41.16
-48.09
-53.38
-55.6
-53.77
-47.53
-37.23
-23.88
-9.1
5.19
17.27
26.0
31.13
33.13
32.89
31.4
29.5
27.9
27.2
27.91
30.26
34.11
38.87
43.85
48.48
52.55
56.03
58.91
60.96
61.86
61.23
58.84
54.66
48.82
41.69
33.82
26.05
19.29
14.18
10.8
8.43
5.8
1.52
-5.38
-15.12
-27.04
-39.73
-51.31
-59.79
-63.47
-61.35
-53.45
-40.87
-25.63
-10.08
3.75
14.64
22.36
27.45
30.78
33.08
34.81
36.17
37.31
38.41
39.62
41.02
42.44
43.49
43.72
42.78
40.59
37.26
33.06
28.19
22.83
17.17
11.44
5.89
0.67
-4.34
-9.43
-15.05
-21.61
-29.35
-38.25
-47.93
-57.67
-66.31
-72.45
-74.66
-71.88
-63.87
-51.43
-36.29
-20.63
-6.53
4.63
12.36
17.11
19.9
21.95
24.3
27.59
31.95
37.11
42.55
47.72
52.19
55.84
58.72
61.0
62.67
63.49
62.94
60.4
55.25
47.19
36.3
23.18
8.85
-5.47
-18.51
-29.33
-37.61
-43.98
-49.91
-57.42
-68.35
-83.44
-101.73
-120.46
-135.79
-144.07
-143.01
-132.49
-114.43
-92.1
-68.91
-47.56
-29.57
-15.36
-4.65
3.19
8.99
13.77
18.69
24.75
32.35
41.04
49.67
56.95
62.22
65.88
69.14
73.21
78.53
84.23
88.64
90.19
88.25
83.35
76.6
68.79
59.9
49.22
36.1
20.65
4.08
-11.73
-24.88
-34.23
-39.54
-41.3
-40.26
-37.02
-31.89
-25.05
-16.78
-7.62
1.61
9.9
16.32
20.24
21.53
20.59
18.29
15.6
13.28
11.65
10.54
9.6
8.64
7.78
7.36
7.63
8.4
9.01
8.62
6.6
3.01
-1.51
-5.98
-9.68
-12.48
-14.86
-17.7
-21.87
-27.83
-35.36
-43.53
-50.82
-55.44
-55.85
-51.25
-41.86
-28.94
-14.42
-0.23
12.19
22.14
29.62
34.94
38.41
40.17
40.27
38.82
36.18
33.0
30.01
27.8
26.6
26.14
25.86
25.13
23.48
20.76
17.1
12.74
7.96
2.96
-2.12
-7.19
-12.16
-17.04
-22.05
-27.6
-34.14
-41.89
-50.47
-58.72
-64.93
-67.26
-64.51
-56.56
-44.52
-30.25
-15.73
-2.41
9.0
18.44
26.05
31.92
35.94
37.99
38.23
37.15
35.47
33.9
32.85
32.32
32.02
31.55
30.64
29.11
26.97
24.19
20.76
16.7
12.06
6.99
1.73
-3.46
-8.42
-13.15
-17.81
-22.84
-28.73
-35.83
-44.02
-52.43
-59.52
-63.45
-62.72
-56.75
-46.13
-32.37
-17.36
-2.77
10.3
21.34
30.16
36.73
41.01
43.1
43.37
42.41
40.96
39.6
38.63
38.0
37.45
36.68
35.5
33.89
31.95
29.75
27.25
24.33
20.85
16.64
11.73
6.27
0.54
-5.19
-10.77
-16.3
-22.21
-29.03
-37.11
-46.14
-55.03
-61.99
-65.1
-63.08
-55.78
-44.36
-30.77
-17.06
-4.66
5.79
14.35
21.35
26.93
31.04
33.48
34.19
33.42
31.7
29.66
27.79
26.4
25.45
24.68
23.72
22.18
19.88
16.85
13.37
9.78
6.34
3.06
-0.29
-4.02
-8.37
-13.42
-19.12
-25.35
-32.02
-38.9
-45.48
-50.83
-53.76
-53.18
-48.59
-40.29
-29.36
-17.3
-5.51
5.04
13.89
20.95
26.19
29.55
30.95
30.48
28.52
25.75
22.93
20.68
19.31
18.66
18.34
17.84
16.75
14.88
12.19
8.82
4.95
0.78
-3.54
-7.86
-12.13
-16.4
-20.85
-25.83
-31.69
-38.54
-45.96
-52.94
-57.97
-59.48
-56.47
-48.86
-37.59
-24.33
-10.82
1.58
12.16
20.79
27.58
32.61
35.82
37.12
36.66
34.88
32.52
30.39
29.02
28.49
28.41
28.16
27.13
24.99
21.78
17.77
13.32
8.73
4.13
-0.51
-5.27
-10.23
-15.46
-21.01
-26.97
-33.45
-40.51
-47.91
-54.96
-60.48
-63.18
-61.99
-56.54
-47.28
-35.34
-22.15
-8.98
3.29
14.21
23.56
31.18
36.93
40.65
42.39
42.41
41.19
39.33
37.39
35.76
34.57
33.66
32.74
31.49
29.76
27.51
24.81
21.68
18.08
13.93
9.29
4.34
-0.67
-5.53
-10.25
-15.06
-20.36
-26.56
-33.83
-41.92
-50.07
-57.03
-61.31
-61.63
-57.26
-48.42
-36.19
-22.19
-8.05
5.01
16.29
25.62
33.02
38.55
42.25
44.18
44.5
43.58
41.87
39.83
37.88
36.26
35.01
33.97
32.87
31.38
29.24
26.33
22.63
18.27
13.41
8.24
2.98
-2.16
-6.95
-11.27
-15.17
-18.97
-23.23
-28.61
-35.47
-43.58
-51.92
-58.8
-62.4
-61.27
-54.93
-44.03
-30.17
-15.37
-1.47
10.35
19.7
26.76
31.98
35.67
37.94
38.7
37.93
35.88
33.12
30.38
28.21
26.81
25.91
25.02
23.68
21.71
19.22
16.45
13.55
10.44
6.85
2.57
-2.42
-7.85
-13.31
-18.48
-23.4
-28.45
-34.11
-40.49
-46.99
-52.36
-54.98
-53.55
-47.56
-37.65
-25.28
-12.22
0.06
10.7
19.46
26.42
31.61
34.93
36.18
35.46
33.22
30.3
27.6
25.76
24.93
24.75
24.61
23.88
22.23
19.56
16.06
12.01
7.69
3.34
-0.87
-4.9
-8.78
-12.69
-16.84
-21.52
-27.02
-33.51
-40.94
-48.78
-56.05
-61.33
-63.15
-60.49
-53.21
-42.13
-28.81
-14.98
-2.05
9.18
18.46
25.87
31.48
35.24
37.09
37.08
35.55
33.06
30.32
27.88
26.04
24.83
24.01
23.22
22.13
20.44
17.98
14.73
10.8
6.37
1.69
-3.05
-7.71
-12.29
-16.91
-21.81
-27.28
-33.56
-40.67
-48.2
-55.23
-60.44
-62.45
-60.29
-53.74
-43.51
-30.94
-17.57
-4.68
6.9
16.86
25.16
31.75
36.59
39.61
40.86
40.63
39.4
37.73
36.06
34.67
33.53
32.47
31.3
29.86
28.13
26.09
23.68
20.76
17.18
12.88
7.96
2.65
-2.73
-7.96
-12.99
-17.96
-23.18
-29.03
-35.8
-43.46
-51.51
-58.87
-64.05
-65.54
-62.33
-54.37
-42.6
-28.68
-14.42
-1.21
10.19
19.63
27.2
32.94
36.77
38.61
38.6
37.19
35.04
32.82
30.94
29.52
28.43
27.47
26.48
25.37
23.99
22.11
19.45
15.84
11.33
6.25
1.1
-3.68
-7.87
-11.61
-15.29
-19.42
-24.44
-30.51
-37.48
-44.76
-51.42
-56.21
-57.96
-55.74
-49.33
-39.28
-26.76
-13.33
-0.42
10.95
20.25
27.33
32.2
34.94
35.65
34.57
32.16
29.03
25.84
23.12
21.14
19.93
19.29
18.87
18.26
17.09
15.07
12.11
8.34
4.04
-0.43
-4.73
-8.72
-12.37
-15.9
-19.69
-24.25
-30.0
-37.0
-44.64
-51.55
-55.96
-56.29
-51.67
-42.41
-29.89
-16.02
-2.61
9.08
18.48
25.52
30.3
32.93
33.51
32.31
29.85
26.81
23.91
21.63
20.11
19.12
18.22
16.93
14.9
12.01
8.37
4.25
-0.06
-4.29
-8.3
-12.13
-15.91
-19.9
-24.36
-29.58
-35.75
-42.79
-50.17
-56.87
-61.49
-62.58
-59.18
-51.19
-39.48
-25.61
-11.34
1.89
13.23
22.46
29.66
34.95
38.35
39.83
39.43
37.51
34.61
31.39
28.48
26.2
24.59
23.39
22.19
20.54
18.11
14.79
10.7
6.17
1.55
-2.92
-7.21
-11.49
-16.01
-21.05
-26.84
-33.52
-41.08
-49.18
-56.95
-63.01
-65.79
-64.01
-57.22
-46.06
-32.03
-17.04
-2.74
9.84
20.32
28.77
35.37
40.24
43.39
44.93
45.03
44.02
42.29
40.15
37.83
35.42
32.92
30.3
27.54
24.64
21.63
18.46
15.08
11.38
7.28
2.77
-2.08
-7.09
-12.16
-17.22
-22.45
-28.15
-34.65
-42.06
-50.04
-57.64
-63.41
-65.8
-63.63
-56.5
-45.02
-30.62
-15.1
-0.17
12.97
23.68
31.91
37.84
41.82
44.24
45.41
45.62
45.09
44.0
42.48
40.68
38.74
36.78
34.87
32.96
30.93
28.61
25.78
22.34
18.27
13.66
8.68
3.53
-1.59
-6.54
-11.2
-15.62
-20.02
-24.79
-30.39
-37.08
-44.71
-52.55
-59.3
-63.35
-63.31
-58.4
-48.84
-35.72
-20.75
-5.69
8.01
19.48
28.41
34.84
39.0
41.19
41.69
40.88
39.21
37.18
35.19
33.53
32.16
30.91
29.51
27.75
25.61
23.16
20.51
17.69
14.56
10.94
6.72
1.95
-3.07
-7.96
-12.39
-16.28
-19.86
-23.64
-28.18
-33.86
-40.58
-47.66
-53.81
-57.45
-57.22
-52.4
-43.23
-30.85
-16.98
-3.38
8.58
18.11
24.99
29.4
31.68
32.23
31.52
30.02
28.21
26.48
25.1
24.15
23.59
23.22
22.77
21.94
20.49
18.31
15.44
12.09
8.45
4.63
0.6
-3.72
-8.31
-13.06
-17.78
-22.44
-27.24
-32.57
-38.76
-45.65
-52.34
-57.33
-58.98
-56.1
-48.46
-36.96
-23.27
-9.25
3.61
14.49
23.13
29.62
34.04
36.42
36.82
35.49
32.98
29.98
27.16
24.9
23.26
22.03
20.89
19.58
17.91
15.79
13.15
9.91
6.02
1.55
-3.25
-8.09
-12.68
-16.85
-20.56
-24.0
-27.51
-31.57
-36.63
-42.85
-49.85
-56.58
-61.47
-62.9
-59.73
-51.8
-40.02
-26.04
-11.65
1.74
13.39
23.11
30.91
36.73
40.38
41.66
40.68
37.97
34.43
30.98
28.26
26.39
25.08
23.83
22.33
20.51
18.62
16.86
15.22
13.4
10.95
7.53
3.14
-1.84
-6.88
-11.54
-15.68
-19.52
-23.5
-28.1
-33.68
-40.18
-47.05
-53.21
-57.22
-57.64
-53.59
-45.03
-32.92
-18.94
-4.89
7.77
18.3
26.61
32.98
37.68
40.83
42.33
42.12
40.34
37.41
34.03
30.88
28.44
26.83
25.79
24.82
23.41
21.21
18.09
14.22
9.9
5.44
1.11
-2.95
-6.69
-10.22
-13.68
-17.3
-21.33
-26.06
-31.73
-38.25
-45.04
-50.91
-54.38
-54.07
-49.3
-40.42
-28.72
-16.0
-3.94
6.4
14.69
