-7.32
-4.28
-1.27
1.69
4.51
7.05
9.16
10.76
11.85
12.56
13.1
13.7
14.5
15.57
16.89
18.35
19.81
21.07
21.91
22.14
21.66
20.53
18.96
17.28
15.77
14.56
13.55
12.48
11.09
9.27
7.15
4.98
3.05
1.47
0.17
-1.12
-2.69
-4.69
-7.16
-9.93
-12.78
-15.5
-17.99
-20.24
-22.33
-24.39
-26.59
-29.09
-31.96
-35.11
-38.21
-40.71
-41.91
-41.14
-37.98
-32.4
-24.84
-16.07
-7.03
1.45
8.79
14.71
19.27
22.69
25.27
27.3
28.97
30.39
31.6
32.59
33.32
33.8
34.05
34.1
33.99
33.77
33.45
33.04
32.54
31.96
31.31
30.57
29.66
28.49
26.96
25.02
22.7
20.14
17.48
14.85
12.28
9.79
7.36
5.03
2.87
0.93
-0.8
-2.41
-4.04
-5.79
-7.67
-9.6
-11.5
-13.33
-15.09
-16.78
-18.29
-19.41
-19.9
-19.62
-18.59
-16.99
-15.07
-13.05
-11.08
-9.29
-7.81
-6.78
-6.2
-5.82
-5.16
-3.62
-0.83
3.18
7.9
12.53
16.33
18.78
19.79
19.45
17.92
15.38
12.01
8.19
4.45
1.38
-0.54
-1.1
-0.45
1.06
3.08
5.34
7.68
10.03
12.23
14.1
15.47
16.28
16.63
16.67
16.57
16.32
15.83
14.99
13.8
12.48
11.39
10.93
11.39
12.9
15.38
18.6
22.25
26.01
29.54
32.62
35.18
37.33
39.27
41.2
43.15
44.92
46.19
46.52
45.53
42.97
38.76
32.99
25.86
17.75
9.06
0.16
-8.74
-17.68
-26.88
-36.6
-46.9
-57.42
-67.28
-75.26
-80.08
-80.85
-77.47
-70.74
-62.13
-53.31
-45.64
-39.78
-35.7
-32.98
-31.08
-29.66
-28.53
-27.62
-26.71
-25.59
-24.09
-22.22
-20.21
-18.35
-16.81
-15.56
-14.32
-12.82
-10.9
-8.64
-6.26
-4.03
-2.15
-0.71
0.33
1.02
1.47
1.77
1.99
2.16
2.22
2.09
1.63
0.81
-0.35
-1.75
-3.29
-4.84
-6.34
-7.73
-8.95
-9.93
-10.67
-11.2
-11.63
-12.09
-12.71
-13.56
-14.64
-15.94
-17.45
-19.16
-21.16
-23.56
-26.37
-29.47
-32.45
-34.63
-35.23
-33.66
-29.75
-23.93
-17.1
-10.26
-4.24
0.58
4.21
6.85
8.74
9.98
10.66
10.82
10.63
10.3
9.98
9.76
9.59
9.45
9.36
9.46
9.88
10.71
11.91
13.35
14.87
16.35
17.74
18.95
19.84
20.19
19.78
18.5
16.47
13.98
11.46
9.3
7.7
6.63
5.9
5.25
4.46
3.45
2.25
0.97
-0.25
-1.31
-2.18
-2.91
-3.56
-4.21
-4.86
-5.47
-5.95
-6.28
-6.47
-6.66
-7.07
-7.97
-9.62
-12.18
-15.58
-19.46
-23.15
-25.76
-26.41
-24.54
-20.14
-13.78
-6.49
0.57
6.45
10.63
13.05
13.92
13.6
12.45
10.83
9.07
7.53
6.51
6.14
6.33
6.82
7.25
7.33
7.03
6.54
6.15
6.15
6.64
7.54
8.59
9.5
10.08
10.22
10.0
9.56
9.06
8.59
8.18
7.77
7.29
6.71
6.1
5.53
5.05
4.58
3.99
3.18
2.18
1.12
0.16
-0.64
-1.34
-2.16
-3.23
-4.51
-5.81
-6.85
-7.51
-7.93
-8.44
-9.49
-11.42
-14.41
-18.33
-22.83
-27.35
-31.16
-33.47
-33.65
-31.42
-26.98
-20.98
-14.41
-8.28
-3.31
0.17
2.24
3.28
3.72
3.97
4.26
4.72
5.4
6.29
7.36
8.53
9.67
10.68
11.45
11.95
12.22
12.32
12.33
12.23
12.02
11.66
11.13
10.52
10.01
9.83
10.25
11.48
13.61
16.53
20.0
23.61
26.97
29.7
31.6
32.58
32.74
32.26
31.33
30.15
28.75
27.09
24.97
22.15
18.37
13.56
7.84
1.57
-4.81
-10.91
-16.51
-21.61
-26.3
-30.74
-34.98
-39.01
-42.67
-45.75
-47.87
-48.54
-47.29
-43.84
-38.26
-31.07
-23.15
-15.46
-8.74
-3.33
0.81
3.96
6.34
8.08
9.19
9.72
9.81
9.76
9.92
10.53
11.71
13.36
15.35
17.53
19.8
22.12
24.4
26.47
28.14
29.22
29.65
29.46
28.84
28.03
27.27
26.81
26.74
27.04
27.52
27.9
27.88
27.26
25.99
24.13
21.79
19.04
15.93
12.46
8.62
4.5
0.21
-4.05
-8.04
-11.56
-14.51
-16.99
-19.25
-21.67
-24.58
-28.16
-32.3
-36.7
-40.86
-44.28
-46.47
-47.03
-45.71
-42.46
-37.49
-31.28
-24.48
-17.77
-11.62
-6.27
-1.68
2.33
5.98
9.37
12.5
15.21
17.39
18.94
19.92
20.45
20.69
20.77
20.72
20.57
20.36
20.21
20.24
20.58
21.23
22.07
22.84
23.29
23.22
22.57
21.47
20.11
18.72
17.51
16.53
15.68
14.74
13.44
11.6
9.23
6.48
3.55
0.57
-2.41
-5.44
-8.58
-11.79
-15.01
-18.14
-21.18
-24.18
-27.26
-30.6
-34.34
-38.67
-43.74
-49.56
-55.82
-61.77
-66.28
-68.06
-66.08
-59.97
-50.14
-37.69
-24.11
-10.87
0.89
10.54
17.95
23.42
27.49
30.78
33.8
36.78
39.61
41.87
42.95
42.4
40.13
36.62
32.82
29.9
28.88
30.29
34.09
39.74
46.38
53.13
59.16
63.77
66.4
66.73
64.76
60.83
55.6
49.82
44.08
38.75
33.95
29.68
25.96
22.82
20.23
17.97
15.68
12.91
9.32
4.82
-0.41
-6.01
-11.48
-16.37
-20.28
-22.96
-24.37
-24.68
-24.23
-23.48
-22.75
-22.19
-21.69
-20.98
-19.85
-18.23
-16.3
-14.42
-12.96
-12.18
-12.06
-12.4
-12.86
-13.16
-13.14
-12.83
-12.38
-12.04
-12.03
-12.55
-13.71
-15.47
-17.6
-19.72
-21.24
-21.56
-20.16
-16.82
-11.64
-5.2
1.62
7.77
12.33
14.67
14.57
12.23
8.2
3.19
-2.03
-6.86
-11.02
-14.6
-17.94
-21.51
-25.57
-30.0
-34.35
-38.03
-40.55
-41.75
-41.81
-41.09
-39.92
-38.58
-37.21
-36.01
-35.07
-34.4
-33.82
-32.93
-31.31
-28.76
-25.37
-21.61
-18.04
-15.11
-12.93
-11.34
-10.07
-8.98
-8.21
-8.15
-9.26
-11.94
-16.36
-22.49
-30.04
-38.49
-47.16
-55.27
-62.16
-67.45
-71.15
-73.52
-74.84
-75.21
-74.5
-72.52
-69.1
-64.22
-57.72
-49.23
-38.32
-24.76
-8.87
8.47
26.19
43.38
59.57
74.5
87.7
98.15
104.35
104.94
99.4
88.37
73.41
56.17
37.68
18.06
-3.15
-26.38
-51.46
-77.61
-103.72
-128.75
-151.99
-173.15
-192.15
-208.92
-223.27
-234.96
-243.64
-248.76
-249.44
-244.46
-232.5
-212.78
-185.57
-152.39
-115.63
-77.82
-40.8
-5.43
28.13
59.96
89.84
117.23
141.55
162.57
180.51
195.78
208.61
218.76
225.56
228.37
226.89
221.53
213.22
203.12
192.18
180.72
168.36
154.2
137.35
117.61
95.83
73.96
54.41
39.11
28.75
22.47
18.39
14.51
9.61
3.72
-2.27
-7.41
-11.45
-15.21
-20.11
-27.39
-37.29
-48.89
-60.61
-71.02
-79.47
-85.98
-90.62
-92.94
-91.75
-85.84
-74.65
-58.65
-38.82
-15.77
10.81
41.8
77.41
115.99
153.68
185.6
207.72
218.57
219.6
214.19
205.89
196.9
187.76
177.84
166.5
153.68
140.11
126.88
114.89
104.43
95.06
85.79
75.43
62.98
47.97
30.55
11.41
-8.53
-28.53
-48.03
-66.53
-83.1
-96.16
-103.7
-104.03
-96.67
-82.93
-65.64
-48.21
-33.44
-22.73
-15.91
-11.88
-9.34
-7.51
-6.22
-5.54
-5.46
-5.64
-5.61
-4.98
-3.79
-2.35
-1.12
-0.4
-0.28
-0.59
-1.15
-1.91
-2.9
-4.3
-6.29
-8.94
-12.24
-16.06
-20.15
-24.22
-27.94
-31.18
-34.09
-37.13
-40.83
-45.38
-50.41
-55.04
-58.3
-59.73
-59.75
-59.54
-60.52
-63.62
-68.9
-75.58
-82.43
-88.3
-92.36
-94.08
-93.04
-88.96
-81.76
-71.91
-60.48
-48.91
-38.65
-30.64
-25.1
-21.61
-19.4
-17.72
-16.03
-14.1
-11.98
-9.87
-8.02
-6.63
-5.79
-5.39
-5.21
-4.94
-4.29
-3.03
-1.1
1.41
4.34
7.43
10.36
12.81
14.52
15.39
15.51
15.15
14.55
13.88
13.13
12.16
10.81
9.03
6.88
4.47
1.9
-0.78
-3.53
-6.3
-9.02
-11.71
-14.6
-18.08
-22.58
-28.26
-34.71
-40.96
-45.63
-47.46
-45.78
-40.77
-33.4
-24.98
-16.83
-9.78
-4.2
-0.05
2.86
4.75
5.85
6.38
6.65
6.94
7.45
8.16
8.9
9.44
9.64
9.54
9.39
9.52
10.14
11.32
12.89
14.55
15.97
16.92
17.34
17.3
16.96
16.47
15.88
15.12
14.02
12.43
10.3
7.7
4.76
1.64
-1.6
-5.03
-8.77
-12.99
-17.78
-23.14
-29.01
-35.26
-41.78
-48.42
-55.04
-61.48
-67.54
-73.01
-77.62
-80.96
-82.49
-81.59
-77.68
-70.5
-60.17
-47.39
-33.23
-18.91
-5.46
6.52
16.9
25.9
33.79
40.73
46.71
51.58
55.18
57.46
58.51
58.46
57.4
55.29
52.08
47.78
42.72
37.65
33.78
32.51
35.04
41.85
52.51
65.69
79.52
92.1
101.94
108.21
110.71
109.73
105.85
99.77
92.25
83.96
75.51
67.26
59.33
51.62
43.82
35.5
26.25
15.86
4.42
-7.43
-18.56
-27.46
-32.52
-32.49
-26.98
-16.8
-4.08
8.29
17.44
21.49
20.14
14.6
6.93
-0.85
-7.51
-12.76
-16.99
-20.66
-23.95
-26.66
-28.5
-29.35
-29.47
-29.33
-29.39
-29.79
-30.27
-30.36
-29.53
-27.56
-24.65
-21.38
-18.4
-16.28
-15.24
-15.1
-15.49
-15.98
-16.25
-16.27
-16.14
-16.09
-16.34
-17.0
-18.05
-19.36
-20.76
-22.13
-23.37
-24.48
-25.5
-26.49
-27.51
-28.68
-30.14
-32.04
-34.49
-37.37
-40.28
-42.47
-43.07
-41.3
-36.81
-29.85
-21.19
-11.87
-2.92
4.94
11.34
16.15
19.46
21.4
22.3
22.68
23.15
24.25
26.14
28.54
30.76
32.03
31.84
30.17
27.42
24.27
21.31
18.92
17.15
15.81
14.5
12.75
10.12
6.47
2.24
-1.49
-3.04
-0.62
6.97
19.76
36.34
54.08
69.89
81.18
86.61
86.49
82.49
76.94
71.97
68.85
67.81
68.21
69.11
69.66
69.35
67.9
65.11
60.75
54.67
46.96
38.05
28.68
19.59
11.25
3.73
-3.18
-9.63
-15.45
-20.08
-22.8
-23.01
-20.63
-16.16
-10.57
-4.91
-0.11
3.34
5.32
6.04
5.86
5.25
4.61
4.27
4.43
5.1
6.11
7.11
7.66
7.31
5.75
3.02
-0.52
-4.12
-6.98
-8.43
-8.31
-7.0
-5.33
-4.32
-4.76
-6.98
-10.75
-15.39
-20.09
-24.2
-27.45
-29.97
-32.09
-34.09
-35.99
-37.52
-38.3
-38.06
-36.88
-35.19
-33.51
-32.36
-31.98
-32.39
-33.43
-34.84
-36.24
-37.19
-37.11
-35.49
-32.0
-26.78
-20.39
-13.74
-7.77
-3.19
-0.38
0.72
0.42
-0.84
-2.57
-4.35
-5.83
-6.8
-7.2
-7.1
-6.71
-6.3
-6.07
-6.12
-6.36
-6.59
-6.52
-5.96
-4.85
-3.37
-1.83
-0.55
0.28
0.64
0.69
0.55
0.28
-0.19
-0.97
-2.09
-3.4
-4.66
-5.66
-6.36
-6.92
-7.61
-8.65
-10.13
-11.93
-13.85
-15.68
-17.3
-18.74
-20.06
-21.43
-23.0
-24.96
-27.4
-30.23
-33.08
-35.33
-36.26
-35.21
-31.95
-26.62
-19.85
-12.47
-5.38
0.71
5.35
8.41
10.1
10.79
10.98
11.12
11.51
12.24
13.18
14.06
14.6
14.64
14.18
13.43
12.71
12.31
12.4
12.96
13.8
14.7
15.5
16.12
16.56
16.78
16.72
16.25
15.32
13.99
12.49
11.07
9.93
9.04
8.27
7.39
6.24
4.83
3.32
1.94
0.82
0.01
-0.6
-1.2
-1.95
-2.99
-4.37
-6.06
-7.98
-10.01
-12.03
-13.98
-15.83
-17.63
-19.46
-21.44
-23.72
-26.49
-29.87
-33.73
-37.66
-40.87
-42.46
-41.66
-38.17
-32.37
-25.19
-17.85
-11.41
-6.49
-3.16
-1.09
0.17
0.99
1.53
1.81
1.79
1.54
1.17
0.76
0.38
0.01
-0.34
-0.57
-0.47
0.2
1.58
3.63
6.11
8.7
11.07
13.03
14.47
15.4
15.87
16.03
16.02
15.9
15.63
15.05
13.96
12.28
10.15
7.94
6.04
4.71
3.89
3.3
2.54
1.36
-0.23
-1.98
-3.53
-4.65
-5.36
-5.95
-6.81
-8.29
-10.43
-12.95
-15.39
-17.28
-18.36
-18.78
-18.96
-19.43
-20.6
-22.62
-25.3
-28.16
-30.5
-31.56
-30.58
-27.08
-21.02
-13.03
-4.4
3.29
8.79
11.82
13.33
15.18
19.23
26.38
36.02
46.25
54.67
59.53
60.49
58.64
55.92
54.17
54.36
56.42
59.63
63.25
66.86
70.49
74.26
77.96
80.98
82.45
81.69
78.68
74.13
69.17
64.87
61.65
59.2
56.66
53.07
47.85
41.05
33.29
25.5
18.47
12.58
7.71
3.4
-0.85
-5.34
-10.06
-14.76
-19.13
-22.96
-26.19
-28.82
-30.92
-32.52
-33.71
-34.59
-35.34
-36.15
-37.15
-38.4
-39.9
-41.6
-43.52
-45.74
-48.32
-51.18
-53.96
-55.98
-56.43
-54.56
-50.04
-43.14
-34.72
-25.94
-17.87
-11.22
-6.16
-2.49
0.19
2.22
3.78
4.94
5.7
6.1
6.25
6.29
6.35
6.48
6.68
6.91
7.14
7.43
7.88
8.67
9.92
11.65
13.69
15.74
17.41
18.39
18.51
17.81
16.5
14.84
13.04
11.18
9.26
7.26
5.21
3.24
1.52
0.14
-0.96
-1.96
-3.1
-4.56
-6.33
-8.22
-9.96
-11.34
-12.29
-12.96
-13.58
-14.47
-15.84
-17.76
-20.13
-22.7
-25.15
-27.27
-29.0
-30.53
-32.19
-34.4
-37.39
-41.12
-45.14
-48.66
-50.64
-50.17
-46.71
-40.35
-31.8
-22.21
-12.8
-4.57
1.9
6.52
9.44
11.01
11.57
11.4
10.77
9.86
8.84
7.77
6.69
5.65
4.72
4.04
3.73
3.95
4.71
5.91
7.32
8.65
9.62
10.06
9.97
9.44
8.63
7.69
6.76
5.86
5.04
4.29
3.58
2.81
1.86
0.66
-0.84
-2.56
-4.37
-6.13
-7.7
-9.02
-10.03
-10.74
-11.21
-11.57
-12.0
-12.69
-13.79
-15.32
-17.19
-19.22
-21.25
-23.13
-24.75
-26.09
-27.19
-28.26
-29.67
-31.87
-35.12
-39.26
-43.54
-46.76
-47.6
-45.11
-39.16
-30.44
-20.3
-10.25
-1.54
5.12
9.58
12.11
13.17
13.19
12.51
11.44
10.19
9.01
8.08
7.53
7.34
7.45
7.69
7.91
8.07
8.24
8.62
9.39
10.7
12.5
14.57
16.54
18.03
18.82
18.84
18.17
17.01
15.58
14.05
12.57
11.21
9.97
8.69
7.12
5.06
2.44
-0.59
-3.67
-6.41
-8.58
-10.2
-11.55
-13.01
-14.87
-17.21
-19.85
-22.51
-24.92
-27.03
-28.98
-31.11
-33.82
-37.47
-42.21
-47.85
-53.79
-59.02
-62.32
-62.53
-58.95
-51.58
-41.22
-29.21
-17.05
-6.06
2.93
9.58
14.0
16.5
17.52
17.49
16.8
15.73
14.46
13.12
11.78
10.56
9.59
9.01
8.91
9.33
10.27
11.74
13.73
16.09
18.56
20.79
22.38
23.07
22.77
21.56
19.62
17.17
14.39
11.45
8.5
5.59
2.7
-0.37
-3.86
-7.93
-12.59
-17.61
-22.62
-27.25
-31.31
-34.78
-37.86
-40.88
-44.28
-48.57
-54.15
-61.08
-68.76
-75.86
-80.53
-80.94
-75.99
-65.74
-51.46
-35.28
-19.42
-5.65
5.06
12.5
16.96
19.0
19.24
18.34
16.91
15.43
14.13
12.99
11.73
10.0
7.63
4.65
1.37
-1.73
-4.18
-5.7
-6.34
-6.41
-6.47
-7.11
-8.78
-11.64
-15.38
-19.36
-22.79
-25.03
-25.8
-25.32
-24.07
-22.51
-20.83
-18.84
-16.05
-11.99
-6.41
0.42
7.78
14.53
19.41
21.42
20.17
16.05
10.21
4.06
-1.27
-5.5
-9.33
-14.22
-21.76
-33.07
-48.26
-66.28
-85.07
-101.97
-114.25
-119.71
-117.18
-106.76
-89.86
-68.81
-46.43
-25.42
-7.89
4.95
12.86
16.54
17.37
17.04
17.08
18.51
21.59
25.94
30.76
35.11
38.33
40.17
40.89
41.06
41.46
42.74
45.23
48.84
53.04
57.11
60.35
62.3
62.87
62.23
60.71
58.6
56.11
53.29
50.12
46.51
42.41
37.83
32.87
27.7
22.59
17.75
13.35
9.35
5.6
1.82
-2.26
-6.77
-11.7
-16.8
-21.8
-26.42
-30.63
-34.7
-39.22
-44.98
-52.62
-62.26
-73.16
-83.59
-91.23
-93.68
-89.31
-77.76
-60.11
-38.58
-15.84
5.64
24.08
38.62
49.17
56.25
60.66
63.32
65.02
66.39
67.7
69.0
70.12
70.86
71.1
70.96
70.71
70.78
71.56
73.26
75.79
78.78
81.64
83.76
84.67
84.17
82.33
79.42
75.84
71.92
67.86
63.73
59.46
55.0
50.39
45.75
41.33
37.35
33.86
30.79
27.94
25.09
22.11
18.96
15.67
12.29
8.82
5.2
1.34
-2.88
-7.48
-12.47
-17.71
-23.05
-28.29
-33.3
-38.11
-42.94
-48.22
-54.6
-62.63
-72.48
-83.5
-94.11
-102.0
-104.71
-100.51
-89.02
-71.43
-50.08
-27.77
-6.92
10.82
24.75
34.88
41.65
45.77
48.1
49.57
51.02
53.03
55.72
58.83
61.83
64.12
65.29
65.26
64.34
63.1
62.21
62.2
63.28
65.3
67.74
69.95
71.26
71.29
69.97
67.53
64.39
60.97
57.56
54.22
50.9
47.44
43.77
39.89
35.98
32.26
28.93
26.11
23.79
21.82
19.93
17.81
15.22
12.03
8.4
4.62
1.07
-2.01
-4.64
-7.09
-9.79
-13.1
-17.15
-21.8
-26.74
-31.66
-36.34
-40.74
-44.99
-49.38
-54.31
-60.25
-67.53
-76.05
-85.03
-92.87
-97.45
-96.75
-89.6
-76.19
-58.14
-37.98
-18.37
-1.37
11.97
21.5
27.76
31.52
33.56
34.63
35.4
36.4
37.95
40.03
42.33
44.43
45.99
46.89
47.31
47.58
48.04
48.92
50.27
51.98
53.81
55.41
56.39
56.45
55.45
53.49
50.92
48.17
45.59
43.29
41.15
38.86
36.14
32.91
29.28
25.56
22.04
18.94
16.3
14.02
11.93
9.83
7.62
5.29
2.93
0.68
-1.34
-3.15
-4.94
-7.01
-9.68
-13.1
-17.26
-21.88
-26.62
-31.17
-35.35
-39.17
-42.78
-46.44
-50.5
-55.43
-61.57
-68.95
-76.98
-84.3
-89.01
-89.24
-83.89
-73.04
-58.08
-41.16
-24.51
-9.78
2.2
11.38
18.06
22.68
25.67
27.44
28.49
29.32
30.32
31.66
33.22
34.69
35.72
36.1
35.89
35.43
35.14
35.42
36.42
38.05
39.99
41.83
43.2
43.9
43.85
43.12
41.81
40.07
38.05
35.91
33.72
31.48
29.14
26.65
24.01
21.34
18.79
16.52
14.59
12.96
11.48
9.97
8.25
6.22
3.87
1.33
-1.22
-3.56
-5.59
-7.38
-9.17
-11.27
-13.91
-17.17
-20.9
-24.82
-28.65
-32.23
-35.52
-38.56
-41.51
-44.53
-47.9
-51.93
-56.89
-62.73
-68.83
-74.01
-76.77
-75.75
-70.28
-60.67
-48.15
-34.47
-21.35
-10.06
-1.28
4.93
8.9
11.15
12.29
12.9
13.48
14.32
15.5
16.87
18.17
19.15
19.71
19.91
19.93
20.0
20.36
21.11
22.26
23.72
25.27
26.66
27.6
27.87
27.37
26.11
24.3
22.19
20.07
18.12
16.38
14.73
13.02
11.14
9.12
7.11
5.3
3.83
2.65
1.57
0.37
-1.14
-2.99
-5.1
-7.29
-9.39
-11.31
-13.08
-14.8
-16.6
-18.6
-20.85
-23.33
-25.98
-28.7
-31.37
-33.89
-36.25
-38.54
-41.01
-43.99
-47.74
-52.29
-57.27
-61.8
-64.75
-64.98
-61.77
-55.13
-45.78
-34.99
-24.15
-14.38
-6.41
-0.39
3.82
6.57
8.22
9.09
9.44
9.52
9.5
9.5
9.58
9.74
9.95
10.2
10.52
10.98
11.66
12.71
14.26
16.32
18.75
21.22
23.25
24.39
24.39
23.34
21.59
19.63
17.83
16.29
14.86
13.24
11.22
8.77
6.02
3.19
0.45
-2.11
-4.44
-6.55
-8.41
-10.04
-11.54
-13.08
-14.84
-16.9
-19.2
-21.57
-23.84
-25.94
-28.03
-30.44
-33.59
-37.75
-42.86
-48.36
-53.24
-56.21
-56.14
-52.46
-45.42
-36.03
-25.69
-15.76
-7.13
-0.16
5.17
9.1
11.82
13.49
14.31
14.56
14.63
14.8
15.18
15.64
15.92
15.84
15.39
14.8
14.42
14.52
15.23
16.48
18.05
19.64
20.97
21.83
22.1
21.79
21.01
19.94
18.72
17.44
16.06
14.53
12.8
10.91
8.89
6.74
4.47
2.05
-0.46
-2.88
-4.99
-6.64
-7.87
-8.94
-10.19
-11.91
-14.18
-16.89
-19.8
-22.64
-25.29
-27.68
-29.86
-32.0
-34.36
-37.31
-41.2
-46.14
-51.77
-57.15
-60.95
-61.81
-58.91
-52.24
-42.67
-31.62
-20.64
-10.9
-3.05
2.81
6.89
9.55
11.16
12.11
12.81
13.7
15.07
16.99
19.21
21.3
22.83
23.56
23.6
23.3
23.11
23.36
24.14
25.31
26.58
27.66
28.32
28.44
28.01
27.07
25.82
24.43
23.05
21.75
20.43
18.94
17.18
15.13
12.91
10.75
8.8
7.16
5.76
4.45
3.03
1.42
-0.36
-2.18
-3.91
-5.53
-7.15
-8.98
-11.21
-13.89
-16.84
-19.76
-22.38
-24.58
-26.42
-28.11
-29.82
-31.7
-33.81
-36.15
-38.66
-41.02
-42.64
-42.62
-40.06
-34.42
-25.89
-15.45
-4.58
5.19
12.82
17.97
20.89
22.2
22.48
22.16
21.47
20.54
19.48
18.42
17.42
16.47
15.54
14.54
13.5
12.49
11.69
11.31
11.51
12.34
13.67
15.21
16.59
17.49
17.73
17.37
16.61
15.73
14.94
14.33
13.85
13.4
12.86
12.13
11.12
9.75
8.06
6.19
4.45
3.12
2.36
2.1
2.03
1.8
1.15
0.05
-1.34
-2.75
-4.04
-5.24
-6.54
-8.21
-10.41
-13.21
-16.53
-20.21
-24.09
-28.08
-32.08
-36.09
-40.09
-44.1
-48.21
-52.54
-57.14
-61.86
-66.21
-69.32
-70.11
-67.65
-61.46
-51.74
-39.36
-25.61
-11.87
0.68
11.28
19.49
25.26
28.8
30.51
30.89
30.41
29.47
28.32
27.13
25.99
24.97
24.17
23.62
23.4
23.63
24.39
25.74
27.59
29.67
31.6
32.95
33.46
33.12
32.17
30.92
29.67
28.58
27.61
26.7
25.75
24.79
23.86
22.98
22.08
21.0
19.58
17.73
15.57
13.39
11.45
9.91
8.67
7.38
5.6
2.98
-0.61
-5.0
-9.84
-14.75
-19.42
-23.72
-27.67
-31.39
-35.07
-38.98
-43.38
-48.45
-54.12
-59.85
-64.69
-67.4
-66.9
-62.67
-55.05
-45.08
-34.25
-23.97
-15.22
-8.41
-3.44
0.07
2.58
4.53
6.29
8.15
10.25
12.6
15.01
17.21
18.9
19.92
20.31
20.34
20.4
20.87
22.0
23.81
26.08
28.43
30.44
31.75
32.16
31.64
30.36
28.67
26.92
25.39
24.17
23.14
22.07
20.76
19.09
17.18
15.23
13.43
11.87
10.55
9.36
8.22
7.11
6.02
5.0
4.06
3.18
2.31
1.43
0.47
-0.6
-1.9
-3.55
-5.65
-8.23
-11.15
-14.15
-16.96
-19.36
-21.36
-23.19
-25.24
-27.95
-31.63
-36.26
-41.42
-46.27
-49.73
-50.78
-48.73
-43.57
-35.92
-26.92
-17.84
-9.76
-3.3
1.36
4.38
6.04
6.73
6.8
6.64
6.59
6.84
7.39
8.04
8.54
8.69
8.51
8.23
8.16
8.57
9.56
11.04
12.79
14.57
16.18
17.49
18.41
18.87
18.81
18.23
17.21
15.9
14.47
13.05
11.68
10.34
8.98
7.53
6.02
4.46
2.89
1.36
-0.1
-1.46
-2.69
-3.78
-4.81
-5.92
-7.25
-8.94
-11.0
-13.32
-15.71
-17.95
-19.91
-21.59
-23.13
-24.84
-27.02
-29.92
-33.52
-37.45
-40.95
-43.06
-42.92
-40.06
-34.61
-27.26
-19.05
-11.0
-3.86
1.94
6.31
9.37
11.31
12.37
12.77
12.74
12.46
12.05
11.56
11.01
10.46
10.0
9.79
9.98
10.68
11.87
13.39
14.97
16.3
17.14
17.36
16.97
16.13
15.0
13.75
12.49
11.26
10.05
8.78
7.33
5.6
3.56
1.25
-1.2
-3.56
-5.65
-7.37
-8.76
-9.99
-11.29
-12.81
-14.63
-16.7
-18.9
-21.11
-23.24
-25.25
-27.14
-28.95
-30.77
-32.81
-35.34
-38.5
-42.13
-45.57
-47.83
-47.82
-44.83
-38.76
-30.27
-20.44
-10.49
-1.39
6.25
12.21
16.51
19.41
21.37
22.94
24.68
27.01
30.03
33.53
37.07
40.21
42.55
43.94
44.37
44.02
43.12
41.96
40.81
39.82
39.01
38.24
37.28
35.94
34.11
31.81
29.17
26.35
23.53
20.86
18.48
16.48
14.95
13.95
13.53
13.7
14.43
15.63
17.15
18.79
20.31
21.54
22.34
22.63
22.41
21.67
20.41
18.57
16.15
13.2
9.83
6.16
2.27
-1.87
-6.37
-11.32
-16.79
-22.76
-29.2
-36.07
-43.32
-50.74
-57.77
-63.53
-66.91
-66.92
-63.12
-55.83
-46.09
-35.37
-25.15
-16.52
-10.01
-5.62
-3.01
-1.74
-1.37
-1.54
-1.93
-2.25
-2.29
-1.95
-1.29
-0.5
0.23
0.77
1.12
1.46
1.99
2.91
4.25
5.94
7.77
9.51
10.95
11.97
12.49
12.53
12.19
11.61
10.9
10.09
9.15
7.95
6.43
4.61
2.63
0.71
-1.0
-2.49
-3.91
-5.47
-7.32
-9.51
-11.9
-14.28
-16.38
-18.04
-19.2
-19.98
-20.58
-21.26
-22.2
-23.41
-24.66
-25.62
-25.93
-25.42
-24.19
-22.58
-21.05
-20.05
-19.92
-20.84
-22.7
-25.1
-27.3
-28.32
-27.21
-23.42
-16.98
-8.65
0.44
9.05
16.27
21.63
25.07
26.76
26.96
25.92
23.95
21.39
18.58
15.78
13.09
10.45
7.69
4.67
1.4
-1.99
-5.17
-7.76
-9.4
-9.92
-9.39
-8.17
-6.71
-5.42
-4.5
-3.91
-3.47
-2.97
-2.29
-1.43
-0.45
0.62
1.8
3.15
4.74
6.55
8.49
10.4
12.13
13.61
14.91
16.15
17.52
19.16
21.09
23.18
25.17
26.75
27.67
27.77
27.06
25.64
23.67
21.33
18.72
15.82
12.56
8.8
4.42
-0.51
-5.67
-10.39
-13.81
-15.11
-13.87
-10.24
-4.96
0.84
6.11
10.07
12.46
13.36
13.09
11.94
10.19
8.1
5.92
3.93
2.3
1.1
0.25
-0.4
-0.92
-1.31
-1.42
-1.07
-0.07
1.56
3.62
5.75
7.53
8.62
8.87
8.37
7.36
6.1
4.78
3.48
2.16
0.77
-0.72
-2.29
-3.84
-5.23
-6.27
-6.81
-6.83
-6.42
-5.91
-5.67
-6.0
-6.96
-8.41
-10.06
-11.67
-13.14
-14.6
-16.3
-18.44
-21.19
-24.58
-28.49
-32.62
-36.4
-39.05
-39.69
-37.67
-32.84
-25.67
-17.15
-8.46
-0.61
5.76
10.48
13.65
15.52
16.43
16.73
16.84
17.14
17.87
19.01
20.28
21.24
21.54
21.02
19.77
18.11
16.45
15.1
14.3
14.04
14.18
14.44
14.45
13.9
12.62
10.69
8.36
6.02
3.97
2.4
1.3
0.55
-0.02
-0.58
-1.25
-2.14
-3.38
-5.08
-7.19
-9.56
-11.88
-13.82
-15.18
-15.98
-16.44
-16.94
-17.81
-19.22
-21.1
-23.26
-25.43
-27.38
-29.06
-30.57
-32.18
-34.24
-37.03
-40.59
-44.53
-48.07
-50.16
-49.82
-46.49
-40.22
-31.71
-22.11
-12.65
-4.33
2.25
6.94
9.96
11.67
12.51
12.92
13.25
13.77
14.61
15.78
17.13
18.48
19.65
20.55
21.21
21.77
22.36
23.09
23.97
24.89
25.73
26.35
26.62
26.46
25.82
24.72
23.25
21.55
19.8
18.11
16.57
15.18
13.93
12.8
11.75
10.7
9.46
7.8
5.59
2.83
-0.25
-3.3
-6.03
-8.3
-10.17
-11.85
-13.63
-15.82
-18.66
-22.33
-26.77
-31.54
-35.78
-38.41
-38.42
-35.33
-29.35
-21.37
-12.64
-4.39
2.5
7.66
11.1
13.17
14.28
14.9
15.44
16.16
17.14
18.34
19.58
20.69
21.55
22.13
22.48
22.69
22.89
23.23
23.8
24.65
25.72
26.79
27.57
27.82
27.41
26.37
24.89
23.17
21.37
19.55
17.7
15.82
13.95
12.14
10.39
8.69
7.03
5.41
3.94
2.68
1.68
0.87
0.12
-0.76
-1.88
-3.3
-4.97
-6.84
-8.84
-10.93
-13.07
-15.16
-17.12
-18.83
-20.26
-21.49
-22.73
-24.33
-26.63
-29.72
-33.35
-36.8
-39.05
-39.15
-36.54
-31.32
-24.24
-16.4
-8.9
-2.5
2.49
6.09
8.51
9.94
10.59
10.68
10.52
10.48
10.82
11.63
12.75
13.87
14.69
15.02
14.96
14.74
14.67
14.97
15.72
16.79
17.98
19.04
19.78
20.08
19.88
19.19
18.03
16.47
14.6
12.55
10.51
8.66
7.09
5.78
4.54
3.16
1.55
-0.19
-1.81
-3.09
-3.98
-4.65
-5.44
-6.6
-8.16
-9.9
-11.51
-12.81
-13.79
-14.67
-15.69
-17.01
-18.7
-20.77
-23.23
-26.1
-29.22
-32.17
-34.28
-34.76
-33.04
-29.01
-23.13
-16.29
-9.5
-3.62
0.86
3.82
5.47
6.09
6.08
5.8
5.6
5.77
6.42
