3.56
1.87
0.5
-0.55
-1.47
-2.44
-3.59
-4.91
-6.27
-7.56
-8.74
-9.84
-10.97
-12.25
-13.75
-15.6
-17.99
-21.1
-25.0
-29.43
-33.67
-36.67
-37.34
-35.03
-29.77
-22.34
-13.98
-5.92
0.98
6.4
10.44
13.38
15.49
16.92
17.8
18.29
18.64
19.05
19.6
20.23
20.8
21.19
21.4
21.53
21.75
22.19
22.91
23.9
25.05
26.21
27.19
27.77
27.76
27.07
25.74
23.95
21.97
20.02
18.19
16.45
14.66
12.63
10.27
7.58
4.67
1.71
-1.13
-3.7
-5.91
-7.74
-9.24
-10.53
-11.77
-13.11
-14.71
-16.62
-18.74
-20.9
-22.79
-24.15
-24.8
-24.79
-24.38
-24.03
-24.29
-25.6
-28.16
-31.78
-35.83
-39.36
-41.28
-40.67
-37.06
-30.57
-21.87
-12.03
-2.23
6.53
13.58
18.67
21.87
23.53
24.1
24.09
23.89
23.78
23.82
23.9
23.85
23.49
22.81
21.88
20.86
19.91
19.16
18.65
18.38
18.28
18.24
18.05
17.47
16.32
14.52
12.18
9.55
6.95
4.6
2.62
0.94
-0.54
-1.91
-3.21
-4.47
-5.67
-6.82
-7.9
-8.87
-9.67
-10.27
-10.63
-10.81
-10.88
-10.99
-11.29
-11.96
-13.08
-14.61
-16.38
-18.1
-19.51
-20.48
-21.07
-21.5
-22.09
-23.12
-24.82
-27.29
-30.48
-34.03
-37.22
-39.11
-38.76
-35.57
-29.58
-21.5
-12.43
-3.56
4.24
10.5
15.17
18.44
20.56
21.85
22.61
23.1
23.58
24.14
24.7
25.07
25.02
24.41
23.35
22.12
21.07
20.46
20.32
20.47
20.58
20.43
19.91
19.09
18.09
16.98
15.72
14.25
12.54
10.67
8.8
7.11
5.61
4.2
2.66
0.88
-1.17
-3.33
-5.4
-7.24
-8.9
-10.5
-12.2
-14.07
-16.07
-18.06
-19.91
-21.51
-22.88
-24.14
-25.5
-27.23
-29.63
-32.83
-36.7
-40.71
-43.96
-45.37
-44.1
-39.81
-32.89
-24.29
-15.21
-6.72
0.51
6.29
10.73
14.08
16.57
18.37
19.63
20.49
21.13
21.72
22.33
22.97
23.6
24.14
24.59
25.05
25.67
26.6
27.86
29.31
30.69
31.65
31.95
31.55
30.59
29.31
27.92
26.49
24.93
23.09
20.94
18.59
16.27
14.21
12.46
10.95
9.49
7.95
6.33
4.76
3.33
2.07
0.85
-0.52
-2.22
-4.33
-6.83
-9.67
-12.74
-15.93
-19.1
-22.05
-24.65
-26.86
-28.83
-30.9
-33.5
-36.97
-41.39
-46.43
-51.3
-54.94
-56.22
-54.4
-49.37
-41.72
-32.59
-23.29
-14.9
-8.03
-2.79
1.12
4.09
6.47
8.5
10.3
11.97
13.62
15.32
17.05
18.67
19.93
20.61
20.67
20.32
19.98
20.12
21.02
22.64
24.62
26.44
27.69
28.16
27.94
27.24
26.34
25.37
24.35
23.18
21.72
19.88
17.68
15.28
12.98
11.05
9.7
8.9
8.41
7.89
7.02
5.67
3.92
1.99
0.11
-1.58
-3.13
-4.63
-6.24
-8.0
-9.89
-11.81
-13.67
-15.41
-17.07
-18.74
-20.65
-23.04
-26.18
-30.23
-35.06
-40.25
-44.99
-48.31
-49.32
-47.46
-42.74
-35.74
-27.43
-18.88
-10.97
-4.21
1.22
5.38
8.44
10.59
12.0
12.86
13.39
13.8
14.23
14.75
15.28
15.73
16.0
16.07
16.02
16.01
16.2
16.8
17.92
19.54
21.51
23.44
24.9
25.55
25.23
24.09
22.45
20.67
18.98
17.45
15.99
14.49
12.9
11.23
9.51
7.78
6.02
4.22
2.4
0.58
-1.2
-2.9
-4.54
-6.15
-7.78
-9.45
-11.16
-12.85
-14.52
-16.16
-17.83
-19.73
-22.12
-25.28
-29.36
-34.15
-39.04
-43.05
-45.13
-44.43
-40.67
-34.26
-26.16
-17.6
-9.7
-3.22
1.59
4.87
7.01
8.45
9.62
10.79
12.04
13.35
14.55
15.48
16.03
16.18
16.02
15.7
15.42
15.37
15.68
16.41
17.48
18.73
19.85
20.58
20.66
20.08
19.03
17.81
16.76
16.01
15.52
15.07
14.39
13.3
11.79
10.02
8.18
6.44
4.87
3.45
2.2
1.14
0.36
-0.09
-0.3
-0.45
-0.83
-1.68
-3.07
-4.89
-6.84
-8.62
-10.06
-11.2
-12.28
-13.62
-15.61
-18.51
-22.43
-27.26
-32.56
-37.54
-41.17
-42.48
-40.83
-36.19
-29.22
-20.97
-12.59
-5.03
1.22
6.05
9.59
12.06
13.7
14.7
15.28
15.59
15.76
15.84
15.82
15.72
15.56
15.43
15.41
15.58
15.95
16.54
17.34
18.32
19.43
20.53
21.41
21.84
21.7
20.95
19.73
18.28
16.8
15.42
14.17
12.96
11.67
10.21
8.58
6.84
5.08
3.33
1.6
-0.14
-1.91
-3.68
-5.39
-7.0
-8.55
-10.14
-11.92
-14.02
-16.43
-19.04
-21.65
-24.06
-26.13
-27.82
-29.21
-30.56
-32.16
-34.36
-37.33
-40.91
-44.51
-47.2
-47.95
-46.02
-41.3
-34.29
-25.97
-17.4
-9.39
-2.35
3.65
8.64
12.69
15.81
18.07
19.63
20.79
21.8
22.8
23.69
24.26
24.3
23.78
22.87
21.94
21.38
21.44
22.13
23.23
24.3
24.92
24.79
23.88
22.34
20.44
18.41
16.34
14.19
11.9
9.42
6.82
4.2
1.67
-0.72
-2.97
-5.07
-6.99
-8.67
-10.08
-11.25
-12.32
-13.38
-14.55
-15.83
-17.12
-18.32
-19.35
-20.29
-21.32
-22.75
-24.91
-28.0
-31.98
-36.41
-40.52
-43.31
-43.85
-41.62
-36.69
-29.76
-21.9
-14.28
-7.71
-2.56
1.26
4.11
6.37
8.3
10.04
11.63
13.1
14.47
15.67
16.64
17.2
17.3
17.01
16.56
16.22
16.25
16.74
17.65
18.84
20.14
21.4
22.52
23.42
24.05
24.38
24.4
24.08
23.41
22.38
21.08
19.67
18.36
17.33
16.62
16.09
15.48
14.47
12.86
10.63
7.93
5.01
2.16
-0.48
-2.88
-5.1
-7.32
-9.66
-12.16
-14.76
-17.34
-19.8
-22.05
-24.06
-25.88
-27.6
-29.42
-31.6
-34.38
-37.83
-41.7
-45.38
-47.95
-48.5
-46.4
-41.59
-34.65
-26.55
-18.42
-11.1
-5.0
-0.08
3.94
7.33
10.18
12.46
14.06
15.02
15.49
15.78
16.14
16.73
17.56
18.51
19.48
20.41
21.38
22.51
23.95
25.71
27.68
29.55
31.01
31.81
31.92
31.5
30.87
30.3
29.87
29.43
28.67
27.22
24.93
21.86
18.36
14.88
11.83
9.37
7.46
5.84
4.25
2.56
0.78
-0.94
-2.48
-3.87
-5.26
-6.91
-8.98
-11.54
-14.39
-17.27
-19.84
-21.89
-23.41
-24.6
-25.86
-27.62
-30.23
-33.72
-37.72
-41.48
-44.05
-44.53
-42.42
-37.75
-31.08
-23.33
-15.47
-8.32
-2.38
2.16
5.3
7.21
8.1
8.28
8.07
7.76
7.56
7.5
7.53
7.56
7.57
7.64
7.87
8.35
9.13
10.21
11.58
13.21
14.98
16.7
18.08
18.88
18.99
18.55
17.84
17.14
16.58
16.04
15.24
14.0
12.3
10.36
8.51
7.03
5.98
5.2
4.41
3.3
1.68
-0.55
-3.32
-6.42
-9.61
-12.55
-15.02
-16.96
-18.55
-20.16
-22.3
-25.36
-29.51
-34.46
-39.49
-43.54
-45.53
-44.68
-40.84
-34.52
-26.76
-18.76
-11.57
-5.78
-1.47
1.6
3.85
5.67
7.33
8.97
10.63
12.22
13.6
14.6
15.15
15.3
15.27
15.37
15.82
16.7
17.91
19.18
20.28
21.04
21.43
21.49
21.3
20.87
20.19
19.27
18.16
17.02
15.95
15.02
14.18
13.32
12.29
11.03
9.54
7.91
6.23
4.63
3.2
2.01
1.09
0.35
-0.41
-1.42
-2.85
-4.74
-7.01
-9.44
-11.85
-14.14
-16.26
-18.28
-20.22
-22.15
-24.17
-26.48
-29.26
-32.58
-36.21
-39.47
-41.4
-41.12
-38.04
-32.27
-24.55
-16.02
-7.84
-0.87
4.48
8.27
10.79
12.45
13.64
14.6
15.49
16.33
17.07
17.68
18.14
18.46
18.67
18.83
18.99
19.19
19.49
19.99
20.77
21.87
23.19
24.53
25.6
26.11
25.92
25.09
23.82
22.41
21.04
19.78
18.55
17.26
15.84
14.41
13.09
11.99
11.12
10.37
9.53
8.49
7.2
5.77
4.34
3.02
1.74
0.33
-1.41
-3.61
-6.24
-9.06
-11.77
-14.12
-15.98
-17.42
-18.62
-19.83
-21.3
-23.26
-25.91
-29.34
-33.39
-37.56
-40.99
-42.74
-42.04
-38.67
-33.0
-25.97
-18.66
-12.0
-6.53
-2.38
0.62
2.72
4.17
5.21
6.06
6.91
7.85
8.84
9.72
10.33
10.6
10.61
10.58
10.7
11.09
11.71
12.4
13.04
13.55
13.92
14.13
14.15
13.92
13.42
12.69
11.84
11.01
10.25
9.51
8.65
7.52
6.05
4.27
2.27
0.19
-1.84
-3.75
-5.45
-6.9
-8.11
-9.15
-10.22
-11.51
-13.13
-15.06
-17.11
-19.04
-20.68
-22.03
-23.22
-24.48
-26.1
-28.3
-31.15
-34.48
-37.77
-40.26
-41.06
-39.52
-35.46
-29.37
-22.23
-15.11
-8.86
-3.85
-0.07
2.68
4.6
5.81
6.42
6.59
6.54
6.49
6.48
6.42
6.12
5.46
4.44
3.3
2.33
1.82
1.93
2.66
3.89
5.42
7.05
8.55
9.78
10.63
11.09
11.21
11.13
11.01
11.02
11.26
11.77
12.47
13.14
13.51
13.4
12.76
11.77
10.79
10.17
10.19
10.9
12.2
13.85
15.64
17.46
19.26
21.01
22.71
24.34
25.9
27.36
28.61
29.47
29.64
28.8
26.71
23.31
18.66
12.93
6.35
-0.75
-7.85
-14.28
-19.34
-22.61
-24.11
-24.3
-23.99
-23.96
-24.73
-26.41
-28.74
-31.32
-33.82
-36.2
-38.76
-42.13
-46.95
-53.53
-61.57
-70.09
-77.66
-82.9
-84.9
-83.52
-79.16
-72.5
-64.0
-53.87
-42.18
-29.15
-15.33
-1.6
11.17
22.35
31.87
39.97
46.99
53.01
57.84
61.29
63.65
65.93
69.63
76.15
85.9
97.93
110.11
119.9
125.43
126.03
122.22
115.25
106.33
96.45
86.29
76.41
67.18
58.53
49.66
39.24
25.87
8.9
-11.09
-32.22
-51.79
-66.83
-74.52
-72.79
-60.85
-39.83
-13.11
14.18
36.5
49.79
52.88
47.78
38.38
28.55
20.4
13.87
7.57
0.29
-7.89
-15.49
-20.54
-21.81
-19.47
-15.07
-10.57
-7.45
-6.15
-6.11
-6.44
-6.58
-6.55
-6.76
-7.47
-8.38
-8.66
-7.33
-3.82
1.7
8.3
14.72
19.72
22.51
22.82
20.93
17.53
13.58
10.15
8.22
8.35
10.59
14.3
18.39
21.67
23.27
22.91
20.96
18.14
15.17
12.45
9.99
7.55
4.86
1.81
-1.53
-5.08
-8.95
-13.43
-18.77
-24.95
-31.41
-37.15
-41.09
-42.48
-41.26
-38.07
-33.99
-30.08
-27.11
-25.34
-24.59
-24.48
-24.58
-24.55
-24.23
-23.61
-22.83
-22.1
-21.56
-21.21
-20.91
-20.45
-19.65
-18.43
-16.87
-15.07
-13.14
-11.11
-9.07
-7.16
-5.56
-4.48
-4.07
-4.27
-4.92
-5.76
-6.56
-7.21
-7.67
-7.97
-8.21
-8.5
-8.99
-9.8
-11.01
-12.55
-14.28
-15.97
-17.51
-18.9
-20.25
-21.7
-23.33
-25.1
-26.9
-28.67
-30.47
-32.41
-34.68
-37.38
-40.52
-44.05
-47.94
-52.2
-56.81
-61.57
-65.93
-69.1
-70.15
-68.42
-63.73
-56.48
-47.48
-37.68
-27.84
-18.38
-9.47
-1.13
6.6
13.65
20.01
25.81
31.27
36.63
41.95
47.04
51.55
55.11
57.48
58.7
58.97
58.62
57.98
57.34
56.91
56.91
57.54
58.98
61.45
65.14
70.15
76.35
83.21
89.81
94.97
97.49
96.44
91.47
82.73
70.92
57.01
42.11
27.25
13.28
0.74
-10.14
-19.43
-27.39
-34.3
-40.44
-45.95
-50.99
-55.65
-60.07
-64.27
-68.07
-71.04
-72.51
-71.81
-68.48
-62.46
-54.17
-44.4
-34.06
-23.92
-14.53
-6.14
1.15
7.28
12.19
15.8
18.05
18.96
18.69
17.47
15.66
13.63
11.73
10.17
9.07
8.41
8.12
8.19
8.61
9.41
10.57
11.94
13.3
14.37
14.94
14.93
14.39
13.44
12.26
10.94
9.5
7.86
5.98
3.82
1.41
-1.17
-3.8
-6.44
-9.07
-11.69
-14.31
-16.9
-19.4
-21.7
-23.72
-25.37
-26.59
-27.41
-27.93
-28.38
-29.09
-30.35
-32.15
-34.13
-35.51
-35.37
-32.93
-27.98
-20.99
-12.96
-5.04
1.85
7.25
11.17
13.87
15.58
16.45
16.49
15.78
14.51
12.99
11.51
10.25
9.2
8.22
7.21
6.15
5.14
4.36
3.98
4.08
4.64
5.55
6.62
7.68
8.5
8.91
8.82
8.26
7.39
6.49
5.83
5.53
5.57
5.74
5.77
5.48
4.76
3.65
2.26
0.7
-0.9
-2.39
-3.66
-4.65
-5.42
-6.18
-7.21
-8.7
-10.64
-12.77
-14.79
-16.57
-18.23
-20.11
-22.59
-25.86
-29.72
-33.68
-37.04
-39.07
-39.18
-37.05
-32.71
-26.55
-19.28
-11.83
-5.07
0.37
4.24
6.62
7.86
8.42
8.67
8.93
9.31
9.79
10.26
10.6
10.76
10.78
10.72
10.66
10.61
10.59
10.6
10.73
11.06
11.67
12.52
13.43
14.14
14.42
14.14
13.32
12.12
10.73
9.3
7.94
6.62
5.3
3.93
2.47
0.92
-0.66
-2.18
-3.56
-4.73
-5.66
-6.46
-7.26
-8.19
-9.34
-10.66
-12.0
-13.2
-14.1
-14.71
-15.18
-15.78
-16.81
-18.51
-20.98
-24.1
-27.52
-30.67
-32.82
-33.19
-31.23
-26.79
-20.26
-12.53
-4.74
2.02
7.05
10.12
11.5
11.65
11.13
10.39
9.68
9.13
8.73
8.42
8.14
7.86
7.65
7.61
7.87
8.5
9.45
10.56
11.66
12.58
13.2
13.5
13.48
13.16
12.53
11.56
10.3
8.8
7.17
5.56
4.04
2.64
1.33
0.04
-1.23
-2.47
-3.59
-4.56
-5.42
-6.32
-7.45
-8.92
-10.69
-12.55
-14.24
-15.59
-16.63
-17.55
-18.69
-20.32
-22.63
-25.52
-28.68
-31.54
-33.36
-33.47
-31.43
-27.2
-21.22
-14.27
-7.28
-1.04
3.99
7.69
10.19
11.74
12.58
12.96
13.09
13.14
13.19
13.21
13.1
12.7
11.98
11.05
10.19
9.71
9.83
10.55
11.68
12.93
14.03
14.82
15.27
15.38
15.23
14.89
14.43
13.89
13.28
12.54
11.66
10.61
9.45
8.22
6.91
5.47
3.86
2.09
0.29
-1.33
-2.62
-3.55
-4.27
-5.02
-6.0
-7.31
-8.93
-10.71
-12.59
-14.51
-16.45
-18.44
-20.46
-22.51
-24.63
-26.96
-29.64
-32.68
-35.84
-38.49
-39.79
-38.95
-35.56
-29.77
-22.32
-14.24
-6.56
-0.01
5.1
8.78
11.25
12.79
13.67
14.11
14.29
14.41
14.57
14.83
15.12
15.34
15.32
15.0
14.45
13.9
13.61
13.81
14.53
15.6
16.73
17.63
18.12
18.14
17.79
17.17
16.37
15.41
14.26
12.88
11.25
9.46
7.61
5.93
4.54
3.53
2.83
2.26
1.55
0.49
-0.97
-2.72
-4.51
-6.12
-7.43
-8.54
-9.68
-11.1
-12.85
-14.83
-16.8
-18.52
-19.96
-21.2
-22.5
-24.09
-26.14
-28.72
-31.83
-35.35
-38.93
-41.98
-43.67
-43.16
-39.96
-34.11
-26.29
-17.61
-9.24
-2.08
3.39
7.18
9.55
10.84
11.39
11.51
11.47
11.49
11.68
11.99
12.27
12.34
12.12
11.71
11.32
11.19
11.46
12.16
13.22
14.54
16.04
17.6
19.05
20.18
20.81
20.82
20.2
19.05
17.45
15.45
13.1
10.47
7.75
5.22
3.14
1.65
0.68
-0.05
-0.92
-2.2
-4.03
-6.34
-8.94
-11.6
-14.08
-16.28
-18.19
-19.9
-21.59
-23.48
-25.83
-28.87
-32.68
-37.09
-41.55
-45.18
-46.97
-46.05
-42.01
-35.12
-26.23
-16.52
-7.19
0.87
7.19
11.67
14.5
16.03
16.68
16.93
17.16
17.64
18.43
19.4
20.31
20.92
21.1
20.91
20.56
20.34
20.56
21.4
22.86
24.72
26.62
28.17
29.07
29.21
28.65
27.6
26.25
24.73
23.06
21.22
19.19
17.02
14.81
12.66
10.64
8.76
6.94
5.08
3.13
1.07
-1.02
-3.07
-5.06
-7.03
-9.14
-11.53
-14.25
-17.23
-20.31
-23.24
-25.93
-28.43
-30.94
-33.78
-37.28
-41.72
-47.12
-53.15
-59.0
-63.46
-65.2
-63.2
-57.15
-47.66
-36.09
-24.05
-12.93
-3.58
3.77
9.28
13.23
15.85
17.38
18.12
18.48
18.86
19.56
20.61
21.81
22.88
23.57
23.86
23.96
24.19
24.93
26.35
28.43
30.85
33.16
34.89
35.78
35.82
35.27
34.43
33.48
32.38
30.92
28.92
26.41
23.65
21.01
18.79
17.0
15.44
13.81
11.86
9.58
7.15
4.8
2.71
0.88
-0.83
-2.64
-4.78
-7.36
-10.33
-13.57
-16.91
-20.18
-23.36
-26.47
-29.66
-33.08
-36.95
-41.55
-47.1
-53.56
-60.46
-66.72
-70.86
-71.37
-67.31
-58.69
-46.58
-32.83
-19.4
-7.85
1.06
7.36
11.58
14.39
16.38
17.93
19.28
20.59
21.93
23.32
24.68
25.81
