5.15
5.42
6.17
7.13
8.08
8.87
9.39
9.61
9.57
9.3
8.87
8.28
7.44
6.18
4.3
1.69
-1.62
-5.34
-9.09
-12.47
-15.26
-17.43
-19.22
-21.02
-23.29
-26.48
-30.79
-36.06
-41.59
-46.14
-48.25
-46.62
-40.57
-30.33
-16.96
-1.96
13.18
27.38
40.06
51.0
60.17
67.55
73.22
77.35
80.32
82.63
84.82
87.36
90.75
95.54
102.34
111.55
122.96
135.52
147.42
156.84
162.57
164.54
163.66
161.13
157.82
153.87
148.9
142.49
134.57
125.43
115.42
104.65
92.84
79.55
64.48
47.7
29.67
11.1
-7.24
-24.54
-40.09
-53.27
-63.79
-71.74
-77.66
-82.4
-86.93
-92.16
-98.89
-107.61
-118.42
-130.78
-143.34
-154.18
-161.18
-162.89
-159.1
-151.11
-141.26
-132.05
-125.14
-120.89
-118.56
-117.03
-115.6
-114.32
-113.78
-114.55
-116.57
-119.09
-120.94
-121.05
-118.93
-114.67
-108.71
-101.38
-92.69
-82.36
-70.05
-55.77
-40.05
-23.84
-8.21
6.04
18.59
29.58
39.34
48.12
55.86
62.22
66.62
68.5
67.57
64.12
59.07
53.73
49.34
46.37
44.26
41.52
36.37
27.58
15.1
0.17
-15.04
-28.11
-37.09
-40.9
-39.42
-33.45
-24.38
-13.95
-3.96
4.08
9.13
10.78
9.2
5.11
-0.4
-6.1
-10.91
-14.17
-15.81
-16.3
-16.41
-16.86
-18.07
-20.0
-22.26
-24.31
-25.7
-26.29
-26.24
-25.94
-25.74
-25.88
-26.43
-27.3
-28.49
-30.07
-32.32
-35.51
-39.82
-45.24
-51.49
-58.16
-64.78
-70.99
-76.54
-81.39
-85.72
-89.88
-94.27
-99.13
-104.18
-108.42
-110.18
-107.47
-98.61
-82.87
-60.71
-33.78
-4.31
25.43
53.61
79.05
101.16
119.75
134.86
146.75
155.74
162.21
166.51
168.87
169.37
168.07
165.0
160.35
154.42
147.62
140.39
133.07
125.77
118.4
110.65
102.21
92.93
82.92
72.56
62.37
52.83
44.23
36.69
30.24
24.86
20.53
17.18
14.5
11.95
8.76
3.97
-3.38
-14.12
-28.71
-46.86
-67.35
-87.92
-105.62
-117.62
-121.95
-118.2
-107.54
-92.28
-75.07
-58.21
-43.23
-30.83
-21.19
-14.13
-9.31
-6.24
-4.34
-3.05
-1.92
-0.79
0.21
0.75
0.45
-0.88
-3.1
-5.66
-7.88
-9.08
-8.96
-7.76
-6.1
-4.82
-4.59
-5.68
-7.86
-10.64
-13.5
-16.18
-18.78
-21.66
-25.21
-29.62
-34.81
-40.39
-45.92
-50.96
-55.28
-58.91
-62.19
-65.8
-70.7
-77.75
-87.3
-98.6
-109.6
-117.26
-118.54
-111.36
-95.54
-72.82
-46.23
-19.06
6.12
27.84
45.64
59.62
70.04
77.21
81.53
83.65
84.4
84.53
84.45
84.1
83.01
80.66
76.8
71.67
66.0
60.71
56.54
53.81
52.31
51.45
50.52
48.93
46.34
42.67
38.08
32.9
27.5
22.22
17.26
12.57
7.88
2.79
-3.03
-9.67
-16.92
-24.36
-31.56
-38.23
-44.34
-50.08
-55.89
-62.39
-70.22
-79.76
-90.71
-101.74
-110.59
-114.58
-111.49
-100.47
-82.39
-59.56
-34.89
-11.01
10.41
28.63
43.55
55.25
63.79
69.28
72.01
72.58
71.69
69.98
67.75
64.99
61.5
57.14
52.09
46.89
42.29
39.03
37.53
37.64
38.76
39.99
40.45
39.58
37.32
33.99
30.08
26.06
22.11
18.12
13.77
8.7
2.71
-4.17
-11.66
-19.37
-26.94
-34.07
-40.68
-46.84
-52.85
-59.23
-66.6
-75.47
-85.75
-96.49
-105.72
-110.85
-109.5
-100.34
-83.67
-61.32
-36.12
-10.96
11.9
31.16
46.37
57.62
65.27
69.77
71.68
71.66
70.41
68.46
66.13
63.45
60.28
56.52
52.28
47.93
43.98
40.91
38.99
38.21
38.26
38.67
38.97
38.76
37.79
35.92
33.18
29.65
25.49
20.91
16.13
11.36
6.79
2.46
-1.68
-5.83
-10.31
-15.33
-21.02
-27.26
-33.75
-40.13
-46.09
-51.53
-56.54
-61.4
-66.55
-72.51
-79.74
-88.46
-98.23
-107.8
-115.05
-117.47
-112.93
-100.48
-80.81
-56.13
-29.47
-3.78
18.81
37.25
51.38
61.55
68.27
72.09
73.7
73.84
73.28
72.6
71.99
71.29
70.11
68.07
65.08
61.4
57.61
54.45
52.55
52.24
53.42
55.58
57.93
59.67
60.3
59.66
58.01
55.8
53.46
51.25
49.23
47.47
46.06
45.23
45.15
45.79
46.68
46.96
45.56
41.57
34.53
24.66
12.69
-0.37
-13.55
-26.24
-38.28
-49.89
-61.55
-73.84
-87.39
-102.7
-119.94
-138.56
-157.0
-172.77
-182.87
-184.74
-177.19
-160.99
-138.67
-113.73
-89.46
-68.12
-50.6
-36.72
-25.81
-17.27
-10.67
-5.72
-2.02
0.94
3.66
6.39
8.99
11.09
12.32
12.67
12.68
13.23
15.33
19.63
26.17
34.36
43.14
51.42
58.39
63.76
67.65
70.5
72.73
74.57
75.98
76.7
76.35
74.59
71.28
66.53
60.73
54.38
48.02
41.92
36.03
30.02
23.48
16.12
8.01
-0.48
-8.88
-16.77
-24.0
-30.68
-37.17
-43.94
-51.47
-60.16
-70.03
-80.56
-90.49
-97.99
-101.02
-98.03
-88.43
-72.93
-53.29
-31.87
-10.95
7.67
22.93
34.46
42.33
46.94
48.84
48.69
47.16
44.85
42.22
39.48
36.66
33.76
30.85
28.17
26.13
25.08
25.2
26.33
28.06
29.82
31.06
31.47
30.88
29.31
26.82
23.48
19.38
14.65
9.51
4.23
-0.91
-5.75
-10.28
-14.71
-19.42
-24.75
-30.89
-37.77
-45.06
-52.39
-59.41
-65.98
-72.22
-78.42
-85.08
-92.79
-102.04
-112.92
-124.8
-136.1
-144.43
-147.12
-141.97
-127.99
-105.82
-77.57
-46.23
-14.91
13.88
38.5
58.25
73.21
83.86
90.99
95.46
98.14
99.73
100.7
101.18
101.0
99.85
97.44
93.71
88.92
83.55
78.07
72.8
67.79
62.86
57.82
52.55
47.2
42.1
37.63
34.1
31.56
29.85
28.64
27.65
26.72
25.93
25.38
25.11
24.9
24.29
22.7
19.65
15.04
9.18
2.69
-3.76
-9.73
-15.2
-20.6
-26.67
-34.24
-44.01
-56.22
-70.42
-85.26
-98.62
-107.97
-111.04
-106.51
-94.45
-76.35
-54.71
-32.33
-11.68
5.65
18.95
28.32
34.31
37.7
39.33
40.01
40.43
41.03
41.98
43.07
43.89
43.97
43.07
41.31
39.18
37.32
36.33
36.45
37.55
39.17
40.69
41.59
41.54
40.47
38.53
35.96
33.02
29.86
26.5
22.88
18.88
14.43
9.6
4.54
-0.53
-5.37
-9.85
-14.0
-17.96
-21.99
-26.32
-31.09
-36.27
-41.61
-46.73
-51.31
-55.19
-58.55
-61.88
-65.95
-71.52
-79.0
-88.07
-97.47
-105.14
-108.67
-106.02
-96.26
-79.93
-58.96
-36.02
-13.82
5.66
21.36
33.13
41.34
46.56
49.43
50.59
50.7
50.3
49.78
49.27
48.63
47.57
45.88
43.54
40.8
38.14
36.09
35.07
35.23
36.4
38.14
39.85
40.95
41.07
40.05
38.0
35.21
32.01
28.68
25.44
22.37
19.44
16.53
13.44
10.0
6.12
1.84
-2.57
-6.79
-10.47
-13.51
-16.06
-18.56
-21.48
-25.16
-29.65
-34.72
-39.98
-45.07
-49.81
-54.24
-58.6
-63.26
-68.7
-75.44
-83.83
-93.63
-103.79
-112.42
-117.11
-115.75
-107.27
-92.09
-71.91
-49.21
-26.42
-5.36
12.93
28.04
39.92
48.76
54.91
58.93
61.49
63.26
64.62
65.6
65.98
65.41
63.72
61.02
57.66
54.18
51.05
48.6
46.92
45.89
45.24
44.68
43.99
43.06
41.8
40.21
38.23
35.83
33.01
29.89
26.7
23.66
20.92
18.44
16.02
13.34
10.16
6.47
2.45
-1.56
-5.27
-8.57
-11.57
-14.56
-17.84
-21.63
-26.0
-30.88
-36.04
-41.27
-46.33
-51.1
-55.6
-60.09
-65.03
-71.01
-78.42
-87.02
-95.77
-102.82
-106.0
-103.49
-94.48
-79.5
-60.23
-39.05
-18.28
0.29
15.63
27.43
35.81
41.22
44.22
45.55
45.95
46.07
46.29
46.68
46.99
46.83
45.91
44.2
42.0
39.86
38.4
38.05
38.92
40.77
43.02
45.03
46.25
46.4
45.57
44.07
42.26
40.34
38.26
35.75
32.46
28.22
23.1
17.45
11.77
6.47
1.74
-2.52
-6.66
-11.07
-16.05
-21.67
-27.74
-33.93
-39.84
-45.2
-49.91
-54.13
-58.29
-62.99
-68.91
-76.42
-85.27
-94.26
-101.4
-104.32
-101.06
-90.83
-74.36
-53.71
-31.69
-10.91
6.75
20.44
30.21
36.63
40.47
42.47
43.3
43.55
43.7
44.02
44.52
44.91
44.69
43.4
40.82
37.14
32.97
29.14
26.4
25.13
25.19
26.01
26.85
27.08
26.42
24.96
23.17
21.61
20.84
21.28
23.19
26.58
31.26
36.8
42.59
47.94
52.26
55.25
56.99
57.88
58.51
59.31
60.36
61.31
61.51
60.38
57.69
53.69
49.04
44.41
40.24
36.48
32.65
28.1
22.22
14.62
5.2
-5.77
-17.59
-29.07
-38.7
-44.92
-46.69
-43.92
-37.61
-29.58
-21.82
-15.92
-12.55
-11.56
-12.22
-13.58
-14.75
-15.0
-13.8
-10.75
-5.75
0.92
8.63
16.38
23.09
27.85
30.22
30.39
29.09
27.36
26.15
26.0
26.83
28.09
29.06
29.19
28.35
26.78
24.9
23.03
21.23
19.42
17.47
15.33
13.05
10.69
8.11
5.07
1.22
-3.65
-9.55
-16.23
-23.39
-30.74
-38.16
-45.62
-53.16
-60.76
-68.36
-75.79
-82.81
-89.03
-94.0
-97.32
-98.81
-98.7
-97.66
-96.65
-96.72
-98.72
-102.98
-109.16
-116.1
-121.94
-124.46
-121.69
-112.56
-97.3
-77.39
-55.06
-32.5
-11.23
8.14
25.68
41.67
56.24
69.23
80.43
89.81
97.69
104.54
110.7
116.14
120.37
122.73
122.86
120.96
117.82
114.59
112.16
110.85
110.32
109.84
108.67
106.42
103.05
98.59
92.94
85.76
76.62
65.31
52.06
37.57
22.77
8.51
-4.67
-16.62
-27.37
-36.95
-45.18
-51.74
-56.27
-58.68
-59.25
-58.73
-58.09
-58.27
-59.82
-62.75
-66.58
-70.54
-73.94
-76.37
-77.96
-79.2
-80.79
-83.45
-87.66
-93.59
-100.97
-109.02
-116.45
-121.7
-123.26
-120.15
-112.4
-101.02
-87.8
-74.79
-63.63
-55.22
-49.68
-46.64
-45.52
-45.83
-47.14
-49.05
-51.13
-52.96
-54.32
-55.31
-56.34
-57.96
-60.61
-64.32
-68.62
-72.56
-75.0
-74.91
-71.67
-65.27
-56.28
-45.59
-34.14
-22.63
-11.26
0.17
12.03
24.52
37.44
50.21
62.1
72.61
81.73
89.9
97.66
105.34
112.72
119.2
124.0
126.59
126.86
125.02
121.4
116.17
109.4
101.11
91.6
81.35
70.97
60.8
50.8
40.59
29.86
18.79
8.25
-0.29
-5.38
-6.13
-2.63
3.97
11.93
19.49
25.36
28.97
30.36
29.94
28.21
25.6
22.5
19.19
15.93
12.91
10.19
7.67
5.14
2.42
-0.53
-3.53
-6.2
-8.09
-8.87
-8.43
-6.99
-5.01
-3.0
-1.41
-0.46
-0.18
-0.41
-1.08
-2.15
-3.73
-5.86
-8.44
-11.16
-13.59
-15.39
-16.46
-17.07
-17.63
-18.56
-20.12
-22.23
-24.67
-27.14
-29.41
-31.38
-33.07
-34.59
-36.23
-38.45
-41.74
-46.49
-52.58
-59.17
-64.77
-67.58
-66.11
-59.7
-48.87
-35.11
-20.45
-6.79
4.52
12.87
18.29
21.2
22.17
21.8
20.64
19.15
17.65
16.29
14.99
13.6
11.93
9.91
7.69
5.59
4.01
3.3
3.69
5.19
7.61
10.64
13.97
17.34
20.6
23.71
26.59
29.14
31.2
32.63
33.44
33.74
33.76
33.61
33.3
32.6
31.17
28.75
25.26
20.87
15.92
10.81
5.84
1.18
-3.19
-7.38
-11.63
-16.28
-21.67
-27.94
-34.84
-41.5
-46.58
-48.61
-46.48
-39.97
-29.88
-17.75
-5.34
5.97
15.43
22.92
28.61
32.65
35.11
36.03
35.64
34.4
32.9
31.61
30.68
29.9
28.89
27.31
25.1
22.46
19.82
17.61
16.12
15.39
15.23
15.21
14.81
13.55
11.14
7.56
3.09
-1.86
-6.91
-11.81
-16.5
-21.0
-25.24
-29.02
-32.07
-34.17
-35.29
-35.64
-35.62
-35.75
-36.5
-38.21
-41.1
-45.21
-50.31
-55.85
-60.87
-64.1
-64.2
-60.17
-51.7
-39.41
-24.73
-9.55
4.35
15.74
24.11
29.57
32.56
33.52
32.78
30.6
27.25
23.1
18.62
14.19
10.05
6.21
2.61
-0.83
-4.05
-6.88
-9.1
-10.51
-11.09
-10.97
-10.38
-9.63
-8.99
-8.62
-8.62
-8.99
-9.67
-10.57
-11.56
-12.56
-13.53
-14.54
-15.73
-17.26
-19.24
-21.63
-24.32
-27.07
-29.68
-31.99
-33.99
-35.76
-37.58
-39.84
-42.98
-47.31
-52.75
-58.56
-63.41
-65.68
-63.94
-57.54
-46.89
-33.35
-18.8
-5.04
6.72
15.95
22.74
27.53
30.78
32.95
34.41
35.5
36.54
37.69
38.91
39.95
40.49
40.24
39.14
37.37
35.35
33.61
32.61
32.5
33.14
34.1
34.84
34.93
34.24
32.91
31.21
29.39
27.5
25.39
22.91
19.96
16.69
13.4
10.41
7.9
5.84
3.99
2.01
-0.35
-3.24
-6.62
-10.34
-14.21
-18.03
-21.59
-24.81
-27.7
-30.46
-33.47
-37.24
-42.17
-48.26
-54.81
-60.46
-63.49
-62.46
-56.68
-46.62
-33.66
-19.73
-6.6
4.48
12.99
18.97
22.83
25.13
26.47
27.38
28.33
29.55
31.04
32.55
33.75
34.31
34.06
33.01
31.36
29.4
27.47
25.94
25.09
25.01
25.58
26.45
27.14
27.24
26.56
25.14
23.21
21.04
18.87
16.75
14.69
12.59
10.34
7.86
5.1
2.07
-1.12
-4.22
-6.97
-9.2
-10.91
-12.32
-13.82
-15.74
-18.27
-21.37
-24.78
-28.17
-31.27
-33.97
-36.33
-38.55
-40.96
-43.92
-47.78
-52.67
-58.35
-64.0
-68.3
-69.69
-66.93
-59.54
-48.15
-34.35
-20.13
-7.33
2.92
10.34
15.33
18.58
20.81
22.53
24.06
25.63
27.4
29.43
31.67
33.89
35.73
36.9
37.28
37.06
36.72
36.8
37.68
39.39
41.56
43.65
45.17
45.88
45.85
45.37
44.74
44.16
43.7
43.33
43.01
42.72
42.45
42.12
41.63
40.86
39.78
38.49
37.18
36.09
35.4
35.19
35.28
35.34
34.94
33.69
31.44
28.31
24.65
20.88
17.28
13.86
10.35
6.35
1.45
-4.59
-11.78
-19.79
-28.02
-35.57
-41.41
-44.6
-44.56
-41.3
-35.43
-28.07
-20.51
-13.84
-8.78
-5.57
-4.04
-3.74
-4.13
-4.66
-4.92
-4.71
-4.08
-3.24
-2.43
-1.81
-1.43
-1.21
-1.02
-0.81
-0.53
-0.17
0.38
1.22
2.46
4.08
5.93
7.72
9.18
10.11
10.52
10.5
10.23
9.88
9.49
9.09
8.61
7.98
7.15
6.12
4.97
3.78
2.64
1.62
0.75
0.02
-0.62
-1.27
-2.08
-3.23
-4.8
-6.77
-8.94
-11.06
-12.9
-14.4
-15.68
-17.02
-18.75
-21.12
-24.2
-27.86
-31.66
-34.96
-36.93
-36.81
-34.13
-28.98
-21.99
-14.19
-6.65
-0.17
4.87
8.49
10.91
12.37
13.05
13.09
12.64
11.89
11.03
10.18
9.39
8.64
7.92
7.24
6.67
6.28
6.06
6.02
6.14
6.43
6.93
7.57
8.28
8.88
9.23
9.24
8.98
8.53
8.01
7.5
7.02
6.55
6.1
5.67
5.24
4.76
4.13
3.21
1.88
0.15
-1.86
-3.9
-5.68
-7.01
-7.88
-8.53
-9.33
-10.75
-13.14
-16.65
-21.08
-25.93
-30.38
-33.47
-34.37
-32.58
-28.15
-21.67
-14.14
-6.63
-0.01
5.19
8.86
11.13
12.3
12.75
12.9
13.13
13.74
14.87
16.47
18.29
20.02
21.45
22.48
23.18
23.71
24.24
24.9
25.78
26.92
28.33
29.95
31.65
33.24
34.53
35.43
35.94
36.22
36.45
36.78
37.23
37.7
38.03
38.06
37.74
37.07
36.12
34.95
33.6
32.12
30.54
28.84
26.96
24.73
22.02
18.78
15.13
11.36
7.83
4.76
2.17
-0.15
-2.56
-5.4
-8.93
-13.2
-18.04
-23.06
-27.67
-31.14
-32.85
-32.42
-29.9
-25.79
-20.9
-16.13
-12.16
-9.39
-7.85
-7.39
-7.73
-8.63
-9.85
-11.22
-12.58
-13.81
-14.86
-15.77
-16.72
-17.87
-19.34
-21.06
-22.77
-24.14
-24.88
-24.91
-24.32
-23.35
-22.31
-21.43
-20.88
-20.66
-20.7
-20.9
-21.1
-21.2
-21.16
-20.99
-20.8
-20.64
-20.56
-20.5
-20.4
-20.2
-19.86
-19.4
-18.83
-18.19
-17.54
-16.94
-16.52
-16.41
-16.68
-17.34
-18.28
-19.29
-20.18
-20.83
-21.27
-21.67
-22.32
-23.47
-25.33
-27.83
-30.67
-33.22
-34.73
-34.46
-31.99
-27.39
-21.18
-14.2
-7.3
-1.13
3.98
8.0
10.98
13.04
14.27
14.84
14.97
14.96
15.02
15.2
15.41
15.46
15.23
14.76
14.25
13.97
14.19
15.01
16.4
18.2
20.11
21.88
23.28
24.18
24.58
24.56
24.27
23.84
23.36
22.82
22.16
21.28
20.13
18.79
17.36
15.99
14.73
13.54
12.33
10.98
9.48
7.89
6.33
4.83
3.32
1.62
-0.42
-2.82
-5.38
-7.83
-9.94
-11.66
-13.11
-14.54
-16.21
-18.29
-20.9
-24.07
-27.72
-31.54
-34.91
-36.98
-36.86
-34.01
-28.46
-20.88
-12.42
-4.3
2.56
7.73
11.27
13.58
15.09
16.14
16.92
17.48
17.87
18.12
18.31
18.47
18.52
18.31
17.66
16.55
15.16
13.87
13.13
13.2
14.07
15.39
16.68
17.5
17.67
17.24
16.47
15.63
14.78
13.86
12.72
11.25
9.48
7.54
5.65
3.92
2.39
1.0
-0.34
-1.74
-3.24
-4.85
-6.52
-8.18
-9.79
-11.34
-12.91
-14.62
-16.57
-18.81
-21.26
-23.76
-26.1
-28.11
-29.75
-31.04
-32.13
-33.2
-34.47
-36.1
-38.08
-40.15
-41.75
-42.12
-40.55
-36.6
-30.4
-22.56
-14.0
-5.7
1.6
7.55
12.08
15.35
17.63
19.21
20.4
21.46
22.53
23.63
24.58
25.18
25.27
24.87
24.17
23.43
22.9
22.69
22.83
23.28
24.02
25.04
26.29
27.69
29.06
30.23
31.01
31.29
30.99
30.15
28.85
27.25
25.55
23.93
22.48
21.1
19.55
17.58
15.09
12.15
9.0
5.88
2.94
0.2
-2.4
-4.94
-7.47
-9.96
-12.4
-14.81
-17.22
-19.68
-22.15
-24.58
-26.88
-29.03
-31.1
-33.23
-35.6
-38.28
-41.09
-43.53
-44.89
-44.47
-41.79
-36.84
-30.07
-22.27
-14.22
-6.53
0.5
6.82
12.44
17.29
21.22
24.1
25.94
26.98
27.63
28.31
29.2
30.25
31.14
31.55
31.28
30.41
29.29
28.3
27.79
27.89
28.52
29.44
30.38
31.13
31.58
31.66
31.35
30.59
29.36
27.75
25.95
24.25
22.92
22.03
21.48
20.98
20.3
19.35
18.23
17.21
16.47
16.04
15.78
15.51
15.03
14.31
13.37
12.25
11.0
9.59
8.04
6.39
4.72
2.98
1.02
-1.47
-4.84
-9.27
-14.58
-20.23
-25.41
-29.34
-31.54
-32.03
-31.2
-29.66
-27.99
-26.56
-25.47
-24.67
-24.11
-23.73
-23.53
-23.48
-23.52
-23.52
-23.38
-23.01
-22.39
-21.48
-20.18
-18.31
-15.59
-11.7
-6.46
0.14
7.85
16.18
24.5
32.19
38.83
44.2
48.4
51.72
54.47
56.83
58.77
60.08
60.46
59.71
57.86
55.19
52.13
49.15
46.59
44.47
42.6
40.62
38.09
34.69
30.28
24.95
18.97
12.74
6.7
1.25
-3.41
-7.32
-10.82
-14.38
-18.42
-23.01
-27.75
-31.82
-34.24
-34.26
-31.68
-26.89
-20.67
-13.87
-7.14
-0.89
4.68
9.35
12.84
14.87
15.36
14.46
12.53
9.98
7.05
3.74
-0.13
-4.74
-10.11
-16.03
-22.14
-28.01
-33.25
-37.62
-41.03
-43.52
-45.26
-46.5
-47.5
-48.48
-49.49
-50.46
-51.22
-51.63
-51.65
-51.35
-50.88
-50.33
-49.76
-49.17
-48.48
-47.68
-46.77
-45.8
-44.85
-44.04
-43.42
-43.01
-42.77
-42.6
-42.44
-42.29
-42.2
-42.36
-42.96
-44.17
-46.05
-48.48
-51.1
-53.31
-54.3
-53.31
-49.83
-43.87
-35.96
-27.04
-18.16
-10.19
-3.62
1.41
5.03
7.47
9.05
10.09
10.94
11.84
12.91
14.05
15.03
15.61
15.67
15.22
14.39
13.33
12.22
11.16
10.3
9.8
9.75
10.13
10.7
11.15
11.14
10.53
9.37
7.89
6.32
4.8
3.35
1.91
0.42
-1.11
-2.66
-4.2
-5.72
-7.23
-8.72
-10.14
-11.47
-12.73
-14.04
-15.61
-17.63
-20.24
-23.32
-26.6
-29.52
-31.43
-31.66
-29.74
-25.6
-19.62
-12.61
-5.52
0.75
5.71
9.21
11.51
12.93
13.78
14.24
14.33
14.09
13.6
13.01
12.51
12.19
12.07
12.05
12.04
11.99
11.96
12.08
12.39
12.86
13.3
13.46
13.11
12.15
10.6
8.62
6.43
4.2
2.03
-0.09
-2.24
-4.52
-6.98
-9.59
-12.21
-14.64
-16.73
-18.42
-19.9
-21.53
-23.74
-26.88
-30.98
-35.57
-39.75
-42.33
-42.26
-38.98
-32.7
-24.32
-15.15
-6.53
0.67
6.13
10.18
13.52
17.03
21.56
27.68
35.64
45.25
55.91
66.72
76.68
84.98
91.14
95.16
97.39
98.35
98.49
98.08
97.13
95.5
93.02
89.57
85.14
79.79
73.5
66.19
57.75
48.2
37.7
26.65
15.58
4.96
-4.93
-14.04
-22.52
-30.57
-38.32
-45.76
-52.77
-59.28
-65.33
-71.11
-76.99
-83.32
-90.33
-97.98
-105.9
-113.48
-119.97
-124.72
-127.42
-128.14
-127.36
-125.67
-123.56
-121.03
-117.51
-111.99
-103.4
-91.11
-75.29
-57.0
-37.91
-19.84
-4.18
8.39
18.03
25.46
31.66
37.49
43.52
50.02
57.11
64.88
73.47
82.96
93.23
103.82
114.0
123.04
130.49
136.44
141.39
146.04
150.78
155.62
160.15
163.74
165.83
165.96
163.8
158.97
151.17
140.38
127.14
112.55
97.95
84.33
71.8
59.44
45.84
29.95
11.82
-7.25
-25.12
-39.79
-50.05
-55.71
-57.3
-55.56
-51.25
-45.24
-38.74
-33.23
-30.06
-29.74
-31.63
-34.13
-35.5
-34.69
-31.86
-28.11
-24.78
-22.71
-21.96
-21.95
-22.05
-21.98
-21.92
-22.19
-22.9
-23.69
-23.88
-22.68
-19.54
-14.34
-7.31
1.16
10.7
21.09
32.16
43.69
55.28
66.32
76.05
83.64
88.26
89.24
86.19
79.13
68.5
55.11
39.88
23.68
7.16
-9.11
-24.54
-38.44
-50.06
-58.83
-64.6
-67.75
-69.14
-69.78
-70.57
-71.99
-74.0
-76.05
-77.33
-77.05
-74.82
-70.98
-66.64
-63.35
-62.64
-65.32
-71.11
-78.71
-86.2
-91.82
-94.5
-94.15
-91.5
-87.55
-83.16
-78.68
-74.09
-69.22
-64.12
-59.18
-55.0
-52.07
-50.42
-49.63
-49.02
-48.0
-46.4
-44.54
-43.0
-42.28
-42.53
-43.41
-44.29
-44.41
-43.13
-40.09
-35.23
-28.8
-21.27
-13.27
-5.32
2.35
9.9
17.85
26.89
37.54
50.01
64.09
79.26
94.89
110.32
124.99
138.42
150.31
160.5
168.95
175.54
179.88
181.11
177.98
169.2
153.97
132.41
105.87
76.83
48.36
23.47
4.25
-8.54
-15.61
-18.81
-20.42
-22.51
-26.42
-32.64
-40.89
-50.53
-60.82
-71.19
-81.18
-90.41
-98.46
-104.78
-108.83
-110.17
-108.71
-104.71
-98.85
-91.96
-84.81
-77.85
-71.18
-64.7
-58.32
-52.12
-46.31
-41.14
-36.68
-32.75
-29.04
-25.22
-21.15
-16.97
-13.02
-9.67
-7.11
-5.3
-3.94
-2.62
-1.05
0.93
3.2
5.52
7.66
9.46
10.87
11.93
12.69
13.15
13.3
13.17
12.82
12.35
11.82
11.24
10.57
9.74
8.78
7.72
6.64
5.52
4.32
2.99
1.58
0.25
-0.76
-1.32
-1.49
-1.57
-2.02
-3.15
-5.02
-7.37
-9.79
-11.88
-13.47
-14.64
-15.65
-16.75
-18.15
-19.95
-22.12
-24.54
-26.9
-28.76
-29.56
-28.78
-26.14
-21.75
-16.13
-10.06
-4.33
0.45
3.94
6.12
7.2
7.51
7.46
7.4
7.59
8.13
8.98
10.02
11.11
12.19
13.24
14.29
15.44
16.79
18.44
20.49
22.94
25.67
28.52
31.3
34.0
36.67
39.46
42.38
45.31
48.01
50.32
52.29
54.28
56.83
60.45
65.44
71.77
79.08
86.85
94.45
101.3
106.93
111.02
113.43
114.19
113.49
111.69
109.13
106.05
102.42
98.0
92.44
85.49
77.19
67.8
57.66
46.95
35.54
23.23
10.04
-3.44
-15.96
-25.95
-32.17
-34.16
-32.56
-28.84
-24.68
-21.52
-20.08
-20.38
-22.03
-24.56
-27.64
-31.15
-34.99
-38.96
-42.64
-45.56
-47.36
-48.0
-47.8
-47.28
-46.89
-46.79
-46.74
-46.21
-44.64
-41.75
-37.68
-33.02
-28.57
-25.03
-22.79
-21.81
-21.68
-21.88
-21.95
-21.66
-21.0
-20.24
-19.71
-19.79
-20.77
-22.81
-25.88
-29.7
-33.86
-37.85
-41.2
-43.62
-45.06
-45.65
-45.65
-45.38
-45.04
-44.78
-44.6
-44.41
-44.09
-43.63
-43.09
-42.72
-42.81
-43.51
-44.7
-45.86
-46.23
-45.03
-41.78
-36.48
-29.59
-21.87
-14.14
-7.0
-0.85
4.15
7.96
10.59
12.16
12.9
13.19
13.46
14.02
15.01
16.29
17.56
18.45
18.72
18.27
17.23
15.82
14.32
12.99
12.03
11.54
11.53
11.89
12.45
12.94
13.15
12.95
12.3
11.22
9.79
8.1
6.22
4.28
2.37
0.54
-1.18
-2.87
-4.63
-6.57
-8.7
-10.98
-13.34
-15.67
-17.99
-20.39
-23.01
-26.01
-29.44
-33.22
-37.14
-40.85
-44.01
-46.37
-47.87
-48.66
-49.15
-49.85
-51.28
-53.8
-57.43
-61.74
-65.83
-68.61
-69.03
-66.5
-61.02
-53.27
-44.28
-35.19
-26.93
-20.03
-14.66
-10.74
-7.97
-5.94
-4.17
-2.2
0.24
3.11
6.09
8.67
10.45
11.25
11.27
10.9
10.56
10.53
10.87
11.53
12.39
13.35
14.32
15.16
15.75
15.93
15.61
14.85
13.77
12.55
11.35
10.27
9.38
8.65
8.05
7.48
6.9
6.3
5.76
5.4
5.33
5.61
6.2
6.95
7.69
8.21
8.29
7.76
6.53
4.62
2.22
-0.37
-2.93
-5.34
-7.79
-10.64
-14.33
-19.18
-25.19
-31.9
-38.4
-43.48
-45.86
-44.7
-39.76
-31.66
-21.64
-11.2
-1.59
6.49
12.92
17.98
21.97
25.03
27.13
28.27
28.6
28.56
28.67
29.43
31.1
33.68
36.92
40.36
43.38
45.24
45.26
43.13
39.19
34.47
30.45
28.48
29.2
32.28
36.51
40.37
42.62
42.7
40.72
37.2
32.7
27.59
22.14
16.7
11.88
8.52
7.41
9.02
13.14
18.99
25.47
31.55
36.54
40.11
42.15
42.62
41.5
38.95
35.38
31.44
27.81
24.8
22.28
19.67
16.33
11.97
6.87
1.9
-1.8
-3.26
-1.99
1.86
7.6
14.2
20.6
25.94
29.77
32.01
32.88
32.75
32.0
30.93
29.74
28.58
27.54
26.67
25.9
25.09
24.04
22.57
20.58
18.18
15.66
13.42
11.77
10.81
10.39
10.18
9.85
9.22
8.38
7.56
6.99
6.74
6.65
6.42
5.74
4.49
2.79
0.99
-0.58
-1.72
-2.54
-3.33
-4.39
-5.87
-7.68
-9.54
-11.23
-12.66
-13.93
-15.23
-16.65
-18.15
-19.62
-21.0
-22.47
-24.34
-26.95
-30.31
-34.02
-37.27
-39.1
-38.72
-35.85
-30.73
-24.06
-16.76
-9.72
-3.61
1.2
4.63
6.84
8.11
8.78
9.12
9.36
9.64
9.98
10.33
10.55
10.47
9.99
9.13
8.06
7.02
6.22
5.76
5.62
5.67
5.81
6.0
6.24
6.5
6.7
6.68
6.26
5.39
4.1
2.58
1.04
-0.36
-1.58
-2.67
-3.75
-4.98
-6.41
-8.01
-9.67
-11.24
-12.63
-13.84
-15.0
-16.27
-17.83
-19.79
-22.18
-24.93
-27.82
-30.51
-32.47
-33.09
-31.85
-28.55
-23.45
-17.22
-10.77
-4.97
-0.38
2.83
4.84
5.99
6.68
7.2
7.79
8.54
9.5
10.58
11.6
12.33
12.55
12.16
11.22
9.95
8.66
7.67
7.17
7.22
7.71
8.4
8.98
9.21
8.92
8.11
6.92
5.58
4.31
3.25
2.36
1.48
0.4
-1.0
-2.66
-4.35
-5.8
-6.81
-7.42
-7.83
-8.36
-9.28
-10.67
-12.42
-14.3
-16.04
-17.43
-18.4
-18.98
-19.36
-19.83
-20.75
-22.42
-24.93
-27.99
-30.93
-32.84
-32.86
-30.5
-25.84
-19.54
-12.62
-6.12
-0.8
3.03
5.48
6.92
7.79
8.41
9.0
9.65
10.43
11.37
12.45
13.55
14.43
14.84
14.59
13.71
12.46
11.22
10.39
10.19
10.58
11.31
12.07
12.59
12.75
12.59
12.23
11.77
11.26
10.63
9.77
8.63
7.2
5.68
4.27
3.18
2.46
2.01
1.62
1.03
0.08
-1.24
-2.79
-4.32
-5.58
-6.43
-6.89
-7.13
-7.4
-7.94
-8.88
-10.24
-11.94
-13.82
-15.74
-17.54
-19.12
-20.45
-21.63
-22.87
-24.45
-26.58
-29.13
-31.54
-32.96
-32.5
-29.63
-24.44
-17.69
-10.52
-4.03
1.04
4.47
6.52
7.63
8.29
8.76
9.24
9.78
10.42
11.19
12.02
12.81
13.36
13.44
12.89
11.75
10.28
8.88
7.99
7.89
8.6
9.82
11.12
12.07
12.44
12.22
11.58
10.73
9.84
8.96
8.09
7.19
6.22
5.23
4.24
3.33
2.54
1.89
1.37
0.91
0.42
-0.22
-1.07
-2.16
-3.42
-4.76
-6.08
-7.25
-8.21
-8.93
-9.47
-9.99
-10.72
-11.84
-13.44
-15.43
-17.58
-19.56
-21.19
-22.49
-23.77
-25.43
-27.79
-30.79
-33.97
-36.46
-37.41
-36.17
-32.64
-27.23
-20.72
-13.99
-7.77
-2.58
1.33
3.93
5.31
5.74
5.58
5.29
5.3
5.89
7.1
8.7
10.34
11.61
12.26
12.25
11.74
11.05
10.51
10.38
10.71
11.41
12.26
13.0
13.38
13.26
12.64
11.65
10.5
9.45
8.69
8.25
8.08
7.99
7.76
7.29
6.52
5.5
4.23
2.7
0.91
-1.12
-3.19
-5.1
-6.66
-7.9
-9.04
-10.4
-12.28
-14.71
-17.55
-20.56
-23.49
-26.24
-28.74
-30.94
-32.74
-34.11
-35.17
-36.31
-38.01
-40.6
-43.95
-47.39
-49.79
-50.0
-47.3
-41.69
-33.9
-25.13
-16.59
-9.14
-3.13
1.48
4.97
7.56
9.41
10.64
11.43
12.13
13.1
14.61
16.64
18.91
20.92
22.21
22.57
22.13
21.31
20.62
20.48
21.01
22.07
23.35
24.52
25.42
26.05
26.48
26.79
26.93
26.76
26.14
24.98
23.35
21.45
19.5
17.72
16.21
14.95
13.85
12.8
11.69
10.47
9.13
7.72
6.31
4.98
3.74
2.53
1.26
-0.18
-1.83
-3.73
-5.85
-8.14
-10.58
-13.1
-15.65
-18.14
-20.48
-22.7
-24.92
-27.48
-30.72
-34.82
-39.56
-44.24
-47.78
-49.06
-47.34
-42.54
-35.36
-26.93
-18.51
-11.03
-4.93
-0.18
3.49
6.43
8.86
10.92
12.7
14.25
15.65
16.92
18.05
19.0
19.67
20.03
20.12
20.04
19.96
20.01
20.28
20.79
21.48
22.19
22.79
23.13
23.16
22.89
22.44
21.91
21.35
20.73
19.99
19.09
18.06
16.98
15.94
14.97
14.0
12.9
11.62
10.19
8.73
7.37
6.12
4.98
3.83
2.66
1.49
0.35
-0.81
-2.1
-3.72
-5.78
-8.29
-11.1
-13.99
-16.78
-19.39
-21.91
-24.55
-27.58
-31.17
-35.25
-39.39
-42.81
-44.62
-44.07
-40.9
-35.35
-28.17
-20.31
-12.65
-5.75
0.07
4.78
8.4
11.04
12.84
14.0
14.8
15.48
16.2
16.98
17.68
18.1
18.04
17.48
16.59
15.7
15.16
15.16
15.71
16.61
17.61
18.52
19.2
19.64
19.78
19.59
19.01
18.1
16.96
15.77
14.64
13.57
12.41
11.03
9.37
7.51
5.65
3.99
2.55
1.24
-0.18
-1.96
-4.2
-6.8
-9.53
-12.1
-14.33
-16.27
-18.09
-20.12
-22.61
-25.79
-29.72
-34.29
-39.18
-43.69
-46.95
-47.98
-46.06
-41.06
-33.54
-24.62
-15.61
-7.56
-1.04
3.89
7.52
10.2
12.25
13.93
15.49
17.19
19.23
21.6
24.07
26.2
27.51
27.76
27.05
25.79
24.55
23.84
23.89
24.59
25.66
26.72
27.51
27.92
27.95
27.69
27.17
26.43
25.48
24.36
23.15
21.85
20.43
18.77
16.76
14.36
11.67
8.88
6.27
4.02
2.18
0.66
-0.78
-2.38
-4.34
-6.71
-9.43
-12.33
-15.23
-17.95
-20.38
-22.54
-24.57
-26.76
-29.47
-32.98
-37.32
-42.06
-46.41
-49.25
-49.62
-46.93
-41.22
-33.22
-24.05
-14.94
-6.91
-0.55
4.03
7.08
9.14
10.77
12.48
14.53
16.94
19.54
22.04
24.18
25.81
26.9
27.51
27.73
27.7
27.53
27.34
27.32
27.65
28.44
29.64
31.04
32.26
32.89
32.66
31.5
29.56
27.18
24.7
22.39
20.33
18.48
16.65
14.72
12.59
10.31
8.03
