-11.07
-12.69
-14.33
-15.61
-16.14
-15.66
-14.17
-11.85
-9.03
-6.06
-3.23
-0.79
1.13
2.47
3.24
3.58
3.64
3.59
3.58
3.69
3.91
4.16
4.36
4.46
4.5
4.53
4.66
4.93
5.29
5.63
5.87
5.95
5.92
5.88
5.89
5.95
5.95
5.76
5.29
4.58
3.77
3.04
2.52
2.25
2.15
2.1
1.97
1.71
1.25
0.54
-0.46
-1.78
-3.39
-5.16
-6.93
-8.5
-9.72
-10.49
-10.85
-10.9
-10.77
-10.64
-10.61
-10.75
-11.01
-11.33
-11.68
-12.11
-12.8
-13.87
-15.35
-16.97
-18.3
-18.85
-18.27
-16.48
-13.69
-10.27
-6.61
-3.05
0.2
2.98
5.13
6.54
7.16
7.16
6.85
6.65
6.87
7.6
8.65
9.63
10.21
10.2
9.7
8.96
8.31
7.92
7.84
7.97
8.16
8.36
8.57
8.83
9.15
9.49
9.76
9.94
10.01
10.05
10.09
10.13
10.07
9.82
9.33
8.66
7.93
7.25
6.65
6.05
5.27
4.2
2.86
1.39
-0.0
-1.14
-1.94
-2.47
-2.86
-3.24
-3.69
-4.21
-4.79
-5.43
-6.13
-6.95
-7.89
-8.94
-10.06
-11.22
-12.43
-13.62
-14.61
-15.05
-14.59
-12.98
-10.26
-6.8
-3.18
0.06
2.64
4.52
5.9
6.96
7.77
8.25
8.32
7.95
7.25
6.41
5.6
4.93
4.43
4.11
4.0
4.16
4.61
5.29
6.08
6.78
7.25
7.37
7.15
6.66
6.05
5.48
5.07
4.91
4.87
4.79
4.45
3.73
2.63
1.32
0.02
-1.1
-1.94
-2.53
-2.94
-3.31
-3.75
-4.34
-5.13
-6.14
-7.31
-8.55
-9.77
-10.91
-11.95
-12.91
-13.83
-14.85
-16.07
-17.61
-19.45
-21.37
-23.0
-23.85
-23.57
-22.02
-19.38
-16.05
-12.5
-9.09
-6.01
-3.34
-1.13
0.56
1.68
2.27
2.51
2.64
2.89
3.35
3.91
4.42
4.72
4.81
4.82
4.93
5.29
5.93
6.81
7.82
8.84
9.78
10.53
11.01
11.16
10.97
10.52
9.89
9.23
8.63
8.14
7.77
7.45
7.05
6.44
5.53
4.31
2.87
1.39
0.05
-1.01
-1.74
-2.16
-2.37
-2.49
-2.68
-3.04
-3.62
-4.4
-5.34
-6.35
-7.41
-8.52
-9.69
-10.92
-12.16
-13.39
-14.64
-15.99
-17.51
-19.13
-20.6
-21.52
-21.49
-20.3
-17.99
-14.84
-11.32
-7.88
-4.84
-2.38
-0.48
0.99
2.13
3.07
3.86
4.59
5.31
6.12
7.05
8.05
8.95
9.56
9.79
9.72
9.63
9.84
10.61
11.91
13.49
15.01
16.11
16.66
16.7
16.43
16.04
15.63
15.2
14.65
13.87
12.82
11.58
10.28
9.09
8.08
7.26
6.58
5.96
5.34
4.66
3.85
2.87
1.77
0.59
-0.54
-1.6
-2.58
-3.56
-4.6
-5.7
-6.79
-7.73
-8.43
-8.93
-9.37
-9.97
-10.93
-12.31
-14.09
-16.07
-18.04
-19.72
-20.82
-21.09
-20.38
-18.65
-16.02
-12.77
-9.21
-5.69
-2.46
0.28
2.46
4.08
5.21
6.03
6.71
7.37
8.06
8.68
9.12
9.33
9.34
9.27
9.3
9.5
9.9
10.44
11.07
11.77
12.52
13.27
13.91
14.31
14.32
13.89
13.07
12.0
10.85
9.81
8.99
8.41
7.99
7.56
6.96
6.1
4.98
3.75
2.6
1.68
1.0
0.45
-0.17
-1.02
-2.19
-3.62
-5.16
-6.64
-7.92
-8.93
-9.72
-10.39
-11.11
-12.04
-13.28
-14.84
-16.56
-18.15
-19.23
-19.45
-18.57
-16.57
-13.6
-10.03
-6.27
-2.73
0.32
2.74
4.55
5.89
6.89
7.71
8.47
9.21
9.94
10.63
11.22
11.66
11.96
12.18
12.41
12.74
13.14
13.54
13.82
13.94
13.9
13.74
13.49
13.09
12.45
11.55
10.46
9.33
8.35
7.59
6.98
6.35
5.54
4.51
3.3
2.06
0.88
-0.2
-1.16
-1.99
-2.64
-3.09
-3.36
-3.57
-3.87
-4.38
-5.16
-6.19
-7.41
-8.75
-10.15
-11.51
-12.71
-13.64
-14.26
-14.65
-15.04
-15.72
-16.83
-18.37
-20.09
-21.61
-22.53
-22.53
-21.45
-19.31
-16.28
-12.7
-8.96
-5.51
-2.64
-0.52
0.88
1.72
2.19
2.47
2.65
2.77
2.89
3.06
3.35
3.8
4.38
5.02
5.63
6.16
6.62
7.08
7.58
8.14
8.68
9.1
9.31
9.29
9.1
8.85
8.68
8.62
8.66
8.68
8.55
8.2
7.67
7.12
6.73
6.59
6.65
6.75
6.65
6.17
5.29
4.12
2.85
1.67
0.67
-0.16
-0.9
-1.69
-2.61
-3.67
-4.82
-5.98
-7.12
-8.18
-9.2
-10.17
-11.09
-11.96
-12.82
-13.81
-15.13
-16.86
-18.93
-20.99
-22.55
-23.05
-22.18
-19.9
-16.51
-12.51
-8.45
-4.78
-1.76
0.54
2.15
3.25
4.0
4.6
5.2
5.86
6.6
7.37
8.06
8.54
8.67
8.42
7.85
7.14
6.54
6.25
6.41
7.0
7.89
8.85
9.67
10.22
10.42
10.29
9.88
9.29
8.63
8.01
7.49
7.08
6.77
6.49
6.21
5.86
5.41
4.81
4.03
3.1
2.1
1.14
0.29
-0.41
-1.07
-1.82
-2.73
-3.79
-4.87
-5.83
-6.59
-7.17
-7.67
-8.23
-8.94
-9.88
-11.12
-12.65
-14.36
-15.93
-16.96
-17.0
-15.84
-13.54
-10.48
-7.16
-4.05
-1.41
0.7
2.35
3.61
4.51
5.01
5.1
4.85
4.4
3.92
3.53
3.27
3.11
3.0
2.92
2.92
3.05
3.37
3.89
4.56
5.28
5.96
6.46
6.68
6.56
6.14
5.58
5.12
4.93
5.08
5.43
5.71
5.64
5.08
4.07
2.83
1.63
0.66
-0.07
-0.65
-1.26
-1.97
-2.76
-3.52
-4.2
-4.87
-5.67
-6.76
-8.16
-9.72
-11.15
-12.22
-12.89
-13.29
-13.68
-14.3
-15.3
-16.67
-18.35
-20.14
-21.76
-22.84
-22.97
-21.9
-19.62
-16.42
-12.8
-9.3
-6.31
-3.97
-2.21
-0.86
0.24
1.2
2.07
2.88
3.7
4.54
5.37
6.09
6.59
6.8
6.81
6.77
6.9
7.34
8.08
9.01
9.93
10.64
11.06
11.15
10.97
10.54
9.93
9.19
8.41
7.64
6.89
6.18
5.48
4.74
3.96
3.18
2.47
1.91
1.57
1.5
1.63
1.87
2.01
1.89
1.42
0.64
-0.28
-1.18
-1.96
-2.67
-3.42
-4.36
-5.55
-6.89
-8.16
-9.14
-9.74
-10.1
-10.53
-11.38
-12.86
-14.98
-17.48
-19.96
-21.92
-22.94
-22.75
-21.29
-18.71
-15.38
-11.72
-8.16
-5.02
-2.46
-0.51
0.88
1.81
2.39
2.77
3.12
3.57
4.21
5.02
5.91
6.76
7.49
8.08
8.53
8.94
9.39
9.97
10.73
11.65
12.66
13.61
14.3
14.59
14.42
13.85
13.03
12.11
11.23
10.45
9.76
9.12
8.5
7.91
7.36
6.84
6.33
5.78
5.12
4.35
3.5
2.66
1.92
1.3
0.8
0.37
-0.07
-0.57
-1.16
-1.85
-2.68
-3.64
-4.73
-5.87
-6.95
-7.91
-8.77
-9.69
-10.9
-12.59
-14.74
-17.12
-19.27
-20.68
-20.9
-19.76
-17.33
-13.94
-10.05
-6.12
-2.5
0.6
3.13
5.12
6.7
8.01
9.15
10.17
11.02
11.59
11.78
11.55
10.97
10.21
9.53
9.13
9.17
9.68
10.58
11.67
12.71
13.52
13.99
14.13
14.02
13.79
13.47
13.02
12.33
11.34
10.06
8.56
7.0
5.48
4.04
2.69
1.46
0.36
-0.55
-1.31
-1.97
-2.67
-3.5
-4.46
-5.49
-6.51
-7.46
-8.36
-9.27
-10.26
-11.36
-12.57
-13.94
-15.52
-17.41
-19.6
-22.0
-24.34
-26.21
-27.19
-26.93
-25.23
-22.14
-17.98
-13.25
-8.56
-4.43
-1.14
1.28
3.03
4.39
5.58
6.74
7.86
8.85
9.64
10.15
10.37
10.33
10.13
9.88
9.75
9.88
10.36
11.22
12.37
13.63
14.78
15.6
15.95
15.81
15.28
14.54
13.75
13.04
12.43
11.84
11.17
10.33
9.25
7.98
6.6
5.28
4.18
3.37
2.84
2.41
1.91
1.2
0.29
-0.7
-1.59
-2.3
-2.88
-3.51
-4.41
-5.67
-7.27
-9.06
-10.85
-12.57
-14.24
-15.98
-17.93
-20.14
-22.55
-24.92
-26.9
-28.08
-28.08
-26.71
-23.98
-20.17
-15.65
-10.86
-6.15
-1.86
1.79
4.6
6.46
7.43
7.79
7.96
8.33
9.09
10.15
11.21
11.92
12.15
12.03
11.87
11.99
12.49
13.28
14.09
14.72
15.06
15.16
15.13
15.05
14.95
14.83
14.66
14.42
14.04
13.45
12.6
11.53
10.37
9.32
8.52
7.92
7.32
6.51
5.33
3.86
2.3
0.91
-0.16
-0.92
-1.47
-1.98
-2.57
-3.34
-4.33
-5.54
-6.95
-8.49
-10.08
-11.69
-13.28
-14.89
-16.56
-18.37
-20.39
-22.57
-24.74
-26.51
-27.35
-26.74
-24.4
-20.43
-15.3
-9.74
-4.43
0.19
3.93
6.81
8.9
10.23
10.86
10.93
10.69
10.46
10.49
10.88
11.52
12.2
12.76
13.13
13.44
13.81
14.36
15.04
15.74
16.28
16.52
16.42
16.01
15.34
14.5
13.52
12.49
11.5
10.64
9.95
9.34
8.62
7.6
6.15
4.34
2.41
0.62
-0.86
-2.05
-3.15
-4.43
-6.0
-7.79
-9.55
-11.01
-12.04
-12.71
-13.26
-13.99
-15.11
-16.75
-18.84
-21.22
-23.59
-25.52
-26.53
-26.15
-24.15
-20.6
-15.9
-10.69
-5.65
-1.28
2.11
4.45
5.87
6.55
6.76
6.78
6.87
7.21
7.87
8.75
9.63
10.3
10.6
10.55
10.31
10.11
10.14
10.51
11.15
11.87
12.49
12.84
12.89
12.68
12.33
11.92
11.51
11.08
10.55
9.87
9.03
8.07
7.05
6.05
5.08
4.14
3.2
2.25
1.34
0.51
-0.17
-0.71
-1.18
-1.7
-2.41
-3.34
-4.49
-5.79
-7.11
-8.41
-9.68
-10.98
-12.39
-13.94
-15.64
-17.49
-19.5
-21.72
-24.11
-26.46
-28.33
-29.16
-28.45
-25.96
-21.92
-16.89
-11.61
-6.71
-2.57
0.68
3.12
4.85
5.97
6.65
7.08
7.51
8.13
9.01
10.06
11.05
11.77
12.12
12.15
12.08
12.12
12.41
12.95
13.59
14.13
14.44
14.45
14.23
13.87
13.45
13.01
12.49
11.85
11.1
10.27
9.49
8.82
8.3
7.9
7.51
7.05
6.42
5.61
4.68
3.71
2.8
1.98
1.23
0.43
-0.5
-1.54
-2.61
-3.56
-4.31
-4.89
-5.46
-6.25
-7.37
-8.8
-10.38
-11.89
-13.18
-14.22
-15.11
-16.02
-17.08
-18.38
-19.9
-21.42
-22.64
-23.16
-22.62
-20.78
-17.72
-13.8
-9.57
-5.59
-2.29
0.15
1.79
2.84
3.54
4.09
4.6
5.12
5.65
6.15
6.56
6.85
7.01
7.12
7.28
7.57
8.02
8.56
9.14
9.72
10.3
10.88
11.39
11.7
11.67
11.23
10.47
9.63
8.93
8.5
8.24
7.95
7.43
6.66
5.76
4.91
4.26
3.78
3.38
2.97
2.52
2.05
1.61
1.17
0.71
0.19
-0.4
-0.99
-1.5
-1.89
-2.23
-2.62
-3.14
-3.84
-4.69
-5.61
-6.57
-7.56
-8.64
-9.85
-11.23
-12.77
-14.4
-16.01
-17.41
-18.37
-18.59
-17.83
-15.97
-13.12
-9.63
-5.98
-2.68
-0.0
1.97
3.38
4.42
5.25
5.95
6.57
7.15
7.76
8.43
9.12
9.68
9.93
9.81
9.43
9.04
8.91
9.18
9.74
10.37
10.79
10.88
10.66
10.29
9.9
9.55
9.19
8.7
8.04
7.21
6.26
5.25
4.24
3.29
2.44
1.74
1.22
0.87
0.59
0.27
-0.2
-0.84
-1.62
-2.43
-3.19
-3.9
-4.64
-5.53
-6.64
-7.91
-9.2
-10.3
-11.1
-11.59
-11.91
-12.27
-12.87
-13.86
-15.33
-17.21
-19.28
-21.18
-22.43
-22.61
-21.52
-19.24
-16.09
-12.56
-9.11
-6.01
-3.41
-1.32
0.27
1.43
2.22
2.81
3.39
4.11
5.0
5.94
6.74
7.24
7.43
7.39
7.32
7.4
7.72
8.26
8.94
9.64
10.27
10.74
11.01
11.08
10.93
10.58
10.05
9.36
8.59
7.8
7.09
6.5
6.04
5.64
5.22
4.71
4.06
3.3
2.49
1.68
0.89
0.13
-0.57
-1.18
-1.63
-1.91
-2.02
-2.04
-2.09
-2.24
-2.55
-3.06
-3.73
-4.56
-5.47
-6.44
-7.38
-8.27
-9.18
-10.22
-11.56
-13.29
-15.39
-17.68
-19.81
-21.39
-22.11
-21.75
-20.3
-17.92
-14.9
-11.59
-8.36
-5.49
-3.12
-1.21
0.37
1.78
3.13
4.39
5.49
6.29
6.77
6.98
7.05
7.1
7.25
7.51
7.93
8.53
9.31
10.21
11.12
11.86
12.26
12.29
11.97
11.44
10.88
10.35
9.88
9.43
8.97
8.5
8.04
7.6
7.19
6.8
6.38
5.94
5.48
5.03
4.62
4.22
3.79
3.3
2.7
2.03
1.35
0.77
0.33
0.02
-0.27
-0.64
-1.17
-1.9
-2.73
-3.58
-4.37
-5.06
-5.7
-6.39
-7.22
-8.28
-9.6
-11.17
-12.92
-14.68
-16.27
-17.42
-17.87
-17.38
-15.87
-13.41
-10.25
-6.76
-3.35
-0.37
1.99
3.68
4.82
5.58
6.18
6.72
7.25
7.76
8.19
8.53
8.8
9.02
9.22
9.34
9.33
9.21
9.02
8.87
8.86
9.03
9.32
9.65
9.88
9.99
9.93
9.72
9.36
8.87
8.26
7.53
6.74
5.89
4.98
3.99
2.87
1.62
0.25
-1.12
-2.38
-3.4
-4.13
-4.62
-4.97
-5.34
-5.88
-6.63
-7.56
-8.58
-9.58
-10.51
-11.42
-12.34
-13.34
-14.45
-15.66
-16.95
-18.27
-19.5
-20.47
-20.87
-20.44
-18.97
-16.48
-13.2
-9.55
-5.97
-2.81
-0.24
1.69
3.05
3.93
4.44
4.71
4.94
5.26
5.77
6.39
7.0
7.43
7.62
7.63
7.59
7.64
7.84
8.19
8.63
9.17
9.78
10.41
10.95
11.26
11.22
10.79
10.05
9.15
8.21
7.32
6.52
5.81
5.23
4.75
4.34
3.96
3.54
3.08
2.63
2.27
2.03
1.82
1.53
1.0
0.24
-0.65
-1.47
-2.06
-2.42
-2.69
-3.05
-3.62
-4.37
-5.2
-6.0
-6.69
-7.37
-8.18
-9.26
-10.67
-12.35
-14.13
-15.76
-16.92
-17.32
-16.73
-15.06
-12.48
-9.33
-6.05
-3.06
-0.62
1.19
2.48
3.38
4.06
4.56
4.93
5.19
5.37
5.5
5.6
5.62
5.52
5.29
5.03
4.86
4.96
5.4
6.12
7.01
7.93
8.76
9.46
10.02
10.41
10.6
10.56
10.32
9.94
9.48
9.02
8.53
7.97
7.32
6.62
5.92
5.25
4.59
3.89
3.09
2.22
1.44
0.89
0.63
0.57
0.44
0.0
-0.87
-2.08
-3.35
-4.37
-4.99
-5.3
-5.6
-6.19
-7.28
-8.85
-10.69
-12.55
-14.19
-15.5
-16.38
-16.68
-16.21
-14.8
-12.4
-9.28
-5.88
-2.75
-0.34
1.24
2.11
2.59
2.97
3.36
3.7
3.86
3.76
3.43
2.98
2.58
2.35
2.35
2.56
2.9
3.31
3.71
4.07
4.39
4.69
5.02
5.4
5.78
6.05
6.08
5.78
5.2
4.46
3.74
3.15
2.68
2.21
1.63
0.84
-0.08
-0.98
-1.67
-2.02
-2.05
-1.89
-1.77
-1.83
-2.18
-2.8
-3.6
-4.49
-5.4
-6.35
-7.34
-8.37
-9.44
-10.51
-11.56
-12.66
-13.95
-15.57
-17.55
-19.66
-21.49
-22.54
-22.43
-21.04
-18.53
-15.26
-11.62
-7.93
-4.45
-1.38
1.13
2.92
3.98
4.44
4.61
4.78
5.2
5.96
6.95
8.03
9.04
9.87
10.52
11.01
11.45
11.91
12.46
13.14
13.95
14.85
15.8
16.74
17.59
18.3
18.77
18.96
18.88
18.62
18.3
18.02
17.77
17.46
17.0
16.32
15.46
14.53
13.65
12.84
12.05
11.19
10.22
9.18
8.2
7.36
6.67
6.01
5.25
4.24
2.97
1.51
0.03
-1.33
-2.46
-3.37
-4.18
-5.06
-6.2
-7.73
-9.67
-11.96
-14.44
-16.85
-18.81
-19.99
-20.12
-19.16
-17.3
-14.91
-12.37
-9.94
-7.75
-5.78
-4.0
-2.4
-1.05
-0.01
0.73
1.25
1.67
2.06
2.42
2.71
2.87
2.9
2.87
2.89
3.04
3.42
4.01
4.74
5.47
6.09
6.53
6.77
6.85
6.8
6.63
6.29
5.75
5.02
4.18
3.36
2.63
1.99
1.34
0.57
-0.4
-1.5
-2.6
-3.55
-4.24
-4.69
-4.94
-5.09
-5.17
-5.27
-5.44
-5.77
-6.29
-6.95
-7.65
-8.26
-8.78
-9.3
-9.98
-10.94
-12.15
-13.55
-14.98
-16.33
-17.51
-18.4
-18.78
-18.38
-16.99
-14.58
-11.45
-8.07
-4.96
-2.47
-0.65
0.68
1.76
2.77
3.71
4.49
4.98
5.16
5.12
5.03
5.06
5.29
5.72
6.29
6.92
7.58
8.26
8.94
9.59
10.13
10.47
10.54
10.32
9.84
9.21
8.56
7.97
7.45
6.88
6.1
4.96
3.46
1.78
0.21
-0.94
-1.53
-1.68
-1.68
-1.87
-2.47
-3.47
-4.7
-5.93
-6.99
-7.85
-8.64
-9.51
-10.56
-11.79
-13.08
-14.33
-15.49
-16.65
-17.95
-19.5
-21.22
-22.85
-23.96
-24.15
-23.15
-20.94
-17.76
-13.99
-10.08
-6.47
-3.42
-1.03
0.74
2.07
3.09
3.94
4.63
5.17
5.64
6.14
6.79
7.57
8.31
8.78
8.78
8.34
7.72
7.28
7.32
7.89
8.74
9.54
10.01
10.06
9.82
9.55
