1.99
0.64
-0.84
-2.41
-4.05
-5.75
-7.54
-9.47
-11.59
-13.96
-16.58
-19.41
-22.32
-25.16
-27.83
-30.34
-32.87
-35.76
-39.36
-43.83
-48.94
-54.01
-57.94
-59.62
-58.22
-53.56
-46.17
-37.07
-27.5
-18.51
-10.75
-4.45
0.4
3.99
6.51
8.21
9.38
10.32
11.27
12.33
13.47
14.53
15.4
16.05
16.6
17.26
18.18
19.44
20.95
22.52
23.95
25.03
25.63
25.63
25.02
23.85
22.29
20.6
19.07
17.84
16.88
15.96
14.78
13.14
11.06
8.76
6.56
4.68
3.19
1.94
0.67
-0.86
-2.72
-4.86
-7.04
-9.07
-10.85
-12.45
-14.08
-16.01
-18.43
-21.3
-24.37
-27.23
-29.48
-30.85
-31.23
-30.7
-29.46
-27.88
-26.45
-25.73
-26.11
-27.6
-29.64
-31.13
-30.78
-27.63
-21.48
-13.01
-3.57
5.36
12.67
17.95
21.44
23.74
25.46
27.05
28.78
30.69
32.74
34.76
36.48
37.56
37.77
37.09
35.76
34.25
33.05
32.53
32.76
33.51
34.39
34.92
34.8
33.93
32.5
30.93
29.69
29.16
29.45
30.38
31.51
32.37
32.57
31.89
30.37
28.22
25.67
22.94
20.12
17.19
14.02
10.42
6.26
1.48
-3.81
-9.32
-14.55
-18.85
-21.53
-21.98
-19.92
-15.48
-9.28
-2.25
4.57
10.39
14.73
17.47
18.73
18.71
17.64
15.84
13.76
12.01
11.26
11.96
14.13
17.34
20.84
23.84
25.86
26.8
26.87
26.39
25.56
24.38
22.66
20.24
17.06
13.31
9.36
5.6
2.39
-0.17
-2.19
-3.95
-5.81
-8.02
-10.65
-13.51
-16.31
-18.76
-20.7
-22.16
-23.38
-24.69
-26.44
-28.93
-32.37
-36.89
-42.44
-48.8
-55.52
-62.02
-67.68
-71.96
-74.56
-75.44
-74.86
-73.18
-70.8
-67.94
-64.62
-60.76
-56.39
-51.84
-47.71
-44.52
-42.34
-40.64
-38.5
-35.15
-30.47
-25.02
-19.69
-15.04
-10.87
-6.35
-0.6
6.65
14.73
22.16
27.31
29.01
26.97
21.74
14.43
6.33
-1.4
-7.86
-12.48
-14.95
-15.25
-13.62
-10.62
-7.13
-4.14
-2.49
-2.44
-3.6
-5.07
-5.95
-5.81
-4.86
-3.8
-3.29
-3.59
-4.39
-5.0
-4.65
-2.68
1.37
7.79
16.77
28.12
41.1
54.36
66.08
74.56
78.66
78.17
73.75
66.59
58.0
49.06
40.51
32.78
26.1
20.52
15.9
11.93
8.17
4.24
-0.07
-4.76
-9.57
-14.2
-18.37
-21.93
-24.89
-27.42
-29.76
-32.22
-35.13
-38.73
-43.12
-48.16
-53.34
-57.87
-60.75
-61.07
-58.23
-52.25
-43.78
-33.9
-23.84
-14.6
-6.77
-0.49
4.35
7.97
10.56
12.15
12.75
12.33
10.93
8.63
5.61
2.04
-1.8
-5.58
-8.93
-11.54
-13.17
-13.77
-13.46
-12.5
-11.18
-9.76
-8.4
-7.2
-6.12
-5.12
-4.06
-2.81
-1.24
0.76
3.25
6.18
9.49
13.1
16.95
21.0
25.19
29.38
33.37
36.93
39.93
42.32
44.15
45.46
46.21
46.22
45.18
42.78
38.83
33.36
26.72
19.53
12.66
7.03
3.39
2.1
3.01
5.47
8.54
11.31
13.13
13.77
13.3
11.97
10.07
7.83
5.43
3.01
0.69
-1.4
-3.16
-4.57
-5.6
-6.29
-6.7
-6.82
-6.65
-6.17
-5.39
-4.38
-3.27
-2.26
-1.52
-1.16
-1.18
-1.46
-1.84
-2.17
-2.37
-2.43
-2.48
-2.68
-3.23
-4.21
-5.56
-7.04
-8.35
-9.26
-9.77
-10.1
-10.56
-11.44
-12.79
-14.47
-16.21
-17.79
-19.11
-20.19
-21.17
-22.26
-23.69
-25.69
-28.47
-31.95
-35.73
-38.96
-40.64
-39.91
-36.42
-30.45
-22.83
-14.61
-6.71
0.27
6.1
10.79
14.42
17.1
18.93
20.08
20.74
21.14
21.44
21.7
21.86
21.8
21.46
20.89
20.28
19.89
19.96
20.62
21.76
23.15
24.44
25.32
25.6
25.23
24.29
22.98
21.47
19.95
18.51
17.18
15.97
14.8
13.6
12.3
10.84
9.22
7.5
5.74
4.0
2.33
0.78
-0.6
-1.78
-2.76
-3.67
-4.67
-5.94
-7.54
-9.38
-11.25
-12.97
-14.46
-15.83
-17.29
-19.04
-21.25
-23.96
-27.13
-30.59
-33.97
-36.64
-37.84
-36.9
-33.53
-27.94
-20.88
-13.34
-6.28
-0.36
4.19
7.45
9.68
11.1
11.92
12.31
12.49
12.7
13.15
13.94
14.98
16.06
16.91
17.35
17.4
17.28
17.26
17.59
18.34
19.42
20.53
21.36
21.63
21.23
20.22
18.83
17.36
16.06
15.0
14.12
13.23
12.13
10.75
9.14
7.43
5.79
4.34
3.11
2.02
0.97
-0.21
-1.63
-3.37
-5.42
-7.73
-10.18
-12.61
-14.86
-16.82
-18.44
-19.76
-20.94
-22.24
-23.99
-26.38
-29.36
-32.44
-34.86
-35.73
-34.44
-30.85
-25.38
-18.88
-12.26
-6.27
-1.36
2.37
5.02
6.76
7.81
8.4
8.78
9.17
9.65
10.18
10.59
10.77
10.63
10.23
9.71
9.23
8.93
8.92
9.28
9.96
10.83
11.64
12.11
12.01
11.33
10.21
8.88
7.55
6.29
5.04
3.74
2.38
1.02
-0.25
-1.45
-2.6
-3.79
-5.03
-6.29
-7.48
-8.58
-9.61
-10.67
-11.84
-13.16
-14.58
-16.05
-17.52
-19.0
-20.62
-22.55
-24.89
-27.58
-30.2
-32.06
-32.35
-30.48
-26.35
-20.45
-13.72
-7.19
-1.62
2.69
5.79
7.97
9.5
10.6
11.4
12.03
12.63
13.26
13.89
14.41
14.63
14.46
13.92
13.23
12.66
12.48
12.8
13.54
14.46
15.29
15.77
15.81
15.42
14.71
13.77
12.71
11.57
10.37
9.16
7.95
6.75
5.54
4.26
2.87
1.38
-0.19
-1.79
-3.39
-4.94
-6.42
-7.79
-9.03
-10.19
-11.38
-12.76
-14.41
-16.36
-18.48
-20.55
-22.43
-24.08
-25.62
-27.33
-29.51
-32.41
-36.09
-40.38
-44.8
-48.68
-51.3
-52.11
-50.89
-47.89
-43.73
-39.22
-35.09
-31.85
-29.66
-28.49
-28.22
-28.76
-30.05
-32.01
-34.46
-37.1
-39.52
-41.32
-42.04
-41.31
-38.79
-34.23
-27.5
-18.69
-8.08
3.84
16.55
29.54
42.46
55.01
66.99
78.16
88.34
97.39
105.33
112.25
118.16
122.96
126.28
127.61
126.5
122.72
116.45
108.25
98.81
88.85
78.84
69.03
59.41
49.9
40.4
30.9
21.46
12.22
3.32
-5.13
-13.06
-20.4
-27.08
-33.0
-38.11
-42.46
-46.23
-49.73
-53.24
-56.86
-60.37
-63.24
-64.73
-64.14
-61.15
-55.92
-49.06
-41.49
-34.1
-27.51
-21.99
-17.54
-13.99
-11.19
-9.05
-7.52
-6.49
-5.77
-5.11
-4.33
-3.38
-2.36
-1.42
-0.66
-0.02
0.65
1.57
2.82
4.32
5.85
7.12
7.96
8.34
8.37
8.18
7.9
7.52
6.97
6.12
4.92
3.38
1.66
-0.04
-1.5
-2.58
-3.32
-3.91
-4.6
-5.67
-7.26
-9.3
-11.57
-13.75
-15.58
-16.99
-18.13
-19.32
-20.95
-23.28
-26.32
-29.77
-33.03
-35.33
-35.98
-34.51
-30.87
-25.38
-18.7
-11.68
-5.11
0.4
4.5
7.2
8.73
9.48
9.83
10.08
10.35
10.65
10.92
11.08
11.12
11.04
10.9
10.79
10.83
11.13
11.77
12.76
14.05
15.45
16.75
17.75
18.27
18.21
17.58
16.5
15.16
13.8
12.6
11.63
10.88
10.2
9.41
8.39
7.08
5.55
3.96
2.43
1.07
-0.12
-1.23
-2.39
-3.73
-5.35
-7.26
-9.43
-11.77
-14.14
-16.41
-18.43
-20.16
-21.67
-23.23
-25.17
-27.79
-31.12
-34.87
-38.44
-41.05
-41.92
-40.55
-36.8
-30.96
-23.71
-15.91
-8.49
-2.2
2.56
5.74
7.63
8.73
9.49
10.2
10.95
11.73
12.48
13.22
13.97
14.76
15.53
16.16
16.57
16.78
16.96
17.29
17.88
18.7
19.51
20.05
20.13
19.69
18.86
17.78
16.59
15.38
14.16
12.96
11.8
10.74
9.8
8.92
8.03
7.01
5.77
4.31
2.64
0.87
-0.87
-2.44
-3.74
-4.75
-5.58
-6.49
-7.72
-9.43
-11.51
-13.69
-15.65
-17.22
-18.51
-19.86
-21.72
-24.45
-28.14
-32.52
-36.94
-40.56
-42.43
-41.85
-38.51
-32.66
-25.08
-16.84
-8.96
-2.19
3.13
7.01
9.69
11.45
12.57
13.33
13.94
14.58
15.31
16.11
16.87
17.47
17.82
17.94
17.93
17.96
18.22
18.8
19.73
20.87
22.0
22.86
23.27
23.2
22.7
21.9
20.93
19.83
18.64
17.35
15.97
14.51
12.96
11.28
9.46
7.49
5.44
3.41
1.51
-0.22
-1.82
-3.39
-5.06
-6.93
-9.0
-11.15
-13.23
-15.16
-16.96
-18.85
-21.14
-24.17
-28.08
-32.71
-37.5
-41.54
-43.81
-43.49
-40.24
-34.32
-26.57
-18.05
-9.85
-2.69
3.07
7.39
10.44
12.45
13.66
14.35
14.8
15.28
15.92
16.68
17.43
18.02
18.38
18.57
18.74
19.01
19.46
20.06
20.71
21.28
21.68
21.85
21.72
21.23
20.37
19.12
17.52
15.65
13.58
11.42
9.23
7.09
5.03
3.1
1.28
-0.46
-2.21
-4.0
-5.84
-7.69
-9.46
-11.12
-12.76
-14.58
-16.9
-19.95
-23.74
-27.95
-31.94
-34.82
-35.83
-34.51
-30.9
-25.44
-18.85
-11.86
-5.11
0.97
6.11
10.18
13.16
15.13
16.24
16.71
16.76
16.6
16.37
16.13
15.88
15.6
15.27
14.93
14.67
14.59
14.8
15.33
16.1
16.96
17.64
17.91
17.54
16.44
14.7
12.5
10.13
7.83
5.7
3.7
1.7
-0.46
-2.89
-5.57
-8.44
-11.39
-14.28
-17.05
-19.61
-22.02
-24.43
-27.09
-30.31
-34.24
-38.67
-42.99
-46.23
-47.39
-45.76
-41.28
-34.47
-26.26
-17.67
-9.48
-2.15
4.11
9.24
13.22
16.07
17.97
19.22
20.18
21.17
22.26
23.32
24.14
24.56
24.59
24.41
24.26
24.32
24.7
25.38
26.25
27.19
28.07
28.72
28.95
28.62
27.63
26.04
24.05
21.96
20.03
18.39
17.01
15.71
14.3
12.71
10.95
9.15
7.44
5.87
4.37
2.83
1.13
-0.76
-2.81
-4.98
-7.24
-9.59
-12.04
-14.57
-17.1
-19.62
-22.09
-24.57
-27.19
-30.18
-33.73
-37.98
-42.86
-47.93
-52.38
-55.12
-55.12
-51.73
-45.06
-35.94
-25.73
-15.81
-7.2
-0.32
4.94
8.97
12.17
14.8
16.97
18.74
20.17
21.36
22.33
23.05
23.44
23.47
23.24
23.01
23.07
23.62
24.66
26.02
27.41
28.54
29.2
29.36
29.05
28.41
27.57
26.64
25.65
24.55
23.27
21.71
19.89
17.88
15.85
13.9
12.11
10.46
8.86
7.23
5.47
3.56
1.51
-0.55
-2.41
-3.87
-4.85
-5.5
-6.19
-7.38
-9.35
-12.1
-15.3
-18.5
-21.33
-23.64
-25.58
-27.45
-29.57
-32.2
-35.47
-39.31
-43.41
-47.14
-49.62
-49.9
-47.34
-41.83
-33.94
-24.75
-15.49
-7.17
-0.34
4.99
9.12
12.46
15.31
17.71
19.54
20.65
20.99
20.69
19.99
19.2
18.57
18.21
18.22
18.65
19.55
20.91
22.56
24.19
25.42
25.97
25.74
24.84
23.54
22.06
20.5
18.85
17.02
14.99
12.77
10.46
8.11
5.72
3.31
0.91
-1.39
-3.5
-5.4
-7.16
-9.0
-11.1
-13.52
-16.15
-18.74
-21.05
-22.97
-24.58
-26.16
-28.11
-30.77
-34.34
-38.72
-43.39
-47.55
-50.14
-50.26
-47.38
-41.56
-33.45
-24.1
-14.62
-5.91
1.48
7.36
11.8
15.05
17.38
19.11
20.48
21.63
22.61
23.32
23.67
23.63
23.32
22.97
22.89
23.29
24.24
25.64
27.28
28.9
30.28
31.27
31.76
31.69
31.07
29.98
28.54
26.93
25.24
23.5
21.65
19.61
17.33
14.88
12.42
10.14
8.18
6.56
5.16
3.77
2.2
0.32
-1.85
-4.19
-6.59
-8.92
-11.16
-13.34
-15.54
-17.81
-20.21
-22.66
-25.09
-27.41
-29.64
-31.89
-34.38
-37.41
-41.23
-45.9
-51.2
-56.47
-60.76
-62.93
-62.07
-57.73
-50.17
-40.3
-29.38
-18.7
-9.22
-1.41
4.69
9.32
12.82
15.53
17.71
19.57
21.22
22.67
23.82
24.55
24.79
24.65
24.35
24.2
24.47
25.27
26.59
28.22
29.88
31.29
32.19
32.4
31.89
30.78
29.28
27.67
26.2
24.97
23.97
23.02
21.92
20.49
18.69
16.6
14.46
12.52
10.94
9.71
8.62
7.37
5.65
3.4
0.75
-1.93
-4.33
-6.25
-7.79
-9.29
-11.13
-13.63
-16.79
-20.39
-24.07
-27.47
-30.44
-33.02
-35.44
-38.0
-41.02
-44.74
-49.24
-54.33
-59.42
-63.52
-65.42
-64.09
-59.04
-50.65
-40.03
-28.67
-17.95
-8.75
-1.34
4.51
9.2
13.05
16.25
18.85
20.88
22.39
23.55
24.45
25.21
25.85
26.36
26.74
27.02
27.32
27.78
28.59
29.81
31.34
32.94
34.26
34.97
34.84
33.84
32.07
29.8
27.26
24.7
22.28
20.02
17.83
15.59
13.16
10.49
7.67
4.83
2.18
-0.09
-1.88
-3.17
-4.17
-5.24
-6.79
-9.12
-12.24
-15.85
-19.43
-22.55
-25.03
-27.1
-29.2
-31.86
-35.46
-40.08
-45.52
-51.23
-56.36
-59.91
-60.9
-58.65
-53.09
-44.76
-34.75
-24.33
-14.67
-6.56
-0.43
3.63
5.77
6.23
5.31
3.38
0.8
-2.09
-5.05
-7.95
-10.83
-13.77
-16.89
-20.19
-23.47
-26.44
-28.81
-30.5
-31.71
-32.91
-34.62
-37.18
-40.58
-44.37
-47.82
-50.03
-50.14
-47.5
-41.82
-33.18
-22.03
-9.14
4.69
18.73
32.52
45.86
58.8
71.43
83.8
95.82
107.2
117.49
126.22
132.94
137.45
139.72
139.94
138.37
135.2
130.43
123.9
115.31
104.28
90.44
73.51
53.45
30.64
6.04
-18.64
-41.15
-59.17
-70.9
-75.64
-74.0
-67.78
-59.29
-50.76
-43.7
-38.65
-35.44
-33.39
-31.81
-30.19
-28.29
-26.03
-23.45
-20.62
-17.58
-14.38
-11.08
-7.74
-4.43
-1.14
2.11
5.37
8.69
12.07
15.42
18.52
21.09
22.89
23.85
24.1
23.93
23.68
23.53
23.45
23.22
22.61
21.48
19.93
18.17
16.42
14.82
13.39
12.07
10.79
9.49
8.12
6.62
4.94
3.09
1.08
-1.01
-3.18
-5.48
-8.03
-10.99
-14.43
-18.28
-22.36
-26.38
-30.07
-33.34
-36.33
-39.48
-43.36
-48.5
-55.02
-62.4
-69.4
-74.4
-75.82
-72.64
-64.85
-53.39
-39.87
-26.07
-13.49
-3.03
5.02
10.79
14.7
17.24
18.94
20.3
21.67
23.22
24.86
26.33
27.35
27.81
27.81
27.73
27.94
28.7
30.03
31.79
33.73
35.61
37.24
38.43
38.93
38.5
37.05
34.63
31.53
28.2
25.05
22.34
20.13
18.27
16.55
14.78
12.82
10.6
8.09
5.34
2.49
-0.25
-2.66
-4.58
-6.07
-7.33
-8.77
-10.69
-13.28
-16.45
-19.91
-23.39
-26.64
-29.63
-32.47
-35.47
-39.02
-43.49
-49.06
-55.5
-62.01
-67.25
-69.65
-67.96
-61.7
-51.44
-38.63
-25.11
-12.54
-1.95
6.28
12.32
16.55
19.35
21.04
21.9
22.25
22.41
22.57
22.81
23.03
23.14
23.15
23.19
23.51
24.37
25.87
27.96
30.39
32.75
34.64
35.66
35.62
34.52
32.54
30.01
27.3
24.66
22.26
20.08
18.01
15.87
13.51
10.81
7.81
4.65
1.59
-1.1
-3.26
-4.92
-6.33
-7.83
-9.74
-12.26
-15.36
-18.83
-22.4
-25.81
-28.89
-31.62
-34.14
-36.77
-39.94
-44.09
-49.55
-56.23
-63.5
-70.07
-74.35
-74.85
-70.75
-62.19
-50.24
-36.62
-23.06
-10.95
-1.04
6.56
12.17
16.3
19.47
22.06
24.34
26.45
28.38
30.04
31.32
32.1
32.34
32.09
31.55
31.0
30.78
31.17
32.24
33.81
35.53
36.93
37.65
37.51
36.53
34.88
32.79
30.49
28.16
25.94
23.9
22.06
20.33
18.62
16.82
14.91
13.0
11.21
9.67
8.35
7.08
5.58
3.66
1.27
-1.41
-4.1
-6.54
-8.65
-10.54
-12.5
-14.79
-17.54
-20.69
-23.99
-27.19
-30.12
-32.77
-35.27
-37.88
-40.91
-44.65
-49.32
-54.92
-61.03
-66.79
-70.92
-72.04
-69.13
-61.94
-51.11
-38.09
-24.65
-12.42
-2.44
4.92
9.94
13.23
15.49
17.29
19.0
20.73
22.44
24.03
25.38
26.43
27.17
27.62
27.85
27.97
28.14
28.53
29.31
30.52
32.01
33.49
34.58
34.9
34.26
32.71
30.56
28.21
26.02
24.15
22.54
20.97
19.21
17.16
14.87
12.52
10.33
8.43
6.85
5.54
4.32
3.07
1.68
0.13
-1.49
-3.06
-4.46
-5.71
-6.95
-8.4
-10.28
-12.66
-15.48
-18.49
-21.42
-23.99
-26.06
-27.72
-29.27
-31.15
-33.86
-37.75
-42.84
-48.72
-54.45
-58.79
-60.47
-58.58
-52.84
-43.8
-32.62
-20.81
-9.77
-0.49
6.65
11.72
15.06
17.1
18.22
18.68
18.71
18.44
17.97
17.37
16.72
16.11
15.7
15.68
16.22
17.41
19.14
21.18
23.22
24.97
26.27
27.01
27.15
26.64
25.48
23.73
21.59
19.32
17.14
15.2
13.47
11.85
10.23
8.53
6.71
4.79
2.79
0.73
-1.29
-3.14
-4.76
-6.22
-7.74
-9.56
-11.87
-14.65
-17.72
-20.76
-23.57
-26.08
-28.38
-30.67
-33.14
-35.97
-39.38
-43.56
-48.52
-53.9
-58.81
-61.99
-62.14
-58.44
-50.87
-40.34
-28.37
-16.57
-6.19
2.15
8.44
13.03
16.34
18.71
20.35
21.43
22.15
22.7
23.25
