34.37
33.16
31.8
30.49
29.21
27.86
26.24
24.25
21.91
19.36
16.82
14.43
12.3
10.43
8.75
7.21
5.73
4.24
2.65
0.89
-1.06
-3.14
-5.23
-7.26
-9.3
-11.51
-14.14
-17.26
-20.74
-24.26
-27.5
-30.29
-32.74
-35.14
-37.87
-41.29
-45.6
-50.81
-56.58
-62.18
-66.5
-68.25
-66.37
-60.42
-50.87
-38.98
-26.41
-14.73
-4.96
2.51
7.87
11.51
13.84
15.17
15.75
15.87
15.8
15.81
16.03
16.48
17.01
17.5
17.93
18.45
19.33
20.77
22.74
24.99
27.05
28.51
29.11
28.86
27.92
26.51
24.78
22.82
20.72
18.57
16.46
14.42
12.38
10.15
7.61
4.78
1.86
-0.86
-3.16
-5.04
-6.74
-8.59
-10.87
-13.61
-16.66
-19.72
-22.5
-24.91
-26.99
-28.94
-30.99
-33.38
-36.41
-40.28
-45.05
-50.39
-55.4
-58.71
-58.78
-54.61
-46.1
-34.29
-21.04
-8.33
2.36
10.46
16.22
20.33
23.43
25.88
27.76
29.07
29.85
30.29
30.58
30.8
30.92
30.86
30.62
30.37
30.41
31.01
32.26
34.03
35.91
37.47
38.36
38.45
37.83
36.71
35.3
33.7
31.92
29.92
27.7
25.34
22.98
20.73
18.65
16.67
14.68
12.55
10.23
7.8
5.34
2.98
0.79
-1.26
-3.24
-5.26
-7.42
-9.79
-12.38
-15.2
-18.23
-21.41
-24.66
-27.91
-31.13
-34.45
-38.13
-42.53
-47.99
-54.5
-61.52
-67.93
-72.15
-72.71
-68.7
-60.21
-48.33
-34.83
-21.53
-9.83
-0.43
6.63
11.68
15.2
17.61
19.3
20.64
21.97
23.52
25.35
27.32
29.17
30.71
31.86
32.76
33.64
34.74
36.17
37.9
39.72
41.3
42.33
42.58
42.05
40.86
39.28
37.54
35.73
33.85
31.81
29.53
27.03
24.43
21.87
19.48
17.36
15.49
13.82
12.24
10.58
8.68
6.48
4.01
1.5
-0.79
-2.73
-4.41
-6.12
-8.26
-11.08
-14.55
-18.33
-21.96
-25.13
-27.76
-30.1
-32.52
-35.43
-39.15
-43.84
-49.46
-55.65
-61.64
-66.16
-67.78
-65.32
-58.41
-47.72
-34.86
-21.77
-10.13
-0.82
6.06
10.94
14.34
16.61
17.93
18.43
18.31
17.9
17.51
17.33
17.37
17.55
17.79
18.12
18.68
19.69
21.25
23.33
25.7
27.99
29.79
30.81
30.9
30.1
28.63
26.76
24.74
22.72
20.78
18.85
16.82
14.58
12.08
9.33
6.46
3.64
1.02
-1.34
-3.46
-5.47
-7.51
-9.74
-12.21
-14.95
-17.9
-20.94
-23.93
-26.71
-29.25
-31.7
-34.39
-37.81
-42.32
-47.93
-54.02
-59.37
-62.44
-61.87
-56.98
-48.12
-36.5
-23.86
-11.89
-1.77
5.99
11.43
14.98
17.16
18.48
19.3
19.88
20.23
20.18
19.42
17.71
14.98
11.47
7.68
4.25
1.84
0.96
1.89
4.68
9.07
14.61
20.66
26.6
31.96
36.44
39.96
42.53
44.18
44.96
44.91
44.13
42.75
40.89
38.57
35.73
32.31
28.32
23.97
19.57
15.57
12.29
9.89
8.31
7.24
6.28
4.99
3.03
0.29
-3.09
-6.82
-10.54
-14.0
-17.13
-20.05
-23.05
-26.44
-30.6
-35.76
-41.94
-48.69
-55.03
-59.5
-60.58
-57.14
-48.94
-36.82
-22.39
-7.53
6.2
17.98
27.61
35.38
41.63
46.64
50.57
53.59
55.9
57.78
59.42
60.81
61.78
61.97
60.97
58.37
53.93
47.59
39.51
30.21
20.37
10.82
2.19
-5.12
-11.16
-16.18
-20.56
-24.55
-28.24
-31.52
-34.23
-36.3
-37.8
-38.85
-39.65
-40.3
-40.94
-41.72
-42.81
-44.37
-46.48
-49.11
-52.23
-55.82
-59.92
-64.48
-69.24
-73.66
-77.11
-79.13
-79.69
-79.38
-79.16
-80.05
-82.81
-87.8
-94.96
-103.97
-114.26
-124.97
-134.95
-142.78
-147.01
-146.49
-140.74
-130.07
-115.53
-98.63
-80.97
-63.89
-48.27
-34.48
-22.52
-12.08
-2.75
5.89
14.22
22.36
30.2
37.4
43.54
48.39
52.07
55.1
58.23
62.14
67.24
73.53
80.59
87.81
94.54
100.29
104.77
107.82
109.45
109.73
108.84
107.03
104.58
101.77
98.7
95.27
91.19
86.07
79.65
71.87
62.97
53.38
43.63
34.12
25.1
16.69
8.83
1.4
-5.72
-12.65
-19.42
-26.01
-32.37
-38.51
-44.52
-50.59
-57.0
-63.97
-71.71
-80.29
-89.5
-98.78
-107.0
-112.67
-114.28
-110.78
-102.09
-89.18
-73.79
-57.81
-42.76
-29.45
-18.06
-8.42
-0.33
6.33
11.68
15.89
19.27
22.12
24.65
26.89
28.75
30.14
31.15
32.05
33.25
35.11
37.8
41.25
45.09
48.86
52.06
54.36
55.64
55.95
55.53
54.59
53.32
51.81
50.1
48.22
46.11
43.8
41.31
38.74
36.27
34.09
32.3
30.87
29.57
28.11
26.25
23.94
21.26
18.43
15.53
12.5
9.13
5.2
0.59
-4.55
-9.97
-15.31
-20.35
-24.95
-29.22
-33.43
-38.0
-43.44
-50.09
-57.8
-65.74
-72.4
-76.0
-75.08
-69.06
-58.48
-44.86
-30.1
-15.96
-3.61
6.45
14.2
19.89
23.84
26.38
27.9
28.84
29.59
30.41
31.31
32.1
32.49
32.27
31.54
30.61
30.01
30.14
31.11
32.68
34.35
35.6
36.12
35.86
34.99
33.78
32.43
31.06
29.69
28.29
26.85
25.35
23.79
22.11
20.19
17.95
15.34
12.48
9.59
6.92
4.66
2.85
1.36
0.02
-1.33
-2.83
-4.59
-6.73
-9.36
-12.5
-16.02
-19.63
-23.01
-25.99
-28.68
-31.5
-35.04
-39.75
-45.66
-52.25
-58.47
-62.95
-64.4
-61.97
-55.53
-45.61
-33.33
-20.05
-7.0
4.86
14.96
23.05
29.1
33.28
35.87
37.24
37.79
37.9
37.82
37.69
37.5
37.18
36.69
36.09
35.54
35.3
35.61
36.58
38.17
40.08
41.89
43.13
43.46
42.76
41.18
39.06
36.75
34.53
32.44
30.36
28.09
25.53
22.72
19.85
17.11
14.6
12.26
9.94
7.52
4.96
2.4
0.02
-2.06
-3.85
-5.51
-7.27
-9.36
-11.94
-14.99
-18.38
-21.87
-25.2
-28.16
-30.76
-33.23
-36.07
-39.9
-45.15
-51.76
-58.91
-65.19
-68.88
-68.6
-63.75
-54.71
-42.7
-29.25
-15.85
-3.56
6.98
15.5
21.99
26.56
29.53
31.31
32.34
32.97
33.36
33.48
33.23
32.6
31.68
30.75
30.05
29.87
30.31
31.37
32.94
34.75
36.49
37.83
38.49
38.33
37.36
35.74
33.7
31.42
29.04
26.57
24.04
21.46
18.89
16.39
13.93
11.45
8.86
6.06
3.09
0.07
-2.78
-5.28
-7.29
-8.84
-10.08
-11.27
-12.69
-14.54
-16.85
-19.46
-22.08
-24.41
-26.33
-27.91
-29.44
-31.3
-33.81
-37.14
-41.25
-45.8
-50.2
-53.57
-54.97
-53.55
-48.88
-41.14
-31.12
-20.02
-9.09
0.64
8.61
14.7
19.1
22.16
24.21
25.49
26.18
26.38
26.16
25.58
24.68
23.52
22.19
20.86
19.73
19.01
18.88
19.39
20.4
21.65
22.8
23.56
23.79
23.47
22.72
21.7
20.58
19.52
18.73
18.46
18.94
20.4
22.88
26.17
29.87
33.44
36.4
38.39
39.23
38.98
37.8
35.88
33.35
30.23
26.47
21.93
16.57
10.45
3.86
-2.79
-9.07
-14.69
-19.63
-24.09
-28.46
-33.18
-38.56
-44.72
-51.41
-57.98
-63.42
-66.56
-66.45
-62.68
-55.53
-45.95
-35.24
-24.68
-15.3
-7.75
-2.32
1.01
2.52
2.71
2.21
1.63
1.39
1.6
2.15
2.78
3.33
3.78
4.29
5.05
6.25
7.92
9.98
12.24
14.43
16.28
17.6
18.28
18.37
18.0
17.35
16.53
15.58
14.43
13.06
11.45
9.69
7.9
6.23
4.73
3.38
2.09
0.74
-0.75
-2.39
-4.11
-5.78
-7.25
-8.39
-9.2
-9.76
-10.23
-10.75
-11.41
-12.16
-12.95
-13.71
-14.48
-15.35
-16.45
-17.84
-19.6
-21.77
-24.45
-27.61
-31.02
-34.12
-36.01
-35.78
-32.81
-27.1
-19.33
-10.63
-2.16
5.19
10.99
15.21
18.0
19.56
20.1
19.8
18.93
17.79
16.61
15.48
14.34
13.05
11.51
9.8
8.17
6.96
6.44
6.7
7.6
8.85
10.11
11.13
11.77
12.0
11.87
11.41
10.64
9.61
8.36
6.96
5.46
3.92
2.39
0.92
-0.45
-1.75
-2.99
-4.21
-5.38
-6.45
-7.34
-8.04
-8.6
-9.18
-9.92
-10.9
-12.14
-13.55
-15.02
-16.44
-17.79
-19.09
-20.41
-21.84
-23.53
-25.62
-28.24
-31.3
-34.43
-36.95
-38.01
-36.92
-33.43
-27.84
-20.9
-13.49
-6.38
-0.0
5.49
10.05
13.62
16.04
17.18
17.06
15.94
14.25
12.43
10.82
9.54
8.59
7.9
7.44
7.28
7.54
8.28
9.52
11.05
12.6
13.84
14.55
14.63
14.18
13.35
12.31
11.19
10.0
8.73
7.35
5.86
4.25
2.57
0.85
-0.84
-2.44
-3.86
-5.08
-6.14
-7.13
-8.15
-9.25
-10.47
-11.77
-13.14
-14.56
-16.02
-17.52
-19.12
-20.91
-23.08
-25.73
-28.79
-31.83
-34.18
-35.0
-33.67
-29.96
-24.21
-17.14
-9.65
-2.52
3.76
8.96
13.1
16.18
18.24
19.34
19.62
19.37
18.97
18.73
18.78
19.02
19.24
19.26
19.09
18.87
18.84
19.12
19.7
20.42
21.12
21.68
22.04
22.19
22.08
21.59
20.66
19.27
17.51
15.55
13.58
11.73
10.08
8.61
7.27
5.98
4.66
3.31
1.93
0.58
-0.71
-2.01
-3.4
-5.07
-7.11
-9.54
-12.21
-14.82
-17.08
-18.79
-19.91
-20.63
-21.28
-22.23
-23.79
-26.14
-29.26
-32.85
-36.37
-39.02
-39.99
-38.67
-34.77
-28.52
-20.58
-11.88
-3.4
4.05
9.95
14.1
16.62
17.82
18.14
18.02
17.78
17.59
17.46
17.32
17.08
16.7
16.24
15.78
15.47
15.47
15.87
16.67
17.76
18.94
19.98
20.74
21.11
21.09
20.67
19.86
18.69
17.24
15.64
14.05
12.58
11.25
10.01
8.76
7.43
5.98
4.4
2.71
0.91
-0.91
-2.61
-4.03
-5.05
-5.71
-6.24
-6.94
-8.08
-9.75
-11.77
-13.84
-15.67
-17.09
-18.16
-19.12
-20.28
-21.91
-24.12
-26.9
-29.99
-33.01
-35.45
-36.7
-36.25
-33.75
-29.13
-22.7
-15.07
-7.12
0.23
6.24
10.5
13.02
14.21
14.61
14.75
14.9
15.06
15.11
14.87
14.34
13.62
12.92
12.44
12.27
12.45
12.93
13.67
14.62
15.71
16.81
17.72
18.25
18.27
17.77
16.82
15.57
14.16
12.65
11.07
9.39
7.6
5.74
3.82
1.87
-0.08
-1.97
-3.7
-5.15
-6.26
-7.06
-7.75
-8.54
-9.6
-10.94
-12.43
-13.91
-15.25
-16.39
-17.35
-18.18
-18.98
-19.89
-21.21
-23.2
-26.03
-29.54
-33.15
-35.97
-37.08
-35.83
-32.09
-26.27
-19.15
-11.68
-4.68
1.24
5.72
8.74
10.46
11.21
11.33
11.1
10.66
10.09
9.4
8.64
7.88
7.23
6.8
6.65
6.84
7.38
8.25
9.38
10.63
11.82
12.77
13.35
13.5
13.23
12.59
11.64
10.47
9.15
7.8
6.47
5.22
4.03
2.91
1.83
0.84
-0.01
-0.75
-1.41
-2.11
-2.94
-3.96
-5.16
-6.5
-7.89
-9.27
-10.65
-12.03
-13.42
-14.83
-16.22
-17.54
-18.7
-19.74
-20.74
-21.96
-23.68
-26.09
-29.15
-32.42
-35.13
-36.41
-35.54
-32.23
-26.71
-19.65
-11.97
-4.54
1.98
7.21
11.02
13.47
14.75
15.13
14.97
14.65
14.47
14.57
14.93
15.36
15.65
15.68
15.47
15.15
14.91
14.89
15.08
15.41
15.75
16.05
16.27
16.45
16.59
16.7
16.77
16.77
16.68
16.47
16.04
15.28
14.14
12.64
10.95
9.26
7.76
6.49
5.39
4.34
3.23
2.07
0.91
-0.15
-1.07
-1.85
-2.57
-3.32
-4.2
-5.24
-6.41
-7.63
-8.77
-9.72
-10.4
-10.84
-11.08
-11.29
-11.57
-12.06
-12.77
-13.61
-14.29
-14.37
-13.35
-10.89
-6.99
-2.12
2.84
6.83
8.88
8.39
5.23
-0.31
-7.62
-15.89
-24.29
-31.93
-38.0
-41.87
-43.15
-41.85
-38.37
-33.34
-27.45
-21.26
-15.07
-8.93
-2.81
3.29
9.29
15.03
20.35
25.18
29.53
33.46
36.93
39.87
42.07
43.39
43.76
43.3
42.28
41.04
39.91
39.04
38.42
37.85
37.1
35.94
34.31
32.24
29.81
27.05
23.91
20.21
15.8
10.58
4.64
-1.76
-8.29
-14.62
-20.49
-25.76
-30.41
-34.5
-38.18
-41.62
-44.95
-48.17
-51.05
-53.13
-53.85
-52.73
-49.53
-44.4
-37.78
-30.37
-22.85
-15.8
-9.56
-4.26
0.15
3.78
6.77
9.22
11.23
12.88
14.29
15.56
16.77
17.94
19.03
19.95
20.63
21.02
21.1
20.89
20.39
19.59
18.49
17.09
15.4
13.46
11.3
8.91
6.27
3.33
0.04
-3.6
-7.51
-11.57
-15.57
-19.31
-22.58
-25.22
-27.18
-28.51
-29.31
-29.75
-29.96
-30.02
-29.99
-29.9
-29.75
-29.56
-29.31
-28.99
-28.64
-28.37
-28.38
-28.94
-30.3
-32.6
-35.72
-39.23
-42.41
-44.32
-44.14
-41.34
-35.88
-28.23
-19.17
-9.57
-0.15
8.6
16.38
22.95
28.09
31.68
33.75
34.57
34.66
34.56
34.72
35.26
36.01
36.63
36.79
36.36
35.49
34.51
33.71
33.22
32.93
32.54
31.82
30.7
29.34
28.0
26.91
26.09
25.37
24.49
23.35
22.0
20.72
19.79
19.36
19.4
19.72
20.1
20.42
20.7
21.11
21.85
23.12
25.05
27.71
31.07
35.07
39.57
44.39
49.33
54.27
59.17
64.12
69.24
74.59
80.15
85.72
91.02
95.78
99.9
103.45
106.71
110.09
113.85
117.96
121.8
124.1
123.16
117.31
105.46
87.49
64.38
37.88
10.15
-16.69
-40.8
-60.75
-75.61
-85.06
-89.45
-89.76
-87.31
-83.41
-78.93
-74.18
-69.15
-63.69
-57.84
-51.83
-46.02
-40.84
-36.76
-34.43
-34.73
-38.5
-46.1
-56.96
-69.54
-81.89
-92.37
-100.23
-105.57
-108.74
-109.55
-106.99
-99.64
-86.6
-68.35
-46.84
-24.97
-5.46
10.01
21.01
28.06
31.93
33.31
32.66
30.49
27.5
24.63
22.78
22.48
23.69
25.84
28.17
30.06
31.15
31.26
30.19
27.66
23.5
17.93
11.67
5.81
1.28
-1.49
-2.71
-2.93
-2.63
-1.9
-0.62
1.33
3.74
6.26
8.64
11.11
14.33
19.03
25.48
33.27
41.18
47.57
50.78
49.68
44.08
34.89
24.01
13.75
6.06
1.82
0.54
0.71
0.58
-0.94
-3.91
-7.6
-11.03
-13.57
-15.17
-16.14
-16.75
-17.02
-16.8
-16.04
-14.95
-14.02
-13.69
-14.15
-15.07
-15.79
-15.6
-14.05
-11.1
-7.17
-2.92
0.9
3.72
5.22
5.4
4.58
3.23
1.79
0.56
-0.44
-1.41
-2.67
-4.43
-6.77
-9.6
-12.65
-15.58
-18.06
-19.79
-20.57
-20.37
-19.38
-17.93
-16.42
-15.16
-14.35
-14.07
-14.32
-15.12
-16.49
-18.41
-20.8
-23.5
-26.35
-29.22
-31.96
-34.43
-36.41
-37.68
-38.14
-37.89
-37.2
-36.35
-35.48
-34.53
-33.27
-31.5
-29.14
-26.33
-23.31
-20.32
-17.44
-14.7
-12.08
-9.6
-7.42
-5.72
-4.68
-4.35
-4.64
-5.42
-6.45
-7.58
-8.69
-9.72
-10.73
-11.77
-12.98
-14.43
-16.21
-18.38
-20.97
-24.02
-27.5
-31.35
-35.43
-39.52
-43.39
-46.82
-49.62
-51.63
-52.78
-53.08
-52.62
-51.59
-50.2
-48.65
-46.94
-44.92
-42.2
-38.21
-32.31
-23.91
-12.64
1.46
17.8
35.31
52.56
68.13
80.79
89.61
93.97
93.54
88.44
79.34
67.6
55.07
43.55
34.23
27.18
21.49
15.7
8.56
-0.49
-11.2
-22.76
-34.34
-45.37
-55.54
-64.66
-72.39
-78.19
-81.46
-81.86
-79.54
-75.17
-69.73
-64.14
-58.94
-54.17
-49.48
-44.44
-38.81
-32.68
-26.41
-20.44
-15.18
-10.94
-8.0
-6.62
-7.07
-9.56
-14.13
-20.63
-28.75
-37.98
-47.71
-57.21
-65.75
-72.74
-77.88
-81.38
-83.89
-86.24
-89.07
-92.47
-95.86
-98.08
-97.79
-93.89
-85.91
-74.15
-59.58
-43.6
-27.72
-13.21
-0.89
9.06
16.92
23.19
28.0
30.91
30.86
26.62
17.42
3.51
-13.76
-32.38
-50.35
-66.27
-79.47
-89.72
-96.72
-99.93
-98.7
-92.82
-82.86
-70.32
-57.12
-44.99
-34.75
-26.14
-18.1
-9.39
0.76
12.2
23.83
33.86
40.29
41.42
36.34
25.29
9.75
-7.88
-24.8
-38.54
-47.49
-51.18
-50.11
-45.53
-39.03
-32.26
-26.67
-23.2
-22.07
-22.61
-23.52
-23.34
-21.08
-16.66
-10.92
-5.25
-0.89
1.61
2.57
3.02
4.18
7.05
12.11
19.37
28.51
39.24
51.31
64.47
78.36
92.49
106.3
119.28
131.05
141.47
150.44
157.79
163.17
166.02
165.83
162.32
155.74
146.92
137.11
127.68
119.73
113.81
109.96
107.9
107.26
107.75
109.01
110.45
111.06
109.64
105.08
96.83
85.15
71.06
56.1
41.86
29.65
20.2
13.61
9.44
6.88
5.06
3.29
1.21
-1.1
-3.3
-4.96
-5.77
-5.67
-4.96
-4.15
-3.83
-4.44
-6.19
-9.04
-12.77
-17.17
-22.09
-27.49
-33.36
-39.66
-46.16
-52.42
-57.78
-61.48
-62.81
-61.31
-57.0
-50.45
-42.57
-34.35
-26.5
-19.25
-12.35
-5.42
1.74
9.01
15.91
21.9
26.59
29.97
32.3
34.02
35.48
36.87
38.22
39.51
40.71
41.89
43.1
44.35
45.58
46.58
47.15
47.14
46.56
45.55
44.36
43.14
41.88
40.28
37.89
34.24
29.07
22.51
15.14
7.92
1.92
-1.86
-2.76
-0.57
4.37
11.2
18.68
25.38
30.05
31.89
30.89
27.64
23.2
18.59
14.42
10.69
6.97
2.61
-2.96
-10.12
-19.11
-30.07
-42.81
-56.49
-69.31
-78.65
-81.72
-76.72
-63.67
-44.69
-23.24
-2.77
14.56
28.33
39.41
48.86
56.92
62.71
64.82
62.23
54.99
44.34
32.03
19.62
7.92
-2.87
-12.76
-21.48
-28.37
-32.61
-33.7
-31.82
-27.85
-23.08
-18.82
-16.02
-15.2
-16.41
-19.32
-23.3
-27.55
-31.33
-34.16
-35.96
-37.09
-38.11
-39.44
-41.18
-43.09
-44.76
-45.83
-45.97
-44.86
-41.89
-36.28
-27.4
-15.29
-0.93
13.91
27.21
37.46
44.14
47.85
49.79
51.18
52.65
54.12
55.01
54.7
52.94
49.93
46.13
41.93
37.4
32.3
26.33
19.37
11.78
4.27
-2.34
-7.5
-11.14
-13.72
-16.01
-18.83
-22.76
-27.99
-34.26
-40.93
-47.22
-52.35
-55.8
-57.4
-57.26
-55.68
-52.99
-49.48
-45.39
-40.92
-36.27
-31.54
-26.69
-21.57
-15.98
-9.78
-3.03
3.95
10.74
16.83
21.88
25.72
28.35
29.88
30.48
30.25
29.3
27.7
25.53
22.91
20.0
16.98
13.98
11.12
8.4
5.74
3.06
0.29
-2.53
-5.3
-7.9
-10.31
-12.63
-15.13
-18.1
-21.75
-26.07
-30.73
-35.17
-38.62
-40.34
-39.8
-36.88
-31.89
-25.51
-18.55
-11.76
-5.66
-0.5
3.68
6.91
9.27
10.83
11.67
11.97
11.93
11.8
11.74
11.81
11.96
12.11
12.19
12.2
12.19
12.27
12.53
13.05
13.87
14.96
16.2
17.41
18.34
18.79
18.65
17.92
16.74
15.23
13.53
11.76
9.98
8.27
6.7
5.33
4.14
3.06
2.0
0.86
-0.42
-1.85
-3.47
-5.26
-7.17
-9.13
-11.01
-12.68
-14.08
-15.26
-16.4
-17.77
-19.59
-22.0
-24.99
-28.37
-31.79
-34.78
-36.84
-37.43
-36.19
-33.0
-28.09
-22.02
-15.52
-9.33
-3.99
0.26
3.46
5.79
7.51
8.77
9.7
10.34
10.71
10.81
10.66
10.32
9.88
9.48
9.28
9.41
9.95
10.89
12.12
13.46
14.73
15.72
16.29
16.31
15.75
14.67
13.25
11.74
10.38
9.3
8.46
7.7
6.83
5.74
4.48
3.17
1.94
0.82
-0.32
-1.61
-3.2
-5.09
-7.13
-9.12
-10.9
-12.37
-13.57
-14.59
-15.58
-16.65
-17.91
-19.48
-21.51
-24.1
-27.21
-30.56
-33.52
-35.28
-35.02
-32.29
-27.24
-20.58
-13.39
-6.71
-1.25
2.76
5.5
7.29
8.46
9.2
9.65
9.93
10.16
10.46
10.8
11.1
11.19
10.99
10.55
10.11
9.93
10.23
11.07
12.32
13.74
15.06
16.04
16.57
16.63
16.25
15.48
14.38
13.03
11.55
10.05
8.68
7.49
6.42
5.34
4.15
2.83
1.54
0.49
-0.21
-0.59
-0.92
-1.5
-2.49
-3.84
-5.3
-6.59
-7.54
-8.14
-8.58
-9.08
-9.75
-10.63
-11.65
-12.73
-13.85
-15.07
-16.43
-18.0
-19.8
-21.84
-24.13
-26.61
-29.13
-31.32
-32.63
-32.47
-30.38
-26.28
-20.56
-13.98
-7.44
-1.65
3.0
6.45
8.89
10.55
11.61
12.21
12.47
12.57
12.66
12.84
13.14
13.46
13.61
13.49
13.07
12.47
11.94
11.75
12.06
12.87
13.99
15.17
16.13
16.75
17.02
17.04
16.89
16.54
15.94
15.03
13.85
12.55
11.35
10.42
9.83
9.48
9.21
8.87
8.38
7.78
7.15
6.54
5.96
5.36
4.67
3.88
3.01
2.1
1.19
0.3
-0.59
-1.55
-2.65
-3.95
-5.51
-7.27
-9.12
-10.9
-12.47
-13.82
-15.09
-16.58
-18.55
-21.06
-23.88
-26.44
-28.01
-27.96
-25.98
-22.23
-17.29
-11.95
-6.95
-2.75
0.53
3.05
5.08
6.79
8.22
9.29
9.88
9.89
9.37
8.42
7.23
5.99
4.91
4.15
3.82
3.96
4.54
5.48
6.65
7.89
9.08
10.04
10.67
10.88
10.67
10.1
9.31
8.42
7.55
6.7
5.83
4.82
3.64
2.31
0.94
-0.29
-1.28
-1.99
-2.54
-3.08
-3.81
-4.85
-6.25
-7.95
-9.82
-11.67
-13.37
-14.79
-15.9
-16.78
-17.58
-18.54
-19.93
-22.0
-24.89
-28.48
-32.31
-35.62
-37.5
-37.18
-34.34
-29.21
-22.52
-15.25
-8.3
-2.29
2.47
5.98
8.34
9.79
10.56
10.91
11.09
11.29
11.62
12.08
12.6
13.07
13.41
13.58
13.66
13.76
14.05
14.66
15.65
16.94
18.37
19.7
20.73
21.3
21.36
20.97
20.24
19.3
18.25
17.15
16.02
14.87
13.75
12.7
11.77
10.97
10.23
9.46
8.58
7.57
6.47
5.38
4.38
3.51
2.72
1.91
1.0
-0.1
-1.43
-2.99
-4.75
-6.74
-8.96
-11.42
-14.12
-17.0
-20.0
-23.11
-26.38
-29.88
-33.66
-37.54
-41.06
-43.56
-44.35
-42.96
-39.36
-34.01
-27.67
-21.11
-14.91
-9.34
-4.5
-0.45
2.73
5.03
6.54
7.54
8.35
9.25
10.27
11.31
12.15
12.66
12.83
12.78
12.68
12.74
13.1
13.84
14.94
16.26
17.57
18.6
19.11
19.01
18.35
17.2
15.71
14.02
12.27
10.65
9.28
8.16
7.19
6.13
4.81
3.18
1.38
-0.41
-2.0
-3.32
-4.44
-5.46
-6.52
-7.69
-8.98
-10.38
-11.89
-13.42
-14.93
-16.35
-17.69
-19.06
-20.63
-22.63
-25.17
-28.21
-31.44
-34.28
-35.98
-35.83
-33.34
-28.45
-21.58
-13.54
-5.28
2.34
8.72
13.59
16.97
19.04
20.13
20.58
20.77
20.97
21.35
21.91
22.49
22.88
22.93
22.63
22.12
21.63
21.37
21.47
21.93
22.68
23.54
24.32
24.86
25.0
24.65
23.81
22.55
21.03
19.43
17.87
16.44
15.13
13.9
12.67
11.37
9.99
8.54
7.06
