-63.56
-68.81
-71.5
-69.82
-62.7
-50.23
-33.77
-15.48
2.31
17.67
29.48
37.41
41.83
43.45
43.16
41.79
40.01
38.23
36.59
35.01
33.33
31.43
29.35
27.27
25.45
24.19
23.66
23.92
24.86
26.27
27.88
29.44
30.72
31.56
31.83
31.44
30.36
28.73
26.74
24.78
23.11
21.94
21.15
20.45
19.45
17.91
15.83
13.43
11.08
9.06
7.46
6.27
5.37
4.69
4.15
3.56
2.6
0.82
-2.18
-6.52
-12.01
-18.25
-24.89
-31.81
-39.3
-47.84
-57.61
-68.15
-78.09
-85.38
-87.99
-84.55
-74.99
-60.68
-43.91
-27.22
-12.63
-1.26
6.63
11.37
13.45
13.39
11.7
8.94
5.75
2.76
0.41
-1.14
-2.0
-2.44
-2.73
-3.04
-3.34
-3.49
-3.26
-2.4
-0.77
1.64
4.71
8.15
11.6
14.72
17.25
19.1
20.37
21.21
21.84
22.36
22.68
22.65
22.02
20.64
18.54
15.92
13.16
10.66
8.69
7.26
6.05
4.62
2.5
-0.55
-4.37
-8.56
-12.56
-15.94
-18.63
-20.88
-23.23
-26.28
-30.46
-35.92
-42.37
-49.02
-54.61
-57.64
-56.72
-51.08
-40.86
-27.19
-11.88
3.08
16.06
26.07
32.83
36.64
38.01
37.61
36.05
33.88
31.5
29.17
26.94
24.78
22.6
20.4
18.29
16.47
15.14
14.44
14.44
15.06
16.16
17.49
18.71
19.49
19.53
18.74
17.19
15.11
12.75
10.25
7.56
4.59
1.34
-2.03
-5.12
-7.6
-9.32
-10.48
-11.53
-12.97
-15.08
-17.83
-20.92
-23.97
-26.64
-28.82
-30.54
-31.99
-33.46
-35.3
-37.88
-41.55
-46.35
-51.75
-56.62
-59.34
-58.31
-52.44
-41.7
-27.18
-10.81
5.23
19.14
29.9
37.27
41.53
43.2
42.81
40.9
38.02
34.74
31.52
28.62
26.03
23.6
21.16
18.76
16.62
15.11
14.56
15.08
16.58
18.68
20.89
22.61
23.34
22.79
20.96
18.2
15.03
12.0
9.37
7.11
4.93
2.52
-0.28
-3.41
-6.59
-9.52
-12.03
-14.13
-16.01
-17.96
-20.23
-22.97
-26.14
-29.47
-32.68
-35.47
-37.74
-39.57
-41.19
-42.92
-45.16
-48.3
-52.57
-57.92
-63.61
-68.31
-70.18
-67.51
-59.38
-46.08
-29.21
-11.11
5.86
20.05
30.73
37.97
42.28
44.25
44.41
43.25
41.28
39.03
36.94
35.24
33.94
32.79
31.47
29.82
27.92
26.1
24.86
24.59
25.42
27.11
29.09
30.65
31.23
30.5
28.5
25.56
22.16
18.77
15.76
13.33
11.47
10.0
8.67
7.24
5.52
3.42
0.99
-1.6
-4.07
-6.16
-7.67
-8.58
-9.1
-9.6
-10.4
-11.67
-13.29
-14.94
-16.27
-17.09
-17.54
-18.05
-19.28
-21.88
-26.34
-32.67
-40.25
-47.72
-53.15
-54.56
-50.5
-40.57
-25.64
-7.55
11.43
29.24
44.43
56.25
64.51
69.34
71.21
70.81
69.07
67.01
65.44
64.7
64.55
64.38
63.51
61.56
58.62
55.16
51.84
49.21
47.55
46.81
46.64
46.53
45.96
44.54
42.06
38.55
34.2
29.3
24.13
18.94
13.88
9.05
4.5
0.21
-3.91
-7.96
-11.95
-15.81
-19.35
-22.35
-24.64
-26.22
-27.19
-27.8
-28.31
-28.96
-29.82
-30.79
-31.71
-32.41
-32.8
-32.93
-32.93
-33.01
-33.35
-34.15
-35.48
-37.3
-39.2
-40.5
-40.27
-37.66
-32.31
-24.57
-15.55
-6.77
0.32
4.8
6.43
5.68
3.3
0.15
-3.13
-6.21
-8.95
-11.37
-13.51
-15.34
-16.79
-17.76
-18.24
-18.31
-18.09
-17.7
-17.12
-16.27
-14.99
-13.15
-10.79
-8.13
-5.52
-3.34
-1.84
-1.09
-0.94
-1.1
-1.29
-1.33
-1.27
-1.34
-1.88
-3.16
-5.25
-8.02
-11.17
-14.4
-17.49
-20.4
-23.18
-25.92
-28.63
-31.29
-33.8
-36.07
-38.02
-39.6
-40.83
-41.82
-42.83
-44.27
-46.62
-50.34
-55.54
-61.83
-68.11
-72.75
-74.01
-70.64
-62.33
-49.97
-35.32
-20.46
-7.19
3.44
11.12
16.17
19.16
20.68
21.24
21.12
20.55
19.6
18.29
16.64
14.75
12.84
11.26
10.41
10.69
12.36
15.39
19.52
24.12
28.5
31.95
34.06
34.73
34.15
32.65
30.53
27.98
25.03
21.61
17.71
13.42
8.97
4.69
0.84
-2.44
-5.25
-7.86
-10.62
-13.73
-17.18
-20.74
-24.04
-26.8
-28.96
-30.64
-32.25
-34.3
-37.39
-41.96
-48.11
-55.34
-62.33
-67.17
-67.85
-62.9
-52.07
-36.45
-18.22
0.06
16.19
28.84
37.63
42.94
45.46
45.99
45.19
43.59
41.65
39.72
38.09
36.87
36.0
35.27
34.45
33.36
32.09
30.93
30.41
30.98
32.82
35.79
39.35
42.85
45.7
47.56
48.34
48.26
47.68
46.97
46.47
46.32
46.46
46.62
46.39
45.4
43.47
40.73
37.63
34.69
32.36
30.82
29.89
29.11
27.95
25.99
23.11
19.51
15.6
11.82
8.4
5.32
2.27
-1.25
-5.75
-11.59
-18.75
-26.74
-34.39
-40.05
-41.92
-38.63
-29.86
-16.65
-1.2
13.74
25.76
33.43
36.56
35.93
32.79
28.28
23.2
18.02
12.96
8.22
3.88
-0.08
-3.87
-7.84
-12.26
-17.16
-22.22
-26.9
-30.68
-33.26
-34.79
-35.76
-36.8
-38.47
-41.05
-44.64
-49.14
-54.46
-60.45
-66.99
-73.82
-80.55
-86.67
-91.6
-94.91
-96.35
-96.0
-94.21
-91.48
-88.28
-84.96
-81.63
-78.26
-74.76
-71.15
-67.65
-64.6
-62.54
-61.95
-63.2
-66.2
-70.12
-73.37
-73.72
-69.04
-57.99
-40.71
-18.94
4.54
26.79
45.55
59.81
69.59
75.59
78.61
79.4
78.52
76.56
74.08
71.6
69.4
67.47
65.6
63.57
61.3
58.96
56.84
55.26
54.4
54.2
54.37
54.45
53.94
52.42
49.67
45.66
40.62
34.95
29.1
23.48
18.36
13.77
9.61
5.61
1.44
-3.12
-8.14
-13.43
-18.67
-23.46
-27.53
-30.86
-33.76
-36.81
-40.8
-46.44
-54.05
-63.19
-72.46
-79.69
-82.45
-78.84
-68.27
-51.72
-31.53
-10.67
8.17
23.26
34.05
40.9
44.7
46.37
46.7
46.26
45.45
44.54
43.56
42.44
40.99
39.03
36.56
33.83
31.3
29.58
29.13
30.13
32.34
35.17
37.81
39.58
40.03
39.08
36.94
33.93
30.34
26.39
22.23
17.99
13.81
9.84
6.13
2.63
-0.85
-4.58
-8.8
-13.58
-18.8
-24.12
-29.12
-33.44
-36.93
-39.8
-42.52
-45.73
-50.07
-56.06
-63.82
-72.83
-81.74
-88.49
-90.63
-86.14
-74.24
-55.83
-33.41
-10.25
10.62
27.26
39.12
46.67
50.87
52.57
52.37
50.74
48.18
45.31
42.69
40.65
39.11
37.69
35.96
33.71
31.11
28.71
27.13
26.85
27.97
30.14
32.61
34.5
34.99
33.58
30.23
25.36
19.68
13.94
8.66
3.98
-0.35
-4.82
-9.86
-15.69
-22.14
-28.79
-35.1
-40.66
-45.35
-49.36
-53.16
-57.4
-62.77
-69.87
-78.84
-89.04
-98.92
-106.13
-108.16
-103.22
-91.08
-73.3
-52.74
-32.64
-15.55
-2.72
5.88
11.02
13.59
14.24
13.31
11.02
7.64
3.6
-0.66
-4.8
-8.59
-11.99
-15.04
-17.76
-20.14
-22.17
-23.79
-25.0
-25.89
-26.71
-27.85
-29.76
-32.86
-37.43
-43.65
-51.48
-60.79
-71.2
-81.89
-91.46
-97.92
-99.16
-93.64
-81.25
-63.81
-44.9
-29.08
-20.65
-22.41
-35.16
-57.85
-88.15
-123.1
-159.31
-192.94
-219.81
-236.02
-239.19
-229.51
-210.04
-185.82
-162.02
-142.13
-127.03
-115.38
-105.01
-94.42
-83.31
-72.44
-62.69
-54.29
-46.71
-39.03
-30.51
-20.94
-10.59
0.09
10.89
21.96
33.8
47.06
62.37
80.02
99.89
121.27
143.08
164.06
183.05
199.31
212.51
222.62
229.82
234.3
236.37
236.49
235.38
233.85
232.48
231.39
230.06
227.58
222.94
215.5
205.2
192.54
178.43
163.85
149.61
136.15
123.62
111.86
100.59
89.54
78.44
67.02
55.05
42.32
28.83
14.8
0.78
-12.45
-24.09
-33.55
-40.56
-45.12
-47.47
-47.83
-46.27
-42.79
-37.31
-29.99
-21.29
-12.19
-4.2
0.88
1.28
-4.22
-15.62
-31.34
-48.25
-62.36
-69.97
-68.91
-59.22
-43.08
-23.93
-5.26
10.49
22.29
30.28
35.1
37.39
37.51
35.68
32.2
27.64
22.64
17.77
13.22
8.86
4.33
-0.67
-6.26
-12.26
-18.3
-23.96
-28.84
-32.74
-35.56
-37.44
-38.68
-39.78
-41.29
-43.68
-47.22
-51.94
-57.66
-64.24
-71.63
-79.89
-88.97
-98.5
-107.66
-115.28
-120.24
-121.86
-120.16
-115.89
-110.11
-103.8
-97.48
-91.02
-83.84
-75.22
-64.77
-52.7
-39.97
-28.11
-18.83
-13.64
-13.26
-17.42
-24.61
-32.34
-37.65
-37.85
-31.2
-17.43
2.21
25.29
48.9
70.41
88.09
101.3
110.44
116.48
120.52
123.42
125.66
127.31
128.3
128.51
127.99
126.91
125.42
123.62
121.53
119.12
116.37
113.16
109.26
104.16
97.36
88.63
78.36
67.63
58.0
50.89
47.11
46.69
48.89
52.75
57.41
62.37
67.36
72.14
76.32
79.34
80.64
79.94
77.34
73.41
68.93
64.65
60.98
57.81
54.49
50.11
43.88
35.47
25.29
14.19
3.16
-7.12
-16.51
-25.34
-34.23
-43.89
-55.0
-68.03
-82.92
-98.6
-112.71
-121.88
-122.8
-113.52
-94.52
-68.86
-41.06
-15.43
5.45
21.31
33.64
44.63
55.95
68.37
81.86
96.01
110.34
124.46
137.84
149.76
159.32
165.69
168.29
167.1
162.62
155.82
147.85
139.74
132.03
124.7
117.18
108.78
99.02
87.98
76.3
64.93
54.68
45.92
38.45
31.73
25.18
18.45
11.52
4.6
-2.05
-8.29
-14.17
-19.77
-25.22
-30.52
-35.54
-40.08
-43.96
-47.12
-49.72
-52.02
-54.32
-56.83
-59.48
-62.01
-64.06
-65.4
-66.1
-66.57
-67.43
-69.31
-72.6
-77.2
-82.52
-87.42
-90.44
-90.1
-85.26
-75.6
-61.67
-44.92
-27.23
-10.44
4.06
15.59
24.05
29.73
33.09
34.59
34.73
33.98
32.75
31.35
29.89
28.32
26.58
24.73
23.05
21.96
21.88
23.02
25.27
28.19
31.15
33.53
34.86
35.0
34.05
32.31
30.08
27.6
24.98
22.23
19.38
16.44
13.47
10.5
7.5
4.31
0.73
-3.49
-8.52
-14.35
-20.82
-27.61
-34.33
-40.7
-46.65
-52.37
-58.31
-65.07
-73.16
-82.77
-93.53
-104.45
-113.98
-120.31
-121.9
-117.92
-108.68
-95.54
-80.61
-66.07
-53.51
-43.59
-36.09
-30.2
-25.07
-20.16
-15.29
-10.55
-6.13
-2.16
1.29
4.21
6.61
8.51
10.04
11.45
13.05
15.15
17.87
21.11
24.54
27.74
30.34
32.09
32.94
32.93
32.18
30.82
29.0
26.94
24.85
22.91
21.14
19.4
17.35
14.7
11.33
7.41
3.35
-0.39
-3.54
-6.11
-8.42
-10.94
-14.07
-18.0
-22.66
-27.75
-32.88
-37.71
-42.04
-45.87
-49.4
-53.03
-57.25
-62.55
-69.18
-76.88
-84.65
-90.85
-93.53
-91.06
-82.73
-69.16
-52.09
-33.88
-16.71
-2.08
9.44
18.03
24.22
28.61
31.69
33.86
35.49
36.88
38.25
39.6
40.73
41.36
41.25
40.38
39.05
37.73
36.93
36.96
37.83
39.24
40.72
41.83
42.23
41.8
40.59
38.78
36.55
34.05
31.36
28.51
25.48
22.32
19.11
15.99
13.1
10.47
7.97
5.43
2.64
-0.41
-3.61
-6.68
-9.37
-11.58
-13.43
-15.29
-17.56
-20.53
-24.19
-28.27
-32.3
-35.91
-38.95
-41.62
-44.34
-47.63
-51.97
-57.63
-64.59
-72.37
-79.91
-85.64
-87.77
-84.85
-76.34
-62.98
-46.55
-29.41
-13.73
-0.87
8.76
15.5
20.04
23.04
24.99
26.21
26.94
27.42
27.8
28.14
28.34
28.28
27.86
27.13
26.33
25.79
25.81
26.58
28.1
30.16
32.47
34.64
36.25
36.95
36.52
34.94
32.42
29.3
26.01
22.89
20.11
17.62
15.18
12.52
9.42
5.8
1.81
-2.27
-6.11
-9.46
-12.27
-14.71
-17.08
-19.71
-22.79
-26.27
-29.93
-33.42
-36.5
-39.09
-41.35
-43.65
-46.48
-50.3
-55.39
-61.66
-68.47
-74.61
-78.41
-78.23
-72.95
-62.51
-48.04
-31.56
-15.38
-1.34
9.62
17.53
22.99
26.75
29.32
30.93
31.63
31.58
31.01
30.22
29.38
28.53
27.53
26.36
25.15
24.2
23.86
24.35
25.63
27.42
29.33
30.96
32.04
32.46
32.19
31.28
29.83
27.92
25.68
23.15
20.42
17.55
14.63
11.71
8.77
5.76
2.55
-0.87
-4.41
-7.8
-10.76
-13.15
-15.08
-16.96
-19.23
-22.27
-26.16
-30.66
-35.27
-39.53
-43.13
-46.04
-48.51
-50.93
-53.8
-57.58
-62.64
-69.05
-76.32
-83.33
-88.27
-89.24
-84.72
-74.36
-59.13
-41.16
-22.98
-6.81
6.07
15.39
21.62
25.53
27.87
29.25
30.15
30.98
32.04
33.4
34.89
36.17
36.87
36.77
35.97
34.82
33.85
33.55
34.21
35.82
38.06
40.4
42.26
43.22
43.08
41.93
40.1
37.96
35.79
33.7
31.6
29.29
26.62
23.55
20.25
16.95
13.85
10.99
8.21
5.2
1.76
-2.13
-6.24
-10.15
-13.47
-16.02
-17.91
-19.55
-21.45
-24.0
-27.35
-31.34
-35.6
-39.74
-43.53
-46.98
-50.32
-53.97
-58.42
-64.06
-71.04
-79.04
-87.06
-93.43
-96.19
-93.62
-84.99
-70.93
-53.34
-34.76
-17.55
-3.23
7.7
15.61
21.16
24.99
27.58
29.29
30.48
31.51
32.65
33.87
34.96
35.58
35.48
34.68
33.5
32.44
32.02
32.55
34.04
36.23
38.64
40.75
42.14
42.58
42.07
40.82
39.13
37.3
35.47
33.61
31.51
29.0
25.97
22.55
19.04
15.81
13.09
10.84
8.8
6.57
3.82
0.49
-3.21
-6.87
-10.06
-12.58
-14.58
-16.48
-18.85
-22.06
-26.18
-30.88
-35.68
-40.09
-43.87
-47.05
-49.9
-52.88
-56.47
-61.15
-67.16
-74.28
-81.61
-87.53
-90.04
-87.4
-78.78
-64.74
-47.13
-28.51
-11.27
2.99
13.78
21.46
26.8
30.47
32.91
34.3
34.77
34.55
33.95
33.25
32.56
31.78
30.73
29.35
27.8
26.56
26.17
27.07
29.31
32.54
36.04
39.01
40.81
41.16
40.1
37.95
35.18
32.23
29.41
26.86
24.47
22.02
19.22
15.84
11.86
7.47
2.99
-1.2
-4.86
-7.95
-10.65
-13.28
-16.22
-19.72
-23.82
-28.31
-32.82
-36.96
-40.52
-43.59
-46.57
-50.1
-54.79
-61.07
-68.89
-77.5
-85.4
-90.61
-91.1
-85.49
-73.66
-56.92
-37.65
-18.54
-1.76
11.58
21.4
28.29
33.04
36.19
38.15
39.23
39.79
40.2
40.65
41.11
41.24
40.73
39.49
37.75
36.05
35.04
35.18
36.62
39.07
41.99
44.66
46.42
46.88
45.99
44.05
41.57
39.04
36.77
34.76
32.8
30.58
27.95
24.93
21.73
18.59
15.63
12.79
9.9
6.73
3.22
-0.56
-4.39
-8.01
-11.21
-13.92
-16.28
-18.57
-21.18
-24.43
-28.48
-33.19
-38.18
-42.98
-47.19
-50.66
-53.56
-56.3
-59.5
-63.78
-69.62
-77.08
-85.51
-93.4
-98.6
-98.84
-92.55
-79.59
-61.44
-40.76
-20.53
-3.12
10.32
19.84
26.28
30.62
33.61
35.7
37.15
38.22
39.24
40.46
41.86
43.13
43.75
43.37
41.99
40.06
38.39
37.74
38.52
40.61
43.4
46.03
47.77
48.23
47.43
45.69
43.48
41.14
38.84
36.56
34.16
31.53
28.61
25.49
22.34
19.39
16.81
14.66
12.83
11.02
8.89
6.17
2.78
-1.08
-5.06
-8.76
-11.91
-14.49
-16.75
-19.04
-21.8
-25.23
-29.33
-33.87
-38.46
-42.75
-46.53
-49.81
-52.83
-56.02
-59.92
-65.05
-71.61
-79.29
-86.99
-92.84
-94.65
-90.61
-80.05
-63.87
-44.31
-24.22
-6.16
8.35
18.97
26.22
30.95
33.89
35.57
36.39
36.79
37.23
38.02
39.13
40.17
40.57
39.93
38.24
36.04
34.16
33.37
34.03
35.99
38.62
41.16
42.98
43.81
43.69
42.85
41.54
39.91
37.95
35.59
32.81
29.68
26.4
23.15
20.1
17.23
14.4
11.4
8.06
4.42
0.68
-2.84
-5.87
-8.34
-10.45
-12.54
-15.03
-18.17
-21.9
-25.96
-29.94
-33.51
-36.5
-39.04
-41.44
-44.16
-47.68
-52.39
-58.44
-65.56
-72.85
-78.85
-81.75
-79.95
-72.63
-60.16
-44.06
-26.55
-9.84
4.43
15.5
23.34
28.39
31.23
32.39
32.38
31.64
30.61
29.55
28.56
27.56
26.4
25.04
23.59
22.38
21.81
22.18
23.55
25.74
28.36
30.95
33.11
34.51
34.96
34.38
32.81
30.41
27.51
24.48
21.68
19.26
17.14
15.01
12.48
9.35
5.65
1.65
-2.23
-5.66
-8.49
-10.84
-12.96
-15.22
-17.9
-21.15
-24.91
-28.98
-33.03
-36.82
-40.21
-43.29
-46.35
-49.84
-54.25
-59.95
-66.94
-74.63
-81.66
-86.14
-86.11
