-45.45
-50.62
-54.17
-54.74
-51.37
-43.94
-33.36
-21.28
-9.54
0.37
7.74
12.59
15.4
16.81
17.35
17.38
17.14
16.8
16.47
16.2
15.94
15.56
14.96
14.08
13.04
12.08
11.52
11.61
12.42
13.81
15.47
17.02
18.15
18.66
18.57
18.0
17.14
16.2
15.36
14.69
14.2
13.76
13.24
12.5
11.43
10.03
8.34
6.43
4.39
2.36
0.46
-1.2
-2.62
-3.96
-5.44
-7.25
-9.45
-11.88
-14.22
-16.19
-17.69
-18.86
-20.02
-21.62
-24.03
-27.49
-32.01
-37.22
-42.36
-46.19
-47.35
-44.74
-38.02
-27.85
-15.79
-3.74
6.69
14.62
19.99
23.33
25.34
26.6
27.52
28.34
29.28
30.51
32.11
33.94
35.71
37.08
37.85
38.13
38.28
38.89
40.55
43.62
48.11
53.61
59.4
64.63
68.51
70.6
70.84
69.56
67.25
64.38
61.22
57.73
53.69
48.92
43.42
37.42
31.29
25.41
19.95
14.87
9.97
5.04
-0.02
-5.1
-9.97
-14.39
-18.19
-21.38
-24.15
-26.77
-29.51
-32.57
-35.95
-39.48
-42.77
-45.44
-47.26
-48.25
-48.85
-49.78
-51.86
-55.62
-61.01
-67.31
-73.2
-77.17
-78.05
-75.49
-70.12
-63.41
-57.26
-53.38
-52.74
-55.28
-59.92
-64.93
-68.44
-69.01
-66.01
-59.74
-51.24
-41.89
-33.02
-25.5
-19.66
-15.4
-12.36
-10.15
-8.38
-6.7
-4.79
-2.35
0.73
4.29
7.89
10.93
12.9
13.57
13.1
11.92
10.56
9.37
8.42
7.51
6.3
4.53
2.15
-0.65
-3.54
-6.19
-8.4
-10.18
-11.75
-13.4
-15.32
-17.62
-20.13
-22.61
-24.74
-26.31
-27.28
-27.85
-28.47
-29.78
-32.42
-36.72
-42.41
-48.48
-53.29
-55.1
-52.6
-45.48
-34.59
-21.64
-8.63
2.82
11.85
18.41
22.94
26.01
28.08
29.44
30.28
30.83
31.31
31.83
32.39
32.8
32.91
32.63
32.08
31.5
31.2
31.35
31.98
32.96
34.11
35.26
36.23
36.88
37.1
36.79
35.88
34.37
32.37
30.06
27.68
25.44
23.49
21.8
20.18
18.35
16.07
13.26
10.06
6.8
3.86
1.53
-0.16
-1.41
-2.62
-4.17
-6.35
-9.24
-12.74
-16.6
-20.51
-24.15
-27.34
-30.09
-32.64
-35.45
-39.03
-43.73
-49.45
-55.45
-60.4
-62.75
-61.16
-55.08
-44.97
-32.22
-18.66
-6.02
4.49
12.41
17.86
21.3
23.31
24.44
25.18
25.96
27.04
28.5
30.09
31.44
32.18
32.13
31.44
30.55
29.93
29.94
30.72
32.09
33.76
35.42
36.81
37.76
38.14
37.88
36.97
35.51
33.67
31.69
29.73
27.85
25.98
24.02
21.92
19.74
17.63
15.7
13.97
12.33
10.64
8.79
6.8
4.78
2.88
1.16
-0.45
-2.12
-4.11
-6.63
-9.75
-13.4
-17.29
-21.05
-24.35
-26.98
-29.01
-30.74
-32.65
-35.26
-38.99
-43.98
-49.95
-56.07
-60.98
-63.14
-61.24
-54.77
-44.26
-31.23
-17.7
-5.53
4.1
10.91
15.37
18.23
20.19
21.69
22.98
24.14
25.28
26.42
27.52
28.34
28.67
28.33
27.39
26.18
25.17
24.82
25.34
26.68
28.51
30.39
31.95
32.92
33.25
32.98
32.23
31.08
29.57
27.72
25.57
23.15
20.58
17.92
15.2
12.43
9.62
6.82
4.16
1.78
-0.26
-2.01
-3.65
-5.48
-7.72
-10.47
-13.61
-16.88
-19.93
-22.5
-24.5
-26.06
-27.51
-29.28
-31.82
-35.47
-40.31
-46.02
-51.74
-56.15
-57.8
-55.51
-48.93
-38.72
-26.4
-13.85
-2.68
6.2
12.69
17.19
20.29
22.47
23.99
25.04
25.79
26.39
26.95
27.42
27.63
27.4
26.66
25.58
24.5
23.85
23.94
24.85
26.41
28.25
29.95
31.11
31.55
31.22
30.25
28.8
27.09
25.26
23.38
21.47
19.51
17.44
15.26
13.0
10.75
8.62
6.65
4.82
3.03
1.17
-0.79
-2.78
-4.71
-6.57
-8.43
-10.47
-12.89
-15.74
-18.92
-22.16
-25.13
-27.58
-29.42
-30.77
-31.97
-33.51
-35.97
-39.82
-45.14
-51.39
-57.39
-61.54
-62.29
-58.75
-51.04
-40.28
-28.21
-16.63
-6.83
0.62
5.81
9.24
11.49
13.03
14.25
15.42
16.76
18.39
20.23
22.03
23.41
24.07
23.93
23.21
22.36
21.83
21.94
22.73
24.07
25.67
27.21
28.42
29.08
29.1
28.52
27.53
26.39
25.29
24.28
23.18
21.79
19.97
17.78
15.51
13.45
11.75
10.29
8.79
6.97
4.72
2.18
-0.33
-2.49
-4.13
-5.35
-6.47
-7.84
-9.73
-12.16
-14.96
-17.81
-20.45
-22.73
-24.66
-26.41
-28.18
-30.3
-33.1
-36.89
-41.76
-47.33
-52.67
-56.34
-56.9
-53.42
-45.96
-35.6
-24.04
-13.05
-3.88
2.98
7.64
10.58
12.33
13.35
14.02
14.63
15.44
16.54
17.88
19.21
20.25
20.78
20.77
20.34
19.76
19.34
19.32
19.85
20.91
22.32
23.77
24.97
25.66
25.77
25.32
24.45
23.29
21.9
20.34
18.61
16.84
15.2
13.82
12.71
11.68
10.45
8.73
6.49
3.91
1.33
-0.89
-2.64
-4.0
-5.21
-6.52
-8.06
-9.84
-11.79
-13.88
-16.12
-18.55
-21.16
-23.81
-26.37
-28.77
-31.19
-33.97
-37.45
-41.6
-45.77
-48.71
-49.01
-45.66
-38.61
-28.8
-17.89
-7.59
0.91
7.17
11.39
14.05
15.62
16.46
16.85
17.05
17.31
17.8
18.52
19.3
19.87
20.05
19.81
19.31
18.91
19.03
20.04
22.07
24.93
28.19
31.24
33.6
35.0
35.46
35.21
34.51
33.59
32.63
31.79
31.25
31.12
31.37
31.79
32.04
31.84
31.02
29.64
27.87
25.9
23.78
21.39
18.51
14.96
10.71
6.0
1.16
-3.41
-7.39
-10.65
-13.29
-15.58
-17.98
-21.02
-25.19
-30.69
-37.23
-43.96
-49.56
-52.62
-52.18
-48.05
-40.93
-32.16
-23.18
-15.14
-8.62
-3.7
-0.18
2.17
3.51
3.99
3.8
3.26
2.71
2.41
2.46
2.75
3.06
3.21
3.09
2.81
2.6
2.74
3.5
4.91
6.78
8.7
10.22
10.98
10.89
10.13
9.04
7.93
6.94
5.99
4.87
3.38
1.41
-1.03
-3.84
-6.87
-9.95
-12.91
-15.6
-18.02
-20.26
-22.54
-25.06
-27.93
-31.08
-34.32
-37.47
-40.47
-43.3
-46.03
-48.71
-51.31
-53.8
-56.16
-58.36
-60.31
-61.91
-63.15
-64.37
-66.29
-69.89
-75.97
-84.57
-94.76
-104.67
-111.94
-114.29
-110.12
-98.87
-81.1
-58.42
-33.16
-7.78
15.67
36.17
53.89
69.91
85.48
101.21
116.49
129.53
138.04
140.11
134.91
122.92
105.83
86.1
66.72
50.81
41.22
39.59
45.33
55.09
63.59
65.57
58.24
42.57
22.83
4.31
-9.33
-17.53
-22.33
-26.43
-31.23
-35.97
-38.66
-37.69
-33.04
-26.27
-19.49
-14.0
-9.71
-5.51
-0.16
6.75
14.57
21.79
26.77
28.45
26.74
22.5
17.13
12.02
7.96
4.94
2.29
-0.71
-4.17
-7.29
-8.47
-6.03
0.99
12.2
25.95
39.77
51.3
58.95
62.25
61.68
58.21
52.86
46.37
39.11
31.24
22.98
14.84
7.7
2.66
0.59
1.67
5.11
9.34
12.41
12.74
9.57
3.07
-5.94
-16.35
-27.12
-37.39
-46.37
-53.32
-57.64
-59.13
-58.23
-55.98
-53.71
-52.55
-53.13
-55.26
-58.21
-61.05
-62.97
-63.5
-62.51
-60.16
-56.87
-53.38
-50.79
-50.32
-52.98
-59.07
-67.92
-77.98
-87.18
-93.57
-95.87
-93.8
-88.12
-80.25
-71.88
-64.43
-58.79
-55.16
-53.18
-52.05
-50.63
-47.6
-41.55
-31.24
-15.95
4.15
27.84
52.93
76.63
96.19
109.5
115.59
114.83
108.84
100.01
90.77
82.84
76.81
72.14
67.65
62.19
55.19
46.76
37.42
27.74
17.99
8.24
-1.49
-10.95
-19.47
-26.1
-29.85
-30.06
-26.7
-20.55
-13.15
-6.63
-3.09
-4.03
-9.71
-19.03
-29.89
-39.92
-47.37
-51.58
-53.03
-52.77
-51.91
-51.04
-50.15
-48.69
-45.87
-40.88
-33.12
-22.39
-8.97
6.36
22.38
37.88
51.89
63.88
73.63
81.04
85.86
87.76
86.55
82.46
76.35
69.6
63.71
59.75
58.03
58.01
58.62
58.85
58.19
56.9
55.68
55.14
55.31
55.49
54.66
52.01
47.47
41.8
36.1
31.3
27.67
24.8
21.95
18.57
14.52
10.06
5.52
1.05
-3.49
-8.27
-13.28
-18.15
-22.24
-24.99
-26.17
-25.98
-24.96
-23.68
-22.48
-21.46
-20.62
-20.04
-19.96
-20.78
-22.89
-26.5
-31.56
-37.67
-44.09
-49.77
-53.42
-53.8
-50.15
-42.51
-31.86
-19.83
-8.33
1.14
7.8
11.7
13.49
14.17
14.7
15.89
18.22
21.85
26.57
31.8
36.79
40.84
43.49
44.7
44.73
44.05
43.07
42.01
40.86
39.5
37.84
35.92
33.9
31.97
30.22
28.57
26.8
24.49
21.19
16.45
10.04
2.08
-6.83
-15.67
-23.32
-28.78
-31.55
-31.71
-29.87
-26.86
-23.51
-20.45
-18.05
-16.45
-15.61
-15.33
-15.37
-15.5
-15.62
-15.76
-16.11
-16.87
-18.21
-20.24
-22.99
-26.43
-30.42
-34.59
-38.22
-40.39
-40.26
-37.48
-32.33
-25.76
-18.88
-12.49
-6.76
-1.17
5.01
12.29
20.51
28.8
35.9
40.66
42.43
41.34
38.11
33.73
29.14
24.87
21.04
17.49
14.02
10.57
7.33
4.59
2.6
1.38
0.71
0.27
-0.25
-0.95
-1.81
-2.71
-3.58
-4.46
-5.47
-6.73
-8.24
-9.83
-11.24
-12.2
-12.56
-12.32
-11.59
-10.51
-9.23
-7.86
-6.45
-5.07
-3.82
-2.82
-2.27
-2.33
-3.21
-5.05
-7.89
-11.62
-15.95
-20.44
-24.61
-28.14
-30.87
-32.88
-34.27
-35.04
-34.94
-33.58
-30.58
-25.89
-19.89
-13.38
-7.27
-2.31
1.14
3.16
4.07
4.28
4.1
3.69
3.15
2.51
1.86
1.34
1.06
1.06
1.28
1.63
2.01
2.4
2.84
3.44
4.29
5.39
6.64
7.92
9.06
9.91
10.33
10.19
9.36
7.77
5.45
2.64
-0.26
-2.71
-4.34
-4.96
-4.75
-4.12
-3.53
-3.29
-3.42
-3.81
-4.28
-4.78
-5.38
-6.19
-7.17
-8.15
-8.85
-9.07
-8.77
-8.08
-7.24
-6.52
-6.17
-6.43
-7.56
-9.67
-12.64
-15.94
-18.72
-20.02
-19.11
-15.82
-10.55
-4.22
2.13
7.62
11.72
14.34
15.63
15.92
15.53
14.75
13.8
12.76
11.57
10.04
7.93
5.12
1.74
-1.77
-4.85
-6.99
-7.99
-7.99
-7.43
-6.78
-6.38
-6.34
-6.56
-6.88
-7.12
-7.2
-7.06
-6.71
-6.18
-5.52
-4.79
-4.06
-3.4
-2.88
-2.57
-2.57
-2.92
-3.57
-4.39
-5.15
-5.68
-5.94
-6.05
-6.22
-6.66
-7.42
-8.41
-9.39
-10.16
-10.66
-11.05
-11.63
-12.76
-14.71
-17.57
-21.15
-24.96
-28.29
-30.33
-30.44
-28.31
-24.15
-18.59
-12.47
-6.62
-1.58
2.47
5.6
8.04
10.06
11.88
13.68
15.51
17.32
18.9
19.97
20.32
19.87
18.77
17.37
16.03
15.04
14.53
14.48
14.76
15.18
15.56
15.67
15.28
14.17
12.24
9.57
6.46
3.35
0.6
-1.59
-3.28
-4.66
-5.93
-7.23
-8.6
-10.09
-11.75
-13.58
-15.47
-17.2
-18.51
-19.34
-19.89
-20.64
-22.14
-24.76
-28.57
-33.26
-38.3
-42.97
-46.52
-48.19
-47.42
-43.98
-38.07
-30.4
-21.96
-13.82
-6.83
-1.48
2.22
4.52
5.83
6.6
7.19
7.83
8.59
9.42
10.15
10.54
10.3
9.23
7.32
4.89
2.58
1.18
1.35
3.32
6.75
10.89
14.78
17.7
19.35
19.85
19.6
19.0
18.34
17.67
16.88
15.8
14.27
12.19
9.61
6.66
3.54
0.44
-2.54
-5.4
-8.23
-11.13
-14.16
-17.33
-20.66
-24.13
-27.68
-31.08
-33.98
-35.93
-36.61
-36.05
-34.76
-33.66
-33.78
-35.88
-40.02
-45.38
-50.46
-53.57
-53.35
-49.27
-41.75
-31.93
-21.3
-11.15
-2.37
4.68
9.98
13.67
16.01
17.32
17.94
18.22
18.35
18.31
17.87
16.77
14.88
12.42
9.87
7.9
7.1
7.82
10.04
13.47
17.58
21.77
25.41
28.06
29.47
29.74
29.24
28.53
28.15
28.41
29.33
30.62
31.79
32.37
32.05
30.7
28.43
25.46
22.07
18.51
14.9
11.24
7.48
3.53
-0.67
-5.13
-9.78
-14.61
-19.61
-24.84
-30.37
-36.3
-42.68
-49.6
-57.16
-65.37
-74.0
-82.43
-89.65
-94.4
-95.52
-92.37
-85.0
-74.1
-60.77
-46.21
-31.47
-17.38
-4.52
6.8
16.55
25.09
33.06
41.21
50.06
59.71
69.77
79.58
88.53
96.3
102.97
108.85
114.2
119.06
123.13
125.89
126.87
125.85
122.97
118.73
113.74
108.54
103.47
98.49
93.35
87.63
80.99
73.31
64.8
55.86
46.91
38.15
29.39
20.24
10.29
-0.56
-11.92
-23.09
-33.38
-42.35
-49.93
-56.27
-61.68
-66.63
-71.81
-78.08
-86.2
-96.28
-107.42
-117.66
-124.54
-125.81
-120.35
-108.44
-91.67
-72.39
-52.99
-35.35
-20.59
-9.17
-1.01
4.25
7.17
8.42
8.68
8.72
9.12
10.06
11.31
12.27
12.29
11.04
8.75
6.07
3.8
2.46
2.09
2.26
2.25
1.34
-1.04
-5.19
-11.12
-18.66
-27.42
-36.72
-45.65
-53.14
-58.17
-60.03
-58.46
-53.6
-45.78
-35.47
-23.13
-9.37
5.03
19.09
31.83
42.49
50.77
56.76
60.77
63.01
63.45
61.83
57.95
51.93
44.4
36.4
29.11
23.4
19.58
17.36
16.16
15.51
15.34
16.05
18.17
22.0
27.34
33.53
39.66
44.91
48.83
51.32
52.55
52.81
52.39
51.56
50.49
49.35
48.23
47.19
46.27
45.51
44.95
44.6
44.4
44.28
44.1
43.84
43.54
43.29
43.24
43.43
43.76
44.01
43.85
42.99
41.29
38.74
35.45
31.63
27.41
22.94
18.3
13.56
8.78
4.04
-0.58
-5.01
-9.15
-12.93
-16.37
-19.53
-22.5
-25.37
-28.14
-30.76
-33.15
-35.27
-37.15
-38.92
-40.77
-42.92
-45.61
-48.98
-52.99
-57.32
-61.28
-63.93
-64.34
-61.9
-56.6
-49.01
-40.13
-31.04
-22.57
-15.23
-9.16
-4.34
-0.66
1.97
3.7
4.68
5.12
5.26
5.32
5.42
5.69
6.18
6.92
7.9
9.02
10.2
11.34
12.44
13.51
14.59
15.68
16.66
17.41
17.81
17.79
17.35
16.56
15.45
14.05
12.37
10.49
8.57
6.8
5.32
4.13
3.07
1.87
0.33
-1.61
-3.83
-6.1
-8.19
-10.01
-11.54
-12.91
-14.33
-16.01
-18.17
-20.98
-24.32
-27.79
-30.59
-31.76
-30.47
-26.46
-20.15
-12.56
-4.94
1.64
6.59
9.85
11.7
12.51
12.52
11.8
10.36
8.21
5.42
2.16
-1.44
-5.26
-9.31
-13.63
-18.35
-23.59
-29.48
-36.1
-43.46
-51.42
-59.64
-67.55
-74.4
-79.34
-81.63
-80.76
-76.6
-69.38
-59.68
-48.2
-35.74
-23.01
-10.6
1.05
11.66
21.15
29.55
37.07
43.86
49.96
55.23
59.34
61.9
62.68
61.69
59.19
55.65
51.56
47.28
42.94
38.44
33.49
27.74
20.87
12.8
3.8
-5.42
-13.85
-20.42
-24.28
-25.18
-23.47
-20.05
-15.96
-12.15
-9.21
-7.36
-6.57
-6.68
-7.55
-9.04
-11.01
-13.19
-15.23
-16.57
-16.69
-15.06
-11.4
-5.72
1.67
10.22
19.3
28.31
36.74
44.12
50.03
54.08
55.95
55.54
53.13
49.45
45.61
42.85
42.09
43.63
47.08
51.46
55.68
58.93
61.03
62.36
63.58
65.32
67.92
71.49
75.92
81.16
87.18
94.02
101.6
109.67
117.63
124.6
129.4
130.72
127.29
118.19
103.02
82.12
56.59
28.17
-0.98
-28.58
-52.61
-71.7
-85.5
-94.69
-100.82
-105.9
-111.73
-119.47
-129.37
-140.82
-152.64
-163.41
-171.89
-177.14
-178.76
-177.01
-172.78
-167.47
-162.58
-159.17
-157.54
-157.12
-156.74
-155.14
-151.33
-144.78
-135.35
-123.07
-108.15
-91.17
-73.2
-55.71
-40.23
-27.81
-18.64
-12.09
-7.01
-2.39
2.23
6.56
9.63
10.09
6.51
-2.17
-16.26
-34.86
-55.71
-75.59
-91.06
-99.62
-100.56
-95.26
-86.66
-78.08
-71.99
-68.99
-67.59
-64.76
-57.1
-42.0
-18.63
11.82
46.54
81.89
114.25
140.65
159.24
169.29
171.29
166.71
157.79
147.07
136.85
128.79
123.67
121.5
121.74
123.79
127.25
132.1
138.62
147.05
157.27
168.4
178.7
185.83
187.38
181.63
168.09
147.68
122.48
95.15
68.24
43.71
22.66
5.32
-8.77
-20.48
-30.79
-40.48
-49.93
-59.04
-67.35
-74.32
-79.59
-83.1
-85.21
-86.53
-87.76
-89.47
-91.97
-95.19
-98.57
-101.12
-101.61
-98.91
-92.39
-82.17
-69.21
-54.99
-41.04
-28.46
-17.68
-8.53
-0.57
6.65
13.39
19.67
25.43
30.55
34.98
38.77
42.15
45.49
49.31
54.03
59.8
66.32
72.83
78.31
81.71
82.23
79.55
73.83
65.67
56.01
45.96
36.54
28.47
21.97
16.76
12.19
7.49
2.05
-4.35
-11.62
-19.4
-27.26
-34.85
-41.97
-48.66
-55.16
-61.88
-69.2
-77.14
-85.21
-92.24
-96.82
-97.75
-94.67
-88.22
-79.86
-71.19
-63.44
-57.08
-51.9
-47.44
-43.32
-39.42
-35.7
-32.04
-28.16
-23.74
-18.69
-13.26
-8.04
-3.69
-0.63
1.13
2.03
2.71
3.79
5.64
8.31
11.57
14.99
18.13
20.66
22.38
23.29
23.52
23.25
22.65
21.8
20.73
19.43
17.89
16.13
14.15
11.93
9.43
6.66
3.7
0.73
-2.04
-4.51
-6.74
-9.03
-11.81
-15.52
-20.44
-26.47
-33.04
-39.17
-43.66
-45.43
-43.99
-39.63
-33.49
-27.16
-22.2
-19.48
-18.99
-19.9
-21.01
-21.33
-20.35
-18.17
-15.27
-12.24
-9.56
-7.49
-6.05
-5.06
-4.15
-2.85
-0.61
2.94
7.85
13.8
20.15
26.17
31.28
35.16
37.77
39.27
39.9
39.83
39.15
37.81
35.69
32.6
28.45
23.23
17.01
9.88
1.89
-6.99
-16.78
-27.38
-38.53
-49.8
-60.69
-70.89
-80.23
-88.72
-96.4
-103.28
-109.39
-114.84
-119.9
-124.73
-129.08
-132.07
-132.27
-128.17
-118.84
-104.33
-85.74
-64.77
-43.17
-22.31
-2.96
14.52
30.13
43.97
56.22
67.06
76.53
84.47
90.41
93.78
94.17
91.62
86.74
80.72
75.18
71.9
72.43
77.84
88.32
102.94
119.74
136.11
149.36
157.48
159.57
155.86
147.43
135.65
121.78
106.82
91.58
76.87
63.55
52.37
43.72
37.48
33.0
29.34
25.57
21.03
15.31
8.34
0.29
-8.49
-17.42
-25.77
-32.76
-37.77
-40.47
-40.92
-39.4
-36.41
-32.37
-27.59
-22.25
-16.47
-10.35
-3.95
2.74
9.79
17.33
25.48
34.24
43.46
52.87
62.05
70.47
77.54
82.74
85.79
86.79
86.3
85.09
83.84
82.84
81.77
79.9
76.39
70.69
62.79
53.14
42.41
31.17
19.7
7.99
-4.15
-16.87
-30.3
-44.39
-58.91
-73.43
-87.32
-99.83
-110.3
-118.32
-123.85
-127.14
-128.52
-128.17
-126.11
-122.25
-116.64
-109.59
-101.67
-93.47
-85.42
-77.57
-69.65
-61.3
-52.28
-42.69
-32.97
-23.74
-15.56
-8.71
-3.18
1.25
4.82
7.64
9.76
11.27
12.42
13.62
15.2
17.19
19.21
20.63
20.91
19.9
17.91
15.56
13.47
12.05
11.48
11.87
13.37
16.19
20.43
25.85
31.77
37.03
40.23
40.07
35.73
27.27
15.67
2.69
-9.76
-20.24
-28.29
-34.49
-39.98
-45.74
-51.95
-57.95
-62.57
-64.78
-64.19
-61.13
-56.4
-50.83
-44.9
-38.73
-32.29
-25.59
-18.87
-12.51
-6.87
-2.12
1.8
5.1
7.93
10.29
11.99
12.76
12.41
11.01
8.91
6.65
4.86
3.91
3.85
4.42
5.13
5.46
5.14
4.13
2.66
1.05
-0.47
-1.8
-3.07
-4.52
-6.37
-8.79
-11.7
-14.88
-18.03
-20.87
-23.3
-25.44
-27.57
-30.07
-33.25
-37.27
-42.03
-47.18
-52.13
-56.15
-58.58
-58.96
-57.2
-53.58
-48.68
-43.15
-37.51
-32.05
-26.84
-21.81
-16.94
-12.31
-8.08
-4.43
-1.46
0.88
2.75
4.38
5.99
7.75
9.84
12.57
16.34
21.62
28.75
37.73
48.13
59.1
69.6
78.64
85.56
90.11
92.43
92.88
91.82
89.53
86.09
81.48
75.65
68.64
60.61
51.86
42.79
33.83
25.38
17.7
10.97
5.19
0.21
-4.26
-8.62
-13.27
-18.55
-24.55
-31.0
-37.26
-42.41
-45.54
-45.99
-43.64
-38.9
-32.55
-25.45
-18.28
-11.44
-5.07
0.79
6.03
10.44
13.87
16.21
17.53
18.01
17.84
17.12
15.89
14.17
12.07
9.81
7.71
6.04
4.95
4.44
4.39
4.66
5.12
5.67
6.22
6.61
6.7
6.39
5.63
4.46
3.0
1.34
-0.4
-2.2
-4.03
-5.92
-7.92
-10.1
-12.53
-15.23
-18.15
-21.12
-23.9
-26.27
-28.06
-29.26
-30.02
-30.63
-31.42
-32.68
-34.64
-37.38
-40.84
-44.88
-49.29
-53.9
-58.6
-63.39
-68.36
-73.52
-78.75
-83.68
-87.74
-90.34
-91.02
-89.74
-86.78
-82.73
-78.11
-73.2
-67.85
-61.59
-53.81
-44.07
-32.31
-18.99
-4.96
8.73
21.12
31.6
40.15
47.36
54.27
62.03
71.38
82.23
93.57
103.69
110.7
113.32
111.27
105.43
97.54
89.57
83.03
78.39
74.95
71.1
64.92
54.95
40.81
23.49
5.08
-11.85
-25.15
-33.58
-37.07
-36.42
-32.78
-27.18
-20.29
-12.52
-4.21
4.21
12.07
18.55
22.89
24.52
23.28
19.43
13.62
6.72
-0.42
-7.06
-12.73
-17.18
-20.3
-22.05
-22.43
-21.49
-19.44
-16.6
-13.39
-10.14
-7.01
-4.01
-0.98
2.24
5.73
9.43
13.14
16.49
19.08
20.55
20.67
19.33
16.46
11.91
5.37
-3.48
-14.68
-27.71
-41.33
-53.93
-64.01
-70.68
-73.83
-73.88
-71.3
-66.17
-58.25
-47.31
-33.59
-18.08
-2.2
12.7
25.93
37.6
48.4
59.02
69.64
79.75
88.36
94.43
97.29
96.77
93.11
86.81
78.3
67.99
56.25
43.62
30.91
19.19
9.56
2.88
-0.5
-0.85
1.01
4.01
7.08
9.47
10.77
10.91
9.98
8.15
5.66
2.85
0.14
-2.07
-3.56
-4.41
-4.99
-5.8
-7.26
-9.47
-12.16
-14.81
-16.84
-17.8
-17.54
-16.19
-14.03
-11.46
-8.83
-6.39
-4.23
-2.19
0.12
3.32
8.08
14.94
24.11
35.33
47.94
61.01
73.56
84.76
94.08
101.32
106.58
110.09
112.13
112.88
112.38
110.45
106.77
100.97
92.75
81.94
68.68
53.4
36.78
19.66
2.89
-12.8
-26.95
-39.37
-50.09
-59.32
-67.3
-74.22
-80.16
-85.15
-89.12
-91.96
-93.59
-93.9
-92.87
-90.54
-86.97
-82.21
-76.23
-68.87
-59.87
-48.96
-35.92
-20.78
-3.89
14.04
32.04
48.98
63.83
75.84
84.64
90.23
92.9
93.05
91.12
87.5
82.52
76.4
69.25
61.04
51.71
41.31
30.11
18.72
7.99
-1.25
-8.41
-13.36
-16.47
-18.6
-20.84
-24.22
-29.37
-36.21
-43.73
-50.13
-53.19
-50.88
-42.12
-27.24
-8.16
12.06
29.94
42.48
47.92
46.1
38.3
26.7
13.69
1.28
-9.28
-17.55
-23.71
-28.38
-32.49
-37.03
-42.81
-50.23
-59.0
-68.22
-76.61
-82.95
-86.59
-87.62
-86.86
-85.46
-84.46
-84.43
-85.26
-86.22
-86.24
-84.24
-79.5
-71.86
-61.77
-50.24
-38.48
-27.68
-18.73
-12.04
-7.63
-5.16
-4.09
-3.9
-4.18
-4.65
-5.2
-5.71
-6.03
-5.99
-5.42
-4.3
-2.72
-0.9
0.98
2.83
4.68
6.62
8.67
10.7
12.48
13.71
14.21
13.96
13.07
11.73
10.14
8.38
6.48
4.44
2.2
-0.25
-2.95
-5.88
-8.99
-12.15
-15.21
-18.03
-20.55
-22.81
-24.96
-27.13
-29.45
-31.96
-34.66
-37.47
-40.19
-42.42
-43.44
-42.39
-38.38
-30.85
-19.77
-5.73
10.18
26.74
42.8
57.48
70.24
80.73
88.81
94.42
97.61
98.53
97.38
94.41
89.85
83.98
77.09
69.53
61.59
53.5
45.36
37.19
29.04
21.04
13.38
6.27
-0.15
-5.86
-10.88
-15.22
-18.88
-21.92
-24.43
-26.63
-28.68
-30.62
-32.26
-33.29
-33.44
-32.64
-31.13
-29.37
-27.81
-26.74
-26.17
-25.92
-25.76
-25.59
-25.47
-25.65
-26.44
-28.13
-30.86
-34.54
-38.74
-42.68
-45.35
-45.76
-43.22
-37.69
-29.78
-20.6
-11.37
-3.07
3.77
9.09
13.18
16.43
19.22
21.77
24.12
26.2
27.91
29.14
30.01
30.73
31.61
32.89
34.63
36.73
39.01
41.37
43.93
47.02
51.11
56.62
63.83
72.68
82.69
92.83
101.52
106.8
106.78
100.11
86.52
66.94
43.3
18.03
-6.59
-28.87
-47.88
-63.28
-75.1
-83.49
-88.74
-91.36
-92.1
-91.92
-91.81
-92.59
-94.75
-98.34
-102.99
-107.99
-112.43
-115.44
-116.23
-114.26
-109.25
-101.2
-90.42
-77.46
-63.1
-48.21
-33.7
-20.22
-8.13
2.6
12.31
21.5
30.68
40.28
50.57
61.68
73.57
86.04
98.66
110.83
121.84
131.0
137.73
141.55
142.05
138.82
131.43
119.62
103.42
83.39
60.58
36.5
12.72
-9.31
-28.52
-44.36
-56.7
-65.88
-72.52
-77.52
-81.79
-86.08
-90.67
-95.39
-99.61
-102.62
-103.95
-103.56
-101.78
-99.02
-95.52
-91.14
-85.5
-78.21
-69.15
-58.53
-46.84
-34.62
-22.36
-10.51
0.53
10.29
18.36
24.48
28.68
31.36
33.14
34.72
36.7
39.5
43.35
48.37
54.62
62.01
70.2
78.64
86.64
93.67
99.52
104.33
108.21
111.04
112.14
110.54
105.38
96.34
83.97
69.5
54.37
39.76
26.3
14.02
2.7
-7.98
-18.17
-27.85
-36.84
-44.93
-51.87
-57.5
-61.65
-64.29
-65.48
-65.33
-63.93
-61.23
-57.06
-51.23
-43.72
-34.86
-25.38
-16.27
-8.52
-2.87
0.27
0.9
-0.7
-3.99
-8.2
-12.38
-15.49
-16.61
-15.16
-11.09
-4.81
2.85
11.0
18.9
26.09
32.41
37.87
42.42
45.86
47.72
47.47
44.69
39.32
31.82
23.03
13.92
5.27
-2.44
-9.17
-15.05
-20.26
-24.92
-29.0
-32.5
-35.53
-38.29
-41.12
-44.32
-48.08
-52.4
-57.18
-62.25
-67.42
-72.44
-76.89
-80.12
-81.41
-80.12
-76.06
-69.59
-61.63
-53.44
-46.22
-40.82
-37.56
-36.3
-36.61
-38.0
-40.09
-42.66
-45.66
-49.19
-53.35
-58.13
-63.42
-68.95
-74.42
-79.53
-84.1
-88.02
-91.2
-93.46
-94.48
-93.85
-91.2
-86.28
-78.98
-69.36
-57.56
-43.78
-28.23
-11.16
7.18
26.46
46.39
66.83
87.82
109.54
132.12
155.29
178.22
199.54
217.73
231.57
240.6
245.13
245.92
243.77
239.18
232.43
223.81
213.83
203.17
192.34
181.41
169.94
157.3
143.14
127.71
111.63
95.48
79.35
62.69
44.68
24.8
3.25
-18.94
-40.31
-59.43
-75.36
-87.65
-96.29
-101.43
-103.24
-101.92
-97.86
-91.74
-84.49
-77.24
-71.03
-66.58
-64.13
-63.35
-63.57
-63.95
-63.76
-62.58
-60.38
-57.42
-54.15
-51.06
-48.58
-47.07
-46.75
-47.74
-50.04
-53.58
-58.18
-63.56
-69.32
-74.98
-80.04
-84.2
-87.45
-90.12
-92.79
-96.03
-100.06
-104.6
-108.65
-110.77
-109.38
-103.17
-91.52
-74.66
-53.64
-30.04
-5.57
18.35
40.88
61.9
81.8
101.27
120.9
140.87
160.92
180.19
197.38
210.94
219.37
221.65
217.58
208.01
194.6
179.38
164.17
150.13
137.57
126.24
115.71
105.66
96.0
86.74
77.8
68.99
60.07
50.93
41.61
32.26
22.94
13.48
3.45
-7.69
-20.33
-34.53
-49.9
-65.76
-81.36
-96.11
-109.77
-122.4
-134.29
-145.68
-156.67
-167.09
-176.62
-184.8
-191.2
-195.51
-197.64
-197.67
-195.82
-192.21
-186.66
