-0.99
0.3
1.22
1.85
2.31
2.83
3.6
4.71
6.04
7.28
8.15
8.48
8.36
8.05
7.82
7.89
8.28
8.95
9.77
10.64
11.39
11.9
12.1
11.99
11.69
11.32
10.98
10.57
9.96
8.95
7.5
5.72
3.85
2.1
0.58
-0.74
-2.0
-3.3
-4.72
-6.2
-7.68
-9.08
-10.37
-11.57
-12.7
-13.78
-14.79
-15.69
-16.48
-17.27
-18.28
-19.69
-21.54
-23.5
-24.98
-25.21
-23.61
-20.06
-14.96
-9.14
-3.48
1.32
4.95
7.44
8.99
9.85
10.22
10.27
10.2
10.17
10.33
10.7
11.22
11.71
12.0
11.94
11.49
10.74
9.9
9.21
8.9
9.05
9.64
10.46
11.25
11.78
11.92
11.68
11.16
10.49
9.75
8.96
8.09
7.09
5.96
4.76
3.6
2.56
1.69
0.92
0.16
-0.77
-1.96
-3.46
-5.25
-7.2
-9.19
-11.14
-13.06
-15.09
-17.4
-20.15
-23.35
-26.79
-29.95
-32.14
-32.7
-31.23
-27.79
-22.92
-17.44
-12.21
-7.9
-4.75
-2.68
-1.33
-0.34
0.62
1.69
2.95
4.42
6.04
7.75
9.38
10.72
11.53
11.65
11.07
10.01
8.86
8.09
8.03
8.75
10.05
11.54
12.85
13.71
14.05
13.88
13.33
12.48
11.43
10.3
9.15
8.07
7.1
6.26
5.56
4.99
4.51
4.0
3.33
2.4
1.21
-0.11
-1.38
-2.46
-3.34
-4.18
-5.19
-6.57
-8.36
-10.46
-12.64
-14.67
-16.4
-17.86
-19.19
-20.63
-22.41
-24.73
-27.6
-30.83
-33.99
-36.47
-37.63
-36.95
-34.23
-29.65
-23.79
-17.47
-11.47
-6.4
-2.53
0.22
2.11
3.52
4.78
6.12
7.65
9.34
11.05
12.59
13.8
14.58
14.95
15.01
14.91
14.76
14.67
14.68
14.83
15.13
15.56
15.98
16.27
16.31
16.1
15.77
15.46
15.34
15.39
15.5
15.43
15.03
14.24
13.21
12.15
11.24
10.55
9.97
9.32
8.43
7.18
5.64
3.93
2.25
0.72
-0.6
-1.75
-2.89
-4.2
-5.89
-8.0
-10.48
-13.09
-15.57
-17.75
-19.54
-21.05
-22.42
-23.85
-25.55
-27.72
-30.46
-33.67
-36.89
-39.3
-39.94
-38.14
-33.78
-27.45
-20.24
-13.25
-7.31
-2.73
0.56
2.82
4.3
5.26
5.97
6.74
7.87
9.43
11.27
13.03
14.33
14.98
15.01
14.68
14.28
14.09
14.23
14.74
15.61
16.73
17.94
19.0
19.7
19.91
19.67
19.14
18.49
17.85
17.23
16.56
15.72
14.67
13.39
11.9
10.28
8.61
7.0
5.53
4.21
3.01
1.8
0.47
-1.06
-2.78
-4.66
-6.64
-8.72
-10.94
-13.31
-15.8
-18.3
-20.71
-22.96
-25.08
-27.17
-29.41
-32.02
-35.21
-39.07
-43.48
-47.93
-51.59
-53.49
-52.88
-49.57
-43.96
-36.99
-29.67
-22.8
-16.75
-11.57
-7.15
-3.4
-0.3
2.19
4.26
6.2
8.31
10.73
13.41
16.11
18.59
20.73
22.59
24.47
26.66
29.45
32.92
36.92
41.08
44.89
47.92
49.86
50.66
50.48
49.58
48.27
46.76
45.14
43.4
41.42
39.07
36.2
32.71
28.62
24.01
19.03
13.85
8.59
3.33
-1.91
-7.13
-12.29
-17.37
-22.28
-26.93
-31.23
-35.08
-38.44
-41.42
-44.28
-47.42
-51.15
-55.47
-59.9
-63.49
-65.11
-63.89
-59.56
-52.59
-44.04
-35.13
-26.89
-19.95
-14.47
-10.3
-7.15
-4.63
-2.39
-0.02
2.81
6.29
10.39
14.83
19.14
22.85
25.63
27.39
28.3
28.71
29.0
29.45
30.19
31.12
32.08
32.83
33.24
33.22
32.82
32.14
31.3
30.35
29.32
28.2
26.98
25.69
24.36
23.04
21.72
20.4
19.06
17.72
16.41
15.15
13.91
12.64
11.21
9.53
7.56
5.31
2.86
0.33
-2.18
-4.58
-6.88
-9.18
-11.69
-14.67
-18.36
-22.73
-27.4
-31.6
-34.36
-34.8
-32.5
-27.68
-21.13
-13.98
-7.29
-1.76
2.3
5.0
6.6
7.46
7.91
8.27
8.76
9.5
10.45
11.4
12.15
12.48
12.36
11.86
11.2
10.61
10.26
10.26
10.6
11.25
12.1
13.07
13.97
14.62
14.81
14.39
13.36
11.85
10.13
8.47
7.05
5.86
4.74
3.48
1.89
-0.05
-2.25
-4.56
-6.83
-8.95
-10.86
-12.58
-14.16
-15.72
-17.39
-19.35
-21.77
-24.71
-28.07
-31.51
-34.49
-36.3
-36.32
-34.16
-29.85
-23.88
-17.06
-10.31
-4.37
0.38
3.91
6.45
8.3
9.7
10.81
11.73
12.51
13.21
13.86
14.46
14.89
15.05
14.88
14.43
13.87
13.42
13.27
13.45
13.92
14.47
14.93
15.15
15.08
14.76
14.21
13.42
12.35
10.98
9.32
7.48
5.58
3.76
2.04
0.38
-1.35
-3.25
-5.32
-7.46
-9.54
-11.43
-13.12
-14.67
-16.27
-18.18
-20.66
-23.89
-27.78
-31.9
-35.43
-37.4
-37.0
-33.9
-28.47
-21.62
-14.52
-8.17
-3.15
0.47
2.93
4.64
5.94
7.06
8.16
9.37
10.77
12.34
13.95
15.33
16.15
16.19
15.42
14.06
12.49
11.17
10.42
10.35
10.81
11.46
11.88
11.78
11.02
9.74
8.22
6.72
5.39
4.16
2.82
1.17
-0.9
-3.28
-5.73
-8.0
-9.87
-11.28
-12.24
-12.81
-12.99
-12.76
-12.06
-10.85
-9.15
-7.12
-5.0
-3.12
-1.8
-1.31
-1.82
-3.4
-6.04
-9.57
-13.57
-17.39
-20.18
-21.17
-19.9
-16.44
-11.3
-5.28
0.82
6.48
11.43
15.61
19.01
21.62
23.39
24.3
24.45
24.0
23.09
21.79
20.07
17.82
14.99
11.66
8.12
4.81
2.21
0.63
0.14
0.56
1.59
2.97
4.55
6.27
8.04
9.72
11.09
11.94
12.26
12.22
12.15
12.31
12.82
13.5
14.05
14.15
13.67
12.69
11.46
10.25
9.24
8.45
7.74
6.97
5.99
4.77
3.33
1.74
0.1
-1.48
-2.93
-4.19
-5.25
-6.22
-7.3
-8.72
-10.69
-13.26
-16.2
-19.03
-21.08
-21.73
-20.55
-17.54
-13.16
-8.09
-3.11
1.17
4.38
6.43
7.42
7.58
7.17
6.47
5.76
5.22
4.96
4.92
4.98
4.95
4.67
4.07
3.18
2.16
1.23
0.62
0.44
0.71
1.25
1.82
2.21
2.32
2.2
1.97
1.73
1.46
1.07
0.41
-0.62
-2.0
-3.55
-5.01
-6.13
-6.76
-6.96
-6.92
-6.93
-7.33
-8.29
-9.84
-11.87
-14.13
-16.38
-18.39
-20.04
-21.3
-22.28
-23.22
-24.34
-25.74
-27.26
-28.47
-28.73
-27.47
-24.37
-19.56
-13.52
-6.96
-0.55
5.23
10.17
14.28
17.64
20.39
22.69
24.71
26.64
28.61
30.65
32.63
34.23
35.09
34.89
33.56
31.27
28.45
25.61
23.15
21.33
20.08
19.16
18.26
17.11
15.58
13.7
11.6
9.45
7.32
5.22
3.11
0.93
-1.32
-3.6
-5.8
-7.86
-9.71
-11.29
-12.61
-13.71
-14.7
-15.76
-17.06
-18.67
-20.48
-22.26
-23.74
-24.75
-25.29
-25.61
-26.04
-26.87
-28.34
-30.45
-33.03
-35.7
-37.87
-38.86
-38.13
-35.36
-30.75
-24.89
-18.62
-12.75
-7.85
-4.12
-1.47
0.34
1.56
2.45
3.25
4.15
5.26
6.59
7.98
9.2
10.04
10.37
10.2
9.67
9.01
8.48
8.28
8.52
9.15
10.0
10.84
11.46
11.76
11.76
11.6
11.44
11.4
11.44
11.43
11.16
10.44
9.23
7.62
5.81
4.03
2.43
1.04
-0.21
-1.45
-2.79
-4.28
-5.93
-7.72
-9.61
-11.55
-13.48
-15.3
-16.95
-18.48
-20.04
-21.92
-24.31
-27.23
-30.34
-33.02
-34.45
-33.99
-31.36
-26.85
-21.14
-15.15
-9.61
-5.0
-1.39
1.35
3.47
5.14
6.49
7.61
8.59
9.54
10.51
11.47
12.29
12.78
12.82
12.43
11.77
11.12
10.75
10.82
11.29
12.01
12.73
13.27
13.52
13.52
13.35
13.05
12.64
12.03
11.14
9.97
8.59
7.14
5.72
4.41
3.19
2.01
0.76
-0.59
-2.08
-3.71
-5.48
-7.36
-9.27
-11.13
-12.87
-14.45
-15.99
-17.7
-19.86
-22.63
-25.98
-29.51
-32.53
-34.24
-33.99
-31.52
-27.09
-21.37
-15.16
-9.21
-4.02
0.2
3.44
5.81
7.52
8.83
10.03
11.34
12.91
14.7
16.52
18.13
19.24
19.64
19.26
18.13
16.44
14.57
12.93
11.9
11.69
12.2
13.06
13.81
14.02
13.53
12.43
11.0
9.57
8.32
7.21
6.07
4.67
2.9
0.83
-1.38
-3.52
-5.49
-7.29
-9.03
-10.82
-12.76
-14.97
-17.54
-20.48
-23.71
-26.87
-29.38
-30.54
-29.75
-26.83
-22.03
-16.1
-9.99
-4.54
-0.27
2.74
4.78
6.29
7.62
8.96
10.28
11.48
12.49
13.25
13.76
13.99
13.91
13.47
12.73
11.87
11.16
10.8
10.88
11.27
11.73
11.98
11.86
11.34
10.5
9.43
8.21
6.85
5.35
3.68
1.83
-0.17
-2.25
-4.33
-6.31
-8.1
-9.66
-11.05
-12.46
-14.13
-16.32
-19.16
-22.49
-25.82
-28.42
-29.46
-28.35
-24.98
-19.76
-13.5
-7.11
-1.37
3.32
6.86
9.41
11.15
12.33
13.17
13.94
14.89
16.13
17.58
18.93
19.77
19.78
18.87
17.27
15.42
13.8
12.81
12.61
13.13
14.13
15.23
16.09
16.4
16.05
15.06
13.6
11.91
10.24
8.76
7.56
6.61
5.8
4.96
3.91
2.54
0.78
-1.29
-3.54
-5.77
-7.83
-9.67
-11.31
-12.82
-14.32
-15.97
-17.94
-20.39
-23.31
-26.45
-29.24
-30.94
-30.87
-28.72
-24.64
-19.26
-13.4
-7.81
-2.95
1.03
4.18
6.66
8.6
10.17
11.53
12.87
14.32
15.88
17.4
18.62
19.32
19.38
18.88
17.98
16.9
15.86
15.02
14.47
14.24
14.33
14.65
15.14
15.69
16.17
16.47
16.49
16.19
15.57
14.73
13.87
13.13
12.58
12.15
11.64
10.83
9.61
8.01
6.22
4.51
3.12
2.16
1.53
1.03
0.38
-0.65
-2.14
-4.0
-6.06
-8.12
-10.0
-11.63
-13.01
-14.27
-15.61
-17.29
-19.57
-22.56
-26.06
-29.57
-32.38
-33.7
-32.99
-30.16
-25.56
-19.93
-14.1
-8.76
-4.34
-0.93
1.64
3.6
5.23
6.68
8.05
9.38
10.69
11.95
13.08
13.99
14.53
14.6
14.16
13.28
12.15
10.98
9.96
9.22
8.81
8.67
8.67
8.68
8.55
8.18
7.54
6.69
5.78
4.94
4.22
3.55
2.76
1.68
0.28
-1.36
-3.08
-4.73
-6.25
-7.73
-9.23
-10.8
-12.35
-13.69
-14.58
-14.8
-14.23
-12.77
-10.47
-7.55
-4.35
-1.37
0.88
1.97
1.68
0.03
-2.74
-6.2
-9.8
-12.94
-15.01
-15.6
-14.47
-11.73
-7.79
-3.28
1.13
4.85
7.56
9.14
9.7
9.46
8.66
7.56
6.36
5.19
4.16
3.38
2.91
2.76
2.83
2.95
2.95
2.74
2.35
1.96
1.83
2.13
2.91
4.05
5.29
6.37
7.12
7.47
7.53
7.44
7.34
7.31
7.34
7.39
7.37
7.25
7.02
6.73
6.41
6.02
5.5
4.76
3.75
2.42
0.78
-1.17
-3.44
-6.05
-8.98
-12.19
-15.57
-19.07
-22.68
-26.48
-30.53
-34.77
-38.83
-42.1
-43.9
-43.76
-41.63
-37.98
-33.57
-29.2
-25.5
-22.78
-21.11
-20.42
-20.61
-21.46
-22.64
-23.76
-24.42
-24.35
-23.54
-22.15
-20.42
-18.52
-16.54
-14.43
-12.06
-9.3
-5.98
-1.99
2.73
8.03
13.57
18.76
22.96
25.55
26.21
24.98
22.33
18.94
15.59
12.78
10.62
8.72
6.43
3.16
-1.34
-6.72
-12.15
-16.57
-18.95
-18.48
-14.64
-7.23
3.5
16.64
30.53
43.08
52.4
57.58
59.19
59.06
59.52
62.26
67.68
74.71
81.53
86.48
88.73
88.45
86.43
83.6
80.76
78.52
77.39
77.72
79.44
81.77
83.28
82.23
77.27
68.06
55.48
41.26
27.39
15.36
5.82
-1.35
-6.73
-11.0
-14.68
-18.12
-21.52
-24.98
-28.54
-32.09
-35.39
-38.09
-39.89
-40.69
-40.64
-40.16
-39.75
-39.85
-40.62
-41.88
-43.18
-43.98
-43.92
-42.9
-41.2
-39.38
-38.13
-38.01
-39.29
-41.78
-44.9
-47.87
-50.02
-51.03
-51.21
-51.29
-52.2
-54.64
-58.77
-64.01
-69.12
-72.39
-72.07
-66.83
-56.22
-41.06
-23.36
-5.92
8.38
17.46
20.61
18.63
13.47
7.53
2.95
1.02
2.05
5.52
10.41
15.59
20.15
23.49
25.4
25.93
25.33
23.98
22.33
20.85
19.84
19.37
19.19
18.77
17.55
15.18
11.74
7.73
3.97
1.3
0.28
0.98
3.01
5.63
8.01
9.51
9.83
9.04
7.48
5.58
3.69
1.96
0.35
-1.32
-3.23
-5.48
-7.98
-10.54
-12.89
-14.85
-16.34
-17.5
-18.56
-19.84
-21.57
-23.88
-26.72
-29.83
-32.73
-34.81
-35.43
-34.11
-30.77
-25.71
-19.61
-13.28
-7.42
-2.48
1.43
4.37
6.56
8.2
9.47
10.54
11.53
12.51
13.43
14.17
14.56
14.51
14.05
13.36
12.71
12.35
12.38
12.78
13.42
14.15
14.89
15.57
16.2
16.69
16.93
16.74
16.01
14.76
13.1
11.3
9.55
7.97
6.54
5.11
3.49
1.59
-0.61
-2.98
-5.35
-7.61
-9.75
-11.85
-14.02
-16.32
-18.74
-21.28
-24.03
-27.15
-30.8
-34.93
-39.14
-42.64
-44.52
-44.04
-40.92
-35.52
-28.67
-21.44
-14.77
-9.27
-5.07
-2.02
0.24
2.04
3.6
4.99
6.18
7.12
7.78
8.15
8.22
7.98
7.42
6.62
5.73
5.01
4.73
5.08
6.08
7.56
9.2
10.68
11.66
11.98
11.56
10.53
9.07
7.44
5.83
4.31
2.82
1.2
-0.66
-2.79
-5.1
-7.42
-9.61
-11.56
-13.18
-14.4
-15.18
-15.59
-15.83
-16.24
-17.07
-18.32
-19.58
-20.09
-19.04
-15.87
-10.64
-4.03
2.87
8.93
13.42
16.13
17.31
17.49
17.23
16.86
16.54
16.3
16.12
16.05
16.1
16.27
16.47
16.53
16.34
15.84
15.16
14.54
14.27
14.54
15.35
16.54
17.78
18.68
18.98
18.52
17.35
15.63
13.6
11.48
9.44
7.53
5.7
3.8
1.67
-0.83
-3.69
-6.83
-10.05
-13.13
-15.9
-18.33
-20.52
-22.69
-25.18
-28.27
-32.11
-36.55
-41.07
-44.82
-46.83
-46.27
-42.79
-36.66
-28.74
-20.22
-12.2
-5.42
-0.13
3.86
6.96
9.57
11.94
14.22
16.49
18.77
21.07
23.3
25.28
26.75
27.53
27.62
27.17
26.52
26.01
25.9
26.29
27.1
28.09
28.92
29.31
29.08
28.26
27.06
25.76
24.55
23.42
22.14
20.39
17.96
14.87
11.42
8.04
5.11
2.8
1.05
-0.38
-1.79
-3.37
-5.16
-7.08
-8.95
-10.61
-11.98
-13.1
-14.06
-15.04
-16.25
-17.92
-20.22
-23.15
-26.43
-29.46
-31.42
-31.52
-29.3
-24.84
-18.75
-11.94
-5.38
0.19
4.39
7.14
8.61
9.06
8.86
8.4
8.11
8.27
8.97
10.03
11.09
11.69
11.52
10.54
8.98
7.23
5.73
4.73
4.28
4.17
4.13
3.85
3.13
1.94
0.36
-1.33
-2.72
-3.33
-2.81
-1.01
1.83
5.2
8.47
11.21
13.3
14.95
16.59
18.58
21.12
24.16
27.45
30.69
33.55
35.72
36.9
36.8
35.28
32.35
28.25
23.38
18.25
13.28
8.71
4.56
0.59
-3.49
-7.95
-12.76
-17.52
-21.54
-23.94
-24.05
-21.62
-16.99
-11.03
-4.85
0.48
4.29
6.38
6.97
6.56
5.69
4.79
4.1
3.74
3.7
3.91
4.23
4.45
4.41
3.97
3.14
2.1
1.17
0.66
0.8
1.6
2.86
4.28
5.55
6.46
6.97
7.17
7.15
6.98
6.72
6.38
6.04
5.78
5.6
5.43
5.1
4.44
3.39
2.03
0.64
-0.49
-1.2
-1.54
-1.72
-2.08
-2.85
-4.09
-5.64
-7.3
-8.84
-10.2
-11.46
-12.8
-14.44
-16.52
-19.03
-21.75
-24.23
-25.9
-26.15
-24.61
-21.23
-16.42
-10.93
-5.58
-1.01
2.49
4.95
6.57
7.6
8.17
8.38
8.33
8.19
8.11
8.13
8.15
7.95
7.3
6.13
4.58
3.0
1.73
1.01
0.87
1.21
1.81
2.49
3.1
3.52
3.7
3.65
3.41
3.1
2.81
2.63
2.57
2.58
2.56
2.48
2.26
1.87
1.19
0.1
-1.46
-3.45
-5.7
-7.97
-10.03
-11.75
-13.16
-14.37
-15.62
-17.12
-19.08
-21.55
-24.34
-26.96
-28.74
-28.93
-27.0
-22.8
-16.54
-8.75
-0.09
8.8
17.34
24.98
31.32
36.11
39.42
41.69
43.58
45.74
48.52
51.78
54.88
56.86
56.88
54.49
49.9
43.95
37.78
32.44
28.44
25.55
22.98
19.71
15.09
9.16
2.64
-3.31
-7.59
-9.52
-8.84
-5.75
-1.0
4.02
7.34
6.94
1.77
-7.46
-18.08
-26.39
-29.26
-25.63
-16.98
-6.58
2.2
7.28
8.45
6.79
3.59
-0.56
-5.77
-12.38
-20.25
-28.47
-35.66
-40.54
-42.43
-41.5
-38.51
-34.42
-29.94
-25.38
-20.73
-15.96
-11.24
-6.95
-3.65
-1.75
-1.35
-2.16
-3.62
-5.13
-6.21
-6.71
-6.71
-6.48
-6.38
-6.62
-7.3
-8.22
-9.05
-9.37
-8.93
-7.68
-5.89
-4.0
-2.43
-1.47
-1.17
-1.42
-2.04
-2.82
-3.55
-4.01
-4.04
-3.63
-2.98
-2.49
-2.57
-3.46
-5.04
-6.92
-8.61
-9.76
-10.33
-10.58
-10.91
-11.73
-13.35
-15.95
-19.51
-23.84
-28.43
-32.56
-35.38
-36.19
-34.7
-31.14
-26.21
-20.81
-15.75
-11.53
-8.26
-5.78
-3.8
-2.11
-0.56
0.9
2.3
3.71
5.12
6.5
7.69
8.52
8.85
8.7
8.27
7.86
7.73
7.96
8.41
8.87
9.21
9.4
9.55
9.74
9.92
9.85
9.29
8.13
6.52
4.77
3.25
2.16
1.44
0.88
0.15
-0.98
-2.62
-4.76
-7.32
-10.21
-13.31
-16.57
-19.93
-23.35
-26.85
-30.52
-34.49
-38.83
-43.43
-47.83
-51.22
-52.62
-51.24
-46.78
-39.6
-30.7
-21.33
-12.59
-5.19
0.69
5.26
8.9
11.96
14.7
17.25
19.64
21.81
23.68
25.1
25.95
26.11
25.53
24.23
22.34
20.11
17.9
16.05
14.84
14.36
14.44
14.74
14.89
14.62
13.88
12.79
11.59
10.43
9.31
8.15
6.81
5.22
3.44
1.58
-0.26
-2.07
-3.9
-5.84
-7.89
-9.99
-12.06
-14.07
-16.1
-18.22
-20.57
-23.15
-25.9
-28.69
-31.35
-33.77
-36.0
-38.18
-40.54
-43.22
-46.08
-48.56
-49.8
-48.84
-45.07
-38.52
-29.91
-20.47
-11.44
-3.73
2.31
6.76
9.95
12.18
13.67
14.53
14.91
15.01
15.07
15.21
15.45
15.64
15.57
15.06
14.05
12.69
11.25
10.11
9.58
9.76
10.56
11.61
12.43
12.65
12.12
11.0
9.71
8.69
8.24
8.36
8.87
9.51
10.22
11.18
12.75
15.31
19.08
24.04
30.02
36.8
44.19
52.08
60.22
68.14
75.14
80.43
83.38
83.7
81.59
77.53
72.06
65.51
58.0
49.47
39.92
29.46
18.28
6.59
-5.4
-17.33
-28.49
-37.68
-43.44
-44.55
-40.58
-32.24
-21.2
-9.57
0.83
8.98
14.72
18.55
21.08
22.76
23.69
23.68
22.38
19.42
14.57
7.82
-0.4
-9.2
-17.29
-23.26
-26.11
-25.62
-22.37
-17.57
-12.48
-7.97
-4.26
-1.09
1.97
5.12
8.18
10.66
12.03
11.88
10.06
6.7
2.09
-3.38
-9.3
-15.28
-20.93
-25.93
-30.07
-33.28
-35.69
-37.65
-39.59
-41.89
-44.7
-47.91
-51.1
-53.8
-55.63
-56.46
-56.53
-56.3
-56.38
-57.28
-59.29
-62.33
-65.81
-68.77
-70.02
-68.47
-63.54
-55.39
-44.84
-33.16
-21.58
-11.04
-1.99
5.4
11.11
15.15
17.54
18.53
18.62
18.54
19.02
20.42
22.64
25.15
27.33
28.69
29.21
29.13
28.83
28.55
28.22
27.55
26.2
23.93
20.67
16.49
11.54
6.03
0.19
-5.68
-11.27
-16.36
-20.83
-24.76
-28.35
-31.79
-35.14
-38.35
-41.21
-43.5
-45.04
-45.8
-45.92
-45.59
-45.04
-44.41
-43.73
-42.94
-41.98
-40.9
-39.89
-39.2
-39.02
-39.32
-39.7
-39.49
-37.94
-34.49
-28.97
-21.66
-13.21
-4.4
4.04
11.55
17.79
22.65
26.19
28.63
30.31
31.6
32.79
33.97
34.96
35.46
35.2
34.12
32.45
30.58
28.94
27.81
27.29
27.29
27.66
28.25
28.88
29.37
29.49
28.99
27.72
25.67
23.04
20.19
17.57
15.55
14.37
14.02
14.27
14.71
14.93
14.66
13.83
12.59
11.16
9.68
8.11
6.26
3.85
0.74
-3.04
-7.31
-11.82
-16.46
-21.28
-26.49
-32.26
-38.49
-44.6
-49.57
-52.19
-51.45
-46.93
-39.01
-28.81
-17.82
-7.5
1.1
7.52
11.84
14.45
15.87
16.56
16.91
17.19
17.62
18.34
19.38
20.66
21.94
22.99
23.63
23.83
23.75
23.67
23.81
24.32
25.26
26.52
27.99
29.55
31.03
32.28
33.13
33.39
32.96
31.85
30.15
28.1
25.92
23.82
21.98
20.47
19.24
18.19
17.17
16.07
14.85
13.6
12.43
11.38
10.41
9.34
8.02
6.36
4.45
2.53
0.84
-0.46
-1.43
-2.28
-3.31
-4.81
-7.0
-10.13
-14.34
-19.64
-25.74
-31.87
-36.8
-39.15
-37.83
-32.47
-23.68
-12.88
-1.82
8.0
15.68
21.06
24.48
26.44
27.43
27.85
28.05
28.41
29.3
30.95
33.37
36.28
39.26
41.84
43.64
44.4
44.05
42.65
40.49
37.99
35.6
33.58
31.89
30.09
27.46
23.23
16.94
8.57
-1.37
-12.01
-22.34
-31.52
-39.09
-44.95
-49.34
-52.59
-54.98
-56.63
-57.54
-57.7
-57.21
-56.23
-54.94
-53.4
-51.53
-49.11
-45.99
-42.13
-37.65
-32.81
-27.9
-23.16
-18.85
-15.23
-12.71
-11.73
-12.63
-15.47
-19.92
-25.3
-30.73
-35.38
-38.63
-40.07
-39.46
-36.65
-31.53
-24.12
-14.75
-4.08
6.86
16.98
25.36
31.48
35.41
37.6
38.73
39.37
39.85
40.14
40.05
39.35
37.98
36.15
34.23
32.63
31.69
31.55
32.19
33.55
35.47
37.77
40.21
42.48
44.22
45.15
45.11
44.13
42.42
40.21
37.76
35.33
33.07
31.07
29.39
27.93
26.57
25.15
23.48
21.46
18.99
16.1
12.88
9.52
6.31
3.54
1.34
-0.33
-1.69
-2.99
-4.38
-5.79
-7.02
-7.87
-8.22
-8.14
-7.89
-7.83
-8.27
-9.48
-11.62
-14.72
-18.63
-22.91
-26.78
-29.31
-29.61
-27.29
-22.73
-17.02
-11.66
-7.97
-6.59
-7.34
-9.37
-11.62
-13.26
-13.91
-13.62
-12.65
-11.32
-9.97
-8.85
-8.15
-8.0
-8.36
-9.05
-9.85
-10.49
-10.79
-10.51
-9.42
-7.26
-3.87
0.72
6.28
12.4
18.7
24.9
30.86
36.5
41.66
46.02
49.15
50.67
50.34
48.16
44.31
39.12
32.88
25.97
18.75
11.61
4.98
-0.86
-5.73
-9.72
-13.04
-15.94
-18.57
-20.95
-22.97
-24.54
-25.66
-26.52
-27.41
-28.64
-30.41
-32.74
-35.38
-37.82
-39.41
-39.44
-37.37
-33.01
-26.57
-18.69
-10.27
-2.26
4.57
9.78
13.29
15.32
16.27
16.51
16.41
16.21
16.09
16.12
16.27
16.44
16.44
16.11
15.36
14.25
12.93
11.68
10.75
10.28
10.27
10.57
10.99
11.33
11.48
11.46
11.35
11.32
11.44
11.74
12.12
12.43
12.52
12.29
11.69
10.7
9.39
7.81
6.1
4.38
2.8
1.44
0.32
-0.7
-1.8
-3.17
-4.96
-7.13
-9.5
-11.8
-13.81
-15.44
-16.85
-18.43
-20.66
-23.9
-28.17
-33.01
-37.56
-40.77
-41.79
-40.24
-36.34
-30.8
-24.53
-18.36
-12.87
-8.35
-4.89
-2.39
-0.65
0.58
1.53
2.29
2.77
2.73
1.97
0.48
-1.48
-3.38
-4.7
-5.11
-4.57
-3.31
-1.64
0.24
2.31
4.7
7.49
10.66
14.01
17.33
20.4
23.13
25.44
27.27
28.45
28.78
28.1
26.42
23.96
21.11
18.24
15.63
13.41
11.58
10.05
8.65
7.19
5.48
3.4
0.98
-1.58
-3.98
-5.99
-7.57
-8.92
-10.45
-12.56
-15.47
-19.11
-23.06
-26.7
-29.33
-30.4
-29.57
-26.83
-22.44
-16.93
-10.92
-5.04
0.17
4.33
7.24
8.88
9.41
9.1
8.33
7.47
6.76
6.33
6.16
6.14
6.21
6.34
6.62
7.16
8.07
9.35
10.9
12.53
14.08
15.4
16.39
16.97
17.09
16.73
15.94
14.84
13.59
12.38
11.25
10.16
9.0
7.67
6.16
4.61
3.17
1.98
0.99
0.04
-1.1
-2.62
-4.58
-6.9
-9.4
-11.92
-14.37
-16.78
-19.22
-21.8
-24.56
-27.46
-30.31
-32.75
-34.3
-34.48
-32.97
-29.77
-25.25
-20.02
-14.75
-9.89
-5.58
-1.72
1.88
5.26
8.31
10.81
12.64
13.84
14.58
15.03
15.27
15.27
14.91
14.18
13.16
12.1
11.24
10.71
10.49
10.42
10.27
9.86
9.12
8.06
6.82
