-15.04
-11.29
-7.87
-4.95
-2.47
-0.24
1.92
4.04
6.07
7.91
9.45
10.62
11.39
11.78
11.85
11.68
11.41
11.14
10.98
11.02
11.34
11.95
12.83
13.88
14.94
15.82
16.41
16.66
16.58
16.23
15.7
15.04
14.32
13.6
12.9
12.22
11.52
10.79
10.03
9.3
8.68
8.2
7.78
7.27
6.5
5.26
3.5
1.28
-1.18
-3.59
-5.7
-7.37
-8.64
-9.75
-10.98
-12.53
-14.42
-16.46
-18.34
-19.7
-20.19
-19.6
-17.72
-14.41
-9.53
-2.98
5.17
14.63
24.79
34.79
43.76
51.08
56.62
60.76
64.28
68.02
72.63
78.46
85.64
93.93
102.56
109.96
113.87
112.01
102.95
87.01
66.36
44.37
24.41
8.66
-2.28
-9.09
-12.93
-14.75
-15.11
-14.3
-12.69
-10.94
-9.76
-9.63
-10.57
-12.13
-13.45
-13.38
-10.73
-4.54
5.58
19.16
34.86
50.78
65.09
76.47
84.35
88.67
89.54
86.94
80.86
71.67
60.49
49.33
40.64
36.36
37.24
42.35
49.3
55.11
57.33
55.07
49.34
42.59
37.69
36.73
40.31
47.53
56.62
65.73
73.36
78.37
79.65
75.93
66.04
49.44
26.7
-0.45
-29.48
-57.84
-83.49
-105.04
-121.54
-132.22
-136.51
-134.28
-126.15
-113.9
-100.04
-87.23
-77.45
-71.37
-68.32
-66.65
-64.37
-59.97
-52.71
-42.66
-30.45
-16.98
-3.41
8.78
17.68
21.22
17.68
6.33
-12.0
-35.01
-59.54
-82.34
-100.74
-112.82
-117.38
-113.89
-102.77
-85.75
-65.96
-47.35
-33.43
-25.98
-24.38
-26.0
-27.45
-25.99
-20.43
-11.0
1.23
15.13
29.77
44.08
56.53
64.99
67.28
61.96
49.01
30.07
7.87
-14.62
-34.94
-51.59
-63.91
-71.78
-75.42
-75.26
-71.94
-66.3
-59.21
-51.49
-43.77
-36.57
-30.31
-25.33
-21.69
-19.09
-16.88
-14.28
-10.76
-6.25
-1.14
3.93
8.35
11.81
14.2
15.54
15.75
14.72
12.3
8.53
3.7
-1.76
-7.38
-12.94
-18.51
-24.46
-31.32
-39.5
-49.19
-60.16
-71.71
-82.67
-91.52
-96.71
-97.08
-92.33
-83.31
-71.77
-59.93
-49.73
-42.18
-37.19
-33.66
-30.06
-25.0
-17.68
-8.08
3.15
14.94
26.19
35.97
43.65
48.98
52.0
52.98
52.33
50.56
48.04
45.06
41.77
38.23
34.48
30.59
26.66
22.85
19.31
16.12
13.28
10.65
7.97
4.96
1.4
-2.75
-7.28
-11.81
-15.98
-19.48
-22.22
-24.26
-25.69
-26.61
-27.13
-27.34
-27.41
-27.42
-27.35
-27.03
-26.24
-24.88
-23.03
-21.06
-19.36
-18.21
-17.58
-17.14
-16.42
-15.05
-13.03
-10.64
-8.41
-6.87
-6.41
-7.15
-8.95
-11.39
-13.83
-15.48
-15.55
-13.51
-9.24
-3.18
3.87
10.88
16.96
21.52
24.34
25.54
25.41
24.37
22.82
21.05
19.27
17.5
15.73
13.92
12.13
10.49
9.11
8.05
7.2
6.44
5.62
4.72
3.74
2.75
1.71
0.54
-0.87
-2.58
-4.56
-6.71
-8.9
-11.07
-13.15
-15.08
-16.82
-18.39
-19.93
-21.65
-23.71
-26.08
-28.5
-30.6
-32.16
-33.27
-34.4
-36.19
-39.14
-43.43
-48.82
-54.82
-60.96
-66.89
-72.47
-77.62
-82.34
-86.64
-90.66
-94.71
-99.14
-104.15
-109.51
-114.41
-117.62
-117.7
-113.52
-104.62
-91.32
-74.72
-56.31
-37.65
-19.98
-4.06
9.75
21.46
31.15
39.03
45.24
50.01
53.6
56.33
58.55
60.48
62.25
63.86
65.24
66.38
67.39
68.42
69.63
71.08
72.65
74.03
74.83
74.75
73.66
71.73
69.35
66.93
64.8
63.09
61.75
60.65
59.65
58.71
57.82
56.91
55.81
54.22
51.77
48.14
43.16
36.89
29.59
21.62
13.36
5.1
-2.98
-10.83
-18.52
-26.14
-33.68
-40.96
-47.51
-52.61
-55.38
-55.04
-51.16
-44.03
-34.7
-24.85
-16.26
-10.2
-7.0
-5.94
-5.65
-4.76
-2.4
1.44
6.11
10.67
14.37
16.9
18.34
19.03
19.32
19.48
19.68
20.07
20.78
21.95
23.61
25.65
27.82
29.74
31.05
31.53
31.1
29.8
27.74
24.94
21.38
17.06
12.13
6.95
2.03
-2.12
-5.14
-6.9
-7.46
-6.92
-5.43
-3.17
-0.51
1.94
3.43
3.21
0.9
-3.49
-9.49
-16.39
-23.4
-29.8
-34.87
-37.95
-38.41
-35.86
-30.29
-22.26
-12.76
-2.96
6.13
13.9
20.23
25.37
29.66
33.36
36.58
39.33
41.65
43.67
45.57
47.46
49.22
50.46
50.57
48.98
45.39
39.98
33.45
26.79
20.92
16.36
13.02
10.31
7.43
3.82
-0.64
-5.52
-10.15
-13.95
-16.67
-18.48
-19.79
-21.06
-22.54
-24.35
-26.42
-28.73
-31.26
-34.01
-36.95
-39.92
-42.63
-44.82
-46.34
-47.34
-48.1
-48.92
-49.82
-50.59
-50.86
-50.49
-49.65
-48.79
-48.29
-48.05
-47.4
-45.33
-41.05
-34.4
-26.05
-17.17
-8.96
-2.14
3.18
7.3
10.66
13.49
15.8
17.39
18.1
17.96
17.23
16.33
15.69
15.58
16.05
16.89
17.85
18.73
19.51
20.3
21.26
22.52
24.0
25.48
26.59
27.06
26.74
25.72
24.24
22.62
21.07
19.68
18.38
17.05
15.58
13.93
12.21
10.54
9.02
7.66
6.37
5.05
3.58
2.0
0.41
-1.06
-2.28
-3.26
-4.07
-4.86
-5.76
-6.92
-8.43
-10.45
-13.08
-16.39
-20.21
-24.09
-27.34
-29.17
-28.99
-26.58
-22.25
-16.65
-10.6
-4.85
0.15
4.18
7.26
9.44
10.8
11.49
11.69
11.63
11.54
11.56
11.64
11.71
11.63
11.34
10.88
10.36
9.94
9.7
9.74
10.02
10.45
10.87
11.17
11.26
11.16
10.94
10.67
10.38
9.99
9.39
8.53
7.38
6.08
4.76
3.58
2.58
1.71
0.85
-0.16
-1.42
-2.96
-4.7
-6.46
-8.09
-9.47
-10.57
-11.52
-12.49
-13.73
-15.51
-17.95
-20.95
-24.12
-26.77
-28.07
-27.35
-24.39
-19.51
-13.54
-7.45
-2.02
2.37
5.75
8.36
10.41
11.98
13.06
13.61
13.71
13.49
13.14
12.79
12.48
12.2
11.93
11.71
11.64
11.82
12.32
13.13
14.11
15.07
15.82
16.23
16.23
15.84
15.12
14.13
12.94
11.66
10.33
9.01
7.7
6.38
5.06
3.76
2.56
1.46
0.4
-0.81
-2.38
-4.44
-6.93
-9.61
-12.17
-14.37
-16.08
-17.36
-18.36
-19.36
-20.64
-22.53
-25.22
-28.65
-32.32
-35.39
-36.86
-35.97
-32.49
-26.88
-20.1
-13.26
-7.18
-2.27
1.45
4.21
6.22
7.61
8.5
9.04
9.48
10.05
10.86
11.86
12.81
13.46
13.63
13.39
12.96
12.69
12.89
13.7
15.05
16.66
18.23
19.41
20.04
20.04
19.49
18.51
17.27
15.9
14.52
13.2
11.95
10.7
9.39
7.93
6.36
4.78
3.35
2.18
1.27
0.44
-0.56
-1.98
-3.84
-6.03
-8.27
-10.34
-12.12
-13.7
-15.28
-17.11
-19.36
-22.13
-25.48
-29.42
-33.78
-38.11
-41.68
-43.56
-42.94
-39.47
-33.4
-25.56
-17.1
-9.07
-2.17
3.34
7.51
10.55
12.69
14.12
15.04
15.65
16.16
16.67
17.17
17.5
17.52
17.23
16.84
16.7
17.17
18.4
20.26
22.35
24.23
25.5
26.03
25.91
25.36
24.58
23.67
22.65
21.48
20.25
19.06
18.03
17.16
16.34
15.36
14.05
12.38
10.47
8.55
6.8
5.27
3.87
2.43
0.83
-1.04
-3.13
-5.37
-7.65
-9.91
-12.1
-14.2
-16.22
-18.21
-20.23
-22.35
-24.75
-27.57
-30.89
-34.53
-37.93
-40.26
-40.56
-38.2
-33.1
-25.85
-17.52
-9.31
-2.15
3.53
7.69
10.57
12.5
13.74
14.47
14.85
14.98
14.99
14.94
14.87
14.75
14.54
14.26
13.96
13.79
13.9
14.46
15.52
16.99
18.66
20.25
21.45
22.04
21.93
21.18
20.01
18.69
17.48
16.5
15.69
14.81
13.58
11.82
9.57
7.03
4.5
2.26
0.37
-1.23
-2.71
-4.23
-5.83
-7.5
-9.15
-10.76
-12.34
-13.98
-15.78
-17.8
-20.09
-22.7
-25.7
-29.08
-32.73
-36.22
-38.88
-39.88
-38.5
-34.45
-28.01
-20.0
-11.5
-3.55
3.16
8.38
12.18
14.76
16.32
16.99
16.91
16.27
15.34
14.44
13.85
13.67
13.86
14.27
14.75
15.22
15.74
16.43
17.4
18.63
19.95
21.12
21.87
22.02
21.52
20.42
18.87
17.09
15.28
13.6
12.14
10.87
9.69
8.44
7.04
5.51
3.96
2.49
1.17
-0.06
-1.36
-2.89
-4.77
-7.02
-9.52
-12.12
-14.64
-16.96
-19.06
-21.08
-23.24
-25.79
-29.0
-33.04
-37.87
-43.21
-48.39
-52.49
-54.44
-53.4
-49.03
-41.69
-32.37
-22.35
-12.85
-4.68
1.85
6.8
10.4
12.87
14.39
15.17
15.49
15.72
16.19
17.02
18.11
19.14
19.8
19.99
19.89
19.93
20.52
21.85
23.79
25.93
27.75
28.94
29.39
29.25
28.72
27.97
27.0
25.78
24.29
22.6
20.83
19.06
17.29
15.4
13.3
10.92
8.37
5.85
3.59
1.75
0.3
-0.9
-2.12
-3.63
-5.57
-7.94
-10.58
-13.26
-15.77
-18.04
-20.11
-22.17
-24.43
-27.16
-30.65
-35.05
-40.26
-45.75
-50.54
-53.4
-53.2
-49.39
-42.23
-32.73
-22.33
-12.35
-3.76
3.03
8.02
11.39
13.47
14.6
15.18
15.64
16.27
17.16
18.23
19.28
20.11
20.66
21.02
21.34
21.77
22.45
23.46
24.82
26.45
28.12
29.53
30.42
30.61
30.17
29.28
28.18
26.95
25.59
23.97
22.03
19.84
17.59
15.44
13.5
11.69
9.92
8.12
6.35
4.72
3.36
2.22
1.14
-0.15
-1.83
-3.98
-6.48
-9.13
-11.71
-14.09
-16.26
-18.28
-20.3
-22.53
-25.19
-28.49
-32.52
-37.05
-41.52
-45.05
-46.67
-45.55
-41.35
-34.37
-25.46
-15.78
-6.5
1.53
7.86
12.44
15.44
17.15
17.87
17.89
17.47
16.87
16.28
15.83
15.53
15.32
15.14
15.01
15.02
15.32
16.02
17.15
18.63
20.25
21.75
22.88
23.42
23.29
22.5
21.18
19.55
17.87
16.3
14.9
13.54
12.08
10.36
8.39
6.29
4.26
2.45
0.91
-0.52
-2.05
-3.9
-6.18
-8.83
-11.65
-14.37
-16.78
-18.85
-20.7
-22.6
-24.87
-27.83
-31.63
-36.22
-41.17
-45.72
-48.86
-49.59
-47.22
-41.62
-33.31
-23.34
-12.98
-3.32
4.87
11.3
16.06
19.4
21.67
23.18
24.18
24.86
25.36
25.82
26.37
27.14
28.18
29.48
30.88
32.16
33.1
33.61
33.72
33.6
33.4
33.18
32.81
32.11
30.89
29.06
26.76
24.22
21.7
19.38
17.34
15.5
13.76
12.03
10.28
8.51
6.72
4.92
3.08
1.21
-0.62
-2.28
-3.66
-4.77
-5.8
-7.05
-8.81
-11.19
-14.05
-17.07
-19.86
-22.16
-23.94
-25.41
-26.94
-28.97
-31.81
-35.57
-39.99
-44.43
-47.91
-49.41
-48.14
-43.85
-36.98
-28.5
-19.58
-11.24
-4.08
1.71
6.24
9.69
12.17
13.74
14.47
14.52
14.16
13.68
13.34
13.27
13.49
13.92
14.45
15.0
15.55
16.12
16.8
17.62
18.56
19.51
20.29
20.77
20.9
20.67
20.15
19.31
18.12
16.59
14.81
12.96
11.28
9.89
8.74
7.68
6.53
5.2
3.72
2.18
0.69
-0.75
-2.17
-3.56
-4.92
-6.22
-7.5
-8.83
-10.33
-12.05
-13.89
-15.7
-17.35
-18.81
-20.21
-21.79
-23.84
-26.53
-29.9
-33.73
-37.51
-40.46
-41.65
-40.36
-36.34
-29.99
-22.29
-14.39
-7.27
-1.43
3.08
6.47
8.94
10.58
11.41
11.52
11.18
10.72
10.42
10.37
10.47
10.5
10.36
10.1
9.95
10.17
10.94
12.23
13.85
15.52
16.98
18.02
18.5
18.35
17.56
16.18
14.41
12.51
10.79
9.39
8.27
7.24
6.05
4.53
2.75
0.93
-0.7
-2.01
-3.05
-4.04
-5.19
-6.65
-8.4
-10.31
-12.2
-13.96
-15.54
-17.02
-18.51
-20.14
-22.11
-24.62
-27.86
-31.86
-36.32
-40.51
-43.39
-43.91
-41.39
-35.8
-27.82
-18.67
-9.68
-1.92
4.07
8.22
10.89
12.52
13.57
14.29
14.85
15.28
15.61
15.87
16.07
16.28
16.51
16.8
17.15
17.58
18.09
18.7
19.41
20.17
20.91
21.49
21.76
21.63
21.12
20.39
19.59
18.86
18.17
17.34
16.16
14.5
12.46
10.29
8.3
6.73
5.63
4.84
4.16
3.38
2.43
1.3
0.06
-1.26
-2.71
-4.36
-6.27
-8.46
-10.85
-13.31
-15.67
-17.82
-19.69
-21.35
-22.93
-24.67
-26.81
-29.59
-33.1
-37.19
-41.38
-44.89
-46.8
-46.32
-43.05
-37.15
-29.34
-20.68
-12.27
-4.93
0.89
5.15
8.09
10.03
11.25
11.96
12.33
12.53
12.77
13.26
14.11
15.23
16.42
17.33
17.78
17.76
17.56
17.58
18.1
19.16
20.49
21.65
22.26
22.15
21.41
20.29
19.05
17.85
16.71
15.55
14.27
12.86
11.39
9.98
8.72
7.62
6.6
5.58
4.53
3.47
2.5
1.67
0.97
0.21
-0.83
-2.36
-4.45
-7.02
-9.83
-12.63
-15.18
-17.34
-19.07
-20.37
-21.35
-22.19
-23.16
-24.69
-27.15
-30.79
-35.4
-40.34
-44.48
-46.62
-45.82
-41.8
-35.03
-26.55
-17.6
-9.26
-2.25
3.15
6.92
9.24
10.42
10.8
10.77
10.65
10.61
10.72
10.93
11.15
11.36
11.62
11.98
12.52
13.28
14.27
15.47
16.79
18.05
19.04
19.53
19.4
18.71
17.61
16.37
15.16
14.05
13.01
11.89
10.57
9.0
7.25
5.46
3.8
2.36
1.07
-0.21
-1.65
-3.38
-5.46
-7.79
-10.28
-12.75
-15.07
-17.16
-18.97
-20.57
-22.19
-24.22
-27.04
-30.86
-35.48
-40.18
-43.86
-45.37
-43.9
-39.27
-31.99
-23.05
-13.63
-4.81
2.67
8.41
12.31
14.57
15.53
15.66
15.45
15.29
15.38
15.71
16.13
16.47
16.65
16.74
16.86
17.18
17.82
18.77
19.96
21.25
22.45
23.41
23.96
24.02
23.55
22.58
21.25
19.68
18.02
16.35
14.78
13.33
12.0
10.75
9.5
8.14
6.61
4.89
3.07
1.24
-0.5
-2.18
-3.86
-5.71
-7.87
-10.38
-13.2
-16.15
-19.0
-21.57
-23.79
-25.81
-27.98
-30.72
-34.41
-39.12
-44.52
-49.77
-53.74
-55.27
-53.55
-48.46
-40.59
-31.1
-21.32
-12.36
-4.85
1.04
5.48
8.75
11.12
12.84
14.19
15.46
16.93
18.71
20.67
22.49
23.83
24.48
24.48
24.16
23.92
24.08
24.76
25.83
27.0
27.95
28.48
28.54
28.2
27.55
26.57
25.23
23.44
21.26
18.91
16.71
15.01
13.94
13.34
12.87
12.15
10.93
9.25
7.34
5.52
3.98
2.72
1.59
0.37
-1.13
-3.04
-5.36
-7.99
-10.79
-13.56
-16.15
-18.48
-20.58
-22.6
-24.82
-27.54
-31.05
-35.47
-40.57
-45.68
-49.72
-51.46
-50.0
-45.04
-37.15
-27.53
-17.63
-8.63
-1.18
4.62
8.97
12.16
14.36
15.76
16.51
16.89
17.2
17.63
18.22
18.85
19.35
19.61
19.69
19.75
20.0
20.59
21.53
22.75
24.1
25.39
26.42
26.99
26.97
26.3
25.07
23.47
21.77
20.16
18.72
17.37
15.99
14.46
12.79
11.03
9.3
7.7
6.26
4.94
3.69
2.38
0.91
-0.84
-2.96
-5.47
-8.25
-11.09
-13.75
-16.08
-18.13
-20.15
-22.55
-25.69
-29.69
-34.26
-38.74
-42.15
-43.53
-42.17
-37.91
-31.16
-22.83
-14.04
-5.85
1.02
6.28
9.99
12.43
13.98
14.98
15.71
16.32
16.94
17.57
18.17
18.68
19.06
19.33
19.61
20.04
20.73
21.7
22.86
24.02
25.02
25.7
26.04
26.04
25.7
25.03
23.98
22.56
20.81
18.85
16.83
14.9
13.18
11.72
10.49
9.46
8.58
7.79
7.08
6.4
5.7
4.88
3.91
2.78
1.54
0.25
-1.06
-2.45
-4.0
-5.83
-8.03
-10.52
-13.14
-15.6
-17.66
-19.18
-20.3
-21.33
-22.77
-25.03
-28.32
-32.5
-36.97
-40.86
-43.17
-43.1
-40.29
-34.91
-27.67
-19.58
-11.71
-4.9
0.4
4.1
6.47
7.89
8.8
9.55
10.41
11.47
12.7
13.94
15.01
15.71
15.99
15.93
15.73
15.65
15.9
16.55
17.5
18.5
19.31
19.7
19.59
18.99
18.05
16.94
15.79
14.7
13.73
12.88
12.1
11.31
10.45
9.45
8.36
7.27
6.27
5.45
4.75
4.0
3.06
1.82
0.33
-1.19
-2.51
-3.5
-4.22
-4.87
-5.74
-6.99
-8.62
-10.46
-12.32
-14.08
-15.72
-17.34
-19.06
-20.93
-23.01
-25.38
-28.1
-31.16
-34.32
-37.03
-38.52
-38.04
-35.16
-30.0
-23.24
-15.86
-8.88
-2.99
1.54
4.78
7.02
8.51
9.44
9.92
10.02
9.92
9.79
9.81
10.02
10.4
10.82
11.23
11.67
12.29
13.23
14.51
16.04
17.55
18.77
19.49
19.63
19.25
18.47
17.46
16.36
15.28
14.25
13.23
12.17
11.01
9.73
8.39
7.1
5.94
4.94
4.05
3.15
2.16
1.06
-0.04
-1.01
-1.75
-2.3
-2.87
-3.72
-5.09
-7.02
-9.39
-11.96
-14.49
-16.89
-19.14
-21.29
-23.44
-25.65
-28.09
-30.94
-34.32
-38.1
-41.78
-44.49
-45.25
-43.33
-38.57
-31.51
-23.21
-14.91
-7.65
-1.97
2.09
