24.14
23.44
22.65
21.7
20.53
19.1
17.44
15.63
13.76
11.98
10.43
9.22
8.37
7.8
7.32
6.73
5.87
4.73
3.39
1.96
0.52
-0.9
-2.32
-3.77
-5.23
-6.66
-8.07
-9.55
-11.25
-13.31
-15.85
-18.86
-22.32
-26.17
-30.4
-35.01
-39.86
-44.59
-48.52
-50.77
-50.47
-47.14
-40.87
-32.43
-23.01
-13.9
-6.11
-0.13
4.05
6.74
8.38
9.35
9.94
10.35
10.75
11.31
12.09
13.02
13.94
14.66
15.08
15.25
15.39
15.76
16.56
17.79
19.33
20.94
22.38
23.44
24.01
24.07
23.66
22.93
22.04
21.14
20.28
19.41
18.46
17.33
16.0
14.54
13.04
11.6
10.24
8.91
7.53
6.05
4.49
2.91
1.42
0.1
-1.07
-2.2
-3.47
-5.07
-7.05
-9.34
-11.74
-14.04
-16.16
-18.12
-20.07
-22.19
-24.64
-27.58
-31.16
-35.42
-40.2
-44.94
-48.71
-50.38
-49.04
-44.38
-36.87
-27.66
-18.19
-9.7
-2.92
2.01
5.38
7.65
9.21
10.33
11.12
11.65
12.02
12.33
12.69
13.12
13.6
14.08
14.54
15.05
15.73
16.77
18.21
20.0
21.89
23.56
24.71
25.15
24.85
23.91
22.49
20.76
18.94
17.22
15.74
14.6
13.74
12.98
12.04
10.72
8.95
6.87
4.77
2.92
1.42
0.18
-1.07
-2.6
-4.57
-6.94
-9.59
-12.36
-15.15
-17.95
-20.81
-23.77
-26.86
-30.16
-33.77
-37.83
-42.44
-47.45
-52.46
-56.73
-59.45
-59.88
-57.68
-53.0
-46.53
-39.3
-32.49
-27.13
-23.91
-23.14
-24.74
-28.29
-33.2
-38.8
-44.44
-49.61
-53.95
-57.32
-59.72
-61.21
-61.83
-61.43
-59.53
-55.34
-47.87
-36.23
-20.03
0.3
23.45
47.44
70.07
89.55
104.84
115.8
123.01
127.41
130.01
131.62
132.74
133.6
134.15
134.13
133.12
130.69
126.52
120.58
113.14
104.8
96.21
87.95
80.19
72.69
64.81
55.79
45.11
32.82
19.56
6.44
-5.34
-14.89
-21.92
-26.83
-30.46
-33.85
-37.9
-43.16
-49.74
-57.22
-64.73
-71.02
-74.74
-74.77
-70.58
-62.5
-51.7
-39.84
-28.6
-19.19
-12.17
-7.45
-4.53
-2.79
-1.65
-0.64
0.53
2.0
3.72
5.5
7.07
8.19
8.75
8.84
8.66
8.42
8.29
8.33
8.56
8.95
9.46
10.0
10.45
10.68
10.56
10.08
9.31
8.41
7.59
7.02
6.77
6.81
7.01
7.26
7.5
7.77
8.18
8.86
9.9
11.26
12.77
14.23
15.45
16.38
17.12
17.9
18.95
20.35
22.01
23.66
24.96
25.69
25.81
25.39
24.55
23.31
21.58
19.14
15.77
11.27
5.53
-1.54
-9.85
-19.08
-28.48
-36.98
-43.33
-46.5
-46.11
-42.47
-36.58
-29.8
-23.4
-18.31
-14.93
-13.18
-12.66
-12.76
-12.89
-12.6
-11.67
-10.1
-8.1
-5.95
-3.93
-2.19
-0.75
0.46
1.62
2.91
4.44
6.27
8.38
10.63
12.83
14.8
16.33
17.29
17.62
17.36
16.64
15.66
14.58
13.45
12.24
10.83
9.12
7.07
4.8
2.49
0.29
-1.75
-3.71
-5.75
-8.04
-10.61
-13.38
-16.12
-18.58
-20.55
-22.03
-23.27
-24.71
-26.8
-29.83
-33.76
-38.28
-42.9
-47.22
-51.09
-54.69
-58.46
-62.96
-68.61
-75.57
-83.5
-91.57
-98.51
-102.9
-103.59
-100.14
-93.02
-83.45
-73.13
-63.62
-55.98
-50.65
-47.5
-46.1
-45.87
-46.22
-46.63
-46.66
-45.95
-44.37
-41.92
-38.74
-34.91
-30.37
-24.83
-17.84
-8.91
2.29
15.77
31.15
47.72
64.51
80.54
95.04
107.49
117.75
125.89
132.04
136.27
138.57
138.84
137.08
133.41
128.13
121.58
114.08
105.89
97.2
88.25
79.35
70.87
63.12
56.28
50.24
44.72
39.38
33.98
28.39
22.59
16.65
10.59
4.43
-1.81
-8.13
-14.52
-21.07
-27.96
-35.48
-43.86
-53.03
-62.51
-71.21
-77.69
-80.44
-78.43
-71.48
-60.4
-46.85
-32.83
-20.14
-9.95
-2.72
1.74
3.9
4.35
3.65
2.34
0.85
-0.48
-1.49
-2.25
-2.88
-3.47
-3.97
-4.28
-4.3
-4.07
-3.75
-3.54
-3.59
-3.99
-4.75
-5.86
-7.34
-9.18
-11.31
-13.54
-15.6
-17.23
-18.23
-18.59
-18.42
-17.93
-17.41
-17.17
-17.4
-18.24
-19.62
-21.37
-23.23
-25.04
-26.76
-28.53
-30.62
-33.24
-36.46
-40.11
-43.79
-47.11
-49.82
-52.0
-54.03
-56.44
-59.75
-64.21
-69.77
-75.95
-81.89
-86.44
-88.32
-86.46
-80.33
-70.19
-57.13
-42.79
-28.89
-16.76
-7.0
0.4
5.96
10.3
13.89
16.99
19.67
21.94
23.81
25.39
26.78
28.04
29.13
29.92
30.25
29.95
28.92
27.14
24.64
21.49
17.78
13.67
9.43
5.42
2.1
-0.14
-1.05
-0.68
0.7
2.67
4.79
6.72
8.32
9.61
10.73
11.82
12.97
14.19
15.41
16.52
17.43
18.09
18.44
18.43
17.96
16.92
15.25
13.0
10.32
7.39
4.38
1.35
-1.72
-4.97
-8.56
-12.73
-17.79
-23.91
-30.98
-38.37
-44.82
-48.75
-48.7
-43.94
-34.89
-22.97
-10.26
1.26
10.24
16.26
19.64
21.07
21.24
20.63
19.53
18.15
16.72
15.56
14.94
15.05
15.8
16.9
18.03
19.01
19.91
21.04
22.74
25.16
28.07
30.98
33.27
34.48
34.5
33.49
31.77
29.66
27.36
25.0
22.68
20.54
18.64
17.03
15.57
14.04
12.2
9.93
7.29
4.51
1.94
-0.12
-1.55
-2.48
-3.34
-4.75
-7.24
-11.01
-15.76
-20.56
-24.06
-24.85
-21.92
-14.95
-4.51
8.08
21.21
33.36
43.53
51.34
57.0
61.07
64.22
67.03
69.89
72.88
75.82
78.27
79.71
79.7
78.0
74.77
70.46
65.71
61.21
57.51
54.9
53.4
52.75
52.58
52.43
51.95
50.95
49.42
47.51
45.37
43.15
40.88
38.49
35.85
32.83
29.31
25.22
20.59
15.5
10.11
4.55
-1.12
-6.94
-13.02
-19.43
-26.13
-32.93
-39.53
-45.66
-51.14
-55.98
-60.35
-64.53
-68.82
-73.51
-78.74
-84.35
-89.78
-94.03
-95.9
-94.3
-88.74
-79.52
-67.74
-54.93
-42.62
-31.93
-23.39
-17.05
-12.7
-9.97
-8.46
-7.72
-7.29
-6.78
-5.97
-4.87
-3.66
-2.58
-1.76
-1.17
-0.63
0.11
1.18
2.59
4.19
5.77
7.1
8.02
8.47
8.46
8.06
7.31
6.23
4.82
3.1
1.12
-1.03
-3.2
-5.29
-7.2
-8.92
-10.43
-11.74
-12.83
-13.69
-14.31
-14.71
-14.92
-14.89
-14.61
-14.02
-13.12
-12.03
-10.98
-10.26
-10.13
-10.77
-12.13
-14.09
-16.44
-19.05
-21.92
-25.3
-29.52
-34.87
-41.3
-48.2
-54.38
-58.32
-58.66
-54.66
-46.57
-35.49
-23.15
-11.25
-1.1
6.65
11.97
15.22
16.93
17.65
17.86
17.94
18.15
18.64
19.35
20.1
20.6
20.56
19.79
18.28
16.25
14.0
11.93
10.36
9.46
9.22
9.47
10.0
10.62
11.23
11.81
12.35
12.83
13.16
13.24
13.02
12.51
11.78
10.92
9.91
8.67
7.05
4.94
2.34
-0.61
-3.7
-6.7
-9.5
-12.1
-14.61
-17.18
-19.95
-22.93
-26.06
-29.15
-32.04
-34.58
-36.72
-38.53
-40.19
-41.96
-44.15
-47.0
-50.48
-54.13
-57.01
-57.92
-55.71
-49.81
-40.49
-28.89
-16.65
-5.4
3.65
9.98
13.66
15.15
15.04
13.87
12.12
10.23
8.54
7.29
6.65
6.67
7.34
8.63
10.46
12.71
15.23
17.87
20.56
23.25
25.83
28.12
29.8
30.49
29.98
28.3
25.8
23.0
20.31
17.95
15.81
13.65
11.2
8.4
5.44
2.64
0.29
-1.48
-2.79
-3.95
-5.27
-6.98
-9.1
-11.5
-14.04
-16.58
-19.1
-21.65
-24.37
-27.46
-31.21
-35.99
-42.01
-49.18
-56.79
-63.58
-67.97
-68.61
-64.88
-57.17
-46.75
-35.37
-24.63
-15.66
-8.94
-4.39
-1.61
-0.09
0.72
1.31
2.08
3.25
4.86
6.75
8.67
10.35
11.58
12.33
12.7
12.94
13.32
14.11
15.45
17.3
19.42
21.47
23.13
24.18
24.63
24.67
24.54
24.45
24.44
24.41
24.2
23.7
22.9
21.89
20.86
19.86
18.83
17.64
16.13
14.23
12.0
9.59
7.22
4.99
2.98
1.1
-0.78
-2.84
-5.21
-7.97
-11.06
-14.3
-17.49
-20.4
-22.96
-25.16
-27.17
-29.27
-31.86
-35.39
-40.13
-45.92
-51.95
-56.84
-58.97
-57.02
-50.55
-40.22
-27.58
-14.59
-2.97
6.19
12.5
16.18
17.72
17.79
17.06
16.21
15.75
15.96
16.8
17.96
19.04
19.74
19.98
20.02
20.21
20.92
22.35
24.48
27.12
29.96
32.71
35.04
36.73
37.61
37.64
36.96
35.9
34.82
34.02
33.56
33.24
32.69
31.53
29.63
27.11
24.35
21.69
19.38
17.39
15.53
13.58
11.39
8.93
6.38
3.97
1.93
0.43
-0.63
-1.5
-2.63
-4.4
-6.99
-10.24
-13.71
-16.87
-19.28
-20.84
-21.75
-22.46
-23.5
-25.3
-28.17
-32.18
-37.09
-42.33
-46.85
-49.34
-48.55
-43.73
-34.98
-23.32
-10.47
1.73
11.79
18.95
23.24
25.25
25.82
25.72
25.49
25.38
25.45
25.56
25.6
25.46
25.11
24.6
24.01
23.46
23.01
22.75
22.71
22.89
23.23
23.57
23.67
23.27
22.28
20.72
18.84
16.89
15.08
13.42
11.81
10.12
8.3
6.46
4.74
3.24
1.97
0.83
-0.25
-1.26
-2.06
-2.52
-2.58
-2.4
-2.31
-2.68
-3.79
-5.72
-8.33
-11.27
-14.12
-16.53
-18.37
-19.78
-21.17
-23.1
-26.05
-30.28
-35.58
-41.25
-46.17
-49.07
-48.76
-44.6
-36.65
-25.76
-13.36
-1.07
9.69
18.01
23.62
26.78
28.06
28.11
27.51
26.67
25.82
25.03
24.26
23.45
22.55
21.56
20.6
19.81
19.39
19.5
20.18
21.35
22.82
24.24
25.27
25.6
25.03
23.57
21.4
18.8
16.12
13.55
11.17
8.91
6.64
4.29
1.89
-0.44
-2.53
-4.3
-5.74
-6.89
-7.77
-8.38
-8.71
-8.79
-8.74
-8.71
-8.85
-9.21
-9.73
-10.31
-10.82
-11.21
-11.49
-11.77
-12.24
-13.15
-14.85
-17.64
-21.66
-26.68
-31.9
-36.1
-37.86
-36.05
-30.28
-21.12
-9.91
1.61
11.87
19.83
25.12
27.97
28.92
28.57
27.51
26.15
24.78
23.54
22.5
21.61
20.77
19.8
18.51
16.77
14.54
11.97
9.38
7.07
5.22
3.73
2.31
0.58
-1.7
-4.58
-7.85
-11.19
-14.32
-17.14
-19.69
-22.15
-24.65
-27.14
-29.36
-30.84
-30.99
-29.31
-25.51
-19.67
-12.27
-4.0
4.37
12.16
18.92
24.4
28.51
31.31
32.89
33.32
32.66
30.89
27.95
23.87
18.77
12.91
6.64
0.22
-6.15
-12.48
-18.91
-25.63
-32.76
-40.18
-47.46
-53.79
-58.13
-59.39
-56.83
-50.36
-40.72
-29.23
-17.48
-6.85
1.83
8.39
13.17
16.76
19.74
22.52
25.32
28.2
31.19
34.31
37.58
41.02
44.54
48.02
51.36
54.53
57.64
60.89
64.42
68.2
71.97
75.3
77.83
79.36
79.9
79.64
78.79
77.41
75.42
72.66
68.97
64.26
58.56
52.02
44.85
37.29
29.57
21.8
13.95
5.86
-2.76
-12.14
-22.47
-33.78
-45.98
-58.92
-72.51
-86.74
-101.74
-117.77
-135.05
-153.67
-173.45
-193.82
-213.79
-231.95
-246.67
-256.37
-259.87
-256.72
-247.27
-232.52
-213.81
-192.4
-169.28
-145.18
-120.71
-96.45
-72.96
-50.56
-29.18
-8.41
12.29
33.22
54.28
74.96
94.6
112.68
129.02
143.73
157.05
169.11
179.82
188.94
196.16
201.39
204.8
206.93
208.6
210.85
214.7
220.9
229.53
239.64
249.07
254.72
253.31
242.33
220.97
190.45
153.69
114.36
75.88
40.65
9.82
-16.39
-38.23
-56.12
-70.43
-81.63
-90.34
-97.22
-102.89
-107.66
-111.54
-114.31
-115.75
-115.81
-114.7
-112.86
-110.85
-109.18
-108.16
-107.83
-107.93
-108.06
-107.76
-106.71
-104.76
-101.95
-98.44
-94.44
-90.2
-86.02
-82.25
-79.2
-77.1
-75.93
-75.47
-75.35
-75.19
-74.89
-74.62
-74.89
-76.32
-79.43
-84.35
-90.69
-97.69
-104.31
-109.63
-113.09
-114.63
-114.63
-113.7
-112.33
-110.44
-107.1
-100.4
-87.66
-66.07
-33.59
9.97
62.36
118.94
173.59
220.27
254.61
274.85
282.01
278.98
269.4
256.47
242.39
228.36
214.89
202.19
190.36
179.4
169.17
159.45
150.13
141.36
133.54
126.99
121.74
117.26
112.59
106.78
99.37
90.71
81.8
73.73
67.09
61.56
56.1
49.53
41.26
31.65
21.94
13.61
7.71
4.31
2.47
0.38
-4.35
-14.31
-31.64
-57.26
-89.73
-124.85
-156.1
-176.57
-181.43
-170.0
-146.24
-117.23
-90.41
-70.92
-60.3
-57.04
-58.24
-61.37
-64.96
-68.46
-71.31
-72.61
-71.13
-66.07
-57.63
-47.15
-36.58
-27.69
-21.34
-17.24
-14.3
-11.17
-6.9
-1.36
4.85
10.66
15.01
17.36
17.87
17.3
16.66
16.78
17.95
19.86
21.82
23.15
23.52
23.09
22.44
22.25
22.99
24.74
27.17
29.79
32.19
34.21
36.02
37.98
40.48
43.76
47.84
52.46
57.13
61.3
64.47
66.25
66.49
65.31
63.0
59.91
56.34
52.49
48.44
44.18
39.72
35.06
30.14
24.94
19.35
13.36
7.02
0.47
-6.06
-12.34
-18.24
-23.71
-28.78
-33.52
-37.97
-42.21
-46.26
-50.22
-54.21
-58.35
-62.67
-67.11
-71.44
-75.42
-78.79
-81.48
-83.53
-85.01
-85.95
-86.2
-85.53
-83.66
-80.44
-75.95
-70.51
-64.65
-58.91
-53.75
-49.42
-45.99
-43.42
-41.62
-40.59
-40.36
-40.98
-42.39
-44.39
-46.6
-48.59
-50.05
-50.92
-51.46
-52.18
-53.66
-56.3
-60.14
-64.85
-69.79
-74.36
-78.22
-81.52
-84.91
-89.33
-95.63
-104.18
-114.69
-126.2
-137.5
-147.52
-155.62
-161.73
-166.26
-169.81
-172.95
-175.97
-178.44
-179.04
-175.45
-164.99
-145.66
-117.5
-83.44
-49.06
-21.17
-5.63
-5.35
-19.19
-42.45
-68.37
-90.16
-102.59
-102.83
-90.38
-66.45
-33.26
6.59
50.38
95.5
139.55
180.62
217.56
250.2
279.1
304.85
327.29
345.02
355.66
356.85
347.44
328.38
302.64
274.41
247.63
224.97
207.2
193.42
181.79
170.25
157.09
141.23
122.33
100.67
77.09
52.8
29.17
7.49
-11.32
-26.8
-39.06
-48.75
-56.89
-64.61
-72.96
-82.68
-93.99
-106.46
-118.92
-129.53
-136.21
-137.16
-131.59
-120.06
-104.44
-87.31
-71.21
-57.87
-47.96
-41.24
-36.98
-34.37
-32.76
-31.71
-30.83
-29.79
-28.31
-26.29
-23.78
-21.05
-18.38
-15.98
-13.84
-11.75
-9.43
-6.73
-3.74
-0.85
1.43
2.61
2.46
1.04
-1.33
-4.3
-7.6
-11.16
-15.04
-19.33
-24.09
-29.21
-34.53
-39.81
-44.83
-49.43
-53.59
-57.4
-61.06
-64.79
-68.72
-72.78
-76.71
-80.08
-82.36
-83.05
-81.72
-78.04
-71.88
-63.36
-52.79
-40.68
-27.51
-13.6
0.91
16.05
31.77
47.76
63.44
78.08
91.06
102.17
111.67
120.14
128.21
136.15
143.76
150.44
155.44
158.31
159.13
158.52
157.45
156.83
157.13
158.29
159.76
160.78
160.65
158.71
154.32
146.85
135.86
121.53
104.97
88.07
72.94
60.96
52.2
45.36
38.45
29.82
18.89
6.27
-6.67
-18.62
-28.85
-37.33
-44.42
-50.47
-55.57
-59.6
-62.45
-64.22
-65.32
-66.39
-68.02
-70.44
-73.46
-76.5
-78.87
-80.14
-80.33
-79.96
-79.8
-80.58
-82.7
-86.13
-90.41
-94.8
-98.37
-100.14
-99.26
-95.14
-87.73
-77.57
-65.71
-53.47
-41.97
-31.95
-23.64
-16.92
-11.55
-7.39
-4.39
-2.47
-1.4
-0.75
-0.01
1.24
3.16
5.64
8.4
11.17
13.76
16.11
18.25
20.16
21.85
23.26
24.36
25.15
25.66
25.92
25.93
25.67
25.1
24.29
23.34
22.4
21.59
20.92
20.33
19.69
18.87
17.85
16.69
15.5
14.38
13.33
12.21
10.85
9.05
6.77
4.11
1.4
-0.92
-2.39
-2.71
-1.81
0.12
2.72
5.63
8.55
11.31
13.81
15.96
17.63
18.66
18.98
18.61
17.78
16.8
15.97
15.46
15.23
15.12
14.97
14.67
14.26
13.84
13.52
13.36
13.39
13.59
13.92
14.38
14.9
15.36
15.58
15.42
14.79
13.73
12.35
10.84
9.3
7.79
6.31
4.74
3.0
1.0
-1.25
-3.67
-6.07
-8.3
-10.23
-11.87
-13.29
-14.61
-15.92
-17.3
-18.77
-20.37
-22.18
-24.16
-26.25
-28.3
-30.16
-31.85
-33.53
-35.47
-37.85
-40.57
-43.16
-44.86
-44.84
-42.51
-37.71
-30.8
-22.47
-13.59
-4.95
2.87
9.58
15.15
19.79
23.75
27.23
30.36
33.13
35.49
37.45
39.03
40.29
41.26
41.88
42.05
41.67
40.73
39.29
37.51
35.52
33.41
31.25
29.05
26.84
24.65
22.48
20.34
18.2
16.1
14.1
12.26
10.63
9.18
7.87
6.69
5.69
4.9
4.37
4.04
3.81
3.54
3.1
2.44
1.53
0.37
-0.99
-2.54
-4.21
-5.94
-7.64
-9.28
-10.87
-12.46
-14.16
-16.11
-18.4
-21.02
-23.8
-26.43
-28.49
-29.56
-29.38
-27.89
-25.28
-21.89
-18.1
-14.26
-10.6
-7.27
-4.33
-1.85
0.12
1.56
2.5
3.07
3.43
3.81
4.28
4.87
5.46
5.97
6.36
6.7
7.08
7.58
