-20.68
-24.76
-29.31
-34.06
-38.63
-42.76
-46.37
-49.67
-53.1
-57.27
-62.69
-69.53
-77.35
-84.97
-90.63
-92.43
-88.89
-79.53
-65.13
-47.52
-29.1
-12.07
2.05
12.66
19.97
24.64
27.48
29.19
30.36
31.41
32.63
34.16
35.9
37.62
38.99
39.74
39.84
39.54
39.29
39.58
40.71
42.61
44.87
46.89
48.08
48.12
47.03
45.08
42.6
39.88
37.05
34.12
31.05
27.84
24.54
21.21
17.9
14.72
11.71
8.93
6.36
3.93
1.56
-0.8
-3.11
-5.3
-7.33
-9.25
-11.29
-13.67
-16.58
-20.0
-23.76
-27.63
-31.37
-34.89
-38.18
-41.3
-44.45
-47.93
-52.19
-57.68
-64.53
-72.25
-79.61
-84.77
-85.85
-81.61
-71.93
-57.96
-41.71
-25.42
-10.9
0.89
9.8
16.27
20.9
24.2
26.53
28.07
29.01
29.51
29.79
30.01
30.24
30.48
30.72
30.98
31.43
32.32
33.86
36.09
38.78
41.47
43.59
44.65
44.4
42.97
40.68
37.97
35.2
32.52
29.91
27.19
24.18
20.78
17.02
13.07
9.16
5.47
2.1
-1.03
-4.1
-7.37
-10.99
-14.98
-19.18
-23.3
-27.06
-30.27
-32.96
-35.44
-38.19
-41.84
-46.87
-53.39
-60.92
-68.26
-73.72
-75.51
-72.37
-64.01
-51.29
-35.97
-20.19
-5.84
5.86
14.53
20.45
24.29
26.78
28.53
29.93
31.18
32.35
33.43
34.34
35.05
35.52
35.82
36.06
36.42
37.05
38.04
39.39
40.92
42.41
43.54
44.08
43.9
42.98
41.45
39.46
37.15
34.63
31.92
29.01
25.95
22.79
19.65
16.66
13.88
11.3
8.82
6.31
3.65
0.86
-2.0
-4.77
-7.35
-9.74
-12.08
-14.62
-17.61
-21.16
-25.16
-29.33
-33.33
-36.87
-39.87
-42.46
-45.0
-47.97
-51.95
-57.41
-64.38
-72.29
-79.76
-84.87
-85.68
-80.91
-70.53
-55.78
-38.81
-21.96
-7.06
4.9
13.75
19.83
23.7
25.94
27.11
27.72
28.24
28.99
30.02
31.18
32.18
32.8
32.97
32.91
32.95
33.4
34.47
36.11
38.1
40.06
41.59
42.35
42.16
41.0
39.05
36.61
34.01
31.54
29.33
27.34
25.38
23.24
20.78
17.98
15.03
12.14
9.53
7.26
5.23
3.25
1.13
-1.2
-3.64
-5.99
-8.05
-9.77
-11.27
-12.83
-14.75
-17.28
-20.44
-24.08
-27.9
-31.54
-34.76
-37.5
-39.93
-42.45
-45.59
-49.82
-55.41
-62.16
-69.36
-75.71
-79.59
-79.53
-74.65
-65.03
-51.73
-36.54
-21.44
-8.06
2.65
10.5
15.83
19.27
21.47
22.91
23.94
24.73
25.39
25.94
26.41
26.86
27.27
27.71
28.21
28.87
29.83
31.2
33.02
35.19
37.44
39.36
40.5
40.55
39.44
37.39
34.82
32.16
29.72
27.56
25.53
23.41
21.01
18.28
15.28
12.16
9.07
6.14
3.49
1.12
-1.02
-3.12
-5.47
-8.29
-11.66
-15.43
-19.29
-22.86
-25.93
-28.5
-30.84
-33.33
-36.42
-40.45
-45.57
-51.59
-57.85
-63.15
-66.0
-64.99
-59.34
-49.29
-36.11
-21.78
-8.29
2.92
11.28
17.04
20.83
23.31
24.96
25.97
26.47
26.54
26.35
26.01
25.63
25.2
24.78
24.43
24.33
24.68
25.63
27.23
29.31
31.54
33.48
34.69
34.93
34.13
32.49
30.36
28.16
26.14
24.35
22.64
20.81
18.68
16.3
13.86
11.59
9.53
7.56
5.45
2.97
0.15
-2.78
-5.49
-7.72
-9.5
-11.09
-12.88
-15.16
-17.99
-21.21
-24.55
-27.74
-30.63
-33.26
-35.73
-38.24
-41.0
-44.25
-48.23
-53.14
-58.92
-65.09
-70.61
-73.98
-73.65
-68.6
-58.82
-45.42
-30.35
-15.79
-3.41
5.95
12.35
16.38
18.81
20.3
21.28
22.02
22.71
23.48
24.4
25.44
26.44
27.18
27.49
27.36
27.0
26.78
27.09
28.14
29.83
31.71
33.21
33.78
33.19
31.57
29.36
27.07
25.1
23.57
22.3
20.99
19.38
17.38
15.1
12.77
10.58
8.59
6.79
5.08
3.38
1.67
-0.05
-1.78
-3.55
-5.35
-7.18
-8.97
-10.71
-12.48
-14.41
-16.64
-19.24
-22.14
-25.15
-28.1
-30.89
-33.62
-36.46
-39.71
-43.63
-48.39
-53.94
-59.76
-64.93
-68.11
-67.98
-63.67
-55.17
-43.47
-30.24
-17.31
-6.09
2.68
9.01
13.34
16.19
18.04
19.16
19.77
20.02
20.05
20.0
19.96
19.97
20.02
20.11
20.23
20.44
20.85
21.63
22.88
24.59
26.56
28.41
29.7
30.07
29.39
27.77
25.54
23.07
20.66
18.43
16.38
14.47
12.61
10.73
8.76
6.62
4.27
1.79
-0.64
-2.8
-4.54
-5.94
-7.27
-8.93
-11.21
-14.11
-17.34
-20.44
-23.01
-24.93
-26.41
-27.88
-29.85
-32.69
-36.6
-41.52
-47.05
-52.38
-56.39
-57.81
-55.58
-49.32
-39.44
-27.21
-14.31
-2.39
7.31
14.28
18.59
20.76
21.51
21.52
21.29
21.08
20.95
20.85
20.7
20.5
20.33
20.28
20.44
20.87
21.62
22.71
24.11
25.78
27.51
29.08
30.18
30.61
30.27
29.21
27.57
25.5
23.16
20.64
18.06
15.52
13.17
11.07
9.22
7.57
5.98
4.37
2.64
0.77
-1.25
-3.39
-5.64
-7.94
-10.26
-12.64
-15.13
-17.8
-20.67
-23.63
-26.49
-29.11
-31.43
-33.6
-35.95
-38.89
-42.83
-47.97
-54.15
-60.74
-66.59
-70.27
-70.34
-65.97
-57.17
-44.93
-30.96
-17.18
-5.21
4.09
10.53
14.58
16.9
18.23
19.14
19.96
20.83
21.77
22.64
23.37
23.87
24.18
24.37
24.62
25.1
25.94
27.23
28.94
30.95
32.99
34.73
35.83
36.1
35.54
34.32
32.73
31.05
29.37
27.72
25.96
23.98
21.73
19.27
16.68
14.09
11.55
9.02
6.45
3.82
1.17
-1.4
-3.79
-5.97
-8.01
-10.07
-12.35
-14.95
-17.87
-20.99
-24.13
-27.11
-29.79
-32.19
-34.44
-36.86
-39.89
-43.95
-49.21
-55.3
-61.32
-65.86
-67.48
-65.15
-58.62
-48.58
-36.43
-23.79
-12.12
-2.33
5.23
10.64
14.24
16.44
17.67
18.31
18.7
19.1
19.61
20.19
20.74
21.19
21.56
22.02
22.76
23.99
25.71
27.8
29.94
31.72
32.85
33.2
32.81
31.96
30.88
29.77
28.64
27.4
25.9
24.02
21.73
19.07
16.16
13.15
10.18
7.39
4.79
2.3
-0.24
-2.97
-5.97
-9.12
-12.25
-15.15
-17.77
-20.24
-22.84
-25.9
-29.73
-34.55
-40.34
-46.79
-53.06
-57.92
-59.93
-57.91
-51.47
-41.24
-28.77
-16.01
-4.67
4.27
10.61
14.82
17.52
19.25
20.33
20.96
21.32
21.62
22.02
22.54
23.08
23.44
23.54
23.47
23.46
23.84
24.81
26.37
28.32
30.34
32.11
33.4
34.09
34.14
33.61
32.59
31.22
29.62
27.91
26.14
24.31
22.44
20.5
18.49
16.37
14.1
11.64
9.0
6.3
3.75
1.56
-0.17
-1.51
-2.77
-4.3
-6.37
-9.14
-12.51
-16.25
-20.09
-23.75
-27.01
-29.79
-32.16
-34.42
-37.05
-40.58
-45.34
-51.16
-57.2
-62.03
-64.09
-62.21
-56.07
-46.33
-34.4
-21.99
-10.57
-1.11
6.01
10.91
13.99
15.82
17.03
18.15
19.56
21.34
23.31
25.09
26.31
26.78
26.58
25.98
25.41
25.23
25.65
26.66
28.07
29.56
30.82
31.6
31.77
31.34
30.41
29.12
27.63
26.08
24.51
22.9
21.15
19.18
16.99
14.66
12.38
10.32
8.54
6.98
5.51
4.0
2.4
0.78
-0.74
-2.1
-3.37
-4.74
-6.45
-8.65
-11.32
-14.3
-17.33
-20.22
-22.84
-25.26
-27.61
-30.07
-32.8
-35.97
-39.71
-44.08
-48.83
-53.37
-56.69
-57.65
-55.36
-49.51
-40.64
-29.95
-18.88
-8.77
-0.49
5.65
9.77
12.21
13.44
13.94
14.16
14.43
14.95
15.71
16.54
17.26
17.73
18.03
18.33
18.9
19.94
21.48
23.37
25.31
26.98
28.11
28.57
28.36
27.56
26.29
24.68
22.82
20.81
18.75
16.73
14.8
12.94
11.1
9.17
7.1
4.92
2.75
0.75
-0.98
-2.48
-3.94
-5.62
-7.73
-10.3
-13.1
-15.83
-18.17
-19.97
-21.35
-22.65
-24.31
-26.8
-30.41
-35.16
-40.73
-46.42
-51.19
-53.86
-53.41
-49.33
-41.88
-32.05
-21.3
-11.15
-2.69
3.58
7.79
10.46
12.19
13.49
14.68
15.87
17.05
18.16
19.13
19.86
20.3
20.42
20.32
20.15
20.14
20.44
21.18
22.35
23.85
25.39
26.63
27.22
26.93
25.76
23.92
21.84
19.91
18.4
17.33
16.48
15.55
14.29
12.62
10.67
8.71
6.98
5.57
4.39
3.23
1.89
0.3
-1.42
-3.06
-4.44
-5.55
-6.6
-7.86
-9.62
-11.95
-14.73
-17.69
-20.54
-23.12
-25.4
-27.5
-29.57
-31.83
-34.5
-37.8
-41.78
-46.12
-50.08
-52.57
-52.53
-49.33
-43.09
-34.62
-25.14
-15.85
-7.59
-0.73
4.68
8.71
11.48
13.17
14.07
14.54
14.97
15.59
16.41
17.24
17.85
18.11
18.07
17.94
18.01
18.51
19.55
21.03
22.72
24.29
25.45
26.01
25.93
25.29
24.24
22.94
21.53
20.08
18.65
17.24
15.84
14.42
12.93
11.37
9.77
8.26
6.93
5.85
4.95
4.05
2.96
1.56
-0.1
-1.86
-3.5
-4.9
-6.16
-7.51
-9.19
-11.34
-13.86
-16.47
-18.87
-20.89
-22.53
-24.0
-25.57
-27.53
-30.08
-33.32
-37.2
-41.39
-45.26
-47.89
-48.31
-45.82
-40.32
-32.36
-23.04
-13.65
-5.27
1.44
6.32
9.53
11.42
12.38
12.76
12.84
12.82
12.83
12.86
12.88
12.86
12.81
12.82
13.05
13.64
14.67
16.12
17.9
19.8
21.58
22.95
23.66
23.56
22.64
21.06
19.11
17.14
15.44
14.15
13.18
12.24
11.01
9.28
7.08
4.68
2.45
0.64
-0.74
-1.92
-3.25
-5.01
-7.25
-9.78
-12.29
-14.58
-16.6
-18.52
-20.52
-22.75
-25.3
-28.18
-31.52
-35.42
-39.84
-44.39
-48.24
-50.29
-49.54
-45.52
-38.56
-29.68
-20.24
-11.43
-4.01
1.79
6.11
9.23
11.4
12.92
14.08
15.14
16.32
17.66
18.99
20.07
20.65
20.73
20.55
20.49
20.94
22.13
24.07
26.55
29.21
31.69
33.68
35.03
35.76
36.07
36.22
36.51
37.1
37.92
38.75
39.32
39.49
39.35
39.29
39.78
41.17
43.46
46.34
49.22
51.56
53.11
54.08
55.08
56.94
60.33
65.43
71.79
78.24
83.15
84.78
81.64
72.9
58.54
39.44
17.21
-6.26
-29.36
-51.17
-71.75
-91.87
-112.33
-133.19
-153.26
-170.15
-181.1
-184.02
-178.31
-165.14
-146.98
-126.75
-106.9
-88.96
-73.51
-60.54
-49.8
-41.02
-33.93
-28.25
-23.51
-19.2
-14.92
-10.47
-5.94
-1.62
2.2
5.38
8.01
10.4
12.91
15.82
19.17
22.68
25.84
28.11
29.08
28.71
27.29
25.32
23.38
21.84
20.81
20.14
19.56
18.81
17.76
16.44
14.92
13.3
11.65
9.99
8.34
6.71
5.14
3.64
2.2
0.74
-0.86
-2.76
-5.06
-7.75
-10.64
-13.49
-16.02
-18.1
-19.83
-21.51
-23.61
-26.5
-30.34
-34.82
-39.23
-42.56
-43.79
-42.22
-37.65
-30.52
-21.7
-12.33
-3.46
4.17
10.22
14.71
17.84
19.91
21.16
21.83
22.1
22.16
22.18
22.21
22.29
22.36
22.41
22.52
22.86
23.61
24.83
26.44
28.16
29.69
30.75
31.24
31.22
30.78
30.03
28.98
27.64
26.07
24.37
22.72
21.23
19.9
18.53
16.88
14.76
12.18
9.36
6.59
4.18
2.23
0.65
-0.76
-2.28
-4.1
-6.31
-8.92
-11.83
-14.85
-17.81
-20.52
-22.93
-25.19
-27.63
-30.69
-34.64
-39.41
-44.42
-48.65
-50.91
-50.24
-46.27
-39.36
-30.46
-20.8
-11.52
-3.42
3.13
8.1
11.67
14.16
15.93
17.37
18.75
20.2
21.62
22.85
23.67
24.02
23.98
23.78
23.68
23.91
24.59
25.72
27.18
28.74
30.1
30.98
31.15
30.55
29.28
27.63
25.92
24.43
23.3
22.48
21.75
20.85
19.58
17.89
15.93
13.93
12.14
10.7
9.58
8.62
7.63
6.44
5.01
3.45
1.88
0.43
-0.93
-2.33
-4.0
-6.11
-8.7
-11.61
-14.59
-17.39
-19.84
-21.99
-24.02
-26.21
-28.87
-32.23
-36.38
-41.2
-46.28
-50.86
-54.01
-54.75
-52.43
-46.96
-38.89
-29.33
-19.61
-10.86
-3.79
1.39
4.91
7.21
8.78
10.04
11.26
12.6
14.06
15.52
16.8
17.77
18.42
18.87
19.31
19.9
20.72
21.74
22.91
24.15
25.35
26.41
27.17
27.52
27.37
26.72
25.65
24.25
22.59
20.74
18.79
16.85
15.06
13.51
12.15
10.79
9.2
7.26
5.03
2.75
0.76
-0.7
-1.6
-2.18
-2.8
-3.86
-5.55
-7.82
-10.4
-12.91
-15.04
-16.62
-17.71
-18.6
-19.67
-21.4
-24.15
-28.04
-32.77
-37.66
-41.69
-43.76
-43.04
-39.21
-32.59
-24.07
-14.85
-6.1
1.29
6.87
10.64
12.9
14.11
14.68
14.92
14.96
14.84
14.55
14.1
13.56
13.11
12.91
13.14
13.9
15.17
16.85
18.73
20.59
22.2
23.41
24.16
24.42
24.21
23.58
22.58
21.25
19.7
18.01
16.29
14.63
13.07
11.61
10.22
8.8
7.3
5.65
3.85
2.01
0.21
-1.48
-3.09
-4.76
-6.63
-8.79
-11.17
-13.63
-16.02
-18.24
-20.3
-22.29
-24.35
-26.61
-29.25
-32.48
-36.53
-41.46
-46.98
-52.3
-56.27
-57.67
-55.65
-50.09
-41.66
-31.6
-21.31
-11.96
-4.25
1.59
5.69
8.34
9.96
11.01
11.97
13.19
14.83
16.72
18.54
19.91
20.66
20.86
20.8
20.85
21.32
22.32
23.77
25.45
27.07
28.35
29.08
29.16
28.63
27.63
26.36
25.03
23.78
22.66
21.62
20.56
19.32
17.79
15.93
13.83
11.7
9.74
8.12
6.8
5.65
4.42
2.98
1.3
-0.48
-2.18
-3.74
-5.24
-6.85
-8.79
-11.11
-13.76
-16.54
-19.24
-21.7
-23.89
-25.9
-27.91
-30.21
-33.17
-37.04
-41.87
-47.25
-52.28
-55.72
-56.35
-53.41
-46.95
-37.79
-27.33
-16.99
-7.93
-0.73
4.52
8.05
10.24
11.56
12.45
13.3
14.37
15.67
17.04
18.22
19.02
19.43
19.62
19.86
20.38
21.31
22.59
24.14
25.78
27.36
28.71
29.64
29.92
29.41
28.12
26.17
23.85
21.47
19.29
17.45
15.91
14.54
13.18
11.69
10.02
8.28
6.55
4.96
3.58
2.4
1.33
0.22
-1.11
-2.84
-5.04
-7.69
-10.63
-13.57
-16.28
-18.63
-20.63
-22.49
-24.51
-27.01
-30.24
-34.29
-38.97
-43.71
-47.63
-49.63
-48.75
-44.49
-37.09
-27.49
-17.06
-7.13
1.32
7.91
12.68
15.92
17.95
18.96
19.13
18.64
17.74
16.73
15.9
15.46
15.5
15.98
16.8
17.87
19.12
20.53
22.15
23.96
25.89
27.73
29.18
29.89
29.65
28.43
26.45
24.07
21.67
19.54
17.77
16.29
14.94
13.55
12.01
10.28
8.35
6.23
3.99
1.72
-0.43
-2.39
-4.17
-5.92
-7.86
-10.21
-13.06
-16.3
-19.7
-23.0
-26.06
-28.91
-31.72
-34.78
-38.31
-42.56
-47.61
-53.26
-58.98
-63.79
-66.44
-65.81
-61.29
-53.13
-42.39
-30.59
-19.23
-9.36
-1.42
4.63
9.07
12.23
14.38
15.78
16.78
17.73
18.88
20.32
21.87
23.22
24.1
24.44
24.41
24.41
24.84
25.92
27.6
29.55
31.36
32.67
33.3
33.3
32.8
31.95
30.85
29.56
28.06
26.34
24.43
22.35
20.21
18.04
15.9
13.81
11.76
9.75
7.79
5.91
4.14
2.52
1.0
-0.52
-2.19
-4.18
-6.61
-9.47
-12.6
-15.74
-18.67
-21.23
-23.47
-25.62
-28.05
-31.15
-35.21
-40.32
-46.25
-52.41
-57.85
-61.36
-61.87
-58.68
-51.88
-42.25
-31.17
-20.11
-10.27
-2.31
3.67
7.95
10.97
13.16
14.83
16.18
17.33
18.37
19.34
20.27
21.1
21.79
22.26
22.52
22.68
22.96
23.59
24.74
26.41
28.37
30.23
31.57
32.09
31.72
30.61
29.08
27.41
25.78
24.2
22.53
20.56
18.19
15.48
12.61
9.8
7.23
4.95
2.86
0.82
-1.29
-3.58
-6.08
-8.81
-11.72
-14.72
-17.62
-20.24
-22.46
-24.36
-26.24
-28.57
-31.84
-36.28
-41.72
-47.46
-52.37
-55.16
-54.79
-50.76
-43.37
-33.55
-22.67
-12.06
-2.74
4.76
10.36
14.24
16.75
18.24
19.1
19.66
20.15
20.66
21.16
21.53
21.69
21.67
21.61
21.72
22.18
23.06
24.33
25.86
27.44
28.83
29.82
30.21
29.93
29.02
27.64
26.03
24.4
22.86
21.38
19.87
18.24
16.44
14.5
12.48
10.41
8.26
6.03
3.77
1.56
-0.47
-2.31
-4.08
-6.03
-8.41
-11.3
-14.59
-18.0
-21.24
-24.14
-26.7
-29.08
-31.52
-34.35
-37.86
-42.27
-47.47
-52.96
-57.8
-60.73
-60.64
-56.96
-49.87
-40.29
-29.54
-18.96
-9.53
-1.8
4.11
8.4
11.4
13.57
15.32
16.96
18.58
20.1
21.31
22.03
22.25
22.14
21.99
22.0
22.29
22.89
23.79
25.03
26.63
28.5
30.39
31.88
32.6
32.3
31.05
29.14
26.96
24.83
22.87
21.02
19.15
17.13
14.93
12.58
10.15
7.75
5.48
3.4
