-1.32
-3.37
-5.22
-7.06
-9.15
-11.63
-14.48
-17.52
-20.51
-23.22
-25.55
-27.62
-29.71
-32.23
-35.57
-39.97
-45.33
-51.15
-56.48
-60.15
-60.98
-58.24
-51.87
-42.55
-31.56
-20.35
-10.17
-1.83
4.46
8.84
11.71
13.55
14.8
15.86
17.03
18.41
19.94
21.38
22.49
23.11
23.28
23.16
23.01
23.03
23.35
24.04
25.08
26.41
27.85
29.15
29.96
30.01
29.2
27.65
25.68
23.62
21.69
19.91
18.18
16.33
14.28
12.02
9.66
7.31
5.09
3.04
1.17
-0.53
-2.18
-3.92
-5.89
-8.23
-11.0
-14.17
-17.61
-21.11
-24.45
-27.43
-30.0
-32.24
-34.47
-37.06
-40.43
-44.89
-50.34
-56.24
-61.5
-64.74
-64.66
-60.57
-52.6
-41.81
-29.76
-17.99
-7.62
0.85
7.45
12.41
16.04
18.56
20.2
21.2
21.86
22.41
22.94
23.39
23.62
23.57
23.32
23.11
23.25
23.96
25.28
27.05
28.94
30.58
31.63
31.88
31.31
30.05
28.33
26.38
24.36
22.31
20.16
17.87
15.4
12.81
10.28
7.95
5.94
4.17
2.44
0.45
-2.04
-5.08
-8.54
-12.12
-15.48
-18.41
-20.87
-23.06
-25.32
-28.1
-31.76
-36.48
-42.03
-47.67
-52.25
-54.4
-53.05
-47.77
-39.01
-28.02
-16.34
-5.39
3.87
11.07
16.31
19.9
22.22
23.58
24.23
24.37
24.19
23.8
23.32
22.84
22.45
22.24
22.26
22.58
23.28
24.35
25.82
27.6
29.52
31.26
32.42
32.67
31.78
29.87
27.26
24.47
21.93
19.86
18.18
16.54
14.59
12.08
9.09
5.86
2.73
-0.05
-2.51
-4.86
-7.38
-10.3
-13.62
-17.17
-20.62
-23.7
-26.25
-28.37
-30.34
-32.55
-35.46
-39.42
-44.61
-50.8
-57.33
-63.04
-66.59
-66.72
-62.76
-54.83
-43.83
-31.2
-18.51
-7.0
2.58
10.01
15.44
19.25
21.92
23.89
25.55
27.19
28.91
30.69
32.32
33.59
34.36
34.69
34.84
35.17
36.06
37.67
39.97
42.71
45.55
48.14
50.28
51.8
52.66
52.84
52.43
51.61
50.62
49.79
49.34
49.38
49.86
50.62
51.5
52.37
53.18
53.92
54.59
55.18
55.74
56.28
56.8
57.26
57.48
57.22
56.26
54.41
51.64
48.07
43.83
38.98
33.4
26.84
18.96
9.43
-1.98
-15.32
-30.28
-46.1
-61.48
-74.9
-84.94
-90.82
-92.65
-91.43
-88.62
-85.65
-83.57
-82.97
-84.1
-87.11
-91.96
-98.28
-105.14
-111.1
-114.51
-114.1
-109.39
-100.88
-89.75
-77.43
-65.12
-53.54
-42.98
-33.41
-24.74
-16.88
-9.86
-3.71
1.53
5.87
9.34
12.04
14.08
15.54
16.47
16.84
16.63
15.85
14.62
13.11
11.47
9.78
8.02
6.2
4.35
2.61
1.13
-0.06
-1.08
-2.19
-3.64
-5.56
-7.82
-10.15
-12.27
-14.03
-15.51
-16.93
-18.59
-20.82
-23.93
-28.1
-33.31
-39.1
-44.56
-48.38
-49.23
-46.22
-39.29
-29.32
-17.81
-6.41
3.67
11.89
18.33
23.36
27.35
30.47
32.7
33.96
34.29
33.85
32.96
31.95
31.05
30.49
30.37
30.75
31.63
32.94
34.54
36.25
37.87
39.23
40.21
40.67
40.47
39.54
37.9
35.69
33.17
30.6
28.17
25.92
23.75
21.51
19.05
16.33
13.41
10.41
7.49
4.76
2.27
-0.0
-2.14
-4.3
-6.65
-9.3
-12.28
-15.44
-18.55
-21.43
-23.96
-26.23
-28.5
-31.15
-34.57
-39.06
-44.64
-50.87
-56.83
-61.21
-62.59
-59.93
-53.0
-42.58
-30.21
-17.75
-6.75
1.96
8.36
12.92
16.25
18.84
20.94
22.63
24.0
25.18
26.3
27.39
28.35
29.04
29.34
29.29
29.11
29.13
29.59
30.61
32.06
33.69
35.15
36.17
36.57
36.29
35.34
33.77
31.68
29.19
26.52
23.91
21.56
19.58
17.87
16.29
14.6
12.67
10.47
8.08
5.64
3.29
1.09
-0.97
-2.99
-5.14
-7.55
-10.34
-13.5
-16.89
-20.31
-23.48
-26.24
-28.54
-30.58
-32.73
-35.51
-39.41
-44.61
-50.79
-57.0
-61.81
-63.74
-61.73
-55.58
-46.03
-34.51
-22.64
-11.78
-2.73
4.31
9.52
13.29
16.0
17.97
19.42
20.52
21.33
21.9
22.23
22.36
22.34
22.23
22.08
22.01
22.17
22.71
23.73
25.17
26.8
28.32
29.45
30.02
30.02
29.56
28.73
27.6
26.2
24.59
22.85
20.99
18.97
16.66
13.95
10.86
7.65
4.7
2.35
0.66
-0.61
-1.9
-3.62
-5.95
-8.73
-11.67
-14.45
-16.94
-19.18
-21.38
-23.71
-26.36
-29.49
-33.26
-37.73
-42.7
-47.56
-51.26
-52.63
-50.71
-45.18
-36.55
-25.97
-14.91
-4.7
3.77
10.19
14.65
17.54
19.3
20.28
20.81
21.06
21.13
21.06
20.85
20.54
20.18
19.92
19.93
20.36
21.28
22.65
24.29
25.94
27.35
28.32
28.72
28.55
27.79
26.47
24.65
22.43
20.03
17.7
15.62
13.86
12.25
10.52
8.39
5.77
2.84
-0.09
-2.68
-4.74
-6.35
-7.74
-9.28
-11.28
-13.88
-16.99
-20.39
-23.74
-26.78
-29.42
-31.73
-33.97
-36.47
-39.63
-43.64
-48.49
-53.76
-58.63
-61.96
-62.56
-59.59
-52.91
-43.21
-31.78
-20.17
-9.68
-1.01
5.68
10.67
14.36
17.11
19.17
20.73
21.94
22.91
23.73
24.43
25.06
25.6
26.11
26.59
27.05
27.52
28.01
28.59
29.31
30.16
31.0
31.59
31.65
31.05
29.85
28.27
26.62
25.07
23.63
22.14
20.42
18.4
16.16
13.86
11.66
9.64
7.72
5.82
3.87
1.89
0.02
-1.66
-3.14
-4.57
-6.17
-8.16
-10.65
-13.56
-16.63
-19.57
-22.16
-24.34
-26.3
-28.37
-30.98
-34.45
-39.0
-44.51
-50.48
-56.02
-59.94
-61.03
-58.41
-51.92
-42.22
-30.7
-19.01
-8.61
-0.34
5.64
9.74
12.56
14.64
16.29
17.66
18.79
19.74
20.57
21.3
21.89
22.26
22.38
22.31
22.23
22.38
22.94
23.97
25.33
26.76
27.99
28.77
28.91
28.37
27.15
25.37
23.23
21.01
18.96
17.27
15.94
14.8
13.6
12.12
10.32
8.27
6.14
4.09
2.16
0.35
-1.41
-3.21
-5.16
-7.4
-9.98
-12.85
-15.81
-18.56
-20.91
-22.81
-24.49
-26.31
-28.65
-31.81
-35.82
-40.4
-44.93
-48.49
-49.97
-48.43
-43.5
-35.52
-25.6
-15.2
-5.66
2.16
8.06
12.23
15.05
16.84
17.77
18.04
17.81
17.41
17.11
17.1
17.41
17.91
18.44
18.87
19.2
19.57
20.15
21.1
22.41
23.91
25.3
26.24
26.48
25.93
24.73
23.14
21.43
19.76
18.15
16.52
14.75
12.76
10.57
8.23
5.81
3.31
0.72
-1.95
-4.6
-7.06
-9.15
-10.82
-12.15
-13.4
-14.91
-16.95
-19.63
-22.82
-26.23
-29.51
-32.39
-34.82
-37.01
-39.4
-42.51
-46.7
-51.92
-57.54
-62.38
-65.01
-64.17
-59.32
-50.82
-39.84
-27.96
-16.66
-6.89
0.98
7.05
11.62
15.01
17.46
19.22
20.54
21.69
22.88
24.19
25.59
26.97
28.25
29.42
30.53
31.7
32.99
34.43
35.9
37.26
38.33
38.97
39.08
38.61
37.56
36.01
34.11
32.03
29.94
27.95
26.03
24.17
22.36
20.72
19.38
18.49
18.0
17.73
17.38
16.7
15.59
14.09
12.34
10.48
8.54
6.5
4.29
1.88
-0.71
-3.42
-6.16
-8.81
-11.26
-13.42
-15.27
-16.83
-18.31
-20.02
-22.29
-25.29
-28.8
-32.01
-33.64
-32.32
-27.04
-17.67
-4.98
9.58
24.47
38.51
51.18
62.52
72.83
82.38
91.1
98.68
104.52
107.89
108.05
104.4
96.74
85.31
70.89
54.55
37.4
20.41
4.3
-10.45
-23.47
-34.65
-44.15
-52.57
-60.85
-69.99
-80.57
-92.38
-104.3
-114.57
-121.4
-123.58
-120.93
-114.31
-105.27
-95.44
-86.09
-77.84
-70.73
-64.53
-59.04
-54.3
-50.55
-48.0
-46.64
-46.09
-45.79
-45.16
-43.95
-42.25
-40.52
-39.27
-38.98
-39.84
-41.89
-44.98
-48.76
-52.61
-55.58
-56.55
-54.47
-48.79
-39.77
-28.44
-16.32
-4.92
4.72
12.17
17.61
21.45
24.15
25.99
27.12
27.65
27.7
27.5
27.25
27.06
26.97
26.95
27.01
27.25
27.89
29.09
30.89
33.12
35.38
37.25
38.38
38.57
37.9
36.62
35.02
33.36
31.78
30.27
28.75
27.13
25.37
23.54
21.68
19.82
17.91
15.87
13.69
11.45
9.32
7.41
5.72
4.06
2.15
-0.27
-3.29
-6.72
-10.27
-13.6
-16.55
-19.17
-21.75
-24.72
-28.49
-33.4
-39.45
-46.22
-52.8
-57.92
-60.23
-58.74
-53.19
-44.18
-32.98
-21.14
-10.05
-0.57
7.0
12.78
17.08
20.22
22.51
24.22
25.63
26.97
28.34
29.74
31.08
32.25
33.22
34.1
35.07
36.22
37.58
39.03
40.4
41.56
42.4
42.86
42.87
42.31
41.14
39.38
37.2
34.79
32.33
29.88
27.38
24.74
21.94
19.08
16.35
13.88
11.66
9.57
7.43
5.18
2.89
0.69
-1.29
-3.07
-4.83
-6.84
-9.27
-12.16
-15.28
-18.36
-21.11
-23.46
-25.56
-27.75
-30.43
-33.97
-38.57
-44.2
-50.4
-56.31
-60.74
-62.42
-60.43
-54.52
-45.26
-33.91
-22.05
-11.1
-1.99
4.96
9.91
13.27
15.51
17.03
18.12
19.01
19.82
20.65
21.49
22.28
22.95
23.48
23.91
24.35
24.94
25.77
26.86
28.13
29.44
30.63
31.57
32.17
32.33
31.97
31.03
29.49
27.47
25.2
22.95
20.94
19.2
17.59
15.81
13.63
10.96
7.99
5.07
2.5
0.39
-1.41
-3.26
-5.5
-8.26
-11.38
-14.5
-17.24
-19.41
-21.08
-22.55
-24.25
-26.55
-29.73
-33.9
-38.94
-44.39
-49.46
-53.04
-53.99
-51.51
-45.44
-36.42
-25.65
-14.6
-4.52
3.8
10.12
14.61
17.65
19.64
20.89
21.59
21.89
21.94
21.81
21.6
21.34
21.04
20.76
20.64
20.88
21.61
22.88
24.52
26.2
27.6
28.49
28.82
28.67
28.18
27.37
26.27
24.8
22.98
20.88
18.64
16.41
14.33
12.5
10.91
9.47
8.03
6.41
4.54
2.47
0.33
-1.71
-3.58
-5.33
-7.11
-9.1
-11.43
-14.07
-16.89
-19.71
-22.34
-24.7
-26.78
-28.67
-30.61
-32.91
-35.95
-40.04
-45.23
-51.1
-56.68
-60.64
-61.64
-58.84
-52.23
-42.62
-31.44
-20.16
-9.99
-1.58
4.9
9.61
12.89
15.09
16.59
17.7
18.67
19.59
20.44
21.12
21.53
21.64
21.5
21.26
21.15
21.42
22.28
23.75
25.67
27.69
29.36
30.37
30.55
30.0
28.97
27.75
26.56
25.49
24.5
23.44
22.16
20.54
18.58
16.41
14.23
12.21
10.44
8.83
7.19
5.37
3.35
1.26
-0.71
-2.41
-3.88
-5.35
-7.07
-9.28
-11.96
-14.96
-18.06
-21.07
-23.94
-26.68
-29.36
-32.09
-34.99
-38.25
-42.09
-46.64
-51.73
-56.75
-60.68
-62.28
-60.56
-55.12
-46.39
-35.48
-23.92
-13.11
-4.03
2.95
7.97
11.43
13.79
15.46
16.68
17.62
18.4
19.11
19.83
20.61
21.42
22.2
22.86
23.37
23.79
24.28
25.03
26.2
27.77
29.55
31.17
32.24
32.47
31.82
30.5
28.84
27.15
25.55
24.02
22.38
20.48
18.25
15.83
13.39
11.12
9.14
7.47
6.03
4.66
3.26
1.69
-0.08
-2.0
-4.0
-5.93
-7.75
-9.51
-11.31
-13.3
-15.54
-18.0
-20.56
-23.11
-25.56
-27.94
-30.38
-33.06
-36.23
-40.09
-44.59
-49.31
-53.39
-55.67
-55.1
-51.1
-43.88
-34.36
-23.9
-13.85
-5.15
1.76
6.94
10.67
13.27
15.04
16.17
16.78
17.01
16.91
16.59
16.12
15.63
15.26
15.19
15.59
16.63
18.34
20.6
23.12
25.49
27.33
28.41
28.68
28.3
27.47
26.3
24.82
22.96
20.75
18.33
15.97
13.92
12.24
10.81
9.34
7.6
5.53
3.28
1.15
-0.68
-2.22
-3.71
-5.47
-7.73
-10.5
-13.59
-16.73
-19.69
-22.36
-24.78
-27.08
-29.42
-31.99
-34.99
-38.7
-43.29
-48.75
-54.62
-59.97
-63.55
-64.11
-60.88
-53.85
-43.88
-32.38
-20.87
-10.56
-2.09
4.45
9.34
12.98
15.76
17.96
19.77
21.26
22.47
23.37
23.98
24.34
24.55
24.71
24.95
25.38
26.09
27.15
28.56
30.17
31.73
32.92
33.47
33.28
32.45
31.2
29.78
28.33
26.85
25.25
23.44
21.42
19.28
17.17
15.22
13.49
11.97
10.52
9.02
7.35
5.47
3.48
1.52
-0.25
-1.8
-3.27
-4.93
-7.09
-9.9
-13.29
-16.97
-20.59
-23.9
-26.86
-29.63
-32.44
-35.54
-39.15
-43.48
-48.69
-54.69
-60.99
-66.56
-70.0
-69.91
-65.45
-56.75
-44.89
-31.64
-18.78
-7.65
1.18
7.76
12.55
16.04
18.6
20.48
21.83
22.82
23.64
24.4
25.15
25.8
26.2
26.33
26.3
26.35
26.78
27.83
29.53
31.66
33.82
35.56
36.53
36.59
35.86
34.57
32.98
31.2
29.31
27.31
25.21
23.07
21.02
19.11
17.34
15.65
13.91
12.0
9.85
7.48
4.97
2.5
0.26
-1.61
-3.17
-4.65
-6.4
-8.75
-11.82
-15.46
-19.29
-22.84
-25.84
-28.26
-30.37
-32.6
-35.46
-39.36
-44.47
-50.58
-57.02
-62.63
-66.05
-66.05
-61.96
-53.96
-43.09
-30.91
-19.0
-8.53
-0.01
6.59
11.59
15.37
18.17
20.1
21.24
21.72
21.7
21.39
20.95
20.52
20.23
20.24
20.67
21.59
22.96
24.66
26.55
28.48
30.27
31.75
32.68
32.86
32.14
30.59
28.51
26.3
24.32
22.64
21.06
19.2
16.72
13.55
9.95
6.37
3.22
0.66
-1.49
-3.61
-6.09
-9.08
-12.48
-15.98
-19.28
-22.21
-24.82
-27.36
-30.18
-33.63
-38.06
-43.69
-50.41
-57.72
-64.52
-69.34
-70.67
-67.48
-59.59
-47.87
-33.99
-19.9
-7.26
2.95
10.49
15.7
19.2
21.63
23.47
25.02
26.45
27.75
28.85
29.58
29.81
29.53
28.89
28.25
28.01
28.49
29.77
31.7
33.93
36.1
37.91
39.16
39.67
39.31
37.99
35.79
32.96
29.88
26.96
24.45
22.36
20.46
18.45
16.09
13.25
10.03
6.64
3.37
0.48
-1.9
-3.8
-5.45
-7.18
-9.36
-12.21
-15.72
-19.67
-23.73
-27.58
-31.03
-34.08
-36.92
-39.94
-43.62
-48.42
-54.52
-61.65
-68.86
-74.64
-77.31
-75.5
-68.72
-57.59
-43.65
-28.88
-15.1
-3.53
5.41
11.86
16.35
19.44
21.67
23.43
25.01
26.54
28.02
29.31
30.27
30.81
31.0
31.03
31.15
31.57
32.45
33.78
35.47
37.27
38.9
40.07
40.5
40.11
38.95
37.18
35.04
32.71
30.29
27.8
25.23
22.56
19.84
17.13
14.48
11.86
9.22
6.52
3.77
1.05
-1.52
-3.92
-6.26
-8.73
-11.52
-14.71
-18.18
-21.69
-25.0
-27.99
-30.69
-33.29
-36.06
-39.28
-43.3
-48.38
-54.57
-61.5
-68.22
-73.29
-75.13
-72.58
-65.34
-54.16
-40.61
-26.55
-13.63
-2.85
5.51
11.69
16.17
19.37
21.64
23.2
24.2
24.8
25.13
25.31
25.4
25.48
25.61
25.9
26.49
27.46
28.85
30.58
32.44
34.14
35.35
35.75
35.21
33.76
31.61
29.08
26.52
24.14
21.98
19.93
17.78
15.38
12.68
9.77
6.77
3.8
0.88
-2.05
-5.09
-8.36
-11.9
-15.68
-19.58
-23.38
-26.91
-30.01
-32.76
-35.47
-38.66
-42.95
-48.76
-55.99
-63.8
-70.65
-74.72
-74.45
-69.09
-59.06
-45.68
-30.88
-16.49
-3.89
6.23
13.74
18.97
22.4
24.62
26.2
27.6
29.13
30.86
32.62
34.17
35.29
35.91
36.19
36.38
36.83
37.79
39.39
41.51
43.81
45.83
47.11
47.39
46.68
45.24
43.39
41.4
39.39
37.3
35.01
32.43
29.61
26.67
23.74
20.92
18.23
15.63
13.07
10.48
7.81
5.06
2.23
-0.62
-3.45
-6.22
-8.91
-11.57
-14.27
-17.12
-20.17
-23.44
-26.88
-30.4
-33.89
-37.29
-40.67
-44.19
-48.21
-53.06
-59.02
-65.94
-73.12
-79.25
-82.69
-81.94
-76.25
-65.92
-52.3
-37.3
-22.83
-10.25
-0.18
7.47
13.15
17.4
20.67
23.28
25.46
27.33
28.93
30.24
31.21
31.84
32.24
32.59
33.15
34.07
35.41
37.06
38.82
40.5
41.9
42.88
43.36
43.26
42.5
41.07
39.07
36.67
34.07
31.44
28.89
26.48
24.21
22.05
20.03
18.12
16.3
14.58
12.97
11.43
9.92
8.34
6.54
4.46
2.09
-0.44
-2.95
-5.3
-7.47
-9.61
-11.91
-14.58
-17.69
-21.16
-24.78
-28.34
-31.65
-34.64
-37.36
-39.97
-42.79
-46.25
-50.83
-56.79
-63.88
-71.14
-76.99
-79.65
-77.74
-70.85
-59.67
-45.82
-31.22
-17.57
-5.94
3.28
10.19
15.15
18.59
20.93
22.58
23.86
25.03
26.17
27.24
28.16
28.84
29.31
29.67
30.1
30.79
31.86
33.33
35.08
36.86
38.39
39.42
39.8
39.51
38.63
37.3
35.64
33.75
31.64
29.28
26.65
23.8
20.85
17.96
15.29
12.98
11.07
9.49
8.08
6.65
5.01
3.06
0.85
-1.49
-3.71
-5.66
-7.3
-8.81
-10.5
-12.68
-15.54
-18.99
-22.74
-26.39
-29.65
-32.42
-34.87
-37.35
-40.29
-44.07
-48.83
-54.34
-59.88
-64.34
-66.38
-64.84
-59.17
-49.65
-37.42
-24.08
-11.28
-0.24
8.43
14.66
18.75
21.14
22.3
22.71
22.75
22.7
22.66
22.56
22.29
21.81
21.25
20.9
21.09
22.05
23.81
26.15
28.74
31.15
32.98
33.98
34.05
33.29
31.93
30.24
28.47
26.72
24.98
23.17
21.23
19.06
16.69
14.16
11.57
9.03
6.63
4.42
2.36
0.36
-1.66
-3.66
-5.59
-7.33
-8.87
-10.39
-12.18
-14.59
-17.78
-21.64
-25.82
-29.82
-33.29
-36.08
-38.38
-40.59
-43.2
-46.68
-51.31
-57.02
-63.3
-69.1
-73.03
-73.71
-70.19
-62.35
-50.97
-37.54
-23.82
-11.34
-1.04
6.76
12.32
16.13
18.74
20.59
22.0
23.2
24.33
25.46
26.56
27.47
28.0
28.02
27.63
27.15
27.05
27.74
29.35
31.63
34.07
36.11
37.31
37.51
36.8
35.41
33.59
31.59
29.59
27.76
26.17
24.78
23.41
21.85
19.93
17.65
15.15
12.69
10.46
8.51
6.7
4.87
2.87
0.69
-1.58
-3.76
-5.74
-7.47
-9.06
-10.67
-12.5
-14.71
-17.35
-20.39
-23.7
-27.1
-30.4
-33.52
-36.43
-39.29
-42.36
-46.05
-50.72
-56.51
-63.05
-69.33
-73.83
-74.95
-71.59
-63.6
-51.89
-38.14
-24.25
-11.71
-1.4
6.48
12.14
15.97
18.4
19.83
20.67
21.26
21.87
22.59
23.39
24.2
24.91
25.49
25.93
26.34
26.85
27.65
28.88
30.57
32.53
34.42
35.82
36.43
36.18
35.18
33.68
31.92
30.1
28.34
26.68
25.13
23.6
22.01
20.3
18.51
16.72
15.08
13.66
12.41
11.18
9.82
8.21
6.39
4.56
2.97
1.82
1.23
1.13
1.33
1.52
1.44
0.96
0.11
-0.9
-1.76
-2.27
-2.39
-2.31
-2.41
-3.1
-4.66
-7.05
-9.74
-11.78
-11.99
-9.24
-2.89
6.96
19.48
33.32
46.94
59.02
68.7
75.58
79.71
81.38
80.93
78.69
74.83
69.44
62.62
54.56
45.63
36.38
27.37
19.05
11.67
5.22
-0.52
-5.84
-11.06
-16.45
-22.17
-28.29
-34.73
-41.31
-47.91
-54.56
-61.49
-69.0
-77.21
-85.84
-94.11
-100.87
-105.03
-105.87
-103.35
-98.06
-90.98
-83.15
-75.39
-68.22
-61.92
-56.64
-52.53
-49.73
-48.28
-48.01
-48.5
-49.23
-49.73
-49.82
-49.72
-49.97
-51.24
-54.06
-58.65
-64.66
-71.2
-76.88
-80.11
-79.46
-74.22
-64.59
-51.78
-37.53
-23.64
-11.38
-1.29
6.7
12.94
17.78
21.43
24.08
25.96
27.38
28.62
29.86
31.13
32.32
33.35
34.24
35.09
36.06
37.31
38.89
40.73
42.65
44.42
45.81
46.63
46.8
46.32
45.33
44.0
