1.02
-0.48
-1.97
-3.59
-5.51
-7.89
-10.7
-13.76
-16.83
-19.68
-22.24
-24.6
-26.93
-29.45
-32.39
-35.99
-40.46
-45.77
-51.48
-56.64
-59.97
-60.21
-56.68
-49.53
-39.79
-28.93
-18.39
-9.15
-1.56
4.47
9.24
12.98
15.8
17.73
18.86
19.34
19.39
19.26
19.13
19.13
19.31
19.69
20.26
21.01
21.95
23.07
24.39
25.87
27.36
28.61
29.3
29.17
28.16
26.44
24.39
22.44
20.9
19.84
19.03
18.09
16.65
14.51
11.78
8.75
5.79
3.17
0.95
-1.0
-2.86
-4.8
-6.85
-8.97
-11.08
-13.07
-14.92
-16.6
-18.14
-19.63
-21.26
-23.35
-26.28
-30.32
-35.32
-40.58
-44.83
-46.53
-44.36
-37.68
-26.84
-13.07
1.89
16.36
29.14
39.74
48.28
55.25
61.22
66.76
72.29
78.14
84.47
91.26
98.17
104.6
109.74
112.72
112.87
109.82
103.65
94.84
84.17
72.52
60.67
49.14
38.12
27.58
17.36
7.38
-2.35
-11.77
-20.9
-29.92
-39.14
-48.85
-59.13
-69.77
-80.33
-90.23
-98.9
-105.78
-110.4
-112.34
-111.37
-107.53
-101.25
-93.28
-84.62
-76.21
-68.84
-63.0
-58.85
-56.28
-54.91
-54.26
-53.88
-53.54
-53.28
-53.42
-54.42
-56.7
-60.43
-65.42
-70.98
-76.01
-79.09
-78.88
-74.49
-65.85
-53.77
-39.8
-25.72
-13.06
-2.74
4.99
10.45
14.2
16.9
19.06
21.02
22.92
24.76
26.43
27.81
28.85
29.56
30.08
30.52
31.05
31.83
32.96
34.5
36.34
38.25
39.9
41.01
41.41
41.13
40.33
39.2
37.88
36.42
34.84
33.18
31.48
29.8
28.14
26.45
24.66
22.69
20.49
18.09
15.54
12.97
10.5
8.26
6.28
4.44
2.51
0.2
-2.7
-6.22
-10.16
-14.2
-18.04
-21.54
-24.71
-27.77
-30.98
-34.65
-39.07
-44.41
-50.55
-56.91
-62.35
-65.41
-64.78
-59.77
-50.74
-38.95
-26.17
-14.07
-3.73
4.48
10.76
15.51
19.07
21.6
23.19
23.91
23.97
23.64
23.18
22.76
22.46
22.33
22.42
22.87
23.84
25.47
27.76
30.47
33.2
35.47
36.94
37.49
37.25
36.48
35.42
34.19
32.78
31.09
29.09
26.77
24.17
21.32
18.22
14.96
11.66
8.55
5.83
3.57
1.62
-0.31
-2.58
-5.48
-9.06
-13.16
-17.47
-21.65
-25.45
-28.82
-31.86
-34.86
-38.17
-42.19
-47.29
-53.63
-60.96
-68.43
-74.63
-77.87
-76.67
-70.38
-59.48
-45.51
-30.6
-16.69
-5.07
3.9
10.58
15.58
19.46
22.53
24.91
26.67
27.95
28.92
29.75
30.48
31.07
31.48
31.77
32.14
32.83
34.05
35.83
38.05
40.42
42.61
44.32
45.31
45.47
44.75
43.21
41.02
38.45
35.77
33.21
30.8
28.46
25.99
23.33
20.54
17.85
15.51
13.61
11.97
10.23
8.04
5.28
2.15
-0.92
-3.55
-5.6
-7.27
-9.04
-11.36
-14.56
-18.61
-23.29
-28.18
-32.9
-37.19
-40.99
-44.5
-48.13
-52.45
-58.03
-65.09
-73.23
-81.3
-87.5
-89.95
-87.24
-79.0
-66.11
-50.4
-34.1
-19.16
-6.8
2.64
9.47
14.34
17.92
20.7
23.03
25.11
27.08
28.97
30.76
32.39
33.81
35.05
36.25
37.59
39.2
41.16
43.35
45.57
47.65
49.41
50.75
51.6
51.88
51.5
50.47
48.89
46.93
44.82
42.71
40.61
38.45
36.07
33.39
30.39
27.14
23.76
20.3
16.77
13.18
9.56
5.99
2.64
-0.35
-2.98
-5.33
-7.69
-10.32
-13.4
-16.93
-20.74
-24.56
-28.13
-31.36
-34.33
-37.36
-40.89
-45.42
-51.26
-58.31
-65.94
-72.91
-77.63
-78.55
-74.75
-66.2
-53.92
-39.56
-24.92
-11.45
0.02
9.3
16.59
22.21
26.51
29.78
32.25
34.1
35.45
36.33
36.68
36.42
35.49
33.77
31.15
27.56
23.03
17.79
12.31
7.1
2.65
-0.78
-3.16
-4.57
-5.06
-4.52
-2.74
0.48
5.16
11.03
17.58
24.19
30.33
35.59
39.74
42.65
44.27
44.72
44.32
43.55
42.81
42.25
41.7
40.86
39.8
39.17
40.07
43.58
50.07
58.79
68.08
75.86
80.34
80.48
76.15
67.9
56.8
44.28
31.92
21.36
13.92
10.22
9.88
11.59
13.42
13.39
10.15
3.39
-6.16
-17.08
-27.85
-37.38
-45.19
-51.25
-55.64
-58.35
-59.33
-58.67
-56.72
-53.93
-50.57
-46.52
-41.3
-34.49
-26.07
-16.65
-7.24
1.12
7.75
12.5
15.55
17.22
17.75
17.32
16.07
14.24
12.06
9.68
7.08
4.16
0.76
-3.13
-7.39
-11.83
-16.16
-20.16
-23.59
-26.35
-28.44
-30.03
-31.45
-33.07
-35.17
-37.85
-40.95
-44.19
-47.3
-50.19
-52.95
-55.88
-59.41
-63.99
-69.97
-77.26
-85.18
-92.32
-96.77
-96.71
-91.02
-79.76
-64.22
-46.46
-28.61
-12.29
1.64
12.99
21.91
28.58
33.18
35.91
37.12
37.29
36.95
36.44
35.89
35.31
34.63
33.95
33.49
33.58
34.42
36.06
38.28
40.67
42.72
43.95
44.02
42.78
40.33
37.02
33.27
29.48
25.82
22.23
18.51
14.43
9.95
5.2
0.51
-3.83
-7.63
-10.92
-13.9
-16.84
-19.96
-23.29
-26.71
-30.01
-32.97
-35.56
-37.94
-40.5
-43.73
-48.1
-53.92
-61.19
-69.37
-77.34
-83.48
-86.0
-83.55
-75.64
-62.92
-47.03
-30.03
-13.81
0.35
11.92
20.91
27.59
32.32
35.42
37.23
38.09
38.32
38.14
37.64
36.83
35.79
34.75
34.18
34.69
36.85
40.89
46.58
53.07
59.16
63.53
65.18
63.7
59.36
53.09
46.12
39.68
34.72
31.71
30.55
30.7
31.3
31.47
30.57
28.33
24.91
20.74
16.25
11.71
7.1
2.3
-2.8
-8.08
-13.25
-17.97
-22.05
-25.62
-29.06
-32.96
-37.9
-44.37
-52.51
-62.01
-71.88
-80.5
-85.88
-86.21
-80.48
-68.96
-53.13
-35.31
-17.86
-2.64
9.37
18.05
23.8
27.23
28.98
29.54
29.36
28.77
28.03
27.28
26.58
25.9
25.21
24.52
23.94
23.66
23.92
24.9
26.58
28.69
30.78
32.34
33.04
32.79
31.81
30.43
28.94
27.41
25.68
23.51
20.73
17.4
13.78
10.27
7.14
4.54
2.44
0.71
-0.68
-1.66
-2.0
-1.5
-0.1
1.85
3.69
4.56
3.68
0.73
-4.12
-10.13
-16.47
-22.48
-27.95
-33.19
-38.72
-45.01
-52.25
-60.23
-68.39
-75.85
-81.38
-83.48
-80.67
-71.99
-57.6
-39.11
-19.4
-1.75
11.22
18.47
20.73
19.97
18.36
17.44
17.62
18.37
18.75
17.92
15.47
11.4
6.06
-0.04
-6.28
-11.98
-16.5
-19.31
-20.16
-19.08
-16.34
-12.49
-8.2
-4.25
-1.36
-0.11
-0.73
-3.01
-6.42
-10.24
-13.8
-16.73
-18.96
-20.72
-22.37
-24.14
-25.99
-27.69
-28.85
-29.24
-28.9
-28.22
-27.71
-27.87
-28.94
-30.8
-33.1
-35.46
-37.64
-39.66
-41.76
-44.35
-47.8
-52.48
-58.65
-66.37
-75.33
-84.67
-92.98
-98.55
-99.92
-96.39
-88.41
-77.41
-65.4
-54.23
-45.17
-38.65
-34.54
-32.44
-32.0
-33.0
-35.25
-38.48
-42.29
-46.15
-49.54
-52.02
-53.4
-53.67
-52.92
-51.25
-48.63
-44.87
-39.74
-33.08
-24.89
-15.42
-5.11
5.56
16.03
25.75
34.22
41.02
45.9
48.86
50.17
50.27
49.66
48.79
47.97
47.45
47.39
47.95
49.21
51.19
53.72
56.59
59.47
62.06
64.15
65.67
66.63
67.16
67.32
66.99
65.71
62.78
57.38
48.91
37.35
23.59
9.47
-2.54
-9.89
-10.74
-4.68
6.94
21.25
34.73
44.34
48.47
47.3
42.48
36.3
30.74
26.93
25.09
24.88
25.85
27.77
30.51
33.91
37.54
40.69
42.58
42.71
41.11
38.36
35.38
33.05
31.77
31.37
31.16
30.38
28.51
25.55
21.91
18.21
14.93
12.31
10.3
8.74
7.47
6.45
5.7
5.28
5.23
5.52
6.02
6.59
7.07
7.31
7.21
6.72
5.83
4.54
2.87
0.82
-1.65
-4.56
-7.91
-11.64
-15.58
-19.47
-23.06
-26.23
-29.15
-32.26
-36.12
-41.2
-47.55
-54.57
-61.18
-66.04
-67.94
-66.18
-60.71
-52.12
-41.39
-29.68
-18.11
-7.58
1.31
8.34
13.63
17.58
20.65
23.23
25.48
27.27
28.34
28.5
27.78
26.55
25.33
24.67
24.93
26.17
28.22
30.75
33.39
35.82
37.77
39.07
39.61
39.38
38.48
37.07
35.33
33.35
31.12
28.55
25.61
22.4
19.13
16.08
13.41
11.16
9.14
7.04
4.56
1.54
-1.99
-5.86
-9.81
-13.66
-17.38
-21.15
-25.32
-30.27
-36.3
-43.37
-50.94
-57.98
-63.18
-65.28
-63.5
-57.82
-48.92
-38.08
-26.74
-16.19
-7.31
-0.5
4.33
7.53
9.59
11.03
12.23
13.41
14.6
15.67
16.46
16.85
16.82
16.48
16.1
16.04
16.67
18.25
20.83
24.18
27.79
31.06
33.45
34.66
34.67
33.76
32.28
30.59
28.86
27.12
25.28
23.27
21.01
18.49
15.77
12.89
9.93
6.92
3.9
0.85
-2.22
-5.26
-8.21
-10.99
-13.58
-16.13
-18.88
-22.19
-26.39
-31.72
-38.16
-45.38
-52.71
-59.13
-63.5
-64.73
-62.24
-56.12
-47.18
-36.72
-26.16
-16.6
-8.69
-2.56
1.93
5.05
7.12
8.43
9.31
10.03
10.74
11.47
12.06
12.41
12.52
12.59
12.99
14.1
16.17
19.17
22.91
27.01
31.07
34.74
37.75
39.94
41.25
41.72
41.53
40.95
40.25
39.73
39.49
39.53
39.69
39.79
39.67
39.22
38.41
37.16
35.42
33.1
30.16
26.59
22.45
17.74
12.45
6.54
0.05
-6.74
-13.36
-19.2
-23.69
-26.52
-27.77
-27.85
-27.38
-27.03
-27.27
-28.31
-30.0
-31.84
-33.1
-32.98
-30.84
-26.44
-19.94
-11.88
-3.06
5.67
13.53
19.92
24.53
27.3
28.4
28.19
27.05
25.35
23.24
20.58
17.04
12.25
5.98
-1.61
-9.85
-17.57
-23.32
-25.76
-24.11
-18.43
-9.62
0.89
11.67
21.67
30.34
37.54
43.2
47.1
48.96
48.64
46.48
43.3
40.18
37.98
36.96
36.78
36.66
35.87
33.98
30.97
27.09
22.63
17.82
12.85
7.89
3.11
-1.39
-5.62
-9.84
-14.35
-19.38
-24.97
-30.82
-36.51
-41.62
-46.01
-49.88
-53.74
-58.3
-64.14
-71.43
-79.78
-88.13
-94.93
-98.56
-97.7
-91.81
-81.31
-67.39
-51.63
-35.49
-20.01
-5.8
6.73
17.12
24.87
29.54
31.06
29.92
26.99
23.27
19.48
15.91
12.54
9.27
6.2
3.68
2.09
1.68
2.42
3.99
5.87
7.58
8.77
9.27
9.14
8.64
8.16
8.15
9.01
10.95
13.97
17.82
22.1
26.35
30.09
32.94
34.63
35.05
34.28
32.54
30.16
27.48
24.78
22.21
19.84
17.67
15.69
13.91
12.27
10.65
8.89
6.79
4.28
1.38
-1.71
-4.75
-7.48
-9.69
-11.24
-12.06
-12.16
-11.66
-10.79
-9.88
-9.18
-8.8
-8.57
-8.0
-6.45
-3.26
2.03
9.42
18.45
28.22
37.57
45.37
50.77
53.33
53.09
50.47
46.24
41.38
36.94
33.86
32.66
33.45
35.86
39.3
43.29
47.56
52.03
56.58
60.88
64.37
66.36
66.35
64.13
59.8
53.67
46.12
37.48
28.16
18.65
9.47
1.12
-6.09
-12.11
-17.11
-21.33
-24.94
-27.99
-30.38
-32.05
-33.06
-33.69
-34.46
-35.88
-38.29
-41.61
-45.27
-48.38
-49.93
-49.21
-46.0
-40.64
-33.91
-26.74
-19.98
-14.19
-9.65
-6.35
-4.14
-2.77
-1.95
-1.44
-1.06
-0.76
-0.61
-0.73
-1.19
-1.93
-2.73
-3.34
-3.52
-3.16
-2.29
-1.08
0.26
1.47
2.37
2.83
2.86
2.53
1.94
1.14
0.15
-1.0
-2.28
-3.51
-4.57
-5.36
-5.94
-6.51
-7.3
-8.42
-9.77
-11.09
-12.08
-12.53
-12.52
-12.29
-12.21
-12.63
-13.73
-15.46
-17.61
-19.86
-21.9
-23.55
-24.82
-25.86
-26.95
-28.39
-30.44
-33.25
-36.79
-40.75
-44.56
-47.43
-48.58
-47.44
-43.88
-38.27
-31.38
-24.15
-17.43
-11.76
-7.32
-3.96
-1.41
0.61
2.25
3.52
4.38
4.81
4.9
4.82
4.78
4.89
5.16
5.53
5.89
6.23
6.6
7.15
7.96
8.97
10.05
10.95
11.47
11.51
11.06
10.24
9.18
7.99
6.75
5.46
4.06
2.49
0.77
-1.03
-2.79
-4.38
-5.79
-7.11
-8.56
-10.31
-12.41
-14.74
-17.08
-19.2
-21.04
-22.71
-24.43
-26.38
-28.66
-31.26
-34.12
-37.15
-40.15
-42.73
-44.27
-44.09
-41.65
-36.84
-30.13
-22.39
-14.69
-7.9
-2.49
1.55
4.48
6.7
8.49
10.0
11.26
12.27
12.99
13.43
13.6
13.51
13.21
12.78
12.39
12.23
12.51
13.33
14.65
16.3
17.95
19.34
20.22
20.48
20.11
19.18
17.83
16.26
14.72
13.32
12.12
11.02
9.81
8.3
6.42
4.25
1.97
-0.21
-2.16
-3.85
-5.37
-6.86
-8.47
-10.34
-12.54
-15.08
-17.89
-20.8
-23.65
-26.3
-28.75
-31.14
-33.69
-36.63
-40.1
-44.09
-48.32
-52.21
-54.96
-55.65
-53.58
-48.48
-40.73
-31.29
-21.39
-12.18
-4.36
1.86
6.69
10.48
13.54
16.02
17.97
19.47
20.68
21.76
22.83
23.84
24.59
24.9
24.69
24.12
23.55
23.36
23.82
24.91
26.4
27.87
28.98
29.49
29.38
28.73
27.68
26.37
24.87
23.24
21.48
19.63
17.74
15.85
13.98
12.12
10.21
8.15
5.86
3.33
0.62
-2.1
-4.57
-6.58
-8.03
-9.05
-9.95
-11.18
-13.12
-15.86
-19.24
-22.86
-26.28
-29.3
-31.98
-34.68
-37.92
-42.06
-47.1
-52.55
-57.37
-60.29
-60.15
-56.34
-49.05
-39.24
-28.28
-17.55
-8.01
-0.15
5.96
10.43
13.47
15.39
16.61
17.57
18.68
20.05
21.52
22.78
23.5
23.62
23.31
22.92
22.81
23.21
24.16
25.58
27.31
29.12
30.73
31.88
32.32
31.93
30.77
29.02
27.01
25.01
23.19
21.59
20.13
18.71
17.19
15.48
13.55
11.41
9.15
6.9
4.78
2.84
0.99
-1.0
-3.42
-6.44
-10.03
-13.95
-17.81
-21.24
-24.02
-26.21
-28.12
-30.2
-32.9
-36.56
-41.23
-46.57
-51.87
-56.11
-58.16
-57.09
-52.46
-44.52
-34.21
-22.88
-11.93
-2.46
5.03
10.59
14.63
17.65
19.97
21.74
22.93
23.52
23.57
23.24
22.77
22.38
22.19
22.26
22.58
23.21
24.18
25.56
27.34
29.33
31.25
32.73
33.47
33.27
32.16
30.32
28.02
25.54
23.01
20.49
17.97
15.42
12.85
10.32
7.84
5.41
2.97
0.49
-2.01
-4.5
-6.93
-9.34
-11.84
-14.59
-17.67
-21.06
-24.59
-28.06
-31.32
-34.31
-37.1
-39.88
-42.9
-46.5
-50.97
-56.35
-62.28
-67.84
-71.74
-72.61
-69.53
-62.37
-51.89
-39.48
-26.73
-14.97
-4.98
3.0
9.11
13.64
16.92
19.28
20.99
22.31
23.45
24.56
25.65
26.67
27.51
28.13
28.55
28.91
29.45
30.39
31.87
33.82
36.03
38.1
39.61
40.27
40.0
38.97
37.45
35.75
34.0
32.21
30.27
28.12
25.75
23.29
20.87
18.56
16.3
13.9
11.21
8.23
5.1
2.07
-0.61
-2.89
-4.9
-6.92
-9.26
-12.08
-15.34
-18.83
-22.29
-25.53
-28.47
-31.22
-33.97
-36.93
-40.39
-44.59
-49.75
-55.89
-62.63
-69.03
-73.71
-75.16
-72.29
-64.88
-53.73
-40.42
-26.74
-14.15
-3.46
5.15
11.86
16.97
20.74
23.43
25.3
26.68
27.82
28.85
29.75
30.42
30.77
30.87
30.9
31.13
31.81
33.01
34.66
36.52
38.26
39.58
40.31
40.43
40.04
39.34
38.43
37.28
35.81
33.93
31.68
29.17
26.62
24.17
21.9
19.74
17.57
15.26
12.74
10.05
7.3
4.64
2.2
0.05
-1.83
-3.58
-5.46
-7.76
-10.66
-14.12
-17.91
-21.69
-25.13
-28.05
-30.53
-32.79
-35.21
-38.22
-42.22
-47.34
-53.29
-59.26
-63.96
-65.98
-64.21
-58.27
-48.68
-36.7
-23.94
-11.85
-1.45
6.79
12.85
16.99
19.63
21.17
22.05
22.61
23.11
23.58
23.97
24.13
23.97
23.5
22.94
22.59
22.75
23.65
25.33
27.64
30.27
32.77
34.69
35.65
35.46
34.17
32.08
29.58
27.06
24.76
22.71
20.78
18.78
16.55
14.07
11.41
8.72
6.14
3.77
1.66
-0.23
-2.05
-4.0
-6.33
-9.24
-12.73
-16.59
-20.44
-23.92
-26.8
-29.17
-31.44
-34.15
-37.87
-42.85
-48.87
-55.11
-60.31
-63.05
-62.2
-57.28
-48.64
-37.4
-25.11
-13.25
-2.89
5.42
11.66
16.15
19.24
21.31
22.63
23.43
23.92
24.26
24.53
24.74
24.84
24.79
24.64
24.53
24.68
25.33
26.58
28.33
30.32
32.15
33.48
34.06
33.82
32.91
31.52
29.91
28.22
26.54
24.82
23.01
21.08
19.06
17.0
14.97
12.98
10.99
8.89
6.59
4.08
1.43
-1.15
-3.47
-5.43
-7.08
-8.71
-10.68
-13.25
-16.43
-20.0
-23.55
-26.75
-29.44
-31.7
-33.79
-36.13
-39.14
-43.15
-48.27
-54.11
-59.78
-63.94
-65.17
-62.51
-55.81
-45.84
-34.03
-21.96
-10.93
-1.7
5.49
10.79
14.49
16.93
18.48
19.52
20.35
21.16
22.02
22.86
23.58
24.1
24.43
24.66
24.9
25.32
26.0
26.97
28.18
29.46
30.64
31.54
31.98
31.87
31.16
29.87
28.13
26.09
23.97
21.94
20.09
18.44
16.9
15.38
13.8
12.07
10.14
7.95
5.52
2.97
0.51
-1.62
-3.27
-4.52
-5.6
-6.84
-8.5
-10.7
-13.36
-16.28
-19.22
-21.96
-24.4
-26.57
-28.64
-30.95
-33.89
-37.78
-42.65
-48.09
-53.21
-56.83
-57.83
-55.52
-49.83
-41.37
-31.24
-20.67
-10.77
-2.27
4.48
9.5
13.0
15.3
16.71
17.54
18.0
18.26
18.38
18.41
18.33
18.14
17.89
17.68
17.67
18.04
18.9
20.25
21.94
23.69
25.22
26.31
26.82
26.7
25.95
24.65
22.9
20.85
18.69
16.61
14.71
12.97
11.29
9.46
7.34
4.93
2.4
0.01
-1.99
-3.52
-4.72
-5.91
-7.44
-9.51
-12.1
-14.97
-17.84
-20.52
-22.94
-25.23
-27.55
-30.03
-32.79
-35.96
-39.64
-43.83
-48.26
-52.28
-54.89
-55.0
-51.82
-45.21
-35.76
-24.72
-13.58
-3.65
4.26
9.95
13.68
15.95
17.3
