27.01
30.35
34.47
38.82
42.71
45.59
47.06
47.02
45.64
43.26
40.32
37.27
34.55
32.53
31.45
31.38
32.19
33.67
35.49
37.41
39.26
41.01
42.72
44.48
46.31
48.16
49.86
51.18
51.78
51.36
49.61
46.41
41.81
36.15
29.95
23.82
18.24
13.48
9.53
6.2
3.29
0.71
-1.45
-3.04
-3.92
-4.15
-3.97
-3.71
-3.75
-4.26
-5.27
-6.67
-8.3
-9.98
-11.53
-12.77
-13.54
-13.66
-13.09
-11.87
-10.17
-8.28
-6.47
-4.99
-3.99
-3.5
-3.49
-3.87
-4.51
-5.31
-6.25
-7.33
-8.64
-10.21
-12.03
-13.98
-15.86
-17.46
-18.66
-19.51
-20.21
-21.07
-22.35
-24.14
-26.31
-28.57
-30.56
-32.03
-32.95
-33.51
-34.11
-35.19
-37.12
-40.17
-44.4
-49.59
-55.19
-60.23
-63.49
-63.82
-60.47
-53.5
-43.74
-32.58
-21.5
-11.63
-3.57
2.6
7.09
10.24
12.4
13.94
15.19
16.42
17.73
19.03
20.15
20.96
21.46
21.84
22.32
23.05
24.08
25.33
26.68
28.06
29.4
30.6
31.5
31.84
31.42
30.18
28.29
26.06
23.82
21.78
19.95
18.15
16.23
14.1
11.85
9.65
7.64
5.84
4.15
2.41
0.53
-1.45
-3.41
-5.21
-6.81
-8.29
-9.89
-11.87
-14.4
-17.45
-20.78
-24.01
-26.82
-29.03
-30.79
-32.42
-34.34
-36.93
-40.47
-45.04
-50.44
-56.14
-61.17
-64.3
-64.34
-60.55
-53.0
-42.66
-31.12
-20.04
-10.64
-3.41
1.83
5.63
8.55
10.99
13.17
15.15
16.95
18.53
19.82
20.7
21.12
21.12
20.92
20.82
21.12
22.03
23.54
25.48
27.54
29.36
30.59
31.02
30.57
29.37
27.65
25.72
23.85
22.17
20.67
19.25
17.71
15.95
13.92
11.73
9.52
7.46
5.63
4.01
2.49
0.95
-0.7
-2.46
-4.26
-6.04
-7.83
-9.68
-11.75
-14.09
-16.7
-19.49
-22.3
-24.99
-27.52
-29.87
-32.11
-34.35
-36.77
-39.61
-43.12
-47.43
-52.32
-57.19
-61.02
-62.65
-61.17
-56.26
-48.3
-38.26
-27.38
-16.83
-7.45
0.29
6.27
10.52
13.28
14.93
15.9
16.59
17.22
17.83
18.32
18.56
18.53
18.36
18.29
18.51
19.09
20.02
21.19
22.48
23.83
25.14
26.31
27.18
27.58
27.35
26.48
25.05
23.25
21.36
19.59
17.99
16.46
14.84
12.94
10.74
8.32
5.91
3.66
1.63
-0.29
-2.28
-4.51
-7.03
-9.79
-12.64
-15.41
-18.03
-20.48
-22.8
-25.09
-27.46
-30.09
-33.25
-37.19
-41.98
-47.32
-52.4
-56.01
-56.94
-54.33
-48.07
-38.83
-27.89
-16.71
-6.53
1.83
8.1
12.39
15.11
16.7
17.62
18.21
18.72
19.29
19.89
20.42
20.72
20.66
20.19
19.47
18.78
18.46
18.78
19.76
21.24
22.86
24.28
25.25
25.67
25.57
25.05
24.17
22.97
21.5
19.84
18.06
16.25
14.46
12.74
11.08
9.5
7.96
6.4
4.77
3.01
1.16
-0.71
-2.45
-3.98
-5.36
-6.78
-8.53
-10.82
-13.74
-17.16
-20.79
-24.33
-27.57
-30.48
-33.22
-36.06
-39.33
-43.29
-48.1
-53.57
-59.17
-63.92
-66.58
-66.03
-61.64
-53.61
-42.95
-31.14
-19.7
-9.74
-1.78
4.16
8.34
11.05
12.6
13.32
13.61
13.83
14.27
15.01
15.94
16.88
17.74
18.54
19.39
20.43
21.74
23.33
25.14
27.09
29.0
30.66
31.83
32.35
32.19
31.48
30.42
29.14
27.66
25.93
23.93
21.75
19.63
17.83
16.45
15.43
14.51
13.42
11.98
10.17
8.12
6.02
4.01
2.18
0.53
-0.97
-2.44
-4.07
-6.05
-8.53
-11.48
-14.72
-17.96
-20.99
-23.72
-26.28
-28.94
-32.04
-35.87
-40.57
-45.92
-51.3
-55.64
-57.71
-56.5
-51.61
-43.48
-33.25
-22.4
-12.19
-3.38
3.81
9.49
13.83
16.94
18.93
19.97
20.37
20.48
20.54
20.6
20.58
20.37
19.95
19.46
19.12
19.19
19.84
21.12
22.94
25.09
27.21
28.94
29.96
30.07
29.3
27.85
26.03
24.1
22.2
20.31
18.31
16.07
13.55
10.79
7.98
5.3
2.91
0.87
-0.93
-2.66
-4.57
-6.87
-9.61
-12.7
-15.92
-18.98
-21.68
-23.99
-26.08
-28.31
-31.14
-34.99
-40.01
-45.92
-51.89
-56.69
-58.99
-57.79
-52.8
-44.53
-34.16
-23.09
-12.62
-3.58
3.67
9.15
13.08
15.78
17.56
18.76
19.61
20.28
20.81
21.14
21.24
21.08
20.76
20.45
20.29
20.45
21.0
21.94
23.15
24.46
25.62
26.43
26.76
26.59
25.96
24.95
23.64
22.11
20.41
18.61
16.81
15.04
13.3
11.46
9.34
6.83
3.92
0.78
-2.27
-4.93
-7.04
-8.66
-10.11
-11.76
-13.93
-16.67
-19.82
-23.05
-26.04
-28.59
-30.65
-32.39
-34.04
-35.95
-38.53
-42.05
-46.62
-51.85
-56.87
-60.36
-60.97
-57.77
-50.66
-40.47
-28.69
-16.99
-6.63
1.76
8.17
12.95
16.49
19.04
20.73
21.73
22.29
22.74
23.33
24.11
24.95
25.64
25.99
26.06
26.07
26.33
27.05
28.27
29.81
31.37
32.64
33.43
33.64
33.3
32.51
31.38
30.01
28.54
27.03
25.52
23.96
22.3
20.53
18.7
16.94
15.38
14.02
12.72
11.25
9.42
7.24
4.91
2.77
1.05
-0.24
-1.31
-2.49
-4.07
-6.17
-8.7
-11.49
-14.29
-16.94
-19.3
-21.37
-23.28
-25.26
-27.65
-30.77
-34.76
-39.38
-43.9
-47.26
-48.25
-46.06
-40.47
-32.03
-21.91
-11.47
-1.86
6.21
12.59
17.52
21.3
24.27
26.59
28.41
29.88
31.12
32.27
33.39
34.47
35.54
36.67
38.03
39.82
42.23
45.32
48.94
52.83
56.59
59.87
62.38
64.01
64.8
64.88
64.4
63.49
62.21
60.57
58.57
56.17
53.36
50.1
46.35
42.07
37.28
32.02
26.42
20.67
14.91
9.21
3.51
-2.43
-8.93
-16.28
-24.56
-33.54
-42.72
-51.39
-58.93
-64.97
-69.54
-72.97
-75.76
-78.37
-81.0
-83.56
-85.66
-86.67
-85.88
-82.71
-76.91
-68.7
-58.8
-48.26
-38.13
-29.26
-22.07
-16.55
-12.49
-9.55
-7.42
-5.89
-4.76
-3.84
-3.01
-2.2
-1.36
-0.52
0.36
1.34
2.54
4.05
5.9
8.04
10.27
12.38
14.09
15.21
15.64
15.41
14.67
13.63
12.52
11.5
10.68
10.03
9.47
8.89
8.18
7.28
6.17
4.87
3.4
1.8
0.11
-1.58
-3.21
-4.73
-6.15
-7.66
-9.47
-11.74
-14.48
-17.46
-20.34
-22.81
-24.74
-26.3
-27.83
-29.75
-32.38
-35.92
-40.39
-45.63
-51.16
-56.18
-59.62
-60.4
-57.86
-51.98
-43.53
-33.81
-24.21
-15.84
-9.23
-4.39
-0.96
1.54
3.52
5.3
7.08
8.98
11.0
13.02
14.82
16.14
16.87
17.05
16.92
16.84
17.13
17.97
19.3
20.85
22.29
23.34
23.84
23.83
23.46
22.93
22.36
21.8
21.24
20.63
19.95
19.21
18.43
17.62
16.75
15.77
14.69
13.53
12.37
11.24
10.15
9.06
7.91
6.68
5.35
3.97
2.52
0.95
-0.87
-3.07
-5.66
-8.53
-11.42
-14.04
-16.25
-18.14
-20.06
-22.54
-26.05
-30.75
-36.35
-42.05
-46.72
-49.17
-48.56
-44.66
-37.92
-29.34
-20.16
-11.57
-4.37
1.1
4.94
7.5
9.21
10.49
11.6
12.7
13.87
15.04
16.14
17.06
17.7
18.02
18.08
18.07
18.24
18.8
19.87
21.37
23.07
24.68
25.97
26.77
27.03
26.74
25.95
24.71
23.09
21.25
19.35
17.55
15.92
14.4
12.84
11.05
8.95
6.62
4.27
2.15
0.39
-1.06
-2.42
-3.99
-5.97
-8.39
-11.08
-13.8
-16.34
-18.61
-20.65
-22.61
-24.67
-27.07
-30.02
-33.72
-38.11
-42.82
-47.03
-49.66
-49.64
-46.32
-39.76
-30.76
-20.61
-10.65
-1.92
5.07
10.29
14.03
16.62
18.4
19.63
20.54
21.29
21.97
22.57
23.01
23.21
23.12
22.83
22.49
22.32
22.5
23.14
24.19
25.47
26.71
27.66
28.13
28.09
27.61
26.79
25.75
24.53
23.15
21.59
19.83
17.88
15.77
13.51
11.17
8.81
6.51
4.27
2.05
-0.3
-2.91
-5.82
-8.95
-12.09
-15.04
-17.68
-20.07
-22.45
-25.19
-28.66
-33.12
-38.55
-44.49
-50.06
-54.09
-55.46
-53.48
-48.16
-40.24
-30.93
-21.49
-12.94
-5.78
-0.16
4.08
7.18
9.36
10.86
11.94
12.8
13.58
14.33
14.97
15.43
15.69
15.88
16.21
16.93
18.17
19.95
22.07
24.22
26.09
27.39
27.97
27.84
27.11
25.97
24.61
23.16
21.63
19.95
18.02
15.78
13.28
10.62
7.98
5.48
3.17
1.08
-0.83
-2.6
-4.31
-6.1
-8.09
-10.38
-12.91
-15.51
-17.98
-20.18
-22.16
-24.13
-26.47
-29.58
-33.69
-38.63
-43.79
-48.06
-50.21
-49.18
-44.56
-36.76
-26.93
-16.56
-7.01
0.84
6.73
10.85
13.64
15.48
16.68
17.44
17.87
18.04
18.02
17.83
17.55
17.28
17.16
17.36
17.95
18.97
20.34
21.91
23.53
25.02
26.19
26.84
26.82
26.04
24.57
22.63
20.49
18.4
16.47
14.67
12.89
11.02
9.06
7.07
5.1
3.14
1.06
-1.32
-4.11
-7.29
-10.7
-14.12
-17.34
-20.28
-22.99
-25.61
-28.37
-31.56
-35.48
-40.32
-45.93
-51.73
-56.67
-59.47
-59.0
-54.74
-46.95
-36.69
-25.38
-14.46
-4.92
2.75
8.55
12.78
15.84
18.11
19.96
21.61
23.18
24.71
26.1
27.25
28.07
28.53
28.73
28.86
29.18
29.93
31.22
32.95
34.86
36.55
37.6
37.79
37.09
35.66
33.76
31.64
29.47
27.33
25.3
23.4
21.63
19.95
18.22
16.27
13.95
11.18
8.05
4.81
1.77
-0.79
-2.79
-4.39
-5.95
-7.86
-10.42
-13.63
-17.22
-20.75
-23.83
-26.27
-28.19
-29.94
-32.01
-34.84
-38.76
-43.81
-49.73
-55.79
-60.88
-63.69
-63.11
-58.58
-50.36
-39.5
-27.51
-15.99
-6.11
1.52
6.87
10.36
12.57
14.1
15.39
16.7
18.09
19.5
20.8
21.89
22.69
23.2
23.5
23.72
24.06
24.74
25.89
27.47
29.27
30.98
32.23
32.75
32.44
31.38
29.78
27.91
26.03
24.28
22.71
21.26
19.81
18.27
16.62
14.87
13.05
11.12
9.01
6.7
4.27
1.96
-0.0
-1.47
-2.53
-3.48
-4.74
-6.61
-9.17
-12.24
-15.48
-18.59
-21.38
-23.86
-26.19
-28.6
-31.42
-34.9
-39.18
-44.05
-48.85
-52.57
-54.06
-52.41
-47.39
-39.49
-29.83
-19.72
-10.31
-2.28
4.17
9.13
12.85
15.52
17.36
18.49
19.12
19.38
19.38
19.15
18.75
18.24
17.76
17.54
17.79
18.67
20.16
22.09
24.19
26.13
27.6
28.41
28.48
27.8
26.5
24.77
22.88
21.08
19.53
18.23
16.99
15.55
13.67
11.28
8.53
5.74
3.25
1.25
-0.28
-1.6
-3.06
-5.03
-7.65
-10.81
-14.14
-17.18
-19.59
-21.3
-22.57
-23.93
-25.9
-28.89
-33.09
-38.37
-44.32
-50.18
-54.93
-57.41
-56.61
-52.06
-44.07
-33.75
-22.63
-12.2
-3.49
3.14
7.91
11.31
13.86
15.88
17.55
18.92
20.05
21.0
21.8
22.43
22.79
22.83
22.56
22.16
21.91
22.11
22.9
24.24
25.88
27.49
28.76
29.5
29.63
29.17
28.15
26.68
24.88
22.96
21.09
19.42
17.98
16.69
15.45
14.19
12.89
11.56
10.22
8.81
7.25
5.47
3.47
1.36
-0.71
-2.62
-4.37
-6.07
-7.93
-10.15
-12.82
-15.94
-19.31
-22.7
-25.85
-28.59
-30.91
-33.01
-35.26
-38.11
-41.99
-46.99
-52.69
-58.14
-62.0
-62.94
-60.05
-53.24
-43.29
-31.62
-19.89
-9.48
-1.22
4.75
8.78
11.49
13.47
15.18
16.81
18.43
19.98
21.35
22.42
23.13
23.44
23.39
23.11
22.86
22.93
23.57
24.87
26.71
28.73
30.5
31.6
31.85
31.29
30.19
28.9
27.65
26.53
25.42
24.15
22.58
20.68
18.56
16.44
14.47
12.77
11.33
10.02
8.68
7.18
5.49
3.67
1.86
0.17
-1.39
-2.9
-4.51
-6.4
-8.67
-11.28
-14.14
-17.09
-20.01
-22.76
-25.29
-27.61
-29.88
-32.35
-35.4
-39.26
-43.9
-48.78
-52.93
-55.18
-54.49
-50.4
-43.18
-33.75
-23.43
-13.49
-4.87
2.0
7.13
10.76
13.26
14.89
15.85
16.26
16.25
15.98
15.61
15.29
15.1
15.05
15.13
15.32
15.73
16.48
17.69
19.33
21.23
23.07
24.55
25.41
25.58
25.09
24.06
22.64
21.01
19.27
17.52
15.72
13.8
11.65
9.24
6.66
4.15
1.94
0.18
-1.16
-2.3
-3.59
-5.31
-7.67
-10.67
-14.17
-17.84
-21.36
-24.46
-27.1
-29.43
-31.88
-34.92
-38.9
-43.93
-49.65
-55.27
-59.61
-61.42
-59.68
-54.06
-45.01
-33.79
-22.05
-11.32
-2.59
3.9
8.51
11.86
14.51
16.72
18.58
20.05
21.12
21.9
22.54
23.14
23.76
24.35
24.84
25.21
25.48
25.76
26.16
26.79
27.63
28.61
29.54
30.22
30.53
30.39
29.83
28.91
27.68
26.14
24.24
21.97
19.4
16.77
14.31
12.22
10.57
9.17
7.75
6.06
4.0
1.66
-0.72
-2.92
-4.87
-6.67
-8.55
-10.72
-13.25
-16.07
-18.98
-21.71
-24.13
-26.24
-28.25
-30.46
-33.24
-36.9
-41.64
-47.33
-53.43
-59.02
-62.89
-63.81
-60.96
-54.24
-44.36
-32.67
-20.72
-9.91
-1.08
5.53
10.16
13.3
15.49
17.18
18.63
19.97
21.23
22.33
23.19
23.72
23.88
23.74
23.43
23.19
23.29
23.98
25.37
27.37
29.63
31.64
32.91
33.09
32.16
30.36
28.1
25.82
23.8
22.13
20.73
19.39
17.91
16.18
14.2
12.08
10.02
8.13
6.44
4.88
3.37
1.89
0.47
-0.81
-1.98
-3.18
-4.63
-6.47
-8.74
-11.29
-13.89
-16.36
-18.64
-20.79
-22.95
-25.29
-28.04
-31.42
-35.64
-40.68
-46.1
-51.01
-54.21
-54.54
-51.36
-44.72
-35.45
-24.84
-14.21
-4.6
3.41
9.65
14.23
17.32
19.16
19.99
20.13
19.94
19.73
19.67
19.81
20.06
20.3
20.52
20.78
21.23
22.02
23.2
24.69
26.28
27.73
28.79
29.29
29.18
28.45
27.18
25.45
23.4
21.17
18.87
16.57
14.27
11.93
9.52
7.04
4.57
2.16
-0.16
-2.49
-4.97
-7.7
-10.69
-13.78
-16.75
-19.39
-21.62
-23.53
-25.38
-27.51
-30.32
-34.08
-38.81
-44.08
-49.0
-52.36
-52.94
-49.98
-43.49
-34.25
-23.63
-13.1
-3.84
3.55
9.04
12.95
15.74
17.79
19.32
20.45
21.23
21.72
22.0
22.14
22.19
22.18
22.14
22.17
22.36
22.88
23.78
25.05
26.5
27.84
28.8
29.2
28.97
28.16
26.87
25.24
23.43
21.56
19.75
18.05
16.46
14.92
13.4
11.83
10.17
8.35
6.33
4.09
1.68
-0.78
-3.13
-5.27
-7.2
-9.07
-11.06
-13.3
-15.77
-18.32
-20.8
-23.11
-25.28
-27.47
-29.96
-33.05
-36.99
-41.85
-47.31
-52.61
-56.66
-58.28
-56.65
-51.57
-43.64
-34.01
-24.03
-14.88
-7.23
-1.32
3.0
6.04
8.19
9.75
11.04
12.25
13.52
14.86
16.2
17.4
18.38
19.09
19.56
19.89
20.21
20.65
21.33
22.3
23.53
24.86
26.02
26.73
26.84
26.33
25.37
24.21
23.01
21.84
20.62
19.26
17.65
15.84
13.88
11.9
10.01
8.31
6.85
5.62
4.57
3.58
2.56
1.41
0.09
-1.42
-3.15
-5.16
-7.49
-10.1
-12.87
-15.56
-17.99
-20.06
-21.84
-23.6
-25.71
-28.59
-32.49
-37.34
-42.65
-47.49
-50.64
-50.99
-47.95
-41.66
-33.06
-23.57
-14.58
-7.08
-1.46
2.44
5.07
6.93
8.37
9.63
10.83
12.04
13.26
14.37
15.22
15.69
15.73
15.48
15.18
15.13
15.59
16.68
18.33
20.34
22.4
24.16
25.28
25.58
25.06
23.88
22.34
20.71
19.22
17.88
16.63
15.3
13.72
11.78
9.45
6.86
4.25
1.91
0.08
-1.15
-1.94
-2.65
-3.68
-5.3
-7.52
-10.1
-12.66
-14.91
-16.74
-18.25
-19.71
-21.47
-23.81
-26.9
-30.7
-34.87
-38.71
-41.28
-41.65
-39.26
-34.15
-27.01
-18.95
-11.12
-4.35
1.03
5.02
7.86
9.73
10.79
11.16
11.05
10.73
10.43
10.29
10.29
10.32
10.3
10.28
10.47
11.1
12.3
14.02
16.01
17.95
19.52
20.53
20.89
20.59
19.74
18.46
16.94
15.39
13.97
12.8
11.8
10.82
9.68
8.19
6.34
4.23
2.09
0.13
-1.54
-2.95
-4.29
-5.8
-7.68
-9.97
-12.52
-15.06
-17.3
-19.09
-20.52
-21.92
-23.7
-26.23
-29.68
-33.97
