-8.93
-10.04
-11.18
-12.39
-13.76
-15.32
-17.09
-18.87
-20.34
-21.09
-20.77
-19.23
-16.62
-13.31
-9.82
-6.64
-4.07
-2.24
-1.13
-0.65
-0.73
-1.26
-2.08
-2.93
-3.49
-3.55
-3.04
-2.15
-1.17
-0.41
-0.01
0.05
-0.06
-0.2
-0.24
-0.18
0.01
0.37
0.96
1.77
2.78
3.82
4.75
5.41
5.75
5.81
5.72
5.66
5.81
6.25
6.91
7.7
8.44
9.06
9.6
10.17
10.87
11.71
12.61
13.42
14.02
14.32
14.32
14.03
13.49
12.73
11.8
10.75
9.57
8.22
6.65
4.79
2.62
0.2
-2.28
-4.51
-6.11
-6.64
-5.79
-3.47
0.04
4.19
8.27
11.64
13.97
15.27
15.83
16.03
16.16
16.31
16.44
16.44
16.25
15.91
15.59
15.49
15.76
16.46
17.52
18.78
20.07
21.31
22.47
23.62
24.8
26.04
27.36
28.75
30.27
31.99
33.9
35.76
37.11
37.36
36.0
32.84
28.06
22.18
15.8
9.38
3.13
-2.99
-9.14
-15.38
-21.59
-27.55
-33.01
-37.88
-42.24
-46.28
-50.15
-53.85
-57.2
-59.98
-62.0
-63.26
-63.83
-63.86
-63.41
-62.43
-60.79
-58.29
-54.79
-50.17
-44.45
-37.8
-30.6
-23.37
-16.7
-11.07
-6.71
-3.61
-1.52
-0.17
0.68
1.14
1.25
1.02
0.53
-0.13
-0.81
-1.35
-1.66
-1.67
-1.37
-0.77
0.09
1.18
2.51
4.06
5.76
7.47
9.02
10.23
10.99
11.3
11.29
11.08
10.77
10.4
9.9
9.27
8.48
7.6
6.68
5.8
4.96
4.12
3.21
2.18
1.04
-0.15
-1.32
-2.41
-3.44
-4.48
-5.62
-6.94
-8.44
-10.04
-11.72
-13.51
-15.5
-17.76
-20.19
-22.48
-24.05
-24.32
-22.88
-19.7
-15.14
-9.91
-4.75
-0.29
3.17
5.56
7.02
7.67
7.59
6.86
5.62
4.15
2.85
2.09
2.06
2.68
3.67
4.75
5.81
6.95
8.45
10.5
13.04
15.78
18.25
20.08
21.12
21.46
21.34
20.93
20.33
19.5
18.42
17.12
15.73
14.41
13.27
12.31
11.48
10.69
9.85
8.89
7.74
6.33
4.65
2.77
0.86
-0.89
-2.37
-3.61
-4.84
-6.33
-8.39
-11.14
-14.56
-18.37
-22.1
-25.14
-26.84
-26.66
-24.38
-20.23
-14.82
-9.0
-3.56
1.0
4.5
7.05
8.79
9.85
10.28
10.2
9.76
9.16
8.62
8.27
8.17
8.29
8.61
9.07
9.62
10.2
10.75
11.28
11.85
12.55
13.39
14.26
14.94
15.23
15.06
14.52
13.83
13.17
12.61
12.11
11.58
10.93
10.2
9.44
8.73
8.1
7.53
6.9
6.16
5.22
4.08
2.78
1.37
-0.03
-1.36
-2.56
-3.65
-4.71
-5.85
-7.27
-9.16
-11.75
-15.14
-19.25
-23.63
-27.55
-30.09
-30.5
-28.4
-23.99
-18.0
-11.42
-5.25
-0.25
3.17
4.96
5.41
4.97
4.13
3.36
2.92
2.86
3.09
3.44
3.8
4.15
4.53
4.96
5.43
5.91
6.44
7.1
8.09
9.46
11.16
12.9
14.28
14.91
14.62
13.51
11.91
10.24
8.79
7.62
6.6
5.55
4.29
2.85
1.33
-0.1
-1.31
-2.28
-3.05
-3.74
-4.47
-5.4
-6.61
-8.16
-9.99
-11.93
-13.76
-15.3
-16.52
-17.63
-18.92
-20.7
-23.1
-25.93
-28.74
-30.85
-31.58
-30.37
-26.97
-21.53
-14.57
-6.87
0.68
7.3
12.46
15.94
17.85
18.49
18.25
17.52
16.57
15.6
14.72
13.96
13.31
12.76
12.28
11.91
11.7
11.75
12.16
12.97
14.14
15.46
16.67
17.41
17.5
16.86
15.61
13.99
12.24
10.58
9.07
7.73
6.49
5.26
3.97
2.62
1.21
-0.19
-1.5
-2.69
-3.76
-4.79
-5.89
-7.21
-8.81
-10.64
-12.56
-14.36
-15.82
-16.86
-17.61
-18.36
-19.49
-21.33
-23.97
-27.19
-30.44
-32.94
-33.89
-32.68
-29.06
-23.24
-15.85
-7.83
-0.12
6.46
11.44
14.77
16.59
17.3
17.28
16.84
16.21
15.54
14.93
14.42
14.06
13.81
13.6
13.34
13.0
12.6
12.25
12.1
12.22
12.62
13.16
13.62
13.8
13.59
12.94
11.91
10.58
9.04
7.35
5.58
3.81
2.11
0.49
-1.02
-2.46
-3.9
-5.39
-6.97
-8.62
-10.26
-11.79
-13.12
-14.25
-15.28
-16.41
-17.94
-20.04
-22.75
-25.78
-28.54
-30.21
-30.03
-27.51
-22.71
-16.17
-8.84
-1.71
4.43
9.13
12.36
14.33
15.38
15.83
15.9
15.71
15.34
14.83
14.24
13.64
13.07
12.58
12.13
11.7
11.23
10.76
10.38
10.18
10.22
10.43
10.62
10.55
9.99
8.78
6.94
4.58
1.91
-0.85
-3.56
-6.16
-8.68
-11.24
-13.95
-16.92
-20.2
-23.75
-27.47
-31.2
-34.76
-38.03
-40.91
-43.44
-45.75
-48.09
-50.73
-53.79
-57.1
-60.1
-61.93
-61.7
-58.83
-53.24
-45.43
-36.26
-26.64
-17.37
-8.94
-1.66
4.31
8.93
12.28
14.62
16.31
17.74
19.18
20.68
22.17
23.48
24.52
25.25
25.75
26.16
26.65
27.36
28.39
29.79
31.51
33.38
35.17
36.59
37.37
37.38
36.62
35.25
33.54
31.72
29.97
28.28
26.59
24.8
22.88
20.88
18.84
16.81
14.69
12.4
9.91
7.32
4.89
2.85
1.32
0.16
-0.96
-2.48
-4.71
-7.72
-11.25
-14.74
-17.49
-18.82
-18.25
-15.64
-11.22
-5.58
0.49
6.18
10.86
14.23
16.28
17.26
17.46
17.17
16.58
15.85
15.06
14.33
13.73
13.27
12.92
12.66
12.49
12.5
12.77
13.32
14.07
14.78
15.19
15.08
14.4
13.19
11.59
9.8
7.95
6.17
4.51
3.01
1.62
0.29
-1.1
-2.59
-4.16
-5.7
-7.04
-8.03
-8.64
-8.95
-9.21
-9.74
-10.78
-12.37
-14.3
-16.11
-17.2
-17.01
-15.21
-11.81
-7.16
-1.86
3.44
8.2
12.05
14.86
16.65
17.53
17.63
17.1
16.1
14.81
13.4
12.03
10.86
9.98
9.48
9.41
9.71
10.29
10.99
11.65
12.21
12.65
13.0
13.26
13.39
13.25
12.74
11.82
10.54
9.08
7.63
6.34
5.28
4.41
3.62
2.74
1.68
0.41
-0.95
-2.24
-3.26
-3.91
-4.23
-4.48
-4.95
-5.92
-7.52
-9.61
-11.85
-13.75
-14.8
-14.58
-12.91
-9.85
-5.7
-1.0
3.66
7.69
10.67
12.41
13.01
12.75
12.02
11.18
10.49
10.0
9.64
9.23
8.57
7.57
6.23
4.7
3.23
2.04
1.35
1.21
1.58
2.28
3.06
3.67
3.9
3.67
2.97
1.93
0.7
-0.55
-1.67
-2.59
-3.26
-3.72
-4.03
-4.28
-4.57
-4.94
-5.39
-5.85
-6.22
-6.42
-6.44
-6.3
-6.08
-5.82
-5.55
-5.29
-5.04
-4.87
-4.86
-5.11
-5.68
-6.55
-7.64
-8.84
-10.08
-11.38
-12.8
-14.46
-16.42
-18.63
-20.86
-22.72
-23.72
-23.39
-21.48
-18.07
-13.58
-8.65
-3.96
-0.02
2.91
4.83
5.94
6.46
6.64
6.7
6.83
7.16
7.74
8.49
9.28
9.96
10.44
10.79
11.12
11.48
11.9
12.26
12.47
12.48
12.33
12.19
12.18
12.31
12.46
12.35
11.77
10.66
9.2
7.68
6.43
5.63
5.23
5.0
4.64
3.96
2.9
1.61
0.31
-0.75
-1.44
-1.75
-1.78
-1.7
-1.7
-1.87
-2.21
-2.65
-3.07
-3.46
-3.87
-4.37
-5.03
-5.79
-6.55
-7.2
-7.72
-8.14
-8.57
-9.1
-9.78
-10.66
-11.73
-12.99
-14.37
-15.67
-16.6
-16.84
-16.19
-14.6
-12.26
-9.53
-6.77
-4.3
-2.29
-0.77
0.31
1.0
1.39
1.54
1.56
1.6
1.78
2.22
2.89
3.66
4.33
4.75
4.92
4.96
5.06
5.37
5.84
6.33
6.61
6.56
6.18
5.62
5.01
4.47
4.01
3.6
3.18
2.72
2.26
1.87
1.63
1.52
1.48
1.34
0.99
0.4
-0.33
-1.0
-1.45
-1.63
-1.63
-1.62
-1.71
-1.89
-2.09
-2.23
-2.36
-2.57
-2.99
-3.66
-4.53
-5.47
-6.32
-7.04
-7.66
-8.23
-8.84
-9.53
-10.29
-11.12
-12.02
-12.98
-13.95
-14.76
-15.17
-14.92
-13.83
-11.92
-9.45
-6.77
-4.27
-2.21
-0.69
0.35
1.04
1.47
1.71
1.8
1.76
1.64
1.54
1.5
1.57
1.75
1.99
2.25
2.46
2.63
2.78
2.94
3.14
3.38
3.65
3.92
4.16
4.34
4.4
4.27
3.95
3.5
3.08
2.83
2.83
3.03
3.21
3.23
3.0
2.63
2.28
2.15
2.28
2.58
2.89
3.04
3.01
2.87
2.73
2.65
2.59
2.37
1.83
0.84
-0.56
-2.21
-3.86
-5.32
-6.49
-7.44
-8.34
-9.35
-10.55
-11.94
-13.47
-15.11
-16.84
-18.63
-20.36
-21.81
-22.7
-22.8
-22.07
-20.64
-18.78
-16.8
-14.95
-13.33
-11.98
-10.86
-9.89
-8.94
-7.88
-6.62
-5.13
-3.5
-1.87
-0.35
0.95
2.04
2.99
3.92
4.91
6.0
7.17
8.43
9.76
11.19
12.67
14.14
15.39
16.22
16.44
16.02
15.1
13.93
12.76
11.75
10.86
9.96
8.92
7.63
6.12
4.45
2.75
1.11
-0.37
-1.6
-2.54
-3.17
-3.59
-3.93
-4.34
-4.92
-5.69
-6.61
-7.62
-8.67
-9.72
-10.74
-11.75
-12.77
-13.86
-15.04
-16.29
-17.46
-18.3
-18.51
-17.87
-16.28
-13.78
-10.56
-6.93
-3.27
0.02
2.55
4.05
4.48
4.07
3.23
2.39
1.88
1.75
1.83
1.86
1.59
0.94
0.01
-1.01
-1.95
-2.68
-3.16
-3.36
-3.28
-2.87
-2.09
-1.02
0.21
1.38
2.3
2.89
3.17
3.26
3.31
3.42
3.58
3.7
3.67
3.41
2.96
2.44
2.06
1.99
2.33
3.04
3.95
4.86
5.57
5.98
6.11
6.06
5.92
5.74
5.48
5.06
4.36
3.35
2.01
0.42
-1.31
-3.08
-4.86
-6.72
-8.73
-11.05
-13.8
-16.98
-20.5
-24.07
-27.31
-29.78
-31.12
-31.14
-29.88
-27.59
-24.62
-21.34
-18.08
-15.08
-12.51
-10.54
-9.25
-8.6
-8.41
-8.38
-8.18
-7.57
-6.52
-5.22
-3.96
-3.01
-2.47
-2.3
-2.24
-2.05
-1.56
-0.73
0.27
1.3
2.25
3.16
4.22
5.63
7.52
9.84
12.34
14.66
16.44
17.48
17.76
17.5
17.03
16.68
16.61
16.78
16.96
16.86
16.29
15.21
13.78
12.25
10.86
9.78
9.06
8.6
8.24
7.8
7.11
6.1
4.81
3.38
1.99
0.76
-0.28
-1.23
-2.32
-3.73
-5.58
-7.78
-9.98
-11.67
-12.28
-11.36
-8.79
-4.79
0.12
5.27
10.05
14.05
17.06
19.09
20.28
20.86
21.04
21.05
21.0
20.93
20.74
20.28
19.37
17.94
16.0
13.69
11.18
8.66
6.29
4.17
2.36
0.86
-0.36
-1.4
-2.37
-3.34
-4.28
-5.06
-5.44
-5.22
-4.29
-2.74
-0.8
1.23
3.11
4.74
6.18
7.56
8.88
10.06
10.78
10.68
9.38
6.67
2.47
-3.16
-9.97
-17.55
-25.2
-31.99
-36.9
-39.11
-38.24
-34.55
-28.82
-22.09
-15.44
-9.73
-5.5
-3.07
-2.47
-3.47
-5.47
-7.55
-8.66
-7.97
-5.25
-0.98
3.79
7.86
10.32
10.85
9.77
7.85
6.0
4.92
5.02
6.42
8.97
12.36
16.21
20.03
23.4
26.0
27.7
28.59
28.9
28.8
28.28
27.06
24.62
20.44
14.34
6.69
-1.52
-8.91
-14.09
-16.18
-15.0
-11.13
-5.57
0.55
6.31
11.09
14.64
16.92
18.08
18.39
18.22
17.83
17.35
16.65
15.44
13.41
10.43
6.6
2.17
-2.61
-7.51
-12.32
-16.75
-20.35
-22.58
-22.97
-21.35
-17.99
-13.49
-8.69
-4.35
-1.0
1.13
2.11
2.17
1.57
0.62
-0.48
-1.57
-2.57
-3.4
-3.97
-4.21
-4.05
-3.53
-2.74
-1.81
-0.85
0.11
1.1
2.16
3.29
4.4
5.36
6.03
6.38
6.42
6.2
5.75
5.06
4.16
3.12
2.07
1.11
0.3
-0.43
-1.18
-2.06
-3.07
-4.1
-5.01
-5.71
-6.24
-6.67
-7.17
-7.82
-8.62
-9.5
-10.38
-11.19
-11.93
-12.6
-13.23
-13.87
-14.59
-15.46
-16.54
-17.84
-19.26
-20.58
-21.44
-21.45
-20.3
-17.86
-14.27
-9.86
-5.13
-0.59
3.37
6.52
8.85
10.46
11.51
12.21
12.66
13.01
13.31
13.53
13.66
13.71
13.73
13.79
13.93
14.14
14.33
14.36
14.18
13.86
13.5
13.24
13.06
12.81
12.28
11.35
10.09
8.71
7.48
6.52
5.74
4.88
3.73
2.18
0.4
-1.37
-2.88
-4.03
-4.86
-5.47
-5.94
-6.26
-6.37
-6.3
-6.16
-6.18
-6.52
-7.24
-8.21
-9.22
-10.02
-10.5
-10.69
-10.77
-10.98
-11.52
-12.46
-13.71
-15.02
-16.03
-16.33
-15.6
-13.64
-10.55
-6.66
-2.53
1.24
4.13
5.92
6.66
6.68
6.35
6.0
5.83
5.82
5.89
5.91
5.81
5.57
5.21
4.81
4.43
4.19
4.15
4.37
4.84
5.49
6.21
6.9
7.46
7.77
7.75
7.34
6.6
5.64
4.7
3.97
3.53
3.3
3.06
2.57
1.7
0.5
-0.88
-2.18
-3.25
-4.01
-4.51
-4.87
-5.23
-5.72
-6.38
-7.17
-7.99
-8.74
-9.33
-9.79
-10.19
-10.68
-11.34
-12.25
-13.4
-14.77
-16.26
-17.66
-18.64
-18.79
-17.79
-15.52
-12.18
-8.28
-4.43
-1.14
1.34
3.01
4.03
4.62
4.94
5.1
5.15
5.17
5.23
5.36
5.54
5.73
5.85
5.89
5.9
5.99
6.27
6.82
7.61
8.54
9.46
10.17
10.55
10.53
10.13
9.45
8.58
7.62
6.59
5.56
4.54
3.6
2.76
2.0
1.27
0.51
-0.34
-1.27
-2.2
-3.09
-3.89
-4.65
-5.44
-6.32
-7.29
-8.29
-9.24
-10.08
-10.9
-11.76
-12.8
-14.05
-15.47
-16.9
-18.07
-18.64
-18.33
-16.97
-14.6
-11.49
-8.05
-4.71
-1.82
0.45
2.03
2.99
3.44
3.55
3.5
3.49
3.67
4.1
4.68
5.29
5.8
6.19
6.51
6.87
7.35
7.96
8.61
9.18
9.61
9.89
10.07
10.17
10.21
10.11
9.77
9.04
7.92
6.43
4.75
3.11
1.71
0.64
-0.12
-0.67
-1.17
-1.74
-2.47
-3.43
-4.59
-5.91
-7.31
-8.68
-9.96
-11.13
-12.28
-13.53
-14.97
-16.52
-17.91
-18.75
-18.65
-17.39
-14.97
-11.65
-7.86
-4.09
-0.77
1.84
3.69
4.89
5.61
6.04
6.27
6.36
6.34
6.26
6.15
6.08
6.08
6.18
6.37
6.68
7.13
7.75
8.53
9.39
10.27
11.07
11.7
12.03
11.95
11.33
10.19
8.65
7.0
5.55
4.53
3.95
3.68
3.41
2.89
1.98
0.73
-0.62
-1.83
-2.71
-3.24
-3.56
-3.92
-4.58
-5.66
-7.18
-8.97
-10.78
-12.41
-13.75
-14.84
-15.86
-16.99
-18.35
-19.88
-21.3
-22.22
-22.2
-20.96
-18.4
-14.73
-10.34
-5.76
-1.56
1.77
3.95
4.95
5.01
4.52
3.93
3.58
3.56
3.81
4.18
4.53
4.82
5.13
5.52
6.01
6.59
7.2
7.87
8.7
9.79
11.19
12.75
14.17
15.09
15.28
14.75
13.75
12.6
11.6
10.85
10.29
9.78
9.22
8.59
7.89
7.14
6.29
5.3
4.13
2.81
1.38
-0.11
-1.67
-3.3
-4.94
-6.51
-7.83
-8.79
-9.37
-9.73
-10.19
-11.11
-12.78
-15.27
-18.37
-21.57
-24.23
-25.67
-25.44
-23.39
-19.71
-14.93
-9.7
-4.68
-0.39
2.88
5.09
6.42
7.11
7.43
7.56
7.63
7.68
7.81
8.07
8.49
9.02
9.54
9.91
10.08
10.16
10.31
10.76
11.54
12.54
13.51
14.13
14.23
13.77
12.89
11.76
10.55
9.35
8.19
7.02
5.78
4.44
3.02
1.59
0.3
-0.72
-1.45
-1.98
-2.47
-3.17
-4.22
-5.62
-7.27
-8.96
-10.56
-12.0
-13.32
-14.61
-15.97
-17.49
-19.22
-21.17
-23.1
-24.59
-25.05
-23.93
-20.95
-16.31
-10.63
-4.8
0.39
4.4
7.1
8.67
9.44
9.77
9.97
10.28
10.83
11.6
12.49
13.28
13.8
13.98
13.87
13.63
13.43
13.35
13.44
13.64
13.93
14.27
14.65
14.98
15.14
15.02
14.52
13.66
12.48
11.14
9.74
8.38
7.12
5.99
4.96
3.99
2.98
1.89
0.71
-0.45
-1.43
-2.09
-2.44
-2.63
-2.89
-3.44
-4.36
-5.6
-7.0
-8.42
-9.84
-11.25
-12.71
-14.16
-15.55
-16.85
-18.14
-19.69
-21.73
-24.33
-27.19
-29.66
-30.91
-30.27
-27.46
-22.75
-16.84
-10.62
-4.88
-0.19
3.25
5.46
6.67
7.2
7.38
7.48
7.68
8.05
8.53
8.96
9.2
9.12
8.7
8.06
7.4
6.98
7.03
7.57
8.48
9.46
10.17
10.4
10.11
9.49
8.86
8.58
8.88
9.81
11.19
12.72
14.05
14.92
15.24
15.15
14.98
15.08
15.78
17.24
19.39
21.99
24.65
26.92
28.44
29.0
28.69
27.77
26.66
25.73
25.15
24.91
24.82
24.64
24.15
23.19
21.65
19.39
16.26
12.16
7.12
1.31
-4.89
-11.0
-16.48
-20.83
-23.61
-24.62
-23.83
-21.53
-18.26
-14.71
-11.54
-9.24
-8.03
-7.88
-8.56
-9.75
-11.15
-12.52
-13.67
-14.5
-14.94
-14.93
-14.44
-13.44
-11.9
-9.85
-7.43
-4.81
-2.24
0.1
2.09
3.69
4.93
5.76
6.17
6.14
5.8
5.34
4.99
4.91
5.08
5.33
5.38
5.01
4.17
2.99
1.78
0.87
0.5
0.67
1.15
1.52
1.36
0.35
-1.5
-3.92
-6.48
-8.75
-10.51
-11.77
-12.68
-13.47
-14.28
-15.16
-16.06
-16.89
-17.62
-18.22
-18.71
-19.15
-19.61
-20.23
-21.17
-22.48
-24.04
-25.47
-26.21
-25.7
-23.57
-19.79
-14.7
-8.89
-3.04
2.26
6.57
9.68
11.57
12.4
12.46
12.12
