-10.15
-10.31
-10.12
-9.81
-9.58
-9.6
-10.01
-10.87
-12.14
-13.64
-15.01
-15.8
-15.62
-14.29
-11.92
-8.83
-5.47
-2.24
0.53
2.66
4.02
4.58
4.44
3.8
2.97
2.24
1.8
1.66
1.68
1.66
1.48
1.17
0.86
0.73
0.9
1.35
2.0
2.7
3.36
3.92
4.42
4.9
5.39
5.9
6.41
6.84
7.1
7.15
6.97
6.64
6.26
5.87
5.48
5.0
4.3
3.3
2.03
0.56
-0.96
-2.41
-3.75
-5.0
-6.22
-7.45
-8.73
-10.1
-11.59
-13.18
-14.81
-16.25
-17.17
-17.18
-16.01
-13.63
-10.27
-6.39
-2.56
0.76
3.28
4.95
5.87
6.24
6.31
6.23
6.13
6.02
5.88
5.66
5.32
4.85
4.29
3.67
3.08
2.62
2.39
2.5
2.98
3.73
4.58
5.32
5.77
5.88
5.71
5.41
5.14
4.92
4.69
4.29
3.57
2.49
1.15
-0.29
-1.63
-2.69
-3.44
-3.97
-4.47
-5.13
-6.12
-7.5
-9.22
-11.18
-13.25
-15.21
-16.81
-17.65
-17.37
-15.66
-12.52
-8.29
-3.6
0.84
4.46
7.01
8.56
9.36
9.75
9.93
10.0
9.98
9.8
9.46
8.93
8.26
7.52
6.81
6.24
5.89
5.79
5.95
6.32
6.84
7.42
7.99
8.46
8.73
8.77
8.54
8.07
7.43
6.69
5.94
5.21
4.5
3.73
2.84
1.82
0.73
-0.33
-1.29
-2.1
-2.81
-3.47
-4.14
-4.79
-5.41
-5.97
-6.55
-7.27
-8.21
-9.35
-10.49
-11.25
-11.25
-10.17
-7.98
-4.9
-1.35
2.15
5.19
7.54
9.17
10.25
10.94
11.36
11.58
11.52
11.12
10.39
9.39
8.26
7.18
6.24
5.48
4.88
4.38
3.99
3.75
3.73
3.99
4.49
5.08
5.53
5.66
5.39
4.76
3.91
3.0
2.17
1.43
0.77
0.16
-0.42
-0.94
-1.37
-1.7
-1.96
-2.24
-2.6
-3.08
-3.66
-4.29
-4.9
-5.47
-6.02
-6.69
-7.65
-9.02
-10.72
-12.43
-13.64
-13.79
-12.55
-9.92
-6.38
-2.6
0.81
3.49
5.45
6.89
8.03
8.94
9.56
9.81
9.69
9.35
8.94
8.56
8.18
7.71
7.09
6.35
5.65
5.15
5.0
5.2
5.68
6.31
6.93
7.41
7.64
7.61
7.37
7.01
6.63
6.25
5.78
5.14
4.3
3.35
2.47
1.85
1.51
1.29
0.94
0.25
-0.8
-2.06
-3.23
-4.11
-4.64
-4.91
-5.14
-5.48
-6.02
-6.78
-7.73
-8.88
-10.17
-11.47
-12.47
-12.78
-12.05
-10.14
-7.22
-3.75
-0.31
2.62
4.77
6.12
6.85
7.15
7.2
7.1
6.94
6.78
6.66
6.56
6.42
6.17
5.82
5.43
5.1
4.94
4.99
5.19
5.48
5.78
6.02
6.15
6.15
6.02
5.77
5.45
5.1
4.74
4.4
4.02
3.57
2.99
2.25
1.35
0.38
-0.55
-1.3
-1.81
-2.09
-2.26
-2.45
-2.8
-3.33
-4.0
-4.72
-5.41
-6.03
-6.6
-7.17
-7.83
-8.63
-9.54
-10.41
-10.95
-10.85
-9.86
-7.91
-5.21
-2.15
0.78
3.19
4.85
5.77
6.12
6.1
5.92
5.67
5.39
5.09
4.8
4.57
4.44
4.43
4.52
4.63
4.69
4.65
4.52
4.37
4.26
4.22
4.26
4.3
4.26
4.06
3.71
3.28
2.86
2.54
2.31
2.09
1.82
1.45
1.06
0.76
0.61
0.56
0.44
0.08
-0.64
-1.65
-2.8
-3.86
-4.68
-5.22
-5.53
-5.74
-6.01
-6.49
-7.3
-8.45
-9.8
-11.07
-11.89
-11.93
-11.03
-9.27
-6.95
-4.42
-1.99
0.15
1.94
3.36
4.41
5.09
5.41
5.44
5.34
5.27
5.34
5.53
5.69
5.65
5.27
4.62
3.88
3.33
3.16
3.38
3.84
4.28
4.56
4.62
4.53
4.39
4.2
3.87
3.33
2.56
1.67
0.82
0.16
-0.27
-0.53
-0.76
-1.04
-1.39
-1.8
-2.28
-2.81
-3.43
-4.11
-4.77
-5.29
-5.59
-5.64
-5.55
-5.49
-5.61
-6.06
-6.85
-7.87
-8.89
-9.65
-9.88
-9.4
-8.18
-6.3
-3.99
-1.52
0.82
2.82
4.32
5.26
5.69
5.69
5.41
5.04
4.68
4.41
4.2
4.0
3.75
3.46
3.22
3.09
3.14
3.33
3.56
3.71
3.74
3.63
3.48
3.38
3.4
3.54
3.72
3.8
3.66
3.23
2.53
1.68
0.8
-0.04
-0.8
-1.5
-2.15
-2.72
-3.16
-3.45
-3.64
-3.84
-4.14
-4.56
-5.02
-5.43
-5.72
-5.96
-6.26
-6.76
-7.52
-8.46
-9.41
-10.13
-10.4
-10.07
-9.09
-7.51
-5.49
-3.28
-1.14
0.68
2.04
2.92
3.39
3.57
3.6
3.55
3.44
3.28
3.09
2.85
2.58
2.24
1.76
1.04
0.02
-1.26
-2.65
-3.93
-4.85
-5.29
-5.23
-4.81
-4.22
-3.62
-3.07
-2.57
-2.07
-1.57
-1.1
-0.69
-0.36
-0.03
0.32
0.66
0.9
0.9
0.62
0.14
-0.37
-0.73
-0.84
-0.77
-0.68
-0.75
-1.04
-1.48
-1.94
-2.3
-2.56
-2.81
-3.24
-3.95
-4.95
-6.09
-7.13
-7.76
-7.71
-6.86
-5.26
-3.11
-0.72
1.63
3.7
5.38
6.65
7.5
7.94
7.98
7.65
7.04
6.29
5.56
5.02
4.75
4.76
4.95
5.17
5.24
5.02
4.55
3.96
3.49
3.35
3.59
4.08
4.6
4.9
4.9
4.65
4.23
3.74
3.17
2.47
1.63
0.68
-0.28
-1.14
-1.84
-2.41
-2.91
-3.4
-3.95
-4.53
-5.09
-5.61
-6.04
-6.42
-6.8
-7.2
-7.67
-8.22
-8.86
-9.59
-10.41
-11.31
-12.21
-12.98
-13.45
-13.41
-12.74
-11.37
-9.35
-6.86
-4.14
-1.46
0.9
2.75
4.0
4.71
5.01
5.09
5.09
5.09
5.08
4.97
4.7
4.26
3.74
3.3
3.09
3.22
3.66
4.29
4.92
5.39
5.62
5.62
5.43
5.15
4.78
4.3
3.68
2.89
2.0
1.1
0.31
-0.31
-0.75
-1.1
-1.47
-1.92
-2.47
-3.04
-3.55
-3.94
-4.29
-4.69
-5.3
-6.22
-7.44
-8.83
-10.18
-11.25
-11.81
-11.73
-11.0
-9.72
-8.05
-6.18
-4.28
-2.51
-0.97
0.27
1.23
1.96
2.56
3.14
3.78
4.46
5.14
5.76
6.29
6.81
7.42
8.2
9.13
10.11
10.98
11.61
12.02
12.27
12.48
12.73
13.05
13.37
13.6
13.63
13.41
12.88
12.03
10.89
9.5
7.93
6.22
4.44
2.6
0.68
-1.29
-3.24
-5.05
-6.57
-7.74
-8.61
-9.35
-10.17
-11.18
-12.38
-13.6
-14.69
-15.55
-16.21
-16.71
-17.03
-16.99
-16.25
-14.51
-11.65
-7.86
-3.59
0.64
4.38
7.44
9.84
11.76
13.36
14.74
15.91
16.82
17.41
17.62
17.45
16.88
15.93
14.62
13.01
11.21
9.39
7.7
6.27
5.06
3.92
2.64
1.03
-0.89
-2.94
-4.82
-6.28
-7.27
-7.88
-8.34
-8.81
-9.32
-9.78
-10.01
-9.88
-9.39
-8.61
-7.68
-6.74
-5.86
-5.07
-4.38
-3.8
-3.39
-3.12
-2.93
-2.67
-2.17
-1.37
-0.38
0.49
0.91
0.74
0.16
-0.36
-0.23
0.93
3.14
5.99
8.89
11.3
12.84
13.42
13.06
11.84
9.79
6.99
3.62
0.0
-3.44
-6.32
-8.4
-9.66
-10.31
-10.65
-10.93
-11.28
-11.67
-11.93
-11.85
-11.27
-10.13
-8.54
-6.67
-4.77
-3.05
-1.65
-0.55
0.31
1.06
1.75
2.34
2.76
2.94
2.85
2.53
2.06
1.49
0.88
0.22
-0.48
-1.24
-2.08
-3.0
-3.98
-4.97
-5.91
-6.72
-7.37
-7.94
-8.5
-9.18
-9.95
-10.68
-11.14
-11.05
-10.2
-8.53
-6.12
-3.16
0.1
3.42
6.62
9.54
12.07
14.18
15.88
17.24
18.35
19.32
20.15
20.82
21.28
21.47
21.39
21.05
20.47
19.63
18.49
17.05
15.36
13.54
11.75
10.15
8.85
7.86
7.13
6.55
6.02
5.44
4.81
4.17
3.62
3.27
3.23
3.51
4.03
4.58
4.85
4.54
3.39
1.29
-1.7
-5.33
-9.19
-12.89
-16.02
-18.35
-19.79
-20.37
-20.23
-19.55
-18.47
-17.12
-15.53
-13.75
-11.8
-9.7
-7.48
-5.12
-2.6
0.13
3.1
6.31
9.68
13.11
16.42
19.46
22.09
24.28
26.06
27.57
29.02
30.63
32.61
35.06
37.89
40.79
43.24
44.59
44.2
41.58
36.53
29.19
20.04
9.78
-0.84
-11.15
-20.65
-29.05
-36.21
-42.04
-46.42
-49.27
-50.49
-50.1
-48.32
-45.5
-42.12
-38.63
-35.37
-32.52
-30.13
-28.11
-26.36
-24.75
-23.2
-21.66
-20.17
-18.75
-17.44
-16.28
-15.25
-14.32
-13.42
-12.48
-11.42
-10.14
-8.55
-6.55
-4.09
-1.27
1.7
4.5
6.78
8.31
9.06
9.15
8.85
8.43
8.06
7.78
7.52
7.18
6.69
6.1
5.52
5.09
4.82
4.65
4.42
4.0
3.36
2.61
1.9
1.33
0.89
0.48
-0.02
-0.68
-1.42
-2.13
-2.71
-3.13
-3.46
-3.76
-4.06
-4.34
-4.5
-4.47
-4.21
-3.79
-3.33
-2.98
-2.84
-2.94
-3.24
-3.69
-4.19
-4.69
-5.15
-5.56
-5.96
-6.39
-6.97
-7.78
-8.82
-9.92
-10.79
-11.13
-10.74
-9.68
-8.19
-6.59
-5.18
-4.11
-3.41
-3.04
-2.91
-2.9
-2.87
-2.67
-2.17
-1.33
-0.21
1.05
2.26
3.24
3.82
3.93
3.6
3.0
2.39
2.03
2.09
2.47
2.9
3.09
2.82
2.15
1.31
0.65
0.35
0.45
0.81
1.25
1.68
2.1
2.58
3.16
3.77
4.22
4.39
4.19
3.73
3.17
2.68
2.33
2.07
1.8
1.4
0.85
0.24
-0.32
-0.74
-1.07
-1.43
-2.01
-2.88
-3.98
-5.05
-5.73
-5.7
-4.77
-3.0
-0.63
2.0
4.54
6.71
8.29
9.12
9.18
8.53
7.35
5.88
4.31
2.79
1.37
0.07
-1.06
-1.91
-2.36
-2.37
-2.0
-1.41
-0.79
-0.31
-0.09
-0.2
-0.64
-1.35
-2.24
-3.15
-4.0
-4.72
-5.33
-5.87
-6.35
-6.76
-7.04
-7.2
-7.3
-7.4
-7.56
-7.77
-7.91
-7.79
-7.26
-6.23
-4.76
-3.01
-1.26
0.21
1.12
1.29
0.67
-0.64
-2.36
-4.11
-5.46
-6.08
-5.8
-4.64
-2.82
-0.71
1.32
3.0
4.23
5.06
5.66
6.21
6.81
7.45
8.02
8.45
8.71
8.9
9.16
9.63
10.33
11.16
11.96
12.57
12.91
13.01
12.91
12.66
12.22
11.51
10.45
9.04
7.38
5.61
3.89
2.34
0.96
-0.29
-1.47
-2.64
-3.83
-5.04
-6.29
-7.57
-8.84
-10.06
-11.17
-12.17
-13.1
-14.01
-14.85
-15.44
-15.43
-14.51
-12.47
-9.42
-5.72
-1.88
1.6
4.42
6.46
7.83
8.64
9.07
9.25
9.27
9.23
9.14
8.95
8.59
8.0
7.23
6.37
5.58
4.98
4.61
4.47
4.49
4.62
4.81
5.01
5.13
5.09
4.83
4.36
3.76
3.2
2.76
2.47
2.22
1.83
1.11
-0.01
-1.44
-3.0
-4.43
-5.57
-6.4
-7.03
-7.68
-8.52
-9.64
-11.05
-12.62
-14.17
-15.46
-16.17
-16.04
-14.89
-12.74
-9.84
-6.6
-3.45
-0.73
1.41
2.93
3.91
4.43
4.6
4.58
4.52
4.61
4.91
5.37
5.84
6.15
6.2
6.0
5.71
5.47
5.42
5.58
5.92
6.33
6.7
6.95
7.04
6.95
6.72
6.4
6.03
5.6
5.07
4.41
3.61
2.74
1.93
1.26
0.78
0.39
-0.06
-0.7
-1.6
-2.68
-3.79
-4.8
-5.61
-6.27
-6.86
-7.5
-8.25
-9.13
-10.12
-11.16
-12.17
-12.96
-13.29
-12.92
-11.63
-9.4
-6.39
-2.95
0.49
3.51
5.84
7.38
8.24
8.63
8.76
8.82
8.9
9.08
9.36
9.76
10.23
10.65
10.86
10.66
9.97
8.88
7.7
6.79
6.43
6.7
7.4
8.22
8.79
8.89
8.47
7.63
6.55
5.41
4.33
3.38
2.57
1.89
1.27
0.67
0.06
-0.54
-1.09
-1.57
-1.98
-2.35
-2.76
-3.25
-3.83
-4.46
-5.1
-5.71
-6.28
-6.81
-7.29
-7.69
-8.04
-8.38
-8.83
-9.45
-10.22
-10.99
-11.49
-11.45
-10.63
-8.97
-6.56
-3.58
-0.31
2.98
5.98
8.41
10.02
10.69
10.48
9.64
8.55
7.57
6.97
6.81
6.99
7.28
7.5
7.49
7.25
6.79
6.17
5.45
4.72
4.08
3.65
3.52
3.71
4.14
4.62
4.95
4.93
4.45
3.5
2.19
0.69
-0.8
-2.12
-3.17
-3.94
-4.47
-4.83
-5.06
-5.19
-5.25
-5.23
-5.15
-4.97
-4.67
-4.16
-3.47
-2.64
-1.81
-1.14
-0.71
-0.52
-0.5
-0.55
-0.61
-0.7
-0.91
-1.33
-2.03
-3.01
-4.21
-5.47
-6.58
-7.23
-7.18
-6.31
-4.7
-2.65
-0.55
1.21
2.39
2.95
3.04
2.8
2.37
1.79
1.06
0.2
-0.71
-1.51
-2.03
-2.21
-2.09
-1.8
-1.5
-1.29
-1.13
-0.92
-0.51
0.2
1.24
2.5
3.83
5.0
5.86
6.35
6.5
6.46
6.38
6.37
6.45
6.53
6.53
6.32
5.88
5.22
4.48
3.8
3.3
3.02
2.87
2.67
2.23
1.46
0.42
-0.71
-1.69
-2.4
-2.85
-3.16
-3.48
-3.91
-4.45
-5.03
-5.63
-6.25
-6.95
-7.76
-8.68
-9.59
-10.35
-10.79
-10.81
-10.34
-9.38
-7.96
-6.17
-4.14
-2.1
-0.29
1.11
2.06
2.65
3.08
3.49
3.95
4.37
4.65
4.74
4.68
4.57
4.49
4.46
4.37
4.15
3.79
3.38
3.03
2.87
2.94
3.17
3.42
3.56
3.45
3.08
2.5
1.85
1.3
0.96
0.85
0.94
1.13
1.32
1.46
1.47
1.31
0.93
0.36
-0.31
-0.95
-1.4
-1.64
-1.71
-1.74
-1.84
-2.05
-2.33
-2.62
-2.87
-3.11
-3.4
-3.8
-4.3
-4.85
-5.33
-5.67
-5.9
-6.14
-6.56
-7.28
-8.31
-9.44
-10.31
-10.54
-9.88
-8.32
-6.13
-3.69
-1.39
0.51
1.88
2.78
3.31
3.6
3.77
3.88
3.99
4.08
4.12
4.04
3.81
3.43
3.0
2.64
2.45
2.51
2.78
3.16
3.53
3.75
3.77
3.63
3.42
3.28
3.3
3.46
3.66
3.72
3.52
3.04
2.4
1.77
1.3
1.02
0.88
0.73
0.47
0.08
-0.38
-0.78
-1.03
-1.08
-0.98
-0.86
-0.85
-1.02
-1.41
-1.96
-2.61
-3.28
-3.91
-4.48
-5.0
-5.46
-5.84
-6.11
-6.25
-6.29
-6.32
-6.52
-7.11
-8.14
-9.54
-10.95
-11.95
-12.13
-11.3
-9.62
-7.42
-5.11
-2.98
-1.12
0.52
2.01
3.34
4.39
5.05
5.28
5.14
4.79
4.38
4.01
3.68
3.37
3.03
2.71
2.49
2.49
2.78
3.36
4.11
4.89
5.54
5.96
6.1
5.98
5.61
5.09
4.48
3.89
3.4
3.04
2.83
2.73
2.69
2.68
2.63
2.5
2.22
1.77
1.16
0.46
-0.18
-0.66
-0.9
-0.96
-0.9
-0.86
-0.91
-1.1
-1.46
-2.0
-2.66
-3.39
-4.08
-4.62
-4.98
-5.19
-5.38
-5.68
-6.23
-7.06
-8.13
-9.33
-10.49
-11.44
-11.98
-11.99
-11.36
-10.1
-8.3
-6.15
-3.84
-1.57
0.48
2.22
3.61
4.68
5.46
5.96
6.17
6.08
5.75
5.25
4.73
4.3
4.02
3.92
3.99
4.28
4.77
5.41
6.06
6.56
6.77
6.69
6.47
6.28
6.22
6.23
6.16
5.88
5.36
4.71
4.07
3.56
3.15
2.75
2.32
1.86
1.43
1.11
0.9
0.72
0.51
0.24
-0.06
-0.32
-0.53
-0.73
-1.07
-1.63
-2.44
-3.37
-4.26
-4.94
-5.35
-5.5
-5.5
-5.47
-5.54
-5.84
-6.45
-7.41
-8.65
-10.03
-11.34
-12.38
-12.94
-12.8
-11.83
-9.95
-7.23
-3.97
-0.61
2.34
4.49
5.68
6.02
5.81
5.36
4.93
4.65
4.55
4.59
4.7
4.79
4.82
4.75
4.61
4.48
4.41
4.43
4.49
4.56
4.6
4.64
4.69
4.77
4.86
4.9
4.86
4.73
4.55
4.38
4.25
4.14
3.98
3.67
3.17
2.49
1.72
1.02
0.52
0.31
0.36
0.56
0.73
0.72
0.42
-0.16
-0.94
-1.77
-2.55
-3.2
-3.72
-4.12
-4.39
-4.56
-4.66
-4.77
-5.01
-5.53
-6.42
-7.71
-9.29
-10.93
-12.35
-13.27
-13.51
-12.99
-11.71
-9.8
-7.46
-4.95
-2.5
-0.3
1.57
3.11
4.33
5.26
5.91
6.3
6.51
6.65
6.81
7.04
7.27
7.35
7.19
6.77
6.18
5.62
5.22
5.08
5.23
5.57
6.04
6.5
6.86
7.03
6.98
6.77
6.49
6.25
6.08
5.97
5.84
5.6
5.21
4.62
3.86
2.99
2.07
1.21
0.51
-0.01
-0.36
-0.62
-0.87
-1.16
-1.51
-1.92
-2.39
-2.87
-3.3
-3.58
-3.67
-3.61
-3.52
-3.62
-4.06
-4.84
-5.82
-6.79
-7.57
-8.17
-8.71
-9.31
-10.02
-10.65
-10.87
-10.35
-8.94
-6.73
-4.09
-1.43
0.88
2.64
3.85
4.61
5.02
5.18
5.11
4.88
4.54
4.23
4.05
4.1
4.36
4.77
5.21
5.52
5.62
5.5
5.28
5.09
5.06
5.24
5.52
5.73
5.76
5.58
5.24
4.88
4.56
4.26
3.92
3.48
2.93
2.35
1.79
1.33
0.94
0.58
0.18
-0.28
-0.8
-1.37
-1.9
-2.35
-2.67
-2.84
-2.87
-2.83
-2.74
-2.68
-2.67
-2.77
-3.0
-3.38
-3.83
-4.24
-4.51
-4.59
-4.53
-4.51
-4.73
-5.31
-6.26
-7.38
-8.39
-8.98
-8.9
-8.04
-6.46
-4.38
-2.16
-0.16
1.31
2.11
2.32
2.14
1.8
1.49
1.23
0.99
0.72
0.44
0.27
0.32
0.65
1.22
1.87
2.41
2.75
2.94
3.14
3.51
4.13
4.95
5.79
6.48
6.93
7.12
7.07
