4.39
4.08
3.79
3.63
3.64
3.75
3.82
3.74
3.39
2.72
1.75
0.58
-0.56
-1.39
-1.68
-1.38
-0.6
0.43
1.46
2.39
3.25
4.1
4.99
5.86
6.55
6.96
7.07
6.98
6.85
6.78
6.77
6.79
6.73
6.53
6.18
5.7
5.1
4.41
3.65
2.86
2.08
1.36
0.71
0.1
-0.52
-1.21
-1.95
-2.74
-3.58
-4.54
-5.67
-7.01
-8.5
-9.96
-11.16
-11.91
-12.08
-11.65
-10.64
-9.11
-7.11
-4.71
-2.01
0.81
3.57
6.07
8.2
9.91
11.21
12.18
12.89
13.49
14.1
14.81
15.62
16.37
16.85
16.86
16.36
15.45
14.33
13.14
12.01
10.93
9.88
8.85
7.86
6.92
6.01
5.07
4.0
2.79
1.5
0.22
-0.93
-1.91
-2.69
-3.28
-3.73
-4.02
-4.23
-4.44
-4.75
-5.26
-5.98
-6.84
-7.67
-8.28
-8.53
-8.38
-7.95
-7.48
-7.24
-7.5
-8.33
-9.61
-11.05
-12.21
-12.71
-12.33
-11.06
-9.13
-6.87
-4.61
-2.62
-1.03
0.16
0.99
1.55
1.87
1.95
1.82
1.52
1.11
0.69
0.33
0.06
-0.14
-0.24
-0.23
-0.04
0.36
0.94
1.65
2.38
3.01
3.51
3.83
3.95
3.84
3.51
3.03
2.5
2.05
1.72
1.46
1.18
0.81
0.39
-0.01
-0.29
-0.44
-0.51
-0.59
-0.74
-0.94
-1.15
-1.37
-1.64
-2.03
-2.59
-3.29
-4.01
-4.62
-5.01
-5.18
-5.19
-5.23
-5.44
-5.92
-6.65
-7.45
-8.06
-8.17
-7.59
-6.36
-4.68
-2.87
-1.26
-0.01
0.84
1.42
1.84
2.21
2.58
2.9
3.17
3.39
3.57
3.76
3.94
4.09
4.11
3.95
3.64
3.29
3.07
3.1
3.38
3.83
4.29
4.62
4.79
4.84
4.85
4.83
4.72
4.46
4.02
3.49
3.06
2.89
2.97
3.14
3.15
2.77
1.98
0.92
-0.13
-0.93
-1.39
-1.6
-1.69
-1.8
-1.97
-2.17
-2.38
-2.63
-2.95
-3.38
-3.88
-4.34
-4.67
-4.84
-4.93
-5.11
-5.52
-6.17
-6.95
-7.6
-7.86
-7.52
-6.56
-5.1
-3.37
-1.63
-0.07
1.15
2.0
2.49
2.67
2.65
2.51
2.38
2.31
2.32
2.37
2.38
2.29
2.1
1.88
1.7
1.66
1.8
2.1
2.47
2.84
3.12
3.27
3.29
3.16
2.93
2.62
2.25
1.85
1.43
1.04
0.75
0.65
0.78
1.08
1.41
1.59
1.46
1.04
0.47
-0.04
-0.34
-0.41
-0.41
-0.49
-0.78
-1.25
-1.78
-2.27
-2.66
-2.96
-3.24
-3.55
-3.92
-4.35
-4.83
-5.36
-5.93
-6.52
-7.1
-7.58
-7.87
-7.87
-7.51
-6.76
-5.67
-4.39
-3.09
-1.92
-0.94
-0.12
0.63
1.34
2.0
2.54
2.85
2.9
2.75
2.53
2.37
2.37
2.52
2.76
3.03
3.28
3.48
3.65
3.75
3.79
3.73
3.6
3.46
3.37
3.39
3.51
3.64
3.69
3.58
3.27
2.75
2.09
1.37
0.71
0.24
0.06
0.18
0.5
0.83
0.95
0.78
0.35
-0.16
-0.56
-0.75
-0.76
-0.74
-0.8
-1.0
-1.3
-1.6
-1.82
-1.95
-2.05
-2.2
-2.45
-2.8
-3.19
-3.59
-4.02
-4.59
-5.37
-6.37
-7.47
-8.38
-8.81
-8.52
-7.5
-5.93
-4.14
-2.44
-1.03
0.05
0.84
1.41
1.79
1.97
1.92
1.68
1.34
1.05
0.94
1.04
1.29
1.59
1.89
2.19
2.56
3.06
3.63
4.15
4.45
4.41
4.07
3.55
3.03
2.62
2.33
2.07
1.75
1.3
0.73
0.11
-0.49
-1.03
-1.53
-2.02
-2.55
-3.17
-3.88
-4.68
-5.51
-6.31
-7.04
-7.65
-8.13
-8.51
-8.81
-9.05
-9.26
-9.44
-9.65
-9.92
-10.25
-10.56
-10.74
-10.59
-9.96
-8.82
-7.27
-5.51
-3.76
-2.15
-0.73
0.53
1.65
2.62
3.39
3.94
4.32
4.59
4.83
5.06
5.23
5.26
5.13
4.85
4.57
4.41
4.5
4.85
5.41
6.06
6.64
7.0
7.07
6.82
6.31
5.65
5.04
4.61
4.43
4.45
4.55
4.54
4.29
3.78
3.1
2.38
1.8
1.41
1.23
1.17
1.12
0.98
0.64
0.03
-0.87
-2.01
-3.28
-4.53
-5.63
-6.51
-7.19
-7.74
-8.26
-8.79
-9.34
-9.85
-10.21
-10.3
-10.02
-9.25
-7.94
-6.1
-3.87
-1.54
0.58
2.16
3.03
3.22
2.93
2.52
2.29
2.43
2.94
3.62
4.21
4.47
4.31
3.77
2.99
2.15
1.45
1.08
1.21
1.88
3.02
4.38
5.62
6.46
6.76
6.59
6.12
5.53
4.93
4.27
3.55
2.8
2.15
1.75
1.71
1.95
2.26
2.36
2.08
1.38
0.45
-0.42
-0.97
-1.09
-0.84
-0.43
-0.05
0.17
0.23
0.19
0.15
0.08
-0.06
-0.35
-0.77
-1.24
-1.71
-2.21
-2.81
-3.61
-4.51
-5.14
-4.97
-3.53
-0.7
3.22
7.51
11.41
14.31
16.04
16.83
17.21
17.8
19.08
21.3
24.35
27.87
31.43
34.78
38.03
41.77
46.8
53.84
63.16
74.41
86.79
99.39
111.65
123.63
136.05
150.03
166.52
185.91
207.58
229.79
249.85
264.38
269.95
263.95
245.63
216.85
182.17
147.88
120.2
103.29
97.96
101.68
109.89
117.95
122.67
122.8
118.55
110.59
99.34
84.94
67.68
48.51
29.02
11.05
-4.11
-16.17
-25.83
-34.27
-42.56
-51.16
-59.91
-68.34
-75.94
-82.39
-87.44
-90.79
-92.12
-91.26
-88.43
-84.43
-80.45
-77.74
-77.22
-79.24
-83.68
-90.11
-97.91
-106.38
-114.71
-122.16
-128.23
-132.88
-136.48
-139.58
-142.4
-144.58
-145.11
-142.82
-137.02
-127.92
-116.64
-104.79
-93.78
-84.31
-76.18
-68.65
-60.91
-52.49
-43.52
-34.54
-26.23
-19.1
-13.29
-8.64
-4.83
-1.67
0.77
2.07
1.7
-0.7
-5.06
-10.62
-16.19
-20.46
-22.52
-22.16
-19.88
-16.75
-13.91
-12.28
-12.35
-14.18
-17.59
-22.35
-28.39
-35.77
-44.58
-54.72
-65.67
-76.36
-85.37
-91.23
-92.95
-90.35
-84.12
-75.55
-66.01
-56.47
-47.28
-38.19
-28.67
-18.23
-6.69
5.74
18.46
30.57
41.03
48.84
53.38
54.65
53.34
50.69
48.06
46.48
46.38
47.61
49.64
51.85
53.75
55.0
55.38
54.79
53.21
50.75
47.72
44.4
41.0
37.48
33.49
28.39
21.52
12.43
1.2
-11.35
-23.82
-34.52
-42.06
-45.79
-46.0
-43.75
-40.3
-36.72
-33.54
-30.85
-28.48
-26.33
-24.39
-22.71
-21.21
-19.67
-17.78
-15.34
-12.39
-9.26
-6.36
-4.02
-2.32
-1.08
-0.01
1.14
2.38
3.47
3.89
3.0
0.15
-5.1
-12.92
-23.07
-34.96
-47.87
-61.09
-74.26
-87.42
-101.03
-115.63
-131.59
-148.64
-165.85
-181.66
-194.22
-201.77
-203.02
-197.43
-185.25
-167.61
-146.32
-123.68
-102.03
-83.31
-68.61
-57.93
-50.34
-44.45
-38.98
-33.21
-27.12
-21.27
-16.34
-12.77
-10.55
-9.18
-7.93
-6.1
-3.23
0.8
5.79
11.33
16.95
22.17
26.61
29.97
32.04
32.77
32.28
31.01
29.71
29.25
30.46
33.71
38.81
44.92
50.84
55.49
58.19
58.85
57.79
55.48
52.24
48.21
43.53
38.44
33.17
27.73
21.82
14.99
6.99
-1.88
-10.7
-18.26
-23.54
-26.15
-26.33
-24.71
-21.89
-18.32
-14.34
-10.41
-7.19
-5.41
-5.46
-7.1
-9.48
-11.49
-12.12
-10.78
-7.37
-2.15
4.47
12.07
20.18
28.2
35.46
41.23
44.98
46.5
45.93
43.68
40.27
36.13
31.65
27.12
22.86
19.11
16.01
13.56
11.61
9.96
8.44
7.02
5.79
4.84
4.21
3.86
3.76
3.82
4.07
4.52
5.17
6.08
7.29
8.87
10.93
13.58
16.86
20.8
25.32
30.34
35.64
40.9
45.64
49.27
51.31
51.42
49.63
46.26
41.76
36.54
30.92
25.04
19.0
12.98
7.26
2.16
-2.03
-5.16
-7.17
-8.08
-7.93
-6.79
-4.78
-2.12
0.86
3.73
6.09
7.62
8.14
7.69
6.45
4.8
3.19
2.08
1.79
2.37
3.58
5.0
6.2
6.91
7.16
7.16
7.22
7.49
7.86
7.96
7.4
6.0
3.91
1.6
-0.34
-1.54
-1.97
-1.89
-1.7
-1.7
-1.99
-2.53
-3.27
-4.23
-5.45
-6.86
-8.27
-9.31
-9.68
-9.28
-8.35
-7.32
-6.64
-6.54
-6.99
-7.81
-8.78
-9.7
-10.49
-11.04
-11.26
-11.03
-10.3
-9.14
-7.74
-6.39
-5.34
-4.76
-4.73
-5.19
-6.03
-7.1
-8.2
-9.15
-9.78
-10.0
-9.81
-9.22
-8.36
-7.35
-6.38
-5.65
-5.28
-5.36
-5.9
-6.83
-8.1
-9.64
-11.43
-13.39
-15.41
-17.32
-18.94
-20.17
-20.92
-21.13
-20.66
-19.33
-16.95
-13.51
-9.19
-4.45
0.2
4.31
7.65
10.17
12.0
13.25
14.02
14.43
14.6
14.77
15.19
16.02
17.25
18.65
19.89
20.69
20.94
20.72
20.22
19.57
18.81
17.87
16.63
15.06
13.26
11.45
9.82
8.5
7.51
6.79
6.33
6.12
6.22
6.67
7.44
8.43
9.54
10.66
11.77
12.86
13.9
14.87
15.69
16.3
16.65
16.72
16.43
15.68
14.38
12.45
9.95
7.02
3.82
0.55
-2.57
-5.27
-7.22
-8.14
-7.9
-6.68
-4.91
-3.16
-1.87
-1.22
-1.08
-1.17
-1.23
-1.22
-1.24
-1.48
-2.01
-2.74
-3.42
-3.83
-3.85
-3.53
-3.03
-2.55
-2.19
-1.98
-1.84
-1.75
-1.69
-1.7
-1.82
-2.04
-2.36
-2.7
-3.06
-3.39
-3.68
-3.9
-4.04
-4.12
-4.18
-4.32
-4.61
-5.07
-5.69
-6.31
-6.82
-7.1
-7.15
-7.09
-7.1
-7.33
-7.85
-8.62
-9.48
-10.28
-10.9
-11.29
-11.51
-11.66
-11.89
-12.31
-13.06
-14.17
-15.58
-17.11
-18.48
-19.35
-19.45
-18.58
-16.73
-14.05
-10.88
-7.62
-4.72
-2.47
-1.03
-0.28
0.01
0.08
0.1
0.12
0.12
0.09
0.06
0.11
0.29
0.59
0.89
1.08
1.11
1.05
1.05
1.26
1.77
2.58
3.53
4.44
5.14
5.52
5.52
5.21
4.63
3.88
3.1
2.41
1.89
1.58
1.45
1.39
1.27
1.0
0.5
-0.23
-1.14
-2.13
-3.09
-3.89
-4.5
-4.9
-5.2
-5.56
-6.12
-7.0
-8.19
-9.58
-11.0
-12.33
-13.51
-14.7
-16.06
-17.73
-19.63
-21.43
-22.69
-22.99
-22.19
-20.39
-17.92
-15.16
-12.39
-9.76
-7.34
-5.22
-3.51
-2.29
-1.58
-1.25
-1.06
-0.74
-0.11
0.86
2.02
3.13
3.91
4.21
4.1
3.85
3.86
4.43
5.61
7.2
8.85
10.2
11.09
11.53
11.64
11.49
11.12
10.53
9.79
9.0
8.3
7.76
7.33
6.83
6.1
5.1
3.9
2.62
1.42
0.31
-0.72
-1.8
-3.02
-4.43
-6.05
-7.87
-9.82
-11.88
-13.97
-16.06
-18.12
-20.15
-22.21
-24.43
-26.93
-29.84
-33.12
-36.5
-39.51
-41.57
-42.25
-41.35
-39.02
-35.61
-31.56
-27.26
-23.01
-19.07
-15.7
-13.12
-11.45
-10.67
-10.55
-10.81
-11.19
-11.57
-12.03
-12.78
-14.0
-15.82
-18.22
-21.03
-23.93
-26.51
-28.23
-28.56
-27.0
-23.35
-17.77
-10.85
-3.49
3.36
9.0
13.12
15.78
17.32
18.19
18.75
19.32
20.1
21.18
22.52
23.88
24.93
25.36
25.0
23.93
22.45
20.89
19.58
18.72
18.45
18.84
19.93
21.63
23.72
25.84
27.61
28.74
29.11
28.7
27.49
25.41
22.35
18.32
13.63
8.9
4.94
2.5
1.99
3.31
5.95
9.11
12.07
14.31
15.64
16.19
16.22
16.03
15.8
15.61
15.47
15.35
15.33
15.48
15.88
16.57
17.48
18.48
19.43
20.29
21.11
22.06
23.21
24.53
25.84
26.88
27.42
27.35
26.74
25.78
24.7
23.65
22.67
21.7
20.6
19.24
17.53
15.5
13.28
11.05
9.0
7.21
5.64
4.16
2.6
0.83
-1.24
-3.64
-6.33
-9.25
-12.31
-15.38
-18.38
-21.27
-24.19
-27.46
-31.4
-36.17
-41.53
-46.77
-50.86
-52.68
-51.45
-47.0
-39.83
-31.0
-21.74
-13.14
-5.84
-0.0
4.61
8.31
11.35
13.8
15.51
16.37
16.35
15.66
14.69
13.85
13.45
13.57
14.13
14.99
16.1
17.49
19.27
21.46
23.91
26.26
28.02
28.79
28.39
26.89
24.61
21.95
19.28
16.78
14.45
12.13
9.59
6.71
3.49
0.07
-3.32
-6.46
-9.28
-11.83
-14.3
-16.88
-19.8
-23.23
-27.3
-32.08
-37.42
-42.84
-47.5
-50.35
-50.41
-47.17
-40.77
-31.96
-21.89
-11.68
-2.18
6.14
13.05
18.47
22.34
24.64
25.43
24.95
23.5
21.45
19.0
16.26
13.22
9.9
6.43
3.16
0.67
-0.45
0.31
3.11
7.64
13.19
18.82
23.67
27.21
29.28
30.03
29.67
28.28
25.78
22.03
16.97
10.83
4.08
-2.59
-8.58
-13.48
-17.15
-19.82
-21.89
-23.92
-26.46
-29.92
-34.44
-39.7
-44.93
-48.99
-50.65
-48.98
-43.68
-35.14
-24.37
-12.64
-1.19
9.07
17.66
24.43
29.49
33.08
35.49
37.02
37.95
38.49
38.79
38.97
39.07
39.14
39.22
39.34
39.57
40.05
40.92
42.36
44.37
46.75
49.1
50.87
51.64
51.14
49.44
46.8
43.6
40.18
36.8
33.58
30.64
28.0
25.65
23.44
21.15
18.55
15.53
12.16
8.7
5.44
2.61
0.16
-2.18
-4.74
-7.82
-11.49
-15.58
-19.8
-23.9
-27.73
-31.37
-34.96
-38.76
-43.01
-47.99
-53.88
-60.57
-67.44
-73.3
-76.65
-76.09
-70.92
-61.4
-48.79
-34.86
-21.35
-9.42
0.46
8.37
14.63
19.56
23.38
26.33
28.66
30.7
32.67
34.64
36.43
37.8
38.57
38.76
38.61
38.49
38.72
39.46
40.66
42.12
43.56
44.69
45.26
45.13
44.27
42.77
40.78
38.45
35.89
33.16
30.32
27.47
24.7
22.11
19.71
17.38
14.94
12.21
9.14
5.85
2.58
-0.44
-3.08
-5.41
-7.68
-10.2
-13.25
-16.95
-21.18
-25.66
-30.05
-34.08
-37.72
-41.14
-44.72
-48.85
-53.91
-60.05
-67.14
-74.54
-81.14
-85.44
-85.87
-81.37
-71.78
-58.0
-41.86
-25.43
-10.54
1.76
11.23
18.2
23.21
26.75
29.18
30.86
32.19
33.52
35.11
36.98
38.91
40.61
41.85
42.71
43.44
44.38
45.79
47.65
49.67
51.36
52.13
51.52
49.23
45.24
39.8
33.31
26.3
19.22
12.38
5.93
-0.14
-5.87
-11.22
-16.01
-20.0
-23.04
-25.14
-26.59
-27.84
-29.28
-31.07
-32.99
-34.58
-35.25
-34.6
-32.55
-29.3
-25.27
-20.89
-16.47
-12.24
-8.29
-4.7
-1.58
0.95
2.7
3.47
3.03
1.25
-1.86
-5.91
-10.12
-13.42
-14.69
-13.18
-8.81
-2.23
5.37
12.73
18.86
23.36
26.37
28.31
29.65
30.66
31.4
31.84
32.0
32.01
32.11
32.52
33.3
34.31
35.21
35.63
35.34
34.36
32.98
31.61
30.62
30.17
30.2
30.51
30.85
31.04
30.94
30.45
29.48
28.0
26.04
23.73
21.27
18.77
16.31
13.88
11.46
9.11
6.94
5.09
3.59
2.32
1.03
-0.53
-2.56
-5.04
-7.81
-10.66
-13.38
-15.85
-18.05
-20.06
-22.04
-24.22
-26.82
-30.08
-34.11
-38.74
-43.53
-47.66
-50.2
-50.29
-47.48
-41.88
-34.17
-25.4
-16.68
-8.86
-2.43
2.51
6.12
8.6
10.16
10.99
11.31
11.42
11.61
12.03
12.65
13.28
13.67
13.71
13.49
13.3
13.43
14.11
15.3
16.77
18.17
19.11
19.34
18.82
17.66
16.13
14.49
12.93
11.41
9.8
7.88
5.54
2.9
0.19
-2.3
-4.39
-6.1
-7.58
-9.07
-10.74
-12.67
-14.82
-17.02
-19.17
-21.17
-23.04
-24.89
-26.84
-29.1
-31.85
-35.18
-39.02
-42.95
-46.21
-47.88
-47.15
-43.63
-37.57
-29.83
-21.53
-13.72
-7.06
-1.72
2.44
5.68
8.22
10.13
11.45
12.28
12.77
13.1
13.39
13.7
13.96
14.13
14.21
14.31
14.56
15.06
15.87
16.9
18.01
19.01
19.75
20.13
20.05
19.48
18.37
16.71
14.59
12.17
9.66
7.29
5.17
3.3
1.56
-0.22
-2.15
-4.28
-6.58
-8.93
-11.27
-13.52
-15.65
-17.65
-19.56
-21.48
-23.58
-26.12
-29.28
-33.05
-37.07
-40.63
-42.83
-42.78
-40.01
-34.57
-27.11
-18.72
-10.53
-3.49
1.92
5.65
8.01
9.44
10.38
11.17
11.97
12.84
13.77
14.68
15.49
16.12
16.5
16.6
16.48
16.27
16.19
16.42
17.06
18.03
19.08
19.86
20.06
19.48
18.15
16.24
14.01
11.66
9.31
6.96
4.59
2.16
-0.27
-2.62
-4.79
-6.71
-8.36
-9.75
-10.91
-11.89
-12.81
-13.79
-14.97
-16.41
-18.05
-19.78
-21.45
-23.02
-24.58
-26.34
-28.56
-31.42
-34.88
-38.56
-41.81
-43.8
-43.77
-41.26
-36.29
-29.35
-21.28
-13.01
-5.35
1.19
6.35
10.16
12.75
14.33
15.15
15.48
15.6
15.74
16.06
16.64
17.42
18.29
19.13
19.82
20.39
20.93
21.56
22.35
23.23
24.06
24.64
24.79
24.41
23.56
22.29
20.75
19.04
17.3
15.59
13.93
12.28
10.57
8.78
6.93
5.12
3.5
2.14
1.06
0.11
-0.94
-2.33
-4.22
-6.62
-9.33
-12.08
-14.6
-16.73
-18.53
-20.24
-22.19
-24.67
-27.88
-31.71
-35.8
-39.52
-42.07
-42.67
-40.8
-36.38
-29.81
-21.92
-13.66
-5.95
0.57
5.61
9.17
11.51
12.98
13.95
14.67
15.28
15.79
16.15
16.33
16.36
16.32
16.29
16.32
16.44
16.75
17.38
18.45
20.0
21.82
23.58
24.86
25.39
25.13
24.2
22.84
21.26
19.62
18.0
16.43
14.92
13.44
11.91
10.19
8.2
5.93
3.54
1.25
-0.73
-2.3
-3.54
