3.57
2.31
1.13
0.1
-0.76
-1.44
-2.08
-2.8
-3.74
-4.96
-6.46
-8.17
-9.97
-11.75
-13.39
-14.85
-16.1
-17.26
-18.49
-19.99
-21.89
-24.26
-26.94
-29.59
-31.68
-32.64
-31.93
-29.28
-24.79
-18.94
-12.46
-6.18
-0.7
3.67
6.93
9.27
10.94
12.16
13.07
13.79
14.42
15.0
15.48
15.79
15.88
15.74
15.5
15.33
15.37
15.7
16.26
16.93
17.57
18.1
18.42
18.5
18.27
17.7
16.76
15.48
13.97
12.34
10.71
9.17
7.72
6.33
4.93
3.51
2.06
0.65
-0.65
-1.78
-2.74
-3.58
-4.41
-5.3
-6.33
-7.52
-8.8
-10.08
-11.27
-12.31
-13.21
-14.02
-14.82
-15.75
-16.94
-18.56
-20.68
-23.12
-25.43
-26.92
-26.83
-24.7
-20.53
-14.85
-8.52
-2.43
2.77
6.78
9.64
11.55
12.79
13.61
14.24
14.85
15.53
16.25
16.9
17.27
17.18
16.63
15.75
14.8
14.07
13.74
13.84
14.24
14.74
15.1
15.18
14.92
14.35
13.53
12.54
11.42
10.2
8.89
7.54
6.16
4.78
3.4
1.98
0.48
-1.09
-2.7
-4.29
-5.8
-7.22
-8.64
-10.16
-11.84
-13.67
-15.52
-17.25
-18.72
-19.95
-21.1
-22.42
-24.18
-26.52
-29.37
-32.43
-35.22
-37.14
-37.66
-36.45
-33.46
-28.96
-23.49
-17.73
-12.32
-7.69
-4.02
-1.2
1.07
3.12
5.19
7.28
9.22
10.77
11.78
12.3
12.54
12.79
13.24
13.91
14.72
15.53
16.28
16.99
17.76
18.62
19.54
20.39
21.0
21.2
20.87
20.01
18.73
17.21
15.65
14.19
12.86
11.57
10.17
8.58
6.77
4.82
2.81
0.76
-1.3
-3.31
-5.21
-6.88
-8.33
-9.65
-11.13
-13.04
-15.55
-18.53
-21.57
-24.03
-25.25
-24.76
-22.45
-18.62
-13.87
-8.92
-4.38
-0.61
2.31
4.53
6.29
7.78
9.11
10.32
11.34
12.14
12.64
12.86
12.88
12.75
12.6
12.46
12.35
12.3
12.35
12.61
13.14
13.93
14.78
15.41
15.52
14.95
13.79
12.29
10.83
9.71
9.08
8.87
8.86
8.79
8.46
7.77
6.81
5.74
4.72
3.82
3.01
2.19
1.29
0.32
-0.62
-1.39
-1.93
-2.31
-2.67
-3.22
-4.11
-5.35
-6.84
-8.41
-9.95
-11.39
-12.77
-14.19
-15.7
-17.34
-19.11
-21.01
-23.09
-25.34
-27.6
-29.48
-30.46
-30.0
-27.78
-23.9
-18.86
-13.42
-8.31
-4.08
-0.87
1.44
3.15
4.56
5.86
7.15
8.41
9.62
10.71
11.64
12.37
12.82
12.96
12.8
12.45
12.03
11.68
11.51
11.55
11.78
12.09
12.4
12.57
12.55
12.28
11.78
11.12
10.38
9.64
8.97
8.36
7.75
7.08
6.28
5.34
4.28
3.14
1.99
0.89
-0.13
-1.06
-1.93
-2.76
-3.51
-4.15
-4.65
-5.08
-5.56
-6.26
-7.32
-8.72
-10.32
-11.87
-13.16
-14.03
-14.49
-14.64
-14.68
-14.79
-15.1
-15.67
-16.33
-16.79
-16.6
-15.39
-12.98
-9.49
-5.34
-1.12
2.61
5.49
7.35
8.3
8.51
8.25
7.71
7.08
6.45
5.85
5.2
4.44
3.47
2.32
1.12
0.08
-0.56
-0.66
-0.21
0.64
1.68
2.7
3.56
4.2
4.62
4.82
4.86
4.79
4.66
4.57
4.54
4.55
4.52
4.33
3.92
3.32
2.64
2.02
1.59
1.35
1.24
1.12
0.84
0.28
-0.59
-1.75
-3.1
-4.59
-6.16
-7.73
-9.25
-10.65
-11.96
-13.28
-14.78
-16.57
-18.54
-20.36
-21.55
-21.62
-20.36
-17.86
-14.5
-10.78
-7.12
-3.82
-1.0
1.29
3.0
4.15
4.83
5.19
5.47
5.86
6.42
7.08
7.66
8.03
8.13
8.0
7.78
7.63
7.64
7.85
8.19
8.61
9.0
9.31
9.45
9.39
9.08
8.58
7.96
7.33
6.77
6.33
5.99
5.74
5.59
5.54
5.59
5.65
5.59
5.24
4.47
3.25
1.66
-0.15
-2.0
-3.73
-5.25
-6.54
-7.6
-8.48
-9.3
-10.18
-11.28
-12.69
-14.42
-16.42
-18.57
-20.77
-23.01
-25.28
-27.5
-29.36
-30.37
-30.0
-27.89
-24.03
-18.85
-13.03
-7.3
-2.2
1.98
5.17
7.44
8.94
9.88
10.45
10.9
11.4
12.0
12.6
13.03
13.05
12.55
11.51
10.08
8.51
7.08
6.08
5.65
5.82
6.43
7.26
8.05
8.61
8.82
8.66
8.2
7.58
6.91
6.29
5.74
5.16
4.45
3.55
2.49
1.38
0.34
-0.6
-1.55
-2.62
-3.89
-5.28
-6.61
-7.67
-8.34
-8.69
-8.87
-9.06
-9.39
-9.92
-10.63
-11.44
-12.3
-13.15
-14.0
-14.9
-15.96
-17.23
-18.67
-20.06
-21.03
-21.11
-19.92
-17.28
-13.31
-8.36
-2.95
2.36
7.08
10.87
13.59
15.29
16.18
16.52
16.54
16.4
16.2
16.04
16.0
16.18
16.57
17.1
17.57
17.78
17.63
17.2
16.65
16.18
15.86
15.62
15.32
14.81
14.05
13.03
11.83
10.48
9.04
7.57
6.18
4.97
4.01
3.28
2.69
2.13
1.54
0.88
0.19
-0.52
-1.22
-1.95
-2.75
-3.68
-4.75
-6.02
-7.48
-9.1
-10.82
-12.47
-13.94
-15.17
-16.26
-17.34
-18.54
-19.82
-20.9
-21.35
-20.72
-18.8
-15.71
-11.9
-8.01
-4.58
-1.89
0.06
1.52
2.71
3.81
4.87
5.88
6.85
7.85
8.95
10.17
11.43
12.62
13.68
14.65
15.64
16.78
18.09
19.44
20.64
21.51
21.96
22.06
21.91
21.61
21.18
20.6
19.79
18.73
17.46
16.02
14.5
12.91
11.25
9.5
7.65
5.75
3.82
1.9
-0.0
-1.89
-3.74
-5.5
-7.08
-8.44
-9.62
-10.7
-11.78
-12.88
-13.91
-14.7
-15.11
-15.13
-14.89
-14.65
-14.62
-14.87
-15.36
-15.99
-16.67
-17.36
-18.05
-18.63
-18.86
-18.44
-17.13
-14.87
-11.86
-8.52
-5.35
-2.73
-0.84
0.42
1.26
1.99
2.85
3.94
5.16
6.34
7.25
7.71
7.7
7.3
6.67
5.99
5.38
4.9
4.58
4.41
4.39
4.56
4.93
5.51
6.27
7.13
8.0
8.75
9.26
9.46
9.38
9.11
8.79
8.58
8.53
8.66
8.87
9.07
9.16
9.01
8.56
7.73
6.54
5.13
3.7
2.46
1.53
0.88
0.34
-0.27
-1.08
-2.07
-3.12
-4.07
-4.89
-5.66
-6.55
-7.72
-9.32
-11.38
-13.87
-16.64
-19.42
-21.83
-23.43
-23.94
-23.24
-21.47
-18.96
-16.11
-13.26
-10.59
-8.19
-6.13
-4.44
-3.2
-2.41
-1.98
-1.75
-1.55
-1.3
-1.02
-0.77
-0.58
-0.42
-0.12
0.42
1.23
2.27
3.4
4.56
5.73
6.97
8.26
9.52
10.59
11.36
11.73
11.74
11.43
10.83
9.93
8.67
7.09
5.24
3.23
1.18
-0.84
-2.76
-4.53
-6.03
-7.23
-8.09
-8.69
-9.19
-9.69
-10.24
-10.76
-11.15
-11.37
-11.52
-11.82
-12.52
-13.8
-15.64
-17.79
-19.82
-21.24
-21.66
-20.9
-19.0
-16.19
-12.71
-8.84
-4.82
-0.89
2.7
5.69
7.94
9.44
10.38
10.99
11.49
11.99
12.45
12.77
12.84
12.64
12.26
11.83
11.51
11.38
11.45
11.68
11.98
12.25
12.42
12.43
12.27
11.93
11.39
10.62
9.6
8.32
6.81
5.18
3.54
2.04
0.77
-0.21
-0.88
-1.26
-1.39
-1.35
-1.2
-1.07
-1.04
-1.21
-1.6
-2.15
-2.79
-3.47
-4.16
-4.9
-5.72
-6.65
-7.68
-8.78
-9.89
-11.01
-12.19
-13.53
-15.13
-16.99
-18.93
-20.6
-21.55
-21.39
-19.98
-17.5
-14.37
-11.05
-7.92
-5.09
-2.53
-0.15
2.06
4.05
5.67
6.84
7.6
8.08
8.49
8.99
9.64
10.41
11.14
11.69
11.95
11.92
11.68
11.4
11.19
11.13
11.18
11.24
11.21
10.99
10.55
9.92
9.19
8.43
7.71
7.07
6.46
5.83
5.11
4.3
3.4
2.46
1.52
0.61
-0.26
-1.06
-1.74
-2.28
-2.66
-2.94
-3.19
-3.52
-4.02
-4.73
-5.66
-6.82
-8.15
-9.61
-11.11
-12.53
-13.76
-14.73
-15.48
-16.14
-16.88
-17.76
-18.65
-19.24
-19.14
-18.06
-15.9
-12.88
-9.39
-5.93
-2.84
-0.28
1.79
3.52
5.04
6.41
7.58
8.46
9.0
9.25
9.34
9.4
9.53
9.73
9.94
10.07
10.05
9.92
9.78
9.75
9.87
10.16
10.55
10.91
11.11
11.04
10.63
9.84
8.73
7.43
6.12
4.99
4.14
3.54
3.06
2.48
1.67
0.59
-0.62
-1.8
-2.8
-3.55
-4.09
-4.53
-4.97
-5.5
-6.12
-6.81
-7.52
-8.26
-9.06
-10.04
-11.33
-12.96
-14.8
-16.53
-17.7
-17.85
-16.77
-14.52
-11.46
-8.07
-4.8
-1.85
0.69
2.9
4.85
6.56
8.03
9.24
10.23
11.03
11.7
12.22
12.56
12.71
12.68
12.57
12.51
12.59
12.84
13.18
13.48
13.55
13.34
12.85
12.21
11.52
10.86
10.25
9.64
8.93
8.05
6.97
5.68
4.26
2.83
1.53
0.49
-0.27
-0.8
-1.23
-1.68
-2.24
-2.89
-3.59
-4.27
-4.91
-5.51
-6.08
-6.65
-7.22
-7.83
-8.49
-9.21
-10.01
-10.84
-11.65
-12.41
-13.18
-14.1
-15.37
-17.07
-19.09
-21.08
-22.52
-22.88
-21.83
-19.38
-15.84
-11.67
-7.34
-3.21
0.45
3.49
5.8
7.32
8.11
8.39
8.46
8.58
8.98
9.65
10.52
11.41
12.14
12.58
12.68
12.47
12.06
11.59
11.22
11.02
10.98
11.04
11.1
11.13
11.08
10.94
10.66
10.15
9.39
8.42
7.34
6.35
5.51
4.82
4.17
3.42
2.51
1.5
0.5
-0.3
-0.85
-1.17
-1.36
-1.61
-2.09
-2.85
-3.85
-4.92
-5.84
-6.48
-6.81
-6.99
-7.3
-7.96
-9.11
-10.72
-12.65
-14.73
-16.79
-18.63
-20.02
-20.64
-20.24
-18.68
-16.14
-12.97
-9.69
-6.66
-4.07
-1.92
-0.14
1.34
2.48
3.25
3.67
3.89
4.1
4.44
4.96
5.56
6.14
6.63
7.02
7.41
7.82
8.26
8.67
8.99
9.16
9.21
9.15
8.99
8.73
8.4
8.03
7.71
7.48
7.3
7.04
6.55
5.69
4.46
3.02
1.62
0.48
-0.31
-0.83
-1.27
-1.85
-2.71
-3.9
-5.35
-6.93
-8.46
-9.78
-10.81
-11.58
-12.26
-13.06
-14.21
-15.79
-17.67
-19.56
-21.01
-21.64
-21.16
-19.49
-16.77
-13.32
-9.59
-6.0
-2.91
-0.43
1.45
2.92
4.15
5.22
6.16
6.93
7.53
8.0
8.43
8.9
9.45
10.0
10.44
10.64
10.59
10.36
10.09
9.9
9.87
10.0
10.23
10.49
10.69
10.78
10.67
10.26
9.5
8.44
7.27
6.26
5.59
5.29
5.22
5.1
4.73
4.01
3.01
1.89
0.79
-0.19
-1.04
-1.74
-2.31
-2.83
-3.39
-4.1
-5.03
-6.16
-7.42
-8.71
-10.01
-11.32
-12.69
-14.15
-15.73
-17.41
-19.16
-20.82
-22.16
-22.85
-22.53
-21.01
-18.33
-14.78
-10.86
-7.11
-3.92
-1.45
0.36
1.74
2.91
4.03
5.12
6.16
7.08
7.89
8.64
9.43
10.26
11.08
11.76
12.23
12.48
12.59
12.68
12.8
12.93
13.0
12.92
12.65
12.21
11.65
11.02
10.38
9.72
9.06
8.41
7.77
7.17
6.6
6.08
5.6
5.14
4.64
4.05
3.36
2.56
1.71
0.89
0.16
-0.46
-1.04
-1.73
-2.7
-4.02
-5.65
-7.43
-9.14
-10.58
-11.69
-12.53
-13.22
-13.89
-14.68
-15.67
-16.96
-18.56
-20.38
-22.11
-23.31
-23.49
-22.31
-19.76
-16.13
-11.96
-7.82
-4.13
-1.1
1.24
2.96
4.16
4.95
5.43
5.67
5.75
5.78
5.87
6.11
6.57
7.21
7.94
8.61
9.15
9.54
9.84
10.13
10.39
10.57
10.57
10.33
9.91
9.42
8.99
8.68
8.46
8.2
7.78
7.12
6.22
5.16
4.07
3.06
2.2
1.51
0.97
0.5
0.04
-0.51
-1.18
-2.0
-2.97
-4.05
-5.2
-6.36
-7.47
-8.5
-9.46
-10.42
-11.54
-13.0
-14.88
-17.11
-19.34
-21.05
-21.65
-20.76
-18.34
-14.74
-10.55
-6.38
-2.71
0.25
2.55
4.32
5.73
6.88
7.8
8.49
8.97
9.3
9.53
9.73
9.9
10.05
10.19
10.33
10.52
10.74
10.91
10.95
10.8
10.5
10.2
10.08
10.19
10.5
10.8
10.93
10.8
10.43
9.95
9.46
8.99
8.46
7.82
6.99
5.96
4.81
3.69
2.72
2.03
1.59
1.32
1.08
0.69
0.1
-0.71
-1.72
-2.92
-4.32
-5.87
-7.47
-8.92
-10.08
-10.9
-11.55
-12.32
-13.55
-15.46
-18.03
-20.95
-23.71
-25.72
-26.46
-25.62
-23.21
-19.53
-15.15
-10.65
-6.53
-3.06
-0.29
1.87
3.54
4.83
5.83
6.63
7.35
8.06
8.79
9.5
10.1
10.47
10.58
10.46
10.25
10.11
10.17
10.43
10.8
11.17
11.44
11.54
11.46
11.16
10.61
9.79
8.74
7.62
6.57
5.74
5.14
4.69
4.31
3.91
3.5
3.11
2.72
2.27
1.72
1.11
0.59
0.36
0.56
1.25
2.29
3.5
4.62
5.4
5.62
5.13
3.94
2.16
0.05
-2.15
-4.24
-6.19
-8.1
-10.17
-12.51
-15.12
-17.79
-20.15
-21.72
-22.08
-21.0
-18.53
-15.01
-10.98
-6.97
-3.42
-0.51
1.72
3.3
4.32
4.88
5.09
5.14
5.22
5.47
5.88
6.32
6.6
6.58
6.24
5.7
5.18
4.9
5.02
5.59
6.53
7.67
8.76
9.57
9.94
9.81
9.29
8.54
7.75
7.04
6.39
5.73
4.99
4.1
3.07
1.96
0.83
-0.22
-1.18
-2.01
-2.76
-3.5
-4.32
-5.34
-6.61
-8.13
-9.79
-11.46
-12.97
-14.25
-15.34
-16.38
-17.51
-18.84
-20.35
-21.85
-23.03
-23.52
-22.99
-21.26
-18.36
-14.56
-10.3
-6.07
-2.26
0.9
3.38
5.31
6.84
8.1
9.17
10.02
10.67
11.12
11.39
11.54
11.58
11.48
11.26
10.96
10.75
10.81
11.27
12.13
13.19
14.15
14.7
14.71
14.2
13.35
12.34
11.31
10.27
9.19
8.09
6.98
5.93
4.98
4.13
3.34
2.56
1.75
0.91
0.08
-0.69
-1.33
-1.85
-2.27
-2.74
-3.4
-4.39
-5.71
-7.29
-8.91
-10.37
-11.55
-12.45
-13.19
-13.97
-14.98
-16.35
-18.11
-20.23
-22.47
-24.52
-25.98
-26.38
-25.36
-22.78
-18.79
-13.9
-8.79
-4.15
-0.45
2.19
3.96
5.24
6.35
7.49
8.67
9.85
10.93
11.92
12.81
13.56
14.12
14.36
14.26
13.86
13.32
12.83
12.55
12.56
12.83
13.3
13.86
14.42
14.83
14.96
14.69
13.93
12.71
11.16
9.48
7.89
6.54
5.52
4.79
4.27
3.83
3.35
2.73
1.9
0.86
-0.34
-1.57
-2.65
-3.46
-3.95
-4.24
-4.49
-4.92
-5.62
-6.57
-7.65
-8.72
-9.76
-10.82
-12.09
-13.78
-16.03
-18.77
-21.66
-24.19
-25.73
-25.8
-24.27
-21.34
-17.49
-13.21
-8.92
-4.87
-1.22
1.9
4.36
6.1
7.22
7.95
8.58
9.33
10.23
11.15
11.92
12.48
12.87
13.22
13.59
13.99
14.36
14.66
14.91
15.17
15.46
15.73
15.82
15.55
14.83
13.69
12.31
10.94
9.82
9.05
8.52
8.04
7.4
6.42
5.13
3.67
2.23
0.99
0.03
-0.72
-1.42
-2.23
-3.25
-4.47
-5.8
-7.09
-8.26
-9.29
-10.2
-11.04
-11.88
-12.74
-13.68
-14.77
-16.03
-17.41
-18.75
-19.75
-20.03
-19.27
-17.29
-14.17
-10.23
-5.97
-1.94
1.43
3.95
5.67
6.82
7.68
8.47
9.29
10.08
10.72
11.11
11.18
11.0
10.68
10.37
10.21
10.22
10.38
10.59
10.74
10.74
10.58
10.27
9.83
9.31
8.72
8.14
7.65
7.3
7.08
6.92
6.65
6.11
5.22
3.99
2.57
1.16
-0.08
-1.06
-1.82
-2.46
-3.1
-3.84
-4.74
-5.78
-6.91
-8.05
-9.11
-10.03
-10.75
-11.27
-11.64
-11.98
-12.47
-13.32
-14.65
-16.46
-18.54
-20.52
-21.91
-22.25
-21.23
-18.81
-15.24
-11.01
-6.71
-2.88
0.13
2.28
3.72
4.75
5.66
6.61
7.61
8.57
9.38
9.96
10.31
10.46
10.52
10.54
10.59
10.7
10.84
10.99
11.12
11.19
11.2
11.18
11.13
11.05
10.91
10.64
10.15
9.42
8.52
7.58
6.79
6.27
6.04
5.97
5.88
5.61
5.11
4.41
3.64
2.88
2.16
1.49
0.83
0.16
-0.54
-1.31
-2.15
-3.06
-4.05
-5.05
-5.98
-6.78
-7.43
-8.0
-8.59
-9.32
-10.29
-11.57
-13.13
-14.86
-16.58
-18.02
-18.92
-19.05
-18.29
-16.64
-14.22
-11.26
-8.07
-4.98
-2.26
-0.1
1.46
2.56
3.42
4.28
5.28
6.41
7.52
8.39
8.86
8.9
8.6
8.13
7.65
7.24
6.95
6.81
6.88
7.21
7.8
8.48
9.06
9.29
9.09
8.51
7.7
6.82
5.91
4.9
3.71
2.33
0.91
-0.31
-1.12
-1.42
-1.29
-0.93
-0.62
-0.53
-0.77
-1.34
-2.18
-3.2
-4.31
-5.48
-6.69
-7.94
-9.22
-10.44
-11.47
-12.19
-12.57
-12.69
-12.73
-12.9
-13.37
-14.17
-15.26
-16.45
-17.46
-17.99
-17.74
-16.53
-14.3
-11.27
-7.78
-4.27
-1.07
1.65
