1.81
-0.32
-2.74
-5.39
-8.11
-10.74
-13.1
-15.11
-16.76
-18.22
-19.65
-21.19
-22.81
-24.32
-25.48
-26.09
-26.13
-25.77
-25.31
-25.01
-25.04
-25.41
-26.02
-26.66
-27.05
-26.91
-25.89
-23.77
-20.5
-16.27
-11.57
-6.94
-2.83
0.53
3.15
5.2
6.87
8.29
9.47
10.42
11.12
11.59
11.9
12.07
12.13
12.13
12.11
12.16
12.33
12.66
13.07
13.44
13.63
13.55
13.16
12.5
11.62
10.56
9.38
8.1
6.74
5.36
3.94
2.49
0.99
-0.51
-1.96
-3.26
-4.23
-4.73
-4.59
-3.76
-2.3
-0.44
1.5
3.17
4.31
4.84
4.84
4.46
3.78
2.84
1.63
0.17
-1.46
-3.11
-4.73
-6.34
-8.13
-10.31
-13.01
-16.18
-19.52
-22.5
-24.55
-25.19
-24.21
-21.73
-18.16
-14.09
-10.08
-6.56
-3.74
-1.68
-0.31
0.5
0.9
1.08
1.22
1.51
2.03
2.77
3.58
4.2
4.42
4.14
3.45
2.68
2.25
2.48
3.51
5.12
6.89
8.34
9.15
9.27
8.86
8.2
7.55
7.04
6.68
6.46
6.3
6.17
6.01
5.73
5.28
4.62
3.79
2.88
1.99
1.16
0.31
-0.64
-1.73
-2.93
-4.09
-5.11
-5.93
-6.62
-7.3
-8.1
-9.07
-10.27
-11.73
-13.5
-15.53
-17.6
-19.3
-20.1
-19.56
-17.53
-14.33
-10.56
-6.96
-4.12
-2.2
-1.09
-0.44
0.08
0.66
1.37
2.2
3.1
4.08
5.1
6.08
6.91
7.47
7.68
7.59
7.32
7.05
6.95
7.13
7.56
8.16
8.77
9.25
9.47
9.45
9.25
8.96
8.67
8.36
7.97
7.42
6.68
5.79
4.88
4.11
3.53
3.15
2.85
2.53
2.1
1.55
0.93
0.29
-0.36
-1.04
-1.78
-2.63
-3.59
-4.66
-5.81
-7.0
-8.24
-9.56
-11.07
-12.87
-14.98
-17.34
-19.71
-21.8
-23.37
-24.21
-24.21
-23.29
-21.38
-18.54
-14.97
-11.06
-7.33
-4.2
-1.87
-0.24
0.98
2.06
3.15
4.19
5.03
5.59
5.9
6.09
6.31
6.65
7.1
7.58
8.01
8.33
8.57
8.76
8.94
9.12
9.25
9.29
9.19
8.96
8.67
8.37
8.08
7.78
7.38
6.86
6.24
5.58
4.95
4.34
3.7
2.95
2.09
1.18
0.33
-0.35
-0.85
-1.23
-1.61
-2.1
-2.81
-3.75
-4.93
-6.28
-7.67
-8.92
-9.88
-10.5
-10.88
-11.22
-11.76
-12.68
-14.02
-15.67
-17.37
-18.79
-19.54
-19.39
-18.25
-16.25
-13.72
-11.01
-8.4
-6.02
-3.88
-1.91
-0.12
1.48
2.78
3.7
4.21
4.3
4.05
3.53
2.84
2.03
1.1
0.03
-1.2
-2.57
-3.96
-5.16
-5.93
-6.09
-5.58
-4.5
-3.05
-1.45
0.06
1.3
2.15
2.56
2.5
2.01
1.16
0.0
-1.39
-2.94
-4.49
-5.83
-6.77
-7.17
-7.09
-6.71
-6.33
-6.16
-6.22
-6.36
-6.36
-6.09
-5.64
-5.27
-5.32
-6.08
-7.56
-9.6
-11.96
-14.43
-16.91
-19.35
-21.7
-23.74
-25.14
-25.53
-24.66
-22.52
-19.41
-15.77
-12.11
-8.76
-5.86
-3.39
-1.25
0.62
2.21
3.52
4.55
5.39
6.14
6.85
7.49
7.92
8.05
7.89
7.67
7.73
8.45
10.1
12.69
16.04
19.82
23.69
27.48
31.17
34.85
38.61
42.38
45.98
49.19
51.83
53.87
55.37
56.48
57.31
57.89
58.24
58.3
57.98
57.09
55.29
52.15
47.23
40.27
31.24
20.52
8.75
-3.23
-14.61
-24.72
-33.14
-39.7
-44.37
-47.2
-48.22
-47.44
-44.94
-40.88
-35.61
-29.59
-23.27
-17.04
-11.2
-5.93
-1.43
2.09
4.46
5.66
5.82
5.36
4.81
4.65
5.15
6.29
7.77
9.16
10.04
10.14
9.33
7.65
5.23
2.34
-0.69
-3.49
-5.7
-7.08
-7.52
-7.02
-5.64
-3.49
-0.65
2.74
6.54
10.52
14.48
18.21
21.56
24.45
26.81
28.59
29.74
30.16
29.78
28.51
26.34
23.28
19.49
15.19
10.66
6.17
1.89
-2.17
-6.1
-10.05
-14.1
-18.22
-22.21
-25.77
-28.54
-30.21
-30.58
-29.7
-27.82
-25.34
-22.76
-20.38
-18.31
-16.43
-14.52
-12.47
-10.37
-8.49
-7.11
-6.32
-5.99
-5.84
-5.59
-5.17
-4.73
-4.49
-4.55
-4.81
-5.05
-5.04
-4.74
-4.3
-3.9
-3.71
-3.64
-3.57
-3.38
-3.1
-2.85
-2.79
-2.99
-3.38
-3.84
-4.28
-4.74
-5.33
-6.12
-7.09
-8.14
-9.09
-9.87
-10.52
-11.12
-11.75
-12.41
-13.04
-13.58
-14.06
-14.58
-15.25
-16.09
-17.03
-17.91
-18.66
-19.33
-20.17
-21.43
-23.21
-25.31
-27.23
-28.29
-27.9
-25.78
-22.07
-17.27
-12.02
-6.92
-2.35
1.57
4.87
7.63
9.89
11.58
12.65
13.14
13.18
12.98
12.72
12.44
12.08
11.51
10.69
9.72
8.8
8.18
8.06
8.51
9.52
10.99
12.77
14.69
16.56
18.23
19.67
20.93
22.12
23.36
24.64
25.83
26.72
27.14
27.0
26.28
25.06
23.4
21.38
19.14
16.83
14.61
12.58
10.74
9.02
7.38
5.8
4.32
2.96
1.67
0.3
-1.35
-3.41
-5.93
-8.81
-11.84
-14.74
-17.22
-19.0
-19.85
-19.65
-18.37
-16.14
-13.29
-10.2
-7.3
-4.93
-3.29
-2.37
-2.05
-2.11
-2.34
-2.56
-2.69
-2.71
-2.64
-2.52
-2.38
-2.19
-1.93
-1.58
-1.14
-0.64
-0.16
0.25
0.58
0.89
1.27
1.74
2.21
2.52
2.5
2.09
1.37
0.51
-0.33
-1.04
-1.64
-2.21
-2.85
-3.55
-4.27
-4.95
-5.52
-6.0
-6.47
-7.02
-7.74
-8.63
-9.65
-10.7
-11.69
-12.62
-13.57
-14.65
-15.9
-17.21
-18.29
-18.73
-18.22
-16.61
-14.01
-10.74
-7.21
-3.74
-0.59
2.12
4.31
5.96
7.09
7.81
8.24
8.54
8.78
8.97
9.09
9.13
9.14
9.17
9.22
9.2
9.02
8.63
8.12
7.68
7.53
7.79
8.36
8.98
9.32
9.19
8.57
7.6
6.52
5.51
4.64
3.84
3.01
2.11
1.13
0.16
-0.69
-1.42
-2.07
-2.76
-3.61
-4.67
-5.93
-7.31
-8.78
-10.28
-11.77
-13.16
-14.36
-15.32
-16.11
-16.9
-17.95
-19.4
-21.17
-22.86
-23.89
-23.73
-22.15
-19.27
-15.55
-11.49
-7.53
-3.88
-0.63
2.2
4.55
6.33
7.51
8.17
8.51
8.78
9.16
9.69
10.27
10.72
10.91
10.8
10.44
10.0
9.6
9.34
9.22
9.2
9.25
9.3
9.35
9.35
9.22
8.92
8.43
7.84
7.28
6.86
6.62
6.51
6.35
6.0
5.33
4.34
3.12
1.81
0.56
-0.56
-1.53
-2.44
-3.42
-4.57
-5.91
-7.37
-8.76
-9.96
-10.88
-11.58
-12.25
-13.08
-14.28
-15.89
-17.8
-19.74
-21.33
-22.14
-21.83
-20.17
-17.2
-13.18
-8.58
-3.94
0.29
3.82
6.54
8.48
9.74
10.43
10.68
10.65
10.58
10.66
10.98
11.44
11.83
11.94
11.7
11.23
10.79
10.61
10.78
11.24
11.8
12.28
12.57
12.61
12.41
12.0
11.39
10.6
9.62
8.53
7.39
6.28
5.27
4.33
3.41
2.4
1.24
-0.07
-1.51
-3.04
-4.63
-6.25
-7.86
-9.34
-10.57
-11.51
-12.21
-12.86
-13.66
-14.73
-16.03
-17.48
-18.97
-20.42
-21.77
-22.85
-23.38
-22.97
-21.31
-18.28
-14.13
-9.35
-4.55
-0.22
3.35
6.11
8.17
9.62
10.52
10.91
10.84
10.41
9.79
9.08
8.39
7.73
7.14
6.68
6.38
6.3
6.44
6.78
7.22
7.7
8.13
8.43
8.55
8.42
8.04
7.4
6.55
5.52
4.38
3.19
2.01
0.9
-0.12
-1.09
-2.1
-3.26
-4.64
-6.19
-7.78
-9.24
-10.41
-11.26
-11.92
-12.62
-13.62
-15.08
-16.95
-18.89
-20.42
-20.95
-20.05
-17.58
-13.76
-9.1
-4.26
0.17
3.85
6.73
8.95
10.7
12.1
13.18
13.86
14.15
14.12
13.94
13.8
13.85
14.06
14.32
14.46
14.41
14.15
13.78
13.42
13.15
12.95
12.76
12.49
12.11
11.65
11.15
10.62
10.03
9.27
8.26
6.96
5.41
3.7
1.95
0.25
-1.37
-2.92
-4.48
-6.16
-7.99
-9.89
-11.71
-13.26
-14.5
-15.56
-16.78
-18.45
-20.67
-23.15
-25.29
-26.37
-25.83
-23.51
-19.62
-14.68
-9.26
-3.89
0.99
5.1
8.22
10.24
11.23
11.42
11.22
11.0
11.08
11.49
12.09
12.6
12.77
12.5
11.85
11.01
10.17
9.5
9.05
8.85
8.83
8.94
9.06
9.03
8.7
7.97
6.86
5.46
3.92
2.37
0.87
-0.51
-1.77
-2.89
-3.89
-4.83
-5.78
-6.82
-8.01
-9.34
-10.71
-12.0
-13.08
-13.9
-14.53
-15.13
-15.97
-17.25
-19.08
-21.35
-23.75
-25.74
-26.76
-26.33
-24.25
-20.64
-15.93
-10.67
-5.45
-0.69
3.38
6.68
9.24
11.12
12.39
13.2
13.72
14.13
14.56
15.01
15.41
15.64
15.64
15.42
15.11
14.81
14.63
14.56
14.54
14.48
14.32
14.0
13.56
13.02
12.39
11.64
10.76
9.69
8.46
7.09
5.67
4.24
2.85
1.51
0.17
-1.23
-2.74
-4.37
-6.07
-7.76
-9.33
-10.73
-11.97
-13.14
-14.33
-15.67
-17.21
-18.99
-20.97
-23.05
-24.95
-26.26
-26.48
-25.25
-22.44
-18.32
-13.41
-8.36
-3.69
0.3
3.49
5.93
7.69
8.85
9.54
9.9
10.1
10.22
10.32
10.38
10.41
10.44
10.53
10.68
10.84
10.95
10.99
11.02
11.13
11.38
11.78
12.16
12.31
12.09
11.41
10.3
8.9
7.36
5.82
4.38
3.08
1.86
0.59
-0.85
-2.5
-4.27
-5.95
-7.37
-8.47
-9.4
-10.42
-11.78
-13.63
-15.93
-18.45
-20.86
-22.82
-23.93
-23.89
-22.42
-19.49
-15.32
-10.38
-5.27
-0.56
3.44
6.66
9.26
11.43
13.27
14.78
15.86
16.42
16.45
16.02
15.31
14.46
13.59
12.76
11.99
11.32
10.8
10.55
10.62
11.01
11.56
12.01
12.1
11.67
10.78
9.65
8.59
7.82
7.35
7.02
6.54
5.66
4.32
2.65
0.91
-0.6
-1.74
-2.5
-3.05
-3.66
-4.58
-5.92
-7.63
-9.52
-11.32
-12.84
-14.01
-14.91
-15.71
-16.63
-17.91
-19.69
-21.97
-24.49
-26.78
-28.21
-28.18
-26.35
-22.77
-17.87
-12.28
-6.69
-1.6
2.69
6.08
8.61
10.41
11.64
12.53
13.29
14.05
14.85
15.64
16.31
16.75
16.93
16.89
16.73
16.53
16.34
16.16
15.95
15.62
15.07
14.2
12.95
11.34
9.49
7.58
5.87
4.57
3.76
3.39
3.26
3.1
2.7
1.96
0.98
-0.04
-0.84
-1.26
-1.3
-1.09
-0.89
-0.96
-1.49
-2.57
-4.13
-5.92
-7.69
-9.17
-10.19
-10.81
-11.27
-11.99
-13.35
-15.56
-18.48
-21.66
-24.37
-25.87
-25.67
-23.6
-19.94
-15.22
-10.15
-5.37
-1.37
1.61
3.6
4.82
5.64
6.4
7.32
8.41
9.58
10.65
11.52
12.16
12.6
12.86
12.96
12.93
12.83
12.81
13.05
13.69
14.67
15.74
16.53
16.72
16.17
14.99
13.47
11.96
10.71
9.79
9.09
8.42
7.54
6.34
4.83
3.15
1.49
0.02
-1.21
-2.23
-3.21
-4.27
-5.48
-6.82
-8.22
-9.66
-11.15
-12.75
-14.46
-16.2
-17.93
-19.56
-21.16
-22.79
-24.5
-26.15
-27.37
-27.64
-26.5
-23.72
-19.43
-14.09
-8.36
-2.88
1.88
5.68
8.53
10.55
11.94
12.91
13.59
14.08
14.42
14.66
14.79
14.78
14.57
14.09
13.35
12.43
11.54
10.9
10.61
10.65
10.78
10.73
10.29
9.42
8.21
6.86
5.52
4.3
3.25
2.38
1.69
1.1
0.46
-0.43
-1.71
-3.37
-5.25
-7.08
-8.65
-9.85
-10.78
-11.59
-12.48
-13.57
-14.93
-16.54
-18.29
-19.95
-21.14
-21.45
-20.48
-18.07
-14.35
-9.77
-4.9
-0.34
3.46
6.3
8.16
9.25
9.86
10.34
10.92
11.7
12.55
13.24
13.56
13.41
12.92
12.33
11.94
11.9
12.28
12.95
13.69
14.27
14.51
14.31
13.71
12.79
11.65
10.36
8.94
7.36
5.65
3.86
2.12
0.57
-0.7
-1.65
-2.34
-2.87
-3.42
-4.14
-5.1
-6.31
-7.68
-9.07
-10.43
-11.71
-13.01
-14.4
-15.95
-17.66
-19.49
-21.33
-22.99
-24.22
-24.65
-23.97
-21.97
-18.7
-14.5
-9.9
-5.39
-1.37
1.95
4.53
6.42
7.71
8.46
8.76
8.72
8.52
8.28
8.14
8.12
8.21
8.34
8.5
8.75
9.11
9.61
10.16
10.66
10.96
10.99
10.76
10.3
9.6
8.62
7.33
5.71
3.9
2.08
0.4
-1.06
-2.31
-3.4
-4.38
-5.19
-5.81
-6.2
-6.45
-6.67
-7.04
-7.68
-8.62
-9.88
-11.41
-13.11
-14.78
-16.13
-16.79
-16.41
-14.83
-12.18
-8.82
-5.3
-2.1
0.52
2.5
3.97
5.09
5.96
6.59
6.99
7.16
7.17
7.13
7.14
7.22
7.34
7.4
7.32
7.07
6.69
6.3
6.01
5.92
6.01
6.2
6.34
6.3
5.99
5.37
4.48
3.36
2.1
0.76
-0.56
-1.78
-2.9
-3.9
-4.87
-5.86
-6.89
-8.0
-9.18
-10.41
-11.66
-12.89
-14.04
-15.08
-16.0
-16.91
-17.91
-19.14
-20.65
-22.38
-24.17
-25.76
-26.86
-27.25
-26.78
-25.35
-22.92
-19.52
-15.18
-10.05
-4.41
1.29
6.56
11.04
14.52
17.12
19.11
20.8
22.4
23.96
25.36
26.56
27.55
28.51
29.64
31.08
32.8
34.56
36.02
36.84
36.83
36.01
34.58
32.8
30.92
29.07
27.26
25.46
23.64
21.79
19.98
18.21
16.48
14.65
12.62
10.29
7.69
4.94
2.21
-0.35
-2.69
-4.88
-7.02
-9.14
-11.21
-13.15
-14.88
-16.43
-17.9
-19.42
-21.1
-22.99
-25.04
-27.2
-29.32
-31.23
-32.61
-33.13
-32.5
-30.59
-27.55
-23.75
-19.68
-15.81
-12.41
-9.62
-7.35
-5.47
-3.8
-2.18
-0.55
1.08
2.64
4.03
5.15
6.02
6.74
7.46
8.3
9.3
10.41
11.54
12.63
13.64
14.52
15.19
15.49
15.32
14.63
13.57
12.36
11.22
10.26
9.44
8.62
7.65
6.45
5.04
3.49
1.87
0.25
-1.4
-3.05
-4.67
-6.2
-7.56
-8.79
-9.96
-11.25
-12.84
-14.83
-17.14
-19.5
-21.44
-22.48
-22.24
-20.61
-17.78
-14.19
-10.36
-6.72
-3.52
-0.84
1.37
3.16
4.58
5.65
6.42
6.92
7.23
7.39
7.41
7.31
7.12
6.87
6.63
6.48
6.49
6.72
7.2
7.92
8.79
9.64
10.25
10.43
10.12
9.35
8.3
7.18
6.19
5.39
4.78
4.25
3.68
3.03
2.3
1.57
0.88
0.22
-0.46
-1.25
-2.22
-3.38
-4.72
-6.23
-7.83
-9.5
-11.11
-12.54
-13.67
-14.44
-14.89
-15.23
-15.71
-16.57
-17.88
-19.43
-20.77
-21.34
-20.68
-18.6
-15.3
-11.29
-7.16
-3.4
-0.23
2.3
4.3
5.89
7.17
8.26
9.26
10.25
11.22
12.05
12.58
12.65
12.27
11.62
10.94
10.51
10.43
10.66
11.03
11.35
11.49
11.43
11.2
10.82
10.3
9.62
8.78
7.83
6.85
5.93
5.17
4.55
4.06
3.64
3.2
2.66
1.98
1.18
0.32
-0.53
-1.35
-2.18
-3.17
-4.43
-5.98
-7.65
-9.22
-10.46
-11.29
-11.82
-12.33
-13.07
-14.21
-15.77
-17.58
-19.39
-20.85
-21.63
-21.42
-20.1
-17.74
-14.64
-11.22
-7.9
-4.99
-2.61
-0.72
0.76
1.94
2.88
3.6
4.13
4.52
4.86
5.19
5.56
5.92
6.22
6.39
6.45
6.43
6.4
6.4
6.43
6.5
6.59
6.73
6.89
7.03
7.03
6.78
6.22
5.43
4.53
3.69
2.97
2.33
1.57
0.54
-0.81
-2.39
-4.0
-5.4
-6.44
-7.1
-7.5
-7.85
-8.36
-9.23
-10.54
-12.22
-14.08
-15.8
-17.03
-17.46
-16.92
-15.4
-13.09
-10.22
-7.05
-3.8
-0.65
2.2
4.59
6.4
7.59
8.27
8.66
9.0
9.47
10.12
10.87
11.57
12.1
12.36
12.37
12.16
11.8
11.35
10.87
10.4
9.93
9.49
9.08
8.68
8.27
7.82
7.35
6.93
6.66
6.56
6.59
6.58
6.24
5.37
3.93
2.07
0.14
-1.52
-2.7
-3.44
-3.96
-4.54
-5.39
-6.48
-7.67
-8.74
-9.56
-10.09
-10.46
-10.82
-11.31
-12.02
-13.0
-14.27
-15.84
-17.65
-19.48
-20.94
-21.59
-21.04
-19.12
-15.99
-12.08
-7.9
-3.93
-0.45
2.42
4.71
6.46
7.77
8.71
9.41
9.95
10.4
10.73
10.93
10.99
10.99
11.06
11.25
11.54
11.82
11.94
11.88
11.71
11.58
11.59
11.72
11.8
11.64
11.09
10.17
9.04
7.94
7.03
6.36
5.82
5.24
4.47
3.46
2.34
1.26
0.38
-0.33
-0.99
-1.81
-2.89
-4.17
-5.53
-6.75
-7.78
-8.65
-9.53
-10.59
-11.88
-13.39
-15.05
-16.79
-18.58
-20.32
-21.82
-22.75
-22.72
-21.41
-18.8
-15.13
-10.96
-6.91
-3.52
-1.02
0.67
1.82
2.8
3.84
5.04
6.28
7.38
8.16
8.56
8.65
8.61
8.6
8.74
9.02
9.39
9.75
10.05
10.3
10.5
10.64
10.66
10.46
9.99
9.23
8.23
7.12
5.99
