27.03
25.03
23.08
20.92
18.34
15.22
11.65
7.85
4.14
0.78
-2.15
-4.77
-7.34
-10.15
-13.38
-17.02
-20.9
-24.76
-28.42
-31.83
-35.1
-38.52
-42.53
-47.58
-53.97
-61.49
-69.26
-75.71
-78.9
-77.21
-69.92
-57.65
-42.21
-26.03
-11.34
0.49
9.08
14.91
18.8
21.54
23.63
25.35
26.89
28.38
29.92
31.53
33.06
34.25
34.86
34.82
34.28
33.65
33.37
33.82
35.07
36.88
38.79
40.29
41.01
40.85
39.94
38.56
36.99
35.4
33.78
32.02
29.96
27.56
24.81
21.86
18.83
15.81
12.83
9.83
6.83
3.86
1.04
-1.54
-3.87
-6.07
-8.39
-11.1
-14.37
-18.26
-22.61
-27.13
-31.5
-35.42
-38.78
-41.67
-44.42
-47.52
-51.56
-57.04
-64.07
-72.13
-79.95
-85.67
-87.39
-83.75
-74.58
-60.96
-44.94
-28.79
-14.35
-2.64
6.19
12.51
16.89
19.89
22.02
23.71
25.38
27.26
29.34
31.38
32.98
33.82
33.79
33.1
32.17
31.54
31.59
32.55
34.3
36.48
38.62
40.19
40.8
40.32
38.92
36.97
34.91
33.01
31.31
29.6
27.63
25.23
22.52
19.8
17.38
15.45
13.93
12.49
10.75
8.41
5.42
2.01
-1.42
-4.47
-6.93
-8.93
-10.89
-13.27
-16.43
-20.32
-24.59
-28.72
-32.33
-35.34
-37.95
-40.58
-43.71
-47.79
-53.24
-60.2
-68.38
-76.73
-83.53
-86.7
-84.57
-76.49
-63.26
-46.85
-29.78
-14.3
-1.8
7.34
13.47
17.33
19.72
21.34
22.74
24.33
26.33
28.69
31.12
33.15
34.37
34.58
33.96
32.95
32.16
32.05
32.83
34.35
36.18
37.84
38.92
39.24
38.81
37.8
36.41
34.74
32.83
30.67
28.23
25.56
22.75
19.96
17.34
14.95
12.78
10.74
8.67
6.4
3.88
1.16
-1.57
-4.1
-6.29
-8.22
-10.13
-12.31
-14.98
-18.12
-21.51
-24.88
-28.03
-30.92
-33.72
-36.69
-40.13
-44.39
-49.78
-56.44
-64.13
-71.93
-78.33
-81.47
-79.83
-72.81
-61.07
-46.33
-30.87
-16.69
-5.09
3.58
9.64
13.73
16.54
18.58
20.27
21.91
23.71
25.72
27.82
29.71
31.01
31.43
30.92
29.74
28.4
27.51
27.49
28.43
30.0
31.63
32.74
32.96
32.25
30.87
29.15
27.35
25.52
23.53
21.15
18.24
14.83
11.12
7.41
3.98
0.94
-1.77
-4.42
-7.27
-10.52
-14.16
-18.01
-21.83
-25.4
-28.64
-31.64
-34.59
-37.79
-41.58
-46.35
-52.37
-59.56
-67.2
-73.83
-77.58
-76.68
-70.28
-58.81
-43.98
-28.21
-13.79
-2.22
6.09
11.55
14.98
17.21
18.79
20.14
21.54
23.23
25.31
27.61
29.72
31.17
31.61
31.08
29.99
29.0
28.69
29.38
30.97
32.98
34.8
35.84
35.75
34.46
32.21
29.42
26.5
23.75
21.22
18.77
16.16
13.17
9.74
6.02
2.25
-1.3
-4.53
-7.52
-10.47
-13.61
-17.06
-20.7
-24.23
-27.25
-29.46
-30.83
-31.63
-32.46
-34.0
-36.95
-41.68
-48.11
-55.53
-62.55
-67.42
-68.42
-64.5
-55.63
-42.97
-28.48
-14.33
-2.23
6.93
13.12
16.93
19.16
20.58
21.71
22.83
23.95
24.97
25.68
25.93
25.68
24.98
24.05
23.13
22.49
22.28
22.59
23.35
24.38
25.46
26.34
26.84
26.83
26.25
25.1
23.39
21.22
18.72
16.11
13.55
11.09
8.64
5.98
2.91
-0.69
-4.7
-8.87
-12.89
-16.5
-19.62
-22.32
-24.73
-27.14
-29.87
-33.32
-37.92
-43.82
-50.65
-57.33
-62.2
-63.5
-59.96
-51.46
-39.03
-24.65
-10.48
1.84
11.48
18.46
23.3
26.61
28.89
30.49
31.66
32.61
33.46
34.18
34.63
34.64
34.13
33.21
32.22
31.57
31.65
32.57
34.24
36.26
38.13
39.35
39.6
38.85
37.25
35.1
32.67
30.04
27.18
23.95
20.35
16.5
12.7
9.27
6.31
3.66
0.92
-2.38
-6.49
-11.36
-16.58
-21.65
-26.13
-29.88
-33.12
-36.26
-39.84
-44.36
-50.14
-57.24
-65.19
-72.92
-78.83
-81.16
-78.55
-70.59
-58.07
-42.79
-26.95
-12.49
-0.58
8.47
15.01
19.7
23.2
26.04
28.56
31.01
33.49
35.9
38.05
39.61
40.33
40.15
39.26
38.11
37.19
36.93
37.49
38.76
40.4
41.93
42.96
43.2
42.56
41.1
38.96
36.33
33.42
30.46
27.65
25.1
22.84
20.69
18.44
15.88
12.92
9.65
6.28
3.06
0.15
-2.45
-4.88
-7.38
-10.18
-13.46
-17.22
-21.37
-25.62
-29.68
-33.3
-36.44
-39.26
-42.17
-45.73
-50.47
-56.65
-63.97
-71.37
-77.18
-79.47
-76.73
-68.5
-55.59
-39.9
-23.81
-9.35
2.29
10.9
16.94
21.2
24.33
26.85
29.07
31.18
33.29
35.35
37.16
38.47
39.05
38.82
37.97
36.86
35.94
35.63
36.15
37.44
39.18
40.89
42.08
42.44
41.85
40.41
38.34
35.85
33.09
30.2
27.3
24.54
22.05
19.88
17.87
15.81
13.43
10.62
7.46
4.19
1.09
-1.63
-3.97
-6.06
-8.12
-10.38
-12.98
-15.94
-19.15
-22.48
-25.74
-28.8
-31.62
-34.3
-37.11
-40.43
-44.74
-50.3
-56.87
-63.57
-68.86
-70.95
-68.43
-60.87
-49.05
-34.75
-20.11
-6.92
3.82
11.95
17.76
21.71
24.14
25.37
25.73
25.64
25.49
25.52
25.73
25.92
25.85
25.39
24.63
23.85
23.44
23.72
24.81
26.63
28.79
30.79
32.06
32.25
31.27
29.37
27.03
24.73
22.79
21.19
19.69
17.93
15.63
12.72
9.37
5.87
2.52
-0.52
-3.25
-5.81
-8.37
-11.12
-14.11
-17.33
-20.64
-23.86
-26.82
-29.43
-31.75
-34.0
-36.55
-39.85
-44.34
-50.16
-56.89
-63.47
-68.22
-69.4
-65.76
-57.19
-44.79
-30.56
-16.65
-4.68
4.66
11.47
16.32
19.76
22.19
23.87
25.06
26.07
27.17
28.44
29.7
30.6
30.83
30.28
29.2
28.05
27.34
27.44
28.4
29.99
31.73
33.15
33.89
33.84
33.08
31.8
30.2
28.36
26.31
24.03
21.56
18.98
16.45
14.1
12.02
10.22
8.62
7.11
5.51
3.71
1.62
-0.76
-3.28
-5.78
-8.12
-10.35
-12.59
-15.04
-17.81
-20.85
-23.97
-26.95
-29.65
-32.04
-34.29
-36.66
-39.51
-43.24
-48.15
-54.13
-60.49
-65.9
-68.73
-67.51
-61.64
-51.61
-38.91
-25.47
-13.01
-2.55
5.58
11.57
15.79
18.56
20.2
21.04
21.5
22.01
22.84
23.97
25.13
25.92
26.01
25.37
24.21
23.0
22.19
22.07
22.73
24.01
25.6
27.16
28.37
29.03
29.0
28.29
26.95
25.13
23.0
20.73
18.46
16.27
14.2
12.28
10.55
9.01
7.63
6.34
4.98
3.43
1.63
-0.37
-2.45
-4.44
-6.27
-7.95
-9.59
-11.36
-13.4
-15.79
-18.47
-21.34
-24.25
-27.04
-29.63
-31.99
-34.29
-36.82
-40.04
-44.31
-49.7
-55.67
-61.04
-64.2
-63.7
-58.82
-49.91
-38.27
-25.73
-13.93
-3.91
3.96
9.8
13.87
16.44
17.74
18.1
17.95
17.7
17.65
17.79
17.92
17.8
17.31
16.52
15.66
15.04
14.9
15.37
16.54
18.34
20.54
22.75
24.5
25.39
25.21
24.09
22.35
20.35
18.37
16.48
14.59
12.52
10.17
7.54
4.79
2.11
-0.29
-2.28
-3.84
-5.12
-6.34
-7.79
-9.7
-12.14
-15.07
-18.32
-21.65
-24.86
-27.79
-30.43
-32.91
-35.57
-38.82
-43.02
-48.19
-53.77
-58.61
-61.25
-60.34
-55.25
-46.27
-34.65
-22.1
-10.28
-0.29
7.41
12.96
16.77
19.28
20.85
21.77
22.28
22.62
22.99
23.46
24.03
24.52
24.72
24.46
23.75
22.77
21.92
21.58
21.97
23.0
24.32
25.48
26.17
26.27
25.93
25.34
24.59
23.65
22.38
20.72
18.71
16.58
14.57
12.82
11.31
9.83
8.17
6.21
3.93
1.44
-1.09
-3.52
-5.77
-7.88
-9.95
-12.15
-14.61
-17.39
-20.42
-23.57
-26.68
-29.66
-32.49
-35.27
-38.18
-41.43
-45.3
-50.03
-55.61
-61.64
-67.12
-70.59
-70.61
-66.22
-57.44
-45.35
-31.74
-18.54
-7.18
1.71
8.19
12.74
15.85
17.93
19.26
20.08
20.71
21.41
22.34
23.43
24.44
25.08
25.18
24.83
24.34
24.11
24.44
25.41
26.82
28.34
29.61
30.39
30.6
30.34
29.77
29.05
28.23
27.27
26.08
24.58
22.73
20.61
18.37
16.17
14.13
12.27
10.49
8.6
6.47
4.07
1.56
-0.83
-2.85
-4.45
-5.77
-7.17
-9.05
-11.69
-15.13
-19.12
-23.2
-26.96
-30.1
-32.6
-34.72
-36.9
-39.69
-43.56
-48.75
-55.08
-61.81
-67.7
-71.23
-71.06
-66.47
-57.69
-45.84
-32.59
-19.65
-8.31
0.76
7.47
12.09
15.07
16.87
17.99
18.87
19.92
21.34
23.07
24.84
26.25
26.97
26.86
26.09
25.06
24.26
24.08
24.71
26.07
27.84
29.61
30.96
31.6
31.4
30.42
28.86
26.98
24.99
23.03
21.14
19.24
17.25
15.04
12.56
9.81
6.93
4.12
1.55
-0.65
-2.57
-4.43
-6.52
-9.06
-12.11
-15.52
-18.98
-22.18
-24.94
-27.31
-29.57
-32.08
-35.3
-39.56
-44.99
-51.24
-57.45
-62.29
-64.27
-62.2
-55.7
-45.4
-32.78
-19.67
-7.7
2.13
9.59
14.98
18.87
21.75
23.94
25.6
26.79
27.56
27.92
27.91
27.56
26.94
26.18
25.47
25.09
25.28
26.2
27.86
30.05
32.41
34.44
35.75
36.08
35.45
34.04
32.17
30.07
27.93
25.82
23.77
21.76
19.75
17.64
15.3
12.62
9.63
6.48
3.48
0.84
-1.36
-3.31
-5.34
-7.81
-10.9
-14.6
-18.65
-22.74
-26.6
-30.06
-33.08
-35.79
-38.47
-41.56
-45.56
-50.89
-57.55
-64.98
-71.93
-76.71
-77.65
-73.7
-64.84
-52.17
-37.52
-22.92
-9.96
0.48
8.28
13.82
17.69
20.48
22.7
24.71
26.8
29.06
31.37
33.44
34.95
35.6
35.37
34.47
33.34
32.49
32.34
33.05
34.49
36.26
37.89
38.96
39.28
38.82
37.66
35.92
33.69
31.01
27.97
24.75
21.59
18.77
16.4
14.43
12.58
10.49
7.86
4.57
0.82
-2.98
-6.42
-9.28
-11.66
-14.01
-16.9
-20.78
-25.79
-31.65
-37.72
-43.24
-47.62
-50.63
-52.49
-53.81
-55.53
-58.7
-64.32
-72.98
-84.49
-97.51
-109.63
-117.82
-119.41
-113.07
-99.41
-80.68
-59.9
-39.66
-21.38
-5.31
8.89
21.45
32.22
40.77
46.88
50.83
53.28
54.9
55.95
56.13
54.85
51.73
46.9
41.1
35.44
31.01
28.5
28.07
29.28
31.34
33.4
34.8
35.31
35.17
34.89
34.99
35.65
36.66
37.41
37.27
35.82
33.02
29.27
25.16
21.23
17.83
15.03
12.71
10.61
8.54
6.38
4.18
2.11
0.31
-1.14
-2.43
-3.98
-6.37
-10.22
-15.97
-23.72
-33.09
-43.11
-52.33
-59.08
-61.86
-59.88
-53.34
-43.45
-32.06
-21.07
-11.83
-4.84
0.11
3.69
6.5
8.93
11.07
12.88
14.36
15.59
16.73
17.85
18.97
19.99
20.84
21.61
22.5
23.74
25.49
27.73
30.23
32.64
34.63
35.92
36.4
36.09
35.11
33.66
31.92
30.0
27.91
25.51
22.66
19.26
15.36
11.22
7.2
3.63
0.66
-1.75
-3.8
-5.71
-7.63
-9.58
-11.52
-13.36
-15.06
-16.57
-17.79
-18.54
-18.6
-17.86
-16.47
-14.82
-13.42
-12.52
-11.86
-10.58
-7.53
-1.64
7.52
19.57
33.35
47.23
59.43
68.32
72.57
71.33
64.52
52.95
38.38
23.2
9.88
0.28
-4.81
-5.74
-3.75
-0.43
2.75
4.8
5.32
4.49
2.85
1.15
0.04
-0.07
0.88
2.65
4.79
6.84
8.46
9.47
9.84
9.65
9.0
8.0
6.74
5.28
3.67
1.94
0.1
-1.86
-3.94
-6.17
-8.58
-11.15
-13.9
-16.78
-19.78
-22.87
-26.04
-29.21
-32.33
-35.33
-38.2
-40.98
-43.78
-46.85
-50.47
-54.99
-60.6
-67.17
-74.08
-80.12
-83.79
-83.67
-78.96
-69.85
-57.48
-43.58
-29.93
-17.83
-7.92
-0.14
5.91
10.76
14.82
18.38
21.62
24.63
27.43
29.94
32.01
33.45
34.14
34.07
33.49
32.8
32.51
33.08
34.66
37.02
39.61
41.77
42.94
42.98
42.03
40.48
38.64
36.66
34.48
31.98
29.09
25.84
22.34
18.72
15.08
11.49
8.05
4.83
1.87
-0.92
-3.72
-6.72
-10.04
-13.66
-17.43
-21.21
-24.88
-28.46
-32.07
-35.96
-40.45
-45.89
-52.33
-59.4
-66.07
-70.92
-72.45
-69.67
-62.55
-51.99
-39.54
-26.84
-15.15
-5.16
2.98
9.4
14.37
18.2
21.19
23.67
25.89
28.04
30.1
31.92
33.27
33.99
34.07
33.73
33.32
33.22
33.79
35.15
37.17
39.5
41.6
43.0
43.4
42.76
41.27
39.23
36.92
34.51
32.03
29.38
26.43
23.1
19.37
15.35
11.26
7.34
3.77
0.61
-2.22
-4.94
-7.85
-11.19
-15.08
-19.48
-24.15
-28.8
-33.11
-36.95
-40.33
-43.57
-47.13
-51.55
-57.32
-64.53
-72.71
-80.71
-86.85
-89.35
-86.93
-79.23
-67.05
-52.07
-36.36
-21.74
-9.37
0.36
7.62
12.93
16.84
19.9
22.6
25.32
28.29
31.5
34.69
37.48
39.5
40.58
40.79
40.49
40.15
40.2
40.9
42.26
44.04
45.83
47.23
47.97
47.92
47.15
45.77
43.95
41.75
39.27
36.57
33.79
31.05
28.42
25.88
23.27
20.37
16.99
13.16
9.06
5.02
1.36
-1.78
-4.51
-7.14
-10.04
-13.48
-17.49
-21.89
-26.42
-30.85
-35.07
-39.12
-43.14
-47.33
-51.91
-57.18
-63.39
-70.61
-78.42
-85.73
-90.91
-92.22
-88.41
-79.32
-65.92
-50.07
-33.85
-18.91
-6.19
4.13
12.28
18.63
23.53
27.33
30.41
33.14
35.79
38.38
40.67
42.3
42.93
42.56
41.48
40.28
39.57
39.82
41.15
43.3
45.8
48.07
49.69
50.4
50.17
49.1
47.34
45.08
42.48
39.7
36.88
34.14
31.55
29.12
26.75
24.32
21.64
18.61
15.2
11.52
7.8
4.24
1.01
-1.89
-4.64
-7.55
-10.89
-14.81
-19.24
-23.91
-28.49
-32.69
-36.41
-39.77
-43.05
-46.66
-51.04
-56.59
-63.44
-71.27
-79.09
-85.35
-88.19
-86.16
-78.68
-66.43
-51.07
-34.73
-19.29
-5.98
4.78
13.07
19.2
23.5
26.32
28.09
29.31
30.46
31.75
33.11
34.18
34.61
34.25
33.31
32.31
31.79
32.1
33.34
35.27
37.55
39.81
41.73
43.07
43.64
43.32
42.07
39.99
37.3
34.27
31.16
28.09
25.02
21.8
18.27
14.34
10.1
5.81
1.8
-1.68
-4.65
-7.4
-10.34
-13.85
-17.99
-22.55
-27.1
-31.29
-34.94
-38.17
-41.29
-44.67
-48.68
-53.67
-59.85
-67.13
-74.88
-81.85
-86.34
-86.61
-81.61
-71.33
-56.95
-40.39
-23.78
-8.81
3.51
12.9
19.55
23.96
26.77
28.65
30.21
31.89
33.85
35.88
37.61
38.68
38.87
38.3
37.29
36.35
35.92
36.3
37.5
39.33
41.45
43.47
45.09
46.1
46.38
45.84
44.46
42.25
39.34
36.02
32.63
29.5
26.83
24.5
22.22
19.66
16.57
12.94
8.99
5.04
1.32
-2.1
-5.37
-8.71
-12.34
-16.33
-20.62
-25.06
-29.44
-33.61
-37.47
-41.02
-44.39
-47.88
-51.92
-57.02
-63.52
-71.36
-79.8
-87.4
-92.26
-92.6
-87.39
-76.76
-62.04
-45.35
-28.86
-14.13
-1.92
7.83
15.56
21.72
26.63
30.5
33.63
36.37
39.06
41.85
44.59
46.93
48.54
49.27
49.35
49.27
49.58
50.73
52.83
55.74
59.05
62.31
65.11
67.13
68.21
68.3
67.45
65.79
63.51
60.83
57.88
54.71
51.16
46.88
41.48
34.58
26.07
16.2
5.58
-4.88
-14.27
-21.9
-27.62
-31.72
-34.89
-37.87
-41.16
-44.89
-48.83
-52.57
-55.77
-58.37
-60.59
-62.9
-65.82
-69.86
-75.34
-82.33
-90.43
-98.61
-105.32
-108.63
-106.96
-99.52
-86.73
-70.12
-51.86
-34.03
-18.19
-5.1
5.16
12.86
18.49
22.6
25.75
28.46
31.07
33.64
35.93
37.62
38.44
38.39
37.71
36.8
36.05
35.83
36.33
37.63
39.62
41.94
44.07
45.43
45.64
44.61
42.6
40.05
37.37
34.7
31.94
28.84
25.18
20.97
16.44
11.97
7.91
4.44
1.5
-1.17
-3.92
-7.07
-10.77
-15.01
-19.63
-24.35
-28.95
-33.24
-37.14
-40.67
-43.97
-47.4
-51.42
-56.55
-63.09
-70.78
-78.6
-84.84
-87.54
-85.13
-77.05
-64.05
-47.95
-31.04
-15.36
-2.19
8.06
15.67
21.21
25.24
28.22
30.49
32.29
33.79
35.05
36.02
36.57
36.57
36.01
35.02
33.91
33.06
32.86
33.56
35.15
37.37
39.68
41.49
42.27
41.81
40.18
37.76
35.0
32.32
29.92
27.72
25.5
22.97
19.96
16.5
12.83
9.26
6.1
3.45
1.14
-1.19
-3.96
-7.48
-11.81
-16.74
-21.91
-26.96
-31.73
-36.27
-40.92
-46.15
-52.49
-60.34
-69.74
-80.14
-90.29
-98.31
-102.17
-100.29
-92.17
-78.64
-61.6
-43.48
-26.45
-11.95
-0.5
8.06
14.32
18.99
22.76
26.2
29.7
33.37
37.03
40.28
42.66
43.89
43.9
42.95
41.5
40.12
39.3
39.36
40.32
41.93
43.68
45.09
45.75
45.51
44.44
42.76
40.68
38.32
35.78
33.11
30.39
27.66
24.95
22.25
19.48
16.59
13.51
10.27
6.95
3.63
0.42
-2.64
-5.59
-8.57
-11.8
-15.52
-19.83
-24.69
-29.83
-34.89
-39.55
-43.7
-47.49
-51.3
-55.69
-61.21
-68.18
-76.39
-84.98
-92.35
-96.57
-95.88
-89.34
-77.28
-61.27
-43.58
-26.56
-11.85
-0.16
8.7
15.38
20.6
24.88
28.55
31.82
34.86
37.76
40.51
42.91
44.63
45.4
45.17
44.18
42.97
42.13
42.13
43.13
44.91
47.0
48.81
49.87
49.94
49.11
47.68
46.03
44.39
42.76
40.93
38.63
35.75
32.38
28.8
25.27
21.95
18.81
15.73
12.61
9.46
6.41
3.57
1.04
-1.22
-3.36
-5.59
-8.15
-11.2
-14.79
-18.81
-23.05
-27.25
-31.2
-34.85
-38.25
-41.6
-45.18
-49.33
-54.41
-60.66
-67.88
-75.28
-81.4
-84.45
-82.93
-76.23
-64.94
-50.67
-35.48
-21.21
-8.97
0.95
8.74
14.76
19.29
22.49
24.57
25.89
26.92
28.04
29.39
30.77
31.81
32.17
31.82
31.06
30.43
30.51
31.61
33.64
36.16
38.53
40.15
40.73
40.26
39.04
37.42
35.75
34.14
32.53
30.72
28.45
25.51
21.88
17.68
13.23
8.92
5.07
1.87
-0.76
-3.05
-5.39
-8.1
-11.4
-15.3
-19.62
-24.04
-28.21
-31.85
-34.95
-37.73
-40.71
-44.5
-49.64
-56.24
-63.79
-71.06
-76.35
-77.96
-74.74
-66.59
-54.49
-40.25
-25.9
-13.05
-2.56
5.5
11.53
16.07
19.54
22.27
24.54
26.67
28.92
31.37
33.83
35.92
37.16
37.34
36.6
35.41
34.41
34.08
34.61
35.82
37.34
38.72
39.65
39.95
39.55
38.52
36.95
35.01
32.88
30.73
28.68
26.75
24.82
22.76
20.48
18.02
15.47
12.96
10.56
8.25
5.95
3.59
1.15
-1.28
-3.65
-5.9
-8.05
-10.23
-12.59
-15.26
-18.31
-21.76
-25.51
-29.38
-33.17
-36.66
-39.78
-42.65
-45.61
-49.19
-53.87
-59.91
-66.98
-74.08
-79.63
-81.92
-79.69
-72.61
-61.46
-47.88
-33.77
-20.77
-9.85
-1.31
5.06
9.67
12.98
15.4
17.35
19.25
21.38
23.76
26.2
28.29
29.65
30.13
29.84
29.13
28.48
28.28
28.72
29.78
31.27
32.88
34.32
35.31
35.71
35.44
34.58
33.3
31.77
30.12
28.35
26.43
24.3
21.95
19.45
16.9
14.38
11.92
9.48
7.01
4.49
1.98
-0.44
-2.63
-4.55
-6.21
-7.76
-9.44
-11.5
-14.09
-17.26
-20.85
-24.58
-28.16
-31.35
-34.13
-36.62
-39.15
-42.12
-45.95
-50.94
-56.99
-63.5
-69.24
-72.67
-72.35
-67.46
-58.26
-46.03
-32.64
-19.96
-9.26
-1.05
4.86
8.99
11.87
13.94
15.55
17.05
18.75
20.8
23.08
25.19
26.6
26.98
26.35
25.17
24.12
23.83
24.6
26.3
28.55
30.8
32.64
33.79
34.18
33.85
32.94
31.63
30.06
28.33
26.4
24.17
21.6
18.78
15.96
13.44
11.42
9.85
8.48
6.98
5.16
3.03
0.8
-1.3
-3.18
-4.92
-6.77
-9.02
-11.81
-15.1
-18.68
-22.26
-25.56
-28.42
-30.79
-32.8
-34.72
-36.91
-39.85
-43.88
-49.11
-55.19
-61.18
-65.67
-67.15
-64.5
-57.47
-46.84
-34.21
-21.44
-10.09
-0.98
5.81
10.69
14.24
16.88
18.86
20.35
21.51
22.54
23.56
24.56
25.37
25.8
25.73
25.24
24.62
24.21
24.31
25.02
26.26
27.73
29.1
30.05
30.34
29.93
28.93
27.53
25.98
24.42
22.93
21.46
19.9
18.15
16.18
14.05
11.88
9.84
8.02
6.38
4.8
3.08
1.1
-1.08
-3.29
-5.32
-7.05
-8.58
-10.2
-12.26
-15.02
-18.48
-22.38
-26.34
-30.0
-33.16
-35.9
-38.42
-41.02
-43.98
-47.56
-51.92
-57.04
-62.55
-67.59
-70.91
-71.16
-67.4
-59.51
-48.36
-35.55
-22.89
-11.82
-3.09
3.31
7.8
10.96
13.3
15.16
16.81
18.46
20.24
22.23
24.3
26.23
27.68
28.42
28.38
27.77
27.02
26.66
27.06
28.3
30.08
31.87
33.13
33.59
33.27
32.43
31.42
30.44
29.45
28.29
26.76
24.79
22.49
20.06
17.73
15.65
13.87
12.31
10.82
9.2
7.29
5.01
2.45
-0.22
-2.77
-5.07
-7.16
-9.24
-11.61
-14.48
-17.89
-21.69
-25.58
-29.27
-32.59
-35.52
-38.28
-41.23
-44.87
-49.62
-55.68
-62.72
-69.82
-75.52
-78.24
-76.73
-70.59
-60.43
-47.69
-34.19
-21.56
-10.88
-2.55
3.51
7.73
10.61
12.66
14.34
16.06
18.05
20.33
22.69
24.77
26.27
26.98
26.99
26.63
26.32
26.44
27.27
28.88
31.12
33.7
36.19
38.1
39.12
39.09
38.14
36.56
34.67
32.68
30.6
28.37
25.95
23.44
21.02
18.88
17.09
15.53
13.95
12.07
9.7
6.89
3.83
0.82
-1.87
-4.11
-5.98
-7.74
-9.69
-12.07
-14.92
-18.09
-21.35
-24.5
-27.47
-30.35
-33.34
-36.65
-40.54
-45.29
-50.99
-57.42
-63.88
-69.14
-71.77
-70.56
-65.0
-55.53
-43.39
-30.25
-17.64
-6.63
2.3
9.17
14.25
17.89
20.43
22.18
23.45
24.47
25.43
26.36
27.23
27.94
28.39
28.61
28.71
28.91
29.43
30.47
32.04
33.97
35.96
37.63
38.69
38.99
38.57
37.59
36.25
34.68
32.94
31.01
28.85
26.48
23.97
21.43
18.97
16.61
14.3
11.91
9.33
6.47
3.42
0.33
-2.6
-5.26
-7.66
-9.99
-12.53
-15.49
-18.91
-22.64
-26.39
-29.89
-33.02
-35.93
-38.92
-42.41
-46.8
-52.33
-58.95
-66.2
-73.13
-78.41
-80.58
-78.59
-72.09
-61.67
-48.72
-34.99
-22.02
-10.85
-1.84
5.12
10.41
14.46
17.67
20.38
22.92
25.57
28.36
31.19
33.74
35.66
36.76
37.09
36.96
36.76
36.85
37.42
38.46
39.82
41.27
42.59
