7.98
11.59
14.43
16.75
18.67
20.37
22.11
24.07
26.27
28.4
30.07
31.0
31.17
30.94
30.8
31.2
32.29
33.98
35.93
37.78
39.27
40.21
40.55
40.22
39.19
37.45
35.08
32.28
29.32
26.41
23.69
21.07
18.35
15.32
11.87
8.12
4.27
0.59
-2.75
-5.77
-8.64
-11.62
-14.94
-18.68
-22.84
-27.28
-31.81
-36.22
-40.37
-44.2
-47.81
-51.51
-55.8
-61.18
-67.95
-75.84
-83.86
-90.38
-93.61
-92.15
-85.59
-74.69
-61.06
-46.7
-33.29
-21.85
-12.71
-5.67
-0.3
3.87
7.32
10.47
13.74
17.38
21.45
25.76
29.92
33.54
36.35
38.32
39.69
40.9
42.49
44.92
48.42
52.86
57.78
62.5
66.42
69.32
71.56
74.03
77.81
83.73
91.91
101.6
111.45
119.98
126.03
129.0
128.8
125.5
119.13
109.65
97.11
81.79
64.3
45.36
25.54
5.12
-15.78
-36.88
-57.5
-76.63
-93.25
-106.86
-117.62
-126.13
-132.8
-137.37
-138.75
-135.59
-127.07
-113.56
-96.76
-79.06
-62.63
-48.71
-37.4
-28.07
-20.01
-12.91
-6.91
-2.25
1.0
3.19
4.89
6.65
8.7
10.96
13.1
14.91
16.35
17.69
19.27
21.4
24.14
27.31
30.49
33.16
34.88
35.41
34.82
33.36
31.44
29.4
27.4
25.42
23.3
20.86
17.99
14.73
11.27
7.85
4.65
1.75
-0.99
-3.82
-7.06
-10.86
-15.19
-19.82
-24.4
-28.63
-32.36
-35.69
-38.92
-42.51
-46.99
-52.79
-59.92
-67.78
-74.99
-79.65
-79.9
-74.63
-64.01
-49.55
-33.58
-18.46
-5.8
3.77
10.53
15.19
18.48
20.93
22.89
24.67
26.55
28.75
31.28
33.85
36.05
37.43
37.79
37.26
36.28
35.42
35.18
35.81
37.19
38.91
40.4
41.19
41.08
40.15
38.76
37.26
35.87
34.57
33.13
31.33
29.05
26.41
23.68
21.16
18.99
17.11
15.28
13.2
10.67
7.72
4.54
1.41
-1.42
-3.9
-6.18
-8.51
-11.18
-14.35
-17.99
-21.92
-25.84
-29.5
-32.81
-35.88
-38.99
-42.56
-47.02
-52.7
-59.66
-67.51
-75.3
-81.46
-84.18
-81.91
-74.02
-61.19
-45.3
-28.85
-14.16
-2.61
5.52
10.88
14.45
17.07
19.27
21.26
23.14
25.01
26.93
28.85
30.6
31.91
32.58
32.61
32.21
31.73
31.57
32.02
33.12
34.71
36.41
37.81
38.53
38.4
37.46
35.93
34.11
32.26
30.54
28.95
27.4
25.75
23.82
21.46
18.62
15.35
11.89
8.52
5.48
2.91
0.71
-1.38
-3.7
-6.49
-9.86
-13.69
-17.74
-21.71
-25.37
-28.59
-31.41
-34.05
-36.91
-40.45
-45.09
-50.9
-57.44
-63.63
-67.91
-68.69
-64.92
-56.48
-44.37
-30.38
-16.51
-4.4
5.08
11.84
16.31
19.08
20.73
21.62
22.08
22.3
22.49
22.68
22.77
22.57
21.9
20.78
19.47
18.48
18.38
19.51
21.85
24.95
28.11
30.6
31.94
32.04
31.15
29.69
28.03
26.36
24.62
22.62
20.13
17.03
13.38
9.4
5.41
1.69
-1.58
-4.45
-7.09
-9.79
-12.78
-16.13
-19.78
-23.54
-27.21
-30.64
-33.87
-37.08
-40.61
-44.91
-50.38
-57.13
-64.65
-71.76
-76.72
-77.76
-73.7
-64.52
-51.44
-36.53
-22.0
-9.53
0.13
7.17
12.29
16.28
19.73
22.96
26.07
29.1
32.05
34.85
37.28
39.09
40.01
39.93
39.05
37.82
36.84
36.59
37.27
38.68
40.33
41.66
42.28
42.09
41.26
40.06
38.73
37.31
35.72
33.81
31.53
28.92
26.11
23.26
20.52
17.93
15.5
13.14
10.72
8.14
5.35
2.4
-0.55
-3.32
-5.8
-8.04
-10.25
-12.68
-15.54
-18.89
-22.63
-26.55
-30.43
-34.09
-37.49
-40.76
-44.22
-48.39
-53.77
-60.63
-68.63
-76.63
-82.81
-85.12
-82.06
-73.28
-59.81
-43.75
-27.58
-13.32
-2.1
6.0
11.56
15.42
18.24
20.5
22.46
24.33
26.29
28.45
30.75
32.93
34.58
35.37
35.25
34.53
33.76
33.53
34.2
35.71
37.65
39.43
40.54
40.78
40.2
39.04
37.54
35.82
33.94
31.9
29.77
27.64
25.55
23.52
21.41
19.1
16.5
13.6
10.54
7.47
4.57
1.91
-0.56
-2.98
-5.53
-8.39
-11.62
-15.22
-19.05
-22.92
-26.59
-29.85
-32.61
-34.92
-37.03
-39.39
-42.55
-47.03
-53.04
-60.19
-67.43
-73.09
-75.36
-72.94
-65.47
-53.86
-39.99
-26.04
-13.91
-4.69
1.4
4.8
6.2
6.31
5.73
4.96
4.36
4.13
4.22
4.31
3.99
2.9
0.92
-1.72
-4.57
-7.09
-8.86
-9.71
-9.77
-9.4
-9.12
-9.31
-10.18
-11.56
-12.96
-13.71
-13.14
-10.87
-7.02
-2.24
2.49
6.13
8.06
8.29
7.45
6.59
6.69
8.31
11.35
15.12
18.57
20.74
20.97
19.12
15.51
10.73
5.48
0.27
-4.68
-9.49
-14.47
-19.94
-25.9
-31.82
-36.71
-39.31
-38.6
-34.15
-26.36
-16.33
-5.47
4.95
14.14
21.87
28.34
33.9
38.93
43.71
48.4
52.99
57.29
60.91
63.32
64.06
62.9
60.03
56.05
51.89
48.51
46.68
46.73
48.39
50.89
53.2
54.28
53.4
50.26
45.0
38.02
29.92
21.42
13.28
6.21
0.64
-3.4
-6.33
-8.67
-10.66
-11.95
-11.6
-8.67
-2.85
5.03
13.17
19.43
22.28
21.37
17.59
12.52
7.63
3.78
1.03
-0.98
-2.68
-4.27
-5.81
-7.4
-9.37
-12.24
-16.47
-22.0
-28.07
-33.25
-35.83
-34.6
-29.26
-20.65
-10.46
-0.61
7.44
13.05
16.4
18.16
19.05
19.6
20.0
20.25
20.27
20.02
19.46
18.61
17.46
16.07
14.55
13.09
11.86
11.03
10.67
10.77
11.2
11.71
11.98
11.72
10.75
9.16
7.17
5.12
3.18
1.32
-0.72
-3.29
-6.57
-10.51
-14.74
-18.74
-22.07
-24.49
-26.07
-27.1
-27.98
-29.05
-30.53
-32.42
-34.62
-36.94
-39.24
-41.42
-43.5
-45.62
-47.99
-50.89
-54.52
-58.9
-63.68
-68.08
-70.98
-71.18
-67.82
-60.7
-50.41
-38.21
-25.62
-14.0
-4.2
3.56
9.55
14.27
18.13
21.35
23.98
26.05
27.59
28.72
29.53
29.99
29.99
29.37
28.16
26.61
25.12
24.14
23.89
24.31
25.01
25.58
25.66
25.09
23.95
22.45
20.83
19.32
18.05
17.03
16.17
15.23
13.96
12.1
9.53
6.33
2.77
-0.79
-3.98
-6.64
-8.82
-10.77
-12.84
-15.26
-18.06
-21.08
-24.06
-26.8
-29.27
-31.64
-34.15
-37.14
-40.91
-45.66
-51.33
-57.48
-63.16
-67.06
-67.82
-64.57
-57.3
-46.93
-35.01
-23.17
-12.56
-3.71
3.51
9.51
14.66
19.19
23.14
26.56
29.55
32.31
35.05
37.88
40.79
43.64
46.27
48.56
50.57
52.53
54.79
57.78
61.75
66.67
72.11
77.27
81.18
82.99
82.3
79.2
74.25
68.18
61.64
54.97
48.16
40.9
32.74
23.16
11.77
-1.5
-16.28
-31.62
-46.18
-58.55
-67.69
-73.25
-75.59
-75.57
-74.17
-72.13
-69.9
-67.65
-65.51
-63.7
-62.56
-62.38
-63.36
-65.37
-67.96
-70.35
-71.56
-70.62
-66.78
-59.83
-50.2
-38.87
-27.13
-16.18
-6.82
0.65
6.36
10.66
13.87
16.19
17.78
18.76
19.36
19.82
20.27
20.68
20.88
20.58
19.67
18.24
16.62
15.24
14.42
14.3
14.68
15.22
15.52
15.39
14.82
13.97
13.03
12.06
11.01
9.75
8.19
6.35
4.38
2.47
0.75
-0.77
-2.17
-3.6
-5.16
-6.89
-8.69
-10.42
-11.94
-13.17
-14.14
-15.0
-16.0
-17.41
-19.46
-22.31
-25.96
-30.15
-34.37
-37.73
-39.2
-37.84
-33.2
-25.55
-15.88
-5.64
3.76
11.35
16.82
20.43
22.66
24.0
24.75
25.02
24.87
24.41
23.75
23.01
22.23
21.32
20.2
18.86
17.41
16.04
14.95
14.27
14.05
14.2
14.54
14.88
15.05
14.96
14.59
14.01
13.25
12.4
11.45
10.42
9.28
7.98
6.51
4.82
2.89
0.76
-1.47
-3.67
-5.71
-7.56
-9.27
-10.96
-12.69
-14.5
-16.28
-17.92
-19.37
-20.67
-22.01
-23.67
-25.92
-28.95
-32.69
-36.74
-40.34
-42.45
-42.08
-38.59
-31.99
-23.04
-13.02
-3.35
4.86
11.0
15.04
17.29
18.27
18.43
18.15
17.75
17.47
17.45
17.67
17.98
18.11
17.86
17.11
15.94
14.57
13.27
12.27
11.71
11.66
12.04
12.71
13.48
14.09
14.33
14.02
13.16
11.85
10.37
9.01
7.92
7.12
6.33
5.28
3.74
1.71
-0.56
-2.72
-4.47
-5.74
-6.67
-7.54
-8.62
-10.1
-11.99
-14.16
-16.41
-18.52
-20.33
-21.84
-23.2
-24.72
-26.79
-29.7
-33.45
-37.61
-41.37
-43.64
-43.46
-40.23
-34.01
-25.49
-15.86
-6.39
1.77
7.98
12.1
14.4
15.35
15.44
15.03
14.35
13.53
12.65
11.8
11.01
10.28
9.53
8.62
7.43
5.94
4.23
2.53
1.15
0.33
0.17
0.55
1.1
1.37
1.05
0.1
-1.18
-2.27
-2.63
-1.88
0.09
3.13
6.85
10.72
14.13
16.55
17.66
17.43
16.1
14.02
11.45
8.49
5.1
1.29
-2.77
-6.76
-10.3
-13.23
-15.57
-17.65
-19.87
-22.63
-26.17
-30.47
-35.16
-39.44
-42.16
-42.12
-38.51
-31.26
-21.2
-9.79
1.35
10.93
18.32
23.43
26.62
28.35
29.05
29.1
28.84
28.66
28.99
30.26
32.8
36.8
42.17
48.32
54.17
58.16
58.68
54.61
45.76
33.13
18.63
4.49
-7.43
-16.11
-21.47
-24.08
-24.64
-23.68
-21.52
-18.47
-15.05
-11.99
-10.07
-9.72
-10.84
-12.89
-15.07
-16.76
-17.65
-17.78
-17.33
-16.43
-15.15
-13.57
-11.97
-10.86
-10.96
-12.92
-17.15
-23.6
-31.7
-40.36
-48.18
-53.69
-55.72
-53.72
-47.95
-39.46
-29.73
-20.26
-12.18
-6.05
-1.94
0.35
1.07
0.32
-1.83
-5.29
-9.8
-14.88
-19.88
-24.1
-26.89
-27.74
-26.31
-22.56
-16.72
-9.34
-1.18
6.91
14.27
20.59
25.83
30.19
33.8
36.7
38.8
39.99
40.31
39.89
38.85
37.1
34.33
30.07
23.98
16.05
6.67
-3.45
-13.53
-23.0
-31.63
-39.51
-46.95
-54.39
-62.29
-71.0
-80.56
-90.49
-99.68
-106.59
-109.54
-107.37
-99.79
-87.53
-72.07
-55.14
-38.25
-22.39
-8.11
4.33
14.76
22.99
28.9
32.55
34.29
34.67
34.29
33.54
32.51
30.98
28.71
25.7
22.29
19.11
16.82
15.8
16.0
17.04
18.34
19.4
19.86
19.57
18.5
16.69
14.29
11.54
8.74
6.15
3.86
1.83
-0.17
-2.42
-5.1
-8.2
-11.54
-14.88
-18.01
-20.99
-24.13
-27.98
-32.99
-39.32
-46.52
-53.54
-58.84
-60.86
-58.46
-51.31
-40.04
-26.01
-10.97
3.47
16.14
26.44
34.25
39.73
43.18
45.02
45.69
45.6
45.06
44.18
42.81
40.74
37.84
34.25
30.44
27.01
24.53
23.28
23.21
24.04
25.37
26.83
28.11
28.96
29.2
28.67
27.23
24.83
21.51
17.4
12.75
7.86
3.03
-1.58
-5.94
-10.23
-14.8
-20.07
-26.41
-33.98
-42.53
-51.25
-58.79
-63.54
-64.01
-59.33
-49.62
-35.96
-20.12
-3.99
10.83
23.37
33.27
40.61
45.75
49.05
50.87
51.49
51.09
49.8
47.74
45.05
41.99
38.89
36.08
33.85
32.34
31.58
31.47
31.83
32.4
32.9
33.04
32.63
31.61
30.0
27.91
25.45
22.63
19.41
15.75
11.59
6.99
2.05
-3.14
-8.51
-14.02
-19.66
-25.48
-31.63
-38.38
-45.95
-54.27
-62.77
-70.28
-75.22
-76.14
-72.23
-63.67
-51.63
-37.81
-23.88
-11.03
0.18
9.64
17.41
23.51
27.95
30.84
32.5
33.45
34.27
35.32
36.64
37.98
38.98
39.4
39.28
38.95
38.89
39.52
41.07
43.45
46.39
49.48
52.33
54.61
56.11
56.74
56.5
55.52
53.99
52.11
50.05
47.87
45.47
42.67
39.29
35.26
30.68
25.78
20.85
16.09
11.54
7.07
2.4
-2.8
-8.89
-16.05
-24.25
-32.99
-41.32
-47.87
-51.3
-50.62
-45.67
-37.17
-26.49
-15.26
-4.85
3.91
10.75
15.81
19.41
21.84
23.34
24.13
24.45
24.52
24.53
24.55
24.53
24.37
24.0
23.47
22.99
22.8
23.1
23.91
25.07
26.26
27.16
27.54
27.28
26.39
24.98
23.19
21.17
19.04
16.91
14.81
12.75
10.73
8.75
6.79
4.8
2.73
0.51
-1.89
-4.42
-7.0
-9.53
-11.98
-14.4
-16.95
-19.8
-23.16
-27.12
-31.63
-36.33
-40.56
-43.44
-44.09
-41.93
-36.92
-29.64
-21.14
-12.55
-4.8
1.55
6.35
9.7
11.81
12.92
13.29
13.21
12.99
12.8
12.66
12.45
12.0
11.25
10.3
9.42
8.87
8.85
9.43
10.47
11.75
12.97
13.86
14.17
13.82
12.85
11.47
9.95
8.48
7.11
5.69
4.01
1.89
-0.67
-3.56
-6.55
-9.44
-12.06
-14.36
-16.38
-18.27
-20.29
-22.69
-25.68
-29.23
-32.97
-36.19
-37.98
-37.56
-34.55
-29.12
-21.97
-14.04
-6.29
0.56
6.1
10.22
12.99
14.53
15.0
14.59
13.56
12.24
10.99
10.07
9.61
9.6
9.94
10.52
11.27
12.21
13.33
14.6
15.92
17.08
17.84
18.06
17.66
16.74
15.5
14.14
12.78
11.43
10.02
8.41
6.5
4.32
1.95
-0.44
-2.65
-4.55
-6.08
-7.25
-8.23
-9.2
-10.37
-11.83
-13.52
-15.33
-17.11
-18.77
-20.33
-21.8
-23.22
-24.64
-26.19
-28.02
-30.26
-32.83
-35.26
-36.82
-36.73
-34.5
-30.15
-24.24
-17.61
-11.12
-5.35
-0.62
3.04
5.67
7.37
8.25
8.45
8.19
7.7
7.21
6.87
6.77
6.94
7.28
7.69
8.07
8.39
8.69
9.08
9.67
10.51
11.52
12.57
13.55
14.35
14.98
15.46
15.81
15.96
15.81
15.28
14.33
13.05
11.57
10.05
8.6
7.25
5.97
4.7
3.42
2.12
0.88
-0.3
-1.41
-2.55
-3.83
-5.34
-7.11
-9.09
-11.16
-13.2
-15.11
-16.89
-18.67
-20.66
-23.03
-25.9
-29.13
-32.35
-34.97
-36.35
-36.0
-33.69
-29.61
-24.18
-18.03
-11.81
-6.04
-1.16
2.62
5.22
6.77
7.53
7.85
8.06
8.34
8.72
9.06
9.2
9.06
8.64
8.03
7.36
6.71
6.16
5.77
5.64
5.89
6.55
7.54
8.61
9.44
9.77
9.5
8.72
7.61
6.38
5.16
3.94
2.71
1.41
0.05
-1.37
-2.84
-4.4
-6.1
-7.95
-9.84
-11.6
-13.07
-14.23
-15.26
-16.47
-18.2
-20.62
-23.62
-26.76
-29.39
-30.8
-30.45
-28.1
-23.9
-18.36
-12.24
-6.39
-1.54
1.89
3.81
4.5
4.38
3.97
3.64
3.6
3.88
4.37
4.9
5.35
5.66
5.86
6.02
6.21
6.49
6.86
7.31
7.86
8.54
9.36
10.34
11.41
12.43
13.24
13.68
13.66
13.17
12.26
11.06
9.67
8.14
6.48
4.64
2.64
0.53
-1.57
-3.59
-5.52
-7.43
-9.47
-11.7
-14.13
-16.66
-19.16
-21.56
-23.94
-26.48
-29.41
-32.82
-36.55
-40.12
-42.81
-43.87
-42.75
-39.35
-34.0
-27.4
-20.37
-13.64
-7.71
-2.83
0.96
3.75
5.69
7.03
8.04
8.9
9.66
10.23
10.45
10.25
9.68
9.01
8.56
8.62
9.31
10.67
12.6
15.02
17.75
20.56
23.05
24.79
25.45
24.93
23.52
21.66
19.82
18.24
16.86
15.38
13.43
10.8
7.57
3.99
0.41
-2.95
-6.0
-8.85
-11.67
-14.66
-17.98
-21.77
-26.07
-30.67
-35.07
-38.44
-39.86
-38.57
-34.32
-27.48
-19.0
-10.04
-1.69
5.29
10.6
14.29
16.68
18.17
19.19
20.07
20.99
21.94
22.82
23.46
23.74
23.61
23.15
22.55
22.0
21.66
21.65
21.97
22.54
23.24
23.87
24.2
24.02
23.16
21.62
19.54
17.18
14.79
12.53
10.44
8.41
6.28
3.92
1.28
-1.6
-4.6
-7.63
-10.62
-13.53
-16.35
-19.04
-21.51
-23.62
-25.27
-26.5
-27.53
-28.78
-30.73
-33.7
-37.61
-41.9
-45.61
-47.65
-47.12
-43.66
-37.47
-29.3
-20.16
-11.06
-2.79
4.14
9.52
13.33
15.72
16.96
17.38
17.38
17.3
17.36
17.65
18.11
18.63
19.1
19.49
19.89
20.43
21.21
22.25
23.4
24.47
25.21
25.49
25.32
24.79
24.05
23.25
22.44
21.59
20.63
19.53
18.2
16.65
14.88
12.94
10.87
8.77
6.71
4.77
3.01
1.45
0.05
-1.27
-2.54
-3.83
-5.2
-6.68
-8.32
-10.13
-12.1
-14.19
-16.4
-18.77
-21.42
-24.42
-27.64
-30.72
-33.01
-33.71
-32.23
-28.35
-22.37
-15.05
-7.37
-0.24
5.68
10.05
12.87
14.39
14.99
15.08
14.98
14.94
15.0
15.13
15.25
15.28
15.21
15.03
14.76
14.41
14.03
13.74
13.67
13.96
14.63
15.55
16.42
16.94
16.9
16.27
15.23
14.05
13.0
12.21
11.66
11.16
10.53
9.61
8.39
6.98
5.54
4.22
3.04
1.96
0.88
-0.25
-1.42
-2.59
-3.72
-4.86
-6.11
-7.55
-9.18
-10.91
-12.64
-14.36
-16.21
-18.44
-21.18
-24.27
-27.16
-29.06
-29.23
-27.28
-23.31
-17.84
-11.6
-5.23
0.83
6.38
11.31
15.58
19.14
22.0
24.29
26.18
27.87
29.47
30.97
32.22
33.03
33.22
32.7
31.48
29.81
28.08
26.74
26.15
26.45
27.39
28.45
28.96
28.42
26.61
23.68
19.97
15.88
11.74
7.75
4.14
1.17
-0.84
-1.76
-1.75
-1.45
-1.68
-3.17
-6.23
-10.59
-15.5
-20.15
-23.94
-26.66
-28.53
-29.98
-31.47
-33.19
-34.99
-36.32
-36.39
-34.43
-29.98
-23.19
-14.74
-5.76
2.59
9.4
14.2
16.93
17.84
17.29
15.64
13.13
9.97
6.27
2.18
-2.18
-6.69
-11.2
-15.57
-19.61
-23.09
-25.67
-26.97
-26.59
-24.13
-19.29
-11.87
-1.77
10.98
26.09
42.89
60.18
76.47
90.3
100.75
107.69
111.77
113.9
114.82
114.65
112.98
109.3
103.49
96.12
88.35
81.44
76.43
73.82
73.55
75.02
77.1
78.21
76.54
70.57
59.64
44.15
25.53
5.57
-14.21
-32.9
-50.09
-65.42
-78.26
-87.78
-93.43
-95.37
-94.66
-92.89
-91.42
-90.84
-90.88
-90.7
-89.52
-86.99
-83.32
-78.94
-74.33
-69.74
-65.3
-61.12
-57.31
-53.99
-51.17
-48.65
-46.14
-43.36
-40.21
-36.71
-33.06
-29.42
-25.86
-22.41
-19.03
-15.75
-12.6
-9.57
-6.65
-3.87
-1.42
0.35
1.02
0.33
-1.6
-4.25
-6.9
-8.92
-10.06
-10.49
-10.62
-10.81
-11.25
-11.91
-12.73
-13.7
-14.93
-16.5
-18.37
-20.3
-22.06
-23.41
-24.29
-24.87
-25.44
-26.4
-28.12
-30.74
-34.03
-37.34
-39.67
-40.02
-37.79
-32.97
-26.23
-18.58
-11.1
-4.54
0.78
4.83
7.78
9.77
10.94
11.49
11.68
11.78
12.02
12.48
13.04
13.5
13.6
13.26
12.56
11.79
11.3
11.31
11.83
12.64
13.44
13.96
14.03
13.66
12.95
12.02
10.99
9.92
8.86
7.78
6.62
5.28
3.71
1.93
0.06
-1.71
-3.29
-4.7
-6.12
-7.74
-9.67
-11.82
-14.02
-16.01
-17.71
-19.13
-20.45
-21.89
-23.66
-25.92
-28.73
-32.06
-35.57
-38.64
-40.39
-39.97
-36.9
-31.27
-23.8
-15.57
-7.66
-0.81
4.65
8.71
11.5
13.19
13.94
13.98
13.64
13.25
13.07
13.16
13.4
13.57
13.5
13.18
12.77
12.48
12.5
12.97
13.81
14.86
15.87
16.59
16.86
16.65
16.03
15.07
13.87
12.46
10.9
9.2
7.43
5.64
3.87
2.12
0.39
-1.31
-2.94
-4.48
-5.95
-7.44
-9.12
-11.13
-13.52
-16.19
-18.92
-21.45
-23.63
-25.55
-27.52
-29.99
-33.31
-37.48
-42.0
-45.89
-47.96
-47.25
-43.38
-36.75
-28.34
-19.4
-11.01
-3.83
1.95
6.4
9.73
12.11
13.73
14.76
15.46
16.04
16.65
17.29
17.9
18.36
18.64
18.79
18.88
19.06
19.34
19.75
20.24
20.78
21.31
21.76
22.07
22.16
22.01
21.59
20.97
20.21
19.31
18.29
17.12
15.81
14.43
13.05
11.75
10.5
9.23
7.8
6.16
4.34
2.53
0.88
-0.5
-1.66
-2.82
-4.21
-6.02
-8.28
-10.89
-13.65
-16.31
-18.72
-20.8
-22.66
-24.49
-26.58
-29.22
-32.54
-36.37
-40.18
-43.12
-44.24
-42.83
-38.65
-32.06
-23.93
-15.36
-7.36
-0.62
4.54
8.14
10.42
11.67
12.23
12.42
12.54
12.8
13.26
13.87
14.47
14.89
14.97
14.72
14.23
13.7
13.43
13.64
14.45
15.8
17.42
18.91
19.87
20.08
19.52
18.43
17.12
15.85
14.73
13.7
12.65
11.52
10.32
9.16
8.12
7.27
6.55
5.89
5.17
4.32
3.31
2.15
0.92
-0.27
-1.37
-2.41
-3.47
-4.75
-6.38
-8.4
-10.68
-12.98
-15.06
-16.74
-18.01
-18.97
-19.84
-20.89
-22.41
-24.67
-27.76
-31.42
-34.95
-37.35
-37.61
-35.12
-29.9
-22.69
-14.64
-6.92
