-35.24
-38.21
-41.47
-44.91
-48.15
-50.71
-51.83
-50.63
-46.37
-38.84
-28.51
-16.46
-4.21
6.85
15.85
22.36
26.47
28.5
28.81
27.79
25.86
23.47
21.22
19.7
19.3
20.01
21.49
23.25
24.87
26.1
27.01
27.81
28.59
29.32
29.61
29.01
27.19
24.04
19.79
14.94
10.13
5.96
2.79
0.57
-1.04
-2.67
-4.9
-7.93
-11.65
-15.6
-19.34
-22.67
-25.74
-28.94
-32.7
-37.28
-42.59
-48.33
-53.92
-58.57
-61.2
-60.75
-56.38
-47.92
-36.12
-22.43
-8.72
3.5
13.36
20.74
26.05
29.84
32.42
33.72
33.71
32.3
29.91
27.12
24.62
22.9
22.16
22.37
23.35
25.02
27.31
30.21
33.51
36.8
39.55
41.1
41.05
39.28
36.15
32.17
27.98
24.06
20.48
17.08
13.52
9.43
4.74
-0.29
-5.29
-9.8
-13.45
-16.17
-18.2
-20.03
-22.27
-25.38
-29.51
-34.27
-38.68
-41.22
-40.38
-35.01
-24.91
-11.01
4.89
20.7
34.75
46.14
54.87
61.25
65.68
68.11
68.31
66.18
61.96
56.24
49.59
42.29
34.04
24.38
13.04
0.3
-12.78
-24.75
-34.19
-40.31
-43.06
-43.17
-41.77
-39.96
-38.68
-38.31
-38.81
-39.8
-40.94
-41.98
-43.02
-44.26
-45.89
-48.04
-50.53
-53.04
-55.09
-56.26
-56.3
-55.25
-53.39
-51.19
-49.27
-48.07
-47.86
-48.5
-49.36
-49.38
-47.45
-42.61
-34.42
-23.31
-10.17
3.63
16.74
28.13
37.19
43.66
47.66
49.4
49.16
47.35
44.36
40.64
36.73
33.11
30.16
28.25
27.5
27.96
29.52
31.95
34.89
37.97
40.63
42.36
42.86
41.98
39.82
36.75
33.06
28.96
24.64
20.07
15.3
10.5
5.88
1.65
-1.96
-4.94
-7.41
-9.52
-11.61
-13.97
-16.99
-20.94
-25.74
-30.83
-35.21
-37.54
-36.63
-31.87
-23.44
-12.31
-0.04
11.85
22.17
30.19
35.86
39.43
41.35
41.98
41.67
40.56
38.88
36.77
34.43
32.07
29.9
27.95
26.18
24.64
23.31
22.35
21.8
21.63
21.49
20.93
19.39
16.53
12.44
7.48
2.23
-2.84
-7.49
-11.79
-16.04
-20.56
-25.46
-30.63
-35.86
-40.83
-45.29
-49.14
-52.36
-55.16
-57.83
-60.74
-64.25
-68.46
-72.94
-76.61
-77.97
-75.52
-68.33
-56.49
-41.21
-24.37
-8.03
6.17
17.35
25.25
30.1
32.36
32.42
30.73
27.72
23.94
19.91
16.05
12.56
9.58
7.2
5.45
4.52
4.52
5.48
7.22
9.36
11.48
13.21
14.23
14.37
13.53
11.67
8.86
5.49
2.05
-0.98
-3.21
-4.66
-5.78
-7.18
-9.36
-12.58
-16.55
-20.73
-24.63
-27.87
-30.44
-32.62
-34.87
-37.56
-40.91
-44.98
-49.42
-53.6
-56.51
-57.03
-54.18
-47.48
-37.2
-24.23
-10.06
3.88
16.35
26.6
34.34
39.58
42.51
43.29
42.15
39.27
35.16
30.32
25.49
21.31
18.19
16.3
15.54
15.75
16.69
18.28
20.31
22.5
24.62
26.19
26.91
26.67
25.5
23.58
21.24
18.77
16.37
14.12
11.86
9.32
6.26
2.44
-2.2
-7.42
-12.89
-18.26
-23.24
-27.79
-31.99
-36.05
-40.22
-44.73
-49.49
-54.27
-58.44
-61.03
-61.0
-57.43
-49.96
-38.94
-25.46
-10.9
3.19
15.74
26.24
34.54
40.76
45.0
47.42
48.09
47.36
45.46
42.81
39.87
37.01
34.58
32.89
32.17
32.47
33.83
35.95
38.47
41.09
43.46
45.33
46.5
46.83
46.31
45.21
43.81
42.34
41.02
39.82
38.64
37.37
35.95
34.36
32.7
30.9
28.82
26.2
22.64
17.75
11.16
2.65
-7.77
-19.68
-32.39
-44.96
-56.41
-65.94
-72.83
-76.46
-76.39
-72.53
-65.17
-55.1
-43.49
-31.68
-20.91
-12.02
-5.28
-0.72
1.91
2.85
2.31
0.48
-2.26
-5.59
-8.96
-11.84
-13.82
-14.67
-14.39
-13.18
-11.46
-9.51
-7.67
-6.14
-5.06
-4.47
-4.4
-4.83
-5.65
-6.74
-7.86
-8.81
-9.49
-10.08
-10.77
-11.79
-13.16
-14.82
-16.49
-17.84
-18.7
-19.0
-18.86
-18.63
-18.73
-19.53
-21.37
-24.23
-27.71
-31.06
-33.1
-32.63
-28.87
-21.69
-11.73
-0.26
11.18
21.26
29.12
34.62
38.0
39.7
40.13
39.49
37.85
35.3
31.96
28.17
24.37
21.05
18.6
17.3
17.29
18.55
21.03
24.51
28.62
32.91
36.71
39.43
40.66
40.3
38.59
36.02
33.1
30.09
27.0
23.55
19.51
14.78
9.35
3.42
-2.75
-9.2
-16.05
-23.64
-32.45
-42.82
-54.9
-68.46
-82.67
-96.13
-107.1
-113.82
-114.96
-110.16
-100.01
-86.03
-70.22
-54.55
-40.64
-29.41
-21.11
-15.23
-10.95
-7.27
-3.29
1.39
6.78
12.37
17.53
21.75
24.89
27.08
28.69
30.09
31.49
33.02
34.61
36.17
37.62
38.93
39.91
40.34
39.94
38.43
35.87
32.58
29.11
25.99
23.5
21.59
19.8
17.61
14.48
10.24
5.1
-0.57
-6.32
-11.83
-16.94
-21.68
-26.19
-30.77
-35.63
-40.9
-46.52
-52.11
-56.96
-60.07
-60.38
-57.13
-50.13
-39.82
-27.25
-13.81
-0.91
10.25
18.9
24.79
28.14
29.5
29.57
28.94
27.99
26.97
26.07
25.38
25.11
25.47
26.53
28.25
30.44
32.82
35.27
37.6
39.57
40.83
40.91
39.41
36.27
31.74
26.39
20.93
15.79
11.01
6.24
0.9
-5.42
-12.78
-20.81
-28.79
-35.88
-41.55
-45.54
-47.9
-48.95
-49.1
-48.74
-48.29
-48.15
-48.61
-49.73
-51.15
-51.93
-50.95
-47.01
-39.46
-28.4
-14.88
-0.48
13.11
24.56
33.23
39.0
42.22
43.37
42.94
41.26
38.62
35.36
31.81
28.45
25.68
23.79
22.84
22.55
22.45
21.99
20.82
18.87
16.29
13.31
10.02
6.48
2.72
-1.12
-4.78
-8.03
-10.76
-13.04
-15.19
-17.66
-20.64
-24.14
-28.03
-32.09
-36.18
-40.28
-44.36
-48.49
-52.85
-57.59
-62.71
-68.04
-72.79
-75.86
-75.83
-71.54
-62.5
-49.25
-33.21
-16.31
-0.46
13.04
23.51
30.91
35.53
37.7
37.75
36.0
32.84
28.87
24.88
21.43
18.92
17.42
16.69
16.53
16.72
17.28
18.27
19.8
21.66
23.47
24.79
25.15
24.45
22.69
20.2
17.28
14.29
11.49
8.99
6.78
4.64
2.24
-0.89
-5.0
-10.08
-15.8
-21.59
-26.9
-31.49
-35.49
-39.3
-43.52
-48.55
-54.44
-60.7
-66.37
-70.15
-70.73
-67.15
-59.04
-47.01
-32.34
-16.71
-1.76
11.3
21.86
29.87
35.59
39.38
41.48
42.11
41.48
39.94
37.94
35.95
34.42
33.68
33.83
34.76
36.27
38.11
40.01
41.79
43.24
44.17
44.36
43.57
41.52
38.13
33.45
27.77
21.7
15.86
10.82
6.78
3.64
0.9
-2.03
-5.68
-10.28
-15.71
-21.6
-27.37
-32.62
-37.09
-40.83
-44.22
-47.84
-52.18
-57.54
-63.67
-69.73
-74.4
-76.08
-73.43
-65.8
-53.5
-37.79
-20.66
-4.22
9.82
20.49
27.69
31.94
33.91
34.11
32.78
29.75
24.76
17.62
8.61
-1.34
-10.82
-18.12
-21.75
-20.77
-15.12
-5.55
6.65
19.91
32.92
44.48
53.65
59.79
62.54
62.01
58.91
54.25
49.0
43.89
39.01
33.89
27.93
20.63
12.02
2.58
-6.89
-15.7
-23.37
-29.83
-35.35
-40.45
-45.61
-50.91
-55.93
-59.62
-60.72
-58.01
-50.91
-39.71
-25.47
-9.87
5.36
18.88
29.74
37.63
42.61
44.89
44.8
42.88
39.71
35.91
32.21
29.11
27.0
26.08
26.38
27.86
30.5
34.03
37.84
41.15
43.03
42.79
40.16
35.4
29.15
22.37
15.87
10.35
6.26
3.7
2.57
2.5
2.99
3.55
3.69
3.01
1.19
-1.91
-6.36
-12.1
-18.84
-26.22
-33.56
-39.99
-44.41
-45.72
-43.0
-36.1
-25.7
-13.19
-0.38
11.17
20.42
27.15
31.66
34.53
36.17
36.94
37.05
36.62
35.86
34.86
33.78
32.69
31.73
31.03
30.76
31.04
31.78
32.82
33.8
34.4
34.29
33.23
31.05
27.64
23.13
17.78
12.02
6.24
0.7
-4.51
-9.41
-14.01
-18.28
-22.09
-25.34
-27.96
-30.14
-32.12
-34.15
-36.57
-39.54
-43.07
-46.79
-49.92
-51.3
-49.82
-44.62
-35.52
-23.14
-8.68
6.33
20.47
32.61
42.09
48.6
52.09
52.73
50.88
47.11
42.08
36.64
31.4
26.81
22.74
18.54
13.27
6.17
-2.78
-12.69
-21.82
-28.42
-31.09
-29.53
-24.44
-17.04
-8.84
-0.99
5.73
10.94
14.36
16.04
16.17
15.04
13.22
11.06
8.82
6.53
4.0
0.82
-3.54
-9.66
-18.19
-29.21
-42.32
-55.98
-67.95
-75.62
-76.89
-70.76
-57.81
-40.05
-20.1
-0.72
16.04
28.92
37.33
41.23
40.96
37.07
30.4
22.09
13.39
5.55
-0.24
-3.33
-3.47
-1.1
2.91
7.35
11.24
13.93
15.29
15.83
16.22
17.15
18.67
20.4
21.49
21.09
18.74
14.55
9.21
3.61
-1.48
-5.77
-9.38
-12.77
-16.4
-20.54
-25.31
-30.41
-35.27
-38.97
-40.46
-38.86
-33.81
-25.63
-15.22
-3.96
6.9
16.42
24.17
30.2
34.69
37.87
39.9
40.96
41.22
40.91
40.38
39.79
39.24
38.62
37.85
36.92
35.99
35.16
34.37
33.46
32.08
29.94
26.85
22.93
18.52
13.94
9.16
4.0
-1.76
-8.2
-15.19
-22.36
-28.97
-34.19
-37.93
-41.12
-45.17
-51.33
-60.14
-71.25
-83.33
-93.88
-99.86
-99.71
-94.14
-85.52
-76.63
-69.72
-66.03
-65.62
-66.63
-66.2
-63.02
-58.24
-54.54
-54.16
-57.8
-64.34
-71.3
-73.86
-66.17
-44.18
-7.39
41.87
99.74
161.9
224.19
272.81
292.13
277.25
238.34
190.6
143.86
100.83
60.92
23.76
-9.27
-35.74
-51.04
-52.08
-39.48
-17.68
6.37
24.88
31.25
21.15
-6.0
-45.88
-91.25
-131.28
-153.78
-151.85
-128.97
-95.54
-61.54
-31.28
-3.85
22.97
49.5
73.64
92.15
101.98
102.11
93.7
79.32
61.93
43.58
25.32
7.45
-8.55
-20.57
-26.72
-26.38
-20.92
-12.79
-5.29
-1.22
-1.92
-7.23
-16.37
-28.2
-41.52
-55.44
-68.92
-82.28
-96.54
-112.25
-128.73
-144.45
-157.57
-166.57
-170.94
-170.6
-167.63
-164.41
-160.73
-153.2
-136.52
-106.12
-59.97
0.71
72.47
147.29
214.26
263.02
285.88
279.05
243.24
184.08
105.52
26.67
-29.28
-51.41
-44.91
-22.16
6.73
36.28
64.53
91.05
116.05
137.45
152.03
159.71
160.89
157.44
150.9
141.65
128.96
112.16
89.23
58.14
21.73
-15.63
-49.24
-75.76
-93.65
-103.21
-105.46
-102.86
-98.32
-93.72
-89.87
-86.35
-82.5
-77.81
-72.31
-66.16
-60.01
-54.69
-50.61
-47.84
-45.87
-44.06
-41.85
-39.12
-35.97
-32.81
-30.27
-28.7
-28.28
-28.71
-29.44
-29.8
-29.59
-29.0
-28.47
-28.63
-29.98
-32.7
-36.39
-40.32
-43.54
-45.84
-47.71
-50.11
-54.13
-60.49
-68.95
-78.25
-87.57
-93.95
-95.78
-92.69
-85.34
-74.94
-63.07
-51.3
-41.34
-34.55
-30.88
-28.67
-24.49
-14.51
3.27
27.48
53.43
74.69
85.96
85.7
75.99
61.48
46.78
34.58
25.14
17.56
10.74
4.32
-0.96
-4.56
-6.43
-7.37
-8.57
-11.36
-15.82
-21.7
-28.51
-35.32
-41.31
-45.78
-48.45
-49.47
-49.45
-48.1
-45.96
-44.02
-42.85
-42.37
-41.51
-38.78
-32.9
-23.24
-8.09
13.06
37.24
62.43
87.86
114.1
142.2
173.23
207.99
248.66
294.65
342.17
384.56
413.78
423.32
410.04
376.33
315.84
235.65
152.13
82.93
37.45
14.63
8.38
11.76
20.1
30.49
43.93
56.78
64.86
65.46
58.42
46.21
30.71
13.06
-6.91
-31.02
-62.46
-102.23
-148.59
-197.26
-241.5
-276.41
-298.13
-292.77
-252.24
-179.58
-87.86
6.98
87.88
155.58
212.14
258.94
296.62
322.75
335.18
333.97
321.56
301.67
278.68
254.09
228.16
200.59
169.52
133.74
93.29
49.58
4.5
-39.92
-83.78
-127.85
-172.98
-221.07
-273.33
-329.72
-388.33
-445.33
-495.27
-533.3
-555.99
-562.29
-554.91
-538.59
-518.62
-499.03
-481.58
-466.21
-452.32
-439.49
-427.77
-417.92
-410.46
-405.23
-401.54
-398.38
-394.96
-390.54
-384.13
-373.87
-357.37
-332.28
-297.5
-254.02
-204.8
-154.16
-106.18
-63.92
-28.64
-0.33
21.68
38.15
49.6
56.73
60.37
61.93
62.94
64.84
68.56
74.36
82.04
91.18
101.62
113.24
126.74
142.31
159.41
176.87
194.88
215.09
238.86
265.67
291.27
308.7
309.5
286.68
237.0
162.99
71.66
-28.33
-128.26
-219.93
-293.84
-341.55
-358.22
-345.71
-309.84
-259.71
-205.22
-154.45
-111.64
-72.98
-33.86
7.06
43.51
72.99
95.66
114.0
130.08
145.37
169.24
207.38
257.7
304.0
340.23
366.13
386.26
403.28
418.7
446.69
496.09
564.41
627.16
676.3
713.09
746.79
783.18
825.08
890.49
989.22
1115.48
1233.66
1328.59
1396.23
1444.01
1475.1
1375.83
1091.14
651.45
258.98
-44.32
-262.82
-439.94
-581.79
-689.76
-766.01
-797.14
-776.86
-712.11
-637.82
-567.2
-502.17
-430.5
-346.19
-250.22
-135.64
-2.28
140.52
263.5
355.49
376.45
312.83
176.42
1.94
-165.3
-297.27
-387.9
-454.11
-506.28
-549.89
-579.68
-593.09
-592.31
-578.86
-557.74
-533.05
-512.16
-495.51
-480.45
-458.02
-422.39
-373.17
-312.45
-244.7
-177.28
-118.3
-71.77
-38.74
-15.13
2.84
16.51
25.78
30.26
30.13
26.6
21.05
14.46
8.72
8.29
10.53
12.39
11.68
6.84
-2.58
-16.4
-33.93
-53.79
-74.52
-95.52
-115.76
-133.81
-148.79
-160.15
-167.91
-172.39
-173.94
-172.38
-166.85
-159.27
-148.97
-135.03
-116.69
-93.83
-66.88
-36.55
-3.47
31.9
69.68
110.6
154.52
200.32
245.99
289.23
327.86
360.95
388.94
413.63
438.03
464.98
496.79
534.53
577.06
619.9
655.67
675.7
672.68
643.82
591.83
524.11
450.13
378.21
312.76
254.68
203.22
157.68
118.34
85.85
60.06
39.42
21.22
0.98
-24.46
-55.3
-88.67
-120.12
-145.98
-164.48
-176.22
-183.56
-193.14
-210.45
-236.88
-268.98
-301.06
-328.58
-349.46
-364.13
-374.5
-388.44
-412.21
-447.4
-490.24
-534.59
-574.77
-605.64
-622.52
-621.98
-611.24
-600.83
-599.89
-612.72
-638.97
-675.62
-717.66
-759.64
-752.29
-666.11
-505.94
-309.71
-119.6
41.32
169.07
268.87
346.78
407.63
447.76
464.4
460.49
445.18
429.28
419.63
419.22
425.56
434.39
435.95
422.55
392.15
349.05
300.52
251.66
207.39
169.96
140.11
114.34
89.22
63.98
40.83
23.17
12.54
8.57
9.28
12.57
15.25
14.76
10.84
2.64
-5.32
-9.67
-8.39
-0.71
13.52
33.39
56.81
82.1
107.85
133.34
157.26
178.4
195.81
209.1
218.63
224.26
226.37
225.52
222.39
216.98
208.74
196.47
177.93
156.75
133.93
110.19
86.23
62.88
40.73
20.25
1.88
-13.97
-26.91
-37.64
-46.7
-54.55
-61.49
-67.7
-73.36
-78.32
-82.28
-84.69
-85.63
-84.91
-82.22
-77.36
-70.17
-60.89
-49.88
-37.78
-25.33
-13.65
-3.74
3.92
9.19
12.47
14.31
15.4
16.24
17.08
17.82
18.19
18.07
17.4
16.36
14.94
12.93
9.68
4.17
-4.64
-17.45
-34.13
-53.89
-75.24
-96.81
-117.81
-138.39
-159.65
-182.99
-209.54
-239.34
-271.27
-303.37
-333.46
-360.1
-382.74
-402.16
-419.84
-438.06
-459.48
-486.55
-520.38
-559.32
-598.43
-629.94
-645.93
-641.06
-614.96
-572.37
-521.04
-468.74
-420.42
-377.76
-339.83
-305.29
-273.39
-244.41
-218.73
-195.95
-174.76
-153.34
-130.62
-106.52
-82.24
-59.54
-39.85
-23.69
-10.39
1.34
13.02
25.41
38.47
51.22
62.3
70.58
75.43
77.13
76.33
74.01
70.79
66.96
62.38
56.71
49.82
41.79
33.25
24.95
17.77
12.36
9.08
7.96
8.69
10.95
14.23
18.28
22.84
27.86
33.26
38.98
44.93
50.76
56.17
60.67
64.0
66.07
67.14
67.71
68.35
69.57
71.41
73.71
75.9
77.63
78.84
80.07
82.34
86.73
94.02
104.1
116.15
128.64
140.3
150.52
159.75
169.52
181.58
197.27
216.64
238.61
261.05
281.87
299.64
314.05
326.14
337.8
351.53
369.56
392.92
420.04
446.11
463.44
463.04
437.61
384.08
305.8
212.05
115.93
30.62
-34.23
-74.14
-90.01
-85.89
-67.27
-39.24
-6.52
26.41
55.29
76.58
88.92
93.97
97.05
105.23
124.64
156.96
197.71
236.96
262.68
265.33
241.12
193.48
131.18
65.15
5.18
-42.12
-73.53
-88.84
-89.74
-79.75
-63.79
-47.76
-36.97
-34.05
-37.76
-43.42
-45.82
-41.8
-32.46
-22.33
-16.38
-16.54
-19.6
-18.9
-8.04
14.52
44.13
71.85
89.15
91.78
80.74
60.57
35.98
10.19
-15.6
-40.98
-65.38
-87.96
-107.66
-123.66
-134.5
-138.13
-131.83
-113.85
-84.73
-48.24
-10.85
20.22
38.78
41.63
28.96
4.73
-24.18
-49.25
-62.11
-56.79
-30.77
13.79
70.9
131.6
186.05
225.59
244.55
241.14
217.11
176.94
126.14
70.51
15.76
-32.34
-67.88
-86.2
-85.32
-67.67
-39.51
-9.33
15.45
30.85
36.89
36.08
30.86
22.34
9.95
-6.6
-26.01
-45.21
-60.94
-71.83
-79.01
-85.56
-94.0
-104.73
-115.37
-122.21
-122.5
-115.66
-103.49
-88.91
-74.97
-63.79
-56.54
-53.07
-51.61
-49.0
-40.87
-24.48
-0.39
26.7
50.01
63.28
63.42
51.22
30.29
6.0
-17.67
-38.71
-56.73
-71.31
-81.42
-85.88
-84.6
-79.53
-72.5
-66.25
-63.76
-68.26
-82.71
-109.19
-147.81
-195.37
-244.75
-281.7
-293.96
-276.49
-233.93
-177.42
-119.06
-67.87
-27.72
1.64
31.27
68.92
114.91
162.49
203.77
235.51
259.38
279.82
301.21
340.69
408.62
504.34
616.17
730.0
837.33
935.61
1024.69
1103.71
1188.27
1286.97
1397.17
1505.39
1597.22
1666.39
1714.33
1745.73
1649.87
1370.62
927.48
410.44
-83.06
-497.86
-821.29
-1063.96
-1243.34
-1373.85
-1445.58
-1459.7
-1425.25
-1361.27
-1289.85
-1223.81
-1167.31
-1119.44
-1074.54
-1012.1
-920.23
-799.86
-664.49
-533.07
-416.35
-318.11
-238.58
-172.79
-106.45
-31.49
51.96
136.57
211.5
274.54
328.77
352.24
333.08
278.79
208.19
140.8
106.82
98.9
107.93
129.47
163.79
205.97
258.37
320.16
385.34
443.71
481.33
491.34
472.85
430.37
375.36
321.44
277.56
246.43
225.58
207.99
190.1
170.32
147.92
124.29
101.36
78.97
55.72
30.5
2.14
-27.22
-54.67
-78.2
-96.3
-108.4
-116.07
-122.22
-129.66
-140.74
-155.09
-170.94
-186.02
-198.13
-205.69
-208.3
-206.07
-198.9
-186.6
-168.79
-146.13
-120.98
-96.91
-77.24
-63.92
-56.77
-54.03
-53.52
-53.69
-54.14
-55.28
-57.55
-60.71
-63.67
-65.05
-63.92
-60.06
-53.83
-45.74
-36.07
-24.64
-10.97
5.37
24.33
45.06
66.11
85.64
101.79
113.03
118.39
117.49
110.58
98.37
82.07
63.31
44.03
26.28
11.93
2.35
-1.87
-1.1
3.45
9.95
16.37
20.88
22.05
19.05
11.66
0.12
-14.95
-32.66
-51.9
-71.35
-89.68
-105.63
-118.22
-126.93
-131.69
-132.68
-130.15
-124.34
-115.52
-104.27
-91.75
-79.72
-70.55
-66.59
-69.57
-80.22
-98.4
-123.3
-154.08
-190.01
-230.55
-275.06
-322.44
-370.89
-417.95
-460.79
-496.95
-524.77
-543.84
-555.14
-560.75
-563.47
-566.52
-573.32
-586.65
-607.67
-634.65
-662.29
-682.52
-686.91
-669.82
-630.77
-574.96
-510.94
-447.36
-390.24
-341.61
-300.41
-264.32
-231.34
-200.32
-170.4
-140.27
-108.09
-72.2
-31.79
12.52
58.96
105.19
149.38
190.9
230.55
270.03
310.9
353.36
395.32
432.45
459.23
470.99
465.64
444.68
412.5
374.59
335.66
298.26
262.92
229.2
196.69
165.64
136.7
110.33
86.5
64.84
45.12
27.57
12.81
1.37
-6.63
-11.41
-13.18
-11.85
-7.23
0.49
10.3
20.39
28.57
33.26
34.06
31.76
27.81
23.52
19.65
16.57
14.71
14.95
18.57
26.66
39.5
56.24
75.11
94.11
111.8
127.62
141.69
154.35
165.52
174.54
180.42
182.31
180.01
174.21
166.08
156.84
147.2
137.06
125.75
112.55
97.3
80.75
64.67
51.11
41.54
36.25
34.23
33.68
32.61
29.63
24.18
16.71
8.32
0.66
-4.49
-5.59
-1.57
7.72
21.53
38.14
55.37
70.91
83.04
91.24
96.62
101.78
109.59
121.46
135.79
148.01
152.58
146.0
129.11
107.09
87.32
76.11
76.28
86.71
103.76
123.25
141.38
154.47
158.35
148.66
122.3
79.27
23.19
-39.79
-103.51
-164.08
-220.48
-273.68
-324.47
-372.0
-413.43
-445.05
-463.84
-468.85
-461.49
-444.98
-423.37
-400.42
-378.75
-359.43
-341.89
-324.15
-303.55
-277.68
-245.03
-205.66
-161.04
-113.64
-66.19
-21.05
20.12
56.36
87.32
113.13
134.21
151.41
165.8
178.43
190.0
200.55
209.32
215.09
216.69
213.5
205.8
194.73
181.79
168.44
155.64
143.67
132.33
121.27
110.24
99.34
88.95
79.57
71.7
65.71
61.78
59.95
60.14
62.22
66.24
72.31
