-3.39
-3.42
-3.45
-3.64
-4.01
-4.48
-4.95
-5.29
-5.49
-5.65
-5.89
-6.35
-7.03
-7.87
-8.72
-9.41
-9.75
-9.55
-8.64
-6.95
-4.55
-1.69
1.26
3.85
5.72
6.69
6.79
6.24
5.38
4.56
4.03
3.86
3.94
4.08
4.13
4.03
3.83
3.65
3.58
3.62
3.65
3.53
3.17
2.64
2.11
1.79
1.81
2.11
2.49
2.7
2.6
2.16
1.55
0.95
0.48
0.13
-0.19
-0.57
-1.0
-1.41
-1.71
-1.85
-1.88
-1.9
-2.0
-2.22
-2.52
-2.79
-2.87
-2.62
-1.96
-0.89
0.43
1.82
3.07
4.01
4.62
4.97
5.11
5.12
4.95
4.53
3.86
3.01
2.13
1.43
1.03
0.96
1.14
1.44
1.71
1.87
1.87
1.76
1.6
1.47
1.39
1.34
1.31
1.25
1.14
0.94
0.61
0.09
-0.65
-1.58
-2.6
-3.53
-4.24
-4.66
-4.86
-4.98
-5.17
-5.51
-5.96
-6.37
-6.58
-6.43
-5.86
-4.85
-3.49
-1.91
-0.3
1.13
2.19
2.76
2.82
2.48
1.97
1.55
1.4
1.61
2.1
2.69
3.17
3.36
3.2
2.77
2.24
1.81
1.67
1.91
2.53
3.39
4.28
4.93
5.15
4.83
4.03
2.87
1.58
0.38
-0.56
-1.17
-1.49
-1.64
-1.75
-1.96
-2.29
-2.72
-3.14
-3.46
-3.61
-3.62
-3.57
-3.62
-3.92
-4.59
-5.61
-6.81
-7.9
-8.49
-8.28
-7.16
-5.28
-2.95
-0.64
1.3
2.63
3.33
3.56
3.53
3.45
3.42
3.47
3.56
3.62
3.59
3.46
3.28
3.09
2.96
2.94
3.01
3.1
3.1
2.94
2.59
2.12
1.66
1.35
1.26
1.31
1.36
1.28
0.98
0.49
-0.1
-0.72
-1.33
-1.96
-2.65
-3.34
-3.93
-4.31
-4.47
-4.47
-4.47
-4.65
-5.05
-5.66
-6.31
-6.86
-7.19
-7.3
-7.22
-6.97
-6.53
-5.81
-4.76
-3.38
-1.75
-0.06
1.51
2.8
3.72
4.2
4.31
4.12
3.75
3.32
2.92
2.64
2.49
2.49
2.59
2.76
2.92
3.02
3.02
2.9
2.79
2.76
2.93
3.27
3.72
4.14
4.44
4.6
4.66
4.69
4.7
4.67
4.54
4.26
3.86
3.39
2.9
2.42
1.94
1.44
0.88
0.26
-0.45
-1.3
-2.3
-3.43
-4.58
-5.54
-6.06
-5.99
-5.28
-4.07
-2.58
-1.03
0.4
1.61
2.56
3.21
3.53
3.56
3.35
3.04
2.73
2.48
2.28
2.09
1.89
1.72
1.66
1.8
2.16
2.65
3.15
3.52
3.65
3.5
3.09
2.46
1.71
0.91
0.19
-0.34
-0.6
-0.6
-0.4
-0.14
0.01
-0.06
-0.42
-1.03
-1.8
-2.6
-3.32
-3.93
-4.46
-4.98
-5.53
-6.13
-6.69
-7.12
-7.36
-7.43
-7.34
-7.12
-6.7
-5.96
-4.84
-3.33
-1.59
0.13
1.58
2.57
3.09
3.23
3.17
3.05
2.99
3.0
3.09
3.22
3.37
3.49
3.53
3.43
3.18
2.83
2.46
2.19
2.11
2.2
2.41
2.64
2.79
2.81
2.7
2.45
2.05
1.53
0.91
0.23
-0.43
-0.98
-1.38
-1.65
-1.85
-2.08
-2.4
-2.81
-3.3
-3.78
-4.2
-4.56
-4.87
-5.25
-5.78
-6.51
-7.45
-8.47
-9.39
-10.01
-10.16
-9.72
-8.69
-7.14
-5.2
-3.04
-0.83
1.24
2.98
4.21
4.83
4.9
4.61
4.21
3.88
3.7
3.6
3.47
3.23
2.93
2.7
2.68
2.88
3.23
3.56
3.76
3.79
3.71
3.6
3.51
3.43
3.33
3.15
2.85
2.45
1.99
1.52
1.09
0.74
0.43
0.06
-0.45
-1.13
-1.92
-2.66
-3.21
-3.5
-3.58
-3.6
-3.74
-4.09
-4.6
-5.15
-5.51
-5.49
-4.96
-3.9
-2.43
-0.75
0.87
2.23
3.24
3.93
4.35
4.56
4.53
4.22
3.6
2.75
1.86
1.12
0.69
0.56
0.63
0.77
0.89
0.95
1.03
1.17
1.41
1.69
1.93
2.02
1.89
1.51
0.91
0.25
-0.3
-0.6
-0.59
-0.43
-0.35
-0.59
-1.26
-2.25
-3.34
-4.26
-4.86
-5.12
-5.14
-5.07
-5.02
-5.06
-5.22
-5.5
-5.85
-6.18
-6.28
-6.0
-5.24
-4.0
-2.44
-0.81
0.69
1.89
2.72
3.22
3.43
3.39
3.16
2.83
2.5
2.24
2.12
2.1
2.16
2.23
2.28
2.34
2.41
2.5
2.58
2.57
2.47
2.29
2.13
2.04
2.08
2.16
2.19
2.07
1.81
1.47
1.18
0.99
0.87
0.72
0.35
-0.31
-1.24
-2.32
-3.35
-4.21
-4.82
-5.24
-5.59
-6.04
-6.73
-7.74
-8.97
-10.21
-11.1
-11.29
-10.57
-8.95
-6.69
-4.2
-1.83
0.14
1.66
2.81
3.7
4.4
4.93
5.28
5.44
5.41
5.24
4.98
4.68
4.38
4.14
3.99
4.0
4.22
4.65
5.24
5.92
6.51
6.87
6.88
6.43
5.54
4.36
3.13
2.06
1.29
0.79
0.43
0.03
-0.52
-1.23
-2.0
-2.7
-3.22
-3.53
-3.66
-3.68
-3.68
-3.73
-3.87
-4.06
-4.21
-4.1
-3.51
-2.31
-0.53
1.59
3.71
5.5
6.74
7.33
7.33
6.89
6.12
5.16
4.1
3.04
2.06
1.29
0.8
0.65
0.82
1.22
1.74
2.21
2.54
2.69
2.71
2.67
2.63
2.63
2.62
2.55
2.42
2.25
2.09
1.97
1.91
1.83
1.62
1.19
0.5
-0.42
-1.47
-2.49
-3.34
-3.91
-4.19
-4.26
-4.3
-4.5
-4.99
-5.77
-6.68
-7.46
-7.8
-7.5
-6.51
-5.0
-3.19
-1.36
0.24
1.51
2.42
3.03
3.45
3.75
3.99
4.22
4.42
4.6
4.7
4.7
4.6
4.43
4.26
4.11
3.97
3.79
3.5
3.09
2.61
2.15
1.78
1.53
1.34
1.14
0.88
0.6
0.38
0.27
0.27
0.3
0.26
0.1
-0.22
-0.62
-1.03
-1.4
-1.73
-2.05
-2.44
-2.88
-3.37
-3.82
-4.2
-4.56
-5.01
-5.67
-6.55
-7.56
-8.41
-8.77
-8.38
-7.14
-5.18
-2.81
-0.41
1.69
3.28
4.35
4.95
5.24
5.38
5.42
5.39
5.25
4.94
4.44
3.8
3.12
2.48
1.96
1.62
1.49
1.54
1.75
2.05
2.36
2.54
2.49
2.12
1.46
0.61
-0.25
-0.98
-1.46
-1.68
-1.7
-1.57
-1.38
-1.17
-0.98
-0.88
-0.87
-0.93
-0.99
-0.98
-0.88
-0.77
-0.83
-1.25
-2.14
-3.39
-4.77
-5.94
-6.63
-6.64
-5.95
-4.65
-2.93
-1.03
0.82
2.41
3.63
4.46
4.99
5.31
5.5
5.58
5.53
5.3
4.9
4.38
3.83
3.35
3.04
2.92
2.99
3.18
3.38
3.5
3.49
3.34
3.09
2.79
2.45
2.1
1.73
1.37
1.03
0.71
0.43
0.17
-0.1
-0.39
-0.76
-1.21
-1.78
-2.4
-3.03
-3.57
-3.96
-4.23
-4.5
-4.88
-5.41
-6.02
-6.45
-6.42
-5.71
-4.3
-2.33
-0.14
1.95
3.72
5.09
6.11
6.91
7.6
8.25
8.92
9.57
10.16
10.69
11.16
11.63
12.24
13.13
14.43
16.18
18.25
20.34
22.09
23.13
23.19
22.24
20.41
18.07
15.56
13.17
11.03
9.1
7.17
5.0
2.42
-0.64
-4.1
-7.82
-11.59
-15.31
-18.87
-22.31
-25.75
-29.34
-33.29
-37.7
-42.46
-47.22
-51.39
-54.12
-54.55
-51.98
-46.11
-37.23
-26.07
-13.64
-0.9
11.44
23.03
33.74
43.37
51.62
58.03
62.21
64.1
64.02
62.58
60.43
58.03
55.51
52.88
50.14
47.48
45.14
43.35
42.13
41.34
40.81
40.5
40.63
41.48
43.16
45.37
47.4
48.32
47.35
44.07
38.49
30.9
21.7
11.26
-0.18
-12.3
-24.56
-36.06
-45.65
-52.18
-54.87
-53.48
-48.26
-39.8
-28.81
-16.0
-2.11
12.11
25.87
38.55
49.98
60.55
71.02
82.09
93.85
105.44
115.37
122.0
124.06
120.78
111.71
96.48
74.85
47.07
14.47
-20.13
-52.83
-79.65
-97.9
-107.0
-108.39
-104.63
-98.13
-90.31
-81.63
-72.07
-61.97
-52.17
-43.68
-37.01
-31.75
-26.73
-20.69
-13.02
-4.13
4.81
12.54
18.28
22.01
24.22
25.47
26.11
26.22
25.86
25.3
25.1
25.86
27.92
31.16
34.96
38.12
39.34
37.54
32.22
23.55
12.3
-0.42
-13.47
-26.07
-38.15
-50.12
-62.52
-75.64
-89.33
-102.99
-115.74
-126.62
-134.85
-140.38
-143.45
-144.46
-143.78
-141.84
-139.08
-135.68
-131.4
-125.6
-118.48
-110.46
-101.89
-93.01
-84.29
-76.43
-70.07
-65.51
-62.83
-64.05
-71.01
-83.95
-101.41
-121.29
-142.13
-163.11
-183.34
-200.93
-215.39
-224.25
-222.56
-204.84
-168.9
-118.2
-60.84
-6.49
36.64
59.81
58.78
35.36
-3.9
-51.5
-101.86
-151.62
-198.64
-216.94
-190.81
-124.83
-41.58
36.52
98.83
144.87
178.59
204.89
227.6
245.01
254.76
256.7
253.45
248.06
242.87
237.77
232.03
225.2
214.47
198.25
177.68
156.16
137.09
122.02
110.76
102.58
96.82
91.22
83.89
74.73
64.99
56.01
48.32
41.7
35.91
30.89
25.89
20.4
14.53
8.82
3.67
-0.94
-5.28
-9.32
-12.63
-14.87
-15.7
-14.87
-12.23
-7.86
-1.94
5.29
13.57
22.44
31.12
38.65
44.12
47.05
47.45
45.81
42.75
38.78
34.19
29.13
23.81
18.62
13.98
10.2
7.3
4.96
2.76
0.31
-2.53
-5.67
-8.89
-12.05
-15.19
-18.45
-22.03
-26.12
-30.85
-36.28
-42.39
-49.01
-55.93
-62.79
-69.2
-74.7
-79.12
-82.62
-85.57
-88.35
-91.1
-93.61
-95.29
-95.26
-92.44
-86.42
-77.69
-67.64
-58.11
-50.76
-46.7
-46.17
-48.33
-51.35
-53.7
-54.35
-52.86
-49.02
-42.59
-33.3
-20.82
-4.67
15.93
40.5
67.79
96.08
123.75
149.66
173.08
192.54
204.49
207.7
203.4
194.29
182.09
167.29
149.81
129.7
107.52
83.47
58.54
32.4
4.73
-24.48
-54.4
-83.48
-110.08
-133.51
-154.98
-167.78
-170.87
-165.43
-153.68
-138.15
-121.27
-105.36
-92.36
-83.43
-78.24
-76.79
-78.03
-80.26
-81.49
-79.68
-73.2
-61.29
-44.4
-24.11
-4.16
11.77
21.28
24.06
21.97
18.07
15.19
14.84
17.0
19.89
21.93
22.47
21.95
21.24
20.87
20.47
19.08
15.8
10.25
3.26
-3.6
-8.75
-11.38
-11.55
-9.97
-7.35
-4.07
-0.28
3.92
8.16
11.69
13.61
13.42
11.24
7.92
4.65
2.53
2.17
3.6
6.36
9.82
13.48
17.02
20.36
23.55
26.61
29.53
32.23
34.61
36.53
37.93
38.81
39.27
39.42
39.38
39.13
38.45
37.04
34.65
31.24
27.07
22.64
18.53
15.07
12.25
9.79
7.34
4.75
2.23
0.22
-0.75
-0.37
1.3
3.89
6.75
9.24
10.91
11.55
11.27
10.3
8.86
7.08
4.93
2.34
-0.78
-4.26
-7.82
-11.12
-14.03
-16.59
-18.9
-20.92
-22.51
-23.54
-23.92
-23.76
-23.31
-22.8
-22.32
-21.73
-20.64
-18.82
-16.48
-13.94
-11.56
-9.61
-8.22
-7.43
-7.3
-7.55
-8.1
-9.34
-11.12
-12.8
-13.64
-12.97
-10.36
-5.81
0.99
9.74
18.71
26.8
33.53
38.54
41.66
43.03
43.13
43.6
45.52
47.61
49.15
49.92
49.54
47.68
44.34
39.8
35.86
33.69
31.87
30.03
28.67
27.49
25.44
21.11
5.69
-22.49
-47.85
-64.13
-71.74
-70.49
-61.86
-48.37
-32.62
-16.33
0.86
18.85
34.42
45.01
49.43
47.54
40.8
31.76
23.08
17.24
14.84
13.47
11.45
8.54
5.04
1.54
-1.35
-3.2
-3.3
-1.49
0.97
3.27
5.13
6.28
6.57
6.06
4.92
3.59
2.27
0.5
-1.86
-4.45
-6.83
-8.57
-9.49
-9.7
-9.44
-8.97
-8.67
-8.63
-8.81
-9.29
-10.33
-12.27
-15.4
-19.68
-24.7
-29.82
-34.39
-38.01
-40.77
-43.23
-46.19
-50.33
-55.88
-62.39
-68.82
-73.96
-76.85
-77.26
-75.79
-73.37
-70.87
-68.55
-65.59
-60.23
-50.52
-35.55
-16.27
4.45
23.0
36.18
42.46
42.61
39.42
36.63
37.41
43.41
54.35
68.88
84.45
98.04
106.87
109.84
108.2
105.31
105.76
113.53
130.93
155.04
176.71
183.43
164.94
117.69
46.48
-37.17
-119.13
-184.48
-225.09
-242.89
-247.02
-247.21
-248.85
-252.16
-253.96
-250.6
-235.43
-205.87
-166.12
-124.15
-85.41
-50.13
-15.54
21.16
60.66
108.2
167.09
235.46
308.5
383.19
459.46
536.73
611.51
636.13
579.62
453.51
300.88
159.07
44.57
-40.38
-100.63
-143.49
-176.05
-196.82
-203.07
-198.79
-189.29
-179.59
-171.87
-166.7
-163.69
-162.21
-156.52
-142.19
-120.18
-95.88
-75.14
-59.49
-49.85
-46.08
-47.21
-48.68
-46.53
-40.29
-32.42
-26.01
-22.83
-23.75
-28.67
-36.74
-45.17
-51.23
-53.89
-53.47
-50.79
-46.32
-40.46
-33.46
-25.63
-16.82
-7.08
2.99
12.44
20.37
26.4
30.41
32.66
33.57
33.59
33.09
32.35
31.62
31.03
30.66
30.5
30.51
30.64
30.82
31.01
31.17
31.29
31.36
31.36
31.22
30.88
30.28
29.41
28.22
26.66
24.59
21.83
18.24
13.79
8.65
3.15
-2.29
-7.39
-12.07
-16.54
-21.14
-26.27
-32.25
-39.27
-47.24
-55.87
-64.58
-72.58
-78.94
-82.86
-83.79
-81.64
-76.64
-69.3
-60.15
-49.75
-38.63
-27.37
-16.64
-7.05
0.92
7.06
11.51
14.62
16.8
18.38
19.52
20.28
20.72
20.94
21.1
21.3
21.56
21.77
21.77
21.45
20.77
19.81
18.64
17.29
15.7
13.72
11.23
8.23
4.82
1.19
-2.38
-5.71
-8.69
-11.35
-13.87
-16.51
-19.51
-23.05
-27.07
-31.24
-34.91
-37.25
-37.45
-34.97
-29.65
-21.81
-12.09
-1.29
9.86
20.76
30.99
40.19
48.07
54.31
58.69
61.14
61.76
60.81
58.61
55.48
51.65
47.31
42.57
37.57
32.47
27.39
22.46
17.73
13.29
9.21
5.55
2.37
-0.35
-2.68
-4.74
-6.68
-8.62
-10.64
-12.78
-15.09
-17.63
-20.46
-23.64
-27.18
-31.04
-35.16
-39.45
-43.81
-48.01
-51.66
-54.22
-55.08
-53.73
-49.98
-43.98
-36.27
-27.58
-18.7
-10.27
-2.73
3.68
8.9
12.93
15.83
17.62
18.37
18.2
17.29
15.97
14.63
13.66
13.26
13.47
14.08
14.82
15.45
15.83
16.02
16.22
16.69
17.61
19.01
20.72
22.4
23.68
24.24
23.9
22.66
20.57
17.69
14.01
9.49
4.09
-2.14
-9.03
-16.34
-23.73
-30.76
-36.88
-41.41
-43.62
-43.0
-39.49
-33.55
-26.12
-18.36
-11.22
-5.22
-0.43
3.37
6.4
8.69
10.13
10.54
9.99
8.84
7.64
7.01
7.33
8.68
10.8
13.29
15.74
17.87
19.52
20.61
21.06
20.74
19.49
17.26
14.1
10.27
6.1
1.98
-1.77
-4.97
-7.54
-9.5
-10.95
-12.01
-12.8
-13.45
-14.06
-14.75
-15.64
-16.85
-18.45
-20.36
-22.3
-23.76
-24.15
-22.95
-19.96
-15.31
-9.51
-3.24
2.81
8.08
12.27
15.3
17.23
18.27
18.58
18.35
17.72
16.82
15.81
14.85
14.13
13.81
13.91
14.37
15.01
15.61
15.97
15.98
15.6
14.84
13.8
12.52
11.12
9.74
8.45
7.34
6.33
5.3
4.06
2.49
0.58
-1.6
-3.88
-6.13
-8.25
-10.28
-12.29
-14.4
-16.75
-19.37
-22.18
-24.87
-26.94
-27.78
-26.84
-23.86
-18.94
-12.55
-5.45
1.45
7.44
12.11
15.42
17.61
18.96
19.74
20.17
20.32
20.14
19.55
18.56
17.32
16.09
15.23
14.99
15.52
16.69
17.97
18.78
18.77
17.98
16.85
16.09
16.29
17.95
20.82
23.78
25.47
25.1
22.82
19.67
17.24
16.92
19.77
25.27
31.12
34.59
34.13
30.04
24.46
20.56
21.1
28.11
41.0
56.54
70.7
80.89
86.44
87.63
85.15
78.99
70.28
60.23
49.7
39.05
27.73
12.86
-10.34
-45.14
-96.85
-156.71
-203.97
-219.77
-200.71
-158.31
-110.32
-70.57
-41.29
-17.42
7.81
37.54
69.91
100.57
126.92
149.04
165.18
179.7
197.88
223.59
256.01
289.32
315.31
326.81
316.88
282.31
225.29
150.95
66.08
-22.97
-110.75
-192.3
-262.92
-322.41
-371.7
-410.74
-439.37
-457.85
-467.48
-470.11
-466.93
-436.91
-370.06
-273.42
-167.16
-71.02
4.12
55.27
84.11
95.16
94.45
84.7
68.69
50.29
33.72
21.87
15.82
15.51
20.62
30.68
42.29
52.57
60.5
66.97
73.34
80.55
89.17
99.45
111.68
122.82
130.01
131.63
127.83
119.85
109.23
97.24
84.54
71.41
57.1
42.12
28.39
18.38
13.41
12.72
13.91
14.52
13.91
13.33
15.79
24.01
38.42
56.63
74.37
87.45
93.22
91.79
84.2
72.68
60.15
49.74
44.47
46.49
56.06
70.9
86.58
97.63
99.67
90.67
71.29
44.15
12.43
-21.3
-55.21
-87.69
-116.79
-139.77
-153.67
-156.37
-147.64
-129.63
-106.55
-83.43
-64.68
-52.87
-48.26
-49.18
-53.02
-57.31
-60.35
-61.43
-60.49
-57.6
-52.73
-45.68
-36.46
-25.71
-14.65
-4.75
2.75
7.3
9.19
9.29
8.68
8.2
8.14
8.37
8.43
7.86
6.36
4.01
1.22
-1.28
-2.83
-3.05
-1.98
-0.14
1.76
3.05
3.37
2.78
1.72
0.7
0.08
0.13
0.97
2.74
5.56
9.32
13.47
16.97
18.47
16.71
11.18
2.24
-8.93
-20.79
-32.17
-42.59
-52.29
-61.84
-71.56
-81.07
-89.41
-95.39
-98.23
-97.96
-95.39
-91.68
-87.88
-84.5
-81.44
-78.39
-75.09
-71.57
-68.2
-65.4
-63.34
-61.92
-60.69
-59.01
-56.22
-51.73
-45.16
-36.4
-25.78
-13.91
-1.6
10.4
21.6
31.87
41.35
50.22
58.5
65.99
72.26
76.79
79.04
78.51
74.88
68.07
58.4
46.66
34.0
21.6
10.42
0.94
-6.8
-13.07
-18.09
-22.02
-24.87
-26.67
-27.59
-27.92
-27.97
-27.9
-27.77
-27.54
-27.19
-26.73
-26.1
-25.05
-23.02
-19.28
-13.2
-4.58
6.17
18.09
29.94
40.56
49.11
55.24
58.96
60.63
60.59
59.24
56.81
53.45
49.21
44.18
38.48
32.35
26.14
20.23
14.96
10.55
7.05
4.34
2.18
0.25
-1.72
-3.89
-6.31
-8.87
-11.36
-13.54
-15.1
-15.74
-15.17
-13.23
-9.91
-5.37
0.18
6.58
13.79
21.66
29.63
36.46
40.29
39.09
31.41
17.05
-2.92
-26.57
-51.87
-77.26
-101.78
-124.77
-145.46
-162.79
-175.51
-182.57
-183.34
-177.79
-166.4
-150.02
-129.84
-107.36
-84.11
-61.4
-39.87
-19.38
0.68
20.76
40.65
59.39
75.6
88.1
96.34
100.47
101.24
99.93
98.37
99.22
105.56
119.94
143.01
172.34
202.55
226.76
238.85
235.57
217.24
187.07
149.53
108.83
68.2
29.97
-3.97
-32.01
-53.07
-67.13
-75.52
-80.65
-85.28
-91.71
-101.06
-112.87
-125.35
-135.87
-142.0
-142.38
-137.3
-128.44
-118.18
-108.67
-101.0
-95.15
-90.38
-85.93
-81.52
-77.5
-74.52
-73.02
-72.82
-72.99
-72.2
-69.09
-62.85
-53.52
-42.08
-30.1
-19.26
-10.77
-5.04
-1.69
0.34
2.44
6.13
12.78
23.41
38.25
56.5
76.42
95.85
113.23
128.45
142.97
158.93
177.47
197.18
213.49
219.7
209.09
177.47
124.67
54.92
-24.36
-104.24
-175.85
-231.74
-266.53
-277.64
-265.77
-235.01
-192.2
-145.31
-101.49
-65.27
-37.9
-17.81
-1.84
13.27
30.02
49.76
72.77
98.4
125.13
150.78
172.85
189.24
198.91
202.16
200.23
194.59
186.11
174.9
160.55
142.77
121.9
99.07
75.87
53.81
34.03
17.01
2.77
-8.94
-18.55
-26.5
-33.34
-39.72
-46.22
-53.19
-60.67
-68.38
-75.8
-82.4
-87.72
-91.46
-93.4
-93.27
-90.69
-85.26
-76.84
-65.67
-52.54
-38.55
-24.86
-12.41
-1.63
7.42
14.92
21.06
25.94
29.58
32.01
33.3
33.62
33.3
32.73
32.29
32.34
33.13
34.66
36.77
39.09
41.25
43.05
44.52
45.79
46.97
48.01
48.62
48.48
47.39
45.38
42.64
39.34
35.45
30.76
25.01
18.2
10.67
3.06
-3.98
-10.01
-14.93
-18.74
-21.32
-22.17
-20.51
-15.49
-6.66
5.81
21.0
37.56
53.93
68.69
80.7
89.06
93.08
92.29
86.6
76.34
62.26
45.3
26.23
5.33
-17.64
-43.2
-71.58
-102.3
-133.85
-163.84
-189.3
-207.34
-215.56
-212.51
-197.96
-172.93
-139.58
-100.91
-60.06
-19.65
18.73
54.72
88.77
121.45
152.71
181.59
206.31
224.99
236.25
239.68
235.83
225.83
211.01
192.51
171.21
147.81
122.88
96.93
70.48
44.16
18.86
-4.16
-23.4
-37.68
-46.61
-51.12
-53.44
-56.53
-63.2
-75.0
-91.49
-110.23
-127.47
-139.1
-141.81
-134.15
-117.2
-94.57
-71.4
-52.43
-40.23
-34.08
-30.67
-26.01
-17.68
-5.93
6.74
17.67
25.81
32.38
39.88
49.84
61.51
72.1
78.34
77.88
70.33
57.1
40.3
21.8
2.38
-17.88
-38.74
-59.33
-78.71
-96.32
-112.31
-127.33
-141.87
-156.07
-168.79
-177.41
-178.89
-171.49
-155.77
-134.28
-110.41
-86.99
-67.12
-52.2
-40.99
-30.66
-19.06
-5.84
8.07
21.54
34.28
43.7
48.17
49.4
51.61
57.85
68.68
82.99
99.65
118.2
133.28
139.93
138.79
136.6
141.05
156.88
184.14
217.21
245.03
246.82
204.06
111.82
-19.17
-170.78
-325.6
-470.78
-599.11
-665.39
-637.47
-528.26
-385.57
-249.08
-134.59
-43.92
25.29
76.13
112.19
130.83
130.6
116.76
99.9
88.64
85.74
89.77
97.97
108.24
114.43
112.34
103.92
95.96
94.43
101.11
114.56
131.95
150.91
165.66
171.5
167.74
157.27
143.14
126.68
108.07
87.02
65.12
42.16
18.18
-5.32
-25.72
-40.98
-50.6
-55.2
-55.82
-53.63
-50.44
-47.69
-45.84
-44.59
-43.42
-42.07
-40.51
-38.62
-36.37
-33.99
-31.58
-29.23
-26.99
-24.86
-22.88
-20.97
-19.11
-17.23
-15.41
-13.7
-12.09
-10.62
-9.26
-8.02
-6.89
-5.82
-4.75
-3.75
-2.82
-1.97
-1.21
-0.54
0.06
0.55
0.68
0.73
0.71
0.61
0.41
0.12
-0.27
-0.8
-1.44
-2.21
-3.03
-3.91
-4.84
-5.85
-6.93
-8.06
-9.29
-10.63
-12.01
-13.41
-14.84
-16.33
-17.96
-19.85
-22.1
-24.94
-28.53
-32.93
-38.08
-43.85
-49.95
-56.01
-61.97
-66.86
-70.03
-70.83
-68.75
-63.55
-55.25
-44.33
-31.6
-18.17
-5.03
6.83
16.78
24.6
30.37
34.3
36.65
37.48
36.81
34.7
31.21
26.66
21.53
16.37
11.54
7.25
3.45
-0.05
-3.35
-6.65
-10.18
-14.14
-18.52
-22.69
-25.37
-24.91
-20.08
-10.73
1.84
15.36
27.45
36.49
42.02
44.51
44.77
43.44
40.85
37.17
32.85
28.62
25.29
23.41
22.96
23.39
23.87
23.73
22.52
20.21
17.17
13.86
10.79
8.15
5.91
3.85
1.76
-0.36
-2.3
-3.69
-4.17
-3.51
-1.81
0.63
3.34
5.86
7.83
9.24
10.27
11.28
12.62
14.45
16.74
19.25
21.57
23.43
24.62
25.27
25.74
26.51
27.94
30.33
33.61
37.07
39.15
37.42
29.23
12.64
-12.45
-43.9
-77.66
-109.08
-134.65
-153.0
-165.2
-173.79
-181.53
-190.09
-199.83
-210.16
-220.2
-229.63
-238.47
-247.08
-255.61
-264.33
-274.01
-286.28
-303.23
-326.08
-353.68
-381.6
-403.28
-412.25
-404.91
-381.91
-347.73
-308.57
-269.62
-233.68
-201.08
-171.12
-143.35
-118.12
-96.15
-77.69
-62.12
-48.06
-34.22
-19.83
-5.22
8.61
20.46
29.54
35.89
40.2
43.62
47.11
51.22
55.78
60.23
63.96
66.59
68.26
69.49
70.91
72.94
75.56
78.23
80.14
80.42
78.36
73.78
66.8
57.85
47.49
36.23
24.58
12.94
1.79
-8.43
-17.15
-23.87
-28.13
-29.7
-28.58
-24.95
-19.25
-12.01
-3.91
4.37
12.18
18.94
24.24
27.84
29.73
30.06
29.21
27.62
25.83
24.34
23.61
24.03
25.78
28.99
33.64
39.54
46.42
53.89
61.47
68.63
74.86
79.6
82.48
83.23
81.73
78.08
72.59
65.73
58.07
50.29
43.03
36.88
32.3
29.64
29.01
30.4
33.61
38.22
43.74
49.49
54.8
58.96
61.35
61.5
59.13
54.21
46.97
37.95
27.81
17.42
7.67
-0.56
-6.5
-9.58
-9.45
-6.11
0.27
9.19
19.93
31.57
43.12
53.61
62.12
67.93
70.55
69.83
65.89
59.18
50.37
40.3
29.89
20.06
11.59
5.09
0.95
-0.72
-0.02
2.72
7.0
12.24
17.83
23.13
27.67
31.04
32.99
33.45
32.49
30.24
26.94
22.89
18.42
13.89
9.65
6.03
3.27
1.5
0.75
0.88
1.67
2.81
4.04
5.09
5.91
6.46
6.83
7.1
7.36
7.61
7.84
8.09
8.4
8.93
9.87
11.37
13.41
15.83
18.32
20.55
22.42
24.1
26.11
29.1
33.71
40.17
48.33
57.6
67.23
76.71
85.96
95.46
106.03
118.48
133.16
149.8
167.65
185.69
203.17
219.87
236.17
252.91
271.23
292.32
317.0
345.23
375.47
404.51
427.84
440.9
440.59
426.53
401.38
369.78
336.71
305.79
278.64
255.06
234.05
214.71
196.75
180.36
165.74
152.84
141.15
129.93
118.58
106.84
95.0
83.68
73.58
65.1
58.12
51.99
45.89
39.12
31.52
23.4
15.38
8.11
2.05
-2.51
-5.59
-7.46
-8.67
-9.85
-11.48
-13.76
-16.41
-18.99
-21.03
-22.37
-23.16
-23.67
-24.13
-24.5
-24.69
-24.73
-24.88
-25.46
-26.74
-28.56
-30.44
-31.78
-32.12
-31.5
-30.37
-29.37
-28.94
-29.15
-29.55
-29.59
-28.87
-27.33
-25.41
-23.72
-22.78
-22.77
-23.61
-25.0
-26.64
-28.3
-29.72
-30.71
-30.99
-30.46
-29.25
-27.69
-26.24
-24.6
-22.48
-19.67
-16.44
-13.16
-10.31
-8.17
-6.99
-6.74
-6.64
-6.07
-4.68
-2.51
0.54
4.7
10.18
16.75
23.78
32.03
42.01
53.61
65.95
77.71
87.69
95.07
99.53
101.38
106.03
117.81
137.65
162.42
187.03
207.32
221.46
229.77
233.65
244.14
268.95
308.94
357.65
406.05
447.5
479.11
500.25
511.03
526.71
558.88
610.28
673.93
738.95
796.95
844.22
880.65
908.4
950.42
1024.29
1133.38
1264.65
1397.38
1514.66
1608.72
1680.13
1611.28
1342.55
889.13
339.26
-201.67
-663.98
-1024.08
-1287.77
-1472.32
-1596.46
-1657.01
-1653.13
-1594.03
-1501.18
-1399.87
-1309.18
-1238.47
-1189.27
-1158.75
-1127.41
-1079.94
-1011.41
-928.47
-843.14
-765.31
-700.86
-653.26
-624.91
-607.16
-591.05
-569.64
-539.94
-502.05
-457.66
-410.05
-363.88
-323.91
-288.34
-253.97
-218.79
-183.67
-151.63
-125.32
-105.65
-91.78
-81.89
-72.36
-60.52
-46.1
-30.91
-17.74
-8.59
-4.38
-5.03
-9.86
-17.81
-27.68
-38.54
-49.98
-62.2
-75.25
-88.45
-99.24
-102.97
-94.13
-68.8
-26.98
26.64
84.03
137.36
181.13
214.03
238.36
257.98
276.02
293.83
311.61
329.54
349.38
372.51
398.61
424.55
444.56
452.15
442.91
416.91
373.57
320.45
267.3
221.96
187.87
163.92
146.25
130.65
114.34
96.31
77.45
58.13
38.07
16.73
-5.76
-28.26
-48.8
-65.19
-75.86
-79.68
-77.23
-70.15
-60.56
-50.23
-40.25
-31.04
-22.73
-15.51
-9.37
-4.81
-2.35
-2.28
-4.38
-7.92
-12.03
-16.03
-19.64
-22.83
-25.95
-29.45
-33.74
-39.07
-45.35
-52.12
-58.51
-63.4
-65.7
-65.09
-62.18
-58.5
-55.76
-55.07
-56.38
-58.61
-60.31
-60.56
-59.4
-57.57
-55.8
-54.24
-52.48
-50.03
-46.95
-44.05
-42.53
-43.23
-46.06
-50.01
-53.67
-56.02
-56.79
-56.39
-55.4
-54.13
-52.39
-49.61
-45.31
-39.44
-32.54
-25.53
-19.48
-15.27
-13.57
-14.94
-19.9
-28.82
-41.69
-57.95
-76.41
-95.52
-113.62
-129.4
-142.04
-151.23
-156.78
-158.35
-155.52
-147.78
-134.92
-117.28
-96.08
-73.29
-51.42
-32.78
-18.87
-9.94
-5.12
-2.95
-2.24
-2.42
-3.62
-6.2
-10.3
-15.54
-21.42
-27.56
-33.75
-39.39
-43.18
-43.06
-37.05
-24.72
-7.77
10.1
24.83
33.69
36.39
34.74
31.27
27.76
24.42
20.35
14.45
6.44
-3.03
-12.99
-22.9
-32.98
-43.97
-56.53
-70.65
-85.46
-99.66
-112.04
-122.07
-130.05
-136.69
-142.59
-148.04
-152.67
-155.95
-157.5
-157.25
-155.49
-152.67
-149.06
-144.83
-140.1
-134.89
-129.23
-122.98
-115.72
-106.89
-96.04
-83.1
-68.75
-54.18
-40.85
-30.03
-22.52
-18.5
-17.99
-20.84
-26.92
-36.18
-48.19
-62.04
-76.34
-89.65
-100.66
-108.73
-113.67
-115.68
-115.2
-112.6
-108.0
-101.55
-93.51
-84.23
-74.33
-64.37
-54.85
-46.2
-38.78
-32.9
-29.1
-27.83
-29.42
-33.72
-39.97
-46.95
-53.33
-58.1
-60.7
-61.2
-59.78
-56.54
-51.24
-43.51
-32.92
-19.5
-3.87
12.83
29.03
43.25
54.31
61.5
64.67
64.24
60.79
55.14
48.12
40.47
32.82
25.72
19.52
14.47
10.87
9.01
9.28
12.04
17.49
25.34
34.77
44.38
52.49
57.7
59.06
56.43
50.4
41.98
32.26
22.18
12.33
3.18
-4.85
-11.25
-15.54
-17.43
-17.03
-14.69
-10.91
-6.31
-1.54
2.5
4.76
4.3
0.59
-6.17
-14.87
-24.02
-31.91
-37.35
-39.62
-38.65
-34.72
-28.12
-19.32
-8.77
2.99
15.39
27.87
39.91
50.97
60.57
68.28
73.75
76.64
76.81
74.4
69.76
63.54
56.46
49.23
42.34
36.14
30.71
26.13
22.6
20.27
19.29
19.73
21.41
24.01
27.11
30.29
33.15
35.06
35.39
33.58
29.45
23.31
15.87
8.1
0.89
-5.12
-9.77
-13.13
-15.28
-16.42
-16.81
-17.02
-17.57
-18.95
-21.07
-23.42
-25.02
-24.89
-22.6
-18.36
-12.94
-7.09
-1.33
4.26
9.8
15.42
20.81
25.49
28.88
30.52
30.45
28.98
26.67
24.25
22.27
21.07
20.74
21.28
22.48
24.2
26.17
28.08
29.67
30.56
30.61
29.75
28.28
26.46
24.61
22.8
20.91
18.92
16.88
15.06
13.62
12.61
11.57
9.93
7.01
2.55
-3.06
-9.0
-14.37
-18.57
-21.46
-23.34
-24.56
-25.48
-26.3
-26.99
-27.81
-29.22
-31.63
-35.13
-39.14
-42.52
-43.73
-41.71
-36.03
-27.42
-17.43
-7.76
0.11
5.55
8.53
9.64
9.49
8.73
7.87
7.33
7.5
8.35
9.43
9.78
8.46
4.85
-0.79
-7.34
-13.27
-17.06
-17.92
-15.64
-10.42
-2.58
7.53
19.51
32.81
46.33
58.8
68.62
74.44
75.53
71.81
63.9
52.87
39.93
26.23
12.95
1.07
-8.39
-14.62
-17.23
-16.52
-13.66
-10.27
-7.9
-7.7
-10.11
-14.95
-21.54
-28.92
-35.73
-40.59
-42.21
-39.7
-32.93
-22.66
-10.15
3.19
16.02
27.36
36.43
42.49
45.08
44.01
39.78
33.53
26.72
20.53
15.73
12.46
10.45
9.38
9.05
9.4
10.39
11.74
13.04
13.95
14.25
14.04
13.55
13.04
12.7
12.62
12.76
13.08
13.51
14.0
14.49
14.86
14.95
14.58
13.65
12.21
10.5
8.6
6.51
3.95
0.51
-4.17
-10.21
-17.38
-25.13
-32.65
-39.06
-43.63
-45.68
-44.85
-41.08
-34.69
-26.32
-16.81
-6.93
2.62
11.47
19.25
25.65
30.27
32.67
32.6
30.2
26.1
21.13
16.35
12.53
10.2
9.6
10.69
13.31
17.33
22.58
28.67
35.14
41.23
46.07
48.91
49.29
47.21
43.25
38.28
33.19
28.65
24.82
21.4
18.03
14.44
10.69
6.92
3.54
0.88
-0.65
-0.85
0.32
2.61
5.23
7.06
6.91
4.1
-1.26
-8.29
-15.77
-22.56
-27.96
-31.96
-34.98
-37.47
-39.45
-40.28
-38.57
-32.66
-21.28
-4.3
16.89
39.48
59.89
74.93
82.31
81.43
73.22
59.76
43.65
27.4
13.07
1.74
-6.11
-10.69
-12.52
-12.3
-10.78
-8.56
-5.75
-1.87
3.98
13.04
26.13
43.01
62.15
80.86
96.08
105.12
106.12
98.06
80.92
55.12
21.54
-18.48
-63.01
-109.02
-152.67
-189.55
-215.8
-228.81
-228.17
-215.73
-194.67
-168.85
-141.48
-114.98
-90.79
-70.05
-53.55
-41.99
-35.49
-33.24
-33.63
-34.61
-34.18
-31.09
-25.26
-17.73
-10.28
-4.47
-0.7
1.94
5.14
10.03
15.46
17.43
10.45
-9.48
-42.19
-82.09
-119.96
-146.53
-156.18
-148.81
-128.9
-102.71
-75.21
-48.91
-23.96
0.19
23.78
46.32
67.19
86.28
104.15
121.27
137.21
150.4
158.29
158.45
149.61
132.3
108.79
82.53
57.0
34.84
17.58
5.69
-0.96
-2.67
-0.09
5.61
12.85
19.9
25.54
29.63
33.06
37.12
42.94
50.58
59.24
67.62
74.57
79.56
82.64
84.02
83.78
81.89
78.1
72.45
65.41
57.8
50.62
44.73
40.5
37.84
36.38
35.68
35.33
35.13
34.87
34.42
33.55
31.91
29.25
25.57
21.11
16.33
11.78
7.77
4.48
1.91
-0.23
-2.27
-4.65
-7.88
-12.39
-18.48
-26.1
-34.76
-43.81
-52.63
-60.91
-68.41
-74.8
-79.48
-81.77
-81.11
-77.52
-71.58
-64.45
-57.16
-50.47
-44.57
-39.41
-34.89
-31.01
-27.7
-24.64
-21.11
-16.22
-9.31
-0.46
9.47
19.11
27.18
32.95
36.5
38.5
39.71
40.62
41.27
41.39
40.75
39.51
38.09
37.24
37.57
39.31
42.23
45.62
48.62
50.36
50.17
47.62
42.79
36.13
28.35
20.33
12.73
5.96
0.23
-4.41
-7.88
-9.98
-10.52
-9.71
-7.97
-5.98
-4.53
-4.17
-5.28
-8.01
-12.35
-17.99
-24.43
-30.71
-35.7
-38.31
-37.85
-34.13
-27.65
-19.24
-9.96
-0.82
7.42
14.2
19.32
22.76
24.81
25.84
26.18
25.93
25.01
23.32
20.84
17.88
14.93
12.64
11.32
11.14
12.04
13.89
16.51
19.83
23.6
27.51
31.14
34.05
35.95
36.76
36.48
35.19
32.88
29.46
24.71
18.55
11.16
2.98
-5.3
-13.06
-19.91
-25.76
-30.8
-35.28
-39.4
-43.18
-46.53
-49.3
-51.39
-52.63
-52.71
-51.19
-47.68
-42.08
-34.81
-26.74
-18.87
-11.99
-6.51
-2.33
0.92
3.63
6.15
8.72
11.52
14.76
18.54
22.73
27.03
31.04
34.46
37.32
39.96
42.85
46.36
50.56
55.04
59.06
61.7
62.17
60.0
55.26
48.25
39.59
30.04
20.46
11.68
4.43
-0.81
-3.97
-5.19
-5.02
-4.07
-2.97
-2.33
-2.51
-3.69
-5.85
-8.78
-12.1
-15.49
-18.83
-22.21
-26.04
-30.73
-36.55
-43.43
-50.81
-57.51
-62.15
-63.49
-60.72
-53.82
-43.48
-30.89
-17.4
-4.19
7.88
18.2
26.26
31.83
34.89
35.75
35.04
33.4
31.47
29.61
28.03
26.82
26.13
26.19
27.13
29.0
31.61
34.61
37.43
39.56
40.49
39.93
37.71
33.98
29.16
23.85
18.59
13.78
9.74
6.47
3.9
1.78
-0.23
-2.42
-4.96
-7.89
-11.05
-14.11
-16.75
-18.75
-20.12
-21.21
-22.53
-24.55
-27.68
-31.97
-37.09
-42.43
-47.03
-49.96
-50.46
-48.23
-43.42
-36.66
-28.9
-20.96
-13.61
-7.15
-1.74
2.59
5.73
7.63
8.36
8.04
7.08
5.93
5.13
5.16
6.38
8.81
12.3
16.48
20.72
24.41
26.94
27.91
27.13
24.73
21.11
16.81
12.57
8.79
5.87
3.81
2.41
1.43
0.66
-0.0
-0.71
-1.58
-2.89
-4.72
-7.1
-9.98
-13.09
-16.18
-19.07
-21.81
-24.62
-27.79
-31.36
-35.21
-38.82
-41.33
-41.87
-39.92
-35.55
-29.38
-22.43
-15.76
-10.04
-5.62
-2.24
0.46
2.78
5.02
7.39
9.85
12.36
14.74
16.76
18.23
18.98
19.06
18.66
18.18
17.91
18.04
18.59
19.44
20.5
21.54
22.53
23.31
23.61
23.16
21.82
19.56
16.61
13.3
9.88
6.56
3.41
0.27
-3.02
-6.4
-9.79
-13.08
-16.05
-18.71
-21.07
-23.08
-24.73
-25.91
-26.42
-26.27
-25.73
-25.36
-25.8
-27.5
-30.46
-34.18
-37.61
-39.63
-39.34
-36.37
-30.94
-23.59
-15.06
-6.12
2.57
10.45
16.84
21.13
22.81
21.87
18.74
14.34
9.74
5.89
3.46
2.65
3.33
5.32
8.43
12.49
17.34
22.76
28.42
33.96
38.98
42.95
45.45
46.02
44.35
40.33
34.43
27.39
20.04
13.12
7.04
1.86
-2.64
-6.63
-10.27
-13.36
-15.57
-16.56
-16.01
-13.87
-10.48
-6.69
-3.67
-2.74
-4.94
-10.69
-19.71
-30.91
-42.63
-53.13
-61.09
-65.76
-67.04
-65.24
-60.79
-53.95
-44.66
-32.82
-18.51
-2.34
14.55
30.51
43.89
53.34
58.0
57.69
52.85
44.5
33.94
22.58
11.57
1.79
-6.24
-12.3
-16.24
-17.95
-17.38
-14.53
-9.7
-3.54
3.14
9.44
14.65
18.42
20.62
21.27
20.47
18.08
13.9
7.81
-0.16
-9.58
-19.61
-29.22
-37.42
-43.25
-46.11
-45.63
-41.84
-35.18
-26.63
-17.38
-8.8
-2.01
2.5
4.72
5.04
3.95
1.75
-1.36
-5.15
-9.3
-13.2
-16.13
-17.57
-17.3
-15.34
-12.06
-7.74
-2.62
3.05
9.16
15.49
21.57
26.79
30.53
32.11
31.22
27.96
22.88
16.98
11.42
7.14
4.72
4.27
5.33
7.4
9.86
12.35
14.62
16.59
18.28
19.84
21.42
23.03
24.62
25.98
26.86
26.91
25.83
23.33
19.28
13.62
6.33
-2.32
-12.01
-22.38
-33.01
-43.43
-52.84
-60.31
-64.69
-65.1
-61.1
-52.98
-41.61
-28.12
-13.68
0.8
14.3
25.78
34.25
38.86
39.21
35.65
29.24
21.31
13.19
5.69
-0.74
-5.98
-9.86
-12.02
-12.13
-9.9
-5.51
0.44
7.16
14.01
20.74
27.4
34.32
41.45
48.35
54.03
57.4
57.54
54.18
47.72
38.99
28.97
18.41
7.83
-2.53
-12.33
-21.21
-28.65
-34.15
-37.44
-38.56
-38.04
-36.58
-35.12
-34.47
-35.07
-36.89
-39.28
-41.27
-41.75
-40.18
-36.54
-31.5
-26.06
-21.11
-17.23
-14.4
-12.47
-11.06
-10.02
-9.2
-8.45
-7.54
-6.12
-4.03
-1.24
2.06
5.84
10.11
15.15
21.12
27.68
34.08
39.23
42.02
41.7
38.26
32.25
24.61
16.36
8.28
0.99
-5.02
-9.42
-12.06
-12.85
-11.85
-9.3
-5.48
-0.92
3.81
8.23
11.81
14.08
14.72
13.37
9.74
3.72
-4.66
-14.88
-25.92
-36.34
-44.52
-48.98
-49.07
-44.85
-37.05
-26.82
-15.22
-3.1
8.92
20.3
