-0.95
1.35
3.61
5.61
7.17
8.22
8.82
9.06
8.99
8.69
8.19
7.58
7.02
6.69
6.71
7.1
7.74
8.44
9.01
9.32
9.35
9.14
8.77
8.3
7.79
7.25
6.7
6.11
5.47
4.82
4.16
3.55
2.94
2.26
1.44
0.39
-0.91
-2.4
-4.0
-5.61
-7.1
-8.38
-9.39
-10.11
-10.6
-11.0
-11.44
-11.95
-12.43
-12.67
-12.45
-11.62
-10.2
-8.32
-6.17
-3.89
-1.65
0.42
2.19
3.55
4.46
5.04
5.45
5.88
6.44
7.09
7.72
8.24
8.58
8.75
8.76
8.58
8.18
7.56
6.79
6.01
5.39
5.02
4.88
4.87
4.84
4.69
4.36
3.88
3.3
2.67
2.0
1.33
0.64
-0.09
-0.86
-1.67
-2.51
-3.4
-4.35
-5.35
-6.36
-7.3
-8.09
-8.67
-9.07
-9.39
-9.78
-10.36
-11.15
-12.05
-12.83
-13.21
-12.99
-12.08
-10.57
-8.68
-6.66
-4.72
-2.94
-1.31
0.19
1.63
3.02
4.31
5.45
6.36
6.92
7.1
6.91
6.49
6.07
5.88
6.04
6.54
7.18
7.73
8.03
8.01
7.72
7.3
6.81
6.27
5.65
4.93
4.09
3.18
2.2
1.17
0.06
-1.1
-2.2
-3.09
-3.6
-3.67
-3.34
-2.83
-2.41
-2.32
-2.7
-3.55
-4.77
-6.18
-7.62
-8.91
-9.99
-10.76
-11.22
-11.41
-11.38
-11.18
-10.87
-10.42
-9.74
-8.78
-7.45
-5.79
-3.91
-2.02
-0.3
1.11
2.19
3.02
3.78
4.6
5.53
6.49
7.39
8.08
8.51
8.74
8.83
8.88
8.93
9.0
9.05
9.06
9.06
9.01
8.87
8.58
8.05
7.26
6.25
5.16
4.12
3.23
2.48
1.79
1.08
0.27
-0.62
-1.53
-2.41
-3.3
-4.22
-5.17
-6.05
-6.7
-6.99
-6.97
-6.86
-6.98
-7.58
-8.7
-10.12
-11.46
-12.35
-12.58
-12.16
-11.16
-9.72
-7.91
-5.85
-3.73
-1.78
-0.2
0.94
1.76
2.52
3.42
4.52
5.68
6.64
7.21
7.33
7.21
7.09
7.15
7.39
7.65
7.72
7.47
6.95
6.34
5.91
5.79
5.96
6.23
6.33
6.05
5.33
4.28
3.09
1.99
1.07
0.36
-0.26
-0.91
-1.7
-2.66
-3.72
-4.77
-5.66
-6.34
-6.87
-7.38
-8.05
-8.98
-10.17
-11.54
-12.93
-14.21
-15.22
-15.8
-15.75
-14.95
-13.33
-11.02
-8.3
-5.54
-3.09
-1.14
0.28
1.29
2.11
2.94
3.9
5.02
6.16
7.15
7.78
7.93
7.63
7.05
6.47
6.13
6.18
6.61
7.3
8.04
8.58
8.78
8.56
7.98
7.18
6.35
5.64
5.1
4.66
4.21
3.63
2.87
1.97
1.01
0.07
-0.91
-1.93
-3.08
-4.34
-5.64
-6.88
-7.94
-8.78
-9.47
-10.13
-10.85
-11.71
-12.7
-13.76
-14.8
-15.68
-16.24
-16.27
-15.59
-14.14
-12.01
-9.4
-6.6
-3.9
-1.49
0.53
2.17
3.51
4.62
5.57
6.43
7.28
8.11
8.92
9.64
10.22
10.59
10.72
10.64
10.4
10.08
9.78
9.56
9.41
9.3
9.1
8.64
7.81
6.6
5.14
3.67
2.41
1.49
0.9
0.48
0.05
-0.52
-1.23
-2.0
-2.69
-3.23
-3.58
-3.79
-3.91
-4.03
-4.21
-4.55
-5.11
-5.92
-6.97
-8.13
-9.19
-9.89
-9.99
-9.38
-8.12
-6.4
-4.41
-2.33
-0.22
1.87
3.89
5.78
7.39
8.61
9.38
9.74
9.78
9.6
9.29
8.9
8.52
8.21
8.04
7.99
7.98
7.89
7.61
7.1
6.38
5.53
4.64
3.76
2.94
2.18
1.51
0.91
0.4
-0.05
-0.5
-1.03
-1.69
-2.49
-3.4
-4.33
-5.23
-6.01
-6.66
-7.18
-7.65
-8.17
-8.89
-9.92
-11.28
-12.87
-14.42
-15.6
-16.06
-15.54
-13.98
-11.53
-8.44
-5.05
-1.65
1.53
4.36
6.73
8.6
9.92
10.75
11.21
11.42
11.53
11.62
11.67
11.62
11.43
11.09
10.68
10.29
9.99
9.8
9.66
9.46
9.13
8.61
7.9
7.04
6.09
5.07
4.01
2.97
1.99
1.15
0.47
-0.08
-0.6
-1.16
-1.9
-2.82
-3.9
-5.04
-6.13
-7.11
-8.01
-8.9
-9.89
-11.08
-12.5
-14.09
-15.76
-17.34
-18.61
-19.3
-19.18
-18.05
-15.91
-12.94
-9.46
-5.87
-2.51
0.42
2.88
4.9
6.55
7.85
8.84
9.55
10.04
10.4
10.69
10.95
11.13
11.2
11.13
10.96
10.78
10.68
10.67
10.72
10.75
10.66
10.38
9.89
9.2
8.34
7.36
6.33
5.34
4.44
3.65
2.94
2.2
1.34
0.28
-0.95
-2.26
-3.53
-4.68
-5.68
-6.54
-7.31
-8.04
-8.73
-9.37
-9.99
-10.64
-11.39
-12.19
-12.93
-13.34
-13.13
-12.07
-10.11
-7.44
-4.39
-1.32
1.45
3.8
5.69
7.19
8.35
9.17
9.63
9.73
9.54
9.18
8.75
8.29
7.81
7.32
6.86
6.52
6.41
6.53
6.79
7.02
7.03
6.77
6.31
5.75
5.18
4.56
3.8
2.85
1.79
0.79
0.04
-0.36
-0.49
-0.57
-0.83
-1.44
-2.44
-3.68
-5.0
-6.22
-7.21
-7.93
-8.43
-8.83
-9.29
-9.92
-10.74
-11.67
-12.52
-13.06
-13.1
-12.49
-11.24
-9.42
-7.16
-4.66
-2.13
0.2
2.17
3.72
4.84
5.63
6.17
6.58
6.92
7.2
7.44
7.56
7.55
7.41
7.17
6.95
6.87
7.01
7.39
7.91
8.4
8.7
8.63
8.16
7.32
6.22
5.01
3.83
2.83
2.1
1.68
1.52
1.46
1.29
0.77
-0.27
-1.81
-3.69
-5.58
-7.17
-8.27
-8.92
-9.28
-9.58
-9.98
-10.51
-11.16
-11.89
-12.7
-13.62
-14.58
-15.36
-15.66
-15.17
-13.77
-11.56
-8.84
-6.05
-3.55
-1.59
-0.16
0.91
1.83
2.8
3.85
4.87
5.7
6.22
6.38
6.33
6.27
6.36
6.66
7.09
7.52
7.83
8.03
8.18
8.36
8.56
8.69
8.6
8.19
7.43
6.43
5.3
4.19
3.2
2.39
1.77
1.31
0.95
0.61
0.19
-0.38
-1.1
-1.94
-2.81
-3.61
-4.28
-4.84
-5.34
-5.86
-6.46
-7.15
-7.83
-8.36
-8.55
-8.27
-7.49
-6.23
-4.63
-2.8
-0.88
1.0
2.73
4.18
5.24
5.83
5.92
5.59
4.99
4.34
3.85
3.66
3.78
4.12
4.48
4.72
4.73
4.51
4.11
3.62
3.11
2.62
2.18
1.81
1.49
1.18
0.85
0.49
0.15
-0.11
-0.21
-0.12
0.07
0.29
0.39
0.28
-0.1
-0.69
-1.41
-2.13
-2.8
-3.46
-4.22
-5.23
-6.57
-8.22
-10.02
-11.72
-13.12
-14.05
-14.46
-14.33
-13.67
-12.52
-10.91
-8.97
-6.89
-4.93
-3.33
-2.19
-1.42
-0.82
-0.13
0.82
2.02
3.3
4.48
5.43
6.16
6.74
7.25
7.69
8.03
8.24
8.32
8.39
8.51
8.69
8.81
8.7
8.24
7.41
6.27
4.96
3.61
2.34
1.21
0.28
-0.48
-1.15
-1.84
-2.66
-3.65
-4.76
-5.82
-6.69
-7.27
-7.58
-7.74
-7.88
-8.15
-8.64
-9.42
-10.45
-11.63
-12.73
-13.42
-13.36
-12.32
-10.35
-7.73
-4.89
-2.32
-0.34
0.99
1.82
2.45
3.13
4.01
5.08
6.24
7.34
8.28
8.98
9.39
9.49
9.3
8.88
8.42
8.13
8.16
8.52
9.05
9.53
9.71
9.51
8.94
8.13
7.22
6.35
5.59
4.98
4.48
3.99
3.36
2.43
1.12
-0.51
-2.23
-3.69
-4.64
-4.98
-4.86
-4.59
-4.55
-4.98
-5.91
-7.17
-8.41
-9.33
-9.69
-9.4
-8.5
-7.11
-5.38
-3.49
-1.67
-0.09
1.12
1.95
2.5
2.93
3.4
3.95
4.51
4.97
5.24
5.35
5.41
5.54
5.81
6.19
6.59
6.86
6.89
6.66
6.23
5.7
5.17
4.7
4.25
3.81
3.28
2.65
1.88
1.0
0.01
-1.1
-2.34
-3.69
-5.05
-6.25
-7.18
-7.82
-8.24
-8.65
-9.29
-10.44
-12.43
-15.6
-20.17
-26.28
-33.79
-42.21
-50.77
-58.51
-64.5
-68.02
-68.62
-66.09
-60.48
-52.01
-41.14
-28.53
-15.0
-1.48
11.13
22.11
30.93
37.36
41.42
43.42
43.75
42.95
41.49
39.75
37.97
36.25
34.62
33.06
31.55
29.99
28.31
26.48
24.53
22.51
20.5
18.59
16.81
15.12
13.49
11.89
10.34
8.87
7.53
6.35
5.34
4.42
3.43
2.28
0.9
-0.66
-2.24
-3.63
-4.69
-5.4
-5.89
-6.43
-7.22
-8.28
-9.45
-10.4
-10.87
-10.67
-9.85
-8.57
-7.02
-5.39
-3.76
-2.19
-0.71
0.62
1.74
2.62
3.29
3.83
4.34
4.9
5.52
6.14
6.6
6.79
6.69
6.39
6.08
5.92
5.97
6.15
6.26
6.13
5.66
4.93
4.09
3.32
2.71
2.28
1.99
1.76
1.54
1.32
1.1
0.85
0.52
0.06
-0.53
-1.2
-1.9
-2.52
-3.06
-3.56
-4.06
-4.63
-5.29
-5.97
-6.64
-7.22
-7.65
-7.88
-7.82
-7.38
-6.52
-5.25
-3.68
-2.0
-0.39
1.03
2.17
3.06
3.68
4.05
4.16
4.07
3.91
3.85
4.02
4.42
4.91
5.3
5.41
5.16
4.65
4.04
3.52
3.18
3.01
2.96
2.94
2.91
2.84
2.72
2.53
2.26
1.88
1.42
0.87
0.28
-0.27
-0.76
-1.17
-1.55
-1.99
-2.56
-3.28
-4.06
-4.8
-5.37
-5.79
-6.12
-6.48
-6.97
-7.54
-8.08
-8.43
-8.49
-8.18
-7.54
-6.57
-5.33
-3.91
-2.46
-1.16
-0.13
0.58
1.08
1.47
1.85
2.24
2.54
2.67
2.61
2.46
2.33
2.36
2.59
3.0
3.55
4.19
4.88
5.53
6.07
6.39
6.39
6.04
5.38
4.47
3.34
2.09
0.81
-0.38
-1.32
-1.87
-2.0
-1.78
-1.39
-1.03
-0.86
-1.0
-1.46
-2.21
-3.17
-4.23
-5.27
-6.16
-6.9
-7.57
-8.31
-9.19
-10.14
-10.99
-11.48
-11.41
-10.74
-9.58
-8.07
-6.42
-4.7
-2.97
-1.31
0.2
1.45
2.38
3.02
3.46
3.82
4.17
4.52
4.83
5.06
5.18
5.19
5.18
5.16
5.19
5.22
5.2
5.09
4.85
4.5
4.04
3.49
2.84
2.1
1.3
0.5
-0.2
-0.72
-1.08
-1.35
-1.64
-2.02
-2.52
-3.09
-3.69
-4.25
-4.77
-5.27
-5.8
-6.34
-6.84
-7.29
-7.67
-8.0
-8.33
-8.7
-9.06
-9.28
-9.22
-8.75
-7.85
-6.59
-5.14
-3.68
-2.33
-1.09
0.03
1.06
2.02
2.89
3.63
4.19
4.51
4.6
4.51
4.37
4.28
4.31
4.48
4.74
5.07
5.43
5.82
6.24
6.63
6.92
7.03
6.91
6.55
6.03
5.42
4.8
4.19
3.54
2.76
1.81
0.68
-0.56
-1.75
-2.72
-3.38
-3.71
-3.83
-3.93
-4.2
-4.74
-5.59
-6.62
-7.64
-8.42
-8.74
-8.48
-7.66
-6.4
-4.92
-3.41
-1.97
-0.61
0.71
2.08
3.49
4.81
5.87
6.53
6.74
6.64
6.43
6.32
6.41
6.65
6.83
6.74
6.23
5.39
4.45
3.71
3.36
3.42
3.69
3.9
3.81
3.35
2.57
1.59
0.53
-0.6
-1.8
-3.05
-4.3
-5.43
-6.35
-7.05
-7.61
-8.15
-8.81
-9.6
-10.4
-10.99
-11.08
-10.49
-9.17
-7.29
-5.17
-3.16
-1.51
-0.3
0.53
1.17
1.83
2.64
3.65
4.81
6.0
7.08
7.96
8.58
8.95
9.11
9.1
8.97
8.75
8.49
8.22
7.94
7.63
7.22
6.63
5.84
4.88
3.84
2.84
1.95
1.22
0.63
0.13
-0.35
-0.86
-1.47
-2.21
-3.06
-3.93
-4.74
-5.42
-5.99
-6.56
-7.3
-8.35
-9.73
-11.27
-12.69
-13.63
-13.82
-13.15
-11.65
-9.57
-7.18
-4.78
-2.57
-0.65
0.93
2.18
3.17
3.98
4.73
5.54
6.48
7.56
8.68
9.68
10.38
10.66
10.49
10.0
9.36
8.73
8.24
7.87
7.55
7.16
6.67
6.06
5.39
4.71
4.03
3.29
2.44
1.43
0.33
-0.71
-1.56
-2.1
-2.41
-2.63
-2.97
-3.57
-4.45
-5.55
-6.83
-8.26
-9.81
-11.41
-12.86
-13.85
-14.09
-13.4
-11.87
-9.77
-7.44
-5.13
-2.89
-0.71
1.42
3.42
5.14
6.48
7.44
8.12
8.7
9.25
9.71
9.96
9.87
9.45
8.77
8.04
7.39
6.93
6.7
6.7
6.9
7.2
7.47
7.52
7.22
6.57
5.65
4.66
3.73
2.92
2.18
1.34
0.28
-1.07
-2.7
-4.5
-6.3
-7.96
-9.32
-10.32
-10.96
-11.35
-11.65
-12.03
-12.58
-13.3
-14.08
-14.72
-15.01
-14.77
-13.88
-12.29
-10.07
-7.4
-4.53
-1.75
0.7
2.7
4.18
5.19
5.8
6.11
6.26
6.38
6.6
7.02
7.63
8.29
8.83
9.08
8.97
8.62
8.2
7.9
7.81
7.9
8.01
7.95
7.61
6.96
6.12
5.23
4.42
3.72
3.07
2.37
1.57
0.67
-0.28
-1.15
-1.83
-2.23
-2.37
-2.34
-2.3
-2.47
-3.01
-4.0
-5.32
-6.73
-7.88
-8.46
-8.33
-7.53
-6.26
-4.79
-3.36
-2.08
-0.96
0.1
1.19
2.27
3.27
4.01
4.39
4.36
4.08
3.75
3.56
3.61
3.85
4.15
4.36
4.42
4.32
4.11
3.83
3.48
3.06
2.55
2.01
1.5
1.11
0.89
0.77
0.63
0.31
-0.25
-1.05
-1.93
-2.77
-3.49
-4.11
-4.73
-5.42
-6.17
-6.86
-7.38
-7.68
-7.88
-8.13
-8.56
-9.1
-9.52
-9.53
-8.89
-7.57
-5.77
-3.8
-1.97
-0.44
0.73
1.64
2.39
3.07
3.69
4.14
4.34
4.26
3.99
3.7
3.61
3.84
4.4
5.1
5.72
6.13
6.27
6.22
6.1
5.95
5.75
5.41
4.9
4.25
3.6
3.06
2.69
2.39
1.99
1.31
0.27
-1.04
-2.47
-3.84
-5.0
-5.89
-6.55
-7.05
-7.5
-7.97
-8.52
-9.13
-9.78
-10.45
-11.1
-11.7
-12.16
-12.34
-12.1
-11.31
-9.99
-8.29
-6.45
-4.67
-3.11
-1.8
-0.66
0.4
1.45
2.5
3.48
4.37
5.12
5.71
6.16
6.5
6.73
6.83
6.8
6.64
6.42
6.25
6.21
6.34
6.57
6.77
6.8
6.57
6.12
5.56
5.01
4.54
4.14
3.72
3.17
2.47
1.65
0.8
0.06
-0.51
-0.9
-1.16
-1.4
-1.7
-2.15
-2.77
-3.58
-4.52
-5.52
-6.49
-7.31
-7.9
-8.14
-8.0
-7.43
-6.49
-5.27
-3.89
-2.48
-1.1
0.2
1.42
2.58
3.61
4.46
5.04
5.31
5.28
5.07
4.8
4.61
4.57
4.69
4.93
5.2
5.43
5.55
5.56
5.44
5.22
4.89
4.45
3.92
3.34
2.75
2.21
1.69
1.15
0.53
-0.27
-1.29
-2.51
-3.83
-5.14
-6.26
-7.08
-7.56
-7.73
-7.75
-7.83
-8.14
-8.78
-9.7
-10.75
-11.68
-12.23
-12.2
-11.54
-10.3
-8.62
-6.71
-4.75
-2.89
-1.21
0.24
1.47
2.53
3.47
4.39
5.35
6.31
7.21
7.9
8.27
8.3
8.05
7.69
7.37
7.16
7.06
7.0
6.87
6.63
6.28
5.87
5.41
4.95
4.46
3.94
3.42
2.86
2.24
1.52
0.71
-0.15
-0.99
-1.78
-2.48
-3.15
-3.81
-4.49
-5.13
-5.69
-6.12
-6.49
-6.93
-7.56
-8.47
-9.62
-10.83
-11.89
-12.61
-12.86
-12.57
-11.74
-10.43
-8.73
-6.76
-4.66
-2.61
-0.76
0.75
1.89
2.66
3.18
3.57
3.99
4.52
5.19
5.94
6.71
7.39
7.95
8.41
8.79
9.16
9.52
9.87
10.18
10.37
10.38
10.11
9.52
8.64
7.54
6.35
5.16
4.02
2.91
1.8
0.68
-0.4
-1.38
-2.19
-2.82
-3.3
-3.68
-4.01
-4.29
-4.54
-4.77
-5.11
-5.68
-6.55
-7.69
-8.91
-9.92
-10.38
-10.08
-8.97
-7.18
-4.97
-2.64
-0.41
1.58
3.25
4.57
5.5
6.02
6.19
6.12
5.99
5.96
6.15
6.55
7.07
7.55
7.88
7.99
7.83
7.47
6.97
6.44
5.98
5.64
5.35
4.98
4.45
3.73
2.92
2.23
1.77
1.5
1.25
0.77
-0.14
-1.4
-2.84
-4.16
-5.18
-5.86
-6.34
-6.82
-7.42
-8.19
-9.05
-9.95
-10.79
-11.53
-12.08
-12.31
-12.07
-11.27
-9.9
-8.12
-6.17
-4.26
-2.54
-1.06
0.25
1.47
2.65
3.79
4.83
5.69
6.32
6.72
6.93
7.09
7.3
7.65
8.1
8.55
8.85
8.95
8.87
8.71
8.55
8.36
8.04
7.45
6.6
5.58
4.61
3.87
3.41
3.12
2.83
2.37
1.71
0.92
0.09
-0.73
-1.57
-2.46
-3.47
-4.59
-5.75
-6.87
-7.85
-8.65
-9.31
-9.96
-10.73
-11.71
-12.87
-13.97
-14.71
-14.73
-13.79
-11.92
-9.38
-6.58
-3.9
-1.61
0.22
1.62
2.74
3.67
4.49
5.23
5.9
6.5
7.03
7.46
7.71
7.73
7.48
6.99
6.39
5.83
5.47
5.36
5.5
5.72
5.85
5.72
5.23
4.44
3.48
2.57
1.89
1.53
1.46
1.53
1.58
1.47
1.15
0.61
-0.08
-0.89
-1.77
-2.65
-3.45
-4.15
-4.78
-5.41
-6.19
-7.17
-8.28
-9.34
-10.11
-10.36
-9.98
-8.96
-7.38
-5.39
-3.17
-0.92
1.14
2.84
4.07
4.85
5.27
5.48
5.63
5.8
6.02
6.26
6.47
6.59
6.55
6.31
5.86
5.24
4.56
3.98
3.58
3.38
3.29
3.17
2.87
2.36
1.67
0.94
0.3
-0.17
-0.46
-0.66
-0.8
-0.97
-1.21
-1.55
-2.01
-2.58
-3.23
-3.9
-4.58
-5.35
-6.3
-7.53
-8.96
-10.37
-11.44
-11.82
-11.33
-10.04
-8.19
-6.08
-3.97
-2.0
-0.22
1.34
2.66
3.7
4.45
4.95
5.31
5.63
5.98
6.33
6.63
6.79
6.81
6.74
6.71
6.81
7.04
7.32
7.52
7.51
7.24
6.73
6.05
5.33
4.64
4.04
3.56
3.17
2.82
2.4
1.81
0.96
-0.11
-1.29
-2.44
-3.42
-4.22
-4.87
-5.45
-6.01
-6.55
-7.01
-7.43
-7.92
-8.65
-9.77
-11.22
-12.68
-13.68
-13.78
-12.77
-10.78
-8.22
-5.57
-3.26
-1.44
-0.12
0.85
1.63
2.35
3.05
3.72
4.32
4.8
5.13
5.31
5.4
5.45
5.54
5.68
5.85
6.03
6.18
6.32
6.45
6.53
6.5
6.25
5.7
4.87
3.85
2.77
1.78
1.0
0.43
0.02
-0.36
-0.81
-1.37
-2.01
-2.6
-3.06
-3.38
-3.62
-3.89
-4.33
-4.97
-5.82
-6.82
-7.92
-9.03
-10.07
-10.89
-11.32
-11.19
-10.39
-8.89
-6.8
-4.34
-1.82
0.44
2.22
3.46
4.27
4.88
5.48
6.15
6.82
7.37
7.67
7.74
7.66
7.57
7.56
7.64
7.75
7.85
7.92
7.97
8.01
7.94
7.68
7.13
6.26
5.17
4.04
3.03
2.26
1.7
1.23
0.7
0.02
-0.84
-1.82
-2.81
-3.77
-4.68
-5.55
-6.36
-7.08
-7.67
-8.12
-8.53
-9.01
-9.66
-10.42
-11.06
-11.22
-10.59
-9.03
-6.72
-4.03
-1.46
0.6
2.0
2.84
3.42
3.99
4.69
5.45
6.09
6.41
6.37
6.03
5.58
5.23
5.1
5.24
5.6
6.04
6.44
6.65
6.59
6.22
5.63
4.92
4.22
3.56
2.89
2.16
1.36
0.55
-0.17
-0.71
-1.13
-1.54
-2.07
-2.72
-3.41
-3.96
-4.3
-4.42
-4.45
-4.55
-4.85
-5.37
-6.09
-6.97
-7.97
-9.07
-10.21
-11.22
-11.87
-11.92
-11.26
-9.93
-8.11
-6.08
-4.12
-2.38
-0.93
0.28
1.33
2.31
3.22
4.02
4.69
5.17
5.43
5.5
5.44
5.31
5.19
5.1
5.05
5.0
4.93
4.83
4.7
4.57
4.45
4.36
4.28
4.17
3.99
3.7
3.31
2.81
2.21
1.55
0.89
0.28
-0.21
-0.61
-0.98
-1.46
-2.15
-3.08
-4.2
-5.34
-6.38
-7.18
-7.75
-8.15
-8.49
-8.9
-9.42
-9.96
-10.35
-10.38
-9.86
-8.77
-7.2
-5.32
-3.33
-1.35
0.58
2.43
4.15
5.67
6.89
7.74
8.23
8.41
8.39
8.34
8.4
8.66
9.11
9.62
10.01
10.11
9.8
9.12
8.19
7.19
6.28
5.53
4.93
4.41
3.87
3.21
2.37
1.43
0.48
-0.33
-0.92
-1.33
-1.67
-2.08
-2.6
-3.19
-3.73
-4.12
-4.37
-4.59
-4.97
-5.65
-6.68
-8.02
-9.48
-10.84
-11.84
-12.25
-11.92
-10.83
-9.12
-6.98
-4.69
-2.49
-0.57
0.97
2.12
2.9
3.39
3.69
3.92
4.14
4.4
4.7
5.0
5.26
5.5
5.71
5.91
6.11
6.3
6.44
6.5
6.47
6.38
6.24
6.08
5.84
5.44
4.8
3.9
2.8
1.67
0.71
0.06
-0.28
-0.45
-0.65
-1.08
-1.83
-2.82
-3.91
-4.9
-5.67
-6.16
-6.47
-6.73
-7.16
-7.86
-8.86
-9.97
-10.94
-11.45
-11.32
-10.5
-9.14
-7.46
-5.71
-4.05
-2.56
-1.27
-0.21
0.62
1.24
1.68
2.07
2.52
3.05
3.66
4.26
4.77
5.14
5.46
5.81
6.3
6.93
7.57
8.06
8.18
7.79
6.9
5.61
4.12
2.62
1.33
0.4
-0.06
-0.04
0.4
1.1
1.8
2.21
2.13
1.42
0.13
-1.55
-3.33
-4.9
-6.05
-6.74
-7.1
-7.35
-7.76
-8.44
-9.38
-10.35
-11.08
-11.35
-11.03
-10.15
-8.81
-7.15
-5.29
-3.33
-1.38
0.43
1.95
3.07
3.76
4.06
4.11
4.06
4.08
4.28
4.69
5.28
6.0
6.76
7.49
8.13
8.62
8.93
9.04
8.9
8.55
8.01
7.32
6.54
5.74
4.96
4.25
3.6
3.02
2.4
1.69
0.76
-0.4
-1.79
-3.3
-4.79
-6.14
-7.2
-7.94
-8.37
-8.66
-8.98
-9.51
-10.34
-11.37
-12.37
-13.01
-13.01
-12.19
-10.55
-8.27
-5.61
-2.88
-0.31
1.92
3.72
5.06
5.96
6.48
6.7
6.74
6.72
6.77
6.97
7.34
7.77
8.1
8.18
7.91
7.33
6.57
5.86
5.36
5.16
5.21
5.41
5.62
5.74
5.68
5.38
4.84
4.12
3.3
2.48
1.73
1.04
0.32
-0.56
-1.66
-2.96
-4.39
-5.86
-7.35
-8.91
-10.58
-12.36
-14.12
-15.6
-16.55
-16.78
-16.21
-14.94
-13.13
-11.02
-8.81
-6.66
-4.6
-2.62
-0.66
1.28
3.15
4.83
6.19
7.13
7.59
7.62
7.26
6.67
5.99
5.4
5.03
4.92
5.07
5.38
5.76
6.13
6.43
6.63
6.72
6.68
6.47
6.06
5.47
4.75
3.97
3.18
2.39
1.52
0.53
-0.63
-1.91
-3.15
-4.16
-4.73
-4.8
-4.39
-3.71
-2.97
-2.43
-2.31
-2.76
-3.81
-5.42
-7.38
-9.42
-11.18
-12.37
-12.8
-12.45
-11.4
-9.86
-8.05
-6.14
-4.23
-2.36
-0.5
1.36
3.23
5.07
6.79
8.26
9.39
10.16
10.61
10.89
11.11
11.38
11.72
12.05
12.32
12.45
12.45
12.34
12.12
11.77
11.26
10.56
9.64
8.58
7.46
6.34
5.26
4.18
3.03
1.74
0.21
-1.59
-3.61
-5.72
-7.67
-9.25
-10.31
-10.9
-11.18
-11.41
-11.72
-12.1
-12.36
-12.25
-11.55
-10.21
-8.3
-5.99
-3.51
-1.03
1.26
3.22
4.72
5.68
6.11
6.13
5.95
5.83
5.98
6.5
7.32
8.23
8.99
9.42
9.47
9.23
8.79
8.25
7.63
6.88
6.01
5.07
4.18
3.42
2.84
2.39
1.91
1.29
0.44
-0.61
-1.73
-2.76
-3.58
-4.13
-4.47
-4.76
-5.17
-5.86
-6.87
-8.16
-9.67
-11.28
-12.87
-14.26
-15.2
-15.43
-14.75
-13.14
-10.79
-8.08
-5.39
-2.98
-0.94
0.81
2.36
3.76
4.94
5.87
6.5
6.87
7.05
7.09
7.01
6.8
6.49
6.13
5.82
5.63
5.62
5.8
6.11
6.49
6.84
7.04
6.97
6.61
5.95
5.08
4.11
3.13
2.18
1.28
0.37
-0.59
-1.65
-2.83
-4.08
-5.27
-6.28
-6.98
-7.37
-7.5
-7.54
-7.62
-7.87
-8.36
-9.1
-10.05
-11.1
-12.09
-12.71
-12.72
-11.89
-10.19
-7.74
-4.86
-1.88
0.86
3.18
4.99
6.3
7.21
7.81
8.19
8.43
8.59
8.72
8.84
8.97
9.05
9.02
8.83
8.48
8.04
7.57
7.13
6.74
6.39
6.08
5.82
5.59
5.38
5.15
4.88
4.57
4.25
3.97
3.7
3.29
2.58
1.43
-0.21
-2.2
-4.34
-6.44
-8.41
-10.27
-12.07
-13.81
-15.34
-16.41
-16.69
-15.92
-14.01
-11.08
-7.41
-3.45
0.34
3.54
5.88
7.26
7.83
7.83
7.51
7.1
6.66
6.19
5.61
4.93
4.22
3.62
3.29
3.31
3.69
4.36
5.2
6.04
6.76
7.21
7.31
7.04
6.44
5.58
4.55
3.42
2.21
0.94
-0.37
-1.68
-2.93
-4.07
-5.05
-5.85
-6.47
-6.87
-7.03
-6.92
-6.57
-6.07
-5.6
-5.39
-5.64
-6.47
-7.83
-9.51
-11.21
-12.57
-13.3
-13.23
-12.32
-10.67
-8.45
-5.88
-3.2
-0.66
1.52
3.23
4.47
5.35
6.08
6.84
7.73
8.69
9.57
10.13
10.21
9.76
8.82
7.52
6.05
4.53
3.13
1.98
1.21
0.93
1.11
1.62
2.18
2.49
2.4
1.94
1.35
0.93
0.86
1.1
1.4
1.42
0.92
-0.13
-1.51
-2.93
-4.19
-5.23
-6.14
-7.05
-8.02
-8.97
-9.75
-10.25
-10.39
-10.16
-9.59
-8.63
-7.27
-5.49
-3.36
-1.06
1.17
3.11
4.64
5.7
6.35
6.71
6.9
6.96
6.98
6.95
6.93
6.93
6.99
7.13
7.34
7.63
7.99
8.42
8.92
9.41
9.78
9.88
9.59
8.88
7.8
6.44
4.89
3.24
1.5
-0.32
-2.17
-3.98
-5.65
-7.15
-8.49
-9.72
-10.9
-11.99
-12.88
-13.46
-13.6
-13.29
-12.56
-11.49
-10.11
-8.44
-6.47
-4.22
-1.78
0.72
3.11
5.19
6.77
7.73
7.97
7.52
6.54
5.24
3.91
2.75
1.94
1.52
1.5
1.83
2.43
3.23
4.16
5.14
6.11
7.0
7.75
8.27
8.45
8.19
7.4
6.09
4.37
2.44
0.5
-1.31
-2.99
-4.62
-6.25
-7.8
-9.06
-9.73
-9.59
-8.68
-7.25
-5.71
-4.46
-3.68
-3.4
-3.48
-3.82
-4.31
-4.95
-5.67
-6.36
-6.89
-7.1
-6.9
-6.33
-5.53
-4.67
-3.93
-3.37
-2.97
-2.62
-2.21
-1.67
-1.02
-0.34
0.3
0.87
1.43
2.07
2.84
3.73
4.61
5.38
5.96
6.31
6.44
6.38
6.12
5.62
4.89
3.98
3.04
2.3
1.96
2.11
2.71
3.58
4.45
5.07
5.29
5.03
4.35
3.32
2.04
0.6
-0.91
-2.45
-3.96
-5.44
-6.91
-8.36
-9.81
-11.17
-12.33
-13.15
-13.49
-13.25
-12.42
-10.99
-9.05
-6.66
-3.93
-1.08
1.64
3.95
5.65
6.66
7.13
7.32
7.52
7.91
8.51
9.15
9.59
9.65
9.29
8.61
7.76
6.92
6.18
5.58
5.09
4.72
4.46
4.31
4.25
4.19
4.04
3.68
3.08
2.22
1.17
-0.04
-1.35
-2.73
-4.1
-5.36
-6.43
-7.31
-8.1
-8.89
-9.76
-10.61
-11.22
-11.33
-10.75
-9.48
-7.66
-5.62
-3.59
-1.73
-0.08
1.34
2.52
3.41
3.95
4.15
4.06
3.78
3.43
3.15
3.02
3.1
3.39
3.86
4.43
5.06
5.67
6.23
6.69
6.99
7.05
6.76
6.09
5.1
3.94
2.8
1.79
0.9
-0.02
-1.09
-2.44
-4.07
-5.85
-7.62
-9.25
-10.83
-12.6
-14.95
-18.22
-22.7
-28.58
-35.76
-43.91
-52.35
-60.2
-66.43
-70.05
-70.34
-66.97
-60.04
-50.06
-37.87
-24.4
-10.66
2.39
13.99
23.56
30.82
35.82
38.87
40.36
40.76
40.46
39.69
38.58
37.24
35.74
34.16
32.56
30.86
29.0
26.99
24.86
22.72
20.66
18.76
17.03
15.42
13.86
12.36
10.98
9.72
8.59
7.48
6.28
4.92
3.37
1.73
0.13
-1.32
-2.62
-3.83
-5.09
-6.45
-7.9
-9.36
-10.68
-11.67
-12.16
-11.98
-11.04
-9.26
-6.71
-3.56
-0.14
3.16
5.98
8.12
9.56
10.46
11.06
11.56
12.02
12.35
12.4
12.05
11.29
10.2
8.9
7.5
6.11
4.82
3.75
3.03
2.75
2.93
3.48
4.22
4.93
5.44
5.65
5.5
5.03
4.25
3.18
1.84
0.29
-1.42
-3.18
-4.91
-6.56
-8.12
-9.65
-11.17
-12.62
-13.8
-14.45
-14.34
-13.36
-11.56
-9.16
-6.44
-3.66
-1.05
1.22
3.06
4.43
5.31
5.76
5.82
5.57
5.08
4.45
3.77
3.19
