8.28
8.63
9.05
9.56
10.15
10.77
11.38
11.86
12.16
12.29
12.3
12.3
12.35
12.41
12.38
12.15
11.7
11.14
10.61
10.21
9.89
9.48
8.7
7.37
5.44
3.02
0.35
-2.33
-4.85
-7.15
-9.25
-11.23
-13.09
-14.75
-16.1
-17.03
-17.59
-17.86
-18.05
-18.28
-18.51
-18.54
-18.08
-16.85
-14.7
-11.68
-8.02
-4.07
-0.24
3.14
5.84
7.78
9.04
9.8
10.22
10.42
10.41
10.15
9.62
8.83
7.82
6.65
5.33
3.85
2.27
0.7
-0.66
-1.61
-2.0
-1.83
-1.27
-0.54
0.11
0.59
0.92
1.16
1.43
1.78
2.13
2.36
2.27
1.68
0.51
-1.19
-3.27
-5.46
-7.53
-9.29
-10.67
-11.63
-12.16
-12.17
-11.54
-10.21
-8.15
-5.49
-2.45
0.68
3.59
5.97
7.54
8.09
7.57
6.1
3.96
1.52
-0.87
-3.01
-4.73
-5.92
-6.46
-6.2
-5.05
-3.1
-0.61
2.04
4.46
6.36
7.6
8.2
8.25
7.9
7.27
6.44
5.46
4.34
3.06
1.63
0.11
-1.38
-2.65
-3.51
-3.87
-3.75
-3.27
-2.58
-1.82
-1.11
-0.45
0.13
0.64
1.05
1.37
1.53
1.44
0.97
-0.03
-1.61
-3.72
-6.13
-8.48
-10.35
-11.42
-11.5
-10.61
-8.94
-6.73
-4.26
-1.79
0.44
2.22
3.4
3.89
3.73
3.05
2.04
0.87
-0.34
-1.55
-2.7
-3.66
-4.24
-4.23
-3.53
-2.2
-0.41
1.6
3.64
5.59
7.37
8.86
9.9
10.26
9.84
8.65
6.93
4.97
3.1
1.56
0.4
-0.37
-0.77
-0.82
-0.5
0.18
1.13
2.13
2.94
3.3
3.09
2.29
0.99
-0.62
-2.33
-3.91
-5.17
-5.94
-6.15
-5.72
-4.73
-3.33
-1.7
-0.1
1.24
2.17
2.63
2.68
2.43
1.98
1.4
0.75
0.08
-0.5
-0.86
-0.89
-0.55
0.14
1.04
1.99
2.84
3.45
3.75
3.73
3.41
2.87
2.25
1.65
1.17
0.84
0.59
0.38
0.14
-0.11
-0.3
-0.35
-0.2
0.09
0.44
0.68
0.73
0.52
0.09
-0.49
-1.17
-1.84
-2.4
-2.8
-3.0
-3.09
-3.24
-3.59
-4.18
-4.93
-5.58
-5.86
-5.6
-4.82
-3.72
-2.58
-1.63
-1.01
-0.7
-0.58
-0.48
-0.3
-0.0
0.39
0.8
1.18
1.49
1.74
1.97
2.2
2.42
2.61
2.83
3.11
3.54
4.1
4.72
5.26
5.59
5.61
5.37
4.99
4.61
4.29
4.02
3.69
3.24
2.67
2.04
1.43
0.86
0.27
-0.44
-1.3
-2.29
-3.28
-4.13
-4.76
-5.18
-5.5
-5.83
-6.19
-6.53
-6.78
-6.89
-6.88
-6.83
-6.81
-6.8
-6.69
-6.28
-5.42
-4.06
-2.31
-0.41
1.29
2.57
3.33
3.68
3.82
3.98
4.19
4.44
4.58
4.54
4.37
4.18
4.08
4.13
4.29
4.51
4.77
5.07
5.45
5.89
6.3
6.59
6.69
6.62
6.41
6.11
5.7
5.11
4.32
3.37
2.4
1.6
1.09
0.85
0.77
0.68
0.4
-0.11
-0.89
-1.87
-2.98
-4.14
-5.27
-6.28
-7.07
-7.64
-8.02
-8.31
-8.59
-8.83
-8.95
-8.75
-8.1
-6.92
-5.31
-3.5
-1.77
-0.35
0.66
1.25
1.52
1.59
1.54
1.41
1.21
0.95
0.69
0.5
0.49
0.75
1.27
1.97
2.66
3.18
3.43
3.45
3.38
3.4
3.65
4.08
4.51
4.75
4.61
4.06
3.23
2.32
1.52
0.98
0.69
0.56
0.47
0.28
-0.08
-0.65
-1.41
-2.26
-3.12
-3.89
-4.46
-4.8
-4.92
-4.9
-4.86
-4.94
-5.2
-5.64
-6.22
-6.8
-7.25
-7.43
-7.22
-6.51
-5.29
-3.66
-1.79
0.01
1.48
2.45
2.86
2.83
2.53
2.14
1.83
1.7
1.78
2.06
2.45
2.87
3.2
3.4
3.45
3.41
3.39
3.46
3.68
3.97
4.2
4.22
3.92
3.32
2.51
1.7
1.03
0.64
0.54
0.64
0.81
0.93
0.89
0.63
0.18
-0.41
-1.05
-1.72
-2.39
-3.04
-3.64
-4.15
-4.53
-4.79
-4.92
-5.0
-5.05
-5.09
-5.09
-5.07
-5.09
-5.26
-5.61
-6.07
-6.41
-6.33
-5.62
-4.27
-2.52
-0.73
0.76
1.76
2.35
2.7
3.03
3.41
3.8
4.1
4.25
4.29
4.33
4.5
4.8
5.17
5.45
5.52
5.38
5.15
4.99
5.03
5.33
5.79
6.29
6.68
6.83
6.68
6.22
5.47
4.5
3.41
2.27
1.15
0.14
-0.72
-1.43
-2.03
-2.57
-3.14
-3.74
-4.33
-4.83
-5.17
-5.4
-5.61
-5.9
-6.34
-6.86
-7.3
-7.49
-7.28
-6.64
-5.6
-4.27
-2.76
-1.21
0.25
1.49
2.37
2.82
2.85
2.55
2.07
1.6
1.24
1.04
0.95
0.91
0.87
0.88
1.01
1.33
1.88
2.56
3.28
3.88
4.29
4.47
4.48
4.37
4.22
4.04
3.86
3.62
3.31
2.93
2.54
2.18
1.91
1.7
1.48
1.13
0.52
-0.35
-1.4
-2.48
-3.42
-4.15
-4.67
-5.1
-5.51
-5.95
-6.39
-6.79
-7.13
-7.43
-7.71
-7.95
-8.08
-8.01
-7.65
-7.0
-6.1
-5.05
-3.92
-2.78
-1.68
-0.69
0.13
0.75
1.15
1.38
1.49
1.52
1.54
1.54
1.53
1.54
1.64
1.9
2.41
3.16
4.06
5.01
5.91
6.68
7.34
7.87
8.23
8.34
8.07
7.33
6.15
4.67
3.11
1.74
0.77
0.31
0.3
0.61
0.96
1.1
0.77
-0.1
-1.44
-3.05
-4.69
-6.12
-7.2
-7.9
-8.24
-8.33
-8.28
-8.24
-8.33
-8.59
-8.95
-9.27
-9.31
-8.88
-7.94
-6.59
-5.01
-3.43
-2.05
-0.91
-0.01
0.71
1.29
1.76
2.12
2.41
2.71
3.07
3.54
4.05
4.5
4.78
4.81
4.62
4.35
4.18
4.23
4.57
5.07
5.57
5.89
5.92
5.69
5.27
4.76
4.23
3.67
3.02
2.26
1.43
0.59
-0.16
-0.72
-1.09
-1.31
-1.48
-1.69
-1.97
-2.31
-2.69
-3.05
-3.37
-3.63
-3.89
-4.18
-4.51
-4.86
-5.18
-5.37
-5.33
-5.02
-4.44
-3.65
-2.73
-1.72
-0.66
0.45
1.56
2.6
3.47
4.11
4.52
4.76
4.92
5.05
5.19
5.35
5.58
5.9
6.36
6.94
7.6
8.23
8.75
9.13
9.38
9.53
9.62
9.65
9.6
9.41
9.06
8.51
7.71
6.63
5.25
3.66
1.99
0.41
-0.99
-2.23
-3.46
-4.84
-6.43
-8.16
-9.84
-11.21
-12.17
-12.75
-13.13
-13.5
-13.95
-14.39
-14.63
-14.42
-13.59
-12.13
-10.15
-7.82
-5.35
-2.89
-0.56
1.54
3.34
4.79
5.98
7.03
8.11
9.28
10.44
11.33
11.65
11.24
10.12
8.59
7.05
5.84
5.1
4.76
4.57
4.26
3.7
2.92
2.08
1.41
1.07
1.03
1.23
1.46
1.6
1.6
1.48
1.31
1.12
0.96
0.81
0.72
0.7
0.68
0.38
-0.67
-2.92
-6.58
-11.36
-16.49
-21.02
-24.16
-25.66
-25.83
-25.25
-24.42
-23.46
-22.17
-20.2
-17.41
-13.98
-10.39
-7.1
-4.35
-2.08
-0.04
2.0
4.16
6.39
8.58
10.6
12.46
14.2
15.85
17.35
18.6
19.51
20.05
20.28
20.29
20.19
20.02
19.82
19.61
19.38
19.13
18.75
18.13
17.09
15.54
13.44
10.91
8.11
5.22
2.38
-0.39
-3.06
-5.64
-8.06
-10.2
-11.89
-12.98
-13.4
-13.2
-12.55
-11.7
-10.85
-10.15
-9.62
-9.23
-8.91
-8.57
-8.1
-7.35
-6.14
-4.29
-1.74
1.4
4.87
8.39
11.68
14.59
17.09
19.2
20.96
22.35
23.32
23.77
23.61
22.79
21.33
19.36
17.1
14.79
12.68
10.85
9.26
7.75
6.16
4.4
2.43
0.33
-1.82
-3.93
-5.93
-7.78
-9.49
-11.1
-12.7
-14.37
-16.12
-17.95
-19.71
-21.26
-22.45
-23.2
-23.46
-23.25
-22.59
-21.57
-20.36
-19.14
-18.11
-17.37
-16.95
-16.73
-16.6
-16.49
-16.42
-16.54
-16.97
-17.8
-18.91
-20.07
-20.98
-21.36
-21.11
-20.26
-19.06
-17.81
-16.81
-16.21
-15.97
-15.81
-15.37
-14.31
-12.45
-9.93
-7.06
-4.2
-1.62
0.6
2.56
4.38
6.16
7.92
9.67
11.44
13.32
15.35
17.41
19.2
20.28
20.29
19.09
16.9
14.13
11.35
8.94
7.11
5.78
4.78
3.93
3.17
2.53
2.04
1.68
1.33
0.87
0.25
-0.48
-1.12
-1.48
-1.42
-0.99
-0.37
0.24
0.79
1.38
2.25
3.58
5.4
7.53
9.65
11.39
12.51
12.93
12.73
12.1
11.23
10.3
9.41
8.63
7.96
7.37
6.83
6.36
6.02
5.92
6.21
6.97
8.19
9.81
11.61
13.32
14.66
15.38
15.41
14.79
13.67
12.23
10.62
8.93
7.23
5.53
3.83
2.12
0.34
-1.55
-3.57
-5.66
-7.77
-9.78
-11.64
-13.33
-14.88
-16.29
-17.53
-18.58
-19.38
-19.92
-20.16
-20.09
-19.68
-18.85
-17.52
-15.56
-12.86
-9.43
-5.41
-1.13
2.95
6.33
8.73
10.12
10.74
10.96
11.09
11.31
11.55
11.68
11.54
11.06
10.21
9.01
7.46
5.56
3.37
1.03
-1.25
-3.25
-4.81
-5.88
-6.49
-6.74
-6.76
-6.69
-6.67
-6.76
-6.97
-7.17
-7.19
-6.88
-6.16
-5.09
-3.85
-2.65
-1.61
-0.74
0.04
0.85
1.71
2.56
3.28
3.72
3.75
3.36
2.62
1.64
0.55
-0.53
-1.54
-2.4
-3.07
-3.49
-3.62
-3.52
-3.24
-2.89
-2.53
-2.2
-1.84
-1.43
-0.97
-0.49
-0.1
0.22
0.51
0.87
1.35
1.87
2.28
2.43
2.33
2.1
2.02
2.32
3.05
4.13
5.34
6.45
7.29
7.78
7.9
7.67
7.17
6.48
5.73
5.05
4.51
4.11
3.78
3.35
2.63
1.47
-0.21
-2.31
-4.62
-6.82
-8.67
-10.02
-10.93
-11.55
-12.0
-12.35
-12.53
-12.47
-12.12
-11.5
-10.66
-9.63
-8.33
-6.67
-4.57
-2.08
0.56
3.02
4.97
6.24
6.82
6.84
6.55
6.15
5.8
5.64
5.73
6.07
6.61
7.17
7.54
7.54
7.13
6.41
5.55
4.74
4.04
3.41
2.76
2.01
1.18
0.37
-0.36
-0.99
-1.58
-2.25
-3.06
-4.0
-4.95
-5.75
-6.25
-6.38
-6.17
-5.7
-5.11
-4.44
-3.74
-3.02
-2.32
-1.73
-1.27
-0.93
-0.6
-0.11
0.69
1.82
3.19
4.64
5.96
7.05
7.82
8.27
8.37
8.06
7.31
6.16
4.74
3.26
1.91
0.88
0.21
-0.13
-0.23
-0.22
-0.16
-0.14
-0.18
-0.3
-0.48
-0.68
-0.84
-0.92
-0.91
-0.81
-0.7
-0.63
-0.64
-0.72
-0.89
-1.09
-1.3
-1.52
-1.75
-1.98
-2.2
-2.38
-2.51
-2.6
-2.71
-2.88
-3.2
-3.69
-4.31
-4.99
-5.62
-6.15
-6.52
-6.73
-6.76
-6.58
-6.15
-5.47
-4.59
-3.6
-2.61
-1.72
-0.96
-0.31
0.31
0.94
1.62
2.29
2.87
3.29
3.52
3.62
3.72
3.93
4.33
4.9
5.51
6.0
6.25
6.28
6.16
6.02
5.93
5.88
5.8
5.56
5.08
4.35
3.45
2.53
1.73
1.16
0.77
0.52
0.29
0.01
-0.35
-0.77
-1.2
-1.56
-1.77
-1.77
-1.48
-0.87
0.02
1.14
2.42
3.82
5.36
7.15
9.26
11.72
14.43
17.22
19.88
22.27
24.32
26.11
27.72
29.17
30.36
31.13
31.25
30.61
29.18
27.09
24.53
21.72
18.77
15.65
12.22
8.31
3.82
-1.2
-6.47
-11.66
-16.41
-20.6
-24.37
-28.17
-32.5
-37.76
-44.1
-51.26
-58.63
-65.27
-69.95
-71.36
-68.51
-61.19
-50.3
-37.7
-25.56
-15.54
-8.02
-2.01
4.2
12.04
21.94
33.04
43.7
52.25
57.51
59.17
57.58
53.43
47.42
40.17
32.08
23.53
14.89
6.68
-0.39
-5.45
-7.64
-6.34
-1.41
6.71
17.08
28.44
39.5
49.06
56.28
60.59
61.75
59.67
54.43
46.29
35.95
24.65
14.07
6.0
1.84
2.11
6.26
12.9
20.49
27.97
35.27
43.24
53.2
66.36
83.45
104.62
129.5
157.07
185.29
210.71
228.7
234.5
224.83
199.39
161.28
115.93
69.1
24.97
-14.73
-50.14
-81.89
-109.79
-132.5
-148.24
-155.89
-155.78
-149.46
-139.02
-126.19
-111.88
-96.48
-80.34
-64.28
-49.6
-37.86
-30.19
-27.01
-27.9
-31.92
-38.08
-45.68
-54.55
-64.86
-76.82
-90.23
-104.32
-117.84
-129.4
-137.86
-142.62
-143.61
-141.14
-135.62
-127.43
-116.91
-104.52
-90.94
-77.0
-63.62
-51.51
-41.21
-33.0
-26.94
-22.94
-20.74
-19.87
-19.72
-19.72
-19.44
-18.73
-17.67
-16.45
-15.23
-14.05
-12.82
-11.42
-9.85
-8.2
-6.67
-5.4
-4.42
-3.64
-2.91
-2.09
-1.14
-0.12
0.91
1.91
2.91
3.91
4.86
5.65
6.19
6.42
6.43
6.36
6.41
6.65
7.07
7.59
8.08
8.46
8.69
8.78
8.73
8.57
8.27
7.84
7.29
6.63
5.89
5.17
4.56
4.21
4.22
4.62
5.36
6.31
7.35
8.37
9.35
10.31
11.3
12.32
13.31
14.15
14.73
15.0
15.01
14.93
14.87
14.92
15.04
15.14
15.06
14.72
14.05
13.08
11.83
10.34
8.68
6.92
5.17
3.54
2.15
1.1
0.45
0.27
0.51
1.07
1.76
2.36
2.68
2.58
1.98
0.88
-0.61
-2.28
-3.83
-4.93
-5.31
-4.91
-3.86
-2.42
-0.88
0.64
2.12
3.6
5.14
6.68
8.11
9.35
10.35
11.15
11.82
12.39
12.79
12.95
12.76
12.21
11.33
10.22
9.06
7.95
6.95
6.01
5.07
4.08
3.04
1.94
0.74
-0.72
-2.57
-4.87
-7.43
-9.85
-11.65
-12.46
-12.26
-11.35
-10.22
-9.34
-8.93
-8.9
-9.0
-8.85
-8.08
-6.42
-3.68
0.19
5.06
10.61
16.37
21.81
26.41
29.83
31.79
32.12
30.82
28.01
24.14
19.84
15.84
12.72
10.76
9.89
9.83
10.18
10.44
10.09
8.44
4.84
-1.03
-8.85
-17.54
-25.45
-30.99
-33.31
-32.61
-30.15
-27.62
-26.39
-26.91
-28.58
-30.01
-29.76
-26.9
-21.37
-14.02
-6.19
0.68
5.54
7.98
8.22
7.02
5.3
3.87
3.16
3.2
3.7
4.33
4.81
5.13
5.38
5.65
5.88
5.89
5.53
4.76
3.83
3.09
2.87
3.24
3.97
4.69
5.1
5.17
5.24
5.89
7.66
10.74
14.92
19.6
24.05
27.68
30.16
31.48
31.82
31.38
30.33
28.79
26.86
24.62
22.13
19.35
16.16
12.47
8.27
3.77
-0.74
-4.95
-8.76
-12.28
-15.75
-19.31
-22.84
-25.92
-28.01
-28.66
-27.67
-25.14
-21.39
-16.82
-11.89
-7.05
-2.8
0.39
2.17
2.46
1.5
-0.2
-2.07
-3.71
-4.99
-6.05
-7.12
-8.35
-9.69
-10.94
-11.78
-11.98
-11.47
-10.31
-8.69
-6.83
-4.86
-2.89
-1.03
0.67
2.12
3.24
4.0
4.4
4.45
4.22
3.72
2.96
1.96
0.77
-0.46
-1.51
-2.23
-2.55
-2.59
-2.53
-2.6
-2.86
-3.26
-3.59
-3.63
-3.26
-2.53
-1.6
-0.68
0.09
0.7
1.19
1.66
2.14
2.64
3.1
3.5
3.84
4.16
4.45
4.68
4.79
4.75
4.6
4.43
4.31
4.24
4.12
3.83
3.29
2.56
1.78
1.09
0.55
0.04
-0.65
-1.76
-3.41
-5.55
-7.94
-10.29
-12.29
-13.7
-14.41
-14.39
-13.75
-12.68
-11.42
-10.24
-9.35
-8.77
-8.35
-7.78
-6.74
-5.05
-2.75
-0.08
2.63
5.13
7.23
8.83
9.81
9.98
9.14
7.12
3.94
-0.22
-4.97
-9.89
-14.49
-18.37
-21.16
-22.67
-22.9
-22.04
-20.5
-18.8
-17.47
-16.9
-17.29
-18.59
-20.63
-23.12
-25.81
-28.47
-30.89
-32.87
-34.18
-34.55
-33.83
-32.0
-29.28
-26.01
-22.52
-18.95
-15.21
-11.0
-5.96
0.23
7.7
16.37
26.01
36.29
46.84
57.23
66.9
75.19
81.53
85.62
87.5
87.57
86.38
84.41
81.9
78.86
75.19
70.83
65.91
60.61
55.0
48.95
42.12
34.18
25.08
14.97
4.08
-7.25
-18.72
-30.09
-40.99
-50.89
-59.04
-64.65
-67.05
-65.96
-61.53
-54.4
-45.49
-35.92
-26.75
-18.83
-12.66
-8.36
-5.72
-4.35
-3.88
-4.0
-4.5
-5.24
-6.05
-6.67
-6.73
-5.89
-4.0
-1.27
1.81
4.66
6.72
7.73
7.74
7.09
6.26
5.61
5.34
5.47
5.85
6.32
6.75
7.12
7.47
7.8
8.11
8.38
8.6
8.84
9.19
9.75
10.53
11.39
11.99
11.93
10.82
8.49
5.02
0.75
-3.81
-8.13
-11.77
-14.48
-16.2
-17.06
-17.25
-16.95
-16.27
-15.17
-13.5
-11.08
-7.78
-3.65
1.04
5.86
10.37
14.09
16.75
18.22
18.56
17.96
16.64
14.84
12.77
10.6
8.54
6.7
5.15
3.86
2.76
1.65
0.2
-1.93
-5.16
-9.74
-15.88
-23.61
-32.67
-42.44
-52.02
-60.38
-66.47
-69.51
-68.97
-64.78
-57.19
-46.76
-34.34
-20.91
-7.54
4.79
15.37
23.82
30.1
34.49
37.44
39.35
40.6
41.47
42.06
42.37
42.32
41.86
40.98
39.79
38.39
36.97
35.74
34.85
34.3
33.99
33.75
33.39
32.75
31.78
30.51
29.03
27.43
25.84
24.39
23.18
22.27
21.57
20.91
20.09
18.91
17.33
15.39
13.18
10.73
8.05
5.07
1.74
-1.86
-5.58
-9.2
-12.55
-15.45
-17.79
-19.46
-20.38
-20.56
-20.04
-19.01
-17.63
-16.07
-14.39
-12.62
-10.72
-8.73
-6.68
-4.67
-2.73
-0.88
0.91
2.66
4.3
5.75
6.85
7.54
7.83
7.82
7.65
7.39
7.02
6.44
5.63
4.6
3.46
2.39
1.55
1.02
0.75
0.65
0.6
0.54
0.46
0.37
0.34
0.39
0.54
0.72
0.85
0.83
0.59
0.09
-0.66
-1.66
-2.88
-4.24
-5.66
-7.06
-8.35
-9.47
-10.28
-10.69
-10.53
-9.76
-8.37
-6.51
-4.45
-2.47
-0.78
0.54
1.56
2.42
3.22
3.99
4.61
4.95
4.88
4.42
3.67
2.79
1.9
1.05
0.2
-0.7
-1.59
-2.33
-2.74
-2.66
-2.03
-0.92
0.43
1.73
2.6
2.75
2.04
0.56
-1.39
-3.34
-4.85
-5.62
-5.57
-4.85
-3.72
-2.45
-1.31
-0.53
-0.25
-0.47
-1.05
-1.74
-2.21
-2.26
-1.89
-1.25
-0.63
-0.22
-0.06
-0.06
-0.05
0.04
0.16
0.19
-0.05
-0.59
-1.36
-2.15
-2.73
-2.84
-2.35
-1.24
0.38
2.27
4.17
5.82
6.98
7.54
7.45
6.79
5.75
4.63
3.69
3.2
3.28
3.86
4.75
5.63
6.18
6.22
5.7
4.74
3.53
2.31
1.2
0.32
-0.38
-0.93
-1.39
-1.81
-2.25
-2.76
-3.4
-4.2
-5.16
-6.22
-7.33
-8.46
-9.64
-10.88
-12.16
-13.32
-14.11
-14.21
-13.37
-11.46
-8.48
-4.65
-0.25
4.32
8.51
11.77
13.62
13.72
12.12
9.26
5.84
2.64
0.22
-1.21
-1.79
-1.83
-1.68
-1.47
-1.17
-0.73
-0.13
0.53
1.04
1.27
1.18
0.83
0.31
-0.3
-1.07
-2.06
-3.33
-4.82
-6.32
-7.54
-8.23
-8.22
-7.43
-5.91
-3.75
-1.16
1.54
3.98
5.72
6.43
5.94
4.38
2.05
-0.55
-3.03
-5.05
-6.48
-7.27
-7.47
-7.1
-6.18
-4.77
-2.99
-1.06
0.78
2.27
3.2
3.46
3.01
1.87
0.25
-1.56
-3.17
-4.2
-4.42
-3.72
-2.22
-0.12
2.36
5.08
7.95
10.85
13.5
15.48
16.36
15.8
13.8
10.81
7.62
5.2
4.31
5.2
7.62
10.91
14.21
16.84
18.62
19.96
21.57
24.2
28.09
33.02
38.21
42.49
44.74
44.42
41.84
37.94
34.0
30.84
28.84
27.51
25.31
20.04
9.65
-6.99
-29.54
-55.87
-82.49
-104.77
-118.3
-120.43
-111.16
-93.1
-70.68
-48.76
-29.89
-16.93
-10.37
-7.66
-5.48
-2.3
1.19
3.43
3.75
3.09
3.2
5.92
12.07
21.31
32.63
45.17
58.23
70.99
82.15
90.67
94.94
93.75
86.96
75.29
60.15
43.18
26.11
10.69
-1.53
-9.42
-13.09
-13.72
-13.16
-12.98
-13.69
-14.71
-15.01
-14.39
-11.25
-6.94
-4.04
-5.11
-11.28
-21.63
-33.49
-43.5
-48.78
-47.65
-40.21
-27.41
-10.6
8.92
30.02
51.56
72.29
90.71
105.4
114.98
118.92
117.58
112.04
103.71
93.95
83.78
73.88
64.61
55.9
47.46
38.66
28.56
16.15
0.72
-17.67
-38.01
-58.47
-77.05
-91.95
-102.1
-107.27
-107.99
-105.25
-100.21
-94.0
-87.56
-81.7
-76.93
-73.43
-71.09
-69.63
-68.66
-67.82
-66.78
-65.32
-63.26
-60.63
-57.51
-54.08
-50.5
-46.78
-42.76
-38.12
-32.45
-25.39
-16.78
-6.56
5.2
18.54
33.53
50.22
68.34
87.09
105.23
121.31
134.36
144.37
152.42
160.39
170.14
182.64
197.61
213.48
227.93
238.55
243.08
239.58
226.38
202.08
165.97
118.49
61.49
-1.88
-67.97
-133.51
-196.13
-254.08
-305.5
-347.77
-377.65
-392.4
-391.07
-375.43
-349.49
-318.11
-285.19
-252.75
-221.16
-190.22
-160.49
-133.46
-111.05
-94.49
-83.57
-76.75
-71.96
-67.71
-63.47
-59.82
-57.67
-57.68
-59.79
-63.17
-66.56
-68.75
-69.15
-67.95
-66.08
-64.9
-65.67
-69.13
-75.27
-83.37
-92.31
-101.19
-109.57
-117.85
-127.12
-138.73
-153.81
-172.65
-194.42
-217.16
-238.2
-254.74
-264.44
-265.78
-258.01
-241.04
-215.09
-180.48
-137.35
-85.69
-25.55
42.56
117.06
194.7
270.19
336.85
388.07
419.52
430.75
425.67
411.06
394.15
380.2
371.14
365.9
361.93
356.82
349.18
338.52
324.49
306.37
283.09
253.84
218.85
179.56
138.29
97.51
59.21
24.51
-6.16
-32.7
-54.83
-71.87
-82.98
-87.59
-85.84
-78.88
-68.79
-57.93
-48.36
-41.24
-36.61
-33.69
-31.37
-28.83
-25.74
-22.29
-18.97
-16.12
-13.9
-12.18
-10.8
-9.63
-8.69
-8.11
-8.02
-8.44
-9.3
-10.39
-11.54
-12.64
-13.67
-14.73
-15.85
-16.98
-17.99
-18.67
-18.91
-18.79
-18.62
-18.82
-19.78
-21.67
-24.41
-27.64
-30.79
-33.27
-34.61
-34.49
-32.86
-29.9
-25.91
-21.33
-16.59
-12.09
-8.19
-5.05
-2.77
-1.27
-0.48
-0.23
-0.32
-0.57
-0.67
-0.36
0.61
2.27
4.46
6.88
9.24
11.36
13.29
15.2
17.17
19.19
21.02
22.38
23.04
22.94
22.16
20.84
19.14
17.1
14.75
12.12
9.23
6.15
2.91
-0.4
-3.7
-6.83
-9.65
-11.97
-13.69
-14.78
-15.35
-15.54
-15.52
-15.45
-15.34
-15.13
-14.66
-13.7
-12.03
-9.52
-6.18
-2.14
2.33
6.91
11.2
14.9
17.8
19.81
20.95
21.32
21.01
20.11
18.72
17.0
15.19
13.56
12.35
11.73
11.67
12.02
12.61
13.32
14.08
14.88
15.69
16.39
16.87
17.04
16.94
16.71
16.44
16.14
15.64
14.73
13.22
11.09
8.44
5.45
2.24
-1.16
-4.68
-8.18
-11.37
-13.9
-15.55
-16.35
-16.63
-16.9
-17.6
-18.92
-20.71
-22.62
-24.17
-24.96
-24.7
-23.24
-20.56
-16.75
-12.04
-6.76
-1.29
3.99
8.78
12.87
16.19
18.78
20.75
22.35
23.8
25.32
27.05
29.0
31.06
33.08
34.87
36.25
37.04
37.04
36.19
34.54
32.35
30.04
28.05
26.76
26.27
26.39
26.69
26.64
25.72
23.55
19.95
15.06
9.18
2.74
-3.81
-10.07
-15.71
-20.52
-24.36
-27.23
-29.3
-30.86
-32.3
-33.95
-35.99
-38.43
-41.13
-43.79
-46.12
-47.81
-48.61
-48.26
-46.59
-43.57
-39.35
-34.16
-28.32
-22.16
-16.01
-10.19
-4.96
-0.52
3.02
5.7
7.71
9.29
10.62
11.84
12.94
13.85
14.52
14.91
15.09
15.18
15.37
15.76
16.45
17.39
18.49
19.64
20.71
21.59
22.16
22.3
21.92
20.95
19.41
17.38
15.06
12.65
10.29
8.1
6.08
4.14
2.14
-0.11
-2.77
-5.9
-9.39
-13.01
-16.4
-19.18
-21.0
-21.59
-20.84
-18.71
-15.36
-11.04
-6.1
-0.98
3.91
8.26
11.91
14.87
17.18
18.86
19.85
20.07
19.45
18.05
16.02
13.64
11.21
9.05
7.4
6.43
6.22
6.76
7.9
9.42
11.05
12.56
13.83
14.87
15.79
16.66
17.48
18.14
18.47
18.26
17.39
15.82
13.67
11.17
8.59
6.19
4.21
2.71
1.64
0.72
-0.45
-2.28
-5.09
-8.96
-13.65
-18.64
-23.19
-26.61
-28.38
-28.31
-26.45
-23.01
-18.11
-11.8
-4.13
4.68
14.11
23.45
32.06
39.68
46.5
53.01
59.54
65.97
71.7
75.91
77.95
77.66
75.4
71.79
67.42
62.63
57.42
51.68
45.3
38.27
30.7
22.73
14.53
6.27
-1.84
-9.52
-16.56
-22.78
-28.12
-32.66
-36.61
-40.24
-43.87
-47.78
-52.16
-57.09
-62.46
-68.01
-73.27
-77.73
-80.85
-82.19
-81.48
-78.65
-73.81
-67.27
-59.45
-50.84
-41.99
-33.42
-25.61
-18.95
-13.73
-10.17
-8.38
-8.46
-10.5
-14.62
-21.0
-29.73
-40.57
-52.56
-64.11
-73.21
-78.05
-77.52
-71.54
-60.98
-47.23
-31.75
-15.75
-0.13
14.4
27.2
37.71
45.45
50.1
51.58
50.02
45.84
39.67
32.35
24.71
17.48
11.07
5.71
1.45
-1.75
-3.99
-5.43
-6.32
-6.95
-7.57
-8.34
-9.27
-10.38
-11.65
-13.15
-15.04
-17.4
-20.27
-23.48
-26.69
-29.4
-31.11
-31.38
-29.98
-26.99
-22.8
-18.04
-13.4
-9.45
-6.45
-4.34
-2.87
-1.72
-0.74
0.09
0.66
0.87
0.75
0.47
0.23
0.18
0.36
0.7
1.16
1.69
2.34
3.12
3.98
4.79
5.38
5.6
5.38
4.74
3.8
2.72
1.7
0.84
0.18
-0.41
-1.14
-2.21
-3.65
-5.36
-7.1
-8.63
-9.88
-10.92
-12.0
-13.36
-15.16
-17.34
-19.72
-21.92
-23.53
-24.12
-23.35
-21.05
-17.25
-12.24
-6.53
-0.73
4.54
8.87
12.04
14.08
15.15
15.47
15.31
14.85
14.29
13.83
13.71
14.08
15.02
16.49
18.34
20.34
22.3
24.04
25.44
26.35
26.64
26.17
24.91
22.92
20.38
17.61
14.9
12.48
10.41
8.59
6.83
4.9
2.67
0.09
-2.76
-5.69
-8.5
-11.0
-13.1
-14.79
-16.19
-17.49
-18.86
-20.5
-22.49
-24.79
-27.19
-29.33
-30.66
-30.62
-28.8
-25.1
-19.84
-13.69
-7.45
-1.85
