1.33
5.07
8.09
10.41
12.21
13.6
14.56
15.0
14.83
14.07
12.88
11.63
10.68
10.32
10.66
11.59
12.89
14.31
15.71
17.03
18.39
19.85
21.4
22.81
23.68
23.58
22.3
20.0
17.19
14.63
13.04
12.84
13.97
15.94
17.99
19.51
20.29
20.53
20.7
21.35
22.84
25.29
28.33
31.36
33.73
35.22
35.99
36.49
37.55
40.27
45.72
54.51
66.43
80.35
94.78
107.45
116.03
119.13
117.14
112.23
107.46
105.48
107.55
114.01
123.39
133.24
141.35
146.73
149.56
150.41
149.18
144.93
137.24
125.13
107.62
84.3
55.71
23.17
-12.0
-48.97
-93.12
-142.94
-191.11
-228.09
-247.71
-249.44
-236.89
-215.11
-188.97
-162.0
-135.33
-109.77
-86.1
-64.95
-46.21
-29.11
-11.91
5.05
19.97
30.81
34.79
29.47
13.73
-11.28
-42.62
-76.12
-106.96
-132.26
-151.2
-165.23
-177.22
-190.1
-205.17
-220.72
-232.07
-233.01
-218.45
-187.04
-143.23
-96.25
-56.77
-32.22
-23.67
-26.14
-32.04
-34.06
-28.45
-15.53
1.3
16.88
25.62
22.81
6.0
-23.34
-58.83
-90.21
-106.92
-102.76
-78.98
-43.99
-9.44
14.69
23.59
17.86
1.08
-23.04
-52.19
-84.58
-117.09
-144.13
-158.28
-153.11
-126.78
-83.77
-33.42
13.21
47.02
63.74
64.35
53.9
39.29
26.65
19.23
16.89
16.79
15.12
8.83
-3.41
-20.95
-42.0
-64.26
-85.33
-102.57
-112.93
-113.56
-102.65
-80.62
-50.36
-16.64
15.51
42.32
62.01
74.55
80.85
82.42
81.19
79.84
81.59
89.21
103.83
123.91
145.18
161.86
168.96
164.24
149.11
128.01
106.64
89.86
80.14
77.33
79.27
83.09
86.44
88.11
88.11
87.11
85.75
84.06
81.46
77.07
70.35
61.54
51.68
42.09
33.77
26.95
21.2
15.98
11.19
7.49
5.89
7.05
10.79
15.9
20.63
23.37
23.26
20.24
14.82
7.5
-1.67
-13.13
-27.43
-44.87
-65.1
-87.08
-109.27
-129.99
-147.89
-162.31
-173.37
-181.77
-188.45
-194.17
-199.08
-202.7
-204.1
-202.38
-196.96
-187.73
-175.35
-161.09
-146.66
-133.63
-122.75
-113.4
-103.43
-89.76
-69.5
-41.3
-6.01
33.47
73.3
110.03
141.76
168.36
190.88
210.64
228.37
243.94
256.74
266.15
272.08
275.09
276.3
277.18
279.37
284.79
295.53
313.31
338.28
367.96
396.87
417.81
424.21
412.64
384.27
344.15
298.87
253.8
211.41
171.34
131.95
92.13
52.24
13.99
-20.7
-50.62
-75.71
-96.53
-113.61
-127.04
-136.38
-141.15
-141.24
-137.33
-130.63
-122.46
-113.88
-105.44
-97.41
-90.13
-84.33
-80.93
-80.86
-84.37
-90.78
-98.57
-105.65
-110.03
-110.23
-105.54
-95.85
-81.54
-63.1
-40.82
-14.88
14.63
47.07
80.72
112.32
137.43
151.37
150.64
134.03
102.96
61.15
13.25
-36.25
-83.84
-127.02
-163.79
-192.35
-211.14
-219.49
-217.97
-208.59
-194.21
-177.78
-161.45
-146.16
-131.85
-117.96
-104.07
-90.14
-76.57
-63.91
-52.64
-43.15
-35.73
-30.66
-28.12
-27.81
-28.66
-28.82
-26.02
-18.28
-4.83
13.74
35.68
58.71
80.79
100.4
116.6
128.58
135.49
136.37
130.71
118.89
102.3
82.87
62.54
42.9
25.22
10.58
-0.02
-5.72
-6.05
-1.24
7.56
18.53
29.53
38.85
45.59
49.87
52.78
55.91
60.81
68.19
77.48
86.67
93.23
94.89
90.68
81.21
68.22
53.89
40.07
27.74
16.91
7.18
-1.94
-10.61
-18.67
-25.84
-32.03
-37.38
-42.34
-47.51
-53.3
-59.83
-66.85
-73.81
-80.18
-85.41
-89.04
-90.78
-90.42
-87.78
-82.62
-74.63
-63.47
-49.17
-32.23
-13.78
4.61
21.38
35.51
46.77
55.58
62.64
68.33
72.57
74.97
75.03
72.37
66.97
58.97
48.8
37.03
24.27
11.19
-1.45
-12.72
-21.36
-25.92
-25.16
-18.54
-6.74
8.22
23.36
35.65
42.74
43.51
38.02
26.99
11.32
-8.28
-31.47
-57.98
-87.48
-119.31
-152.36
-184.95
-215.05
-240.44
-259.04
-269.59
-272.17
-268.59
-262.26
-257.32
-257.09
-262.79
-272.82
-283.44
-290.58
-291.44
-285.73
-275.27
-262.9
-251.07
-241.13
-233.33
-227.0
-220.83
-212.57
-199.01
-176.51
-142.51
-97.77
-47.86
-2.57
27.63
36.22
24.5
2.07
-16.8
-19.09
1.24
41.23
91.02
139.24
177.84
204.09
219.8
228.37
232.73
234.11
232.71
228.08
219.68
206.53
187.2
161.05
129.43
96.67
68.48
49.75
42.14
44.2
52.25
61.46
67.97
69.38
65.29
55.92
41.53
22.52
1.3
-17.83
-30.95
-35.18
-30.13
-17.6
-2.23
9.46
12.01
5.42
-3.43
-4.39
12.33
50.75
106.41
165.45
210.64
221.93
188.69
118.19
30.46
-53.09
-126.31
-193.04
-260.18
-332.27
-408.92
-484.59
-543.43
-575.11
-575.55
-547.1
-495.6
-428.41
-352.35
-272.08
-189.38
-104.91
-21.99
54.04
117.46
165.3
198.1
219.54
234.82
249.38
267.05
288.08
310.15
329.86
344.41
351.92
351.76
344.49
331.99
316.47
298.76
278.54
255.04
228.34
199.68
171.34
145.73
124.5
107.97
94.9
83.63
73.11
63.36
55.1
49.2
46.2
46.0
47.94
50.79
52.87
52.26
47.27
36.93
21.73
3.81
-13.39
-26.11
-31.4
-28.18
-17.43
-1.6
16.51
34.87
52.64
69.87
87.0
104.1
120.63
135.45
147.05
153.6
153.24
144.09
124.83
95.27
56.9
13.18
-30.9
-69.65
-98.02
-112.69
-112.73
-99.92
-78.38
-53.79
-32.17
-18.33
-14.78
-21.2
-34.86
-51.62
-67.49
-79.7
-87.27
-90.72
-91.22
-89.92
-87.25
-83.05
-76.93
-68.78
-59.03
-48.58
-38.6
-30.03
-23.4
-18.73
-15.72
-14.02
-13.37
-13.62
-14.62
-16.16
-17.94
-19.76
-21.52
-23.38
-25.66
-28.63
-32.25
-36.06
-39.27
-40.93
-40.36
-37.33
-32.19
-25.72
-18.83
-12.29
-6.56
-1.81
2.07
5.28
8.03
10.49
12.66
14.4
15.47
15.64
14.93
13.65
12.27
11.3
11.0
11.35
12.16
13.15
14.16
15.2
16.22
17.06
17.48
17.2
15.97
13.76
10.69
7.05
3.19
-0.54
-3.87
-6.64
-8.95
-11.15
-13.8
-17.43
-22.33
-28.36
-34.97
-41.31
-46.46
-49.7
-50.6
-49.07
-45.31
-39.76
-32.98
-25.64
-18.43
-11.83
-6.29
-1.83
1.74
4.85
7.96
11.48
15.69
20.58
26.02
31.65
37.16
42.18
46.3
49.12
50.42
50.23
48.79
46.52
43.77
40.87
37.81
34.29
29.77
23.75
15.99
6.73
-3.26
-12.86
-20.75
-26.08
-28.76
-29.51
-29.59
-30.07
-31.48
-33.39
-34.58
-33.4
-28.62
-20.24
-9.5
1.42
10.55
16.3
18.2
17.08
14.94
13.97
15.54
19.83
25.65
31.17
33.51
29.99
19.68
4.92
-8.66
-13.73
-3.98
22.47
61.16
100.21
123.9
118.74
78.91
8.11
-82.7
-179.96
-272.22
-344.32
-382.91
-381.16
-342.11
-276.95
-199.06
-119.56
-46.29
15.54
63.4
96.17
114.22
120.35
119.23
115.9
113.94
114.69
117.54
121.47
124.93
126.28
125.58
124.31
124.53
127.47
133.05
139.96
146.84
152.23
153.67
150.33
142.66
131.92
119.02
104.7
89.36
73.98
58.8
43.41
28.32
14.33
2.12
-8.97
-19.72
-30.99
-42.8
-51.45
-57.41
-60.97
-62.09
-60.66
-58.18
-55.63
-57.2
-61.31
-66.27
-70.98
-73.92
-74.05
-71.3
-68.45
-68.08
-72.07
-80.62
-93.47
-110.09
-129.64
-152.12
-167.56
-174.41
-174.12
-169.76
-164.17
-160.09
-159.39
-161.57
-163.47
-159.55
-145.43
-117.78
-77.21
-28.7
19.33
58.5
84.01
96.02
98.37
94.63
87.79
79.11
69.05
57.98
47.18
38.46
33.12
30.95
29.32
25.45
17.45
5.55
-8.33
-21.25
-30.4
-34.2
-32.8
-28.12
-22.39
-17.81
-14.15
-10.34
-5.26
1.22
7.87
12.28
11.8
4.86
-8.05
-24.1
-39.1
-48.57
-48.71
-36.93
-12.52
22.79
64.33
104.32
133.97
146.75
141.23
121.69
96.35
73.72
59.09
53.03
52.49
53.65
54.14
53.86
53.86
54.75
55.84
55.4
52.0
45.62
37.89
31.25
27.86
28.33
31.43
34.91
36.5
34.93
30.59
25.36
21.63
21.18
24.36
29.95
36.02
40.83
43.61
45.05
46.77
50.24
55.99
63.36
69.61
71.82
67.52
55.12
34.14
5.45
-28.32
-62.44
-90.56
-106.96
-108.48
-96.22
-75.4
-53.3
-36.25
-27.25
-25.43
-27.43
-30.08
-31.74
-32.64
-33.82
-35.83
-38.1
-39.38
-38.59
-35.83
-32.37
-29.81
-29.47
-31.61
-35.37
-39.37
-42.32
-43.56
-43.39
-42.88
-43.26
-45.49
-49.83
-55.81
-62.54
-69.13
-74.93
-79.71
-83.44
-86.15
-87.59
-87.43
-84.79
-78.89
-69.38
-56.43
-40.85
-23.84
-6.76
9.11
22.82
33.82
41.88
47.04
49.58
49.84
48.23
45.2
41.18
36.56
31.69
26.78
21.99
17.4
13.03
8.82
4.7
0.61
-3.49
-7.66
-11.86
-16.08
-20.32
-24.6
-29.01
-33.71
-38.91
-44.7
-51.08
-57.73
-64.21
-69.9
-74.09
-76.15
-75.66
-72.55
-67.1
-59.98
-51.79
-43.36
-35.55
-29.21
-25.12
-23.92
-26.08
-31.73
-40.67
-51.79
-63.75
-75.01
-84.13
-90.01
-92.02
-89.92
-83.58
-75.1
-65.21
-53.98
-41.12
-26.2
-9.09
9.9
29.96
50.13
69.49
87.89
105.55
123.0
141.0
160.53
182.54
207.54
234.96
262.48
286.35
301.91
305.25
294.78
272.05
241.1
206.87
173.44
143.05
116.4
93.34
73.86
58.33
47.15
39.95
35.33
31.21
25.67
17.87
8.14
-2.39
-12.37
-20.92
-27.82
-33.29
-37.61
-41.0
-43.54
-45.39
-46.87
-48.33
-49.87
-51.2
-51.66
-50.47
-47.14
-41.51
-33.81
-24.43
-13.83
-2.57
8.68
19.06
27.73
33.88
37.0
36.85
33.55
27.61
19.94
11.69
4.1
-1.98
-6.35
-9.57
-12.81
-17.38
-24.29
-33.82
-45.33
-57.32
-67.76
-74.69
-76.89
-74.34
-68.18
-60.2
-52.05
-44.57
-37.71
-31.0
-24.09
-17.16
-10.83
-5.66
-1.87
0.68
2.33
3.22
3.27
2.34
0.52
-1.8
-3.97
-5.39
-5.77
-5.12
-3.68
-1.82
0.1
1.72
2.76
3.01
2.51
1.46
0.2
-0.97
-1.93
-2.74
-3.64
-4.85
-6.43
-8.19
-9.78
-10.82
-11.09
-10.56
-9.4
-7.99
-6.71
-5.91
-5.78
-6.3
-7.18
-7.95
-8.03
-6.86
-4.19
-0.08
5.09
10.74
16.27
21.19
25.23
28.25
30.28
31.34
31.52
30.94
29.76
28.23
26.61
25.13
23.92
23.06
22.54
22.39
22.59
23.07
23.77
24.53
25.23
25.79
26.22
26.6
27.05
27.59
28.19
28.79
29.32
29.77
30.18
30.66
31.31
32.27
33.53
35.04
36.67
38.27
39.75
41.1
42.42
43.85
45.59
47.78
50.47
53.6
56.99
60.46
63.89
67.23
70.59
74.31
78.7
83.86
89.46
94.74
98.56
99.53
96.19
87.35
72.53
51.76
25.53
-5.43
-40.34
-78.38
-118.67
-160.23
-201.75
-241.64
-276.6
-302.33
-314.71
-311.37
-292.47
-260.85
-221.01
-177.45
-133.59
-91.81
-53.7
-20.6
5.72
24.26
35.07
39.4
39.87
39.92
42.54
49.6
61.08
74.3
85.84
93.32
94.31
87.67
73.68
53.01
26.24
-6.53
-46.27
-92.79
-144.55
-198.73
-251.55
-298.86
-336.36
-359.27
-357.49
-326.06
-264.41
-178.0
-78.16
20.7
105.18
166.82
203.91
220.48
222.21
215.05
203.06
188.47
172.92
158.2
146.08
137.54
132.34
128.29
123.51
116.89
108.69
100.31
93.38
88.96
87.0
86.59
85.95
83.88
80.08
75.1
70.19
67.0
67.06
70.9
77.24
82.38
81.34
69.7
45.99
13.11
-22.27
-52.28
-71.08
-77.04
-72.75
-62.89
-51.69
-41.28
-31.78
-22.64
-13.9
-6.89
-3.41
-4.58
-10.13
-18.48
-27.57
-35.68
-42.11
-47.12
-51.36
-55.42
-59.28
-62.27
-63.3
-61.37
-56.33
-48.76
-39.83
-30.87
-22.93
-16.48
-11.43
-7.29
-3.45
0.04
3.0
5.15
6.36
6.79
6.82
6.98
7.75
9.58
11.65
13.25
13.86
13.44
12.34
11.18
10.53
10.72
12.17
13.51
13.83
12.63
9.91
6.05
1.3
-4.3
-11.3
-19.77
-31.36
-46.45
-64.58
-84.76
-105.85
-127.49
-149.98
-175.45
-191.09
-189.74
-168.07
-128.7
-78.06
-23.02
30.47
78.81
118.83
149.32
169.25
180.35
183.87
180.47
170.68
153.41
127.76
91.77
45.19
-12.14
-75.66
-139.42
-198.03
-246.92
-284.93
-298.35
-279.81
-231.83
-167.01
-98.33
-34.37
17.17
60.2
95.74
122.92
138.4
140.32
127.09
100.67
65.75
28.87
1.53
-7.6
2.77
24.08
44.51
55.25
54.31
45.25
34.01
26.02
22.04
19.95
16.32
9.5
0.54
-7.6
-12.42
-13.09
-10.26
-6.79
-5.47
-7.93
-13.9
-21.7
-29.15
-34.86
-38.63
-41.27
-44.63
-50.21
-58.42
-68.31
-78.01
-85.45
-89.47
-89.04
-84.17
-75.78
-65.1
-53.2
-40.96
-29.14
-18.54
-9.81
-3.48
-0.07
0.22
-2.41
-7.43
-14.17
-21.98
-30.51
-39.14
-47.4
-55.0
-61.62
-66.93
-70.8
-73.48
-75.52
-77.67
-79.93
-81.99
-83.18
-82.43
-78.61
-70.85
-58.66
-41.74
-23.95
-7.15
7.95
21.79
35.71
51.35
69.88
91.42
115.02
138.94
162.06
183.6
203.43
222.12
240.78
260.84
283.62
309.55
337.15
362.87
380.61
383.39
365.98
327.61
273.06
211.57
153.89
108.73
80.83
70.21
73.66
86.72
105.16
125.28
143.63
156.75
161.51
156.11
140.55
116.79
88.19
58.21
29.4
2.96
-21.17
-43.8
-65.74
-87.37
-108.32
-127.65
-144.27
-157.38
-166.76
-173.01
-177.41
-181.48
-186.4
-192.56
-199.46
-205.87
-210.38
-211.61
-208.95
-202.55
-193.01
-181.03
-167.2
-152.02
-136.01
-119.98
-104.66
-90.92
-79.4
-70.42
-63.96
-59.9
-58.09
-58.25
-60.16
-62.65
-64.5
-64.46
-61.58
-55.64
-47.07
-36.67
-25.11
-13.35
0.07
16.49
37.48
64.15
96.59
133.65
173.15
212.45
247.62
279.03
306.5
330.67
352.3
371.72
388.44
401.18
408.07
404.49
391.43
367.82
333.44
289.02
236.08
176.58
112.44
45.21
-27.35
-100.65
-173.15
-242.6
-306.19
-361.05
-405.14
-437.8
-438.53
-435.36
-427.32
-416.9
-405.6
-394.11
-382.5
-370.86
-359.79
-350.32
-347.26
-348.77
-356.81
-373.28
-399.05
-432.65
-469.41
-501.69
-520.83
-522.97
-503.89
-467.8
-423.04
-378.5
-340.4
-310.63
-287.17
-265.88
-244.48
-218.84
-187.78
-150.69
-106.52
-54.03
7.61
78.24
157.14
241.9
331.15
422.13
511.0
593.39
664.11
717.94
750.8
762.24
754.65
733.31
703.66
669.71
634.38
598.34
560.1
516.73
466.85
410.56
349.99
289.2
233.05
188.05
159.04
147.19
149.48
162.23
181.36
203.53
226.35
247.38
266.39
282.68
293.96
285.03
245.97
175.68
83.0
-12.89
-106.58
-194.79
-274.08
-337.37
-378.92
-396.23
-393.69
-381.78
-373.48
-379.83
-403.48
-439.89
-480.77
-518.74
-548.4
-568.3
-580.07
-586.76
-591.7
-595.37
-596.27
-591.44
-577.2
-548.83
-502.81
-438.77
-360.86
-277.4
-197.34
-128.17
-74.09
-35.83
-10.91
4.47
14.04
20.9
27.59
36.99
51.67
73.31
102.12
137.23
177.15
220.59
266.76
315.03
364.2
411.31
451.42
478.4
486.91
474.31
441.85
394.26
338.3
280.71
226.75
179.59
140.48
109.39
85.48
67.49
53.96
43.48
34.97
27.87
22.17
18.17
16.21
16.4
18.33
21.18
23.77
24.87
23.5
19.35
12.88
5.23
-2.15
-8.07
-11.9
-13.68
-13.91
-13.2
-11.86
-9.93
-7.21
-3.59
0.8
5.51
9.97
13.62
16.1
17.34
17.5
16.89
15.91
14.86
13.9
13.06
12.22
11.19
9.88
8.19
6.11
3.67
0.87
-2.3
-5.87
-9.83
-14.25
-19.11
-24.33
-29.61
-34.44
-38.13
-40.0
-39.58
-36.8
-32.04
-26.0
-19.56
-13.43
-8.06
-3.56
0.18
3.34
6.0
8.07
9.39
9.84
9.48
8.57
7.53
6.77
6.53
6.77
7.24
7.71
7.96
8.01
7.92
7.81
7.65
7.31
6.64
5.58
4.24
2.83
1.64
0.76
0.14
-0.47
-1.32
-2.59
-4.3
-6.33
-8.47
-10.54
-12.39
-13.93
-15.15
-16.1
-16.97
-18.01
-19.53
-21.76
-24.69
-28.07
-31.3
-33.6
-34.26
-32.87
-29.43
-24.39
-18.39
-12.12
-6.05
-0.42
4.71
9.3
13.24
16.36
18.48
19.57
19.76
19.31
18.56
17.76
17.1
16.67
16.46
16.44
16.6
16.94
17.47
18.18
19.0
19.76
20.26
20.29
19.74
18.66
17.21
15.6
14.0
12.51
11.14
9.83
8.48
7.01
5.31
3.34
1.12
-1.27
-3.7
-6.04
-8.21
-10.2
-12.08
-13.95
-15.88
-17.92
-20.03
-22.11
-23.98
-25.37
-25.95
-25.44
-23.68
-20.68
-16.62
-11.84
-6.7
-1.59
3.14
7.25
10.59
13.17
15.11
16.61
17.84
18.91
19.81
20.47
20.91
21.17
21.46
22.01
22.98
24.47
26.45
28.85
31.63
34.73
38.09
41.6
45.04
48.17
50.79
52.75
53.91
54.05
52.8
49.54
43.53
34.06
20.84
4.31
-14.18
-32.57
-48.4
-59.3
-63.54
-60.32
-49.93
-33.68
-13.56
8.0
28.32
44.86
55.53
58.9
54.44
42.67
25.18
4.58
-15.72
-32.29
-41.9
-42.05
-31.42
-10.04
20.88
59.35
103.06
149.49
195.48
238.0
274.65
303.8
324.36
335.33
335.1
321.28
291.54
243.95
179.58
103.15
21.9
-57.04
-128.75
-191.69
-247.08
-297.17
-344.76
-390.53
-432.35
-465.98
-486.62
-490.15
-474.79
-441.77
-387.75
-316.27
-237.11
-162.55
-101.04
-53.93
-16.94
15.91
48.3
80.71
110.76
136.46
157.49
175.36
188.74
197.54
201.95
202.51
200.17
195.07
187.35
177.13
164.43
148.7
129.31
105.36
76.45
43.37
7.75
-27.6
-59.37
-84.78
-102.63
-113.18
-118.14
-119.53
-118.77
-116.61
-112.99
-107.58
-100.28
-91.57
-82.15
-72.92
-64.56
-57.36
-51.28
-45.95
-40.86
-35.59
-30.0
-24.12
-18.31
-13.0
-8.53
-5.02
-2.35
-0.32
1.3
2.63
3.78
4.83
5.84
6.88
8.01
9.23
10.41
11.36
11.8
11.54
10.57
9.15
7.8
7.12
7.62
9.5
12.71
16.94
21.86
27.2
32.84
38.75
44.86
51.02
56.76
61.51
64.61
65.57
64.27
60.94
56.17
50.61
44.8
38.91
32.85
26.41
19.49
12.32
5.37
-0.71
-5.38
-8.32
-9.5
-9.06
-7.21
-4.12
0.1
5.32
11.37
17.96
24.81
31.67
38.35
44.64
50.29
54.95
58.27
60.11
60.58
60.08
59.16
58.27
57.55
56.82
55.69
53.68
50.43
45.71
39.42
31.55
22.06
10.96
-1.71
-15.79
-31.01
-46.88
-62.83
-78.11
-91.96
-103.68
-112.69
-118.59
-121.22
-120.6
-116.92
-110.53
-101.92
-91.68
-80.51
-69.08
-58.01
-47.79
-38.79
-31.2
-25.13
-20.57
-17.43
-15.55
-14.76
-14.82
-15.56
-16.8
-18.42
-20.35
-22.58
-25.09
-27.78
-30.47
-32.83
-34.5
-35.13
-34.6
-33.0
-30.6
-27.8
-24.96
-22.35
-20.18
-18.54
-17.47
-16.84
-16.45
-16.04
-15.41
-14.51
-13.41
-12.27
-11.23
-10.3
-9.37
-8.29
-6.91
-5.26
-3.43
-1.62
0.0
1.3
2.21
2.79
3.13
3.36
3.63
4.1
4.9
6.11
7.75
9.72
11.82
13.71
15.02
15.38
14.59
12.6
9.58
5.87
1.88
-1.91
-5.09
-7.39
-8.69
-9.06
-8.7
-7.82
-6.58
-5.01
-3.09
-0.78
1.81
4.43
6.78
8.58
9.75
10.38
10.69
10.93
11.25
11.72
12.34
13.05
13.78
14.44
14.95
15.23
15.25
14.99
14.49
13.79
12.91
11.86
10.68
9.43
8.19
7.01
5.94
4.97
4.06
3.16
2.16
0.99
-0.44
-2.07
-3.75
-5.19
-6.08
-6.16
-5.34
-3.6
-1.04
2.2
5.93
9.87
13.69
17.04
19.63
21.34
22.13
22.05
21.11
19.35
16.78
13.54
9.83
5.89
1.95
-1.89
-5.51
-8.87
-11.9
-14.52
-16.65
-18.25
-19.29
-19.8
-19.85
-19.54
-19.02
-18.47
-18.01
-17.7
-17.52
-17.4
-17.31
-17.24
-17.22
-17.24
-17.24
-17.08
-16.68
-16.01
-15.21
-14.52
-14.21
-14.35
-14.82
-15.22
-15.08
-14.0
-11.84
-8.75
-5.09
-1.28
2.4
5.76
8.77
11.4
13.6
15.29
16.37
16.83
16.75
16.37
15.88
15.46
15.17
14.97
14.73
14.33
13.7
12.89
12.03
11.3
10.8
10.51
10.29
9.92
9.19
8.0
6.37
4.48
2.54
0.75
-0.8
-2.1
-3.2
-4.14
-4.94
-5.59
-6.15
-6.72
-7.45
-8.5
-9.9
-11.52
-13.02
-14.04
-14.27
-13.58
-12.06
-9.95
-7.53
-5.02
-2.56
-0.29
1.73
3.36
4.56
5.31
5.75
6.03
6.34
6.76
7.25
7.72
8.06
8.2
8.13
7.94
7.76
7.82
8.32
9.47
11.34
13.84
16.73
19.67
22.37
24.65
26.52
28.05
29.37
30.46
31.14
31.12
30.05
27.7
24.0
19.09
13.26
6.84
0.15
-6.61
-13.37
-20.1
-26.84
-33.54
-40.04
-46.05
-51.21
-55.19
-57.72
-58.69
-58.13
-56.24
-53.35
-49.87
-46.18
-42.55
-39.09
-35.75
-32.37
-28.82
-24.97
-20.82
-16.43
-11.94
-7.46
-3.07
1.16
5.25
9.22
13.1
16.88
20.46
23.68
26.36
28.4
29.75
30.45
30.56
30.14
29.19
27.74
25.8
23.53
21.11
18.75
16.6
14.72
13.08
11.61
10.25
8.99
7.89
7.02
6.4
5.98
5.67
5.33
4.89
4.31
3.61
2.89
2.23
1.69
1.34
1.23
1.48
2.17
3.38
5.09
7.11
9.12
10.8
11.89
12.32
12.24
11.92
11.65
11.6
11.87
12.43
13.21
14.15
15.15
16.06
16.65
16.67
15.91
14.3
11.91
8.95
5.64
2.12
-1.55
-5.33
-9.14
-12.78
-16.0
-18.49
-20.08
-20.74
-20.6
-19.88
-18.82
-17.6
-16.3
-14.96
-13.58
-12.17
-10.77
-9.48
-8.43
-7.76
-7.59
-7.95
-8.73
-9.66
-10.35
-10.38
-9.46
-7.51
-4.67
-1.29
2.22
5.47
8.26
10.48
12.21
13.53
14.52
15.21
15.57
15.54
15.1
14.33
13.37
12.4
11.6
11.07
10.87
10.99
11.4
12.02
12.7
13.27
13.55
13.39
12.76
11.7
10.38
8.97
7.62
6.37
5.16
3.84
2.23
0.23
-2.13
-4.7
-7.28
-9.61
-11.47
-12.69
-13.17
-12.9
-12.02
-10.78
-9.56
-8.72
-8.49
-8.87
-9.65
-10.52
-11.17
-11.46
-11.39
-11.09
-10.72
-10.36
-9.95
-9.26
-8.02
-5.96
-3.02
0.73
4.98
9.33
13.4
16.87
19.52
21.25
21.99
21.8
20.82
19.26
17.39
15.48
13.63
11.86
10.05
8.11
6.05
4.05
2.37
1.22
0.7
0.71
1.08
1.61
2.15
2.61
2.88
2.82
2.28
1.17
-0.45
-2.39
-4.36
-6.11
-7.5
-8.51
-9.28
-10.0
-10.85
-11.94
-13.29
-14.75
-16.06
-16.86
-16.85
-15.84
-13.83
-10.98
-7.56
-3.84
-0.11
3.35
6.26
8.4
9.63
10.01
9.73
9.13
8.48
8.01
7.79
7.8
7.97
8.27
8.72
9.34
10.12
11.03
11.96
12.77
13.31
13.49
13.32
12.87
12.24
11.48
10.62
9.66
8.62
7.6
6.73
6.07
5.57
5.02
4.1
2.61
0.49
-2.12
-4.95
-7.74
-10.32
-12.62
-14.63
-16.29
-17.54
-18.29
-18.55
-18.38
-17.89
-17.12
-16.03
-14.48
-12.36
-9.69
-6.66
-3.56
-0.71
1.67
3.45
4.61
5.24
5.43
5.36
5.21
5.2
5.45
6.0
6.77
7.65
8.57
9.55
10.64
11.93
13.42
15.04
16.65
18.05
19.08
19.56
19.35
18.32
16.43
13.81
10.68
7.44
4.53
2.33
1.05
0.66
0.94
1.5
1.99
2.09
1.69
0.81
-0.47
-1.97
-3.61
-5.32
-7.13
-9.06
-11.15
-13.33
-15.47
-17.36
-18.74
-19.39
-19.14
-17.95
-15.84
-12.95
-9.48
-5.7
-1.91
1.62
4.64
7.04
8.77
9.87
10.48
10.74
10.79
10.73
10.55
10.18
9.48
8.39
6.93
5.25
3.61
2.27
1.42
1.16
1.46
2.23
3.34
4.66
6.07
7.46
8.69
9.68
10.26
10.32
9.74
8.48
6.59
4.23
1.63
-0.95
-3.28
-5.2
-6.55
-7.24
-7.26
-6.72
-5.92
-5.24
-5.08
-5.72
-7.21
-9.35
-11.78
-14.11
-16.0
-17.25
-17.75
-17.52
-16.6
-15.11
-13.14
-10.78
-8.14
-5.24
-2.17
0.97
4.02
6.82
9.17
10.98
12.2
12.86
13.04
12.83
12.29
11.46
10.41
9.22
8.02
6.91
6.0
5.37
5.0
4.9
4.98
5.17
5.36
5.5
5.54
5.47
5.31
5.05
4.71
4.24
3.56
2.55
1.09
-0.83
-3.11
-5.44
-7.5
-8.97
-9.65
-9.56
-8.82
-7.65
-6.26
-4.86
-3.59
-2.6
-2.02
-1.9
-2.15
-2.57
-2.86
-2.74
-2.06
-0.81
0.86
2.74
4.66
6.59
8.56
10.61
12.71
14.67
16.22
17.08
17.11
16.33
14.87
12.95
10.76
8.45
6.16
4.01
2.13
0.64
-0.44
-1.18
-1.69
-2.14
-2.64
-3.23
-3.91
-4.58
-5.1
-5.3
-5.09
-4.43
-3.43
-2.28
-1.17
-0.25
0.44
0.9
1.11
0.99
0.43
-0.69
-2.37
-4.51
-6.94
-9.47
-11.99
-14.43
-16.74
-18.81
-20.48
-21.48
-21.55
-20.52
-18.36
-15.25
-11.55
-7.64
-3.88
-0.5
2.39
4.73
6.46
7.51
7.87
7.6
6.9
6.03
5.17
4.34
3.44
2.31
0.92
-0.59
-1.91
-2.76
-2.97
-2.53
-1.57
-0.27
1.26
2.93
4.68
6.38
7.87
9.01
9.67
9.83
9.5
8.77
7.69
6.29
4.59
2.56
0.22
-2.35
-4.94
-7.3
-9.15
-10.28
-10.68
-10.51
-10.04
-9.6
-9.43
-9.64
-10.25
-11.15
-12.14
-13.01
-13.5
-13.42
-12.7
-11.38
-9.62
-7.61
-5.52
-3.5
-1.65
-0.02
1.38
2.55
3.53
4.38
5.09
5.69
6.14
6.45
6.69
6.91
7.16
7.39
7.56
7.6
7.49
7.24
6.94
6.59
6.2
5.71
5.09
4.38
3.6
2.86
2.21
1.73
1.43
1.39
1.63
2.15
2.89
3.67
4.28
4.5
4.14
3.15
1.58
-0.38
-2.51
-4.54
-6.29
-7.62
-8.47
-8.86
-8.8
-8.34
-7.46
-6.16
-4.41
-2.23
0.33
3.21
6.22
9.17
11.85
14.03
15.57
16.38
16.49
16.0
15.07
13.89
12.58
11.24
9.88
8.5
7.13
5.89
4.91
4.34
4.25
4.61
5.28
6.09
6.82
7.26
7.24
6.63
5.35
3.44
1.03
-1.64
-4.34
-6.83
-8.97
-10.73
-12.13
-13.2
-13.95
-14.42
-14.59
-14.49
-14.15
-13.64
-13.07
-12.53
-12.19
-12.12
-12.43
-13.1
-14.05
-15.07
-15.91
-16.29
-16.01
-15.01
-13.32
-11.13
-8.66
-6.13
-3.72
-1.53
0.37
2.01
3.4
4.62
5.74
6.82
7.87
8.86
9.72
10.39
10.83
11.06
11.13
11.08
10.94
10.69
10.35
9.92
9.43
8.9
8.32
7.69
7.0
6.28
5.56
4.93
4.45
4.16
4.02
3.93
3.74
3.28
2.4
1.07
-0.65
-2.59
-4.55
-6.36
-7.93
-9.22
-10.22
-10.99
-11.64
-12.36
-13.36
-14.79
-16.58
-18.47
-20.0
-20.72
-20.29
-18.67
-16.08
-12.87
-9.44
-6.05
-2.91
-0.11
2.28
4.27
5.83
7.0
7.8
8.27
8.46
8.43
8.25
7.99
7.73
7.49
7.27
7.06
6.89
6.8
6.88
7.17
7.66
8.29
8.94
9.48
9.87
10.07
10.04
9.75
9.17
8.26
7.01
5.51
3.88
2.33
1.05
0.23
-0.04
0.23
0.89
1.72
2.46
2.93
3.02
2.67
1.86
0.63
-1.02
-2.97
-5.1
-7.25
-9.21
-10.83
-11.93
-12.4
-12.14
-11.17
-9.55
-7.48
-5.17
-2.8
-0.47
1.76
3.88
5.85
7.67
9.35
10.87
12.24
13.39
14.23
14.63
14.5
13.86
12.84
11.64
10.45
9.45
8.75
8.39
8.36
8.62
9.07
9.61
10.12
10.56
10.91
11.12
11.12
10.77
9.89
8.36
6.18
3.5
0.56
-2.36
-5.05
-7.42
-9.41
-11.03
-12.26
-13.08
-13.51
-13.62
-13.49
-13.25
-12.95
-12.58
-12.1
-11.42
-10.49
-9.29
-7.8
-6.04
-4.06
-1.96
0.12
1.99
3.53
4.69
5.54
6.18
6.65
6.95
7.02
6.83
6.48
6.13
5.99
6.15
6.57
7.07
7.42
7.44
7.03
6.21
5.09
3.77
2.38
0.99
-0.36
-1.64
-2.83
-3.87
-4.7
-5.24
-5.49
-5.57
-5.62
-5.83
-6.33
-7.15
-8.25
-9.57
-11.05
-12.6
-14.13
-15.53
-16.71
-17.67
-18.51
-19.38
-20.4
-21.56
-22.66
-23.43
-23.58
-22.98
-21.63
-19.64
-17.18
-14.35
-11.24
-7.92
-4.58
-1.42
1.32
3.46
4.97
5.95
6.57
7.01
7.33
7.5
7.4
7.03
6.47
5.99
5.87
6.33
7.41
8.92
10.52
11.88
12.81
13.2
13.14
12.7
12.0
11.11
10.09
9.01
7.94
6.94
6.05
5.26
4.53
3.83
3.19
2.66
2.3
2.14
2.14
2.21
2.22
2.1
1.8
1.35
0.78
0.11
-0.69
-1.66
-2.8
-4.0
-5.07
-5.8
-5.95
-5.42
-4.24
-2.55
-0.6
1.37
3.17
4.64
5.7
6.29
6.46
6.31
6.01
5.78
5.82
6.26
7.11
8.3
9.72
11.28
12.93
14.67
16.46
18.2
19.68
20.63
20.8
20.06
18.42
15.98
12.91
9.32
5.23
0.65
-4.42
-9.85
-15.44
-20.88
-25.82
-29.91
-32.85
-34.42
-34.52
-33.16
-30.48
-26.68
-22.01
-16.78
-11.3
-5.91
-0.94
3.38
6.92
9.69
11.79
13.24
13.99
13.94
12.93
10.92
7.98
4.31
0.17
-4.16
-8.42
-12.34
-15.61
-17.97
-19.18
-19.1
-17.7
-15.05
-11.27
-6.53
-1.1
4.66
10.25
15.13
18.89
21.34
22.52
22.72
22.27
21.42
20.28
18.89
17.26
15.4
13.37
11.17
8.78
6.16
3.28
0.2
-2.97
-6.13
-9.18
-12.1
-14.83
-17.27
-19.28
-20.7
-21.43
-21.47
-20.88
-19.73
-18.02
-15.66
-12.53
-8.63
-4.11
0.69
5.35
9.48
12.79
15.17
16.58
16.96
16.29
14.55
11.87
8.55
5.02
1.67
-1.24
-3.65
-5.64
-7.29
-8.61
-9.5
-9.87
-9.69
-9.04
-8.1
-7.05
-6.05
-5.15
-4.38
-3.65
-2.92
-2.09
-1.1
0.15
1.71
3.68
6.11
8.97
12.14
15.37
18.28
20.45
21.51
21.25
19.71
17.12
13.86
10.36
6.93
3.75
0.84
-1.9
-4.58
-7.31
-10.12
-12.99
-15.84
-18.54
-20.88
-22.62
-23.46
-23.17
-21.67
-19.05
-15.59
-11.65
-7.55
-3.49
0.5
4.46
8.42
12.27
15.82
18.81
21.06
22.55
23.4
23.78
23.84
23.6
22.98
21.86
20.19
17.98
15.41
12.63
9.8
7.07
4.53
2.28
0.32
-1.35
-2.8
-4.14
-5.42
-6.66
-7.79
-8.78
-9.6
-10.3
-10.96
-11.62
-12.22
-12.63
-12.68
-12.23
-11.24
-9.78
-8.04
-6.21
-4.55
-3.24
-2.41
-2.08
-2.21
-2.7
-3.44
-4.31
-5.23
-6.11
-6.88
-7.44
-7.73
-7.72
-7.47
-7.06
-6.57
-6.05
-5.49
-4.87
-4.13
-3.28
-2.34
-1.43
-0.64
-0.06
0.27
0.32
0.11
-0.31
-0.86
-1.41
-1.73
-1.64
-0.97
0.23
1.81
3.47
4.96
6.11
6.88
7.26
7.24
6.79
5.8
4.27
2.26
-0.05
-2.48
-4.82
-6.97
-8.84
-10.4
-11.64
-12.56
-13.23
-13.75
-14.22
-14.65
-15.01
-15.17
-14.97
-14.29
-13.06
-11.3
-9.1
-6.6
-3.98
-1.42
0.91
2.86
4.33
5.31
5.83
5.99
5.94
5.79
5.64
5.52
5.43
5.35
5.34
5.47
5.85
6.54
7.53
8.74
10.02
11.22
12.18
12.78
12.95
12.64
11.82
10.5
8.72
6.62
4.44
2.44
0.86
-0.22
-0.86
-1.24
-1.54
-1.84
-2.1
-2.18
-1.98
-1.5
-0.89
-0.36
-0.16
-0.4
-1.1
-2.17
-3.47
-4.8
-5.95
-6.72
-6.92
-6.39
-5.11
-3.16
-0.76
1.79
4.21
6.23
7.69
8.48
8.63
8.25
7.51
6.69
6.02
5.7
5.81
6.32
7.09
7.95
8.73
9.27
9.48
9.32
8.81
8.01
7.0
5.91
4.83
3.85
3.05
2.47
2.11
1.96
1.97
2.02
1.98
1.72
1.15
0.25
-0.91
-2.24
-3.66
-5.14
-6.7
-8.39
-10.15
-11.87
-13.34
-14.37
-14.87
-14.87
-14.5
-13.89
-13.12
-12.23
-11.22
-10.14
-9.06
-8.12
-7.39
-6.89
-6.6
-6.43
-6.29
-6.1
-5.79
-5.28
-4.51
-3.44
-2.07
-0.5
1.1
2.54
3.66
4.33
4.57
4.46
4.12
3.67
3.21
2.77
2.4
2.15
2.09
2.27
2.7
3.29
3.91
4.43
4.77
4.84
4.61
4.05
3.16
2.0
0.65
-0.73
-2.02
-3.13
-4.05
-4.81
-5.46
-6.01
-6.48
-6.88
-7.27
-7.78
-8.51
-9.53
-10.74
-11.92
-12.83
-13.21
-12.99
-12.21
-11.04
-9.63
-8.05
-6.33
-4.46
-2.51
-0.59
1.15
2.58
3.65
4.39
4.86
5.11
5.2
5.14
5.02
4.89
4.85
4.97
5.29
5.79
6.43
7.16
7.83
8.37
8.68
8.75
8.61
8.34
7.96
7.47
6.82
5.96
4.91
3.74
2.6
1.64
0.97
0.62
0.6
0.83
1.19
1.53
1.71
1.66
1.41
1.04
0.67
0.32
-0.03
-0.51
-1.22
-2.25
-3.54
-4.98
-6.43
-7.77
-8.94
-9.84
-10.34
-10.29
-9.57
-8.14
-6.1
-3.65
-1.04
1.52
3.88
5.97
7.77
9.24
10.3
10.88
10.94
10.56
9.92
9.22
8.62
8.14
7.72
7.24
6.67
6.07
5.58
5.34
5.38
5.58
5.77
5.82
5.68
5.42
5.13
4.9
4.69
4.4
3.92
3.18
2.21
1.1
-0.04
-1.03
-1.83
-2.43
-2.92
-3.47
-4.23
-5.31
-6.72
-8.42
-10.28
-12.23
-14.2
-16.2
-18.14
-19.87
-21.16
-21.71
-21.36
-20.05
-17.95
-15.32
-12.45
-9.58
-6.88
-4.45
-2.32
-0.6
0.65
1.32
1.4
0.96
0.15
-0.82
-1.72
-2.32
-2.4
-1.82
-0.49
1.6
4.34
7.55
10.95
14.25
17.08
19.16
20.23
20.14
18.87
16.53
13.33
9.57
5.53
1.49
-2.3
-5.63
-8.35
-10.37
-11.72
-12.5
-12.81
-12.76
-12.38
-11.74
-10.93
-10.13
-9.51
-9.19
-9.22
-9.56
-10.07
-10.62
-11.04
-11.17
-10.87
-10.02
-8.66
-6.91
-5.03
-3.3
-1.91
-0.91
-0.24
0.17
0.38
0.33
-0.02
-0.67
-1.54
-2.43
-3.14
-3.57
-3.65
-3.46
-3.05
-2.49
-1.78
-0.89
0.22
1.59
3.23
5.08
6.99
8.75
10.16
11.02
11.25
10.9
10.14
9.21
8.38
7.87
7.83
8.32
9.3
10.64
12.08
13.37
14.26
14.61
14.36
13.58
12.38
10.87
9.16
7.28
5.27
3.14
0.9
-1.36
-3.54
-5.56
-7.36
-8.94
-10.34
-11.64
-12.82
-13.79
-14.39
-14.39
-13.66
-12.14
-9.93
-7.21
-4.2
-1.15
1.71
4.22
6.23
7.67
8.55
8.96
9.04
8.97
8.85
8.75
8.67
8.62
8.62
8.7
8.85
9.02
9.13
9.09
8.85
8.41
7.79
6.98
6.02
4.93
3.78
2.66
1.65
0.78
0.01
-0.74
-1.55
-2.48
-3.56
-4.77
-6.09
-7.48
-8.89
-10.23
-11.43
-12.43
-13.21
-13.81
-14.29
-14.75
-15.25
-15.87
-16.62
-17.49
-18.39
-19.15
-19.59
-19.49
-18.71
-17.16
-14.86
-11.94
-8.58
-5.02
-1.49
1.84
4.85
7.49
9.72
11.46
12.61
13.11
12.97
12.32
11.34
10.23
9.09
7.96
6.85
5.82
5.04
4.67
4.85
5.51
6.46
7.42
8.16
8.62
8.83
8.93
8.96
8.89
8.62
8.01
7.04
5.75
4.29
2.85
1.56
0.49
-0.38
-1.11
-1.74
-2.29
-2.78
-3.23
-3.72
-4.35
-5.25
-6.49
-8.04
-9.8
-11.63
-13.45
-15.24
-16.96
-18.52
-19.64
-20.0
-19.28
-17.34
-14.31
-10.57
-6.59
-2.81
0.5
3.23
