-99.69
-76.76
-48.26
-17.92
10.15
32.88
48.68
57.23
59.6
58.0
55.4
53.78
54.07
56.07
58.98
61.86
63.71
63.86
62.07
58.46
53.1
46.15
37.92
28.94
19.87
11.27
3.44
-3.58
-9.97
-15.88
-21.26
-25.97
-29.83
-32.73
-34.73
-36.02
-36.77
-36.98
-36.53
-35.2
-32.86
-29.65
-25.75
-21.48
-17.06
-12.64
-8.32
-4.12
-0.09
3.75
7.47
11.13
14.73
18.1
21.0
23.09
24.17
24.27
23.6
22.47
21.22
20.03
19.03
18.23
17.62
17.07
16.43
15.49
14.05
12.04
9.51
6.57
3.27
-0.45
-4.68
-9.47
-14.63
-19.65
-23.83
-26.48
-27.18
-25.91
-23.12
-19.41
-15.47
-11.78
-8.59
-5.9
-3.58
-1.52
0.32
1.85
2.94
3.49
3.52
3.22
2.86
2.69
2.83
3.3
4.02
4.89
5.87
6.95
8.03
8.97
9.59
9.7
9.25
8.34
7.18
5.92
4.64
3.26
1.61
-0.41
-2.8
-5.36
-7.84
-10.03
-11.84
-13.29
-14.51
-15.62
-16.75
-18.03
-19.62
-21.56
-23.75
-25.91
-27.56
-28.22
-27.63
-25.75
-22.85
-19.29
-15.41
-11.45
-7.57
-3.88
-0.5
2.4
4.73
6.42
7.5
8.05
8.16
7.9
7.36
6.67
5.97
5.46
5.29
5.55
6.21
7.16
8.17
9.01
9.47
9.43
8.91
8.03
6.97
5.89
4.93
4.1
3.4
2.78
2.1
1.3
0.27
-1.08
-2.7
-4.51
-6.35
-8.09
-9.63
-11.03
-12.36
-13.74
-15.26
-16.88
-18.46
-19.75
-20.46
-20.35
-19.31
-17.41
-14.87
-12.06
-9.35
-7.01
-5.21
-3.92
-2.99
-2.25
-1.57
-0.89
-0.28
0.19
0.45
0.5
0.47
0.53
0.83
1.43
2.29
3.31
4.37
5.33
6.15
6.81
7.29
7.59
7.67
7.49
7.02
6.34
5.51
4.64
3.84
3.05
2.18
1.1
-0.29
-1.96
-3.77
-5.53
-7.11
-8.47
-9.72
-11.05
-12.6
-14.38
-16.23
-17.81
-18.68
-18.49
-17.07
-14.52
-11.19
-7.6
-4.25
-1.51
0.48
1.75
2.52
3.0
3.38
3.8
4.27
4.75
5.24
5.7
6.12
6.51
6.87
7.21
7.54
7.82
8.06
8.22
8.26
8.08
7.6
6.81
5.72
4.46
3.17
1.94
0.76
-0.41
-1.65
-3.03
-4.49
-6.0
-7.53
-9.08
-10.75
-12.59
-14.6
-16.74
-18.85
-20.78
-22.3
-23.15
-22.98
-21.53
-18.7
-14.74
-10.17
-5.67
-1.8
1.18
3.35
5.01
6.4
7.59
8.49
8.96
8.96
8.66
8.29
8.08
8.15
8.4
8.73
9.03
9.3
9.6
9.98
10.37
10.64
10.63
10.22
9.43
8.36
7.2
6.07
4.99
3.87
2.62
1.14
-0.57
-2.43
-4.34
-6.2
-7.93
-9.51
-10.98
-12.35
-13.71
-15.15
-16.73
-18.51
-20.41
-22.24
-23.65
-24.23
-23.55
-21.44
-18.01
-13.7
-9.17
-5.07
-1.77
0.62
2.32
3.66
4.89
6.16
7.44
8.59
9.49
10.09
10.41
10.53
10.58
10.65
10.84
11.16
11.61
12.12
12.6
12.94
13.07
12.93
12.49
11.75
10.76
9.53
8.14
6.66
5.14
3.69
2.35
1.12
-0.04
-1.2
-2.47
-3.93
-5.6
-7.42
-9.24
-10.89
-12.3
-13.51
-14.72
-16.23
-18.25
-20.82
-23.68
-26.26
-27.89
-27.95
-26.19
-22.7
-17.96
-12.64
-7.42
-2.76
1.16
4.4
7.1
9.36
11.21
12.57
13.36
13.58
13.34
12.85
12.31
11.87
11.6
11.38
10.98
10.12
8.51
5.98
2.48
-1.9
-7.02
-12.75
-19.07
-26.01
-33.5
-41.27
-48.7
-55.01
-59.32
-61.03
-59.93
-56.27
-50.68
-44.03
-37.19
-30.91
-25.69
-21.71
-18.81
-16.59
-14.5
-12.09
-9.06
-5.43
-1.42
2.66
6.58
10.38
14.21
18.33
22.93
28.03
33.46
38.92
44.08
48.57
52.08
54.24
54.73
53.37
50.14
45.29
39.2
32.34
25.17
18.03
11.21
5.03
-0.08
-3.7
-5.42
-4.99
-2.48
1.77
7.13
12.84
18.12
22.34
25.01
25.87
24.87
22.11
17.89
12.62
6.81
0.9
-4.75
-9.98
-14.74
-19.09
-22.98
-26.25
-28.62
-29.8
-29.69
-28.4
-26.3
-23.89
-21.62
-19.8
-18.46
-17.4
-16.18
-14.24
-11.12
-6.61
-0.85
5.7
12.38
18.59
23.89
28.06
31.07
33.03
34.05
34.24
33.78
32.77
31.35
29.66
27.84
26.05
24.52
23.44
22.93
22.99
23.43
24.05
24.59
24.86
24.74
24.15
23.01
21.26
18.93
16.22
13.39
10.77
8.55
6.76
5.23
3.62
1.66
-0.89
-4.08
-7.72
-11.57
-15.32
-18.71
-21.61
-24.04
-26.12
-28.03
-30.02
-32.33
-35.17
-38.55
-42.18
-45.41
-47.35
-47.04
-43.92
-38.01
-30.01
-21.03
-12.22
-4.42
1.99
7.05
11.04
14.19
16.67
18.5
19.65
20.18
20.21
19.98
19.76
19.79
20.21
21.09
22.45
24.27
26.46
28.85
31.13
32.93
33.82
33.52
31.96
29.27
25.83
22.02
18.2
14.62
11.45
8.73
6.44
4.45
2.53
0.46
-1.97
-4.85
-8.11
-11.48
-14.64
-17.3
-19.34
-20.87
-22.22
-23.79
-26.0
-28.96
-32.6
-36.52
-40.1
-42.61
-43.34
-41.74
-37.6
-31.16
-23.07
-14.26
-5.71
1.79
7.76
12.1
14.98
16.73
17.7
18.21
18.43
18.46
18.3
17.89
17.22
16.32
15.35
14.48
13.85
13.54
13.58
13.88
14.36
14.93
15.42
15.68
15.57
14.97
13.85
12.28
10.38
8.22
5.9
3.37
0.57
-2.55
-5.97
-9.55
-13.01
-16.08
-18.48
-20.12
-21.12
-21.85
-22.76
-24.34
-26.83
-30.15
-33.87
-37.21
-39.32
-39.45
-37.17
-32.5
-25.89
-18.08
-9.89
-2.12
4.68
10.21
14.43
17.49
19.67
21.22
22.39
23.26
23.82
23.96
23.59
22.76
21.58
20.31
19.19
18.44
18.15
18.28
18.75
19.36
19.93
20.29
20.29
19.81
18.78
17.18
15.08
12.61
9.96
7.33
4.88
2.65
0.49
-1.74
-4.24
-7.07
-10.13
-13.26
-16.26
-19.0
-21.46
-23.75
-26.05
-28.54
-31.43
-34.84
-38.78
-43.06
-47.2
-50.44
-51.88
-50.81
-46.88
-40.26
-31.66
-22.01
-12.28
-3.23
4.66
11.12
16.06
19.49
21.51
22.37
22.39
21.97
21.4
20.92
20.68
20.72
21.1
21.84
22.92
24.27
25.72
27.04
27.98
28.37
28.15
27.42
26.32
25.04
23.63
22.08
20.33
18.35
16.18
13.96
11.79
9.71
7.65
5.42
2.84
-0.15
-3.5
-7.07
-10.65
-14.09
-17.32
-20.35
-23.25
-26.04
-28.79
-31.64
-34.73
-38.19
-41.95
-45.61
-48.45
-49.58
-48.25
-44.1
-37.29
-28.54
-18.87
-9.38
-0.91
6.08
11.48
15.53
18.53
20.75
22.33
23.31
23.71
23.65
23.37
23.1
23.1
23.43
24.08
24.98
26.04
27.2
28.38
29.56
30.53
31.13
31.14
30.44
28.99
26.89
24.31
21.42
18.38
15.27
12.16
9.15
6.3
3.76
1.51
-0.54
-2.61
-4.97
-7.84
-11.17
-14.75
-18.24
-21.29
-23.8
-25.88
-27.87
-30.19
-33.18
-36.89
-41.05
-45.06
-48.04
-49.09
-47.44
-42.77
-35.31
-25.89
-15.66
-5.83
2.67
9.37
14.23
17.49
19.47
20.46
20.71
20.43
19.83
19.15
18.6
18.3
18.33
18.65
19.22
20.06
21.14
22.41
23.71
24.82
25.45
25.38
24.51
22.83
20.51
17.77
14.91
12.15
9.71
7.62
5.83
4.08
2.09
-0.41
-3.51
-7.09
-10.91
-14.62
-18.0
-20.87
-23.21
-25.1
-26.78
-28.54
-30.74
-33.59
-36.97
-40.34
-42.82
-43.38
-41.23
-36.14
-28.47
-19.08
-9.11
0.41
8.72
15.42
20.46
23.97
26.2
27.38
27.72
27.37
26.45
25.16
23.67
22.27
21.22
20.74
20.96
21.88
23.33
25.04
26.7
27.92
28.45
28.12
26.93
25.03
22.64
19.97
17.2
14.44
11.75
9.15
6.61
4.09
1.56
-1.08
-3.93
-7.09
-10.61
-14.46
-18.42
-22.2
-25.49
-28.03
-29.85
-31.21
-32.58
-34.43
-37.16
-40.88
-45.4
-50.18
-54.37
-56.96
-57.02
-53.91
-47.54
-38.44
-27.63
-16.37
-5.83
3.19
10.31
15.54
19.15
21.51
22.94
23.66
23.79
23.43
22.78
22.03
21.45
21.23
21.45
22.1
23.03
24.08
25.12
26.07
26.79
27.19
27.15
26.62
25.61
24.23
22.64
20.95
19.24
17.46
15.57
13.47
11.1
8.44
5.57
2.49
-0.74
-4.07
-7.54
-11.1
-14.68
-18.19
-21.47
-24.43
-27.04
-29.36
-31.57
-33.93
-36.74
-40.22
-44.35
-48.67
-52.36
-54.32
-53.51
-49.32
-41.77
-31.67
-20.29
-9.06
0.87
8.81
14.62
18.55
21.02
22.46
23.2
23.48
23.51
23.5
23.61
23.96
24.56
25.38
26.33
27.38
28.53
29.84
31.28
32.73
33.92
34.52
34.23
32.92
30.64
27.65
24.33
21.0
17.89
15.08
12.44
9.82
7.06
4.07
0.84
-2.59
-6.12
-9.63
-13.06
-16.33
-19.33
-22.06
-24.63
-27.35
-30.63
-34.83
-39.96
-45.5
-50.42
-53.42
-53.33
-49.61
-42.51
-33.01
-22.45
-12.06
-2.67
5.39
12.15
17.72
22.13
25.31
27.16
27.74
27.33
26.37
25.27
24.38
23.85
23.75
24.18
25.18
26.78
28.85
31.07
32.99
34.11
34.16
33.13
31.25
28.92
26.46
24.0
21.5
18.76
15.59
11.97
8.06
4.12
0.39
-3.03
-6.2
-9.29
-12.46
-15.72
-18.94
-21.96
-24.63
-27.0
-29.28
-31.82
-34.91
-38.72
-43.21
-48.11
-52.81
-56.48
-58.13
-56.95
-52.52
-45.09
-35.49
-24.9
-14.47
-4.97
3.21
10.03
15.54
19.81
22.92
25.01
26.25
26.84
26.93
26.59
25.9
25.01
24.2
23.81
24.04
24.94
26.3
27.79
29.12
30.03
30.44
30.27
29.54
28.25
26.5
24.41
22.12
19.78
17.36
14.84
12.12
9.2
6.16
3.1
0.13
-2.79
-5.82
-9.16
-12.87
-16.83
-20.72
-24.26
-27.24
-29.69
-31.86
-34.1
-36.77
-40.07
-44.01
-48.28
-52.34
-55.36
-56.39
-54.55
-49.35
-40.91
-30.02
-17.94
-6.1
4.33
12.67
18.78
22.97
25.7
27.36
28.21
28.33
27.78
26.69
25.36
24.13
23.35
23.21
23.77
24.87
26.28
27.75
29.08
30.15
30.91
31.22
30.93
29.83
27.79
24.88
21.42
17.89
14.75
12.28
10.38
8.71
6.73
4.04
0.51
-3.69
-8.16
-12.44
-16.16
-19.11
-21.31
-23.01
-24.52
-26.21
-28.41
-31.25
-34.5
-37.53
-39.32
-38.69
-34.76
-27.27
-16.73
-4.32
8.51
20.43
30.6
38.81
45.31
50.58
54.98
58.63
61.36
62.85
62.67
60.51
56.28
50.16
42.59
34.15
25.45
17.02
9.23
2.2
-4.09
-9.86
-15.39
-20.93
-26.54
-32.06
-37.1
-41.08
-43.37
-43.37
-40.8
-35.72
-28.67
-20.58
-12.61
-5.87
-1.12
1.36
1.85
0.91
-0.8
-2.78
-4.68
-6.31
-7.51
-8.07
-7.88
-7.03
-5.95
-5.17
-5.29
-6.55
-8.72
-11.07
-12.49
-12.01
-9.02
-3.5
3.97
12.39
20.63
27.69
32.79
35.42
35.33
32.49
27.25
20.26
12.48
4.88
-1.62
-6.5
-9.57
-10.85
-10.37
-7.95
-3.27
3.92
13.45
24.65
36.21
46.48
53.92
57.64
57.63
54.79
50.56
46.37
43.13
40.91
39.08
36.7
33.0
27.67
20.92
13.22
4.95
-3.8
-13.29
-23.88
-35.75
-48.82
-62.55
-76.16
-88.74
-99.45
-107.62
-112.79
-114.62
-112.93
-107.78
-99.52
-88.85
-76.75
-64.32
-52.57
-42.15
-33.35
-26.12
-20.22
-15.4
-11.41
-8.07
-5.25
-2.76
-0.4
2.08
4.88
8.16
11.95
16.15
20.52
24.69
28.29
31.08
33.0
34.15
34.69
34.73
34.17
32.86
30.6
27.3
23.02
17.89
12.11
5.89
-0.53
-6.89
-12.93
-18.54
-23.75
-28.83
-34.14
-40.0
-46.43
-52.99
-58.83
-62.9
-64.25
-62.31
-57.09
-49.14
-39.36
-28.73
-18.17
-8.33
0.32
7.55
13.27
17.53
20.47
22.31
23.26
23.58
23.55
23.55
23.98
25.19
27.37
30.5
34.33
38.53
42.74
46.63
49.8
51.82
52.31
50.98
47.82
43.22
37.75
32.13
26.86
22.12
17.8
13.53
8.99
3.96
-1.51
-7.2
-12.77
-17.91
-22.45
-26.49
-30.29
-34.21
-38.53
-43.28
-48.1
-52.31
-54.99
-55.24
-52.43
-46.42
-37.66
-27.14
-16.19
-6.17
1.94
7.66
11.1
12.74
13.17
12.91
12.27
11.47
10.78
10.51
11.03
12.58
15.1
18.24
21.47
24.33
26.54
28.1
29.19
30.0
30.57
30.75
30.22
28.74
26.31
23.21
20.04
17.44
15.89
15.43
15.62
15.74
15.12
13.49
11.19
9.03
7.94
8.47
10.33
12.43
13.28
11.62
7.15
0.82
-5.31
-8.89
-8.17
-2.93
5.31
13.65
18.81
18.32
11.55
-0.13
-13.83
-26.57
-36.65
-44.39
-51.76
-61.21
-74.22
-90.32
-107.38
-122.2
-131.29
-131.46
-120.37
-97.24
-63.77
-25.02
11.12
36.35
45.53
39.73
26.51
16.75
19.55
37.89
67.52
99.61
125.32
139.76
143.07
138.54
129.57
117.43
101.33
80.22
54.73
27.89
4.05
-13.15
-22.61
-25.97
-26.58
-27.78
-31.25
-36.38
-40.85
-42.0
-38.21
-29.68
-18.35
-6.99
1.88
6.99
8.55
7.97
6.93
6.62
7.3
8.31
8.61
7.32
4.2
-0.34
-5.44
-10.08
-13.44
-15.1
-14.98
-13.38
-10.78
-7.73
-4.66
-1.93
0.33
2.12
3.48
4.44
4.95
4.89
4.04
2.16
-1.0
-5.59
-11.56
-18.6
-26.23
-33.94
-41.31
-48.2
-54.7
-61.01
-67.3
-73.52
-79.34
-84.17
-87.33
-88.24
-86.61
-82.56
-76.62
-69.58
-62.36
-55.86
-50.79
-47.71
-46.99
-48.83
-53.3
-60.26
-69.34
-79.92
-91.08
-101.69
-110.72
-117.41
-121.52
-123.39
-123.7
-123.17
-122.26
-120.67
-117.23
-110.21
-97.81
-78.85
-53.38
-23.05
9.1
39.24
63.88
80.8
89.51
91.22
88.25
83.16
78.19
74.81
73.66
74.81
77.76
81.41
84.34
85.31
83.76
80.25
76.21
73.35
73.16
76.36
82.67
91.15
100.56
109.75
117.93
124.42
128.66
130.71
131.25
131.24
131.61
133.1
136.14
140.97
147.18
154.39
163.39
175.73
191.95
210.26
226.77
236.85
236.89
224.37
198.95
164.14
126.13
90.49
60.15
35.88
17.5
4.95
-3.39
-9.94
-14.57
-14.32
-6.71
8.41
29.31
53.08
75.85
89.94
85.63
57.0
4.27
-68.93
-157.43
-254.63
-353.18
-428.39
-451.45
-419.96
-358.33
-290.44
-227.71
-173.02
-125.98
-85.73
-51.42
-25.07
-9.96
-5.42
-5.92
-5.93
-1.94
7.34
21.74
40.64
60.89
78.16
90.77
101.24
111.14
120.56
128.26
132.52
131.87
124.15
107.35
81.24
50.95
20.95
-5.65
-27.16
-43.0
-53.27
-59.25
-62.81
-64.87
-65.26
-64.01
-61.37
-57.77
-53.74
-49.68
-46.1
-43.54
-41.75
-40.16
-38.43
-36.4
-34.17
-32.03
-30.27
-29.08
-28.45
-28.02
-27.36
-26.18
-24.4
-22.29
-20.39
-19.32
-19.47
-20.79
-22.7
-24.31
-24.94
-24.33
-22.87
-21.52
-21.29
-22.89
-26.27
-30.53
-34.38
-36.84
-37.42
-36.6
-35.62
-35.29
-36.4
-39.47
-44.8
-52.13
-60.15
-66.08
-66.07
-56.66
-36.7
-8.61
22.05
48.66
66.23
73.28
71.97
66.27
59.79
54.26
49.51
44.62
39.29
34.2
30.57
29.14
29.63
30.77
31.15
29.65
26.25
21.83
17.68
14.92
13.95
14.41
15.31
15.66
14.76
12.6
9.76
7.07
5.22
4.45
4.57
4.99
5.11
4.57
3.35
1.75
0.18
-1.02
-1.7
-1.99
-2.12
-2.37
-2.91
-3.76
-4.8
-5.83
-6.75
-7.52
-8.19
-8.85
-9.63
-10.71
-12.25
-14.35
-17.06
-20.42
-24.35
-28.62
-32.83
-36.36
-38.64
-39.06
-37.14
-32.69
-25.85
-17.16
-7.51
1.89
9.82
15.13
16.95
14.91
9.13
0.39
-10.1
-20.85
-30.34
-37.36
-40.94
-40.76
-37.07
-30.68
-22.64
-14.14
-6.41
-0.39
3.33
4.76
4.23
2.43
0.15
-1.68
-2.23
-1.08
1.89
6.38
11.79
17.4
22.44
26.39
28.92
29.96
29.61
28.08
25.49
21.94
17.56
12.47
7.1
1.97
-2.2
-4.83
-5.5
-4.41
-2.04
1.04
4.21
7.21
10.11
13.25
17.02
21.57
26.52
31.05
34.42
35.92
35.36
33.18
30.43
28.53
28.92
32.67
39.92
49.58
58.88
64.2
62.3
51.89
34.35
13.46
-6.08
-21.89
-32.42
-38.35
-41.77
-44.86
-48.65
-52.7
-55.88
-57.44
-57.82
-58.25
-60.49
-65.83
-74.63
-86.28
-99.59
-112.89
-123.72
-128.48
-122.85
-103.8
-71.59
-30.98
9.94
42.79
62.42
68.97
67.18
63.56
62.95
66.97
74.69
84.55
95.86
108.71
122.73
135.82
144.37
144.71
135.16
117.02
93.96
70.31
49.43
32.81
20.23
10.75
3.46
-1.98
-5.34
-6.06
-3.68
1.97
10.55
21.17
32.45
42.78
50.58
54.64
54.6
50.9
44.66
37.24
29.88
23.35
17.8
13.0
8.46
4.02
-0.37
-4.69
-8.88
-12.85
-16.29
-18.59
-19.05
-17.22
-13.32
-8.45
-4.19
-1.92
-2.26
-4.67
-7.89
-10.62
-12.14
-12.51
-12.34
-12.13
-11.76
-10.7
-8.21
-3.81
2.33
9.26
15.7
20.37
22.36
21.49
18.02
12.62
6.11
-0.75
-7.36
-13.21
-17.85
-20.9
-22.04
-21.16
-18.44
-14.41
-9.89
-5.78
-2.83
-1.39
-1.44
-2.55
-4.21
-5.98
-7.59
-8.99
-10.21
-11.29
-12.16
-12.79
-13.14
-13.32
-13.52
-13.87
-14.49
-15.36
-16.46
-17.79
-19.46
-21.59
-24.18
-27.02
-29.56
-31.16
-31.25
-29.63
-26.49
-22.37
-17.91
-13.64
-9.93
-6.91
-4.57
-2.88
-1.82
-1.41
-1.59
-2.27
-3.24
-4.28
-5.19
-5.79
-5.97
-5.71
-5.03
-4.01
-2.77
-1.46
-0.26
0.62
1.01
0.79
-0.01
-1.36
-3.14
-5.27
-7.7
-10.42
-13.49
-16.98
-21.02
-25.7
-31.12
-37.34
-44.32
-51.83
-59.52
-66.86
-73.23
-77.95
-80.38
-80.04
-76.68
-70.38
-61.58
-50.97
-39.51
-28.2
-18.01
-9.59
-3.25
1.18
4.24
6.64
9.12
12.19
16.07
20.77
26.17
32.06
38.21
44.33
49.97
54.68
58.04
59.86
60.13
59.08
56.96
54.03
50.42
46.23
41.53
36.51
31.47
26.72
22.49
18.82
15.5
12.17
8.47
4.28
-0.19
-4.41
-7.74
-9.53
-9.5
-7.75
-4.74
-1.15
2.37
5.31
7.4
8.62
9.11
9.05
8.64
7.98
7.15
6.19
5.14
4.06
3.03
2.13
1.45
1.06
1.0
1.3
1.94
2.81
3.71
4.45
4.81
4.69
4.13
3.25
2.22
1.14
0.07
-1.08
-2.35
-3.79
-5.39
-7.05
-8.65
-10.14
-11.51
-12.84
-14.31
-16.07
-18.29
-21.03
-24.12
-27.18
-29.64
-30.82
-30.24
-27.71
-23.47
-18.08
-12.32
-6.85
-2.15
1.59
4.34
6.18
7.24
7.63
7.48
6.94
6.24
5.53
4.95
4.57
4.37
4.35
4.6
5.24
6.31
7.79
9.47
11.03
12.15
12.59
12.27
11.31
9.87
8.09
6.1
3.89
1.51
-0.99
-3.54
-6.07
-8.55
-10.96
-13.27
-15.46
-17.45
-19.13
-20.41
-21.36
-22.16
-23.04
-24.23
-25.7
-27.11
-27.85
-27.18
-24.54
-19.87
-13.71
-7.01
-0.88
3.81
6.77
8.2
8.66
8.75
8.83
9.03
9.24
9.36
9.31
9.15
9.01
9.01
9.25
9.72
10.36
11.02
11.57
11.82
11.68
11.13
10.24
9.12
7.83
6.43
4.85
3.09
1.16
-0.9
-2.97
-4.98
-6.86
-8.58
-10.17
-11.69
-13.15
-14.58
-16.05
-17.67
-19.59
-21.89
-24.45
-26.91
-28.65
-29.02
-27.53
-24.12
-19.2
-13.51
-7.82
-2.76
1.42
4.74
7.42
9.69
11.63
13.26
14.47
15.22
15.47
15.28
14.75
14.04
13.3
12.68
12.28
12.16
12.35
12.83
13.51
14.2
14.65
14.62
13.97
12.73
11.09
9.27
7.48
5.91
4.62
3.6
2.79
2.09
1.31
0.26
-1.23
-3.19
-5.47
-7.81
-9.98
-11.8
-13.29
-14.66
-16.16
-18.03
-20.41
-23.25
-26.31
-29.21
-31.33
-32.01
-30.69
-27.13
-21.59
-14.84
-7.89
-1.72
3.06
6.31
8.34
9.59
10.46
11.09
11.55
11.8
11.93
12.07
12.34
12.77
13.31
13.9
14.52
15.16
15.89
16.69
17.51
18.2
18.66
18.75
18.53
17.95
17.02
15.71
14.02
12.04
9.96
8.01
6.33
4.93
3.52
1.78
-0.52
-3.41
-6.64
-9.74
-12.27
-13.95
-14.77
-14.96
-14.94
-15.08
-15.69
-17.0
-19.08
-21.84
-24.99
-27.99
-30.16
-30.8
-29.42
-26.0
-20.9
-14.89
-8.89
-3.69
0.25
2.84
4.31
4.99
5.16
4.96
4.35
3.3
1.8
0.07
-1.5
-2.48
-2.48
-1.36
0.81
3.75
7.02
10.16
12.75
14.53
15.32
15.07
13.82
11.61
8.54
4.8
0.65
-3.56
-7.48
-10.8
-13.37
-15.18
-16.37
-17.19
-17.87
-18.65
-19.74
-21.25
-23.19
-25.31
-27.16
-28.13
-27.59
-25.11
-20.72
-14.93
-8.58
-2.55
2.53
6.47
9.38
11.59
13.33
14.69
15.6
16.0
15.94
15.58
15.15
14.84
14.77
14.95
15.36
15.97
16.76
17.66
18.59
19.37
19.82
19.73
18.95
17.47
15.37
12.88
10.19
7.47
4.77
2.08
-0.67
-3.47
-6.19
-8.67
-10.67
-12.06
-12.91
-13.39
-13.86
-14.72
-16.31
-18.84
-22.29
-26.33
-30.33
-33.43
-34.76
-33.67
-30.07
-24.44
-17.7
-10.91
-4.91
-0.14
3.34
5.82
7.62
9.01
10.19
11.3
12.44
13.62
14.78
15.8
16.6
17.22
17.76
18.38
19.17
20.06
20.88
21.44
21.61
21.4
20.9
20.22
19.38
18.35
17.04
15.44
13.66
11.84
10.17
8.71
7.37
5.92
4.09
1.72
-1.22
-4.53
-7.98
-11.27
-14.19
-16.66
-18.72
-20.49
-22.15
-23.98
-26.12
-28.63
-31.28
-33.53
-34.69
-34.04
-31.18
-26.2
-19.71
-12.62
-5.85
-0.02
4.61
8.1
10.65
12.42
13.57
14.12
14.17
13.83
13.24
12.59
12.05
11.87
12.22
13.2
14.77
16.76
18.87
20.77
22.24
23.11
23.36
23.01
22.15
20.87
19.31
17.52
15.54
13.41
11.16
8.92
6.77
4.76
2.81
0.73
-1.69
-4.56
-7.75
-11.01
-14.06
-16.73
-19.04
-21.14
-23.24
-25.52
-28.02
-30.63
-33.07
-34.93
-35.64
-34.67
-31.63
-26.53
-19.85
-12.36
-5.0
1.52
6.79
10.79
13.66
15.61
16.82
17.38
17.44
17.18
16.81
16.5
16.36
16.38
16.54
16.84
17.26
17.8
18.38
18.89
19.21
19.28
19.02
18.49
17.69
16.59
15.18
13.44
11.4
9.27
7.26
5.57
4.32
3.43
2.68
1.78
0.46
-1.44
-3.83
-6.48
-9.15
-11.63
-13.8
-15.73
-17.59
-19.64
-22.1
-25.07
-28.45
-31.87
-34.68
-36.08
-35.39
-32.23
-26.76
-19.64
-11.8
-4.24
2.34
7.6
11.49
14.15
15.85
16.8
17.22
17.2
16.83
16.17
15.29
14.33
13.49
12.98
12.96
13.47
14.4
15.52
16.63
17.56
18.14
18.25
17.74
16.51
14.61
12.24
9.71
7.42
5.64
4.47
3.74
3.06
2.04
0.34
-2.11
-5.15
-8.42
-11.59
-14.35
-16.6
-18.48
-20.29
-22.4
-25.07
-28.32
-31.81
-34.9
-36.77
-36.65
-34.1
-29.17
-22.37
-14.58
-6.72
0.4
6.25
10.65
13.67
15.48
16.34
16.41
15.89
14.96
13.88
12.92
12.33
12.31
12.89
14.04
15.58
17.38
19.24
20.99
22.4
23.2
23.16
22.11
20.07
17.26
14.04
10.81
7.92
5.56
3.73
2.27
0.88
-0.73
-2.79
-5.42
-8.5
-11.74
-14.76
-17.2
-18.9
-20.05
-21.06
-22.5
-24.9
-28.47
-33.03
-37.91
-42.06
-44.31
-43.74
-39.97
-33.27
-24.5
-14.82
-5.34
3.15
10.17
15.58
19.4
21.71
22.64
22.31
20.93
18.72
16.02
13.21
10.75
9.13
8.79
9.98
12.67
16.53
20.95
25.16
28.46
30.34
30.55
29.05
26.08
22.0
17.31
12.59
8.37
5.13
3.12
2.33
2.46
3.08
3.64
3.67
2.85
1.03
-1.75
-5.32
-9.42
-13.77
-18.09
-22.16
-25.86
-29.22
-32.32
-35.23
-37.88
-39.89
-40.66
-39.47
-35.82
-29.68
-21.58
-12.51
-3.64
4.06
10.04
14.22
16.79
18.09
18.44
18.1
17.34
16.44
15.74
15.56
16.08
17.3
19.08
21.17
23.36
25.51
27.47
29.14
30.33
30.87
30.6
29.44
27.44
24.79
21.73
18.54
15.46
12.59
9.9
7.29
4.59
1.67
-1.44
-4.59
-7.54
-10.1
-12.21
-14.02
-15.73
-17.63
-19.97
-22.93
-26.47
-30.34
-33.92
-36.29
-36.53
-33.85
-28.11
-19.84
-10.13
-0.25
8.73
16.21
22.1
26.58
29.97
32.43
34.07
34.95
35.18
34.91
34.33
33.68
33.01
32.49
32.09
31.78
31.48
31.09
30.57
29.96
29.36
28.77
28.16
27.29
25.93
23.84
20.93
17.37
13.4
9.28
5.08
0.75
-3.86
-8.87
-14.22
-19.74
-25.1
-30.02
-34.37
-38.15
-41.49
-44.59
-47.66
-50.81
-54.08
-57.32
-60.17
-62.12
-62.6
-61.22
-57.93
-53.04
-47.15
-40.99
-35.16
-29.99
-25.51
-21.55
-17.9
-14.47
-11.28
-8.47
-6.18
-4.48
-3.27
-2.36
-1.54
-0.61
0.5
1.84
3.44
5.31
7.36
9.44
11.29
12.58
13.04
12.54
11.11
8.96
6.31
3.34
0.27
-2.78
-5.72
-8.54
-11.33
-14.31
-17.63
-21.38
-25.45
-29.5
-33.13
-36.05
-38.21
-39.85
-41.37
-43.19
-45.49
-48.1
-50.55
-52.14
-52.14
-49.99
-45.49
-38.83
-30.6
-21.66
-12.89
-5.0
1.56
6.69
10.57
13.46
15.68
17.4
18.71
19.67
20.27
20.51
20.48
20.31
20.21
20.39
21.04
22.25
23.98
26.02
28.09
29.83
30.97
31.39
31.13
30.37
29.33
28.17
26.86
25.33
23.39
20.92
17.92
14.49
10.76
6.88
3.0
-0.81
-4.47
-7.98
-11.47
-15.14
-19.18
-23.66
-28.38
-32.81
-36.16
-37.6
-36.55
-32.84
-26.87
-19.4
-11.36
-3.57
3.39
9.27
14.03
17.75
20.5
22.33
23.34
23.63
23.41
22.89
22.31
21.86
21.65
21.82
22.43
23.49
24.94
26.62
28.35
29.89
31.07
31.71
31.67
30.85
29.23
26.87
23.95
20.83
17.8
15.11
12.77
10.57
8.22
5.45
2.18
-1.46
-5.17
-8.68
-11.83
-14.61
-17.2
-19.79
-22.6
-25.83
-29.56
-33.63
-37.62
-40.81
-42.37
-41.62
-38.34
-32.82
-25.85
-18.37
-11.19
-4.8
0.62
5.2
9.07
12.4
15.25
17.66
19.64
21.18
22.29
23.03
23.49
23.82
24.16
24.63
25.23
25.97
26.75
27.48
28.13
28.69
29.08
29.23
29.03
28.33
27.1
25.41
23.45
21.48
19.67
18.1
16.67
15.18
13.31
10.87
7.78
4.16
0.27
-3.61
-7.26
-10.64
-13.82
-17.01
-20.34
-23.96
-27.86
-31.92
-35.9
-39.29
-41.45
-41.69
-39.61
-35.16
-28.82
-21.41
-13.81
-6.8
-0.75
4.28
8.36
11.67
14.3
16.36
17.88
18.91
19.53
19.84
20.02
20.28
20.78
21.63
22.82
24.2
25.62
26.9
27.91
28.59
28.9
28.87
28.49
27.82
26.83
25.58
24.06
22.32
20.39
18.33
16.14
13.77
11.1
8.05
4.62
0.93
-2.81
-6.4
-9.7
-12.67
-15.32
-17.73
-19.95
-22.1
-24.42
-27.14
-30.47
-34.31
-38.23
-41.44
-43.04
-42.37
-39.18
-33.84
-27.05
-19.71
-12.58
-6.17
-0.71
3.8
7.46
10.44
12.88
14.92
16.65
18.1
19.28
20.2
20.91
21.51
22.11
22.76
23.46
24.14
24.75
25.32
25.85
26.34
26.7
26.74
26.26
25.16
23.48
21.4
19.24
17.24
15.51
13.96
12.38
10.52
8.21
5.42
2.29
-1.01
-4.29
-7.41
-10.38
-13.22
-15.95
-18.59
-21.2
-23.87
-26.7
-29.68
-32.63
-35.13
-36.6
-36.46
-34.34
-30.29
-24.78
-18.55
-12.39
-6.97
-2.55
0.82
3.38
5.36
6.93
8.14
8.96
9.36
9.34
9.01
8.54
8.11
7.89
8.02
8.58
9.53
10.75
12.01
13.01
13.5
13.34
12.53
11.2
9.61
7.96
6.41
4.99
3.68
2.32
0.76
-1.14
-3.46
-6.15
-9.06
-11.99
-14.77
-17.28
-19.6
-21.92
-24.45
-27.29
-30.32
-33.16
-35.22
-35.86
-34.59
-31.23
-26.02
-19.49
-12.34
-5.29
1.07
6.38
10.51
13.47
15.4
16.47
16.87
16.81
16.47
16.01
15.62
15.41
15.46
15.77
16.25
16.83
17.4
17.91
18.3
18.51
18.47
18.13
17.45
16.41
15.16
13.79
12.41
11.05
9.6
7.85
5.62
2.81
-0.53
-4.16
-7.85
-11.35
-14.54
-17.45
-20.23
-23.11
-26.24
-29.76
-33.52
-37.14
-40.05
-41.57
-41.2
-38.73
-34.32
-28.44
-21.73
-14.82
-8.2
-2.2
3.03
7.44
11.06
13.94
16.06
17.45
18.14
18.28
18.03
17.69
17.45
17.49
17.79
18.25
18.75
19.25
19.78
20.41
21.15
21.89
22.37
22.35
21.64
20.24
18.29
16.06
13.79
11.67
9.7
7.79
5.8
3.61
1.13
-1.62
-4.56
-7.52
-10.35
-12.94
-15.22
-17.21
-19.04
-20.94
-23.18
-25.98
-29.41
-33.24
-36.96
-39.78
-40.89
-39.79
-36.36
-30.95
-24.29
-17.14
-10.19
-3.88
1.57
6.15
9.91
12.97
15.47
17.47
19.08
20.34
21.34
22.13
22.78
23.36
23.91
24.48
25.12
25.88
26.86
