17.93
16.89
15.24
13.1
10.64
8.12
5.76
3.67
1.9
0.47
-0.75
-1.84
-2.83
-3.79
-4.68
-5.42
-5.97
-6.34
-6.6
-6.88
-7.3
-7.85
-8.52
-9.18
-9.7
-10.0
-9.99
-9.57
-8.61
-7.0
-4.72
-2.03
0.78
3.37
5.51
7.11
8.23
8.96
9.38
9.53
9.43
9.13
8.75
8.41
8.22
8.21
8.3
8.39
8.37
8.18
7.81
7.33
6.73
6.13
5.57
5.08
4.7
4.43
4.2
3.96
3.65
3.19
2.61
1.95
1.23
0.5
-0.28
-1.21
-2.3
-3.55
-4.85
-6.04
-6.98
-7.65
-8.07
-8.37
-8.71
-9.18
-9.75
-10.3
-10.63
-10.55
-9.95
-8.78
-7.11
-5.1
-2.95
-0.87
0.95
2.4
3.39
3.89
3.91
3.54
2.91
2.27
1.8
1.66
1.86
2.26
2.68
2.92
2.88
2.58
2.14
1.63
1.16
0.81
0.63
0.66
0.87
1.17
1.43
1.54
1.41
1.02
0.49
-0.04
-0.35
-0.39
-0.19
0.12
0.35
0.33
-0.06
-0.77
-1.73
-2.78
-3.82
-4.78
-5.66
-6.47
-7.21
-7.92
-8.6
-9.24
-9.75
-10.01
-9.88
-9.25
-8.13
-6.65
-4.99
-3.29
-1.66
-0.13
1.27
2.5
3.48
4.11
4.44
4.58
4.68
4.82
5.02
5.23
5.38
5.47
5.55
5.66
5.89
6.22
6.68
7.35
8.28
9.51
10.92
12.24
13.15
13.39
12.82
11.48
9.55
7.3
5.01
2.96
1.36
0.33
-0.14
-0.26
-0.38
-0.84
-1.83
-3.28
-4.96
-6.56
-7.84
-8.75
-9.36
-9.79
-10.13
-10.5
-10.93
-11.45
-12.03
-12.59
-12.98
-13.06
-12.7
-11.86
-10.65
-9.23
-7.76
-6.38
-5.15
-4.11
-3.22
-2.45
-1.76
-1.13
-0.55
0.02
0.55
1.07
1.59
2.14
2.68
3.28
3.93
4.68
5.54
6.45
7.36
8.13
8.63
8.77
8.59
8.09
7.37
6.47
5.46
4.44
3.54
2.87
2.46
2.28
2.17
1.93
1.46
0.71
-0.25
-1.28
-2.3
-3.24
-4.02
-4.57
-4.84
-4.8
-4.55
-4.25
-4.06
-4.1
-4.35
-4.68
-4.98
-5.15
-5.19
-5.16
-5.12
-5.17
-5.31
-5.54
-5.8
-6.02
-6.11
-6.0
-5.62
-4.96
-4.01
-2.74
-1.15
0.71
2.69
4.56
6.11
7.15
7.64
7.67
7.48
7.27
7.2
7.27
7.42
7.48
7.31
6.78
5.82
4.5
2.91
1.16
-0.65
-2.5
-4.41
-6.33
-8.17
-9.88
-11.37
-12.6
-13.8
-15.4
-17.92
-21.99
-27.89
-35.68
-45.16
-55.83
-66.99
-77.75
-87.17
-94.17
-97.81
-97.26
-92.04
-82.05
-67.76
-50.1
-30.46
-10.42
8.52
25.14
38.61
48.6
55.19
58.83
60.15
59.84
58.65
57.14
55.55
53.88
51.99
49.62
46.71
43.2
39.21
34.99
30.83
26.91
23.32
20.19
17.5
15.31
13.58
12.29
11.26
10.35
9.29
7.9
6.11
3.98
1.68
-0.54
-2.48
-4.01
-5.12
-5.85
-6.32
-6.52
-6.48
-6.07
-5.14
-3.66
-1.64
0.66
2.96
4.83
6.11
6.68
6.67
6.41
6.09
5.81
5.55
5.35
5.25
5.4
5.89
6.74
7.94
9.29
10.51
11.38
11.78
11.68
11.16
10.25
9.01
7.57
6.0
4.46
3.12
2.13
1.59
1.56
1.97
2.53
3.03
3.17
2.83
2.02
0.77
-0.72
-2.2
-3.42
-4.35
-4.93
-5.24
-5.45
-5.69
-6.18
-7.01
-8.11
-9.24
-10.14
-10.49
-10.16
-9.03
-7.23
-5.02
-2.67
-0.45
1.49
3.02
4.12
4.71
4.8
4.46
3.79
3.02
2.25
1.64
1.25
1.15
1.3
1.69
2.24
2.84
3.38
3.72
3.9
4.02
4.21
4.55
4.95
5.3
5.44
5.37
5.11
4.78
4.45
4.13
3.8
3.33
2.76
2.13
1.53
0.94
0.33
-0.42
-1.45
-2.75
-4.32
-6.04
-7.79
-9.39
-10.77
-11.83
-12.6
-13.06
-13.09
-12.62
-11.54
-9.91
-7.88
-5.81
-4.0
-2.66
-1.83
-1.22
-0.59
0.33
1.58
2.97
4.29
5.41
6.29
7.0
7.7
8.32
8.75
8.81
8.37
7.49
6.41
5.45
4.82
4.66
4.89
5.28
5.58
5.58
5.11
4.23
3.01
1.58
0.1
-1.36
-2.79
-4.19
-5.59
-6.91
-8.01
-8.84
-9.39
-9.7
-9.91
-10.01
-9.96
-9.76
-9.39
-8.9
-8.38
-7.88
-7.31
-6.51
-5.27
-3.53
-1.46
0.65
2.54
4.13
5.44
6.68
7.82
8.79
9.34
9.19
8.22
6.56
4.55
2.62
1.11
0.18
-0.14
0.05
0.67
1.58
2.68
3.88
5.0
5.79
6.06
5.63
4.52
2.98
1.31
-0.14
-1.05
-1.41
-1.4
-1.2
-1.03
-0.97
-0.94
-0.88
-0.85
-0.93
-1.2
-1.77
-2.57
-3.52
-4.56
-5.64
-6.75
-7.82
-8.69
-9.11
-8.82
-7.76
-6.07
-4.02
-1.91
-0.04
1.44
2.56
3.3
3.78
4.0
3.97
3.81
3.63
3.54
3.59
3.83
4.07
4.29
4.39
4.35
4.15
3.88
3.64
3.51
3.51
3.55
3.57
3.45
3.19
2.75
2.14
1.4
0.48
-0.64
-1.98
-3.43
-4.9
-6.2
-7.15
-7.62
-7.5
-6.85
-5.85
-4.76
-3.77
-3.14
-2.97
-3.25
-3.98
-5.04
-6.28
-7.55
-8.56
-9.07
-8.93
-8.11
-6.68
-4.85
-2.8
-0.68
1.39
3.31
4.93
6.1
6.7
6.7
6.16
5.24
4.13
2.98
1.92
1.08
0.6
0.65
1.25
2.3
3.69
5.22
6.69
7.94
8.79
9.0
8.46
7.06
4.92
2.34
-0.24
-2.49
-4.08
-4.9
-5.0
-4.48
-3.64
-2.74
-2.02
-1.64
-1.67
-2.0
-2.48
-2.97
-3.3
-3.49
-3.66
-3.88
-4.29
-4.94
-5.81
-6.8
-7.79
-8.61
-9.14
-9.47
-9.6
-9.63
-9.68
-9.98
-10.8
-12.62
-15.86
-20.89
-27.94
-36.81
-47.02
-57.58
-67.38
-75.23
-80.04
-80.99
-77.59
-69.83
-58.0
-43.0
-25.93
-8.08
9.16
24.65
37.52
47.37
54.03
57.79
59.04
58.3
56.16
53.16
49.65
45.87
42.02
38.14
34.32
30.58
26.93
23.47
20.29
17.46
15.03
13.08
11.55
10.4
9.52
8.76
7.95
6.96
5.75
4.37
2.97
1.78
0.96
0.5
0.36
0.43
0.73
1.28
2.1
3.14
4.21
5.13
5.68
5.87
5.78
5.68
5.72
6.01
6.4
6.76
6.91
6.8
6.5
6.14
5.75
5.42
5.19
5.04
4.92
4.81
4.73
4.7
4.66
4.52
4.27
3.89
3.47
2.93
2.25
1.29
-0.01
-1.7
-3.67
-5.72
-7.59
-8.98
-9.82
-10.1
-9.96
-9.56
-9.07
-8.61
-8.29
-8.25
-8.39
-8.55
-8.51
-8.12
-7.23
-5.8
-3.97
-1.97
-0.09
1.5
2.64
3.3
3.47
3.33
3.03
2.72
2.49
2.3
2.17
1.98
1.75
1.58
1.56
1.69
1.93
2.19
2.34
2.32
2.12
1.84
1.58
1.43
1.41
1.47
1.52
1.48
1.27
0.76
0.03
-0.84
-1.69
-2.33
-2.69
-2.76
-2.6
-2.3
-1.89
-1.38
-0.76
-0.17
0.28
0.42
0.12
-0.73
-2.11
-3.94
-6.12
-8.34
-10.28
-11.59
-11.98
-11.4
-10.05
-8.2
-6.18
-4.27
-2.53
-1.08
0.09
0.98
1.58
1.94
2.18
2.49
2.99
3.7
4.5
5.24
5.77
6.08
6.24
6.31
6.31
6.16
5.79
5.13
4.17
3.05
1.86
0.67
-0.43
-1.4
-2.18
-2.7
-2.98
-3.06
-2.97
-2.87
-2.9
-3.09
-3.49
-4.09
-4.81
-5.55
-6.14
-6.38
-6.17
-5.51
-4.55
-3.52
-2.64
-2.06
-1.78
-1.71
-1.78
-1.95
-2.13
-2.21
-2.11
-1.67
-0.85
0.26
1.52
2.63
3.44
3.88
4.0
3.87
3.58
3.2
2.73
2.16
1.41
0.53
-0.45
-1.34
-1.97
-2.19
-1.94
-1.21
-0.01
1.53
3.33
5.14
6.74
7.87
8.36
8.15
7.36
6.21
4.97
3.85
2.95
2.23
1.62
1.07
0.48
-0.09
-0.56
-0.88
-1.1
-1.31
-1.57
-2.06
-2.82
-3.94
-5.38
-7.06
-8.73
-10.19
-11.23
-11.64
-11.47
-10.71
-9.48
-7.88
-6.1
-4.18
-2.25
-0.53
0.92
1.96
2.66
3.02
3.21
3.26
3.26
3.28
3.28
3.32
3.47
3.81
4.42
5.33
6.52
7.84
9.27
10.57
11.65
12.33
12.4
11.91
10.85
9.34
7.46
5.39
3.17
1.14
-0.57
-1.82
-2.29
-1.9
-0.62
1.4
3.97
6.72
9.57
12.3
14.84
17.25
19.44
21.29
22.71
23.67
24.26
25.15
27.02
30.5
35.92
42.93
50.63
57.99
64.05
68.19
70.37
70.83
69.94
68.11
65.47
62.16
58.65
55.65
54.06
54.71
57.87
63.31
70.57
78.92
87.62
95.64
101.29
102.32
96.36
82.24
61.36
37.91
17.25
3.59
-1.81
-1.2
1.14
-0.22
-9.21
-26.63
-49.82
-74.29
-95.47
-109.4
-114.22
-109.87
-100.38
-91.4
-87.27
-89.0
-95.23
-103.88
-112.5
-120.56
-127.29
-134.83
-144.74
-155.6
-162.55
-160.72
-148.27
-125.5
-97.32
-69.45
-52.62
-58.01
-92.54
-155.13
-238.31
-331.85
-424.09
-507.86
-546.84
-514.02
-410.54
-268.43
-125.85
-6.05
75.57
133.01
177.95
219.39
259.07
294.01
319.88
332.49
327.95
302.56
257.04
194.6
123.59
59.53
16.92
-0.0
3.01
17.58
38.16
64.32
94.84
128.26
160.39
184.98
197.72
199.17
193.86
187.41
185.06
188.32
196.08
206.19
215.07
219.95
220.23
217.17
212.08
206.21
198.6
187.71
173.48
154.47
129.19
96.26
54.71
2.9
-53.11
-107.98
-158.36
-198.62
-227.16
-243.13
-245.01
-229.27
-192.22
-133.4
-59.71
11.8
68.06
94.19
83.68
40.2
-24.46
-95.65
-161.06
-214.19
-257.75
-283.57
-289.14
-271.79
-231.95
-176.23
-117.63
-72.79
-56.55
-83.35
-142.3
-222.27
-308.34
-387.29
-451.23
-498.32
-529.73
-501.01
-468.61
-417.02
-341.5
-244.13
-136.71
-38.31
31.61
61.64
54.2
17.87
-17.61
-34.65
-26.92
-0.56
31.0
55.05
65.15
62.28
46.3
28.48
10.81
-7.38
-26.81
-45.68
-58.96
-60.53
-46.21
-19.49
18.69
60.33
97.77
126.46
146.85
163.58
183.17
210.81
246.17
287.93
329.43
363.16
383.12
386.73
375.17
353.0
326.9
303.44
288.67
284.39
288.04
293.54
293.94
284.55
265.14
240.08
215.91
197.65
186.46
179.57
172.19
160.7
144.17
124.02
102.47
80.67
58.13
33.2
4.85
-26.4
-58.1
-86.68
-108.83
-122.6
-128.27
-128.41
-127.09
-128.48
-135.39
-148.06
-163.99
-178.78
-187.77
-187.71
-177.94
-160.12
-137.2
-112.22
-87.33
-63.57
-41.33
-20.64
-1.79
14.5
27.5
36.84
42.68
45.79
47.15
47.41
46.64
44.27
39.42
31.61
21.31
9.9
-0.57
-8.3
-12.33
-13.03
-11.86
-10.88
-11.8
-15.57
-22.05
-30.13
-38.59
-46.39
-53.17
-59.26
-65.37
-72.2
-80.25
-89.54
-99.45
-108.95
-116.58
-120.79
-120.18
-113.96
-102.0
-84.85
-63.33
-38.13
-9.68
21.92
56.44
93.0
130.16
165.74
197.54
223.85
243.98
257.96
266.45
270.17
269.65
265.69
259.5
252.89
248.13
247.36
251.83
261.73
275.88
292.16
307.97
320.39
326.52
323.6
309.58
283.36
245.17
196.49
139.73
77.74
13.14
-51.92
-115.92
-177.76
-236.53
-291.31
-341.34
-386.11
-424.96
-456.8
-479.71
-491.09
-488.81
-472.4
-443.84
-407.48
-368.69
-332.09
-299.99
-272.12
-246.62
-221.45
-195.66
-169.61
-144.46
-121.13
-99.91
-80.13
-61.06
-42.65
-25.91
-12.86
-5.69
-5.93
-13.44
-26.5
-42.2
-57.59
-70.66
-80.73
-88.33
-94.3
-99.15
-102.46
-103.12
-99.85
-91.85
-79.31
-63.24
-45.33
-27.26
-10.33
4.72
17.4
27.5
34.56
38.0
37.42
32.6
23.97
12.62
-0.06
-12.8
-24.73
-35.51
-45.45
-54.7
-63.38
-71.2
-77.24
-80.57
-80.27
-75.8
-67.11
-55.01
-40.71
-25.99
-12.8
-2.74
3.04
4.16
0.85
-5.97
-14.99
-24.49
-32.95
-39.18
-42.68
-43.61
-42.29
-38.73
-32.31
-21.88
-6.36
14.28
38.7
64.57
89.24
110.82
128.96
144.07
156.96
167.85
176.2
181.11
182.33
180.31
176.26
171.72
167.57
163.93
160.24
155.74
149.83
142.51
134.12
125.12
115.92
106.66
97.24
87.47
77.2
66.47
55.62
45.18
35.76
27.87
21.63
16.91
13.32
10.25
7.31
4.2
0.87
-2.54
-5.81
-8.83
-11.36
-13.13
-13.92
-13.46
-11.75
-9.02
-5.58
-1.78
1.93
5.11
7.27
7.93
6.9
4.26
0.55
-3.21
-5.97
-6.84
-5.54
-2.4
1.74
6.01
9.67
12.42
14.4
15.89
17.04
17.73
17.4
15.48
11.75
6.36
-0.25
-7.52
-15.06
-22.58
-29.79
-36.43
-42.11
-46.46
-49.19
-50.29
-49.75
-47.66
-43.94
-38.51
-31.56
-23.53
-15.26
-7.64
-1.51
2.74
5.05
5.6
4.79
2.94
0.31
-2.91
-6.55
-10.43
-14.36
-18.13
-21.51
-24.13
-25.71
-26.04
-25.21
-23.54
-21.54
-19.7
-18.36
-17.68
-17.41
-17.27
-16.93
-16.09
-14.65
-12.73
-10.46
-7.91
-5.23
-2.3
0.8
3.74
6.1
7.23
6.6
4.07
0.01
-4.92
-9.65
-13.31
-15.29
-15.41
-13.8
-10.79
-6.74
-1.88
3.55
9.48
15.72
22.04
28.05
33.22
37.06
39.26
39.58
38.15
35.31
31.54
27.37
23.42
20.01
17.42
15.77
15.0
14.95
15.44
16.15
16.74
17.03
16.71
15.82
14.4
12.81
11.3
10.27
9.75
9.69
9.87
9.93
9.6
8.52
6.55
3.57
-0.26
-4.76
-9.39
-13.71
-17.2
-19.65
-21.0
-21.51
-21.54
-21.32
-21.12
-20.75
-19.99
-18.55
-16.2
-12.91
-8.93
-4.58
-0.2
4.06
8.09
11.9
15.48
18.73
21.43
23.36
24.36
24.5
23.91
22.7
21.01
19.01
16.78
14.33
11.85
9.52
7.59
6.13
5.0
3.78
1.93
-1.13
-5.76
-11.81
-18.72
-25.63
-31.66
-36.14
-38.57
-38.77
-36.73
-32.67
-26.96
-20.26
-13.26
-6.71
-1.09
3.37
6.68
9.03
10.53
11.29
11.14
10.11
8.16
5.43
2.24
-0.97
-3.72
-5.67
-6.58
-6.51
-5.69
-4.48
-3.31
-2.45
-2.08
-2.18
-2.66
-3.36
-4.17
-4.92
-5.47
-5.83
-6.0
-6.23
-6.71
-7.63
-8.95
-10.59
-12.32
-13.99
-15.67
-17.5
-19.69
-22.18
-24.85
-27.32
-29.28
-30.38
-30.33
-28.97
-26.27
-22.15
-16.7
-10.25
-3.27
3.69
10.07
15.5
19.89
23.26
25.82
27.7
28.98
29.54
29.45
28.81
27.97
27.22
26.76
26.64
26.76
26.93
27.0
26.86
26.41
25.58
24.23
22.24
19.74
17.0
14.48
12.66
11.73
11.62
12.07
12.64
12.99
12.89
12.12
10.46
7.78
3.97
-0.79
-6.03
-10.94
-14.69
-16.59
-16.37
-14.14
-10.31
-5.51
-0.37
4.67
9.32
13.45
16.93
19.71
21.76
23.18
23.88
23.78
22.81
20.93
18.32
15.19
11.96
8.99
6.54
4.63
3.18
2.08
1.3
0.9
0.8
0.79
0.59
-0.01
-1.06
-2.36
-3.68
-4.94
-6.15
-7.54
-9.45
-12.04
-15.26
-18.79
-22.21
-25.06
-27.08
-27.95
-27.45
-25.55
-22.4
-18.38
-13.74
-8.81
-3.64
1.65
6.98
12.09
16.44
19.41
20.44
19.46
16.79
13.12
9.04
5.06
1.44
-1.75
-4.31
-6.09
-6.9
-6.55
-5.0
-2.38
1.04
4.91
8.74
12.27
15.02
16.74
17.25
16.52
14.76
12.18
9.13
5.77
2.44
-0.68
-3.4
-5.65
-7.41
-8.69
-9.68
-10.51
-11.45
-12.64
-14.31
-16.59
-19.53
-23.0
-26.8
-30.63
-34.02
-36.68
-38.23
-38.47
-37.36
-35.02
-31.9
-28.53
-25.52
-23.24
-21.9
-21.58
-22.25
-24.0
-26.92
-31.13
-36.46
-42.5
-48.53
-53.78
-57.56
-59.8
-61.26
-63.15
-66.66
-72.39
-80.16
-89.1
-98.06
-105.9
-112.35
-118.19
-124.89
-133.94
-146.13
-161.01
-176.88
-191.03
-199.8
-200.11
-190.36
-170.66
-142.51
-108.15
-69.81
-29.03
13.58
59.68
110.75
166.4
224.09
279.62
328.12
365.04
387.66
396.09
396.25
394.73
395.19
397.67
400.1
400.23
396.65
389.54
380.65
376.61
381.88
394.95
410.33
422.2
426.86
422.5
408.99
387.99
368.7
359.42
361.57
370.83
380.17
382.76
373.0
347.76
272.43
139.96
-24.72
-183.5
-311.05
-403.5
-468.53
-515.11
-548.61
-570.64
-581.23
-575.76
-556.41
-529.53
-500.96
-473.55
-447.64
-422.66
-397.93
-369.82
-331.31
-286.33
-243.33
-209.95
-189.79
-181.85
-181.71
-182.99
-176.94
-157.55
-126.26
-88.58
-51.08
-18.75
5.71
21.69
30.12
34.16
37.22
40.34
43.84
47.66
51.53
54.62
55.53
52.97
47.03
39.11
30.55
22.85
16.97
13.33
11.74
11.72
12.81
14.45
15.96
16.16
14.22
9.87
3.86
-2.39
-7.41
-10.24
-10.89
-10.07
-8.82
-7.7
-6.59
-4.76
-1.38
3.94
10.71
17.51
22.42
23.87
21.37
15.75
8.86
2.68
-1.49
-3.39
-3.6
-3.03
-2.26
-1.47
-0.59
0.5
1.84
3.25
4.6
5.74
6.59
6.97
6.71
5.72
4.36
3.33
3.48
5.41
9.2
14.26
19.5
23.84
26.46
27.09
25.83
23.14
19.46
15.16
10.52
5.8
1.45
-2.07
-4.32
-5.17
-4.85
-3.88
-2.89
-2.35
-2.46
-3.16
-4.27
-5.68
-7.31
-9.08
-10.59
-11.32
-10.65
-8.24
-4.25
0.64
5.51
9.52
12.1
13.22
13.01
11.84
9.96
7.59
4.89
2.14
-0.35
-2.34
-3.58
-4.02
-3.69
-2.76
-1.42
0.17
1.89
3.68
5.39
6.91
8.23
9.43
10.69
12.09
13.56
14.75
15.21
14.53
12.6
9.7
6.43
3.5
1.45
0.62
0.97
2.24
3.94
5.45
6.28
6.06
4.75
2.48
-0.3
-3.08
-5.33
-6.78
-7.38
-7.36
-7.26
-7.68
-9.16
-12.04
-16.22
-21.13
-26.07
-30.25
-33.18
-34.87
-35.44
-35.01
-33.58
-30.89
-26.6
-20.48
-12.75
-3.92
5.06
13.32
20.1
24.91
27.6
28.36
27.64
25.93
23.75
21.43
19.39
17.87
16.96
16.7
16.88
17.09
16.81
15.59
13.28
10.16
6.73
3.55
1.02
-0.99
-2.81
-5.0
-7.9
-11.45
-15.33
-18.96
-21.69
-22.95
-22.51
-20.27
-16.56
-11.89
-6.9
-2.25
1.71
4.85
7.29
9.2
10.79
12.07
13.04
13.66
13.87
13.78
13.41
12.65
11.32
9.4
6.85
3.89
1.05
-1.34
-2.9
-3.54
-3.49
-3.04
-2.39
-1.69
-0.95
-0.05
0.91
1.81
2.36
2.24
1.47
0.15
-1.33
-2.57
-3.35
-3.75
-3.88
-3.97
-4.1
-4.11
-3.94
-3.56
-3.1
-2.83
-3.05
-3.8
-4.88
-5.95
-6.53
-6.43
-5.59
-4.15
-2.38
-0.6
0.93
2.01
2.52
2.51
2.02
1.35
0.79
0.51
0.58
0.89
1.23
1.44
1.51
1.49
1.67
2.18
2.99
3.94
4.82
5.36
5.43
4.98
4.02
2.67
1.11
-0.59
-2.29
-3.83
-5.03
-5.67
-5.57
-4.75
-3.31
-1.48
0.34
1.89
2.93
3.43
3.41
3.05
2.4
1.61
0.78
-0.12
-1.03
-2.04
-3.28
-4.75
-6.39
-8.05
-9.46
-10.25
-10.27
-9.36
-7.6
-5.33
-2.96
-0.94
0.32
0.62
0.05
-1.21
-2.8
-4.36
-5.66
-6.52
-6.91
-6.77
-6.09
-4.84
-3.09
-0.91
1.44
3.67
5.63
7.12
8.13
8.73
9.04
9.14
9.16
9.11
8.85
8.37
7.78
7.23
6.88
6.79
6.8
6.67
6.15
5.12
3.61
1.84
-0.09
-2.13
-4.28
-6.56
-8.82
-10.84
-12.34
-13.24
-13.52
-13.33
-12.82
-12.16
-11.42
-10.71
-10.05
-9.4
-8.52
-7.2
-5.28
-2.83
-0.18
2.14
3.64
4.09
3.55
2.46
1.26
0.38
-0.07
0.0
0.41
1.08
1.94
2.91
3.93
4.88
5.68
6.19
6.55
6.76
7.02
7.42
7.94
8.44
8.66
8.33
7.28
5.61
3.55
1.39
-0.53
-2.17
-3.53
-4.71
-5.8
-6.87
-7.88
-8.77
-9.61
-10.26
-10.85
-11.4
-11.89
-12.36
-12.88
-13.33
-13.6
-13.64
-13.16
-12.22
-10.71
-8.68
-6.19
-3.45
-0.7
1.81
3.85
5.49
6.81
7.96
9.12
10.17
11.01
11.41
11.23
10.41
9.13
7.58
5.94
4.46
3.19
2.2
1.49
0.93
0.25
-0.56
-1.55
-2.6
-3.47
-4.1
-4.43
-4.54
-4.56
-4.52
-4.35
-4.0
-3.58
-3.22
-3.18
-3.59
-4.56
-5.97
-7.61
-9.21
-10.44
-11.07
-10.86
-9.82
-8.08
-6.01
-4.07
-2.71
-2.17
-2.46
-3.31
-4.21
-4.77
-4.73
-4.01
-2.8
-1.42
-0.07
1.14
2.27
3.4
4.56
5.7
6.73
7.55
7.99
8.0
7.64
7.0
6.22
5.43
4.63
3.75
2.77
1.61
0.34
-1.0
-2.38
-3.65
-4.73
-5.47
-5.86
-5.75
-5.12
-4.08
-2.81
-1.53
-0.37
0.55
1.23
1.52
1.46
1.09
0.54
-0.03
-0.46
-0.49
-0.16
0.43
0.94
1.05
0.49
-0.85
-2.84
-5.34
-7.97
-10.43
-12.29
-13.25
-13.08
-11.81
-9.64
-6.82
-3.85
-1.06
1.32
3.19
4.5
5.23
5.33
4.74
3.58
1.91
-0.02
-1.92
-3.52
-4.67
-5.32
-5.34
-4.76
-3.54
-1.84
0.13
2.04
3.58
4.61
5.17
5.48
5.76
6.12
6.47
6.71
6.72
6.51
6.22
6.04
5.94
5.9
5.81
5.5
4.96
4.14
3.08
1.7
-0.08
-2.39
-5.17
-8.17
-11.09
-13.49
-15.03
-15.42
-14.46
-12.28
-9.13
-5.36
-1.36
2.46
5.91
8.72
10.85
12.24
12.71
12.32
11.18
9.55
7.66
5.92
4.53
3.64
3.37
3.72
4.73
6.28
8.24
10.2
11.86
12.93
13.25
12.91
12.09
10.99
9.81
8.64
7.5
6.42
5.43
4.56
3.89
3.36
2.92
2.39
1.7
0.87
-0.02
-0.77
-1.3
-1.58
-1.82
-2.24
-3.07
-4.43
-6.41
-8.97
-11.87
-14.74
-17.06
-18.31
-18.25
-16.75
-13.96
-10.19
-5.88
-1.4
2.87
6.59
9.59
11.65
12.84
13.25
13.09
12.49
11.65
10.69
9.83
9.25
9.06
9.29
9.86
10.6
11.39
12.21
13.05
13.92
14.69
15.16
15.14
14.62
13.64
12.55
11.6
10.85
10.13
9.26
7.92
5.98
3.5
0.55
-2.59
-5.63
-8.35
-10.58
-12.18
-13.08
-13.35
-13.1
-12.52
-11.93
-11.6
-11.81
-12.63
-13.97
-15.46
-16.68
-17.3
-17.04
-15.91
-13.98
-11.48
-8.54
-5.4
-2.25
0.75
3.54
6.09
8.48
10.75
12.85
14.69
16.05
16.75
16.72
16.1
15.06
13.78
12.43
11.1
9.91
9.03
8.54
8.6
9.19
10.21
11.37
12.31
12.75
12.45
11.4
9.66
7.43
4.93
2.39
0.01
-2.14
-3.99
-5.44
-6.41
-6.84
-6.71
-6.01
-4.81
-3.18
-1.31
0.48
1.85
2.4
1.9
0.29
-2.26
-5.37
-8.54
-11.21
-12.93
-13.43
-12.65
-10.68
-7.77
-4.33
-0.8
2.45
5.18
7.26
8.65
9.35
9.45
9.09
8.33
7.26
6.04
4.87
3.85
3.22
2.96
3.06
3.45
3.93
4.3
4.48
4.43
4.21
4.03
3.99
4.03
4.1
3.99
3.49
2.53
1.06
-0.7
-2.46
-3.93
-4.9
-5.21
-4.87
-4.03
-2.96
-2.07
-1.61
-1.8
-2.81
-4.54
-6.71
-8.91
-10.6
-11.38
-11.09
-9.72
-7.55
-5.05
-2.6
-0.52
0.88
1.54
1.6
1.12
0.44
-0.12
-0.31
-0.03
0.75
1.86
3.13
4.43
5.6
6.6
7.28
7.56
7.37
6.73
5.72
4.5
3.26
2.05
1.0
0.09
-0.59
-1.03
-1.22
-1.19
-0.95
-0.53
-0.05
0.46
0.88
1.17
1.28
1.23
1.08
0.85
0.5
-0.17
-1.21
-2.77
-4.72
-6.92
-9.22
-11.48
-13.64
-15.59
-17.16
-18.01
-17.96
-16.85
-14.8
-12.13
-9.2
-6.34
-3.73
-1.41
0.79
2.87
4.87
6.68
8.15
9.25
9.98
10.57
11.09
11.7
12.28
12.68
12.74
12.26
11.33
9.99
8.53
7.04
5.67
4.43
3.32
2.32
1.3
0.31
-0.67
-1.54
-2.29
-2.82
-3.15
-3.27
-3.28
-3.32
-3.35
-3.41
-3.39
-3.24
-2.97
-2.68
-2.5
-2.54
-2.92
-3.64
-4.77
-6.28
-8.14
-10.22
-12.17
-13.6
-14.12
-13.51
-11.8
-9.33
-6.57
-3.84
-1.45
0.56
2.09
3.14
3.5
3.12
1.98
0.3
-1.44
-2.85
-3.5
-3.36
-2.48
-1.14
0.43
2.07
3.71
5.45
7.28
9.19
10.94
12.3
12.96
12.79
11.78
10.13
8.17
6.2
4.45
3.02
1.93
1.08
0.37
-0.31
-1.11
-1.94
-2.85
-3.61
-4.06
-4.04
-3.52
-2.7
-1.84
-1.3
-1.22
-1.7
-2.5
-3.29
-3.73
-3.59
-2.78
-1.47
0.09
1.62
2.8
3.52
3.77
3.54
2.9
1.91
0.68
-0.72
-2.13
-3.45
-4.53
-5.22
-5.5
-5.22
-4.4
-3.02
-1.19
0.87
2.88
4.53
5.64
6.1
6.0
5.47
4.63
3.59
2.46
1.31
0.38
-0.2
-0.29
0.19
1.17
2.42
3.77
4.96
5.74
6.01
5.65
4.63
2.97
0.84
-1.53
-3.87
-6.05
-8.06
-9.96
-11.86
-13.73
-15.42
-16.62
-17.05
-16.54
-15.17
-13.24
-11.1
-9.06
-7.36
-6.01
-5.13
-4.67
-4.65
-5.03
-5.8
-6.73
-7.6
-8.18
-8.27
-7.88
-7.1
-6.06
-4.76
-3.36
-1.86
-0.4
0.87
1.81
2.39
2.62
2.6
2.6
2.73
3.17
3.97
5.26
7.18
9.8
13.08
16.86
20.83
24.54
27.48
29.18
29.35
28.08
25.68
22.64
19.57
16.9
14.78
13.17
11.87
10.6
9.18
7.35
4.81
1.3
-3.18
