-0.61
0.18
1.02
1.72
2.22
2.4
2.15
1.45
0.33
-1.2
-2.97
-4.87
-6.74
-8.32
-9.37
-9.65
-9.07
-7.66
-5.69
-3.48
-1.41
0.2
1.16
1.45
1.12
0.26
-0.95
-2.28
-3.48
-4.26
-4.44
-3.96
-2.83
-1.29
0.49
2.27
3.92
5.25
6.16
6.54
6.39
5.75
4.77
3.61
2.56
1.75
1.27
1.21
1.52
2.22
3.23
4.42
5.51
6.25
6.41
5.84
4.64
2.98
1.11
-0.78
-2.59
-4.35
-6.12
-7.91
-9.63
-11.01
-11.79
-11.74
-10.78
-8.96
-6.52
-3.68
-0.74
1.97
4.23
5.78
6.59
6.78
6.6
6.29
6.03
5.87
5.67
5.37
4.91
4.39
4.04
4.08
4.5
5.26
6.08
6.65
6.8
6.42
5.61
4.59
3.54
2.54
1.59
0.67
-0.32
-1.3
-2.26
-3.09
-3.66
-3.86
-3.65
-3.03
-2.11
-1.12
-0.23
0.33
0.48
0.26
-0.16
-0.73
-1.4
-2.27
-3.43
-4.89
-6.67
-8.63
-10.63
-12.53
-14.11
-15.13
-15.37
-14.69
-13.04
-10.58
-7.63
-4.55
-1.73
0.66
2.46
3.68
4.37
4.72
4.87
4.92
4.9
4.71
4.34
3.75
3.06
2.36
1.85
1.62
1.79
2.39
3.45
5.02
6.97
9.14
11.21
12.8
13.55
13.4
12.43
10.85
9.0
7.03
5.07
3.17
1.39
-0.25
-1.59
-2.52
-3.11
-3.44
-3.77
-4.24
-4.94
-5.86
-6.97
-8.17
-9.4
-10.66
-11.92
-13.11
-14.01
-14.37
-13.94
-12.61
-10.41
-7.52
-4.25
-0.78
2.49
5.37
7.68
9.32
10.29
10.71
10.71
10.41
9.95
9.3
8.5
7.66
6.97
6.53
6.36
6.38
6.34
6.05
5.34
4.22
2.85
1.52
0.32
-0.65
-1.46
-2.16
-2.72
-3.17
-3.42
-3.42
-3.25
-2.95
-2.59
-2.24
-1.86
-1.39
-0.76
0.06
0.99
1.8
2.34
2.47
2.16
1.46
0.55
-0.45
-1.38
-2.12
-2.63
-2.86
-2.84
-2.67
-2.51
-2.47
-2.66
-3.03
-3.54
-3.96
-4.05
-3.59
-2.62
-1.2
0.4
1.92
3.19
4.0
4.36
4.31
3.97
3.36
2.65
1.93
1.34
1.05
1.14
1.66
2.54
3.63
4.66
5.37
5.59
5.22
4.3
2.99
1.5
0.0
-1.43
-2.72
-3.8
-4.57
-5.02
-5.12
-4.98
-4.7
-4.47
-4.38
-4.48
-4.78
-5.28
-6.03
-6.97
-8.07
-9.15
-10.06
-10.54
-10.34
-9.39
-7.68
-5.28
-2.37
0.8
3.95
6.8
9.15
10.89
11.91
12.21
11.92
11.12
10.02
8.73
7.44
6.3
5.39
4.72
4.15
3.54
2.75
1.76
0.58
-0.64
-1.66
-2.3
-2.43
-2.0
-1.08
0.12
1.4
2.64
3.66
4.49
5.15
5.53
5.55
5.11
4.1
2.64
0.91
-0.98
-2.85
-4.65
-6.38
-8.06
-9.54
-10.74
-11.46
-11.53
-11.0
-9.96
-8.66
-7.32
-6.19
-5.27
-4.58
-4.02
-3.45
-2.81
-2.14
-1.47
-0.89
-0.45
-0.11
0.14
0.4
0.7
1.07
1.47
1.89
2.28
2.69
3.14
3.63
4.18
4.76
5.28
5.71
6.0
6.1
6.01
5.73
5.15
4.29
3.15
1.72
0.22
-1.17
-2.23
-2.79
-2.77
-2.25
-1.33
-0.09
1.22
2.47
3.43
3.88
3.67
2.85
1.52
-0.09
-1.74
-3.32
-4.84
-6.3
-7.74
-9.05
-10.0
-10.4
-10.18
-9.35
-8.12
-6.66
-5.17
-3.75
-2.39
-1.09
0.09
1.0
1.59
1.88
2.03
2.24
2.64
3.24
3.89
4.38
4.61
4.56
4.28
3.84
3.34
2.85
2.45
2.24
2.16
2.22
2.25
2.09
1.59
0.77
-0.27
-1.29
-2.03
-2.36
-2.18
-1.49
-0.4
0.94
2.49
4.09
5.71
7.19
8.3
8.83
8.65
7.69
5.98
3.74
1.1
-1.7
-4.41
-6.76
-8.57
-9.69
-10.2
-10.22
-9.97
-9.54
-8.96
-8.05
-6.72
-5.01
-3.15
-1.42
0.05
1.3
2.54
3.86
5.29
6.55
7.28
7.11
5.92
4.0
1.7
-0.49
-2.28
-3.51
-4.24
-4.48
-4.29
-3.74
-2.83
-1.63
-0.26
1.18
2.56
3.8
4.87
5.69
6.15
6.25
6.04
5.6
4.99
4.3
3.63
2.89
2.1
1.2
0.27
-0.65
-1.58
-2.5
-3.44
-4.27
-4.99
-5.52
-5.85
-5.98
-5.96
-5.81
-5.51
-5.09
-4.63
-4.28
-4.14
-4.13
-4.12
-3.95
-3.47
-2.75
-2.01
-1.52
-1.43
-1.67
-2.1
-2.58
-3.02
-3.37
-3.61
-3.81
-3.91
-3.89
-3.73
-3.57
-3.5
-3.55
-3.54
-3.25
-2.5
-1.17
0.68
2.91
5.26
7.55
9.53
11.1
12.02
12.18
11.53
10.12
8.24
6.17
4.36
2.98
2.15
1.78
1.68
1.73
1.85
2.01
2.2
2.35
2.3
1.91
1.18
0.19
-0.93
-2.14
-3.52
-5.13
-6.98
-8.91
-10.54
-11.43
-11.39
-10.38
-8.77
-6.93
-5.19
-3.67
-2.39
-1.26
-0.19
0.71
1.37
1.68
1.68
1.54
1.45
1.53
1.79
2.2
2.59
2.93
3.25
3.56
3.98
4.52
5.15
5.78
6.28
6.46
6.26
5.68
4.72
3.53
2.27
1.02
-0.09
-1.04
-1.82
-2.38
-2.66
-2.73
-2.61
-2.33
-1.92
-1.32
-0.6
0.21
1.04
1.78
2.26
2.46
2.31
1.78
0.93
-0.19
-1.42
-2.72
-4.08
-5.55
-7.09
-8.59
-9.8
-10.35
-9.98
-8.65
-6.54
-4.02
-1.47
0.83
2.83
4.42
5.62
6.34
6.41
5.77
4.42
2.53
0.31
-1.91
-3.91
-5.4
-6.15
-6.06
-5.09
-3.37
-1.11
1.39
3.88
6.04
7.71
8.71
8.98
8.58
7.55
6.07
4.37
2.66
1.13
0.02
-0.59
-0.64
-0.09
0.84
1.92
2.92
3.52
3.54
3.01
2.0
0.65
-0.74
-2.11
-3.45
-4.6
-5.54
-6.2
-6.53
-6.68
-6.81
-6.96
-7.26
-7.55
-7.55
-7.11
-6.11
-4.63
-2.9
-1.19
0.38
1.6
2.44
2.9
2.92
2.56
2.01
1.41
1.0
0.89
1.05
1.4
1.88
2.35
2.82
3.35
3.93
4.52
5.15
5.69
6.1
6.25
5.96
5.22
4.06
2.62
1.11
-0.29
-1.5
-2.54
-3.44
-4.22
-4.76
-4.92
-4.62
-3.84
-2.73
-1.57
-0.62
-0.09
-0.06
-0.54
-1.44
-2.66
-4.04
-5.36
-6.45
-7.2
-7.5
-7.35
-6.75
-5.68
-4.12
-2.01
0.56
3.45
6.33
8.92
10.96
12.34
13.03
13.08
12.56
11.46
9.86
7.89
5.69
3.54
1.72
0.48
-0.03
0.13
0.82
1.76
2.7
3.36
3.59
3.4
2.9
2.35
1.96
1.98
2.51
3.58
4.97
6.37
7.35
7.54
6.85
5.29
3.11
0.67
-1.84
-4.19
-6.28
-8.02
-9.37
-10.16
-10.41
-10.13
-9.42
-8.51
-7.43
-6.28
-5.1
-4.04
-3.24
-2.85
-2.93
-3.34
-3.9
-4.3
-4.39
-4.1
-3.58
-3.0
-2.56
-2.35
-2.38
-2.64
-3.05
-3.5
-3.85
-3.95
-3.66
-2.94
-1.81
-0.37
1.26
2.94
4.43
5.57
6.17
6.11
5.44
4.21
2.63
0.91
-0.87
-2.66
-4.35
-5.87
-7.03
-7.56
-7.4
-6.57
-5.2
-3.62
-2.08
-0.71
0.35
1.06
1.4
1.3
0.83
0.02
-1.02
-2.14
-3.09
-3.78
-4.06
-4.04
-3.94
-3.91
-4.17
-4.88
-5.94
-7.17
-8.39
-9.22
-9.43
-8.86
-7.44
-5.26
-2.65
0.05
2.49
4.31
5.56
6.3
6.65
6.83
6.84
6.7
6.42
6.0
5.46
4.92
4.4
3.9
3.49
3.12
2.9
3.0
3.47
4.29
5.34
6.43
7.34
8.03
8.31
8.21
7.72
6.9
5.82
4.57
3.25
1.91
0.74
-0.26
-0.95
-1.31
-1.37
-1.22
-1.03
-0.96
-1.15
-1.61
-2.36
-3.31
-4.39
-5.57
-6.84
-8.2
-9.6
-10.98
-12.14
-12.92
-13.16
-12.83
-12.06
-10.94
-9.73
-8.49
-7.3
-6.18
-5.08
-3.93
-2.75
-1.63
-0.5
0.56
1.54
2.34
2.84
2.98
2.87
2.61
2.39
2.4
2.7
3.17
3.65
3.95
4.05
3.95
3.76
3.47
3.08
2.52
1.73
0.83
-0.05
-0.65
-0.91
-0.89
-0.76
-0.74
-1.03
-1.63
-2.34
-3.08
-3.66
-4.13
-4.54
-4.81
-4.85
-4.59
-3.95
-2.91
-1.71
-0.56
0.23
0.5
0.29
-0.34
-1.13
-1.9
-2.42
-2.64
-2.48
-1.93
-1.03
0.23
1.74
3.51
5.36
7.15
8.59
9.61
10.12
10.13
9.78
9.13
8.33
7.43
6.52
5.73
5.21
5.04
5.2
5.65
6.18
6.64
6.79
6.51
5.75
4.56
3.14
1.71
0.61
-0.02
-0.1
0.28
1.06
2.19
3.55
5.13
6.76
8.29
9.49
10.32
10.77
10.8
10.53
9.97
9.31
8.69
8.29
8.24
8.68
9.52
10.6
11.86
13.22
14.8
16.69
18.93
21.37
23.74
25.81
27.32
28.27
28.67
28.64
28.23
27.46
26.31
24.7
22.69
20.34
17.74
14.91
11.87
8.67
5.37
2.16
-0.77
-3.34
-5.53
-7.48
-9.4
-11.41
-13.47
-15.45
-17.19
-18.55
-19.65
-20.64
-21.64
-22.68
-23.78
-24.88
-26.05
-27.36
-28.87
-30.59
-32.4
-34.09
-35.46
-36.39
-36.8
-36.7
-36.06
-34.89
-33.25
-31.1
-28.53
-25.63
-22.5
-19.26
-16.12
-13.25
-10.73
-8.56
-6.47
-4.13
-1.36
1.92
5.49
8.89
11.71
13.58
14.32
14.08
13.2
12.11
11.29
10.99
11.12
11.49
11.73
11.51
10.79
9.67
8.43
7.34
6.52
6.0
5.82
5.98
6.52
7.52
8.84
10.33
11.71
12.68
13.01
12.62
11.46
9.57
7.05
3.97
0.55
-2.97
-6.28
-9.01
-10.84
-11.61
-11.34
-10.15
-8.35
-6.28
-4.26
-2.44
-0.95
0.24
1.27
2.35
3.64
5.25
7.21
9.43
11.78
14.06
15.95
17.17
17.57
17.05
15.81
14.17
12.5
11.06
9.97
9.09
8.3
7.47
6.49
5.34
4.01
2.46
0.79
-0.86
-2.3
-3.23
-3.5
-3.12
-2.23
-1.16
-0.33
-0.02
-0.44
-1.69
-3.67
-6.18
-8.99
-11.78
-14.35
-16.67
-18.73
-20.57
-22.18
-23.46
-24.25
-24.52
-24.23
-23.53
-22.54
-21.33
-19.99
-18.52
-16.93
-15.32
-13.74
-12.13
-10.42
-8.48
-6.19
-3.55
-0.64
2.42
5.49
8.44
11.23
13.75
15.98
17.87
19.34
20.37
20.93
21.1
20.95
20.52
19.85
18.9
17.66
16.02
13.97
11.52
8.74
5.8
2.84
0.05
-2.49
-4.72
-6.72
-8.55
-10.44
-12.45
-14.52
-16.61
-18.61
-20.43
-22.11
-23.73
-25.3
-26.84
-28.18
-29.03
-29.18
-28.38
-26.69
-24.25
-21.36
-18.34
-15.44
-12.76
-10.18
-7.56
-4.64
-1.33
2.35
6.23
10.1
13.73
16.93
19.59
21.66
23.21
24.31
24.98
25.31
25.35
25.09
24.48
23.56
22.35
21.01
19.58
18.1
16.5
14.65
12.48
9.97
7.22
4.38
1.61
-0.99
-3.33
-5.36
-7.0
-8.24
-9.16
-9.86
-10.45
-11.0
-11.52
-11.9
-12.13
-12.17
-12.16
-12.27
-12.6
-13.25
-14.05
-14.88
-15.52
-15.82
-15.64
-14.92
-13.72
-12.09
-10.22
-8.3
-6.53
-5.07
-4.02
-3.26
-2.6
-1.79
-0.48
1.34
3.55
5.83
7.75
8.99
9.5
9.37
8.86
8.3
7.69
7.08
6.42
5.66
4.92
4.28
3.83
3.52
3.25
2.81
2.0
0.85
-0.59
-2.03
-3.32
-4.36
-5.09
-5.46
-5.52
-5.26
-4.7
-3.98
-3.12
-2.2
-1.3
-0.37
0.66
1.8
3.05
4.37
5.63
6.89
8.14
9.41
10.7
11.88
12.83
13.46
13.68
13.48
12.95
12.14
10.93
9.37
7.33
4.88
2.27
-0.29
-2.58
-4.39
-5.63
-6.34
-6.56
-6.53
-6.48
-6.65
-7.22
-8.33
-9.9
-11.74
-13.57
-15.07
-16.0
-16.18
-15.54
-14.13
-12.05
-9.54
-6.86
-4.22
-1.84
0.11
1.65
2.87
3.88
4.78
5.53
5.98
6.05
5.73
5.12
4.51
4.13
4.08
4.41
5.0
5.77
6.66
7.6
8.53
9.41
10.01
10.13
9.69
8.61
7.02
5.05
2.84
0.56
-1.68
-3.83
-5.87
-7.84
-9.79
-11.7
-13.43
-14.81
-15.61
-15.62
-14.82
-13.3
-11.27
-9.05
-6.85
-4.78
-3.07
-1.86
-1.25
-1.31
-1.92
-2.88
-3.97
-4.79
-5.09
-4.72
-3.69
-2.12
-0.13
2.15
4.61
7.15
9.72
12.14
14.32
16.12
17.41
18.15
18.31
17.88
16.95
15.63
14.14
12.65
11.27
9.94
8.47
6.64
4.39
1.76
-1.07
-3.81
-6.21
-8.16
-9.67
-10.93
-12.13
-13.46
-14.92
-16.49
-17.96
-19.19
-20.08
-20.62
-20.83
-20.75
-20.31
-19.34
-17.78
-15.51
-12.73
-9.71
-6.75
-4.11
-1.86
0.11
1.98
3.83
5.67
7.36
8.69
9.62
10.17
10.54
10.94
11.49
12.09
12.65
13.0
13.05
12.86
12.5
12.12
11.79
11.56
11.39
11.28
11.31
11.46
11.67
11.71
11.37
10.4
8.65
6.09
2.83
-0.86
-4.68
-8.35
-11.66
-14.38
-16.5
-17.95
-18.71
-18.8
-18.24
-17.16
-15.71
-14.14
-12.66
-11.51
-10.69
-10.08
-9.46
-8.57
-7.25
-5.33
-2.78
0.31
3.74
7.27
10.58
13.4
15.48
16.64
16.8
16.07
14.56
12.56
10.39
8.4
6.88
6.01
5.71
5.8
6.06
6.23
6.14
5.76
5.11
4.28
3.42
2.65
2.06
1.67
1.4
1.16
0.87
0.42
-0.24
-1.13
-2.16
-3.22
-4.21
-5.06
-5.67
-6.0
-6.15
-6.12
-5.98
-5.6
-4.97
-4.1
-3.04
-1.88
-0.76
0.2
0.88
1.19
1.1
0.56
-0.3
-1.27
-2.05
-2.41
-2.22
-1.63
-0.88
-0.29
-0.01
-0.1
-0.5
-1.16
-2.02
-3.02
-4.0
-4.81
-5.28
-5.24
-4.62
-3.43
-1.87
-0.18
1.35
2.63
3.59
4.26
4.71
5.03
5.23
5.32
5.26
5.09
4.99
5.04
5.34
5.74
6.21
6.58
6.79
6.83
6.71
6.57
6.34
5.93
5.31
4.51
3.61
2.78
2.0
1.09
-0.15
-1.93
-4.25
-6.86
-9.37
-11.35
-12.47
-12.66
-12.06
-10.95
-9.59
-8.04
-6.28
-4.27
-2.04
0.29
2.46
4.11
5.0
5.03
4.36
3.24
1.88
0.4
-1.06
-2.42
-3.55
-4.18
-4.16
-3.38
-2.04
-0.58
0.55
1.06
0.95
0.54
0.29
0.5
1.31
2.52
3.67
4.23
3.87
2.63
0.93
-0.48
-0.88
0.23
2.93
6.92
11.56
16.21
20.48
24.36
28.36
32.92
38.3
44.11
49.74
54.41
57.68
59.78
61.34
63.16
65.61
68.63
71.88
74.93
77.15
77.43
74.2
66.04
52.57
35.14
16.9
1.69
-7.54
-10.05
-7.59
-3.38
-0.55
-0.71
-3.73
-8.37
-13.34
-18.12
-22.92
-28.12
-33.84
-39.66
-44.71
-48.12
-49.51
-48.99
-47.14
-44.47
-40.92
-36.12
-29.52
-20.81
-10.3
1.14
12.25
21.75
28.68
32.59
33.13
30.02
22.93
11.53
-4.02
-22.96
-43.95
-65.33
-85.73
-104.45
-121.39
-136.58
-149.87
-160.58
-167.77
-170.6
-168.59
-161.47
-148.87
-130.02
-103.9
-70.25
-30.21
13.14
55.31
91.61
118.66
135.34
142.71
143.23
139.47
133.38
125.76
116.55
105.42
92.14
77.04
60.82
44.39
28.5
13.77
0.39
-11.6
-22.17
-31.22
-38.73
-44.78
-49.58
-53.56
-56.91
-59.61
-61.27
-61.34
-59.3
-55.03
-48.85
-41.43
-33.57
-25.97
-19.06
-12.97
-7.58
-2.79
1.49
5.18
8.11
10.17
11.33
11.68
11.35
10.54
9.33
7.85
6.32
5.01
4.24
4.25
5.1
6.56
8.32
9.93
11.15
11.83
12.03
11.83
11.15
9.96
8.17
5.87
3.3
0.92
-0.85
-1.73
-1.72
-1.23
-0.66
-0.37
-0.51
-0.95
-1.51
-2.09
-2.75
-3.72
-5.13
-6.94
-8.87
-10.54
-11.51
-11.55
-10.66
-8.99
-6.83
-4.44
-2.02
0.32
2.41
4.27
5.83
7.12
8.25
9.24
10.12
10.91
11.51
11.85
11.92
11.66
11.09
10.22
8.96
7.19
4.88
2.09
-0.96
-3.88
-6.38
-8.23
-9.28
-9.43
-8.65
-6.97
-4.64
-2.0
0.48
2.32
3.17
3.08
2.24
0.98
-0.26
-1.22
-1.67
-1.41
-0.37
1.27
3.28
5.23
6.7
7.49
7.53
6.92
5.92
4.86
3.96
3.42
3.38
3.78
4.53
5.38
6.02
6.18
5.72
4.51
2.75
0.72
-1.13
-2.33
-2.67
-2.11
-0.86
0.76
2.4
3.92
5.17
6.01
6.32
5.83
4.42
2.08
-0.97
-4.42
-7.88
-11.05
-13.86
-16.21
-17.98
-19.09
-19.33
-18.53
-16.74
-14.2
-11.33
-8.74
-6.82
-5.78
-5.62
-6.06
-6.74
-7.31
-7.58
-7.57
-7.57
-7.76
-8.32
-9.12
-9.94
-10.49
-10.62
-10.42
-10.06
-9.72
-9.4
-9.08
-8.8
-8.66
-8.87
-9.59
-10.75
-12.05
-13.13
-13.66
-13.49
-12.62
-10.96
-8.28
-4.15
1.83
9.71
19.08
29.01
38.35
45.97
51.12
53.58
53.65
51.83
48.6
44.31
39.06
33.01
26.42
19.76
13.62
8.55
4.65
1.76
-0.61
-2.91
-5.27
-7.48
-9.24
-10.31
-10.63
-10.51
-10.27
-10.17
-10.45
-10.97
-11.54
-11.95
-12.04
-11.77
-11.26
-10.67
-10.2
-10.03
-10.06
-10.07
-9.81
-9.01
-7.55
-5.5
-2.96
-0.15
2.69
5.43
7.86
9.71
10.76
10.93
10.18
8.71
6.84
4.77
2.77
0.87
-0.95
-2.68
-4.24
-5.51
-6.34
-6.58
-6.31
-5.47
-4.18
-2.48
-0.37
2.14
4.93
7.95
11.05
13.98
16.65
18.87
20.54
21.62
22.09
21.87
21.03
19.68
17.87
15.95
14.11
12.58
11.56
11.14
11.35
12.1
13.3
14.6
15.83
16.69
17.04
16.82
16.05
14.9
13.45
11.79
9.89
7.82
5.47
2.81
-0.15
-3.46
-7.0
-10.57
-13.92
-16.87
-19.22
-20.98
-22.09
-22.51
-22.35
-21.56
-20.24
-18.48
-16.49
-14.35
-12.22
-10.22
-8.48
-7.18
-6.33
-5.83
-5.49
-5.13
-4.51
-3.53
-2.18
-0.51
1.33
3.29
5.16
6.82
8.11
9.04
9.63
9.91
10.0
9.96
9.88
9.75
9.66
9.65
9.84
10.25
10.88
11.63
12.26
12.54
12.22
11.3
9.82
7.93
5.74
3.4
1.07
-1.12
-3.06
-4.71
-6.07
-7.19
-8.14
-8.84
-9.29
-9.39
-9.18
-8.66
-7.87
-6.85
-5.47
-3.66
-1.38
1.27
4.08
6.67
8.8
10.25
10.94
10.95
10.37
9.41
8.22
6.97
5.77
4.78
4.05
3.53
3.15
2.66
1.95
0.81
-0.82
-2.86
-5.1
-7.18
-8.75
-9.53
-9.42
-8.47
-6.84
-4.81
-2.65
-0.63
0.94
1.87
2.07
1.65
0.85
-0.07
-0.91
-1.54
-1.88
-1.88
-1.4
-0.23
1.68
4.3
7.42
10.72
13.94
16.83
19.26
21.11
22.21
22.46
21.86
20.6
18.99
17.36
15.91
14.71
13.65
12.43
10.84
8.78
6.29
3.54
0.77
-1.77
-3.82
-5.28
-6.19
-6.77
-7.2
-7.72
-8.46
-9.33
-10.18
-10.8
-11.04
-10.84
-10.14
-8.92
-7.26
-5.3
-3.29
-1.48
-0.05
0.96
1.6
2.05
2.33
2.37
2.04
1.21
-0.09
-1.59
-2.9
-3.75
-3.97
-3.69
-3.14
-2.59
-2.15
-1.91
-1.79
-1.74
-1.87
-2.32
-3.35
-5.12
-7.52
-10.32
-13.11
-15.47
-17.08
-17.85
-17.82
-17.21
-16.23
-14.95
-13.47
-11.85
-10.31
-9.01
-8.25
-8.17
-8.83
-10.14
-11.82
-13.62
-15.27
-16.6
-17.38
-17.51
-16.94
-15.7
-14.05
-12.16
-10.34
-8.69
-7.3
-6.14
-5.15
-4.28
-3.51
-2.89
-2.43
-2.24
-2.24
-2.35
-2.42
-2.31
-1.89
-1.17
-0.28
0.64
1.38
1.82
1.86
1.51
0.81
-0.23
-1.53
-2.93
-4.27
-5.38
-6.15
-6.51
-6.62
-6.48
-6.24
-5.9
-5.38
-4.67
-3.85
-2.99
-2.05
-1.05
0.21
1.71
3.32
4.82
5.91
6.3
5.94
5.0
3.72
2.53
1.66
1.39
1.78
2.83
4.37
6.15
7.76
8.79
9.0
8.32
6.93
5.26
3.66
2.54
2.05
2.11
2.55
3.19
3.9
4.49
4.94
5.08
4.91
4.51
4.0
3.55
3.34
3.45
3.78
4.17
4.32
4.08
3.33
2.17
0.67
-1.01
-2.75
-4.38
-5.74
-6.78
-7.42
-7.8
-8.01
-8.05
-7.91
-7.41
-6.38
-4.7
-2.46
0.08
2.47
4.39
5.66
6.16
5.89
4.91
3.32
1.3
-0.8
-2.71
-4.05
-4.63
-4.52
-3.92
-3.05
-2.04
-0.95
0.32
1.67
3.06
4.35
5.41
6.2
6.73
7.08
7.27
7.28
6.96
6.11
4.55
2.12
-1.05
-4.83
-8.76
-12.38
-15.24
-17.07
-17.74
-17.28
-15.89
-13.72
-11.12
-8.34
-5.64
-3.16
-1.08
0.48
1.52
2.05
2.25
2.36
2.72
3.67
5.49
8.17
11.44
14.94
18.14
20.66
22.26
22.84
22.38
20.89
18.5
15.24
11.35
7.07
2.74
-1.34
-4.89
-7.67
-9.57
-10.5
-10.6
-10.06
-9.16
-8.09
-7.05
-6.13
-5.4
-4.89
-4.6
-4.51
-4.53
-4.54
-4.39
-3.99
-3.36
-2.54
-1.65
-0.84
-0.23
0.16
0.36
0.51
0.77
1.22
1.89
2.66
3.3
3.72
3.83
3.73
3.54
3.32
3.1
2.86
2.61
2.44
2.51
2.89
3.59
4.43
5.08
5.32
5.06
4.35
3.37
2.39
1.6
1.05
0.77
0.63
0.49
0.21
-0.33
-1.22
-2.41
-3.66
-4.73
-5.25
-5.08
-4.14
-2.61
-0.75
1.19
3.08
4.91
6.64
8.28
9.61
10.39
10.38
9.5
7.91
5.94
3.94
2.12
0.65
-0.5
-1.38
-1.93
-2.03
-1.61
-0.64
0.8
2.34
3.76
4.78
5.13
4.73
3.64
1.9
-0.36
-2.91
-5.58
-8.06
-10.15
-11.66
-12.33
-11.99
-10.6
-8.27
-5.28
-2.07
0.99
3.57
5.47
6.74
7.47
7.76
7.74
7.49
7.07
6.62
6.23
5.95
5.84
5.86
5.91
5.95
5.85
5.5
4.96
4.28
3.56
2.95
2.57
2.49
2.82
3.51
4.43
5.45
6.36
7.02
7.31
7.17
6.6
5.71
4.56
3.27
1.89
0.41
-1.17
-2.91
-4.77
-6.6
-8.21
-9.45
-10.24
-10.54
-10.51
-10.24
-9.85
-9.4
-8.84
-8.14
-7.2
-5.9
-4.15
-2.0
0.46
2.97
5.19
6.89
7.85
8.05
7.61
6.64
5.3
3.77
2.14
0.58
-0.65
-1.37
-1.36
-0.48
1.14
3.3
5.75
8.21
10.45
12.3
13.6
14.1
13.59
11.95
9.24
5.75
1.91
-1.71
-4.65
-6.62
-7.55
-7.53
-6.77
-5.51
-3.97
-2.43
-1.07
-0.16
0.09
-0.34
-1.41
-2.93
-4.69
-6.37
-7.86
-9.1
-10.09
-10.83
-11.35
-11.58
-11.41
-10.83
-9.71
-8.03
-5.93
-3.57
-1.15
1.15
3.2
4.93
6.22
7.01
7.26
7.03
6.45
5.76
5.18
4.77
4.55
4.44
4.36
4.31
4.33
4.41
4.43
4.3
3.86
3.0
1.82
0.56
-0.58
-1.4
-1.88
-2.14
-2.27
-2.36
-2.52
-2.7
-2.81
-2.89
-2.9
-2.93
-3.06
-3.38
-3.83
-4.29
-4.64
-4.67
-4.38
-3.86
-3.37
-3.11
-3.26
-3.91
-5.04
-6.61
-8.52
-10.63
-12.52
-13.91
-14.39
-13.71
-11.85
-8.97
-5.38
-1.53
2.14
5.26
7.47
8.59
8.64
7.76
6.3
4.63
3.1
1.89
1.08
0.59
0.25
-0.01
-0.24
-0.37
-0.39
-0.31
-0.19
-0.06
0.14
0.44
0.95
1.64
2.42
3.07
3.43
3.37
2.9
2.11
1.1
-0.04
-1.16
-2.13
-2.91
-3.49
-4.02
-4.62
-5.4
-6.37
-7.42
-8.38
-9.09
-9.46
-9.5
-9.31
-9.02
-8.73
-8.57
-8.62
-8.99
-9.73
-10.78
-11.87
-12.68
-12.9
-12.43
-11.35
-9.78
-7.89
-5.8
-3.62
-1.4
0.75
2.66
4.21
5.23
5.78
5.83
5.45
4.71
3.8
2.9
2.15
1.69
1.42
1.23
0.92
0.47
-0.09
-0.65
-1.1
-1.31
-1.06
-0.18
1.47
3.87
6.88
10.08
13.03
15.37
17.03
18.14
18.92
19.49
19.87
19.85
19.34
18.21
16.52
14.35
11.81
8.87
5.6
2.12
-1.49
-4.98
-8.21
-11.06
-13.49
-15.41
-16.74
-17.38
-17.31
-16.66
-15.54
-14.15
-12.67
-11.26
-10.09
-9.32
-8.92
-8.85
-8.96
-8.93
-8.6
-7.87
-6.71
-5.25
-3.5
-1.49
0.74
3.02
5.21
6.98
8.17
8.75
8.74
8.35
7.79
7.27
6.9
6.76
6.73
6.76
6.8
6.73
6.5
6.06
5.33
4.22
2.73
0.7
-1.82
-4.62
-7.48
-10.02
-11.95
-13.16
-13.64
-13.58
-13.25
-12.86
-12.47
-12.1
-11.63
-11.04
-10.36
-9.69
-9.04
-8.32
-7.37
-5.93
-3.98
-1.57
0.98
3.25
4.87
5.65
5.56
4.8
3.67
2.37
1.09
-0.08
-1.08
-1.83
-2.29
-2.28
-1.75
-0.71
0.74
2.46
4.24
5.9
7.23
8.03
8.16
7.59
6.4
4.74
2.79
0.78
-1.09
-2.64
-3.65
-3.95
-3.35
-1.85
0.4
3.0
5.58
7.88
9.71
11.04
11.89
12.28
12.19
11.64
10.53
8.93
7.1
5.27
3.69
2.49
1.65
1.04
0.57
0.11
-0.3
-0.54
-0.49
0.02
0.9
2.0
3.03
3.83
4.26
4.35
4.23
4.02
3.86
3.7
3.36
2.72
1.74
0.39
-1.26
-3.13
-5.15
-7.15
-9.01
-10.66
-12.0
-12.88
-13.17
-12.73
-11.51
-9.64
-7.33
-4.95
-2.77
-0.97
0.54
1.94
3.46
5.24
7.25
9.49
11.86
14.27
16.7
18.98
20.9
22.31
23.09
23.19
22.73
21.77
20.34
18.48
16.17
13.36
10.13
6.58
2.86
-0.79
-4.05
-6.72
-8.58
-9.57
-9.87
-9.74
-9.52
-9.61
-10.1
-10.92
-11.81
-12.45
-12.61
-12.19
-11.26
-9.99
-8.57
-7.09
-5.59
-4.06
-2.49
-0.96
0.5
1.85
2.99
3.97
4.88
5.75
6.6
7.39
7.98
8.23
8.21
8.01
7.7
7.45
7.23
6.93
6.56
6.13
5.63
5.19
4.9
4.78
4.8
4.97
5.16
5.34
5.53
5.56
5.3
4.48
2.93
0.48
-2.71
-6.34
-9.95
-12.94
-14.93
-15.66
-15.25
-13.96
-12.01
-9.59
-6.75
-3.57
-0.22
2.91
5.55
7.33
8.15
8.21
7.78
7.13
6.46
5.94
5.59
5.53
5.68
5.89
5.98
5.61
4.6
2.9
0.78
-1.42
-3.22
-4.36
-4.79
-4.55
-3.92
-3.1
-2.29
-1.61
-1.21
-1.11
-1.3
-1.75
-2.3
-2.78
-3.01
-2.91
-2.51
-1.96
-1.43
-1.02
-0.99
-1.4
-2.28
-3.58
-5.21
-7.04
-8.88
-10.55
-11.79
-12.49
-12.48
-11.67
-10.0
-7.59
-4.72
-1.77
0.78
2.67
3.76
4.1
3.82
3.12
2.25
1.38
0.63
0.07
-0.24
-0.33
-0.29
-0.15
0.01
0.3
0.81
1.54
2.45
3.44
4.33
4.99
5.35
5.41
5.19
4.78
4.17
3.43
2.6
1.82
1.18
0.83
0.77
0.91
1.11
1.21
1.15
0.87
0.45
-0.04
-0.45
-0.78
-0.99
-1.07
-1.1
-1.12
-1.27
-1.6
-2.18
-2.97
-3.96
-5.09
-6.16
-6.92
-7.12
-6.66
-5.52
-3.84
-1.86
0.14
1.93
3.4
4.55
5.42
5.95
6.14
6.01
5.62
5.1
4.51
4.0
3.56
3.19
2.87
2.59
2.37
2.21
2.13
1.97
1.69
1.17
0.4
-0.48
-1.3
-1.89
-2.14
-1.98
-1.52
-0.88
-0.3
0.09
0.22
0.05
-0.39
-1.1
-2.04
-3.11
-4.3
-5.57
-6.85
-7.99
-8.97
-9.67
-10.12
-10.43
-10.71
-11.0
-11.21
-11.19
-10.66
-9.53
-7.73
-5.46
-3.06
-0.86
0.84
2.0
2.67
3.03
3.29
3.62
4.07
4.65
5.44
6.4
7.59
8.91
10.21
11.3
11.95
12.0
11.44
10.43
9.14
7.77
6.42
5.07
3.69
2.22
0.66
-0.93
-2.43
-3.86
-5.13
-6.26
-7.12
-7.6
-7.64
-7.22
-6.41
-5.31
-4.11
-2.97
-2.06
-1.48
-1.28
-1.48
-2.04
-2.93
-4.05
-5.26
-6.35
-7.15
-7.52
-7.39
-6.89
-6.18
-5.53
-5.15
-5.07
-5.12
-5.13
-4.92
-4.38
-3.59
-2.62
-1.6
-0.67
0.08
0.68
1.11
1.37
1.6
1.78
2.03
2.31
2.67
3.15
3.75
4.5
5.33
6.2
6.93
7.39
7.51
7.33
6.99
6.57
6.12
5.7
5.3
4.79
4.13
3.37
2.61
1.93
1.25
0.4
-0.84
-2.5
-4.44
-6.24
-7.4
-7.63
-6.89
-5.49
-3.86
-2.43
-1.44
-0.85
-0.61
-0.62
-0.99
-1.8
-3.14
-4.92
-6.94
-8.92
-10.45
-11.29
-11.28
-10.46
-8.91
-6.81
-4.33
-1.64
1.08
3.68
5.94
7.71
8.84
9.34
9.22
8.58
7.64
6.56
5.55
4.66
4.02
3.67
3.68
4.11
4.92
6.07
7.26
8.28
8.81
8.73
8.04
6.8
5.18
3.33
1.46
-0.29
-1.75
-2.71
-3.06
-2.74
-1.91
-0.76
0.39
1.24
1.54
1.28
0.6
-0.33
-1.3
-2.24
-3.17
-4.21
-5.48
-7.01
-8.63
-10.18
-11.47
-12.25
-12.44
-12.0
-11.03
-9.61
-7.85
-5.84
-3.77
-1.81
-0.07
1.38
2.52
3.33
3.88
4.26
4.46
4.44
4.22
3.82
3.34
2.93
2.7
2.76
3.08
3.51
3.87
4.06
4.03
3.88
3.76
3.82
4.18
4.8
5.59
6.37
6.97
7.25
7.13
6.58
5.65
4.49
3.15
1.81
0.62
-0.36
-1.06
-1.54
-1.89
-2.3
-2.83
-3.56
-4.48
-5.46
-6.48
-7.45
-8.36
-9.27
-10.25
-11.22
-12.02
-12.39
-12.02
-10.82
-8.82
-6.28
-3.56
-1.02
1.04
2.48
3.24
3.4
3.09
2.54
1.89
1.3
0.91
0.71
0.79
1.11
1.71
2.46
3.3
4.09
4.73
5.19
5.41
5.47
5.33
5.05
4.59
3.96
3.26
2.66
2.39
2.49
3.01
3.8
4.68
5.49
6.0
6.16
5.91
5.24
4.09
