5.23
10.6
13.57
13.97
12.09
8.64
4.54
0.78
-1.85
-2.83
-1.97
0.66
4.8
10.06
15.94
21.97
27.66
32.63
36.6
39.46
41.08
41.48
40.71
38.98
36.73
34.57
33.25
33.41
35.42
39.14
44.03
49.21
53.68
56.6
57.41
55.94
52.38
47.19
40.9
33.92
26.36
17.97
8.27
-3.14
-16.23
-30.36
-44.28
-56.43
-65.44
-70.41
-71.11
-67.89
-61.45
-52.63
-42.38
-31.68
-21.49
-12.71
-5.95
-1.47
0.92
1.64
1.26
0.31
-0.83
-1.92
-2.84
-3.57
-4.11
-4.49
-4.69
-4.6
-4.12
-3.21
-1.96
-0.58
0.73
1.86
2.83
3.77
4.78
5.84
6.73
7.21
7.06
6.26
4.96
3.46
2.13
1.21
0.86
1.07
1.79
2.9
4.21
5.47
6.32
6.41
5.43
3.31
0.27
-3.21
-6.6
-9.38
-11.29
-12.28
-12.56
-12.44
-12.14
-11.78
-11.31
-10.58
-9.4
-7.61
-5.17
-2.12
1.41
5.15
8.85
12.22
15.03
17.14
18.54
19.23
19.22
18.45
16.84
14.36
11.14
7.51
3.95
0.97
-1.02
-1.78
-1.33
0.11
2.13
4.22
5.88
6.7
6.45
5.14
2.94
0.14
-3.03
-6.4
-9.89
-13.4
-16.77
-19.77
-22.09
-23.45
-23.62
-22.59
-20.48
-17.59
-14.38
-11.45
-9.45
-8.98
-10.44
-13.83
-18.67
-24.04
-28.81
-31.87
-32.51
-30.5
-26.1
-19.98
-12.98
-5.89
0.63
6.16
10.51
13.61
15.56
16.45
16.38
15.39
13.52
10.83
7.42
3.58
-0.27
-3.54
-5.59
-5.9
-4.17
-0.57
4.29
9.54
14.18
17.44
18.86
18.44
16.53
13.7
10.58
7.7
5.44
3.99
3.37
3.48
4.14
5.09
6.02
6.69
6.91
6.73
6.39
6.19
6.27
6.55
6.65
6.13
4.66
2.24
-0.82
-4.01
-6.83
-8.9
-10.06
-10.27
-9.59
-8.06
-5.73
-2.67
0.99
4.94
8.74
11.85
13.76
14.17
13.11
10.97
8.31
5.67
3.32
1.3
-0.58
-2.48
-4.44
-6.29
-7.76
-8.56
-8.48
-7.47
-5.54
-2.89
0.24
3.48
6.44
8.71
9.99
10.18
9.34
7.71
5.58
3.26
0.97
-1.17
-3.16
-5.11
-7.21
-9.59
-12.31
-15.28
-18.24
-20.88
-22.89
-24.1
-24.55
-24.42
-24.01
-23.49
-23.0
-22.45
-21.68
-20.45
-18.53
-15.7
-11.92
-7.32
-2.25
2.72
7.03
10.18
12.0
12.65
12.59
12.34
12.33
12.71
13.32
13.89
14.14
14.02
13.72
13.59
13.94
14.83
16.08
17.21
17.7
17.2
15.69
13.41
10.79
8.29
6.19
4.58
3.37
2.34
1.26
-0.07
-1.75
-3.82
-6.14
-8.55
-10.83
-12.76
-14.2
-15.06
-15.35
-15.18
-14.8
-14.52
-14.74
-15.79
-17.87
-20.92
-24.59
-28.34
-31.5
-33.46
-33.75
-32.15
-28.67
-23.56
-17.25
-10.26
-3.1
3.79
10.04
15.42
19.72
22.79
24.64
25.36
25.29
24.79
24.12
23.39
22.48
21.22
19.56
17.68
15.9
14.59
13.95
13.95
14.41
15.14
16.08
17.33
19.07
21.36
24.09
26.93
29.42
31.11
31.68
31.03
29.3
26.79
23.94
21.17
18.78
16.9
15.4
13.97
12.2
9.69
6.22
1.85
-3.09
-8.06
-12.45
-15.8
-17.92
-18.91
-19.15
-19.09
-19.08
-19.23
-19.36
-19.11
-18.12
-16.16
-13.3
-9.83
-6.18
-2.77
0.1
2.27
3.71
4.49
4.63
4.14
2.96
1.0
-1.68
-4.87
-8.12
-10.85
-12.51
-12.74
-11.51
-9.18
-6.32
-3.48
-1.07
0.79
2.15
3.16
3.92
4.44
4.71
4.7
4.49
4.19
3.92
3.68
3.35
2.71
1.54
-0.29
-2.74
-5.65
-8.72
-11.59
-13.91
-15.38
-15.86
-15.39
-14.16
-12.46
-10.66
-9.02
-7.66
-6.58
-5.7
-4.92
-4.22
-3.6
-3.1
-2.71
-2.34
-1.81
-0.95
0.37
2.1
4.07
5.99
7.56
8.57
8.95
8.73
8.12
7.34
6.63
6.14
5.9
5.82
5.66
5.13
3.93
1.96
-0.7
-3.69
-6.52
-8.69
-9.92
-10.27
-10.1
-9.92
-10.08
-10.65
-11.41
-11.97
-12.05
-11.55
-10.58
-9.37
-8.06
-6.68
-5.25
-3.79
-2.51
-1.71
-1.62
-2.34
-3.7
-5.36
-6.93
-8.11
-8.76
-8.87
-8.55
-7.84
-6.72
-5.12
-2.94
-0.18
3.02
6.42
9.67
12.49
14.71
16.32
17.4
18.04
18.24
17.92
16.96
15.35
13.21
10.9
8.86
7.55
7.29
8.16
9.97
12.34
14.82
16.92
18.25
18.5
17.42
14.84
10.81
5.73
0.38
-4.3
-7.46
-8.73
-8.27
-6.74
-4.89
-3.27
-2.09
-1.32
-0.85
-0.72
-1.1
-2.19
-4.05
-6.54
-9.41
-12.38
-15.28
-17.94
-20.17
-21.66
-22.06
-21.07
-18.61
-14.93
-10.59
-6.23
-2.44
0.49
2.56
3.97
5.0
5.86
6.63
7.33
7.99
8.73
9.73
11.16
13.14
15.61
18.33
20.92
22.9
23.81
23.34
21.39
18.13
13.99
9.56
5.37
1.86
-0.81
-2.63
-3.75
-4.3
-4.45
-4.33
-4.12
-4.0
-4.05
-4.34
-4.81
-5.35
-5.97
-6.78
-8.04
-10.03
-12.85
-16.4
-20.32
-24.06
-27.07
-28.89
-29.32
-28.37
-26.33
-23.57
-20.44
-17.17
-13.8
-10.22
-6.36
-2.33
1.56
4.85
7.11
8.09
7.79
6.5
4.65
2.74
1.22
0.43
0.53
1.52
3.18
5.19
7.21
8.93
10.15
10.74
10.61
9.8
8.49
7.06
5.95
5.56
6.04
7.17
8.53
9.59
9.96
9.55
8.48
6.94
5.14
3.15
1.0
-1.22
-3.38
-5.35
-7.08
-8.67
-10.28
-11.98
-13.68
-15.04
-15.64
-15.18
-13.71
-11.6
-9.41
-7.63
-6.42
-5.59
-4.73
-3.41
-1.43
1.11
3.91
6.59
8.89
10.75
12.26
13.58
14.8
15.93
16.83
17.34
17.36
16.93
16.23
15.51
15.04
14.93
15.19
15.64
16.06
16.28
16.21
15.9
15.42
14.76
13.79
12.39
10.41
7.91
5.13
2.43
0.23
-1.2
-1.8
-1.78
-1.55
-1.64
-2.58
-4.69
-8.01
-12.16
-16.43
-19.89
-21.66
-21.2
-18.47
-13.94
-8.47
-3.03
1.55
4.8
6.61
7.18
6.89
6.07
5.04
3.96
2.98
2.24
1.94
2.28
3.37
5.07
7.05
8.85
10.02
10.35
9.91
8.98
7.93
7.06
6.46
5.98
5.28
3.97
1.74
-1.57
-5.81
-10.58
-15.24
-19.11
-21.58
-22.29
-21.16
-18.51
-14.94
-11.34
-8.65
-7.61
-8.54
-11.22
-14.99
-18.98
-22.44
-24.93
-26.29
-26.59
-25.97
-24.54
-22.45
-19.87
-17.06
-14.3
-11.81
-9.64
-7.71
-5.88
-4.02
-2.11
-0.18
1.73
3.61
5.44
7.21
8.83
10.12
10.9
11.0
10.38
9.16
7.63
6.11
4.96
4.42
4.54
5.21
6.16
7.07
7.66
7.78
7.41
6.64
5.63
4.57
3.59
2.79
2.21
1.79
1.43
1.02
0.48
-0.24
-1.08
-1.92
-2.57
-2.8
-2.37
-1.16
0.81
3.23
5.55
7.07
7.13
5.36
1.83
-2.92
-8.01
-12.41
-15.22
-15.88
-14.27
-10.74
-5.99
-0.86
3.93
7.92
10.93
13.03
14.45
15.38
15.9
15.99
15.56
14.5
12.7
10.09
6.8
3.28
0.28
-1.25
-0.51
2.81
8.32
14.99
21.43
26.34
28.9
28.83
26.42
22.27
17.09
11.55
6.18
1.36
-2.72
-6.02
-8.62
-10.61
-12.09
-13.14
-13.8
-14.13
-14.15
-13.86
-13.22
-12.21
-10.88
-9.38
-7.99
-7.01
-6.62
-6.87
-7.59
-8.45
-9.08
-9.11
-8.33
-6.66
-4.22
-1.24
1.93
4.9
7.31
8.92
9.7
9.78
9.44
8.95
8.48
8.06
7.63
7.08
6.38
5.53
4.56
3.45
2.08
0.29
-2.01
-4.75
-7.69
-10.51
-12.92
-14.81
-16.24
-17.42
-18.52
-19.69
-20.94
-22.24
-23.52
-24.73
-25.77
-26.5
-26.64
-25.86
-23.83
-20.42
-15.78
-10.41
-5.08
-0.63
2.36
3.83
4.36
5.03
7.13
11.69
19.13
29.09
40.5
51.87
61.5
67.81
69.53
65.99
57.42
44.95
30.61
16.76
5.49
-1.96
-5.4
-5.38
-2.77
1.85
8.3
16.64
26.71
37.8
48.45
56.61
60.12
57.27
47.45
31.41
11.23
-10.15
-29.73
-45.2
-55.44
-60.55
-61.53
-59.67
-56.11
-51.68
-46.84
-41.89
-37.02
-32.28
-27.65
-23.01
-18.32
-13.71
-9.55
-6.45
-5.1
-6.11
-9.8
-16.14
-24.73
-34.88
-45.71
-56.36
-66.09
-74.35
-80.73
-84.95
-86.81
-86.23
-83.35
-78.54
-72.39
-65.54
-58.53
-51.8
-45.6
-40.14
-35.63
-32.25
-30.19
-29.54
-30.33
-32.31
-34.87
-36.65
-35.64
-29.53
-16.48
4.08
31.07
62.08
94.18
124.68
151.71
174.14
191.15
202.05
206.31
203.93
195.89
184.17
171.27
159.56
150.63
145.0
142.22
141.16
140.31
138.24
133.92
126.92
117.49
106.39
94.47
82.4
70.52
59.04
48.77
41.2
38.16
40.82
48.75
59.51
69.42
74.73
72.73
62.68
45.17
21.04
-9.33
-45.89
-87.88
-132.79
-176.65
-215.51
-246.49
-269.19
-285.38
-297.42
-306.17
-310.07
-305.75
-290.57
-264.74
-230.9
-193.25
-155.9
-121.65
-91.99
-68.14
-51.64
-40.58
-33.61
-27.55
-18.01
-1.58
22.09
50.36
77.32
101.17
121.3
137.2
148.58
154.72
154.76
147.93
135.46
120.56
107.48
99.02
95.19
93.92
92.17
87.56
79.42
68.93
58.11
48.83
41.62
35.79
30.48
25.1
19.54
13.96
8.79
4.35
0.83
-1.91
-4.21
-6.17
-7.71
-8.7
-9.08
-8.9
-8.37
-7.73
-7.34
-7.45
-8.09
-9.04
-9.95
-10.47
-10.29
-9.28
-7.56
-5.44
-3.33
-1.47
0.14
1.73
3.68
6.32
9.79
13.97
18.62
23.34
27.79
31.65
34.75
37.08
38.78
40.11
41.13
41.65
40.99
38.27
32.58
23.38
10.61
-5.28
-23.38
-42.51
-61.19
-77.7
-90.31
-97.71
-99.47
-96.32
-89.91
-82.06
-74.14
-66.58
-59.17
-51.5
-43.67
-36.3
-30.26
-26.12
-23.67
-22.13
-20.53
-18.41
-16.09
-14.45
-14.44
-16.49
-20.3
-24.95
-29.5
-33.33
-36.46
-39.34
-42.45
-46.0
-49.75
-53.23
-56.04
-58.12
-59.72
-61.24
-62.89
-64.61
-66.11
-67.18
-67.86
-68.55
-69.76
-71.73
-74.17
-76.15
-76.49
-74.1
-68.55
-60.17
-49.85
-38.57
-26.86
-14.52
-0.54
16.52
38.12
65.35
98.69
137.83
181.48
227.08
270.77
307.67
332.6
341.28
331.44
303.53
260.67
207.77
150.26
93.11
40.13
-6.31
-45.3
-77.28
-103.91
-127.72
-151.41
-176.91
-203.83
-229.07
-247.69
-254.61
-246.47
-222.89
-186.78
-143.72
-101.05
-65.42
-41.55
-31.81
-36.13
-52.0
-74.7
-98.26
-116.72
-126.59
-126.54
-117.72
-103.69
-89.29
-78.7
-73.79
-74.27
-78.16
-84.03
-89.66
-91.95
-87.25
-72.05
-43.81
-2.04
50.19
113.46
178.99
233.77
268.46
282.26
280.31
267.8
246.83
216.76
176.04
125.09
68.94
15.51
-28.15
-59.0
-78.85
-88.04
-89.83
-87.44
-83.49
-78.58
-72.08
-63.63
-54.06
-44.98
-37.74
-33.37
-31.64
-31.89
-32.86
-33.38
-32.99
-32.22
-32.0
-32.86
-35.02
-37.75
-39.91
-40.15
-37.41
-31.38
-22.52
-11.89
-0.53
10.46
20.37
28.82
35.65
40.84
44.33
46.14
46.4
45.53
43.94
42.23
40.93
40.38
40.69
41.76
43.44
45.53
47.87
50.14
51.99
53.01
52.86
51.39
48.65
44.92
40.57
36.03
31.66
27.74
24.46
21.87
19.78
17.86
15.64
12.76
9.01
4.53
-0.29
-4.91
-8.81
-11.66
-13.35
-14.04
-14.02
-13.71
-13.6
-14.11
-15.55
-17.92
-20.87
-23.75
-25.71
-26.07
-24.43
-20.83
-15.59
-9.23
-2.24
4.93
11.83
17.99
22.89
26.14
27.53
27.21
25.63
23.43
21.27
19.69
18.96
19.12
20.01
21.38
22.96
24.45
25.6
26.12
25.76
24.38
21.97
18.75
15.05
11.32
7.92
5.14
3.07
1.65
0.69
-0.1
-1.02
-2.34
-4.19
-6.57
-9.39
-12.49
-15.82
-19.39
-23.35
-27.82
-32.83
-38.21
-43.55
-48.27
-51.68
-53.09
-52.03
-48.34
-42.18
-34.08
-24.82
-15.24
-6.11
2.07
9.08
14.9
19.64
23.42
26.24
28.06
28.85
28.62
27.54
25.91
24.14
22.66
21.79
21.68
22.27
23.38
24.7
25.93
26.88
27.34
27.22
26.43
24.95
22.82
20.22
17.35
14.42
11.59
8.88
6.31
3.78
1.27
-1.25
-3.76
-6.23
-8.61
-10.84
-12.86
-14.65
-16.28
-17.92
-19.88
-22.47
-25.95
-30.41
-35.62
-41.07
-45.96
-49.38
-50.52
-48.88
-44.37
-37.39
-28.67
-19.11
-9.63
-0.92
6.54
12.54
17.02
19.99
21.47
21.52
20.29
18.05
15.24
12.39
10.02
8.59
8.37
9.41
11.58
14.54
17.85
21.03
23.67
25.47
26.25
26.01
24.84
22.91
20.44
17.64
14.75
11.92
9.28
6.85
4.65
2.61
0.72
-1.04
-2.67
-4.12
-5.34
-6.29
-6.99
-7.58
-8.38
-9.73
-11.95
-15.18
-19.27
-23.84
-28.3
-31.96
-34.19
-34.48
-32.52
-28.29
-22.07
-14.42
-6.05
2.28
9.92
16.41
21.5
25.04
26.93
27.11
25.65
22.82
19.12
15.2
11.72
9.2
7.83
7.56
8.13
9.29
10.79
12.48
14.19
15.71
16.8
17.24
16.92
15.93
14.5
12.94
11.45
10.08
8.66
6.97
4.81
2.13
-0.98
-4.3
-7.59
-10.69
-13.52
-16.13
-18.59
-21.0
-23.49
-26.14
-28.97
-31.77
-34.13
-35.43
-34.99
-32.33
-27.33
-20.39
-12.32
-4.15
3.19
9.03
13.14
15.57
16.58
16.51
15.64
14.24
12.53
10.77
9.28
8.33
8.15
8.8
10.26
12.4
15.04
17.95
20.87
23.42
25.17
25.68
24.67
22.1
18.29
13.75
9.14
5.02
1.76
-0.48
-1.77
-2.35
-2.55
-2.72
-3.19
-4.12
-5.56
-7.33
-9.2
-10.92
-12.34
-13.52
-14.62
-15.95
-17.79
-20.27
-23.26
-26.31
-28.79
-29.99
-29.4
-26.85
-22.57
-17.13
-11.25
-5.59
-0.58
3.58
6.9
9.5
11.5
12.96
13.91
14.41
14.54
14.46
14.28
14.03
13.65
13.01
12.07
10.95
9.99
9.55
9.9
10.95
12.35
13.55
14.08
13.74
12.68
11.28
9.95
8.94
8.25
7.68
6.99
5.97
4.57
2.81
0.76
-1.47
-3.79
-6.08
-8.22
-10.09
-11.64
-12.9
-14.01
-15.2
-16.75
-18.77
-21.22
-23.75
-25.83
-26.88
-26.43
-24.3
-20.63
-15.83
-10.41
-4.85
0.46
5.25
9.3
12.49
14.83
16.46
17.74
19.09
20.93
23.46
26.58
29.88
32.7
34.33
34.2
32.05
28.0
22.47
16.06
9.36
2.84
-3.16
-8.36
-12.5
-15.35
-16.74
-16.69
-15.45
-13.43
-11.14
-8.99
-7.25
-6.03
-5.3
-4.98
-4.99
-5.22
-5.57
-5.96
-6.34
-6.7
-6.99
-7.08
-6.7
-5.47
-3.02
0.83
5.86
11.43
16.67
20.75
23.25
24.32
24.61
24.99
26.12
28.15
30.71
33.04
34.41
34.49
33.42
31.8
30.35
29.74
30.35
32.29
35.48
39.68
44.51
49.42
53.7
56.63
57.63
56.51
53.46
48.97
43.61
37.81
31.77
25.55
19.23
12.97
7.08
1.91
-2.2
-5.1
-6.8
-7.52
-7.55
-7.25
-6.98
-7.02
-7.59
-8.84
-10.78
-13.38
-16.51
-19.95
-23.4
-26.5
-28.84
-30.1
-30.09
-28.83
-26.47
-23.26
-19.49
-15.43
-11.24
-7.04
-2.92
1.03
4.62
7.72
10.09
11.49
11.71
10.65
8.4
5.32
2.02
-0.82
-2.51
-2.63
-1.11
1.77
5.59
9.93
14.4
18.7
22.48
25.53
27.56
28.31
27.71
25.96
23.56
21.09
19.04
17.53
16.92
17.36
18.9
21.6
25.53
30.75
37.12
44.16
50.92
57.12
62.44
66.55
69.25
70.61
70.96
70.74
70.32
69.55
69.22
69.69
70.81
72.01
72.69
72.79
73.17
75.61
76.59
74.8
69.81
61.95
51.76
39.63
26.1
12.37
2.07
-4.26
-5.54
-1.2
8.36
21.72
36.68
50.35
58.89
58.52
46.36
23.47
-5.61
-33.68
-53.48
-60.72
-56.25
-46.16
-39.67
-46.14
-71.14
-115.88
-177.77
-251.67
-330.81
-407.22
-472.06
-516.72
-534.79
-523.39
-484.53
-424.63
-352.51
-276.83
-204.21
-138.25
-80.22
-30.39
11.09
43.71
67.02
81.54
89.2
93.12
96.75
102.68
111.75
122.97
134.07
142.43
146.04
144.06
136.83
125.76
113.08
101.31
92.62
88.22
88.18
91.47
96.49
101.49
105.0
106.0
103.9
98.63
90.84
82.0
74.13
69.15
67.89
69.48
71.47
70.72
64.79
52.95
36.49
18.0
0.18
-15.19
-27.63
-37.53
-45.55
-52.08
-57.06
-60.3
-61.66
-61.13
-58.83
-54.92
-49.63
-43.26
-36.44
-30.05
-25.11
-22.51
-22.71
-25.55
-30.35
-36.14
-41.97
-47.2
-51.63
-55.48
-59.15
-63.02
-67.23
-71.48
-75.11
-77.23
-76.9
-73.39
-66.44
-56.29
-43.7
-29.81
-15.86
-2.84
8.68
18.64
27.38
35.33
42.65
49.12
54.21
57.29
58.0
56.38
52.81
47.88
42.23
36.42
31.0
26.42
22.97
20.67
19.23
18.17
17.04
15.65
14.18
13.07
12.82
13.74
15.83
18.8
22.15
25.38
28.19
30.64
33.16
36.4
40.94
46.92
53.89
60.96
67.12
71.66
74.44
75.75
76.15
76.21
76.3
76.63
77.28
78.28
79.61
81.11
82.48
83.24
82.95
81.25
78.05
73.52
68.06
62.13
56.05
49.85
43.29
35.93
27.31
17.06
5.04
-8.63
-23.43
-38.52
-52.82
-65.24
-75.07
-82.11
-86.68
-89.49
-91.28
-92.59
-93.59
-94.24
-94.36
-93.8
-92.52
-90.51
-87.81
-84.52
-80.74
-76.6
-72.31
-68.09
-64.12
-60.53
-57.33
-54.48
-51.87
-49.39
-46.97
-44.61
-42.32
-40.18
-38.22
-36.45
-34.89
-33.48
-32.23
-31.14
-30.3
-29.78
-29.7
-30.1
-30.99
-32.28
-33.74
-35.08
-35.95
-36.07
-35.29
-33.72
-31.62
-29.43
-27.6
-26.43
-26.06
-26.38
-27.13
-28.04
-28.83
-29.4
-29.81
-30.2
-30.86
-31.99
-33.72
-35.95
-38.41
-40.63
-42.06
-42.18
-40.66
-37.47
-32.86
-27.29
-21.28
-15.29
-9.67
-4.63
-0.27
3.34
6.18
8.27
9.67
10.47
10.79
10.79
10.64
10.5
10.52
10.82
11.44
12.42
13.74
15.38
17.22
19.1
20.77
21.96
22.48
22.26
21.4
20.14
18.75
17.45
16.32
15.26
14.13
12.7
10.87
8.59
5.94
3.08
0.21
-2.52
-4.99
-7.19
-9.2
-11.15
-13.21
-15.57
-18.33
-21.42
-24.53
-27.1
-28.45
-28.05
-25.62
-21.32
-15.6
-9.12
-2.5
3.77
9.37
14.08
17.76
20.33
21.81
22.27
21.89
20.9
19.61
18.35
17.46
17.17
17.55
18.51
19.79
21.13
22.35
23.37
24.2
24.87
25.31
25.41
25.06
24.23
23.02
21.58
20.08
18.57
17.05
15.43
13.64
11.63
9.41
7.02
4.53
2.05
-0.38
-2.7
-4.9
-6.99
-9.0
-10.98
-12.96
-14.99
-17.14
-19.48
-22.04
-24.62
-26.83
-28.09
-27.83
-25.73
-21.82
-16.47
-10.27
-3.82
2.42
8.1
12.98
16.84
19.51
20.96
21.26
20.66
19.5
18.05
16.54
15.13
13.97
13.19
12.91
13.17
13.92
15.0
16.18
17.2
17.88
18.13
17.93
17.32
16.37
15.17
13.8
12.36
10.97
9.67
8.45
7.19
5.76
4.05
2.09
0.02
-1.93
-3.6
-4.97
-6.17
-7.47
-9.07
-11.05
-13.31
-15.63
-17.67
-19.1
-19.59
-18.87
-16.76
-13.25
-8.52
-2.95
2.92
8.55
13.48
17.39
20.16
21.76
22.26
21.84
20.76
19.36
17.96
16.86
16.17
15.86
15.84
15.95
16.11
16.33
16.62
17.0
17.39
17.68
17.78
17.58
17.08
16.33
15.4
14.34
13.15
11.79
10.2
8.33
6.16
3.71
1.06
-1.7
-4.48
-7.2
-9.78
-12.12
-14.15
-15.84
-17.27
-18.65
-20.3
-22.43
-25.07
-27.85
-30.14
-31.16
-30.36
-27.54
-22.99
-17.3
-11.2
-5.27
0.15
4.94
9.13
12.69
15.53
17.55
18.64
18.89
18.51
17.81
17.07
16.46
15.99
15.64
15.42
15.38
15.57
16.06
16.77
17.61
18.41
19.07
19.47
19.55
19.2
18.36
17.04
15.33
13.41
11.47
9.64
7.94
6.28
4.54
2.58
0.34
-2.18
-4.88
-7.61
-10.23
-12.61
-14.7
-16.57
-18.34
-20.16
-22.19
-24.55
-27.18
-29.87
-32.2
-33.64
-33.73
-32.21
-29.12
-24.79
-19.76
-14.54
-9.61
-5.34
-1.99
0.31
1.47
1.55
0.71
-0.81
-2.69
-4.66
-6.48
-8.04
-9.31
-10.37
-11.32
-12.29
-13.31
-14.31
-15.15
-15.71
-15.94
-15.96
-15.96
-16.23
-17.03
-18.56
-20.87
-23.67
-26.26
-27.44
-25.74
-19.83
-9.16
5.75
23.41
42.06
60.35
77.61
93.6
107.89
119.58
127.49
130.89
130.21
127.0
123.5
121.53
121.85
123.96
126.46
127.59
125.78
119.81
109.12
94.12
76.34
58.05
41.36
27.22
14.77
1.81
-14.12
-34.56
-59.55
-87.68
-116.22
-141.27
-157.87
-160.84
-146.48
-114.61
-69.71
-20.16
24.54
56.93
73.76
75.8
65.81
46.24
18.13
-17.95
-60.27
-104.61
-144.72
-174.27
-189.07
-188.36
-174.61
-152.18
-125.6
-98.36
-72.51
-48.98
-28.29
-11.01
2.19
10.77
14.81
15.19
13.65
12.52
14.26
20.87
33.26
50.76
71.08
90.91
106.85
116.58
119.47
116.45
109.23
99.39
87.79
74.65
60.07
44.56
29.21
15.3
3.83
-4.91
-11.27
-16.0
-19.81
-23.05
-25.67
-27.31
-27.61
-26.45
-24.09
-21.11
-18.29
-16.29
-15.5
-15.93
-17.21
-18.85
-20.38
-21.6
-22.54
-23.41
-24.38
-25.5
-26.73
-27.87
-28.77
-29.34
-29.55
-29.51
-29.32
-29.08
-28.93
-29.04
-29.65
-30.98
-33.17
-36.08
-39.32
-42.13
-43.69
-43.3
-40.63
-35.83
-29.44
-22.25
-14.96
-8.09
-1.89
3.55
8.19
11.93
14.63
16.19
16.6
16.12
15.15
14.16
13.54
13.5
14.0
14.89
15.94
16.98
17.89
18.56
18.84
18.58
17.65
16.09
14.09
11.99
10.21
9.04
8.61
8.8
9.34
9.91
10.32
10.43
10.22
9.62
8.56
6.92
4.59
1.46
-2.49
-7.19
-12.45
-17.89
-22.91
-26.78
-28.85
-28.68
-26.23
-21.84
-16.19
-9.99
-3.93
1.47
5.91
9.26
11.59
13.1
14.08
14.81
15.51
16.23
16.9
17.34
17.36
16.92
16.07
15.05
14.12
13.49
13.26
13.36
13.67
14.01
14.26
14.33
14.11
13.5
12.39
10.75
8.67
6.35
4.06
2.06
0.43
-0.91
-2.16
-3.55
-5.17
-6.99
-8.85
-10.6
-12.16
-13.59
-15.07
-16.82
-18.98
-21.51
-24.21
-26.67
-28.38
-28.85
-27.69
-24.83
-20.5
-15.26
-9.82
-4.86
-0.84
2.12
4.16
5.58
6.69
7.68
8.64
9.57
10.49
11.49
12.64
14.01
15.53
17.05
18.33
19.17
19.46
19.19
18.48
17.49
16.37
15.25
14.2
13.23
12.3
11.35
10.35
9.32
8.32
7.45
6.74
6.15
5.54
4.75
3.71
2.39
0.93
-0.54
-1.88
-3.07
-4.15
-5.26
-6.59
-8.31
-10.59
-13.49
-16.93
-20.59
-23.91
-26.21
-26.84
-25.36
-21.77
-16.45
-10.08
-3.45
2.78
8.23
12.78
16.51
19.58
22.13
24.26
26.02
27.36
28.26
28.66
28.59
28.16
27.51
26.79
26.03
25.13
23.83
21.92
19.32
16.08
12.42
8.56
4.63
0.65
-3.35
-7.28
-10.91
-13.92
-16.09
-17.35
-17.86
-17.9
-17.84
-17.94
-18.32
-18.99
-19.84
-20.74
-21.54
-22.15
-22.58
-22.9
-23.29
-23.91
-24.79
-25.78
-26.58
-26.71
-25.76
-23.52
-20.0
-15.5
-10.49
-5.46
-0.79
3.3
6.78
9.7
12.13
14.09
15.58
16.54
16.93
16.74
16.0
14.85
13.44
11.99
10.7
9.75
9.25
9.22
9.6
10.28
11.11
11.88
12.35
12.31
11.62
10.27
8.38
6.17
3.87
1.63
-0.52
-2.61
-4.71
-6.79
-8.79
-10.56
-11.98
-13.0
-13.71
-14.3
-15.06
-16.27
-18.14
-20.61
-23.42
-26.06
-27.91
-28.44
-27.36
-24.67
-20.65
-15.78
-10.56
-5.38
-0.46
4.09
8.27
12.02
15.17
17.42
18.51
18.31
16.91
14.7
12.14
9.72
7.75
6.41
5.71
5.65
6.23
7.41
9.1
11.06
12.92
14.26
14.74
14.16
12.57
10.21
7.45
4.71
2.32
0.47
-0.79
-1.56
-2.02
-2.39
-2.89
-3.63
-4.61
-5.74
-6.9
-7.99
-9.04
-10.14
-11.45
-13.11
-15.22
-17.82
-20.82
-23.99
-26.88
-28.87
-29.36
-27.9
-24.47
-19.45
-13.56
-7.62
-2.24
2.19
5.62
8.18
10.04
11.34
12.2
12.71
12.96
13.08
13.13
13.17
13.2
13.15
12.99
12.7
12.34
12.01
11.81
11.76
11.79
11.73
11.4
10.64
9.44
7.92
6.24
4.59
3.07
1.7
0.42
-0.81
-2.08
-3.42
-4.84
-6.3
-7.7
-8.93
-9.84
-10.35
-10.5
-10.48
-10.51
-10.89
-11.8
-13.34
-15.49
-18.06
-20.76
-23.16
-24.75
-25.03
-23.65
-20.6
-16.16
-10.9
-5.47
-0.43
3.86
7.28
9.92
11.9
13.33
14.28
14.76
14.79
14.47
13.95
13.48
13.25
13.42
14.01
14.94
16.05
17.13
17.98
18.41
18.25
17.47
16.1
14.32
12.42
10.66
9.23
8.24
7.64
7.3
6.97
6.37
5.26
3.54
1.27
-1.32
-3.94
-6.37
-8.54
-10.58
-12.71
-15.19
-18.12
-21.44
-24.9
-28.01
-30.24
-31.04
-30.04
-27.18
-22.73
-17.29
-11.56
-6.21
-1.68
1.85
4.41
6.11
7.15
7.69
7.92
8.0
8.08
8.21
8.41
8.62
8.84
9.13
9.59
10.28
11.18
12.14
12.96
13.42
13.41
12.91
11.95
10.68
9.23
7.79
6.53
5.62
5.1
4.95
5.04
5.18
5.19
4.88
4.1
2.77
0.86
-1.58
-4.38
-7.35
-10.27
-12.96
-15.31
-17.26
-18.88
-20.26
-21.57
-22.88
-24.13
-25.03
-25.19
-24.23
-22.0
-18.57
-14.35
-9.86
-5.59
-1.85
1.24
3.78
5.94
7.92
9.89
11.84
13.68
15.18
16.13
16.41
16.01
15.12
13.97
12.8
11.77
10.96
10.41
10.14
10.13
10.36
10.75
11.15
11.39
11.33
10.89
10.06
8.91
7.55
6.12
4.7
3.33
2.04
0.8
-0.42
-1.65
-2.91
-4.16
-5.35
-6.42
-7.33
-8.18
-9.07
-10.18
-11.71
-13.78
-16.44
-19.55
-22.82
-25.75
-27.73
-28.16
-26.67
-23.2
-18.08
-12.0
-5.73
0.04
4.86
8.57
11.27
13.11
14.3
15.0
15.35
15.52
15.67
15.93
16.31
16.7
16.9
16.76
16.24
15.43
14.6
13.98
13.75
13.9
14.32
14.76
15.05
15.03
14.65
13.92
12.95
11.87
10.81
9.85
8.93
7.91
6.57
4.74
2.36
-0.48
-3.56
-6.65
-9.57
-12.32
-14.95
-17.55
-20.2
-22.85
-25.31
-27.23
-28.19
-27.79
-25.8
-22.2
-17.29
-11.58
-5.69
-0.2
4.46
8.02
10.36
11.49
11.5
10.57
8.96
7.04
5.19
3.75
2.98
3.02
3.82
5.26
7.09
9.08
11.03
12.74
14.06
14.84
14.95
14.37
13.13
11.39
9.36
7.3
5.45
3.97
2.98
2.48
2.37
2.48
2.52
2.27
1.57
0.42
-1.08
-2.82
-4.68
-6.64
-8.65
-10.69
-12.74
-14.76
-16.8
-18.9
-21.06
-23.13
-24.76
-25.48
-24.83
-22.57
-18.77
-13.84
-8.42
-3.23
1.11
4.22
6.04
6.74
6.69
6.28
5.83
5.54
5.52
5.79
6.34
7.16
8.19
9.42
10.84
12.42
14.11
15.8
17.3
18.37
18.76
18.25
16.78
14.46
11.53
8.32
5.18
2.4
0.18
-1.32
-2.12
-2.26
-1.96
-1.45
-0.98
-0.75
-0.84
-1.25
-1.89
-2.7
-3.67
-4.83
-6.25
-7.92
-9.83
-11.95
-14.2
-16.5
-18.69
-20.48
-21.55
-21.61
-20.52
-18.36
-15.43
-12.11
-8.72
-5.48
-2.43
0.47
3.3
6.05
8.67
11.04
12.97
14.33
15.02
15.08
14.7
14.18
13.84
13.97
14.69
15.98
17.65
19.44
21.05
22.15
22.49
21.88
20.26
17.74
14.63
11.4
8.49
6.2
4.54
3.3
2.19
0.96
-0.41
-1.79
-2.95
-3.74
-4.15
-4.32
-4.42
-4.7
-5.36
-6.59
-8.54
-11.22
-14.44
-17.73
-20.46
-21.94
-21.74
-19.79
-16.46
-12.39
-8.27
-4.65
-1.72
0.54
2.31
3.79
5.11
6.31
7.43
8.51
9.61
10.73
11.81
