-3.68
-1.21
1.51
4.02
5.97
7.11
7.25
6.22
3.85
0.03
-5.31
-12.13
-20.14
-28.79
-37.32
-44.92
-50.74
-54.1
-54.51
-51.73
-45.86
-37.24
-26.52
-14.56
-2.35
9.09
18.93
26.58
31.77
34.56
35.27
34.33
32.3
29.7
26.99
24.47
22.28
20.42
18.83
17.39
16.01
14.68
13.48
12.46
11.61
10.86
10.09
9.22
8.26
7.28
6.36
5.56
4.86
4.19
3.48
2.72
1.97
1.32
0.81
0.47
0.24
0.03
-0.27
-0.72
-1.36
-2.19
-3.14
-4.1
-4.93
-5.5
-5.7
-5.51
-4.97
-4.15
-3.16
-2.07
-0.94
0.18
1.24
2.17
2.85
3.21
3.19
2.83
2.23
1.49
0.78
0.21
-0.12
-0.16
0.1
0.58
1.18
1.74
2.15
2.33
2.3
2.11
1.87
1.68
1.58
1.55
1.54
1.46
1.24
0.83
0.25
-0.44
-1.17
-1.86
-2.47
-3.0
-3.41
-3.68
-3.72
-3.54
-3.16
-2.76
-2.52
-2.67
-3.25
-4.19
-5.24
-6.06
-6.38
-6.04
-5.08
-3.69
-2.13
-0.67
0.52
1.34
1.79
1.93
1.86
1.67
1.48
1.37
1.38
1.48
1.6
1.65
1.57
1.38
1.13
0.98
1.01
1.27
1.67
2.09
2.38
2.42
2.22
1.85
1.42
0.99
0.58
0.18
-0.16
-0.42
-0.54
-0.51
-0.39
-0.31
-0.38
-0.67
-1.15
-1.72
-2.26
-2.71
-3.05
-3.32
-3.59
-3.88
-4.17
-4.42
-4.59
-4.61
-4.47
-4.14
-3.62
-2.95
-2.14
-1.22
-0.21
0.85
1.92
2.98
3.98
4.84
5.53
5.96
6.11
5.96
5.61
5.16
4.71
4.34
4.08
3.89
3.77
3.72
3.75
3.89
4.11
4.32
4.41
4.25
3.79
3.06
2.16
1.24
0.44
-0.15
-0.53
-0.73
-0.82
-0.8
-0.69
-0.49
-0.22
0.03
0.17
0.11
-0.18
-0.66
-1.24
-1.82
-2.41
-3.04
-3.8
-4.71
-5.68
-6.52
-6.96
-6.83
-6.1
-4.9
-3.47
-2.1
-0.99
-0.21
0.28
0.59
0.87
1.22
1.66
2.17
2.65
2.99
3.07
2.81
2.24
1.47
0.66
-0.03
-0.48
-0.65
-0.54
-0.24
0.14
0.49
0.74
0.84
0.79
0.62
0.39
0.14
-0.08
-0.24
-0.32
-0.27
-0.15
-0.04
-0.03
-0.24
-0.68
-1.27
-1.88
-2.37
-2.7
-2.93
-3.18
-3.56
-4.13
-4.81
-5.46
-5.86
-5.85
-5.35
-4.43
-3.19
-1.8
-0.42
0.81
1.75
2.32
2.52
2.44
2.25
2.19
2.35
2.72
3.12
3.32
3.19
2.74
2.14
1.6
1.26
1.13
1.14
1.23
1.39
1.64
1.99
2.37
2.69
2.82
2.68
2.33
1.89
1.52
1.29
1.23
1.24
1.23
1.08
0.76
0.28
-0.29
-0.83
-1.26
-1.53
-1.67
-1.71
-1.73
-1.81
-2.02
-2.44
-3.09
-3.97
-5.05
-6.24
-7.4
-8.35
-8.84
-8.69
-7.87
-6.41
-4.56
-2.63
-1.04
-0.25
-0.68
-2.63
-6.34
-11.92
-19.2
-27.67
-36.52
-44.73
-51.27
-55.28
-56.21
-53.85
-48.28
-39.9
-29.36
-17.51
-5.36
6.06
15.91
23.66
29.14
32.55
34.26
34.64
34.09
32.96
31.54
30.1
28.88
28.0
27.47
27.19
26.89
26.37
25.53
24.4
23.12
21.83
20.65
19.6
18.61
17.54
16.26
14.6
12.51
10.04
7.38
4.83
2.73
1.32
0.67
0.65
1.05
1.58
1.99
2.15
1.96
1.42
0.57
-0.52
-1.75
-3.02
-4.24
-5.34
-6.21
-6.77
-6.93
-6.68
-6.16
-5.64
-5.41
-5.77
-6.84
-8.57
-10.74
-13.03
-15.07
-16.52
-17.14
-16.87
-15.77
-14.04
-11.95
-9.78
-7.78
-6.19
-5.22
-4.98
-5.49
-6.61
-8.02
-9.38
-10.34
-10.74
-10.57
-10.0
-9.25
-8.47
-7.7
-6.85
-5.76
-4.24
-2.18
0.39
3.32
6.32
9.09
11.38
13.02
14.01
14.45
14.44
14.14
13.64
13.0
12.25
11.41
10.48
9.45
8.28
6.91
5.32
3.53
1.6
-0.33
-2.11
-3.57
-4.58
-5.09
-5.18
-5.04
-4.86
-4.83
-4.99
-5.28
-5.56
-5.69
-5.59
-5.29
-4.88
-4.45
-4.1
-3.84
-3.72
-3.71
-3.84
-4.08
-4.39
-4.67
-4.87
-4.98
-5.04
-5.12
-5.3
-5.59
-5.86
-5.93
-5.6
-4.79
-3.6
-2.25
-1.01
-0.05
0.63
1.11
1.54
2.0
2.55
3.16
3.8
4.46
5.11
5.7
6.14
6.35
6.3
6.08
5.8
5.55
5.32
5.03
4.56
3.82
2.8
1.57
0.29
-0.89
-1.87
-2.66
-3.29
-3.85
-4.37
-4.84
-5.22
-5.42
-5.4
-5.17
-4.72
-4.1
-3.34
-2.5
-1.64
-0.81
-0.06
0.61
1.18
1.73
2.29
2.92
3.63
4.39
5.1
5.7
6.09
6.23
6.14
5.88
5.53
5.15
4.81
4.54
4.41
4.43
4.62
4.93
5.27
5.57
5.81
5.94
5.98
5.91
5.67
5.17
4.4
3.4
2.3
1.27
0.42
-0.24
-0.76
-1.28
-1.93
-2.75
-3.67
-4.58
-5.35
-5.9
-6.23
-6.34
-6.23
-5.86
-5.16
-4.09
-2.74
-1.28
0.09
1.17
1.89
2.28
2.44
2.45
2.36
2.14
1.8
1.33
0.76
0.14
-0.46
-0.97
-1.35
-1.55
-1.59
-1.52
-1.41
-1.33
-1.26
-1.1
-0.72
-0.03
0.98
2.18
3.36
4.32
4.91
5.09
4.97
4.64
4.21
3.73
3.19
2.48
1.55
0.35
-1.05
-2.51
-3.91
-5.13
-6.12
-6.89
-7.49
-7.94
-8.27
-8.46
-8.49
-8.38
-8.12
-7.72
-7.18
-6.5
-5.67
-4.73
-3.72
-2.69
-1.61
-0.47
0.82
2.29
3.96
5.73
7.45
8.92
9.98
10.52
10.54
10.12
9.35
8.29
6.97
5.38
3.52
1.49
-0.5
-2.28
-3.67
-4.64
-5.27
-5.71
-6.12
-6.6
-7.19
-7.83
-8.46
-9.02
-9.44
-9.67
-9.67
-9.4
-8.8
-7.83
-6.48
-4.8
-2.88
-0.88
1.13
3.11
5.07
7.0
8.81
10.37
11.53
12.23
12.45
12.24
11.65
10.68
9.34
7.66
5.77
3.86
2.16
0.78
-0.27
-1.11
-1.92
-2.84
-3.92
-5.07
-6.14
-6.95
-7.42
-7.56
-7.4
-6.99
-6.28
-5.2
-3.72
-1.87
0.19
2.25
4.13
5.73
7.0
7.92
8.46
8.55
8.18
7.4
6.34
5.17
4.06
3.1
2.33
1.76
1.35
1.02
0.62
-0.03
-1.0
-2.27
-3.63
-4.79
-5.52
-5.74
-5.54
-5.15
-4.74
-4.39
-3.98
-3.37
-2.44
-1.17
0.32
1.85
3.24
4.35
5.08
5.37
5.21
4.62
3.73
2.71
1.77
0.99
0.34
-0.26
-0.94
-1.7
-2.48
-3.13
-3.51
-3.59
-3.44
-3.14
-2.8
-2.46
-2.13
-1.84
-1.59
-1.37
-1.12
-0.75
-0.15
0.7
1.74
2.88
3.98
4.95
5.69
6.13
6.17
5.74
4.81
3.47
1.92
0.42
-0.85
-1.78
-2.41
-2.87
-3.29
-3.74
-4.23
-4.71
-5.16
-5.58
-5.99
-6.34
-6.59
-6.59
-6.27
-5.6
-4.61
-3.39
-2.05
-0.69
0.62
1.81
2.83
3.6
4.12
4.42
4.57
4.61
4.56
4.37
4.0
3.45
2.73
1.95
1.17
0.47
-0.14
-0.63
-1.0
-1.22
-1.26
-1.07
-0.69
-0.17
0.39
0.88
1.25
1.49
1.66
1.83
2.04
2.26
2.43
2.49
2.4
2.22
2.04
1.98
2.1
2.38
2.68
2.85
2.74
2.3
1.62
0.83
0.07
-0.57
-1.13
-1.74
-2.54
-3.58
-4.86
-6.28
-7.78
-9.35
-10.97
-12.6
-14.1
-15.24
-15.77
-15.57
-14.64
-13.22
-11.62
-10.12
-8.83
-7.64
-6.34
-4.71
-2.68
-0.37
2.01
4.21
6.12
7.76
9.25
10.7
12.16
13.52
14.66
15.45
15.87
15.97
15.92
15.91
16.13
16.78
17.97
19.73
21.92
24.28
26.45
28.07
28.9
28.89
28.14
26.84
25.23
23.51
21.84
20.28
18.79
17.27
15.57
13.58
11.23
8.6
5.81
2.96
0.05
-3.01
-6.32
-9.9
-13.69
-17.59
-21.47
-25.25
-28.83
-32.08
-34.76
-36.68
-37.68
-37.76
-37.07
-35.79
-34.08
-32.03
-29.69
-27.08
-24.31
-21.51
-18.8
-16.26
-13.87
-11.55
-9.29
-7.12
-5.09
-3.26
-1.6
-0.02
1.57
3.23
4.96
6.65
8.19
9.51
10.57
11.46
12.27
13.07
13.89
14.63
15.18
15.44
15.33
14.9
14.26
13.58
12.93
12.35
11.73
10.94
9.88
8.51
6.88
5.12
3.39
1.8
0.44
-0.65
-1.49
-2.09
-2.47
-2.64
-2.57
-2.28
-1.78
-1.09
-0.24
0.77
1.87
2.92
3.73
4.08
3.78
2.82
1.35
-0.38
-2.0
-3.19
-3.78
-3.7
-3.03
-1.94
-0.7
0.43
1.19
1.46
1.27
0.74
0.1
-0.48
-0.92
-1.25
-1.55
-1.93
-2.43
-3.02
-3.68
-4.38
-5.09
-5.79
-6.45
-7.0
-7.38
-7.57
-7.59
-7.54
-7.48
-7.46
-7.4
-7.2
-6.74
-6.0
-5.06
-4.09
-3.21
-2.5
-1.95
-1.49
-1.09
-0.79
-0.67
-0.86
-1.42
-2.32
-3.43
-4.55
-5.42
-5.88
-5.8
-5.21
-4.22
-3.07
-1.98
-1.12
-0.58
-0.29
-0.14
0.02
0.28
0.63
1.04
1.41
1.71
1.93
2.11
2.27
2.4
2.45
2.36
2.16
1.88
1.61
1.42
1.31
1.24
1.16
1.05
0.91
0.83
0.85
1.0
1.26
1.58
1.89
2.14
2.27
2.22
1.96
1.52
0.98
0.45
0.06
-0.16
-0.26
-0.38
-0.67
-1.17
-1.81
-2.43
-2.8
-2.76
-2.27
-1.42
-0.33
0.79
1.83
2.67
3.29
3.68
3.9
3.98
3.96
3.85
3.64
3.36
3.01
2.65
2.36
2.18
2.1
2.04
1.89
1.55
1.05
0.47
-0.04
-0.36
-0.53
-0.68
-1.0
-1.62
-2.48
-3.4
-4.11
-4.39
-4.22
-3.71
-3.02
-2.27
-1.52
-0.71
0.15
1.02
1.76
2.24
2.41
2.34
2.15
1.96
1.89
1.89
1.89
1.79
1.53
1.16
0.8
0.53
0.42
0.42
0.42
0.29
-0.08
-0.71
-1.55
-2.48
-3.33
-3.89
-4.03
-3.69
-2.94
-2.01
-1.15
-0.61
-0.5
-0.79
-1.26
-1.66
-1.79
-1.54
-1.0
-0.36
0.14
0.31
0.14
-0.28
-0.78
-1.24
-1.62
-1.95
-2.26
-2.52
-2.65
-2.54
-2.2
-1.74
-1.26
-0.89
-0.63
-0.38
-0.05
0.39
0.85
1.19
1.28
1.12
0.83
0.63
0.71
1.15
1.89
2.74
3.44
3.84
3.89
3.7
3.41
3.11
2.81
2.44
1.95
1.37
0.81
0.42
0.24
0.23
0.22
0.08
-0.21
-0.6
-0.97
-1.22
-1.36
-1.49
-1.66
-1.94
-2.31
-2.72
-3.17
-3.64
-4.1
-4.45
-4.6
-4.43
-3.91
-3.07
-2.02
-0.92
0.06
0.82
1.3
1.51
1.46
1.26
0.97
0.67
0.43
0.29
0.26
0.38
0.65
1.05
1.53
2.03
2.45
2.67
2.66
2.38
1.93
1.46
1.12
0.97
0.93
0.85
0.61
0.2
-0.3
-0.69
-0.84
-0.74
-0.54
-0.42
-0.52
-0.86
-1.35
-1.86
-2.27
-2.55
-2.75
-2.95
-3.23
-3.62
-4.09
-4.54
-4.86
-4.96
-4.78
-4.35
-3.67
-2.8
-1.84
-0.92
-0.18
0.25
0.35
0.26
0.14
0.16
0.33
0.57
0.75
0.77
0.66
0.53
0.47
0.53
0.65
0.77
0.89
1.1
1.48
2.05
2.72
3.32
3.71
3.86
3.84
3.8
3.86
4.04
4.27
4.42
4.37
4.07
3.55
2.88
2.11
1.29
0.43
-0.46
-1.37
-2.22
-2.9
-3.3
-3.4
-3.29
-3.12
-3.12
-3.41
-4.03
-4.82
-5.53
-5.9
-5.8
-5.27
-4.46
-3.59
-2.81
-2.15
-1.56
-0.93
-0.26
0.41
0.96
1.32
1.48
1.49
1.43
1.38
1.36
1.38
1.47
1.66
2.02
2.55
3.22
3.96
4.65
5.2
5.57
5.77
5.88
5.94
5.95
5.92
5.78
5.5
5.09
4.54
3.9
3.18
2.4
1.57
0.69
-0.19
-1.02
-1.76
-2.39
-2.94
-3.41
-3.8
-4.07
-4.14
-4.0
-3.62
-3.04
-2.29
-1.46
-0.6
0.22
0.91
1.41
1.68
1.7
1.5
1.17
0.81
0.59
0.66
1.1
1.91
2.94
3.95
4.71
5.09
5.09
4.83
4.47
4.06
3.66
3.22
2.71
2.14
1.59
1.13
0.78
0.54
0.37
0.21
0.02
-0.22
-0.56
-0.98
-1.47
-2.01
-2.51
-2.93
-3.2
-3.37
-3.51
-3.74
-4.11
-4.64
-5.23
-5.72
-5.96
-5.85
-5.39
-4.67
-3.84
-2.98
-2.16
-1.33
-0.45
0.48
1.39
2.14
2.59
2.7
2.53
2.25
2.07
2.1
2.43
3.02
3.79
4.63
5.42
6.1
6.59
6.86
6.89
6.69
6.3
5.78
5.18
4.61
4.1
3.65
3.25
2.89
2.56
2.26
1.96
1.59
1.04
0.28
-0.66
-1.64
-2.47
-3.02
-3.28
-3.35
-3.4
-3.58
-4.0
-4.68
-5.57
-6.57
-7.49
-8.13
-8.3
-7.9
-7.0
-5.81
-4.61
-3.56
-2.73
-1.98
-1.16
-0.18
0.9
1.91
2.67
3.11
3.28
3.34
3.4
3.47
3.5
3.4
3.2
3.0
2.95
3.15
3.6
4.17
4.71
5.1
5.35
5.44
5.43
5.34
5.18
4.96
4.75
4.58
4.44
4.23
3.78
2.98
1.78
0.28
-1.3
-2.66
-3.58
-3.98
-3.94
-3.71
-3.62
-3.89
-4.64
-5.73
-6.86
-7.69
-7.97
-7.64
-6.81
-5.69
-4.5
-3.35
-2.26
-1.17
-0.03
1.14
2.28
3.3
4.15
4.87
5.52
6.11
6.63
6.98
7.05
6.81
6.26
5.51
4.71
3.99
3.44
3.11
2.98
2.99
3.02
2.95
2.69
2.22
1.63
1.06
0.65
0.43
0.39
0.4
0.37
0.26
0.08
-0.12
-0.34
-0.66
-1.21
-2.11
-3.4
-4.99
-6.67
-8.22
-9.45
-10.23
-10.54
-10.42
-9.96
-9.25
-8.38
-7.4
-6.39
-5.39
-4.45
-3.57
-2.73
-1.87
-0.92
0.16
1.33
2.51
3.57
4.41
5.08
5.65
6.23
6.83
7.4
7.83
8.02
7.97
7.72
7.32
6.78
6.01
4.9
3.4
1.62
-0.23
-1.84
-2.98
-3.58
-3.74
-3.66
-3.55
-3.55
-3.66
-3.78
-3.82
-3.72
-3.53
-3.3
-3.09
-2.89
-2.69
-2.45
-2.19
-1.91
-1.58
-1.17
-0.63
0.01
0.62
1.02
1.08
0.74
0.17
-0.46
-1.01
-1.41
-1.74
-2.05
-2.36
-2.54
-2.47
-2.08
-1.49
-0.89
-0.46
-0.25
-0.14
0.06
0.54
1.31
2.26
3.22
4.07
4.81
5.49
6.12
6.65
6.93
6.83
6.3
5.44
4.44
3.44
2.53
1.67
0.79
-0.2
-1.31
-2.45
-3.55
-4.53
-5.41
-6.25
-7.04
-7.78
-8.39
-8.79
-8.86
-8.55
-7.8
-6.59
-5.03
-3.27
-1.56
-0.14
0.88
1.52
2.02
2.63
3.49
4.6
5.73
6.63
7.09
7.09
6.72
6.16
5.55
4.94
4.28
3.55
2.68
1.74
0.82
-0.0
-0.66
-1.18
-1.61
-2.02
-2.42
-2.82
-3.16
-3.38
-3.48
-3.48
-3.42
-3.4
-3.46
-3.67
-3.99
-4.36
-4.74
-5.1
-5.45
-5.78
-6.04
-6.12
-5.84
-5.07
-3.75
-2.0
-0.06
1.8
3.35
4.49
5.22
5.63
5.83
5.85
5.74
5.54
5.34
5.25
5.34
5.63
6.03
6.37
6.49
6.33
5.91
5.37
4.83
4.35
3.88
3.33
2.61
1.67
0.61
-0.39
-1.18
-1.65
-1.84
-1.85
-1.87
-2.07
-2.5
-3.17
-3.95
-4.73
-5.38
-5.89
-6.28
-6.6
-6.88
-7.13
-7.3
-7.39
-7.38
-7.24
-6.96
-6.52
-5.89
-5.11
-4.25
-3.44
-2.81
-2.41
-2.2
-2.06
-1.85
-1.46
-0.86
-0.13
0.64
1.33
1.86
2.26
2.57
2.88
3.26
3.71
4.18
4.6
4.86
4.87
4.58
4.01
3.23
2.38
1.6
1.0
0.64
0.46
0.36
0.23
-0.02
-0.38
-0.83
-1.33
-1.88
-2.44
-3.0
-3.54
-4.01
-4.4
-4.66
-4.78
-4.71
-4.43
-3.87
-3.07
-2.06
-0.94
0.17
1.18
2.04
2.73
3.27
3.67
3.91
4.0
3.98
3.9
3.81
3.79
3.87
4.06
4.35
4.75
5.19
5.63
6.02
6.29
6.43
6.45
6.37
6.17
5.83
5.27
4.47
3.46
2.39
1.44
0.69
0.15
-0.32
-0.86
-1.58
-2.44
-3.31
-4.04
-4.52
-4.77
-4.87
-4.94
-5.06
-5.19
-5.22
-5.03
-4.52
-3.68
-2.67
-1.63
-0.74
-0.1
0.29
0.53
0.77
1.08
1.49
1.89
2.19
2.31
2.23
2.07
1.93
1.96
2.18
2.58
3.02
3.39
3.63
3.71
3.67
3.53
3.32
3.03
2.66
2.22
1.74
1.3
0.95
0.72
0.59
0.49
0.34
0.02
-0.55
-1.38
-2.36
-3.3
-3.99
-4.33
-4.36
-4.23
-4.12
-4.1
-4.18
-4.22
-4.14
-3.85
-3.4
-2.85
-2.28
-1.73
-1.23
-0.78
-0.36
0.05
0.51
1.03
1.61
2.18
2.65
2.91
2.94
2.78
2.55
2.35
2.23
2.2
2.19
2.15
2.05
1.94
1.92
2.07
2.41
2.85
3.18
3.24
2.92
2.24
1.37
0.5
-0.22
-0.77
-1.2
-1.62
-2.07
-2.53
-2.97
-3.31
-3.57
-3.8
-4.08
-4.47
-4.96
-5.45
-5.8
-5.84
-5.48
-4.7
-3.64
-2.47
-1.4
-0.54
0.04
0.41
0.6
0.68
0.69
0.62
0.5
0.36
0.26
0.24
0.33
0.51
0.73
0.95
1.14
1.33
1.54
1.79
2.07
2.37
2.62
2.78
2.82
2.77
2.67
2.54
2.4
2.2
1.96
1.74
1.61
1.63
1.79
1.99
2.09
1.98
1.64
1.18
0.7
0.25
-0.23
-0.86
-1.73
-2.78
-3.78
-4.47
-4.64
-4.28
-3.58
-2.83
-2.28
-2.01
-1.97
-1.99
-1.94
-1.77
-1.52
-1.27
-1.07
-0.92
-0.76
-0.57
-0.33
-0.09
0.15
0.4
0.67
1.0
1.34
1.65
1.86
1.98
2.04
2.09
2.16
2.2
2.14
1.98
1.72
1.41
1.11
0.76
0.35
-0.17
-0.78
-1.38
-1.92
-2.39
-2.86
-3.41
-4.03
-4.61
-4.98
-5.03
-4.79
-4.39
-4.03
-3.83
-3.76
-3.69
-3.49
-3.08
-2.5
-1.83
-1.17
-0.61
-0.21
0.02
0.11
0.12
0.17
0.31
0.56
0.84
1.02
1.02
0.86
0.64
0.49
0.47
0.53
0.57
0.5
0.32
0.15
0.18
0.49
1.04
1.69
2.19
2.42
2.32
2.01
1.64
1.36
1.19
1.07
0.9
0.57
0.08
-0.51
-1.12
-1.66
-2.14
-2.58
-3.0
-3.38
-3.73
-4.0
-4.2
-4.34
-4.45
-4.5
-4.43
-4.19
-3.74
-3.11
-2.39
-1.68
-1.07
-0.63
-0.38
-0.32
-0.4
-0.55
-0.64
-0.55
-0.23
0.27
0.76
1.08
1.13
0.94
0.69
0.56
0.68
1.01
1.44
1.82
2.05
2.13
2.13
2.18
2.36
2.64
2.95
3.13
3.13
2.89
2.54
2.19
1.96
1.84
1.77
1.58
1.17
0.54
-0.2
-0.85
-1.24
-1.3
-1.12
-0.89
-0.77
-0.87
-1.16
-1.5
-1.73
-1.72
-1.45
-0.93
-0.24
0.57
1.43
2.25
2.89
3.25
3.26
2.91
2.34
1.71
1.16
0.78
0.57
0.52
0.57
0.72
0.96
1.27
1.57
1.79
1.84
1.69
1.41
1.1
0.92
0.91
1.02
1.12
1.05
0.78
0.38
0.01
-0.23
-0.32
-0.33
-0.39
-0.55
-0.81
-1.08
-1.34
-1.56
-1.86
-2.29
-2.87
-3.56
-4.21
-4.69
-4.86
-4.65
-4.1
-3.37
-2.62
-2.02
-1.69
-1.6
-1.6
-1.55
-1.33
-0.92
-0.41
0.05
0.35
0.45
0.42
0.4
0.53
0.89
1.48
2.25
3.09
3.92
4.65
5.23
5.6
5.76
5.69
5.42
4.99
4.48
4.0
3.63
3.43
3.38
3.39
3.33
3.07
2.52
1.69
0.66
-0.4
-1.32
-1.98
-2.38
-2.58
-2.72
-2.92
-3.26
-3.74
-4.3
-4.86
-5.37
-5.8
-6.14
-6.4
-6.52
-6.51
-6.32
-5.99
-5.55
-5.06
-4.53
-3.93
-3.22
-2.32
-1.3
-0.25
0.63
1.18
1.38
1.33
1.25
1.3
1.59
2.07
2.6
3.09
3.51
3.91
4.32
4.7
4.94
4.91
4.54
3.95
3.32
2.86
2.66
2.64
2.64
2.47
2.07
1.46
0.82
0.23
-0.25
-0.61
-0.93
-1.2
-1.4
-1.5
-1.49
-1.44
-1.46
-1.62
-1.89
-2.13
-2.17
-1.91
-1.39
-0.75
-0.16
0.27
0.56
0.82
1.12
1.48
1.84
2.11
2.28
2.38
2.53
2.82
3.32
3.97
4.7
5.37
5.87
6.15
6.18
6.03
5.78
5.46
5.03
4.43
3.61
2.61
1.57
0.67
0.04
-0.24
-0.25
-0.13
-0.05
-0.14
-0.4
-0.8
-1.2
-1.49
-1.62
-1.67
-1.8
-2.17
-2.84
-3.74
-4.68
-5.42
-5.79
-5.69
-5.16
-4.3
-3.25
-2.17
-1.2
-0.41
0.14
0.47
0.63
0.66
0.6
0.5
0.39
0.36
0.46
0.67
0.92
1.11
1.17
1.1
1.04
1.08
1.34
1.84
2.49
3.15
3.73
4.17
4.44
4.55
4.42
4.04
3.4
2.56
1.66
0.86
0.27
-0.09
-0.3
-0.5
-0.77
-1.11
-1.46
-1.73
-1.92
-2.08
-2.35
-2.79
-3.42
-4.11
-4.7
-5.06
-5.13
-4.94
-4.57
-4.12
-3.61
-3.05
-2.39
-1.61
-0.78
0.01
0.6
0.91
0.91
0.71
0.5
0.44
0.61
0.98
1.45
1.88
2.19
2.39
2.54
2.71
2.94
3.24
3.57
3.83
3.97
3.93
3.74
3.43
3.04
2.6
2.08
1.49
0.83
0.13
-0.56
-1.19
-1.74
-2.19
-2.57
-2.9
-3.21
-3.58
-4.08
-4.79
-5.71
-6.78
-7.88
-8.91
-9.84
-10.71
-11.55
-12.35
-13.02
-13.42
-13.47
-13.15
-12.57
-11.84
-11.05
-10.23
-9.45
-8.78
-8.33
-8.21
-8.38
-8.68
-8.87
-8.81
-8.51
-8.18
-8.08
-8.41
-9.2
-10.3
-11.46
-12.38
-12.86
-12.75
-12.0
-10.62
-8.68
-6.31
-3.66
-0.92
1.8
4.35
6.66
8.72
10.54
12.15
13.63
15.08
16.53
18.0
19.46
20.87
22.14
23.17
23.88
24.16
23.94
23.19
21.96
20.38
18.71
17.18
15.95
15.1
14.55
14.17
13.82
13.41
12.9
12.31
11.59
10.68
9.55
8.18
6.67
5.18
3.89
2.89
2.12
1.46
0.76
-0.07
-0.97
-1.81
-2.46
-2.83
-2.96
-2.96
-2.94
-2.99
-3.09
-3.2
-3.24
-3.22
-3.17
-3.17
-3.31
-3.59
-3.95
-4.29
-4.54
-4.65
-4.66
-4.66
-4.65
-4.67
-4.64
-4.52
-4.27
-3.94
-3.61
-3.38
-3.34
-3.49
-3.78
-4.09
-4.32
-4.33
-4.03
-3.42
-2.56
-1.61
-0.74
-0.13
0.14
0.06
-0.26
-0.68
-1.08
-1.33
-1.4
-1.28
-0.98
-0.56
-0.1
0.29
0.55
0.67
0.71
0.79
0.99
1.31
1.7
2.04
2.24
2.24
2.07
1.82
1.58
1.42
1.35
1.33
1.33
1.29
1.18
0.97
0.69
0.41
0.2
0.16
0.35
0.76
1.28
1.72
1.9
1.76
1.38
0.94
0.64
0.54
0.53
0.45
0.21
-0.16
-0.43
-0.42
-0.01
0.69
1.45
2.05
2.36
2.43
2.43
2.48
2.64
2.87
3.05
3.1
3.06
3.03
3.11
3.35
3.72
4.11
4.44
4.68
4.86
5.03
5.2
5.32
5.32
5.19
5.01
4.87
4.88
5.03
5.26
5.46
5.52
5.36
4.9
4.07
2.77
1.0
-1.12
-3.33
-5.26
-6.64
-7.36
-7.49
-7.25
-6.87
-6.52
-6.36
-6.44
-6.83
-7.57
-8.59
-9.74
-10.76
-11.4
-11.51
-11.16
-10.55
-9.95
-9.6
-9.53
-9.64
-9.71
-9.54
-9.02
-8.15
-7.02
-5.75
-4.48
-3.27
-2.22
-1.41
-0.93
-0.82
-1.07
-1.52
-1.97
-2.22
-2.13
-1.72
-1.17
-0.67
-0.41
-0.49
-0.84
-1.34
-1.82
-2.13
-2.19
-1.95
-1.44
-0.78
-0.14
0.32
0.5
0.39
0.12
-0.13
-0.23
-0.16
0.01
0.21
0.39
0.57
0.73
0.84
0.83
0.62
0.26
-0.13
-0.41
-0.48
-0.36
-0.18
-0.06
-0.02
-0.03
0.04
0.21
0.41
0.5
0.37
0.01
-0.46
-0.87
-1.05
-0.9
-0.45
0.23
1.01
1.81
2.57
3.3
4.01
4.75
5.49
6.19
6.7
6.91
6.73
6.21
5.54
4.91
4.48
4.24
4.03
3.63
2.93
1.99
1.0
0.24
-0.17
-0.31
-0.43
-0.74
-1.35
-2.19
-3.04
-3.73
-4.17
-4.4
-4.52
-4.57
-4.48
-4.16
-3.59
-2.84
-2.13
-1.67
-1.55
-1.72
-1.98
-2.14
-2.12
-1.92
-1.66
-1.44
-1.29
-1.18
-0.98
-0.66
-0.22
0.27
0.72
1.08
1.33
1.51
1.61
1.59
1.44
1.13
0.72
0.31
0.03
-0.05
0.08
0.33
0.59
0.78
0.82
0.72
0.54
0.32
0.14
-0.0
-0.11
-0.25
-0.45
-0.74
-1.11
-1.56
-2.06
-2.6
-3.16
-3.69
-4.13
-4.38
-4.38
-4.11
-3.62
-3.02
-2.43
-1.98
-1.72
-1.6
-1.53
-1.38
-1.07
-0.58
-0.01
0.53
0.92
1.13
1.2
1.19
1.19
1.25
1.41
1.62
1.86
2.1
2.33
2.59
2.9
3.24
3.53
3.66
3.5
