1.06
0.5
0.01
-0.4
-0.72
-0.94
-1.08
-1.19
-1.29
-1.43
-1.63
-1.95
-2.37
-2.88
-3.39
-3.8
-4.07
-4.16
-4.15
-4.17
-4.37
-4.84
-5.59
-6.44
-7.1
-7.25
-6.66
-5.3
-3.34
-1.09
1.09
2.95
4.32
5.16
5.47
5.31
4.79
4.07
3.37
2.89
2.72
2.84
3.13
3.43
3.61
3.66
3.64
3.64
3.77
4.02
4.38
4.71
4.87
4.74
4.3
3.59
2.75
1.94
1.26
0.76
0.37
0.02
-0.36
-0.75
-1.14
-1.54
-1.99
-2.55
-3.25
-4.04
-4.82
-5.46
-5.95
-6.35
-6.81
-7.41
-8.05
-8.48
-8.38
-7.52
-5.91
-3.81
-1.6
0.36
1.87
2.88
3.55
4.02
4.4
4.65
4.71
4.49
3.98
3.26
2.51
1.91
1.61
1.63
1.89
2.26
2.61
2.88
3.09
3.28
3.49
3.67
3.74
3.64
3.34
2.9
2.4
1.89
1.41
0.94
0.46
-0.03
-0.51
-0.99
-1.48
-2.02
-2.64
-3.31
-3.99
-4.61
-5.14
-5.57
-5.93
-6.29
-6.68
-7.18
-7.79
-8.41
-8.88
-8.95
-8.37
-7.04
-5.07
-2.73
-0.41
1.59
3.11
4.15
4.78
5.07
5.04
4.71
4.13
3.44
2.81
2.34
2.07
1.92
1.85
1.83
1.92
2.19
2.69
3.37
4.08
4.67
5.0
5.07
4.93
4.7
4.45
4.18
3.85
3.35
2.68
1.88
1.06
0.33
-0.26
-0.76
-1.26
-1.85
-2.54
-3.31
-4.09
-4.78
-5.31
-5.63
-5.76
-5.76
-5.71
-5.75
-6.02
-6.56
-7.38
-8.31
-9.11
-9.5
-9.28
-8.33
-6.71
-4.61
-2.31
-0.08
1.89
3.48
4.63
5.35
5.65
5.6
5.29
4.82
4.26
3.69
3.13
2.61
2.24
2.11
2.28
2.73
3.31
3.87
4.26
4.48
4.63
4.8
5.06
5.31
5.43
5.28
4.84
4.18
3.46
2.81
2.27
1.85
1.48
1.11
0.71
0.2
-0.45
-1.28
-2.23
-3.2
-4.02
-4.55
-4.73
-4.63
-4.42
-4.29
-4.39
-4.72
-5.19
-5.58
-5.7
-5.33
-4.4
-2.94
-1.13
0.81
2.64
4.2
5.36
6.09
6.39
6.27
5.75
4.96
4.01
3.11
2.41
2.02
1.94
2.15
2.56
3.12
3.75
4.38
4.95
5.35
5.53
5.42
5.0
4.31
3.41
2.4
1.31
0.24
-0.75
-1.56
-2.11
-2.36
-2.33
-2.13
-1.91
-1.84
-2.0
-2.44
-3.11
-3.9
-4.75
-5.59
-6.37
-7.09
-7.78
-8.44
-9.12
-9.77
-10.31
-10.61
-10.52
-9.85
-8.51
-6.53
-4.04
-1.33
1.28
3.52
5.2
6.35
7.03
7.38
7.44
7.21
6.67
5.83
4.77
3.68
2.8
2.29
2.24
2.6
3.25
4.01
4.71
5.24
5.52
5.56
5.39
5.06
4.57
3.96
3.25
2.48
1.68
0.94
0.32
-0.15
-0.44
-0.6
-0.66
-0.72
-0.87
-1.2
-1.75
-2.48
-3.32
-4.15
-4.88
-5.45
-5.88
-6.22
-6.56
-6.98
-7.58
-8.39
-9.34
-10.23
-10.74
-10.56
-9.41
-7.26
-4.34
-1.11
1.9
4.24
5.68
6.26
6.16
5.68
5.04
4.36
3.68
2.99
2.29
1.65
1.13
0.82
0.74
0.91
1.26
1.75
2.34
3.0
3.71
4.41
5.01
5.4
5.54
5.36
4.9
4.22
3.43
2.65
1.99
1.46
1.0
0.49
-0.19
-1.03
-1.95
-2.75
-3.27
-3.42
-3.29
-3.1
-3.05
-3.25
-3.67
-4.2
-4.7
-5.08
-5.24
-5.08
-4.49
-3.41
-1.82
0.11
2.17
4.12
5.72
6.87
7.47
7.48
6.92
5.9
4.57
3.19
1.99
1.1
0.58
0.4
0.5
0.85
1.38
2.01
2.65
3.22
3.64
3.86
3.85
3.62
3.2
2.66
2.12
1.7
1.43
1.29
1.17
0.9
0.37
-0.43
-1.45
-2.57
-3.7
-4.73
-5.61
-6.31
-6.81
-7.19
-7.52
-7.94
-8.51
-9.16
-9.72
-9.88
-9.34
-7.95
-5.77
-3.08
-0.26
2.3
4.33
5.69
6.36
6.42
6.0
5.27
4.44
3.71
3.21
3.0
2.97
3.0
3.01
2.98
3.0
3.17
3.57
4.11
4.68
5.08
5.21
5.02
4.56
3.92
3.16
2.33
1.5
0.73
0.05
-0.46
-0.84
-1.16
-1.55
-2.1
-2.84
-3.67
-4.41
-4.94
-5.16
-5.15
-5.06
-5.13
-5.49
-6.17
-7.07
-7.93
-8.43
-8.31
-7.43
-5.83
-3.73
-1.41
0.8
2.67
4.07
4.97
5.4
5.42
5.1
4.53
3.79
3.01
2.28
1.73
1.42
1.39
1.64
2.14
2.81
3.56
4.3
4.98
5.56
5.93
6.0
5.67
4.91
3.84
2.67
1.65
0.95
0.58
0.36
0.07
-0.5
-1.35
-2.31
-3.17
-3.77
-4.07
-4.16
-4.19
-4.24
-4.4
-4.73
-5.27
-6.03
-6.9
-7.62
-7.82
-7.22
-5.74
-3.59
-1.16
1.1
2.88
4.05
4.66
4.85
4.8
4.62
4.43
4.3
4.28
4.36
4.49
4.61
4.72
4.8
4.83
4.82
4.71
4.51
4.22
3.89
3.56
3.25
2.96
2.62
2.21
1.68
1.06
0.4
-0.24
-0.83
-1.36
-1.86
-2.38
-2.94
-3.52
-4.08
-4.54
-4.92
-5.29
-5.74
-6.33
-7.02
-7.65
-7.99
-7.86
-7.13
-5.82
-4.05
-2.03
0.04
1.94
3.51
4.63
5.23
5.31
4.96
4.33
3.63
3.01
2.54
2.21
1.92
1.55
1.07
0.53
0.08
-0.12
-0.0
0.4
0.94
1.45
1.79
1.94
1.94
1.88
1.81
1.75
1.67
1.52
1.31
1.04
0.75
0.48
0.27
0.15
0.13
0.18
0.22
0.17
-0.08
-0.58
-1.33
-2.24
-3.1
-3.7
-3.82
-3.33
-2.2
-0.6
1.26
3.06
4.52
5.46
5.83
5.7
5.25
4.68
4.14
3.65
3.18
2.63
1.98
1.3
0.71
0.36
0.3
0.51
0.88
1.27
1.54
1.62
1.51
1.24
0.89
0.49
0.05
-0.45
-1.05
-1.77
-2.58
-3.43
-4.23
-4.95
-5.55
-6.06
-6.49
-6.85
-7.14
-7.33
-7.46
-7.59
-7.78
-8.01
-8.2
-8.16
-7.69
-6.65
-5.0
-2.93
-0.75
1.2
2.65
3.46
3.7
3.58
3.32
3.15
3.17
3.34
3.52
3.61
3.56
3.4
3.21
3.04
2.9
2.73
2.47
2.15
1.87
1.73
1.81
2.03
2.22
2.21
1.83
1.09
0.16
-0.68
-1.19
-1.26
-0.99
-0.65
-0.56
-0.94
-1.8
-2.9
-3.93
-4.6
-4.82
-4.74
-4.62
-4.71
-5.12
-5.75
-6.35
-6.64
-6.41
-5.6
-4.3
-2.64
-0.77
1.2
3.19
5.08
6.67
7.79
8.25
8.04
7.28
6.21
5.09
4.15
3.48
3.05
2.75
2.47
2.13
1.73
1.27
0.72
0.06
-0.79
-1.81
-2.85
-3.62
-3.84
-3.34
-2.17
-0.62
0.95
2.29
3.38
4.43
5.68
7.24
8.96
10.5
11.51
11.78
11.36
10.52
9.59
8.8
8.2
7.67
6.98
5.99
4.75
3.52
2.69
2.6
3.39
4.94
6.89
8.76
10.1
10.6
10.13
8.79
6.78
4.39
1.88
-0.5
-2.6
-4.36
-5.77
-6.85
-7.53
-7.65
-6.99
-5.35
-2.64
1.01
5.33
9.91
14.3
18.15
21.14
23.06
23.8
23.32
21.69
19.07
15.76
12.06
8.29
4.65
1.31
-1.56
-3.8
-5.2
-5.61
-5.07
-3.84
-2.31
-0.87
0.29
1.29
2.48
4.17
6.44
9.02
11.35
12.84
13.05
11.76
8.99
4.79
-0.68
-7.18
-14.35
-21.75
-28.94
-35.66
-41.84
-47.6
-53.07
-58.32
-63.39
-68.27
-72.98
-77.4
-81.17
-83.6
-83.84
-81.16
-75.2
-66.07
-54.26
-40.29
-24.57
-7.37
11.02
30.06
48.87
66.33
81.31
92.84
100.15
102.75
100.4
93.22
81.73
66.95
50.3
33.35
17.56
4.03
-6.64
-14.35
-19.4
-22.32
-23.66
-23.87
-23.35
-22.34
-21.15
-20.1
-19.55
-19.72
-20.65
-22.19
-24.13
-26.33
-28.81
-31.66
-34.89
-38.24
-41.2
-43.16
-43.56
-42.12
-38.86
-34.07
-28.21
-21.8
-15.37
-9.41
-4.37
-0.58
1.81
2.84
2.74
1.86
0.62
-0.68
-1.93
-3.24
-4.85
-6.93
-9.41
-11.87
-13.66
-14.14
-12.98
-10.24
-6.4
-2.02
2.42
6.67
10.69
14.45
17.85
20.6
22.37
22.89
22.13
20.29
17.74
14.89
12.13
9.63
7.47
5.58
3.92
2.54
1.61
1.39
2.07
3.66
5.92
8.38
10.51
11.86
12.19
11.54
10.15
8.37
6.54
4.83
3.34
2.05
0.93
-0.03
-0.76
-1.21
-1.29
-0.95
-0.15
1.11
2.71
4.49
6.19
7.53
8.31
8.46
8.0
7.08
5.9
4.66
3.57
2.79
2.45
2.55
3.04
3.76
4.49
5.01
5.17
4.93
4.34
3.61
2.91
2.39
2.05
1.8
1.5
1.04
0.43
-0.26
-0.92
-1.49
-1.97
-2.42
-2.91
-3.58
-4.51
-5.72
-7.11
-8.45
-9.37
-9.55
-8.79
-7.11
-4.75
-2.09
0.5
2.8
4.73
6.29
7.51
8.35
8.74
8.63
8.05
7.17
6.27
5.62
5.35
5.42
5.63
5.78
5.74
5.53
5.3
5.18
5.21
5.34
5.38
5.19
4.65
3.77
2.62
1.33
0.03
-1.15
-2.11
-2.82
-3.31
-3.66
-3.96
-4.32
-4.78
-5.31
-5.81
-6.07
-5.9
-5.09
-3.63
-1.65
0.51
2.49
3.96
4.79
5.07
4.95
4.64
4.22
3.72
3.12
2.5
1.93
1.56
1.45
1.57
1.83
2.1
2.29
2.4
2.46
2.51
2.58
2.68
2.72
2.63
2.28
1.65
0.77
-0.19
-1.09
-1.76
-2.18
-2.5
-2.91
-3.53
-4.36
-5.15
-5.54
-5.24
-4.1
-2.25
0.01
2.31
4.32
5.88
6.94
7.56
7.79
7.72
7.45
7.06
6.66
6.3
5.93
5.5
4.97
4.35
3.78
3.42
3.35
3.57
3.96
4.39
4.74
4.96
5.06
5.02
4.82
4.37
3.65
2.7
1.66
0.7
-0.08
-0.67
-1.14
-1.61
-2.13
-2.7
-3.28
-3.8
-4.21
-4.44
-4.4
-3.91
-2.87
-1.27
0.71
2.76
4.51
5.72
6.3
6.41
6.31
6.2
6.17
6.15
6.02
5.69
5.18
4.57
3.96
3.44
2.99
2.59
2.17
1.72
1.23
0.73
0.19
-0.4
-1.05
-1.79
-2.63
-3.54
-4.51
-5.49
-6.45
-7.29
-7.94
-8.34
-8.48
-8.43
-8.27
-8.13
-8.1
-8.19
-8.35
-8.43
-8.24
-7.61
-6.44
-4.7
-2.47
0.1
2.8
5.41
7.68
9.41
10.48
10.82
10.55
9.81
8.84
7.86
6.92
6.04
5.16
4.24
3.33
2.52
1.88
1.43
1.06
0.65
0.09
-0.62
-1.36
-1.94
-2.25
-2.26
-2.1
-1.97
-2.01
-2.29
-2.75
-3.26
-3.73
-4.07
-4.31
-4.52
-4.75
-5.01
-5.18
-5.1
-4.55
-3.42
-1.68
0.49
2.77
4.84
6.45
7.49
7.99
8.02
7.67
6.96
5.91
4.56
3.06
1.6
0.38
-0.48
-0.97
-1.18
-1.22
-1.16
-1.02
-0.85
-0.69
-0.63
-0.72
-0.96
-1.28
-1.58
-1.79
-1.86
-1.9
-2.01
-2.28
-2.72
-3.26
-3.8
-4.2
-4.4
-4.36
-4.18
-3.97
-3.86
-3.92
-4.12
-4.36
-4.49
-4.44
-4.15
-3.63
-2.87
-1.89
-0.74
0.49
1.63
2.51
2.98
3.0
2.65
2.04
1.32
0.6
-0.03
-0.49
-0.68
-0.51
0.03
0.83
1.73
2.52
3.06
3.36
3.42
3.31
3.04
2.59
1.93
1.13
0.3
-0.4
-0.91
-1.29
-1.69
-2.28
-3.12
-4.13
-5.15
-5.98
-6.51
-6.78
-6.91
-7.05
-7.25
-7.41
-7.34
-6.88
-5.91
-4.5
-2.85
-1.19
0.27
1.45
2.36
3.09
3.69
4.13
4.29
4.03
3.35
2.36
1.3
0.43
-0.05
-0.07
0.28
0.82
1.37
1.78
1.99
1.99
1.81
1.53
1.19
0.87
0.59
0.36
0.19
0.01
-0.21
-0.53
-0.92
-1.32
-1.61
-1.72
-1.62
-1.41
-1.22
-1.18
-1.34
-1.68
-2.11
-2.51
-2.83
-2.96
-2.81
-2.25
-1.18
0.35
2.13
3.84
5.19
6.01
6.27
6.11
5.65
4.98
4.12
3.12
2.1
1.25
0.72
0.57
0.74
1.04
1.3
1.43
1.45
1.4
1.3
1.08
0.68
0.12
-0.51
-1.02
-1.24
-1.2
-1.03
-0.97
-1.2
-1.73
-2.42
-3.09
-3.61
-3.92
-4.14
-4.37
-4.65
-4.98
-5.26
-5.39
-5.27
-4.83
-4.03
-2.87
-1.48
-0.0
1.35
2.42
3.11
3.46
3.55
3.51
3.41
3.28
3.09
2.84
2.55
2.26
2.02
1.85
1.79
1.81
1.89
2.01
2.13
2.29
2.49
2.71
2.92
3.01
2.9
2.51
1.83
0.94
-0.02
-0.85
-1.42
-1.67
-1.68
-1.58
-1.59
-1.81
-2.23
-2.72
-3.11
-3.29
-3.3
-3.27
-3.37
-3.73
-4.32
-5.08
-5.89
-6.67
-7.32
-7.74
-7.69
-6.99
-5.52
-3.38
-0.87
1.6
3.65
5.04
5.72
5.83
5.54
5.04
4.41
3.67
2.82
1.88
0.94
0.12
-0.42
-0.56
-0.28
0.34
1.13
1.93
2.63
3.2
3.6
3.8
3.77
3.48
2.97
2.32
1.65
1.09
0.71
0.48
0.25
-0.12
-0.73
-1.58
-2.55
-3.48
-4.21
-4.69
-5.0
-5.27
-5.6
-6.06
-6.64
-7.24
-7.77
-8.11
-8.13
-7.75
-6.96
-5.78
-4.34
-2.8
-1.35
-0.12
0.8
1.44
1.85
2.13
2.37
2.58
2.75
2.86
2.88
2.82
2.79
2.88
3.17
3.61
4.08
4.41
4.52
4.44
4.27
4.18
4.17
4.19
4.09
3.78
3.26
2.62
2.04
1.61
1.36
1.2
1.01
0.72
0.33
-0.15
-0.66
-1.13
-1.52
-1.79
-1.95
-2.07
-2.23
-2.51
-2.93
-3.4
-3.73
-3.68
-3.1
-1.98
-0.48
1.16
2.68
3.9
4.74
5.23
5.37
5.17
4.66
3.92
3.09
2.32
1.75
1.44
1.37
1.46
1.59
1.68
1.66
1.56
1.42
1.3
1.22
1.2
1.24
1.29
1.35
1.38
1.36
1.27
1.06
0.73
0.27
-0.27
-0.86
-1.45
-2.0
-2.47
-2.84
-3.14
-3.45
-3.85
-4.42
-5.13
-5.88
-6.58
-7.15
-7.54
-7.73
-7.64
-7.13
-6.08
-4.47
-2.45
-0.36
1.44
2.7
3.39
3.66
3.8
4.01
4.35
4.76
5.11
5.31
5.37
5.34
5.29
5.25
5.22
5.15
5.03
4.88
4.71
4.57
4.44
4.26
3.99
3.54
2.92
2.14
1.29
0.45
-0.3
-0.93
-1.46
-1.93
-2.41
-2.92
-3.42
-3.85
-4.18
-4.45
-4.71
-5.05
-5.5
-6.05
-6.64
-7.25
-7.83
-8.37
-8.83
-9.08
-8.97
-8.34
-7.2
-5.69
-4.05
-2.57
-1.41
-0.62
-0.12
0.2
0.44
0.57
0.58
0.44
0.14
-0.25
-0.63
-0.97
-1.21
-1.35
-1.37
-1.25
-0.99
-0.57
-0.07
0.42
0.79
0.92
0.75
0.28
-0.42
-1.2
-1.9
-2.34
-2.46
-2.23
-1.75
-1.18
-0.69
-0.43
-0.47
-0.81
-1.39
-2.12
-2.86
-3.52
-4.01
-4.28
-4.33
-4.22
-4.02
-3.73
-3.37
-2.86
-2.2
-1.44
-0.67
0.05
0.72
1.46
2.47
3.83
5.51
7.21
8.59
9.32
9.27
8.56
7.51
6.44
5.64
5.24
5.22
5.54
6.1
6.8
7.5
8.0
8.13
7.81
7.09
6.13
5.16
4.34
3.71
3.18
2.66
2.09
1.51
1.07
0.89
0.95
1.14
1.23
1.08
0.64
0.01
-0.7
-1.43
-2.25
-3.29
-4.62
-6.09
-7.4
-8.16
-8.1
-7.18
-5.64
-3.84
-2.12
-0.68
0.47
1.39
2.15
2.73
3.14
3.36
3.41
3.36
3.28
3.2
3.15
3.12
3.12
3.19
3.37
3.7
4.18
4.76
5.4
6.01
6.5
6.81
6.88
6.69
6.2
5.35
4.09
2.41
0.38
-1.82
-4.01
-6.03
-7.78
-9.26
-10.53
-11.65
-12.66
-13.55
-14.3
-14.89
-15.3
-15.53
-15.6
-15.49
-15.22
-14.71
-13.83
-12.43
-10.45
-7.98
-5.29
-2.71
-0.53
1.12
2.31
3.22
4.03
4.78
5.46
5.97
6.3
6.52
6.74
7.09
7.59
8.24
8.96
9.68
10.3
10.74
10.9
10.72
10.16
9.28
8.19
7.05
5.96
5.0
4.2
3.5
2.82
1.96
0.8
-0.79
-2.81
-5.11
-7.45
-9.52
-11.13
-12.18
-12.74
-12.9
-12.86
-12.7
-12.53
-12.38
-12.25
-12.14
-12.0
-11.76
-11.26
-10.39
-8.99
-7.01
-4.55
-1.79
1.0
3.59
5.74
7.4
8.56
9.28
9.69
9.88
9.97
10.01
10.02
9.97
9.83
9.6
9.31
9.04
8.84
8.72
8.67
8.61
8.5
8.29
8.02
7.7
7.39
7.08
6.78
6.48
6.15
5.73
5.21
4.52
3.65
2.57
1.26
-0.21
-1.75
-3.23
-4.5
-5.46
-6.13
-6.6
-7.0
-7.41
-7.79
-7.98
-7.79
-7.04
-5.72
-3.96
-2.06
-0.33
1.0
1.88
2.4
2.72
2.99
3.28
3.55
3.72
3.76
3.72
3.69
3.7
3.76
3.79
3.74
3.55
3.23
2.82
2.33
1.76
1.07
0.24
-0.74
-1.8
-2.85
-3.75
-4.4
-4.79
-4.98
-5.09
-5.23
-5.42
-5.56
-5.53
-5.21
-4.6
-3.78
-2.89
-2.08
-1.47
-1.09
-0.92
-0.89
-0.84
-0.62
-0.1
0.76
1.87
3.05
4.06
4.71
4.87
4.54
3.77
2.69
1.48
0.36
-0.49
-0.92
-0.87
-0.43
0.27
1.05
1.77
2.32
2.66
2.82
2.87
2.89
2.93
2.97
2.98
2.85
2.53
2.05
1.52
1.1
0.91
0.96
1.16
1.35
1.39
1.23
0.88
0.39
-0.19
-0.86
-1.63
-2.47
-3.33
-4.13
-4.83
-5.44
-6.0
-6.57
-7.11
-7.5
-7.54
-7.06
-6.0
-4.46
-2.67
-0.94
0.51
1.54
2.21
2.67
3.09
3.56
4.06
4.5
4.83
5.03
5.15
5.24
5.32
5.32
5.16
4.78
4.24
3.64
3.12
2.75
2.53
2.36
2.11
1.7
1.1
0.38
-0.34
-0.94
-1.35
-1.54
-1.6
-1.62
-1.67
-1.77
-1.93
-2.17
-2.53
-3.08
-3.86
-4.82
-5.81
-6.62
-7.12
-7.24
-7.07
-6.74
-6.31
-5.8
-5.15
-4.25
-3.13
-1.87
-0.7
0.15
0.53
0.44
0.02
-0.51
-0.93
-1.16
-1.18
-1.04
-0.79
-0.47
-0.07
0.38
0.87
1.32
1.71
2.08
2.51
3.06
3.78
4.65
5.63
6.68
7.73
8.68
9.37
9.74
9.74
9.42
8.91
8.32
7.74
7.17
6.51
5.67
4.59
3.26
1.72
0.01
-1.78
-3.57
-5.26
-6.77
-8.07
-9.16
-10.06
-10.75
-11.14
-11.12
-10.56
-9.38
-7.62
-5.45
-3.11
-0.84
1.15
2.76
4.0
4.92
5.64
6.22
6.71
7.15
7.5
7.75
7.85
7.76
7.47
7.01
6.37
5.52
4.48
3.25
1.9
0.55
-0.67
-1.7
-2.55
-3.29
-3.95
-4.54
-4.92
-4.96
-4.6
-3.93
-3.16
-2.56
-2.29
-2.38
-2.68
-3.05
-3.3
-3.38
-3.28
-3.03
-2.7
-2.38
-2.13
-2.07
-2.22
-2.52
-2.83
-2.95
-2.77
-2.33
-1.79
-1.31
-0.99
-0.81
-0.68
-0.57
-0.51
-0.61
-0.95
-1.46
-1.96
-2.17
-1.9
-1.1
0.11
1.49
2.82
3.93
4.75
5.3
5.67
5.91
6.13
6.3
6.39
6.32
6.07
5.64
5.05
4.32
3.42
2.35
1.16
-0.06
-1.17
-2.05
-2.71
-3.27
-3.95
-4.86
-5.97
-7.09
-7.96
-8.41
-8.4
-8.09
-7.74
-7.53
-7.54
-7.67
-7.72
-7.49
-6.86
-5.82
-4.51
-3.1
-1.84
-0.89
-0.35
-0.22
-0.42
-0.8
-1.25
-1.67
-2.02
-2.25
-2.37
-2.31
-2.07
-1.65
-1.1
-0.48
0.16
0.84
1.6
2.5
3.51
4.53
5.44
6.13
6.54
6.71
6.75
6.76
6.81
6.89
6.91
6.76
6.35
5.68
4.82
3.9
2.99
2.14
1.32
0.48
-0.41
-1.34
-2.29
-3.28
-4.34
-5.54
-6.81
-8.0
-8.83
-9.0
-8.31
-6.8
-4.7
-2.39
-0.24
1.5
2.75
3.59
4.15
4.56
4.9
5.21
5.44
5.61
5.78
6.07
6.57
7.32
8.18
8.95
9.4
9.4
8.98
8.24
7.34
6.36
5.31
4.15
2.86
1.47
0.01
-1.47
-3.01
-4.66
-6.44
-8.28
-10.03
-11.5
-12.53
-13.07
-13.11
-12.74
-12.03
-11.07
-9.92
-8.69
-7.45
-6.23
-4.98
-3.56
-1.86
0.2
2.55
4.97
7.2
9.01
10.24
10.85
10.88
10.37
9.4
8.02
6.36
4.58
2.88
1.46
0.38
-0.37
-0.93
-1.4
-1.82
-2.08
-2.06
-1.72
-1.14
-0.51
-0.06
0.12
0.1
0.07
0.22
0.62
1.18
1.76
2.2
2.48
2.58
2.53
2.32
1.93
1.36
0.68
0.02
-0.57
-1.13
-1.81
-2.74
-3.97
-5.41
-6.86
-8.05
-8.8
-9.02
-8.72
-7.95
-6.79
-5.34
-3.79
-2.34
-1.18
-0.44
-0.12
-0.11
-0.24
-0.39
-0.5
-0.61
-0.77
-0.97
-1.17
-1.24
-1.07
-0.58
0.2
1.15
2.16
3.1
3.92
4.64
5.23
5.68
5.91
5.85
5.49
4.87
4.08
3.25
2.47
1.74
1.03
0.27
-0.58
-1.51
-2.42
-3.21
-3.79
-4.12
-4.25
-4.26
-4.29
-4.41
-4.64
-4.91
-5.11
-5.1
-4.74
-3.91
-2.55
-0.71
1.45
3.7
5.81
7.56
8.81
9.52
9.7
9.42
8.77
7.86
6.8
5.68
4.58
3.52
2.5
1.51
0.53
-0.42
-1.29
-2.01
-2.49
-2.71
-2.67
-2.42
-2.02
-1.54
-1.05
-0.57
-0.11
0.36
0.87
1.44
2.06
2.66
3.17
3.5
3.63
3.59
3.43
3.17
2.81
2.29
1.54
0.6
-0.5
-1.61
-2.57
-3.21
-3.45
-3.3
-2.87
-2.34
-1.93
-1.8
-2.06
-2.69
-3.58
-4.53
-5.32
-5.73
-5.64
-5.02
-3.98
-2.66
-1.23
0.22
1.65
3.06
4.45
5.74
6.86
7.69
8.17
8.28
8.03
7.47
6.68
5.79
4.89
4.06
3.35
2.67
1.93
1.02
-0.12
-1.42
-2.79
-4.16
-5.44
-6.64
-7.76
-8.81
-9.78
-10.64
-11.38
-12.0
-12.44
-12.54
-12.12
-11.01
-9.14
-6.65
-3.84
-1.03
1.45
3.47
5.05
6.3
7.32
8.17
8.82
9.22
9.37
9.27
9.01
8.64
8.18
7.62
6.93
6.12
5.22
4.31
3.47
2.73
2.12
1.57
1.01
0.38
-0.41
-1.36
-2.41
-3.48
-4.41
-5.09
-5.44
-5.49
-5.31
-4.99
-4.61
-4.16
-3.66
-3.08
-2.49
-2.02
-1.78
-1.85
-2.25
-2.91
-3.77
-4.77
-5.81
-6.78
-7.5
-7.76
-7.42
-6.49
-5.14
-3.64
-2.24
-1.09
-0.24
0.33
0.71
0.96
1.18
1.43
1.76
2.19
2.65
3.05
3.37
3.66
4.03
4.57
5.31
6.17
7.04
7.8
8.39
8.72
8.71
8.23
7.21
5.68
3.84
1.96
0.32
-0.94
-1.87
-2.63
-3.36
-4.14
-4.89
-5.51
-5.89
-6.0
-5.9
-5.66
-5.33
-4.95
-4.53
-4.06
-3.48
-2.71
-1.6
-0.05
1.96
4.26
6.55
8.42
9.57
9.86
9.37
8.35
7.04
5.65
4.24
2.83
1.46
0.19
-0.85
-1.58
-1.99
-2.16
-2.23
-2.29
-2.37
-2.38
-2.25
-1.95
-1.52
-1.09
-0.72
-0.46
-0.22
0.12
0.63
1.29
2.03
2.68
3.12
3.3
3.25
3.04
2.72
2.32
1.77
1.0
-0.05
-1.38
-2.87
-4.44
-5.98
-7.43
-8.7
-9.75
-10.47
-10.74
-10.54
-9.95
-9.15
-8.34
-7.59
-6.87
-6.0
-4.83
-3.28
-1.42
0.57
2.51
4.26
5.8
7.13
8.26
9.17
9.84
10.25
10.41
10.39
10.25
10.02
9.67
9.15
8.42
7.42
6.17
4.68
3.0
1.23
-0.48
-1.96
-3.08
-3.83
-4.34
-4.81
-5.41
-6.22
-7.15
-8.05
-8.73
-9.09
-9.11
-8.87
-8.44
-7.9
-7.31
-6.66
-5.96
-5.09
-3.98
-2.52
-0.73
1.25
3.18
4.8
5.89
6.38
6.33
5.88
5.13
4.16
2.95
1.56
0.06
-1.37
-2.56
-3.35
-3.7
-3.68
-3.38
-2.93
-2.4
-1.86
-1.38
-0.95
-0.58
-0.17
0.31
0.93
1.64
