54.0
50.69
46.43
42.14
38.28
34.9
31.7
28.29
24.51
20.48
16.63
13.49
11.47
10.64
10.69
10.96
10.68
9.19
6.17
1.75
-3.6
-9.26
-14.71
-19.64
-24.09
-28.34
-32.86
-38.23
-45.01
-53.48
-63.42
-73.8
-82.83
-88.3
-88.23
-81.56
-68.62
-51.08
-31.3
-11.68
6.11
21.25
33.67
43.6
51.11
56.07
58.27
57.76
55.02
51.0
46.73
43.02
40.14
37.81
35.49
32.71
29.52
26.42
24.19
23.32
23.71
24.53
24.56
22.72
18.58
12.55
5.68
-0.82
-6.15
-10.23
-13.63
-17.37
-22.41
-29.42
-38.46
-48.96
-59.64
-68.67
-74.02
-73.98
-67.73
-55.73
-39.62
-21.75
-4.38
10.91
23.55
33.66
41.64
47.62
51.32
52.34
50.49
46.24
40.64
34.99
30.36
27.17
25.11
23.48
21.68
19.56
17.51
16.08
15.6
15.81
15.92
14.97
12.32
7.91
2.28
-3.73
-9.38
-14.33
-18.81
-23.5
-29.24
-36.72
-46.07
-56.56
-66.54
-73.75
-76.01
-71.9
-61.34
-45.68
-27.2
-8.47
8.47
22.41
33.11
40.87
46.24
49.58
51.11
50.86
48.88
45.42
40.94
36.09
31.49
27.61
24.59
22.33
20.6
19.2
18.01
16.94
15.9
14.65
12.89
10.25
6.52
1.69
-4.04
-10.25
-16.46
-22.23
-27.41
-32.25
-37.41
-43.8
-52.14
-62.44
-73.68
-83.81
-90.29
-90.85
-84.35
-71.16
-53.08
-32.64
-12.38
5.83
21.01
32.9
41.67
47.59
50.99
52.22
51.73
50.08
47.75
45.01
41.95
38.5
34.66
30.61
26.72
23.46
21.23
20.14
19.97
20.19
20.11
19.16
16.97
13.54
9.06
3.94
-1.47
-6.9
-12.25
-17.59
-23.09
-29.04
-35.82
-43.81
-53.12
-63.41
-73.59
-81.9
-86.25
-84.94
-77.23
-63.67
-45.96
-26.36
-7.06
10.37
25.06
36.7
45.22
50.68
53.26
53.43
51.87
49.38
46.62
43.89
41.12
38.02
34.34
30.15
25.9
22.27
19.85
18.87
18.97
19.32
18.98
17.24
13.92
9.37
4.26
-0.77
-5.39
-9.68
-13.93
-18.59
-24.02
-30.54
-38.34
-47.41
-57.37
-67.16
-75.16
-79.42
-78.28
-70.99
-57.99
-40.92
-22.02
-3.58
12.69
25.86
35.72
42.48
46.51
48.21
47.97
46.31
43.75
40.79
37.76
34.75
31.62
28.2
24.56
21.02
18.14
16.41
15.94
16.34
16.75
16.17
13.91
9.83
4.43
-1.44
-6.92
-11.56
-15.47
-19.29
-23.86
-29.98
-38.02
-47.69
-58.02
-67.35
-73.79
-75.53
-71.41
-61.31
-46.21
-28.01
-9.03
8.66
23.62
35.24
43.61
49.19
52.46
53.75
53.17
50.84
47.01
42.2
37.08
32.29
28.25
24.96
22.23
19.76
17.44
15.32
13.59
12.27
11.14
9.68
7.25
3.42
-1.87
-8.18
-14.75
-20.88
-26.23
-31.11
-36.37
-43.06
-51.83
-62.35
-73.14
-81.73
-85.53
-82.64
-72.65
-56.74
-37.22
-16.8
2.31
18.73
31.99
42.19
49.67
54.71
57.53
58.33
57.32
54.87
51.32
47.06
42.45
37.8
33.35
29.29
25.72
22.73
20.36
18.6
17.37
16.42
15.33
13.66
10.95
6.95
1.68
-4.56
-11.21
-17.7
-23.59
-28.82
-33.76
-39.25
-46.17
-55.05
-65.58
-76.31
-84.92
-88.8
-85.99
-75.91
-59.64
-39.53
-18.38
1.38
18.32
31.99
42.56
50.38
55.68
58.55
59.16
57.88
55.28
52.02
48.59
45.19
41.81
38.39
34.94
31.61
28.68
26.4
24.89
24.1
23.71
23.28
22.29
20.29
16.99
12.37
6.63
0.21
-6.41
-12.84
-18.79
-24.22
-29.31
-34.48
-40.36
-47.6
-56.6
-67.04
-77.65
-86.25
-90.28
-87.65
-77.49
-60.67
-39.49
-16.98
4.02
21.6
35.06
44.67
51.2
55.42
57.84
58.7
58.09
56.12
52.97
48.88
44.15
39.1
34.15
29.73
26.19
23.77
22.47
22.0
21.95
21.85
21.31
20.03
17.81
14.5
10.05
4.58
-1.59
-7.92
-13.91
-19.27
-24.1
-28.97
-34.73
-42.17
-51.63
-62.62
-73.76
-82.94
-87.84
-86.69
-78.73
-64.59
-46.08
-25.61
-5.59
12.19
26.78
37.95
45.93
51.09
53.77
54.24
52.81
49.9
45.92
41.34
36.52
31.75
27.21
23.1
19.63
17.03
15.4
14.68
14.56
14.46
13.77
11.99
8.96
4.87
0.19
-4.55
-9.02
-13.18
-17.25
-21.64
-26.77
-33.0
-40.51
-49.16
-58.34
-66.76
-72.63
-74.08
-69.84
-59.72
-44.77
-26.99
-8.67
8.3
22.77
34.27
42.74
48.17
50.61
50.24
47.54
43.31
38.48
33.77
29.45
25.38
21.25
16.92
12.67
9.09
6.8
6.07
6.48
7.09
6.71
4.51
0.31
-5.32
-11.35
-16.8
-21.18
-24.7
-28.12
-32.51
-38.75
-47.17
-57.26
-67.59
-76.01
-80.25
-78.51
-70.16
-55.95
-37.83
-18.26
0.48
16.89
30.29
40.63
48.07
52.76
54.84
54.54
52.31
48.75
44.52
40.05
35.62
31.22
26.86
22.66
18.84
15.72
13.51
12.24
11.61
11.1
10.05
7.88
4.28
-0.73
-6.73
-13.15
-19.4
-25.15
-30.5
-35.99
-42.51
-50.77
-60.91
-72.02
-82.17
-88.76
-89.39
-82.7
-68.92
-49.84
-28.2
-6.85
12.09
27.49
39.12
47.32
52.55
55.28
55.93
54.97
52.85
49.96
46.51
42.51
37.92
32.79
27.49
22.57
18.72
16.37
15.57
15.85
16.33
16.07
14.31
10.83
5.86
0.06
-5.87
-11.46
-16.66
-21.75
-27.24
-33.65
-41.37
-50.53
-60.79
-71.22
-80.27
-85.97
-86.45
-80.54
-68.23
-50.77
-30.31
-9.25
10.3
26.93
39.86
48.86
54.11
56.12
55.67
53.72
51.17
48.56
45.99
43.15
39.67
35.35
30.42
25.54
21.55
19.08
18.28
18.63
19.11
18.55
16.1
11.56
5.51
-0.95
-6.73
-11.2
-14.54
-17.6
-21.6
-27.62
-36.21
-47.1
-59.17
-70.61
-79.24
-82.99
-80.44
-71.26
-56.33
-37.57
-17.38
2.0
18.92
32.56
42.78
49.79
53.97
55.66
55.2
52.96
49.36
44.9
40.05
35.14
30.46
26.21
22.57
19.7
17.65
16.38
15.63
15.06
14.2
12.71
10.31
6.92
2.64
-2.29
-7.61
-13.04
-18.51
-24.2
-30.57
-38.08
-46.87
-56.31
-64.88
-70.52
-71.12
-65.42
-53.48
-36.77
-17.68
1.24
18.02
31.6
41.73
48.66
52.74
54.29
53.57
50.92
46.85
41.88
36.55
31.25
26.26
21.8
18.14
15.49
13.97
13.48
13.58
13.59
12.75
10.48
6.65
1.61
-3.93
-9.29
-14.14
-18.72
-23.78
-30.24
-38.72
-49.1
-60.31
-70.41
-77.15
-78.51
-73.34
-61.75
-45.04
-25.39
-5.24
13.29
28.84
40.83
49.33
54.75
57.55
58.16
56.93
54.19
50.28
45.55
40.43
35.31
30.54
26.38
23.0
20.44
18.65
17.43
16.57
15.69
14.42
12.38
9.32
5.19
0.18
-5.34
-11.03
-16.7
-22.49
-28.9
-36.57
-45.95
-56.75
-67.72
-76.75
-81.37
-79.6
-70.74
-55.57
-36.27
-15.59
3.94
20.65
33.93
43.9
50.94
55.4
57.45
57.29
55.22
51.86
47.91
43.94
40.22
36.7
33.12
29.38
25.73
22.67
20.73
20.16
20.64
21.37
21.29
19.5
15.61
9.89
3.07
-3.9
-10.29
-15.76
-20.48
-25.04
-30.27
-36.95
-45.5
-55.68
-66.38
-75.76
-81.51
-81.57
-74.91
-61.87
-44.18
-24.39
-5.03
12.12
26.29
37.53
46.26
52.76
57.02
58.86
58.24
55.51
51.45
46.96
42.8
39.29
36.32
33.53
30.61
27.54
24.63
22.32
20.88
20.17
19.6
18.33
15.68
11.39
5.8
-0.4
-6.41
-11.7
-16.31
-20.71
-25.69
-32.04
-40.26
-50.3
-61.45
-72.33
-80.95
-85.21
-83.42
-74.93
-60.36
-41.56
-21.01
-1.22
15.85
29.16
38.55
44.47
47.66
48.83
48.55
47.07
44.45
40.67
35.82
30.25
24.54
19.35
15.26
12.58
11.29
11.1
11.52
11.95
11.72
10.32
7.51
3.43
-1.4
-6.25
-10.57
-14.23
-17.61
-21.55
-26.96
-34.36
-43.6
-53.67
-62.82
-69.0
-70.39
-66.01
-56.03
-41.67
-24.84
-7.52
8.7
22.79
34.26
42.84
48.42
50.97
50.65
47.98
43.77
38.94
34.23
30.0
26.21
22.62
19.07
15.62
12.58
10.25
8.75
7.81
6.9
5.43
3.02
-0.41
-4.66
-9.46
-14.53
-19.68
-24.9
-30.39
-36.54
-43.87
-52.73
-62.81
-72.87
-80.74
-83.85
-80.21
-69.2
-52.0
-31.19
-9.94
9.08
24.31
35.52
43.33
48.65
52.11
53.93
54.04
52.4
49.2
44.89
40.01
35.04
30.28
25.89
22.01
18.83
16.57
15.28
14.73
14.37
13.48
11.43
7.98
3.29
-2.1
-7.57
-12.69
-17.4
-22.1
-27.44
-34.11
-42.54
-52.64
-63.67
-74.17
-82.22
-85.87
-83.64
-75.05
-60.76
-42.4
-22.18
-2.26
15.62
30.41
41.67
49.43
53.99
55.82
55.5
53.62
50.78
47.42
43.87
40.25
36.56
32.76
28.86
25.05
21.73
19.33
18.18
18.24
19.03
19.65
19.06
16.46
11.6
4.92
-2.55
-9.68
-15.64
-20.26
-24.11
-28.34
-34.14
-42.33
-52.81
-64.36
-74.86
-81.77
-82.9
-77.15
-64.84
-47.63
-27.98
-8.32
9.56
24.75
37.07
46.63
53.55
57.82
59.44
58.63
55.92
51.99
47.51
42.92
38.34
33.74
29.1
24.59
20.57
17.44
15.45
14.56
14.38
14.24
13.46
11.51
8.13
3.44
-2.18
-8.23
-14.2
-19.77
-24.97
-30.19
-36.13
-43.46
-52.43
-62.48
-72.12
-79.14
-81.22
-76.77
-65.55
-48.78
-28.87
-8.54
9.85
24.95
36.36
44.44
49.78
52.82
53.78
52.73
49.78
45.24
39.66
33.57
27.56
22.06
17.42
13.91
11.68
10.73
10.78
11.27
11.44
10.61
8.37
4.78
0.3
-4.44
-8.9
-12.85
-16.54
-20.47
-25.38
-31.83
-40.03
-49.5
-59.03
-66.81
-70.8
-69.35
-61.7
-48.36
-30.94
-11.75
6.93
23.27
36.28
45.68
51.69
54.79
55.48
54.19
51.3
47.15
42.09
36.49
30.76
25.27
20.36
16.25
13.01
10.64
9.05
8.1
7.49
6.82
5.62
3.39
-0.18
-5.11
-11.09
-17.51
-23.78
-29.51
-34.8
-40.23
-46.72
-55.0
-65.12
-76.1
-85.79
-91.54
-90.91
-82.73
-67.52
-47.43
-25.4
-4.27
14.09
28.93
40.38
48.87
54.73
58.08
59.03
57.9
55.29
51.84
48.04
44.0
39.63
34.89
29.98
25.42
21.82
19.59
18.68
18.58
18.46
17.51
15.24
11.52
6.63
1.03
-4.78
-10.42
-15.77
-20.98
-26.4
-32.6
-40.14
-49.37
-60.13
-71.41
-81.32
-87.48
-87.68
-80.65
-66.66
-47.48
-25.88
-4.66
14.11
29.51
41.55
50.67
57.23
61.28
62.74
61.71
58.66
54.39
49.83
45.59
41.91
38.6
35.32
31.9
28.46
25.43
23.25
22.14
21.88
21.73
20.73
18.01
13.27
6.87
-0.23
-6.91
-12.45
-16.74
-20.4
-24.5
-30.07
-37.79
-47.76
-59.34
-71.23
-81.52
-87.99
-88.61
-82.18
-68.86
-50.22
-28.87
-7.61
11.39
26.96
38.95
47.72
53.71
57.11
57.99
56.54
53.28
49.02
44.58
40.54
36.93
33.47
29.83
25.94
22.15
19.06
17.18
16.59
16.77
16.76
15.59
12.66
8.02
2.22
-3.91
-9.67
-14.83
-19.62
-24.7
-30.81
-38.51
-47.81
-58.07
-67.88
-75.31
-78.38
-75.57
-66.43
-51.7
-33.2
-13.32
5.62
21.85
34.45
43.24
48.58
51.05
51.27
49.72
46.77
42.68
37.7
32.12
26.34
20.87
16.19
12.65
10.4
9.37
9.25
9.57
9.76
9.27
7.69
4.87
0.96
-3.63
-8.42
-13.03
-17.42
-21.94
-27.33
-34.36
-43.5
-54.47
-66.03
-76.08
-82.13
-82.06
-74.91
-61.24
-42.98
-22.76
-3.01
14.53
29.13
40.71
49.4
55.23
58.16
58.19
55.73
51.57
46.67
41.84
37.46
33.49
29.61
25.64
21.61
17.93
15.08
13.36
12.64
12.34
11.61
9.67
6.09
0.97
-5.18
-11.63
-17.74
-23.21
-28.21
-33.24
-39.02
-46.29
-55.39
-66.09
-77.19
-86.64
-91.88
-90.63
-81.74
-65.7
-44.63
-21.58
0.4
19.14
33.79
44.56
52.17
57.3
60.31
61.28
60.27
57.57
53.63
49.04
44.24
39.53
34.99
30.72
26.9
23.81
21.67
20.5
19.92
19.26
17.77
14.9
10.61
5.33
-0.23
-5.41
-9.94
-14.12
-18.62
-24.27
-31.66
-40.99
-51.92
-63.52
-74.33
-82.52
-86.19
-83.88
-74.98
-60.06
-40.79
-19.49
1.46
20.23
35.67
47.37
55.34
59.8
61.19
60.08
57.28
53.61
49.76
46.04
42.33
38.35
33.8
28.84
24.03
20.12
17.77
17.15
17.74
18.54
18.3
16.06
11.46
4.9
-2.55
-9.65
-15.48
-19.81
-23.26
-27.09
-32.67
-40.87
-51.6
-63.58
-74.57
-82.01
-83.71
-78.54
-66.78
-49.97
-30.45
-10.58
7.79
23.65
36.64
46.79
54.19
58.82
60.69
60.01
57.21
53.01
48.16
43.21
38.5
34.11
30.03
26.33
23.13
20.58
18.79
17.67
16.97
16.24
14.99
12.78
9.34
4.65
-1.08
-7.39
-13.73
-19.64
-25.01
-30.18
-35.92
-43.08
-52.14
-62.61
-72.84
-80.36
-82.53
-77.61
-65.46
-47.61
-26.78
-5.89
12.73
27.86
39.21
47.09
51.93
54.05
53.76
51.5
47.84
43.44
38.72
33.86
28.81
23.57
18.39
13.9
10.8
9.56
10.07
11.5
12.62
12.27
9.85
5.61
0.4
-4.78
-9.15
-12.65
-15.85
-19.7
-25.21
-32.98
-43.0
-54.5
-66.03
-75.63
-81.2
-81.05
-74.38
-61.55
-44.1
-24.2
-4.19
14.02
29.27
41.09
49.49
54.74
57.17
57.11
54.95
51.19
46.42
41.23
36.06
31.13
26.43
21.87
17.46
13.46
10.38
8.65
8.36
8.96
9.42
8.56
5.57
0.4
-6.26
-13.29
-19.7
-25.02
-29.54
-34.2
-40.13
-48.24
-58.63
-70.35
-81.41
-89.23
-91.36
-86.35
-74.22
-56.44
-35.44
-13.83
6.28
23.55
37.35
47.56
54.32
58.01
59.18
58.55
56.77
54.25
51.08
47.19
42.51
37.25
31.87
26.95
23.04
20.42
19.04
18.56
18.38
17.82
16.27
13.4
9.22
4.1
-1.45
-6.94
-12.18
-17.32
-22.87
-29.5
-37.79
-47.93
-59.35
-70.64
-79.58
-83.79
-81.46
-72.01
-56.46
-37.0
-16.28
3.43
20.73
35.12
46.56
55.08
60.63
63.15
62.84
60.35
56.63
52.59
48.83
45.4
41.96
38.03
33.45
28.51
23.93
20.6
19.03
19.08
19.92
20.31
19.05
15.48
9.72
2.54
-4.92
-11.73
-17.45
-22.19
-26.6
-31.5
-37.72
-45.8
-55.76
-66.9
-77.7
-86.11
-89.91
-87.45
-78.15
-62.77
-43.2
-21.97
-1.47
16.5
30.96
41.66
48.82
52.9
54.38
53.72
51.37
47.74
43.27
38.37
33.42
28.67
24.33
20.55
17.44
15.15
13.68
12.86
12.32
11.56
10.03
7.42
3.69
-0.87
-5.82
-10.79
-15.64
-20.49
-25.71
-31.85
-39.39
-48.4
-58.32
-67.71
-74.58
-76.83
-72.98
-62.73
-47.12
-28.26
-8.56
9.85
25.61
38.1
47.23
53.11
56.0
56.21
54.23
50.67
46.21
41.41
36.57
31.77
26.94
22.11
17.5
13.51
10.55
8.83
8.12
7.77
6.89
4.74
1.04
-3.96
-9.54
-14.98
-19.93
-24.5
-29.3
-35.14
-42.64
-51.99
-62.61
-73.09
-81.46
-85.56
-83.68
-75.1
-60.4
-41.35
-20.41
-0.01
17.98
32.55
43.46
50.9
55.3
57.11
56.83
54.97
51.99
48.24
43.94
39.24
34.29
29.4
25.03
21.62
19.44
18.42
18.04
17.6
16.35
13.83
9.95
5.03
-0.41
-5.89
-11.13
-16.18
-21.33
-27.01
-33.69
-41.74
-51.29
-61.91
-72.54
-81.39
-86.32
-85.43
-77.71
-63.51
-44.48
-23.13
-2.0
16.92
32.55
44.62
53.28
58.83
61.55
61.8
60.1
57.17
53.76
50.39
47.19
43.84
39.87
35.04
29.65
24.52
20.67
18.8
18.88
20.01
20.74
19.68
16.07
10.12
2.92
-4.19
-10.14
-14.62
-18.18
-21.89
-26.93
-34.14
-43.7
-55.06
-66.97
-77.62
-84.99
-87.19
-83.05
-72.43
-56.47
-37.15
-16.85
2.37
19.16
32.96
43.82
51.99
57.66
60.92
61.84
60.61
57.69
53.78
49.59
45.72
42.45
39.7
37.18
34.51
31.55
28.41
25.48
23.19
21.76
21.05
20.46
19.15
16.31
11.53
4.99
-2.54
-10.03
-16.57
-21.76
-25.91
-29.85
-34.74
-41.54
-50.72
-61.87
-73.65
-84.0
-90.51
-91.17
-84.95
-72.22
-54.62
-34.59
-14.55
3.69
19.16
31.6
41.13
47.9
51.98
53.45
52.54
49.71
45.63
40.93
36.12
31.55
27.38
23.72
20.68
18.31
16.61
15.52
14.87
14.41
13.85
12.85
11.13
8.46
4.77
0.16
-5.06
-10.51
-15.9
-21.24
-26.88
-33.42
-41.38
-50.63
-60.2
-68.25
-72.48
-70.93
-62.72
-48.46
-30.13
-10.44
8.05
23.58
35.43
43.79
49.29
52.51
53.8
53.28
51.0
47.19
42.31
36.99
31.84
27.25
23.35
20.06
17.32
15.14
13.63
12.79
12.31
11.56
9.75
6.37
1.38
-4.65
-10.85
-16.47
-21.27
-25.67
-30.52
-36.8
-45.16
-55.55
-67.13
-78.23
-86.69
-90.38
-87.77
-78.53
-63.63
-45.06
-25.21
-6.11
10.93
25.39
37.22
46.43
52.94
56.66
57.68
56.48
53.81
50.43
46.88
43.34
39.73
35.89
31.81
27.73
24.08
21.31
19.71
19.2
19.32
19.29
18.24
15.49
10.81
4.51
-2.61
-9.58
-15.67
-20.66
-25.05
-29.84
-36.23
-45.07
-56.36
-68.96
-80.68
-88.71
-90.58
-84.86
-71.87
-53.57
-32.83
-12.54
5.33
20.09
32.03
41.79
49.7
55.6
58.98
59.51
57.46
53.67
49.28
45.3
42.15
39.63
37.2
34.35
30.96
27.41
24.37
22.46
21.88
22.25
22.65
22.05
19.61
15.11
8.92
1.88
-5.11
-11.39
-16.75
-21.46
-26.07
-31.24
-37.57
-45.54
-55.26
-66.35
-77.64
-87.21
-92.68
-91.94
-83.86
-68.89
-49.01
-27.08
-5.94
12.39
27.13
38.5
47.2
53.76
58.38
60.91
61.21
59.4
55.95
51.56
46.99
42.78
39.18
36.19
33.67
31.44
29.41
27.61
26.1
24.93
24.02
23.05
21.6
19.19
15.51
10.57
4.66
-1.74
-8.15
-14.22
-19.88
-25.24
-30.62
-36.4
-43.06
-51.06
-60.51
-70.94
-81.0
-88.58
-91.4
-87.74
-77.13
-60.62
-40.45
-19.32
0.43
17.41
31.15
41.81
49.67
54.84
57.22
56.76
53.75
48.84
43.01
37.26
32.28
28.24
24.96
22.07
19.42
17.14
15.56
14.96
15.26
15.93
16.13
15.05
12.32
8.08
2.91
-2.44
-7.48
-12.12
-16.69
-21.7
-27.72
-35.12
-43.96
-53.83
-63.78
-72.25
-77.34
-77.26
-70.95
-58.53
-41.4
-21.78
-2.04
15.93
31.04
42.93
51.61
57.23
59.88
59.72
57.06
52.52
46.9
41.02
35.53
30.77
26.74
23.33
20.37
17.85
15.92
14.78
14.45
14.63
14.63
13.62
10.87
6.18
-0.12
-7.22
-14.17
-20.29
-25.42
-29.97
-34.81
-40.9
-48.96
-59.18
-70.93
-82.75
-92.55
-98.05
-97.37
-89.68
-75.41
-56.16
-34.26
-12.15
8.24
25.69
39.72
50.28
57.61
61.98
63.72
63.23
60.95
57.41
53.1
48.49
43.9
39.6
35.71
32.32
29.47
27.19
25.47
24.3
23.57
23.08
22.5
21.36
19.22
15.74
10.86
4.8
-1.95
-8.76
-15.06
-20.57
-25.35
-29.88
-34.86
-41.06
-49.05
-58.98
-70.37
-81.98
-91.87
-97.8
-97.76
-90.64
-76.64
-57.29
-35.01
-12.43
8.28
25.84
39.79
50.25
57.53
61.95
63.76
63.29
60.98
57.42
53.21
48.86
44.63
40.59
36.7
33.02
29.78
27.29
25.87
25.56
26.04
26.67
26.66
25.35
22.42
17.96
12.33
6.03
-0.48
-6.91
-13.08
-18.95
-24.62
-30.23
-35.96
-42.12
-49.06
-57.16
-66.57
-76.91
-87.03
-94.96
-98.39
-95.36
-84.98
-67.94
-46.35
-23.07
-0.81
18.55
34.19
46.02
54.33
59.39
61.42
60.75
57.96
53.87
49.28
44.69
40.2
35.6
30.73
25.74
21.13
17.65
15.94
16.09
17.57
19.32
20.06
18.85
15.33
9.91
3.48
-2.93
-8.59
-13.36
-17.6
-22.02
-27.36
-34.11
-42.44
-52.1
-62.37
-71.99
-79.23
-82.19
-79.4
-70.29
-55.56
-37.0
-16.93
2.43
19.46
33.32
43.77
50.83
54.66
55.5
53.74
50.06
45.26
40.13
35.26
30.89
26.93
23.15
19.39
15.77
12.68
10.57
9.69
9.85
10.35
10.19
8.47
4.77
-0.7
-7.17
-13.68
-19.47
-24.32
-28.64
-33.39
-39.67
-48.27
-59.16
-71.12
-81.86
-88.6
-88.93
-81.71
-67.47
-48.24
-26.84
-5.9
12.8
28.52
41.17
50.88
57.64
61.37
62.06
60.1
56.2
51.28
46.04
40.89
35.86
30.93
26.16
21.84
18.37
16.15
15.17
15.11
15.28
14.89
13.25
10.1
5.56
0.12
-5.66
-11.42
-17.08
-22.85
-29.06
-36.08
-44.17
-53.43
-63.64
-74.08
-83.34
-89.5
-90.42
-84.55
-71.53
-52.52
-29.97
-6.85
14.13
31.17
43.61
51.69
56.23
58.2
58.36
57.26
55.17
52.17
48.29
43.6
38.28
32.75
27.51
23.09
19.87
18.01
17.37
17.5
17.71
17.21
15.34
11.74
6.57
0.4
-5.97
-11.81
-16.83
-21.25
-25.84
-31.55
-39.22
-49.09
-60.62
-72.36
-82.17
-87.71
-87.13
-79.62
-65.71
-47.1
-26.11
-5.02
14.4
31.07
44.49
54.44
60.91
64.02
64.16
62.05
58.57
54.54
50.5
46.55
42.48
38.0
33.05
27.93
23.29
19.87
18.12
17.88
18.41
18.6
17.4
14.28
9.34
3.16
-3.46
-9.88
-15.8
-21.29
-26.74
-32.67
-39.69
-48.26
-58.44
-69.51
-79.76
-86.71
-87.87
-81.57
-67.77
-48.15
-25.63
-3.4
16.04
31.41
42.6
50.27
55.19
57.92
58.69
57.53
54.51
49.91
44.23
38.15
32.39
27.49
23.71
21.06
19.35
18.33
17.79
17.51
17.19
16.44
14.8
11.91
7.67
2.34
-3.56
-9.46
-15.03
-20.26
-25.56
-31.55
-38.84
-47.66
-57.55
-67.19
-74.58
-77.52
-74.28
-64.28
-48.36
-28.63
-7.79
11.64
27.9
40.27
48.8
53.99
56.43
56.59
54.83
51.52
47.05
41.88
36.39
30.88
25.56
20.66
16.45
13.35
11.6
11.19
11.64
12.06
11.46
9.14
4.98
-0.49
-6.32
-11.69
-16.28
-20.4
-24.92
-30.86
-38.98
-49.42
-61.47
-73.64
-83.85
-89.88
-89.91
-83.01
-69.43
-50.66
-29.03
-7.08
13.0
29.82
42.86
52.25
58.44
61.9
63.04
62.18
59.63
55.77
51.1
46.07
41.04
36.26
31.85
27.97
24.78
22.44
20.98
20.16
19.49
18.32
16.07
12.46
7.58
1.8
-4.34
-10.41
-16.15
-21.57
-27.03
-33.15
-40.67
-50.15
-61.44
-73.4
-83.78
-89.77
-88.91
-80.06
-63.95
-43.01
-20.52
0.49
18.13
31.79
41.87
49.07
53.87
56.33
56.41
54.24
50.36
45.64
40.95
36.79
33.25
30.06
26.89
23.64
20.5
17.89
16.12
15.2
14.72
13.94
12.07
8.53
3.25
-3.35
-10.49
-17.35
-23.38
-28.44
-32.79
-36.87
-41.25
-46.39
-52.48
-59.23
-65.63
-69.95
-70.05
-64.03
-50.94
-31.21
-6.67
20.05
46.26
69.89
89.67
105.02
115.69
121.62
122.92
120.06
113.9
105.55
96.08
86.14
75.87
64.98
52.98
39.46
24.23
7.39
-10.61
-28.77
-45.55
-58.94
-66.96
-68.37
-63.14
-52.63
-39.2
-25.57
-14.1
-6.21
-2.35
-2.07
-4.32
-7.71
-10.75
-12.3
-11.86
-9.9
-7.73
-7.27
-10.52
-18.95
-32.95
-51.46
-71.94
-90.75
-104.02
-108.57
-102.87
-87.48
-64.89
-38.71
-12.71
10.2
28.49
42.02
51.6
58.43
63.54
67.56
70.6
72.47
72.86
71.5
68.38
63.69
57.97
51.9
46.28
41.75
38.86
38.05
39.61
43.58
49.46
56.08
61.71
64.53
63.32
58.11
50.24
41.72
34.43
29.16
25.4
21.73
16.6
9.04
-1.13
-13.55
-27.67
-42.9
-58.4
-72.87
-84.31
-90.42
-89.39
-80.7
-65.51
-46.41
-26.52
-8.44
6.4
18.02
27.37
35.68
43.7
51.49
58.4
63.48
65.88
65.14
61.44
55.5
48.35
41.02
34.22
28.13
22.58
17.03
10.88
3.53
-5.4
-15.87
-27.24
-38.23
-47.16
-52.5
-53.6
-51.13
-47.06
-43.88
-43.57
-46.72
-52.33
-58.27
-62.16
-62.28
-57.84
-49.06
-36.81
-22.4
-7.27
7.02
19.09
28.02
33.54
36.09
36.49
35.51
33.5
30.39
25.88
19.8
12.43
4.38
-3.39
-9.93
-14.39
-16.23
-15.24
-11.65
-6.1
0.48
7.1
13.0
17.71
21.04
22.97
23.51
22.74
20.69
17.37
12.68
6.5
-1.05
-9.22
-16.52
-20.99
-21.01
-16.08
-7.38
2.53
10.46
13.77
11.06
2.46
-10.69
-26.33
-42.22
-56.33
-67.18
-74.05
-77.08
-77.07
-75.18
-72.48
-69.68
-67.07
-64.67
-62.4
-60.3
-58.41
-56.82
-55.57
-54.63
-54.04
-53.83
-54.14
-55.13
-56.92
-59.58
-63.16
-67.73
-73.39
-80.19
-87.83
-95.46
-101.69
-104.77
-103.11
-95.83
-83.0
-65.69
-45.5
-24.19
-3.26
16.15
33.23
47.35
58.03
65.1
68.72
69.57
68.6
66.81
64.94
63.28
61.67
59.69
56.95
53.43
49.51
45.82
42.94
41.04
39.68
37.97
34.92
29.84
22.59
13.61
3.72
-6.31
-15.94
-25.15
-34.37
-44.27
-55.38
-67.61
-79.99
-90.57
-96.92
-96.78
-88.95
-73.72
-52.89
-29.2
-5.49
15.98
33.97
48.22
59.0
66.8
71.94
74.56
74.73
72.68
68.86
64.0
58.89
54.09
49.82
45.97
42.27
38.65
35.27
32.46
30.43
29.06
27.79
25.81
22.43
17.36
10.83
3.44
-4.13
-11.48
-18.58
-25.8
-33.74
-42.97
-53.74
-65.69
-77.71
-87.96
-94.22
-94.45
-87.39
-73.06
-52.72
-28.61
-3.33
20.72
41.69
58.5
70.68
78.4
82.24
83.09
81.86
79.34
76.01
72.04
67.37
61.9
55.72
49.16
42.86
37.49
33.66
31.64
31.29
32.04
33.03
33.24
31.86
28.44
23.03
16.12
8.53
1.03
-5.9
-12.24
-18.49
-25.39
-33.68
-43.69
-55.16
-67.08
-77.92
-85.83
-89.1
-86.51
-77.61
-62.79
-43.25
-20.78
2.52
24.52
43.41
57.95
67.61
72.61
73.74
72.11
68.77
64.57
59.95
55.05
49.8
44.11
38.0
31.83
26.22
21.87
19.32
18.64
19.34
20.43
20.77
19.49
16.24
11.27
5.29
-0.83
-6.4
-11.03
-14.82
-18.22
-21.96
-26.83
-33.38
-41.71
-51.3
-60.96
-69.04
-73.86
-74.09
-69.13
-59.23
-45.29
-28.65
-10.75
7.01
23.33
37.08
47.38
53.81
56.53
56.35
54.43
51.89
49.39
46.97
44.27
40.84
36.6
31.91
27.46
23.91
21.61
20.48
20.15
20.16
20.09
19.6
18.32
15.93
12.2
7.17
1.25
-4.94
-10.7
-15.58
-19.61
-23.26
-27.33
-32.58
-39.42
-47.74
-56.73
-65.09
-71.22
-73.66
-71.41
-64.24
-52.58
-37.49
-20.31
-2.45
14.77
30.16
42.77
51.93
57.33
59.11
57.78
54.19
49.22
43.65
38.02
32.62
27.51
22.71
18.17
13.96
10.27
7.35
5.49
4.82
5.24
6.32
7.27
7.19
5.35
1.52
-3.92
-10.13
-16.11
-21.1
-24.96
-28.19
-31.69
-36.37
-42.72
-50.59
-59.16
-67.25
-73.48
-76.69
-76.03
-71.15
-62.19
-49.68
-34.54
-17.89
-1.03
14.71
28.13
38.26
44.57
46.96
45.93
42.38
37.47
32.24
27.4
23.18
19.33
15.48
11.33
7.0
3.02
0.15
-1.0
-0.34
1.67
4.06
5.72
5.76
3.79
0.04
-4.81
-9.87
-14.47
-18.29
-21.5
-24.61
-28.32
-33.32
-39.97
-48.23
-57.52
-66.84
-74.77
-79.8
-80.65
-76.56
-67.57
-54.41
-38.36
-20.89
-3.45
12.74
26.67
37.57
44.9
48.44
48.41
45.44
40.54
34.74
28.93
23.6
18.84
14.46
10.25
6.18
2.49
-0.36
-1.99
-2.31
-1.61
-0.56
0.06
-0.48
-2.58
-6.26
-11.18
-16.77
-22.45
-27.73
-32.42
-36.68
-41.01
-46.17
-52.89
-61.42
-71.28
-81.14
-89.11
-93.14
-91.69
-84.19
-71.18
-54.24
-35.36
-16.54
0.75
15.57
27.51
36.44
42.24
44.86
44.31
40.94
35.46
28.96
22.55
17.15
13.17
10.46
8.54
6.92
5.41
4.19
3.7
4.22
5.54
7.0
7.6
6.51
3.41
-1.39
-7.14
-12.94
-18.24
-22.99
-27.6
-32.87
-39.61
-48.35
-59.02
-70.58
-81.16
-88.31
-89.69
-83.78
-70.46
-51.11
-28.26
-4.81
16.72
34.75
48.73
58.85
65.59
69.35
70.28
68.43
63.95
57.31
49.38
41.28
34.12
28.63
25.07
23.17
22.29
21.71
20.89
19.64
18.16
16.88
16.07
15.63
14.99
13.22
9.46
3.32
-4.83
-13.94
-22.67
-30.01
-35.73
-40.54
-45.78
-52.91
-62.87
-75.53
-89.54
-102.54
-111.77
-114.84
-110.33
-98.17
-79.68
-57.02
-32.64
-8.64
13.52
33.01
49.37
62.09
70.57
74.16
72.61
66.49
57.23
46.96
37.88
31.55
28.41
27.77
28.08
27.57
24.85
19.56
12.94
8.05
9.29
21.0
45.6
81.77
123.97
163.81
192.71
205.0
199.77
180.81
154.62
127.81
104.78
86.9
72.98
60.56
47.35
32.2
15.54
-0.9
-14.61
-23.17
-24.98
-19.74
-8.4
7.29
25.4
44.18
62.12
77.58
88.7
93.45
90.06
77.83
57.53
31.55
3.26
-23.91
-47.34
-65.75
-79.07
-88.05
-93.55
-96.22
-96.31
-93.84
-88.92
-81.95
-73.73
-65.38
-58.09
-52.86
-50.25
-50.33
-52.54
-55.96
-59.53
-62.45
-64.49
-66.1
-68.32
-72.51
-79.79
-90.45
-103.63
-117.17
-128.22
-133.84
-131.92
-121.87
-104.6
-82.19
-57.07
-31.36
-6.54
16.43
36.81
53.71
66.12
73.23
74.85
71.73
65.47
58.15
51.62
46.96
44.34
43.1
42.3
41.12
39.36
37.41
36.05
35.88
36.98
38.74
40.03
39.6
36.64
30.96
23.25
14.6
6.19
-1.23
-7.44
-12.75
-17.84
-23.52
-30.54
-39.48
-50.45
-62.86
-75.25
-85.38
-90.64
-88.84
-79.01
-61.83
-39.51
-15.01
8.86
30.18
48.07
62.4
73.19
80.16
82.87
81.03
75.1
66.4
56.93
48.6
42.64
39.24
37.62
36.61
35.18
32.98
30.33
28.03
26.82
26.92
27.8
28.31
27.07
23.05
16.06
6.88
-2.95
-11.8
-18.68
-23.55
-27.4
-31.81
-38.31
-47.88
-60.35
-74.41
-87.75
-97.56
-101.22
-97.02
-84.69
-65.53
-42.07
-17.28
6.17
26.56
43.14
56.01
65.49
71.86
75.12
75.2
72.14
66.39
58.92
51.03
44.01
38.82
35.77
34.5
34.2
33.95
33.21
31.99
30.78
30.12
30.22
30.7
30.52
28.53
23.85
16.4
7.09
-2.6
-11.18
-17.83
-22.69
-26.82
-31.64
-38.32
-47.47
-58.83
-71.54
-84.28
-95.51
-103.52
-106.61
-103.4
-93.24
-76.56
-54.9
-30.61
-6.24
16.0
34.67
49.19
59.57
66.16
69.37
69.69
67.56
63.59
58.39
52.66
47.02
42.02
37.99
35.09
33.19
32.05
31.42
31.15
31.15
31.44
31.88
32.16
31.72
29.86
26.08
20.26
12.87
4.7
-3.35
-10.66
-17.17
-23.29
-29.68
-36.87
-45.05
-54.05
-63.57
-73.39
-83.31
-92.89
-101.16
-106.38
-106.49
-99.68
-85.25
-64.11
-38.66
-12.07
12.63
33.27
48.83
59.22
65.05
67.17
66.57
64.15
60.71
56.85
52.78
48.54
43.97
39.2
34.64
30.91
28.62
28.02
28.88
30.44
31.77
32.01
30.79
28.1
24.26
19.7
14.68
9.31
3.49
-2.87
-9.79
-17.13
-24.61
-31.93
-38.86
-45.49
-52.23
-59.79
-68.87
-79.7
-91.52
-102.35
-109.3
-109.38
-100.71
-83.22
-58.93
-31.4
-4.54
18.54
36.26
48.67
56.92
62.27
65.64
67.2
66.69
63.82
58.66
51.83
44.47
37.83
32.91
30.1
29.15
29.32
29.73
29.69
28.98
27.83
26.68
25.88
25.23
24.18
21.87
17.63
11.32
3.48
-4.92
-12.83
-19.65
-25.35
-30.48
-35.92
-42.57
-51.04
-61.49
-73.44
-85.62
-95.98
-102.01
-101.39
-92.69
-76.11
-53.52
-28.08
-3.27
18.12
34.72
46.55
54.51
59.71
62.84
64.06
63.13
59.82
54.33
47.4
40.13
33.64
28.71
25.63
24.12
23.65
23.53
23.27
22.64
21.68
20.53
19.25
17.62
15.09
11.03
4.94
-3.05
-12.19
-21.23
-28.98
-34.92
-39.55
-44.27
-50.84
-60.44
-73.0
-86.91
-99.31
-106.95
-107.26
-99.14
-83.21
-61.55
-37.03
-12.52
9.77
28.59
43.57
54.89
62.92
67.96
70.15
69.65
66.69
61.86
55.99
50.09
45.0
41.27
39.04
38.09
38.01
38.36
38.72
38.78
38.37
37.45
36.06
34.23
31.92
28.92
24.91
19.48
12.49
4.15
-4.92
-13.92
-22.11
-29.13
-35.1
-40.61
-46.56
-53.86
-63.19
-74.61
-87.35
-99.67
-109.11
-113.13
-109.88
-98.84
-81.03
-58.65
-34.3
-10.27
11.86
31.16
47.1
59.29
67.47
71.63
72.21
70.02
66.11
61.4
56.55
51.85
47.47
43.49
40.06
37.36
35.54
34.63
34.53
35.06
35.91
36.72
37.03
36.27
33.98
29.81
23.77
16.24
7.95
-0.28
-7.78
-14.28
-19.95
-25.35
-31.13
-37.75
-45.45
-54.27
-64.06
-74.54
-85.11
-94.7
-101.76
-104.43
-100.99
-90.47
-73.05
-50.14
-24.19
1.89
25.39
44.35
57.96
66.57
71.36
73.72
74.82
75.03
74.15
71.71
67.47
61.84
55.83
50.73
47.67
47.1
48.69
51.51
54.42
56.48
57.27
56.89
55.8
54.49
53.21
51.86
50.08
47.47
43.85
39.3
34.26
29.3
25.01
21.67
19.31
17.5
15.51
12.5
7.89
1.82
-4.54
-8.95
-8.79
-1.79
13.07
35.06
61.95
90.59
117.95
141.91
161.58
177.17
189.41
199.04
206.41
211.34
213.36
212.08
207.43
199.94
190.58
180.46
170.3
160.26
149.83
138.17
124.48
108.37
90.03
70.16
49.71
29.55
10.18
-8.4
-26.47
-44.41
-62.25
-79.49
-95.28
-108.84
-120.18
-130.4
-141.53
-155.68
-174.19
-196.68
-221.04
-243.99
-262.14
-272.92
-275.12
-268.88
-255.36
-236.32
-213.75
-189.67
-165.93
-143.92
-124.53
-108.04
-94.33
-83.08
-74.03
-67.08
-62.13
-58.94
-56.97
-55.46
-53.69
-51.15
-47.8
-43.94
-40.1
-36.69
-33.87
-31.52
-29.51
-27.82
-26.76
-26.86
-28.65
-32.41
-37.9
-44.43
-51.01
-56.73
-61.15
-64.48
-67.65
-71.97
-78.5
-87.48
-97.84
-107.23
-112.55
-111.13
-101.55
-84.41
-62.02
-37.73
-14.66
5.08
20.96
33.61
44.04
52.85
59.89
64.45
65.78
63.7
58.8
52.36
45.89
40.61
37.11
35.32
34.73
34.67
34.55
34.04
32.97
31.33
29.22
26.74
24.02
21.13
18.02
14.5
10.24
4.79
-2.08
-10.24
-19.08
-27.74
-35.43
-41.91
-47.7
-54.08
-62.55
-73.92
-87.67
-101.61
-112.49
-117.04
-113.1
-100.48
-80.99
-57.62
-33.6
-11.31
8.14
24.72
38.85
50.87
60.69
67.71
71.27
70.98
67.1
60.63
53.11
46.06
40.58
37.04
35.01
33.59
31.84
29.2
25.78
22.2
19.18
17.11
15.71
14.13
11.21
6.07
-1.55
-11.11
-21.59
-31.85
-41.28
-49.79
-57.89
-66.34
-75.9
-87.17
-100.5
-115.92
-132.9
-150.25
-166.01
-177.75
-183.15
-180.7
-170.28
-153.21
-131.67
-108.09
-84.61
-62.74
-43.58
-28.02
-16.91
-10.84
-9.88
-13.24
-19.35
-26.18
-31.83
-34.93
-35.03
-32.5
-28.29
-23.49
-18.91
-14.76
-10.7
-6.09
-0.44
6.25
13.36
19.86
24.72
27.28
27.54
26.09
23.68
20.95
18.17
15.19
11.66
7.19
1.44
-5.93
-15.22
-26.7
-40.28
-55.12
-69.4
-80.57
-85.87
-83.19
-71.73
-52.25
-26.8
1.85
30.91
58.02
81.42
99.94
112.9
120.21
122.31
120.27
115.56
109.65
103.76
98.45
93.73
89.17
84.39
79.4
74.7
71.18
69.68
70.51
73.24
76.63
79.03
79.0
75.85
69.85
62.13
54.13
47.02
41.17
36.1
30.67
23.69
14.34
2.56
-10.79
-24.2
-35.78
-43.7
-46.5
-43.38
-34.29
-19.99
-1.84
18.44
38.94
57.88
73.8
85.73
93.3
96.69
96.53
93.69
89.13
83.62
77.74
71.82
66.04
60.51
55.36
50.79
47.07
44.45
43.04
42.7
42.95
43.03
42.14
39.63
35.28
29.38
22.51
15.37
8.55
2.27
-3.6
-9.47
-16.04
-23.97
-33.7
-45.09
-57.12
-67.9
-74.95
-76.01
-69.75
-56.38
-37.59
-16.08
5.35
24.54
40.42
52.86
62.24
68.94
73.05
74.47
73.11
69.28
63.68
57.35
51.27
46.09
41.91
38.44
35.33
32.37
29.7
27.69
26.66
26.61
27.06
27.15
25.92
22.81
17.78
11.38
4.51
-1.97
-7.59
-12.43
-17.03
-22.24
-28.84
-37.34
-47.67
-58.99
-69.74
-77.77
-80.9
-77.53
-67.32
-51.22
-31.36
-10.36
9.41
26.28
39.54
49.22
55.79
59.74
61.44
61.12
58.95
55.26
50.5
45.31
40.34
36.06
32.68
30.09
28.09
26.5
25.28
24.49
24.19
24.22
24.23
23.66
21.95
18.78
14.17
8.54
2.5
-3.34
-8.58
-13.22
-17.58
-22.23
-27.78
-34.74
-43.26
-53.02
-63.17
-72.26
-78.58
-80.43
-76.66
-67.02
-52.25
-33.96
-14.17
5.08
22.16
35.98
46.05
52.43
55.61
56.34
55.42
53.51
51.01
48.0
44.4
40.23
35.72
31.33
27.58
24.87
23.31
22.67
22.46
22.09
21.05
18.99
15.79
11.52
6.44
0.92
-4.67
-10.03
-15.08
-19.96
-25.1
-31.07
-38.34
-46.96
-56.32
-65.12
-71.63
-74.13
-71.43
-63.22
-50.09
-33.39
-14.83
3.85
21.07
35.67
46.85
54.36
58.43
59.82
59.52
58.57
57.7
57.14
56.69
55.85
54.15
51.46
48.13
44.87
42.35
40.97
40.52
40.28
39.24
36.5
31.63
24.75
16.54
7.88
-0.45
-7.98
-14.71
-21.02
-27.54
-34.93
-43.65
-53.75
-64.76
-75.58
-84.62
-90.11
-90.6
-85.34
-74.69
-59.98
-43.19
-26.37
-11.06
1.87
12.19
19.97
25.23
27.87
27.83
25.31
20.99
15.86
10.96
6.92
3.8
1.15
-1.58
-4.65
-7.82
-10.47
-11.98
-12.16
-11.38
-10.57
-10.75
-12.72
-16.61
-21.91
-27.66
-32.92
-37.17
-40.57
-43.89
-48.17
-54.2
-62.04
-70.77
-78.7
-83.74
-84.11
-78.82
-67.97
-52.66
-34.66
-15.93
1.87
17.61
30.7
40.94
48.31
52.86
54.65
53.9
51.04
46.74
41.8
36.97
32.74
29.23
26.26
23.48
20.63
17.64
14.76
12.36
10.76
9.95
9.46
8.53
6.35
2.49
-2.99
-9.41
-15.84
-21.48
-26.05
-29.95
-34.13
-39.64
-47.09
-56.21
-65.57
-72.9
-75.84
-72.64
-62.98
-48.02
-30.07
-11.68
5.04
19.02
30.11
38.68
45.19
49.74
52.21
52.42
50.43
46.65
41.82
36.74
32.03
28.04
24.8
22.2
20.12
18.46
17.2
16.22
15.37
14.42
13.13
11.34
8.97
6.02
2.56
-1.3
-5.5
-9.9
-14.39
-18.86
-23.35
-28.1
-33.56
-40.15
-47.97
-56.5
-64.37
-69.6
-70.22
-64.91
-53.62
-37.66
-19.28
-1.0
15.21
28.33
38.29
45.56
50.63
53.7
54.68
53.35
49.77
44.39
38.05
31.73
26.3
22.3
19.86
18.8
18.7
19.08
19.46
19.5
19.06
18.19
17.1
15.94
14.72
13.16
10.84
7.34
2.57
-3.18
-9.22
-14.72
-19.08
-22.2
-24.57
-27.15
-30.98
-36.76
-44.49
-53.37
-61.83
-68.0
-70.13
-67.15
-58.92
-46.32
-30.88
-14.38
1.66
16.25
28.84
39.16
47.05
52.29
54.7
54.37
51.76
47.61
42.82
38.13
33.93
30.23
26.84
23.55
20.39
17.61
15.61
14.7
14.86
15.67
16.39
16.22
14.54
11.18
6.37
0.73
-5.01
-10.24
-14.64
-18.26
-21.48
-24.93
-29.24
-34.95
-42.15
-50.41
-58.67
-65.4
-69.0
-68.2
-62.53
-52.44
-39.15
-24.25
-9.24
4.69
16.83
26.72
34.1
38.76
40.68
40.09
37.52
33.71
29.39
25.08
20.99
17.08
13.25
9.52
6.13
3.46
1.92
1.61
2.35
3.53
4.42
4.36
2.99
0.38
-3.14
-7.03
-10.84
-14.29
-17.38
-20.36
-23.65
-27.75
-33.1
-39.83
-47.56
-55.26
-61.3
-63.92
-61.7
-54.09
-41.73
-26.21
-9.65
6.02
19.51
30.33
38.53
44.42
48.19
49.8
49.22
46.59
42.45
37.59
32.85
28.8
25.55
22.83
20.26
17.65
15.15
13.19
12.19
12.27
13.07
13.85
13.77
12.21
9.04
4.6
-0.45
-5.4
-9.78
-13.49
-16.84
-20.46
-25.05
-31.09
-38.54
-46.63
-53.83
-58.21
-58.01
-52.28
-41.32
-26.64
-10.53
4.73
17.51
27.2
34.07
38.85
42.17
44.26
44.96
44.0
41.35
37.37
32.86
28.7
25.57
23.71
22.87
22.53
22.19
21.63
20.94
20.48
20.57
21.24
22.16
22.61
21.89
19.61
15.88
11.34
6.92
3.33
0.82
-0.94
-2.68
-5.11
-8.62
-13.22
-18.57
-24.16
-29.37
-33.41
-35.32
-34.11
-29.06
-20.0
-7.61
6.81
21.62
35.3
46.85
55.82
62.21
66.18
67.93
67.6
65.45
61.79
57.17
52.2
47.41
43.22
39.7
36.81
34.39
32.42
30.95
30.1
29.89
30.1
30.27
29.8
28.15
25.06
20.64
15.34
9.76
4.46
-0.35
-4.81
-9.45
-14.92
-21.69
-29.8
-38.65
-47.09
-53.55
-56.54
-55.0
-48.64
-38.03
-24.46
-9.6
4.82
17.35
27.02
33.4
36.53
36.76
34.59
30.55
25.11
18.71
11.7
4.49
-2.51
-8.94
-14.53
-19.12
-22.71
-25.39
-27.3
-28.65
-29.71
-30.8
-32.23
-34.29
-37.1
-40.62
-44.63
-48.79
-52.77
-56.28
-59.28
-61.99
-64.9
-68.55
-73.21
-78.53
-83.39
-86.06
-84.72
-78.18
-66.32
-50.26
-32.03
-13.86
2.41
