23.68
18.87
14.68
10.95
7.49
4.26
1.41
-0.78
-2.03
-2.26
-1.67
-0.78
-0.26
-0.73
-2.54
-5.7
-9.84
-14.39
-18.82
-22.75
-26.15
-29.24
-32.45
-36.29
-41.12
-47.08
-53.88
-60.75
-66.53
-69.81
-69.36
-64.39
-54.85
-41.47
-25.54
-8.61
7.89
22.89
35.68
45.92
53.43
58.09
59.92
59.12
56.15
51.63
46.28
40.69
35.27
30.17
25.38
20.86
16.63
12.84
9.71
7.43
6.08
5.49
5.26
4.81
3.59
1.23
-2.28
-6.63
-11.25
-15.55
-19.16
-22.06
-24.67
-27.62
-31.59
-36.97
-43.71
-51.28
-58.79
-65.12
-69.14
-69.87
-66.63
-59.15
-47.63
-32.83
-16.0
1.36
17.72
31.87
42.96
50.68
55.08
56.55
55.66
53.1
49.52
45.46
41.19
36.72
31.95
26.77
21.35
16.15
11.77
8.75
7.29
7.17
7.82
8.5
8.5
7.35
4.89
1.22
-3.3
-8.19
-12.99
-17.39
-21.34
-25.03
-28.78
-32.98
-37.94
-43.84
-50.51
-57.39
-63.39
-67.02
-66.75
-61.44
-50.85
-35.76
-17.82
0.92
18.54
33.67
45.58
54.14
59.57
62.28
62.65
61.03
57.74
53.11
47.55
41.51
35.45
29.76
24.71
20.4
16.86
14.06
12.08
10.98
10.75
11.12
11.62
11.65
10.73
8.65
5.62
2.1
-1.4
-4.6
-7.53
-10.46
-13.75
-17.65
-22.29
-27.62
-33.52
-39.67
-45.44
-49.79
-51.35
-48.72
-40.98
-28.05
-10.81
9.01
29.34
48.25
64.34
76.91
85.92
91.77
95.02
96.24
95.9
94.37
92.07
89.39
86.7
84.22
81.95
79.69
77.23
74.5
71.67
69.05
66.85
64.95
62.86
59.74
54.77
47.42
37.64
26.0
13.5
1.34
-9.43
-18.23
-25.13
-30.76
-36.14
-42.32
-50.12
-59.86
-71.32
-83.7
-95.59
-105.23
-110.77
-110.76
-104.58
-92.65
-76.44
-58.05
-39.68
-23.08
-9.26
1.53
9.6
15.45
19.45
21.78
22.34
21.01
17.86
13.27
7.99
2.9
-1.24
-3.97
-5.26
-5.44
-5.05
-4.63
-4.54
-4.95
-5.77
-6.85
-8.07
-9.47
-11.28
-13.82
-17.33
-21.88
-27.37
-33.61
-40.5
-47.9
-55.46
-62.39
-67.35
-68.81
-65.53
-57.19
-44.53
-29.26
-13.43
1.16
13.42
23.07
30.37
35.78
39.66
42.14
43.1
42.41
39.98
35.94
30.69
24.85
19.15
14.24
10.49
7.88
6.02
4.32
2.17
-0.77
-4.51
-8.74
-13.02
-16.97
-20.51
-23.83
-27.37
-31.62
-37.01
-43.8
-51.95
-60.97
-69.91
-77.37
-81.76
-81.76
-76.71
-66.81
-53.07
-36.95
-19.9
-3.08
12.72
26.91
39.04
48.69
55.64
59.97
62.11
62.71
62.3
61.18
59.29
56.35
52.2
46.96
41.13
35.44
30.53
26.74
23.94
21.63
19.21
16.2
12.43
8.05
3.42
-1.07
-5.11
-8.56
-11.45
-14.04
-16.85
-20.6
-26.06
-33.57
-42.8
-52.51
-60.76
-65.56
-65.45
-60.17
-50.61
-38.51
-25.68
-13.44
-2.36
7.63
16.76
25.03
32.1
37.47
40.85
42.31
42.39
41.85
41.33
41.08
40.92
40.35
38.88
36.27
32.68
28.65
24.88
21.98
20.17
19.25
18.63
17.61
15.74
12.97
9.71
6.49
3.67
1.18
-1.47
-5.04
-10.22
-17.44
-26.77
-37.9
-50.16
-62.48
-73.4
-81.18
-84.19
-81.41
-72.75
-59.19
-42.42
-24.32
-6.46
10.13
24.91
37.58
47.81
55.21
59.53
60.84
59.67
56.89
53.43
49.96
46.7
43.47
39.99
36.12
32.1
28.43
25.63
23.91
23.0
22.24
20.86
18.25
14.19
8.88
2.84
-3.35
-9.15
-14.28
-18.71
-22.69
-26.61
-30.88
-35.83
-41.63
-48.28
-55.51
-62.72
-68.95
-72.92
-73.34
-69.26
-60.47
-47.61
-32.08
-15.62
0.09
13.78
24.73
32.71
37.87
40.62
41.51
41.14
40.0
38.38
36.35
33.84
30.79
27.28
23.56
20.07
17.24
15.38
14.54
14.41
14.42
13.87
12.17
9.12
4.96
0.31
-4.16
-8.04
-11.35
-14.57
-18.37
-23.3
-29.57
-37.04
-45.17
-53.14
-59.95
-64.5
-65.77
-63.07
-56.27
-45.85
-32.83
-18.57
-4.44
8.41
19.23
27.61
33.47
36.9
38.13
37.44
35.23
32.05
28.53
25.25
22.61
20.6
18.92
17.16
15.07
12.81
10.82
9.63
9.45
10.01
10.55
10.08
7.81
3.48
-2.54
-9.39
-16.06
-21.76
-26.22
-29.76
-33.15
-37.21
-42.57
-49.43
-57.53
-66.22
-74.6
-81.57
-85.97
-86.73
-83.08
-74.79
-62.35
-46.87
-29.93
-13.13
2.16
15.06
25.2
32.69
37.89
41.25
43.18
43.88
43.45
41.92
39.4
36.15
32.59
29.17
26.24
24.04
22.56
21.66
21.1
20.61
19.9
18.67
16.67
13.78
10.03
5.65
0.98
-3.62
-7.95
-12.01
-16.03
-20.31
-25.16
-30.71
-37.1
-44.34
-52.36
-60.9
-69.25
-76.28
-80.49
-80.49
-75.49
-65.62
-51.98
-36.24
-20.17
-5.16
7.96
18.94
27.82
34.8
40.06
43.72
45.88
46.63
46.07
44.38
41.83
38.77
35.58
32.64
30.14
28.2
26.79
25.87
25.31
24.98
24.58
23.73
22.03
19.2
15.23
10.43
5.29
0.31
-4.31
-8.75
-13.46
-19.01
-25.87
-34.21
-43.81
-54.05
-63.92
-72.17
-77.39
-78.35
-74.31
-65.36
-52.44
-37.2
-21.54
-7.14
4.86
14.11
20.84
25.57
28.79
30.73
31.35
30.42
27.77
23.47
17.92
11.74
5.56
-0.16
-5.27
-9.88
-14.23
-18.43
-22.45
-26.05
-28.99
-31.17
-32.71
-34.0
-35.48
-37.43
-39.85
-42.45
-44.75
-46.31
-46.96
-46.83
-46.43
-46.28
-46.69
-47.47
-47.87
-46.76
-42.93
-35.47
-24.06
-9.17
8.17
26.46
44.09
59.68
72.23
81.33
87.06
89.83
90.12
88.44
85.16
80.63
75.24
69.41
63.57
58.09
53.27
49.2
45.94
43.42
41.47
39.77
37.88
35.41
32.22
28.64
25.41
23.54
23.87
26.7
31.54
37.2
42.17
45.14
45.54
43.7
40.9
38.93
39.54
43.89
52.05
63.01
74.86
85.4
92.84
96.28
95.88
92.56
87.6
82.1
76.69
71.44
66.0
59.75
52.01
42.41
31.0
18.43
5.69
-6.21
-16.6
-25.38
-32.79
-39.15
-44.58
-49.07
-52.61
-55.54
-58.41
-61.72
-65.49
-69.05
-71.31
-71.21
-68.42
-63.56
-58.25
-54.38
-53.45
-55.77
-60.24
-64.6
-66.22
-62.98
-54.09
-40.27
-23.37
-5.64
11.02
25.5
37.42
46.84
53.91
58.61
60.83
60.54
57.88
53.29
47.44
41.06
34.78
28.98
23.79
19.07
14.62
10.29
6.08
2.11
-1.56
-4.98
-8.44
-12.39
-17.24
-23.14
-29.9
-37.06
-44.06
-50.66
-57.02
-63.8
-71.7
-80.97
-90.93
-99.89
-105.54
-105.7
-99.2
-86.25
-68.48
-48.28
-28.08
-9.69
5.95
18.57
28.31
35.34
39.84
41.99
42.11
40.67
38.21
35.2
31.87
28.32
24.56
20.72
17.19
14.5
13.11
13.11
14.04
14.91
14.53
11.97
6.87
-0.38
-8.92
-17.67
-25.81
-32.96
-39.32
-45.41
-51.95
-59.45
-67.95
-76.82
-84.74
-90.02
-91.01
-86.69
-76.92
-62.51
-44.96
-26.03
-7.42
9.43
23.48
34.08
41.12
45.02
46.59
46.77
46.25
45.26
43.59
40.91
37.12
32.59
28.04
24.29
21.85
20.75
20.5
20.4
19.74
18.06
15.21
11.23
6.37
0.97
-4.58
-9.99
-15.12
-20.15
-25.52
-31.78
-39.22
-47.48
-55.3
-60.82
-62.05
-57.75
-47.96
-34.06
-18.35
-3.19
9.76
19.84
27.18
32.21
35.14
35.88
34.23
30.25
24.46
17.86
11.57
6.5
3.07
1.16
0.31
-0.05
-0.38
-0.94
-1.69
-2.47
-3.08
-3.45
-3.77
-4.36
-5.55
-7.45
-9.93
-12.74
-15.84
-19.59
-24.7
-31.7
-40.44
-49.6
-56.91
-59.79
-56.41
-46.37
-30.85
-12.08
7.44
25.71
41.57
54.54
64.51
71.42
75.2
75.93
73.94
69.92
64.74
59.31
54.25
49.87
46.12
42.79
39.63
36.47
33.26
29.88
26.21
22.01
17.1
11.43
5.26
-0.98
-6.78
-11.88
-16.39
-20.87
-26.21
-33.27
-42.47
-53.44
-64.81
-74.53
-80.31
-80.39
-74.1
-62.03
-45.9
-27.86
-9.97
6.35
20.34
31.79
40.71
47.03
50.7
51.62
49.85
45.67
39.59
32.33
24.66
17.24
10.52
4.75
-0.07
-4.01
-7.22
-9.87
-12.14
-14.15
-16.06
-17.98
-19.94
-21.98
-24.09
-26.25
-28.48
-30.85
-33.57
-36.95
-41.31
-46.6
-52.15
-56.55
-57.91
-54.56
-45.76
-32.16
-15.66
1.11
15.83
27.13
34.84
39.71
42.72
44.67
45.75
45.77
44.38
41.54
37.5
32.81
28.1
23.78
20.02
16.77
13.9
11.36
9.18
7.32
5.59
3.58
0.74
-3.31
-8.66
-14.95
-21.56
-27.85
-33.55
-38.95
-44.74
-51.82
-60.65
-70.92
-81.34
-89.9
-94.47
-93.45
-86.37
-73.92
-57.82
-40.08
-22.47
-6.16
8.36
20.97
31.66
40.25
46.44
49.98
50.89
49.56
46.65
42.9
38.97
35.36
32.37
30.19
28.8
28.06
27.61
26.91
25.43
22.74
18.75
13.58
7.56
1.0
-5.86
-12.93
-20.26
-27.99
-36.33
-45.44
-55.23
-65.18
-74.25
-80.97
-83.67
-80.96
-72.17
-57.61
-38.67
-17.48
3.56
22.25
37.13
47.6
53.92
56.91
57.47
56.35
53.99
50.62
46.42
41.68
36.78
32.14
28.1
24.8
22.15
19.97
18.03
16.18
14.31
12.26
9.82
6.72
2.76
-2.05
-7.41
-12.85
-17.93
-22.44
-26.47
-30.26
-33.73
-36.25
-36.55
-33.16
-25.0
-11.93
5.03
24.0
42.79
59.66
73.53
84.12
91.66
96.49
99.04
99.58
98.36
95.65
91.7
86.76
81.09
74.98
68.76
62.74
57.03
51.51
45.76
39.33
31.92
23.63
14.95
6.47
-1.32
-8.33
-14.87
-21.47
-28.62
-36.65
-45.64
-55.58
-66.34
-77.49
-88.21
-97.22
-102.93
-103.94
-99.44
-89.56
-75.38
-58.6
-41.08
-24.48
-10.05
1.38
9.27
13.45
14.1
11.86
7.68
2.73
-2.08
-6.16
-9.51
-12.46
-15.35
-18.24
-20.75
-22.31
-22.47
-21.34
-19.67
-18.61
-19.24
-22.05
-26.78
-32.58
-38.46
-43.81
-48.6
-53.35
-58.78
-65.45
-73.42
-81.99
-89.53
-93.76
-92.18
-82.88
-65.23
-40.35
-10.88
19.75
48.35
72.84
92.38
107.17
117.8
124.77
128.39
128.96
126.99
123.24
118.52
113.34
107.77
101.5
94.2
85.82
76.78
67.81
59.6
52.52
46.41
40.74
34.83
28.2
20.72
12.61
4.33
-3.67
-11.08
-17.84
-24.19
-30.57
-37.61
-45.78
-55.17
-65.17
-74.49
-81.24
-83.53
-80.02
-70.48
-55.92
-38.37
-20.23
-3.67
9.84
19.68
25.89
28.83
28.99
26.84
22.87
17.6
11.59
5.34
-0.8
-6.63
-12.03
-16.85
-20.85
-23.74
-25.32
-25.76
-25.56
-25.55
-26.49
-28.78
-32.19
-36.06
-39.48
-41.8
-42.83
-42.89
-42.58
-42.51
-43.11
-44.49
-46.43
-48.44
-49.74
-49.33
-46.18
-39.56
-29.31
-15.96
-0.63
15.17
30.0
42.75
52.76
59.87
64.29
66.48
67.03
66.42
64.94
62.62
59.38
55.19
50.32
45.36
41.04
38.01
36.47
36.19
36.47
36.52
35.68
33.61
30.3
25.92
20.76
15.11
9.3
3.54
-2.11
-7.87
-14.23
-21.69
-30.33
-39.36
-47.12
-51.36
-50.12
-42.51
-29.15
-12.03
6.21
23.24
37.59
48.77
56.87
62.12
64.46
63.74
59.9
53.41
45.25
36.65
28.74
22.16
16.99
12.86
9.24
5.63
1.73
-2.56
-7.23
-12.14
-17.13
-21.93
-26.3
-30.0
-32.96
-35.28
-37.28
-39.55
-42.77
-47.54
-54.05
-61.76
-69.28
-74.64
-75.75
-71.21
-60.83
-45.7
-27.85
-9.62
7.09
21.15
32.18
40.23
45.45
47.98
47.98
45.81
42.04
37.41
32.53
27.76
23.15
18.65
14.25
10.21
6.91
4.67
3.48
2.93
2.28
0.79
-1.98
-6.03
-10.95
-16.16
-21.15
-25.73
-30.1
-34.77
-40.42
-47.54
-56.19
-65.68
-74.53
-80.71
-82.14
-77.44
-66.4
-50.22
-31.16
-11.82
5.65
19.94
30.77
38.51
43.69
46.66
47.59
46.6
44.0
40.32
36.22
32.23
28.66
25.54
22.75
20.23
18.07
16.43
15.39
14.78
14.17
12.94
10.51
6.56
1.11
-5.38
-12.29
-18.98
-25.02
-30.34
-35.25
-40.41
-46.46
-53.79
-61.99
-69.76
-75.03
-75.49
-69.5
-56.65
-38.13
-16.34
5.79
25.78
42.14
54.44
63.0
68.31
70.69
70.25
67.2
61.98
55.49
48.79
42.79
37.91
33.99
30.6
27.38
24.32
21.67
19.78
18.71
18.04
16.99
14.73
10.8
5.31
-1.09
-7.58
-13.52
-18.72
-23.57
-28.78
-35.17
-43.3
-53.05
-63.55
-73.14
-79.77
-81.49
-77.12
-66.61
-51.26
-33.28
-15.22
0.8
13.46
22.48
28.23
31.45
32.79
32.67
31.26
28.74
25.4
21.72
18.42
16.13
15.3
16.01
17.99
20.78
23.85
26.8
29.38
31.41
32.71
32.98
31.92
29.28
24.94
19.02
11.8
3.54
-5.6
-15.69
-26.75
-38.43
-49.77
-59.18
-64.81
-65.22
-59.96
-49.93
-37.07
-23.67
-11.54
-1.5
6.68
13.74
20.35
26.62
31.98
35.62
36.91
35.75
32.6
28.28
23.64
19.17
15.09
11.39
8.18
5.66
4.11
3.67
4.13
4.79
4.66
2.81
-1.17
-6.94
-13.46
-19.36
-23.54
-25.7
-26.5
-27.3
-29.36
-33.17
-37.96
-41.89
-42.77
-38.82
-29.49
-15.58
1.13
18.52
34.78
48.79
60.02
68.25
73.34
75.05
73.21
67.93
59.84
50.06
40.01
31.04
24.08
19.45
16.83
15.57
14.94
14.4
13.61
12.49
10.98
8.99
6.36
2.89
-1.59
-7.07
-13.38
-20.19
-27.09
-33.66
-39.67
-45.16
-50.48
-56.08
-62.25
-68.71
-74.48
-78.02
-77.68
-72.31
-61.83
-47.43
-31.34
-16.19
-4.22
3.4
6.94
7.89
8.32
9.99
13.67
18.91
24.46
29.0
31.98
33.75
35.26
37.29
40.01
42.78
44.68
45.12
44.2
42.6
41.06
39.74
38.08
35.08
29.91
22.47
13.5
4.19
-4.31
-11.37
-17.11
-22.12
-27.18
-32.91
-39.63
-47.28
-55.26
-62.51
-67.47
-68.42
-63.97
-53.6
-38.01
-19.02
0.96
19.51
34.86
46.16
53.46
57.41
58.91
58.74
57.43
55.18
51.95
47.68
42.46
36.7
31.14
26.54
23.46
22.03
21.92
22.47
22.93
22.66
21.32
18.85
15.42
11.3
6.79
2.13
-2.58
-7.35
-12.41
-18.09
-24.7
-32.29
-40.44
-48.17
-54.04
-56.52
-54.5
-47.7
-36.81
-23.21
-8.6
5.51
17.98
28.1
35.45
39.74
40.86
38.89
34.32
27.99
20.95
14.2
8.45
4.01
0.8
-1.51
-3.25
-4.63
-5.65
-6.22
-6.35
-6.25
-6.39
-7.29
-9.35
-12.59
-16.74
-21.33
-26.07
-31.04
-36.64
-43.24
-50.73
-58.24
-64.16
-66.63
-64.17
-56.29
-43.71
-28.11
-11.6
3.85
16.88
26.85
33.63
37.42
38.46
37.0
33.39
28.15
21.93
15.49
9.49
4.34
0.25
-2.77
-4.85
-6.15
-6.93
-7.54
-8.34
-9.64
-11.62
-14.32
-17.59
-21.32
-25.38
-29.8
-34.84
-40.87
-48.32
-57.29
-67.25
-76.75
-83.59
-85.44
-80.64
-68.95
-51.71
-31.49
-11.14
7.04
21.87
33.17
41.44
47.22
50.87
52.46
51.98
49.56
45.54
40.5
35.09
29.92
25.48
21.98
19.41
17.48
15.81
14.0
11.85
9.36
6.67
4.02
1.46
-1.16
-4.28
-8.46
-14.21
-21.76
-30.94
-41.12
-51.3
-60.2
-66.47
-68.93
-66.73
-59.5
-47.48
-31.53
-13.05
6.18
24.3
39.75
51.52
59.32
63.46
64.69
63.88
61.73
58.7
54.9
50.35
45.1
39.4
33.74
28.74
25.01
22.8
21.98
21.95
21.89
20.96
18.57
14.58
9.31
3.34
-2.69
-8.35
-13.59
-18.78
-24.57
-31.64
-40.39
-50.67
-61.51
-71.21
-77.59
-78.62
-72.97
-60.59
-42.82
-22.01
-0.9
18.21
33.92
45.88
54.4
60.04
63.24
64.19
63.07
60.13
55.97
51.36
46.98
43.23
40.11
37.38
34.77
32.22
29.96
28.31
27.47
27.27
27.12
26.19
23.73
19.37
13.35
6.35
-0.7
-7.01
-12.27
-16.73
-21.15
-26.46
-33.43
-42.3
-52.55
-62.81
-71.06
-75.1
-73.16
-64.5
-49.74
-30.77
-10.2
9.38
26.1
39.15
48.57
54.94
58.83
60.61
60.38
58.24
54.43
49.48
44.14
39.08
34.73
31.17
28.24
25.66
23.32
21.34
19.94
19.29
19.22
19.24
18.55
16.46
12.61
7.21
0.95
-5.36
-11.03
-15.91
-20.41
-25.32
-31.46
-39.17
-47.97
-56.47
-62.74
-64.73
-61.03
-51.3
-36.49
-18.58
-0.03
16.95
30.8
40.84
47.23
50.56
51.55
50.79
48.66
45.32
40.98
35.89
30.45
25.24
20.79
17.5
15.47
14.46
14.01
13.68
13.15
12.31
11.22
9.89
8.19
5.89
2.75
-1.29
-6.0
-10.99
-15.91
-20.62
-25.4
-30.73
-37.02
-44.29
-51.89
-58.53
-62.59
-62.6
-57.69
-47.95
-34.42
-18.83
-3.16
10.88
22.13
30.09
34.83
36.86
36.78
35.24
32.75
29.62
26.02
22.04
17.79
13.52
9.6
6.45
4.4
3.58
3.81
4.65
5.48
5.72
4.97
3.08
0.18
-3.44
-7.42
-11.57
-15.78
-20.1
-24.64
-29.55
-35.04
-41.23
-48.0
-54.76
-60.38
-63.35
-62.19
-56.04
-45.1
-30.71
-14.95
0.02
12.58
22.06
28.59
32.77
35.13
35.92
35.06
32.48
28.34
23.23
18.0
13.43
9.97
7.55
5.76
4.16
2.54
1.08
0.08
-0.29
-0.35
-0.71
-2.13
-5.09
-9.51
-14.87
-20.37
-25.38
-29.68
-33.59
-37.73
-42.79
-49.17
-56.76
-64.86
-72.15
-77.07
-78.05
-74.12
-65.08
-51.67
-35.46
-18.38
-2.33
11.26
21.56
28.41
32.16
33.46
33.0
31.38
29.0
26.04
22.62
18.88
15.04
11.41
8.27
5.85
4.16
3.1
2.44
1.96
1.48
0.83
-0.19
-1.86
-4.41
-8.03
-12.65
-18.03
-23.75
-29.42
-34.87
-40.29
-46.16
-52.97
-60.84
-69.17
-76.61
-81.29
-81.46
-76.09
-65.34
-50.44
-33.31
-15.91
0.25
14.25
25.64
34.23
39.89
42.56
42.46
40.17
36.54
32.58
29.0
26.11
23.76
21.56
19.16
16.53
13.99
12.03
11.07
11.06
11.47
11.48
10.28
7.44
3.1
-2.19
-7.68
-12.85
-17.56
-22.13
-27.09
-33.02
-40.24
-48.8
-58.35
-68.16
-77.08
-83.67
-86.42
-84.11
-76.17
-62.94
-45.65
-26.15
-6.52
11.44
26.4
37.66
45.07
48.92
49.77
48.32
45.27
41.29
36.94
32.58
28.39
24.39
20.58
17.07
14.17
12.29
11.74
12.48
13.96
15.15
14.96
12.65
8.15
2.18
-4.14
-9.82
-14.42
-18.39
-22.83
-28.99
-37.64
-48.52
-60.13
-70.11
-75.93
-75.59
-68.32
-54.75
-36.63
-16.32
3.88
22.31
37.99
50.55
59.91
66.0
68.83
68.49
65.38
60.22
53.99
47.59
41.69
36.58
32.21
28.45
25.25
22.68
20.82
19.71
19.09
18.52
17.42
15.32
12.02
7.58
2.25
-3.69
-10.01
-16.63
-23.59
-31.06
-39.37
-48.8
-59.37
-70.51
-80.81
-88.16
-90.19
-85.09
-72.34
-53.04
-29.61
-5.13
17.57
36.53
50.95
60.99
67.28
70.64
71.62
70.61
67.86
63.67
58.42
52.61
46.73
41.21
36.4
32.54
29.82
28.35
28.0
28.37
28.78
28.38
26.5
22.87
17.67
11.49
5.04
-1.13
-6.83
-12.27
-17.99
-24.62
-32.68
-42.37
-53.38
-64.77
-75.02
-82.19
-84.41
-80.29
-69.37
-52.29
-30.73
-7.05
16.24
36.92
53.39
64.93
71.61
74.12
73.58
71.07
67.49
63.34
58.77
53.78
48.42
42.87
37.52
32.85
29.29
27.11
26.28
26.51
27.22
27.68
27.11
24.89
20.82
15.14
8.49
1.66
-4.71
-10.37
-15.56
-20.93
-27.33
-35.43
-45.45
-56.91
-68.59
-78.65
-84.97
-85.71
-79.75
-67.08
-48.85
-27.13
-4.41
16.95
35.17
49.28
59.05
64.78
67.12
66.76
64.39
60.63
55.97
50.8
45.4
39.94
34.6
29.62
25.32
22.03
19.98
19.11
19.06
19.15
18.63
16.87
13.59
8.96
3.4
-2.49
-8.19
-13.45
-18.35
-23.29
-28.85
-35.68
-44.17
-54.14
-64.64
-73.88
-79.55
-79.55
-72.64
-58.97
-40.14
-18.76
2.44
21.21
36.34
47.56
55.22
59.82
61.8
61.39
58.79
54.38
48.69
42.45
36.33
30.84
26.19
22.41
19.42
17.2
15.76
15.0
14.68
14.26
13.09
10.65
6.75
1.68
-3.94
-9.39
-14.26
-18.62
-23.01
-28.29
-35.22
-44.05
-54.15
-64.06
-71.7
-74.99
-72.46
-63.7
-49.51
-31.63
-12.19
6.75
23.62
37.43
47.66
54.17
57.09
56.8
53.9
49.19
43.53
37.65
32.07
27.01
22.53
18.55
15.04
12.03
9.67
8.03
7.07
6.55
6.02
4.9
2.66
-1.01
-6.08
-12.16
-18.65
-24.99
-30.88
-36.58
-42.77
-50.29
-59.56
-70.09
-80.21
-87.42
-89.08
-83.39
-70.15
-50.97
-28.69
-6.55
12.92
28.41
39.86
47.91
53.36
56.6
57.67
56.43
52.96
47.72
41.55
35.4
29.97
25.59
22.2
19.55
17.38
15.55
13.99
12.67
11.39
9.88
7.81
4.94
1.18
-3.37
-8.55
-14.23
-20.36
-27.13
-34.82
-43.67
-53.63
-64.01
-73.42
-79.92
-81.51
-76.72
-65.26
-48.15
-27.49
-5.89
14.25
31.15
43.89
52.26
56.61
57.62
56.15
53.08
49.18
44.9
40.35
35.4
29.93
24.11
18.51
13.94
11.13
10.26
10.88
11.94
12.26
10.98
7.9
3.41
-1.7
-6.8
-11.62
-16.36
-21.53
-27.77
-35.55
-44.97
-55.51
-66.01
-74.65
-79.37
-78.37
-70.73
-56.82
-38.3
-17.67
2.44
20.02
34.01
44.25
51.13
55.14
56.61
55.67
52.47
47.3
40.85
34.03
27.74
22.62
18.91
16.45
14.79
13.44
12.0
10.28
8.26
6.01
3.61
1.01
-1.96
-5.57
-9.99
-15.29
-21.28
-27.79
-34.73
-42.31
-50.74
-59.88
