30.8
32.1
32.77
32.06
29.55
25.19
19.33
12.6
5.68
-0.94
-7.06
-12.81
-18.54
-24.62
-31.33
-38.81
-47.16
-56.45
-66.51
-76.76
-85.93
-92.21
-93.68
-88.87
-77.41
-60.21
-39.28
-17.08
4.06
22.5
37.36
48.35
55.57
59.33
60.13
58.62
55.57
51.74
47.76
43.89
40.12
36.26
32.19
28.06
24.3
21.5
20.09
20.13
21.1
22.13
22.19
20.51
16.87
11.67
5.69
-0.25
-5.63
-10.45
-15.12
-20.28
-26.53
-34.28
-43.62
-54.21
-65.19
-75.1
-82.11
-84.33
-80.42
-70.1
-54.31
-34.93
-14.34
5.32
22.5
36.36
46.65
53.32
56.55
56.59
53.94
49.34
43.71
37.94
32.69
28.31
24.75
21.87
19.51
17.69
16.59
16.35
16.93
17.97
18.74
18.39
16.17
11.73
5.32
-2.25
-9.9
-16.68
-22.17
-26.62
-31.0
-36.55
-44.33
-54.68
-66.86
-79.0
-88.57
-93.02
-90.52
-80.61
-64.24
-43.55
-21.18
0.44
19.56
35.3
47.45
56.13
61.51
63.73
62.99
59.75
54.79
49.13
43.77
39.35
36.0
33.31
30.73
27.84
24.65
21.62
19.33
18.18
18.05
18.24
17.71
15.45
10.92
4.25
-3.79
-12.06
-19.5
-25.56
-30.43
-35.01
-40.64
-48.49
-59.08
-71.81
-84.91
-95.82
-101.87
-101.07
-92.67
-77.41
-57.16
-34.4
-11.55
9.52
27.64
42.33
53.5
61.25
65.76
67.32
66.37
63.51
59.49
55.06
50.83
47.1
43.87
40.97
38.2
35.53
33.05
31.01
29.54
28.58
27.82
26.71
24.69
21.25
16.19
9.61
1.97
-6.06
-13.79
-20.7
-26.71
-32.15
-37.77
-44.44
-52.92
-63.44
-75.51
-87.78
-98.2
-104.43
-104.5
-97.38
-83.37
-64.0
-41.61
-18.68
2.71
21.29
36.47
48.16
56.52
61.83
64.41
64.71
63.24
60.57
57.25
53.71
50.29
47.16
44.46
42.27
40.66
39.64
39.18
39.17
39.44
39.72
39.66
38.83
36.81
33.24
28.03
21.35
13.7
5.76
-1.78
-8.56
-14.63
-20.51
-27.02
-35.05
-45.18
-57.35
-70.61
-83.11
-92.47
-96.29
-92.97
-82.21
-65.22
-44.31
-22.18
-1.16
17.24
32.42
44.33
53.08
58.73
61.24
60.77
57.81
53.23
48.02
42.97
38.49
34.6
31.09
27.75
24.6
21.89
19.99
19.12
19.21
19.7
19.75
18.46
15.24
10.08
3.51
-3.5
-10.03
-15.52
-20.1
-24.48
-29.66
-36.57
-45.63
-56.48
-67.86
-77.83
-84.11
-84.76
-78.74
-66.24
-48.68
-28.34
-7.7
11.15
26.87
38.92
47.35
52.48
54.68
54.33
51.82
47.64
42.37
36.61
30.87
25.57
20.93
17.16
14.42
12.83
12.4
12.85
13.69
14.23
13.82
12.03
8.8
4.38
-0.77
-6.15
-11.47
-16.69
-22.08
-28.15
-35.47
-44.34
-54.45
-64.74
-73.38
-78.25
-77.52
-70.24
-56.76
-38.68
-18.32
1.81
19.73
34.24
44.91
51.9
55.66
56.7
55.54
52.69
48.67
44.01
39.18
34.49
30.09
26.04
22.42
19.42
17.3
16.22
16.07
16.37
16.32
15.11
12.17
7.43
1.27
-5.63
-12.58
-19.15
-25.3
-31.42
-38.22
-46.45
-56.55
-68.19
-80.03
-89.8
-94.84
-93.02
-83.46
-67.05
-46.08
-23.49
-1.97
16.68
31.77
43.34
51.73
57.18
59.75
59.5
56.73
52.15
46.66
41.16
36.27
32.17
28.7
25.52
22.47
19.61
17.22
15.6
14.76
14.31
13.5
11.48
7.62
1.81
-5.55
-13.61
-21.46
-28.48
-34.7
-40.79
-47.9
-57.18
-69.09
-82.95
-96.8
-107.77
-113.02
-110.69
-100.62
-84.4
-64.78
-44.69
-26.43
-11.15
1.0
10.39
17.39
22.0
24.01
23.13
19.37
13.11
5.09
-3.74
-12.37
-19.76
-24.84
-26.64
-24.51
-18.35
-8.89
2.48
13.99
24.06
31.73
36.85
39.81
41.14
41.1
39.47
35.71
29.22
19.73
7.37
-7.43
-24.11
-42.11
-60.83
-79.43
-96.52
-110.19
-118.26
-118.84
-111.01
-95.25
-73.44
-48.44
-23.36
-0.81
17.74
32.14
43.3
52.53
60.96
68.95
76.14
81.89
85.87
88.56
91.08
94.71
100.2
107.4
115.45
123.36
130.57
137.17
143.62
150.15
156.35
161.16
163.38
162.33
158.23
152.06
144.95
137.48
129.33
119.34
106.22
89.26
68.92
46.91
25.87
8.62
-2.52
-6.29
-2.72
6.95
20.57
35.53
49.33
59.95
66.19
67.62
64.58
57.89
48.73
38.37
28.08
18.85
11.17
4.86
-0.89
-7.17
-14.79
-23.77
-33.21
-41.55
-47.28
-49.74
-49.44
-47.85
-46.67
-46.91
-48.47
-50.25
-50.88
-49.55
-46.65
-43.59
-42.2
-43.83
-48.46
-54.61
-59.57
-60.36
-54.64
-41.47
-21.49
3.25
29.76
54.71
74.81
87.48
91.31
86.42
74.58
58.46
40.74
23.11
5.81
-11.98
-31.11
-51.74
-72.99
-93.36
-111.52
-126.91
-139.73
-150.41
-159.03
-164.97
-167.2
-165.1
-158.92
-150.01
-140.34
-131.9
-125.97
-123.07
-122.96
-125.05
-128.75
-133.27
-137.56
-139.97
-138.52
-131.54
-118.27
-99.38
-76.71
-52.67
-29.48
-8.61
9.3
24.11
35.8
44.32
49.52
51.52
50.89
48.64
45.98
44.03
43.43
44.28
46.1
48.12
49.8
51.03
52.23
53.95
56.4
59.07
60.63
59.46
54.33
45.07
32.76
19.27
6.47
-4.7
-14.41
-23.71
-33.63
-44.35
-54.74
-62.62
-65.55
-61.77
-51.01
-34.61
-15.08
4.73
22.39
36.51
46.71
53.45
57.55
59.61
59.95
58.56
55.35
50.36
43.87
36.35
28.4
20.63
13.54
7.55
2.9
-0.44
-2.78
-4.78
-7.19
-10.62
-15.17
-20.47
-25.83
-30.59
-34.5
-37.86
-41.43
-46.05
-52.39
-60.59
-70.18
-80.08
-88.75
-94.48
-95.69
-91.44
-81.59
-66.96
-49.04
-29.56
-10.12
8.09
24.25
37.78
48.14
54.97
58.16
58.11
55.77
52.38
49.02
46.29
44.16
42.12
39.59
36.3
32.43
28.56
25.24
22.88
21.36
20.22
18.85
16.68
13.41
9.09
3.99
-1.55
-7.14
-12.72
-18.51
-24.95
-32.44
-40.98
-49.84
-57.58
-62.33
-62.37
-56.73
-45.64
-30.47
-13.31
3.61
18.58
30.65
39.58
45.65
49.31
50.9
50.63
48.65
45.18
40.6
35.4
30.1
25.11
20.79
17.38
14.97
13.55
12.86
12.48
11.85
10.47
8.03
4.58
0.51
-3.78
-7.97
-12.07
-16.28
-21.07
-26.95
-34.33
-43.21
-52.95
-62.15
-68.85
-71.07
-67.38
-57.56
-42.79
-25.16
-7.09
9.59
23.9
35.69
45.13
52.44
57.57
60.34
60.67
58.71
54.89
49.84
44.24
38.62
33.45
29.08
25.71
23.4
21.97
21.07
20.28
19.25
17.65
15.43
12.67
9.56
6.32
2.99
-0.56
-4.66
-9.71
-16.01
-23.58
-31.93
-40.12
-46.75
-50.38
-49.73
-44.18
-33.8
-19.29
-1.91
16.96
36.0
54.09
70.25
83.66
93.59
99.62
101.74
100.4
96.38
90.52
83.5
75.59
66.79
57.02
46.38
35.29
24.43
14.46
5.79
-1.6
-8.08
-14.22
-20.54
-27.33
-34.58
-42.03
-49.14
-55.42
-60.51
-64.52
-68.06
-72.14
-77.65
-84.89
-93.05
-100.22
-103.99
-102.26
-94.03
-79.86
-61.59
-41.73
-22.67
-6.04
7.52
18.22
26.64
33.35
38.65
42.53
44.8
45.31
44.13
41.71
38.76
36.05
34.21
33.53
33.96
35.13
36.52
37.66
38.15
37.83
36.82
35.3
33.51
31.63
29.69
27.58
24.98
21.39
16.34
9.48
0.7
-9.79
-21.31
-32.82
-42.98
-50.39
-53.84
-52.52
-46.17
-35.12
-20.33
-3.21
14.63
31.67
46.69
58.99
68.34
74.84
78.68
80.0
78.63
74.3
67.02
57.32
46.52
36.55
29.44
26.57
28.14
32.8
38.14
41.45
40.72
35.27
25.98
14.88
4.45
-3.04
-6.11
-4.42
1.33
9.52
18.21
25.68
31.13
35.02
39.02
45.44
56.43
73.34
96.34
124.44
155.7
187.64
217.6
243.11
262.14
273.42
276.45
271.47
259.24
240.86
217.78
191.75
164.85
139.12
116.1
96.26
78.83
62.03
43.71
22.14
-3.47
-32.73
-64.27
-96.13
-126.36
-153.53
-177.08
-197.58
-216.35
-234.82
-253.61
-271.75
-286.85
-295.92
-296.78
-289.24
-275.49
-259.41
-245.28
-236.56
-234.88
-240.03
-250.24
-262.86
-274.96
-283.76
-287.01
-283.08
-271.03
-250.65
-222.66
-188.72
-151.63
-114.97
-82.34
-56.35
-37.76
-25.45
-17.02
-10.15
-3.51
2.86
7.95
10.75
10.97
9.22
6.66
4.33
2.74
1.73
0.81
-0.55
-2.63
-5.34
-8.34
-11.07
-12.85
-12.98
-10.81
-5.81
2.23
13.15
26.44
41.3
56.79
71.86
85.56
97.06
105.73
111.08
112.7
110.28
103.83
93.75
80.94
66.62
51.94
37.72
24.37
12.11
1.18
-7.82
-14.17
-17.39
-17.61
-15.67
-12.85
-10.32
-8.66
-8.0
-8.16
-9.13
-11.3
-15.24
-21.3
-29.22
-37.99
-46.13
-52.11
-54.77
-53.57
-48.5
-39.94
-28.63
-15.52
-1.91
10.7
20.87
27.5
30.16
29.16
25.45
20.23
14.72
9.95
6.68
5.41
6.44
9.74
14.96
21.42
28.06
33.75
37.43
38.46
36.88
33.49
29.7
27.05
26.59
28.45
31.84
35.48
38.3
40.1
41.54
43.68
47.18
51.81
56.36
59.27
59.31
56.19
50.58
43.75
37.02
31.19
26.37
22.07
17.47
11.81
4.73
-3.62
-12.53
-20.91
-27.54
-31.52
-32.43
-30.58
-26.83
-22.48
-18.87
-17.07
-17.53
-20.03
-23.89
-28.24
-32.49
-36.43
-40.4
-44.91
-50.33
-56.5
-62.57
-67.07
-68.35
-65.01
-56.39
-42.78
-25.41
-6.15
12.92
30.11
44.46
55.79
64.47
71.06
75.94
79.2
80.65
80.04
77.28
72.64
66.71
60.22
53.94
48.4
43.86
40.22
37.09
33.94
30.23
25.66
20.22
14.17
7.9
1.74
-4.19
-10.06
-16.13
-22.7
-29.98
-38.06
-46.92
-56.4
-65.93
-74.48
-80.59
-82.61
-79.28
-70.18
-55.95
-38.17
-18.84
0.14
17.37
32.0
43.72
52.57
58.77
62.63
64.51
64.69
63.37
60.72
56.94
52.39
47.55
42.94
39.07
36.26
34.56
33.72
33.27
32.55
30.94
28.04
23.8
18.53
12.8
7.1
1.68
-3.66
-9.48
-16.4
-24.72
-34.12
-43.51
-51.24
-55.49
-54.83
-48.8
-37.97
-23.86
-8.36
6.75
20.37
31.96
41.48
48.98
54.38
57.51
58.23
56.73
53.55
49.45
45.08
40.81
36.64
32.45
28.19
24.05
20.46
17.79
16.11
15.03
13.84
11.83
8.67
4.49
-0.24
-5.03
-9.71
-14.6
-20.23
-27.11
-35.14
-43.44
-50.49
-54.55
-54.17
-48.81
-38.94
-25.94
-11.66
2.14
14.22
24.03
31.6
37.16
40.94
42.94
43.06
41.21
37.57
32.67
27.17
21.81
17.07
13.19
10.19
7.99
6.43
5.32
4.36
3.27
1.82
-0.11
-2.5
-5.22
-8.2
-11.47
-15.23
-19.79
-25.37
-32.01
-39.43
-46.92
-53.45
-57.78
-58.8
-55.83
-48.82
-38.46
-25.87
-12.38
0.8
12.78
22.91
30.83
36.3
39.26
39.84
38.41
35.47
31.65
27.49
23.41
19.7
16.47
13.75
11.52
9.68
8.15
6.85
5.65
4.43
3.09
1.45
-0.56
-3.08
-6.17
-9.89
-14.15
-18.79
-23.55
-28.18
-32.63
-37.12
-42.04
-47.72
-54.04
-60.18
-64.62
-65.67
-62.01
-53.31
-40.41
-25.15
-9.68
4.1
15.12
23.21
28.83
32.66
35.19
36.53
36.48
34.78
31.39
26.64
21.24
16.03
11.73
8.68
6.88
5.99
5.59
5.35
5.04
4.54
3.77
2.59
0.77
-1.82
-5.21
-9.28
-13.75
-18.36
-22.94
-27.5
-32.19
-37.3
-43.11
-49.69
-56.71
-63.38
-68.49
-70.73
-69.01
-62.83
-52.49
-38.97
-23.73
-8.37
5.69
17.32
25.88
31.18
33.55
33.68
32.42
30.52
28.44
26.2
23.58
20.37
16.61
12.66
9.09
6.45
4.98
4.54
4.66
4.79
4.39
3.18
1.07
-1.86
-5.41
-9.37
-13.51
-17.69
-21.87
-26.2
-30.94
-36.42
-42.85
-50.28
-58.32
-66.22
-72.86
-76.93
-77.29
-73.22
-64.73
-52.5
-37.8
-22.05
-6.66
7.3
19.1
28.29
34.64
38.12
38.94
37.54
34.57
30.78
26.83
23.22
20.1
17.4
14.94
12.52
10.18
8.16
6.82
6.37
6.68
7.19
7.05
5.49
2.15
-2.71
-8.37
-13.92
-18.76
-22.82
-26.63
-31.09
-36.99
-44.68
-53.8
-63.29
-71.55
-76.85
-77.74
-73.43
-63.97
-50.25
-33.74
-16.15
0.92
16.24
29.02
38.88
45.73
49.64
50.84
49.71
46.73
42.49
37.6
32.58
27.87
23.68
20.16
17.39
15.43
14.25
13.73
13.57
13.34
12.61
10.95
8.18
4.24
-0.65
-6.14
-11.83
-17.34
-22.51
-27.53
-33.01
-39.74
-48.31
-58.52
-69.17
-78.15
-83.03
-81.92
-74.14
-60.48
-42.84
-23.63
-4.89
12.01
26.47
38.36
47.6
54.06
57.52
57.96
55.66
51.31
45.81
40.07
34.75
30.13
26.2
22.84
20.0
17.75
16.27
15.7
15.94
16.56
16.86
16.05
13.59
9.41
3.94
-2.06
-7.88
-13.15
-18.1
-23.48
-30.18
-38.76
-49.03
-59.78
-69.12
-74.87
-75.16
-69.05
-56.75
-39.58
-19.6
0.86
19.77
35.68
47.95
56.58
61.98
64.67
65.04
63.31
59.65
54.32
47.83
40.92
34.43
29.08
25.31
23.17
22.28
22.04
21.74
20.88
19.23
16.85
14.02
11.04
8.0
4.77
1.04
-3.53
-9.1
-15.68
-23.2
-31.55
-40.57
-49.83
-58.38
-64.77
-67.28
-64.42
-55.55
-41.17
-22.93
-3.07
16.11
32.86
46.24
55.98
62.24
65.3
65.5
63.17
58.77
52.94
46.43
39.99
34.14
29.17
25.1
21.91
19.55
17.98
17.13
16.75
16.34
15.29
13.05
9.33
4.23
-1.79
-8.1
-14.14
-19.68
-24.91
-30.5
-37.25
-45.83
-56.21
-67.37
-77.33
-83.54
-83.76
-76.74
-62.76
-43.54
-21.71
-0.03
19.37
35.33
47.62
56.51
62.5
65.9
66.85
65.41
61.76
56.37
49.95
43.4
37.41
32.49
28.75
26.12
24.41
23.43
23.02
22.85
22.43
21.19
18.68
14.79
9.77
4.16
-1.55
-7.13
-12.76
-18.83
-25.82
-34.03
-43.47
-53.72
-63.84
-72.49
-77.96
-78.59
-73.15
-61.34
-43.99
-22.97
-0.83
19.89
37.15
49.83
57.79
61.66
62.52
61.47
59.32
56.49
53.09
49.07
44.45
39.48
34.62
30.48
27.55
26.02
25.72
26.15
26.66
26.55
25.33
22.68
18.56
13.1
6.7
-0.16
-6.93
-13.24
-19.02
-24.62
-30.77
-38.22
-47.4
-57.94
-68.61
-77.4
-82.02
-80.62
-72.36
-57.71
-38.34
-16.65
4.98
24.64
41.15
54.03
63.14
68.64
70.79
70.03
67.02
62.59
57.56
52.53
47.81
43.4
39.27
35.5
32.35
30.2
29.29
29.53
30.41
31.14
30.82
28.85
25.02
19.56
13.06
6.19
-0.56
-6.98
-13.29
-20.07
-28.03
-37.75
-49.32
-62.01
-74.31
-84.06
-89.05
-87.65
-79.37
-65.01
-46.45
-26.12
-6.31
11.21
25.4
35.89
42.75
46.31
47.07
45.65
42.71
38.88
34.59
30.08
25.43
20.76
16.39
12.77
10.4
9.56
10.09
11.4
12.67
13.08
12.11
9.64
5.82
1.0
-4.41
-10.04
-15.61
-20.97
-26.16
-31.46
-37.37
-44.51
-53.25
-63.42
-74.04
-83.37
-89.19
-89.53
-83.26
-70.53
-52.71
-32.01
-10.82
8.93
26.03
39.92
50.45
57.58
61.31
61.74
59.29
54.77
49.3
43.95
39.43
35.88
32.99
30.26
27.37
24.51
22.14
20.78
20.61
21.25
21.89
21.55
19.48
15.46
9.83
3.34
-3.21
-9.21
-14.52
-19.42
-24.51
-30.58
-38.26
-47.83
-58.87
-70.22
-79.96
-85.93
-86.21
-79.83
-67.04
-49.31
-28.87
-8.0
11.44
28.28
41.95
52.25
59.13
62.65
62.94
60.42
55.81
50.04
44.07
38.7
34.37
31.08
28.51
26.15
23.71
21.21
19.01
17.52
16.94
16.93
16.62
15.01
11.29
5.33
-2.28
-10.44
-17.98
-24.17
-29.07
-33.48
-38.64
-45.71
-55.13
-66.31
-77.44
-85.96
-89.3
-85.71
-74.79
-57.7
-36.7
-14.47
6.58
24.82
39.44
50.28
57.53
61.51
62.59
61.19
57.83
53.1
47.53
41.61
35.76
30.3
25.52
21.71
19.06
17.65
17.27
17.47
17.61
17.0
15.17
11.9
7.37
1.99
-3.74
-9.43
-14.9
-20.24
-25.69
-31.62
-38.44
-46.45
-55.62
-65.35
-74.32
-80.64
-82.34
-77.94
-67.08
-50.66
-30.63
-9.39
10.85
28.47
42.58
52.87
59.41
62.53
62.71
60.55
56.72
51.91
46.69
41.46
36.44
31.76
27.48
23.78
20.94
19.19
18.6
18.93
19.56
19.57
18.09
14.59
9.15
2.45
-4.55
-10.91
-16.2
-20.64
-24.93
-30.04
-36.75
-45.37
-55.56
-66.37
-76.29
-83.56
-86.48
-83.77
-75.01
-60.72
-42.36
-21.96
-1.63
16.83
32.15
43.67
51.22
54.99
55.41
53.13
48.9
43.48
37.56
31.64
26.09
21.15
17.0
13.81
11.67
10.52
10.14
10.18
10.16
9.64
8.31
6.02
2.8
-1.2
-5.76
-10.64
-15.75
-21.19
-27.32
-34.65
-43.52
-53.69
-64.06
-72.7
-77.29
-75.88
-67.55
-52.81
-33.48
-12.16
8.56
26.64
40.89
50.96
57.11
59.91
60.03
58.02
54.33
49.3
43.3
36.81
30.42
24.69
20.09
16.81
14.73
13.48
12.61
11.68
10.39
8.49
5.83
2.33
-2.04
-7.13
-12.71
-18.51
-24.32
-30.17
-36.35
-43.41
-51.81
-61.57
-71.89
-81.06
-86.76
-86.78
-79.76
-65.85
-46.66
-24.82
-3.15
16.19
32.05
44.21
52.96
58.65
61.49
61.59
59.21
54.85
49.33
43.55
38.22
33.67
29.89
26.71
24.0
21.77
20.15
19.16
18.59
17.94
16.54
13.79
9.44
3.71
-2.73
-9.1
-14.83
-19.86
-24.65
-30.09
-37.08
-46.08
-56.82
-68.11
-78.03
-84.41
-85.34
-79.75
-67.71
-50.47
-30.06
-8.85
11.07
28.15
41.55
51.05
56.8
59.2
58.78
56.19
52.13
47.32
42.35
37.58
33.17
29.1
25.42
22.28
19.94
18.61
18.32
18.76
19.28
19.08
17.42
13.96
8.79
2.5
-4.15
-10.42
-15.93
-20.81
-25.66
-31.37
-38.76
-48.23
-59.3
-70.56
-79.78
-84.46
-82.6
-73.44
-57.78
-37.85
-16.53
3.53
20.56
33.96
43.95
51.12
55.91
58.46
58.73
56.77
52.94
47.89
42.45
37.34
33.0
29.51
26.75
24.48
22.59
21.07
19.95
19.13
18.35
17.08
14.8
11.15
6.14
0.14
-6.24
-12.42
-18.15
-23.66
-29.57
-36.65
-45.31
-55.2
-65.01
-72.66
-75.83
-72.72
-62.77
-46.85
-27.06
-6.1
13.57
30.2
42.98
51.89
57.33
59.84
59.95
58.17
55.06
51.15
46.9
42.61
38.39
34.3
30.41
26.93
24.13
22.29
21.49
21.47
21.63
21.15
19.25
15.53
10.1
3.57
-3.21
-9.51
-14.94
-19.64
-24.15
-29.22
-35.51
-43.35
-52.55
-62.27
-71.1
-77.23
-78.94
-75.06
-65.34
-50.66
-32.72
-13.61
4.7
20.67
33.46
42.71
48.48
51.01
50.68
47.97
43.52
38.06
32.3
26.86
22.15
18.39
15.61
13.72
12.54
11.85
11.42
10.97
10.22
8.9
6.79
3.78
-0.12
-4.77
-9.89
-15.2
-20.49
-25.88
-31.8
-38.76
-47.05
-56.15
-64.63
-70.38
-71.2
-65.7
-53.83
-37.05
-17.8
1.26
18.07
31.52
41.39
48.02
51.84
53.22
52.37
49.58
45.29
40.08
34.59
29.34
24.71
20.89
17.94
15.84
14.47
13.62
13.01
12.25
10.92
8.67
5.26
0.67
-4.91
-11.05
-17.27
-23.08
-28.24
-32.89
-37.56
-43.13
-50.41
-59.66
-70.21
-80.31
-87.47
-89.2
-83.9
-71.49
-53.5
-32.53
-11.41
7.7
23.67
36.3
45.95
52.99
57.61
59.77
59.5
57.09
53.16
48.53
43.92
39.79
36.21
33.04
30.1
27.37
25.01
23.21
22.05
21.29
20.48
18.98
16.29
12.15
6.65
0.21
-6.63
-13.26
-19.35
-24.85
-30.11
-35.78
-42.58
-50.93
-60.65
-70.65
-79.1
-83.76
-82.69
-74.93
-60.88
-42.23
-21.48
-1.2
16.68
31.14
42.05
49.83
55.01
57.97
58.95
58.11
55.7
52.12
47.92
43.65
39.81
36.69
34.41
32.87
31.91
31.26
30.71
30.06
29.15
27.9
26.2
23.95
21.03
17.23
12.44
6.65
0.09
-6.84
-13.59
-19.69
-24.92
-29.45
-33.8
-38.7
-44.85
-52.62
-61.8
-71.48
-80.09
-85.7
-86.48
-81.26
-69.9
-53.44
-33.83
-13.43
5.64
21.89
34.68
44.03
50.37
54.2
55.88
55.6
53.54
49.93
45.19
39.97
34.95
30.7
27.49
25.28
23.8
22.72
21.86
21.12
20.53
19.98
19.18
17.71
15.21
11.5
6.73
1.29
-4.38
-9.85
-14.95
-19.69
-24.31
-29.25
-35.05
-42.23
-50.93
-60.7
-70.16
-77.25
-79.71
-75.87
-65.31
-49.16
-29.77
-9.97
7.83
22.2
32.83
40.17
44.89
47.45
48.0
46.57
43.32
38.67
33.32
27.96
23.15
19.21
16.16
13.94
12.39
11.37
10.67
10.08
9.31
8.08
6.15
3.33
-0.42
-5.01
-10.22
-15.73
-21.19
-26.44
-31.58
-36.98
-43.15
-50.51
-59.04
-68.02
-76.01
-81.15
-81.63
-76.31
-65.09
-49.04
-30.1
-10.48
7.85
23.51
35.82
44.63
50.08
52.51
52.27
49.9
45.97
41.17
36.06
31.04
26.26
21.76
17.57
13.84
10.89
8.95
8.13
8.18
8.48
8.25
6.78
3.67
-1.01
-6.74
-12.79
-18.49
-23.54
