-48.09
-57.88
-69.08
-80.59
-90.45
-96.25
-95.75
-87.68
-72.27
-51.22
-27.13
-2.75
19.74
39.05
54.61
66.37
74.39
78.81
79.87
78.01
73.93
68.48
62.51
56.63
51.09
45.91
41.01
36.45
32.49
29.53
27.86
27.4
27.63
27.71
26.72
24.08
19.68
13.88
7.39
0.86
-5.27
-10.95
-16.49
-22.4
-29.23
-37.35
-46.93
-57.76
-69.17
-79.88
-88.16
-91.99
-89.67
-80.35
-64.43
-43.56
-20.26
2.86
23.72
41.01
54.22
63.32
68.45
69.82
67.83
63.15
56.66
49.38
42.17
35.52
29.6
24.32
19.64
15.67
12.69
10.91
10.33
10.53
10.75
10.12
7.97
4.05
-1.35
-7.56
-13.82
-19.59
-24.81
-29.96
-35.87
-43.46
-53.16
-64.56
-76.16
-85.65
-90.51
-88.78
-79.75
-64.17
-44.05
-21.99
-0.43
18.86
34.84
47.12
55.6
60.37
61.61
59.67
55.2
49.04
42.13
35.27
28.98
23.51
18.85
14.99
11.93
9.73
8.35
7.57
6.96
5.95
4.05
0.95
-3.35
-8.6
-14.53
-20.82
-27.21
-33.56
-39.82
-46.19
-53.17
-61.28
-70.83
-81.38
-91.43
-98.65
-100.42
-94.79
-81.21
-60.87
-36.38
-10.94
12.59
32.31
47.46
58.24
65.26
69.13
70.28
68.95
65.38
59.97
53.32
46.17
39.22
33.02
27.83
23.72
20.62
18.42
16.99
16.11
15.41
14.38
12.45
9.2
4.51
-1.35
-7.83
-14.24
-20.12
-25.42
-30.63
-36.67
-44.48
-54.54
-66.48
-78.79
-89.06
-94.59
-93.17
-83.89
-67.44
-45.9
-22.08
1.33
22.36
39.95
53.81
63.99
70.65
73.92
74.0
71.36
66.75
61.03
55.04
49.35
44.29
39.99
36.5
33.79
31.86
30.58
29.75
29.06
28.24
27.05
25.33
22.94
19.79
15.74
10.7
4.74
-1.91
-8.85
-15.62
-21.9
-27.61
-32.96
-38.39
-44.38
-51.37
-59.61
-69.06
-79.18
-88.86
-96.33
-99.51
-96.48
-86.24
-69.06
-46.63
-21.54
3.47
26.17
45.26
60.32
71.42
78.82
82.72
83.37
81.13
76.62
70.65
64.09
57.67
51.84
46.78
42.5
38.94
36.09
33.99
32.71
32.2
32.21
32.21
31.56
29.59
25.86
20.27
13.12
5.05
-3.17
-10.78
-17.34
-22.81
-27.62
-32.6
-38.68
-46.57
-56.41
-67.53
-78.36
-86.8
-90.7
-88.45
-79.54
-64.58
-45.19
-23.52
-1.73
18.37
35.48
48.78
57.86
62.58
63.17
60.28
54.9
48.18
41.22
34.79
29.23
24.51
20.45
16.93
14.04
11.99
10.92
10.76
11.09
11.24
10.48
8.27
4.35
-1.1
-7.53
-14.18
-20.36
-25.65
-30.18
-34.63
-40.07
-47.5
-57.23
-68.43
-79.08
-86.47
-87.99
-82.08
-68.82
-49.89
-27.97
-5.87
14.29
31.38
45.14
55.69
63.08
67.12
67.6
64.59
58.78
51.34
43.73
37.14
32.14
28.58
25.84
23.26
20.47
17.62
15.11
13.4
12.59
12.25
11.62
9.8
6.24
0.81
-6.02
-13.5
-20.8
-27.38
-33.11
-38.4
-44.07
-51.07
-60.07
-71.03
-82.91
-93.65
-100.61
-101.38
-94.5
-80.09
-59.78
-36.22
-12.26
9.79
28.58
43.67
55.18
63.43
68.65
70.98
70.58
67.87
63.52
58.37
53.21
48.49
44.37
40.68
37.2
33.83
30.72
28.15
26.4
25.52
25.2
24.78
23.42
20.38
15.31
8.4
0.36
-7.88
-15.48
-21.99
-27.52
-32.62
-38.11
-44.72
-52.92
-62.69
-73.38
-83.71
-91.81
-95.62
-93.35
-84.08
-68.16
-47.17
-23.56
-0.02
21.24
38.79
52.14
61.41
67.09
69.72
69.81
67.8
64.16
59.39
54.04
48.67
43.76
39.62
36.38
33.99
32.26
31.04
30.26
29.88
29.85
29.92
29.62
28.3
25.41
20.76
14.6
7.62
0.59
-5.93
-11.76
-17.2
-22.92
-29.68
-38.07
-48.25
-59.62
-70.82
-79.87
-84.54
-83.06
-74.68
-59.94
-40.57
-18.98
2.4
21.64
37.49
49.39
57.24
61.25
61.9
59.87
55.98
51.0
45.5
39.8
33.97
28.05
22.2
16.83
12.42
9.41
7.91
7.59
7.75
7.51
6.11
3.15
-1.28
-6.69
-12.41
-17.89
-22.87
-27.53
-32.34
-37.96
-44.97
-53.63
-63.71
-74.26
-83.62
-89.72
-90.54
-84.77
-72.38
-54.7
-34.05
-13.05
6.08
22.03
34.35
43.12
48.55
50.75
49.79
45.97
39.97
32.81
25.62
19.26
14.13
10.2
7.15
4.68
2.69
1.27
0.5
0.31
0.28
-0.28
-2.08
-5.64
-10.99
-17.69
-24.97
-32.03
-38.49
-44.58
-51.05
-58.81
-68.37
-79.23
-89.78
-97.5
-99.78
-94.71
-81.88
-62.47
-38.94
-14.3
8.76
28.33
43.56
54.38
61.21
64.6
65.08
63.18
59.42
54.42
48.77
42.99
37.44
32.32
27.8
24.02
21.14
19.21
18.1
17.39
16.44
14.6
11.39
6.73
0.91
-5.52
-11.97
-18.06
-23.75
-29.36
-35.5
-42.86
-51.92
-62.69
-74.42
-85.54
-93.86
-97.04
-93.32
-82.08
-64.18
-41.73
-17.48
5.89
26.45
43.17
55.86
64.69
69.97
71.96
70.99
67.59
62.61
56.99
51.63
47.03
43.29
40.14
37.24
34.4
31.73
29.57
28.21
27.68
27.54
26.99
25.11
21.27
15.37
8.0
0.15
-7.15
-13.24
-18.1
-22.42
-27.29
-33.89
-42.93
-54.28
-66.72
-78.11
-85.85
-87.54
-81.79
-68.61
-49.48
-26.82
-3.32
18.75
37.94
53.53
65.36
73.46
77.99
79.21
77.57
73.73
68.48
62.62
56.77
51.33
46.44
42.15
38.43
35.29
32.81
30.99
29.85
29.21
28.69
27.77
25.89
22.64
17.88
11.83
4.94
-2.21
-9.11
-15.43
-21.15
-26.44
-31.76
-37.69
-44.78
-53.37
-63.23
-73.4
-82.11
-87.17
-86.53
-78.98
-64.65
-45.03
-22.65
-0.34
19.52
35.46
46.95
54.21
57.89
58.67
57.21
54.09
49.83
44.85
39.52
34.13
28.92
24.18
20.21
17.34
15.7
15.19
15.37
15.6
15.18
13.64
10.8
6.83
2.14
-2.91
-8.01
-13.1
-18.24
-23.69
-29.75
-36.73
-44.76
-53.58
-62.37
-69.65
-73.56
-72.34
-64.97
-51.63
-33.78
-13.77
5.78
22.71
35.71
44.46
49.33
51.05
50.38
47.92
44.11
39.24
33.54
27.35
21.12
15.42
10.83
7.73
6.21
5.98
6.45
6.94
6.83
5.7
3.34
-0.26
-4.95
-10.45
-16.37
-22.34
-28.07
-33.56
-39.13
-45.34
-52.76
-61.57
-71.18
-80.09
-86.11
-86.98
-81.18
-68.55
-50.46
-29.38
-8.13
10.94
26.48
38.17
46.35
51.53
54.09
54.25
52.25
48.56
43.91
39.09
34.71
30.99
27.73
24.61
21.41
18.29
15.65
13.94
13.26
13.25
13.14
12.05
9.38
4.96
-0.83
-7.35
-13.92
-20.15
-25.93
-31.54
-37.44
-44.17
-52.15
-61.4
-71.31
-80.53
-87.07
-88.83
-84.19
-72.69
-55.37
-34.43
-12.74
7.18
23.65
36.16
45.02
50.99
54.71
56.54
56.54
54.66
51.05
46.09
40.57
35.34
31.18
28.49
27.16
26.62
26.14
25.16
23.56
21.72
20.17
19.22
18.64
17.63
15.16
10.49
3.65
-4.55
-12.82
-19.96
-25.45
-29.54
-33.21
-37.62
-43.77
-52.15
-62.54
-74.01
-84.94
-93.27
-96.9
-94.19
-84.49
-68.45
-47.95
-25.55
-3.85
15.22
30.63
42.25
50.42
55.63
58.21
58.35
56.2
52.13
46.76
40.94
35.5
31.07
27.87
25.77
24.42
23.43
22.61
21.98
21.72
21.89
22.3
22.42
21.48
18.78
13.97
7.23
-0.67
-8.69
-15.89
-21.76
-26.47
-30.73
-35.61
-42.11
-50.8
-61.43
-72.86
-83.23
-90.31
-92.12
-87.46
-76.24
-59.52
-39.26
-17.78
2.74
20.65
35.04
45.59
52.45
55.96
56.49
54.44
50.27
44.65
38.45
32.53
27.59
23.92
21.38
19.52
17.89
16.2
14.56
13.27
12.61
12.57
12.72
12.21
10.1
5.76
-0.82
-8.94
-17.4
-24.93
-30.81
-35.17
-39.04
-43.91
-51.12
-61.04
-72.74
-83.99
-91.93
-93.9
-88.39
-75.45
-56.63
-34.45
-11.67
9.44
27.41
41.61
52.07
59.05
62.92
64.01
62.61
59.1
54.04
48.15
42.18
36.77
32.25
28.61
25.68
23.3
21.49
20.41
20.14
20.46
20.74
20.08
17.69
13.22
6.92
-0.47
-8.05
-15.17
-21.6
-27.62
-33.82
-40.9
-49.42
-59.54
-70.79
-81.87
-90.76
-95.11
-92.93
-83.25
-66.59
-44.9
-20.97
2.38
22.93
39.46
51.67
59.84
64.48
66.19
65.52
63.06
59.41
55.13
50.61
46.1
41.59
37.07
32.61
28.52
25.25
23.25
22.67
23.21
24.07
24.18
22.67
19.1
13.68
7.09
0.19
-6.33
-12.2
-17.58
-22.99
-29.11
-36.61
-45.91
-56.87
-68.63
-79.45
-87.06
-89.14
-84.16
-71.82
-53.33
-31.02
-7.63
14.29
32.95
47.51
57.83
64.27
67.41
67.85
66.22
63.1
58.97
54.15
48.9
43.41
37.94
32.87
28.59
25.48
23.71
23.2
23.52
24.04
24.05
22.88
20.11
15.59
9.55
2.51
-4.83
-11.87
-18.29
-24.24
-30.38
-37.56
-46.49
-57.21
-68.73
-79.13
-85.89
-86.76
-80.41
-66.99
-48.08
-26.2
-4.06
16.11
32.93
45.87
54.92
60.38
62.56
61.87
58.79
53.94
48.03
41.74
35.57
29.81
24.7
20.41
17.19
15.21
14.43
14.49
14.73
14.4
12.88
9.99
5.95
1.24
-3.62
-8.37
-13.07
-18.09
-23.93
-31.07
-39.73
-49.67
-60.08
-69.48
-76.01
-77.76
-73.37
-62.44
-45.81
-25.36
-3.58
17.05
34.58
47.85
56.55
61.03
62.01
60.37
56.94
52.42
47.26
41.75
36.03
30.26
24.66
19.61
15.51
12.68
11.16
10.64
10.54
10.06
8.53
5.53
1.04
-4.61
-10.86
-17.14
-23.07
-28.56
-33.93
-39.81
-46.95
-55.89
-66.48
-77.63
-87.31
-92.99
-92.33
-84.06
-68.43
-47.29
-23.48
-0.05
20.54
36.96
48.93
56.98
61.87
64.25
64.52
62.89
59.53
54.71
48.94
42.82
36.98
31.91
27.87
24.93
22.93
21.63
20.68
19.71
18.3
16.06
12.73
8.23
2.73
-3.42
-9.75
-15.95
-21.92
-27.94
-34.61
-42.54
-52.07
-62.86
-73.78
-82.88
-87.86
-86.71
-78.34
-63.05
-42.51
-19.32
3.65
24.01
40.32
52.12
59.76
63.95
65.48
64.98
62.95
59.75
55.7
51.08
46.12
41.07
36.18
31.75
28.15
25.63
24.31
23.92
23.91
23.5
21.99
18.99
14.5
8.94
2.88
-3.2
-9.08
-14.88
-20.94
-27.75
-35.65
-44.85
-55.13
-65.8
-75.58
-82.71
-85.29
-81.75
-71.49
-55.14
-34.5
-12.14
9.36
27.96
42.57
53.01
59.66
63.14
64.05
62.81
59.84
55.63
50.74
45.81
41.3
37.42
34.12
31.24
28.68
26.51
24.99
24.34
24.48
24.86
24.58
22.6
18.3
11.76
3.76
-4.51
-11.96
-18.02
-22.91
-27.41
-32.53
-39.09
-47.43
-57.28
-67.72
-77.37
-84.42
-87.09
-83.96
-74.44
-59.07
-39.45
-17.85
3.33
22.07
37.14
48.03
54.82
57.93
57.84
55.15
50.53
44.68
38.34
32.18
26.67
22.09
18.49
15.86
14.11
13.19
13.01
13.33
13.77
13.82
12.89
10.54
6.54
0.99
-5.66
-12.78
-19.73
-26.16
-32.22
-38.55
-46.01
-55.11
-65.49
-75.67
-83.26
-85.62
-80.92
-68.76
-50.48
-28.7
-6.47
13.63
30.08
42.45
51.06
56.51
59.16
59.22
56.79
52.19
46.1
39.44
33.12
27.77
23.55
20.3
17.76
15.76
14.34
13.61
13.51
13.64
13.29
11.64
8.19
2.9
-3.71
-10.79
-17.49
-23.35
-28.47
-33.51
-39.46
-47.21
-57.16
-68.83
-80.83
-90.92
-96.62
-95.88
-87.64
-72.32
-51.63
-28.15
-4.64
16.55
34.0
47.18
56.28
61.83
64.43
64.58
62.72
59.31
54.86
49.99
45.28
41.16
37.81
35.21
33.17
31.5
30.11
28.94
28.03
27.33
26.69
25.82
24.24
21.46
17.07
10.97
3.44
-4.88
-13.17
-20.65
-26.92
-32.13
-36.96
-42.4
-49.41
-58.47
-69.27
-80.55
-90.25
-96.02
-95.82
-88.51
-74.29
-54.64
-31.95
-8.84
12.44
30.42
44.48
54.69
61.47
65.32
66.69
65.94
63.46
59.67
55.07
50.23
45.65
41.7
38.55
36.12
34.26
32.81
31.69
30.91
30.5
30.37
30.22
29.5
27.6
23.97
18.38
11.14
2.96
-5.2
-12.47
-18.37
-22.98
-26.86
-30.88
-35.87
-42.44
-50.72
-60.36
-70.46
-79.61
-86.07
-88.05
-84.2
-73.99
-57.99
-37.78
-15.58
6.22
25.62
41.29
52.64
59.77
63.17
63.58
61.81
58.61
54.55
50.04
45.35
40.7
36.32
32.46
29.34
27.11
25.79
25.23
25.19
25.41
25.62
25.56
24.96
23.47
20.82
16.81
11.57
5.46
-0.93
-7.0
-12.36
-17.03
-21.34
-25.86
-31.11
-37.47
-45.02
-53.59
-62.74
-71.62
-79.01
-83.39
-83.16
-77.17
-65.12
-47.79
-27.02
-5.26
15.06
32.08
44.77
52.95
57.01
57.6
55.48
51.39
46.04
40.11
34.21
28.8
24.13
20.24
16.97
14.21
11.95
10.32
9.49
9.52
10.12
10.68
10.32
8.26
4.12
-1.84
-8.83
-15.81
-21.92
-26.83
-30.86
-34.79
-39.57
-45.96
-54.16
-63.66
-73.07
-80.48
-83.79
-81.34
-72.41
-57.53
-38.36
-17.2
3.55
22.02
37.06
48.23
55.58
59.42
60.21
58.48
54.85
50.01
44.59
39.13
34.0
29.39
25.46
22.3
20.0
18.54
17.7
17.23
16.8
16.2
15.36
14.27
12.84
10.84
7.95
3.83
-1.59
-8.06
-15.09
-22.12
-28.71
-34.68
-40.12
-45.31
-50.69
-56.71
-63.8
-72.08
-81.28
-90.41
-97.88
-101.66
-99.92
-91.59
-76.81
-56.93
-34.19
-11.12
10.1
28.0
41.93
51.9
58.25
61.46
62.03
60.45
57.19
52.77
47.72
42.58
37.75
33.52
29.97
27.06
24.63
22.61
20.95
19.76
19.07
18.73
18.31
17.15
14.65
10.44
4.63
-2.25
-9.49
-16.46
-22.86
-28.77
-34.48
-40.34
-46.62
-53.48
-61.06
-69.46
-78.61
-87.99
-96.38
-101.95
-102.64
-96.85
-84.07
-65.22
-42.44
-18.51
4.0
23.24
38.38
49.29
56.34
60.01
60.79
59.17
55.74
51.16
46.15
41.29
36.88
32.92
29.21
25.48
21.73
18.23
15.52
14.12
14.16
15.21
16.33
16.35
14.34
9.99
3.71
-3.58
-10.86
-17.42
-23.12
-28.41
-34.1
-41.04
-49.79
-60.36
-72.02
-83.27
-92.09
-96.32
-94.23
-85.03
-69.24
-48.48
-25.15
-1.73
19.71
37.78
51.89
61.95
68.19
70.89
70.37
67.08
61.73
55.19
48.47
42.38
37.34
33.3
29.87
26.63
23.43
20.55
18.51
17.7
18.1
19.03
19.37
18.0
14.15
7.86
-0.06
-8.36
-15.84
-21.82
-26.45
-30.6
-35.5
-42.35
-51.65
-63.05
-75.2
-85.99
-93.05
-94.29
-88.55
-75.82
-57.41
-35.41
-12.26
9.82
29.23
45.0
56.67
64.13
67.51
67.14
63.62
57.78
50.64
43.25
36.38
30.48
25.58
21.44
17.76
14.45
11.68
9.81
9.1
9.39
10.06
10.13
8.67
5.15
-0.34
-7.18
-14.52
-21.63
-28.24
-34.59
-41.36
-49.37
-59.09
-70.25
-81.53
-90.76
-95.24
-92.78
-82.34
-64.57
-41.64
-16.55
7.7
28.89
45.83
58.26
66.44
70.84
71.89
70.09
66.01
60.28
53.57
46.4
39.16
32.15
25.7
20.21
16.1
13.64
12.71
12.79
13.03
12.51
10.55
6.87
1.66
-4.62
-11.4
-18.22
-24.91
-31.59
-38.69
-46.78
-56.34
-67.36
-79.12
-90.0
-97.76
-99.99
-94.87
-81.86
-61.92
-37.37
-11.22
13.59
34.88
51.51
63.36
70.88
74.75
75.65
74.08
70.49
65.35
59.15
52.39
45.54
38.99
33.08
28.11
24.23
21.46
19.57
18.18
16.75
14.83
12.06
8.25
3.37
-2.46
-8.98
-15.83
-22.66
-29.41
-36.5
-44.7
-54.77
-66.77
-79.58
-90.84
-97.48
-96.8
-87.46
-70.05
-46.83
-20.99
4.31
26.76
45.04
58.75
68.06
73.37
75.17
74.05
70.72
65.89
60.21
54.14
48.03
42.1
36.57
31.68
27.73
24.94
23.34
22.69
22.44
21.83
20.09
16.68
11.51
4.95
-2.27
-9.39
-15.91
-21.98
-28.28
-35.9
-45.72
-57.81
-71.09
-83.32
-91.62
-93.37
-87.02
-72.68
-52.13
-28.16
-3.84
18.32
36.79
51.02
61.14
67.59
70.82
71.26
69.25
65.23
59.68
53.12
46.08
39.07
32.61
27.2
23.22
20.83
19.78
19.36
18.67
16.87
13.5
8.73
3.18
-2.38
-7.51
-12.3
-17.35
-23.52
-31.53
-41.66
-53.52
-66.14
-78.01
-87.35
-92.32
-91.41
-83.82
-69.82
-50.84
-29.14
-7.1
13.79
33.42
53.05
74.36
98.36
124.6
151.14
175.33
194.86
208.56
216.62
220.26
221.1
220.71
220.47
221.42
224.31
229.4
236.39
244.35
251.96
257.77
260.44
258.96
252.6
241.1
224.6
203.62
178.91
151.17
120.91
88.23
52.97
15.17
-24.4
-63.86
-100.27
-130.35
-151.5
-162.79
-165.26
-161.53
-154.76
-147.54
-141.28
-136.25
-132.18
-128.92
-126.78
-126.35
-127.99
-131.47
-135.87
-139.92
-142.59
-143.45
-142.85
-141.63
-140.66
-140.39
-140.73
-141.28
-141.61
-141.57
-141.36
-141.33
-141.7
-142.45
-143.37
-144.34
-145.66
-148.06
-152.45
-159.4
-168.54
-178.31
-186.24
-189.61
-186.31
-175.41
-157.22
-132.97
-104.24
-72.7
-39.93
-7.56
22.9
50.21
73.8
93.86
111.11
126.36
139.94
151.63
160.9
167.44
171.47
173.69
174.78
174.91
173.68
170.29
164.07
154.9
143.28
130.19
116.65
103.48
91.03
79.28
67.83
56.04
43.08
28.25
11.19
-7.83
-27.86
-47.47
-64.94
-78.73
-87.71
-91.52
-90.4
-85.21
-76.98
-66.73
-55.29
-43.49
-32.19
-22.37
-15.04
-10.79
-9.67
-11.05
-13.81
-16.88
-19.62
-22.01
-24.45
-27.51
-31.41
-35.92
-40.43
-44.13
-46.56
-47.94
-49.2
-51.76
-57.05
-65.86
-77.99
-92.34
-107.09
-120.51
-131.49
-139.97
-146.97
-154.2
-163.22
-174.82
-188.4
-202.03
-213.09
-219.03
-218.36
-211.01
-198.1
-181.47
-162.88
-143.53
-123.87
-103.83
-82.87
-60.1
-34.45
-5.01
28.31
64.21
99.86
131.52
155.66
170.35
175.87
174.52
169.57
163.97
159.54
156.88
155.84
156.16
157.8
160.73
164.6
168.39
170.45
169.05
162.93
151.79
136.46
118.58
99.97
82.03
65.33
49.78
35.0
20.89
7.8
-3.6
-12.92
-20.42
-27.01
-33.74
-41.17
-48.88
-55.66
-60.12
-61.43
-59.79
-56.21
-52.04
-48.43
-46.11
-45.49
-46.87
-50.37
-55.63
-61.39
-65.37
-64.8
-57.28
-41.85
-19.4
7.49
35.55
61.8
84.49
103.17
118.3
130.53
140.07
146.51
149.09
147.2
140.84
130.79
118.41
105.26
92.59
81.12
70.84
61.32
51.97
42.27
31.93
20.79
8.88
-3.6
-16.11
-27.71
-37.16
-43.22
-45.07
-42.58
-36.42
-27.84
-18.27
-9.03
-1.13
4.75
8.26
9.4
8.5
6.17
3.14
0.07
-2.59
-4.7
-6.37
-7.82
-9.23
-10.64
-12.0
-13.23
-14.29
-15.25
-16.2
-17.23
-18.36
-19.54
-20.68
-21.8
-23.06
-24.77
-27.23
-30.61
-34.84
-39.65
-44.73
-49.96
-55.45
-61.53
-68.47
-76.18
-84.02
-90.91
-95.52
-96.84
-94.5
-88.87
-81.01
-72.21
-63.64
-55.96
-49.27
-43.27
-37.57
-32.03
-26.95
-22.98
-20.84
-21.02
-23.48
-27.6
-32.4
-36.85
-40.21
-42.2
-42.96
-42.9
-42.36
-41.44
-39.96
-37.54
-33.94
-29.19
-23.63
-17.87
-12.5
-7.93
-4.3
-1.51
0.61
2.26
3.48
4.3
4.75
5.05
5.64
7.18
10.49
16.44
25.7
38.59
54.95
74.02
94.58
115.16
134.31
151.0
164.9
176.25
185.67
193.66
200.2
204.72
206.22
203.79
197.05
186.44
173.08
158.42
143.68
129.44
115.58
101.48
86.64
71.01
55.42
41.23
29.86
22.03
17.39
14.62
11.96
7.96
1.97
-5.58
-13.65
-21.18
-27.68
-33.57
-39.9
-47.95
-58.54
-71.57
-85.76
-98.92
-108.64
-113.0
-111.21
-103.74
-92.08
-78.12
-63.69
-50.14
-38.28
-28.51
-20.9
-15.43
-11.95
-10.29
-10.28
-11.78
-14.54
-18.24
-22.38
-26.31
-29.47
-31.45
-32.18
-31.83
-30.82
-29.61
-28.67
-28.35
-28.8
-29.99
-31.76
-33.86
-36.14
-38.67
-41.63
-45.34
-50.05
-55.8
-62.41
-69.46
-76.22
-81.75
-84.97
-84.81
-80.48
-71.7
-58.82
-42.85
-25.3
-7.86
7.84
20.53
29.53
34.72
36.57
35.9
33.67
30.59
27.06
23.15
18.77
14.0
9.17
4.8
1.53
-0.35
-0.97
-0.86
-0.75
-1.29
-2.88
-5.61
-9.33
-13.75
-18.57
-23.55
-28.66
-34.1
-40.39
-48.05
-57.31
-67.7
-77.82
-85.53
-88.6
-85.39
-75.53
-60.09
-41.25
-21.76
-4.12
9.96
19.76
25.51
28.08
28.46
27.47
25.5
22.44
17.87
11.36
2.8
-7.36
-18.19
-28.54
-37.41
-44.26
-49.16
-52.57
-55.06
-57.0
-58.4
-59.08
-58.81
-57.66
-55.87
-53.74
-51.34
-48.32
-44.08
-38.06
-30.08
-20.51
-10.07
0.69
11.78
23.91
38.21
55.72
76.79
100.76
126.02
150.44
171.9
188.78
200.19
206.05
206.85
203.53
197.16
188.78
179.1
168.49
156.87
143.82
128.7
110.96
90.34
67.13
42.23
17.09
-6.57
-27.12
-43.42
-55.05
-62.39
-66.41
-68.22
-68.74
-68.46
-67.56
-66.09
-64.39
-63.07
-62.97
-64.78
-68.64
-73.9
-79.23
-83.05
-83.93
-81.07
-74.46
-64.77
-53.14
-40.91
-29.36
-19.6
-12.47
-8.29
-6.79
-7.14
-8.21
-9.09
-9.54
-10.24
-12.5
-17.65
-26.32
-37.87
-50.09
-59.48
-61.94
-53.76
-32.8
0.65
43.54
90.64
135.77
173.51
200.73
217.35
226.16
231.37
236.88
244.61
254.01
262.56
267.43
266.94
261.33
252.4
242.36
232.57
223.02
212.79
200.85
186.79
170.88
153.46
134.47
113.21
88.88
61.24
31.24
0.8
-27.8
-52.75
-73.34
-89.98
-103.75
-115.74
-126.6
-136.38
-144.85
-152.04
-158.46
-165.13
-173.11
-182.95
-194.21
-205.39
-214.17
-218.14
-215.4
-205.17
-188.08
-165.94
-141.26
-116.45
-93.21
-72.01
-52.21
-32.45
-11.36
11.77
36.84
62.93
88.65
112.55
133.37
150.03
161.58
167.18
166.12
158.29
144.3
125.62
104.25
82.22
60.98
41.14
22.59
4.71
-13.08
-31.02
-48.97
-66.53
-83.32
-99.29
-114.71
-130.09
-146.13
-163.46
-182.6
-203.67
-226.28
-249.34
-270.89
-288.36
-299.07
-300.95
-293.32
-277.24
-255.25
-230.54
-205.9
-182.77
-161.12
-139.79
-117.45
-93.54
-68.68
-44.47
-22.84
-5.35
7.38
15.56
19.99
21.63
21.26
19.49
16.71
13.35
9.72
6.12
2.74
-0.27
-2.72
-4.53
-5.73
-6.63
-7.81
-10.04
-13.83
-19.34
-26.15
-33.44
-40.48
-46.75
-52.29
-57.66
-63.76
-71.64
-82.01
-94.92
-109.36
-123.37
-134.27
-139.57
-137.72
-128.76
-114.39
-97.28
-80.48
-66.46
-56.7
-51.45
-50.03
-50.89
-51.93
-50.97
-46.22
-36.84
-23.2
-6.73
10.61
26.96
41.08
52.71
62.38
71.29
81.01
93.05
108.47
127.31
148.28
168.64
184.77
193.12
191.23
178.48
156.2
127.19
94.82
62.23
31.7
4.5
-18.89
-38.41
-54.0
-65.39
-72.06
-73.39
-68.86
-58.48
-43.01
-24.13
-4.2
14.13
28.52
37.45
40.41
37.96
31.37
22.25
12.26
2.91
-4.46
-8.68
-8.81
-4.3
4.88
18.14
34.23
51.5
68.22
82.86
94.3
101.87
105.23
104.45
99.98
92.81
84.34
76.11
69.19
63.56
57.93
50.12
37.9
20.04
-2.94
-28.76
-53.93
-74.66
-87.9
-92.02
-87.07
-74.53
-56.79
-36.53
-16.1
2.79
19.29
33.25
44.96
54.88
63.37
70.75
77.32
83.33
88.88
93.87
97.94
100.68
101.93
101.96
101.53
101.64
103.11
106.2
110.36
114.32
116.33
114.55
107.52
94.68
76.79
55.89
34.92
16.65
2.79
-6.63
-13.06
-18.6
-24.83
-32.12
-39.62
-45.81
-49.38
-49.75
-47.22
-42.69
-37.4
-32.53
-29.03
-27.48
-27.89
-29.65
-31.63
-32.53
-31.35
-27.94
-23.06
-18.16
-14.58
-13.1
-13.51
-14.83
-15.66
-14.66
-10.96
-4.25
5.19
16.65
29.03
40.9
50.75
57.25
59.59
57.72
52.33
44.58
35.75
26.91
18.73
11.74
6.37
3.2
2.82
5.7
11.91
20.86
31.49
42.39
52.25
60.03
65.18
67.61
67.48
65.05
60.45
53.71
44.85
34.18
22.4
10.66
0.28
-7.7
-12.93
-15.88
-17.49
-18.77
-20.21
-21.69
-22.63
-22.36
-20.7
-18.05
-15.3
-13.42
-13.1
-14.49
-17.31
-21.14
-25.63
-30.67
-36.1
-41.47
-45.93
-48.28
-47.22
-41.94
-32.37
-19.28
-4.13
11.28
25.2
36.21
43.48
46.92
47.08
44.87
41.29
36.99
32.1
26.34
19.4
11.34
2.89
-4.79
-10.51
-13.5
-13.91
-12.67
-11.18
-10.72
-12.06
-15.14
-19.28
-23.51
-27.06
-29.87
-32.54
-36.24
-42.06
-50.37
-60.32
-69.87
-76.29
-77.2
-71.44
-59.52
-43.41
-25.85
-9.31
4.66
15.72
24.34
31.18
36.42
39.71
40.28
37.56
31.68
23.54
14.73
6.93
1.28
-1.98
-3.38
-3.95
-4.72
-6.32
-8.98
-12.42
-16.21
-19.88
-23.15
-26.02
-28.8
-32.14
-36.83
-43.68
-53.01
-64.47
-76.69
-87.53
-94.5
-95.41
-89.18
-76.1
-57.87
-36.97
-15.98
3.18
19.48
32.69
42.98
50.55
55.38
57.41
56.65
53.46
48.57
42.92
37.36
32.5
28.55
25.36
22.59
19.87
17.02
14.03
11.14
8.54
6.42
4.65
2.82
0.35
-3.36
-8.69
-15.78
-24.44
-34.33
-44.91
-55.41
-64.68
-71.23
-73.42
-69.78
-59.61
-43.31
-22.44
0.48
22.68
41.77
56.3
65.89
71.19
73.36
73.7
73.19
72.27
70.85
68.47
64.64
59.09
52.14
44.57
37.52
31.94
28.29
26.33
25.17
23.67
20.92
16.53
10.8
4.43
-1.8
-7.41
-12.38
-17.17
-22.65
-29.79
-39.37
-51.46
-65.08
-78.09
-87.59
-90.75
-85.82
-72.82
-53.62
-31.26
-8.86
11.34
28.35
42.2
53.31
61.91
67.87
70.82
70.69
67.93
63.48
58.49
53.85
49.84
46.19
42.37
37.91
32.92
27.98
23.95
21.49
20.65
20.72
20.45
18.56
14.26
7.63
-0.49
-8.83
-16.24
-22.21
-27.19
-32.38
-39.33
-49.09
-61.6
-75.28
-87.27
-94.23
-93.5
-84.06
-66.88
-44.58
-20.43
2.57
22.47
38.5
50.75
59.58
65.35
68.33
68.79
67.1
63.73
59.19
53.95
48.38
42.76
37.37
32.49
28.38
25.18
22.86
21.19
19.87
18.53
16.85
14.54
11.35
7.14
1.89
-4.31
-11.16
-18.35
-25.62
-32.93
-40.57
-49.01
-58.48
-68.6
-78.1
-84.96
-86.89
-82.14
-70.1
-51.69
-29.08
-5.15
17.32
36.19
50.34
59.58
64.43
65.82
64.78
62.26
58.95
55.23
51.22
46.96
42.47
37.83
33.31
29.17
25.73
23.22
21.76
21.34
21.64
22.06
21.79
20.06
16.4
10.88
4.03
-3.33
-10.42
-16.85
-22.63
-28.07
-33.63
-39.77
-46.86
-55.21
-64.83
-75.09
-84.69
-91.53
-93.31
-88.31
-76.06
-57.65
-35.43
-12.34
9.04
26.94
40.67
50.33
56.36
59.34
59.77
58.14
54.92
50.64
45.79
40.77
35.84
31.04
26.44
22.09
18.21
15.21
13.49
13.22
14.13
15.45
16.06
15.01
11.82
6.76
0.61
-5.69
-11.5
-16.68
-21.52
-26.49
-31.96
-38.18
-45.31
-53.47
-62.63
-72.31
-81.34
-87.8
-89.56
-84.95
-73.5
-56.12
-34.91
-12.53
8.52
26.38
40.08
49.45
54.95
57.39
57.68
56.54
54.34
51.11
46.71
41.19
34.96
28.77
23.43
19.55
17.25
16.25
15.97
15.83
15.48
14.69
13.3
11.2
8.19
4.15
-0.95
-6.93
-13.47
-20.15
-26.6
-32.61
-38.13
-43.45
-49.05
-55.6
-63.61
-73.13
-83.3
-92.34
-97.9
-97.68
-90.36
-76.07
-56.43
-34.08
-11.83
8.11
24.48
36.91
45.62
51.0
53.44
53.28
50.84
46.61
41.23
35.33
29.49
24.04
19.13
14.82
11.22
8.49
6.89
6.55
7.33
8.69
9.76
9.56
7.46
3.37
-2.19
-8.31
-14.13
-19.16
-23.4
-27.34
-31.7
-37.14
-44.09
-52.61
-62.24
-71.93
-79.93
-84.1
-82.52
-74.14
-59.25
-39.6
-17.78
3.41
21.85
36.46
47.04
53.92
57.49
58.1
56.06
51.91
46.38
40.35
34.58
29.44
24.93
20.9
17.15
13.77
11.02
9.23
8.51
8.73
9.44
10.0
9.7
7.83
4.02
-1.79
-9.09
-17.04
-24.56
-30.92
-35.96
-40.3
-45.18
-51.89
-61.17
-72.73
-85.09
-95.84
-102.28
-102.22
-94.6
-79.91
-59.81
-36.76
-13.28
8.58
27.48
42.73
54.06
61.5
65.21
65.59
63.27
59.07
53.96
48.73
43.93
39.7
35.89
32.18
28.43
24.81
21.81
19.98
19.58
20.4
21.69
22.48
21.87
19.38
15.1
9.49
3.21
-3.27
-9.61
-15.7
-21.54
-27.26
-33.11
-39.5
-46.97
-55.93
-66.49
-77.97
-88.86
-96.9
-99.67
-95.26
-83.1
-64.15
-40.73
-15.88
7.61
27.78
43.81
55.77
64.1
69.17
71.13
70.12
66.48
60.96
54.65
48.65
43.68
39.84
36.76
33.85
30.75
27.51
24.67
22.87
22.56
23.7
25.59
27.15
27.14
24.72
19.68
12.72
5.12
-1.71
-6.8
-10.08
-12.41
-15.16
-19.66
-26.5
-35.2
-44.33
-51.85
-55.62
-54.05
-46.49
-33.47
-16.74
1.12
17.28
29.33
35.87
36.73
32.82
25.71
17.18
8.84
1.91
-2.94
-5.54
-6.25
-5.7
-4.67
-3.76
-3.31
-3.31
-3.52
-3.6
-3.07
-1.44
1.64
6.22
11.92
17.82
22.68
25.3
24.97
21.71
16.25
9.59
2.62
-4.29
-11.38
-19.35
-29.05
-41.11
-55.51
-71.4
-87.14
-100.4
-108.82
-110.51
-104.62
-91.51
-72.62
-49.9
-25.4
-0.82
22.5
43.48
61.19
74.92
84.32
89.56
91.48
91.37
90.62
90.26
90.76
91.9
92.98
93.18
91.87
88.91
84.71
80.06
75.82
72.62
70.67
69.66
68.9
67.55
64.76
60.0
53.09
44.31
34.26
23.72
13.34
3.4
-6.26
-16.26
-27.22
-39.24
-51.52
-62.27
-69.05
-69.57
-62.53
-48.25
-28.74
-7.11
13.29
29.87
41.3
47.54
49.42
47.99
43.97
37.62
28.89
17.8
4.77
-9.26
-23.06
-35.43
-45.56
-53.23
-58.69
-62.27
-64.12
-63.99
-61.37
-55.94
-47.92
-38.3
-28.68
-20.84
-16.11
-14.99
-17.04
-21.17
-26.27
-31.72
-37.72
-45.05
-54.48
-65.99
-78.24
-88.67
-94.09
-91.84
-80.9
-62.33
-39.1
-15.05
6.31
22.84
33.93
40.32
43.27
43.88
42.64
39.7
35.08
29.2
22.88
17.03
12.37
9.09
6.87
5.14
3.48
1.85
0.53
-0.03
0.42
1.75
3.43
4.71
4.9
3.61
0.82
-3.17
-7.93
-13.11
-18.42
-23.85
-29.52
-35.73
-42.94
-51.6
-61.85
-73.19
-84.26
-92.89
-96.75
-93.92
-83.66
-66.65
-44.89
-21.07
2.14
22.7
39.45
52.01
60.55
65.5
67.34
66.54
63.61
59.21
54.08
49.02
44.58
41.0
38.05
35.38
32.68
29.94
27.57
26.1
25.93
26.94
28.44
29.31
28.5
25.39
19.93
12.81
5.01
-2.49
-9.12
-14.86
-20.17
-25.68
-31.97
-39.39
-48.0
-57.67
-68.04
-78.41
-87.64
-94.02
-95.63
-90.78
-78.78
-60.25
-37.16
-12.38
11.22
31.37
46.9
57.72
64.46
68.07
69.36
68.85
66.79
63.34
58.73
53.35
47.71
42.37
37.87
34.57
32.58
31.76
31.8
32.23
32.6
32.53
31.76
30.18
27.75
24.42
20.16
15.01
9.07
2.52
-4.44
-11.75
-19.42
-27.49
-35.92
-44.6
-53.38
-62.28
-71.49
-81.19
-91.14
-100.28
-106.74
-108.1
-102.39
-88.83
-68.27
-43.1
-16.44
8.72
30.18
46.88
58.75
66.38
70.61
72.33
72.2
70.67
67.89
63.89
58.64
52.3
45.3
38.23
31.72
26.23
22.01
18.99
16.97
15.64
14.71
13.92
13.0
11.62
9.44
6.23
1.9
-3.45
-9.52
-15.97
-22.45
-28.72
-34.74
-40.77
-47.25
-54.67
-63.27
-72.66
-81.64
-88.26
-90.3
-85.97
-74.63
-57.09
-35.42
-12.35
9.41
27.86
41.93
51.46
57.0
59.33
59.28
57.5
54.39
50.16
44.94
38.9
32.42
26.08
20.63
16.67
14.55
14.13
14.86
15.92
16.51
16.07
14.42
11.73
8.3
4.42
0.2
-4.41
-9.52
-15.24
-21.59
-28.61
-36.36
-44.96
-54.31
-63.84
-72.18
-77.46
-77.61
-71.13
-57.82
-38.9
-16.79
5.67
25.98
42.51
54.64
62.51
66.64
67.58
65.84
61.9
56.33
49.79
42.99
36.51
30.73
25.74
21.46
17.79
14.7
12.29
10.71
9.9
9.54
9.04
7.71
5.01
0.76
-4.85
-11.26
-17.78
-23.89
-29.37
-34.54
-40.17
-47.29
-56.72
-68.53
-81.58
-93.53
-101.43
-102.6
-95.54
-80.54
-59.49
-35.28
-10.92
11.3
30.05
44.93
56.0
63.48
67.6
68.57
66.75
62.75
57.38
51.54
46.0
41.19
37.16
33.74
30.69
27.98
25.77
24.33
23.76
23.87
24.14
23.79
22.12
18.73
13.66
7.37
0.48
-6.39
-12.82
-18.76
-24.53
-30.71
-37.98
-46.85
-57.4
-68.97
-80.11
-88.65
-92.23
-88.94
-78.03
-60.27
-37.82
-13.64
9.35
29.03
44.4
55.49
62.78
66.92
68.34
67.36
64.4
59.97
54.77
49.41
44.3
39.54
35.08
30.87
27.06
24.01
22.09
21.48
21.98
22.94
23.48
22.67
19.92
15.1
8.66
1.39
-5.75
-12.16
-17.73
-22.89
-28.42
-35.14
-43.55
-53.68
-65.07
-76.75
-87.39
-95.36
-99.01
-96.91
-88.23
-73.13
-52.83
-29.43
-5.41
16.89
35.65
49.81
59.05
63.7
64.56
62.73
59.35
55.31
51.12
46.81
42.24
37.23
31.98
27.07
23.23
21.07
20.7
21.67
23.09
24.01
23.61
21.55
