38.01
38.53
37.38
34.84
31.33
27.31
23.29
19.64
16.61
14.32
12.83
12.17
12.33
13.2
14.52
15.88
16.84
17.07
16.45
15.03
13.0
10.53
7.71
4.56
1.07
-2.71
-6.65
-10.6
-14.41
-18.0
-21.43
-24.92
-28.82
-33.52
-39.21
-45.67
-52.14
-57.39
-60.04
-58.95
-53.63
-44.41
-32.32
-18.79
-5.26
7.15
17.76
26.27
32.62
36.89
39.18
39.61
38.42
35.93
32.59
28.87
25.21
21.9
19.12
16.9
15.25
14.14
13.53
13.36
13.49
13.71
13.78
13.46
12.58
11.06
8.92
6.28
3.3
0.12
-3.14
-6.4
-9.62
-12.77
-15.87
-19.01
-22.36
-26.21
-30.86
-36.48
-43.0
-49.89
-56.22
-60.82
-62.52
-60.49
-54.44
-44.75
-32.37
-18.58
-4.73
8.02
18.8
27.13
32.82
35.97
36.8
35.68
33.04
29.36
25.17
20.93
17.04
13.7
11.0
8.89
7.31
6.18
5.43
4.99
4.74
4.56
4.29
3.79
2.94
1.68
-0.08
-2.33
-5.04
-8.08
-11.26
-14.41
-17.4
-20.24
-23.03
-25.98
-29.36
-33.42
-38.31
-43.87
-49.51
-54.18
-56.57
-55.52
-50.39
-41.32
-29.2
-15.39
-1.33
11.8
23.23
32.56
39.64
44.47
47.13
47.79
46.7
44.25
40.9
37.18
33.55
30.39
27.87
26.01
24.66
23.59
22.61
21.57
20.4
19.06
17.52
15.66
13.34
10.41
6.78
2.51
-2.19
-7.0
-11.58
-15.73
-19.43
-22.92
-26.6
-30.97
-36.4
-42.93
-50.15
-57.07
-62.34
-64.57
-62.69
-56.37
-46.08
-32.99
-18.56
-4.18
9.09
20.59
29.93
36.93
41.52
43.76
43.86
42.27
39.53
36.19
32.7
29.35
26.27
23.53
21.17
19.23
17.72
16.62
15.88
15.36
14.9
14.27
13.16
11.23
8.25
4.14
-0.9
-6.42
-11.85
-16.71
-20.8
-24.26
-27.56
-31.33
-36.16
-42.36
-49.78
-57.67
-64.76
-69.5
-70.42
-66.61
-58.0
-45.43
-30.4
-14.59
0.56
14.13
25.65
34.95
41.94
46.52
48.66
48.52
46.54
43.37
39.73
36.2
33.1
30.51
28.33
26.42
24.69
23.11
21.75
20.69
19.98
19.62
19.44
19.07
17.98
15.59
11.58
6.01
-0.59
-7.43
-13.72
-19.04
-23.4
-27.26
-31.25
-35.99
-41.87
-48.92
-56.78
-64.62
-71.24
-75.22
-75.29
-70.69
-61.44
-48.33
-32.74
-16.24
-0.23
14.28
26.64
36.53
43.82
48.52
50.82
51.06
49.74
47.44
44.71
41.93
39.28
36.67
33.87
30.58
26.61
21.98
16.98
12.13
8.01
5.07
3.4
2.65
2.14
1.07
-1.15
-4.72
-9.32
-14.27
-18.68
-21.76
-22.98
-22.24
-20.0
-17.22
-15.23
-15.37
-18.59
-25.1
-34.12
-43.98
-52.5
-57.53
-57.56
-52.03
-41.44
-27.14
-10.97
5.16
19.64
31.39
39.93
45.25
47.64
47.57
45.5
41.89
37.23
32.04
26.98
22.71
19.82
18.63
19.13
20.94
23.41
25.93
28.01
29.43
30.19
30.31
29.71
28.16
25.36
21.15
15.69
9.44
2.99
-3.15
-8.79
-14.09
-19.48
-25.41
-32.29
-40.32
-49.48
-59.36
-69.15
-77.59
-83.13
-84.36
-80.4
-71.24
-57.77
-41.63
-24.7
-8.73
4.97
15.7
23.22
27.75
29.71
29.7
28.34
26.22
23.81
21.42
19.21
17.17
15.29
13.55
12.07
11.11
10.92
11.64
13.1
14.74
15.68
14.96
11.85
6.12
-1.84
-11.11
-20.56
-29.14
-36.21
-41.68
-45.92
-49.62
-53.46
-57.91
-62.98
-68.17
-72.48
-74.62
-73.36
-67.91
-58.23
-45.04
-29.69
-13.71
1.49
14.93
26.08
34.74
40.89
44.6
46.03
45.45
43.36
40.39
37.26
34.66
33.16
33.14
34.82
38.31
43.58
50.47
58.7
67.82
77.28
86.45
94.72
101.62
106.83
110.2
111.75
111.54
109.67
106.09
100.63
92.96
82.66
69.44
53.39
35.24
16.43
-1.0
-14.88
-23.49
-26.09
-23.17
-16.28
-7.55
0.99
7.93
12.69
15.39
16.52
16.53
15.57
13.56
10.28
5.6
-0.38
-7.38
-14.96
-22.72
-30.33
-37.5
-43.87
-49.05
-52.63
-54.39
-54.42
-53.22
-51.5
-50.06
-49.51
-50.07
-51.64
-53.85
-56.24
-58.47
-60.36
-61.96
-63.57
-65.67
-68.85
-73.6
-80.02
-87.56
-94.95
-100.39
-102.11
-98.84
-90.31
-77.27
-61.21
-43.9
-26.92
-11.43
1.92
12.8
21.12
26.94
30.41
31.91
31.92
31.1
29.99
29.05
28.42
28.08
27.85
27.62
27.43
27.45
27.85
28.62
29.44
29.72
28.67
25.69
20.47
13.29
4.95
-3.29
-10.13
-14.59
-16.29
-15.61
-13.59
-11.6
-10.91
-12.23
-15.48
-19.64
-23.01
-23.66
-20.0
-11.33
1.9
18.16
35.28
51.05
63.8
72.77
78.18
80.97
82.42
83.56
84.89
86.23
86.91
86.28
84.08
80.63
76.67
72.96
69.88
67.41
65.16
62.83
60.3
57.64
54.82
51.48
46.97
40.55
31.8
20.93
8.69
-3.9
-15.99
-27.12
-37.31
-46.86
-56.08
-65.19
-74.2
-83.02
-91.39
-98.88
-104.77
-108.04
-107.65
-102.84
-93.47
-80.24
-64.51
-47.97
-32.22
-18.43
-7.27
0.96
6.15
8.22
7.21
3.35
-2.73
-10.14
-17.76
-24.6
-29.95
-33.54
-35.44
-35.96
-35.41
-34.03
-31.94
-29.24
-26.05
-22.62
-19.34
-16.58
-14.6
-13.35
-12.52
-11.62
-10.2
-8.06
-5.36
-2.62
-0.53
0.23
-0.85
-3.98
-8.92
-14.98
-21.03
-25.67
-27.58
-25.92
-20.56
-12.17
-2.02
8.52
18.23
26.35
32.54
36.73
38.93
39.18
37.48
33.87
28.48
21.47
13.06
3.55
-6.69
-17.09
-26.93
-35.38
-41.68
-45.28
-46.1
-44.46
-41.12
-37.09
-33.34
-30.6
-29.19
-29.06
-29.85
-31.14
-32.58
-34.03
-35.53
-37.2
-39.22
-41.64
-44.32
-46.71
-47.94
-46.85
-42.3
-33.54
-20.58
-4.31
13.72
31.7
48.05
61.77
72.5
80.3
85.38
87.86
87.76
85.08
80.07
73.35
65.8
58.44
52.06
47.04
43.31
40.54
38.35
36.51
35.03
33.98
33.4
33.08
32.63
31.56
29.47
26.21
21.97
17.18
12.34
7.89
3.99
0.51
-2.98
-7.13
-12.59
-19.77
-28.47
-37.79
-46.1
-51.5
-52.39
-48.01
-38.77
-26.05
-11.68
2.69
15.92
27.56
37.55
45.93
52.63
57.49
60.39
61.38
60.79
59.1
56.81
54.3
51.77
49.17
46.31
43.02
39.24
35.05
30.75
26.6
22.78
19.19
15.54
11.42
6.53
0.77
-5.7
-12.53
-19.39
-25.99
-32.2
-37.98
-43.39
-48.54
-53.72
-59.32
-65.74
-73.11
-80.98
-88.23
-93.25
-94.33
-90.34
-81.08
-67.43
-51.03
-33.71
-16.99
-1.87
11.18
22.02
30.56
36.76
40.61
42.24
42.0
40.42
38.06
35.47
33.02
30.9
29.16
27.74
26.56
25.56
24.74
24.1
23.64
23.24
22.71
21.73
20.0
17.23
13.35
8.45
2.89
-2.85
-8.24
-12.97
-16.96
-20.46
-23.97
-28.14
-33.54
-40.45
-48.59
-57.03
-64.23
-68.44
-68.13
-62.54
-51.95
-37.63
-21.37
-4.97
10.27
23.67
35.07
44.5
51.95
57.21
60.05
60.3
58.06
53.73
47.92
41.29
34.46
27.84
21.73
16.27
11.54
7.6
4.47
2.12
0.41
-0.9
-2.16
-3.8
-6.17
-9.47
-13.63
-18.32
-22.99
-27.14
-30.42
-32.85
-34.8
-36.85
-39.66
-43.7
-49.18
-55.82
-62.91
-69.24
-73.42
-74.13
-70.5
-62.4
-50.46
-35.88
-20.11
-4.5
9.91
22.44
32.64
40.25
45.13
47.34
47.22
45.36
42.51
39.34
36.3
33.54
31.02
28.57
26.17
23.95
22.16
21.04
20.6
20.6
20.51
19.76
17.87
14.72
10.48
5.62
0.66
-4.01
-8.21
-12.04
-15.81
-19.94
-24.89
-30.99
-38.32
-46.51
-54.64
-61.31
-64.97
-64.32
-58.78
-48.66
-35.05
-19.46
-3.46
11.73
25.27
36.68
45.74
52.38
56.65
58.78
59.15
58.25
56.63
54.76
53.0
51.56
50.52
49.87
49.6
49.76
50.45
51.79
53.75
56.07
58.28
59.72
59.78
58.13
54.8
50.24
45.1
40.02
35.34
30.97
26.37
20.75
13.39
3.87
-7.69
-20.55
-33.51
-45.06
-53.63
-57.88
-56.9
-50.45
-39.09
-24.07
-7.18
9.66
24.81
37.2
46.38
52.42
55.64
56.46
55.21
52.16
47.47
41.32
33.95
25.73
17.16
8.89
1.51
-4.6
-9.43
-13.27
-16.65
-20.05
-23.72
-27.75
-32.08
-36.74
-41.95
-48.02
-55.22
-63.55
-72.68
-81.99
-90.87
-98.88
-105.91
-112.15
-117.98
-123.79
-129.95
-136.66
-143.87
-151.09
-157.29
-160.89
-160.05
-153.22
-139.68
-119.9
-95.42
-68.53
-41.59
-16.58
5.2
23.06
36.83
46.64
52.85
55.99
56.73
55.85
54.01
51.75
49.42
47.2
45.23
43.57
42.3
41.36
40.63
39.84
38.73
37.06
34.74
31.81
28.35
24.46
20.19
15.5
10.36
4.71
-1.46
-8.06
-14.94
-21.89
-28.76
-35.46
-42.1
-48.96
-56.39
-64.75
-74.11
-84.15
-94.01
-102.28
-107.27
-107.38
-101.6
-89.83
-73.01
-52.88
-31.52
-10.84
7.81
23.74
36.82
47.24
55.28
61.1
64.81
66.46
66.19
64.29
61.21
57.52
53.7
50.15
47.09
44.59
42.68
41.35
40.54
40.09
39.75
39.1
37.76
35.39
31.85
27.2
21.68
15.6
9.28
3.0
-3.09
-8.92
-14.58
-20.28
-26.38
-33.29
-41.28
-50.24
-59.46
-67.67
-73.2
-74.49
-70.54
-61.26
-47.51
-30.77
-12.78
4.9
21.06
34.9
45.93
53.92
58.83
60.86
60.4
58.06
54.54
50.51
46.5
42.88
39.75
37.07
34.73
32.67
30.89
29.5
28.59
28.09
27.7
26.92
25.19
22.12
17.58
11.84
5.38
-1.21
-7.55
-13.46
-19.08
-24.76
-31.0
-38.19
-46.5
-55.65
-64.78
-72.47
-77.07
-77.08
-71.65
-60.83
-45.67
-27.85
-9.27
8.42
24.02
36.97
47.11
54.55
59.53
62.3
63.1
62.2
59.92
56.69
52.96
49.25
45.95
43.36
41.52
40.27
39.34
38.44
37.41
36.19
34.82
33.27
31.4
28.96
25.64
21.28
15.94
9.92
3.69
-2.32
-7.85
-12.89
-17.73
-22.78
-28.49
-35.22
-43.11
-51.97
-61.09
-69.3
-75.03
-76.72
-73.25
-64.34
-50.72
-33.94
-15.91
1.62
17.42
30.85
41.67
49.86
55.42
58.4
58.95
57.42
54.36
50.4
46.18
42.14
38.55
35.48
32.88
30.68
28.87
27.51
26.65
26.29
26.21
26.06
25.34
23.6
20.6
16.35
11.16
5.49
-0.19
-5.53
-10.43
-14.99
-19.48
-24.21
-29.48
-35.53
-42.54
-50.48
-59.02
-67.36
-74.2
-78.04
-77.51
-71.84
-61.09
-46.2
-28.7
-10.33
7.3
22.96
35.85
45.61
52.24
56.04
57.51
57.22
55.7
53.35
50.45
47.21
43.81
40.48
37.43
34.88
32.98
31.78
31.2
30.98
30.76
30.13
28.78
26.58
23.59
20.04
16.15
12.03
7.64
2.84
-2.48
-8.29
-14.39
-20.46
-26.22
-31.53
-36.44
-41.24
-46.39
-52.38
-59.49
-67.55
-75.75
-82.66
-86.54
-85.86
-79.77
-68.5
-53.17
-35.53
-17.38
-0.24
14.88
27.44
37.19
44.11
48.29
49.96
49.46
47.22
43.7
39.38
34.76
30.26
26.28
23.05
20.6
18.83
17.52
16.44
15.42
14.36
13.18
11.75
9.84
7.21
3.68
-0.75
-5.85
-11.22
-16.42
-21.14
-25.28
-28.99
-32.64
-36.64
-41.42
-47.24
-54.14
-61.79
-69.43
-75.94
-79.93
-80.12
-75.64
-66.36
-52.95
-36.75
-19.38
-2.45
12.8
25.5
35.17
41.56
44.68
44.73
42.23
37.92
32.63
27.16
22.11
17.79
14.29
11.52
9.31
7.54
6.15
5.16
4.61
4.46
4.52
4.41
3.69
1.98
-0.79
-4.41
-8.39
-12.22
-15.62
-18.65
-21.7
-25.35
-30.13
-36.26
-43.45
-50.83
-57.02
-60.41
-59.55
-53.62
-42.63
-27.52
-9.81
8.74
26.52
42.25
55.08
64.53
70.42
72.92
72.55
70.17
66.74
63.13
59.83
56.9
54.1
51.05
47.58
43.77
40.0
36.74
34.3
32.71
31.59
30.34
28.29
24.93
20.06
13.87
6.82
-0.46
-7.38
-13.58
-19.04
-24.03
-29.09
-34.82
-41.74
-50.02
-59.25
-68.36
-75.76
-79.64
-78.58
-71.93
-60.11
-44.43
-26.74
-8.86
7.75
22.17
33.97
43.02
49.35
53.09
54.45
53.78
51.53
48.23
44.41
40.5
36.79
33.4
30.35
27.61
25.24
23.37
22.1
21.44
21.22
21.04
20.47
19.1
16.68
13.18
8.71
3.49
-2.22
-8.18
-14.12
-19.87
-25.38
-30.77
-36.41
-42.76
-50.24
-58.94
-68.33
-77.16
-83.62
-85.83
-82.42
-72.98
-58.28
-40.01
-20.3
-1.16
15.91
30.05
40.95
48.64
53.34
55.35
55.02
52.86
49.42
45.23
40.74
36.21
31.72
27.32
23.1
19.34
16.39
14.51
13.69
13.58
13.5
12.74
10.74
7.29
2.55
-3.04
-8.93
-14.68
-20.03
-24.99
-29.82
-34.94
-40.82
-47.76
-55.68
-63.99
-71.53
-76.75
-78.13
-74.59
-65.87
-52.64
-36.4
-19.0
-2.21
12.66
24.88
34.24
40.79
44.75
46.32
45.79
43.52
39.98
35.68
31.12
26.7
22.74
19.54
17.31
16.16
16.01
16.52
17.18
17.38
16.66
14.76
11.73
7.77
3.15
-1.87
-7.15
-12.61
-18.32
-24.44
-31.25
-38.97
-47.54
-56.38
-64.28
-69.56
-70.55
-66.1
-55.95
-40.97
-22.81
-3.58
14.78
30.81
43.69
53.16
59.34
62.54
63.15
61.55
58.19
53.51
48.0
42.1
36.24
30.74
25.85
21.79
18.69
16.56
15.28
14.49
13.68
12.28
9.87
6.25
1.59
-3.7
-9.11
-14.25
-19.0
-23.62
-28.62
-34.69
-42.3
-51.5
-61.64
-71.36
-78.77
-81.95
-79.48
-70.9
-56.86
-38.98
-19.34
0.05
17.66
32.58
44.44
53.17
58.84
61.63
61.8
59.81
56.29
51.91
47.26
42.68
38.3
34.07
30.0
26.23
23.09
20.86
19.63
19.14
18.84
17.98
15.92
12.37
7.46
1.65
-4.41
-10.23
-15.55
-20.45
-25.25
-30.43
-36.48
-43.74
-52.23
-61.44
-70.26
-77.08
-80.15
-78.1
-70.39
-57.52
-40.85
-22.21
-3.37
14.27
29.77
42.59
52.47
59.26
63.0
63.96
62.56
59.43
55.21
50.47
45.64
40.92
36.38
32.04
27.95
24.27
21.22
18.94
17.41
16.34
15.24
13.59
10.97
7.23
2.53
-2.78
-8.28
-13.61
-18.65
-23.5
-28.54
-34.29
-41.23
-49.54
-58.82
-68.01
-75.52
-79.57
-78.71
-72.27
-60.56
-44.83
-26.83
-8.39
8.93
24.07
36.38
45.54
51.44
54.18
54.05
51.58
47.51
42.57
37.36
32.24
27.33
22.65
18.3
14.51
11.53
9.56
8.49
7.95
7.35
6.09
3.79
0.37
-3.95
-8.81
-13.82
-18.7
-23.36
-27.94
-32.8
-38.39
-44.99
-52.45
-59.95
-66.07
-69.08
-67.52
-60.61
-48.64
-32.8
-14.91
3.11
19.64
33.58
44.41
51.98
56.41
57.98
57.11
54.29
50.09
45.07
39.7
34.37
29.35
24.83
21.02
18.06
15.97
14.64
13.68
12.65
11.06
8.58
5.07
0.63
-4.48
-9.95
-15.45
-20.77
-25.87
-30.97
-36.52
-43.02
-50.77
-59.47
-68.12
-75.06
-78.41
-76.61
-69.0
-56.0
-39.04
-20.07
-1.07
16.36
31.21
42.96
51.47
56.79
59.18
59.06
57.01
53.68
49.64
45.3
40.83
36.25
31.57
26.9
22.55
18.9
16.26
14.66
13.81
13.1
11.84
9.45
5.7
0.76
-4.91
-10.69
-16.1
-20.93
-25.38
-29.99
-35.48
-42.39
-50.82
-60.14
-69.05
-75.78
-78.55
-76.04
-67.78
-54.26
-36.78
-17.19
2.54
20.73
36.14
48.09
56.43
61.32
63.18
62.56
60.09
56.44
52.2
47.83
43.57
39.46
35.42
31.39
27.5
24.01
21.28
19.51
18.64
18.25
17.71
16.35
13.74
9.82
4.86
-0.57
-5.94
-10.89
-15.38
-19.71
-24.44
-30.2
-37.42
-46.12
-55.59
-64.5
-71.07
-73.58
-70.88
-62.73
-49.89
-33.83
-16.32
1.04
17.04
30.85
41.95
50.02
54.89
56.62
55.57
52.37
47.81
42.69
37.59
32.86
28.56
24.65
21.03
17.76
14.98
12.9
11.64
11.06
10.79
10.25
8.84
6.15
2.12
-2.97
-8.58
-14.14
-19.26
-23.8
-27.96
-32.19
-37.06
-43.11
-50.61
-59.32
-68.39
-76.4
-81.66
-82.6
-78.33
-68.86
-55.1
-38.6
-21.1
-4.16
11.02
23.65
33.31
39.89
43.48
44.38
43.09
40.16
36.14
31.51
26.63
21.79
17.23
13.18
9.87
7.47
6.07
5.59
5.69
5.85
5.47
4.07
1.42
-2.34
-6.78
-11.4
-15.74
-19.6
-23.08
-26.58
-30.66
-35.85
-42.39
-49.94
-57.42
-63.19
-65.42
-62.72
-54.62
-41.79
-25.83
-8.68
7.86
22.58
34.88
44.49
51.34
55.31
56.42
54.86
51.19
46.17
40.67
35.34
30.53
26.3
22.59
19.34
16.65
14.69
13.53
13.01
12.66
11.83
9.88
6.48
1.74
-3.88
-9.71
-15.21
-20.17
-24.8
-29.7
-35.54
-42.82
-51.58
-61.27
-70.67
-78.14
-81.88
-80.43
-73.11
-60.22
-43.06
-23.57
-3.88
14.23
29.6
41.74
50.67
56.66
60.0
60.95
59.83
57.04
53.14
48.71
44.23
39.98
35.98
32.18
28.56
25.28
22.57
20.65
19.52
18.85
18.07
16.55
13.79
9.65
4.36
-1.56
-7.55
-13.18
-18.33
-23.26
-28.51
-34.71
-42.32
-51.32
-61.0
-69.92
-76.23
-78.09
-74.27
-64.58
-49.93
-32.05
-13.03
5.27
21.55
35.13
45.86
53.86
59.3
62.33
63.14
61.98
59.17
55.2
50.59
45.84
41.43
37.68
34.76
32.64
31.11
29.89
28.7
27.32
25.69
23.8
21.6
18.95
15.64
11.47
6.46
0.82
-5.06
-10.76
-16.0
-20.74
-25.17
-29.65
-34.6
-40.42
-47.41
-55.57
-64.47
-73.11
-80.01
-83.46
-82.03
-74.98
-62.62
-46.18
-27.51
-8.52
9.21
24.67
37.36
47.1
53.86
57.66
58.61
57.05
53.57
48.94
43.98
39.35
35.41
32.23
29.64
27.42
25.41
23.59
22.09
21.0
20.31
19.76
18.85
17.01
13.79
9.1
3.3
-2.95
-8.94
-14.21
-18.7
-22.79
-27.09
-32.19
-38.53
-46.2
-54.94
-64.08
-72.58
-79.11
-82.29
-81.0
-74.74
-63.8
-49.27
-32.73
-15.91
-0.26
13.24
24.1
32.15
37.41
40.02
40.24
38.52
35.49
31.79
27.97
24.38
21.14
18.32
15.98
14.31
13.49
13.58
14.38
15.43
16.13
15.87
14.31
11.35
7.2
2.27
-2.95
-8.06
-12.84
-17.33
-21.85
-26.91
-33.04
-40.51
-49.11
-57.89
-65.34
-69.64
-69.2
-63.21
-51.88
-36.43
-18.67
-0.52
16.43
31.16
43.15
52.2
58.25
61.33
61.56
59.28
55.11
49.88
44.43
39.42
35.19
31.72
28.76
26.05
23.51
21.26
19.53
18.47
17.93
17.46
16.39
14.12
10.33
5.14
-0.99
-7.37
-13.41
-18.78
-23.51
-27.93
-32.58
-38.03
-44.69
-52.71
-61.73
-70.81
-78.46
-82.94
-82.74
-77.0
-65.88
-50.5
-32.57
-13.97
3.75
19.57
32.93
43.61
51.54
56.74
59.28
59.41
57.55
54.23
50.04
45.51
41.04
36.9
33.22
30.05
27.4
25.3
23.8
22.92
22.54
22.36
21.94
20.74
18.32
14.5
9.4
3.41
-2.98
-9.3
-15.27
-20.83
-26.07
-31.21
-36.59
-42.6
-49.6
-57.75
-66.72
-75.6
-82.85
-86.72
-85.64
-78.85
-66.56
-50.0
-31.03
-11.6
6.61
22.46
35.36
45.19
52.07
56.28
58.18
58.13
56.5
53.66
49.98
45.81
41.51
37.39
33.73
30.74
28.48
26.92
25.93
25.31
24.8
24.18
23.23
21.75
19.58
16.56
12.63
7.83
2.34
-3.53
-9.46
-15.22
-20.8
-26.41
-32.4
-39.17
-46.97
-55.74
-64.97
-73.62
-80.26
-83.29
-81.41
-73.98
-61.33
-44.67
-25.82
-6.74
10.9
25.98
37.95
46.68
52.32
55.13
55.43
53.59
50.06
45.38
40.1
34.77
29.83
25.56
22.07
19.34
17.3
15.91
15.1
14.78
14.72
14.55
13.78
11.95
8.78
4.26
-1.34
-7.54
-13.8
-19.68
-24.92
-29.55
-33.88
-38.48
-43.99
-50.94
-59.4
-68.78
-77.79
-84.7
-87.75
-85.64
-77.94
-65.17
-48.63
-30.03
-11.12
6.64
22.16
34.77
44.11
50.1
52.89
52.84
50.49
46.52
41.65
36.57
31.77
27.55
23.97
20.95
18.44
16.41
15.0
14.27
14.16
14.35
14.3
13.39
11.17
7.51
2.63
-2.93
-8.58
-13.87
-18.67
-23.23
-28.1
-33.97
-41.35
-50.32
-60.3
-69.94
-77.45
-80.93
-78.96
-71.02
-57.66
-40.33
-21.02
-1.69
16.07
31.27
43.41
52.33
58.03
60.58
60.19
57.29
52.54
46.77
40.74
35.05
29.95
25.43
21.41
17.83
14.75
12.35
10.72
9.8
9.26
8.58
7.17
4.55
0.52
-4.74
-10.79
-17.02
-22.97
-28.4
-33.41
-38.44
-44.07
-50.87
-59.11
-68.56
-78.26
-86.66
-91.85
-92.13
-86.48
-74.88
-58.35
-38.62
-17.64
2.8
21.35
37.09
49.52
58.42
63.82
66.01
65.53
63.13
59.64
55.77
51.94
48.27
44.66
40.92
37.01
33.16
29.8
27.36
26.07
25.74
25.77
25.38
23.83
20.75
16.2
10.61
4.62
-1.19
-6.44
-11.14
-15.64
-20.56
-26.58
-34.17
-43.25
-52.98
-61.86
-67.92
-69.35
-65.0
-54.73
-39.43
-20.79
-0.74
18.9
36.7
51.74
63.51
71.8
76.6
78.14
76.8
73.12
67.74
61.3
54.41
47.56
41.13
35.38
30.5
26.58
23.67
21.7
20.51
19.77
19.01
17.69
15.4
11.89
7.28
1.92
-3.67
-9.13
-14.4
-19.79
-25.89
-33.26
-42.12
-52.03
-61.82
-69.79
-74.15
-73.46
-67.1
-55.46
-39.82
-22.04
-4.14
12.15
25.67
35.83
42.58
46.15
46.89
45.22
41.54
36.35
30.21
23.72
17.42
11.76
7.02
3.37
0.93
-0.31
-0.45
0.18
1.05
1.47
0.85
-1.17
-4.58
-9.04
-13.99
-18.94
-23.56
-27.85
-32.1
-36.83
-42.59
-49.66
-57.79
-66.05
-72.82
-76.21
-74.56
-66.99
-53.72
-35.99
-15.72
5.02
24.36
40.95
53.98
63.08
68.3
69.98
68.69
65.16
60.11
54.22
48.07
42.06
36.47
31.46
27.12
23.51
20.69
18.72
17.56
16.98
16.58
15.81
14.14
11.27
7.17
2.09
-3.58
-9.49
-15.41
-21.28
-27.19
-33.38
-40.18
-47.99
-56.96
-66.81
-76.5
-84.34
-88.27
-86.52
-78.24
-63.82
-44.83
-23.52
-2.19
17.32
33.9
47.09
56.83
63.26
66.6
67.09
65.15
61.33
56.29
50.67
45.03
39.68
34.77
30.32
26.36
22.97
20.34
18.62
17.81
17.62
17.53
16.87
15.04
11.68
6.83
0.85
-5.72
-12.28
-18.45
-24.1
-29.4
-34.73
-40.68
-47.77
-56.27
-65.86
-75.51
-83.5
-87.79
-86.57
-78.91
-65.07
-46.48
-25.29
-3.78
16.15
33.27
46.99
57.14
63.79
67.08
67.28
64.85
60.46
54.9
48.92
43.08
37.67
32.78
28.41
24.61
21.56
19.45
18.37
18.17
18.41
18.42
17.49
15.13
11.2
5.94
-0.12
-6.36
-12.31
-17.79
-22.96
-28.32
-34.45
-41.84
-50.6
-60.19
-69.35
-76.32
-79.22
-76.57
-67.84
-53.6
-35.4
-15.32
4.53
22.49
37.48
49.03
57.02
61.58
62.93
61.41
57.56
52.06
45.67
39.1
32.85
27.18
22.14
17.79
14.24
11.67
10.22
9.76
9.89
9.93
9.15
7.03
3.42
-1.48
-7.18
-13.14
-18.91
-24.31
-29.42
-34.6
-40.32
-47.04
-54.93
-63.57
-71.91
-78.32
-80.96
-78.37
-69.91
-56.06
-38.27
-18.6
0.87
18.41
32.94
43.94
51.34
55.31
56.18
54.4
50.55
45.3
39.34
33.33
27.75
22.87
18.83
15.68
13.44
12.13
11.67
11.84
12.19
12.16
11.15
8.77
4.95
-0.07
-5.78
-11.64
-17.22
-22.35
-27.21
-32.26
-38.13
-45.29
-53.82
-63.11
-71.8
-78.02
-79.84
-75.85
-65.6
-49.82
-30.2
-9.01
11.52
29.54
43.97
54.39
60.92
64.02
64.22
62.05
58.04
52.77
46.85
40.9
35.39
30.56
26.45
22.97
20.08
17.83
16.32
15.54
15.25
14.99
14.1
11.99
8.37
3.33
-2.66
-8.96
-15.01
-20.54
-25.63
-30.7
-36.32
-43.03
-51.08
-60.25
-69.74
-78.11
-83.55
-84.29
-79.13
-67.83
-51.29
-31.3
-10.05
10.43
28.64
43.7
55.27
63.23
67.67
68.78
67.0
63.0
57.63
51.71
45.94
40.7
36.07
31.97
28.3
25.07
22.39
20.47
19.39
19.03
19.03
18.8
17.68
15.23
11.28
6.08
0.14
-5.92
-11.62
-16.76
-21.47
-26.11
-31.18
-37.17
-44.41
-52.95
-62.3
-71.36
-78.51
-81.87
-79.86
-71.68
-57.72
-39.4
-18.91
1.51
20.01
35.45
47.35
55.72
60.82
62.97
62.55
59.98
55.77
50.49
44.71
38.95
33.58
28.88
24.94
21.79
19.38
17.68
16.62
16.05
15.76
15.4
14.52
12.68
9.56
5.09
-0.5
-6.81
-13.29
-19.52
-25.22
-30.37
-35.22
-40.18
-45.8
-52.54
-60.6
-69.67
-78.8
-86.44
-90.79
-90.22
-83.79
-71.6
-54.73
-34.99
-14.46
4.99
21.98
35.7
45.83
52.4
55.64
55.9
53.66
49.51
44.13
38.22
32.43
27.23
22.9
19.52
17.03
15.37
14.46
14.24
14.58
15.18
15.56
15.14
13.39
10.05
5.22
-0.64
-6.93
-13.08
-18.79
-24.05
-29.16
-34.62
-40.97
-48.56
-57.31
-66.49
-74.62
-79.75
-80.02
-74.22
-62.33
-45.57
-26.03
-6.01
12.55
28.45
41.12
50.48
56.56
59.49
59.44
56.81
52.27
46.67
40.89
35.59
31.12
27.51
24.58
22.12
20.05
18.47
17.52
17.26
17.53
17.9
17.78
16.59
13.97
9.94
4.89
-0.63
-6.04
-10.96
-15.38
-19.54
-23.99
-29.34
-36.06
-44.26
-53.38
-62.11
-68.58
-70.81
-67.32
-57.7
-42.69
-24.05
-3.92
15.67
33.26
48.03
59.66
68.09
73.31
75.32
74.26
70.51
64.71
57.72
50.41
43.44
37.2
31.72
26.88
22.56
18.77
15.67
13.42
12.01
11.12
10.11
8.28
5.05
0.29
-5.65
-12.12
-18.37
-23.92
-28.69
-33.03
-37.52
-42.83
-49.48
-57.62
-66.86
-76.08
-83.55
-87.31
-85.7
-77.92
-64.36
-46.5
-26.41
-6.2
12.41
28.36
41.11
50.56
56.79
60.06
60.71
59.17
