-10.71
-11.19
-12.35
-14.16
-16.42
-18.9
-21.52
-24.36
-27.72
-31.94
-37.16
-43.24
-49.62
-55.44
-59.71
-61.55
-60.47
-56.45
-49.96
-41.83
-32.95
-24.19
-16.2
-9.42
-4.08
-0.26
2.07
3.06
2.95
2.04
0.64
-0.95
-2.44
-3.67
-4.55
-5.15
-5.62
-6.1
-6.73
-7.47
-8.29
-9.09
-9.9
-10.84
-12.14
-14.06
-16.8
-20.48
-25.15
-30.82
-37.32
-44.32
-51.14
-56.82
-60.36
-60.92
-58.14
-52.2
-43.83
-34.06
-23.91
-14.24
-5.59
1.8
7.82
12.51
15.89
18.07
19.14
19.27
18.73
17.85
16.98
16.45
16.39
16.83
17.59
18.41
19.07
19.49
19.66
19.6
19.29
18.58
17.25
15.1
12.0
7.95
3.0
-2.74
-9.15
-15.91
-22.37
-27.55
-30.32
-29.75
-25.49
-17.95
-8.18
2.46
12.71
21.73
29.09
34.72
38.64
40.92
41.61
40.86
38.95
36.29
33.32
30.39
27.76
25.54
23.78
22.47
21.58
21.06
20.79
20.6
20.27
19.48
17.94
15.48
12.07
7.9
3.23
-1.76
-7.13
-13.17
-20.23
-28.34
-36.88
-44.62
-49.89
-51.21
-47.79
-39.88
-28.63
-15.74
-2.85
8.81
18.6
26.43
32.44
36.86
39.78
41.2
41.08
39.49
36.65
33.02
29.16
25.69
23.04
21.4
20.63
20.41
20.24
19.7
18.5
16.57
13.99
10.95
7.6
4.05
0.27
-3.87
-8.61
-14.21
-20.83
-28.33
-36.13
-43.15
-48.04
-49.51
-46.84
-40.05
-30.03
-18.14
-5.83
5.82
16.16
24.93
32.07
37.52
41.13
42.73
42.11
39.26
34.27
27.57
19.85
12.07
5.25
0.18
-2.93
-4.62
-5.97
-8.04
-11.36
-15.66
-19.94
-23.08
-24.51
-24.44
-23.69
-23.18
-23.35
-24.01
-24.57
-24.58
-23.91
-22.77
-21.27
-19.21
-15.95
-10.81
-3.51
5.53
15.26
24.41
31.88
37.05
39.73
40.04
38.28
34.84
30.23
25.13
20.26
16.15
13.1
11.0
9.6
8.7
8.41
9.14
11.4
15.53
21.39
28.34
35.31
41.02
44.32
44.41
41.09
34.84
26.85
18.83
12.71
10.19
12.29
19.13
29.87
43.03
56.94
70.13
81.58
90.67
97.13
100.85
101.84
100.21
96.3
90.62
83.84
76.69
69.74
63.37
57.72
52.77
48.32
44.13
39.99
35.77
31.43
27.09
22.91
19.03
15.53
12.34
9.27
5.98
2.14
-2.58
-8.3
-14.91
-22.01
-28.92
-34.72
-38.48
-39.42
-37.11
-31.54
-23.07
-12.32
-0.11
12.66
24.96
35.69
43.75
48.18
48.45
44.63
37.51
28.54
19.47
12.0
7.21
5.31
5.57
6.67
7.19
6.12
3.22
-1.15
-6.27
-11.49
-16.42
-21.01
-25.33
-29.52
-33.72
-38.04
-42.65
-47.63
-52.87
-57.94
-62.13
-64.58
-64.6
-61.82
-56.34
-48.63
-39.41
-29.39
-19.19
-9.24
0.17
8.82
16.54
23.15
28.47
32.32
34.54
35.0
33.77
31.16
27.72
24.19
21.24
19.26
18.23
17.78
17.42
16.77
15.76
14.52
13.18
11.62
9.38
5.8
0.34
-7.04
-15.72
-24.6
-32.42
-38.2
-41.47
-42.35
-41.33
-39.0
-35.82
-32.07
-27.87
-23.38
-18.8
-14.45
-10.72
-7.91
-6.21
-5.56
-5.72
-6.32
-6.99
-7.49
-7.82
-8.16
-8.75
-9.79
-11.25
-12.98
-14.68
-16.11
-17.21
-18.08
-18.96
-20.1
-21.64
-23.62
-25.92
-28.34
-30.57
-32.12
-32.42
-30.88
-27.12
-21.13
-13.35
-4.6
4.16
12.09
18.64
23.52
26.64
27.98
27.55
25.53
22.28
18.38
14.45
11.06
8.55
7.03
6.43
6.58
7.28
8.34
9.48
10.45
10.98
10.85
9.97
8.32
5.99
3.08
-0.33
-4.15
-8.36
-12.9
-17.62
-22.24
-26.25
-28.98
-29.78
-28.25
-24.39
-18.73
-12.16
-5.73
-0.28
3.72
6.2
7.38
7.52
6.83
5.44
3.52
1.47
-0.13
-0.67
0.25
2.57
5.76
8.95
11.25
11.95
10.75
7.64
2.89
-3.09
-9.86
-16.94
-23.96
-30.66
-36.91
-42.74
-48.32
-53.84
-59.43
-64.97
-70.04
-73.88
-75.57
-74.28
-69.6
-61.73
-51.48
-40.11
-28.9
-18.88
-10.58
-4.06
0.87
4.5
6.94
8.19
8.19
6.95
4.71
1.83
-1.21
-3.98
-6.15
-7.54
-8.1
-7.92
-7.21
-6.35
-5.77
-5.86
-6.87
-8.8
-11.39
-14.33
-17.34
-20.34
-23.51
-27.17
-31.61
-36.86
-42.53
-47.73
-51.33
-52.16
-49.44
-42.98
-33.31
-21.48
-8.85
3.3
13.95
22.54
28.93
33.24
35.69
36.54
35.98
34.2
31.45
28.16
24.82
21.95
19.89
18.73
18.23
17.97
17.58
16.84
15.74
14.41
12.99
11.46
9.64
7.25
4.09
0.05
-4.8
-10.31
-16.27
-22.32
-27.94
-32.37
-34.72
-34.18
-30.33
-23.33
-13.95
-3.34
7.23
16.68
24.32
29.8
33.08
34.25
33.52
31.14
27.49
23.06
18.43
14.21
10.8
8.34
6.65
5.3
3.85
2.01
-0.26
-2.72
-4.99
-6.73
-7.81
-8.39
-8.94
-10.04
-12.23
-15.74
-20.44
-25.78
-30.97
-35.11
-37.4
-37.23
-34.27
-28.56
-20.56
-11.1
-1.23
8.05
15.94
22.04
26.24
28.61
29.35
28.73
27.13
25.06
23.08
21.58
20.74
20.45
20.52
20.75
21.1
21.61
22.35
23.36
24.69
26.46
28.75
31.58
34.7
37.58
39.56
40.02
38.63
35.51
31.16
26.37
22.07
19.29
18.93
21.69
27.84
37.02
48.29
60.27
71.51
80.88
87.78
92.13
94.07
93.72
91.03
85.87
78.35
69.08
59.1
49.73
42.05
36.6
33.2
31.23
29.95
28.86
27.74
26.53
25.12
23.15
20.16
15.67
9.4
1.32
-8.47
-19.89
-32.91
-47.4
-62.79
-77.92
-91.03
-100.33
-104.59
-103.77
-99.06
-92.39
-85.63
-79.86
-75.1
-70.59
-65.41
-59.06
-51.61
-43.61
-35.76
-28.59
-22.32
-16.99
-12.68
-9.72
-8.51
-9.15
-11.1
-13.02
-13.12
-9.98
-3.21
6.24
16.41
25.22
31.22
34.02
34.15
32.51
29.79
26.3
22.08
17.21
12.03
7.12
3.21
0.97
0.83
2.86
6.7
11.58
16.58
20.91
24.15
26.4
28.04
29.44
30.67
31.45
31.28
29.75
26.81
22.85
18.62
14.97
12.53
11.46
11.53
12.14
12.69
12.75
12.23
11.31
10.29
9.4
8.56
7.49
5.76
3.04
-0.77
-5.45
-10.57
-15.62
-19.96
-22.94
-23.86
-21.99
-16.86
-8.42
2.73
15.38
27.98
39.02
47.48
52.93
55.45
55.42
53.26
49.46
44.7
39.93
36.28
34.68
35.43
37.94
40.78
42.27
41.03
36.5
28.97
19.34
8.58
-2.59
-13.88
-25.31
-36.98
-48.86
-60.77
-72.48
-83.85
-94.81
-105.16
-114.36
-121.53
-125.66
-126.04
-122.7
-116.41
-108.39
-99.69
-90.77
-81.47
-71.4
-60.46
-49.08
-38.1
-28.24
-19.74
-12.33
-5.62
0.37
4.98
7.14
6.0
1.72
-4.31
-9.8
-12.34
-10.3
-3.27
7.9
21.52
35.62
48.42
58.57
65.13
67.55
65.73
60.13
51.87
42.59
34.16
28.16
25.49
26.11
29.13
33.17
36.8
38.93
39.04
37.11
33.47
28.59
22.95
17.02
11.17
5.8
1.27
-2.05
-3.86
-4.02
-2.6
0.02
3.09
5.64
6.71
5.68
2.48
-2.28
-7.64
-12.6
-16.66
-20.09
-23.71
-28.56
-35.25
-43.66
-52.82
-61.31
-67.74
-71.28
-71.87
-70.08
-66.86
-63.2
-59.9
-57.39
-55.78
-54.76
-53.74
-51.94
-48.63
-43.43
-36.41
-28.15
-19.44
-11.07
-3.39
3.76
10.95
18.83
27.69
37.2
46.49
54.52
60.57
64.51
66.8
68.12
68.87
68.91
67.65
64.45
59.01
51.65
43.16
34.55
26.71
20.24
15.42
12.37
11.08
11.55
13.78
17.59
22.61
28.07
32.79
35.33
34.44
29.51
20.9
9.96
-1.45
-11.45
-18.65
-22.46
-22.96
-20.64
-16.11
-9.88
-2.16
6.96
17.48
29.29
41.96
54.7
66.36
75.65
81.39
82.82
79.79
72.81
62.95
51.67
40.52
30.82
23.48
18.78
16.52
16.22
17.29
19.16
21.27
23.0
23.66
22.63
19.54
14.47
7.96
0.8
-6.15
-12.3
-17.39
-21.5
-24.87
-27.74
-30.24
-32.45
-34.49
-36.43
-38.38
-40.23
-41.72
-42.53
-42.52
-42.11
-42.16
-43.81
-47.85
-54.32
-62.22
-69.85
-75.37
-77.48
-75.81
-70.88
-63.76
-55.56
-47.09
-38.75
-30.74
-23.35
-17.1
-12.72
-10.9
-11.87
-15.27
-20.29
-26.07
-32.12
-38.4
-45.06
-51.95
-58.46
-63.66
-66.8
-67.65
-66.69
-64.85
-63.32
-63.41
-66.34
-73.0
-83.32
-95.75
-107.16
-113.55
-111.55
-99.82
-79.71
-54.68
-28.82
-5.23
14.82
31.74
46.73
60.82
74.37
87.14
98.64
108.48
116.6
123.04
127.84
130.76
131.34
129.05
123.63
115.38
105.2
94.36
83.99
74.66
66.19
57.79
48.53
37.88
25.93
13.41
1.32
-9.52
-18.65
-26.11
-32.29
-37.75
-43.2
-49.36
-56.93
-66.22
-76.86
-87.45
-95.68
-98.87
-95.01
-83.63
-66.21
-45.85
-26.17
-10.03
1.41
8.85
14.19
19.48
25.86
33.19
40.29
45.65
48.27
48.07
45.74
42.3
38.6
34.91
31.06
26.73
21.82
16.55
11.23
6.03
0.72
-5.24
-12.42
-20.97
-30.5
-39.99
-48.26
-54.37
-57.93
-59.17
-58.64
-56.76
-53.48
-48.36
-40.87
-30.87
-18.96
-6.27
5.87
16.39
24.79
31.03
35.26
37.56
37.95
36.51
33.58
29.77
25.82
22.34
19.62
17.73
16.52
15.85
15.58
15.53
15.39
14.86
13.63
11.56
8.71
5.29
1.57
-2.21
-5.91
-9.52
-13.14
-16.92
-20.86
-24.79
-28.24
-30.58
-31.16
-29.55
-25.74
-20.09
-13.22
-5.78
1.76
9.07
15.88
21.86
26.66
29.94
31.56
31.65
30.6
28.93
27.14
25.62
24.54
23.85
23.32
22.62
21.44
19.53
16.92
13.8
10.51
7.34
4.45
1.77
-0.98
-4.2
-8.25
-13.42
-19.78
-27.11
-34.8
-41.84
-47.01
-49.2
-47.74
-42.68
-34.82
-25.46
-15.97
-7.44
-0.44
5.01
9.13
12.22
14.42
15.74
16.17
15.81
14.91
13.83
12.96
12.51
12.52
12.84
13.18
13.34
13.15
12.52
11.41
9.74
7.39
4.24
0.23
-4.55
-9.87
-15.47
-21.13
-26.68
-32.04
-36.96
-41.01
-43.51
-43.68
-40.93
-35.1
-26.61
-16.39
-5.61
4.64
13.61
20.92
26.46
30.23
32.26
32.58
31.36
28.94
25.82
22.56
19.64
17.36
15.84
15.1
15.11
15.8
17.01
18.41
19.52
19.79
18.79
16.27
12.3
7.17
1.28
-5.02
-11.58
-18.43
-25.73
-33.54
-41.71
-49.73
-56.78
-61.99
-64.65
-64.58
-62.19
-58.39
-54.3
-50.78
-48.18
-46.26
-44.41
-41.97
-38.57
-34.22
-29.18
-23.8
-18.28
-12.72
-7.11
-1.41
4.43
10.55
17.08
24.06
31.19
37.78
42.89
45.66
45.74
43.4
39.41
34.67
29.84
25.1
20.25
14.86
8.63
1.59
-5.71
-12.27
-16.76
-18.0
-15.27
-8.66
0.87
11.82
22.59
31.98
39.42
44.91
48.76
51.31
52.75
53.15
52.57
51.18
49.26
47.18
45.29
43.88
43.1
42.99
43.49
44.44
45.6
46.65
47.3
47.27
46.45
44.86
42.63
39.83
36.39
32.07
26.5
19.44
11.03
1.94
-6.64
-13.22
-16.4
-15.39
-10.21
-1.83
8.13
17.85
25.92
31.62
35.06
36.97
38.28
39.77
41.71
43.78
45.21
45.09
42.74
38.16
32.22
26.38
22.2
20.56
21.26
22.98
23.94
22.61
18.33
11.42
2.73
-6.93
-17.22
-28.25
-40.21
-53.02
-66.21
-79.01
-90.59
-100.27
-107.41
-111.37
-111.45
-107.09
-98.22
-85.44
-70.09
-53.92
-38.68
-25.77
-16.04
-9.83
-7.0
-7.03
-9.06
-12.02
-14.79
-16.29
-15.61
-12.19
-5.95
2.55
12.07
21.05
28.06
32.41
34.38
35.08
35.84
37.52
40.19
43.16
45.55
46.78
46.77
45.84
44.39
42.61
40.48
38.11
35.9
34.59
35.17
38.36
44.29
52.33
61.32
69.98
77.32
82.84
86.53
88.64
89.54
89.59
89.11
88.37
87.41
86.0
83.66
79.93
74.8
68.86
63.31
59.43
57.99
58.86
61.15
63.8
66.41
69.36
73.7
80.14
88.35
96.82
103.64
107.59
109.06
109.92
112.5
118.06
125.62
132.06
133.15
125.2
106.52
77.87
42.12
3.34
-34.14
-66.38
-90.33
-104.12
-107.45
-101.76
-90.19
-77.14
-67.05
-63.11
-66.06
-73.91
-82.81
-89.06
-90.9
-89.33
-87.08
-86.6
-88.01
-88.83
-85.39
-75.48
-60.2
-43.96
-32.52
-30.27
-38.44
-55.14
-76.83
-100.05
-122.39
-142.33
-158.53
-169.45
-173.54
-170.11
-159.96
-145.36
-129.39
-114.9
-103.68
-96.02
-90.91
-86.7
-81.8
-75.43
-67.79
-59.93
-52.98
-47.61
-43.55
-39.95
-35.75
-30.4
-24.06
-17.46
-11.43
-6.27
-1.59
3.54
10.0
18.07
27.15
35.87
42.62
46.26
46.59
44.41
41.1
37.98
35.69
34.03
32.13
29.07
24.48
18.72
12.91
8.3
5.86
5.75
7.36
9.56
11.18
11.47
10.32
8.16
5.6
3.09
0.64
-2.06
-5.48
-9.94
-15.45
-21.76
-28.34
-34.61
-40.04
-44.35
-47.52
-49.78
-51.49
-53.12
-55.34
-58.93
-64.81
-73.64
-85.43
-99.43
-114.2
-128.04
-139.33
-146.68
-148.76
-144.46
-133.18
-115.29
-92.64
-68.27
-45.68
-27.61
-15.37
-8.83
-7.17
-9.53
-15.04
-22.59
-30.2
-35.19
-35.07
-28.72
-17.02
-2.54
11.74
23.91
33.59
41.45
47.74
51.18
48.94
37.92
16.63
-13.52
-48.3
-82.39
-111.35
-133.13
-147.94
-156.96
-160.74
-158.55
-148.87
-130.86
-105.31
-74.8
-42.94
-13.04
12.73
33.39
48.84
59.39
65.48
67.77
67.31
65.29
62.86
60.8
59.53
59.45
61.19
65.47
72.67
82.19
92.2
100.09
103.58
101.86
96.08
88.67
81.87
76.41
70.98
62.92
49.83
30.83
7.23
-17.89
-40.92
-58.84
-70.03
-74.48
-73.43
-68.83
-62.69
-56.61
-51.47
-47.47
-44.38
-41.97
-40.26
-39.42
-39.45
-40.03
-40.36
-39.56
-36.81
-31.73
-24.34
-15.22
-5.3
4.26
12.26
17.81
20.58
20.82
19.34
17.05
14.64
12.4
10.16
7.44
3.67
-1.65
-8.74
-17.3
-26.55
-35.22
-41.78
-44.87
-43.69
-38.15
-28.88
-16.94
-3.37
10.97
25.41
39.39
52.24
63.09
71.11
75.64
76.56
74.31
69.88
64.49
59.35
55.29
52.56
50.9
49.65
48.18
46.26
44.24
42.78
42.36
42.84
43.3
42.33
38.66
31.76
21.99
10.51
-1.28
-12.11
-21.07
-27.54
-31.0
-31.02
-27.3
-19.89
-9.25
3.71
17.86
32.01
45.06
56.24
65.02
71.24
74.99
76.53
76.13
74.0
70.31
65.13
58.52
50.45
40.78
29.3
15.99
1.13
-14.62
-30.3
-45.04
-58.35
-70.29
-81.15
-91.01
-99.27
-104.73
-105.95
-101.94
-92.8
-79.81
-65.01
-50.53
-37.76
-27.03
-17.68
-8.6
1.14
11.87
23.21
34.13
43.37
49.74
52.54
51.76
48.19
43.16
38.09
34.09
31.48
29.78
28.11
25.71
22.48
19.02
16.32
15.15
15.67
17.25
18.77
19.12
17.44
13.45
7.36
-0.19
-8.34
-16.02
-22.07
-25.39
-25.15
-21.01
-13.19
-2.46
10.07
23.15
35.6
46.42
54.82
60.28
62.5
61.6
58.1
52.89
47.02
41.42
36.63
32.67
29.18
25.67
21.91
18.06
14.62
12.19
11.07
11.01
11.23
10.68
8.37
3.74
-3.13
-11.55
-20.33
-28.05
-33.25
-34.72
-31.8
-24.51
-13.64
-0.48
13.51
27.12
39.52
50.27
59.04
65.43
68.92
69.04
65.79
59.81
52.36
44.88
38.5
33.74
30.34
27.58
24.75
21.51
18.09
15.05
12.99
12.06
11.91
11.63
10.08
6.34
0.03
-8.36
-17.55
-25.69
-30.94
-32.05
-28.68
-21.56
-12.05
-1.66
8.52
18.0
26.79
34.94
42.16
47.74
50.74
50.5
46.95
40.86
33.6
26.66
21.09
17.29
14.91
13.17
11.27
8.74
5.65
2.47
-0.2
-2.05
-3.27
-4.57
-6.92
-11.1
-17.26
-24.82
-32.49
-38.69
-41.99
-41.58
-37.32
-29.69
-19.59
-8.05
3.94
15.5
25.93
34.67
41.29
45.49
47.2
46.58
44.02
40.04
35.25
30.27
25.59
21.51
18.15
15.45
13.19
11.1
8.84
6.17
2.93
-0.88
-5.14
-9.81
-14.93
-20.66
-27.09
-33.92
-40.32
-45.01
-46.55
-43.89
-36.8
-26.04
-13.08
0.39
12.95
23.7
32.28
38.66
42.98
45.34
45.85
44.68
42.16
38.67
34.58
30.19
25.74
21.46
17.59
14.35
11.9
10.26
9.22
8.38
7.27
5.41
2.41
-1.97
-7.81
-14.95
-22.92
-30.92
-37.94
-42.84
-44.75
-43.2
-38.27
-30.5
-20.75
-10.0
0.81
10.9
19.62
26.47
31.15
33.57
33.81
32.17
29.06
25.0
20.47
15.85
11.44
7.44
4.07
1.56
0.12
-0.26
0.13
0.66
0.47
-1.21
-4.76
-10.08
-16.66
-23.81
-31.05
-38.1
-44.76
-50.63
-54.94
-56.61
-54.62
-48.42
-38.26
-25.33
-11.38
1.74
12.6
20.55
25.69
28.62
30.06
30.48
30.09
28.85
26.75
23.97
20.79
17.63
14.78
12.39
10.47
8.99
7.86
7.03
6.34
5.54
4.4
2.77
0.63
-1.92
-4.73
-7.81
-11.29
-15.38
-20.21
-25.55
-30.77
-34.95
-37.12
-36.56
-33.0
-26.75
-18.55
-9.42
-0.41
7.54
13.75
17.93
20.13
20.68
20.06
18.69
16.85
14.63
12.04
9.14
6.11
3.27
1.03
-0.28
-0.6
-0.15
0.61
1.14
1.1
0.4
-0.73
-1.93
-2.96
-3.92
-5.21
-7.42
-11.06
-16.33
-23.03
-30.6
-38.23
-44.99
-50.02
-52.6
-52.3
-49.05
-43.2
-35.39
-26.53
-17.53
-9.18
-2.0
3.75
8.09
11.25
13.59
15.39
16.88
18.1
18.98
19.4
19.34
18.78
17.81
16.41
14.49
11.92
8.61
4.7
0.46
-3.74
-7.67
-11.28
-14.7
-18.08
-21.42
-24.65
-27.59
-30.16
-32.44
-34.6
-36.71
-38.5
-39.32
-38.29
-34.72
-28.39
-19.71
-9.67
0.45
9.5
16.69
21.72
24.79
26.27
26.67
26.37
25.57
24.28
22.42
19.89
16.77
13.34
10.02
7.19
5.05
3.53
2.33
1.04
-0.69
-2.99
-5.83
-8.98
-12.27
-15.56
-18.84
-22.25
-26.0
-30.26
-35.18
-40.79
-46.96
-53.39
-59.51
-64.48
-67.32
-67.13
-63.45
-56.5
-47.14
-36.59
-26.1
-16.56
-8.39
-1.63
3.86
8.13
11.11
12.72
12.94
12.03
10.37
8.43
6.62
5.16
4.0
2.95
1.74
0.18
-1.74
-3.97
-6.4
-8.97
-11.72
-14.76
-18.16
-21.86
-25.66
-29.22
-32.27
-34.66
-36.52
-38.19
-40.27
-43.24
-47.26
-51.91
-56.22
-58.83
-58.52
-54.55
-46.89
-36.17
-23.44
-9.84
3.6
16.09
26.97
35.76
42.19
46.35
48.64
49.74
50.27
50.6
50.7
50.2
48.71
46.04
42.46
38.62
35.32
33.05
31.84
31.13
30.11
28.02
24.48
19.66
14.16
8.8
4.13
0.32
-2.86
-5.96
-9.55
-13.98
-19.43
-25.8
-32.8
-39.98
-46.65
-51.88
-54.67
-54.14
-49.81
-41.81
-30.9
-18.21
-4.98
7.65
18.85
28.11
35.23
40.28
43.55
45.42
46.3
46.41
45.84
44.54
42.5
39.94
37.21
34.68
32.55
30.7
28.78
26.38
23.19
19.2
14.6
9.63
4.42
-1.1
-7.12
-13.82
-21.24
-29.35
-38.04
-47.27
-56.95
-66.76
-75.96
-83.33
-87.34
-86.65
-80.65
-69.85
-55.8
-40.55
-26.01
-13.35
-2.9
5.62
12.72
18.63
23.29
26.5
28.28
29.05
29.47
30.21
31.53
33.26
34.83
35.71
35.61
34.71
33.44
32.27
31.43
30.72
29.69
27.83
24.82
20.6
15.38
9.43
2.91
-4.17
-11.88
-20.05
-28.11
-34.93
-39.16
-39.58
-35.64
-27.75
-17.13
-5.46
5.66
15.17
22.64
28.1
31.83
33.96
34.51
33.44
30.77
26.8
22.04
17.14
12.67
8.98
6.15
4.09
2.59
1.41
0.35
-0.77
-2.09
-3.72
-5.75
-8.28
-11.36
-15.07
-19.53
-24.83
-30.96
-37.74
-44.64
-50.81
-55.17
-56.63
-54.38
-48.19
-38.45
-26.2
-12.79
0.41
12.28
22.24
30.14
36.2
40.78
44.09
46.12
46.68
45.6
42.95
39.19
35.01
31.08
27.76
24.88
21.89
18.25
13.67
8.42
3.21
-1.17
-4.25
-6.07
-7.29
-8.9
-11.92
-17.04
-24.3
-32.91
-41.45
-48.12
-51.3
-50.09
-44.54
-35.67
-25.01
-14.12
-4.02
4.9
12.72
19.68
25.83
30.97
34.74
36.87
37.32
36.31
34.33
31.92
29.54
27.46
25.7
24.04
22.12
19.57
16.1
11.81
7.07
2.43
-1.62
-4.9
-7.6
-10.26
-13.57
-18.15
-24.19
-31.35
-38.71
-44.98
-48.8
-49.15
-45.62
-38.51
-28.74
-17.51
-5.9
5.26
15.46
24.43
31.92
37.64
41.3
42.66
41.72
38.88
34.84
30.55
26.74
23.85
21.89
20.48
19.18
17.66
15.82
13.71
11.43
8.98
6.26
3.16
-0.37
-4.36
-8.87
-14.04
-20.03
-26.86
-34.26
-41.57
-47.79
-51.8
-52.68
-50.03
-44.04
-35.39
-25.07
-13.93
-2.67
8.26
18.47
27.55
34.85
39.71
41.72
40.87
37.83
33.68
29.56
26.29
24.14
22.8
21.7
20.33
18.42
16.13
13.81
11.83
10.33
9.19
8.06
6.56
4.38
1.45
-2.11
-6.16
-10.58
-15.42
-20.79
-26.63
-32.44
-37.24
-39.75
-38.84
-34.1
-26.0
-15.67
-4.61
5.95
15.29
23.21
29.75
34.93
38.51
40.18
39.79
37.44
33.66
29.12
24.53
20.36
16.85
13.97
11.61
9.66
8.03
6.59
5.15
3.55
1.67
-0.53
-2.97
-5.6
-8.46
-11.67
-15.46
-20.07
-25.5
-31.43
-37.21
-41.83
-44.21
-43.47
-39.17
-31.54
-21.45
-10.18
1.0
11.06
19.45
26.06
30.9
34.06
35.53
35.29
33.44
30.34
26.59
22.88
19.71
17.28
15.39
13.6
11.53
8.96
6.07
3.28
1.04
-0.42
-1.3
-2.24
-4.03
-7.29
-12.24
-18.52
-25.4
-31.93
-37.3
-40.95
-42.51
-41.8
-38.74
-33.32
-25.74
-16.39
-5.92
4.86
15.08
23.96
30.82
35.31
37.39
37.43
36.0
33.82
31.53
29.45
27.66
26.05
24.41
22.55
20.31
17.52
14.07
9.94
5.22
0.21
-4.81
-9.64
-14.32
-19.13
-24.38
-30.29
-36.85
-43.77
-50.45
-56.17
-60.11
-61.48
-59.63
-54.1
-44.84
-32.23
-17.08
-0.61
15.74
30.51
42.54
51.2
56.54
59.27
60.32
60.62
60.61
60.35
59.62
58.25
56.29
54.07
51.91
49.93
47.83
45.1
41.26
36.1
29.86
23.03
16.22
9.94
4.43
-0.29
-4.44
-8.29
-12.22
-16.52
-21.24
-26.05
-30.14
-32.36
-31.6
-27.13
-18.91
-7.65
5.42
18.85
31.25
41.61
49.35
54.39
57.08
58.14
58.52
59.21
61.02
64.3
68.86
73.85
77.8
78.81
75.07
65.5
50.24
30.83
9.79
-10.19
-27.16
-40.5
-50.79
-59.33
-67.19
-74.62
-80.92
-84.81
-85.13
-81.54
-74.68
-65.98
-57.21
-49.86
-44.66
-41.29
-38.13
-32.51
-21.21
-1.39
28.25
66.7
110.46
154.36
193.08
222.64
241.27
249.27
248.15
239.52
224.63
204.36
179.71
152.19
123.71
95.99
70.0
45.56
21.5
-3.79
-31.85
-64.04
-101.83
-146.75
-199.72
-259.59
-321.95
-379.07
-421.59
-441.41
-434.55
-402.38
-351.01
-289.06
-225.2
-166.61
-118.39
-83.72
-63.97
-58.55
-64.73
-77.93
-92.72
-104.24
-109.33
-106.94
-97.81
-83.8
-67.1
-49.72
-33.13
-18.17
-5.05
6.41
16.51
25.4
32.97
39.0
43.31
45.96
47.32
47.93
48.31
48.76
49.41
50.11
50.76
51.33
51.83
52.33
52.79
53.09
53.04
52.44
51.1
48.91
45.82
41.9
37.27
32.23
27.19
22.67
19.19
17.18
16.88
18.38
21.55
26.04
31.43
37.23
42.95
48.13
52.31
55.03
55.93
54.9
52.1
48.01
43.27
38.51
34.19
30.49
27.39
24.7
22.25
19.85
17.41
14.81
12.03
9.09
6.02
2.83
-0.51
-4.05
-7.84
-11.86
-16.05
-20.36
-24.73
-29.12
-33.38
-37.13
-39.78
-40.57
-38.83
-34.32
-27.34
-18.68
-9.39
-0.44
7.47
13.98
19.03
22.72
25.19
26.54
26.9
26.4
25.19
23.38
21.14
18.57
15.84
13.1
10.46
8.01
5.77
3.67
1.56
-0.68
-3.19
-6.01
-9.06
-12.24
-15.47
-18.79
-22.36
-26.45
-31.21
-36.48
-41.64
-45.71
-47.55
-46.3
-41.66
-34.05
-24.51
-14.36
-4.83
3.28
9.67
14.49
18.05
20.63
22.34
23.14
22.95
21.81
19.84
17.34
14.63
11.97
9.51
7.29
5.27
3.36
1.49
-0.39
-2.35
-4.43
-6.66
-9.07
-11.67
-14.43
-17.37
-20.57
-24.11
-28.03
-32.13
-35.85
-38.32
-38.61
-36.02
-30.42
-22.34
-12.82
-3.07
5.89
13.48
19.61
24.52
28.53
31.84
34.39
35.91
36.07
34.7
31.92
28.2
24.25
20.68
17.88
15.87
14.36
12.93
11.24
9.07
6.42
3.48
0.49
-2.27
-4.67
-6.76
-8.88
-11.58
-15.39
-20.52
-26.59
-32.58
-37.14
-38.97
-37.32
-32.14
-24.16
-14.53
-4.54
4.72
12.57
18.78
23.39
26.6
28.59
29.43
29.17
27.9
25.8
23.16
20.38
17.74
15.37
13.25
11.22
9.13
6.82
4.19
1.16
-2.21
-5.78
-9.35
-12.77
-16.04
-19.38
-23.17
-27.75
-33.23
-39.22
-44.79
-48.69
-49.73
-47.15
-41.02
-32.2
-22.05
-11.97
-2.95
4.67
11.04
16.48
21.07
24.59
26.58
26.65
24.74
21.21
16.71
12.02
7.76
4.25
1.53
-0.56
-2.32
-3.98
-5.72
-7.66
-9.83
-12.11
-14.46
-16.79
-19.22
-22.0
-25.51
-30.02
-35.47
-41.27
-46.28
-49.14
-48.69
-44.44
-36.76
-26.72
-15.72
-4.92
4.95
13.67
21.23
27.65
32.75
36.23
37.88
37.68
35.91
32.98
29.42
25.7
22.23
19.24
16.83
14.89
13.14
11.21
8.88
6.12
3.21
0.53
-1.71
-3.6
-5.6
-8.37
-12.47
-18.06
-24.74
-31.53
-37.13
-40.22
-39.91
-35.94
-28.75
-19.31
-8.81
1.65
11.28
19.64
26.63
32.25
36.49
39.32
40.64
40.42
38.79
36.1
32.79
29.36
26.19
23.43
21.0
18.69
16.35
13.9
11.4
8.91
6.49
4.11
1.63
-1.15
-4.53
-8.77
-14.08
-20.38
-27.19
-33.56
-38.31
-40.29
-38.83
-33.98
-26.36
-17.02
-7.07
2.6
11.41
19.06
25.43
30.44
33.96
35.88
36.13
34.74
31.98
28.25
24.17
20.36
17.24
14.91
13.15
11.52
9.61
7.22
4.36
1.25
-1.85
-4.77
-7.53
-10.3
-13.37
-17.08
-21.64
-27.05
-32.92
-38.47
-42.58
-44.16
-42.44
-37.2
-28.93
-18.58
-7.39
3.47
13.14
21.12
27.26
31.58
34.2
35.27
34.94
33.37
30.73
27.3
23.41
19.46
15.75
12.47
9.61
7.04
4.57
2.09
-0.42
-2.96
-5.49
-8.15
-11.11
-14.65
-19.02
-24.35
-30.63
-37.57
-44.57
-50.64
-54.58
-55.29
-52.07
-44.94
-34.7
-22.72
-10.49
0.79
10.51
18.53
24.98
30.05
33.78
36.11
36.96
36.39
34.58
31.88
28.74
25.65
23.0
21.08
19.97
19.49
19.28
18.92
18.02
16.4
14.11
11.35
8.24
4.75
0.59
-4.68
-11.37
-19.38
-27.97
-35.83
-41.39
-43.31
-40.98
-34.67
-25.46
-14.8
-4.09
5.65
13.87
20.41
25.24
28.4
29.91
29.8
28.23
25.43
21.73
17.49
13.11
8.99
5.46
2.73
0.81
-0.45
-1.43
-2.49
-3.95
-5.83
-7.95
-10.09
-12.15
-14.33
-17.14
-21.15
-26.63
-33.25
-39.98
-45.28
-47.49
-45.48
-38.97
-28.62
-15.8
-2.16
10.9
22.44
32.07
39.8
45.67
49.7
51.82
52.05
50.62
47.97
44.69
41.42
38.63
36.63
35.38
34.58
33.81
32.6
30.7
28.14
25.24
22.42
20.02
18.06
16.19
13.78
10.03
4.15
-4.47
-15.97
-29.74
-44.33
-57.74
-67.97
-73.74
-74.97
-72.7
-68.57
-64.01
-59.72
-55.42
-50.23
-43.41
-34.75
-24.7
-13.96
-2.94
8.64
21.51
36.15
52.01
67.15
78.64
83.71
80.98
71.11
56.52
40.32
25.03
11.89
0.8
-9.18
-19.17
-30.25
-43.42
-59.57
-78.99
-100.81
-122.39
-139.59
-147.85
-143.91
-127.17
-100.08
-67.38
-34.35
-5.16
18.17
35.69
48.65
58.43
65.77
70.65
72.58
71.26
66.93
60.35
52.73
45.09
38.01
31.47
25.24
19.18
13.61
9.11
5.99
4.01
2.13
-1.04
-6.68
-15.25
-26.38
-39.09
-52.22
-64.6
-74.9
-81.68
-83.42
-79.12
-68.8
-53.78
-36.27
-18.71
-2.85
10.64
21.96
31.62
39.8
46.03
49.46
49.51
46.3
40.84
34.7
29.32
25.54
23.38
22.25
21.43
20.49
19.39
18.35
17.56
16.86
15.85
14.01
10.81
5.93
-0.77
-9.26
-19.23
-29.95
-40.21
-48.4
-52.82
-52.19
-46.11
-35.26
-21.15
-5.66
9.5
23.19
34.86
44.32
51.51
56.26
58.37
57.8
54.87
50.24
44.79
39.33
34.36
30.05
26.25
22.69
19.2
15.77
12.52
9.56
6.87
4.27
1.43
-1.95
-6.12
-11.18
-17.16
-24.12
-32.1
-41.0
-50.29
-58.82
-64.91
-66.74
-63.02
-53.5
-39.16
-21.82
-3.64
13.6
28.81
41.54
51.67
59.19
63.96
65.92
65.22
62.27
57.79
52.56
47.25
42.29
37.94
34.3
31.42
29.26
27.59
26.03
24.07
21.24
17.31
12.32
6.58
0.51
-5.56
-11.61
-17.93
-25.04
-33.48
-43.43
-54.42
-65.18
-73.8
-78.19
-76.76
-68.97
-55.56
-38.35
-19.61
-1.48
14.58
27.85
38.25
45.93
51.05
53.63
53.67
51.29
46.9
41.22
35.18
29.67
25.36
22.49
20.92
20.18
19.73
19.06
17.92
16.24
14.09
11.62
8.9
5.86
2.28
-2.21
-7.98
-15.32
-24.32
-34.67
-45.57
-55.72
-63.4
-66.88
-64.88
-56.99
-43.9
-27.24
-9.13
8.4
23.87
36.51
46.12
52.75
56.45
57.22
55.14
50.61
44.38
37.48
30.95
25.61
21.77
19.3
17.67
16.27
14.57
12.25
9.29
5.83
2.09
-1.8
-5.81
-10.12
-14.95
-20.64
-27.52
-35.83
-45.57
-56.24
-66.67
-75.12
-79.64
-78.57
-71.2
-58.02
-40.55
-20.99
-1.52
16.09
30.79
42.11
50.02
54.72
56.47
55.61
52.6
48.02
42.57
36.98
31.89
27.68
24.42
21.91
19.81
17.75
15.49
12.92
10.03
6.85
3.34
-0.55
-4.96
-10.04
-15.96
-22.9
-31.03
-40.39
-50.77
-61.5
-71.32
-78.51
-81.23
-78.08
-68.57
-53.42
-34.41
-13.92
5.69
22.66
36.06
45.71
52.0
55.48
56.7
56.11
54.04
50.87
46.98
42.81
38.77
35.11
32.0
29.47
27.49
25.97
24.72
23.45
21.79
19.33
15.88
11.43
6.29
0.88
-4.57
-10.16
-16.41
-24.03
-33.57
-44.89
-56.98
-67.93
-75.39
-77.26
-72.42
-61.08
-44.72
-25.63
-6.24
11.49
26.37
37.99
46.43
51.95
54.74
54.99
52.92
48.87
43.44
37.29
31.1
25.42
20.59
16.71
13.83
11.89
10.72
10.02
9.25
7.86
5.39
1.73
-2.9
-8.0
-13.08
-17.98
-22.99
-28.79
-36.18
-45.54
-56.48
-67.71
-77.13
-82.43
-81.76
-74.26
-60.5
-42.23
-21.94
-2.1
15.46
29.73
40.54
48.13
52.83
54.82
54.16
51.01
45.79
39.26
32.43
26.32
21.64
18.67
17.14
16.43
15.8
14.69
12.86
10.44
7.72
4.93
2.15
-0.88
-4.5
-9.08
-14.89
-22.09
-30.72
-40.62
-51.26
-61.57
-69.99
-74.7
-74.2
-67.72
-55.6
-39.16
-20.37
-1.28
16.35
31.3
42.85
50.71
54.8
55.34
52.74
47.71
41.14
34.08
27.47
21.98
17.82
14.73
12.13
9.44
6.32
2.79
-0.81
-4.1
-6.97
-9.66
-12.66
-16.56
-21.68
-28.04
-35.52
-43.97
-53.29
-63.34
-73.56
-82.82
-89.4
-91.4
-87.28
-76.49
-59.77
-39.01
-16.77
4.39
22.48
36.38
45.89
51.4
53.63
53.31
51.06
47.35
42.61
37.32
31.94
26.89
22.48
18.86
16.01
13.79
12.01
10.41
8.71
6.63
3.87
0.24
-4.29
-9.52
-15.21
-21.14
-27.43
-34.48
-42.91
-53.0
-64.27
-75.13
-83.12
-85.63
-80.83
-68.42
-49.84
-27.82
-5.5
14.48
30.53
42.34
50.46
55.73
58.84
60.06
59.32
56.45
51.55
45.11
38.08
31.55
26.4
22.98
21.11
20.2
19.54
18.52
16.71
13.93
10.16
5.54
0.3
-5.24
-10.87
-16.57
-22.71
-30.0
-39.1
-50.17
-62.39
-73.93
-82.25
-84.87
-80.24
-68.29
-50.45
-29.13
-6.98
13.87
32.07
46.98
58.37
66.13
70.16
70.48
67.35
61.47
53.9
45.84
38.36
32.14
27.42
23.98
21.38
19.15
16.96
14.7
12.37
9.99
7.48
4.61
1.14
-3.11
-8.21
-14.08
-20.59
-27.75
-35.71
-44.8
-55.11
-66.25
-77.04
-85.62
-89.79
-87.72
-78.52
-62.65
-41.86
-18.72
4.01
24.04
39.83
50.78
57.07
59.47
59.04
56.83
53.61
49.77
45.43
40.6
35.46
30.42
26.07
22.93
21.19
20.57
20.46
20.11
18.91
16.52
12.95
8.42
3.27
-2.19
-7.81
-13.7
-20.23
-27.95
-37.31
-48.21
-59.78
-70.2
-77.13
-78.3
-72.35
-59.3
-40.69
-19.13
2.47
21.6
36.74
47.45
54.1
57.39
57.96
56.23
52.39
46.66
39.47
31.55
23.87
17.28
12.37
9.15
7.12
5.53
3.67
1.09
-2.25
-6.25
-10.8
-16.09
-22.65
-31.18
-42.21
-55.8
-71.45
-88.14
-104.75
-120.23
-133.66
-144.07
-150.3
-150.94
-144.78
-131.29
-111.04
-85.69
-57.49
-28.58
-0.43
26.19
50.82
72.6
90.16
101.83
106.52
104.33
96.72
86.03
74.64
64.27
55.86
49.87
46.72
46.94
50.86
58.06
67.15
76.09
82.99
86.88
88.24
88.52
89.37
91.81
95.68
99.8
102.54
102.34
97.98
88.64
73.76
53.19
27.6
-1.18
-30.17
-55.95
-75.66
-88.11
-93.86
-94.63
-92.15
-87.16
-79.47
-68.65
-55.18
-41.0
-29.09
-22.24
-21.65
-26.35
-33.61
-40.25
-43.9
-43.86
-40.94
-36.73
-32.72
-29.69
-27.62
-26.07
-24.66
-23.29
-22.27
-22.01
-22.76
-24.52
-27.06
-30.09
-33.49
-37.43
-42.12
-47.62
-53.49
-58.72
-62.04
-62.46
-59.73
-54.7
-49.1
-45.01
-44.05
-46.77
-52.29
-58.62
-63.06
-63.1
-57.01
-44.42
-26.53
-5.75
14.9
32.79
46.38
55.52
61.12
64.47
66.63
68.04
68.57
68.02
66.42
64.17
61.83
59.87
58.42
57.39
56.55
55.72
54.79
53.73
52.55
51.29
50.07
49.0
48.25
48.08
48.99
51.6
56.54
64.22
74.64
87.46
102.12
118.0
134.32
149.87
162.69
170.32
170.45
161.94
145.51
123.68
100.11
78.5
61.64
50.88
46.08
45.83
47.94
49.97
49.83
46.35
39.4
29.71
18.28
5.84
-7.43
-21.67
-36.88
-52.74
-68.66
-83.92
-97.86
-109.83
-118.94
-124.1
-124.28
-118.89
-108.18
-93.31
-76.12
-58.65
-42.61
-29.2
-19.01
-12.17
-8.47
-7.45
-8.4
-10.56
-13.19
-15.75
-17.94
-19.64
-20.82
-21.43
-21.32
-20.36
-18.45
-15.81
-12.88
-10.35
-8.93
-9.26
-11.61
-15.85
-21.42
-27.49
-33.28
-38.43
-43.13
-48.07
-53.99
-61.1
-68.7
-75.16
-78.34
-76.4
-68.53
-55.24
-38.26
-19.89
-2.44
12.46
24.03
32.25
37.62
40.81
42.35
42.57
41.62
39.55
36.53
32.83
28.93
25.4
22.78
21.41
21.31
22.18
23.35
24.0
23.41
21.16
17.37
12.57
7.44
2.51
-2.04
-6.46
-11.21
-16.76
-23.47
-31.42
-40.43
-49.89
-58.74
-65.51
-68.58
-66.7
-59.43
-47.39
-32.09
-15.43
0.82
15.34
27.4
36.63
42.86
46.05
46.41
44.44
40.99
37.02
33.3
30.18
27.61
25.29
22.94
20.54
18.25
16.27
14.69
13.38
11.93
10.01
7.37
4.0
-0.04
-4.57
-9.51
-14.69
-19.97
-25.28
-30.77
-36.8
-43.86
-52.2
-61.37
-70.13
-76.53
-78.49
-74.55
-64.44
-49.26
-31.12
-12.52
4.36
18.13
28.3
35.11
39.18
41.12
41.31
39.94
37.17
33.2
28.48
23.52
18.88
14.94
11.89
9.74
8.36
7.57
7.06
6.46
5.34
3.28
0.09
-4.09
-8.88
-13.75
-18.29
-22.5
-26.83
-32.05
-38.91
-47.58
-57.26
-66.19
-72.04
-72.69
-67.05
-55.4
-39.42
-21.49
-4.01
11.34
23.85
33.52
40.71
45.77
48.79
49.64
48.26
44.76
39.65
33.69
27.76
22.58
18.56
15.74
13.81
12.28
10.62
8.37
5.34
1.61
-2.54
-6.77
-10.74
-14.34
-17.74
-21.36
-25.87
-31.95
-40.0
-49.86
-60.68
-70.88
-78.44
-81.46
-78.74
-70.12
-56.57
-39.78
-21.62
-3.78
12.6
26.81
38.42
47.15
52.8
55.33
55.04
52.56
48.83
44.78
41.16
38.28
36.04
34.02
31.84
29.33
26.68
24.29
22.45
21.08
19.69
17.56
14.11
9.13
2.85
-4.14
-11.17
-17.71
-23.6
-29.08
-34.79
-41.58
-50.16
-60.59
-71.93
-82.16
-88.66
-89.08
-82.24
-68.6
-50.15
-29.69
-9.91
7.23
20.86
31.09
38.49
43.74
47.29
49.31
49.67
48.19
44.87
40.01
34.34
28.83
24.32
21.32
19.84
19.5
19.7
19.9
19.6
18.47
16.23
12.73
8.01
2.34
-3.76
-9.77
-15.31
-20.43
-25.54
-31.31
-38.4
-47.14
-57.25
-67.65
-76.56
-81.95
-82.0
-75.83
-63.71
-47.07
-27.97
-8.6
9.3
24.61
36.7
45.35
50.51
52.48
51.84
49.53
46.5
43.49
40.79
38.23
35.47
32.32
28.93
25.85
23.68
22.72
22.73
22.96
22.42
20.31
16.3
10.69
4.22
-2.31
-8.3
-13.59
-18.5
-23.72
-30.12
-38.45
-48.98
-61.16
-73.41
-83.38
-88.54
-87.02
-78.25
-63.31
-44.45
-24.41
-5.46
11.08
24.92
36.29
45.56
52.81
57.81
60.27
60.19
57.96
54.38
50.4
46.71
43.61
40.98
38.54
36.07
33.56
31.17
29.0
27.01
24.87
22.14
18.44
13.65
7.98
1.82
-4.42
-10.48
-16.38
-22.36
-28.94
-36.73
-46.22
-57.45
-69.64
-81.14
-89.69
-93.01
-89.58
-79.18
-63.04
-43.37
-22.74
-3.32
13.43
26.89
37.06
44.26
49.0
51.7
52.71
52.31
50.73
48.28
45.37
42.46
39.96
38.06
36.68
35.56
34.48
33.39
32.38
31.51
30.65
29.31
26.91
22.96
17.32
10.39
2.87
-4.46
-11.05
-16.75
-21.87
-26.87
-32.22
-38.28
-45.3
-53.4
-62.53
-72.28
-81.76
-89.5
-93.71
-92.64
-85.23
-71.48
-52.57
-30.59
-8.03
12.84
30.45
44.01
53.49
59.4
62.4
63.15
62.25
60.18
57.34
54.06
50.56
46.9
43.16
39.52
36.29
33.86
32.62
32.6
33.4
34.16
33.75
31.23
26.31
19.35
11.37
3.59
-3.11
-8.5
-13.13
-18.03
-24.26
-32.5
-42.75
-54.37
-66.14
-76.51
-83.82
-86.62
-83.91
-75.48
-61.93
-44.58
-25.16
-5.55
12.64
28.15
40.23
48.57
53.28
54.85
54.02
51.69
48.62
45.37
42.21
39.15
36.03
32.74
29.29
26.02
23.42
21.94
21.66
22.16
22.58
21.85
19.12
14.09
7.15
-0.76
-8.52
-15.34
-21.02
-26.13
-31.77
-39.18
-49.07
-61.11
-73.66
-84.13
-89.69
-88.25
-79.2
-63.63
-43.94
-22.99
-3.24
13.81
27.69
38.62
46.92
52.79
56.18
57.01
55.41
51.86
47.18
42.25
37.84
34.32
31.71
29.77
28.26
27.01
26.02
25.33
24.85
24.31
23.2
20.96
17.18
11.8
5.08
-2.48
-10.32
-18.02
-25.35
-32.28
-39.07
-46.23
-54.38
-64.06
-75.16
-86.67
-96.67
-102.66
-102.45
-94.88
-80.37
-60.76
-38.7
-16.78
3.07
19.8
33.18
43.37
50.69
55.43
57.94
58.6
57.89
56.31
54.28
52.03
49.62
47.02
44.25
41.49
39.07
37.34
36.5
36.37
36.31
35.49
33.12
28.86
22.89
15.86
8.53
1.5
-5.08
-11.42
-17.96
-25.17
-33.41
-42.95
-53.85
-65.78
-77.74
-88.0
-94.41
-94.96
-88.6
-75.64
-57.69
-37.16
-16.49
2.55
18.97
32.44
42.86
50.08
53.91
54.45
52.19
48.17
43.64
39.69
36.87
35.01
33.49
31.64
29.23
26.57
24.35
23.19
23.27
24.1
24.73
24.04
21.21
15.97
8.67
0.13
-8.75
-17.14
-24.62
-31.26
-37.56
-44.27
-52.26
-62.06
-73.67
-86.32
-98.36
-107.51
-111.44
-108.5
-98.26
-81.8
-61.3
-39.35
-18.12
1.1
17.89
32.32
44.4
53.85
60.18
63.07
62.75
60.01
56.06
52.04
48.67
46.09
43.93
41.7
39.13
36.31
33.58
31.35
29.6
27.94
25.65
21.97
16.53
9.52
1.68
-6.07
-12.89
-18.45
-23.06
-27.5
-32.87
-40.07
-49.44
-60.32
-70.99
-78.79
-80.99
-75.55
-61.92
-41.35
-16.47
9.59
34.1
55.46
73.28
87.93
99.99
109.86
117.52
122.81
125.59
126.06
124.8
122.79
121.18
120.9
122.43
125.44
128.87
131.14
130.64
126.22
117.45
104.72
88.86
70.89
51.72
32.01
12.16
-7.57
-27.04
-46.22
-65.07
-83.62
-101.99
-120.45
-139.27
-158.45
-177.39
-194.56
-207.69
-214.16
-211.88
-200.1
-179.77
-153.38
-124.12
-95.07
-68.44
-45.36
-26.06
-10.29
2.41
12.41
19.98
25.41
28.98
30.97
31.71
31.47
30.59
29.35
28.19
27.4
27.2
27.51
27.91
27.8
26.49
23.6
19.14
13.58
7.6
1.79
-3.63
-8.91
-14.7
-21.85
-30.92
-42.05
-54.52
-66.76
-76.56
-81.62
-80.13
-71.48
-56.5
-37.23
-16.33
3.71
21.22
35.46
46.45
54.47
59.78
62.37
62.27
59.63
54.93
48.97
42.64
36.71
31.67
27.7
24.71
22.54
20.9
19.52
18.09
16.31
13.95
10.83
6.93
2.3
-2.87
-8.44
-14.42
-21.03
-28.76
-38.11
-49.34
-61.99
-74.72
-85.33
-91.32
-90.59
-82.15
-66.56
-45.78
-22.58
0.16
20.17
36.15
47.75
55.33
59.62
61.34
61.14
59.49
56.78
53.24
49.05
44.44
39.65
35.11
31.26
28.54
27.13
26.81
26.96
26.74
25.43
22.61
18.35
12.99
7.09
1.07
-4.9
-10.9
-17.2
-24.19
-32.29
-41.81
-52.68
-64.16
-74.62
-81.81
-83.38
-77.74
-64.7
-45.65
-23.24
-0.58
19.66
35.88
47.65
55.47
60.1
62.29
62.53
61.09
58.25
54.36
49.87
45.23
40.77
36.58
32.7
29.21
26.32
24.3
23.25
22.92
22.56
21.17
17.95
12.52
5.3
-2.76
-10.45
-16.98
-22.26
-27.02
-32.54
-40.06
-50.24
-62.73
-76.17
-88.38
-97.05
-100.23
-96.87
-86.99
-71.58
-52.28
-31.07
-9.82
9.9
26.93
40.55
50.35
56.14
58.03
56.43
52.18
46.46
40.59
35.68
32.3
30.34
29.2
28.08
26.49
24.4
22.18
20.26
18.81
17.52
15.77
12.93
8.6
2.87
-3.75
-10.51
-16.79
-22.32
-27.41
-32.82
-39.55
-48.33
-59.13
-70.81
-81.13
-87.4
-87.31
-79.74
-65.23
-45.77
-24.1
-2.94
15.73
30.93
42.54
50.84
56.24
59.07
59.51
57.74
54.04
48.82
42.71
36.44
30.76
26.27
23.33
21.94
21.73
22.06
22.11
21.22
19.04
15.66
11.58
7.38
3.51
-0.0
-3.62
-8.08
-14.08
-21.95
-31.56
-42.41
-53.82
-64.89
-74.54
-81.4
-83.92
-80.8
-71.36
-55.98
-36.11
-14.04
7.71
26.98
42.23
52.71
58.34
59.69
57.68
53.61
48.65
43.76
39.38
35.38
31.32
26.76
21.61
16.23
11.36
7.65
5.41
4.31
3.52
1.96
-1.31
-6.77
-14.28
-23.18
-32.51
-41.42
-49.45
-56.73
-64.06
-72.65
-83.56
-97.2
-112.77
-128.24
-140.88
-148.07
-148.2
-141.23
-128.58
-112.57
-95.71
-79.93
-66.25
-54.77
-45.0
-36.19
-27.79
-19.68
-12.2
-5.99
-1.56
1.0
2.14
2.75
3.83
6.19
10.27
16.18
23.73
32.36
41.08
48.43
52.7
52.38
46.73
36.12
21.98
6.37
-8.64
-21.49
-31.47
-38.64
-43.69
-47.46
-50.51
-52.94
-54.19
-53.32
-49.3
-41.43
-29.61
-14.43
3.02
21.33
39.14
55.34
69.24
80.63
89.79
97.26
103.72
109.68
115.34
120.59
125.16
128.78
131.36
132.97
133.85
134.27
134.46
134.51
134.43
134.17
133.7
133.11
132.59
132.33
132.43
132.77
132.94
132.43
130.61
126.95
121.15
113.3
104.09
94.81
87.16
82.69
82.15
84.97
89.23
92.17
91.08
84.13
70.96
52.54
30.74
7.64
-15.13
-36.77
-57.37
-77.5
-97.65
-117.54
-135.89
-150.67
-159.88
-162.43
-158.63
-150.12
-139.08
-127.37
-115.84
-104.27
-91.96
-78.39
-63.64
-48.5
-34.2
-22.02
-12.97
-7.7
-6.4
-8.87
-14.54
-22.41
-31.09
-38.96
-44.46
-46.43
-44.41
-38.61
-29.76
-18.85
-6.86
5.36
17.06
27.49
35.89
41.61
44.4
44.54
42.84
40.28
37.69
35.5
33.73
32.2
30.81
29.74
29.25
29.43
29.98
30.06
28.55
24.54
17.7
8.58
-1.53
-11.1
-19.05
-25.13
-30.06
-35.03
-40.97
-48.18
-55.99
-63.14
-68.3
-70.48
-69.34
-65.17
-58.77
-51.29
-44.28
-39.54
-38.71
-42.7
-51.07
-61.9
-72.36
-79.71
-82.43
-80.67
-76.01
-70.36
-64.93
-59.77
-54.01
-46.85
-38.44
-30.05
-23.59
-20.49
-20.99
-24.03
-27.93
-31.29
-33.85
-36.46
-40.62
-47.54
-57.41
-69.18
-80.69
-89.41
-93.12
-90.46
-81.15
-66.01
-46.61
-24.94
-3.0
17.68
36.22
52.45
66.69
79.29
90.38
99.61
106.45
110.48
111.97
111.94
111.87
113.18
116.5
121.38
126.35
129.48
129.1
124.31
115.21
102.65
87.82
71.68
54.9
37.8
20.51
3.15
-14.23
-31.67
-49.18
-66.55
-83.14
-97.57
-108.09
-113.07
-111.68
-104.33
-92.43
-77.85
-62.22
-46.56
-31.24
-16.41
-2.31
10.62
21.91
31.35
39.18
45.94
52.2
58.27
64.1
69.44
74.0
77.56
80.1
81.69
82.43
82.51
82.16
81.49
80.37
78.26
74.33
67.79
58.4
46.67
33.68
20.44
7.4
-5.72
-19.54
-34.13
-48.49
-60.45
-67.5
-67.84
-61.39
-49.82
-36.0
-22.86
-12.56
-5.97
-2.92
-2.63
-4.2
-6.92
-10.29
-13.87
-17.27
-20.2
-22.48
-24.27
-25.81
-27.35
-28.91
-30.34
-31.3
-31.62
-31.48
-31.41
-32.28
-34.69
-38.85
-44.43
-50.83
-57.57
-64.51
-71.79
-79.39
-86.77
-92.45
-94.35
-90.55
-80.14
-63.84
-43.93
-23.51
-5.47
8.33
17.65
23.4
26.94
29.37
30.89
31.07
29.18
24.82
18.22
10.35
2.39
-4.69
-10.39
-14.85
-18.4
-21.33
-23.65
-25.28
-26.24
-26.9
-27.85
-29.69
-32.8
-37.15
-42.48
-48.5
-55.04
-61.8
-68.11
-72.74
-73.94
-70.17
-60.59
-45.61
-26.93
-7.02
11.67
27.66
40.94
53.04
66.18
82.15
101.16
121.44
139.78
152.85
158.71
157.48
151.08
142.07
132.43
122.86
113.02
102.18
90.06
76.95
63.58
50.56
38.04
25.75
13.34
0.67
-12.05
-24.43
-36.17
-47.05
-56.85
-64.98
-70.33
-71.38
-66.76
-56.02
-40.11
-21.35
-2.91
12.34
22.61
27.59
28.22
25.96
22.2
17.94
13.99
11.14
10.36
12.43
17.5
24.62
31.92
37.27
39.11
37.11
32.22
26.04
20.14
15.37
11.72
8.59
5.27
1.29
-3.48
-8.94
-15.09
-22.08
-30.18
-39.55
-49.97
-60.53
-69.66
-75.45
-76.16
-70.84
-59.66
-43.87
-25.45
-6.53
11.07
26.1
38.0
46.67
52.33
55.3
55.94
54.49
51.23
46.41
40.46
34.02
27.84
22.66
18.9
16.62
15.43
14.71
13.81
12.2
9.66
6.24
2.12
-2.41
-7.2
-12.21
-17.67
-23.96
-31.54
-40.64
-51.08
-62.04
-72.0
-79.04
-81.24
-77.33
-67.08
-51.53
-32.7
-13.04
5.23
20.66
32.62
41.27
47.06
50.48
51.75
51.0
48.32
43.89
38.17
31.84
25.73
20.52
16.65
14.05
12.33
10.9
9.22
7.03
4.27
1.09
-2.39
-6.23
-10.67
-16.01
-22.59
-30.61
-40.07
-50.63
-61.42
-70.97
-77.39
-78.81
-73.98
-62.79
-46.42
-27.02
-7.12
11.14
26.48
38.48
47.41
53.72
57.74
59.57
59.16
56.56
52.07
46.33
40.2
34.52
29.85
26.34
23.68
21.35
18.77
15.68
12.09
8.24
4.41
0.66
-3.25
-7.73
-13.21
-20.02
-28.27
-37.87
-48.48
-59.43
-69.57
-77.3
-80.74
-78.35
-69.5
-54.77
-35.92
-15.35
4.57
22.05
36.16
46.7
53.94
58.28
60.06
59.62
57.25
53.31
48.19
42.39
36.48
30.95
26.24
22.57
19.86
17.76
15.81
13.52
10.64
7.16
3.24
-0.84
-4.98
-9.24
-13.92
-19.41
-26.13
-34.36
-44.11
-54.94
-65.82
-75.18
-81.1
-81.78
-76.1
-64.0
-46.64
-26.09
-4.83
14.91
31.53
44.23
52.82
57.63
59.19
58.2
55.33
51.29
46.69
41.9
37.15
32.47
27.88
23.54
19.75
16.85
15.01
14.04
13.33
12.08
9.51
5.3
-0.37
-6.88
-13.43
-19.5
-25.05
-30.69
-37.39
-46.02
-56.69
-68.43
-79.13
-86.07
-86.78
-79.95
-65.94
-46.62
-24.86
-3.5
15.3
30.44
41.78
49.72
54.86
57.68
58.49
57.42
54.61
50.22
44.57
38.24
31.91
26.29
21.94
19.04
17.42
16.57
15.87
14.73
12.85
10.06
6.44
2.13
-2.82
-8.3
-14.32
-20.75
-27.5
-34.52
-41.93
-50.0
-58.81
-67.98
-76.32
-81.91
-82.54
-76.57
-63.53
-44.62
-22.28
0.48
20.92
37.24
48.71
55.52
58.37
58.12
55.59
51.49
46.41
40.74
34.8
28.72
22.67
16.87
11.7
7.54
4.66
3.03
2.24
1.63
0.45
-1.81
-5.29
-9.71
-14.54
-19.31
-23.74
-28.05
-32.8
-38.8
-46.67
-56.49
-67.37
-77.49
-84.43
-85.81
-80.14
-67.36
-48.95
-27.49
-5.87
13.5
29.21
40.82
48.72
53.54
55.81
55.81
53.54
49.06
42.68
35.11
27.36
20.51
15.26
11.77
9.59
7.87
5.82
3.05
-0.3
-3.77
-6.91
-9.61
-12.16
-15.13
-19.11
-24.45
-31.17
-39.16
-48.26
-58.24
-68.61
-78.27
-85.55
-88.41
-85.11
-74.85
-58.19
-37.02
-14.03
8.05
27.1
41.95
52.34
58.6
61.32
61.16
58.71
54.56
49.34
43.67
38.03
32.74
27.78
23.09
18.61
14.51
11.11
8.66
7.16
6.13
4.74
2.09
-2.32
-8.4
-15.48
-22.66
-29.31
-35.45
-41.86
-49.64
-59.59
-71.45
-83.54
-93.06
-96.83
-92.55
