37.63
42.81
46.72
49.15
49.78
48.5
45.4
40.92
35.67
30.4
25.84
22.57
20.91
20.66
21.14
21.37
20.52
18.25
14.88
11.16
7.84
5.29
3.23
1.0
-2.17
-6.6
-12.05
-17.9
-23.48
-28.59
-33.61
-39.34
-46.45
-54.95
-63.67
-70.52
-73.05
-69.31
-58.83
-42.86
-24.0
-5.31
10.68
22.78
31.09
36.67
40.75
44.04
46.54
47.73
47.06
44.29
39.88
34.68
29.68
25.63
22.73
20.77
19.27
17.86
16.34
14.78
13.32
11.87
10.24
7.97
4.73
0.37
-4.87
-10.58
-16.19
-21.43
-26.36
-31.37
-37.09
-44.04
-52.43
-61.9
-71.44
-79.46
-84.17
-83.91
-77.77
-65.92
-49.61
-30.91
-12.09
4.9
18.98
29.93
38.2
44.52
49.45
53.25
55.92
57.14
56.63
54.39
50.68
46.1
41.43
37.26
34.0
31.65
29.97
28.62
27.47
26.52
25.87
25.46
24.84
23.27
20.06
14.89
8.01
0.29
-7.19
-13.55
-18.46
-22.42
-26.3
-31.0
-37.04
-44.44
-52.78
-61.52
-70.07
-77.81
-83.89
-87.06
-85.92
-79.41
-67.3
-50.56
-31.12
-11.42
6.48
21.24
32.49
40.59
46.26
50.28
53.16
55.07
55.88
55.34
53.21
49.61
45.02
40.26
36.25
33.51
32.1
31.64
31.52
31.2
30.41
29.1
27.27
24.83
21.6
17.39
12.25
6.49
0.68
-4.71
-9.47
-13.89
-18.47
-23.71
-29.86
-36.88
-44.52
-52.59
-60.93
-69.33
-77.19
-83.25
-85.83
-83.24
-74.57
-60.09
-41.42
-21.05
-1.55
15.08
27.98
37.3
43.95
48.95
53.05
56.43
58.72
59.37
57.98
54.52
49.64
44.3
39.56
36.09
34.04
33.12
32.72
32.29
31.36
29.86
27.89
25.69
23.4
21.07
18.57
15.6
11.83
6.93
0.96
-5.78
-12.57
-18.68
-23.56
-27.14
-30.01
-33.25
-38.14
-45.61
-55.75
-67.43
-78.43
-86.08
-88.03
-83.14
-71.95
-56.54
-39.68
-23.74
-9.93
1.95
12.82
23.58
34.2
43.54
49.9
51.97
49.57
43.99
37.46
32.08
29.05
28.22
28.33
27.82
25.64
21.67
16.87
12.69
10.34
10.17
11.58
13.24
13.64
11.77
7.42
1.22
-5.51
-11.51
-16.02
-19.03
-21.25
-23.87
-28.06
-34.58
-43.48
-53.87
-63.92
-71.32
-73.92
-70.39
-60.81
-46.56
-29.94
-13.39
1.36
13.64
23.74
32.27
39.72
46.04
50.75
53.19
52.95
50.11
45.29
39.61
34.22
30.01
27.33
25.96
25.19
24.17
22.35
19.6
16.38
13.49
11.43
10.21
9.23
7.61
4.56
-0.11
-6.09
-12.65
-18.99
-24.72
-29.87
-34.8
-40.08
-46.37
-54.14
-63.53
-73.98
-83.99
-91.21
-93.2
-88.28
-76.21
-58.51
-37.89
-17.31
0.81
15.35
26.37
34.72
41.41
47.14
52.13
56.02
58.11
57.77
54.73
49.51
43.36
37.75
33.88
32.2
32.16
32.6
32.33
30.62
27.6
24.08
21.06
19.17
18.37
17.94
16.75
13.8
8.61
1.46
-6.65
-14.38
-20.68
-25.16
-28.31
-31.36
-35.82
-42.91
-52.93
-64.94
-76.8
-85.68
-88.99
-85.25
-74.63
-58.89
-40.73
-22.75
-6.71
6.85
18.43
28.7
38.14
46.63
53.65
58.59
61.03
60.94
58.63
54.75
50.07
45.39
41.32
38.18
35.88
33.98
31.97
29.47
26.53
23.51
21.0
19.38
18.57
17.9
16.37
13.08
7.74
0.8
-6.6
-13.16
-18.07
-21.4
-23.95
-26.99
-31.71
-38.74
-48.05
-58.8
-69.58
-78.55
-83.85
-84.01
-78.38
-67.4
-52.53
-35.73
-18.85
-3.24
10.53
22.41
32.52
40.93
47.52
52.02
54.23
54.01
51.57
47.43
42.49
37.75
34.01
31.56
30.02
28.52
26.27
23.03
19.34
16.22
14.61
14.68
15.69
16.2
14.78
10.69
4.23
-3.36
-10.55
-16.06
-19.47
-21.35
-22.99
-25.93
-31.37
-39.62
-49.94
-60.62
-69.27
-73.74
-72.63
-65.76
-54.11
-39.51
-23.9
-8.78
4.92
17.03
27.67
36.86
44.36
49.74
52.52
52.6
50.38
46.62
42.22
37.98
34.27
31.03
27.98
24.86
21.69
18.71
16.34
14.78
13.96
13.48
12.66
10.86
7.7
3.18
-2.35
-8.33
-14.26
-19.86
-25.02
-29.83
-34.56
-39.56
-45.48
-52.85
-61.82
-71.68
-80.8
-86.77
-87.24
-80.9
-68.12
-50.86
-31.85
-13.6
2.43
15.86
27.06
36.57
44.49
50.54
54.27
55.54
54.65
52.26
49.18
45.94
42.75
39.64
36.47
33.27
30.26
27.76
26.06
25.28
25.06
24.9
24.17
22.45
19.5
15.34
10.2
4.4
-1.73
-7.88
-13.82
-19.38
-24.52
-29.44
-34.53
-40.38
-47.57
-56.37
-66.39
-76.38
-84.32
-87.85
-85.14
-75.63
-60.45
-42.0
-23.11
-5.97
8.39
20.19
30.26
39.3
47.21
53.27
56.61
56.85
54.48
50.65
46.74
43.8
42.02
40.91
39.48
36.9
32.99
28.35
24.08
21.26
20.33
20.82
21.62
21.33
19.0
14.46
8.33
1.75
-4.2
-8.92
-12.46
-15.41
-18.64
-22.92
-28.79
-36.38
-45.49
-55.52
-65.42
-73.64
-78.41
-78.18
-72.13
-60.67
-45.34
-28.31
-11.66
3.25
15.97
26.71
35.8
43.31
49.0
52.34
53.12
51.46
48.01
43.69
39.45
35.94
33.34
31.36
29.35
26.81
23.5
19.87
16.63
14.52
13.8
13.92
13.73
12.03
8.05
1.91
-5.29
-12.21
-17.68
-21.28
-23.61
-25.91
-29.63
-35.86
-44.76
-55.2
-64.94
-71.26
-71.8
-65.54
-53.13
-36.8
-19.37
-3.42
9.81
20.34
28.95
36.51
43.24
48.7
52.01
52.58
50.22
45.6
39.77
33.9
28.86
25.0
22.22
20.08
18.07
15.7
12.81
9.51
6.12
3.1
0.69
-1.16
-2.91
-5.21
-8.72
-13.68
-19.75
-26.22
-32.26
-37.59
-42.49
-47.66
-53.72
-60.52
-66.81
-70.52
-69.5
-62.32
-49.13
-31.59
-12.45
5.39
19.72
29.63
35.52
38.62
40.45
41.99
43.47
44.37
43.84
41.2
36.43
30.29
24.05
19.07
16.12
15.21
15.59
16.05
15.47
13.26
9.45
4.7
-0.15
-4.53
-8.28
-11.68
-15.11
-18.91
-23.21
-28.08
-33.77
-40.63
-49.0
-58.78
-69.01
-77.81
-83.03
-82.81
-76.44
-64.62
-49.06
-31.9
-14.94
0.65
14.43
26.22
35.88
43.23
48.04
50.44
50.88
50.12
48.81
47.29
45.34
42.55
38.57
33.42
27.76
22.61
19.0
17.49
17.78
18.84
19.31
18.07
14.64
9.47
3.5
-2.19
-6.97
-10.84
-14.34
-18.16
-22.9
-28.92
-36.34
-45.18
-55.14
-65.33
-74.17
-79.57
-79.52
-72.99
-60.48
-43.82
-25.73
-8.54
6.48
19.15
30.08
40.0
49.06
56.92
62.83
66.03
66.25
63.82
59.57
54.7
50.34
47.2
45.31
44.15
42.93
41.1
38.69
36.25
34.53
33.97
34.3
34.68
34.05
31.8
27.94
23.21
18.59
14.95
12.46
10.73
8.99
6.43
2.49
-3.0
-9.64
-16.49
-22.01
-24.5
-22.42
-14.94
-2.43
13.69
31.25
47.98
62.08
72.71
79.94
84.49
87.47
89.83
92.13
94.39
96.22
97.15
97.04
96.24
95.36
94.89
94.77
94.33
92.46
88.25
81.29
72.02
61.49
50.84
40.95
32.09
24.0
16.04
7.63
-1.71
-12.09
-23.24
-34.68
-45.97
-56.94
-67.84
-79.26
-91.78
-105.29
-118.79
-130.1
-136.55
-135.9
-127.29
-111.6
-91.22
-69.26
-48.59
-31.26
-17.98
-8.52
-1.94
2.72
6.21
8.75
9.97
9.19
5.73
-0.61
-9.25
-18.95
-28.29
-36.22
-42.33
-47.05
-51.28
-56.09
-62.2
-69.75
-78.29
-86.83
-94.45
-100.43
-104.65
-107.46
-109.64
-111.71
-113.88
-115.82
-116.86
-116.62
-115.24
-113.36
-111.71
-110.55
-109.11
-105.81
-98.71
-86.3
-68.25
-45.75
-21.15
2.74
23.4
39.37
50.47
57.53
62.07
65.47
68.44
70.95
72.39
72.07
69.74
65.76
60.86
56.06
52.06
49.34
47.94
47.68
48.22
49.07
49.66
49.5
48.25
45.9
42.89
39.73
36.91
34.71
33.16
32.08
31.01
29.36
26.29
21.26
14.32
6.39
-0.67
-4.47
-3.14
3.99
15.85
29.92
43.22
53.52
59.94
63.0
63.83
63.49
62.29
59.75
55.09
47.74
37.78
25.99
13.34
0.79
-10.99
-21.59
-30.9
-39.05
-46.43
-53.81
-62.15
-72.35
-85.04
-100.04
-116.38
-132.46
-146.54
-157.3
-164.33
-167.9
-168.51
-166.37
-160.96
-151.2
-136.11
-115.41
-90.22
-62.74
-35.69
-11.31
9.33
26.44
41.07
54.52
67.56
80.17
91.68
101.17
107.96
111.94
113.47
112.96
110.51
105.95
98.96
89.63
78.74
67.68
57.98
50.81
46.3
43.7
41.76
39.18
35.19
29.51
22.33
14.07
5.19
-3.75
-12.19
-19.54
-25.35
-29.44
-32.05
-33.94
-36.4
-40.85
-48.33
-59.02
-71.78
-84.32
-93.85
-97.99
-95.63
-87.25
-74.65
-60.1
-45.63
-32.48
-21.23
-12.08
-5.27
-1.18
-0.18
-2.19
-6.47
-11.73
-16.49
-19.74
-21.28
-21.7
-22.02
-23.06
-24.95
-27.15
-28.75
-28.94
-27.56
-25.06
-22.24
-19.87
-18.28
-17.4
-16.93
-16.6
-16.41
-16.7
-18.04
-21.05
-26.27
-33.89
-43.56
-54.01
-63.23
-68.66
-67.95
-59.73
-44.16
-22.95
1.21
25.42
47.3
65.38
79.07
88.45
93.91
95.99
95.25
92.19
87.21
80.68
73.03
64.76
56.57
49.15
43.04
38.5
35.44
33.5
32.27
31.32
30.21
28.55
25.97
22.28
17.42
11.61
5.2
-1.36
-7.73
-13.76
-19.56
-25.51
-32.2
-40.25
-49.96
-60.95
-71.92
-80.8
-85.28
-83.6
-75.23
-61.11
-43.29
-24.22
-5.91
10.5
24.71
36.88
47.14
55.38
61.35
64.96
66.45
66.47
65.83
65.22
64.99
65.05
65.07
64.68
63.67
62.0
59.8
57.18
54.16
50.57
46.09
40.32
33.05
24.34
14.6
4.39
-5.78
-15.73
-25.66
-36.03
-47.27
-59.46
-72.13
-84.38
-95.03
-102.88
-106.97
-106.71
-102.02
-93.36
-81.58
-67.66
-52.49
-36.69
-20.64
-4.64
10.89
25.27
37.72
47.75
55.38
61.25
66.41
71.66
77.26
82.7
86.92
88.92
88.29
85.54
81.83
78.49
76.3
75.15
74.06
71.64
66.66
58.42
46.92
32.76
16.92
0.53
-15.19
-29.11
-40.35
-48.42
-53.31
-55.26
-54.65
-51.65
-46.25
-38.27
-27.59
-14.4
0.76
16.94
32.97
47.59
59.72
68.61
74.02
76.25
75.92
73.74
70.2
65.52
59.77
53.0
45.55
37.96
30.91
24.91
20.23
16.76
14.21
12.22
10.36
8.19
5.21
0.93
-4.92
-12.18
-20.24
-28.24
-35.33
-41.04
-45.42
-49.15
-53.13
-58.19
-64.77
-72.59
-80.7
-87.54
-91.31
-90.46
-84.09
-72.31
-56.09
-37.11
-17.24
1.89
19.1
33.74
45.56
54.47
60.47
63.59
64.0
62.06
58.36
53.6
48.43
43.35
38.64
34.38
30.67
27.66
25.54
24.38
23.86
23.35
21.96
18.97
13.99
7.24
-0.59
-8.66
-16.28
-23.14
-29.39
-35.47
-41.95
-49.33
-57.8
-67.0
-75.95
-83.16
-86.99
-86.21
-80.33
-69.78
-55.72
-39.67
-23.03
-6.87
8.03
21.09
31.76
39.58
44.31
46.07
45.28
42.64
38.94
34.93
31.13
27.85
25.11
22.82
20.83
19.13
17.83
17.13
17.09
17.54
17.96
17.61
15.8
12.19
6.95
0.65
-5.93
-12.16
-17.82
-23.07
-28.37
-34.22
-41.04
-49.03
-58.2
-68.37
-79.0
-89.07
-97.11
-101.42
-100.47
-93.44
-80.5
-62.87
-42.49
-21.45
-1.47
16.34
31.55
44.09
54.02
61.32
65.85
67.6
66.78
64.02
60.2
56.19
52.64
49.7
47.16
44.67
42.04
39.39
37.15
35.68
35.1
35.0
34.57
32.99
29.72
24.79
18.82
12.68
7.2
2.67
-1.11
-4.82
-9.31
-15.21
-22.82
-31.96
-41.98
-51.87
-60.38
-66.2
-68.18
-65.6
-58.31
-46.81
-32.1
-15.58
1.32
17.25
31.14
42.22
50.07
54.58
55.99
54.73
51.4
46.7
41.26
35.66
30.33
25.44
21.01
16.93
13.2
9.94
7.44
5.93
5.36
5.29
4.94
3.45
0.29
-4.5
-10.3
-16.13
-21.12
-24.89
-27.74
-30.51
-34.34
-40.16
-48.29
-58.15
-68.29
-76.65
-81.21
-80.51
-74.11
-62.69
-47.67
-30.77
-13.44
3.28
18.72
32.31
43.39
51.24
55.33
55.62
52.74
47.88
42.4
37.31
33.04
29.38
25.8
21.89
17.66
13.59
10.4
8.55
7.95
7.97
7.61
6.02
2.75
-2.06
-7.89
-14.07
-20.05
-25.56
-30.59
-35.44
-40.57
-46.62
-54.07
-63.06
-72.91
-82.05
-88.19
-88.89
-82.34
-67.97
-46.73
-20.77
7.13
34.35
58.95
79.8
96.47
108.93
117.32
121.81
122.7
120.43
115.57
108.85
100.98
92.63
84.46
77.22
71.66
68.58
68.55
71.7
77.66
85.55
94.14
101.97
107.69
110.14
108.6
102.89
93.43
81.29
67.79
54.24
41.43
29.43
17.61
5.0
-9.12
-24.65
-40.36
-54.0
-62.96
-65.11
-59.48
-46.58
-28.16
-6.6
15.72
36.88
55.52
70.59
81.17
86.3
85.25
77.73
64.17
45.66
23.83
0.5
-22.64
-44.3
-63.68
-80.38
-94.26
-105.34
-113.67
-119.3
-122.35
-123.03
-121.71
-118.89
-115.14
-111.0
-106.84
-102.87
-99.03
-95.16
-91.06
-86.69
-82.28
-78.5
-76.3
-76.56
-79.56
-84.48
-89.31
-91.19
-87.25
-75.67
-56.34
-30.9
-2.17
26.72
53.22
75.75
93.72
107.11
116.17
121.15
122.33
120.12
115.1
108.09
100.05
92.04
85.02
79.63
76.0
73.52
70.88
66.37
58.37
45.8
28.54
7.35
-16.41
-41.16
-65.57
-88.55
-109.29
-127.19
-141.74
-152.64
-159.93
-164.14
-166.29
-167.84
-170.3
-174.81
-181.68
-189.9
-197.23
-200.6
-197.05
-184.7
-163.45
-135.06
-102.61
-69.54
-38.74
-11.98
10.02
27.27
39.98
48.26
52.17
52.01
48.46
42.73
36.28
30.43
26.05
23.35
22.05
21.73
22.11
23.13
24.78
26.84
28.74
29.62
28.61
25.25
19.76
12.98
6.07
-0.0
-4.91
-9.06
-13.43
-19.25
-27.39
-38.03
-50.41
-62.74
-72.57
-77.29
-74.9
-64.6
-47.14
-24.61
0.11
24.17
45.41
62.61
75.37
83.81
88.24
89.05
86.74
81.94
75.48
68.21
60.81
53.69
46.89
40.35
34.05
28.26
23.42
20.05
18.4
18.14
18.38
17.89
15.51
10.66
3.52
-5.0
-13.72
-21.6
-28.23
-33.85
-39.2
-45.13
-52.41
-61.49
-72.5
-85.14
-98.61
-111.44
-121.48
-126.31
-123.74
-112.61
-93.29
-67.62
-38.53
-9.25
17.42
39.69
56.79
68.85
76.52
80.55
81.63
80.26
76.81
71.7
65.4
58.53
51.68
45.42
40.08
35.81
32.54
30.1
28.33
27.01
25.95
24.8
23.16
20.58
16.71
11.37
4.66
-3.08
-11.47
-20.09
-28.71
-37.28
-45.95
-55.05
-65.12
-76.81
-90.53
-106.04
-121.98
-135.87
-144.54
-145.11
-135.94
-117.33
-91.46
-61.69
-31.52
-3.69
20.18
39.48
54.2
64.52
70.58
72.53
70.71
65.81
58.83
50.98
43.35
36.74
31.44
27.28
23.8
20.49
17.06
13.55
10.16
7.11
4.41
1.83
-1.01
-4.45
-8.68
-13.73
-19.46
-25.59
-31.71
-37.33
-42.04
-45.78
-49.04
-53.06
-59.49
-69.72
-84.08
-101.09
-117.45
-128.72
-130.46
-119.62
-95.44
-59.75
-16.25
30.46
76.1
117.45
152.59
180.75
201.88
216.24
224.18
226.09
222.43
213.74
200.83
184.8
167.28
150.22
135.76
125.66
120.79
120.67
123.32
125.81
124.98
118.49
105.49
86.68
63.93
39.46
15.11
-8.07
-29.89
-50.87
-71.73
-93.0
-114.55
-135.46
-154.14
-168.77
-177.98
-181.51
-180.64
-177.8
-175.77
-176.52
-180.25
-185.21
-188.2
-185.84
-175.85
-158.08
-134.69
-109.52
-86.76
-69.55
-58.96
-53.92
-52.0
-50.56
-47.89
-43.48
-37.72
-31.15
-23.91
-15.68
-6.14
4.48
15.12
24.25
30.53
33.45
33.6
32.4
31.43
31.82
33.76
36.52
38.69
38.72
35.48
28.6
18.52
6.31
-6.7
-19.19
-30.04
-38.26
-43.13
-44.18
-41.16
-34.07
-22.92
-7.61
12.02
35.94
63.76
94.53
126.92
159.43
190.43
218.32
241.58
259.01
270.06
274.98
274.53
269.42
259.79
245.22
225.67
202.6
179.86
163.12
158.0
167.61
190.8
222.31
254.66
281.24
298.51
306.89
309.63
310.74
312.91
316.54
320.01
320.68
316.24
305.43
288.36
266.14
240.42
212.79
184.27
155.21
125.28
93.87
60.53
25.22
-11.53
-48.92
-86.14
-122.7
-158.3
-192.56
-224.66
-253.13
-276.22
-292.61
-302.3
-306.87
-309.2
-312.23
-317.68
-325.04
-331.6
-333.68
-328.21
-314.21
-293.26
-268.82
-244.85
-224.49
-209.13
-198.37
-190.72
-184.41
-178.36
-172.44
-167.42
-164.26
-163.33
-163.73
-163.21
-158.78
-147.56
-127.81
-99.69
-65.19
-27.56
9.59
43.21
71.29
93.04
108.71
119.21
125.76
129.61
131.63
132.06
130.43
125.71
116.97
104.07
88.07
71.09
55.7
43.88
36.36
32.44
30.38
28.37
25.23
20.7
15.3
9.73
4.42
-0.77
-6.33
-12.9
-20.93
-30.64
-42.04
-54.86
-68.54
-81.93
-93.33
-100.7
-102.23
-96.99
-85.36
-68.91
-49.99
-30.99
-13.86
0.14
10.27
16.18
17.7
14.93
8.44
-0.77
-11.34
-21.86
-31.24
-38.92
-44.81
-49.09
-51.94
-53.28
-52.86
-50.54
-46.54
-41.6
-36.75
-33.05
-31.21
-31.45
-33.44
-36.58
-40.26
-44.16
-48.43
-53.63
-60.48
-69.37
-79.84
-90.21
-97.82
-99.67
-93.57
-78.91
-56.99
-30.69
-3.56
21.31
41.8
57.22
67.94
74.86
78.87
80.63
80.42
78.34
74.44
68.83
61.86
54.17
46.67
40.34
35.97
33.85
33.58
34.12
34.15
32.65
29.28
24.54
19.35
14.52
10.33
6.34
1.64
-4.78
-13.61
-24.95
-38.26
-52.23
-65.11
-74.8
-79.35
-77.45
-68.82
-54.25
-35.36
-14.07
7.87
28.97
48.06
64.14
76.31
83.98
87.08
86.18
82.39
77.07
71.33
65.84
60.68
55.61
50.37
44.93
39.62
35.02
31.72
29.9
29.21
28.77
27.52
24.58
19.57
12.83
5.21
-2.22
-8.72
-14.18
-19.27
-25.2
-33.24
-44.1
-57.27
-70.92
-82.29
-88.4
-87.13
-77.85
-61.61
-40.66
-17.79
4.58
24.62
41.34
54.36
63.67
69.48
72.18
72.26
70.25
66.73
62.09
56.7
50.94
45.16
39.75
35.09
31.49
29.06
27.64
26.83
26.06
24.75
22.47
19.11
14.85
10.05
5.02
-0.12
-5.5
-11.39
-18.08
-25.8
-34.62
-44.44
-54.79
-64.69
-72.69
-77.0
-76.09
-69.13
-56.28
-38.66
-18.12
3.24
23.44
40.74
53.92
62.31
65.93
65.56
62.46
58.07
53.5
49.21
45.05
40.6
35.58
30.22
25.23
21.52
19.74
19.9
21.32
22.75
23.0
21.27
17.5
12.37
6.8
1.71
-2.54
-6.12
-9.66
-14.0
-19.84
-27.61
-37.26
-48.29
-59.62
-69.72
-76.76
-78.97
-75.21
-65.28
-50.11
-31.48
-11.56
7.7
24.82
38.83
49.21
55.64
58.06
56.81
52.64
46.66
40.09
33.88
28.49
23.99
20.17
16.89
14.17
12.16
11.01
10.72
11.0
11.33
11.1
9.76
6.96
2.7
-2.72
-8.72
-14.67
-20.19
-25.37
-30.83
-37.47
-45.93
-56.1
-66.74
-75.61
-80.08
-78.06
-68.72
-52.94
-32.99
-11.77
8.03
24.63
37.31
46.14
51.56
54.08
54.03
51.68
47.32
41.39
34.47
27.21
20.29
14.32
9.78
6.8
5.23
4.53
4.08
3.24
1.66
-0.71
-3.7
-7.09
-10.78
-14.81
-19.35
-24.52
-30.31
-36.71
-43.66
-51.25
-59.65
-68.86
-78.41
-87.13
-93.18
-94.51
-89.55
-77.76
-60.05
-38.49
-15.71
5.77
24.16
38.5
48.7
55.01
58.0
58.23
56.21
52.49
47.53
41.76
35.56
29.36
23.52
18.46
14.47
11.72
10.16
9.53
9.4
9.23
8.44
6.55
3.28
-1.42
-7.21
-13.54
-19.8
-25.6
-30.98
-36.53
-43.19
-51.75
-62.35
-73.94
-84.37
-90.96
-91.31
-84.25
-70.21
-51.03
-29.44
-8.03
11.29
27.55
40.46
50.11
56.57
59.83
59.97
57.28
52.47
46.5
40.39
34.89
30.33
26.57
23.29
20.25
17.46
15.12
13.47
12.49
11.83
10.87
8.92
5.56
0.78
-5.03
-11.19
-17.12
-22.52
-27.58
-33.0
-39.63
-48.14
-58.47
-69.55
-79.33
-85.24
-84.93
-77.03
-61.73
-40.87
-17.35
5.62
25.49
40.91
51.81
59.11
63.99
67.33
69.39
69.78
67.79
62.74
54.42
43.15
29.82
15.78
2.45
-8.92
-17.59
-23.33
-26.52
-27.82
-28.01
-27.65
-26.96
-25.91
-24.28
-21.91
-18.85
-15.41
-12.21
-10.21
-10.45
-13.86
-20.85
-30.96
-42.76
-53.98
-62.19
-65.46
-62.96
-55.28
-44.1
-31.68
-20.14
-10.99
-4.77
-1.22
0.44
1.11
1.42
1.62
1.66
1.38
0.7
-0.17
-0.81
-0.83
-0.03
1.4
3.0
4.25
4.85
4.7
4.05
3.2
2.34
1.41
-0.03
-2.52
-6.53
-12.23
-19.47
-28.01
-37.55
-47.79
-58.06
-67.21
-73.51
-75.03
-70.25
-58.64
-41.1
-19.77
2.52
23.07
39.84
51.81
58.77
61.09
59.35
54.25
46.56
37.16
26.98
16.85
7.23
-1.86
-10.69
-19.48
-28.19
-36.34
-43.37
-49.05
-53.61
-57.72
-62.09
-67.17
-72.95
-79.15
-85.45
-91.66
-97.73
-103.54
-108.9
-113.48
-116.92
-118.69
-118.05
-113.89
-104.91
-90.18
-69.63
-44.46
-16.86
10.61
35.84
57.72
76.14
91.51
104.14
113.83
119.94
121.91
119.74
114.22
106.77
98.85
91.55
85.25
79.8
74.89
70.4
66.58
63.97
63.17
64.63
68.44
74.3
81.57
89.27
96.33
101.78
104.94
105.4
103.03
97.87
90.21
80.71
70.55
61.24
54.36
50.92
51.15
54.43
59.75
66.36
74.06
83.24
94.39
107.51
121.65
134.82
144.44
148.07
144.28
133.25
116.87
98.24
80.79
67.22
58.86
55.39
55.2
56.09
56.0
53.58
48.41
40.84
31.59
21.4
10.75
-0.29
-11.8
-23.87
-36.41
-49.2
-62.0
-74.67
-87.06
-98.76
-108.84
-115.81
-118.0
-114.25
-104.41
-89.62
-72.02
-54.15
-38.2
-25.54
-16.58
-10.98
-8.0
-6.87
-6.99
-8.01
-9.79
-12.24
-15.14
-17.95
-19.99
-20.56
-19.28
-16.34
-12.46
-8.74
-6.27
-5.81
-7.45
-10.75
-14.93
-19.16
-23.01
-26.5
-30.02
-34.22
-39.76
-47.04
-56.01
-66.02
-75.78
-83.58
-87.62
-86.42
-79.25
-66.42
-49.13
-29.19
-8.55
11.02
28.1
41.63
51.0
56.04
57.1
55.04
51.08
46.4
41.78
37.41
33.01
28.2
22.9
17.62
13.16
10.36
9.52
10.25
11.49
12.03
10.87
7.7
2.84
-2.89
-8.62
-13.74
-18.09
-22.06
-26.44
-32.17
-40.08
-50.3
-62.05
-73.59
-82.47
-86.23
-83.13
-72.85
-56.55
-36.57
-15.71
3.61
19.91
32.65
42.05
48.62
52.76
54.73
54.59
52.45
48.57
43.54
38.05
32.82
28.46
25.27
23.28
22.24
21.74
21.26
20.39
18.92
16.75
13.96
10.63
6.82
2.56
-2.15
-7.3
-12.85
-18.78
-25.09
-31.93
-39.58
-48.2
-57.63
-67.08
-75.03
-79.63
-79.01
-72.08
-58.97
-41.12
-20.82
-0.61
17.36
31.73
41.93
48.12
50.85
50.96
49.28
46.62
43.52
40.17
36.47
32.15
27.17
21.87
17.02
13.43
11.7
11.81
13.05
14.29
14.33
12.44
8.54
3.26
-2.43
-7.68
-12.05
-15.73
-19.38
-23.86
-29.95
-38.04
-47.99
-58.95
-69.51
-77.8
-81.94
-80.54
-73.16
-60.46
-44.09
-26.06
-8.22
8.07
22.07
33.45
42.06
47.69
50.2
49.6
46.33
41.24
35.41
29.84
25.22
21.8
19.38
17.58
16.11
14.87
13.92
13.31
12.91
12.29
10.98
8.57
4.96
0.37
-4.77
-10.01
-15.13
-20.08
-25.23
-31.1
-38.17
-46.61
-55.84
-64.53
-70.7
-72.3
-67.91
-57.36
-41.89
-23.76
-5.58
10.6
23.67
33.44
40.25
44.51
46.45
46.13
43.71
39.61
34.56
29.35
24.57
20.51
17.19
14.59
12.72
11.69
11.51
11.94
12.4
12.14
10.45
6.98
1.89
-4.27
-10.72
-16.81
-22.22
-27.1
-32.1
-38.12
-46.03
-56.15
-67.98
-80.03
-90.13
-95.83
-95.24
-87.59
-73.49
-54.85
-34.21
-13.94
4.23
19.39
31.41
40.41
46.54
49.86
50.47
48.67
45.05
40.49
35.72
31.29
27.39
24.01
21.09
18.65
16.78
15.55
14.88
14.46
13.83
12.44
9.99
6.42
1.9
-3.25
-8.76
-14.52
-20.67
-27.5
-35.46
-44.8
-55.42
-66.66
-77.21
-85.27
-88.92
-86.73
-78.13
-63.74
-45.18
-24.57
-4.11
14.45
29.9
41.63
49.47
53.71
54.91
53.89
51.59
48.74
45.82
42.91
39.87
36.5
32.84
29.25
26.24
24.31
23.59
23.75
23.99
23.24
20.64
15.92
9.52
2.45
-4.09
-9.36
-13.43
-17.25
-22.31
-29.98
-40.8
-54.06
-67.77
-79.11
-85.31
-84.51
-76.39
-62.2
-44.29
-25.13
-6.62
10.24
25.23
38.35
49.36
57.59
62.25
62.9
59.93
54.55
48.47
43.24
39.72
37.81
36.7
35.35
33.09
29.99
26.84
24.61
23.95
24.56
25.33
24.72
21.51
15.33
6.93
-2.14
-10.34
-16.66
-21.26
-25.22
-30.13
-37.36
-47.34
-59.33
-71.37
-80.76
-84.87
-81.96
-71.7
-55.29
-35.16
-14.14
5.23
21.4
33.82
42.78
48.82
52.46
53.97
53.46
51.08
47.14
42.15
36.81
31.85
27.91
25.32
24.18
24.21
24.84
25.37
25.14
23.75
21.14
17.65
13.7
9.7
5.87
2.08
-2.02
-6.8
-12.61
-19.62
-27.84
-37.16
-47.08
-56.68
-64.58
-69.1
-68.75
-62.73
-51.23
-35.48
-17.36
1.07
18.1
32.58
43.9
51.8
56.25
57.45
55.88
52.32
47.7
42.89
38.45
34.5
30.83
27.22
23.64
20.52
18.4
17.71
18.32
19.51
20.08
18.88
15.24
9.28
1.89
-5.76
-12.63
-18.28
-22.99
-27.69
-33.56
-41.6
-52.13
-64.53
-77.03
-87.11
-92.11
-90.09
-80.56
-64.74
-45.09
-24.46
-5.19
11.5
25.37
36.76
45.86
52.56
56.51
57.53
55.92
52.46
48.15
43.88
40.2
37.17
34.63
32.43
30.56
29.14
28.26
27.82
27.47
26.79
25.33
22.77
19.1
14.51
9.38
4.23
-0.39
-4.13
-6.99
-9.42
-12.46
-17.35
-25.0
-35.42
-47.41
-58.78
-67.08
-70.4
-68.12
-60.97
-50.67
-39.17
-28.07
-18.32
-10.41
-4.63
-1.22
-0.27
-1.49
-4.12
-7.04
-9.19
-9.91
-9.14
-7.21
-4.59
-1.51
2.05
6.32
11.44
17.43
24.12
31.14
38.11
44.48
49.65
52.98
53.91
52.11
47.65
41.05
33.14
24.78
16.45
8.21
-0.46
-10.23
-21.56
-34.19
-46.93
-57.78
-64.51
-65.34
-59.54
-47.59
-31.05
-11.99
7.61
26.31
43.36
58.53
71.82
83.08
91.94
97.94
100.87
101.03
99.3
96.84
94.59
92.86
91.17
88.63
84.48
78.63
71.6
64.25
57.08
49.86
41.72
31.63
19.19
5.01
-9.35
-21.98
-31.45
-37.31
-40.38
-42.42
-45.53
-51.58
-61.57
-75.4
-91.8
-108.54
-122.9
-132.24
-134.66
-129.52
-117.49
-100.34
-80.38
-59.9
-40.75
-24.16
-10.82
-0.95
5.56
9.21
10.67
10.78
10.31
9.75
9.35
9.17
9.27
9.75
10.74
12.17
13.71
14.76
14.73
13.25
10.4
6.67
2.69
-0.94
-3.76
-5.32
-5.03
-2.27
3.23
11.07
19.91
27.88
33.18
34.97
33.79
31.45
30.44
32.96
40.32
52.62
69.03
88.24
109.01
130.27
151.11
170.4
186.59
197.87
202.52
199.53
188.94
171.8
149.77
124.62
97.91
70.83
44.31
18.92
-5.31
-28.93
-53.04
-78.58
-105.57
-132.51
-156.57
-174.57
-184.33
-185.64
-180.4
-171.86
-163.38
-157.39
-154.94
-155.99
-159.87
-165.8
-172.93
-180.22
-186.32
-189.52
-188.01
-180.48
-166.4
-146.42
-122.25
-96.35
-71.16
-48.6
-29.51
-13.78
-0.73
10.31
19.6
26.94
31.91
34.29
34.33
32.6
29.82
26.54
23.13
19.84
16.97
14.86
13.86
14.17
15.71
18.13
20.85
23.24
24.75
25.07
24.27
22.68
20.82
19.17
17.95
17.01
15.78
13.49
9.39
3.11
-5.16
-14.52
-23.5
-30.3
-33.21
-31.06
-23.57
-11.38
4.09
21.15
38.18
53.97
67.7
78.77
86.62
90.74
90.86
87.21
80.68
72.55
64.1
56.15
48.86
41.88
34.75
27.38
20.21
14.05
9.59
6.98
5.7
4.72
2.93
-0.38
-5.27
-11.19
-17.19
-22.41
-26.42
-29.38
-32.01
-35.42
-40.62
-48.19
-57.86
-68.37
-77.7
-83.52
-83.91
-77.95
-66.06
-49.83
-31.55
-13.5
2.65
16.05
26.53
34.27
39.51
42.34
42.78
41.02
37.46
32.84
28.0
23.73
20.47
18.28
16.93
16.06
15.37
14.64
13.78
12.68
11.15
8.94
5.8
1.66
-3.39
-9.07
-15.06
-21.14
-27.25
-33.55
-40.41
-48.2
-57.05
-66.54
-75.61
-82.62
-85.87
-83.97
-76.38
-63.59
-46.95
-28.33
-9.63
7.61
22.32
33.9
42.18
47.26
49.47
49.26
47.15
43.71
39.35
34.41
29.06
23.48
17.92
12.72
8.31
5.01
2.89
1.71
0.95
0.03
-1.44
-3.55
-6.04
-8.47
-10.49
-11.98
-13.22
-14.83
-17.6
-22.33
-29.43
-38.81
-49.56
-60.18
-68.73
-73.3
-72.54
-65.98
-54.23
-38.68
-21.11
-3.18
13.82
29.08
42.1
52.48
59.89
64.07
65.1
63.48
60.07
55.81
51.43
47.28
43.33
39.39
35.34
31.3
27.64
24.8
23.07
22.4
22.34
22.08
20.74
17.67
12.73
6.33
-0.74
-7.62
-13.72
-18.95
-23.73
-28.87
-35.21
-43.39
-53.4
-64.36
-74.61
-81.98
-84.44
-80.7
-70.73
-55.69
-37.61
-18.61
-0.36
16.23
30.87
43.51
53.98
61.88
66.71
68.2
66.58
62.64
57.51
52.25
47.56
43.63
40.2
36.9
33.52
30.16
27.22
25.15
24.19
24.14
24.31
23.77
21.59
17.34
11.18
3.93
-3.33
-9.7
-14.89
-19.24
-23.67
-29.22
-36.68
-46.27
-57.37
-68.62
-78.05
-83.68
-83.92
-78.06
-66.52
-50.61
-32.23
-13.21
5.02
21.51
35.74
47.35
55.98
61.29
63.16
61.82
57.96
52.57
46.69
41.15
36.28
32.05
28.2
24.56
21.17
18.33
16.39
15.47
15.33
15.31
14.62
12.55
8.87
3.76
-2.2
-8.34
-14.19
-19.52
-24.57
-29.76
-35.69
-42.8
-51.25
-60.61
-69.83
-77.27
-81.03
-79.54
-71.97
-58.61
-40.85
-20.82
-0.82
17.19
31.95
43.03
50.59
55.13
57.2
57.24
55.49
52.08
47.22
41.29
34.91
28.77
23.48
19.42
16.71
15.13
14.32
13.82
13.12
11.81
9.62
6.48
2.49
-2.07
-6.87
-11.69
-16.46
-21.31
-26.53
-32.42
-39.28
-47.29
-56.31
-65.77
-74.55
-81.1
-83.74
-81.14
-72.73
-58.96
-41.2
-21.44
-1.72
16.2
31.17
42.64
50.57
55.24
57.12
56.7
54.53
51.14
47.01
42.53
37.94
33.34
28.78
24.42
20.54
17.53
15.64
14.84
14.69
14.42
13.25
10.63
6.48
1.17
-4.68
-10.54
-16.12
-21.45
-26.87
-32.86
-39.9
-48.35
-58.17
-68.83
-79.21
-87.68
-92.39
-91.84
-85.27
-72.96
-56.16
-36.69
-16.53
2.74
20.02
34.71
46.5
55.23
60.79
63.26
62.98
60.53
56.76
52.45
48.18
44.18
40.41
36.66
32.8
28.95
25.44
22.64
20.82
19.81
19.13
18.07
15.91
12.22
6.99
0.6
-6.28
-12.97
-19.06
-24.5
-29.69
-35.32
-42.16
-50.76
-61.08
-72.3
-82.84
-90.71
-93.93
-91.2
-82.19
-67.62
-49.06
-28.39
-7.45
12.28
29.74
44.21
55.25
62.62
66.4
66.98
65.06
61.55
57.31
53.03
49.03
45.3
41.66
37.9
34.04
30.35
27.24
25.07
23.97
23.63
23.46
22.65
20.5
16.62
11.01
4.12
-3.32
-10.56
-17.03
-22.62
-27.71
-33.09
-39.73
-48.29
-58.74
-70.06
-80.35
-87.27
-88.75
-83.68
-72.15
-55.45
-35.55
-14.53
5.86
24.34
40.13
52.72
61.78
67.24
69.27
68.28
64.92
59.96
54.11
48.02
42.13
36.69
31.81
27.54
23.92
21.06
19.05
17.84
17.11
16.32
14.76
11.92
7.66
2.3
