70.47
68.59
65.18
60.7
55.41
49.55
43.36
37.18
31.47
26.64
23.12
21.07
20.43
20.8
21.46
21.56
20.31
17.19
12.18
5.74
-1.38
-8.38
-14.74
-20.47
-26.06
-32.41
-40.41
-50.55
-62.48
-74.9
-85.59
-91.97
-91.86
-84.13
-69.1
-48.48
-24.78
-0.65
21.76
41.04
56.46
67.73
74.8
77.8
77.14
73.62
68.28
62.21
56.25
50.78
45.75
40.92
36.11
31.47
27.43
24.52
23.05
22.91
23.44
23.72
22.8
20.07
15.41
9.24
2.26
-4.74
-11.21
-16.98
-22.43
-28.36
-35.72
-45.22
-56.76
-69.19
-80.27
-87.28
-87.78
-80.43
-65.53
-44.92
-21.41
2.02
23.01
40.17
53.01
61.63
66.42
67.74
65.94
61.48
54.98
47.31
39.38
32.02
25.76
20.75
16.88
13.91
11.57
9.7
8.17
6.85
5.49
3.76
1.3
-2.15
-6.69
-12.15
-18.21
-24.45
-30.57
-36.6
-42.95
-50.24
-58.9
-68.7
-78.48
-86.2
-89.5
-86.44
-76.21
-59.48
-38.2
-15.05
7.24
26.51
41.43
51.54
57.07
58.7
57.31
53.72
48.66
42.66
36.09
29.29
22.65
16.6
11.6
8.0
5.86
4.97
4.8
4.68
3.96
2.15
-0.92
-5.11
-10.08
-15.42
-20.79
-26.05
-31.28
-36.82
-43.14
-50.81
-60.19
-71.13
-82.63
-92.81
-99.22
-99.54
-92.4
-77.88
-57.52
-33.9
-9.8
12.51
31.6
46.84
58.06
65.32
68.74
68.66
65.65
60.56
54.37
47.93
41.78
36.12
30.83
25.8
21.09
17.0
13.92
12.08
11.3
10.95
10.09
7.91
4.01
-1.45
-7.86
-14.45
-20.67
-26.4
-32.02
-38.3
-46.08
-55.86
-67.46
-79.65
-90.25
-96.55
-96.14
-87.77
-71.84
-50.34
-26.19
-2.33
19.11
37.04
51.21
61.76
68.84
72.45
72.65
69.75
64.46
57.83
50.92
44.56
39.16
34.73
31.09
28.07
25.63
23.84
22.71
22.05
21.43
20.29
18.16
14.78
10.25
4.84
-1.11
-7.28
-13.52
-19.77
-26.15
-33.02
-40.87
-50.08
-60.57
-71.36
-80.51
-85.52
-84.08
-74.95
-58.48
-36.58
-12.16
11.79
32.96
50.08
62.8
71.39
76.26
77.79
76.26
72.01
65.58
57.8
49.66
42.08
35.68
30.71
27.09
24.58
22.97
22.1
21.82
21.82
21.6
20.52
18.06
14.01
8.57
2.28
-4.21
-10.35
-15.96
-21.25
-26.75
-33.27
-41.44
-51.48
-62.83
-73.99
-82.76
-86.73
-84.02
-73.98
-57.5
-36.7
-14.39
6.79
24.96
39.18
49.36
55.83
58.96
59.0
56.16
50.75
43.44
35.23
27.26
20.53
15.58
12.42
10.64
9.67
9.04
8.47
7.82
6.93
5.52
3.23
-0.19
-4.79
-10.3
-16.23
-22.13
-27.79
-33.48
-39.8
-47.53
-57.05
-67.96
-78.82
-87.3
-90.86
-87.51
-76.59
-59.0
-36.96
-13.28
9.45
29.36
45.44
57.33
65.05
68.69
68.53
65.09
59.25
52.07
44.57
37.49
31.11
25.42
20.3
15.73
11.92
9.09
7.34
6.43
5.82
4.77
2.64
-0.98
-6.14
-12.58
-19.81
-27.31
-34.61
-41.52
-48.09
-54.77
-62.26
-71.36
-82.52
-95.38
-108.45
-119.26
-124.93
-123.05
-112.6
-94.33
-70.58
-44.49
-19.05
3.52
22.12
36.51
46.92
53.72
57.28
58.01
56.47
53.41
49.72
46.17
43.21
40.83
38.68
36.31
33.53
30.6
28.21
27.05
27.43
28.93
30.52
30.96
29.42
25.87
21.02
16.03
11.92
9.19
7.64
6.47
4.67
1.31
-4.17
-11.79
-20.83
-29.93
-37.22
-40.7
-38.82
-30.92
-17.54
-0.24
18.77
37.25
53.42
66.24
75.3
80.66
82.56
81.32
77.35
71.22
63.69
55.58
47.66
40.44
34.12
28.61
23.75
19.41
15.62
12.44
9.85
7.66
5.39
2.46
-1.63
-7.03
-13.49
-20.34
-26.84
-32.46
-37.14
-41.49
-46.6
-53.73
-63.71
-76.4
-90.38
-103.04
-111.27
-112.3
-104.67
-88.68
-66.32
-40.56
-14.48
9.41
29.59
45.39
56.78
63.99
67.39
67.42
64.64
59.72
53.42
46.51
39.54
32.91
26.8
21.31
16.57
12.79
10.22
8.97
8.84
9.31
9.63
9.09
7.32
4.32
0.44
-3.85
-8.23
-12.67
-17.45
-23.09
-30.21
-39.18
-49.88
-61.4
-72.04
-79.51
-81.51
-76.42
-63.9
-45.04
-22.13
1.96
24.54
43.66
58.3
68.34
74.2
76.56
76.12
73.55
69.4
64.17
58.3
52.08
45.74
39.49
33.57
28.32
24.11
21.19
19.53
18.79
18.3
17.33
15.23
11.72
6.85
0.96
-5.48
-12.03
-18.48
-24.9
-31.63
-39.26
-48.37
-59.18
-71.19
-82.98
-92.31
-96.69
-94.11
-83.82
-66.6
-44.54
-20.37
3.3
24.56
42.35
56.21
66.02
71.73
73.44
71.54
66.83
60.41
53.37
46.6
40.45
34.88
29.61
24.45
19.52
15.22
12.02
10.16
9.4
9.03
8.07
5.68
1.48
-4.28
-10.88
-17.4
-23.21
-28.28
-33.21
-39.05
-46.82
-56.92
-68.71
-80.41
-89.48
-93.33
-90.16
-79.52
-62.41
-40.96
-17.77
4.82
25.05
41.9
54.93
64.0
69.17
70.68
68.93
64.6
58.5
51.48
44.26
37.36
31.04
25.47
20.78
17.12
14.54
12.96
12.05
11.29
10.16
8.22
5.35
1.67
-2.59
-7.17
-11.94
-16.85
-22.03
-27.69
-34.22
-41.98
-51.1
-61.07
-70.58
-77.56
-79.74
-75.34
-63.76
-45.84
-23.63
0.21
23.14
43.24
59.42
71.19
78.59
81.9
81.56
78.19
72.55
65.45
57.67
49.85
42.42
35.61
29.58
24.44
20.35
17.45
15.78
15.1
14.81
14.08
12.14
8.6
3.67
-1.94
-7.34
-11.91
-15.67
-19.32
-23.97
-30.64
-39.76
-50.88
-62.53
-72.64
-78.91
-79.5
-73.54
-61.31
-44.19
-24.2
-3.5
16.05
33.13
46.83
56.56
61.92
62.86
59.74
53.45
45.25
36.46
28.07
20.62
14.18
8.58
3.73
-0.29
-3.27
-5.03
-5.65
-5.57
-5.53
-6.29
-8.39
-11.92
-16.5
-21.5
-26.34
-30.82
-35.25
-40.35
-46.87
-55.06
-64.33
-73.19
-79.53
-81.25
-76.87
-66.05
-49.71
-29.7
-8.39
11.94
29.49
43.08
52.29
57.16
58.14
55.88
51.1
44.55
36.83
28.53
20.14
12.2
5.25
-0.22
-3.87
-5.75
-6.27
-6.16
-6.23
-7.09
-8.98
-11.77
-15.1
-18.63
-22.2
-25.89
-30.07
-35.19
-41.72
-50.01
-59.97
-70.87
-81.15
-88.72
-91.31
-87.22
-75.9
-58.18
-36.11
-12.34
10.54
30.58
46.58
58.12
65.28
68.46
68.15
64.9
59.31
52.02
43.71
35.06
26.72
19.24
13.06
8.39
5.25
3.39
2.41
1.77
0.99
-0.33
-2.42
-5.35
-9.04
-13.37
-18.26
-23.67
-29.72
-36.67
-44.87
-54.53
-65.43
-76.59
-86.25
-92.19
-92.29
-85.25
-71.08
-51.18
-27.93
-4.07
17.97
36.49
50.67
60.38
65.97
67.93
66.82
63.12
57.4
50.22
42.29
34.3
26.87
20.4
15.06
10.82
7.48
4.8
2.56
0.51
-1.59
-4.04
-7.09
-10.88
-15.36
-20.4
-25.72
-31.22
-37.02
-43.57
-51.46
-60.98
-71.71
-82.29
-90.54
-94.03
-90.83
-80.2
-62.84
-40.67
-16.25
7.87
29.62
47.67
61.31
70.39
75.16
76.13
74.03
69.67
63.88
57.37
50.72
44.33
38.49
33.41
29.27
26.2
24.22
23.18
22.72
22.27
21.2
19.03
15.55
10.9
5.44
-0.4
-6.31
-12.29
-18.64
-25.92
-34.68
-45.17
-56.99
-68.9
-78.91
-84.71
-84.31
-76.62
-61.86
-41.52
-18.01
6.03
28.2
46.74
60.67
69.72
74.16
74.62
71.97
67.09
60.86
53.95
46.89
40.02
33.6
27.93
23.34
20.12
18.42
18.03
18.36
18.59
17.82
15.47
11.45
6.08
-0.01
-6.23
-12.28
-18.27
-24.72
-32.37
-41.82
-53.17
-65.65
-77.62
-86.76
-90.67
-87.66
-77.29
-60.58
-39.7
-17.34
4.01
22.56
37.36
48.17
55.09
58.33
58.11
54.71
48.6
40.53
31.54
22.76
15.19
9.51
5.91
4.13
3.59
3.62
3.63
3.26
2.35
0.88
-1.11
-3.63
-6.75
-10.6
-15.35
-21.11
-28.04
-36.27
-45.81
-56.34
-66.94
-76.07
-81.73
-82.01
-75.62
-62.45
-43.65
-21.39
1.7
23.21
41.35
55.16
64.44
69.5
70.84
69.07
64.74
58.47
50.96
42.99
35.35
28.7
23.43
19.63
17.12
15.57
14.56
13.72
12.67
11.06
8.6
5.07
0.37
-5.39
-11.98
-19.08
-26.46
-34.18
-42.62
-52.35
-63.65
-76.04
-87.87
-96.56
-99.27
-93.87
-79.81
-58.39
-32.49
-5.61
19.03
39.3
54.43
64.73
71.1
74.51
75.63
74.67
71.65
66.54
59.66
51.7
43.65
36.51
30.99
27.28
25.09
23.75
22.52
20.81
18.29
14.98
11.07
6.79
2.29
-2.48
-7.72
-13.77
-21.02
-29.78
-40.26
-52.27
-65.13
-77.42
-87.12
-91.96
-90.06
-80.57
-64.01
-42.21
-17.78
6.54
28.52
46.77
60.69
70.25
75.72
77.49
76.09
72.19
66.59
60.08
53.38
46.95
41.02
35.58
30.68
26.42
23.05
20.75
19.51
18.9
18.21
16.62
13.54
8.89
3.07
-3.17
-9.17
-14.71
-20.15
-26.35
-34.29
-44.53
-56.71
-69.31
-79.9
-85.71
-84.48
-75.23
-58.62
-36.67
-12.23
11.91
33.64
51.73
65.8
75.86
82.1
84.7
83.98
80.45
74.91
68.27
61.36
54.74
48.67
43.23
38.46
34.56
31.78
30.26
29.84
29.96
29.78
28.47
25.55
20.95
15.12
8.73
2.44
-3.39
-8.84
-14.45
-21.05
-29.4
-39.88
-52.14
-64.86
-75.97
-83.06
-84.01
-77.67
-64.23
-45.12
-22.66
0.53
22.12
40.38
54.35
63.72
68.69
69.81
67.78
63.39
57.4
50.42
42.94
35.34
27.99
21.26
15.57
11.25
8.46
7.06
6.54
6.14
5.1
2.84
-0.84
-5.74
-11.41
-17.35
-23.26
-29.09
-35.13
-41.85
-49.71
-58.94
-69.17
-79.28
-87.46
-91.58
-89.8
-81.21
-66.25
-46.57
-24.67
-3.13
15.95
31.28
42.41
49.43
52.73
52.8
50.17
45.46
39.32
32.42
25.41
18.86
13.19
8.73
5.62
3.88
3.31
3.45
3.71
3.38
1.87
-1.14
-5.56
-11.08
-17.18
-23.41
-29.58
-35.77
-42.46
-50.26
-59.69
-70.72
-82.43
-92.98
-99.9
-100.8
-94.16
-79.95
-59.63
-35.75
-11.15
11.75
31.32
46.79
57.97
65.04
68.35
68.35
65.62
60.8
54.55
47.43
39.97
32.64
25.87
20.1
15.65
12.69
11.07
10.39
10.0
9.24
7.59
4.85
1.06
-3.48
-8.46
-13.66
-19.07
-24.9
-31.6
-39.68
-49.53
-61.06
-73.47
-85.11
-93.68
-96.74
-92.45
-80.26
-61.13
-37.4
-12.08
11.88
32.33
48.14
59.18
65.96
69.15
69.43
67.32
63.32
57.86
51.4
44.35
37.11
30.05
23.58
18.16
14.14
11.74
10.79
10.77
10.93
10.46
8.81
5.81
1.66
-3.23
-8.44
-13.66
-18.95
-24.65
-31.4
-39.83
-50.16
-61.8
-73.22
-82.06
-85.76
-82.36
-71.17
-53.08
-30.28
-5.66
18.06
38.84
55.59
68.04
76.41
81.14
82.66
81.3
77.43
71.51
64.19
56.28
48.67
42.06
36.92
33.31
31.07
29.85
29.32
29.16
29.04
28.55
27.24
24.7
20.72
15.39
9.03
2.11
-4.93
-11.86
-18.82
-26.26
-34.84
-45.0
-56.54
-68.25
-77.99
-83.12
-81.39
-71.8
-55.03
-33.22
-9.36
13.55
33.26
48.49
58.89
64.77
66.8
65.71
62.15
56.67
49.67
41.59
32.95
24.46
16.94
11.12
7.34
5.47
4.88
4.73
4.22
2.81
0.33
-3.08
-7.19
-11.74
-16.6
-21.73
-27.2
-33.2
-40.04
-48.14
-57.75
-68.7
-79.99
-89.89
-96.12
-96.6
-90.1
-76.72
-57.9
-36.03
-13.74
6.74
23.9
37.04
46.03
51.06
52.53
50.92
46.82
40.93
33.98
26.72
19.81
13.77
8.97
5.6
3.66
2.91
2.87
2.91
2.38
0.8
-2.04
-6.04
-10.84
-16.09
-21.49
-26.9
-32.38
-38.16
-44.6
-52.16
-61.23
-71.78
-83.09
-93.52
-100.75
-102.37
-96.7
-83.39
-63.63
-39.88
-15.04
8.22
28.07
43.65
54.89
62.17
66.01
66.93
65.39
61.86
56.84
50.86
44.45
38.03
31.99
26.6
22.13
18.85
16.89
16.19
16.35
16.68
16.33
14.59
11.03
5.74
-0.76
-7.78
-14.69
-21.18
-27.35
-33.72
-41.03
-50.07
-61.24
-74.16
-87.39
-98.6
-105.04
-104.31
-95.31
-78.56
-56.11
-30.88
-5.76
17.06
36.36
51.72
63.14
70.75
74.64
75.04
72.37
67.36
60.94
54.09
47.6
41.93
37.2
33.31
30.1
27.51
25.6
24.48
24.15
24.38
24.62
24.14
22.25
18.56
13.06
6.2
-1.36
-8.92
-16.05
-22.67
-29.07
-35.84
-43.62
-52.96
-63.95
-75.95
-87.37
-95.88
-98.93
-94.47
-81.73
-61.56
-36.29
-8.98
17.38
40.51
59.23
73.25
82.82
88.41
90.49
89.52
86.02
80.64
74.16
67.35
60.91
55.34
50.87
47.54
45.24
43.77
42.98
42.69
42.74
42.89
42.83
42.12
40.28
36.92
31.89
25.39
17.94
10.24
2.9
-3.81
-10.08
-16.53
-23.98
-33.19
-44.43
-57.3
-70.56
-82.22
-89.89
-91.37
-85.32
-71.69
-51.86
-28.24
-3.68
19.27
38.76
53.88
64.41
70.61
72.94
71.97
68.31
62.67
55.78
48.34
40.89
33.87
27.57
22.2
17.88
14.72
12.71
11.67
11.19
10.62
9.22
6.44
2.06
-3.63
-9.98
-16.2
-21.77
-26.71
-31.58
-37.29
-44.67
-54.14
-65.46
-77.57
-88.76
-96.98
-100.26
-97.23
-87.48
-71.73
-51.62
-29.29
-6.97
13.46
30.62
43.64
52.06
55.93
55.69
52.23
46.75
40.38
33.95
27.92
22.33
17.08
12.2
7.89
4.54
2.49
1.83
2.22
2.9
2.96
1.54
-1.77
-6.83
-13.01
-19.45
-25.43
-30.64
-35.39
-40.48
-46.92
-55.48
-66.37
-78.98
-91.76
-102.49
-108.71
-108.32
-100.24
-84.69
-63.24
-38.36
-12.79
11.1
31.66
48.07
60.07
67.82
71.71
72.31
70.33
66.49
61.38
55.4
48.81
41.89
34.98
28.63
23.41
19.77
17.83
17.27
17.42
17.45
16.59
14.33
10.54
5.43
-0.52
-6.76
-12.9
-18.85
-24.92
-31.7
-39.91
-50.07
-62.16
-75.24
-87.47
-96.36
-99.42
-94.94
-82.54
-63.39
-39.87
-14.84
9.11
30.15
47.39
60.56
69.72
74.98
76.45
74.43
69.57
62.85
55.41
48.21
41.77
36.11
30.97
26.17
21.84
18.47
16.57
16.34
17.44
18.96
19.75
18.79
15.59
10.31
3.7
-3.31
-9.87
-15.6
-20.63
-25.59
-31.43
-38.98
-48.75
-60.46
-72.91
-84.01
-91.18
-91.99
-84.92
-69.93
-48.53
-23.34
2.66
26.91
47.78
64.58
77.24
86.0
91.07
92.64
90.97
86.52
80.03
72.45
64.69
57.53
51.48
46.72
43.26
41.0
39.82
39.56
39.98
40.66
40.99
40.3
38.02
33.91
28.1
21.11
13.54
6.01
-1.21
-8.22
-15.48
-23.63
-33.27
-44.58
-57.07
-69.41
-79.51
-84.94
-83.62
-74.53
-58.16
-36.43
-12.21
11.47
32.18
48.52
60.04
67.02
69.99
69.52
66.13
60.34
52.76
44.04
34.85
25.85
17.61
10.68
5.43
2.08
0.5
0.2
0.33
-0.11
-1.9
-5.37
-10.26
-15.86
-21.41
-26.47
-31.13
-35.93
-41.65
-48.95
-58.03
-68.57
-79.61
-89.69
-97.03
-99.77
-96.46
-86.48
-70.34
-49.67
-26.83
-4.3
15.81
32.15
44.14
51.73
55.25
55.21
52.27
47.11
40.5
33.1
25.53
18.29
11.85
6.59
2.8
0.54
-0.42
-0.64
-0.8
-1.61
-3.54
-6.79
-11.27
-16.67
-22.59
-28.68
-34.71
-40.74
-47.13
-54.54
-63.58
-74.43
-86.42
-97.84
-106.23
-109.02
-104.34
-91.71
-72.2
-48.09
-22.3
2.41
23.98
41.23
53.85
62.09
66.55
67.85
66.55
63.08
57.78
51.04
43.29
35.09
27.08
19.89
14.06
9.97
7.68
6.92
7.09
7.3
6.73
4.84
1.52
-2.9
-7.88
-13.01
-18.17
-23.62
-29.93
-37.64
-47.17
-58.49
-70.99
-83.33
-93.51
-99.2
-98.3
-89.62
-73.37
-51.2
-25.76
0.05
23.69
43.47
58.61
68.99
74.9
76.9
75.64
71.92
66.55
60.27
53.63
47.0
40.56
34.48
29.01
24.47
21.26
19.69
19.71
20.85
22.28
22.98
22.12
19.33
14.84
9.33
3.58
-1.78
-6.66
-11.45
-16.9
-23.86
-32.91
-44.04
-56.38
-68.1
-76.75
-79.75
-75.19
-62.53
-42.83
-18.54
7.26
31.77
53.06
70.3
83.41
92.67
98.27
100.29
98.85
94.38
87.74
79.99
72.12
64.79
58.15
52.11
46.63
41.87
38.28
36.25
35.82
36.44
37.06
36.43
33.67
28.54
21.52
13.61
5.8
-1.27
-7.55
-13.53
-20.03
-27.88
-37.61
-49.26
-62.15
-74.83
-85.25
-91.14
-90.53
-82.51
-67.46
-47.07
-23.87
-0.56
20.56
37.91
50.7
58.78
62.42
62.18
58.83
53.23
46.23
38.51
30.56
22.77
15.51
9.19
4.23
0.95
-0.67
-1.04
-0.91
-1.17
-2.49
-5.2
-9.14
-13.82
-18.67
-23.34
-27.8
-32.38
-37.64
-44.19
-52.43
-62.32
-73.15
-83.5
-91.4
-94.7
-91.75
-81.89
-65.78
-45.22
-22.71
-0.77
18.58
34.06
45.17
51.93
54.73
54.12
50.76
45.37
38.74
31.6
24.57
18.12
12.53
7.93
4.38
1.88
0.39
-0.27
-0.46
-0.74
-1.72
-3.92
-7.55
-12.52
-18.44
-24.84
-31.3
-37.65
-44.03
-50.91
-58.94
-68.56
-79.6
-90.94
-100.45
-105.54
-103.91
-94.4
-77.42
-54.89
-29.6
-4.44
18.26
37.09
51.48
61.51
67.65
70.5
70.66
68.65
64.89
59.66
53.23
45.9
38.09
30.38
23.39
17.71
13.73
11.48
10.62
10.46
10.15
8.94
6.41
2.51
-2.42
-7.87
-13.43
-18.96
-24.68
-31.17
-39.13
-49.04
-60.84
-73.55
-85.3
-93.61
-96.05
-90.96
-78.15
-58.89
-35.64
-11.21
11.92
32.16
48.77
61.54
70.4
75.28
76.19
73.51
68.08
61.17
54.05
47.62
42.15
37.36
32.76
28.11
23.68
20.17
18.37
18.66
20.62
23.11
24.65
23.99
20.64
15.0
8.11
1.18
-4.98
-10.2
-14.93
-20.0
-26.34
-34.6
-44.98
-56.94
-69.1
-79.35
-85.25
-84.71
-76.6
