65.6
64.63
61.04
55.61
49.18
42.45
35.93
29.99
24.84
20.67
17.56
15.59
14.69
14.69
15.22
15.73
15.57
14.11
11.04
6.37
0.62
-5.47
-11.16
-16.06
-20.34
-24.64
-29.87
-36.82
-45.81
-56.43
-67.39
-76.78
-82.39
-82.33
-75.6
-62.4
-44.17
-23.18
-1.85
17.83
34.55
47.67
56.9
62.17
63.49
61.18
56.0
49.05
41.61
34.69
28.78
23.82
19.38
15.09
10.91
7.24
4.6
3.39
3.46
4.15
4.38
3.15
-0.15
-5.44
-12.05
-19.02
-25.54
-31.24
-36.34
-41.57
-47.93
-56.26
-66.84
-79.03
-91.15
-100.69
-104.95
-101.86
-90.69
-72.39
-49.24
-24.2
0.01
21.43
39.16
53.0
63.13
69.75
72.99
73.01
70.21
65.27
59.1
52.63
46.58
41.27
36.67
32.58
28.83
25.44
22.62
20.57
19.33
18.62
17.85
16.31
13.4
8.88
2.88
-4.13
-11.46
-18.53
-24.93
-30.69
-36.26
-42.46
-50.23
-60.2
-72.23
-85.02
-96.24
-103.02
-102.81
-94.29
-77.85
-55.5
-30.2
-4.94
17.93
37.06
52.05
63.04
70.37
74.4
75.44
73.85
70.08
64.72
58.39
51.79
45.45
39.7
34.73
30.55
27.2
24.73
23.19
22.48
22.29
22.04
20.97
18.43
14.12
8.18
1.16
-6.2
-13.33
-19.87
-25.91
-31.82
-38.22
-45.77
-54.96
-65.74
-77.27
-87.79
-94.88
-96.09
-89.71
-75.49
-54.77
-30.22
-4.96
18.25
37.58
52.35
62.79
69.54
73.28
74.47
73.42
70.36
65.63
59.71
53.2
46.75
40.89
36.05
32.41
29.99
28.63
27.97
27.59
27.08
26.17
24.74
22.79
20.27
17.05
12.92
7.66
1.29
-5.86
-13.24
-20.22
-26.41
-31.81
-36.95
-42.73
-50.1
-59.69
-71.32
-83.81
-94.94
-101.91
-102.18
-94.25
-78.28
-56.05
-30.46
-4.66
18.81
38.41
53.64
64.63
71.72
75.25
75.51
72.88
67.96
61.61
54.73
48.16
42.43
37.78
34.16
31.39
29.32
27.83
26.85
26.22
25.74
25.11
24.09
22.42
19.91
16.46
11.97
6.45
0.09
-6.73
-13.54
-19.88
-25.55
-30.7
-35.82
-41.67
-49.02
-58.31
-69.28
-80.76
-90.62
-96.25
-95.34
-86.67
-70.66
-49.33
-25.62
-2.47
17.98
34.7
47.6
56.93
62.9
65.48
64.62
60.56
54.05
46.3
38.59
31.95
26.8
22.97
19.98
17.4
15.08
13.21
12.08
11.78
11.97
11.95
10.82
7.93
3.11
-3.23
-10.21
-16.91
-22.71
-27.57
-32.03
-37.08
-43.67
-52.39
-63.05
-74.5
-84.78
-91.53
-92.53
-86.38
-72.99
-53.6
-30.56
-6.6
15.77
34.82
49.73
60.43
67.26
70.65
70.96
68.56
63.94
57.82
51.02
44.38
38.45
33.46
29.37
26.0
23.26
21.14
19.72
18.95
18.56
18.11
17.05
14.94
11.51
6.73
0.79
-5.98
-13.18
-20.41
-27.32
-33.76
-39.81
-45.85
-52.56
-60.66
-70.66
-82.36
-94.55
-105.01
-110.96
-109.93
-100.58
-83.26
-59.96
-33.65
-7.46
16.19
35.91
51.29
62.58
70.21
74.58
76.01
74.83
71.43
66.41
60.36
53.9
47.53
41.58
36.25
31.69
28.01
25.32
23.62
22.77
22.44
22.19
21.53
20.01
17.31
13.28
7.96
1.59
-5.41
-12.56
-19.42
-25.74
-31.63
-37.6
-44.48
-53.08
-63.79
-76.18
-88.73
-99.05
-104.41
-102.56
-92.48
-74.73
-51.29
-25.05
1.06
24.64
44.22
59.2
69.7
76.15
79.21
79.49
77.57
73.95
69.07
63.33
57.15
50.98
45.26
40.39
36.64
34.09
32.6
31.87
31.5
31.11
30.39
29.15
27.27
24.64
21.17
16.8
11.54
5.53
-1.05
-7.9
-14.81
-21.58
-28.11
-34.43
-40.77
-47.65
-55.72
-65.52
-76.96
-88.89
-99.03
-104.53
-102.81
-92.63
-74.62
-51.14
-25.47
-0.73
20.94
38.65
52.4
62.55
69.34
72.8
72.93
69.98
64.64
57.95
51.0
44.64
39.24
34.78
30.96
27.52
24.36
21.63
19.65
18.69
18.78
19.52
20.17
19.8
17.61
13.26
7.01
-0.36
-7.84
-14.63
-20.39
-25.37
-30.24
-35.87
-43.01
-52.11
-63.03
-74.92
-86.12
-94.43
-97.6
-94.06
-83.51
-67.12
-47.25
-26.61
-7.53
8.65
21.56
31.44
38.62
43.24
45.25
44.72
42.2
38.74
35.85
34.94
36.95
42.05
49.53
58.1
66.29
72.83
77.02
78.84
78.76
77.35
75.0
71.59
66.68
59.69
50.38
39.11
26.81
14.62
3.42
-6.61
-16.24
-27.01
-40.86
-59.42
-83.45
-112.21
-143.37
-173.27
-197.53
-212.16
-214.54
-204.3
-183.54
-156.26
-127.13
-100.03
-76.96
-57.9
-41.56
-26.49
-12.14
0.94
11.69
19.39
24.4
27.94
31.38
35.35
39.38
42.22
42.78
40.86
37.39
34.07
32.51
33.58
37.1
42.11
47.38
51.87
54.91
56.27
56.0
54.28
51.38
47.58
43.27
38.93
35.21
32.86
32.62
34.96
39.86
46.8
54.82
62.86
69.93
75.2
77.99
77.59
73.43
65.17
52.98
37.56
19.86
0.79
-19.15
-39.77
-60.97
-82.38
-103.15
-122.05
-137.82
-149.52
-156.64
-158.99
-156.54
-149.31
-137.54
-121.95
-103.93
-85.4
-68.36
-54.31
-43.9
-36.81
-32.05
-28.3
-24.1
-18.12
-9.23
3.27
19.37
38.28
58.53
78.39
96.37
111.72
124.33
134.59
142.9
149.42
154.0
156.34
156.24
153.74
149.25
143.36
136.72
129.85
123.05
116.4
109.71
102.6
94.52
84.98
73.58
60.25
45.28
29.33
13.31
-1.99
-16.14
-29.3
-42.09
-55.21
-68.88
-82.41
-94.22
-102.35
-105.29
-102.64
-95.31
-85.14
-74.02
-63.17
-52.92
-42.95
-32.81
-22.55
-12.7
-4.09
2.57
7.07
9.7
11.04
11.65
11.86
11.71
11.12
10.05
8.58
7.02
5.79
5.2
5.3
5.78
6.1
5.66
4.09
1.28
-2.43
-6.55
-10.62
-14.43
-18.26
-22.68
-28.38
-35.68
-44.13
-52.34
-58.24
-59.78
-55.65
-45.91
-31.93
-15.87
0.13
14.61
27.03
37.51
46.43
54.06
60.34
65.08
68.08
69.25
68.63
66.33
62.52
57.48
51.66
45.6
39.87
34.94
31.01
27.98
25.51
23.1
20.33
16.89
12.58
7.33
1.06
-6.24
-14.5
-23.4
-32.47
-41.12
-48.93
-55.91
-62.51
-69.46
-77.32
-86.02
-94.58
-101.25
-104.11
-101.62
-93.31
-79.89
-62.96
-44.46
-26.04
-8.76
6.96
21.02
33.4
43.92
52.3
58.3
61.93
63.44
63.23
61.73
59.26
56.12
52.51
48.75
45.16
42.04
39.55
37.61
35.98
34.31
32.31
29.79
26.72
23.18
19.28
15.13
10.71
6.04
1.07
-4.18
-9.59
-15.01
-20.32
-25.57
-31.04
-37.16
-44.24
-52.15
-60.04
-66.43
-69.62
-68.27
-62.02
-51.58
-38.47
-24.43
-10.88
1.44
12.38
22.01
30.35
37.2
42.25
45.28
46.26
45.38
43.0
39.55
35.49
31.34
27.54
24.4
21.96
20.0
18.12
16.07
13.83
11.7
10.08
9.23
8.96
8.71
7.7
5.41
1.77
-2.81
-7.64
-12.06
-15.7
-18.64
-21.29
-24.23
-28.0
-32.95
-39.06
-45.88
-52.56
-57.93
-60.9
-60.66
-56.96
-50.15
-40.99
-30.4
-19.27
-8.29
2.03
11.33
19.27
25.54
29.97
32.5
33.25
32.5
30.62
27.94
24.78
21.35
17.82
14.39
11.33
8.9
7.31
6.53
6.32
6.24
5.85
4.87
3.32
1.49
-0.4
-2.24
-4.22
-6.64
-9.68
-13.22
-16.88
-20.21
-22.94
-25.17
-27.3
-29.86
-33.22
-37.5
-42.51
-47.88
-53.16
-57.67
-60.62
-61.17
-58.72
-53.17
-44.97
-35.05
-24.42
-13.96
-4.12
4.96
13.23
20.58
26.71
31.18
33.63
34.04
32.64
30.02
26.86
23.76
21.05
18.72
16.55
14.27
11.86
9.52
7.67
6.6
6.36
6.57
6.59
5.87
4.11
1.49
-1.49
-4.3
-6.63
-8.53
-10.31
-12.35
-14.88
-17.94
-21.37
-24.94
-28.45
-31.8
-35.04
-38.33
-42.0
-46.34
-51.39
-56.72
-61.32
-63.81
-62.99
-58.26
-49.91
-39.02
-27.0
-15.15
-4.34
4.96
12.67
18.83
23.55
26.97
29.27
30.55
30.77
29.79
27.42
23.75
19.23
14.58
10.69
8.2
7.29
7.68
8.67
9.49
9.58
8.79
7.34
5.73
4.38
3.48
2.77
1.77
-0.14
-3.27
-7.52
-12.36
-17.07
-21.13
-24.35
-27.04
-29.77
-33.13
-37.41
-42.52
-48.16
-53.95
-59.66
-65.03
-69.68
-72.93
-73.94
-71.89
-66.37
-57.53
-46.0
-32.74
-18.78
-5.04
7.62
18.45
26.91
32.72
36.06
37.54
37.85
37.58
36.9
35.61
33.32
29.8
25.28
20.45
16.27
13.52
12.51
12.88
13.83
14.45
14.09
12.61
10.32
7.78
5.43
3.38
1.35
-1.1
-4.39
-8.62
-13.57
-18.75
-23.62
-27.91
-31.77
-35.78
-40.68
-47.06
-54.87
-63.25
-70.69
-75.35
-75.76
-71.23
-62.13
-49.59
-35.16
-20.18
-5.61
7.97
20.26
30.93
39.69
46.26
50.55
52.65
52.8
51.31
48.41
44.49
39.98
35.51
31.64
28.77
26.98
25.95
25.18
24.19
22.71
20.81
18.82
17.09
15.8
14.82
13.68
11.8
8.73
4.35
-1.01
-6.75
-12.2
-17.01
-21.19
-25.2
-29.65
-35.12
-41.97
-50.21
-59.4
-68.64
-76.64
-81.9
-83.13
-79.55
-71.18
-58.78
-43.54
-26.72
-9.38
7.72
23.88
38.38
50.46
59.48
65.13
67.59
67.45
65.48
62.39
58.63
54.42
49.93
45.32
40.83
36.77
33.38
30.76
28.91
27.64
26.69
25.87
24.92
23.62
21.8
19.3
16.1
12.31
8.09
3.53
-1.3
-6.44
-11.95
-17.76
-23.76
-29.83
-36.0
-42.55
-49.91
-58.28
-67.3
-75.84
-82.02
-83.93
-80.11
-70.26
-55.28
-37.03
-17.55
1.41
18.8
34.22
47.43
58.27
66.32
71.22
72.83
71.5
68.04
63.46
58.67
54.17
50.0
45.98
41.96
37.98
34.37
31.6
29.93
29.31
29.28
29.12
28.21
26.21
23.15
19.35
15.22
11.08
6.95
2.62
-2.21
-7.71
-13.79
-20.1
-26.24
-31.98
-37.58
-43.7
-51.04
-59.77
-69.13
-77.31
-82.01
-81.21
-74.02
-60.89
-43.48
-23.96
-4.32
14.04
30.36
44.31
55.65
64.18
69.77
72.52
72.75
70.97
67.75
63.49
58.51
53.03
47.36
41.95
37.33
34.03
32.24
31.75
31.87
31.77
30.73
28.59
25.64
22.5
19.74
17.46
15.25
12.38
8.19
2.47
-4.36
-11.51
-18.09
-23.52
-27.82
-31.56
-35.61
-40.87
-47.89
-56.61
-66.24
-75.38
-82.19
-84.94
-82.39
-74.21
-61.09
-44.52
-26.27
-7.89
9.5
25.33
39.27
51.03
60.13
66.09
68.61
67.87
64.58
59.7
54.28
49.05
44.36
40.25
36.55
33.09
29.78
26.73
24.13
22.24
21.14
20.79
20.83
20.7
19.77
17.56
13.98
9.38
4.37
-0.41
-4.6
-8.29
-11.93
-16.1
-21.24
-27.37
-34.17
-41.25
-48.32
-55.31
-62.2
-68.7
-74.0
-76.83
-75.76
-69.79
-58.69
-43.2
-24.85
-5.53
12.9
28.96
41.72
50.84
56.53
59.35
60.01
59.09
56.98
53.8
49.65
44.62
39.06
33.47
28.48
24.65
22.24
21.23
21.21
21.62
21.8
21.32
19.97
17.82
15.07
11.87
8.28
4.28
-0.14
-4.94
-9.95
-14.98
-19.92
-24.69
-29.38
-34.2
-39.51
-45.67
-52.9
-60.9
-68.7
-74.76
-77.28
-74.82
-66.81
-53.8
-37.24
-19.07
-1.09
15.3
29.26
40.43
48.67
54.14
57.02
57.63
56.32
53.51
49.61
45.05
40.3
35.78
31.87
28.84
26.74
25.52
24.96
24.78
24.65
24.25
23.31
21.72
19.6
17.14
14.52
11.78
8.76
5.07
0.49
-5.07
-11.25
-17.5
-23.27
-28.28
-32.66
-36.84
-41.48
-47.09
-53.99
-61.99
-70.36
-77.75
-82.52
-82.96
-77.94
-67.29
-51.95
-33.74
-14.89
2.67
17.75
29.82
39.02
45.7
50.19
52.69
53.19
51.67
48.22
43.21
37.32
31.37
26.19
22.36
20.05
19.01
18.74
18.65
18.3
17.5
16.26
14.81
13.38
12.11
10.87
9.31
6.94
3.4
-1.32
-6.78
-12.3
-17.29
-21.5
-25.19
-28.96
-33.57
-39.61
-47.19
-55.84
-64.37
-71.13
-74.26
-72.38
-64.97
-52.72
-37.24
-20.63
-4.69
9.52
21.67
31.97
40.67
47.73
52.82
55.46
55.31
52.4
47.3
41.02
34.74
29.48
25.86
23.89
23.08
22.67
21.91
20.49
18.54
16.5
14.88
13.91
13.36
12.63
10.96
7.75
2.93
-3.05
-9.36
-15.17
-19.98
-23.83
-27.28
-31.08
-35.95
-42.24
-49.88
-58.42
-67.19
-75.35
-81.93
-85.88
-86.1
-81.81
-72.71
-59.28
-42.59
-24.13
-5.5
11.93
27.15
39.52
48.68
54.67
57.78
58.56
57.76
55.94
53.5
50.53
47.04
43.0
38.63
34.31
30.59
28.0
26.84
27.07
28.27
29.7
30.52
30.08
28.13
24.86
20.91
16.97
13.51
10.54
7.66
4.22
-0.27
-5.96
-12.66
-19.85
-26.99
-33.65
-39.65
-45.15
-50.68
-56.95
-64.61
-73.72
-83.45
-91.97
-96.87
-96.05
-88.5
-74.78
-56.76
-36.91
-17.45
0.31
15.85
29.25
40.68
50.03
57.04
61.47
63.35
63.01
61.02
57.93
54.17
50.08
45.85
41.72
37.99
35.03
33.14
32.49
32.95
34.14
35.42
36.11
35.56
33.44
29.85
25.32
20.62
16.44
13.07
10.17
7.04
2.91
-2.62
-9.34
-16.51
-23.2
-28.77
-33.12
-36.74
-40.44
-44.96
-50.75
-57.87
-66.04
-74.7
-83.03
-89.91
-93.97
-93.9
-88.68
-78.03
-62.57
-43.7
-23.22
-2.98
15.53
31.26
43.63
52.39
57.72
60.19
60.59
59.78
58.45
56.96
55.28
53.15
50.3
46.71
42.76
39.14
36.56
35.49
35.89
37.17
38.46
38.97
38.22
36.32
33.74
30.98
28.37
25.88
23.23
20.11
16.34
11.93
7.07
2.02
-2.99
-7.79
-12.35
-16.67
-20.89
-25.19
-29.73
-34.58
-39.64
-44.72
-49.7
-54.66
-59.96
-66.13
-73.45
-81.64
-89.54
-95.24
-96.59
-91.89
-80.65
-63.69
-43.06
-21.3
-0.82
16.74
30.73
41.33
49.19
55.0
59.21
61.94
63.05
62.31
59.72
55.58
50.53
45.38
40.86
37.41
35.14
33.88
33.29
33.07
32.94
32.7
32.24
31.44
30.22
28.49
26.23
23.42
20.08
16.27
12.08
7.66
3.11
-1.56
-6.43
-11.58
-17.03
-22.65
-28.23
-33.59
-38.66
-43.66
-48.96
-55.05
-62.28
-70.55
-79.1
-86.52
-90.98
-90.79
-84.95
-73.45
-57.37
-38.5
-18.86
-0.12
16.56
30.59
41.76
50.03
55.54
58.56
59.48
58.76
56.89
54.25
51.03
47.36
43.21
38.73
34.21
30.14
27.02
25.25
24.86
25.45
26.33
26.68
25.94
23.91
20.87
17.28
13.59
9.97
6.24
2.07
-2.83
-8.49
-14.54
-20.44
-25.7
-30.19
-34.21
-38.33
-43.18
-49.23
-56.66
-65.22
-74.2
-82.34
-87.98
-89.35
-85.08
-74.77
-59.29
-40.58
-21.05
-2.83
12.8
25.54
35.76
43.94
50.34
54.84
57.09
56.87
54.31
49.92
44.53
39.01
34.02
29.88
26.54
23.8
21.39
19.26
17.47
16.23
15.62
15.55
15.7
15.53
14.45
11.93
7.84
2.44
-3.6
-9.46
-14.42
-18.21
-21.19
-24.19
-28.28
-34.27
-42.36
-51.95
-61.69
-69.77
-74.42
-74.4
-69.32
-59.74
-46.89
-32.28
-17.25
-2.71
10.79
22.85
33.02
40.77
45.6
47.32
46.24
43.15
39.09
34.91
31.12
27.71
24.38
20.82
16.93
13.06
9.82
7.82
7.28
7.86
8.69
8.7
7.14
3.78
-0.87
-5.94
-10.55
-14.3
-17.32
-20.24
-23.95
-29.19
-36.32
-45.01
-54.21
-62.22
-67.11
-67.26
-61.82
-51.11
-36.47
-19.84
-3.22
11.81
24.35
34.06
41.05
45.6
48.08
48.79
47.93
45.63
41.92
36.98
31.14
24.98
19.2
14.41
10.98
8.91
7.9
7.4
6.86
5.8
3.94
1.2
-2.31
-6.34
-10.62
-15.03
-19.58
-24.44
-29.82
-35.86
-42.67
-50.23
-58.32
-66.46
-73.69
-78.65
-79.86
-76.12
-67.0
-53.07
-35.77
-17.04
1.2
17.37
30.43
39.93
45.92
48.94
49.82
49.51
48.75
47.82
46.54
44.39
40.95
36.22
30.75
25.48
21.34
18.86
17.98
18.07
18.22
17.6
15.67
12.36
7.98
3.06
-1.93
-6.69
-11.2
-15.75
-20.79
-26.88
-34.37
-43.25
-53.01
-62.52
-70.24
-74.45
-73.83
-67.85
-56.96
-42.48
-26.11
-9.45
6.32
20.54
32.9
43.21
51.3
56.97
60.17
61.03
59.95
57.48
54.19
50.63
47.14
43.9
40.92
38.12
35.4
32.75
30.32
28.27
26.71
25.52
24.4
22.87
20.43
16.79
11.88
5.97
-0.38
-6.62
-12.34
-17.38
-21.95
-26.54
-31.74
-38.18
-46.11
-55.28
-64.73
-72.85
-77.66
-77.45
-71.32
-59.66
-44.0
-26.53
-9.34
6.21
19.64
31.1
40.91
49.23
55.85
60.41
62.6
62.4
60.12
56.34
51.77
47.11
42.96
39.67
37.25
35.42
33.74
31.89
29.82
27.73
25.91
24.53
23.39
21.98
19.7
16.14
11.31
5.73
0.12
-4.89
-9.07
-12.71
-16.48
-21.22
-27.56
-35.69
-45.24
-55.2
-64.17
-70.58
-73.02
-70.66
-63.41
-51.99
-37.75
-22.26
-6.94
7.17
19.52
29.91
38.29
44.62
48.75
50.53
49.98
47.38
43.32
38.62
34.12
30.41
27.66
25.69
24.06
22.43
20.66
18.95
17.6
16.82
16.53
16.34
15.68
14.01
11.0
6.64
1.35
-4.24
-9.45
-13.83
-17.32
-20.39
-23.96
-29.04
-36.29
-45.47
-55.31
-63.71
-68.37
-67.55
-60.83
-49.23
-34.76
-19.72
-5.82
6.22
16.57
25.8
34.24
41.71
47.47
50.7
50.85
48.08
43.24
37.57
32.35
28.41
26.01
24.82
24.21
23.53
22.39
20.83
19.2
17.94
17.27
17.11
16.97
16.13
13.94
10.07
4.68
-1.61
-7.91
-13.53
-18.14
-21.9
-25.34
-29.06
-33.49
-38.83
-45.11
-52.22
-60.02
-68.07
-75.41
-80.63
-82.11
-78.64
-69.96
-56.89
-41.1
-24.47
-8.6
5.59
17.77
27.93
36.09
42.21
46.23
48.27
48.64
47.8
46.22
44.22
41.93
39.29
36.26
32.88
29.39
26.16
23.62
22.0
21.23
20.99
20.7
19.83
17.93
14.8
10.58
5.64
0.51
-4.32
-8.62
-12.5
-16.38
-20.74
-25.88
-31.69
-37.87
-44.09
-50.28
-56.54
-62.78
-68.38
-72.09
-72.36
-68.01
-58.82
-45.72
-30.52
-15.16
-1.15
10.82
20.7
28.77
35.28
40.27
43.68
45.48
45.77
44.78
42.83
40.21
37.18
34.03
31.07
28.67
27.11
26.52
26.65
27.09
27.23
26.6
24.98
22.5
19.57
16.62
13.91
11.38
8.75
5.58
1.53
-3.46
-9.16
-15.1
-20.71
-25.63
-29.8
-33.52
-37.48
-42.44
-48.94
-57.02
-65.94
-74.18
-79.85
-81.21
-77.32
-68.33
-55.47
-40.52
-25.35
-11.22
1.3
12.15
21.43
29.07
34.88
38.57
40.12
39.82
38.22
35.96
33.54
31.17
28.83
26.47
24.12
21.91
20.06
18.66
17.67
16.88
16.03
14.87
13.32
11.34
8.9
6.01
2.64
-1.2
-5.4
-9.79
-14.25
-18.69
-23.17
-27.81
-32.81
-38.42
-44.76
-51.67
-58.47
-63.99
-66.67
-65.12
-58.6
-47.49
-33.25
-17.93
-3.57
8.54
18.03
25.26
30.92
35.43
38.81
40.69
40.68
38.69
35.11
30.67
26.27
22.58
19.86
17.97
16.55
15.21
13.76
12.18
10.59
9.15
7.8
6.3
4.32
1.54
-2.16
-6.66
-11.64
-16.8
-21.87
-26.81
-31.78
-37.07
-43.06
-49.99
-57.76
-65.71
-72.67
-77.0
-77.15
-72.16
-62.02
-47.8
-31.28
-14.44
1.03
14.08
24.42
32.28
38.19
42.69
46.05
48.32
49.34
48.93
47.04
43.88
39.88
35.65
31.79
28.78
26.86
25.98
25.79
25.74
25.26
23.93
21.64
18.62
15.19
