-9.93
-19.2
-28.52
-37.06
-44.34
-50.51
-56.49
-63.63
-73.26
-85.99
-101.01
-115.98
-127.42
-131.76
-126.62
-111.71
-88.88
-61.46
-33.06
-6.55
16.47
35.47
50.55
61.95
69.81
74.2
75.39
73.91
70.46
65.79
60.48
54.96
49.45
44.09
39.02
34.51
30.87
28.32
26.94
26.45
26.33
25.92
24.59
21.87
17.61
12.01
5.46
-1.57
-8.71
-15.75
-22.66
-29.45
-36.27
-43.39
-51.27
-60.53
-71.52
-83.88
-96.17
-105.82
-109.8
-105.7
-92.72
-72.06
-46.58
-19.85
4.95
25.72
41.75
53.26
60.92
65.38
67.07
66.3
63.37
58.71
52.94
46.7
40.6
35.07
30.31
26.34
23.18
20.87
19.46
18.82
18.41
17.39
14.79
10.09
3.36
-4.56
-12.47
-19.32
-24.75
-29.18
-33.7
-39.51
-47.54
-58.13
-70.89
-84.61
-97.32
-106.61
-110.05
-105.96
-93.89
-74.88
-51.08
-25.28
0.01
22.84
42.08
57.18
67.99
74.64
77.48
77.2
74.67
70.77
66.2
61.37
56.34
50.97
45.07
38.68
32.2
26.4
22.09
19.88
19.67
20.6
21.23
19.96
15.69
8.33
-1.16
-11.2
-20.17
-27.14
-32.2
-36.46
-41.54
-49.03
-59.87
-73.99
-90.16
-106.09
-118.91
-125.79
-124.73
-115.09
-97.83
-75.05
-49.4
-23.28
1.56
24.1
43.76
60.03
72.43
80.54
84.36
84.47
81.97
78.14
74.02
70.1
66.33
62.26
57.42
51.76
45.74
40.3
36.36
34.46
34.38
35.17
35.38
33.55
28.87
21.36
11.9
1.94
-7.24
-14.85
-20.96
-26.38
-32.26
-39.61
-48.99
-60.47
-73.57
-87.53
-101.06
-112.41
-119.42
-120.05
-112.9
-97.87
-76.25
-50.39
-23.13
3.12
26.66
46.56
62.37
73.97
81.41
85.08
85.79
84.47
82.12
79.28
76.04
72.13
67.27
61.51
55.38
49.82
45.75
43.7
43.45
44.11
44.32
42.91
39.25
33.49
26.43
18.96
11.73
4.86
-1.93
-9.07
-16.84
-25.19
-33.91
-42.76
-51.83
-61.55
-72.51
-84.92
-98.18
-110.44
-119.05
-121.09
-114.45
-98.69
-75.35
-47.53
-18.91
7.21
28.79
45.14
56.7
64.54
69.65
72.74
73.99
73.3
70.49
65.73
59.64
53.22
47.65
43.76
41.79
41.3
41.43
41.26
40.24
38.28
35.61
32.61
29.45
26.08
22.1
17.07
10.71
3.09
-5.28
-13.7
-21.41
-28.0
-33.54
-38.65
-44.27
-51.43
-60.88
-72.66
-85.87
-98.54
-107.96
-111.26
-106.41
-92.95
-72.27
-47.16
-20.94
3.51
24.44
41.22
54.06
63.46
69.73
72.96
73.18
70.54
65.52
59.01
52.01
45.54
40.31
36.47
33.75
31.66
29.82
28.08
26.65
25.57
24.76
23.72
21.73
18.09
12.54
5.38
-2.67
-10.72
-18.23
-25.03
-31.43
-37.89
-44.86
-52.58
-61.29
-71.25
-82.72
-95.59
-108.9
-120.53
-127.49
-126.81
-116.69
-97.28
-70.88
-41.13
-11.92
13.72
34.29
49.77
61.08
69.39
75.6
80.05
82.66
83.05
80.92
76.32
69.86
62.55
55.58
49.92
46.02
43.74
42.48
41.52
40.28
38.52
36.19
33.5
30.51
27.16
23.23
18.41
12.42
5.13
-3.31
-12.49
-21.72
-30.38
-38.05
-44.73
-51.1
-58.35
-67.82
-80.3
-95.39
-111.05
-123.88
-130.08
-126.73
-113.04
-90.69
-63.2
-34.7
-8.44
14.0
32.6
48.14
61.33
72.24
80.42
85.25
86.49
84.47
80.15
74.7
69.13
64.1
59.75
55.96
52.48
49.2
46.17
43.65
41.82
40.6
39.6
38.19
35.79
32.05
26.98
20.76
13.77
6.3
-1.48
-9.43
-17.51
-25.61
-33.69
-41.82
-50.19
-59.03
-68.56
-78.94
-90.35
-102.93
-116.49
-130.23
-142.46
-150.7
-152.24
-145.12
-128.94
-105.39
-77.75
-49.96
-25.41
-6.16
7.27
15.49
19.65
20.82
19.77
16.81
12.05
5.5
-2.74
-12.37
-22.85
-33.46
-43.37
-51.78
-58.21
-62.45
-64.62
-65.03
-64.04
-61.82
-58.31
-53.22
-46.26
-37.32
-26.78
-15.4
-4.19
5.9
14.3
20.83
25.72
29.32
31.89
33.37
33.47
31.71
27.75
21.77
14.71
8.42
5.31
7.61
16.71
32.43
53.14
76.23
99.08
119.7
137.1
151.12
161.84
169.41
173.76
174.82
172.58
167.27
159.19
148.59
135.61
120.16
102.09
81.31
58.02
32.9
7.17
-17.4
-38.91
-55.61
-66.47
-71.37
-71.1
-67.13
-61.16
-54.79
-49.17
-44.99
-42.47
-41.59
-42.23
-44.39
-48.15
-53.56
-60.46
-68.19
-75.66
-81.4
-84.03
-82.6
-76.89
-67.4
-55.21
-41.61
-27.87
-14.99
-3.73
5.43
12.22
16.54
18.36
17.72
14.72
9.63
3.03
-4.19
-10.96
-16.27
-19.55
-20.83
-20.66
-19.84
-18.92
-18.03
-16.9
-15.12
-12.5
-9.25
-6.01
-3.5
-2.24
-2.28
-3.18
-4.34
-5.34
-6.35
-8.11
-11.57
-17.2
-24.43
-31.59
-36.39
-36.96
-32.58
-23.97
-12.8
-0.88
10.57
20.99
30.23
38.02
43.9
47.38
48.37
47.44
45.57
43.72
42.39
41.62
41.18
40.9
40.77
40.82
40.86
40.37
38.62
34.96
29.18
21.48
12.42
2.69
-7.07
-16.26
-24.31
-30.83
-35.73
-39.36
-42.5
-45.92
-49.87
-53.73
-56.0
-54.93
-49.25
-38.8
-24.61
-8.4
8.21
24.22
39.28
53.44
66.66
78.73
89.38
98.6
106.89
115.04
123.79
133.45
143.74
154.02
163.59
171.85
178.37
182.66
184.07
181.76
174.92
163.16
146.75
126.72
104.61
82.07
60.38
40.18
21.24
2.68
-16.61
-37.48
-59.92
-82.74
-103.67
-119.96
-129.16
-130.0
-122.91
-109.92
-93.91
-77.72
-63.32
-51.33
-41.44
-32.84
-24.92
-17.61
-11.35
-6.82
-4.56
-4.66
-6.56
-9.32
-11.84
-13.34
-13.54
-12.81
-11.99
-11.92
-13.15
-15.62
-18.75
-21.84
-24.37
-26.29
-28.02
-30.19
-33.3
-37.72
-43.52
-50.71
-59.16
-68.5
-77.91
-85.93
-90.73
-90.48
-84.08
-71.54
-54.07
-33.67
-12.58
7.36
24.99
39.86
51.98
61.5
68.59
73.43
76.26
77.39
77.14
75.75
73.22
69.41
64.11
57.4
49.76
42.06
35.32
30.21
26.79
24.43
22.13
18.9
14.23
8.19
1.28
-5.81
-12.62
-19.14
-25.76
-33.27
-42.44
-53.72
-66.82
-80.57
-92.94
-101.56
-104.39
-100.39
-89.84
-74.25
-55.81
-36.78
-18.96
-3.4
9.53
19.98
28.28
34.81
39.79
43.33
45.35
45.71
44.32
41.18
36.58
30.94
24.82
18.77
13.25
8.45
4.33
0.59
-3.18
-7.23
-11.5
-15.57
-18.78
-20.46
-20.3
-18.54
-15.83
-13.14
-11.32
-10.89
-11.94
-14.06
-16.38
-17.73
-16.81
-12.52
-4.4
7.34
21.74
37.45
53.05
67.36
79.63
89.46
96.75
101.61
104.33
105.34
105.2
104.29
102.79
100.62
97.61
93.63
88.78
83.39
78.04
73.39
69.99
68.12
67.64
67.96
68.15
67.13
64.13
58.83
51.54
43.01
34.04
25.16
16.46
7.6
-1.96
-12.62
-24.42
-36.81
-48.57
-58.07
-63.69
-64.24
-59.49
-50.4
-38.8
-26.86
-16.41
-8.32
-2.54
1.56
4.69
7.18
8.86
9.29
7.98
4.69
-0.42
-6.9
-14.04
-21.07
-27.33
-32.42
-36.25
-39.11
-41.4
-43.48
-45.5
-47.21
-48.35
-48.75
-48.57
-48.27
-48.45
-49.58
-51.8
-54.93
-58.51
-61.99
-65.06
-67.59
-69.86
-72.46
-76.13
-81.32
-87.89
-94.64
-99.5
-100.23
-95.17
-83.99
-67.95
-49.45
-31.19
-15.38
-2.98
6.16
13.01
18.67
23.8
28.45
32.01
33.63
32.65
29.09
23.71
17.88
12.98
9.8
8.33
7.84
7.35
6.1
3.9
1.06
-1.86
-4.43
-6.68
-8.9
-11.59
-15.09
-19.5
-24.57
-29.91
-35.05
-39.64
-43.68
-47.5
-51.68
-56.85
-63.29
-70.64
-77.8
-83.04
-84.49
-80.84
-71.8
-58.25
-41.99
-25.1
-9.47
3.78
14.25
22.15
27.94
32.01
34.55
35.62
35.2
33.34
30.27
26.35
22.06
17.8
13.9
10.47
7.49
4.86
2.45
0.26
-1.72
-3.49
-5.12
-6.75
-8.63
-10.99
-13.94
-17.5
-21.43
-25.49
-29.45
-33.2
-36.96
-41.09
-46.11
-52.36
-59.71
-67.3
-73.61
-76.82
-75.34
-68.47
-56.62
-41.25
-24.29
-7.62
7.46
20.25
30.45
38.03
43.03
45.64
46.25
45.4
43.63
41.26
38.38
34.93
30.91
26.52
22.23
18.49
15.56
13.42
11.81
10.4
8.89
7.12
4.95
2.24
-1.16
-5.38
-10.42
-16.0
-21.72
-27.12
-31.83
-35.87
-39.57
-43.48
-48.26
-54.47
-62.31
-71.41
-80.82
-88.96
-94.07
-94.55
-89.43
-78.62
-63.08
-44.41
-24.4
-4.69
13.53
29.46
42.57
52.61
59.56
63.59
65.01
64.1
60.92
55.36
47.19
36.46
23.5
9.1
-5.8
-20.3
-33.82
-46.01
-56.57
-65.36
-72.31
-77.7
-82.06
-86.15
-90.44
-94.91
-98.86
-101.22
-101.14
-98.42
-93.78
-88.58
-84.33
-82.07
-82.17
-84.28
-87.43
-90.41
-91.78
-90.27
-84.89
-75.15
-61.2
-43.71
-23.81
-2.72
18.22
37.68
54.36
67.1
75.21
78.64
78.21
75.24
71.16
66.9
62.71
58.14
52.42
45.11
36.41
27.38
19.46
13.99
11.59
11.79
13.15
13.85
12.39
8.16
1.68
-5.72
-12.64
-18.07
-21.81
-24.49
-27.25
-31.4
-37.88
-46.86
-57.41
-67.59
-74.7
-76.15
-70.23
-56.78
-37.14
-13.67
11.27
35.96
59.44
81.31
101.03
117.66
129.89
136.55
137.15
132.32
123.66
113.3
103.16
94.36
87.05
80.59
74.01
66.68
58.63
50.58
43.56
38.22
34.49
31.59
28.25
23.37
16.39
7.5
-2.46
-12.47
-21.7
-30.03
-37.91
-46.23
-55.69
-66.16
-76.46
-84.39
-87.41
-83.55
-72.27
-54.6
-32.92
-10.17
11.0
28.81
42.55
52.41
59.11
63.44
65.92
66.78
65.94
63.27
58.78
52.82
46.01
39.27
33.44
29.02
26.06
24.18
22.63
20.72
17.97
14.21
9.65
4.77
-0.09
-4.79
-9.54
-14.9
-21.49
-29.81
-40.07
-51.88
-64.19
-75.16
-82.6
-84.37
-79.04
-66.41
-47.62
-24.88
-0.85
22.08
42.31
59.14
72.54
82.75
89.96
94.11
94.98
92.45
86.65
78.28
68.48
58.48
49.31
41.55
35.11
29.47
24.12
18.7
13.3
8.31
4.0
0.35
-2.92
-6.23
-9.96
-14.3
-19.47
-25.77
-33.66
-43.39
-54.64
-66.16
-75.67
-80.59
-78.73
-69.21
-52.81
-31.6
-8.23
14.76
35.54
53.18
67.39
78.13
85.29
88.72
88.26
84.12
77.05
68.12
58.61
49.55
41.49
34.47
28.19
22.25
16.43
10.85
5.74
1.42
-2.02
-4.71
-6.98
-9.35
-12.28
-16.18
-21.28
-27.77
-35.78
-45.26
-55.75
-66.06
-74.36
-78.5
-76.75
-68.43
-54.23
-35.83
-15.37
5.29
24.91
42.63
57.7
69.26
76.41
78.65
76.38
70.77
63.5
56.15
49.57
43.81
38.33
32.45
25.85
18.91
12.52
7.62
4.83
3.97
4.16
4.08
2.53
-1.13
-6.66
-13.09
-19.37
-24.82
-29.63
-34.69
-41.12
-49.32
-58.54
-66.66
-70.88
-68.69
-58.89
-42.09
-20.47
2.88
24.89
43.24
56.74
65.37
69.93
71.57
71.37
70.05
67.76
64.22
58.92
51.66
42.8
33.4
24.93
18.68
15.27
14.25
14.31
13.7
11.27
6.79
1.12
-4.17
-7.85
-9.6
-10.2
-11.14
-13.97
-19.57
-28.02
-38.53
-49.73
-60.09
-68.06
-72.22
-71.46
-65.21
-53.56
-37.34
-18.09
2.48
22.58
40.7
55.7
66.92
74.06
77.32
77.16
74.18
69.1
62.49
54.93
46.83
38.61
30.51
22.81
15.66
9.26
3.87
-0.31
-3.13
-4.84
-6.01
-7.41
-9.65
-12.88
-16.79
-20.76
-24.3
-27.29
-30.14
-33.68
-38.71
-45.58
-53.95
-62.69
-70.03
-74.14
-73.49
-67.35
-56.0
-40.65
-22.86
-4.23
13.92
30.58
44.7
55.29
61.57
63.38
61.28
56.72
51.38
46.58
42.78
39.44
35.5
30.05
23.05
15.25
8.15
3.11
0.78
0.78
1.74
2.01
0.29
-3.74
-9.48
-15.71
-21.32
-25.73
-29.06
-32.13
-35.94
-41.49
-49.3
-59.27
-70.29
-80.48
-87.46
-88.97
-83.79
-72.17
-55.75
-37.07
-18.6
-1.85
12.6
24.93
35.44
44.04
50.15
52.99
51.93
47.07
39.38
30.46
22.06
15.56
11.42
9.23
7.92
6.42
4.07
1.03
-2.0
-4.29
-5.47
-5.87
-6.29
-7.61
-10.29
-14.31
-19.15
-24.16
-28.92
-33.51
-38.46
-44.41
-51.67
-59.81
-67.46
-72.72
-73.66
-68.96
-58.52
-43.36
-25.26
-6.21
12.08
28.36
41.66
51.34
57.02
58.81
57.37
53.91
49.7
45.56
41.55
37.06
31.44
24.55
17.16
10.64
6.31
4.73
5.33
6.66
6.99
5.31
1.61
-3.16
-7.63
-10.95
-13.04
-14.67
-16.97
-20.95
-26.96
-34.74
-43.59
-52.58
-60.86
-67.51
-71.53
-71.95
-68.09
-59.7
-47.24
-31.68
-14.28
3.58
20.64
35.71
47.72
55.76
59.35
58.7
54.72
48.9
42.65
37.0
32.19
27.9
23.52
18.74
13.71
9.08
5.64
3.9
3.76
4.44
4.76
3.48
-0.09
-5.92
-13.11
-20.22
-25.95
-29.66
-31.85
-34.02
-38.13
-45.52
-56.15
-68.14
-78.2
-82.86
-79.71
-68.43
-50.74
-29.82
-8.82
10.09
26.17
39.87
51.81
62.14
70.18
74.9
75.48
72.1
65.83
58.18
50.6
43.88
38.22
33.32
28.92
24.85
21.21
18.06
15.28
12.7
9.99
6.93
3.35
-0.85
-5.76
-11.48
-18.0
-25.23
-32.79
-40.38
-47.86
-55.37
-63.49
-72.74
-83.1
-93.56
-102.0
-105.7
-102.3
-90.75
-71.86
-48.22
-23.24
-0.02
19.47
34.66
46.05
54.43
60.39
64.06
65.22
63.81
60.21
55.19
49.67
44.35
39.43
34.82
30.39
26.22
22.75
20.57
20.0
20.79
21.98
22.08
19.81
14.66
7.18
-1.31
-9.26
-15.61
-20.32
-24.25
-28.88
-35.58
-45.04
-56.95
-70.04
-82.34
-91.53
-95.46
-92.74
-82.98
-67.04
-46.66
-24.13
-1.72
18.73
36.09
49.86
60.0
66.72
70.17
70.63
68.51
64.42
59.14
53.44
47.98
43.04
38.58
34.38
30.31
26.55
23.5
21.52
20.66
20.53
20.4
19.43
16.93
12.59
6.64
-0.3
-7.36
-13.87
-19.45
-24.37
-29.5
-36.02
-45.01
-56.77
-70.38
-83.6
-93.57
-97.54
-93.92
-82.79
-65.74
-45.31
-23.99
-3.68
14.54
30.13
42.75
52.11
58.02
60.62
60.35
57.99
54.21
49.52
44.21
38.45
32.54
27.0
22.47
19.35
17.8
17.32
17.18
16.54
14.87
12.1
8.6
4.98
1.64
-1.38
-4.46
-8.13
-12.72
-18.07
-23.73
-29.25
-34.56
-40.28
-47.31
-56.24
-66.65
-76.76
-83.73
-84.53
-77.29
-61.95
-40.49
-16.19
7.4
27.63
43.19
54.24
61.81
66.99
70.62
72.9
73.72
72.78
69.99
65.44
59.62
53.24
47.15
42.13
38.63
36.73
36.03
35.81
35.37
34.13
31.98
29.22
26.23
23.23
20.13
16.56
12.05
6.31
-0.73
-8.67
-16.88
-24.66
-31.72
-38.26
-44.98
-52.73
-61.79
-71.42
-79.64
-83.75
-81.38
-71.5
-54.98
-34.19
-12.18
8.42
25.96
39.9
50.36
57.58
61.89
63.47
62.78
60.44
57.15
53.32
49.15
44.47
39.2
33.6
28.24
23.91
21.2
20.26
20.55
21.06
20.67
18.51
14.39
8.81
2.65
-3.23
-8.35
-12.8
-17.05
-21.7
-27.27
-33.98
-41.9
-50.91
-60.7
-70.4
-78.6
-83.42
-83.05
-76.41
-63.64
-46.17
-26.18
-6.03
12.44
28.14
40.73
50.2
56.64
60.13
60.74
58.8
54.96
50.11
45.06
40.47
36.52
32.99
29.65
26.26
22.95
20.19
18.38
17.6
17.6
17.68
16.97
14.81
10.85
5.18
-1.6
-8.64
-15.18
-20.7
-25.15
-29.01
-33.04
-38.17
-45.21
-54.48
-65.56
-77.16
-87.07
-92.69
-91.75
-83.13
-67.48
-47.01
-24.93
-4.24
13.07
26.51
36.69
44.71
51.36
56.66
60.0
60.49
57.71
52.01
44.69
37.42
31.72
28.31
26.81
26.11
24.93
22.53
19.01
15.37
12.66
11.43
11.43
11.61
10.68
7.66
2.3
-4.96
-13.05
-20.78
-27.34
-32.42
-36.47
-40.47
-45.66
-52.89
-62.24
-72.48
-81.26
-85.75
-83.58
-73.77
-57.19
-36.34
-14.56
5.09
20.74
32.08
40.1
46.29
51.73
56.65
60.33
61.71
59.91
54.96
47.79
40.09
33.66
29.6
28.01
28.07
28.55
28.3
26.89
24.54
21.96
19.95
18.75
18.09
17.17
15.15
11.41
5.91
-0.79
-7.85
-14.36
-19.77
-24.11
-27.86
-31.72
-36.32
-41.96
-48.7
-56.62
-65.65
-75.45
-84.97
-92.37
-95.34
-91.95
-81.45
-64.8
-44.39
-23.19
-3.68
12.84
26.19
36.9
45.41
51.88
56.13
57.9
57.25
54.51
50.31
45.38
40.33
35.57
31.44
28.16
25.88
24.75
24.61
25.18
25.93
26.18
25.38
23.32
20.14
16.3
12.23
8.09
3.77
-1.0
-6.34
-12.16
-18.02
-23.46
-28.2
-32.35
-36.52
-41.58
-48.27
-56.83
-66.61
-76.03
-82.89
-85.02
-81.06
-71.06
-56.38
-39.1
-21.24
-4.08
11.92
26.67
40.0
51.3
59.65
64.34
65.28
63.23
59.53
55.49
51.99
49.27
47.11
45.07
42.87
40.42
37.92
35.65
33.99
33.14
33.16
33.83
34.65
34.96
34.07
31.42
26.78
20.53
13.46
6.68
1.29
-2.12
-3.71
-4.52
-6.13
-9.95
-16.49
-25.02
-33.81
-40.66
-43.71
-42.01
-35.69
-25.59
-13.03
0.73
14.39
26.56
35.88
41.22
42.16
39.15
33.46
26.57
19.81
13.91
9.02
4.98
1.52
-1.51
-4.18
-6.66
-9.16
-11.88
-14.77
-17.38
-19.26
-20.22
-20.48
-20.67
-21.62
-24.02
-28.19
-33.98
-40.85
-47.99
-54.84
-61.16
-67.22
-73.65
-81.07
-89.45
-97.86
-104.41
-106.87
-103.72
-94.92
-82.15
-68.57
-57.69
-52.35
-54.06
-62.73
-77.18
-95.63
-116.17
-136.79
-155.32
-169.4
-176.88
-176.31
-167.62
-152.13
-132.29
-110.89
-90.2
-71.51
-55.02
-40.35
-27.02
-14.91
-4.19
4.81
11.85
16.93
20.21
21.88
21.96
20.2
16.39
10.74
4.28
-1.26
-3.87
-2.07
4.59
15.29
28.4
42.3
55.9
69.0
81.77
94.33
106.07
116.0
123.03
126.51
126.6
123.91
119.27
113.33
106.49
