-19.87
-24.02
-27.9
-31.83
-36.15
-41.13
-46.92
-53.54
-60.68
-67.77
-73.83
-77.71
-78.34
-75.03
-67.73
-57.05
-44.09
-30.17
-16.48
-3.87
7.08
16.03
22.72
27.02
28.98
28.95
27.55
25.49
23.35
21.39
19.54
17.59
15.37
12.99
10.79
9.2
8.45
8.48
8.89
9.16
8.77
7.39
5.06
2.0
-1.38
-4.77
-7.99
-11.11
-14.35
-17.89
-21.84
-26.07
-30.39
-34.59
-38.74
-43.14
-48.28
-54.49
-61.64
-68.89
-74.69
-77.32
-75.35
-68.27
-56.67
-42.03
-26.23
-10.99
2.59
14.08
23.58
31.39
37.79
42.88
46.62
48.93
49.73
49.08
47.19
44.41
41.2
38.01
35.17
32.89
31.21
30.02
29.13
28.36
27.5
26.46
25.18
23.61
21.74
19.51
16.82
13.65
10.03
6.08
2.02
-2.02
-5.97
-9.94
-14.07
-18.46
-23.04
-27.62
-32.02
-36.13
-40.16
-44.53
-49.67
-55.71
-62.21
-68.08
-71.79
-71.88
-67.38
-58.24
-45.31
-30.07
-14.16
1.03
14.59
26.06
35.29
42.27
47.06
49.82
50.85
50.61
49.58
48.09
46.21
43.81
40.74
37.05
33.13
29.56
26.93
25.5
25.12
25.3
25.44
25.05
23.9
22.04
19.7
17.11
14.48
11.92
9.42
6.82
3.89
0.35
-3.89
-8.66
-13.6
-18.28
-22.38
-25.81
-28.78
-31.6
-34.69
-38.42
-43.05
-48.64
-54.96
-61.26
-66.39
-68.94
-67.72
-62.15
-52.54
-39.95
-25.85
-11.69
1.51
13.21
23.29
31.79
38.7
43.88
47.15
48.4
47.73
45.47
42.2
38.54
35.07
32.11
29.79
27.96
26.42
24.99
23.57
22.18
20.86
19.61
18.34
16.86
14.93
12.32
8.94
4.87
0.33
-4.39
-8.98
-13.26
-17.17
-20.84
-24.53
-28.54
-33.15
-38.56
-44.82
-51.74
-58.84
-65.41
-70.45
-72.97
-72.14
-67.52
-59.18
-47.78
-34.35
-20.09
-6.19
6.35
16.74
24.54
29.6
32.14
32.69
31.93
30.45
28.66
26.69
24.47
21.95
19.25
16.7
14.75
13.73
13.67
14.26
14.93
15.1
14.38
12.71
10.34
7.69
5.13
2.75
0.46
-2.07
-5.09
-8.79
-13.1
-17.8
-22.49
-26.84
-30.66
-34.04
-37.39
-41.31
-46.36
-52.65
-59.65
-66.07
-70.21
-70.46
-65.87
-56.44
-43.1
-27.29
-10.52
6.04
21.66
35.94
48.64
59.54
68.44
75.35
80.5
84.19
86.69
88.0
87.93
86.33
83.37
79.57
75.67
72.18
69.07
65.64
60.78
53.41
42.96
29.62
14.2
-2.1
-18.07
-32.78
-45.68
-56.68
-66.03
-74.14
-81.39
-88.0
-94.02
-99.34
-103.86
-107.57
-110.62
-113.31
-115.92
-118.6
-121.17
-123.07
-123.36
-120.89
-114.65
-104.15
-89.6
-71.95
-52.64
-33.1
-14.47
2.54
17.65
30.71
41.58
50.05
55.98
59.41
60.64
60.22
58.72
56.64
54.24
51.58
48.57
45.23
41.62
38.1
35.1
33.02
32.04
32.06
32.64
33.22
33.23
32.24
30.13
27.04
23.3
19.31
15.35
11.53
7.72
3.69
-0.8
-5.84
-11.36
-17.22
-23.37
-29.88
-36.78
-43.78
-50.08
-54.4
-55.4
-52.16
-44.61
-33.5
-20.2
-6.11
7.63
20.31
31.45
40.74
47.88
52.72
55.4
56.26
55.8
54.44
52.4
49.75
46.53
42.88
39.11
35.62
32.76
30.69
29.28
28.26
27.3
26.21
24.89
23.42
21.89
20.27
18.42
16.12
13.2
9.68
5.75
1.7
-2.17
-5.73
-9.04
-12.35
-16.01
-20.41
-25.77
-32.06
-38.88
-45.32
-50.21
-52.26
-50.5
-44.58
-34.91
-22.52
-8.75
5.1
18.04
29.4
38.79
46.05
51.12
54.05
55.04
54.38
52.38
49.36
45.56
41.24
36.68
32.21
28.1
24.53
21.52
19.01
16.9
15.09
13.47
11.9
10.15
7.9
4.92
1.18
-3.1
-7.49
-11.6
-15.25
-18.58
-22.02
-26.1
-31.21
-37.54
-44.89
-52.71
-60.18
-66.24
-69.82
-70.07
-66.51
-59.31
-49.16
-37.13
-24.39
-11.97
-0.68
8.93
16.52
21.95
25.24
26.58
26.32
24.86
22.56
19.72
16.56
13.26
10.01
7.04
4.52
2.6
1.27
0.47
0.01
-0.31
-0.77
-1.64
-3.17
-5.49
-8.59
-12.25
-16.18
-20.1
-23.79
-27.27
-30.68
-34.27
-38.3
-43.05
-48.69
-55.2
-62.21
-68.89
-74.02
-76.22
-74.38
-68.0
-57.41
-43.67
-28.25
-12.63
1.97
14.71
25.1
32.97
38.44
41.88
43.78
44.63
44.71
44.03
42.4
39.66
35.89
31.51
27.22
23.68
21.25
19.89
19.2
18.72
18.08
17.12
15.8
14.13
12.01
9.31
5.94
1.96
-2.42
-6.96
-11.41
-15.67
-19.77
-23.87
-28.27
-33.35
-39.43
-46.55
-54.2
-61.26
-66.17
-67.4
-63.95
-55.76
-43.7
-29.29
-14.2
0.15
12.9
23.64
32.36
39.18
44.23
47.63
49.47
49.9
49.1
47.27
44.66
41.48
37.99
34.46
31.24
28.6
26.75
25.73
25.37
25.35
25.33
25.02
24.21
22.84
20.85
18.24
15.05
11.41
7.53
3.7
0.12
-3.09
-6.04
-9.13
-12.89
-17.86
-24.3
-31.93
-39.81
-46.54
-50.67
-51.15
-47.66
-40.61
-30.9
-19.56
-7.5
4.53
15.81
25.57
33.1
37.96
40.19
40.39
39.42
38.02
36.47
34.6
31.98
28.45
24.32
20.44
17.93
17.72
20.13
24.69
30.18
35.01
37.77
37.69
34.8
29.78
23.54
16.83
9.86
2.38
-5.99
-15.43
-25.65
-35.99
-45.68
-54.06
-60.68
-65.16
-67.04
-65.71
-60.61
-51.5
-38.73
-23.27
-6.56
9.82
24.54
36.7
45.96
52.42
56.51
58.87
60.19
61.12
62.12
63.38
64.86
66.27
67.18
67.26
66.34
64.55
62.32
60.16
58.49
57.37
56.5
55.31
53.32
50.33
46.57
42.52
38.52
34.53
30.03
24.18
16.24
5.92
-6.42
-19.78
-32.72
-43.76
-51.68
-55.8
-56.17
-53.44
-48.68
-42.91
-36.83
-30.68
-24.4
-17.92
-11.48
-5.61
-1.02
1.78
2.67
1.86
-0.19
-3.07
-6.43
-9.98
-13.43
-16.43
-18.72
-20.22
-21.05
-21.51
-21.93
-22.55
-23.46
-24.65
-26.02
-27.4
-28.61
-29.55
-30.28
-31.09
-32.5
-35.12
-39.44
-45.63
-53.3
-61.52
-68.81
-73.51
-74.19
-69.99
-61.03
-48.35
-33.59
-18.43
-4.1
8.84
20.41
30.77
39.97
47.78
53.84
57.9
60.05
60.72
60.5
59.9
59.16
58.2
56.78
54.75
52.13
49.26
46.54
44.3
42.55
40.96
38.96
36.04
31.92
26.66
20.62
14.26
7.96
1.89
-4.0
-9.89
-15.94
-22.21
-28.59
-34.97
-41.26
-47.46
-53.48
-59.03
-63.42
-65.69
-64.81
-60.15
-51.68
-40.17
-26.87
-13.18
-0.28
11.17
20.91
29.0
35.53
40.55
44.02
46.0
46.65
46.25
45.14
43.5
41.39
38.79
35.87
32.99
30.75
29.61
29.66
30.43
30.98
30.34
27.89
23.61
18.05
11.96
6.06
0.64
-4.39
-9.36
-14.58
-20.12
-25.76
-31.11
-35.87
-40.07
-44.15
-48.96
-55.52
-64.79
-77.31
-92.99
-110.93
-129.44
-146.24
-158.95
-165.54
-164.79
-156.47
-141.23
-120.23
-94.85
-66.64
-37.31
-8.86
16.63
37.31
52.05
60.77
64.42
64.65
63.17
61.36
59.96
59.18
58.82
58.49
57.74
56.23
53.78
50.52
46.89
43.53
41.11
40.0
40.11
40.81
41.23
40.54
38.29
34.56
29.73
24.27
18.35
11.81
4.29
-4.38
-14.0
-23.91
-33.19
-41.07
-47.05
-50.96
-52.73
-52.33
-49.61
-44.57
-37.4
-28.55
-18.76
-8.82
0.58
8.9
15.75
20.99
24.59
26.74
27.78
28.04
27.77
27.02
25.66
23.5
20.53
16.94
13.23
10.04
7.85
6.88
6.9
7.37
7.6
7.07
5.58
3.31
0.77
-1.53
-3.17
-4.12
-4.67
-5.44
-7.07
-10.06
-14.53
-20.05
-25.73
-30.42
-33.06
-32.92
-29.91
-24.43
-17.23
-9.09
-0.56
8.0
16.36
24.1
30.69
35.43
37.86
37.93
36.09
33.18
30.05
27.25
24.83
22.46
19.68
16.37
12.82
9.6
7.34
6.22
5.97
5.93
5.35
3.73
1.11
-2.14
-5.49
-8.53
-11.23
-13.8
-16.57
-19.86
-23.85
-28.57
-33.84
-39.33
-44.42
-48.34
-50.2
-49.28
-45.22
-38.27
-29.07
-18.58
-7.69
2.89
12.63
21.11
27.97
32.94
35.92
37.08
36.81
35.65
34.09
32.29
30.25
27.76
24.71
21.17
17.5
14.22
11.82
10.57
10.29
10.45
10.19
8.78
5.83
1.57
-3.31
-7.92
-11.5
-13.93
-15.68
-17.68
-20.93
-26.03
-32.83
-40.49
-47.64
-52.78
-54.76
-53.08
-47.97
-40.26
-30.98
-20.99
-10.77
-0.53
9.65
19.45
28.27
35.37
40.11
42.26
42.16
40.56
38.25
35.85
33.55
31.2
28.43
25.04
21.05
16.88
13.18
10.53
9.2
9.05
9.52
9.85
9.31
7.38
3.98
-0.53
-5.45
-9.94
-13.42
-15.72
-17.28
-18.99
-21.86
-26.59
-33.27
-41.24
-49.33
-56.11
-60.24
-60.85
-57.68
-51.1
-41.98
-31.36
-20.17
-8.99
1.84
12.11
21.49
29.52
35.66
39.62
41.46
41.63
40.84
39.61
38.19
36.56
34.56
32.14
29.47
26.84
24.61
22.98
22.02
21.57
21.36
21.03
20.25
18.66
16.17
12.82
8.98
5.11
1.6
-1.42
-4.1
-6.79
-9.94
-13.74
-18.2
-23.08
-28.0
-32.55
-36.57
-40.21
-43.94
-48.5
-54.34
-61.32
-68.42
-73.84
-75.62
-72.46
-64.27
-52.26
-38.43
-24.69
-12.28
-1.49
8.04
16.79
24.86
31.83
37.04
39.93
40.42
38.95
36.34
33.44
30.8
28.63
26.77
24.99
23.12
21.27
19.68
18.64
18.19
18.12
18.01
17.49
16.35
14.61
12.45
10.02
7.31
4.26
0.73
-3.23
-7.34
-11.26
-14.68
-17.6
-20.26
-23.18
-26.85
-31.65
-37.61
-44.3
-50.89
-56.3
-59.44
-59.4
-55.77
-48.67
-38.72
-26.91
-14.28
-1.85
9.51
19.2
26.89
32.49
36.21
38.33
39.12
38.72
37.14
34.48
30.93
27.04
23.45
20.79
19.35
18.96
19.06
18.96
18.14
16.42
14.07
11.63
9.6
8.2
7.08
5.59
2.94
-1.22
-6.62
-12.4
-17.54
-21.29
-23.61
-25.23
-27.22
-30.75
-36.37
-43.99
-52.76
-61.29
-67.96
-71.22
-70.07
-64.35
-54.77
-42.71
-29.82
-17.36
-5.98
4.34
13.95
23.09
31.61
38.88
44.05
46.45
46.04
43.48
39.92
36.58
34.2
32.94
32.29
31.52
30.02
27.61
24.67
21.81
19.71
18.67
18.57
18.87
18.78
17.55
14.69
10.28
4.88
-0.6
-5.36
-8.94
-11.45
-13.5
-15.93
-19.49
-24.53
-30.94
-38.26
-45.85
-53.03
-59.05
-63.12
-64.47
-62.52
-57.06
-48.37
-37.23
-24.7
-11.84
0.5
11.79
21.68
30.0
36.54
41.16
43.88
44.96
44.79
43.9
42.71
41.36
39.75
37.49
34.37
30.51
26.53
23.28
21.48
21.33
22.28
23.21
22.87
20.6
16.57
11.72
7.22
3.93
1.94
0.52
-1.39
-4.68
-9.6
-15.62
-21.76
-27.06
-31.1
-34.2
-37.31
-41.54
-47.6
-55.33
-63.49
-70.03
-72.71
-70.05
-61.83
-49.24
-34.42
-19.68
-6.72
3.87
12.47
19.96
27.0
33.65
39.42
43.48
45.2
44.46
41.74
37.99
34.23
31.28
29.35
28.27
27.48
26.4
24.72
22.45
20.0
17.91
16.63
16.17
16.15
15.84
14.51
11.75
7.51
2.25
-3.28
-8.34
-12.43
-15.46
-17.72
-19.87
-22.73
-27.13
-33.46
-41.55
-50.38
-58.35
-63.62
-64.76
-61.3
-53.91
-44.04
-33.29
-22.76
-12.77
-3.03
6.7
16.35
25.23
32.29
36.72
38.22
37.21
34.63
31.58
28.85
26.83
25.46
24.34
23.02
21.13
18.7
16.1
13.92
12.59
12.12
12.04
11.49
9.67
6.16
1.25
-4.19
-9.11
-12.67
-14.8
-16.08
-17.65
-20.69
-25.98
-33.55
-42.58
-51.56
-58.65
-62.22
-61.22
-55.53
-45.92
-33.84
-21.02
-8.92
1.61
10.48
18.03
24.77
30.87
36.08
39.78
41.3
40.44
37.64
33.92
30.4
27.89
26.57
25.95
25.23
23.69
21.08
17.77
14.48
11.98
10.51
9.84
9.21
7.74
4.83
0.38
-5.16
-10.97
-16.22
-20.49
-23.9
-27.09
-31.06
-36.7
-44.5
-54.07
-64.03
-72.2
-76.35
-74.88
-67.5
-55.33
-40.47
-25.28
-11.52
0.08
9.76
18.31
26.4
34.15
41.07
46.26
48.95
48.93
46.61
43.02
39.32
36.39
34.52
33.45
32.64
31.59
30.07
28.15
26.1
24.18
22.47
20.83
19.03
16.77
13.79
9.91
5.12
-0.33
-6.0
-11.34
-15.96
-19.9
-23.7
-28.31
-34.72
-43.39
-53.85
-64.56
-73.33
-77.94
-77.04
-70.55
-59.62
-46.15
-31.93
-18.17
-5.27
6.83
18.21
28.66
37.62
44.5
48.96
51.09
51.3
50.13
48.06
45.43
42.54
39.76
37.43
35.84
34.98
34.48
33.87
32.73
30.98
28.9
26.98
25.55
24.58
23.5
21.52
18.02
12.92
6.76
0.54
-4.86
-9.05
-12.42
-15.91
-20.55
-26.86
-34.67
-43.27
-51.73
-59.3
-65.58
-70.22
-72.75
-72.42
-68.42
-60.18
-47.88
-32.51
-15.77
0.57
15.0
26.63
35.15
40.75
43.97
45.52
46.13
46.36
46.54
46.63
46.28
45.11
42.85
39.65
36.1
32.98
30.99
30.41
30.99
32.01
32.54
31.81
29.49
25.82
21.48
17.28
13.75
10.99
8.59
5.8
1.99
-3.19
-9.5
-16.21
-22.46
-27.67
-31.81
-35.55
-39.96
-45.99
-53.8
-62.37
-69.58
-72.88
-70.41
-61.74
-48.07
-31.76
-15.39
-0.81
11.16
20.7
28.47
34.88
40.01
43.56
45.25
45.0
43.07
39.97
36.35
32.78
29.71
27.27
25.45
24.13
23.17
22.47
21.95
21.4
20.58
19.23
17.22
14.54
11.45
8.22
5.07
1.93
-1.55
-5.7
-10.67
-16.24
-21.96
-27.38
-32.42
-37.54
-43.45
-50.57
-58.36
-65.25
-68.94
-67.38
-59.7
-46.66
-30.45
-13.72
1.22
13.23
22.32
29.3
35.17
40.45
45.13
48.64
50.26
49.46
46.27
41.39
36.0
31.34
28.17
26.58
25.96
25.41
24.1
21.81
18.84
15.85
13.43
11.76
10.55
9.17
6.96
3.59
-0.87
-6.01
-11.25
-16.11
-20.34
-24.02
-27.43
-31.09
-35.69
-41.95
-50.23
-60.06
-69.89
-77.36
-80.0
-76.2
-65.98
-51.1
-34.4
-18.51
-5.03
6.02
15.59
24.81
34.11
42.96
50.18
54.6
55.75
54.03
50.53
46.59
43.25
40.95
39.53
38.51
37.34
35.74
33.77
31.69
29.89
28.55
27.57
26.62
25.31
23.36
20.67
17.35
13.5
9.22
4.48
-0.68
-6.2
-11.89
-17.5
-22.86
-27.95
-32.92
-38.1
-43.95
-50.76
-58.54
-66.64
-73.82
-78.38
-78.75
-74.11
-64.78
-52.05
-37.65
-23.03
-9.04
4.12
16.43
27.71
37.33
44.59
49.02
50.75
50.55
49.37
48.07
47.01
46.06
44.79
42.81
40.03
36.78
33.7
31.48
30.48
30.52
30.96
30.96
29.8
27.32
23.88
20.19
16.89
14.15
11.6
8.59
4.62
-0.41
-6.03
-11.63
-16.7
-21.16
-25.27
-29.51
-34.18
-39.4
-45.18
-51.51
-58.43
-65.77
-72.88
-78.46
-80.94
-78.86
-71.6
-59.65
-44.44
-27.89
-11.84
2.43
14.3
23.63
30.68
35.87
39.66
42.44
44.28
45.03
44.36
42.06
38.28
33.7
29.3
26.01
24.38
24.19
24.77
25.21
24.84
23.42
21.24
18.87
16.77
15.15
13.72
11.97
9.27
5.31
0.17
-5.54
-11.06
-15.74
-19.3
-22.04
-24.68
-28.18
-33.32
-40.41
-48.97
-57.79
-65.12
-69.09
-68.41
-62.64
-52.45
-39.38
-25.25
-11.61
0.68
11.39
20.78
29.0
35.94
41.12
43.96
44.17
41.97
38.21
34.04
30.53
28.26
27.15
26.57
25.68
23.83
20.89
17.34
13.98
11.61
10.62
10.81
11.44
11.4
9.7
5.79
-0.09
-6.98
-13.6
-18.82
-22.19
-24.19
-26.09
-29.45
-35.55
-44.66
-55.88
-67.3
-76.49
-81.36
-80.76
-74.87
-64.93
-52.8
-40.11
-27.77
-15.87
-4.0
8.08
20.09
31.13
40.03
45.79
48.12
47.53
45.16
42.25
39.66
37.67
36.0
34.14
31.71
28.74
25.66
23.01
21.23
20.3
19.88
19.43
18.41
16.46
13.38
9.22
4.22
-1.12
-6.23
-10.59
-14.05
-16.91
-19.9
-23.96
-29.85
-37.82
-47.42
-57.47
-66.31
-72.16
-73.6
-69.99
-61.76
-50.08
-36.58
-22.71
-9.35
3.18
14.87
25.71
35.4
43.25
48.58
50.98
50.57
48.14
44.83
41.71
39.47
38.08
36.94
35.32
32.75
29.32
25.72
22.79
21.15
20.73
20.9
20.64
19.12
15.95
11.36
6.08
0.9
-3.52
-7.06
-10.06
-13.18
-17.06
-22.13
-28.36
-35.46
-43.08
-50.86
-58.46
-65.33
-70.54
-72.88
-71.24
-65.06
-54.72
-41.46
-26.9
-12.49
0.82
12.68
22.94
31.55
38.3
42.97
45.48
46.11
45.34
43.66
41.46
38.9
36.09
33.12
30.15
27.33
24.89
22.99
21.69
20.93
20.47
19.95
18.92
17.0
14.02
10.11
5.64
1.16
-2.94
-6.57
-9.94
-13.45
-17.5
-22.21
-27.6
-33.61
-40.22
-47.41
-55.01
-62.23
-67.68
-69.72
-66.96
-59.06
-46.91
-32.38
-17.61
-4.3
6.83
15.92
23.47
29.91
35.23
39.05
40.91
40.66
38.48
34.99
31.01
27.3
24.36
22.19
20.47
18.73
16.75
14.63
12.73
11.47
10.95
10.86
10.47
9.0
6.01
1.65
-3.33
-8.03
-11.75
-14.39
-16.61
-19.57
-24.52
-32.0
-41.54
-51.52
-59.59
-63.46
-61.82
-54.77
-43.8
-31.01
-18.35
-6.85
3.45
13.08
22.51
31.62
39.64
45.47
48.35
48.1
45.36
41.24
36.89
33.11
30.17
27.85
25.71
