-91.12
-94.33
-92.06
-83.3
-68.24
-48.38
-26.09
-4.05
15.51
31.2
42.62
50.11
54.47
56.56
56.98
56.1
54.09
51.06
47.19
42.78
38.28
34.21
31.01
28.96
28.08
28.19
28.91
29.75
30.23
29.95
28.68
26.45
23.46
19.99
16.24
12.2
7.64
2.25
-4.12
-11.26
-18.6
-25.41
-31.14
-35.73
-39.77
-44.3
-50.41
-58.68
-68.76
-79.17
-87.63
-91.71
-89.64
-80.93
-66.5
-48.31
-28.71
-9.73
7.33
21.95
34.02
43.51
50.3
54.13
54.85
52.69
48.27
42.63
36.86
31.84
28.02
25.38
23.54
22.1
20.76
19.39
18.11
17.07
16.38
15.97
15.56
14.72
12.89
9.62
4.65
-1.83
-9.3
-16.94
-24.0
-30.02
-35.01
-39.49
-44.33
-50.41
-58.36
-68.14
-78.92
-89.07
-96.48
-99.07
-95.4
-85.17
-69.3
-49.69
-28.62
-8.16
10.29
25.96
38.68
48.44
55.3
59.27
60.5
59.32
56.35
52.32
47.91
43.57
39.55
35.9
32.63
29.76
27.32
25.36
23.92
22.96
22.39
22.0
21.5
20.41
18.22
14.46
8.96
2.02
-5.64
-13.09
-19.56
-24.73
-28.91
-32.94
-37.87
-44.62
-53.54
-64.16
-75.26
-85.01
-91.41
-92.77
-88.13
-77.49
-61.81
-42.67
-21.94
-1.33
17.81
34.49
48.07
58.12
64.44
67.18
66.88
64.39
60.65
56.47
52.27
48.16
44.01
39.74
35.48
31.6
28.56
26.68
25.98
26.14
26.57
26.63
25.87
24.05
21.22
17.59
13.44
8.98
4.32
-0.53
-5.64
-11.11
-16.98
-23.18
-29.52
-35.79
-41.92
-48.17
-55.0
-62.85
-71.7
-80.73
-88.17
-91.74
-89.32
-79.78
-63.53
-42.45
-19.37
2.84
21.99
37.05
48.09
55.87
61.23
64.75
66.57
66.58
64.66
60.96
55.95
50.35
44.87
40.04
36.15
33.26
31.35
30.29
29.93
30.0
30.08
29.75
28.67
26.68
23.88
20.47
16.63
12.42
7.71
2.36
-3.61
-9.99
-16.35
-22.31
-27.64
-32.52
-37.47
-43.24
-50.52
-59.58
-69.98
-80.47
-89.23
-94.2
-93.68
-86.85
-74.07
-56.73
-36.79
-16.26
3.27
20.74
35.55
47.31
55.7
60.54
61.88
60.18
56.29
51.25
45.97
41.08
36.83
33.14
29.9
26.97
24.41
22.34
20.91
20.18
20.09
20.36
20.52
19.97
18.05
14.29
8.67
1.67
-5.79
-12.7
-18.34
-22.67
-26.22
-29.96
-34.79
-41.2
-49.24
-58.44
-67.98
-76.75
-83.44
-86.65
-85.16
-78.23
-65.86
-48.92
-28.91
-7.81
12.49
30.34
44.61
54.76
60.76
63.04
62.39
59.66
55.64
50.88
45.71
40.36
35.0
29.85
25.16
21.15
17.97
15.66
14.16
13.32
12.87
12.48
11.69
10.03
7.16
2.9
-2.58
-8.9
-15.49
-21.86
-27.77
-33.32
-38.94
-45.15
-52.45
-61.06
-70.93
-81.56
-92.0
-100.85
-106.33
-106.64
-100.48
-87.52
-68.67
-46.02
-22.19
0.33
19.76
35.28
46.84
54.84
59.81
62.23
62.54
61.15
58.5
55.04
51.08
46.85
42.42
37.89
33.42
29.29
25.84
23.36
21.99
21.59
21.75
21.83
21.12
19.01
15.19
9.79
3.32
-3.47
-9.87
-15.48
-20.36
-24.96
-29.91
-35.73
-42.76
-51.06
-60.5
-70.68
-80.83
-89.64
-95.28
-95.79
-89.64
-76.45
-57.23
-34.3
-10.59
11.19
29.19
42.74
52.19
58.43
62.37
64.62
65.41
64.72
62.54
59.0
54.48
49.56
44.83
40.84
37.97
36.34
35.85
36.15
36.72
37.02
36.6
35.26
33.09
30.3
27.1
23.5
19.3
14.19
7.93
0.53
-7.67
-16.05
-23.99
-31.07
-37.35
-43.34
-49.86
-57.67
-67.09
-77.61
-87.73
-95.3
-98.03
-94.28
-83.57
-66.79
-45.88
-23.21
-1.02
19.05
36.02
49.45
59.2
65.28
67.92
67.51
64.75
60.54
55.77
51.11
46.82
42.65
37.97
32.11
24.78
16.32
7.71
0.26
-4.89
-7.25
-7.14
-5.53
-3.67
-2.64
-3.06
-4.97
-8.02
-11.59
-15.12
-18.2
-20.8
-23.22
-26.02
-29.89
-35.38
-42.7
-51.44
-60.52
-68.31
-72.99
-73.02
-67.52
-56.63
-41.4
-23.59
-5.23
11.76
25.94
36.55
43.47
47.11
48.17
47.39
45.32
42.29
38.43
33.96
29.2
24.69
21.0
18.49
17.24
17.04
17.59
18.56
19.81
21.18
22.4
22.97
22.19
19.45
14.55
7.85
0.21
-7.36
-14.19
-20.29
-26.38
-33.62
-42.99
-54.65
-67.58
-79.64
-88.07
-90.42
-85.32
-72.98
-55.08
-34.2
-13.0
6.42
22.86
35.91
45.7
52.57
56.79
58.6
58.24
56.09
52.7
48.73
44.79
41.3
38.45
36.13
34.15
32.35
30.7
29.33
28.32
27.57
26.7
25.12
22.16
17.33
10.5
1.98
-7.52
-17.12
-25.99
-33.62
-40.0
-45.6
-51.25
-57.91
-66.31
-76.54
-87.74
-98.08
-105.16
-106.54
-100.64
-87.24
-67.69
-44.47
-20.4
2.1
21.54
37.36
49.67
58.78
64.96
68.32
68.97
67.27
63.8
59.39
54.79
50.52
46.79
43.49
40.41
37.4
34.51
31.95
30.06
29.05
28.88
29.18
29.3
28.5
26.2
22.23
16.87
10.74
4.56
-1.24
-6.49
-11.42
-16.37
-21.71
-27.75
-34.89
-43.49
-53.72
-65.22
-76.72
-86.18
-91.13
-89.6
-80.79
-65.41
-45.54
-23.85
-2.89
15.59
30.77
42.61
51.46
57.7
61.71
63.72
64.03
62.97
60.89
58.17
55.15
52.05
49.13
46.67
44.99
44.35
44.78
45.97
47.25
47.83
47.03
44.59
40.71
35.97
31.0
26.13
21.34
16.2
10.24
3.16
-4.84
-13.24
-21.35
-28.62
-34.99
-40.76
-46.59
-53.11
-60.77
-69.65
-79.42
-89.24
-97.83
-103.55
-104.67
-99.85
-88.48
-71.05
-49.06
-24.76
-0.65
21.08
38.89
52.12
60.87
65.77
67.7
67.48
65.74
62.83
58.93
54.19
48.84
43.24
37.84
33.14
29.58
27.51
27.03
27.96
29.79
31.8
33.16
33.29
31.91
29.11
25.32
21.05
16.73
12.53
8.38
4.05
-0.7
-6.01
-11.81
-17.9
-24.0
-29.93
-35.79
-42.05
-49.45
-58.6
-69.51
-81.21
-91.66
-98.24
-98.53
-91.23
-76.59
-56.4
-33.46
-10.65
9.72
26.37
38.98
47.91
53.76
57.11
58.43
58.06
56.28
53.35
49.62
45.47
41.34
37.6
34.54
32.28
30.72
29.53
28.29
26.62
24.31
21.44
18.26
14.97
11.55
7.67
2.83
-3.35
-10.91
-19.33
-27.79
-35.37
-41.53
-46.3
-50.29
-54.52
-60.05
-67.59
-77.15
-87.87
-98.0
-105.38
-107.87
-104.01
-93.42
-76.86
-55.98
-32.87
-9.58
12.17
31.09
46.36
57.58
64.75
68.25
68.69
66.82
63.34
58.85
53.86
48.77
43.98
39.78
36.41
33.94
32.37
31.59
31.48
31.87
32.6
33.37
33.86
33.67
32.4
29.79
25.7
20.25
13.73
6.52
-1.04
-8.71
-16.43
-24.32
-32.49
-41.01
-49.93
-59.28
-69.12
-79.49
-90.14
-100.24
-108.27
-112.18
-109.96
-100.38
-83.5
-60.91
-35.29
-9.61
13.65
33.0
48.08
59.26
67.18
72.37
75.04
75.29
73.19
69.06
63.51
57.31
51.17
45.56
40.65
36.32
32.42
28.83
25.6
22.85
20.68
19.01
17.56
15.88
13.54
10.25
5.98
0.94
-4.46
-9.83
-14.85
-19.43
-23.65
-27.72
-31.96
-36.78
-42.69
-50.17
-59.42
-70.05
-80.81
-89.65
-94.18
-92.37
-83.36
-67.81
-47.74
-25.85
-4.7
13.93
29.24
41.16
49.93
55.78
58.87
59.34
57.54
54.11
49.9
45.74
42.13
39.19
36.7
34.34
31.94
29.61
27.72
26.66
26.56
27.09
27.54
27.06
24.93
20.85
14.96
7.82
0.07
-7.72
-15.22
-22.39
-29.37
-36.46
-44.02
-52.52
-62.32
-73.53
-85.65
-97.42
-106.88
-111.76
-110.18
-101.29
-85.67
-65.09
-42.03
-18.93
2.3
20.52
35.17
46.04
53.1
56.43
56.43
53.89
49.88
45.52
41.64
38.46
35.66
32.7
29.25
25.58
22.46
20.79
21.07
22.98
25.4
26.88
26.16
22.77
17.09
10.1
2.94
-3.58
-9.23
-14.35
-19.67
-26.01
-34.04
-43.97
-55.38
-67.13
-77.43
-84.2
-85.64
-80.66
-69.32
-52.73
-32.75
-11.47
9.21
27.86
43.53
55.63
63.9
68.36
69.27
67.22
63.06
57.65
51.82
46.12
40.82
35.9
31.17
26.5
22.03
18.15
15.43
14.29
14.68
16.0
17.17
17.02
14.69
10.01
3.52
-3.79
-10.91
-17.2
-22.65
-27.76
-33.36
-40.28
-49.08
-59.89
-72.38
-85.67
-98.34
-108.52
-114.16
-113.55
-105.75
-90.98
-70.61
-46.86
-22.22
1.11
21.58
38.42
51.5
61.05
67.44
71.08
72.37
71.73
69.62
66.54
62.94
59.17
55.44
51.76
48.13
44.58
41.26
38.42
36.27
34.81
33.74
32.54
30.54
27.24
22.51
16.54
9.88
3.08
-3.49
-9.75
-15.85
-22.01
-28.31
-34.64
-40.82
-46.86
-53.13
-60.22
-68.62
-78.19
-87.78
-95.35
-98.51
-95.36
-85.17
-68.78
-48.19
-25.98
-4.49
14.58
30.35
42.55
51.31
57.01
60.15
61.3
60.98
59.56
57.2
53.9
49.75
45.06
40.46
36.71
34.45
33.93
34.8
36.31
37.54
37.81
36.92
35.11
32.94
30.85
28.93
26.82
23.84
19.32
12.95
4.99
-3.82
-12.53
-20.37
-27.07
-32.88
-38.45
-44.59
-51.96
-60.82
-70.85
-81.06
-89.9
-95.47
-96.01
-90.39
-78.43
-61.0
-39.77
-16.74
6.18
27.41
45.78
60.57
71.41
78.33
81.65
81.98
80.1
76.76
72.58
67.95
63.09
58.05
52.8
47.36
41.9
36.81
32.57
29.62
28.16
28.0
28.57
29.06
28.72
27.07
24.13
20.3
16.16
12.16
8.36
4.47
0.05
-5.17
-11.04
-17.06
-22.66
-27.57
-32.09
-37.04
-43.41
-51.94
-62.58
-74.31
-85.24
-93.03
-95.51
-91.36
-80.53
-64.27
-44.76
-24.47
-5.5
10.81
23.91
33.84
40.87
45.27
47.28
47.16
45.29
42.22
38.55
34.84
31.52
28.85
26.95
25.82
25.47
25.9
26.99
28.43
29.75
30.33
29.65
27.37
23.48
18.24
12.04
5.24
-1.94
-9.43
-17.2
-25.18
-33.26
-41.47
-50.0
-59.29
-69.68
-80.93
-91.9
-100.49
-104.16
-100.86
-89.83
-72.03
-49.87
-26.35
-4.14
15.08
30.74
43.03
52.41
59.21
63.47
65.17
64.34
61.23
56.32
50.26
43.7
37.22
31.17
25.67
20.66
16.02
11.6
7.41
3.46
-0.31
-4.12
-8.32
-13.22
-18.95
-25.26
-31.67
-37.62
-42.77
-47.15
-51.08
-55.05
-59.55
-64.97
-71.56
-79.21
-87.34
-94.74
-99.56
-99.76
-93.66
-80.65
-61.52
-38.32
-13.74
9.57
29.61
45.35
56.64
63.86
67.66
68.65
67.38
64.27
59.73
54.12
47.82
41.17
34.51
28.2
22.58
17.89
14.37
12.08
10.98
10.89
11.44
12.15
12.49
11.92
10.09
6.98
2.87
-1.75
-6.38
-10.8
-15.12
-19.8
-25.36
-32.33
-41.06
-51.56
-63.4
-75.54
-86.25
-93.44
-95.09
-89.9
-77.8
-60.02
-38.8
-16.69
4.01
21.72
35.59
45.54
51.95
55.51
57.05
57.31
56.8
55.67
53.81
51.03
47.39
43.29
39.46
36.7
35.55
36.09
37.85
40.08
41.98
42.98
42.89
41.76
39.77
36.94
33.12
28.02
21.38
13.18
3.69
-6.47
-16.6
-26.04
-34.54
-42.29
-49.9
-58.17
-67.75
-78.64
-89.92
-99.73
-105.61
-105.23
-97.2
-81.51
-59.66
-34.17
-7.86
16.83
38.26
55.68
68.95
78.26
83.9
86.15
85.31
81.73
75.83
68.19
59.55
50.77
42.68
35.96
30.97
27.74
25.93
25.06
24.68
24.5
24.49
24.72
25.23
25.87
26.18
25.5
23.2
18.93
12.83
5.5
-2.18
-9.51
-16.16
-22.39
-28.91
-36.63
-46.31
-58.22
-71.83
-85.73
-97.76
-105.5
-106.81
-100.54
-86.9
-67.44
-44.63
-21.1
0.96
20.13
35.76
47.78
56.38
61.82
64.43
64.58
62.78
59.55
55.47
50.99
46.44
41.97
37.68
33.59
29.75
26.25
23.18
20.58
18.32
15.99
13.05
8.99
3.51
-3.31
-11.02
-18.93
-26.3
-32.66
-37.95
-42.55
-47.19
-52.7
-59.66
-67.99
-76.69
-83.85
-87.1
-84.39
-74.69
-58.53
-37.94
-15.78
5.09
22.66
36.15
45.75
52.16
55.96
57.31
56.08
52.13
45.77
37.77
29.29
21.43
14.94
9.98
6.27
3.4
1.01
-1.0
-2.59
-3.76
-4.74
-5.98
-8.12
-11.71
-17.0
-23.79
-31.52
-39.48
-47.02
-53.78
-59.78
-65.4
-71.37
-78.37
-86.8
-96.28
-105.44
-112.03
-113.44
-107.47
-93.19
-71.37
-44.29
-14.98
13.61
39.33
61.01
78.34
91.47
100.66
106.16
108.26
107.41
104.19
99.29
93.35
86.92
80.45
74.28
68.67
63.88
60.16
57.69
56.47
56.23
56.37
56.11
54.62
51.23
45.71
38.3
29.66
20.59
11.83
3.68
-3.94
-11.43
-19.34
-28.25
-38.45
-49.83
-61.7
-72.66
-80.85
-84.27
-81.42
-71.73
-55.94
-35.91
-14.14
6.8
24.87
38.83
48.3
53.59
55.47
54.83
52.51
49.17
45.2
40.88
36.38
31.81
27.29
22.95
18.98
15.57
13.0
11.41
10.65
10.23
9.33
7.18
3.35
-1.92
-7.91
-13.68
-18.52
-22.28
-25.4
-28.83
-33.65
-40.67
-50.03
-61.0
-71.9
-80.39
-84.13
-81.46
-71.99
-56.74
-37.74
-17.39
2.23
19.62
33.96
44.83
51.94
55.11
54.44
50.45
44.18
36.95
30.0
24.12
19.43
15.51
11.71
7.62
3.28
-0.81
-3.99
-5.87
-6.55
-6.57
-6.8
-8.0
-10.62
-14.7
-19.88
-25.65
-31.52
-37.36
-43.42
-50.27
-58.42
-67.95
-78.06
-87.07
-92.78
-93.14
-86.96
-74.31
-56.47
-35.54
-13.76
7.03
25.67
41.59
54.6
64.45
70.72
72.72
69.75
61.4
47.82
29.86
8.96
-13.08
-34.46
-53.61
-69.28
-80.53
-86.6
-86.98
-81.57
-70.93
-56.37
-39.89
-23.8
-10.21
-0.49
4.97
6.8
6.31
4.97
3.9
3.55
3.61
3.36
2.17
-0.17
-3.26
-6.25
-8.33
-9.08
-8.26
-5.39
0.43
10.11
23.61
39.18
53.49
62.95
65.37
61.19
53.21
45.02
39.07
35.57
32.89
28.99
22.97
15.57
8.58
3.48
0.59
-1.01
-2.73
-5.53
-9.55
-14.11
-18.12
-20.76
-21.84
-21.76
-21.32
-21.17
-21.38
-21.19
-19.25
-14.03
-4.55
9.18
26.08
44.39
62.22
78.11
91.26
101.5
109.03
114.07
116.7
116.86
114.39
109.14
101.13
90.67
78.38
65.07
51.63
38.75
26.9
16.24
6.8
-1.47
-8.67
-14.89
-20.34
-25.29
-29.99
-34.57
-38.98
-43.0
-46.45
-49.31
-51.82
-54.36
-57.09
-59.67
-61.08
-59.84
-54.5
-44.27
-29.49
-11.58
7.39
25.34
40.8
53.12
62.32
68.74
72.68
74.12
72.93
69.05
62.8
54.95
46.54
38.63
31.93
26.66
22.54
19.0
15.41
11.2
5.99
-0.42
-8.02
-16.62
-25.75
-34.76
-42.97
-49.85
-55.2
-59.14
-62.1
-64.68
-67.46
-70.79
-74.57
-78.11
-80.25
-79.68
-75.35
-66.92
-54.83
-40.24
-24.58
-9.24
4.71
16.59
25.99
32.79
37.07
39.13
39.46
38.58
36.9
34.64
31.87
28.62
24.96
21.1
17.33
13.89
10.85
8.08
5.39
2.6
-0.3
-3.14
-5.63
-7.57
-8.92
-9.95
-11.09
-12.74
-15.21
-18.51
-22.44
-26.52
-30.03
-32.11
-31.92
-28.82
-22.59
-13.65
-2.93
8.34
18.98
28.14
35.48
41.05
45.13
48.0
49.75
50.31
49.53
47.39
44.11
40.16
36.13
32.47
29.38
26.79
24.46
22.21
20.01
17.92
16.0
14.13
11.97
9.12
5.29
0.45
-5.12
-10.99
-16.76
-22.2
-27.24
-31.93
-36.17
-39.62
-41.69
-41.74
-39.29
-34.29
-27.18
-18.85
-10.35
-2.64
3.63
8.27
11.42
13.44
14.62
15.16
15.15
14.64
13.7
12.46
11.11
9.77
8.49
7.21
5.9
4.57
3.31
2.23
1.43
0.95
0.84
1.07
1.6
2.28
2.88
3.05
2.44
0.86
-1.53
-4.25
-6.54
-7.61
-6.89
-4.2
0.3
6.18
12.95
20.12
27.31
34.21
40.57
46.18
50.93
54.76
57.62
59.28
59.38
57.49
53.37
47.11
39.18
30.35
21.43
13.06
5.58
-0.92
-6.48
-11.14
-14.94
-17.85
-19.94
-21.17
-21.55
-21.05
-19.72
-17.77
-15.67
-14.04
-13.46
-14.24
-16.24
-18.95
-21.71
-23.96
-25.41
-26.01
-25.83
-24.89
-23.26
-21.12
-18.93
-17.38
-17.2
-18.91
-22.56
-27.67
-33.38
-38.74
-43.01
-45.74
-46.91
-46.84
-46.1
-45.35
-45.21
-46.02
-47.75
-50.01
-52.17
-53.63
-54.14
-53.87
-53.32
-53.13
-53.71
-55.15
-57.23
-59.6
-62.01
-64.31
-66.43
-68.19
-69.29
-69.28
-67.71
-64.24
-58.69
-51.03
-41.39
-30.04
-17.52
-4.58
7.87
19.01
28.41
36.14
42.77
49.09
55.65
62.54
69.19
74.68
77.98
78.51
76.27
71.88
66.29
60.47
54.99
49.96
45.04
39.57
32.98
24.84
14.94
3.26
-9.97
-24.4
-39.41
-54.17
-67.59
-78.55
-86.04
-89.48
-88.94
-85.12
-79.12
-72.2
-65.34
-59.05
-53.48
-48.5
-43.94
-39.7
-35.79
-32.17
-28.73
-25.32
-21.95
-18.88
-16.62
-15.64
-16.06
-17.6
-19.63
-21.48
-22.81
-23.82
-25.0
-26.93
-29.78
-33.21
-36.6
-39.43
-41.6
-43.6
-46.17
-49.92
-54.8
-59.96
-63.82
-64.61
-60.98
-52.44
-39.64
-24.12
-7.94
6.97
19.28
28.51
34.98
39.42
42.5
44.45
45.03
43.69
40.0
34.0
26.36
18.26
10.98
5.35
1.5
-1.11
-3.37
-6.06
-9.48
-13.36
-17.12
-20.24
-22.64
-24.65
-26.97
-30.32
-35.16
-41.6
-49.17
-56.91
-63.41
-67.14
-66.8
-61.7
-52.03
-38.79
-23.48
-7.7
7.38
21.12
33.27
43.72
52.17
58.08
60.8
59.94
55.65
48.75
40.59
32.64
25.92
20.77
16.86
13.51
10.08
6.21
1.96
-2.29
-6.04
-8.89
-10.68
-11.61
-12.24
-13.49
-16.3
-21.41
-28.85
-37.72
-46.35
-52.73
-55.12
-52.67
-45.59
-35.0
-22.45
-9.31
3.51
15.66
27.0
37.26
45.88
52.09
55.18
54.81
51.24
45.34
38.36
31.56
25.8
21.5
18.46
16.09
13.68
10.68
7.04
3.12
-0.45
-3.09
-4.53
-4.92
-4.89
-5.21
-6.72
-9.92
-14.96
-21.45
-28.56
-35.03
-39.46
-40.61
-37.69
-30.52
-19.49
-5.44
10.66
27.72
44.63
60.28
73.59
83.63
89.69
91.52
89.41
84.18
77.05
69.29
61.98
55.66
50.37
45.71
41.28
36.82
32.52
28.9
26.39
25.18
24.97
24.99
24.31
22.19
18.22
12.52
5.55
-2.2
-10.39
-18.82
-27.27
-35.26
-41.89
-45.96
-46.37
-42.49
-34.56
-23.68
-11.52
0.17
9.98
17.17
21.62
23.73
24.04
22.97
20.77
17.45
13.02
7.69
1.94
-3.56
-7.99
-10.76
-11.6
-10.61
-8.26
-5.23
-2.27
-0.01
1.06
0.79
-0.76
-3.32
-6.7
-10.86
-15.97
-22.25
-29.68
-37.74
-45.2
-50.34
-51.42
-47.26
-37.75
-23.88
-7.49
9.28
24.64
37.47
47.38
54.51
59.17
61.63
62.08
60.7
57.73
53.56
48.63
43.47
38.6
34.53
31.59
29.9
29.3
29.25
29.09
28.17
26.14
23.12
19.65
16.24
13.19
10.26
6.76
1.76
-5.48
-15.03
-25.99
-36.57
-44.48
-47.7
-45.1
-36.88
-24.48
-9.99
4.53
17.76
29.18
38.89
46.95
53.2
57.07
57.99
55.79
50.84
44.13
36.81
29.97
24.27
19.95
16.87
14.62
12.71
10.62
8.05
5.01
1.85
-0.9
-2.83
-3.89
-4.58
-5.78
-8.43
-13.1
-19.73
-27.59
-35.48
-42.08
-46.25
-47.19
-44.58
-38.55
-29.58
-18.4
-5.83
7.35
20.3
32.28
42.51
50.26
54.98
56.4
54.81
50.97
46.03
41.06
36.83
33.55
30.89
28.32
25.36
21.92
18.32
15.09
12.66
10.98
9.62
7.87
5.18
1.38
-3.17
-7.87
-12.22
-16.16
-20.16
-24.86
-30.69
-37.43
-44.04
-48.91
-50.32
-47.18
-39.31
-27.63
-13.78
0.34
13.11
23.48
31.07
35.98
38.58
39.32
38.55
36.62
33.79
30.29
26.31
22.01
17.61
13.46
9.99
7.57
6.39
6.26
6.63
6.7
5.73
3.35
-0.25
-4.39
-8.34
-11.54
-14.02
-16.35
-19.42
-24.04
-30.47
-38.18
-45.87
-51.89
-54.72
-53.42
-47.94
-39.05
-28.03
-16.25
-4.85
5.54
14.65
22.36
28.58
33.13
35.74
36.27
34.73
31.46
27.05
22.27
17.83
14.27
11.9
10.68
10.29
10.27
10.08
9.41
8.21
6.66
5.03
3.51
2.03
0.25
-2.29
-5.95
-10.74
-16.29
-21.97
-27.25
-31.99
-36.46
-41.21
-46.64
-52.47
-57.72
-60.81
-60.09
-54.62
-44.56
-31.16
-16.38
-2.19
9.92
19.19
25.61
29.61
31.78
32.56
32.3
31.2
29.39
26.97
24.07
20.82
17.45
14.29
11.64
9.79
8.84
8.64
8.81
8.74
7.85
5.76
2.5
-1.49
-5.62
-9.33
-12.39
-14.96
-17.52
-20.64
-24.86
-30.4
-37.08
-44.31
-51.04
-55.88
-57.5
-55.02
-48.38
-38.47
-26.69
-14.52
-2.94
7.66
17.21
25.61
32.41
36.88
38.49
37.21
33.75
29.35
25.22
22.15
20.31
19.38
18.85
18.22
17.27
15.96
14.43
12.91
11.58
10.55
9.64
8.5
6.61
3.61
-0.6
-5.66
-10.95
-15.88
-20.15
-23.98
-28.02
-33.09
-39.7
-47.72
-56.12
-63.11
-66.67
-65.24
-58.32
-46.71
-32.23
-17.08
-3.06
8.86
18.65
26.7
33.4
38.7
42.18
43.38
42.15
38.95
34.65
30.33
26.75
24.24
22.59
21.46
20.51
19.53
18.55
17.6
16.73
15.85
14.84
13.49
11.57
8.9
5.37
1.05
-3.88
-9.09
-14.22
-19.1
-23.74
-28.44
-33.6
-39.65
-46.73
-54.42
-61.64
-66.73
-67.98
-64.09
-54.87
-41.34
-25.43
-9.38
5.0
16.69
25.65
32.33
37.35
41.0
43.26
43.94
42.94
40.53
37.29
34.03
31.47
29.95
29.38
29.35
29.38
29.11
28.37
27.12
25.45
23.41
21.07
18.51
15.75
12.76
9.32
5.18
0.16
-5.68
-11.9
-17.94
-23.26
-27.76
-31.84
-36.31
-42.01
-49.31
-57.66
-65.55
-70.89
-71.6
-66.49
-55.68
-40.59
-23.48
-6.64
8.22
20.38
29.92
37.37
43.11
47.21
49.45
49.54
47.5
43.77
39.17
34.67
31.01
28.49
26.96
26.0
25.13
24.03
22.65
21.13
19.76
18.67
17.74
16.59
14.68
11.59
7.17
1.7
-4.26
-10.04
-15.22
-19.74
-24.01
-28.7
-34.48
-41.65
-49.8
-57.77
-63.86
-66.26
-63.65
-55.69
-43.12
-27.51
-10.78
5.22
19.07
29.97
37.65
42.33
44.59
45.09
44.42
42.88
40.49
37.22
33.17
28.83
24.93
22.16
20.89
20.99
21.85
22.69
22.84
21.95
20.05
17.39
14.31
11.05
7.71
4.21
0.39
-3.9
-8.74
-14.04
-19.64
-25.36
-31.21
-37.33
-43.8
-50.38
-56.34
-60.4
-61.17
-57.54
-49.16
-36.59
-21.17
-4.62
11.37
25.41
36.56
44.35
48.77
50.26
49.58
47.58
44.95
42.16
39.34
36.55
33.87
31.4
29.38
27.89
26.92
26.27
25.71
25.05
24.19
23.08
21.6
19.61
16.95
13.56
9.48
4.85
-0.08
-5.2
-10.42
-15.65
-20.83
-25.85
-30.72
-35.68
-41.15
-47.5
-54.71
-62.06
-68.11
-71.16
-69.82
-63.47
-52.45
-38.0
-21.76
-5.42
9.65
22.46
32.46
39.45
43.58
45.27
45.02
43.32
40.61
37.28
33.69
30.2
27.05
24.37
22.16
20.38
19.06
18.3
18.13
18.43
18.76
18.52
17.17
14.45
10.64
6.29
2.07
-1.59
-4.71
-7.72
-11.19
-15.6
-21.12
-27.6
-34.58
-41.49
-47.55
-51.9
-53.56
-51.61
-45.55
-35.42
-22.07
-6.97
8.09
21.5
32.17
39.67
44.11
45.84
45.3
42.92
39.13
34.47
29.52
24.88
20.97
17.93
15.59
13.73
12.16
10.86
9.85
9.07
8.27
7.01
4.87
1.62
-2.57
-7.21
-11.69
-15.55
-18.74
-21.64
-24.98
-29.54
-35.83
-43.73
-52.34
-60.15
-65.32
-66.38
-62.53
-53.98
-41.81
-27.5
-12.61
1.67
14.53
25.44
33.91
39.65
42.52
42.77
41.03
38.15
34.91
31.73
28.71
25.62
22.33
18.95
15.85
13.51
12.17
11.7
11.59
11.19
9.94
7.67
4.58
1.04
-2.56
-6.1
-9.67
-13.49
-17.71
-22.39
-27.51
-33.07
-39.21
-46.03
-53.33
-60.33
-65.59
-67.39
-64.24
-55.63
-42.24
-25.84
-8.72
7.03
20.01
29.78
36.54
40.84
43.1
43.59
42.46
39.88
36.2
31.9
27.52
23.52
20.22
17.71
16.01
15.03
14.57
14.37
14.09
13.36
11.93
9.6
6.39
2.42
-2.01
-6.52
-10.73
-14.46
-17.89
-21.52
-26.09
-32.09
-39.58
-47.83
-55.52
-61.01
-62.96
-60.61
-53.99
-43.81
-31.08
-17.03
-2.76
10.77
22.78
32.59
39.75
44.04
45.56
44.69
42.07
38.43
34.53
30.95
27.98
25.66
23.73
21.87
19.92
17.91
16.09
14.73
13.9
13.35
12.54
10.84
7.83
3.56
-1.52
-6.67
-11.27
-15.05
-18.17
-21.26
-25.1
-30.44
-37.57
-46.17
-55.06
-62.51
-66.62
-65.9
-59.9
-49.26
-35.65
-21.0
-6.99
5.51
16.29
25.48
33.16
39.03
42.55
43.26
41.15
36.85
31.52
26.47
22.68
20.52
19.65
19.34
18.89
17.95
16.63
15.32
14.4
13.87
13.39
12.3
10.09
6.59
2.04
-2.95
-7.72
-11.78
-15.09
-18.01
-21.25
-25.58
-31.51
-38.98
-47.14
-54.44
-59.03
-59.37
-54.7
-45.38
-32.71
-18.46
-4.33
8.44
19.22
27.81
34.23
38.52
40.75
41.06
39.7
37.06
33.6
29.7
25.76
22.15
19.15
17.03
15.89
15.65
15.93
16.12
15.64
14.08
11.42
7.99
4.38
1.02
-1.92
-4.73
-7.96
-12.13
-17.43
-23.75
-30.66
-37.74
-44.59
-50.81
-55.84
-58.77
-58.64
-54.58
-46.32
-34.4
-20.17
-5.32
8.52
20.18
29.05
34.95
38.05
38.64
37.22
34.41
30.91
27.37
24.22
21.52
19.08
16.59
14.0
11.52
9.59
8.6
8.56
8.96
8.9
7.48
4.18
-0.81
-6.75
-12.59
-17.55
-21.37
-24.47
-27.72
-32.12
-38.41
-46.61
-55.91
-64.67
-70.89
-72.79
-69.44
-61.07
-48.94
-34.92
-20.68
-7.3
4.88
15.88
25.68
33.91
39.93
43.12
43.3
41.01
37.31
33.39
30.25
28.2
27.05
26.19
25.03
23.29
21.12
18.91
17.02
15.58
14.29
12.68
10.26
6.86
2.57
-2.24
-7.18
-11.95
-16.46
-20.9
-25.64
-31.15
-37.78
-45.49
-53.59
-60.74
-65.12
-65.04
-59.61
-49.1
-34.97
-19.32
-4.22
8.97
19.74
28.24
34.86
39.85
43.14
44.56
44.07
41.95
38.83
35.45
32.45
30.15
28.55
27.38
26.37
25.33
24.21
23.01
21.68
20.13
18.18
15.66
12.54
8.88
4.85
0.61
-3.75
-8.23
-12.86
-17.74
-23.02
-28.9
-35.58
-43.03
-50.86
-58.08
-63.39
-65.41
-63.15
-56.42
-45.79
-32.47
-17.88
-3.38
9.95
21.3
30.21
36.48
40.21
41.8
41.78
40.65
38.71
36.04
32.72
28.95
25.21
22.16
20.35
19.97
20.7
21.83
22.49
22.09
20.46
17.85
14.79
11.81
9.14
6.65
3.93
0.49
-3.98
-9.52
-15.91
-22.79
-29.71
-36.2
-41.64
-45.24
-46.18
-43.68
-37.43
-27.76
-15.57
-2.24
10.8
22.27
31.32
37.44
40.67
41.32
39.99
37.48
34.48
31.48
28.69
26.06
23.38
20.59
17.79
15.28
13.4
12.25
11.63
11.05
9.89
7.64
4.22
-0.04
-4.54
-8.62
-12.04
-14.96
-18.01
-22.03
-27.68
-35.02
-43.38
-51.32
-57.02
-58.85
-55.86
-48.24
-37.14
-24.33
-11.5
0.19
10.36
19.18
26.87
33.4
38.35
41.12
41.33
39.13
35.29
30.92
27.14
24.58
23.29
22.77
22.3
21.27
19.45
17.04
14.5
12.24
10.41
8.78
6.91
4.3
0.7
-3.79
-8.79
-13.93
-19.05
-24.35
-30.35
-37.49
-45.83
-54.77
-62.99
-68.85
-70.81
-67.93
-60.23
-48.69
-34.92
-20.73
-7.64
3.51
12.57
19.87
25.93
31.06
35.23
38.07
39.17
38.3
35.69
31.91
27.81
24.25
21.75
20.42
19.96
19.79
19.22
17.77
15.18
11.54
7.17
2.45
-2.31
-7.0
-11.67
-16.43
-21.38
-26.59
-32.04
-37.71
-43.6
-49.47
-54.74
-58.41
-59.28
-56.31
-49.1
-38.09
-24.57
-10.26
3.18
14.63
23.65
30.37
35.22
38.58
40.64
41.48
41.08
39.61
37.33
34.53
31.43
28.17
24.78
21.39
18.29
15.84
14.29
13.59
13.29
12.77
11.47
9.22
6.29
3.26
0.67
-1.17
-2.4
-3.51
-5.07
-7.67
-11.68
-17.17
-23.83
-30.88
-37.14
-41.21
-41.87
-38.4
-30.88
-20.22
-7.75
5.11
17.25
27.98
36.94
43.88
48.65
51.14
51.4
49.8
46.88
43.25
39.42
35.7
32.18
28.89
25.83
23.09
