-92.07
-86.59
-74.24
-57.34
-38.83
-21.0
-4.97
9.12
21.6
32.6
41.68
48.1
51.32
51.34
48.99
45.59
42.41
40.23
39.07
38.33
37.24
35.31
32.56
29.56
27.11
25.74
25.44
25.44
24.51
21.59
16.21
8.87
0.73
-6.78
-12.72
-17.05
-20.69
-25.2
-32.02
-41.97
-54.71
-68.89
-82.34
-92.69
-97.82
-96.58
-88.93
-75.98
-59.52
-41.52
-23.5
-6.39
9.38
23.58
35.78
45.48
52.14
55.75
56.84
56.39
55.32
54.27
53.23
51.62
48.87
44.61
39.25
33.73
29.32
26.97
26.97
28.56
30.21
30.15
26.96
20.37
11.29
1.52
-7.04
-13.18
-16.95
-19.57
-22.89
-28.67
-37.79
-49.96
-63.77
-77.0
-87.28
-92.57
-91.59
-84.15
-71.16
-54.33
-35.7
-17.06
0.47
16.34
30.34
42.24
51.49
57.54
60.15
59.81
57.65
55.2
53.48
52.75
52.39
51.25
48.53
44.16
38.97
34.3
31.35
30.5
31.22
32.25
32.1
29.71
24.79
17.84
10.02
2.58
-3.58
-8.23
-11.9
-15.69
-20.69
-27.62
-36.62
-47.11
-58.23
-68.99
-78.4
-85.42
-88.9
-87.66
-80.88
-68.58
-51.68
-32.09
-11.98
6.67
22.53
35.11
44.42
50.79
54.49
55.98
55.56
53.65
50.67
46.94
42.84
38.75
35.03
31.95
29.68
28.1
26.93
25.91
24.82
23.63
22.35
20.86
18.86
16.03
12.09
7.01
1.15
-5.09
-11.22
-16.99
-22.46
-27.97
-34.12
-41.5
-50.45
-60.73
-71.36
-80.54
-86.13
-86.27
-80.04
-67.96
-51.7
-33.47
-15.33
1.38
16.13
28.75
39.07
46.78
51.38
52.74
51.3
47.98
43.99
40.35
37.55
35.55
33.99
32.38
30.5
28.43
26.46
25.02
24.32
24.21
24.13
23.25
20.73
16.18
9.85
2.46
-4.85
-11.2
-16.31
-20.6
-25.19
-31.4
-40.13
-51.27
-63.53
-74.54
-81.61
-82.55
-76.39
-63.82
-46.88
-28.23
-10.26
5.46
18.47
28.97
37.37
43.9
48.44
50.81
50.95
49.22
46.2
42.69
39.3
36.37
34.01
32.07
30.4
28.8
27.22
25.65
24.18
22.82
21.5
19.97
17.73
14.31
9.43
3.23
-3.71
-10.64
-16.96
-22.46
-27.39
-32.51
-38.76
-47.05
-57.8
-70.59
-83.96
-95.52
-102.51
-102.59
-94.88
-80.27
-61.3
-41.18
-22.56
-6.74
6.43
17.92
28.63
38.66
47.23
53.14
55.57
54.67
51.56
47.86
44.98
43.45
42.89
42.43
41.26
39.15
36.57
34.31
33.02
32.83
33.16
32.92
30.98
26.51
19.41
10.37
0.69
-8.14
-14.94
-19.42
-22.31
-25.1
-29.63
-37.23
-48.2
-61.64
-75.48
-87.1
-94.05
-94.69
-88.69
-77.13
-61.96
-45.31
-28.8
-13.08
1.84
16.1
29.43
40.97
49.49
54.18
55.08
53.28
50.55
48.47
47.76
48.05
48.25
47.1
44.15
39.87
35.54
32.55
31.65
32.55
34.0
34.4
32.28
27.12
19.36
10.26
1.47
-5.73
-10.81
-14.22
-17.11
-21.0
-27.04
-35.74
-46.75
-58.93
-70.77
-80.49
-86.44
-87.37
-82.72
-72.74
-58.61
-42.0
-24.61
-7.84
7.6
21.39
33.37
43.26
50.62
55.03
56.45
55.51
53.22
50.68
48.56
46.93
45.36
43.27
40.35
36.78
33.29
30.61
29.23
28.97
29.01
28.26
25.75
21.11
14.62
7.25
0.15
-5.78
-10.34
-13.99
-17.69
-22.5
-29.1
-37.66
-47.81
-58.77
-69.36
-78.12
-83.48
-84.1
-79.23
-69.04
-54.65
-37.82
-20.5
-4.25
9.88
21.49
30.54
37.13
41.48
43.9
44.73
44.4
43.24
41.42
39.0
36.03
32.75
29.51
26.83
25.06
24.35
24.34
24.45
23.9
22.15
19.01
14.77
9.88
4.78
-0.29
-5.4
-10.64
-16.13
-21.87
-27.87
-34.2
-41.16
-49.07
-57.78
-66.42
-73.22
-75.99
-72.91
-63.27
-47.9
-29.04
-9.6
7.77
21.43
31.03
37.3
41.36
44.27
46.49
47.93
48.11
46.51
42.96
37.86
32.1
26.77
22.88
20.86
20.45
20.8
20.76
19.44
16.5
12.24
7.37
2.71
-1.33
-4.82
-8.32
-12.59
-18.16
-25.15
-33.26
-41.93
-50.74
-59.57
-68.41
-77.11
-84.89
-90.33
-91.66
-87.32
-76.69
-60.64
-41.26
-21.33
-3.45
10.81
21.15
28.37
33.8
38.6
43.25
47.4
50.22
50.94
49.34
45.94
41.75
37.86
35.04
33.43
32.68
32.17
31.36
29.94
27.83
25.07
21.76
17.8
13.13
7.7
1.67
-4.59
-10.65
-16.19
-21.32
-26.39
-32.1
-39.17
-48.04
-58.69
-70.24
-81.08
-89.1
-92.22
-88.98
-79.19
-64.04
-45.78
-27.0
-9.76
4.83
16.71
26.4
34.44
41.04
46.13
49.51
51.15
51.32
50.48
49.08
47.46
45.68
43.67
41.27
38.38
35.16
31.97
29.3
27.48
26.54
25.93
24.82
22.29
17.87
11.7
4.57
-2.44
-8.43
-13.13
-17.03
-21.1
-26.45
-33.83
-43.33
-54.34
-65.64
-75.57
-82.46
-84.83
-81.79
-73.18
-59.69
-42.78
-24.36
-6.34
9.8
23.13
33.29
40.32
44.61
46.68
47.23
47.0
46.7
46.66
46.76
46.42
44.93
41.85
37.38
32.34
27.9
25.03
24.07
24.61
25.59
25.83
24.39
20.86
15.5
9.04
2.32
-3.97
-9.61
-14.9
-20.49
-27.02
-34.89
-44.02
-53.86
-63.61
-72.25
-78.86
-82.53
-82.51
-78.29
-69.75
-57.27
-41.83
-24.89
-8.13
6.77
18.56
26.56
30.88
32.32
32.06
31.26
30.6
30.13
29.38
27.78
24.95
21.14
17.12
13.92
12.23
12.17
13.08
13.81
13.23
10.68
6.28
0.8
-4.77
-9.69
-13.82
-17.55
-21.65
-26.83
-33.5
-41.65
-50.86
-60.39
-69.14
-75.83
-79.08
-77.82
-71.61
-60.89
-46.84
-31.09
-15.23
-0.51
12.21
22.49
30.06
34.92
37.29
37.7
36.79
35.22
33.38
31.38
29.06
26.25
22.97
19.53
16.39
13.95
12.29
11.06
9.59
7.11
3.13
-2.41
-8.98
-15.74
-21.77
-26.56
-30.13
-33.16
-36.84
-42.41
-50.68
-61.61
-74.08
-86.0
-94.78
-98.06
-94.35
-83.5
-66.7
-46.0
-23.89
-2.58
16.16
31.35
42.72
50.64
55.9
59.51
62.33
64.75
66.56
67.11
65.82
62.64
58.15
53.43
49.69
47.58
46.99
47.07
46.61
44.66
40.83
35.39
29.11
22.84
17.1
11.89
6.8
1.28
-5.08
-12.34
-20.41
-29.12
-38.53
-48.6
-58.95
-68.49
-75.44
-77.89
-74.37
-64.59
-49.46
-31.04
-11.8
6.11
21.24
33.15
42.12
48.88
54.2
58.64
62.29
64.92
66.16
65.67
63.55
60.24
56.52
53.22
50.91
49.72
49.27
48.94
47.95
45.9
42.81
39.13
35.52
32.42
29.82
27.18
23.72
18.78
12.25
4.7
-3.0
-9.97
-15.94
-21.25
-26.89
-33.96
-43.24
-54.81
-67.81
-80.63
-90.99
-96.64
-95.77
-87.71
-73.21
-54.28
-33.68
-14.1
2.61
15.87
26.04
34.01
40.55
45.84
49.75
51.95
52.35
51.3
49.49
47.57
45.95
44.69
43.51
42.21
40.75
39.29
38.1
37.29
36.69
35.81
34.11
30.96
26.14
19.81
12.52
5.11
-1.7
-7.47
-12.29
-16.73
-21.68
-27.94
-35.99
-45.76
-56.54
-67.13
-75.91
-81.12
-81.39
-76.1
-65.59
-51.16
-34.66
-17.83
-2.03
12.07
24.24
34.28
41.98
46.97
49.14
48.78
46.73
43.96
41.3
39.08
37.03
34.75
31.94
28.74
25.71
23.56
22.64
22.63
22.62
21.41
18.22
12.93
6.34
-0.29
-5.75
-9.61
-12.39
-15.26
-19.6
-26.32
-35.56
-46.68
-58.5
-69.69
-78.85
-84.73
-86.27
-82.71
-73.93
-60.54
-43.81
-25.38
-6.98
9.95
24.37
35.69
43.86
49.26
52.69
55.07
57.17
59.1
60.36
59.98
57.15
51.77
44.71
37.65
32.25
29.57
29.46
30.69
31.42
30.04
25.87
19.35
11.86
4.96
-0.32
-3.84
-6.37
-9.33
-14.08
-21.56
-32.04
-45.06
-59.57
-74.04
-86.66
-95.54
-99.19
-96.69
-88.06
-74.13
-56.33
-36.31
-15.65
4.28
22.37
37.66
49.52
57.85
63.06
66.08
67.95
69.39
70.5
70.82
69.62
66.46
61.58
55.88
50.62
46.88
45.04
44.59
44.25
42.52
38.18
30.94
21.48
11.32
2.05
-5.24
-10.44
-14.52
-18.98
-25.27
-34.24
-45.75
-58.62
-71.08
-81.19
-87.21
-88.13
-83.7
-74.52
-61.79
-46.85
-30.93
-14.98
0.16
13.77
24.98
33.11
37.84
39.48
38.96
37.52
36.22
35.44
34.97
34.02
31.86
28.28
23.68
19.13
15.65
13.78
13.24
13.01
11.72
8.4
2.93
-4.02
-11.16
-17.33
-21.91
-25.2
-28.23
-32.41
-38.86
-47.94
-59.03
-70.36
-79.67
-84.72
-84.11
-77.83
-67.16
-54.2
-41.05
-29.14
-18.87
-10.03
-2.19
4.82
10.68
15.03
17.67
18.82
19.06
19.06
19.16
19.27
19.04
18.05
16.33
14.32
12.68
12.05
12.63
13.97
15.18
15.3
13.62
10.26
5.87
1.39
-2.48
-5.78
-9.29
-14.27
-21.78
-32.17
-44.46
-56.58
-65.89
-70.0
-67.88
-60.02
-48.3
-35.15
-22.61
-11.64
-2.04
6.89
15.82
24.62
32.53
38.58
42.11
43.14
42.36
40.68
38.89
37.37
35.97
34.28
32.02
29.13
25.94
23.01
20.79
19.39
18.52
17.46
15.42
11.89
6.9
1.0
-4.93
-10.08
-14.15
-17.47
-21.11
-26.33
-33.94
-43.63
-53.77
-61.61
-64.31
-59.97
-48.45
-31.65
-12.65
5.34
20.23
31.32
39.42
45.78
51.47
56.86
61.45
64.49
65.3
63.8
60.42
56.07
51.62
47.65
44.35
41.38
38.28
34.55
30.09
25.03
19.97
15.5
12.04
9.71
8.04
6.29
3.59
-0.48
-5.85
-11.66
-16.77
-20.25
-21.78
-22.13
-22.77
-25.49
-31.43
-40.59
-51.27
-60.61
-65.47
-63.43
-53.95
-38.44
-19.88
-1.53
14.09
26.14
35.31
42.96
50.34
57.59
63.94
68.0
68.8
66.15
61.04
55.05
49.73
46.04
43.89
42.43
40.49
37.3
32.8
27.88
23.8
21.56
21.46
22.77
24.19
24.46
22.94
19.9
16.46
14.03
13.69
15.97
20.43
26.15
31.92
36.71
39.94
41.62
42.23
42.35
42.52
42.82
43.03
42.77
41.81
40.31
38.84
38.0
38.11
39.06
40.09
40.32
38.94
35.58
30.39
24.0
17.14
10.53
4.67
-0.32
-4.65
-8.9
-13.83
-20.07
-27.67
-36.08
-44.25
-51.1
-56.14
-59.7
-62.83
-66.75
-72.28
-79.37
-87.26
-94.81
-101.11
-106.04
-110.37
-115.5
-122.74
-132.63
-144.11
-154.74
-161.24
-160.73
-151.88
-135.45
-113.97
-90.67
-68.41
-48.63
-31.45
-16.21
-2.16
10.74
21.92
30.39
35.34
36.38
33.93
28.86
22.39
15.64
9.34
3.85
-0.9
-5.14
-9.18
-13.01
-16.42
-19.07
-20.73
-21.68
-22.69
-24.91
-29.43
-36.97
-47.29
-59.52
-72.38
-84.74
-96.26
-107.28
-118.55
-130.42
-142.27
-152.08
-156.95
-154.1
-141.88
-120.8
-93.31
-63.3
-34.76
-10.84
7.14
19.53
27.75
33.52
37.85
40.95
42.17
40.73
36.13
28.86
20.22
11.9
5.51
1.76
0.49
0.66
1.06
0.69
-0.64
-2.37
-3.55
-3.36
-1.82
0.26
1.41
0.22
-4.18
-11.73
-21.6
-32.59
-43.31
-52.64
-59.56
-63.27
-63.14
-59.03
-51.16
-40.09
-26.53
-10.86
6.41
24.58
42.31
57.73
68.86
74.59
75.2
72.35
68.43
65.4
64.05
63.85
63.47
61.6
57.87
53.01
48.51
45.95
46.12
48.75
52.45
55.25
55.31
51.75
44.97
36.41
28.0
21.14
16.15
12.23
7.84
1.47
-7.68
-19.46
-32.67
-45.38
-55.53
-61.29
-61.55
-56.12
-45.67
-31.5
-15.19
1.79
18.21
32.79
44.14
50.71
51.25
45.35
33.81
18.75
2.97
-10.87
-21.24
-27.87
-31.77
-34.47
-37.38
-41.33
-46.35
-51.82
-56.73
-60.07
-61.1
-59.62
-56.01
-51.09
-45.83
-41.04
-37.21
-34.55
-33.13
-33.04
-34.32
-36.6
-38.87
-39.42
-36.28
-28.03
-14.45
3.32
23.12
42.69
60.49
76.0
89.45
101.13
110.81
117.78
121.28
121.17
118.2
113.78
109.41
106.15
104.37
103.92
104.47
105.58
106.62
106.73
104.93
100.45
93.23
84.19
74.86
66.92
61.38
58.23
56.52
54.78
51.59
46.1
38.33
29.16
20.34
13.92
11.74
14.74
22.62
33.81
46.16
57.61
66.81
73.42
77.78
80.42
81.5
80.73
77.45
71.1
61.5
48.86
33.75
16.83
-1.33
-20.17
-39.22
-57.91
-75.51
-91.17
-104.07
-113.54
-119.28
-121.46
-120.68
-117.86
-113.97
-109.96
-106.72
-105.08
-105.66
-108.87
-114.45
-121.32
-127.53
-130.67
-128.44
-119.38
-103.32
-81.46
-56.08
-30.02
-6.02
13.75
28.18
37.39
42.57
45.5
47.84
50.49
53.46
56.12
57.77
58.25
58.07
58.07
58.87
60.4
61.97
62.73
62.19
60.44
57.98
55.34
52.59
49.32
44.96
39.05
31.6
22.92
13.46
3.57
-6.37
-15.8
-23.74
-28.82
-29.82
-26.04
-17.74
-6.15
6.91
19.61
30.58
39.16
45.35
49.42
51.77
52.65
52.27
50.66
47.89
44.03
39.22
33.75
27.99
22.41
17.43
13.33
10.09
7.45
5.07
2.66
0.13
-2.44
-4.89
-7.17
-9.49
-12.31
-16.23
-21.69
-28.73
-36.81
-44.74
-50.93
-53.76
-52.13
-45.77
-35.35
-22.07
-7.34
7.73
22.4
36.23
48.84
59.8
68.68
75.16
79.36
81.72
82.96
83.72
84.31
84.67
84.47
83.44
81.54
79.16
76.84
74.98
73.71
72.54
70.7
67.33
61.74
53.64
43.18
30.85
17.35
3.43
-10.34
-23.53
-35.86
-47.01
-56.43
-63.16
-66.03
-63.97
-56.48
-44.01
-27.99
-10.41
6.69
21.72
33.93
43.19
49.7
53.6
54.7
52.49
46.46
36.35
22.39
5.37
-13.56
-33.14
-52.16
-69.77
-85.47
-99.12
-110.78
-120.8
-129.57
-137.76
-146.21
-155.72
-166.76
-179.11
-191.66
-202.74
-210.8
-214.9
-215.31
-213.17
-209.85
-206.2
-202.03
-196.14
-186.93
-173.14
-154.23
-130.68
-103.72
-74.88
-45.88
-18.36
6.16
26.4
41.42
51.14
56.37
58.81
60.55
63.09
66.94
71.34
74.91
76.37
75.54
73.24
70.96
69.85
70.01
70.5
69.87
67.1
62.05
55.68
49.36
44.06
40.01
36.48
32.37
26.61
18.77
8.93
-2.1
-13.31
-23.49
-31.35
-35.93
-36.57
-33.37
-26.97
-18.49
-9.07
0.41
9.54
18.33
26.71
34.44
40.84
45.27
47.18
46.71
44.58
41.83
39.46
37.88
36.94
35.88
34.01
30.87
26.77
22.57
19.24
17.48
17.22
17.76
17.86
16.57
13.35
8.48
2.77
-3.04
-8.47
-13.75
-19.51
-26.34
-34.01
-41.4
-46.46
-47.02
-41.74
-30.6
-15.36
1.29
16.46
28.25
36.02
40.59
43.45
45.9
48.55
50.94
52.01
50.65
46.35
39.54
31.51
23.86
17.8
13.89
11.74
10.55
9.46
7.77
5.31
2.22
-1.15
-4.5
-7.52
-10.25
-13.02
-16.41
-21.3
-28.23
-37.31
-47.83
-58.41
-67.14
-72.3
-72.75
-68.25
-59.58
-47.91
-34.52
-20.37
-6.02
8.21
21.82
33.95
43.5
49.37
51.28
49.83
46.44
42.92
40.46
39.32
38.6
36.95
33.15
27.16
20.08
13.74
9.9
9.15
10.69
12.52
12.43
8.81
1.77
-7.24
-15.94
-22.26
-25.57
-26.85
-28.36
-32.51
-40.78
-52.48
-65.06
-74.85
-78.41
-74.09
-62.35
-45.66
-27.25
-10.02
4.65
16.85
27.51
37.69
47.46
56.08
62.16
64.62
63.04
58.27
51.86
45.54
40.75
37.81
36.25
34.97
32.93
29.41
24.62
19.34
14.59
11.29
9.56
8.88
8.17
6.27
2.31
-3.74
-11.17
-18.89
-25.87
-31.95
-37.68
-44.09
-51.79
-60.3
-67.77
-71.46
-68.97
-59.1
-42.76
-22.45
-1.44
17.33
32.04
42.26
48.76
52.83
55.92
58.74
61.43
63.44
63.81
61.75
57.01
50.22
42.65
35.87
30.92
28.14
26.97
26.28
25.04
22.73
19.39
15.55
11.85
8.52
5.33
1.79
-2.59
-7.88
-13.76
-19.91
-26.13
-32.65
-39.91
-48.08
-56.59
-63.98
-68.18
-67.34
-60.63
-48.4
-32.28
-14.36
3.4
19.53
33.24
44.11
51.92
56.59
58.46
58.06
56.15
53.48
50.37
46.84
42.68
37.81
32.46
27.28
22.98
19.94
18.2
17.01
15.64
13.38
9.95
5.57
0.89
-3.45
-7.06
-9.95
-12.74
-16.06
-20.6
-26.71
-34.19
-42.32
-49.81
-55.22
-57.06
-54.51
-47.3
-36.07
-22.02
-6.56
8.84
22.96
34.82
43.78
49.43
51.88
51.67
49.63
46.74
43.5
40.04
36.06
31.31
25.76
20.02
15.05
11.69
10.33
10.4
10.87
10.58
8.78
5.48
1.35
-2.71
-6.09
-8.68
-11.17
-14.41
-19.18
-25.82
-34.03
-43.09
-52.02
-59.72
-64.97
-66.83
-64.49
-57.61
-46.57
-32.29
-16.29
-0.26
14.25
26.24
35.12
40.92
44.02
44.83
43.98
41.95
39.18
36.03
32.66
29.05
25.21
21.12
16.86
12.78
9.3
6.82
5.56
5.22
5.19
4.59
2.74
-0.63
-5.15
-10.11
-14.7
-18.4
-21.37
-24.36
-28.29
-33.87
-40.94
-48.36
-54.32
-56.79
-54.24
-46.39
-34.18
-19.51
-4.55
9.12
20.87
30.84
39.66
47.66
54.44
59.02
60.3
57.73
51.95
44.59
37.68
32.82
30.57
30.29
30.68
30.52
29.34
27.66
26.54
26.9
29.11
32.62
36.37
39.26
40.6
40.37
39.26
38.14
37.92
39.07
41.46
44.43
47.12
48.85
49.69
50.59
53.15
59.12
69.55
84.24
101.7
119.44
134.77
145.57
151.13
152.17
150.51
148.14
146.22
144.52
141.33
134.16
120.75
100.17
73.25
42.35
10.52
-19.62
-46.39
-69.46
-89.44
-107.3
-123.62
-138.31
-150.63
-159.71
-165.17
-167.37
-167.4
-166.55
-165.8
-165.46
-165.31
-164.78
-163.26
-160.34
-155.68
-148.92
-139.66
-127.53
-112.3
-94.16
-73.68
-51.88
-30.21
-10.37
5.97
17.5
23.71
25.06
22.71
18.1
12.48
6.44
-0.02
-7.25
-15.68
-25.32
-35.58
-45.41
-53.5
-58.8
-61.06
-60.97
-59.93
-59.47
-60.35
-62.19
-63.57
-62.68
-58.32
-50.51
-40.55
-30.51
-22.33
-16.92
-13.95
-11.91
-8.74
-2.69
7.01
19.91
34.55
48.93
61.34
70.8
77.2
81.16
83.38
84.28
83.88
81.8
77.67
71.46
63.46
54.29
44.75
35.33
26.2
17.04
7.22
-3.82
-16.25
-29.55
-42.51
-53.53
-61.36
-65.58
-67.09
-67.67
-69.39
-73.64
-80.59
-89.14
-97.36
-103.51
-106.34
-105.54
-101.23
-93.71
-83.28
-70.28
-55.34
-39.53
-24.31
-11.03
-0.73
6.33
10.47
12.36
12.73
12.08
10.71
8.77
6.44
4.05
2.06
0.91
0.74
1.38
2.17
2.48
1.9
0.53
-1.1
-2.44
-3.34
-4.25
-6.02
