62.37
60.81
58.63
55.66
51.72
46.94
41.93
37.54
34.5
33.08
32.9
33.07
32.64
31.06
28.24
24.61
20.65
16.64
12.46
7.83
2.42
-3.79
-10.55
-17.49
-24.17
-30.44
-36.41
-42.59
-49.63
-58.04
-67.83
-78.18
-87.44
-93.33
-93.75
-87.38
-74.29
-55.98
-34.88
-13.66
5.5
21.37
33.73
43.03
50.06
55.49
59.61
62.32
63.29
62.26
59.29
54.83
49.68
44.74
40.85
38.39
37.36
37.29
37.53
37.44
36.53
34.7
32.16
29.29
26.29
23.08
19.26
14.34
8.07
0.61
-7.38
-15.05
-21.76
-27.44
-32.73
-38.73
-46.52
-56.58
-68.33
-80.09
-89.42
-93.9
-91.92
-83.29
-69.17
-51.61
-32.83
-14.52
2.29
17.23
30.15
40.94
49.3
55.02
58.1
58.81
57.66
55.17
51.86
48.17
44.46
41.02
38.08
35.7
33.85
32.33
30.89
29.33
27.61
25.76
23.86
21.82
19.33
15.96
11.3
5.31
-1.68
-8.9
-15.53
-21.02
-25.46
-29.61
-34.56
-41.29
-50.12
-60.41
-70.51
-78.11
-80.92
-77.53
-67.82
-52.95
-35.09
-16.6
0.64
15.5
27.74
37.62
45.38
51.08
54.66
56.03
55.31
52.95
49.42
45.24
40.85
36.61
32.78
29.67
27.52
26.38
26.02
25.93
25.5
24.33
22.38
19.84
16.93
13.83
10.43
6.49
1.78
-3.72
-9.78
-15.96
-21.78
-27.06
-31.94
-36.97
-42.94
-50.47
-59.68
-69.76
-78.94
-84.84
-85.41
-79.55
-67.67
-51.58
-33.77
-16.55
-1.34
11.55
22.5
32.02
40.23
46.78
51.12
52.9
52.31
50.0
46.87
43.65
40.68
37.93
35.25
32.58
30.08
28.02
26.49
25.4
24.41
23.1
21.2
18.68
15.67
12.31
8.6
4.31
-0.66
-6.3
-12.33
-18.25
-23.61
-28.25
-32.44
-36.96
-42.81
-50.7
-60.6
-71.43
-81.12
-87.2
-87.65
-81.67
-69.97
-54.53
-37.77
-21.69
-7.31
5.3
16.63
27.05
36.43
44.04
49.0
50.79
49.57
46.26
42.19
38.52
35.93
34.4
33.4
32.32
30.75
28.69
26.44
24.38
22.73
21.48
20.39
19.07
17.06
13.89
9.29
3.32
-3.55
-10.53
-16.81
-21.87
-25.73
-29.01
-32.67
-37.72
-44.79
-53.87
-64.21
-74.37
-82.38
-86.24
-84.56
-77.0
-64.52
-49.0
-32.59
-16.86
-2.5
10.65
22.99
34.52
44.58
52.01
55.88
56.02
53.33
49.38
45.83
43.66
42.8
42.35
41.18
38.59
34.85
30.99
28.32
27.69
29.05
31.41
33.29
33.33
30.74
25.59
18.67
11.19
4.28
-1.23
-5.18
-7.95
-10.42
-13.59
-18.39
-25.32
-34.21
-44.4
-54.59
-63.09
-68.09
-68.14
-62.59
-52.01
-37.95
-22.44
-7.29
6.37
18.23
28.35
36.7
42.79
45.89
45.51
41.89
36.15
29.8
24.16
19.7
15.94
11.77
6.28
-0.76
-8.68
-16.11
-21.67
-24.54
-24.76
-23.14
-20.94
-19.38
-19.32
-21.06
-24.3
-28.26
-32.1
-35.14
-37.12
-38.31
-39.37
-41.08
-44.11
-48.66
-54.33
-60.17
-64.73
-66.32
-63.42
-55.14
-41.62
-24.11
-4.5
15.3
34.01
51.11
66.68
80.88
93.53
104.01
111.72
116.57
119.38
121.8
125.42
131.06
138.18
144.94
148.95
148.28
142.12
131.17
117.12
101.9
86.75
71.87
56.56
39.8
20.96
0.24
-21.31
-42.15
-60.87
-76.85
-90.49
-102.98
-115.91
-130.61
-147.6
-166.29
-184.78
-200.21
-209.3
-209.36
-199.09
-179.22
-152.37
-122.27
-92.54
-65.79
-43.02
-24.03
-8.17
4.96
15.21
22.1
25.31
25.1
22.27
18.0
13.41
9.3
6.04
3.7
2.23
1.55
1.55
2.0
2.64
3.1
3.08
2.4
1.06
-0.81
-3.07
-5.75
-9.06
-13.31
-18.79
-25.67
-33.91
-43.25
-53.11
-62.52
-70.1
-74.2
-73.2
-66.1
-52.97
-35.11
-14.85
5.08
22.34
35.48
44.18
48.85
50.3
49.14
45.81
40.53
33.64
25.75
17.62
10.07
3.57
-1.72
-5.89
-9.13
-11.61
-13.44
-14.78
-15.92
-17.29
-19.36
-22.35
-26.16
-30.42
-34.7
-38.74
-42.66
-46.98
-52.38
-59.21
-67.06
-74.44
-79.04
-78.31
-70.5
-55.34
-34.4
-10.7
12.26
31.56
45.67
54.65
59.74
62.46
63.96
64.61
64.0
61.46
56.6
49.56
41.23
32.94
25.93
21.01
18.3
17.22
16.89
16.42
15.2
13.08
10.25
7.11
3.92
0.76
-2.58
-6.53
-11.62
-18.38
-27.2
-38.13
-50.66
-63.61
-75.09
-82.84
-84.75
-79.48
-66.97
-48.56
-26.58
-3.73
17.66
36.04
50.82
62.1
70.37
76.13
79.72
81.36
81.24
79.66
76.9
73.28
68.99
64.13
58.81
53.25
47.93
43.41
40.11
37.91
36.11
33.53
28.96
21.66
11.69
-0.17
-12.79
-25.28
-37.42
-49.7
-62.85
-77.13
-91.75
-104.8
-113.7
-116.09
-110.66
-97.65
-78.83
-56.83
-34.32
-13.46
4.52
19.07
30.23
38.36
44.04
47.89
50.57
52.55
53.93
54.36
53.32
50.38
45.67
40.03
34.78
31.08
29.51
29.7
30.5
30.51
28.61
24.5
18.69
12.25
6.2
1.03
-3.49
-8.27
-14.51
-23.2
-34.51
-47.53
-60.28
-70.27
-75.11
-73.25
-64.5
-50.02
-31.89
-12.55
5.99
22.42
36.18
47.14
55.42
61.1
64.29
65.26
64.38
62.16
59.01
55.28
51.05
46.43
41.63
36.97
32.89
29.64
27.3
25.6
24.13
22.34
19.83
16.34
11.8
6.28
-0.07
-6.94
-13.94
-20.76
-27.25
-33.68
-40.64
-48.78
-58.25
-68.23
-76.8
-81.39
-79.71
-70.69
-55.1
-35.27
-14.28
5.11
21.17
33.39
42.2
48.38
52.61
55.17
56.15
55.58
53.52
50.09
45.51
40.13
34.44
29.08
24.69
21.86
20.84
21.39
22.83
24.31
25.01
24.48
22.71
20.04
16.87
13.54
10.15
6.53
2.37
-2.88
-9.81
-18.76
-29.6
-41.28
-51.8
-58.69
-59.72
-53.93
-42.01
-26.08
-8.79
7.62
21.99
34.18
44.62
53.59
60.9
65.97
68.12
67.1
63.18
57.1
49.72
41.84
34.05
26.53
19.29
12.11
4.82
-2.6
-9.9
-16.77
-22.87
-28.13
-32.85
-37.57
-42.9
-49.14
-56.06
-63.0
-69.18
-74.08
-77.77
-80.85
-83.98
-87.22
-89.67
-89.6
-85.06
-74.81
-59.05
-39.4
-18.4
1.42
18.22
31.27
40.74
47.34
51.9
55.04
57.13
58.29
58.42
57.33
54.84
51.02
46.28
41.45
37.36
34.59
33.13
32.28
30.96
28.14
23.26
16.48
8.62
0.7
-6.5
-12.74
-18.44
-24.4
-31.52
-40.44
-51.21
-63.09
-74.55
-83.62
-88.26
-87.03
-79.61
-66.9
-50.74
-33.35
-16.73
-2.12
9.83
19.02
25.57
29.64
31.35
30.88
28.4
24.15
18.54
12.23
5.99
0.67
-3.19
-5.46
-6.53
-7.07
-7.77
-9.01
-10.85
-13.08
-15.45
-17.9
-20.62
-24.01
-28.52
-34.47
-41.86
-50.38
-59.49
-68.62
-77.22
-84.64
-90.09
-92.52
-90.91
-84.51
-73.27
-57.91
-39.82
-20.62
-1.78
15.57
30.66
42.93
52.13
58.37
62.26
64.72
66.69
68.88
71.45
74.22
76.79
78.96
80.78
82.42
83.95
85.02
84.89
82.53
77.05
68.02
55.81
41.61
27.06
13.9
3.27
-4.51
-10.17
-15.09
-20.96
-28.96
-39.36
-51.22
-62.51
-70.78
-73.86
-70.66
-61.59
-48.31
-33.16
-18.18
-4.52
7.77
19.16
30.18
40.75
50.27
57.89
63.09
65.94
67.11
67.51
67.73
67.83
67.43
66.03
63.51
60.16
56.7
53.8
51.78
50.31
48.55
45.58
40.7
33.77
25.14
15.56
5.8
-3.54
-12.25
-20.55
-29.02
-38.34
-48.85
-60.29
-71.34
-80.03
-84.21
-82.42
-74.53
-61.89
-46.96
-32.38
-20.25
-11.4
-5.55
-1.67
1.34
4.16
6.92
9.29
10.82
11.15
10.31
8.61
6.66
5.19
4.78
5.73
7.93
10.83
13.65
15.62
16.2
15.24
13.01
9.85
6.08
1.79
-3.13
-8.9
-15.74
-23.65
-32.35
-41.31
-49.93
-57.49
-63.26
-66.43
-66.29
-62.34
-54.41
-42.9
-28.62
-12.78
3.41
18.82
32.61
44.1
52.75
58.23
60.54
60.12
57.92
54.98
52.16
49.8
47.6
44.98
41.41
36.89
32.01
27.77
25.04
24.19
24.84
25.92
26.08
24.13
19.6
12.86
5.04
-2.51
-8.62
-12.95
-16.05
-19.2
-23.89
-31.04
-40.55
-51.07
-60.41
-66.25
-66.97
-62.26
-53.09
-41.37
-29.07
-17.58
-7.37
1.8
10.29
18.12
24.68
29.06
30.57
29.19
25.74
21.57
17.98
15.66
14.55
14.03
13.32
11.96
9.88
7.45
5.24
3.69
2.93
2.71
2.55
1.8
-0.1
-3.48
-8.32
-14.13
-20.15
-25.63
-30.25
-34.24
-38.45
-43.87
-51.02
-59.39
-67.19
-71.86
-70.91
-63.07
-48.84
-30.35
-10.45
8.46
25.22
40.05
53.91
67.83
82.37
97.62
113.47
129.65
145.54
159.79
170.35
174.97
172.08
161.6
145.14
125.4
105.06
85.89
68.28
51.7
35.41
19.15
3.32
-11.3
-23.96
-34.43
-43.0
-50.28
-56.95
-63.3
-69.35
-74.87
-79.74
-83.96
-87.6
-90.54
-92.23
-91.77
-88.05
-80.14
-67.63
-50.77
-30.33
-7.46
16.45
39.9
61.14
78.26
89.28
92.46
86.68
71.87
49.32
21.51
-8.29
-36.64
-60.7
-78.61
-89.71
-94.37
-93.77
-89.49
-83.43
-77.58
-73.76
-73.36
-76.74
-83.13
-90.82
-97.78
-102.43
-104.36
-104.41
-104.26
-105.68
-109.61
-115.8
-122.84
-128.75
-131.61
-130.03
-123.49
-112.23
-97.2
-79.59
-60.6
-41.24
-22.13
-3.82
13.26
28.52
41.37
51.33
58.33
62.72
65.17
66.42
66.9
66.81
66.07
64.61
62.59
60.48
59.0
58.86
60.54
63.81
67.81
71.05
71.89
69.11
62.29
52.07
39.82
27.18
15.31
4.61
-5.37
-15.55
-26.79
-39.5
-53.1
-66.19
-76.79
-82.91
-83.24
-77.51
-66.67
-52.43
-36.81
-21.33
-6.74
6.93
20.0
32.53
44.09
53.74
60.43
63.37
62.44
58.19
51.6
43.76
35.48
27.23
19.18
11.34
3.7
-3.71
-10.77
-17.31
-23.08
-27.91
-31.65
-34.3
-36.08
-37.44
-38.94
-40.97
-43.63
-46.68
-49.86
-53.09
-56.69
-61.21
-66.92
-73.22
-78.54
-80.59
-77.24
-67.51
-52.02
-32.89
-12.98
5.1
19.76
30.61
38.25
43.77
48.17
52.04
55.44
57.99
58.98
57.87
54.53
49.43
43.74
38.8
35.62
34.44
34.63
35.01
34.34
31.89
27.6
22.06
16.1
10.45
5.35
0.63
-4.19
-9.73
-16.5
-24.85
-34.68
-45.49
-56.06
-64.75
-69.71
-69.44
-63.33
-51.9
-36.7
-19.7
-2.67
13.22
27.53
40.18
51.07
59.76
65.64
68.3
67.78
64.78
60.4
55.74
51.43
47.57
43.79
39.7
35.11
30.02
24.71
19.42
14.25
9.12
3.95
-1.29
-6.47
-11.36
-15.84
-19.85
-23.51
-26.97
-30.57
-34.72
-39.91
-46.44
-54.17
-62.18
-68.75
-71.72
-69.17
-60.16
-45.27
-26.44
-6.32
12.54
28.42
40.51
48.82
53.62
55.17
53.54
48.79
41.26
31.57
20.64
9.44
-0.98
-9.62
-15.62
-18.41
-17.93
-14.73
-9.95
-4.95
-0.86
1.83
3.41
4.62
6.17
8.19
10.21
11.17
9.9
5.55
-2.28
-13.35
-26.92
-41.68
-55.95
-67.71
-75.05
-76.71
-72.52
-63.62
-52.03
-39.91
-28.76
-19.18
-10.73
-2.75
5.01
12.14
17.5
20.02
19.33
16.08
11.58
7.41
4.63
3.45
3.47
3.96
4.57
5.44
7.06
9.83
13.7
18.08
22.04
24.66
25.34
23.87
20.48
15.65
10.12
4.73
0.58
-1.19
0.37
5.59
13.95
24.13
34.45
43.58
51.08
57.67
64.64
73.17
83.32
93.96
103.06
108.66
109.7
106.4
99.9
91.57
82.46
72.86
62.66
51.72
40.37
29.48
20.25
13.64
9.96
8.66
8.48
7.95
6.0
2.47
-1.9
-5.88
-8.49
-9.42
-9.3
-9.37
-10.88
-14.72
-21.01
-29.31
-38.84
-48.62
-57.54
-64.32
-67.59
-66.16
-59.48
-47.89
-32.63
-15.5
1.78
17.98
32.52
45.22
55.96
64.47
70.33
73.35
73.71
72.16
69.54
66.58
63.54
60.21
56.23
51.41
46.03
40.81
36.7
34.42
34.15
35.36
36.92
37.45
35.76
31.31
24.44
16.24
8.12
1.2
-4.05
-8.03
-11.79
-16.6
-23.35
-32.25
-42.64
-53.09
-61.87
-67.26
-68.16
-64.27
-56.24
-45.26
-32.7
-19.74
-7.1
4.73
15.41
24.48
31.3
35.35
36.32
34.29
29.78
23.52
16.32
8.92
1.91
-4.34
-9.62
-13.88
-17.12
-19.28
-20.31
-20.36
-19.69
-18.82
-18.23
-18.21
-18.81
-19.81
-20.88
-21.76
-22.35
-22.71
-23.09
-23.99
-26.05
-29.93
-36.01
-43.91
-52.39
-59.61
-63.63
-63.08
-57.59
-47.89
-35.48
-22.09
-9.09
2.78
13.41
23.01
31.68
39.14
44.61
47.14
46.01
41.29
33.97
25.7
18.17
12.59
9.27
7.71
7.0
6.29
5.15
3.77
2.59
2.18
2.69
3.86
5.02
5.38
4.38
1.95
-1.38
-4.79
-7.48
-9.17
-10.21
-11.46
-13.84
-17.79
-22.89
-27.77
-30.59
-29.72
-24.62
-15.97
-5.44
4.98
13.89
20.8
26.23
31.13
36.3
41.82
47.06
51.01
52.67
51.63
48.15
43.15
37.87
33.42
30.44
28.9
28.31
28.01
27.61
27.06
26.53
26.17
25.83
25.03
23.03
19.2
13.16
4.87
-5.5
-17.68
-31.13
-45.16
-58.76
-70.99
-81.13
-89.17
-95.74
-101.73
-107.71
-113.09
-116.11
-114.3
-105.62
-89.5
-67.35
-42.21
-17.7
3.24
19.2
30.31
37.64
42.39
45.15
45.9
44.29
40.17
33.96
26.77
20.02
15.06
12.71
12.92
15.04
18.04
20.95
23.32
25.17
26.89
28.73
30.58
31.63
30.94
27.71
21.75
13.59
4.16
-5.61
-15.22
-24.72
-34.65
-45.58
-57.73
-70.75
-83.52
-94.4
-101.35
-102.59
-97.05
-84.94
-67.78
-48.05
-28.57
-11.59
1.68
11.3
18.35
24.41
30.94
38.81
48.04
57.72
66.3
72.01
73.59
70.69
64.04
55.2
45.88
37.45
30.53
25.13
20.9
17.7
15.73
15.41
17.05
20.34
24.24
27.09
27.22
23.57
16.31
6.88
-2.52
-9.65
-13.1
-12.82
-10.08
-7.13
-6.67
-11.02
-21.54
-38.06
-58.64
-79.88
-97.72
-108.58
-110.4
-103.16
-88.54
-69.12
-47.33
-25.0
-3.43
16.36
33.29
46.33
54.87
59.04
59.86
58.93
57.79
57.28
57.28
56.79
54.48
49.3
40.96
30.23
18.69
8.18
0.13
-4.9
-7.3
-8.1
-8.46
-9.2
-10.4
-11.54
-11.74
-10.21
-6.73
-1.89
2.94
5.95
5.43
0.39
-9.0
-21.4
-34.48
-45.54
-52.08
-52.42
-46.19
-34.48
-19.64
-4.62
7.81
16.02
19.76
20.07
18.51
16.41
14.45
12.66
10.98
9.6
9.01
9.65
11.5
13.88
15.67
15.84
13.98
10.67
7.24
5.35
6.2
9.97
15.67
21.28
24.6
24.07
19.7
13.14
7.06
3.86
4.38
7.29
9.48
7.23
-2.16
-19.22
-42.06
-66.97
-89.48
-105.76
-113.33
-111.61
-101.67
-85.71
-66.28
-45.62
-25.25
-5.86
12.16
28.55
42.81
54.46
63.2
69.2
73.04
75.33
76.53
76.63
75.58
73.44
70.54
67.36
64.16
60.83
56.91
51.81
45.03
36.38
25.98
14.13
1.42
-11.3
-22.81
-31.76
-37.02
-38.28
-36.25
-32.64
-29.64
-29.28
-32.8
-40.28
-50.63
-61.91
-71.85
-78.44
-80.34
-77.3
-70.08
-60.31
-49.76
-39.87
-31.33
-24.05
-17.57
-11.48
-5.83
-1.13
1.94
3.0
2.29
0.57
-1.09
-1.94
-1.72
-0.77
0.3
1.02
1.26
1.46
2.23
4.15
7.31
11.32
15.38
18.53
19.96
19.17
16.22
11.65
6.41
1.46
-2.48
-5.31
-7.63
-10.57
-15.42
-23.03
-33.52
-46.14
-59.45
-71.59
-80.64
-85.08
-84.03
-77.46
-66.12
-51.21
-34.06
-15.78
2.64
20.45
36.84
50.95
62.08
69.8
74.26
76.17
76.53
76.27
75.96
75.65
75.01
73.5
70.65
66.51
61.56
56.7
52.74
50.17
48.83
47.92
46.4
43.22
37.94
30.74
22.37
13.84
5.99
-0.76
-6.52
-11.79
-17.21
-23.21
-29.92
-37.27
-45.03
-53.09
-61.2
-68.89
-75.19
-78.66
-77.87
-71.88
-60.68
-45.29
-27.55
-9.46
7.27
21.54
32.8
40.84
45.77
47.93
47.97
46.67
44.81
42.91
40.99
38.67
35.4
30.93
25.6
20.32
16.18
13.97
13.75
14.75
15.65
15.19
12.64
8.11
2.39
-3.42
-8.54
-12.67
-16.17
-19.77
-24.31
-30.4
-38.26
-47.72
-58.05
-68.13
-76.43
-81.34
-81.49
-76.24
-65.88
-51.53
-34.82
-17.35
-0.45
15.04
28.52
39.49
47.4
51.9
52.98
51.25
47.76
43.71
39.96
36.81
33.96
30.82
26.98
22.56
18.23
14.91
13.31
13.46
14.59
15.42
14.58
11.27
5.46
-2.03
-9.97
-17.13
-22.9
-27.35
-31.24
-35.72
-41.88
-50.47
-61.44
-73.85
-85.83
-95.01
-99.07
-96.5
-87.1
-72.14
-53.94
-35.0
-17.25
-1.59
12.0
23.95
34.57
43.67
50.57
54.61
55.54
53.85
50.58
46.97
43.88
41.5
39.35
36.77
33.38
29.37
25.57
22.85
21.76
22.05
22.76
22.52
20.12
15.01
7.54
-1.17
-9.66
-16.64
-21.59
-24.91
-27.82
-32.01
-38.86
-49.02
-61.87
-75.55
-87.38
-94.53
-94.97
-88.04
-74.82
-57.53
-38.89
-21.03
-4.97
9.27
22.24
34.2
44.89
53.44
58.97
61.03
60.0
56.94
53.18
49.86
47.47
45.8
44.15
41.84
38.52
34.54
30.77
28.15
27.28
27.87
28.9
28.92
26.72
21.79
14.63
6.48
-1.25
-7.46
-11.96
-15.31
-18.64
-23.08
-29.39
-37.8
-47.93
-59.11
-70.32
-80.37
-87.79
-91.05
-88.84
-80.55
-66.59
-48.42
-28.21
-8.13
10.07
25.47
37.9
47.61
54.96
60.2
63.4
64.59
63.93
61.71
58.45
54.75
51.1
47.8
44.84
42.09
39.42
36.87
34.58
32.77
31.5
30.47
29.09
26.54
22.27
16.1
8.37
-0.25
-9.0
-17.45
-25.55
-33.65
-42.32
-51.92
-62.51
-73.89
-85.77
-97.95
-110.41
-122.99
-135.07
-145.48
-152.6
-154.91
-151.56
-142.64
-129.14
-112.47
-94.03
-74.92
-56.09
-38.34
-22.59
-9.63
0.07
6.47
9.95
11.06
10.27
7.82
3.91
-1.24
-7.23
-13.52
-19.61
-25.01
-29.36
-32.33
-33.64
-33.09
-30.72
-26.83
-21.98
-16.88
-12.1
-7.89
-4.11
-0.25
4.28
9.89
16.52
23.68
30.5
36.32
41.05
45.43
50.9
58.98
70.68
86.0
103.79
122.2
139.25
153.42
163.89
170.69
174.53
176.69
178.55
181.17
184.65
187.92
188.88
185.21
175.44
159.75
140.12
119.72
101.8
88.68
81.13
78.49
79.2
81.59
84.33
86.67
88.22
88.71
87.76
84.81
79.43
71.45
61.17
49.23
36.34
22.92
8.87
-6.29
-23.1
-41.57
-60.97
-79.8
-96.04
-107.62
-112.85
-110.83
-101.8
-87.35
-70.25
-53.99
-41.88
-36.03
-36.79
-42.72
-51.4
-60.48
-68.6
-75.66
-82.34
-89.28
-96.28
-102.3
-105.72
-105.19
-100.22
-91.58
-80.94
-70.4
-61.72
-55.78
-52.61
-51.47
-51.46
-51.95
-52.77
-54.06
-56.05
-58.76
-62.0
-65.59
-69.64
-74.6
-81.26
-90.36
-102.21
-116.32
-131.28
-144.79
-154.02
-156.38
-150.22
-135.57
-114.18
-89.05
-63.39
-39.6
-18.67
-0.31
16.22
31.47
45.16
56.46
64.36
68.33
68.47
65.52
60.58
54.8
49.25
44.8
42.2
41.9
44.06
48.39
54.34
61.16
68.08
74.61
80.38
85.16
88.61
90.14
89.03
84.7
76.94
66.19
53.53
40.39
28.02
17.09
7.35
-2.21
-12.9
-25.84
-41.43
-58.96
-76.71
-92.13
-102.41
-105.11
-98.73
-83.05
-59.29
-29.88
1.96
32.88
60.17
82.24
98.68
110.04
117.17
120.69
120.62
116.57
108.19
95.68
80.1
63.19
46.88
32.72
21.44
12.98
6.87
2.5
-0.49
-2.21
-2.66
-2.05
-0.82
0.29
0.51
-0.7
-3.54
-7.68
-12.47
-17.21
-21.42
-25.05
-28.41
-32.05
-36.45
-41.93
-48.62
-56.54
-65.62
-75.72
-86.32
-96.27
-103.88
-107.22
-104.72
-95.77
-81.01
-62.1
-41.26
-20.63
-1.83
14.1
26.67
35.69
41.15
43.31
42.73
40.4
37.6
35.79
36.26
39.77
46.27
54.88
64.21
72.82
79.8
84.98
88.99
92.69
96.61
100.67
104.04
105.63
104.49
100.24
93.17
84.13
74.2
64.37
55.34
47.35
40.2
33.26
25.61
16.35
5.03
-7.98
-21.37
-32.99
-40.56
-42.43
-38.17
-28.87
-16.74
-4.37
6.14
13.66
18.1
19.98
19.91
18.25
15.06
10.36
4.48
-1.77
-7.29
-10.97
-12.27
-11.35
-9.08
-6.52
-4.55
-3.39
-2.7
-1.81
-0.24
1.94
4.02
4.95
3.93
0.66
-4.38
-10.27
-16.06
-21.17
-25.7
-30.19
-35.42
-41.89
-49.66
-58.36
-67.5
-76.77
-86.17
-95.79
-105.34
-113.81
-119.37
-119.85
-113.47
-99.63
-79.32
-54.92
-29.54
-6.17
13.11
27.39
36.93
42.73
46.07
47.89
48.79
48.81
47.78
45.58
42.34
38.53
34.89
32.13
30.67
30.6
31.55
32.87
33.88
34.01
32.99
30.94
28.19
25.1
21.87
18.42
14.53
9.87
4.26
-2.3
-9.5
-16.92
-24.06
-30.52
-36.17
-41.24
-46.33
-52.34
-60.2
-70.29
-82.17
-94.24
-104.05
-108.93
-106.81
-96.99
-80.36
-59.14
-36.03
-13.48
6.91
24.44
39.02
50.74
59.51
65.09
67.25
66.1
62.24
56.71
50.76
45.38
41.14
38.08
35.96
34.44
33.38
32.86
32.97
33.7
34.7
35.43
35.28
33.82
30.92
26.79
21.84
16.47
11.04
5.68
0.37
-5.03
-10.73
-16.9
-23.6
-30.73
-38.13
-45.67
-53.47
-61.83
-71.1
-81.27
-91.52
-100.17
-104.9
-103.56
-94.91
-79.28
-58.42
-35.03
-11.9
8.84
25.87
38.87
48.02
53.83
56.89
57.83
57.13
55.09
51.79
47.18
41.51
35.39
29.86
25.95
24.35
25.0
27.0
29.11
30.07
29.33
27.04
23.95
20.94
18.47
16.37
13.89
10.11
4.41
-3.08
-11.49
-19.53
-26.04
-30.63
-33.86
-37.07
-41.85
-49.39
-59.86
-72.26
-84.6
-94.29
-99.03
-97.3
-88.86
-74.71
-56.75
-37.03
-17.31
1.27
18.12
32.78
44.72
53.23
57.67
57.88
54.49
48.81
42.54
37.12
33.29
30.98
29.48
27.99
26.02
23.67
21.52
20.26
20.33
21.51
23.07
23.91
23.0
19.72
14.07
6.66
-1.51
-9.35
-16.12
-21.6
-26.21
-30.81
-36.5
-44.24
-54.46
-66.85
-80.08
-92.02
-100.14
-102.24
-97.05
-84.75
-66.85
-45.63
-23.48
-2.33
16.58
32.58
45.32
54.54
60.0
61.73
60.19
56.25
51.15
46.06
41.83
38.73
36.47
34.45
32.14
29.41
26.64
24.52
23.64
24.13
25.44
26.51
26.15
23.56
18.61
11.86
4.27
-3.18
-9.9
-15.79
-21.2
-26.71
-32.86
-39.96
-48.14
-57.41
-67.74
-78.95
-90.45
-101.03
-108.78
-111.5
-107.34
-95.51
-76.76
-53.25
-27.99
-3.91
16.9
33.52
46.07
55.17
61.39
64.99
66.03
64.56
60.93
55.87
50.25
44.94
40.56
37.44
35.68
35.26
35.95
37.38
38.94
39.92
39.71
38.06
35.04
31.07
26.61
21.92
16.97
11.54
5.38
-1.6
-9.18
-16.99
-24.54
-31.52
-37.99
-44.38
-51.55
-60.31
-71.13
-83.48
-95.7
-105.1
-108.72
-104.38
-91.47
-71.33
-46.74
-21.06
2.91
23.46
40.11
53.13
62.95
69.84
73.73
74.5
72.28
67.62
61.51
55.14
49.64
45.68
43.42
42.42
42.01
41.54
40.72
39.68
38.78
38.34
38.28
38.15
37.16
34.61
30.12
23.8
16.25
8.2
0.42
-6.7
-13.15
-19.28
-25.59
-32.56
-40.43
-49.25
-58.95
-69.43
-80.44
-91.36
-100.89
-107.06
-107.71
-101.09
-86.72
-65.76
-40.71
-14.8
8.99
28.65
43.4
53.43
59.5
62.43
62.83
61.08
57.44
52.3
46.22
39.97
34.3
29.89
27.01
25.62
25.45
26.06
27.04
28.02
28.67
28.67
27.78
25.78
22.51
18.01
12.41
6.03
-0.74
-7.46
-13.84
-19.71
-25.26
-31.0
-37.65
-45.94
-56.17
-67.82
-79.33
-88.4
-92.47
-89.66
-79.33
-62.39
-41.03
-17.93
4.41
24.27
40.75
53.63
62.93
68.71
71.02
69.94
65.9
59.67
52.35
45.11
38.9
34.25
31.23
29.52
28.65
28.21
27.95
27.74
27.56
27.27
26.59
25.06
22.16
17.53
11.21
3.62
-4.5
-12.38
-19.5
-25.81
-31.68
-37.74
-44.63
-52.89
-62.89
-74.61
-87.5
-100.14
-110.36
-115.55
-113.5
-103.17
-85.16
-61.62
-35.55
-9.97
12.88
31.79
46.43
57.06
64.08
67.93
69.01
67.84
64.99
61.06
56.63
52.19
48.08
44.59
41.89
40.09
39.23
39.08
39.39
39.73
39.7
38.97
37.28
34.46
30.42
25.19
18.87
11.75
4.19
-3.51
-11.06
-18.37
-25.41
-32.26
-39.18
-46.64
-55.2
-65.36
-77.16
-89.75
-101.33
-109.39
-111.38
-105.53
-91.64
-71.07
-46.48
-20.99
2.74
23.01
39.27
51.78
61.07
67.48
71.06
71.74
69.68
65.56
60.47
55.62
51.86
49.4
47.87
46.66
45.38
44.12
43.39
43.69
45.14
47.25
48.99
49.27
47.32
43.1
37.28
30.86
24.72
19.23
14.21
8.94
2.66
-5.09
-14.17
-23.88
-33.21
-41.32
-47.88
-53.34
-58.94
-66.19
-76.25
-89.18
-103.44
-116.1
-123.57
-122.8
-112.43
-93.3
-68.15
-40.67
-14.29
8.73
27.57
42.5
54.19
63.09
69.18
72.19
71.91
68.62
63.19
56.89
50.94
46.16
42.79
40.54
39.0
37.82
36.94
36.52
36.63
37.17
37.75
37.79
36.76
34.31
30.35
25.1
18.95
12.37
5.79
-0.51
-6.5
-12.39
-18.44
-25.01
-32.2
-40.03
-48.56
-57.91
-68.26
-79.57
-91.14
-101.44
-108.26
-109.24
-102.69
-88.35
-67.46
-42.58
-16.81
7.05
27.02
42.18
52.54
58.69
61.42
61.51
59.5
55.82
50.88
45.23
39.57
34.64
31.02
28.96
28.3
28.59
29.31
30.12
30.8
31.28
31.41
30.87
29.27
26.29
21.79
15.95
9.15
1.81
-5.69
-13.14
-20.4
-27.41
-34.19
-40.89
-47.88
-55.83
-65.43
-76.95
-89.82
-102.21
-111.38
-114.35
-108.93
-94.58
-72.77
-46.49
-19.32
5.63
26.56
42.98
55.34
64.3
70.22
73.06
72.68
69.19
63.2
55.88
48.58
42.42
37.98
35.17
33.45
32.21
31.02
29.85
28.93
28.53
28.66
28.91
28.52
26.63
22.64
16.42
8.49
-0.21
-8.69
-16.25
-22.71
-28.47
-34.21
-40.74
-48.7
-58.48
-70.05
-82.85
-95.67
-106.46
-112.77
-112.2
-103.3
-86.13
-62.5
-35.44
-8.37
15.84
35.54
50.3
60.6
67.18
70.73
71.66
70.35
67.21
62.83
57.96
53.28
49.3
46.2
43.9
42.15
40.72
39.48
38.46
37.73
37.31
36.98
36.31
34.66
31.42
26.2
19.05
10.48
1.3
-7.62
-15.66
-22.62
-28.76
-34.72
-41.32
-49.39
-59.54
-71.82
-85.42
-98.59
-108.79
-113.38
-110.3
-98.9
-80.08
-56.11
-29.91
-4.24
18.81
38.07
53.14
64.07
71.14
74.7
75.2
73.16
69.23
64.15
58.61
53.23
48.42
44.43
41.36
39.26
38.14
37.89
38.25
38.75
38.88
38.18
36.44
33.64
29.9
25.25
19.63
12.95
5.27
-3.04
-11.43
-19.33
-26.44
-32.84
-39.09
-45.92
-54.08
-64.14
-76.1
-89.4
-102.53
-113.25
-118.95
-117.38
-107.45
-89.65
-66.04
-39.55
-13.2
10.74
30.97
46.98
58.66
66.01
69.11
68.24
64.18
58.12
51.46
45.36
40.43
36.64
33.58
30.81
28.22
26.12
25.01
25.25
26.72
28.65
29.86
29.21
26.06
20.52
13.41
5.87
-1.19
-7.29
-12.62
-17.73
-23.36
-30.15
-38.56
-48.69
-60.33
-72.71
-84.33
-93.07
-96.59
-93.06
-81.82
-63.73
-40.96
-16.47
6.85
26.9
42.52
53.51
60.21
63.19
63.08
60.42
55.82
49.87
43.25
36.62
30.59
25.64
22.03
19.89
19.06
19.17
19.71
20.15
20.02
19.01
16.95
13.75
9.39
3.89
-2.64
-9.94
-17.58
-25.14
-32.32
-39.16
-46.16
-54.11
-63.87
-75.75
-89.17
-102.33
-112.49
-116.67
-112.54
-99.42
-78.52
-52.75
-25.73
-0.81
19.88
35.56
46.62
53.93
58.3
60.18
59.68
56.93
52.23
46.35
40.26
34.98
31.26
29.3
28.88
29.43
30.36
31.26
32.02
32.68
33.26
33.54
32.95
30.8
26.47
19.77
11.08
1.27
-8.68
-17.89
-26.02
-33.32
-40.55
-48.72
-58.68
-70.7
-84.04
-96.91
-106.62
-110.33
-105.94
-92.82
-72.14
-46.57
-19.42
6.24
28.29
45.87
59.02
68.26
74.17
77.11
77.33
75.05
70.69
64.91
58.63
52.77
48.04
44.79
42.89
41.9
41.23
40.39
39.23
37.86
36.5
35.23
33.83
31.78
28.39
23.16
16.01
7.43
-1.65
-10.24
-17.64
-23.75
-29.14
-34.84
-42.02
-51.61
-63.81
-77.86
-91.89
-103.17
-108.73
-106.28
-95.0
-75.92
-51.68
-25.66
-0.91
20.57
38.12
51.95
62.51
70.06
74.48
75.6
73.51
68.86
62.78
56.56
51.28
47.48
45.11
43.73
42.73
41.64
40.33
38.98
37.91
37.33
37.1
36.75
35.51
32.58
27.5
20.34
11.73
2.69
-5.78
-13.11
-19.3
-24.91
-30.84
-37.96
-46.92
-57.96
-70.83
-84.57
-97.56
-107.57
-112.18
-109.46
-98.66
-80.53
-57.23
-31.7
-6.77
15.45
33.84
48.13
58.39
64.78
67.36
66.34
62.26
56.15
49.32
43.09
38.33
35.21
33.32
31.99
30.67
29.27
28.1
27.59
27.95
28.81
29.29
28.27
24.89
18.97
11.11
2.42
-5.88
-12.97
-18.76
-23.79
-28.88
-34.83
-42.1
-50.78
-60.66
-71.29
-81.87
-91.23
-97.72
-99.51
-95.01
-83.47
-65.35
-42.39
-17.19
7.34
28.72
45.35
56.61
62.76
64.61
63.16
59.37
54.06
47.9
41.45
35.19
29.52
24.71
20.9
18.12
16.29
15.26
14.84
14.7
14.36
13.24
10.69
6.25
-0.17
-8.27
-17.38
-26.59
-35.14
-42.64
-49.21
-55.49
-62.42
-70.99
-81.93
-95.42
-110.72
-126.18
-139.19
-146.87
-146.77
-137.77
-120.49
-97.26
-71.38
-46.27
-24.53
-7.42
5.03
13.65
19.63
24.11
28.0
31.92
36.29
41.39
47.37
54.23
61.82
69.81
77.7
84.97
91.13
95.85
99.02
100.72
101.07
100.18
98.05
94.52
89.49
83.01
75.48
67.7
60.63
55.06
51.32
49.05
47.27
44.78
40.66
34.74
27.89
21.88
18.92
20.97
29.11
43.19
61.96
83.43
105.36
125.76
143.1
156.43
165.4
170.04
170.8
168.28
163.08
155.69
146.49
135.89
124.45
112.95
102.11
92.44
84.04
76.69
70.08
64.1
58.94
54.89
52.11
50.36
49.04
47.46
45.12
42.04
38.63
35.56
33.25
31.56
29.54
25.62
17.97
5.1
-13.8
-38.81
-69.54
-105.52
-146.13
-190.19
-235.33
-277.81
-313.07
-336.85
-346.61
-342.32
-326.38
-302.58
-274.96
-246.77
-220.14
-196.24
-175.57
-158.29
-144.25
-132.87
-123.28
-114.39
-105.18
-94.94
-83.38
-70.59
-56.96
-42.92
-28.96
-15.64
-3.98
4.46
7.62
3.56
-8.88
-29.44
-56.17
-85.88
-114.89
-140.09
-159.48
-172.47
-179.49
-181.68
-180.44
-177.08
-172.72
-168.05
-163.21
-157.6
-149.98
-138.74
-122.55
-101.0
-74.9
-46.22
-17.68
8.09
29.09
44.33
53.78
58.19
58.79
57.06
54.39
51.75
49.5
47.39
44.79
41.31
37.15
33.21
30.73
30.62
32.95
36.75
40.34
42.04
40.76
36.31
29.2
20.3
10.46
0.5
-8.75
-16.45
-21.7
-24.02
-23.65
-21.57
-19.15
-17.39
-16.25
-14.5
-10.25
-1.83
11.32
28.39
47.61
67.12
85.48
101.95
116.23
127.96
136.7
141.88
143.13
140.76
135.64
128.98
121.88
115.01
108.41
101.76
94.6
86.76
78.56
70.73
64.1
59.1
55.51
52.38
48.57
43.17
35.96
27.52
18.93
11.22
4.96
-0.06
-4.79
-10.43
-18.02
-27.86
-39.08
-49.89
-57.78
-60.36
-56.28
-45.64
-29.93
-11.49
7.31
24.85
40.15
53.03
63.59
71.86
77.78
81.22
82.2
80.98
78.1
74.08
69.4
64.41
59.29
54.2
49.33
45.02
41.71
39.74
39.0
38.93
38.6
36.97
33.46
28.06
21.36
14.3
7.76
2.1
-2.83
-7.82
-13.88
-21.74
-31.69
-43.26
-55.24
-65.94
-73.59
-76.89
-75.3
-69.29
-59.8
-47.86
-34.28
-19.44
-3.58
12.78
28.48
41.94
51.43
56.1
56.32
53.57
50.01
47.4
46.44
46.49
46.01
43.42
38.09
30.74
23.32
18.07
16.48
18.49
22.44
25.81
26.2
22.53
15.35
6.49
-1.59
-7.33
-10.38
-11.88
-13.73
-17.79
-24.95
-35.05
-46.8
-58.18
-67.26
-72.42
-72.76
-68.12
-59.11
-46.84
-32.62
-17.72
-2.93
11.18
24.2
35.5
44.4
50.14
52.53
51.97
49.4
46.02
42.72
39.89
37.35
34.76
31.71
28.25
24.73
21.67
19.51
18.24
17.52
16.57
14.71
11.51
7.27
2.72
-1.24
-4.07
-5.99
-7.85
-10.75
-15.61
-22.71
-31.36
-40.15
-47.34
-51.21
-50.74
-45.65
-36.44
-24.31
-10.77
2.85
15.48
26.41
35.22
41.51
44.99
45.51
43.37
39.2
34.05
29.11
25.24
22.87
21.65
20.68
19.01
16.16
12.27
8.25
5.15
3.64
3.66
4.17
3.94
1.86
-2.32
-8.08
-14.33
-20.15
-25.0
-29.0
-32.88
-37.59
-43.96
-52.29
-62.01
-71.49
-78.56
-80.94
-77.02
-66.55
-50.69
-31.74
-12.45
4.83
18.84
29.42
37.31
43.59
49.03
53.77
57.3
58.92
57.97
54.49
49.19
43.15
37.52
33.06
30.04
28.14
26.69
24.96
22.38
18.89
14.91
11.12
8.04
5.85
4.12
2.06
-1.09
-5.79
-11.85
-18.61
-25.33
-31.64
-37.66
-43.94
-50.87
-58.25
-64.98
-69.29
-69.23
-63.45
-51.88
-35.77
-17.27
1.2
17.63
30.74
40.19
46.37
50.13
52.4
53.98
55.26
56.14
56.16
54.62
51.25
46.16
40.07
34.08
29.22
26.07
24.57
24.11
23.68
22.45
19.96
16.2
11.71
7.15
3.02
-0.62
-4.06
-7.82
-12.28
-17.6
-23.7
-30.28
-37.18
-44.41
-52.07
-60.05
-67.91
-74.58
-78.73
-79.01
-74.52
-65.22
-51.89
-36.05
-19.54
-4.03
9.46
20.55
29.41
36.52
42.12
46.23
48.65
49.06
47.29
43.63
38.79
33.75
29.41
26.2
24.05
22.44
20.74
18.58
16.07
13.73
12.16
11.64
11.87
12.0
11.05
8.4
4.04
-1.42
-7.06
-12.03
-16.01
-19.36
-22.98
-27.9
-34.83
-43.75
-53.96
-64.12
-72.63
-77.92
-78.91
-75.26
-67.42
-56.47
-43.66
-30.03
-16.16
-2.28
11.4
24.24
34.99
42.24
44.91
43.12
38.22
32.39
27.75
25.49
25.36
26.04
25.83
23.46
18.81
12.98
7.71
4.52
4.03
5.59
7.64
8.36
6.56
2.07
-4.06
-10.28
-15.26
-18.5
-20.42
-22.03
-24.46
-28.55
-34.6
-42.4
-51.2
-59.71
-66.45
-69.85
-68.78
-62.85
-52.57
-39.21
-24.43
-9.83
3.52
15.02
24.62
32.51
38.78
43.3
45.61
45.32
42.3
37.08
30.87
25.05
20.76
18.33
17.31
16.63
15.32
12.95
9.8
6.66
4.4
3.31
3.01
2.54
0.7
-3.17
-8.94
-15.82
-22.49
-27.89
-31.71
-34.56
-37.72
-42.69
-50.37
-60.69
-72.33
-82.98
-90.08
-91.52
-86.48
-75.63
-60.88
-44.46
-28.3
-13.37
0.18
12.58
23.98
34.02
42.01
47.19
49.33
48.77
46.36
43.23
40.11
37.39
34.98
32.51
29.68
26.49
23.24
20.5
18.68
17.72
17.1
16.02
13.86
10.3
5.64
0.56
-4.22
-8.24
-11.57
-14.68
-18.3
-23.01
-29.34
-37.39
-46.89
-57.24
-67.45
-76.36
-82.68
-85.41
-83.9
-78.06
-68.29
-55.26
-39.78
-22.69
-4.98
12.16
27.34
39.25
47.18
51.23
52.34
51.82
50.89
50.13
49.41
48.18
45.8
42.06
37.24
32.01
27.14
23.39
21.15
20.47
20.94
21.66
21.52
19.46
15.1
8.81
1.78
-4.55
-9.07
-11.63
-13.11
-15.08
-19.26
-26.52
-36.59
-48.24
-59.66
-69.04
-75.02
-76.97
-74.87
-69.23
-60.67
-49.64
-36.42
-21.21
-4.47
12.9
29.51
43.77
54.4
60.91
63.81
64.4
64.15
64.07
64.43
64.67
63.91
61.31
56.85
51.25
45.89
42.42
41.69
43.63
47.1
50.42
52.1
51.52
48.96
45.46
42.26
40.14
39.25
39.15
39.09
38.35
36.68
34.18
31.26
28.48
26.14
24.26
22.5
20.48
17.91
14.89
11.77
8.93
6.66
4.94
3.72
2.79
2.09
1.55
1.21
1.0
0.8
0.48
-0.02
-0.61
-1.24
-1.8
-2.34
-2.92
-3.71
-4.98
-6.88
-9.55
-12.83
-16.28
-19.35
-21.66
-23.05
-23.9
-24.84
-26.39
-28.86
-32.08
-35.57
-38.84
-41.82
-44.56
-47.39
-50.6
-54.35
-58.83
-64.24
-70.62
-77.64
-84.55
-89.91
-92.03
-89.43
-81.36
-68.26
-51.58
-33.32
-15.5
0.25
13.15
23.04
30.23
35.24
38.25
39.33
38.21
34.78
29.21
22.13
14.56
7.59
2.18
-1.4
-3.41
-4.67
-6.26
-9.02
-13.1
-18.1
-23.1
-27.05
-29.37
-30.21
-30.55
-31.85
-35.42
-41.68
-50.02
-59.08
-67.35
-74.13
-79.6
-84.65
-89.92
-95.17
-98.77
-98.39
-92.02
-78.87
-59.98
-37.81
-15.49
4.18
19.4
29.83
36.31
40.47
43.94
47.62
51.47
54.56
55.66
53.88
49.31
42.99
36.57
31.64
28.97
28.43
29.02
29.37
28.2
24.94
19.84
13.83
8.26
3.97
1.15
-0.93
-3.57
-8.12
-15.26
-24.94
-36.25
-47.63
-57.35
-63.79
-65.69
-62.45
-54.28
-42.11
-27.42
-11.77
3.68
18.22
31.54
43.36
53.26
60.53
64.68
65.62
63.85
60.47
56.52
52.71
49.12
45.4
41.05
35.87
30.11
24.44
19.72
16.49
14.89
14.34
13.8
12.07
8.42
2.79
-4.03
-10.82
-16.53
-20.71
-23.87
-27.27
-32.41
-40.21
-50.66
-62.65
-74.08
-82.7
-86.38
-83.89
-75.21
-61.44
-44.28
-25.61
-7.04
10.46
26.07
39.35
49.82
57.14
61.22
62.54
61.93
60.33
58.47
56.39
53.68
49.77
44.51
38.29
32.2
27.51
25.17
25.3
26.96
28.51
28.26
25.22
19.52
12.34
5.31
-0.27
-3.96
-6.47
-9.07
-13.12
-19.36
-27.71
-37.45
-47.54
-56.94
-64.6
-69.56
-70.92
-68.04
-60.81
-49.72
-35.66
-19.86
-3.47
12.62
27.64
40.91
51.69
59.25
63.13
63.48
61.04
57.04
52.87
49.49
47.22
45.57
43.68
40.65
36.34
31.37
26.89
24.11
23.53
24.7
26.36
26.88
24.88
19.88
12.38
3.75
-4.33
-10.6
-14.54
-16.63
-18.2
-21.0
-26.51
-35.31
-46.64
-58.51
-68.29
-73.42
-72.38
-65.14
-53.24
-38.83
-24.06
-10.18
2.7
14.96
27.01
38.52
48.42
55.14
57.61
55.7
50.51
44.08
38.51
35.12
33.87
33.65
32.78
30.24
26.12
21.62
18.43
17.71
19.3
21.81
23.24
21.94
17.43
10.51
2.79
-4.05
-9.03
-12.13
-14.24
-16.58
-20.33
-26.01
-33.53
-42.2
-50.94
-58.6
-63.94
-65.95
-63.9
-57.59
-47.28
-33.81
-18.42
-2.53
12.43
25.43
35.78
43.26
47.9
50.07
50.15
48.61
45.94
42.57
38.96
35.4
32.08
28.94
25.94
23.15
20.81
19.29
18.68
18.8
19.09
18.86
17.55
15.0
11.35
6.95
2.2
-2.75
-7.69
-12.36
-16.43
-19.74
-22.51
-25.44
-29.55
-35.65
-43.99
-53.68
-62.77
-68.89
-69.8
-64.44
-53.25
-37.98
-21.07
-4.96
8.81
19.64
27.66
33.47
37.57
40.27
41.66
41.74
40.5
38.09
34.73
30.67
26.37
22.32
18.98
16.7
15.5
15.04
14.8
14.16
12.64
10.23
7.15
3.84
0.77
-1.98
-4.56
-7.31
-10.63
-14.72
-19.55
-25.09
-31.3
-38.08
-45.24
-52.2
-57.99
-61.36
-60.99
-55.96
-46.26
-32.67
-16.71
-0.31
14.72
26.87
35.37
40.24
42.22
42.39
41.91
41.52
41.24
40.45
38.17
33.76
27.4
20.21
13.85
9.93
9.07
10.64
13.01
14.13
12.63
8.31
2.19
-3.98
-8.64
-11.13
-11.99
-12.56
-14.46
-18.67
-25.3
-33.62
-42.36
-50.29
-56.56
-60.61
-61.98
-60.32
-55.11
-46.16
-33.73
-18.78
-2.82
12.39
25.27
34.84
40.72
43.28
43.37
42.0
40.21
38.66
37.56
36.6
35.27
33.08
29.94
26.34
22.98
20.6
19.45
19.29
19.45
19.19
18.02
15.84
12.95
9.74
6.64
3.65
0.63
-2.61
-6.22
-10.16
-14.34
-18.64
-23.05
-27.49
-32.0
-36.71
-41.88
-48.0
-55.33
-63.65
-71.88
-78.05
-79.84
-75.58
-65.03
-49.57
-31.93
-14.9
-0.62
10.23
18.22
24.52
30.23
35.68
40.53
43.81
44.73
42.86
38.7
33.45
28.55
25.26
24.01
24.43
25.39
25.73
24.65
22.27
19.44
17.23
16.46
17.07
18.19
18.38
16.46
11.95
5.46
-1.59
-7.74
-11.94
-14.21
-15.45
-17.17
-20.54
-26.1
-33.38
-41.27
-48.68
-54.85
-59.87
-64.24
-68.49
-72.4
-74.93
-74.37
-69.03
-58.2
-42.49
-24.0
-5.55
10.14
21.45
28.15
