1.62
-2.8
-8.18
-13.85
-19.2
-23.77
-27.57
-31.2
-35.75
-42.21
-51.15
-62.12
-73.39
-82.38
-86.36
-83.58
-74.03
-59.49
-42.62
-25.96
-10.97
2.24
14.24
25.55
36.08
44.96
51.07
53.87
53.59
51.35
48.58
46.41
45.26
44.74
43.96
42.07
38.89
34.92
31.29
29.14
28.94
30.31
32.06
32.81
31.55
28.25
23.62
18.76
14.56
11.27
8.58
5.73
2.07
-2.81
-8.74
-15.23
-21.61
-27.36
-32.36
-36.87
-41.56
-47.12
-54.23
-62.85
-72.24
-80.91
-86.87
-88.3
-84.06
-74.21
-59.9
-43.24
-26.23
-10.38
3.76
16.31
27.64
37.8
46.3
52.44
55.59
55.86
53.94
50.91
47.75
45.06
42.87
40.9
38.92
36.86
35.0
33.68
33.17
33.51
34.41
35.37
35.76
35.11
33.09
29.9
25.9
21.69
17.76
14.26
11.09
7.82
4.14
-0.35
-5.65
-11.64
-17.9
-23.97
-29.43
-34.06
-38.08
-42.09
-47.12
-53.9
-62.58
-72.21
-80.94
-86.47
-86.87
-81.33
-70.32
-55.62
-39.23
-23.03
-8.1
5.18
16.94
27.36
36.31
43.46
48.22
50.37
50.13
48.19
45.51
42.93
40.8
38.95
36.95
34.3
31.11
27.93
25.61
24.91
25.92
28.14
30.49
31.96
31.74
29.77
26.49
22.66
18.92
15.54
12.38
8.97
4.94
0.02
-5.55
-11.31
-16.73
-21.5
-25.68
-29.57
-33.66
-38.35
-43.97
-50.48
-57.46
-64.0
-68.79
-70.35
-67.49
-59.7
-47.36
-31.9
-15.31
0.38
13.61
23.66
30.62
35.2
38.27
40.62
42.48
43.69
43.67
41.91
38.22
33.07
27.48
22.73
19.95
19.48
20.88
22.96
24.33
23.98
21.78
18.36
14.89
12.39
11.15
10.66
9.78
7.32
2.68
-3.86
-11.21
-18.02
-23.19
-26.61
-28.93
-31.43
-35.43
-41.64
-49.96
-59.27
-67.89
-73.91
-76.03
-73.55
-66.71
-56.33
-43.44
-29.11
-14.15
0.69
14.58
26.53
35.73
41.73
44.72
45.52
45.14
44.49
43.96
43.35
42.0
39.5
35.84
31.6
27.83
25.38
24.72
25.54
26.96
27.9
27.7
26.2
23.79
21.19
18.78
16.68
14.48
11.51
7.22
1.51
-5.17
-12.0
-17.98
-22.65
-26.1
-29.14
-32.87
-38.24
-45.6
-54.5
-63.81
-71.88
-77.27
-78.78
-75.92
-68.83
-58.19
-44.98
-30.22
-14.9
0.2
14.09
25.99
35.18
41.39
44.87
46.38
46.89
47.23
47.78
48.25
48.14
46.95
44.56
41.4
38.23
35.96
35.16
35.86
37.34
38.64
38.93
37.91
36.06
34.2
33.12
33.03
33.52
33.55
32.15
28.85
23.78
17.87
12.2
7.72
4.73
2.97
1.57
-0.52
-4.03
-9.27
-15.72
-22.42
-28.34
-32.75
-35.65
-37.69
-39.97
-43.45
-48.69
-55.48
-63.12
-70.74
-77.47
-82.72
-85.95
-86.65
-84.13
-77.88
-67.65
-53.83
-37.44
-19.9
-2.85
12.31
24.52
33.35
39.01
42.26
44.16
45.6
47.02
48.1
48.19
46.72
43.72
39.98
36.7
34.89
34.86
36.22
37.94
38.99
38.67
36.87
34.09
31.1
28.63
27.1
26.5
26.22
25.4
23.2
19.22
13.8
7.8
2.26
-2.17
-5.49
-8.37
-11.62
-15.91
-21.24
-27.0
-32.37
-36.59
-39.49
-41.46
-43.45
-46.46
-51.36
-58.2
-66.3
-74.09
-79.49
-80.5
-75.95
-65.87
-51.5
-35.02
-18.56
-3.7
8.86
19.21
27.8
34.86
40.22
43.43
44.07
42.25
38.69
34.52
30.96
28.77
27.98
27.98
27.85
26.73
24.45
21.5
18.81
17.36
17.57
19.16
21.17
22.31
21.51
18.47
13.78
8.62
4.43
1.93
0.92
0.36
-1.2
-4.75
-10.31
-16.99
-23.35
-28.11
-31.03
-32.95
-35.53
-40.44
-48.42
-58.6
-68.66
-75.56
-76.52
-70.44
-58.08
-41.87
-24.92
-9.79
2.32
11.66
19.41
26.72
34.03
40.88
46.21
48.98
48.67
45.68
41.16
36.66
33.37
31.65
30.99
30.24
28.4
25.18
21.23
17.92
16.6
17.85
20.99
24.48
26.41
25.54
21.65
15.76
9.51
4.36
1.03
-0.79
-2.16
-4.32
-8.12
-13.71
-20.46
-27.27
-33.21
-37.82
-41.41
-44.92
-49.47
-55.83
-64.04
-73.2
-81.57
-87.28
-88.71
-85.17
-76.98
-65.23
-51.33
-36.55
-21.82
-7.61
5.75
17.93
28.38
36.51
42.01
45.01
46.08
46.05
45.52
44.73
43.64
42.02
39.88
37.46
35.14
33.28
32.06
31.43
31.16
31.05
30.78
30.22
29.21
27.69
25.68
23.32
20.75
18.05
15.19
12.0
8.35
4.16
-0.57
-5.77
-11.34
-17.05
-22.64
-27.88
-32.6
-36.77
-40.61
-44.52
-49.01
-54.64
-61.61
-69.49
-77.16
-82.7
-84.13
-80.08
-70.38
-56.26
-39.91
-23.64
-9.11
2.99
13.07
21.67
29.26
35.82
41.06
44.72
46.82
47.63
47.48
46.67
45.24
43.09
40.23
36.79
33.29
30.39
28.66
28.3
29.09
30.35
31.2
31.07
29.64
27.15
24.04
20.8
17.67
14.67
11.56
8.07
4.09
-0.47
-5.43
-10.57
-15.61
-20.44
-24.97
-29.34
-33.75
-38.35
-43.44
-49.14
-55.54
-62.44
-69.22
-74.75
-77.54
-76.16
-69.69
-58.3
-43.11
-25.99
-9.09
5.92
18.03
27.15
33.78
38.73
42.53
45.42
47.31
47.94
47.34
45.76
43.67
41.53
39.65
37.91
36.06
33.81
30.98
27.81
24.68
22.09
20.42
19.83
19.96
20.15
19.53
17.32
13.32
7.9
1.97
-3.47
-7.71
-10.77
-13.22
-16.02
-19.97
-25.31
-31.85
-38.98
-46.03
-52.66
-58.73
-63.92
-67.59
-68.55
-65.45
-57.49
-44.84
-28.83
-11.76
3.92
16.42
24.99
30.13
33.1
35.24
37.47
39.95
42.03
42.63
40.88
36.51
30.27
23.68
18.37
15.59
15.55
17.42
19.74
21.03
20.41
17.95
14.49
11.05
8.48
6.91
5.84
4.43
1.85
-2.23
-7.59
-13.53
-19.28
-24.34
-28.95
-33.87
-40.07
-47.99
-57.0
-65.3
-70.36
-69.9
-62.85
-50.1
-34.08
-17.95
-4.34
5.73
12.89
18.83
25.2
32.71
40.67
47.49
51.48
51.67
48.43
43.22
38.0
34.38
33.0
33.42
34.46
34.79
33.6
30.9
27.46
24.38
22.47
21.78
21.63
20.98
18.86
14.94
9.63
3.73
-1.86
-6.59
-10.51
-14.13
-18.16
-23.2
-29.47
-36.74
-44.64
-52.68
-60.41
-67.38
-73.03
-76.51
-76.88
-73.31
-65.35
-53.27
-38.05
-21.12
-4.08
11.56
24.68
34.54
40.9
44.24
45.49
45.93
46.68
48.16
50.0
51.2
50.65
47.75
42.86
37.16
32.3
29.65
29.74
32.08
35.29
37.63
37.74
35.26
30.83
25.85
21.72
19.15
17.88
16.85
14.67
10.42
4.1
-3.52
-11.11
-17.51
-22.24
-25.52
-28.23
-31.39
-35.81
-41.76
-49.05
-57.07
-65.06
-72.15
-77.26
-79.35
-77.5
-71.31
-61.02
-47.58
-32.22
-16.32
-1.0
12.8
24.24
32.75
38.12
40.8
41.88
42.77
44.45
47.03
49.66
50.91
49.73
45.87
40.33
34.79
30.88
29.57
30.73
33.26
35.68
36.74
35.73
32.9
29.11
25.34
22.22
19.71
17.14
13.65
8.69
2.2
-5.08
-12.0
-17.62
-21.49
-24.03
-26.33
-29.56
-34.63
-41.84
-50.62
-59.83
-68.01
-73.64
-75.65
-73.54
-67.33
-57.62
-45.4
-31.67
-17.4
-3.44
9.54
20.88
29.99
36.52
40.43
42.02
42.04
41.2
40.05
38.74
37.04
34.6
31.28
27.36
23.4
20.31
18.63
18.55
19.69
21.23
22.24
22.0
20.25
17.07
13.09
8.89
4.96
1.55
-1.45
-4.45
-7.81
-11.74
-16.28
-21.07
-25.85
-30.49
-35.15
-40.26
-46.21
-52.77
-58.94
-63.14
-63.51
-58.94
-49.33
-35.76
-20.28
-5.03
8.33
18.96
26.83
32.5
36.54
39.35
41.18
41.99
41.83
40.75
38.88
36.32
33.22
29.68
25.93
22.43
19.56
17.74
16.98
16.86
16.65
15.71
13.62
10.42
6.49
2.12
-2.46
-7.23
-12.23
-17.3
-22.09
-26.2
-29.56
-32.55
-36.2
-41.59
-49.35
-59.1
-69.19
-77.19
-80.65
-78.05
-69.37
-56.13
-40.71
-25.44
-11.93
-0.48
9.35
18.28
26.74
34.58
41.2
45.97
48.46
48.66
47.11
44.49
41.46
38.49
35.66
32.91
30.08
27.13
24.21
21.77
20.17
19.53
19.66
19.8
19.23
17.36
14.08
9.77
5.11
0.72
-3.12
-6.48
-9.95
-14.06
-19.25
-25.59
-32.78
-40.43
-48.21
-55.89
-63.17
-69.6
-74.2
-75.7
-72.93
-65.24
-52.9
-37.23
-20.17
-3.74
10.31
21.24
29.05
34.41
38.33
41.57
44.48
46.78
47.84
46.94
43.94
39.35
34.28
30.01
27.39
26.51
26.73
27.17
26.96
25.93
24.33
22.71
21.43
20.46
19.32
17.3
13.93
8.98
2.88
-3.67
-9.85
-15.06
-19.22
-22.77
-26.45
-30.96
-36.9
-44.25
-52.61
-61.12
-68.6
-73.73
-75.27
-72.34
-64.73
-53.17
-38.93
-23.61
-8.65
5.0
16.81
26.65
34.49
40.41
44.41
46.77
47.82
47.85
47.04
45.32
42.68
39.21
35.34
31.59
28.58
26.55
25.36
24.56
23.6
22.17
20.21
18.04
15.86
13.86
11.87
9.51
6.4
2.31
-2.63
-8.03
-13.36
-18.26
-22.6
-26.63
-30.76
-35.45
-41.09
-47.81
-55.44
-63.23
-70.14
-74.62
-75.19
-70.82
-61.32
-47.66
-31.5
-14.85
0.64
13.81
24.28
32.03
37.29
40.47
41.92
42.16
41.65
40.67
39.12
36.8
33.49
29.2
24.43
19.77
15.96
13.45
12.38
12.41
13.08
13.73
13.74
12.75
10.49
7.13
3.09
-1.2
-5.34
-9.24
-13.02
-16.96
-21.29
-26.37
-32.34
-39.22
-46.79
-54.22
-60.28
-63.44
-62.4
-56.5
-46.28
-33.12
-18.97
-5.59
6.04
15.77
24.05
31.42
38.17
43.83
47.71
49.06
47.57
43.79
38.83
34.03
30.39
28.18
26.8
25.4
23.21
20.01
16.44
13.41
11.74
11.57
12.16
12.1
10.05
5.34
-1.75
-9.86
-17.34
-22.89
-26.16
-27.96
-29.8
-33.18
-39.07
-47.53
-57.54
-67.54
-75.61
-79.97
-79.4
-73.55
-62.96
-49.02
-33.49
-17.84
-3.09
10.28
22.19
32.41
40.53
46.13
49.09
49.76
49.07
47.9
46.82
45.9
44.63
42.35
38.73
33.95
28.68
23.94
20.6
19.09
19.25
20.23
20.83
19.94
16.99
12.04
5.92
-0.29
-5.69
-9.86
-13.07
-16.12
-19.86
-25.02
-31.99
-40.6
-50.33
-60.21
-68.93
-75.03
-77.23
-74.67
-67.28
-55.92
-41.87
-26.67
-11.53
2.8
15.82
27.16
36.4
43.08
46.92
48.23
47.73
46.36
44.96
43.78
42.46
40.46
37.33
33.11
28.55
24.56
21.97
21.11
21.58
22.44
22.59
21.12
17.65
12.59
6.77
1.3
-2.96
-5.89
-8.1
-10.58
-14.26
-19.55
-26.05
-33.15
-40.29
-47.34
-54.47
-61.67
-68.18
-72.47
-72.72
-67.45
-56.42
-40.77
-22.63
-4.55
11.33
23.86
32.9
38.96
43.0
45.76
47.67
48.83
49.07
48.13
45.96
42.68
38.56
34.22
30.15
26.86
24.6
23.26
22.36
21.38
19.92
17.7
14.97
11.91
8.72
5.43
1.87
-2.12
-6.55
-11.27
-16.1
-20.79
-25.4
-30.21
-35.64
-42.21
-50.09
-58.72
-66.76
-72.36
-73.53
-69.12
-59.13
-44.83
-28.34
-11.88
2.96
15.44
25.46
33.43
39.6
44.1
46.94
48.03
47.42
45.3
42.01
37.83
33.25
28.63
24.42
21.01
18.63
17.26
16.63
16.25
15.46
13.94
11.55
8.52
5.31
2.22
-0.69
-3.65
-7.0
-11.13
-15.96
-21.3
-26.8
-32.23
-37.76
-43.7
-50.24
-56.99
-62.83
-65.95
-64.59
-57.69
-45.34
-29.06
-11.24
5.68
19.8
30.29
37.45
42.07
45.1
47.18
48.36
48.31
46.57
42.98
37.77
31.87
26.34
22.16
19.82
18.97
18.82
18.4
17.08
14.7
11.66
8.46
5.47
2.69
-0.26
-3.9
-8.56
-14.2
-20.43
-26.53
-31.94
-36.41
-40.36
-44.82
-50.99
-59.4
-69.34
-78.79
-84.69
-84.25
-76.12
-60.96
-41.46
-21.16
-3.15
10.98
21.32
29.26
36.35
43.36
50.03
55.18
57.57
56.61
52.73
47.2
41.79
37.77
35.54
34.59
33.76
31.99
28.88
24.9
21.03
18.43
17.49
17.75
18.03
16.89
13.36
7.47
0.11
-7.38
-13.68
-18.29
-21.49
-24.23
-27.75
-33.14
-40.86
-50.61
-61.24
-70.82
-77.26
-78.75
-74.34
-64.4
-50.41
-34.4
-18.25
-3.18
10.48
22.77
33.76
43.21
50.51
55.03
56.66
55.86
53.49
50.57
47.72
45.13
42.69
40.12
37.31
34.45
31.85
29.77
28.38
27.52
26.89
26.14
24.95
23.13
20.67
17.61
13.88
9.54
4.58
-0.85
-6.43
-11.83
-16.82
-21.32
-25.58
-30.05
-35.11
-41.13
-48.21
-56.19
-64.6
-72.54
-78.7
-81.66
-80.3
-74.03
-63.18
-48.72
-32.03
-14.57
2.28
17.46
30.18
39.99
46.96
51.44
54.07
55.41
55.75
55.01
53.03
49.76
45.48
40.89
36.7
33.54
31.65
30.81
30.48
30.05
29.05
27.24
24.72
21.77
18.78
16.04
13.57
11.03
7.96
3.87
-1.35
-7.31
-13.33
-18.58
-22.62
-25.6
-28.3
-31.74
-36.87
-44.05
-52.86
-62.07
-69.91
-74.52
-74.59
-69.71
-60.47
-48.19
-34.32
-20.09
-6.18
7.1
19.42
30.21
38.66
44.15
46.44
45.94
43.5
40.18
36.9
34.13
31.93
30.0
27.99
25.62
22.91
20.16
17.87
16.45
15.96
16.07
15.98
14.99
12.62
8.93
4.39
-0.26
-4.48
-8.03
-11.05
-13.99
-17.3
-21.4
-26.55
-32.83
-40.06
-47.65
-54.47
-58.98
-59.75
-55.8
-47.17
-34.93
-20.8
-6.61
6.35
17.51
26.9
34.67
40.89
45.28
47.47
47.19
44.65
40.5
35.69
31.3
27.9
25.7
24.27
22.95
21.13
18.64
15.79
13.15
11.25
10.02
8.95
7.18
4.03
-0.69
-6.43
-12.31
-17.52
-21.58
-24.72
-27.59
-31.05
-35.86
-42.42
-50.61
-59.66
-68.27
-74.66
-77.27
-75.01
-67.78
-56.43
-42.45
-27.42
-12.57
1.39
14.19
25.49
34.95
42.07
46.51
48.22
47.64
45.54
42.7
39.76
36.8
33.66
30.01
25.72
21.05
16.64
13.35
11.69
11.74
12.7
13.51
13.03
10.62
6.37
0.99
-4.48
-9.24
-12.95
-16.01
-19.07
-22.91
-28.11
-34.93
-43.22
-52.44
-61.57
-69.15
-73.62
-73.58
-68.43
-58.53
-45.24
-30.31
-15.35
-1.49
10.88
21.62
30.76
38.12
43.42
46.45
47.27
46.3
44.14
41.53
38.87
36.37
33.87
31.11
27.89
24.33
20.87
18.07
16.42
15.86
15.98
15.96
15.02
12.65
8.82
3.94
-1.33
-6.31
-10.69
-14.47
-17.93
-21.56
-25.88
-31.3
-37.98
-45.84
-54.23
-62.12
-68.06
-70.59
-68.71
-62.27
-52.04
-39.31
-25.48
-11.48
2.11
14.99
26.71
36.51
43.57
47.38
48.14
46.79
44.58
42.42
40.5
38.46
35.64
31.86
27.46
23.29
20.29
18.93
18.9
19.21
18.79
16.76
13.05
8.34
3.67
0.0
-2.24
-3.48
-4.78
-7.21
-11.48
-17.37
-24.05
-30.52
-36.19
-41.21
-46.3
-52.15
-58.6
-64.52
-67.87
-66.49
-59.24
-46.31
-29.6
-11.92
3.89
16.05
24.06
28.8
31.86
34.57
37.63
40.7
42.82
42.89
40.4
35.56
29.46
23.64
19.38
17.44
17.52
18.67
19.46
18.8
16.24
12.27
8.0
4.47
2.24
0.91
-0.41
-2.86
-6.91
-12.41
-18.54
-24.45
-29.75
-34.65
-39.74
-45.27
-50.9
-55.31
-56.83
-53.93
-45.99
-33.7
-18.72
-3.36
10.41
21.25
28.89
33.82
36.86
38.75
39.8
40.06
39.26
37.28
34.19
30.47
26.73
23.51
21.12
19.48
18.36
17.36
16.13
14.32
11.74
8.36
4.37
0.23
-3.58
-6.61
-8.93
-10.98
-13.6
-17.53
-23.15
-30.35
-38.56
-47.15
-55.44
-62.85
-68.7
-72.28
-72.88
-69.92
-63.18
-52.81
-39.37
-23.85
-7.5
8.19
21.68
31.81
38.13
41.03
41.67
41.52
41.67
42.49
43.48
43.56
41.86
38.13
33.07
28.09
24.58
23.36
24.24
26.16
27.61
27.43
25.08
20.9
15.85
10.99
6.97
3.82
1.0
-2.33
-6.73
-12.45
-19.08
-25.98
-32.67
-39.08
-45.42
-51.88
-58.24
-63.45
-66.02
-64.34
-57.41
-45.43
-29.67
-12.22
4.74
19.4
30.89
39.05
44.54
48.28
51.04
53.36
55.16
56.08
55.56
53.31
49.46
44.65
39.84
35.94
33.59
32.74
32.88
33.13
32.8
31.54
29.45
26.97
24.56
22.49
20.48
18.08
14.7
10.1
4.46
-1.79
-8.02
-13.79
-18.91
-23.59
-28.32
-33.69
-40.15
-47.78
-55.97
-63.27
-67.81
-67.78
-62.27
-51.57
-37.29
-21.48
-6.14
7.55
19.26
29.19
37.64
44.67
50.0
53.27
54.32
53.27
50.55
46.72
42.35
37.97
34.01
30.73
28.19
26.42
25.27
24.55
24.07
23.6
23.03
22.25
21.23
19.72
17.57
14.57
10.73
6.39
1.93
-2.18
-5.86
-9.3
-13.09
-17.6
-22.96
-28.98
-35.32
-41.86
-48.51
-55.03
-60.66
-64.21
-64.1
-59.23
-49.53
-36.07
-20.93
-6.27
6.33
16.31
23.95
30.02
35.2
39.65
43.08
44.83
44.35
41.54
36.92
31.48
26.33
22.39
20.04
19.17
19.21
19.42
19.17
18.1
16.17
13.76
11.37
9.44
8.07
6.73
4.56
0.79
-4.76
-11.45
-17.94
-22.88
-25.62
-26.64
-27.5
-30.08
-35.69
-44.4
-54.94
-64.97
-72.06
-74.37
-71.2
-63.17
-51.69
-38.55
-25.15
-12.42
-0.55
10.49
20.7
29.86
37.44
42.84
45.58
45.67
43.57
40.19
36.44
33.02
30.33
28.22
26.35
24.25
21.8
19.07
16.51
14.56
13.53
13.48
13.96
14.38
13.93
12.14
8.75
4.04
-1.33
-6.58
-10.99
-14.34
-16.94
-19.48
-22.81
-27.56
-33.73
-40.86
-48.27
-55.17
-61.1
-65.7
-68.73
-69.95
-68.96
-65.26
-58.46
-48.46
-35.48
-20.35
-4.38
10.72
23.13
31.57
35.75
36.58
35.7
34.95
35.29
36.55
37.57
36.81
33.37
27.56
20.8
15.09
12.05
12.04
14.17
16.72
17.91
16.85
13.85
10.07
6.98
5.41
5.18
5.19
4.03
0.64
-5.12
-12.34
-19.52
-25.19
-28.59
-29.98
-30.58
-32.06
-35.97
-43.04
-52.78
-63.56
-73.02
-78.86
-79.61
-75.08
-66.37
-55.41
-44.05
-33.38
-23.43
-13.4
-2.49
9.44
21.57
32.27
39.89
43.4
42.92
39.66
35.37
31.63
29.17
27.92
27.11
25.93
23.99
21.46
19.09
17.76
17.93
19.39
21.35
22.65
22.32
19.97
15.85
10.87
6.21
2.7
0.45
-1.12
-3.22
-6.9
-12.64
-20.1
-28.08
-35.17
-40.34
-43.44
-45.28
-47.42
-51.39
-58.09
-67.32
-77.52
-86.32
-91.19
-90.33
-83.41
-71.62
-57.11
-42.21
-28.45
-16.23
-5.06
5.81
16.58
26.56
34.52
39.35
40.62
38.93
35.51
31.69
28.34
25.71
23.58
21.63
19.83
18.39
17.55
17.36
17.46
17.37
16.71
15.39
13.59
11.65
9.72
7.59
4.75
0.76
-4.5
-10.62
-16.83
-22.52
-27.39
-31.85
-36.88
-43.58
-52.51
-63.19
-74.08
-82.81
-87.18
-85.72
-78.3
-66.13
-51.0
-34.85
-18.86
-3.55
11.13
25.05
37.92
49.02
57.51
62.9
64.97
64.12
61.08
56.82
52.19
47.88
44.23
41.2
38.51
35.7
32.62
29.48
26.92
25.48
25.36
26.08
26.56
25.57
22.31
16.72
9.63
2.23
-4.34
-9.67
-13.96
-17.95
-22.43
-27.99
-34.94
-43.4
-53.33
-64.35
-75.69
-85.75
-92.49
-94.01
-89.23
-78.44
-63.18
-45.6
-27.56
-10.36
5.65
20.41
33.93
45.91
55.87
63.38
68.32
70.75
70.9
69.02
65.54
61.08
56.36
52.07
48.47
45.44
42.58
39.53
36.42
33.72
31.97
31.35
31.42
31.17
29.53
25.9
20.32
13.55
6.64
0.46
-4.61
-8.82
-12.89
-17.61
-23.55
-30.99
-39.69
-49.3
-59.22
-68.67
-76.71
-82.09
-83.62
-80.18
-71.48
-57.93
-40.81
-21.78
-2.43
15.91
32.31
46.02
56.47
63.27
66.59
67.1
65.96
64.33
62.84
61.42
59.34
55.89
50.76
44.57
38.49
33.85
31.57
31.53
32.83
33.9
33.45
30.76
26.21
20.95
16.27
13.1
11.32
9.97
7.64
3.28
-3.38
-11.51
-19.68
-26.6
-31.63
-35.37
-39.3
-45.14
-53.88
-64.97
-76.11
-83.96
-85.44
-78.8
-64.64
-45.49
-24.91
-6.1
9.13
20.74
29.95
38.16
46.31
54.12
60.49
63.99
63.59
59.3
52.31
44.6
38.16
34.31
33.07
33.3
33.31
31.69
28.03
23.22
18.88
16.59
16.93
19.04
21.03
20.83
17.09
9.98
1.08
-7.39
-13.56
-16.83
-18.08
-19.19
-22.22
-28.51
-38.07
-49.5
-60.55
-68.71
-72.13
-70.06
-62.92
-52.05
-39.2
-25.79
-12.53
0.46
13.43
26.34
38.47
48.56
55.17
57.36
55.26
50.16
43.92
38.46
34.88
33.14
32.29
31.0
28.23
23.88
18.74
14.11
11.14
10.2
10.67
11.24
10.48
7.46
2.19
-4.43
-11.12
-16.68
-20.52
-22.93
-24.84
-27.52
-32.11
-39.21
-48.56
-59.13
-69.16
-76.65
-79.87
-77.8
-70.47
-58.96
-44.95
-30.09
-15.57
-1.74
11.49
24.2
36.07
46.21
53.39
56.73
56.17
52.59
47.65
42.99
39.66
37.75
36.53
34.8
31.71
27.14
21.84
17.16
14.29
13.74
15.11
