-67.55
-68.59
-65.4
-57.34
-44.71
-28.87
-12.01
3.53
16.05
24.91
30.53
34.18
37.13
40.25
43.68
46.67
48.17
47.3
43.91
38.63
32.91
28.17
25.45
24.88
25.66
26.48
26.1
24.0
20.41
16.39
12.98
10.78
9.66
8.78
7.21
4.27
-0.05
-5.26
-10.57
-15.43
-19.63
-23.31
-26.99
-31.26
-36.8
-44.07
-53.07
-62.99
-72.22
-78.62
-80.13
-75.78
-65.88
-52.17
-36.85
-21.82
-8.1
4.25
15.63
26.24
35.65
43.06
47.65
49.28
48.53
46.48
44.26
42.5
41.22
40.0
38.41
36.21
33.6
30.99
28.73
27.09
26.02
25.35
24.77
24.01
22.72
20.69
17.86
14.36
10.61
7.01
3.86
1.07
-1.82
-5.45
-10.14
-15.72
-21.52
-26.67
-30.68
-33.65
-36.49
-40.45
-46.56
-54.91
-64.41
-72.99
-78.25
-78.38
-72.68
-61.85
-47.62
-32.06
-16.87
-2.98
9.36
20.32
30.0
38.34
44.99
49.7
52.36
53.19
52.6
51.13
49.25
47.29
45.51
44.06
43.05
42.41
41.97
41.57
41.15
40.76
40.47
40.43
40.59
40.75
40.63
39.9
38.47
36.4
33.97
31.41
29.02
27.12
25.95
25.55
25.72
25.88
25.4
23.75
20.83
17.07
13.3
10.39
8.81
8.34
8.19
7.39
5.37
2.22
-1.21
-3.78
-4.58
-3.48
-1.31
0.63
1.09
-0.41
-3.37
-6.66
-9.04
-9.83
-9.12
-7.67
-6.42
-6.11
-6.96
-8.84
-11.23
-13.64
-15.74
-17.35
-18.57
-19.67
-21.14
-23.34
-26.45
-30.21
-34.12
-37.61
-40.26
-42.2
-43.95
-46.28
-49.67
-54.18
-59.32
-64.36
-68.82
-72.68
-76.57
-81.19
-86.69
-92.19
-95.77
-95.15
-88.67
-76.18
-59.04
-39.83
-21.23
-5.18
7.42
16.65
23.11
27.51
30.35
31.99
32.65
32.49
31.53
29.56
26.43
22.18
17.3
12.6
9.06
7.33
7.42
8.63
9.85
9.99
8.52
5.66
2.17
-1.13
-3.64
-5.29
-6.54
-8.09
-10.62
-14.54
-19.74
-25.72
-31.84
-37.52
-42.74
-47.81
-53.18
-58.85
-64.04
-67.08
-66.04
-59.62
-47.76
-31.92
-14.61
1.51
14.45
23.39
28.8
31.88
33.98
35.99
38.06
39.78
40.5
39.68
37.08
33.08
28.26
23.4
19.25
16.25
14.63
14.15
14.21
13.97
12.6
9.64
5.27
0.13
-4.93
-9.14
-12.29
-14.73
-17.31
-20.95
-26.14
-32.82
-40.28
-47.83
-54.93
-61.5
-67.78
-73.83
-79.08
-82.18
-81.38
-75.1
-63.0
-46.1
-26.79
-7.97
7.85
19.52
27.27
32.44
36.69
41.11
45.77
49.84
52.2
51.97
49.14
44.43
39.01
34.11
30.45
28.2
27.04
26.43
25.75
24.61
22.81
20.42
17.63
14.57
11.24
7.5
3.14
-1.95
-7.57
-13.32
-18.87
-23.98
-28.95
-34.29
-40.77
-48.72
-57.87
-67.01
-74.35
-78.05
-76.7
-69.92
-58.33
-43.39
-26.82
-10.24
5.14
18.62
29.86
38.9
45.95
51.4
55.54
58.47
60.0
59.79
57.71
54.07
49.65
45.4
42.1
40.07
38.94
38.14
37.09
35.58
33.64
31.39
28.73
25.49
21.5
16.76
11.57
6.35
1.52
-2.87
-7.0
-11.34
-16.31
-22.21
-29.26
-37.53
-46.81
-56.4
-65.01
-70.88
-72.4
-68.56
-59.38
-45.89
-29.81
-12.86
3.63
18.88
32.33
43.48
51.85
57.18
59.68
60.03
59.14
57.78
56.19
54.09
51.11
46.99
42.06
37.07
32.91
30.12
28.75
28.29
28.02
27.27
25.54
22.69
18.91
14.69
10.45
6.61
3.3
0.45
-2.19
-5.02
-8.5
-13.01
-18.97
-26.68
-35.99
-46.05
-55.22
-61.31
-62.41
-57.6
-47.42
-33.64
-18.47
-3.76
9.57
21.49
32.23
41.77
49.51
54.52
56.17
54.51
50.44
45.36
40.67
37.2
34.94
33.27
31.24
28.27
24.41
20.45
17.36
15.97
16.22
17.2
17.49
15.71
11.32
4.84
-2.29
-8.42
-12.49
-14.42
-15.26
-16.65
-20.23
-26.91
-36.56
-47.88
-58.79
-67.01
-70.54
-68.26
-60.17
-47.33
-31.6
-15.04
0.61
14.41
26.14
36.26
45.24
53.22
59.74
63.92
64.92
62.58
57.69
51.74
46.5
43.1
41.67
41.29
40.51
38.15
34.06
29.13
24.8
22.42
22.37
23.95
25.52
25.34
22.35
16.73
9.67
2.98
-1.94
-4.67
-6.04
-7.63
-10.97
-16.85
-24.73
-33.19
-40.6
-46.11
-50.14
-54.08
-59.42
-66.68
-74.9
-81.51
-83.55
-78.74
-66.69
-49.06
-28.88
-9.43
7.0
19.51
28.79
36.22
43.06
49.85
56.22
61.27
64.06
64.15
61.6
57.28
52.24
47.51
43.97
41.88
41.17
41.35
41.77
41.78
41.06
39.61
37.76
36.01
34.57
33.45
32.28
30.54
27.67
23.44
17.98
11.8
5.71
0.34
-3.97
-7.41
-10.64
-14.5
-19.59
-25.9
-32.84
-39.35
-44.71
-48.81
-52.44
-56.84
-62.98
-70.7
-78.51
-83.83
-83.98
-77.35
-64.18
-46.4
-26.93
-8.57
6.99
19.32
29.05
37.21
44.43
50.77
55.78
58.84
59.46
57.7
53.97
49.15
44.19
39.86
36.6
34.43
33.1
32.15
31.29
30.33
29.26
28.25
27.36
26.69
26.12
25.4
24.09
21.78
18.24
13.51
8.16
2.84
-1.75
-5.46
-8.51
-11.55
-15.11
-19.47
-24.54
-29.81
-34.8
-39.17
-43.02
-46.79
-51.24
-56.93
-63.97
-71.67
-78.43
-82.17
-80.99
-74.05
-61.84
-46.18
-29.39
-13.55
0.17
11.61
21.21
29.55
36.82
42.71
46.6
48.04
47.03
44.07
40.1
36.03
32.45
29.5
26.9
24.27
21.54
18.9
16.85
15.67
15.35
15.45
15.41
14.69
13.06
10.67
7.8
4.7
1.47
-2.0
-5.79
-9.94
-14.28
-18.65
-22.79
-26.58
-30.16
-33.79
-37.97
-43.02
-48.99
-55.37
-61.2
-65.04
-65.51
-61.75
-53.73
-42.47
-29.47
-16.35
-4.17
6.56
15.99
24.3
31.44
37.03
40.39
41.13
39.35
35.79
31.46
27.37
24.09
21.55
19.36
16.83
13.69
10.11
6.73
4.35
3.42
3.83
4.82
5.35
4.5
1.86
-2.23
-6.97
-11.56
-15.45
-18.57
-21.25
-23.87
-26.8
-30.23
-34.29
-39.07
-44.82
-51.7
-59.6
-67.9
-75.37
-80.55
-82.19
-79.62
-72.95
-63.03
-50.89
-37.48
-23.39
-9.04
4.95
17.75
28.27
35.73
39.88
41.37
41.26
40.68
40.29
39.9
38.89
36.42
32.12
26.33
20.15
14.95
11.78
11.06
12.2
14.01
15.07
14.37
11.63
7.46
2.77
-1.57
-5.01
-7.72
-10.16
-12.94
-16.5
-20.99
-26.18
-31.72
-37.3
-42.67
-47.96
-53.5
-59.78
-66.99
-74.76
-81.77
-86.05
-85.63
-79.17
-66.81
-50.1
-31.66
-14.29
0.0
10.62
18.24
24.25
30.08
36.36
42.76
48.1
50.97
50.41
46.53
40.55
34.37
29.83
27.88
28.37
30.13
31.66
31.84
30.38
27.9
25.48
24.04
23.79
24.22
24.25
22.85
19.42
14.1
7.78
1.66
-3.25
-6.69
-9.14
-11.67
-15.4
-20.96
-28.19
-36.1
-43.42
-49.28
-53.71
-57.61
-62.31
-68.74
-76.69
-84.77
-90.5
-91.53
-86.4
-75.12
-59.11
-40.56
-21.82
-4.7
9.61
20.77
28.98
34.89
39.32
42.94
46.09
48.49
49.44
48.1
44.19
38.27
31.72
26.26
23.13
22.64
24.01
25.85
26.78
26.08
23.87
20.97
18.44
16.78
15.97
15.28
13.77
10.62
5.62
-0.85
-7.81
-14.07
-18.89
-22.18
-24.7
-27.82
-33.05
-41.1
-51.57
-62.53
-71.1
-74.58
-71.31
-61.44
-46.86
-30.4
-14.67
-1.2
9.93
19.73
29.28
38.97
48.15
55.41
59.18
58.74
54.47
47.87
40.98
35.51
32.22
30.72
29.87
28.3
25.31
21.09
16.57
13.04
11.3
11.35
12.19
12.43
10.79
6.81
0.95
-5.75
-12.03
-17.2
-21.2
-24.72
-28.77
-34.42
-42.18
-51.86
-62.48
-72.11
-78.56
-79.78
-74.75
-63.81
-48.64
-31.55
-14.71
0.5
13.95
26.0
37.14
47.3
55.76
61.48
63.79
62.77
59.34
54.96
50.99
48.12
46.24
44.57
42.21
38.76
34.61
30.71
28.08
27.12
27.46
28.01
27.5
25.13
20.88
15.44
9.76
4.46
-0.34
-4.9
-9.58
-14.62
-19.98
-25.63
-31.65
-38.56
-46.9
-56.85
-67.55
-77.09
-82.91
-82.75
-75.62
-62.31
-45.07
-26.74
-9.73
4.85
17.12
27.96
38.11
47.58
55.67
61.28
63.65
62.68
59.14
54.38
49.78
46.06
43.13
40.42
37.26
33.44
29.44
26.03
23.91
23.12
23.03
22.43
20.42
16.61
11.37
5.58
0.0
-5.0
-9.53
-13.94
-18.68
-23.75
-28.95
-34.04
-39.01
-44.36
-50.74
-58.47
-66.95
-74.67
-79.34
-78.8
-71.86
-58.87
-41.73
-23.17
-5.77
8.79
20.13
28.86
35.99
42.25
47.82
52.16
54.54
54.41
51.87
47.65
42.88
38.6
35.36
33.12
31.29
29.28
26.72
23.73
20.75
18.34
16.79
16.05
15.75
15.21
13.81
11.12
7.11
2.14
-3.18
-8.2
-12.45
-15.88
-18.89
-22.16
-26.58
-32.9
-41.36
-51.42
-61.65
-69.86
-73.72
-71.68
-63.53
-50.68
-35.55
-20.61
-7.55
3.39
12.86
21.81
30.56
38.44
44.17
46.55
45.25
41.04
35.57
30.55
27.1
25.36
24.47
23.27
20.78
16.81
11.98
7.54
4.62
3.66
4.27
5.19
5.0
2.67
-1.84
-7.7
-13.39
-17.71
-20.22
-21.44
-22.72
-25.53
-30.82
-38.58
-47.63
-55.98
-61.39
-62.13
-57.37
-47.6
-34.27
-19.43
-5.12
7.18
16.84
24.12
29.7
34.39
38.55
41.99
44.09
44.03
41.49
36.74
30.84
25.03
20.43
17.5
16.02
15.21
14.17
12.31
9.45
5.91
2.31
-0.85
-3.3
-5.2
-6.98
-9.21
-12.33
-16.52
-21.59
-27.07
-32.56
-37.96
-43.48
-49.56
-56.41
-63.69
-70.28
-74.39
-74.06
-68.07
-56.27
-39.92
-21.31
-3.09
12.62
24.57
32.82
38.26
42.08
45.31
48.36
51.02
52.56
52.2
49.43
44.39
37.93
31.39
26.05
22.68
21.34
21.36
21.8
21.69
20.46
18.07
14.84
11.29
7.84
4.7
1.78
-1.36
-5.3
-10.5
-16.97
-24.21
-31.27
-37.48
-42.69
-47.48
-52.81
-59.18
-66.16
-72.0
-74.35
-71.06
-61.36
-46.16
-27.87
-9.49
6.44
18.48
26.71
32.33
36.93
41.76
47.08
52.24
55.88
56.75
54.32
49.19
42.97
37.52
34.19
33.16
33.63
34.22
33.75
31.77
28.58
25.01
21.79
19.3
17.26
15.11
12.26
8.4
3.6
-1.83
-7.44
-12.87
-17.85
-22.42
-26.75
-31.24
-36.47
-42.86
-50.54
-58.77
-65.94
-69.92
-68.71
-61.34
-48.31
-31.64
-14.09
1.64
14.02
22.88
29.26
34.59
39.91
45.41
50.38
53.59
53.89
50.81
44.86
37.47
30.54
25.6
23.43
23.62
24.84
25.45
24.24
21.07
16.88
13.27
11.46
11.74
13.17
14.04
12.61
8.16
1.22
-6.58
-13.24
-17.55
-19.48
-20.2
-21.55
-25.21
-31.91
-41.15
-51.23
-59.81
-64.67
-64.33
-58.54
-48.24
-35.21
-21.4
-8.34
3.2
13.26
22.19
30.21
37.16
42.51
45.63
46.14
44.18
40.33
35.64
31.07
27.38
24.75
22.97
21.61
20.19
18.49
16.43
14.23
12.08
10.2
8.58
7.03
5.21
2.61
-1.01
-5.66
-10.86
-15.85
-19.9
-22.78
-24.96
-27.52
-31.77
-38.28
-46.51
-54.59
-59.89
-60.03
-53.79
-41.83
-26.3
-10.18
4.0
14.93
22.74
28.59
33.64
38.51
42.8
45.56
45.87
43.55
39.27
34.27
29.86
26.69
24.7
23.14
21.26
18.68
15.61
12.67
10.37
8.87
7.83
6.75
5.13
2.83
0.06
-2.98
-6.1
-9.45
-13.2
-17.5
-22.25
-27.14
-31.97
-36.87
-42.44
-49.25
-57.42
-65.9
-72.59
-74.96
-71.0
-60.36
-44.54
-26.57
-9.73
3.67
13.06
19.47
24.71
30.28
36.51
42.47
46.55
47.42
44.89
39.92
34.38
30.02
27.83
27.52
27.9
27.51
25.37
21.5
16.67
12.19
9.06
7.67
7.49
7.47
6.45
3.7
-0.76
-6.31
-11.83
-16.37
-19.45
-21.35
-22.93
-25.4
-29.79
-36.44
-44.75
-52.95
-58.72
-59.88
-55.16
-44.94
-30.96
-15.85
-1.92
9.53
18.66
26.55
34.34
42.49
50.29
56.37
59.29
58.51
54.5
48.77
43.09
38.84
36.54
35.67
35.24
34.11
31.76
28.43
24.9
22.16
20.69
20.22
19.68
17.87
13.92
7.86
0.53
-6.96
-13.58
-19.04
-23.66
-28.28
-33.69
-40.52
-48.81
-58.09
-67.46
-75.44
-80.5
-81.13
-76.63
-67.2
-54.12
-39.19
-24.22
-10.56
1.26
11.21
19.55
26.42
31.72
35.17
36.57
35.85
33.18
29.01
23.92
18.62
13.77
9.76
6.68
4.3
2.23
0.1
-2.25
-4.79
-7.42
-10.11
-12.97
-16.12
-19.64
-23.42
-27.18
-30.59
-33.35
-35.25
-36.35
-36.94
-37.62
-39.02
-41.57
-45.07
-48.62
-50.72
-49.78
-44.76
-35.54
-23.14
-9.28
4.19
15.8
24.79
31.12
35.3
37.95
39.5
40.01
39.26
37.04
33.41
28.83
24.15
20.29
17.85
16.98
17.16
17.54
17.27
15.85
13.2
9.76
6.17
2.96
0.33
-2.03
-4.76
-8.41
-13.21
-18.89
-24.76
-30.09
-34.56
-38.36
-42.13
-46.45
-51.18
-55.34
-57.33
-55.4
-48.61
-37.24
-22.76
-7.41
6.7
18.25
26.84
32.87
37.11
40.21
42.43
43.72
43.7
42.03
38.7
34.1
28.92
23.98
19.81
16.54
14.03
11.92
10.04
8.51
7.53
7.18
7.13
6.77
5.59
3.48
0.73
-2.08
-4.44
-6.29
-8.09
-10.71
-15.01
-21.43
-29.72
-38.78
-46.97
-52.35
-53.45
-49.71
-41.62
-30.54
-18.05
-5.45
6.64
17.98
28.53
37.99
45.74
51.22
54.05
54.54
53.38
51.56
49.76
48.28
46.93
45.22
42.71
39.05
34.44
29.46
25.02
21.84
20.37
20.38
21.06
21.32
20.05
16.82
11.84
6.05
0.57
-3.8
-6.89
-9.36
-12.24
-16.65
-23.05
-31.17
-40.16
-48.83
-56.18
-61.3
-63.5
-62.25
-57.24
-48.46
-36.43
-22.16
-7.03
7.44
20.07
30.18
37.68
42.97
46.66
49.31
51.11
51.88
51.09
48.46
44.19
39.02
34.13
30.34
28.04
26.85
26.15
25.27
24.06
22.75
21.68
21.04
20.51
19.58
17.67
14.53
10.21
5.22
0.16
-4.49
-8.54
-12.26
-16.03
-20.29
-25.26
-30.8
-36.65
-42.49
-48.22
-53.76
-59.02
-63.39
-65.86
-65.17
-60.24
-50.91
-37.9
-22.85
-7.69
5.82
16.7
24.82
30.66
34.98
38.17
40.36
41.33
40.88
38.98
35.83
31.9
27.69
23.66
20.07
17.18
15.09
13.8
13.13
12.65
12.0
10.92
9.41
7.5
5.34
2.95
0.26
-2.8
-6.31
-10.15
-14.11
-17.95
-21.53
-24.85
-28.24
-32.12
-36.88
-42.54
-48.49
-53.51
-56.15
-55.22
-50.36
-42.06
-31.49
-19.92
-8.44
2.28
11.86
20.04
26.54
31.07
33.54
34.09
33.18
31.24
28.63
25.51
22.04
18.46
15.05
12.17
10.04
8.66
7.78
7.02
6.07
4.82
3.32
1.7
-0.09
-2.14
-4.55
-7.38
-10.44
-13.55
-16.56
-19.62
-23.05
-27.31
-32.66
-39.04
-46.06
-52.97
-58.98
-63.15
-64.62
-62.67
-56.91
-47.44
-34.92
-20.63
-6.18
6.82
17.21
24.6
29.27
32.09
34.02
35.7
37.17
37.96
37.32
34.76
30.3
24.51
18.56
13.51
10.22
8.85
9.01
9.86
10.41
9.9
7.93
4.74
0.84
-3.08
-6.41
-9.0
-11.14
-13.58
-17.04
-22.0
-28.26
-35.28
-42.3
-48.74
-54.49
-59.63
-64.23
-67.74
-69.1
-66.88
-60.13
-48.79
-33.87
-17.38
-1.51
11.89
21.92
28.56
32.65
35.34
37.55
39.76
41.72
42.78
42.24
39.76
35.58
30.57
25.83
22.27
20.46
20.25
21.08
22.04
22.11
20.49
17.01
12.15
6.86
2.29
-0.83
-2.54
-3.73
-5.75
-9.74
-15.9
-23.43
-30.87
-36.81
-40.83
-43.62
-46.66
-51.26
-57.7
-64.67
-69.76
-70.46
-65.21
-54.13
-38.91
-22.11
-6.19
7.13
17.36
24.95
30.92
36.28
41.41
46.09
49.5
50.7
49.13
45.03
39.45
33.84
29.52
27.06
26.25
26.26
26.19
25.42
23.79
21.64
19.41
17.5
15.8
14.04
11.81
8.71
4.65
-0.43
-6.21
-12.3
-18.14
-23.33
-27.64
-31.27
-34.96
-39.74
-46.42
-54.83
-63.42
-69.62
-70.75
-65.19
-53.17
-36.82
-19.28
-3.44
9.02
18.03
24.59
30.07
35.23
40.07
43.82
45.56
44.67
41.19
35.91
30.09
25.18
22.01
20.82
21.07
21.76
21.98
21.09
19.12
16.48
13.81
11.46
9.49
7.62
5.34
2.13
-2.43
-8.26
-14.85
-21.44
-27.29
-32.15
-36.38
-40.85
-46.29
-52.71
-58.8
-62.29
-60.86
-53.06
-39.3
-21.63
-3.11
13.43
26.28
35.27
41.33
45.74
49.5
52.71
54.89
55.35
53.62
49.7
44.13
37.8
31.77
26.99
23.98
22.82
23.01
23.67
23.72
22.24
18.95
14.23
9.01
4.17
0.34
-2.57
-5.22
-8.41
-12.73
-18.12
-24.07
-29.87
-35.25
-40.5
-46.33
-53.22
-60.82
-67.72
-71.82
-71.16
-64.72
-52.95
-37.51
-20.56
-4.02
10.85
23.43
33.47
40.93
45.97
48.99
50.65
51.65
52.38
52.7
51.87
49.15
44.35
38.11
31.8
26.94
24.48
24.32
25.45
26.27
25.57
23.0
19.14
15.19
12.22
10.6
9.77
8.53
5.59
0.31
-6.93
-14.93
-22.06
-27.15
-30.1
-32.01
-34.78
-40.27
-49.13
-60.26
-70.96
-77.73
-77.74
-70.08
-56.05
-38.65
-21.3
-6.37
5.43
14.96
23.73
32.74
41.87
49.9
55.29
56.95
54.93
50.32
44.82
40.08
36.96
35.43
34.73
33.84
31.99
28.99
25.18
21.34
18.27
16.39
15.65
15.57
15.48
14.67
12.67
9.26
4.62
-0.7
-6.11
-10.93
-14.76
-17.63
-20.1
-23.2
-27.85
-34.64
-43.31
-52.87
-61.67
-68.06
-70.68
-68.88
-62.9
-53.49
-41.94
-29.42
-16.81
-4.47
7.46
18.88
29.37
38.09
44.22
47.16
47.14
45.17
42.61
40.5
39.13
38.04
36.31
33.3
29.0
24.13
19.9
17.2
16.4
16.99
18.01
18.25
17.04
14.31
10.58
6.69
3.27
0.61
-1.56
-3.74
-6.49
-10.08
-14.45
-19.48
-24.82
-30.27
-35.64
-40.95
-46.3
-51.8
-57.36
-62.49
-66.2
-67.11
-64.04
-56.28
-44.19
-29.1
-12.91
2.36
15.25
25.09
32.0
36.54
39.47
41.33
42.31
42.3
41.01
38.3
34.31
29.54
24.74
20.72
18.07
16.82
16.59
16.63
16.3
15.2
13.4
11.28
9.33
7.71
6.14
4.07
0.96
-3.2
-7.94
-12.53
-16.38
-19.45
-22.25
-25.62
-30.28
-36.5
-43.78
-51.08
-56.99
-60.21
-59.86
-55.64
-47.91
-37.54
-25.71
-13.46
-1.66
9.1
18.44
26.06
31.82
35.65
37.79
38.45
38.05
36.78
34.72
31.96
28.56
24.87
21.35
18.52
16.56
15.47
14.93
14.5
13.93
12.92
11.47
9.55
7.22
4.4
1.17
-2.35
-6.01
-9.71
-13.59
-17.76
-22.38
-27.39
-32.82
-38.62
-44.9
-51.74
-58.86
-65.56
-70.54
-72.37
-69.97
-63.08
-52.31
-38.89
-24.32
-9.87
3.42
14.89
24.17
31.17
36.16
39.55
41.97
43.86
45.34
46.02
45.32
42.82
38.69
33.85
29.51
26.82
26.09
26.79
27.66
27.53
25.78
22.75
19.34
16.37
14.18
12.53
10.85
8.6
5.56
1.75
-2.69
-7.61
-12.96
-18.53
-24.03
-29.1
-33.52
-37.43
-41.31
-45.94
-51.86
-59.02
-66.44
-72.33
-74.55
-71.32
-62.13
-47.96
-31.25
-14.81
-0.99
9.45
17.1
23.55
30.24
37.58
44.73
50.07
52.14
50.46
45.95
40.45
35.87
33.36
32.88
33.43
33.77
33.0
31.11
28.8
27.12
26.63
27.36
28.55
29.15
28.18
25.16
20.29
14.41
8.67
3.97
0.83
-1.11
-2.68
-4.92
-8.58
-13.74
-19.87
-26.04
-31.38
-35.42
-38.48
-41.5
-45.74
-52.15
-60.8
-70.46
-78.74
-82.83
-80.53
-71.24
-56.23
-38.17
-20.12
-4.4
8.03
17.58
25.33
32.26
38.82
44.75
49.34
51.83
51.68
48.88
44.18
38.89
34.47
32.05
31.88
33.22
34.65
34.76
32.83
29.36
25.62
23.03
22.3
23.09
24.23
24.34
22.61
18.99
14.3
9.58
5.54
2.37
-0.32
-3.14
-6.67
-11.15
-16.67
-22.88
-29.49
-36.11
-42.55
-48.77
-54.78
-60.52
-65.52
-69.0
-69.81
-66.94
-59.84
-48.75
-34.67
-19.08
-3.65
10.2
21.32
29.25
34.13
36.61
37.81
38.64
39.62
40.58
40.8
39.44
36.15
31.42
26.41
22.61
20.93
21.46
23.32
25.12
25.49
23.76
20.14
15.63
11.6
8.94
7.84
7.59
6.92
4.59
-0.03
-6.54
-13.77
-20.2
-24.84
-27.62
-29.57
-32.35
-37.44
-45.31
-54.79
-63.38
-68.04
-66.51
-58.22
-44.62
-28.58
-13.25
-0.82
8.18
14.61
20.04
25.63
31.54
36.97
40.65
41.6
39.69
35.71
31.09
27.26
25.07
24.5
24.92
25.32
24.93
23.31
20.56
17.16
13.8
11.09
9.3
8.26
7.35
5.64
2.3
-2.98
-9.75
-16.89
-23.03
-27.32
-29.77
-31.5
-34.2
-39.46
-47.64
-57.6
-66.68
-71.68
-70.24
-61.84
-48.06
-31.87
-16.43
-3.66
6.13
13.97
21.23
28.6
35.71
41.45
44.71
44.99
42.76
39.08
35.14
