-10.16
-12.0
-14.93
-19.55
-25.84
-33.32
-41.19
-48.93
-55.9
-61.39
-64.43
-63.98
-59.32
-50.39
-38.1
-24.08
-10.27
1.95
11.97
19.96
26.45
31.76
35.83
38.17
38.43
36.53
33.2
29.47
26.31
24.21
22.84
21.56
19.77
17.41
14.94
13.14
12.5
12.92
13.8
14.04
12.84
9.88
5.54
0.65
-3.84
-7.28
-9.67
-11.55
-13.96
-17.83
-23.7
-31.4
-40.16
-48.76
-55.86
-60.23
-60.96
-57.69
-50.55
-40.22
-27.83
-14.67
-1.89
9.83
20.27
29.41
37.15
43.08
46.67
47.55
45.96
42.7
38.98
35.89
33.92
32.81
31.79
30.09
27.4
24.07
20.84
18.53
17.57
17.79
18.43
18.53
17.27
14.33
9.95
4.7
-0.77
-5.92
-10.5
-14.52
-18.08
-21.41
-24.81
-28.73
-33.76
-40.34
-48.36
-56.89
-64.22
-68.45
-68.22
-63.19
-54.13
-42.5
-29.65
-16.41
-3.06
10.29
23.2
34.69
43.61
49.17
51.34
51.05
49.73
48.66
48.46
48.78
48.61
46.91
43.23
37.98
32.49
28.23
26.25
26.73
28.75
30.92
31.86
30.89
28.03
24.11
20.06
16.6
14.02
11.92
9.62
6.32
1.6
-4.44
-10.98
-16.98
-21.46
-24.02
-25.28
-26.51
-29.39
-35.1
-43.81
-54.37
-64.63
-72.06
-74.7
-71.86
-64.21
-53.48
-41.53
-29.53
-17.8
-5.91
6.46
19.11
30.92
40.5
46.76
49.47
49.39
47.78
45.96
44.62
43.92
43.52
42.92
41.73
39.74
37.08
34.01
31.06
28.73
27.46
27.37
28.17
29.27
29.88
29.35
27.36
24.11
20.16
16.26
13.06
10.73
9.03
7.23
4.63
0.7
-4.45
-10.19
-15.63
-19.9
-22.77
-24.51
-26.11
-28.55
-32.61
-38.24
-44.7
-51.01
-56.26
-60.21
-63.24
-65.99
-68.81
-71.2
-71.89
-69.15
-61.82
-49.69
-33.93
-16.67
-0.3
13.22
23.01
29.26
33.02
35.5
37.74
40.05
42.07
42.93
41.77
38.2
32.62
26.36
21.0
17.92
17.54
19.34
22.01
24.13
24.65
23.29
20.63
17.66
15.34
14.16
13.93
13.81
12.68
9.59
4.27
-2.54
-9.39
-14.83
-17.89
-18.82
-18.82
-19.59
-22.52
-28.13
-35.83
-44.38
-52.31
-58.33
-61.72
-62.22
-60.0
-55.43
-49.06
-41.22
-32.16
-21.93
-10.65
1.3
13.13
23.65
31.63
36.11
36.99
35.02
31.69
28.56
26.66
26.23
26.59
26.58
25.11
21.8
17.18
12.52
9.17
7.97
8.9
10.98
12.77
13.03
11.14
7.49
3.08
-0.85
-3.58
-5.04
-5.8
-6.78
-8.73
-12.13
-16.83
-22.32
-27.76
-32.41
-35.8
-38.1
-40.12
-43.12
-48.28
-55.76
-64.41
-71.79
-75.22
-72.83
-64.4
-51.61
-37.21
-23.97
-13.38
-5.38
1.24
8.04
15.75
24.05
31.63
36.89
38.72
37.09
33.01
28.08
23.94
21.42
20.6
20.73
20.81
19.95
17.88
15.02
12.22
10.56
10.63
12.4
15.09
17.38
17.93
15.93
11.4
5.27
-0.88
-5.75
-8.7
-10.05
-10.93
-12.59
-15.89
-20.96
-27.16
-33.39
-38.68
-42.58
-45.31
-47.63
-50.63
-55.41
-62.46
-71.36
-80.56
-87.8
-90.8
-88.15
-79.81
-67.08
-52.13
-36.92
-22.79
-10.1
1.46
12.36
22.74
32.26
40.21
45.74
48.41
48.26
45.93
42.56
39.38
37.21
36.17
35.81
35.25
33.97
32.02
30.01
28.9
29.22
30.85
32.86
34.11
33.6
31.14
27.17
22.54
18.13
14.41
11.51
9.12
6.86
4.26
0.99
-3.12
-8.12
-13.72
-19.51
-24.95
-29.71
-33.7
-37.27
-40.99
-45.53
-51.4
-58.53
-66.28
-73.38
-78.27
-79.62
-76.76
-69.75
-59.39
-46.86
-33.31
-19.7
-6.54
5.89
17.42
27.8
36.81
44.16
49.5
52.73
53.84
53.19
51.37
49.06
46.72
44.61
42.7
40.84
39.12
37.62
36.67
36.47
37.04
38.02
38.93
39.24
38.58
36.88
34.19
30.83
27.21
23.74
20.66
17.96
15.37
12.46
8.83
4.28
-1.04
-6.61
-11.84
-16.27
-19.87
-22.83
-25.58
-28.44
-31.7
-35.58
-40.24
-45.86
-52.37
-59.38
-65.81
-70.24
-71.18
-67.76
-60.01
-48.91
-36.01
-22.71
-10.08
1.54
12.21
21.99
30.74
38.0
43.18
45.84
45.96
43.92
40.48
36.6
33.16
30.8
29.56
28.99
28.33
26.97
24.74
22.12
20.04
19.34
20.25
22.09
23.48
23.01
19.98
14.7
8.47
2.91
-0.86
-2.72
-3.63
-5.03
-8.16
-13.34
-19.9
-26.48
-31.9
-35.72
-38.42
-41.24
-45.29
-51.05
-57.76
-63.75
-66.74
-64.95
-57.68
-45.47
-30.15
-14.03
0.74
12.82
21.91
28.63
33.84
38.2
41.87
44.43
45.35
44.36
41.6
37.69
33.39
29.42
26.15
23.75
22.1
20.96
19.99
18.74
16.91
14.45
11.73
9.26
7.53
6.55
5.78
4.28
1.06
-4.36
-11.67
-19.77
-27.32
-33.16
-36.98
-39.35
-41.61
-45.25
-51.27
-59.7
-69.4
-78.36
-84.39
-85.72
-81.58
-72.42
-59.7
-45.43
-31.4
-18.58
-6.91
4.29
15.79
27.78
39.47
49.36
55.85
57.86
55.6
50.49
44.59
39.82
37.18
36.49
36.57
35.99
33.66
29.58
24.72
20.54
18.25
18.22
19.77
21.48
21.79
19.48
14.42
7.4
-0.13
-6.71
-11.5
-14.55
-16.79
-19.58
-24.22
-31.22
-40.28
-50.39
-60.09
-68.21
-73.93
-77.02
-77.56
-75.64
-71.15
-63.76
-53.17
-39.25
-22.64
-4.5
13.48
29.48
42.02
50.22
54.23
55.02
54.21
53.18
52.75
52.88
52.71
51.25
47.87
42.8
37.08
32.15
29.07
28.17
29.07
30.78
32.13
32.07
29.98
25.81
20.15
14.0
8.46
4.27
1.36
-1.08
-4.38
-9.52
-16.78
-25.43
-34.21
-42.16
-49.01
-55.23
-61.45
-67.78
-73.27
-76.3
-75.1
-68.49
-56.48
-40.29
-21.87
-3.32
13.53
27.55
38.38
46.17
51.63
55.45
58.1
59.58
59.67
57.98
54.5
49.63
43.93
38.1
32.63
27.95
24.27
21.82
20.65
20.58
21.0
21.06
19.94
17.22
13.21
8.56
4.04
0.07
-3.36
-6.68
-10.4
-14.85
-20.18
-26.3
-33.08
-40.5
-48.5
-56.65
-64.19
-69.92
-72.41
-70.61
-63.96
-52.69
-37.87
-21.2
-4.45
10.89
23.89
34.32
42.17
47.69
51.03
52.37
51.86
49.83
46.78
43.22
39.5
35.71
31.81
27.86
24.18
21.17
19.18
18.35
18.37
18.7
18.66
17.71
15.54
12.06
7.39
1.68
-4.62
-10.98
-16.81
-21.88
-26.53
-31.69
-38.51
-47.54
-58.33
-69.0
-76.87
-79.44
-75.4
-65.1
-50.4
-33.75
-17.22
-2.04
11.62
24.17
36.02
47.14
56.85
64.03
67.7
67.44
63.74
57.93
51.79
46.86
43.9
42.45
41.38
39.32
35.61
30.58
25.44
21.56
19.81
20.05
21.14
21.53
19.77
15.33
8.59
0.95
-6.11
-11.47
-14.89
-17.12
-19.49
-23.27
-29.26
-37.39
-46.83
-56.55
-65.58
-73.1
-78.5
-81.06
-80.12
-75.27
-66.51
-54.41
-39.87
-24.03
-7.79
8.08
22.9
35.88
46.21
53.19
56.65
57.17
55.79
53.81
52.14
51.09
50.31
49.11
46.81
43.28
38.96
34.8
31.79
30.52
30.98
32.52
34.08
34.49
32.92
29.24
24.06
18.51
13.8
10.76
9.48
9.2
8.77
7.02
3.57
-1.18
-6.25
-10.69
-14.06
-16.56
-18.88
-21.47
-24.22
-25.94
-24.77
-18.66
-6.38
11.97
34.67
58.75
80.97
98.73
110.94
118.22
122.43
125.67
129.33
133.69
137.91
140.75
141.13
138.78
134.27
128.83
123.93
120.53
118.93
118.56
118.29
116.85
113.52
108.3
101.92
95.46
89.47
83.81
77.58
69.55
58.75
44.89
28.37
10.14
-8.62
-26.91
-44.12
-60.16
-75.39
-90.51
-106.2
-122.58
-138.98
-153.76
-164.72
-169.94
-168.36
-160.24
-146.96
-130.62
-113.27
-96.52
-81.3
-67.95
-56.45
-46.76
-38.95
-33.29
-30.17
-29.8
-31.98
-36.02
-40.78
-44.93
-47.52
-48.24
-47.42
-45.91
-44.49
-43.76
-43.96
-45.0
-46.66
-48.68
-51.09
-54.09
-58.1
-63.51
-70.48
-78.77
-87.7
-96.36
-103.93
-110.14
-115.27
-119.95
-124.72
-129.72
-134.5
-138.06
-138.96
-135.31
-125.09
-106.75
-80.03
-46.61
-10.17
24.63
53.62
74.37
86.81
92.77
94.94
95.96
98.0
102.69
111.08
123.52
138.99
155.11
168.44
175.52
173.97
163.32
145.1
122.14
97.74
74.91
55.91
42.03
33.58
29.9
29.65
31.12
32.61
32.82
31.01
27.11
21.5
14.69
7.08
-1.17
-10.09
-19.82
-30.37
-41.57
-53.05
-64.27
-74.66
-83.71
-91.01
-96.18
-98.81
-98.48
-94.69
-87.18
-75.93
-61.37
-44.29
-25.81
-7.01
11.07
27.53
41.53
52.19
58.78
60.97
59.12
54.18
47.59
40.71
34.43
28.99
24.1
19.3
14.37
9.44
4.81
0.7
-2.96
-6.58
-10.73
-15.89
-22.27
-29.72
-37.75
-45.77
-53.22
-59.81
-65.67
-71.38
-77.9
-86.21
-96.91
-109.68
-123.09
-134.72
-141.83
-142.26
-135.16
-121.35
-102.9
-82.44
-62.21
-43.51
-26.71
-11.62
1.95
13.89
23.73
30.88
34.98
36.19
35.1
32.69
29.88
27.31
25.23
23.54
22.01
20.55
19.28
18.53
18.58
19.44
20.75
21.85
22.08
20.93
18.24
14.17
9.08
3.41
-2.41
-8.1
-13.51
-18.73
-24.03
-29.75
-36.21
-43.48
-51.32
-59.34
-67.33
-75.35
-83.75
-92.77
-102.05
-110.4
-115.82
-116.17
-110.0
-97.1
-78.68
-57.01
-34.7
-13.92
3.89
18.24
29.33
37.65
43.71
47.86
50.16
50.54
48.97
45.65
41.04
35.96
31.24
27.62
25.48
24.81
25.24
26.24
27.24
27.74
27.43
26.21
24.12
21.26
17.73
13.48
8.44
2.5
-4.33
-11.81
-19.5
-26.92
-33.82
-40.4
-47.31
-55.44
-65.43
-77.21
-89.57
-100.33
-106.8
-106.65
-98.81
-83.73
-63.38
-40.46
-17.58
3.37
21.57
37.01
50.03
60.78
69.17
74.85
77.49
77.05
73.9
68.86
63.01
57.45
53.0
50.01
48.31
47.33
46.36
44.85
42.6
39.86
37.11
34.73
32.77
30.78
27.99
23.61
17.22
9.02
-0.22
-9.46
-17.82
-24.98
-31.28
-37.58
-44.92
-54.2
-65.71
-78.83
-92.04
-103.01
-109.21
-108.61
-100.35
-85.06
-64.64
-41.63
-18.33
3.67
23.65
41.37
56.67
69.2
78.4
83.81
85.27
83.23
78.59
72.53
66.15
60.27
55.23
50.98
47.28
43.89
40.78
38.11
36.06
34.71
33.83
32.98
31.56
29.02
25.03
19.68
13.49
7.29
1.96
-1.99
-4.61
-6.61
-9.09
-13.19
-19.61
-28.54
-39.57
-51.8
-64.09
-74.93
-82.72
-85.85
-83.18
-74.34
-59.88
-41.16
-19.94
1.95
22.99
41.94
57.86
70.03
78.01
81.82
82.03
79.62
75.68
71.13
66.5
61.88
57.14
52.19
47.14
42.37
38.43
35.71
34.32
33.97
34.1
33.95
32.9
30.54
26.72
21.63
15.64
9.13
2.49
-4.07
-10.53
-17.0
-23.67
-30.72
-38.19
-46.06
-54.39
-63.39
-73.32
-84.18
-95.3
-105.07
-111.24
-111.49
-104.31
-89.68
-69.1
-45.14
-20.54
2.48
22.62
39.33
52.58
62.5
69.25
73.09
74.34
73.41
70.63
66.34
60.79
54.44
47.88
41.83
36.9
33.4
31.21
29.84
28.71
27.34
25.51
23.29
20.83
18.18
15.13
11.3
6.24
-0.22
-7.94
-16.52
-25.39
-34.13
-42.52
-50.71
-59.07
-68.19
-78.72
-91.13
-105.47
-120.94
-135.85
-147.81
-154.43
-154.06
-146.42
-132.68
-114.98
-95.68
-76.6
-58.78
-42.51
-27.78
-14.68
-3.47
5.54
12.16
16.54
19.06
20.21
20.55
20.58
20.76
21.55
23.34
26.35
30.56
35.76
41.58
47.74
54.02
60.24
66.15
71.37
75.39
77.72
78.02
76.24
72.72
68.09
63.23
58.98
55.93
54.26
53.69
53.49
52.8
50.92
47.77
44.02
41.04
40.61
44.44
53.64
68.44
88.06
110.89
134.8
157.48
176.91
191.49
200.26
202.94
199.79
191.54
179.1
163.4
145.29
125.44
104.27
82.08
58.99
35.04
10.35
-14.84
-40.09
-64.88
-88.7
-111.23
-132.33
-151.92
-169.94
-186.13
-200.16
-211.61
-220.27
-226.3
-230.39
-233.72
-237.65
-243.43
-251.75
-262.51
-274.62
-286.07
-294.22
-296.24
-289.91
-274.16
-249.6
-218.43
-183.86
-149.13
-116.66
-87.68
-62.4
-40.61
-22.15
-7.13
4.3
12.32
17.72
21.74
25.74
30.72
36.97
44.34
52.37
60.83
69.92
80.11
91.98
105.82
121.51
138.42
155.77
172.69
188.39
202.14
213.26
221.25
225.96
227.83
227.71
226.69
225.67
225.0
224.47
223.35
220.72
215.71
207.76
196.73
182.87
166.67
148.64
129.08
108.13
85.96
63.17
40.84
20.47
3.32
-10.09
-20.2
-28.35
-36.11
-44.65
-54.26
-64.54
-74.66
-84.0
-92.35
-99.82
-106.54
-112.26
-116.2
-117.12
-113.82
-105.61
-92.72
-76.47
-59.07
-43.29
-31.91
-27.24
-30.52
-41.55
-58.42
-77.72
-95.32
-107.28
-110.97
-105.64
-92.29
-73.05
-50.26
-25.95
-1.58
21.52
42.03
58.55
70.02
76.15
77.62
75.93
72.72
69.21
65.84
62.44
58.57
53.95
48.69
43.13
37.85
33.29
29.88
27.79
27.09
27.64
29.14
31.21
33.37
35.36
37.01
38.24
38.77
37.94
34.69
27.66
15.83
-1.08
-21.91
-44.2
-64.57
-79.58
-86.85
-85.67
-77.2
-63.91
-48.84
-34.5
-22.41
-12.93
-5.56
0.41
5.6
10.14
13.93
16.8
18.93
20.92
23.66
28.0
34.29
42.32
51.27
60.15
68.04
74.45
79.2
82.24
83.42
82.34
78.52
71.6
61.55
48.87
34.34
18.88
3.23
-12.23
-27.64
-43.39
-59.82
-76.77
-93.23
-107.47
-117.21
-120.49
-116.15
-104.48
-87.05
-66.27
-44.75
-24.65
-7.45
6.24
16.44
23.68
28.63
32.0
34.36
35.87
36.45
35.76
33.64
30.3
26.48
23.27
21.66
22.17
24.47
27.52
29.87
30.32
28.32
24.19
18.9
13.53
8.85
4.89
1.02
-3.79
-10.44
-19.36
-30.29
-42.3
-54.05
-63.91
-70.37
-72.19
-68.72
-60.08
-47.15
-31.34
-14.18
2.93
19.06
33.54
45.87
55.48
61.7
64.16
63.04
59.24
54.07
48.87
44.42
40.76
37.3
33.33
28.46
23.09
18.13
14.6
13.06
13.23
13.99
13.73
11.14
5.61
-2.35
-11.39
-19.9
-26.65
-31.33
-34.64
-37.99
-43.0
-50.94
-62.19
-75.96
-90.33
-102.63
-110.07
-110.59
-103.55
-89.9
-71.93
-52.27
-33.05
-15.33
0.9
16.02
30.14
42.67
52.48
58.42
60.14
58.32
54.5
50.47
47.46
45.77
44.75
43.32
40.59
36.45
31.67
27.47
25.05
24.78
26.06
27.45
27.31
24.55
18.98
11.48
3.45
-3.74
-9.39
-13.58
-17.13
-21.31
-27.41
-36.48
-48.74
-63.29
-78.03
-90.04
-96.33
-94.89
-85.51
-69.9
-51.12
-32.29
-15.5
-1.26
11.17
22.91
34.51
45.44
54.22
59.21
59.38
54.84
46.75
37.0
27.59
20.3
16.33
15.9
17.61
17.83
11.27
-7.49
-41.45
-88.99
-143.28
-194.11
-231.32
-248.49
-244.78
-224.59
-195.18
-163.92
-136.36
-115.38
-101.37
-92.7
-86.05
-76.8
-60.09
-32.35
6.76
53.39
100.06
138.0
160.03
162.99
148.67
122.63
92.02
63.24
40.42
25.13
17.0
14.63
16.22
19.84
23.5
25.49
24.78
21.31
15.95
10.14
5.24
2.05
0.6
0.27
0.23
-0.09
-0.82
-1.57
-1.74
-0.85
1.11
3.67
6.02
7.41
7.43
6.1
3.83
1.1
-1.68
-4.35
-6.98
-9.88
-13.46
-18.21
-24.48
-32.32
-41.27
-50.16
-57.31
-60.89
-59.42
-52.29
-39.94
-23.72
-5.42
13.16
30.67
46.29
59.6
70.39
78.53
83.93
86.69
87.07
85.54
82.53
78.48
73.73
68.55
63.25
58.15
53.59
49.95
47.53
46.56
47.07
48.78
51.0
52.7
52.76
50.43
45.64
39.09
31.92
25.18
19.39
14.3
9.07
2.66
-5.69
-16.17
-28.25
-40.69
-51.77
-59.64
-62.73
-60.18
-52.14
-39.67
-24.44
-8.2
7.53
21.71
33.71
43.2
50.04
54.25
56.05
55.78
53.96
51.07
47.55
43.77
39.99
36.44
33.25
30.44
28.02
26.0
24.51
23.7
23.65
24.22
24.9
24.96
23.61
20.37
15.27
8.87
2.07
-4.32
-9.83
-14.56
-19.02
-23.95
-29.93
-37.25
-45.83
-55.27
-64.92
-73.83
-80.73
-84.18
-82.86
-76.05
-63.99
-47.92
-29.72
-11.46
5.29
19.67
31.48
40.84
47.84
52.47
54.63
54.37
52.02
48.24
43.78
39.36
35.4
32.03
29.2
26.84
24.97
23.78
23.36
23.67
24.4
24.99
24.82
23.42
20.61
16.55
11.6
6.28
1.03
-3.83
-8.23
-12.36
-16.61
-21.38
-26.99
-33.53
-40.88
-48.72
-56.46
-63.26
-68.01
-69.48
-66.53
-58.55
-45.69
-29.01
-10.21
8.74
26.06
40.57
51.68
59.48
64.39
66.98
67.73
66.95
64.83
61.53
57.3
52.58
47.9
43.76
40.55
38.44
37.34
37.03
37.12
37.13
36.59
35.13
32.65
29.25
25.2
20.69
15.83
10.6
4.98
-0.97
-7.12
-13.27
-19.33
-25.39
-31.79
-38.94
-47.16
-56.51
-66.53
-76.27
-84.25
-88.79
-88.38
-82.23
-70.56
-54.64
-36.45
-18.1
-1.38
12.7
23.86
32.35
38.62
43.03
45.79
46.91
46.42
44.46
41.4
37.76
34.14
31.05
28.82
27.51
26.99
26.98
27.18
27.35
27.3
26.94
26.22
25.1
23.56
21.57
18.99
15.57
10.95
4.75
-3.28
-13.2
-24.81
-37.76
-51.71
-66.37
-81.61
-97.33
-113.25
-128.68
-142.34
-152.51
-157.27
-155.03
-145.14
-128.18
-105.89
-80.66
-54.77
-29.82
-6.56
14.83
34.29
