20.46
30.57
38.93
45.62
50.61
53.85
55.48
55.75
54.94
53.21
50.61
47.17
42.99
38.42
34.07
30.54
28.22
27.06
26.41
25.36
23.03
18.94
13.27
6.76
0.32
-5.31
-10.0
-14.26
-18.89
-24.71
-32.17
-41.24
-51.43
-61.89
-71.45
-78.8
-82.57
-81.71
-75.73
-65.0
-50.63
-34.25
-17.5
-1.65
12.48
24.5
34.22
41.54
46.49
49.33
50.48
50.47
49.71
48.27
45.98
42.63
38.21
33.18
28.33
24.5
22.17
21.21
20.91
20.26
18.37
14.83
9.77
3.78
-2.38
-8.13
-13.18
-17.72
-22.3
-27.74
-34.8
-43.83
-54.41
-65.09
-73.75
-78.11
-76.53
-68.63
-55.44
-39.03
-21.78
-5.68
8.15
19.48
28.55
35.84
41.64
46.02
48.83
49.82
48.77
45.77
41.3
36.12
31.22
27.3
24.59
22.76
21.1
18.87
15.69
11.72
7.43
3.38
-0.11
-3.06
-5.9
-9.22
-13.69
-19.69
-27.35
-36.44
-46.49
-56.85
-66.71
-75.1
-80.94
-83.15
-80.86
-73.7
-62.01
-46.87
-29.93
-12.94
2.59
15.7
26.06
33.81
39.44
43.52
46.59
48.81
50.14
50.23
48.7
45.33
40.35
34.47
28.79
24.42
21.92
21.16
21.21
20.75
18.6
14.22
7.92
0.65
-6.44
-12.54
-17.53
-21.88
-26.51
-32.39
-40.23
-50.17
-61.6
-73.01
-82.22
-86.99
-85.63
-77.78
-64.54
-48.15
-31.12
-15.36
-1.67
10.21
20.93
30.99
40.32
48.27
54.05
57.17
57.67
56.1
53.28
50.0
46.74
43.65
40.67
37.68
34.71
31.85
29.22
26.84
24.47
21.75
18.33
14.03
8.92
3.25
-2.7
-8.75
-14.89
-21.25
-28.17
-36.02
-44.97
-54.74
-64.34
-72.09
-76.01
-74.46
-66.81
-53.85
-37.49
-20.11
-3.76
10.5
22.55
32.85
41.9
49.75
56.15
60.61
62.92
63.18
61.86
59.46
56.36
52.71
48.52
43.96
39.37
35.29
32.19
30.2
28.93
27.59
25.34
21.65
16.53
10.5
4.3
-1.43
-6.43
-10.81
-14.95
-19.37
-24.53
-30.76
-38.28
-47.03
-56.54
-65.8
-73.3
-77.41
-76.86
-71.19
-60.81
-46.92
-31.03
-14.55
1.38
16.03
28.92
39.69
48.2
54.54
59.04
62.17
64.29
65.54
65.82
64.94
62.88
59.92
56.59
53.55
51.25
49.72
48.6
47.3
45.22
41.98
37.53
31.96
25.51
18.4
10.84
3.07
-4.67
-12.17
-19.36
-26.41
-33.7
-41.57
-50.12
-58.91
-66.92
-72.67
-74.72
-72.11
-64.76
-53.59
-40.06
-25.76
-11.84
1.08
12.9
23.67
33.26
41.36
47.44
51.16
52.47
51.77
49.66
46.89
44.1
41.6
39.42
37.26
34.85
32.12
29.33
26.86
25.11
24.12
23.39
22.09
19.36
14.76
8.53
1.49
-5.36
-11.33
-16.29
-20.72
-25.35
-31.02
-38.21
-46.97
-56.73
-66.4
-74.47
-79.32
-79.69
-75.07
-66.0
-53.83
-40.3
-26.85
-14.24
-2.54
8.54
19.18
29.2
37.98
44.86
49.4
51.61
51.93
50.96
49.28
47.29
45.17
42.93
40.58
38.14
35.73
33.5
31.57
29.96
28.58
27.21
25.52
23.2
20.08
16.22
11.91
7.49
3.23
-0.83
-4.87
-9.18
-14.01
-19.46
-25.35
-31.38
-37.25
-42.76
-48.0
-53.28
-59.03
-65.62
-73.03
-80.65
-87.18
-91.0
-90.58
-85.2
-75.19
-61.84
-47.03
-32.47
-19.23
-7.57
2.79
12.34
21.26
29.39
36.35
41.67
45.08
46.5
46.12
44.3
41.56
38.44
35.46
33.08
31.5
30.73
30.46
30.21
29.46
27.94
25.61
22.79
19.94
17.39
15.15
12.82
9.8
5.58
0.13
-6.1
-12.33
-17.75
-22.0
-25.31
-28.42
-32.32
-37.85
-45.34
-54.52
-64.52
-74.06
-81.74
-86.43
-87.46
-84.8
-78.99
-70.74
-60.74
-49.46
-37.17
-24.22
-11.24
0.84
11.09
18.77
23.8
26.69
28.24
29.14
29.76
30.0
29.55
28.14
25.63
22.32
18.71
15.44
13.09
11.9
11.74
12.11
12.29
11.6
9.7
6.69
3.07
-0.49
-3.55
-5.97
-8.09
-10.45
-13.56
-17.72
-22.86
-28.71
-34.9
-41.31
-47.9
-54.66
-61.33
-67.23
-71.34
-72.5
-69.88
-63.25
-53.17
-40.77
-27.42
-14.39
-2.58
7.53
15.89
22.69
28.23
32.67
36.01
38.03
38.42
36.98
33.83
29.47
24.75
20.57
17.63
16.12
15.77
15.94
15.85
14.91
12.75
9.41
5.19
0.6
-3.91
-8.02
-11.72
-15.37
-19.53
-24.86
-31.78
-40.28
-49.76
-59.17
-67.1
-72.26
-73.79
-71.42
-65.52
-56.85
-46.12
-33.98
-20.76
-6.85
7.24
20.69
32.54
41.92
48.34
51.88
53.07
52.72
51.56
50.03
48.23
46.02
43.17
39.6
35.54
31.5
28.12
25.83
24.67
24.21
23.6
21.98
18.74
13.87
7.87
1.58
-4.21
-9.11
-13.27
-17.39
-22.44
-29.35
-38.61
-49.93
-62.13
-73.27
-81.18
-84.11
-81.36
-73.39
-61.73
-48.23
-34.39
-20.98
-8.06
4.56
16.86
28.31
38.13
45.56
50.3
52.64
53.28
52.99
52.2
50.92
48.88
45.93
42.2
38.22
34.66
32.07
30.57
29.78
28.98
27.39
24.54
20.35
15.12
9.38
3.58
-1.99
-7.31
-12.55
-18.02
-23.98
-30.73
-38.58
-47.69
-57.88
-68.32
-77.48
-83.44
-84.54
-79.91
-69.9
-55.92
-39.82
-23.28
-7.47
7.15
20.44
32.27
42.46
50.79
57.15
61.59
64.26
65.29
64.74
62.72
59.43
55.24
50.69
46.29
42.51
39.55
37.38
35.71
34.15
32.19
29.45
25.71
21.08
15.92
10.59
5.34
0.08
-5.49
-11.68
-18.54
-25.92
-33.56
-41.32
-49.41
-58.04
-67.1
-75.7
-82.17
-84.48
-81.1
-71.65
-57.14
-39.68
-21.61
-4.86
9.48
21.2
30.65
38.3
44.52
49.49
53.17
55.45
56.14
55.09
52.34
48.22
43.44
38.83
35.21
32.96
31.94
31.51
30.77
28.94
25.76
21.45
16.64
11.99
7.85
4.17
0.56
-3.47
-8.4
-14.43
-21.66
-29.95
-38.93
-47.89
-55.68
-60.93
-62.38
-59.43
-52.2
-41.58
-28.75
-14.85
-0.77
12.89
25.47
36.25
44.47
49.64
51.81
51.67
50.19
48.22
46.18
43.96
41.17
37.44
32.79
27.67
22.83
19.0
16.48
15.09
14.14
12.76
10.19
6.1
0.64
-5.56
-11.73
-17.3
-22.09
-26.47
-31.24
-37.32
-45.32
-55.13
-65.73
-75.24
-81.52
-82.77
-78.19
-68.22
-54.32
-38.5
-22.63
-8.01
4.84
15.98
25.72
34.32
41.82
47.98
52.35
54.57
54.46
52.28
48.68
44.43
40.27
36.68
33.74
31.28
29.0
26.65
24.09
21.3
18.28
15.0
11.34
7.17
2.35
-3.17
-9.28
-15.79
-22.46
-29.16
-36.07
-43.59
-52.05
-61.38
-70.71
-78.43
-82.63
-81.72
-75.09
-63.37
-48.21
-31.67
-15.58
-1.12
11.26
21.62
30.19
37.21
42.84
47.13
50.1
51.74
51.98
50.81
48.28
44.59
40.16
35.55
31.39
28.17
26.01
24.73
23.75
22.37
19.99
16.27
11.35
5.73
-0.02
-5.41
-10.31
-14.97
-19.94
-25.83
-33.22
-42.33
-52.91
-64.03
-74.15
-81.34
-83.8
-80.5
-71.53
-58.24
-42.72
-27.03
-12.48
0.49
12.17
22.97
32.89
41.41
47.73
51.2
51.83
50.25
47.47
44.45
41.81
39.63
37.68
35.58
33.12
30.34
27.48
24.83
22.52
20.45
18.29
15.59
12.0
7.45
2.11
-3.67
-9.55
-15.41
-21.51
-28.33
-36.43
-46.14
-57.27
-68.89
-79.41
-86.86
-89.28
-85.54
-75.57
-60.51
-42.37
-23.45
-5.73
9.53
21.9
31.63
39.27
45.4
50.39
54.31
56.98
58.07
57.29
54.58
50.33
45.34
40.63
37.15
35.44
35.39
36.27
36.96
36.3
33.59
28.79
22.52
15.73
9.27
3.55
-1.62
-6.91
-13.19
-21.2
-31.22
-42.88
-55.1
-66.21
-74.21
-77.35
-74.57
-65.96
-52.81
-37.07
-20.83
-5.6
7.86
19.54
29.68
38.4
45.48
50.54
53.23
53.63
52.27
49.87
47.07
44.22
41.28
38.03
34.32
30.18
25.89
21.83
18.29
15.21
12.32
9.1
5.13
0.1
-5.94
-12.7
-19.65
-26.27
-32.38
-38.24
-44.61
-52.28
-61.64
-72.02
-81.69
-88.2
-89.2
-83.41
-71.15
-54.26
-35.4
-17.11
-1.01
12.46
23.72
33.55
42.47
50.39
56.76
60.91
62.48
61.64
59.08
55.62
52.03
48.6
45.35
42.13
38.93
35.94
33.41
31.38
29.52
27.21
23.78
18.93
12.78
5.9
-1.09
-7.68
-13.8
-19.8
-26.18
-33.58
-42.43
-52.88
-64.53
-76.28
-86.38
-92.76
-93.65
-88.12
-76.51
-60.37
-41.84
-23.0
-5.36
10.36
24.06
35.77
45.55
53.3
58.92
62.54
64.43
64.94
64.3
62.55
59.51
55.2
49.84
44.1
38.87
34.9
32.44
31.16
30.22
28.61
25.67
21.24
15.71
9.74
3.89
-1.59
-6.76
-11.97
-17.66
-24.17
-31.82
-40.8
-51.04
-62.16
-73.19
-82.53
-88.28
-88.7
-82.9
-71.16
-54.97
-36.49
-17.9
-0.75
14.34
27.45
38.88
48.76
56.82
62.61
65.84
66.6
65.43
63.12
60.38
57.57
54.69
51.53
47.96
44.13
40.4
37.25
34.98
33.47
32.2
30.37
27.28
22.56
16.34
9.27
2.14
-4.37
-10.0
-14.97
-19.84
-25.26
-31.67
-39.3
-48.07
-57.85
-68.25
-78.57
-87.66
-93.94
-95.74
-91.81
-81.88
-66.8
-48.49
-29.18
-10.87
5.22
18.68
29.72
38.71
45.91
51.41
55.03
56.77
56.7
55.14
52.48
49.15
45.51
41.77
38.16
34.79
31.81
29.34
27.43
25.95
24.6
22.89
20.3
16.52
11.47
5.53
-0.8
-6.95
-12.66
-17.99
-23.33
-29.22
-36.18
-44.54
-54.12
-64.19
-73.37
-79.84
-81.88
-78.33
-69.16
-55.46
-39.18
-22.37
-6.57
7.46
19.62
30.06
38.81
45.58
50.02
51.89
51.38
49.07
45.73
42.03
38.34
34.72
31.1
27.51
24.09
21.09
18.64
16.64
14.72
12.39
9.28
5.23
0.4
-4.89
-10.29
-15.55
-20.67
-25.88
-31.58
-38.24
-46.24
-55.62
-65.85
-75.69
-83.37
-87.01
-85.25
-77.7
-65.16
-49.34
-32.26
-15.66
-0.6
12.49
23.64
32.91
40.3
45.78
49.36
51.32
52.0
51.7
50.56
48.55
45.57
41.7
37.32
33.0
29.42
26.98
25.66
24.99
24.14
22.27
18.85
13.82
7.64
1.07
-5.21
-10.86
-15.97
-20.96
-26.42
-32.83
-40.5
-49.53
-59.62
-70.04
-79.47
-86.17
-88.43
-85.23
-76.51
-63.38
-47.62
-31.07
-15.05
-0.22
13.29
25.41
35.85
44.2
50.06
53.45
54.81
54.8
54.01
52.67
50.62
47.54
43.38
38.46
33.55
29.48
26.8
25.48
24.96
24.38
22.89
20.06
15.87
10.7
5.19
-0.13
-4.96
-9.29
-13.45
-17.98
-23.29
-29.72
-37.41
-46.25
-56.05
-66.34
-76.24
-84.4
-89.17
-88.93
-82.78
-70.96
-54.83
-36.63
-18.62
-2.47
11.09
22.16
31.37
39.27
46.08
51.66
55.62
57.66
57.71
56.12
53.46
50.45
47.61
45.18
43.19
41.37
39.53
37.54
35.43
33.27
31.09
28.82
26.27
23.24
19.55
15.06
9.72
3.65
-2.92
-9.62
-16.04
-21.87
-27.05
-31.9
-36.97
-42.95
-50.43
-59.58
-70.04
-80.72
-89.91
-95.62
-96.13
-90.58
-79.35
-63.97
-46.61
-29.41
-13.73
-0.06
11.85
22.38
31.72
39.58
45.46
48.94
49.96
49.07
47.01
44.57
42.25
40.11
37.86
35.21
32.09
28.75
25.78
23.69
22.68
22.42
22.04
20.52
17.17
11.89
5.23
-1.75
-8.06
-13.17
-17.19
-20.9
-25.37
-31.58
-40.03
-50.51
-61.93
-72.58
-80.42
-83.61
-81.1
-72.92
-60.19
-44.76
-28.58
-13.16
0.63
12.56
22.72
31.13
37.74
42.44
45.24
46.39
46.28
45.21
43.33
40.68
37.19
32.97
28.37
23.89
20.05
17.25
15.5
14.52
13.8
12.63
10.36
6.6
1.28
-5.16
-11.92
-18.13
-23.21
-27.14
-30.63
-34.89
-41.18
-50.29
-61.82
-74.12
-84.53
-90.18
-89.02
-80.64
-66.35
-48.78
-30.83
-14.54
-0.72
11.08
21.79
32.07
41.79
50.13
56.02
58.78
58.58
56.32
53.25
50.46
48.44
46.98
45.45
43.23
40.07
36.23
32.4
29.31
27.42
26.58
26.06
24.77
21.67
16.28
8.87
0.42
-7.7
-14.43
-19.49
-23.41
-27.37
-32.68
-40.15
-49.94
-61.45
-73.44
-84.31
-92.34
-95.99
-94.24
-86.85
-74.47
-58.46
-40.55
-22.35
-5.08
10.55
24.16
35.6
44.68
51.35
55.7
58.03
58.9
58.88
58.4
57.6
56.32
54.21
51.09
47.06
42.62
38.52
35.42
33.63
32.86
32.31
30.92
27.9
23.0
16.68
9.91
3.64
-1.57
-5.87
-9.93
-14.69
-20.78
-28.41
-37.34
-47.08
-57.22
-67.3
-76.65
-84.23
-88.66
-88.49
-82.77
-71.51
-55.73
-37.32
-18.41
-0.86
14.13
26.07
35.21
42.17
47.65
52.23
56.08
59.01
60.56
60.33
58.16
54.44
49.96
45.65
42.34
40.34
39.46
39.09
38.56
37.26
35.07
32.13
28.82
25.5
22.18
18.58
14.26
8.89
2.39
-4.8
-12.06
-18.74
-24.53
-29.71
-35.06
-41.53
-49.96
-60.46
-72.09
-82.91
-90.43
-92.37
-87.6
-76.55
-61.07
-43.77
-26.97
-11.95
1.19
13.03
24.23
34.74
43.87
50.56
54.09
54.51
52.68
49.81
46.96
44.62
42.59
40.3
37.28
33.43
29.22
25.39
22.51
20.76
19.73
18.58
16.46
12.86
7.81
1.83
-4.27
-9.86
-14.68
-19.01
-23.61
-29.38
-36.98
-46.41
-56.78
-66.3
-72.79
-74.23
-69.62
-59.28
-44.84
-28.65
-13.04
0.48
11.42
20.11
27.27
33.42
38.68
42.72
45.12
45.53
44.03
41.0
37.1
33.05
29.39
26.42
24.12
22.26
20.43
18.36
15.82
12.8
9.41
5.79
2.04
-1.86
-6.0
-10.54
-15.49
-20.86
-26.58
-32.72
-39.51
-47.25
-55.98
-65.13
-73.45
-79.08
-80.15
-75.57
-65.32
-50.74
-33.94
-17.15
-2.03
10.57
20.65
28.66
35.14
40.49
44.79
47.9
49.61
49.75
48.25
45.3
41.21
36.47
31.73
27.55
24.39
22.34
21.11
19.98
18.16
14.98
10.27
4.44
-1.74
-7.48
-12.33
-16.42
-20.45
-25.34
-31.92
-40.58
-51.02
-62.24
-72.67
-80.44
-83.89
-82.06
-74.93
-63.42
-49.12
-33.61
-18.2
-3.6
9.87
21.96
32.3
40.39
45.88
48.78
49.65
49.31
48.59
47.88
47.09
45.73
43.29
39.64
35.16
30.71
27.18
25.14
24.49
24.46
23.84
21.5
16.89
10.26
2.67
-4.59
-10.42
-14.48
-17.33
-20.19
-24.53
-31.44
-41.31
-53.51
-66.49
-78.05
-85.87
-88.22
-84.4
-75.06
-61.81
-46.7
-31.41
-16.8
-3.0
10.23
22.86
34.38
43.89
50.6
54.27
55.38
54.98
54.1
53.4
52.9
52.1
50.37
47.38
43.38
39.11
35.56
33.43
32.87
33.3
33.67
32.86
30.15
25.47
19.31
12.59
6.1
0.33
-4.75
-9.52
-14.52
-20.16
-26.69
-34.19
-42.61
-51.98
-62.1
-72.49
-82.08
-89.31
-92.41
-90.04
-81.76
-68.26
-51.24
-32.8
-14.86
1.34
15.22
26.81
36.3
43.9
49.78
54.03
56.83
58.33
58.63
57.66
55.38
51.83
47.39
42.71
38.59
35.66
34.11
33.62
33.42
32.7
30.81
27.58
23.26
18.31
13.25
8.27
3.34
-1.82
-7.4
-13.48
-19.99
-26.77
-33.94
-41.74
-50.47
-59.94
-69.29
-76.81
-80.51
-78.82
-71.2
-58.5
-42.6
-25.73
-9.69
4.49
16.69
27.2
36.33
44.13
50.29
54.46
56.42
56.29
54.49
51.66
48.42
45.17
42.13
39.25
36.49
33.83
31.34
29.12
27.26
25.62
23.85
21.54
18.3
14.02
8.9
3.34
-2.2
-7.36
-12.08
-16.6
-21.3
-26.71
-33.27
-41.18
-50.19
-59.5
-67.72
-73.14
-74.23
-70.05
-60.76
-47.45
-31.92
-16.06
-1.34
11.45
22.17
31.01
38.27
44.02
48.25
50.89
51.94
51.58
50.05
47.61
44.46
40.8
36.84
32.91
29.39
26.54
24.42
22.84
21.42
19.7
17.41
14.38
10.7
6.5
1.88
-3.12
-8.44
-14.0
-19.64
-25.14
-30.52
-36.06
-42.32
-49.84
-58.73
-68.26
-76.8
-82.25
-82.71
-77.32
-66.51
-51.83
-35.41
-19.15
-4.35
8.47
19.34
28.54
36.35
42.93
48.35
52.56
55.41
56.73
56.43
54.63
51.71
48.26
44.93
42.28
40.5
39.44
38.61
37.39
35.32
32.29
28.63
24.94
21.82
19.51
17.72
15.76
12.8
8.3
2.3
-4.58
-11.46
-17.52
-22.45
-26.56
-30.68
-35.82
-42.79
-51.79
-62.31
-73.17
-82.73
-89.35
-91.74
-89.31
-82.26
-71.47
-58.17
-43.57
-28.63
-13.92
0.12
13.06
24.33
33.3
39.63
43.47
45.49
46.61
47.55
48.52
49.13
48.76
46.92
43.67
39.74
36.22
34.16
33.99
35.34
37.12
38.0
37.0
33.85
29.15
24.02
19.58
16.38
14.16
12.07
9.06
4.44
-1.89
-9.35
-17.0
-23.96
-29.71
-34.28
-38.25
-42.56
-48.22
-55.98
-65.83
-76.74
-86.71
-93.26
-94.22
-88.56
-76.88
-61.15
-44.05
-27.85
-13.76
-1.83
8.66
18.4
27.54
35.59
41.77
45.49
46.78
46.25
44.83
43.33
42.08
40.88
39.2
36.59
32.9
28.49
24.09
20.54
18.43
17.76
17.97
18.03
16.92
13.95
9.02
2.68
-4.09
-10.28
-15.27
-19.02
-22.13
-25.58
-30.44
-37.4
-46.59
-57.27
-67.97
-76.74
-81.68
-81.48
-75.82
-65.58
-52.35
-38.05
-24.22
-11.69
-0.62
9.19
17.9
25.41
31.32
35.24
36.97
36.74
35.1
32.74
30.17
27.64
25.13
22.51
19.69
16.73
13.84
11.28
9.14
7.35
5.61
3.54
0.77
-2.89
-7.42
-12.53
-17.77
-22.75
-27.31
-31.71
-36.6
-42.7
-50.38
-59.14
-67.51
-73.29
-74.34
-69.36
-58.6
-43.72
-27.26
-11.69
1.41
11.6
19.47
25.95
31.75
36.97
41.18
43.72
44.08
42.17
38.43
33.65
28.73
24.42
21.07
18.57
16.56
14.51
12.02
8.9
5.16
0.96
-3.52
-8.14
-12.82
-17.54
-22.36
-27.44
-33.15
-40.01
-48.46
-58.55
-69.58
-80.01
-87.7
-90.64
-87.59
-78.59
-65.08
-49.12
-32.84
-17.61
-3.96
8.23
19.23
29.07
37.43
43.86
48.17
50.5
51.32
51.11
50.06
48.09
45.05
40.99
36.41
32.08
28.72
26.64
25.52
24.54
22.76
19.61
15.04
9.54
3.73
-1.95
-7.33
-12.62
-18.25
-24.72
-32.42
-41.57
-51.98
-62.89
-72.87
-79.97
-82.28
-78.58
-68.88
-54.41
-37.32
-19.8
-3.44
11.08
23.84
35.23
45.48
54.41
61.6
66.66
69.42
70.11
69.14
67.07
64.37
61.45
58.47
55.6
52.96
50.62
48.69
47.13
45.8
44.42
42.65
40.11
36.56
31.95
26.47
20.49
14.37
8.34
2.42
-3.51
-9.66
-16.22
-23.35
-31.16
-39.77
-49.2
-59.14
-68.86
-77.03
-81.97
-82.16
-76.76
-65.95
-50.88
-33.38
-15.34
1.69
16.8
29.65
40.34
49.1
56.19
61.79
65.89
68.42
69.27
68.36
65.82
61.97
57.33
52.5
48.08
44.5
41.96
40.29
39.03
37.52
35.21
31.9
27.72
23.12
18.59
14.42
10.52
6.56
2.1
-3.16
-9.32
-16.39
-24.29
-32.9
-41.91
-50.71
-58.32
-63.64
-65.55
-63.37
-56.96
-46.83
-33.97
-19.66
-5.24
8.16
19.7
28.99
36.04
41.26
45.17
48.16
50.32
51.39
50.97
48.72
44.67
39.37
33.77
28.87
25.39
23.48
22.7
22.2
21.07
18.71
15.04
10.48
5.77
1.5
-2.04
-4.96
-7.69
-10.79
-14.74
-19.9
-26.46
-34.28
-42.84
-51.14
-57.81
-61.43
-61.0
-56.32
-48.09
-37.55
-25.99
-14.36
-3.1
7.68
17.85
27.0
34.5
39.66
42.15
42.22
40.58
38.22
35.84
33.73
31.65
29.18
26.05
22.4
18.83
16.03
14.42
13.79
13.45
12.42
9.93
5.75
0.14
-6.21
-12.55
-18.24
-23.05
-27.07
-30.75
-34.78
-39.86
-46.44
-54.42
-62.99
-70.73
-76.03
-77.57
-74.77
-67.89
-57.94
-46.2
-33.85
-21.71
-10.16
0.69
10.75
19.77
27.38
33.18
36.89
38.51
38.29
36.78
34.57
32.07
29.47
26.75
23.83
20.79
17.94
15.6
14.05
13.28
12.99
12.62
11.63
9.67
6.69
2.88
-1.41
-5.85
-10.23
-14.49
-18.8
-23.43
-28.65
-34.65
-41.4
-48.56
-55.45
-61.13
-64.49
-64.55
-60.72
-52.99
-42.0
-28.91
-15.09
-1.79
10.09
20.18
28.53
35.41
41.09
45.72
49.23
51.46
52.2
51.33
48.96
45.43
41.37
37.45
34.36
32.47
31.75
31.68
31.53
30.56
28.43
25.3
21.69
18.21
15.29
12.88
10.55
7.65
3.62
-1.75
-8.17
-14.95
-21.28
-26.47
-30.34
-33.34
-36.4
-40.62
-46.87
-55.23
-64.83
-74.02
-80.82
-83.58
-81.47
-74.8
-64.83
-53.29
-41.66
-30.71
-20.38
-10.2
0.19
10.61
20.21
27.85
32.68
34.53
34.05
32.34
30.44
28.84
27.47
25.9
23.8
21.17
18.35
15.86
14.05
12.97
12.25
11.4
9.98
7.77
4.75
1.08
-3.11
-7.63
-12.3
-17.02
-21.71
-26.46
-31.57
-37.39
-44.2
-51.81
-59.32
-65.28
-68.02
-66.34
-59.97
-49.8
-37.53
-24.99
-13.52
-3.56
5.23
13.45
21.42
28.95
35.37
39.85
41.88
41.43
39.05
35.66
32.22
29.42
27.52
26.32
25.3
23.9
21.75
18.91
15.82
13.01
10.85
9.25
7.76
5.69
2.45
-2.23
-8.14
-14.69
-21.16
-26.96
-31.92
-36.32
-40.92
-46.63
-54.12
-63.43
-73.62
-82.83
-88.79
-89.62
-84.49
-73.99
-59.88
-44.38
-29.36
-15.82
-3.78
7.35
18.05
28.38
37.82
45.59
51.05
53.96
54.62
53.66
51.88
49.9
48.12
46.64
45.37
44.13
42.73
41.05
39.06
36.9
34.76
32.78
31.03
29.32
27.3
24.54
20.7
15.7
9.76
3.31
-3.17
-9.33
-15.08
-20.57
-26.14
-32.17
-38.99
-46.75
-55.45
-64.74
-73.96
-82.08
-87.87
-90.22
-88.38
-82.23
-72.26
-59.4
-44.69
-29.14
-13.58
1.28
14.74
26.26
35.41
42.11
46.66
49.62
51.55
52.78
53.37
53.05
51.59
48.89
45.29
41.46
38.23
36.28
35.8
36.46
37.4
37.61
36.25
32.98
28.11
22.33
16.5
11.14
6.34
1.78
-3.01
-8.44
-14.74
-21.96
-30.1
-39.05
-48.58
-57.99
-66.15
-71.67
-73.23
-70.19
-62.64
-51.49
-38.01
-23.52
-9.0
4.85
17.56
28.73
37.98
