-83.65
-81.05
-71.99
-57.3
-38.96
-19.41
-0.75
15.61
29.11
39.75
47.66
52.86
55.26
54.92
52.15
47.67
42.39
37.12
32.38
28.29
24.62
21.13
17.75
14.66
12.29
10.94
10.62
10.9
10.96
9.96
7.3
2.91
-2.82
-9.16
-15.37
-21.0
-25.94
-30.5
-35.29
-41.01
-48.26
-57.19
-67.25
-77.11
-84.78
-88.13
-85.55
-76.55
-61.9
-43.43
-23.44
-4.02
13.38
28.05
39.86
48.89
55.24
58.89
59.85
58.28
54.68
49.84
44.64
39.87
35.92
32.75
30.07
27.51
24.95
22.62
20.94
20.26
20.54
21.2
21.3
19.88
16.36
10.81
3.96
-3.19
-9.7
-15.14
-19.7
-24.03
-29.05
-35.47
-43.66
-53.42
-63.9
-73.7
-81.04
-84.11
-81.59
-73.01
-59.0
-41.16
-21.6
-2.39
14.93
29.45
40.84
49.1
54.34
56.79
56.74
54.73
51.43
47.54
43.61
39.89
36.37
32.91
29.43
26.03
23.07
20.93
19.93
20.01
20.77
21.47
21.26
19.49
15.9
10.75
4.63
-1.68
-7.53
-12.65
-17.13
-21.36
-25.87
-31.24
-37.88
-45.97
-55.14
-64.35
-71.96
-75.99
-74.77
-67.48
-54.48
-37.28
-17.99
1.22
18.7
33.51
45.31
54.11
60.03
63.18
63.72
61.98
58.52
54.1
49.48
45.22
41.54
38.35
35.35
32.36
29.5
27.1
25.61
25.19
25.58
26.08
25.8
24.01
20.4
15.24
9.16
2.97
-2.74
-7.67
-11.94
-15.92
-20.14
-25.1
-31.24
-38.79
-47.66
-57.25
-66.32
-73.09
-75.66
-72.56
-63.35
-48.81
-30.76
-11.48
6.96
23.11
36.24
46.1
52.72
56.15
56.58
54.41
50.33
45.2
39.83
34.77
30.28
26.33
22.75
19.49
16.63
14.4
12.99
12.43
12.4
12.3
11.44
9.25
5.59
0.75
-4.65
-9.97
-14.78
-19.08
-23.28
-28.07
-34.15
-41.94
-51.28
-61.3
-70.48
-76.95
-78.99
-75.53
-66.54
-53.0
-36.57
-19.16
-2.4
12.51
24.85
34.22
40.47
43.57
43.71
41.42
37.44
32.63
27.78
23.38
19.58
16.26
13.18
10.24
7.59
5.54
4.38
4.18
4.59
4.89
4.23
2.0
-1.96
-7.28
-13.25
-19.08
-24.26
-28.7
-32.69
-36.84
-41.83
-48.26
-56.38
-65.79
-75.32
-83.1
-87.02
-85.3
-77.22
-63.36
-45.49
-25.9
-6.78
10.41
24.98
36.79
45.86
52.13
55.48
55.91
53.82
49.96
45.3
40.66
36.47
32.68
28.97
25.04
20.96
17.1
14.01
12.08
11.22
10.82
10.02
8.0
4.4
-0.64
-6.58
-12.76
-18.74
-24.38
-29.85
-35.45
-41.51
-48.31
-56.12
-65.07
-74.96
-85.02
-93.87
-99.67
-100.65
-95.64
-84.45
-67.79
-47.03
-23.7
0.69
24.68
46.79
65.55
79.74
88.77
92.8
92.67
89.44
83.99
76.7
67.65
56.87
44.66
31.64
18.61
6.22
-5.22
-15.7
-25.37
-34.38
-42.77
-50.51
-57.46
-63.43
-68.03
-70.7
-70.74
-67.53
-60.74
-50.53
-37.53
-22.69
-7.15
7.9
21.18
31.44
37.51
38.63
34.92
27.6
19.04
12.11
9.46
12.64
21.74
35.46
51.75
68.5
84.16
97.95
109.72
119.65
127.9
134.58
139.69
143.13
144.72
144.17
141.08
135.05
125.95
114.02
100.12
85.51
71.51
59.12
48.64
39.74
31.62
23.52
14.89
5.69
-3.81
-13.16
-21.91
-29.75
-36.51
-42.25
-47.27
-52.15
-57.66
-64.56
-73.25
-83.38
-93.89
-103.06
-109.04
-110.38
-106.46
-97.69
-85.31
-71.07
-56.74
-43.88
-33.53
-26.29
-22.28
-21.2
-22.37
-24.73
-27.21
-28.95
-29.68
-29.7
-29.67
-30.25
-31.67
-33.52
-34.94
-34.89
-32.58
-27.82
-20.95
-12.72
-4.05
4.14
11.05
16.11
18.95
19.54
18.1
15.05
10.8
5.54
-0.75
-8.14
-16.35
-24.55
-31.28
-34.89
-34.06
-28.33
-18.36
-5.66
7.88
20.62
31.51
40.25
46.92
51.71
54.63
55.54
54.3
51.03
46.21
40.59
34.94
29.74
25.12
20.95
17.07
13.49
10.34
7.74
5.63
3.67
1.36
-1.7
-5.55
-9.91
-14.3
-18.35
-21.9
-25.12
-28.3
-31.59
-34.86
-37.5
-38.61
-37.15
-32.26
-23.45
-10.88
4.73
22.13
39.71
55.89
69.43
79.65
86.54
90.62
92.66
93.38
93.23
92.32
90.64
88.17
84.98
81.07
76.37
70.61
63.54
55.21
46.06
36.83
28.21
20.35
12.63
3.89
-7.01
-20.54
-36.12
-52.35
-67.56
-80.6
-91.09
-99.24
-105.27
-108.89
-109.28
-105.46
-97.08
-84.77
-70.18
-55.31
-41.8
-30.35
-20.67
-12.04
-3.69
4.5
12.13
18.43
22.63
24.29
23.4
20.36
15.71
10.12
4.19
-1.46
-6.28
-9.8
-11.83
-12.45
-12.09
-11.46
-11.25
-12.03
-14.01
-17.06
-20.8
-24.82
-28.83
-32.86
-37.29
-42.62
-49.37
-57.49
-66.25
-74.12
-79.19
-79.78
-75.0
-65.11
-51.33
-35.46
-19.22
-3.89
9.81
21.58
31.34
39.11
44.93
48.94
51.3
52.25
52.01
50.74
48.59
45.73
42.4
38.88
35.54
32.63
30.37
28.75
27.54
26.35
24.7
22.27
18.93
14.86
10.26
5.37
0.27
-5.05
-10.62
-16.46
-22.58
-29.11
-36.33
-44.56
-53.7
-63.01
-70.98
-75.67
-75.34
-69.11
-57.47
-41.93
-24.67
-7.6
7.96
21.57
33.27
43.31
51.73
58.39
63.11
65.73
66.39
65.42
63.29
60.48
57.29
53.91
50.38
46.83
43.41
40.46
38.29
37.05
36.56
36.29
35.57
33.81
30.78
26.7
22.07
17.39
12.88
8.36
3.42
-2.25
-8.68
-15.5
-22.21
-28.35
-33.88
-39.07
-44.4
-50.34
-57.16
-64.92
-73.45
-82.33
-90.78
-97.66
-101.55
-101.14
-95.59
-84.9
-70.0
-52.41
-33.96
-16.21
-0.25
13.41
24.67
33.65
40.52
45.38
48.34
49.52
49.14
47.56
45.16
42.33
39.41
36.74
34.6
33.27
32.8
33.05
33.58
33.85
33.31
31.72
29.16
26.03
22.83
19.86
17.08
14.2
10.72
6.25
0.59
-6.08
-13.34
-20.61
-27.38
-33.39
-38.74
-43.95
-49.76
-56.93
-65.81
-76.1
-86.64
-95.66
-101.26
-101.88
-96.92
-86.77
-72.71
-56.43
-39.48
-23.05
-7.94
5.37
16.5
25.24
31.45
35.28
37.14
37.6
37.25
36.47
35.34
33.84
31.88
29.59
27.3
25.54
24.78
25.21
26.64
28.5
30.06
30.69
30.07
28.25
25.57
22.44
19.09
15.59
11.72
7.31
2.3
-3.17
-8.74
-14.17
-19.38
-24.51
-29.92
-36.04
-43.12
-51.23
-60.09
-69.1
-77.37
-83.67
-86.69
-85.33
-79.07
-68.12
-53.51
-36.79
-19.65
-3.63
10.29
21.6
30.31
36.7
41.21
44.17
45.77
46.02
44.87
42.39
38.92
35.03
31.38
28.44
26.42
25.25
24.75
24.71
25.01
25.45
25.73
25.42
24.1
21.63
18.18
14.22
10.27
6.55
3.0
-0.79
-5.2
-10.46
-16.42
-22.68
-28.75
-34.37
-39.74
-45.44
-52.27
-60.77
-70.83
-81.38
-90.59
-96.36
-97.08
-92.21
-82.27
-68.72
-53.2
-37.11
-21.35
-6.41
7.32
19.32
28.95
35.72
39.54
40.85
40.54
39.6
38.71
38.04
37.29
35.95
33.75
30.89
28.06
26.1
25.61
26.62
28.63
30.75
32.14
32.32
31.22
29.16
26.47
23.36
19.89
15.91
11.3
6.04
0.21
-6.07
-12.86
-20.45
-29.3
-39.71
-51.56
-64.07
-75.81
-85.09
-90.38
-90.72
-85.93
-76.53
-63.53
-48.15
-31.67
-15.32
-0.32
12.31
21.94
28.41
32.15
33.91
34.41
34.12
33.04
30.91
27.52
23.05
18.07
13.56
10.39
9.07
9.51
11.07
12.79
13.86
13.87
12.82
11.1
9.05
6.79
4.14
0.68
-3.89
-9.56
-15.89
-22.29
-28.15
-33.36
-38.28
-43.61
-50.19
-58.52
-68.52
-79.31
-89.44
-97.08
-100.59
-98.83
-91.49
-79.2
-63.27
-45.45
-27.38
-10.4
4.75
17.76
28.64
37.54
44.44
49.26
51.77
51.95
49.99
46.55
42.53
38.88
36.32
35.09
35.03
35.56
36.11
36.23
35.78
34.8
33.39
31.55
29.09
25.79
21.41
16.01
9.87
3.5
-2.59
-8.2
-13.5
-19.17
-26.09
-34.99
-45.85
-57.7
-68.54
-75.84
-77.4
-72.01
-60.08
-43.41
-24.63
-6.22
10.13
23.87
35.32
45.01
53.22
59.6
63.5
64.29
61.95
57.24
51.46
46.02
41.81
39.03
37.16
35.45
33.29
30.66
27.97
25.84
24.63
24.16
23.78
22.56
19.7
14.9
8.47
1.17
-6.09
-12.59
-18.2
-23.28
-28.62
-35.09
-43.38
-53.69
-65.54
-77.69
-88.23
-95.0
-96.11
-90.51
-78.44
-61.37
-41.67
-21.7
-3.23
13.02
27.16
39.63
50.67
59.94
66.67
70.09
69.95
66.76
61.74
56.31
51.61
48.03
45.23
42.53
39.26
35.34
31.2
27.68
25.49
24.75
24.86
24.71
23.1
19.23
13.1
5.39
-2.78
-10.42
-17.05
-22.85
-28.42
-34.51
-41.72
-50.31
-60.26
-71.19
-82.31
-92.36
-99.7
-102.53
-99.48
-90.14
-75.16
-56.18
-35.13
-13.81
6.46
24.88
40.93
54.18
64.35
71.21
74.82
75.58
74.13
71.21
67.56
63.79
60.29
57.16
54.29
51.46
48.64
46.02
43.99
42.94
42.97
43.66
44.17
43.55
41.08
36.68
30.91
24.67
18.82
13.74
9.2
4.55
-0.91
-7.54
-15.13
-23.11
-30.87
-38.26
-45.66
-53.81
-63.14
-73.3
-82.87
-89.55
-90.98
-85.58
-73.14
-54.99
-33.44
-11.18
9.53
27.16
41.13
51.55
58.96
64.01
67.27
69.1
69.55
68.54
65.85
61.5
55.9
49.85
44.39
40.44
38.49
38.34
39.17
39.81
39.26
37.15
33.77
30.0
26.66
24.15
22.12
19.59
15.48
9.19
0.94
-8.26
-16.98
-24.23
-29.69
-33.98
-38.3
-43.87
-51.55
-61.46
-72.99
-84.79
-95.16
-102.21
-104.31
-100.5
-90.68
-75.73
-57.17
-36.79
-16.15
3.44
21.09
36.11
48.0
56.47
61.53
63.6
63.47
62.0
59.92
57.62
55.16
52.44
49.38
46.1
42.99
40.53
39.17
39.1
40.13
41.78
43.3
43.98
43.25
40.84
36.93
32.03
26.86
22.0
17.71
13.8
9.67
4.62
-1.75
-9.33
-17.47
-25.28
-32.02
-37.47
-41.99
-46.44
-51.83
-58.99
-68.15
-78.89
-89.98
-99.55
-105.5
-106.01
-100.13
-88.09
-71.24
-51.54
-30.96
-10.92
7.72
24.41
38.66
49.86
57.46
61.29
61.84
60.1
57.3
54.4
51.79
49.31
46.58
43.28
39.52
35.83
32.96
31.56
31.84
33.33
35.12
36.07
35.3
32.53
28.19
23.15
18.3
14.13
10.45
6.57
1.68
-4.76
-12.65
-21.32
-29.81
-37.31
-43.5
-48.77
-54.01
-60.36
-68.73
-79.24
-90.95
-101.81
-109.14
-110.42
-104.18
-90.51
-71.14
-48.77
-26.23
-5.56
12.29
27.37
40.11
50.84
59.45
65.54
68.65
68.74
66.3
62.32
57.96
54.15
51.33
49.42
47.96
46.42
44.59
42.68
41.14
40.46
40.76
41.59
42.09
41.22
38.29
33.26
26.82
20.08
14.06
9.24
5.25
1.14
-4.16
-11.31
-20.17
-29.79
-38.9
-46.44
-52.18
-56.85
-61.91
-68.87
-78.49
-90.16
-101.79
-110.3
-112.68
-107.09
-93.58
-73.96
-51.15
-28.13
-7.11
10.9
25.89
38.31
48.6
56.84
62.87
66.44
67.44
66.18
63.25
59.47
55.65
52.33
49.61
47.33
45.21
43.1
41.18
39.77
39.16
39.33
39.87
40.08
39.26
37.05
33.5
29.02
24.07
19.0
13.89
8.59
2.86
-3.44
-10.25
-17.36
-24.42
-31.21
-37.56
-43.54
-49.45
-55.69
-62.83
-71.32
-81.26
-92.12
-102.53
-110.37
-113.24
-109.25
-97.61
-79.08
-55.81
-30.77
-6.92
13.59
29.77
41.74
50.38
56.72
61.5
64.94
66.83
66.82
64.82
61.14
56.5
51.79
47.75
44.72
42.72
41.55
40.92
40.68
40.61
40.44
39.87
38.58
36.32
33.05
28.92
24.17
19.02
13.59
7.88
1.83
-4.63
-11.47
-18.61
-25.95
-33.44
-41.07
-48.88
-56.94
-65.46
-74.84
-85.59
-98.18
-112.62
-128.13
-142.98
-154.69
-160.77
-159.42
-150.25
-134.21
-113.39
-90.1
-66.32
-43.16
-20.96
0.43
21.22
41.26
60.03
76.68
90.4
100.67
107.48
111.22
112.58
112.37
111.33
110.1
109.18
108.92
109.37
110.27
110.94
110.64
108.75
105.02
99.6
92.9
85.33
77.05
68.02
58.04
47.12
35.54
23.84
12.66
2.46
-6.66
-14.99
-23.14
-31.83
-41.63
-52.84
-65.29
-78.22
-90.42
-100.22
-105.92
-106.17
-100.42
-89.05
-73.36
-55.14
-36.28
-18.36
-2.47
10.83
21.38
29.27
34.76
38.12
39.66
39.74
38.78
37.31
35.75
34.38
33.13
31.77
30.06
28.07
26.37
25.8
27.24
31.08
37.08
44.28
51.35
56.94
60.02
60.13
57.38
52.34
45.78
38.47
30.93
23.5
16.19
8.85
1.13
-7.62
-18.06
-30.67
-45.16
-60.28
-73.8
-83.18
-86.37
-82.58
-72.66
-58.63
-43.08
-28.34
-16.05
-6.97
-1.17
1.81
2.74
2.42
1.6
0.79
0.17
-0.27
-0.61
-0.86
-0.97
-0.91
-0.76
-0.61
-0.55
-0.5
-0.29
0.13
0.58
0.52
-0.62
-3.25
-7.31
-12.35
-17.77
-23.03
-27.95
-32.63
-37.29
-42.22
-47.71
-54.07
-61.52
-70.03
-78.88
-86.58
-91.03
-90.11
-82.55
-68.47
-49.52
-28.38
-7.9
9.82
23.82
34.35
42.35
48.71
53.94
57.88
59.99
59.72
57.0
52.39
46.98
42.05
38.53
36.76
36.3
36.32
35.93
34.72
32.79
30.8
29.39
28.84
28.79
28.28
26.22
21.87
15.31
7.36
-0.73
-7.77
-13.36
-17.87
-22.43
-28.38
-36.81
-47.98
-61.19
-74.73
-86.22
-93.19
-93.69
-87.02
-73.83
-56.07
-36.21
-16.62
1.09
16.35
29.26
40.3
49.7
57.4
62.99
66.14
66.71
65.02
61.79
57.89
54.15
51.02
48.64
46.79
45.14
43.4
41.46
39.37
37.24
35.14
32.96
30.53
27.56
23.79
19.03
13.2
6.45
-0.89
-8.36
-15.56
-22.27
-28.54
-34.63
-40.86
-47.53
-54.91
-63.21
-72.6
-83.01
-93.82
-103.64
-110.4
-111.88
-106.58
-94.44
-76.99
-56.86
-36.85
-19.01
-4.14
8.08
18.43
27.5
35.32
41.39
45.22
46.74
46.41
45.04
43.55
42.5
41.99
41.78
41.48
40.93
40.21
39.7
39.72
40.43
41.61
42.73
43.08
42.06
39.37
35.15
29.98
24.48
19.13
14.06
9.01
3.58
-2.62
-9.72
-17.57
-25.78
-33.89
-41.52
-48.49
-54.87
-60.97
-67.36
-74.67
-83.35
-93.26
-103.38
-111.88
-116.39
-114.85
-106.17
-90.82
-70.64
-48.36
-26.71
-7.57
8.33
21.2
31.76
40.69
48.27
54.34
58.5
60.34
59.79
57.2
53.34
49.16
45.58
43.13
41.9
41.56
41.57
41.42
40.87
39.99
39.0
38.1
37.26
36.23
34.57
31.88
27.87
22.49
16.03
8.97
1.9
-4.66
-10.42
-15.4
-19.99
-24.83
-30.7
-38.13
-47.25
-57.61
-68.03
-76.84
-82.16
-82.45
-76.94
-66.01
-50.93
-33.56
-15.65
1.5
17.15
30.99
42.67
51.7
57.56
60.01
59.46
57.0
53.96
51.43
49.82
48.78
47.53
45.4
42.3
38.86
36.08
34.93
35.62
37.6
39.68
40.56
39.34
35.91
30.88
25.31
20.28
16.27
13.11
10.06
6.17
0.78
-6.12
-13.96
-21.83
-28.86
-34.68
-39.52
-44.17
-49.62
-56.73
-65.87
-76.57
-87.44
-96.34
-100.9
-99.27
-90.72
-76.0
-57.08
-36.59
-16.87
0.45
14.81
26.43
35.93
43.81
50.33
55.41
58.79
60.3
59.99
58.19
55.45
52.4
49.45
46.81
44.49
42.47
40.88
39.92
39.67
40.0
40.43
40.32
39.13
36.6
32.89
28.44
23.7
18.91
14.03
8.81
3.01
-3.45
-10.41
-17.46
-24.09
-30.0
-35.24
-40.32
-46.03
-53.17
-62.14
-72.63
-83.59
-93.2
-99.48
-100.71
-95.87
-85.05
-69.26
-50.24
-30.0
-10.4
7.26
22.22
34.24
43.45
50.07
54.46
57.01
58.1
58.03
57.07
55.39
53.08
50.25
47.06
43.74
40.65
38.19
36.63
36.02
36.18
36.67
36.95
36.47
34.8
31.79
27.64
22.81
17.86
13.29
9.2
5.33
0.97
-4.53
-11.53
-19.75
-28.36
-36.34
-42.91
-47.97
-52.03
-56.18
-61.54
-68.98
-78.66
-89.96
-101.4
-110.92
-116.33
-115.87
-108.78
-95.56
-77.8
-57.77
-37.65
-19.14
-3.15
10.04
20.62
28.93
35.31
39.96
42.89
44.0
43.13
40.47
36.55
32.26
28.61
26.31
25.45
25.51
25.62
25.06
23.66
21.75
19.98
18.9
18.53
18.33
17.33
14.55
9.46
2.35
-5.83
-13.81
-20.49
-25.51
-29.31
-32.96
-37.68
-44.42
-53.34
-63.94
-75.13
-85.43
-93.29
-97.31
-96.51
-90.53
-79.77
-65.28
-48.42
-30.57
-12.84
3.91
19.04
31.93
41.98
48.7
51.89
51.87
49.56
46.16
42.85
40.4
38.93
37.98
36.8
34.81
31.92
28.71
26.09
24.79
25.04
26.24
27.26
26.82
24.09
18.97
12.22
5.03
-1.46
-6.72
-10.95
-14.98
-19.77
-26.02
-33.97
-43.46
-54.05
-65.23
-76.25
-85.94
-92.71
-94.81
-90.98
-80.98
-65.81
-47.42
-28.05
-9.6
6.84
20.95
32.8
42.52
50.1
55.41
58.46
59.49
59.01
57.65
55.87
53.93
51.77
49.21
46.13
42.69
39.31
36.6
35.03
34.71
35.22
35.72
35.17
32.73
28.09
21.61
14.2
6.91
0.57
-4.6
-8.99
-13.41
-18.81
-25.82
-34.64
-44.97
-56.24
-67.52
-77.59
-85.0
-88.24
-86.05
-77.91
-64.18
-46.21
-25.99
-5.6
13.21
29.35
42.37
52.32
59.4
63.94
66.3
66.88
66.15
64.56
62.45
59.94
56.94
53.22
48.69
43.55
38.39
33.98
30.94
29.46
29.05
28.76
27.49
24.46
19.51
13.1
6.09
-0.77
-7.14
-13.14
-19.18
-25.53
-32.26
-39.15
-46.11
-53.38
-61.59
-71.29
-82.32
-93.4
-102.22
-106.16
-103.31
-93.21
-77.12
-57.45
-36.89
-17.53
-0.55
13.77
25.57
35.05
42.28
47.21
49.85
50.47
49.58
47.75
45.49
43.03
40.41
37.59
34.63
31.77
29.36
27.78
27.21
27.52
28.28
28.85
28.56
26.87
23.48
18.46
12.24
5.57
-0.8
-6.3
-10.91
-15.07
-19.6
-25.32
-32.88
-42.42
-53.49
-65.06
-75.52
-83.03
-85.83
-82.78
-73.69
-59.49
-41.93
-23.1
-4.86
11.49
25.29
36.3
44.51
50.01
52.97
53.73
52.86
51.0
48.69
46.17
43.27
39.67
35.23
30.28
25.64
22.38
21.28
22.35
24.64
26.54
26.43
23.44
17.77
10.59
3.49
-2.28
-6.34
-9.3
-12.36
-16.88
-23.77
-33.24
-44.6
-56.47
-66.94
-73.91
-75.71
-71.49
-61.49
-47.08
-30.16
-12.57
4.26
19.57
33.12
44.75
54.24
61.24
65.39
66.64
65.46
62.64
59.18
55.89
53.14
50.84
48.59
45.95
42.77
39.36
36.37
34.35
33.56
33.54
33.4
31.95
28.26
21.93
13.43
3.84
-5.43
-13.31
-19.44
-24.43
-29.66
-36.74
-46.88
-60.16
-75.26
-89.65
-100.28
-104.59
-101.26
-90.7
-74.8
-56.3
-37.76
-20.91
-6.35
6.24
17.38
27.41
36.14
43.04
47.49
49.29
48.74
46.6
43.89
41.34
39.33
37.8
36.43
34.89
33.08
31.11
29.3
27.97
27.23
26.9
26.47
25.24
22.47
17.78
11.25
3.49
-4.49
-11.72
-17.64
-22.38
-26.66
-31.6
-38.17
-46.95
-57.76
-69.52
-80.44
-88.26
-91.01
-87.48
-77.79
-63.25
-45.97
-28.07
-11.1
4.25
17.9
29.92
40.24
48.52
54.47
58.04
59.56
59.58
58.58
56.88
54.59
51.77
48.59
45.42
42.68
40.68
39.46
38.72
38.04
37.01
35.39
33.13
30.34
27.11
23.38
19.08
14.03
8.22
1.81
-4.93
-11.7
-18.22
-24.37
-30.14
-35.67
-41.39
-47.81
-55.42
-64.32
-73.98
-83.07
-89.73
-92.05
-88.73
-79.62
-65.7
-48.77
-30.87
-13.69
1.75
15.07
26.32
35.65
43.05
48.41
51.59
52.59
51.74
49.65
47.09
44.73
42.91
41.47
39.94
37.85
35.05
31.95
29.24
27.61
27.24
27.54
27.38
25.5
21.22
14.7
6.97
-0.61
-6.92
-11.59
-15.16
-18.76
-23.66
-30.71
-39.99
-50.79
-61.66
-70.89
-76.78
-78.15
-74.47
-66.01
-53.71
-38.91
-23.02
-7.3
7.26
20.08
30.8
39.23
45.28
48.81
49.8
48.47
45.33
41.17
36.9
33.23
30.44
28.3
26.28
23.92
21.18
18.45
16.39
15.49
15.69
16.28
16.08
13.96
9.3
2.43
-5.59
-13.25
-19.38
-23.59
-26.46
-29.35
-33.76
-40.8
-50.67
-62.54
-74.69
-84.92
-91.1
-91.71
-86.25
-75.35
-60.59
-43.88
-26.98
-11.02
3.49
16.45
27.85
37.49
45.07
50.2
52.85
53.27
52.06
50.0
47.78
45.86
44.34
43.03
41.54
39.62
37.27
34.79
32.74
31.56
31.4
31.85
32.1
31.05
27.92
22.45
15.15
7.11
-0.49
-6.8
-11.68
-15.77
-20.08
-25.57
-32.71
-41.44
-51.24
-61.53
-71.69
-81.04
-88.73
-93.62
-94.52
-90.51
-81.37
-67.73
-51.14
-33.58
-16.94
-2.62
8.76
17.38
23.95
29.4
34.54
39.77
45.01
49.75
53.23
54.58
53.16
48.66
41.26
31.7
21.13
10.75
1.44
-6.45
-13.22
-19.35
-25.25
-30.88
-35.74
-39.18
-40.8
-40.75
-39.69
-38.6
-38.29
-39.14
-40.88
-42.75
-43.88
-43.77
-42.59
-41.23
-41.11
-43.57
-49.22
-57.42
-66.16
-72.6
-74.0
-68.71
-56.75
-39.73
-20.25
-0.94
16.24
30.36
41.31
49.47
55.31
59.22
61.51
62.46
62.37
61.55
60.29
58.82
57.35
55.85
54.19
52.15
49.71
47.05
44.61
42.78
41.69
41.07
40.3
38.7
35.79
31.6
26.5
21.03
15.68
10.61
5.82
1.05
-4.08
-10.04
-17.16
-25.53
-34.74
-43.72
-51.01
-54.93
-54.22
-48.37
-37.96
-24.38
-9.42
5.2
18.27
29.06
37.34
43.14
46.63
47.97
47.51
45.61
42.64
38.89
34.43
29.32
23.69
17.94
12.7
8.7
6.45
5.93
6.58
7.36
7.25
5.56
2.17
-2.39
-7.31
-11.81
-15.52
-18.53
-21.4
-24.97
-29.97
-36.86
-45.48
-54.95
-63.73
-69.94
-71.87
-68.61
-60.32
-48.13
-33.71
-18.68
-4.21
9.1
20.99
31.21
39.35
44.9
47.55
47.46
45.33
42.13
38.7
35.52
32.59
29.66
26.57
23.42
20.58
18.46
17.22
16.56
15.86
14.44
11.79
7.82
2.72
-3.1
-9.19
-15.18
-20.87
-26.28
-31.71
-37.76
-45.13
-54.26
-64.79
-75.36
-83.77
-87.64
-85.23
-76.16
-61.62
-43.94
-25.77
-9.18
4.8
16.12
25.35
33.0
39.34
44.18
47.27
48.45
47.82
45.79
42.9
39.69
36.53
33.62
31.02
28.77
26.94
25.54
24.54
23.7
22.7
21.08
18.49
14.83
10.28
5.17
-0.25
-5.83
-11.59
-17.62
-23.95
-30.68
-37.93
-45.85
-54.47
-63.31
-71.24
-76.55
-77.39
-72.46
-61.62
-45.96
-27.49
-8.52
8.98
23.69
35.05
43.13
48.41
51.58
53.43
54.6
55.41
55.8
55.38
53.81
51.09
47.72
44.53
42.46
41.99
42.97
44.56
45.54
44.82
41.83
36.73
30.3
23.54
17.17
11.4
5.9
0.04
-6.68
-14.37
-22.77
-31.38
-39.85
-48.02
-55.7
-62.48
-67.39
-69.15
-66.4
-58.39
-45.27
-28.3
-9.43
9.16
25.58
38.67
48.0
53.94
57.35
59.22
60.34
61.11
61.49
61.12
59.63
56.79
52.79
48.15
43.58
39.72
36.89
35.0
33.51
31.6
28.36
23.28
16.45
8.6
0.96
-5.48
-10.23
-13.67
-16.93
-21.45
-28.32
-37.8
-49.11
-60.55
-70.07
-75.73
-76.32
-71.55
-62.11
-49.27
-34.53
-19.27
-4.49
9.04
20.86
30.5
37.56
41.7
42.86
41.41
38.11
34.03
30.04
26.66
23.85
21.1
17.84
13.85
9.44
5.43
2.71
1.74
2.23
3.23
3.45
1.88
-1.8
-7.13
-13.12
-18.68
-23.18
-26.74
-30.15
-34.58
-41.08
-49.99
-60.72
-71.71
-80.86
-86.17
-86.32
-81.03
-71.09
-58.09
-43.77
-29.71
-16.92
-5.86
3.44
11.07
17.1
21.47
23.96
24.43
22.84
19.51
15.16
10.62
6.7
3.87
2.18
1.26
0.69
0.11
-0.51
-0.89
-0.72
0.19
1.65
3.17
4.0
3.53
1.49
-1.99
-6.36
-11.05
-15.66
-20.3
-25.52
-32.12
-40.53
-50.47
-60.62
-68.8
-72.65
-70.4
-61.63
-47.5
-30.38
-12.96
2.57
15.16
24.95
32.73
39.39
45.19
49.78
52.44
52.67
50.58
47.05
43.35
40.55
39.03
38.41
37.78
36.35
34.01
31.31
29.18
28.27
28.57
29.31
29.38
27.79
23.98
17.97
10.09
0.89
-9.03
-18.94
-28.06
-35.86
-42.33
-48.21
-54.62
-62.55
-72.08
-82.03
-90.22
-94.22
-92.35
-84.23
-70.93
-54.29
-36.33
-18.66
-2.23
12.31
24.58
34.21
40.96
44.82
46.21
45.82
44.45
42.79
41.09
39.38
37.49
35.32
32.91
30.55
28.6
27.35
26.88
26.93
26.96
26.35
24.65
21.61
17.4
12.49
7.51
3.08
-0.48
-3.26
-5.66
-8.36
-12.05
-17.18
-23.85
-31.71
-39.93
-47.41
-52.88
-55.13
-53.3
-47.0
-36.59
-23.0
-7.66
7.88
22.13
33.87
42.41
47.53
49.51
49.07
47.05
44.26
41.14
37.73
33.73
28.87
23.18
17.15
11.64
7.43
5.02
4.28
4.52
4.82
4.35
2.71
-0.09
-3.69
-7.69
-11.84
-16.1
-20.63
-25.61
-31.19
-37.3
-43.75
-50.15
-56.18
-61.4
-65.33
-67.4
-66.96
-63.59
-57.13
-47.89
-36.56
-24.0
-11.11
1.34
12.7
22.32
29.62
34.19
35.96
35.37
33.25
30.49
27.83
25.67
24.07
22.92
22.09
21.56
21.46
21.98
23.24
25.28
27.82
30.35
32.01
31.89
29.27
24.01
16.75
8.58
0.79
-5.82
-11.3
-16.54
-22.88
-31.47
-42.6
-55.41
-68.05
-78.1
-83.44
-82.81
-76.15
-64.52
-49.63
-33.17
-16.48
-0.37
14.64
28.06
39.33
47.85
53.25
55.5
55.14
52.98
49.9
46.62
43.49
40.56
37.68
34.61
31.11
27.24
23.27
19.74
17.25
16.08
16.08
16.49
16.23
14.21
9.98
3.81
-3.27
-9.97
-15.39
-19.38
-22.65
-26.45
-32.13
-40.4
-51.14
-63.28
-74.96
-84.18
-89.18
-88.94
-83.39
-73.35
-60.08
-45.0
-29.28
-13.63
1.33
15.14
27.16
36.79
43.49
47.18
48.27
47.54
46.04
44.57
43.49
42.57
41.28
38.93
35.39
31.09
27.01
24.29
23.57
24.71
26.67
27.91
26.96
23.24
17.14
9.85
2.86
-2.8
-6.9
-10.07
-13.42
-18.08
-24.58
-32.91
-42.56
-52.67
-62.32
-70.47
-76.0
-77.75
-74.88
-67.0
-54.49
-38.48
-20.44
-2.07
15.2
30.29
42.53
51.54
57.4
60.49
61.5
61.26
60.37
59.13
57.43
54.96
51.39
46.84
41.86
37.36
34.27
33.1
33.72
35.32
36.72
36.71
34.66
30.6
25.21
19.5
14.15
9.41
4.87
-0.12
-6.24
-13.61
-21.88
-30.39
-38.53
-46.27
-53.97
-62.14
-70.72
-78.81
-84.49
-85.59
-80.48
-68.78
-51.78
-31.89
-11.92
5.82
20.02
30.57
38.06
43.33
47.04
49.37
50.17
49.24
46.6
42.61
37.99
33.52
29.76
26.96
24.92
23.35
21.99
20.67
19.35
17.98
16.39
14.33
11.64
8.18
3.95
-0.93
-6.27
-11.78
-17.12
-22.0
-26.35
-30.44
-34.96
-40.68
-48.11
-57.06
-66.38
-74.08
-77.91
-76.11
-67.99
-54.28
-36.84
-18.2
-0.67
14.11
25.6
34.06
40.23
44.69
47.57
48.64
47.48
44.08
38.92
33.07
27.74
23.9
21.87
21.25
21.27
21.08
20.29
18.89
17.21
15.53
13.91
12.07
9.53
5.9
0.98
-4.98
-11.48
-17.87
-23.67
-28.93
-34.16
-40.33
-48.24
-58.07
-68.81
-78.44
-84.35
-84.3
-77.33
-64.1
-46.73
-27.91
-10.12
5.22
17.69
27.68
35.84
42.48
47.59
50.84
51.86
50.57
47.41
43.15
38.77
35.1
32.46
30.79
29.64
28.53
27.18
25.66
24.21
23.05
22.2
21.22
19.57
16.64
12.14
6.18
-0.68
-7.7
-14.19
-19.74
-24.47
-28.9
-33.96
-40.55
-49.24
-59.75
-70.91
-80.6
-86.4
-86.34
-79.53
-66.62
-49.48
-30.62
-12.3
3.94
17.61
28.94
38.38
46.26
52.51
56.76
58.48
57.55
54.24
49.48
44.48
40.33
37.66
36.28
35.49
34.35
32.37
29.61
26.72
24.51
23.33
22.96
22.47
20.79
17.07
11.24
3.88
-3.87
-10.84
-16.36
-20.45
-23.94
-28.05
-34.05
-42.6
-53.55
-65.65
-76.81
-84.67
-87.15
-83.28
-73.28
-58.72
-41.69
-24.36
-8.2
6.16
18.68
29.58
38.8
45.98
50.48
51.96
50.61
47.28
43.24
39.58
36.98
35.28
33.89
32.04
29.48
26.44
23.65
21.88
21.38
21.85
22.33
21.75
19.21
14.56
8.15
0.92
-6.03
-11.96
-16.59
-20.33
-24.08
-29.04
-36.09
-45.62
-56.94
-68.37
