62.69
64.53
64.34
62.17
58.32
53.3
47.81
42.51
37.91
34.3
31.72
30.02
28.97
28.31
27.76
27.06
25.99
24.32
21.93
18.75
14.76
10.0
4.61
-1.27
-7.44
-13.7
-19.88
-25.87
-31.63
-37.27
-43.09
-49.57
-57.21
-66.29
-76.48
-86.61
-94.71
-98.48
-96.01
-86.5
-70.6
-50.24
-27.98
-6.29
13.08
29.26
42.06
51.67
58.3
62.14
63.39
62.4
59.72
55.99
51.81
47.57
43.49
39.63
36.05
32.86
30.21
28.25
27.0
26.29
25.81
25.15
23.92
21.86
18.84
14.87
10.11
4.76
-0.95
-6.85
-12.79
-18.66
-24.36
-29.87
-35.33
-41.13
-47.9
-56.15
-65.89
-76.24
-85.28
-90.51
-89.63
-81.43
-66.34
-46.27
-24.01
-2.27
16.98
32.85
45.27
54.57
61.09
65.02
66.45
65.57
62.73
58.45
53.33
47.9
42.67
38.0
34.15
31.3
29.44
28.47
28.13
28.08
27.95
27.48
26.44
24.66
22.06
18.57
14.22
9.1
3.34
-2.84
-9.17
-15.38
-21.28
-26.78
-31.97
-37.14
-42.81
-49.55
-57.76
-67.35
-77.52
-86.67
-92.77
-93.81
-88.55
-76.86
-59.85
-39.5
-18.11
2.36
20.57
35.82
47.89
56.71
62.25
64.52
63.73
60.4
55.34
49.54
43.86
38.82
34.6
31.01
27.81
24.88
22.29
20.26
18.98
18.4
18.21
17.86
16.76
14.48
10.9
6.27
1.07
-4.14
-8.94
-13.19
-17.08
-21.1
-25.89
-32.1
-40.08
-49.59
-59.6
-68.3
-73.49
-73.24
-66.58
-53.84
-36.63
-17.3
1.76
18.73
32.64
43.24
50.68
55.18
56.96
56.13
52.94
47.84
41.48
34.7
28.25
22.67
18.18
14.71
12.09
10.13
8.79
8.01
7.69
7.51
7.0
5.57
2.82
-1.36
-6.71
-12.69
-18.71
-24.36
-29.51
-34.42
-39.66
-45.91
-53.72
-63.12
-73.39
-82.94
-89.61
-91.26
-86.43
-74.89
-57.75
-37.08
-15.37
5.26
23.33
38.12
49.42
57.35
62.11
63.96
63.21
60.33
55.89
50.56
44.98
39.71
35.05
31.14
27.92
25.28
23.15
21.54
20.42
19.67
18.98
17.84
15.73
12.33
7.59
1.81
-4.47
-10.77
-16.78
-22.45
-27.97
-33.64
-39.81
-46.82
-55.01
-64.52
-74.96
-85.24
-93.5
-97.48
-95.24
-85.87
-69.88
-49.18
-26.33
-3.89
16.26
33.15
46.48
56.35
62.97
66.54
67.35
65.86
62.69
58.55
54.08
49.67
45.5
41.5
37.59
33.76
30.16
27.07
24.73
23.21
22.27
21.4
20.0
17.56
13.89
9.09
3.56
-2.26
-8.01
-13.55
-18.93
-24.33
-29.98
-36.14
-43.13
-51.21
-60.47
-70.53
-80.35
-88.21
-92.07
-90.14
-81.52
-66.6
-46.93
-24.79
-2.56
17.89
35.36
49.36
59.87
67.02
71.05
72.28
71.12
68.09
63.79
58.74
53.34
47.84
42.38
37.08
32.08
27.58
23.77
20.76
18.5
16.71
14.95
12.7
9.58
5.45
0.54
-4.63
-9.45
-13.46
-16.54
-18.99
-21.36
-24.37
-28.64
-34.56
-42.1
-50.66
-59.01
-65.36
-67.76
-64.65
-55.39
-40.58
-21.92
-1.64
18.09
35.66
50.25
61.61
69.77
74.85
76.92
76.21
73.18
68.65
63.61
58.97
55.29
52.7
50.95
49.69
48.68
47.93
47.62
47.85
48.46
49.0
48.9
47.69
45.29
42.08
38.7
35.78
33.72
32.46
31.62
30.67
29.19
26.99
24.16
20.96
17.66
14.5
11.58
8.87
6.27
3.64
0.9
-1.88
-4.53
-6.84
-8.67
-10.02
-11.08
-12.16
-13.51
-15.24
-17.29
-19.55
-21.89
-24.32
-26.93
-29.81
-33.01
-36.44
-39.96
-43.48
-46.97
-50.54
-54.31
-58.45
-63.03
-68.05
-73.41
-78.94
-84.43
-89.67
-94.63
-99.55
-104.99
-111.57
-119.55
-128.34
-136.26
-140.8
-139.39
-130.36
-113.64
-90.82
-64.62
-38.0
-13.36
7.82
24.97
38.06
47.28
52.93
55.44
55.36
53.34
49.99
45.77
40.98
35.76
30.29
24.88
19.96
16.02
13.39
12.05
11.58
11.27
10.36
8.36
5.2
1.22
-3.08
-7.27
-11.24
-15.26
-19.81
-25.49
-32.75
-41.72
-51.99
-62.5
-71.6
-77.36
-78.01
-72.51
-60.95
-44.44
-24.91
-4.55
14.69
31.41
44.86
54.82
61.43
64.98
65.91
64.68
61.75
57.65
52.81
47.63
42.38
37.23
32.32
27.8
23.88
20.7
18.33
16.59
15.14
13.5
11.22
8.02
3.79
-1.36
-7.16
-13.33
-19.77
-26.66
-34.43
-43.49
-53.73
-64.13
-72.73
-77.07
-75.02
-65.67
-49.68
-29.21
-7.17
13.66
31.32
44.9
54.45
60.58
63.99
65.24
64.65
62.35
58.43
53.08
46.68
39.79
33.08
27.18
22.52
19.3
17.36
16.31
15.58
14.5
12.57
9.56
5.56
0.94
-3.89
-8.65
-13.4
-18.49
-24.49
-31.97
-41.13
-51.66
-62.52
-72.09
-78.43
-79.75
-74.99
-64.13
-48.29
-29.38
-9.6
9.08
25.24
38.14
47.56
53.63
56.62
56.86
54.72
50.67
45.28
39.18
33.03
27.43
22.82
19.38
17.02
15.44
14.21
13.01
11.61
9.95
8.06
5.96
3.56
0.7
-2.86
-7.31
-12.74
-19.18
-26.63
-35.02
-44.14
-53.38
-61.59
-67.12
-68.25
-63.63
-52.9
-36.9
-17.53
2.74
21.58
37.26
48.89
56.4
60.25
61.16
59.88
57.0
52.97
48.12
42.7
36.97
31.21
25.77
21.06
17.44
15.13
14.12
14.12
14.51
14.48
13.19
10.01
4.78
-2.1
-9.77
-17.22
-23.71
-29.08
-33.86
-39.18
-46.16
-55.42
-66.48
-77.68
-86.46
-90.2
-87.08
-76.74
-60.4
-40.36
-19.24
0.79
18.46
33.34
45.46
54.92
61.67
65.58
66.65
65.21
61.92
57.63
53.14
48.95
45.25
41.93
38.8
35.71
32.68
29.93
27.71
26.21
25.38
24.85
23.97
22.04
18.46
13.03
6.04
-1.76
-9.51
-16.46
-22.29
-27.25
-32.04
-37.61
-44.75
-53.85
-64.62
-75.99
-86.19
-93.02
-94.41
-89.08
-76.95
-59.25
-38.2
-16.36
4.03
21.5
35.41
45.85
53.2
57.93
60.45
61.09
60.15
57.95
54.81
51.02
46.91
42.79
38.9
35.38
32.33
29.83
27.92
26.59
25.66
24.79
23.49
21.29
17.83
12.99
7.01
0.34
-6.44
-12.81
-18.49
-23.5
-28.22
-33.32
-39.57
-47.59
-57.44
-68.44
-79.04
-87.1
-90.46
-87.52
-77.88
-62.48
-43.32
-22.83
-3.16
14.24
28.69
40.06
48.47
54.01
56.73
56.86
54.84
51.44
47.45
43.54
40.04
36.93
34.05
31.27
28.6
26.23
24.39
23.2
22.57
22.22
21.69
20.51
18.28
14.72
9.78
3.65
-3.15
-9.99
-16.29
-21.78
-26.63
-31.4
-36.89
-43.78
-52.36
-62.33
-72.7
-81.94
-88.27
-90.09
-86.36
-76.93
-62.58
-44.76
-25.29
-5.96
11.77
26.79
38.38
46.19
50.31
51.22
49.77
46.95
43.65
40.46
37.56
34.89
32.29
29.68
27.17
24.99
23.4
22.58
22.47
22.75
22.8
21.89
19.34
14.82
8.55
1.27
-6.0
-12.36
-17.45
-21.66
-25.98
-31.67
-39.67
-50.11
-62.06
-73.64
-82.45
-86.24
-83.56
-74.22
-59.29
-40.79
-21.0
-1.89
15.24
29.84
41.77
51.07
57.71
61.62
62.81
61.53
58.39
54.13
49.57
45.31
41.72
38.91
36.81
35.29
34.24
33.49
32.86
32.1
30.95
29.25
26.9
23.94
20.4
16.27
11.45
5.85
-0.53
-7.47
-14.62
-21.49
-27.74
-33.31
-38.47
-43.73
-49.68
-56.76
-65.17
-74.83
-85.26
-95.5
-104.09
-109.15
-108.91
-102.04
-88.35
-68.91
-45.9
-22.05
0.13
18.91
33.51
44.02
51.03
55.3
57.58
58.43
58.23
57.24
55.57
53.3
50.46
47.11
43.45
39.87
36.85
34.83
34.04
34.33
35.15
35.69
35.17
33.11
29.5
24.8
19.58
14.33
9.23
4.1
-1.38
-7.5
-14.29
-21.48
-28.6
-35.21
-41.19
-46.88
-53.06
-60.62
-70.08
-81.1
-92.18
-100.91
-104.58
-101.13
-89.91
-71.96
-49.73
-26.19
-4.03
15.01
30.27
41.95
50.62
56.81
60.87
62.99
63.27
61.87
59.05
55.18
50.76
46.37
42.57
39.81
38.29
37.96
38.48
39.31
39.89
39.72
38.55
36.38
33.38
29.8
25.78
21.29
16.11
10.13
3.31
-4.05
-11.5
-18.61
-25.12
-31.03
-36.56
-42.12
-48.09
-54.94
-63.04
-72.53
-82.99
-93.26
-101.48
-105.41
-103.2
-93.98
-78.29
-57.96
-35.48
-13.34
6.61
23.38
36.7
46.74
53.73
57.8
59.06
57.76
54.47
50.02
45.32
41.08
37.6
34.74
32.15
29.6
27.16
25.2
24.21
24.35
25.34
26.43
26.67
25.26
21.83
16.56
10.02
3.0
-3.77
-9.8
-14.92
-19.32
-23.47
-28.05
-33.7
-40.95
-49.89
-59.98
-69.97
-78.06
-82.28
-81.06
-73.72
-60.7
-43.46
-24.04
-4.47
13.68
29.41
42.2
51.77
57.91
60.54
59.81
56.31
51.03
45.13
39.61
35.05
31.5
28.64
26.09
23.67
21.45
19.71
18.68
18.38
18.45
18.28
17.16
14.58
10.34
4.63
-2.03
-9.03
-15.77
-21.94
-27.55
-32.92
-38.58
-45.12
-53.07
-62.67
-73.64
-84.93
-94.73
-100.81
-101.05
-94.2
-80.3
-60.74
-37.87
-14.31
7.66
26.57
41.76
53.16
61.07
65.84
67.83
67.38
64.89
60.88
56.0
50.96
46.34
42.45
39.32
36.78
34.64
32.8
31.23
29.97
29.0
28.06
26.84
24.95
22.08
18.12
13.04
6.97
0.13
-7.17
-14.52
-21.53
-27.94
-33.7
-39.14
-44.92
-51.8
-60.41
-70.7
-81.74
-91.65
-98.01
-98.54
-91.82
-77.89
-58.21
-35.28
-11.85
9.77
28.21
42.97
54.19
62.21
67.34
69.82
69.82
67.72
64.02
59.36
54.3
49.25
44.48
40.15
36.44
33.5
31.45
30.27
29.73
29.48
29.08
28.19
26.64
24.32
21.2
17.14
12.02
5.83
-1.17
-8.53
-15.62
-21.95
-27.4
-32.26
-37.24
-43.19
-50.81
-60.35
-71.41
-82.85
-92.81
-99.08
-99.56
-92.94
-79.14
-59.47
-36.31
-12.49
9.45
27.84
42.01
52.16
58.89
62.84
64.51
64.17
62.12
58.72
54.47
49.95
45.67
41.96
38.87
36.34
34.21
32.4
30.93
29.8
29.01
28.45
27.91
27.01
25.3
22.34
17.87
11.96
5.02
-2.25
-9.13
-15.14
-20.25
-24.85
-29.62
-35.26
-42.34
-51.07
-61.14
-71.53
-80.58
-86.12
-86.05
-78.94
-64.67
-44.66
-21.58
1.32
21.19
36.26
46.13
51.45
53.39
53.04
51.09
47.91
43.71
38.84
33.83
29.23
25.33
22.0
18.77
15.21
11.17
7.03
3.5
1.39
1.1
2.37
4.32
5.7
5.44
3.03
-1.31
-6.77
-12.33
-17.24
-21.23
-24.61
-28.0
-32.11
-37.51
-44.53
-53.19
-63.06
-73.07
-81.49
-86.19
-85.21
-77.45
-63.15
-43.99
-22.48
-1.27
17.67
33.32
45.54
54.59
60.75
64.12
64.73
62.74
58.57
52.96
46.79
40.87
35.71
31.48
28.11
25.47
23.48
22.18
21.64
21.84
22.41
22.74
22.06
19.79
15.79
10.42
4.41
-1.51
-6.99
-12.21
-17.87
-24.89
-34.06
-45.71
-59.41
-73.87
-87.03
-96.41
-99.77
-95.7
-84.27
-67.01
-46.52
-25.61
-6.57
9.31
21.74
30.99
37.43
41.3
42.69
41.77
38.94
34.85
30.26
25.87
22.2
19.48
17.71
16.68
16.08
15.6
15.06
14.47
13.94
13.56
13.2
12.44
10.68
7.42
2.44
-3.98
-11.22
-18.45
-25.05
-30.76
-35.83
-40.97
-47.11
-55.1
-65.25
-76.99
-88.76
-98.24
-102.97
-100.99
-91.56
-75.33
-54.17
-30.59
-7.1
14.34
32.54
47.04
57.91
65.4
69.86
71.6
70.96
68.35
64.29
59.41
54.32
49.57
45.56
42.47
40.34
39.04
38.38
38.06
37.83
37.37
36.45
34.91
32.59
29.4
25.24
20.11
14.08
7.37
0.23
-7.05
-14.24
-21.18
-27.78
-34.04
-40.11
-46.35
-53.32
-61.64
-71.64
-82.88
-93.93
-102.53
-106.1
-102.62
-91.35
-73.14
-50.24
-25.61
-2.0
18.69
35.61
48.78
58.62
65.59
69.93
71.79
71.32
68.89
65.07
60.55
55.92
51.49
47.45
43.85
40.88
38.76
37.63
37.4
37.68
37.87
37.35
35.8
33.25
30.01
26.41
22.56
18.28
13.22
7.16
0.17
-7.36
-14.85
-21.79
-27.94
-33.44
-38.74
-44.5
-51.45
-60.1
-70.57
-82.25
-93.64
-102.51
-106.43
-103.41
-92.71
-75.07
-52.57
-28.0
-4.05
17.32
35.07
48.95
59.19
66.09
69.94
71.03
69.73
66.6
62.32
57.61
53.04
48.94
45.45
42.58
40.35
38.8
37.96
37.77
37.99
38.25
38.13
37.27
35.47
32.71
29.08
24.74
19.82
14.46
8.75
2.71
-3.71
-10.57
-17.83
-25.31
-32.67
-39.59
-46.01
-52.25
-59.05
-67.23
-77.08
-87.97
-98.04
-104.69
-105.36
-98.45
-84.01
-63.66
-40.13
-16.31
5.51
23.97
38.58
49.4
56.68
60.72
61.88
60.66
57.72
53.71
49.21
44.65
40.29
36.27
32.73
29.79
27.53
25.96
25.07
24.72
24.69
24.68
24.24
22.88
20.21
16.03
10.5
4.09
-2.55
-8.82
-14.36
-19.22
-23.83
-28.88
-35.13
-43.12
-52.92
-63.82
-74.31
-82.29
-85.59
-82.65
-73.01
-57.52
-38.06
-16.99
3.44
21.52
36.18
46.95
53.83
57.12
57.4
55.45
52.07
48.0
43.77
39.66
35.75
32.0
28.35
24.87
21.79
19.38
17.93
17.48
17.73
18.01
17.4
15.17
10.99
5.11
-1.71
-8.59
-14.87
-20.42
-25.59
-31.05
-37.48
-45.35
-54.76
-65.32
-76.13
-85.69
-92.14
-93.64
-88.89
-77.68
-61.04
-40.97
-19.79
0.49
18.52
33.66
45.65
54.34
59.64
61.56
60.52
57.34
53.08
48.65
44.55
40.81
37.1
33.21
29.23
25.61
22.97
21.76
21.92
22.95
23.91
23.81
21.92
17.94
12.17
5.26
-1.92
-8.63
-14.49
-19.59
-24.44
-29.77
-36.3
-44.54
-54.66
-66.29
-78.36
-89.16
-96.47
-98.16
-92.79
-80.19
-61.6
-39.34
-16.16
5.58
24.33
39.44
50.9
59.0
64.07
66.43
66.5
64.82
62.02
58.63
55.04
51.34
47.55
43.73
40.09
37.02
34.89
33.88
33.8
34.19
34.45
34.05
32.64
30.17
26.74
22.57
17.81
12.58
6.93
0.85
-5.57
-12.28
-19.12
-26.0
-32.75
-39.34
-45.87
-52.64
-60.14
-68.84
-78.82
-89.39
-98.88
-104.87
-104.86
-97.16
-81.67
-60.01
-35.08
-10.21
11.85
29.55
42.62
51.68
57.7
61.47
63.43
63.69
62.24
59.17
54.8
49.7
44.56
39.98
36.34
33.72
32.03
31.06
30.56
30.29
30.01
29.46
28.36
26.46
23.57
19.6
14.55
8.54
1.76
-5.49
-12.8
-19.74
-26.05
-31.78
-37.39
-43.68
-51.44
-61.0
-71.78
-82.14
-89.65
-91.81
-86.86
-74.49
-55.97
-33.75
-10.78
10.44
28.26
42.13
52.29
59.33
63.82
66.15
66.54
65.09
62.0
57.6
52.43
47.11
42.28
38.38
35.69
34.22
33.76
33.91
34.14
33.93
32.88
30.91
28.17
24.96
21.55
17.95
13.9
8.97
2.92
-4.15
-11.78
-19.25
-26.01
-31.84
-37.0
-42.11
-47.89
-54.95
-63.55
-73.41
-83.55
-92.42
-98.06
-98.56
-92.75
-80.55
-63.16
-42.62
-21.31
-1.22
16.31
30.7
41.85
49.83
54.69
56.44
55.27
51.67
46.55
40.95
35.86
31.86
28.94
26.64
24.35
21.78
19.06
16.82
15.77
16.23
17.86
19.66
20.36
18.9
14.88
8.73
1.5
-5.54
-11.47
-15.97
-19.47
-22.92
-27.48
-34.02
-42.84
-53.35
-64.13
-73.21
-78.48
-78.28
-71.87
-59.64
-42.99
-23.96
-4.61
13.37
28.84
41.28
50.52
56.53
59.39
59.22
56.38
51.49
45.5
39.43
34.12
30.0
27.01
24.71
22.55
20.27
17.92
15.93
14.71
14.3
14.31
13.89
12.16
8.53
2.95
-4.06
-11.63
-18.92
-25.37
-30.92
-36.0
-41.28
-47.49
-55.18
-64.55
-75.21
-86.07
-95.43
-101.21
-101.46
-94.89
-81.43
-62.29
-39.73
-16.4
5.3
23.75
38.27
48.84
55.88
59.89
61.37
60.82
58.66
55.36
51.33
46.99
42.61
38.48
34.8
31.74
29.32
27.44
25.96
24.69
23.54
22.41
21.16
19.55
17.21
13.72
8.84
2.63
-4.5
-11.85
-18.73
-24.76
-30.05
-35.17
-41.03
-48.52
-58.11
-69.49
-81.37
-91.65
-97.86
-97.85
-90.48
-76.01
-56.13
-33.44
-10.74
9.73
26.63
39.61
48.99
55.39
59.36
61.27
61.3
59.59
56.38
52.08
47.24
42.49
38.37
35.26
33.23
32.03
31.27
30.49
29.45
28.18
26.86
25.64
24.43
22.77
20.05
15.7
9.53
1.93
-6.3
-14.24
-21.15
-26.85
-31.64
-36.29
-41.69
-48.66
-57.65
-68.55
-80.47
-91.76
-100.2
-103.44
-99.7
-88.41
-70.5
-48.19
-24.42
-1.94
17.4
32.81
44.51
53.11
59.19
62.96
64.41
63.4
60.14
55.24
49.62
44.32
40.13
37.36
35.86
35.19
34.79
34.29
33.52
32.54
31.47
30.29
28.85
26.88
24.05
20.19
15.31
9.6
3.35
-3.19
-9.83
-16.46
-22.94
-29.18
-35.18
-41.13
-47.45
-54.73
-63.38
-73.35
-83.78
-92.97
-98.78
-99.25
-93.25
-80.82
-63.18
-42.29
-20.29
1.0
20.26
36.62
49.51
58.58
63.77
65.41
64.27
61.4
57.78
54.11
50.61
47.13
43.42
39.38
35.25
31.51
28.71
27.15
26.78
27.19
27.71
27.69
26.59
24.08
20.07
14.71
8.3
1.3
-5.79
-12.53
-18.69
-24.35
-29.85
-35.74
-42.58
-50.78
-60.38
-70.85
-80.99
-89.05
-93.13
-91.61
-83.69
-69.73
-51.11
-29.93
-8.45
11.41
28.31
41.47
50.7
56.08
58.01
57.08
54.07
49.75
44.83
39.83
35.0
30.4
26.05
22.04
18.66
16.31
15.27
15.51
16.58
17.68
17.92
16.65
13.67
9.29
4.14
-1.07
-5.87
-10.14
-14.22
-18.71
-24.39
-31.89
-41.42
-52.53
-63.86
-73.36
-78.77
-78.22
-70.87
-57.3
-39.23
-19.04
0.97
19.1
34.42
46.54
55.34
60.74
62.76
61.62
57.89
52.44
46.25
40.18
34.68
29.86
25.58
21.68
18.15
15.18
13.06
11.93
11.65
11.68
11.2
9.45
5.96
0.76
-5.65
-12.56
-19.31
-25.51
-31.17
-36.6
-42.37
-49.12
-57.38
-67.29
-78.26
-88.84
-96.81
-99.73
-95.75
-84.33
-66.46
-44.42
-21.03
1.22
20.63
36.41
48.44
56.91
62.03
64.1
63.55
60.94
56.99
52.35
47.53
42.85
38.49
34.52
31.06
28.27
26.24
25.05
24.62
24.68
24.72
24.12
22.3
18.84
13.75
7.42
0.51
-6.34
-12.75
-18.71
-24.52
-30.59
-37.39
-45.26
-54.46
-64.98
-76.33
-87.33
-96.07
-100.22
-97.77
-87.81
-70.92
-49.11
-25.27
-2.24
17.85
33.95
45.96
54.37
59.84
62.86
63.74
62.66
59.86
55.76
50.92
45.95
41.38
37.48
34.3
31.74
29.69
28.12
27.08
26.54
26.31
25.94
24.83
22.45
18.53
13.19
6.86
0.12
-6.54
-12.95
-19.18
-25.45
-32.07
-39.38
-47.7
-57.25
-67.85
-78.67
-88.09
-93.86
-93.79
-86.49
-72.03
-52.04
-29.22
-6.46
13.91
30.59
43.34
52.53
58.72
62.37
63.72
62.97
60.39
56.44
51.74
46.93
42.49
38.68
35.53
32.96
30.88
29.31
28.33
27.96
28.06
28.22
27.82
26.26
23.08
18.2
11.9
4.77
-2.6
-9.68
-16.26
-22.39
-28.34
-34.56
-41.55
-49.72
-59.25
-69.85
-80.5
-89.44
-94.45
-93.49
-85.33
-70.19
-49.77
-26.77
-4.09
16.03
32.42
44.95
54.11
60.47
64.33
65.72
64.64
61.31
56.3
50.46
44.64
39.47
35.21
31.84
29.21
27.18
25.72
24.91
24.73
24.97
25.17
24.66
22.81
19.24
13.95
7.42
0.39
-6.42
-12.54
-17.92
-22.9
-27.99
-33.73
-40.57
-48.78
-58.35
-68.72
-78.65
-86.26
-89.4
-86.33
-76.37
-60.3
-40.15
-18.6
1.87
19.55
33.71
44.31
51.67
56.04
57.6
56.54
53.26
48.5
43.14
37.99
33.56
29.93
26.91
24.29
22.0
20.2
19.1
18.76
18.93
19.04
18.32
16.14
12.2
6.69
0.18
-6.54
-12.73
-18.09
-22.83
-27.76
-33.93
-42.14
-52.52
-64.17
-75.23
-83.35
-86.34
-82.85
-72.79
-57.3
-38.3
-17.99
1.73
19.45
34.37
46.05
54.33
59.21
60.87
59.73
56.4
51.61
46.08
40.45
35.2
30.59
26.72
23.57
21.06
19.12
17.76
16.87
16.32
15.74
14.63
12.46
8.84
3.68
-2.74
-9.79
-16.81
-23.27
-29.01
-34.38
-40.15
-47.31
-56.59
-68.03
-80.5
-91.84
-99.26
-100.25
-93.44
-79.13
-59.19
-36.4
-13.64
6.97
24.26
38.04
48.54
56.12
61.02
63.41
63.47
61.56
58.18
53.85
49.1
44.32
39.81
35.8
32.48
29.99
28.34
27.42
26.93
26.47
25.63
24.02
21.35
17.46
12.33
6.11
-0.83
-8.08
-15.19
-21.82
-27.95
-33.88
-40.26
-47.86
-57.25
-68.4
-80.35
-91.17
-98.35
-99.51
-93.2
-79.48
-59.91
-37.12
-13.95
7.3
25.29
39.58
50.33
57.93
62.71
64.97
65.01
63.23
60.12
56.1
51.55
46.79
42.1
37.78
34.14
31.46
29.81
29.05
28.84
28.67
28.08
26.67
24.18
20.47
15.54
9.53
2.74
-4.4
-11.43
-18.02
-24.09
-29.83
-35.77
-42.63
-51.02
-61.1
-72.24
-82.88
-90.72
-93.34
-88.94
-77.12
-59.01
-37.0
-13.95
7.65
26.22
41.17
52.64
61.01
66.6
69.56
70.0
68.18
64.54
59.72
54.33
48.85
43.61
38.8
34.54
31.04
28.51
27.02
26.34
25.92
25.03
22.96
19.35
14.28
8.2
1.75
-4.51
-10.28
-15.6
-20.8
-26.3
-32.56
-39.95
-48.72
-58.71
-69.21
-78.85
-85.71
-87.82
-83.7
-72.95
-56.49
-36.34
-15.02
5.16
22.55
36.31
46.29
52.67
55.83
56.19
54.3
50.82
46.48
41.91
37.5
33.36
29.39
25.53
21.92
18.93
17.0
16.38
16.87
17.73
17.94
16.56
13.14
7.94
1.78
-4.32
-9.62
-14.01
-17.98
-22.46
-28.4
-36.34
-46.16
-56.93
-67.07
-74.62
-77.74
-75.18
-66.59
-52.71
-35.1
-15.8
3.19
20.27
34.44
45.24
52.57
56.59
57.51
55.67
51.6
46.03
39.8
33.74
28.45
24.2
20.9
18.24
15.97
13.97
12.32
11.14
10.35
9.6
8.28
5.79
1.71
-3.9
-10.56
-17.53
-24.07
-29.84
-35.06
-40.5
-47.21
-55.95
-66.62
-78.0
-87.82
-93.35
-92.31
-83.74
-68.28
-48.03
-25.86
-4.42
14.38
29.7
41.54
50.24
56.2
59.61
60.64
59.47
56.55
52.46
47.8
43.05
38.45
34.08
29.98
26.29
23.29
21.24
20.2
19.83
19.49
18.35
15.76
11.46
5.71
-0.88
-7.63
-14.03
-19.88
-25.34
-30.86
-37.03
-44.43
-53.39
-63.65
-74.16
-83.09
-88.16
-87.4
-79.8
-65.72
-46.78
-25.44
-4.17
15.03
31.01
43.39
52.3
58.11
61.21
61.97
60.72
57.85
53.81
49.17
44.45
40.06
36.16
32.74
29.72
27.12
25.09
23.76
23.08
22.63
21.61
19.26
15.06
9.09
1.99
-5.33
-12.1
-17.97
-23.08
-28.02
-33.57
-40.53
-49.37
-59.99
-71.42
-81.81
-88.78
-90.0
-84.12
-71.17
-52.75
-31.44
-9.93
9.71
26.4
39.88
50.36
57.98
62.79
64.72
63.92
60.9
56.48
51.6
46.92
42.78
39.07
35.58
32.19
28.98
26.29
24.44
23.54
23.26
22.99
21.92
19.46
15.32
9.67
2.97
-4.17
-11.2
-17.77
-23.75
-29.3
-34.79
-40.76
-47.84
-56.47
-66.66
-77.61
-87.67
-94.61
-96.2
