38.77
34.8
31.58
28.53
25.21
21.62
18.2
15.64
14.47
14.67
15.55
15.89
14.45
10.45
3.99
-4.08
-12.45
-19.95
-26.03
-30.93
-35.51
-40.95
-48.24
-57.89
-69.67
-82.5
-94.58
-103.64
-107.46
-104.46
-94.21
-77.57
-56.51
-33.49
-10.85
9.68
27.17
41.32
52.21
59.98
64.81
66.87
66.45
64.08
60.42
56.18
51.99
48.14
44.71
41.53
38.48
35.53
32.92
30.93
29.78
29.36
29.22
28.69
27.02
23.73
18.66
12.16
4.84
-2.59
-9.59
-15.98
-21.92
-27.89
-34.48
-42.25
-51.58
-62.5
-74.45
-86.27
-96.15
-101.93
-101.68
-94.29
-79.94
-60.18
-37.47
-14.49
6.56
24.39
38.62
49.51
57.54
63.09
66.35
67.38
66.34
63.56
59.58
55.09
50.77
47.05
44.09
41.79
39.91
38.26
36.79
35.58
34.74
34.23
33.81
33.0
31.22
27.95
22.98
16.43
8.81
0.82
-6.89
-13.86
-20.05
-25.77
-31.6
-38.13
-45.89
-55.1
-65.68
-77.04
-88.02
-96.94
-101.81
-100.89
-93.28
-79.34
-60.58
-39.29
-17.77
2.23
19.73
34.4
46.2
55.06
60.82
63.43
63.17
60.69
56.96
52.94
49.33
46.34
43.82
41.33
38.59
35.61
32.75
30.55
29.44
29.4
29.88
29.96
28.64
25.34
20.07
13.49
6.54
0.04
-5.58
-10.5
-15.26
-20.52
-26.77
-34.22
-42.85
-52.47
-62.73
-72.93
-81.93
-88.16
-89.99
-86.21
-76.53
-61.65
-43.13
-22.96
-3.05
15.07
30.32
42.07
50.05
54.32
55.29
53.73
50.55
46.59
42.43
38.31
34.2
30.03
25.82
21.86
18.67
16.74
16.27
17.02
18.22
18.85
17.99
15.17
10.54
4.78
-1.22
-6.79
-11.7
-16.24
-21.03
-26.77
-33.96
-42.7
-52.51
-62.34
-70.6
-75.43
-75.24
-69.15
-57.31
-41.0
-22.19
-3.08
14.48
29.27
40.72
48.76
53.59
55.59
55.18
52.89
49.22
44.71
39.81
34.9
30.17
25.75
21.71
18.15
15.28
13.29
12.22
11.87
11.7
10.92
8.82
5.01
-0.43
-6.97
-13.91
-20.6
-26.67
-32.17
-37.54
-43.48
-50.75
-59.91
-70.92
-82.88
-94.0
-101.93
-104.38
-99.87
-88.17
-70.45
-48.88
-25.99
-4.1
15.08
30.66
42.43
50.76
56.24
59.53
61.12
61.31
60.18
57.78
54.33
50.26
46.2
42.67
39.94
37.96
36.42
34.98
33.45
31.77
30.01
28.17
26.08
23.34
19.56
14.46
8.09
0.86
-6.62
-13.82
-20.43
-26.56
-32.69
-39.51
-47.7
-57.63
-69.11
-81.2
-92.19
-99.83
-101.91
-96.85
-84.29
-65.33
-42.22
-17.75
5.53
25.95
42.84
56.34
67.05
75.5
81.94
86.32
88.44
88.15
85.58
81.15
75.55
69.53
63.68
58.34
53.63
49.51
45.98
43.1
40.99
39.64
38.79
37.91
36.27
33.19
28.3
21.72
14.08
6.19
-1.2
-7.67
-13.32
-18.62
-24.24
-30.81
-38.74
-48.16
-58.8
-69.91
-80.17
-87.79
-90.84
-87.81
-78.17
-62.6
-42.92
-21.55
-0.86
17.4
32.31
43.67
51.73
56.8
59.17
59.09
56.87
53.01
48.17
43.03
38.18
33.91
30.25
27.08
24.26
21.82
19.91
18.74
18.39
18.66
19.08
18.95
17.61
14.67
10.17
4.59
-1.34
-6.92
-11.77
-15.95
-19.91
-24.24
-29.49
-35.95
-43.64
-52.3
-61.38
-69.98
-76.8
-80.34
-79.17
-72.41
-60.11
-43.32
-23.99
-4.37
13.48
28.1
38.84
45.72
49.23
49.98
48.61
45.61
41.43
36.52
31.35
26.36
21.93
18.29
15.5
13.58
12.47
12.15
12.6
13.61
14.79
15.53
15.11
13.0
9.05
3.57
-2.75
-9.03
-14.6
-19.16
-22.91
-26.43
-30.5
-35.82
-42.86
-51.58
-61.27
-70.57
-77.52
-80.0
-76.32
-65.82
-49.18
-28.41
-6.29
14.41
31.54
44.12
52.24
56.66
58.4
58.21
56.45
53.14
48.28
42.08
35.12
28.28
22.46
18.29
15.93
14.99
14.82
14.74
14.29
13.31
11.87
10.02
7.75
4.85
1.06
-3.79
-9.63
-16.14
-22.79
-29.1
-34.78
-39.86
-44.72
-49.94
-56.15
-63.79
-72.88
-82.81
-92.31
-99.5
-102.28
-98.94
-88.73
-72.25
-51.4
-28.83
-7.18
11.62
26.7
38.12
46.39
52.0
55.21
56.08
54.75
51.62
47.37
42.85
38.72
35.29
32.48
30.01
27.62
25.28
23.23
21.84
21.37
21.74
22.47
22.84
22.11
19.76
15.68
10.12
3.58
-3.31
-10.1
-16.51
-22.46
-28.08
-33.57
-39.12
-44.93
-51.28
-58.51
-66.99
-76.73
-87.11
-96.65
-103.16
-104.32
-98.5
-85.4
-66.29
-43.67
-20.46
0.85
18.68
32.52
42.62
49.62
54.13
56.59
57.26
56.33
54.02
50.63
46.52
42.15
37.96
34.36
31.66
29.99
29.34
29.47
30.0
30.52
30.66
30.16
28.91
26.88
24.04
20.31
15.58
9.78
3.04
-4.29
-11.74
-18.85
-25.35
-31.3
-37.07
-43.23
-50.4
-59.04
-69.22
-80.49
-91.67
-100.99
-106.41
-106.13
-99.16
-85.65
-66.96
-45.22
-22.79
-1.73
16.48
31.11
42.0
49.38
53.71
55.5
55.22
53.27
50.0
45.78
41.04
36.27
31.91
28.29
25.55
23.65
22.51
22.06
22.23
22.85
23.66
24.09
23.52
21.38
17.4
11.78
5.11
-1.81
-8.28
-13.95
-19.0
-23.96
-29.52
-36.26
-44.4
-53.84
-64.08
-74.33
-83.42
-89.91
-92.2
-88.94
-79.4
-63.89
-43.81
-21.38
0.83
20.61
36.5
47.98
55.27
59.02
60.0
58.85
56.06
52.03
47.14
41.77
36.32
31.11
26.36
22.3
19.1
16.95
15.98
16.08
16.84
17.55
17.3
15.34
11.31
5.4
-1.7
-8.99
-15.69
-21.48
-26.73
-32.33
-39.36
-48.58
-60.0
-72.57
-84.32
-92.72
-95.4
-90.79
-78.67
-60.21
-37.69
-13.84
8.83
28.5
44.16
55.55
62.93
66.81
67.86
66.78
64.2
60.61
56.3
51.42
46.15
40.74
35.51
30.9
27.25
24.72
23.28
22.69
22.53
22.34
21.64
19.96
16.99
12.61
6.96
0.37
-6.68
-13.78
-20.64
-27.21
-33.71
-40.64
-48.61
-58.16
-69.36
-81.45
-92.72
-100.69
-102.78
-97.18
-83.5
-63.02
-38.39
-12.78
11.02
31.12
46.81
58.2
65.88
70.5
72.58
72.49
70.57
67.15
62.61
57.35
51.79
46.3
41.28
37.04
33.83
31.75
30.71
30.42
30.46
30.29
29.38
27.27
23.64
18.4
11.75
4.14
-3.87
-11.74
-19.12
-25.99
-32.74
-40.1
-48.92
-59.68
-72.01
-84.44
-94.46
-99.22
-96.45
-85.35
-66.93
-43.67
-18.7
5.14
25.94
42.85
55.77
64.96
70.68
73.16
72.69
69.78
65.19
59.79
54.41
49.63
45.65
42.37
39.54
36.92
34.49
32.35
30.67
29.56
28.83
28.04
26.54
23.76
19.34
13.36
6.27
-1.27
-8.59
-15.25
-21.21
-26.71
-32.35
-38.82
-46.81
-56.68
-68.15
-80.02
-90.24
-96.28
-95.87
-87.88
-72.7
-52.24
-29.24
-6.48
13.99
31.04
44.3
53.86
59.9
62.7
62.62
60.27
56.37
51.63
46.58
41.48
36.44
31.52
26.9
22.95
20.05
18.44
18.03
18.33
18.57
17.98
16.01
12.53
7.84
2.47
-3.08
-8.5
-13.77
-19.12
-24.93
-31.65
-39.6
-48.71
-58.34
-67.15
-73.2
-74.44
-69.34
-57.53
-40.06
-19.17
2.34
21.87
37.65
49.0
56.11
59.69
60.58
59.42
56.6
52.34
46.81
40.29
33.31
26.52
20.63
16.19
13.45
12.26
12.13
12.38
12.34
11.51
9.61
6.57
2.5
-2.4
-7.88
-13.67
-19.63
-25.78
-32.4
-39.95
-48.94
-59.45
-70.87
-81.72
-89.87
-93.07
-89.8
-79.59
-63.37
-43.05
-21.06
0.37
19.5
35.22
46.97
54.56
58.23
58.61
56.65
53.45
49.93
46.56
43.27
39.65
35.24
30.03
24.54
19.67
16.32
14.9
15.07
15.84
15.96
14.34
10.61
5.07
-1.41
-7.86
-13.63
-18.68
-23.54
-29.12
-36.36
-45.81
-57.31
-69.87
-81.6
-90.21
-93.44
-89.8
-79.0
-62.16
-41.45
-19.49
1.38
19.57
34.33
45.56
53.43
58.19
60.02
59.25
56.36
52.05
47.11
42.19
37.66
33.55
29.77
26.24
23.07
20.58
19.09
18.67
18.93
19.07
18.11
15.33
10.51
4.1
-2.99
-9.82
-15.76
-20.84
-25.69
-31.32
-38.68
-48.19
-59.38
-70.84
-80.41
-85.72
-84.88
-76.99
-62.55
-43.23
-21.5
0.15
19.67
35.79
48.07
56.59
61.78
64.15
64.21
62.49
59.5
55.68
51.45
47.13
42.97
39.11
35.61
32.5
29.8
27.59
25.94
24.9
24.27
23.56
22.08
19.14
14.38
7.95
0.53
-6.99
-13.89
-19.89
-25.29
-30.84
-37.41
-45.67
-55.72
-66.93
-77.82
-86.38
-90.43
-88.33
-79.45
-64.43
-45.03
-23.62
-2.53
16.38
31.95
43.64
51.41
55.52
56.47
54.96
51.74
47.52
42.83
37.97
33.15
28.51
24.27
20.77
18.28
16.89
16.45
16.56
16.69
16.38
15.26
13.13
9.93
5.73
0.7
-4.91
-10.76
-16.57
-22.28
-28.18
-34.82
-42.72
-51.91
-61.51
-69.71
-74.19
-72.88
-64.78
-50.48
-31.89
-11.7
7.6
24.28
37.58
47.5
54.28
58.18
59.33
57.92
54.29
49.04
42.92
36.66
30.88
25.96
22.14
19.48
17.9
17.15
16.84
16.47
15.56
13.68
10.61
6.39
1.23
-4.52
-10.53
-16.55
-22.51
-28.45
-34.55
-41.16
-48.65
-57.37
-67.24
-77.45
-86.44
-92.03
-92.07
-85.19
-71.38
-52.11
-29.89
-7.59
12.42
28.71
40.86
49.23
54.48
57.28
58.1
57.23
54.88
51.33
46.99
42.3
37.72
33.59
30.11
27.37
25.41
24.23
23.76
23.75
23.71
23.01
20.99
17.25
11.83
5.18
-1.95
-8.82
-14.98
-20.4
-25.47
-30.88
-37.4
-45.6
-55.59
-66.75
-77.63
-86.17
-90.19
-87.99
-78.98
-63.89
-44.49
-23.18
-2.29
16.4
31.82
43.55
51.71
56.65
58.89
59.06
57.72
55.4
52.46
49.18
45.72
42.27
38.94
35.89
33.24
31.03
29.3
28.0
27.1
26.48
25.9
24.93
23.0
19.58
14.38
7.56
-0.23
-8.05
-15.04
-20.75
-25.37
-29.75
-34.95
-41.94
-51.17
-62.29
-74.07
-84.66
-91.89
-93.86
-89.42
-78.46
-62.01
-41.97
-20.61
-0.11
17.88
32.41
43.18
50.41
54.64
56.53
56.7
55.62
53.63
50.89
47.57
43.9
40.2
36.85
34.17
32.34
31.31
30.8
30.42
29.84
28.81
27.17
24.75
21.34
16.74
10.92
4.15
-2.98
-9.74
-15.59
-20.46
-24.8
-29.43
-35.12
-42.38
-51.23
-61.18
-71.23
-80.0
-85.87
-87.3
-83.2
-73.28
-58.3
-39.81
-19.89
-0.55
16.65
30.73
41.28
48.31
52.07
52.98
51.59
48.5
44.3
39.6
34.9
30.61
26.95
23.95
21.51
19.49
17.81
16.52
15.73
15.4
15.26
14.71
13.05
9.73
4.67
-1.7
-8.57
-15.09
-20.78
-25.65
-30.37
-35.89
-43.04
-52.03
-62.1
-71.47
-77.83
-78.95
-73.48
-61.48
-44.4
-24.6
-4.6
13.56
28.8
40.74
49.48
55.17
57.88
57.67
54.79
49.9
43.87
37.7
32.14
27.53
23.86
20.85
18.27
16.0
14.1
12.66
11.7
11.02
10.16
8.6
5.86
1.71
-3.74
-10.11
-16.88
-23.58
-29.95
-36.07
-42.34
-49.36
-57.67
-67.38
-77.83
-87.43
-93.91
-94.93
-88.93
-75.72
-56.69
-34.4
-11.8
8.6
25.26
37.75
46.42
52.0
55.19
56.48
56.15
54.39
51.41
47.51
43.07
38.55
34.32
30.67
27.76
25.65
24.32
23.65
23.34
23.0
22.14
20.36
17.41
13.27
8.15
2.39
-3.67
-9.77
-15.76
-21.65
-27.68
-34.31
-42.18
-51.73
-62.82
-74.36
-84.29
-90.09
-89.53
-81.59
-66.8
-47.21
-25.56
-4.45
14.29
29.84
42.04
51.05
57.06
60.22
60.8
59.31
56.49
53.03
49.47
45.99
42.53
38.98
35.37
31.97
29.13
27.21
26.3
26.2
26.42
26.32
25.2
22.6
18.32
12.53
5.72
-1.49
-8.5
-14.99
-20.98
-26.76
-32.82
-39.64
-47.67
-57.09
-67.64
-78.39
-87.68
-93.34
-93.26
-86.17
-72.17
-52.87
-30.9
-9.07
10.44
26.47
38.82
47.85
53.97
57.45
58.44
57.15
53.99
49.67
44.91
40.32
36.23
32.61
29.35
26.37
23.79
21.86
20.82
20.64
20.88
20.76
19.37
16.14
11.05
4.66
-2.15
-8.49
-13.91
-18.57
-23.13
-28.52
-35.61
-44.78
-55.68
-67.17
-77.33
-83.96
-85.04
-79.42
-67.21
-49.84
-29.66
-9.27
9.19
24.41
36.0
44.19
49.47
52.2
52.62
50.93
47.4
42.57
37.09
31.66
26.86
23.07
20.39
18.79
18.06
17.94
18.04
17.96
17.26
15.62
12.89
9.08
4.37
-1.06
-7.0
-13.28
-19.8
-26.57
-33.78
-41.75
-50.75
-60.67
-70.69
-79.15
-83.89
-82.85
-74.88
-60.25
-40.66
-18.75
2.68
21.43
36.2
46.71
53.34
56.78
57.75
56.88
54.64
51.38
47.34
42.68
37.61
32.36
27.3
22.85
19.39
17.14
16.05
15.72
15.53
14.75
12.75
9.25
4.39
-1.39
-7.44
-13.22
-18.5
-23.52
-28.83
-35.15
-43.12
-52.92
-64.17
-75.75
-85.9
-92.57
-93.88
-88.69
-76.92
-59.7
-39.02
-17.25
3.41
21.36
35.67
46.03
52.64
56.0
56.81
55.88
53.89
51.32
48.32
44.86
40.82
36.28
31.56
27.19
23.74
21.59
20.79
20.92
21.24
20.84
18.94
15.14
9.61
2.96
-3.98
-10.47
-16.22
-21.43
-26.8
-33.24
-41.55
-52.01
-64.05
-76.08
-85.76
-90.54
-88.51
-79.06
-63.15
-43.04
-21.49
-0.91
17.13
32.03
43.77
52.52
58.37
61.35
61.62
59.61
56.09
51.94
47.87
44.23
40.97
37.82
34.57
31.32
28.5
26.64
26.07
26.57
27.33
27.2
25.2
20.93
14.86
8.09
1.9
-2.78
-5.88
-8.14
-10.99
-15.92
-23.84
-34.5
-46.3
-56.46
-61.71
-59.36
-48.17
-29.04
-4.75
20.79
43.81
61.89
74.57
83.34
90.85
99.89
112.37
128.76
148.02
168.13
186.82
202.27
213.65
221.04
225.04
225.98
223.34
215.53
200.46
176.49
143.44
103.13
59.09
15.67
-23.21
-54.89
-78.36
-94.0
-103.12
-107.54
-109.31
-110.61
-113.53
-119.75
-129.91
-143.26
-157.51
-169.27
-175.01
-172.17
-160.06
-140.19
-115.78
-90.55
-67.63
-48.71
-33.98
-22.81
-14.53
-9.04
-6.88
-8.85
-15.37
-26.18
-40.27
-56.17
-72.44
-87.94
-101.98
-114.24
-124.63
-133.08
-139.53
-144.0
-146.61
-147.72
-147.85
-147.62
-147.61
-148.23
-149.52
-151.2
-152.63
-153.01
-151.63
-147.9
-141.31
-131.32
-117.23
-98.24
-73.94
-44.62
-11.67
22.56
55.27
83.98
107.03
123.81
134.56
140.03
141.1
138.72
133.71
126.8
118.46
108.92
98.15
86.12
73.01
59.34
45.9
33.44
22.4
12.79
4.25
-3.7
-11.39
-18.85
-25.82
-31.91
-36.82
-40.51
-43.24
-45.5
-47.9
-51.0
-55.22
-60.75
-67.35
-74.26
-80.17
-83.4
-82.34
-76.04
-64.55
-48.96
-31.14
-13.02
3.82
18.53
30.85
40.82
48.51
53.88
56.86
57.52
56.21
53.5
50.1
46.67
43.64
41.14
39.1
37.33
35.67
34.09
32.62
31.28
29.98
28.47
26.37
23.38
19.4
14.57
9.26
3.83
-1.62
-7.3
-13.57
-20.57
-27.76
-33.88
-37.22
-36.19
-30.09
-19.31
-5.22
10.45
26.25
41.4
55.79
69.76
83.65
97.67
111.78
125.72
139.05
151.25
161.66
169.65
174.61
176.18
174.3
169.33
161.91
152.71
142.06
129.67
114.73
96.28
73.93
48.26
20.96
-5.66
-29.45
-49.07
-64.28
-75.56
-83.58
-88.63
-90.38
-88.06
-80.87
-68.62
-52.04
-32.86
-13.3
4.44
18.88
29.74
37.62
43.69
48.87
53.43
57.01
59.04
59.24
57.89
55.73
53.48
51.5
49.68
47.67
45.14
42.02
38.48
34.62
30.31
25.05
18.23
9.48
-1.07
-12.78
-24.86
-36.62
-47.88
-59.09
-71.18
-85.1
-101.27
-119.08
-136.69
-151.28
-159.75
-159.69
-150.26
-132.56
-109.43
-84.47
-60.9
-40.59
-23.78
-9.38
4.11
17.77
31.74
45.18
56.83
65.54
70.83
73.02
72.99
71.75
70.0
67.92
65.22
61.52
56.71
51.08
45.23
39.75
34.82
30.19
25.22
19.34
12.3
4.22
-4.53
-13.66
-23.02
-32.52
-41.77
-49.95
-55.74
-57.67
-54.69
-46.52
-33.9
-18.41
-2.13
12.88
24.96
33.09
36.89
36.62
32.98
26.94
19.62
12.1
5.22
-0.4
-4.51
-7.16
-8.66
-9.42
-9.88
-10.34
-10.92
-11.62
-12.34
-13.04
-13.84
-15.03
-16.97
-20.05
-24.44
-30.1
-36.87
-44.52
-52.79
-61.28
-69.31
-75.83
-79.55
-79.23
-74.08
-64.13
-50.33
-34.36
-18.13
-3.34
8.85
18.01
24.29
28.15
30.19
30.91
30.59
29.4
27.42
24.79
21.67
18.32
15.05
12.27
10.41
9.7
10.12
11.25
12.3
12.3
10.52
6.68
1.16
-5.14
-11.27
-16.58
-21.05
-25.28
-30.23
-36.6
-44.45
-52.91
-60.26
-64.48
-63.94
-57.99
-47.22
-33.22
-17.98
-3.28
9.76
20.72
29.66
36.66
41.66
44.47
44.96
43.29
40.02
35.92
31.8
28.14
25.11
22.51
20.05
17.52
14.91
12.45
10.4
8.95
7.96
7.0
5.47
2.82
-1.17
-6.34
-12.19
-18.13
-23.73
-28.86
-33.73
-38.78
-44.5
-51.21
-58.68
-66.15
-72.26
-75.49
-74.52
-68.77
-58.52
-44.92
-29.6
-14.18
-0.02
12.0
21.45
28.26
32.65
35.11
36.21
36.52
36.45
36.07
35.32
34.06
32.32
30.32
28.44
27.1
26.43
26.26
26.11
25.35
23.44
20.11
15.49
10.01
4.22
-1.39
-6.59
-11.43
-16.27
-21.55
-27.75
-35.17
-43.87
-53.47
-63.04
-71.22
-76.42
-77.31
-73.25
-64.5
-52.24
-38.15
-23.86
-10.52
1.35
11.81
21.14
29.59
37.13
43.49
48.36
51.69
53.94
56.01
58.93
63.44
69.5
76.37
82.85
87.88
90.87
91.91
91.37
89.46
85.93
80.14
71.63
60.64
48.45
37.04
28.31
23.18
21.04
19.89
17.12
10.66
-0.31
-15.03
-31.54
-47.42
-60.45
-69.05
-72.42
-70.45
-63.57
-52.73
-39.34
-25.08
-11.76
-0.92
6.42
9.98
10.16
8.0
4.73
1.48
-0.92
-2.12
-2.18
-1.39
-0.1
1.42
3.07
4.93
7.14
9.76
12.65
15.43
17.63
18.87
19.12
18.63
17.84
17.04
16.2
15.0
13.22
11.06
9.18
8.52
9.65
12.42
15.86
18.65
19.71
18.72
16.15
12.82
9.41
6.06
2.45
-1.83
-6.86
-12.22
-17.17
-20.98
-23.36
-24.64
-25.52
-26.81
-28.93
-31.81
-34.89
-37.56
-39.43
-40.74
-42.12
-44.3
-47.74
-52.33
-57.48
-62.38
-66.49
-69.77
-72.65
-75.78
-79.67
-84.58
-90.47
-97.17
-104.34
-111.46
-117.64
-121.51
-121.54
-116.36
-105.38
-88.97
-68.53
-46.05
-23.65
-3.14
14.24
27.74
37.13
42.53
44.46
43.62
40.91
37.21
33.16
29.1
25.12
21.16
17.27
13.7
10.82
9.02
8.43
8.82
9.59
9.95
9.19
6.84
2.92
-2.17
-7.77
-13.19
-18.03
-22.43
-27.06
-32.94
-40.91
-51.03
-62.22
-72.35
-78.86
-79.63
-73.73
-61.75
-45.52
-27.37
-9.33
7.22
21.66
33.81
43.53
50.53
54.49
55.24
53.02
48.56
42.91
37.15
32.09
28.0
24.72
21.84
18.98
16.05
13.18
10.68
8.74
7.26
5.76
3.64
0.32
-4.45
-10.5
-17.39
-24.52
-31.42
-37.9
-44.2
-50.7
-57.71
-64.95
-71.3
-74.9
-73.52
-65.48
-50.27
-29.09
-4.49
20.28
42.22
59.37
70.94
77.19
78.9
77.1
72.8
66.92
60.3
53.57
47.11
40.99
35.31
30.19
25.96
23.08
21.75
21.8
22.57
23.11
22.51
20.26
16.33
11.2
5.61
0.25
-4.42
-8.41
-12.19
-16.56
-22.37
-30.14
-39.65
-49.69
-58.26
-63.11
-62.44
-55.52
-42.94
-26.38
-8.03
10.02
26.22
39.68
50.06
57.32
61.64
63.28
62.62
60.1
56.24
51.49
46.25
40.88
35.64
30.75
26.39
22.68
19.72
17.48
15.83
14.43
12.86
10.65
7.5
3.41
-1.37
-6.45
-11.53
-16.5
-21.52
-26.93
-33.17
-40.65
-49.57
-59.74
-70.33
-79.87
-86.33
-87.76
-82.78
-71.17
-54.07
-33.65
-12.57
6.89
23.2
35.79
44.83
50.87
54.51
56.16
56.03
54.22
50.96
46.64
41.85
37.23
33.31
30.43
28.62
27.72
27.38
27.21
26.81
25.83
24.06
21.37
17.79
13.43
8.48
3.15
-2.42
-8.14
-14.15
-20.79
-28.52
-37.63
-47.86
-58.15
-66.64
-71.1
-69.59
-61.19
-46.41
-27.12
-5.95
14.42
32.01
45.82
55.69
62.05
65.4
66.27
64.98
61.94
57.63
52.64
47.59
42.89
38.68
34.92
31.55
28.58
26.17
24.42
23.23
22.21
20.73
18.09
13.95
8.38
1.9
-4.84
-11.3
-17.27
-22.97
-28.92
-35.82
-44.32
