13.94
14.05
14.8
16.09
17.51
18.51
18.64
17.7
15.78
13.18
10.25
7.36
4.8
2.76
1.33
0.47
-0.08
-0.68
-1.7
-3.36
-5.46
-7.51
-8.77
-8.67
-6.94
-3.79
0.24
4.52
8.59
12.28
15.67
18.99
22.4
25.96
29.61
33.3
37.07
41.07
45.43
50.26
55.54
61.11
66.79
72.44
78.1
83.92
90.13
96.79
103.72
110.5
116.6
121.58
125.28
127.89
129.78
131.33
132.81
134.31
135.98
138.06
140.92
144.79
149.54
154.64
159.18
162.16
162.54
159.42
152.01
139.78
122.71
101.6
78.02
54.03
31.52
11.77
-4.7
-18.0
-28.43
-36.16
-40.93
-42.2
-39.52
-32.65
-21.59
-6.53
12.03
32.84
53.29
69.5
77.54
75.45
65.02
51.69
42.25
41.38
49.1
60.81
69.68
70.59
62.7
49.12
34.31
20.99
8.19
-7.85
-30.71
-60.64
-93.19
-120.86
-136.44
-136.05
-119.92
-90.74
-51.47
-3.69
51.58
111.85
171.42
221.75
254.41
264.95
255.09
231.99
204.83
180.81
162.98
150.62
141.52
134.14
128.03
123.37
120.1
117.44
114.06
108.86
101.43
92.32
82.63
73.49
65.58
58.84
52.59
45.84
37.85
28.48
18.28
8.21
-0.79
-8.22
-14.16
-19.24
-24.3
-30.01
-36.6
-43.8
-51.03
-57.78
-63.8
-69.29
-74.77
-80.84
-87.96
-96.22
-105.39
-115.05
-124.83
-134.61
-144.47
-154.78
-165.9
-178.11
-191.47
-205.92
-221.29
-237.41
-254.14
-271.39
-289.1
-307.44
-326.89
-348.23
-372.15
-398.66
-426.66
-453.6
-475.96
-489.93
-492.54
-482.32
-459.77
-427.09
-387.64
-345.29
-303.7
-265.92
-233.95
-208.53
-188.93
-173.28
-159.16
-144.57
-128.7
-112.09
-96.14
-82.39
-71.79
-64.2
-58.57
-53.34
-46.91
-38.33
-27.68
-16.22
-6.08
0.48
2.2
-0.47
-5.3
-9.19
-9.6
-5.78
1.01
8.26
13.59
15.91
15.78
14.9
15.1
17.4
21.7
27.05
32.23
36.22
38.52
38.94
37.55
34.3
28.96
21.3
11.55
0.51
-10.64
-21.07
-30.73
-40.17
-49.8
-58.9
-65.39
-66.51
-60.39
-47.16
-29.28
-10.48
6.02
18.82
28.7
37.56
46.97
57.26
67.44
75.98
81.76
84.64
85.47
85.63
86.37
88.18
90.56
92.34
92.37
90.23
86.65
82.92
80.05
77.94
75.4
70.92
63.79
54.61
45.08
37.03
31.4
28.0
25.86
24.05
22.3
20.96
20.53
20.93
21.41
20.76
18.19
14.0
9.6
7.09
8.17
13.34
21.76
31.85
42.19
52.08
61.44
70.24
78.15
84.68
90.0
95.51
103.64
116.77
135.71
159.05
183.91
207.79
230.24
252.99
278.2
305.89
332.39
350.88
354.31
338.61
304.86
258.68
207.52
157.4
110.71
66.44
22.1
-23.94
-71.11
-116.96
-158.88
-195.73
-228.61
-260.29
-293.8
-330.98
-372.12
-416.55
-463.63
-513.01
-563.89
-613.51
-656.46
-685.43
-693.68
-677.81
-639.37
-584.07
-519.23
-451.2
-384.03
-320.5
-263.59
-217.44
-186.35
-172.48
-173.65
-183.17
-192.16
-193.19
-183.22
-164.09
-140.71
-117.74
-97.11
-77.56
-56.21
-30.98
-2.12
27.86
55.78
79.7
100.05
119.36
140.89
167.05
198.33
232.81
266.51
294.25
311.21
314.58
305.0
286.57
265.63
248.34
238.07
234.17
232.63
228.59
219.18
204.94
189.34
176.53
169.11
166.79
166.95
166.31
162.67
155.54
145.91
134.98
123.32
110.72
97.02
82.99
70.48
61.52
57.06
56.12
56.13
54.21
48.6
39.48
28.53
17.91
9.03
1.95
-4.17
-10.29
-16.84
-23.46
-29.27
-33.28
-34.85
-33.84
-30.77
-26.75
-23.19
-21.15
-20.75
-20.96
-20.19
-17.14
-11.48
-4.03
3.91
11.17
17.18
21.92
25.54
28.15
29.86
31.06
32.62
35.6
40.66
47.57
55.27
62.31
67.46
70.06
69.83
66.61
60.16
50.53
38.58
26.33
16.54
11.57
12.0
15.69
18.46
16.0
6.28
-9.21
-26.07
-39.18
-45.43
-45.08
-41.06
-37.07
-35.42
-36.24
-38.02
-39.16
-39.0
-38.11
-37.41
-37.22
-36.79
-34.69
-29.64
-21.3
-10.49
1.22
12.2
21.43
28.84
35.11
40.95
46.54
51.27
53.99
53.66
50.04
44.05
37.46
32.29
30.08
31.29
34.98
39.15
41.53
40.57
36.28
30.22
24.74
21.75
21.59
22.85
23.26
21.0
15.79
9.19
3.7
1.48
3.21
7.7
12.55
15.26
14.56
10.83
5.84
1.54
-1.15
-2.74
-4.68
-8.27
-13.81
-20.42
-26.76
-31.97
-36.1
-39.67
-42.62
-43.68
-40.72
-32.11
-18.11
-1.32
14.3
25.13
29.48
28.08
23.44
18.5
15.43
15.16
17.38
21.01
24.72
27.37
28.45
28.24
27.79
28.36
30.64
34.27
38.08
40.81
41.96
42.01
41.97
42.4
42.85
42.13
39.24
34.42
29.38
26.43
27.21
31.62
37.68
42.65
44.35
42.2
37.14
30.87
24.74
19.14
13.78
8.41
3.39
-0.55
-3.19
-5.45
-9.13
-15.83
-25.5
-35.71
-42.46
-42.16
-33.66
-19.13
-3.21
9.32
15.55
15.46
11.47
6.89
4.32
4.71
7.32
10.45
12.4
12.22
10.06
7.04
4.55
3.65
4.68
7.19
10.32
13.27
15.67
17.66
19.6
21.72
23.9
25.72
26.68
26.58
25.72
24.76
24.26
23.98
22.55
18.11
9.54
-2.45
-15.18
-25.21
-30.19
-30.42
-28.62
-28.39
-31.95
-38.89
-46.63
-52.16
-53.91
-52.64
-50.97
-51.74
-56.39
-64.24
-72.86
-79.2
-80.76
-76.41
-66.54
-52.86
-37.71
-23.25
-10.9
-1.0
7.06
14.24
21.35
28.73
36.01
42.48
47.24
49.52
49.02
45.9
40.92
35.32
30.7
28.55
29.59
33.34
38.07
41.61
42.34
40.11
36.13
32.34
30.2
29.99
30.9
31.57
31.01
28.87
25.52
21.59
17.7
14.13
10.99
8.19
5.55
2.98
0.43
-1.99
-4.12
-5.76
-6.94
-7.79
-8.43
-8.73
-8.46
-7.7
-7.25
-8.55
-12.86
-20.34
-29.35
-36.85
-39.88
-37.04
-29.44
-20.11
-12.52
-8.71
-8.41
-9.58
-9.84
-7.97
-4.41
-0.75
1.44
1.54
0.04
-1.94
-3.39
-3.85
-3.46
-2.55
-1.36
0.05
1.8
3.97
6.59
9.57
12.79
16.05
19.02
21.2
21.99
21.04
18.54
15.31
12.61
11.59
12.74
15.58
18.89
21.27
21.84
20.59
18.33
16.22
15.04
14.95
15.54
16.23
16.37
15.37
12.63
7.71
0.65
-7.78
-16.09
-22.59
-26.21
-27.1
-26.54
-26.25
-27.32
-29.5
-31.39
-31.24
-28.09
-22.3
-15.35
-8.98
-4.27
-1.22
1.05
3.45
6.26
8.86
10.17
9.63
7.7
5.76
5.32
6.99
10.02
12.71
13.48
12.01
9.46
7.79
8.44
11.31
14.61
15.94
13.83
8.66
2.56
-1.75
-2.41
0.61
5.58
10.04
12.1
11.24
8.29
4.74
1.82
-0.02
-1.07
-2.02
-3.66
-6.73
-11.83
-19.18
-28.28
-37.43
-43.95
-45.01
-39.03
-26.83
-11.71
1.76
9.76
10.96
6.87
0.72
-4.5
-7.48
-8.89
-10.52
-13.93
-19.73
-27.49
-36.24
-45.09
-53.36
-60.58
-66.36
-70.78
-74.63
-79.25
-85.94
-95.06
-105.73
-116.09
-124.43
-130.32
-135.26
-142.49
-156.12
-179.97
-216.26
-264.62
-321.84
-382.29
-439.02
-485.31
-516.04
-528.58
-522.91
-501.14
-466.8
-424.11
-377.52
-331.24
-288.7
-252.04
-221.85
-197.29
-176.66
-158.13
-140.36
-122.74
-105.28
-88.37
-72.38
-57.3
-42.58
-27.35
-10.6
8.4
29.77
52.86
76.42
98.81
118.5
134.32
145.71
152.64
155.56
155.04
151.71
146.03
138.44
129.41
119.58
109.81
101.07
94.26
89.95
88.19
88.54
90.23
92.49
94.96
97.82
101.79
107.78
116.51
128.15
142.24
157.84
173.9
189.7
205.08
220.44
236.7
255.01
276.51
301.82
330.45
360.29
387.73
408.28
417.89
414.35
398.15
372.37
341.67
310.84
283.44
261.23
244.3
231.63
221.88
213.76
206.26
198.51
189.81
179.53
167.4
153.58
138.82
124.32
111.33
100.61
92.13
84.93
77.61
68.95
58.38
46.31
33.83
22.17
12.27
4.32
-2.16
-8.04
-14.19
-21.21
-29.35
-38.49
-48.39
-58.68
-69.02
-79.11
-88.7
-97.45
-104.9
-110.36
-113.12
-112.66
-109.01
-102.9
-95.51
-87.95
-80.65
-73.08
-63.99
-52.06
-36.76
-18.79
-0.08
16.94
30.3
39.25
44.57
48.22
52.51
59.1
68.46
79.73
91.25
101.33
108.9
113.65
115.8
115.64
113.2
108.39
101.36
92.78
83.65
74.86
66.63
58.49
49.67
39.71
28.87
18.02
8.0
-0.83
-8.77
-16.35
-23.87
-31.11
-37.48
-42.5
-46.06
-48.45
-50.04
-50.99
-51.25
-50.82
-49.95
-49.14
-48.84
-49.26
-50.26
-51.6
-53.16
-54.97
-57.15
-59.65
-62.17
-64.29
-65.63
-66.0
-65.42
-64.04
-62.16
-60.15
-58.48
-57.52
-57.5
-58.31
-59.49
-60.37
-60.27
-58.7
-55.45
-50.74
-45.15
-39.51
-34.75
-31.69
-30.81
-32.15
-35.29
-39.44
-43.63
-46.85
-48.3
-47.63
-45.22
-42.24
-40.33
-40.68
-43.05
-45.17
-43.1
-32.67
-11.32
20.59
59.8
101.59
141.73
177.74
208.71
234.12
252.8
262.69
261.85
249.78
227.89
198.9
165.68
130.45
94.8
60.19
28.46
1.68
-18.54
-31.57
-37.8
-38.0
-32.89
-23.08
-9.5
6.18
21.87
35.9
47.62
57.33
65.31
71.02
73.12
70.53
63.81
55.26
47.85
43.36
41.43
40.14
37.83
34.87
33.72
37.35
46.94
60.72
74.85
85.9
93.15
98.98
107.1
119.59
134.94
148.21
153.32
146.0
125.72
95.68
61.09
26.8
-4.42
-32.06
-56.84
-79.25
-98.77
-114.12
-124.33
-129.72
-131.78
-132.41
-132.8
-133.23
-133.46
-133.57
-134.1
-135.58
-137.74
-139.28
-138.66
-135.23
-130.03
-125.28
-123.12
-124.24
-127.57
-131.16
-133.38
-133.69
-132.46
-130.19
-126.83
-121.79
-114.54
-105.29
-95.4
-87.05
-82.54
-83.44
-89.84
-100.03
-110.75
-118.07
-118.69
-111.19
-96.67
-78.27
-59.91
-44.73
-33.98
-26.85
-21.26
-15.02
-6.79
3.48
14.74
25.61
35.16
43.35
50.93
58.89
67.89
77.8
87.77
96.68
103.6
108.2
110.82
112.12
112.64
112.44
110.91
106.99
99.68
88.52
73.97
57.31
40.32
24.58
11.12
0.23
-8.26
-14.53
-18.5
-19.74
-17.83
-12.62
-4.58
5.33
15.9
26.07
35.19
43.11
50.05
56.45
62.73
69.07
75.43
81.49
86.86
91.24
94.5
96.78
98.29
99.25
99.67
99.42
98.23
95.83
92.09
87.01
80.67
73.12
64.35
54.31
43.0
30.57
17.36
3.89
-9.25
-21.4
-31.99
-40.53
-46.73
-50.51
-52.09
-51.94
-50.65
-48.82
-46.86
-45.02
-43.47
-42.36
-41.92
-42.4
-43.97
-46.64
-50.21
-54.3
-58.36
-61.74
-63.89
-64.46
-63.45
-61.25
-58.53
-55.92
-53.78
-52.08
-50.46
-48.54
-46.13
-43.36
-40.58
-38.16
-36.35
-35.15
-34.43
-33.97
-33.57
-33.08
-32.41
-31.45
-30.17
-28.63
-26.91
-25.14
-23.47
-22.02
-20.92
-20.28
-20.2
-20.68
-21.65
-22.88
-24.11
-25.1
-25.7
-25.91
-25.85
-25.72
-25.72
-26.01
-26.65
-27.55
-28.55
-29.46
-30.15
-30.67
-31.19
-31.95
-33.18
-34.92
-37.01
-39.1
-40.71
-41.32
-40.47
-37.9
-33.63
-28.01
-21.71
-15.57
-10.36
-6.55
-4.21
-3.03
-2.46
-2.01
-1.4
-0.56
0.34
1.12
1.64
1.87
1.86
1.69
1.42
1.09
0.75
0.49
0.39
0.53
0.84
1.18
1.32
1.12
0.53
-0.35
-1.38
-2.38
-3.3
-4.16
-5.01
-5.85
-6.62
-7.24
-7.67
-8.01
-8.46
-9.27
-10.6
-12.5
-14.87
-17.48
-20.04
-22.35
-24.28
-25.89
-27.37
-28.98
-31.02
-33.72
-37.05
-40.7
-44.06
-46.3
-46.66
-44.68
-40.44
-34.59
-28.07
-21.87
-16.66
-12.68
-9.74
-7.43
-5.38
-3.41
-1.51
0.19
1.58
2.63
3.45
4.17
4.9
5.72
6.62
7.58
8.59
9.72
11.04
12.57
14.23
15.85
17.16
17.97
18.17
17.81
17.03
15.97
14.72
13.31
11.76
10.04
8.18
6.23
4.22
2.12
-0.1
-2.53
-5.18
-8.04
-10.98
-13.87
-16.51
-18.82
-20.85
-22.81
-25.07
-27.98
-31.8
-36.51
-41.74
-46.77
-50.72
-52.72
-52.17
-48.95
-43.46
-36.55
-29.26
-22.54
-17.04
-12.98
-10.18
-8.2
-6.58
-4.94
-3.11
-1.08
1.05
3.15
5.15
7.03
8.82
10.54
12.2
13.82
15.41
17.05
18.8
20.75
22.83
24.8
26.26
26.75
25.98
23.99
21.19
18.16
15.48
13.38
11.72
10.1
8.09
5.46
2.3
-1.14
-4.56
-7.78
-10.77
-13.62
-16.52
-19.71
-23.46
-27.97
-33.28
-39.1
-44.75
-49.22
-51.43
-50.55
-46.36
-39.3
-30.42
-21.06
-12.36
-5.1
0.51
4.67
7.81
10.36
12.59
14.6
16.36
17.78
18.85
19.65
20.31
20.97
21.71
22.54
23.42
24.34
25.33
26.41
27.54
28.6
29.4
29.7
29.38
28.42
26.93
25.1
23.09
20.99
18.8
16.47
13.91
11.09
8.04
4.88
1.77
-1.22
-4.11
-7.14
-10.67
-15.05
-20.5
-26.89
-33.67
-39.87
-44.31
-45.92
-44.06
-38.78
-30.85
-21.53
-12.2
-3.93
2.79
7.99
12.09
15.56
18.76
21.89
24.97
28.04
31.09
34.07
36.83
39.16
40.83
41.76
42.06
42.06
42.12
42.5
43.21
44.07
44.74
44.87
44.2
42.61
40.13
36.97
33.37
29.64
26.01
22.6
19.36
16.15
12.82
9.23
5.38
1.36
-2.69
-6.6
-10.22
-13.46
-16.34
-19.02
-21.85
-25.28
-29.76
-35.46
-42.03
-48.6
-53.83
-56.39
-55.33
-50.54
-42.75
-33.29
-23.61
-14.84
-7.5
-1.61
3.14
7.18
10.82
14.27
17.64
20.92
23.98
26.65
28.69
29.96
30.49
30.49
30.29
30.2
30.38
30.86
31.51
32.11
32.41
32.17
31.23
29.57
27.34
24.75
22.1
19.63
17.51
15.77
14.34
13.02
11.59
9.83
7.61
4.95
1.95
-1.2
-4.33
-7.34
-10.24
-13.06
-15.87
-18.77
-21.85
-25.31
-29.31
-33.92
-39.02
-44.17
-48.62
-51.41
-51.63
-48.74
-42.76
-34.46
-25.06
-15.95
-8.2
-2.27
1.99
5.18
7.93
10.65
13.39
15.93
18.02
19.51
20.46
21.04
21.42
21.68
21.87
21.96
22.0
22.09
22.36
22.93
23.82
24.93
26.07
26.97
27.36
27.06
25.98
24.24
22.05
19.72
17.54
15.67
14.15
12.86
11.57
10.01
7.96
5.35
2.32
-0.85
-3.76
-6.17
-8.05
-9.67
-11.46
-13.9
-17.34
-21.87
-27.26
-32.93
-38.02
-41.51
-42.46
-40.32
-35.16
-27.79
-19.45
-11.49
-4.91
-0.14
2.94
4.75
5.82
6.52
7.09
7.66
8.33
9.17
10.19
11.34
12.5
13.53
14.34
14.99
15.6
16.36
17.37
18.67
20.13
21.49
22.47
22.8
22.31
21.03
19.14
17.01
14.97
13.27
11.88
10.58
8.99
6.82
3.98
0.67
-2.72
-5.8
-8.36
-10.44
-12.39
-14.69
-17.74
-21.76
-26.55
-31.55
-35.94
-38.75
-39.25
-37.09
-32.46
-26.04
-18.82
-11.82
-5.81
-1.2
2.0
4.08
5.49
6.68
7.98
9.51
11.21
12.84
14.18
15.09
15.62
15.93
16.18
16.49
16.82
17.14
17.41
17.62
17.81
17.95
17.94
17.62
16.83
15.48
13.6
11.3
8.75
6.19
3.79
1.74
0.1
-1.19
-2.34
-3.58
-5.09
-6.94
-8.98
-11.03
-12.92
-14.57
-16.09
-17.72
-19.75
-22.46
-25.96
-30.09
-34.32
-37.85
-39.77
-39.33
-36.27
-30.92
-24.1
-16.9
-10.28
-4.91
-0.96
1.73
3.52
4.82
6.0
7.32
8.92
10.81
12.8
14.56
15.8
16.36
16.38
16.2
16.26
16.78
17.74
18.81
19.62
19.89
19.6
18.9
18.0
16.99
15.86
14.51
12.89
11.02
9.05
7.13
5.39
3.9
2.73
1.94
1.5
1.32
1.17
0.77
-0.11
-1.57
-3.51
-5.75
-8.11
-10.47
-12.9
-15.59
-18.74
-22.49
-26.77
-31.19
-35.06
-37.54
-37.79
-35.37
-30.41
-23.68
-16.37
-9.72
-4.61
-1.33
0.4
1.23
1.85
2.72
3.95
5.37
6.7
7.75
8.5
9.07
9.64
10.27
10.88
11.35
11.58
11.65
11.85
12.45
13.57
15.02
16.3
16.88
16.38
14.8
12.51
10.08
7.99
6.46
5.42
4.52
3.35
1.63
-0.76
-3.72
-6.97
-10.17
-13.01
-15.27
-16.95
-18.26
-19.49
-21.03
-23.16
-25.9
-29.02
-31.89
-33.69
-33.64
-31.3
-26.76
-20.68
-14.08
-8.01
-3.2
0.09
2.04
3.09
3.68
4.14
4.66
5.29
6.02
6.82
7.7
8.66
9.76
10.95
12.16
13.29
14.23
14.96
15.56
16.14
16.77
17.4
17.86
17.93
17.44
16.35
14.72
12.73
10.57
8.41
6.39
4.56
2.9
1.32
-0.29
-2.05
-3.96
-5.97
-7.94
-9.77
-11.41
-12.9
-14.37
-16.0
-17.99
-20.49
-23.64
-27.4
-31.45
-35.18
-37.74
-38.29
-36.35
-31.98
-25.87
-19.12
-12.86
-7.86
-4.33
-1.98
-0.23
1.46
3.42
5.67
8.1
10.45
12.51
14.09
15.09
15.5
15.4
15.03
14.7
14.67
15.08
15.89
16.88
17.78
18.32
18.39
17.94
17.04
15.76
14.25
12.63
11.04
9.59
8.35
7.36
6.58
5.96
5.38
4.65
3.56
1.92
-0.34
-3.06
-5.96
-8.69
-11.04
-13.01
-14.76
-16.53
-18.52
-20.89
-23.7
-26.98
-30.68
-34.55
-38.05
-40.41
-40.82
-38.7
-34.05
-27.45
-19.93
-12.61
-6.36
-1.58
1.78
4.13
5.93
7.59
9.28
11.03
12.72
14.24
15.49
16.48
17.28
17.93
18.48
18.93
19.31
19.68
20.14
20.79
21.58
22.33
22.72
22.42
21.25
19.3
16.97
14.73
12.98
11.84
11.14
10.51
9.62
8.31
6.65
4.88
3.26
1.89
0.71
-0.48
-1.91
-3.75
-5.98
-8.48
-11.04
-13.51
-15.86
-18.2
-20.76
-23.78
-27.43
-31.62
-36.01
-39.93
-42.55
-43.05
-40.92
-36.13
-29.3
-21.52
-14.05
-7.92
-3.63
-1.09
0.25
1.04
1.81
2.83
4.1
5.5
6.87
8.11
9.18
10.11
10.93
11.65
12.29
12.84
13.35
13.86
14.4
14.97
15.46
15.73
15.6
14.96
13.84
12.4
10.89
9.61
8.73
8.29
8.19
8.13
7.78
6.78
4.94
2.25
-1.04
-4.57
-7.92
-10.8
-13.14
-15.08
-16.92
-19.08
-21.92
-25.59
-29.95
-34.5
-38.4
-40.73
-40.7
-37.97
-32.78
-25.84
-18.17
-10.8
-4.5
0.35
3.75
5.99
7.52
8.73
9.9
11.12
12.29
13.24
13.84
14.09
14.13
14.15
14.34
14.78
15.5
16.38
17.32
18.21
18.97
19.55
19.91
20.0
19.78
19.22
18.27
16.95
15.29
13.4
11.41
9.48
7.69
6.06
4.51
2.96
1.28
-0.58
-2.67
-4.99
-7.5
-10.13
-12.76
-15.24
-17.47
-19.5
-21.56
-24.06
-27.34
-31.51
-36.17
-40.43
-43.11
-43.14
-40.01
-33.97
-26.0
-17.42
-9.55
-3.18
1.41
4.53
6.67
8.38
10.03
11.7
13.34
14.78
15.89
16.63
17.07
17.38
17.76
18.33
19.1
20.0
20.89
21.69
22.34
22.8
23.04
22.96
22.47
21.49
20.03
18.19
16.13
13.99
11.88
9.85
7.91
6.06
4.25
2.48
0.67
-1.21
-3.13
-5.05
-6.87
-8.52
-9.96
-11.23
-12.42
-13.67
-15.16
-17.07
-19.65
-23.11
-27.54
-32.66
-37.76
-41.77
-43.53
-42.2
-37.6
-30.39
-21.81
-13.34
-6.15
-0.84
2.6
4.61
5.78
6.61
7.44
8.45
9.67
11.02
12.37
13.55
14.49
15.17
15.71
16.3
17.06
18.01
19.1
20.21
21.23
22.09
22.69
22.98
22.87
22.3
21.26
19.84
18.14
16.35
14.59
12.91
11.32
9.77
8.19
6.48
4.56
2.35
-0.17
-2.99
-5.97
-8.96
-11.78
-14.29
-16.47
-18.37
-20.18
-22.24
-24.9
-28.53
-33.22
-38.62
-43.88
-47.75
-49.01
-46.84
-41.26
-33.13
-23.84
-14.83
-7.16
-1.26
2.92
5.74
7.63
8.98
10.13
11.34
12.81
14.55
16.39
18.05
19.25
19.88
20.01
19.93
19.95
20.35
21.15
22.25
23.37
24.27
24.77
24.89
24.7
24.35
23.89
23.28
22.38
21.09
19.38
17.33
15.09
12.8
10.5
8.19
5.8
3.32
0.71
-1.98
-4.75
-7.58
-10.48
-13.43
-16.35
-19.12
-21.64
-23.95
-26.22
-28.84
-32.19
-36.44
-41.34
-46.1
-49.5
-50.34
-47.83
-41.96
-33.6
-24.13
-15.05
-7.43
-1.73
2.25
5.0
7.08
8.87
10.53
12.09
13.57
14.99
16.34
17.62
18.78
19.78
20.67
21.56
22.57
23.78
25.21
26.74
28.21
29.41
30.14
30.24
29.65
28.43
26.73
24.72
22.54
20.24
17.8
15.21
12.55
9.94
7.56
5.47
3.61
1.8
-0.16
-2.41
-4.96
-7.72
-10.55
-13.3
-15.84
-18.1
-20.16
-22.19
-24.56
-27.64
-31.69
-36.57
-41.66
-45.91
-48.11
-47.29
-43.11
-36.08
-27.4
-18.59
-10.96
-5.25
-1.47
0.89
2.5
3.87
5.2
6.47
7.59
8.6
9.6
10.73
12.01
13.38
14.67
15.77
16.67
17.43
18.16
18.91
19.75
20.63
21.47
22.1
22.3
21.86
20.71
18.88
16.56
14.06
11.63
9.48
7.64
5.99
4.33
2.41
0.05
-2.77
-5.83
-8.82
-11.4
-13.38
-14.89
-16.28
-18.09
-20.83
-24.79
-29.89
-35.62
-41.04
-44.97
-46.32
-44.4
-39.22
-31.52
-22.58
-13.78
-6.21
-0.36
3.84
6.85
9.23
11.41
13.58
15.71
17.67
19.31
20.53
21.36
21.89
22.32
22.81
23.45
24.25
25.11
25.91
26.55
26.99
27.21
27.22
26.97
26.43
25.56
24.38
22.92
21.24
19.36
17.38
15.36
13.4
11.56
9.82
8.08
6.19
4.08
1.73
-0.76
-3.3
-5.86
-8.51
-11.39
-14.57
-18.09
-21.92
-26.13
-30.77
-35.87
-41.18
-46.02
-49.35
-50.05
-47.39
-41.35
-32.77
-23.04
-13.66
-5.7
0.31
4.52
7.43
9.62
11.58
13.6
15.75
17.93
19.96
21.57
22.61
23.05
23.0
22.74
22.57
22.71
23.27
24.24
25.48
26.78
27.92
28.65
28.8
28.3
27.17
25.52
23.57
21.45
19.29
17.15
15.03
12.96
10.95
8.98
7.07
5.18
3.22
1.08
-1.28
-3.88
-6.58
-9.2
-11.58
-13.62
-15.44
-17.38
-19.93
-23.57
-28.55
-34.63
-41.01
-46.43
-49.6
-49.6
-46.22
-40.07
-32.31
-24.27
-17.01
-11.09
-6.57
-3.15
-0.43
1.97
4.28
6.56
8.73
10.61
12.05
13.0
13.57
13.97
14.44
15.09
15.91
16.84
17.81
18.85
19.98
21.19
22.34
23.17
23.34
22.61
20.85
18.19
14.95
11.62
8.68
6.45
4.92
3.81
2.59
0.78
-1.85
-5.16
-8.71
-11.96
-14.53
-16.4
-17.88
-19.44
-21.59
-24.68
-28.84
-33.87
-39.23
-44.0
-47.0
-47.12
-43.75
-37.05
-28.02
-18.17
-9.06
-1.76
3.41
6.77
8.95
10.63
12.2
13.77
15.28
16.62
17.69
18.52
19.13
19.57
19.86
20.02
20.12
20.22
20.42
20.78
21.26
21.69
21.85
21.53
20.65
19.31
17.76
16.24
14.93
13.82
12.78
11.63
10.24
8.64
6.95
5.29
3.66
1.91
-0.16
-2.69
-5.66
-8.82
-11.88
-14.56
-16.84
-18.89
-21.09
-23.81
-27.35
-31.72
-36.69
-41.69
-45.93
-48.49
-48.56
-45.77
-40.25
-32.73
-24.36
-16.34
-9.62
-4.61
-1.23
1.0
2.7
4.42
6.47
8.94
11.69
14.5
17.1
19.27
20.91
22.02
22.71
23.15
23.52
23.93
24.44
25.05
25.66
26.11
26.18
25.67
24.42
22.44
19.89
17.05
14.26
11.76
9.69
7.99
6.52
5.1
3.52
1.67
-0.51
-2.99
-5.66
-8.34
-10.9
-13.22
-15.29
-17.21
-19.21
-21.56
-24.59
-28.47
-33.18
-38.3
-42.96
-46.06
-46.54
-43.82
-38.13
-30.4
-22.07
-14.51
-8.62
-4.58
-2.0
-0.2
1.41
3.22
5.29
7.52
9.7
11.6
13.04
13.91
14.19
14.04
13.7
13.43
13.42
13.68
14.08
14.45
14.61
14.52
14.15
13.57
12.71
11.43
9.5
6.77
3.24
-0.81
-4.9
-8.53
-11.53
-14.12
-16.98
-20.92
-26.51
-33.74
-42.0
-50.35
-57.95
-64.45
-70.18
-75.96
-82.85
-91.63
-102.59
-115.39
-129.2
-142.97
-155.69
-166.74
-175.89
-183.38
-189.7
-195.49
-201.39
-207.88
-214.85
-221.27
-225.07
-223.94
-216.53
-203.6
-188.19
-174.32
-164.79
-159.21
-153.49
-141.37
-117.1
-78.04
-25.7
35.03
97.98
157.76
210.86
255.65
291.83
319.87
340.58
354.81
362.94
364.34
357.21
339.09
307.88
263.16
207.04
143.86
79.24
18.6
-33.94
-75.97
-106.85
-127.34
-139.38
-145.66
-148.86
-150.53
-150.11
-144.46
-128.48
-97.06
-47.6
17.66
91.12
161.23
215.94
246.38
249.42
227.86
188.56
139.67
88.43
40.33
-0.64
-31.44
-50.03
-56.05
-51.52
-40.55
-28.01
-17.53
-10.1
-4.15
3.1
13.88
28.57
45.62
62.38
76.4
86.38
92.41
95.66
97.69
99.67
102.1
104.78
107.29
109.48
111.79
115.14
120.38
127.73
136.57
145.6
153.69
160.45
166.2
171.29
175.08
175.42
169.05
153.01
126.09
89.64
47.33
3.9
-36.41
-70.7
-97.79
-117.88
-132.1
-142.48
-152.02
-164.69
-184.67
-214.6
-253.45
-295.42
-330.68
-347.94
-338.4
-299.3
-235.42
-157.87
-80.56
-15.91
28.55
51.46
56.62
50.57
39.99
30.09
23.91
22.82
27.29
37.45
53.12
73.47
96.7
120.61
143.57
165.39
187.03
209.48
232.43
254.04
271.7
283.81
291.03
296.2
303.01
314.29
331.18
353.12
378.59
405.57
431.52
453.07
466.2
467.39
455.17
431.14
399.44
365.3
332.95
304.54
280.08
258.4
238.21
218.67
199.57
180.89
162.55
144.35
126.03
107.42
88.62
69.84
51.38
33.42
15.89
-1.36
-18.47
-35.41
-51.84
-67.15
-80.68
-91.97
-100.96
-108.09
-114.1
-119.79
-125.67
-131.74
-137.62
-142.72
-146.72
-149.83
-152.87
-156.99
-163.23
-171.99
-182.87
-194.78
-206.43
-217.02
-226.63
-236.3
-247.62
-262.0
-279.97
-300.9
-323.41
-345.84
-367.13
-387.16
-406.78
-427.51
-451.23
-480.02
-515.66
-558.62
-606.73
-654.41
-693.27
-714.39
-711.45
-683.33
-634.56
-573.48
-509.0
-447.67
-392.47
-343.57
-300.17
-261.93
-229.31
-202.77
-181.78
-164.57
-148.6
-131.72
-112.9
-92.37
-71.28
-50.78
-31.33
-12.5
6.74
27.39
49.78
73.18
95.97
116.0
131.32
140.63
143.49
140.27
131.65
118.38
101.0
79.87
55.35
28.07
-0.98
-30.45
-58.83
-84.73
-107.1
-125.36
-139.34
-149.23
-155.41
-158.36
-158.57
-156.51
-152.65
-147.37
-140.96
-133.55
-125.24
-116.09
-106.29
-96.16
-86.12
-76.57
-67.69
-59.34
-51.06
-42.22
-32.29
-21.02
-8.6
4.47
17.63
30.55
43.4
56.76
71.44
88.09
106.87
127.31
148.58
169.74
190.23
210.02
229.65
250.03
272.25
297.48
326.53
359.33
394.25
427.85
455.38
472.09
474.97
463.82
441.33
411.96
380.19
349.06
319.84
292.47
266.59
242.19
219.68
199.4
181.19
164.28
147.67
130.56
112.72
94.52
76.87
60.85
47.51
37.54
31.13
27.96
27.26
28.11
29.74
31.67
33.7
35.73
37.48
38.49
38.3
36.66
33.8
30.36
27.17
24.85
23.65
23.38
23.58
23.77
23.71
23.4
23.01
22.77
22.8
23.08
23.49
23.89
24.14
24.13
23.79
23.06
21.88
20.29
18.33
16.12
13.76
11.3
8.67
5.81
2.65
-0.87
-4.74
-8.97
-13.61
-18.75
-24.49
-30.8
-37.43
-43.79
-48.96
-51.91
-51.82
-48.33
-41.76
-33.09
-23.66
-14.83
-7.56
-2.31
1.05
2.94
3.91
4.39
4.63
4.71
4.7
4.63
4.6
4.67
4.82
4.96
5.02
5.02
5.12
5.57
6.5
7.8
9.09
9.79
9.44
7.91
5.51
2.8
0.32
-1.67
-3.28
-4.93
-7.04
-9.8
-13.07
-16.4
-19.29
-21.4
-22.63
-23.2
-23.49
-24.0
-25.17
-27.37
-30.78
-35.26
-40.29
-44.95
-48.15
-48.93
-46.78
-41.84
-34.87
-27.01
-19.38
-12.83
-7.79
-4.27
-2.01
-0.67
0.14
0.7
1.22
1.82
2.48
3.11
3.57
3.79
3.75
3.59
3.43
3.43
3.63
4.0
4.48
5.02
5.54
5.94
6.09
5.8
4.95
3.63
2.06
0.55
-0.67
-1.58
-2.43
-3.5
-5.03
-7.05
-9.39
-11.76
-13.94
-15.8
-17.42
-18.99
-20.8
-23.18
-26.42
-30.53
-35.18
-39.6
-42.71
-43.43
-41.12
-35.82
-28.32
-19.92
-11.97
-5.47
-0.8
2.25
4.21
5.65
6.93
8.14
9.17
9.86
10.1
9.92
9.43
8.8
8.17
7.62
7.16
6.76
6.42
6.18
6.06
6.07
6.08
5.84
5.12
3.75
1.76
-0.53
-2.76
-4.54
-5.74
-6.41
-6.88
-7.52
-8.68
-10.47
-12.79
-15.37
-17.82
-19.77
-21.05
-21.72
-22.07
-22.58
-23.71
-25.67
-28.33
-31.07
-33.02
-33.28
-31.25
-26.87
-20.61
-13.38
-6.16
0.16
5.07
8.43
10.42
11.45
11.95
12.37
12.92
13.68
14.52
15.23
15.65
15.76
15.73
15.79
16.17
16.94
18.0
19.13
20.07
20.62
20.74
20.45
19.81
18.84
17.52
15.82
13.84
11.74
9.73
8.0
6.57
5.31
3.99
2.4
0.45
-1.77
-4.06
-6.19
-8.01
-9.5
-10.75
-11.85
-13.0
-14.33
-16.06
-18.37
-21.35
-24.88
-28.51
-31.5
-32.93
-32.09
-28.7
-23.12
-16.22
-9.08
-2.69
2.38
6.04
8.57
10.4
11.9
13.24
14.39
15.19
15.49
15.26
14.61
13.76
12.98
12.51
12.44
12.74
13.3
13.95
14.57
15.07
15.41
15.48
15.24
14.62
13.64
12.4
11.01
9.64
8.32
7.05
5.77
4.37
2.84
1.23
-0.4
-1.98
-3.47
-4.89
-6.27
-7.62
-8.93
-10.19
-11.4
-12.66
-14.17
-16.22
-19.13
-23.05
-27.87
-33.08
-37.88
-41.27
-42.36
-40.65
-36.17
-29.51
-21.6
-13.47
-5.98
0.33
5.28
8.89
11.32
12.74
13.28
13.09
12.38
11.4
10.43
9.71
9.36
9.39
9.7
10.15
10.61
10.97
11.21
11.36
11.46
11.52
11.47
11.15
10.38
9.07
7.23
5.1
2.98
1.1
-0.46
-1.86
-3.34
-5.13
-7.33
-9.87
-12.57
-15.24
-17.66
-19.72
-21.38
-22.74
-24.0
-25.5
-27.57
-30.4
-33.91
-37.61
-40.7
-42.3
-41.67
-38.54
-33.2
-26.47
-19.41
-13.0
-7.85
-4.09
-1.43
0.6
2.4
4.21
6.11
8.07
10.11
12.23
14.43
16.63
18.67
20.37
21.67
22.63
23.49
24.46
25.69
27.19
28.78
30.25
31.38
31.98
31.93
31.14
29.61
27.52
25.19
23.05
21.47
20.6
20.24
19.98
19.34
18.01
15.99
13.51
10.88
8.34
5.91
3.5
0.89
-2.1
-5.62
-9.82
-14.69
-20.02
-25.25
-29.5
-31.7
-31.07
-27.34
-21.01
-13.18
-5.22
1.7
6.83
10.02
11.54
11.83
11.36
10.45
9.35
8.21
7.09
6.05
5.09
4.23
3.46
2.79
2.23
1.8
1.53
1.46
1.68
2.2
2.95
3.7
4.18
4.15
3.46
2.19
0.59
-1.07
-2.51
-3.58
-4.24
-4.57
-4.75
-5.03
-5.72
-7.06
-9.15
-11.79
-14.58
-16.99
-18.7
-19.68
-20.25
-20.96
-22.34
-24.65
-27.77
-31.16
-33.98
-35.31
-34.38
-30.81
-24.79
-17.1
-8.85
-1.22
4.95
9.22
11.65
12.55
12.32
11.33
9.87
8.24
6.71
5.58
5.03
5.08
5.58
6.24
6.75
6.88
6.53
5.84
5.04
4.47
4.32
4.6
5.11
5.56
5.78
5.72
5.51
5.27
4.99
4.5
3.54
1.92
-0.37
-3.16
-6.2
-9.27
-12.24
-15.04
-17.57
-19.75
-21.53
-23.01
-24.5
-26.45
-29.2
-32.85
-37.05
-41.01
-43.7
-44.2
-41.94
-37.0
-30.05
-22.14
-14.4
-7.69
-2.4
1.49
4.26
6.23
7.66
8.73
9.51
10.07
10.45
10.68
10.77
10.71
10.53
10.27
10.02
9.87
9.88
10.1
10.54
11.14
11.79
12.35
12.68
12.69
12.35
11.73
10.88
9.91
8.86
7.81
6.88
6.15
5.6
5.1
4.36
3.1
1.19
-1.21
-3.75
-5.97
-7.61
-8.71
-9.61
-10.8
-12.71
-15.61
-19.53
-24.32
-29.6
-34.79
-39.06
-41.47
-41.25
-38.04
-32.11
-24.32
-15.85
-7.86
-1.2
3.77
7.09
9.09
10.24
10.97
11.66
12.55
13.72
15.09
16.43
17.47
18.05
18.11
17.83
17.47
17.31
17.53
18.12
18.89
19.56
19.89
19.66
18.74
17.14
14.93
12.3
9.57
7.08
5.11
3.76
2.93
2.31
1.57
0.45
-1.14
-3.13
-5.3
-7.41
-9.28
-10.84
-12.14
-13.4
-14.95
-17.13
-20.19
-24.11
-28.46
-32.45
-35.01
-35.22
-32.57
-27.23
-20.03
-12.16
-4.78
1.33
5.89
9.06
11.24
12.77
13.87
14.64
15.13
15.43
15.66
15.93
16.27
16.64
16.95
17.11
17.1
17.0
16.89
16.9
17.05
17.34
17.64
17.78
17.6
17.02
16.02
14.7
13.22
11.72
10.3
8.99
7.76
6.58
5.45
4.34
3.22
2.0
0.51
-1.38
-3.75
-6.56
-9.55
-12.41
-14.84
-16.73
-18.2
-19.56
-21.24
-23.59
-26.81
-30.77
-34.96
-38.58
-40.61
-40.18
-36.83
-30.74
-22.69
-13.87
-5.47
1.63
7.0
10.61
12.82
14.09
14.92
15.76
16.88
18.32
19.88
21.21
21.97
21.96
21.24
20.06
18.8
17.85
17.42
17.58
18.2
18.97
19.53
19.54
18.79
17.32
15.36
13.25
11.32
9.72
8.44
7.31
6.19
4.97
3.7
2.48
1.36
0.3
-0.91
-2.57
-4.92
-8.04
-11.82
-15.91
-19.88
-23.34
-26.02
-27.9
-29.23
-30.47
-32.15
-34.7
-38.15
-42.01
-45.29
-46.77
-45.39
-40.68
-33.03
-23.51
-13.54
-4.4
3.05
8.58
12.36
14.81
16.35
17.32
17.97
18.43
18.81
19.15
19.45
19.66
19.72
19.6
19.4
19.24
19.33
19.81
20.71
21.89
23.08
23.95
24.25
23.85
22.8
21.25
19.4
17.41
15.4
13.38
11.37
9.32
7.17
4.91
2.6
0.37
-1.58
-3.12
-4.23
-5.06
-5.88
-6.98
-8.56
-10.67
-13.2
-15.96
-18.75
-21.44
-24.06
-26.85
-30.06
-33.9
-38.27
-42.63
-46.06
-47.46
-45.97
-41.26
-33.76
-24.52
-14.88
-6.1
0.98
6.02
9.1
10.6
11.0
10.78
10.33
9.94
9.71
9.62
9.57
9.41
9.06
8.51
7.87
7.31
7.0
7.04
7.57
8.6
10.15
12.14
14.4
16.66
18.61
19.98
20.65
20.73
20.44
20.1
19.88
19.83
19.77
19.45
18.68
17.31
15.38
12.99
10.31
7.56
4.96
2.67
0.75
-0.92
-2.58
-4.63
-7.5
-11.49
-16.69
-22.81
-29.13
-34.55
-37.88
-38.16
-35.04
-28.95
-20.98
-12.56
-4.99
0.96
5.1
7.73
9.33
10.33
11.01
11.51
11.9
12.25
12.62
12.99
13.31
13.49
13.48
13.27
12.93
12.55
12.15
11.69
11.12
10.41
9.59
8.73
7.92
7.13
6.27
5.16
3.69
1.86
-0.13
-1.98
-3.39
-4.27
-4.76
-5.2
-5.99
-7.34
-9.25
-11.46
-13.63
-15.58
-17.32
-19.07
-21.13
-23.78
-27.12
-31.06
-35.33
-39.37
-42.41
-43.53
-41.91
-37.14
-29.52
-20.06
-10.22
-1.44
5.34
9.86
12.53
14.06
15.18
16.32
17.65
19.1
20.5
21.71
22.57
23.02
23.07
22.81
22.42
22.1
22.04
22.34
22.97
23.73
24.3
24.36
23.68
22.21
20.12
17.71
15.27
12.92
10.62
8.23
5.68
3.05
0.62
-1.31
-2.6
-3.38
-4.0
-4.89
-6.35
-8.39
-10.8
-13.26
-15.45
-17.29
-18.87
-20.47
-22.4
-24.98
-28.42
-32.82
-38.1
-43.91
-49.59
-54.16
-56.5
-55.67
-51.25
-43.55
-33.63
-22.98
-13.13
-5.24
0.23
3.37
4.72
4.91
4.48
3.81
3.06
2.31
1.54
0.78
0.06
-0.59
-1.11
-1.44
-1.47
-1.07
-0.06
1.69
4.22
7.42
10.92
14.23
16.79
18.14
18.08
16.73
14.39
11.48
8.33
5.16
2.08
-0.84
-3.53
-5.9
-7.96
-9.85
-11.83
-14.16
-16.95
-20.05
-23.16
-25.88
-27.96
-29.32
-30.15
-30.79
-31.64
-33.05
-35.17
-37.85
-40.51
-42.2
-41.83
-38.62
-32.4
-23.79
-13.99
-4.41
3.79
10.0
14.23
16.88
18.59
19.91
21.23
22.65
24.12
25.51
26.72
27.74
28.58
29.19
29.47
29.29
28.73
28.15
28.08
28.95
30.72
32.89
34.64
35.28
34.61
33.01
31.08
29.29
27.67
25.88
23.52
20.44
16.88
13.32
10.23
7.8
5.93
4.28
2.5
0.38
-2.11
-4.8
-7.48
-10.0
-12.38
-14.76
-17.4
-20.61
-24.67
-29.75
-35.76
-42.31
-48.6
-53.55
-56.03
-55.21
-50.84
-43.41
-34.03
-24.1
-14.91
-7.28
-1.5
2.69
5.78
8.27
10.58
12.92
15.3
17.66
19.88
21.85
23.45
24.6
25.24
25.37
25.07
24.53
23.95
23.51
23.33
23.4
23.59
23.71
23.57
22.96
21.83
20.21
18.19
15.94
13.55
11.06
8.47
5.79
3.04
0.3
-2.39
-5.08
-7.88
-10.91
-14.2
-17.64
-21.01
-24.16
-27.11
-30.04
-33.27
-37.13
-41.78
-47.15
-52.84
-58.12
-62.01
-63.5
-61.85
-56.82
-48.89
-39.05
-28.53
-18.42
-9.36
-1.5
5.32
11.27
16.46
20.82
24.22
26.64
28.22
29.23
29.98
30.71
31.44
32.09
32.55
32.81
33.06
33.61
34.73
36.48
38.59
40.48
41.51
41.21
39.47
36.58
33.1
29.61
26.53
23.98
21.79
19.6
17.08
14.04
10.53
6.81
3.26
0.21
-2.25
-4.19
-5.94
-7.92
-10.56
-14.18
-18.91
-24.5
-30.27
-35.16
-37.87
-37.31
-32.96
-25.13
-14.95
-3.99
6.18
14.44
20.24
23.65
25.06
24.95
23.82
22.07
20.02
17.95
16.04
14.35
12.88
11.63
10.65
10.1
10.12
10.79
12.03
13.58
15.08
16.2
16.71
16.49
15.54
13.98
11.97
9.75
7.55
5.53
3.68
1.82
-0.31
-2.9
-5.95
-9.21
-12.27
-14.86
-16.91
-18.66
-20.56
-23.08
-26.5
-30.82
-35.7
-40.47
-44.19
-45.9
-44.78
-40.49
-33.33
-24.25
-14.59
-5.68
1.56
6.82
10.36
12.74
14.58
16.28
18.02
19.78
21.39
22.63
23.29
23.26
22.58
21.51
20.41
19.68
19.54
19.86
20.23
20.07
18.91
16.6
13.32
9.47
5.52
1.71
-1.96
-5.7
-9.78
-14.38
-19.43
-24.61
-29.32
-32.74
-34.08
-32.95
-29.6
-25.36
-22.32
-22.81
-28.69
-40.68
-58.07
-79.0
-100.92
-121.16
-137.36
-147.61
-150.56
-145.49
-132.47
-112.39
-86.87
-57.93
-27.71
1.81
28.87
52.1
70.57
84.13
93.47
99.85
104.57
108.31
110.77
110.94
107.71
100.73
90.79
79.66
69.37
61.51
56.76
54.92
55.25
56.81
58.76
60.35
60.88
59.73
56.48
51.05
43.8
35.48
27.05
19.45
13.33
8.91
5.85
3.42
0.77
-2.75
-7.31
-12.6
-17.96
-22.76
-26.72
-30.09
-33.64
-38.26
-44.55
-52.41
-60.92
-68.49
-73.4
-74.33
-70.81
-63.4
-53.39
-42.31
-31.43
-21.47
-12.62
-4.8
2.07
7.92
12.53
15.72
17.44
17.92
17.53
16.72
15.86
15.16
14.66
14.28
13.92
13.56
13.26
13.11
13.19
13.41
13.56
13.36
12.58
11.18
9.35
7.56
6.31
6.02
6.78
8.31
9.99
11.16
11.27
10.14
7.94
5.08
2.02
-0.9
-3.58
-6.09
-8.63
-11.53
-15.1
-19.55
-24.79
-30.28
-35.06
-37.96
-37.99
-34.71
-28.45
-20.17
-11.17
-2.6
4.89
11.15
16.39
20.93
24.88
28.12
30.4
31.46
31.26
29.96
27.89
25.46
23.0
20.73
18.73
17.03
15.67
14.73
14.3
14.43
15.01
15.76
16.38
16.59
16.28
15.62
14.91
14.46
14.41
14.63
14.77
14.39
13.11
10.8
7.67
4.15
0.8
-1.95
-3.99
-5.58
-7.27
-9.69
-13.38
-18.5
-24.79
-31.53
-37.65
-41.99
-43.58
-41.93
-37.22
-30.18
-21.92
-13.48
-5.65
1.2
6.97
11.71
15.48
18.32
20.31
21.56
22.31
22.76
23.08
23.37
23.68
24.02
24.38
24.73
25.01
25.19
25.23
25.18
25.12
25.05
24.9
24.5
23.65
22.2
20.23
17.95
15.66
13.57
11.71
9.95
8.01
5.7
2.99
0.03
-2.92
-5.56
-7.72
-9.36
-10.61
-11.71
-12.97
-14.74
-17.38
-21.14
-26.04
-31.67
-37.16
-41.28
-42.77
-40.81
-35.3
-27.01
-17.23
-7.43
1.24
8.16
13.25
16.82
19.29
21.06
22.44
23.6
24.65
25.6
26.41
26.99
27.33
27.41
27.31
27.16
27.14
27.38
27.97
28.86
29.84
30.66
31.01
30.69
29.65
28.01
26.01
23.94
22.05
20.52
19.31
18.21
16.8
14.67
11.51
7.31
2.4
-2.62
-7.11
-10.6
-12.93
-14.25
-14.99
-15.64
-16.67
-18.47
-21.24
-24.99
-29.46
-34.07
-37.96
-40.17
-39.92
-36.87
-31.34
-24.13
-16.37
-9.11
-3.03
1.68
5.18
7.83
9.94
11.68
13.08
14.15
14.89
15.37
15.66
15.88
16.08
16.31
16.6
17.0
17.57
18.32
19.21
20.15
20.96
21.48
21.59
21.21
20.36
19.08
17.48
15.71
13.94
12.29
10.83
