-15.23
-15.94
-15.75
-14.54
-12.45
-9.75
-6.81
-3.94
-1.37
0.79
2.5
3.77
4.63
5.18
5.54
5.83
6.06
6.14
5.91
5.25
4.23
3.04
1.92
1.07
0.58
0.36
0.28
0.29
0.41
0.7
1.24
1.98
2.8
3.56
4.12
4.37
4.3
3.94
3.32
2.51
1.56
0.51
-0.56
-1.53
-2.29
-2.73
-2.81
-2.6
-2.28
-2.06
-2.13
-2.55
-3.3
-4.26
-5.27
-6.25
-7.19
-8.17
-9.25
-10.41
-11.5
-12.27
-12.42
-11.78
-10.39
-8.46
-6.32
-4.26
-2.49
-1.07
0.06
0.95
1.69
2.28
2.75
3.1
3.39
3.66
3.94
4.28
4.64
4.99
5.26
5.44
5.6
5.82
6.14
6.52
6.83
6.91
6.59
5.87
4.83
3.67
2.58
1.76
1.26
1.08
1.11
1.22
1.33
1.43
1.55
1.73
1.91
1.94
1.63
0.85
-0.38
-1.88
-3.36
-4.64
-5.67
-6.49
-7.22
-7.9
-8.52
-9.07
-9.56
-10.03
-10.47
-10.75
-10.64
-9.94
-8.54
-6.61
-4.52
-2.64
-1.25
-0.37
0.15
0.57
1.09
1.79
2.65
3.61
4.61
5.61
6.56
7.4
8.08
8.58
8.92
9.16
9.37
9.57
9.73
9.79
9.69
9.4
8.93
8.3
7.57
6.75
5.88
4.98
4.1
3.33
2.71
2.28
2.01
1.79
1.53
1.14
0.57
-0.16
-1.04
-2.02
-3.06
-4.06
-4.9
-5.48
-5.75
-5.82
-5.89
-6.2
-6.88
-7.89
-8.95
-9.68
-9.83
-9.29
-8.24
-6.95
-5.76
-4.87
-4.3
-3.92
-3.61
-3.32
-3.1
-3.02
-3.11
-3.36
-3.75
-4.28
-4.97
-5.83
-6.75
-7.41
-7.41
-6.44
-4.64
-2.39
-0.13
1.87
3.73
5.83
8.74
12.94
18.68
25.66
33.31
41.14
48.72
55.73
61.93
67.11
71.34
75.17
79.06
83.59
89.03
94.61
98.34
97.37
88.93
71.58
45.86
13.45
-22.95
-60.04
-94.45
-123.08
-143.55
-154.87
-158.09
-152.1
-138.29
-119.46
-98.21
-75.5
-50.51
-21.97
10.19
44.28
77.65
107.35
131.57
150.02
163.19
171.57
175.74
176.24
174.1
171.07
168.72
168.25
170.38
175.02
181.45
188.7
195.86
202.34
207.67
212.2
214.84
213.78
206.93
192.76
170.95
142.74
110.66
77.62
45.8
15.77
-13.02
-41.66
-70.67
-99.02
-124.01
-142.1
-150.35
-147.89
-136.79
-121.29
-106.77
-98.04
-98.25
-108.52
-127.42
-151.24
-173.45
-185.88
-181.11
-156.01
-114.09
-65.07
-21.46
6.77
14.83
5.38
-14.06
-35.56
-54.18
-68.66
-79.32
-85.47
-84.5
-75.99
-61.51
-45.58
-35.15
-37.37
-56.76
-93.8
-145.07
-204.2
-267.97
-332.49
-393.27
-445.95
-488.09
-521.04
-549.79
-580.21
-614.61
-653.68
-689.98
-711.39
-707.54
-676.08
-625.16
-570.24
-526.79
-471.14
-386.71
-265.46
-114.6
46.68
197.17
321.72
413.94
475.86
514.85
534.49
537.75
527.28
504.01
469.53
427.01
380.34
333.13
287.87
241.39
190.42
132.67
71.67
14.79
-28.08
-47.94
-39.67
-3.63
52.0
116.34
178.02
226.37
250.91
246.75
217.14
170.94
118.06
64.93
17.8
-22.72
-56.28
-80.69
-93.09
-91.73
-76.55
-47.79
-7.16
43.39
98.33
149.85
192.16
222.58
241.2
248.79
247.15
238.12
225.33
217.88
214.95
215.56
219.44
226.77
237.1
251.26
259.61
262.34
262.52
263.44
268.37
277.65
294.31
310.06
316.15
306.66
282.25
247.25
207.69
170.39
139.56
115.17
95.78
79.79
65.69
54.03
44.96
37.73
31.55
25.35
18.38
10.03
1.14
-6.95
-12.18
-13.84
-12.73
-10.13
-7.45
-5.56
-4.96
-5.08
-5.01
-3.55
-0.31
4.22
9.13
13.47
16.6
18.23
18.67
18.41
18.15
18.14
18.21
17.99
16.96
14.85
11.6
7.47
2.85
-1.81
-6.24
-10.42
-14.47
-18.67
-23.29
-28.36
-33.78
-39.31
-44.68
-49.75
-54.66
-59.75
-65.51
-72.4
-80.49
-89.5
-98.84
-107.83
-115.98
-123.26
-130.12
-137.38
-145.87
-156.02
-167.73
-180.46
-193.48
-206.24
-218.57
-230.78
-243.49
-257.55
-273.83
-293.1
-315.56
-340.21
-364.56
-384.8
-396.79
-397.52
-386.36
-365.3
-338.27
-309.58
-282.32
-257.68
-235.16
-213.58
-192.02
-170.42
-149.28
-129.32
-110.98
-94.31
-79.25
-65.77
-53.98
-44.04
-35.87
-28.94
-22.35
-15.09
-6.45
3.7
14.85
26.05
36.23
44.52
50.49
54.26
56.33
57.36
57.9
58.15
57.96
56.93
54.68
51.16
46.71
42.07
37.99
35.02
33.31
32.72
32.9
33.54
34.45
35.45
36.41
37.1
37.23
36.53
34.85
32.29
29.13
25.76
22.51
19.53
16.77
14.11
11.39
8.57
5.75
3.04
0.54
-1.88
-4.47
-7.5
-11.06
-14.94
-18.57
-21.17
-22.01
-20.63
-17.08
-11.78
-5.48
1.09
7.3
12.8
17.4
21.05
23.84
25.93
27.53
28.9
30.27
31.77
33.49
35.41
37.45
39.52
41.52
43.24
44.58
45.41
45.75
45.64
45.21
44.47
43.41
41.99
40.17
37.96
35.47
32.86
30.28
27.88
25.63
23.44
21.17
18.67
15.99
13.23
10.65
8.4
6.55
4.9
3.15
1.02
-1.62
-4.72
-8.07
-11.31
-14.01
-15.62
-15.66
-13.8
-10.01
-4.66
1.57
7.8
13.2
17.3
19.98
21.48
22.21
22.61
23.04
23.77
24.92
26.47
28.22
29.89
31.03
31.31
30.58
29.0
27.03
25.32
24.37
24.36
24.97
25.45
24.88
22.43
17.75
11.0
3.07
-4.92
-11.81
-16.69
-19.16
-19.28
-17.58
-14.87
-12.07
-10.01
-9.24
-9.93
-11.86
-14.47
-17.06
-19.0
-19.91
-19.68
-18.44
-16.51
-14.35
-12.53
-11.69
-12.29
-14.41
-17.59
-20.86
-23.09
-23.24
-20.9
-16.24
-10.01
-3.2
3.27
8.8
13.12
16.18
18.1
18.97
18.96
18.25
17.07
15.67
14.29
13.13
12.25
11.67
11.31
11.11
11.02
11.02
11.13
11.33
11.6
11.95
12.41
13.09
14.07
15.4
17.07
18.94
20.78
22.33
23.36
23.72
23.34
22.23
20.51
18.31
15.8
13.09
10.2
7.12
3.74
-0.02
-4.27
-9.0
-14.06
-19.08
-23.51
-26.66
-27.88
-26.8
-23.54
-18.69
-13.2
-8.1
-4.13
-1.57
-0.25
0.25
0.41
0.55
0.83
1.24
1.74
2.31
2.91
3.5
3.95
4.12
3.92
3.36
2.59
1.86
1.38
1.33
1.72
2.41
3.1
3.41
2.99
1.61
-0.76
-3.86
-7.22
-10.3
-12.67
-14.1
-14.7
-14.74
-14.61
-14.58
-14.86
-15.6
-16.79
-18.36
-20.08
-21.66
-22.77
-23.19
-22.89
-22.05
-21.01
-20.05
-19.24
-18.32
-16.79
-14.06
-9.75
-3.85
3.18
10.52
17.25
22.59
26.13
27.89
28.2
27.53
26.34
24.92
23.42
21.93
20.58
19.52
18.96
18.96
19.39
19.96
20.35
20.27
19.74
18.92
18.03
17.26
16.61
15.93
15.06
13.83
12.11
9.89
7.26
4.43
1.64
-0.85
-2.83
-4.2
-4.96
-5.21
-5.04
-4.6
-3.99
-3.34
-2.75
-2.32
-2.11
-2.18
-2.57
-3.25
-4.23
-5.42
-6.76
-8.2
-9.66
-11.05
-12.1
-12.51
-11.89
-10.01
-6.97
-3.15
0.8
4.26
6.84
8.51
9.52
10.23
10.9
11.66
12.4
12.93
13.11
12.8
12.05
10.93
9.61
8.22
6.91
5.74
4.67
3.68
2.68
1.68
0.73
-0.09
-0.62
-0.83
-0.68
-0.31
0.1
0.33
0.19
-0.36
-1.35
-2.71
-4.44
-6.48
-8.74
-11.02
-13.02
-14.42
-15.06
-14.99
-14.52
-14.13
-14.24
-15.14
-16.84
-19.18
-21.86
-24.58
-26.96
-28.58
-29.03
-27.93
-25.11
-20.73
-15.21
-9.25
-3.61
1.12
4.68
7.04
8.4
9.04
9.23
9.2
9.11
9.03
9.06
9.3
9.83
10.74
11.99
13.53
15.29
17.12
18.94
20.64
22.11
23.25
23.94
24.11
23.73
22.87
21.68
20.35
19.04
17.85
16.73
15.56
14.22
12.63
10.83
8.93
7.03
5.1
2.99
0.53
-2.37
-5.62
-8.97
-12.11
-14.83
-17.11
-19.11
-21.13
-23.46
-26.34
-29.78
-33.6
-37.22
-39.89
-40.73
-39.12
-34.92
-28.66
-21.26
-13.78
-7.08
-1.57
2.75
6.12
8.86
11.25
13.43
15.5
17.59
19.69
21.76
23.67
25.17
26.01
26.02
25.17
23.59
21.61
19.58
17.86
16.66
15.95
15.61
15.38
15.04
14.45
13.53
12.25
10.6
8.58
6.23
3.67
1.06
-1.37
-3.48
-5.32
-7.03
-8.76
-10.59
-12.44
-14.08
-15.37
-16.36
-17.27
-18.49
-20.34
-22.96
-26.24
-29.95
-33.69
-36.98
-39.23
-39.74
-37.9
-33.5
-26.84
-18.86
-10.81
-3.84
1.36
4.72
6.75
8.1
9.38
10.88
12.63
14.55
16.56
18.6
20.59
22.45
24.04
25.26
26.11
26.68
27.09
27.42
27.72
27.96
28.11
28.07
27.82
27.28
26.35
24.97
23.14
21.05
18.94
17.09
15.61
14.39
13.22
11.77
9.8
7.18
3.99
0.37
-3.46
-7.31
-11.02
-14.51
-17.76
-20.87
-24.04
-27.52
-31.48
-35.86
-40.28
-43.97
-46.03
-45.56
-42.01
-35.47
-26.7
-16.9
-7.39
0.77
7.02
11.36
14.15
15.97
17.28
18.37
19.39
20.35
21.3
22.26
23.33
24.54
25.84
27.1
28.14
28.83
29.23
29.44
29.59
29.79
30.0
30.13
30.01
29.53
28.61
27.17
25.16
22.59
19.57
16.33
13.22
10.5
8.31
6.57
5.0
3.28
1.18
-1.39
-4.33
-7.41
-10.36
-12.99
-15.21
-17.08
-18.8
-20.61
-22.79
-25.6
-29.09
-32.94
-36.47
-38.68
-38.62
-35.71
-30.12
-22.67
-14.62
-7.21
-1.21
3.12
5.99
7.86
9.2
10.38
11.67
13.26
15.2
17.41
19.65
21.6
23.0
23.78
24.05
24.06
24.03
24.15
24.43
24.78
25.09
25.25
25.16
24.77
24.02
22.85
21.2
19.15
16.77
14.23
11.62
8.97
6.3
3.7
1.31
-0.64
-1.98
-2.69
-2.96
-3.11
-3.53
-4.4
-5.72
-7.3
-8.91
-10.46
-12.04
-13.9
-16.37
-19.68
-23.81
-28.4
-32.74
-35.92
-37.15
-35.93
-32.2
-26.34
-19.13
-11.54
-4.47
1.42
5.83
8.79
10.66
11.95
13.19
14.69
16.57
18.71
20.88
22.95
24.9
26.81
28.77
30.86
33.0
34.98
36.43
36.9
35.97
33.22
28.47
21.79
13.58
4.62
-4.19
-11.98
-18.14
-22.41
-24.91
-25.98
-26.07
-25.58
-24.77
-23.87
-23.05
-22.54
-22.44
-22.78
-23.35
-23.88
-24.1
-23.9
-23.47
-23.13
-23.31
-24.21
-25.7
-27.27
-28.2
-27.76
-25.42
-21.04
-14.84
-7.37
0.58
8.16
14.64
19.49
22.55
23.97
24.21
23.83
23.32
22.95
22.8
22.8
22.83
22.79
22.61
22.24
21.68
20.96
20.2
19.51
19.03
18.77
18.68
18.7
18.74
18.76
18.65
18.26
17.34
15.75
13.56
11.08
8.82
7.26
6.6
6.69
7.11
7.28
6.72
5.22
2.85
-0.07
-3.01
-5.44
-6.98
-7.49
-7.19
-6.56
-6.26
-6.94
-8.97
-12.37
-16.6
-20.8
-23.87
-24.97
-23.69
-20.23
-15.36
-10.1
-5.35
-1.66
0.96
2.84
4.49
6.3
8.49
11.08
13.98
17.05
20.09
22.85
25.04
26.34
26.55
25.65
23.76
21.18
18.22
15.16
12.2
9.53
7.2
5.27
3.7
2.35
1.09
-0.15
-1.36
-2.5
-3.46
-4.18
-4.65
-4.88
-4.94
-4.91
-4.89
-4.98
-5.29
-5.87
-6.68
-7.64
-8.69
-9.84
-11.17
-12.86
-15.05
-17.76
-20.89
-24.26
-27.55
-30.34
-32.1
-32.24
-30.23
-25.88
-19.42
-11.64
-3.7
3.26
8.45
11.61
13.12
13.59
13.68
13.72
13.77
13.68
13.32
12.71
11.98
11.34
10.91
10.71
10.59
10.45
10.19
9.87
9.61
9.49
9.61
9.99
10.55
11.16
11.6
11.62
11.06
9.87
8.19
6.27
4.36
2.62
1.08
-0.4
-2.01
-3.82
-5.76
-7.62
-9.24
-10.5
-11.43
-12.1
-12.66
-13.24
-14.03
-15.28
-17.22
-19.99
-23.37
-26.77
-29.22
-29.78
-27.87
-23.54
-17.49
-10.81
-4.61
0.35
3.77
5.81
6.88
7.44
7.86
8.37
9.15
10.25
11.66
13.23
14.74
15.96
16.67
16.83
16.54
16.04
15.61
15.48
15.77
16.46
17.45
18.5
19.45
20.02
20.06
19.48
18.26
16.52
14.42
12.15
9.92
7.91
6.18
4.69
3.27
1.69
-0.26
-2.63
-5.33
-8.09
-10.58
-12.54
-13.91
-14.78
-15.42
-16.13
-17.26
-19.12
-21.92
-25.61
-29.82
-33.82
-36.6
-37.25
-35.17
-30.42
-23.69
-16.09
-8.84
-2.86
1.37
3.85
4.93
5.13
4.93
4.74
4.82
5.28
6.13
7.32
8.72
10.16
11.48
12.47
13.03
13.14
12.92
12.61
12.44
12.55
12.92
13.38
13.73
13.84
13.7
13.42
13.12
12.91
12.79
12.72
12.58
12.28
11.74
10.92
9.88
8.64
7.28
5.81
4.18
2.41
0.49
-1.54
-3.56
-5.49
-7.3
-9.04
-10.92
-13.23
-16.21
-19.99
-24.43
-29.03
-32.99
-35.4
-35.56
-33.22
-28.69
-22.74
-16.3
-10.21
-5.04
-1.03
1.85
3.8
5.05
5.89
6.55
7.24
8.02
8.89
9.78
10.61
11.35
11.95
12.39
12.6
12.57
12.32
11.96
11.56
11.15
10.68
10.09
9.28
8.22
6.91
5.43
3.9
2.46
1.28
0.45
-0.06
-0.39
-0.86
-1.81
-3.41
-5.62
-8.18
-10.75
-13.02
-14.9
-16.46
-17.92
-19.47
-21.28
-23.38
-25.72
-28.21
-30.59
-32.42
-33.11
-32.07
-28.9
-23.72
-17.16
-10.21
-3.94
0.94
4.21
6.11
7.16
7.87
8.59
9.41
10.35
11.37
12.48
13.67
14.88
15.99
16.83
17.25
17.22
16.88
16.5
16.42
16.82
17.68
18.77
19.74
20.24
20.12
19.47
18.52
17.57
16.73
15.92
14.9
13.46
11.52
9.24
6.91
4.83
3.15
1.79
0.52
-0.9
-2.66
-4.76
-7.04
-9.28
-11.3
-13.01
-14.46
-15.84
-17.34
-19.18
-21.51
-24.26
-27.21
-29.88
-31.62
-31.78
-29.99
-26.28
-21.18
-15.6
-10.59
-6.97
-5.15
-5.04
-6.12
-7.79
-9.51
-10.94
-11.9
-12.32
-12.13
-11.28
-9.72
-7.46
-4.57
-1.2
2.4
5.98
9.28
12.11
14.4
16.16
17.45
18.38
18.98
19.25
19.23
18.95
18.42
17.5
15.9
13.31
9.62
5.16
0.68
-2.9
-4.86
-5.01
-3.71
-1.61
0.63
2.55
3.89
4.32
3.41
0.68
-4.14
-10.82
-18.62
-26.5
-33.49
-38.92
-42.51
-44.26
-44.29
-42.76
-39.72
-35.2
-29.26
-22.09
-14.17
-6.38
0.11
4.07
4.66
1.71
-4.01
-11.08
-17.78
-22.65
-24.95
-25.09
-24.95
-27.53
-35.92
-51.61
-72.9
-94.22
-107.39
-104.05
-78.6
-30.15
37.05
114.89
193.47
263.11
316.04
347.35
355.52
342.63
313.7
275.51
234.82
196.82
164.16
137.13
114.39
93.94
73.98
53.4
32.0
10.48
-9.93
-27.96
-42.86
-54.6
-63.82
-71.46
-78.36
-84.92
-91.05
-96.18
-99.46
-99.97
-97.04
-90.55
-81.1
-69.98
-58.83
-49.13
-41.81
-36.97
-34.07
-32.12
-30.19
-27.61
-24.17
-20.09
-15.88
-12.15
-9.39
-7.75
-7.08
-6.98
-7.09
-7.28
-7.63
-8.42
-9.86
-11.88
-14.11
-16.06
-17.37
-18.04
-18.5
-19.39
-21.32
-24.57
-29.09
-34.57
-40.61
-46.68
-52.09
-55.97
-57.37
-55.65
-50.7
-43.2
-34.34
-25.48
-17.67
-11.36
-6.37
-2.19
1.67
5.4
8.81
11.54
13.3
14.11
14.31
14.45
15.02
16.28
18.18
20.5
22.88
25.03
26.59
27.18
26.42
24.17
20.79
17.11
14.29
13.41
15.02
18.95
24.37
29.96
34.4
36.63
36.23
33.55
29.6
25.75
23.29
22.9
24.5
27.28
30.05
31.69
31.45
29.1
24.78
18.73
11.2
2.4
-7.38
-17.57
-27.34
-35.72
-41.99
-45.88
-47.73
-48.13
-47.72
-46.93
-45.97
-45.06
-44.61
-45.31
-47.74
-52.0
-57.28
-61.99
-64.24
-62.73
-57.28
-48.96
-39.74
-31.53
-25.6
-22.21
-20.8
-20.47
-20.48
-20.53
-20.71
-21.25
-22.27
-23.68
-25.3
-26.92
-28.35
-29.47
-30.21
-30.5
-30.28
-29.56
-28.44
-27.15
-26.05
-25.51
-25.87
-27.24
-29.49
-32.27
-35.12
-37.6
-39.49
-40.75
-41.5
-41.87
-41.88
-41.42
-40.35
-38.61
-36.27
-33.56
-30.77
-28.16
-25.89
-24.06
-22.67
-21.7
-21.12
-20.83
-20.71
-20.73
-20.91
-21.4
-22.25
-23.24
-23.68
-22.55
-18.74
-11.61
-1.33
11.08
24.01
35.81
45.34
52.22
56.74
59.64
61.65
63.32
64.97
66.67
68.41
69.97
70.99
70.97
69.42
66.09
61.12
55.12
48.92
43.33
38.84
35.46
32.86
30.55
28.2
25.77
23.52
21.79
20.76
20.33
20.06
19.31
17.47
14.29
10.06
5.51
1.64
-0.75
-1.29
-0.16
2.15
5.11
8.53
12.7
18.49
27.31
41.05
61.75
90.83
128.15
171.14
214.81
252.81
279.26
290.59
286.4
269.13
242.69
210.95
176.75
141.88
107.56
75.0
45.45
19.89
-1.5
-19.5
-35.54
-50.99
-66.51
-81.7
-95.24
-105.6
-111.68
-113.48
-112.13
-109.38
-106.95
-105.83
-106.11
-107.22
-108.46
-109.36
-109.96
-110.57
-111.54
-113.03
-114.85
-116.7
-118.12
-118.73
-118.21
-116.39
-113.24
-108.88
-103.57
-97.5
-90.83
-83.6
-75.96
-68.17
-60.72
-54.17
-48.89
-45.06
-42.42
-40.64
-39.32
-38.36
-37.81
-37.85
-38.73
-40.48
-42.97
-45.64
-47.64
-47.86
-45.32
-39.51
-30.61
-19.66
-8.26
1.75
8.93
12.47
12.37
9.37
4.56
-0.76
-5.46
-8.64
-9.86
-9.09
-6.57
-2.72
2.05
7.41
13.1
18.83
24.27
29.01
32.69
35.15
36.47
36.96
36.91
36.51
35.76
34.56
32.92
31.05
29.35
28.2
27.76
27.84
28.01
27.74
26.66
24.72
22.13
19.25
16.43
13.81
11.39
8.99
6.5
3.83
1.05
-1.77
-4.53
-7.07
-9.22
-10.59
-10.78
-9.43
-6.49
-2.25
2.57
7.19
10.95
13.58
15.19
16.08
16.5
16.59
16.3
15.57
14.48
13.25
12.13
11.39
11.09
11.19
11.53
11.97
12.35
12.57
12.59
12.36
11.84
10.99
9.71
7.99
5.83
3.39
0.88
-1.39
-3.07
-3.93
-3.83
-2.91
-1.4
0.26
1.68
2.49
2.51
1.8
0.53
-1.04
-2.76
-4.54
-6.44
-8.61
-11.29
-14.65
-18.68
-23.22
-27.78
-31.67
-34.11
-34.43
-32.29
-27.91
-21.92
-15.24
-8.88
-3.55
0.39
2.99
4.56
5.58
6.49
7.58
9.0
10.67
12.43
14.01
15.17
15.8
15.92
15.71
15.37
15.06
14.8
14.55
14.17
13.59
12.84
11.98
11.13
10.31
9.51
8.66
7.75
6.82
5.91
5.1
4.39
3.74
3.04
2.21
1.19
0.0
-1.3
-2.67
-4.06
-5.47
-6.88
-8.32
-9.76
-11.23
-12.81
-14.55
-16.56
-18.87
-21.49
-24.28
-26.97
-29.12
-30.25
-29.84
-27.61
-23.63
-18.33
-12.43
-6.64
-1.55
2.61
5.87
8.35
10.28
11.79
13.04
14.22
15.46
16.84
18.31
19.68
20.72
21.26
21.32
21.09
20.81
20.67
20.76
21.05
21.4
21.7
21.86
21.84
21.6
21.1
20.27
19.03
17.41
15.44
13.23
10.9
8.56
6.3
4.25
2.52
1.21
0.36
-0.27
-1.01
-2.27
-4.32
-7.16
-10.52
-13.93
-16.99
-19.46
-21.4
-22.96
-24.42
-26.01
-27.82
-29.86
-31.92
-33.65
-34.46
-33.81
-31.29
-26.87
-21.02
-14.53
-8.33
-3.16
0.56
2.85
4.01
4.48
4.72
5.0
5.52
6.26
7.12
7.95
8.62
9.08
9.36
9.6
9.93
10.53
11.42
12.47
13.36
13.73
13.32
12.1
10.38
8.52
6.92
5.77
5.02
4.46
3.92
3.33
2.74
2.26
1.9
1.57
1.17
0.6
-0.16
-1.08
-2.13
-3.34
-4.71
-6.23
-7.86
-9.43
-10.87
-12.13
-13.37
-14.82
-16.58
-18.54
-20.22
-20.9
-19.9
-16.73
-11.36
-4.26
3.71
11.58
18.53
24.18
28.43
31.45
33.4
34.37
34.28
32.98
30.35
26.42
21.42
15.72
9.64
3.49
-2.49
-8.05
-12.94
-16.93
-19.76
-21.25
-21.32
-20.07
-17.79
-14.87
-11.67
-8.53
-5.63
-3.07
-0.87
1.0
2.49
3.52
3.97
3.81
3.09
1.94
0.51
-1.16
-3.09
-5.38
-8.09
-11.19
-14.48
-17.64
-20.38
-22.58
-24.38
-26.13
-28.19
-30.9
-34.39
-38.48
-42.61
-45.96
-47.65
-47.05
-43.96
-38.75
-32.2
-25.22
-18.58
-12.69
-7.63
-3.26
0.58
3.99
7.03
9.68
12.03
14.15
16.18
18.19
20.25
22.39
24.66
27.08
29.62
32.2
34.71
37.08
39.27
41.27
43.1
44.7
45.96
46.74
46.97
46.52
45.28
43.14
39.95
35.71
30.62
25.04
19.42
14.06
9.05
4.24
-0.59
-5.54
-10.51
-15.2
-19.23
-22.29
-24.3
-25.37
-25.78
-25.89
-26.09
-26.77
-28.27
-30.78
-34.23
-38.23
-42.07
-44.8
-45.56
-43.88
-39.75
-33.82
-27.11
-20.76
-15.64
-12.15
-10.2
-9.33
-8.97
-8.67
-8.28
-7.88
-7.66
-7.75
-8.13
-8.61
-8.91
-8.79
-8.08
-6.78
-4.97
-2.78
-0.37
2.14
4.58
6.79
8.65
10.09
11.07
11.71
12.23
12.85
13.73
14.93
16.36
17.86
19.29
20.44
21.16
21.25
20.44
18.5
15.24
10.76
5.42
-0.19
-5.52
-10.14
-14.03
-17.53
-21.12
-25.21
-29.79
-34.4
-38.14
-39.99
-39.14
-35.33
-28.88
-20.53
-11.31
-2.15
6.18
13.21
18.67
22.58
25.04
26.32
26.84
26.98
27.14
27.52
28.13
28.86
29.48
29.83
29.8
29.46
28.96
28.46
28.01
27.62
27.17
26.48
25.39
23.79
21.72
19.33
16.87
14.54
12.53
10.88
9.55
8.45
7.48
6.61
5.84
5.19
4.66
4.23
3.86
3.52
3.2
2.86
2.51
2.16
1.87
1.62
1.38
0.98
0.17
-1.26
-3.51
-6.56
-10.06
-13.37
-15.65
-16.09
-14.17
-9.91
-3.88
2.88
9.26
14.36
17.78
19.69
20.61
21.27
22.26
23.96
26.41
29.41
32.52
35.3
37.39
38.67
39.19
39.02
38.34
37.22
35.66
33.65
31.19
28.28
24.98
21.31
17.31
13.1
8.86
4.85
1.29
-1.63
-3.87
-5.47
-6.56
-7.32
-7.95
-8.65
-9.55
-10.71
-12.1
-13.65
-15.32
-17.15
-19.29
-21.8
-24.63
-27.59
-30.36
-32.65
-34.34
-35.5
-36.46
-37.64
-39.36
-41.77
-44.7
-47.6
-49.66
-49.97
-47.84
-43.06
-36.05
-27.81
-19.54
-12.35
-6.86
-3.13
-0.81
0.62
1.59
2.4
3.15
3.88
4.63
5.43
6.27
7.12
7.9
8.57
9.1
9.51
9.87
10.17
10.42
10.55
10.5
10.23
9.75
9.05
8.02
6.6
4.73
2.47
0.04
-2.25
-4.16
-5.55
-6.51
-7.27
-8.09
-9.11
-10.34
-11.73
-13.24
-14.86
-16.6
-18.51
-20.56
-22.68
-24.87
-27.18
-29.76
-32.64
-35.6
-38.08
-39.24
-38.23
-34.45
-27.86
-18.99
-8.86
1.39
10.74
18.52
24.46
28.6
31.27
32.86
33.89
34.7
35.47
36.16
36.5
36.12
34.73
32.2
28.56
24.1
19.16
14.06
8.99
4.03
-0.84
-5.64
-10.33
-14.84
-18.91
-22.18
-24.19
-24.54
-22.99
-19.64
-14.95
-9.61
-4.43
-0.02
3.3
5.53
6.89
7.55
7.6
6.95
5.49
3.18
0.21
-3.03
-6.09
-8.5
-10.1
-10.95
-11.39
-11.96
-13.23
-15.65
-19.46
-24.48
-30.04
-35.09
-38.52
-39.38
-37.43
-33.06
-27.2
-20.96
-15.23
-10.45
-6.67
-3.68
-1.26
0.74
2.32
3.51
4.37
5.04
5.77
6.88
8.62
11.09
14.16
17.56
20.98
24.22
27.32
30.53
34.12
38.2
42.5
46.41
49.13
49.9
48.19
43.99
37.72
30.14
22.2
14.77
8.49
3.7
0.46
-1.35
-1.93
-1.61
-0.75
0.22
0.97
1.38
1.49
1.41
1.14
0.39
-1.44
-4.97
-10.65
-18.44
-27.82
-37.95
-47.89
-56.69
-63.46
-67.4
-67.81
-64.47
-57.72
-48.55
-38.43
-28.83
-20.94
-15.29
-11.79
-9.82
-8.61
-7.37
-5.53
-2.85
0.66
4.73
9.0
13.13
16.9
20.2
22.98
25.22
26.87
27.96
28.58
28.73
28.4
27.45
25.64
22.88
19.26
15.11
10.96
7.34
4.6
2.87
1.94
1.43
0.86
-0.25
-2.2
-4.93
-8.04
-10.99
-13.26
-14.61
-15.22
-15.58
-16.4
-18.31
-21.65
-26.39
-32.0
-37.45
-41.48
-42.9
-40.92
-35.58
-27.66
-18.51
-9.52
-1.75
4.36
8.85
12.11
14.61
16.75
18.79
20.82
22.83
24.74
26.5
28.08
29.54
30.88
32.08
33.04
33.62
33.76
33.5
33.03
32.56
32.18
31.82
31.25
30.21
28.5
26.06
22.96
19.41
15.7
12.12
8.96
6.36
4.3
2.59
0.86
-1.24
-3.88
-7.02
-10.43
-13.7
-16.5
-18.65
-20.14
-21.19
-22.21
-23.71
-26.17
-29.88
-34.75
-40.24
-45.36
-48.89
-49.73
-47.23
-41.36
-32.77
-22.59
-12.1
-2.46
5.59
11.78
16.27
19.58
22.26
24.83
27.55
30.42
33.21
35.54
37.1
37.74
37.5
36.63
35.42
34.12
32.91
31.85
30.94
30.13
29.29
28.21
26.65
24.45
21.59
18.27
14.82
11.54
8.65
6.14
3.99
2.24
1.06
0.71
1.28
2.55
4.05
5.09
5.2
4.19
2.38
0.28
-1.58
-2.9
-3.79
-4.61
-5.96
-8.43
-12.39
-17.85
-24.32
-30.83
-36.15
-39.06
-38.79
-35.35
-29.59
-22.9
-16.82
-12.5
-10.35
-10.04
-10.71
-11.25
-10.71
-8.54
-4.6
0.77
6.87
12.91
18.08
21.76
23.65
23.85
22.77
21.09
19.48
18.42
18.16
18.57
19.3
19.9
20.0
19.33
17.85
15.68
13.08
10.37
7.83
5.62
3.72
1.99
0.17
-1.87
-4.25
-6.92
-9.77
-12.74
-15.73
-18.7
-21.62
-24.46
-27.21
-29.98
-32.82
-35.67
-38.2
-39.77
-39.53
-36.71
-31.03
-22.81
-13.05
-3.09
5.8
12.7
17.36
20.06
21.44
22.19
22.88
23.85
25.17
26.81
28.58
30.29
31.73
32.77
33.4
33.73
33.85
33.86
33.72
33.26
32.31
30.74
28.49
25.63
22.34
18.75
15.06
11.56
8.61
6.56
5.63
5.7
6.44
7.19
7.32
6.37
4.2
0.98
-2.88
-6.92
-10.75
-14.08
-16.79
-18.91
-20.65
-22.38
-24.58
-27.66
-31.88
-37.06
-42.56
-47.26
-49.85
-49.24
-44.9
-37.18
-27.12
-16.29
-6.26
1.86
7.6
11.16
13.16
14.3
15.18
16.19
17.47
18.96
20.55
22.09
23.47
24.66
25.69
26.68
27.75
28.92
30.07
30.97
31.32
30.91
29.7
27.81
25.48
22.97
20.45
17.95
15.42
12.73
9.88
7.03
4.43
2.3
0.7
-0.5
-1.55
-2.76
-4.37
-6.39
-8.64
-10.9
-12.99
