-1.75
-4.06
-6.47
-8.74
-10.72
-12.28
-13.45
-14.24
-14.75
-15.15
-15.7
-16.75
-18.48
-20.78
-23.16
-24.81
-24.9
-22.93
-19.01
-13.76
-8.09
-2.86
1.36
4.41
6.47
7.84
8.88
9.8
10.7
11.58
12.34
12.75
12.64
11.93
10.69
9.17
7.66
6.38
5.45
4.89
4.65
4.65
4.95
5.5
6.27
7.05
7.59
7.63
7.1
6.07
4.78
3.41
2.04
0.57
-1.17
-3.32
-5.88
-8.7
-11.51
-14.01
-16.01
-17.45
-18.39
-18.98
-19.42
-19.83
-20.34
-21.05
-22.05
-23.44
-25.22
-27.14
-28.75
-29.38
-28.46
-25.59
-20.84
-14.58
-7.53
-0.43
6.06
11.45
15.52
18.33
20.17
21.53
22.88
24.6
26.78
29.31
31.88
34.2
36.05
37.34
38.01
38.03
37.37
36.0
34.02
31.57
28.86
26.07
23.26
20.43
17.48
14.42
11.35
8.43
5.83
3.65
1.83
0.16
-1.56
-3.65
-6.25
-9.38
-12.93
-16.62
-20.15
-23.29
-25.94
-28.17
-30.13
-31.94
-33.77
-35.68
-37.74
-39.97
-42.21
-44.06
-44.94
-44.15
-41.2
-35.96
-28.9
-20.87
-12.95
-6.01
-0.49
3.5
6.21
7.95
9.02
9.57
9.76
9.73
9.62
9.56
9.66
9.96
10.55
11.59
13.3
15.9
19.53
24.14
29.45
35.01
40.2
44.31
46.65
46.67
44.11
39.09
32.13
24.02
15.56
7.39
-0.16
-7.03
-13.26
-18.83
-23.63
-27.49
-30.29
-32.09
-33.21
-34.0
-34.85
-36.04
-37.6
-39.37
-41.02
-41.99
-41.7
-39.6
-35.45
-29.44
-22.18
-14.57
-7.48
-1.52
3.12
6.6
9.24
11.36
13.18
14.79
16.26
17.62
18.94
20.26
21.51
22.62
23.47
24.01
24.31
24.46
24.6
24.76
24.91
24.83
24.31
23.16
21.32
18.9
16.14
13.3
10.58
8.13
5.96
4.17
2.83
2.02
1.64
1.42
0.98
-0.11
-1.98
-4.46
-7.08
-9.35
-11.03
-12.19
-13.26
-14.74
-17.03
-20.21
-24.07
-28.2
-32.05
-35.06
-36.66
-36.46
-34.31
-30.43
-25.43
-20.07
-15.01
-10.56
-6.59
-2.62
1.81
7.0
12.82
18.81
24.41
29.2
33.1
36.35
39.37
42.52
45.94
49.5
52.77
55.34
57.01
57.91
58.5
59.32
60.7
62.63
64.66
66.16
66.64
65.98
64.57
63.09
62.33
62.89
65.01
68.72
73.84
80.11
87.12
94.4
101.38
107.62
112.93
117.41
121.29
124.49
126.39
125.71
120.92
110.88
95.43
75.46
52.7
28.98
5.7
-16.73
-38.86
-61.94
-87.23
-115.13
-144.63
-173.24
-197.61
-214.75
-223.07
-222.89
-216.05
-204.93
-191.64
-177.77
-164.82
-154.63
-149.41
-150.94
-159.53
-173.41
-189.01
-202.22
-209.86
-210.61
-204.9
-194.33
-180.67
-165.28
-149.02
-132.42
-115.78
-99.41
-83.61
-68.67
-54.9
-42.72
-32.43
-24.21
-17.96
-13.27
-9.52
-6.05
-2.29
2.18
7.59
13.99
21.06
28.22
34.63
39.36
41.73
41.53
39.25
36.0
33.25
32.39
34.25
38.96
45.82
53.65
61.18
67.47
72.09
75.2
77.19
78.44
79.2
79.51
79.32
78.55
77.2
75.34
73.19
71.02
69.1
67.61
66.59
65.9
65.08
63.66
61.3
58.11
54.53
51.23
48.79
47.54
47.38
47.57
47.22
45.66
42.83
39.22
35.41
32.03
29.63
28.82
29.53
31.46
34.58
39.2
45.95
55.71
69.89
90.18
117.65
150.81
185.85
218.06
243.27
258.48
261.7
251.85
228.72
193.12
145.94
89.22
27.06
-34.88
-91.36
-139.43
-178.69
-210.07
-227.82
-225.55
-201.76
-162.3
-116.1
-69.75
-26.46
12.49
46.96
77.0
101.7
118.44
124.98
120.68
106.19
82.65
50.46
11.41
-29.3
-66.93
-98.77
-123.81
-141.83
-152.93
-157.3
-155.95
-149.87
-140.07
-128.55
-117.51
-108.44
-101.86
-97.35
-93.89
-91.28
-89.15
-87.04
-85.07
-83.51
-82.51
-82.12
-84.82
-88.19
-91.39
-93.66
-94.15
-92.1
-86.89
-78.68
-68.57
-57.63
-46.5
-37.22
-31.28
-29.23
-30.88
-35.28
-42.35
-52.84
-66.94
-84.15
-105.22
-130.22
-158.49
-188.98
-220.58
-249.25
-273.11
-290.2
-291.99
-275.78
-245.62
-211.38
-187.17
-175.21
-173.13
-175.6
-175.35
-165.52
-143.62
-110.91
-71.2
-28.69
13.8
52.85
84.16
103.34
107.47
96.65
77.14
60.37
58.78
80.62
124.61
181.33
238.24
284.89
315.78
331.03
334.0
328.22
316.02
297.77
273.65
244.98
213.81
181.95
150.24
118.39
85.07
49.13
9.96
-31.58
-73.19
-111.66
-144.02
-168.24
-183.63
-190.83
-191.15
-186.18
-177.1
-164.72
-149.61
-132.51
-114.61
-97.51
-82.96
-72.37
-66.63
-65.77
-69.15
-75.73
-84.38
-94.29
-104.95
-116.2
-127.87
-139.77
-151.46
-162.37
-171.8
-179.08
-183.79
-185.69
-184.83
-181.39
-175.72
-168.17
-159.07
-148.69
-137.25
-125.04
-112.28
-99.28
-86.27
-73.48
-61.04
-48.96
-37.22
-25.79
-14.81
-4.58
4.43
11.72
16.99
20.32
22.38
24.22
27.02
31.62
38.24
46.31
54.69
62.02
67.16
69.51
68.9
65.25
58.01
46.09
27.91
2.18
-31.18
-70.34
-111.36
-148.9
-177.44
-192.95
-193.75
-180.88
-157.13
-125.81
-89.58
-49.93
-7.37
38.02
86.16
137.01
190.29
244.7
296.8
340.45
368.34
375.06
360.63
331.95
300.65
278.08
270.02
274.44
282.73
284.71
273.44
247.81
211.74
171.6
133.66
102.83
82.93
76.13
82.42
98.43
117.57
131.19
130.83
110.89
70.33
13.67
-50.04
-108.9
-151.14
-168.16
-156.58
-119.27
-64.79
-5.82
43.82
72.49
74.47
52.03
14.94
-22.44
-46.7
-50.31
-34.22
-6.36
22.64
44.64
56.84
60.94
60.66
58.52
54.92
48.87
39.86
29.07
19.11
13.04
12.75
18.41
28.16
39.31
49.48
57.78
65.11
73.69
86.01
103.46
125.96
151.95
179.45
207.09
234.5
261.83
288.56
312.76
331.16
340.56
339.34
328.43
310.81
289.84
267.68
244.58
219.82
193.26
166.61
142.91
124.99
113.52
106.34
99.55
89.62
75.54
59.31
44.86
35.56
32.3
33.05
34.01
31.97
26.05
18.12
11.34
8.18
8.9
11.44
12.74
10.52
4.33
-4.54
-13.97
-22.1
-27.92
-31.17
-31.99
-30.63
-27.46
-22.95
-17.71
-12.15
-6.53
-0.91
4.56
9.51
13.44
15.97
17.16
17.4
17.07
16.18
14.34
11.29
7.22
2.94
-0.71
-3.34
-5.38
-7.8
-11.28
-15.5
-19.07
-20.32
-18.45
-14.26
-9.92
-7.68
-8.56
-11.71
-15.06
-16.8
-16.66
-16.02
-16.86
-20.2
-25.21
-29.77
-31.71
-30.29
-26.53
-22.55
-20.32
-20.77
-23.72
-28.25
-33.31
-38.01
-41.55
-43.2
-42.53
-39.58
-34.95
-29.7
-24.73
-20.68
-17.76
-15.94
-15.21
-15.35
-15.89
-16.03
-14.99
-12.33
-8.46
-4.45
-1.64
-1.03
-2.69
-5.8
-8.83
-10.28
-9.24
-5.83
-1.2
3.09
5.65
6.04
4.86
3.2
1.86
0.79
-0.84
-3.88
-8.28
-12.91
-15.94
-16.03
-13.2
-8.88
-5.23
-4.05
-5.88
-9.9
-14.56
-18.33
-20.42
-20.91
-20.6
-20.55
-21.59
-23.83
-26.63
-28.78
-29.15
-27.33
-23.82
-19.85
-16.56
-14.35
-12.73
-10.7
-7.59
-3.54
0.4
2.97
3.38
1.7
-1.2
-4.22
-6.48
-7.72
-8.12
-8.17
-8.28
-8.59
-9.02
-9.3
-9.15
-8.45
-7.22
-5.61
-3.86
-2.24
-0.95
-0.17
0.04
-0.27
-0.93
-1.9
-3.25
-5.19
-7.78
-10.8
-13.72
-15.89
-16.95
-16.95
-16.34
-15.69
-15.36
-15.38
-15.6
-15.97
-16.5
-17.36
-18.63
-20.24
-22.0
-23.75
-25.31
-26.48
-27.02
-26.57
-24.91
-22.11
-18.47
-14.57
-10.98
-8.19
-6.42
-5.71
-5.77
-6.1
-6.15
-5.44
-3.9
-1.89
-0.14
0.72
0.42
-0.71
-2.02
-2.82
-2.83
-2.31
-1.82
-1.88
-2.59
-3.54
-4.04
-3.61
-2.3
-0.67
0.42
0.41
-0.69
-2.4
-4.05
-5.27
-6.06
-6.76
-7.64
-8.78
-10.0
-11.1
-12.02
-12.82
-13.67
-14.52
-15.3
-15.93
-16.55
-17.43
-18.86
-20.86
-23.05
-24.76
-25.29
-24.34
-22.09
-19.24
-16.55
-14.58
-13.49
-12.97
-12.6
-12.03
-11.17
-10.14
-9.18
-8.4
-7.66
-6.8
-5.73
-4.66
-3.91
-3.78
-4.26
-4.97
-5.32
-4.85
-3.57
-1.99
-0.96
-1.01
-2.16
-3.63
-4.47
-4.03
-2.49
-0.84
-0.33
-1.71
-4.73
-8.26
-10.95
-12.03
-11.74
-11.17
-11.56
-13.47
-16.49
-19.46
-21.17
-21.13
-19.81
-18.35
-17.79
-18.49
-19.84
-20.69
-19.97
-17.34
-13.37
-9.16
-5.86
-3.93
-3.2
-2.95
-2.52
-1.6
-0.35
0.79
1.51
1.74
1.81
2.18
3.16
4.73
6.46
7.69
7.89
7.02
5.65
4.79
5.3
7.29
9.96
11.87
11.79
9.4
5.55
1.71
-0.8
-1.6
-1.47
-1.71
-3.38
-6.63
-10.61
-14.03
-15.93
-16.12
-15.25
-14.45
-14.57
-15.86
-17.88
-19.81
-20.91
-20.88
-20.14
-19.41
-19.56
-21.01
-23.57
-26.5
-28.77
-29.47
-28.19
-25.28
-21.48
-17.73
-14.7
-12.64
-11.48
-10.97
-10.93
-11.2
-11.59
-11.68
-11.02
-9.26
-6.45
-3.17
-0.16
1.88
2.67
2.33
1.38
0.4
-0.06
0.36
1.72
3.82
6.19
8.29
9.63
10.09
9.78
9.02
8.22
7.51
6.87
6.06
4.95
3.59
2.34
1.58
1.49
1.96
2.34
1.97
0.34
-2.47
-5.82
-8.79
-10.62
-11.15
-10.81
-10.49
-11.02
-12.95
-16.28
-20.51
-24.78
-28.03
-29.35
-28.17
-24.64
-19.57
-14.25
-9.85
-7.03
-5.71
-5.29
-5.16
-4.93
-4.69
-4.62
-4.73
-4.8
-4.43
-3.5
-2.3
-1.52
-1.77
-3.15
-5.1
-6.65
-7.0
-5.94
-4.05
-2.18
-0.94
-0.19
0.71
2.35
4.73
7.05
8.34
8.02
6.65
5.59
6.26
9.22
13.57
17.59
19.56
19.0
16.72
14.52
14.02
15.87
19.64
24.18
28.45
31.85
34.45
36.68
39.14
42.55
47.78
55.76
66.97
81.03
96.6
112.05
126.25
138.98
150.63
161.2
169.77
174.51
173.72
166.69
154.32
138.53
121.05
102.42
81.76
57.68
29.53
-1.62
-33.14
-61.55
-83.72
-97.76
-103.55
-102.66
-97.97
-93.32
-92.93
-101.07
-121.43
-155.83
-203.06
-258.23
-313.4
-359.75
-390.49
-402.93
-398.86
-382.98
-360.32
-334.24
-305.93
-275.36
-242.93
-209.89
-177.77
-146.94
-115.84
-81.35
-40.18
9.72
67.96
131.38
194.14
248.81
288.14
307.09
304.74
284.63
253.62
219.14
186.55
157.19
128.51
95.89
55.47
6.89
-45.6
-93.69
-127.71
-139.92
-127.24
-92.5
-43.39
10.02
57.85
92.17
107.45
100.49
70.37
19.4
-46.22
-116.31
-178.76
-222.72
-242.27
-238.5
-218.58
-192.5
-168.54
-149.98
-134.23
-115.45
-88.41
-52.34
-11.67
25.81
52.37
63.22
57.63
38.54
11.01
-18.8
-44.27
-59.29
-59.72
-45.2
-20.0
7.8
29.48
39.29
37.14
28.61
22.25
25.69
42.13
69.54
101.91
132.29
155.53
169.82
176.04
175.93
170.66
160.41
145.49
127.32
108.93
94.09
85.6
83.91
86.8
90.57
91.74
88.72
82.15
74.17
67.13
62.42
59.98
58.5
56.27
51.77
44.34
34.32
22.91
11.77
2.3
-4.79
-9.75
-13.5
-17.22
-21.71
-27.16
-33.06
-38.54
-42.73
-45.15
-45.88
-45.53
-45.23
-46.05
-48.55
-52.38
-56.15
-57.99
-56.41
-51.09
-43.09
-34.25
-26.21
-19.82
-15.08
-11.62
-9.06
-7.09
-5.24
-2.62
1.88
8.95
18.48
29.32
39.74
48.17
53.71
56.22
56.18
54.38
51.58
48.55
45.83
43.8
42.29
40.86
38.96
36.19
32.55
28.33
23.91
19.63
15.89
13.08
11.59
11.6
12.91
14.74
15.87
15.09
11.6
5.53
-2.22
-10.3
-17.47
-23.19
-27.59
-31.41
-35.37
-39.72
-44.07
-47.51
-49.17
-48.6
-46.12
-42.55
-38.79
-35.4
-32.3
-29.15
-25.67
-22.01
-18.76
-16.61
-15.8
-15.84
-15.75
-14.53
-11.81
-8.02
-4.28
-1.62
-0.6
-0.94
-1.84
-2.4
-2.08
-0.83
1.19
3.84
7.13
11.03
15.26
19.08
21.52
21.94
20.37
17.64
14.92
13.03
12.06
11.35
10.09
7.84
4.81
1.75
-0.55
-1.79
-2.19
-2.34
-2.87
-4.04
-5.81
-7.87
-9.79
-11.15
-11.68
-11.32
-10.23
-8.85
-7.6
-6.79
-6.38
-6.09
-5.44
-4.11
-2.13
0.17
2.2
3.51
3.83
3.32
2.36
1.46
0.95
0.91
1.16
1.43
1.65
1.9
2.4
3.22
4.18
4.88
5.07
4.7
4.01
3.37
2.93
2.6
2.05
1.06
-0.38
-1.93
-3.19
-3.92
-4.14
-3.98
-3.61
-3.11
-2.47
-1.76
-1.18
-1.04
-1.59
-2.88
-4.7
-6.75
-8.8
-10.79
-12.75
-14.68
-16.41
-17.58
-17.83
-17.01
-15.26
-12.93
-10.49
-8.24
-6.3
-4.6
-3.0
-1.41
0.06
1.23
1.95
2.29
2.58
3.32
4.88
7.17
9.58
11.25
11.51
10.32
8.34
6.54
5.67
5.87
6.72
7.55
7.94
7.85
7.51
7.12
6.62
5.82
4.54
2.86
0.97
-0.87
-2.49
-3.82
-4.87
-5.66
-6.21
-6.66
-7.2
-8.05
-9.28
-10.72
-11.99
-12.78
-13.03
-13.07
-13.43
-14.46
-16.21
-18.28
-20.03
-20.89
-20.52
-18.98
-16.63
-13.93
-11.22
-8.63
-6.06
-3.33
-0.43
2.38
4.56
5.52
5.01
3.37
1.44
0.21
0.32
1.64
3.43
4.73
4.94
4.05
2.62
1.43
1.01
1.49
2.51
3.55
4.16
4.16
3.74
3.29
3.17
3.43
3.82
3.82
3.12
1.79
0.34
-0.64
-0.97
-0.98
-1.44
-2.9
-5.27
-7.67
-8.99
-8.59
-6.86
-5.13
-4.94
-7.15
-11.31
-15.94
-19.17
-19.79
-17.83
-14.31
-10.62
-7.66
-5.52
-3.68
-1.67
0.48
2.29
3.07
2.62
1.3
-0.1
-0.8
-0.52
0.43
1.44
1.99
1.91
1.48
1.22
1.6
2.76
4.48
6.31
7.73
8.49
8.61
8.42
8.23
8.2
8.26
8.19
7.78
7.03
6.14
5.35
4.81
4.39
3.72
2.47
0.49
-1.98
-4.43
-6.3
-7.31
-7.61
-7.71
-8.12
-9.11
-10.56
-12.15
-13.61
-14.9
-16.14
-17.43
-18.66
-19.51
-19.69
-19.08
-17.82
-16.18
-14.35
-12.39
-10.24
-7.84
-5.26
-2.69
-0.36
1.63
3.21
4.42
5.35
6.14
6.93
7.84
8.9
10.01
11.09
12.09
13.03
13.99
14.92
15.67
15.99
15.77
15.01
14.03
13.03
12.06
10.96
9.48
7.64
5.78
4.49
4.22
4.93
6.04
6.67
6.08
4.04
0.93
-2.52
-5.59
-7.89
-9.5
-10.78
-12.08
-13.37
-14.36
-14.54
-13.72
-12.17
-10.72
-10.36
-11.77
-14.98
-19.23
-23.36
-26.24
-27.38
-26.94
-25.6
-23.99
-22.38
-20.62
-18.37
-15.55
-12.4
-9.5
-7.34
-6.08
-5.39
-4.64
-3.39
-1.66
0.01
0.89
0.52
-1.07
-3.35
-5.79
-8.11
-10.42
-13.02
-16.03
-19.1
-21.51
-22.62
-22.38
-21.52
-21.2
-22.29
-24.78
-27.57
-28.96
-27.51
-22.61
-14.68
-4.97
5.05
13.99
20.85
24.96
26.15
24.82
21.82
18.26
14.99
12.33
9.93
7.32
4.39
1.73
0.48
1.67
5.65
11.74
18.61
24.8
29.36
32.03
33.06
32.98
32.25
31.2
30.16
29.4
29.2
29.55
30.17
30.49
30.0
28.44
26.06
23.44
21.1
19.28
17.77
16.16
14.16
11.86
9.62
7.89
6.85
6.24
5.63
4.68
3.43
2.12
1.08
0.32
-0.49
-1.79
-3.79
-6.21
-8.44
-9.85
-10.23
-9.88
-9.42
-9.43
-10.08
-11.19
-12.39
-13.53
-14.77
-16.52
-19.14
-22.5
-25.89
-28.25
-28.76
-27.27
-24.41
-21.14
-18.24
-15.91
-13.9
-11.92
-10.06
-8.88
-8.92
-10.19
-11.73
-12.16
-10.53
-6.91
-2.52
1.01
2.25
1.0
-2.06
-5.3
-7.58
-9.0
-10.66
-13.88
-19.2
-26.41
-34.11
-41.21
-46.13
-48.44
-48.82
-48.58
-48.89
-50.23
-53.14
-57.18
-62.26
-66.38
-67.45
-64.13
-56.47
-45.86
-33.85
-22.16
-9.47
6.85
32.34
71.3
124.36
188.03
255.89
321.62
379.69
429.1
452.74
438.39
383.51
298.37
200.82
106.69
34.45
-17.82
-53.94
-77.08
-86.77
-82.01
-65.51
-40.68
-12.64
13.08
30.42
37.08
32.99
22.01
8.96
-2.45
-10.72
-16.81
-22.44
-29.62
-37.57
-44.62
-48.37
-47.95
-44.79
-41.82
-42.22
-47.41
-57.05
-67.86
-76.12
-78.56
-74.03
-63.7
-50.33
-37.38
-27.61
-22.69
-22.5
-26.07
-32.12
-39.65
-48.15
-57.32
-66.85
-76.1
-84.17
-89.83
-92.14
-90.86
-86.53
-80.22
-73.03
-65.71
-58.49
-51.27
-44.04
-37.23
-31.61
-28.0
-26.84
-27.83
-30.07
-32.51
-34.38
-35.57
-36.4
-37.31
-38.35
-38.99
-38.27
-35.18
-29.07
-19.95
-8.52
4.01
16.23
26.81
34.95
40.51
44.12
46.91
50.16
54.73
60.81
67.97
75.46
82.53
88.64
93.29
95.9
95.73
92.04
84.52
73.67
60.84
47.97
36.92
28.92
24.14
21.8
20.58
19.13
16.48
12.13
5.99
-1.88
-11.24
-21.65
-32.46
-42.7
-51.39
-57.65
-61.0
-61.4
-59.3
-55.56
-51.35
-47.92
-46.22
-46.62
-48.77
-51.73
-54.39
-55.83
-55.69
-54.14
-51.65
-48.69
-45.54
-42.2
-38.45
-34.05
-28.9
-23.2
-17.49
-12.4
-8.4
-5.64
-3.82
-2.47
-1.24
-0.09
0.72
0.84
0.19
-0.92
-1.89
-2.17
-1.52
-0.16
1.39
2.55
2.96
2.56
1.54
0.22
-1.06
-2.1
-2.78
-3.12
-3.23
-3.36
-3.85
-5.04
-7.12
-10.01
-13.37
-16.65
-19.29
-20.86
-21.2
-20.37
-18.6
-16.24
-13.62
-10.99
-8.56
-6.45
-4.72
-3.34
-2.23
-1.22
-0.19
0.93
2.12
3.22
3.99
4.27
4.06
3.58
3.19
3.22
3.83
4.99
6.49
8.04
9.44
10.52
11.14
11.2
10.69
9.69
8.44
7.27
6.49
6.24
6.43
6.74
6.81
6.38
5.43
4.13
2.79
1.7
0.96
0.47
-0.03
-0.77
-1.88
-3.31
-4.93
-6.6
-8.23
-9.77
-11.07
-11.94
-12.08
-11.31
-9.6
-7.14
-4.33
-1.63
0.64
2.34
3.53
4.42
5.26
6.18
7.26
8.36
9.37
10.22
10.96
11.79
12.89
14.33
15.93
17.39
18.31
18.44
17.62
15.87
13.38
10.41
7.37
4.62
2.48
1.13
0.57
0.6
1.0
1.57
2.14
2.62
2.92
3.05
3.02
2.97
3.04
3.36
3.91
4.53
4.95
4.92
4.37
3.38
2.24
1.21
0.5
0.12
-0.05
-0.21
-0.54
-1.11
-1.89
-2.74
-3.47
-3.9
-3.86
-3.3
-2.23
-0.83
0.68
2.09
3.25
4.17
4.98
5.82
6.73
7.68
8.46
8.93
8.94
8.47
7.61
6.51
5.39
4.42
3.8
3.65
3.97
4.68
5.58
6.44
7.01
7.14
6.78
6.0
4.96
3.86
2.88
2.06
1.36
0.73
0.1
-0.39
-0.62
-0.48
-0.05
0.42
0.53
0.02
-1.16
-2.75
-4.26
-5.28
-5.61
-5.34
-4.81
-4.35
-4.19
-4.42
-5.01
-5.88
-6.85
-7.73
-8.25
-8.17
-7.34
-5.84
-3.92
-1.97
-0.31
0.88
1.58
1.92
1.94
1.72
1.31
0.84
0.51
0.54
1.0
1.79
2.7
3.46
3.97
4.26
4.45
4.65
4.9
5.16
5.36
5.48
5.52
5.48
5.36
5.12
4.77
4.36
3.96
3.67
3.52
3.46
3.39
3.21
2.81
2.16
1.27
0.19
-0.93
-2.01
-2.97
-3.85
-4.74
-5.78
-6.99
-8.34
-9.74
-10.96
-11.85
-12.29
-12.22
-11.65
-10.64
-9.29
-7.8
-6.37
-5.14
-4.18
-3.44
-2.8
-2.16
-1.45
-0.73
-0.1
0.33
0.55
0.51
0.28
-0.12
-0.59
-0.92
-0.91
-0.35
0.79
2.37
4.04
5.5
6.51
7.06
7.36
7.57
7.67
7.41
6.49
4.79
2.63
0.55
-0.75
-0.92
-0.06
1.2
2.03
1.78
0.29
-1.91
-4.11
-5.51
-5.69
-4.77
-3.42
-2.5
-2.75
-4.24
-6.22
-7.82
-8.24
-7.18
-5.07
-2.89
-1.81
-2.56
-4.81
-7.14
-8.53
-8.4
-6.77
-4.11
-0.62
3.55
8.12
12.29
14.61
12.08
2.93
-11.15
-24.34
-28.79
-19.29
2.9
29.61
49.32
50.77
28.9
-13.69
-69.12
-128.81
-187.81
-245.64
-303.83
-350.67
-372.47
-358.69
-309.34
-235.83
-154.45
-79.17
-18.0
27.16
58.75
79.71
93.01
100.72
104.15
104.27
101.66
96.65
89.72
82.13
74.44
67.51
61.55
56.35
51.56
46.54
40.47
32.49
22.14
8.2
-9.65
-30.74
-52.37
-69.15
-75.13
-66.58
-44.11
-12.86
18.72
42.86
54.35
52.13
39.35
20.54
-0.87
-23.34
-46.58
-73.6
-102.74
-129.56
-153.35
-173.99
-192.33
-209.74
-227.42
-245.38
-262.48
-276.13
-283.92
-285.77
-281.44
-271.61
-257.63
-240.9
-222.32
-202.3
-180.36
-156.44
-131.11
-104.83
-78.5
-53.23
-29.97
-9.23
8.78
24.42
37.77
48.59
56.79
62.1
64.38
63.67
60.39
55.23
49.17
42.96
37.01
31.67
26.96
22.88
19.35
16.5
14.5
13.65
14.07
15.56
17.86
20.45
22.92
25.03
26.92
29.0
31.8
35.67
40.51
45.89
51.01
55.28
58.49
61.16
64.28
68.98
75.98
85.14
95.58
105.92
115.08
122.76
129.74
137.61
148.17
162.8
182.02
205.24
230.67
255.62
276.83
291.12
296.21
291.47
278.18
259.08
237.46
215.9
195.54
175.96
156.01
135.02
113.81
95.18
83.2
81.8
92.84
114.95
143.43
171.77
194.0
206.67
209.65
205.09
195.65
182.77
166.38
145.93
121.84
96.48
73.6
56.91
48.3
47.02
49.91
52.88
52.7
48.0
39.64
29.79
20.78
13.95
9.24
5.55
1.57
-3.24
-8.45
-12.85
-15.44
-16.04
-15.47
-14.89
-15.13
-16.24
-17.51
-18.2
-17.87
-16.71
-15.33
-14.41
-14.28
-14.87
-15.88
-16.91
-17.62
-17.6
-16.44
-13.9
-10.13
-5.83
-1.97
0.48
1.08
-0.08
-2.62
-6.37
-11.65
-19.02
-28.76
-40.22
-51.83
-61.41
-67.14
-68.18
-64.79
-58.1
-49.27
-39.4
-29.39
-20.36
-13.64
-10.46
-11.29
-15.46
-21.33
-26.77
-30.2
-30.89
-29.08
-25.52
-21.14
-16.72
-12.81
-9.87
-8.18
-7.77
-8.28
-9.12
-9.61
-9.37
-8.35
-6.72
-4.75
-2.68
-0.87
0.27
0.44
-0.52
-2.36
-4.54
-6.49
-7.95
-9.01
-10.07
-11.52
-13.33
-15.2
-16.61
-17.24
-17.06
-16.37
-15.56
-14.9
-14.49
-14.14
-13.68
-12.89
-11.71
-10.18
-8.48
-6.8
-5.29
-3.91
-2.45
-0.8
0.95
2.35
2.8
1.81
-0.64
-3.98
-7.25
-9.43
-9.82
-8.4
-5.77
-2.84
-0.39
1.27
2.25
2.87
3.46
4.32
5.55
7.07
8.73
10.42
12.09
13.78
15.41
16.92
18.53
20.38
22.42
24.33
25.82
26.73
27.24
27.71
28.53
30.83
35.12
41.08
47.69
54.09
59.99
65.73
71.81
78.44
87.29
99.08
113.18
127.85
141.39
153.02
162.99
172.26
181.7
194.84
213.54
237.02
262.03
284.83
302.92
315.69
323.91
328.85
335.78
348.16
365.8
384.35
397.4
398.77
384.53
353.86
285.07
173.32
31.79
-112.46
-233.53
-318.43
-367.6
-388.14
-387.81
-373.31
-345.71
-306.75
-260.62
-214.57
-174.04
-141.99
-118.49
-101.6
-89.69
-78.44
-65.51
-51.36
-38.75
-30.79
-29.39
-35.18
-43.45
-50.92
-53.37
-48.49
-36.45
-19.43
-0.28
18.7
36.26
52.06
65.38
76.63
85.96
92.95
96.92
97.32
94.28
88.54
81.37
73.47
65.77
58.86
52.81
47.47
42.51
37.8
33.37
29.48
26.12
23.29
20.98
19.08
17.51
16.1
14.74
13.3
11.71
9.87
7.69
5.2
2.45
-0.4
-3.25
-5.94
-8.34
-10.35
-11.96
-13.21
-14.14
-14.86
-15.44
-15.96
-16.48
-17.02
-17.58
-18.09
-18.54
-18.84
-18.96
-18.87
-18.57
-18.11
-17.52
-16.9
-16.28
-15.77
-15.38
-15.14
-15.02
-14.98
-14.96
-14.85
-14.65
-14.26
-13.73
-13.06
-12.33
-11.66
-11.15
-10.96
-11.15
-11.86
-13.07
-14.75
-16.77
-18.98
-21.16
-23.09
-24.55
-25.34
-25.4
-24.65
-23.23
-21.26
-18.98
-16.68
-14.63
-13.13
-12.33
-12.39
-13.27
-14.92
-17.16
-19.7
-22.28
-24.61
-26.52
-27.9
-28.77
-29.21
-29.34
-29.31
-29.17
-29.01
-28.82
-28.65
-28.52
-28.51
-28.68
-29.02
-29.51
-30.0
-30.36
-30.45
-30.28
-30.02
-29.99
-30.58
-32.06
-34.57
-37.95
-41.93
-46.16
-50.47
-54.97
-60.0
-65.99
-73.25
-81.7
-90.9
-100.2
-109.01
-117.12
-124.92
-133.25
-143.04
-154.93
-168.93
-184.32
-200.12
-215.38
-229.7
-243.36
-257.12
-271.96
-288.75
-308.21
-330.63
-355.67
-381.83
-406.25
-424.97
-433.91
-430.42
-414.44
-388.81
-358.19
-327.23
-298.86
-273.55
-250.08
-226.94
-203.64
-180.9
-160.04
-141.83
-126.0
-111.45
-97.14
-82.95
-69.74
-58.94
-51.38
-46.79
-43.66
-39.98
-34.15
-25.67
-15.38
-4.94
3.94
10.37
14.56
17.69
21.2
25.96
31.98
38.26
43.4
46.14
46.0
43.4
39.46
35.63
33.14
32.69
34.09
36.36
38.02
37.85
35.54
32.05
29.23
28.83
31.63
36.84
42.47
46.31
46.84
43.99
