-2.07
-2.39
-0.41
2.77
5.76
7.32
6.73
3.9
-0.69
-6.36
-12.4
-18.08
-22.77
-25.89
-27.18
-26.97
-26.26
-26.29
-27.89
-30.89
-34.01
-35.68
-34.94
-32.14
-28.57
-25.62
-23.7
-22.07
-19.4
-14.84
-8.73
-2.25
3.28
7.13
9.37
10.39
10.55
10.11
9.43
9.05
9.6
11.26
13.37
14.71
14.17
11.6
8.01
5.17
4.63
7.25
12.84
20.45
28.72
36.11
40.94
41.7
37.6
29.01
17.6
5.64
-4.76
-12.17
-16.02
-16.31
-13.46
-8.28
-2.16
3.17
5.87
4.69
-0.15
-7.02
-13.57
-18.07
-20.3
-21.51
-23.17
-26.3
-30.88
-35.71
-39.16
-40.01
-38.55
-36.29
-34.99
-34.56
-33.32
-28.9
-18.96
-1.91
22.98
55.44
94.23
136.91
180.41
219.37
246.46
255.68
245.62
221.04
191.0
165.25
150.5
149.81
161.17
178.47
195.31
207.33
212.17
207.55
190.05
147.74
78.17
-8.61
-96.86
-173.13
-230.15
-265.54
-280.72
-280.22
-270.43
-257.11
-244.88
-238.61
-240.53
-248.56
-256.66
-257.03
-242.49
-209.36
-162.49
-105.84
-49.56
-5.44
17.8
18.17
0.95
-23.72
-45.04
-55.38
-52.95
-43.35
-34.49
-32.2
-37.76
-48.75
-61.84
-75.51
-91.39
-110.69
-136.59
-170.72
-211.5
-253.93
-290.71
-314.55
-320.48
-307.25
-277.53
-238.25
-197.03
-159.46
-127.82
-101.39
-78.4
-57.73
-39.65
-25.02
-14.57
-7.46
-1.27
6.57
17.38
30.2
42.29
50.18
51.38
45.11
32.64
16.78
0.59
-13.58
-24.82
-33.48
-40.6
-47.12
-53.4
-59.06
-63.13
-64.73
-63.42
-59.49
-53.88
-47.74
-42.22
-38.04
-35.58
-34.86
-35.78
-38.26
-42.24
-47.74
-54.59
-62.5
-70.86
-78.91
-85.77
-90.72
-93.24
-93.06
-90.25
-85.1
-78.1
-69.78
-60.66
-51.19
-41.73
-32.6
-23.92
-15.86
-8.47
-1.81
4.14
9.45
14.2
18.58
22.67
26.55
30.16
33.44
36.26
38.52
40.33
41.88
43.57
45.68
48.48
51.96
55.94
60.06
63.98
67.69
71.42
75.74
81.2
88.15
96.58
106.02
115.82
125.37
134.61
143.98
154.45
166.95
181.99
199.31
217.91
236.46
253.57
268.44
280.94
291.75
302.14
313.85
328.61
347.39
369.46
391.91
410.24
419.5
416.15
399.2
370.6
334.63
296.53
260.97
230.78
206.42
186.22
167.41
147.42
125.03
100.69
75.76
51.57
28.79
7.79
-10.55
-24.36
-31.25
-30.13
-22.45
-12.19
-4.06
-1.2
-3.72
-9.08
-13.94
-16.1
-15.46
-13.27
-10.94
-9.07
-7.55
-6.47
-6.7
-9.43
-15.23
-23.0
-29.96
-32.98
-30.65
-24.79
-20.13
-21.83
-32.36
-49.38
-66.41
-76.07
-74.08
-61.55
-44.19
-29.12
-20.89
-19.67
-22.03
-23.86
-23.13
-20.77
-19.22
-19.87
-21.84
-22.43
-19.44
-13.19
-6.68
-3.78
-6.56
-13.67
-20.84
-23.8
-20.98
-14.73
-9.69
-9.44
-14.01
-19.64
-21.42
-16.67
-6.79
3.6
9.53
8.63
2.44
-4.91
-9.13
-8.16
-2.77
4.12
9.22
10.46
7.67
2.55
-2.35
-4.7
-3.72
-0.55
2.13
1.57
-3.35
-11.34
-19.08
-23.19
-22.13
-17.49
-13.02
-12.4
-16.76
-23.83
-29.38
-29.8
-24.48
-15.88
-7.92
-3.24
-1.59
-0.43
3.04
9.43
16.81
21.79
22.05
17.73
11.27
5.64
2.4
1.38
1.6
2.73
5.5
10.9
18.55
26.12
30.18
28.07
19.87
8.23
-3.07
-11.48
-16.93
-21.35
-26.86
-33.86
-40.73
-44.88
-44.56
-39.93
-32.69
-24.82
-17.37
-10.4
-3.8
1.76
4.92
4.43
0.46
-5.09
-9.51
-10.92
-9.43
-6.99
-6.09
-7.92
-11.9
-16.17
-19.2
-20.71
-21.43
-22.19
-22.88
-22.73
-21.13
-18.73
-17.3
-18.54
-22.42
-26.44
-26.77
-20.32
-7.21
8.73
21.34
25.33
19.05
5.36
-9.69
-20.11
-22.57
-17.72
-9.23
-1.63
1.95
1.15
-2.21
-5.41
-6.57
-5.38
-2.82
-0.16
2.05
4.01
6.28
8.72
10.73
11.26
9.75
6.6
2.84
-0.67
-4.39
-9.91
-18.86
-30.72
-42.68
-50.85
-52.66
-48.73
-42.79
-39.92
-43.55
-53.85
-67.15
-79.02
-87.03
-91.96
-96.8
-104.22
-114.54
-125.51
-134.1
-136.86
-133.65
-128.2
-126.14
-131.77
-145.23
-162.22
-176.1
-181.83
-173.49
-150.01
-114.78
-73.37
-30.37
12.66
56.63
102.72
149.5
201.01
259.22
323.41
390.39
455.98
516.88
571.23
618.4
657.25
697.27
746.77
809.35
882.46
959.29
1032.43
1096.54
1148.91
1135.7
1026.6
819.18
543.54
246.79
-29.93
-263.51
-447.4
-574.57
-660.65
-710.24
-725.87
-711.82
-676.45
-630.12
-581.52
-537.1
-498.59
-466.72
-432.27
-387.72
-330.7
-265.52
-200.98
-146.48
-108.65
-89.61
-88.77
-96.84
-104.66
-106.64
-102.32
-95.21
-89.74
-88.75
-92.23
-98.93
-103.54
-101.76
-92.13
-76.6
-59.57
-46.2
-40.83
-45.53
-60.44
-82.09
-105.71
-126.73
-141.94
-150.05
-151.48
-147.61
-139.95
-130.12
-119.19
-108.17
-98.12
-90.05
-84.61
-81.88
-81.29
-81.85
-82.5
-82.39
-81.13
-78.7
-75.39
-71.49
-67.12
-62.16
-56.24
-48.99
-40.23
-30.25
-19.74
-9.7
-1.13
5.15
8.72
9.58
8.11
4.94
0.74
-3.93
-8.7
-13.44
-18.06
-22.4
-26.13
-28.82
-30.1
-30.0
-28.88
-27.37
-26.04
-25.12
-24.49
-23.79
-22.77
-21.43
-20.13
-19.3
-19.26
-20.02
-21.36
-22.96
-24.53
-25.94
-27.14
-28.16
-28.98
-29.67
-30.38
-31.32
-32.6
-34.0
-34.96
-34.53
-31.71
-25.68
-16.2
-3.65
10.94
26.1
40.34
52.4
61.54
67.63
70.94
71.92
70.93
68.29
64.11
58.59
51.91
44.34
36.1
27.42
18.59
10.01
2.26
-4.12
-8.71
-11.43
-12.39
-11.87
-10.19
-7.62
-4.51
-1.32
1.4
3.22
4.04
4.05
3.71
3.4
3.23
3.05
2.55
1.55
0.09
-1.49
-2.81
-3.55
-3.7
-3.41
-2.95
-2.49
-2.15
-2.04
-2.31
-3.22
-4.89
-7.22
-9.86
-12.22
-13.82
-14.35
-13.89
-12.71
-11.19
-9.58
-7.95
-6.34
-4.78
-3.49
-2.65
-2.48
-3.01
-4.2
-5.87
-7.84
-9.95
-12.07
-14.15
-16.07
-17.84
-19.39
-20.71
-21.8
-22.67
-23.36
-23.88
-24.18
-24.05
-23.26
-21.54
-18.82
-15.3
-11.38
-7.54
-4.19
-1.52
0.59
2.38
4.13
5.98
7.86
9.61
11.08
12.19
13.01
13.72
14.42
15.15
15.84
16.33
16.56
16.49
16.2
15.83
15.46
15.18
15.1
15.24
15.59
16.04
16.37
16.33
15.74
14.56
12.89
10.98
9.11
7.44
6.06
4.88
3.76
2.58
1.31
-0.03
-1.41
-2.78
-4.13
-5.41
-6.57
-7.53
-8.29
-8.95
-9.7
-10.77
-12.21
-13.76
-14.86
-14.87
-13.36
-10.33
-6.28
-1.93
2.01
5.18
7.57
9.48
11.15
12.71
14.13
15.25
15.98
16.35
16.52
16.65
16.85
17.08
17.17
16.92
16.18
14.95
13.41
11.81
10.38
9.23
8.43
7.96
7.88
8.21
8.97
10.08
11.26
12.14
12.32
11.55
9.79
7.29
4.45
1.78
-0.31
-1.64
-2.24
-2.35
-2.23
-2.05
-1.94
-1.96
-2.18
-2.77
-3.86
-5.56
-7.87
-10.72
-13.89
-17.05
-19.76
-21.5
-21.89
-20.8
-18.47
-15.38
-12.2
-9.34
-7.03
-5.23
-3.8
-2.62
-1.6
-0.6
0.62
2.36
4.84
7.96
11.29
14.19
16.05
16.65
16.17
15.13
14.05
13.26
12.74
12.24
11.52
10.4
9.0
7.52
6.16
5.07
4.26
3.63
3.06
2.5
1.92
1.41
1.06
0.89
0.82
0.62
-0.01
-1.25
-3.05
-5.11
-7.01
-8.41
-9.21
-9.59
-9.86
-10.39
-11.37
-12.78
-14.45
-16.06
-17.27
-17.69
-17.04
-15.21
-12.33
-8.8
-5.16
-1.95
0.44
1.9
2.49
2.52
2.29
2.15
2.31
2.87
3.73
4.71
5.59
6.14
6.33
6.15
5.74
5.22
4.74
4.47
4.6
5.28
6.53
8.19
9.95
11.45
12.37
12.6
12.16
11.22
10.0
8.63
7.19
5.7
4.19
2.74
1.44
0.42
-0.24
-0.58
-0.69
-0.69
-0.69
-0.79
-1.03
-1.51
-2.24
-3.24
-4.41
-5.65
-6.84
-7.85
-8.63
-9.08
-9.08
-8.43
-7.06
-5.01
-2.61
-0.31
1.53
2.7
3.3
3.57
3.8
4.13
4.6
5.2
5.92
6.82
7.9
9.18
10.59
12.03
13.41
14.7
15.83
16.77
17.46
17.88
18.07
18.19
18.34
18.6
18.99
19.45
19.93
20.33
20.5
20.16
19.05
16.97
14.01
10.51
7.03
4.14
2.17
1.1
0.61
0.25
-0.32
-1.19
-2.27
-3.37
-4.28
-4.96
-5.5
-6.07
-6.88
-8.06
-9.67
-11.63
-13.74
-15.71
-17.11
-17.51
-16.59
-14.28
-10.82
-6.79
-2.91
0.17
2.17
3.13
3.42
3.51
3.7
4.05
4.44
4.66
4.55
4.09
3.3
2.27
1.03
-0.33
-1.76
-3.19
-4.62
-6.12
-7.81
-9.76
-11.95
-14.18
-16.21
-17.81
-18.92
-19.5
-19.59
-19.17
-18.16
-16.59
-14.57
-12.36
-10.24
-8.39
-6.91
-5.79
-5.09
-4.98
-5.66
-7.25
-9.67
-12.6
-15.66
-18.54
-21.07
-23.21
-24.84
-25.71
-25.46
-23.83
-20.84
-16.85
-12.48
-8.29
-4.68
-1.72
0.67
2.58
3.98
4.73
4.76
4.19
3.31
2.5
2.03
1.94
2.08
2.2
2.12
1.81
1.37
0.95
0.7
0.78
1.29
2.29
3.71
5.37
7.0
8.29
9.04
9.17
8.74
7.95
6.98
6.04
5.24
4.64
4.11
3.48
2.48
0.93
-1.15
-3.5
-5.74
-7.46
-8.41
-8.62
-8.37
-8.04
-8.02
-8.51
-9.47
-10.66
-11.74
-12.34
-12.2
-11.18
-9.28
-6.6
-3.36
0.23
3.86
7.2
9.92
11.74
12.57
12.56
11.99
11.22
10.45
9.75
9.05
8.2
7.13
5.93
4.82
3.96
3.48
3.35
3.39
3.39
3.18
2.63
1.83
0.92
0.09
-0.53
-0.98
-1.47
-2.28
-3.51
-5.08
-6.63
-7.77
-8.17
-7.74
-6.58
-4.95
-3.13
-1.4
0.02
0.87
0.94
0.1
-1.55
-3.67
-5.78
-7.42
-8.29
-8.47
-8.2
-7.87
-7.76
-7.91
-8.1
-7.95
-7.15
-5.59
-3.43
-0.98
1.38
3.37
4.87
5.89
6.49
6.75
6.71
6.35
5.71
4.91
4.06
3.25
2.53
1.83
1.15
0.55
0.12
0.0
0.32
1.03
2.1
3.46
5.01
6.69
8.44
10.06
11.29
11.93
11.86
11.13
9.93
8.45
6.87
5.3
3.76
2.27
0.85
-0.48
-1.75
-3.0
-4.25
-5.4
-6.3
-6.87
-7.08
-7.06
-7.02
-7.2
-7.76
-8.75
-10.05
-11.42
-12.51
-12.87
-12.2
-10.39
-7.67
-4.5
-1.42
1.11
2.89
3.9
4.28
4.2
3.81
3.23
2.64
2.15
1.88
1.81
1.9
2.14
2.49
2.96
3.54
4.12
4.54
4.71
4.63
4.45
4.4
4.63
5.14
5.75
6.23
6.37
6.17
5.77
5.32
4.86
4.26
3.31
1.9
0.14
-1.64
-3.06
-3.87
-4.07
-3.92
-3.77
-3.84
-4.14
-4.56
-4.91
-5.11
-5.22
-5.38
-5.72
-6.34
-7.25
-8.42
-9.83
-11.34
-12.76
-13.79
-14.07
-13.29
-11.36
-8.45
-5.03
-1.73
0.91
2.54
3.19
3.12
2.76
2.48
2.46
2.68
2.94
3.12
3.13
3.03
2.97
2.99
3.11
3.26
3.4
3.53
3.81
4.38
5.32
6.6
7.92
9.02
9.58
9.49
8.76
7.52
5.95
4.16
2.31
0.45
-1.31
-2.9
-4.25
-5.35
-6.24
-6.95
-7.54
-7.96
-8.29
-8.51
-8.6
-8.56
-8.37
-8.07
-7.78
-7.66
-7.92
-8.72
-10.07
-11.83
-13.77
-15.55
-16.82
-17.3
-16.8
-15.25
-12.81
-9.73
-6.38
-3.14
-0.3
2.03
3.8
5.1
6.07
6.85
7.56
8.26
8.95
9.63
10.26
10.83
11.32
11.7
11.92
11.87
11.55
11.06
10.59
10.31
10.31
10.5
10.59
10.26
9.28
7.71
5.76
3.82
2.19
1.03
0.31
-0.09
-0.39
-0.75
-1.29
-2.03
-2.91
-3.83
-4.75
-5.69
-6.7
-7.86
-9.13
-10.4
-11.55
-12.58
-13.64
-14.99
-16.7
-18.47
-19.71
-19.7
-18.03
-14.78
-10.51
-6.01
-1.92
1.44
4.05
6.07
7.55
8.42
8.56
8.0
6.93
5.75
4.86
4.48
4.61
5.07
5.58
5.92
6.0
5.84
5.64
5.56
5.8
6.44
7.37
8.37
9.15
9.53
9.5
9.22
8.87
8.49
7.91
6.84
5.1
2.74
0.0
-2.79
-5.45
-8.01
-10.63
-13.39
-16.27
-19.14
-21.85
-24.39
-26.86
-29.36
-31.9
-34.48
-37.17
-40.28
-44.24
-49.36
-55.48
-61.91
-67.55
-71.38
-72.92
-72.52
-71.23
-70.34
-70.88
-73.26
-77.04
-81.16
-84.16
-84.6
-81.42
-74.38
-64.22
-52.37
-40.38
-29.09
-18.2
-6.33
8.33
27.18
50.49
77.14
104.84
130.62
151.33
164.22
167.67
161.73
148.39
131.2
114.13
100.18
90.49
84.25
79.6
74.93
69.66
64.23
59.44
55.68
52.67
49.69
46.28
42.63
39.52
37.81
37.85
39.17
40.66
41.03
39.47
35.97
31.26
26.49
22.65
20.18
18.76
17.53
15.47
12.09
7.61
2.94
-0.73
-2.53
-2.23
-0.37
2.08
4.07
4.81
3.72
0.35
-5.7
-14.45
-25.29
-36.81
-47.04
-54.1
-56.88
-55.46
-51.08
-45.47
-40.16
-35.91
-32.67
-29.95
-27.28
-24.55
-22.05
-20.27
-19.67
-20.54
-22.87
-26.21
-29.75
-32.35
-32.83
-30.28
-24.39
-15.61
-5.12
5.59
15.1
22.4
26.93
28.75
28.32
26.49
24.34
22.94
23.01
24.76
27.83
31.46
34.74
36.86
37.23
35.56
31.8
26.17
19.08
11.14
3.06
-4.44
-10.7
-15.23
-17.69
-18.01
-16.44
-13.53
-10.03
-6.67
-3.84
-1.47
0.96
4.24
8.98
15.42
23.25
31.71
39.87
46.97
52.68
57.09
60.67
63.96
67.36
70.89
74.13
76.28
76.26
73.09
66.09
55.34
41.84
27.38
13.99
3.2
-4.43
-9.48
-13.32
-17.46
-23.09
-30.85
-40.86
-52.88
-66.28
-79.87
-91.87
-100.26
-103.5
-101.34
-95.12
-87.35
-80.77
-77.39
-77.95
-81.84
-87.44
-92.64
-95.26
-93.4
-85.96
-72.9
-55.48
-35.94
-16.84
-0.11
13.61
24.93
35.33
46.26
58.49
71.83
85.34
97.74
107.82
114.71
117.95
117.56
114.02
108.36
102.08
96.82
93.91
93.82
95.95
99.0
101.53
102.81
103.07
103.3
104.54
107.1
110.08
111.53
109.19
101.46
88.42
71.98
55.3
41.51
32.24
26.85
22.71
16.55
5.71
-10.09
-28.23
-43.89
-51.73
-47.93
-31.8
-6.12
23.53
50.5
69.41
77.32
74.06
62.01
45.85
32.16
28.29
40.08
68.73
109.64
153.09
187.48
203.72
198.7
176.1
143.84
110.22
79.76
54.06
33.4
18.38
10.24
9.67
15.61
25.03
33.83
35.5
26.0
4.51
-27.15
-66.56
-112.28
-164.24
-222.84
-287.94
-362.29
-445.34
-532.82
-617.82
-693.57
-755.65
-802.89
-837.0
-861.5
-885.04
-911.81
-938.96
-957.45
-956.95
-931.08
-880.43
-812.33
-703.45
-550.49
-366.79
-177.43
-6.43
132.41
235.76
306.54
350.36
373.79
378.28
366.94
344.01
316.15
288.59
263.62
241.68
222.63
206.84
191.2
174.49
157.68
143.47
134.28
129.67
128.34
129.03
131.34
133.21
134.02
134.33
135.51
138.13
141.67
145.34
148.84
152.9
157.96
165.1
175.4
189.39
206.26
224.29
241.9
258.47
274.69
291.95
312.16
337.13
368.06
404.93
445.87
487.05
522.63
545.92
551.5
537.43
506.41
464.92
420.55
378.78
341.01
304.76
266.17
222.95
176.26
130.14
89.31
56.61
31.92
12.78
-3.7
-19.12
-33.33
-45.37
-55.03
-63.94
-75.41
-93.07
-119.19
-153.78
-195.06
-240.19
-286.18
-329.66
-366.71
-393.11
-405.79
-404.82
-394.11
-380.15
-368.92
-363.2
-361.86
-361.85
-360.91
-359.14
-358.06
-357.59
-354.37
-342.29
-315.75
-272.98
-217.61
-157.29
-100.4
-53.25
-19.37
-0.77
1.11
-14.3
-45.3
-86.97
-132.32
-174.69
-209.96
-236.87
-255.64
-265.77
-265.19
-251.38
-223.69
-184.86
-140.83
-98.14
-60.99
-29.79
-1.62
27.31
59.11
93.2
126.53
155.01
175.12
185.23
186.42
182.13
176.79
174.04
175.35
179.54
183.72
185.16
182.77
177.48
171.72
168.03
168.22
173.27
183.5
198.57
216.95
235.54
249.99
256.5
253.17
240.96
223.03
203.02
183.7
166.4
151.65
139.99
132.32
128.69
127.41
124.91
117.21
102.24
81.27
58.73
40.11
30.04
29.6
36.33
45.85
54.12
59.24
61.79
63.83
67.41
74.76
86.16
100.17
114.49
127.36
138.57
149.33
161.09
174.36
190.26
208.35
227.24
245.14
260.81
274.08
285.47
295.5
304.09
313.59
325.96
342.0
360.39
377.35
387.48
385.41
367.62
316.97
227.81
106.55
-29.27
-158.41
-265.19
-343.82
-396.37
-428.15
-444.53
-447.03
-437.13
-417.6
-392.69
-367.07
-344.23
-325.57
-310.52
-297.74
-283.91
-266.91
-246.58
-224.54
-203.34
-185.02
-170.31
-158.68
-149.11
-139.33
-127.89
-114.56
-100.29
-86.61
-74.79
-65.32
-57.87
-51.8
-45.89
-39.29
-31.74
-23.54
-15.23
-7.22
0.35
7.7
15.09
22.78
30.76
38.62
45.69
51.29
54.67
55.43
53.44
48.92
42.25
34.02
24.85
15.5
6.66
-1.02
-7.12
-11.41
-13.82
-14.46
-13.71
-12.0
-9.79
-7.47
-5.26
-3.23
-1.3
0.79
3.54
7.19
12.12
18.56
26.65
36.27
47.19
58.93
71.0
83.02
94.14
103.82
111.82
118.16
123.04
126.91
130.31
133.9
138.3
143.34
148.93
154.82
160.51
165.36
168.51
168.77
164.5
158.34
150.83
142.38
133.28
123.63
113.61
103.38
93.18
83.43
74.66
66.79
59.92
54.04
49.0
44.54
40.43
36.51
32.92
30.02
27.65
25.85
24.38
22.75
20.34
16.56
11.15
4.45
-2.77
-9.95
-16.49
-22.35
-28.0
-34.35
-42.29
-52.33
-64.16
-76.78
-89.08
-100.14
-109.65
-118.09
-126.62
-136.68
-149.5
-165.81
-185.43
-206.87
-227.26
-242.71
-249.55
-245.79
-232.57
-214.04
-196.34
-185.42
-184.92
-195.03
-212.83
-233.5
-251.88
-264.05
-267.91
-263.13
-250.83
-233.1
-212.53
-191.83
-173.43
-158.93
-149.06
-143.61
-141.52
-141.28
-141.39
-140.83
-139.4
-137.83
-137.31
-139.04
-143.46
-149.66
-155.33
-157.07
-151.34
-135.55
-109.04
-73.31
-31.82
11.24
52.15
88.3
118.59
142.97
161.79
175.25
183.34
186.07
183.82
177.68
169.14
159.81
150.92
143.03
135.96
129.1
121.72
113.28
103.61
92.86
81.41
69.76
58.46
48.06
38.92
31.32
25.29
20.81
17.66
15.59
14.15
12.82
11.11
8.68
5.47
1.66
-2.32
-6.18
-9.83
-13.5
-17.72
-22.92
-29.27
-36.41
-43.53
-49.38
-52.73
-52.8
-49.37
-43.12
-35.24
-27.11
-19.79
-13.88
-9.34
-5.79
-2.85
-0.08
2.61
5.19
7.48
9.41
10.91
12.06
13.03
14.0
15.22
16.85
18.92
21.32
23.86
26.31
28.34
29.57
29.56
28.05
24.93
20.48
15.41
10.59
6.97
5.11
5.17
6.68
8.84
10.74
11.54
10.87
8.61
4.98
0.47
-4.29
-8.85
-12.85
-16.27
-19.37
-22.42
-25.71
-29.19
-32.42
-34.64
-35.07
-33.17
-28.93
-22.9
-15.94
-9.05
-2.95
2.02
5.94
9.03
11.54
13.62
15.28
16.58
17.68
18.84
20.3
22.18
24.38
26.65
28.64
30.03
30.74
30.78
30.29
29.43
28.27
26.83
25.03
22.79
20.13
17.2
14.29
11.68
9.65
8.27
7.37
6.58
5.48
3.76
1.33
-1.65
-4.86
-7.95
-10.6
-12.66
-14.19
-15.37
-16.61
-18.28
-20.63
-23.64
-26.85
-29.47
-30.48
-29.06
-24.76
-17.83
-9.15
0.1
8.65
15.58
20.44
23.21
24.27
24.08
23.09
21.62
19.99
18.38
17.0
15.98
15.36
15.19
15.46
16.08
16.92
17.89
18.77
19.41
19.65
19.41
18.71
17.59
16.15
14.38
12.26
9.69
6.83
3.94
1.38
-0.57
-1.98
-3.09
-4.32
-6.02
-8.23
-10.61
-12.67
-13.98
-14.38
-14.08
-13.54
-13.27
-13.73
-15.25
-17.91
-21.59
-25.92
-30.13
-33.37
-34.73
-33.68
-30.15
-24.73
-18.35
-12.06
-6.71
-2.55
0.24
2.01
2.99
3.59
4.09
4.77
5.77
7.14
8.81
10.5
12.04
13.32
14.38
15.3
15.97
16.09
15.3
13.43
10.67
7.7
5.49
4.77
5.99
8.8
12.44
16.12
19.24
21.5
22.91
23.61
23.62
22.98
21.7
19.82
17.45
14.77
11.94
9.12
6.38
3.77
1.33
-1.02
-3.42
-6.02
-9.06
-12.58
-16.62
-21.07
-25.68
-29.84
-32.82
-33.89
-32.42
-28.41
-22.28
-14.99
-7.66
-1.33
3.47
6.69
8.6
9.71
10.51
11.3
12.27
13.42
14.62
15.74
16.64
17.26
17.66
17.94
18.26
18.74
19.34
19.98
20.44
20.53
20.12
19.22
17.82
16.02
13.98
11.71
9.3
6.79
4.31
2.01
0.08
-1.4
-2.44
-3.13
-3.62
-4.06
-4.44
-4.77
-4.99
-5.01
-4.89
-4.83
-5.01
-5.67
-6.88
-8.64
-11.03
-14.15
-17.98
-22.35
-26.68
-30.01
-31.25
-29.53
-24.62
-17.26
-8.69
-0.4
6.51
11.64
15.17
17.7
19.78
21.68
23.27
24.2
24.11
22.8
20.52
17.76
15.1
13.06
11.86
11.36
11.31
11.38
11.31
11.09
10.79
10.42
9.88
9.05
7.81
6.23
4.56
3.01
1.8
0.89
0.17
-0.57
-1.44
-2.41
-3.4
-4.26
-5.09
-5.88
-6.74
-7.67
-8.62
-9.54
-10.38
-11.19
-12.03
-13.0
-14.23
-15.82
-17.89
-20.47
-23.37
-26.1
-28.04
-28.43
-26.89
-23.49
-18.8
-13.74
-9.18
-5.59
-3.05
-1.26
0.39
2.3
4.67
7.3
9.81
11.82
13.07
13.46
13.07
12.17
10.97
9.74
8.67
8.09
8.27
9.49
11.76
14.82
18.24
21.48
24.02
25.55
25.89
25.02
23.08
20.23
16.71
12.81
8.76
4.79
1.2
-1.74
-3.82
-4.91
