14.6
15.66
17.07
18.64
20.09
21.22
21.94
22.15
21.85
21.06
19.81
18.28
16.73
15.42
14.47
13.72
12.73
11.01
8.22
4.41
0.07
-4.04
-7.24
-9.19
-10.05
-10.37
-10.82
-11.91
-13.85
-16.47
-19.43
-22.38
-25.2
-27.93
-30.83
-34.15
-38.05
-42.43
-46.82
-50.46
-52.36
-51.69
-47.97
-41.35
-32.62
-22.92
-13.47
-5.17
1.52
6.59
10.19
12.49
13.58
13.6
12.94
12.31
12.57
14.36
17.76
22.01
25.72
27.3
25.6
20.49
12.82
4.16
-3.98
-10.86
-16.73
-22.72
-30.12
-39.77
-51.64
-64.96
-78.62
-91.58
-102.89
-111.37
-115.4
-113.1
-103.26
-86.18
-64.03
-40.22
-18.03
0.87
16.93
32.03
48.11
65.7
83.88
101.02
116.26
130.0
143.41
156.93
169.0
176.07
174.08
160.82
137.66
109.55
83.14
63.88
53.64
49.86
46.83
38.35
20.51
-6.6
-39.08
-71.04
-96.95
-113.59
-120.64
-119.92
-113.86
-104.28
-91.98
-77.16
-60.35
-42.92
-26.92
-14.13
-5.09
1.26
7.03
14.29
24.14
36.33
49.53
61.99
72.16
79.06
82.36
82.2
79.06
73.63
66.71
59.17
51.75
44.98
39.2
34.44
30.52
27.02
23.51
19.61
15.25
10.73
6.55
3.21
0.96
-0.35
-1.19
-2.16
-3.85
-6.65
-10.68
-15.74
-21.21
-26.11
-29.28
-29.68
-26.81
-20.97
-13.12
-4.68
2.97
8.88
12.64
14.32
14.31
13.12
11.28
9.26
7.47
6.14
5.33
4.9
4.7
4.61
4.68
5.01
5.73
6.84
8.19
9.51
10.53
11.03
10.9
10.11
8.67
6.71
4.36
1.86
-0.56
-2.65
-4.31
-5.59
-6.72
-8.08
-10.01
-12.7
-16.02
-19.62
-22.98
-25.65
-27.44
-28.39
-28.81
-29.1
-29.66
-30.84
-32.78
-35.4
-38.28
-40.69
-41.75
-40.75
-37.33
-31.75
-24.82
-17.59
-11.08
-5.95
-2.37
-0.12
1.28
2.36
3.54
4.99
6.66
8.24
9.38
9.86
9.69
9.15
8.66
8.6
9.11
10.14
11.41
12.69
13.8
14.64
15.13
15.2
14.74
13.72
12.16
10.16
7.86
5.39
2.86
0.41
-1.86
-3.9
-5.74
-7.52
-9.39
-11.47
-13.77
-16.18
-18.54
-20.79
-22.96
-25.18
-27.6
-30.28
-33.22
-36.37
-39.66
-42.89
-45.7
-47.48
-47.5
-45.11
-40.06
-32.72
-23.97
-15.01
-6.93
-0.44
4.29
7.54
9.8
11.56
13.26
15.12
17.24
19.55
21.9
24.06
25.82
27.02
27.59
27.58
27.13
26.43
25.62
24.81
23.97
23.04
21.96
20.67
19.25
17.76
16.29
14.81
13.29
11.64
9.82
7.92
6.07
4.43
3.04
1.84
0.66
-0.73
-2.45
-4.53
-6.88
-9.37
-11.85
-14.3
-16.69
-19.05
-21.47
-23.98
-26.64
-29.53
-32.64
-35.76
-38.39
-39.73
-38.98
-35.69
-29.92
-22.43
-14.35
-6.81
-0.57
4.22
7.81
10.69
13.2
15.49
17.45
18.98
20.04
20.71
21.13
21.46
21.79
22.19
22.7
23.34
24.15
25.07
25.93
26.5
26.53
25.84
24.42
22.49
20.3
18.17
16.3
14.75
13.45
12.26
11.0
9.56
7.86
5.91
3.78
1.5
-0.88
-3.35
-5.92
-8.56
-11.19
-13.7
-15.96
-17.95
-19.77
-21.64
-23.83
-26.58
-30.0
-33.95
-38.04
-41.62
-43.84
-43.88
-41.25
-35.94
-28.56
-20.22
-12.15
-5.34
-0.29
3.1
5.31
6.93
8.35
9.77
11.08
12.17
12.89
13.27
13.45
13.67
14.16
15.02
16.16
17.36
18.37
19.04
19.37
19.47
19.45
19.29
18.86
17.95
16.46
14.43
12.07
9.69
7.58
5.88
4.59
3.51
2.34
0.79
-1.33
-3.99
-7.0
-10.02
-12.73
-15.0
-16.92
-18.73
-20.8
-23.42
-26.72
-30.67
-34.93
-38.96
-41.96
-43.1
-41.77
-37.75
-31.45
-23.76
-15.85
-8.73
-2.96
1.45
4.91
7.91
10.81
13.7
16.47
18.92
20.89
22.29
23.14
23.51
23.54
23.44
23.45
23.78
24.48
25.42
26.33
26.93
27.04
26.62
25.76
24.57
23.19
21.69
20.11
18.51
16.87
15.19
13.45
11.63
9.69
7.62
5.41
3.07
0.6
-1.99
-4.65
-7.34
-9.99
-12.55
-15.02
-17.4
-19.75
-22.11
-24.57
-27.22
-30.14
-33.32
-36.52
-39.28
-40.94
-40.81
-38.41
-33.69
-27.11
-19.47
-11.76
-4.73
1.2
5.98
9.79
12.87
15.35
17.24
18.54
19.31
19.73
19.99
20.26
20.54
20.76
20.85
20.83
20.84
21.09
21.7
22.66
23.77
24.7
25.13
24.88
23.94
22.5
20.83
19.18
17.67
16.23
14.68
12.81
10.58
8.14
5.75
3.67
1.99
0.6
-0.81
-2.56
-4.77
-7.36
-10.08
-12.6
-14.71
-16.38
-17.76
-19.16
-20.91
-23.32
-26.5
-30.32
-34.33
-37.8
-39.83
-39.7
-37.06
-32.1
-25.53
-18.35
-11.51
-5.65
-1.04
2.42
5.05
7.17
9.03
10.78
12.43
14.0
15.49
16.88
18.1
19.14
19.93
20.47
20.79
20.93
20.98
20.99
20.91
20.69
20.24
19.55
18.64
17.57
16.35
14.93
13.26
11.25
8.99
6.69
4.59
2.88
1.55
0.41
-0.87
-2.58
-4.82
-7.5
-10.33
-13.0
-15.32
-17.25
-18.95
-20.62
-22.52
-24.82
-27.65
-31.01
-34.69
-38.22
-40.78
-41.45
-39.45
-34.55
-27.17
-18.39
-9.57
-1.89
4.04
8.29
11.31
13.71
15.88
17.96
19.82
21.34
22.39
22.96
23.17
23.11
22.96
22.82
22.82
23.03
23.49
24.17
24.94
25.63
26.02
25.93
25.24
23.91
22.07
19.94
17.81
15.87
14.24
12.84
11.52
10.05
8.31
6.29
4.13
2.05
0.17
-1.48
-3.1
-4.93
-7.17
-9.89
-12.89
-15.85
-18.48
-20.66
-22.47
-24.17
-26.06
-28.4
-31.25
-34.47
-37.68
-40.29
-41.52
-40.68
-37.34
-31.61
-24.17
-16.09
-8.53
-2.31
2.17
5.1
6.92
8.2
9.4
10.78
12.42
14.26
16.14
17.88
19.33
20.41
21.18
21.77
22.37
23.1
23.97
24.87
25.63
26.14
26.31
26.1
25.51
24.51
23.13
21.43
19.6
17.88
16.53
15.67
15.16
14.69
13.86
12.4
10.28
7.75
5.24
3.09
1.42
-0.01
-1.58
-3.62
-6.26
-9.34
-12.49
-15.32
-17.62
-19.44
-21.05
-22.83
-25.09
-28.02
-31.59
-35.54
-39.36
-42.31
-43.57
-42.44
-38.6
-32.32
-24.42
-16.07
-8.44
-2.34
1.97
4.77
6.61
8.0
9.28
10.53
11.67
12.65
13.43
14.06
14.63
15.18
15.71
16.16
16.54
16.86
17.21
17.65
18.22
18.9
19.56
20.04
20.15
19.77
18.89
17.64
16.19
14.74
13.36
12.01
10.56
8.88
6.93
4.78
2.65
0.79
-0.66
-1.69
-2.5
-3.36
-4.54
-6.18
-8.26
-10.57
-12.89
-14.98
-16.75
-18.25
-19.66
-21.27
-23.38
-26.2
-29.72
-33.66
-37.31
-39.77
-40.09
-37.7
-32.62
-25.57
-17.73
-10.34
-4.29
0.12
3.11
5.22
6.94
8.56
10.16
11.69
13.13
14.45
15.61
16.56
17.19
17.45
17.39
17.22
17.17
17.4
17.88
18.43
18.8
18.79
18.38
17.59
16.58
15.43
14.22
12.9
11.46
9.89
8.25
6.63
5.09
3.66
2.27
0.83
-0.76
-2.52
-4.47
-6.55
-8.68
-10.77
-12.73
-14.5
-16.06
-17.5
-18.99
-20.85
-23.43
-26.93
-31.25
-35.85
-39.8
-41.97
-41.49
-37.98
-31.83
-24.0
-15.73
-8.13
-1.85
2.96
6.54
9.24
11.38
13.12
14.53
15.67
16.6
17.41
18.11
18.67
19.02
19.14
19.05
18.87
18.76
18.86
19.2
19.73
20.28
20.64
20.58
19.96
18.75
17.06
15.16
13.33
11.8
10.63
9.7
8.76
7.59
6.09
4.34
2.57
0.98
-0.37
-1.56
-2.82
-4.39
-6.4
-8.8
-11.41
-13.97
-16.21
-18.05
-19.57
-21.01
-22.72
-25.0
-28.01
-31.7
-35.65
-39.17
-41.33
-41.29
-38.52
-33.11
-25.74
-17.55
-9.69
-3.01
2.17
6.03
9.04
11.64
14.09
16.45
18.59
20.4
21.84
22.96
23.87
24.63
25.25
25.7
25.94
26.01
26.0
26.11
26.5
27.21
28.15
29.07
29.76
30.11
30.16
30.08
30.08
30.35
30.95
31.84
32.91
34.01
35.0
35.71
35.96
35.53
34.33
32.36
29.79
26.92
24.05
21.5
19.41
17.76
16.37
15.02
13.55
11.85
9.94
7.83
5.56
3.11
0.47
-2.33
-5.19
-7.94
-10.45
-12.7
-14.85
-17.08
-19.59
-22.37
-25.2
-27.79
-29.75
-30.88
-31.1
-30.49
-29.18
-27.37
-25.22
-22.93
-20.74
-18.78
-17.17
-15.74
-14.28
-12.51
-10.28
-7.66
-4.88
-2.27
-0.13
1.36
2.22
2.51
2.41
2.03
1.48
0.8
-0.04
-1.04
-2.21
-3.54
-4.94
-6.27
-7.45
-8.45
-9.37
-10.32
-11.46
-12.83
-14.36
-15.95
-17.46
-18.84
-20.19
-21.63
-23.32
-25.35
-27.8
-30.72
-34.12
-37.8
-41.32
-43.92
-44.72
-43.05
-38.74
-32.29
-24.69
-17.07
-10.28
-4.74
-0.41
2.98
5.67
7.77
9.28
10.18
10.53
10.52
10.37
10.29
10.41
10.79
11.41
12.18
13.0
13.71
14.16
14.21
13.8
12.88
11.44
9.53
7.27
4.76
2.12
-0.58
-3.34
-6.18
-9.12
-12.16
-15.27
-18.36
-21.38
-24.32
-27.13
-29.83
-32.42
-34.91
-37.39
-39.98
-42.84
-45.91
-48.96
-51.42
-52.66
-52.09
-49.52
-45.18
-39.54
-33.04
-25.56
-16.61
-5.58
7.8
23.12
39.31
55.0
69.15
81.42
92.27
102.62
113.42
125.24
138.06
151.4
164.28
175.43
183.35
186.46
183.14
172.18
152.84
125.03
89.54
48.1
3.36
-41.41
-82.89
-118.49
-146.84
-167.83
-182.03
-189.71
-190.47
-183.49
-168.47
-146.53
-120.21
-92.69
-66.7
-43.84
-24.72
-9.73
0.38
4.75
3.16
-3.23
-11.78
-19.5
-24.3
-25.93
-25.78
-25.92
-27.78
-31.44
-35.6
-38.2
-37.18
-31.34
-20.65
-6.38
9.4
24.44
36.96
46.0
51.25
52.67
50.21
43.92
34.3
22.7
11.26
2.39
-2.0
-1.1
4.67
14.0
25.28
37.02
48.24
58.46
67.64
75.99
83.91
91.68
99.29
106.21
111.36
113.49
111.72
105.97
97.2
87.07
77.24
68.65
61.16
53.73
45.08
34.38
21.54
7.06
-8.34
-24.2
-40.22
-56.15
-71.5
-85.43
-96.97
-105.41
-110.63
-113.15
-114.0
-114.26
-114.86
-116.37
-119.11
-123.17
-128.43
-134.47
-140.39
-144.87
-146.44
-143.89
-136.79
-125.57
-111.36
-95.51
-79.09
-62.68
-46.46
-30.52
-15.11
-0.74
11.96
22.53
30.92
37.48
42.88
47.83
52.79
57.89
62.92
67.52
71.3
74.13
76.02
77.11
77.43
76.88
75.18
72.02
67.27
61.07
53.94
46.7
40.23
35.24
31.98
30.13
28.91
27.37
24.75
20.79
15.7
9.92
3.71
-3.05
-10.78
-19.92
-30.46
-41.92
-53.49
-64.29
-73.64
-81.03
-85.83
-87.26
-84.46
-76.96
-65.16
-50.44
-34.78
-20.18
-7.94
1.54
8.67
14.17
18.68
22.54
25.81
28.45
30.46
31.93
33.01
33.83
34.57
35.41
36.56
38.25
40.56
43.44
46.6
49.57
51.88
53.15
53.26
52.25
50.34
47.84
45.01
42.09
39.22
36.44
33.73
30.93
27.8
24.07
19.5
14.01
7.72
1.01
-5.62
-11.7
-16.85
-21.04
-24.53
-27.77
-31.3
-35.61
-41.06
-47.8
-55.74
-64.31
-72.47
-78.73
-81.6
-79.99
-73.72
-63.68
-51.53
-39.26
-28.54
-20.44
-15.18
-12.35
-11.21
-10.85
-10.5
-9.63
-8.03
-5.85
-3.51
-1.45
0.13
1.39
2.84
5.11
8.71
13.86
20.52
28.5
37.62
47.68
58.35
69.16
79.4
88.47
96.1
102.52
108.42
114.61
121.68
129.75
138.47
146.98
154.23
159.06
160.48
157.97
151.58
142.07
130.72
119.04
108.5
100.11
94.04
89.18
83.07
72.41
54.4
28.42
-2.77
-33.14
-55.29
-63.26
-55.33
-34.98
-9.89
10.94
20.33
15.24
-2.77
-28.84
-56.68
-80.59
-96.52
-102.6
-99.03
-87.77
-72.13
-56.18
-43.98
-38.52
-41.1
-51.07
-66.36
-84.3
-102.56
-119.53
-134.02
-144.71
-149.62
-146.44
-133.26
-110.05
-79.39
-46.44
-17.77
0.79
6.08
-1.07
-16.36
-33.72
-47.99
-57.19
-63.05
-70.05
-82.72
-103.01
-128.48
-152.73
-167.58
-166.26
-146.29
-110.61
-66.82
-24.69
6.66
21.09
16.67
-4.34
-36.32
-71.47
-101.24
-118.18
-117.38
-97.91
-63.09
-19.69
24.0
60.46
84.8
95.48
93.94
83.52
68.09
51.18
35.56
23.17
15.24
12.32
14.25
20.11
28.24
36.65
43.43
47.35
48.17
46.55
43.69
40.69
38.15
36.03
33.93
31.5
28.72
25.93
23.54
21.72
20.15
18.08
14.67
9.33
2.1
-6.29
-14.6
-21.5
-26.0
-27.83
-27.53
-26.24
-25.32
-25.88
-28.35
-32.44
-37.09
-40.92
-42.52
-40.95
-35.91
-27.84
-17.74
-6.91
3.41
12.28
19.21
24.19
27.52
29.63
30.9
31.57
31.71
31.33
30.41
29.01
27.39
25.89
24.87
24.65
25.32
26.84
28.97
31.38
33.81
36.01
37.82
39.13
39.88
39.99
39.53
38.61
37.32
35.7
33.62
30.86
27.31
23.08
18.53
14.21
10.63
8.05
6.44
5.48
4.83
4.31
3.81
3.32
2.78
2.07
0.92
-0.91
-3.62
-7.32
-11.89
-16.96
-21.89
-25.81
-27.81
-27.26
-23.97
-18.45
-11.71
-4.98
0.72
4.87
7.53
9.13
10.2
11.14
12.05
12.77
13.11
12.88
12.13
11.03
9.87
8.95
8.5
8.7
9.61
11.27
13.61
16.58
20.05
23.78
27.38
30.38
32.29
32.75
31.64
29.06
25.37
21.07
16.63
12.27
7.98
3.5
-1.56
-7.42
-14.12
-21.31
-28.46
-34.94
-40.31
-44.34
-47.04
-48.64
-49.47
-49.9
-50.18
-50.41
-50.34
-49.4
-46.85
-42.14
-35.18
-26.56
-17.47
-9.2
-2.81
1.3
3.36
4.01
3.97
3.75
3.62
3.6
3.71
3.99
4.54
5.5
6.96
8.89
11.19
13.71
16.27
18.71
20.94
22.9
24.63
26.16
27.5
28.57
29.2
29.18
28.39
26.86
24.79
22.52
20.33
18.38
16.59
14.75
12.57
9.91
6.81
3.42
-0.01
-3.2
-5.98
-8.32
-10.29
-12.07
-13.94
-16.18
-19.05
-22.67
-26.87
-31.16
-34.68
-36.44
-35.59
-31.7
-25.0
-16.32
-6.87
2.13
9.71
15.44
19.26
21.46
22.5
22.84
22.84
22.75
22.61
22.35
21.94
21.38
20.79
20.44
20.57
21.32
22.62
24.22
25.72
26.78
27.19
26.95
26.23
25.24
24.09
22.76
21.12
19.05
16.61
13.96
11.47
9.42
7.94
6.83
5.71
4.13
1.81
-1.22
-4.67
-8.1
-11.17
-13.79
-16.11
-18.39
-20.93
-23.91
-27.42
-31.43
-35.68
-39.66
-42.55
-43.33
-41.16
-35.71
-27.45
-17.53
-7.43
1.57
8.69
13.82
17.26
19.46
20.83
21.54
21.72
21.4
20.64
19.52
18.11
16.54
14.96
13.59
12.63
12.18
12.23
12.62
13.14
13.58
13.76
13.57
13.01
12.14
11.07
9.92
8.75
7.57
6.26
4.68
2.78
0.56
-1.83
-4.3
-6.78
-9.3
-11.92
-14.77
-17.89
-21.24
-24.69
-27.8
-29.93
-30.27
-28.16
-23.27
-15.87
-6.75
2.91
11.98
19.69
25.71
30.16
33.42
35.91
37.89
39.49
40.74
41.66
42.38
43.2
44.5
46.73
50.19
54.95
60.82
67.44
74.32
81.08
87.4
93.15
98.27
102.63
106.08
108.42
109.45
109.06
107.33
104.42
100.56
96.03
91.12
86.3
82.2
79.47
78.53
79.24
80.65
81.13
78.86
72.4
61.39
46.89
31.19
17.13
7.17
2.53
2.83
6.38
10.92
14.51
16.13
15.74
13.86
11.04
7.5
3.32
-1.48
-6.71
-12.36
-18.99
-28.05
-41.42
-60.39
-84.72
-112.17
-139.1
-161.77
-177.69
-186.32
-188.79
-186.97
-182.55
-176.78
-170.58
-165.01
-161.27
-160.07
-160.91
-161.66
-159.13
-150.3
-133.83
-110.88
-84.64
-59.21
-37.99
-22.92
-14.58
-13.03
-18.61
-32.01
-53.54
-82.19
-115.15
-148.1
-176.4
-196.21
-205.31
-203.13
-190.42
-168.86
-140.82
-109.26
-77.57
-49.0
-26.15
-10.24
-0.97
3.21
4.6
5.5
7.61
11.8
18.03
25.51
33.09
39.66
44.47
47.4
48.83
49.43
49.75
50.11
50.37
50.18
49.19
47.16
44.14
40.28
35.87
31.11
26.35
21.95
18.33
15.83
14.48
13.98
13.7
13.03
11.47
8.87
5.3
1.01
-3.74
-8.69
-13.47
-17.6
-20.53
-21.87
-21.57
-20.03
-17.99
-16.19
-15.22
-15.24
-15.99
-16.83
-16.96
-15.59
-12.18
-6.63
0.67
8.81
16.76
23.52
28.55
31.79
33.64
34.66
35.38
36.16
37.12
38.24
39.4
40.46
41.37
42.12
42.74
43.31
43.89
44.5
45.15
45.79
46.38
46.83
47.0
46.74
45.95
44.56
42.62
40.27
37.64
34.83
31.95
29.06
26.25
23.59
21.04
18.54
15.92
13.06
9.88
6.46
2.96
-0.42
-3.52
-6.24
-8.6
-10.73
-12.83
-15.22
-18.14
-21.77
-25.94
-30.1
-33.3
-34.42
-32.58
-27.53
-19.81
-10.59
-1.41
6.51
12.46
16.46
19.0
20.74
22.23
23.75
25.33
26.78
27.89
28.52
28.65
28.44
28.12
27.92
27.97
28.34
28.95
29.69
30.47
31.19
31.74
31.97
31.79
31.12
30.01
28.53
26.75
24.78
22.72
20.69
18.76
16.96
15.23
13.44
11.51
9.4
7.15
4.84
2.59
0.42
-1.65
-3.65
-5.6
-7.55
-9.54
-11.68
-14.09
-16.89
-20.14
-23.74
-27.35
-30.35
-31.96
-31.49
-28.55
-23.27
-16.31
-8.68
-1.43
4.69
9.3
12.41
14.31
15.44
16.24
17.23
18.86
21.46
25.13
29.65
34.49
38.97
42.54
44.95
46.46
47.73
49.54
52.47
56.52
61.08
65.17
67.89
68.79
68.29
67.36
67.24
68.78
72.03
76.27
80.33
83.22
84.64
85.22
86.32
89.67
96.86
108.84
125.5
145.31
165.06
180.13
185.24
176.13
151.35
113.31
67.96
23.01
-14.48
-40.15
-53.11
-55.33
-50.32
-41.65
-32.23
-24.15
-18.73
-16.56
-17.33
-19.81
-22.22
-22.93
-21.23
-17.72
-14.23
-13.1
-16.55
-25.9
-41.14
-60.67
-81.62
-100.38
-113.6
-119.02
-116.22
-106.7
-93.53
-80.3
-69.99
-64.15
-62.59
-63.82
-65.81
-66.8
-65.88
-63.12
-59.31
-55.44
-52.45
-50.89
-51.01
-52.77
-56.07
-60.57
-65.62
-70.1
-72.67
-72.19
-68.15
-61.04
-52.09
-42.81
-34.41
-27.41
-21.63
-16.63
-12.12
-8.06
-4.52
-1.31
2.14
6.63
12.79
20.68
29.66
38.61
46.4
52.29
56.02
57.85
58.1
56.97
54.35
50.04
43.89
36.14
27.39
18.53
10.45
3.73
-1.44
-5.2
-7.89
-9.82
-11.16
-12.02
-12.49
-12.72
-12.97
-13.53
-14.61
-16.33
-18.58
-21.13
-23.68
-25.93
-27.67
-28.87
-29.58
-29.93
-30.08
-30.08
-29.96
-29.72
-29.4
-29.06
-28.86
-28.86
-29.06
-29.4
-29.73
-29.94
-30.0
-29.94
-29.91
-30.07
-30.53
-31.34
-32.42
-33.57
-34.5
-34.86
-34.37
-32.83
-30.28
-26.93
-23.15
-19.42
-16.08
-13.36
-11.31
-9.82
-8.83
-8.3
-8.22
-8.56
-9.22
-9.96
-10.54
-10.76
-10.58
-10.12
-9.52
-8.92
-8.37
-7.84
-7.25
-6.61
-5.92
-5.21
-4.55
-3.89
-3.28
-2.74
-2.33
-2.11
-2.07
-2.12
-2.18
-2.2
-2.27
-2.59
-3.36
-4.61
-6.13
-7.48
-8.2
-8.05
-7.12
-5.85
-4.9
-4.88
-6.1
-8.52
-11.64
-14.68
-16.76
-17.17
-15.56
-12.1
-7.43
-2.44
1.99
5.26
7.2
7.99
7.98
7.52
6.8
5.92
4.88
3.74
2.61
1.65
1.04
0.95
1.45
2.53
4.06
5.89
7.8
9.63
11.25
12.5
13.21
13.19
12.27
10.4
7.68
4.34
0.75
-2.69
-5.62
-7.82
-9.18
-9.82
-10.0
-10.04
-10.23
-10.73
-11.49
-12.33
-13.12
-13.76
-14.34
-15.07
-16.08
-17.46
-19.22
-21.27
-23.47
-25.61
-27.32
-28.05
-27.28
-24.61
-20.07
-14.12
-7.57
-1.29
3.99
7.92
10.45
11.74
12.09
11.78
11.12
10.28
9.41
8.56
7.75
7.01
6.4
6.02
5.96
6.26
6.82
7.53
8.24
8.84
9.19
9.15
8.62
7.6
6.15
4.46
2.76
1.23
0.04
-0.76
-1.23
-1.52
-1.9
-2.71
-4.19
-6.47
-9.39
-12.6
-15.68
-18.24
-20.13
-21.48
-22.61
-23.96
-25.87
-28.48
-31.5
-34.3
-36.08
-36.06
-33.82
-29.43
-23.48
-16.82
-10.29
-4.48
0.36
4.26
7.38
9.92
11.99
13.63
14.82
15.54
15.86
15.91
15.88
16.0
16.41
17.16
18.18
19.34
20.47
21.5
22.33
22.89
23.08
22.79
21.95
20.65
19.05
17.35
15.63
13.9
12.05
10.09
8.01
5.98
4.06
2.28
0.48
-1.52
-3.85
-6.45
-9.07
-11.41
-13.26
-14.61
-15.71
-16.95
-18.69
-21.13
-24.21
-27.55
-30.56
-32.58
-32.95
-31.25
-27.44
-21.93
-15.49
-9.03
-3.3
1.35
4.94
7.83
10.39
12.88
15.29
17.51
19.37
20.75
21.6
21.94
21.85
21.42
20.83
20.27
19.94
19.92
20.23
20.78
21.39
21.91
22.11
21.87
21.12
19.89
18.27
16.37
14.34
12.31
10.45
8.88
7.7
6.86
6.17
5.37
4.19
2.56
0.59
-1.48
-3.43
-5.21
-6.91
-8.7
-10.76
-13.15
-15.91
-19.06
-22.53
-26.13
-29.41
-31.69
-32.18
-30.33
-26.05
-19.86
-12.7
-5.69
0.36
5.06
8.5
11.05
13.13
15.0
16.69
18.11
19.08
19.52
19.44
19.04
18.61
18.41
18.61
19.21
20.09
21.04
21.92
22.6
23.04
23.18
22.93
22.22
21.09
19.66
18.11
16.64
15.31
14.04
12.69
11.13
9.31
7.32
5.3
3.32
1.41
-0.51
-2.54
-4.74
-7.06
-9.35
-11.43
-13.21
-14.72
-16.1
-17.54
-19.24
-21.33
-23.8
-26.44
-28.83
-30.33
-30.31
-28.27
-24.2
-18.58
-12.26
-6.21
-1.1
2.84
5.79
8.11
10.15
12.06
13.83
15.37
16.61
17.51
18.09
18.43
18.58
18.59
18.54
18.49
18.45
18.44
18.43
18.43
18.4
18.28
17.93
17.22
16.07
14.47
12.6
10.63
8.81
7.24
5.97
4.95
4.04
3.11
2.05
0.73
-0.93
-2.91
-5.09
-7.32
-9.42
-11.29
-12.95
-14.49
-16.09
-17.94
-20.22
-22.97
-26.04
-28.97
-31.04
-31.41
-29.51
-25.29
-19.32
-12.63
-6.28
-1.02
3.01
6.13
8.85
11.53
14.21
16.65
18.54
19.69
20.13
20.04
19.65
19.15
18.68
18.31
18.12
18.16
18.44
18.91
19.4
19.75
19.76
19.34
18.52
17.41
16.17
14.91
13.7
12.48
11.17
9.72
8.14
6.49
4.82
3.18
1.48
-0.36
-2.46
-4.87
-7.49
-10.16
-12.7
-15.01
-17.03
-18.86
-20.58
-22.31
-24.17
-26.29
-28.74
-31.4
-33.91
-35.56
-35.57
-33.36
-28.82
-22.53
-15.47
-8.76
-3.16
1.08
4.17
6.52
8.48
10.26
11.86
13.26
14.5
15.6
16.58
17.36
17.87
18.04
17.94
17.73
17.61
17.76
18.27
19.1
20.09
20.94
21.38
21.17
20.24
18.7
16.82
14.94
13.3
12.0
10.94
9.93
8.77
7.36
5.74
4.02
2.34
0.83
-0.52
-1.78
-3.13
-4.74
-6.7
-9.05
-11.7
-14.56
-17.48
-20.4
-23.25
-26.07
-28.85
-31.54
-33.93
-35.62
-36.1
-34.84
-31.55
-26.33
-19.75
-12.63
-5.84
0.04
4.76
8.44
11.39
13.93
16.31
18.6
20.79
22.77
24.38
25.51
26.08
26.18
25.97
25.7
25.59
25.77
26.34
27.26
28.54
30.07
31.73
33.21
34.08
33.84
32.13
28.8
24.07
18.52
12.8
7.54
3.1
-0.42
-3.11
-5.19
-6.78
-8.02
-8.98
-9.76
-10.5
-11.29
-12.21
-13.24
-14.41
-15.78
-17.53
-19.86
-22.99
-26.97
-31.68
-36.78
-41.8
-46.11
-49.06
-50.06
-48.64
-44.71
-38.57
-30.98
-22.98
-15.59
-9.55
-5.09
-1.93
0.44
2.54
4.66
6.77
8.68
10.19
11.22
11.89
12.47
13.23
14.39
16.01
18.03
20.27
22.47
24.34
25.64
26.22
26.04
25.14
23.62
21.58
19.11
16.37
13.52
10.73
8.12
5.75
3.59
1.53
-0.51
-2.58
-4.67
-6.76
-8.82
-10.83
-12.71
-14.38
-15.78
-16.98
-18.12
-19.43
-21.12
-23.27
-25.92
-28.93
-32.03
-34.76
-36.48
-36.51
-34.32
-29.8
-23.39
-15.99
-8.64
-2.2
2.86
6.54
9.08
10.88
12.28
13.51
14.64
15.66
16.52
17.1
17.4
17.45
17.38
17.31
17.33
17.34
17.2
16.79
16.06
15.18
14.36
13.83
13.64
13.7
13.82
13.8
13.56
13.08
12.44
11.72
10.95
10.16
9.41
8.75
8.27
8.0
7.8
7.45
6.71
5.39
3.49
1.17
-1.29
-3.65
-5.78
-7.79
-9.96
-12.66
-16.16
-20.43
-25.11
-29.52
-32.76
-34.04
-32.91
-29.48
-24.36
-18.58
-13.11
-8.66
-5.49
-3.4
-1.96
-0.77
0.47
1.77
3.04
4.1
4.82
5.14
5.11
4.84
4.52
4.42
4.74
5.58
6.94
8.63
10.38
11.88
12.86
13.16
12.74
11.7
10.22
8.52
6.85
5.44
4.39
3.73
3.34
3.03
2.62
1.97
1.02
-0.21
-1.7
-3.5
-5.64
-8.14
-10.91
-13.77
-16.53
-19.01
-21.15
-23.13
-25.22
-27.73
-30.83
-34.48
-38.25
-41.5
-43.34
-42.99
-39.98
-34.41
-26.92
-18.56
-10.48
-3.54
1.84
5.71
8.47
10.61
12.55
14.52
16.56
18.59
20.47
22.04
23.24
24.1
24.73
25.29
25.88
26.51
27.16
27.72
28.12
28.27
28.11
27.55
26.56
25.1
23.27
21.21
19.14
17.2
15.48
13.99
12.59
11.15
9.55
7.7
5.6
3.28
0.81
-1.78
-4.42
-7.05
-9.58
-11.92
-14.04
-16.03
-18.09
-20.57
-23.76
-27.8
-32.43
-36.99
-40.48
-41.89
-40.51
-36.22
-29.6
-21.69
-13.69
-6.57
-0.79
3.66
7.07
9.83
12.16
14.08
15.59
16.64
17.32
17.79
18.22
18.71
19.22
19.71
20.13
20.51
20.93
21.45
22.03
22.51
22.67
22.32
21.41
20.02
18.38
16.62
14.8
12.88
10.74
8.35
5.79
3.26
0.96
-0.94
-2.38
-3.46
-4.32
-5.13
-6.06
-7.2
-8.6
-10.25
-12.1
-14.05
-16.03
-17.99
-19.95
-22.03
-24.4
-27.26
-30.64
-34.31
-37.68
-39.89
-40.01
-37.43
-32.03
-24.4
-15.68
-7.16
0.07
5.49
9.18
11.71
13.75
15.81
18.07
20.4
22.53
24.26
25.52
26.37
26.9
27.23
27.41
27.54
27.71
27.98
28.41
28.89
29.23
29.25
28.8
27.87
26.56
25.03
23.42
21.86
20.38
18.97
17.6
16.18
14.66
13.0
11.24
9.46
7.72
6.04
4.32
2.46
0.35
-2.02
-4.53
-7.0
-9.32
-11.47
-13.54
-15.72
-18.2
-21.14
-24.63
-28.56
-32.54
-35.94
-37.89
-37.63
-34.73
-29.36
-22.26
-14.52
-7.21
-1.04
3.73
7.28
9.99
12.16
13.99
15.52
16.69
17.45
17.83
17.9
17.78
17.62
17.51
17.57
17.79
18.11
18.49
18.82
19.01
18.98
18.63
17.86
16.61
14.86
12.69
10.31
7.98
5.91
4.28
3.12
2.3
1.65
0.88
-0.26
-1.93
-4.17
-6.84
-9.66
-12.32
-14.6
-16.49
-18.17
-19.96
-22.15
-24.94
-28.34
-32.17
-36.11
-39.63
-42.01
-42.48
-40.5
-35.94
-29.27
-21.41
-13.48
-6.44
-0.76
3.51
6.69
9.18
11.28
13.19
14.92
16.43
17.6
18.39
18.75
18.78
18.66
18.57
18.67
18.99
19.5
20.07
20.56
20.8
20.68
20.11
19.07
17.6
15.88
14.11
12.49
11.12
9.97
8.9
7.72
6.28
4.58
2.76
0.94
-0.71
-2.19
-3.57
-5.02
-6.71
-8.74
-11.06
-13.51
-15.96
-18.22
-20.26
-22.16
-24.12
-26.46
-29.49
-33.35
-37.9
-42.56
-46.33
-48.14
-47.12
-42.97
-36.13
-27.64
-18.8
-10.76
-4.24
0.61
4.01
6.45
8.38
10.16
11.94
13.78
15.64
17.37
18.91
20.14
21.02
21.57
21.84
21.91
21.93
22.01
22.24
22.6
22.97
23.13
22.84
21.93
20.33
18.23
15.94
13.84
12.22
11.15
10.45
9.77
8.75
7.17
5.08
2.67
0.23
-2.0
-3.99
-5.83
-7.63
-9.48
-11.4
-13.33
-15.22
-17.05
-18.87
-20.72
-22.69
-24.9
-27.5
-30.66
-34.4
-38.43
-42.07
-44.39
-44.48
-41.79
-36.37
-28.94
-20.62
-12.57
-5.63
-0.16
3.88
6.81
9.02
10.89
12.62
14.33
16.03
17.68
19.19
20.49
21.51
22.24
22.7
22.98
23.2
23.47
23.85
24.34
24.82
25.11
25.03
24.42
23.26
21.62
19.65
17.59
15.65
13.96
12.49
11.07
9.45
7.47
5.14
2.6
0.14
-1.96
-3.59
-4.8
-5.83
-6.94
-8.33
-10.05
-12.11
-14.41
-16.86
-19.41
-22.01
-24.71
-27.59
-30.81
-34.43
-38.38
-42.23
-45.26
-46.58
-45.41
-41.44
-35.02
-27.05
-18.71
-11.11
-4.92
-0.34
2.88
5.18
7.02
8.72
10.4
12.05
13.61
15.04
16.31
17.42
18.39
19.19
19.79
20.2
20.46
20.69
20.94
21.19
21.27
20.95
20.02
18.38
16.15
13.62
11.17
9.18
7.85
7.15
6.84
6.59
6.11
5.32
4.36
3.46
2.8
2.34
1.78
0.72
-1.2
-4.03
-7.58
-11.42
-15.14
-18.45
-21.28
-23.76
-26.15
-28.75
-31.81
-35.4
-39.38
-43.35
-46.55
-48.09
-47.14
-43.2
-36.44
-27.6
-17.9
-8.6
-0.69
5.38
9.66
12.56
14.58
16.13
17.44
18.61
19.62
20.46
21.12
21.64
22.08
22.55
23.1
23.75
24.52
25.38
26.35
27.39
28.37
29.09
29.28
28.75
27.45
25.58
23.51
21.57
19.96
18.63
17.34
15.79
13.81
11.42
8.8
6.24
3.95
2.0
0.28
-1.47
-3.53
-6.08
-9.17
-12.64
-16.24
-19.64
-22.61
-25.02
-26.94
-28.59
-30.33
-32.57
-35.56
-39.32
-43.45
-47.16
-49.43
-49.29
-46.21
-40.3
-32.32
-23.41
-14.76
-7.3
-1.39
3.05
6.42
9.19
11.65
13.89
15.85
17.45
18.65
19.52
20.15
20.62
20.94
21.16
21.35
21.63
22.15
22.99
24.05
25.07
25.7
25.62
24.66
22.86
20.44
17.74
15.1
12.7
10.61
8.69
6.79
4.79
2.71
0.77
-0.83
-1.94
-2.68
-3.35
-4.4
-6.14
-8.63
-11.66
-14.83
-17.79
-20.29
-22.38
-24.26
-26.2
-28.48
-31.26
-34.59
-38.36
-42.21
-45.46
-47.2
-46.51
-42.8
-36.16
-27.38
-17.78
-8.74
-1.24
4.41
8.46
11.48
14.01
16.37
18.59
20.54
22.06
23.05
23.48
23.44
23.11
22.71
22.51
22.65
23.19
24.08
25.18
26.31
27.26
27.8
27.67
26.71
24.89
22.39
19.52
16.63
14.01
11.72
9.72
7.84
6.0
4.15
2.28
0.36
-1.67
-3.82
-6.13
-8.57
-11.08
-13.56
-15.94
-18.27
-20.66
-23.34
-26.54
-30.42
-34.96
-39.8
-44.14
-46.97
-47.31
-44.54
-38.76
-30.74
-21.65
-12.78
-5.08
1.04
5.63
9.06
11.76
14.08
16.2
18.15
