2.95
1.71
0.04
-1.95
-3.95
-5.72
-7.11
-8.15
-8.96
-9.75
-10.65
-11.72
-13.01
-14.56
-16.49
-18.82
-21.44
-23.92
-25.61
-25.87
-24.32
-21.1
-16.81
-12.25
-8.15
-4.93
-2.6
-0.92
0.45
1.82
3.4
5.27
7.38
9.53
11.45
12.85
13.56
13.64
13.32
12.94
12.81
13.03
13.56
14.25
14.92
15.49
15.9
16.12
16.14
15.93
15.51
14.9
14.18
13.34
12.34
11.1
9.59
7.83
5.96
4.13
2.47
1.05
-0.13
-1.09
-1.87
-2.55
-3.25
-4.12
-5.35
-7.01
-9.09
-11.5
-14.08
-16.67
-19.11
-21.16
-22.55
-22.96
-22.15
-20.07
-16.93
-13.17
-9.3
-5.77
-2.75
-0.21
2.0
4.06
5.97
7.64
8.91
9.75
10.3
10.8
11.44
12.23
13.0
13.5
13.58
13.39
13.22
13.35
13.9
14.74
15.56
16.03
15.94
15.27
14.17
12.8
11.27
9.66
7.98
6.25
4.58
3.11
2.02
1.42
1.26
1.33
1.34
0.96
-0.01
-1.59
-3.63
-5.87
-8.07
-10.11
-11.96
-13.73
-15.55
-17.56
-19.81
-22.28
-24.82
-27.11
-28.75
-29.33
-28.54
-26.32
-22.89
-18.76
-14.54
-10.8
-7.84
-5.67
-4.05
-2.63
-1.15
0.56
2.43
4.31
5.98
7.24
8.0
8.3
8.3
8.28
8.52
9.16
10.21
11.46
12.65
13.55
14.06
14.23
14.15
13.9
13.45
12.72
11.68
10.36
8.88
7.42
6.08
4.91
3.84
2.8
1.78
0.81
-0.03
-0.72
-1.33
-2.01
-2.93
-4.19
-5.75
-7.47
-9.25
-11.07
-13.08
-15.48
-18.37
-21.56
-24.54
-26.64
-27.24
-26.07
-23.26
-19.32
-14.9
-10.68
-7.15
-4.59
-3.05
-2.35
-2.15
-2.0
-1.49
-0.37
1.36
3.4
5.38
6.93
7.82
8.08
7.84
7.38
6.95
6.82
7.14
7.93
9.03
10.14
10.9
11.04
10.49
9.37
8.0
6.7
5.72
5.09
4.71
4.34
3.77
2.9
1.74
0.4
-1.03
-2.47
-3.92
-5.37
-6.84
-8.29
-9.66
-10.91
-12.02
-13.01
-13.99
-15.14
-16.73
-19.0
-22.12
-25.95
-30.04
-33.62
-35.81
-35.98
-33.89
-29.87
-24.61
-18.95
-13.6
-8.94
-5.12
-2.07
0.36
2.31
3.98
5.52
7.1
8.74
10.33
11.6
12.32
12.4
12.04
11.6
11.44
11.78
12.63
13.86
15.29
16.82
18.31
19.55
20.25
20.13
19.07
17.2
14.92
12.71
10.92
9.7
8.94
8.46
8.05
7.58
6.97
6.15
5.05
3.64
1.96
0.11
-1.77
-3.6
-5.3
-6.91
-8.49
-10.16
-12.07
-14.44
-17.39
-20.88
-24.56
-27.75
-29.59
-29.4
-26.96
-22.6
-17.18
-11.7
-6.95
-3.29
-0.68
1.21
2.71
4.09
5.47
6.92
8.41
9.85
11.14
12.14
12.78
13.15
13.38
13.7
14.25
15.06
16.05
17.12
18.16
19.09
19.82
20.21
20.11
19.43
18.21
16.61
14.87
13.23
11.84
10.71
9.81
9.07
8.39
7.67
6.72
5.39
3.56
1.32
-1.13
-3.45
-5.35
-6.71
-7.58
-8.21
-8.88
-9.87
-11.32
-13.32
-15.91
-19.1
-22.8
-26.76
-30.42
-33.04
-33.89
-32.45
-28.75
-23.35
-17.22
-11.32
-6.4
-2.73
-0.22
1.45
2.64
3.67
4.75
6.06
7.68
9.56
11.51
13.29
14.63
15.38
15.53
15.21
14.69
14.29
14.29
14.81
15.77
16.85
17.63
17.73
17.01
15.6
13.87
12.24
10.98
10.19
9.71
9.31
8.76
7.95
6.87
5.61
4.33
3.1
1.96
0.85
-0.36
-1.83
-3.63
-5.69
-7.84
-9.83
-11.53
-12.96
-14.36
-16.07
-18.42
-21.54
-25.25
-29.13
-32.47
-34.55
-34.74
-32.76
-28.78
-23.33
-17.24
-11.34
-6.29
-2.41
0.33
2.26
3.84
5.51
7.51
9.85
12.3
14.5
16.12
16.98
17.14
16.83
16.37
16.02
15.92
16.09
16.44
16.85
17.2
17.38
17.36
17.1
16.67
16.09
15.39
14.56
13.54
12.28
10.84
9.32
7.89
6.65
5.53
4.3
2.64
0.35
-2.54
-5.75
-8.87
-11.57
-13.72
-15.42
-16.92
-18.47
-20.23
-22.36
-24.98
-28.19
-31.94
-35.86
-39.25
-41.21
-41.0
-38.32
-33.47
-27.21
-20.52
-14.24
-8.83
-4.45
-1.02
1.63
3.67
5.32
6.76
8.15
9.61
11.14
12.68
14.18
15.61
16.95
18.2
19.32
20.22
20.83
21.12
21.11
20.89
20.54
20.03
19.29
18.18
16.65
14.72
12.58
10.43
8.51
6.92
5.58
4.33
2.97
1.36
-0.53
-2.64
-4.88
-7.14
-9.31
-11.31
-13.15
-14.94
-16.88
-19.25
-22.27
-25.97
-30.07
-33.96
-36.89
-38.14
-37.26
-34.23
-29.37
-23.34
-16.86
-10.63
-5.19
-0.88
2.25
4.42
6.04
7.61
9.53
11.94
14.75
17.57
20.04
21.87
23.05
23.74
24.21
24.69
25.28
25.95
26.56
27.03
27.34
27.55
27.66
27.62
27.24
26.28
24.66
22.49
20.14
17.98
16.28
15.01
13.92
12.65
10.97
8.8
6.24
3.5
0.74
-1.95
-4.48
-6.8
-8.87
-10.74
-12.56
-14.58
-17.09
-20.33
-24.36
-28.96
-33.58
-37.36
-39.36
-38.81
-35.46
-29.72
-22.54
-15.14
-8.57
-3.4
0.37
3.12
5.39
7.57
9.85
12.18
14.43
16.47
18.21
19.65
20.79
21.67
22.27
22.65
22.86
23.06
23.38
23.94
24.74
25.58
26.18
26.22
25.56
24.21
22.41
20.47
18.65
17.07
15.76
14.61
13.54
12.5
11.49
10.49
9.44
8.17
6.53
4.39
1.81
-1.02
-3.78
-6.21
-8.24
-9.97
-11.7
-13.78
-16.45
-19.89
-24.04
-28.63
-33.17
-36.91
-39.01
-38.76
-35.9
-30.73
-24.09
-17.03
-10.52
-5.18
-1.14
1.79
4.02
5.94
7.88
10.02
12.39
14.88
17.27
19.27
20.69
21.46
21.66
21.54
21.34
21.28
21.43
21.76
22.19
22.59
22.85
22.87
22.6
21.94
20.9
19.47
17.75
15.86
14.0
12.3
10.82
9.57
8.41
7.2
5.76
3.94
1.73
-0.79
-3.41
-5.88
-8.0
-9.71
-11.16
-12.65
-14.52
-17.06
-20.3
-24.02
-27.74
-30.79
-32.47
-32.24
-29.9
-25.7
-20.22
-14.25
-8.59
-3.76
0.0
2.79
4.83
6.43
7.8
9.05
10.2
11.22
12.03
12.62
13.05
13.41
13.86
14.45
15.17
15.88
16.39
16.54
16.3
15.79
15.2
14.74
14.46
14.28
13.95
13.25
12.02
10.32
8.36
6.42
4.73
3.39
2.31
1.31
0.17
-1.24
-2.94
-4.87
-6.9
-8.89
-10.75
-12.45
-14.0
-15.49
-17.06
-18.91
-21.17
-23.85
-26.66
-29.06
-30.36
-29.98
-27.66
-23.64
-18.52
-13.09
-8.02
-3.69
-0.16
2.7
5.09
7.15
8.97
10.6
12.12
13.53
14.83
15.95
16.81
17.39
17.73
17.88
17.91
17.84
17.68
17.46
17.27
17.23
17.39
17.68
17.93
17.86
17.28
16.15
14.64
13.01
11.5
10.23
9.14
8.1
6.99
5.74
4.39
2.98
1.5
-0.13
-1.98
-4.06
-6.26
-8.39
-10.26
-11.8
-13.09
-14.32
-15.77
-17.67
-20.14
-23.06
-26.07
-28.59
-29.96
-29.69
-27.6
-23.91
-19.16
-14.03
-9.1
-4.79
-1.28
1.41
3.33
4.61
5.49
6.25
7.12
8.18
9.31
10.24
10.72
10.73
10.48
10.27
10.31
10.61
11.0
11.23
11.17
10.83
10.39
9.99
9.64
9.2
8.44
7.19
5.42
3.3
1.13
-0.79
-2.22
-3.13
-3.61
-3.82
-3.89
-3.89
-3.79
-3.61
-3.44
-3.44
-3.77
-4.46
-5.4
-6.38
-7.23
-7.91
-8.58
-9.54
-11.06
-13.27
-16.01
-18.81
-21.07
-22.15
-21.64
-19.46
-15.93
-11.6
-7.1
-2.97
0.47
3.05
4.83
5.96
6.67
7.21
7.79
8.51
9.3
10.03
10.53
10.67
10.47
10.04
9.59
9.33
9.42
9.89
10.67
11.57
12.39
13.0
13.29
13.23
12.74
11.81
10.44
8.8
7.14
5.71
4.67
3.97
3.36
2.57
1.4
-0.14
-1.84
-3.4
-4.59
-5.37
-5.89
-6.41
-7.23
-8.53
-10.37
-12.55
-14.77
-16.64
-17.77
-17.86
-16.74
-14.43
-11.19
-7.48
-3.87
-0.87
1.27
2.6
3.4
4.04
4.67
5.23
5.5
5.32
4.69
3.9
3.3
3.11
3.31
3.65
3.85
3.79
3.53
3.29
3.25
3.37
3.43
3.17
2.46
1.38
0.16
-0.96
-1.82
-2.46
-3.04
-3.74
-4.64
-5.67
-6.66
-7.4
-7.82
-8.02
-8.23
-8.73
-9.73
-11.31
-13.35
-15.54
-17.46
-18.61
-18.57
-17.17
-14.51
-11.06
-7.45
-4.29
-1.89
-0.2
1.11
2.39
3.81
5.29
6.6
7.5
7.92
7.91
7.65
7.32
7.03
6.86
6.84
6.97
7.27
7.7
8.2
8.68
9.01
9.09
8.88
8.37
7.63
6.75
5.84
4.99
4.24
3.58
2.95
2.3
1.56
0.69
-0.36
-1.62
-3.07
-4.69
-6.38
-8.06
-9.61
-10.95
-12.1
-13.15
-14.27
-15.63
-17.31
-19.24
-21.14
-22.64
-23.28
-22.7
-20.71
-17.47
-13.35
-8.99
-5.0
-1.81
0.43
1.87
2.84
3.69
4.61
5.67
6.73
7.67
8.41
8.88
9.1
9.06
8.76
8.27
7.69
7.22
7.07
7.37
8.03
8.82
9.4
9.51
9.08
8.28
7.44
6.87
6.74
6.96
7.25
7.29
6.8
5.74
4.3
2.78
1.44
0.4
-0.39
-1.1
-1.95
-3.07
-4.46
-6.04
-7.67
-9.28
-10.79
-12.18
-13.38
-14.42
-15.36
-16.37
-17.64
-19.27
-21.12
-22.81
-23.8
-23.53
-21.72
-18.45
-14.16
-9.55
-5.36
-2.11
-0.05
0.94
1.18
1.14
1.22
1.71
2.7
4.12
5.8
7.47
8.89
9.87
10.36
10.43
10.28
10.15
10.22
10.58
11.15
11.8
12.39
12.77
12.83
12.47
11.63
10.39
8.95
7.58
6.56
6.0
5.8
5.68
5.35
4.63
3.52
2.17
0.8
-0.44
-1.47
-2.3
-2.97
-3.58
-4.2
-4.94
-5.89
-7.04
-8.36
-9.69
-10.98
-12.22
-13.55
-15.13
-17.06
-19.24
-21.33
-22.89
-23.46
-22.75
-20.72
-17.6
-13.81
-9.87
-6.23
-3.24
-0.99
0.61
1.82
2.9
4.05
5.29
6.51
7.6
8.52
9.29
10.03
10.75
11.42
11.87
11.98
11.75
11.36
11.04
11.03
11.35
11.85
12.25
12.26
11.75
10.78
9.53
8.21
6.98
5.9
4.92
3.98
3.08
2.26
1.61
1.18
0.94
0.76
0.5
-0.05
-0.95
-2.21
-3.76
-5.43
-7.06
-8.51
-9.71
-10.65
-11.47
-12.35
-13.54
-15.26
-17.61
-20.5
-23.52
-26.04
-27.34
-26.84
-24.35
-20.18
-15.07
-9.93
-5.53
-2.29
-0.22
0.92
1.48
1.8
2.13
2.59
3.27
4.13
5.1
6.07
6.95
7.74
8.44
9.14
9.84
10.51
11.07
11.41
11.49
11.35
11.02
10.59
10.09
9.53
8.88
8.15
7.35
6.54
5.75
4.98
4.17
3.28
2.25
1.05
-0.33
-1.88
-3.53
-5.2
-6.74
-8.05
-9.12
-10.08
-11.12
-12.39
-14.01
-15.91
-18.0
-20.13
-22.16
-23.87
-24.98
-25.08
-23.84
-21.2
-17.46
-13.24
-9.22
-5.9
-3.43
-1.67
-0.33
0.81
1.85
2.82
3.78
4.84
6.12
7.58
9.06
10.28
11.01
11.2
11.05
10.87
10.93
11.33
11.95
12.57
12.94
12.97
12.65
12.1
11.45
10.76
10.02
9.18
8.25
7.32
6.51
5.88
5.37
4.8
3.99
2.85
1.46
-0.01
-1.42
-2.7
-3.92
-5.17
-6.51
-7.9
-9.25
-10.5
-11.68
-12.9
-14.27
-15.92
-17.89
-20.16
-22.63
-25.02
-26.91
-27.77
-27.18
-24.97
-21.38
-16.94
-12.28
-7.94
-4.26
-1.33
0.88
2.48
3.64
4.57
5.5
6.65
8.04
9.51
10.77
11.58
11.89
11.92
12.02
12.5
13.46
14.7
15.92
16.81
17.21
17.17
16.82
16.28
15.56
14.68
13.56
12.25
10.85
9.47
8.19
7.04
5.94
4.85
3.78
2.82
2.09
1.66
1.46
1.3
0.93
0.16
-1.06
-2.63
-4.37
-6.06
-7.59
-8.94
-10.19
-11.47
-12.89
-14.54
-16.45
-18.61
-20.9
-23.08
-24.79
-25.55
-24.95
-22.78
-19.12
-14.43
-9.39
-4.68
-0.84
1.91
3.75
5.0
6.08
7.2
8.4
9.54
10.43
11.0
11.31
11.52
11.77
12.1
12.45
12.73
12.91
13.04
13.21
13.48
13.83
14.14
14.28
14.12
13.59
12.71
11.55
10.25
9.05
8.16
7.73
7.72
7.89
7.86
7.3
6.12
4.48
2.75
1.26
0.22
-0.46
-1.04
-1.81
-2.97
-4.51
-6.26
-8.04
-9.69
-11.2
-12.64
-14.14
-15.81
-17.77
-20.08
-22.75
-25.67
-28.54
-30.85
-31.99
-31.45
-28.99
-24.88
-19.74
-14.41
-9.61
-5.77
-2.92
-0.84
0.73
2.03
3.2
4.35
5.6
7.05
8.66
10.3
11.71
12.64
13.03
13.0
12.83
12.77
13.01
13.55
14.26
14.92
15.34
15.36
14.92
14.08
13.01
11.98
11.2
10.78
10.66
10.65
10.48
9.95
8.99
7.71
6.36
5.18
4.28
3.58
2.84
1.78
0.2
-1.82
-4.06
-6.18
-7.92
-9.21
-10.17
-11.01
-11.97
-13.22
-14.85
-16.88
-19.21
-21.64
-23.8
-25.18
-25.28
-23.72
-20.47
-15.9
-10.71
-5.75
-1.67
1.17
2.88
3.85
4.55
5.33
6.3
7.37
8.37
9.19
9.77
10.15
10.39
10.54
10.68
10.93
11.42
12.19
13.18
14.2
15.02
15.45
15.42
14.94
14.1
12.98
11.66
10.26
8.96
7.98
7.42
7.22
7.12
6.76
5.91
4.57
2.97
1.45
0.26
-0.5
-0.98
-1.42
-2.07
-3.04
-4.32
-5.79
-7.28
-8.66
-9.84
-10.84
-11.8
-12.93
-14.52
-16.74
-19.57
-22.64
-25.32
-26.89
-26.75
-24.71
-21.03
-16.3
-11.26
-6.53
-2.52
0.59
2.76
4.06
4.6
4.66
4.62
4.85
5.58
6.8
8.21
9.45
10.3
10.8
11.16
11.62
12.23
12.83
13.18
13.12
12.75
12.31
12.06
12.1
12.29
12.3
11.9
11.01
9.78
8.5
7.47
6.83
6.55
6.43
6.19
5.61
4.56
3.1
1.42
-0.24
-1.71
-2.93
-3.99
-5.02
-6.13
-7.32
-8.53
-9.71
-10.88
-12.1
-13.48
-15.04
-16.8
-18.75
-20.88
-23.12
-25.21
-26.68
-26.96
-25.54
-22.26
-17.49
-11.99
-6.74
-2.57
0.14
1.5
2.01
2.3
2.89
3.96
5.37
6.76
7.8
8.34
8.49
8.49
8.58
8.85
9.25
9.69
10.16
10.66
11.25
11.87
12.38
12.58
12.39
11.81
10.96
10.0
8.99
7.96
6.89
5.81
4.79
3.89
3.18
2.62
2.08
1.34
0.23
-1.29
-3.1
-4.91
-6.4
-7.4
-7.95
-8.31
-8.79
-9.63
-10.89
-12.52
-14.42
-16.48
-18.51
-20.17
-20.97
-20.38
-18.1
-14.19
-9.18
-3.84
1.05
4.97
7.79
9.66
10.84
11.59
12.06
12.41
12.81
13.44
14.4
15.64
16.93
17.98
18.54
18.53
18.04
17.28
16.46
15.71
15.11
14.65
14.31
13.97
13.53
12.83
11.79
10.44
8.92
7.41
6.06
4.92
3.92
2.96
1.93
0.81
-0.38
-1.51
-2.49
-3.23
-3.78
-4.26
-4.88
-5.84
-7.23
-8.96
-10.85
-12.63
-14.16
-15.5
-16.9
-18.72
-21.28
-24.57
-28.21
-31.45
-33.42
-33.48
-31.48
-27.77
-23.06
-18.1
-13.46
-9.44
-6.09
-3.39
-1.3
0.22
1.24
1.98
2.65
3.52
4.68
6.13
7.7
9.24
10.59
11.66
12.4
12.84
13.05
13.17
13.39
13.78
14.34
14.9
15.24
15.16
14.58
13.61
12.49
11.46
10.71
10.22
9.84
9.36
8.59
7.51
6.26
5.1
4.27
3.88
3.81
3.77
3.39
2.37
0.64
-1.67
-4.24
-6.69
-8.72
-10.17
-11.11
-11.8
-12.57
-13.81
-15.79
-18.49
-21.56
-24.36
-26.09
-26.09
-24.07
-20.28
-15.36
-10.21
-5.59
-1.97
0.54
2.19
3.3
4.25
5.3
6.56
8.0
9.43
10.61
11.34
11.61
11.58
11.54
11.72
12.19
12.8
13.38
13.78
14.01
14.17
14.32
14.45
14.44
14.18
13.61
12.74
11.66
10.42
9.12
7.79
6.52
5.4
4.46
3.67
2.91
2.03
0.96
-0.38
-1.92
-3.56
-5.15
-6.53
-7.55
-8.24
-8.71
-9.24
-10.18
-11.82
-14.21
-17.1
-19.93
-21.94
-22.49
-21.21
-18.21
-14.08
-9.65
-5.74
-2.85
-1.03
0.1
1.08
2.39
4.22
6.42
8.66
10.56
11.82
12.43
12.5
12.29
12.02
11.87
11.88
12.06
12.37
12.76
13.2
13.66
14.09
14.4
14.49
14.22
13.53
12.46
11.16
9.86
8.78
7.99
7.39
6.8
6.05
5.09
4.06
3.1
2.3
1.61
0.8
-0.35
-1.94
-3.89
-5.98
-7.99
-9.8
-11.46
-13.07
-14.74
-16.51
-18.37
-20.35
-22.51
-24.84
-27.17
-29.06
-29.83
-28.86
-25.87
-21.2
-15.72
-10.49
-6.34
-3.58
-1.97
-0.96
-0.05
1.08
2.52
4.2
5.99
7.72
9.18
10.14
10.48
10.24
9.7
9.19
9.01
9.21
9.67
10.19
10.65
11.0
11.2
11.15
10.73
9.82
8.49
7.02
5.72
4.9
4.62
4.7
4.82
4.7
4.21
3.41
2.47
1.54
0.7
-0.08
-0.9
-1.83
-2.95
-4.26
-5.71
-7.25
-8.86
-10.53
-12.25
-14.0
-15.68
-17.24
-18.73
-20.28
-22.1
-24.22
-26.39
-27.99
-28.3
-26.75
-23.31
-18.5
-13.25
-8.5
-4.86
-2.44
-0.91
0.22
1.41
2.89
4.65
6.49
8.12
9.23
9.73
9.67
9.3
8.92
8.76
8.91
9.34
9.91
10.47
10.9
11.14
11.16
11.0
10.65
10.16
9.59
9.0
8.49
8.11
7.86
7.58
7.09
6.23
4.97
3.44
1.88
0.52
-0.55
-1.42
-2.3
-3.36
-4.69
-6.24
-7.88
-9.51
-11.08
-12.68
-14.48
-16.64
-19.12
-21.63
-23.67
-24.59
-23.92
-21.52
-17.74
-13.22
-8.7
-4.72
-1.53
0.94
2.89
4.52
6.0
7.39
8.73
10.06
11.36
12.57
13.58
14.22
14.37
14.0
13.28
12.5
11.97
11.93
12.4
13.21
14.02
14.5
14.45
13.92
13.1
12.2
11.36
10.5
9.48
8.17
6.63
5.1
3.93
3.33
