11.35
9.12
6.31
3.18
0.07
-2.7
-5.01
-6.9
-8.57
-10.21
-11.96
-13.81
-15.67
-17.38
-18.73
-19.52
-19.55
-18.67
-16.88
-14.35
-11.41
-8.5
-6.01
-4.18
-2.99
-2.24
-1.59
-0.72
0.57
2.28
4.22
6.08
7.5
8.24
8.22
7.56
6.53
5.51
4.83
4.73
5.22
6.19
7.36
8.37
8.92
8.84
8.17
7.17
6.19
5.52
5.23
5.18
5.09
4.7
3.89
2.76
1.5
0.34
-0.61
-1.37
-2.08
-2.91
-4.05
-5.65
-7.77
-10.33
-13.02
-15.35
-16.79
-16.98
-15.82
-13.54
-10.6
-7.48
-4.53
-1.94
0.25
2.09
3.65
5.01
6.31
7.65
9.06
10.39
11.41
11.88
11.67
10.9
9.82
8.77
7.99
7.61
7.58
7.77
8.04
8.29
8.41
8.31
7.92
7.22
6.2
4.94
3.54
2.12
0.8
-0.33
-1.25
-1.93
-2.38
-2.65
-2.82
-3.03
-3.47
-4.31
-5.67
-7.51
-9.7
-11.96
-13.98
-15.43
-16.03
-15.62
-14.19
-11.86
-8.99
-6.0
-3.33
-1.2
0.39
1.71
3.03
4.53
6.12
7.53
8.48
8.83
8.69
8.33
8.04
7.95
8.05
8.22
8.35
8.42
8.51
8.71
8.99
9.27
9.37
9.18
8.62
7.76
6.74
5.67
4.66
3.69
2.7
1.6
0.39
-0.85
-1.96
-2.81
-3.32
-3.49
-3.41
-3.16
-2.87
-2.69
-2.8
-3.41
-4.57
-6.14
-7.82
-9.16
-9.79
-9.51
-8.37
-6.63
-4.64
-2.73
-1.13
-0.0
0.66
0.95
1.05
1.13
1.31
1.58
1.87
2.06
2.11
2.02
1.85
1.65
1.44
1.2
0.9
0.59
0.33
0.23
0.36
0.68
1.06
1.32
1.34
1.11
0.75
0.35
-0.03
-0.47
-1.12
-2.1
-3.35
-4.76
-6.09
-7.18
-8.03
-8.71
-9.39
-10.21
-11.33
-12.85
-14.82
-17.16
-19.57
-21.61
-22.77
-22.69
-21.33
-19.01
-16.25
-13.63
-11.5
-9.91
-8.67
-7.45
-5.99
-4.15
-1.94
0.46
2.86
5.05
6.9
8.34
9.39
10.04
10.34
10.35
10.17
9.94
9.79
9.8
9.96
10.18
10.3
10.16
9.64
8.71
7.49
6.22
5.13
4.4
4.01
3.81
3.5
2.79
1.52
-0.33
-2.56
-4.91
-7.05
-8.77
-9.93
-10.58
-10.88
-11.08
-11.42
-12.09
-13.1
-14.3
-15.39
-16.07
-16.02
-15.09
-13.31
-10.86
-8.03
-5.13
-2.39
0.1
2.28
4.16
5.7
6.88
7.67
8.14
8.37
8.48
8.56
8.66
8.84
9.12
9.52
10.01
10.51
10.92
11.19
11.3
11.25
11.09
10.82
10.4
9.81
9.07
8.21
7.28
6.3
5.21
3.98
2.6
1.16
-0.16
-1.17
-1.77
-2.04
-2.19
-2.48
-3.14
-4.2
-5.58
-7.07
-8.54
-9.95
-11.48
-13.33
-15.58
-18.08
-20.41
-22.01
-22.41
-21.45
-19.36
-16.65
-13.85
-11.38
-9.37
-7.75
-6.32
-4.89
-3.33
-1.56
0.42
2.51
4.53
6.25
7.49
8.21
8.59
8.91
9.45
10.35
11.57
12.95
14.33
15.59
16.71
17.72
18.64
19.45
20.05
20.34
20.18
19.52
18.35
16.74
14.77
12.53
10.04
7.36
4.52
1.7
-0.9
-3.07
-4.75
-6.0
-7.0
-7.88
-8.66
-9.28
-9.67
-9.89
-10.15
-10.74
-11.83
-13.37
-15.03
-16.29
-16.69
-15.98
-14.2
-11.67
-8.87
-6.32
-4.42
-3.37
-3.09
-3.24
-3.36
-3.07
-2.16
-0.69
1.06
2.79
4.31
5.59
6.74
7.87
8.96
9.91
10.65
11.19
11.71
12.4
13.29
14.23
14.9
15.03
14.56
13.69
12.79
12.13
11.75
11.42
10.87
9.89
8.5
6.9
5.29
3.79
2.34
0.77
-1.09
-3.22
-5.52
-7.73
-9.62
-11.01
-11.87
-12.28
-12.44
-12.59
-13.0
-13.85
-15.19
-16.85
-18.47
-19.52
-19.5
-18.04
-15.13
-11.15
-6.77
-2.72
0.45
2.55
3.67
4.1
4.13
3.97
3.73
3.42
3.06
2.68
2.26
1.83
1.42
1.14
1.12
1.46
2.17
3.15
4.2
5.1
5.75
6.15
6.39
6.5
6.42
6.05
5.38
4.55
3.8
3.42
3.57
4.12
4.73
5.0
4.62
3.56
2.04
0.42
-1.01
-2.16
-3.08
-3.96
-5.02
-6.42
-8.27
-10.59
-13.2
-15.75
-17.73
-18.63
-18.11
-16.16
-13.11
-9.51
-6.03
-3.15
-1.05
0.33
1.25
2.05
2.93
3.95
5.07
6.19
7.2
8.05
8.67
9.08
9.24
9.19
8.93
8.54
8.06
7.58
7.14
6.84
6.76
6.91
7.23
7.52
7.55
7.1
6.14
4.84
3.46
2.28
1.4
0.74
0.09
-0.79
-2.0
-3.54
-5.28
-7.03
-8.62
-9.94
-11.0
-11.9
-12.85
-14.03
-15.44
-16.88
-17.92
-18.1
-17.08
-14.84
-11.7
-8.22
-4.95
-2.27
-0.28
1.13
2.15
2.93
3.52
3.91
4.11
4.14
4.03
3.79
3.51
3.24
3.1
3.16
3.43
3.79
4.09
4.18
4.04
3.77
3.44
3.08
2.6
1.86
0.78
-0.57
-1.95
-3.11
-3.9
-4.33
-4.59
-4.87
-5.33
-6.07
-7.16
-8.64
-10.48
-12.5
-14.35
-15.59
-15.85
-14.91
-12.89
-10.14
-7.14
-4.33
-1.99
-0.19
1.17
2.25
3.23
4.18
5.07
5.79
6.24
6.36
6.19
5.85
5.51
5.31
5.29
5.39
5.52
5.59
5.56
5.47
5.4
5.36
5.34
5.22
4.89
4.28
3.34
2.11
0.63
-1.08
-2.99
-5.04
-7.14
-9.09
-10.72
-11.95
-12.92
-13.95
-15.37
-17.34
-19.61
-21.58
-22.52
-21.92
-19.76
-16.5
-12.91
-9.66
-7.1
-5.15
-3.51
-1.89
-0.18
1.56
3.2
4.66
5.97
7.22
8.47
9.71
10.82
11.63
11.98
11.83
11.3
10.64
10.19
10.18
10.62
11.26
11.7
11.54
10.67
9.29
7.8
6.6
5.89
5.55
5.26
4.69
3.61
2.02
0.1
-1.91
-3.8
-5.45
-6.86
-8.06
-9.19
-10.37
-11.72
-13.4
-15.45
-17.84
-20.35
-22.59
-24.03
-24.18
-22.79
-20.01
-16.34
-12.49
-9.06
-6.31
-4.11
-2.1
0.05
2.51
5.19
7.83
10.18
12.07
13.46
14.43
15.06
15.44
15.65
15.77
15.85
15.96
16.15
16.46
16.9
17.4
17.8
17.97
17.8
17.24
16.38
15.3
14.09
12.8
11.46
10.14
8.89
7.77
6.71
5.62
4.31
2.61
0.52
-1.82
-4.11
-6.06
-7.47
-8.38
-9.0
-9.69
-10.74
-12.34
-14.46
-16.92
-19.41
-21.54
-22.95
-23.3
-22.38
-20.21
-17.0
-13.19
-9.29
-5.73
-2.7
-0.18
2.01
4.09
6.18
8.29
10.24
11.85
13.0
13.63
13.79
13.62
13.28
12.94
12.73
12.78
13.14
13.76
14.4
14.8
14.69
14.0
12.86
11.61
10.58
9.91
9.58
9.36
9.03
8.49
7.81
7.07
6.36
5.69
5.0
4.24
3.45
2.71
2.08
1.6
1.17
0.68
-0.04
-1.11
-2.49
-4.09
-5.71
-7.22
-8.65
-10.17
-11.97
-14.08
-16.31
-18.19
-19.13
-18.7
-16.81
-13.79
-10.26
-6.87
-4.08
-1.99
-0.41
0.94
2.29
3.68
5.05
6.27
7.27
8.09
8.79
9.43
9.97
10.32
10.42
10.3
10.08
9.87
9.71
9.56
9.34
9.04
8.7
8.41
8.26
8.26
8.37
8.49
8.54
8.36
7.82
6.79
5.25
3.35
1.4
-0.2
-1.22
-1.61
-1.6
-1.49
-1.53
-1.8
-2.28
-2.93
-3.78
-4.9
-6.35
-8.05
-9.81
-11.44
-12.84
-14.06
-15.15
-16.04
-16.5
-16.15
-14.78
-12.41
-9.41
-6.33
-3.61
-1.48
0.16
1.55
2.89
4.22
5.34
6.07
6.29
6.14
5.87
5.77
6.01
6.53
7.13
7.57
7.67
7.41
6.88
6.27
5.74
5.38
5.16
5.0
4.77
4.41
3.91
3.39
2.96
2.67
2.46
2.17
1.68
0.93
0.02
-0.9
-1.69
-2.34
-2.9
-3.46
-4.1
-4.8
-5.52
-6.2
-6.89
-7.63
-8.53
-9.63
-10.85
-11.96
-12.66
-12.64
-11.75
-10.09
-8.0
-5.92
-4.2
-2.94
-2.0
-1.14
-0.21
0.8
1.73
2.42
2.81
3.0
3.16
3.43
3.82
4.21
4.45
4.43
4.19
3.91
3.8
4.02
4.59
5.39
6.2
6.84
7.2
7.29
7.17
6.86
6.38
5.73
4.89
3.93
2.98
2.1
1.33
0.63
-0.15
-1.13
-2.32
-3.62
-4.83
-5.74
-6.25
-6.42
-6.45
-6.58
-6.97
-7.68
-8.62
-9.71
-10.85
-12.0
-13.08
-13.91
-14.22
-13.73
-12.3
-10.08
-7.42
-4.81
-2.62
-1.01
0.07
0.82
1.45
2.1
2.77
3.41
3.97
4.42
4.85
5.28
5.76
6.19
6.45
6.39
5.97
5.33
4.7
4.34
4.34
4.53
4.6
4.28
3.49
2.42
1.39
0.69
0.45
0.55
0.75
0.81
0.57
0.04
-0.66
-1.39
-2.01
-2.51
-2.88
-3.21
-3.53
-3.84
-4.15
-4.47
-4.9
-5.54
-6.43
-7.5
-8.51
-9.22
-9.53
-9.58
-9.72
-10.36
-11.7
-13.61
-15.64
-17.2
-17.8
-17.24
-15.7
-13.54
-11.26
-9.24
-7.68
-6.62
-5.94
-5.51
-5.15
-4.79
-4.35
-3.78
-3.03
-2.05
-0.89
0.35
1.47
2.3
2.78
3.02
3.24
3.7
4.54
5.7
6.98
8.1
8.83
9.12
9.0
8.65
8.22
7.88
7.68
7.62
7.64
7.58
7.33
6.83
6.1
5.22
4.34
3.56
2.92
2.39
1.88
1.35
0.74
0.06
-0.71
-1.51
-2.32
-3.11
-3.88
-4.64
-5.53
-6.7
-8.3
-10.34
-12.66
-14.93
-16.73
-17.77
-17.83
-16.92
-15.12
-12.65
-9.77
-6.82
-4.14
-1.99
-0.47
0.56
1.33
2.1
2.95
3.82
4.53
4.88
4.81
4.34
3.67
3.04
2.67
2.7
3.14
3.86
4.68
5.4
5.85
5.95
5.72
5.23
4.59
3.93
3.32
2.81
2.41
2.11
1.85
1.62
1.39
1.13
0.83
0.49
0.13
-0.22
-0.52
-0.85
-1.31
-2.03
-3.08
-4.44
-6.01
-7.66
-9.32
-10.99
-12.71
-14.54
-16.47
-18.47
-20.46
-22.28
-23.72
-24.47
-24.25
-22.88
-20.42
-17.14
-13.5
-9.98
-6.92
-4.47
-2.56
-1.03
0.28
1.47
2.57
3.62
4.67
5.81
7.11
8.59
10.17
11.77
13.29
14.65
15.77
16.65
17.32
17.87
18.45
19.23
20.34
21.79
23.47
25.16
26.67
27.89
28.86
29.68
30.49
31.38
32.47
33.84
35.57
37.65
39.99
42.36
44.57
46.48
48.24
50.2
52.81
56.25
60.25
63.99
66.4
66.56
64.14
59.54
53.75
47.97
43.21
39.99
38.39
38.02
38.27
38.48
38.18
37.34
36.47
36.48
38.37
42.62
48.92
55.99
61.82
63.98
60.14
48.61
28.9
2.26
-28.37
-58.84
-85.0
-104.0
-115.19
-120.08
-121.32
-121.34
-121.34
-121.19
-120.12
-117.74
-114.46
-111.09
-108.12
-105.14
-101.15
-95.39
-88.15
-80.78
-74.97
-71.54
-69.71
-67.43
-62.51
-53.95
-42.52
-30.38
-19.82
-12.26
-7.95
-6.23
-6.32
-7.5
-9.15
-10.44
-10.47
-8.71
-5.63
-2.76
-2.14
-5.32
-12.34
-21.61
-30.47
-36.41
-38.03
-35.41
-29.83
-22.9
-15.95
-9.63
-4.13
0.54
4.25
6.74
7.62
6.79
4.56
1.68
-0.91
-2.36
-2.28
-0.81
1.49
3.96
6.1
7.75
9.04
10.27
11.65
13.19
14.67
15.68
15.86
15.06
13.43
11.34
9.2
7.3
5.68
4.22
2.77
1.32
-0.01
-1.09
-1.87
-2.42
-2.95
-3.62
-4.47
-5.47
-6.54
-7.69
-9.04
-10.76
-13.03
-15.92
-19.26
-22.68
-25.58
-27.37
-27.58
-26.11
-23.15
-19.12
-14.5
-9.67
-4.92
-0.48
3.49
6.88
9.72
12.15
14.35
16.48
18.53
20.33
21.74
22.68
23.26
23.68
24.12
24.66
25.28
25.92
26.52
27.08
27.54
27.82
27.81
27.39
26.47
24.98
22.97
20.55
17.96
15.44
13.26
11.53
10.16
8.88
7.37
5.4
2.99
0.34
-2.28
-4.65
-6.72
-8.63
-10.62
-12.9
-15.67
-19.02
-22.95
-27.26
-31.46
-34.9
-36.82
-36.63
-34.2
-29.81
-24.19
-18.15
-12.35
-7.16
-2.64
1.31
4.77
7.78
10.29
12.33
13.99
15.44
16.77
17.99
18.98
19.67
20.1
20.46
21.0
21.84
22.84
23.67
23.91
23.38
22.16
20.6
19.02
17.56
16.1
14.37
12.15
9.47
6.58
3.86
1.57
-0.25
-1.75
-3.27
-5.03
-7.16
-9.56
-12.01
-14.19
-15.83
-16.75
-16.93
-16.6
-16.17
-16.17
-17.06
-19.0
-21.7
-24.47
-26.32
-26.37
-24.13
-19.7
-13.66
-6.92
-0.38
5.31
9.83
13.13
15.35
16.72
17.53
18.06
18.56
19.21
20.05
20.94
21.67
21.96
21.69
20.87
19.75
18.7
18.12
18.27
19.19
20.65
22.23
23.45
23.9
23.26
21.44
18.51
14.79
10.73
6.88
3.75
1.63
0.52
0.17
0.13
-0.02
-0.63
-1.86
-3.77
-6.27
-9.19
-12.35
-15.52
-18.54
-21.4
-24.26
-27.45
-31.37
-36.33
-42.39
-49.24
-56.11
-61.95
-65.67
-66.43
-63.94
-58.55
-51.0
-42.23
-32.96
-23.66
-14.48
-5.56
2.94
10.72
17.46
23.01
27.52
31.41
35.23
39.39
44.04
49.08
54.27
59.37
64.37
69.38
74.57
79.99
85.46
90.7
95.35
99.15
101.78
102.77
101.38
96.68
87.99
75.23
59.31
42.12
26.1
13.46
5.44
1.93
1.62
2.54
2.8
1.2
-2.62
-8.21
-14.68
-21.07
-26.68
-31.2
-34.75
-37.68
-40.4
-43.07
-45.52
-47.19
-47.37
-45.42
-41.06
-34.41
-26.07
-17.13
-9.14
-3.93
-2.94
-6.5
-13.31
-20.55
-24.84
-23.58
-16.1
-3.86
10.29
23.45
33.83
41.18
46.34
50.29
53.47
55.59
56.1
54.69
51.64
47.76
43.91
40.65
38.0
35.61
33.06
30.18
27.19
24.58
22.75
21.79
21.39
21.0
20.17
18.85
17.52
16.96
17.82
20.21
23.54
26.58
27.9
26.29
21.15
12.57
1.25
-11.68
-24.91
-37.16
-47.42
-55.02
-59.8
-61.95
-61.89
-60.05
-56.78
-52.45
-47.52
-42.66
-38.7
-36.36
-35.98
-37.4
-39.97
-42.73
-44.7
-45.04
-43.09
-38.49
-31.28
-21.97
-11.53
-1.25
7.68
14.52
19.19
22.27
24.71
27.43
31.12
36.0
41.89
48.33
54.69
60.23
64.19
65.93
65.0
61.32
55.27
47.63
39.44
31.73
25.23
20.21
16.42
13.32
10.38
7.32
4.14
1.13
-1.47
-3.67
-5.8
-8.37
-11.84
-16.3
-21.3
-26.0
-29.38
-30.7
-29.66
-26.56
-22.1
-17.09
-12.24
-7.98
-4.54
-1.97
-0.24
0.7
0.98
0.76
0.25
-0.3
-0.65
-0.68
-0.35
0.22
0.82
1.28
1.51
1.55
1.53
1.56
1.63
1.68
1.6
1.35
1.02
0.73
0.65
0.76
0.9
0.82
0.26
-0.92
-2.64
-4.71
-6.82
-8.7
-10.18
-11.22
-11.86
-12.17
-12.23
-12.1
-11.9
-11.77
-11.89
-12.38
-13.33
-14.75
-16.6
-18.8
-21.24
-23.62
-25.55
-26.46
-25.88
-23.52
-19.41
-14.01
-7.98
-2.09
3.08
7.19
10.27
12.6
14.63
16.74
19.22
22.09
25.21
28.37
31.41
34.27
37.0
39.67
42.35
45.1
47.96
50.95
54.06
57.11
59.85
61.97
63.28
63.8
63.7
63.29
62.8
62.26
61.45
59.95
57.25
52.82
46.29
37.55
26.87
14.91
2.64
-8.88
-18.69
-26.13
-30.95
-33.34
-33.79
-33.06
-31.92
-31.01
-30.76
-31.35
-32.77
-34.99
-37.87
-41.18
-44.43
-46.98
-48.17
-47.63
-45.52
-42.47
-39.31
-36.68
-34.8
-33.45
-32.29
-31.07
-29.89
-29.03
-28.8
-29.37
-30.65
-32.38
-34.23
-35.87
-36.93
-37.07
-35.91
-33.17
-28.87
-23.3
-17.03
-10.73
-4.99
-0.21
3.49
6.2
8.13
9.49
10.44
11.04
11.26
11.01
10.28
9.13
7.7
6.16
4.61
3.14
1.76
0.5
-0.6
-1.53
-2.34
-3.18
-4.18
-5.38
-6.68
-7.86
-8.66
-8.99
-8.93
-8.74
-8.72
-9.07
-9.7
-10.23
-10.04
-8.45
-4.99
0.42
7.3
14.71
21.61
27.12
30.87
33.0
34.04
34.58
35.02
35.46
35.81
35.91
35.68
35.19
34.55
33.8
32.89
31.69
30.05
27.93
25.4
22.57
19.58
16.43
12.99
9.04
4.39
-0.97
-6.86
-12.83
-18.52
-23.75
-28.82
-34.42
-41.36
-50.15
-60.59
-71.72
-82.03
-90.04
-94.8
-96.23
-95.11
-92.63
-89.92
-87.64
-85.89
-84.33
-82.53
-80.07
-76.63
-71.93
-65.59
-57.32
-47.07
-35.27
-22.8
-10.87
-0.63
7.19
12.35
15.08
15.84
15.08
13.15
10.27
6.6
2.35
-2.18
-6.61
-10.44
-13.17
-14.34
-13.58
-10.74
-5.91
0.54
8.02
15.9
23.59
30.77
37.41
43.71
49.92
56.13
62.14
67.54
71.82
74.55
75.4
74.21
70.86
65.24
57.37
47.48
36.01
23.64
11.15
-0.75
-11.43
-20.34
-27.01
-31.15
-32.68
-31.89
-29.39
-25.92
-22.1
-18.25
-14.33
-10.05
-5.13
0.5
6.57
12.59
17.98
22.3
25.38
27.42
28.93
30.47
32.48
35.04
37.72
39.75
40.24
38.44
34.08
27.38
19.09
10.19
1.72
-5.56
-11.18
-14.92
-16.71
-16.5
-14.27
-10.14
-4.52
1.83
7.89
12.56
15.06
15.05
12.77
8.77
3.66
-2.11
-8.26
-14.48
-20.27
-24.94
-27.82
-28.56
-27.35
-24.97
-22.49
-20.92
-20.95
-22.78
-26.23
-30.78
-35.73
-40.23
-43.42
-44.65
-43.6
-40.41
-35.63
-29.99
-24.2
-18.8
-14.07
-10.13
-7.03
-4.69
-2.99
-1.71
-0.71
0.14
0.81
1.23
1.36
1.31
1.26
1.4
1.87
2.65
3.59
4.51
5.23
5.69
5.86
5.81
5.56
5.14
4.55
3.76
2.74
1.48
0.05
-1.44
-2.86
-4.13
-5.26
-6.35
-7.54
-8.95
-10.59
-12.32
-13.95
-15.24
-16.11
-16.66
-17.27
-18.37
-20.38
-23.42
-27.16
-30.93
-33.86
-35.16
-34.36
-31.39
-26.5
-20.26
-13.35
-6.51
-0.42
4.46
7.93
10.14
11.51
12.54
13.68
15.11
16.82
18.58
20.16
21.37
22.14
22.49
22.49
22.33
22.14
22.1
22.26
22.56
22.81
22.76
22.18
20.95
19.05
16.63
13.92
11.2
8.77
6.87
5.66
5.1
4.94
4.75
4.07
2.55
0.12
-3.01
-6.46
-9.77
-12.61
-14.84
-16.54
-17.98
-19.58
-21.72
-24.73
-28.66
-33.14
-37.36
-40.27
-40.92
-38.8
-34.13
-27.68
-20.48
-13.41
-6.99
-1.38
3.43
7.5
10.86
13.55
15.69
17.51
19.16
20.66
21.92
22.81
23.27
23.43
23.47
23.57
23.76
23.99
24.15
24.18
24.11
23.99
23.8
23.46
22.82
21.74
20.18
18.21
16.02
13.85
11.94
10.45
9.39
8.63
7.89
6.76
4.85
1.86
-2.24
-7.1
-12.11
-16.51
-19.68
-21.33
-21.69
-21.38
-21.28
-22.27
-25.05
-29.88
-36.54
-44.18
-51.41
-56.68
-58.57
-56.39
-50.35
-41.55
-31.55
-21.75
-13.12
-5.97
-0.23
4.35
7.93
10.58
12.32
13.26
13.63
13.72
13.9
14.52
15.86
17.97
20.65
23.39
25.57
26.68
26.55
25.45
23.95
22.67
21.97
21.94
22.33
22.7
22.68
21.93
20.31
17.85
14.71
11.23
7.75
4.63
2.07
0.09
-1.49
-2.97
-4.66
-6.79
-9.4
-12.3
-15.17
-17.66
-19.55
-20.91
-22.06
-23.54
-25.83
-29.13
-33.17
-37.28
-40.52
-41.94
-40.86
-37.11
-31.01
-23.37
-15.21
-7.58
-1.22
3.59
7.01
9.53
11.73
13.9
16.11
18.18
19.9
21.18
22.11
22.79
23.3
23.6
23.6
23.38
23.16
23.27
23.89
24.98
26.2
27.13
27.46
27.07
26.07
24.69
23.21
21.9
20.97
20.51
20.42
20.38
19.99
18.83
16.78
13.95
10.65
7.19
3.73
0.34
-2.93
-5.96
-8.52
-10.47
-11.86
-13.0
-14.41
-16.59
-19.79
-23.9
-28.5
-32.88
-36.26
-37.92
-37.42
-34.67
-29.98
-24.01
-17.54
-11.3
-5.76
-1.07
2.87
6.28
9.39
12.29
14.94
17.21
18.97
20.13
20.68
20.69
20.32
19.77
19.26
19.01
19.16
19.71
20.53
21.39
22.05
22.31
22.08
21.35
20.16
18.56
16.61
14.45
12.3
10.38
8.85
7.65
6.56
5.25
3.43
1.02
-1.87
-4.88
-7.74
-10.21
-12.28
-14.09
-15.83
-17.59
-19.47
-21.55
-24.01
-27.02
-30.54
-34.22
-37.23
-38.57
-37.38
-33.37
-26.99
-19.25
-11.33
-4.23
1.49
5.74
8.71
10.79
12.38
13.83
15.36
17.03
18.7
20.24
21.45
22.3
22.87
23.28
23.62
23.94
24.21
24.39
24.4
24.12
23.4
22.11
20.18
17.73
14.99
12.31
10.0
8.29
7.23
6.61
6.12
5.37
4.09
2.22
-0.08
-2.47
-4.64
-6.41
-7.82
-9.09
-10.42
-11.88
-13.35
-14.53
-15.24
-15.43
-15.41
-15.7
-16.9
-19.42
-23.28
-28.04
-32.79
-36.37
-37.74
-36.26
-31.91
-25.33
-17.58
-9.85
-3.1
2.1
5.69
7.9
9.22
10.12
11.01
12.09
13.37
14.7
15.85
16.68
17.21
17.57
17.96
18.44
18.92
19.27
19.34
19.11
18.64
17.99
17.23
16.37
15.44
14.48
13.58
12.86
12.38
12.13
12.01
11.83
11.38
10.49
9.12
7.38
5.48
3.66
2.08
0.74
-0.49
-1.76
-3.23
-4.94
-6.89
-9.04
-11.33
-13.74
-16.26
-18.96
-21.98
-25.43
-29.29
-33.13
-36.2
-37.58
-36.5
-32.79
-26.98
-20.14
-13.55
-8.19
-4.52
-2.52
-1.9
-2.41
-3.96
-6.54
-10.03
-14.05
-17.95
-21.0
-22.58
-22.45
-20.75
-17.88
-14.31
-10.43
-6.45
-2.53
1.15
4.34
6.75
8.22
8.73
8.46
7.7
6.71
5.69
4.64
3.5
2.14
0.5
-1.38
-3.36
-5.29
-7.03
-8.56
-9.9
-11.1
-12.19
-13.16
-13.98
-14.7
-15.53
-16.76
-18.7
-21.4
-24.55
-27.49
-29.37
-29.4
-27.17
-22.77
-16.75
-9.93
-3.2
2.66
7.15
10.07
11.46
11.54
10.69
9.27
7.54
5.73
3.93
2.26
0.78
-0.47
-1.49
-2.35
-3.15
-3.93
-4.63
-5.14
-5.39
-5.33
-4.99
-4.42
-3.67
-2.7
-1.5
-0.14
1.29
2.69
3.99
5.24
6.46
7.68
8.8
9.67
10.1
10.02
9.51
8.78
8.09
7.66
7.52
7.5
7.27
6.48
4.93
2.47
-0.84
-4.89
-9.45
-14.2
-18.64
-22.23
-24.52
-25.33
-24.97
-24.1
-23.47
-23.6
-24.55
-25.89
-26.99
-27.31
-26.67
-25.2
-23.23
-21.0
-18.56
-15.76
-12.39
-8.42
-3.99
0.55
4.87
8.83
12.45
15.95
19.52
23.22
26.95
30.47
33.53
35.98
37.79
39.04
39.82
40.23
40.31
40.04
39.36
38.17
36.32
33.8
30.7
27.3
23.95
21.0
18.65
16.92
15.78
15.2
15.26
16.05
17.54
19.44
21.16
21.99
21.35
19.1
15.63
11.84
8.89
7.82
9.29
13.41
19.78
27.71
36.44
45.36
53.99
62.0
69.05
74.95
79.65
83.39
86.6
89.67
92.67
95.34
97.17
97.82
97.35
96.06
94.11
91.01
85.53
76.11
61.67
42.38
19.86
-3.19
-23.93
-40.17
-50.85
-55.99
-56.39
-53.38
-48.78
-44.83
-43.88
-47.7
-56.77
-69.97
-84.87
-98.64
-109.09
-115.35
-117.98
-118.41
-118.23
-118.55
-119.85
-121.96
-124.34
-126.25
-126.82
-125.16
-120.3
-111.51
-98.44
-81.48
-61.82
-41.34
-22.22
-6.21
5.76
13.84
18.97
22.43
25.24
27.9
30.44
32.68
34.51
36.03
37.51
39.25
41.43
44.07
46.98
49.84
52.23
53.81
54.36
53.83
52.28
49.67
45.84
40.44
33.22
24.17
13.8
2.99
-7.2
-15.82
-22.38
-26.81
-29.4
-30.64
-31.04
-31.04
-30.94
-30.9
-30.89
-30.82
-30.49
-29.82
-28.87
-27.9
-27.26
-27.36
-28.42
-30.42
-32.99
-35.43
-36.94
-36.79
-34.57
-30.29
-24.34
-17.29
-9.75
-2.2
5.07
11.9
18.15
23.6
27.92
30.74
31.77
30.94
28.43
24.65
20.05
15.04
9.97
5.19
1.13
-1.58
-2.26
-0.42
4.05
10.67
18.47
26.2
32.66
36.97
38.71
37.94
35.04
30.63
25.44
20.2
15.53
11.86
9.35
7.85
6.99
6.29
5.4
4.21
2.78
1.3
-0.12
-1.56
-3.25
-5.57
-8.79
-12.98
-17.86
-22.82
-26.96
-29.36
-29.38
-26.9
-22.41
-16.85
-11.21
-6.25
-2.22
1.04
3.89
6.59
9.23
11.68
13.78
15.41
16.57
17.32
17.8
18.13
18.41
18.68
18.87
18.93
18.78
18.44
18.05
17.77
17.68
17.71
17.63
17.19
16.24
14.85
13.27
11.84
10.78
10.12
9.64
9.03
8.0
6.51
4.69
2.81
1.14
-0.16
-1.14
-1.92
-2.72
-3.73
-5.12
-7.02
-9.49
-12.54
-15.87
-18.94
-20.92
-21.02
-18.86
-14.68
-9.34
-3.91
0.8
4.54
7.7
10.95
14.7
18.87
22.76
25.43
26.15
24.6
21.03
16.04
10.42
4.99
0.5
-2.47
-3.62
-2.99
-0.93
2.01
5.3
8.44
10.99
12.59
12.95
11.98
9.88
7.09
4.18
1.59
-0.45
-2.07
-3.5
-4.91
-6.34
-7.65
-8.67
-9.23
-9.31
-9.06
-8.77
-8.91
-9.92
-12.14
-15.67
-20.26
-25.34
-30.16
-33.98
-36.14
-36.18
-34.01
-29.88
-24.48
-18.76
-13.75
-10.22
-8.51
-8.42
-9.38
-10.74
-11.94
-12.67
-12.85
-12.48
-11.68
-10.63
-9.59
-8.86
-8.73
-9.35
-10.66
-12.37
-14.02
-15.16
-15.41
-14.59
-12.74
-10.12
-7.02
-3.75
-0.4
3.04
6.73
10.79
15.2
19.73
23.98
27.5
29.93
31.1
31.06
30.03
28.36
26.37
24.35
22.41
20.58
18.8
17.03
15.3
13.64
12.08
10.56
9.01
7.51
6.39
6.24
7.62
10.79
15.36
20.35
24.52
26.89
27.2
26.0
24.35
23.4
23.86
25.84
28.89
32.26
35.13
36.8
36.76
34.74
30.73
25.08
18.47
11.85
6.2
2.27
0.39
0.38
1.63
3.33
4.79
5.6
5.72
5.36
4.81
4.27
3.79
3.3
2.74
2.07
1.31
0.44
-0.56
-1.75
-3.17
-4.83
-6.72
-8.84
-11.17
-13.75
-16.56
-19.56
-22.66
-25.58
-28.01
-29.51
-29.74
-28.46
-25.78
-22.04
-17.79
-13.56
-9.67
-6.22
-3.12
-0.3
2.25
4.43
6.19
7.54
8.62
9.54
10.38
11.08
11.55
11.75
11.77
11.8
12.08
12.71
13.68
14.88
16.15
17.35
18.34
18.96
18.98
18.21
16.58
14.28
11.68
9.27
7.41
6.26
5.63
5.15
4.43
3.21
1.44
-0.75
-3.11
-5.42
-7.51
-9.35
-11.01
-12.6
-14.26
-16.07
-18.05
-20.05
-21.82
-22.94
-22.92
-21.42
-18.32
-13.94
-8.94
-4.15
-0.35
2.03
2.95
2.76
2.04
1.32
0.97
1.2
1.96
3.09
4.33
5.47
6.31
6.81
7.02
7.12
7.31
7.81
8.66
9.79
10.98
11.94
12.44
12.39
11.85
10.99
10.05
9.14
8.32
7.54
6.7
5.69
4.46
3.0
1.36
-0.36
-2.0
-3.41
-4.54
-5.43
-6.22
-7.09
-8.24
-9.81
-11.88
-14.45
-17.44
-20.62
-23.57
-25.7
-26.38
-25.18
-22.06
-17.43
-12.08
-6.88
-2.5
0.72
2.84
4.18
5.16
6.13
7.29
8.64
10.05
11.31
12.31
13.05
13.72
14.53
15.65
17.04
18.49
19.78
20.74
21.36
21.76
22.05
22.29
22.37
22.16
21.57
20.65
19.53
18.36
17.19
15.96
14.55
12.88
11.01
9.12
7.39
5.9
4.55
3.14
1.44
-0.62
-2.97
-5.49
-8.1
-10.85
-13.76
-16.69
-19.23
-20.79
-20.77
-18.92
-15.5
-11.21
-6.94
-3.37
-0.79
0.88
1.93
2.57
2.89
2.92
2.74
2.61
2.89
3.79
5.24
6.9
8.36
9.33
9.86
10.18
10.53
10.98
11.36
11.4
10.91
9.9
8.59
7.25
6.03
4.96
3.98
3.06
2.19
1.44
0.74
-0.04
-1.15
-2.72
-4.7
-6.86
-8.84
-10.41
-11.52
-12.39
-13.37
-14.78
-16.76
-19.25
-22.02
-24.74
-27.04
-28.49
-28.71
-27.42
-24.62
-20.72
-16.39
-12.39
-9.22
-6.96
-5.31
-3.84
-2.26
-0.62
0.79
1.66
1.89
1.67
1.31
1.15
1.32
1.76
2.26
2.62
2.76
2.72
2.66
2.74
3.1
3.74
4.5
5.16
5.48
5.35
4.83
4.13
3.53
3.25
3.34
3.71
4.21
4.68
5.06
5.28
5.3
5.05
4.46
3.53
2.34
1.03
-0.29
-1.54
-2.79
-4.2
-6.0
-8.35
-11.26
-14.48
-17.51
-19.73
-20.62
-19.94
-17.9
-15.03
-11.99
-9.32
-7.25
-5.78
-4.74
-4.03
-3.63
-3.59
-3.87
-4.36
-4.86
-5.2
-5.28
-5.07
-4.62
-3.99
-3.24
-2.45
-1.8
-1.41
-1.34
-1.53
-1.78
-1.86
-1.66
-1.23
-0.77
-0.49
-0.46
-0.62
-0.79
-0.86
-0.83
-0.88
-1.18
-1.79
-2.63
-3.47
-4.09
-4.39
-4.41
-4.35
-4.48
-5.03
-6.17
-7.9
-10.1
-12.51
-14.78
-16.49
-17.23
-16.72
-14.85
-11.71
-7.64
-3.16
1.18
4.85
7.54
9.25
10.21
10.78
11.22
11.62
11.84
11.68
11.0
9.85
8.51
7.29
6.46
6.1
6.13
6.43
6.89
7.49
8.13
8.74
9.13
9.15
8.7
7.76
6.43
4.86
3.23
1.76
0.67
0.06
-0.08
0.07
0.17
-0.09
-0.88
-2.17
-3.75
-5.41
-7.01
-8.52
-10.04
-11.66
-13.47
-15.56
-17.99
-20.73
-23.64
-26.38
-28.51
-29.52
-29.07
-27.07
-23.77
-19.63
-15.29
-11.31
-8.12
-5.9
-4.56
-3.81
-3.26
-2.57
-1.5
-0.06
1.63
3.34
4.91
6.24
7.33
8.26
9.08
9.85
10.56
11.14
11.55
11.71
11.65
11.43
11.22
11.18
11.42
11.92
12.44
12.71
12.47
11.64
10.35
8.89
7.5
6.26
5.04
3.59
1.67
-0.79
-3.65
-6.56
-9.09
-10.97
-12.13
-12.79
-13.34
-14.22
-15.77
-18.05
-20.81
-23.52
-25.5
-26.13
-25.05
-22.22
-18.03
-13.12
-8.2
-3.88
-0.43
2.13
4.0
5.41
6.53
7.52
8.5
9.59
10.9
12.42
14.03
15.52
16.63
17.25
17.35
17.08
16.55
15.88
15.16
14.48
13.99
13.78
13.91
14.3
14.73
14.95
14.74
14.02
12.84
11.38
9.85
8.36
6.94
5.57
4.27
3.04
1.92
0.84
-0.36
-1.87
-3.84
-6.22
-8.85
-11.45
-13.87
-16.11
-18.38
-20.87
-23.68
-26.65
-29.38
-31.31
-31.91
-30.88
-28.19
-24.2
-19.5
-14.76
-10.5
-7.0
-4.28
-2.17
-0.51
0.83
1.91
2.79
3.54
4.28
5.12
6.06
7.02
7.85
8.37
8.47
8.17
7.63
7.13
6.9
7.03
7.47
7.98
8.34
8.37
8.06
7.49
6.78
5.96
4.96
3.69
2.13
0.39
-1.3
-2.68
-3.58
-4.02
-4.21
-4.47
-5.01
-5.92
-7.09
-8.32
-9.5
-10.69
-12.16
-14.2
-16.92
-20.09
-23.15
-25.32
-25.9
-24.52
-21.3
-16.74
-11.64
-6.8
-2.76
0.29
2.54
4.42
6.39
8.68
11.26
13.81
15.89
17.2
17.67
17.47
16.96
16.46
16.19
16.22
16.51
16.96
17.41
17.67
17.54
16.89
15.68
14.07
12.31
10.71
9.45
8.54
7.88
7.3
6.72
6.18
5.74
5.43
5.16
4.72
3.89
2.61
0.98
-0.76
-2.32
-3.56
-4.5
-5.38
-6.43
-7.86
-9.66
-11.77
-14.08
-16.46
-18.7
-20.46
-21.28
-20.61
-18.16
-14.05
-8.9
-3.61
0.94
4.29
6.52
8.1
9.63
11.39
13.28
14.94
16.0
16.32
16.07
15.61
15.32
15.4
15.81
16.39
16.94
17.3
17.42
17.26
16.87
16.29
15.55
14.65
13.56
12.31
10.89
9.36
7.77
6.16
4.59
3.1
1.71
0.45
-0.72
-1.95
-3.36
-5.03
-6.88
-8.74
-10.43
-11.86
-13.1
-14.29
-15.59
-17.04
-18.66
-20.46
-22.51
-24.92
-27.59
-30.19
-32.1
-32.6
-31.19
-27.82
-22.92
-17.3
-11.79
-7.01
-3.17
-0.2
2.16
4.13
5.81
7.21
8.29
9.07
9.63
10.12
10.67
11.39
12.28
13.23
14.06
14.6
14.73
14.52
14.15
13.84
13.73
13.77
13.76
13.46
12.73
11.64
10.39
9.21
8.23
7.42
6.62
5.66
4.45
3.04
1.59
0.29
-0.78
-1.71
-2.67
-3.91
-5.56
-7.57
-9.79
-11.96
-13.88
-15.51
-16.94
-18.39
-20.05
-21.98
-24.02
-25.85
-27.03
-27.16
-25.98
-23.44
-19.76
-15.29
-10.47
-5.76
-1.56
1.84
4.25
5.59
5.97
5.64
4.97
4.38
4.21
4.63
5.62
6.99
8.46
9.79
10.81
11.41
11.63
11.53
11.24
10.93
10.72
10.68
10.75
10.82
10.74
10.42
9.86
9.07
8.08
6.89
5.5
3.99
2.53
1.27
0.3
-0.42
-1.12
-1.97
-3.11
-4.52
-6.06
-7.6
-9.06
-10.41
-11.73
-13.08
-14.53
-16.17
-18.08
-20.31
-22.79
-25.25
-27.19
-27.99
-27.17
-24.56
-20.45
-15.45
-10.4
-5.99
-2.58
-0.2
1.37
2.43
3.22
3.87
4.5
5.17
5.89
6.64
7.29
7.71
7.75
7.44
6.96
6.62
6.73
7.44
8.65
10.04
11.21
11.83
11.8
11.28
10.53
9.79
9.15
8.48
7.59
6.31
4.64
2.75
0.9
-0.71
-2.0
-3.01
-3.89
-4.75
-5.68
-6.7
-7.84
-9.09
-10.47
-12.0
-13.66
-15.51
-17.61
-20.0
-22.62
-25.21
-27.32
-28.38
-27.92
-25.74
-22.01
-17.22
-12.0
-6.99
-2.66
0.73
3.16
4.77
5.82
6.6
7.38
8.35
9.54
10.89
12.27
13.53
14.54
15.3
15.85
16.28
16.64
16.91
17.04
16.94
16.62
16.13
15.55
14.97
14.39
13.82
13.23
12.6
11.91
11.09
10.07
8.79
7.28
5.69
4.2
2.93
1.83
0.72
-0.6
-2.16
-3.85
-5.46
-6.86
-8.06
-9.29
-10.79
-12.71
-15.12
-17.89
-20.9
-23.96
-26.75
-28.8
-29.59
-28.69
-26.03
-21.96
-17.08
-12.08
-7.46
-3.48
-0.22
2.25
3.89
4.72
4.93
4.89
5.02
5.62
6.68
7.99
9.23
10.2
10.91
11.49
12.09
12.73
13.29
13.61
13.62
13.35
12.94
12.47
12.02
11.54
10.96
10.21
9.22
7.97
6.49
4.9
3.34
1.99
0.98
0.28
-0.27
-0.93
-1.96
-3.43
-5.22
-7.08
-8.77
-10.19
-11.42
-12.61
-13.89
-15.36
-17.01
-18.75
-20.34
-21.45
-21.62
-20.45
-17.73
-13.62
-8.69
-3.73
0.51
3.66
5.7
6.97
7.86
8.65
9.4
10.07
10.62
11.09
11.59
12.17
12.83
13.44
13.91
14.19
14.32
14.38
14.4
14.39
14.31
14.13
13.78
13.18
12.24
10.86
9.06
6.99
4.92
3.19
1.99
1.32
0.94
0.46
-0.52
-2.2
-4.57
-7.35
-10.13
-12.53
-14.3
-15.52
-16.39
-17.26
-18.43
-20.1
-22.29
-24.87
-27.52
-29.66
-30.64
-29.83
-26.9
-22.08
-16.1
-10.03
-4.84
-1.12
1.15
2.4
3.24
4.12
5.21
6.46
7.8
9.16
10.52
11.87
13.05
13.87
14.18
13.99
13.47
12.95
12.67
12.74
13.14
13.72
14.39
14.99
15.38
15.35
14.79
13.65
12.13
10.54
9.16
8.11
7.25
6.32
5.13
3.61
1.88
0.1
-1.65
-3.41
-5.25
-7.15
-9.02
-10.73
-12.26
-13.8
-15.72
-18.42
-22.0
-26.17
-30.21
-33.21
-34.32
-33.14
-29.79
-24.89
-19.33
-13.97
-9.38
-5.79
-3.1
-1.08
0.57
2.07
3.56
5.13
6.78
8.49
10.19
11.77
13.16
14.31
15.27
16.09
16.8
17.39
17.83
18.09
18.24
18.35
18.49
18.57
18.41
17.8
16.67
15.12
13.4
11.8
10.51
9.53
8.73
7.92
6.99
5.9
4.67
3.33
1.9
0.37
-1.27
-2.96
-4.57
-6.03
-7.34
-8.66
-10.28
-12.42
-15.16
-18.2
-20.95
-22.71
-22.87
-21.26
-18.13
-14.08
-9.85
-6.03
-2.99
-0.81
0.67
1.69
2.56
3.52
4.66
5.92
7.11
8.01
8.47
8.5
8.26
7.95
7.81
