-16.41
-17.81
-18.77
-18.98
-18.3
-16.8
-14.68
-12.21
-9.58
-6.87
-4.16
-1.58
0.68
2.41
3.57
4.35
5.02
5.85
6.93
8.12
9.11
9.7
9.82
9.64
9.47
9.54
9.98
10.7
11.47
12.06
12.31
12.2
11.83
11.32
10.77
10.25
9.74
9.23
8.75
8.3
7.92
7.58
7.21
6.76
6.22
5.6
4.98
4.39
3.84
3.31
2.75
2.13
1.4
0.53
-0.48
-1.64
-2.92
-4.29
-5.69
-6.95
-7.81
-7.94
-7.02
-4.87
-1.6
2.44
6.76
10.94
14.77
18.3
21.7
25.11
28.55
31.93
35.15
38.25
41.33
44.54
47.92
51.35
54.6
57.41
59.7
61.56
63.24
65.08
67.36
70.27
73.88
78.2
83.25
89.05
95.54
102.53
109.67
116.58
122.75
127.5
130.05
129.51
125.24
117.14
105.84
92.57
78.74
65.51
53.41
42.39
31.97
21.52
10.4
-2.0
-16.16
-32.31
-50.1
-68.56
-86.2
-101.55
-113.57
-121.88
-126.73
-128.67
-128.31
-126.21
-122.87
-118.84
-114.64
-110.61
-106.85
-103.2
-99.37
-95.14
-90.43
-85.34
-80.13
-75.05
-70.29
-65.94
-61.9
-57.98
-53.98
-49.77
-45.35
-40.88
-36.58
-32.64
-29.21
-26.36
-24.13
-22.61
-21.85
-21.91
-22.71
-24.13
-25.94
-27.88
-29.68
-31.08
-31.84
-31.75
-30.66
-28.55
-25.42
-21.47
-16.93
-12.2
-7.72
-3.95
-1.25
0.18
0.38
-0.42
-1.83
-3.43
-4.81
-5.56
-5.37
-4.05
-1.61
1.68
5.35
8.9
11.92
14.25
15.94
17.17
18.1
18.81
19.24
19.31
18.99
18.36
17.64
17.05
16.77
16.81
17.06
17.29
17.38
17.32
17.23
17.25
17.44
17.69
17.77
17.49
16.77
15.69
14.41
13.09
11.84
10.7
9.77
9.13
8.87
8.96
9.34
9.86
10.42
10.99
11.63
12.41
13.28
14.08
14.55
14.56
14.05
13.22
12.38
11.89
12.11
13.27
15.53
18.83
22.93
27.44
31.96
36.18
40.04
43.64
47.17
50.73
54.33
57.87
61.26
64.46
67.35
69.7
71.08
71.03
69.23
65.7
60.83
55.25
49.66
44.69
40.8
38.21
36.83
36.22
35.68
34.45
32.05
28.52
24.34
20.18
16.42
12.88
8.74
2.73
-6.44
-19.75
-37.55
-59.35
-83.81
-108.87
-132.21
-151.75
-166.18
-175.23
-179.64
-180.74
-179.93
-178.26
-176.08
-173.02
-167.98
-159.59
-146.66
-128.94
-107.47
-84.5
-62.8
-44.59
-30.77
-20.85
-13.59
-7.89
-3.43
-0.57
0.16
-1.26
-4.07
-7.08
-9.2
-9.86
-8.99
-6.85
-3.85
-0.56
2.29
3.87
3.58
1.33
-2.24
-6.08
-9.2
-11.14
-12.12
-12.84
-14.08
-16.42
-20.15
-25.35
-31.96
-39.71
-48.09
-56.26
-63.26
-68.46
-71.65
-73.12
-73.46
-73.21
-72.57
-71.31
-68.91
-64.79
-58.56
-50.15
-39.72
-27.61
-14.16
0.19
14.98
29.62
43.47
55.95
66.65
75.38
82.2
87.29
90.91
93.32
94.71
95.25
95.06
94.25
92.91
91.06
88.69
85.74
82.14
77.84
72.94
67.65
62.29
57.22
52.7
48.78
45.33
42.13
38.94
35.55
31.85
27.79
23.4
18.79
14.12
9.61
5.42
1.6
-1.95
-5.46
-9.19
-13.29
-17.82
-22.69
-27.72
-32.72
-37.45
-41.57
-44.66
-46.28
-46.1
-44.12
-40.63
-36.19
-31.36
-26.6
-22.07
-17.74
-13.52
-9.34
-5.26
-1.4
2.07
5.01
7.34
9.12
10.48
11.66
12.87
14.19
15.54
16.66
17.3
17.36
16.96
16.47
16.18
16.24
16.47
16.54
16.12
15.1
13.65
12.11
10.81
9.84
9.11
8.3
7.2
5.71
3.93
2.06
0.28
-1.31
-2.73
-4.04
-5.31
-6.57
-7.82
-9.11
-10.56
-12.28
-14.36
-16.78
-19.33
-21.7
-23.45
-24.14
-23.43
-21.21
-17.68
-13.3
-8.69
-4.46
-1.09
1.23
2.57
3.17
3.39
3.59
3.97
4.66
5.62
6.69
7.68
8.45
8.92
9.17
9.35
9.58
9.95
10.43
10.98
11.58
12.18
12.74
13.16
13.28
12.93
11.97
10.42
8.42
6.27
4.29
2.74
1.69
1.03
0.5
-0.2
-1.25
-2.62
-4.09
-5.39
-6.34
-6.95
-7.46
-8.19
-9.4
-11.17
-13.39
-15.83
-18.29
-20.6
-22.67
-24.36
-25.42
-25.57
-24.52
-22.24
-19.01
-15.47
-12.36
-10.37
-9.78
-10.39
-11.67
-12.97
-13.89
-14.39
-14.8
-15.53
-16.88
-18.86
-21.26
-23.81
-26.36
-28.83
-31.14
-33.0
-33.85
-32.99
-29.77
-23.94
-15.83
-6.33
3.39
12.2
19.38
24.65
27.92
28.95
27.23
22.26
14.13
4.1
-5.46
-11.78
-12.85
-8.4
-0.04
9.65
18.44
25.44
31.24
36.95
43.05
48.81
52.62
53.05
49.9
44.49
38.99
35.35
34.35
35.29
36.58
36.59
34.46
30.31
24.95
19.36
14.27
10.05
6.81
4.61
3.46
3.29
3.89
4.92
6.0
6.83
7.25
7.26
7.01
6.7
6.59
6.96
8.04
9.9
12.3
14.65
16.15
16.13
14.44
11.53
8.37
6.07
5.35
6.23
8.05
9.75
10.4
9.61
7.7
5.38
3.3
1.77
0.63
-0.47
-1.8
-3.33
-4.81
-6.01
-6.92
-7.79
-8.98
-10.73
-12.94
-15.32
-17.56
-19.54
-21.33
-23.07
-24.7
-25.92
-26.15
-24.96
-22.26
-18.39
-14.04
-9.91
-6.46
-3.82
-1.84
-0.25
1.15
2.45
3.64
4.69
5.55
6.24
6.79
7.23
7.64
8.06
8.51
9.02
9.54
10.02
10.43
10.71
10.89
10.99
11.1
11.26
11.49
11.65
11.51
10.81
9.44
7.5
5.33
3.35
1.83
0.8
0.01
-0.88
-2.08
-3.56
-5.1
-6.5
-7.72
-8.93
-10.38
-12.22
-14.37
-16.6
-18.64
-20.35
-21.7
-22.67
-23.11
-22.7
-21.17
-18.36
-14.54
-10.22
-6.09
-2.66
-0.18
1.43
2.44
3.13
3.77
4.46
5.22
6.01
6.78
7.51
8.17
8.78
9.31
9.75
10.08
10.34
10.59
10.91
11.33
11.72
11.94
11.85
11.48
10.97
10.48
10.09
9.64
8.91
7.67
5.93
3.91
1.95
0.32
-0.9
-1.82
-2.63
-3.5
-4.47
-5.48
-6.49
-7.45
-8.42
-9.5
-10.8
-12.41
-14.35
-16.55
-18.95
-21.37
-23.6
-25.32
-26.2
-25.93
-24.35
-21.49
-17.68
-13.42
-9.28
-5.7
-2.91
-0.81
0.85
2.34
3.84
5.31
6.63
7.68
8.49
9.19
9.96
10.84
11.69
12.32
12.58
12.56
12.47
12.59
13.0
13.61
14.17
14.47
14.44
14.14
13.69
13.16
12.56
11.86
11.11
10.31
9.49
8.63
7.61
6.45
5.19
4.05
3.16
2.56
2.05
1.33
0.1
-1.7
-3.86
-6.03
-7.89
-9.37
-10.7
-12.27
-14.45
-17.38
-20.89
-24.45
-27.46
-29.28
-29.49
-27.97
-24.9
-20.78
-16.17
-11.63
-7.53
-4.05
-1.18
1.11
2.84
4.09
4.99
5.81
6.82
8.19
9.84
11.53
12.93
13.81
14.18
14.21
14.22
14.51
15.24
16.45
18.04
19.7
21.05
21.7
21.42
20.24
18.5
16.67
15.16
14.1
13.29
12.38
11.12
9.53
7.88
6.51
5.54
4.82
3.96
2.67
0.87
-1.19
-3.17
-4.81
-6.12
-7.35
-8.77
-10.58
-12.71
-14.98
-17.22
-19.32
-21.2
-22.74
-23.65
-23.51
-22.06
-19.25
-15.42
-11.17
-7.1
-3.63
-0.82
1.43
3.36
5.1
6.68
8.04
9.16
10.07
10.89
11.73
12.63
13.61
14.64
15.67
16.68
17.65
18.6
19.6
20.72
22.0
23.35
24.59
25.42
25.61
25.03
23.79
22.11
20.28
18.48
16.76
15.05
13.27
11.44
9.66
8.09
6.82
5.76
4.72
3.42
1.78
-0.12
-2.06
-3.84
-5.47
-7.17
-9.22
-11.81
-14.88
-18.21
-21.47
-24.32
-26.51
-27.79
-27.96
-26.9
-24.65
-21.49
-17.81
-14.12
-10.76
-7.9
-5.51
-3.49
-1.74
-0.16
1.3
2.68
3.99
5.27
6.52
7.72
8.88
9.93
10.83
11.51
11.98
12.33
12.68
13.11
13.57
13.92
14.05
13.91
13.68
13.55
13.7
14.06
14.41
14.42
13.91
12.81
11.26
9.45
7.58
5.79
4.17
2.8
1.69
0.82
0.03
-0.86
-2.04
-3.55
-5.3
-7.08
-8.7
-10.1
-11.36
-12.73
-14.51
-16.93
-20.01
-23.5
-26.88
-29.41
-30.39
-29.37
-26.36
-21.87
-16.67
-11.58
-7.08
-3.3
-0.04
2.93
5.73
8.27
10.4
12.03
13.17
13.95
14.48
14.81
14.95
14.96
14.94
15.09
15.57
16.44
17.6
18.87
19.98
20.68
20.81
20.32
19.33
18.02
16.61
15.26
14.03
12.95
12.02
11.25
10.62
10.04
9.38
8.46
7.19
5.64
4.0
2.5
1.28
0.3
-0.64
-1.74
-3.18
-4.89
-6.71
-8.38
-9.73
-10.76
-11.64
-12.64
-14.04
-15.95
-18.34
-21.01
-23.68
-26.0
-27.57
-28.0
-27.0
-24.5
-20.72
-16.15
-11.39
-6.96
-3.17
-0.1
2.33
4.24
5.73
6.87
7.74
8.45
9.12
9.89
10.77
11.74
12.68
13.49
14.11
14.5
14.69
14.73
14.66
14.56
14.54
14.7
15.08
15.58
15.96
15.91
15.19
13.81
12.04
10.26
8.85
7.91
7.32
6.85
6.29
5.6
4.83
4.07
3.34
2.59
1.82
1.09
0.48
-0.0
-0.47
-1.18
-2.32
-3.9
-5.7
-7.33
-8.5
-9.18
-9.59
-10.16
-11.22
-12.89
-14.94
-16.88
-18.11
-18.14
-16.76
-14.1
-10.58
-6.8
-3.33
-0.48
1.7
3.41
4.95
6.5
8.09
9.58
10.8
11.63
12.08
12.2
12.04
11.67
11.11
10.46
9.88
9.57
9.66
10.18
10.95
11.69
12.14
12.15
11.73
10.96
9.96
8.83
7.65
6.49
5.44
4.55
3.78
3.02
2.13
1.06
-0.09
-1.1
-1.73
-1.93
-1.85
-1.79
-2.05
-2.73
-3.76
-4.93
-6.04
-6.93
-7.63
-8.2
-8.8
-9.57
-10.66
-12.13
-13.86
-15.52
-16.62
-16.71
-15.52
-13.16
-10.03
-6.66
-3.51
-0.89
1.15
2.69
3.8
4.56
4.99
5.15
5.17
5.19
5.36
5.74
6.26
6.83
7.34
7.74
8.03
8.29
8.58
8.9
9.22
9.46
9.55
9.43
9.09
8.51
7.73
6.75
5.66
4.53
3.47
2.55
1.77
1.08
0.38
-0.4
-1.26
-2.17
-3.07
-3.91
-4.65
-5.3
-5.89
-6.52
-7.28
-8.27
-9.52
-10.99
-12.66
-14.5
-16.5
-18.58
-20.53
-21.97
-22.44
-21.57
-19.32
-16.05
-12.37
-8.92
-6.11
-4.03
-2.48
-1.21
-0.02
1.17
2.31
3.33
4.21
4.93
5.55
6.16
6.82
7.53
8.25
8.88
9.32
9.52
9.55
9.59
9.8
10.22
10.67
10.88
10.59
9.78
8.65
7.59
6.88
6.54
6.34
5.92
5.05
3.8
2.48
1.49
0.97
0.83
0.76
0.43
-0.3
-1.38
-2.65
-3.96
-5.28
-6.6
-7.95
-9.26
-10.46
-11.56
-12.66
-13.97
-15.7
-17.86
-20.23
-22.4
-23.86
-24.22
-23.3
-21.22
-18.31
-15.01
-11.72
-8.65
-5.89
-3.4
-1.15
0.82
2.48
3.78
4.8
5.71
6.61
7.58
8.51
9.26
9.69
9.76
9.59
9.34
9.18
9.18
9.31
9.46
9.52
9.42
9.12
8.71
8.28
7.91
7.6
7.28
6.86
6.29
5.59
4.84
4.13
3.52
3.0
2.57
2.23
1.98
1.76
1.49
1.01
0.24
-0.86
-2.24
-3.79
-5.43
-7.09
-8.68
-10.11
-11.32
-12.31
-13.18
-14.14
-15.41
-17.11
-19.1
-21.01
-22.33
-22.58
-21.5
-19.15
-15.9
-12.26
-8.75
-5.7
-3.25
-1.32
0.23
1.59
2.87
4.12
5.36
6.49
7.41
7.99
8.2
8.09
7.82
7.58
7.52
7.72
8.16
8.78
9.47
10.17
10.8
11.25
11.39
11.09
10.34
9.26
8.08
7.02
6.22
5.64
5.11
4.45
3.56
2.51
1.49
0.71
0.36
0.39
0.6
0.71
0.45
-0.31
-1.48
-2.81
-4.0
-4.81
-5.25
-5.56
-6.16
-7.4
-9.4
-11.92
-14.41
-16.23
-16.82
-15.98
-13.85
-10.84
-7.4
-3.84
-0.25
3.43
7.28
11.26
15.1
18.43
20.96
22.64
23.75
24.84
26.49
29.13
32.85
37.31
41.9
45.97
49.07
51.1
52.33
53.27
54.58
56.94
60.86
66.46
73.22
79.84
84.54
85.72
83.02
78.05
74.17
75.26
83.69
98.66
115.86
128.84
131.43
120.09
95.11
60.25
21.28
-15.75
-45.85
-65.81
-74.4
-72.36
-62.08
-47.09
-31.2
-17.63
-8.42
-4.27
-4.77
-8.79
-15.1
-22.88
-32.21
-43.9
-58.89
-77.22
-97.21
-115.64
-128.89
-134.54
-132.37
-124.22
-112.65
-99.5
-85.18
-69.16
-51.22
-32.28
-14.25
0.98
12.77
22.04
30.64
40.08
50.67
61.25
69.75
74.22
73.55
67.84
58.21
46.39
34.17
22.96
13.59
6.24
0.67
-3.56
-6.83
-9.27
-10.73
-11.08
-10.31
-8.8
-7.19
-6.22
-6.44
-7.97
-10.49
-13.4
-16.06
-18.03
-19.19
-19.74
-20.11
-20.75
-22.02
-24.09
-26.89
-30.11
-33.25
-35.89
-37.78
-39.02
-39.93
-40.94
-42.28
-43.88
-45.3
-45.98
-45.41
-43.4
-40.12
-36.06
-31.82
-27.98
-24.93
-22.83
-21.61
-21.12
-21.11
-21.39
-21.75
-22.05
-22.18
-22.06
-21.67
-21.0
-19.99
-18.48
-16.28
-13.24
-9.41
-5.09
-0.83
2.74
5.15
6.27
6.35
5.8
4.99
4.03
2.75
0.93
-1.5
-4.28
-6.85
-8.65
-9.43
-9.38
-9.07
-9.16
-10.1
-11.94
-14.38
-16.89
-19.08
-20.73
-21.87
-22.66
-23.28
-23.92
-24.73
-25.82
-27.24
-28.89
-30.47
-31.46
-31.33
-29.65
-26.31
-21.54
-15.81
-9.72
-3.72
1.87
6.95
11.44
15.28
18.41
20.81
22.49
23.6
24.3
24.74
25.02
25.14
25.03
24.66
24.03
23.26
22.49
21.88
21.53
21.41
21.38
21.26
20.84
19.98
18.61
16.78
14.61
12.25
9.87
7.6
5.54
3.7
2.11
0.75
-0.37
-1.25
-1.95
-2.58
-3.25
-4.04
-4.98
-6.03
-7.15
-8.32
-9.64
-11.23
-13.21
-15.61
-18.37
-21.3
-24.2
-26.79
-28.78
-29.84
-29.63
-27.92
-24.7
-20.24
-15.06
-9.84
-5.21
-1.57
1.0
2.75
4.1
5.46
7.07
8.92
10.83
12.55
13.9
14.91
15.78
16.81
18.23
20.07
22.12
24.06
25.59
26.6
27.16
27.47
27.69
27.78
27.57
26.77
25.22
22.93
20.1
17.0
13.84
10.73
7.7
4.75
1.84
-1.01
-3.9
-6.97
-10.36
-14.15
-18.3
-22.65
-26.9
-30.76
-33.92
-36.18
-37.42
-37.79
-37.6
-37.39
-37.62
-38.57
-40.13
-41.73
-42.62
-42.13
-39.9
-36.06
-31.13
-25.86
-20.93
-16.86
-13.93
-12.18
-11.43
-11.33
-11.46
-11.4
-10.86
-9.76
-8.25
-6.62
-5.14
-3.98
-3.06
-2.23
-1.32
-0.23
0.92
1.98
2.68
2.78
2.12
0.6
-1.7
-4.54
-7.49
-10.06
-11.87
-12.83
-13.13
-13.16
-13.2
-13.3
-13.28
-12.85
-11.87
-10.57
-9.38
-8.72
-8.75
-9.24
-9.75
-9.92
-9.72
-9.44
-9.52
-10.26
-11.63
-13.25
-14.55
-14.95
-14.1
-11.95
-8.8
-5.18
-1.65
1.4
3.99
6.55
9.76
14.15
19.69
25.58
30.46
32.99
32.58
29.78
26.24
23.95
24.47
28.08
33.7
39.33
42.78
42.3
36.93
26.62
12.51
-2.76
-15.15
-20.21
-14.94
0.31
21.18
40.62
51.83
51.41
40.72
24.99
10.49
1.6
-0.67
1.79
6.16
10.34
13.69
16.46
18.74
19.94
18.82
14.33
6.26
-4.44
-15.97
-26.21
-33.48
-37.08
-37.48
-36.07
-34.64
-34.55
-36.2
-38.86
-40.99
-41.01
-37.94
-31.86
-23.82
-15.28
-7.54
-1.17
3.91
8.27
12.46
16.75
20.97
24.78
27.81
29.93
31.28
32.11
32.63
32.92
32.87
32.34
31.22
29.5
27.2
24.36
21.05
17.45
13.88
10.85
8.82
8.1
8.59
9.78
10.98
11.48
10.96
9.55
7.82
6.47
5.92
6.18
6.72
6.77
5.63
3.04
-0.71
-4.87
-8.54
-11.0
-11.96
-11.6
-10.53
-9.68
-10.06
-12.56
-17.75
-25.57
-35.25
-45.34
-53.93
-59.17
-59.8
-55.62
-47.59
-37.47
-27.04
-17.44
-8.8
-0.43
8.56
18.7
29.93
41.74
53.6
65.31
77.0
88.78
100.44
111.29
120.34
126.68
129.76
129.65
126.85
122.15
116.26
109.63
102.38
94.42
85.67
76.24
66.43
56.62
47.12
38.15
29.87
22.47
16.04
10.39
4.87
-1.55
-9.95
-20.99
-34.61
-50.08
-66.27
-82.03
-96.34
-108.29
-117.02
-121.77
-122.23
-118.77
-112.52
-105.05
-97.79
-91.59
-86.52
-82.03
-77.34
-71.9
-65.51
-58.35
-50.81
-43.37
-36.42
-30.3
-25.18
-21.04
-17.66
-14.65
-11.59
-8.2
-4.44
-0.56
3.15
6.44
9.35
12.06
14.8
17.61
20.23
22.32
23.57
23.96
23.73
23.28
22.93
22.77
22.65
22.31
21.5
20.11
18.11
15.6
12.72
9.64
6.54
3.6
0.92
-1.41
-3.35
-4.84
-5.85
-6.35
-6.33
-5.84
-4.95
-3.79
-2.52
-1.42
-0.83
-1.07
-2.31
-4.46
-7.17
-9.96
-12.34
-13.96
-14.63
-14.34
-13.17
-11.33
-9.12
-6.94
-5.16
-3.99
-3.39
-3.07
-2.66
-1.85
-0.56
1.12
3.0
4.96
6.95
9.05
11.29
13.62
15.88
17.82
19.22
19.94
19.97
19.34
18.12
16.38
14.17
11.59
8.82
6.09
3.66
1.75
0.46
-0.23
-0.39
-0.13
0.52
1.53
2.87
4.42
5.97
7.2
7.82
7.61
6.5
4.66
2.3
-0.33
-3.05
-5.77
-8.45
-11.08
-13.58
-15.92
-18.03
-19.87
-21.36
-22.37
-22.67
-21.99
-20.17
-17.29
-13.83
-10.51
-8.12
-7.19
-7.76
-9.39
-11.34
-12.87
-13.62
-13.54
-12.85
-11.74
-10.19
-7.91
-4.61
-0.19
5.11
10.78
16.16
20.65
23.85
25.57
25.87
24.91
22.95
20.24
17.0
13.45
9.79
6.28
3.19
0.77
-0.84
-1.65
-1.75
-1.32
-0.5
0.57
1.71
2.67
3.14
2.9
1.92
0.32
-1.59
-3.56
-5.42
-7.11
-8.73
-10.4
-12.26
-14.42
-16.93
-19.73
-22.6
-25.15
-26.93
-27.53
-26.72
-24.47
-21.06
-16.94
-12.66
-8.74
-5.58
-3.29
-1.77
-0.74
0.1
0.92
1.78
2.63
3.49
4.39
5.37
6.43
7.48
8.41
9.16
9.8
10.46
11.23
12.06
12.81
13.26
13.28
12.88
12.25
11.59
11.06
10.62
10.1
9.28
8.0
6.29
4.38
2.59
1.18
0.23
-0.43
-1.07
-1.93
-3.06
-4.33
-5.5
-6.4
-7.09
-7.84
-9.02
-10.9
-13.5
-16.58
-19.71
-22.42
-24.33
-25.14
-24.66
-22.76
-19.54
-15.34
-10.72
-6.39
-2.86
-0.3
1.47
2.83
4.14
5.61
7.25
9.01
10.79
12.49
13.98
15.1
15.78
16.05
16.04
15.96
15.96
16.05
16.27
16.62
17.17
17.86
18.5
18.76
18.34
17.22
15.67
14.17
13.17
12.8
12.79
12.69
12.12
10.98
9.46
7.87
6.37
4.94
3.38
1.47
-0.84
-3.35
-5.69
-7.52
-8.66
-9.2
-9.5
-9.98
-11.03
-12.88
-15.47
-18.53
-21.6
-24.19
-25.82
-26.13
-24.96
-22.35
-18.51
-13.85
-8.91
-4.26
-0.34
2.61
4.62
5.94
6.93
7.93
9.13
10.55
12.07
13.56
14.87
15.91
16.63
17.05
17.2
17.19
17.11
17.07
17.1
17.17
17.2
17.04
16.62
15.89
14.93
13.88
12.89
12.02
11.28
10.66
10.12
9.65
9.21
8.81
8.37
7.81
7.04
6.01
4.76
3.38
2.03
0.85
-0.12
-0.94
-1.71
-2.52
-3.41
-4.34
-5.29
-6.39
-7.92
-10.13
-13.07
-16.39
-19.39
-21.25
-21.35
-19.51
-16.06
-11.63
-6.92
-2.47
1.45
4.8
7.67
10.2
12.49
14.64
16.69
18.63
20.44
22.03
23.37
24.47
25.37
26.17
26.94
27.78
28.77
29.95
31.37
33.03
34.87
36.78
38.56
40.03
41.12
41.85
42.37
42.77
43.01
42.87
42.01
40.14
37.13
33.13
28.54
23.86
19.51
15.71
12.39
9.32
6.21
2.78
-1.06
-5.3
-9.79
-14.32
-18.72
-22.82
-26.56
-29.98
-33.17
-36.23
-39.16
-41.69
-43.27
-43.23
-40.93
-36.18
-29.31
-21.2
-13.04
-5.97
-0.74
2.39
3.63
3.5
2.58
1.37
0.26
-0.54
-0.99
-1.18
-1.26
-1.38
-1.56
-1.65
-1.36
-0.44
1.16
3.25
5.44
7.33
8.62
9.17
9.0
8.15
6.76
5.0
3.21
1.78
1.09
1.26
2.05
2.92
3.27
2.64
0.88
-1.77
-4.95
-8.24
-11.44
-14.56
-17.81
-21.46
-25.66
-30.39
-35.32
-39.92
-43.59
-45.88
-46.62
-45.96
-44.34
-42.31
-40.33
-38.65
-37.21
-35.78
-33.95
-31.34
-27.74
-23.14
-17.8
-12.15
-6.77
-2.24
0.96
2.54
2.47
0.99
-1.45
-4.3
-7.02
-9.12
-10.26
-10.24
-8.96
-6.53
-3.27
0.37
3.86
6.75
8.82
10.05
10.62
10.69
10.4
9.8
8.96
7.96
6.97
6.12
5.46
4.91
4.34
3.62
2.77
1.93
1.28
0.97
1.02
1.31
1.65
1.85
1.79
1.41
0.72
-0.18
-1.15
-1.99
-2.58
-2.87
-3.06
-3.42
-4.32
-5.94
-8.14
-10.42
-12.03
-12.27
-10.77
-7.65
-3.41
1.34
6.12
10.69
14.98
18.95
22.44
25.26
27.33
28.86
30.3
32.15
34.66
37.75
41.07
44.35
47.56
50.98
54.89
59.19
63.3
66.22
67.04
65.4
61.62
56.45
50.6
44.27
37.18
28.84
19.2
9.07
0.03
-6.14
-8.25
-6.29
-1.4
4.62
10.02
13.48
13.98
10.41
1.34
-14.6
-37.81
-66.79
-97.88
-126.0
-146.36
-156.1
-155.33
-146.82
-134.64
-122.57
-112.95
-106.32
-101.87
-98.29
-94.35
-89.31
-82.89
-75.14
-66.31
-56.72
-46.79
-36.97
-27.81
-19.81
-13.4
-8.79
-5.87
-4.24
-3.38
-2.87
-2.58
-2.63
-3.22
-4.29
-5.43
-5.88
-4.86
-1.94
2.8
8.76
15.11
21.04
25.96
29.49
31.46
31.83
30.69
28.32
25.13
21.64
18.36
15.64
13.64
12.34
11.54
11.05
10.69
10.33
9.88
9.31
8.6
7.69
6.46
4.75
2.31
-1.07
-5.45
-10.72
-16.43
-21.96
-26.58
-29.64
-30.76
-29.89
-27.32
-23.55
-19.15
-14.69
-10.67
-7.42
-5.03
-3.36
-2.05
-0.64
1.19
3.48
5.97
8.21
9.83
10.72
11.07
11.26
11.66
12.41
13.41
14.43
15.22
15.71
15.9
15.88
15.67
15.25
14.51
13.39
11.94
10.3
8.65
7.12
5.77
4.56
3.4
2.22
0.91
-0.6
-2.4
-4.5
-6.89
-9.49
-12.18
-14.86
-17.42
-19.74
-21.7
-23.26
-24.43
-25.46
-26.63
-28.28
-30.51
-33.03
-35.28
-36.5
-36.1
-33.79
-29.75
-24.53
-18.89
-13.5
-8.75
-4.72
-1.23
1.93
4.83
7.38
9.37
10.69
11.4
11.83
12.45
13.66
15.64
18.3
21.35
24.4
27.15
29.38
31.04
32.16
32.88
33.35
33.64
33.72
33.44
32.65
31.34
29.66
27.94
26.56
25.76
25.58
25.84
26.31
26.73
26.98
27.07
27.14
27.41
28.12
29.4
31.18
33.15
34.78
35.53
35.13
33.75
31.98
30.57
30.01
30.28
30.92
31.37
31.48
31.77
33.26
37.03
43.53
52.32
62.14
71.29
78.01
80.84
78.58
70.55
57.01
39.7
22.06
8.51
3.07
7.66
21.13
39.55
57.75
71.39
78.37
79.15
75.72
70.28
64.19
57.8
50.99
43.85
37.03
31.47
27.87
26.21
25.73
25.31
23.93
21.19
17.34
13.07
9.16
6.15
4.06
2.43
0.43
-2.87
-8.03
-15.05
-23.26
-31.67
-39.38
-46.05
-52.03
-58.08
-64.88
-72.51
-80.35
-87.28
-92.15
-94.19
-93.24
-89.66
-84.1
-77.24
-69.75
-62.15
-54.96
-48.59
-43.28
-38.96
-35.18
-31.21
-26.42
-20.5
-13.71
-6.79
-0.67
3.94
6.83
8.3
8.96
9.38
9.9
10.54
11.19
11.75
12.24
12.76
13.39
14.1
14.79
15.27
15.49
15.49
15.43
15.45
15.62
15.86
15.97
15.71
14.9
13.51
11.64
9.53
7.48
5.72
4.38
3.37
2.44
1.22
-0.58
-3.14
-6.39
-10.04
-13.67
-16.78
-18.94
-19.83
-19.32
-17.49
-14.56
-10.94
-7.07
-3.42
-0.34
1.99
3.6
4.69
5.55
6.37
7.16
7.77
8.01
7.82
7.35
6.95
6.92
7.43
8.39
9.53
10.58
11.35
11.81
12.02
12.08
11.99
11.71
11.22
10.48
9.51
8.36
7.05
5.61
4.13
2.7
1.42
0.32
-0.7
-1.84
-3.25
-4.98
-6.89
-8.66
-9.98
-10.79
-11.27
-11.9
-13.14
-15.22
-17.98
-20.87
-23.19
-24.29
-23.85
-21.96
-18.98
-15.41
-11.73
-8.29
-5.3
-2.81
-0.82
0.79
2.23
3.66
5.2
6.82
8.32
9.46
10.07
10.18
9.95
9.66
9.47
9.42
9.39
9.21
8.82
8.3
7.87
7.71
7.9
8.33
8.75
8.94
8.72
8.12
7.27
6.32
5.35
4.37
3.32
2.21
1.06
-0.1
-1.26
-2.48
-3.77
-5.17
-6.6
-8.04
-9.54
-11.29
-13.49
-16.26
-19.45
-22.66
-25.28
-26.7
-26.51
-24.64
-21.39
-17.33
-13.14
-9.36
-6.29
-3.91
-1.98
-0.21
1.61
3.46
5.17
6.48
7.29
7.67
7.87
8.21
8.83
9.7
10.6
11.28
11.64
11.78
11.96
12.41
13.15
13.9
14.24
13.86
12.68
10.95
9.1
7.47
6.21
5.27
4.48
3.76
3.08
2.52
2.02
1.46
0.66
-0.49
-1.95
-3.49
-4.88
-5.98
-6.8
-7.52
-8.35
-9.47
-10.99
-12.89
-14.98
-16.97
-18.5
-19.16
-18.67
-16.98
-14.33
-11.13
-7.85
-4.85
-2.29
-0.16
1.62
3.17
4.53
5.67
6.51
7.01
7.16
7.03
6.74
6.41
6.16
6.04
6.07
6.23
6.43
6.65
6.81
6.91
6.92
6.85
6.72
6.53
6.21
5.68
4.94
4.01
2.99
2.06
1.25
0.53
-0.23
-1.12
-2.12
-3.11
-3.92
-4.42
-4.69
-4.93
-5.41
-6.36
-7.85
-9.76
-11.95
-14.23
-16.44
-18.37
-19.78
-20.35
-19.8
-18.0
-15.1
-11.53
-7.86
-4.62
-2.09
-0.25
1.12
2.29
3.4
4.46
5.39
6.16
6.77
7.29
7.71
7.98
7.96
7.6
6.92
6.12
5.42
4.95
4.76
4.77
4.85
