-9.73
-11.03
-12.77
-14.64
-16.13
-16.8
-16.53
-15.45
-13.82
-11.76
-9.3
-6.55
-3.81
-1.6
-0.32
0.05
-0.0
0.21
1.15
2.72
4.38
5.6
6.22
6.59
7.22
8.39
9.97
11.49
12.61
13.29
13.85
14.61
15.61
16.5
16.82
16.26
14.86
12.94
10.89
8.99
7.43
6.33
5.72
5.5
5.36
4.83
3.58
1.66
-0.43
-1.97
-2.51
-2.18
-1.57
-1.38
-2.01
-3.31
-4.82
-6.08
-6.96
-7.6
-8.38
-9.6
-11.39
-13.72
-16.32
-18.79
-20.61
-21.37
-20.87
-19.25
-16.86
-14.09
-11.12
-7.96
-4.6
-1.26
1.65
3.68
4.73
5.09
5.37
6.1
7.42
9.05
10.46
11.23
11.22
10.64
9.9
9.39
9.29
9.6
10.08
10.42
10.42
10.06
9.54
9.15
9.07
9.2
9.26
8.96
8.25
7.42
6.89
6.81
6.91
6.63
5.42
3.26
0.7
-1.44
-2.58
-2.78
-2.68
-3.07
-4.38
-6.39
-8.46
-9.87
-10.32
-10.02
-9.61
-9.77
-10.89
-12.91
-15.4
-17.68
-19.14
-19.44
-18.54
-16.65
-14.1
-11.16
-8.07
-5.08
-2.49
-0.58
0.5
0.91
1.07
1.51
2.59
4.32
6.36
8.16
9.27
9.49
9.02
8.36
8.07
8.54
9.74
11.13
11.91
11.43
9.53
6.82
4.43
3.46
4.37
6.69
9.13
10.21
8.97
5.43
0.65
-3.73
-6.14
-5.82
-3.05
0.88
4.23
5.52
4.09
0.27
-4.69
-9.12
-11.44
-10.72
-7.02
-1.48
3.97
7.23
6.84
2.64
-3.97
-10.4
-13.82
-12.34
-6.02
2.85
10.31
12.39
6.9
-5.25
-20.04
-31.78
-35.57
-29.65
-16.34
-0.98
10.71
15.46
13.72
8.81
4.61
3.21
4.13
5.23
4.68
2.39
0.03
-0.24
2.62
7.73
12.76
15.33
14.34
10.47
5.56
1.61
-0.15
0.46
2.68
5.23
6.9
6.96
5.42
2.96
0.6
-0.88
-1.28
-1.1
-1.17
-2.07
-3.79
-5.66
-6.97
-7.38
-7.27
-7.43
-8.57
-10.89
-13.89
-16.68
-18.42
-18.67
-17.46
-15.16
-12.29
-9.3
-6.54
-4.26
-2.6
-1.58
-0.99
-0.53
0.18
1.32
2.85
4.43
5.7
6.43
6.78
7.24
8.31
10.08
12.05
13.39
13.44
12.24
10.6
9.62
10.03
11.6
13.25
13.66
12.06
8.73
4.92
2.16
1.47
2.92
5.54
7.95
8.89
7.82
4.99
1.3
-2.21
-4.81
-6.28
-6.91
-7.15
-7.27
-7.34
-7.27
-7.02
-6.78
-6.84
-7.36
-8.19
-8.92
-9.18
-8.86
-8.24
-7.8
-7.91
-8.61
-9.58
-10.43
-10.86
-10.8
-10.4
-9.75
-8.85
-7.58
-5.89
-3.87
-1.87
-0.28
0.62
0.85
0.77
0.87
1.5
2.66
3.97
4.89
5.09
4.57
3.71
3.02
2.81
3.09
3.6
4.04
4.23
4.19
4.08
4.01
4.05
4.18
4.39
4.61
4.73
4.54
3.85
2.63
1.11
-0.27
-1.09
-1.23
-1.02
-1.05
-1.85
-3.55
-5.8
-7.96
-9.46
-10.08
-9.99
-9.6
-9.39
-9.66
-10.5
-11.78
-13.2
-14.37
-14.92
-14.58
-13.29
-11.21
-8.63
-5.94
-3.45
-1.42
-0.04
0.6
0.61
0.31
0.11
0.43
1.34
2.58
3.66
4.11
3.83
3.07
2.32
1.98
2.2
2.78
3.44
4.01
4.54
5.22
6.12
7.04
7.51
7.12
5.77
3.84
2.05
1.03
1.01
1.67
2.37
2.47
1.78
0.52
-0.78
-1.63
-1.87
-1.7
-1.55
-1.81
-2.68
-4.09
-5.83
-7.69
-9.55
-11.37
-13.1
-14.72
-16.17
-17.4
-18.32
-18.83
-18.75
-17.91
-16.21
-13.7
-10.67
-7.59
-5.03
-3.37
-2.68
-2.6
-2.55
-1.99
-0.62
1.48
4.01
6.63
9.19
11.69
14.08
16.21
17.62
17.87
16.81
14.84
12.75
11.35
10.97
11.26
11.48
10.98
9.68
8.08
6.98
6.87
7.65
8.64
9.03
8.34
6.65
4.49
2.45
0.89
-0.15
-0.84
-1.39
-1.85
-2.19
-2.38
-2.46
-2.56
-2.85
-3.44
-4.36
-5.54
-6.87
-8.27
-9.72
-11.34
-13.27
-15.57
-18.13
-20.6
-22.48
-23.35
-22.92
-21.24
-18.67
-15.73
-12.98
-10.79
-9.3
-8.34
-7.56
-6.62
-5.31
-3.68
-2.04
-0.71
0.13
0.69
1.52
3.28
6.42
10.9
16.13
21.18
25.1
27.39
28.06
27.67
26.96
26.52
26.59
27.09
27.79
28.39
28.56
27.73
25.25
20.63
14.02
6.34
-1.03
-6.91
-11.04
-14.18
-17.56
-22.11
-27.8
-33.66
-38.44
-41.41
-42.66
-42.93
-42.91
-42.76
-42.1
-40.47
-37.9
-35.01
-32.75
-31.74
-32.01
-32.94
-33.65
-33.48
-32.26
-30.34
-28.29
-26.58
-25.29
-24.19
-22.95
-21.26
-19.08
-16.57
-13.92
-11.31
-8.71
-5.99
-3.04
0.1
3.21
5.93
8.08
9.76
11.45
13.64
16.61
20.17
23.8
26.93
29.24
30.78
31.85
32.72
33.41
33.7
33.26
31.99
30.07
27.95
26.15
24.95
24.27
23.74
22.9
21.43
19.27
16.66
13.87
11.12
8.45
5.75
3.02
0.39
-1.88
-3.74
-5.4
-7.4
-10.22
-14.02
-18.35
-22.32
-24.96
-25.67
-24.43
-21.75
-18.4
-15.09
-12.25
-10.01
-8.25
-6.77
-5.36
-3.85
-2.19
-0.41
1.3
2.79
3.96
4.88
5.71
6.58
7.51
8.4
9.11
9.5
9.64
9.7
9.93
10.56
11.66
13.12
14.64
15.82
16.25
15.76
14.41
12.56
10.65
9.03
7.8
6.78
5.7
4.37
2.85
1.34
0.07
-0.91
-1.68
-2.38
-3.08
-3.73
-4.19
-4.44
-4.68
-5.24
-6.45
-8.45
-11.03
-13.8
-16.27
-18.08
-18.98
-18.87
-17.77
-15.75
-13.03
-9.89
-6.67
-3.62
-0.88
1.55
3.7
5.65
7.4
8.94
10.27
11.4
12.35
13.08
13.59
13.89
14.08
14.27
14.5
14.79
15.06
15.29
15.49
15.66
15.76
15.68
15.29
14.5
13.35
12.02
10.71
9.6
8.77
8.2
7.84
7.63
7.47
7.23
6.71
5.78
4.38
2.66
0.91
-0.55
-1.56
-2.18
-2.74
-3.72
-5.55
-8.37
-11.9
-15.49
-18.38
-19.96
-19.94
-18.48
-15.95
-12.78
-9.25
-5.5
-1.7
1.82
4.59
6.18
6.45
5.77
4.89
4.64
5.54
7.55
10.17
12.7
14.58
15.62
15.91
15.69
15.18
14.49
13.71
12.95
12.41
12.27
12.55
13.11
13.59
13.63
13.0
11.78
10.27
8.87
7.86
7.24
6.78
6.16
5.24
4.1
2.98
2.1
1.45
0.79
-0.19
-1.59
-3.27
-4.85
-6.05
-6.81
-7.35
-8.1
-9.36
-11.21
-13.39
-15.45
-16.92
-17.44
-16.93
-15.51
-13.44
-10.97
-8.3
-5.58
-2.96
-0.62
1.26
2.56
3.35
3.83
4.31
5.03
6.04
7.17
8.14
8.71
8.76
8.4
7.82
7.24
6.82
6.61
6.61
6.82
7.23
7.83
8.56
9.22
9.49
9.1
7.97
6.31
4.6
3.37
2.91
3.17
3.77
4.2
4.05
3.27
2.1
0.89
-0.05
-0.69
-1.21
-1.89
-2.9
-4.23
-5.7
-7.14
-8.49
-9.84
-11.43
-13.4
-15.64
-17.75
-19.16
-19.34
-18.06
-15.47
-12.04
-8.46
-5.35
-3.1
-1.79
-1.16
-0.79
-0.3
0.53
1.69
2.99
4.18
5.09
5.67
5.98
6.1
6.12
6.08
6.08
6.18
6.45
6.82
7.1
7.01
6.31
4.99
3.27
1.54
0.2
-0.53
-0.69
-0.51
-0.32
-0.35
-0.73
-1.44
-2.46
-3.72
-5.11
-6.43
-7.43
-7.85
-7.59
-6.74
-5.61
-4.59
-3.98
-3.92
-4.29
-4.78
-4.99
-4.66
-3.68
-2.19
-0.44
1.32
2.91
4.29
5.46
6.39
6.99
7.19
7.04
6.73
6.51
6.58
6.92
7.33
7.53
7.28
6.53
5.41
4.11
2.9
1.99
1.51
1.48
1.79
2.2
2.41
2.27
1.82
1.27
0.8
0.45
-0.0
-0.9
-2.4
-4.32
-5.98
-6.45
-4.91
-0.92
5.52
14.34
25.54
39.27
55.49
73.57
92.04
108.97
122.65
132.29
138.26
141.56
142.89
141.99
137.76
129.12
116.22
101.0
86.75
76.85
73.37
76.4
84.19
93.93
102.4
106.42
103.26
91.33
71.12
45.86
20.96
2.31
-6.15
-3.95
5.69
17.39
25.55
25.85
15.87
-4.79
-34.47
-69.3
-103.46
-130.42
-145.0
-145.47
-134.4
-117.56
-101.45
-90.67
-86.66
-88.04
-92.12
-96.39
-99.36
-100.43
-99.44
-96.29
-90.94
-83.62
-74.98
-66.01
-57.84
-51.31
-46.74
-43.88
-42.08
-40.66
-39.11
-37.32
-35.56
-34.33
-34.1
-35.09
-37.06
-39.38
-41.14
-41.46
-39.9
-36.6
-32.37
-28.33
-25.42
-23.99
-23.67
-23.53
-22.56
-20.29
-16.97
-13.55
-11.08
-10.19
-10.62
-11.29
-10.72
-7.68
-1.74
6.57
15.96
24.98
32.54
38.32
42.73
46.63
50.86
55.86
61.6
67.64
73.26
77.46
78.86
75.86
67.25
53.37
36.83
22.36
15.18
18.63
32.36
52.16
71.83
85.97
92.34
92.35
89.6
87.54
87.77
89.74
91.76
92.46
91.48
89.17
85.75
80.6
72.38
59.76
42.46
21.64
-0.1
-19.65
-34.41
-43.09
-46.1
-45.21
-42.87
-41.24
-41.59
-43.98
-47.51
-50.83
-52.78
-52.81
-51.15
-48.57
-46.01
-44.08
-42.93
-42.23
-41.43
-40.1
-38.22
-36.18
-34.6
-33.99
-34.48
-35.63
-36.71
-36.98
-36.06
-34.05
-31.45
-28.79
-26.43
-24.46
-22.78
-21.37
-20.29
-19.73
-19.84
-20.63
-21.89
-23.27
-24.38
-24.89
-24.69
-23.82
-22.48
-20.92
-19.29
-17.69
-16.11
-14.53
-12.94
-11.45
-10.2
-9.35
-9.03
-9.25
-9.96
-11.03
-12.27
-13.46
-14.39
-14.84
-14.8
-14.36
-13.69
-13.0
-12.4
-11.93
-11.61
-11.52
-11.76
-12.43
-13.54
-14.95
-16.39
-17.62
-18.51
-19.16
-19.73
-20.37
-21.07
-21.7
-22.1
-22.25
-22.32
-22.56
-23.21
-24.33
-25.72
-27.11
-28.18
-28.8
-28.99
-28.87
-28.54
-28.04
-27.28
-26.15
-24.54
-22.46
-20.0
-17.35
-14.73
-12.31
-10.19
-8.4
-6.9
-5.6
-4.32
-2.98
-1.52
-0.04
1.34
2.49
3.4
4.19
5.03
6.09
7.39
8.84
10.25
11.43
12.26
12.68
12.81
12.76
12.66
12.58
12.55
12.52
12.43
12.28
12.11
12.06
12.19
12.45
12.65
12.55
11.99
11.01
9.82
8.67
7.75
7.09
6.59
6.07
5.4
4.53
3.49
2.3
1.01
-0.39
-1.87
-3.36
-4.81
-6.18
-7.42
-8.46
-9.26
-9.76
-9.92
-9.8
-9.52
-9.23
-9.03
-8.92
-8.83
-8.68
-8.44
-8.17
-7.99
-7.98
-8.11
-8.25
-8.22
-7.96
-7.49
-6.99
-6.59
-6.35
-6.19
-5.93
-5.52
-5.07
-4.85
-5.1
-5.89
-7.02
-8.14
-8.88
-9.12
-8.99
-8.74
-8.64
-8.74
-8.97
-9.14
-9.19
-9.15
-9.19
-9.45
-9.92
-10.45
-10.81
-10.81
-10.41
-9.74
-9.01
-8.41
-8.04
-7.84
-7.71
-7.53
-7.27
-6.97
-6.67
-6.31
-5.8
-5.07
-4.13
-3.11
-2.19
-1.53
-1.2
-1.17
-1.35
-1.69
-2.19
-2.82
-3.48
-4.03
-4.34
-4.37
-4.2
-4.0
-3.91
-3.95
-4.06
-4.11
-4.07
-4.0
-4.02
-4.12
-4.19
-4.02
-3.44
-2.5
-1.47
-0.68
-0.4
-0.63
-1.16
-1.66
-1.89
-1.81
-1.57
-1.39
-1.44
-1.74
-2.2
-2.71
-3.19
-3.67
-4.26
-4.99
-5.88
-6.84
-7.7
-8.31
-8.59
-8.54
-8.22
-7.7
-7.08
-6.35
-5.51
-4.54
-3.49
-2.46
-1.56
-0.88
-0.38
0.07
0.63
1.41
2.37
3.39
4.31
5.0
5.45
5.72
5.91
6.1
6.36
6.67
6.99
7.2
7.18
6.81
6.11
5.19
4.21
3.29
2.43
1.56
0.6
-0.37
-1.16
-1.52
-1.34
-0.75
0.02
0.64
0.89
0.77
0.34
-0.29
-1.07
-1.99
-3.0
-3.96
-4.7
-5.07
-5.08
-4.91
-4.86
-5.17
-5.89
-6.81
-7.54
-7.75
-7.23
-6.03
-4.45
-2.86
-1.6
-0.84
-0.51
-0.39
-0.25
0.11
0.69
1.33
1.88
2.22
2.33
2.35
2.38
2.55
2.86
3.28
3.71
4.03
4.07
3.65
2.75
1.53
0.35
-0.42
-0.57
-0.18
0.4
0.76
0.64
0.05
-0.81
-1.68
-2.38
-2.91
-3.35
-3.75
-4.16
-4.54
-4.88
-5.21
-5.55
-5.95
-6.42
-6.92
-7.35
-7.61
-7.62
-7.3
-6.63
-5.64
-4.44
-3.17
-1.98
-0.95
-0.11
0.59
1.23
1.87
2.56
3.31
4.13
5.0
5.88
6.69
7.31
7.6
7.49
7.02
6.32
5.52
4.76
4.1
3.6
3.32
3.32
3.62
4.16
4.73
5.15
5.2
4.79
3.95
2.79
1.52
0.33
-0.63
-1.32
-1.76
-2.09
-2.44
-2.98
-3.76
-4.75
-5.79
-6.65
-7.12
-7.12
-6.69
-6.02
-5.36
-4.94
-4.9
-5.2
-5.72
-6.24
-6.63
-6.76
-6.6
-6.15
-5.44
-4.58
-3.69
-2.89
-2.23
-1.68
-1.1
-0.34
0.69
1.96
3.32
4.57
5.53
6.1
6.31
6.28
6.13
5.93
5.69
5.39
4.96
4.46
3.97
3.63
3.54
3.72
4.13
4.61
5.03
5.27
5.27
5.02
4.55
3.86
3.03
2.14
1.27
0.49
-0.17
-0.69
-1.12
-1.49
-1.79
-2.04
-2.3
-2.63
-3.15
-3.92
-5.01
-6.34
-7.76
-8.98
-9.78
-10.02
-9.77
-9.27
-8.76
-8.42
-8.24
-8.1
-7.83
-7.35
-6.62
-5.7
-4.64
-3.51
-2.31
-1.08
0.13
1.27
2.33
3.32
4.26
5.08
5.69
5.98
5.94
5.61
5.16
4.75
4.49
4.4
4.43
4.46
4.44
4.36
4.24
4.14
4.06
4.02
4.02
4.08
4.21
4.4
4.52
4.4
3.92
3.08
2.03
1.02
0.2
-0.42
-0.97
-1.62
-2.45
-3.39
-4.29
-5.04
-5.59
-6.01
-6.43
-6.87
-7.36
-7.87
-8.32
-8.61
-8.64
-8.27
-7.44
-6.21
-4.71
-3.14
-1.62
-0.19
1.12
2.34
3.36
4.1
4.49
4.57
4.49
4.4
4.48
4.76
5.21
5.71
6.1
6.25
6.11
5.74
5.26
4.85
4.63
4.62
4.72
4.77
4.67
4.37
3.9
3.27
2.47
1.48
0.32
-0.93
-2.13
-3.14
-3.92
-4.52
-5.1
-5.8
-6.79
-8.07
-9.56
-11.12
-12.61
-13.95
-15.18
-16.43
-17.83
-19.41
-21.13
-22.81
-24.28
-25.32
-25.79
-25.57
-24.63
-23.03
-20.94
-18.61
-16.28
-14.07
-11.91
-9.67
-7.21
-4.54
-1.81
0.72
2.89
4.66
6.12
7.43
8.71
10.08
11.61
13.32
15.21
17.15
18.99
20.55
21.73
22.54
23.14
23.63
24.03
24.21
23.91
22.95
21.33
19.27
17.13
15.22
13.7
12.45
11.22
9.74
7.87
5.68
3.34
1.03
-1.17
-3.31
-5.47
-7.73
-10.05
-12.35
-14.5
-16.48
-18.32
-20.19
-22.25
-24.57
-27.02
-29.28
-30.85
-31.24
-30.15
-27.58
-23.8
-19.28
-14.58
-10.09
-6.06
-2.45
0.88
4.15
7.48
10.81
13.96
16.69
18.83
20.31
21.22
21.7
21.9
21.93
21.86
21.76
21.7
21.76
21.94
22.13
22.18
21.94
21.34
20.4
19.22
17.93
16.63
15.32
13.92
12.29
10.35
8.14
5.87
3.87
2.41
1.58
1.14
0.69
-0.24
-1.91
-4.32
-7.16
-10.01
-12.45
-14.33
-15.74
-17.01
-18.57
-20.78
-23.78
-27.37
-31.07
-34.18
-35.99
-36.02
-34.11
-30.5
-25.69
-20.29
-14.81
-9.63
-4.97
-0.92
2.51
5.37
7.78
9.91
11.89
13.76
15.44
16.8
17.76
18.41
18.93
19.54
20.34
21.29
22.25
23.03
23.56
23.83
23.89
23.78
23.49
22.92
21.97
20.57
18.79
16.81
14.88
13.19
11.79
10.53
9.1
7.23
4.77
1.9
-1.06
-3.68
-5.74
-7.27
-8.57
-9.99
-11.81
-14.12
-16.85
-19.91
-23.15
-26.37
-29.14
-30.9
-30.94
-28.84
-24.6
-18.8
-12.38
-6.26
-1.06
3.08
6.34
9.01
11.23
13.01
14.31
15.2
15.85
16.5
17.26
18.07
18.77
19.19
19.29
19.22
19.22
19.5
20.08
20.84
21.5
21.77
21.47
20.56
19.14
17.45
15.75
14.26
13.07
12.13
11.31
10.45
9.44
8.28
7.02
5.71
4.34
2.88
1.27
-0.48
-2.31
-4.11
-5.79
-7.33
-8.8
-10.35
-12.1
-14.15
-16.58
-19.36
-22.35
-25.26
-27.62
-28.88
-28.6
-26.6
-23.09
-18.61
-13.79
-9.19
-5.12
-1.6
1.51
4.39
7.11
9.62
11.81
13.58
14.91
15.87
16.59
17.18
17.71
18.16
18.44
18.46
18.23
17.94
17.82
18.06
18.58
19.09
19.14
18.41
16.88
14.91
12.94
11.41
10.42
9.8
9.23
8.47
7.46
6.31
5.2
4.21
3.31
2.42
1.44
0.35
-0.83
-2.02
-3.19
-4.33
-5.46
-6.63
-7.85
-9.17
-10.7
-12.58
-14.9
-17.64
-20.5
-22.91
-24.23
-23.97
-22.04
-18.81
-14.99
-11.27
-8.13
-5.61
-3.49
-1.4
0.88
3.37
5.91
8.23
10.12
11.38
12.02
12.12
11.87
11.55
11.38
11.5
11.94
12.61
13.39
14.18
14.87
15.39
15.66
15.56
15.0
13.93
12.34
10.33
8.11
5.97
4.21
3.06
2.49
2.33
2.22
1.87
1.11
0.02
-1.18
-2.29
-3.24
-4.18
-5.31
-6.77
-8.6
-10.7
-12.94
-15.29
-17.7
-20.11
-22.24
-23.6
-23.64
-21.99
-18.7
-14.3
-9.62
-5.42
-2.15
0.24
2.09
3.84
5.69
7.58
9.27
10.61
11.57
12.31
12.98
13.59
14.01
14.05
13.7
13.15
12.73
12.69
13.14
13.88
14.59
14.95
14.77
14.0
12.73
11.09
9.28
7.52
6.05
5.03
4.46
4.17
3.88
3.36
2.52
1.44
0.29
-0.76
-1.68
-2.53
-3.42
-4.42
-5.6
-6.93
-8.41
-10.04
-11.83
-13.74
-15.7
-17.62
-19.43
-21.1
-22.6
-23.8
-24.42
-24.17
-22.79
-20.22
-16.67
-12.55
-8.35
-4.47
-1.16
1.49
3.52
5.09
6.34
7.44
8.48
9.45
10.26
10.81
11.06
11.1
11.1
11.22
11.51
11.92
12.35
12.69
12.88
12.94
12.87
12.68
12.35
11.84
11.09
10.12
8.98
7.78
6.68
5.76
5.03
4.41
3.78
3.1
2.36
1.58
0.8
-0.05
-1.02
-2.1
-3.18
-4.12
-4.77
-5.16
-5.51
-6.06
-6.96
-8.2
-9.53
-10.76
-11.79
-12.83
-14.11
-15.81
-17.84
-19.77
-20.98
-20.92
-19.33
-16.35
-12.5
-8.41
-4.64
-1.52
0.87
2.6
3.81
4.64
5.25
5.78
6.36
7.03
7.78
8.51
9.09
9.39
9.35
9.0
8.49
8.04
7.89
8.15
8.79
9.55
10.14
10.28
9.9
9.09
8.05
6.98
5.93
4.86
3.72
2.51
1.36
0.4
-0.28
-0.73
-1.1
-1.6
-2.41
-3.55
-4.93
-6.3
-7.45
-8.26
-8.8
-9.29
-10.05
-11.33
-13.22
-15.55
-17.9
-19.74
-20.57
-20.1
-18.37
-15.69
-12.51
-9.23
-6.11
-3.18
-0.46
2.06
4.29
6.1
7.45
8.4
9.08
9.62
10.04
10.27
10.27
10.09
9.88
9.83
10.09
10.64
11.38
12.09
12.56
12.62
12.19
11.3
10.15
9.01
8.18
7.87
8.1
8.64
9.15
9.27
8.78
7.63
5.94
3.89
1.75
-0.25
-1.83
-2.83
-3.25
-3.26
-3.23
-3.52
-4.41
-5.89
-7.74
-9.64
-11.33
-12.7
-13.87
-15.04
-16.4
-17.97
-19.58
-20.9
-21.55
-21.31
-20.12
-18.09
-15.48
-12.51
-9.41
-6.37
-3.56
-1.17
0.7
2.08
3.15
4.17
5.33
6.68
8.03
9.13
9.75
9.82
9.48
8.97
8.57
8.45
8.68
9.25
10.06
10.96
11.75
12.21
12.15
11.5
10.39
9.09
7.99
7.33
7.15
7.29
7.45
7.41
7.05
6.39
5.49
4.38
3.13
1.81
0.57
-0.42
-1.08
-1.52
-2.02
-2.88
-4.28
-6.12
-8.1
-9.87
-11.17
-12.04
-12.7
-13.44
-14.47
-15.85
-17.38
-18.77
-19.7
-19.92
-19.27
-17.71
-15.33
-12.39
-9.21
-6.17
-3.57
-1.58
-0.08
1.17
2.46
3.99
5.7
7.36
8.69
9.52
9.9
10.02
10.12
10.34
10.69
11.09
11.48
11.82
12.11
12.32
12.39
12.18
11.66
10.89
10.09
9.45
9.05
8.76
8.37
7.65
6.52
5.01
3.33
1.68
0.27
-0.73
-1.26
-1.41
-1.36
-1.42
-1.87
-2.9
-4.5
-6.51
-8.71
-10.94
-13.15
-15.35
-17.53
-19.61
-21.41
-22.69
-23.2
-22.76
-21.3
-18.92
-15.87
-12.48
-9.07
-5.86
-2.96
-0.37
1.97
4.09
6.06
7.94
9.74
11.41
12.85
13.92
14.48
14.49
14.05
13.32
12.48
11.74
11.25
11.12
11.36
11.84
12.29
12.45
12.12
11.3
10.16
8.95
7.87
7.01
6.41
6.03
5.82
5.71
5.58
5.32
4.78
3.9
2.67
1.21
-0.32
-1.67
-2.68
-3.27
-3.48
-3.5
-3.62
-4.13
-5.19
-6.8
-8.79
-10.91
-12.97
-14.88
-16.68
-18.43
-20.08
-21.41
-22.13
-21.86
-20.45
-18.02
-14.87
-11.45
-8.16
-5.26
-2.82
-0.81
0.89
2.39
3.78
5.11
6.36
7.48
8.34
8.89
9.15
9.27
9.42
9.78
10.38
11.11
11.8
12.32
12.69
12.98
13.33
13.72
14.05
14.1
13.71
12.85
11.66
10.39
9.23
8.25
7.36
6.43
5.37
4.28
3.31
2.61
2.13
1.69
0.99
-0.23
-1.98
-4.13
-6.4
-8.57
-10.48
-12.11
-13.42
-14.37
-14.94
-15.22
-15.48
-16.08
-17.29
-19.09
-21.09
-22.66
-23.2
-22.38
-20.24
-17.16
-13.64
-10.15
-7.04
-4.53
-2.67
-1.38
-0.43
0.51
1.72
3.36
5.41
7.69
9.9
11.74
12.97
13.47
13.3
12.69
11.99
11.59
11.68
12.23
12.94
13.42
13.39
12.81
11.85
10.75
9.68
8.68
7.69
6.66
5.61
4.61
3.74
2.96
2.18
1.23
0.01
-1.52
-3.31
-5.24
-7.14
-8.85
-10.26
-11.34
-12.17
-12.89
-13.66
-14.65
-15.96
-17.65
-19.66
-21.82
-23.76
-25.08
-25.29
-24.09
-21.48
-17.78
-13.54
-9.33
-5.57
-2.45
0.03
2.01
3.62
4.99
6.18
7.24
8.26
9.29
10.41
11.63
12.93
14.23
15.41
16.36
16.93
17.09
16.89
16.45
15.98
15.58
15.26
14.93
14.44
13.73
12.87
12.05
11.47
11.19
11.08
10.91
10.46
9.6
8.35
6.8
5.02
3.07
1.02
-1.06
-3.05
-4.83
-6.4
-7.82
-9.25
-10.83
-12.64
-14.67
-16.87
-19.17
-21.51
-23.82
-26.01
-27.9
-29.3
-29.94
-29.67
-28.42
-26.31
-23.51
-20.26
-16.77
-13.24
-9.84
-6.68
-3.86
-1.38
0.84
2.88
4.9
6.96
9.01
10.89
12.4
13.43
14.03
14.43
14.87
15.54
16.42
17.36
18.13
18.65
18.95
19.18
19.46
19.77
19.94
19.75
19.05
17.84
16.25
14.5
12.74
11.05
9.47
7.93
6.4
4.91
3.51
2.28
1.26
0.41
-0.46
-1.54
-2.95
-4.7
-6.59
-8.46
-10.19
-11.81
-13.41
-15.11
-16.98
-19.07
-21.44
-24.12
-27.02
-29.83
-31.94
-32.63
-31.38
-28.11
-23.31
-17.82
-12.55
-8.08
-4.55
-1.75
0.59
2.68
4.53
6.11
7.44
8.61
9.78
10.97
12.16
13.24
14.17
15.03
15.99
17.18
18.6
20.13
21.56
22.76
23.59
23.96
23.75
22.87
21.3
19.25
17.05
15.07
13.51
12.32
11.27
10.1
8.74
7.28
5.95
4.9
4.07
3.21
1.99
0.24
-2.0
-4.51
-7.0
-9.29
-11.37
-13.44
-15.74
-18.44
-21.48
-24.58
-27.25
-29.0
-29.43
-28.4
-26.06
-22.7
-18.75
-14.58
-10.44
-6.52
-2.95
0.17
2.67
4.51
5.73
6.48
7.0
7.55
8.31
9.35
10.62
12.0
13.36
14.57
15.54
16.22
16.63
16.79
16.73
16.47
16.02
15.36
14.48
13.38
12.07
10.61
9.1
7.7
6.5
5.5
4.59
3.53
2.13
0.38
-1.6
-3.59
-5.38
-6.92
-8.32
-9.76
-11.31
-12.93
-14.45
-15.7
-16.69
-17.63
-18.85
-20.71
-23.31
-26.49
-29.82
-32.72
-34.63
-35.1
-33.93
-31.18
-27.11
-22.09
-16.58
-11.07
-6.0
-1.66
1.82
4.58
6.9
9.11
11.45
13.92
16.33
18.41
19.89
20.67
20.83
20.58
20.16
19.8
19.66
19.8
20.18
20.67
21.09
21.27
21.11
20.65
20.04
19.4
18.85
18.39
17.95
17.42
16.76
15.93
14.94
13.85
12.65
11.37
9.99
8.49
6.85
5.03
3.0
0.74
-1.78
-4.58
-7.53
-10.48
-13.19
-15.54
-17.52
-19.29
-21.09
-23.14
-25.58
-28.4
-31.47
-34.57
-37.35
-39.42
-40.41
-40.05
-38.37
-35.68
-32.49
-29.37
-26.66
-24.41
-22.42
-20.41
-18.22
-15.92
-13.78
-12.07
-10.95
-10.37
-10.08
-9.79
-9.27
-8.48
-7.59
-6.9
-6.71
-7.19
-8.31
-9.85
-11.58
-13.39
-15.37
-17.87
-21.26
-25.77
-31.35
-37.69
-44.33
-50.91
-57.28
-63.53
-69.85
-76.35
-83.02
-89.82
-96.73
-103.8
-111.07
-118.39
-125.27
-131.03
-134.98
-136.83
-136.86
-135.88
-134.82
-134.42
-134.93
-136.22
-137.94
-139.76
-141.42
-142.6
-142.85
-141.65
-138.66
-133.89
-127.7
-120.56
-112.76
-104.22
-94.6
-83.63
-71.25
-57.51
-42.24
-24.86
-4.75
18.2
42.94
67.38
89.26
107.37
122.3
136.02
150.46
166.09
181.3
193.33
199.88
200.57
197.07
192.0
187.32
183.29
178.71
172.12
162.98
152.15
141.36
132.16
125.01
119.24
113.55
106.89
98.91
89.96
80.76
71.88
63.45
55.22
46.74
37.68
27.95
17.69
7.13
-3.47
-13.8
-23.4
-31.65
-37.8
-41.22
-41.57
-38.98
-34.03
-27.59
-20.55
-13.65
-7.37
-1.89
2.83
6.98
10.88
14.8
18.89
23.11
27.23
30.98
34.18
36.74
38.72
40.21
41.27
41.92
42.13
41.88
41.05
39.54
37.21
34.07
30.38
26.64
23.37
20.97
19.46
18.51
17.68
16.59
15.15
13.49
11.82
10.27
8.9
7.66
6.46
5.25
3.93
2.48
0.92
-0.72
-2.41
-4.16
-6.06
-8.28
-10.95
-14.19
-18.02
-22.33
-26.9
-31.26
-34.73
-36.54
-36.02
-32.91
-27.49
-20.55
-13.1
-6.06
-0.0
4.91
8.81
12.04
14.93
17.82
20.89
24.2
27.6
30.89
33.78
36.11
37.84
38.99
39.61
39.8
39.71
39.68
40.04
41.0
42.5
44.16
45.38
45.66
44.76
42.84
40.26
37.4
34.57
31.97
29.78
28.17
27.21
26.7
26.15
24.88
22.37
18.59
14.05
9.59
5.98
3.51
1.87
0.36
-1.73
-4.77
-8.74
-13.29
-17.93
-22.18
-25.45
-27.12
-26.59
-23.53
-18.15
-11.22
-3.87
2.8
8.16
12.19
15.3
17.99
20.54
22.89
24.76
25.89
26.29
26.21
26.01
26.01
26.3
26.83
27.47
28.15
28.86
29.62
30.38
31.04
31.44
31.48
31.05
30.05
28.41
26.04
23.0
19.56
16.15
13.2
10.99
9.46
8.23
6.77
4.59
1.46
-2.57
-7.15
-11.74
-15.8
-18.85
-20.62
-21.07
-20.35
-18.63
-16.03
-12.6
-8.43
-3.76
1.01
5.33
8.74
11.03
12.32
12.9
13.15
13.34
13.54
13.76
13.99
14.26
14.59
14.97
15.33
15.58
15.77
16.01
16.41
16.88
17.12
16.75
15.52
13.45
10.88
8.3
6.03
4.09
2.27
0.34
-1.72
-3.71
-5.38
-6.66
-7.77
-9.14
-11.21
-14.18
-17.84
-21.65
-24.88
-26.86
-27.14
-25.64
-22.65
-18.71
-14.41
-10.24
-6.4
-2.85
0.56
3.91
7.07
9.82
11.96
13.53
14.72
15.88
17.21
18.64
19.87
20.5
20.31
19.46
18.39
17.62
17.48
17.93
18.55
18.8
18.28
16.92
15.03
13.02
11.26
9.91
8.84
7.78
6.51
4.94
3.14
1.29
-0.46
-2.03
-3.49
-4.96
-6.53
-8.23
-10.05
-11.93
-13.91
-16.12
-18.69
-21.61
-24.6
-27.08
-28.36
-27.92
-25.64
-21.96
-17.59
-13.28
-9.47
-6.24
-3.4
-0.75
1.77
4.09
6.1
7.79
9.28
10.71
12.14
13.46
14.49
15.05
15.09
14.74
14.2
13.68
13.31
13.07
12.9
12.62
12.1
11.21
9.95
8.46
6.95
5.6
4.5
3.53
2.44
0.99
-0.84
-2.83
-4.64
-5.93
-6.66
-7.07
-7.66
-8.92
-11.11
-14.13
-17.52
-20.67
-23.07
-24.6
-25.62
-26.9
-29.31
-33.4
-39.01
-45.2
-50.57
-53.78
-54.23
-52.25
-49.05
-46.1
-44.51
-44.61
-45.82
-46.84
-46.19
-42.46
-34.7
-22.67
-6.95
11.13
29.58
46.12
58.79
66.5
69.78
70.75
72.59
78.16
88.72
103.26
119.17
133.79
145.93
156.28
166.34
176.91
186.94
193.92
195.41
190.71
181.41
170.59
160.95
153.46
147.15
140.13
130.87
118.97
105.07
89.99
74.16
57.41
39.27
19.55
-1.44
-22.82
-43.31
-61.58
-76.7
-88.48
-97.62
-105.65
-114.48
-125.81
-140.45
-157.91
-176.37
-193.16
-205.53
-211.58
-210.77
-203.98
-193.05
-180.05
-166.61
-153.63
-141.42
-129.98
-119.33
-109.62
-101.01
-93.59
-87.14
-81.34
-75.87
-70.49
-65.22
-60.2
-55.65
-51.74
-48.49
-45.66
-42.86
-39.59
-35.46
-30.38
-24.54
-18.34
-12.18
-6.3
-0.75
4.51
9.45
14.01
18.02
21.39
24.18
26.45
28.21
29.36
29.7
29.13
27.75
25.85
23.79
21.81
19.96
18.14
16.26
14.39
12.79
11.76
11.5
12.03
13.15
14.55
15.94
17.06
17.82
18.19
18.27
18.15
17.88
17.44
16.74
15.73
14.47
13.17
12.09
11.47
11.39
11.73
12.26
12.75
13.06
13.23
13.32
13.39
13.42
13.28
12.84
12.05
10.97
9.8
8.78
8.07
7.7
7.52
7.4
7.21
6.98
6.75
6.56
6.33
5.92
5.23
4.3
3.26
2.36
1.77
1.48
1.32
0.96
0.1
-1.44
-3.57
-6.0
-8.25
-9.82
-10.35
-9.8
-8.36
-6.48
-4.59
-2.99
-1.78
-0.89
-0.22
0.32
0.72
1.0
1.18
1.38
1.71
2.22
2.82
3.35
3.66
3.71
3.61
3.55
3.65
3.91
4.2
4.33
4.18
3.75
3.16
2.54
1.93
1.32
0.69
0.03
-0.62
-1.2
-1.67
-2.05
-2.39
-2.77
-3.22
-3.79
-4.48
-5.23
-5.98
-6.64
-7.16
-7.56
-7.94
-8.37
-8.87
-9.37
-9.74
-9.93
-10.0
-10.16
-10.65
-11.63
-13.03
-14.54
-15.72
-16.15
-15.56
-13.95
-11.54
-8.69
-5.82
-3.28
-1.31
0.03
0.75
1.01
1.0
0.94
0.96
1.13
1.45
1.81
2.09
2.22
2.17
2.01
1.81
1.67
1.64
1.75
1.97
2.29
2.68
3.07
3.35
3.35
2.91
2.0
0.75
-0.5
-1.38
-1.66
-1.41
-0.89
-0.54
-0.6
-1.08
-1.72
-2.26
-2.59
-2.82
-3.18
-3.79
-4.56
-5.25
-5.67
-5.84
-6.0
-6.49
-7.52
-9.05
-10.73
-12.09
-12.68
-12.29
-10.95
-8.96
-6.71
-4.56
-2.8
-1.51
-0.6
0.08
0.75
1.47
2.25
2.97
3.5
3.72
3.6
3.22
2.72
2.3
2.13
2.29
2.72
3.28
3.77
4.03
3.95
3.51
2.72
1.7
0.56
-0.54
-1.49
-2.17
-2.6
-2.88
-3.18
-3.67
-4.47
-5.58
-6.85
-8.08
-9.04
-9.54
-9.55
-9.13
-8.52
-7.96
-7.67
-7.77
-8.28
-9.07
-9.92
-10.54
-10.69
-10.28
-9.47
-8.6
-8.09
-8.17
-8.73
-9.35
-9.42
-8.45
-6.36
-3.49
-0.47
2.04
3.61
4.22
4.19
4.02
4.25
5.18
6.77
8.55
9.76
9.51
7.05
2.22
-4.36
-11.26
-16.48
-18.04
-14.64
-6.12
6.37
20.8
34.89
46.85
55.83
61.92
65.73
67.95
68.97
68.89
67.76
65.86
63.83
62.45
62.38
63.9
66.76
70.41
74.2
77.64
80.44
82.46
83.59
83.68
82.59
80.24
76.75
72.45
67.68
62.7
57.64
52.51
47.34
42.3
37.64
33.65
30.45
27.88
25.29
21.47
14.74
3.32
-13.94
-36.9
-63.79
-91.42
-116.19
-135.21
-147.15
-152.5
-152.97
-150.61
-147.03
-143.15
-139.29
-135.52
-131.84
-128.17
-124.28
-119.73
-114.02
-106.85
-98.25
-88.69
-78.9
-69.63
-61.37
-54.21
-47.87
-41.92
-36.04
-30.17
-24.53
-19.42
-15.03
-11.28
-7.91
-4.64
-1.31
2.1
5.45
8.64
11.55
14.09
16.08
17.26
17.36
16.21
13.89
10.71
7.13
3.54
0.16
-3.02
-6.02
-8.82
-11.16
-12.64
-12.87
-11.82
-9.82
-7.5
-5.5
-4.15
-3.37
-2.79
-1.94
-0.6
1.11
2.92
4.46
5.58
6.31
6.75
7.0
7.11
7.09
7.04
7.12
7.44
8.03
8.75
9.37
9.64
9.48
8.97
8.28
7.63
7.12
6.73
6.34
5.82
5.04
3.93
2.41
0.52
-1.61
-3.79
-5.83
-7.65
-9.27
-10.79
-12.34
-13.93
-15.55
-17.06
-18.36
-19.4
-20.21
-20.94
-21.74
-22.73
-23.88
-24.98
-25.63
-25.38
-23.91
-21.13
-17.38
-13.18
-9.14
-5.64
-2.82
-0.54
1.41
3.14
4.67
5.9
6.78
7.36
7.77
8.15
8.58
9.01
9.4
9.69
9.92
10.15
10.46
10.82
11.11
11.23
11.14
10.91
10.66
10.45
10.25
9.92
9.33
8.42
7.27
5.97
4.65
3.38
2.13
0.83
-0.53
-1.99
-3.48
-4.98
-6.45
-7.83
-9.08
-10.1
-10.86
-11.43
-12.03
-12.99
-14.64
-17.14
-20.35
-23.76
-26.63
-28.22
-28.06
-26.07
-22.59
-18.19
-13.53
-9.08
-5.16
-1.85
0.88
3.05
4.73
5.93
6.67
7.01
7.08
7.07
7.25
7.8
8.74
10.0
11.28
12.34
13.04
13.41
13.64
13.93
14.44
15.13
15.83
16.26
16.21
15.61
14.54
13.23
11.92
10.77
9.81
8.99
8.19
7.34
6.39
5.25
3.81
1.99
-0.25
-2.78
-5.31
-7.53
-9.28
-10.6
-11.84
-13.46
-15.81
-18.93
-22.43
-25.56
-27.51
-27.64
-25.72
-22.02
-17.18
-11.97
-7.07
-2.88
0.47
3.02
4.92
6.35
7.49
8.54
9.69
11.04
12.56
14.08
15.41
16.39
17.0
17.32
17.47
17.58
17.68
17.78
17.91
18.12
18.45
18.89
19.29
19.45
19.14
18.25
16.84
15.11
13.31
11.6
10.07
8.7
7.45
6.27
5.13
3.97
2.7
1.26
-0.37
-2.1
-3.79
-5.28
-6.55
-7.71
-8.99
-10.62
-12.68
-15.07
-17.51
-19.62
-20.99
-21.25
-20.2
-17.8
-14.24
-9.95
-5.48
-1.35
2.07
4.71
6.68
8.26
9.65
10.93
12.03
12.87
13.42
13.76
14.0
14.27
14.62
14.99
15.36
15.64
15.82
15.92
15.99
16.09
16.24
16.41
16.54
16.49
16.11
15.3
14.05
12.52
10.91
9.43
8.2
7.19
6.31
5.43
4.51
3.56
2.6
1.68
0.77
-0.2
-1.31
-2.55
-3.89
-5.24
-6.56
-7.96
-9.61
-11.69
-14.19
-16.85
-19.09
-20.24
-19.78
-17.55
-13.83
-9.27
-4.65
-0.64
2.34
4.13
4.85
4.77
4.31
3.89
3.89
4.55
5.84
7.53
9.22
10.53
11.17
11.15
10.65
10.01
9.55
9.45
9.76
10.33
10.96
11.45
11.64
11.42
10.76
9.72
8.44
7.13
5.99
5.08
4.32
3.49
2.35
0.78
-1.14
-3.13
-4.86
-6.08
-6.69
-6.86
-6.84
-6.97
-7.47
-8.43
-9.79
-11.4
-13.14
-14.9
-16.57
-17.98
-18.84
-18.86
-17.77
-15.58
-12.57
-9.22
-6.02
-3.34
-1.29
0.19
1.28
2.17
2.94
3.66
4.37
5.07
5.77
6.45
7.09
7.69
8.3
8.94
9.59
10.19
10.64
10.92
11.0
10.94
10.71
10.29
9.6
8.68
7.68
6.8
6.24
6.02
5.99
5.91
5.58
4.94
4.08
3.11
2.12
1.1
-0.02
-1.25
-2.57
-3.88
-5.1
-6.16
-7.05
-7.79
-8.49
-9.31
-10.4
-11.93
-13.89
-16.06
-18.04
-19.35
-19.61
-18.66
-16.6
-13.76
-10.56
-7.38
-4.45
-1.86
0.43
2.46
4.21
5.57
6.44
6.81
6.8
6.68
6.71
7.01
7.54
8.11
8.48
8.5
8.14
7.53
6.86
6.31
6.05
6.12
6.48
7.05
7.65
8.11
8.3
8.16
7.74
7.14
6.47
5.8
5.11
4.38
3.61
2.85
2.13
1.46
0.77
-0.05
-1.1
-2.38
-3.74
-4.93
-5.74
-6.15
-6.39
-6.84
-7.82
-9.43
-11.48
-13.67
-15.65
-17.22
-18.28
-18.74
-18.46
-17.26
-15.07
-12.05
-8.61
-5.28
-2.54
-0.53
0.88
1.97
3.02
4.09
5.1
5.83
6.07
5.78
5.07
4.22
3.47
3.0
2.84
2.93
3.15
3.49
3.97
4.64
5.47
6.32
7.02
7.38
7.3
6.82
6.08
5.29
4.61
4.09
3.65
3.16
2.49
1.61
0.61
-0.38
-1.24
-1.97
-2.64
-3.35
-4.13
-4.92
-5.62
-6.15
-6.55
-6.96
-7.55
-8.48
-9.84
-11.6
-13.61
-15.63
-17.31
-18.27
-18.19
-16.93
-14.57
-11.4
-7.86
-4.47
-1.62
0.43
1.72
2.47
3.08
3.85
4.88
6.03
6.96
7.34
7.05
6.3
5.5
5.09
5.29
6.01
6.94
7.71
8.17
8.35
8.43
8.56
8.74
8.79
8.5
7.79
6.81
5.88
5.28
5.1
5.14
5.05
4.52
3.44
1.98
0.49
-0.71
-1.45
-1.73
-1.74
-1.69
-1.8
-2.26
-3.19
-4.63
-6.51
-8.6
-10.6
-12.23
-13.35
-14.06
-14.58
-15.19
-16.06
-17.16
-18.21
-18.81
-18.59
-17.3
-14.98
-11.91
-8.58
-5.48
-2.96
-1.15
0.07
0.93
1.69
2.51
3.4
4.33
5.18
5.86
6.28
6.42
6.3
6.06
5.89
6.03
6.59
7.55
8.73
9.92
10.91
11.61
12.02
12.15
11.96
11.45
10.63
9.61
8.56
7.64
6.87
6.13
5.24
4.09
2.73
1.35
0.22
-0.52
-0.9
-1.16
-1.59
-2.44
-3.77
-5.42
-7.16
-8.74
-10.02
-10.96
-11.63
-12.2
-12.89
-13.93
-15.54
-17.76
-20.33
-22.67
-24.07
-23.91
-21.94
-18.41
-13.97
-9.36
-5.22
-1.9
0.53
2.18
3.2
3.79
4.16
4.5
5.0
5.71
6.55
7.34
7.86
7.98
7.73
7.27
6.9
6.83
7.16
7.78
8.46
9.0
9.33
9.52
9.73
10.02
10.3
10.32
9.82
8.76
7.31
5.82
4.57
3.66
2.95
2.17
1.17
-0.04
-1.3
-2.43
-3.37
-4.18
-5.07
-6.18
-7.6
-9.4
-11.61
-14.31
-17.45
-20.75
-23.6
-25.26
-25.1
-22.93
-19.11
-14.45
-9.86
-6.0
-3.11
-1.04
0.54
1.9
3.18
4.39
5.48
6.42
7.16
7.7
8.07
8.31
8.58
9.05
9.84
10.96
12.19
13.23
13.81
13.81
13.31
12.57
11.84
11.27
10.79
10.26
9.57
8.77
8.02
7.54
7.39
7.34
7.07
6.24
4.75
2.77
0.62
-1.42
-3.26
-4.96
-6.63
-8.29
-9.84
-11.13
-12.14
-13.05
-14.2
-15.93
-18.39
-21.46
-24.77
-27.76
-29.86
-30.59
-29.71
-27.21
-23.39
-18.67
-13.62
-8.76
-4.55
-1.32
0.84
2.05
2.66
3.1
3.79
4.94
6.55
8.44
10.33
12.04
13.49
14.71
15.75
16.62
17.35
17.94
18.43
18.88
19.28
19.59
19.7
19.54
19.1
18.45
17.69
16.91
16.12
15.31
14.37
13.21
11.83
10.26
8.6
7.01
5.57
4.29
3.07
1.73
0.1
-1.88
-4.15
-6.44
-8.51
-10.19
-11.51
-12.71
-14.14
-16.15
-18.91
-22.24
-25.56
-28.08
-29.01
-27.86
-24.61
-19.76
-14.1
-8.52
-3.75
-0.17
2.19
3.6
4.46
5.25
6.34
7.91
9.87
11.93
13.73
15.02
15.82
16.36
16.94
17.72
18.66
19.58
20.3
20.75
20.94
20.96
20.8
20.34
19.42
17.94
15.98
13.73
11.47
9.46
7.82
6.54
5.46
4.34
2.92
1.02
-1.32
-3.9
-6.36
-8.35
-9.73
-10.57
-11.14
-11.8
-12.84
-14.44
-16.62
-19.26
-22.11
-24.73
-26.56
-27.01
-25.7
-22.55
-17.93
-12.55
-7.22
-2.57
1.06
3.73
5.67
7.17
8.44
9.56
10.51
11.22
11.68
11.93
12.1
12.33
12.75
13.4
14.22
15.05
15.73
16.14
16.27
16.18
15.91
15.48
14.88
14.07
13.12
12.12
11.2
10.4
9.65
8.83
7.81
6.6
5.34
4.21
3.38
2.82
2.35
1.7
0.63
-0.91
-2.77
-4.7
-6.47
-8.03
-9.5
-11.14
-13.21
-15.79
-18.78
-21.88
-24.65
-26.61
-27.29
-26.36
-23.67
-19.41
-14.04
-8.28
-2.9
1.5
4.63
6.54
7.59
8.25
8.96
9.99
11.35
12.9
14.4
15.66
16.64
17.38
17.94
18.37
18.63
18.68
18.55
18.38
18.32
18.46
18.71
18.85
18.63
17.94
16.88
15.67
14.54
13.56
12.62
11.56
10.27
8.81
7.36
6.1
5.09
4.28
3.52
2.68
1.68
0.49
-0.86
-2.38
-4.06
-5.83
-7.63
-9.36
-11.02
-12.66
-14.44
-16.4
-18.41
-20.03
-20.68
-19.75
-16.96
-12.46
-6.86
-0.97
4.42
8.77
11.9
13.95
15.23
16.08
16.8
17.57
18.47
19.5
20.57
21.53
22.19
22.37
21.94
20.91
19.41
17.74
16.24
15.14
14.47
13.98
13.3
12.09
10.25
7.94
5.54
3.44
1.87
0.85
0.18
-0.41
-1.17
-2.2
-3.51
-5.03
-6.71
-8.58
-10.7
-13.15
-15.95
-18.92
-21.75
-24.03
-25.4
-25.77
-25.33
-24.54
-23.99
-24.12
-25.07
-26.55
-27.9
-28.34
-27.21
-24.29
-19.86
-14.6
-9.32
-4.64
-0.86
2.05
4.28
5.95
7.07
7.58
7.54
7.17
6.87
7.04
7.89
9.33
10.98
12.39
13.22
13.45
13.24
12.87
12.56
12.4
12.36
12.37
12.33
12.1
11.54
10.52
9.0
7.1
5.04
3.06
1.32
-0.13
-1.38
-2.5
-3.54
-4.44
-5.18
-5.76
-6.25
-6.74
-7.27
-7.88
-8.54
-9.26
-10.09
-11.05
-12.19
-13.49
-14.98
-16.71
-18.67
-20.81
-22.88
-24.45
-25.0
-24.11
-21.62
-17.81
-13.29
-8.86
-5.13
-2.36
-0.37
1.24
2.82
4.5
6.1
7.37
8.13
8.39
8.36
8.32
8.45
8.74
9.15
9.6
10.07
10.64
11.39
12.29
13.17
13.8
13.91
13.39
12.29
10.88
9.45
8.21
7.24
6.42
5.62
4.75
3.77
2.74
1.69
0.59
-0.62
-1.96
-3.39
-4.81
-6.14
-7.44
-8.84
-10.47
-12.34
-14.32
-16.17
-17.72
-19.01
-20.27
-21.83
-23.9
-26.42
-28.94
-30.83
-31.43
-30.37
-27.63
-23.58
-18.79
-13.86
-9.31
-5.46
-2.5
-0.43
0.92
1.83
2.65
