7.43
-3.07
-14.56
-26.56
-38.56
-50.07
-60.85
-70.98
-81.06
-92.08
-105.11
-120.71
-138.06
-154.54
-165.91
-167.43
-155.44
-128.91
-90.06
-43.89
3.33
45.9
80.02
104.25
119.08
126.01
126.66
122.4
114.26
103.19
90.18
76.38
62.93
50.84
40.8
33.2
28.04
25.1
24.03
24.39
25.82
27.95
30.36
32.51
33.71
33.19
30.26
24.54
16.09
5.42
-6.65
-19.16
-31.34
-42.68
-52.94
-62.1
-70.33
-78.06
-85.91
-94.46
-103.73
-112.6
-118.6
-118.36
-108.75
-88.22
-57.7
-20.6
18.23
54.04
83.47
105.11
119.1
126.34
127.77
124.08
115.84
103.89
89.49
74.24
59.77
47.31
37.5
30.34
25.4
22.12
20.04
18.97
18.97
20.08
22.12
24.42
25.9
25.31
21.62
14.44
4.17
-8.11
-21.02
-33.39
-44.57
-54.57
-63.98
-73.71
-84.82
-98.22
-114.34
-132.66
-151.27
-166.79
-174.87
-171.4
-153.91
-122.75
-81.19
-34.69
10.79
50.39
81.36
103.09
116.44
122.82
123.51
119.44
111.42
100.42
87.65
74.48
62.12
51.37
42.58
35.74
30.72
27.45
25.9
26.06
27.75
30.53
33.67
36.21
37.08
35.35
30.43
22.26
11.41
-1.06
-13.91
-26.09
-37.03
-46.82
-56.0
-65.51
-76.37
-89.48
-105.28
-123.23
-141.4
-156.34
-163.73
-159.53
-141.54
-110.35
-69.51
-24.44
19.06
56.43
85.19
104.86
116.32
120.88
119.81
114.17
104.93
93.23
80.35
67.62
56.14
46.64
39.38
34.24
30.94
29.24
29.02
30.25
32.82
36.36
40.1
42.93
43.66
41.37
35.7
27.0
16.19
4.45
-7.21
-18.23
-28.63
-38.79
-49.33
-60.87
-74.03
-89.3
-106.75
-125.57
-143.57
-157.17
-162.06
-154.61
-133.29
-99.58
-57.72
-13.48
27.6
61.67
87.12
104.17
113.9
117.49
115.71
109.17
98.61
85.28
70.76
56.76
44.63
35.06
28.08
23.3
20.17
18.34
17.73
18.38
20.26
22.98
25.78
27.61
27.43
24.46
18.44
9.67
-1.0
-12.38
-23.22
-32.58
-40.15
-46.43
-52.68
-60.59
-71.75
-86.89
-105.38
-124.92
-141.74
-151.39
-149.99
-135.42
-108.19
-71.41
-29.95
10.92
46.88
75.39
95.65
108.09
113.61
113.15
107.56
97.86
85.33
71.55
58.12
46.28
36.63
29.1
23.17
18.28
14.15
10.97
9.27
9.52
11.7
15.07
18.23
19.5
17.55
11.83
2.79
-8.37
-20.08
-31.02
-40.4
-48.18
-54.95
-61.77
-69.93
-80.62
-94.44
-110.84
-127.67
-141.29
-147.25
-141.69
-122.73
-91.39
-51.41
-8.19
32.81
67.53
93.91
111.69
121.66
124.92
122.5
115.37
104.64
91.71
78.06
65.01
53.35
43.24
34.36
26.29
18.89
12.5
7.81
5.54
5.94
8.44
11.7
13.93
13.56
9.74
2.67
-6.56
-16.45
-25.7
-33.59
-40.21
-46.28
-52.81
-60.86
-71.19
-83.96
-98.36
-112.42
-123.11
-126.9
-120.89
-103.81
-76.73
-42.85
-6.58
27.73
56.91
79.31
94.63
103.31
105.99
103.41
96.44
86.24
74.29
62.06
50.74
41.03
33.13
27.06
22.83
20.66
20.78
23.17
27.27
31.85
35.26
35.82
32.38
24.72
13.61
0.49
-13.04
-25.81
-37.44
-48.41
-59.85
-73.11
-89.19
-108.24
-128.94
-148.37
-162.35
-166.45
-157.44
-134.54
-99.98
-58.45
-15.64
23.37
55.33
79.05
94.92
104.03
107.54
106.39
101.41
93.46
83.48
72.33
60.72
49.16
38.1
28.1
19.84
14.0
11.01
10.78
12.53
14.91
16.36
15.54
11.76
5.14
-3.5
-13.1
-22.8
-32.31
-42.03
-52.89
-66.0
-81.98
-100.41
-119.33
-135.28
-143.94
-141.42
-125.55
-96.92
-58.89
-16.64
24.37
59.8
87.27
106.28
117.57
122.42
122.01
117.45
109.74
99.86
88.74
77.1
65.46
54.23
43.88
35.07
28.52
24.74
23.69
24.7
26.52
27.75
27.26
24.51
19.59
13.02
5.48
-2.59
-11.14
-20.59
-31.77
-45.6
-62.6
-82.26
-102.5
-119.75
-129.59
-128.09
-113.22
-85.82
-49.51
-9.67
28.18
59.85
83.27
98.32
106.16
108.25
105.86
99.8
90.69
79.17
66.03
52.16
38.44
25.71
14.65
5.78
-0.62
-4.55
-6.4
-6.91
-6.94
-7.28
-8.5
-10.83
-14.29
-18.84
-24.52
-31.54
-40.31
-51.4
-65.36
-82.17
-100.8
-118.68
-131.95
-136.35
-128.61
-107.79
-75.89
-37.31
2.39
38.24
66.95
87.36
99.93
105.97
106.85
103.59
96.91
87.39
75.69
62.67
49.3
36.64
25.56
16.67
10.19
5.91
3.28
1.61
0.15
-1.67
-4.25
-7.8
-12.45
-18.28
-25.38
-33.87
-43.97
-56.07
-70.58
-87.6
-106.36
-124.66
-138.93
-144.97
-139.25
-120.33
-89.61
-51.11
-10.22
27.89
59.58
83.24
98.97
107.86
111.22
110.19
105.68
98.44
89.19
78.6
67.33
56.03
45.37
36.06
28.74
23.78
21.12
20.16
19.88
19.19
17.15
13.33
7.71
0.69
-7.26
-15.71
-24.6
-34.27
-45.45
-59.04
-75.56
-94.45
-113.55
-129.15
-136.83
-132.87
-115.65
-86.43
-49.06
-8.7
29.6
62.21
87.28
104.48
114.32
117.66
115.47
108.92
99.38
88.33
77.02
66.18
56.02
46.43
37.38
29.2
22.63
18.46
17.13
18.3
20.77
22.83
22.78
19.54
12.95
3.72
-6.9
-17.67
-27.78
-37.12
-46.23
-56.21
-68.31
-83.47
-101.68
-121.42
-139.54
-151.65
-153.38
-141.84
-116.85
-81.25
-40.06
1.05
37.36
66.11
86.53
99.23
105.36
106.0
102.09
94.57
84.57
73.32
61.92
51.15
41.37
32.75
25.46
19.9
16.57
15.83
17.5
20.73
24.06
25.83
24.75
20.2
12.49
2.55
-8.44
-19.44
-29.93
-39.98
-50.26
-61.83
-75.69
-92.18
-110.27
-127.3
-139.28
-142.0
-132.47
-110.19
-77.58
-39.22
-0.46
34.16
61.95
82.11
95.2
102.3
104.45
102.45
97.09
89.28
80.15
70.86
62.41
55.37
49.85
45.58
42.15
39.25
36.85
35.15
34.42
34.67
35.46
35.88
34.79
31.23
24.8
15.83
5.28
-5.66
-15.96
-25.09
-33.14
-40.76
-48.91
-58.69
-71.02
-86.15
-103.28
-120.2
-133.47
-139.16
-134.05
-116.83
-88.75
-53.35
-15.42
20.44
50.88
74.29
90.52
100.24
104.35
103.7
99.05
91.3
81.5
70.84
60.48
51.3
43.83
38.16
34.06
31.24
29.5
28.82
29.33
31.01
33.48
35.85
36.89
35.38
30.56
22.46
11.99
0.56
-10.37
-19.84
-27.69
-34.6
-41.75
-50.44
-61.68
-75.8
-92.13
-108.85
-123.06
-131.26
-130.21
-118.03
-95.04
-63.88
-28.84
5.45
35.26
58.58
75.06
85.37
90.45
91.03
87.64
80.86
71.69
61.41
51.43
42.76
35.85
30.53
26.35
22.92
20.17
18.37
17.86
18.8
20.82
23.05
24.25
23.27
19.38
12.55
3.51
-6.58
-16.52
-25.49
-33.35
-40.61
-48.23
-57.28
-68.54
-82.09
-97.05
-111.42
-122.29
-126.43
-121.23
-105.67
-80.82
-49.76
-16.62
14.49
40.68
60.55
74.09
81.95
84.92
83.62
78.65
70.82
61.23
51.21
41.96
34.2
28.1
23.44
19.84
17.11
15.31
14.72
15.54
17.67
20.53
23.13
24.26
22.92
18.57
11.38
2.13
-7.98
-17.74
-26.34
-33.55
-39.84
-46.12
-53.55
-63.02
-74.82
-88.22
-101.36
-111.43
-115.3
-110.51
-96.04
-72.89
-43.82
-12.55
17.26
42.85
62.75
76.58
84.69
87.7
86.35
81.47
74.04
65.11
55.68
46.47
37.87
29.99
22.88
16.73
11.92
8.93
8.13
9.45
12.27
15.43
17.49
17.14
13.55
6.65
-2.84
-13.72
-24.69
-34.76
-43.62
-51.66
-59.76
-68.97
-79.98
-92.62
-105.58
-116.44
-122.19
-120.05
-108.47
-87.72
-60.02
-28.92
1.67
28.49
49.56
64.21
72.74
75.89
74.52
69.46
61.57
51.85
41.33
30.94
21.24
12.42
4.4
-2.95
-9.51
-14.85
-18.41
-19.84
-19.24
-17.27
-14.98
-13.43
-13.33
-14.9
-17.88
-21.82
-26.33
-31.27
-36.87
-43.65
-52.27
-63.26
-76.63
-91.47
-105.78
-116.68
-121.04
-116.48
-102.18
-79.25
-50.47
-19.47
10.25
36.0
56.27
70.51
78.9
82.03
80.78
76.22
69.53
61.83
53.98
46.42
39.27
32.5
26.21
20.87
17.19
15.92
17.4
21.35
26.74
32.15
36.18
37.96
37.36
34.9
31.44
27.78
24.33
21.01
17.23
12.07
4.49
-6.27
-20.2
-36.06
-51.29
-62.42
-66.03
-59.89
-43.9
-20.24
7.32
34.58
58.06
75.73
87.02
92.35
92.56
88.51
81.01
70.93
59.22
46.83
34.56
22.82
11.75
1.36
-8.22
-16.6
-23.22
-27.64
-29.93
-30.76
-31.36
-33.08
-36.99
-43.46
-52.14
-62.04
-71.93
-80.71
-87.76
-93.14
-97.58
-102.3
-108.59
-117.14
-127.53
-137.83
-145.01
-145.59
-136.86
-117.83
-89.66
-55.32
-18.75
16.15
46.41
70.3
87.23
97.45
101.65
100.79
95.9
88.07
78.3
67.47
56.19
44.99
34.33
24.82
17.14
11.96
9.66
10.05
12.34
15.23
17.3
17.39
14.94
10.06
3.36
-4.37
-12.42
-20.46
-28.62
-37.47
-47.88
-60.59
-75.7
-92.16
-107.57
-118.55
-121.61
-114.3
-96.12
-68.84
-35.98
-1.75
30.01
56.69
77.0
90.77
98.41
100.64
98.34
92.54
84.39
75.07
65.51
56.28
47.56
39.39
31.87
25.35
20.39
17.49
16.77
17.78
19.51
20.68
20.11
17.12
11.68
4.36
-3.91
-12.25
-20.15
-27.7
-35.58
-44.85
-56.51
-70.91
-87.26
-103.41
-116.13
-121.92
-118.02
-103.39
-79.17
-48.3
-14.75
17.6
45.78
68.13
84.09
93.91
98.23
97.87
93.78
87.01
78.64
69.57
60.45
51.63
43.31
35.7
29.15
24.2
21.37
20.92
22.62
25.7
28.92
30.92
30.56
27.25
21.11
12.85
3.54
-5.78
-14.5
-22.64
-30.84
-40.2
-51.81
-66.22
-82.92
-99.99
-114.31
-122.21
-120.61
-108.0
-85.16
-54.93
-21.42
11.19
39.63
62.03
77.86
87.44
91.53
91.0
86.78
79.86
71.19
61.66
51.92
42.35
33.23
24.79
17.42
11.7
8.21
7.38
9.19
13.06
17.84
22.05
24.23
23.38
19.22
12.26
3.55
-5.72
-14.73
-23.24
-31.68
-40.96
-52.06
-65.52
-81.01
-96.97
-110.7
-118.84
-118.3
-107.28
-86.05
-56.92
-23.66
9.66
39.68
64.34
82.83
95.18
101.72
102.89
99.3
91.91
82.02
71.11
60.46
50.85
42.53
35.34
29.11
23.88
20.05
18.06
18.09
19.73
21.9
23.14
22.09
17.95
10.8
1.51
-8.64
-18.4
-27.03
-34.48
-41.4
-48.88
-58.09
-69.72
-83.55
-98.03
-110.39
-117.19
-115.29
-102.89
-80.14
-49.02
-12.65
25.83
64.01
100.48
134.5
165.47
192.59
214.77
231.0
240.59
243.48
240.17
231.59
218.63
201.72
180.46
153.36
118.17
72.57
15.39
-52.01
-125.04
-196.09
-256.22
-297.57
-315.85
-311.62
-289.88
-258.06
-223.37
-190.76
-162.34
-138.15
-117.75
-101.53
-90.89
-87.46
-91.94
-103.2
-118.21
-132.68
-142.12
-142.8
-132.39
-110.11
-76.71
-34.39
13.57
63.2
110.47
151.87
184.87
208.16
221.55
225.86
222.64
214.05
202.6
190.82
180.65
173.05
167.84
164.11
160.78
157.32
153.96
151.37
150.14
150.24
150.95
150.97
148.97
144.05
135.96
125.29
113.3
101.64
91.94
85.27
81.71
80.15
78.47
74.09
64.72
49.18
27.88
2.81
-22.92
-46.01
-63.82
-74.97
-79.43
-78.14
-72.42
-63.5
-52.31
-39.67
-26.52
-14.02
-3.4
4.41
9.09
11.1
11.42
11.32
11.92
14.0
17.88
23.36
29.84
36.4
42.04
45.9
47.41
46.4
43.03
37.67
30.74
22.63
13.64
3.98
-6.22
-16.97
-28.34
-40.37
-52.91
-65.5
-77.32
-87.32
-94.58
-98.55
-99.31
-97.46
-93.89
-89.43
-84.68
-79.95
-75.41
-71.22
-67.62
-64.78
-62.69
-61.0
-59.19
-56.83
-53.79
-50.31
-46.78
-43.42
-40.16
-36.63
-32.63
-28.35
-24.55
-22.25
-22.3
-24.9
-29.46
-34.85
-39.79
-43.18
-44.29
-42.78
-38.65
-32.21
-24.17
-15.54
-7.57
-1.38
2.2
2.8
0.47
-4.45
-11.4
-19.79
-29.09
-38.95
-49.36
-60.6
-73.07
-86.91
-101.81
-116.95
-131.23
-143.65
-153.53
-160.41
-163.65
-162.16
-154.36
-138.69
-114.3
-81.75
-43.09
-1.56
39.05
74.99
102.87
119.79
123.74
114.05
92.09
61.56
28.07
-2.19
-24.19
-35.59
-37.37
-33.14
-27.56
-24.58
-26.1
-31.81
-39.78
-47.69
-53.76
-57.15
-57.8
-55.87
-51.36
-44.12
-34.15
-21.88
-8.12
6.11
19.95
32.75
43.93
52.84
58.71
60.89
59.19
54.13
46.97
39.46
33.4
30.19
30.44
33.77
38.72
43.03
44.29
40.74
31.99
19.25
4.81
-8.86
-19.99
-27.93
-33.05
-36.24
-38.28
-39.54
-39.99
-39.43
-37.53
-33.9
-27.96
-19.07
-6.88
8.29
25.06
41.2
54.25
62.33
64.78
62.22
56.17
48.22
39.5
30.43
21.03
11.29
1.51
-7.67
-15.59
-21.74
-26.05
-28.81
-30.45
-31.37
-31.73
-31.51
-30.55
-28.77
-26.22
-23.12
-19.8
-16.5
-13.28
-10.02
-6.49
-2.56
1.71
6.03
10.0
13.27
15.74
17.54
18.99
20.4
21.9
23.35
24.48
24.92
24.43
22.95
20.54
17.34
13.5
9.12
4.33
-0.69
-5.77
-10.74
-15.48
-19.99
-24.27
-28.37
-32.25
-35.78
-38.73
-40.9
-42.14
-42.46
-42.0
-40.98
-39.66
-38.18
-36.6
-34.87
-32.92
-30.75
-28.39
-25.9
-23.36
-20.79
-18.24
-15.78
-13.55
-11.67
-10.17
-8.97
-7.91
-6.75
-5.33
-3.59
-1.58
0.53
2.54
4.26
5.61
6.59
7.29
7.78
8.13
8.31
8.27
7.95
7.36
6.59
5.71
4.8
3.89
3.0
2.16
1.41
0.78
0.27
-0.16
-0.55
-0.9
-1.19
-1.32
-1.25
-0.94
-0.47
0.09
0.65
1.16
1.63
2.08
2.52
2.91
3.22
3.35
3.28
3.03
2.66
2.3
2.02
1.88
1.86
1.86
1.8
1.61
1.33
1.05
0.87
0.83
0.91
0.98
0.92
0.66
0.24
-0.29
-0.88
-1.52
-2.29
-3.26
-4.43
-5.7
-6.84
-7.66
-8.01
-7.9
-7.39
-6.58
-5.49
-4.14
-2.58
-0.93
0.61
1.83
2.63
3.05
3.19
3.22
3.21
3.17
3.09
2.99
2.91
2.96
3.18
3.57
4.04
4.55
5.01
5.41
5.7
5.84
5.76
5.4
4.78
3.96
3.04
2.11
1.23
0.4
-0.41
-1.22
-2.06
-2.95
-3.92
-4.96
-6.04
-6.99
-7.63
-7.73
-7.2
-6.13
-4.75
-3.36
-2.17
-1.23
-0.45
0.32
1.21
2.25
3.36
4.41
5.24
5.75
5.86
5.55
4.91
4.06
3.21
2.53
2.12
1.97
1.98
2.02
2.02
1.98
1.99
2.12
2.38
2.72
3.01
3.14
3.07
2.78
2.3
1.67
0.87
-0.09
-1.21
-2.4
-3.56
-4.57
-5.31
-5.73
-5.78
-5.48
-4.86
-3.98
-2.9
-1.69
-0.42
0.89
2.2
3.47
4.61
5.5
6.06
6.25
6.14
5.82
5.38
4.89
4.37
3.85
3.38
3.06
2.98
3.16
3.5
3.88
4.12
4.15
3.97
3.67
3.32
3.01
2.73
2.44
2.1
1.63
1.0
0.19
-0.81
-2.02
-3.43
-5.06
-6.8
-8.47
-9.78
-10.47
-10.36
-9.46
-7.97
-6.19
-4.41
-2.82
-1.44
-0.24
0.82
1.73
2.41
2.78
2.79
2.49
2.01
1.48
1.03
0.75
0.66
0.73
0.93
1.25
1.74
2.42
3.35
4.5
5.79
7.06
8.12
8.79
9.02
8.81
8.27
7.5
6.57
5.49
4.29
2.96
1.59
0.25
-0.98
-2.11
-3.19
-4.26
-5.29
-6.17
-6.71
-6.75
-6.21
-5.15
-3.8
-2.37
-1.05
0.13
1.26
2.41
3.56
4.54
5.14
5.18
4.7
3.91
3.15
2.72
2.78
3.31
4.1
4.88
5.4
5.51
5.25
4.76
4.29
3.99
3.91
3.95
3.94
3.76
3.36
2.82
2.25
1.72
1.2
0.64
-0.02
-0.81
-1.65
-2.48
-3.25
-3.96
-4.61
-5.2
-5.69
-5.99
-5.96
-5.47
-4.46
-2.96
-1.1
0.9
2.81
4.41
5.6
6.34
6.71
6.81
6.73
6.58
6.46
6.49
6.74
7.21
7.81
8.33
8.55
8.31
7.61
6.6
5.53
4.69
4.28
4.39
4.96
5.78
6.58
7.08
7.08
6.54
5.57
4.39
3.2
2.19
1.39
0.75
0.16
-0.5
-1.34
-2.36
-3.52
-4.68
-5.65
-6.27
-6.42
-6.08
-5.32
-4.3
-3.13
-1.92
-0.75
0.35
1.31
2.06
2.56
2.82
2.92
2.95
2.96
2.94
2.8
2.52
2.1
1.59
1.06
0.57
0.11
-0.32
-0.69
-0.98
-1.14
-1.22
-1.3
-1.52
-1.96
-2.65
-3.53
-4.53
-5.64
-6.87
-8.28
-9.9
-11.73
-13.74
-15.9
-18.2
-20.66
-23.3
-26.07
-28.76
-31.04
-32.55
-33.05
-32.58
-31.45
-30.21
-29.42
-29.47
-30.45
-32.19
-34.31
-36.38
-38.09
-39.29
-40.01
-40.4
-40.59
-40.68
-40.6
-40.13
-39.0
-36.95
-33.86
-29.78
-24.95
-19.69
-14.35
-9.32
-4.85
-1.16
1.63
3.31
3.67
2.39
-0.86
-6.38
-14.41
-25.01
-38.11
-53.47
-70.67
-89.26
-108.82
-129.1
-149.94
-171.1
-191.85
-210.48
-224.27
-229.81
-223.84
-204.07
-169.97
-123.04
-66.77
-6.04
53.6
106.94
149.96
180.47
198.26
204.93
203.4
197.35
190.69
187.11
189.4
198.81
214.36
232.69
248.88
258.02
257.13
246.25
228.27
207.43
187.4
169.77
153.74
136.95
116.92
92.36
63.68
32.55
1.02
-29.2
-56.93
-81.27
-101.33
-116.22
-125.5
-129.85
-131.34
-133.05
-137.92
-147.19
-159.15
-169.18
-171.16
-159.92
-133.58
-94.51
-48.64
-3.17
35.95
65.69
86.06
98.95
106.52
109.97
109.49
104.94
96.63
85.67
73.71
62.3
52.28
43.74
36.22
29.27
22.76
17.06
12.78
10.41
9.94
10.72
11.54
10.96
7.84
1.67
-7.18
-17.63
-28.3
-37.99
-46.1
-52.75
-58.64
-64.73
-71.97
-81.2
-92.94
-107.13
-122.66
-137.04
-146.53
-147.08
-135.64
-111.56
-77.15
-37.0
3.47
39.78
69.44
92.0
108.29
119.38
125.94
128.19
126.32
120.9
112.96
103.82
94.73
86.61
79.91
74.74
71.02
68.6
67.32
66.99
67.51
68.66
70.19
71.6
72.21
71.2
67.78
61.47
52.3
40.79
27.86
14.44
1.3
-11.3
-23.51
-35.91
-49.33
-64.73
-82.87
-103.87
-126.61
-148.41
-165.26
-172.72
-167.38
-148.22
-117.23
-78.99
-39.19
-3.05
26.08
46.94
59.97
66.38
67.4
64.0
57.02
47.33
36.01
24.23
13.07
3.56
-3.57
-7.73
-8.68
-6.56
-1.91
4.35
11.26
17.98
23.94
28.72
31.97
33.21
31.94
27.88
21.22
12.76
3.69
-4.82
-12.01
-17.85
-22.92
-28.21
-34.78
-43.6
-55.42
-70.53
-88.28
-106.66
-122.09
-130.03
-126.29
-108.61
-77.8
-37.81
5.43
45.93
79.29
103.55
118.87
126.62
128.36
125.25
118.13
107.76
95.18
81.61
68.24
56.0
45.35
36.4
29.12
23.56
19.87
18.22
18.59
20.64
23.71
26.96
29.64
31.09
30.86
28.63
24.18
17.5
8.84
-1.24
-11.96
-22.61
-32.76
-42.49
-52.31
-63.01
-75.44
-90.25
-107.63
-126.82
-145.77
-161.13
-168.74
-164.89
-147.69
-117.96
-79.24
-36.73
4.29
39.89
68.08
88.59
102.08
109.4
111.27
108.24
101.07
90.8
78.79
66.46
55.03
45.24
37.37
31.28
26.8
23.89
22.73
23.57
26.38
30.6
35.08
38.33
38.94
35.97
29.28
19.41
7.36
-5.75
-18.99
-31.81
-44.06
-55.97
-68.03
-80.97
-95.55
-112.32
-131.16
-150.62
-167.69
-178.06
-177.25
-162.21
-132.77
-92.15
-46.12
-1.25
37.16
66.37
86.32
98.72
105.67
108.61
108.05
103.95
96.4
86.06
74.19
62.26
51.51
42.64
35.83
31.03
28.22
27.59
29.35
33.53
39.65
46.72
53.36
58.22
60.21
58.75
53.89
46.17
36.56
26.12
15.77
6.02
-3.08
-11.9
-20.97
-30.87
-42.1
-55.02
-69.59
-85.0
-99.25
-109.19
-111.18
-102.31
-81.72
-51.17
-14.78
22.35
55.69
82.43
101.81
114.51
121.7
124.36
122.92
117.54
108.44
96.21
81.74
66.18
50.57
35.83
22.7
11.74
3.41
-1.95
-4.23
-3.68
-0.9
3.15
7.36
10.63
12.07
11.05
7.23
0.63
-8.42
-19.27
-31.04
-42.83
-53.93
-64.04
-73.29
-82.26
-91.9
-103.32
-117.44
-134.44
-153.11
-170.45
-181.96
-182.74
-169.15
-140.36
-99.06
-50.72
-1.92
41.61
76.44
101.63
118.03
127.14
130.3
128.43
122.3
112.85
101.37
89.31
77.96
68.17
60.26
54.17
49.7
46.68
45.08
44.91
46.1
48.41
51.3
54.05
55.81
55.75
53.2
47.79
39.5
28.73
16.13
2.46
-11.69
-26.05
-40.71
-55.92
-72.11
-89.7
-109.14
-130.55
-153.3
-175.37
-193.18
-202.08
-197.74
-177.8
-143.16
-97.96
-48.47
-1.07
39.46
70.81
92.84
106.7
113.72
114.94
111.09
102.94
91.59
78.5
65.28
53.35
43.72
36.82
32.57
30.52
30.12
30.93
32.7
35.37
38.81
42.51
45.5
46.39
43.8
36.87
25.66
11.27
-4.62
-20.27
-34.54
-47.2
-58.81
-70.41
-83.11
-97.78
-114.84
-133.86
-153.14
-169.42
-178.16
-174.73
-156.01
-121.87
-75.74
-23.73
27.2
71.33
105.45
129.0
143.16
149.66
149.91
144.86
135.3
122.2
106.83
90.61
74.76
60.16
47.26
36.29
27.36
20.61
16.12
13.87
13.59
14.76
16.64
18.3
18.71
16.86
11.99
3.7
-7.8
-21.76
-37.0
-52.23
-66.48
-79.22
-90.56
-101.08
-111.76
-123.79
-138.15
-155.1
-173.5
-190.38
-201.21
-200.96
-185.81
-154.76
-110.36
-58.18
-5.16
42.47
80.63
107.85
124.69
132.73
133.62
128.78
119.39
106.66
91.99
76.75
62.24
49.39
38.78
30.67
25.12
22.05
21.28
22.5
25.27
28.99
32.92
36.23
38.08
37.81
34.97
29.52
21.76
12.3
1.87
-8.85
-19.39
-29.54
-39.38
-49.23
-59.59
-71.14
-84.71
-100.92
-119.66
-139.41
-156.91
-167.61
-166.89
-151.65
-121.73
-80.21
-32.55
15.06
57.44
91.48
116.22
132.14
140.36
142.02
138.15
129.81
118.21
104.68
90.53
76.85
64.45
53.86
45.46
39.44
35.86
34.53
35.04
36.78
39.06
41.2
42.61
42.75
41.13
37.29
30.93
22.01
10.83
-1.88
-15.21
-28.25
-40.39
-51.5
-61.95
-72.52
-84.23
-98.13
-114.84
-134.02
-153.87
-170.91
-180.56
-178.32
-161.38
-129.86
-87.06
-38.61
9.17
51.1
84.14
107.52
122.02
129.0
129.7
125.08
116.0
103.53
89.07
74.19
60.33
48.51
39.18
32.34
27.71
25.0
23.98
24.51
26.44
29.52
33.24
36.78
39.1
39.04
35.66
28.51
17.89
4.9
-8.89
-21.88
-32.95
-41.86
-49.27
-56.57
-65.52
-77.72
-94.04
-114.02
-135.31
-153.85
-164.57
-162.89
-146.28
-115.36
-73.84
-27.47
17.65
56.75
87.14
108.21
120.67
125.81
124.93
119.23
109.86
98.05
85.06
72.1
60.12
49.81
41.55
35.5
31.68
29.97
30.12
