29.39
32.27
37.46
44.31
51.63
58.0
62.21
63.71
62.66
59.76
55.76
51.09
45.74
39.38
31.68
22.55
12.28
1.41
-9.37
-19.49
-28.51
-36.34
-43.18
-49.62
-56.5
-64.61
-74.19
-84.42
-93.21
-97.63
-94.74
-82.77
-61.82
-34.03
-2.92
27.68
54.62
75.93
90.81
99.36
102.12
99.98
94.08
85.78
76.48
67.36
59.17
52.25
46.59
42.09
38.72
36.53
35.62
36.0
37.48
39.65
41.79
43.05
42.55
39.69
34.25
26.65
17.75
8.63
0.22
-7.1
-13.61
-20.0
-27.04
-35.11
-44.06
-53.25
-62.03
-70.08
-77.62
-85.45
-94.57
-105.76
-119.08
-133.49
-146.73
-155.69
-157.06
-148.38
-128.97
-100.33
-65.89
-30.01
3.15
30.64
51.08
64.44
71.53
73.49
71.48
66.57
59.73
51.77
43.36
35.06
27.39
20.91
16.18
13.69
13.62
15.82
19.83
24.98
30.53
35.69
39.58
41.34
40.43
36.8
31.06
24.32
17.75
12.04
7.11
2.2
-3.75
-11.55
-21.37
-32.63
-44.26
-55.21
-64.81
-73.04
-80.46
-88.06
-96.83
-107.37
-119.44
-131.63
-141.43
-145.64
-141.39
-127.05
-103.02
-71.74
-37.04
-3.04
26.96
51.01
68.53
79.83
85.66
86.82
84.19
78.72
71.46
63.46
55.54
48.24
41.84
36.55
32.61
30.35
30.1
31.99
35.78
40.79
45.99
50.23
52.54
52.37
49.7
45.01
39.05
32.52
25.81
18.95
11.59
3.33
-6.08
-16.5
-27.44
-38.22
-48.21
-57.07
-64.95
-72.43
-80.42
-89.81
-101.02
-113.59
-125.88
-135.21
-138.42
-132.85
-117.33
-92.69
-61.66
-28.03
4.47
33.02
56.1
73.34
85.05
91.73
93.96
92.4
87.86
81.3
73.69
65.79
58.18
51.22
45.26
40.73
38.1
37.72
39.63
43.4
48.16
52.76
56.09
57.39
56.39
53.34
48.83
43.47
37.64
31.38
24.42
16.44
7.31
-2.79
-13.42
-23.96
-33.91
-43.0
-51.38
-59.54
-68.27
-78.4
-90.36
-103.7
-116.76
-126.78
-130.55
-125.45
-110.44
-86.52
-56.6
-24.48
6.15
32.59
53.46
68.47
77.99
82.67
83.24
80.58
75.61
69.27
62.32
55.29
48.46
42.04
36.26
31.53
28.31
27.09
28.07
31.08
35.4
39.93
43.36
44.61
43.12
39.05
33.11
26.31
19.48
12.99
6.7
0.14
-7.14
-15.36
-24.34
-33.53
-42.28
-50.09
-56.79
-62.7
-68.53
-75.27
-83.8
-94.53
-106.92
-119.23
-128.64
-131.87
-126.18
-110.37
-85.32
-53.89
-20.09
12.08
39.65
61.08
76.16
85.43
89.65
89.55
85.83
79.32
71.01
61.94
52.98
44.73
37.43
31.22
26.25
22.87
21.53
22.51
25.74
30.64
36.17
41.05
44.18
44.9
43.13
39.36
34.41
29.06
23.73
18.35
12.44
5.4
-3.14
-13.05
-23.7
-34.24
-43.91
-52.38
-59.87
-67.08
-74.95
-84.29
-95.5
-108.14
-120.71
-130.69
-134.96
-130.69
-116.34
-92.41
-61.43
-27.31
5.82
34.71
57.59
74.11
84.8
90.55
92.15
90.25
85.46
78.42
69.89
60.58
51.22
42.48
35.01
29.43
26.22
25.53
27.14
30.35
34.23
37.79
40.23
41.09
40.26
37.83
33.97
28.83
22.45
14.89
6.25
-3.22
-13.17
-23.13
-32.7
-41.65
-50.0
-58.08
-66.45
-75.78
-86.61
-98.93
-111.8
-123.19
-130.27
-130.02
-120.31
-100.71
-72.85
-40.07
-6.39
24.5
50.13
69.44
82.54
90.12
93.04
92.11
88.11
81.85
74.15
65.79
57.3
49.06
41.38
34.69
29.63
26.9
26.99
29.84
34.76
40.44
45.4
48.44
48.92
46.93
43.06
38.09
32.6
26.75
20.36
13.06
4.6
-4.92
-15.08
-25.2
-34.7
-43.29
-51.05
-58.55
-66.59
-76.02
-87.39
-100.52
-114.23
-126.18
-133.36
-132.74
-122.37
-102.09
-73.78
-40.85
-7.28
23.44
48.96
68.29
81.42
88.92
91.56
90.16
85.63
78.86
70.8
62.25
53.82
45.91
38.82
32.88
28.55
26.29
26.43
28.95
33.32
38.52
43.26
46.34
46.99
45.04
40.94
35.49
29.45
23.27
16.91
10.04
2.24
-6.68
-16.57
-26.96
-37.19
-46.73
-55.3
-62.99
-70.26
-77.92
-86.85
-97.6
-109.95
-122.48
-132.56
-136.95
-132.74
-118.4
-94.5
-63.64
-29.72
3.23
32.03
54.9
71.4
81.91
87.19
88.07
85.32
79.8
72.37
63.85
54.94
46.16
37.95
30.78
25.24
21.95
21.37
23.53
27.92
33.51
39.04
43.26
45.32
44.85
42.0
37.19
30.95
23.64
15.47
6.5
-3.17
-13.34
-23.63
-33.61
-42.93
-51.44
-59.26
-66.81
-74.69
-83.54
-93.75
-105.0
-116.01
-124.4
-127.24
-121.89
-107.0
-83.15
-52.89
-19.99
11.7
39.13
60.66
75.94
85.45
89.99
90.37
87.36
81.73
74.34
66.08
57.73
49.88
42.94
37.23
33.1
30.91
30.93
33.2
37.32
42.43
47.43
51.18
52.77
51.81
48.43
43.15
36.65
29.43
21.74
13.46
4.31
-5.85
-16.91
-28.43
-39.77
-50.36
-59.91
-68.58
-76.96
-85.91
-96.27
-108.41
-121.8
-134.68
-144.3
-147.41
-141.36
-125.04
-99.43
-67.43
-33.03
-0.13
28.38
51.01
67.56
78.51
84.58
86.44
84.69
80.05
73.34
65.49
57.34
49.56
42.58
36.77
32.47
30.08
29.93
32.05
36.07
41.15
46.12
49.8
51.3
50.23
46.71
41.28
34.6
27.29
19.69
11.83
3.52
-5.45
-15.09
-25.14
-35.12
-44.46
-52.81
-60.11
-66.83
-73.79
-81.96
-91.99
-103.71
-115.74
-125.49
-129.76
-125.65
-111.73
-88.59
-58.92
-26.58
4.45
31.13
51.88
66.46
75.43
79.66
80.0
77.21
72.03
65.2
57.42
49.29
41.27
33.81
27.39
22.65
20.15
20.25
22.81
27.14
32.21
36.86
40.21
41.82
41.69
40.02
36.98
32.57
26.66
19.16
10.2
0.25
-10.07
-20.13
-29.56
-38.32
-46.67
-55.04
-63.9
-73.73
-84.75
-96.72
-108.59
-118.34
-123.3
-120.75
-108.96
-87.94
-59.72
-27.79
3.87
31.93
54.42
70.79
81.49
87.34
89.1
87.35
82.61
75.52
66.83
57.4
48.04
39.42
32.12
26.61
23.26
22.3
23.63
26.79
30.96
35.13
38.39
40.13
40.15
38.58
35.63
31.44
25.97
19.13
10.9
1.48
-8.63
-18.87
-28.72
-37.96
-46.63
-55.1
-63.88
-73.62
-84.79
-97.45
-110.81
-122.98
-131.18
-132.33
-124.13
-105.93
-79.23
-47.27
-14.14
16.45
41.95
61.29
74.57
82.54
86.1
86.07
83.18
78.13
71.58
64.16
56.41
48.84
41.9
36.11
31.98
29.93
30.09
32.23
35.72
39.58
42.82
44.59
44.45
42.38
38.63
33.54
27.35
20.1
11.76
2.36
-7.82
-18.27
-28.4
-37.72
-46.06
-53.64
-61.06
-69.17
-78.77
-90.28
-103.32
-116.39
-126.89
-131.61
-127.68
-113.61
-89.93
-59.23
-25.44
7.35
35.93
58.54
74.83
85.39
91.13
92.96
91.59
87.63
81.67
74.33
66.19
57.83
49.78
42.62
36.86
33.01
31.36
31.85
34.06
37.2
40.32
42.57
43.35
42.42
39.87
35.93
30.82
24.64
17.37
9.04
-0.22
-10.06
-19.97
-29.42
-38.1
-45.99
-53.46
-61.12
-69.69
-79.74
-91.37
-103.86
-115.46
-123.53
-125.16
-118.03
-101.37
-76.44
-46.25
-14.76
14.32
38.39
56.32
68.28
75.05
77.56
76.53
72.47
65.87
57.32
47.61
37.66
28.44
20.78
15.28
12.24
11.62
13.17
16.44
20.94
26.08
31.25
35.76
38.92
40.13
38.96
35.27
29.26
21.37
12.22
2.47
-7.34
-16.84
-25.97
-34.94
-44.17
-54.18
-65.47
-78.27
-92.23
-106.16
-117.92
-124.71
-123.74
-113.2
-93.03
-65.18
-33.18
-1.08
27.62
50.75
67.6
78.53
84.33
85.77
83.47
78.01
70.14
60.77
50.89
41.43
33.09
26.38
21.65
19.2
19.13
21.33
25.29
30.27
35.33
39.68
42.77
44.33
44.19
42.21
38.18
31.93
23.52
13.38
2.21
-9.14
-20.06
-30.28
-40.01
-49.78
-60.32
-72.29
-86.06
-101.45
-117.32
-131.51
-141.06
-142.94
-135.01
-116.91
-90.38
-58.82
-26.33
3.49
28.2
46.84
59.5
66.78
69.39
67.97
63.15
55.68
46.48
36.52
26.75
17.95
10.74
5.54
2.65
2.11
3.71
7.04
11.43
16.13
20.44
23.8
25.86
26.41
25.34
22.61
18.19
12.16
4.77
-3.53
-12.22
-20.75
-28.7
-35.96
-42.67
-49.33
-56.65
-65.45
-76.28
-88.96
-102.18
-113.45
-119.54
-117.43
-105.36
-83.62
-54.5
-21.61
11.16
40.63
64.85
83.07
95.37
102.25
104.43
102.71
97.98
91.14
83.03
74.3
65.53
57.2
49.89
44.16
40.5
39.12
39.87
42.21
45.3
48.18
50.06
50.36
48.93
45.88
41.48
35.94
29.37
21.8
13.32
4.16
-5.22
-14.33
-22.75
-30.3
-37.04
-43.35
-49.78
-57.06
-65.9
-76.59
-88.58
-100.16
-108.55
-110.59
-103.71
-86.98
-61.49
-30.15
3.25
35.1
62.8
85.0
101.39
112.23
118.06
119.42
117.0
111.59
104.15
95.64
86.96
78.79
71.62
65.75
61.31
58.29
56.5
55.55
54.96
54.21
52.84
50.49
46.89
41.77
34.86
25.99
15.23
3.0
-9.97
-22.79
-34.59
-44.69
-52.68
-58.49
-62.43
-65.29
-68.35
-73.17
-80.98
-91.96
-104.76
-116.38
-123.07
-121.44
-109.74
-88.46
-60.2
-28.75
2.08
29.32
51.26
67.3
77.53
82.34
82.28
78.04
70.5
60.69
49.74
38.75
28.8
20.91
16.01
14.71
17.04
22.32
29.15
35.75
40.51
42.42
41.33
37.77
32.54
26.28
19.27
11.48
2.92
-6.19
-15.4
-24.2
-32.33
-39.83
-47.07
-54.56
-62.79
-72.34
-83.79
-97.65
-113.89
-131.41
-147.72
-159.27
-162.41
-154.65
-135.69
-107.67
-74.55
-40.86
-10.44
14.33
32.67
44.98
52.19
55.31
55.14
52.32
47.43
41.08
33.94
26.71
20.1
14.73
11.16
9.84
10.93
14.28
19.35
25.23
30.87
35.32
37.91
38.36
36.7
33.12
27.83
21.03
12.91
3.81
-5.82
-15.41
-24.51
-32.82
-40.38
-47.5
-54.7
-62.64
-71.92
-82.92
-95.37
-108.02
-118.6
-124.1
-121.57
-109.17
-86.96
-57.13
-23.43
9.95
39.4
62.8
79.53
90.08
95.47
96.65
94.4
89.29
81.88
72.82
62.86
52.73
43.19
34.88
28.41
24.23
22.63
23.63
26.81
31.4
36.29
40.34
42.62
42.66
40.56
36.73
31.72
25.86
19.22
11.64
2.96
-6.72
-17.03
-27.35
-37.04
-45.73
-53.48
-60.82
-68.6
-77.77
-88.94
-101.91
-115.26
-126.36
-131.86
-128.68
-115.13
-91.68
-61.02
-27.26
5.31
33.38
55.27
70.75
80.48
85.33
85.97
82.91
76.71
68.14
58.21
47.95
38.23
29.66
22.62
17.37
14.16
13.03
13.81
15.95
18.65
21.05
22.47
22.61
21.4
18.91
15.16
10.09
3.7
-3.86
-12.19
-20.76
-29.03
-36.69
-43.68
-50.21
-56.73
-63.83
-72.17
-82.29
-94.28
-107.31
-119.46
-127.78
-129.03
-120.78
-102.31
-75.11
-42.48
-8.61
22.65
48.66
68.33
81.76
89.72
93.17
92.98
89.94
84.78
78.22
70.88
63.27
55.76
48.72
42.59
37.94
35.29
34.94
36.73
39.94
43.47
46.14
47.06
45.87
42.74
38.17
32.74
26.78
20.32
13.19
5.19
-3.7
-13.23
-22.95
-32.37
-41.15
-49.19
-56.8
-64.56
-73.27
-83.63
-95.81
-108.93
-120.9
-128.62
-128.74
-118.86
-98.41
-69.15
-34.7
0.5
32.41
58.37
77.35
89.68
96.43
98.77
97.69
93.92
88.09
80.8
72.7
64.41
56.39
48.96
42.44
37.13
33.48
31.88
32.49
34.99
38.53
41.94
44.06
44.1
41.95
38.0
32.93
27.35
21.53
15.44
8.77
1.27
-7.13
-16.22
-25.55
-34.66
-43.19
-51.07
-58.6
-66.42
-75.37
-86.19
-99.06
-113.06
-126.03
-134.78
-135.95
-127.11
-107.74
-79.58
-46.19
-11.84
19.63
45.71
65.37
78.77
86.69
89.99
89.49
85.98
80.23
73.02
65.06
56.86
48.82
41.26
34.56
29.22
25.7
24.3
24.92
27.03
29.74
32.08
33.3
33.06
31.38
28.52
24.76
20.13
14.49
7.64
-0.51
-9.75
-19.62
-29.55
-39.02
-47.79
-55.89
-63.68
-71.77
-80.87
-91.57
-103.86
-116.81
-128.28
-135.26
-134.6
-124.13
-103.55
-74.77
-41.35
-7.51
23.11
48.18
66.85
79.34
86.43
88.99
87.76
83.5
76.99
69.08
60.57
52.1
44.21
37.24
31.59
27.68
25.86
26.23
28.53
32.07
35.86
38.88
40.32
39.78
37.27
33.1
27.65
21.24
14.0
5.88
-3.23
-13.31
-24.13
-35.2
-45.88
-55.65
-64.27
-72.0
-79.57
-88.0
-98.19
-110.42
-123.87
-136.44
-145.01
-146.23
-137.58
-118.26
-89.73
-55.26
-19.06
14.82
43.49
65.5
80.75
89.95
94.14
94.37
91.58
86.57
80.08
72.79
65.24
57.91
51.19
45.43
41.01
38.33
37.72
39.31
42.88
47.7
52.73
56.8
59.0
58.97
56.96
53.63
49.71
45.59
41.18
36.07
29.8
22.21
13.59
4.58
-4.08
-11.86
-18.69
-24.95
-31.36
-38.86
-48.21
-59.69
-72.64
-85.35
-95.05
-98.6
-93.38
-78.34
-54.55
-25.03
6.04
34.62
57.81
74.32
84.32
88.73
88.65
84.97
78.34
69.39
58.79
47.26
35.39
23.61
12.22
1.63
-7.51
-14.3
-17.97
-18.21
-15.47
-10.93
-6.14
-2.56
-1.11
-1.97
-4.69
-8.52
-12.71
-16.81
-20.77
-24.9
-29.61
-35.25
-41.9
-49.29
-56.9
-64.01
-70.03
-74.61
-77.91
-80.62
-83.87
-88.72
-95.47
-103.09
-109.03
-109.83
-102.25
-84.58
-57.52
-24.11
11.22
43.99
70.85
90.16
101.78
106.61
105.91
101.0
93.03
82.91
71.36
58.84
45.66
32.2
19.03
7.03
-2.87
-9.93
-13.9
-15.16
-14.56
-13.06
-11.43
-10.01
-8.77
-7.43
-5.82
-4.08
-2.64
-2.12
-3.03
-5.58
-9.59
-14.62
-20.21
-26.07
-32.12
-38.5
-45.43
-53.26
-62.35
-72.93
-84.69
-96.26
-105.16
-108.1
-102.07
-85.54
-59.38
-26.76
7.74
39.63
65.65
84.42
96.05
101.53
102.01
98.44
91.62
82.29
71.25
59.32
47.26
35.7
25.21
16.35
9.62
5.43
3.89
4.71
7.23
10.53
13.64
15.8
16.54
15.76
13.57
10.09
5.39
-0.51
-7.58
-15.61
-24.19
-32.85
-41.23
-49.25
-57.21
-65.68
-75.3
-86.65
-100.0
-115.01
-130.49
-144.19
-152.98
-153.63
-143.75
-122.83
-92.59
-56.64
-19.44
15.01
43.96
66.3
82.09
92.1
97.2
98.14
95.58
90.24
82.92
74.51
65.91
57.96
51.39
46.74
44.35
44.21
46.0
49.14
52.82
56.28
58.89
60.29
60.31
58.91
56.04
51.59
45.45
37.61
28.3
18.06
7.55
-2.57
-11.96
-20.68
-29.19
-38.2
-48.48
-60.76
-75.5
-92.58
-110.89
-128.03
-140.51
-144.49
-137.07
-117.48
-87.63
-51.64
-14.59
19.01
46.3
66.35
79.63
87.25
90.3
89.64
85.99
80.07
72.63
64.42
56.04
47.96
40.55
34.21
29.4
26.53
25.79
27.02
29.66
32.95
36.08
38.47
39.71
39.6
37.91
34.39
28.81
21.09
11.56
0.85
-10.25
-21.06
-31.28
-41.03
-50.8
-61.18
-72.79
-86.06
-100.91
-116.42
-130.54
-140.2
-142.04
-133.45
-113.78
-84.79
-50.27
-14.89
17.2
43.36
62.74
75.75
83.35
86.43
85.6
81.28
73.99
64.47
53.76
43.02
33.31
25.45
19.94
16.88
16.15
17.38
20.11
23.77
27.76
31.44
34.19
35.47
34.91
32.32
27.72
21.29
13.33
4.17
-5.87
-16.41
-27.04
-37.43
-47.34
-56.82
-66.34
-76.72
-88.88
-103.18
-118.87
-133.75
-144.34
-146.89
-138.56
-118.63
-88.85
-53.03
-15.82
18.58
47.39
69.44
84.83
94.21
98.36
98.0
93.83
86.78
77.88
68.2
58.61
49.7
41.85
35.36
30.64
28.09
27.98
30.2
34.24
39.15
43.88
47.45
49.25
49.01
46.73
42.51
36.48
28.79
19.67
9.48
-1.27
-12.02
-22.33
-31.98
-41.03
-49.82
-58.93
-69.06
-80.91
-94.67
-109.71
-124.16
-134.99
-138.65
-132.2
-114.4
-86.39
-51.46
-14.12
21.2
51.28
74.54
90.83
100.85
105.58
106.01
102.98
97.38
90.04
81.74
73.07
64.45
56.2
48.68
42.43
38.01
35.82
35.9
37.75
40.43
42.88
44.2
43.91
41.95
38.52
33.82
27.92
20.75
12.2
2.38
-8.34
-19.4
-30.19
-40.27
-49.5
-58.14
-66.74
-76.08
-86.94
-99.79
-114.34
-129.13
-141.49
-147.91
-145.12
-131.17
-106.41
-73.49
-36.72
-0.68
30.99
56.26
74.71
86.89
93.65
95.7
93.55
87.74
79.0
68.35
56.94
45.9
36.17
28.39
22.93
19.93
19.24
20.52
23.25
26.82
30.57
33.85
36.04
36.65
35.28
31.74
26.1
18.67
9.99
0.64
-8.89
-18.29
-27.52
-36.72
-46.17
-56.22
-67.36
-80.02
-94.4
-109.95
-125.1
-137.17
-142.85
-139.21
-124.74
-100.08
-68.0
-32.56
2.05
32.58
57.19
75.4
87.58
94.48
96.85
95.41
90.96
84.33
76.35
67.77
59.2
51.12
44.0
38.35
34.61
33.1
33.77
36.18
39.58
43.0
45.56
46.64
45.94
43.41
39.17
33.34
26.02
17.29
7.39
-3.25
-14.1
-24.56
-34.25
-43.1
-51.4
-59.74
-68.88
-79.58
-92.28
-106.66
-121.36
-133.77
-140.47
-138.18
-124.87
-100.67
-68.03
-31.06
5.66
38.36
64.73
84.04
96.68
103.58
105.77
104.16
99.6
92.82
84.49
75.16
65.42
55.87
47.2
40.17
35.4
33.3
33.86
36.6
40.61
44.78
47.97
49.31
48.33
45.08
39.94
33.38
25.78
17.27
7.81
-2.61
-13.83
-25.43
-36.84
-47.56
-57.35
-66.35
-75.09
-84.4
-95.17
-107.92
-122.35
-136.95
-148.95
-154.85
-151.44
-136.96
-111.89
-78.94
-42.29
-6.36
25.33
50.73
69.23
81.21
87.51
89.02
86.62
81.24
73.9
65.68
57.68
50.81
45.69
42.61
41.6
42.47
44.99
48.91
54.0
59.94
66.25
72.27
77.2
80.29
80.9
78.64
73.41
65.36
54.88
42.58
29.15
15.28
1.53
-11.79
-24.72
-37.68
-51.46
-66.91
-84.59
-104.11
-123.75
-140.42
-150.26
-149.75
-136.97
-112.44
-79.08
-41.47
-4.41
28.28
54.5
73.83
86.87
94.62
97.85
97.07
92.72
85.35
75.85
65.32
54.85
45.39
37.56
31.65
27.73
25.69
25.29
26.18
27.9
29.91
31.7
32.72
32.45
30.37
26.02
19.12
9.76
-1.57
-14.0
-26.58
-38.48
-49.3
-59.04
-68.07
-76.98
-86.48
-97.27
-109.85
-124.1
-138.89
-151.78
-159.43
-158.47
-146.62
-123.73
-91.99
-55.38
-18.49
14.68
41.61
61.34
74.14
80.86
82.53
80.09
74.4
66.32
56.74
46.48
36.26
26.71
18.34
11.73
7.45
6.03
7.77
12.45
19.37
27.38
35.18
41.65
46.1
48.23
48.07
45.69
41.22
34.69
26.27
16.3
5.3
-6.09
-17.26
-27.79
-37.53
-46.73
-55.94
-66.0
-77.66
-91.13
-105.52
-118.59
-127.03
-127.35
-117.05
-95.67
-65.15
-29.25
7.54
41.25
69.22
90.35
104.69
112.89
115.81
114.28
109.05
100.88
90.52
78.73
66.26
53.85
42.28
32.34
24.76
20.02
18.18
18.8
20.92
23.34
24.93
24.91
22.97
19.34
14.4
8.57
2.03
-5.29
-13.59
-22.98
-33.37
-44.33
-55.18
-65.12
-73.46
-79.9
-84.67
-88.63
-93.06
-99.17
-107.35
-116.59
-124.33
-127.0
-121.27
-105.29
-79.57
-46.99
-11.83
21.55
49.88
71.51
86.3
94.93
98.33
97.28
92.42
84.36
73.9
62.06
49.97
38.82
29.63
23.15
19.76
19.46
21.87
26.34
32.05
38.13
43.86
48.61
52.01
53.82
53.92
52.18
48.52
42.92
35.48
26.48
16.39
5.85
-4.48
-14.11
-22.91
-31.23
-39.96
-50.26
-63.1
-78.67
-95.85
-112.2
-124.41
-129.26
-124.61
-110.06
-86.93
-57.82
-25.91
5.73
34.43
58.14
75.5
85.9
89.62
87.7
81.72
73.4
64.16
54.98
46.44
38.98
33.1
29.4
28.54
30.95
36.52
44.51
53.57
62.15
68.89
73.0
74.43
73.67
71.38
67.92
63.18
56.5
47.09
34.4
18.49
0.23
-18.98
-37.53
-54.24
-68.68
-81.32
-93.33
-106.16
-120.98
-138.1
-156.45
-173.54
-185.72
-189.08
-180.66
-159.52
-127.29
-87.85
-46.2
-7.06
26.31
52.49
71.6
84.46
91.97
94.64
92.81
86.93
77.85
66.8
55.25
44.53
35.63
29.08
25.0
23.11
22.82
23.36
23.97
24.12
23.59
22.38
20.66
18.36
15.27
11.02
5.31
-1.87
-10.3
-19.59
-29.38
-39.48
-49.82
-60.39
-71.2
-82.28
-93.74
-105.92
-119.01
-132.75
-145.87
-155.97
-159.9
-154.67
-138.58
-112.08
-77.76
-39.75
-2.47
30.46
56.93
76.31
89.0
95.73
97.28
94.23
87.13
76.74
64.14
50.74
38.01
27.18
18.95
13.48
10.51
9.71
10.84
13.8
18.47
24.42
30.78
36.39
40.02
40.72
38.11
32.4
24.3
14.77
4.75
-5.05
-14.31
-23.19
-32.28
-42.4
-54.38
-68.77
-85.34
-102.77
-118.5
-129.13
-131.2
-122.39
-102.34
-73.13
-38.63
-3.43
28.56
54.91
74.87
88.77
97.3
100.93
99.9
94.48
85.41
73.98
61.8
50.36
40.7
33.21
27.76
24.06
21.92
21.35
22.49
25.35
29.58
34.34
38.45
40.65
39.96
36.05
29.33
20.82
11.83
3.49
-3.54
-9.29
-14.4
-19.91
-26.94
-36.46
-48.87
-63.73
-79.48
-93.35
-101.82
-101.43
-89.94
-67.31
-35.94
-0.07
35.48
66.68
91.18
108.23
118.09
121.18
117.68
107.65
91.6
70.91
47.86
25.14
5.12
-10.56
-21.26
-26.98
-28.03
-24.74
-17.52
-7.09
5.37
18.28
29.99
39.17
45.06
47.35
45.99
40.91
31.95
18.96
2.06
-18.19
-40.81
-64.53
-88.21
-111.13
-133.14
-154.41
-174.81
-193.25
-207.31
-213.54
-208.52
-190.2
-158.87
-117.36
-70.2
-22.3
22.14
60.32
90.74
112.87
126.71
132.68
131.5
124.3
112.49
97.66
81.4
65.13
50.01
36.91
26.35
18.56
13.49
10.91
10.45
11.61
13.84
16.47
18.9
20.54
20.82
19.26
15.43
9.16
0.72
-9.23
-19.73
-29.84
-39.0
-47.19
-54.89
-62.94
-72.27
-83.6
-97.06
-111.84
-125.96
-136.32
-139.33
-131.83
-112.36
-81.74
-43.13
-1.14
39.54
75.27
104.09
125.63
140.47
149.38
152.93
151.29
144.51
132.81
116.97
98.46
79.25
61.44
46.7
35.99
29.38
26.26
25.75
26.94
29.05
31.41
33.2
33.48
31.28
25.91
17.17
5.52
-8.08
-22.38
-36.25
-48.88
-59.93
-69.5
-78.01
-86.07
-94.42
-103.81
-114.84
-127.59
-141.21
-153.63
-161.89
-162.78
-153.87
-134.45
-105.85
-71.14
-34.17
1.41
32.88
58.74
78.45
92.11
100.06
102.83
101.06
95.55
87.28
77.27
66.53
55.95
46.25
37.95
31.4
26.85
24.47
24.33
26.36
30.24
35.29
40.47
44.49
46.07
44.26
38.68
29.69
18.27
5.66
-6.94
-18.87
-30.03
-40.95
-52.51
-65.71
-81.29
-99.38
-119.09
-138.2
-153.41
-160.97
-157.77
-142.41
-115.85
-81.15
-42.59
-4.42
30.02
58.78
81.07
96.77
106.1
109.43
107.38
100.93
91.42
80.37
69.25
59.2
50.89
44.53
40.06
37.29
36.12
36.55
38.58
42.09
46.55
51.01
54.24
55.01
52.52
46.66
38.03
27.74
17.02
6.75
-2.75
-11.77
-21.07
-31.61
-44.35
-59.88
-78.02
-97.33
-115.03
-127.34
-130.46
-121.85
-101.16
-70.58
-34.14
3.49
38.23
67.4
89.8
105.37
114.51
117.81
115.84
109.43
99.61
87.7
75.07
62.88
51.84
42.18
33.85
26.73
20.86
16.54
14.15
13.84
15.21
17.27
18.64
17.96
14.39
7.92
-0.7
-10.3
-19.72
-28.35
-36.15
-43.63
-51.54
-60.61
-71.43
-84.34
-99.19
-115.03
-129.81
-140.43
-143.45
-136.04
-117.2
-88.13
-52.05
-13.18
24.55
58.34
86.7
109.13
125.5
135.82
140.2
139.18
133.9
125.92
116.92
108.28
100.88
95.14
91.32
89.63
90.26
93.13
97.66
102.63
106.45
107.6
105.2
99.26
90.59
80.4
69.66
58.83
47.8
36.13
23.34
9.08
-6.96
-24.96
-44.65
-64.75
-82.62
-94.6
-97.12
-88.26
-68.89
-42.71
-15.12
8.64
25.03
32.74
32.29
25.01
12.29
-4.47
-23.7
-43.52
-62.09
-78.34
-92.47
-105.8
-119.86
-135.23
-150.86
-164.25
-172.59
-174.12
-169.13
-159.9
-149.76
-141.77
-137.63
-137.44
-140.19
-144.6
-149.99
-156.5
-164.99
-176.52
-191.69
-210.21
-230.7
-250.61
-266.76
-275.96
-275.88
-265.62
-245.95
-218.88
-186.77
-151.61
-114.41
-75.23
-33.48
11.57
60.24
112.01
165.21
216.99
263.67
301.45
327.49
340.83
342.68
336.02
324.55
311.65
299.66
289.74
282.08
276.05
270.28
262.62
250.44
231.43
204.64
171.21
134.09
97.12
63.32
33.52
5.96
-23.09
-57.97
-102.04
-156.34
-218.75
-283.92
-344.17
-391.26
-418.73
-423.88
-408.55
-378.27
-340.05
-300.0
-261.61
-225.65
-191.06
-156.32
-120.49
-83.6
-46.61
-11.18
20.63
46.78
65.7
76.88
81.04
79.94
75.78
70.58
65.74
61.97
59.53
58.36
58.17
58.4
58.29
56.99
53.9
48.78
41.77
33.14
23.07
11.62
-1.11
-14.49
-27.05
-36.52
-40.32
-36.48
-24.36
-5.04
18.95
44.45
68.52
89.19
105.53
117.45
125.19
129.03
129.16
125.8
119.38
110.58
100.23
89.15
78.0
67.2
57.0
47.61
39.26
32.18
26.47
22.06
18.62
15.68
12.79
9.61
5.98
1.86
-2.85
-8.36
-14.99
-23.05
-32.51
-42.75
-52.39
-59.44
-61.73
-57.6
-46.51
-29.21
-7.65
15.7
38.49
59.02
76.32
90.0
99.94
106.17
108.83
108.31
105.22
100.36
94.44
87.94
81.12
74.01
66.63
59.12
51.73
44.78
38.57
33.26
28.87
25.27
22.23
19.5
16.84
14.03
10.83
6.91
1.86
-4.81
-13.29
-23.2
-33.34
-41.85
-46.58
-45.86
-39.04
-26.74
-10.57
7.43
25.37
41.8
55.86
67.02
75.03
79.76
81.31
79.92
76.08
70.33
63.3
55.58
47.77
40.43
34.01
28.8
24.86
22.07
20.31
19.46
19.55
20.63
22.67
25.51
28.74
31.82
34.18
35.31
34.88
32.8
29.42
25.64
22.89
22.91
27.33
37.12
52.34
72.11
95.06
119.76
144.98
169.85
193.63
215.63
235.19
251.82
265.03
274.19
278.46
277.03
269.77
257.73
243.1
228.39
215.22
203.55
191.77
177.86
160.74
140.96
120.37
100.87
83.23
66.76
49.85
31.23
10.74
-10.64
-31.36
-50.09
-66.03
-78.74
-87.82
-92.72
-92.93
-88.45
-80.08
-69.42
-58.35
-48.45
-40.53
-34.59
-30.07
-26.4
-23.3
-21.01
-20.24
-21.94
-26.92
-35.54
-47.48
-61.74
-76.87
-91.5
-104.78
-116.52
-127.06
-136.88
-146.2
-154.84
-162.44
-168.82
-174.19
-179.46
-186.15
-196.04
-210.44
-229.44
-251.22
-272.28
-288.4
-296.0
-293.23
-280.33
-258.85
-230.69
-197.37
-160.07
-120.32
-80.64
-44.35
-14.69
6.49
19.43
26.34
30.19
33.36
36.79
40.03
41.85
41.13
37.61
31.89
25.11
18.41
12.51
7.51
3.12
-1.03
-5.27
-9.71
-14.36
-19.21
-24.27
-29.47
-34.68
-39.72
-44.43
-48.78
-52.92
-57.17
-61.89
-67.37
-73.52
-79.71
-84.77
-87.05
-84.96
-77.43
-64.36
-46.77
-26.57
-5.96
13.07
29.2
41.83
50.91
56.73
59.7
60.25
58.88
56.02
52.08
47.33
41.92
35.85
29.14
21.93
14.54
7.37
0.83
-4.92
-9.97
-14.68
-19.4
-24.37
-29.54
-34.71
-39.69
-44.45
-49.24
-54.55
-60.9
-68.73
-78.15
-88.78
-99.57
-108.98
-115.19
-116.53
-112.0
-101.5
-85.85
-66.59
-45.55
-24.49
-4.82
12.49
26.98
38.69
48.08
55.8
62.48
68.48
73.85
78.44
82.12
84.94
87.14
89.0
90.71
92.25
93.37
93.8
93.24
91.56
88.68
84.53
78.98
71.88
63.14
52.9
41.56
29.67
17.69
5.77
-6.28
-18.69
-31.31
-43.2
-52.62
-57.41
-55.84
-47.31
-32.74
-14.5
4.41
21.16
33.87
41.86
45.49
45.55
42.8
37.78
30.89
22.75
14.28
6.66
0.89
-2.53
-3.83
-3.69
-2.87
-1.83
-0.64
0.83
2.56
4.17
5.0
4.4
2.07
-1.83
-6.71
-11.84
-16.69
-21.12
-25.37
-29.96
-35.35
-41.76
-48.88
-55.84
-61.27
-63.59
-61.38
-53.89
-41.3
-24.76
-6.08
12.69
29.8
44.07
54.99
62.47
66.63
67.6
65.54
60.7
53.63
45.14
36.17
27.57
19.94
13.41
7.95
3.41
-0.2
-2.73
-4.03
-4.18
-3.61
-3.05
-3.27
-4.81
-7.77
-11.86
-16.48
-21.13
-25.5
-29.67
-34.03
-39.18
-45.73
-54.08
-64.15
-75.16
-85.57
-93.28
-96.1
-92.37
-81.51
-64.3
-42.66
-19.15
3.76
24.15
40.91
53.63
62.43
67.6
69.57
68.84
65.89
61.26
55.4
48.77
41.78
34.89
28.59
23.39
19.71
17.73
17.38
18.24
19.65
20.76
20.75
19.0
15.27
9.85
3.43
-3.11
-9.07
-14.25
-19.14
-24.73
-32.1
-41.81
-53.55
-66.15
-77.89
-87.12
-92.75
-94.62
-93.51
-90.9
-88.59
-88.21
-90.88
-96.82
-105.23
-114.65
-123.44
-130.56
-136.05
-141.05
-147.29
-156.29
-168.78
-184.66
-203.21
-223.65
-245.28
-267.36
-288.61
-306.99
-319.99
-325.29
-321.59
-308.96
-288.59
-261.87
-229.68
-192.25
-149.87
-104.13
-58.8
-19.63
7.35
18.19
13.0
-3.75
-24.74
-42.4
-51.44
-49.85
-38.35
-18.97
6.12
35.02
65.7
95.62
121.98
142.56
156.69
165.68
172.2
179.23
188.93
201.92
217.42
233.68
248.7
260.92
269.63
275.17
278.58
281.02
283.14
284.74
284.93
282.69
277.55
269.84
260.76
251.95
244.93
240.47
237.97
235.06
227.78
211.39
181.92
137.85
81.37
18.54
-42.03
-91.26
-121.98
-130.48
-116.9
-84.51
-38.46
15.3
70.51
120.85
160.11
183.0
186.13
169.09
134.72
88.58
37.51
-11.99
-55.05
-88.89
-112.63
-126.67
-132.2
-130.74
-124.07
-114.07
-102.56
-91.09
-80.76
-72.14
-65.31
-60.05
-56.14
-53.46
-52.16
-52.47
-54.43
-57.79
-61.99
-66.43
-70.73
-74.84
-79.06
-83.59
-88.22
-92.06
-93.69
-91.6
-84.77
-73.11
-57.57
-39.75
-21.47
-4.3
10.6
22.53
31.23
36.92
40.29
42.37
44.3
46.95
50.57
54.74
58.51
60.85
61.07
59.07
55.42
51.03
46.8
43.38
40.93
39.24
37.88
36.46
34.75
32.7
30.29
27.39
23.75
19.05
13.01
5.47
-3.6
-14.06
-25.45
-36.88
-46.89
-53.69
-55.47
-51.11
-40.57
-25.03
-6.59
12.35
29.74
44.22
55.17
62.54
66.51
67.32
65.24
60.65
54.09
46.24
37.88
29.69
22.18
15.69
10.43
6.57
4.21
3.36
3.76
4.95
6.3
7.18
7.08
5.83
3.49
0.3
-3.47
-7.74
-12.59
-18.28
-25.02
-32.8
-41.04
-48.69
-54.29
-56.38
-53.97
-46.88
-35.83
-22.21
-7.66
6.35
18.74
28.9
36.5
41.41
43.59
43.16
40.46
36.08
30.77
25.24
20.02
15.43
11.6
8.56
6.3
4.78
3.87
3.29
2.7
1.76
0.21
-2.02
-4.82
-8.05
-11.59
-15.47
-19.86
-25.12
-31.57
-39.31
-47.97
-56.49
-63.27
-66.5
-64.67
-57.15
-44.45
-28.01
-9.85
8.02
24.06
37.34
47.44
54.31
58.08
58.97
57.31
53.57
48.33
42.18
35.68
29.22
23.14
17.69
13.13
9.76
7.72
6.93
6.94
7.06
6.52
4.72
1.5
-2.89
-7.91
-12.97
-17.67
-21.87
-25.78
-29.84
-34.59
-40.58
-48.05
-56.63
-65.22
-72.01
-75.03
-72.68
-64.43
-51.03
-34.23
-16.25
0.93
16.0
28.32
37.84
44.66
48.91
50.7
50.22
47.79
43.88
39.09
33.96
28.96
24.36
20.31
16.83
13.91
11.54
9.77
8.66
8.21
8.31
8.68
8.85
8.31
6.7
3.86
-0.02
-4.53
-9.17
-13.56
-17.61
-21.44
-25.31
-29.46
-34.06
-39.25
-45.14
-51.71
-58.63
-65.05
-69.57
-70.58
-66.79
-57.71
-43.95
-27.0
-8.76
8.94
24.75
37.79
47.61
54.05
57.17
57.36
55.3
51.84
47.78
43.67
39.68
35.77
31.82
27.99
24.75
22.8
22.73
24.71
28.26
32.39
36.02
38.36
39.24
39.16
39.02
39.83
42.42
47.37
54.8
64.08
73.6
80.88
83.05
77.92
64.91
45.4
22.25
-1.37
-23.15
-42.2
-58.62
-72.63
-83.76
-90.68
-91.81
-86.34
-74.77
-58.93
-41.25
-23.9
-8.19
5.49
17.24
27.12
34.82
39.62
40.73
37.71
30.79
20.9
9.45
-1.98
-12.1
-20.17
-26.02
-29.94
-32.37
-33.75
-34.36
-34.27
-33.53
-32.19
-30.47
-28.74
-27.49
-27.23
-28.35
-30.97
-34.92
-39.77
-44.93
-49.84
-54.11
-57.52
-60.07
-61.98
-63.67
-65.75
-68.84
-73.32
-78.91
-84.42
-87.94
-87.33
-80.98
-68.44
-50.7
-29.86
-8.44
11.31
27.92
40.78
49.86
55.45
57.85
57.39
54.47
49.58
43.35
36.45
29.51
22.97
17.13
12.18
8.2
5.29
3.56
3.03
3.62
5.02
6.75
8.2
8.84
8.37
6.82
4.44
1.56
-1.63
-5.11
-9.08
-13.76
-19.27
-25.48
-32.05
-38.45
-44.28
-49.34
-53.83
-58.29
-63.42
-69.69
-76.99
-84.32
-89.93
-91.75
-88.01
-77.94
-62.04
-41.98
-20.1
1.3
20.47
36.4
48.8
57.8
63.62
66.57
66.88
64.88
60.94
55.5
49.01
41.94
34.77
27.96
22.01
17.35
14.27
12.82
12.83
13.93
15.64
17.51
19.17
20.3
20.66
20.05
18.33
15.46
11.49
6.57
0.92
-5.23
-11.64
-18.06
-24.25
-29.99
-35.19
-40.01
-44.88
-50.41
-57.08
-64.83
-72.89
-79.8
-83.81
-83.52
-78.39
-68.91
-56.43
-42.72
-29.45
-17.83
-8.55
-1.93
1.98
3.19
1.89
-1.57
-6.6
-12.4
-18.12
-22.96
-26.37
-28.08
-28.05
-26.41
-23.38
-19.23
-14.25
-8.8
-3.3
1.83
6.26
9.69
12.02
13.26
13.54
13.07
12.02
10.51
8.56
6.07
3.0
-0.55
-4.31
-7.86
-10.85
-13.23
-15.38
-17.97
-21.67
-26.82
-33.09
-39.37
-44.01
-45.38
-42.26
-34.32
-22.14
-6.99
9.58
26.09
41.36
54.61
65.34
73.29
78.34
80.56
80.16
77.53
73.14
67.53
61.24
54.82
48.76
43.52
39.42
36.59
34.95
34.28
34.3
34.73
35.3
35.73
35.76
35.08
33.47
30.76
26.92
22.08
16.5
10.49
4.41
-1.48
-7.01
-12.11
-16.87
-21.48
-26.26
-31.59
-37.76
-44.82
-52.37
-59.37
-64.38
-65.81
-62.5
-54.14
-41.38
-25.74
-9.05
7.03
21.32
33.21
42.5
49.2
53.42
55.33
55.19
53.38
50.28
46.25
41.59
36.54
31.44
26.71
22.79
20.13
18.95
19.22
20.63
22.69
24.84
26.62
27.65
27.75
26.9
25.11
22.5
19.17
15.23
10.79
5.96
0.83
-4.46
-9.81
-15.13
-20.39
-25.64
-31.08
-37.06
-43.87
-51.56
-59.67
-67.09
-72.25
-73.54
-69.86
-61.02
-47.83
-31.83
-14.73
1.92
17.04
29.91
40.17
47.6
52.15
54.01
53.51
51.1
47.23
42.32
36.7
30.77
25.02
20.05
16.46
14.65
14.71
16.38
19.17
22.5
25.85
28.82
31.13
32.55
32.86
31.85
29.41
25.56
20.54
14.71
8.48
2.17
-4.05
-10.19
-16.36
-22.76
-29.62
-37.23
-45.74
-55.0
-64.29
-72.22
-76.94
-76.72
-70.51
-58.48
-41.99
-23.18
-4.33
12.76
27.11
38.41
46.79
52.47
55.64
56.43
55.03
51.79
47.23
41.95
36.55
31.47
27.07
23.56
21.13
19.84
19.77
20.78
22.61
24.85
27.0
28.62
29.37
29.06
27.58
24.88
20.98
15.95
10.01
3.49
-3.22
-9.8
-16.05
-21.99
-27.81
-33.83
-40.46
-48.03
-56.57
-65.61
-73.98
-79.96
-81.71
-77.87
-68.06
-53.13
-34.87
-15.5
2.99
19.2
32.45
42.6
49.79
54.26
56.29
56.27
54.62
51.78
48.15
44.07
39.91
36.06
33.0
31.15
30.74
31.65
33.42
35.38
36.86
37.46
37.11
36.03
34.6
33.06
31.4
29.28
26.23
21.85
15.99
8.86
0.98
-7.04
-14.67
-21.68
-28.1
-34.24
-40.6
-47.63
-55.51
-63.9
-71.83
-77.78
-80.05
-77.36
-69.25
-56.32
-40.05
-22.32
-4.98
10.54
23.36
33.03
39.46
42.81
43.4
41.73
38.37
33.92
28.85
23.57
18.37
13.52
9.3
6.0
3.9
3.11
3.63
5.16
7.27
9.39
11.04
11.9
11.88
11.07
9.68
7.83
5.54
2.68
-0.85
-5.07
-9.77
-14.65
-19.35
-23.62
-27.42
-30.94
-34.55
-38.73
-43.94
-50.39
-57.79
-65.22
-71.12
-73.73
-71.6
-64.13
-51.86
-36.28
-19.37
-3.03
11.39
23.16
32.06
38.17
41.69
42.92
42.22
39.99
36.67
32.62
28.17
23.58
19.18
15.34
12.48
10.92
10.83
12.09
14.32
16.97
19.43
21.19
21.93
21.58
20.28
18.27
15.81
13.03
9.91
6.35
2.22
-2.46
-7.55
-12.74
-17.71
-22.25
-26.34
-30.19
-34.17
-38.73
-44.22
-50.73
-57.82
-64.55
-69.59
-71.42
-68.87
-61.49
-49.67
-34.55
-17.73
-0.81
14.87
28.3
38.89
46.28
50.47
51.76
50.68
47.92
44.1
39.67
34.89
30.0
25.31
21.22
18.18
16.55
16.41
17.6
19.78
22.49
25.28
27.67
29.27
29.79
29.09
27.21
24.35
20.69
16.36
11.42
5.87
-0.23
-6.67
-13.13
-19.25
-24.73
-29.51
-33.7
-37.67
-41.92
-46.88
-52.74
-59.15
-65.16
-69.28
-69.94
-66.01
-57.17
-44.17
-28.52
-12.09
3.47
16.93
27.74
35.73
41.03
43.85
44.48
43.3
40.7
37.13
32.96
28.52
24.03
19.69
15.78
12.67
10.76
10.38
11.6
14.1
17.25
20.24
22.33
23.1
22.49
20.79
18.39
15.66
12.76
9.7
6.38
2.7
-1.35
-5.65
-10.01
-14.27
-18.35
-22.28
-26.19
-30.31
-34.88
-40.17
-46.27
-52.93
-59.42
-64.52
-66.8
-64.99
-58.48
-47.59
-33.47
-17.8
-2.22
11.97
24.06
33.82
41.3
46.55
49.63
50.57
49.47
46.61
42.44
37.54
32.48
27.8
23.92
21.19
19.79
19.75
20.91
22.86
25.14
27.25
28.83
29.72
29.87
29.31
28.02
25.94
23.01
19.2
14.56
9.27
3.54
-2.32
-8.02
-13.23
-17.73
-21.47
-24.68
-27.85
-31.53
-36.1
-41.43
-46.71
-50.53
-51.37
-48.09
-40.4
-29.01
-15.37
-1.19
12.01
23.23
32.01
38.28
42.23
44.1
44.19
42.8
40.18
36.57
32.18
27.31
22.36
17.78
14.0
11.3
9.75
9.2
9.46
10.3
11.58
13.11
14.7
16.07
16.94
17.11
16.46
14.96
12.61
9.45
5.58
1.17
-3.55
-8.37
-13.16
-17.93
-22.8
-28.04
-33.84
-40.33
-47.34
-54.31
-60.25
-63.92
-64.08
-59.94
-51.44
-39.4
-25.22
-10.53
3.25
15.17
24.72
31.75
36.28
38.43
38.36
36.42
33.08
28.84
24.26
19.75
15.59
12.01
9.11
6.98
5.68
5.2
5.5
6.44
7.81
9.31
10.57
11.17
10.73
9.01
5.99
1.85
-3.05
-8.27
-13.49
-18.52
-23.37
-28.2
-33.29
-38.99
-45.59
-53.15
-61.26
-68.89
-74.5
-76.38
-73.23
-64.69
-51.51
-35.36
-18.26
-2.03
12.15
23.73
32.62
38.89
42.59
43.84
42.9
40.22
36.4
32.07
27.73
23.67
20.03
16.87
14.25
12.26
11.02
10.56
10.88
11.84
13.16
14.44
15.2
15.0
13.51
10.65
6.58
1.66
-3.67
-9.0
-14.05
-18.74
-23.14
-27.49
-32.13
-37.52
-43.98
-51.44
-59.22
-65.96
-69.91
-69.46
-63.71
-52.92
-38.33
-21.83
-5.27
9.87
22.75
33.02
40.58
45.48
47.85
47.92
46.14
42.99
39.01
34.61
30.1
25.71
21.65
18.17
15.49
13.8
13.15
13.42
14.34
15.53
16.6
17.16
16.92
15.64
13.22
9.69
5.3
0.4
-4.6
-9.4
-13.91
-18.27
-22.74
-27.57
-33.01
-39.23
-46.24
-53.82
-61.28
-67.41
-70.69
-69.67
-63.6
-52.71
-38.25
-22.1
-6.16
8.13
20.03
29.4
36.4
41.22
44.01
44.87
43.96
41.51
37.89
33.52
28.87
24.4
20.52
17.58
15.78
15.2
15.68
16.96
18.71
20.54
22.12
23.12
23.29
22.37
20.23
16.83
12.35
7.11
1.53
-4.0
-9.25
-14.23
-19.04
-23.95
-29.22
-35.13
-41.91
-49.62
-57.9
-65.83
-71.96
-74.66
-72.55
-65.13
-52.95
-37.49
-20.67
-4.3
10.3
22.44
31.91
38.7
42.93
44.75
44.4
42.28
38.82
34.51
29.75
24.91
20.32
16.32
13.23
11.28
10.59
11.04
12.33
14.04
15.7
16.94
17.54
17.4
16.57
15.1
13.02
10.33
7.02
3.12
-1.28
-5.99
-10.84
-15.67
-20.45
-25.16
-30.01
-35.29
-41.4
-48.57
-56.61
-64.74
-71.5
-75.17
-74.24
-67.98
-56.72
-41.79
-24.98
-8.1
7.48
20.9
31.69
39.67
44.75
47.01
46.71
44.32
40.47
35.73
30.65
25.65
21.06
17.19
14.27
12.49
11.9
12.39
13.75
15.66
17.74
19.67
21.15
21.96
21.96
21.09
19.3
16.55
12.85
8.29
3.01
-2.74
-8.71
-14.66
-20.47
-26.13
-31.75
-37.58
-43.92
-50.99
-58.72
-66.51
-73.15
-77.04
-76.63
-70.98
-60.14
-45.22
-28.07
-10.73
5.18
18.71
29.55
37.8
43.71
47.47
49.21
49.07
47.27
44.15
40.12
35.61
31.02
26.71
23.03
20.29
18.73
18.43
19.23
20.71
22.29
23.41
23.66
22.92
21.27
18.97
16.2
13.03
9.42
5.31
0.73
-4.18
-9.19
-14.04
-18.57
-22.76
-26.75
-30.83
-35.47
-41.18
-48.3
-56.79
-65.86
-74.01
-79.26
-79.74
-74.32
-63.07
-47.24
-28.91
-10.29
6.77
21.14
32.35
40.43
45.67
48.44
49.16
48.21
45.97
42.72
38.73
34.27
29.66
25.34
21.75
19.29
18.19
18.46
19.87
22.07
24.52
26.69
28.11
28.48
27.72
25.97
23.49
20.52
17.18
13.45
9.19
4.32
-1.18
-7.13
-13.24
-19.15
-24.6
-29.58
-34.35
-39.42
-45.37
-52.5
-60.49
-68.32
-74.34
-76.77
-74.22
-66.24
-53.46
-37.4
-20.01
-3.09
12.05
24.66
34.48
41.48
45.8
47.63
47.3
45.27
42.06
38.18
34.01
29.81
25.82
22.32
19.63
18.12
17.96
19.1
21.18
23.67
25.94
27.48
28.0
27.44
25.97
23.85
21.3
18.39
15.03
11.05
6.32
0.86
-5.09
-11.22
-17.16
-22.7
-27.82
-32.72
-37.73
-43.3
-49.81
-57.37
-65.58
-73.38
-79.16
-81.13
-77.88
-68.96
-55.06
-37.84
-19.38
-1.63
14.03
26.88
36.71
43.58
47.64
49.15
48.45
46.0
42.35
37.97
33.28
28.57
24.15
20.31
17.41
15.76
15.5
16.5
18.38
20.55
22.4
23.54
23.78
23.17
21.82
19.8
17.09
13.59
9.32
4.4
-0.87
-6.16
-11.25
-16.13
-20.94
-25.89
-31.25
-37.27
-44.17
-52.02
-60.52
-68.84
-75.47
-78.62
-76.71
-69.04
-56.03
-39.21
-20.71
-2.61
13.49
26.72
36.79
43.81
48.04
49.83
49.55
47.59
44.34
40.14
35.37
30.48
25.96
22.28
19.78
18.57
18.51
19.27
20.46
21.75
22.91
23.78
24.25
24.22
23.57
22.21
20.04
17.0
13.15
8.6
3.55
-1.74
-7.03
-12.14
-16.99
-21.65
-26.38
-31.55
-37.61
-44.86
-53.14
-61.63
-68.87
-73.0
-72.36
-66.02
-54.24
-38.34
-20.34
-2.37
13.86
27.35
37.75
45.15
49.83
52.12
52.31
50.72
47.66
43.48
38.55
33.32
28.22
23.73
20.26
18.1
17.42
18.16
20.09
22.77
25.62
28.0
29.38
29.4
28.01
25.31
21.53
16.87
11.49
5.52
-0.88
-7.44
-13.84
-19.8
-25.16
-30.02
-34.65
-39.52
-45.17
-51.99
-59.93
-68.31
-75.76
-80.45
-80.65
-75.29
-64.39
-49.12
-31.43
-13.49
2.93
16.77
27.65
35.72
41.31
44.75
46.33
46.28
44.85
42.29
38.87
34.94
30.86
27.0
23.77
21.45
20.18
19.88
20.26
20.98
21.69
22.13
22.18
21.8
20.91
19.38
16.96
13.47
8.87
3.37
-2.58
-8.49
-13.97
-18.92
-23.53
-28.16
-33.21
-39.06
-45.91
-53.75
-62.1
-69.92
-75.67
-77.62
-74.43
-65.68
-52.12
-35.5
-17.99
-1.54
12.58
23.88
32.47
38.66
42.73
44.78
44.88
43.16
39.93
35.68
31.02
26.54
22.77
20.09
18.71
18.69
19.95
22.28
25.34
28.7
31.96
34.75
36.79
37.87
37.87
36.78
34.74
32.01
28.97
26.03
23.46
21.46
19.99
18.85
17.71
16.15
13.79
10.46
6.5
2.91
1.34
3.69
11.64
25.94
46.22
71.0
98.21
125.78
152.0
175.75
196.45
213.88
228.21
239.91
249.72
258.51
266.96
275.38
283.61
291.02
296.71
299.71
299.16
294.56
285.81
273.23
257.37
238.76
217.75
194.58
169.55
143.38
117.23
92.5
70.4
51.46
35.44
21.42
8.26
-4.9
-18.47
-32.33
-46.11
-59.48
-72.35
-85.04
-98.1
-112.05
-127.09
-142.94
-158.93
-174.48
-189.44
-204.43
-220.67
-239.32
-260.72
-284.18
-308.38
-332.31
-355.79
-379.07
-401.51
-420.27
-430.04
-424.28
-397.84
-349.13
-280.69
-197.95
-107.05
-13.57
77.29
159.51
225.69
268.23
281.94
266.55
227.39
173.4
113.61
54.14
-2.86
-57.87
-111.66
-163.42
-210.54
-249.82
-279.12
-298.28
-309.12
-314.57
-317.63
-320.34
-322.84
-323.21
-317.89
-303.05
-276.43
-238.92
-194.87
-150.72
-112.7
-84.43
-65.99
-54.77
-47.64
-42.92
-41.16
-44.22
-53.58
-68.83
-87.39
-105.57
-120.3
-130.54
-137.56
-144.12
-152.94
-165.08
-179.47
-193.51
-204.73
-212.38
-218.17
-225.33
-236.51
-251.56
-266.64
-275.24
-270.65
-248.87
-210.34
-159.73
-104.2
-51.07
-5.92
28.14
50.46
62.31
66.52
67.04
68.23
73.86
85.82
103.4
123.38
141.17
152.59
155.6
151.06
142.31
133.66
128.59
128.34
131.7
135.63
136.71
132.36
121.65
105.42
85.84
65.71
47.8
34.25
26.3
24.16
27.16
34.03
43.14
52.8
61.32
67.23
69.45
67.56
62.0
53.91
44.83
36.14
28.69
22.64
17.73
13.47
9.34
4.82
-0.61
-7.2
-14.64
-21.66
-26.1
-25.33
-17.14
-0.6
23.52
52.95
84.58
115.36
142.83
165.48
182.63
194.2
200.48
202.04
199.59
193.97
186.06
176.62
166.33
155.75
145.23
135.02
125.2
115.85
107.05
98.96
91.84
85.96
81.46
78.17
75.57
72.73
68.5
61.82
52.06
39.32
24.38
8.56
-6.83
-20.85
-33.29
-44.58
-55.6
-67.16
-79.68
-92.88
-105.63
-116.2
-122.53
-122.94
-116.57
-103.72
-85.72
-64.49
-42.05
-20.07
0.23
18.02
32.67
43.78
51.11
54.78
55.27
53.34
49.79
45.36
40.63
36.04
31.96
28.73
26.62
25.73
25.98
27.14
28.93
31.04
33.12
34.76
35.49
34.84
32.52
28.56
23.41
17.76
12.37
7.65
3.6
-0.19
-4.39
-9.72
-16.77
-25.85
-36.85
-48.95
-60.54
-69.39
-73.13
-70.01
-59.54
-42.73
-21.78
0.62
22.04
40.89
56.45
68.56
77.39
83.08
85.76
85.65
83.13
78.8
73.37
67.58
62.01
57.01
52.76
49.25
46.46
44.42
43.22
42.9
43.35
44.27
45.11
45.25
44.14
41.44
37.15
31.55
25.13
18.42
11.85
5.6
-0.42
-6.56
-13.32
-21.2
-30.5
-41.02
-51.97
-61.86
-68.81
-70.98
-67.2
-57.32
-42.32
-24.08
-4.75
13.77
30.17
43.75
54.29
61.84
66.55
68.62
68.34
66.12
62.43
57.81
52.83
48.05
43.95
40.94
39.18
38.6
38.9
39.7
40.65
41.47
41.98
42.0
41.36
39.8
37.09
33.15
28.08
22.21
15.97
9.81
4.02
-1.37
-6.49
-11.6
-16.97
-22.83
-29.37
-36.7
-44.72
-52.93
-60.2
-64.92
-65.4
-60.4
-49.71
-34.36
-16.27
2.37
19.71
34.7
47.03
56.84
64.33
69.58
72.6
73.48
72.49
70.16
67.06
63.74
60.6
57.84
55.61
54.0
53.12
53.07
53.88
55.46
57.59
59.89
61.84
62.86
62.43
60.21
56.14
50.5
43.88
36.95
30.34
24.33
18.87
13.56
7.9
1.49
-5.87
-14.19
-23.41
-33.51
-44.33
-55.36
-65.55
-73.34
-77.11
-75.8
-69.46
-59.37
-47.61
-36.42
-27.6
-22.28
-20.94
-23.68
-30.21
-39.89
-51.7
-64.38
-76.78
-88.13
-98.1
-106.67
-113.65
-118.54
-120.4
-118.26
-111.52
-100.28
-85.52
-68.79
-51.84
-36.19
-22.71
-11.49
-2.07
6.32
14.3
22.16
29.74
36.67
42.58
47.3
50.85
53.42
55.23
56.41
56.92
56.52
54.86
51.74
47.41
42.81
39.51
39.28
43.53
52.63
65.7
80.91
96.06
109.43
120.22
128.61
135.28
140.83
145.35
148.42
149.31
147.44
142.62
135.17
125.72
115.1
104.15
93.68
84.19
75.71
67.42
57.63
44.14
24.94
-0.94
-32.77
-68.21
-103.87
-136.29
-162.86
-182.24
-194.37
-199.94
-199.93
-195.29
-186.87
-175.59
-162.59
-149.28
-137.19
-127.63
-121.16
-117.32
-114.51
-110.48
-103.04
-90.96
-74.33
-54.55
-33.68
-13.7
4.11
19.24
31.75
41.79
49.4
54.49
56.97
57.02
55.1
51.84
47.86
43.62
39.28
34.78
29.94
24.69
19.09
13.51
8.48
4.53
2.01
0.89
0.83
1.25
1.53
1.21
0.04
-2.03
-4.85
-8.24
-12.01
-16.08
-20.37
-24.85
-29.45
-34.09
-38.7
-43.34
-48.17
-53.45
-59.18
-64.94
-69.73
-72.2
-71.07
-65.63
-56.15
-43.8
-30.32
-17.44
-6.44
2.06
7.96
11.48
12.93
12.62
10.9
8.18
4.87
1.39
-1.95
-5.0
-7.7
-10.07
-12.13
-13.88
-15.31
-16.44
-17.36
-18.25
-19.43
-21.22
-23.96
-27.84
-32.87
-38.92
-45.81
-53.41
-61.68
-70.64
-80.25
-90.39
-100.81
-111.26
-121.61
-131.89
-142.33
-153.08
-163.97
-174.39
-183.24
-189.19
-191.02
-187.86
-179.37
-165.76
-147.67
-126.2
-102.74
-78.77
-55.65
-34.34
-15.22
1.81
17.13
31.03
43.62
54.83
64.64
73.23
81.09
88.73
96.5
104.34
111.79
118.34
123.73
128.28
132.63
137.38
142.56
147.48
151.08
152.63
152.29
151.2
150.8
152.05
154.71
157.56
159.03
158.2
155.33
151.68
148.9
148.23
150.17
154.64
161.31
170.02
180.8
193.63
208.28
224.2
240.83
257.82
275.32
293.63
312.68
331.23
346.53
354.69
351.81
335.4
305.41
264.33
216.17
164.93
113.42
63.1
14.84
-29.88
-68.29
-96.79
-112.28
-113.84
-103.63
-86.52
-68.65
-55.49
-50.43
-54.43
-66.66
-85.51
-109.28
-136.28
-164.32
-190.42
-210.98
-222.66
-223.54
-213.87
-196.28
-174.92
-154.05
-136.58
-122.96
-111.24
-98.03
-80.28
-57.02
-30.21
-4.36
15.02
23.3
18.14
-0.19
-29.49
-66.58
-108.0
-150.04
-188.67
-219.68
-239.54
-246.45
-241.11
-226.47
-206.66
-185.55
-165.68
-147.91
-131.83
-116.51
-101.24
-85.84
-70.76
-56.88
-45.38
-37.48
-34.3
-36.68
-45.07
-59.44
-79.04
-102.23
-126.33
-147.6
-161.73
-164.71
-153.92
-129.09
-92.7
-49.46
-5.1
35.04
67.14
89.21
100.71
101.84
93.08
75.16
49.38
18.04
-15.52
-47.46
-74.04
-92.45
-101.09
-99.69
-89.17
-71.54
-49.76
-27.4
-8.07
5.42
11.66
10.83
4.31
-6.04
-18.57
-32.15
-46.1
-59.89
-72.9
-84.44
-94.0
-101.5
-107.15
-111.04
-112.62
-110.51
-102.94
-88.55
-67.45
-41.53
-14.15
10.94
30.85
44.48
52.66
57.55
61.64
66.72
73.24
80.26
85.81
87.7
84.21
74.64
59.43
40.07
18.73
-2.12
-20.0
-32.75
-38.88
-37.92
-30.72
-19.38
-6.85
3.84
10.39
11.72
8.14
0.99
-7.95
-17.18
-25.93
-34.25
-42.73
-51.8
-61.18
-69.55
-74.83
-74.91
-68.44
-55.38
-36.97
-15.26
7.56
29.48
48.86
64.34
74.92
80.18
80.62
77.65
73.22
69.03
65.92
63.67
61.35
58.07
53.55
48.26
43.14
38.96
35.89
33.41
30.62
26.66
21.18
14.4
6.97
-0.25
-6.35
-10.6
-12.58
-12.45
-11.21
-10.63
-12.86
-19.62
-31.47
-47.33
-64.69
-80.21
-90.87
-94.68
-91.2
-81.43
-67.25
-50.84
-34.16
-18.67
-5.23
5.69
13.88
19.31
22.02
22.18
20.09
16.29
11.42
6.19
1.3
-2.58
-4.86
-5.08
-3.07
0.94
6.28
11.97
17.04
20.83
23.14
24.24
24.67
24.89
25.13
25.17
24.45
22.18
17.77
11.15
3.15
-4.41
-9.02
-8.04
0.42
16.93
40.42
68.51
98.22
126.76
152.23
173.93
192.26
208.28
223.03
236.83
248.68
256.26
256.55
246.99
226.84
197.92
164.25
130.93
102.35
80.84
66.07
55.6
45.99
33.99
17.41
-4.49
-31.17
-60.87
-90.86
-117.61
-137.47
-147.63
-147.29
-138.43
-125.56
-114.31
-109.31
-112.21
-120.89
-130.3
-134.54
-129.23
-113.01
-87.71
-57.21
-25.79
3.07
27.27
45.77
58.14
64.29
64.38
59.13
49.95
38.84
28.01
19.17
13.11
9.48
7.1
4.57
1.04
-3.31
-7.31
-9.29
-7.92
-2.91
4.61
12.34
17.52
17.94
12.63
2.29
-11.05
-24.79
-36.6
-45.21
-50.59
-53.83
-56.48
-59.69
-63.6
-66.94
-67.32
-62.05
-49.19
-28.52
-1.77
27.84
56.54
81.16
99.77
111.76
117.52
117.93
114.06
107.18
98.69
90.11
82.79
77.6
74.72
73.77
74.11
75.15
76.67
78.77
81.79
86.1
91.82
98.79
106.33
113.25
117.88
118.25
112.58
99.74
79.85
54.39
25.98
-2.36
-28.09
-49.88
-67.81
-83.04
-97.08
-110.96
-124.6
-136.79
-145.51
-148.81
-145.48
-135.61
-120.59
-102.62
-84.03
-66.67
-51.64
-39.45
-30.27
-24.28
-21.63
-22.29
-25.71
-30.84
-36.24
-40.58
-42.96
-43.1
-41.3
-38.13
-34.17
-29.84
-25.3
-20.63
-15.9
-11.38
-7.5
-4.88
-4.06
-5.38
-8.74
-13.57
-19.01
-24.14
-28.36
-31.57
-34.27
-37.43
-42.13
-49.09
-58.25
-68.42
-77.37
-82.37
-81.0
-72.01
-55.77
-34.16
-9.92
14.13
35.83
53.91
67.83
77.55
83.14
84.77
82.76
77.64
70.27
61.66
52.83
44.61
37.54
31.85
27.51
24.37
22.28
21.17
21.08
22.06
24.04
26.73
29.54
31.65
32.25
30.83
27.4
22.56
17.32
12.76
9.68
8.34
8.43
9.18
9.6
8.71
5.73
0.44
-6.62
-13.97
-19.41
-20.55
-15.53
-3.78
13.72
34.73
56.4
76.1
92.02
103.32
109.99
112.47
111.35
107.18
100.5
91.88
81.95
71.47
61.21
51.87
43.98
37.78
33.23
30.07
27.96
26.59
25.72
25.18
24.83
24.44
23.7
22.24
19.66
15.63
10.08
3.17
-4.57
-12.46
-19.89
-26.46
-32.22
-37.5
-42.81
-48.58
-55.05
-62.25
-70.05
-77.97
-85.02
-89.61
-89.74
-83.59
-70.38
-50.92
-27.52
-3.44
18.29
35.64
47.93
55.49
59.05
59.24
56.46
51.11
43.88
35.72
27.64
20.17
13.26
6.34
-1.13
-9.27
-17.41
-24.38
-28.87
-30.21
-28.63
-25.34
-22.12
-20.63
-21.76
-25.33
-30.18
-34.75
-37.82
-39.07
-39.25
-39.99
-43.2
-50.58
-63.15
-80.84
-102.27
-124.59
-143.78
-155.45
-156.07
-144.22
-121.26
-90.99
-58.46
-28.37
-3.74
14.5
27.03
35.17
40.04
42.02
41.0
36.8
29.55
19.93
8.99
-2.1
-12.29
-20.69
-26.59
-29.5
-29.17
-25.83
-20.36
-14.23
-9.27
-7.22
-9.17
-15.25
-24.48
-35.07
-44.94
-52.37
-56.56
-57.83
-57.42
-56.86
-57.39
-59.48
-62.79
-66.43
-69.31
-70.4
-69.08
-65.07
-58.64
-50.45
-41.37
-32.07
-22.62
-12.38
-0.35
14.22
31.11
48.83
64.93
76.75
82.27
80.77
72.96
60.72
46.55
33.08
22.56
16.65
16.17
21.11
30.73
43.69
58.41
73.24
86.72
97.65
105.1
108.36
106.89
100.24
88.24
71.02
49.12
23.55
-4.4
-33.31
-61.98
-89.59
-115.68
-139.85
-161.27
-178.37
-188.91
-190.58
-181.96
-163.28
-136.63
-105.55
-74.21
-46.31
-24.46
-9.78
-2.02
0.04
-1.71
-5.15
-8.26
-9.43
-7.81
-3.37
3.17
10.75
18.39
25.65
32.88
41.13
51.71
65.62
82.78
101.71
119.63
133.23
139.61
137.19
126.23
108.59
87.16
64.92
44.23
26.42
11.76
-0.36
-11.04
-21.33
-31.72
-41.55
-48.8
-50.33
-42.87
-24.36
5.03
42.56
83.58
122.93
156.26
180.85
195.57
200.21
194.87
179.68
155.3
123.4
86.96
49.81
15.7
-12.83
-35.0
-51.55
-63.88
-73.09
-79.45
-82.61
-82.29
-79.04
-74.35
-70.27
-68.49
-69.62
-72.97
-77.01
-80.17
-81.62
-81.55
-80.99
-81.29
-83.52
-88.18
-95.17
-103.89
-113.21
-121.4
-126.21
-125.17
-116.24
-98.61
-73.25
-42.91
-11.53
16.8
38.75
52.51
57.9
56.11
49.18
39.42
28.82
18.71
9.57
1.05
-7.56
-16.85
-26.87
-36.94
-45.91
-52.72
-56.91
-58.89
-59.77
-60.82
-62.91
-65.91
-68.7
-69.26
-65.16
-54.29
-35.52
-9.3
22.24
55.56
86.53
111.4
127.48
133.54
129.89
118.26
101.67
84.34
71.12
66.53
73.38
91.66
118.27
147.94
174.75
193.92
202.77
200.84
189.43
170.89
148.28
125.25
105.67
92.78
87.97
89.77
93.77
93.8
84.15
61.7
27.04
-15.74
-60.64
-101.65
-134.34
-156.6
-168.67
-172.53
-171.19
-167.99
-166.03
-167.61
-174.07
-185.69
-202.04
-221.98
-243.88
-265.66
-284.92
-299.34
-307.1
-307.07
-298.91
-282.8
-259.18
-228.66
-192.17
-150.99
-106.83
-61.61
-17.21
24.73
62.81
95.82
122.74
142.89
156.06
162.61
163.31
159.03
150.6
138.8
124.58
109.27
94.61
82.51
74.51
71.35
72.65
76.93
82.0
85.52
85.62
81.46
73.46
63.02
51.94
41.65
32.51
23.66
13.35
-0.39
-18.91
-42.24
-68.66
-94.76
-115.91
-127.35
-125.64
-109.86
-82.22
-47.57
-12.0
19.09
42.45
57.48
65.71
69.53
70.94
70.87
69.14
65.03
57.87
47.61
34.92
21.12
7.75
-3.73
-12.26
-17.15
-18.08
-14.95
-8.04
1.88
13.32
24.11
31.92
34.88
32.37
25.31
15.92
6.86
0.19
-3.38
-4.76
-6.11
-9.95
-18.14
-31.0
-46.84
-62.01
-71.82
-71.8
-59.28
-34.59
-1.3
34.58
66.34
88.53
98.49
96.73
86.29
71.31
55.66
41.95
31.18
23.09
16.62
10.47
3.44
-5.24
-15.72
-27.43
-39.0
-48.39
-53.42
-52.37
-44.57
-30.82
-13.27
4.98
20.67
31.24
35.41
33.4
26.67
17.29
7.17
-2.61
-11.94
-21.53
-32.42
-45.33
-60.14
-75.59
-89.25
-98.04
-98.97
-90.2
-71.77
-45.74
-15.53
15.15
43.37
67.59
87.3
102.44
112.63
117.12
115.06
106.2
91.46
72.93
53.5
36.14
23.28
16.22
14.99
18.47
24.84
32.09
38.51
43.02
45.05
44.49
41.46
36.32
29.88
23.34
18.27
16.16
17.81
23.03
30.54
38.46
44.86
48.31
48.12
44.31
37.63
29.66
22.76
19.8
23.34
34.6
52.78
74.99
97.27
115.95
128.86
135.67
137.24
134.56
127.76
116.03
98.26
73.94
43.98
10.63
-23.06
-54.12
-80.26
-100.11
-112.93
-118.32
-116.07
-106.39
-90.31
-70.06
-48.73
-29.63
-15.32
-6.83
-3.52
-3.76
-6.1
-10.32
-17.95
-31.77
-54.52
-87.34
-128.71
-174.31
-217.93
-252.92
-273.78
-277.25
-262.82
-232.52
-190.44
-141.82
-92.22
-46.62
-8.73
19.41
37.44
46.26
47.42
42.62
33.47
21.41
7.9
-5.45
-16.77
-23.96
-24.94
-18.27
-3.85
16.77
40.92
65.86
89.87
112.52
133.67
151.99
164.01
164.82
150.21
119.29
75.76
27.1
-18.41
-54.84
-80.55
-97.86
-111.03
-123.8
-137.93
-152.99
-167.25
-178.61
-185.11
-185.11
-177.35
-161.01
-136.17
-104.13
-67.45
-29.67
5.39
34.42
55.26
67.32
71.36
69.1
62.68
54.15
45.31
37.66
32.34
30.05
30.86
34.18
39.12
44.93
51.37
58.67
66.82
74.94
80.99
82.47
77.68
66.87
52.62
38.89
29.24
25.19
25.55
27.04
25.81
19.08
6.02
-12.29
-33.57
-55.19
-74.6
-89.39
-97.38
-96.71
-86.37
-66.73
-39.67
-8.32
23.71
53.07
77.33
95.06
105.86
110.1
108.89
103.89
97.01
89.96
83.88
79.18
75.71
73.2
71.71
71.72
74.08
79.6
88.56
100.32
113.03
123.98
130.12
128.99
119.51
102.31
79.5
53.87
28.08
4.01
-17.43
-36.14
-52.42
-66.81
-79.87
-91.98
-103.14
-112.68
-119.19
-120.89
-116.31
-105.05
-88.13
-67.81
-46.83
-27.54
-11.23
1.95
12.59
21.32
28.32
33.2
35.3
34.23
30.22
24.2
17.58
11.69
7.41
4.97
4.09
4.34
5.52
7.69
11.06
15.58
20.63
24.96
27.11
25.99
21.4
14.22
6.05
-1.46
-7.45
-12.15
-16.81
-22.97
-31.84
-43.76
-58.08
-73.24
-87.13
-97.34
-101.44
-97.55
-84.83
-63.95
-37.15
-7.76
20.81
45.84
65.92
80.79
90.83
96.56
98.25
96.14
90.63
82.51
72.91
63.06
54.0
46.35
40.23
35.36
31.25
27.45
23.78
20.26
17.14
14.48
12.04
9.19
5.11
-0.85
-8.89
-18.65
-29.3
-39.89
-49.68
-58.29
-65.82
-72.71
-79.65
-87.16
-95.26
-103.1
-108.9
-110.38
-105.53
-93.44
-74.76
-51.6
-26.73
-2.74
18.67
36.77
51.44
62.78
70.79
75.42
76.83
75.52
72.26
67.9
63.18
58.67
54.86
52.25
51.39
52.68
56.13
61.21
66.97
72.35
76.49
78.92
79.57
78.64
76.43
73.22
69.1
63.74
56.32
45.58
30.19
9.57
-15.37
-41.69
-64.9
-80.06
-83.51
-74.17
-53.95
-26.91
2.28
29.91
53.95
73.92
89.96
101.87
108.73
109.19
102.29
88.22
68.77
47.41
28.95
18.65
20.86
37.27
65.5
98.94
128.4
145.1
143.76
124.3
91.47
52.72
15.36
-15.52
-37.97
-52.81
-62.78
-71.49
-82.53
-98.83
-121.98
-151.98
-187.25
-225.1
-262.19
-294.85
-319.36
-332.33
-331.38
-316.02
-288.15
-251.68
-211.34
-171.05
-132.68
-95.94
-59.25
-21.37
17.18
53.75
84.34
105.18
114.39
112.8
103.59
90.94
78.52
68.45
61.16
56.03
52.32
49.8
48.79
49.76
52.77
57.12
61.33
63.7
63.0
58.97
52.55
45.47
39.63
36.46
36.63
40.12
46.45
54.85
64.04
72.16
76.83
75.86
68.26
55.01
39.16
24.81
15.65
13.39
17.26
24.46
31.48
35.44
34.91
29.99
21.93
12.52
3.64
-3.1
-6.64
-6.76
-4.28
-0.9
1.31
0.62
-3.79
-11.49
-21.01
-30.42
-37.92
-42.36
-43.46
-41.8
-38.48
-34.81
-31.76
-29.84
-28.92
-28.53
-28.2
-27.74
-27.43
-27.95
-30.25
-35.12
-42.73
-52.12
-60.82
-65.13
-61.1
-46.11
-20.28
12.87
47.27
76.21
94.66
100.72
95.84
83.69
68.48
53.48
40.38
29.41
20.0
11.35
2.95
-5.45
-13.98
-22.8
-32.13
-42.14
-52.49
-62.09
-69.1
-71.49
-67.94
-58.63
-45.61
-32.17
-21.73
-16.63
-17.39
-22.76
-30.57
-38.67
-45.78
-51.76
-57.29
-63.36
-70.75
-79.82
-90.44
-101.96
-113.09
-121.79
-125.36
-121.01
-106.82
-82.69
-50.77
-15.09
19.59
49.2
71.4
85.75
93.33
95.73
94.47
90.68
85.21
78.8
72.16
65.83
60.06
54.85
50.09
45.75
42.08
39.48
38.34
38.77
40.47
42.83
45.05
46.34
46.08
43.83
39.38
32.76
24.22
14.24
3.5
-7.34
-17.64
-27.03
-35.37
-42.81
-49.72
-56.67
-64.29
-73.12
-83.14
-93.3
-101.33
-103.98
-98.04
-81.54
-54.86
-20.95
15.53
49.57
77.4
97.33
109.65
115.92
117.95
117.09
114.02
108.77
101.08
90.62
77.27
61.36
43.87
26.48
11.23
0.13
-5.55
-5.67
-1.31
5.44
12.07
16.19
16.09
11.04
1.4
-11.42
-25.38
-38.32
-48.58
-55.43
-59.15
-60.82
-61.78
-63.24
-65.92
-70.19
-76.22
-84.1
-93.82
-104.87
-115.91
-124.62
-128.07
-123.58
-109.69
-86.89
-57.61
-25.52
5.54
32.63
54.18
69.8
79.82
84.76
85.13
81.5
74.72
65.92
56.41
47.37
39.69
33.88
30.06
28.09
27.56
27.93
28.67
29.47
30.29
31.33
32.76
34.48
35.93
36.19
34.37
30.07
23.49
15.43
6.92
-1.19
-8.48
-15.04
-21.21
-27.47
-34.24
-41.87
-50.51
-59.86
-68.73
-74.97
-75.74
-68.4
-51.58
-26.02
5.32
38.17
68.3
92.77
110.56
122.23
129.07
132.2
132.1
128.8
122.37
113.57
103.81
94.83
88.05
84.03
82.49
82.71
84.15
86.76
90.83
96.56
103.44
110.26
115.38
117.24
114.84
107.76
96.17
80.56
61.75
40.82
19.06
-2.26
-22.13
-39.96
-55.59
-69.19
-81.29
-92.81
-104.97
-119.02
-135.55
-154.06
-172.75
-189.01
-200.12
-204.17
-200.39
-189.26
-172.16
-151.19
-129.02
-108.58
-92.67
-83.15
-80.45
-83.22
-88.8
-94.3
-97.44
-97.3
-94.26
-89.77
-85.74
-83.74
-84.26
-85.93
-85.2
-76.71
-54.79
-15.83
39.28
104.02
167.18
215.96
239.88
233.89
199.52
143.61
75.67
4.95
-61.47
-119.26
-166.49
-202.78
-228.66
-245.41
-255.16
-260.86
-265.71
-272.11
-280.52
-288.9
-292.97
-287.83
-269.93
-238.68
-196.63
-148.28
-98.04
-48.7
-1.19
44.45
87.56
126.11
157.15
178.07
187.97
188.15
181.47
171.25
160.0
149.07
138.69
128.74
119.19
110.35
102.73
96.68
92.26
89.11
86.62
84.06
80.84
76.58
71.16
64.63
57.17
49.01
40.41
31.62
22.81
14.05
5.15
-4.26
-14.7
-26.71
-40.36
-54.96
-68.74
-78.96
-82.49
-76.83
-61.11
-36.68
-6.81
24.28
52.72
76.05
93.51
105.58
113.27
117.34
118.13
115.68
110.18
102.23
92.89
83.41
74.88
68.0
62.91
59.41
57.1
55.64
54.87
54.79
55.38
56.46
57.55
57.89
56.66
53.21
47.28
39.0
28.82
17.25
4.68
-8.67
-22.69
-37.32
-52.47
-68.09
-84.22
-101.05
-118.48
-135.64
-150.47
-159.71
-159.71
-147.69
-123.05
-87.91
-46.6
-4.31
34.6
67.64
94.33
115.39
131.73
143.72
151.0
152.95
149.33
140.7
128.51
114.83
101.83
91.29
84.23
80.82
80.58
82.75
86.63
91.67
97.5
103.67
109.53
114.23
116.88
116.79
113.7
107.78
99.64
90.11
79.95
69.46
58.2
44.87
27.7
4.91
-24.59
-60.78
-102.54
-147.73
-193.66
-237.2
-275.11
-304.19
-321.82
-326.41
-318.02
-298.45
-270.86
-238.94
-205.9
-173.83
-143.57
-115.17
-88.51
-63.67
-40.93
-20.42
-1.82
15.57
32.28
48.15
62.04
72.23
77.26
76.88
72.39
66.29
61.24
59.11
60.29
63.84
68.06
71.31
72.72
72.37
71.13
70.14
70.17
71.17
72.21
71.82
68.58
61.62
50.73
36.3
19.04
-0.0
-19.28
-36.63
-49.41
-55.27
-53.08
-43.58
-29.42
-14.33
-1.91
5.53
7.47
4.84
-0.64
-7.38
-14.37
-21.3
-28.21
-35.11
-41.63
-47.03
-50.45
-51.28
-49.54
-45.84
-41.14
-36.39
-32.13
-28.46
-25.37
-23.04
-22.02
-22.84
-25.52
-29.08
-31.75
-31.71
-28.06
-21.37
-13.52
-6.82
-3.03
-2.77
-5.67
-10.89
-17.58
-24.85
-31.33
-34.87
-32.86
-23.18
-5.33
18.92
45.85
70.94
90.3
101.78
105.2
101.85
93.64
82.35
69.3
55.33
41.08
27.12
13.98
2.19
-7.8
-15.65
-21.08
-23.87
-23.86
-20.96
-15.26
-7.14
2.57
12.56
21.02
26.05
26.09
20.48
9.81
-4.1
-18.77
-31.89
-42.09
-49.34
-54.8
-60.23
-67.2
-76.45
-87.45
-98.48
-106.93
-109.93
-105.1
-91.24
-68.85
-40.13
-8.38
22.75
50.26
72.28
88.17
98.18
102.91
103.01
99.02
91.53
81.26
69.14
56.16
43.25
31.15
20.39
11.45
4.69
0.38
-1.5
-1.27
0.31
2.27
3.59
3.45
1.37
-2.75
-8.69
-16.03
-24.16
-32.44
-40.32
-47.42
-53.63
-59.21
-64.71
-70.85
-78.19
-86.72
-95.52
-102.62
-105.29
-100.89
-87.72
-65.83
-37.18
-5.1
26.73
55.28
78.71
96.37
108.37
115.14
117.02
114.4
107.89
98.37
86.99
74.8
62.58
50.64
39.05
27.96
17.93
9.93
5.08
4.11
6.78
11.71
16.55
18.64
15.93
7.65
-5.33
-20.86
-36.18
-48.84
-57.39
-61.68
-62.67
-61.95
-61.27
-62.23
-66.02
-73.14
-83.01
-93.69
-101.93
-103.97
-96.76
-79.17
-52.63
-20.76
11.86
41.09
64.36
80.93
91.44
97.04
98.77
97.32
93.11
86.6
78.38
69.21
59.84
50.9
42.86
35.98
30.43
26.3
23.67
22.45
22.43
23.17
24.08
24.51
24.01
22.35
19.61
16.12
12.26
8.32
4.37
0.36
-3.9
-8.51
-13.52
-18.88
-24.6
-30.9
-38.2
-47.0
-57.44
-68.95
-79.97
-88.13
-90.93
-86.55
-74.66
-56.56
-34.79
-12.34
8.27
25.5
38.77
48.21
54.16
56.92
56.75
53.99
49.21
43.17
36.72
30.65
25.56
21.9
19.92
19.85
21.67
25.26
30.16
35.69
41.04
45.41
48.22
49.25
48.68
46.96
44.6
41.9
38.84
35.04
30.02
23.44
15.31
6.09
-3.55
-12.91
-21.61
-29.75
-38.02
-47.49
-59.2
-73.53
-89.63
-105.25
-117.14
-122.03
-117.78
-104.13
-82.85
-57.06
-30.26
-5.4
15.59
31.84
43.27
50.33
53.72
54.29
52.84
49.99
46.22
41.9
37.52
33.61
30.84
29.67
30.27
32.41
35.58
39.09
42.34
44.85
46.25
46.31
44.83
41.68
36.81
30.3
22.34
13.29
3.58
-6.33
-16.12
-25.6
-34.72
-43.58
-52.34
-61.29
-70.87
-81.54
-93.49
-106.22
-118.22
-127.05
-129.89
-124.52
-110.12
-87.73
-59.92
-30.05
-1.27
24.13
44.84
60.41
70.86
76.49
77.77
75.45
70.55
64.2
57.49
51.19
45.73
41.24
37.68
35.1
33.7
33.8
35.67
39.32
44.34
49.9
54.88
58.18
59.0
57.02
52.49
46.06
38.55
30.72
23.06
15.71
8.49
1.15
-6.55
-14.59
-22.74
-30.62
-37.94
-44.68
-51.24
-58.39
-67.05
-77.81
-90.43
-103.46
-114.32
-119.77
-116.81
-103.68
-80.45
-49.14
-13.42
22.33
53.73
77.29
91.03
94.72
89.88
79.2
65.81
52.38
40.49
30.65
22.65
16.23
11.5
8.88
8.8
11.25
15.6
20.9
26.16
30.73
34.36
37.04
38.68
39.05
37.81
34.73
29.89
23.66
16.57
9.1
1.46
-6.33
-14.38
-22.76
-31.4
-40.1
-48.64
-56.93
-65.14
-73.74
-83.39
-94.71
-107.87
-122.2
-136.19
-147.8
-155.18
-157.36
-154.65
-148.21
-139.48
-129.24
-117.4
-103.19
-85.89
-65.57
-43.35
-21.16
-1.2
14.61
25.11
29.99
29.83
26.09
20.85
16.46
15.0
17.71
24.68
34.79
46.05
56.18
63.18
65.91
64.36
59.71
53.94
49.16
46.95
47.77
50.93
54.84
57.73
58.17
55.55
50.06
42.46
33.7
24.53
15.37
6.25
-3.08
-12.86
-23.11
-33.35
-42.5
-48.97
-50.98
-47.12
-36.91
-21.03
-1.31
19.81
39.91
57.06
70.13
78.75
83.14
83.88
81.83
77.89
72.88
67.4
61.68
55.78
49.71
43.72
38.32
34.21
31.94
31.75
33.36
36.03
38.83
40.83
41.34
40.05
37.06
32.65
27.17
20.81
13.55
5.2
-4.39
-15.17
-26.73
-38.4
-49.38
-59.03
-67.07
-73.65
-79.39
-85.23
-92.09
-100.46
-109.97
-119.1
-125.32
-125.67
-117.8
-100.8
-75.72
-45.29
-13.16
17.14
43.0
63.05
77.01
85.26
88.52
87.65
83.58
77.32
69.93
62.3
55.07
48.57
42.89
38.06
34.21
31.69
30.92
32.17
35.32
39.68
44.19
47.59
48.97
47.95
44.81
40.24
34.97
29.44
23.7
17.4
10.18
1.85
-7.44
-17.18
-26.71
-35.39
-42.89
-49.23
-54.86
-60.54
-67.24
-75.66
-85.97
-97.29
-107.56
-113.82
-113.05
-103.19
-84.02
-57.44
-26.93
3.5
30.43
51.8
66.98
76.41
80.97
81.59
79.0
73.9
66.98
58.98
50.6
42.42
34.82
28.13
22.69
18.94
17.31
18.06
21.08
25.75
31.05
35.78
38.94
39.91
38.65
35.53
31.11
