-5.07
-3.51
-0.17
4.27
9.51
15.61
22.75
30.87
39.35
46.87
51.64
51.93
46.84
36.73
23.19
8.49
-5.29
-16.96
-26.48
-34.67
-42.74
-51.68
-62.09
-74.09
-87.31
-100.75
-112.57
-120.17
-120.61
-111.61
-92.53
-64.86
-32.0
1.79
32.63
57.92
76.63
88.86
95.19
96.21
92.27
83.67
70.94
55.11
37.85
21.37
7.99
-0.32
-2.59
0.83
8.22
16.9
24.0
27.38
26.26
21.39
14.62
8.09
3.3
0.6
-0.83
-2.42
-5.55
-10.86
-18.21
-26.91
-36.26
-45.8
-55.48
-65.45
-75.97
-87.29
-99.55
-112.54
-125.34
-136.08
-142.12
-140.7
-129.86
-109.32
-80.73
-47.34
-12.99
18.84
45.73
66.5
80.99
89.67
93.3
92.85
89.33
83.77
77.06
69.91
62.73
55.78
49.27
43.48
38.82
35.76
34.59
35.31
37.57
40.66
43.77
46.11
47.07
46.28
43.59
39.07
32.93
25.52
17.23
8.4
-0.69
-9.91
-19.19
-28.46
-37.67
-46.79
-56.01
-65.75
-76.49
-88.42
-100.94
-112.33
-120.0
-121.17
-113.83
-97.6
-73.97
-45.94
-17.02
9.69
32.2
49.78
62.53
70.96
75.54
76.61
74.5
69.76
63.17
55.8
48.72
42.76
38.42
35.84
34.92
35.48
37.42
40.66
45.05
50.29
55.85
60.93
64.67
66.22
64.98
60.72
53.64
44.33
33.68
22.61
11.82
1.72
-7.66
-16.56
-25.45
-34.89
-45.46
-57.49
-70.76
-84.09
-95.33
-101.71
-100.65
-90.71
-72.19
-47.18
-18.93
9.12
34.24
54.8
70.27
80.77
86.75
88.69
87.09
82.51
75.64
67.29
58.33
49.57
41.65
34.97
29.73
25.94
23.57
22.65
23.15
24.98
27.82
31.09
34.01
35.71
35.5
33.0
28.21
21.51
13.53
4.93
-3.73
-12.12
-20.24
-28.36
-36.96
-46.62
-57.78
-70.52
-84.19
-97.24
-107.26
-111.5
-107.67
-94.73
-73.47
-46.29
-16.56
12.3
37.72
58.27
73.59
83.9
89.62
91.14
88.87
83.41
75.56
66.42
57.06
48.45
41.19
35.57
31.58
29.08
27.9
27.86
28.75
30.32
32.18
33.89
34.92
34.83
33.25
30.0
25.1
18.83
11.65
4.07
-3.5
-10.93
-18.34
-26.11
-34.7
-44.58
-56.07
-69.26
-83.69
-98.19
-110.7
-118.6
-119.34
-111.29
-94.41
-70.43
-42.38
-13.75
12.51
34.52
51.58
63.83
71.76
75.86
76.52
74.17
69.35
62.85
55.64
48.6
42.46
37.63
34.28
32.4
31.9
32.73
34.73
37.63
41.0
44.27
46.84
48.15
47.77
45.45
41.01
34.39
25.73
15.34
3.76
-8.3
-20.1
-31.07
-41.01
-50.12
-59.01
-68.55
-79.4
-91.6
-104.14
-114.93
-121.18
-120.2
-110.5
-92.29
-67.54
-39.42
-11.24
14.37
35.87
52.7
64.87
72.65
76.35
76.44
73.53
68.41
61.91
54.73
47.45
40.46
34.14
28.83
24.86
22.5
21.83
22.73
24.88
27.74
30.7
33.14
34.51
34.36
32.41
28.64
23.26
16.72
9.65
2.73
-3.53
-8.93
-13.66
-18.27
-23.57
-30.46
-39.67
-51.43
-65.08
-78.91
-90.23
-96.03
-93.85
-82.65
-63.34
-38.51
-11.63
14.01
36.1
53.56
66.38
75.07
80.27
82.45
81.95
79.05
73.98
66.99
58.38
48.64
38.44
28.66
20.23
13.92
10.14
8.82
9.58
11.8
14.83
18.02
20.71
22.22
21.88
19.14
13.8
6.11
-3.25
-13.31
-23.23
-32.51
-41.05
-49.16
-57.29
-65.93
-75.53
-86.46
-98.8
-112.03
-124.64
-134.14
-137.55
-132.33
-117.45
-93.96
-64.79
-33.85
-4.82
19.73
38.73
52.17
60.64
64.79
65.12
62.09
56.25
48.32
39.19
29.8
21.0
13.45
7.57
3.55
1.4
0.97
2.04
4.23
7.11
10.15
12.79
14.55
15.04
14.0
11.29
6.88
0.85
-6.52
-14.82
-23.5
-32.03
-40.05
-47.42
-54.27
-60.99
-68.07
-76.09
-85.38
-95.77
-106.19
-114.65
-118.47
-115.11
-102.99
-82.29
-55.03
-24.56
5.46
32.02
53.37
69.02
79.29
84.81
86.15
83.77
78.14
69.97
60.18
49.82
39.95
31.41
24.72
20.08
17.45
16.62
17.24
18.96
21.42
24.29
27.13
29.46
30.71
30.34
27.94
23.37
16.79
8.67
-0.4
-9.79
-18.99
-27.7
-35.83
-43.52
-51.11
-59.13
-68.13
-78.42
-89.61
-100.37
-108.43
-111.11
-106.13
-92.53
-71.1
-44.24
-15.28
12.53
36.76
56.11
70.24
79.45
84.27
85.25
82.93
77.88
70.75
62.24
53.08
44.02
35.72
28.73
23.43
20.01
18.48
18.63
20.07
22.31
24.79
26.99
28.44
28.77
27.71
25.09
20.88
15.19
8.27
0.5
-7.71
-15.99
-24.09
-31.92
-39.54
-47.18
-55.2
-64.01
-73.87
-84.6
-95.21
-103.87
-108.12
-105.62
-94.91
-76.03
-50.63
-21.56
7.93
35.02
57.84
75.47
87.8
95.07
97.8
96.62
92.32
85.8
77.99
69.7
61.56
54.02
47.35
41.75
37.26
33.78
31.05
28.73
26.46
23.98
21.12
17.9
14.38
10.66
6.76
2.59
-2.07
-7.47
-13.82
-21.13
-29.19
-37.59
-45.83
-53.54
-60.59
-67.15
-73.67
-80.76
-88.94
-98.3
-108.24
-117.24
-123.02
-123.13
-115.64
-99.94
-77.05
-49.4
-20.22
7.4
31.14
49.75
62.97
71.1
74.71
74.37
70.71
64.47
56.5
47.79
39.25
31.64
25.42
20.76
17.6
15.85
15.38
16.13
17.99
20.74
24.0
27.23
29.76
30.95
30.27
27.44
22.5
15.8
7.9
-0.54
-9.02
-17.32
-25.53
-34.01
-43.19
-53.52
-65.25
-78.35
-92.23
-105.55
-116.2
-121.61
-119.44
-108.34
-88.6
-62.24
-32.45
-2.75
23.91
45.64
61.75
72.39
78.21
79.98
78.45
74.36
68.42
61.27
53.58
45.95
38.91
32.89
28.24
25.18
23.77
23.95
25.5
27.99
30.88
33.51
35.25
35.63
34.33
31.3
26.63
20.48
13.04
4.57
-4.57
-13.93
-22.99
-31.33
-38.8
-45.63
-52.37
-59.81
-68.7
-79.44
-91.64
-103.99
-114.19
-119.43
-117.2
-106.07
-86.36
-60.08
-30.49
-1.12
25.09
46.37
62.1
72.57
78.47
80.59
79.62
76.14
70.73
64.02
56.67
49.35
42.66
37.06
32.87
30.27
29.32
29.95
31.86
34.51
37.21
39.14
39.69
38.57
35.88
31.95
27.17
21.8
15.86
9.23
1.83
-6.28
-14.87
-23.57
-32.06
-40.13
-47.84
-55.56
-63.84
-73.31
-84.29
-96.41
-108.3
-117.65
-121.69
-118.02
-105.44
-84.51
-57.51
-27.74
1.35
27.0
47.61
62.68
72.51
77.74
79.09
77.23
72.79
66.42
58.79
50.55
42.32
34.7
28.21
23.34
20.39
19.5
20.46
22.77
25.71
28.45
30.3
30.79
29.71
27.0
22.66
16.75
9.43
1.05
-7.83
-16.61
-24.81
-32.25
-39.1
-45.75
-52.68
-60.31
-69.01
-78.94
-89.96
-101.22
-110.99
-116.82
-116.09
-106.93
-89.04
-63.97
-34.75
-5.01
22.06
44.37
61.08
72.27
78.57
80.71
79.43
75.47
69.64
62.77
55.58
48.61
42.26
36.78
32.45
29.56
28.4
29.08
31.43
34.91
38.72
41.98
43.95
44.19
42.62
39.42
34.89
29.31
22.86
15.61
7.65
-0.81
-9.43
-17.82
-25.65
-32.82
-39.51
-46.15
-53.35
-61.69
-71.52
-82.57
-93.73
-102.97
-107.66
-105.29
-94.32
-74.89
-48.96
-19.78
9.06
34.59
55.02
69.83
79.36
84.34
85.49
83.46
78.85
72.35
64.68
56.61
48.81
41.82
36.03
31.75
29.17
28.39
29.3
31.59
34.69
37.85
40.27
41.29
40.53
37.94
33.77
28.4
22.19
15.33
7.84
-0.3
-9.03
-18.13
-27.19
-35.75
-43.47
-50.24
-56.3
-62.25
-68.87
-76.85
-86.33
-96.56
-105.65
-110.89
-109.44
-99.36
-80.37
-54.17
-23.97
6.44
33.81
56.07
72.44
83.11
88.66
89.75
86.97
80.98
72.59
62.8
52.71
43.36
35.67
30.33
27.73
27.98
30.83
35.82
42.31
49.73
57.55
65.22
72.21
77.89
81.6
82.84
81.45
77.64
71.97
65.12
57.69
50.03
42.19
33.89
24.63
13.73
0.47
-15.82
-35.48
-58.2
-82.68
-106.52
-126.56
-139.54
-143.1
-136.56
-121.19
-99.85
-76.14
-53.31
-33.59
-17.91
-6.19
2.14
7.68
10.87
11.94
11.16
8.89
5.65
1.98
-1.65
-4.92
-7.56
-9.27
-9.71
-8.5
-5.47
-0.82
4.79
10.44
15.24
18.55
20.17
20.24
19.01
16.61
12.92
7.67
0.63
-8.1
-17.97
-28.05
-37.36
-45.29
-51.83
-57.69
-64.04
-72.06
-82.3
-94.21
-106.02
-114.95
-117.95
-112.63
-98.09
-75.33
-47.1
-17.05
11.26
35.35
54.24
68.27
78.6
86.52
92.88
97.68
100.09
98.63
91.82
78.83
60.14
37.72
14.6
-5.86
-20.98
-29.48
-31.55
-28.53
-22.26
-14.51
-6.67
0.23
5.46
8.54
9.28
7.79
4.53
0.09
-4.93
-10.12
-15.34
-20.63
-26.1
-31.81
-37.7
-43.74
-50.02
-56.79
-64.37
-72.94
-82.24
-91.32
-98.55
-101.81
-98.95
-88.34
-69.42
-43.11
-11.72
21.47
52.9
79.58
99.67
112.71
119.32
120.8
118.54
113.68
107.06
99.33
91.05
82.86
75.35
68.96
63.89
59.92
56.62
53.49
50.32
47.28
44.9
43.76
44.07
45.44
46.97
47.59
46.45
43.17
37.8
30.66
22.07
12.34
1.8
-9.13
-19.97
-30.33
-40.15
-49.78
-59.92
-71.43
-84.8
-99.73
-114.78
-127.39
-134.42
-133.1
-122.03
-101.81
-74.98
-45.2
-16.09
9.74
31.08
47.8
60.28
68.76
73.25
73.64
70.07
63.13
53.83
43.36
32.81
23.06
14.72
8.28
4.14
2.59
3.7
7.2
12.41
18.28
23.62
27.37
28.83
27.82
24.62
19.84
14.15
8.08
1.99
-3.94
-9.66
-15.18
-20.53
-25.86
-31.38
-37.47
-44.61
-53.28
-63.77
-75.81
-88.27
-99.1
-105.69
-105.61
-97.42
-81.35
-59.23
-33.98
-8.73
14.01
32.72
46.86
56.52
62.06
63.94
62.67
58.9
53.49
47.33
41.24
35.87
31.58
28.47
26.58
25.94
26.56
28.42
31.25
34.52
37.45
39.24
39.32
37.58
34.27
29.95
25.07
19.89
14.32
8.1
0.99
-7.09
-15.92
-25.13
-34.28
-43.1
-51.55
-59.83
-68.35
-77.63
-88.03
-99.53
-111.35
-121.82
-128.58
-129.09
-121.56
-105.66
-82.8
-55.87
-28.36
-3.43
16.78
31.43
40.63
45.11
45.67
43.12
38.19
31.69
24.39
17.04
10.23
4.37
-0.28
-3.42
-4.73
-3.87
-0.68
4.57
11.16
18.04
24.04
28.35
30.56
30.73
29.15
26.12
21.69
15.79
8.31
-0.71
-10.88
-21.56
-32.01
-41.54
-49.7
-56.38
-61.83
-66.62
-71.43
-76.69
-82.16
-86.72
-88.44
-85.09
-74.93
-57.44
-33.6
-5.7
23.31
50.52
73.67
91.35
103.0
108.71
109.07
105.01
97.67
88.18
77.51
66.39
55.28
44.5
34.33
25.18
17.47
11.64
7.99
6.66
7.64
10.78
15.77
22.01
28.62
34.5
38.73
40.83
41.07
40.23
39.19
38.34
37.36
35.44
31.68
25.65
17.42
7.34
-4.54
-18.62
-35.6
-55.62
-77.62
-98.96
-115.88
-124.54
-122.29
-108.62
-85.31
-55.9
-24.57
4.95
30.19
50.05
64.59
74.41
80.25
82.61
81.88
78.37
72.64
65.47
57.81
50.58
44.44
39.72
36.43
34.41
33.41
33.15
33.29
33.41
33.03
31.71
29.1
25.06
19.62
12.93
5.22
-3.17
-11.86
-20.37
-28.28
-35.35
-41.61
-47.34
-53.04
-59.3
-66.67
-75.55
-85.9
-97.02
-107.33
-114.48
-115.86
-109.46
-94.59
-72.37
-45.39
-17.12
9.19
31.21
47.85
59.1
65.59
68.15
67.54
64.36
59.14
52.4
44.73
36.74
29.09
22.41
17.24
14.01
12.86
13.68
16.06
19.39
23.03
26.34
28.89
30.35
30.49
29.13
26.12
21.42
15.19
7.79
-0.19
-8.23
-15.89
-23.06
-29.9
-36.73
-44.02
-52.2
-61.68
-72.61
-84.65
-96.67
-106.61
-111.83
-109.87
-99.27
-80.37
-55.27
-27.29
0.04
23.93
42.81
56.26
64.68
68.72
69.09
66.42
61.35
54.57
46.81
38.82
31.26
24.78
19.88
16.85
15.76
16.34
18.14
20.61
23.22
25.55
27.27
28.03
27.49
25.23
20.97
14.59
6.37
-3.06
-12.87
-22.25
-30.67
-38.06
-44.78
-51.5
-58.99
-67.89
-78.53
-90.6
-102.92
-113.43
-119.42
-118.2
-108.08
-88.96
-62.72
-32.64
-2.52
24.37
46.01
61.76
71.93
77.3
78.63
76.55
71.61
64.41
55.73
46.44
37.42
29.47
23.18
18.91
16.81
16.75
18.41
21.25
24.63
27.91
30.53
32.13
32.52
31.67
29.51
25.94
20.84
14.16
6.08
-2.92
-12.24
-21.26
-29.63
-37.33
-44.72
-52.38
-61.01
-71.12
-82.8
-95.42
-107.36
-116.19
-119.05
-113.57
-98.67
-75.16
-45.67
-13.92
16.24
41.88
61.42
74.66
82.27
85.29
84.72
81.36
75.9
68.98
61.27
53.45
46.18
39.97
35.19
32.07
30.68
30.93
32.55
35.03
37.68
39.76
40.62
39.87
37.45
33.53
28.46
22.55
15.97
8.81
1.05
-7.23
-15.87
-24.61
-33.13
-41.22
-48.84
-56.25
-63.93
-72.53
-82.53
-93.86
-105.5
-115.36
-120.62
-118.55
-107.46
-87.5
-60.77
-30.8
-1.43
24.25
44.47
58.9
68.07
72.79
73.83
71.71
66.95
60.16
52.12
43.7
35.69
28.77
23.43
19.98
18.51
18.92
20.93
24.1
27.9
31.82
35.31
37.81
38.74
37.53
33.75
27.31
18.55
8.23
-2.7
-13.32
-23.02
-31.6
-39.3
-46.59
-54.14
-62.65
-72.68
-84.32
-96.82
-108.33
-116.04
-116.98
-108.96
-91.57
-66.49
-36.96
-6.81
20.71
43.62
61.24
73.74
81.59
85.26
85.1
81.58
75.39
67.38
58.49
49.53
41.22
34.12
28.65
25.1
23.5
23.66
25.19
27.57
30.31
32.94
35.0
36.04
35.6
33.27
28.82
22.34
14.21
5.04
-4.51
-13.9
-22.8
-31.13
-39.08
-46.98
-55.35
-64.73
-75.56
-87.81
-100.64
-112.11
-119.47
-119.81
-111.13
-93.11
-67.47
-37.49
-7.02
20.61
43.28
60.24
71.72
78.38
80.92
79.95
76.1
70.06
62.64
54.7
47.06
40.4
35.2
31.74
30.06
30.01
31.31
33.54
36.25
38.99
41.29
42.73
42.91
41.53
38.33
33.2
26.25
17.78
8.28
-1.66
-11.48
-20.78
-29.41
-37.5
-45.35
-53.54
-62.68
-73.31
-85.46
-98.34
-110.05
-117.87
-118.88
-111.0
-93.83
-69.02
-39.83
-10.1
16.81
38.8
55.17
66.22
72.61
74.95
73.72
69.35
62.46
53.94
44.81
36.07
28.51
22.56
18.39
15.97
15.22
16.03
18.26
21.62
25.69
29.86
33.36
35.45
35.46
32.99
27.91
20.49
11.33
1.29
-8.77
-18.15
-26.52
-34.03
-41.22
-48.84
-57.67
-68.24
-80.44
-93.2
-104.4
-111.25
-110.95
-101.72
-83.51
-58.18
-29.04
0.26
26.59
48.05
63.95
74.46
80.1
81.45
79.05
73.56
65.8
56.72
47.34
38.61
31.21
25.59
21.85
19.86
19.3
19.83
21.12
22.94
25.01
27.01
28.43
28.68
27.2
23.62
17.93
10.5
2.04
-6.64
-14.85
-22.24
-28.89
-35.24
-42.03
-50.06
-59.99
-72.09
-85.93
-100.16
-112.52
-120.09
-120.14
-110.98
-92.63
-67.04
-37.47
-7.61
19.48
41.9
59.0
70.95
78.25
81.42
80.96
77.46
71.76
64.84
57.7
51.14
45.66
41.44
38.5
36.83
36.44
37.41
39.72
43.13
47.14
51.02
53.96
55.28
54.51
51.49
46.42
39.79
32.33
24.84
17.98
12.04
6.86
1.87
-3.65
-10.42
-18.9
-29.23
-41.07
-53.57
-65.26
-74.16
-78.16
-75.63
-65.97
-50.0
-29.84
-8.31
11.81
28.52
40.85
48.79
52.89
53.87
52.36
48.91
44.06
38.54
33.17
28.71
25.55
23.57
22.24
20.97
19.4
17.66
16.2
15.45
15.41
15.5
14.71
12.08
7.14
0.13
-8.13
-16.61
-24.54
-31.62
-38.14
-44.73
-52.25
-61.4
-72.6
-85.65
-99.42
-111.77
-119.87
-120.91
-113.06
-96.22
-72.26
-44.5
-16.67
8.07
27.8
41.89
50.62
54.63
54.58
51.15
45.07
37.32
29.04
21.34
15.03
10.48
7.59
6.04
5.48
5.77
6.99
9.22
12.34
15.81
18.67
19.79
18.26
13.68
6.38
-2.72
-12.42
-21.6
-29.59
-36.34
-42.37
-48.6
-55.98
-65.11
-75.82
-86.84
-95.93
-100.28
-97.44
-86.16
-66.99
-42.18
-15.05
11.1
33.75
51.59
64.4
72.54
76.5
76.72
73.64
67.83
60.21
51.85
43.78
36.77
31.05
26.51
22.77
19.5
16.69
14.6
13.61
13.97
15.43
17.23
18.32
17.64
14.59
9.24
2.31
-5.13
-12.1
-18.07
-23.12
-27.98
-33.72
-41.46
-51.95
-65.08
-79.65
-93.2
-102.56
-104.61
-97.39
-80.79
-56.73
-28.57
-0.08
25.58
46.59
62.35
73.11
79.41
81.68
80.31
75.79
68.88
60.66
52.23
44.5
37.92
32.43
27.78
23.76
20.43
18.2
17.56
18.74
21.42
24.7
27.24
27.73
25.26
19.7
11.69
2.41
-6.88
-15.26
-22.45
-28.84
-35.31
-42.89
-52.42
-64.16
-77.53
-90.91
-101.81
-107.33
-104.97
-93.53
-73.62
-47.6
-18.98
8.66
32.51
51.06
64.03
71.92
75.44
75.25
71.86
65.8
57.78
48.67
39.41
30.75
23.09
16.58
11.2
7.04
4.37
3.57
4.9
8.19
12.79
17.57
21.21
22.61
21.12
16.7
9.95
1.82
-6.67
-14.73
-22.0
-28.65
-35.3
-42.85
-52.06
-63.19
-75.61
-87.55
-96.35
-99.14
-93.68
-79.29
-57.16
-30.11
-1.74
24.64
46.74
63.52
75.01
81.71
84.26
83.19
79.01
72.37
64.1
55.14
46.38
38.43
31.59
25.85
21.08
17.24
14.44
12.92
12.91
14.42
17.02
19.94
22.09
22.45
20.32
15.59
8.74
0.61
-7.82
-15.83
-23.07
-29.67
-36.06
-42.82
-50.56
-59.77
-70.45
-81.95
-92.72
-100.39
-102.3
-96.33
-81.72
-59.51
-32.38
-3.88
22.58
44.57
60.93
71.67
77.44
79.03
77.09
72.15
64.73
55.56
45.52
35.59
26.62
19.08
13.06
8.43
4.96
2.59
1.4
1.57
3.12
5.74
8.83
11.53
13.01
12.68
10.34
6.25
0.92
-4.95
-10.77
-16.2
-21.23
-26.13
-31.42
-37.71
-45.56
-55.25
-66.56
-78.5
-89.2
-96.15
-96.85
-89.59
-74.17
-52.05
-26.03
0.66
25.23
45.8
61.59
72.56
79.06
81.53
80.45
76.39
70.14
62.55
54.54
46.9
40.22
34.81
30.77
28.07
26.6
26.37
27.44
29.94
33.88
38.97
44.56
49.7
53.35
54.75
53.69
50.55
46.21
41.75
38.03
35.36
33.39
31.06
26.92
19.5
7.8
-8.25
-27.48
-47.55
-65.32
-77.58
-81.94
-77.52
-65.22
-47.39
-27.11
-7.32
9.79
22.97
31.72
35.97
35.86
31.61
23.72
13.05
0.77
-11.78
-23.45
-33.4
-41.27
-47.08
-51.05
-53.36
-54.05
-52.98
-49.94
-44.97
-38.57
-31.75
-25.91
-22.36
-21.96
-24.83
-30.32
-37.26
-44.38
-50.73
-56.01
-60.55
-65.23
-71.1
-78.92
-88.72
-99.41
-108.85
-114.21
-112.77
-102.85
-84.47
-59.41
-30.74
-1.86
24.41
46.28
63.08
74.85
81.87
84.47
83.0
77.98
70.29
61.08
51.51
42.45
34.28
26.92
20.07
13.56
7.65
2.95
0.19
-0.21
1.47
4.21
6.53
7.0
4.72
-0.35
-7.52
-15.59
-23.38
-30.06
-35.35
-39.51
-43.2
-47.33
-52.77
-60.12
-69.27
-79.1
-87.5
-91.73
-89.29
-78.77
-60.5
-36.52
-9.95
15.93
38.56
56.45
69.17
76.93
80.19
79.45
75.31
68.57
60.16
51.09
42.16
33.86
26.31
19.43
13.23
7.92
4.0
1.98
2.14
4.2
7.33
10.27
11.8
11.11
8.01
2.95
-3.24
-9.7
-15.86
-21.59
-27.29
-33.71
-41.72
-52.02
-64.67
-78.74
-92.13
-101.96
-105.17
-99.57
-84.67
-61.96
-34.53
-6.1
19.96
41.42
57.32
67.73
73.18
74.38
71.99
66.76
59.56
51.33
42.89
34.79
27.27
20.33
14.03
8.65
4.71
2.74
2.95
4.96
7.81
10.16
10.87
9.32
5.58
0.28
-5.84
-12.17
-18.57
-25.26
-32.76
-41.62
-52.27
-64.61
-77.76
-89.93
-98.53
-100.77
-94.57
-79.34
-56.41
-28.73
-0.01
26.28
47.75
63.34
73.07
77.63
77.94
74.93
69.5
62.5
54.75
46.82
39.11
31.77
24.94
18.82
13.8
10.4
8.97
9.57
11.73
14.49
16.65
17.17
15.41
11.4
5.68
-0.93
-7.68
-14.19
-20.57
-27.42
-35.58
-45.81
-58.32
-72.27
-85.64
-95.52
-98.8
-93.3
-78.51
-55.94
-28.74
-0.7
24.79
45.42
60.21
69.25
73.19
72.94
69.39
63.43
55.91
47.61
39.13
30.88
23.14
16.18
10.36
6.16
4.0
4.06
5.97
8.93
11.79
13.46
13.24
10.92
6.8
1.48
-4.53
-10.95
-17.85
-25.69
-35.12
-46.71
-60.52
-75.6
-89.88
-100.41
-104.04
-98.48
-83.18
-59.65
-31.08
-1.41
25.77
48.0
64.17
74.33
79.17
79.58
76.47
70.79
63.54
55.66
47.94
40.82
34.42
28.65
23.47
19.12
16.1
14.92
15.82
18.43
21.77
24.43
25.08
22.9
17.78
10.33
1.61
-7.35
-15.9
-23.95
-31.96
-40.82
-51.49
-64.49
-79.43
-94.67
-107.41
-114.29
-112.43
-100.41
-79.0
-50.98
-20.43
8.56
32.82
50.7
61.95
67.24
67.62
64.08
57.51
48.66
38.24
26.91
15.23
3.71
-7.18
-16.98
-25.23
-31.54
-35.74
-38.09
-39.27
-40.33
-42.46
-46.66
-53.49
-62.99
-74.68
-87.83
-101.63
-115.48
-129.26
-143.38
-158.75
-176.13
-195.33
-214.44
-229.65
-236.15
-229.58
-207.66
-170.93
-122.38
-66.28
-6.88
52.17
107.65
156.34
195.05
221.31
234.34
235.66
228.65
217.27
204.64
192.38
180.77
169.55
158.61
148.12
138.2
128.68
119.1
109.25
99.62
91.43
86.14
84.59
86.49
90.32
93.89
95.02
92.2
84.89
73.45
58.89
42.44
25.23
7.97
-9.27
-26.93
-45.76
-66.31
-88.31
-110.24
-129.32
-141.98
-144.83
-135.76
-114.82
-84.32
-48.41
-11.81
21.36
48.44
68.4
81.48
88.51
90.42
88.11
82.5
74.66
65.74
56.8
48.52
41.09
34.38
28.22
22.7
18.3
15.76
15.68
18.18
22.61
27.56
31.3
32.21
29.34
22.67
13.08
2.1
-8.61
-17.64
-24.22
-28.39
-30.95
-33.24
-36.86
-43.06
-52.25
-63.45
-74.36
-81.72
-82.28
-74.01
-56.83
-32.75
-5.23
22.0
45.91
64.78
78.14
86.21
89.44
88.22
82.97
74.42
63.63
51.91
40.45
30.04
20.97
13.17
6.44
0.71
-3.95
-7.39
-9.51
-10.31
-10.0
-8.86
-7.21
-5.41
-3.82
-2.78
-2.51
-3.12
-4.6
-6.82
-9.71
-13.14
-16.97
-20.92
-24.71
-28.18
-31.59
-35.54
-40.72
-47.3
-54.38
-59.9
-61.21
-56.01
-43.43
-24.41
-1.46
22.19
43.59
60.84
73.17
80.71
84.0
83.58
79.88
73.3
64.41
53.95
42.91
32.34
23.2
16.14
11.5
9.18
8.78
9.79
11.64
13.9
16.29
18.62
20.77
22.53
23.49
23.08
20.74
16.07
9.11
0.36
-9.33
-19.07
-28.19
-36.46
-44.06
-51.41
-59.09
-67.59
-77.28
-88.12
-99.38
-109.37
-115.59
-115.27
-106.31
-88.22
-62.53
-32.46
-1.94
25.52
47.71
63.96
74.69
80.83
83.35
82.94
80.12
75.34
69.1
61.93
54.38
46.97
40.17
34.36
29.84
26.75
25.09
24.68
25.16
26.06
26.84
26.93
25.83
23.13
18.61
12.29
4.45
-4.41
-13.63
-22.6
-30.87
-38.27
-44.96
-51.31
-57.86
-65.14
-73.59
-83.34
-93.96
-104.22
-112.06
-114.93
-110.5
-97.57
-76.64
-49.94
-20.84
7.16
31.31
50.12
63.28
71.27
74.8
74.6
71.27
65.46
57.88
49.34
40.63
32.49
25.49
20.07
16.47
14.75
14.73
16.03
18.13
20.52
22.79
24.62
25.76
25.95
24.85
22.15
17.7
11.63
4.33
-3.64
-11.75
-19.68
-27.41
-35.11
-43.09
-51.71
-61.26
-72.0
-83.92
-96.44
-108.12
-116.68
-119.44
-114.16
-99.92
-77.65
-50.0
-20.55
7.26
30.96
49.4
62.5
70.75
74.75
75.05
72.17
66.74
59.53
51.37
43.05
35.21
28.34
22.8
18.89
16.78
16.46
17.72
20.08
22.92
25.59
27.55
28.45
28.14
26.59
23.78
19.7
14.36
7.85
0.39
-7.63
-15.78
-23.7
-31.2
-38.34
-45.42
-52.89
-61.29
-71.03
-82.09
-93.73
-104.27
-111.34
-112.36
-105.49
-90.3
-68.09
-41.55
-14.01
11.53
33.01
49.5
60.97
67.87
70.83
70.49
67.53
62.63
56.49
49.75
42.88
36.33
30.45
25.61
22.19
20.49
20.58
22.24
24.9
27.85
30.37
31.92
32.29
31.48
29.57
26.65
22.71
17.7
11.7
4.91
-2.28
-9.47
-16.37
-22.84
-29.0
-35.14
-41.69
-49.21
-58.15
-68.69
-80.27
-91.43
-99.82
-102.73
-97.98
-84.69
-63.8
-37.89
-10.35
15.61
37.74
55.05
67.54
75.69
79.98
80.72
78.17
72.72
65.06
56.08
46.8
38.11
30.67
24.86
20.89
18.74
18.25
19.12
20.96
23.26
25.49
27.11
27.6
26.46
23.34
18.09
10.87
2.18
-7.27
-16.74
-25.64
-33.71
-41.07
-48.11
-55.39
-63.6
-73.35
-84.91
-97.86
-110.74
-121.08
-125.84
-122.36
-109.32
-87.36
-59.05
-28.11
1.7
27.52
47.82
62.3
71.4
75.85
76.31
73.43
67.91
60.5
51.99
43.08
34.35
26.26
19.24
13.72
10.09
8.57
9.08
11.12
13.94
16.7
18.78
19.83
19.78
18.68
16.53
13.21
8.56
2.52
-4.69
-12.59
-20.53
-27.86
-34.11
-38.99
-42.39
-44.34
-45.02
-44.84
-44.25
-43.4
-41.71
-37.6
-28.85
-13.37
9.67
39.06
71.53
102.66
128.2
145.28
153.03
152.38
145.24
133.68
119.32
103.21
86.01
68.26
50.57
33.57
17.86
3.84
-8.32
-18.56
-26.84
-33.03
-36.98
-38.61
-38.12
-36.05
-33.22
-30.51
-28.7
-28.26
-29.43
-32.28
-36.76
-42.8
-50.16
-58.47
-67.15
-75.62
-83.42
-90.4
-96.76
-102.99
-109.74
-117.58
-126.69
-136.51
-145.62
-151.75
-152.32
-145.24
-129.84
-107.27
-80.39
-52.91
-28.24
-8.58
5.47
14.62
20.21
23.43
24.89
24.59
22.18
17.24
9.68
-0.15
-11.26
-22.12
-30.73
-35.06
-33.57
-25.71
-12.1
5.64
25.46
45.4
64.06
80.64
94.73
106.02
114.16
118.84
120.08
118.25
114.15
108.68
102.53
95.91
88.48
79.39
67.65
52.49
33.78
12.28
-10.25
-31.25
-47.84
-57.51
-58.78
-51.68
-37.73
-19.61
-0.35
17.41
31.91
42.43
49.04
52.18
52.35
49.89
45.15
38.61
30.92
22.91
15.36
8.82
3.5
-0.58
-3.52
-5.4
-6.2
-5.87
-4.53
-2.46
-0.15
1.8
2.84
2.52
0.58
-3.07
-8.38
-15.08
-22.74
-30.79
-38.71
-46.13
-53.06
-59.91
-67.34
-76.19
-87.02
-99.93
-114.13
-127.92
-138.82
-144.17
-141.88
-131.17
-112.84
-89.1
-62.82
-36.75
-12.99
7.26
23.39
35.0
41.85
43.81
41.19
34.84
26.2
17.11
9.56
5.29
5.4
10.09
18.52
29.04
39.66
48.79
55.66
60.46
63.89
66.45
67.77
66.56
61.13
50.32
34.33
14.93
-5.01
-22.5
-35.42
-43.01
-45.81
-45.09
-42.31
-38.75
-35.51
-33.68
-34.21
-37.56
-43.19
-49.3
-53.01
-51.12
-41.05
-21.62
6.61
41.33
78.76
114.23
142.8
160.23
163.9
153.61
131.68
102.36
70.78
41.53
17.82
1.06
-8.84
-12.95
-12.7
-9.52
-4.59
1.09
6.64
11.3
14.49
15.91
15.65
14.16
12.05
9.78
7.32
4.16
-0.49
-7.32
-16.52
-27.66
-39.8
-51.88
-63.11
-73.26
-82.62
-91.86
-101.79
-113.1
-126.09
-140.48
-155.06
-167.6
-174.95
-173.75
-161.42
-137.15
-102.5
-61.05
-17.47
23.85
59.84
89.05
111.39
127.42
137.8
143.06
143.69
140.47
134.56
127.44
120.51
114.79
110.58
107.47
104.6
100.93
95.72
88.66
79.84
69.62
58.31
46.04
32.61
17.66
0.85
-17.79
-37.66
-57.49
-75.59
-90.24
-100.3
-105.54
-106.68
-105.21
-102.86
-101.22
-101.43
-104.07
-108.94
-114.99
-120.37
-122.88
-120.58
-112.58
-99.33
-82.32
-63.27
-43.43
-23.22
-2.59
18.32
38.77
57.38
72.7
83.76
90.44
93.22
92.96
90.53
86.81
82.78
79.51
78.05
79.0
82.33
87.21
92.27
95.98
97.07
94.86
89.43
81.55
72.47
63.55
55.91
50.07
45.84
42.37
38.58
33.39
26.14
16.67
5.23
-7.74
-21.9
-37.19
-53.83
-71.99
-91.3
-110.34
-126.53
-136.6
-137.56
-127.76
-107.67
-79.83
-48.08
-16.45
11.84
34.88
52.06
63.59
70.18
72.59
71.68
68.23
62.9
56.18
48.41
39.87
30.92
22.18
14.39
8.28
4.39
2.83
3.25
4.85
6.56
7.32
6.33
3.26
-1.61
-7.46
-13.26
-18.08
-21.5
-23.68
-25.3
-27.26
-30.35
-35.0
-41.25
-48.86
-57.38
-66.42
-75.74
-85.39
-95.57
-106.37
-117.26
-126.71
-132.18
-130.69
-119.81
-98.82
-69.22
-34.49
0.96
33.11
59.33
78.77
91.97
100.13
104.53
106.11
105.51
103.2
99.6
95.22
90.55
86.08
82.26
79.52
78.21
78.56
80.48
83.39
86.23
87.62
86.26
81.33
72.83
61.46
48.22
34.01
19.28
4.15
-11.37
-27.04
-42.35
-56.72
-69.77
-81.5
-92.17
-102.17
-111.81
-121.27
-130.59
-139.59
-147.57
-153.07
-153.91
-147.69
-132.71
-108.81
-77.83
-43.14
-8.71
22.1
47.25
66.18
79.4
87.85
92.49
94.07
93.26
90.71
87.08
82.9
78.61
74.54
71.07
68.73
68.17
69.9
74.04
80.07
86.74
92.36
95.17
93.83
87.81
77.43
63.77
48.15
31.8
15.53
-0.27
-15.48
-29.93
-43.41
-55.61
-66.37
-75.77
-84.27
-92.53
-101.31
-111.2
-122.41
-134.41
-145.81
-154.25
-156.94
-151.34
-136.2
-112.11
-81.55
-48.24
-16.09
11.75
33.48
48.67
57.85
62.08
62.56
60.5
57.01
53.04
49.29
46.11
43.64
41.88
40.94
41.08
42.68
45.86
50.39
55.59
60.37
63.67
64.68
63.14
59.28
53.72
47.12
39.95
32.36
24.2
15.25
5.38
-5.29
-16.3
-27.06
-36.99
-45.76
-53.47
-60.64
-68.16
-77.01
-87.76
-100.15
-112.63
-122.41
-126.14
-120.95
-105.51
-80.66
-49.26
-15.31
17.28
45.62
68.25
84.95
96.25
103.0
106.05
106.19
104.11
100.35
95.12
88.39
79.95
69.78
58.28
46.33
35.17
26.02
19.69
16.4
15.68
16.67
18.33
19.83
20.58
20.34
19.07
16.75
13.35
8.81
3.18
-3.25
-9.95
-16.21
-21.48
-25.65
-29.21
-33.19
-38.91
-47.55
-59.8
-75.55
-93.61
-111.7
-126.67
-135.02
-133.84
-121.8
-99.7
-70.51
-38.52
-8.18
17.15
35.83
47.93
54.57
57.2
57.02
54.79
50.92
45.73
39.6
33.0
26.47
20.52
15.61
12.07
10.05
9.54
10.33
12.04
14.18
16.33
18.14
19.4
20.0
19.75
18.43
15.77
11.6
5.95
-0.88
-8.4
-15.96
-22.99
-29.07
-34.0
-37.92
-41.33
-45.03
-49.84
-56.1
-63.15
-69.09
-71.08
-66.23
-52.77
-30.85
-2.85
27.28
55.21
77.48
92.28
99.48
100.19
96.03
88.57
79.08
68.59
57.92
47.8
38.69
30.87
24.34
18.89
14.38
10.74
8.07
6.45
5.83
5.98
6.4
6.42
5.33
2.48
-2.63
-10.09
-19.59
-30.45
-41.76
-52.72
-62.78
-71.77
-79.8
-87.03
-93.55
-99.46
-105.01
-110.83
-117.83
-126.81
-137.75
-149.37
-159.03
-163.48
-159.82
-146.54
-124.04
-94.4
-60.6
-25.6
8.32
39.75
67.86
92.04
111.67
126.15
135.08
138.51
136.87
130.92
121.6
109.88
96.86
83.74
71.76
62.03
55.21
51.26
49.52
48.81
47.92
45.92
42.34
37.15
30.55
22.83
14.33
5.46
-3.23
-11.1
-17.64
-22.65
-26.35
-29.31
-32.27
-35.92
-40.79
-47.32
-55.91
-66.76
-79.57
-93.15
-105.16
-112.54
-112.36
-102.88
-84.27
-58.69
-29.57
-0.6
25.32
46.48
62.38
73.32
79.93
82.88
82.81
80.29
75.86
70.01
63.26
56.19
49.41
43.58
39.31
37.06
36.95
38.77
41.94
45.65
48.97
51.11
51.58
50.19
47.08
42.54
36.83
30.09
22.28
13.3
3.18
-7.85
-19.35
-30.75
-41.58
-51.6
-60.94
-70.07
-79.75
-90.78
-103.58
-117.68
-131.33
-141.58
-145.07
-139.06
-122.72
-97.61
-67.37
-36.62
-9.44
11.78
26.64
36.24
42.32
46.24
48.57
49.11
47.37
43.02
36.26
27.78
18.69
10.08
2.89
-2.3
-5.26
-6.06
-5.06
-2.77
0.19
3.18
5.67
7.24
7.65
6.76
4.54
1.07
-3.45
-8.75
-14.55
-20.57
-26.59
-32.5
-38.3
-44.15
-50.4
-57.6
-66.24
-76.48
-87.68
-98.22
-105.64
-107.28
-101.1
-86.52
-64.7
-38.25
-10.41
15.82
38.4
56.34
69.54
78.33
83.12
84.26
82.14
77.25
70.3
62.08
53.47
45.28
38.21
32.83
29.48
28.25
28.91
30.96
33.77
36.67
39.18
40.93
41.71
41.29
39.43
35.88
30.55
23.63
15.57
6.98
-1.57
-9.81
-17.72
-25.52
-33.56
-42.19
-51.75
-62.53
-74.5
-86.99
-98.43
-106.4
-108.2
-101.67
-86.12
-62.72
-34.28
-4.39
23.55
47.18
65.39
78.18
86.12
89.99
90.52
88.48
84.6
79.65
74.27
68.98
64.08
59.81
56.47
54.4
54.01
55.5
58.68
62.94
67.4
71.27
74.04
75.73
76.64
77.19
77.55
77.59
76.96
75.27
72.34
68.13
62.62
55.68
47.0
36.35
23.74
9.46
-6.09
-22.65
-40.05
-57.83
-74.61
-87.73
-93.66
-89.08
-72.3
-44.35
-9.1
27.76
60.22
83.5
94.89
93.8
81.24
59.2
30.14
-3.2
-37.93
-71.03
-99.49
-120.59
-132.35
-134.08
-126.66
-112.52
-94.99
-77.28
-61.6
-48.63
-37.76
-27.79
-17.82
-7.66
2.05
10.33
16.4
19.97
21.33
21.07
19.83
18.09
16.06
13.7
10.74
6.68
0.85
-7.6
-19.47
-35.13
-54.06
-74.33
-92.55
-104.5
-106.27
-95.69
-73.23
-42.15
-7.49
25.55
53.02
73.11
85.97
92.9
95.27
93.94
89.19
81.05
69.79
56.14
41.34
26.84
14.06
4.22
-1.96
-4.3
-3.22
0.3
5.03
9.73
13.54
16.08
17.38
17.68
17.14
15.81
13.64
10.61
6.81
2.39
-2.58
-8.14
-14.56
-22.27
-31.75
-43.47
-57.73
-74.38
-92.41
-109.74
-123.3
-129.6
-125.81
-110.79
-85.7
-53.75
-19.34
13.19
40.59
61.13
74.58
81.67
83.7
82.03
77.9
72.33
66.04
59.49
52.97
46.72
41.07
36.4
33.14
31.64
32.11
34.49
38.41
43.17
47.84
51.45
53.22
52.77
50.12
45.48
39.15
31.36
22.31
12.31
1.79
-8.76
-18.97
-28.81
-38.55
-48.76
-60.07
-73.03
-87.79
-103.77
-119.39
-132.0
-138.33
-135.46
-121.84
-98.06
-66.86
-32.35
1.23
30.64
54.2
71.67
83.54
90.52
93.07
91.44
85.94
77.14
65.98
53.62
41.28
30.03
20.66
13.7
9.44
7.91
8.82
11.59
15.3
18.92
21.5
22.44
21.52
18.86
14.78
9.51
3.23
-4.02
-12.14
-20.89
-29.94
-38.83
-47.15
-54.68
-61.38
-67.46
-73.37
-79.81
-87.53
-97.06
-108.15
-119.35
-127.9
-130.34
-123.58
-106.21
-79.22
-45.95
-11.02
21.17
47.59
67.11
80.08
87.58
90.61
89.79
85.53
78.31
68.89
58.37
47.89
38.4
30.55
24.69
21.01
19.55
20.18
22.58
26.14
30.05
33.45
35.62
36.15
34.91
32.04
27.68
22.0
15.13
7.29
-1.27
-10.19
-19.19
-28.08
-36.81
-45.46
-54.27
-63.58
-73.86
-85.46
-98.15
-110.76
-120.95
-125.56
-121.56
-107.23
-83.02
-51.62
-17.21
15.9
44.43
66.74
82.6
92.63
97.63
98.22
94.85
88.06
78.56
67.3
55.31
43.58
32.92
23.95
17.01
12.21
9.44
8.41
8.75
10.09
12.07
14.24
16.0
16.62
15.39
11.82
5.84
-2.14
-11.38
-20.99
-30.26
-38.82
-46.59
-53.84
-61.01
-68.65
-77.48
-88.12
-100.85
-115.06
-128.86
-139.18
-142.38
-135.45
-117.2
-88.87
-53.92
-16.95
17.71
47.07
69.82
85.96
96.13
101.04
101.27
97.43
90.4
81.28
71.29
61.46
52.5
44.83
38.7
34.34
31.98
31.72
33.38
36.38
39.88
42.87
44.54
44.43
42.42
38.65
33.31
26.51
18.3
8.81
-1.72
-12.83
-24.0
-34.78
-44.99
-54.71
-64.23
-73.99
-84.47
-96.02
-108.69
-121.8
-133.71
-141.77
-142.94
-134.68
-116.07
-88.3
-54.53
-18.92
14.59
43.23
65.74
81.97
92.4
97.6
98.14
94.72
88.2
79.63
70.07
60.35
51.13
42.91
36.2
31.5
29.2
29.37
31.67
35.32
39.34
42.76
44.85
45.27
43.94
40.95
36.4
30.26
22.46
12.94
1.9
-10.19
-22.57
-34.39
-44.94
-53.93
-61.51
-68.36
-75.42
-83.64
-93.66
-105.29
-117.09
-126.37
-129.62
-123.59
-106.53
-79.07
-44.34
-7.01
28.1
57.41
79.23
93.61
101.56
104.35
102.98
98.15
90.48
80.74
69.84
58.79
48.53
39.85
33.38
29.49
28.26
29.44
32.45
36.51
40.75
44.36
46.67
47.04
45.03
40.42
33.3
24.12
13.64
2.7
-7.99
-18.01
-27.32
-36.08
-44.52
-52.82
-61.22
-70.02
-79.7
-90.68
-102.79
-114.78
-124.16
-127.59
-122.04
-105.99
-80.31
-48.2
-14.24
17.02
42.38
60.5
71.66
77.05
78.07
75.9
71.47
65.58
59.01
52.38
46.08
40.17
34.44
28.69
22.92
17.47
13.02
10.33
9.93
11.85
15.5
19.78
23.38
25.07
24.01
19.84
12.7
3.17
-7.87
-19.43
-30.59
-40.7
-49.58
-57.46
-64.98
-73.02
-82.49
-94.08
-107.95
-123.3
-138.09
-149.23
-153.09
-146.75
-129.06
-101.3
-66.91
-30.45
3.85
33.2
56.6
74.42
87.61
96.95
102.77
105.17
104.26
100.44
94.41
86.97
78.83
70.6
62.78
55.89
50.45
46.81
45.1
45.04
46.01
47.19
47.76
47.06
44.7
40.51
34.51
26.79
17.52
6.9
-4.75
-17.02
-29.39
-41.36
-52.56
-62.85
-72.43
-81.78
-91.65
-102.8
-115.6
-129.56
-142.82
-152.3
-154.33
-145.86
-125.74
-95.43
-58.72
-20.61
14.28
42.86
64.04
78.31
86.85
90.85
91.03
87.86
81.75
73.37
63.65
53.66
44.36
36.46
30.33
26.03
23.48
22.5
22.87
24.34
26.52
28.95
31.03
32.19
31.98
30.13
26.52
21.2
14.36
6.3
-2.52
-11.56
-20.35
-28.63
-36.43
-44.09
-52.17
-61.4
-72.41
-85.52
-100.27
-115.07
-127.15
-133.06
-129.67
-115.38
-90.84
-58.96
-24.04
9.59
38.71
61.7
78.38
89.39
95.55
97.53
95.87
91.1
83.87
74.92
65.06
55.02
45.52
37.13
30.4
25.69
23.21
22.99
24.92
28.71
33.84
39.55
44.83
48.53
49.72
47.86
43.05
36.01
27.77
19.33
11.21
3.37
-4.78
-14.09
-25.28
-38.84
-54.87
-73.09
-92.58
-111.63
-127.62
-137.35
-137.74
-126.93
-105.13
-74.79
-40.01
-5.33
25.49
50.27
68.45
80.54
87.53
90.31
89.6
85.96
79.94
72.14
63.22
53.85
44.81
36.92
31.08
28.08
28.36
31.74
37.31
43.53
48.58
50.81
49.19
43.54
34.51
23.2
10.91
-1.32
-12.88
-23.59
-33.57
-43.1
-52.42
-61.67
-70.83
-79.96
-89.28
-99.32
-110.67
-123.59
-137.4
-150.15
-158.7
-159.55
-149.98
-129.16
-98.61
-61.9
-23.57
12.21
42.64
66.66
84.76
98.3
108.89
118.0
126.78
135.91
145.56
155.11
163.27
168.31
168.8
164.27
155.57
144.65
133.7
124.24
116.5
109.58
102.19
93.5
83.51
72.74
61.61
49.84
36.51
20.62
1.93
-18.62
-39.18
-57.7
-72.9
-84.66
-93.99
-102.35
-111.08
-121.07
-132.66
-145.61
-158.96
-170.74
-177.94
-177.07
-165.23
-141.28
-106.65
-65.07
-21.63
18.78
52.67
78.45
96.12
106.57
110.9
110.11
105.02
96.47
85.4
72.83
59.75
47.12
35.68
26.04
18.57
13.35
10.27
9.0
9.18
10.44
12.42
14.76
17.06
18.67
18.86
16.9
12.28
4.97
-4.53
-15.25
-26.05
-35.96
-44.47
-51.69
-58.31
-65.43
-74.2
-85.43
-99.01
-113.46
-125.74
-131.79
-127.51
-110.15
-79.4
-37.74
10.16
58.63
102.49
138.13
163.9
179.91
187.22
186.96
179.85
166.14
146.04
120.41
91.24
61.61
35.09
14.74
2.27
-2.28
-0.35
5.82
13.88
21.89
28.5
32.95
34.97
34.45
31.44
25.99
18.2
8.34
-3.09
-15.39
-27.76
-39.51
-50.2
-59.7
-68.12
-75.73
-82.98
-90.48
-98.69
-107.41
-115.31
-119.73
-117.21
-104.59
-80.29
-45.07
-2.04
44.18
88.5
126.46
154.91
172.12
177.85
173.09
159.94
141.16
119.71
98.14
77.97
59.54
42.18
24.64
5.78
-14.88
-36.96
-59.24
-80.17
-98.37
-113.06
-124.27
-132.72
-139.44
-145.49
-151.72
-158.57
-166.19
-174.43
-182.95
-191.42
-199.51
-207.01
-213.84
-220.01
-225.56
-230.49
-234.84
-238.66
-241.99
-244.68
-245.97
-244.16
-236.64
-220.47
-193.33
-154.69
-106.37
-52.4
2.1
52.22
94.59
127.81
152.26
169.29
180.43
186.88
189.31
188.1
183.6
176.42
167.54
158.19
149.69
143.12
139.15
137.96
139.33
142.84
147.97
154.17
160.73
166.74
171.03
172.3
169.38
161.6
148.99
132.34
112.95
92.21
71.11
50.04
28.71
6.54
-17.08
-42.59
-70.15
-99.59
-130.16
-160.13
-186.53
-205.32
-212.32
-204.61
-181.83
-146.71
-104.5
-61.44
-23.09
6.94
27.25
38.17
40.94
37.12
28.32
16.29
3.04
-9.45
-19.55
-26.44
-30.23
-31.77
-31.97
-31.31
-29.53
-25.91
-19.85
-11.5
-2.12
6.15
10.96
10.59
4.66
-5.78
-18.49
-30.82
-40.53
-46.37
-48.36
-47.58
-45.71
-44.52
-45.34
-48.74
-54.19
-59.91
-62.95
-59.72
-46.93
-22.82
11.98
54.23
98.83
140.24
173.95
197.36
209.9
212.5
206.66
194.02
176.13
154.5
130.74
106.52
83.39
62.51
44.55
29.71
17.95
9.15
3.28
0.36
0.37
3.07
7.83
13.67
19.28
23.37
24.95
23.61
19.59
13.66
6.73
-0.46
-7.52
-14.55
-21.89
-30.04
-39.51
-50.83
-64.36
-79.93
-96.16
-110.0
-117.07
-112.68
-93.59
-59.58
-14.06
36.53
84.5
123.0
147.69
157.41
153.77
140.08
120.06
96.91
72.78
48.84
25.7
3.93
-15.64
-31.97
-44.17
-51.81
-55.09
-54.52
-50.57
-43.41
-32.96
-19.4
-3.54
12.89
27.54
37.94
42.2
39.48
30.15
15.58
-2.22
-21.16
-39.59
-56.55
-71.96
-86.42
-100.95
-116.68
-134.53
-154.72
-176.14
-196.0
-209.75
-212.12
-198.65
-167.64
-121.25
-65.27
-7.41
44.98
87.01
116.94
135.66
145.25
147.69
144.23
135.59
122.48
106.06
88.0
70.1
53.96
40.63
30.56
23.7
19.65
17.81
17.55
18.29
19.6
21.21
22.86
24.21
24.55
22.95
18.45
10.36
-1.31
-15.79
-31.77
-47.82
-62.89
-76.55
-89.04
-101.03
-113.46
-127.36
-143.53
-162.14
-181.96
-199.82
-210.76
-209.27
-191.13
-155.39
-105.27
-47.52
9.67
59.14
96.62
121.1
134.08
138.06
135.41
127.75
116.17
101.6
85.18
68.25
52.22
38.34
27.48
20.12
16.37
16.09
18.84
24.0
30.71
37.91
44.39
48.9
50.34
47.88
41.1
29.96
14.87
-3.36
-23.52
-44.08
-63.46
-80.32
-93.88
-104.06
-111.52
-117.53
-123.73
-131.84
-143.0
-157.12
-172.11
-183.84
-186.87
-176.12
-148.84
-105.95
-52.19
5.3
59.14
103.73
136.38
157.07
167.48
169.74
165.75
156.93
144.48
129.55
113.34
97.04
81.7
68.17
57.14
49.24
44.89
44.26
47.05
52.51
59.36
66.08
71.18
73.43
72.17
67.42
59.71
49.83
38.44
25.94
12.33
-2.47
-18.32
-34.72
-50.94
-66.3
-80.57
-94.08
-107.7
-122.55
-139.66
-159.34
-180.65
-200.86
-215.47
-219.05
-206.83
-176.51
-129.61
-71.48
-9.92
47.17
93.83
127.31
147.82
157.44
158.76
153.98
144.66
131.91
116.74
100.24
83.51
67.65
53.57
42.07
33.87
29.61
29.64
33.81
41.24
50.34
59.01
65.15
67.18
64.47
57.42
47.21
35.25
22.7
10.01
-3.0
-16.93
-32.19
-48.61
-65.32
-80.99
-94.34
-104.72
-112.5
-119.06
-126.52
-137.0
-151.63
-169.67
-187.92
-201.1
-203.05
-188.74
-156.18
-107.5
-48.57
12.63
68.37
113.2
144.73
163.3
170.83
169.6
161.56
148.27
131.12
111.65
91.49
72.2
55.01
40.65
29.49
21.72
17.49
16.83
19.45
24.48
30.45
35.5
37.85
36.32
30.71
21.71
10.56
-1.47
-13.59
-25.69
-38.11
-51.32
-65.43
-80.03
-94.2
-106.95
-117.6
-126.17
-133.51
-141.23
-151.28
-165.23
-183.35
-203.82
-222.47
-233.6
-231.36
-211.68
-173.81
-120.81
-58.82
4.54
62.18
109.04
142.74
163.26
172.1
171.34
162.95
148.61
129.89
108.6
86.9
67.27
51.92
42.22
38.2
38.6
41.31
44.13
45.49
44.8
42.45
39.35
36.38
33.93
31.7
28.84
24.31
17.31
7.68
-4.06
-16.83
-29.35
-40.62
-50.25
-58.62
-66.73
-75.93
-87.6
-102.69
-121.21
-141.72
-160.99
-174.3
-176.42
-163.2
-133.07
-88.0
-33.29
23.88
76.34
118.76
148.57
165.86
172.54
171.12
163.92
152.63
138.42
122.21
104.92
87.58
71.3
57.09
45.83
38.16
34.52
34.96
39.08
45.96
54.12
61.79
67.28
69.36
67.53
61.97
53.31
42.34
29.8
16.31
2.53
-10.83
-22.95
-33.25
-41.59
-48.48
-55.01
-62.62
-72.73
-86.22
-102.86
-120.75
-136.15
-143.99
-139.15
-118.29
-81.3
-31.76
23.99
78.64
126.12
162.78
187.64
201.59
206.4
203.95
196.1
184.76
171.95
159.73
149.78
142.94
138.88
135.83
130.85
120.5
101.85
73.71
37.28
-3.98
-45.38
-82.62
-112.9
-135.36
-150.57
-159.57
-163.18
-161.92
-156.57
-148.64
-140.33
-133.94
-130.91
-131.24
-133.47
-135.51
-135.73
-133.82
-131.07
-129.89
-132.77
-140.94
-153.29
-166.09
-173.64
-169.86
-150.23
-113.37
-61.72
-0.96
61.46
118.24
163.83
195.29
212.29
216.51
210.77
198.17
181.57
163.34
145.29
128.74
114.51
102.9
93.5
85.22
76.48
65.81
52.38
36.55
20.01
5.13
-5.86
-11.71
-12.59
-9.82
-5.12
0.17
5.54
11.16
17.25
23.49
28.76
31.49
30.28
24.46
14.27
0.47
-16.26
-35.9
-59.33
-87.8
-122.03
-160.86
-200.6
-235.22
-257.72
-262.19
-245.59
-208.79
-156.28
-94.95
-32.45
24.35
70.27
102.44
120.24
125.13
120.11
108.82
94.74
80.41
67.33
56.13
47.05
40.26
35.82
33.53
32.82
32.89
33.02
32.86
32.52
32.33
32.51
32.78
32.36
30.22
25.45
17.63
6.98
-5.74
-19.51
-33.41
-46.86
-59.8
-72.64
-86.12
-101.08
-118.27
-137.95
-159.43
-180.71
-198.29
-207.63
-204.09
-184.44
-148.17
-98.18
-40.33
17.92
69.48
109.37
135.49
148.51
150.93
145.82
135.86
122.95
108.24
92.5
76.51
61.23
47.73
37.01
29.76
26.23
26.21
29.06
33.82
39.44
44.84
49.12
51.69
52.24
50.67
46.97
41.02
32.71
21.98
9.14
-5.07
-19.59
-33.37
-45.69
-56.55
-66.51
-76.55
-87.71
-100.84
-116.34
-133.87
-151.87
-167.28
-175.72
-172.43
-154.0
-119.9
-73.32
-20.56
30.9
74.62
107.02
127.72
138.59
142.3
140.93
135.63
126.84
115.03
101.11
86.39
72.29
59.92
49.87
42.26
36.91
33.48
31.59
30.82
30.72
30.9
30.97
30.63
29.49
27.11
23.02
16.99
9.19
0.35
-8.5
-16.39
-22.78
-27.87
-32.48
-37.88
-45.45
-56.5
-72.03
-92.28
-116.14
-140.59
-160.73
-170.72
-165.63
-143.25
-105.36
-57.32
-6.45
40.31
78.25
105.54
122.6
130.93
132.04
127.01
116.74
102.41
85.73
68.69
53.13
40.29
30.53
23.53
18.61
15.24
13.25
12.78
13.98
16.62
19.8
22.05
21.68
17.39
8.75
-3.5
-17.64
-31.56
-43.46
-52.46
-58.95
-64.35
-70.75
-80.18
-94.0
-112.2
-132.81
-151.87
-164.05
-163.94
-147.9
-115.45
-69.84
-17.27
34.99
80.63
115.75
139.13
151.59
154.89
150.9
141.25
127.46
111.16
94.05
77.7
63.24
51.07
41.0
32.5
25.02
18.42
12.95
9.26
7.96
9.23
12.4
15.85
17.35
14.89
7.43
-4.56
-19.24
-34.11
-46.98
-56.82
-63.94
-69.83
-76.42
-85.6
-98.66
-115.85
-135.98
-156.02
-171.3
-176.4
-166.77
-140.45
-99.18
-48.22
5.27
54.32
94.13
122.78
140.9
150.42
153.31
150.94
144.11
133.51
120.19
105.63
91.44
78.99
68.93
61.15
55.02
49.64
44.24
38.39
32.04
25.44
18.93
12.73
6.79
0.79
-5.8
-13.43
-22.19
-31.71
-41.21
-49.74
-56.66
-61.82
-65.75
-69.48
-74.33
-81.58
-92.18
-106.17
-122.24
-137.46
-147.64
-148.26
-135.96
-109.81
-71.86
-26.65
20.08
62.96
98.14
123.66
139.16
145.35
143.5
135.16
122.09
106.13
89.01
72.13
56.41
42.44
30.57
21.14
14.51
10.96
10.45
12.51
16.22
20.4
23.89
25.74
25.42
22.69
17.46
9.73
-0.4
-12.67
-26.48
-40.91
-54.91
-67.49
-78.12
-86.75
-93.86
-100.28
-107.07
-115.32
-125.85
-138.69
-152.47
-164.11
-169.13
-162.8
-141.78
-105.69
-57.68
-3.71
49.15
94.78
129.48
152.28
164.21
167.17
162.98
153.03
138.49
120.7
101.36
82.39
65.57
52.17
42.72
37.07
34.62
34.57
36.07
38.37
40.77
42.7
43.66
43.26
41.11
36.92
30.38
21.35
9.92
-3.41
-17.77
-32.06
-45.17
-56.38
-65.53
-73.11
-80.2
-88.22
-98.6
-112.29
-129.14
-147.3
-163.12
-171.68
-168.08
-149.09
-114.53
-67.73
-14.7
37.6
83.18
118.37
142.14
155.46
160.26
158.49
151.69
141.09
127.88
113.38
99.04
86.21
75.89
68.56
64.26
62.86
64.22
68.25
74.78
83.31
92.83
101.95
109.12
113.16
113.64
111.04
106.61
101.92
98.32
96.52
96.43
97.42
98.67
99.66
100.35
101.29
103.37
107.51
114.26
123.53
134.24
144.41
151.5
153.14
147.95
136.2
119.74
101.46
84.2
69.76
58.53
49.66
41.8
33.71
24.69
14.43
2.88
-9.93
-23.77
-38.07
-51.9
-64.16
-74.02
-81.36
-86.83
-91.67
-97.1
-103.85
-111.81
-120.04
-127.23
-132.2
-134.31
-133.75
-131.36
-128.38
-126.0
-124.94
-125.27
-126.4
-127.47
-127.8
-127.22
-126.17
-125.38
-125.33
-125.99
-126.67
-126.53
-125.01
-122.33
-119.51
-118.03
-119.47
-124.92
-134.59
-147.37
-160.43
-169.32
-168.68
-153.87
-122.79
-77.06
-22.13
34.36
84.87
124.14
150.12
163.58
166.81
162.16
151.46
135.93
116.82
95.81
74.92
56.14
40.89
29.69
22.2
17.49
14.41
11.95
9.46
6.62
3.44
-0.07
-3.99
-8.67
-14.62
-22.3
-31.85
-43.06
-55.57
-69.24
-84.37
-101.63
-121.52
-143.74
-166.94
-188.94
-207.67
-222.2
-233.12
-242.1
-250.52
-258.14
-262.54
-259.81
-246.16
-219.51
-180.18
-130.55
-74.09
-14.42
44.93
100.38
148.16
184.71
207.5
216.08
212.26
199.67
182.46
164.09
146.74
131.43
118.55
108.43
101.37
97.44
96.03
95.87
95.33
93.1
88.77
82.92
76.79
71.36
66.69
61.83
55.22
45.61
32.74
17.46
1.19
-14.87
-30.3
-45.5
-61.37
-78.61
-97.44
-117.43
-137.54
-156.12
-170.82
-178.61
-176.13
-160.46
-130.23
-86.55
-33.21
23.99
78.71
125.61
161.44
185.05
196.72
197.32
187.8
169.37
144.18
115.72
88.66
67.69
55.91
53.55
57.71
63.4
65.43
60.19
46.69
26.59
3.28
-19.37
-38.06
-50.79
-57.1
-57.93
-55.33
-51.95
-50.5
-53.15
-61.12
-74.33
-91.5
-110.43
-128.49
-143.25
-153.12
-157.84
-158.59
-157.76
-158.11
-161.57
-168.09
-175.06
-177.73
-170.44
-148.53
-110.02
-56.52
7.0
73.5
135.73
187.98
227.09
252.64
266.16
270.13
266.91
258.22
245.21
228.78
210.07
190.61
171.98
155.31
140.84
127.96
115.67
103.27
90.82
79.29
70.14
64.67
63.33
65.33
68.57
70.16
67.19
57.74
41.58
20.3
-3.14
-25.43
-43.94
-57.21
-65.1
-68.32
-68.06
-65.88
-63.77
-64.15
-69.62
-82.11
-102.12
-128.32
-157.84
-187.21
-213.05
-232.34
-242.27
-240.15
-223.93
-193.51
-152.14
-106.69
-66.41
-40.22
-33.66
-47.1
-75.85
-112.13
-147.91
-177.2
-196.98
-206.92
-208.23
-202.65
-191.87
-177.49
-161.06
-144.24
-128.54
-114.88
-103.3
-92.89
-82.23
-70.19
-56.51
-42.06
-28.47
-17.3
-9.2
-3.74
0.19
3.56
6.28
7.06
3.82
-5.05
-19.42
-36.77
-52.44
-60.91
-57.43
-39.6
-8.11
33.38
79.34
123.83
161.99
190.83
209.42
218.46
219.52
214.47
205.07
192.94
179.6
166.5
155.0
146.13
140.47
138.0
138.3
140.65
144.25
148.27
151.96
154.66
155.77
154.78
151.15
144.25
133.3
117.63
96.94
71.76
43.6
14.9
-11.65
-33.76
-50.17
-60.99
-67.47
-71.65
-75.96
-82.64
-93.28
-108.1
-125.41
-141.5
-151.51
-150.87
-137.16
-111.11
-76.49
-38.66
-2.76
27.82
51.81
69.56
82.01
89.96
93.8
93.77
90.22
83.76
75.13
65.17
54.69
44.58
35.73
28.86
24.38
22.22
21.92
22.84
24.41
26.2
27.97
29.47
30.35
30.1
28.06
23.68
16.6
6.91
-4.88
-17.94
-31.26
-43.9
-55.27
-65.32
-74.7
-84.75
-97.12
-113.01
-132.22
-152.34
-168.7
-175.54
-167.92
-143.8
-105.17
-57.57
-8.3
36.05
71.29
96.18
111.62
119.28
120.53
116.17
106.85
93.68
78.41
63.12
49.54
38.52
29.93
22.99
16.96
11.67
7.7
5.99
7.33
11.73
18.13
24.63
29.02
29.55
25.47
17.29
6.45
-5.27
-16.43
-26.42
-35.62
-45.05
-56.01
-69.61
-86.33
-105.73
-126.19
-144.71
-157.24
-159.6
-148.88
-124.73
-89.88
-49.43
-9.16
26.31
54.65
75.76
90.8
100.84
106.23
106.65
101.92
92.56
79.99
66.2
53.04
41.74
32.74
25.93
21.0
17.83
16.66
17.96
22.21
29.37
38.57
48.04
55.36
58.14
54.85
45.43
31.46
15.62
0.88
-10.56
-18.02
-22.39
-25.69
-30.47
-38.93
-52.35
-70.48
-91.26
-110.81
-124.14
-126.56
-115.31
-90.9
-57.22
-20.38
13.3
39.34
56.02
64.22
66.17
64.19
59.95
54.27
47.59
40.3
32.96
26.24
20.83
17.25
15.75
16.22
18.08
20.44
22.18
22.42
20.83
17.77
14.05
10.44
7.19
3.9
-0.25
-6.0
-13.42
-21.91
-30.48
-38.35
-45.46
-52.55
-60.94
-71.88
-86.3
-104.41
-125.55
-147.92
-168.48
-183.24
-188.06
-179.83
-157.71
-123.62
-81.81
-37.74
3.46
38.07
64.23
81.72
91.31
94.23
91.81
85.35
76.14
65.47
54.66
44.96
37.38
32.57
30.57
30.92
32.83
35.45
38.15
40.61
42.73
44.35
45.13
44.47
41.65
36.19
28.0
17.48
5.42
-7.3
-19.97
-32.16
-43.79
-55.0
-66.09
-77.55
-90.15
-104.72
-121.69
-140.39
-158.5
-171.97
-175.94
-166.23
-140.91
-101.34
-51.97
0.9
50.91
93.31
125.68
147.8
160.77
166.08
164.99
158.4
147.12
132.16
114.97
97.27
80.8
66.88
56.24
49.01
44.9
43.39
44.0
46.26
49.69
53.72
57.54
60.13
60.4
57.41
50.68
40.38
27.39
13.07
-1.14
-14.0
-24.84
-33.56
-40.59
-46.83
-53.45
-61.77
-72.74
-86.22
-100.37
-111.39
-114.19
-103.83
-77.39
-35.31
18.45
77.47
134.9
185.38
226.01
256.24
276.84
288.73
292.36
287.67
274.46
252.82
223.2
186.18
142.39
92.55
37.96
-19.01
-74.78
-125.02
-165.66
-193.94
-209.13
-212.5
-206.72
-194.94
-179.99
-163.96
-148.06
-132.68
-117.57
-101.97
-84.99
-66.01
-45.13
-23.32
-2.21
16.41
31.07
41.12
46.76
48.96
49.26
49.47
51.39
56.34
64.79
76.3
89.51
102.74
114.62
124.48
132.25
137.79
140.15
137.13
125.67
102.95
67.74
21.41
-32.05
-87.05
-137.88
-180.09
-211.21
-230.67
-239.21
-238.28
-229.66
-215.4
-197.66
-178.66
-160.25
-143.64
-129.25
-116.79
-105.63
-95.19
-85.18
-75.71
-67.14
-59.91
-54.26
-50.23
-47.67
-46.61
-47.41
-50.85
-57.63
-67.52
-78.59
-87.0
-87.66
-75.86
-49.09
-8.18
42.56
96.6
146.89
187.66
215.45
229.22
229.86
219.43
200.57
176.07
148.61
120.5
93.47
68.71
47.03
29.11
15.73
7.75
5.8
9.91
19.09
31.36
44.03
54.36
60.15
60.15
54.01
42.04
24.92
3.62
-20.52
-45.74
-70.03
-91.5
-108.97
-122.28
-132.35
-140.7
-149.06
-158.94
-171.33
-186.37
-202.92
-218.39
-228.86
-229.91
-217.91
-191.28
-151.16
-101.26
-46.86
6.56
54.43
93.72
123.03
142.15
151.7
152.74
146.74
135.45
120.91
105.27
90.58
78.39
69.5
63.85
60.81
59.53
59.44
60.37
62.38
65.44
68.93
71.58
71.71
67.75
58.83
45.22
28.35
10.29
-6.84
-21.63
-33.72
-43.85
-53.51
-64.5
-78.4
-95.92
-116.41
-137.4
-154.71
-163.25
-158.43
-137.77
-102.12
-55.64
-4.68
44.12
85.64
117.27
138.71
151.09
155.9
154.36
147.4
135.95
121.28
104.98
88.74
73.95
61.5
51.75
44.66
40.01
37.53
36.96
37.95
40.08
42.75
45.18
46.41
45.43
41.3
33.44
21.88
7.4
-8.63
-24.59
-39.08
-51.4
-61.66
-70.72
-79.87
-90.55
-103.9
-120.47
-139.59
-158.95
-174.6
-181.61
-175.48
-153.86
-117.63
-71.0
-20.21
28.38
70.04
102.43
125.39
139.94
147.3
148.39
143.83
134.42
121.32
106.1
90.47
75.87
63.24
53.02
45.37
40.36
38.13
38.8
42.24
47.94
54.88
61.72
67.02
69.51
68.34
63.13
53.99
41.46
26.52
10.46
-5.41
-19.96
-32.65
-43.61
-53.69
-64.11
-76.23
-90.87
-107.82
-125.34
-140.08
-147.56
-143.43
-124.94
-92.21
-48.6
0.0
46.8
85.85
113.37
128.2
131.39
125.4
113.21
97.65
81.03
64.98
50.47
37.95
27.52
19.14
12.75
8.29
5.74
5.07
6.2
9.0
13.2
18.28
23.4
27.39
29.04
27.26
21.47
11.76
-1.04
-15.52
-29.99
-42.89
-53.25
-60.91
-66.64
-71.83
-78.23
-87.4
-100.29
-116.72
-134.97
-151.72
-162.39
-162.26
-147.86
-118.43
-76.49
-27.41
22.26
66.64
102.01
127.16
142.78
150.31
151.04
145.82
135.36
120.62
103.06
84.44
66.36
49.95
35.82
24.2
15.26
9.16
6.08
5.99
8.54
12.97
18.27
23.3
27.03
28.58
27.4
23.27
16.36
7.24
-3.21
-13.92
-23.99
-32.85
-40.48
-47.38
-54.41
-62.66
-73.16
-86.67
-103.15
-121.27
-137.96
-148.78
-148.91
-134.81
-105.69
-64.29
-16.13
32.01
74.22
106.79
128.63
140.66
144.72
142.66
135.97
125.8
113.25
99.5
85.71
72.95
62.04
53.5
47.61
44.35
43.41
44.07
45.26
45.68
44.13
39.72
32.09
21.33
7.91
-7.53
-24.3
-41.64
-58.68
-74.45
-88.09
-99.05
-107.26
-113.15
-117.46
-121.05
-124.77
-129.54
-136.3
-145.76
-157.74
-170.42
-180.12
-181.82
-170.78
-144.39
-103.53
-52.67
1.5
52.17
94.45
126.23
147.9
161.07
167.41
167.87
162.75
152.19
136.72
117.55
96.44
75.37
56.14
40.1
28.0
20.04
15.87
14.73
15.51
16.89
17.64
16.82
14.03
9.31
3.01
-4.59
-13.43
-23.74
-35.68
-49.14
-63.52
-77.79
-90.88
-102.01
-110.98
-118.15
-124.26
-130.25
-136.95
-144.81
-153.43
-161.23
-165.28
-161.93
-147.88
-121.55
-84.08
-39.25
7.45
50.58
86.25
112.91
130.99
141.92
147.03
147.0
141.99
132.15
118.18
101.44
83.71
66.67
51.55
38.97
29.17
22.35
18.74
18.56
21.73
27.69
35.27
42.91
49.03
52.35
52.19
48.49
41.8
32.96
22.93
12.42
1.72
-9.37
-21.47
-35.27
-51.21
-69.35
-89.44
-110.99
-133.31
-155.09
-173.95
-186.36
-188.24
-176.18
-149.04
-108.83
-60.52
-10.67
34.59
71.22
97.88
115.43
125.81
130.93
132.09
130.08
125.53
119.23
112.2
105.38
99.5
94.89
91.62
89.71
89.24
90.4
93.25
97.5
102.44
106.99
109.96
110.45
108.0
102.75
95.21
86.08
76.01
65.49
54.84
44.34
34.35
25.25
17.41
10.87
5.23
-0.4
-7.18
-16.17
-27.94
-42.16
-57.4
-71.25
-80.72
-82.96
-76.1
-59.83
-35.75
-6.97
22.57
49.02
69.47
82.3
87.0
83.8
73.21
55.85
32.47
4.24
-27.07
-59.03
-88.78
-113.45
-130.74
-139.5
-140.01
-133.85
-123.53
-111.71
-100.6
-91.59
-85.28
-81.81
-81.21
-83.63
-89.23
-97.9
-109.11
-121.86
-134.9
-147.13
-157.89
-167.21
-175.86
-185.11
-196.41
-210.78
-228.14
-246.71
-262.98
-272.31
-270.15
-253.41
-221.34
-175.9
-121.26
-62.83
-6.23
43.68
83.48
111.62
128.42
135.66
135.95
131.86
125.3
117.37
108.68
99.85
91.79
85.61
82.31
82.42
85.95
92.49
101.39
111.75
122.4
131.86
138.56
141.16
138.94
131.86
120.45
105.59
88.3
69.74
51.19
33.93
18.93
6.53
-3.91
-14.02
-25.95
-41.76
-62.52
-87.56
-113.99
-137.02
-151.02
-151.28
-135.68
-105.56
-65.45
-21.51
20.36
56.13
84.09
104.46
118.36
126.94
130.94
130.8
126.9
119.88
110.51
99.72
88.41
77.41
67.47
59.27
53.37
50.12
49.58
51.35
54.63
58.35
61.42
62.93
62.27
59.06
53.09
44.28
32.76
18.98
3.76
-11.93
-27.2
-41.51
-54.77
-67.27
-79.63
-92.6
-107.04
-123.5
-141.7
-159.84
-174.34
-180.42
-173.49
-151.0
-113.74
-66.02
-14.42
34.26
75.03
105.62
126.28
138.69
144.7
145.57
141.92
134.22
123.19
109.99
95.96
82.29
69.85
59.08
50.24
43.53
39.17
37.21
37.39
39.11
41.37
42.97
42.74
39.65
33.0
22.56
8.64
-7.76
-25.18
-41.81
-56.01
-66.71
-73.8
-78.25
-81.98
-87.5
-97.29
-113.17
-135.66
-163.29
-192.34
-217.04
-230.73
-227.71
-205.37
-165.63
-114.95
-62.42
-16.75
16.57
36.77
47.29
53.55
60.44
70.42
83.16
96.49
107.73
114.84
116.86
113.77
106.22
95.23
82.24
68.99
57.34
48.64
43.23
39.91
36.13
28.67
14.79
-6.74
-35.02
-67.22
-99.57
-128.51
-151.78
-168.9
-180.94
-189.75
-197.12
-204.13
-211.04
-217.58
-223.49
-228.8
-233.76
-238.29
-241.36
-240.84
-233.82
-217.6
-190.64
-153.1
-106.87
-55.07
-1.37
50.45
96.92
135.15
163.15
180.17
186.77
184.58
175.85
162.83
147.5
131.48
116.08
102.34
90.88
81.74
74.46
68.2
62.28
56.47
51.17
47.17
45.4
46.32
49.66
54.34
58.72
61.18
60.51
56.39
49.35
40.49
30.99
21.77
13.23
5.27
-2.61
-11.12
-20.96
-32.44
-45.0
-56.82
-64.87
-65.57
-55.94
-34.83
-3.62
33.92
72.72
107.68
134.99
152.7
160.69
160.11
152.71
140.23
124.12
105.44
85.03
63.72
42.58
22.88
5.92
-7.34
-16.51
-21.94
-24.37
-24.58
-23.1
-20.13
-15.78
-10.47
-5.07
-0.79
1.12
-0.03
-4.11
-10.14
-16.74
-22.61
-27.08
-30.28
-33.02
-36.44
-41.68
-49.54
-60.4
-73.91
-88.71
-102.15
-110.5
-109.8
-97.09
-71.79
-36.22
4.77
45.3
80.28
106.62
123.66
132.51
134.88
132.19
125.15
114.03
99.25
81.73
63.02
44.87
28.84
