46.1
44.85
44.7
44.33
42.78
39.82
36.08
32.75
30.99
31.31
33.08
34.7
34.1
29.47
19.82
5.15
-13.71
-35.51
-58.87
-82.32
-104.35
-123.45
-138.52
-149.25
-156.42
-161.83
-167.54
-174.74
-182.75
-188.52
-187.47
-175.07
-148.87
-109.88
-62.65
-13.94
29.46
62.74
84.24
95.16
98.37
97.0
93.29
88.43
82.82
76.69
70.45
64.6
59.47
55.0
50.81
46.52
42.09
38.13
35.63
35.45
37.81
41.94
46.31
49.05
48.79
45.06
38.42
29.98
20.93
11.96
3.12
-5.94
-15.62
-25.99
-36.78
-47.53
-57.9
-67.9
-77.95
-88.7
-100.8
-114.5
-129.17
-142.92
-152.58
-154.29
-144.5
-121.44
-85.98
-41.83
5.41
49.81
86.73
113.73
130.56
138.48
139.32
134.74
126.07
114.38
100.81
86.69
73.46
62.46
54.66
50.5
49.94
52.5
57.47
63.95
70.85
77.07
81.6
83.65
82.74
78.54
70.74
58.89
42.63
21.99
-2.17
-28.11
-53.63
-76.71
-96.24
-112.26
-125.76
-138.21
-151.02
-165.18
-180.88
-197.16
-211.59
-220.4
-219.18
-204.28
-174.26
-130.83
-78.73
-24.44
25.67
66.89
96.94
115.81
124.93
126.28
121.84
113.29
102.08
89.43
76.36
63.66
51.91
41.53
32.91
26.47
22.58
21.43
22.84
26.17
30.4
34.33
36.88
37.33
35.41
31.24
25.14
17.41
8.37
-1.78
-12.7
-24.0
-35.15
-45.67
-55.23
-63.69
-71.27
-78.46
-86.08
-95.09
-106.31
-119.72
-133.91
-145.82
-151.24
-146.0
-127.56
-96.18
-55.07
-9.52
34.73
73.03
102.71
123.05
134.66
138.7
136.44
129.17
118.29
105.31
91.71
78.71
67.06
57.1
48.97
42.83
38.91
37.5
38.64
41.92
46.43
50.92
54.15
55.25
53.94
50.47
45.42
39.33
32.49
24.88
16.29
6.56
-4.25
-15.77
-27.43
-38.6
-48.84
-58.01
-66.45
-74.88
-84.36
-95.9
-109.84
-125.19
-139.27
-147.99
-146.98
-133.18
-106.1
-68.38
-25.0
18.2
56.23
85.99
106.48
118.18
122.36
120.39
113.6
103.28
90.71
77.15
63.67
51.07
39.93
30.66
23.61
19.03
16.98
17.23
19.25
22.3
25.55
28.29
30.03
30.53
29.62
27.18
23.04
16.98
9.08
-0.23
-10.08
-19.4
-27.24
-33.13
-37.29
-40.53
-44.01
-48.93
-56.19
-66.03
-77.63
-88.91
-96.62
-97.03
-87.09
-65.59
-33.79
4.86
45.8
84.65
118.22
144.83
163.9
175.41
179.59
176.9
168.32
155.56
140.98
127.09
116.01
108.73
104.77
101.91
96.68
85.17
64.35
33.4
-5.41
-46.82
-83.93
-110.02
-120.6
-114.46
-93.72
-62.94
-27.65
6.84
36.27
57.77
69.86
72.31
66.15
53.4
36.71
18.66
1.1
-15.27
-30.74
-45.68
-59.58
-70.51
-75.52
-71.89
-58.55
-37.12
-11.37
14.04
35.34
50.75
60.32
64.93
65.34
61.83
54.75
45.17
34.86
25.58
18.13
11.82
4.97
-3.85
-14.8
-26.45
-36.51
-43.15
-45.92
-45.89
-44.8
-44.05
-43.94
-43.87
-42.98
-41.05
-38.78
-37.49
-38.39
-42.11
-48.66
-58.01
-70.74
-88.06
-111.21
-140.55
-175.07
-212.66
-250.87
-287.54
-320.79
-348.46
-367.69
-375.34
-369.24
-349.64
-319.71
-284.54
-248.92
-215.34
-183.33
-150.57
-115.11
-77.33
-40.41
-9.16
12.24
22.25
22.74
18.14
13.47
12.38
16.14
23.82
33.6
44.09
55.04
67.04
80.52
94.87
108.21
117.96
121.96
119.4
111.31
100.17
88.93
79.93
74.16
71.06
68.98
65.96
60.37
51.3
38.62
22.88
5.31
-12.14
-26.86
-35.92
-36.75
-28.02
-10.22
14.45
42.57
70.54
95.4
115.22
129.08
136.81
138.69
135.32
127.63
116.81
104.13
90.7
77.29
64.32
51.96
40.38
29.9
21.05
14.36
10.2
8.53
8.76
9.89
10.71
10.24
7.91
3.77
-1.63
-7.42
-12.73
-17.01
-20.13
-22.42
-24.61
-27.53
-31.85
-37.68
-44.36
-50.33
-53.4
-51.36
-42.62
-26.85
-5.19
20.07
46.09
70.17
90.33
105.36
114.84
118.8
117.63
112.03
102.99
91.76
79.59
67.58
56.47
46.65
38.25
31.31
25.91
22.13
19.9
18.9
18.5
17.88
16.26
13.13
8.4
2.38
-4.36
-11.22
-17.79
-24.0
-30.22
-37.25
-46.13
-57.74
-72.27
-88.66
-104.43
-116.13
-120.25
-114.38
-98.03
-72.84
-41.93
-8.93
22.94
51.41
75.17
93.64
106.66
114.47
117.63
116.97
113.48
108.06
101.33
93.66
85.33
76.68
68.28
60.87
55.26
52.09
51.58
53.48
57.01
61.16
64.83
67.2
67.87
66.9
64.72
61.88
58.84
55.75
52.28
47.79
41.66
33.84
25.38
18.58
16.63
22.66
38.78
65.26
100.55
141.69
185.03
226.76
263.02
290.11
304.88
305.47
292.11
267.42
235.85
202.31
170.65
142.6
117.77
94.33
70.21
43.84
14.42
-18.12
-53.23
-89.7
-125.66
-158.74
-186.66
-207.87
-221.95
-229.64
-232.38
-231.67
-228.56
-223.48
-216.35
-206.84
-194.68
-179.85
-162.86
-144.76
-126.76
-109.66
-93.26
-76.41
-57.65
-36.31
-13.21
9.55
29.62
45.69
58.11
68.4
77.86
86.5
92.68
94.07
89.11
78.13
63.39
48.1
35.1
25.9
20.51
17.92
16.94
16.78
17.33
18.77
21.14
23.85
25.64
24.82
19.87
10.08
-4.12
-21.25
-39.47
-57.22
-73.78
-89.19
-103.67
-116.86
-127.47
-133.55
-133.35
-126.28
-113.36
-96.96
-79.86
-64.26
-51.09
-40.13
-30.57
-21.74
-13.52
-6.37
-0.98
2.18
3.17
2.61
1.52
1.02
1.91
4.36
7.9
11.56
14.35
15.63
15.37
14.08
12.42
10.89
9.55
7.95
5.37
0.92
-6.25
-16.81
-30.97
-48.21
-67.04
-85.08
-99.52
-107.84
-108.55
-101.69
-88.78
-72.26
-54.89
-38.99
-26.15
-17.15
-12.15
-10.92
-13.05
-17.99
-25.05
-33.47
-42.49
-51.41
-59.73
-67.06
-72.98
-77.0
-78.49
-76.83
-71.74
-63.58
-53.42
-42.95
-33.96
-27.85
-25.12
-25.34
-27.43
-30.25
-33.18
-36.44
-40.95
-47.82
-57.53
-69.35
-81.14
-89.69
-91.75
-84.99
-68.91
-45.04
-16.48
13.04
40.07
62.27
78.54
88.87
93.93
94.64
91.99
86.92
80.21
72.52
64.29
55.87
47.57
39.79
32.94
27.31
22.99
19.69
16.93
14.2
11.17
7.79
4.2
0.56
-3.14
-6.99
-11.22
-16.06
-21.71
-28.45
-36.54
-46.01
-56.35
-66.26
-73.67
-76.2
-71.96
-60.2
-41.84
-19.17
4.73
26.97
45.44
59.23
68.36
73.51
75.5
75.09
72.91
69.45
65.18
60.52
55.81
51.31
47.09
43.22
39.69
36.55
33.88
31.71
29.95
28.36
26.52
24.0
20.42
15.52
9.27
1.7
-7.07
-16.95
-27.93
-40.04
-53.15
-66.78
-79.81
-90.41
-96.31
-95.37
-86.45
-69.88
-47.66
-22.91
1.0
21.34
36.6
46.51
51.7
53.22
52.05
48.98
44.58
39.34
33.76
28.38
23.64
19.87
17.14
15.33
14.2
13.46
12.88
12.3
11.6
10.68
9.42
7.67
5.35
2.4
-1.25
-5.63
-10.88
-17.25
-24.99
-34.14
-44.24
-54.02
-61.53
-64.53
-61.19
-50.78
-34.03
-12.92
9.87
31.74
50.74
65.81
76.61
83.28
86.24
86.02
83.25
78.69
73.04
66.95
60.93
55.42
50.81
47.45
45.62
45.42
46.73
49.25
52.6
56.38
60.24
63.78
66.49
67.71
66.75
62.98
56.1
46.15
33.63
19.38
4.69
-8.71
-18.81
-23.53
-21.29
-11.5
5.13
26.63
50.16
72.79
92.07
106.48
115.42
118.91
117.3
111.0
100.48
86.49
70.12
52.82
36.16
21.43
9.37
0.05
-7.06
-12.75
-17.9
-23.22
-29.22
-36.18
-44.08
-52.6
-61.21
-69.25
-76.26
-82.18
-87.49
-93.14
-100.22
-109.49
-120.82
-132.89
-143.35
-149.41
-148.87
-140.86
-126.32
-107.74
-88.37
-71.39
-59.01
-52.05
-49.82
-50.32
-50.78
-48.36
-40.9
-27.66
-9.55
11.13
31.49
48.8
61.18
67.56
67.45
60.7
47.46
28.47
5.26
-19.91
-44.47
-66.37
-84.58
-99.33
-111.67
-122.71
-132.9
-141.75
-148.28
-151.77
-152.25
-150.12
-145.37
-136.72
-121.88
-98.8
-67.25
-29.79
8.68
42.74
68.67
86.08
97.62
107.35
118.6
132.44
147.63
161.64
172.0
177.24
176.96
171.48
161.51
148.01
132.32
116.19
101.53
90.05
82.58
78.78
77.3
76.41
74.71
71.63
67.28
62.16
56.74
51.1
44.91
37.54
28.33
16.78
3.0
-12.06
-26.35
-37.0
-40.93
-35.76
-20.7
3.03
32.33
63.04
91.03
113.15
127.79
134.92
135.66
131.75
125.24
118.17
112.4
109.2
108.7
109.52
109.02
104.16
92.78
74.64
51.66
27.2
4.69
-13.67
-27.56
-38.31
-48.07
-58.84
-71.57
-85.95
-100.56
-113.56
-123.58
-130.43
-135.34
-140.55
-148.37
-160.23
-176.08
-194.15
-211.25
-223.26
-226.0
-216.36
-193.51
-159.63
-119.66
-79.98
-46.33
-22.05
-7.58
-1.18
-0.43
-3.35
-8.64
-15.12
-21.26
-25.26
-25.83
-22.79
-17.18
-10.57
-4.22
1.52
7.1
13.17
19.99
27.29
34.57
41.55
48.33
55.2
62.25
68.89
73.93
75.89
73.49
66.21
54.63
40.66
27.29
18.11
16.32
23.69
39.8
61.88
85.44
105.61
118.67
122.96
119.09
109.19
95.77
80.85
65.76
51.31
38.23
27.25
18.9
13.11
9.09
5.68
1.76
-3.13
-8.64
-13.84
-17.54
-18.92
-17.93
-15.33
-12.49
-11.01
-12.14
-16.42
-23.57
-32.74
-42.77
-52.53
-61.07
-67.61
-71.57
-72.74
-71.55
-69.07
-66.66
-65.32
-65.03
-64.55
-61.92
-55.43
-44.41
-29.55
-12.58
4.56
20.36
34.04
45.38
54.27
60.55
64.03
64.81
63.39
60.69
57.61
54.65
51.76
48.41
44.05
38.38
31.56
24.15
16.82
10.11
4.27
-0.69
-4.99
-8.92
-12.81
-16.93
-21.43
-26.31
-31.38
-36.26
-40.55
-43.94
-46.36
-47.96
-49.04
-49.94
-50.81
-51.64
-52.28
-52.62
-52.71
-52.74
-52.95
-53.48
-54.16
-54.65
-54.5
-53.52
-51.87
-50.06
-48.74
-48.47
-49.52
-51.78
-54.88
-58.3
-61.57
-64.36
-66.65
-68.72
-71.15
-74.49
-79.07
-84.71
-90.77
-96.41
-101.01
-104.48
-107.4
-110.73
-115.53
-122.58
-132.22
-144.28
-158.17
-172.95
-187.46
-200.46
-211.05
-219.01
-225.21
-231.57
-240.48
-253.44
-269.92
-286.73
-298.59
-299.92
-286.79
-258.19
-216.02
-163.91
-105.97
-46.07
12.1
64.54
106.96
135.61
148.56
146.75
133.8
114.87
94.88
77.19
63.25
53.04
46.0
41.66
39.81
40.38
43.07
47.31
52.28
57.19
61.4
64.53
66.35
66.63
65.18
61.75
56.28
48.97
40.32
31.02
21.72
12.72
3.79
-5.74
-16.7
-29.51
-43.72
-57.7
-68.89
-74.41
-71.91
-60.31
-40.3
-14.13
14.94
43.49
68.65
88.59
102.57
110.66
113.49
111.84
106.53
98.48
88.69
78.3
68.41
59.91
53.23
48.31
44.74
42.0
39.78
38.01
36.84
36.41
36.58
36.83
36.36
34.4
30.45
24.55
17.27
9.43
1.8
-5.19
-11.62
-17.99
-25.13
-33.88
-44.85
-58.22
-73.37
-88.72
-101.76
-109.52
-109.28
-99.45
-80.16
-53.34
-22.24
9.51
38.76
63.37
82.35
95.57
103.4
106.46
105.5
101.47
95.45
88.57
81.83
75.91
71.11
67.37
64.49
62.25
60.66
59.93
60.34
62.08
65.0
68.51
71.7
73.57
73.39
70.91
66.35
60.24
53.11
45.25
36.61
26.79
15.19
1.26
-15.16
-33.49
-52.11
-68.53
-79.82
-83.38
-77.73
-63.01
-40.91
-14.18
14.06
41.0
64.57
83.53
97.34
105.97
109.74
109.27
105.47
99.44
92.44
85.72
80.3
76.91
75.82
76.91
79.78
83.88
88.57
93.18
96.94
99.01
98.57
94.99
88.03
77.97
65.67
52.32
39.09
26.74
15.18
3.44
-10.01
-26.74
-47.48
-71.59
-96.72
-119.26
-135.21
-141.28
-135.88
-119.42
-94.11
-63.15
-29.93
2.59
32.18
57.26
76.77
90.2
97.64
99.74
97.53
92.18
84.7
76.04
67.44
60.55
57.46
60.21
69.95
86.13
106.15
126.01
141.49
149.47
148.8
140.13
125.13
105.58
82.91
58.4
33.59
10.21
-10.69
-29.84
-50.21
-76.01
-110.17
-151.77
-194.95
-230.33
-248.73
-245.07
-220.39
-181.06
-135.81
-92.31
-55.02
-25.27
-2.71
13.09
21.95
23.53
18.17
7.46
-5.94
-19.14
-29.71
-36.12
-37.61
-33.71
-24.07
-8.51
12.63
37.95
64.78
89.49
108.39
118.81
119.94
112.89
100.15
84.58
68.47
53.16
39.1
26.07
13.56
1.02
-11.76
-24.33
-35.43
-43.22
-45.81
-42.05
-31.95
-16.8
1.24
19.54
35.47
46.57
50.77
46.48
32.95
10.58
-18.81
-51.93
-84.39
-111.46
-129.06
-134.82
-128.71
-113.03
-91.63
-68.63
-47.36
-29.74
-16.42
-7.29
-2.07
-0.43
-1.87
-5.48
-9.95
-14.0
-16.86
-18.78
-21.01
-25.34
-33.15
-44.41
-57.25
-68.16
-73.11
-69.0
-54.97
-32.73
-6.1
20.47
43.15
59.82
70.08
74.77
75.19
72.4
67.07
59.61
50.47
40.27
29.85
20.18
12.02
5.89
1.89
-0.23
-1.0
-1.05
-0.96
-1.21
-2.1
-3.79
-6.37
-9.86
-14.17
-19.17
-24.71
-30.8
-37.73
-46.08
-56.41
-68.86
-82.61
-95.62
-105.05
-107.99
-102.51
-88.45
-67.56
-42.99
-18.27
3.68
21.14
33.67
41.68
45.88
46.81
44.8
40.14
33.3
25.16
16.98
10.05
5.39
3.43
3.92
6.18
9.28
12.43
15.07
16.89
17.77
17.62
16.39
14.09
10.75
6.42
1.05
-5.62
-13.98
-24.38
-36.7
-49.95
-62.22
-70.97
-73.76
-69.07
-56.86
-38.73
-17.41
4.04
23.08
38.14
48.77
55.23
58.13
58.09
55.61
51.15
45.21
38.48
31.75
25.85
21.48
19.05
18.59
19.79
22.05
24.68
27.05
28.68
29.36
29.01
27.65
25.27
21.84
17.28
11.4
3.99
-5.22
-16.31
-28.91
-41.84
-53.14
-60.36
-61.3
-54.78
-41.17
-22.37
-1.24
19.25
36.81
50.21
59.19
64.09
65.43
63.65
59.11
52.23
43.65
34.29
25.12
16.94
10.12
4.58
-0.01
-4.01
-7.48
-10.24
-12.0
-12.72
-12.71
-12.62
-13.17
-14.91
-17.99
-22.25
-27.38
-33.2
-39.71
-47.03
-54.99
-62.8
-68.86
-70.98
-66.97
-55.5
-36.65
-12.14
15.12
41.87
65.3
83.66
96.24
103.12
104.69
101.43
93.9
82.92
69.66
55.63
42.37
31.23
23.05
18.2
16.73
18.32
22.4
28.1
34.26
39.63
43.09
43.93
41.83
36.85
29.16
19.0
6.6
-7.87
-24.31
-42.68
-62.76
-83.83
-104.35
-121.88
-133.64
-137.32
-131.95
-118.41
-99.15
-77.42
-56.34
-38.06
-23.6
-13.05
-6.06
-2.19
-0.99
-2.04
-4.75
-8.4
-12.2
-15.43
-17.56
-18.3
-17.6
-15.56
-12.42
-8.57
-4.49
-0.74
2.17
3.84
4.04
2.7
-0.13
-4.33
-9.76
-16.26
-23.8
-32.4
-42.07
-52.53
-62.91
-71.6
-76.42
-75.28
-66.87
-51.32
-30.29
-6.59
16.6
36.6
51.76
61.58
66.41
67.07
64.48
59.44
52.59
44.45
35.48
26.18
17.1
8.87
2.21
-2.35
-4.53
-4.48
-2.74
-0.12
2.55
4.65
5.84
6.08
5.43
3.92
1.42
-2.29
-7.58
-14.7
-23.81
-34.67
-46.45
-57.63
-66.09
-69.51
-66.11
-55.28
-37.95
-16.42
6.33
27.48
45.08
58.34
67.34
72.62
74.8
74.28
71.4
66.55
60.24
53.11
45.81
38.93
32.91
28.03
24.41
22.01
20.6
19.79
19.09
18.02
16.24
13.66
10.34
6.5
2.29
-2.25
-7.32
-13.32
-20.75
-29.88
-40.47
-51.37
-60.65
-65.88
-64.88
-56.55
-41.27
-20.9
1.75
23.8
42.95
57.84
68.11
74.03
76.18
75.19
71.7
66.3
59.52
51.83
43.68
35.51
27.77
20.95
15.45
11.5
9.06
7.84
7.39
7.16
6.72
5.78
4.23
2.05
-0.75
-4.21
-8.46
-13.77
-20.51
-29.08
-39.64
-51.73
-64.01
-74.25
-79.87
-78.66
-69.65
-53.53
-32.54
-9.72
12.0
30.48
44.74
54.73
60.89
63.75
63.76
61.26
56.61
50.29
42.91
35.18
27.82
21.49
16.7
13.75
12.61
12.97
14.24
15.74
16.86
17.27
16.9
15.82
14.14
11.85
8.83
4.96
0.21
-5.32
-11.52
-18.31
-25.54
-32.79
-39.11
-42.91
-42.29
-35.55
-21.77
-1.09
25.33
55.83
88.67
122.21
154.59
183.44
205.7
218.11
218.21
205.38
181.37
149.9
115.43
81.74
50.98
23.58
-1.1
-23.67
-44.12
-61.77
-75.86
-86.24
-93.76
-100.06
-106.81
-114.92
-124.15
-133.22
-140.51
-144.89
-146.14
-144.95
-142.51
-139.95
-137.96
-136.62
-135.42
-133.21
-128.51
-119.69
-105.61
-86.17
-62.57
-37.12
-12.56
8.64
24.89
35.56
40.95
41.95
39.82
35.89
31.26
26.39
20.93
13.86
3.94
-9.52
-26.18
-44.61
-62.62
-77.88
-88.51
-93.36
-92.1
-85.15
-73.52
-58.77
-42.77
-27.43
-14.38
-4.61
1.72
5.23
7.03
8.38
10.3
13.33
17.47
22.38
27.67
33.05
38.44
43.91
49.6
55.58
61.8
68.11
74.23
79.7
83.85
85.79
84.68
80.09
72.49
63.33
54.75
48.84
46.85
48.57
52.41
55.85
56.27
51.76
41.65
26.68
8.64
-10.05
-26.95
-40.17
-48.8
-53.0
-53.74
-52.34
-49.95
-47.22
-44.37
-41.48
-38.75
-36.5
-35.05
-34.51
-34.89
-36.59
-40.89
-49.91
-65.86
-89.69
-119.92
-152.32
-180.88
-199.55
-204.2
-193.64
-169.71
-136.28
-98.01
-59.19
-23.2
7.72
32.41
50.62
62.83
69.93
72.95
72.77
70.0
64.98
58.01
49.49
40.03
30.45
21.55
13.92
7.8
3.12
-0.39
-2.97
-4.81
-6.03
-6.88
-7.83
-9.51
-12.52
-17.12
-23.16
-30.16
-37.56
-44.87
-51.63
-57.25
-60.79
-61.02
-56.79
-47.54
-33.68
-16.64
1.56
18.89
33.75
45.27
53.13
57.44
58.54
56.89
53.15
48.05
42.38
36.8
31.94
28.3
26.3
26.26
28.23
31.97
36.87
42.15
47.06
51.01
53.74
55.18
55.36
54.34
52.2
49.1
45.22
40.62
35.08
28.02
18.83
7.28
-5.92
-19.03
-29.53
-34.95
-33.73
-25.74
-12.32
4.22
21.39
37.15
50.2
59.93
66.19
69.05
68.73
65.61
60.26
53.46
46.05
38.75
32.1
26.43
21.92
18.67
16.7
15.86
15.84
16.15
16.24
15.65
14.13
11.66
8.43
4.74
0.87
-2.96
-6.77
-10.78
-15.48
-21.47
-29.16
-38.41
-48.24
-56.88
-62.19
-62.34
-56.38
-44.69
-28.78
-10.79
7.15
23.39
36.95
47.39
54.56
58.53
59.5
57.89
54.34
49.58
44.27
38.85
33.56
28.44
23.59
19.19
15.58
13.08
11.86
11.81
12.47
13.18
13.24
12.12
9.63
5.99
1.63
-2.94
-7.35
-11.57
-15.95
-21.13
-27.78
-36.22
-46.12
-56.3
-64.83
-69.55
-68.66
-61.4
-48.31
-31.14
-12.33
5.74
21.25
33.26
41.55
46.37
48.16
47.4
44.61
40.5
35.88
31.55
28.16
26.04
25.31
26.07
28.66
33.59
41.08
50.58
60.46
68.2
71.18
67.68
57.55
42.33
24.61
7.11
-8.05
-19.7
-27.56
-31.97
-33.73
-34.01
-34.26
-35.82
-39.4
-44.46
-49.14
-50.61
-46.05
-33.57
-13.01
14.06
44.67
75.25
102.24
122.66
134.51
137.08
131.0
118.07
100.75
81.5
62.22
43.96
27.16
11.85
-2.03
-14.57
-25.99
-36.66
-46.97
-57.04
-66.54
-74.73
-80.91
-84.76
-86.61
-87.29
-87.77
-88.64
-89.92
-91.09
-91.4
-90.18
-87.24
-82.87
-77.84
-73.32
-70.51
-70.2
-72.3
-75.52
-77.43
-75.06
-65.95
-49.1
-25.49
2.22
30.55
56.37
77.77
94.32
106.75
116.21
123.61
129.28
133.03
134.51
133.6
130.66
126.48
122.11
118.56
116.63
116.82
119.49
124.9
133.08
143.68
155.54
166.74
174.83
177.62
173.93
164.05
149.62
132.99
116.45
101.57
89.18
79.77
73.78
71.63
73.25
77.47
81.89
83.41
79.45
69.11
53.63
35.96
19.47
6.53
-2.36
-8.45
-13.95
-20.9
-30.44
-42.68
-56.97
-72.39
-87.98
-102.76
-115.74
-125.95
-132.74
-135.96
-136.0
-133.53
-129.11
-122.84
-114.41
-103.36
-89.57
-73.49
-56.23
-39.25
-24.06
-11.84
-3.39
1.01
1.54
-1.17
-6.16
-12.31
-18.61
-24.46
-29.85
-35.3
-41.79
-50.35
-61.66
-75.54
-90.76
-105.09
-115.85
-120.71
-118.5
-109.67
-96.05
-80.24
-64.8
