-51.74
-70.17
-88.5
-106.31
-122.32
-134.96
-143.19
-146.76
-146.08
-141.88
-134.91
-125.84
-115.33
-104.22
-93.42
-83.78
-75.94
-70.24
-66.75
-65.27
-65.36
-66.39
-67.7
-68.86
-69.88
-71.25
-73.66
-77.5
-82.62
-88.26
-93.49
-97.55
-100.11
-101.1
-100.41
-97.69
-92.51
-84.78
-75.16
-65.03
-56.02
-49.27
-44.93
-42.2
-39.94
-37.42
-34.79
-32.98
-33.07
-35.67
-40.46
-46.34
-51.82
-55.49
-56.21
-53.15
-45.91
-34.79
-20.99
-6.66
5.76
14.43
19.03
20.93
22.52
26.06
32.62
41.75
51.7
60.24
65.37
65.77
60.9
50.97
37.03
20.65
3.76
-11.77
-24.5
-33.53
-38.41
-38.99
-35.27
-27.48
-16.19
-2.38
12.71
27.75
41.63
53.52
63.05
70.21
75.29
78.71
80.79
81.68
81.28
79.39
75.97
71.26
65.73
59.99
54.51
49.54
45.11
41.17
37.78
35.09
33.32
32.5
32.35
32.27
31.47
29.26
25.34
19.89
13.55
7.17
1.42
-3.32
-7.11
-10.26
-13.14
-15.96
-18.78
-21.51
-24.06
-26.46
-28.81
-31.32
-34.23
-37.69
-41.69
-46.0
-50.02
-52.87
-53.55
-51.27
-45.7
-37.21
-26.79
-15.76
-5.39
3.43
10.29
15.19
18.35
20.01
20.39
19.67
18.09
15.93
13.56
11.34
9.53
8.31
7.71
7.74
8.37
9.54
11.19
13.14
15.11
16.75
17.74
17.91
17.27
16.0
14.35
12.48
10.45
8.2
5.63
2.69
-0.54
-3.9
-7.18
-10.22
-12.94
-15.42
-17.85
-20.58
-23.95
-28.21
-33.32
-38.81
-43.75
-46.97
-47.34
-44.15
-37.41
-27.86
-16.75
-5.49
4.74
13.2
19.6
24.02
26.69
27.91
27.92
27.01
25.43
23.44
21.27
19.11
17.11
15.39
14.02
13.11
12.69
12.79
13.32
14.14
14.98
15.54
15.54
14.85
13.49
11.61
9.42
7.06
4.58
1.94
-0.86
-3.79
-6.73
-9.57
-12.25
-14.8
-17.38
-20.1
-23.12
-26.55
-30.51
-35.06
-39.99
-44.74
-48.4
-49.82
-48.02
-42.55
-33.75
-22.68
-10.82
0.38
9.85
17.12
22.17
25.27
26.75
26.91
25.99
24.28
22.17
20.11
18.46
17.44
17.03
17.07
17.38
17.87
18.54
19.47
20.66
21.92
22.89
23.11
22.24
20.21
17.3
13.98
10.73
7.78
5.09
2.35
-0.77
-4.44
-8.58
-12.92
-17.08
-20.83
-24.11
-27.02
-29.86
-32.98
-36.67
-41.11
-46.2
-51.42
-55.86
-58.38
-57.89
-53.75
-45.99
-35.36
-23.12
-10.7
0.67
10.16
17.44
22.49
25.56
26.96
27.03
26.1
24.48
22.46
20.29
18.14
16.19
14.59
13.52
13.17
13.63
14.88
16.74
18.83
20.76
22.11
22.6
22.07
20.55
18.17
15.19
11.85
8.4
5.0
1.66
-1.71
-5.28
-9.11
-13.12
-17.07
-20.64
-23.57
-25.83
-27.62
-29.35
-31.52
-34.53
-38.49
-43.13
-47.69
-51.05
-51.96
-49.45
-43.13
-33.44
-21.46
-8.64
3.59
14.2
22.62
28.65
32.36
33.93
33.61
31.79
28.94
25.6
22.24
19.14
16.45
14.21
12.45
11.27
10.77
11.06
12.12
13.77
15.68
17.46
18.77
19.37
19.23
18.43
17.17
15.62
13.86
11.88
9.61
6.96
3.89
0.42
-3.36
-7.31
-11.34
-15.38
-19.45
-23.59
-27.91
-32.41
-36.92
-41.01
-43.96
-44.89
-42.97
-37.76
-29.37
-18.54
-6.45
5.69
16.87
26.54
34.51
40.86
45.69
49.08
51.13
52.08
52.3
52.3
52.56
53.38
54.89
56.94
59.24
61.36
62.78
62.99
61.56
58.34
53.46
47.33
40.43
33.19
25.77
18.17
10.25
1.98
-6.66
-15.59
-24.8
-34.25
-43.83
-53.24
-61.93
-69.28
-74.79
-78.47
-80.82
-82.78
-85.41
-89.41
-94.85
-100.9
-106.03
-108.38
-106.31
-98.96
-86.57
-70.41
-52.41
-34.51
-18.18
-4.19
7.26
16.27
22.99
27.54
30.12
31.14
31.18
30.84
30.52
30.31
30.11
29.74
29.19
28.66
28.5
29.0
30.26
32.12
34.2
36.05
37.2
37.36
36.46
34.59
32.07
29.31
26.65
24.3
22.23
20.28
18.24
16.01
13.68
11.49
9.76
8.7
8.32
8.31
8.11
7.06
4.7
1.08
-3.11
-6.65
-8.14
-6.53
-1.53
6.26
15.39
24.04
30.44
33.26
31.86
26.34
17.45
6.38
-5.52
-17.0
-27.05
-35.03
-40.6
-43.75
-44.65
-43.67
-41.31
-37.99
-34.02
-29.48
-24.4
-18.88
-13.26
-8.15
-4.18
-1.8
-1.03
-1.5
-2.54
-3.35
-3.16
-1.3
2.65
8.79
16.74
25.66
34.32
41.55
46.62
49.48
50.72
51.21
51.67
52.32
52.78
52.32
50.26
46.34
40.86
34.53
28.13
22.09
16.43
10.75
4.6
-2.25
-9.68
-17.27
-24.54
-31.25
-37.4
-43.19
-48.75
-53.97
-58.37
-61.36
-62.39
-61.2
-57.92
-52.97
-46.94
-40.39
-33.77
-27.46
-21.77
-16.96
-13.22
-10.59
-8.93
-7.99
-7.45
-7.11
-6.9
-6.9
-7.3
-8.22
-9.7
-11.59
-13.64
-15.59
-17.25
-18.61
-19.81
-21.1
-22.8
-25.22
-28.48
-32.42
-36.49
-39.71
-40.88
-38.87
-33.08
-23.66
-11.62
1.53
14.1
24.79
32.9
38.35
41.51
42.95
43.19
42.68
41.75
40.59
39.36
38.12
36.88
35.69
34.71
34.22
34.63
36.33
39.5
43.93
48.9
53.21
55.44
54.33
49.19
40.14
28.14
14.74
1.68
-9.59
-18.24
-24.06
-27.38
-28.83
-29.0
-28.44
-27.59
-26.92
-26.96
-28.19
-30.96
-35.3
-40.88
-47.06
-52.92
-57.5
-59.89
-59.38
-55.56
-48.5
-38.73
-27.21
-15.15
-3.74
6.03
13.51
18.41
20.75
20.82
19.1
16.16
12.59
8.91
5.56
2.93
1.29
0.8
1.46
3.08
5.29
7.63
9.74
11.36
12.41
12.87
12.71
11.86
10.21
7.81
4.84
1.7
-1.18
-3.45
-5.02
-6.08
-7.01
-8.14
-9.64
-11.46
-13.35
-15.15
-16.88
-18.91
-21.72
-25.69
-30.75
-36.2
-40.81
-43.14
-42.02
-37.02
-28.57
-17.82
-6.24
4.81
14.43
22.16
27.98
32.01
34.36
35.17
34.6
32.94
30.56
27.88
25.23
22.84
20.85
19.37
18.55
18.52
19.33
20.86
22.8
24.73
26.19
26.89
26.75
25.87
24.46
22.75
20.83
18.7
16.25
13.34
9.89
5.94
1.62
-2.87
-7.29
-11.46
-15.29
-18.84
-22.31
-26.03
-30.28
-35.18
-40.46
-45.33
-48.65
-49.2
-46.1
-39.12
-28.84
-16.41
-3.3
9.14
19.94
28.51
34.67
38.49
40.21
40.16
38.75
36.39
33.49
30.37
27.33
24.58
22.28
20.54
19.43
18.97
19.06
19.54
20.09
20.39
20.09
19.01
17.1
14.48
11.38
8.07
4.75
1.52
-1.63
-4.78
-7.97
-11.2
-14.36
-17.2
-19.54
-21.28
-22.54
-23.66
-25.1
-27.36
-30.71
-35.02
-39.67
-43.57
-45.39
-43.99
-38.73
-29.74
-17.99
-4.96
7.7
18.58
26.73
31.78
33.83
33.34
31.02
27.67
24.03
20.65
17.77
15.35
13.18
11.11
9.13
7.49
6.53
6.57
7.72
9.84
12.54
15.36
17.96
20.06
21.56
22.41
22.58
22.01
20.65
18.5
15.6
12.04
7.9
3.3
-1.6
-6.55
-11.23
-15.36
-18.85
-21.95
-25.17
-29.1
-34.08
-39.84
-45.48
-49.63
-50.85
-48.18
-41.46
-31.41
-19.35
-6.82
4.85
14.77
22.51
28.01
31.4
32.93
32.87
31.57
29.37
26.68
23.84
21.12
18.74
16.82
15.42
14.59
14.37
14.72
15.57
16.76
18.0
18.99
19.4
19.03
17.81
15.82
13.23
10.23
6.93
3.36
-0.5
-4.64
-9.01
-13.42
-17.67
-21.57
-25.05
-28.19
-31.21
-34.43
-38.09
-42.21
-46.44
-50.07
-52.09
-51.53
-47.73
-40.61
-30.72
-19.11
-7.04
4.35
14.2
22.04
27.68
31.22
32.83
32.8
31.49
29.3
26.59
23.69
20.8
18.11
15.75
13.91
12.78
12.53
13.19
14.59
16.4
18.13
19.3
19.57
18.8
17.06
14.6
11.75
8.77
5.86
3.04
0.22
-2.74
-5.93
-9.38
-12.98
-16.57
-19.94
-23.03
-25.94
-28.96
-32.48
-36.75
-41.76
-47.01
-51.57
-54.22
-53.87
-49.86
-42.2
-31.69
-19.6
-7.38
3.73
12.92
19.87
24.66
27.5
28.71
28.55
27.29
25.29
22.91
20.5
18.37
16.76
15.79
15.59
16.19
17.54
19.48
21.74
23.91
25.6
26.44
26.23
24.93
22.7
19.82
16.61
13.33
10.13
6.97
3.72
0.26
-3.44
-7.3
-11.15
-14.85
-18.36
-21.74
-25.17
-28.88
-33.07
-37.87
-43.11
-48.3
-52.52
-54.59
-53.42
-48.38
-39.65
-28.18
-15.47
-3.11
7.66
16.12
22.14
25.92
27.82
28.17
27.26
25.33
22.7
19.71
16.73
14.11
12.09
10.82
10.38
10.71
11.74
13.31
15.18
17.07
18.68
19.73
20.03
19.51
18.18
16.16
13.6
10.62
7.28
3.55
-0.58
-5.13
-10.0
-14.99
-19.82
-24.29
-28.34
-32.12
-35.97
-40.25
-45.08
-50.12
-54.56
-57.18
-56.82
-52.75
-44.9
-33.97
-21.23
-8.09
4.13
14.46
22.35
27.69
30.66
31.69
31.33
30.1
28.39
26.44
24.36
22.24
20.21
18.47
17.26
16.78
17.15
18.3
20.05
22.04
23.83
25.04
25.4
24.87
23.55
21.67
19.38
16.74
13.66
10.07
5.93
1.34
-3.47
-8.25
-12.78
-16.86
-20.41
-23.45
-26.09
-28.64
-31.49
-34.98
-39.14
-43.51
-47.12
-48.71
-47.17
-41.93
-33.25
-22.1
-9.9
1.93
12.24
20.33
25.91
29.06
30.06
29.37
27.5
24.94
22.12
19.34
16.84
14.77
13.25
12.4
12.28
12.89
14.18
16.0
18.1
20.17
21.8
22.67
22.58
21.53
19.71
17.37
14.73
11.87
8.75
5.27
1.38
-2.81
-7.08
-11.13
-14.7
-17.64
-20.03
-22.1
-24.25
-26.91
-30.43
-34.82
-39.67
-44.08
-46.87
-46.87
-43.35
-36.28
-26.39
-14.92
-3.3
7.31
16.12
22.8
27.34
29.9
30.71
30.08
28.38
26.04
23.46
20.95
18.72
16.89
15.58
14.86
14.8
15.33
16.3
17.44
18.44
19.06
19.1
18.51
17.29
15.51
13.28
10.7
7.88
4.87
1.67
-1.68
-5.12
-8.51
-11.63
-14.34
-16.6
-18.56
-20.52
-22.87
-25.98
-30.01
-34.79
-39.7
-43.75
-45.72
-44.57
-39.71
-31.35
-20.41
-8.33
3.38
13.52
21.41
26.89
30.17
31.59
31.5
30.23
28.08
25.41
22.58
19.92
17.67
15.99
14.93
14.53
14.84
15.93
17.75
20.07
22.51
24.54
25.69
25.64
24.35
21.98
18.83
15.26
11.53
7.81
4.09
0.29
-3.66
-7.81
-12.05
-16.18
-19.96
-23.28
-26.18
-28.88
-31.74
-35.12
-39.15
-43.63
-47.96
-51.18
-52.18
-50.01
-44.22
-35.01
-23.26
-10.36
2.2
13.08
21.44
26.95
29.75
30.3
29.17
26.96
24.13
21.04
18.0
15.24
12.96
11.33
10.42
10.25
10.79
11.94
13.55
15.45
17.41
19.14
20.32
20.7
20.12
18.62
16.41
13.83
11.14
8.48
5.8
2.89
-0.38
-4.01
-7.81
-11.45
-14.6
-17.1
-19.03
-20.69
-22.53
-24.92
-28.06
-31.8
-35.54
-38.43
-39.46
-37.8
-33.08
-25.55
-16.0
-5.59
4.48
13.25
20.13
24.91
27.68
28.62
27.99
26.07
23.16
19.62
15.91
12.48
9.76
8.02
7.39
7.75
8.81
10.25
11.73
13.04
14.13
14.99
15.66
16.06
16.08
15.54
14.27
12.2
9.37
5.92
2.06
-1.92
-5.78
-9.32
-12.5
-15.39
-18.19
-21.22
-24.77
-29.02
-33.83
-38.67
-42.6
-44.48
-43.36
-38.75
-30.9
-20.74
-9.64
1.02
10.18
17.21
21.98
24.68
25.66
25.3
23.92
21.86
19.39
16.79
14.31
12.23
10.73
9.92
9.79
10.28
11.25
12.61
14.22
15.9
17.44
18.56
19.05
18.76
17.69
15.94
13.65
10.96
7.91
4.53
0.82
-3.12
-7.18
-11.15
-14.92
-18.45
-21.86
-25.4
-29.33
-33.77
-38.49
-42.85
-45.91
-46.66
-44.32
-38.62
-29.93
-19.17
-7.55
3.71
13.58
21.43
26.97
30.22
31.43
30.96
29.25
26.74
23.81
20.78
17.94
15.45
13.43
11.94
10.99
10.56
10.61
11.04
11.7
12.4
12.92
13.11
12.88
12.26
11.31
10.01
8.31
6.1
3.34
0.12
-3.36
-6.79
-9.95
-12.76
-15.32
-17.83
-20.47
-23.34
-26.43
-29.67
-32.86
-35.71
-37.63
-37.88
-35.6
-30.14
-21.31
-9.47
4.59
19.93
35.62
50.77
64.24
74.46
79.42
77.15
66.47
47.6
22.38
-6.15
-34.51
-59.57
-79.04
-91.62
-96.96
-95.46
-88.26
-77.06
-63.9
-50.66
-38.73
-28.74
-20.67
-14.18
-8.93
-4.77
-1.63
0.58
2.11
3.3
4.42
5.49
6.38
6.81
6.57
5.59
3.84
1.3
-2.13
-6.41
-11.27
-15.94
-19.25
-19.91
-16.96
-10.21
-0.38
11.14
22.76
33.18
41.71
48.22
52.88
55.86
57.09
56.32
53.28
47.87
40.36
31.41
21.91
12.86
5.17
-0.49
-3.79
-4.71
-3.54
-0.74
3.11
7.42
11.59
15.1
17.45
18.34
17.69
15.7
12.87
9.88
7.44
6.18
6.41
8.01
10.3
12.1
11.99
8.65
1.31
-9.84
-23.59
-37.86
-50.18
-58.31
-60.75
-57.15
-48.28
-35.76
-21.59
-7.63
4.7
14.63
21.97
26.99
30.19
32.09
33.15
33.6
33.35
32.13
29.54
25.39
19.86
13.59
7.53
2.68
-0.3
-1.34
-0.93
0.08
0.87
0.94
0.27
-0.73
-1.42
-1.28
-0.13
1.71
3.45
4.03
2.4
-2.01
-9.11
-18.02
-27.38
-35.81
-42.41
-47.13
-50.58
-53.68
-57.01
-60.43
-63.07
-63.68
-61.2
-55.23
-46.17
-35.06
-23.22
-11.78
-1.52
7.19
14.22
19.58
23.24
25.2
25.57
24.63
22.81
20.67
18.66
17.11
16.11
15.59
15.39
15.41
15.67
16.2
17.01
18.03
19.07
19.85
20.11
19.66
18.39
16.28
13.38
9.78
5.59
1.03
-3.64
-8.11
-12.14
-15.6
-18.61
-21.48
-24.65
-28.49
-33.1
-38.24
-43.2
-46.96
-48.46
-46.9
-42.08
-34.41
-24.87
-14.66
-4.88
3.68
10.56
15.58
18.76
20.23
20.22
19.1
17.31
15.27
13.34
11.76
10.72
10.36
10.84
12.23
14.46
17.24
20.1
22.52
24.06
24.54
24.06
22.93
21.46
19.91
18.28
16.42
14.12
11.24
7.84
4.12
0.36
-3.24
-6.55
-9.56
-12.36
-15.17
-18.34
-22.25
-27.21
-33.18
-39.58
-45.31
-48.98
-49.38
-45.88
-38.68
-28.74
-17.42
-6.08
4.3
13.14
20.21
25.38
28.55
29.65
28.77
26.3
22.92
19.42
16.45
14.38
13.23
12.82
12.99
13.74
15.12
17.18
19.76
22.41
24.59
25.78
25.7
24.36
22.02
19.04
15.7
12.18
8.52
4.66
0.54
-3.81
-8.28
-12.62
-16.6
-20.02
-22.87
-25.34
-27.82
-30.76
-34.51
-39.08
-44.01
-48.36
-50.9
-50.47
-46.35
-38.56
-27.86
-15.62
-3.35
7.55
16.21
22.25
25.75
27.11
26.81
25.4
23.31
20.88
18.37
15.93
13.7
11.82
10.47
9.8
9.91
10.78
12.26
14.08
15.98
17.72
19.12
20.07
20.5
20.35
19.59
18.2
16.23
13.75
10.91
7.91
4.92
2.15
-0.3
-2.39
-4.26
-6.19
-8.59
-11.92
-16.55
-22.53
-29.48
-36.51
-42.37
-45.71
-45.49
-41.3
-33.57
-23.38
-12.18
-1.38
8.01
15.47
20.96
24.66
26.85
27.75
27.54
26.37
24.48
22.16
19.69
17.41
15.56
14.35
13.9
14.26
15.37
16.99
18.76
20.25
21.07
21.06
20.3
19.07
17.64
16.19
14.71
13.06
11.08
8.71
6.04
3.19
0.36
-2.3
-4.55
-6.13
-6.94
-7.19
-7.6
-9.29
-13.36
-20.29
-29.61
-39.81
-48.92
-55.21
-57.77
-56.7
-52.74
-46.75
-39.35
-30.85
-21.54
-11.93
-2.85
4.78
10.28
13.46
14.61
14.3
13.17
11.7
10.18
8.81
7.75
7.2
7.3
8.16
9.77
11.88
14.16
16.19
17.59
18.16
17.91
17.04
15.79
14.32
12.68
10.83
8.67
6.17
3.37
0.35
-2.77
-5.9
-8.98
-12.03
-15.15
-18.48
-22.23
-26.42
-30.86
-35.01
-38.05
-39.15
-37.69
-33.52
-26.98
-18.79
-9.87
-1.08
6.91
13.62
18.69
21.89
23.11
22.41
20.11
16.72
12.96
9.54
7.06
5.89
6.06
7.38
9.52
12.12
14.95
17.84
20.67
23.24
25.27
26.47
26.66
25.81
24.08
21.77
19.14
16.38
13.58
10.76
7.95
5.16
2.44
-0.18
-2.7
-5.14
-7.61
-10.33
-13.51
-17.22
-21.28
-25.11
-27.87
-28.67
-26.95
-22.62
-16.07
-7.95
1.05
10.29
19.15
26.86
32.52
35.28
34.62
30.65
24.21
16.7
9.65
4.42
1.92
2.51
6.03
11.87
18.99
26.02
31.48
34.09
33.07
28.36
20.66
11.25
1.68
-6.72
-13.16
-17.57
-20.48
-22.78
-25.19
-28.07
-31.3
-34.4
-36.82
-38.23
-38.59
-38.1
-37.14
-36.13
-35.5
-35.57
-36.45
-37.89
-39.14
-39.09
-36.55
-30.65
-21.18
-8.69
5.67
20.55
34.7
47.19
57.33
64.57
68.36
68.13
63.53
54.66
42.23
27.61
12.6
-0.97
-11.66
-18.8
-22.67
-24.44
-25.77
-28.28
-33.08
-40.47
-49.85
-59.89
-68.91
-75.2
-77.43
-74.95
-67.96
-57.53
-45.36
-33.38
-23.29
-16.09
-11.91
-10.14
-9.74
-9.68
-9.28
-8.44
-7.68
-7.88
-9.96
-14.37
-20.76
-27.88
-33.86
-36.75
-35.15
-28.69
-18.08
-4.83
9.21
22.42
33.66
42.44
48.74
52.88
55.32
56.52
56.85
56.57
55.82
54.69
53.29
51.85
50.77
50.57
51.73
54.4
58.26
62.46
65.8
67.16
65.87
61.98
56.27
50.01
44.61
41.35
41.04
43.89
49.37
56.17
62.2
64.94
61.95
51.54
33.27
8.09
-21.9
-53.95
-85.28
-113.41
-136.39
-152.69
-161.24
-161.35
-152.97
-136.87
-114.73
-88.97
-62.34
-37.4
-16.07
0.6
12.44
19.87
23.71
24.94
24.62
23.87
23.64
24.54
26.61
29.34
31.96
33.78
34.66
35.14
36.22
39.0
44.16
51.65
60.61
69.55
76.71
80.57
80.28
75.9
68.34
58.98
49.2
39.87
31.28
23.27
15.54
7.99
0.77
-5.87
-11.69
-16.61
-20.74
-24.31
-27.72
-31.5
-36.36
-42.95
-51.58
-61.95
-72.98
-83.16
-90.89
-95.06
-95.32
-92.11
-86.36
-79.18
-71.45
-63.76
-56.36
-49.28
-42.36
-35.3
-27.68
-18.97
-8.71
3.25
16.45
29.71
41.24
49.11
51.91
49.34
42.44
33.13
23.5
14.9
7.53
0.51
-7.39
-16.92
-27.81
-38.73
-47.83
-53.48
-54.81
-51.96
-45.87
-37.88
-29.38
-21.56
-15.33
-11.24
-9.5
-9.78
-11.26
-12.65
-12.48
-9.56
-3.32
5.98
17.27
29.05
39.77
48.24
53.87
56.7
57.25
56.32
54.63
52.69
50.66
48.42
45.68
42.29
38.37
34.29
30.61
27.82
26.2
25.7
26.01
26.72
27.41
27.77
27.6
26.82
25.37
23.24
20.4
16.92
12.93
8.59
4.12
-0.34
-4.69
-8.95
-13.17
-17.4
-21.75
-26.27
-31.04
-36.07
-41.22
-46.08
-49.95
-51.93
-51.16
-47.14
-39.93
-30.23
-19.16
-8.0
2.18
10.66
17.19
21.75
24.5
25.6
25.19
23.5
20.84
17.66
14.52
11.89
10.16
9.45
9.67
10.58
11.88
13.3
14.68
15.91
16.9
17.54
17.63
16.96
15.38
12.82
9.41
5.4
1.11
-3.12
-7.1
-10.74
-14.12
-17.42
-20.92
-24.93
-29.68
-35.19
-41.05
-46.41
-50.04
-50.7
-47.51
-40.32
-29.78
-17.18
-4.09
8.09
18.41
26.42
32.1
35.63
37.26
37.18
35.59
32.72
29.01
24.94
21.11
17.96
15.75
14.44
13.83
13.69
13.86
14.31
15.06
16.06
17.13
17.95
18.16
17.46
15.69
12.88
9.2
4.96
0.47
-3.92
-8.0
-11.69
-15.08
-18.41
-21.99
-26.2
-31.23
-37.01
-43.03
-48.34
-51.73
-52.06
-48.67
-41.62
-31.7
-20.22
-8.54
2.15
11.13
18.09
23.03
26.12
27.6
27.7
26.67
24.78
22.36
19.77
17.46
15.82
15.07
15.24
16.06
17.11
18.04
18.63
18.92
19.08
19.22
19.35
19.21
18.46
16.78
14.0
10.26
5.92
1.43
-2.79
-6.46
-9.55
-12.25
-14.96
-18.21
-22.51
-28.15
-34.95
-42.13
-48.28
-51.67
-50.72
-44.51
-33.19
-17.99
-0.86
16.03
30.99
43.09
52.25
59.01
64.1
68.1
71.2
73.14
73.46
71.74
67.84
62.12
55.37
48.56
42.58
38.0
34.97
33.21
32.14
30.98
28.81
24.77
18.28
9.23
-1.82
-13.76
-25.21
-34.95
-42.21
-46.84
-49.17
-49.81
-49.49
-48.98
-49.06
-50.48
-53.72
-58.76
-64.86
-70.59
-74.17
-73.93
-68.91
-59.21
-45.96
-31.02
-16.41
-3.82
5.79
12.21
15.84
17.33
17.33
16.24
14.3
11.66
8.59
5.47
2.82
1.08
0.46
0.87
1.96
3.33
4.69
5.98
7.24
8.53
9.77
10.66
10.81
9.89
7.78
4.67
0.95
-2.89
-6.45
-9.55
-12.17
-14.43
-16.49
-18.5
-20.66
-23.21
-26.38
-30.24
-34.41
-38.05
-40.01
-39.16
-34.83
-27.13
-16.91
-5.49
5.79
15.87
24.12
30.3
34.4
36.53
36.88
35.75
33.56
30.8
27.93
25.33
23.18
21.52
20.32
19.56
19.25
19.42
20.08
21.21
22.59
23.95
24.96
25.32
24.87
23.62
21.73
19.42
16.88
14.24
11.61
9.0
6.48
4.09
1.85
-0.16
-1.84
-3.03
-3.52
-3.26
-2.42
-1.4
-0.66
-0.41
-0.46
-0.19
1.16
4.11
8.6
13.96
19.13
22.99
24.73
24.05
21.07
16.3
10.4
4.04
-2.15
-7.65
-12.14
-15.51
-17.88
-19.5
-20.74
-21.92
-23.27
-24.86
-26.59
-28.24
-29.5
-30.04
-29.63
-28.17
-25.79
-22.88
-20.0
-17.69
-16.34
-15.99
-16.33
-16.9
-17.34
-17.52
-17.62
-17.99
-18.93
-20.56
-22.76
-25.28
-27.69
-29.39
-29.6
-27.39
-21.93
-12.94
-0.91
12.72
26.01
37.0
44.31
47.46
46.79
43.18
37.65
31.1
24.24
17.64
11.74
6.91
3.36
1.13
0.07
0.01
0.77
2.27
4.5
7.43
10.97
14.89
18.9
22.65
25.82
28.12
29.46
29.84
29.33
27.96
25.67
22.29
17.65
11.69
4.62
-3.08
-10.78
-17.87
-23.97
-29.09
-33.58
-38.0
-42.86
-48.36
-54.3
-59.96
-64.37
-66.52
-65.72
-61.75
-54.92
-45.98
-35.86
-25.53
-15.88
-7.62
-1.2
3.19
5.68
6.71
6.81
6.49
6.12
5.9
5.93
6.32
7.19
8.62
10.58
12.82
15.0
16.8
17.96
18.47
18.39
17.85
16.94
15.78
14.47
13.1
11.77
10.48
9.15
7.59
5.6
3.09
0.11
-3.14
-6.42
-9.51
-12.39
-15.16
-18.09
-21.54
-25.75
-30.73
-36.04
-40.84
-44.0
-44.44
-41.51
-35.31
-26.66
-16.88
-7.35
0.87
7.34
12.17
15.8
18.7
21.14
23.11
24.43
24.88
24.38
23.1
21.44
19.98
19.37
20.16
22.67
26.81
32.07
37.56
42.15
44.79
44.86
42.28
37.71
32.17
26.78
22.18
18.39
14.8
10.58
5.13
-1.69
-9.43
-17.37
-24.83
-31.42
-37.16
-42.36
-47.47
-52.8
-58.35
-63.67
-67.88
-69.86
-68.65
-63.79
-55.65
-45.28
-34.21
-23.9
-15.37
-9.03
-4.81
-2.38
-1.4
-1.61
-2.8
-4.75
-7.15
-9.63
-11.82
-13.43
-14.23
-14.12
-13.01
-10.92
-7.91
-4.22
-0.22
3.61
6.79
8.99
10.1
10.22
9.58
8.44
6.95
5.21
3.21
0.95
-1.57
-4.3
-7.19
-10.14
-13.04
-15.76
-18.25
-20.56
-22.88
-25.5
-28.57
-31.92
-34.92
-36.57
-35.77
-31.75
-24.34
-14.16
-2.42
9.48
20.28
29.07
35.49
39.52
41.39
41.4
39.87
37.11
33.47
29.3
24.98
20.9
17.4
14.78
13.23
12.82
13.44
14.81
16.51
18.09
19.2
19.65
19.46
18.79
17.87
16.8
15.59
14.1
12.18
9.72
6.75
3.46
0.19
-2.7
-4.86
-6.08
-6.35
-5.99
-5.64
-6.15
-8.34
-12.69
-19.0
-26.33
-33.17
-37.93
-39.45
-37.35
-32.08
-24.65
-16.16
-7.48
0.85
8.54
15.42
21.25
25.85
29.06
30.84
31.24
30.38
28.42
25.55
21.97
17.86
13.27
8.14
2.37
-3.92
-10.22
-15.7
-19.47
-21.03
-20.55
-18.82
-16.88
-15.47
-14.68
-14.01
-12.79
-10.64
-7.76
-4.86
-2.79
-2.12
-2.97
-5.1
-8.21
-12.13
-16.76
-21.85
-26.68
-30.01
-30.3
-26.34
-17.63
-4.73
10.89
27.25
42.32
54.47
62.7
66.68
66.71
63.54
58.21
51.75
44.99
38.49
32.45
26.97
22.11
18.01
14.86
12.89
12.23
12.85
14.59
17.17
20.2
23.27
25.9
27.66
28.19
27.36
25.27
22.33
19.08
15.99
13.32
10.99
8.68
5.96
2.49
-1.91
-7.24
-13.33
-19.87
-26.19
-31.35
-34.1
-33.25
-28.1
-18.79
-6.36
7.51
21.04
32.89
42.41
49.63
54.9
58.65
61.06
62.22
62.17
61.19
59.83
58.81
58.83
60.34
63.46
68.0
73.63
79.95
86.62
93.26
99.4
104.53
108.1
109.61
108.77
105.43
99.52
90.96
79.66
65.52
48.59
29.28
8.45
-12.5
-31.85
-48.0
-60.07
-68.41
-74.64
-81.06
-89.7
-101.31
-115.0
-128.69
-140.09
-147.77
-151.71
-152.97
-152.91
-152.35
-151.09
-148.23
-142.77
-134.27
-123.17
-110.63
-98.12
-86.85
-77.44
-69.85
-63.53
-57.77
-51.94
-45.69
-38.93
-31.76
-24.38
-17.02
-9.97
-3.51
2.05
6.39
9.15
10.01
8.7
5.08
-0.68
-8.06
-16.25
-24.36
-31.67
-37.83
-42.85
-46.94
-50.41
-53.47
-56.26
-58.77
-60.74
-61.63
-60.66
-57.01
-50.12
-40.02
-27.37
-13.31
0.9
14.15
25.72
35.25
42.6
47.71
50.63
51.5
50.57
48.28
45.16
41.81
38.8
36.52
35.17
34.67
34.79
35.26
35.94
36.8
37.9
39.18
40.38
41.01
40.51
38.5
34.97
30.32
25.21
20.36
16.27
13.07
10.6
8.5
6.34
3.79
0.58
-3.44
-8.19
-13.21
-17.66
-20.35
-20.09
-16.04
-8.13
2.91
15.74
28.89
41.11
51.48
59.47
64.62
66.48
64.78
59.66
51.91
42.91
34.3
27.5
23.18
21.17
20.69
20.69
20.36
19.23
17.23
14.47
11.08
7.12
2.67
-2.2
-7.35
-12.56
-17.63
-22.29
-26.29
-29.42
-31.57
-32.78
-33.26
-33.35
-33.37
-33.68
-34.53
-36.24
-39.08
-43.12
-47.97
-52.73
-56.05
-56.46
-53.0
-45.53
-34.92
-22.71
-10.64
-0.19
7.83
13.25
16.34
17.58
17.49
16.53
15.16
13.79
12.77
12.38
12.73
13.77
15.34
17.27
19.4
21.61
23.82
25.9
27.77
29.33
30.53
31.3
31.6
31.35
30.48
28.94
26.72
23.89
20.55
16.81
12.86
8.87
5.0
1.33
-2.15
-5.6
-9.25
-13.35
-17.97
-22.84
-27.34
-30.48
-31.19
-28.57
-22.27
-12.59
-0.47
12.77
25.79
37.43
46.96
54.0
58.52
60.71
60.84
59.25
56.29
52.36
47.89
43.37
39.33
36.09
33.69
31.78
29.72
26.81
22.59
16.96
10.31
3.29
-3.38
-9.11
-13.52
-16.49
-18.12
-18.74
-18.84
-18.99
-19.64
-20.97
-22.75
-24.42
-25.29
-24.85
-23.0
-20.13
-16.92
-14.01
-11.58
-9.08
-5.2
1.71
13.05
29.37
49.82
72.2
93.29
109.67
118.53
118.36
109.18
92.4
70.35
45.64
20.65
-2.74
-23.2
-39.85
-52.09
-59.49
-61.91
-59.64
-53.5
-44.9
-35.7
-27.91
-23.35
-23.31
-28.3
-37.99
-51.3
-66.72
-82.55
-97.24
-109.53
-118.65
-124.33
-126.86
-127.08
-126.12
-125.18
-125.19
-126.7
-129.78
-134.13
-139.1
-143.77
-146.91
-147.09
-142.92
-133.39
-118.19
-97.88
-73.69
-47.29
-20.36
5.48
28.89
48.78
64.38
75.41
82.19
85.47
86.35
85.86
84.76
83.49
82.2
80.99
80.07
79.84
80.83
83.5
88.01
94.08
100.85
107.1
111.54
113.28
112.11
108.6
103.85
98.99
94.71
91.07
87.51
83.24
77.68
70.81
63.22
55.96
50.23
46.87
45.9
46.28
45.9
42.13
32.79
17.03
-3.98
-27.2
-48.63
-64.5
-72.4
-71.71
-63.47
-49.55
-32.02
-12.68
7.06
26.03
43.19
57.74
69.18
77.53
83.3
87.4
90.93
94.91
100.16
107.11
115.77
125.74
136.28
146.45
155.33
162.18
166.51
168.14
167.12
163.66
158.11
150.94
142.7
133.9
124.92
115.92
106.94
97.99
89.31
81.35
74.61
69.28
64.93
60.44
54.23
44.83
31.37
13.97
-6.18
-27.14
-46.67
-62.85
-74.52
-81.6
-84.99
-86.19
-86.84
-88.17
-90.83
-94.91
-100.19
-106.41
-113.4
-121.11
-129.42
-138.04
-146.44
-153.85
-159.38
-162.27
-162.02
-158.6
-152.36
-143.99
-134.18
-123.48
-112.27
-100.89
-89.84
-79.84
-71.71
-66.04
-62.92
-61.82
-61.81
-61.83
-61.14
-59.63
-57.82
-56.73
-57.56
-61.23
-68.14
-77.84
-89.01
-99.55
-106.99
-109.06
-104.35
-92.77
-75.65
-55.43
-34.94
-16.75
-2.52
7.12
12.33
13.68
11.78
7.11
0.12
-8.54
-17.94
-26.84
-34.08
-38.87
-41.06
-41.09
-39.67
-37.37
-34.33
-30.31
-24.89
-17.85
-9.45
-0.43
8.19
15.5
20.95
24.49
26.5
27.53
28.06
28.29
28.14
27.34
25.53
22.42
17.84
11.81
4.71
-2.56
-8.45
-11.04
-8.55
-0.16
13.57
30.59
48.02
63.04
73.82
79.8
81.58
80.35
77.24
73.07
68.18
62.7
56.66
50.19
43.56
37.12
31.37
26.77
23.73
22.42
22.68
24.11
26.23
28.6
30.83
32.49
33.0
31.51
27.14
19.19
7.46
-7.68
-25.4
-44.74
-64.84
-85.08
-104.98
-124.03
-141.62
-157.17
-170.4
-181.43
-190.56
-197.69
-201.87
-201.12
-193.1
-176.04
-149.81
-116.37
-79.33
-42.74
-9.93
17.28
38.62
54.72
66.4
74.29
78.75
80.18
79.23
76.81
73.82
70.97
68.61
66.75
65.21
63.78
62.27
60.6
58.73
56.67
54.42
51.97
49.28
46.23
42.63
38.24
32.78
25.99
17.73
8.07
-2.72
