113.38
106.98
99.65
91.73
83.66
75.97
69.04
62.98
57.61
52.55
47.4
41.94
36.16
30.19
24.12
17.92
11.4
4.19
-3.99
-13.26
-23.38
-33.87
-44.08
-53.47
-61.78
-69.1
-75.8
-82.39
-89.4
-97.24
-106.05
-115.43
-124.27
-130.71
-132.54
-127.82
-115.64
-96.55
-72.49
-46.18
-20.36
2.83
22.11
36.91
47.2
53.25
55.56
54.88
52.16
48.4
44.5
41.09
38.59
37.16
36.83
37.45
38.77
40.47
42.23
43.81
45.09
46.07
46.76
47.1
46.95
45.97
43.82
40.13
34.71
27.65
19.21
9.83
-0.09
-10.24
-20.51
-30.82
-41.14
-51.36
-61.46
-71.58
-81.95
-92.6
-102.9
-111.33
-115.6
-113.37
-103.19
-85.2
-61.3
-34.58
-8.37
14.69
33.15
46.81
56.22
62.24
65.67
67.08
66.83
65.13
62.12
57.89
52.62
46.56
40.12
33.8
28.23
23.97
21.42
20.71
21.53
23.19
24.77
25.35
24.28
21.32
16.69
10.99
4.81
-1.33
-7.27
-13.09
-19.01
-25.21
-31.74
-38.46
-45.21
-51.83
-58.34
-64.99
-72.19
-80.46
-90.01
-100.5
-110.63
-118.22
-120.73
-116.04
-103.26
-83.19
-58.16
-31.27
-5.53
16.89
34.84
48.04
56.69
61.19
61.99
59.69
55.01
48.82
41.99
35.26
29.24
24.33
20.86
19.03
18.94
20.5
23.44
27.3
31.47
35.26
38.13
39.73
39.91
38.7
36.17
32.33
27.19
20.78
13.31
5.11
-3.41
-11.83
-19.9
-27.55
-34.91
-42.3
-50.19
-59.02
-68.96
-79.55
-89.44
-96.49
-98.3
-92.99
-79.89
-59.96
-35.53
-9.57
15.05
36.19
52.71
64.31
71.27
74.16
73.69
70.65
65.84
60.03
53.89
47.92
42.48
37.84
34.2
31.74
30.61
30.78
32.06
33.97
35.86
36.99
36.74
34.78
31.11
26.08
20.2
13.92
7.45
0.78
-6.3
-13.92
-22.03
-30.32
-38.3
-45.55
-51.88
-57.41
-62.56
-68.02
-74.49
-82.47
-91.83
-101.51
-109.46
-113.04
-109.81
-98.4
-79.15
-54.14
-26.53
0.35
23.86
42.49
55.81
64.06
67.88
68.01
65.28
60.64
55.02
49.3
44.1
39.75
36.39
34.11
33.09
33.61
35.92
40.0
45.46
51.44
56.82
60.55
61.91
60.76
57.45
52.68
47.15
41.33
35.4
29.2
22.42
14.79
6.22
-3.09
-12.73
-22.2
-31.07
-39.22
-46.89
-54.72
-63.55
-74.03
-86.16
-98.91
-110.12
-116.95
-116.71
-107.78
-90.32
-66.36
-39.16
-12.27
11.49
30.5
44.3
53.26
58.03
59.29
57.65
53.78
48.37
42.17
35.83
29.88
24.72
20.68
18.11
17.28
18.33
21.12
25.15
29.65
33.77
36.78
38.21
37.96
36.14
32.96
28.61
23.16
16.67
9.22
1.02
-7.61
-16.27
-24.63
-32.46
-39.77
-46.79
-53.94
-61.77
-70.69
-80.68
-90.9
-99.56
-104.22
-102.45
-92.74
-75.14
-51.45
-24.7
1.79
25.22
43.91
57.26
65.51
69.25
69.25
66.34
61.41
55.31
48.77
42.3
36.2
30.73
26.15
22.86
21.27
21.61
23.72
27.09
30.86
34.16
36.26
36.78
35.7
33.21
29.61
25.11
19.8
13.69
6.78
-0.85
-8.94
-17.19
-25.3
-33.09
-40.52
-47.74
-55.02
-62.78
-71.46
-81.33
-92.09
-102.61
-110.84
-114.2
-110.36
-98.12
-77.97
-52.12
-23.78
3.75
27.9
47.24
61.4
70.64
75.53
76.7
74.81
70.55
64.66
57.91
50.99
44.48
38.89
34.61
31.95
31.1
32.03
34.48
37.93
41.68
44.93
47.0
47.43
46.12
43.2
38.99
33.77
27.7
20.83
13.17
4.82
-3.95
-12.76
-21.2
-28.97
-35.99
-42.45
-48.8
-55.67
-63.65
-72.98
-83.15
-92.7
-99.38
-100.65
-94.59
-80.62
-59.88
-34.95
-9.08
14.77
34.56
49.36
59.14
64.36
65.67
63.67
59.06
52.55
44.87
36.72
28.69
21.3
15.0
10.29
7.56
7.02
8.63
11.98
16.39
21.05
25.22
28.3
29.96
30.04
28.55
25.57
21.19
15.55
8.85
1.35
-6.61
-14.64
-22.42
-29.76
-36.75
-43.68
-51.05
-59.42
-69.1
-79.87
-90.69
-99.67
-104.44
-102.7
-93.11
-75.77
-52.37
-25.74
0.91
24.79
44.09
58.08
66.9
71.15
71.62
69.04
64.08
57.37
49.55
41.31
33.41
26.55
21.3
17.96
16.54
16.77
18.23
20.44
23.01
25.6
27.86
29.44
29.95
28.99
26.26
21.65
15.33
7.65
-0.78
-9.36
-17.54
-25.04
-31.87
-38.32
-44.91
-52.3
-61.1
-71.52
-83.07
-94.28
-102.81
-105.95
-101.51
-88.65
-68.29
-42.96
-16.03
9.3
30.68
46.98
58.11
64.57
67.12
66.55
63.58
58.86
52.97
46.41
39.63
33.1
27.34
22.83
20.0
19.01
19.7
21.68
24.39
27.27
29.82
31.66
32.43
31.84
29.63
25.66
19.93
12.68
4.4
-4.34
-12.95
-20.95
-28.22
-34.9
-41.43
-48.33
-56.19
-65.44
-76.17
-87.87
-99.22
-108.07
-111.91
-108.6
-97.16
-78.26
-54.17
-28.05
-3.07
18.38
35.13
47.09
54.78
58.9
59.95
58.26
54.2
48.46
42.08
36.3
32.17
30.21
30.26
31.63
33.57
35.59
37.61
39.91
42.74
46.15
49.93
53.76
57.35
60.49
62.99
64.6
64.98
63.86
61.06
56.65
50.8
43.74
35.64
26.57
16.55
5.52
-6.59
-19.9
-34.32
-49.3
-63.55
-74.99
-81.16
-80.01
-70.64
-53.88
-32.14
-8.7
13.23
31.36
44.62
53.06
57.28
58.01
55.81
51.11
44.38
36.25
27.49
18.92
11.18
4.65
-0.56
-4.54
-7.43
-9.29
-10.07
-9.72
-8.22
-5.78
-2.88
-0.21
1.48
1.63
0.13
-2.66
-5.97
-8.99
-11.18
-12.54
-13.6
-15.2
-18.24
-23.41
-30.89
-40.31
-50.53
-59.69
-65.49
-65.68
-58.75
-44.54
-24.38
-0.84
23.02
44.51
61.84
74.26
81.87
85.16
84.76
81.23
75.1
66.97
57.51
47.44
37.41
27.98
19.53
12.33
6.56
2.35
-0.2
-1.06
-0.35
1.62
4.31
6.96
8.71
8.75
6.55
2.01
-4.42
-11.9
-19.47
-26.35
-32.24
-37.37
-42.38
-48.15
-55.42
-64.57
-75.24
-86.16
-95.19
-99.76
-97.57
-87.37
-69.51
-45.99
-19.79
5.86
28.5
46.68
60.06
68.92
73.71
74.85
72.69
67.7
60.56
52.2
43.65
35.8
29.21
24.04
20.14
17.24
15.18
13.97
13.74
14.55
16.13
17.87
18.86
18.23
15.42
10.41
3.69
-3.89
-11.44
-18.3
-24.2
-29.36
-34.33
-39.99
-47.24
-56.73
-68.44
-81.43
-93.74
-102.7
-105.67
-100.84
-87.91
-68.21
-44.37
-19.45
3.81
23.51
38.71
49.18
55.18
57.19
55.88
52.07
46.71
40.66
34.57
28.78
23.37
18.25
13.39
8.92
5.19
2.6
1.54
2.07
3.8
5.91
7.28
6.91
4.18
-0.87
-7.61
-15.11
-22.47
-29.17
-35.23
-41.18
-47.79
-55.88
-65.89
-77.52
-89.51
-99.65
-105.18
-103.57
-93.38
-74.93
-50.29
-22.75
4.19
27.69
46.1
58.99
66.73
70.01
69.53
65.95
59.94
52.34
44.03
35.93
28.68
22.6
17.73
13.94
11.24
9.8
9.88
11.61
14.64
18.08
20.63
20.99
18.32
12.56
4.45
-4.78
-13.89
-22.05
-29.04
-35.28
-41.6
-49.04
-58.5
-70.31
-83.88
-97.43
-108.2
-113.04
-109.46
-96.47
-75.15
-48.31
-19.68
7.25
29.96
47.21
58.83
65.22
67.0
64.9
59.77
52.6
44.48
36.36
28.88
22.29
16.53
11.44
6.95
3.22
0.59
-0.6
-0.34
0.94
2.38
2.89
1.49
-2.36
-8.57
-16.53
-25.34
-34.12
-42.3
-49.81
-57.05
-64.73
-73.68
-84.49
-97.15
-110.6
-122.71
-130.63
-131.48
-123.3
-105.79
-80.48
-50.38
-19.0
10.52
36.08
56.75
72.45
83.58
90.63
94.1
94.52
92.52
88.81
84.03
78.65
72.91
66.89
60.72
54.66
49.27
45.24
43.07
42.88
44.14
45.82
46.61
45.37
41.51
35.17
27.09
18.31
9.82
2.21
-4.49
-10.71
-17.23
-24.92
-34.45
-45.88
-58.37
-69.98
-78.03
-79.71
-73.15
-58.12
-36.32
-10.89
14.58
37.08
54.79
67.12
74.3
76.89
75.39
70.31
62.3
52.32
41.6
31.4
22.66
15.92
11.16
8.09
6.33
5.66
6.01
7.34
9.47
11.92
13.92
14.58
13.12
9.12
2.71
-5.55
-14.72
-23.88
-32.3
-39.75
-46.46
-53.14
-60.74
-70.08
-81.45
-94.15
-106.3
-115.07
-117.42
-111.08
-95.4
-71.72
-43.07
-13.23
14.3
37.13
54.18
65.47
71.6
73.29
71.27
66.27
59.14
50.92
42.63
35.19
29.16
24.69
21.61
19.59
18.33
17.73
17.87
18.86
20.7
23.09
25.39
26.73
26.2
23.17
17.51
9.69
0.63
-8.54
-16.87
-23.9
-29.78
-35.19
-41.06
-48.34
-57.59
-68.7
-80.63
-91.35
-98.19
-98.44
-90.22
-73.23
-48.98
-20.49
8.6
34.99
56.46
72.04
81.84
86.52
86.9
83.76
77.82
69.88
60.89
51.85
43.66
37.02
32.23
29.23
27.74
27.43
28.0
29.27
31.09
33.23
35.31
36.76
36.9
35.13
30.99
24.34
15.5
5.15
-5.75
-16.18
-25.36
-32.94
-39.09
-44.42
-49.83
-56.3
-64.62
-75.05
-86.92
-98.44
-106.93
-109.4
-103.58
-88.74
-66.14
-38.72
-10.22
15.95
37.46
53.35
63.74
69.25
70.62
68.53
63.61
56.68
48.73
40.8
33.78
28.23
24.28
21.78
20.38
19.83
19.95
20.7
22.02
23.74
25.52
26.78
26.87
25.12
21.1
14.76
6.45
-3.11
-12.99
-22.3
-30.48
-37.46
-43.62
-49.75
-56.73
-65.3
-75.65
-87.1
-97.99
-105.81
-107.86
-102.01
-87.57
-65.62
-38.77
-10.46
16.05
38.41
55.47
67.11
73.78
76.15
74.9
70.67
64.21
56.34
47.95
39.83
32.66
26.87
22.7
20.23
19.42
20.05
21.77
24.08
26.43
28.28
29.18
28.83
26.99
23.54
18.37
11.58
3.53
-5.17
-13.76
-21.58
-28.32
-34.1
-39.45
-45.04
-51.64
-59.86
-70.04
-81.87
-94.18
-104.74
-110.65
-109.1
-98.35
-78.52
-51.76
-21.68
7.82
33.55
53.67
67.75
76.31
80.24
80.43
77.64
72.58
65.97
58.57
51.08
44.07
37.95
32.94
29.18
26.75
25.66
25.81
26.99
28.84
30.94
32.81
34.02
34.07
32.57
29.21
23.85
16.63
8.01
-1.35
-10.76
-19.66
-27.76
-35.07
-41.86
-48.64
-56.06
-64.81
-75.28
-87.13
-98.97
-108.33
-112.19
-107.99
-94.59
-72.87
-45.56
-16.37
11.14
34.45
52.44
65.05
72.76
76.17
75.75
72.02
65.64
57.58
48.91
40.61
33.42
27.67
23.45
20.65
19.15
18.82
19.55
21.14
23.28
25.54
27.42
28.37
27.9
25.59
21.2
14.81
6.84
-2.01
-10.93
-19.26
-26.72
-33.41
-39.77
-46.47
-54.23
-63.59
-74.6
-86.5
-97.49
-104.9
-105.9
-98.4
-81.91
-57.96
-29.68
-0.88
25.07
46.02
61.16
70.71
75.35
75.76
72.51
66.23
57.72
48.07
38.45
29.87
22.98
17.99
14.78
13.1
12.72
13.52
15.38
18.11
21.37
24.64
27.27
28.5
27.68
24.33
18.35
10.09
0.33
-9.88
-19.55
-28.06
-35.31
-41.82
-48.49
-56.37
-66.27
-78.4
-91.94
-104.93
-114.48
-117.49
-111.57
-95.99
-72.06
-42.8
-12.04
16.61
40.64
58.88
71.29
78.42
80.98
79.7
75.24
68.39
60.01
51.03
42.3
34.49
28.03
23.14
19.85
18.07
17.59
18.13
19.33
20.82
22.18
23.0
22.84
21.26
17.88
12.53
5.34
-3.23
-12.44
-21.59
-30.16
-38.01
-45.41
-52.89
-61.13
-70.77
-82.2
-95.32
-109.23
-122.0
-130.88
-132.97
-126.1
-109.76
-85.52
-56.62
-27.07
-0.45
20.92
36.23
45.81
50.56
51.34
48.79
43.34
35.46
25.84
15.45
5.48
-2.88
-8.65
-11.23
-10.56
-7.07
-1.51
5.22
12.34
19.23
25.45
30.57
34.15
35.76
35.16
32.42
28.0
22.65
17.13
12.01
7.49
3.49
-0.35
-4.41
-9.11
-14.9
-22.18
-31.13
-41.31
-51.33
-58.75
-60.61
-54.29
-38.55
-14.27
15.73
47.4
76.73
100.7
117.81
127.9
131.63
129.88
123.53
113.39
100.37
85.6
70.35
55.86
43.13
32.76
24.9
19.31
15.61
13.41
12.4
12.48
13.56
15.47
17.75
19.67
20.27
18.7
14.48
7.75
-0.78
-10.07
-19.13
-27.31
-34.52
-41.1
-47.67
-54.95
-63.58
-73.89
-85.69
-97.87
-108.36
-114.37
-113.17
-103.06
-84.12
-58.32
-29.02
0.09
25.98
46.83
62.03
71.81
76.74
77.41
74.39
68.31
59.96
50.39
40.7
31.96
24.94
20.02
17.14
15.99
16.12
17.11
18.7
20.7
22.89
24.96
26.35
26.36
24.34
19.87
13.03
4.39
-5.05
-14.2
-22.26
-28.94
-34.5
-39.68
-45.44
-52.71
-62.2
-74.03
-87.49
-100.75
-111.0
-115.06
-110.34
-95.81
-72.55
-43.55
-12.77
15.93
39.84
57.68
69.52
76.08
78.28
76.94
72.72
66.28
58.39
49.93
41.78
34.69
29.09
25.13
22.7
21.56
21.42
22.09
23.37
25.1
26.97
28.54
29.14
28.11
24.88
19.21
11.31
1.83
-8.29
-18.13
-27.0
-34.64
-41.19
-47.14
-53.18
-60.18
-68.95
-80.01
-93.09
-106.82
-118.61
-125.17
-123.49
-111.9
-90.84
-62.8
-31.65
-1.39
24.86
45.38
59.78
68.55
72.44
72.25
68.63
62.27
53.98
44.68
35.4
27.05
20.43
15.98
13.78
13.67
15.21
17.92
21.29
24.83
28.09
30.64
32.03
31.85
29.82
25.91
20.38
13.88
7.26
1.36
-3.35
-6.88
-9.79
-13.0
-17.51
-24.2
-33.61
-45.87
-60.39
-75.66
-89.17
-97.73
-98.35
-89.22
-70.55
-44.69
-15.43
13.12
37.71
56.54
69.24
76.35
78.71
77.11
72.18
64.59
55.13
44.79
34.6
25.46
18.01
12.53
8.96
7.01
6.29
6.44
7.2
8.36
9.67
10.67
10.67
8.83
4.43
-2.83
-12.64
-24.03
-35.67
-46.29
-55.07
-61.88
-67.25
-72.11
-77.55
-84.43
-93.19
-103.43
-113.79
-121.94
-124.99
-120.32
-106.47
-83.84
-54.67
-22.5
8.94
36.74
59.32
76.43
88.6
96.57
100.83
101.68
99.33
94.23
87.16
79.17
71.34
64.54
59.28
55.66
53.49
52.45
52.18
52.33
52.63
52.81
52.61
51.71
49.7
46.17
40.79
33.47
24.51
14.53
4.35
-5.31
-14.04
-21.88
-29.19
-36.61
-44.82
-54.45
-65.83
-78.72
-91.96
-103.4
-110.18
-109.45
-99.4
-80.02
-53.27
-22.65
7.87
34.92
56.35
71.48
80.65
84.74
84.66
81.25
75.25
67.42
58.63
49.82
41.94
35.68
31.47
29.29
28.84
29.64
31.2
33.1
35.0
36.62
37.62
37.6
36.18
33.05
28.08
21.39
13.37
4.6
-4.24
-12.59
-20.09
-26.69
-32.67
-38.55
-45.01
-52.79
-62.46
-74.2
-87.37
-100.23
-110.11
-113.92
-109.16
-94.9
-72.28
-44.28
-14.79
12.53
35.17
52.02
63.11
69.04
70.48
67.99
62.21
53.94
44.32
34.58
25.88
19.02
14.33
11.7
10.81
11.24
12.72
15.09
18.28
22.12
26.23
29.87
32.13
32.07
29.03
22.94
14.34
4.26
-6.12
-15.85
-24.45
-31.98
-38.91
-45.95
-53.88
-63.39
-74.73
-87.38
-99.7
-109.08
-112.43
-107.16
-92.26
-68.75
-39.55
-8.57
20.46
44.89
63.45
76.06
83.27
85.77
84.27
79.38
71.84
62.55
52.54
42.89
34.53
28.23
24.33
22.82
23.31
25.2
27.82
30.61
33.17
35.19
36.39
36.43
34.92
31.56
26.2
19.02
10.45
1.07
-8.55
-17.98
-27.01
-35.59
-43.82
-51.88
-60.12
-69.1
-79.31
-90.8
-102.7
-112.95
-118.56
-116.58
-105.13
-84.34
-56.38
-24.89
6.19
33.67
55.7
71.65
81.71
86.43
86.46
82.53
75.55
66.6
56.82
47.23
38.66
31.69
26.7
23.82
22.99
23.9
26.05
28.87
31.84
34.52
36.59
37.7
37.49
35.55
31.53
25.28
16.96
7.06
-3.7
-14.52
-24.69
-33.79
-41.71
-48.71
-55.41
-62.67
-71.46
-82.41
-95.33
-108.85
-120.32
-126.4
-124.09
-111.74
-89.86
-61.03
-29.14
1.81
28.73
49.89
64.84
73.92
77.74
77.02
72.51
65.15
56.13
46.66
37.84
30.42
24.73
20.74
18.25
17.01
16.9
17.88
19.96
23.0
26.65
30.22
32.82
33.49
31.47
26.44
18.64
8.82
-1.94
-12.6
-22.42
-31.13
-38.97
-46.52
-54.55
-63.78
-74.61
-86.8
-99.11
-109.28
-114.38
-111.65
-99.47
-78.18
-50.14
-19.15
10.71
36.21
55.67
68.88
76.58
79.77
79.31
75.75
69.61
61.56
52.49
43.34
35.02
28.19
23.19
20.11
18.88
19.31
21.06
23.73
26.84
29.86
32.28
33.58
33.27
30.9
26.2
19.19
10.28
0.25
-10.0
-19.64
-28.23
-35.73
-42.54
-49.3
-56.82
-65.9
-77.08
-90.23
-104.16
-116.5
-124.01
-123.56
-113.22
-93.02
-65.15
-33.3
-1.5
26.95
50.07
67.21
78.6
84.85
86.58
84.39
78.91
70.95
61.49
51.63
42.42
34.76
29.2
25.93
24.76
25.25
26.86
29.06
31.46
33.74
35.61
36.66
36.35
34.11
29.52
22.55
13.6
3.5
-6.77
-16.34
-24.71
-31.86
-38.21
-44.5
-51.59
-60.35
-71.38
-84.58
-98.81
-111.74
-120.17
-120.91
-111.83
-92.75
-65.67
-34.21
-2.5
25.91
48.86
65.55
76.2
81.47
82.09
78.71
72.08
63.14
53.03
43.01
34.14
27.09
22.06
18.84
17.06
16.39
16.72
18.08
20.48
23.75
27.31
30.28
31.6
30.33
25.93
18.47
8.65
-2.4
-13.45
-23.56
-32.31
-39.92
-47.06
-54.69
-63.71
-74.59
-87.01
-99.58
-109.85
-114.77
-111.59
-98.79
-76.83
-48.14
-16.47
14.2
40.77
61.54
76.06
84.75
88.24
87.09
81.79
73.01
61.74
49.34
37.3
26.89
18.91
13.59
10.67
9.66
10.09
11.66
14.15
17.35
20.87
23.99
25.81
25.36
21.98
15.61
6.82
-3.31
-13.54
-22.86
-30.86
-37.81
-44.45
-51.75
-60.64
-71.76
-85.22
-100.24
-114.94
-126.4
-131.2
-126.49
-111.07
-86.03
-54.58
-21.1
10.17
36.14
55.32
67.63
73.75
74.69
71.45
65.02
56.39
46.55
36.35
26.39
17.05
8.6
1.33
-4.34
-7.95
-9.26
-8.41
-6.08
-3.32
-1.28
-0.85
-2.39
-5.63
-9.86
-14.06
-17.36
-19.15
-19.33
-18.18
-16.3
-14.31
-12.74
-11.85
-11.69
-12.21
-13.35
-14.9
-16.48
-17.41
-16.99
-14.64
-10.09
-3.27
6.0
18.08
33.3
51.39
70.89
89.05
102.57
108.66
106.05
95.33
78.4
57.46
34.16
9.39
-16.33
-42.28
-67.24
-89.71
-108.52
-123.43
-135.35
-146.03
-157.28
-170.23
-184.8
-199.62
-212.42
-220.56
-221.86
-215.04
-200.13
-178.49
-152.62
-125.78
-101.4
-82.49
-70.99
-67.52
-71.32
-80.56
-92.79
-105.22
-115.06
-119.74
-117.2
-106.29
-87.08
-61.03
-30.64
1.06
31.25
57.88
79.89
97.01
109.49
117.72
122.12
123.06
120.97
116.39
109.94
102.27
94.03
85.82
78.21
71.71
66.76
63.67
62.51
62.96
64.31
65.57
65.67
63.76
59.49
53.04
45.04
36.32
27.63
19.4
11.6
3.79
-4.85
-15.24
-28.03
-43.16
-59.46
-74.64
-85.65
-89.55
-84.43
-70.08
-48.03
-21.12
7.4
34.69
58.74
78.37
93.11
102.85
107.78
108.39
105.43
99.85
92.65
84.64
76.39
68.2
60.2
52.49
45.21
38.61
33.04
28.9
26.41
25.51
25.69
26.12
25.74
23.7
19.6
13.58
6.24
-1.64
-9.44
-16.9
-24.23
-32.03
-41.22
-52.66
-66.76
-82.96
-99.42
-113.06
-120.06
-116.99
-101.79
-74.61
-37.87
4.37
47.43
87.05
120.21
145.39
162.46
172.28
176.23
175.78
172.19
166.37
158.86
149.95
139.8
128.53
116.39
103.81
91.41
79.99
70.35
63.06
58.13
54.95
52.35
49.0
43.81
36.31
26.76
15.9
4.66
-6.23
-16.46
-26.15
-35.72
-45.85
-57.22
-70.3
-85.04
-100.5
-114.75
-125.18
-129.11
-124.64
-111.3
-90.13
-63.43
-34.0
-4.55
22.79
46.53
65.73
79.86
88.86
93.06
93.25
90.51
85.94
80.46
74.69
68.97
63.52
58.62
54.59
51.82
50.54
50.67
51.76
53.04
53.63
52.76
50.05
45.49
39.47
32.57
25.35
18.23
11.39
4.8
-1.84
-9.01
-17.17
-26.47
-36.43
-45.71
-52.34
-54.24
-49.95
-39.21
-23.1
-3.69
16.56
35.46
51.41
63.42
71.0
73.98
72.55
67.21
58.84
48.6
37.76
27.41
18.37
11.06
5.54
1.7
-0.64
-1.64
-1.41
-0.07
2.09
4.59
6.7
7.65
6.84
3.99
-0.66
-6.52
-12.9
-19.19
-25.14
-30.9
-36.89
-43.71
-51.87
-61.55
-72.37
-83.16
-92.04
-96.74
-95.21
-86.42
-70.68
-49.73
-26.17
-2.74
18.34
35.74
48.91
57.85
62.76
64.0
62.05
57.62
51.61
44.92
38.27
32.0
26.17
20.62
15.34
10.52
6.64
4.15
3.32
3.97
5.44
6.83
7.27
6.15
3.35
-0.85
-5.92
-11.27
-16.5
-21.5
-26.46
-31.85
-38.28
-46.23
-55.72
-66.04
-75.66
-82.46
-84.27
-79.64
-68.35
-51.55
-31.39
-10.41
9.19
25.93
39.13
48.61
54.45
56.79
55.87
52.14
46.33
39.31
31.91
24.77
18.18
12.2
6.78
2.03
-1.78
-4.29
-5.23
-4.67
-3.11
-1.41
-0.57
-1.45
-4.51
-9.66
-16.29
-23.46
-30.14
-35.59
-39.51
-42.19
-44.39
-47.08
-51.05
-56.53
-62.87
-68.56
-71.61
-70.1
-62.9
-50.12
-33.09
-13.92
5.13
22.24
36.29
46.88
54.02
57.95
58.97
57.51
54.17
49.67
44.79
40.2
36.29
33.17
30.67
28.54
26.67
25.11
24.06
23.77
24.19
25.0
25.47
24.84
22.51
18.38
12.85
6.64
0.51
-5.09
-10.12
-14.98
-20.3
-26.72
-34.58
-43.66
-53.06
-61.27
-66.42
-66.86
-61.62
-50.83
-35.76
-18.41
-0.91
15.08
28.63
39.47
47.61
53.0
55.52
55.03
51.71
46.22
39.7
33.56
29.15
27.52
29.17
34.05
41.61
50.97
61.18
71.49
81.57
91.42
101.19
110.86
120.01
127.75
133.06
135.03
133.35
128.43
121.39
113.76
107.17
102.99
102.05
104.39
109.06
114.03
116.44
113.21
102.05
82.6
56.94
29.33
5.0
-11.61
-18.43
-16.59
-10.03
-4.21
-4.51
-14.95
-37.6
-72.55
-118.13
-171.07
-226.51
-278.39
-320.23
-346.56
-354.44
-344.27
-319.55
-285.58
-247.75
-210.3
-175.8
-145.64
-120.62
-101.39
-88.27
-80.79
-77.43
-75.8
-73.33
-68.22
-59.93
-49.43
-38.71
-30.11
-25.52
-25.78
-30.48
-37.99
-45.91
-51.71
-53.37
-49.79
-40.96
-27.77
-11.77
5.23
21.43
35.2
45.29
50.95
52.05
49.12
43.27
35.95
28.66
22.63
18.55
16.54
16.26
17.13
18.65
20.48
22.52
24.63
26.53
27.7
27.54
25.69
22.31
18.12
14.28
12.0
12.05
14.47
18.37
22.09
23.65
21.38
14.66
4.3
-7.37
-17.14
-21.82
-19.51
-10.3
3.58
18.65
31.48
40.06
44.28
45.73
46.61
48.7
52.52
57.49
62.32
65.72
66.84
65.31
61.03
53.96
44.21
32.16
18.53
4.45
-8.89
-20.43
-29.56
-36.16
-40.6
-43.52
-45.66
-47.79
-50.45
-53.97
-58.42
-63.58
-69.0
-74.17
-78.68
-82.33
-85.19
-87.53
-89.81
-92.59
-96.46
-101.94
-109.21
-117.79
-126.37
-132.85
-134.88
-130.6
-119.29
-101.75
-80.04
-56.71
-34.0
-13.2
5.43
22.27
37.69
51.68
63.74
73.14
79.39
82.52
83.18
82.36
81.05
79.94
79.3
79.07
79.18
79.64
80.68
82.51
85.18
88.32
91.16
92.57
91.29
86.18
76.55
62.33
44.25
23.7
2.49
-17.53
-34.95
-49.03
-59.78
-67.72
-73.64
-78.19
-81.61
-83.62
-83.51
-80.4
-73.6
-62.87
-48.66
-32.03
-14.37
2.84
18.36
31.3
41.16
47.71
50.98
51.24
49.01
45.02
40.13
35.12
30.58
26.79
23.75
21.3
19.35
17.96
17.33
17.63
18.81
20.5
21.98
22.43
21.19
17.99
13.05
6.98
0.59
-5.4
-10.5
-14.6
-17.89
-20.8
-23.87
-27.59
-32.28
-37.81
-43.54
-48.24
-50.3
-48.26
-41.28
-29.57
-14.39
2.3
18.43
32.36
43.16
50.52
54.53
55.47
53.76
49.98
44.9
39.42
34.35
30.24
27.29
25.45
24.55
24.45
25.18
26.73
29.06
31.91
34.91
37.61
39.69
41.05
41.73
41.96
41.94
41.81
41.65
41.46
41.22
40.86
40.23
39.13
37.42
35.29
33.39
32.83
34.89
40.62
50.55
64.66
82.49
103.42
126.59
150.59
173.22
191.33
201.41
200.51
187.32
162.93
130.88
96.49
65.63
43.24
32.17
32.49
41.69
55.63
69.84
80.9
87.2
89.03
87.92
85.64
83.32
80.9
77.19
70.4
58.83
41.59
18.8
-8.47
-38.84
-71.1
-104.52
-138.69
-173.02
-206.35
-236.94
-262.96
-283.06
-296.94
-305.23
-309.14
-309.78
-307.82
-303.47
-296.77
-288.05
-277.98
-267.49
-257.42
-248.1
-239.14
-229.33
-216.95
-200.25
-178.14
-150.8
-119.93
-88.49
-59.86
-36.8
-20.61
-10.84
-5.74
-3.21
-1.65
-0.37
0.52
0.71
0.16
-0.68
-1.11
-0.53
1.2
3.63
6.0
7.43
7.26
5.2
1.3
-3.98
-9.84
-15.14
-18.6
-18.99
-15.53
-8.06
2.85
16.16
30.58
44.81
57.66
68.17
75.66
79.75
80.56
78.63
74.81
70.03
65.0
60.09
55.31
50.59
45.89
41.36
37.4
34.41
32.7
32.26
32.76
33.6
34.1
33.7
32.07
29.26
25.54
21.32
16.99
12.74
8.53
4.04
-1.14
-7.47
-15.16
-23.99
-33.24
-41.64
-47.64
-49.74
-46.98
-39.26
-27.34
-12.69
2.95
18.01
31.33
42.23
50.45
56.0
59.1
60.15
59.66
58.17
56.17
53.91
51.49
48.89
46.19
43.64
41.67
40.72
40.97
42.28
44.05
45.49
45.82
44.6
41.82
37.88
33.29
28.51
23.63
18.31
11.96
3.86
-6.47
-19.06
-33.29
-47.83
-60.86
-70.32
-74.51
-72.53
-64.63
-52.09
-36.9
-21.09
-6.25
6.72
17.61
26.54
33.71
39.21
43.0
45.03
45.41
44.37
42.31
39.64
36.75
33.95
31.49
29.59
28.45
28.2
28.86
30.26
32.01
33.58
34.47
34.3
33.0
30.74
27.8
24.45
20.85
17.07
13.22
9.53
6.33
3.93
2.54
2.2
2.92
4.81
8.17
13.37
20.65
29.96
40.94
53.17
66.4
80.77
96.78
114.85
134.93
156.2
177.19
196.22
211.92
223.57
231.11
234.81
234.89
231.32
223.97
212.96
198.92
182.95
166.25
149.5
132.52
114.31
93.62
69.61
42.34
12.7
-18.09
-49.14
-80.28
-111.84
-144.21
-177.29
-210.31
-242.24
-271.96
-298.35
-319.81
-333.86
-337.32
-327.35
-302.85
-265.66
-220.48
-173.57
-130.71
-95.49
-68.83
-49.58
-35.96
-26.65
-21.17
-19.49
-21.34
-25.81
-31.42
-36.63
-40.37
-42.34
-42.95
-42.91
-42.75
-42.5
-41.76
-40.0
-36.99
-33.11
-29.3
-26.68
-26.03
-27.51
-30.56
-34.22
-37.56
-40.15
-42.2
-44.46
-47.95
-53.5
-61.37
-71.0
-80.98
-89.27
-93.77
-92.93
-86.21
-74.24
-58.52
-40.9
-23.07
-6.23
8.9
21.84
32.23
39.74
44.23
45.94
45.48
43.76
41.72
40.17
39.61
40.22
41.89
44.24
46.83
49.21
51.18
52.79
54.33
56.15
58.45
61.17
63.95
66.36
68.08
69.03
69.42
69.6
69.96
70.88
72.72
75.65
79.61
84.03
87.88
90.04
89.96
88.2
86.76
88.5
96.12
111.01
132.51
158.04
183.97
206.7
223.6
233.33
235.79
231.84
222.99
211.12
198.07
185.19
172.83
160.14
145.15
125.55
99.57
66.83
28.77
-11.77
-51.41
-87.4
-118.38
-144.52
-166.77
-185.88
-201.43
-211.69
-214.21
-207.07
-190.03
-165.05
-135.86
-106.89
-82.0
-63.48
-51.88
-46.45
-45.95
-49.32
-55.74
-64.43
-74.13
-82.98
-88.91
-90.38
-87.19
-80.59
-72.77
-65.83
-60.86
-57.56
-54.68
-50.91
-45.76
-39.98
-35.24
-33.24
-34.81
-39.31
-44.66
-48.05
-46.89
-39.73
-26.72
-9.46
9.57
27.72
42.78
53.37
59.07
60.35
58.4
54.8
51.05
48.01
45.6
42.81
38.13
30.12
17.96
1.59
-18.34
-40.84
-64.79
-88.94
-111.76
-131.45
-146.16
-154.52
-156.12
-151.73
-143.01
-131.92
-120.09
-108.52
-97.7
-87.9
-79.48
-72.85
-68.26
-65.45
-63.67
-61.98
-59.68
-56.57
-52.89
-48.95
-44.82
-40.23
-34.8
-28.35
-21.15
-13.76
-6.7
-0.16
6.08
12.43
19.18
26.12
32.61
37.79
41.02
42.13
41.55
40.06
38.49
37.38
36.77
36.34
35.76
35.0
34.53
35.18
37.78
42.65
49.26
56.32
62.12
65.21
64.78
60.97
54.62
46.96
39.08
31.72
25.2
19.55
14.82
11.13
8.76
7.95
8.84
11.32
14.98
19.2
23.29
26.57
28.49
28.76
27.4
24.77
21.52
18.38
15.93
14.26
12.83
10.55
6.22
-0.91
-10.61
-21.51
-31.43
-38.03
-39.53
-35.24
-25.62
-12.06
3.58
19.35
33.52
44.68
51.85
54.62
53.12
48.12
40.81
32.66
25.0
18.8
14.45
11.84
10.48
9.85
9.67
9.95
10.88
12.57
14.81
17.03
18.41
18.22
16.14
12.35
7.41
2.1
-2.98
-7.5
-11.56
-15.54
-19.99
-25.43
-32.21
-40.22
-48.83
-56.8
-62.52
-64.46
-61.58
-53.77
-41.91
-27.6
-12.72
1.12
12.79
21.71
27.65
30.61
30.69
28.19
23.65
17.91
11.97
6.88
3.41
1.99
2.56
4.69
7.81
11.41
15.19
19.12
23.29
27.7
32.06
35.79
38.07
38.25
36.05
31.81
26.36
20.78
15.95
12.2
9.16
5.91
1.28
-5.79
-15.82
-28.69
-43.42
-58.29
-70.97
-79.08
-80.75
-75.16
-62.97
-46.12
-27.35
-9.47
5.41
16.23
22.92
26.1
26.7
25.57
23.44
20.82
18.1
15.45
12.86
10.12
7.02
3.47
-0.26
-3.61
-5.98
-6.91
-6.41
-4.93
-3.18
-1.86
-1.43
-2.04
-3.6
-5.94
-8.85
-12.14
-15.51
-18.62
-21.18
-23.09
-24.59
-26.31
-29.12
-33.9
-41.22
-51.0
-62.36
-73.57
-82.23
-85.86
-82.53
-71.56
-53.81
-31.63
-8.14
13.64
31.56
44.73
53.34
58.18
60.08
59.58
56.82
51.77
44.48
35.28
24.88
14.39
5.11
-1.67
-5.02
-4.54
-0.51
6.15
14.2
22.31
29.35
34.52
37.33
37.64
35.56
31.46
25.95
19.72
13.42
7.5
2.11
-2.83
-7.51
-12.07
-16.61
-21.18
-25.94
-31.2
-37.33
-44.63
-52.99
-61.72
-69.55
-74.79
-75.86
-71.68
-62.13
-48.15
-31.48
-14.26
1.56
14.62
24.36
30.91
34.75
36.43
36.29
34.48
31.11
26.48
21.15
15.91
11.54
8.59
7.3
7.64
9.48
12.67
17.01
22.09
27.21
31.45
33.94
34.26
32.56
29.51
25.98
22.58
19.55
16.66
13.57
9.95
5.7
0.83
-4.61
-10.51
-16.74
-23.05
-29.18
-34.97
-40.33
-45.15
-48.99
-50.85
-49.27
-42.84
-30.85
-13.78
6.65
27.96
47.68
64.04
76.22
84.21
88.48
89.58
87.95
83.92
77.8
69.97
61.03
51.62
42.44
33.97
26.48
20.04
14.64
10.29
7.0
4.65
2.89
1.1
-1.43
-5.24
-10.54
-17.2
-24.73
-32.47
-39.47
-44.56
-46.42
-43.93
-36.76
-25.74
-12.9
-0.99
7.36
10.54
8.35
1.9
-6.87
-15.84
-23.01
-26.71
-25.51
-18.38
-4.8
14.95
39.73
67.7
96.89
125.62
152.69
177.27
198.31
214.19
222.85
222.52
212.58
194.2
170.39
145.23
122.68
105.11
92.33
81.59
68.67
49.86
24.16
-5.62
-33.49
-52.72
-58.94
-52.45
-38.09
-22.97
-13.25
-11.66
-17.38
-27.63
-40.01
-53.56
-68.3
-83.89
-98.84
-111.0
-118.98
-123.67
-128.31
-137.01
-152.55
-174.58
-199.2
-219.92
-229.63
-222.81
-197.3
-155.06
-101.75
-45.28
6.46
47.68
75.9
91.89
98.33
98.21
93.53
85.14
73.25
58.22
41.1
23.51
7.29
-5.97
-15.37
-20.8
-22.79
-22.2
-19.8
-15.99
-10.88
-4.67
1.9
7.51
10.81
11.3
9.93
8.81
10.11
14.76
21.89
29.54
35.93
40.47
43.73
46.35
47.97
46.82
40.37
26.68
5.59
-21.02
-49.68
-76.28
-96.99
-108.92
-110.55
-102.09
-85.54
-64.25
-42.06
-22.19
-6.54
4.41
11.13
14.34
14.68
12.59
8.53
3.14
-2.85
-8.69
-13.79
-17.8
-20.53
-21.91
-21.81
-20.17
-17.02
-12.6
-7.35
-1.92
3.0
6.78
8.88
8.95
6.82
2.55
-3.52
-10.81
-18.64
-26.4
-33.69
-40.49
-47.09
-53.96
-61.68
-70.82
-81.78
-94.55
-108.29
-121.06
-129.94
-131.66
-123.68
-105.25
-77.81
-44.78
-10.46
21.19
47.37
66.7
78.85
84.01
82.58
75.15
62.65
46.42
28.08
9.29
-8.52
-24.32
-37.52
-47.99
-55.81
-61.15
-64.11
-64.65
-62.73
-58.52
-52.57
-45.92
-40.02
-36.42
-36.45
-40.82
-49.43
-61.34
-74.91
-88.19
-99.32
-106.97
-110.57
-110.32
-107.11
-102.14
-96.65
-91.48
-86.73
-81.55
-74.34
-63.33
-47.47
-27.05
-3.78
19.76
40.97
58.08
70.46
78.38
82.61
83.96
83.09
80.61
77.04
72.83
68.26
63.46
58.53
53.71
49.39
46.07
44.14
43.72
44.72
47.11
51.13
57.31
66.06
77.16
89.38
100.56
108.27
110.73
107.42
99.09
87.14
72.9
57.15
40.19
22.12
3.15
-16.45
-36.48
-56.71
-76.19
-92.67
-102.49
-101.55
-87.09
-59.36
-22.26
17.69
53.6
80.5
96.67
103.49
104.02
101.46
98.03
94.74
91.97
90.03
89.46
90.98
95.14
101.89
110.58
120.02
128.65
134.61
135.74
129.85
115.14
91.0
58.75
21.79
-15.15
-47.38
-71.74
-87.61
-96.76
-102.26
-107.14
-113.33
-121.58
-131.84
-143.99
-158.24
-174.84
-193.59
-213.48
-232.77
-249.45
-261.6
-267.51
-265.47
-253.51
-229.75
-193.35
-145.64
-90.61
-34.44
16.23
56.15
82.99
97.4
102.14
100.52
95.32
88.21
80.01
71.16
62.16
53.58
45.98
39.71
34.84
31.29
29.01
28.1
28.79
31.28
35.51
40.94
46.43
50.47
51.75
49.74
45.04
39.26
34.35
31.87
32.28
34.88
38.07
39.85
38.19
31.27
17.69
-3.06
-29.98
-59.95
-87.83
-107.45
-113.33
-102.48
-75.54
-36.69
7.59
50.31
85.71
110.51
124.28
129.07
128.48
126.37
125.71
127.79
131.97
135.93
136.46
130.35
115.5
91.8
61.61
29.45
0.87
-19.31
-28.74
-28.47
-22.48
-16.08
-13.89
-18.38
-29.55
-45.68
-64.63
-84.65
-104.61
-123.63
-140.7
-154.62
-164.53
-170.38
-173.23
-175.11
-178.23
-184.19
-193.23
-203.8
-212.78
-216.13
-209.96
-191.55
-160.18
-117.42
-66.87
-13.27
38.45
84.26
121.57
149.44
168.28
179.26
183.8
183.12
178.19
169.8
158.92
146.8
134.92
124.7
117.17
112.85
111.73
113.56
117.88
124.01
130.94
137.2
141.02
140.82
135.74
126.12
113.48
100.21
88.84
81.19
77.74
77.23
76.89
73.19
62.83
43.84
16.16
-18.53
-57.26
-96.47
-132.49
-161.67
-180.53
-186.11
-176.82
-153.24
-118.52
-77.87
-37.25
-1.61
26.25
45.99
59.04
67.38
72.58
75.34
75.6
73.12
67.84
60.24
51.18
41.68
32.56
24.18
16.47
9.09
1.71
-5.85
-13.49
-20.98
-28.23
-35.35
-42.71
-50.82
-60.01
-70.39
-81.76
-93.74
-105.89
-117.76
-128.88
-138.76
-147.02
-153.58
-158.83
-163.71
-169.41
-176.76
-185.55
-193.96
-198.67
-195.72
-181.89
-155.97
-119.42
-76.1
-31.04
10.96
46.45
73.71
92.34
102.74
105.62
101.9
92.85
80.2
65.97
52.11
40.03
30.4
23.15
17.71
13.45
9.89
6.94
4.85
4.07
5.04
7.84
12.06
16.59
19.86
20.16
16.19
7.52
-5.27
-20.66
-36.82
-52.06
-65.42
-76.86
-87.23
-97.88
-110.18
-124.74
-140.87
-156.3
-167.41
-170.23
-161.67
-140.69
-108.89
-70.01
-28.92
9.8
42.9
68.76
87.13
98.57
103.87
103.87
99.51
91.99
82.72
73.17
64.5
57.39
52.02
48.22
45.81
44.72
45.06
46.97
50.4
55.06
60.36
65.46
69.34
70.95
69.43
64.31
55.73
44.49
31.79
18.96
7.02
-3.65
-13.29
-22.8
-33.44
-46.43
-62.5
-81.3
-101.07
-118.69
-130.29
-132.38
-122.95
-102.18
-72.38
-37.25
-0.73
33.86
64.29
89.3
108.37
121.41
128.67
130.73
128.47
122.94
115.17
106.08
96.48
87.15
78.87
72.3
67.79
65.26
64.24
64.07
64.09
63.89
63.15
61.55
58.65
53.88
46.79
37.31
25.9
13.41
0.92
-10.73
-21.09
-30.27
-38.75
-47.3
-56.75
-67.92
-81.22
-96.41
-112.12
-125.79
-134.07
-133.73
-122.77
-101.19
-71.2
-36.54
-1.4
30.67
57.43
77.97
92.38
101.18
105.02
104.52
100.4
93.49
84.83
75.56
66.73
59.2
53.57
50.15
48.95
49.76
52.2
55.71
59.63
63.26
65.9
66.92
65.79
62.2
56.03
47.52
37.22
25.94
14.6
3.96
-5.56
-13.95
-21.63
-29.28
-37.8
-48.03
-60.57
-75.4
-91.44
-106.44
-117.2
-120.37
-113.53
-96.11
-69.78
-37.94
-4.83
25.77
51.24
70.39
83.15
90.1
92.02
89.69
84.0
75.88
66.41
56.71
47.82
40.51
35.3
32.36
31.55
32.54
34.85
37.97
41.42
44.82
47.88
50.32
51.78
51.82
49.96
45.83
39.4
31.02
21.38
11.3
1.46
-7.78
-16.44
-24.82
-33.4
-42.8
-53.61
-66.34
-80.99
-96.7
-111.45
-122.35
-126.32
-121.24
-106.71
-84.39
-57.45
-29.61
-4.08
17.09
33.12
44.1
50.61
53.28
52.69
49.4
44.02
37.25
29.84
22.52
16.0
10.8
7.26
5.44
5.22
6.3
8.37
11.07
13.99
16.66
18.53
19.15
18.33
16.32
13.75
11.38
9.8
9.07
8.68
7.72
5.29
0.79
-5.95
-14.78
-25.55
-38.15
-52.38
-67.54
-82.06
-93.41
-98.65
-95.35
-82.55
-61.32
-34.61
-6.39
19.52
40.41
55.07
63.74
67.47
67.65
65.6
62.53
59.36
56.69
54.66
53.01
51.27
49.13
46.78
44.97
44.71
46.85
51.66
58.71
66.98
75.25
82.45
87.91
91.38
92.98
92.98
91.71
89.42
86.22
82.14
77.12
71.13
64.18
56.3
47.54
37.86
27.06
14.72
0.34
-16.41
-35.21
-54.71
-72.45
-85.29
-90.27
-85.68
-71.8
-50.98
-26.94
-3.62
15.98
30.42
39.67
44.6
46.19
44.94
40.88
33.84
23.98
12.1
-0.22
-11.09
-18.75
-22.18
-21.27
-16.71
-9.61
-1.11
7.83
16.51
24.37
30.86
35.47
37.8
37.64
35.0
30.13
23.45
15.5
6.89
-1.76
-9.84
-16.98
-23.01
-28.11
-32.81
-37.92
-44.29
-52.34
-61.58
-70.28
-75.73
-75.01
-66.08
-48.68
-24.6
2.88
30.06
53.87
72.56
85.59
93.24
96.01
94.42
89.03
80.57
70.1
58.82
47.82
37.86
29.25
21.93
15.69
10.39
6.05
2.92
1.41
1.99
5.01
10.56
18.19
26.83
34.76
39.91
40.4
35.21
24.67
10.61
-4.19
-16.92
-25.88
-31.11
-34.31
-37.97
-44.24
-54.06
-66.73
-80.02
-90.65
-95.06
-90.37
-75.49
-52.05
-24.57
0.46
16.55
19.46
8.71
-12.4
-38.25
-62.98
-82.34
-94.36
-99.01
-97.34
-90.79
-80.89
-69.31
-57.79
-47.88
-40.48
-35.58
-32.17
-28.76
-23.93
-16.91
-7.89
2.12
11.69
19.56
25.09
28.4
30.16
31.3
32.48
33.84
34.99
35.16
33.61
29.93
24.35
17.6
10.61
4.09
-1.91
-8.01
-15.17
-24.09
-34.52
-45.01
-53.22
-56.65
-53.69
-44.33
-30.24
-14.23
0.65
12.11
19.12
21.99
22.02
21.0
20.63
22.1
25.74
30.95
36.4
40.48
41.9
40.18
35.95
30.61
25.85
22.98
22.42
23.66
25.67
27.47
28.76
30.09
32.55
37.23
44.46
53.64
63.54
72.93
81.19
88.29
94.32
98.75
100.25
97.15
88.38
74.2
56.1
36.01
15.33
-5.12
-24.4
-40.36
-49.46
-47.96
-34.14
-10.17
17.68
41.08
52.97
50.43
35.63
14.3
-7.12
-24.33
-36.31
-44.67
-51.81
-59.11
-66.21
-71.5
-73.48
-71.94
-68.35
-65.27
-64.96
-68.18
-73.69
-78.85
-80.97
-78.58
-72.25
-64.16
-57.19
-53.59
-54.36
-59.19
-67.01
-76.73
-87.7
-99.79
-113.19
-128.11
-144.52
-162.15
-180.39
-198.17
-213.89
-225.48
-230.67
-227.56
-215.24
-194.21
-166.37
-134.66
-102.36
-72.35
-46.64
-26.19
-11.02
-0.56
6.0
9.42
10.32
9.2
6.58
3.03
-0.82
-4.37
-7.17
-8.92
-9.49
-8.81
-6.79
-3.36
1.38
7.09
12.98
17.96
20.84
20.67
17.03
10.31
1.63
-7.38
-15.09
-20.42
-23.25
-24.44
-25.56
-28.35
-34.16
-43.57
-56.19
-70.6
-84.51
-95.14
-99.65
-95.85
-82.88
-61.53
-34.17
-4.21
24.84
50.23
70.47
85.35
95.55
102.03
105.56
106.46
104.73
100.36
93.72
85.75
77.86
71.58
68.02
67.51
69.56
73.1
76.92
80.11
82.14
82.85
82.18
79.99
76.03
69.98
61.6
51.01
38.86
26.31
14.86
5.99
0.83
-0.31
2.38
8.13
15.73
23.76
30.5
34.36
34.58
32.06
29.42
29.85
35.21
44.5
53.88
58.52
55.35
44.9
31.21
19.57
13.74
14.12
18.12
22.1
23.51
22.0
18.95
16.1
14.36
13.49
12.67
11.33
9.57
8.01
7.58
8.93
11.97
15.91
19.42
21.03
19.61
14.77
6.94
-2.7
-12.8
-22.21
-30.39
-37.42
-43.78
-50.08
-56.86
-64.49
-73.18
-83.05
-93.81
-104.54
-113.51
-118.44
-117.0
-107.71
-90.49
-66.9
-39.68
-12.04
13.28
34.49
50.82
62.28
69.28
72.25
71.61
67.91
61.84
54.35
46.52
39.37
33.7
30.01
28.49
29.12
31.82
36.42
42.71
50.3
58.62
66.88
74.22
79.82
83.13
83.98
82.52
79.2
74.55
68.9
62.28
54.37
44.64
32.64
18.21
1.66
-16.1
-33.56
-48.75
-59.45
-63.66
-60.16
-49.0
-31.72
-11.03
9.95
28.44
42.75
52.37
57.64
59.24
57.73
53.44
46.63
37.8
27.66
17.14
7.15
-1.64
-8.87
-14.48
-18.54
-21.17
-22.44
-22.43
-21.35
-19.62
-17.89
-16.92
-17.4
-19.64
-23.48
-28.34
-33.39
-37.87
-41.35
-43.8
-45.61
-47.45
-50.07
-54.17
-60.15
-67.76
-75.91
-82.54
-85.07
-81.04
-69.03
-49.26
-23.7
4.5
31.89
55.67
74.18
86.97
94.32
96.88
95.26
90.06
81.93
71.71
60.4
49.02
38.41
29.07
21.23
14.83
9.73
5.81
2.92
0.93
-0.39
-1.37
-2.52
-4.4
-7.56
-12.35
-18.87
-26.86
-35.8
-44.97
-53.77
-61.82
-69.11
-75.87
-82.43
-88.93
-95.34
-101.31
-106.26
-109.31
-109.39
-105.41
-96.52
-82.53
-64.17
-43.02
-21.19
-0.75
16.79
30.73
41.03
48.15
52.62
54.97
55.65
55.06
53.56
51.34
48.41
44.56
39.53
33.25
26.07
18.75
12.39
8.1
6.65
8.17
12.09
17.27
22.31
25.95
27.4
26.5
23.56
19.19
13.99
8.4
2.5
-3.94
-11.35
-20.29
-31.09
-43.55
-56.66
-68.52
-76.62
-78.53
-72.75
-59.37
-40.14
-17.94
4.07
23.39
38.6
49.41
56.15
59.33
59.38
56.59
51.35
44.3
36.34
28.48
21.61
16.32
12.84
11.11
10.87
11.84
13.71
16.18
18.84
21.15
22.43
21.99
19.34
14.4
7.59
-0.24
-8.12
-15.22
-21.13
-25.92
-30.13
-34.61
-40.28
-47.91
-57.77
-69.3
-80.85
-89.88
-93.54
-89.57
-77.13
-57.29
-32.67
-6.73
17.34
37.38
52.53
62.95
69.31
72.24
72.14
69.29
64.05
57.04
49.16
41.37
34.42
28.69
24.11
20.39
17.3
14.83
13.24
12.88
13.9
15.98
18.32
19.84
19.54
16.86
11.89
5.3
-1.95
-9.0
-15.33
-20.93
-26.19
-31.72
-38.2
-46.21
-56.01
-67.28
-78.83
-88.55
-93.8
-92.17
-82.31
-64.62
-41.25
-15.49
9.26
30.37
46.5
57.54
64.08
66.91
66.66
63.84
58.92
52.56
45.57
38.79
32.91
28.37
25.25
23.47
