118.15
105.17
92.96
83.18
76.46
72.39
69.85
67.52
64.34
59.72
53.69
46.84
40.1
34.43
30.36
27.66
25.33
21.88
16.03
7.24
-3.94
-16.07
-27.42
-36.64
-43.32
-48.06
-52.27
-57.66
-65.73
-77.2
-91.47
-106.4
-118.5
-123.76
-118.85
-102.42
-75.81
-42.79
-8.37
22.7
47.26
64.16
73.89
77.74
77.0
72.68
65.48
55.99
44.8
32.39
19.2
5.54
-8.06
-20.8
-31.47
-38.7
-41.37
-38.98
-31.96
-21.65
-10.0
0.81
8.9
13.12
13.21
9.82
4.23
-2.11
-8.05
-13.03
-17.24
-21.44
-26.76
-34.36
-45.15
-59.73
-78.06
-99.28
-121.35
-140.96
-154.01
-156.56
-146.19
-123.15
-90.46
-53.15
-16.63
14.96
39.62
57.39
69.47
77.18
81.38
82.44
80.67
76.7
71.48
66.02
60.98
56.48
52.15
47.53
42.37
36.89
31.65
27.34
24.38
22.74
21.86
20.76
18.4
13.93
7.01
-2.11
-12.63
-23.49
-33.65
-42.39
-49.59
-55.64
-61.43
-68.09
-76.77
-88.28
-102.59
-118.47
-133.35
-143.7
-145.92
-137.58
-118.29
-90.02
-56.47
-21.95
9.78
36.37
56.85
71.29
80.17
83.99
83.21
78.48
70.78
61.38
51.71
42.94
35.77
30.26
26.03
22.6
19.66
17.32
15.96
16.05
17.69
20.38
23.05
24.32
23.01
18.56
11.33
2.41
-6.75
-14.88
-21.38
-26.48
-31.11
-36.56
-44.09
-54.48
-67.75
-82.78
-97.26
-108.04
-111.7
-105.68
-89.11
-63.32
-31.49
2.27
34.05
61.12
82.16
96.98
106.01
109.8
108.89
103.9
95.73
85.57
74.72
64.28
54.91
46.83
39.88
33.87
28.71
24.57
21.75
20.51
20.83
22.25
23.84
24.38
22.69
18.07
10.46
0.59
-10.37
-21.24
-31.26
-40.34
-48.98
-58.05
-68.48
-80.89
-95.27
-110.65
-124.97
-135.31
-138.48
-132.02
-115.08
-88.92
-56.67
-22.39
10.02
37.8
59.61
75.25
85.18
89.99
90.27
86.62
79.82
70.89
60.98
51.14
42.21
34.69
28.83
24.73
22.39
21.82
22.95
25.61
29.37
33.55
37.18
39.19
38.59
34.85
28.06
18.91
8.54
-1.82
-11.28
-19.54
-26.94
-34.41
-43.12
-54.14
-67.98
-84.13
-100.76
-114.87
-122.79
-121.25
-108.49
-84.92
-53.28
-17.75
17.14
47.77
72.02
89.27
99.94
104.87
104.94
101.01
94.05
85.19
75.66
66.5
58.32
51.38
45.57
40.81
37.1
34.64
33.71
34.52
37.11
41.27
46.5
51.91
56.31
58.4
57.1
51.96
43.35
32.3
20.09
7.7
-4.58
-17.07
-30.55
-45.8
-63.26
-82.74
-103.21
-122.6
-137.98
-146.02
-143.94
-130.49
-106.64
-75.54
-41.59
-9.2
18.32
39.32
53.64
61.95
65.12
63.97
59.22
51.77
42.7
33.2
24.28
16.58
10.26
5.2
1.15
-1.96
-3.99
-4.57
-3.41
-0.51
3.56
7.67
10.34
10.27
6.77
0.03
-8.91
-18.61
-27.69
-35.38
-41.69
-47.37
-53.56
-61.44
-71.76
-84.45
-98.25
-110.77
-118.75
-118.94
-109.07
-88.75
-59.72
-25.42
9.99
42.81
70.62
92.36
108.06
118.21
123.33
123.85
120.26
113.25
103.8
92.99
81.83
71.02
60.93
51.72
43.45
36.31
30.61
26.76
24.96
24.97
25.98
26.71
25.76
22.0
15.0
5.15
-6.46
-18.47
-29.61
-39.16
-47.05
-53.86
-60.58
-68.39
-78.2
-90.26
-103.68
-116.33
-125.11
-126.72
-118.79
-100.76
-74.23
-42.54
-9.73
20.59
46.08
65.73
79.7
88.53
92.83
93.16
90.07
84.35
77.05
69.31
62.16
56.34
52.16
49.53
48.23
47.99
48.68
50.4
53.35
57.66
63.1
68.96
74.07
77.17
77.31
74.3
68.75
61.81
54.61
47.75
41.12
33.99
25.39
14.42
0.58
-16.08
-34.68
-53.32
-69.11
-78.58
-78.66
-67.7
-46.32
-17.38
14.85
45.99
72.72
93.32
107.53
115.96
119.32
118.22
113.03
104.2
92.34
78.28
62.91
47.14
31.79
17.62
5.32
-4.58
-11.79
-16.39
-18.92
-20.38
-22.07
-25.35
-31.32
-40.46
-52.44
-66.11
-79.81
-91.84
-101.03
-107.02
-110.37
-112.39
-114.72
-118.9
-125.91
-135.66
-146.74
-156.43
-161.2
-157.74
-144.05
-120.21
-88.6
-53.09
-17.95
13.39
38.93
58.09
71.23
78.97
81.89
80.5
75.49
67.86
58.86
49.76
41.45
34.26
28.06
22.52
17.52
13.33
10.53
9.68
10.92
13.64
16.59
18.21
17.19
12.85
5.39
-4.35
-15.16
-25.93
-35.91
-44.85
-53.04
-61.21
-70.28
-80.98
-93.24
-105.71
-115.57
-119.11
-112.83
-94.77
-65.46
-28.0
12.82
51.97
85.5
111.21
128.62
138.32
141.39
138.89
131.86
121.41
108.75
95.08
81.41
68.34
55.98
44.04
32.21
20.5
9.44
0.1
-6.35
-9.24
-8.85
-6.55
-4.41
-4.47
-8.0
-15.05
-24.62
-35.19
-45.35
-54.33
-62.16
-69.49
-77.36
-86.8
-98.42
-111.96
-125.94
-137.61
-143.43
-140.15
-125.9
-101.06
-68.26
-31.61
4.57
36.88
63.45
83.77
98.13
107.01
110.83
110.02
105.25
97.55
88.18
78.34
68.76
59.63
50.66
41.52
32.18
23.13
15.24
9.44
6.25
5.43
6.05
6.69
5.95
2.86
-2.86
-10.82
-20.17
-29.88
-39.05
-47.06
-53.83
-59.84
-66.1
-73.88
-84.21
-97.18
-111.43
-124.09
-131.4
-129.81
-117.27
-94.06
-62.77
-27.5
7.43
38.64
64.22
83.65
97.19
105.32
108.44
106.96
101.62
93.61
84.49
75.76
68.45
62.81
58.45
54.67
50.88
46.91
43.03
39.75
37.37
35.79
34.33
31.96
27.64
20.77
11.42
0.36
-11.18
-22.04
-31.46
-39.43
-46.59
-54.05
-63.02
-74.45
-88.58
-104.62
-120.59
-133.47
-139.84
-136.92
-123.46
-100.38
-70.61
-38.17
-7.0
19.96
41.23
56.56
66.36
71.19
71.53
67.88
60.97
51.9
41.99
32.5
24.25
17.5
12.03
7.53
3.89
1.39
0.58
1.93
5.44
10.41
15.51
19.17
20.1
17.62
11.9
3.74
-5.76
-15.58
-25.13
-34.33
-43.59
-53.68
-65.4
-79.36
-95.53
-112.9
-129.23
-141.23
-145.34
-138.8
-120.7
-92.55
-57.91
-21.33
12.95
42.02
64.64
80.84
91.33
96.89
98.2
95.83
90.45
82.82
73.84
64.4
55.26
47.05
40.07
34.3
29.47
25.28
21.64
18.81
17.26
17.24
18.43
19.84
20.1
18.04
13.24
6.29
-1.53
-8.85
-14.84
-19.6
-23.98
-29.18
-36.22
-45.69
-57.63
-71.56
-86.35
-100.11
-110.2
-113.68
-108.14
-92.65
-68.35
-38.39
-6.97
21.76
44.94
61.4
71.45
76.19
76.83
74.25
69.06
61.86
53.44
44.81
37.0
30.7
26.13
23.01
20.96
19.81
19.73
21.09
24.1
28.48
33.32
37.35
39.32
38.56
35.12
29.81
23.79
18.14
13.41
9.43
5.41
0.22
-7.2
-17.58
-31.22
-47.94
-67.02
-87.0
-105.53
-119.52
-125.68
-121.54
-106.38
-81.71
-50.96
-18.43
11.96
37.59
57.34
71.22
79.72
83.29
82.35
77.52
69.85
60.89
52.29
45.46
41.03
38.87
38.29
38.41
38.51
38.25
37.69
37.03
36.45
35.85
34.82
32.66
28.6
22.1
13.1
2.14
-9.73
-21.23
-31.33
-39.51
-45.92
-51.29
-56.73
-63.41
-72.1
-82.76
-94.11
-103.63
-108.0
-104.1
-90.12
-66.4
-35.5
-1.46
31.5
60.12
82.69
98.82
108.84
113.18
112.17
106.23
96.24
83.63
70.13
57.31
46.13
36.71
28.58
21.12
13.98
7.28
1.57
-2.56
-4.82
-5.5
-5.43
-5.73
-7.48
-11.3
-17.25
-24.82
-33.28
-41.96
-50.55
-59.23
-68.44
-78.78
-90.61
-103.98
-118.37
-132.53
-144.28
-150.75
-148.9
-136.48
-113.05
-80.49
-42.76
-4.73
29.18
56.3
75.93
88.97
96.91
100.99
101.82
99.56
94.33
86.5
76.7
65.66
54.06
42.4
31.19
21.03
12.64
6.68
3.51
2.95
4.15
5.83
6.51
4.91
0.34
-7.27
-17.29
-28.64
-40.15
-50.87
-60.39
-68.89
-76.91
-85.06
-93.74
-103.05
-112.76
-122.24
-130.37
-135.37
-134.97
-126.91
-109.79
-83.88
-51.34
-15.6
19.85
52.55
81.65
107.38
130.0
148.91
162.52
168.9
166.95
157.14
141.65
123.58
105.93
90.74
78.66
69.28
61.68
54.95
48.64
42.77
37.67
33.7
30.97
29.2
27.7
25.54
21.88
16.16
8.18
-1.89
-13.67
-26.57
-39.79
-52.28
-63.0
-71.33
-77.61
-83.18
-89.84
-98.82
-109.72
-120.11
-126.02
-123.33
-109.45
-84.29
-50.49
-12.44
24.94
57.44
82.18
97.69
103.75
101.15
91.57
77.43
61.58
46.71
34.78
26.47
21.23
17.66
14.41
10.8
7.3
5.22
6.08
10.89
19.61
31.06
43.22
53.83
61.02
63.7
61.75
55.88
47.21
36.8
25.31
12.67
-1.83
-19.31
-40.89
-66.95
-96.5
-126.69
-152.93
-169.81
-172.55
-158.74
-129.38
-88.9
-43.88
-1.02
34.6
60.58
77.04
85.67
88.53
87.36
83.4
77.59
70.87
64.17
58.28
53.44
49.33
45.21
40.35
34.5
28.14
22.34
18.32
16.77
17.42
18.91
19.16
16.06
8.22
-4.61
-21.53
-41.03
-61.56
-82.0
-101.88
-121.13
-139.83
-157.93
-175.04
-190.22
-201.85
-207.7
-205.29
-192.7
-169.49
-137.18
-99.18
-59.83
-23.15
8.19
33.21
52.26
66.24
75.84
81.38
82.94
80.79
75.68
68.77
61.36
54.42
48.38
43.14
38.34
33.74
29.48
26.05
24.0
23.6
24.47
25.57
25.52
23.1
17.75
9.76
0.15
-9.77
-18.9
-26.74
-33.45
-39.75
-46.68
-55.37
-66.67
-80.87
-97.2
-113.64
-127.0
-133.6
-130.36
-115.94
-91.31
-59.6
-25.12
7.91
36.39
58.74
74.64
84.51
89.0
88.91
85.19
79.16
72.34
66.16
61.53
58.6
56.84
55.44
53.73
51.56
49.31
47.59
46.84
46.98
47.3
46.62
43.71
37.75
28.63
17.08
4.39
-8.04
-19.15
-28.59
-36.73
-44.56
-53.34
-64.19
-77.69
-93.43
-109.76
-123.9
-132.34
-131.83
-120.4
-98.18
-67.52
-32.35
2.86
34.35
59.76
78.27
90.1
96.0
96.75
93.12
85.98
76.44
65.8
55.35
46.03
38.25
31.98
26.96
23.01
20.21
18.89
19.38
21.73
25.42
29.33
32.05
32.2
28.98
22.43
13.33
2.98
-7.35
-16.84
-25.37
-33.52
-42.32
-52.91
-66.07
-81.76
-98.69
-114.29
-125.02
-127.35
-118.86
-99.22
-70.48
-36.47
-1.7
29.94
55.95
75.41
88.49
95.77
97.88
95.38
88.98
79.68
68.78
57.6
47.22
38.24
30.76
24.65
19.76
16.12
13.93
13.37
14.32
16.24
18.13
18.72
16.88
11.97
4.03
-6.14
-17.35
-28.32
-38.18
-46.72
-54.5
-62.63
-72.44
-84.89
-99.96
-116.26
-130.95
-140.32
-140.78
-130.03
-107.95
-76.7
-40.17
-2.85
31.37
59.92
81.76
97.1
106.85
112.21
114.42
114.63
113.91
113.12
112.95
113.84
116.13
119.99
125.44
132.32
140.26
148.8
157.5
166.08
174.2
181.3
186.38
187.95
184.58
175.33
160.28
140.63
118.32
95.32
73.02
51.87
31.51
11.04
-10.66
-34.57
-61.22
-90.07
-118.95
-143.98
-160.09
-162.64
-149.18
-120.85
-82.32
-40.43
-1.93
28.56
49.35
61.2
65.95
65.23
59.93
50.49
37.67
22.93
8.36
-4.0
-12.84
-18.01
-20.34
-21.07
-21.17
-20.9
-19.87
-17.46
-13.32
-7.8
-1.95
2.72
4.8
3.4
-1.55
-9.27
-18.41
-27.51
-35.4
-41.52
-46.02
-49.64
-53.51
-58.85
-66.75
-77.66
-90.97
-104.49
-114.51
-116.57
-106.76
-83.27
-47.29
-2.93
44.08
88.08
124.98
152.89
171.81
182.86
187.36
186.44
180.94
171.64
159.27
144.57
128.24
110.94
93.51
77.05
62.87
52.26
46.04
44.27
46.12
50.24
55.2
60.1
64.72
69.31
74.0
78.17
80.15
77.54
67.94
49.96
23.71
-9.31
-47.03
-87.77
-130.68
-175.44
-221.4
-266.94
-309.43
-345.81
-373.25
-389.44
-392.46
-380.66
-352.92
-309.61
-253.54
-190.1
-126.15
-68.13
-20.23
16.28
42.33
59.55
68.99
70.86
65.2
52.83
35.75
16.89
-0.86
-15.44
-26.09
-33.17
-37.64
-40.43
-42.12
-42.82
-42.4
-40.83
-38.49
-36.39
-35.85
-38.12
-43.95
-53.38
-66.0
-81.37
-99.31
-119.78
-142.46
-166.26
-189.05
-207.89
-219.65
-221.58
-211.89
-189.94
-156.32
-112.85
-62.34
-8.44
44.99
94.39
137.08
171.47
197.05
213.92
222.43
222.79
215.05
199.41
176.58
148.1
116.48
84.89
56.51
33.76
17.89
8.77
5.26
5.74
8.76
13.26
18.55
24.1
29.29
33.28
35.19
34.32
30.45
23.91
15.46
6.07
-3.4
-12.28
-20.28
-27.45
-34.17
-41.17
-49.23
-58.84
-69.76
-80.6
-88.87
-91.46
-85.52
-69.39
-43.25
-9.35
28.49
65.71
98.03
122.3
137.01
142.26
139.39
130.39
117.17
101.23
83.47
64.38
44.43
24.38
5.29
-11.61
-25.27
-35.07
-40.83
-42.71
-40.98
-35.91
-27.8
-17.2
-5.07
7.31
18.48
27.3
33.13
35.97
36.28
34.6
31.35
26.75
20.91
14.03
6.42
-1.66
-10.27
-19.93
-31.42
-45.11
-60.24
-74.56
-84.67
-87.17
-79.95
-63.12
-38.94
-10.97
17.25
43.1
65.18
82.93
96.02
103.96
106.15
102.32
92.86
79.01
62.61
45.7
30.11
17.09
7.18
0.28
-4.12
-6.61
-7.61
-7.34
-5.92
-3.71
-1.41
-0.04
-0.64
-3.94
-10.06
-18.44
-28.03
-37.69
-46.49
-53.99
-60.3
-65.93
-71.76
-78.77
-87.73
-98.84
-111.25
-122.89
-130.61
-130.96
-121.23
-100.47
-70.01
-33.24
5.36
41.34
71.31
93.43
107.31
113.62
113.53
108.34
99.31
87.61
74.41
60.82
47.89
36.39
26.79
19.11
13.15
8.6
5.27
3.18
2.45
3.09
4.77
6.74
7.89
7.11
3.57
-2.89
-11.78
-22.03
-32.37
-41.74
-49.56
-55.88
-61.24
-66.49
-72.63
-80.57
-90.83
-103.17
-116.17
-127.22
-132.92
-130.08
-116.86
-93.57
-62.77
-28.52
4.71
33.08
53.85
65.39
67.05
59.12
43.07
21.65
-1.37
-21.98
-36.95
-44.55
-44.91
-39.49
-30.5
-20.13
-10.16
-1.82
4.29
8.21
10.47
11.92
13.29
14.76
15.92
15.95
14.21
10.77
6.39
2.18
-1.16
-3.74
-6.62
-11.28
-19.0
-30.39
-45.23
-62.53
-80.73
-97.64
-110.37
-115.63
-110.27
-92.34
-62.04
-22.25
21.95
64.49
99.77
123.98
135.23
133.21
118.22
90.88
52.29
4.69
-48.33
-102.34
-153.31
-198.82
-238.61
-273.91
-306.07
-335.19
-359.6
-376.56
-383.63
-379.93
-366.68
-346.56
-322.61
-297.11
-271.06
-244.4
-216.8
-188.36
-159.87
-132.43
-106.71
-82.66
-59.75
-37.89
-17.98
-1.63
9.97
17.48
23.78
33.35
50.34
76.79
111.94
152.84
195.92
238.39
278.68
316.03
349.64
378.22
400.42
415.53
423.97
427.31
427.63
426.83
425.97
425.26
424.23
422.4
419.9
417.81
417.88
421.68
429.4
438.98
446.13
445.7
433.88
410.06
377.22
340.54
304.93
272.78
243.45
214.43
183.56
150.61
117.35
86.48
60.17
39.27
23.71
13.33
8.41
9.44
16.25
27.35
40.07
51.49
59.54
63.37
63.24
59.72
52.81
41.87
25.6
2.3
-30.02
-73.22
-127.9
-191.76
-258.55
-318.3
-359.43
-372.24
-352.21
-302.06
-231.21
-153.19
-81.87
-28.13
2.21
8.63
-5.48
-34.46
-72.36
-114.12
-156.21
-196.66
-235.23
-273.39
-313.9
-359.99
-413.17
-471.29
-527.65
-572.37
-595.53
-591.02
-558.84
-505.1
-439.59
-372.29
-310.77
-259.14
-218.53
-188.13
-165.78
-148.26
-131.5
-111.45
-85.44
-53.48
-18.6
14.19
39.76
54.91
59.63
56.77
50.65
45.34
43.5
46.14
53.35
64.98
81.0
100.99
123.33
144.59
159.8
163.69
152.21
123.98
80.78
27.4
-29.37
-81.93
-123.29
-148.26
-154.41
-142.32
-115.22
-77.81
-34.74
10.36
55.22
98.3
137.87
171.46
196.13
209.45
210.53
200.51
182.21
159.13
134.44
110.38
88.32
69.16
53.77
42.99
37.2
35.91
37.58
40.19
42.02
42.45
42.29
43.33
47.38
55.26
66.25
78.16
87.94
92.78
90.99
82.85
70.74
58.68
51.23
51.97
62.33
81.08
104.97
130.09
153.28
172.99
189.15
202.3
212.68
219.72
222.37
219.72
211.77
199.53
184.66
168.83
153.23
138.41
124.56
111.84
100.62
91.38
84.43
79.58
76.14
73.08
69.43
64.61
58.65
52.04
45.36
38.93
32.51
25.32
16.31
4.68
-9.57
-25.37
-40.55
-52.39
-58.37
-57.04
-48.49
-34.34
-17.3
-0.26
14.35
25.06
31.44
33.77
32.74
29.06
23.28
15.83
6.97
-2.99
-13.68
-24.52
-34.8
-43.78
-50.86
-55.74
-58.51
-59.62
-59.72
-59.45
-59.26
-59.44
-60.11
-61.33
-63.24
-65.95
-69.6
-74.32
-80.25
-87.5
-96.02
-105.25
-113.92
-120.06
-121.35
-115.91
-103.01
-83.46
-59.44
-33.8
-9.24
12.29
29.81
43.13
52.44
58.06
60.34
59.71
56.68
51.88
45.92
39.36
32.61
26.03
19.98
14.8
10.8
8.1
6.58
5.81
5.23
4.34
2.8
0.51
-2.44
-5.91
-9.88
-14.45
-19.91
-26.6
-34.88
-44.82
-56.05
-67.54
-77.56
-83.95
-84.68
-78.52
-65.51
-47.08
-25.65
-3.99
15.54
31.43
43.07
50.53
54.23
54.68
52.39
47.93
41.92
35.03
27.89
20.98
14.63
9.04
4.39
0.83
-1.46
-2.46
-2.34
-1.55
-0.71
-0.47
-1.31
-3.4
-6.64
-10.62
-14.88
-19.07
-23.12
-27.34
-32.36
-38.84
-47.14
-56.82
-66.55
-74.23
-77.59
-74.92
-65.69
-50.68
-31.78
-11.3
8.54
26.07
40.25
50.57
56.88
59.33
58.34
54.62
49.01
42.38
35.41
28.52
21.95
15.84
10.39
5.9
2.72
1.06
0.87
1.75
3.01
3.86
3.64
1.96
-1.17
-5.41
-10.26
-15.16
-19.72
-23.84
-27.69
-31.8
-36.78
-43.12
-50.78
-58.93
-65.94
-69.77
-68.53
-61.24
-48.14
-30.67
-11.0
8.59
26.23
40.8
51.79
59.13
62.98
63.6
61.39
56.9
50.84
44.03
37.23
30.99
25.63
21.26
17.81
15.27
13.66
13.01
13.22
13.99
14.77
14.84
13.58
10.64
6.11
0.41
-5.77
-11.83
-17.39
-22.45
-27.33
-32.58
-38.77
-46.2
-54.65
-63.26
-70.51
-74.57
-73.79
-67.28
-55.26
-39.08
-20.82
-2.64
13.69
27.12
37.27
44.16
47.99
49.01
47.53
44.03
39.15
33.61
28.12
23.15
18.91
15.35
12.34
9.74
7.62
6.16
5.57
5.91
6.9
7.98
8.44
7.66
5.35
1.63
-3.02
-7.99
-12.73
-16.95
-20.73
-24.39
-28.46
-33.51
-40.03
-48.16
-57.45
-66.72
-74.14
-77.63
-75.5
-67.12
-53.21
-35.62
-16.77
1.11
16.53
28.8
37.92
44.1
47.55
48.44
46.96
43.51
38.76
33.49
28.5
24.31
21.19
19.02
17.57
16.56
15.86
15.56
15.8
16.67
17.94
19.09
19.41
18.24
15.28
10.6
4.71
-1.72
-8.04
-13.8
-18.89
-23.45
-27.82
-32.47
-37.91
-44.5
-52.25
-60.57
-68.2
-73.45
-74.56
-70.39
-60.85
-46.96
-30.55
-13.68
1.92
15.21
25.71
33.36
38.17
40.2
39.56
36.58
31.85
26.2
20.46
15.33
11.21
8.16
6.05
4.59
3.56
2.88
2.59
2.81
3.54
4.59
5.49
5.66
4.6
2.09
-1.66
-6.13
-10.64
-14.69
-18.08
-21.02
-23.97
-27.52
-32.2
-38.34
-45.91
-54.35
-62.53
-68.78
-71.26
-68.51
-59.96
-46.24
-29.06
-10.67
6.79
21.75
33.45
41.79
47.0
49.42
49.32
47.08
43.18
38.3
33.14
28.38
24.41
21.34
19.03
17.23
15.71
14.38
13.27
12.5
12.15
12.15
12.24
12.03
11.07
9.02
5.76
1.46
-3.51
-8.66
-13.61
-18.2
-22.46
-26.64
-31.07
-36.13
-42.14
-49.25
-57.26
-65.44
-72.45
-76.63
-76.41
-70.86
-60.11
-45.33
-28.46
-11.53
3.78
16.53
26.42
33.58
38.28
40.73
41.12
39.66
36.74
32.86
28.65
24.64
21.22
18.55
16.65
15.43
14.82
14.77
15.21
16.0
16.89
17.6
17.88
17.51
16.35
14.3
11.26
7.14
1.96
-4.14
-10.83
-17.69
-24.31
-30.45
-36.12
-41.65
-47.53
-54.24
-62.02
-70.49
-78.62
-84.83
-87.34
-84.79
-76.64
-63.41
-46.54
-27.98
-9.61
7.09
21.3
32.82
41.81
48.56
53.27
56.02
56.79
55.66
53.01
49.51
46.06
43.57
42.7
43.74
46.62
51.02
56.61
63.04
69.99
77.12
83.95
89.99
94.82
98.19
100.12
100.81
100.47
99.18
96.78
92.92
87.22
79.46
69.57
57.61
43.66
27.79
10.25
-8.29
-26.64
-43.18
-56.3
-64.86
-68.64
-68.34
-65.27
-60.84
-56.15
-51.79
-47.98
-44.81
-42.42
-41.04
-40.88
-41.95
-43.99
-46.41
-48.42
-49.19
-48.15
-45.09
-40.25
-34.24
-27.76
-21.37
-15.32
-9.59
-3.98
1.56
6.83
11.41
14.8
16.67
16.96
15.99
14.23
12.21
10.24
8.45
6.68
4.65
2.03
-1.5
-6.15
-11.95
-18.57
-25.24
-30.72
-33.55
-32.48
-26.89
-17.11
-4.35
9.59
22.9
34.22
42.78
48.44
51.35
51.84
50.16
46.59
41.46
35.25
28.56
22.02
16.12
11.16
7.18
4.1
1.77
0.12
-0.87
-1.2
-1.07
-0.89
-1.26
-2.78
-5.87
-10.56
-16.5
-23.11
-29.75
-35.97
-41.6
-46.79
-51.9
-57.36
-63.47
-70.31
-77.57
-84.51
-90.02
-92.84
-91.88
-86.57
-77.14
-64.54
-50.31
-36.1
-23.32
-12.9
-5.22
-0.23
2.34
2.79
1.5
-1.17
-4.78
-8.88
-13.06
-17.06
-20.75
-24.07
-26.98
-29.39
-31.11
-31.93
-31.71
-30.53
-28.6
-26.42
-24.49
-23.27
-23.01
-23.63
-24.83
-26.22
-27.5
-28.61
-29.8
-31.54
-34.34
-38.54
-44.05
-50.18
-55.62
-58.72
-57.87
-52.08
-41.32
-26.6
-9.67
7.49
23.22
36.52
46.98
54.66
59.73
62.36
62.7
60.97
57.58
53.09
48.12
43.15
38.51
34.38
30.84
28.07
26.29
25.66
26.24
27.77
29.66
31.16
31.52
30.23
27.13
22.48
16.84
10.83
4.97
-0.43
-5.35
-10.01
-14.78
-20.04
-25.99
-32.44
-38.65
-43.35
-45.0
-42.28
-34.53
-22.08
-6.19
11.32
28.62
44.29
57.61
68.39
76.78
82.94
86.99
88.95
88.96
87.36
84.68
81.59
78.66
76.3
74.69
73.84
73.76
74.47
76.06
78.51
81.64
84.99
87.98
90.1
91.01
90.63
88.95
85.81
80.84
73.44
63.0
49.12
31.76
11.23
-11.92
-36.97
-63.0
-88.74
-112.55
-132.67
-147.54
-156.33
-159.19
-157.12
-151.65
-144.22
-135.81
-126.87
-117.48
-107.75
-97.95
-88.6
-80.18
-72.94
-66.76
-61.28
-56.03
-50.71
-45.24
-39.66
-34.05
-28.38
-22.5
-16.29
-9.73
-3.08
3.15
8.28
11.73
13.18
12.69
10.72
7.93
4.91
2.07
-0.53
-3.13
-6.13
-9.94
-14.84
-20.85
-27.6
-34.26
-39.52
-41.93
-40.23
-33.8
-22.96
-8.91
6.59
21.73
35.11
45.97
54.12
59.66
62.85
63.92
63.12
60.76
57.29
53.22
49.01
45.02
41.43
38.3
35.6
33.35
31.63
30.54
30.13
30.32
30.83
31.22
31.01
29.83
27.47
23.98
19.59
14.6
9.36
4.13
-0.93
-5.75
-10.45
-15.23
-20.41
-26.31
-33.05
-40.39
-47.59
-53.46
-56.61
-55.84
-50.59
-41.1
-28.48
-14.28
-0.12
12.73
23.5
31.88
37.87
41.53
43.02
42.52
40.39
37.15
33.43
29.86
26.92
24.86
23.77
23.6
24.16
25.24
26.58
27.9
28.95
29.55
29.63
29.18
28.2
26.66
24.52
21.74
18.32
14.37
10.05
5.5
0.83
-3.95
-8.86
-13.97
-19.37
-25.15
-31.47
-38.42
-45.91
-53.49
-60.29
-65.13
-66.76
-64.3
-57.58
-47.24
-34.57
-21.16
-8.45
2.52
11.22
17.55
21.63
23.77
24.34
23.76
22.47
20.86
19.21
17.7
16.42
15.48
15.01
15.17
16.1
17.78
20.05
22.59
24.98
26.83
27.9
28.09
27.47
26.18
24.32
21.91
18.89
15.17
10.74
5.67
0.19
-5.41
-10.8
-15.71
-20.03
-23.8
-27.31
-30.95
-35.09
-39.78
-44.64
-48.79
-51.02
-50.23
-45.74
-37.65
-26.74
-14.35
-1.91
9.31
18.47
25.19
29.42
31.43
31.53
30.12
27.59
24.32
20.67
17.01
13.66
10.9
8.89
7.69
7.27
7.56
8.43
9.73
11.28
12.81
14.06
14.73
14.61
13.5
11.32
8.1
4.0
-0.66
-5.51
-10.21
-14.58
-18.64
-22.57
-26.62
-31.04
-36.03
-41.66
-47.86
-54.23
-59.99
-64.04
-65.19
-62.54
-55.86
-45.74
-33.46
-20.65
-8.78
1.08
8.48
13.39
16.03
16.78
15.98
14.04
11.34
8.28
5.22
2.45
0.12
-1.72
-3.03
-3.76
-3.76
-2.86
-0.95
1.91
5.44
9.24
12.87
16.07
18.83
21.31
23.69
25.99
27.96
29.15
29.09
27.49
24.36
20.04
15.01
9.74
4.53
-0.52
-5.58
-10.91
-16.77
-23.24
-30.02
-36.36
-41.17
-43.29
-41.85
-36.57
-27.94
-17.0
-5.16
6.26
16.2
24.02
29.45
32.53
33.55
32.9
31.05
28.43
25.4
22.2
19.02
16.01
13.3
11.05
9.4
8.51
8.44
9.15
10.46
12.03
13.43
14.26
14.24
13.29
11.53
9.23
6.61
3.78
0.72
-2.66
-6.42
-10.54
-14.86
-19.19
-23.36
-27.27
-30.91
-34.36
-37.78
-41.47
-45.75
-50.87
-56.75
-62.71
-67.52
-69.71
-68.02
-61.94
-51.95
-39.3
-25.61
-12.33
-0.42
9.65
17.75
23.84
27.96
30.24
30.99
30.69
29.84
28.81
27.8
26.83
25.87
24.98
24.28
23.91
23.9
24.12
24.29
24.12
23.39
21.99
19.96
17.38
14.34
10.87
6.94
2.45
-2.67
-8.43
-14.8
-21.61
-28.61
-35.53
-42.02
-47.78
-52.6
-56.45
-59.56
-62.4
-65.52
-69.33
-73.75
-78.05
-80.96
-81.01
-77.06
-68.77
-56.74
-42.38
-27.37
-13.2
-0.82
9.38
17.41
23.41
27.46
29.63
30.04
28.94
26.78
24.03
21.12
18.32
15.78
13.61
11.99
11.11
11.17
12.17
13.89
15.89
17.68
18.86
19.23
18.81
17.79
16.34
14.62
12.62
10.31
7.63
4.59
1.28
-2.2
-5.76
-9.32
-12.84
-16.31
-19.76
-23.35
-27.32
-31.9
-37.02
-42.12
-46.07
-47.5
-45.15
-38.45
-27.74
-14.21
0.53
14.9
27.69
38.24
46.27
51.77
54.9
55.98
55.42
53.79
51.61
49.3
47.09
45.03
43.09
41.35
40.09
39.77
40.95
44.04
49.16
56.08
64.24
72.98
81.64
89.73
96.89
102.89
107.61
110.97
112.89
113.18
111.4
106.9
98.89
86.8
70.59
50.91
28.99
6.29
-15.98
-37.13
-56.89
-75.04
-90.96
-103.46
-110.99
-112.26
-106.73
-95.03
-78.76
-59.97
-40.63
-22.23
-5.67
8.65
20.6
30.2
37.57
42.92
46.53
48.71
49.74
49.85
49.22
48.05
46.5
44.73
42.86
40.97
39.12
37.32
35.56
33.83
32.03
30.06
27.8
25.12
21.86
17.92
13.24
7.85
1.87
-4.54
-11.18
-17.93
-24.72
-31.62
-38.76
-46.41
-54.87
-64.4
-74.93
-85.8
-95.64
-102.53
-104.53
-100.4
-90.11
-75.06
-57.61
-40.4
-25.6
-14.41
-7.1
-3.25
-2.13
-3.1
-5.65
-9.38
-13.96
-19.04
-24.27
-29.31
-33.91
-37.92
-41.36
-44.31
-46.86
-49.0
-50.6
-51.47
-51.44
-50.51
-48.85
-46.77
-44.61
-42.69
-41.29
-40.61
-40.75
-41.73
-43.45
-45.74
-48.46
-51.52
-54.92
-58.71
-62.97
-67.74
-72.99
-78.52
-83.76
-87.76
-89.21
-86.81
-79.69
-67.88
-52.38
-34.91
-17.41
-1.47
11.95
22.54
30.38
35.67
38.53
39.05
37.35
33.73
28.73
23.0
17.28
12.15
8.05
5.23
3.79
3.73
4.96
7.31
10.47
14.01
17.46
20.27
22.01
22.43
21.44
19.15
15.81
11.8
7.56
3.46
-0.22
-3.37
-6.11
-8.74
-11.7
-15.42
-20.15
-25.78
-31.66
-36.64
-39.24
-38.13
-32.52
-22.55
-9.19
6.01
21.42
35.67
47.85
57.53
64.57
68.98
70.89
70.54
68.27
64.6
60.1
55.37
50.91
47.09
44.09
41.95
40.64
40.05
40.08
40.56
41.37
42.29
43.05
43.31
42.71
40.96
37.95
33.87
29.15
24.37
20.0
16.21
12.8
9.28
5.09
-0.24
-6.93
-14.93
-23.81
-32.73
-40.47
-45.55
-46.61
-42.82
-34.22
-21.74
-6.99
8.27
22.49
34.64
44.16
50.91
54.93
56.38
55.52
52.73
48.53
43.53
38.39
33.72
29.96
27.3
25.7
24.92
24.67
24.68
24.85
25.18
25.69
26.26
26.61
26.27
24.82
22.04
18.05
13.3
8.36
3.69
-0.55
-4.57
-8.82
-13.82
-19.97
-27.34
-35.55
-43.71
-50.49
-54.35
-53.99
-48.78
-39.05
-26.03
-11.52
2.7
15.23
25.32
32.75
37.58
40.0
40.22
38.5
35.31
31.28
27.09
23.37
20.46
18.44
17.08
16.08
15.14
14.13
13.15
12.39
12.04
12.09
12.26
12.1
11.14
9.08
5.92
1.94
-2.43
-6.82
-11.01
-14.98
-18.85
-22.83
-27.23
-32.4
-38.64
-45.97
-53.79
-60.85
-65.37
-65.64
-60.62
-50.47
-36.53
-20.84
-5.56
7.68
17.96
24.97
28.72
29.35
27.05
22.17
15.35
7.49
-0.4
-7.33
-12.59
-15.72
-16.55
-15.06
-11.37
-5.69
1.57
9.77
18.08
25.6
31.65
35.92
38.58
40.17
41.34
42.69
44.53
46.96
49.86
52.98
55.97
58.36
59.66
59.45
57.63
54.46
50.65
47.21
45.12
45.13
47.53
52.05
58.05
64.66
71.14
76.95
81.84
85.66
88.22
89.25
88.42
85.56
80.79
74.61
67.79
61.13
55.32
50.72
47.43
45.28
44.02
43.35
43.08
43.14
43.64
44.69
46.38
48.54
50.77
52.58
53.57
53.78
53.74
54.3
56.27
59.89
64.67
69.5
73.11
74.63
73.99
71.9
69.69
68.76
70.18
74.34
80.82
88.46
95.73
101.15
103.88
104.02
102.59
100.95
100.09
99.8
98.68
94.6
85.63
70.86
50.74
26.88
1.45
-23.45
-46.24
-66.03
-82.6
-96.26
-107.69
-117.72
-126.97
-135.5
-142.66
-147.22
-147.78
-143.29
-133.4
-118.48
-99.43
-77.44
-53.96
-30.77
-10.11
5.54
13.9
13.68
5.28
-8.94
-25.28
-39.77
-49.44
-53.17
-51.78
-47.3
-42.1
-38.14
-36.83
-39.24
-46.31
-58.72
-76.42
-98.12
-121.24
-142.25
-157.65
-164.75
-162.25
-150.31
-130.57
-105.93
-80.3
-58.21
-44.05
-40.96
-49.67
-68.09
-91.72
-115.08
-133.41
-144.02
-146.67
-143.04
-135.6
-126.67
-117.95
-110.56
-105.48
-103.61
-105.65
-111.55
-120.04
-128.59
-133.88
-132.85
-123.64
-106.26
-82.65
-56.07
-30.02
-7.24
10.9
24.31
33.66
39.66
42.68
42.7
39.77
34.31
27.33
20.09
13.7
8.77
5.22
2.5
-0.07
-2.92
-6.06
-9.18
-11.78
-13.5
-14.27
-14.34
-14.14
-14.15
-14.58
-15.32
-15.92
-15.82
-14.59
-12.15
-8.83
-5.25
-2.08
0.12
1.1
0.91
-0.05
-1.09
-1.24
0.54
5.04
12.51
22.41
33.51
44.21
53.09
59.3
62.7
63.71
62.98
60.95
57.79
53.44
47.86
41.31
34.34
27.71
22.15
18.06
15.44
13.88
12.83
11.77
10.39
8.54
6.21
3.39
0.03
-3.84
-8.09
-12.42
-16.45
-19.78
-22.2
-23.66
-24.31
-24.41
-24.29
-24.27
-24.71
-26.0
-28.53
-32.57
-38.06
-44.35
-50.18
-53.84
-53.73
-48.91
-39.51
-26.79
-12.7
0.72
12.0
20.45
26.16
29.57
31.12
31.04
29.39
26.2
21.67
16.19
10.33
4.62
-0.52
-4.88
-8.43
-11.3
-13.64
-15.59
-17.18
-18.37
-18.99
-18.88
-18.02
-16.57
-14.93
-13.56
-12.84
-12.9
-13.57
-14.52
-15.39
-15.95
-16.16
-16.15
-16.12
-16.41
-17.43
-19.51
-22.78
-26.8
-30.48
-32.24
-30.48
-24.17
-13.33
0.9
16.63
31.8
44.73
54.46
60.72
63.71
63.82
61.51
57.23
51.5
44.83
37.77
30.8
24.26
18.42
13.45
9.46
6.53
4.65
3.77
3.8
4.59
5.96
7.69
9.48
10.96
11.73
11.43
9.89
7.17
3.58
-0.41
-4.34
-7.82
-10.73
-13.13
-15.28
-17.56
-20.4
-24.24
-29.39
-35.88
-43.23
-50.32
-55.57
-57.3
-54.24
-46.05
-33.46
-18.07
-1.89
13.22
25.89
35.44
41.79
45.27
46.4
45.76
43.88
41.16
37.94
34.47
31.02
27.84
25.15
23.13
21.86
21.36
21.63
22.63
24.22
26.1
27.84
28.91
28.85
27.41
24.6
20.66
15.88
10.53
4.76
-1.35
-7.71
-14.14
-20.37
-26.1
-31.11
-35.37
-39.07
-42.68
-46.83
-52.12
-58.82
-66.53
-74.03
-79.45
-80.72
-76.34
-65.92
-50.46
-32.04
-13.17
3.95
17.82
27.79
33.88
36.55
36.52
34.66
31.9
29.05
26.51
24.21
21.71
18.42
14.05
8.76
3.14
-2.06
-6.2
-8.97
-10.42
-10.82
-10.54
-9.98
-9.47
-9.28
-9.53
-10.13
-10.83
-11.31
-11.24
-10.51
-9.13
-7.33
-5.38
-3.59
-2.25
-1.66
-2.15
-3.98
-7.37
-12.27
-18.29
-24.51
-29.51
-31.6
-29.25
-21.62
-8.89
7.72
26.25
44.64
61.17
74.84
85.29
92.6
96.99
98.62
97.57
93.98
88.13
80.55
71.92
63.04
54.59
47.08
40.82
35.95
32.58
30.81
30.7
32.14
34.65
37.4
39.33
39.48
37.34
33.03
27.21
20.7
14.12
7.62
0.93
-6.37
-14.45
-23.11
-31.87
-40.26
-48.11
-55.71
-63.61
-72.41
-82.35
-93.1
-103.61
-112.21
-116.92
-115.95
-108.25
-93.88
-74.06
-50.95
-26.93
-4.15
15.82
32.09
44.19
52.04
55.81
56.01
53.5
49.37
44.67
40.28
36.73
34.22
32.68
31.83
31.32
30.75
29.87
28.59
26.99
25.23
23.41
21.43
19.06
16.06
12.33
7.98
3.22
-1.72
-6.71
-11.72
-16.81
-21.94
-27.01
-31.89
-36.44
-40.63
-44.46
-48.07
-51.69
-55.68
-60.5
-66.47
-73.5
-80.75
-86.62
-89.04
-86.19
-77.16
-62.45
-43.84
-23.91
-5.12
10.68
22.61
30.51
34.7
35.64
33.83
29.8
24.15
17.49
10.33
3.17
-3.54
-9.32
-13.6
-15.81
-15.61
-12.97
-8.23
-2.08
4.68
11.25
17.07
21.75
25.16
27.37
28.67
29.42
29.96
30.39
30.61
30.33
29.28
27.34
24.59
21.22
17.37
13.05
8.09
2.21
-4.86
-13.25
-22.85
-33.07
-42.73
-50.07
-53.02
-49.76
-39.38
-22.31
-0.4
23.51
46.28
65.24
78.61
85.72
86.83
82.87
75.19
65.28
54.57
44.24
35.08
27.4
21.19
16.25
12.42
9.73
8.23
7.89
8.41
9.17
9.51
8.9
7.29
5.0
2.54
0.32
-1.59
-3.52
-5.94
-9.23
-13.38
-17.99
-22.44
-26.18
-29.03
-31.3
-33.91
-38.06
-44.93
-55.21
-68.65
-83.81
-98.19
-108.71
-112.53
-107.99
-95.12
-75.72
-52.72
-29.24
-7.75
10.44
25.07
36.45
45.02
51.01
54.47
55.41
54.07
50.83
46.2
40.65
34.56
28.28
22.28
17.16
13.61
12.2
13.06
15.79
19.48
22.98
25.22
25.63
24.2
21.44
18.07
14.65
11.39
8.02
4.03
-1.07
-7.44
-14.76
-22.33
-29.38
-35.43
-40.44
-44.97
-49.86
-55.96
-63.63
-72.39
-80.85
-86.86
-88.11
-82.84
-70.52
-52.12
-29.9
-6.79
14.37
31.59
43.99
51.79
55.89
57.47
57.55
56.82
55.52
53.62
50.99
47.64
43.92
40.4
37.82
36.77
37.5
39.93
43.65
48.15
52.84
57.18
60.62
62.64
62.95
61.48
58.46
54.29
49.27
43.48
36.75
28.78
19.43
8.78
-2.8
-14.79
-26.71
-38.18
-49.01
-59.25
-69.14
-78.94
-88.64
-97.53
-104.07
-106.15
-101.76
-89.89
-71.17
-47.83
-23.02
0.21
19.78
34.89
45.7
52.74
56.43
56.98
54.55
49.56
42.87
35.66
29.09
24.03
20.84
19.51
19.72
21.07
23.24
25.96
29.08
32.51
36.18
39.95
43.52
46.37
47.81
47.16
43.92
38.11
30.41
21.98
14.22
8.32
4.87
3.67
3.92
4.46
4.02
1.64
-3.15
-9.99
-17.47
-23.13
-23.79
-16.36
1.23
29.14
65.53
107.09
150.01
190.97
227.49
257.82
280.72
295.34
301.5
299.85
291.89
279.34
263.48
244.75
223.03
198.33
171.35
143.52
116.25
90.16
64.63
38.24
9.58
-21.98
-56.06
-91.66
-127.7
-163.48
-198.59
-232.64
-264.97
-294.4
-319.37
-338.1
-348.89
-350.44
-342.35
-325.46
-302.18
-276.19
-251.65
-232.12
-219.29
-212.49
-208.63
-203.29
-192.27
-173.19
-146.51
-115.56
-85.43
-61.32
-46.86
-43.22
-48.96
-60.71
-74.19
-85.33
-91.08
-89.84
-81.42
-66.76
-47.44
-25.32
-2.46
19.03
37.2
50.73
59.39
64.23
67.16
70.07
73.96
78.61
82.97
85.94
87.03
86.34
84.13
80.29
74.38
66.12
56.01
45.37
35.78
28.16
22.2
16.45
9.07
-1.35
-15.45
-33.16
-54.03
-77.31
-101.49
-123.96
-141.09
-149.07
-145.39
-129.94
-105.37
-76.2
-47.27
-22.24
-2.8
11.17
20.86
27.65
32.6
36.44
39.72
43.0
46.82
51.48
56.95
62.82
68.58
73.92
78.9
83.95
89.59
96.17
103.67
111.7
119.72
127.25
134.02
140.02
145.47
150.83
156.48
162.44
167.94
171.09
169.13
159.34
140.21
112.34
78.48
42.7
9.14
-18.79
-38.45
-47.36
-42.85
-22.55
14.2
64.84
123.04
179.87
226.22
255.58
265.74
258.82
239.7
213.79
185.26
156.34
127.48
98.28
68.08
36.4
2.84
-32.97
-71.15
-111.06
-150.92
-187.84
-218.45
-240.0
-251.43
-253.73
-249.53
-242.08
-234.22
-227.76
-223.51
-221.47
-221.22
-221.99
-222.7
-222.08
-219.01
-212.96
-204.4
-194.85
-186.63
-181.96
-181.92
-185.51
-189.41
-188.86
-179.33
-158.33
-126.64
-88.02
-47.82
-10.99
19.4
42.56
59.17
70.32
76.63
78.22
75.19
68.2
58.59
48.03
38.1
29.86
23.82
20.09
18.59
19.25
22.0
26.71
33.07
40.68
48.97
57.35
65.15
71.69
76.37
78.65
78.28
75.34
70.29
63.82
56.73
49.66
43.07
37.11
31.65
26.12
19.38
9.87
-3.87
-22.23
-43.76
-64.92
-80.94
-87.42
-82.0
-65.28
-40.53
-12.38
14.96
38.7
57.71
71.88
81.27
85.68
84.81
78.75
68.41
55.44
41.85
29.37
19.04
11.06
5.09
0.54
-3.01
-5.74
-7.62
-8.63
-8.94
-9.04
-9.7
-11.81
-16.09
-22.77
-31.45
-41.08
-50.22
-57.49
-61.93
-63.31
-62.04
-59.08
-55.69
-53.35
-53.39
-56.71
-63.21
-71.41
-78.49
-80.95
-75.7
-61.23
-38.19
-9.19
22.01
51.78
77.41
97.5
111.72
120.41
124.11
123.29
118.51
110.39
99.83
87.9
75.75
64.35
54.37
46.1
39.59
34.78
31.71
30.46
31.11
33.43
36.81
40.17
42.27
41.96
38.59
32.18
23.45
13.52
3.6
-5.36
-12.92
-19.15
-24.56
-29.99
-36.47
-45.02
-56.21
-69.66
-83.56
-94.68
-99.14
-93.64
-76.81
-49.9
-16.53
18.54
50.87
77.52
97.31
110.43
117.62
119.67
117.23
110.99
101.88
91.09
79.87
69.3
60.14
52.82
47.59
44.6
43.89
45.4
48.8
53.5
58.72
63.6
67.36
69.35
69.08
66.17
60.38
51.6
40.07
26.39
11.53
-3.31
-17.06
-29.07
-39.32
-48.44
-57.46
-67.64
-80.02
-95.06
-112.16
-129.3
-143.16
-149.78
-145.77
-129.64
-102.6
-68.41
-32.37
0.4
26.24
43.68
53.1
55.98
53.97
48.44
40.4
30.69
20.22
9.88
0.52
-7.26
-13.15
-16.99
-18.77
-18.39
-15.86
-11.32
-5.22
1.71
8.58
14.59
19.24
22.36
24.0
24.24
23.14
20.67
16.92
12.19
6.89
1.28
-4.74
-11.77
-20.68
-32.28
-46.96
-64.63
-84.8
-106.54
-128.21
-147.22
-160.03
-162.82
-152.63
-128.7
-93.11
-50.44
-6.48
33.51
66.06
89.91
105.59
114.52
118.15
117.65
113.83
107.35
98.92
89.35
79.47
70.07
61.75
54.9
49.73
46.3
44.54
44.22
44.92
46.08
47.04
47.22
46.23
43.88
40.11
34.88
28.11
19.71
9.67
-1.77
-14.17
-26.89
-39.28
-50.84
-61.31
-70.68
-79.3
-87.91
-97.49
-109.04
-122.83
-137.84
-151.47
-159.91
-159.24
-146.92
-122.81
-89.48
-51.43
-13.72
19.5
45.74
64.35
75.93
81.69
82.84
80.44
75.32
68.34
60.38
52.32
45.0
39.04
34.77
32.25
31.37
31.96
33.75
36.46
39.67
42.85
45.38
46.67
46.27
43.97
39.77
33.78
26.17
17.17
7.08
-3.69
-14.61
-25.13
-34.83
-43.54
-51.43
-58.98
-66.99
-76.26
-87.31
-99.82
-112.36
-122.34
-126.52
-121.93
-106.9
-81.77
-48.92
-12.23
24.03
56.18
81.8
99.91
110.69
115.14
114.63
110.62
104.44
97.22
89.82
82.87
76.85
72.13
68.99
67.63
68.16
70.51
74.45
79.51
84.92
89.74
92.78
92.94
89.48
82.24
71.7
58.76
44.4
29.26
13.5
-3.05
-20.48
-38.55
-56.7
-74.27
-90.98
-107.09
-123.31
-140.5
-159.35
-180.15
-202.48
-224.91
-244.73
-257.87
-259.75
-246.59
-217.01
-172.95
-119.51
-63.49
-11.4
32.14
65.1
87.6
101.03
107.08
107.34
103.26
96.24
87.59
78.46
69.53
61.06
53.04
45.51
38.81
33.59
30.67
30.62
33.44
38.42
44.19
49.23
52.28
52.74
50.82
47.25
42.89
38.25
33.29
27.43
19.95
10.38
-1.2
-14.17
-27.57
-40.53
-52.55
-63.64
-74.23
-85.09
-97.1
-110.87
-126.2
-141.65
-154.41
-160.73
-156.98
-141.01
-113.14
-76.22
-34.87
5.96
42.36
72.17
94.88
111.02
121.39
126.63
127.17
123.43
116.08
106.1
94.74
83.28
72.86
64.3
58.04
54.15
52.34
52.01
52.41
52.81
52.64
51.61
49.67
46.88
43.25
38.64
32.8
25.53
16.91
7.37
-2.38
-11.56
-19.56
-26.09
-31.31
-35.79
-40.4
-46.16
-53.81
-63.28
-73.14
-80.41
-81.21
-72.1
-51.68
-21.7
13.06
46.17
71.68
86.11
89.17
83.39
72.62
60.38
48.85
38.67
29.39
20.44
11.63
3.49
-3.0
-6.78
-7.13
-3.76
3.01
12.27
22.37
30.84
34.62
30.7
16.97
-7.13
-40.58
-81.63
-128.98
-182.67
-243.94
-313.84
-391.38
-472.13
-548.43
-611.25
-653.03
-670.07
-663.39
-637.68
-599.07
-552.91
-502.57
-449.73
-395.38
-340.88
-288.11
-238.86
-193.91
-152.5
-112.87
-73.17
-32.64
7.87
46.35
80.58
109.17
132.29
151.47
168.92
186.63
205.69
226.16
247.22
267.49
285.38
299.43
308.57
312.34
310.99
305.29
296.08
283.87
268.77
250.74
230.08
207.8
185.63
165.46
148.57
135.16
124.27
114.27
103.65
91.64
78.43
64.88
51.89
39.81
28.01
15.13
-0.3
-18.87
-39.52
-59.37
-74.3
-80.21
-74.33
-56.22
-27.86
6.97
43.92
79.3
110.81
137.62
160.0
178.68
194.35
207.5
218.56
228.06
236.71
245.38
254.81
265.28
276.41
287.32
296.99
304.74
310.51
314.91
319.1
324.64
333.13
345.9
363.52
385.27
408.86
430.64
446.19
451.28
443.0
420.33
384.46
338.39
286.33
232.82
181.92
136.54
97.99
65.99
38.9
14.25
-10.82
-38.85
-71.34
-107.86
-145.47
-179.21
-203.64
-214.97
-212.84
-200.56
-183.83
-168.32
-157.73
-152.97
-152.81
-155.34
-159.2
-163.91
-169.46
-175.62
-181.56
-186.09
-188.16
-187.3
-183.77
-178.45
-172.53
-167.37
-164.24
-164.14
-167.5
-173.94
-182.36
-191.07
-198.31
-202.7
-203.5
-200.74
-195.08
-187.51
-179.25
-171.54
-165.36
-161.05
-157.92
-154.07
-146.79
-133.34
-112.13
-83.54
-49.9
-14.87
17.77
45.21
66.13
80.6
89.49
93.82
94.43
91.94
86.95
80.16
72.41
64.51
57.05
50.36
44.52
39.56
35.64
32.99
31.91
32.53
34.66
37.7
40.77
42.84
43.0
40.68
35.76
28.66
20.17
11.28
2.81
-4.76
-11.5
-17.91
-24.81
-33.16
-43.68
-56.63
-71.45
-86.57
-99.46
-107.14
-106.97
-97.54
-79.24
-54.27
-26.05
1.87
26.62
46.59
61.36
71.31
77.07
79.24
78.32
74.86
69.58
63.38
57.16
51.61
46.97
43.07
39.48
35.82
32.01
28.37
25.48
23.91
23.85
25.04
26.78
28.15
28.33
26.68
22.89
16.85
8.66
-1.44
-13.03
-25.54
-38.34
-50.91
-62.96
-74.53
-85.92
-97.44
-109.01
-119.74
-127.9
-131.18
-127.43
-115.52
-95.97
-70.89
-43.5
-17.09
5.76
23.67
36.44
44.54
48.71
49.65
47.94
44.2
39.06
33.29
27.63
22.67
18.84
16.33
15.16
15.17
16.16
17.89
20.09
22.43
24.57
26.1
26.6
25.73
23.28
19.15
13.5
6.66
-0.88
-8.54
-15.79
-22.25
-27.83
-32.79
-37.6
-42.87
-49.19
-56.93
-66.06
-75.93
-85.16
-91.75
-93.4
-88.28
-75.68
-56.46
-32.93
-8.22
14.62
33.37
47.04
55.65
59.86
60.52
58.4
54.21
48.61
42.27
35.84
29.88
24.73
20.61
17.61
15.75
15.09
15.56
17.03
19.2
21.62
23.83
25.4
26.08
25.73
24.26
21.61
17.7
12.49
6.05
-1.33
-9.15
-16.77
-23.53
-28.96
-32.89
-35.68
-38.15
-41.44
-46.58
-54.02
-63.16
-72.25
-78.74
-79.96
-74.06
-60.61
-40.81
-17.07
7.67
30.68
50.02
64.63
74.26
79.13
79.78
76.91
71.4
64.33
56.86
50.06
44.64
40.91
38.7
37.6
37.21
37.27
37.69
38.39
39.16
39.58
39.14
37.45
34.3
29.63
23.35
15.25
5.03
-7.49
-22.09
-38.04
-54.2
-69.34
-82.36
-92.53
-99.56
-103.56
-104.95
-104.5
-103.29
-102.48
-103.05
-105.21
-108.12
-109.84
-107.84
-99.87
-84.89
-63.59
-38.33
-12.34
11.28
30.44
44.33
53.3
58.2
59.92
59.14
56.33
51.95
46.53
40.66
34.82
29.38
24.55
20.53
17.64
16.23
16.67
19.05
23.09
28.07
33.07
37.19
39.81
40.69
39.97
37.93
34.86
30.87
25.98
20.22
13.73
6.89
0.23
-5.71
-10.63
-14.54
-17.91
-21.66
-27.04
-35.23
-46.88
-61.55
-77.4
-91.49
-100.49
-101.77
-94.27
-78.92
-58.25
-35.58
-14.0
4.3
18.24
27.73
33.24
35.54
35.41
33.53
30.46
26.57
22.22
17.69
13.34
9.57
6.74
5.09
4.76
5.71
7.77
10.69
14.08
17.49
20.41
22.35
22.86
21.74
18.93
14.55
8.9
2.39
-4.53
-11.43
-18.02
-24.23
-30.22
-36.38
-43.21
-51.25
-60.91
-72.14
-84.16
-95.26
-103.0
-104.78
-98.72
-84.4
-63.13
-37.67
-11.32
12.91
33.0
48.03
57.97
63.27
64.59
62.61
58.09
51.82
44.68
37.44
30.73
25.08
20.8
18.08
16.95
17.32
18.96
21.51
24.56
27.59
30.12
31.68
31.98
30.83
28.17
24.07
18.61
11.92
4.17
-4.35
-13.23
-21.97
-30.11
-37.35
-43.73
-49.66
-55.87
-63.19
-72.21
-82.77
-93.75
-102.99
-107.78
-105.65
-95.2
-76.8
-52.51
-25.53
0.7
23.38
40.92
52.91
59.83
62.56
62.08
59.21
54.62
48.85
42.38
35.65
29.11
23.31
18.83
16.23
15.92
18.1
22.57
28.81
36.0
43.18
49.39
53.85
56.05
55.75
52.97
47.87
40.74
32.0
22.18
11.91
1.8
-7.63
-16.15
-23.83
-31.07
-38.44
-46.58
-55.96
-66.63
-77.96
-88.45
-95.87
-97.68
-91.82
-77.47
-55.54
-28.61
-0.23
26.06
47.65
63.25
72.85
77.17
77.16
73.62
67.24
58.68
48.82
38.71
29.51
22.15
17.17
14.68
14.35
15.59
17.77
20.34
22.89
25.19
27.1
28.54
29.36
29.29
27.98
25.02
20.14
13.34
4.95
-4.47
-14.21
-23.7
-32.61
-40.95
-48.99
-57.23
-66.23
-76.37
-87.47
-98.52
-107.6
-112.19
-109.81
-98.99
-79.84
-54.28
-25.45
3.06
28.18
48.0
61.79
69.82
72.85
71.79
67.49
60.78
52.51
43.61
34.99
27.51
21.79
18.12
16.52
16.72
18.36
20.98
24.13
27.4
30.34
32.54
33.6
33.15
30.93
26.79
20.73
13.02
4.12
-5.28
-14.52
-23.01
-30.46
-36.93
-42.82
-48.83
-55.76
-64.39
-75.12
-87.65
-100.72
-112.09
-118.92
-118.49
-109.13
-90.91
-65.77
-37.06
-8.6
16.38
35.89
49.39
57.4
60.98
61.21
58.97
54.96
49.76
43.99
38.27
33.16
29.05
26.14
24.48
24.02
24.61
26.09
28.16
30.44
32.47
33.81
34.12
33.18
30.96
27.51
22.9
17.22
10.52
2.99
-5.1
-13.38
-21.4
-28.85
-35.6
-41.81
-47.88
-54.48
-62.29
-71.74
-82.66
-93.92
-103.35
-108.1
-105.45
-93.75
-73.2
-45.99
-15.71
13.67
38.88
58.06
70.82
77.81
80.15
78.92
74.99
69.07
61.81
53.89
46.02
38.82
32.82
28.33
25.53
24.39
24.71
26.15
28.27
30.6
32.74
34.38
35.23
35.08
33.64
30.66
25.93
19.46
11.46
2.43
-6.99
-16.15
-24.53
-31.92
-38.37
-44.28
-50.28
-57.16
-65.6
-75.79
-87.0
-97.45
-104.41
-104.97
-96.89
-79.51
-54.09
-23.54
8.3
37.69
61.78
78.97
88.86
92.02
89.58
82.97
73.71
63.27
52.92
43.73
36.49
31.71
29.68
30.35
33.41
38.26
44.1
50.07
55.26
58.81
59.88
57.75
51.96
42.43
29.62
14.43
-1.92
-18.18
-33.34
-46.76
-58.22
-67.82
-75.88
-82.77
-88.88
-94.61
-100.43
-106.89
-114.46
-123.12
-132.0
-139.08
-141.52
-136.41
-121.88
-97.96
-66.81
-32.14
1.81
31.55
54.92
71.28
81.14
85.56
85.68
82.6
77.26
70.56
63.28
56.1
49.47
43.71
39.06
35.8
34.19
34.39
36.32
39.51
43.23
46.63
49.0
49.9
49.23
47.05
43.5
38.67
32.58
25.25
16.74
7.21
-3.02
-13.53
-23.85
-33.55
-42.37
-50.35
-57.88
-65.71
-74.65
-85.22
-97.09
-108.76
-117.58
-120.4
-114.56
-98.86
-74.21
-43.51
-10.81
19.77
45.15
63.72
75.4
81.05
81.99
79.47
74.52
67.94
60.36
52.33
44.38
36.97
30.54
25.5
22.2
20.94
21.81
24.6
28.75
33.38
37.49
40.22
41.09
40.06
37.4
33.49
28.62
22.84
16.06
8.19
-0.69
-10.27
-20.0
-29.32
-37.81
-45.3
-51.97
-58.36
-65.27
-73.54
-83.63
-95.18
-106.62
-115.19
-117.52
-110.73
-93.49
-66.78
-33.75
1.15
33.46
59.9
78.97
90.72
96.21
96.71
93.3
86.86
78.19
68.18
57.85
48.18
39.97
33.67
29.43
27.23
26.89
28.13
30.47
33.23
35.56
36.65
35.95
33.27
28.8
22.94
16.15
8.76
1.02
-6.91
-14.93
-22.98
-31.13
-39.47
-48.17
-57.28
-66.78
-76.63
-86.89
-97.81
-109.55
-121.85
-133.49
-142.18
-144.95
-138.95
-122.61
-96.32
-62.55
-25.29
11.0
42.48
66.58
82.24
89.71
90.17
85.32
77.06
67.25
57.42
48.69
41.66
36.58
33.58
32.77
34.29
38.19
44.06
51.0
57.68
62.7
64.99
64.15
60.47
54.77
47.98
40.85
33.73
26.6
19.16
11.11
2.35
-6.84
-15.88
-24.04
-30.76
-35.95
-40.16
-44.58
-50.72
-59.92
-72.82
-88.75
-105.54
-119.73
-127.3
-124.87
-110.81
-85.83
-52.9
-16.35
19.32
50.55
75.32
93.04
104.16
109.52
110.02
106.45
99.52
90.05
78.96
67.27
56.07
46.35
38.96
34.42
32.89
34.06
37.23
41.44
45.6
48.7
49.98
48.95
45.44
39.61
31.82
22.62
12.58
2.22
-8.15
-18.39
-28.51
-38.46
-48.09
-57.16
-65.43
-72.92
-80.05
-87.59
-96.41
-106.93
-118.47
-129.03
-135.47
-134.32
-123.03
-100.99
-69.98
-33.72
3.13
36.4
63.27
82.66
94.91
101.13
102.65
100.63
95.94
89.3
81.3
72.58
63.73
55.38
48.09
42.29
38.22
35.89
35.07
35.34
36.18
37.07
37.54
37.21
35.77
32.96
28.56
22.45
14.67
5.47
-4.76
-15.51
-26.25
-36.49
-45.75
-53.64
-59.96
-64.97
-69.44
-74.58
-81.48
-90.36
-100.05
-107.94
-110.76
-105.75
-91.89
-70.39
-44.31
-17.56
6.52
25.88
40.05
49.65
55.69
58.94
59.77
58.28
54.59
49.05
42.24
34.84
27.41
20.37
13.95
8.33
3.63
-0.01
-2.6
-4.22
-5.09
-5.47
-5.61
-5.76
-6.16
-7.14
-9.05
-12.13
-16.41
-21.62
-27.29
-32.91
-38.07
