265.88
267.29
261.36
246.91
224.5
196.33
165.48
134.89
106.66
82.0
61.47
45.28
33.16
24.13
16.27
7.03
-5.97
-24.11
-47.14
-73.18
-99.37
-122.79
-141.36
-154.44
-162.84
-168.56
-174.2
-182.23
-194.16
-209.79
-226.93
-241.58
-249.03
-245.33
-228.63
-199.91
-162.63
-121.49
-81.05
-44.7
-14.4
9.02
25.19
33.94
35.33
29.91
18.96
4.56
-10.76
-24.38
-34.08
-38.51
-37.46
-31.91
-23.72
-15.09
-7.97
-3.58
-2.23
-3.44
-6.24
-9.48
-12.17
-13.78
-14.32
-14.36
-14.77
-16.46
-19.97
-25.34
-32.12
-39.62
-47.18
-54.38
-61.19
-67.97
-75.44
-84.29
-94.8
-106.16
-116.26
-121.85
-119.55
-107.01
-83.97
-52.42
-16.07
20.83
54.68
83.07
104.88
119.85
128.12
130.09
126.35
117.87
105.97
92.17
77.95
64.51
52.63
42.71
34.85
29.05
25.3
23.71
24.33
27.05
31.42
36.67
41.67
45.26
46.44
44.7
40.18
33.63
26.07
18.41
10.99
3.44
-5.23
-16.34
-31.11
-50.24
-73.48
-99.25
-124.58
-145.38
-157.34
-156.99
-142.88
-116.14
-80.29
-40.19
-0.8
33.95
61.64
81.33
93.1
97.65
96.05
89.63
79.91
68.48
56.83
46.12
37.04
29.74
23.94
19.21
15.17
11.69
9.01
7.54
7.59
9.06
11.27
13.15
13.51
11.51
6.89
0.02
-8.34
-17.41
-26.73
-36.22
-46.21
-57.26
-70.08
-85.39
-103.61
-124.37
-146.04
-165.56
-178.81
-181.72
-171.55
-147.93
-113.03
-70.94
-26.4
16.32
54.12
85.17
108.56
124.01
131.69
132.3
127.05
117.57
105.61
92.81
80.35
68.89
58.61
49.36
40.9
33.18
26.45
21.25
18.2
17.63
19.28
22.24
25.09
26.41
25.22
21.25
15.01
7.43
-0.57
-8.47
-16.36
-24.78
-34.56
-46.59
-61.55
-79.65
-100.18
-121.23
-139.6
-151.36
-152.84
-141.88
-118.62
-85.61
-47.01
-7.4
29.4
60.84
85.7
103.59
114.57
118.99
117.46
111.11
101.39
89.95
78.24
67.21
57.3
48.53
40.82
34.29
29.35
26.57
26.34
28.61
32.63
36.99
40.05
40.33
37.02
30.14
20.53
9.45
-1.86
-12.58
-22.54
-32.16
-42.31
-54.05
-68.29
-85.27
-104.0
-121.98
-135.52
-140.58
-134.19
-115.55
-86.54
-51.1
-13.94
20.86
50.73
74.6
92.43
104.43
110.77
111.66
107.68
99.92
89.86
78.96
68.27
58.23
48.89
40.21
32.38
25.91
21.48
19.57
20.14
22.47
25.26
27.02
26.43
22.8
16.21
7.36
-2.63
-12.75
-22.34
-31.32
-40.2
-49.89
-61.49
-75.83
-93.02
-111.91
-129.92
-143.34
-148.28
-141.89
-123.43
-94.59
-59.0
-21.07
15.18
47.01
72.98
92.63
106.0
113.29
114.89
111.54
104.33
94.67
83.94
73.27
63.36
54.47
46.65
39.87
34.23
29.97
27.36
26.58
27.44
29.32
31.19
31.86
30.25
25.74
18.26
8.36
-3.06
-15.0
-26.69
-37.73
-48.13
-58.41
-69.42
-82.23
-97.65
-115.67
-134.85
-152.14
-163.41
-164.65
-153.37
-129.67
-96.39
-58.25
-20.37
13.15
40.01
59.74
73.08
81.3
85.73
87.75
88.71
89.85
91.96
95.0
98.01
99.26
96.64
88.06
71.67
45.89
9.27
-39.26
-99.8
-170.55
-247.11
-322.63
-388.91
-438.26
-465.56
-469.39
-452.21
-419.11
-376.23
-329.15
-282.04
-237.54
-197.32
-162.46
-133.79
-111.84
-96.63
-87.43
-82.7
-80.04
-76.48
-69.02
-55.13
-33.48
-4.21
31.15
70.16
110.09
148.48
183.43
213.43
237.2
253.6
261.85
261.92
254.79
242.39
227.04
210.88
195.26
180.74
167.37
155.23
144.65
136.24
130.38
126.94
125.12
123.61
121.14
116.76
110.12
101.33
90.76
78.87
66.12
52.94
39.73
26.81
14.33
2.16
-10.18
-23.4
-38.08
-54.16
-70.48
-84.67
-93.63
-94.46
-85.51
-67.07
-41.39
-11.87
18.0
45.59
69.56
89.56
105.72
118.03
126.19
129.85
128.97
124.14
116.58
107.71
98.79
90.51
82.95
75.84
68.96
62.54
57.2
53.69
52.35
52.73
53.58
53.21
50.2
43.95
34.91
24.29
13.58
3.87
-4.47
-11.81
-19.12
-27.56
-38.1
-51.22
-66.44
-82.24
-96.04
-104.8
-105.81
-97.56
-80.33
-56.06
-27.82
1.1
27.87
50.66
68.56
81.49
89.87
94.38
95.74
94.63
91.54
86.81
80.72
73.58
65.79
57.85
50.29
43.62
38.27
34.61
32.8
32.7
33.71
34.76
34.61
32.17
26.94
19.27
10.19
1.08
-6.91
-13.32
-18.57
-23.79
-30.43
-39.72
-52.21
-67.37
-83.46
-97.77
-107.24
-109.21
-102.32
-87.0
-65.35
-40.47
-15.45
7.45
27.18
43.63
57.07
67.56
74.79
78.3
77.96
74.23
68.09
60.77
53.27
46.15
39.55
33.5
28.14
23.86
21.14
20.24
20.97
22.64
24.22
24.72
23.48
20.29
15.4
9.33
2.65
-4.11
-10.66
-16.95
-23.21
-29.93
-37.75
-47.23
-58.58
-71.29
-83.99
-94.56
-100.58
-100.03
-91.91
-76.58
-55.67
-31.58
-6.9
16.25
36.38
52.68
64.82
72.73
76.55
76.63
73.6
68.29
61.64
54.48
47.41
40.74
34.58
28.97
24.05
20.09
17.38
16.19
16.48
17.85
19.54
20.65
20.37
18.21
14.19
8.72
2.5
-3.85
-9.96
-15.88
-22.0
-29.0
-37.58
-48.31
-61.21
-75.48
-89.34
-100.28
-105.7
-103.7
-93.77
-77.0
-55.63
-32.37
-9.56
11.16
28.91
43.24
53.87
60.56
63.26
62.24
58.15
52.0
44.88
37.75
31.23
25.59
20.78
16.71
13.4
11.03
9.88
10.13
11.65
13.93
16.14
17.42
17.09
14.85
10.83
5.44
-0.78
-7.38
-14.1
-20.89
-27.86
-35.29
-43.51
-52.87
-63.44
-74.75
-85.64
-94.18
-98.17
-95.76
-86.15
-69.97
-49.1
-26.14
-3.55
16.86
34.09
47.76
57.73
63.92
66.32
65.13
61.02
55.02
48.33
42.02
36.7
32.49
29.13
26.27
23.71
21.47
19.83
19.05
19.26
20.24
21.47
22.2
21.65
19.23
14.76
8.47
0.95
-7.05
-14.88
-22.14
-28.76
-34.98
-41.28
-48.27
-56.54
-66.28
-77.03
-87.41
-95.28
-98.27
-94.6
-83.77
-66.8
-45.9
-23.76
-2.73
15.66
30.75
42.45
50.89
56.17
58.36
57.66
54.47
49.45
43.41
37.12
31.24
26.19
22.14
19.05
16.83
15.36
14.56
14.4
14.85
15.83
17.1
18.32
18.98
18.53
16.5
12.71
7.34
0.95
-5.73
-12.09
-17.87
-23.28
-28.88
-35.42
-43.55
-53.55
-65.1
-77.06
-87.57
-94.3
-95.14
-88.89
-75.71
-57.19
-35.81
-14.21
5.54
22.23
35.41
45.01
51.08
53.74
53.21
50.0
44.85
38.62
32.0
25.38
18.95
12.83
7.29
2.79
-0.11
-0.96
0.29
3.21
6.98
10.57
13.03
13.7
12.31
8.99
4.2
-1.43
-7.27
-12.85
-18.0
-22.96
-28.29
-34.8
-43.18
-53.63
-65.47
-77.02
-85.8
-89.32
-85.8
-74.89
-57.81
-36.96
-15.08
5.53
23.4
37.99
49.28
57.44
62.62
64.91
64.49
61.74
57.17
51.38
44.9
38.17
31.61
25.71
20.95
17.79
16.53
17.15
19.29
22.34
25.54
28.07
29.2
28.33
25.17
19.79
12.67
4.6
-3.49
-10.84
-17.02
-22.02
-26.27
-30.44
-35.27
-41.37
-49.02
-57.84
-66.72
-73.86
-77.2
-75.03
-66.63
-52.59
-34.76
-15.61
2.42
17.59
29.05
36.69
40.78
41.65
39.59
34.97
28.45
20.92
13.37
6.6
1.07
-3.18
-6.32
-8.56
-9.98
-10.61
-10.46
-9.63
-8.31
-6.71
-5.08
-3.75
-3.14
-3.7
-5.74
-9.25
-13.82
-18.75
-23.41
-27.46
-31.03
-34.61
-38.84
-44.26
-51.19
-59.59
-69.0
-78.45
-86.4
-90.99
-90.42
-83.6
-70.57
-52.56
-31.68
-10.32
9.49
26.5
40.16
50.46
57.64
61.94
63.62
63.03
60.63
56.99
52.71
48.29
44.12
40.43
37.38
35.09
33.59
32.88
32.84
33.28
33.95
34.6
35.01
34.93
34.07
32.18
29.03
24.62
19.2
13.22
7.21
1.54
-3.68
-8.62
-13.66
-19.33
-26.06
-34.13
-43.34
-52.84
-61.09
-66.19
-66.38
-60.72
-49.46
-33.99
-16.45
0.96
16.46
29.06
38.41
44.71
48.5
50.4
51.08
51.02
50.54
49.78
48.79
47.71
46.81
46.39
46.7
47.76
49.4
51.26
52.96
54.15
54.57
53.96
52.11
48.83
44.21
38.67
32.99
28.09
24.64
22.74
21.88
21.23
20.03
18.02
15.38
12.51
9.76
7.3
5.24
3.83
3.39
4.07
5.61
7.54
9.71
12.9
18.76
29.08
44.64
64.57
86.51
107.68
126.12
141.35
154.19
166.04
178.09
190.85
203.9
215.94
224.84
227.91
222.45
206.66
180.26
144.73
102.68
56.98
9.91
-37.03
-82.96
-127.26
-169.53
-209.95
-249.55
-290.14
-333.69
-381.13
-431.52
-481.81
-527.45
-563.47
-585.8
-592.02
-581.56
-555.38
-515.43
-464.13
-404.05
-337.71
-267.61
-196.34
-126.58
-61.18
-2.85
46.29
85.13
113.84
133.73
146.61
154.13
157.17
155.82
149.8
138.91
123.66
105.55
87.03
71.01
59.89
54.53
53.79
54.94
55.0
52.14
46.51
39.84
34.09
30.18
27.35
23.78
17.76
8.83
-2.08
-13.31
-23.56
-32.61
-41.33
-51.0
-62.61
-76.29
-91.22
-105.71
-117.58
-124.7
-125.37
-118.85
-105.43
-86.38
-63.64
-39.22
-14.85
8.26
29.37
48.04
63.89
76.6
85.89
91.79
94.74
95.54
95.16
94.47
94.0
93.9
94.1
94.49
95.05
95.89
97.23
99.2
101.76
104.61
107.14
108.6
108.25
105.55
100.34
92.93
83.95
74.18
64.18
54.22
44.18
33.63
22.12
9.3
-4.79
-19.69
-34.41
-47.54
-57.36
-62.2
-60.88
-53.04
-39.32
-21.31
-1.23
18.66
36.45
51.0
61.91
69.41
73.97
76.11
76.24
74.74
72.09
68.95
66.13
64.25
63.5
63.33
62.66
60.17
54.95
46.8
36.33
24.66
12.88
1.66
-8.81
-18.7
-28.16
-37.13
-45.35
-52.52
-58.61
-63.83
-68.61
-73.43
-78.59
-84.3
-90.61
-97.33
-103.86
-109.05
-111.3
-108.9
-100.73
-86.77
-68.28
-47.42
-26.57
-7.53
8.81
22.43
33.76
43.13
50.56
55.79
58.59
59.02
57.55
54.88
51.73
48.55
45.49
42.49
39.54
36.82
34.75
33.77
34.15
35.7
37.82
39.6
40.11
38.74
35.43
30.67
25.27
20.09
15.56
11.56
7.41
2.28
-4.52
-13.09
-22.81
-32.42
-40.31
-44.93
-45.2
-40.79
-32.22
-20.72
-7.88
4.75
15.98
25.16
32.01
36.51
38.67
38.5
36.09
31.71
25.81
19.01
11.87
4.8
-1.98
-8.41
-14.41
-19.84
-24.47
-28.05
-30.53
-32.13
-33.38
-34.98
-37.54
-41.31
-46.08
-51.25
-56.06
-59.97
-62.86
-65.12
-67.42
-70.51
-74.92
-80.83
-87.97
-95.57
-102.39
-106.75
-106.91
-101.49
-89.96
-72.93
-52.02
-29.34
-6.92
13.74
31.74
46.69
58.4
66.76
71.76
73.66
72.96
70.34
66.46
61.82
56.69
51.22
45.6
40.13
35.26
31.46
29.15
28.56
29.71
32.23
35.52
38.76
41.22
42.38
42.1
40.54
38.06
34.96
31.44
27.52
23.08
17.91
11.76
4.37
-4.29
-13.85
-23.34
-31.29
-36.08
-36.47
-32.11
-23.6
-12.36
-0.07
11.78
22.23
30.82
37.44
42.09
44.75
45.38
44.05
41.01
36.74
31.82
26.9
22.46
18.81
16.04
14.11
12.92
12.42
12.6
13.43
14.76
16.29
17.53
17.97
17.15
14.89
11.27
6.69
1.66
-3.32
-7.96
-12.24
-16.42
-20.87
-26.01
-32.16
-39.4
-47.43
-55.44
-62.12
-65.93
-65.44
-59.9
-49.51
-35.44
-19.47
-3.51
10.97
23.1
32.59
39.46
43.86
45.91
45.79
43.84
40.56
36.54
32.35
28.39
24.77
21.47
18.36
15.39
12.68
10.45
8.94
8.22
8.12
8.18
7.83
6.55
4.05
0.38
-4.09
-8.85
-13.46
-17.73
-21.77
-25.94
-30.74
-36.65
-43.89
-52.16
-60.58
-67.72
-71.86
-71.54
-66.04
-55.66
-41.69
-25.98
-10.38
3.73
15.64
25.15
32.3
37.12
39.61
39.84
38.1
34.96
31.09
27.15
23.56
20.47
17.82
15.49
13.48
11.91
11.02
10.98
11.8
13.13
14.39
14.89
14.04
11.6
7.72
2.85
-2.4
-7.56
-12.33
-16.74
-21.01
-25.48
-30.57
-36.7
-44.0
-52.22
-60.42
-67.08
-70.4
-68.91
-62.04
-50.38
-35.53
-19.56
-4.33
8.93
19.75
28.13
34.27
38.3
40.25
40.2
38.42
35.43
31.89
28.43
25.48
23.21
21.57
20.41
19.59
19.04
18.77
18.86
19.32
20.08
20.93
21.51
21.41
20.26
17.86
14.27
9.78
4.81
-0.28
-5.33
-10.39
-15.64
-21.32
-27.66
-34.79
-42.71
-51.09
-59.13
-65.47
-68.53
-66.97
-60.23
-48.89
-34.48
-19.02
-4.3
8.48
18.9
27.02
33.0
36.93
38.82
38.72
36.9
33.88
30.25
26.55
23.17
20.24
17.8
15.83
14.36
13.44
13.15
13.49
14.34
15.47
16.55
17.25
17.26
16.35
14.42
11.44
7.58
3.12
-1.57
-6.14
-10.4
-14.36
-18.22
-22.32
-27.02
-32.63
-39.31
-46.95
-54.99
-62.38
-67.66
-69.31
-66.18
-58.04
-45.68
-30.75
-15.18
-0.65
11.77
21.71
29.19
34.43
37.56
38.66
37.86
35.46
31.99
28.11
24.43
21.36
19.04
17.31
15.92
14.65
13.48
12.55
12.13
12.4
13.27
14.36
15.07
14.76
13.01
9.79
5.43
0.5
-4.45
-9.07
-13.34
-17.44
-21.68
-26.37
-31.8
-38.18
-45.54
-53.5
-61.08
-66.77
-68.84
-65.95
-57.74
-45.0
-29.55
-13.51
1.28
13.71
23.44
30.64
35.65
38.73
39.99
39.56
37.66
34.63
30.93
27.04
23.36
20.16
17.58
15.67
14.37
13.65
13.46
13.74
14.4
15.26
16.03
16.3
15.7
13.95
11.0
7.04
2.47
-2.31
-7.01
-11.54
-15.97
-20.51
-25.35
-30.71
-36.77
-43.65
-51.25
-59.05
-66.04
-70.74
-71.67
-67.82
-59.07
-46.28
-31.06
-15.24
-0.42
12.39
22.75
30.63
36.2
39.67
41.26
41.18
39.69
37.15
33.92
30.41
26.99
23.99
21.58
19.85
18.74
18.18
18.04
18.24
18.67
19.18
19.56
19.53
18.75
16.93
13.94
9.84
4.92
-0.42
-5.77
-10.86
-15.63
-20.22
-24.89
-29.98
-35.82
-42.67
-50.6
-59.26
-67.7
-74.44
-77.77
-76.26
-69.31
-57.47
-42.22
-25.58
-9.39
5.05
17.13
26.78
34.14
39.35
42.5
43.69
43.11
41.13
38.18
34.72
31.16
27.87
25.14
23.16
22.05
21.74
22.07
22.75
23.46
23.93
24.0
23.59
22.7
21.31
19.31
16.6
13.08
8.77
3.82
-1.49
-6.86
-12.07
-17.07
-22.0
-27.16
-32.95
-39.73
-47.66
-56.44
-65.2
-72.51
-76.67
-76.2
-70.35
-59.41
-44.64
-27.96
-11.31
3.79
16.48
26.53
34.02
39.17
42.1
42.92
41.76
38.97
35.09
30.78
26.66
23.19
20.56
18.68
17.36
16.4
15.72
15.4
15.56
16.27
17.35
18.41
18.84
18.07
15.78
12.0
7.09
1.64
-3.79
-8.86
-13.51
-18.01
-22.78
-28.32
-35.01
-42.94
-51.75
-60.51
-67.81
-72.01
-71.7
-66.2
-55.77
-41.58
-25.4
-9.05
5.99
18.8
29.04
36.68
41.9
44.87
45.73
44.69
42.09
38.43
34.32
30.32
26.86
24.17
22.24
21.02
20.38
20.25
20.55
21.18
21.99
22.71
22.99
22.45
20.74
17.66
13.29
7.95
2.11
-3.75
-9.31
-14.5
-19.5
-24.6
-30.15
-36.49
-43.89
-52.42
-61.72
-70.8
-78.13
-81.86
-80.45
-73.22
-60.64
-44.24
-26.13
-8.35
7.63
21.06
31.76
39.82
45.34
48.43
49.22
48.03
45.35
41.81
38.02
34.39
31.2
28.55
26.44
24.9
23.94
23.6
23.88
24.67
25.76
26.79
27.32
26.93
25.25
22.13
17.64
12.13
6.05
-0.13
-6.06
-11.62
-16.89
-22.12
-27.65
-33.91
-41.29
-50.0
-59.8
-69.76
-78.22
-83.15
-82.74
-76.09
-63.58
-46.83
-28.13
-9.72
6.73
20.37
31.03
38.9
44.29
47.45
48.63
48.1
46.25
43.52
40.35
37.19
34.35
32.09
30.49
29.52
29.1
29.11
29.43
29.96
30.56
31.05
31.25
30.92
29.86
27.87
24.85
20.82
15.92
10.41
4.63
-1.17
-6.82
-12.32
-17.86
-23.74
-30.37
-38.11
-47.04
-56.77
-66.22
-73.74
-77.42
-75.74
-68.13
-55.24
-38.78
-20.94
-3.78
11.33
23.76
33.5
40.78
45.79
48.56
49.14
47.7
44.63
40.56
36.18
32.06
28.53
25.69
23.47
21.77
20.61
20.1
20.34
21.27
22.64
23.92
24.48
23.8
21.57
17.85
13.0
7.58
2.15
-2.9
-7.43
-11.58
-15.7
-20.24
-25.64
-32.27
-40.22
-49.2
-58.26
-65.95
-70.45
-70.2
-64.39
-53.33
-38.45
-21.79
-5.38
9.28
21.44
30.99
38.09
42.87
45.38
45.64
43.85
40.49
36.22
31.73
27.56
23.98
21.04
18.69
16.91
15.74
15.29
15.62
16.6
17.9
19.03
19.43
18.62
16.32
12.54
7.61
2.03
-3.65
-9.03
-14.0
-18.76
-23.74
-29.5
-36.45
-44.75
-54.03
-63.26
-70.84
-74.98
-74.14
-67.66
-56.01
-40.69
-23.75
-7.16
7.65
20.01
29.77
37.07
42.08
44.93
45.76
44.87
42.73
39.89
36.91
34.21
32.02
30.35
29.08
27.99
26.9
25.81
24.83
24.15
23.9
23.97
24.03
23.57
22.11
19.38
15.42
10.58
5.34
0.17
-4.68
-9.2
-13.58
-18.15
-23.22
-29.13
-36.16
-44.33
-53.23
-61.77
-68.35
-71.19
-68.92
-61.18
-48.72
-33.31
-17.01
-1.67
11.6
22.34
30.6
36.56
40.38
42.19
42.19
40.71
38.19
35.08
31.8
28.68
25.95
23.79
22.32
21.58
21.56
22.09
22.98
23.96
24.73
25.05
24.75
23.7
21.89
19.32
16.05
12.17
7.78
3.05
-1.84
-6.75
-11.56
-16.26
-20.91
-25.69
-30.92
-36.93
-43.97
-51.86
-59.81
-66.43
-69.99
-69.01
-62.79
-51.77
-37.38
-21.53
-6.03
7.86
19.57
29.02
36.27
41.39
44.36
45.24
44.28
41.93
38.77
35.33
31.97
28.94
26.44
24.62
23.65
23.6
24.37
25.7
27.17
28.39
29.06
29.05
28.36
27.01
24.98
22.2
18.59
14.15
8.97
3.23
-2.83
-8.97
-15.01
-20.81
-26.32
-31.64
-37.03
-42.92
-49.68
-57.27
-65.04
-71.59
-75.16
-74.15
-67.81
-56.6
-42.04
-26.18
-10.91
2.56
13.79
22.88
30.03
35.31
38.59
39.74
38.86
36.37
32.9
29.17
25.69
22.78
20.49
18.8
17.65
17.02
16.9
17.27
18.05
19.08
20.09
20.73
20.57
19.23
16.52
12.48
7.46
1.96
-3.5
-8.58
-13.18
-17.51
-21.91
-26.81
-32.56
-39.39
-47.26
-55.71
-63.78
-70.02
-72.82
-70.87
-63.67
-51.74
-36.56
-20.05
-4.04
10.2
22.05
31.4
38.36
43.02
45.47
45.88
44.6
42.13
39.04
35.77
32.59
29.64
27.01
24.86
23.41
22.84
23.17
24.18
25.42
26.35
26.55
25.85
24.35
22.31
19.97
17.36
14.31
10.58
5.99
0.62
-5.2
-11.01
-16.4
-21.22
-25.52
-29.62
-33.92
-38.86
-44.74
-51.65
-59.21
-66.49
-72.02
-74.13
-71.51
-63.71
-51.36
-36.0
-19.59
-3.88
9.96
21.39
30.36
36.96
41.33
43.6
43.99
42.88
40.72
37.97
34.93
31.8
28.73
25.87
23.52
21.97
21.44
21.92
23.12
24.54
25.67
26.1
25.69
24.5
22.72
20.51
17.98
15.15
11.97
8.41
4.5
0.3
-4.09
-8.58
-13.08
-17.55
-22.01
-26.59
-31.55
-37.21
-43.83
-51.37
-59.26
-66.28
-70.82
-71.3
-66.82
-57.49
-44.51
-29.72
-14.99
-1.67
9.61
18.79
26.09
31.67
35.52
37.56
37.77
36.36
33.76
30.49
27.06
23.81
20.94
18.47
16.41
14.8
13.75
13.37
13.68
14.55
15.66
16.63
17.08
16.76
15.57
13.52
10.69
7.17
3.07
-1.43
-6.17
-10.96
-15.68
-20.32
-25.04
-30.12
-35.92
-42.65
-50.13
-57.64
-63.84
-67.1
-65.97
-59.78
-48.94
-34.84
-19.41
-4.48
8.65
19.45
27.9
34.19
38.47
40.79
41.17
39.81
37.06
33.52
29.74
26.21
23.22
20.88
19.2
18.16
17.69
17.72
18.11
18.65
19.1
19.2
18.77
17.71
15.99
13.67
10.78
7.42
3.69
-0.33
-4.57
-8.95
-13.42
-17.96
-22.55
-27.28
-32.29
-37.9
-44.42
-51.9
-59.95
-67.5
-72.95
-74.63
-71.31
-62.78
-49.97
-34.63
-18.74
-3.98
8.7
18.97
26.95
32.82
36.74
38.77
39.02
37.73
35.34
32.29
29.07
25.99
23.26
20.98
19.27
18.25
18.02
18.59
19.76
21.11
22.15
22.49
21.98
20.73
18.97
16.87
14.45
11.54
7.95
3.63
-1.26
-6.42
-11.52
-16.37
-20.95
-25.4
-30.0
-35.06
-40.88
-47.62
-55.02
-62.26
-67.95
-70.43
-68.31
-60.99
-49.02
-33.9
-17.64
-2.15
11.3
22.15
30.44
36.42
40.35
42.39
42.67
41.36
38.82
35.43
31.63
27.79
24.19
21.07
18.62
17.04
16.37
16.55
17.32
18.29
19.1
19.52
19.49
19.05
18.2
16.83
14.74
11.7
7.69
2.91
-2.26
-7.39
-12.22
-16.73
-21.13
-25.78
-31.1
-37.41
-44.8
-52.96
-60.97
-67.42
-70.67
-69.38
-62.98
-51.94
-37.68
-22.09
-6.95
6.46
17.51
26.03
32.12
35.9
37.55
37.29
35.49
32.62
29.19
25.63
22.25
19.21
16.62
14.53
13.02
12.14
11.95
12.42
13.41
14.67
15.82
16.42
16.03
14.35
11.34
7.19
2.37
-2.56
-7.18
-11.31
-15.12
-19.02
-23.54
-29.13
-36.09
-44.33
-53.25
-61.66
-67.93
-70.35
-67.68
-59.69
-47.26
-32.21
-16.61
-2.17
10.15
20.12
27.95
33.9
38.03
40.3
40.65
39.27
36.58
33.2
29.71
26.59
24.06
22.19
20.87
20.0
19.49
19.35
19.6
20.23
21.11
21.91
22.26
21.69
19.89
16.73
12.33
7.01
1.25
-4.47
-9.81
-14.69
-19.27
-23.9
-29.03
-35.06
-42.22
-50.41
-59.01
-66.87
-72.45
-74.17
-70.93
-62.57
-49.95
-34.68
-18.65
-3.43
9.96
21.1
29.97
36.64
41.18
43.66
44.21
43.12
40.82
37.81
34.56
31.46
28.77
26.63
25.05
24.0
23.41
23.23
23.38
23.8
24.35
24.84
24.98
24.44
22.95
20.34
16.63
12.01
6.8
1.34
-4.11
-9.45
-14.75
-20.15
-25.89
-32.21
-39.35
-47.41
-56.1
-64.6
-71.49
-75.06
-73.86
-67.27
-55.8
-40.96
-24.74
-8.94
5.23
17.21
26.9
34.34
39.55
42.55
43.5
42.73
40.76
38.14
35.34
32.69
30.43
28.71
27.64
27.23
27.43
28.1
29.06
30.1
31.04
31.74
32.01
31.63
30.35
27.95
24.34
19.57
13.94
7.84
1.66
-4.26
-9.79
-14.99
-20.11
-25.5
-31.56
-38.64
-46.78
-55.49
-63.68
-69.78
-72.1
-69.45
-61.57
-49.3
-34.31
-18.54
-3.68
9.22
19.81
28.14
34.41
38.78
41.27
41.89
40.79
38.33
34.99
31.37
27.97
25.08
22.79
21.0
19.59
18.51
17.84
17.76
18.33
19.44
20.68
21.44
21.14
19.38
16.09
11.6
6.42
1.12
-3.92
-8.56
-12.94
-17.35
-22.13
-27.56
-33.83
-40.99
-48.76
-56.51
-63.13
-67.22
-67.41
-62.88
-53.63
-40.6
-25.4
-9.77
4.79
17.32
27.42
35.02
40.23
43.18
44.07
43.19
40.95
37.83
34.36
30.95
27.93
25.46
23.61
22.36
21.65
21.39
21.5
21.87
22.34
22.76
22.91
22.55
21.44
19.38
16.28
12.19
7.35
2.13
-3.11
-8.14
-12.93
-17.66
-22.61
-28.15
-34.57
-42.02
-50.33
-58.82
-66.31
-71.2
-71.96
-67.65
-58.33
-45.1
-29.74
-14.09
0.36
12.8
22.93
30.78
36.44
40.04
41.73
41.78
40.51
38.23
35.25
31.86
28.41
25.25
22.74
21.12
20.46
20.67
21.59
23.05
24.81
26.57
27.91
28.4
27.64
25.49
22.07
17.7
12.78
7.59
2.31
-2.99
-8.25
-13.43
-18.49
-23.55
-28.88
-34.86
-41.82
-49.74
-58.04
-65.51
-70.54
-71.6
-67.76
-59.01
-46.36
-31.46
-16.13
-1.82
10.59
20.75
28.69
34.53
38.35
40.28
40.52
39.44
37.45
34.95
32.24
29.49
26.87
24.55
22.79
21.81
21.73
22.44
23.63
24.86
25.76
26.09
25.8
24.96
23.63
21.78
19.29
16.04
11.97
7.23
2.08
-3.16
-8.21
-12.97
-17.46
-21.84
-26.35
-31.28
-36.97
-43.63
-51.08
-58.58
-64.79
-68.03
-66.9
-60.78
-50.17
-36.54
-21.79
-7.64
4.8
15.11
23.38
29.78
34.47
37.43
38.68
38.35
36.71
34.15
31.07
27.87
24.83
22.24
20.25
18.97
18.39
18.4
18.8
19.36
19.87
20.16
20.11
19.59
18.51
16.78
14.33
11.15
7.3
2.96
-1.69
-6.47
-11.24
-15.94
-20.6
-25.35
-30.42
-36.11
-42.61
-49.8
-56.98
-62.89
-65.95
-64.81
-58.85
-48.52
-35.2
-20.75
-6.84
5.37
15.42
23.28
29.09
32.95
34.89
35.01
33.55
30.93
27.6
24.0
20.46
17.21
14.41
12.21
10.69
9.92
9.85
10.39
11.35
12.53
13.7
14.6
14.92
14.34
12.63
9.69
5.66
0.91
-4.1
-8.94
-13.4
-17.56
-21.65
-26.07
-31.18
-37.2
-44.15
-51.63
-58.72
-64.09
-66.21
-63.91
-56.77
-45.4
-31.27
-16.24
-2.01
10.31
20.26
27.88
33.39
37.03
38.92
39.18
38.01
35.71
32.65
29.2
25.72
22.5
19.77
17.68
16.37
15.89
16.17
17.08
18.34
19.63
20.64
21.08
20.78
19.64
17.64
14.77
11.08
6.71
1.86
-3.21
-8.24
-13.06
-17.6
-21.91
-26.14
-30.59
-35.64
-41.63
-48.7
-56.46
-63.83
-69.19
-70.79
-67.39
-58.78
-45.94
-30.67
-14.99
-0.5
11.91
21.99
29.85
35.66
39.47
41.31
41.26
39.6
36.75
33.2
29.44
25.83
22.68
20.19
18.49
17.65
17.65
18.36
19.53
20.82
21.88
22.42
22.3
21.5
20.05
18.0
15.3
11.91
7.86
3.26
-1.65
-6.61
-11.46
-16.16
-20.79
-25.56
-30.72
-36.52
-43.12
-50.43
-57.87
-64.33
-68.28
-68.25
-63.36
-53.7
-40.4
-25.26
-10.14
3.52
15.0
24.16
31.18
36.2
39.26
40.36
39.61
37.31
33.9
29.91
25.79
21.89
18.51
15.87
14.17
13.49
13.75
14.73
16.1
17.56
18.88
19.92
20.52
20.5
19.56
17.42
13.97
9.31
3.84
-1.94
-7.56
-12.77
-17.63
-22.39
-27.41
-33.02
-39.42
-46.63
-54.32
-61.73
-67.62
-70.53
-69.2
-63.0
-52.28
-38.35
-23.02
-8.11
5.07
15.95
24.49
30.96
35.58
38.44
39.56
39.01
37.04
34.06
30.56
26.96
23.62
20.78
18.61
17.22
16.67
16.91
17.76
18.95
20.16
21.14
21.67
21.58
20.71
18.86
15.89
11.8
6.79
1.24
-4.42
-9.86
-14.94
-19.74
-24.45
-29.34
-34.63
-40.55
-47.22
-54.47
-61.68
-67.65
-70.86
-69.84
-63.77
-52.87
-38.38
-22.23
-6.37
7.71
19.24
28.13
34.58
38.89
41.27
41.95
41.16
39.28
36.69
33.77
30.78
27.94
25.43
23.49
22.37
22.26
23.16
24.87
26.92
28.83
30.16
30.61
30.13
28.8
26.75
24.1
20.92
17.24
13.08
8.53
3.74
-1.04
-5.54
-9.49
-12.75
-15.41
-17.81
-20.52
-24.07
-28.61
-33.56
-37.57
-38.74
-35.29
-26.21
-11.73
6.73
27.14
47.54
66.75
84.59
101.76
119.39
138.52
159.64
182.44
205.71
227.45
245.23
256.74
260.33
255.42
242.55
223.06
198.59
170.62
140.28
108.36
75.36
41.65
7.55
-26.43
-59.49
-90.36
-117.54
-139.75
-156.35
-167.61
-174.44
-177.75
-177.83
-174.09
-165.53
-151.53
-132.49
-109.84
-85.41
-60.66
-36.34
-12.83
9.44
29.71
47.3
62.4
76.41
91.56
109.7
131.04
153.61
173.95
188.66
195.8
195.37
188.75
177.38
161.88
141.96
117.03
87.04
52.98
16.78
-19.27
-53.1
-83.41
-109.62
-131.76
-150.03
-164.56
-175.29
-182.08
-185.07
-184.96
-183.14
-181.36
-181.23
-183.59
-188.26
-194.24
-200.13
-204.65
-206.81
-205.99
-201.81
-194.15
-183.4
-170.5
-156.98
-144.32
-133.27
-123.32
-112.71
-99.17
-80.98
-57.79
-30.84
-2.45
24.94
49.53
70.42
87.39
100.42
109.42
114.24
114.98
112.29
107.28
101.25
95.27
89.94
85.42
81.63
78.53
76.17
74.61
73.82
73.56
73.5
73.29
72.61
71.23
68.86
65.09
59.47
51.67
41.7
29.97
17.24
4.27
-8.45
-20.84
-33.21
-46.02
-59.69
-74.43
-90.34
-107.34
-124.87
-141.62
-155.2
-162.47
-160.43
-147.35
-123.78
-92.62
-58.24
-25.15
3.4
26.03
42.91
54.92
62.9
67.24
67.98
65.18
59.21
50.72
40.5
29.33
17.89
6.75
-3.6
-12.71
-20.21
-25.85
-29.55
-31.4
-31.63
-30.64
-28.96
-27.17
-25.87
-25.53
-26.46
-28.74
-32.21
-36.5
-41.03
-45.17
-48.38
-50.32
-51.04
-51.05
-51.19
-52.48
-55.78
-61.4
-68.72
-76.02
-80.64
-79.68
-70.9
-53.54
-28.79
0.48
30.62
58.24
81.11
98.35
110.1
116.79
118.73
116.02
109.01
98.71
86.9
75.72
66.8
60.63
56.38
52.54
47.97
42.85
38.9
38.63
43.9
54.7
68.78
82.42
91.83
94.43
89.34
77.13
58.99
36.14
9.53
-19.96
-51.47
-84.2
-117.74
-152.24
-188.02
-224.56
-259.41
-287.94
-304.41
-304.21
-286.08
-253.24
-212.35
-170.95
-134.58
-105.02
-80.69
-58.71
-37.36
-17.23
-0.73
9.75
13.6
12.59
10.04
9.08
11.38
16.71
23.7
30.88
37.46
43.48
49.29
54.89
59.58
62.23
61.75
57.74
50.73
42.13
33.62
26.62
21.72
18.5
15.65
11.27
3.52
-8.91
-26.2
-47.03
-68.56
-86.82
-97.68
-98.02
-86.79
-65.42
-37.45
-7.36
20.74
44.12
61.86
74.39
82.75
87.84
90.07
89.6
86.69
81.99
76.53
71.33
66.99
63.47
60.33
57.06
53.58
50.33
47.98
47.01
47.33
48.25
48.71
47.75
44.82
39.93
33.47
26.04
18.26
10.74
3.92
-1.87
-6.57
-10.36
-13.76
-17.52
-22.41
-28.79
-36.23
-43.32
-47.84
-47.42
-40.35
-26.23
-6.12
17.87
43.23
67.69
89.48
107.31
120.16
127.23
127.99
122.37
110.82
94.19
73.65
50.57
26.51
3.19
-17.61
-34.32
-45.95
-52.25
-53.76
-51.56
-46.96
-41.15
-35.04
-29.25
-24.16
-20.02
-17.15
-15.85
-16.44
-19.06
-23.59
-29.58
-36.42
-43.47
-50.3
-56.83
-63.28
-70.16
-78.09
-87.59
-98.83
-111.22
-123.14
-132.06
-135.07
-129.81
-115.34
-92.65
-64.42
-34.16
-5.17
20.23
40.9
56.67
67.8
74.7
77.76
77.49
74.54
69.67
63.6
56.92
50.08
43.48
37.55
32.7
29.34
27.65
27.61
28.93
31.16
33.73
36.02
37.41
37.35
35.42
31.39
25.32
17.54
8.6
-0.85
-10.26
-19.22
-27.59
-35.46
-43.22
-51.47
-60.89
-72.02
-84.73
-97.92
-109.39
-116.19
-115.55
-105.76
-86.92
-60.89
-30.85
-0.2
28.16
52.32
71.35
85.02
93.47
97.06
96.4
92.24
85.56
77.35
68.53
59.88
51.99
45.27
40.02
36.41
34.46
34.05
34.88
36.53
38.45
40.04
40.79
40.26
38.18
34.39
28.89
21.76
13.26
3.77
-6.23
-16.21
-25.74
-34.59
-42.82
-50.74
-58.92
-68.04
-78.7
-90.98
-104.11
-116.22
-124.52
-125.97
-118.24
-100.55
-74.12
-41.85
-7.57
25.03
53.15
75.27
90.99
100.73
105.31
105.75
103.02
98.06
91.62
84.31
76.64
69.05
62.03
56.11
51.82
49.49
49.16
50.49
52.78
55.19
56.9
57.32
56.16
53.4
49.16
43.59
36.81
28.86
19.82
9.81
-0.98
-12.24
-23.62
-34.73
-45.21
-54.82
-63.61
-71.97
-80.66
-90.54
-102.05
-114.62
-126.34
-134.22
-135.06
-126.56
-108.33
-82.13
-51.3
-19.71
9.37
33.91
53.15
67.14
76.31
81.1
81.99
79.53
74.47
67.69
60.1
52.45
45.31
39.05
33.91
30.02
27.47
26.31
26.5
27.87
30.13
32.84
35.44
37.35
37.99
36.92
33.84
28.64
21.47
12.79
3.3
-6.23
-15.16
-23.18
-30.43
-37.47
-45.12
-54.21
-65.28
-78.09
-91.45
-103.07
-110.07
-109.75
-100.51
-82.53
-57.8
-29.52
-1.1
24.69
46.23
62.98
75.02
82.62
86.06
85.58
81.6
74.8
66.14
56.71
47.56
39.49
32.97
28.08
24.61
22.29
20.91
20.41
20.82
22.09
23.9
25.62
26.37
25.36
22.14
16.75
9.75
1.92
-6.02
-13.61
-20.79
-27.77
-34.97
-42.95
-52.27
-63.48
-76.66
-91.06
-104.77
-114.85
-118.06
-111.97
-95.95
-71.53
-41.99
-11.28
17.18
41.21
60.02
73.69
82.65
87.24
87.72
84.52
78.32
70.17
61.21
52.46
44.57
37.83
32.25
27.79
24.42
22.23
21.29
21.6
22.94
24.86
26.74
27.89
27.66
25.56
21.32
15.04
7.11
-1.8
-11.0
-19.88
-28.16
-35.85
-43.34
-51.19
-60.1
-70.68
-83.11
-96.7
-109.63
-119.03
-121.73
-115.27
-98.93
-74.15
-44.12
-12.79
16.32
40.94
60.16
74.03
83.02
87.59
88.16
85.21
79.47
71.9
63.51
55.22
47.65
41.14
35.81
31.67
28.68
26.83
26.1
26.35
27.35
28.74
30.04
30.7
30.18
28.04
24.02
18.11
10.61
2.11
-6.68
-15.12
-22.85
-29.9
-36.69
-43.92
-52.4
-62.85
-75.55
-89.93
-104.31
-115.8
-120.97
-116.87
-102.12
-77.65
-46.57
-13.17
18.42
45.34
66.38
81.61
91.65
97.03
98.02
94.83
87.96
78.35
67.22
55.81
45.09
35.67
27.8
21.52
16.78
13.49
11.57
10.88
11.25
12.47
14.17
15.8
16.6
15.77
12.67
7.06
-0.71
-9.78
-19.13
-27.85
-35.55
-42.33
