75.17
60.84
47.71
36.22
26.33
17.83
10.7
5.24
1.96
1.24
3.01
6.68
11.13
15.15
17.73
18.29
16.76
13.41
8.57
2.46
-4.92
-13.6
-23.51
-34.24
-45.1
-55.22
-63.94
-71.01
-76.75
-81.94
-87.58
-94.59
-103.46
-113.79
-123.97
-131.17
-131.78
-122.4
-101.15
-68.57
-27.81
16.15
57.94
93.2
119.54
136.55
145.2
147.11
143.87
136.93
127.67
117.65
108.47
101.58
97.77
96.84
97.52
97.9
96.15
91.1
82.67
71.59
58.91
45.34
31.05
15.69
-1.15
-19.66
-39.62
-60.53
-81.77
-102.81
-123.12
-142.12
-159.14
-173.46
-184.42
-191.66
-195.31
-196.16
-195.71
-195.9
-198.51
-204.24
-211.84
-217.91
-217.48
-205.52
-178.72
-136.86
-83.09
-23.05
36.7
90.44
134.37
166.9
188.27
199.81
203.26
200.4
192.8
181.84
168.68
154.33
139.71
125.68
113.07
102.72
95.34
91.39
90.79
92.89
96.48
100.13
102.5
102.62
100.04
94.65
86.49
75.49
61.46
44.2
23.83
0.99
-23.08
-46.77
-68.37
-86.43
-100.03
-108.88
-113.52
-115.45
-117.06
-121.09
-129.66
-143.05
-158.83
-172.16
-177.18
-169.19
-146.57
-111.43
-68.85
-24.99
14.98
48.0
73.26
91.26
102.87
108.66
108.93
104.1
95.08
83.41
71.0
59.63
50.58
44.41
41.06
40.05
40.82
42.76
45.33
47.91
49.76
50.08
48.1
43.21
35.17
24.08
10.54
-4.52
-19.95
-34.62
-47.69
-58.83
-68.32
-76.97
-85.92
-96.35
-109.31
-125.25
-143.73
-162.95
-179.67
-189.65
-188.71
-174.19
-146.02
-107.03
-62.24
-17.33
22.94
55.62
79.8
95.98
105.27
108.81
107.61
102.54
94.54
84.6
73.76
62.99
53.11
44.77
38.43
34.32
32.49
32.71
34.6
37.56
40.86
43.79
45.65
45.89
44.11
40.12
33.89
25.57
15.45
3.96
-8.39
-21.07
-33.6
-45.63
-57.04
-68.0
-79.07
-91.12
-105.16
-121.69
-140.08
-158.0
-171.5
-175.94
-167.47
-144.62
-108.97
-64.94
-18.38
25.1
61.57
89.19
107.89
118.61
122.59
121.05
115.21
106.35
95.8
84.72
73.97
64.06
55.33
48.07
42.75
39.83
39.68
42.23
46.85
52.4
57.52
60.93
61.72
59.56
54.58
47.23
37.98
27.24
15.27
2.29
-11.35
-25.2
-38.68
-51.32
-62.88
-73.51
-83.79
-94.68
-107.29
-122.48
-140.12
-158.54
-174.34
-182.94
-179.88
-162.49
-130.94
-88.54
-40.77
6.38
47.91
80.88
104.3
118.68
125.14
125.0
119.51
109.97
97.73
84.11
70.36
57.46
46.19
37.11
30.67
27.15
26.61
28.74
32.89
38.06
43.22
47.46
50.19
51.14
50.23
47.37
42.4
35.15
25.62
14.2
1.61
-11.16
-23.26
-34.17
-43.94
-53.06
-62.29
-72.58
-84.76
-99.28
-115.77
-132.52
-146.36
-153.11
-148.79
-130.99
-100.0
-58.9
-12.73
33.03
73.84
106.89
130.98
146.0
152.35
150.6
141.69
127.15
109.23
90.58
73.8
60.82
52.48
48.51
47.77
48.74
50.01
50.56
49.8
47.47
43.49
37.92
30.96
22.97
14.33
5.3
-4.24
-14.88
-27.47
-42.86
-61.52
-83.33
-107.43
-132.38
-156.35
-177.49
-194.33
-206.31
-214.04
-219.17
-223.54
-228.06
-231.72
-231.52
-223.33
-203.46
-170.15
-124.34
-69.45
-10.41
47.47
99.48
142.1
173.29
192.61
201.18
201.26
195.66
186.93
176.9
166.45
155.83
145.06
134.17
123.35
112.82
102.81
93.53
85.17
77.85
71.58
66.08
60.85
55.33
49.09
42.01
34.31
26.3
18.17
9.81
0.85
-9.1
-20.16
-32.03
-44.05
-55.44
-65.66
-74.61
-82.76
-91.06
-100.82
-113.16
-128.42
-145.47
-161.42
-171.96
-172.51
-159.71
-132.8
-94.1
-48.4
-1.62
40.93
75.61
100.88
116.85
124.67
125.78
121.65
113.66
103.19
91.57
79.93
69.11
59.6
51.68
45.58
41.65
40.31
41.76
45.79
51.57
57.78
62.92
65.77
65.71
62.78
57.51
50.55
42.42
33.28
23.07
11.65
-0.94
-14.39
-28.07
-41.22
-53.26
-64.02
-73.8
-83.47
-94.24
-107.26
-123.04
-140.83
-158.16
-171.04
-174.83
-165.72
-142.12
-105.48
-60.06
-11.68
33.85
72.19
101.06
120.11
130.34
133.3
130.65
123.92
114.45
103.39
91.69
80.15
69.39
60.0
52.47
47.3
44.82
45.1
47.89
52.55
58.12
63.46
67.45
69.2
68.1
63.94
56.72
46.52
33.5
17.85
-0.02
-19.43
-39.41
-58.8
-76.54
-91.93
-104.8
-115.59
-125.3
-135.33
-146.99
-160.89
-176.16
-190.06
-198.34
-196.33
-180.6
-150.46
-108.49
-59.85
-10.7
33.58
69.59
96.06
113.38
122.67
125.23
122.34
115.31
105.61
94.68
83.72
73.47
64.26
56.21
49.57
44.9
42.92
44.18
48.61
55.33
62.77
69.06
72.65
72.69
69.18
62.78
54.43
44.99
34.95
24.36
13.02
0.69
-12.65
-26.64
-40.65
-53.91
-65.86
-76.43
-86.16
-96.2
-107.95
-122.49
-139.83
-158.28
-174.33
-183.32
-180.74
-163.86
-132.84
-90.89
-43.35
3.88
45.92
79.75
104.26
119.72
127.1
127.64
122.68
113.72
102.32
89.95
77.73
66.35
56.09
47.11
39.66
34.3
31.78
32.7
37.12
44.36
52.96
61.05
66.9
69.37
68.23
63.97
57.5
49.63
40.76
30.89
19.76
7.22
-6.55
-20.95
-35.18
-48.44
-60.19
-70.35
-79.27
-87.87
-97.36
-108.95
-123.15
-139.08
-154.05
-163.88
-164.04
-151.16
-124.54
-86.57
-42.24
2.52
42.44
74.19
96.67
110.4
116.73
117.03
112.4
103.75
92.02
78.33
63.95
50.18
38.17
28.8
22.66
19.95
20.51
23.79
28.93
34.91
40.65
45.26
48.06
48.57
46.52
41.78
34.4
24.63
12.92
-0.03
-13.52
-26.84
-39.5
-51.29
-62.27
-72.78
-83.41
-94.98
-108.36
-124.06
-141.51
-158.6
-171.63
-176.05
-167.9
-145.38
-109.74
-65.14
-17.44
27.48
65.25
93.64
112.43
122.63
125.76
123.35
116.75
107.2
95.85
83.73
71.69
60.34
50.14
41.55
35.13
31.47
31.01
33.76
39.07
45.69
52.01
56.53
58.23
56.8
52.57
46.21
38.32
29.23
18.97
7.43
-5.37
-19.11
-33.2
-46.87
-59.48
-70.73
-80.77
-90.26
-100.25
-111.95
-126.14
-142.56
-159.3
-172.75
-178.36
-171.94
-151.28
-117.16
-73.36
-25.57
20.31
59.68
90.07
111.1
123.69
129.31
129.33
124.95
117.28
107.35
96.23
84.85
73.93
64.0
55.48
48.87
44.64
43.16
44.44
47.93
52.54
56.89
59.68
60.12
58.0
53.64
47.58
40.22
31.64
21.64
10.02
-3.17
-17.47
-32.06
-46.01
-58.61
-69.63
-79.37
-88.63
-98.5
-110.14
-124.25
-140.47
-156.85
-169.84
-175.0
-168.28
-147.64
-114.01
-71.19
-24.82
19.37
56.98
85.7
105.13
116.09
119.89
117.8
111.02
100.74
88.17
74.52
60.91
48.29
37.42
28.89
23.17
20.53
20.98
24.14
29.23
35.14
40.73
44.93
47.06
46.77
43.98
38.74
31.15
21.36
9.7
-3.24
-16.61
-29.43
-40.87
-50.48
-58.36
-65.16
-71.96
-80.07
-90.64
-104.0
-119.21
-133.74
-143.75
-145.1
-134.7
-111.78
-78.4
-38.92
1.28
37.39
66.31
86.86
99.42
105.13
105.24
100.79
92.71
82.0
69.79
57.33
45.8
36.19
29.21
25.29
24.58
26.91
31.8
38.42
45.69
52.43
57.57
60.29
60.24
57.4
52.04
44.45
34.92
23.64
10.84
-3.08
-17.59
-32.01
-45.75
-58.41
-69.97
-80.8
-91.62
-103.31
-116.71
-132.05
-148.4
-163.36
-173.26
-174.02
-162.49
-137.68
-101.4
-57.91
-12.64
29.26
64.09
90.13
107.32
116.6
119.25
116.54
109.66
99.75
88.01
75.58
63.49
52.54
43.36
36.43
32.14
30.73
32.2
36.15
41.76
47.87
53.23
56.82
58.02
56.69
52.99
47.21
39.52
29.98
18.62
5.62
-8.58
-23.3
-37.8
-51.5
-64.14
-75.88
-87.17
-98.78
-111.57
-126.19
-142.47
-158.91
-172.46
-178.99
-174.49
-156.58
-125.6
-84.77
-39.37
4.84
43.22
73.07
93.69
105.74
110.52
109.34
103.44
93.99
82.2
69.33
56.51
44.68
34.51
26.46
20.9
18.14
18.34
21.39
26.71
33.31
39.93
45.34
48.64
49.31
47.27
42.67
35.77
26.9
16.42
4.78
-7.49
-19.81
-31.66
-42.65
-52.57
-61.44
-69.56
-77.56
-86.39
-97.05
-110.05
-124.71
-138.71
-148.35
-149.37
-138.5
-114.77
-80.1
-38.85
3.55
42.11
73.49
96.3
110.74
117.83
118.77
114.64
106.43
95.15
81.97
68.14
54.9
43.33
34.29
28.25
25.37
25.44
27.96
32.2
37.28
42.31
46.46
49.09
49.75
48.21
44.35
38.19
29.81
19.45
7.55
-5.28
-18.36
-31.03
-42.86
-53.77
-63.96
-74.0
-84.64
-96.72
-110.8
-126.63
-142.64
-155.83
-162.23
-158.05
-141.04
-111.57
-72.71
-29.45
12.83
49.71
78.64
98.9
111.06
116.28
115.85
111.0
102.94
92.87
81.95
71.12
61.07
52.21
44.86
39.38
36.19
35.68
37.99
42.72
48.92
55.16
59.91
61.94
60.73
56.5
50.08
42.46
34.36
25.95
16.92
6.77
-4.82
-17.65
-31.07
-44.16
-56.13
-66.65
-75.93
-84.73
-94.11
-105.19
-118.6
-133.96
-149.42
-161.62
-166.45
-160.2
-141.01
-109.75
-69.94
-26.69
14.78
50.49
78.36
97.92
109.81
114.98
114.48
109.36
100.86
90.34
79.18
68.45
58.82
50.6
43.94
39.08
36.4
36.3
38.91
43.88
50.26
56.67
61.64
63.94
62.95
58.75
52.03
43.85
35.17
26.63
18.27
9.61
0.01
-10.95
-23.17
-35.99
-48.42
-59.49
-68.64
-75.93
-82.08
-88.36
-96.25
-106.96
-120.68
-136.03
-149.92
-158.06
-156.26
-141.86
-114.85
-78.0
-36.1
5.51
42.38
71.74
92.59
105.24
110.7
110.24
105.13
96.65
85.98
74.2
62.23
50.82
40.63
32.29
26.42
23.53
23.86
27.23
32.93
39.82
46.5
51.61
54.16
53.69
50.31
44.53
36.96
28.1
18.22
7.4
-4.31
-16.68
-29.29
-41.53
-52.84
-62.89
-71.74
-79.93
-88.37
-98.15
-110.11
-124.25
-139.21
-152.17
-159.28
-156.74
-142.16
-115.54
-79.49
-38.55
2.19
38.39
67.34
88.04
100.77
106.5
106.4
101.69
93.67
83.66
72.88
62.3
52.54
43.92
36.62
30.94
27.39
26.49
28.58
33.46
40.26
47.58
53.79
57.53
58.0
55.16
49.53
41.97
33.29
24.0
14.29
4.14
-6.54
-17.66
-28.9
-39.8
-49.88
-58.8
-66.51
-73.35
-80.07
-87.72
-97.23
-108.9
-121.78
-133.41
-140.14
-138.14
-124.73
-99.52
-64.7
-24.46
16.19
52.86
82.6
104.12
117.45
123.35
122.92
117.39
108.12
96.52
83.97
71.67
60.46
50.89
43.28
37.87
34.95
34.81
37.56
43.02
50.47
58.73
66.26
71.6
73.66
71.98
66.76
58.63
48.35
36.46
23.29
8.97
-6.32
-22.15
-37.87
-52.66
-65.86
-77.22
-87.04
-96.21
-106.02
-117.97
-133.18
-151.84
-172.6
-192.31
-206.51
-210.53
-201.11
-177.7
-142.94
-102.01
-60.97
-24.98
2.98
22.28
34.11
40.34
42.67
42.26
39.77
35.74
30.76
25.64
21.26
18.43
17.75
19.49
23.7
30.25
38.84
49.02
60.14
71.3
81.44
89.52
94.75
96.76
95.58
91.51
84.95
76.28
65.89
54.17
41.67
28.98
16.65
4.92
-6.32
-17.61
-29.81
-43.8
-60.08
-78.25
-96.59
-112.08
-120.94
-119.69
-106.46
-81.8
-48.77
-12.04
23.4
53.65
76.56
91.74
99.96
102.44
100.31
94.51
85.85
75.19
63.47
51.66
40.76
31.57
24.72
20.63
19.46
21.1
25.14
30.94
37.64
44.31
50.04
54.02
55.55
54.1
49.3
41.07
29.66
15.67
0.08
-16.02
-31.55
-45.73
-58.16
-68.89
-78.37
-87.38
-96.92
-107.98
-121.03
-135.5
-149.34
-159.08
-160.68
-150.82
-128.25
-94.56
-53.75
-11.14
28.29
61.07
85.62
101.93
110.8
113.29
110.45
103.4
93.36
81.68
69.63
58.18
48.01
39.59
33.26
29.36
28.12
29.47
32.92
37.61
42.47
46.49
48.91
49.3
47.52
43.54
37.41
29.17
18.95
7.11
-5.81
-19.09
-32.01
-44.03
-54.87
-64.61
-73.61
-82.53
-92.25
-103.68
-117.27
-132.52
-147.43
-158.6
-161.94
-154.08
-133.64
-102.08
-63.31
-22.51
15.47
47.26
71.45
88.12
98.07
102.13
101.01
95.27
85.7
73.38
59.67
45.97
33.55
23.37
16.04
11.8
10.58
11.95
15.26
19.67
24.32
28.42
31.34
32.58
31.83
28.9
23.69
16.27
6.84
-4.1
-15.84
-27.56
-38.46
-48.04
-56.21
-63.39
-70.44
-78.54
-88.76
-101.61
-116.39
-130.96
-141.82
-144.98
-137.16
-117.07
-86.06
-47.89
-7.61
29.88
61.07
84.29
99.52
107.62
109.69
106.71
99.56
89.18
76.73
63.52
50.87
39.92
31.43
25.81
23.11
23.11
25.38
29.35
34.31
39.53
44.3
47.92
49.83
49.56
46.78
41.4
33.61
23.89
12.99
1.75
-9.12
-19.16
-28.28
-36.78
-45.22
-54.37
-65.06
-77.91
-92.89
-108.85
-123.32
-132.79
-133.69
-123.62
-102.32
-72.04
-36.9
-1.65
29.61
54.28
71.37
81.14
84.5
82.62
76.85
68.6
59.36
50.33
42.19
35.01
28.48
22.24
16.28
11.04
7.17
5.18
5.11
6.48
8.45
10.23
11.3
11.5
10.91
9.52
7.1
3.19
-2.73
-10.97
-21.37
-33.25
-45.57
-57.25
-67.52
-76.19
-83.65
-90.9
-99.19
-109.62
-122.61
-137.22
-150.93
-159.95
-160.11
-148.3
-123.64
-88.09
-45.95
-2.62
36.87
69.06
92.42
107.14
114.37
115.61
112.34
105.85
97.29
87.67
77.82
68.38
59.85
52.58
46.94
43.28
41.9
42.95
46.2
50.97
56.16
60.46
62.69
62.07
58.48
52.33
44.32
35.1
25.08
14.35
2.79
-9.6
-22.59
-35.65
-48.03
-59.08
-68.45
-76.29
-83.31
-90.64
-99.53
-110.78
-124.11
-137.74
-148.43
-152.16
-145.38
-126.34
-95.92
-57.53
-16.13
23.2
56.58
81.95
98.97
108.42
111.51
109.45
103.31
94.12
83.01
71.13
59.6
49.37
41.15
35.42
32.51
32.63
35.76
41.58
49.3
57.69
65.27
70.71
73.1
72.22
68.33
61.94
53.48
43.1
30.8
16.7
1.25
-14.67
-29.93
-43.54
-54.93
-64.24
-72.33
-80.5
-90.21
-102.54
-117.53
-133.83
-148.46
-157.44
-156.83
-144.05
-118.98
-84.16
-44.1
-3.98
31.79
60.47
81.08
93.97
100.16
100.87
97.29
90.58
81.89
72.28
62.65
53.64
45.69
39.13
34.27
31.38
30.57
31.73
34.36
37.69
40.74
42.54
42.41
39.97
35.27
28.64
20.56
11.48
1.69
-8.67
-19.54
-30.82
-42.27
-53.4
-63.65
-72.52
-79.81
-85.75
-91.14
-97.12
-104.92
-115.29
-127.87
-140.72
-150.47
-153.07
-145.02
-124.71
-93.16
-53.89
-11.85
27.93
61.65
87.27
104.44
113.89
116.83
114.56
108.34
99.44
89.11
78.49
68.5
59.7
52.41
46.82
43.08
41.42
42.0
44.75
49.2
54.42
59.2
62.31
62.82
60.36
55.11
47.68
38.85
29.26
19.24
8.84
-2.07
-13.51
-25.31
-36.99
-47.95
-57.66
-65.88
-72.83
-79.23
-86.26
-95.2
-106.8
-120.68
-134.75
-145.37
-148.21
-139.69
-118.41
-85.85
-46.04
-4.33
34.22
66.08
89.62
104.84
112.63
114.16
110.62
103.15
93.01
81.46
69.68
58.62
48.93
41.01
35.22
31.95
31.53
34.05
39.15
45.88
52.86
58.62
61.97
62.38
59.94
55.16
48.6
40.59
31.17
20.21
7.73
-5.93
-20.16
-34.15
-47.19
-58.81
-68.92
-77.83
-86.25
-95.19
-105.66
-118.1
-131.87
-144.71
-153.05
-152.85
-141.04
-116.8
-82.11
-41.24
0.44
38.06
68.31
89.89
103.09
109.16
109.62
105.88
99.17
90.53
80.89
71.05
61.67
53.29
46.36
41.32
38.56
38.28
40.35
44.19
48.78
52.93
55.49
55.69
53.25
48.35
41.46
33.04
23.42
12.77
1.16
-11.2
-23.94
-36.53
-48.37
-59.09
-68.65
-77.44
-86.19
-95.83
-107.26
-120.94
-136.36
-151.68
-163.67
-168.34
-162.11
-143.15
-112.24
-72.84
-30.07
10.72
45.36
71.6
89.08
98.69
101.85
100.02
94.51
86.5
77.11
67.31
57.86
49.28
41.93
36.13
32.3
30.89
32.21
36.14
42.01
48.56
54.27
57.75
58.08
55.03
49.07
41.04
31.81
21.96
11.66
0.74
-11.08
-23.87
-37.35
-50.92
-63.79
-75.33
-85.28
-93.98
-102.31
-111.53
-122.79
-136.42
-151.34
-164.72
-172.55
-170.7
-156.43
-129.6
-92.83
-50.86
-8.96
28.47
58.83
81.31
96.37
104.94
107.95
106.26
100.72
92.31
82.2
71.44
60.93
51.37
43.3
37.37
34.28
34.7
38.91
46.43
56.0
65.73
73.65
78.32
79.1
76.27
70.7
63.36
55.05
46.22
37.08
27.81
18.68
10.06
2.29
-4.49
-10.56
-16.65
-23.85
-33.47
-46.81
-64.74
-87.29
-112.97
-138.48
-158.88
-168.73
-163.66
-142.12
-106.22
-61.24
-14.12
28.71
62.93
86.94
101.34
107.82
108.15
103.65
95.21
83.67
70.01
55.4
41.02
27.92
16.86
8.28
2.42
-0.66
-1.12
0.71
4.22
8.63
13.03
16.59
18.63
18.66
16.37
11.63
4.43
-4.93
-15.9
