-111.47
-135.06
-162.54
-190.21
-212.3
-222.29
-214.75
-187.25
-141.53
-83.21
-20.24
39.4
89.79
128.01
153.95
169.18
175.68
175.12
168.8
157.93
144.01
128.86
114.38
102.13
93.02
87.15
83.85
81.83
79.49
75.2
67.84
57.13
43.61
28.3
12.05
-5.02
-23.6
-44.8
-69.27
-96.56
-124.99
-152.06
-175.36
-193.4
-205.99
-214.25
-220.16
-225.94
-233.29
-242.52
-252.08
-258.59
-257.57
-244.77
-217.58
-176.0
-122.77
-62.8
-2.02
53.69
99.66
132.96
152.71
159.93
157.04
147.12
133.19
117.66
102.23
87.88
75.18
64.32
55.2
47.53
41.05
35.85
32.52
31.93
34.84
41.23
50.0
59.02
65.65
67.7
64.04
55.05
42.3
27.92
13.7
0.45
-12.12
-25.3
-40.77
-60.01
-83.58
-110.52
-137.98
-161.38
-175.32
-175.04
-158.07
-125.31
-81.1
-31.94
15.34
55.45
85.59
105.36
115.91
118.95
116.08
108.73
98.36
86.68
75.61
66.98
62.18
61.85
65.91
73.68
83.95
95.11
105.1
111.5
111.8
103.9
86.58
59.95
25.48
-14.32
-56.46
-97.96
-136.3
-169.41
-195.89
-215.01
-226.99
-233.19
-235.97
-238.01
-241.23
-245.75
-249.52
-248.96
-240.27
-220.94
-190.61
-151.01
-105.22
-56.82
-9.29
34.14
70.59
97.71
114.23
120.28
117.5
108.52
96.08
82.45
69.03
56.62
45.78
37.15
31.41
29.17
30.79
36.11
44.47
54.57
64.5
72.08
75.29
72.9
64.88
52.46
37.69
22.75
9.16
-2.58
-13.04
-23.52
-35.56
-50.37
-68.18
-87.8
-106.37
-119.8
-123.71
-114.84
-92.25
-57.75
-15.52
29.17
71.25
106.96
134.15
152.12
161.14
162.02
155.95
144.42
129.11
111.79
94.0
76.96
61.51
48.15
37.3
29.38
24.84
23.95
26.55
31.82
38.25
43.86
46.71
45.39
39.47
29.53
17.0
3.52
-9.53
-21.5
-32.69
-44.12
-57.29
-73.52
-93.3
-115.61
-137.54
-154.58
-161.68
-154.81
-132.51
-96.62
-51.92
-4.59
39.57
76.61
104.81
124.29
136.0
141.01
140.22
134.44
124.75
112.54
99.37
86.63
75.23
65.52
57.48
51.03
46.19
43.24
42.47
43.99
47.28
51.18
54.02
54.0
49.84
41.17
28.77
14.22
-0.65
-14.29
-26.02
-36.12
-45.7
-56.39
-69.8
-86.95
-107.6
-129.74
-149.55
-162.17
-162.96
-149.12
-120.82
-81.36
-36.17
8.82
48.81
81.04
104.72
120.38
128.95
131.33
128.29
120.68
109.69
96.79
83.53
71.22
60.75
52.52
46.57
42.76
40.86
40.69
42.01
44.54
47.8
51.11
53.56
54.11
51.83
46.1
36.82
24.51
10.24
-4.7
-19.12
-32.26
-43.96
-54.64
-65.19
-76.72
-90.29
-106.48
-124.8
-143.32
-158.55
-166.19
-162.28
-144.68
-114.06
-73.92
-29.58
13.39
50.63
79.74
100.24
112.83
118.65
118.8
114.24
105.93
94.98
82.72
70.48
59.5
50.7
44.61
41.41
40.98
42.96
46.85
52.03
57.76
63.28
67.73
70.32
70.35
67.33
61.03
51.55
39.27
24.83
8.95
-7.65
-24.48
-41.25
-57.91
-74.63
-91.75
-109.65
-128.47
-147.65
-165.48
-179.01
-184.54
-178.68
-159.66
-128.24
-87.69
-43.05
0.4
38.44
68.63
90.28
103.92
110.59
111.39
107.33
99.47
88.9
76.8
64.3
52.44
42.02
33.65
27.74
24.46
23.72
25.14
28.1
31.77
35.29
37.83
38.81
37.79
34.57
29.07
21.34
11.61
0.29
-12.0
-24.54
-36.61
-47.71
-57.67
-66.72
-75.42
-84.6
-95.14
-107.71
-122.29
-137.71
-151.44
-159.95
-159.6
-147.85
-124.32
-91.23
-52.82
-14.17
20.22
47.35
66.08
76.74
80.48
78.65
72.52
63.25
51.93
39.61
27.29
15.79
5.8
-2.16
-7.63
-10.12
-9.14
-4.46
3.68
14.39
26.24
37.52
46.81
53.35
57.17
58.89
59.27
58.79
57.46
54.9
50.73
44.89
37.76
30.05
22.49
15.49
9.06
2.73
-4.24
-12.76
-23.52
-36.64
-51.15
-64.78
-74.19
-75.87
-67.33
-48.16
-20.37
12.1
44.66
73.38
95.83
111.19
119.78
122.41
120.02
113.51
103.91
92.41
80.15
68.09
56.75
46.27
36.64
27.92
20.42
14.63
11.04
9.75
10.38
12.04
13.66
14.26
13.25
10.55
6.44
1.39
-4.17
-10.01
-16.05
-22.3
-28.78
-35.34
-41.72
-47.48
-52.2
-55.64
-57.83
-59.22
-60.63
-63.02
-67.05
-72.55
-78.18
-81.4
-78.98
-67.8
-45.74
-12.16
31.93
84.07
140.85
198.27
252.2
298.7
334.44
357.16
366.07
362.02
347.22
324.72
297.6
268.31
238.36
208.31
177.97
146.85
114.38
80.2
44.34
7.45
-29.14
-63.9
-95.6
-123.95
-149.67
-173.79
-196.48
-216.35
-230.74
-237.16
-235.06
-226.78
-217.12
-211.5
-214.03
-226.37
-248.04
-277.52
-312.98
-352.0
-390.74
-423.39
-442.93
-443.3
-421.62
-379.39
-321.83
-255.85
-187.79
-122.12
-61.53
-7.74
37.84
73.96
100.06
116.78
125.8
129.28
128.99
126.0
120.9
114.16
106.53
99.03
92.53
87.49
83.88
81.4
79.8
79.02
79.15
80.18
81.83
83.66
85.31
86.74
88.27
90.45
93.55
97.26
100.55
101.89
99.44
91.42
76.3
53.11
21.99
-15.25
-54.68
-90.66
-117.05
-129.02
-124.63
-105.49
-76.12
-42.24
-8.9
20.76
45.68
66.13
82.72
95.57
104.34
108.5
107.87
102.92
94.77
84.73
73.98
63.12
52.13
40.51
27.74
13.67
-1.22
-15.92
-29.37
-40.94
-50.8
-59.77
-69.07
-79.75
-92.35
-106.73
-122.11
-137.21
-150.49
-160.43
-166.12
-167.75
-166.93
-166.42
-169.14
-177.04
-189.94
-205.18
-218.02
-222.77
-214.36
-189.86
-149.56
-97.39
-40.22
13.61
56.46
83.45
93.59
89.63
76.8
60.99
47.18
38.77
37.5
43.59
55.72
71.04
85.26
93.54
91.88
78.64
55.22
25.72
-4.72
-31.76
-53.29
-69.56
-82.24
-93.18
-103.48
-113.34
-122.79
-132.36
-143.33
-157.2
-174.94
-196.36
-220.12
-244.28
-266.96
-286.9
-303.17
-314.74
-320.06
-317.1
-303.93
-279.6
-244.79
-201.87
-154.37
-105.93
-59.49
-16.66
22.28
58.07
91.96
125.32
159.32
194.61
230.97
266.99
300.02
326.65
343.53
348.5
341.42
324.47
301.52
277.03
254.53
235.59
219.49
203.72
185.26
161.89
133.23
100.94
68.13
38.25
14.09
-2.93
-12.73
-16.23
-15.0
-11.03
-6.62
-4.21
-5.84
-12.43
-23.04
-34.72
-43.07
-43.66
-33.46
-12.08
18.11
52.82
87.32
117.94
142.78
161.83
176.02
186.45
193.71
197.73
198.16
194.87
188.22
179.2
169.09
159.1
150.01
142.04
134.94
128.26
121.68
115.15
108.85
102.89
96.85
89.57
79.26
64.1
43.29
17.8
-9.27
-33.41
-50.19
-56.89
-53.46
-42.49
-28.18
-14.93
-6.24
-4.23
-9.6
-21.8
-39.14
-58.8
-77.32
-91.26
-98.21
-97.47
-90.21
-78.78
-65.86
-53.57
-43.19
-35.23
-29.69
-26.38
-24.9
-24.67
-25.06
-25.5
-25.71
-25.78
-26.07
-26.91
-28.29
-29.75
-30.46
-29.53
-26.55
-21.76
-16.12
-10.96
-7.57
-6.77
-8.64
-12.64
-17.86
-23.37
-28.52
-33.15
-37.54
-42.36
-48.49
-56.8
-67.86
-81.47
-96.45
-110.46
-120.49
-123.58
-117.75
-102.71
-79.99
-52.46
-23.53
3.8
27.4
46.14
59.64
67.96
71.41
70.49
65.96
58.87
50.36
41.54
33.16
25.59
18.93
13.14
8.31
4.73
2.8
2.73
4.44
7.32
10.32
12.26
12.11
9.37
4.16
-2.88
-10.84
-18.87
-26.48
-33.68
-40.88
-48.83
-58.31
-69.83
-83.33
-97.79
-111.2
-120.9
-124.14
-119.04
-105.19
-83.9
-57.82
-30.13
-3.67
19.52
38.37
52.54
62.14
67.5
69.13
67.72
64.09
59.09
53.37
47.39
41.35
35.4
29.69
24.48
20.1
16.87
14.95
14.32
14.74
15.83
17.1
18.06
18.24
17.28
14.93
11.1
5.88
-0.45
-7.55
-14.98
-22.39
-29.54
-36.36
-42.92
-49.39
-55.83
-62.08
-67.6
-71.45
-72.46
-69.54
-62.08
-50.28
-35.08
-18.02
-0.81
15.12
28.75
39.53
47.23
51.8
53.3
51.92
48.11
42.58
36.23
30.01
24.66
20.6
17.93
16.4
15.76
15.77
16.38
17.6
19.35
21.33
22.93
23.43
22.17
18.86
13.64
7.04
-0.21
-7.44
-14.3
-20.83
-27.45
-34.87
-43.84
-54.8
-67.49
-80.68
-92.13
-99.08
-99.06
-90.71
-74.33
-51.82
-26.08
-0.17
23.51
43.56
59.47
71.32
79.37
83.86
85.06
83.4
79.57
74.42
68.87
63.62
59.07
55.29
52.21
49.78
48.16
47.71
48.81
51.66
56.02
61.16
65.96
69.17
69.8
67.36
61.99
54.38
45.52
36.31
27.29
18.5
9.57
-0.08
-11.04
-23.61
-37.62
-52.25
-65.94
-76.64
-82.24
-81.21
-73.14
-59.03
-40.97
-21.64
-3.53
11.5
22.34
28.58
30.21
27.46
20.76
10.78
-1.53
-15.11
-28.82
-41.7
-53.04
-62.41
-69.52
-74.15
-76.06
-74.95
-70.74
-63.62
-54.36
-44.21
-34.72
-27.39
-23.26
-22.67
-25.23
-30.1
-36.17
-42.53
-48.57
-54.1
-59.24
-64.36
-69.97
-76.57
-84.49
-93.59
-102.99
-110.97
-115.26
-113.65
-104.69
-88.38
-66.16
-40.59
-14.51
9.64
30.35
46.98
59.52
68.15
73.11
74.63
73.13
69.18
63.63
57.35
51.15
45.59
40.99
37.47
35.06
33.73
33.44
34.1
35.51
37.35
39.14
40.33
40.31
38.6
34.89
29.18
21.78
13.32
4.49
-4.05
-11.93
-19.1
-25.86
-32.76
-40.45
-49.54
-60.37
-72.73
-85.62
-97.15
-104.84
-106.23
-99.68
-84.99
-63.56
-38.01
-11.42
13.4
34.5
50.85
62.24
68.94
71.51
70.62
67.0
61.31
54.21
46.29
38.18
30.52
23.98
19.1
16.21
15.32
16.06
17.86
20.05
22.04
23.4
23.91
23.5
22.25
20.3
17.8
14.9
11.7
8.25
4.48
0.3
-4.42
-9.74
-15.69
-22.27
-29.64
-38.07
-47.88
-59.15
-71.29
-82.8
-91.4
-94.54
-90.28
-77.98
-58.67
-34.78
-9.39
14.67
35.39
51.8
63.7
71.34
75.12
75.47
72.93
68.19
62.11
55.6
49.52
44.54
41.03
39.13
38.71
39.52
41.27
43.76
46.86
50.44
54.21
57.64
60.05
60.75
59.36
55.97
51.14
45.63
40.16
35.08
30.31
25.52
20.36
14.7
8.63
2.39
-3.88
-10.14
-16.27
-21.71
-25.17
-24.59
-17.64
-2.36
22.04
54.46
91.8
129.07
160.33
179.84
183.17
167.97
134.31
84.88
25.07
-37.25
-92.71
-132.39
-150.25
-145.2
-121.54
-87.37
-51.62
-21.03
1.41
16.0
24.66
28.99
29.54
26.25
19.24
9.28
-2.47
-15.17
-28.61
-43.0
-58.21
-73.18
-85.72
-93.26
-93.92
-87.53
-76.1
-63.38
-53.85
-51.26
-57.41
-71.63
-91.04
-111.47
-128.64
-139.14
-141.06
-133.96
-118.63
-96.58
-69.64
-39.74
-8.84
21.16
48.49
71.77
90.26
103.95
113.36
119.15
121.71
120.96
116.55
108.34
96.91
83.72
70.7
59.54
50.99
44.7
39.57
34.5
28.93
23.11
17.74
13.45
10.43
8.36
6.69
4.97
3.09
1.21
-0.54
-2.32
-4.59
-8.03
-13.21
-20.31
-29.0
-38.53
-47.97
-56.48
-63.51
-68.7
-71.7
-71.99
-68.95
-62.03
-51.18
-37.08
-21.2
-5.44
8.32
18.69
25.13
27.84
27.63
25.48
22.31
18.77
15.39
12.59
10.88
10.77
12.54
16.07
20.74
25.6
29.81
32.99
35.46
38.06
41.75
47.13
54.12
62.0
69.63
75.85
79.64
80.33
77.56
71.29
61.83
49.94
36.79
23.78
12.29
3.24
-3.09
-7.14
-9.9
-12.53
-16.1
-21.28
-28.27
-36.89
-46.6
-56.72
-66.6
-75.87
-84.45
-92.52
-100.26
-107.52
-113.66
-117.62
-118.31
-115.06
-108.0
-98.1
-86.81
-75.6
-65.43
-56.63
-49.06
-42.44
-36.63
-31.73
-27.83
-24.67
-21.47
-17.14
-10.67
-1.71
9.17
20.67
31.31
40.09
46.82
52.07
56.8
61.77
67.26
73.11
78.94
84.44
89.55
94.51
99.68
105.42
111.87
118.8
125.57
131.17
134.56
134.98
132.25
126.73
119.1
109.9
99.2
86.66
71.81
54.52
35.38
15.59
-3.43
-20.58
-35.46
-48.45
-60.39
-72.18
-84.34
-96.88
-109.4
-121.32
-132.09
-141.28
-148.53
-153.54
-156.14
-156.36
-154.54
-151.29
-147.28
-143.0
-138.64
-134.21
-129.73
-125.47
-121.94
-119.46
-117.75
-115.65
-111.24
-102.58
-88.35
-68.51
-44.26
-17.65
8.98
33.57
54.57
70.99
82.41
89.02
91.57
91.35
89.81
88.18
87.04
86.11
84.44
80.8
74.1
63.8
49.99
33.41
15.35
-2.6
-18.76
-31.81
-41.2
-47.45
-52.05
-57.08
-64.5
-75.36
-89.45
-105.13
-119.73
-130.09
-133.21
-127.0
-110.97
-86.75
-58.0
-29.7
-6.59
8.42
15.23
16.41
15.9
17.2
22.18
30.72
41.45
52.64
62.91
71.4
77.4
80.35
79.82
75.89
69.36
61.45
53.25
45.23
37.09
28.06
17.55
5.6
-7.07
-19.2
-29.42
-36.49
-39.56
-38.49
-33.97
-27.63
-21.77
-18.66
-19.83
-25.48
-34.4
-44.53
-53.75
-60.67
-64.91
-66.97
-67.76
-68.09
-68.34
-68.29
-67.12
-63.55
-56.23
-44.17
-27.2
-6.05
17.77
42.58
66.93
89.86
110.82
129.51
145.65
158.96
169.43
177.34
183.21
187.3
189.21
187.81
181.72
170.08
153.29
133.07
112.06
93.01
78.07
68.29
63.39
61.82
60.89
57.27
47.6
29.51
2.45
-31.86
-69.7
-106.32
-137.21
-159.1
-170.57
-172.01
-165.43
-153.95
-141.09
-129.77
-121.28
-114.85
-107.95
-97.49
-81.38
-59.63
-34.49
-9.52
11.85
27.52
37.09
41.59
42.76
42.51
42.66
44.69
49.49
56.96
65.75
73.69
78.51
78.83
74.52
66.66
56.83
46.64
37.35
29.84
24.75
22.16
21.36
20.6
17.47
9.65
-4.02
-22.92
-44.8
-66.48
-84.97
-98.33
-106.07
-108.85
-107.85
-104.09
-97.99
-89.38
-77.93
-63.76
-47.81
-31.72
-17.34
-6.03
1.83
6.9
10.65
14.84
20.98
29.88
41.32
53.98
65.7
74.19
77.91
76.76
72.34
67.19
63.64
62.53
62.78
61.82
56.78
45.79
28.8
7.63
-14.52
-33.96
-47.42
-52.8
-49.76
-39.9
-26.54
-13.87
-5.87
-4.96
-11.33
-22.88
-36.13
-47.62
-55.0
-57.58
-55.99
-51.38
-44.77
-36.8
-27.99
-19.28
-12.15
-8.27
-8.76
-13.51
-20.87
-28.07
-32.21
-31.31
-24.99
-14.62
-2.62
8.55
17.31
23.36
27.49
30.77
33.8
36.36
37.68
37.19
35.09
32.45
30.83
31.46
34.7
39.86
45.59
50.43
53.5
54.77
55.11
55.82
58.18
62.96
70.23
79.4
89.23
97.88
102.97
102.03
93.32
76.75
54.33
29.72
6.85
-11.63
-25.28
-35.42
-43.87
-51.59
-58.24
-63.0
-65.88
-68.4
-73.17
-82.37
-96.24
-112.43
-126.68
-134.47
-132.7
-120.71
-100.34
-75.07
-48.77
-24.53
-4.01
12.57
25.94
36.83
45.41
51.17
53.42
52.02
47.83
42.57
37.98
34.96
33.14
31.17
27.69
22.23
15.59
9.55
5.91
5.56
8.13
12.21
16.01
18.2
18.35
17.05
15.47
14.92
16.3
19.86
25.13
31.16
36.81
41.04
43.12
42.66
39.57
34.08
26.91
19.39
13.34
10.45
11.43
15.33
19.47
20.29
14.84
2.06
-16.48
-37.07
-55.24
-67.26
-71.19
-67.06
-56.38
-41.5
-25.13
-10.09
1.01
6.36
5.69
0.7
-5.32
-8.66
-6.67
1.13
12.9
25.45
35.71
41.96
44.2
43.66
41.78
39.55
37.19
34.51
31.37
27.95
24.78
22.39
21.0
20.33
19.6
17.85
14.26
8.52
1.1
-6.78
-13.43
-17.25
-17.43
-14.51
-10.46
-8.13
-10.14
-17.59
-29.27
-41.72
-50.28
-50.66
-40.63
-20.98
4.37
29.32
47.19
52.69
43.63
21.71
-7.88
-38.13
-62.35
-76.09
-78.02
-69.67
-54.55
-37.07
-21.78
-12.69
-12.53
-21.83
-38.33
-57.22
-72.47
-78.95
-74.25
-59.4
-38.1
-15.1
5.62
21.82
33.09
40.3
44.76
47.65
49.55
50.48
50.03
47.74
43.49
37.63
30.8
23.56
15.97
7.66
-1.91
-12.95
-24.9
-36.62
-46.58
-53.43
-56.22
-54.43
-47.99
-37.17
-22.68
-5.76
11.95
29.0
44.6
59.05
73.41
88.68
104.56
118.82
127.45
125.92
110.98
82.4
43.53
0.6
-39.2
-69.79
-87.65
-92.28
-85.66
-71.25
-53.16
-35.5
-21.83
-14.64
-14.71
-20.81
-29.92
-38.14
-42.03
-39.79
-31.69
-19.79
-7.02
4.0
11.54
14.95
14.38
10.37
3.51
-5.62
-16.39
-28.0
-39.5
-49.78
-57.93
-63.21
-65.17
-63.58
-58.42
-49.92
-38.63
-25.45
-11.54
1.97
14.12
24.26
32.08
37.52
40.79
42.21
42.24
41.24
39.46
36.93
33.52
29.19
24.24
19.4
15.74
14.23
15.31
18.49
22.39
25.3
25.92
24.05
20.76
17.98
17.68
21.37
29.74
42.93
60.49
81.15
102.45
120.55
130.76
128.7
111.57
78.98
33.07
-22.14
-81.47
-139.31
-190.1
-228.81
-251.42
-255.7
-241.71
-212.0
-171.24
-125.26
-79.97
-40.27
-9.27
12.1
24.92
31.63
35.16
38.01
41.9
47.73
55.78
65.96
77.85
90.6
102.96
113.5
120.93
124.38
123.63
119.04
111.47
101.98
91.6
81.19
71.22
61.85
52.93
44.18
35.38
26.44
17.43
8.53
-0.09
-8.21
-15.69
-22.46
-28.58
-34.29
-40.0
-46.19
-53.25
-61.2
-69.66
-77.77
-84.31
-87.86
-87.09
-81.08
-69.53
-52.9
-32.24
-8.74
16.78
44.2
73.84
105.75
138.7
169.66
194.21
207.81
207.47
192.78
165.82
130.22
89.82
47.97
7.52
-28.79
-58.06
-77.67
-86.16
-84.0
-73.75
-59.35
-44.95
-33.94
-28.36
-28.97
-35.34
-45.99
-58.54
-69.99
-77.37
-78.53
-72.68
-60.63
-44.39
-26.52
-9.45
4.91
15.31
21.11
22.25
19.24
13.07
5.1
-3.26
-10.79
-16.51
-19.72
-20.04
-17.49
-12.56
-6.25
0.2
5.63
9.28
10.59
8.81
2.63
-9.56
-28.67
-53.84
-81.91
-108.07
-127.51
-137.22
-137.09
-129.57
-118.21
-106.01
-94.34
-83.02
-71.17
-58.36
-45.25
-33.55
-25.39
-22.59
-26.06
-35.53
-49.72
-66.64
-84.18
-100.44
-114.2
-125.12
-133.88
-141.96
-151.13
-162.81
-177.13
-192.32
-204.74
-209.9
-204.4
-187.62
-162.31
-133.45
-106.11
-83.3
-65.32
-50.54
-37.23
-24.97
-14.65
-7.38
-2.98
0.59
6.5
17.34
33.73
53.97
75.03
94.02
109.19
120.12
127.24
131.19
132.43
131.31
128.33
124.4
120.68
118.17
117.37
118.06
119.54
120.91
121.44
120.72
118.52
114.66
108.96
101.45
92.52
82.92
73.59
65.23
58.04
51.59
45.05
37.57
28.71
18.65
8.21
-1.32
-8.39
-11.43
-9.1
-0.47
14.79
36.2
62.4
91.39
120.77
148.32
172.34
191.96
207.07
218.14
225.87
230.89
233.56
233.89
231.67
226.72
219.2
209.88
200.05
191.41
185.59
183.74
186.12
191.76
198.49
202.95
201.17
189.31
164.8
127.59
80.74
30.18
-16.73
-53.34
-75.77
-83.84
-80.58
-70.58
-58.1
-45.9
-35.23
-26.58
-20.45
-17.4
-17.46
-19.34
-20.46
-17.8
-9.31
5.03
23.26
42.55
60.53
76.26
90.11
102.92
115.14
126.42
135.96
143.1
147.79
150.59
152.31
153.53
154.37
154.38
152.72
148.16
139.35
124.97
104.26
77.46
46.15
13.06
-18.66
-46.38
-68.64
-85.48
-97.97
-107.53
-115.33
-122.0
-127.71
-132.49
-136.43
-139.69
-142.45
-144.89
-147.18
-149.75
-153.15
-157.85
-163.7
-169.55
-173.24
-172.13
-164.0
-147.97
-124.89
-97.14
-67.91
-40.25
-16.44
2.45
16.33
25.76
31.54
34.41
34.93
33.55
30.63
26.51
21.46
15.6
8.86
1.13
-7.56
-16.93
-26.38
-35.11
-42.42
-47.83
-51.3
-53.15
-54.06
-54.94
-56.76
-60.26
-65.64
-72.52
-80.01
-87.1
-93.16
-98.13
-102.61
-107.39
-113.09
-119.88
-127.3
-134.1
-138.1
-136.15
-124.78
-101.31
-65.34
-19.58
30.47
78.04
117.28
144.85
160.46
165.93
163.75
155.76
142.91
125.72
105.21
83.32
62.66
45.62
33.32
25.0
18.23
9.84
-2.93
-21.25
-44.34
-69.97
-95.31
-117.77
-135.5
-147.46
-153.36
-153.59
-149.21
-141.78
-132.89
-123.79
-114.95
-106.2
-97.1
-87.35
-77.06
-66.67
-56.72
-47.77
-40.36
-34.91
-31.54
-29.9
-29.15
-28.25
-26.64
-24.84
-24.56
-28.12
-37.51
-53.39
-74.57
-98.28
-121.09
-139.96
-153.31
-161.44
-166.39
-171.05
-178.05
-188.72
-202.48
-216.79
-227.68
-230.64
-221.78
-198.85
-162.23
-115.14
-63.0
-12.07
32.23
66.69
90.7
105.55
113.2
115.07
111.64
102.75
88.23
68.27
43.47
14.35
-18.85
-56.15
-97.24
-140.65
-183.13
-219.62
-244.25
-251.75
-239.17
-206.99
-159.11
-101.69
-41.45
16.0
67.04
109.92
144.12
169.61
186.51
195.1
196.0
190.17
178.61
162.15
141.29
116.49
88.64
59.5
31.81
8.88
-6.27
-11.89
-8.13
2.89
17.71
32.68
44.96
53.1
56.91
56.87
53.35
46.3
35.24
19.67
-0.33
-23.78
-48.71
-72.47
-92.27
-105.84
-111.97
-110.63
-102.77
-89.72
-72.62
-52.21
-28.83
-2.84
24.99
53.22
79.73
102.06
118.01
126.25
126.9
121.61
113.23
104.93
99.34
97.79
100.16
105.38
112.08
119.32
126.78
134.42
142.05
148.99
154.13
156.29
154.82
149.84
142.15
132.72
122.08
109.86
94.9
75.76
51.56
22.51
-9.97
-43.66
-76.34
-106.34
-132.94
-156.19
-176.5
-194.24
-209.39
-221.4
-229.07
-230.63
-224.08
-207.63
-180.47
-143.39
-98.96
-51.13
-4.39
37.37
71.56
97.07
113.95
122.83
124.43
119.59
109.33
95.1
78.76
62.29
47.41
35.24
26.21
20.06
16.1
13.41
11.01
8.0
3.8
-1.68
-7.95
-14.06
-19.02
-22.23
-23.89
-24.97
-27.0
-31.48
-39.37
-50.69
-64.45
-78.86
-91.89
-101.85
-107.97
-110.56
-110.99
-111.26
-113.38
-118.76
-127.54
-138.21
-147.51
-151.0
-144.27
-124.31
-90.81
-46.44
3.79
54.02
99.16
135.92
162.94
180.22
188.38
188.22
180.59
166.59
147.61
125.26
101.2
76.99
54.03
33.65
17.12
5.41
-1.04
-2.51
0.04
5.2
11.53
17.76
22.9
26.1
26.67
24.07
18.14
9.19
-1.97
-14.31
-26.76
-38.51
-49.06
-58.11
-65.47
-71.11
-75.27
-78.64
-82.33
-87.49
-94.59
-102.68
-109.2
-110.54
-103.27
-85.61
-58.34
-24.81
10.12
41.51
65.78
81.36
88.65
89.32
85.39
78.48
69.5
58.74
46.27
32.43
18.12
4.86
-5.55
-11.62
-12.6
-8.75
-1.35
7.72
16.46
23.31
27.53
29.35
29.58
29.13
28.5
27.42
25.1
20.67
13.65
4.21
-7.01
-19.26
-32.01
-45.1
-58.65
-72.87
-87.91
-103.71
-119.9
-135.64
-149.56
-159.76
-164.1
-160.62
-148.12
-126.57
-97.28
-62.73
-26.1
9.28
40.53
65.66
83.7
94.7
99.45
99.21
95.37
89.36
82.4
75.52
69.48
64.77
61.74
60.68
61.94
65.86
72.66
82.13
93.4
104.92
114.6
120.34
120.59
114.83
103.71
88.92
72.66
57.01
43.36
32.11
22.66
13.75
3.73
-8.81
-24.54
-43.19
-63.47
-83.5
-101.51
-116.34
-127.58
-135.15
-138.74
-137.45
-130.11
-116.05
-95.86
-71.71
-46.81
-24.31
-6.34
6.43
14.46
18.76
20.25
19.64
17.54
14.77
12.51
12.15
15.11
22.67
35.63
54.37
78.63
107.31
138.37
168.93
195.79
216.22
228.82
233.91
233.26
229.11
222.87
214.2
200.81
179.26
146.43
101.12
45.26
-15.78
-74.14
-121.33
-150.65
-159.25
-149.24
-127.29
-102.72
-84.73
-79.51
-88.54
-108.33
-131.84
-151.08
-159.59
-154.18
-135.26
-105.94
-70.52
-33.1
3.16
36.02
63.86
85.29
99.32
105.63
104.79
98.3
88.16
76.36
64.61
54.08
45.54
39.4
35.88
34.97
36.42
39.73
44.12
48.68
52.41
54.38
53.9
50.6
44.53
36.11
26.02
15.05
3.91
-6.93
-17.24
-27.05
-36.54
-45.93
-55.51
-65.6
-76.55
-88.36
-100.37
-110.8
-116.88
-115.44
-103.86
-81.15
-48.54
-9.4
31.6
69.73
101.22
123.87
137.07
141.55
138.99
131.62
121.85
111.82
102.98
95.82
89.97
84.55
78.69
71.86
63.94
55.08
45.48
35.35
24.99
14.77
4.98
-4.49
-14.39
-25.9
-40.15
-57.49
-77.03
-96.73
-114.03
-126.69
-133.71
-135.61
-134.26
-132.38
-132.75
-137.6
-148.12
-164.07
-183.61
-203.19
-217.88
-222.33
-212.33
-186.31
-146.29
-97.57
-47.05
-1.14
36.11
63.49
81.91
92.98
97.73
96.22
88.07
73.38
53.64
31.9
12.17
-1.82
-7.76
-5.72
1.83
10.88
17.45
19.21
16.54
12.26
10.26
13.53
22.51
34.68
45.35
49.61
44.44
29.93
9.41
-11.89
-28.86
-38.38
-40.29
-37.19
-33.24
-32.62
-38.32
-51.31
-70.43
-92.57
-113.24
-127.23
-129.64
-116.93
-88.02
-44.66
8.85
66.72
123.15
173.55
215.3
247.59
270.88
286.31
295.1
298.27
296.26
288.7
274.51
252.4
221.8
183.69
140.94
97.74
58.31
25.47
-0.1
-19.64
-35.23
-48.56
-60.14
-69.32
-74.94
-76.18
-73.13
-67.25
-61.34
-58.94
-63.24
-75.75
-95.28
-117.91
-138.15
-150.75
-152.73
-144.54
-130.01
-115.4
-107.66
-112.44
-132.2
-165.02
-204.46
-240.91
-264.33
-267.41
-248.08
-210.13
-161.92
-113.7
-74.61
-50.58
-43.52
-51.88
-72.11
-100.16
-132.69
-167.46
-203.33
-239.5
-274.81
-307.22
-333.82
-351.42
-357.46
-350.8
-332.02
-303.17
-267.11
-226.54
-183.48
-138.92
-92.79
-44.23
7.62
62.72
119.05
172.15
215.67
243.0
249.39
233.63
198.46
149.37
93.12
36.11
-16.16
-59.12
-89.09
-103.59
-101.77
-84.76
-55.41
-17.56
24.34
65.29
99.65
121.72
127.23
115.11
88.45
53.94
19.76
-7.11
-22.78
-26.68
-20.6
-7.08
11.6
33.75
58.02
83.18
108.31
133.1
157.95
183.56
210.41
237.95
264.29
286.49
301.37
306.54
301.2
286.44
264.7
238.99
211.98
185.35
159.66
134.41
108.44
80.2
48.42
12.68
-25.84
-64.12
-97.76
-122.22
-134.34
-133.63
-122.46
-105.23
-86.92
-71.68
-61.99
-58.56
-60.52
-65.83
-71.67
-75.1
-73.8
-66.9
-55.4
-42.04
-30.29
-23.01
-21.41
-24.59
-30.06
-34.86
-36.67
-34.57
-29.07
-21.67
-14.19
-8.09
-4.05
-1.82
-0.37
1.7
5.83
13.12
24.27
39.43
58.14
79.2
100.61
119.61
132.95
137.66
132.03
116.51
94.06
69.5
48.39
35.33
32.82
40.68
56.52
76.67
97.42
115.83
130.19
139.79
144.53
144.64
140.51
132.84
122.67
111.42
100.59
91.38
84.39
79.46
75.83
72.6
69.12
65.26
61.34
57.89
55.25
53.29
51.38
48.54
43.87
36.84
27.53
16.53
4.72
-7.02
-18.11
-28.28
-37.5
-45.95
-53.93
-61.89
-70.24
-79.16
-88.25
-96.4
-101.9
-102.93
-98.07
-86.84
-69.87
-48.79
-25.8
-3.27
16.76
32.83
44.28
51.17
54.13
54.07
51.91
48.39
44.27
40.32
37.44
36.52
38.14
42.26
48.16
54.61
60.33
64.42
66.66
67.48
67.69
68.01
68.67
69.17
68.46
65.2
58.52
48.28
35.34
21.2
7.45
-4.92
-15.81
-26.04
-37.04
-50.22
-66.33
-84.92
-104.01
-120.37
-130.19
-130.18
-118.7
-96.38
-66.16
-32.54
-0.4
26.32
45.45
56.77
61.63
62.09
60.03
56.68
52.52
47.6
41.96
36.02
30.53
26.28
23.73
22.88
23.23
24.13
25.01
25.59
25.8
25.78
25.71
25.74
25.91
26.12
26.15
25.72
24.54
22.46
19.33
15.11
9.74
3.19
-4.57
-13.59
-24.05
-36.19
-50.23
-65.93
-82.11
-96.45
-105.78
-107.08
-98.7
-81.3
-57.81
-32.37
-8.58
11.95
29.99
47.56
65.97
84.04
97.69
101.26
89.94
62.29
21.47
-25.36
-69.21
-102.0
-118.89
-119.11
-105.42
-82.5
-55.14
-27.06
-0.59
23.06
43.15
58.94
69.81
75.57
76.91
75.41
73.07
71.5
71.3
71.82
71.57
