19.1
16.52
14.09
12.06
10.58
9.73
9.55
9.97
10.87
12.01
13.12
13.96
14.34
14.22
13.61
12.55
11.03
9.06
6.62
3.76
0.56
-2.83
-6.26
-9.62
-12.81
-15.8
-18.61
-21.31
-24.07
-27.07
-30.49
-34.34
-38.33
-41.84
-43.98
-43.83
-40.74
-34.62
-26.03
-15.98
-5.67
3.8
11.73
17.75
21.85
24.2
25.08
24.82
23.74
22.15
20.33
18.48
16.74
15.18
13.84
12.77
12.01
11.6
11.57
11.92
12.61
13.51
14.45
15.18
15.44
15.01
13.83
11.97
9.59
6.89
3.98
0.92
-2.3
-5.64
-8.99
-12.18
-15.08
-17.68
-20.12
-22.68
-25.61
-29.11
-33.19
-37.61
-41.85
-45.11
-46.47
-45.13
-40.71
-33.45
-24.17
-14.03
-4.22
4.33
11.07
15.84
18.69
19.83
19.52
18.06
15.79
13.03
10.07
7.18
4.55
2.3
0.51
-0.78
-1.59
-1.93
-1.87
-1.54
-1.15
-1.0
-1.39
-2.57
-4.55
-7.11
-9.82
-12.15
-13.61
-13.99
-13.36
-12.1
-10.67
-9.5
-8.8
-8.56
-8.63
-8.91
-9.43
-10.37
-11.93
-14.19
-16.95
-19.7
-21.63
-21.88
-19.77
-14.94
-7.58
1.71
12.03
22.4
32.06
40.47
47.34
52.52
55.94
57.58
57.48
55.81
52.93
49.24
45.17
41.06
37.13
33.5
30.22
27.36
25.0
23.18
21.86
20.85
19.88
18.61
16.83
14.43
11.51
8.26
4.91
1.61
-1.59
-4.75
-7.97
-11.33
-14.83
-18.36
-21.75
-24.88
-27.71
-30.39
-33.16
-36.31
-39.9
-43.64
-46.83
-48.57
-47.95
-44.42
-37.99
-29.26
-19.2
-8.95
0.56
8.67
15.09
19.71
22.57
23.8
23.57
22.19
20.0
17.37
14.69
12.24
10.28
8.96
8.35
8.4
8.98
9.85
10.77
11.52
11.96
12.02
11.71
11.02
9.99
8.63
6.95
4.97
2.69
0.11
-2.72
-5.75
-8.86
-11.97
-15.0
-17.97
-20.95
-24.0
-27.22
-30.67
-34.37
-38.24
-41.91
-44.77
-46.0
-44.75
-40.49
-33.28
-23.79
-13.19
-2.74
6.54
14.11
19.84
23.86
26.35
27.43
27.22
25.92
23.88
21.57
19.4
17.64
16.33
15.35
14.58
13.98
13.63
13.66
14.13
14.95
15.82
16.37
16.26
15.37
13.76
11.73
9.56
7.46
5.43
3.32
0.91
-1.91
-5.09
-8.41
-11.59
-14.47
-17.05
-19.59
-22.43
-25.88
-30.08
-34.87
-39.73
-43.85
-46.27
-46.08
-42.77
-36.31
-27.33
-16.86
-6.14
3.73
11.95
18.18
22.35
24.62
25.21
24.41
22.55
20.02
17.32
14.88
13.01
11.86
11.39
11.46
11.93
12.69
13.67
14.78
15.88
16.76
17.25
17.22
16.64
15.56
14.02
12.06
9.67
6.86
3.68
0.26
-3.24
-6.69
-9.97
-12.99
-15.72
-18.17
-20.46
-22.82
-25.53
-28.82
-32.65
-36.57
-39.75
-41.2
-40.01
-35.76
-28.63
-19.37
-9.1
1.08
10.21
17.66
23.07
26.4
27.77
27.45
25.85
23.38
20.42
17.31
14.33
11.74
9.79
8.71
8.59
9.39
10.86
12.66
14.38
15.69
16.35
16.28
15.57
14.37
12.86
11.15
9.22
6.94
4.17
0.84
-2.93
-6.89
-10.75
-14.24
-17.28
-19.89
-22.24
-24.61
-27.36
-30.78
-35.01
-39.82
-44.49
-47.96
-49.06
-46.94
-41.35
-32.8
-22.37
-11.36
-0.98
7.97
15.11
20.41
24.01
26.13
27.04
26.94
26.04
24.54
22.67
20.64
18.7
17.05
15.85
15.16
14.96
15.22
15.88
16.86
18.05
19.23
20.1
20.33
19.74
18.3
16.17
13.63
10.91
8.11
5.2
2.1
-1.26
-4.86
-8.57
-12.17
-15.51
-18.47
-21.09
-23.5
-25.96
-28.76
-32.06
-35.75
-39.28
-41.78
-42.22
-39.8
-34.24
-26.01
-16.11
-5.82
3.76
11.91
18.34
23.03
26.07
27.56
27.62
26.48
24.51
22.13
19.73
17.57
15.8
14.48
13.69
13.54
14.05
15.19
16.75
18.4
19.76
20.53
20.5
19.62
18.0
15.84
13.43
11.01
8.72
6.54
4.27
1.69
-1.34
-4.79
-8.48
-12.1
-15.42
-18.34
-20.93
-23.42
-26.12
-29.29
-33.02
-37.07
-40.82
-43.33
-43.61
-40.96
-35.22
-26.92
-17.12
-7.06
2.17
9.9
15.88
20.17
22.94
24.4
24.73
24.1
22.74
20.91
18.89
16.93
15.23
13.93
13.14
12.93
13.32
14.26
15.6
17.11
18.46
19.41
19.78
19.51
18.68
17.37
15.69
13.64
11.2
8.33
5.06
1.44
-2.41
-6.32
-10.13
-13.69
-16.88
-19.76
-22.53
-25.5
-29.01
-33.14
-37.56
-41.5
-43.87
-43.65
-40.24
-33.68
-24.69
-14.42
-4.13
5.12
12.64
18.14
21.62
23.35
23.7
23.12
22.02
20.69
19.33
18.03
16.88
15.97
15.42
15.34
15.73
16.51
17.56
18.73
19.94
21.06
21.95
22.37
22.1
21.0
19.07
16.54
13.65
10.62
7.45
4.05
0.28
-3.85
-8.13
-12.24
-15.85
-18.84
-21.3
-23.57
-26.06
-29.05
-32.63
-36.51
-40.09
-42.52
-42.89
-40.5
-35.12
-27.12
-17.41
-7.16
2.46
10.62
16.91
21.32
24.02
25.25
25.22
24.17
22.37
20.16
17.89
15.81
14.1
12.81
11.95
11.57
11.7
12.38
13.6
15.24
17.03
18.59
19.56
19.65
18.75
16.97
14.63
12.09
9.64
7.37
5.16
2.8
0.08
-3.05
-6.45
-9.85
-12.99
-15.69
-17.96
-20.01
-22.16
-24.78
-28.17
-32.32
-36.89
-41.1
-43.92
-44.38
-41.83
-36.24
-28.17
-18.65
-8.83
0.3
8.04
14.12
18.46
21.18
22.42
22.41
21.43
19.82
17.97
16.2
14.73
13.69
13.09
12.92
13.18
13.88
14.99
16.39
17.86
19.08
19.73
19.57
18.54
16.71
14.33
11.63
8.76
5.78
2.7
-0.51
-3.84
-7.26
-10.74
-14.26
-17.8
-21.34
-24.86
-28.33
-31.79
-35.27
-38.69
-41.77
-43.96
-44.52
-42.76
-38.31
-31.31
-22.45
-12.71
-3.12
5.53
12.77
18.46
22.62
25.34
26.68
26.73
25.64
23.65
21.12
18.49
16.12
14.31
13.18
12.74
12.92
13.61
14.67
15.93
17.2
18.24
18.8
18.66
17.7
15.94
13.5
10.6
7.45
4.21
0.93
-2.45
-5.96
-9.57
-13.12
-16.34
-19.06
-21.22
-23.05
-24.97
-27.38
-30.43
-33.86
-36.99
-38.92
-38.76
-36.03
-30.72
-23.38
-14.88
-6.2
1.82
8.68
14.13
18.18
20.96
22.6
23.23
22.95
21.89
20.22
18.21
16.17
14.42
13.24
12.72
12.87
13.52
14.47
15.46
16.28
16.78
16.87
16.53
15.8
14.74
13.37
11.69
9.65
7.22
4.41
1.32
-1.86
-4.93
-7.74
-10.24
-12.5
-14.7
-17.09
-19.92
-23.37
-27.41
-31.68
-35.45
-37.82
-37.86
-35.01
-29.28
-21.31
-12.18
-3.04
5.15
11.85
16.95
20.57
22.92
24.16
24.42
23.83
22.57
20.86
18.93
16.97
15.16
13.63
12.47
11.73
11.4
11.36
11.45
11.51
11.36
10.91
10.18
9.2
8.08
6.93
5.82
4.74
3.65
2.51
1.23
-0.22
-1.83
-3.55
-5.34
-7.18
-9.16
-11.44
-14.15
-17.22
-20.21
-22.31
-22.53
-20.01
-14.4
-6.04
4.11
14.77
24.8
33.48
40.64
46.55
51.64
56.3
60.7
64.77
68.28
71.0
72.88
74.2
75.62
78.0
82.14
88.41
96.6
105.95
115.47
124.32
132.26
139.64
147.32
156.28
167.45
181.45
198.34
217.34
236.49
252.87
263.06
264.27
255.16
236.32
209.85
178.37
144.08
108.18
71.14
33.16
-5.26
-43.32
-80.38
-116.39
-152.29
-189.89
-231.44
-278.75
-332.08
-389.22
-445.29
-493.5
-526.9
-540.43
-532.46
-505.03
-462.89
-411.84
-357.18
-303.03
-252.27
-206.9
-168.29
-137.05
-112.76
-94.02
-78.78
-65.09
-51.71
-38.37
-25.62
-14.45
-5.76
-0.03
2.94
3.84
3.7
3.46
3.78
4.78
6.11
7.12
7.08
5.56
2.55
-1.3
-4.88
-6.86
-6.09
-2.02
5.2
14.73
25.37
35.93
45.53
53.72
60.38
65.56
69.29
71.55
72.3
71.65
69.85
67.32
64.53
61.85
59.53
57.62
56.08
54.75
53.52
52.29
51.06
49.84
48.64
47.46
46.19
44.63
42.52
39.66
35.95
31.51
26.68
21.83
17.28
13.19
9.46
5.86
2.06
-2.23
-7.12
-12.51
-18.05
-23.05
-26.64
-27.91
-26.12
-21.03
-13.02
-2.98
7.84
18.23
27.28
34.52
39.88
43.51
45.62
46.3
45.62
43.63
40.55
36.81
32.9
29.34
26.42
24.21
22.57
21.32
20.34
19.65
19.3
19.23
19.17
18.72
17.45
15.09
11.67
7.48
2.98
-1.37
-5.26
-8.53
-11.25
-13.62
-15.95
-18.62
-21.9
-25.89
-30.39
-34.85
-38.35
-39.9
-38.64
-34.17
-26.67
-16.94
-6.12
4.59
14.22
22.16
28.21
32.37
34.81
35.7
35.27
33.77
31.53
28.91
26.31
24.06
22.42
21.52
21.34
21.73
22.5
23.46
24.47
25.51
26.57
27.55
28.23
28.28
27.3
25.06
21.56
17.07
12.08
7.09
2.48
-1.62
-5.28
-8.71
-12.17
-15.83
-19.82
-24.18
-28.78
-33.22
-36.86
-38.8
-38.19
-34.49
-27.73
-18.57
-8.1
2.42
11.96
19.9
26.02
30.31
32.77
33.37
32.18
29.55
26.17
22.99
20.83
20.09
20.57
21.6
22.38
22.33
21.32
19.62
17.67
15.77
14.02
12.29
10.37
8.15
5.64
2.92
0.1
-2.77
-5.69
-8.74
-11.9
-15.07
-18.11
-20.89
-23.36
-25.67
-28.06
-30.84
-34.19
-38.02
-41.89
-45.03
-46.5
-45.5
-41.59
-34.9
-26.07
-16.13
-6.17
2.88
10.41
16.08
19.83
21.74
22.03
21.01
19.09
16.7
14.16
11.7
9.46
7.53
6.07
5.26
5.25
6.08
7.74
10.05
12.82
15.85
18.91
21.77
24.21
26.06
27.31
28.09
28.58
28.95
29.24
29.36
29.2
28.6
27.52
25.92
23.78
21.06
17.76
13.95
9.73
5.16
0.27
-4.92
-10.28
-15.49
-20.02
-23.37
-25.21
-25.63
-25.02
-23.92
-22.75
-21.71
-20.76
-19.76
-18.63
-17.45
-16.32
-15.28
-14.28
-13.13
-11.66
-9.77
-7.5
-5.03
-2.62
-0.52
1.1
2.1
2.43
2.09
1.13
-0.36
-2.2
-4.16
-6.07
-7.86
-9.64
-11.68
-14.25
-17.53
-21.51
-25.94
-30.37
-34.27
-37.05
-38.17
-37.2
-33.95
-28.55
-21.47
-13.45
-5.33
2.19
8.63
13.82
17.73
20.39
21.77
21.86
20.73
18.68
16.16
13.76
11.94
10.89
10.58
10.77
11.22
11.83
12.61
13.66
14.95
16.29
17.31
17.58
16.8
14.87
11.96
8.38
4.47
0.51
-3.34
-6.95
-10.3
-13.36
-16.25
-19.19
-22.5
-26.35
-30.56
-34.54
-37.32
-37.87
-35.45
-29.92
-21.8
-12.07
-1.91
7.7
16.02
22.69
27.56
30.65
32.05
31.99
30.78
28.81
26.51
24.25
22.21
20.45
18.95
17.67
16.61
15.9
15.67
16.01
16.8
17.8
18.63
18.99
18.68
17.73
16.33
14.75
13.2
11.73
10.21
8.39
5.93
2.63
-1.52
-6.18
-10.71
-14.25
-15.94
-15.19
-11.83
-6.19
1.04
8.96
16.69
23.48
28.84
32.48
34.34
34.54
33.29
30.96
27.93
24.57
21.17
17.93
14.95
12.24
9.84
7.84
6.39
5.58
5.44
5.81
6.39
6.78
6.68
5.91
4.53
2.72
0.72
-1.29
-3.3
-5.41
-7.8
-10.67
-14.1
-18.08
-22.36
-26.49
-29.84
-31.74
-31.72
-29.69
-26.01
-21.38
-16.52
-12.03
-8.16
-4.96
-2.44
-0.73
-0.01
-0.41
-1.86
-4.03
-6.41
-8.56
-10.23
-11.41
-12.17
-12.59
-12.62
-12.09
-10.9
-9.12
-7.03
-5.11
-3.86
-3.62
-4.44
-6.09
-8.16
-10.22
-12.03
-13.56
-15.0
-16.65
-18.83
-21.78
-25.51
-29.82
-34.2
-37.92
-40.13
-40.16
-37.67
-32.8
-26.11
-18.47
-10.81
-3.94
1.6
5.5
7.68
8.24
7.4
5.43
2.62
-0.76
-4.51
-8.51
-12.69
-17.08
-21.66
-26.3
-30.74
-34.56
-37.26
-38.45
-37.91
-35.7
-32.11
-27.53
-22.39
-17.14
-12.21
-8.02
-4.96
-3.25
-2.89
-3.7
-5.39
-7.68
-10.34
-13.07
-15.39
-16.61
-15.95
-12.8
-6.95
1.23
10.96
21.17
30.86
39.28
46.02
51.06
54.65
57.2
59.17
60.85
62.36
63.59
64.31
64.29
63.41
61.75
59.54
57.18
55.05
53.38
52.25
51.4
50.45
48.94
46.59
43.34
39.36
34.93
30.3
25.61
20.87
16.05
11.05
5.82
0.25
-5.72
-12.04
-18.39
-24.19
-28.66
-31.08
-31.05
-28.66
-24.44
-19.23
-13.81
-8.79
-4.48
-0.99
1.68
3.49
4.41
4.39
3.44
1.65
-0.81
-3.68
-6.68
-9.53
-12.0
-13.89
-15.07
-15.46
-15.06
-13.99
-12.51
-11.0
-9.91
-9.55
-10.02
-11.14
-12.54
-13.86
-14.93
-15.81
-16.77
-18.16
-20.23
-23.09
-26.66
-30.69
-34.65
-37.83
-39.38
-38.53
-34.88
-28.6
-20.34
-11.11
-1.88
6.61
13.9
19.77
24.11
26.83
27.95
27.62
26.19
24.12
21.84
19.63
17.63
15.77
13.99
12.27
10.69
9.43
8.66
8.42
8.56
8.73
8.5
7.52
5.68
3.09
0.06
-3.09
-6.15
-9.07
-11.99
-15.12
-18.68
-22.81
-27.44
-32.18
-36.37
-39.12
-39.56
-37.13
-31.77
-24.01
-14.77
-5.15
3.86
11.54
17.44
21.42
23.48
23.84
22.83
20.82
18.19
15.25
12.14
8.92
5.65
2.46
-0.41
-2.67
-4.06
-4.5
-4.1
-3.18
-2.14
-1.41
-1.28
-1.96
-3.49
-5.82
-8.7
-11.79
-14.74
-17.33
-19.53
-21.62
-24.04
-27.28
-31.55
-36.61
-41.68
-45.6
-47.15
-45.45
-40.3
-32.23
-22.35
-11.97
-2.24
6.13
12.81
17.77
21.04
22.63
22.58
21.09
18.55
15.51
12.49
9.86
7.75
6.08
4.69
3.5
2.58
2.11
2.25
2.99
4.12
5.27
6.0
5.95
4.99
3.13
0.58
-2.4
-5.55
-8.74
-11.89
-15.09
-18.51
-22.38
-26.86
-31.93
-37.19
-41.84
-44.84
-45.13
-42.04
-35.46
-25.99
-14.72
-2.99
7.99
17.32
24.52
29.47
32.29
33.18
32.41
30.28
27.17
23.52
19.82
16.47
13.74
11.67
10.12
8.9
7.87
7.05
6.57
6.54
6.88
7.32
7.4
6.71
5.01
2.41
-0.75
-4.0
-7.0
-9.6
-11.91
-14.19
-16.74
-19.86
-23.71
-28.27
-33.2
-37.76
-40.93
-41.59
-38.93
-32.77
-23.7
-12.89
-1.71
8.59
17.26
23.95
28.63
31.4
32.37
31.73
29.74
26.79
23.35
19.89
16.77
14.22
12.3
10.98
10.17
9.76
9.68
9.88
10.3
10.86
11.39
11.6
11.16
9.77
7.31
3.93
-0.02
-4.01
-7.65
-10.76
-13.43
-15.97
-18.82
-22.33
-26.7
-31.81
-37.17
-41.92
-44.99
-45.32
-42.2
-35.52
-25.89
-14.49
-2.7
8.19
17.28
24.16
28.79
31.38
32.23
31.63
29.89
27.33
24.32
21.26
18.52
16.39
14.96
14.19
13.89
13.85
13.95
14.14
14.43
14.84
15.26
15.49
15.22
14.18
12.21
9.33
5.76
1.82
-2.12
-5.78
-9.03
-11.92
-14.67
-17.58
-21.01
-25.22
-30.24
-35.64
-40.62
-44.06
-44.81
-42.12
-35.88
-26.68
-15.65
-4.11
6.75
16.15
23.68
29.2
32.73
34.33
34.14
32.41
29.56
26.13
22.7
19.76
17.6
16.27
15.62
15.44
15.52
15.74
16.08
16.51
16.99
17.39
17.52
17.16
16.14
14.36
11.86
8.74
5.21
1.49
-2.19
-5.66
-8.84
-11.69
-14.32
-16.89
-19.67
-22.99
-27.12
-32.06
-37.41
-42.25
-45.37
-45.63
-42.37
-35.67
-26.34
-15.62
-4.87
4.89
13.05
19.34
23.76
26.35
27.2
26.47
24.45
21.55
18.29
15.14
12.47
10.5
9.28
8.75
8.79
9.29
10.19
11.45
13.05
14.85
16.62
18.03
18.7
18.31
16.73
14.03
10.47
6.45
2.36
-1.48
-4.93
-7.99
-10.83
-13.7
-16.9
-20.66
-25.06
-29.89
-34.55
-38.14
-39.63
-38.17
-33.43
-25.76
-16.15
-5.89
3.76
11.92
18.15
22.43
24.96
25.98
25.72
24.38
22.17
19.36
16.28
13.29
10.76
8.99
8.15
8.19
8.91
9.97
11.1
12.14
13.0
13.7
14.17
14.27
13.81
12.62
10.67
8.06
4.99
1.69
-1.7
-5.08
-8.44
-11.79
-15.14
-18.53
-22.02
-25.72
-29.71
-33.96
-38.21
-41.93
-44.29
-44.44
-41.7
-35.88
-27.4
-17.19
-6.52
3.46
11.9
18.4
22.92
25.65
26.85
26.74
25.55
23.55
21.09
18.56
16.3
14.48
13.17
12.31
11.82
11.69
11.97
12.65
13.63
14.69
15.51
15.79
15.33
14.08
12.15
9.68
6.82
3.7
0.45
-2.8
-5.93
-8.84
-11.54
-14.12
-16.79
-19.85
-23.57
-28.1
-33.33
-38.81
-43.68
-46.86
-47.31
-44.34
-37.93
-28.76
-18.0
-7.04
2.95
11.19
17.41
21.67
24.24
25.44
25.56
24.81
23.38
21.45
19.22
16.93
14.81
13.12
12.0
11.5
11.56
12.1
12.98
14.08
15.22
16.23
16.84
16.87
16.15
14.63
12.35
9.42
5.97
2.2
-1.67
-5.44
-8.96
-12.17
-15.12
-17.96
-20.87
-24.07
-27.75
-31.98
-36.54
-40.87
-44.02
-44.92
