12.06
13.15
14.19
15.0
15.53
15.74
15.57
14.87
13.51
11.4
8.57
5.13
1.27
-2.77
-6.8
-10.66
-14.27
-17.62
-20.83
-24.02
-27.39
-31.09
-35.17
-39.49
-43.59
-46.74
-47.98
-46.41
-41.56
-33.56
-23.21
-11.78
-0.59
9.28
17.24
23.16
27.19
29.58
30.56
30.29
28.92
26.63
23.69
20.41
17.21
14.52
12.76
12.25
13.07
15.02
17.68
20.48
22.88
24.48
25.07
24.67
23.36
21.3
18.61
15.38
11.69
7.66
3.39
-0.93
-5.13
-9.06
-12.68
-16.03
-19.28
-22.65
-26.39
-30.63
-35.3
-40.04
-44.13
-46.59
-46.47
-43.07
-36.35
-26.92
-15.92
-4.72
5.51
13.94
20.21
24.35
26.56
27.2
26.63
25.2
23.25
21.08
18.91
16.91
15.2
13.93
13.16
12.94
13.21
13.84
14.66
15.5
16.23
16.72
16.84
16.44
15.41
13.67
11.23
8.2
4.8
1.25
-2.22
-5.44
-8.38
-11.09
-13.72
-16.46
-19.48
-22.89
-26.68
-30.77
-34.94
-38.76
-41.6
-42.71
-41.38
-37.21
-30.24
-21.14
-10.98
-1.01
7.77
14.74
19.79
23.1
24.98
25.62
25.17
23.71
21.44
18.75
16.11
13.95
12.56
11.97
12.03
12.47
13.08
13.7
14.28
14.77
15.13
15.22
14.89
13.97
12.32
9.92
6.82
3.24
-0.54
-4.26
-7.65
-10.63
-13.24
-15.69
-18.31
-21.43
-25.29
-29.93
-35.06
-40.07
-44.04
-45.95
-44.96
-40.65
-33.23
-23.46
-12.54
-1.76
7.81
15.51
21.08
24.65
26.53
27.13
26.78
25.74
24.16
22.16
19.86
17.5
15.39
13.89
13.23
13.44
14.32
15.51
16.68
17.55
18.04
18.14
17.85
17.11
15.77
13.73
10.98
7.68
4.06
0.39
-3.16
-6.53
-9.76
-12.87
-15.85
-18.68
-21.4
-24.19
-27.33
-31.06
-35.37
-39.83
-43.63
-45.71
-45.12
-41.35
-34.51
-25.3
-14.84
-4.29
5.38
13.56
19.91
24.39
27.03
28.01
27.53
25.94
23.63
21.04
18.53
16.41
14.84
13.89
13.56
13.79
14.51
15.6
16.96
18.4
19.68
20.48
20.54
19.69
17.95
15.54
12.8
9.99
7.22
4.44
1.48
-1.75
-5.21
-8.7
-11.99
-14.98
-17.68
-20.28
-23.0
-26.05
-29.53
-33.43
-37.52
-41.37
-44.26
-45.32
-43.75
-39.09
-31.45
-21.58
-10.64
0.07
9.43
16.76
21.81
24.73
25.87
25.64
24.43
22.59
20.39
18.11
15.95
14.13
12.81
12.09
12.01
12.54
13.58
14.93
16.37
17.67
18.62
19.07
18.92
18.19
16.89
15.1
12.84
10.16
7.12
3.78
0.22
-3.44
-7.03
-10.45
-13.57
-16.36
-18.85
-21.12
-23.35
-25.75
-28.58
-31.99
-35.86
-39.72
-42.7
-43.74
-41.94
-36.9
-28.98
-19.17
-8.75
1.06
9.43
16.03
20.82
23.92
25.53
25.74
24.74
22.8
20.25
17.5
14.92
12.84
11.45
10.84
10.96
11.66
12.74
13.99
15.23
16.27
16.95
17.12
16.67
15.56
13.86
11.67
9.11
6.27
3.18
-0.14
-3.65
-7.23
-10.69
-13.86
-16.65
-19.12
-21.5
-24.14
-27.37
-31.37
-36.02
-40.83
-44.99
-47.47
-47.32
-43.98
-37.43
-28.28
-17.58
-6.59
3.57
12.08
18.55
22.9
25.29
26.01
25.46
24.06
22.17
20.11
18.11
16.33
14.95
14.12
13.97
14.52
15.65
17.09
18.48
19.48
19.82
19.42
18.34
16.74
14.8
12.68
10.47
8.17
5.7
2.99
-0.02
-3.28
-6.61
-9.81
-12.69
-15.17
-17.33
-19.43
-21.84
-24.96
-29.02
-33.99
-39.35
-44.24
-47.5
-48.05
-45.22
-38.93
-29.77
-18.87
-7.53
3.02
11.91
18.65
23.18
25.69
26.57
26.22
25.08
23.48
21.72
20.0
18.5
17.36
16.62
16.32
16.45
16.95
17.8
18.93
20.2
21.41
22.26
22.45
21.76
20.19
17.91
15.26
12.55
9.94
7.4
4.72
1.71
-1.72
-5.54
-9.51
-13.41
-17.03
-20.29
-23.26
-26.11
-29.11
-32.56
-36.61
-41.11
-45.47
-48.72
-49.68
-47.42
-41.54
-32.44
-21.2
-9.28
1.91
11.35
18.53
23.45
26.39
27.71
27.77
26.83
25.13
22.91
20.39
17.87
15.58
13.78
12.66
12.34
12.83
14.03
15.72
17.59
19.3
20.53
21.08
20.83
19.77
17.98
15.63
12.88
9.88
6.72
3.47
0.14
-3.24
-6.6
-9.91
-13.13
-16.27
-19.47
-22.87
-26.66
-30.85
-35.26
-39.39
-42.48
-43.62
-42.09
-37.54
-30.21
-20.88
-10.61
-0.52
8.51
15.88
21.34
24.86
26.55
26.65
25.47
23.38
20.75
17.93
15.22
12.87
11.07
9.97
9.63
10.0
10.93
12.22
13.66
15.04
16.2
17.01
17.35
17.17
16.46
15.23
13.51
11.32
8.65
5.51
1.94
-1.97
-6.04
-10.06
-13.85
-17.32
-20.48
-23.53
-26.76
-30.49
-34.86
-39.64
-44.17
-47.41
-48.24
-45.82
-39.9
-30.95
-20.05
-8.54
2.31
11.59
18.85
24.0
27.15
28.53
28.39
27.04
24.83
22.13
19.32
16.71
14.53
12.94
12.04
11.89
12.46
13.65
15.27
17.04
18.67
19.83
20.27
19.85
18.56
16.58
14.14
11.5
8.77
5.94
2.91
-0.41
-3.99
-7.69
-11.31
-14.7
-17.81
-20.72
-23.58
-26.59
-29.98
-33.85
-38.07
-42.18
-45.35
-46.57
-44.92
-39.96
-31.91
-21.67
-10.49
0.31
9.73
17.2
22.51
25.79
27.27
27.26
26.08
24.06
21.55
18.9
16.38
14.23
12.57
11.47
10.94
10.93
11.41
12.28
13.41
14.58
15.54
16.06
15.99
15.3
14.03
12.3
10.17
7.67
4.78
1.51
-2.0
-5.58
-9.01
-12.13
-14.91
-17.5
-20.15
-23.15
-26.7
-30.82
-35.16
-39.04
-41.5
-41.58
-38.62
-32.48
-23.75
-13.48
-2.96
6.72
14.8
20.95
25.13
27.43
28.05
27.24
25.34
22.77
19.95
17.26
14.91
13.04
11.7
10.95
10.88
11.52
12.78
14.44
16.15
17.54
18.31
18.35
17.64
16.28
14.36
11.9
8.95
5.53
1.78
-2.07
-5.78
-9.17
-12.15
-14.79
-17.24
-19.67
-22.3
-25.36
-29.04
-33.43
-38.28
-42.96
-46.47
-47.7
-45.76
-40.4
-32.09
-21.89
-11.08
-0.87
7.91
14.83
19.8
22.93
24.42
24.58
23.76
22.31
20.57
18.76
16.99
15.3
13.81
12.67
12.11
12.31
13.27
14.77
16.42
17.76
18.44
18.29
17.39
15.94
14.23
12.47
10.78
9.09
7.31
5.24
2.77
-0.13
-3.36
-6.7
-9.87
-12.68
-15.11
-17.35
-19.77
-22.78
-26.66
-31.36
-36.36
-40.78
-43.47
-43.47
-40.2
-33.72
-24.71
-14.24
-3.5
6.45
14.85
21.25
25.53
27.79
28.31
27.52
25.87
23.81
21.68
19.69
17.93
16.44
15.31
14.67
14.63
15.22
16.32
17.67
18.95
19.89
20.28
20.04
19.17
17.7
15.7
13.26
10.46
7.39
4.09
0.62
-2.98
-6.65
-10.24
-13.62
-16.73
-19.54
-22.17
-24.81
-27.7
-31.0
-34.69
-38.39
-41.37
-42.71
-41.53
-37.35
-30.28
-21.04
-10.73
-0.56
8.49
15.8
21.11
24.49
26.16
26.43
25.62
24.05
21.98
19.61
17.15
14.8
12.82
11.44
10.83
11.06
12.03
13.55
15.32
17.02
18.37
19.11
19.08
18.18
16.4
13.85
10.73
7.22
3.55
-0.15
-3.8
-7.35
-10.74
-13.89
-16.7
-19.12
-21.22
-23.19
-25.31
-27.91
-31.14
-34.87
-38.5
-41.11
-41.66
-39.3
-33.78
-25.48
-15.39
-4.82
5.03
13.26
19.46
23.61
25.98
26.89
26.67
25.59
23.87
21.76
19.53
17.43
15.68
14.4
13.64
13.39
13.6
14.27
15.33
16.63
17.89
18.75
18.91
18.16
16.58
14.37
11.82
9.17
6.5
3.8
1.01
-1.91
-4.93
-7.97
-10.93
-13.74
-16.35
-18.77
-21.03
-23.27
-25.7
-28.58
-32.07
-36.03
-39.86
-42.57
-43.08
-40.54
-34.77
-26.34
-16.36
-6.14
3.27
11.26
17.66
22.48
25.81
27.68
28.17
27.47
25.94
24.02
22.11
20.46
19.13
18.1
17.32
16.83
16.73
17.1
17.91
18.97
19.96
20.5
20.27
19.16
17.22
14.71
11.88
8.96
6.06
3.11
0.05
-3.17
-6.51
-9.83
-12.93
-15.71
-18.11
-20.28
-22.4
-24.72
-27.46
-30.76
-34.54
-38.44
-41.79
-43.7
-43.35
-40.23
-34.34
-26.27
-16.96
-7.47
1.31
8.79
14.67
18.89
21.55
22.82
22.92
22.11
20.62
18.67
16.44
14.17
12.11
10.53
9.69
9.71
10.57
12.04
13.82
15.51
16.79
17.43
17.37
16.68
15.47
13.9
12.02
9.85
7.36
4.57
1.54
-1.64
-4.87
-8.09
-11.28
-14.43
-17.59
-20.8
-24.24
-28.04
-32.27
-36.71
-40.75
-43.48
-43.92
-41.36
-35.68
-27.38
-17.46
-7.19
2.34
10.32
16.37
20.41
22.62
23.27
22.71
21.3
19.41
17.38
15.45
13.81
12.57
11.79
11.47
11.57
12.04
12.8
13.79
14.91
16.01
16.86
17.23
16.88
15.73
13.85
11.47
8.86
6.2
3.5
0.68
-2.4
-5.75
-9.24
-12.64
-15.74
-18.42
-20.76
-22.98
-25.36
-28.16
-31.45
-35.1
-38.68
-41.49
-42.69
-41.56
-37.65
-31.05
-22.36
-12.54
-2.71
6.2
13.6
19.28
23.29
25.81
27.0
26.94
25.78
23.73
21.16
18.54
16.28
14.63
13.65
13.25
13.22
13.46
13.88
14.45
15.08
15.6
15.78
15.42
14.42
12.85
10.92
8.85
6.81
4.79
2.68
0.3
-2.47
-5.58
-8.86
-12.08
-15.03
-17.68
-20.15
-22.74
-25.76
-29.48
-33.93
-38.83
-43.55
-47.16
-48.72
-47.46
-43.11
-35.97
-26.9
-17.0
-7.39
1.14
8.18
13.65
17.67
20.35
21.85
22.28
21.82
20.68
19.13
17.41
15.74
14.31
13.3
12.87
13.12
14.04
15.46
17.05
18.45
19.38
19.68
19.35
18.45
17.06
15.21
12.94
10.29
7.35
4.22
0.98
-2.33
-5.64
-8.9
-12.09
-15.26
-18.57
-22.3
-26.72
-31.81
-37.17
-41.97
-45.11
-45.59
-42.82
-36.88
-28.44
-18.59
-8.5
0.87
8.95
15.44
20.29
23.49
25.09
25.12
23.69
21.09
17.76
14.28
11.17
8.89
7.63
7.38
7.95
9.04
10.41
11.81
13.08
14.08
14.68
14.74
14.19
13.0
11.22
8.99
6.42
3.59
0.56
-2.62
-5.91
-9.21
-12.44
-15.58
-18.71
-22.01
-25.74
-30.09
-35.04
-40.24
-44.95
-48.2
-48.96
-46.53
-40.71
-31.99
-21.37
-10.13
0.53
9.73
17.03
22.34
25.78
27.54
27.85
26.99
25.34
23.28
21.2
19.34
17.85
16.74
16.01
15.65
15.69
16.07
16.67
17.29
17.76
17.93
17.79
17.34
16.56
15.38
13.68
11.34
8.37
4.88
1.07
-2.84
-6.66
-10.26
-13.55
-16.48
-19.15
-21.74
-24.57
-27.95
-32.0
-36.44
-40.6
-43.43
-43.89
-41.25
-35.41
-26.95
-16.99
-6.77
2.61
10.47
16.59
21.05
24.07
25.86
26.59
26.38
25.37
23.79
21.89
19.99
18.34
17.16
16.51
16.4
16.74
17.41
18.26
19.14
19.9
20.42
20.56
20.26
19.46
18.13
16.27
13.92
11.16
8.11
4.9
1.64
-1.61
-4.85
-8.08
-11.31
-14.58
-17.98
-21.68
-25.86
-30.55
-35.51
-40.12
-43.45
-44.57
-42.8
-37.98
-30.52
-21.28
-11.27
-1.45
7.48
15.05
21.05
25.34
27.88
28.75
28.16
26.43
24.02
21.39
18.94
16.95
15.57
14.83
14.67
15.01
15.75
16.75
17.82
18.71
19.18
19.07
18.29
16.9
15.02
12.8
10.25
7.37
4.13
0.55
-3.25
-7.09
-10.79
-14.3
-17.66
-21.07
-24.78
-29.05
-33.91
-39.09
-43.9
-47.31
-48.22
-45.83
-39.94
-31.11
-20.49
-9.47
0.69
9.19
15.7
20.24
23.04
24.33
24.41
23.55
22.07
20.29
18.5
16.92
15.69
14.85
14.46
14.54
15.08
16.05
17.32
18.64
19.76
20.41
20.51
20.06
19.15
17.88
16.25
14.16
11.51
8.27
4.51
0.45
-3.65
-7.53
-11.05
-14.14
-16.88
-19.52
-22.35
-25.72
-29.83
-34.54
-39.3
-43.19
-45.1
-44.13
-39.89
-32.62
-23.18
-12.78
-2.63
6.28
13.33
18.28
21.17
22.27
21.96
20.7
18.91
16.95
15.01
13.18
11.45
9.85
8.44
7.41
6.95
7.22
8.3
10.12
12.5
15.13
17.65
19.74
21.15
21.86
21.98
21.74
21.31
20.74
19.92
18.66
16.85
14.48
11.72
8.75
5.69
2.52
-0.88
-4.72
-9.19
-14.32
-20.0
-25.8
-30.99
-34.62
-35.74
-33.76
-28.64
-20.99
-11.92
-2.65
5.79
12.79
18.14
21.89
24.14
24.96
24.42
22.64
19.89
16.59
13.19
10.1
7.64
5.97
5.13
5.04
5.5
6.27
7.11
7.83
8.33
8.56
8.47
7.98
6.93
5.22
2.78
-0.3
-3.8
-7.43
-10.91
-14.08
-16.93
-19.58
-22.2
-25.0
-28.16
-31.8
-35.92
-40.32
-44.5
-47.61
-48.66
-46.78
-41.57
-33.31
-22.95
-11.78
-1.11
8.08
15.3
20.47
23.75
25.39
25.66
24.81
23.12
20.89
18.43
16.07
14.03
12.47
11.42
10.86
10.7
10.84
11.17
11.6
11.99
12.2
12.12
11.66
10.8
9.59
8.04
6.2
4.08
1.71
-0.86
-3.56
-6.31
-9.04
-11.69
-14.27
-16.81
-19.47
-22.48
-26.02
-30.1
-34.41
-38.25
-40.63
-40.6
-37.54
-31.42
-22.87
-13.01
-3.05
5.96
13.4
19.05
23.0
25.48
26.73
26.91
26.2
24.76
22.8
20.56
18.33
16.38
14.91
14.05
13.8
14.04
14.6
15.26
15.85
16.22
16.25
15.89
15.07
13.77
12.0
9.83
7.34
4.62
1.76
-1.15
-4.1
-7.02
-9.89
-12.67
-15.33
-17.88
-20.41
-23.11
-26.22
-29.88
-33.97
-37.96
-40.95
-41.94
-40.09
-35.12
-27.38
-17.81
-7.63
2.04
10.35
16.85
21.46
24.29
25.56
25.52
24.42
22.53
20.14
17.53
15.02
12.87
11.25
10.22
9.74
9.7
9.98
10.49
11.14
11.82
12.39
12.67
12.51
11.8
10.55
8.8
6.61
4.04
1.14
-2.01
-5.28
-8.5
-11.49
-14.13
-16.45
-18.6
-20.89
-23.64
-27.13
-31.37
-35.97
-40.14
-42.8
-42.94
-39.92
-33.72
-25.03
-14.94
-4.68
4.77
12.72
18.89
23.21
25.78
26.78
26.46
25.14
23.15
20.8
18.32
15.89
13.69
11.94
10.86
10.59
11.11
12.23
13.57
14.77
15.54
15.72
15.32
14.37
12.9
10.93
8.45
5.53
2.33
-0.95
-4.14
-7.13
-9.92
-12.61
-15.29
-18.12
-21.22
-24.74
-28.8
-33.37
-38.25
-42.89
-46.46
-47.97
-46.67
-42.24
-34.97
-25.7
-15.51
-5.44
3.73
11.51
17.66
22.07
24.71
25.7
25.32
24.0
22.21
20.33
18.63
17.23
16.18
15.54
15.38
15.73
16.54
17.66
18.89
20.01
20.86
21.34
21.4
20.92
19.77
17.85
15.13
11.81
8.27
5.04
2.54
0.94
-0.0
-0.91
-2.53
-5.61
-10.59
-17.63
-26.58
-37.03
-48.25
-59.21
-68.62
-75.07
-77.42
-75.09
-68.26
-57.83
-45.19
-31.82
-19.02
-7.69
1.66
8.89
14.09
17.49
19.41
20.22
20.27
19.88
19.32
18.78
18.4
18.28
18.51
19.14
20.17
21.46
22.83
23.99
24.72
24.94
24.68
24.07
23.17
21.96
20.31
18.08
15.24
11.84
8.07
4.12
0.15
-3.69
-7.37
-10.83
-14.1
-17.36
-20.84
-24.83
-29.37
-34.16
-38.41
-41.05
-41.04
-37.78
-31.38
-22.64
-12.78
-3.06
5.6
12.7
18.14
22.03
24.52
25.7
25.66
24.53
22.58
20.19
17.79
15.74
14.32
13.6
13.54
13.98
14.69
15.48
16.21
16.76
17.09
17.16
16.89
16.18
14.89
12.91
10.19
6.82
2.99
-1.01
-4.93
-8.56
-11.87
-14.9
-17.81
-20.82
-24.17
-28.12
-32.78
-37.94
-42.98
-46.8
-48.19
-46.19
-40.47
-31.57
-20.66
-9.19
1.56
10.77
18.08
23.47
27.02
28.88
29.21
28.28
26.43
24.03
21.46
18.97
16.79
15.07
13.94
13.51
13.8
14.7
16.01
17.44
18.69
19.52
19.78
19.41
18.42
16.84
14.7
12.06
8.96
5.52
1.81
-2.05
-5.96
-9.81
-13.5
-16.96
-20.23
-23.48
-26.99
-31.1
-35.93
-41.26
-46.33
-50.02
-51.12
-48.79
-42.81
-33.74
-22.66
-10.9
0.34
10.18
18.13
23.99
27.8
29.75
30.16
29.48
28.15
26.56
24.93
23.36
21.83
20.36
19.02
17.94
17.32
17.22
17.59
18.23
18.82
19.08
18.84
18.08
16.9
15.46
13.81
11.93
9.68
6.97
3.78
0.23
-3.47
-7.1
-10.53
-13.69
-16.64
-19.49
-22.42
-25.67
-29.5
-33.96
-38.85
-43.48
-46.83
-47.77
-45.45
-39.61
-30.71
-19.79
-8.13
3.05
12.81
20.61
26.21
29.62
31.04
30.8
29.31
26.95
24.06
20.89
17.64
14.56
11.96
10.15
9.33
9.54
10.59
12.19
13.97
15.61
16.92
17.75
17.99
17.55
16.36
14.39
11.72
8.51
4.99
1.36
-2.2
-5.64
-8.97
-12.24
-15.5
-18.83
-22.37
-26.3
-30.8
-35.85
-41.03
-45.47
-48.02
-47.57
-43.52
-36.01
-25.89
-14.48
-3.11
7.17
15.7
22.19
26.59
28.98
29.59
28.76
26.91
24.51
21.97
19.62
17.65
16.11
15.04
14.41
14.2
14.39
14.94
15.74
16.6
17.28
17.56
17.24
16.27
14.69
12.62
10.13
7.27
4.05
0.56
-3.04
-6.56
-9.83
-12.79
-15.49
-18.09
-20.77
-23.72
-27.1
-31.02
-35.42
-39.95
-43.9
-46.27
-46.03
-42.53
-35.72
-26.24
-15.28
-4.18
5.93
14.31
20.67
25.04
27.61
28.6
28.2
26.62
24.15
21.15
18.09
15.42
13.49
12.43
12.25
12.79
13.86
15.24
16.77
18.23
19.41
20.06
19.97
19.03
17.28
14.85
11.99
8.92
5.81
2.68
-0.49
-3.78
-7.17
-10.56
-13.76
-16.61
-19.04
-21.17
-23.35
-25.99
-29.44
-33.7
-38.35
-42.51
-45.02
-44.82
-41.25
-34.32
-24.69
-13.55
-2.28
7.93
16.24
22.3
26.13
27.99
28.22
27.14
25.04
22.2
18.92
15.52
12.36
9.73
7.88
6.94
6.88
7.6
8.85
10.36
11.8
12.93
13.56
13.64
13.19
12.28
10.95
9.14
6.83
4.0
