64.49
66.89
68.47
69.21
69.23
68.73
67.79
66.41
64.5
62.0
58.91
55.21
50.86
45.74
39.76
32.97
25.69
18.44
11.67
5.47
-0.58
-7.23
-14.97
-23.52
-31.5
-36.75
-37.04
-31.15
-19.59
-4.59
10.57
22.83
30.41
33.25
32.56
29.89
26.32
22.14
17.15
11.24
4.69
-2.04
-8.7
-15.66
-23.69
-33.38
-44.4
-55.4
-64.38
-69.55
-70.04
-66.02
-58.47
-48.52
-37.14
-25.08
-13.05
-1.89
7.57
14.76
19.6
22.44
23.72
23.55
21.6
17.33
10.4
1.24
-8.88
-18.06
-24.41
-26.59
-24.15
-17.38
-7.07
5.69
19.63
33.32
45.21
54.03
59.17
60.91
60.35
58.83
57.33
56.02
54.2
50.81
45.09
37.02
27.48
17.93
10.14
5.83
6.56
13.51
27.13
46.7
70.14
94.2
115.12
129.6
135.54
132.48
121.49
104.75
85.06
65.41
48.5
36.41
30.15
29.47
32.94
38.35
43.3
45.86
44.93
40.52
33.7
26.32
20.52
18.02
19.67
25.04
32.69
40.52
46.49
49.11
47.77
42.8
35.17
26.18
17.07
8.72
1.52
-4.46
-9.33
-13.13
-15.72
-16.89
-16.54
-14.84
-12.34
-9.86
-8.27
-8.24
-9.97
-13.13
-17.03
-20.93
-24.46
-27.78
-31.5
-36.21
-41.9
-47.86
-52.8
-55.58
-55.72
-53.71
-50.63
-47.63
-45.26
-43.22
-40.5
-35.72
-27.45
-14.44
4.14
28.51
57.83
89.88
121.0
146.68
162.57
165.63
154.9
131.52
98.07
57.54
12.6
-34.58
-81.93
-126.85
-165.95
-195.5
-212.57
-216.29
-208.55
-193.66
-177.07
-163.54
-155.91
-154.74
-159.01
-167.23
-178.22
-191.23
-205.46
-219.7
-232.38
-242.07
-247.94
-249.85
-247.97
-242.21
-232.11
-217.23
-197.69
-174.47
-149.24
-123.64
-98.66
-74.38
-50.3
-25.9
-1.11
23.67
47.92
71.43
94.33
116.66
137.59
154.94
165.47
166.02
155.04
133.78
106.13
77.18
51.17
30.02
13.13
-1.41
-15.16
-28.38
-40.22
-49.86
-57.62
-65.26
-75.24
-89.46
-108.32
-130.51
-153.65
-175.35
-193.98
-208.92
-220.39
-228.92
-235.0
-238.8
-240.08
-238.22
-232.31
-221.45
-205.02
-182.95
-155.78
-124.45
-90.21
-54.33
-18.16
16.74
48.63
75.78
96.77
111.02
118.89
121.63
120.93
118.44
115.34
112.27
109.38
106.57
103.7
100.75
97.88
95.37
93.5
92.34
91.68
90.98
89.51
86.64
82.06
75.94
68.8
61.3
53.98
47.05
40.35
33.54
26.16
17.84
8.29
-2.45
-13.92
-25.02
-34.11
-39.27
-38.91
-32.32
-20.07
-3.81
14.16
31.62
46.91
59.22
68.32
74.31
77.35
77.66
75.58
71.7
66.8
61.74
57.2
53.51
50.67
48.47
46.72
45.36
44.52
44.37
44.96
46.06
47.15
47.54
46.57
43.86
39.48
33.85
27.63
21.44
15.57
9.97
4.26
-2.13
-9.75
-18.89
-29.4
-40.52
-50.84
-58.52
-61.71
-59.07
-50.33
-36.33
-18.88
-0.21
17.66
33.31
46.03
55.67
62.34
66.21
67.5
66.53
63.81
60.08
56.17
52.84
50.48
49.12
48.43
47.96
47.42
46.78
46.3
46.27
46.75
47.42
47.59
46.52
43.66
38.95
32.76
25.78
18.74
12.22
6.44
1.36
-3.39
-8.31
-13.94
-20.66
-28.45
-36.66
-44.02
-48.85
-49.53
-45.04
-35.38
-21.56
-5.31
11.38
26.85
40.02
50.34
57.68
62.12
63.84
63.15
60.53
56.63
52.16
47.76
43.86
40.65
38.11
36.1
34.49
33.28
32.5
32.25
32.49
32.97
33.21
32.57
30.5
26.72
21.37
15.0
8.36
2.22
-2.96
-7.14
-10.66
-14.2
-18.43
-23.88
-30.6
-38.02
-44.96
-49.81
-51.0
-47.49
-39.19
-27.15
-13.15
0.74
12.83
22.17
28.64
32.71
35.11
36.43
37.08
37.23
36.92
36.23
35.32
34.41
33.68
33.23
32.99
32.83
32.6
32.25
31.84
31.44
31.05
30.46
29.36
27.35
24.18
19.81
14.54
8.93
3.61
-0.89
-4.35
-6.91
-9.04
-11.36
-14.39
-18.44
-23.5
-29.18
-34.77
-39.29
-41.63
-40.88
-36.5
-28.63
-18.05
-5.94
6.39
17.85
27.65
35.36
40.74
43.74
44.45
43.12
40.22
36.31
31.97
27.73
23.99
20.97
18.79
17.45
16.88
16.95
17.52
18.48
19.66
20.92
21.98
22.53
22.22
20.83
18.3
14.81
10.71
6.35
2.04
-2.1
-6.12
-10.16
-14.43
-19.15
-24.41
-30.07
-35.67
-40.33
-42.97
-42.64
-38.87
-31.96
-22.85
-12.85
-3.25
5.01
11.45
15.9
18.46
19.32
18.81
17.32
15.31
13.19
11.21
9.48
7.96
6.66
5.6
4.8
4.29
4.0
3.9
3.91
4.0
4.13
4.12
3.7
2.59
0.58
-2.28
-5.67
-9.13
-12.25
-14.87
-17.18
-19.6
-22.66
-26.73
-31.86
-37.65
-43.26
-47.48
-49.02
-46.89
-40.73
-31.02
-18.95
-6.13
5.91
16.11
23.94
29.34
32.47
33.51
32.63
30.09
26.28
21.82
17.32
13.3
10.02
7.48
5.55
4.07
2.98
2.3
2.1
2.39
3.11
4.05
4.97
5.62
5.79
5.36
4.34
2.79
0.86
-1.3
-3.54
-5.77
-7.96
-10.24
-12.82
-15.99
-19.94
-24.58
-29.39
-33.44
-35.6
-34.92
-30.99
-24.1
-15.18
-5.51
3.69
11.5
17.46
21.45
23.55
23.96
22.89
20.58
17.35
13.57
9.66
6.03
3.05
0.92
-0.32
-0.79
-0.7
-0.21
0.57
1.59
2.84
4.16
5.29
5.88
5.62
4.35
2.11
-0.83
-4.14
-7.51
-10.74
-13.75
-16.61
-19.45
-22.53
-26.07
-30.23
-34.95
-39.77
-43.84
-46.07
-45.45
-41.45
-34.24
-24.67
-13.99
-3.49
5.86
13.53
19.37
23.38
25.65
26.25
25.28
22.99
19.77
16.07
12.38
9.05
6.31
4.32
3.08
2.57
2.71
3.35
4.35
5.54
6.75
7.75
8.31
8.16
7.1
5.08
2.27
-1.04
-4.49
-7.81
-10.92
-13.92
-17.03
-20.56
-24.76
-29.77
-35.47
-41.4
-46.68
-50.21
-50.89
-47.99
-41.48
-31.97
-20.7
-9.04
1.74
10.8
17.79
22.72
25.83
27.44
27.85
27.35
26.21
24.73
23.2
21.86
20.9
20.41
20.37
20.74
21.39
22.26
23.25
24.32
25.38
26.24
26.74
26.7
26.1
25.08
23.94
23.07
22.77
23.2
24.28
25.75
27.33
28.78
29.9
30.64
31.02
31.25
31.84
33.6
37.57
44.76
55.82
70.86
89.36
110.32
132.4
154.21
174.26
190.95
202.61
207.63
204.9
194.18
176.37
153.34
127.44
100.9
75.41
51.91
30.77
11.95
-4.8
-19.91
-34.01
-47.84
-62.06
-77.0
-92.54
-108.07
-122.79
-135.95
-147.2
-156.58
-164.49
-171.5
-178.17
-185.0
-192.43
-200.86
-210.6
-221.83
-234.39
-247.63
-260.42
-271.3
-278.68
-281.24
-278.06
-268.81
-253.67
-233.33
-208.85
-181.55
-152.82
-123.91
-95.75
-68.85
-43.36
-19.16
3.83
25.54
45.72
64.04
80.35
94.87
108.22
121.3
134.97
149.75
165.73
182.54
199.56
216.09
231.43
244.9
255.9
263.89
268.55
269.71
267.23
260.84
249.99
234.06
212.81
186.84
157.77
127.97
99.86
75.08
54.0
35.82
19.06
2.36
-15.02
-32.93
-50.55
-66.68
-80.05
-89.47
-94.02
-93.17
-87.13
-77.04
-64.99
-53.6
-45.4
-41.94
-43.26
-47.79
-52.8
-55.39
-53.33
-45.8
-33.53
-18.44
-2.96
10.76
21.41
28.73
33.31
36.17
38.18
39.68
40.31
39.1
34.85
26.48
13.49
-3.78
-24.09
-45.56
-66.1
-83.92
-98.16
-109.01
-117.55
-125.09
-132.36
-138.91
-143.2
-143.28
-137.86
-127.08
-112.62
-97.05
-82.81
-71.36
-62.97
-57.02
-52.46
-48.19
-43.13
-36.24
-26.76
-14.62
-0.73
13.1
24.67
32.15
34.49
31.46
23.42
11.09
-4.3
-20.77
-35.57
-45.68
-48.77
-44.16
-33.26
-19.11
-5.28
5.18
10.5
10.28
5.16
-3.66
-14.78
-26.68
-37.91
-47.2
-53.67
-56.91
-57.0
-54.5
-50.26
-45.41
-41.13
-38.42
-37.71
-38.65
-40.07
-40.4
-38.32
-33.39
-26.26
-18.32
-10.93
-4.82
0.27
5.18
10.66
16.73
22.54
26.74
28.31
27.09
24.03
20.81
19.22
20.72
26.12
35.48
47.82
60.89
71.19
74.5
67.12
47.35
16.47
-21.62
-61.91
-100.38
-135.22
-166.57
-194.94
-219.72
-238.58
-248.61
-248.06
-237.74
-220.88
-201.45
-182.43
-164.68
-147.48
-129.82
-111.64
-94.03
-78.42
-65.48
-54.59
-44.09
-32.26
-18.11
-1.91
14.95
30.34
42.15
48.95
50.57
48.27
44.44
41.6
41.43
44.09
48.32
52.31
54.81
55.75
56.05
56.97
59.23
62.65
66.44
69.7
71.87
72.87
72.79
71.6
69.16
65.22
59.67
52.6
44.26
34.85
24.51
13.41
1.92
-9.15
-18.57
-24.9
-26.9
-23.92
-16.25
-5.09
7.71
20.15
30.6
38.13
42.6
44.47
44.41
43.04
40.89
38.43
36.13
34.51
33.94
34.49
35.86
37.49
38.8
39.46
39.5
39.32
39.39
40.05
41.25
42.54
43.27
42.71
40.41
36.33
30.86
24.68
18.55
13.01
8.23
3.96
-0.29
-5.07
-10.77
-17.51
-24.96
-32.46
-38.98
-43.29
-44.25
-41.13
-33.88
-23.16
-10.29
3.19
15.88
26.79
35.4
41.57
45.35
46.89
46.5
44.58
41.76
38.66
35.83
33.63
32.12
31.2
30.6
30.18
29.87
29.73
29.86
30.28
30.83
31.19
30.91
29.55
26.86
22.86
17.85
12.36
6.88
1.83
-2.6
-6.44
-9.91
-13.36
-17.15
-21.5
-26.35
-31.16
-34.89
-36.26
-34.13
-27.89
-17.8
-4.96
9.01
22.47
34.18
43.47
50.24
54.64
56.94
57.41
56.34
54.12
51.24
48.22
45.5
43.37
41.93
41.12
40.8
40.84
41.12
41.52
41.89
42.05
41.82
41.04
39.64
37.72
35.41
32.81
29.99
26.89
23.42
19.66
15.89
12.47
9.84
8.46
8.88
11.71
17.4
25.95
36.67
48.27
59.18
68.15
74.61
78.75
81.2
82.6
83.3
83.38
82.84
81.77
80.36
78.71
76.67
73.84
69.77
64.25
57.52
50.14
43.07
37.31
33.64
32.44
33.57
36.42
40.13
43.83
46.88
49.04
50.4
51.28
52.08
53.14
54.67
56.75
59.37
62.42
65.82
69.47
73.35
77.45
81.8
86.44
91.47
97.1
103.71
111.97
122.75
137.02
155.57
178.54
204.95
232.34
256.84
273.97
279.89
272.82
253.71
226.04
194.53
163.25
134.4
107.96
82.33
55.62
26.61
-5.32
-40.56
-79.42
-121.23
-163.28
-200.7
-227.93
-241.26
-240.86
-230.81
-216.89
-203.39
-191.07
-177.6
-160.09
-137.91
-113.85
-92.86
-79.33
-74.8
-77.42
-83.3
-88.63
-91.24
-90.74
-87.85
-83.56
-78.49
-72.54
-65.3
-56.53
-46.53
-36.26
-27.12
-20.44
-16.86
-16.05
-16.9
-18.05
-18.61
-18.49
-18.28
-18.76
-20.37
-22.9
-25.6
-27.54
-28.07
-27.2
-25.58
-24.34
-24.63
-27.22
-32.2
-38.83
-45.85
-51.81
-55.65
-57.01
-56.4
-55.07
-54.52
-56.09
-60.36
-66.86
-74.11
-79.99
-82.39
-80.04
-72.92
-62.33
-50.35
-39.09
-30.06
-23.85
-20.37
-19.31
-20.45
-23.77
-29.25
-36.57
-45.05
-53.81
-61.98
-69.02
-74.68
-78.82
-81.24
-81.59
-79.5
-74.9
-68.33
-60.98
-54.57
-50.7
-50.3
-53.13
-57.88
-62.7
-66.04
-67.32
-67.13
-66.73
-67.45
-69.95
-74.08
-79.01
-83.58
-86.6
-87.03
-84.17
-77.88
-68.83
-58.53
-48.83
-41.21
-36.06
-32.42
-28.58
-23.08
-15.65
-7.48
-0.68
2.86
2.53
-0.6
-4.07
-5.07
-1.31
8.28
23.48
43.17
65.72
89.25
111.78
131.17
145.4
152.91
153.07
146.42
134.48
119.2
102.31
84.69
66.33
46.58
24.79
1.1
-23.17
-45.47
-62.66
-71.96
-71.98
-63.25
-48.11
-29.92
-12.08
2.93
13.87
20.66
23.92
24.56
23.51
21.61
19.51
17.71
16.47
15.82
15.59
15.53
15.4
15.06
14.41
13.51
12.47
11.49
10.77
10.49
10.67
11.23
11.95
12.55
12.76
12.43
11.46
9.93
7.92
5.5
2.64
-0.72
-4.64
-9.02
-13.65
-18.14
-22.15
-25.4
-27.77
-29.26
-29.9
-29.79
-29.06
-27.95
-26.78
-25.9
-25.58
-25.94
-26.91
-28.28
-29.9
-31.69
-33.72
-36.14
-39.06
-42.4
-45.88
-49.07
-51.65
-53.63
-55.42
-57.77
-61.47
-67.0
-74.23
-82.43
-90.6
-97.79
-103.67
-108.56
-113.38
-119.23
-127.09
-137.65
-150.99
-166.36
-181.74
-193.83
-198.62
-192.64
-174.55
-146.04
-111.67
-77.34
-48.23
-27.12
-13.9
-6.51
-2.41
0.17
1.9
2.84
3.18
3.64
5.27
8.81
14.43
21.67
29.77
38.19
46.75
55.54
64.51
73.28
81.05
86.84
89.94
90.11
87.77
83.73
78.91
73.91
68.77
62.98
55.73
46.31
34.48
20.66
6.0
-7.78
-18.69
-24.94
-25.42
-20.13
-10.15
2.6
16.0
28.19
37.96
44.64
47.96
47.87
44.59
38.8
31.64
24.54
18.74
14.89
12.88
12.11
11.9
11.88
12.11
12.88
14.44
16.73
19.3
21.38
22.24
21.36
18.7
14.6
9.58
4.08
-1.86
-8.71
-17.23
-28.14
-41.7
-57.3
-73.42
-87.83
-98.14
-102.35
-99.47
-89.63
-74.1
-54.86
-34.23
-14.4
2.89
16.52
26.01
31.51
33.63
33.16
31.0
27.88
24.38
20.93
17.84
15.33
13.52
12.47
12.15
12.53
13.56
15.1
16.91
18.6
19.66
19.66
18.34
15.76
12.19
8.04
3.69
-0.66
-5.06
-9.88
-15.73
-23.25
-32.86
-44.28
-56.27
-66.71
-73.04
-73.06
-65.73
-51.54
-32.38
-10.88
10.33
29.26
44.71
56.2
63.61
67.04
66.76
63.28
57.36
49.95
42.0
34.23
27.05
20.59
14.88
9.94
5.95
3.16
1.74
1.59
2.27
3.15
3.53
2.99
1.51
-0.59
-2.89
-5.02
-6.93
-8.83
-11.08
-14.09
-18.17
-23.47
-29.83
-36.52
-42.27
-45.4
-44.15
-37.35
-24.89
-7.95
11.38
30.6
47.63
61.18
70.89
76.99
80.02
80.51
78.97
75.91
71.89
67.5
63.22
59.34
55.97
53.18
51.06
49.83
49.68
50.63
52.36
54.19
55.23
54.7
52.12
47.56
41.48
34.61
27.58
20.79
14.27
7.65
0.31
-8.4
-18.84
-30.65
-42.49
-52.18
-57.18
-55.4
-45.98
-29.7
-8.76
13.88
35.35
53.49
67.17
76.14
80.75
81.69
79.82
76.07
71.32
66.26
61.3
56.62
52.21
48.13
44.6
42.01
40.77
41.16
43.04
45.8
48.41
49.53
47.86
42.47
33.08
20.18
5.01
-10.92
-26.21
-39.94
-51.88
-62.35
-71.84
-80.57
-88.15
-93.5
-95.14
-91.61
-82.06
-66.64
-46.53
-23.78
-0.75
20.41
38.14
51.62
60.74
65.85
67.56
66.59
63.69
59.52
54.64
49.45
44.24
39.27
34.81
31.16
28.67
27.5
27.6
28.58
29.78
30.41
29.79
27.64
24.05
19.51
14.61
9.87
5.47
1.21
-3.44
-9.26
-16.93
-26.73
-38.03
-49.27
-58.11
-62.17
-59.83
-50.97
-36.99
-20.32
-3.52
11.57
24.06
33.92
41.41
46.68
49.67
50.28
48.61
45.08
40.36
35.09
29.79
24.84
20.52
17.16
15.1
14.58
15.54
17.55
19.92
21.94
23.12
23.32
22.79
21.86
20.8
19.63
18.19
16.17
13.25
9.11
3.6
-3.09
-10.26
-16.5
-19.98
-18.78
-11.61
1.68
19.92
40.87
61.85
80.42
95.04
105.27
111.72
115.75
118.96
122.67
127.56
133.44
139.31
143.75
145.38
143.22
136.86
126.37
112.19
94.95
75.45
54.58
33.3
12.4
-7.59
-26.5
-44.47
-61.87
-79.1
-96.53
-114.43
-132.78
-151.07
-168.12
-182.08
-190.83
-192.66
-186.89
-174.25
-156.52
-135.97
-114.58
-93.62
-73.68
-55.08
-38.25
-23.94
-13.01
-6.12
-3.36
-4.12
-7.31
-11.65
-15.98
-19.45
-21.61
-22.33
-21.83
-20.57
-19.18
-18.25
-18.17
-19.01
-20.47
-22.03
-23.18
-23.62
-23.47
-23.23
-23.71
-25.75
-29.89
-36.01
-43.18
-49.76
-53.72
-53.29
-47.53
-36.69
-22.14
-5.96
9.69
23.1
33.28
39.95
43.23
43.48
41.09
36.47
30.19
22.89
15.37
8.43
2.8
-1.03
-2.92
-3.06
-2.03
-0.63
0.31
0.21
-1.08
-3.3
-5.94
-8.59
-11.22
-14.19
-18.07
-23.4
-30.24
-38.17
-46.31
-53.58
-58.94
-61.48
-60.59
-55.92
-47.58
-36.19
-22.9
-9.12
3.84
15.13
24.5
32.09
38.06
42.32
44.37
43.64
39.79
33.08
24.34
14.68
5.2
-3.3
-10.42
-15.98
-19.9
-22.11
-22.58
-21.5
-19.36
-16.86
-14.86
-14.12
-15.1
-17.94
-22.44
-28.16
-34.46
-40.65
-45.84
-49.07
-49.47
-46.4
-39.71
-29.91
-18.03
-5.37
6.81
17.63
26.64
33.76
39.12
42.85
45.0
45.54
44.45
41.77
37.74
32.83
27.69
23.02
19.4
17.12
16.08
15.92
16.1
16.21
16.0
15.39
14.39
13.01
11.15
8.69
5.5
1.45
-3.5
-9.38
-16.0
-22.85
-28.99
-33.14
-33.97
-30.61
-23.02
-12.14
0.32
12.46
22.7
30.16
34.72
36.69
36.55
34.65
31.21
26.47
20.85
15.01
9.73
5.65
3.09
1.9
1.61
1.62
1.48
1.03
0.33
-0.46
-1.31
-2.4
-4.03
-6.55
-10.12
-14.77
-20.39
-26.84
-33.8
-40.69
-46.54
-50.0
-49.77
-45.04
-35.98
-23.84
-10.54
1.81
11.7
18.43
22.14
23.43
23.09
21.75
19.92
17.95
16.1
14.57
13.5
12.99
13.12
13.92
15.34
17.26
19.5
21.88
24.34
26.85
29.36
31.63
33.23
33.66
32.56
29.93
26.1
21.61
17.05
12.98
10.07
9.18
11.4
17.76
28.83
44.29
62.92
82.9
102.34
119.89
134.95
147.62
158.34
167.52
175.4
182.03
187.45
191.98
196.3
201.52
208.91
219.36
232.78
247.65
261.01
269.22
269.14
259.22
240.07
214.08
184.33
153.4
122.67
92.33
62.06
31.71
1.5
-28.2
-57.27
-85.76
-113.5
-139.59
-162.48
-180.52
-192.73
-199.41
-201.87
-201.84
-200.74
-199.38
-198.03
-196.55
-194.32
-190.03
-181.78
-167.54
-146.13
-118.11
-85.8
-52.58
-21.82
3.93
22.96
34.44
38.49
36.26
29.94
22.05
14.29
6.6
-2.82
-16.25
-34.78
-57.26
-80.55
-101.14
-116.91
-128.04
-136.6
-145.06
-154.66
-164.52
-171.85
-173.18
