40.72
35.79
31.3
27.92
26.1
25.94
27.23
29.57
32.5
35.54
38.27
40.21
41.0
40.48
38.84
36.66
34.71
33.58
33.41
33.82
34.05
33.35
31.3
27.92
23.52
18.38
12.38
4.97
-4.68
-17.27
-32.73
-49.9
-66.43
-79.27
-85.47
-83.27
-72.68
-55.6
-35.13
-14.6
3.35
17.32
27.01
32.81
35.27
34.83
31.75
26.27
18.75
9.74
0.07
-9.25
-17.14
-22.61
-25.05
-24.33
-20.85
-15.43
-9.08
-2.76
2.73
6.81
9.1
9.32
7.33
3.13
-3.09
-10.81
-19.29
-27.65
-35.05
-40.99
-45.5
-49.12
-52.81
-57.68
-64.8
-74.81
-87.59
-101.87
-115.2
-124.15
-125.25
-116.1
-96.34
-67.95
-34.71
-1.01
29.46
54.42
73.17
85.99
93.49
96.15
94.29
88.25
78.67
66.63
53.47
40.62
29.34
20.52
14.6
11.53
10.9
12.14
14.61
17.8
21.32
24.79
27.77
29.7
29.96
27.92
23.27
16.06
6.85
-3.43
-13.7
-23.09
-31.18
-38.13
-44.57
-51.39
-59.51
-69.71
-82.34
-97.1
-112.65
-126.53
-135.44
-136.07
-126.28
-105.96
-77.31
-44.15
-10.75
19.47
44.59
64.14
78.55
88.42
94.12
95.84
93.85
88.74
81.46
73.14
64.81
57.25
50.85
45.77
42.05
39.71
38.69
38.84
39.79
41.01
41.84
41.68
40.16
37.06
32.38
26.2
18.66
10.05
0.75
-8.71
-17.88
-26.43
-34.39
-42.07
-50.13
-59.31
-70.3
-83.39
-98.08
-112.76
-124.71
-130.66
-127.65
-114.2
-90.99
-60.8
-27.72
4.16
31.82
53.75
69.83
80.62
86.81
88.91
87.32
82.53
75.34
66.73
57.77
49.31
41.95
35.95
31.33
28.04
26.01
25.18
25.46
26.65
28.39
30.16
31.33
31.24
29.38
25.44
19.5
11.94
3.42
-5.31
-13.61
-21.22
-28.22
-35.04
-42.26
-50.53
-60.44
-72.33
-86.08
-100.64
-113.89
-122.78
-124.13
-115.71
-97.16
-70.34
-38.8
-6.67
22.52
46.58
64.79
77.39
85.07
88.49
88.22
84.8
78.83
71.06
62.29
53.36
45.02
37.88
32.4
28.81
27.09
27.01
28.17
30.13
32.38
34.47
35.99
36.54
35.79
33.46
29.37
23.49
16.03
7.39
-1.91
-11.31
-20.43
-29.08
-37.34
-45.46
-53.86
-63.1
-73.77
-86.19
-99.96
-113.49
-124.04
-128.24
-123.22
-107.7
-82.69
-51.23
-17.42
14.77
42.55
64.53
80.48
90.73
95.73
95.96
92.03
84.76
75.22
64.52
53.69
43.47
34.38
26.8
20.99
17.13
15.24
15.16
16.48
18.66
21.06
23.1
24.34
24.51
23.55
21.49
18.38
14.23
8.97
2.53
-5.04
-13.5
-22.39
-31.22
-39.6
-47.44
-55.05
-63.17
-72.69
-84.18
-97.36
-110.74
-121.57
-126.48
-122.6
-108.61
-85.35
-55.7
-23.63
7.06
33.6
54.7
70.21
80.57
86.34
88.02
86.05
81.09
73.94
65.52
56.74
48.34
40.88
34.79
30.38
27.91
27.43
28.74
31.38
34.64
37.77
40.17
41.49
41.57
40.37
37.8
33.68
27.87
20.44
11.69
2.18
-7.45
-16.76
-25.56
-33.97
-42.32
-51.09
-60.88
-72.26
-85.52
-100.14
-114.48
-125.72
-130.51
-126.04
-111.21
-87.18
-57.11
-25.15
4.82
30.24
50.06
64.41
73.94
79.29
80.88
79.08
74.39
67.56
59.48
51.07
43.11
36.18
30.68
26.86
24.8
24.37
25.23
26.89
28.83
30.55
31.66
31.85
30.81
28.23
23.89
17.76
10.09
1.38
-7.72
-16.7
-25.24
-33.33
-41.22
-49.32
-58.18
-68.49
-80.82
-95.28
-111.0
-125.87
-136.78
-140.38
-134.26
-117.86
-92.93
-62.94
-32.12
-4.2
18.36
34.55
44.47
48.78
48.25
43.53
35.23
23.98
10.58
-4.08
-19.13
-33.81
-47.64
-60.39
-72.06
-82.79
-92.79
-102.27
-111.48
-120.65
-129.95
-139.53
-149.46
-159.76
-170.48
-181.69
-193.51
-205.95
-218.81
-231.5
-242.98
-251.82
-256.38
-255.22
-247.52
-233.51
-214.7
-193.65
-173.33
-156.1
-142.87
-132.64
-122.78
-109.98
-91.37
-65.52
-32.79
4.78
44.17
82.08
115.66
142.97
163.28
176.9
184.91
188.69
189.53
188.51
186.5
184.34
182.87
182.77
184.25
186.89
189.78
191.93
192.77
192.29
191.01
189.53
188.14
186.68
184.69
181.77
177.68
172.43
166.0
158.23
148.91
137.95
125.7
113.01
100.9
90.15
80.84
72.23
62.93
51.57
37.37
20.76
3.48
-11.76
-22.12
-25.44
-21.01
-9.75
6.16
23.97
41.18
56.05
67.73
76.16
81.62
84.51
85.08
83.51
79.92
74.57
67.91
60.5
52.87
45.31
37.82
30.28
22.71
15.5
9.41
5.28
3.58
4.26
6.61
9.64
12.46
14.5
15.63
15.96
15.7
14.91
13.49
11.2
7.72
2.7
-4.3
-13.53
-24.95
-37.87
-50.78
-61.47
-67.51
-66.99
-59.18
-44.74
-25.54
-4.01
17.6
37.67
55.29
70.05
81.69
89.92
94.49
95.34
92.91
88.08
82.05
75.96
70.57
66.08
62.22
58.52
54.65
50.58
46.57
42.87
39.46
35.93
31.61
25.86
18.34
9.19
-1.03
-11.51
-21.45
-30.3
-37.82
-44.17
-49.88
-55.72
-62.52
-71.02
-81.48
-93.43
-105.58
-116.0
-122.54
-123.61
-118.57
-108.0
-93.35
-76.44
-58.87
-41.84
-26.08
-12.17
-0.67
7.91
13.3
15.65
15.56
13.91
11.58
9.21
7.14
5.45
4.15
3.26
2.95
3.39
4.69
6.8
9.35
11.67
12.97
12.52
9.95
5.36
-0.74
-7.6
-14.52
-20.98
-26.79
-32.04
-37.03
-42.17
-48.03
-55.05
-63.37
-72.48
-81.13
-87.49
-89.76
-86.75
-78.31
-65.39
-49.65
-32.82
-16.22
-0.62
13.61
26.27
37.13
45.93
52.41
56.53
58.43
58.35
56.61
53.54
49.48
44.7
39.43
33.87
28.25
22.95
18.48
15.4
14.06
14.34
15.56
16.68
16.67
14.89
11.37
6.63
1.43
-3.63
-8.38
-13.11
-18.38
-24.79
-32.72
-42.15
-52.49
-62.57
-70.8
-75.51
-75.36
-69.77
-59.16
-44.75
-28.25
-11.37
4.52
18.47
29.99
38.87
45.11
48.85
50.37
50.04
48.28
45.49
41.99
38.04
33.82
29.53
25.37
21.61
18.57
16.59
15.84
16.27
17.45
18.72
19.34
18.82
17.06
14.3
11.02
7.61
4.26
0.85
-3.02
-7.77
-13.85
-21.49
-30.53
-40.3
-49.51
-56.5
-59.64
-57.87
-51.07
-40.09
-26.45
-11.79
2.59
15.85
27.53
37.29
44.75
49.52
51.35
50.34
46.98
42.09
36.55
31.11
26.19
21.91
18.18
14.95
12.33
10.59
10.09
10.91
12.8
15.08
16.85
17.3
16.01
13.04
8.83
3.92
-1.28
-6.64
-12.3
-18.55
-25.73
-34.14
-43.95
-55.0
-66.67
-77.78
-86.67
-91.6
-91.27
-85.26
-74.2
-59.49
-42.87
-25.87
-9.55
5.45
18.74
29.93
38.67
44.69
48.05
49.15
48.63
47.2
45.4
43.49
41.5
39.4
37.14
34.9
32.95
31.51
30.69
30.33
30.08
29.49
28.16
25.8
22.31
17.76
12.33
6.27
-0.14
-6.62
-12.99
-19.19
-25.32
-31.64
-38.49
-46.1
-54.38
-62.74
-70.03
-74.71
-75.33
-70.94
-61.47
-47.8
-31.45
-14.14
2.66
17.92
31.06
41.76
49.84
55.25
58.04
58.47
56.95
53.96
49.97
45.35
40.44
35.44
30.61
26.22
22.51
19.72
17.92
17.05
16.87
17.01
17.06
16.68
15.53
13.41
10.18
5.83
0.56
-5.26
-11.1
-16.54
-21.34
-25.56
-29.52
-33.66
-38.35
-43.82
-50.05
-56.74
-63.24
-68.53
-71.39
-70.63
-65.51
-56.08
-43.25
-28.5
-13.49
0.4
12.34
21.98
29.28
34.31
37.12
37.86
36.75
34.22
30.8
27.05
23.43
20.21
17.52
15.31
13.5
12.03
10.95
10.35
10.37
11.0
12.02
13.03
13.46
12.83
10.83
7.48
3.05
-2.05
-7.4
-12.72
-17.85
-22.82
-27.69
-32.58
-37.66
-43.11
-48.98
-55.02
-60.54
-64.48
-65.56
-62.78
-55.71
-44.7
-30.78
-15.32
0.26
14.86
27.7
38.3
46.4
51.83
54.62
54.95
53.25
50.09
46.09
41.78
37.51
33.49
29.84
26.64
24.01
22.09
20.91
20.42
20.45
20.75
21.05
21.11
20.76
19.85
18.27
16.0
13.06
9.58
5.68
1.52
-2.79
-7.17
-11.59
-16.07
-20.73
-25.83
-31.69
-38.57
-46.4
-54.63
-62.14
-67.45
-69.18
-66.51
-59.4
-48.67
-35.63
-21.73
-8.18
4.13
14.68
23.2
29.58
33.86
36.21
36.87
36.14
34.33
31.79
28.86
25.85
23.08
20.79
19.11
18.13
17.84
18.24
19.26
20.74
22.47
24.15
25.5
26.31
26.48
26.04
25.08
23.74
22.1
20.23
18.13
15.82
13.3
10.54
7.47
3.87
-0.53
-5.97
-12.57
-20.08
-27.89
-35.01
-40.28
-42.68
-41.58
-36.94
-29.27
-19.48
-8.65
2.27
12.49
21.49
28.83
34.25
37.58
38.79
38.05
35.66
32.0
27.5
22.54
17.57
13.08
9.52
7.3
6.59
7.24
8.78
10.6
12.1
12.91
12.88
12.08
10.57
8.31
5.14
0.85
-4.63
-11.1
-18.13
-25.11
-31.51
-37.05
-41.74
-45.88
-49.87
-54.18
-59.08
-64.61
-70.37
-75.47
-78.65
-78.55
-74.15
-65.15
-52.16
-36.53
-19.92
-3.84
10.79
23.65
34.85
44.59
52.87
59.36
63.62
65.23
64.14
60.73
55.72
49.96
44.13
38.61
33.43
28.43
23.41
18.24
12.91
7.4
1.68
-4.26
-10.4
-16.62
-22.74
-28.56
-33.9
-38.61
-42.59
-45.77
-48.15
-49.85
-51.13
-52.38
-54.05
-56.53
-60.07
-64.68
-70.02
-75.35
-79.6
-81.52
-80.06
-74.62
-65.3
-52.84
-38.41
-23.31
-8.7
4.57
15.94
25.15
32.07
36.75
39.31
39.98
39.08
37.01
34.16
30.94
27.65
24.51
21.64
19.13
17.07
15.51
14.51
14.06
14.05
14.27
14.48
14.4
13.79
12.44
10.24
7.23
3.57
-0.51
-4.72
-8.9
-13.02
-17.17
-21.58
-26.44
-31.97
-38.31
-45.39
-52.81
-59.74
-64.93
-67.02
-64.93
-58.3
-47.63
-34.13
-19.41
-4.94
8.15
19.24
28.05
34.5
38.62
40.58
40.64
39.17
36.6
33.3
29.6
25.73
21.93
18.4
15.37
13.0
11.33
10.34
9.91
9.94
10.32
10.9
11.47
11.75
11.44
10.29
8.21
5.37
2.01
-1.53
-5.03
-8.42
-11.77
-15.25
-19.03
-23.27
-28.16
-33.84
-40.3
-47.19
-53.67
-58.47
-60.16
-57.68
-50.74
-39.93
-26.63
-12.42
1.28
13.56
23.92
32.15
38.11
41.69
42.84
41.72
38.77
34.57
29.77
24.91
20.36
16.33
12.88
10.06
7.84
6.24
5.25
4.85
4.96
5.48
6.2
6.87
7.14
6.68
5.23
2.73
-0.65
-4.56
-8.57
-12.43
-16.1
-19.81
-23.92
-28.83
-34.82
-41.99
-50.08
-58.39
-65.67
-70.39
-71.02
-66.62
-57.17
-43.69
-27.9
-11.68
3.48
16.69
27.63
36.29
42.62
46.52
47.88
46.77
43.53
38.79
33.27
27.62
22.33
17.64
13.62
10.29
7.63
5.67
4.4
3.81
3.76
4.05
4.4
4.48
3.98
2.66
0.38
-2.81
-6.69
-10.96
-15.31
-19.58
-23.78
-28.08
-32.79
-38.2
-44.54
-51.89
-59.93
-67.91
-74.61
-78.48
-78.12
-72.71
-62.31
-47.89
-31.06
-13.52
3.33
18.52
31.55
42.09
49.99
55.13
57.6
57.69
55.85
52.67
48.69
44.38
40.08
36.06
32.5
29.56
27.37
26.01
25.5
25.7
26.38
27.16
27.59
27.26
25.87
23.34
19.7
15.14
9.91
4.28
-1.46
-7.12
-12.59
-17.94
-23.36
-29.19
-35.77
-43.24
-51.37
-59.37
-65.93
-69.4
-68.28
-61.69
-49.74
-33.52
-14.84
4.31
22.21
37.64
49.99
59.03
64.81
67.53
67.54
65.3
61.38
56.38
50.85
45.25
39.93
35.12
30.94
27.44
24.61
22.39
20.75
19.62
18.86
18.24
17.4
15.98
13.63
10.22
5.81
0.71
-4.69
-9.99
-14.96
-19.56
-23.93
-28.38
-33.24
-38.87
-45.52
-53.2
-61.47
-69.32
-75.27
-77.65
-75.13
-67.17
-54.28
-37.84
-19.74
-1.76
14.77
29.07
40.76
49.66
55.61
58.47
58.21
55.11
49.78
43.1
36.08
29.63
24.31
20.29
17.39
15.3
13.75
12.68
12.14
12.2
12.7
13.25
13.29
12.27
9.87
6.06
1.18
-4.29
-9.9
-15.32
-20.5
-25.65
-31.19
-37.55
-45.09
-53.87
-63.48
-72.89
-80.61
-84.93
-84.42
-78.33
-66.88
-51.23
-33.13
-14.48
3.04
18.22
30.4
39.31
44.99
47.66
47.68
45.55
41.82
37.05
31.79
26.52
21.66
17.53
14.27
11.93
10.4
9.58
9.35
9.67
10.48
11.66
12.87
13.65
13.43
11.8
8.6
4.0
-1.57
-7.61
-13.73
-19.75
-25.71
-31.83
-38.43
-45.88
-54.49
-64.28
-74.81
-84.96
-92.97
-96.86
-95.01
-86.76
-72.63
-54.23
-33.69
-13.1
5.93
22.42
35.91
46.23
53.35
57.38
58.57
57.36
54.36
50.24
45.7
41.33
37.52
34.51
32.38
31.1
30.62
30.84
31.61
32.69
33.7
34.24
33.96
32.64
30.21
26.76
22.41
17.36
11.8
5.93
-0.08
-6.07
-11.98
-17.83
-23.79
-30.09
-37.04
-44.92
-53.78
-63.24
-72.35
-79.63
-83.32
-81.91
-74.72
-62.06
-45.26
-26.24
-6.95
11.03
26.64
39.35
48.94
55.33
58.59
58.91
56.7
52.54
47.14
41.17
35.25
29.87
25.31
21.73
19.16
17.54
16.76
16.73
17.37
18.53
20.0
21.43
22.37
22.33
20.92
17.92
13.41
7.72
1.33
-5.24
-11.63
-17.72
-23.65
-29.75
-36.44
-44.17
-53.19
-63.37
-73.98
-83.68
-90.64
-93.0
-89.46
-79.69
-64.53
-45.76
-25.59
-6.09
11.27
25.66
36.85
44.94
50.14
52.7
52.85
50.88
47.21
42.4
37.13
32.07
27.79
24.57
22.48
21.43
21.24
21.75
22.77
24.12
25.59
26.96
28.07
28.73
28.78
27.98
26.09
22.91
18.45
12.97
6.97
0.91
-4.9
-10.44
-16.0
-22.0
-28.86
-36.78
-45.6
-54.66
-62.68
-67.98
-68.81
-63.9
-52.84
-36.35
-16.15
5.56
26.62
45.36
60.75
72.31
79.96
83.86
84.34
81.94
77.36
71.35
64.61
57.66
50.9
44.62
39.12
34.66
31.47
29.59
28.79
28.61
28.55
28.11
27.02
25.22
22.79
19.82
16.37
12.47
8.18
3.65
-0.98
-5.6
-10.25
-15.11
-20.48
-26.68
-33.99
-42.58
-52.41
-62.99
-73.32
-81.78
-86.56
-86.09
-79.64
-67.65
-51.6
-33.5
-15.33
1.49
16.2
28.47
38.18
45.2
49.35
50.57
49.02
45.16
39.64
33.2
26.51
20.06
14.18
9.09
4.96
2.02
0.49
0.56
2.19
5.07
8.59
11.96
14.44
15.48
14.98
13.18
10.6
7.78
5.04
2.44
-0.29
-3.53
-7.7
-13.12
-20.0
-28.29
-37.62
-47.11
-55.35
-60.63
-61.38
-56.68
-46.68
-32.55
-16.13
0.61
16.09
29.32
39.81
47.44
52.17
54.06
53.28
50.21
45.4
39.49
33.09
26.72
20.74
15.44
11.02
7.64
5.38
4.28
4.23
5.1
6.61
8.4
10.0
10.86
10.51
8.64
5.25
0.64
-4.74
-10.38
-15.96
-21.4
-26.81
-32.5
-38.83
-46.13
-54.46
-63.39
-71.85
-78.14
-80.39
-77.15
-67.91
-53.4
-35.33
-15.83
3.12
20.15
34.5
45.88
54.15
59.26
61.22
60.28
56.91
51.78
45.65
39.15
32.8
26.94
21.75
17.41
14.04
11.76
10.69
10.84
12.05
13.88
15.69
16.71
16.34
14.28
10.7
6.11
1.16
-3.67
-8.15
-12.41
-16.8
-21.8
-27.88
-35.37
-44.31
-54.29
-64.29
-72.74
-77.74
-77.66
-71.59
-59.71
-43.27
-24.22
-4.64
13.72
29.65
42.54
52.11
58.31
61.2
61.03
58.23
53.48
47.58
41.27
35.1
29.32
23.93
18.85
14.06
9.79
6.45
4.5
4.17
5.32
7.4
9.57
10.98
11.06
9.63
6.89
3.3
-0.64
-4.61
-8.52
-12.56
-17.12
-22.71
-29.76
-38.39
-48.17
-58.01
-66.27
-71.1
-70.98
-65.25
-54.31
-39.42
-22.38
-5.05
11.05
24.78
35.46
42.73
46.55
47.14
44.99
40.79
35.3
29.29
23.37
17.91
13.06
8.77
5.0
1.76
-0.76
-2.28
-2.61
-1.83
-0.4
0.93
1.4
0.52
-1.81
-5.26
-9.29
-13.4
-17.34
-21.16
-25.15
-29.77
-35.47
-42.59
-51.06
-60.24
-68.84
-75.02
-76.95
-73.3
-63.82
-49.46
-32.02
-13.6
3.98
19.51
32.36
42.27
49.11
52.83
53.57
51.7
47.88
42.83
37.27
31.62
26.1
20.76
15.64
10.88
6.77
3.7
1.96
1.63
2.42
3.71
4.67
4.51
2.78
-0.48
-4.86
-9.74
-14.58
-19.11
-23.37
-27.62
-32.25
-37.63
-43.95
-51.14
-58.63
-65.33
-69.76
-70.39
-66.15
-56.82
-43.14
-26.59
-9.01
7.91
22.87
35.07
44.12
49.94
52.68
52.64
50.32
46.32
41.34
35.99
30.73
25.88
21.56
17.79
14.6
12.06
10.26
9.24
8.88
8.82
8.51
7.42
5.21
1.9
-2.19
-6.54
-10.71
-14.49
-17.99
-21.6
-25.84
-31.23
-38.14
-46.57
-55.98
-65.18
-72.46
-75.99
-74.33
-66.96
-54.46
-38.33
-20.54
-2.98
12.9
26.26
36.7
44.16
48.71
50.58
50.11
47.85
44.41
40.39
36.22
32.08
27.92
23.63
19.2
14.86
11.05
8.27
6.82
6.6
7.05
7.4
6.87
5.01
1.83
-2.29
-6.79
-11.16
-15.23
-19.1
-23.2
-28.06
-34.15
-41.61
-50.02
-58.36
-65.03
-68.26
-66.61
-59.46
-47.26
-31.44
-13.92
3.39
19.06
32.23
42.56
49.96
54.43
56.09
55.12
51.92
47.06
41.18
34.88
28.63
22.74
17.39
12.74
8.91
6.09
4.41
3.81
4.01
4.46
4.47
3.47
1.21
-2.2
-6.27
-10.45
-14.36
-17.98
-21.63
-25.84
-31.14
-37.84
-45.81
-54.34
-62.1
-67.36
-68.41
-64.05
-54.08
-39.41
-21.83
-3.44
13.83
28.66
40.35
48.71
53.83
55.97
55.5
52.91
48.76
43.64
38.02
32.29
26.69
21.45
16.74
12.78
9.75
7.69
6.51
5.9
5.42
4.58
3.03
0.62
-2.48
-5.95
-9.41
-12.69
-15.9
-19.52
-24.18
-30.43
-38.38
-47.41
-56.14
-62.7
-65.19
-62.23
-53.51
-39.86
-23.09
-5.38
11.2
25.22
36.01
43.55
48.2
50.44
50.73
49.42
46.84
43.28
39.03
34.36
29.5
24.65
20.0
15.73
12.03
9.04
6.77
5.15
3.94
2.78
1.33
-0.7
-3.43
-6.8
-10.67
-14.85
-19.3
-24.16
-29.74
-36.31
-43.85
-51.81
-58.96
-63.59
-64.04
-59.22
-49.01
-34.4
-17.18
0.6
17.15
31.29
42.47
50.63
55.96
58.65
58.87
56.84
52.86
47.37
40.89
33.98
27.09
20.62
14.88
10.16
6.61
4.3
3.04
2.47
2.02
1.21
-0.3
-2.57
-5.47
-8.82
-12.47
-16.4
-20.75
-25.77
-31.73
-38.87
-47.05
-55.58
-63.17
-68.08
-68.63
-63.71
-53.23
-38.21
-20.48
-2.15
14.95
29.51
40.89
48.84
53.39
54.8
53.44
49.86
44.7
38.6
32.09
25.58
19.38
13.81
9.21
5.92
4.1
3.68
4.26
5.19
5.8
5.54
4.2
1.85
-1.21
-4.67
-8.31
-12.07
-16.1
-20.73
-26.37
-33.46
-42.12
-51.93
-61.61
-69.23
-72.61
-70.11
-61.23
-46.84
-28.9
-9.83
8.27
23.98
36.64
46.07
52.29
55.46
55.88
54.05
50.67
46.48
42.04
37.61
33.23
28.85
24.48
20.3
16.59
13.69
11.79
10.85
10.61
10.61
10.31
9.25
7.18
4.09
0.23
-4.05
-8.44
-12.9
-17.65
-23.25
-30.28
-39.1
-49.46
-60.31
-69.89
-76.08
-77.03
-71.72
-60.35
-44.29
-25.63
-6.62
10.95
25.94
37.92
46.84
52.78
55.88
56.31
54.44
50.84
46.23
41.26
36.39
31.8
27.5
23.46
19.76
16.66
14.49
13.45
13.58
14.51
15.6
16.03
15.08
12.29
7.72
1.87
-4.49
-10.6
-15.98
-20.6
-24.81
-29.25
-34.58
-41.27
-49.38
-58.34
-66.88
-73.18
-75.28
-71.69
-61.92
-46.72
-27.89
-7.79
11.41
28.12
41.52
51.35
57.72
60.85
61.11
58.96
55.08
50.25
45.24
40.62
36.64
33.3
30.38
27.66
25.05
22.69
20.82
19.71
19.37
19.55
19.67
19.03
17.04
13.45
8.45
2.57
-3.58
-9.57
-15.3
-20.97
-26.97
-33.67
-41.29
-49.91
-59.37
-69.09
-77.96
-84.38
-86.56
-83.05
-73.4
-58.35
-39.71
-19.75
-0.56
16.41
30.46
41.4
49.27
54.12
56.02
55.18
52.1
47.5
42.24
37.09
32.56
28.86
25.99
23.79
22.16
21.01
20.34
20.18
20.43
20.86
21.03
20.37
18.35
14.67
9.37
2.87
-4.11
-10.86
-16.86
-22.04
-26.7
-31.41
-36.84
-43.5
-51.6
-60.82
-70.19
-78.15
-82.75
-82.19
-75.41
-62.5
-44.77
-24.41
-3.81
15.0
30.75
42.9
51.4
56.5
58.53
57.94
55.26
51.16
46.29
41.25
36.48
32.3
28.88
26.29
24.52
23.43
22.83
22.51
22.32
22.18
22.05
21.89
21.52
20.66
18.94
16.04
11.83
6.48
0.36
-6.02
-12.27
-18.17
-23.82
-29.54
-35.76
-42.87
-51.09
-60.26
-69.69
-78.1
-83.76
-84.94
-80.43
-70.0
-54.56
-35.91
-16.18
2.75
19.59
33.67
44.71
52.65
57.5
59.38
58.59
55.66
51.25
46.03
40.67
35.67
31.44
28.24
26.12
24.93
24.38
24.19
24.12
24.07
23.97
23.75
23.18
22.01
19.98
16.98
13.04
8.36
3.23
-2.12
-7.56
-13.03
-18.55
-24.13
-29.86
-35.88
-42.49
-49.97
-58.38
-67.28
-75.51
-81.35
-82.92
-78.81
-68.63
-53.22
-34.44
-14.54
4.39
20.93
34.42
44.77
52.2
56.92
59.14
59.02
56.78
52.82
47.68
41.97
36.28
31.1
26.77
23.48
21.2
19.87
19.27
19.2
19.45
19.77
19.97
19.73
18.78
16.85
13.78
9.64
4.67
-0.72
-6.13
-11.31
-16.18
-20.89
-25.66
-30.79
-36.57
-43.36
-51.35
-60.41
-69.75
-77.9
-82.87
-82.75
-76.46
-64.11
-47.11
-27.68
-8.15
9.58
24.45
36.13
44.71
50.42
53.49
54.14
52.65
49.46
45.15
40.31
35.49
31.15
27.53
24.76
22.8
21.53
20.81
20.52
20.6
20.94
21.4
21.69
21.44
20.22
17.69
13.75
8.55
2.48
-3.95
-10.21
-15.99
-21.16
-25.87
-30.45
-35.39
-41.2
-48.33
-56.91
-66.51
-75.97
-83.48
-86.92
-84.6
-75.77
-61.03
-42.17
-21.6
-1.7
15.79
29.95
40.61
47.97
52.41
54.29
54.0
51.99
48.81
44.99
40.99
37.12
33.55
30.34
27.57
25.34
23.82
23.1
23.13
23.7
24.43
24.93
24.88
24.12
22.63
20.47
17.71
14.38
10.42
5.73
0.37
-5.48
-11.45
-17.13
-22.24
-26.75
-30.95
-35.38
-40.64
-47.21
-55.22
-64.21
-73.04
-80.02
-83.2
-80.98
-72.59
-58.52
-40.37
-20.39
-0.86
16.48
30.71
41.6
49.29
54.04
56.1
55.76
53.45
49.75
45.36
40.89
36.75
33.12
30.03
27.5
25.63
24.57
24.4
25.04
26.15
27.24
27.82
27.6
26.58
24.93
22.88
20.47
17.56
13.85
9.05
3.11
-3.76
-11.1
-18.43
-25.36
-31.74
-37.66
-43.46
-49.63
-56.59
-64.51
-73.0
-80.96
-86.69
-88.29
-84.35
-74.42
-59.37
-41.03
-21.69
-3.39
12.47
25.23
34.74
41.06
44.29
44.55
42.12
37.39
30.89
23.12
14.57
5.64
-3.2
-11.47
-18.66
-24.34
-28.27
-30.39
-30.78
-29.54
-26.8
-22.73
-17.61
-11.84
-5.94
-0.37
4.62
9.09
13.35
17.77
22.58
27.75
32.91
37.64
41.77
45.52
49.48
54.4
60.88
69.34
80.09
93.54
110.3
130.8
154.84
181.15
207.52
231.4
250.71
264.14
271.06
270.93
263.07
246.91
222.8
192.67
160.08
129.28
103.66
84.55
71.0
60.46
50.13
38.06
23.53
6.87
-10.93
-28.69
-45.35
-60.16
-72.75
-82.97
-90.8
-96.21
-99.34
-100.72
-101.46
-103.14
-107.37
-115.03
-125.79
-138.12
-149.83
-158.88
-164.13
-165.55
-163.99
-160.81
-157.58
-155.6
-155.44
-156.36
-155.94
-150.61
-136.91
-113.05
-80.1
-42.0
-4.28
27.96
51.69
66.49
73.82
75.7
73.47
67.52
57.8
44.67
29.49
14.38
1.6
-7.32
-11.96
-12.93
-11.33
-8.3
-4.59
-0.67
3.09
6.24
8.16
8.24
6.07
1.61
-4.76
-12.46
-20.82
-29.3
-37.51
-45.18
-52.12
-58.2
-63.35
-67.72
-71.69
-75.73
-80.25
-85.14
-89.55
-91.9
-90.22
-82.86
-69.16
-49.79
-26.69
-2.48
20.31
39.8
55.1
66.07
72.95
76.01
75.36
71.18
63.96
54.56
44.17
33.96
24.7
16.59
9.36
2.56
-4.05
-10.33
-15.8
-19.87
-22.26
-23.19
-23.48
-24.33
-26.97
-32.16
-39.97
-49.68
-60.08
-69.9
-78.29
-84.93
-90.05
-94.13
-97.84
-101.87
-106.92
-113.46
-121.34
-129.37
-135.34
-136.56
-130.8
-117.23
-96.84
-72.03
-45.75
-20.51
2.09
21.4
37.26
49.73
58.89
65.06
68.88
71.3
73.21
75.17
77.18
78.8
79.52
79.04
77.61
75.94
75.0
75.55
77.69
80.58
82.54
81.45
75.48
63.82
47.04
27.01
6.29
-12.62
-28.1
-39.77
-48.51
-56.07
-64.5
-75.47
-89.73
-106.61
-123.96
-138.51
-146.66
-145.55
-134.02
-112.95
-85.06
-54.03
-23.51
3.63
25.69
42.02
52.78
58.61
60.47
59.48
56.8
53.38
49.8
46.16
42.18
37.49
32.03
26.3
21.35
18.54
18.99
23.16
30.54
39.64
48.33
54.39
56.02
52.33
43.56
30.96
16.36
1.64
-11.92
-23.93
-34.85
-45.6
-57.06
-69.66
-83.14
-96.54
-108.19
-115.93
-117.48
-111.04
-95.91
-72.96
-44.59
-14.07
15.35
41.28
62.51
78.96
91.04
99.15
103.36
103.4
99.0
90.11
77.19
61.23
43.68
26.36
11.24
0.13
-5.54
-5.13
1.05
11.65
24.53
37.19
47.34
53.39
54.71
51.63
45.16
36.54
26.81
16.55
5.77
-5.89
-18.83
-33.29
-49.14
-65.97
-83.07
-99.39
-113.41
-123.17
-126.5
-121.7
-108.17
-86.89
-60.26
-31.38
-3.24
22.05
43.3
60.02
72.02
79.17
81.46
79.34
73.69
65.77
56.92
48.16
39.99
32.52
25.65
19.29
13.56
8.77
5.34
3.57
3.47
4.73
6.7
8.54
9.44
8.86
6.66
3.08
-1.44
-6.43
-11.66
-17.12
-23.09
-29.91
-37.91
-47.31
-58.11
-69.95
-82.03
-92.94
-100.87
-103.97
-100.93
-91.41
-76.33
-57.52
-37.23
-17.5
0.21
15.09
26.75
35.08
40.06
41.86
40.94
37.97
33.72
28.93
24.13
19.69
15.9
13.0
11.25
10.83
11.81
14.11
17.57
21.96
26.99
32.25
37.17
41.01
43.03
42.75
40.08
35.37
29.3
22.57
15.65
8.71
1.61
-6.02
-14.61
-24.46
-35.62
-47.66
-59.56
-69.68
-76.06
-76.9
-71.1
-58.74
-41.09
-20.24
1.43
21.83
39.48
53.59
63.9
70.49
73.6
73.6
70.95
66.19
59.92
52.79
45.44
38.48
32.44
27.72
24.56
23.06
23.12
24.53
26.93
29.86
32.84
35.33
36.85
36.96
35.41
32.11
27.2
21.02
14.06
6.83
-0.26
-7.03
-13.64
-20.52
-28.31
-37.58
-48.59
-60.94
-73.39
-83.98
-90.41
-90.68
-83.71
-69.71
-50.15
-27.38
-3.97
17.82
36.42
51.02
61.42
67.8
70.63
70.51
68.14
64.28
59.59
54.57
49.48
44.39
39.32
