53.94
78.76
99.03
114.63
125.48
131.55
133.03
130.4
124.44
116.0
105.92
95.0
84.06
73.86
64.98
57.66
51.64
46.4
41.39
36.4
31.65
27.54
24.23
21.49
18.65
15.04
10.4
4.97
-0.62
-5.87
-10.74
-15.67
-21.31
-28.21
-36.6
-46.5
-57.94
-71.13
-86.22
-102.83
-119.54
-133.78
-142.29
-142.08
-131.54
-111.16
-83.53
-52.62
-22.59
3.25
23.04
36.41
43.91
46.55
45.24
40.71
33.5
24.14
13.34
2.1
-8.32
-16.53
-21.31
-21.94
-18.48
-11.82
-3.5
4.68
11.09
14.58
14.69
11.7
6.55
0.63
-4.65
-8.26
-9.88
-10.04
-9.87
-10.6
-13.23
-18.18
-25.41
-34.6
-45.48
-58.01
-72.32
-88.34
-105.33
-121.57
-134.3
-140.36
-137.09
-123.32
-100.0
-69.98
-37.18
-5.4
22.58
45.38
62.69
74.83
82.15
84.94
83.58
78.69
71.3
62.6
53.74
45.61
38.64
32.92
28.35
24.79
22.23
20.8
20.71
22.01
24.45
27.36
29.76
30.63
29.2
25.16
18.73
10.59
1.58
-7.54
-16.26
-24.46
-32.4
-40.65
-49.98
-61.07
-74.2
-88.88
-103.47
-115.4
-121.58
-119.33
-107.29
-86.04
-58.0
-26.82
3.72
30.66
52.33
68.31
78.92
84.75
86.35
84.24
79.03
71.66
63.24
54.9
47.46
41.24
36.12
31.75
27.9
24.62
22.24
21.17
21.56
23.08
24.89
25.82
24.57
20.28
12.63
2.09
-10.29
-23.13
-35.17
-45.75
-55.08
-64.27
-74.96
-88.75
-106.42
-127.39
-149.52
-169.48
-183.67
-189.38
-185.7
-173.92
-157.08
-138.99
-122.97
-110.87
-102.71
-96.99
-91.45
-83.97
-73.21
-59.09
-42.67
-25.73
-10.31
2.0
10.44
15.31
17.8
19.56
22.14
26.6
33.24
41.67
50.99
60.12
67.84
73.01
74.7
72.32
65.92
56.25
44.61
32.55
21.22
10.97
1.15
-9.54
-22.51
-38.57
-57.36
-77.15
-95.08
-107.75
-112.02
-105.83
-88.73
-62.03
-28.38
8.96
46.98
83.43
116.93
146.79
172.52
193.75
210.12
221.44
227.86
229.81
227.89
222.76
215.12
205.78
195.7
185.93
177.42
170.87
166.42
163.75
162.18
160.86
158.97
155.85
151.07
144.55
136.51
127.39
117.58
107.11
95.47
81.68
64.75
44.14
20.08
-6.47
-34.25
-62.16
-89.27
-114.59
-136.53
-152.79
-160.88
-159.01
-147.23
-127.67
-103.99
-80.18
-59.24
-42.49
-29.75
-20.08
-12.59
-6.86
-2.81
-0.41
0.63
0.91
1.11
1.72
2.88
4.4
5.93
7.23
8.32
9.48
11.23
14.09
18.31
23.79
29.86
35.38
38.92
39.06
34.81
26.03
13.48
-1.3
-16.48
-30.61
-43.01
-54.02
-64.65
-75.93
-88.31
-101.16
-112.79
-120.85
-123.06
-117.94
-105.26
-86.18
-62.91
-38.08
-14.1
7.25
24.99
38.71
48.38
54.25
56.73
56.43
54.2
50.86
47.02
42.89
38.21
32.45
25.06
15.88
5.33
-5.53
-15.22
-22.35
-26.08
-26.49
-24.61
-22.05
-20.44
-20.83
-23.39
-27.42
-31.78
-35.3
-37.29
-37.67
-36.88
-35.71
-35.11
-36.08
-39.39
-45.27
-53.01
-60.84
-66.19
-66.52
-60.19
-47.12
-28.81
-7.68
13.79
33.74
51.16
65.62
76.91
84.84
89.27
90.37
88.8
85.61
82.01
79.0
77.14
76.41
76.34
76.12
75.02
72.58
68.82
64.16
59.16
54.13
48.94
43.06
35.89
27.24
17.53
7.7
-1.17
-8.38
-13.87
-18.24
-22.42
-27.27
-33.32
-40.72
-49.22
-58.31
-67.11
-74.4
-78.78
-78.94
-74.18
-64.72
-51.76
-37.12
-22.71
-9.93
0.6
9.06
16.04
22.2
27.93
33.26
38.08
42.23
45.67
48.42
50.5
51.8
52.19
51.62
50.27
48.59
47.09
46.08
45.5
44.87
43.52
40.88
36.66
30.97
24.2
16.97
9.93
3.71
-1.28
-4.92
-7.5
-9.66
-12.3
-16.29
-22.26
-30.26
-39.65
-48.99
-56.25
-59.29
-56.5
-47.36
-32.8
-14.83
4.05
21.74
36.97
49.35
58.99
66.12
70.85
73.33
74.01
73.73
73.47
73.96
75.22
76.47
76.39
73.76
68.13
60.15
51.43
44.08
39.84
39.46
42.34
46.67
50.04
50.26
46.09
37.61
26.12
13.63
2.15
-6.92
-13.22
-17.32
-20.54
-24.48
-30.73
-40.4
-53.78
-70.04
-87.03
-101.55
-110.13
-110.23
-101.32
-85.33
-66.24
-48.79
-36.93
-32.69
-35.87
-44.6
-56.36
-68.94
-80.97
-91.92
-101.81
-110.94
-119.66
-128.45
-137.85
-148.43
-160.44
-173.62
-186.93
-198.68
-206.99
-210.35
-208.34
-201.77
-192.48
-182.74
-174.41
-168.43
-164.68
-162.29
-160.11
-157.23
-153.31
-148.74
-144.48
-141.84
-142.07
-145.93
-153.34
-163.08
-172.78
-179.26
-179.09
-169.4
-148.59
-116.75
-75.59
-28.14
22.06
71.59
117.69
158.46
192.87
220.56
241.77
257.14
267.66
274.46
278.68
281.26
282.91
284.02
284.78
285.22
285.29
284.96
284.22
283.16
281.84
280.21
277.99
274.62
269.28
261.08
249.3
233.78
214.98
193.83
171.41
148.56
125.66
102.67
79.37
55.51
30.93
5.44
-20.99
-48.05
-74.73
-99.13
-118.69
-131.03
-134.72
-130.0
-118.68
-103.42
-86.75
-70.29
-54.44
-38.77
-22.75
-6.52
8.91
21.82
30.52
34.14
33.08
28.89
23.73
19.48
17.18
16.75
17.26
17.41
15.99
12.09
5.2
-4.85
-17.78
-32.66
-47.85
-61.09
-69.98
-72.62
-68.34
-58.13
-44.47
-30.59
-19.49
-12.93
-11.07
-12.83
-16.73
-21.72
-27.52
-34.26
-41.75
-48.87
-53.6
-53.65
-47.52
-35.17
-18.1
1.33
20.73
38.52
53.95
66.9
77.29
84.87
89.28
90.39
88.61
84.88
80.39
76.03
72.12
68.2
63.35
56.7
47.87
37.28
26.04
15.6
7.28
1.77
-1.04
-2.03
-2.52
-3.8
-6.7
-11.43
-17.59
-24.54
-31.69
-38.76
-45.8
-53.1
-60.9
-69.28
-77.98
-86.43
-93.84
-99.25
-101.75
-100.58
-95.33
-86.03
-73.25
-57.93
-41.2
-24.12
-7.53
7.94
21.79
33.46
42.38
48.0
50.1
48.88
45.08
39.73
33.92
28.41
23.55
19.24
15.16
10.98
6.57
2.07
-2.23
-6.06
-9.3
-12.1
-14.75
-17.6
-20.81
-24.4
-28.19
-32.05
-35.92
-39.96
-44.42
-49.62
-55.74
-62.85
-70.81
-79.24
-87.51
-94.64
-99.5
-100.99
-98.39
-91.52
-80.86
-67.46
-52.57
-37.43
-23.05
-10.21
0.52
8.76
14.37
17.52
18.75
18.84
18.57
18.49
18.78
19.28
19.8
20.3
21.03
22.41
24.81
28.23
32.27
36.14
39.03
40.31
39.84
37.94
35.24
32.41
29.84
27.54
25.22
22.37
18.55
13.41
6.88
-0.86
-9.28
-17.44
-24.05
-27.85
-28.07
-24.85
-19.3
-13.2
-8.22
-5.23
-4.1
-3.96
-3.9
-3.63
-3.63
-4.92
-8.45
-14.51
-22.67
-31.86
-40.88
-48.71
-54.79
-58.89
-61.1
-61.7
-61.08
-59.74
-58.23
-57.11
-56.81
-57.49
-59.05
-61.09
-63.13
-64.73
-65.7
-66.19
-66.62
-67.59
-69.59
-72.67
-76.25
-79.1
-79.56
-76.08
-67.8
-54.87
-38.53
-20.57
-2.69
13.96
28.97
42.39
54.22
64.17
71.67
76.11
77.29
75.54
71.72
66.97
62.48
59.4
58.6
60.71
66.01
74.29
84.85
96.52
107.73
116.63
121.4
120.71
114.21
102.81
88.44
73.57
60.32
49.97
42.77
38.2
35.32
33.13
30.69
27.21
22.26
16.04
9.55
4.3
1.82
2.88
7.01
12.58
17.35
19.23
16.78
9.5
-2.35
-17.79
-35.47
-53.74
-71.0
-86.12
-98.81
-109.75
-120.26
-131.65
-144.35
-157.29
-168.0
-173.31
-170.51
-158.44
-137.88
-111.23
-81.6
-51.82
-23.85
1.32
23.47
42.64
58.97
72.36
82.37
88.23
89.17
84.9
76.13
64.77
53.48
44.85
40.64
41.35
46.49
55.12
66.41
79.81
94.86
110.86
126.74
141.32
153.72
163.72
171.81
178.78
185.08
190.29
193.09
191.76
185.09
173.04
156.98
139.08
121.37
104.97
89.81
75.02
59.7
43.45
26.5
9.54
-6.56
-20.8
-32.29
-40.45
-45.58
-49.26
-54.22
-63.64
-79.88
-103.43
-132.44
-163.02
-190.44
-210.47
-220.41
-219.58
-209.08
-191.25
-168.88
-144.63
-120.72
-98.87
-80.29
-65.73
-55.46
-49.23
-46.27
-45.45
-45.61
-45.92
-45.96
-45.78
-45.61
-45.6
-45.67
-45.53
-44.8
-43.2
-40.64
-37.33
-33.72
-30.43
-28.1
-27.21
-27.93
-29.97
-32.74
-35.53
-37.8
-39.43
-40.74
-42.36
-44.98
-49.15
-55.07
-62.52
-70.81
-78.73
-84.68
-86.99
-84.31
-76.09
-62.81
-45.88
-27.21
-8.66
8.33
22.92
34.81
43.93
50.37
54.25
55.8
55.33
53.19
49.8
45.55
40.81
35.92
31.24
27.15
23.92
21.77
20.72
20.66
21.3
22.22
22.88
22.74
21.39
18.69
14.79
10.08
5.04
0.09
-4.63
-9.25
-14.11
-19.74
-26.6
-34.94
-44.52
-54.51
-63.41
-69.35
-70.63
-66.2
-56.1
-41.47
-24.09
-5.94
11.39
26.88
39.98
50.44
58.1
62.83
64.66
63.88
61.01
56.78
51.9
46.89
42.04
37.45
33.06
28.92
25.18
22.15
20.18
19.42
19.73
20.62
21.32
21.06
19.3
15.94
11.22
5.67
-0.16
-5.85
-11.24
-16.38
-21.52
-27.02
-33.31
-40.73
-49.3
-58.51
-67.22
-73.75
-76.32
-73.64
-65.35
-52.2
-35.82
-18.18
-1.1
14.17
26.93
36.95
44.21
48.76
50.75
50.44
48.29
44.85
40.73
36.45
32.33
28.5
24.97
21.75
18.93
16.76
15.54
15.48
16.46
18.0
19.34
19.69
18.49
15.68
11.57
6.76
1.81
-2.93
-7.45
-12.01
-17.02
-22.97
-30.22
-38.97
-48.94
-59.27
-68.48
-74.67
-76.09
-71.71
-61.64
-47.11
-30.11
-12.69
3.59
17.83
29.79
39.47
46.86
51.84
54.27
54.15
51.81
47.84
42.99
37.92
33.08
28.68
24.8
21.51
18.96
17.36
16.85
17.36
18.49
19.61
20.02
19.15
16.73
12.9
8.02
2.57
-3.02
-8.49
-13.79
-19.05
-24.56
-30.72
-37.92
-46.28
-55.51
-64.57
-71.91
-75.7
-74.48
-67.65
-55.7
-40.07
-22.69
-5.35
10.59
24.36
35.67
44.41
50.54
54.08
55.17
54.13
51.42
47.61
43.17
38.5
33.81
29.27
24.99
21.14
17.92
15.53
14.1
13.58
13.68
13.91
13.68
12.46
10.0
6.39
2.09
-2.3
-6.3
-9.73
-12.78
-15.89
-19.55
-24.16
-29.93
-36.89
-44.72
-52.71
-59.61
-63.83
-63.87
-58.81
-48.76
-34.88
-19.07
-3.33
10.79
22.49
31.63
38.43
43.1
45.78
46.52
45.45
42.94
39.55
35.9
32.47
29.5
26.98
24.76
22.74
20.97
19.71
19.21
19.57
20.54
21.58
21.98
21.12
18.69
14.82
9.99
4.84
-0.09
-4.54
-8.59
-12.61
-17.13
-22.64
-29.49
-37.71
-46.85
-55.89
-63.35
-67.55
-67.1
-61.36
-50.72
-36.54
-20.75
-5.27
8.49
19.8
28.49
34.74
38.76
40.68
40.65
38.87
35.76
31.78
27.44
23.12
19.04
15.33
12.17
9.78
8.47
8.5
9.86
12.26
15.04
17.37
18.47
17.83
15.44
11.71
7.28
2.77
-1.47
-5.46
-9.51
-14.1
-19.71
-26.6
-34.77
-43.71
-52.39
-59.32
-62.87
-61.76
-55.47
-44.54
-30.39
-14.86
0.3
13.88
25.26
34.33
41.17
45.85
48.38
48.8
47.27
44.18
40.08
35.62
31.39
27.82
25.12
23.27
22.12
21.45
21.09
20.91
20.86
20.89
20.86
20.53
19.62
17.85
15.11
11.46
7.18
2.65
-1.8
-6.0
-9.96
-13.83
-17.87
-22.41
-27.8
-34.33
-42.05
-50.49
-58.55
-64.61
-66.95
-64.36
-56.58
-44.46
-29.69
-14.19
0.35
12.93
23.14
31.01
36.72
40.45
42.37
42.67
41.61
39.47
36.54
33.15
29.63
26.39
23.83
22.29
21.88
22.46
23.67
25.07
26.27
27.04
27.28
26.93
25.86
23.88
20.81
16.7
11.78
6.56
1.54
-2.97
-6.98
-10.75
-14.66
-18.98
-23.83
-29.19
-34.99
-41.16
-47.49
-53.49
-58.26
-60.61
-59.29
-53.47
-43.1
-29.02
-12.78
3.73
18.75
31.05
40.04
45.74
48.61
49.44
49.16
48.77
49.34
51.83
56.9
64.61
74.17
84.21
93.11
99.8
104.23
107.47
111.24
116.98
124.96
134.05
142.02
146.61
146.48
141.69
133.57
123.92
114.19
105.06
96.65
89.05
82.79
78.85
77.98
79.89
82.91
84.3
81.35
72.64
58.8
42.38
26.75
14.7
7.43
4.33
3.49
2.69
0.21
-4.82
-12.28
-21.36
-30.88
-39.62
-46.71
-51.84
-55.37
-58.22
-61.42
-65.71
-71.15
-77.13
-82.7
-87.01
-89.57
-90.31
-89.34
-86.86
-83.0
-77.96
-72.05
-65.84
-60.04
-55.35
-52.22
-50.73
-50.64
-51.5
-52.91
-54.61
-56.62
-59.06
-62.02
-65.39
-68.82
-71.88
-74.29
-76.13
-77.88
-80.3
-83.92
-88.74
-93.87
-97.62
-97.98
-93.26
-82.75
-67.04
-47.91
-27.74
-8.83
7.18
19.58
28.43
34.23
37.54
38.75
38.08
35.75
32.04
27.4
22.33
17.29
12.65
8.64
5.44
3.27
2.34
2.78
4.45
6.94
9.61
11.8
13.02
13.06
12.0
9.99
7.15
3.51
-1.01
-6.4
-12.49
-18.91
-25.24
-31.07
-36.2
-40.7
-44.84
-49.06
-53.82
-59.5
-66.17
-73.42
-80.19
-84.84
-85.58
-80.94
-70.4
-54.67
-35.52
-15.32
3.71
20.0
32.83
42.16
48.27
51.42
51.78
49.52
45.01
38.99
32.51
26.68
22.33
19.81
18.9
19.07
19.77
20.65
21.69
23.03
24.95
27.57
30.69
33.75
35.78
35.56
31.86
23.88
11.58
-4.16
-21.72
-39.17
-54.82
-67.65
-77.45
-84.67
-90.12
-94.6
-98.64
-102.32
-105.16
-106.16
-104.0
-97.37
-85.51
-68.52
-47.61
-24.85
-2.69
16.61
31.47
41.2
45.87
45.99
42.25
35.42
26.36
16.23
6.5
-1.26
-5.62
-5.66
-1.23
7.09
18.05
30.09
41.62
51.29
58.23
62.03
62.69
60.56
56.15
49.99
42.55
34.18
25.12
15.49
5.34
-5.36
-16.75
-29.01
-42.34
-56.74
-71.79
-86.43
-98.94
-107.11
-108.8
-102.56
-88.18
-66.73
-40.4
-11.89
16.16
41.56
62.64
78.24
87.67
90.75
87.89
80.11
68.81
55.35
40.75
25.53
9.99
-5.41
-19.73
-31.65
-39.9
-43.8
-43.6
-40.35
-35.43
-30.01
-24.75
-19.84
-15.22
-11.02
-7.61
-5.59
-5.51
-7.58
-11.64
-17.1
-23.27
-29.47
-35.39
-41.13
-47.11
-53.67
-60.73
-67.32
-71.64
-71.59
-65.52
-52.96
-34.96
-13.8
7.73
27.17
42.99
54.64
62.29
66.4
67.3
65.18
60.19
52.63
43.05
32.34
21.49
11.53
3.22
-3.0
-7.05
-9.08
-9.31
-7.94
-5.2
-1.39
3.0
7.29
10.75
12.69
12.74
10.84
7.33
2.78
-2.15
-6.94
-11.39
-15.66
-20.2
-25.61
-32.49
-41.29
-52.09
-64.49
-77.32
-88.65
-96.02
-97.02
-90.02
-74.9
-53.13
-27.52
-1.27
22.83
42.92
58.24
68.84
75.15
77.64
76.78
73.02
66.96
59.33
51.01
42.86
35.57
29.57
24.99
21.76
19.68
18.58
18.33
18.89
20.19
22.06
24.11
25.75
26.3
25.21
22.21
17.45
11.42
4.75
-2.03
-8.69
-15.27
-21.95
-29.07
-36.98
-46.07
-56.63
-68.5
-80.71
-91.28
-97.51
-96.77
-87.45
-69.77
-45.82
-18.94
7.41
30.59
49.25
63.2
72.8
78.48
80.47
78.93
74.2
66.99
58.26
49.05
40.14
32.02
24.81
18.56
13.34
9.35
6.89
6.2
7.3
9.87
13.26
16.62
19.03
19.73
18.25
14.57
9.07
2.51
-4.27
-10.58
-16.13
-21.11
-26.1
-31.87
-39.11
-48.2
-58.98
-70.53
-81.12
-88.35
-89.61
-82.84
-67.33
-44.12
-15.84
14.01
42.06
65.82
84.03
96.44
103.42
105.54
103.43
97.74
89.25
78.84
67.41
55.77
44.52
34.1
24.85
16.98
10.65
5.92
2.73
0.92
0.2
0.22
0.52
0.59
-0.11
-2.13
-5.86
-11.45
-18.6
-26.63
-34.48
-41.18
-46.07
-49.19
-51.23
-53.37
-56.81
-62.53
-70.84
-81.18
-92.03
-101.0
-105.21
-101.98
-89.77
-68.76
-41.04
-10.12
20.09
46.3
66.63
80.63
88.97
92.76
93.06
90.62
85.86
79.1
70.68
61.11
51.1
41.48
33.07
26.59
22.47
20.84
21.5
23.96
27.56
31.54
35.14
37.68
38.58
37.47
34.17
28.76
21.54
13.0
3.74
-5.65
-14.73
-23.31
-31.43
-39.36
-47.46
-56.21
-66.11
-77.61
-90.79
-104.94
-118.24
-127.86
-130.63
-124.09
-107.52
-82.3
-51.65
-19.51
10.52
36.03
55.93
70.12
79.03
83.18
83.17
79.64
73.42
65.39
56.45
47.34
38.68
30.95
24.53
19.73
16.67
15.31
15.42
16.58
18.3
20.11
21.57
22.31
21.96
20.25
16.95
12.02
5.68
-1.69
-9.57
-17.5
-25.17
-32.46
-39.4
-46.17
-53.1
-60.73
-69.67
-80.3
-92.21
-103.88
-112.64
-115.32
-109.33
-93.66
-69.44
-39.62
-8.09
21.51
46.63
66.13
79.86
88.28
91.98
91.51
87.49
80.68
71.98
62.27
52.38
42.98
34.62
27.81
22.92
20.19
19.56
20.67
22.94
25.76
28.58
30.94
32.47
32.81
31.51
28.17
22.49
14.49
4.56
-6.5
-17.73
-28.27
-37.67
-46.01
-53.88
-62.18
-71.89
-83.71
-97.73
-113.06
-127.71
-138.76
-142.98
-137.84
-122.45
-98.0
-67.55
-35.16
-4.7
21.03
40.64
54.03
61.96
65.46
65.63
63.36
59.38
54.26
48.59
43.08
38.61
35.99
35.75
37.85
41.71
46.39
50.96
54.67
57.05
57.79
56.7
53.74
49.08
43.14
36.44
29.4
22.16
14.6
6.48
-2.26
-11.47
-20.82
-30.02
-38.99
-47.85
-56.98
-66.9
-78.08
-90.68
-104.12
-116.73
-125.84
-128.33
-121.59
-104.59
-78.44
-46.19
-12.01
20.12
47.3
68.17
82.68
91.54
95.69
96.02
93.23
87.95
80.85
72.61
63.96
55.64
48.34
42.61
38.84
37.18
37.54
39.57
42.64
45.97
48.6
49.69
48.64
45.3
39.9
32.84
24.48
14.93
4.25
-7.45
-19.74
-31.86
-42.96
-52.56
-60.7
-68.11
-75.97
-85.49
-97.49
-111.98
-127.93
-143.19
-154.78
-159.56
-155.18
-140.92
-118.09
-89.62
-59.2
-30.15
-4.66
16.36
32.88
45.14
53.21
56.96
56.24
51.36
43.42
34.56
27.92
27.01
34.63
51.79
76.93
106.22
134.68
157.68
172.31
177.66
174.39
163.82
147.26
125.87
101.04
74.61
48.76
25.36
5.39
-11.29
-25.5
-37.99
-48.84
-57.46
-63.05
-65.29
-64.7
-62.27
-58.75
-53.99
-46.9
-36.11
-20.79
-1.29
21.04
44.34
66.88
87.16
103.72
114.83
118.65
113.92
100.83
81.29
58.58
36.07
16.09
-0.74
-15.08
-27.97
-39.76
-49.76
-56.53
-58.77
-56.18
-49.77
-41.46
-33.31
-26.69
-21.94
-18.61
-16.08
-14.09
-12.92
-13.09
-15.06
-18.89
-24.3
-30.92
-38.47
-46.8
-55.72
-64.79
-73.43
-81.09
-87.64
-93.45
-99.07
-104.54
-108.86
-109.8
-104.57
-90.91
-68.26
-38.28
-4.5
28.78
57.75
80.15
95.38
104.12
107.59
107.03
103.4
97.48
90.01
81.7
73.21
65.01
57.39
50.38
43.97
38.1
32.79
28.15
24.28
21.34
19.31
17.96
16.68
14.55
10.6
4.17
-4.79
-15.66
-27.38
-38.85
-49.29
-58.38
-66.14
-72.67
-78.07
-82.5
-86.42
-90.62
-95.95
-102.75
-110.26
-116.36
-118.08
-112.59
-98.31
-75.71
-47.21
-16.5
12.63
37.25
55.85
68.29
75.39
78.38
78.56
76.94
74.25
70.91
67.16
63.19
59.22
55.58
52.68
50.77
49.86
49.61
49.42
48.64
46.78
43.67
39.43
34.34
28.67
22.54
15.93
8.76
0.96
-7.55
-16.89
-27.24
-38.74
-51.26
-64.33
-77.13
-88.96
-99.57
-109.3
-118.73
-127.97
-135.94
-140.29
-138.06
-126.9
-106.26
-77.84
-45.07
-12.05
17.84
42.56
61.49
74.86
83.13
86.65
85.62
80.47
72.01
61.46
50.23
39.53
30.13
22.27
15.84
10.71
6.9
4.64
4.28
5.94
9.31
13.49
17.14
18.84
17.55
12.99
5.75
-2.84
-11.19
-18.0
-22.65
-25.41
-27.28
-29.66
-34.02
-41.39
-52.06
-65.28
-79.22
-91.16
-98.03
-97.24
-87.48
-69.18
-44.48
-16.56
11.3
36.59
58.03
75.36
88.83
98.58
104.32
105.51
101.77
93.38
81.5
67.92
54.58
43.08
34.3
28.49
25.47
24.89
26.4
29.58
33.85
38.31
41.88
43.42
42.1
37.66
30.5
21.62
12.21
3.29
-4.63
-11.68
-18.46
-25.82
-34.55
-45.33
-58.63
-74.47
-92.14
-109.88
-124.82
-133.55
-133.08
-121.95
-100.93
-72.89
-41.98
-12.28
13.22
33.17
47.55
57.03
62.29
63.72
61.52
55.98
47.82
38.27
28.84
20.98
15.67
13.23
13.37
15.44
18.87
23.3
28.71
35.2
42.78
51.08
59.41
66.72
71.94
74.1
72.56
67.12
58.1
46.33
32.98
19.16
5.59
-7.77
-21.61
-37.06
-55.0
-75.52
-97.43
-118.17
-134.17
-141.72
-137.93
-121.68
-94.09
-58.37
-18.94
19.64
53.72
81.17
101.33
114.51
121.41
122.59
118.5
109.62
96.8
81.48
65.57
51.06
39.53
31.69
27.26
25.32
24.79
24.97
25.74
27.34
30.0
33.41
36.67
38.46
37.5
32.96
24.63
12.95
-1.27
-17.1
-33.63
-50.05
-65.68
-80.08
-93.19
-105.37
-117.13
-128.72
-139.55
-147.91
-151.22
-146.95
-133.64
-111.65
-83.33
-52.2
-21.89
4.9
26.83
43.82
56.33
64.77
69.15
69.29
65.27
58.02
49.44
42.15
38.62
40.26
46.83
56.52
66.67
74.8
79.48
80.55
78.85
75.59
71.85
68.18
64.51
60.33
54.95
47.9
39.1
29.15
19.05
9.63
1.11
-7.28
-16.95
-29.37
-45.3
-64.4
-85.08
-104.87
-120.79
-129.81
-129.44
-118.35
-96.9
-67.33
-33.37
0.79
31.56
56.79
75.83
89.01
96.84
99.4
96.36
87.39
72.81
53.93
32.96
12.53
-5.01
-18.2
-26.73
-31.31
-33.24
-33.9
-34.27
-34.8
-35.47
-36.09
-36.55
-36.96
-37.62
-38.86
-40.77
-43.24
-45.93
-48.53
-50.93
-53.37
-56.27
-59.99
-64.64
-70.1
-76.17
-82.78
-89.79
-96.66
-102.01
-103.53
-98.49
-84.71
-61.59
-30.58
4.98
40.87
73.12
98.93
117.07
127.66
131.75
130.64
125.52
117.14
105.92
92.09
76.1
58.74
41.11
24.33
9.33
-3.26
-12.95
-19.23
-21.46
-19.15
-12.31
-1.69
11.13
24.06
34.99
42.2
44.74
42.48
36.12
26.93
16.41
5.84
-4.07
-13.49
-23.33
-34.92
-49.43
-67.42
-88.5
-111.15
-132.87
-150.43
-160.53
-160.5
-149.08
-126.89
-96.4
-61.28
-25.51
7.63
36.11
59.21
77.12
90.37
99.46
104.6
105.83
103.26
97.27
88.58
78.22
67.27
56.73
47.35
39.58
33.66
29.68
27.63
27.29
28.22
29.61
30.38
29.41
25.82
19.35
10.35
-0.32
-11.59
-22.55
-32.68
-41.95
-50.72
-59.65
-69.5
-81.03
-94.63
-109.94
-125.45
-138.48
-145.63
-143.79
-131.21
-108.25
-77.45
-42.72
-8.25
22.58
47.73
66.54
79.21
86.42
88.93
87.48
82.9
76.12
68.12
59.88
52.22
45.68
40.47
36.6
33.93
32.36
31.85
32.39
33.95
36.25
38.81
40.91
41.74
40.55
36.79
30.28
21.26
10.4
-1.39
-13.17
-24.25
-34.42
-43.92
-53.31
-63.34
-74.71
-87.86
-102.72
-118.31
-132.56
-142.45
-144.68
-136.75
-117.92
-89.67
-55.44
-19.59
13.81
41.95
63.53
78.53
87.61
91.62
91.38
87.7
81.37
73.29
64.27
55.05
46.22
38.3
31.78
27.09
24.56
24.27
26.02
29.25
33.23
37.2
40.43
42.37
42.57
40.72
36.72
30.62
22.77
13.74
4.23
-5.09
-13.78
-21.68
-28.98
-36.05
-43.36
-51.3
-60.1
-69.54
-78.81
-86.24
-89.49
-86.0
-73.86
-52.68
-24.02
8.8
41.62
70.62
93.37
109.21
118.87
123.64
124.67
122.49
117.22
108.94
98.05
85.45
72.23
59.42
47.65
37.19
28.02
20.08
13.35
7.73
3.03
-1.12
-5.07
-9.0
-12.78
-16.13
-18.78
-20.81
-22.66
-24.96
-28.31
-33.01
-39.05
-46.25
-54.53
-64.03
-75.16
-88.36
-103.8
-120.97
-138.34
-153.33
-162.71
-163.32
-153.09
-131.82
-101.43
-65.47
-28.07
7.08
37.48
61.95
80.25
92.58
99.26
100.69
97.46
90.55
81.22
70.84
60.6
51.33
43.44
37.04
32.1
28.6
26.55
25.95
26.74
28.63
31.04
33.15
34.0
32.68
28.57
21.52
11.94
0.7
-11.07
-22.35
-32.45
-41.25
-49.18
-57.14
-66.19
-77.31
-90.91
-106.47
-122.27
-135.38
-142.31
-139.86
-126.27
-101.95
-69.51
-33.07
2.85
34.6
59.99
78.38
90.2
96.34
97.72
95.13
89.32
81.14
71.54
61.5
51.93
43.51
36.72
31.82
28.92
27.94
28.6
30.52
33.13
35.83
38.05
39.27
39.09
37.17
33.25
27.22
19.15
9.33
-1.71
-13.3
-24.81
-35.75
-45.97
-55.61
-65.15
-75.27
-86.66
-99.75
-114.23
-128.76
-140.89
-147.4
-145.15
-132.17
-108.46
-76.23
-39.34
-2.18
31.41
58.94
79.44
93.05
100.58
102.95
101.07
95.79
87.96
78.51
68.34
58.32
49.29
41.89
36.62
33.72
33.11
34.42
37.02
40.17
43.15
45.4
46.6
46.59
45.35
42.82
38.79
33.04
25.38
15.96
5.21
-6.16
-17.43
-28.13
-38.2
-47.9
-57.81
-68.59
-80.8
-94.58
-109.35
-123.42
-134.04
-137.89
-132.07
-115.14
-87.93
-53.45
-16.13
19.58
50.28
74.3
91.5
102.61
108.58
110.07
107.53
101.4
92.36
81.5
70.08
59.3
49.99
42.56
37.04
33.28
31.06
30.16
30.39
31.46
32.9
34.14
34.56
33.55
30.68
25.78
18.93
10.49
1.06
-8.72
-18.25
-27.24
-35.72
-44.1
-53.1
-63.52
-76.05
-90.93
-107.52
-124.05
-137.64
-144.85
-142.59
-129.19
-105.17
-73.31
-37.79
-3.11
27.24
51.36
68.88
80.42
86.89
88.96
87.15
81.95
74.15
64.89
55.5
47.16
40.67
36.3
33.92
33.18
33.75
35.42
38.05
41.51
45.51
49.57
53.04
55.12
55.1
52.49
47.11
39.22
29.34
18.24
6.67
-4.73
-15.62
-25.94
-36.04
-46.6
-58.46
-72.29
-88.07
-104.63
-119.48
-129.28
-130.76
-121.95
-102.97
-76.21
-45.51
-14.96
12.22
34.27
50.8
62.15
68.86
71.22
69.42
63.73
54.68
43.15
30.2
16.98
4.52
-6.33
-14.96
-21.1
-24.78
-26.36
-26.36
-25.43
-24.18
-23.14
-22.84
-23.78
-26.34
-30.79
-37.04
-44.54
-52.3
-59.11
-63.91
-66.01
-65.35
-62.43
-58.27
-54.2
-51.72
-52.3
-56.9
-65.44
-76.23
-86.03
-90.69
-86.54
-71.79
-47.23
-16.0
17.52
49.17
76.13
97.14
112.14
121.65
126.2
126.34
122.67
116.13
107.87
99.04
90.51
82.77
75.96
70.07
65.02
60.89
57.8
55.86
55.12
55.42
56.35
57.19
56.94
54.5
48.9
39.72
27.28
12.64
-2.68
-17.19
-29.95
-40.76
-50.17
-59.1
-68.63
-79.69
-92.87
-108.17
-124.62
-139.95
-150.82
-153.47
-145.06
-124.77
-94.41
-58.03
-20.63
13.29
40.89
61.25
74.95
83.26
87.44
88.48
87.03
83.71
79.14
73.95
68.69
63.63
58.77
53.91
48.89
43.82
39.15
35.65
33.99
34.46
36.68
39.53
41.46
40.95
36.93
29.2
18.39
5.77
-7.19
-19.26
-29.88
-39.16
-47.86
-57.06
-67.85
-80.98
-96.45
-113.25
-129.1
-140.74
-144.57
-137.73
-119.23
-90.46
-54.99
-17.51
17.52
46.92
69.23
84.4
93.15
96.3
94.55
88.46
78.75
66.49
53.01
39.75
27.95
18.37
11.2
6.19
2.85
0.81
-0.04
0.42
2.32
5.46
9.12
12.13
13.21
11.42
6.52
-0.94
-9.85
-19.0
-27.51
-35.13
-42.23
-49.6
-58.24
-69.02
-82.47
-98.52
-116.07
-132.79
-145.34
-150.01
-143.88
-125.96
-97.73
-62.8
-25.86
8.72
37.94
60.55
76.64
86.96
92.29
93.25
90.34
84.25
75.94
66.54
57.13
48.51
41.12
35.08
30.33
26.77
24.43
23.4
23.73
25.34
27.8
30.39
32.13
32.03
29.37
23.98
16.23
6.92
-2.97
-12.62
-21.63
-30.01
-38.14
-46.65
-56.21
-67.5
-80.82
-95.8
-110.95
-123.61
-130.38
-128.05
-114.79
-90.94
-59.11
-23.44
11.62
42.43
66.92
84.53
95.73
101.46
102.65
100.1
94.52
86.68
77.41
67.66
58.33
50.19
43.73
39.19
36.52
35.48
35.75
36.98
38.79
40.81
42.61
43.68
43.46
41.35
36.93
30.04
20.93
10.26
