19.87
15.77
12.93
10.83
8.89
6.83
4.25
1.0
-3.0
-7.66
-12.77
-18.0
-22.92
-27.3
-30.76
-33.26
-34.7
-35.15
-34.81
-33.89
-32.63
-31.13
-29.66
-28.28
-27.12
-26.02
-24.87
-23.56
-21.8
-19.54
-16.66
-13.33
-9.64
-5.86
-2.19
1.2
4.66
8.51
12.49
15.93
17.74
17.27
14.21
8.95
2.5
-3.27
-6.44
-5.85
-0.92
8.07
20.66
36.15
53.51
71.64
90.54
109.92
128.56
144.82
156.77
162.93
162.39
154.41
138.9
120.75
105.39
96.95
97.02
104.72
117.95
134.21
150.68
165.03
183.97
213.53
255.81
307.33
361.16
411.04
453.79
488.74
516.89
552.92
608.26
685.63
777.07
868.77
948.71
1010.77
1053.67
1077.77
1100.07
1132.34
1176.19
1222.59
1259.44
1280.29
1287.03
1286.93
1180.68
914.02
492.11
-13.56
-507.4
-920.31
-1227.0
-1434.21
-1562.45
-1636.11
-1659.56
-1636.28
-1573.7
-1485.59
-1387.3
-1289.21
-1195.08
-1102.56
-1013.46
-918.64
-813.97
-703.09
-597.36
-510.47
-451.3
-428.84
-435.19
-459.75
-484.86
-497.95
-494.0
-475.74
-450.28
-424.55
-402.91
-386.59
-377.05
-370.52
-362.81
-352.12
-336.81
-317.02
-293.77
-267.81
-239.01
-208.68
-176.66
-142.95
-107.64
-71.48
-36.19
-3.76
23.87
45.81
60.73
68.17
68.56
63.51
55.17
45.23
34.71
23.79
12.54
0.84
-11.07
-22.95
-34.21
-42.58
-45.83
-41.7
-28.98
-7.89
18.7
45.91
67.92
80.02
80.37
70.12
53.19
34.46
17.67
5.33
-1.07
-1.33
3.57
11.93
21.21
29.04
33.34
33.09
27.95
18.58
5.94
-8.81
-23.8
-37.0
-46.2
-49.84
-47.48
-39.92
-29.2
-18.02
-9.01
-3.74
-2.7
-5.07
-9.34
-13.97
-17.81
-20.45
-21.93
-22.6
-22.72
-22.75
-23.25
-24.93
-28.34
-33.54
-39.89
-46.16
-51.19
-54.15
-54.94
-53.93
-51.57
-48.41
-44.9
-41.82
-39.97
-40.15
-42.56
-46.8
-51.88
-56.48
-59.53
-60.22
-58.28
-53.65
-46.49
-36.9
-25.01
-11.22
3.88
19.3
33.95
46.7
56.7
63.31
66.36
66.04
62.78
57.32
50.32
42.54
34.65
27.2
20.62
15.2
11.06
8.05
6.04
4.61
3.46
2.38
1.14
-0.23
-1.64
-2.85
-3.62
-3.48
-2.04
1.17
6.57
14.32
24.5
36.82
50.8
65.65
80.56
94.52
106.59
116.01
122.11
124.57
123.18
117.99
109.1
96.68
80.93
62.13
40.99
18.32
-4.73
-27.13
-47.92
-66.45
-82.39
-95.71
-106.63
-115.33
-122.17
-127.29
-130.85
-132.87
-133.2
-131.69
-128.03
-122.03
-113.51
-102.56
-89.33
-74.18
-57.72
-40.65
-23.75
-7.61
7.25
20.62
32.39
42.68
51.69
59.56
66.47
72.44
77.6
81.85
85.14
87.25
88.0
87.19
84.57
80.13
73.87
66.15
57.38
48.27
39.58
32.04
26.28
22.58
21.19
21.92
24.4
27.89
31.56
34.44
35.54
34.15
29.68
22.13
11.68
-1.0
-15.02
-29.17
-42.2
-53.01
-60.71
-65.08
-66.24
-65.0
-62.38
-59.6
-57.69
-57.43
-59.23
-63.0
-68.35
-74.43
-80.17
-84.25
-85.43
-82.73
-75.45
-63.48
-47.14
-27.24
-4.95
18.44
41.56
63.14
82.07
97.53
108.92
116.04
118.88
117.75
113.09
105.4
95.18
82.82
68.6
52.65
35.15
16.26
-3.77
-24.63
-45.85
-66.78
-86.72
-104.87
-120.52
-132.85
-141.17
-144.93
-143.75
-137.46
-126.1
-109.9
-89.37
-65.36
-38.83
-11.02
16.7
43.06
66.73
86.36
100.86
109.52
111.78
107.51
96.93
80.72
60.12
36.71
12.22
-11.46
-32.28
-48.55
-59.02
-63.02
-60.55
-52.15
-39.08
-22.91
-5.4
11.77
27.11
39.59
48.54
53.75
55.51
54.19
50.46
44.98
38.29
30.89
23.4
16.38
10.12
5.17
1.84
0.48
1.2
3.84
7.94
13.04
18.5
23.43
27.12
28.91
28.45
25.63
20.7
14.26
7.11
0.22
-5.38
-8.66
-8.93
-5.71
0.98
10.74
22.76
35.78
48.41
59.05
66.37
69.22
66.97
59.53
47.37
31.45
13.1
-6.07
-24.57
-40.99
-54.3
-63.85
-69.55
-71.71
-70.9
-67.94
-63.51
-58.32
-52.76
-47.05
-41.14
-34.99
-28.48
-21.49
-14.09
-6.36
1.34
8.69
15.24
20.5
24.16
25.93
25.78
23.77
20.17
15.29
9.61
3.6
-2.35
-7.77
-12.4
-15.93
-18.27
-19.28
-18.99
-17.53
-15.06
-11.82
-7.98
-3.86
0.37
4.49
8.38
11.94
15.07
17.79
19.97
21.66
22.7
23.05
22.7
21.57
19.71
17.19
14.22
11.0
7.88
5.08
2.87
1.46
0.83
0.97
1.65
2.61
3.51
4.05
3.98
3.18
1.72
-0.29
-2.5
-4.54
-6.01
-6.5
-5.77
-3.71
-0.37
4.07
9.16
14.52
19.61
23.91
27.06
28.72
28.73
27.07
23.9
19.4
13.95
7.9
1.57
-4.64
-10.54
-15.91
-20.68
-24.82
-28.4
-31.46
-34.01
-36.12
-37.65
-38.5
-38.41
-37.16
-34.47
-30.21
-24.29
-16.78
-7.96
1.79
11.88
21.73
30.64
38.04
43.39
46.3
46.56
44.11
39.13
31.95
23.06
13.08
2.62
-7.71
-17.42
-26.0
-33.06
-38.25
-41.4
-42.51
-41.71
-39.29
-35.6
-31.0
-25.77
-20.27
-14.73
-9.45
-4.78
-0.91
1.95
3.77
4.51
4.31
3.17
1.3
-1.18
-4.08
-7.15
-10.13
-12.78
-14.9
-16.26
-16.76
-16.23
-14.63
-12.0
-8.43
-4.18
0.5
5.3
10.01
14.36
18.23
21.57
24.33
26.63
28.52
30.11
31.44
32.53
33.25
33.51
33.25
32.33
30.64
28.01
24.38
19.78
14.41
8.65
2.99
-2.18
-6.62
-10.2
-12.85
-14.46
-14.97
-14.4
-12.91
-10.8
-8.35
-5.83
-3.32
-0.91
1.16
2.45
2.44
0.93
-1.87
-5.21
-8.3
-10.46
-11.5
-11.68
-11.33
-10.7
-9.85
-8.94
-8.27
-8.35
-9.75
-12.6
-16.58
-20.83
-24.44
-26.79
-27.82
-27.86
-27.28
-26.3
-24.79
-22.58
-19.5
-15.71
-11.61
-7.79
-4.71
-2.51
-1.09
-0.02
1.03
2.34
3.85
5.33
6.42
6.86
6.67
5.98
5.2
4.52
4.07
3.83
3.7
3.65
3.66
3.86
4.3
5.14
6.34
7.91
9.76
11.73
13.64
15.24
16.39
16.88
16.74
15.85
14.35
12.42
10.35
8.49
7.02
6.01
5.23
4.46
3.37
1.87
0.03
-2.09
-4.25
-6.39
-8.25
-9.71
-10.55
-10.8
-10.72
-10.66
-11.02
-11.86
-13.14
-14.48
-15.55
-16.0
-15.7
-14.6
-12.76
-10.35
-7.49
-4.51
-1.69
0.76
2.77
4.42
5.88
7.29
8.52
9.56
10.24
10.54
10.52
10.38
10.19
9.91
9.35
8.08
5.82
2.39
-2.1
-7.24
-12.35
-16.68
-19.65
-21.05
-21.16
-20.52
-19.79
-19.36
-19.21
-18.97
-18.01
-15.8
-12.04
-6.75
-0.02
7.83
16.36
24.98
33.02
40.28
47.2
54.96
64.71
76.87
90.05
101.11
105.99
101.19
85.3
59.45
26.99
-7.89
-41.18
-69.83
-91.81
-105.75
-111.04
-107.85
-97.35
-81.62
-63.32
-45.02
-28.64
-15.19
-4.78
2.98
8.79
13.26
16.89
19.91
22.14
23.39
23.41
22.25
20.21
17.83
15.6
13.73
12.24
10.82
9.28
7.47
5.5
3.53
1.66
-0.15
-2.04
-4.16
-6.64
-9.35
-12.16
-14.76
-16.84
-18.17
-18.58
-18.01
-16.61
-14.6
-12.25
-9.77
-7.23
-4.51
-1.42
2.27
6.53
11.14
15.64
19.51
22.22
23.42
23.11
21.51
19.08
16.13
12.92
9.33
5.31
0.89
-3.58
-7.53
-10.55
-12.42
-13.43
-13.88
-14.1
-13.95
-13.12
-11.27
-8.38
-4.86
-1.28
1.72
3.85
4.96
5.12
4.5
3.19
1.31
-1.04
-3.66
-6.47
-9.27
-11.81
-13.75
-14.73
-14.68
-13.6
-11.79
-9.54
-7.04
-4.21
-0.89
3.03
7.47
11.97
16.04
19.13
20.99
21.57
21.02
19.55
17.14
13.88
9.81
5.37
1.1
-2.35
-4.58
-5.62
-5.83
-5.79
-5.83
-6.02
-6.15
-6.09
-5.91
-5.82
-6.11
-6.86
-8.01
-9.34
-10.71
-12.12
-13.68
-15.57
-17.7
-19.89
-21.79
-23.08
-23.47
-22.85
-21.3
-18.99
-16.31
-13.54
-10.87
-8.18
-5.3
-2.03
1.65
5.41
8.84
11.36
12.67
12.6
11.48
9.62
7.43
5.05
2.36
-0.85
-4.71
-9.12
-13.71
-17.87
-21.23
-23.67
-25.42
-26.94
-28.45
-29.84
-30.75
-30.74
-29.62
-27.48
-24.77
-21.94
-19.39
-17.04
-14.57
-11.47
-7.25
-1.55
5.72
14.22
23.51
32.75
41.23
48.25
53.41
56.61
58.13
58.54
58.47
58.52
58.83
59.23
59.06
57.46
53.76
47.68
39.65
30.45
21.06
11.93
3.13
-5.51
-14.14
-22.48
-29.99
-36.16
-41.01
-44.93
-48.69
-52.8
-57.15
-61.28
-64.52
-66.71
-68.21
-69.74
-71.7
-73.96
-75.59
-75.15
-71.47
-63.99
-53.3
-40.68
-27.58
-14.91
-2.85
8.94
21.1
34.07
48.05
62.87
78.04
92.66
105.23
113.97
117.17
114.07
105.13
92.15
77.56
63.44
50.98
40.42
31.56
24.22
18.52
14.47
11.85
9.92
7.83
5.0
1.45
-2.28
-5.74
-8.79
-11.87
-15.54
-20.13
-25.3
-30.27
-34.25
-36.9
-38.5
-39.51
-40.14
-40.06
-38.57
-34.94
-29.0
-21.29
-12.73
-4.16
3.99
11.78
19.35
26.65
33.28
38.51
41.43
41.48
38.61
33.38
26.73
19.69
13.17
7.7
3.39
-0.08
-3.01
-5.79
-8.4
-10.55
-11.7
-11.36
-9.49
-6.59
-3.87
-2.4
-2.85
-4.92
-7.5
-9.49
-10.3
-10.3
-10.31
-10.97
-12.2
-13.3
-13.6
-12.77
-11.33
-9.94
-8.97
-7.99
-6.2
-2.97
1.57
6.49
10.54
12.76
12.98
11.64
9.58
7.41
5.31
3.12
0.42
-2.91
-6.75
-10.48
-13.45
-15.15
-15.43
-14.65
-13.42
-12.4
-11.93
-12.05
-12.51
-12.94
-13.01
-12.62
-11.99
-11.4
-11.1
-10.96
-10.64
-9.82
-8.54
-7.19
-6.55
-7.31
-9.72
-13.45
-17.61
-21.04
-22.99
-23.31
-22.71
-22.48
-23.97
-28.32
-35.54
-44.67
-53.7
-60.54
-63.79
-63.52
-61.3
-59.42
-60.42
-64.99
-72.33
-79.7
-84.03
-83.04
-76.41
-65.87
-54.19
-44.82
-38.39
-33.64
-26.25
-10.69
18.5
64.73
128.19
205.88
290.94
377.18
447.9
486.28
480.29
428.54
340.34
230.22
120.9
17.0
-80.56
-170.63
-249.19
-311.32
-352.31
-368.89
-361.13
-332.59
-290.71
-241.98
-192.18
-144.17
-98.29
-53.01
-6.7
40.68
87.28
129.09
163.7
189.97
208.72
221.81
230.97
236.98
239.16
236.27
226.87
211.53
192.0
170.89
150.6
132.53
116.76
102.07
86.72
69.08
49.05
27.51
5.91
-14.58
-33.9
-52.92
-72.9
-94.45
-116.88
-138.16
-155.79
-167.99
-174.15
-175.13
-172.38
-167.07
-159.37
-148.51
-133.44
-113.46
-88.5
-59.0
-26.22
8.21
42.47
74.94
104.25
129.2
148.72
161.84
167.81
165.49
153.74
131.95
100.41
60.39
13.64
-37.97
-92.13
-142.66
-181.42
-201.72
-201.69
-185.18
-159.54
-132.52
-109.63
-92.98
-81.3
-72.11
-63.46
-54.77
-46.93
-41.12
-37.96
-36.77
-36.24
-34.85
-31.86
-27.18
-20.68
-12.03
-0.82
12.83
28.24
43.84
58.06
69.38
76.85
80.32
80.65
77.35
69.61
56.96
39.93
20.59
1.75
-13.29
-21.36
-20.49
-10.49
6.74
28.0
49.37
67.09
77.97
80.35
75.17
65.38
55.37
48.69
46.74
48.03
48.64
43.79
30.36
9.14
-15.72
-37.82
-51.55
-54.16
-45.47
-26.19
-0.26
26.49
47.82
57.52
50.86
24.58
-22.05
-85.03
-156.57
-227.27
-288.76
-335.27
-364.46
-375.85
-369.42
-344.15
-296.84
-225.51
-132.36
-25.5
84.39
188.55
283.55
370.48
439.94
479.67
481.31
447.26
388.42
318.2
247.18
181.04
120.7
64.46
13.45
-28.38
-56.06
-68.25
-68.31
-63.55
-61.68
-69.01
-85.95
-107.61
-127.39
-139.48
-141.71
-134.75
-120.57
-101.1
-77.55
-51.38
-24.36
1.09
22.44
37.33
44.06
42.33
32.65
17.05
-2.05
-22.72
-43.67
-64.01
-82.88
-100.03
-115.57
-129.72
-141.79
-150.45
-154.7
-152.87
-141.89
-117.25
-75.61
-16.41
57.14
139.43
224.16
304.0
368.73
408.85
420.47
406.13
372.48
326.47
273.43
216.84
155.81
89.54
13.53
-73.58
-169.47
-268.47
-362.64
-444.12
-492.42
-498.39
-464.29
-401.24
-322.74
-240.51
-162.53
-93.33
-35.11
11.34
43.77
61.93
68.12
67.02
63.82
62.21
63.85
68.75
76.15
83.18
88.18
91.33
94.62
100.34
109.96
123.6
139.97
157.1
172.14
182.43
186.57
184.78
177.73
166.64
152.92
137.97
123.25
110.03
99.59
93.46
93.16
98.86
110.05
125.49
143.44
161.79
178.39
191.53
200.25
204.56
204.2
199.64
191.63
181.04
168.54
154.31
137.72
116.93
96.11
76.6
59.2
44.35
32.19
22.75
15.98
11.82
10.25
11.44
14.49
18.78
23.72
28.8
33.55
37.64
40.89
43.22
44.73
44.89
43.38
40.09
35.06
28.33
20.12
10.76
0.78
-9.15
-18.62
-27.02
-33.59
-37.54
-38.3
-35.63
-29.63
-20.81
-10.01
1.53
12.58
22.23
29.89
35.24
38.17
38.75
37.02
33.08
27.02
19.1
9.81
-0.13
-10.15
-19.95
-29.64
-39.84
-51.37
-64.88
-80.46
-97.46
-114.51
-130.14
-143.37
-154.2
-163.69
-173.56
-185.5
-200.4
-218.0
-236.89
-255.24
-271.53
-285.29
-297.12
-308.32
-320.45
-334.92
-352.51
-372.73
-393.5
-410.76
-419.19
-413.76
-391.67
-353.88
-305.18
-252.67
-203.24
-161.57
-129.12
-104.46
-84.86
-67.9
-52.46
-38.91
-28.44
-21.9
-18.8
-16.9
-12.89
-3.93
10.8
29.27
47.37
61.0
68.26
70.52
71.48
74.97
82.7
93.65
105.05
114.48
121.15
125.85
130.04
134.87
140.79
147.91
156.89
168.85
184.7
203.93
223.88
240.11
247.9
244.03
227.66
200.74
167.35
132.92
102.84
81.45
71.15
71.9
81.54
96.4
112.63
126.73
135.32
135.77
126.5
106.91
77.31
39.16
-5.22
-53.24
-102.83
-152.73
-200.87
-243.23
-274.21
-289.07
-286.45
-269.55
-244.73
-218.3
-194.11
-170.14
-140.39
-99.62
-48.14
7.51
58.13
96.89
122.09
132.23
128.27
111.78
83.77
44.32
-5.7
-62.29
-118.04
-165.19
-207.06
-247.89
-289.09
-328.15
-362.33
-391.69
-418.85
-447.43
-480.57
-531.76
-604.28
-687.03
-759.34
-804.54
-819.2
-811.86
-796.01
-783.59
-796.97
-844.06
-915.68
-991.72
-1054.58
-1096.59
-1116.55
-1114.23
-981.61
-678.19
-252.63
185.11
543.19
788.36
930.8
998.57
1021.33
1021.33
992.33
934.71
857.97
779.69
715.94
671.05
640.97
628.35
631.16
636.65
638.96
640.19
647.14
664.52
692.09
724.01
753.52
773.98
773.46
745.71
692.09
612.57
520.07
426.66
342.06
272.49
218.89
176.0
139.14
106.74
73.17
45.08
25.38
14.8
12.59
16.86
24.24
31.79
37.18
38.47
47.43
66.25
93.62
126.45
160.65
192.62
219.42
239.29
251.89
259.83
263.03
261.51
254.95
242.5
223.23
196.15
160.95
118.29
70.84
19.69
-33.55
-87.13
-139.5
-189.19
-235.05
-276.28
-312.66
-344.0
-371.51
-395.86
-416.61
-432.49
-441.95
-444.24
-440.02
-431.73
-422.59
-416.18
-414.79
-419.1
-428.64
-442.41
-459.58
-479.26
-500.12
-519.65
-534.43
-540.49
-534.9
-516.9
-488.37
-453.52
-417.32
-383.9
-355.47
-332.31
-313.47
-297.76
-284.54
-273.76
-265.43
-259.21
-254.18
-249.02
-242.6
-234.27
-223.96
-212.12
-199.39
-186.19
-172.68
-158.69
-144.04
-128.75
-113.14
-97.83
-83.5
-70.67
-59.47
-49.62
-40.53
-31.51
-22.03
-11.76
-0.74
10.78
22.47
34.09
45.38
56.22
66.48
76.02
84.75
92.47
99.1
104.5
108.74
111.81
113.76
114.61
114.34
113.02
110.59
107.13
102.68
97.48
91.69
85.58
79.39
73.35
67.74
62.7
58.39
54.86
52.15
50.2
48.88
48.1
47.62
47.28
46.88
46.28
45.35
43.97
42.15
39.89
37.36
34.62
31.92
29.53
27.76
26.9
27.2
28.91
32.1
36.83
42.79
49.73
57.17
64.66
71.74
78.11
83.65
88.38
92.63
96.8
101.47
107.07
113.94
122.24
131.88
142.51
153.55
164.3
173.95
181.81
187.22
189.73
189.11
185.35
178.55
169.02
157.18
143.43
128.33
112.44
96.29
80.5
65.63
52.26
40.91
32.07
26.04
23.1
23.34
26.6
32.54
40.55
49.95
59.82
69.24
77.27
83.08
86.0
85.59
81.72
74.52
64.39
51.87
37.7
22.54
7.02
-8.44
-23.62
-38.44
-53.13
-67.94
-83.19
-99.16
-115.89
-133.15
-150.36
-166.66
-180.86
-191.65
-197.66
-197.67
-190.9
-177.01
-156.31
-129.76
-99.02
-66.21
-33.8
-4.31
19.89
36.84
45.25
44.52
34.86
17.14
-7.13
-35.92
-66.98
-97.87
-126.3
-150.16
-167.69
-177.58
-179.01
-171.77
-156.13
-133.04
-103.83
-70.28
-34.34
1.86
36.28
67.2
93.2
113.41
127.39
135.29
137.65
135.47
129.94
122.4
114.21
106.64
100.8
97.47
97.22
100.25
106.49
115.64
127.18
140.41
154.5
168.64
181.87
193.36
202.31
208.02
209.98
207.81
201.32
190.32
174.69
154.28
128.97
98.69
63.56
24.17
-18.53
-62.92
-107.16
-149.04
-186.37
-217.08
-239.58
-252.58
-255.18
-247.07
-228.25
-199.54
-162.38
-118.93
-71.76
-23.7
22.74
65.81
104.58
139.15
170.12
198.3
224.28
248.25
270.17
289.96
307.74
323.89
339.14
354.33
370.29
387.89
407.63
429.22
450.99
469.78
481.39
482.04
469.69
444.93
411.02
372.46
333.55
297.02
263.91
233.94
206.66
181.99
160.1
141.32
125.37
111.58
99.05
87.24
76.11
66.15
58.04
52.14
48.41
46.16
44.4
42.13
38.73
34.05
28.49
22.57
16.7
11.11
5.64
0.13
-5.55
-11.23
-16.58
-21.14
-24.56
-26.79
-27.95
-28.42
-28.64
-29.0
-29.72
-30.85
-32.36
-33.99
-35.6
-36.98
-38.01
-38.59
-38.64
-38.1
-36.92
-35.15
-32.81
-30.09
-27.12
-24.2
-21.58
-19.44
-17.92
-17.04
-16.87
-17.31
-18.35
-19.83
-21.61
-23.57
-25.42
-27.03
-28.13
-28.61
-28.25
-27.03
-24.86
-21.83
-18.15
-14.0
-9.79
-5.85
-2.57
-0.11
1.4
1.98
1.82
1.05
-0.02
-1.26
-2.48
-3.58
-4.58
-5.52
-6.52
-7.65
-9.06
-10.71
-12.68
-14.88
-17.19
-19.56
-21.93
-24.31
-26.64
-28.89
-30.95
-32.76
-34.23
-35.36
-36.2
-36.61
-36.49
-35.42
-33.07
-29.03
-23.14
-15.46
-6.24
4.08
15.06
26.1
36.51
45.39
51.78
54.87
54.26
50.13
43.1
34.15
24.25
14.14
4.31
-4.88
-13.21
-20.5
-26.6
-31.57
-35.53
-38.73
-41.38
-43.53
-45.17
-46.21
-46.72
-46.78
-46.57
-46.05
-45.0
-43.0
-39.54
-34.25
-27.0
-18.06
-7.83
3.02
13.89
24.18
33.3
40.76
46.16
49.3
50.0
48.32
44.35
38.44
31.12
23.0
14.81
7.04
0.01
-6.48
-12.83
-19.6
-27.16
-35.37
-43.79
-51.6
-57.98
-62.06
-63.19
-60.93
-55.09
-45.89
-33.74
-19.4
-3.67
12.67
28.9
44.4
58.54
70.52
79.33
84.09
84.07
79.15
69.87
57.35
42.96
28.04
13.69
0.55
-10.76
-19.77
-26.03
-29.21
-29.31
-26.74
-22.29
-16.95
-11.76
-7.42
-4.31
-2.55
-2.07
-2.86
-5.09
-9.17
-15.69
-25.14
-37.69
-53.13
-70.73
-89.44
-107.93
-124.73
-138.42
-147.69
-151.54
-149.41
-141.31
-127.78
-109.5
-87.02
-60.52
-29.98
4.13
40.36
75.83
106.72
128.93
139.49
137.17
122.85
98.91
68.55
34.92
0.8
-31.32
-59.38
-81.59
-96.93
-105.09
-106.74
-103.01
-95.15
-84.01
-69.88
-52.87
-33.18
-11.59
10.58
31.61
49.88
64.1
73.54
78.05
77.86
73.57
66.01
56.13
44.9
33.24
21.79
10.8
0.33
-9.75
-19.47
-28.67
-36.97
-43.89
-48.92
-51.64
-51.89
-49.59
-44.96
-38.39
-30.38
-21.53
-12.32
-3.22
5.42
13.29
20.2
25.97
30.51
33.82
35.95
37.1
37.29
36.46
34.33
30.72
25.39
18.38
10.0
0.74
-8.66
-17.53
-25.29
-31.52
-35.96
-38.53
-39.31
-38.45
-36.32
-33.24
-29.52
-25.29
-20.6
-15.36
-9.49
-3.07
3.68
10.21
16.06
20.77
24.31
26.99
29.25
31.45
33.5
34.8
34.35
31.25
24.98
15.71
4.31
-8.12
-20.37
-31.61
-41.32
-49.39
-55.96
-61.36
-66.18
-70.88
-75.91
-81.23
-86.44
-90.57
-92.62
-91.55
-86.75
-78.26
-66.56
-52.64
-37.56
-22.41
-8.07
4.74
15.53
24.01
30.03
33.81
35.83
36.94
38.02
39.74
42.36
45.62
49.04
52.05
54.39
55.99
57.02
57.61
57.68
57.0
55.18
51.91
46.89
40.12
31.71
22.1
11.75
1.21
-9.03
-18.64
-27.34
-34.99
-41.34
-46.33
-49.82
-51.86
-52.69
-52.51
-51.62
-50.15
-48.24
-45.88
-43.19
-40.23
-37.0
-33.51
-29.63
-25.31
-20.43
-15.0
-9.02
-2.59
4.19
11.29
18.46
25.48
31.81
36.98
40.53
42.13
41.68
39.23
35.05
29.36
22.59
15.04
7.17
-0.53
-7.7
-13.99
-19.23
-23.31
-26.37
-28.43
-29.71
-30.34
-30.39
-29.97
-29.04
-27.6
-25.6
-23.08
-20.0
-16.5
-12.78
-9.08
-5.76
-3.01
-1.03
0.09
0.28
-0.41
-1.94
-4.13
-6.66
-9.24
-11.36
-12.73
-13.02
-12.09
-9.95
-6.78
-2.92
1.25
5.11
8.26
10.23
10.82
10.08
8.2
5.57
2.6
-0.24
-2.72
-4.56
-5.68
-6.09
-5.85
-5.16
-4.21
-3.24
-2.4
-1.88
-1.7
-1.83
-2.25
-2.83
-3.53
-4.27
-5.12
-6.1
-7.3
-8.75
-10.5
-12.61
-14.97
-17.53
-20.06
-22.41
-24.33
-25.62
-26.09
-25.64
-24.39
-22.37
-19.85
-17.05
-14.26
-11.72
-9.63
-8.17
-7.33
-7.16
-7.44
-8.01
-8.63
-9.09
-9.22
-8.92
-8.19
-7.0
-5.47
-3.7
-1.87
-0.09
1.49
2.71
3.51
3.74
3.46
2.64
1.4
-0.23
-2.11
-4.1
-6.13
-8.01
-9.67
-10.89
-11.57
-11.54
-10.71
-9.05
-6.54
-3.34
0.44
4.48
8.53
12.18
15.04
16.87
17.46
16.83
15.09
12.46
9.16
5.52
1.78
-1.81
-5.04
-7.78
-9.9
-11.41
-12.28
-12.54
-12.14
-11.04
-9.18
-6.54
-3.24
0.57
4.53
8.22
11.27
13.35
14.32
14.16
12.94
10.67
7.43
3.19
-2.14
-8.53
-15.88
-23.91
-32.19
-40.19
-47.44
-53.42
-57.75
-60.13
-60.38
-58.48
-54.39
-48.05
-39.28
-27.8
-13.39
3.9
23.41
43.86
63.25
79.41
90.34
94.7
92.01
82.64
67.62
48.38
26.54
3.68
-18.62
-38.81
-55.59
-67.97
-75.47
-78.13
-76.55
-71.5
-63.91
-54.58
-44.11
-32.93
-21.38
-9.8
1.49
12.03
21.57
29.76
36.42
41.36
44.37
45.26
43.86
40.22
34.44
26.99
18.37
9.23
0.16
-8.33
-15.85
-22.2
-27.22
-31.0
-33.61
-35.2
-35.91
-35.84
-35.07
-33.61
-31.53
-28.81
-25.53
-21.66
-17.31
-12.57
-7.49
-2.26
2.95
7.83
12.13
15.56
18.02
19.46
19.92
19.61
18.66
17.25
15.46
13.5
11.43
9.41
