-61.84
-53.16
-45.17
-38.34
-32.9
-28.96
-26.48
-25.24
-25.01
-25.65
-27.04
-29.02
-31.0
-31.93
-30.51
-25.75
-17.45
-6.37
6.06
18.37
29.55
39.06
46.68
52.04
54.49
53.35
48.28
39.8
29.48
19.55
12.25
9.12
10.39
15.02
21.12
26.63
29.99
30.42
27.95
23.14
16.74
9.39
1.69
-5.77
-12.44
-17.73
-21.23
-22.81
-22.79
-21.91
-21.27
-22.02
-25.01
-30.5
-37.84
-45.74
-52.67
-57.35
-59.13
-57.98
-54.23
-48.21
-40.19
-30.36
-19.11
-7.21
4.31
14.49
22.74
29.0
33.5
36.53
38.31
38.93
38.59
37.78
37.21
37.51
38.96
41.25
43.64
45.34
45.83
45.14
43.78
42.29
40.84
38.94
35.44
29.05
19.07
5.79
-9.34
-24.28
-37.18
-46.99
-53.49
-56.99
-57.84
-56.36
-53.1
-49.06
-45.63
-43.91
-44.11
-45.38
-46.5
-46.91
-47.29
-49.27
-54.09
-61.42
-68.88
-72.93
-70.44
-60.15
-43.24
-22.7
-1.97
16.32
31.03
42.36
51.27
58.49
64.07
67.38
67.55
64.29
58.34
51.44
45.59
42.17
41.22
41.56
41.56
40.08
36.95
32.86
28.7
24.89
21.15
16.72
10.81
3.09
-6.23
-16.5
-26.93
-36.7
-45.06
-51.29
-54.73
-54.9
-51.73
-45.58
-37.1
-26.99
-15.91
-4.39
6.91
17.2
25.59
31.38
34.34
34.84
33.6
31.27
28.17
24.27
19.6
14.49
9.48
5.06
1.26
-2.29
-6.1
-10.17
-13.73
-15.55
-14.67
-11.08
-5.77
-0.38
3.65
5.43
4.65
1.31
-4.52
-12.66
-22.51
-32.96
-42.54
-49.85
-54.01
-54.77
-52.37
-47.1
-38.99
-27.91
-13.91
2.45
20.15
37.89
54.43
68.75
80.13
88.2
92.92
94.34
92.72
88.61
82.71
75.83
68.69
62.09
57.06
54.84
55.99
60.47
67.62
76.18
84.62
91.32
95.14
95.98
94.84
92.09
88.19
84.1
81.25
80.84
82.6
84.32
82.72
75.06
58.69
34.0
5.14
-21.15
-38.77
-45.5
-44.24
-41.52
-44.7
-62.0
-98.4
-154.09
-224.4
-302.19
-380.3
-453.25
-517.08
-550.66
-536.4
-468.14
-357.05
-225.54
-95.68
18.34
110.39
180.02
230.3
263.09
280.56
285.82
284.63
281.63
280.09
281.42
285.48
291.6
296.73
297.9
293.39
283.42
268.96
250.68
227.99
199.25
164.02
121.7
72.9
19.51
-35.43
-89.21
-140.14
-187.93
-233.31
-277.27
-321.73
-368.47
-417.66
-466.71
-510.21
-540.51
-550.02
-533.89
-491.93
-429.37
-354.94
-277.35
-203.0
-135.54
-76.32
-25.77
15.89
48.84
74.1
93.7
110.78
127.88
145.17
160.9
172.08
176.5
173.83
165.96
156.19
149.16
149.22
158.68
177.57
202.49
227.88
247.24
255.59
247.25
222.82
191.64
167.82
162.65
176.39
202.28
229.23
248.34
254.72
248.59
232.97
206.97
171.47
125.26
67.25
-2.85
-82.9
-167.05
-245.4
-306.76
-342.9
-349.41
-329.63
-291.22
-243.47
-194.99
-152.08
-119.12
-100.21
-101.12
-119.87
-154.06
-195.73
-232.7
-254.38
-255.52
-237.61
-207.33
-180.81
-160.79
-146.94
-135.76
-122.03
-102.29
-74.69
-39.64
4.11
54.5
112.08
175.5
241.37
304.16
348.12
357.0
321.35
245.27
142.56
33.94
-61.47
-139.82
-202.3
-251.59
-288.18
-310.19
-309.0
-279.76
-218.97
-129.04
-17.64
104.87
227.02
339.51
436.19
514.93
556.72
546.02
477.52
360.59
215.13
61.98
-76.0
-193.94
-288.99
-359.86
-404.36
-421.92
-410.81
-371.41
-305.86
-217.75
-110.0
14.18
147.8
283.18
412.85
530.9
633.52
718.4
762.72
749.58
675.33
551.61
401.22
247.73
107.89
-10.02
-104.48
-178.18
-232.66
-269.16
-290.08
-300.52
-304.9
-306.54
-306.91
-305.57
-300.91
-288.33
-263.03
-222.18
-166.25
-98.17
-28.57
29.06
63.52
70.36
55.06
29.21
5.27
-8.7
-11.12
-5.98
1.37
7.42
11.69
16.51
23.97
34.45
46.42
57.69
66.43
72.5
76.91
80.78
85.5
89.53
90.6
86.36
75.36
57.42
34.19
8.66
-16.37
-38.78
-57.53
-71.94
-81.87
-87.26
-88.4
-85.3
-77.83
-66.95
-54.1
-41.06
-28.86
-18.25
-9.75
-4.02
-1.5
-2.6
-7.58
-17.14
-31.65
-50.2
-71.35
-93.55
-115.71
-136.8
-149.03
-146.51
-127.01
-93.37
-50.58
-3.35
45.03
91.84
134.73
172.17
201.45
222.92
236.7
243.6
244.43
239.13
226.76
205.87
175.76
135.67
86.19
28.33
-34.57
-97.84
-157.66
-211.58
-258.79
-299.74
-336.97
-373.56
-412.3
-453.44
-493.51
-526.59
-545.77
-546.35
-527.28
-492.38
-447.71
-398.94
-349.36
-298.85
-246.48
-191.82
-136.8
-85.33
-42.1
-10.73
7.5
13.02
7.88
-5.85
-25.79
-49.74
-75.03
-98.49
-116.92
-127.21
-127.77
-118.52
-101.49
-79.78
-57.05
-36.7
-20.86
-10.66
-5.63
-5.0
-7.48
-12.14
-18.22
-24.83
-31.05
-35.35
-36.36
-32.5
-22.92
-7.4
13.15
36.76
61.08
83.01
99.99
109.65
110.7
102.48
85.64
61.75
33.01
2.5
-27.0
-52.43
-71.52
-82.72
-85.6
-80.64
-69.02
-52.78
-33.92
-14.88
2.59
17.07
27.65
33.97
36.15
35.0
31.34
26.61
21.83
18.33
16.91
17.95
21.41
26.8
33.65
41.2
49.35
57.95
67.28
77.6
88.87
100.94
113.12
124.83
135.33
144.76
153.5
162.4
172.47
184.15
197.79
212.94
229.12
245.6
262.26
279.08
296.37
314.84
334.9
357.15
381.03
405.09
426.12
440.27
443.75
434.09
411.43
377.89
337.57
294.57
252.65
214.15
180.31
151.54
127.65
108.66
94.24
84.34
78.4
75.76
75.33
75.57
75.32
73.7
71.09
67.92
65.09
62.54
59.5
54.78
46.98
35.87
21.77
6.27
-9.34
-23.68
-35.94
-45.69
-52.55
-56.57
-57.45
-55.47
-50.78
-44.05
-35.93
-27.26
-19.08
-12.12
-7.11
-3.99
-2.91
-3.56
-5.89
-9.87
-15.19
-21.48
-27.58
-32.51
-35.01
-35.03
-32.99
-29.85
-26.62
-23.51
-20.64
-17.35
-13.44
-8.64
-3.24
2.36
7.41
10.63
11.14
7.97
1.4
-7.56
-16.88
-24.33
-28.03
-26.84
-20.77
-10.04
4.06
20.54
38.19
55.92
72.79
87.76
99.75
106.98
108.07
101.18
85.53
61.29
29.89
-5.9
-43.05
-78.15
-108.75
-132.82
-149.71
-159.49
-162.84
-160.93
-154.38
-144.22
-130.76
-114.92
-97.31
-78.72
-59.88
-41.25
-23.59
-7.25
6.66
17.47
24.32
27.17
26.68
24.09
21.04
18.49
17.05
15.89
14.1
10.4
4.48
-3.04
-11.03
-17.82
-22.62
-24.95
-25.24
-23.83
-21.12
-17.34
-12.66
-7.95
-3.78
-1.1
0.08
0.12
0.1
0.97
2.99
6.04
9.06
11.32
11.89
10.8
8.05
4.04
-0.87
-6.55
-12.39
-17.99
-22.47
-25.57
-27.16
-27.69
-27.82
-28.0
-28.61
-29.16
-29.26
-27.97
-24.82
-19.47
-12.09
-3.52
5.28
12.82
18.38
21.29
21.82
20.51
18.16
15.55
13.07
11.41
10.71
11.35
12.92
14.76
15.92
15.62
13.84
10.91
8.03
6.01
5.35
5.71
6.22
6.08
4.58
2.01
-1.38
-4.59
-7.22
-8.9
-9.67
-10.05
-10.35
-11.27
-12.55
-14.2
-15.51
-16.45
-17.04
-17.42
-17.9
-18.12
-17.78
-16.06
-12.98
-8.85
-4.92
-2.56
-2.45
-4.77
-8.67
-13.44
-18.24
-22.8
-26.78
-29.64
-30.95
-29.95
-26.86
-21.89
-16.27
-10.84
-6.31
-2.88
-0.25
1.35
1.95
0.65
-2.78
-8.79
-17.02
-26.83
-37.18
-46.37
-52.66
-53.78
-48.67
-37.15
-20.97
-2.92
14.04
27.67
37.53
43.84
47.76
49.52
48.89
45.3
38.52
29.56
19.89
11.67
5.9
2.95
1.92
1.76
1.66
1.07
0.17
-1.18
-2.8
-5.05
-7.83
-11.1
-14.38
-17.05
-18.85
-19.39
-19.04
-17.98
-16.99
-16.61
-17.48
-19.88
-23.44
-27.56
-30.93
-32.7
-32.08
-29.15
-24.46
-18.87
-13.67
-9.61
-7.59
-7.54
-9.3
-11.9
-14.2
-15.27
-14.39
-11.91
-8.27
-4.55
-1.24
1.11
2.52
3.19
3.3
3.45
3.86
5.01
6.54
8.08
8.73
8.02
6.02
3.22
0.87
-0.52
-0.56
-0.13
-0.1
-1.35
-4.16
-7.8
-11.72
-14.92
-17.36
-19.06
-20.37
-21.26
-21.17
-19.73
-16.4
-11.83
-6.77
-2.65
-0.17
0.66
0.59
0.82
1.93
4.19
6.77
9.13
10.64
11.4
11.85
12.07
12.12
11.37
9.91
7.71
5.85
5.21
6.15
8.26
9.99
10.13
7.72
3.32
-2.27
-7.86
-12.81
-17.03
-20.13
-21.82
-21.24
-18.3
-13.56
-8.6
-4.9
-3.23
-3.42
-4.34
-5.25
-5.62
-5.89
-6.38
-7.14
-7.76
-7.43
-6.23
-4.33
-2.83
-2.24
-2.77
-3.85
-4.61
-4.63
-3.58
-2.22
-0.75
0.16
0.56
0.48
0.09
-0.22
-0.37
0.15
1.32
3.3
5.39
6.93
7.06
5.17
1.62
-2.96
-7.11
-9.99
-10.93
-10.29
-8.92
-7.58
-7.14
-7.45
-8.41
-9.21
-9.49
-8.84
-7.19
-4.8
-1.69
1.4
4.23
5.81
5.91
4.41
1.87
-0.79
-2.96
-4.0
-4.23
-3.51
-2.37
-0.75
1.24
3.35
5.32
6.32
6.32
5.2
3.81
2.69
2.51
3.31
4.59
5.83
5.93
4.64
1.68
-2.38
-6.76
-10.64
-13.2
-14.59
-14.81
-14.65
-14.22
-13.64
-12.76
-11.63
-10.91
-11.12
-12.97
-15.8
-18.77
-20.11
-18.76
-14.42
-7.71
-0.3
6.46
11.18
13.62
13.41
11.09
7.02
1.87
-3.12
-7.0
-8.58
-7.64
-4.32
0.14
4.42
7.33
8.14
7.33
5.45
3.62
2.19
1.34
0.76
0.06
-0.77
-1.82
-2.44
-2.73
-2.53
-2.42
-2.7
-3.46
-4.62
-5.52
-6.08
-5.97
-5.82
-5.71
-5.92
-6.28
-6.37
-6.05
-4.98
-3.5
-1.54
0.37
2.15
3.5
4.1
3.88
2.57
0.72
-1.43
-3.17
-4.24
-4.5
-3.96
-3.07
-2.01
-1.57
-1.9
-3.22
-4.86
-5.91
-5.57
-3.35
0.15
4.1
6.83
7.53
5.77
2.4
-1.14
-3.59
-3.98
-2.65
-0.11
2.17
3.45
3.18
1.67
-0.2
-1.8
-2.4
-2.49
-2.43
-2.96
-4.3
-6.35
-8.66
-10.45
-11.43
-11.11
-9.86
-7.88
-5.52
-3.03
-0.39
2.2
4.6
5.95
5.96
4.2
0.97
-2.85
-6.33
-8.45
-9.15
-8.53
-7.58
-6.69
-6.19
-5.85
-5.1
-3.71
-1.23
1.93
5.43
8.29
9.94
9.89
8.11
5.21
1.7
-1.35
-3.7
-5.04
-5.78
-6.33
-7.13
-8.43
-9.97
-11.81
-13.49
-15.15
-16.47
-17.2
-17.02
-15.58
-13.22
-10.2
-7.48
-5.3
-3.83
-2.62
-1.21
0.16
1.12
0.66
-1.32
-4.51
-7.33
-8.1
-5.49
0.87
9.67
19.4
27.78
33.73
36.46
36.22
33.53
29.05
23.59
17.43
11.36
5.44
0.22
-4.22
-7.81
-10.45
-12.14
-12.39
-11.11
-7.8
-2.91
3.06
9.08
13.77
16.15
15.42
11.89
6.0
-0.88
-7.78
-13.73
-17.94
-20.23
-20.28
-18.81
-16.25
-13.66
-11.28
-9.19
-7.02
-4.29
-1.34
1.59
3.33
3.58
1.99
-0.79
-3.95
-6.89
-8.82
-9.78
-9.4
-8.08
-5.93
-3.62
-1.76
-0.77
-0.87
-1.3
-1.85
-1.93
-1.9
-2.12
-3.04
-4.73
-6.56
-8.02
-8.05
-6.73
-4.05
-0.86
2.12
4.2
4.86
4.32
2.6
0.7
-1.05
-2.19
-2.85
-3.65
-5.03
-7.29
-9.62
-11.51
-11.93
-10.84
-8.53
-5.64
-2.91
-0.37
1.96
4.57
7.28
10.1
12.45
14.11
15.15
15.55
15.85
15.9
15.91
15.56
15.04
14.3
13.38
12.46
11.22
10.01
8.79
8.07
7.87
8.19
8.47
7.65
5.26
0.68
-5.37
-12.03
-17.9
-21.93
-23.58
-22.83
-20.31
-16.59
-12.7
-8.91
-5.82
-3.41
-1.45
0.22
2.04
3.65
4.89
4.91
3.6
0.92
-2.48
-5.63
-8.1
-9.54
-10.5
-11.05
-11.51
-11.29
-9.87
-7.03
-2.73
2.15
6.97
10.76
13.27
14.08
13.32
11.13
7.84
4.32
0.82
-2.18
-5.02
-7.87
-10.95
-13.84
-15.59
-15.67
-13.55
-10.27
-6.94
-5.13
-5.6
-8.2
-12.14
-16.24
-20.11
-23.46
-27.0
-30.97
-35.59
-40.64
-45.44
-49.21
-51.0
-50.62
-47.76
-43.12
-37.16
-30.67
-24.63
-19.71
-16.61
-15.29
-15.97
-18.12
-21.54
-25.8
-30.59
-36.26
-42.93
-50.09
-56.01
-58.94
-57.27
-50.77
-40.91
-30.43
-22.99
-20.85
-23.34
-27.2
-28.92
-26.3
-19.84
-12.22
-6.63
-5.7
-9.66
-14.62
-15.43
-8.32
7.77
31.44
60.41
93.18
128.36
164.36
201.45
238.77
274.49
306.82
336.13
365.75
401.02
445.75
479.37
482.37
443.13
366.02
267.39
165.6
73.11
-4.82
-68.93
-122.98
-167.36
-201.48
-224.75
-238.79
-247.35
-255.04
-265.61
-282.31
-305.43
-329.53
-347.37
-352.34
-340.91
-313.27
-272.45
-222.94
-167.7
-112.69
-61.11
-14.08
28.51
66.55
99.06
124.47
141.17
148.58
147.18
139.99
130.85
122.99
118.37
117.56
120.3
125.52
131.25
134.0
130.0
116.08
91.52
59.37
26.02
-0.99
-16.18
-18.31
-10.65
1.3
12.64
20.76
25.33
27.02
26.42
23.32
17.21
8.16
-2.57
-12.64
-19.68
-21.97
-19.52
-13.59
-6.07
1.21
7.27
12.15
16.88
22.72
30.72
40.78
52.23
64.07
75.4
85.89
95.62
105.17
115.26
126.42
138.26
150.1
161.12
170.53
177.74
182.16
183.14
179.45
173.66
166.47
158.06
148.63
138.36
127.54
116.52
105.75
95.71
86.81
78.9
71.77
65.3
59.29
53.58
47.97
42.36
36.76
31.24
25.61
19.81
13.98
8.28
2.93
-1.83
-5.78
-8.73
-10.58
-11.56
-11.88
-11.71
-11.14
-10.28
-9.09
-7.53
-5.56
-3.17
-0.51
2.29
5.1
7.83
10.37
12.65
14.57
16.0
16.68
16.34
14.8
12.02
8.16
3.56
-1.35
-6.21
-10.81
-15.24
-19.84
-24.98
-30.99
-37.86
-45.21
-52.58
-59.59
-66.23
-72.92
-80.39
-89.39
-100.3
-112.76
-125.73
-137.91
-148.22
-156.44
-163.27
-170.16
-178.77
-190.19
-204.42
-220.54
-236.99
-252.37
-266.16
-278.69
-291.06
-304.87
-321.83
-343.41
-370.01
-400.22
-429.94
-452.76
-461.13
-448.74
-413.25
-357.72
-290.16
-220.99
-159.76
-112.54
-81.23
-64.53
-59.57
-63.42
-73.28
-86.27
-98.75
-106.27
-104.58
-90.97
-65.3
-30.56
7.95
44.47
74.16
94.18
103.9
104.0
95.53
79.44
56.73
29.19
0.22
-25.44
-42.64
-47.34
-38.08
-16.5
12.88
43.98
70.66
88.47
95.31
91.73
80.27
64.55
48.46
35.55
28.77
30.04
40.12
57.86
80.25
102.62
119.71
127.2
122.71
106.76
82.01
52.53
22.49
-4.5
-25.89
-40.0
-45.94
-43.89
-35.01
-21.95
-8.1
3.06
9.1
9.39
5.05
-1.47
-7.85
-12.54
-15.37
-16.88
-17.53
-17.31
-15.4
-10.88
-3.23
7.05
18.77
30.4
40.6
48.93
55.31
59.95
62.66
62.78
59.44
52.59
42.99
32.22
22.22
14.31
9.14
6.51
5.76
6.34
8.14
11.17
15.23
19.82
24.12
27.39
29.0
28.62
26.07
21.32
14.44
5.62
-4.53
-15.1
-24.92
-32.73
-37.4
-38.2
-34.8
-27.54
-17.35
-5.64
5.7
14.83
20.56
22.57
21.41
18.2
14.08
10.01
6.38
3.34
1.0
-0.23
0.15
2.33
5.83
9.78
13.16
15.22
15.74
14.85
12.82
9.85
6.01
1.55
-2.8
-6.31
-8.31
-8.74
-8.33
-8.14
-9.08
-11.43
-14.63
-17.55
-19.27
-19.0
-16.33
-11.01
-2.95
7.77
20.52
34.2
47.42
58.68
67.0
71.86
73.07
70.53
64.18
54.26
41.71
28.46
16.99
9.7
8.1
12.23
21.0
32.44
44.33
54.58
61.3
62.93
58.56
48.25
33.26
16.04
-1.07
-16.61
-30.71
-44.93
-60.88
-79.06
-98.31
-116.12
-129.54
-136.42
-135.52
-126.55
-109.8
-85.78
-55.61
-21.34
14.0
46.99
74.6
95.07
108.05
114.18
114.4
109.31
99.17
84.28
65.45
44.2
22.82
3.77
-10.79
-19.24
-20.77
-15.42
-3.92
12.09
30.3
48.2
63.42
74.32
80.33
81.74
79.33
74.02
66.43
56.74
44.9
30.7
14.0
-5.04
-25.75
-46.65
-65.46
-79.45
-86.02
-83.36
-71.15
-50.88
-25.57
0.84
24.56
42.75
53.98
58.18
56.17
49.29
38.92
26.61
14.19
3.79
-2.56
-3.58
0.55
7.97
15.64
20.23
19.49
12.87
1.68
-11.61
-24.45
-35.02
-42.71
-47.82
-51.08
-52.97
-53.61
-52.96
-50.9
-47.68
-43.85
-40.1
-36.94
-34.56
-32.68
-30.79
-28.41
-25.3
-21.53
-17.59
-14.12
-11.57
-9.93
-8.71
-7.24
-5.03
-2.14
1.02
3.96
6.36
8.16
9.47
10.25
10.21
9.1
7.05
4.8
3.66
4.85
8.98
15.79
24.31
33.15
41.04
46.98
50.33
50.81
48.29
43.07
35.79
27.4
18.95
11.3
4.87
-0.27
-4.45
-8.21
-11.92
-15.71
-19.49
-22.89
-25.43
-26.94
-27.29
-26.56
-24.75
-21.61
-16.87
-10.55
-3.09
4.8
12.16
18.4
23.38
27.39
30.88
34.1
36.86
38.58
38.65
36.65
32.67
27.41
21.9
17.24
14.18
12.89
13.0
14.01
15.48
17.35
19.72
22.48
25.2
27.0
27.03
24.82
20.7
15.46
10.08
5.08
0.26
-4.86
-10.77
-17.36
-23.95
-29.65
-33.94
-36.98
-39.3
-41.49
-43.51
-44.73
-44.22
-41.41
-36.52
-30.35
-23.89
-17.63
-11.58
-5.44
0.8
6.64
11.28
14.16
15.47
16.0
16.74
17.92
19.04
19.08
17.43
14.53
11.6
10.16
10.85
13.15
15.55
16.62
15.8
13.72
11.61
10.26
9.45
7.9
4.27
-2.11
-10.6
-19.64
-27.53
-33.26
-37.03
-39.85
-42.84
-46.51
-50.79
-55.25
-59.6
-63.9
-68.29
-72.89
-77.44
-81.29
-83.5
-83.43
-80.96
-76.42
-70.3
-63.07
-55.27
-47.53
-40.6
-35.03
-31.32
-29.6
-29.75
-30.83
-31.73
-31.95
-31.68
-31.72
-32.88
-35.97
-41.27
-48.92
-57.41
-64.83
-69.9
-72.38
-72.97
-72.64
-72.86
-74.92
-80.01
-86.87
-93.45
-98.39
-101.31
-101.85
-98.57
-88.98
-70.25
-40.68
1.96
57.7
123.02
192.0
258.65
318.93
370.93
413.75
432.76
416.57
364.73
289.48
207.46
130.67
64.55
10.05
-33.36
-70.06
-100.2
-121.79
-133.59
-135.87
-130.14
-118.25
-100.93
-80.17
-58.25
-34.87
-9.09
19.32
49.49
80.0
109.88
138.8
166.07
190.12
209.69
222.65
226.39
219.03
200.81
174.72
145.5
117.3
92.27
70.7
51.09
31.55
11.15
-9.19
-27.38
-41.56
-51.4
-58.16
-63.25
-67.56
-70.72
-71.9
-70.41
-66.56
-61.75
-57.83
-56.13
-56.92
-59.93
-64.82
-71.58
-79.99
-89.25
-97.6
-102.76
-102.83
-97.21
-86.85
-73.75
-60.0
-46.94
-34.94
-23.65
-12.6
-1.75
8.27
16.56
22.44
26.13
28.64
31.25
34.59
38.1
40.14
38.81
33.17
23.9
13.3
4.21
-1.22
-2.59
-1.04
1.48
3.61
5.17
6.82
9.4
12.98
16.71
19.43
20.48
20.13
19.38
19.22
19.85
20.74
21.1
20.52
19.35
18.49
18.78
20.5
23.23
26.01
27.89
28.35
27.42
25.69
23.96
22.88
22.8
23.57
24.66
25.55
25.98
26.08
26.38
27.29
28.83
30.51
31.63
31.43
29.49
25.94
21.23
16.28
11.96
9.13
8.19
9.08
10.92
12.39
11.89
7.69
-1.58
-16.89
-37.91
-62.54
-86.71
-105.4
-114.44
-112.88
-103.94
-94.08
-90.42
-97.63
-116.47
-144.16
-176.41
-209.34
-240.5
-268.12
-289.82
-302.07
-300.97
-283.84
-250.74
-204.67
-150.65
-93.96
-38.85
12.12
57.7
97.45
131.27
159.53
183.18
203.79
223.24
242.96
263.24
282.79
299.12
309.47
311.86
305.63
291.72
272.14
249.28
225.22
201.39
178.34
155.74
132.42
106.8
77.71
45.33
11.68
-19.67
-45.0
-62.02
-70.72
-73.2
-72.5
-71.07
-70.08
-69.51
-68.98
-68.19
-67.12
-65.74
-63.66
-60.4
-56.03
-51.96
-50.8
-55.7
-68.71
-89.63
-115.47
-141.1
-160.82
-170.12
-167.04
-152.5
-129.58
-102.18
-73.86
-46.93
-22.6
-1.2
17.32
33.08
46.11
56.34
63.5
67.05
66.36
61.13
51.73
39.58
26.81
15.64
7.86
4.34
5.02
9.03
15.26
22.57
30.01
36.9
42.87
47.72
51.47
54.18
55.96
56.85
56.81
55.77
53.71
50.67
46.65
41.62
35.54
28.55
21.03
13.55
6.78
1.21
-3.13
-6.77
-10.44
-14.63
-19.1
-22.84
-24.54
-23.25
-18.84
-12.18
-4.81
1.95
7.35
11.42
14.65
17.4
19.69
21.0
20.48
17.34
11.31
2.75
-7.19
-16.93
-24.93
-30.17
-32.52
-32.73
-32.0
-31.42
-31.61
-32.64
-34.17
-35.86
-37.46
-38.99
-40.52
-42.09
-43.74
-45.43
-47.2
-48.91
-50.27
-50.56
-48.94
-44.49
-36.7
-25.89
-13.15
-0.09
11.68
21.01
27.63
31.88
34.49
36.14
37.03
37.08
36.03
33.81
30.65
27.0
23.37
20.22
17.78
15.9
14.44
13.08
11.68
10.36
9.33
8.84
9.05
9.85
10.79
11.5
11.55
10.83
9.41
7.39
4.69
1.34
-2.57
-6.5
-9.44
-10.28
-8.12
-2.82
4.89
13.53
21.63
28.13
32.65
35.65
37.65
39.08
40.04
40.26
39.47
37.5
34.46
30.62
26.56
22.8
19.75
17.61
16.27
15.43
14.61
13.42
11.53
8.93
5.55
1.44
-3.35
-8.76
-14.53
-20.35
-25.86
-31.03
-35.81
-40.35
-44.6
-48.07
-50.01
-49.54
-46.0
-39.35
-30.26
-19.82
-9.36
0.1
7.91
13.91
18.08
20.48
21.12
20.13
17.82
14.66
11.19
7.83
4.82
2.2
-0.09
-2.17
-4.06
-5.79
-7.52
-9.54
-12.01
-15.06
-18.54
-22.16
-25.64
-28.84
-31.8
-34.78
-38.09
-42.01
-46.74
-52.21
-58.05
-63.48
-67.46
-68.87
-66.83
-61.01
-51.9
-40.68
-28.83
-17.74
-8.26
-0.73
4.93
9.0
11.62
12.78
12.38
10.38
7.03
2.79
-1.6
-5.43
-8.11
-9.46
-9.58
-8.87
-7.71
-6.47
-5.42
-4.68
-4.39
-4.67
-5.59
-7.14
-9.23
-11.6
-14.08
-16.63
-19.18
-21.67
-23.74
-24.68
-23.6
-19.49
-11.7
-0.06
14.79
31.67
49.08
65.68
80.49
92.97
102.89
110.29
115.35
118.42
120.09
120.97
121.63
122.49
123.61
124.86
126.11
127.25
128.09
128.27
127.08
123.7
117.59
108.67
97.38
84.47
70.63
56.44
42.23
28.37
15.17
2.66
-9.9
-24.08
-41.9
-64.86
-92.86
-124.05
-155.15
-182.46
-202.89
-214.73
-217.67
-212.59
-201.23
-186.07
-170.0
-155.59
-144.29
-135.87
-128.77
-121.22
-112.43
-103.09
-94.9
-89.5
-87.55
-88.62
-92.23
-98.65
-109.14
-124.97
-146.05
-170.12
-193.63
-213.79
-230.27
-245.21
-261.1
-278.15
-293.04
-300.27
-294.97
-275.75
-245.52
-209.5
-172.06
-134.65
-95.92
-53.92
-8.7
36.88
78.42
112.31
137.75
156.94
173.72
191.58
212.45
236.28
261.44
285.5
305.88
320.48
327.84
327.44
319.49
304.8
284.65
260.73
235.11
210.23
188.8
173.14
164.53
162.73
165.92
171.58
177.5
182.47
186.54
190.45
194.9
199.91
204.82
208.35
208.98
204.94
194.33
175.24
146.3
107.39
59.96
6.83
-49.02
-105.61
-162.37
-218.99
-273.89
-322.62
-358.01
-372.25
-360.12
-321.71
-263.11
-194.41
-126.01
-65.28
-15.21
25.0
57.59
84.06
104.44
118.0
124.66
125.79
123.85
121.05
118.45
115.82
112.44
107.91
102.13
94.57
83.01
63.65
32.77
-10.46
-61.94
-112.79
-152.35
-172.62
-171.37
-153.16
-126.78
-101.12
-81.57
-68.69
-58.99
-47.34
-29.63
-3.77
29.92
69.45
111.85
153.56
190.5
218.43
233.62
233.68
218.53
190.64
154.79
116.97
82.68
55.7
37.53
27.31
22.59
20.31
17.87
13.99
9.29
5.54
4.79
8.12
14.77
22.23
27.33
27.4
21.34
10.06
-4.09
-17.94
-28.24
-32.71
-31.1
-25.71
-21.39
-23.85
-37.32
-62.32
-95.22
-129.89
-160.54
-184.23
-201.45
-214.68
-225.86
-234.63
-238.41
-234.19
-220.78
-199.74
-174.75
-149.86
-127.75
-109.12
-93.07
-78.45
-64.88
-53.2
-44.97
-41.69
-43.88
-50.71
-60.27
-70.07
-77.7
-81.31
-79.96
-73.62
-63.23
-50.28
-36.47
-23.57
-12.97
-5.64
-1.98
-1.72
-3.88
-6.87
-8.73
-7.5
-2.0
7.85
20.95
35.29
48.78
59.72
67.09
70.62
70.65
67.86
63.28
58.16
53.55
50.27
48.59
48.15
48.29
48.5
48.58
48.77
49.39
50.44
51.59
52.22
51.66
49.58
46.2
42.13
38.12
34.71
31.92
29.31
26.16
21.69
15.44
7.55
-1.13
-9.17
-14.78
-16.34
-12.96
-4.61
7.69
22.57
38.62
55.03
71.81
89.62
109.12
130.17
151.33
169.85
182.25
185.22
176.86
157.6
130.36
99.88
71.41
49.03
34.33
25.69
18.52
6.91
-14.37
-48.12
-93.81
-147.99
-205.78
-262.71
-315.79
-363.46
-404.64
-437.73
-460.5
-470.63
-466.96
-450.05
-422.06
-385.72
-343.26
-296.09
-245.28
-192.74
-141.44
-95.44
-58.06
-30.68
-11.9
1.78
14.32
28.61
45.1
62.35
77.57
88.29
93.04
91.53
84.55
73.58
60.94
49.42
41.96
40.37
44.63
52.51
60.41
65.0
64.47
59.19
51.01
42.06
33.45
25.04
16.07
5.93
-5.02
-16.1
-26.66
-36.7
-46.65
-56.53
-65.36
-70.74
-69.81
-60.13
-41.07
-13.94
18.46
52.91
86.77
118.37
146.8
171.28
190.86
204.43
211.36
211.95
207.58
200.49
192.95
186.69
182.38
179.65
177.16
173.17
165.79
153.51
135.95
113.84
89.03
64.11
41.73
23.89
11.4
3.59
-1.53
-6.63
-14.29
-26.01
-41.47
-58.53
-73.82
-83.83
-85.97
-79.12
-63.7
-41.51
-15.15
12.23
37.15
56.53
68.4
72.45
70.04
63.6
55.56
47.72
41.12
36.13
32.94
31.61
31.62
31.79
30.38
25.83
17.7
7.03
-4.01
-12.77
-17.07
-15.86
-9.16
1.86
15.32
28.96
40.42
47.79
50.36
48.62
44.08
38.67
33.99
30.89
29.63
30.26
32.88
37.81
45.11
54.25
63.98
72.54
78.17
79.61
76.34
68.47
56.43
40.71
22.16
2.09
-17.55
-34.5
-46.76
-53.18
-53.74
-49.26
-41.07
-30.26
-17.61
-3.8
10.2
22.97
32.64
37.32
35.7
27.29
12.75
-6.26
-27.31
-47.51
-63.96
-74.21
-76.62
-70.74
-57.41
-38.6
-16.97
4.83
24.52
40.47
51.73
57.81
58.65
54.43
45.79
33.88
20.36
7.2
-3.72
-10.9
-13.52
-11.44
-5.29
3.82
14.5
25.22
34.42
40.69
42.82
39.86
31.43
17.71
-0.31
-20.9
-41.65
-59.93
-73.36
-80.41
-80.71
-74.9
-64.4
-50.84
-35.85
-20.84
-7.13
4.01
11.17
13.23
9.99
2.36
-7.36
-16.28
-21.79
-22.34
-17.81
-9.44
0.98
11.81
21.85
30.43
37.04
41.16
42.33
40.32
35.27
27.73
18.38
7.85
-3.34
-14.59
-25.05
-33.66
-39.61
-42.57
-43.02
-41.98
-40.57
-39.48
-38.79
-38.09
-36.77
-34.5
-31.14
-26.67
-21.14
-14.56
-6.98
1.37
10.14
18.93
27.28
34.76
41.07
45.95
49.35
51.46
52.53
52.68
51.78
49.36
44.76
37.65
28.2
17.4
6.73
-2.29
-8.7
-12.34
-13.85
-14.44
-15.34
-17.62
-21.95
-28.65
-37.74
-48.8
-60.92
-72.6
-81.97
-87.2
-86.97
-80.99
-69.85
-54.95
-37.97
-20.46
-3.65
11.57
