8.02
5.41
2.63
-0.15
-2.76
-5.04
-6.98
-8.63
-10.22
-11.89
-13.82
-16.16
-18.78
-21.44
-23.55
-24.43
-23.37
-19.91
-14.0
-6.18
2.66
11.5
19.48
26.02
30.75
33.58
34.48
33.48
30.8
26.9
22.4
18.02
14.41
11.86
10.57
10.51
11.53
13.45
16.0
18.82
21.5
23.61
24.76
24.71
23.33
20.64
16.78
11.98
6.61
1.05
-4.37
-9.46
-14.14
-18.49
-22.68
-26.81
-30.93
-34.88
-38.2
-40.24
-40.29
-37.71
-32.32
-24.54
-15.17
-5.36
3.81
11.64
17.75
21.92
24.17
24.51
23.21
20.82
18.1
15.87
14.74
14.98
16.32
18.22
20.07
21.42
22.09
22.02
21.25
19.92
18.18
16.29
14.57
13.38
12.95
13.43
14.63
16.18
17.58
18.27
17.65
15.26
10.85
4.44
-3.4
-11.91
-20.11
-26.99
-31.7
-33.73
-32.9
-29.34
-23.61
-16.38
-8.65
-1.51
4.2
7.93
9.56
9.32
7.54
4.51
0.58
-3.81
-7.93
-10.76
-11.36
-9.19
-4.43
1.95
8.43
13.55
16.05
15.08
10.2
1.34
-11.13
-26.22
-42.53
-58.47
-72.69
-84.39
-93.38
-99.68
-103.21
-103.62
-100.46
-93.57
-83.35
-70.55
-56.17
-40.92
-25.22
-9.3
6.55
21.85
36.22
49.42
61.45
72.11
80.88
86.79
88.87
86.76
81.09
73.58
66.35
61.22
58.99
59.57
62.22
66.26
71.27
77.02
83.11
88.85
93.32
95.8
96.35
95.92
95.95
97.63
101.27
106.07
110.47
112.54
110.81
104.97
96.22
86.92
80.15
78.77
84.47
96.97
112.77
126.56
133.27
130.5
119.89
106.55
96.95
96.4
107.03
125.7
146.18
161.8
167.77
161.84
143.64
113.5
72.23
21.29
-38.84
-107.16
-181.48
-258.13
-332.9
-402.31
-464.62
-519.33
-555.19
-561.23
-532.06
-472.66
-395.68
-314.03
-236.01
-165.5
-103.5
-49.56
-4.88
29.35
52.93
67.72
77.31
85.56
95.22
107.86
124.32
143.27
162.82
181.26
197.96
213.25
228.5
242.8
254.65
262.32
263.64
257.12
242.61
221.62
197.19
173.19
152.79
138.73
132.59
134.25
142.55
156.27
173.48
192.21
210.31
225.39
235.33
238.24
232.12
214.7
188.92
157.24
122.51
87.6
55.34
27.96
6.92
-7.96
-17.42
-22.53
-25.02
-26.87
-30.03
-35.88
-44.95
-56.39
-70.35
-85.08
-97.14
-102.65
-98.48
-83.12
-57.23
-23.42
14.76
48.74
71.29
77.75
65.52
32.72
-22.35
-100.88
-202.51
-323.81
-464.91
-620.71
-780.27
-929.01
-1053.16
-1143.03
-1193.72
-1204.36
-1176.7
-1123.23
-1054.92
-978.83
-898.77
-818.59
-744.27
-683.13
-641.63
-570.45
-448.85
-285.87
-112.5
43.63
173.39
282.18
378.51
466.83
545.82
602.46
628.16
623.83
599.25
566.81
535.49
508.99
487.34
469.41
448.18
420.47
387.99
355.56
327.4
304.72
286.23
270.16
255.63
238.84
218.42
195.68
173.6
154.6
139.16
126.3
114.83
104.13
92.43
79.17
65.14
51.82
40.42
31.11
23.27
16.2
9.52
2.5
-5.17
-13.43
-22.06
-30.97
-40.45
-50.98
-62.75
-75.5
-88.42
-100.35
-109.93
-116.58
-118.82
-115.74
-106.95
-92.65
-73.59
-50.95
-26.35
-1.54
21.77
42.19
58.59
70.29
77.13
79.31
77.35
71.93
63.85
53.82
42.64
30.84
18.91
7.3
-3.48
-13.02
-20.92
-26.88
-30.75
-32.49
-32.34
-30.81
-28.65
-26.5
-25.1
-25.16
-27.26
-31.77
-38.82
-48.23
-59.61
-72.47
-85.9
-99.02
-111.05
-121.4
-129.72
-135.86
-139.9
-142.08
-142.74
-141.91
-139.65
-135.88
-130.48
-123.33
-114.17
-102.78
-88.72
-74.21
-60.63
-49.25
-41.05
-36.64
-36.29
-39.78
-46.56
-55.8
-66.55
-77.44
-87.32
-95.2
-100.34
-102.27
-100.74
-95.91
-88.16
-78.04
-65.9
-52.14
-36.98
-20.54
-2.8
16.29
36.52
57.31
77.85
97.27
114.68
129.49
141.52
151.05
158.67
165.07
170.79
176.17
181.42
186.66
192.11
198.07
204.93
213.23
223.57
236.67
253.05
272.63
294.16
315.05
331.7
340.53
339.17
327.24
306.35
279.41
249.52
219.22
190.18
163.33
139.31
118.62
101.43
87.38
75.47
64.43
53.22
41.55
30.02
19.75
12.07
7.77
6.9
8.76
12.09
15.44
17.5
17.43
14.97
10.63
5.43
0.59
-2.94
-5.12
-6.91
-10.07
-16.33
-26.59
-40.21
-55.03
-68.04
-76.43
-78.75
-75.33
-67.99
-59.07
-50.4
-42.36
-34.08
-24.25
-11.96
2.38
17.34
30.85
41.08
46.97
48.36
45.74
40.18
34.06
30.89
34.71
48.03
69.53
93.13
109.32
108.89
87.25
47.19
-1.97
-48.12
-81.38
-97.53
-98.44
-89.72
-77.4
-65.58
-55.82
-48.52
-44.13
-43.63
-48.21
-58.19
-72.26
-87.43
-99.95
-106.63
-106.19
-99.52
-89.08
-77.95
-68.39
-61.25
-55.91
-51.03
-45.35
-38.49
-31.02
-24.14
-19.02
-16.25
-15.61
-16.23
-17.23
-18.11
-19.1
-20.85
-24.1
-29.16
-35.78
-43.18
-50.36
-56.46
-60.85
-63.17
-63.13
-60.53
-55.35
-47.88
-38.79
-29.04
-19.64
-11.38
-4.69
0.29
3.67
5.6
6.33
6.22
5.75
5.43
5.66
6.54
7.77
8.91
9.42
9.02
7.62
5.37
2.48
-0.85
-4.4
-8.02
-11.39
-14.19
-16.05
-16.82
-16.59
-15.67
-14.48
-13.36
-12.49
-11.86
-11.38
-11.06
-10.98
-11.35
-12.34
-14.02
-16.36
-19.2
-22.27
-25.24
-27.59
-28.78
-28.38
-26.16
-22.25
-17.05
-11.14
-5.09
0.56
5.52
9.63
12.82
15.12
16.61
17.41
17.71
17.74
17.67
17.61
17.58
17.5
17.25
16.75
15.92
14.79
13.47
12.07
10.68
9.25
7.72
6.0
4.03
1.85
-0.49
-2.87
-5.26
-7.59
-9.85
-11.99
-13.87
-15.4
-16.43
-16.77
-16.16
-14.32
-11.04
-6.32
-0.53
5.69
11.52
16.22
19.41
21.07
21.42
20.84
19.66
18.08
16.2
14.05
11.74
9.45
7.4
5.77
4.7
4.23
4.2
4.42
4.6
4.55
4.18
3.52
2.65
1.61
0.43
-0.92
-2.46
-4.18
-5.98
-7.79
-9.6
-11.43
-13.25
-14.86
-15.93
-16.01
-14.78
-12.13
-8.28
-3.75
0.83
4.9
8.02
10.07
11.15
11.47
11.31
10.86
10.28
9.61
8.85
8.03
7.2
6.49
5.99
5.78
5.88
6.24
6.76
7.31
7.78
8.0
7.85
7.22
6.07
4.47
2.54
0.44
-1.72
-3.94
-6.25
-8.7
-11.33
-14.01
-16.55
-18.61
-19.8
-19.74
-18.21
-15.26
-11.16
-6.48
-1.77
2.46
5.95
8.58
10.4
11.46
11.81
11.54
10.77
9.74
8.67
7.81
7.25
6.99
6.96
7.02
7.1
7.1
6.99
6.78
6.44
5.99
5.32
4.43
3.25
1.8
0.11
-1.84
-4.02
-6.5
-9.28
-12.39
-15.69
-18.92
-21.71
-23.65
-24.39
-23.64
-21.35
-17.66
-12.95
-7.71
-2.48
2.32
6.34
9.35
11.25
12.0
11.68
10.49
8.66
6.44
4.0
1.46
-1.18
-3.82
-6.27
-8.22
-9.42
-9.72
-9.26
-8.36
-7.4
-6.71
-6.41
-6.45
-6.67
-6.97
-7.37
-8.0
-8.96
-10.26
-11.77
-13.29
-14.67
-15.88
-16.98
-18.02
-18.97
-19.54
-19.36
-18.13
-15.77
-12.52
-8.87
-5.39
-2.54
-0.65
0.15
-0.19
-1.69
-4.38
-8.29
-13.16
-18.48
-23.34
-26.73
-27.77
-26.12
-22.1
-16.56
-10.58
-5.04
-0.44
3.11
5.74
7.64
8.91
9.69
10.24
10.88
11.92
13.48
15.39
17.32
18.81
19.46
18.96
17.26
14.51
11.1
7.55
4.48
2.41
1.63
2.25
4.05
6.73
9.88
13.17
16.27
18.89
20.83
21.89
22.03
21.3
19.91
18.06
16.03
14.06
12.3
10.88
9.85
9.19
8.8
8.59
8.42
8.11
7.52
6.54
5.16
3.4
1.47
-0.44
-2.14
-3.57
-4.81
-6.07
-7.56
-9.41
-11.63
-14.01
-16.26
-17.96
-18.74
-18.39
-16.87
-14.38
-11.26
-7.94
-4.74
-1.87
0.6
2.65
4.27
5.43
6.12
6.34
6.15
5.66
4.91
4.06
3.16
2.33
1.69
1.28
1.01
0.75
0.3
-0.55
-1.84
-3.54
-5.54
-7.7
-9.91
-12.02
-13.94
-15.5
-16.62
-17.25
-17.49
-17.48
-17.4
-17.23
-16.7
-15.36
-12.68
-8.36
-2.46
4.47
11.57
17.94
22.91
26.37
28.69
30.59
32.8
35.9
40.08
45.28
51.27
57.9
65.28
73.82
84.03
96.41
111.16
128.06
146.21
163.84
178.35
186.65
186.03
175.05
154.12
125.52
92.87
59.9
29.57
3.52
-17.77
-34.37
-46.35
-53.75
-56.89
-56.73
-54.88
-53.14
-52.73
-53.88
-55.82
-57.43
-57.98
-57.64
-57.34
-58.05
-60.2
-63.38
-66.75
-69.62
-71.83
-73.61
-75.15
-76.31
-76.57
-75.57
-73.44
-71.03
-69.53
-69.72
-71.3
-72.77
-72.16
-67.99
-60.31
-50.81
-42.05
-36.29
-34.35
-35.35
-37.38
-38.76
-38.8
-37.92
-36.81
-35.58
-33.31
-28.4
-19.46
-6.47
9.01
24.46
37.38
46.18
50.24
49.55
44.16
34.07
19.38
0.76
-20.17
-41.03
-59.31
-73.03
-81.16
-83.43
-79.93
-70.8
-56.07
-36.15
-12.24
13.61
38.88
61.15
78.72
90.81
97.44
99.3
97.3
92.37
85.53
77.9
70.53
64.22
59.42
56.1
53.97
52.5
51.05
48.99
45.76
40.82
33.78
24.62
13.83
2.45
-8.24
-17.12
-23.56
-27.5
-29.3
-29.39
-28.05
-25.45
-21.79
-17.48
-13.16
-9.48
-6.89
-5.42
-4.77
-4.5
-4.4
-4.73
-6.12
-9.38
-14.91
-22.48
-31.07
-39.18
-45.29
-48.35
-48.07
-44.93
-39.85
-33.77
-27.43
-21.2
-15.27
-9.72
-4.67
-0.4
2.75
4.46
4.62
3.4
1.28
-1.15
-3.26
-4.62
-5.16
-5.03
-4.56
-4.09
-3.87
-4.04
-4.62
-5.53
-6.68
-7.96
-9.25
-10.41
-11.35
-12.11
-12.82
-13.71
-15.04
-16.96
-19.46
-22.23
-24.76
-26.4
-26.55
-24.89
-21.46
-16.68
-11.3
-6.17
-1.95
0.92
2.38
2.67
2.08
0.99
-0.31
-1.55
-2.55
-3.14
-3.3
-3.02
-2.34
-1.4
-0.34
0.59
1.23
1.43
1.15
0.41
-0.7
-2.08
-3.66
-5.41
-7.32
-9.37
-11.48
-13.64
-15.72
-17.58
-18.98
-19.56
-18.88
-16.62
-12.72
-7.33
-0.94
5.8
12.23
17.79
22.1
25.08
26.79
27.42
27.22
26.41
25.24
23.94
22.72
21.77
21.2
21.0
21.04
21.14
21.1
20.81
20.22
19.3
18.05
16.44
14.44
12.06
9.39
6.51
3.59
0.77
-1.85
-4.28
-6.62
-9.01
-11.52
-14.05
-16.27
-17.67
-17.75
-16.18
-12.93
-8.25
-2.6
3.49
9.5
15.04
19.8
23.58
26.26
27.79
28.2
27.6
26.27
24.53
22.78
21.35
20.42
19.98
19.84
19.74
19.39
18.65
17.51
16.1
14.53
12.98
11.51
10.11
8.68
7.11
5.31
3.31
1.16
-1.11
-3.38
-5.61
-7.8
-9.97
-12.26
-14.82
-17.8
-21.16
-24.66
-27.83
-30.1
-30.95
-30.0
-27.21
-22.76
-17.03
-10.44
-3.45
3.49
9.88
15.26
19.37
22.08
23.53
23.99
23.8
23.26
22.6
21.89
21.18
20.57
20.11
19.88
19.86
19.96
19.97
19.65
18.84
17.49
15.75
13.75
11.73
9.76
7.84
5.9
3.88
1.81
-0.27
-2.29
-4.32
-6.4
-8.58
-10.83
-13.08
-15.25
-17.26
-19.19
-21.13
-23.24
-25.59
-28.13
-30.65
-32.69
-33.7
-33.09
-30.51
-25.93
-19.79
-12.85
-5.92
0.26
5.46
9.71
13.25
16.22
18.67
20.44
21.36
21.45
20.83
19.88
18.96
18.36
18.15
18.26
18.52
18.77
18.94
18.97
18.83
18.47
17.78
16.64
15.02
12.92
10.48
7.89
5.35
3.05
1.07
-0.62
-2.14
-3.7
-5.53
-7.76
-10.35
-13.16
-15.91
-18.31
-20.25
-21.71
-22.89
-24.05
-25.47
-27.29
-29.44
-31.6
-33.28
-33.89
-32.97
-30.32
-26.07
-20.67
-14.67
-8.66
-3.05
1.94
6.2
9.8
12.71
14.87
16.22
16.77
16.58
15.96
15.31
14.98
15.24
16.11
17.33
18.53
19.39
19.7
19.45
18.79
17.92
16.99
16.05
14.95
13.5
11.56
9.15
6.4
3.65
1.15
-0.93
-2.59
-4.0
-5.34
-6.72
-8.13
-9.5
-10.7
-11.75
-12.76
-13.9
-15.39
-17.32
-19.73
-22.52
-25.47
-28.19
-30.28
-31.29
-30.79
-28.57
-24.64
-19.26
-12.93
-6.21
0.29
6.12
10.87
14.44
16.84
18.27
18.94
19.05
18.77
18.23
17.57
16.89
16.33
15.9
15.67
15.59
15.63
15.73
15.79
15.7
15.29
14.43
13.06
11.21
9.1
6.98
5.07
3.5
2.34
1.48
0.84
0.21
-0.57
-1.58
-2.88
-4.41
-6.07
-7.69
-9.2
-10.59
-11.99
-13.62
-15.65
-18.2
-21.19
-24.45
-27.74
-30.78
-33.32
-34.99
-35.42
-34.23
-31.28
-26.63
-20.71
-14.21
-7.87
-2.23
2.37
5.9
8.49
10.34
11.68
12.66
13.34
13.82
14.18
14.48
14.78
15.1
15.41
15.64
15.71
15.63
15.47
15.36
15.34
15.34
15.21
14.78
13.96
12.79
11.44
10.09
8.86
7.78
6.78
5.73
4.54
3.13
1.45
-0.51
-2.78
-5.29
-7.92
-10.53
-12.96
-15.14
-17.09
-18.91
-20.75
-22.78
-25.04
-27.44
-29.74
-31.52
-32.33
-31.73
-29.45
-25.47
-20.12
-13.95
-7.58
-1.65
3.49
7.57
10.59
12.62
13.78
14.18
13.98
13.36
12.54
11.8
11.29
11.11
11.26
11.61
11.99
12.31
12.46
12.4
12.24
11.98
11.68
11.35
10.95
10.48
9.94
9.32
8.58
7.71
6.64
5.35
3.78
1.88
-0.35
-2.88
-5.64
-8.49
-11.23
-13.72
-15.86
-17.65
-19.19
-20.54
-21.82
-23.12
-24.47
-25.87
-27.23
-28.26
-28.54
-27.65
-25.24
-21.3
-16.05
-9.97
-3.6
2.53
8.11
12.89
16.8
19.72
21.56
22.34
22.15
21.19
19.72
18.06
16.44
15.06
14.01
13.33
13.05
13.14
13.44
13.76
13.89
13.61
12.87
11.69
10.24
8.65
7.05
5.45
3.86
2.23
0.46
-1.5
-3.73
-6.23
-8.97
-11.8
-14.54
-16.99
-19.04
-20.69
-22.0
-23.11
-24.22
-25.43
-26.84
-28.37
-29.79
-30.68
-30.63
-29.23
-26.27
-21.85
-16.28
-10.06
-3.7
2.27
7.54
11.82
15.06
17.29
18.68
19.43
19.7
19.65
19.31
18.77
18.04
17.26
16.58
16.13
15.94
15.98
16.1
16.17
16.07
15.73
15.11
14.19
13.01
11.63
10.11
8.5
6.89
5.24
3.57
1.84
-0.03
-2.13
-4.49
-7.14
-10.03
-13.02
-15.95
-18.72
-21.29
-23.76
-26.3
-28.98
-31.78
-34.49
-36.7
-37.9
-37.66
-35.6
-31.68
-26.07
-19.28
-12.03
-5.12
0.79
5.3
8.34
10.14
11.04
11.39
11.36
11.02
10.39
9.59
8.84
8.42
8.61
9.5
11.02
13.01
15.2
17.39
19.36
20.93
21.92
22.27
22.02
21.27
20.17
18.85
17.38
15.77
14.0
12.08
10.02
7.84
5.57
3.18
0.66
-2.03
-4.91
-7.99
-11.22
-14.65
-18.2
-21.83
-25.36
-28.45
-30.64
-31.39
-30.23
-27.01
-21.96
-15.64
-8.81
-2.26
3.45
7.94
11.13
13.1
13.99
14.03
13.42
12.43
11.31
10.26
9.48
9.08
9.12
9.57
10.36
11.33
12.23
12.79
12.81
12.19
10.99
9.4
7.64
5.87
4.1
2.23
0.1
-2.38
-5.21
-8.27
-11.35
-14.23
-16.73
-18.78
-20.41
-21.7
-22.79
-23.82
-24.91
-26.02
-27.02
-27.59
-27.32
-25.81
-22.78
-18.16
-12.17
-5.28
1.89
8.76
14.78
19.65
23.31
25.86
27.55
28.65
29.3
29.58
29.47
28.91
27.96
26.82
25.69
24.73
23.96
23.27
22.53
21.53
20.16
18.41
16.33
14.0
11.5
8.89
6.15
3.25
0.01
-3.67
-7.85
-12.45
-17.3
-22.09
-26.49
-30.23
-33.13
-35.24
-36.74
-37.82
-38.63
-39.12
-39.0
-37.94
-35.63
-31.99
-27.16
-21.43
-15.16
-8.66
-2.21
3.89
9.26
13.52
16.42
17.91
18.2
17.65
16.65
15.53
14.5
13.7
13.19
13.06
13.3
13.83
14.44
14.85
14.81
14.15
12.93
11.26
9.37
7.43
5.47
3.43
1.24
-1.13
-3.64
-6.13
-8.44
-10.51
-12.36
-14.09
-15.78
-17.45
-19.02
-20.48
-21.82
-23.08
-24.26
-25.19
-25.52
-24.75
-22.42
-18.31
-12.59
-5.74
1.48
8.28
14.01
18.28
21.04
22.42
22.7
22.05
20.65
18.64
16.21
13.66
11.32
9.52
8.37
7.83
7.64
7.48
7.19
6.69
6.07
5.47
4.98
4.58
4.24
3.88
3.42
2.81
1.94
0.72
-0.93
-2.98
-5.35
-7.77
-10.05
-12.17
-14.17
-16.28
-18.63
-21.19
-23.66
-25.52
-26.18
-25.14
-22.24
-17.57
-11.6
-4.95
1.69
7.67
12.55
16.1
18.29
19.16
19.03
18.1
16.69
15.07
13.43
11.93
10.73
9.9
9.43
9.35
9.51
9.82
10.17
10.47
10.69
10.79
10.7
10.27
9.32
7.68
5.32
2.39
-0.77
-3.74
-6.16
-7.86
-8.97
-9.79
-10.76
-12.19
-14.2
-16.69
-19.31
-21.54
-22.82
-22.64
-20.7
-16.99
-11.79
-5.59
0.94
7.2
12.7
17.17
20.45
22.58
23.56
23.54
22.66
21.05
19.02
16.76
14.51
12.46
10.77
9.48
8.65
8.24
8.14
8.26
8.41
8.45
8.22
7.59
6.4
4.59
2.19
-0.63
-3.61
-6.45
-8.93
-10.98
-12.75
-14.57
-16.78
-19.56
-22.78
-26.03
-28.73
-30.22
-30.02
-27.87
-23.8
-18.14
-11.38
-4.15
2.86
9.04
13.96
17.36
19.29
19.97
19.69
18.77
17.37
15.61
13.56
11.36
9.13
7.15
5.63
4.71
4.34
4.37
4.57
4.72
4.68
4.38
3.8
2.93
1.8
0.41
-1.18
-2.89
-4.58
-6.18
-7.7
-9.16
-10.69
-12.41
-14.33
-16.44
-18.71
-21.02
-23.21
-25.05
-26.13
-26.11
-24.72
-21.84
-17.74
-12.9
-7.89
-3.27
0.66
3.89
6.49
8.63
10.36
11.7
12.58
13.01
13.06
12.95
12.85
12.87
13.0
13.14
13.22
13.17
12.99
12.67
12.2
11.49
10.4
8.91
6.99
4.73
2.34
-0.02
-2.18
-4.06
-5.73
-7.33
-9.08
-11.23
-13.88
-16.91
-20.05
-22.76
-24.53
-24.88
-23.46
-20.22
-15.38
-9.38
-2.82
3.69
9.61
14.57
18.38
21.03
22.58
23.17
22.99
22.21
21.0
19.56
18.0
16.47
15.07
13.91
13.11
12.76
12.87
13.43
14.39
15.63
17.02
18.45
19.85
21.18
22.36
23.31
23.89
23.96
23.4
22.23
20.54
18.47
16.18
13.75
11.21
8.53
5.74
2.95
0.46
-1.53
-2.84
-3.52
-3.74
-3.7
-3.5
-3.08
-2.38
-1.41
-0.4
0.19
-0.06
-1.31
-3.4
-5.93
-8.43
-10.61
-12.45
-14.0
-15.27
-16.05
-16.01
-14.87
-12.6
-9.46
-5.87
-2.3
0.94
3.62
5.59
6.64
6.59
5.24
2.62
-1.05
-5.3
-9.61
-13.55
-16.9
-19.66
-21.97
-24.06
-26.18
-28.52
-31.18
-34.17
-37.35
-40.39
-42.79
-43.93
-43.25
-40.43
-35.54
-29.05
-21.7
-14.29
-7.51
-1.75
2.88
6.51
9.36
11.54
13.03
13.69
13.38
12.06
9.94
7.42
4.99
3.11
2.03
1.77
2.16
3.0
4.01
4.98
5.68
5.95
5.69
4.85
3.49
1.74
-0.24
-2.33
-4.39
-6.38
-8.21
-9.85
-11.31
-12.67
-14.04
-15.56
-17.38
-19.52
-21.88
-24.19
-26.03
-26.93
-26.46
-24.33
-20.5
-15.2
-8.93
-2.27
4.11
9.64
13.92
16.84
18.49
19.16
19.25
19.1
18.96
18.91
18.93
18.92
18.81
18.5
17.95
17.18
16.22
15.18
14.19
13.39
12.84
12.47
12.08
11.4
10.21
8.41
6.04
3.24
0.21
-2.89
-5.97
-9.03
-12.11
-15.27
-18.52
-21.83
-25.01
-27.74
-29.53
-29.83
-28.24
-24.6
-19.1
-12.19
-4.58
3.08
10.16
16.22
20.97
24.19
25.82
25.98
24.98
23.21
21.17
19.16
17.4
16.0
15.0
14.37
14.07
14.01
14.01
13.89
13.46
12.69
11.64
10.46
9.26
8.02
6.61
4.91
2.8
0.28
-2.5
-5.36
-8.11
-10.67
-13.0
-15.17
-17.2
-19.14
-21.01
-22.76
-24.28
-25.38
-25.69
-24.84
-22.55
-18.74
-13.57
-7.48
-1.02
5.27
10.96
15.8
19.61
22.31
23.87
24.24
23.54
21.98
19.95
17.86
16.14
14.97
14.4
14.24
14.24
14.1
13.65
12.85
11.69
10.26
8.58
6.74
4.83
2.98
1.29
-0.19
-1.43
-2.56
-3.68
-4.89
-6.18
-7.43
-8.58
-9.58
-10.54
-11.61
-12.93
-14.47
-15.96
-16.92
-16.7
-14.83
-11.03
-5.44
1.54
9.27
17.16
24.6
30.97
35.73
38.42
38.82
37.03
33.44
28.68
23.39
18.03
12.81
7.86
3.2
-1.03
-4.61
-7.34
-9.03
-9.64
-9.35
-8.37
-6.98
-5.5
-4.15
-3.07
-2.4
-2.23
-2.6
-3.56
-5.11
-7.13
-9.54
-12.22
-15.04
-17.93
-20.67
-22.94
-24.34
-24.42
-22.9
-19.75
-15.2
-9.79
-4.15
1.16
5.74
9.41
12.21
14.21
15.45
15.97
15.73
14.7
13.05
11.0
8.8
6.69
4.79
3.08
1.56
0.16
-1.15
-2.4
-3.64
-4.99
-6.49
-8.14
-9.84
-11.43
-12.8
-13.91
-14.85
-15.78
-16.86
-18.19
-19.91
-21.98
-24.27
-26.47
-28.07
-28.45
-27.09
-23.77
-18.69
-12.46
-5.86
0.44
6.03
10.76
14.61
17.58
19.59
20.59
20.56
19.68
18.22
16.48
14.68
12.91
11.14
9.41
7.81
6.48
5.59
5.24
5.31
5.63
5.85
5.66
4.85
3.38
1.38
-0.92
-3.31
-5.59
-7.72
-9.77
-11.87
-14.17
-16.77
-19.64
-22.55
-25.12
-26.82
-27.13
-25.68
-22.34
-17.37
-11.34
-4.99
0.95
5.92
9.64
12.11
13.52
14.1
14.09
13.62
12.8
11.71
10.42
9.1
7.91
6.99
6.36
5.98
5.76
5.58
5.33
4.96
4.44
3.76
2.86
1.64
0.03
-1.93
-4.19
-6.61
-9.05
-11.45
-13.81
-16.18
-18.53
-20.72
-22.38
-23.08
-22.32
-19.82
-15.57
-9.87
-3.27
3.62
10.13
15.77
20.18
23.23
24.86
25.17
24.29
22.43
19.85
16.76
13.4
10.05
7.03
4.61
2.93
2.03
1.75
1.87
2.07
2.11
1.86
1.24
0.21
-1.29
-3.3
-5.86
-8.8
-11.96
-15.09
-18.07
-20.92
-23.78
-26.77
-29.82
-32.6
-34.49
-34.88
-33.32
-29.73
-24.4
-17.9
-10.9
-4.03
2.19
7.44
11.56
14.48
16.3
17.16
17.22
16.68
15.73
14.53
13.28
