21.5
24.72
26.52
26.94
26.11
24.25
21.72
18.96
16.36
14.22
12.72
11.87
11.55
11.62
11.96
12.44
13.04
13.57
13.83
13.64
12.79
11.25
9.05
6.43
3.64
0.99
-1.33
-3.25
-4.77
-6.06
-7.37
-8.97
-11.0
-13.45
-16.05
-18.32
-19.65
-19.51
-17.58
-13.88
-8.76
-2.84
3.15
8.61
13.04
16.23
18.17
18.97
18.84
18.03
16.71
15.07
13.34
11.78
10.62
10.05
10.12
10.68
11.46
12.05
12.15
11.62
10.55
9.12
7.53
5.88
4.14
2.17
-0.19
-3.01
-6.22
-9.66
-13.08
-16.27
-19.17
-21.78
-24.23
-26.74
-29.41
-32.18
-34.74
-36.59
-37.09
-35.69
-32.12
-26.41
-19.0
-10.55
-1.88
6.28
13.29
18.74
22.46
24.51
25.16
24.78
23.76
22.33
20.68
18.93
17.17
15.5
14.07
12.98
12.28
11.94
11.74
11.46
10.94
10.09
8.97
7.6
5.99
4.01
1.56
-1.43
-4.84
-8.39
-11.79
-14.71
-17.1
-18.98
-20.65
-22.39
-24.45
-26.94
-29.76
-32.59
-34.82
-35.73
-34.67
-31.27
-25.64
-18.25
-9.92
-1.51
6.16
12.61
17.55
20.94
22.92
23.69
23.52
22.61
21.13
19.15
16.77
14.11
11.41
9.03
7.24
6.24
5.98
6.31
6.99
7.79
8.52
8.98
9.01
8.42
7.08
4.93
2.09
-1.22
-4.65
-7.94
-10.88
-13.43
-15.71
-17.93
-20.32
-23.0
-25.93
-28.8
-31.11
-32.28
-31.73
-29.1
-24.31
-17.68
-9.82
-1.51
6.49
13.59
19.42
23.91
27.1
29.14
30.15
30.24
29.53
28.23
26.62
25.01
23.73
22.87
22.48
22.43
22.57
22.71
22.69
22.35
21.5
19.99
17.63
14.31
10.08
5.06
-0.48
-6.21
-11.79
-16.94
-21.52
-25.6
-29.39
-33.09
-36.83
-40.4
-43.32
-44.85
-44.29
-41.17
-35.46
-27.6
-18.41
-8.95
-0.23
6.93
12.02
14.95
15.99
15.65
14.55
13.2
11.86
10.65
9.58
8.64
7.81
7.09
6.34
5.4
4.19
2.74
1.3
0.18
-0.44
-0.61
-0.66
-1.04
-2.11
-3.99
-6.46
-9.16
-11.72
-13.92
-15.8
-17.56
-19.51
-21.84
-24.59
-27.51
-30.23
-32.19
-32.81
-31.65
-28.48
-23.39
-16.72
-9.04
-1.03
6.62
13.3
18.6
22.26
24.25
24.66
23.83
22.16
20.14
18.17
16.5
15.24
14.32
13.6
12.92
12.17
11.31
10.43
9.55
8.7
7.85
6.88
5.65
4.06
2.07
-0.32
-2.97
-5.79
-8.69
-11.6
-14.52
-17.52
-20.64
-23.94
-27.33
-30.56
-33.19
-34.62
-34.28
-31.82
-27.17
-20.63
-12.84
-4.61
3.26
10.1
15.48
19.2
21.26
21.88
21.43
20.35
19.02
17.79
16.78
15.99
15.28
14.53
13.68
12.82
12.07
11.47
11.08
10.73
10.25
9.42
8.15
6.44
4.4
2.16
-0.09
-2.22
-4.16
-5.99
-7.85
-9.92
-12.37
-15.18
-18.11
-20.65
-22.14
-21.94
-19.66
-15.23
-9.02
-1.66
6.06
13.41
19.78
24.79
28.17
29.84
29.81
28.24
25.42
21.75
17.7
13.7
10.16
7.26
5.08
3.53
2.52
1.89
1.52
1.27
0.92
0.21
-1.11
-3.13
-5.76
-8.69
-11.58
-14.14
-16.28
-18.11
-19.82
-21.66
-23.75
-26.08
-28.51
-30.74
-32.27
-32.52
-30.92
-27.05
-20.92
-12.93
-3.81
5.53
14.28
21.84
27.86
32.13
34.62
35.38
34.63
32.77
30.32
27.81
25.59
23.8
22.33
20.95
19.45
17.75
15.88
13.94
11.98
9.98
7.82
5.39
2.65
-0.39
-3.56
-6.69
-9.66
-12.35
-14.76
-16.99
-19.17
-21.47
-24.03
-26.85
-29.7
-32.2
-33.73
-33.68
-31.61
-27.38
-21.18
-13.55
-5.22
2.97
10.3
16.26
20.6
23.23
24.31
24.08
22.85
20.93
18.6
16.16
13.9
12.03
10.62
9.66
9.02
8.56
8.2
7.88
7.6
7.33
6.95
6.24
5.02
3.2
0.82
-1.89
-4.71
-7.45
-10.06
-12.59
-15.15
-17.87
-20.83
-24.03
-27.21
-29.91
-31.55
-31.47
-29.24
-24.81
-18.55
-11.21
-3.67
3.34
9.33
14.07
17.5
19.6
20.43
20.08
18.76
16.8
14.67
12.75
11.3
10.39
10.01
9.99
10.28
10.79
11.43
12.03
12.35
12.15
11.27
9.73
7.57
5.02
2.24
-0.61
-3.46
-6.22
-8.89
-11.51
-14.2
-17.1
-20.21
-23.35
-26.03
-27.63
-27.54
-25.36
-21.11
-15.2
-8.3
-1.19
5.42
11.03
15.4
18.43
20.18
20.71
20.19
18.82
16.85
14.59
12.34
10.37
8.84
7.84
7.33
7.25
7.46
7.82
8.11
8.11
7.61
6.43
4.55
2.03
-0.9
-4.04
-7.19
-10.2
-13.06
-15.84
-18.63
-21.56
-24.72
-27.98
-31.08
-33.41
-34.3
-33.1
-29.48
-23.59
-15.99
-7.6
0.63
7.89
13.75
18.06
20.86
22.39
22.85
22.49
21.51
20.11
18.59
17.2
16.11
15.33
14.81
14.41
14.08
13.8
13.6
13.45
13.28
12.84
11.89
10.28
8.01
5.29
2.39
-0.45
-3.08
-5.49
-7.73
-9.92
-12.21
-14.7
-17.35
-19.93
-21.96
-22.91
-22.27
-19.78
-15.5
-9.91
-3.71
2.41
7.85
12.3
15.59
17.7
18.66
18.62
17.73
16.21
14.4
12.59
11.07
9.97
9.3
8.92
8.69
8.46
8.17
7.82
7.42
6.9
6.13
4.92
3.15
0.77
-2.07
-5.14
-8.23
-11.17
-13.9
-16.4
-18.7
-20.8
-22.83
-24.9
-27.06
-29.26
-31.19
-32.31
-32.03
-29.94
-25.92
-20.31
-13.72
-6.83
-0.26
5.59
10.47
14.21
16.7
17.93
17.98
17.07
15.54
13.7
11.89
10.32
9.11
8.27
7.78
7.54
7.4
7.26
6.97
6.48
5.76
4.74
3.4
1.66
-0.48
-2.92
-5.48
-7.99
-10.32
-12.41
-14.41
-16.46
-18.7
-21.12
-23.47
-25.29
-26.02
-25.13
-22.28
-17.48
-11.11
-3.86
3.46
10.1
15.5
19.36
21.65
22.47
22.01
20.52
18.28
15.63
12.9
10.39
8.3
6.68
5.58
4.97
4.84
5.18
5.85
6.63
7.14
6.98
5.83
3.63
0.59
-2.97
-6.61
-10.03
-13.12
-15.87
-18.38
-20.75
-23.08
-25.37
-27.63
-29.73
-31.41
-32.25
-31.72
-29.38
-24.99
-18.76
-11.24
-3.26
4.32
10.82
15.83
19.31
21.37
22.21
22.05
21.16
19.79
18.23
16.71
15.38
14.31
13.46
12.76
12.14
11.55
10.97
10.3
9.44
8.21
6.5
4.22
1.47
-1.55
-4.58
-7.35
-9.69
-11.58
-13.17
-14.68
-16.39
-18.48
-20.94
-23.46
-25.51
-26.44
-25.72
-23.1
-18.69
-12.88
-6.25
0.59
7.06
12.65
17.0
19.87
21.21
21.22
20.21
18.59
16.71
14.81
13.03
11.48
10.24
9.36
8.84
8.62
8.64
8.82
9.06
9.19
9.04
8.42
7.13
5.13
2.52
-0.47
-3.55
-6.48
-9.16
-11.62
-14.03
-16.54
-19.27
-22.18
-24.97
-27.12
-28.06
-27.2
-24.26
-19.35
-12.96
-5.81
1.26
7.55
12.61
16.22
18.43
19.44
19.51
18.87
17.75
16.33
14.78
13.22
11.87
10.93
10.57
10.87
11.74
12.97
14.22
15.19
15.56
15.22
14.18
12.52
10.46
8.23
6.01
3.95
2.04
0.14
-1.95
-4.43
-7.48
-11.0
-14.7
-18.17
-20.82
-22.1
-21.61
-19.19
-15.08
-9.81
-3.99
1.68
6.63
10.53
13.21
14.66
14.92
14.09
12.34
10.01
7.42
4.97
3.06
2.07
2.2
3.48
5.63
8.18
10.63
12.64
14.24
15.72
17.38
19.35
21.43
23.25
24.38
24.62
23.88
22.3
19.93
16.72
12.7
7.99
2.9
-2.04
-6.31
-9.48
-11.3
-11.83
-11.35
-10.22
-8.77
-7.23
-5.67
-4.12
-2.64
-1.39
-0.65
-0.74
-1.8
-3.71
-6.1
-8.44
-10.26
-11.29
-11.59
-11.43
-11.14
-10.9
-10.73
-10.51
-10.19
-9.83
-9.65
-9.9
-10.69
-11.9
-13.23
-14.44
-15.43
-16.31
-17.37
-18.95
-21.21
-24.07
-27.09
-29.62
-30.95
-30.45
-27.79
-23.04
-16.72
-9.6
-2.51
3.8
8.83
12.34
14.29
14.8
14.07
12.32
9.83
6.87
3.77
0.87
-1.48
-3.08
-3.84
-3.87
-3.37
-2.66
-2.03
-1.62
-1.51
-1.74
-2.35
-3.38
-4.81
-6.57
-8.5
-10.44
-12.33
-14.21
-16.28
-18.83
-22.0
-25.68
-29.4
-32.46
-34.02
-33.49
-30.6
-25.51
-18.75
-10.98
-2.93
4.83
11.85
17.8
22.46
25.68
27.45
27.9
27.23
25.73
23.73
21.5
19.28
17.21
15.37
13.75
12.33
11.05
9.77
8.39
6.78
4.83
2.49
-0.19
-3.08
-5.96
-8.63
-10.95
-12.92
-14.69
-16.5
-18.56
-20.83
-22.97
-24.41
-24.48
-22.68
-18.77
-12.94
-5.72
2.14
9.84
16.7
22.25
26.31
28.89
30.13
30.16
29.05
26.88
23.79
20.06
16.13
12.54
9.76
8.08
7.56
7.96
8.89
9.87
10.4
10.21
9.21
7.49
5.18
2.47
-0.55
-3.8
-7.26
-10.87
-14.55
-18.09
-21.37
-24.17
-26.17
-27.05
-26.43
-24.01
-19.79
-14.02
-7.18
-0.01
6.78
12.65
17.23
20.43
22.33
23.07
22.81
21.65
19.69
17.12
14.22
11.34
8.83
6.9
5.6
4.81
4.36
4.05
3.76
3.39
2.81
1.96
0.75
-0.88
-2.99
-5.57
-8.53
-11.74
-15.04
-18.26
-21.29
-23.99
-26.2
-27.65
-27.92
-26.6
-23.4
-18.37
-11.9
-4.68
2.49
8.93
14.2
18.11
20.7
22.01
22.15
21.24
19.5
17.26
14.9
12.77
11.1
9.97
9.32
9.04
8.99
9.11
9.29
9.4
9.18
8.35
6.64
4.0
0.56
-3.39
-7.42
-11.17
-14.41
-17.06
-19.19
-20.99
-22.68
-24.41
-26.28
-28.06
-29.31
-29.43
-27.86
-24.24
-18.67
-11.69
-4.11
3.16
9.48
14.5
18.17
20.62
22.0
22.44
22.03
20.94
19.36
17.54
15.72
14.04
12.57
11.31
10.19
9.21
8.37
7.74
7.37
7.19
7.06
6.69
5.68
3.7
0.6
-3.49
-8.17
-12.92
-17.33
-21.06
-24.0
-26.19
-27.76
-28.83
-29.41
-29.43
-28.72
-27.0
-23.94
-19.37
-13.37
-6.43
0.76
7.42
12.92
16.96
19.52
20.86
21.25
20.95
20.11
18.84
17.27
15.6
13.93
12.31
10.78
9.31
8.01
7.05
6.53
6.51
6.79
7.04
6.89
6.18
4.94
3.46
2.05
0.83
-0.26
-1.5
-3.15
-5.45
-8.49
-12.23
-16.39
-20.48
-23.86
-25.79
-25.61
-22.89
-17.69
-10.47
-2.1
6.38
13.99
19.97
23.94
25.93
26.28
25.46
23.98
22.19
20.37
18.63
16.99
15.46
14.04
12.72
11.46
10.24
9.1
8.15
7.47
7.09
6.82
6.43
5.57
3.93
1.45
-1.81
-5.54
-9.35
-12.88
-15.93
-18.47
-20.64
-22.78
-25.16
-27.99
-31.13
-34.09
-36.14
-36.52
-34.64
-30.3
-23.78
-15.74
-7.12
1.14
8.27
13.85
17.78
20.14
21.22
21.29
20.72
19.79
18.79
17.94
17.3
16.81
16.3
15.63
14.75
13.74
12.76
11.92
11.24
10.58
9.72
8.49
6.78
4.59
2.05
-0.71
-3.58
-6.38
-9.02
-11.38
-13.46
-15.27
-16.94
-18.63
-20.52
-22.71
-25.19
-27.7
-29.84
-31.03
-30.66
-28.31
-23.83
-17.52
-10.01
-2.13
5.3
11.7
16.72
20.28
22.39
23.19
22.77
21.33
19.15
16.56
13.95
11.64
9.91
8.88
8.59
8.89
9.56
10.3
10.85
11.04
10.78
10.12
9.06
7.6
5.73
3.44
0.84
-1.89
-4.53
-6.96
-9.18
-11.31
-13.54
-16.03
-18.91
-22.2
-25.9
-29.82
-33.65
-36.8
-38.55
-38.2
-35.35
-30.03
-22.74
-14.38
-5.9
1.91
8.54
13.79
17.69
20.32
21.73
22.05
21.37
19.87
17.86
15.72
13.76
12.26
11.31
10.85
10.74
10.8
10.84
10.8
10.62
10.23
9.53
8.34
6.48
3.84
0.49
-3.34
-7.28
-10.98
-14.18
-16.72
-18.64
-20.04
-21.14
-22.1
-23.01
-23.76
-24.14
-23.75
-22.09
-18.84
-13.92
-7.59
-0.42
6.89
13.74
19.6
24.16
27.33
29.02
29.25
28.1
25.75
22.59
19.16
15.92
13.18
11.08
9.46
8.11
6.84
5.57
4.33
3.23
2.26
1.3
0.24
-1.03
-2.49
-4.01
-5.5
-6.91
-8.32
-9.87
-11.7
-13.93
-16.6
-19.65
-22.9
-26.03
-28.58
-29.98
-29.63
-27.17
-22.57
-16.26
-8.9
-1.29
5.74
11.56
15.78
18.3
19.22
18.84
17.48
15.51
13.27
11.04
9.0
7.31
6.09
5.36
5.08
5.09
5.26
5.42
5.46
5.29
4.79
3.91
2.58
0.87
-1.08
-3.02
-4.76
-6.19
-7.34
-8.45
-9.8
-11.73
-14.44
-17.98
-22.16
-26.53
-30.42
-33.09
-33.9
-32.44
-28.62
-22.7
-15.13
-6.61
2.17
10.51
17.83
23.64
27.69
29.92
30.45
29.54
27.52
24.81
21.84
19.08
16.86
15.4
14.67
14.48
14.57
14.65
14.45
13.81
12.56
10.6
7.85
4.32
0.21
-4.12
-8.2
-11.59
-13.96
-15.35
-16.06
-16.65
-17.72
-19.68
-22.6
-26.09
-29.39
-31.52
-31.55
-28.91
-23.56
-16.0
-7.19
1.77
9.87
16.41
21.05
23.73
24.58
23.85
21.8
18.85
15.45
12.13
9.41
7.62
6.84
6.92
7.54
8.34
9.06
9.54
9.67
9.35
8.4
6.67
4.19
1.15
-2.16
-5.34
-8.04
-10.14
-11.66
-12.76
-13.71
-14.77
-16.18
-18.0
-20.09
-22.0
-23.1
-22.65
-20.12
-15.4
-8.76
-0.9
7.34
15.13
21.84
27.03
30.49
32.09
31.91
30.19
27.34
23.84
20.2
16.82
13.95
11.67
9.9
8.45
7.18
5.95
4.69
3.43
2.2
1.0
-0.24
-1.61
-3.23
-5.13
-7.31
-9.71
-12.2
-14.75
-17.41
-20.3
-23.44
-26.79
-30.09
-32.9
-34.63
-34.74
-32.87
-29.04
-23.57
-17.03
-10.19
-3.69
1.99
6.6
10.11
12.57
14.13
14.96
15.21
15.03
14.63
14.15
13.74
13.48
13.4
13.47
13.65
13.87
14.08
14.26
14.36
14.22
13.73
12.7
11.02
8.7
5.83
2.59
-0.8
-4.09
-7.1
-9.67
-11.76
-13.42
-14.77
-15.94
-16.94
-17.58
-17.45
-16.04
-13.01
-8.31
-2.31
4.29
10.76
16.42
20.92
24.1
26.04
26.87
26.72
25.69
23.91
21.59
18.95
16.26
13.75
11.5
9.55
7.86
6.39
5.14
4.12
3.36
2.82
2.36
1.76
0.81
-0.62
-2.6
-5.02
-7.8
-10.82
-13.89
-16.8
-19.35
-21.45
-23.15
-24.67
-26.2
-27.83
-29.3
-30.03
-29.3
-26.62
-21.83
-15.32
-7.82
-0.2
6.71
12.33
16.38
18.84
19.86
19.71
18.68
17.01
14.97
12.8
10.78
9.2
8.25
7.99
8.33
9.06
9.94
10.78
11.49
12.03
12.3
12.13
11.32
9.74
7.39
4.51
1.46
-1.41
-3.86
-5.91
-7.8
-9.84
-12.32
-15.35
-18.84
-22.45
-25.66
-27.82
-28.37
-26.93
-23.43
-18.17
-11.71
-4.78
1.92
7.8
12.51
15.9
17.96
18.83
18.74
17.94
16.77
15.52
14.41
13.47
12.62
11.7
10.57
9.18
7.58
5.9
4.29
2.84
1.55
0.3
-1.05
-2.64
-4.55
-6.74
-9.07
-11.35
-13.5
-15.48
-17.44
-19.57
-22.01
-24.75
-27.59
-30.08
-31.69
-31.85
-30.03
-25.91
-19.53
-11.3
-1.92
7.64
16.5
24.03
29.92
34.14
36.82
38.12
38.12
36.95
34.82
32.1
29.26
26.79
25.0
23.94
23.46
23.25
22.89
22.11
20.77
18.91
16.69
14.31
11.85
9.43
7.09
4.83
2.57
0.17
-2.67
-6.24
-10.73
-16.12
-22.07
-28.05
-33.35
-37.34
-39.44
-39.29
-36.76
-31.94
-25.25
-17.33
-9.06
-1.31
5.17
9.92
12.8
13.94
13.7
12.49
10.71
8.63
6.45
4.32
2.33
0.58
-0.86
-1.89
-2.54
-2.77
-2.64
-2.23
-1.69
-1.18
-0.92
-1.1
-1.79
-3.04
-4.74
-6.78
-9.04
-11.43
-13.88
-16.33
-18.82
-21.37
-23.99
-26.54
-28.68
-29.92
-29.68
-27.57
-23.5
-17.87
-11.33
-4.76
1.08
5.7
8.88
10.68
11.31
11.06
10.14
8.81
7.18
5.37
3.54
1.83
0.43
-0.52
-0.95
-0.92
-0.58
-0.2
-0.04
-0.29
-1.08
-2.43
-4.29
-6.48
-8.77
-10.85
-12.48
-13.5
-13.84
-13.74
-13.53
-13.7
-14.59
-16.22
-18.23
-19.9
-20.34
-18.82
-15.07
-9.25
-2.04
5.73
13.21
19.71
24.81
28.34
30.29
30.72
29.88
28.01
25.4
22.39
19.3
16.41
13.95
12.04
10.61
9.62
8.88
8.25
7.57
6.74
5.67
4.26
2.44
0.18
-2.42
-5.29
-8.23
-11.04
-13.61
-15.91
-18.04
-20.16
-22.39
-24.64
-26.63
-27.78
-27.44
-25.14
-20.69
-14.34
-6.7
1.43
9.29
16.22
21.86
26.08
28.9
30.46
30.92
30.46
29.26
27.52
25.48
23.4
21.51
19.94
18.75
17.8
16.92
15.88
14.47
12.55
10.05
6.99
3.44
-0.41
-4.37
-8.19
-11.68
-14.82
-17.73
-20.6
-23.62
-26.76
-29.73
-31.99
-32.89
-31.88
-28.74
-23.7
-17.33
-10.43
-3.84
1.82
6.19
9.2
10.94
11.68
11.7
11.23
10.55
9.87
9.31
8.97
8.87
8.9
9.01
9.12
9.15
9.07
8.96
8.88
9.0
9.51
10.5
12.0
13.87
15.75
17.24
17.85
17.19
15.03
11.33
6.2
-0.01
-6.73
-13.22
-18.53
-21.76
-22.22
-19.65
-14.36
-7.2
0.74
8.32
14.64
19.18
21.85
22.77
22.26
20.66
18.26
15.35
12.12
8.82
5.68
2.96
0.86
-0.49
-1.11
-1.13
-0.85
-0.64
-0.85
-1.65
-3.1
-5.04
-7.21
-9.37
-11.33
-12.99
-14.39
-15.58
-16.7
-17.94
-19.48
-21.39
