-134.78
-140.36
-137.7
-124.14
-99.53
-66.77
-30.96
2.15
28.16
45.21
54.09
57.35
57.68
56.97
55.87
54.41
52.43
49.98
47.21
44.04
40.29
35.75
30.58
25.21
20.27
15.98
12.07
7.93
2.95
-3.08
-10.03
-17.47
-25.11
-32.74
-40.55
-48.86
-58.03
-68.43
-80.17
-93.04
-106.31
-118.91
-129.72
-138.09
-143.95
-147.69
-149.85
-150.85
-150.95
-149.83
-146.43
-138.64
-123.92
-100.05
-66.0
-22.58
27.6
80.84
133.85
184.84
234.0
282.13
329.38
374.54
415.03
447.52
468.97
477.83
474.59
461.84
442.23
417.93
390.47
361.17
331.12
300.77
269.74
236.83
200.6
158.43
107.92
48.18
-19.22
-91.04
-163.7
-234.11
-301.84
-359.15
-396.22
-406.33
-389.52
-351.06
-298.56
-240.13
-182.75
-130.88
-85.5
-46.76
-11.13
22.97
55.07
82.26
99.26
99.95
79.96
38.65
-21.56
-93.41
-166.17
-228.27
-267.85
-277.64
-258.76
-221.0
-179.79
-152.18
-147.98
-165.81
-193.71
-214.78
-214.61
-186.71
-133.74
-60.13
18.21
82.15
119.73
131.27
124.77
108.01
84.96
57.02
25.65
-6.95
-35.89
-56.27
-66.04
-67.61
-66.63
-69.55
-80.61
-100.45
-126.97
-154.94
-178.48
-193.52
-200.55
-200.92
-197.13
-191.32
-184.39
-176.61
-166.89
-154.21
-138.69
-122.03
-106.66
-95.07
-88.89
-88.44
-93.16
-101.11
-110.15
-118.59
-125.64
-130.87
-134.19
-135.19
-132.72
-128.66
-123.07
-115.4
-104.96
-91.19
-73.39
-51.39
-25.55
3.14
33.16
63.14
91.68
117.35
138.99
156.71
170.77
181.26
188.02
190.73
189.62
185.38
179.11
172.18
167.89
168.94
176.71
190.86
209.63
231.02
253.14
274.63
294.61
315.55
339.32
366.24
394.45
420.43
440.72
452.87
455.93
450.21
440.83
432.49
428.15
428.18
431.15
435.75
442.28
452.89
446.51
410.71
342.31
249.98
149.39
54.69
-26.51
-92.82
-146.01
-188.65
-219.26
-236.47
-240.11
-232.16
-216.58
-198.72
-184.74
-180.84
-191.95
-216.84
-250.0
-283.06
-307.76
-319.09
-316.61
-303.96
-286.67
-269.58
-253.31
-236.42
-217.27
-195.94
-174.52
-155.9
-142.0
-132.9
-127.08
-121.52
-113.68
-102.74
-89.71
-76.7
-65.87
-58.31
-53.86
-51.35
-48.97
-45.32
-39.99
-33.57
-27.25
-22.18
-18.88
-17.24
-16.55
-15.98
-14.88
-13.1
-10.91
-8.76
-7.14
-6.19
-5.85
-5.83
-5.77
-5.35
-4.59
-3.55
-2.4
-1.54
-0.95
-0.64
-0.47
-0.15
0.76
2.72
6.41
12.57
21.57
33.78
49.06
66.81
85.92
104.99
122.09
135.35
143.11
144.11
137.78
124.24
104.4
79.57
52.22
24.66
-1.03
-23.2
-40.84
-53.66
-62.01
-66.94
-69.01
-69.04
-67.78
-65.6
-62.82
-59.7
-56.62
-54.01
-52.25
-51.22
-50.64
-50.1
-49.1
-47.41
-45.24
-43.14
-41.75
-41.48
-42.24
-43.49
-44.46
-44.51
-43.65
-42.44
-41.74
-42.13
-43.47
-44.97
-45.93
-46.35
-47.07
-48.95
-51.55
-52.6
-48.29
-35.26
-12.86
15.97
45.54
69.92
85.15
89.73
83.7
67.06
39.38
0.61
-46.55
-95.76
-137.06
-160.75
-161.5
-140.8
-106.15
-67.13
-31.35
-1.68
22.8
44.18
62.88
76.79
83.09
80.62
71.22
59.11
49.0
43.62
42.85
44.86
47.65
50.12
51.78
51.98
49.75
44.76
38.34
33.02
31.09
32.34
33.37
28.97
15.51
-6.3
-30.86
-50.04
-57.4
-51.51
-36.87
-21.46
-13.48
-18.02
-35.63
-62.87
-94.39
-124.53
-148.74
-163.35
-166.04
-155.82
-134.14
-105.08
-75.32
-53.18
-46.34
-59.33
-91.26
-135.99
-184.04
-225.82
-254.21
-265.75
-260.32
-238.11
-201.95
-155.9
-104.83
-53.87
-7.7
30.33
58.72
77.65
88.43
92.2
89.73
81.53
68.15
50.48
29.74
7.59
-14.5
-35.2
-53.92
-70.36
-84.4
-95.96
-104.94
-111.21
-114.68
-115.48
-113.85
-110.36
-105.5
-99.38
-91.75
-82.04
-69.63
-54.21
-36.14
-16.15
4.66
25.35
45.63
65.92
87.04
109.82
134.53
160.59
186.83
211.89
234.81
255.49
274.75
293.94
314.74
338.74
367.12
400.16
436.41
471.98
500.88
516.4
513.68
491.94
455.06
409.99
363.7
320.0
278.42
235.63
188.39
136.39
83.07
33.99
-5.87
-34.09
-51.31
-59.96
-62.52
-60.59
-54.72
-44.82
-30.66
-11.82
12.89
45.51
88.1
141.02
200.86
259.84
307.27
332.73
329.65
297.7
242.52
173.56
100.61
31.12
-30.61
-83.01
-126.0
-160.38
-187.65
-210.0
-229.64
-247.86
-264.19
-276.76
-283.65
-284.42
-280.49
-274.48
-268.77
-264.32
-260.68
-256.85
-252.03
-245.73
-237.19
-225.02
-207.95
-186.38
-163.26
-143.26
-130.22
-124.13
-120.02
-109.72
-85.91
-46.27
5.04
59.14
106.61
141.23
161.5
169.65
169.4
164.11
156.43
148.74
143.49
142.87
147.43
155.59
164.05
169.81
171.84
171.51
171.12
171.57
171.03
165.58
151.72
128.71
99.39
68.89
41.89
20.62
4.28
-9.59
-23.21
-37.37
-51.89
-66.99
-84.39
-106.89
-136.45
-172.23
-209.37
-239.89
-254.98
-248.15
-217.72
-167.63
-106.44
-44.54
8.91
48.39
72.68
83.77
84.74
77.87
63.79
42.12
12.96
-21.88
-58.62
-92.49
-119.63
-138.77
-151.49
-161.17
-170.8
-181.18
-190.69
-196.6
-197.22
-193.53
-188.86
-186.8
-188.57
-191.94
-192.52
-186.67
-174.31
-159.47
-148.35
-145.74
-151.98
-162.48
-169.63
-166.06
-147.46
-113.65
-68.13
-16.76
33.81
77.55
110.28
130.61
140.15
142.44
141.39
139.48
137.16
133.63
128.19
121.11
113.63
106.88
101.07
95.27
88.31
79.91
70.93
62.8
56.36
50.93
44.49
34.7
20.12
1.22
-19.53
-38.6
-52.52
-59.16
-58.4
-52.29
-44.38
-38.65
-37.98
-43.01
-51.65
-59.77
-62.65
-56.72
-41.07
-17.85
8.4
32.34
49.79
58.94
60.56
56.96
50.62
43.34
36.05
29.33
23.86
20.35
18.93
19.06
19.8
20.48
21.47
23.98
29.15
36.93
45.8
53.51
58.46
60.63
61.04
60.37
57.73
50.89
37.72
17.93
-6.31
-31.48
-54.47
-74.03
-90.97
-106.98
-123.36
-140.26
-156.62
-170.19
-177.95
-176.23
-161.47
-131.77
-88.73
-38.03
11.93
53.05
80.96
96.34
103.7
108.29
113.06
117.9
120.79
120.14
116.56
112.7
111.86
115.94
124.17
133.06
137.93
134.93
122.74
103.29
80.8
60.05
44.32
34.13
27.41
21.02
12.61
1.59
-11.14
-24.23
-37.05
-49.63
-62.18
-74.37
-85.33
-94.32
-101.7
-108.91
-117.41
-127.37
-136.64
-141.08
-136.15
-118.87
-89.04
-49.65
-5.94
36.08
70.96
95.04
107.02
108.04
100.98
89.62
77.73
68.18
62.69
61.37
63.22
66.52
69.71
72.06
73.86
76.18
79.86
84.81
89.56
92.14
91.26
87.43
82.94
80.51
81.48
84.64
86.51
82.57
69.56
46.8
16.16
-18.91
-54.98
-89.56
-121.18
-148.89
-172.5
-192.67
-210.97
-229.19
-247.53
-263.46
-271.63
-265.83
-241.82
-199.81
-144.98
-85.78
-31.05
12.64
42.21
57.97
62.66
60.54
56.1
52.93
52.54
53.7
53.63
49.81
42.11
33.26
27.41
27.44
33.23
41.54
47.8
48.91
44.58
37.3
30.44
26.25
24.58
23.19
19.18
10.59
-2.45
-17.71
-31.87
-41.68
-44.92
-40.86
-29.91
-13.25
6.7
26.23
39.91
41.67
27.07
-4.14
-46.46
-89.64
-122.09
-135.21
-126.07
-97.76
-57.1
-11.57
32.76
71.8
102.79
123.69
133.22
131.72
121.51
106.28
89.78
74.57
61.52
50.31
40.45
32.08
26.26
24.1
25.99
31.13
37.25
41.28
40.35
32.78
18.62
-0.51
-22.29
-44.64
-66.15
-86.13
-103.87
-118.16
-127.37
-130.03
-125.8
-116.14
-104.26
-94.23
-89.75
-92.81
-103.11
-118.28
-134.7
-148.28
-155.27
-152.68
-138.34
-111.14
-71.26
-20.56
37.22
97.02
153.28
200.82
235.62
255.3
259.31
248.85
226.79
196.99
163.77
130.84
100.8
74.88
53.32
36.02
23.2
15.47
13.51
17.43
26.16
37.59
48.98
57.68
61.65
59.93
52.6
40.77
26.57
13.14
4.45
4.19
14.14
32.58
53.89
70.14
73.77
60.54
31.11
-9.39
-53.53
-94.21
-126.68
-148.97
-160.91
-162.5
-153.1
-131.76
-98.74
-57.07
-12.97
25.41
50.64
59.11
52.33
36.25
18.44
5.0
-1.55
-1.86
1.91
7.83
14.89
22.26
28.77
32.85
33.54
31.48
28.88
28.26
30.39
33.31
32.84
24.82
7.58
-16.8
-43.39
-66.86
-84.39
-96.94
-108.6
-123.98
-145.25
-170.55
-194.71
-211.84
-218.35
-214.59
-203.86
-189.7
-173.02
-151.22
-119.55
-74.34
-15.85
50.54
116.17
172.67
215.53
245.66
267.75
286.88
305.04
320.0
326.73
320.53
299.91
267.27
227.68
186.19
145.63
106.26
67.05
27.62
-10.74
-45.5
-74.59
-97.43
-115.19
-129.92
-143.34
-156.05
-167.35
-175.69
-179.15
-176.61
-168.48
-157.73
-149.68
-150.07
-162.24
-184.11
-208.05
-223.41
-221.4
-199.1
-160.45
-113.15
-63.52
-13.4
39.08
95.09
150.74
196.81
223.11
224.55
205.06
175.97
149.59
132.59
122.67
110.66
86.26
44.44
-11.37
-70.36
-118.48
-144.8
-145.4
-124.06
-89.54
-50.95
-14.51
17.37
43.8
63.24
72.11
66.75
46.29
14.33
-22.2
-56.88
-87.07
-114.44
-142.05
-170.69
-197.06
-215.65
-222.31
-216.73
-201.71
-180.73
-155.46
-125.31
-89.47
-48.75
-5.75
36.49
76.58
115.11
153.03
189.34
219.97
239.09
242.28
229.46
204.9
175.01
144.72
115.39
85.13
51.64
14.96
-21.76
-53.71
-77.43
-92.64
-101.61
-106.24
-105.78
-96.97
-77.06
-47.46
-15.2
9.39
17.84
8.03
-15.08
-42.58
-67.0
-85.98
-102.4
-121.15
-145.26
-173.48
-200.93
-221.59
-230.79
-226.36
-208.16
-177.16
-134.63
-82.51
-23.53
38.25
97.87
150.45
192.64
223.89
246.25
263.41
278.53
292.51
303.57
308.6
304.81
291.14
268.2
237.02
197.92
150.86
96.9
39.66
-14.51
-58.78
-89.36
-107.66
-120.0
-134.24
-155.34
-182.68
-210.62
-232.14
-242.68
-242.74
-236.86
-230.63
-227.29
-225.82
-221.88
-210.07
-186.7
-151.09
-105.36
-52.84
3.17
59.69
113.4
159.88
194.29
213.19
216.73
209.32
197.93
188.62
183.37
179.75
173.08
160.32
142.66
125.09
113.54
111.32
117.49
127.36
134.97
135.23
124.86
102.59
69.31
28.75
-12.8
-47.79
-70.59
-80.43
-82.51
-85.98
-99.58
-127.38
-166.62
-208.74
-242.86
-259.78
-254.88
-228.71
-186.01
-133.59
-78.59
-27.12
16.32
49.17
70.69
81.47
83.09
77.66
67.85
56.76
47.44
41.99
40.56
41.33
41.34
38.42
32.46
25.5
20.55
19.79
23.33
29.27
34.9
37.99
37.39
32.89
24.73
13.4
-0.22
-14.64
-28.02
-39.14
-48.06
-56.32
-66.25
-79.69
-96.93
-116.11
-133.32
-143.1
-139.82
-119.89
-83.78
-36.97
11.55
52.82
81.63
98.29
107.6
115.1
123.61
132.01
136.89
135.95
129.94
122.62
117.98
117.58
119.42
119.46
114.46
104.03
90.81
78.41
69.12
62.57
56.29
47.46
34.66
18.58
1.13
-15.86
-31.59
-46.24
-60.06
-72.63
-82.95
-90.56
-96.39
-103.25
-114.39
-131.44
-152.39
-171.46
-180.96
-174.28
-149.24
-109.14
-61.91
-16.97
18.12
40.11
50.41
53.17
52.79
51.71
50.03
46.44
39.85
30.52
20.01
10.39
2.91
-2.43
-6.67
-11.21
-16.82
-23.33
-29.71
-34.62
-36.89
-36.31
-33.77
-31.2
-30.98
-34.91
-43.29
-54.61
-66.04
-74.57
-78.23
-77.05
-73.44
-71.31
-74.67
-85.93
-104.69
-127.64
-149.54
-164.9
-169.62
-161.85
-142.21
-113.42
-79.95
-47.25
-20.83
-4.79
-0.53
-6.34
-18.32
-32.43
-46.24
-59.68
-74.42
-92.15
-113.43
-137.66
-163.64
-190.3
-216.58
-240.81
-260.37
-272.12
-273.67
-264.47
-246.22
-221.88
-194.41
-165.51
-135.33
-103.23
-68.71
-31.93
6.04
43.55
78.83
110.29
137.0
159.1
177.82
195.18
213.17
232.49
251.87
268.65
279.69
282.94
278.54
268.85
257.8
249.72
248.33
256.03
273.39
298.17
324.92
346.09
354.44
346.83
326.93
304.9
294.02
304.75
339.31
389.86
441.12
476.34
483.57
459.4
408.38
339.76
263.33
186.39
113.39
46.82
-11.56
-60.22
-98.34
-127.09
-149.9
-171.51
-195.9
-223.86
-252.14
-274.38
-283.74
-276.16
-252.77
-219.83
-186.59
-161.94
-151.14
-154.35
-167.38
-183.78
-197.62
-205.17
-205.21
-198.13
-184.92
-166.32
-142.87
-115.42
-85.46
-54.82
-25.34
2.08
27.63
52.36
77.49
103.53
129.84
154.62
175.61
190.67
198.33
197.59
187.79
168.52
139.79
102.77
60.24
16.44
-23.99
-57.21
-81.47
-97.28
-106.72
-112.25
-115.57
-117.13
-116.53
-113.52
-108.83
-104.36
-102.48
-104.69
-110.83
-118.96
-126.05
-129.12
-126.2
-116.37
-99.27
-74.94
-43.64
-6.55
33.9
73.94
109.55
137.51
156.3
166.09
168.26
164.67
157.08
147.11
136.11
125.27
115.48
107.36
101.08
96.4
92.84
89.86
87.08
84.28
81.24
77.55
72.41
64.71
53.29
37.5
17.49
-5.85
-30.95
-56.16
-79.89
-101.01
-119.08
-134.74
-149.53
-165.3
-183.11
-202.09
-219.15
-229.66
-229.36
-216.07
-190.72
-156.94
-119.82
-84.1
-53.07
-28.19
-9.28
4.67
14.92
22.64
29.0
35.22
42.47
51.72
63.14
76.04
88.79
99.45
106.46
109.16
108.0
104.0
98.23
91.27
83.3
74.39
64.88
55.24
45.82
36.57
27.11
17.1
6.51
-4.21
-14.52
-24.26
-34.11
-45.47
-59.74
-77.47
-97.67
-117.72
-133.78
-141.66
-137.92
-120.73
-90.55
-50.33
-4.98
39.67
78.27
107.16
125.12
133.1
133.47
128.93
121.76
113.41
104.91
96.97
90.26
85.25
81.82
79.22
76.18
71.45
64.29
55.04
44.86
35.29
27.67
22.58
19.9
18.9
18.59
17.98
16.26
12.95
8.01
1.84
-5.06
-12.53
-21.31
-33.07
-49.57
-71.55
-97.64
-124.16
-146.16
-158.94
-159.39
-146.65
-121.84
-87.5
-47.0
-4.31
36.49
71.87
99.63
119.43
132.48
140.47
144.44
144.15
138.38
126.09
107.36
83.78
57.77
31.76
7.09
-15.9
-37.59
-58.08
-76.56
-91.35
-100.41
-102.45
-97.6
-87.7
-75.52
-63.81
-53.96
-45.74
-37.83
-28.95
-19.21
-10.44
-5.42
-6.53
-14.53
-27.98
-43.72
-57.85
-66.86
-68.57
-62.48
-49.75
-32.91
-15.39
-0.91
7.39
7.69
0.31
-12.37
-26.47
-37.79
-43.03
-40.51
-30.62
-14.91
4.33
25.19
46.28
66.46
84.29
97.76
104.78
103.69
94.44
78.4
58.03
35.74
12.99
-9.84
-32.93
-56.06
-78.22
-97.58
-112.33
-121.59
-125.91
-127.29
-128.54
-132.27
-139.78
-150.48
-161.58
-168.73
-167.3
-153.53
-125.76
-84.74
-33.51
23.11
79.23
128.98
167.51
192.03
202.26
199.69
186.77
165.77
138.36
105.9
70.03
32.58
-4.56
-39.76
-71.96
-99.98
-122.05
-135.89
-139.51
-132.55
-117.1
-97.33
-77.89
-62.27
-51.83
-45.86
-42.57
-40.02
-36.52
-30.98
-23.05
-13.63
-5.21
-1.36
-5.26
-17.69
-35.46
-51.69
-58.01
-47.64
-18.32
26.35
77.93
125.46
158.58
170.31
158.66
126.75
81.85
33.08
-11.12
-45.06
-66.8
-77.72
-81.04
-80.32
-78.48
-77.43
-78.21
-80.91
-84.69
-88.01
-89.29
-87.69
-84.12
-81.41
-83.26
-92.8
-110.62
-133.65
-155.41
-167.73
-163.33
-138.54
-94.75
-37.69
24.54
84.56
137.98
184.16
225.31
264.52
303.96
343.66
381.77
415.04
440.15
454.45
456.62
446.85
426.37
397.0
360.6
319.16
274.55
228.91
184.09
141.21
100.19
59.81
18.57
-24.34
-68.12
-110.64
-149.11
-181.07
-205.28
-221.65
-230.78
-233.59
-231.13
-224.69
-215.96
-206.58
-197.63
-189.18
-180.32
-170.02
-158.11
-145.82
-135.62
-130.09
-130.79
-137.51
-148.23
-159.48
-167.11
-167.06
-156.27
-133.58
-100.33
-60.33
-18.93
18.38
47.66
67.52
79.03
84.93
88.33
91.77
96.56
102.89
110.04
116.84
122.11
124.94
124.89
121.77
115.51
106.17
93.92
79.35
63.34
46.79
30.28
13.68
-3.67
-22.52
-42.97
-64.15
-84.38
-101.9
-115.66
-125.95
-134.29
-142.89
-153.5
-166.5
-180.2
-191.0
-194.33
-186.06
-164.09
-129.26
-85.46
-38.38
5.98
43.0
70.39
88.15
98.1
102.76
104.65
105.78
107.68
111.21
116.43
122.57
128.03
130.87
129.64
123.81
113.99
101.49
87.84
74.27
61.65
50.39
40.47
31.31
21.9
11.16
-1.56
-15.89
-30.41
-42.93
-51.77
-56.4
-58.0
-58.99
-61.75
-67.65
-76.16
-84.91
-90.44
-89.45
-79.75
-60.87
-34.37
-3.45
27.66
54.55
73.84
84.11
86.31
83.27
78.47
74.64
72.88
72.69
72.95
72.8
72.16
71.42
70.72
69.44
66.33
60.45
51.7
41.01
29.62
18.37
7.13
-4.99
-19.02
-35.34
-53.25
-71.04
-86.61
-98.09
-104.62
-106.75
-106.33
-106.04
-108.35
-114.64
-124.53
-135.94
-145.67
-150.28
-147.02
-134.48
-112.89
-84.27
-52.09
-20.7
5.94
25.35
37.23
43.32
46.43
49.24
53.21
58.62
64.83
71.24
77.59
83.83
89.68
94.54
97.35
97.05
92.98
85.01
73.66
59.78
44.4
28.24
11.68
-5.28
-22.67
-40.11
-56.46
-69.8
-78.16
-80.53
-77.87
-73.2
-70.61
-73.39
-82.27
-94.71
-105.73
-109.69
-102.34
-82.13
-50.53
-11.74
28.49
64.09
89.98
103.38
104.47
95.91
81.69
65.57
49.94
35.88
23.97
15.07
10.36
10.78
16.11
24.64
33.81
41.34
46.15
48.55
49.54
49.86
49.49
47.86
44.32
38.73
31.67
24.1
17.02
11.0
5.85
0.53
-6.74
-18.12
-35.37
-59.23
-88.75
-121.0
-151.48
-174.88
-186.35
-182.81
-163.78
-131.47
-90.41
-46.32
-4.88
29.5
54.56
70.42
79.02
83.21
85.58
87.6
89.52
90.9
91.48
91.62
92.26
93.96
96.19
97.3
95.15
88.34
76.84
62.03
45.85
30.0
15.3
1.8
-10.82
-22.84
-34.16
-44.34
-52.65
-58.34
-60.9
-60.57
-58.59
-57.17
-58.81
-65.19
-76.38
-90.32
-103.39
-111.44
-110.82
-99.21
-76.18
-43.46
-4.77
34.71
69.63
95.82
111.47
117.36
116.01
110.49
103.27
95.74
88.37
81.39
74.99
69.45
64.97
61.31
57.77
53.42
47.51
39.84
31.03
22.25
14.76
9.25
5.31
1.52
-3.9
-12.24
-23.69
-37.23
-51.25
-64.21
-75.14
-83.94
-91.27
-98.5
-107.17
-118.48
-132.5
-147.75
-161.16
-168.84
-167.32
-154.68
-131.53
-100.87
-67.31
-35.51
-8.97
10.97
25.01
35.02
42.86
49.4
54.44
57.16
57.04
54.32
49.89
44.77
39.55
34.28
28.6
22.3
15.55
8.91
3.29
-0.51
-2.13
-2.05
-1.66
-3.0
-7.83
-16.78
-28.65
-40.65
-49.56
-53.08
-50.96
-45.05
-38.73
-35.52
-38.01
-46.89
-60.68
-76.05
-88.32
-92.51
-84.69
-63.14
-29.26
12.44
55.63
93.87
122.46
139.74
146.98
147.34
144.38
140.71
137.41
134.26
130.5
125.61
119.8
113.72
107.95
102.47
96.51
89.13
79.74
68.68
57.13
46.55
37.73
30.29
22.74
13.12
-0.08
-17.15
-36.98
-57.47
-76.26
-91.76
-103.5
-112.37
-120.31
-129.52
-141.59
-156.73
-173.26
-187.96
-196.59
-194.82
-179.45
-149.34
-106.09
-54.18
-0.11
49.25
88.42
114.76
128.79
133.17
131.26
125.84
118.54
110.17
101.22
92.26
83.82
76.0
68.31
59.98
50.49
40.02
29.41
19.79
11.98
6.25
