208.11
121.36
16.52
-90.3
-187.0
-269.68
-341.05
-405.54
-464.73
-515.28
-551.71
-569.97
-570.59
-557.73
-536.16
-507.98
-471.53
-423.45
-361.84
-289.1
-212.31
-141.3
-85.28
-49.84
-35.38
-37.65
-49.5
-63.37
-72.92
-74.24
-66.11
-48.83
-23.04
10.72
50.97
93.97
133.76
164.4
183.58
194.61
205.56
225.13
257.41
298.99
340.64
372.77
390.73
396.81
396.51
392.81
381.87
354.1
299.94
216.33
110.73
-0.91
-99.45
-170.31
-208.48
-219.82
-217.22
-214.16
-218.77
-231.14
-243.84
-245.14
-224.81
-178.59
-110.41
-30.6
49.07
120.29
179.38
226.6
264.5
295.26
319.62
337.46
349.16
356.07
360.11
360.15
350.75
324.23
274.31
199.38
104.29
-0.16
-106.94
-201.83
-270.15
-303.75
-303.65
-277.53
-235.45
-184.12
-127.26
-68.17
-9.44
46.56
94.27
130.59
155.77
173.35
181.93
183.42
179.99
171.46
154.39
123.2
74.83
11.07
-62.08
-136.95
-206.4
-267.91
-323.98
-375.64
-421.42
-456.84
-476.43
-476.1
-454.76
-413.73
-349.18
-266.66
-175.31
-84.96
-3.18
65.71
120.18
160.36
187.24
201.99
204.92
198.0
184.42
168.12
152.84
141.12
133.79
129.92
127.56
123.7
117.03
107.82
97.6
88.19
80.96
76.39
74.44
74.69
75.88
76.77
75.45
69.8
58.3
41.47
22.43
6.31
-1.99
-0.21
10.61
27.0
44.04
58.05
67.52
72.37
72.81
68.2
57.07
38.48
12.95
-16.99
-47.42
-74.08
-93.81
-105.12
-108.34
-104.91
-96.91
-86.4
-74.93
-63.61
-52.88
-42.94
-33.96
-26.36
-20.56
-16.62
-14.07
-11.82
-8.68
-3.84
2.78
10.35
17.49
22.99
26.24
27.04
25.41
21.1
13.44
1.56
-13.48
-30.54
-47.59
-62.62
-73.82
-80.6
-83.07
-82.09
-78.04
-71.26
-62.1
-51.06
-39.75
-30.22
-24.61
-23.41
-25.28
-26.6
-23.3
-12.46
6.93
33.56
64.7
97.09
127.44
152.99
171.96
183.34
186.78
182.92
172.86
158.57
142.56
127.21
115.14
108.33
107.84
112.94
121.73
130.59
135.9
134.39
123.84
104.39
78.3
50.13
25.53
10.55
8.79
20.95
44.46
74.17
104.26
129.51
145.81
150.76
143.27
123.1
91.47
51.12
6.04
-39.07
-80.04
-114.15
-139.82
-156.3
-163.37
-161.08
-150.47
-134.55
-117.87
-105.79
-102.64
-109.99
-125.91
-145.72
-163.51
-174.24
-175.44
-167.35
-152.43
-134.27
-116.41
-101.72
-92.24
-89.12
-92.78
-102.9
-118.38
-137.34
-157.33
-175.87
-190.95
-201.53
-207.55
-209.84
-209.48
-207.29
-203.67
-198.56
-191.56
-182.17
-170.12
-155.28
-137.9
-118.74
-98.83
-79.46
-62.03
-47.5
-36.24
-28.02
-21.99
-17.19
-12.9
-8.61
-4.07
0.81
6.04
11.59
17.22
22.64
27.53
31.55
34.66
37.03
38.99
40.85
42.64
44.13
45.08
45.32
45.0
44.65
44.85
46.11
48.6
52.05
55.84
59.36
62.12
63.75
64.18
63.24
60.85
57.07
52.24
46.92
41.78
37.35
33.81
31.02
28.72
26.69
24.99
23.77
23.09
22.86
22.65
22.05
20.84
19.06
16.94
14.72
12.32
9.5
6.01
1.82
-2.59
-6.36
-8.55
-8.44
-5.94
-1.59
3.67
8.82
13.11
16.22
18.22
19.38
20.06
20.4
20.49
20.35
20.1
19.84
19.8
20.15
20.97
22.38
24.35
26.9
29.95
33.47
37.18
40.62
43.22
44.42
43.9
41.6
37.73
32.69
26.88
20.71
14.63
9.08
4.54
1.35
-0.45
-1.04
-0.81
-0.27
0.22
0.37
0.08
-0.91
-2.78
-5.79
-9.92
-14.93
-20.41
-25.73
-30.36
-33.85
-35.95
-36.44
-35.14
-31.71
-25.89
-17.56
-6.95
5.19
17.78
29.35
38.41
43.63
44.08
39.48
30.26
17.7
3.42
-10.77
-23.33
-33.2
-39.76
-42.71
-41.75
-36.52
-26.68
-12.39
5.55
25.71
45.99
64.12
77.92
85.69
86.45
80.12
67.38
49.63
28.67
6.36
-15.56
-35.59
-52.39
-64.84
-71.91
-72.94
-67.79
-56.89
-41.33
-22.46
-1.82
19.06
38.58
55.21
67.56
74.45
75.32
70.19
59.76
45.16
27.49
7.73
-13.19
-34.04
-53.09
-68.11
-76.91
-78.03
-71.21
-57.49
-38.72
-16.85
6.54
30.16
52.72
72.5
87.26
94.85
93.86
84.21
67.22
45.1
20.36
-4.73
-28.35
-49.15
-65.9
-77.48
-82.95
-81.71
-73.95
-60.48
-42.66
-22.15
-0.64
20.27
39.0
54.07
64.21
68.54
66.81
59.64
48.33
34.59
20.33
7.22
-3.33
-10.37
-13.38
-12.44
-8.08
-1.21
7.05
15.58
23.35
29.46
33.15
33.88
31.35
25.71
17.42
7.29
-3.77
-14.84
-25.05
-33.72
-40.17
-43.93
-44.55
-42.01
-36.55
-28.76
-19.53
-9.82
-0.54
7.7
14.47
19.75
23.69
26.5
28.39
29.36
29.31
28.12
25.91
22.85
19.34
15.92
12.95
10.59
8.78
7.3
5.96
4.75
3.66
2.66
1.73
0.7
-0.58
-2.24
-4.25
-6.6
-9.18
-11.96
-14.95
-18.07
-21.05
-23.31
-24.13
-22.86
-19.21
-13.33
-5.88
2.15
9.74
16.05
20.59
23.26
24.11
23.41
21.51
18.78
15.6
12.36
9.41
6.96
5.16
3.96
3.25
2.9
2.76
2.64
2.41
2.06
1.57
1.01
0.43
-0.17
-0.86
-1.76
-3.04
-4.83
-7.11
-9.69
-12.1
-13.74
-14.05
-12.6
-9.33
-4.63
0.85
6.29
11.01
14.56
16.78
17.62
17.3
16.01
13.89
11.22
8.23
5.27
2.69
0.8
-0.3
-0.55
-0.1
0.75
1.67
2.26
2.23
1.48
0.09
-1.73
-3.7
-5.62
-7.35
-8.86
-10.28
-11.82
-13.58
-15.56
-17.51
-18.96
-19.34
-18.14
-15.17
-10.7
-5.34
0.16
5.04
8.86
11.39
12.61
12.58
11.46
9.44
6.9
4.29
2.12
0.8
0.51
1.16
2.48
4.06
5.57
6.73
7.38
7.37
6.66
5.32
3.45
1.25
-1.11
-3.54
-6.04
-8.58
-11.15
-13.7
-16.16
-18.46
-20.59
-22.51
-24.07
-24.98
-24.79
-23.04
-19.48
-14.19
-7.59
-0.5
6.25
11.86
15.81
17.9
18.21
17.03
14.74
11.69
8.23
4.73
1.49
-1.16
-2.95
-3.76
-3.6
-2.67
-1.32
0.15
1.46
2.37
2.67
2.25
0.99
-1.04
-3.72
-6.73
-9.73
-12.36
-14.46
-16.05
-17.37
-18.79
-20.53
-22.51
-24.34
-25.34
-24.85
-22.39
-17.89
-11.78
-4.83
2.1
8.21
12.94
15.94
17.11
16.6
14.73
11.85
8.49
5.19
2.39
0.41
-0.64
-0.88
-0.53
0.14
0.96
1.86
2.82
3.68
4.21
4.17
3.28
1.48
-1.09
-4.08
-7.13
-9.93
-12.31
-14.18
-15.56
-16.5
-17.12
-17.61
-18.12
-18.83
-19.75
-20.71
-21.34
-21.12
-19.58
-16.41
-11.68
-5.8
0.54
6.64
11.9
15.99
18.78
20.27
20.61
19.95
18.62
16.99
15.6
14.79
14.71
15.27
16.2
17.14
17.75
17.83
17.22
15.93
13.93
11.26
8.01
4.25
0.08
-4.34
-8.8
-13.03
-16.77
-19.77
-21.87
-22.93
-22.99
-22.29
-21.23
-20.32
-19.99
-20.38
-21.27
-22.13
-22.27
-21.16
-18.6
-14.67
-9.76
-4.27
1.44
7.1
12.37
16.92
20.36
22.31
22.79
21.94
20.15
17.92
15.7
13.79
12.38
11.6
11.4
11.73
12.34
12.95
13.35
13.4
13.04
12.32
11.29
9.95
8.29
6.33
4.16
1.95
-0.18
-2.15
-3.92
-5.53
-7.09
-8.54
-9.92
-11.21
-12.26
-13.04
-13.27
-12.61
-10.75
-7.58
-3.03
2.53
8.53
14.35
19.28
22.81
24.77
25.17
24.17
22.15
19.43
16.21
12.41
7.62
1.25
-7.29
-18.48
-32.62
-49.6
-68.77
-88.96
-108.37
-125.08
-136.96
-142.36
-140.31
-130.67
-114.16
-92.27
-66.9
-40.12
-14.07
9.52
29.28
44.31
54.33
59.67
61.04
59.67
57.06
54.56
53.15
53.3
54.91
57.55
60.65
63.5
65.56
66.42
65.86
63.78
60.3
55.69
50.43
45.04
39.99
35.78
32.57
30.27
28.62
27.23
25.62
23.1
18.88
12.08
2.07
-11.54
-28.84
-49.31
-71.86
-94.85
-116.27
-133.94
-145.94
-150.82
-147.91
-137.49
-120.5
-98.43
-72.98
-45.79
-18.43
7.74
31.49
51.84
68.16
80.24
88.12
92.18
93.01
91.32
87.77
83.02
77.67
72.17
66.93
62.11
57.76
53.84
50.34
47.2
44.18
40.74
35.97
28.86
18.48
4.21
-14.15
-36.08
-60.28
-84.9
-107.69
-126.47
-139.35
-144.96
-142.66
-132.65
-115.83
-93.78
-68.47
-41.9
-16.02
7.68
28.3
45.46
59.21
69.87
77.68
82.8
85.53
85.96
84.26
80.74
75.77
69.93
63.77
57.76
52.19
47.42
43.57
40.63
38.67
37.44
36.64
35.89
34.75
32.68
29.15
23.5
15.15
3.93
-10.3
-27.35
-46.67
-67.45
-88.39
-107.74
-123.79
-134.87
-139.59
-137.21
-127.58
-111.1
-88.84
-62.14
-32.69
-2.63
25.93
51.04
71.29
85.9
94.85
98.55
97.9
94.15
88.27
81.09
73.27
65.28
57.43
49.8
41.9
33.13
22.77
10.06
-5.47
-23.82
-44.36
-65.63
-85.81
-102.87
-115.0
-120.83
-119.69
-111.55
-96.99
-77.31
-54.12
-29.58
-5.8
15.1
31.72
43.52
50.82
54.73
56.6
57.65
58.72
60.22
61.94
63.48
64.53
64.9
64.45
63.02
60.38
56.5
51.59
46.0
40.22
34.9
30.38
26.94
24.45
22.56
21.04
19.64
18.17
16.57
14.88
12.89
10.68
8.28
5.74
3.39
1.5
0.25
-0.18
0.2
0.93
1.78
2.43
2.97
3.71
5.11
7.65
11.79
17.38
23.46
28.62
31.06
29.21
22.12
9.31
-8.64
-30.28
-53.59
-76.24
-95.65
-109.61
-116.49
-115.25
-105.91
-89.23
-66.75
-40.6
-13.29
12.78
35.31
52.59
63.67
68.29
66.89
60.18
49.11
34.8
18.54
1.44
-15.5
-31.48
-46.15
-59.19
-70.35
-79.08
-84.3
-84.76
-79.52
-68.35
-51.9
-31.72
-9.72
12.09
32.02
48.8
61.61
70.11
74.49
75.4
73.65
70.12
65.53
60.39
55.05
49.71
44.46
39.29
34.11
28.66
22.88
16.88
10.95
5.52
1.03
-2.32
-4.59
-5.87
-6.44
-6.17
-4.98
-2.85
0.07
3.26
6.14
8.16
9.17
9.37
9.34
9.49
9.96
10.52
10.8
10.49
9.52
8.1
6.51
5.11
4.21
4.04
4.81
6.5
8.82
11.12
12.62
12.53
10.47
6.71
1.88
-3.03
-7.34
-10.55
-12.49
-13.07
-12.23
-10.02
-6.46
-1.95
2.98
7.46
10.7
12.16
11.64
9.33
5.76
1.67
-2.14
-4.94
-6.24
-5.82
-3.8
-0.57
3.25
6.9
9.8
11.46
11.74
10.72
8.7
6.13
3.44
1.13
-0.56
-1.34
-1.23
-0.23
1.59
4.09
7.14
10.47
13.87
16.95
19.4
20.83
21.13
20.27
18.39
15.74
12.56
9.07
5.4
1.62
-2.22
-5.92
-9.27
-11.96
-13.5
-13.33
-10.9
-5.95
1.33
10.28
19.81
28.7
35.75
40.1
41.2
38.88
33.33
25.09
15.02
4.23
-6.09
-14.93
-21.74
-26.64
-30.21
-33.19
-36.13
-39.12
-41.7
-43.23
-43.0
-40.81
-36.99
-32.25
-27.47
-23.35
-20.34
-18.48
-17.59
-17.06
-16.15
-14.02
-9.92
-3.4
5.45
16.06
27.55
38.84
49.23
58.24
65.49
70.53
72.73
71.36
66.03
56.89
44.56
30.18
14.97
-0.17
-14.69
-28.39
-41.17
-52.74
-62.61
-70.28
-75.4
-77.88
-78.09
-76.56
-73.85
-70.45
-66.63
-62.59
-58.55
-54.64
-50.91
-47.36
-43.67
-39.53
-34.67
-28.97
-22.65
-16.18
-10.15
-4.98
-0.82
2.75
6.41
10.77
16.08
22.12
28.13
33.19
36.51
37.68
37.02
35.28
33.55
32.87
33.92
36.84
41.31
46.74
52.47
58.06
63.15
67.42
70.36
71.2
69.01
62.83
51.86
35.67
14.56
-10.44
-37.22
-62.97
-84.81
-100.54
-109.2
-111.14
-107.64
-100.2
-90.08
-78.06
-64.68
-50.43
-35.83
-21.54
-7.87
5.01
17.25
28.93
39.99
50.02
58.38
64.42
67.23
66.21
60.91
51.35
37.97
21.63
3.4
-15.67
-34.4
-51.8
-66.71
-77.97
-84.46
-85.4
-80.56
-70.49
-56.58
-40.64
-24.83
-10.94
-0.45
5.84
7.83
5.95
1.27
-5.02
-11.57
-17.45
-22.14
-25.47
-27.72
-28.88
-28.74
-26.63
-21.86
-13.84
-2.6
11.26
27.04
43.84
61.28
79.1
97.14
114.94
131.81
146.8
159.11
168.43
174.78
178.58
180.22
179.8
177.01
171.34
162.2
149.19
132.44
112.37
89.88
65.96
41.44
16.96
-7.0
-30.11
-51.89
-71.58
-88.24
-100.79
-108.29
-110.26
-106.63
-97.79
-84.59
-68.09
-49.6
-30.62
-12.59
3.4
16.89
28.08
37.76
46.65
55.21
63.35
70.5
75.99
79.41
80.91
81.01
80.42
79.63
78.89
78.08
76.89
75.11
72.51
69.06
64.58
58.75
51.12
41.33
29.05
14.17
-3.03
-22.0
-41.81
-61.38
-79.59
-95.52
-108.49
-118.29
-125.07
-129.03
-130.34
-129.06
-125.26
-119.34
-111.98
-104.2
-96.83
-90.42
-85.01
-80.39
-76.33
-72.92
-70.64
-69.75
-70.28
-71.41
-71.79
-70.21
-66.04
-59.37
-50.92
-41.54
-31.8
-21.99
-12.1
-2.15
7.45
15.88
22.18
25.57
25.67
22.66
17.21
10.22
2.66
-4.81
-11.79
-18.14
-23.73
-28.46
-32.15
-34.65
-36.09
-36.7
-37.08
-37.72
-39.05
-41.33
-44.56
-48.51
-52.76
-56.83
-60.33
-63.19
-65.43
-67.31
-69.06
-70.58
-71.61
-71.62
-69.95
-66.02
-59.39
-49.76
-36.86
-20.6
-1.17
20.43
42.48
62.77
79.54
92.16
101.4
108.92
116.1
123.16
128.75
130.52
126.42
115.76
99.59
80.06
59.36
38.93
19.44
1.2
-15.26
-28.85
-38.3
-42.56
-41.55
-36.26
-28.34
-19.67
-11.73
-5.38
-0.81
2.09
3.61
3.85
2.74
0.33
-3.29
-7.85
-12.86
-17.83
-22.23
-25.6
-27.53
-27.72
-25.9
-21.93
-15.91
-8.23
0.39
9.03
16.68
22.5
25.9
26.63
24.92
21.25
16.22
10.36
4.12
-2.1
-7.99
-13.23
-17.62
-20.99
-23.39
-24.93
-25.8
-26.29
-26.54
-26.8
-27.3
-28.26
-29.8
-31.89
-34.31
-36.53
-38.05
-38.2
-36.41
-32.19
-25.22
-15.5
-3.43
10.23
24.39
37.77
49.15
57.56
62.27
63.0
59.75
52.93
43.29
32.01
20.31
9.38
0.14
-7.09
-12.36
-16.15
-18.97
-21.32
-23.35
-25.09
-26.47
-27.34
-27.83
-28.18
-28.85
-30.22
-32.57
-35.95
-40.02
-44.03
-46.8
-47.09
-43.87
-36.93
-27.05
-15.6
-4.28
5.59
13.37
19.22
23.46
26.47
28.25
28.46
26.96
23.8
19.39
14.21
8.85
3.46
-1.79
-6.91
-11.98
-16.82
-21.13
-24.55
-26.73
-27.36
-26.39
-24.01
-20.65
-16.91
-13.3
-10.21
-7.73
-5.73
-4.04
-2.29
-0.12
2.97
7.37
13.29
20.39
27.74
34.12
38.37
40.01
39.31
37.22
34.79
32.74
31.18
29.67
27.7
24.86
21.14
16.85
12.5
8.42
4.92
2.07
-0.29
-2.27
-4.21
-6.3
-8.73
-11.48
-14.48
-17.48
-20.1
-21.89
-22.4
-21.34
-18.59
-14.43
-9.27
-3.8
1.37
5.67
8.78
10.68
11.52
11.58
11.22
10.74
10.34
10.13
10.04
9.93
9.65
9.02
8.02
6.78
5.54
4.59
4.15
4.3
4.99
5.99
6.87
7.16
6.39
4.31
0.82
-3.69
-8.63
-13.08
-16.17
-17.26
-16.08
-12.9
-8.33
-3.23
1.77
6.16
9.93
13.14
15.98
18.56
20.76
22.46
23.5
23.84
23.49
22.52
21.07
19.14
16.84
14.06
10.79
7.03
2.79
-1.81
-6.71
-11.57
-16.25
-20.4
-23.83
-26.27
-27.59
-27.77
-27.02
-25.71
-24.24
-23.07
-22.29
-21.83
-21.22
-19.93
-17.4
-13.26
-7.46
-0.32
7.39
14.96
21.54
26.64
29.97
31.43
31.2
29.48
26.58
22.84
18.74
14.66
10.91
7.72
5.03
2.75
0.64
-1.46
-3.61
-5.65
-7.38
-8.5
-8.84
-8.44
-7.53
-6.56
-5.93
-5.9
-6.52
-7.76
-9.52
-11.67
-14.15
-16.81
-19.5
-22.07
-24.26
-26.04
-27.38
-28.32
-28.76
-28.4
-26.8
-23.65
-18.87
-12.55
-5.21
2.59
10.17
16.93
22.46
26.6
29.32
30.72
30.96
30.19
28.55
26.24
23.46
20.57
18.07
16.35
15.69
16.03
17.08
18.37
19.64
20.63
21.26
21.54
21.37
20.61
19.04
16.51
13.0
8.74
4.01
-0.79
-5.38
-9.57
-13.28
-16.57
-19.55
-22.28
-24.73
-26.88
-28.79
-30.49
-32.29
-34.38
-36.82
-39.65
-42.62
-45.32
-47.15
-47.61
-46.11
-42.4
-36.5
-28.62
-19.45
-9.66
-0.11
8.56
15.89
21.65
25.79
28.4
29.75
29.94
29.27
27.93
26.12
24.21
22.4
20.94
19.84
19.27
19.01
18.96
18.85
18.55
17.99
17.11
15.96
14.41
12.56
10.38
7.92
5.3
2.62
0.03
-2.45
-4.75
-6.9
-8.98
-11.07
-13.26
-15.55
-17.92
-20.28
-22.59
-24.72
-26.61
-28.4
-30.32
-32.55
-35.18
-38.17
-41.24
-43.93
-45.64
-45.94
-44.46
-41.08
-35.89
-29.05
-21.0
-12.32
-3.65
4.46
11.42
17.02
21.29
24.3
26.3
27.43
27.83
27.66
27.16
26.45
25.82
25.37
25.11
24.93
24.73
24.45
24.04
23.5
22.67
21.61
20.23
18.54
16.57
14.4
12.09
9.75
7.48
5.25
3.09
0.92
-1.47
-4.1
-6.91
-9.85
-12.66
-15.23
-17.52
-19.6
-21.64
-23.85
-26.31
-29.02
-31.89
-34.7
-37.32
-39.59
-41.3
-42.05
-41.49
-39.11
-34.74
-28.45
-20.64
-12.02
-3.41
4.64
11.71
17.67
22.56
26.39
29.11
30.67
31.03
30.28
28.81
27.01
25.34
24.14
23.53
23.45
23.72
24.19
24.71
25.09
25.17
24.73
23.77
22.27
20.24
17.73
14.87
11.8
8.65
5.63
2.94
0.82
-0.79
-2.03
-3.2
-4.48
-6.05
-7.93
-10.15
-12.74
-15.67
-19.07
-22.86
-26.81
-30.67
-34.15
-37.01
-39.17
-40.74
-41.54
-41.42
-39.99
-36.77
-31.57
-24.45
-15.8
-6.22
3.39
12.3
19.83
25.5
29.01
30.26
29.48
27.12
23.76
19.91
16.2
13.05
10.91
10.06
10.47
12.04
14.35
16.97
19.4
21.47
23.07
24.34
25.41
26.07
26.15
25.35
23.51
20.71
17.16
13.2
9.14
5.29
1.69
-1.64
-4.71
-7.59
-10.26
-12.8
-15.33
-17.94
-20.66
-23.45
-26.29
-29.0
-31.58
-33.88
-35.89
-37.66
-39.3
-40.78
-41.85
-42.03
-40.69
-37.22
-31.33
-23.23
-13.67
-3.83
5.22
12.69
18.21
21.87
23.98
24.91
24.85
23.95
22.35
20.46
18.93
18.46
19.78
23.23
28.71
35.81
43.75
51.87
59.62
66.78
73.14
78.76
83.78
88.71
94.51
101.93
111.17
121.45
130.96
137.29
138.5
133.66
123.23
108.85
92.3
74.91
57.34
39.63
21.66
3.53
-14.55
-32.36
-49.68
-66.63
-83.21
-99.16
-113.89
-126.43
-135.51
-140.05
-139.36
-133.3
-122.41
-107.74
-90.65
-72.67
-55.09
-38.82
-24.64
-13.01
-4.31
1.19
3.4
2.49
-1.08
-6.59
-13.06
-19.57
-25.25
-29.41
-31.79
-32.44
-31.72
-30.06
-27.91
-25.56
-23.19
-21.01
-19.15
-17.87
-17.21
-17.24
-17.81
-18.75
-19.85
-21.01
-22.17
-23.33
-24.52
-25.55
-26.32
-26.67
-26.51
-25.84
-24.69
-23.21
-21.59
-20.04
-18.76
-17.97
-17.87
-18.46
-19.66
-21.04
-22.05
-21.88
-19.83
-15.44
-8.77
-0.4
8.73
17.5
25.11
31.01
35.18
37.77
39.06
39.22
38.43
36.97
35.11
33.25
31.67
30.52
29.67
28.94
28.03
26.84
25.43
23.99
22.77
21.9
21.38
20.87
19.94
18.25
15.56
11.94
7.73
3.49
-0.42
-3.74
-6.55
-9.18
-11.77
-14.37
-16.84
-18.84
-20.05
-20.46
-20.34
-20.29
-20.98
-22.92
-26.13
-30.1
-33.84
-36.12
-36.0
-33.04
-27.48
-20.06
-11.85
-3.7
3.88
10.88
17.44
23.9
30.58
37.65
45.1
52.83
60.56
67.96
74.95
81.71
89.08
98.23
110.19
124.83
140.82
155.29
164.56
165.24
155.08
133.75
102.95
65.86
26.33
-11.75
-45.23
-71.89
-90.71
-101.85
-106.46
-106.31
-103.37
-99.29
-95.13
-91.38
-87.93
-84.46
-80.57
-75.97
-70.32
-63.52
-55.47
-46.17
-35.91
-25.09
-14.14
-3.5
6.41
15.31
22.73
28.19
31.19
31.19
28.08
22.15
14.14
5.24
-3.28
-10.19
-14.54
-15.8
-13.97
-9.34
-2.58
5.31
13.38
20.63
26.32
30.0
31.59
31.17
29.05
25.56
20.77
14.86
7.97
0.54
-6.85
-13.61
-19.45
-24.28
-28.27
-31.95
-35.76
-40.15
-45.28
-50.99
-56.91
-62.55
-67.2
-70.17
-70.8
-68.62
-63.38
-55.16
-44.5
-32.3
-19.82
-8.27
1.43
8.71
13.44
15.81
16.08
14.64
11.99
8.66
5.2
2.26
0.35
-0.13
0.87
3.05
5.91
8.87
11.5
13.56
15.17
16.55
17.87
19.06
19.77
19.59
18.22
15.5
11.67
7.36
3.12
-0.55
-3.47
-5.75
-7.67
-9.41
-11.27
-13.18
-14.9
-16.17
-16.6
-15.79
-13.49
-9.6
-4.1
2.62
10.08
17.55
24.2
29.38
32.78
34.32
34.23
32.86
30.51
27.47
23.96
20.29
16.9
14.3
12.85
12.78
13.99
16.09
18.55
20.95
22.75
23.71
23.52
22.12
19.57
16.11
12.07
7.87
4.01
0.66
-2.07
-4.42
-6.58
-8.82
-11.39
-14.56
-18.52
-23.36
-28.99
-35.08
-41.26
-46.88
-51.31
-53.83
-53.83
-50.97
-45.28
-37.36
