47.64
44.83
41.44
37.69
33.86
30.11
26.51
23.03
19.57
16.06
12.4
8.68
4.99
1.56
-1.49
-4.08
-6.34
-8.49
-10.8
-13.45
-16.4
-19.43
-22.14
-24.08
-24.83
-24.15
-21.97
-18.35
-13.57
-8.01
-2.19
3.37
8.19
12.02
14.75
16.49
17.42
17.78
17.8
17.67
17.61
17.85
18.63
20.13
22.41
25.43
29.06
33.2
37.69
42.39
47.04
51.21
54.45
56.36
56.77
55.82
54.0
51.82
49.81
48.21
46.96
45.88
44.74
43.35
41.65
39.62
37.23
34.45
31.22
27.53
23.43
19.04
14.52
10.11
6.03
2.47
-0.43
-2.63
-4.23
-5.43
-6.38
-6.93
-6.59
-4.54
-0.23
6.23
13.93
21.41
27.13
30.14
30.33
28.16
24.23
18.69
11.23
1.64
-9.88
-22.74
-36.4
-50.76
-66.08
-81.9
-96.31
-105.88
-106.83
-96.94
-77.2
-52.29
-29.07
-14.22
-11.79
-22.54
-44.26
-72.91
-103.69
-131.41
-151.02
-158.64
-152.81
-135.0
-109.48
-81.73
-56.44
-36.2
-21.14
-9.82
-0.66
7.08
13.46
18.22
21.38
23.25
23.78
22.36
17.94
9.57
-2.98
-18.55
-34.87
-49.0
-58.28
-61.29
-58.23
-50.69
-41.11
-31.87
-24.58
-19.91
-17.54
-16.57
-15.97
-14.84
-12.52
-8.65
-3.0
4.38
13.06
22.13
30.4
36.54
39.61
39.36
36.38
32.0
27.99
25.93
26.88
31.1
38.07
46.79
56.08
64.83
72.1
77.29
79.99
79.98
77.19
71.89
64.7
56.39
47.65
38.73
29.44
19.2
7.28
-6.91
-23.47
-41.83
-60.92
-79.27
-95.38
-107.87
-115.63
-117.99
-114.77
-106.37
-93.66
-77.88
-60.44
-42.76
-26.18
-11.76
-0.19
8.21
13.68
16.69
17.96
18.45
18.99
20.04
21.61
23.21
23.96
22.99
19.32
12.29
1.89
-11.3
-26.14
-41.01
-54.19
-63.93
-68.84
-68.12
-61.58
-49.65
-33.34
-14.15
6.24
25.98
43.44
57.47
67.57
73.86
76.81
77.03
75.08
71.38
66.05
59.0
50.09
39.27
26.46
11.63
-5.21
-23.63
-42.62
-60.7
-76.09
-86.86
-91.41
-88.72
-78.58
-61.72
-39.68
-14.57
11.09
34.85
54.71
69.31
78.17
81.76
81.05
77.27
71.88
66.17
61.02
56.66
52.65
48.13
42.12
33.75
22.41
8.13
-8.41
-26.03
-43.22
-58.34
-69.87
-76.58
-77.84
-73.68
-64.73
-52.18
-37.46
-22.12
-7.53
5.16
15.2
22.23
26.32
28.09
28.34
28.2
28.77
30.79
34.56
39.89
46.16
52.5
58.1
62.2
64.33
64.34
62.27
58.36
53.01
46.85
40.45
34.35
28.86
24.12
19.94
15.88
11.4
5.99
-0.68
-8.88
-18.77
-30.37
-43.41
-57.33
-71.25
-83.94
-93.98
-99.99
-100.88
-96.06
-85.65
-70.47
-52.0
-32.11
-12.62
5.01
20.02
32.25
42.09
50.1
56.64
61.87
65.77
68.16
68.88
67.88
65.2
61.07
55.85
49.98
44.08
38.87
34.86
32.22
30.81
30.2
29.9
29.52
28.75
27.43
25.49
22.86
19.6
15.96
12.24
8.84
6.09
4.08
2.58
1.3
-0.18
-2.24
-5.15
-9.22
-14.74
-21.83
-30.53
-40.71
-51.83
-63.08
-73.39
-81.61
-86.81
-88.29
-85.81
-79.58
-70.11
-58.1
-44.38
-29.75
-15.03
-0.95
11.91
23.09
32.33
39.58
44.95
48.51
50.48
51.13
50.75
49.65
48.1
46.28
44.29
42.13
39.59
36.6
33.14
29.25
25.03
20.55
15.86
11.1
6.5
2.42
-0.65
-2.33
-2.42
-1.02
1.52
4.53
7.25
9.01
9.36
8.35
6.33
3.97
1.9
0.59
0.25
0.86
2.27
4.29
6.68
9.13
11.27
12.71
13.22
12.77
11.54
9.86
8.03
6.25
4.59
3.02
1.45
-0.23
-2.1
-4.21
-6.53
-9.03
-11.65
-14.37
-17.14
-19.88
-22.37
-24.29
-25.21
-24.78
-22.83
-19.49
-15.11
-10.2
-5.29
-0.82
2.95
5.92
8.03
9.3
9.74
9.44
8.5
7.16
5.69
4.42
3.61
3.38
3.73
4.5
5.48
6.44
7.25
7.82
8.12
8.17
7.93
7.37
6.44
5.09
3.25
0.91
-1.96
-5.28
-8.89
-12.49
-15.67
-17.95
-18.92
-18.32
-16.07
-12.35
-7.5
-1.98
3.69
9.08
13.82
17.62
20.27
21.67
21.83
20.98
19.44
17.57
15.71
14.07
12.71
11.52
10.43
9.31
8.1
6.87
5.55
4.08
2.4
0.51
-1.57
-3.89
-6.75
-10.71
-16.41
-24.53
-35.43
-48.9
-64.04
-79.41
-93.3
-104.04
-110.26
-110.94
-105.61
-94.29
-77.62
-56.85
-33.7
-10.2
11.68
30.33
44.74
54.46
59.74
61.33
60.25
57.72
54.95
52.68
51.19
50.25
49.32
47.85
45.46
41.9
37.22
31.66
25.53
19.26
13.33
8.25
4.48
2.26
1.53
1.91
2.78
3.41
3.25
2.04
-0.08
-2.6
-4.85
-6.21
-6.28
-5.04
-2.78
0.05
2.98
5.66
7.89
9.55
10.61
11.18
11.39
11.37
11.15
10.68
9.78
8.38
6.6
4.83
3.63
3.49
4.56
6.61
9.06
11.21
12.53
12.77
12.01
10.56
8.77
6.92
5.21
3.73
2.49
1.42
0.37
-1.01
-3.09
-6.22
-10.54
-15.82
-21.42
-26.48
-30.06
-31.4
-30.13
-26.24
-20.14
-12.42
-3.79
5.05
13.41
20.68
26.35
30.04
31.63
31.24
29.2
25.99
22.06
17.81
13.53
9.39
5.47
1.86
-1.43
-4.39
-7.04
-9.41
-11.37
-12.71
-13.14
-12.43
-10.45
-7.32
-3.4
0.79
4.61
7.32
8.24
6.88
3.06
-2.87
-10.07
-17.29
-23.24
-26.85
-27.61
-25.56
-21.24
-15.48
-9.05
-2.61
3.4
8.71
13.14
16.57
18.87
19.96
19.81
18.44
15.92
12.38
8.03
3.08
-2.18
-7.42
-12.28
-16.36
-19.23
-20.61
-20.38
-18.67
-15.89
-12.54
-9.14
-5.98
-3.19
-0.7
1.59
3.71
5.58
7.06
7.95
8.05
7.33
5.85
3.81
1.56
-0.54
-2.1
-2.94
-3.02
-2.55
-1.79
-0.98
-0.26
0.44
1.12
1.76
2.26
2.53
2.41
1.68
-0.04
-3.2
-8.22
-15.5
-25.19
-37.11
-50.56
-64.53
-77.76
-88.91
-96.72
-100.19
-98.75
-92.33
-81.37
-66.75
-49.65
-31.44
-13.49
2.94
16.88
27.66
35.02
39.07
40.16
38.91
36.12
32.63
29.14
26.26
24.28
23.33
23.29
23.79
24.49
25.03
25.24
24.99
24.34
23.48
22.63
21.96
21.53
21.33
21.25
21.18
21.09
21.05
21.14
21.38
21.66
21.8
21.69
21.28
20.7
20.04
19.46
19.04
18.76
18.63
18.57
18.5
18.23
17.46
15.88
13.25
9.58
5.0
-0.22
-5.75
-11.37
-16.9
-22.16
-26.81
-30.42
-32.54
-32.88
-31.45
-28.56
-24.76
-20.62
-16.58
-12.95
-9.9
-7.64
-6.3
-5.84
-6.08
-6.59
-6.88
-6.46
-5.05
-2.55
0.89
5.0
9.44
13.82
17.74
20.88
23.03
24.11
24.14
23.23
21.44
18.89
15.56
11.48
6.7
1.39
-4.21
-9.78
-14.91
-19.2
-22.31
-24.15
-24.89
-24.92
-24.79
-25.26
-27.07
-30.82
-36.77
-44.65
-53.72
-62.78
-70.45
-75.36
-76.44
-73.12
-65.27
-53.32
-38.15
-21.0
-3.28
13.69
28.79
41.37
51.11
58.06
62.36
64.24
63.9
61.58
57.55
52.16
45.9
39.39
33.16
27.59
22.89
19.14
16.29
14.15
12.51
11.11
9.81
8.35
6.6
4.45
1.96
-0.78
-3.61
-6.46
-9.26
-11.8
-13.79
-14.78
-14.33
-12.14
-8.3
-3.45
1.54
5.69
8.18
8.64
7.2
4.44
1.27
-1.3
-2.5
-1.79
0.84
5.04
10.07
15.1
19.29
21.9
22.55
21.08
17.8
13.15
7.87
2.59
-2.13
-5.98
-8.86
-10.77
-11.9
-12.39
-12.56
-12.68
-12.92
-13.33
-13.69
-13.67
-12.94
-11.4
-9.13
-6.42
-3.53
-0.62
2.24
5.01
7.59
9.83
11.5
12.42
12.49
11.74
10.36
8.55
6.64
4.96
3.85
3.44
3.7
4.36
5.04
5.42
5.18
4.25
2.68
0.69
-1.36
-3.01
-3.86
-3.6
-2.24
-0.09
2.17
3.81
4.3
3.48
1.67
-0.62
-2.75
-4.22
-4.73
-4.23
-2.98
-1.32
0.36
1.78
2.69
3.01
2.74
1.97
0.91
-0.27
-1.29
-1.75
-1.36
-0.04
1.97
4.19
6.16
7.73
8.92
9.97
11.13
12.36
13.29
13.19
11.25
6.8
-0.39
-10.31
-22.58
-36.54
-51.38
-66.14
-79.87
-91.65
-100.53
-105.48
-105.61
-100.24
-89.23
-73.28
-53.84
-32.99
-12.98
4.37
17.97
27.63
33.85
37.59
39.66
40.84
41.69
42.48
43.34
44.28
45.2
45.92
46.2
45.71
44.26
41.9
38.76
35.03
30.9
26.47
21.84
17.14
12.55
8.41
5.0
2.49
0.84
-0.15
-0.76
-1.17
-1.45
-1.54
-1.25
-0.49
0.71
2.23
3.87
5.47
6.91
8.12
9.02
9.61
9.91
9.98
9.94
9.98
10.26
10.77
11.39
11.76
11.56
10.45
8.21
4.77
0.3
-4.82
-10.02
-14.63
-18.08
-19.96
-20.14
-18.82
-16.43
-13.47
-10.46
-7.75
-5.47
-3.74
-2.65
-2.23
-2.52
-3.46
-4.87
-6.5
-8.0
-9.06
-9.53
-9.5
-9.16
-8.75
-8.47
-8.38
-8.38
-8.23
-7.53
-5.92
-3.17
0.72
5.52
10.77
15.97
20.53
24.0
26.06
26.59
25.67
23.54
20.53
16.98
13.22
9.48
5.9
2.52
-0.67
-3.72
-6.59
-9.23
-11.56
-13.53
-15.14
-16.46
-17.58
-18.52
-19.23
-19.47
-19.02
-17.7
-15.46
-12.36
-8.65
-4.56
-0.38
3.6
7.13
9.91
11.7
12.38
11.96
10.58
8.66
6.66
4.97
3.81
3.15
2.75
2.41
1.98
1.46
1.16
1.34
2.15
3.51
5.21
6.8
7.86
8.05
7.25
5.61
3.49
1.32
-0.48
-1.69
-2.29
-2.5
-2.64
-3.0
-3.74
-4.86
-6.24
-7.55
-8.58
-9.07
-8.95
-8.19
-6.92
-5.2
-3.13
-0.81
1.72
4.29
6.8
9.1
11.08
12.47
13.12
12.89
11.72
9.77
7.3
4.66
2.13
-0.06
-1.98
-3.72
-5.38
-7.05
-8.64
-9.98
-10.93
-11.37
-11.3
-10.8
-9.93
-8.8
-7.47
-6.03
-4.6
-3.32
-2.3
-1.46
-0.68
0.32
1.73
3.58
5.81
8.09
10.09
11.43
11.94
11.44
9.98
7.68
4.78
1.69
-1.23
-3.7
-5.55
-6.75
-7.35
-7.37
-6.83
-5.79
-4.3
-2.57
-0.76
0.92
2.39
3.57
4.48
5.16
5.61
5.91
6.05
6.11
6.07
5.91
5.59
5.08
4.48
3.87
3.4
3.16
3.1
3.06
2.74
1.89
0.49
-1.28
-3.05
-4.37
-4.91
-4.52
-3.31
-1.58
0.3
2.0
3.34
4.26
4.83
5.15
5.28
5.18
4.66
3.49
1.47
-1.46
-5.1
-9.07
-12.84
-15.87
-17.77
-18.31
-17.48
-15.4
-12.26
-8.31
-3.74
1.16
6.12
10.84
14.99
18.3
20.59
21.83
22.12
21.74
20.94
20.05
19.34
19.07
19.46
20.58
22.41
24.74
27.19
29.27
30.56
30.82
30.1
28.7
27.05
25.61
24.59
23.9
23.16
21.81
19.23
14.88
8.53
0.18
-9.75
-20.5
-31.12
-40.56
-47.91
-52.67
-54.82
-54.9
-53.74
-52.21
-50.89
-50.04
-49.44
-48.62
-47.07
-44.52
-41.07
-36.98
-32.46
-27.58
-22.05
-15.42
-7.37
2.05
12.32
22.41
31.21
37.72
41.19
41.37
38.26
32.13
23.48
13.1
1.84
-9.43
-19.94
-29.2
-36.89
-42.95
-47.38
-50.15
-51.17
-50.39
-47.99
-44.35
-40.06
-35.65
-31.56
-27.93
-24.52
-20.9
-16.65
-11.51
-5.49
1.06
7.71
13.96
19.35
23.69
26.88
28.93
29.98
30.08
29.17
27.25
24.38
20.66
16.24
11.25
5.79
-0.06
-6.23
-12.44
-18.18
-22.65
-25.11
-25.18
-22.92
-18.96
-14.23
-9.61
-5.68
-2.54
0.05
2.5
5.13
8.15
11.47
14.99
18.54
21.82
24.5
26.15
26.42
25.11
22.34
18.35
13.75
9.17
5.13
2.09
0.4
0.28
1.69
4.43
7.92
11.5
14.57
16.51
17.03
16.08
13.8
10.54
6.82
3.09
-0.16
-2.59
-4.06
-4.41
-3.67
-1.89
0.77
4.07
7.55
10.81
13.43
15.05
15.4
14.18
11.1
5.93
-1.5
-11.19
-22.76
-35.42
-48.09
-59.3
-67.27
-70.28
-66.78
-56.26
-39.22
-16.88
9.26
37.97
68.32
99.55
130.57
160.11
186.62
208.87
226.18
238.35
245.42
247.52
244.85
237.92
227.87
215.98
203.1
188.98
172.32
151.42
125.39
94.56
60.74
26.59
-5.15
-32.48
-54.46
-71.12
-82.94
-90.5
-94.49
-95.63
-94.72
-92.63
-90.19
-88.0
-86.27
-84.83
-83.2
-81.0
-78.13
-74.91
-72.11
-70.7
-71.55
-75.18
-81.87
-91.58
-104.31
-119.99
-138.31
-158.77
-180.24
-201.15
-219.52
-233.37
-240.68
-239.88
-230.12
-211.18
-183.74
-149.39
-110.69
-70.79
-33.11
-0.48
25.06
42.42
51.51
53.09
48.48
39.3
27.38
14.69
3.15
-5.62
-10.55
-11.23
-8.0
-1.72
6.33
14.71
22.18
27.75
30.92
31.64
30.37
27.55
23.74
19.56
15.43
11.72
8.75
6.82
6.18
7.05
9.26
12.52
16.46
20.59
24.45
27.63
29.81
30.8
30.56
29.21
26.94
24.05
20.78
17.32
13.83
10.4
7.03
3.62
0.03
-3.88
-8.07
-12.35
-16.29
-19.41
-21.27
-21.63
-20.56
-18.3
-15.24
-11.72
-8.07
-4.52
-1.16
1.93
4.69
7.02
8.77
9.85
10.3
10.31
10.15
10.2
10.73
11.86
13.55
15.62
17.92
20.35
22.86
25.41
27.92
30.28
32.32
33.92
35.08
35.93
36.7
37.69
39.1
40.95
43.13
45.39
47.54
49.48
51.35
53.42
55.96
59.17
63.01
67.39
72.12
77.01
81.93
86.74
91.28
95.42
99.01
101.93
104.08
105.3
105.36
104.05
101.2
96.81
91.05
84.15
76.11
66.66
55.39
41.75
25.3
5.7
-17.15
-43.2
-72.14
-103.41
-136.11
-169.03
-200.88
-230.59
-257.57
-281.63
-302.75
-320.73
-334.84
-343.54
-344.7
-336.0
-315.56
-282.54
-237.61
-182.99
-122.31
-60.13
-1.18
50.34
91.39
120.77
139.17
148.75
152.33
152.37
150.25
146.07
139.37
129.88
118.28
106.05
94.78
85.47
77.93
70.87
62.47
50.83
34.71
13.71
-11.76
-40.92
-72.88
-106.82
-141.99
-177.13
-210.44
-239.7
-263.1
-279.73
-289.74
-293.28
-289.69
-277.13
-253.59
-218.71
-175.01
-127.57
-82.12
-42.51
-9.4
19.16
45.81
71.99
97.63
122.26
146.3
171.18
198.22
227.1
255.2
278.73
294.81
302.63
303.43
299.04
290.25
276.62
257.5
233.54
207.62
184.32
168.04
160.98
162.03
167.03
170.51
167.82
156.97
139.29
118.9
100.71
88.73
84.42
86.64
92.2
97.27
98.52
93.4
80.48
59.35
31.42
0.24
-28.83
-50.44
-61.62
-63.21
-60.11
-59.25
-66.79
-85.53
-113.39
-143.75
-167.27
-174.69
-159.76
-121.28
-63.91
2.95
67.73
119.82
151.88
161.29
149.53
120.9
80.8
35.2
-10.49
-52.39
-88.89
-121.69
-155.05
-194.45
-244.06
-305.14
-374.86
-447.29
-515.38
-572.25
-612.65
-633.23
-632.49
-610.67
-569.18
-509.73
-434.0
-343.66
-240.73
-128.75
-13.22
98.47
198.62
281.03
342.6
383.35
405.71
413.37
409.8
397.86
379.41
354.99
323.88
285.02
238.3
185.82
132.06
81.78
37.64
-1.2
-38.07
-75.4
-111.5
-140.26
-154.04
-148.5
-125.74
-93.29
-59.43
-28.45
1.59
36.62
81.88
137.64
198.47
255.99
303.23
337.26
358.94
370.4
372.73
365.44
348.05
321.93
290.72
259.05
230.05
203.85
177.81
148.4
113.35
72.88
29.18
-15.22
-58.88
-101.94
-145.28
-189.39
-233.46
-275.55
-313.61
-346.74
-375.75
-402.42
-427.72
-449.91
-464.05
-462.82
-439.33
-389.9
-316.07
-224.3
-124.13
-25.19
65.22
143.01
206.52
255.02
287.35
301.76
297.05
274.14
237.09
192.71
148.94
112.32
85.95
68.98
57.97
49.1
40.01
30.25
20.4
10.72
0.38
-12.07
-27.69
-46.03
-65.02
-81.76
-93.95
-100.8
-103.31
-103.57
-103.48
-103.77
-103.66
-101.35
-95.22
-84.74
-70.85
-55.65
-41.42
-29.75
-21.07
-14.8
-10.01
-5.99
-2.27
1.45
5.57
10.52
16.48
23.11
29.44
34.13
36.0
34.51
29.91
23.15
15.49
8.08
1.54
-4.07
-9.01
-13.55
-17.69
-21.09
-23.2
-23.5
-21.83
-18.48
-14.07
-9.25
-4.52
-0.08
3.96
7.63
10.87
13.72
16.36
19.12
22.37
26.28
30.69
35.11
38.92
41.62
43.0
43.21
42.64
41.69
40.66
39.66
38.71
37.87
37.25
36.99
37.16
37.7
38.48
39.43
40.64
42.28
44.55
47.41
50.6
53.74
56.46
58.68
60.57
62.38
64.32
66.38
68.43
70.35
72.17
74.07
76.33
79.13
82.58
86.6
90.98
95.48
99.86
103.98
107.88
111.56
115.04
118.36
121.34
123.43
123.69
120.98
114.35
103.32
87.8
68.01
44.39
17.44
-12.24
-43.9
-76.65
-109.58
-141.79
-172.67
-201.42
-226.52
-245.7
-256.58
-257.54
-248.33
-230.18
-205.3
-177.19
-149.11
-123.13
-99.77
-78.74
-59.5
-41.2
-22.6
-2.35
18.79
39.72
60.35
81.98
105.53
130.0
152.35
168.82
176.67
172.84
157.22
133.5
107.46
83.03
60.33
37.26
12.29
-14.11
-44.22
-81.39
-128.37
-185.76
-252.34
-325.06
-398.86
-467.81
-502.4
-482.33
-410.35
-312.17
-214.97
-131.5
-60.98
2.02
61.32
117.23
164.06
196.58
214.48
223.6
231.0
239.92
249.03
254.8
254.17
243.54
222.79
196.72
173.55
159.82
157.36
162.93
171.47
177.53
173.54
153.63
116.84
68.56
18.16
-24.27
-50.72
-58.16
-49.88
-37.89
-35.61
-50.4
-79.77
-114.22
-142.56
-156.52
-153.07
-134.36
-110.63
-93.68
-90.65
-100.82
-117.63
-131.89
-134.74
-120.21
-88.23
-50.93
-26.46
-30.51
-69.83
-141.87
-238.0
-347.53
-460.38
-538.34
-549.17
-489.41
-387.1
-275.4
-171.23
-76.47
11.45
93.17
166.13
221.96
253.61
261.1
253.62
242.62
236.22
235.77
237.32
234.08
216.61
178.58
120.43
49.57
-21.79
-81.42
-121.29
-132.91
-112.3
-62.38
8.74
92.87
170.41
221.28
237.71
226.1
199.32
167.85
135.95
103.85
71.24
39.37
12.3
-5.49
-12.46
-10.64
-4.75
-0.39
-1.7
-10.4
-25.7
-44.27
-62.08
-76.73
-88.05
-97.58
-106.99
-117.1
-128.38
-139.24
-147.22
-149.68
-145.38
-134.85
-120.05
-103.39
-86.98
-72.39
-59.66
-48.12
-36.61
-24.19
-10.6
3.77
17.99
30.93
41.33
49.18
54.62
58.33
61.34
64.76
69.81
77.67
89.99
102.06
112.76
121.78
129.38
136.28
143.39
151.75
162.33
175.71
191.32
207.91
222.0
228.88
224.32
206.22
175.63
136.34
93.57
52.11
16.12
-12.11
-31.56
-41.93
-43.63
-38.04
-27.68
-15.82
-5.61
1.41
4.89
5.49
4.2
1.89
-0.78
-3.1
-4.41
-4.16
-2.09
1.35
5.26
8.79
11.67
14.16
16.76
19.57
22.14
23.78
23.85
22.19
19.24
15.71
12.2
9.02
5.99
2.6
-1.85
-8.01
-16.25
-26.35
-37.41
-48.0
-56.74
-62.79
-66.26
-67.95
-68.82
-69.4
-69.56
-68.84
-67.05
-64.6
-62.38
-61.17
-60.88
-60.36
-57.81
-51.86
-42.53
-31.46
-21.31
-14.51
-12.08
-13.31
-16.28
-18.97
-20.26
-20.44
-20.71
-22.49
-26.66
-33.29
-41.86
-51.55
-61.6
-71.37
-80.36
-87.99
-93.84
-97.58
-99.13
-98.79
-97.06
-94.53
-91.71
-88.86
-85.83
-82.25
-77.75
-72.16
-65.65
-58.57
-51.17
-43.37
-34.78
-24.94
-13.67
-1.3
11.41
23.48
34.1
42.96
50.24
56.41
61.98
67.04
71.24
73.85
74.06
71.44
66.15
58.94
50.85
42.94
35.89
30.05
25.55
22.33
20.34
19.49
19.82
21.5
24.97
30.6
38.44
47.93
57.82
66.47
72.37
74.88
74.3
71.83
68.91
66.53
64.75
62.53
58.38
51.27
41.46
30.51
20.47
13.04
8.83
7.92
10.49
17.31
29.41
47.29
69.87
94.05
115.2
127.83
127.39
111.42
80.24
36.6
-14.77
-68.05
-117.25
-157.45
-185.0
-197.43
-193.86
-174.79
-142.36
-100.59
-54.77
-10.37
27.32
54.69
70.55
75.45
70.18
55.51
32.56
3.89
-25.75
-51.68
-69.15
-73.8
-62.92
-37.52
-2.72
33.59
63.81
83.65
90.94
87.51
78.57
70.32
66.3
65.49
64.03
58.72
48.36
29.41
-2.47
-50.95
-116.9
-197.78
-288.03
-380.05
-466.06
-517.56
-514.24
-455.95
-364.41
-266.43
-177.98
-102.8
-38.92
16.05
63.11
98.98
120.73
128.68
127.2
121.94
116.86
113.66
112.66
113.61
113.65
110.04
102.01
91.56
81.57
73.83
68.61
65.42
63.62
61.32
56.97
50.21
42.49
35.51
30.09
26.05
23.14
21.35
20.77
22.05
26.17
34.44
47.34
63.87
81.84
99.13
113.34
122.75
126.45
124.01
115.43
100.73
79.96
53.09
22.23
-10.76
-44.04
-75.65
-103.21
-123.39
-132.37
-127.16
-107.19
-75.84
-40.03
-7.69
15.26
26.8
28.97
25.98
21.73
18.43
16.07
13.62
10.58
7.56
5.86
6.32
8.82
12.19
15.01
16.12
15.18
12.82
10.23
8.66
8.79
10.58
13.34
16.11
17.97
18.57
17.87
16.37
14.78
13.75
13.6
14.08
14.38
13.3
9.79
3.01
-6.95
-19.03
-31.27
-41.31
-47.12
-47.8
-43.66
-36.22
-27.51
-19.29
-12.38
-6.58
-0.89
5.79
14.38
25.19
37.67
50.0
59.13
61.37
53.72
35.89
11.03
-14.59
-33.83
-41.4
-36.29
-21.85
-4.25
10.15
17.42
16.76
10.03
0.26
-9.62
-17.52
-22.28
-23.8
-22.69
-19.97
-16.35
-11.82
-5.7
2.52
12.25
21.45
27.0
26.32
19.07
7.83
-2.67
-7.73
-5.29
3.1
12.81
18.28
15.74
5.08
-10.46
-25.85
-36.89
-42.34
-43.91
-45.11
-49.26
-58.05
-71.04
-86.68
-103.43
-118.84
-131.58
-139.97
-141.56
-133.89
-116.17
-90.46
-61.32
-33.41
-8.77
14.42
40.77
74.36
115.83
161.47
205.3
242.51
271.86
295.24
314.75
329.98
336.87
329.64
304.1
260.35
203.21
140.4
79.91
27.71
-12.89
-41.42
-59.71
-71.38
-81.13
-93.54
-111.66
-135.81
-163.47
-190.15
-211.38
-224.61
-230.39
-231.96
-233.85
-239.89
-251.23
-265.71
-278.35
-283.32
-276.15
-255.71
-224.93
-189.65
-156.61
-131.07
-115.44
-108.97
-108.4
-109.08
-106.03
-94.98
-73.18
-40.3
1.39
47.34
91.99
130.21
158.67
176.26
183.79
183.26
176.95
167.12
155.7
144.35
134.3
125.86
118.54
111.21
102.84
93.0
82.43
72.71
65.65
62.57
63.51
67.18
71.31
73.54
72.33
67.45
60.04
51.84
44.58
39.12
35.37
32.59
29.87
26.75
23.32
20.12
17.62
15.98
14.82
13.54
11.65
9.05
5.99
2.88
-0.01
-2.68
-5.32
-8.13
-11.07
-13.77
-15.76
-16.67
-16.36
-15.02
-13.05
-10.92
-9.05
-7.72
-7.04
-6.98
-7.44
-8.2
-9.12
-10.07
-10.95
-11.77
-12.62
-13.57
-14.7
-15.97
-17.16
-17.93
-17.78
-16.33
-13.4
-9.23
-4.31
0.78
5.46
9.37
12.32
14.27
15.25
15.32
14.6
13.23
11.35
9.03
6.34
3.36
0.31
-2.41
-4.46
-5.56
-5.76
-5.4
-4.96
-4.86
-5.32
-6.3
-7.59
-8.96
-10.22
-11.24
-11.94
-12.28
-12.21
-11.78
-11.09
-10.2
-9.24
-8.19
-7.01
-5.59
-3.77
-1.45
1.39
4.63
8.03
11.22
13.92
15.97
17.4
18.34
18.88
18.99
18.56
17.51
15.83
13.61
10.94
7.75
3.95
-0.52
-5.53
-10.62
-15.07
-18.22
-19.53
-18.87
-16.4
-12.44
-7.43
-1.74
4.24
10.09
15.27
19.32
21.82
22.57
21.71
19.41
16.08
12.02
7.42
2.42
-2.82
-7.99
-12.64
-16.21
-18.37
-18.99
-18.21
-16.39
-13.91
-11.06
-8.07
-5.13
-2.42
-0.15
1.58
2.75
3.48
3.94
4.22
4.29
4.06
3.56
2.9
2.37
2.21
2.55
3.38
4.43
5.38
5.99
6.21
6.2
6.23
6.63
7.7
9.64
12.48
16.07
20.03
23.87
27.07
29.27
30.29
30.26
29.53
28.5
27.59
27.13
27.43
28.81
31.57
35.91
41.87
49.23
57.53
66.14
74.38
81.72
87.81
92.52
95.76
97.51
97.62
95.97
92.56
87.68
81.77
75.01
67.06
56.82
42.94
24.59
2.24
-22.25
-46.09
-66.5
-81.53
-90.31
-93.11
-91.07
-86.03
-80.43
-76.85
-77.42
-82.93
-92.5
-103.74
-113.83
-120.69
-123.66
-123.62
-122.33
-121.77
-123.28
-127.25
-132.74
-137.57
-138.52
-132.29
-116.78
-92.28
-61.95
-30.9
-4.51
13.6
22.55
24.07
21.01
15.79
9.56
2.42
-5.62
-13.53
-19.16
-20.01
-14.57
-3.34
11.22
25.75
37.64
46.15
52.55
59.24
68.21
79.72
91.93
101.54
105.15
100.6
87.77
68.38
45.19
20.87
-2.69
-24.66
-44.91
-63.44
-80.02
-93.87
-103.81
-108.71
-107.88
-101.52
-90.82
-77.63
-63.91
-51.09
-39.71
-29.5
-19.71
-9.65
0.91
11.7
22.08
31.41
39.25
45.45
49.95
52.77
53.86
53.11
50.59
46.68
42.13
38.0
35.27
34.6
36.14
39.58
44.28
49.57
54.93
60.0
64.63
68.83
72.63
75.99
78.73
80.42
80.52
78.68
75.09
70.71
66.96
65.24
66.51
70.79
77.37
85.08
92.79
99.75
105.59
109.93
112.47
113.27
112.78
111.77
110.47
107.74
100.95
86.87
62.97
29.69
-8.53
-44.32
-70.51
-83.76
-86.65
-86.79
-93.29
-113.45
-149.07
-195.9
-245.87
-290.78
-324.81
-344.38
-346.41
-327.09
-284.99
-221.19
-140.22
-49.3
42.79
127.53
199.01
255.41
298.49
327.96
342.71
341.74
325.54
295.87
254.67
204.11
147.11
86.87
20.77
-56.59
-150.44
-262.28
-389.45
-526.32
-665.32
-798.11
-886.15
-896.16
-816.56
-668.24
-489.74
-314.67
-160.83
-32.37
73.5
160.95
228.11
271.88
292.58
297.34
295.58
294.98
299.4
308.7
320.32
327.83
326.36
313.68
292.22
264.88
228.82
181.17
120.23
47.27
-35.12
-120.99
-204.03
-268.08
-297.12
-284.51
-236.49
-167.43
-91.95
-25.83
29.74
74.3
108.58
133.54
151.66
164.73
176.68
191.69
211.93
236.2
257.73
267.94
257.85
221.91
160.17
78.74
-11.54
-97.34
-166.61
-212.54
-231.86
-224.95
-193.79
-142.97
-80.72
-17.68
37.29
79.46
109.4
133.92
160.71
194.16
230.16
255.44
254.19
217.01
143.35
41.41
-74.05
-188.34
-280.59
-326.62
-315.37
-257.23
-173.03
-82.32
-1.64
68.8
128.11
174.42
205.01
217.57
208.41
180.16
136.82
83.25
23.97
-38.57
-102.84
-170.07
-243.59
-324.85
-393.62
-426.78
-410.0
-347.48
-256.95
-157.17
-62.53
18.72
84.82
139.61
185.23
224.66
257.61
281.99
296.81
301.51
295.87
280.33
256.68
218.47
168.88
113.48
58.12
8.48
-31.92
-61.61
-80.51
-89.23
-90.36
-86.17
-79.96
-74.31
-69.93
-67.06
-66.05
-67.03
-69.98
-75.36
-82.74
-92.06
-105.51
-119.52
-130.39
-135.22
-131.31
-116.93
-91.92
-57.12
-15.38
29.37
73.28
112.39
142.88
162.21
168.95
162.95
145.95
120.42
89.75
57.75
27.77
1.67
-19.41
-35.73
-48.54
-59.47
-70.32
-82.09
-98.82
-118.15
-136.88
-151.13
-157.48
-153.51
-137.53
-108.95
-67.8
-14.92
47.57
117.28
191.29
265.38
334.56
394.07
439.85
469.55
482.25
477.31
449.45
399.48
333.54
261.16
191.83
132.07
85.77
54.57
28.01
5.29
-12.45
-24.82
-32.67
-37.82
-43.22
-52.94
-59.69
-62.9
-62.08
-59.32
-58.2
-62.68
-75.66
-98.06
-128.66
-164.57
-204.01
-243.18
-280.73
-316.43
-350.35
-382.26
-411.17
-435.72
-454.61
-468.39
-476.37
-480.96
-484.33
-486.57
-485.12
-475.2
-451.69
-411.52
-355.43
-286.5
-214.11
-148.59
-98.25
-67.96
-59.38
-72.28
-105.2
-155.1
-193.58
-197.0
-153.7
-71.01
30.09
127.02
204.05
254.33
279.41
286.33
280.11
264.19
240.51
210.98
178.13
145.66
116.37
91.9
72.31
53.34
30.7
1.99
-31.33
-67.09
-98.03
-117.71
-121.88
-108.8
-81.03
-42.8
1.48
49.39
96.71
140.9
180.01
212.6
237.69
253.85
260.37
257.47
246.77
230.66
212.42
194.5
178.37
164.58
152.62
141.7
130.93
119.88
108.48
97.37
87.08
77.89
69.87
62.86
56.61
50.86
45.43
40.13
35.03
30.33
26.07
22.31
19.04
16.19
13.69
11.55
9.79
8.53
8.13
8.8
10.76
14.15
18.88
24.65
30.94
38.06
44.35
48.76
50.27
48.14
41.77
31.09
16.39
-1.44
-21.18
-41.33
-60.18
-76.09
-87.72
-94.3
-95.54
-91.77
-83.75
-72.83
-60.5
-48.19
-37.15
-28.4
-22.57
-19.96
-20.37
-23.22
-27.88
-33.74
-40.14
-46.5
-52.57
-58.24
-63.69
-69.1
-74.41
-79.56
-84.7
-89.82
-94.85
-99.78
-104.65
-109.6
-114.86
-120.06
-125.06
-129.94
-135.0
-140.51
-146.66
-153.71
-161.94
-171.6
-181.78
-191.8
-200.85
-208.42
-214.1
-217.49
-218.14
-215.29
-214.23
-217.36
-226.32
