0.05
-1.01
-1.97
-2.67
-3.02
-3.04
-2.99
-3.16
-3.91
-5.48
-7.93
-11.03
-14.37
-17.29
-19.16
-19.49
-18.09
-15.13
-11.11
-6.67
-2.36
1.43
4.65
7.57
10.63
14.2
18.4
22.98
27.28
30.59
32.26
31.98
29.88
26.42
22.19
17.71
13.4
9.53
6.33
3.98
2.53
1.97
2.06
2.46
2.7
2.39
1.34
-0.44
-2.71
-5.11
-7.27
-9.01
-10.35
-11.48
-12.64
-14.02
-15.66
-17.53
-19.54
-21.51
-23.28
-24.56
-24.98
-24.19
-22.01
-18.52
-14.15
-9.42
-4.85
-0.75
2.75
5.67
8.02
9.76
10.84
11.19
10.94
10.37
9.89
9.89
10.55
11.78
13.26
14.53
15.24
15.26
14.62
13.52
12.18
10.77
9.32
7.79
6.13
4.29
2.34
0.31
-1.68
-3.52
-5.12
-6.49
-7.67
-8.73
-9.77
-10.9
-12.34
-14.2
-16.45
-18.79
-20.59
-21.03
-19.46
-15.68
-10.08
-3.63
2.54
7.52
10.8
12.47
12.92
12.66
12.01
11.19
10.26
9.35
8.65
8.28
8.24
8.4
8.52
8.38
7.96
7.36
6.8
6.49
6.46
6.62
6.78
6.73
6.3
5.4
4.07
2.36
0.42
-1.61
-3.61
-5.51
-7.31
-9.06
-10.85
-12.7
-14.6
-16.47
-18.31
-20.1
-21.86
-23.56
-25.0
-25.84
-25.63
-24.01
-20.88
-16.44
-11.22
-5.86
-0.97
3.03
6.06
8.19
9.62
10.49
10.87
10.75
10.15
9.23
8.21
7.4
6.98
7.01
7.35
7.77
8.04
8.05
7.83
7.38
6.73
5.8
4.51
2.81
0.76
-1.49
-3.79
-6.02
-8.18
-10.33
-12.5
-14.6
-16.33
-17.3
-17.1
-15.6
-12.96
-9.7
-6.48
-3.89
-2.24
-1.48
-1.33
-1.32
-1.05
-0.2
1.41
3.81
6.91
10.54
14.45
18.34
22.01
25.28
28.02
30.06
31.15
30.99
29.35
26.39
22.67
19.23
17.21
17.56
20.57
25.68
31.65
36.86
39.94
40.02
37.01
31.39
24.07
16.12
8.49
1.97
-2.97
-6.19
-7.96
-8.78
-9.28
-9.99
-11.21
-12.94
-14.94
-16.82
-18.22
-19.02
-19.47
-19.96
-20.98
-22.74
-25.04
-27.27
-28.61
-28.47
-26.76
-24.07
-21.39
-19.85
-20.02
-21.73
-24.06
-25.67
-25.44
-22.82
-17.96
-11.65
-4.97
1.12
5.96
9.24
10.98
11.39
10.76
9.59
8.37
7.61
7.58
8.26
9.32
10.23
10.45
9.57
7.56
4.6
1.15
-2.38
-5.67
-8.68
-11.47
-14.31
-17.38
-20.67
-23.94
-26.63
-28.1
-27.82
-25.71
-22.04
-17.43
-12.57
-7.93
-3.71
0.14
3.66
6.81
9.37
11.01
11.62
11.24
10.19
8.9
7.85
7.34
7.49
8.23
9.31
10.49
11.48
12.16
12.4
12.2
11.59
10.58
9.22
7.53
5.63
3.59
1.57
-0.35
-2.09
-3.68
-5.18
-6.67
-8.2
-9.71
-11.23
-12.71
-14.14
-15.53
-16.76
-17.61
-17.74
-16.81
-14.58
-11.15
-6.82
-2.03
2.79
7.39
11.66
15.55
18.91
21.49
22.88
22.83
21.3
18.68
15.65
12.89
10.89
9.76
9.2
8.76
8.08
7.03
5.78
4.63
3.82
3.45
3.52
4.08
5.37
7.65
10.95
14.79
18.23
20.2
20.0
17.64
13.73
9.11
4.24
-0.86
-6.49
-12.83
-19.59
-25.99
-31.24
-34.82
-36.7
-37.19
-36.58
-34.89
-32.06
-28.1
-23.26
-18.18
-13.61
-10.17
-8.08
-7.14
-6.87
-6.73
-6.27
-5.27
-3.74
-1.84
0.23
2.26
4.15
5.83
7.28
8.63
9.99
11.5
13.25
15.19
17.06
18.54
19.29
19.06
17.85
15.79
13.13
10.12
6.95
3.7
0.45
-2.64
-5.31
-7.19
-7.99
-7.54
-5.97
-3.64
-0.99
1.63
4.01
6.07
7.82
9.19
10.03
10.23
9.76
8.75
7.44
6.07
4.84
3.86
3.16
2.72
2.49
2.38
2.28
2.17
2.07
2.11
2.37
2.75
3.04
2.94
2.19
0.75
-1.15
-3.18
-5.03
-6.51
-7.71
-8.74
-9.75
-10.87
-12.11
-13.49
-14.94
-16.42
-17.63
-18.23
-17.78
-15.95
-12.65
-8.06
-2.58
3.24
8.77
13.5
16.97
18.9
19.22
18.12
16.01
13.44
11.0
9.13
8.15
8.12
8.9
10.26
11.81
13.22
14.29
15.04
15.56
16.12
16.96
18.26
20.09
22.31
24.59
26.45
27.4
27.03
25.22
22.11
18.1
13.72
9.46
5.68
2.57
0.27
-1.19
-1.74
-1.47
-0.64
0.42
1.27
1.67
1.58
1.2
0.82
0.7
0.8
0.87
0.63
-0.17
-1.49
-3.07
-4.55
-5.58
-6.07
-6.12
-6.01
-5.99
-6.2
-6.59
-7.02
-7.33
-7.47
-7.5
-7.57
-7.87
-8.43
-9.2
-10.02
-10.74
-11.28
-11.66
-12.09
-12.79
-14.06
-16.13
-19.05
-22.72
-26.92
-31.3
-35.38
-38.67
-40.69
-41.03
-39.59
-36.47
-32.07
-27.03
-22.02
-17.65
-14.33
-12.25
-11.36
-11.51
-12.37
-13.6
-14.86
-15.87
-16.49
-16.69
-16.61
-16.4
-16.25
-16.23
-16.35
-16.5
-16.56
-16.43
-16.05
-15.51
-15.02
-14.84
-15.23
-16.23
-17.61
-18.65
-18.4
-15.94
-10.66
-2.4
8.44
21.03
34.22
46.73
57.32
65.06
69.57
71.21
70.93
69.97
69.4
69.71
70.78
71.99
72.65
72.11
70.01
66.11
60.31
52.71
43.62
33.57
23.1
12.73
2.71
-6.82
-15.81
-24.21
-31.83
-38.43
-43.91
-48.25
-51.45
-53.58
-54.69
-54.83
-54.17
-52.9
-51.24
-49.41
-47.61
-45.94
-44.43
-43.1
-41.88
-40.65
-39.21
-37.31
-34.72
-31.32
-27.11
-22.3
-17.1
-11.74
-6.47
-1.44
3.22
7.38
10.92
13.72
15.67
16.7
16.89
16.4
15.54
14.63
13.95
13.65
13.76
14.19
14.83
15.6
16.36
16.99
17.32
17.22
16.58
15.45
13.91
12.11
10.17
8.08
5.81
3.27
0.47
-2.55
-5.77
-9.19
-12.83
-16.75
-20.85
-24.81
-28.05
-29.91
-29.85
-27.64
-23.45
-17.8
-11.4
-5.04
0.65
5.24
8.52
10.47
11.27
11.13
10.32
9.14
7.85
6.69
5.71
4.87
4.08
3.26
2.4
1.6
1.02
0.74
0.75
0.82
0.73
0.26
-0.65
-1.87
-3.14
-4.17
-4.81
-5.0
-4.91
-4.73
-4.75
-5.21
-6.24
-7.81
-9.69
-11.49
-12.64
-12.65
-11.26
-8.51
-4.88
-0.99
2.6
5.56
7.88
9.73
11.25
12.5
13.39
13.73
13.46
12.61
11.41
10.14
8.97
8.0
7.21
6.58
6.16
6.1
6.47
7.28
8.37
9.41
10.1
10.31
10.07
9.59
8.98
8.2
7.02
5.22
2.65
-0.64
-4.42
-8.48
-12.56
-16.47
-19.97
-22.71
-24.18
-23.98
-21.84
-17.86
-12.56
-6.63
-0.84
4.22
8.25
11.16
13.02
13.96
14.13
13.62
12.56
11.11
9.5
8.01
6.89
6.34
6.42
7.09
8.12
9.31
10.39
11.21
11.68
11.75
11.38
10.58
9.45
8.17
7.08
6.48
6.5
7.14
8.15
9.17
9.83
9.91
9.38
8.49
7.7
7.5
8.41
10.68
14.46
19.49
25.47
31.98
38.6
44.98
50.75
55.6
59.18
61.34
61.98
61.28
59.52
57.01
53.88
49.93
44.52
36.66
25.51
10.83
-6.72
-25.56
-43.84
-60.4
-75.51
-90.57
-107.57
-127.92
-151.33
-175.74
-198.03
-215.24
-224.98
-225.58
-215.55
-193.92
-161.07
-119.47
-73.63
-28.9
10.4
42.71
69.3
92.94
115.48
136.25
152.11
159.06
154.27
137.58
111.62
80.8
50.3
24.86
7.75
0.31
1.84
10.31
23.36
38.9
55.12
70.63
84.09
93.55
97.34
94.96
87.77
78.73
71.24
67.49
68.68
74.89
84.96
97.5
111.4
126.03
140.88
155.19
167.11
175.01
177.43
172.43
158.57
135.39
103.57
65.37
27.25
-9.3
-46.49
-82.78
-117.01
-147.88
-174.18
-195.11
-210.52
-221.04
-228.39
-233.5
-236.18
-236.14
-232.73
-225.37
-214.01
-199.4
-182.85
-166.2
-150.1
-133.93
-117.21
-99.99
-83.24
-68.84
-58.69
-53.84
-54.23
-57.99
-62.23
-64.56
-63.41
-58.27
-49.53
-37.89
-24.27
-9.91
3.95
16.05
25.21
30.81
32.97
32.5
30.76
29.11
28.42
29.13
31.18
34.15
37.46
40.53
42.72
43.62
43.14
41.39
38.63
35.02
30.5
24.87
18.05
10.17
1.66
-6.79
-14.39
-20.48
-24.68
-26.91
-27.27
-25.87
-22.66
-17.5
-10.27
-1.14
9.29
20.03
29.9
37.86
43.14
45.47
44.92
41.88
36.94
30.87
24.57
18.82
14.15
10.78
8.66
7.56
7.27
7.7
8.84
10.72
13.2
15.88
18.24
19.84
20.57
20.6
20.38
20.4
20.94
21.87
22.64
22.45
20.51
16.26
9.47
0.31
-10.66
-22.56
-34.27
-44.6
-52.45
-57.06
-58.12
-55.91
-51.14
-44.77
-37.83
-31.16
-25.39
-20.86
-17.57
-15.28
-13.47
-11.48
-8.71
-4.94
-0.43
4.08
7.5
8.85
7.63
4.11
-0.78
-5.76
-9.76
-12.16
-12.96
-12.64
-11.85
-11.1
-10.44
-9.49
-7.56
-3.96
1.85
10.04
20.26
31.76
43.49
54.56
64.77
75.03
87.37
104.33
127.91
158.3
193.16
227.86
256.85
275.37
281.12
274.77
259.53
239.93
220.49
204.88
195.55
193.81
199.83
212.68
230.24
249.44
266.76
279.06
284.37
281.92
271.79
254.21
229.33
197.37
159.01
115.61
69.13
21.51
-26.02
-73.24
-120.54
-168.06
-215.06
-259.58
-299.19
-331.93
-357.16
-375.98
-390.85
-404.69
-419.55
-435.47
-450.11
-459.48
-459.34
-446.78
-420.93
-382.9
-335.5
-282.83
-229.93
-181.89
-142.76
-114.13
-94.62
-80.62
-68.29
-55.66
-43.22
-32.9
-25.94
-21.44
-17.05
-11.0
-4.21
0.21
-0.72
-7.41
-16.8
-24.16
-25.89
-21.49
-13.16
-3.9
4.2
10.14
12.85
10.22
-0.48
-20.37
-47.14
-75.05
-97.32
-109.26
-110.35
-103.74
-93.64
-82.88
-71.9
-59.77
-45.78
-30.39
-14.7
0.82
16.9
34.9
55.31
76.91
97.31
114.49
128.24
140.14
152.32
165.77
179.62
191.85
200.88
206.78
211.1
215.75
221.58
227.79
232.63
234.5
232.91
228.48
222.27
215.01
206.8
197.34
186.33
173.67
159.46
143.82
126.9
109.1
91.11
73.92
58.56
45.87
36.3
29.96
26.64
25.83
26.67
28.02
28.68
27.69
24.76
20.39
15.69
11.95
10.05
10.17
11.78
14.01
16.14
17.9
19.53
21.62
24.79
29.41
35.49
42.72
50.59
58.61
66.62
74.97
84.47
96.13
110.68
128.19
147.98
168.92
189.85
210.04
229.45
248.53
267.94
288.11
308.85
329.06
346.47
357.74
358.75
345.61
315.79
268.97
207.3
134.6
55.05
-27.86
-111.8
-195.19
-276.24
-352.29
-420.15
-476.89
-520.98
-553.19
-576.17
-593.37
-607.64
-620.05
-629.66
-634.05
-630.23
-615.54
-588.09
-547.24
-494.18
-432.83
-369.91
-313.72
-271.18
-244.81
-231.55
-224.52
-216.7
-204.6
-189.21
-173.79
-160.2
-146.3
-126.89
-97.18
-56.6
-9.76
35.39
71.73
96.54
111.88
122.85
134.59
149.9
168.58
188.3
205.63
217.29
221.27
217.7
208.84
198.12
188.14
178.89
167.23
148.32
118.57
78.28
32.25
-11.82
-46.53
-67.74
-75.58
-73.5
-66.09
-57.32
-49.79
-45.48
-46.1
-53.07
-66.44
-83.77
-100.34
-110.66
-110.56
-98.83
-77.35
-49.47
-18.07
15.48
50.95
87.55
122.69
152.29
172.56
182.07
183.04
180.13
178.22
180.22
186.28
194.49
202.47
208.38
211.42
211.65
209.45
205.14
198.66
189.03
174.28
152.0
120.28
79.09
31.04
-19.24
-66.29
-105.21
-132.2
-144.36
-139.71
-118.11
-82.29
-38.2
6.03
42.66
67.05
78.88
81.59
79.97
77.33
74.24
69.24
60.42
47.25
30.97
14.46
1.32
-5.12
-3.18
6.75
22.47
40.83
58.84
74.54
87.68
99.76
112.88
127.5
141.84
153.16
159.7
161.57
160.12
156.56
151.37
144.8
136.77
128.53
123.95
128.4
145.17
172.02
200.96
221.32
223.86
202.1
153.48
80.02
-12.32
-115.93
-223.81
-330.22
-430.24
-508.55
-546.15
-533.86
-480.75
-406.7
-329.68
-260.1
-201.62
-153.69
-113.82
-81.04
-56.18
-39.94
-31.08
-26.92
-24.62
-22.02
-17.73
-10.7
-1.88
6.32
11.92
14.88
16.67
19.24
24.19
32.45
44.55
59.56
75.39
89.86
102.05
111.42
117.59
120.08
118.37
112.19
101.21
85.25
64.64
41.48
18.02
-3.68
-22.13
-36.47
-46.48
-52.56
-55.58
-56.33
-55.55
-53.86
-51.65
-49.21
-46.71
-44.21
-41.8
-39.48
-37.11
-34.68
-32.29
-30.02
-27.96
-26.14
-24.52
-23.1
-21.77
-20.47
-19.14
-17.88
-16.76
-15.85
-15.22
-14.8
-14.6
-14.47
-14.35
-14.17
-13.98
-13.89
-14.04
-14.91
-16.23
-18.02
-20.17
-22.73
-25.8
-29.63
-34.5
-40.63
-47.89
-55.66
-63.43
-69.54
-72.55
-71.43
-65.71
-55.65
-41.97
-25.58
-7.23
12.5
33.23
54.42
75.06
93.58
107.91
116.12
116.94
110.28
97.28
79.97
60.37
40.09
20.45
1.5
-16.93
-34.97
-52.67
-70.1
-87.06
-102.42
-113.62
-116.82
-108.5
-87.34
-55.8
-19.89
12.8
36.2
47.94
49.69
45.64
39.83
34.5
29.77
24.64
18.8
12.93
8.34
5.94
5.57
5.95
5.48
2.85
-2.17
-8.73
-15.43
-20.94
-24.65
-26.87
-28.61
-31.11
-35.21
-41.18
-48.62
-56.81
-65.04
-73.07
-81.05
-89.44
-98.63
-108.49
-118.36
-127.26
-133.59
-135.76
-132.67
-123.66
-108.72
-88.34
-63.44
-35.21
-5.02
25.39
54.29
80.12
101.81
118.64
130.34
137.03
139.26
137.79
133.53
127.89
121.25
114.11
106.83
99.68
92.75
86.11
79.77
73.77
68.06
62.56
57.3
52.31
47.58
43.12
38.95
35.08
31.51
28.23
25.14
22.22
19.44
16.8
14.33
12.07
10.08
8.37
6.94
5.69
4.53
3.44
2.39
1.47
0.75
0.34
0.28
0.54
0.97
1.26
1.32
1.13
0.99
1.22
2.27
4.44
7.88
12.44
17.66
23.24
28.96
34.9
41.34
47.96
54.14
58.95
61.15
59.55
53.69
44.1
32.29
20.39
10.5
4.07
1.53
2.23
4.78
7.96
10.95
13.57
16.08
18.68
21.45
24.43
27.67
30.33
30.77
26.02
12.84
-10.7
-43.6
-81.25
-116.61
-141.74
-152.34
-148.61
-134.64
-115.87
-96.73
-79.41
-64.29
-51.03
-39.72
-31.21
-26.13
-24.36
-24.7
-25.57
-25.55
-23.98
-21.07
-17.53
-14.13
-10.93
-7.52
-2.88
3.75
12.52
22.96
34.02
44.33
52.22
56.52
56.42
51.65
42.77
31.36
19.7
9.68
2.13
-3.89
-9.98
-16.94
-23.58
-27.14
-24.57
-14.7
0.7
17.68
31.66
39.67
41.09
37.37
30.42
21.76
11.96
0.96
-10.62
-21.33
-29.46
-33.64
-33.77
-31.81
-31.59
-36.79
-48.67
-64.83
-79.22
-85.12
-78.22
-59.14
-33.33
-8.45
10.12
22.0
31.72
45.03
65.22
90.76
115.86
133.67
139.34
131.59
112.16
84.0
49.36
10.11
-31.15
-70.22
-101.57
-119.4
-121.71
-110.35
-90.3
-67.32
-46.01
-29.0
-16.86
-8.93
-4.16
-1.42
0.6
2.86
6.06
10.31
15.4
21.0
27.11
34.04
42.03
51.16
60.8
69.5
75.29
76.33
71.46
60.66
45.0
26.06
5.71
-14.42
-33.32
-50.52
-65.81
-79.35
-91.58
-102.92
-113.37
-120.83
-122.23
-114.23
-95.12
-66.29
-32.53
-0.46
24.04
38.06
42.62
41.08
37.25
33.57
30.59
27.73
24.51
21.26
19.02
18.63
20.04
22.28
24.06
24.33
22.86
20.35
17.91
16.56
16.72
18.01
19.59
20.54
20.4
19.29
17.87
16.93
17.05
18.21
19.88
21.35
22.01
21.76
21.01
20.46
20.68
21.76
23.05
23.29
21.01
14.96
4.87
-8.2
-21.5
-31.31
-34.12
-29.03
-18.48
-8.0
-3.72
-9.04
-22.77
-39.6
-53.08
-58.79
-56.04
-46.76
-33.31
-16.95
1.46
19.5
32.41
34.77
23.98
2.54
-22.41
-42.87
-54.43
-58.23
-59.53
-63.2
-70.02
-76.18
-76.47
-68.07
-52.64
-35.38
-21.8
-15.47
-16.29
-20.84
-24.48
-22.84
-13.02
5.62
31.07
59.18
84.89
102.67
110.03
107.53
97.76
83.55
66.74
47.66
26.19
2.78
-20.95
-42.53
-59.92
-72.19
-79.73
-84.1
-86.91
-88.73
-88.96
-85.93
-77.69
-63.22
-42.94
-18.65
6.61
29.66
48.09
60.87
68.55
72.89
75.89
78.85
82.35
85.67
87.44
86.64
83.15
78.21
74.1
73.25
77.31
87.33
103.32
124.44
149.18
175.14
199.19
217.94
229.0
227.92
214.05
189.92
160.1
129.53
101.8
78.44
59.56
44.91
34.51
27.74
22.63
15.72
3.18
-17.86
-48.03
-84.62
-121.64
-150.76
-165.09
-161.03
-139.7
-106.49
-69.75
-38.54
-19.72
-16.14
-26.58
-49.6
-84.15
-130.17
-187.14
-253.09
-324.14
-394.87
-459.6
-499.21
-499.03
-454.48
-374.63
-277.01
-178.46
-89.04
-11.99
53.31
108.69
153.53
186.41
206.9
217.13
221.11
223.56
228.31
237.34
250.6
264.69
275.74
280.4
277.77
268.87
256.13
242.14
229.02
218.16
209.17
201.26
193.89
187.5
182.53
179.49
178.28
178.02
177.12
172.82
162.13
141.97
114.46
81.06
43.79
5.1
-32.42
-66.27
-94.46
-115.47
-128.36
-132.71
-129.29
-119.31
-104.29
-85.91
-65.88
-45.58
-25.87
-7.09
11.11
29.16
47.72
67.62
89.56
113.89
140.49
168.75
197.51
225.41
250.79
271.9
287.09
294.97
294.48
284.96
266.2
238.42
202.41
159.41
111.1
59.61
7.28
-43.5
-90.52
-131.98
-166.67
-193.88
-213.57
-226.26
-232.71
-233.79
-230.52
-223.58
-213.44
-200.35
-184.42
-166.15
-145.98
-124.05
-100.52
-75.91
-51.01
-26.83
-4.14
16.6
34.96
51.11
65.91
80.37
95.08
109.94
124.11
136.39
145.42
148.97
145.65
135.3
118.55
96.01
67.92
34.35
-4.21
-46.49
-93.48
-144.32
-195.92
-244.37
-287.23
-324.73
-359.23
-393.55
-429.6
-474.07
-529.29
-591.73
-654.23
-710.37
-757.28
-795.52
-827.55
-856.65
-896.06
-952.83
-1023.38
-1094.56
-1150.45
-1178.89
-1174.16
-1137.5
-1075.82
-1012.22
-963.04
-931.14
-907.33
-879.94
-842.34
-794.12
-739.12
-600.09
-352.92
-30.73
296.08
568.62
763.7
885.32
948.65
969.83
962.82
925.59
860.02
775.83
688.71
611.92
549.43
501.45
465.16
437.24
405.07
362.03
309.85
256.89
211.24
176.34
151.87
135.63
125.58
114.32
99.16
80.36
62.91
51.89
49.68
56.28
70.14
89.32
108.57
124.35
135.52
143.44
150.06
156.59
163.75
171.85
180.96
189.69
196.76
201.36
203.78
205.0
206.18
208.83
214.47
224.01
237.34
253.49
270.85
288.02
304.56
320.92
338.58
359.65
386.52
421.31
465.45
518.51
577.13
634.72
682.32
711.16
715.71
695.74
656.09
604.64
549.09
494.46
442.61
393.16
345.23
298.89
255.5
216.62
183.01
153.96
127.86
103.24
79.35
56.29
34.85
15.85
-0.5
-15.03
-29.43
-45.36
-63.45
-83.14
-103.16
-121.45
-135.85
-145.01
-148.75
-148.35
-145.9
-143.25
-141.59
-142.55
-146.25
-151.16
-155.28
-157.24
-156.96
-155.35
-153.85
-153.22
-156.6
-165.0
-176.78
-189.31
-201.61
-215.1
-232.71
-257.79
-291.66
-337.95
-395.76
-458.92
-518.82
-568.84
-606.43
-632.09
-648.41
-657.23
-666.06
-679.13
-694.83
-707.45
-710.2
-697.92
-667.62
-620.25
-517.89
-354.07
-156.8
28.36
168.12
254.91
291.65
296.14
280.73
255.43
222.06
184.04
154.8
146.78
168.03
225.69
313.44
411.4
497.19
549.98
563.74
548.74
523.33
504.37
500.1
511.63
529.15
544.5
550.01
542.82
524.48
497.41
462.4
417.96
361.13
288.23
202.93
111.53
22.35
-56.66
-120.56
-167.66
-198.89
-216.71
-226.83
-232.12
-233.67
-231.23
-224.88
-216.83
-210.44
-208.75
-213.61
-230.17
-259.66
-299.27
-343.36
-386.4
-425.04
-457.8
-483.62
-501.36
-516.88
-534.14
-553.83
-573.95
-592.62
-610.07
-628.57
-651.27
-638.84
-572.31
-457.29
-318.5
-179.59
-51.68
63.1
163.86
247.94
312.05
348.61
356.27
341.4
315.01
286.68
261.15
238.67
217.87
198.12
174.71
145.2
110.42
73.82
37.46
4.58
-21.99
-39.43
-44.92
-39.47
-24.44
-0.79
30.73
69.07
109.69
147.98
180.69
206.32
223.15
230.78
230.23
223.29
211.78
197.55
182.13
166.72
152.31
139.03
126.79
115.54
105.19
95.47
86.63
79.09
73.16
69.2
67.3
67.2
68.39
71.61
74.5
75.68
74.27
69.53
61.19
49.15
33.52
14.9
-6.05
-28.7
-51.82
-74.16
-94.72
-112.28
-126.16
-136.11
-142.21
-144.92
-145.1
-143.46
-140.83
-138.05
-135.13
-132.22
-129.45
-126.79
-124.23
-121.84
-119.61
-117.92
-117.25
-117.26
-118.03
-119.8
-122.58
-126.17
-129.92
-132.38
-131.51
-130.61
-129.7
-128.38
-126.15
-122.7
-118.01
-112.46
-106.58
-101.21
-97.35
-95.0
-94.24
-95.03
-97.08
-100.0
-103.31
-106.57
-109.49
-112.03
-113.58
-114.02
-113.39
-111.82
-109.4
-106.13
-102.02
-97.03
-91.19
-84.09
-75.72
-66.18
-55.7
-44.59
