-7.5
-8.49
-9.07
-9.16
-8.77
-7.98
-6.88
-5.55
-4.01
-2.31
-0.41
1.62
3.65
5.5
6.94
7.83
8.17
8.01
7.47
6.74
5.92
5.08
4.28
3.51
2.79
2.1
1.43
0.69
-0.1
-0.89
-1.63
-2.14
-2.41
-2.49
-2.55
-2.8
-3.5
-4.74
-6.51
-8.7
-11.01
-13.18
-15.01
-16.32
-17.07
-17.23
-16.82
-15.85
-14.34
-12.33
-9.92
-7.27
-4.54
-1.9
0.52
2.63
4.36
5.59
6.3
6.43
6.07
5.32
4.33
3.17
1.89
0.48
-1.01
-2.48
-3.74
-4.56
-4.87
-4.7
-4.22
-3.64
-3.11
-2.61
-1.99
-1.06
0.31
2.08
4.07
6.02
7.68
8.97
10.04
11.31
13.31
16.58
21.49
28.14
36.43
46.08
56.63
67.46
77.72
86.39
92.45
94.98
93.52
87.95
78.61
65.93
50.5
33.03
14.64
-3.46
-20.28
-35.39
-49.0
-61.69
-73.52
-83.34
-89.24
-89.21
-82.27
-69.24
-52.67
-35.81
-21.66
-12.36
-9.16
-13.11
-24.53
-42.18
-62.81
-81.58
-94.09
-98.11
-94.57
-86.56
-77.35
-68.41
-58.57
-45.43
-27.05
-3.96
21.17
44.61
63.31
75.76
82.2
83.92
82.28
78.88
75.1
72.22
71.66
74.91
83.47
98.47
120.31
147.77
178.44
208.92
235.75
256.59
270.43
277.88
280.25
278.89
274.14
265.67
252.59
233.95
209.53
179.63
145.13
106.56
64.21
18.05
-31.25
-81.5
-129.01
-169.17
-198.05
-213.47
-215.81
-207.58
-192.22
-173.3
-153.61
-135.45
-120.62
-110.57
-106.04
-106.84
-112.05
-120.03
-129.28
-138.76
-148.33
-157.96
-167.6
-176.7
-184.38
-189.84
-192.48
-191.89
-187.39
-178.33
-164.05
-144.43
-120.34
-93.44
-65.51
-37.88
-11.1
14.86
39.89
63.23
83.64
99.93
111.56
118.92
123.02
124.76
124.64
122.82
119.14
113.67
106.75
98.98
90.78
82.35
73.58
64.41
54.96
45.66
37.21
30.16
24.92
21.3
18.73
16.48
13.99
10.51
5.14
-3.12
-15.34
-32.37
-54.61
-81.75
-112.74
-145.88
-179.34
-211.79
-242.36
-270.67
-296.4
-319.24
-338.33
-351.84
-357.08
-351.09
-331.31
-296.33
-246.39
-183.71
-113.84
-43.87
19.79
73.14
114.66
144.5
163.7
173.89
176.97
172.18
158.73
138.15
115.13
95.39
83.11
80.18
86.94
102.85
122.45
139.63
151.27
158.87
165.78
173.71
181.69
186.93
185.59
167.25
121.14
41.5
-69.11
-202.44
-348.93
-499.73
-646.82
-745.66
-757.65
-674.39
-527.12
-361.12
-208.13
-80.83
20.07
98.67
159.88
201.83
221.54
219.7
203.55
183.21
166.54
157.28
155.98
161.47
167.09
166.06
155.43
137.9
119.3
104.38
95.35
92.47
95.19
99.55
101.87
101.02
99.25
100.52
107.63
121.23
140.09
162.46
183.76
199.44
206.44
203.96
192.87
174.54
150.38
121.09
89.78
58.22
27.85
0.14
-23.51
-41.99
-54.97
-62.9
-66.47
-66.66
-64.78
-61.82
-58.43
-55.01
-51.73
-48.68
-45.89
-43.13
-40.23
-37.36
-34.59
-31.95
-29.45
-27.1
-24.88
-22.84
-20.94
-19.08
-17.41
-15.9
-14.53
-13.25
-12.03
-10.85
-9.78
-9.15
-8.72
-8.52
-8.58
-8.95
-9.79
-11.36
-14.03
-18.19
-24.13
-31.85
-41.09
-51.14
-60.92
-69.72
-76.14
-79.41
-79.13
-75.25
-68.11
-58.07
-45.67
-31.4
-15.9
-0.09
14.78
27.44
36.95
43.09
46.51
48.63
51.27
55.76
62.62
70.75
78.26
82.87
82.95
78.07
69.09
57.77
45.62
34.12
22.76
10.52
-3.5
-19.39
-36.38
-53.3
-68.67
-80.9
-87.65
-86.29
-74.66
-52.67
-23.4
7.24
32.22
46.28
47.69
39.05
25.33
11.15
-1.73
-15.57
-33.19
-56.27
-82.84
-107.33
-122.61
-123.19
-107.76
-79.56
-45.18
-11.07
18.36
41.68
59.5
72.71
81.12
83.51
79.01
67.96
52.84
37.34
25.14
18.77
18.59
23.06
29.49
35.64
40.26
43.47
46.18
49.17
52.63
55.19
54.9
49.92
39.49
24.35
6.35
-12.05
-28.93
-43.3
-56.24
-69.39
-84.2
-101.1
-119.32
-137.37
-153.56
-166.87
-177.27
-186.75
-197.74
-212.83
-234.32
-263.71
-300.87
-343.41
-386.98
-420.7
-436.04
-427.92
-396.59
-347.8
-290.52
-233.64
-183.22
-141.44
-107.39
-79.84
-57.81
-40.93
-28.89
-20.51
-13.7
-6.14
3.6
15.63
28.21
38.96
46.08
49.01
48.87
47.74
47.92
50.98
57.31
65.94
75.44
84.76
93.56
102.45
112.42
124.28
138.11
153.19
168.17
181.91
194.13
205.19
215.95
227.09
238.76
250.9
263.63
277.72
294.11
312.88
331.63
345.71
349.6
339.14
313.37
274.63
227.42
176.05
123.26
70.4
19.23
-26.66
-61.72
-80.66
-81.93
-69.59
-52.32
-39.48
-36.58
-42.92
-53.33
-62.38
-68.55
-75.48
-88.86
-111.76
-141.35
-169.14
-184.99
-182.71
-162.87
-131.38
-95.82
-61.19
-28.51
3.63
35.94
65.8
87.53
94.81
84.34
58.49
25.51
-3.45
-18.07
-12.83
11.46
49.23
93.19
137.58
178.64
213.41
237.43
244.34
228.29
188.02
130.29
69.29
21.08
-4.02
-5.6
7.56
23.71
35.52
43.29
52.76
68.69
89.11
103.9
99.72
67.28
6.92
-70.68
-148.69
-210.78
-246.62
-253.29
-234.1
-195.29
-144.26
-88.4
-34.96
8.99
37.08
45.25
33.29
5.48
-30.16
-63.9
-87.08
-94.65
-86.63
-67.78
-45.39
-26.01
-12.21
-1.93
9.36
24.7
42.85
58.35
65.05
61.28
51.74
45.67
51.34
70.79
98.39
124.13
138.89
138.84
125.39
103.14
76.93
51.24
30.29
18.32
17.9
27.21
39.43
45.16
36.81
12.37
-23.71
-63.41
-98.84
-124.94
-139.48
-141.44
-130.28
-107.29
-76.72
-45.96
-23.06
-12.54
-12.95
-17.07
-15.7
-3.04
19.84
45.27
62.75
64.56
49.74
24.49
-1.59
-20.66
-30.87
-36.14
-42.13
-51.27
-59.77
-59.1
-42.39
-9.88
29.58
63.07
81.13
83.26
77.63
75.57
84.54
103.58
125.48
142.38
151.43
156.55
165.51
184.85
216.17
255.23
294.02
323.92
337.88
331.78
304.87
260.38
205.35
148.85
98.89
59.53
29.73
4.62
-20.75
-47.93
-74.54
-95.95
-108.76
-113.58
-114.64
-117.29
-125.0
-137.01
-148.76
-154.51
-150.3
-136.37
-116.84
-97.64
-83.49
-76.18
-74.23
-75.19
-77.82
-83.27
-94.08
-110.95
-130.36
-145.41
-149.44
-140.09
-121.42
-101.12
-85.61
-75.78
-66.7
-51.52
-26.56
6.03
39.86
68.73
90.56
108.12
125.69
144.93
161.92
168.22
155.12
118.63
62.55
-1.79
-58.55
-93.27
-98.05
-74.89
-34.7
6.55
34.46
42.0
31.55
12.1
-6.87
-20.44
-30.44
-42.55
-62.23
-90.19
-121.29
-147.2
-160.31
-157.27
-139.63
-112.37
-81.49
-52.48
-29.78
-16.14
-12.25
-15.54
-20.2
-19.22
-8.26
10.93
30.46
40.03
33.08
11.43
-14.05
-29.33
-25.08
-2.37
27.65
50.38
56.47
47.44
34.46
31.72
47.24
77.45
108.65
124.83
116.88
87.51
50.07
21.23
12.42
24.48
48.73
73.23
90.07
99.29
107.29
120.92
141.06
160.62
168.25
155.67
123.54
82.78
50.4
41.76
64.41
115.65
184.59
257.4
322.14
371.02
400.18
408.41
396.45
367.45
327.16
283.39
243.97
214.02
194.14
181.07
169.79
155.83
137.34
115.05
91.34
68.62
48.41
31.18
17.37
7.62
2.59
2.59
6.85
13.67
21.18
27.83
32.98
37.07
40.86
44.91
49.09
52.51
53.73
51.55
45.58
36.41
25.44
14.27
3.85
-5.74
-15.33
-26.23
-39.28
-54.3
-69.95
-84.44
-95.95
-103.8
-108.64
-112.26
-116.82
-124.03
-134.63
-148.01
-162.38
-175.4
-184.8
-189.02
-187.17
-179.04
-165.42
-148.66
-132.13
-118.54
-108.38
-99.05
-86.3
-66.64
-40.03
-10.91
12.98
24.06
18.85
-0.7
-28.29
-57.39
-83.13
-103.7
-119.28
-131.08
-140.44
-148.39
-156.09
-164.97
-179.21
-201.39
-231.06
-264.67
-297.5
-326.05
-349.29
-369.11
-389.11
-417.92
-459.98
-511.9
-562.43
-597.34
-605.55
-583.71
-537.76
-480.83
-437.58
-427.31
-456.67
-518.39
-597.92
-680.85
-756.29
-816.85
-856.69
-882.43
-899.58
-909.61
-910.14
-898.71
-875.2
-840.29
-794.41
-672.03
-448.53
-148.5
165.08
432.09
624.88
746.59
814.4
845.16
851.36
829.62
778.25
703.09
617.21
534.45
463.25
406.02
357.48
316.52
275.43
231.28
188.48
156.84
145.74
159.19
198.23
253.22
313.67
365.29
398.92
412.6
410.56
399.28
383.77
366.53
347.68
328.12
305.94
280.24
252.06
224.01
198.79
177.65
160.36
145.28
131.96
119.08
105.83
92.36
79.43
67.88
58.15
50.26
43.57
38.72
36.15
36.14
38.99
44.51
52.08
60.56
70.15
77.87
82.3
82.2
76.86
66.3
51.06
32.21
11.14
-10.6
-31.99
-51.37
-67.72
-80.6
-90.0
-96.18
-99.83
-101.86
-103.56
-106.61
-111.14
-117.04
-123.85
-130.87
-137.32
-142.38
-145.32
-145.84
-144.44
-140.07
-131.77
-120.02
-104.49
-84.92
-61.88
-37.03
-10.58
13.03
31.26
42.13
44.25
37.32
23.6
6.03
-13.25
-33.02
-52.97
-70.05
-81.26
-84.31
-77.96
-58.7
-24.99
20.82
73.85
118.17
144.59
147.68
125.48
79.48
20.32
-40.42
-94.77
-139.3
-172.27
-188.92
-184.32
-155.12
-100.25
-13.37
107.34
255.28
416.46
575.34
721.44
848.45
953.22
984.34
913.75
753.75
550.01
348.15
172.74
30.03
-83.55
-174.3
-248.44
-303.32
-337.29
-353.78
-361.36
-368.78
-380.26
-396.72
-415.71
-433.71
-441.37
-432.14
-405.58
-367.43
-325.4
-284.72
-248.2
-216.87
-190.85
-165.81
-138.02
-106.43
-72.45
-42.04
-17.43
1.95
18.33
34.55
54.9
81.49
113.04
145.01
171.61
188.3
192.36
182.77
160.76
130.38
96.47
63.7
35.47
13.56
-1.78
-11.9
-19.37
-26.77
-35.3
-44.76
-53.06
-56.94
-53.29
-40.02
-17.15
12.75
45.17
75.03
97.86
111.15
114.56
109.36
98.14
84.14
70.34
59.52
54.06
55.17
63.07
76.4
92.19
107.27
119.04
126.02
127.99
125.76
120.19
111.94
101.3
88.1
72.8
56.52
40.72
27.05
16.81
10.24
6.57
4.32
1.96
-1.39
-5.77
-10.8
-15.68
-19.7
-22.79
-25.03
-26.64
-27.87
-28.84
-29.66
-30.55
-31.57
-32.65
-33.74
-34.28
-33.52
-30.67
-25.22
-17.09
-6.91
4.32
15.52
25.77
34.58
41.86
47.85
52.58
56.02
57.75
57.36
54.6
49.74
43.56
37.14
31.72
28.14
26.69
27.21
29.37
32.93
37.9
44.48
52.81
62.77
73.85
85.25
95.79
104.01
108.16
106.14
96.11
76.66
47.26
8.22
-39.33
-93.86
-153.76
-217.25
-282.55
-347.35
-408.76
-463.18
-506.61
-534.93
-544.57
-533.39
-501.45
-451.54
-388.93
-320.35
-252.56
-191.0
-139.17
-99.01
-71.31
-56.13
-52.48
-57.57
-66.88
-74.66
-75.5
-65.96
-45.27
-14.61
24.56
71.83
128.32
195.32
272.75
357.21
441.3
514.42
564.9
583.05
563.95
509.24
426.92
329.51
230.65
141.95
70.72
19.62
-12.53
-29.01
-33.85
-31.14
-24.65
-17.51
-11.84
-8.42
-6.94
-6.48
-6.05
-4.8
-2.17
2.1
7.98
14.78
21.53
27.22
31.33
34.21
36.97
40.99
46.91
54.48
62.67
70.21
76.17
80.3
82.9
84.55
85.65
85.96
84.91
81.82
76.34
68.65
59.4
49.71
40.88
34.11
29.28
25.87
23.15
20.7
18.7
18.0
20.23
27.19
40.34
58.1
77.86
97.11
114.48
129.34
140.56
146.37
144.63
133.8
110.52
74.91
31.71
-11.41
-48.02
-76.55
-99.51
-120.82
-142.84
-171.57
-210.49
-259.18
-312.95
-364.97
-409.16
-440.96
-458.52
-463.64
-469.4
-489.24
-529.66
-587.39
-653.58
-720.67
-785.74
-850.08
-866.49
-803.34
-659.56
-467.81
-269.58
-92.48
52.7
165.58
250.77
314.76
356.49
374.7
372.09
356.31
336.32
318.23
304.93
297.08
294.43
290.8
280.38
261.75
238.38
215.14
195.72
181.49
172.44
168.15
164.67
158.54
149.35
140.01
134.22
134.72
142.32
156.24
174.74
194.38
210.61
220.43
222.64
217.19
204.42
184.8
159.22
128.21
94.33
59.46
25.69
-4.8
-30.23
-49.62
-62.92
-70.76
-73.95
-73.6
-71.18
-67.73
-64.0
-60.38
-57.0
-53.9
-50.99
-47.99
-44.8
-41.69
-38.86
-36.42
-34.4
-32.7
-31.16
-29.54
-27.64
-25.53
-23.55
-22.06
-21.29
-21.27
-21.67
-22.11
-22.35
-21.99
-21.24
-20.84
-21.63
-24.47
-29.65
-36.79
-45.06
-53.43
-61.18
-68.13
-74.59
-81.37
-88.3
-94.66
-99.13
-100.08
-96.29
-87.45
-74.44
-59.05
-43.27
-28.78
-16.91
-8.63
-4.18
-2.46
-0.74
4.79
17.88
40.12
69.44
100.16
124.29
135.71
132.23
115.6
89.98
59.67
27.59
-4.97
-37.25
-67.73
-94.02
-112.76
-121.98
-121.44
-112.88
-98.69
-81.26
-61.8
-40.41
-16.44
10.5
39.35
68.21
93.63
113.4
126.32
132.99
135.66
137.27
140.45
146.02
153.17
158.79
159.1
150.39
130.39
99.74
62.09
23.63
-9.27
-31.21
-40.58
-39.21
-31.15
-20.96
-11.2
-2.14
7.19
16.69
24.75
27.67
21.51
4.91
-20.42
-49.42
-76.75
-98.22
-112.12
-118.6
-118.05
-110.25
-94.88
-74.23
-53.24
-38.72
-35.53
-42.86
-53.63
-57.92
-49.58
-29.86
-8.65
2.03
-4.45
-24.31
-44.77
-51.73
-38.09
-8.31
25.26
49.59
58.53
55.11
48.45
47.6
55.4
68.03
78.06
79.61
72.3
60.38
49.88
45.28
47.63
54.27
60.83
63.79
59.68
50.34
38.72
27.78
18.28
9.36
-1.14
-15.46
-34.54
-57.43
-81.15
-102.6
-118.74
-128.13
-131.3
-129.54
-124.62
-118.29
-111.79
-105.48
-99.7
-94.78
-91.17
-89.22
-89.24
-91.36
-95.42
-100.9
-107.01
-113.24
-119.48
-125.69
-131.8
-137.64
-143.22
-148.46
-153.06
-156.67
-158.71
-158.49
-157.0
-154.58
-151.15
-146.62
-140.98
-134.32
-126.79
-118.6
-110.14
-101.91
-94.31
-87.65
-82.21
-78.15
-75.52
-74.12
-73.43
-72.84
-71.82
-69.7
-66.14
-61.0
-54.5
-46.88
-38.58
-29.93
-20.92
-11.62
-1.8
8.58
19.51
30.7
41.99
53.17
64.21
75.3
86.86
99.26
112.71
127.17
142.47
158.33
174.56
191.25
208.68
227.63
248.82
272.91
299.9
329.06
358.47
385.49
407.16
420.77
424.62
418.3
403.19
381.68
356.88
331.32
306.61
283.13
260.15
236.7
212.08
186.31
159.86
133.56
108.16
84.35
62.64
43.41
26.96
13.1
1.27
-9.58
-20.44
-31.92
-44.03
-56.23
-67.5
-76.75
-83.25
-86.71
-87.5
-86.45
-84.38
-82.19
-80.26
-78.63
-77.01
-74.92
-71.93
-67.87
-63.05
-58.04
-53.54
-49.55
-45.62
-40.94
-34.86
-27.41
-19.62
-13.06
-8.97
-7.52
-7.65
-7.88
-7.09
-5.02
-2.06
1.17
4.24
6.93
9.07
9.98
8.79
4.84
-1.31
-8.06
-13.23
-15.03
-13.15
-8.72
-3.86
-0.31
1.24
1.56
1.74
2.56
4.16
5.74
6.57
6.47
6.15
6.99
9.91
14.81
20.26
24.53
25.78
23.22
16.85
7.77
-2.32
-11.9
-19.52
-24.49
-26.5
-26.06
-23.99
-21.26
-18.56
-16.09
-14.02
-12.25
-10.89
-10.15
-10.29
-11.26
-12.7
-14.31
-16.02
-18.19
-21.1
-24.84
-29.18
-33.7
-37.98
-41.89
-45.8
-50.4
-56.23
-63.21
-70.86
-78.01
-83.49
-86.35
-86.2
-83.25
-78.29
-72.18
-65.75
-59.75
-54.5
-49.97
-45.64
-40.94
-35.3
-28.71
-21.9
-16.17
-12.89
-12.67
-15.19
-19.15
-22.91
-25.0
-24.69
-22.12
-17.98
-13.17
-7.92
-2.13
4.64
12.56
21.1
29.2
35.59
39.71
41.84
43.04
44.23
45.68
46.79
46.83
45.82
44.6
44.57
46.8
51.12
56.39
61.08
64.05
65.37
65.86
66.33
66.64
65.99
63.22
57.75
50.06
41.64
34.45
29.96
28.54
29.36
30.93
31.89
31.58
29.98
27.45
24.33
20.55
15.86
10.09
3.57
-3.02
-8.78
-13.17
-16.28
-18.89
-22.11
-26.59
-32.32
-38.66
-44.61
-49.69
-53.98
-57.98
-62.36
-67.43
-72.71
-77.49
-81.2
-83.46
-84.41
-84.2
-82.76
-80.15
-76.78
-73.34
-71.15
-71.45
-74.87
-81.27
-89.77
-99.02
-107.58
-113.9
-116.1
-112.79
-103.11
-87.21
-66.59
-43.53
-20.46
0.8
19.56
36.49
52.23
67.25
81.47
94.22
104.78
112.91
118.61
122.04
123.64
123.28
121.01
117.27
112.93
109.47
108.19
109.49
112.59
116.31
119.4
121.36
122.68
123.95
126.01
129.05
132.56
135.5
137.13
136.98
135.17
132.3
128.68
124.72
120.34
115.34
109.33
102.41
94.75
86.79
79.18
71.92
64.78
57.22
48.79
39.25
28.87
18.33
8.61
0.64
-5.23
-9.73
-14.65
-22.31
-34.77
-53.28
-77.96
-107.83
-141.31
-177.14
-214.8
-254.74
-297.64
-343.42
-390.53
-435.81
-474.93
-502.7
-513.86
-504.35
-472.04
-416.96
-340.82
-246.92
-139.55
-23.88
94.49
209.81
314.78
401.53
463.69
498.85
509.58
502.11
483.14
457.13
424.89
382.49
323.5
242.99
140.44
20.07
-111.2
-246.21
-378.87
-494.21
-572.98
-599.79
-572.17
-502.21
-409.14
-310.44
-217.3
-135.45
-66.38
-10.55
31.17
58.81
74.55
82.64
87.86
94.67
105.52
121.07
139.54
156.55
167.94
171.9
170.11
164.34
156.86
149.81
143.88
137.96
127.99
110.4
83.95
49.89
11.16
-27.93
-62.48
-89.07
-106.82
-119.5
-131.3
-145.34
-163.52
-186.64
-213.45
-241.68
-270.12
-285.15
-280.19
-252.2
-202.59
-136.57
-60.96
19.41
100.42
184.35
270.15
351.69
422.79
479.58
521.43
540.54
523.3
467.08
380.56
279.47
178.78
89.4
16.45
-39.56
-80.14
-106.09
-117.52
-115.43
-103.3
-86.77
-70.54
-58.55
-53.15
-54.99
-62.44
-72.36
-81.85
-89.54
-99.17
-109.04
-117.28
-121.46
-118.99
-107.21
-83.76
-47.96
-1.62
51.46
107.15
160.64
208.02
246.51
274.23
290.89
296.98
293.09
280.05
259.26
231.17
195.58
156.63
117.08
79.29
45.02
15.24
-9.76
-29.61
-44.66
-55.06
-61.01
-63.31
-62.73
-60.05
-55.79
-50.5
-44.39
-37.97
-31.38
-24.78
-18.54
-12.75
-7.4
-2.12
3.41
9.46
15.9
22.39
28.35
32.86
35.29
35.31
33.11
28.89
22.76
14.4
3.31
-11.12
-29.39
-51.13
-75.45
-100.62
-125.05
-147.83
-169.05
-189.84
-211.89
-236.87
-265.27
-296.63
-329.5
-362.17
-393.44
-423.03
-451.56
-480.12
-510.23
-543.31
-580.56
-621.87
-664.71
-703.55
-730.4
-737.29
-718.86
-675.05
-611.0
-535.39
-457.12
-382.64
-314.98
-254.41
-200.58
-153.2
-112.46
-77.89
-47.81
-19.34
10.51
43.11
77.81
111.78
141.65
165.02
181.89
194.62
207.07
222.93
243.96
269.57
296.8
322.04
342.39
357.02
367.52
377.44
391.03
411.55
439.71
471.81
500.27
514.98
506.95
471.91
412.14
336.53
257.16
185.77
129.96
92.2
70.52
60.39
56.89
55.57
53.5
49.05
42.45
35.12
29.15
25.74
24.19
22.55
18.42
11.2
2.55
-4.21
-6.95
-6.02
-4.82
-7.92
-17.48
-32.13
-46.7
-55.47
-54.96
-46.13
-33.62
-23.5
-20.6
-26.43
-39.18
-54.13
-65.24
-66.19
-52.49
-23.22
17.75
61.74
98.58
120.48
125.85
119.3
108.69
100.42
95.53
89.8
77.0
54.22
23.89
-6.58
-29.02
-39.01
-37.36
-29.1
-19.37
-10.69
-1.63
10.75
28.22
49.85
72.46
92.89
109.69
124.01
138.02
153.93
171.88
189.64
203.27
208.12
200.89
181.03
152.16
121.09
95.75
82.14
81.96
92.44
107.83
123.07
135.71
146.6
158.26
172.3
188.13
202.78
212.87
215.53
209.95
197.04
178.57
156.27
130.86
101.98
68.25
29.02
-14.7
-58.85
-97.43
-124.52
-136.9
-135.8
-126.34
-115.74
-110.26
-113.31
-124.47
-140.39
-156.15
-166.83
-169.4
-163.3
-151.29
-138.55
-131.07
-133.48
-146.95
-168.43
-191.18
-207.47
-210.92
-199.41
-175.58
-145.99
-118.74
-100.53
-94.7
-100.26
-113.57
-129.78
-145.47
-159.4
-172.59
-187.19
-204.75
-225.07
-245.48
-262.24
-271.51
-271.45
-262.78
-247.95
-229.2
-206.42
-177.08
-138.02
-89.13
-35.36
14.04
49.44
66.17
67.3
62.88
64.71
80.64
111.25
150.87
191.23
225.27
249.19
261.76
263.43
255.06
238.64
217.09
193.92
171.91
151.78
132.98
115.21
100.85
94.92
102.66
125.74
159.89
195.89
222.6
231.72
220.65
192.51
153.26
108.84
63.42
19.32
-21.17
-54.64
-76.35
-81.68
-68.67
-40.28
-4.74
26.52
42.32
35.86
6.41
-40.5
-96.49
-153.81
-207.3
-254.27
-292.21
-317.47
-325.81
-314.86
-286.71
-248.65
-210.67
-180.8
-162.06
-152.34
-147.36
-143.45
-139.36
-134.98
-129.1
-118.38
-98.5
-67.38
-27.48
14.35
50.0
73.79
84.6
85.36
80.33
72.77
63.46
51.62
36.17
17.27
-3.44
-22.94
-36.96
-41.15
-31.95
-8.75
25.11
62.98
97.52
123.92
142.2
157.13
174.44
197.32
223.67
247.25
261.7
264.5
257.03
243.05
225.87
206.2
182.88
154.92
122.81
90.45
63.54
44.9
33.65
26.55
20.22
14.02
9.82
8.18
9.51
13.39
16.02
13.11
2.4
-15.09
-34.41
-49.65
-60.76
-70.63
-83.98
-109.5
-155.15
-225.08
-317.47
-422.78
-527.49
-623.37
-705.05
-746.36
-724.86
-634.99
-496.86
-342.81
-205.6
-77.32
54.03
196.57
353.83
515.84
667.79
795.27
867.73
866.1
793.13
669.12
524.32
384.25
259.93
152.41
58.81
-22.05
-85.87
-127.14
-147.74
-154.97
-158.71
-169.82
-195.05
-235.26
-288.12
-342.71
-386.13
-410.8
-414.46
-398.79
-368.14
-326.81
-277.77
-218.34
-151.44
-80.53
-10.63
52.74
104.65
141.72
162.88
169.54
164.93
153.24
139.24
126.13
115.18
106.29
98.73
91.75
85.23
79.57
75.14
72.97
73.76
77.59
83.62
92.86
102.22
109.56
113.25
111.79
104.61
91.75
74.07
52.63
28.74
3.35
-22.18
-46.71
-69.71
-90.72
-109.72
-126.47
-141.03
-153.56
-164.7
-174.6
-183.37
-191.17
-198.06
-204.24
-209.31
-213.09
-215.51
-216.96
-217.57
-217.48
-216.54
-213.97
-213.09
-214.67
-218.95
-225.05
-231.82
-237.32
-239.35
-235.96
-225.39
-206.8
-179.64
-144.94
-104.64
-61.97
-20.48
16.27
44.95
63.18
69.94
65.76
52.39
32.5
9.59
-12.93
-31.7
-44.12
-48.99
-46.0
-35.78
-19.92
-0.72
19.52
38.06
53.04
62.84
66.49
63.67
54.75
40.67
22.47
1.45
-21.09
-43.53
-64.61
-82.98
-97.64
-108.05
-113.93
-115.39
-112.97
-106.81
-96.92
-82.99
-64.81
-42.02
-14.98
15.38
48.1
81.77
115.53
148.89
181.84
214.26
246.14
276.81
305.12
329.99
350.5
366.68
379.3
389.68
399.57
410.81
425.25
444.24
468.2
495.12
520.93
540.2
547.36
539.53
517.06
484.05
446.03
408.62
374.64
344.94
318.72
294.49
271.75
249.71
227.77
204.51
178.55
148.61
114.98
79.32
44.06
12.24
-14.3
-34.99
-50.52
-62.48
-72.59
-82.19
-91.71
-101.39
-110.67
-119.26
-127.2
-134.36
-140.92
-146.61
-151.16
-153.81
-154.3
-151.84
-146.47
-138.58
-128.7
-118.14
-107.92
-99.29
-93.07
-90.06
-90.03
-92.62
-96.79
-101.09
-104.55
-106.52
-107.14
-107.22
-107.9
-110.02
-114.04
-119.84
-126.64
-133.34
-138.59
-141.22
-140.15
-134.79
-124.77
-110.07
-90.7
-66.97
-39.85
-10.97
17.23
42.1
61.25
73.31
78.19
77.25
72.47
65.81
58.85
52.51
47.37
43.76
41.88
41.61
42.9
45.3
48.18
50.88
52.93
54.01
53.92
52.47
49.47
45.72
42.32
40.82
43.22
51.79
68.13
92.1
121.55
152.86
183.61
211.77
235.82
255.06
269.57
279.57
284.85
284.84
279.55
271.89
263.99
255.96
246.22
233.17
216.27
195.9
173.06
148.76
126.17
105.93
85.82
62.37
33.11
-3.04
-46.75
-98.7
-174.4
-272.02
-373.41
-454.6
-501.18
-512.69
-497.53
-466.65
-429.37
-391.61
-353.56
-315.15
-278.16
-245.74
-220.19
-201.84
-189.36
-180.55
-172.9
-162.6
-148.12
-130.91
-114.18
-100.47
-90.64
-84.15
-79.79
-76.07
-70.68
-62.72
-53.13
-43.93
-36.67
-31.83
-29.08
-27.63
-26.62
-24.79
-21.65
-17.65
-13.79
-10.94
-9.35
-8.77
-8.8
-8.83
-8.07
-5.92
-2.02
3.76
11.49
21.3
33.09
46.5
60.69
74.6
86.86
96.52
102.18
103.14
99.06
90.19
77.31
61.55
44.33
27.06
11.05
-2.78
-13.86
-21.99
-27.42
-30.49
-31.66
-31.3
-29.84
-27.53
-24.56
-21.09
-17.15
-13.1
-9.16
-5.35
-1.76
1.54
4.48
7.06
9.2
11.04
12.14
12.48
12.23
11.81
11.72
12.4
14.23
17.27
21.62
26.37
31.02
35.37
39.35
43.14
46.82
50.48
53.95
57.14
58.98
59.01
57.24
53.95
49.35
43.26
34.64
21.03
6.22
-9.5
-26.23
-44.4
-64.54
-86.73
-110.12
-132.62
-151.1
-162.32
-165.46
-161.29
-152.43
-142.09
-132.72
-125.0
-118.01
-110.03
-99.57
-86.8
-72.28
-56.51
-39.43
-20.61
0.12
22.11
43.62
62.62
76.91
85.62
89.12
88.59
85.2
79.56
71.69
61.43
49.05
35.29
21.6
9.54
0.38
-5.24
-7.33
-6.35
-3.12
1.48
6.49
11.34
15.76
19.72
23.31
26.46
28.81
29.95
29.67
28.08
25.53
22.37
18.65
14.23
8.99
3.18
-2.62
-7.55
-10.84
-12.15
-11.56
-9.59
-6.88
-4.19
-2.14
-1.26
-1.69
-3.2
-5.22
-7.02
-7.98
-7.79
-6.51
-4.39
-1.83
0.72
2.8
3.86
3.43
1.16
-2.93
-8.46
-14.83
-21.32
-27.44
-32.83
-37.25
-40.4
-42.03
-41.93
-40.11
-36.75
-32.24
-27.05
-21.66
-16.47
-11.82
-7.97
-5.06
-3.12
-1.91
-1.05
-0.06
1.43
3.69
6.76
10.62
15.11
19.88
24.28
27.4
28.38
26.66
22.27
15.98
9.01
2.64
-2.08
-4.56
-4.67
-2.61
1.11
5.63
9.79
12.4
12.55
9.89
4.87
-1.62
-8.52
-15.01
-20.7
-25.5
-29.47
-32.6
-34.83
-36.04
-36.38
-36.16
-35.88
-35.93
-36.41
-36.99
-37.04
-35.91
-33.19
-28.9
-23.39
-17.25
-10.95
-4.66
1.62
8.06
14.57
20.87
26.52
31.13
34.52
36.82
38.39
39.53
40.45
41.03
41.09
40.54
39.56
38.61
38.1
38.26
38.81
39.15
38.6
36.98
34.62
32.22
30.4
29.21
28.11
26.09
22.25
15.93
7.03
-4.12
-16.84
-30.26
-43.2
-54.28
-62.2
-66.12
-65.93
-62.28
-56.2
-48.7
-40.47
-31.99
-23.68
-16.14
-9.86
-5.05
-1.59
1.02
3.16
4.88
5.85
5.77
4.54
2.51
0.27
-1.74
-3.4
-4.84
-6.27
-7.83
-9.52
-11.28
-13.12
-15.04
-16.97
-18.76
-20.13
-20.79
-20.5
-19.13
-16.56
-12.84
-8.22
-3.19
1.56
5.32
7.62
8.36
7.77
6.46
5.11
4.47
5.07
7.15
10.53
14.75
19.29
23.79
28.12
32.38
36.62
40.68
44.28
47.12
49.07
50.29
51.15
51.95
53.05
54.67
56.95
