128.15
146.27
165.66
179.64
181.68
168.19
140.03
102.13
61.24
23.6
-7.05
-29.62
-44.86
-54.48
-60.26
-63.97
-66.83
-68.92
-69.01
-65.22
-56.57
-44.17
-31.64
-23.75
-24.08
-32.82
-45.89
-56.2
-55.93
-39.54
-5.53
42.82
98.82
153.7
198.48
225.81
231.95
218.58
193.19
167.43
152.77
156.14
176.45
204.9
229.08
238.14
227.42
198.95
159.44
116.03
73.91
35.39
1.18
-27.71
-50.01
-65.09
-74.82
-83.49
-96.09
-115.34
-138.75
-158.15
-161.42
-138.0
-83.48
-3.29
88.07
171.26
228.85
251.18
238.31
198.66
143.9
85.11
30.09
-16.37
-50.91
-70.94
-74.61
-62.88
-40.25
-14.83
4.2
9.57
-1.7
-27.52
-62.74
-100.81
-136.88
-168.44
-195.01
-216.66
-232.9
-242.5
-244.18
-238.16
-226.29
-212.02
-198.94
-189.73
-185.6
-186.2
-190.81
-198.56
-208.7
-219.51
-228.16
-230.61
-222.59
-201.75
-168.53
-127.0
-83.39
-44.46
-15.07
3.04
11.47
14.65
17.52
24.1
35.37
49.67
63.58
74.0
79.5
80.49
78.2
73.14
65.22
54.46
42.67
33.5
30.82
36.22
47.19
57.63
60.18
50.15
27.46
-3.65
-37.03
-67.28
-91.07
-107.81
-118.68
-126.39
-134.24
-145.32
-161.25
-181.06
-201.72
-219.09
-230.59
-235.9
-237.04
-237.18
-239.07
-244.61
-254.53
-269.1
-287.57
-308.16
-327.31
-339.92
-340.65
-325.73
-295.4
-254.1
-210.08
-171.96
-145.45
-130.66
-122.28
-112.11
-92.06
-58.01
-10.42
46.48
107.54
168.71
228.17
285.41
339.36
387.73
426.19
450.17
456.0
442.41
410.81
364.63
308.84
249.26
192.58
145.31
112.71
96.81
95.14
101.07
105.64
101.39
85.08
58.99
29.08
2.02
-17.83
-29.85
-36.37
-41.52
-49.55
-64.6
-89.94
-127.25
-175.28
-229.01
-280.51
-321.13
-344.92
-350.16
-340.02
-320.25
-296.82
-273.72
-252.31
-232.12
-211.2
-187.42
-158.59
-123.37
-81.31
-33.35
18.56
72.11
125.36
177.49
228.27
277.62
324.45
366.87
402.26
428.28
443.7
448.64
444.94
435.87
426.03
420.15
421.67
430.89
444.01
453.73
451.62
431.86
393.84
342.5
286.41
234.02
190.36
155.75
127.07
100.06
72.34
44.31
18.89
0.21
-7.86
-2.57
16.85
48.6
87.25
124.52
150.47
156.34
137.34
94.28
33.34
-36.55
-106.15
-169.1
-222.66
-267.21
-304.89
-337.89
-368.64
-399.53
-432.05
-465.46
-495.96
-517.0
-521.19
-503.61
-463.18
-403.86
-333.01
-258.82
-187.25
-121.79
-64.04
-14.71
25.28
56.79
82.37
105.57
129.97
158.83
191.73
223.73
246.69
250.45
229.36
182.67
114.94
35.6
-39.99
-97.22
-126.69
-126.93
-107.29
-77.86
-49.54
-32.02
-30.15
-37.87
-44.6
-40.14
-19.19
12.65
51.82
94.75
138.81
185.3
244.75
326.7
433.45
556.76
675.39
776.36
853.81
907.25
896.7
797.74
611.58
368.56
146.75
-40.56
-196.78
-326.69
-440.56
-538.42
-612.78
-658.22
-675.46
-671.72
-662.9
-654.82
-647.67
-639.73
-627.9
-605.96
-570.06
-520.92
-463.85
-410.65
-365.36
-327.7
-295.98
-267.48
-237.65
-203.54
-165.08
-125.15
-90.69
-63.95
-44.62
-31.35
-22.18
-14.27
-5.63
4.4
14.88
23.01
28.04
30.53
31.51
32.14
33.69
36.82
41.4
46.5
50.57
53.04
54.17
54.76
55.73
57.71
60.87
64.75
68.59
71.8
74.22
76.5
79.88
85.64
94.63
106.99
121.78
137.83
154.07
170.02
185.92
202.54
220.57
240.61
263.07
287.98
314.6
340.76
362.48
374.68
373.03
355.76
325.14
286.9
248.16
214.7
189.2
170.81
156.76
144.23
131.57
118.92
107.12
96.88
88.13
80.32
72.83
65.52
58.78
53.27
49.51
47.14
44.77
40.27
31.53
17.65
-0.36
-19.7
-36.93
-49.44
-56.8
-60.85
-64.5
-70.05
-77.74
-85.69
-90.74
-90.35
-83.3
-70.09
-52.03
-30.66
-7.53
15.57
36.24
51.87
60.23
60.27
52.39
38.13
19.54
-1.22
-22.08
-41.08
-56.47
-67.1
-72.69
-73.68
-70.75
-64.21
-54.13
-40.81
-25.51
-10.59
0.93
6.55
5.42
-1.24
-10.34
-18.32
-22.15
-20.49
-13.71
-3.56
7.65
17.75
25.22
29.4
30.07
27.37
21.67
13.56
3.86
-6.61
-17.46
-28.84
-41.11
-54.35
-67.96
-80.5
-90.31
-96.0
-96.87
-92.79
-83.94
-70.64
-53.39
-33.43
-12.64
6.38
21.27
30.27
32.82
29.57
21.89
11.63
0.66
-9.27
-16.94
-21.51
-22.75
-21.0
-17.04
-11.97
-6.97
-2.84
0.1
2.1
3.83
6.11
9.18
12.41
14.46
13.88
10.02
3.51
-4.13
-11.18
-16.39
-19.52
-20.88
-21.03
-20.51
-19.92
-20.14
-22.31
-27.25
-34.92
-44.25
-53.45
-60.99
-66.36
-69.91
-72.05
-72.44
-69.45
-61.36
-47.56
-29.46
-10.25
6.34
17.85
24.13
27.12
29.95
35.12
43.57
54.59
66.52
77.63
87.03
94.51
100.02
103.41
104.25
102.34
98.17
92.77
87.37
82.52
77.59
70.79
60.22
44.71
24.74
2.4
-19.43
-37.64
-49.73
-54.18
-50.81
-40.83
-26.95
-12.94
-2.79
0.22
-5.24
-18.3
-36.07
-54.71
-70.34
-79.87
-81.52
-74.74
-60.23
-39.59
-15.31
9.69
32.25
49.55
59.87
62.73
59.34
52.08
43.67
36.11
30.22
25.69
21.71
17.94
14.67
12.72
12.65
14.16
16.21
17.57
17.61
16.64
15.66
15.6
16.85
19.06
21.33
22.88
23.35
22.84
21.66
20.08
18.04
15.4
11.94
7.49
2.3
-3.18
-8.24
-12.35
-15.37
-17.68
-19.69
-21.51
-22.83
-22.92
-21.16
-17.41
-12.29
-6.83
-1.98
1.85
4.74
6.84
8.16
8.3
6.92
4.0
0.11
-3.71
-6.36
-7.01
-5.45
-1.85
3.15
8.77
14.15
18.51
21.31
22.28
21.59
19.65
16.89
13.3
8.2
0.05
-13.12
-33.11
-61.0
-96.31
-137.33
-181.53
-226.51
-270.38
-312.04
-350.75
-385.52
-415.07
-437.67
-451.42
-454.26
-444.04
-418.56
-376.16
-316.73
-242.44
-158.07
-70.24
13.93
88.46
149.61
195.96
227.91
246.81
254.3
252.28
243.31
230.09
214.95
198.59
179.54
155.07
123.19
85.13
46.51
16.85
6.45
22.79
67.86
137.61
223.68
315.65
403.35
477.64
531.02
558.11
556.56
527.87
477.43
413.36
344.14
276.67
214.89
159.97
111.4
68.31
30.49
-1.58
-26.83
-44.37
-53.89
-56.26
-53.91
-50.56
-50.52
-57.2
-72.01
-93.32
-116.73
-136.26
-146.38
-144.1
-129.78
-107.07
-81.25
-57.43
-39.3
-28.98
-27.47
-34.78
-49.85
-70.09
-92.14
-113.02
-131.37
-147.91
-164.19
-180.66
-195.28
-203.99
-202.68
-189.92
-168.07
-142.08
-117.19
-96.34
-79.68
-65.61
-52.71
-40.9
-31.07
-24.04
-19.49
-16.11
-12.28
-7.27
-1.71
2.52
3.33
-0.49
-8.59
-19.13
-29.64
-37.76
-42.05
-41.9
-37.14
-27.9
-14.37
2.71
21.9
40.99
57.65
69.94
76.83
78.51
76.01
70.91
64.57
57.87
50.84
42.92
33.49
22.28
9.98
-2.02
-12.05
-18.95
-22.62
-23.88
-23.94
-23.68
-23.6
-23.89
-25.08
-27.97
-33.4
-41.75
-52.23
-63.05
-71.8
-76.45
-75.98
-70.87
-62.55
-52.95
-43.87
-36.5
-31.43
-28.69
-28.11
-29.32
-32.11
-36.22
-41.39
-47.29
-53.34
-58.62
-61.99
-62.38
-59.17
-52.51
-43.35
-32.99
-22.68
-13.08
-4.23
4.24
12.82
21.71
30.69
39.17
46.39
51.53
54.08
53.98
51.64
47.97
43.93
40.15
36.79
33.85
31.37
29.97
30.56
33.87
39.95
47.99
56.61
64.52
71.0
75.97
79.61
81.96
82.45
80.22
74.48
64.91
51.84
35.98
18.25
-0.46
-19.07
-36.39
-50.98
-61.63
-67.71
-69.61
-68.76
-67.09
-66.5
-67.78
-70.7
-73.82
-75.39
-74.06
-69.42
-62.01
-52.88
-43.29
-34.19
-26.23
-19.6
-14.25
-10.1
-6.91
-4.43
-2.38
-0.61
0.76
1.54
1.39
0.17
-2.09
-4.98
-7.9
-10.01
-10.57
-8.69
-3.79
4.21
14.76
26.64
38.45
48.87
57.28
63.8
69.25
74.49
80.1
86.37
93.3
100.92
109.04
117.06
123.83
127.66
126.75
120.04
107.82
91.86
74.81
59.41
47.59
40.06
36.44
35.74
36.89
39.2
42.37
46.28
50.59
54.47
56.54
55.23
49.33
38.59
23.78
6.49
-11.38
-28.2
-42.91
-54.96
-64.14
-70.4
-73.65
-74.07
-72.2
-69.1
-66.19
-65.04
-66.81
-72.13
-80.77
-91.73
-103.54
-114.65
-123.74
-130.03
-133.21
-133.36
-130.63
-125.21
-117.2
-106.84
-94.5
-80.68
-65.86
-50.5
-34.93
-19.52
-4.85
8.49
19.91
29.09
36.08
41.2
44.82
47.33
48.82
49.17
48.27
46.08
43.01
39.99
38.39
39.66
45.09
54.98
68.37
83.13
96.43
105.71
109.38
107.27
100.47
91.18
81.44
72.57
65.14
59.31
55.39
54.02
56.06
61.97
72.23
85.94
101.16
115.69
128.04
138.3
148.02
159.73
175.93
199.11
229.61
265.58
303.67
340.18
372.22
397.69
415.05
422.79
420.47
406.56
378.42
332.76
266.81
179.43
71.92
-51.58
-190.38
-332.51
-458.9
-550.36
-596.3
-598.61
-568.18
-518.51
-460.68
-401.81
-344.78
-291.9
-246.08
-209.99
-184.74
-168.95
-159.46
-152.32
-144.46
-133.34
-118.9
-103.25
-89.2
-78.84
-72.44
-68.79
-65.95
-62.27
-56.39
-48.33
-39.4
-31.34
-25.54
-22.26
-20.95
-20.3
-19.25
-16.88
-12.73
-6.97
0.12
8.38
18.08
29.55
43.19
58.8
75.49
92.1
106.84
118.49
125.41
126.6
121.87
111.73
97.16
79.34
59.92
40.48
22.37
6.59
-6.09
-15.34
-21.29
-24.18
-24.68
-23.14
-20.17
-16.28
-11.89
-7.22
-2.37
2.68
7.94
13.4
19.31
25.79
32.67
39.9
47.2
54.34
61.35
67.9
74.02
79.88
85.82
91.72
97.64
103.51
109.0
114.43
119.6
124.62
129.72
135.07
139.9
143.08
142.88
136.71
127.25
115.67
103.43
91.87
82.07
73.93
66.61
58.69
48.81
36.63
22.43
7.9
-4.85
-13.96
-18.81
-19.98
-19.17
-18.84
-20.93
-26.93
-36.66
-47.59
-55.63
-55.77
-43.95
-18.87
16.79
56.59
91.27
112.11
113.92
96.59
64.72
25.79
-12.93
-47.0
-75.84
-102.47
-130.59
-162.86
-198.98
-236.59
-272.27
-302.96
-327.13
-344.57
-356.28
-363.16
-366.16
-366.02
-364.08
-361.82
-361.06
-363.11
-368.28
-375.96
-384.78
-393.55
-401.89
-410.69
-421.56
-435.82
-453.02
-469.78
-480.7
-479.92
-463.37
-430.03
-381.7
-322.42
-256.41
-187.58
-118.36
-50.75
13.51
72.68
125.47
172.07
213.97
254.25
295.45
339.37
385.43
431.21
472.97
506.7
529.43
539.96
538.96
528.06
509.56
485.68
458.38
428.7
395.59
355.81
304.21
235.98
148.93
46.16
-63.21
-166.59
-251.74
-312.02
-347.78
-365.11
-371.12
-370.12
-361.93
-343.5
-312.37
-268.6
-215.11
-155.07
-90.15
-20.09
55.56
135.02
212.9
282.0
336.35
373.64
395.68
406.11
406.87
396.64
371.44
327.18
262.66
181.44
91.02
1.24
-78.12
-139.83
-179.8
-197.3
-193.97
-173.46
-140.32
-99.22
-53.71
-4.9
48.32
107.56
172.0
236.43
291.02
323.7
323.76
285.83
211.7
110.3
-4.56
-117.93
-217.3
-295.13
-350.13
-385.95
-407.85
-419.3
-419.36
-402.71
-363.65
-300.81
-219.67
-131.59
-49.41
17.17
63.95
90.72
98.39
87.82
60.19
19.91
-24.05
-60.68
-81.96
-87.47
-85.08
-86.24
-99.29
-124.58
-154.47
-177.91
-186.46
-177.89
-155.51
-124.86
-90.56
-55.11
-19.95
12.72
39.11
55.66
60.78
55.97
45.14
32.89
22.67
15.87
12.05
9.78
7.23
3.46
-1.02
-4.51
-4.18
2.05
13.64
26.38
33.07
26.01
0.51
-42.28
-95.66
-149.19
-192.79
-219.89
-227.94
-218.02
-192.76
-155.57
-110.17
-61.11
-13.44
27.83
58.81
78.2
87.1
88.25
85.28
81.81
80.62
83.37
90.17
99.64
109.97
119.79
128.8
138.1
148.71
160.6
172.09
180.76
184.64
183.59
178.81
171.38
160.7
143.24
114.87
73.38
21.74
-31.93
-76.28
-101.48
-102.64
-80.99
-42.94
3.59
51.28
94.78
130.15
154.65
166.79
166.98
158.25
145.44
133.44
125.0
119.43
113.73
104.53
90.28
72.13
53.44
38.27
29.59
28.57
34.44
45.43
58.87
72.05
82.3
87.28
85.12
74.16
52.95
20.52
-22.35
-72.84
-125.38
-172.43
-206.06
-220.47
-214.01
-189.9
-155.75
-121.2
-95.34
-83.78
-86.96
-100.35
-116.19
-127.08
-129.28
-124.65
-119.75
-122.16
-136.0
-158.85
-181.93
-193.64
-184.54
-151.33
-97.8
-32.66
34.26
95.56
147.67
189.84
222.24
244.45
254.98
252.56
237.7
213.36
184.91
158.65
139.9
131.68
134.49
146.66
164.95
185.46
203.8
215.56
216.85
205.17
180.55
146.11
108.0
73.58
49.58
39.87
44.16
58.54
77.23
94.82
107.59
114.09
113.79
106.29
90.47
64.84
28.66
-16.59
-66.78
-115.93
-157.7
-187.17
-201.57
-200.58
-185.68
-159.4
-125.14
-86.76
-48.35
-13.85
13.6
32.49
42.88
46.26
44.9
40.66
34.46
26.56
16.87
5.56
-6.2
-16.42
-22.58
-22.42
-14.92
-0.75
18.53
41.28
66.46
93.65
122.0
149.35
172.22
186.8
190.93
185.47
174.15
162.03
153.0
147.98
145.26
142.26
137.09
129.82
121.62
113.41
104.89
94.68
80.94
62.83
41.52
19.9
1.95
-8.83
-10.46
-3.21
11.05
29.05
47.38
63.27
74.98
82.06
84.53
82.95
77.92
70.6
62.44
55.02
49.24
44.4
38.01
26.18
4.97
-28.21
-73.08
-126.9
-185.09
-243.06
-297.62
-347.4
-392.38
-432.89
-468.98
-500.12
-525.51
-543.84
-553.07
-550.31
-531.56
-493.1
-432.97
-352.71
-257.95
-157.0
-58.78
29.89
105.43
167.67
218.3
259.01
290.29
311.67
322.97
325.43
322.45
318.26
316.45
318.29
322.45
326.08
326.66
323.24
316.09
305.88
292.18
273.41
247.9
215.3
177.38
137.96
101.66
72.48
53.0
44.22
45.66
55.78
72.13
92.01
112.97
133.45
153.11
172.17
190.74
208.0
222.16
230.85
232.26
225.55
211.12
190.8
166.97
142.47
119.6
99.73
82.57
66.86
51.05
34.1
16.71
0.89
-10.97
-17.56
-19.47
-19.12
-19.54
-22.97
-30.22
-40.58
-52.71
-65.65
-79.67
-96.16
-116.35
-140.61
-167.9
-196.33
-223.58
-247.28
-264.69
-273.63
-273.18
-263.8
-247.81
-229.53
-214.88
-209.98
-219.1
-243.11
-280.19
-326.89
-378.75
-430.5
-476.28
-510.31
-527.74
-524.72
-499.1
-451.29
-383.87
-300.31
-203.49
-95.68
20.77
132.81
220.62
267.57
268.7
231.54
169.55
95.67
18.17
-59.77
-138.21
-216.69
-291.78
-360.29
-418.09
-461.93
-490.12
-502.52
-499.56
-481.34
-446.87
-394.42
-323.18
-234.45
-131.96
-20.68
91.17
195.05
284.66
357.17
412.93
453.95
482.12
498.01
500.74
489.11
463.08
424.95
378.94
330.57
285.24
246.81
217.32
197.05
185.0
179.16
176.41
172.4
162.76
144.79
118.51
87.05
55.2
27.19
5.3
-10.57
-21.39
-27.46
-27.39
-19.25
-2.13
22.27
49.75
75.25
94.92
107.85
116.11
123.97
135.81
154.57
180.2
209.38
236.01
252.52
252.38
232.14
192.95
140.27
81.98
25.89
-22.07
-58.47
-82.06
-92.75
-91.15
-79.14
-60.6
-42.01
-31.27
-35.27
-57.28
-95.13
-141.67
-187.13
-222.44
-242.58
-247.9
-243.18
-234.84
-228.05
-224.59
-222.62
-218.4
-208.84
-193.29
-174.16
-155.61
-141.35
-133.1
-129.74
-128.22
-125.56
-120.2
-112.37
-103.52
-95.18
-87.86
-81.33
-74.91
-68.13
-60.98
-53.43
-44.97
-34.3
-20.24
-2.29
18.48
39.42
57.13
68.67
72.6
69.44
61.32
50.83
40.42
31.69
25.58
22.52
22.98
27.34
35.65
47.02
59.5
70.59
78.09
81.11
80.22
76.97
72.67
67.81
61.74
53.52
42.87
30.71
18.86
9.44
3.54
0.93
0.42
-0.01
-2.0
-6.36
-12.73
-19.81
-25.71
-28.98
-28.99
-26.01
-21.33
-16.37
-12.0
-8.03
-3.23
4.26
16.3
33.97
57.3
84.82
113.97
141.78
165.6
183.81
195.83
201.97
202.76
198.74
190.17
177.69
162.24
144.93
127.13
109.6
93.1
78.29
66.1
57.64
54.08
56.02
63.04
74.44
88.99
105.75
123.95
143.14
163.15
183.95
205.62
227.84
250.27
271.7
290.13
302.68
305.95
296.72
272.49
232.42
177.36
111.0
38.89
-32.04
-94.95
-144.22
-176.14
-189.72
-186.29
-169.1
-142.2
-110.17
-77.34
-48.63
-28.39
-19.98
-25.63
-46.31
-81.4
-128.84
-185.37
-247.26
-312.4
-378.63
-443.62
-505.13
-561.25
-610.51
-651.68
-683.57
-705.66
-720.07
-728.17
-730.12
-725.35
-713.64
-695.97
-674.4
-651.07
-627.42
-605.39
-581.93
-549.6
-500.1
-428.64
-336.85
-232.14
-124.93
-5.41
122.66
247.78
355.77
436.8
488.17
512.58
515.75
504.46
485.37
460.9
433.48
405.1
377.29
350.26
323.08
294.85
265.22
234.63
201.86
167.11
131.78
98.53
69.87
47.55
32.48
24.96
24.59
28.88
35.73
43.62
52.09
61.1
70.82
81.41
93.02
105.7
118.65
131.46
144.65
156.98
168.43
179.5
191.23
205.0
221.8
241.39
261.68
279.18
289.46
288.8
275.41
250.26
216.87
180.19
145.05
114.59
90.11
71.32
57.4
47.45
40.66
36.22
33.32
30.89
27.64
22.17
13.04
-1.01
-21.15
-48.26
-82.05
-120.52
-159.6
-194.06
-218.63
-229.49
-225.26
-207.09
-178.37
-143.59
-107.39
-73.8
-45.89
-25.38
-12.53
-6.42
-5.07
-6.34
-8.34
-9.87
-10.41
-9.94
-8.62
-6.99
-5.65
-5.01
-5.29
-6.08
-6.79
-6.9
-6.49
-6.12
-6.82
-9.41
-13.85
-19.43
-24.77
-28.77
-30.87
-31.29
-30.69
-29.82
-29.43
-29.63
-30.15
-29.99
-28.15
-23.47
-14.92
-1.86
15.9
37.88
63.12
90.22
117.92
143.91
165.96
182.62
193.4
199.19
201.92
203.64
205.53
207.47
205.3
193.3
166.37
122.32
63.28
-4.71
-74.08
-138.27
-193.77
-243.38
-292.68
-347.0
-409.09
-478.4
-552.63
-629.68
-708.59
-770.43
-797.31
-775.16
-700.43
-582.53
-439.19
-289.11
-146.97
-21.71
82.95
164.26
221.81
256.9
272.74
274.24
267.17
256.65
246.63
239.57
234.32
228.79
220.88
209.54
195.36
180.16
165.92
154.32
146.23
140.42
135.2
128.99
120.99
111.54
101.87
93.31
87.34
85.15
86.5
90.65
96.86
104.53
113.24
122.78
132.48
141.87
151.03
158.63
163.38
164.7
162.32
156.47
147.68
136.41
123.39
109.04
93.38
76.61
59.07
41.25
23.86
7.92
-5.61
-15.51
-20.77
-21.3
-16.86
-7.73
5.26
21.34
39.94
60.23
81.59
103.5
124.51
143.89
160.87
174.77
185.27
192.76
197.56
200.42
202.19
202.38
200.76
196.72
189.72
179.11
164.18
143.5
114.59
81.69
45.37
5.71
-37.38
-83.23
-130.19
-175.46
-215.76
-247.73
-268.9
-279.58
-281.31
-276.74
-268.61
-259.26
-249.96
-241.5
-234.22
-228.63
-226.49
-229.09
-236.97
-249.55
-265.41
-282.53
-298.72
-310.98
-314.95
-305.81
-278.65
-230.76
-163.51
-82.59
3.67
87.26
163.36
230.95
290.74
342.54
383.11
406.81
408.43
386.56
345.06
292.16
237.5
188.44
148.49
116.88
90.38
65.44
39.76
12.85
-14.25
-39.54
-61.08
-77.32
-87.53
-91.78
-90.64
-84.8
-74.99
-62.17
-48.06
-35.49
-27.65
-27.25
-35.46
-51.44
-72.71
-96.55
-121.3
-146.83
-173.55
-200.35
-223.14
-235.01
-228.41
-198.41
-145.02
-73.37
8.02
89.75
163.24
221.18
257.26
266.83
248.34
205.1
145.7
82.21
26.58
-12.95
-33.65
-37.67
-29.71
-14.93
2.23
17.69
27.01
25.25
7.76
-28.37
-83.01
-152.6
-230.82
-310.06
-383.23
-445.07
-492.67
-525.51
-545.06
-554.45
-557.67
-558.39
-558.37
-556.51
-548.96
-530.95
-499.5
-455.35
-403.51
-351.3
-305.55
-270.09
-245.05
-227.99
-215.94
-206.85
-199.77
-194.19
-188.97
-182.09
-171.27
-155.07
-133.55
-108.33
-82.04
-57.18
-35.29
-16.78
-1.01
12.97
25.88
37.8
48.21
56.29
61.45
63.8
64.09
63.55
63.37
64.36
66.64
69.74
72.87
75.21
76.27
75.99
74.67
72.84
71.17
70.21
70.37
71.97
75.11
79.81
85.93
93.16
101.21
109.66
118.21
126.49
134.12
140.68
145.69
148.83
150.04
149.84
149.15
149.35
151.71
157.11
165.69
176.94
189.95
203.84
218.32
233.54
250.01
267.85
286.66
305.52
323.62
340.84
357.75
375.01
392.15
407.11
416.36
416.32
404.92
382.37
350.72
312.7
270.52
225.49
178.79
132.32
88.89
51.31
20.83
-4.0
-26.6
-50.18
-75.2
-97.98
-111.64
-108.97
-85.96
-44.27
8.62
61.64
103.76
127.41
130.21
114.67
86.31
51.35
14.87
-19.62
-49.95
-74.86
-93.51
-105.86
-112.97
-117.1
-120.89
-126.26
-132.93
-138.3
-138.09
-128.06
-105.53
-70.25
-24.58
27.65
82.08
135.2
184.91
230.98
274.39
316.05
355.31
388.61
409.81
412.0
390.3
344.22
278.86
204.21
132.73
76.45
44.29
40.48
64.3
110.72
171.75
237.75
298.76
345.72
371.54
372.25
347.86
302.51
243.56
179.95
119.69
67.99
26.37
-6.59
-33.82
-58.13
-81.36
-104.44
-127.7
-151.28
-175.28
-199.79
-224.74
-250.0
-275.68
-302.23
-330.12
-359.27
-388.51
-415.53
-437.17
-450.36
-452.73
-443.01
-421.03
-387.79
-345.6
-298.44
-251.22
-208.65
-173.33
-144.36
-117.45
-86.66
-47.08
3.25
62.69
126.95
190.69
248.51
295.51
327.64
342.08
338.0
317.12
283.89
244.4
204.94
170.26
142.65
121.86
105.8
91.86
78.04
63.62
49.12
35.51
23.22
11.48
-1.59
-18.02
-38.74
-63.07
-88.92
-113.93
-136.7
-157.27
-176.5
-194.91
-211.65
-224.41
-230.81
-230.19
-224.78
-218.93
-216.75
-219.11
-222.11
-218.08
-198.8
-159.23
-100.0
-27.35
48.93
118.58
173.37
208.54
223.24
220.07
203.93
180.44
154.24
127.9
101.68
74.64
46.32
17.95
-7.93
-28.74
-43.54
-53.77
-62.31
-71.89
-83.76
-97.47
-111.4
-123.67
-132.4
-135.74
-131.81
-119.19
-98.03
-70.84
-42.33
-17.98
-2.0
4.27
2.37
-4.93
-15.67
-30.01
-49.57
-75.19
-104.67
-131.83
-148.11
-145.63
-120.48
-74.05
-12.47
56.08
123.82
184.78
234.87
271.03
291.02
293.7
280.11
253.79
220.14
184.59
151.2
121.95
97.45
77.77
63.01
53.22
48.0
46.06
45.66
44.99
42.87
38.86
32.86
24.58
13.27
-1.93
-21.58
-45.32
-71.9
-99.2
-124.9
-146.8
-163.37
-173.93
-178.97
-180.51
-181.99
-187.38
-199.34
-217.25
-235.97
-247.1
-241.73
-214.05
-163.7
-95.66
-18.05
60.47
132.66
193.07
237.6
263.51
269.87
258.4
233.78
202.36
170.04
140.66
115.39
93.87
75.7
61.31
51.57
46.65
45.25
44.73
42.52
37.33
29.78
21.74
15.16
10.67
7.37
3.38
-3.15
-12.95
-25.41
-39.11
-52.45
-64.2
-73.86
-81.44
-87.67
-94.12
-103.02
-116.6
-135.5
-157.32
-176.19
-184.11
-173.27
-139.16
-82.62
-10.14
67.84
139.67
195.54
229.52
240.15
229.78
203.12
165.6
122.56
78.75
38.08
3.67
-22.27
-38.79
-46.3
-46.51
-42.16
-36.21
-31.3
-29.22
-30.45
-34.29
-39.22
-43.88
-47.94
-52.65
-60.03
-71.97
-88.86
-109.06
-129.82
-148.64
-164.66
-178.58
-191.95
-205.93
-220.87
-236.41
-251.74
-265.65
-275.92
-279.26
-271.5
-249.15
-210.93
-158.63
-96.5
-29.49
37.86
102.04
159.58
206.29
237.45
249.12
240.16
213.4
175.08
132.82
93.13
59.72
33.37
12.89
-3.56
-17.23
-28.51
-37.1
-42.44
-44.1
-42.0
-36.27
-27.32
-15.98
-3.35
8.84
18.47
23.46
22.32
14.6
0.98
-16.89
-36.95
-56.85
-74.69
-89.6
-101.97
-113.41
-125.64
-138.95
-151.06
-157.05
-150.98
-128.29
-88.05
-33.34
29.84
94.56
154.69
205.38
242.97
264.73
269.12
256.52
229.66
193.12
151.94
110.21
70.21
32.76
-1.7
-32.29
-57.5
-75.91
-87.49
-94.05
-98.86
-105.41
-115.73
-129.5
-144.54
-158.36
-169.62
-178.87
-188.08
-199.16
-212.69
-227.65
-242.27
-255.14
-266.0
-275.52
-284.88
-295.07
-306.37
-318.02
-327.98
-332.84
-328.52
-311.51
-280.45
-237.25
-186.91
-135.73
-88.88
-48.75
-14.64
15.78
44.86
73.54
101.55
128.38
154.4
180.39
206.57
231.54
252.15
265.04
268.84
265.5
259.66
256.6
259.26
266.82
275.3
279.82
277.01
266.35
249.5
228.54
204.63
177.67
147.47
114.95
82.68
54.07
31.93
17.13
8.03
1.22
-6.85
-17.66
-29.39
-37.28
-35.19
-18.04
16.01
64.6
121.67
178.89
227.86
262.26
278.97
278.42
263.65
238.99
208.78
176.67
145.38
116.75
92.0
71.79
56.07
44.03
34.45
26.16
18.54
11.63
5.83
1.34
-2.23
-5.83
-10.72
-17.85
-27.63
-39.87
-53.87
-68.53
-82.73
-95.52
-106.26
-115.03
-122.89
-131.98
-144.64
-162.15
-183.09
-202.79
-214.17
-209.98
-185.45
-140.13
-78.08
-6.53
65.96
131.27
182.69
215.64
228.16
221.09
198.06
164.75
127.44
91.44
60.03
34.46
14.7
0.38
-8.91
-13.52
-14.27
-12.6
-10.2
-8.56
-8.29
-9.33
-11.22
-13.87
-17.78
-24.01
-33.53
-46.59
-62.24
-78.53
-93.34
-105.03
-113.41
-119.83
-126.86
-137.24
-152.26
-170.59
-187.76
-197.16
-192.2
-168.78
-126.67
-69.44
-3.38
64.19
125.97
175.53
207.93
220.54
213.65
190.64
157.37
120.55
85.97
57.18
35.31
19.83
9.54
3.53
1.21
2.24
5.88
11.08
16.56
21.02
23.51
23.47
20.69
15.07
6.56
-4.83
-18.59
-33.46
-47.67
-59.33
-67.29
-71.83
-74.87
-79.56
-89.21
-105.57
-127.3
-149.51
-164.74
-165.25
-145.59
-104.74
-46.57
21.43
90.15
151.12
198.05
227.43
238.43
232.49
212.73
183.41
149.33
114.92
83.66
57.44
36.59
20.19
6.92
-4.24
-13.6
-20.72
-24.93
-26.01
-24.68
-22.56
-21.58
-23.26
-28.19
-35.83
-44.83
-53.71
-61.09
-66.09
-68.44
-68.6
-67.93
-68.74
-73.78
-85.2
-103.13
-124.58
-143.64
-152.89
-146.12
-121.06
-80.82
-33.29
11.53
44.85
62.05
63.61
54.03
39.31
24.53
12.51
3.97
-1.4
-3.92
-3.4
0.47
7.31
15.73
23.6
28.92
30.79
29.64
26.7
23.23
19.87
16.37
11.82
5.09
-4.81
-18.42
-35.34
-54.06
-72.12
-86.92
-96.67
-101.43
-103.64
-107.32
-116.43
-132.56
-153.26
-172.25
-181.26
-173.3
-145.1
-98.37
-38.78
26.03
88.72
143.46
186.3
215.04
228.96
229.02
217.75
198.97
176.87
154.93
135.17
117.98
102.77
88.61
74.89
61.53
48.82
37.16
26.67
17.2
8.25
-0.63
-9.83
-19.54
-29.87
-41.07
-53.4
-67.0
-81.38
-95.51
-107.88
-117.25
-123.3
-127.18
-131.38
-138.77
-151.14
-167.63
-184.18
-194.24
-191.01
-169.91
-130.25
-75.54
-12.04
52.95
112.61
161.57
196.12
214.53
217.14
206.7
187.68
165.46
144.55
127.36
114.16
