305.74
306.88
289.04
250.69
196.03
133.23
70.77
14.05
-36.02
-81.69
-125.53
-167.81
-205.67
-234.51
-250.43
-252.46
-243.0
-226.76
-208.76
-192.76
-180.5
-171.7
-164.84
-157.6
-147.56
-132.69
-111.84
-85.04
-53.58
-19.77
13.58
43.68
68.35
86.26
97.11
101.65
101.37
98.19
93.98
90.03
86.86
84.24
81.51
77.92
73.01
66.41
58.01
47.91
36.43
24.24
12.14
0.9
-9.08
-17.7
-25.28
-31.96
-37.45
-40.93
-41.17
-37.09
-28.32
-15.68
-1.12
12.55
22.31
25.64
21.3
9.74
-6.57
-23.67
-37.05
-43.01
-39.9
-28.66
-12.4
4.79
19.29
29.12
33.99
34.95
33.31
30.07
25.54
19.89
13.36
6.62
0.47
-4.45
-8.07
-10.89
-13.65
-16.89
-20.49
-23.74
-25.8
-26.04
-24.42
-21.49
-18.04
-14.85
-12.26
-10.24
-8.41
-6.28
-3.38
0.3
4.24
7.23
7.53
3.66
-5.02
-17.48
-31.01
-41.67
-45.47
-39.41
-22.59
3.4
34.82
66.8
94.56
114.59
125.35
127.33
122.45
113.18
101.59
89.06
76.39
64.14
53.05
43.92
37.38
33.34
31.12
29.46
27.2
23.72
19.02
13.76
8.73
4.23
-0.19
-5.73
-13.59
-24.4
-37.58
-51.52
-64.1
-73.68
-79.93
-83.84
-87.12
-91.44
-97.66
-105.57
-114.07
-121.16
-124.4
-121.06
-108.78
-86.2
-54.01
-15.31
24.97
61.08
88.3
104.1
108.75
104.73
95.58
84.55
73.89
64.67
57.2
51.41
47.29
44.69
43.22
42.14
40.45
37.44
33.07
28.03
23.62
20.92
20.13
20.25
19.38
15.57
7.78
-3.46
-16.29
-28.2
-37.07
-42.12
-43.97
-44.41
-45.45
-48.74
-54.97
-63.7
-73.39
-81.66
-85.71
-83.0
-72.15
-53.38
-28.82
-1.98
23.2
43.49
56.94
63.31
63.75
59.94
53.54
45.78
37.38
28.84
20.75
13.66
7.98
3.98
1.49
0.03
-1.04
-2.35
-4.19
-6.3
-8.0
-8.32
-6.27
-1.14
7.25
18.49
31.52
44.79
56.68
65.71
71.14
73.14
72.61
70.58
67.18
61.28
50.88
34.48
12.22
-13.34
-38.08
-57.95
-70.36
-74.85
-72.66
-65.59
-55.26
-43.04
-30.46
-19.56
-12.54
-10.86
-14.46
-21.65
-29.86
-36.79
-41.41
-44.06
-45.95
-48.36
-51.68
-55.31
-58.01
-58.6
-56.45
-52.01
-46.65
-42.37
-41.19
-44.51
-53.04
-66.81
-85.65
-109.1
-136.38
-165.93
-195.22
-221.31
-242.08
-257.17
-267.96
-276.56
-283.96
-288.86
-287.77
-276.49
-252.12
-214.39
-165.88
-110.87
-53.81
1.64
53.0
98.71
137.92
170.38
196.7
218.34
237.46
256.31
276.34
297.36
317.14
331.63
336.09
326.77
302.38
264.69
218.05
167.93
119.27
75.49
38.32
8.31
-14.41
-30.0
-38.97
-42.6
-42.96
-42.33
-42.37
-43.4
-44.07
-41.82
-34.1
-19.36
2.04
28.08
55.51
81.08
102.25
117.96
128.62
135.63
140.67
145.01
148.92
151.72
152.03
148.31
139.52
125.55
107.24
86.17
63.97
41.87
20.52
0.1
-19.23
-37.2
-53.36
-67.27
-78.72
-87.8
-94.68
-99.22
-100.97
-99.31
-94.04
-85.86
-76.4
-67.81
-61.94
-59.71
-60.91
-64.66
-69.75
-75.17
-80.18
-84.07
-86.09
-85.49
-81.84
-75.19
-65.97
-54.55
-40.75
-24.03
-3.91
19.21
43.44
65.82
83.2
93.4
95.99
92.26
84.5
75.11
66.01
58.22
52.2
47.97
45.35
43.94
43.26
42.73
41.93
40.54
38.32
35.25
31.36
26.98
22.58
18.7
15.6
13.07
10.49
7.06
2.32
-3.69
-10.35
-16.71
-21.97
-25.8
-28.47
-30.67
-33.34
-37.25
-42.97
-50.54
-59.33
-68.0
-74.61
-77.0
-73.35
-62.9
-46.32
-25.88
-4.77
13.74
27.23
34.74
36.83
35.04
31.09
26.3
21.22
16.06
10.9
6.07
2.03
-0.76
-2.2
-2.67
-2.71
-2.91
-3.35
-3.73
-3.55
-2.51
-0.72
1.38
3.28
4.87
6.4
8.81
13.03
19.26
26.78
34.21
40.21
44.02
45.67
45.6
44.91
45.15
47.64
53.75
64.73
81.61
104.43
131.73
160.32
186.62
207.76
221.12
225.3
220.31
208.02
191.31
172.82
153.6
132.95
108.88
77.29
34.01
-23.59
-94.98
-176.71
-263.96
-352.24
-437.86
-507.83
-547.16
-545.7
-505.23
-438.13
-359.68
-281.16
-208.73
-144.75
-89.11
-42.21
-4.53
23.78
44.1
58.93
71.15
82.59
93.55
103.51
109.81
109.46
100.3
82.25
57.8
31.26
7.06
-10.66
-18.31
-14.84
-0.75
22.01
50.95
83.54
117.93
151.37
180.68
202.93
214.71
213.06
196.53
165.67
121.77
71.31
20.28
-26.53
-65.49
-95.46
-117.07
-131.9
-141.89
-148.6
-153.51
-158.04
-162.22
-164.01
-159.88
-145.93
-120.47
-85.67
-46.93
-11.59
13.95
27.08
29.27
24.2
15.66
5.28
-7.58
-24.25
-45.46
-70.6
-97.55
-123.74
-147.94
-168.24
-183.27
-191.76
-191.99
-182.31
-161.74
-130.55
-89.96
-44.55
1.09
42.54
76.55
101.57
117.74
126.38
129.44
128.58
125.0
119.74
113.24
105.83
97.89
90.35
83.43
77.38
72.24
67.57
63.28
59.12
55.01
50.82
46.73
42.89
39.47
36.75
34.62
33.56
34.27
37.78
44.94
56.5
72.76
93.13
116.75
140.82
162.66
179.64
189.59
190.73
182.03
163.01
132.32
92.2
44.36
-8.5
-62.76
-114.19
-158.72
-193.42
-216.45
-227.54
-227.46
-218.43
-202.46
-181.02
-155.21
-126.14
-94.97
-64.2
-35.79
-10.47
11.5
30.06
44.63
53.11
53.16
43.98
27.81
10.22
-1.36
-1.98
9.3
29.51
53.29
76.57
98.32
120.0
142.92
166.1
185.11
193.37
187.75
168.6
140.23
109.04
80.54
57.09
38.45
22.35
6.72
-9.07
-24.39
-38.36
-51.18
-65.03
-84.02
-111.25
-147.45
-188.8
-227.58
-254.9
-263.9
-252.48
-222.3
-181.54
-137.65
-95.85
-58.02
-24.13
5.95
31.46
50.51
61.64
64.02
58.78
48.01
34.44
20.21
6.61
-5.75
-16.8
-26.18
-33.44
-37.51
-37.57
-33.3
-25.38
-15.37
-5.14
3.45
9.39
12.32
12.98
12.28
11.24
10.46
10.05
9.84
9.58
9.54
10.42
13.59
20.32
31.69
47.94
68.27
90.83
113.22
132.89
147.49
155.5
156.18
149.5
135.71
115.3
88.92
57.28
22.73
-12.23
-44.75
-72.15
-92.66
-105.8
-112.52
-114.54
-114.19
-113.09
-112.65
-113.84
-116.86
-120.64
-122.51
-118.7
-105.59
-81.95
-50.08
-15.69
14.42
35.09
44.72
45.44
41.34
36.22
31.97
28.54
25.06
21.16
17.48
15.25
15.19
17.03
19.5
21.15
20.84
18.53
15.13
11.94
10.15
10.15
11.51
13.23
14.18
13.71
11.87
9.35
7.05
5.75
5.63
6.35
7.24
7.62
7.19
6.1
4.88
4.11
4.13
4.86
5.89
6.67
6.8
6.29
5.54
5.22
5.81
7.46
9.74
11.9
13.13
13.01
11.83
10.53
10.27
11.85
15.3
19.63
23.25
24.68
23.36
20.05
16.7
15.64
18.32
24.5
32.13
38.14
39.88
36.3
28.43
18.8
9.98
3.08
-2.49
-8.72
-17.41
-29.35
-44.28
-61.87
-81.66
-102.93
-123.81
-140.47
-147.81
-141.33
-119.73
-86.17
-47.44
-11.06
18.24
40.24
58.45
76.66
95.12
109.11
110.75
93.55
57.28
9.98
-34.36
-61.71
-64.88
-47.09
-20.33
0.57
5.47
-7.07
-30.23
-53.89
-70.21
-77.19
-78.27
-78.8
-82.36
-88.63
-93.84
-92.87
-81.98
-60.22
-29.65
5.31
39.5
68.3
89.25
102.51
110.41
115.64
119.62
121.43
118.34
107.95
90.16
68.09
46.88
31.28
23.17
20.86
20.36
17.81
11.4
1.4
-11.03
-26.14
-45.92
-73.89
-113.0
-163.07
-219.48
-274.27
-319.24
-349.11
-362.79
-362.29
-349.98
-326.47
-290.38
-240.38
-177.81
-108.05
-39.24
20.84
67.84
102.19
127.84
149.36
169.08
186.0
196.88
198.46
189.45
171.59
149.34
128.18
112.47
103.88
100.92
100.04
97.6
91.49
82.03
71.46
62.65
57.7
57.25
60.4
65.28
69.9
72.86
73.73
72.86
70.89
68.23
65.03
61.28
57.36
54.43
54.2
58.21
66.79
78.44
89.93
97.46
98.01
90.5
76.11
57.61
38.21
20.43
5.62
-5.87
-14.13
-19.2
-21.11
-20.09
-16.83
-12.38
-7.85
-3.98
-1.07
0.99
2.46
3.45
3.82
3.06
0.45
-4.45
-11.61
-20.46
-30.1
-39.74
-49.07
-58.15
-67.17
-75.84
-83.18
-87.67
-88.02
-83.94
-76.36
-67.11
-58.03
-50.28
-44.06
-38.92
-34.22
-29.53
-24.63
-19.39
-13.75
-7.75
-1.6
4.25
9.31
13.18
15.75
17.16
17.64
17.34
16.33
14.64
12.41
9.95
7.63
5.72
4.25
2.94
1.36
-0.75
-3.34
-6.05
-8.38
-9.99
-10.75
-10.73
-10.05
-8.7
-6.52
-3.27
1.14
6.48
12.2
17.62
22.06
25.17
26.91
27.5
27.24
26.38
25.06
23.37
21.43
19.43
17.54
15.96
14.77
13.92
13.27
12.7
12.07
11.33
10.45
9.42
8.23
6.89
5.44
3.95
2.49
1.04
-0.46
-2.16
-4.21
-6.64
-9.3
-11.78
-13.55
-14.1
-13.16
-10.68
-6.89
-2.18
3.02
8.28
13.14
17.13
19.93
21.31
21.34
20.34
18.65
16.71
14.74
12.84
11.03
9.42
8.12
7.31
7.03
7.1
7.26
7.19
6.7
5.77
4.52
3.09
1.56
-0.06
-1.79
-3.6
-5.43
-7.21
-8.84
-10.38
-11.91
-13.54
-15.21
-16.7
-17.6
-17.52
-16.16
-13.38
-9.38
-4.55
0.46
5.1
8.87
11.5
12.96
13.42
13.18
12.5
11.58
10.53
9.35
8.08
6.76
5.51
4.45
3.71
3.33
3.23
3.3
3.32
3.11
2.53
1.52
0.12
-1.59
-3.5
-5.48
-7.34
-8.97
-10.27
-11.28
-12.11
-12.86
-13.48
-13.75
-13.27
-11.65
-8.71
-4.58
0.25
5.18
9.58
13.05
15.44
16.76
17.09
16.51
15.13
13.08
10.62
8.06
5.71
3.77
2.33
1.33
0.69
0.4
0.46
0.86
1.52
2.19
2.57
2.32
1.33
-0.41
-2.64
-5.08
-7.53
-9.9
-12.22
-14.47
-16.61
-18.44
-19.78
-20.46
-20.35
-19.42
-17.63
-15.0
-11.57
-7.5
-3.09
1.2
4.92
7.71
9.41
10.02
9.7
8.65
7.09
5.25
3.37
1.69
0.47
-0.21
-0.36
-0.11
0.4
1.1
2.0
3.09
4.32
5.54
6.48
6.92
6.7
5.88
4.58
3.01
1.31
-0.42
-2.11
-3.74
-5.18
-6.41
-7.39
-8.15
-8.58
-8.48
-7.59
-5.67
-2.69
1.19
5.55
9.92
13.88
17.25
19.96
22.04
23.56
24.54
25.04
25.1
24.85
24.38
23.88
23.49
23.36
23.59
24.26
25.36
26.85
28.65
30.62
32.59
34.44
36.07
37.48
38.71
39.81
40.86
41.82
42.49
42.43
40.94
37.18
30.42
20.29
7.02
-8.48
-24.8
-40.41
-53.97
-64.67
-72.24
-76.75
-78.37
-77.23
-73.42
-67.19
-59.08
-49.83
-40.32
-31.14
-22.45
-14.01
-5.46
3.38
12.29
20.85
28.71
35.84
42.69
49.99
58.41
68.17
79.03
90.36
101.46
112.0
122.2
132.96
145.59
161.23
180.27
201.76
223.37
241.52
252.12
251.28
235.98
204.69
157.87
98.18
30.42
-39.14
-103.9
-158.36
-199.2
-225.67
-239.05
-241.68
-236.05
-224.35
-208.42
-189.91
-170.2
-150.41
-131.06
-111.87
-91.9
-70.22
-46.51
-21.62
2.49
23.32
38.68
47.52
50.26
48.48
44.26
39.67
36.35
35.3
36.76
40.28
44.89
49.7
54.32
59.07
64.45
70.35
75.59
78.44
77.9
74.76
71.65
71.51
75.73
83.07
90.18
93.59
91.84
85.95
78.4
71.21
64.65
57.36
47.6
34.43
18.28
0.66
-16.61
-31.91
-44.08
-52.6
-57.73
-60.51
-62.6
-65.56
-70.24
-76.44
-83.29
-89.94
-96.17
-102.51
-109.69
-118.02
-127.12
-136.04
-143.81
-149.71
-153.27
-154.15
-151.98
-146.51
-137.83
-126.56
-113.75
-100.66
-88.45
-77.96
-69.7
-63.76
-59.93
-57.83
-56.96
-56.85
-57.21
-57.8
-58.28
-58.21
-56.94
-53.7
-47.79
-38.7
-26.21
-10.77
6.49
23.85
39.22
50.86
57.79
59.98
58.16
53.23
45.73
35.6
22.55
6.36
-12.5
-32.76
-52.49
-69.41
-81.4
-86.94
-85.57
-77.99
-66.01
-51.86
-37.74
-25.29
-15.38
-8.31
-4.09
-2.67
-3.96
-7.88
-14.02
-21.82
-30.52
-39.11
-46.51
-51.68
-53.89
-53.09
-50.03
-46.02
-42.18
-38.97
-35.8
-31.53
-25.29
-17.2
-8.45
-0.68
5.08
9.06
12.55
17.08
23.33
30.83
38.33
44.73
49.88
54.65
60.46
68.45
78.97
91.58
105.49
119.97
134.5
148.45
160.79
169.84
173.61
170.46
159.82
142.76
121.82
100.25
80.76
64.61
51.15
38.32
23.76
6.04
-14.61
-36.44
-56.97
-74.1
-86.72
-94.9
-99.34
-100.9
-100.16
-97.5
-93.39
-88.57
-83.91
-80.22
-77.68
-75.78
-73.54
-70.02
-64.63
-57.49
-49.17
-40.29
-31.47
-23.06
-15.27
-8.26
-2.27
2.49
5.82
7.68
8.2
7.7
6.63
5.58
5.03
5.29
6.4
8.18
10.29
12.38
14.06
14.98
14.83
13.4
10.78
7.39
3.89
0.91
-1.16
-2.39
-3.08
-3.59
-4.16
-4.7
-5.07
-5.08
-4.71
-3.96
-2.86
-1.39
0.47
2.61
4.82
6.81
8.43
9.68
10.8
11.97
13.33
14.86
16.41
17.91
19.35
20.87
22.62
24.74
27.2
29.88
32.62
35.14
37.13
38.24
38.25
37.0
34.54
31.04
26.62
21.37
15.28
8.3
0.53
-7.77
-16.18
-24.25
-31.56
-37.94
-43.23
-47.43
-50.42
-52.0
-51.93
-49.96
-45.94
-39.84
-31.89
-22.41
-12.0
-1.33
8.81
17.62
24.44
28.88
30.9
30.79
29.21
26.9
24.55
22.68
21.47
20.78
20.27
19.47
18.03
15.91
13.41
11.03
9.37
8.71
9.01
9.89
10.8
11.34
11.38
11.13
10.9
10.95
11.25
11.47
11.13
9.92
7.84
5.37
3.13
1.78
1.67
2.67
4.3
5.95
7.15
7.67
7.52
6.7
5.19
2.9
-0.2
-3.91
-7.77
-11.25
-14.02
-15.99
-17.41
-18.61
-19.8
-21.01
-22.06
-22.7
-22.76
-22.31
-21.52
-20.71
-20.04
-19.61
-19.39
-19.22
-19.0
-18.69
-18.31
-17.8
-17.09
-16.04
-14.56
-12.79
-10.95
-9.3
-7.85
-6.36
-4.31
-1.31
2.79
7.86
13.48
19.16
24.42
28.86
32.21
34.26
34.84
33.95
31.77
28.64
24.99
21.2
17.59
14.35
11.55
9.14
7.13
5.72
5.2
6.06
8.55
12.55
17.47
22.37
26.33
28.88
30.08
30.41
30.57
31.11
32.34
34.52
37.83
42.31
47.66
53.2
58.01
61.38
63.28
64.25
65.11
66.31
67.55
67.73
65.58
60.18
51.4
39.93
26.94
13.69
1.15
-9.97
-19.29
-26.61
-31.94
-35.45
-37.49
-38.56
-39.16
-39.72
-40.54
-41.74
-43.2
-44.76
-46.18
-47.28
-48.08
-48.74
-49.48
-50.54
-51.89
-53.14
-53.58
-52.37
-48.87
-43.11
-35.75
-28.0
-21.16
-16.17
-13.31
-12.22
-12.17
-12.3
-11.99
-10.78
-8.37
-4.53
0.84
7.56
15.08
22.5
28.78
33.07
35.04
34.93
33.36
31.11
28.69
26.22
23.6
20.64
17.27
13.73
10.36
7.5
5.39
3.99
2.98
1.91
0.34
-2.13
-5.58
-9.95
-15.0
-20.43
-26.0
-31.43
-36.45
-40.68
-43.71
-45.12
-44.66
-42.21
-37.81
-31.58
-23.72
-14.65
-5.05
4.07
11.58
16.39
17.78
15.58
10.13
2.28
-6.86
-16.06
-24.16
-30.33
-34.11
-35.49
-34.76
-32.4
-28.86
-24.53
-19.74
-14.79
-9.97
-5.42
-1.02
3.6
8.78
14.57
20.5
25.58
28.74
29.29
27.23
23.19
18.11
12.85
7.89
3.44
-0.38
-3.28
-4.83
-4.64
-2.59
1.09
5.92
11.31
16.7
21.67
26.08
29.96
33.52
36.99
40.43
43.68
46.33
47.83
47.67
45.69
41.99
37.03
31.5
26.08
21.23
17.22
13.99
11.31
8.91
6.56
4.2
1.94
-0.22
-2.41
-4.77
-7.51
-10.56
-13.67
-16.53
-18.95
-20.93
-22.82
-24.94
-27.43
-30.15
-32.63
-34.25
-34.49
-32.97
-29.56
-24.48
-18.06
-10.83
-3.47
3.44
9.42
14.15
17.54
19.7
20.75
20.87
20.2
18.78
16.79
14.44
12.03
9.91
8.34
7.33
6.76
6.3
5.6
4.55
3.19
1.76
0.53
-0.38
-1.0
-1.48
-1.93
-2.39
-2.77
-2.99
-3.13
-3.33
-3.86
-4.79
-5.96
-6.89
-7.03
-5.9
-3.3
0.63
5.58
11.03
16.56
21.87
26.81
31.29
35.27
38.59
41.08
42.6
43.11
42.82
42.1
41.4
41.06
41.23
41.75
42.33
42.68
42.69
42.49
42.28
42.19
42.22
42.09
41.44
39.92
37.48
34.52
31.82
30.26
30.61
33.32
38.32
45.08
52.68
60.07
66.45
71.62
75.96
80.65
87.75
99.71
118.48
144.39
175.25
206.46
231.97
245.51
242.69
222.53
187.93
144.57
98.97
56.69
21.14
-6.36
-26.96
-43.18
-57.46
-71.07
-83.88
-94.94
-103.56
-110.22
-116.8
-127.47
-147.85
-182.84
-234.85
-302.96
-383.48
-470.87
-558.98
-631.83
-672.55
-667.93
-613.27
-515.33
-390.04
-256.84
-132.48
-28.12
47.95
96.95
121.48
124.57
109.88
83.94
53.74
26.26
6.94
-1.07
2.34
14.22
30.63
47.96
64.17
78.38
90.66
101.33
110.58
118.21
123.08
124.34
121.55
115.6
107.83
99.82
92.89
87.86
85.17
84.44
85.35
87.55
91.39
97.16
104.97
114.49
124.82
134.76
142.71
147.98
149.15
145.73
137.66
125.57
110.42
93.43
75.99
59.36
44.58
32.33
23.24
17.17
13.9
13.16
14.48
17.52
22.12
28.01
35.05
43.28
52.05
60.89
69.39
77.14
83.83
89.41
93.86
97.45
100.57
102.99
104.75
105.98
106.79
107.26
107.31
106.46
103.56
101.76
101.68
103.3
106.28
109.99
113.95
117.83
121.45
124.81
127.76
129.27
128.39
124.45
117.13
106.82
94.59
81.86
70.03
59.84
50.6
41.01
29.51
14.94
-2.97
-23.37
-44.87
-66.17
-87.1
-109.23
-134.85
-166.19
-203.95
-246.38
-289.09
-326.12
-351.3
-360.13
-350.82
-324.19
-283.28
-232.64
-177.92
-125.12
-79.25
-42.41
-12.72
15.0
46.6
84.49
125.05
158.9
174.8
164.91
128.66
73.06
9.26
-52.21
-105.03
-147.59
-181.06
-206.74
-224.36
-232.6
-230.43
-218.57
-199.42
-176.2
-151.19
-124.71
-95.33
-60.67
-18.9
30.05
83.97
138.71
189.09
230.25
258.64
272.47
271.98
259.1
237.18
210.37
183.02
159.01
141.15
130.47
125.97
124.81
122.99
116.15
100.4
72.81
31.87
-22.61
-89.41
-166.29
-250.34
-338.62
-428.79
-518.88
-606.57
-687.91
-756.93
-806.26
-829.5
-823.71
-791.13
-738.82
-676.09
-611.49
-550.41
-494.8
-444.17
-397.56
-354.68
-315.87
-281.35
-250.48
-221.8
-193.7
-165.46
-137.48
-111.26
-88.58
-70.57
-57.25
-47.36
-38.99
-30.34
-20.4
-9.2
2.51
13.69
23.59
32.06
39.53
46.68
53.96
61.35
68.33
74.37
79.19
83.15
87.17
92.48
100.12
110.48
123.2
137.21
151.29
164.39
176.08
186.67
197.13
208.94
223.46
241.24
261.38
281.45
298.14
308.7
311.97
308.92
302.25
295.13
290.1
288.12
288.6
289.7
289.03
283.97
272.24
252.62
225.67
194.06
161.97
133.99
113.28
100.7
94.61
91.92
89.39
84.63
76.5
64.85
50.34
34.06
17.71
3.43
-6.41
-9.84
-6.3
2.88
14.44
24.19
28.59
26.09
17.78
6.67
-3.76
-11.4
-15.97
-18.84
-21.6
-24.85
-27.65
-28.19
-25.11
-18.51
-10.27
-3.01
1.11
1.32
-1.69
-6.34
-10.92
-14.39
-16.43
-17.28
-17.38
-17.38
-18.23
-20.96
-26.28
-33.46
-39.89
-41.16
-32.53
-10.73
24.22
68.62
116.17
159.72
193.55
214.35
221.43
215.82
199.56
175.17
145.53
114.08
84.2
58.81
39.61
26.83
19.34
15.06
11.68
7.21
0.5
-8.67
-19.44
-30.19
-38.99
-44.27
-45.5
-43.2
-38.7
-33.31
-27.77
-22.01
-15.49
-7.83
0.49
8.12
13.26
14.57
11.87
6.26
-0.34
-6.04
-9.53
-10.38
-8.7
-4.99
0.16
6.13
12.24
17.82
22.43
25.87
28.18
29.44
29.43
27.71
24.01
18.57
12.21
6.04
0.95
-2.83
-5.59
-7.87
-10.05
-12.07
-13.67
-14.8
-15.87
-17.64
-20.83
-25.61
-31.29
-36.54
-39.7
-39.51
-35.49
-28.17
-18.71
-8.57
1.14
9.91
17.75
24.72
30.62
34.9
36.87
36.16
33.02
28.28
23.12
18.65
15.33
13.06
11.45
10.14
9.18
8.78
9.3
10.84
13.27
16.15
18.86
20.76
21.1
19.35
15.1
8.5
0.18
-8.74
-17.04
-23.71
-28.19
-30.47
-30.88
-29.93
-28.4
-27.13
-27.02
-28.8
-32.57
-37.68
-42.89
-46.66
-47.69
-45.21
-39.01
-29.49
-17.43
-4.11
8.99
20.43
29.2
34.97
38.16
39.64
40.13
40.04
39.3
37.72
35.27
32.14
28.72
25.28
22.03
18.98
16.29
14.31
13.41
13.65
14.67
15.75
16.17
15.67
14.48
13.2
12.32
11.93
11.76
11.33
10.49
9.47
8.69
8.37
8.28
7.7
5.77
1.86
-4.3
-12.54
-22.35
-32.88
-43.02
-51.43
-56.86
-58.47
-56.1
-50.46
-42.7
-34.27
-26.28
-19.45
-13.98
-9.67
-6.13
-2.79
0.87
5.27
10.42
15.97
21.21
25.42
28.09
29.21
29.21
28.69
28.16
27.9
28.05
28.64
29.73
31.31
33.1
34.53
34.58
32.16
26.43
17.33
5.67
-7.06
-19.02
-28.74
-35.31
-38.72
-39.69
-39.31
-38.68
-38.6
-39.5
-41.39
-44.03
-47.04
-50.06
-52.83
-55.23
-57.22
-58.71
-59.65
-59.75
-58.64
-55.8
-50.74
-43.3
-33.8
-23.08
-12.05
-1.62
7.73
15.81
22.59
28.13
32.46
35.85
38.87
42.47
47.48
54.32
62.45
70.48
76.61
79.25
77.67
72.18
64.01
54.87
46.4
39.61
34.73
31.3
28.34
24.88
20.21
14.15
7.0
-0.55
-7.7
-13.81
-18.46
-21.57
-23.18
-23.38
-22.21
-19.88
