22.79
33.39
41.67
47.78
51.8
53.88
54.36
53.71
52.26
50.03
46.74
42.1
36.17
29.67
23.92
20.43
20.26
23.43
28.7
33.96
37.0
36.32
31.7
24.27
15.97
8.85
4.31
2.77
3.76
6.16
8.46
9.13
6.93
1.16
-7.93
-19.08
-30.2
-38.94
-43.42
-42.91
-37.99
-30.16
-21.27
-12.7
-5.09
1.34
6.54
10.22
12.0
11.67
9.56
6.36
2.99
0.04
-2.67
-5.65
-9.5
-14.14
-18.53
-21.14
-20.58
-16.35
-9.25
-1.22
5.5
9.05
8.63
4.64
-1.74
-9.02
-15.92
-21.63
-25.84
-28.49
-29.86
-30.56
-31.42
-33.45
-37.29
-42.86
-48.98
-53.86
-55.43
-52.37
-44.44
-32.48
-18.12
-3.02
11.39
24.24
35.1
43.81
50.34
54.64
56.61
55.92
52.49
46.47
38.6
30.25
22.84
17.46
14.37
13.06
12.6
12.31
12.0
11.81
11.85
11.51
9.6
4.67
-3.96
-15.69
-28.55
-39.86
-47.31
-49.72
-47.52
-42.33
-36.41
-31.88
-30.32
-32.56
-38.64
-47.85
-58.56
-68.41
-74.5
-74.06
-65.47
-48.92
-26.63
-2.43
19.57
36.21
45.99
49.21
47.38
42.15
34.92
26.67
18.27
10.81
5.52
3.24
3.83
6.13
8.22
8.38
6.08
2.24
-0.9
-0.78
4.36
14.4
27.39
40.09
49.28
53.07
51.48
46.35
40.25
35.1
31.16
26.89
20.0
8.9
-6.05
-22.35
-36.25
-44.37
-45.07
-38.9
-28.06
-15.27
-2.64
8.88
19.22
28.65
37.22
44.55
49.99
53.01
53.33
51.16
47.07
41.8
36.1
30.54
25.51
21.23
17.77
15.24
13.73
13.2
13.45
14.06
14.49
14.1
12.38
8.96
3.83
-2.49
-9.05
-14.64
-18.36
-20.05
-20.44
-20.91
-22.89
-27.17
-33.7
-41.63
-49.81
-57.29
-63.59
-68.29
-70.89
-70.58
-66.34
-57.58
-44.55
-28.43
-11.12
5.41
19.76
31.2
39.64
45.33
48.52
49.44
48.37
45.88
42.76
39.87
37.76
36.57
36.16
36.13
36.13
36.03
35.82
35.48
34.97
33.98
32.22
29.43
25.39
20.17
14.1
7.71
1.57
-3.9
-8.57
-12.52
-15.86
-18.69
-20.98
-23.0
-25.41
-29.27
-35.46
-44.03
-53.64
-61.84
-65.93
-63.98
-55.87
-43.03
-27.8
-12.34
2.08
14.96
26.17
35.27
41.43
43.77
41.96
36.82
30.13
24.12
20.52
20.08
22.12
25.1
27.26
27.48
25.71
22.89
20.49
19.58
20.4
21.99
22.8
21.39
17.26
11.09
4.33
-1.33
-4.95
-6.48
-6.61
-6.24
-6.25
-7.27
-9.84
-14.51
-21.5
-30.47
-40.19
-48.66
-53.72
-53.85
-48.87
-39.9
-28.83
-17.58
-7.32
1.7
9.75
17.02
23.22
27.48
28.79
26.62
21.25
13.91
6.37
0.25
-3.75
-6.0
-7.78
-10.7
-15.85
-23.12
-31.19
-37.93
-41.33
-40.49
-36.3
-31.36
-29.18
-32.94
-44.15
-62.09
-83.82
-105.15
-121.78
-130.73
-131.06
-123.98
-112.47
-100.38
-91.23
-87.22
-88.35
-92.32
-95.13
-92.36
-80.71
-59.09
-29.1
5.73
41.45
75.06
105.29
132.08
155.55
174.61
186.62
188.15
176.85
153.09
120.67
85.98
55.82
35.21
25.85
26.11
32.27
40.51
48.24
54.74
60.83
67.85
76.83
87.91
100.55
113.8
127.05
140.15
153.47
167.53
182.33
196.93
209.26
216.56
215.97
205.37
184.04
152.81
113.88
70.54
26.56
-14.18
-48.12
-72.55
-86.01
-88.54
-81.64
-67.93
-50.35
-31.06
-10.63
12.49
41.28
78.47
124.71
176.94
228.43
270.29
294.37
295.81
274.56
234.84
183.14
125.99
68.2
12.46
-40.22
-89.61
-135.74
-178.68
-218.76
-256.71
-293.61
-330.63
-368.55
-407.64
-447.71
-488.76
-530.94
-574.29
-617.77
-658.45
-691.48
-711.09
-712.58
-694.09
-657.44
-607.41
-550.09
-491.08
-434.35
-382.15
-335.6
-295.24
-261.27
-233.3
-210.32
-190.78
-173.13
-156.42
-140.55
-126.26
-114.82
-107.33
-104.31
-105.52
-109.87
-115.84
-121.77
-126.06
-127.37
-124.54
-116.41
-101.92
-80.2
-50.74
-13.75
29.56
77.06
125.89
172.73
214.41
248.25
272.25
285.48
287.85
279.91
262.92
238.51
208.57
175.16
140.35
106.03
74.01
45.78
22.42
4.75
-6.98
-12.71
-12.66
-7.07
3.73
19.56
40.23
65.62
95.59
129.66
167.01
206.49
246.62
285.78
322.5
355.54
384.15
408.18
427.78
443.3
455.19
463.69
468.9
470.88
469.78
465.93
460.05
453.12
446.12
439.66
433.45
426.35
416.62
402.55
383.11
358.36
329.19
296.83
262.25
225.92
188.14
149.47
110.92
73.92
39.86
9.77
-15.61
-35.42
-48.56
-54.17
-52.46
-45.69
-37.93
-33.82
-36.66
-46.82
-61.43
-75.85
-85.95
-89.86
-88.36
-83.76
-78.11
-72.1
-65.11
-56.41
-46.24
-35.96
-27.36
-21.38
-17.55
-14.38
-10.56
-5.94
-2.01
-1.15
-5.28
-14.83
-28.44
-43.43
-56.76
-66.15
-70.64
-70.82
-68.45
-65.57
-63.7
-63.21
-63.39
-62.99
-60.96
-56.68
-49.77
-39.81
-26.37
-9.85
7.91
23.42
32.54
32.28
22.2
4.8
-15.8
-35.69
-52.53
-65.63
-74.95
-80.12
-80.09
-73.81
-61.05
-43.21
-23.04
-3.95
10.87
19.08
19.78
13.65
2.91
-9.13
-19.26
-25.54
-28.12
-29.05
-31.21
-36.78
-46.1
-57.79
-69.38
-78.55
-83.86
-84.81
-81.66
-75.05
-65.96
-55.79
-46.27
-38.83
-33.74
-29.73
-24.27
-14.82
-0.14
18.66
38.42
54.98
64.84
66.44
60.19
48.09
32.55
15.81
-0.45
-14.95
-26.83
-35.79
-42.03
-46.23
-48.77
-49.41
-47.18
-40.87
-30.04
-15.41
1.05
16.87
29.83
38.53
42.38
41.41
36.18
27.76
17.81
8.44
1.59
-1.65
-1.34
1.24
4.24
6.19
6.45
5.21
3.22
1.23
-0.52
-2.16
-3.92
-5.9
-7.79
-9.09
-9.37
-8.6
-7.21
-6.04
-5.9
-7.15
-9.44
-11.8
-13.08
-12.55
-10.38
-7.72
-6.3
-7.64
-12.35
-19.8
-28.4
-36.38
-42.66
-47.13
-50.41
-53.37
-56.25
-58.56
-59.28
-57.38
-52.43
-44.89
-36.04
-27.35
-20.05
-14.5
-10.24
-6.25
-1.52
4.35
10.99
17.46
22.82
26.71
29.54
32.19
35.47
39.75
44.7
49.74
54.71
60.11
67.02
76.53
89.06
103.92
119.62
134.08
145.32
152.06
154.03
151.72
146.04
138.11
129.02
120.32
113.32
109.04
107.87
109.53
112.81
115.66
115.92
112.08
104.23
92.91
78.88
62.86
45.9
29.36
14.19
0.39
-13.49
-29.8
-52.55
-85.92
-132.17
-190.55
-257.63
-329.44
-402.78
-475.25
-543.68
-605.47
-658.34
-700.53
-730.78
-744.27
-736.44
-704.69
-654.85
-588.5
-505.43
-405.51
-292.32
-171.51
-49.42
67.55
173.41
262.48
330.1
371.77
385.05
371.77
339.02
297.56
258.02
227.77
209.93
204.01
206.28
211.53
214.16
209.5
194.85
170.38
139.51
107.97
80.71
58.11
35.52
6.19
-33.1
-79.03
-121.98
-150.97
-159.07
-146.86
-121.93
-94.23
-71.07
-54.12
-40.78
-27.42
-13.11
-0.91
3.74
-3.51
-22.28
-46.58
-66.52
-73.03
-62.17
-37.55
-8.59
13.94
22.9
17.81
3.96
-10.95
-20.88
-23.6
-20.44
-14.41
-7.64
-0.62
7.67
18.75
33.86
53.27
76.28
101.47
126.58
149.16
166.53
176.59
178.33
172.28
160.37
145.25
129.72
115.93
105.43
98.85
96.03
95.74
95.72
93.05
85.12
70.72
50.59
27.4
4.62
-14.44
-27.59
-33.94
-33.69
-27.81
-17.62
-4.77
9.12
22.62
34.72
45.13
53.92
61.29
67.02
70.32
70.11
65.61
56.7
44.17
29.49
14.24
-0.11
-12.22
-20.63
-23.76
-20.26
-9.84
6.16
24.93
42.93
57.21
66.25
70.17
69.93
66.46
60.04
50.59
38.25
24.06
9.96
-1.92
-9.92
-13.38
-12.65
-8.57
-2.08
5.9
14.4
22.5
29.18
33.73
36.07
36.59
36.11
35.54
35.6
36.67
38.99
42.38
46.5
50.78
54.56
57.1
57.82
56.44
52.94
47.66
40.9
33.05
24.44
15.52
6.81
-1.03
-7.29
-11.49
-13.53
-13.87
-13.32
-12.86
-13.28
-14.92
-17.65
-21.01
-24.3
-26.82
-27.98
-27.24
-24.21
-18.7
-10.84
-0.96
10.51
23.34
37.77
54.31
73.32
94.35
115.83
135.38
150.56
159.82
163.0
161.38
156.83
151.16
145.59
140.74
136.85
133.86
131.22
127.72
121.61
111.1
95.44
75.53
53.92
33.55
16.22
1.1
-15.13
-36.99
-68.17
-109.79
-159.96
-214.43
-267.81
-314.47
-349.27
-367.87
-367.45
-347.68
-311.42
-264.52
-214.57
-168.69
-131.51
-104.51
-86.49
-75.13
-68.63
-66.54
-69.68
-79.34
-95.98
-118.33
-143.32
-166.92
-185.53
-197.64
-203.89
-206.32
-206.74
-205.46
-201.08
-191.49
-175.16
-152.04
-123.53
-91.67
-58.33
-24.59
9.32
43.79
79.23
115.59
151.97
186.39
216.45
240.39
258.2
271.9
284.68
298.72
313.53
325.5
329.5
321.5
300.58
269.18
231.31
190.16
146.53
99.62
49.21
-2.3
-49.47
-85.89
-107.51
-115.34
-115.22
-115.0
-120.35
-131.87
-145.03
-152.76
-149.19
-132.11
-103.34
-66.88
-26.67
14.95
57.05
98.85
138.65
173.39
199.5
214.33
217.15
209.25
193.01
170.5
142.66
109.04
68.58
20.8
-32.85
-89.07
-143.59
-192.58
-233.75
-266.08
-288.96
-300.81
-298.54
-278.23
-237.19
-175.96
-99.38
-15.76
65.13
133.67
182.55
208.08
210.99
196.29
172.05
147.65
131.59
129.78
143.32
169.16
201.59
234.36
262.02
280.15
284.98
273.32
243.3
193.58
124.44
38.24
-60.54
-165.98
-272.39
-375.45
-472.57
-553.45
-605.37
-617.92
-589.42
-528.03
-447.19
-359.61
-274.3
-196.46
-128.2
-71.03
-25.91
6.6
27.48
39.15
44.83
47.62
49.81
53.15
57.89
63.77
70.02
77.04
86.24
99.65
118.69
143.57
173.41
205.47
237.72
265.5
284.92
293.51
290.45
275.7
250.09
215.39
172.03
124.72
77.11
32.32
-7.11
-39.32
-64.15
-82.83
-97.32
-110.01
-123.03
-138.54
-157.41
-181.21
-206.49
-229.32
-245.5
-250.82
-241.63
-215.47
-172.06
-113.3
-42.53
36.04
116.86
194.16
262.67
318.24
358.36
382.17
389.97
383.72
366.98
343.26
315.73
286.76
257.77
229.46
202.32
175.79
149.73
124.46
99.89
75.24
48.71
17.43
-22.61
-67.15
-114.07
-160.78
-204.62
-243.46
-276.31
-303.45
-326.04
-345.48
-363.05
-381.25
-401.72
-424.73
-448.13
-467.3
-476.35
-470.23
-447.0
-408.74
-361.68
-312.85
-267.9
-230.14
-200.58
-178.8
-163.44
-152.28
-142.05
-129.38
-111.46
-87.24
-58.29
-28.25
-1.49
18.42
29.1
29.29
19.08
0.88
-20.25
-37.05
-42.19
-31.72
-6.95
25.38
55.84
76.71
85.53
86.15
86.43
94.06
112.96
141.73
174.77
204.86
225.78
233.99
228.76
211.49
184.65
150.87
112.55
72.1
32.2
-3.87
-32.68
-51.45
-59.3
-58.05
-51.8
-45.21
-41.57
-41.67
-43.73
-45.11
-44.32
-42.25
-41.89
-46.69
-58.43
-75.43
-92.89
-104.64
-105.81
-94.89
-74.21
-48.45
-22.73
-0.91
14.87
24.01
27.15
26.11
24.18
25.91
35.68
55.41
82.7
111.11
132.42
140.0
131.44
108.95
78.0
44.69
13.85
-12.0
-32.46
-48.2
-59.74
-66.59
-67.3
-60.31
-45.77
-26.62
-8.48
2.16
0.1
-16.05
-43.77
-77.78
-111.84
-140.68
-160.84
-170.8
-170.96
-163.74
-153.07
-143.57
-138.89
-140.31
-146.04
-152.15
-154.16
-148.85
-135.08
-113.62
-86.18
-54.98
-22.37
9.13
37.16
59.99
77.26
90.67
103.07
117.17
133.76
151.04
165.14
172.71
172.9
168.3
164.25
166.24
177.55
198.39
226.67
259.07
292.19
322.35
344.95
354.65
346.6
318.58
272.53
214.6
153.14
96.02
48.56
12.71
-12.04
-27.28
-34.19
-33.19
-24.41
-8.51
12.5
35.37
56.24
71.98
80.98
83.43
80.65
74.29
65.62
55.65
45.19
35.18
26.6
19.96
15.04
11.0
6.95
2.49
-2.0
-5.66
-7.84
-8.71
-9.23
-10.67
-13.68
-17.94
-22.26
-25.18
-26.01
-25.28
-24.9
-27.21
-33.99
-45.41
-60.05
-75.34
-88.29
-96.31
-97.5
-90.67
-75.74
-53.8
-27.47
-0.69
22.23
38.08
45.92
47.71
47.82
51.31
61.86
80.19
103.6
127.04
145.18
154.29
153.43
144.21
129.29
111.01
90.66
68.81
46.14
23.64
2.22
-18.2
-38.83
-61.25
-85.81
-110.69
-132.03
-145.55
-148.73
-141.99
-128.58
-113.13
-100.14
-92.74
-92.37
-98.49
-108.81
-119.23
-124.62
-120.29
-103.9
-76.85
-44.11
-12.47
12.18
26.64
31.1
28.01
20.65
12.11
5.31
3.2
8.85
24.57
50.68
84.52
120.74
152.89
175.49
185.67
183.32
170.09
148.14
119.45
86.32
51.75
19.57
-6.33
-23.46
-31.58
-32.6
-29.66
-25.96
-23.49
-22.88
-23.37
-22.87
-18.67
-8.35
9.11
32.25
57.13
78.8
93.11
98.4
95.92
88.65
79.77
71.2
63.41
55.64
46.62
34.75
18.48
-3.07
-29.35
-57.47
-82.72
-99.95
-105.6
-99.36
-84.24
-65.32
-47.56
-34.31
-26.42
-22.83
-21.69
-21.14
-20.15
-18.53
-17.02
-16.83
-19.3
-25.07
-33.88
-44.54
-55.33
-64.7
-71.55
-75.39
-75.98
-73.25
-67.0
-57.29
-44.56
-29.73
-14.13
1.05
14.9
26.85
36.51
43.64
48.06
49.84
49.44
47.44
44.56
41.26
37.56
33.12
27.5
20.28
11.42
1.48
-8.65
-17.71
-24.73
-29.63
-33.23
-37.13
-42.9
-51.18
-61.2
-71.16
-78.87
-82.88
-83.15
-80.77
-77.48
-74.66
-72.8
-71.19
-68.42
-62.55
-51.79
-35.15
-12.78
13.58
40.84
65.23
83.41
93.38
95.36
91.46
84.85
78.68
74.79
73.23
72.54
70.69
65.89
57.6
46.53
34.09
21.75
10.28
-0.37
-10.51
-20.24
-29.37
-37.66
-45.13
-52.36
-59.91
-67.72
-74.8
-79.47
-80.34
-77.52
-72.88
-69.46
-70.02
-75.63
-85.3
-96.41
-106.15
-112.44
-114.2
-110.73
-101.33
-85.66
-64.44
-40.19
-16.7
2.29
14.78
21.24
24.1
26.2
29.24
33.26
36.97
38.95
38.61
36.54
34.1
32.85
33.76
36.98
41.93
47.45
52.29
55.39
56.33
55.38
53.02
49.8
46.14
42.15
37.76
32.7
26.59
19.22
10.91
2.32
-5.82
-13.29
-20.63
-28.74
-38.2
-48.4
-57.54
-63.34
-64.05
-59.11
-49.19
-35.52
-19.35
-1.83
15.69
31.41
43.39
50.34
52.22
50.37
46.74
42.97
39.7
36.58
33.11
29.39
26.25
24.94
25.99
28.56
30.76
30.57
26.89
20.28
12.63
6.1
2.12
0.72
0.72
0.56
-0.99
-4.3
-9.05
-14.56
-20.18
-25.26
-29.36
-32.25
-34.0
-35.12
-36.48
-39.0
-43.21
-48.96
-55.04
-59.25
-58.74
-50.98
-34.9
-11.79
14.72
39.84
59.42
71.51
76.97
78.59
79.39
81.06
83.52
85.29
84.96
82.33
78.35
74.74
72.86
72.96
74.06
74.69
73.43
69.83
64.52
58.77
53.87
50.41
48.05
45.78
42.44
37.06
29.11
18.34
4.53
-12.11
-30.71
-49.71
-67.03
-81.01
-91.11
-97.95
-103.0
-107.66
-112.28
-115.97
-117.28
-114.52
-106.84
-94.46
-78.65
-61.41
-44.92
-30.86
-19.87
-11.75
-5.48
-0.14
4.66
8.6
10.89
10.81
8.37
4.32
-0.06
-3.33
-4.62
-3.68
-0.95
2.7
6.41
9.78
12.84
15.92
19.11
21.61
22.05
19.22
12.79
4.14
-4.25
-9.93
-11.73
-10.48
-8.57
-8.8
-12.73
-20.27
-29.74
-38.95
-45.96
-49.38
-48.2
-41.49
-28.66
-10.1
12.38
35.69
56.26
71.46
80.46
84.19
84.48
82.96
80.2
75.74
68.89
59.5
48.42
37.31
27.88
21.2
17.27
15.1
13.25
10.31
5.32
-1.95
-11.03
-20.98
-30.74
-39.49
-46.96
-53.51
-59.84
-66.46
-73.06
-78.47
-81.22
-80.37
-76.27
-70.69
-65.94
-63.83
-64.99
-68.58
-72.99
-76.44
-77.13
-73.24
-63.18
-46.01
-22.12
6.3
35.59
61.63
81.29
93.46
98.97
99.78
98.08
95.37
92.26
88.58
83.9
77.84
70.39
61.87
52.75
43.5
34.41
25.6
17.39
10.56
6.15
5.04
7.13
11.19
15.19
17.19
16.24
12.78
8.07
3.4
-0.55
-3.72
-6.53
-9.36
-12.64
-16.89
-22.67
-30.48
-40.1
-50.12
-58.0
-60.99
-57.21
-46.75
-31.66
-15.33
-1.05
9.17
15.01
17.38
17.57
16.67
15.18
13.16
10.43
6.89
2.62
-2.28
-7.81
-14.03
-20.99
-28.42
-35.89
-42.54
-47.53
-50.06
-49.83
-47.24
-43.24
-39.26
-36.51
-35.6
-36.13
-36.87
-36.2
-33.1
-27.6
-21.03
-15.46
-12.52
-12.77
-15.41
-19.0
-22.07
-23.58
-22.61
-18.08
-8.92
5.44
24.02
44.18
62.2
74.79
80.51
80.16
75.93
69.87
63.05
55.28
45.99
35.24
23.97
13.79
6.25
2.11
1.06
2.08
3.8
5.18
5.86
6.02
6.11
6.26
5.97
4.09
-0.38
-7.79
-17.23
-26.69
-33.97
-37.55
-37.34
-34.61
-31.4
-29.62
-30.42
-34.01
-39.74
-46.51
-52.62
-56.05
-54.5
-46.32
-31.26
-11.07
10.86
30.87
46.13
55.57
59.58
59.36
55.98
50.34
43.17
35.35
28.2
22.76
19.67
18.79
19.35
20.21
20.3
18.84
15.48
10.54
4.83
-0.44
-4.21
-6.06
-6.65
-7.26
-9.09
-12.7
-17.46
-22.31
-26.27
-29.09
-31.57
-35.05
-40.63
-48.65
-58.62
-69.16
-78.63
-85.0
-86.05
-79.89
-65.61
-44.21
-18.59
7.06
28.9
44.65
54.17
58.81
60.19
59.32
56.56
52.17
46.83
41.82
38.28
36.58
36.19
35.88
34.73
32.31
28.74
24.43
19.93
15.84
12.73
11.1
10.8
11.03
10.32
7.25
1.36
-6.45
-14.35
-20.72
-25.12
-28.76
-33.57
-41.14
-51.68
-63.86
-75.59
-84.81
-90.08
-90.27
-84.68
-73.08
-56.21
-36.19
-16.1
0.93
13.03
20.11
23.6
25.13
25.55
24.68
21.83
16.75
10.17
3.58
-1.42
-3.78
-3.36
-0.8
2.83
6.61
9.99
12.75
14.81
15.76
14.93
11.67
6.0
-1.14
-7.97
-12.62
-14.13
-13.05
-11.29
-11.08
-14.06
-20.71
-30.47
-42.14
-53.92
-63.24
-67.02
-62.55
-48.77
-27.42
-2.73
20.11
37.15
47.03
51.22
52.44
52.86
53.18
52.79
50.85
47.3
42.99
38.98
35.98
34.02
32.74
31.81
30.93
29.94
28.63
26.77
24.29
21.16
17.27
12.27
5.7
-2.49
-11.53
-19.91
-25.99
-29.02
-29.76
-30.05
-32.05
-37.01
-44.92
-54.74
-64.94
-73.84
-79.78
-80.98
-75.8
-63.61
-45.37
-23.88
-3.01
13.8
24.61
29.62
30.49
29.47
28.28
27.7
27.7
27.96
28.38
29.16
30.58
32.77
35.45
37.95
39.43
39.22
37.06
33.3
28.57
23.38
17.84
11.43
3.32
-7.0
-19.27
-32.15
-43.52
-51.43
-55.13
-55.56
-55.34
-57.53
-64.41
-76.38
-91.6
-106.4
-116.3
-117.18
-106.16
