-29.04
-29.72
-29.99
-29.89
-29.39
-28.32
-26.39
-23.12
-18.43
-12.41
-5.52
1.46
7.84
13.12
17.1
19.79
21.43
22.29
22.56
22.31
21.58
20.39
18.83
17.06
15.3
13.72
12.42
11.54
10.98
10.6
10.35
10.2
10.13
10.23
10.37
10.33
9.93
9.02
7.51
5.62
3.57
1.59
-0.17
-1.84
-3.57
-5.53
-7.75
-10.2
-12.65
-15.0
-17.17
-19.3
-21.67
-24.41
-27.48
-30.63
-33.21
-34.44
-33.69
-30.51
-24.93
-17.3
-8.42
0.83
9.53
17.01
22.86
26.87
29.08
29.6
28.74
26.79
24.06
20.97
17.94
15.36
13.44
12.26
11.64
11.43
11.44
11.54
11.67
11.85
12.04
12.09
11.82
10.98
9.42
6.94
3.53
-0.86
-6.24
-12.59
-20.0
-28.38
-37.67
-47.65
-58.01
-68.17
-77.38
-84.86
-89.71
-91.24
-88.79
-82.09
-71.34
-57.02
-40.22
-22.24
-4.54
11.5
24.77
34.56
40.5
42.55
41.24
37.36
32.03
26.42
21.62
18.33
16.83
17.02
18.57
21.31
24.88
28.86
32.75
36.17
38.82
40.63
41.68
42.15
42.11
41.33
39.4
36.05
31.17
25.17
18.72
12.49
7.12
2.94
-0.06
-2.09
-3.46
-4.55
-5.58
-6.71
-7.96
-9.19
-10.04
-10.04
-8.69
-5.63
-0.92
5.1
11.72
18.05
23.24
26.65
27.97
27.22
24.74
20.92
16.46
11.97
8.07
5.25
3.68
3.3
3.87
4.96
6.05
6.81
6.94
6.29
4.97
3.07
0.85
-1.4
-3.59
-5.84
-8.4
-11.69
-15.9
-20.86
-26.16
-31.11
-34.99
-37.46
-38.57
-38.63
-38.2
-37.81
-37.6
-37.68
-37.75
-37.46
-36.4
-34.27
-30.95
-26.57
-21.53
-16.32
-11.64
-7.78
-4.76
-2.39
-0.33
1.64
3.54
5.31
6.94
8.43
10.06
12.16
14.79
17.69
20.4
22.39
23.28
22.99
21.69
19.71
17.44
15.1
12.81
10.63
8.64
6.93
5.62
4.75
4.17
3.51
2.4
0.58
-1.91
-4.92
-8.13
-11.2
-13.98
-16.4
-18.41
-19.87
-20.42
-19.58
-17.15
-13.13
-7.78
-1.7
4.38
9.92
14.52
17.92
20.08
20.98
20.74
19.63
18.0
16.16
14.41
12.99
11.94
11.25
10.87
10.76
10.96
11.47
12.36
13.61
15.05
16.53
17.8
18.55
18.64
18.05
16.82
15.22
13.43
11.54
9.58
7.54
5.14
2.09
-1.79
-6.68
-12.42
-18.56
-24.46
-29.38
-32.53
-33.48
-32.09
-28.48
-23.14
-16.7
-9.89
-3.54
1.63
5.15
6.74
6.41
4.26
0.43
-4.81
-11.1
-18.02
-25.03
-31.65
-37.54
-42.51
-46.56
-49.67
-51.58
-51.93
-50.33
-46.56
-40.65
-33.16
-24.73
-16.2
-8.34
-1.65
3.59
7.2
9.22
9.87
9.35
8.35
7.48
7.31
8.34
10.87
14.94
20.32
26.65
33.23
39.48
44.68
48.29
50.2
50.46
49.48
47.6
45.2
42.42
39.35
36.01
32.4
28.89
25.68
23.03
21.09
19.9
19.3
19.05
18.91
18.5
17.65
15.96
13.32
9.8
5.68
1.3
-2.88
-6.48
-9.28
-11.21
-12.68
-13.87
-15.07
-16.3
-17.52
-18.38
-18.49
-17.68
-15.95
-13.8
-11.56
-9.69
-8.48
-8.05
-8.25
-8.81
-9.33
-9.41
-8.94
-7.83
-6.17
-4.13
-1.87
0.39
2.37
3.89
4.92
5.3
5.19
4.68
3.84
2.76
1.5
0.01
-1.72
-3.49
-5.35
-7.28
-9.37
-11.85
-14.66
-17.93
-21.53
-25.43
-29.25
-32.61
-35.0
-35.92
-34.97
-31.92
-26.95
-20.55
-13.42
-6.35
-0.05
5.13
8.9
11.43
13.11
14.34
15.37
16.39
17.27
17.74
17.68
16.95
15.57
13.76
11.55
8.92
6.0
2.85
-0.27
-3.03
-5.22
-6.88
-8.15
-9.33
-10.54
-11.87
-13.08
-14.03
-14.57
-14.86
-15.19
-15.78
-16.75
-17.84
-18.75
-18.86
-17.82
-15.22
-11.22
-6.08
-0.37
5.27
10.4
14.57
17.67
19.63
20.68
20.84
20.35
19.48
18.42
17.53
16.87
16.48
16.24
16.05
15.87
15.69
15.63
15.62
15.6
15.38
14.78
13.48
11.32
8.31
4.5
0.23
-4.26
-8.48
-11.99
-14.3
-15.36
-15.2
-14.13
-12.73
-11.5
-11.12
-11.81
-13.6
-15.99
-18.3
-19.76
-19.72
-17.91
-14.42
-9.73
-4.34
1.14
6.32
10.97
14.98
18.23
20.67
22.28
23.12
23.33
23.1
22.65
22.16
21.87
21.85
22.2
22.85
23.58
24.14
24.25
23.73
22.47
20.41
17.62
14.22
10.47
6.56
2.77
-0.61
-3.33
-5.27
-6.51
-7.26
-7.78
-8.4
-9.38
-10.86
-12.83
-14.97
-17.08
-18.95
-20.6
-22.0
-23.27
-24.54
-25.84
-27.22
-28.34
-28.79
-28.1
-25.97
-22.32
-17.42
-11.85
-6.1
-0.69
4.17
8.48
12.27
15.55
18.32
20.54
22.14
23.18
23.75
23.94
23.89
23.72
23.47
23.13
22.54
21.6
20.29
18.62
16.75
14.94
13.32
11.99
10.92
9.91
8.76
7.46
6.01
4.6
3.54
2.91
2.63
2.44
1.95
0.85
-0.95
-3.42
-6.41
-9.67
-13.03
-16.47
-19.91
-23.38
-26.82
-30.12
-33.2
-35.95
-38.27
-39.89
-40.41
-39.23
-36.02
-30.61
-23.25
-14.65
-5.59
3.11
10.86
17.3
22.35
25.8
27.55
27.59
26.0
23.03
19.13
14.74
10.31
6.26
2.72
-0.18
-2.38
-3.89
-4.68
-4.59
-3.43
-0.99
2.81
7.91
14.06
20.85
27.75
34.31
40.04
44.6
47.86
49.78
50.55
50.62
50.5
50.56
51.36
53.16
56.22
60.48
65.67
71.26
76.66
81.19
84.32
85.88
85.87
84.63
82.26
78.87
74.47
69.1
62.77
55.7
47.99
39.62
30.4
20.09
8.67
-3.17
-14.08
-22.47
-26.73
-25.82
-19.51
-8.44
6.19
22.68
39.36
54.41
65.95
72.3
72.35
65.99
54.37
39.66
24.49
11.47
2.34
-2.05
-1.81
2.2
8.65
15.94
22.34
26.27
26.3
21.53
11.67
-2.69
-20.28
-39.28
-57.61
-73.28
-85.02
-92.48
-96.14
-97.05
-96.26
-94.73
-93.13
-91.78
-90.67
-89.79
-89.1
-88.44
-87.38
-85.35
-81.83
-76.62
-69.89
-62.26
-54.54
-47.44
-41.28
-35.98
-31.29
-26.85
-22.58
-18.46
-14.57
-11.01
-7.85
-5.06
-2.55
-0.3
1.85
4.08
6.55
9.34
12.29
14.88
16.48
16.51
14.65
10.97
5.97
0.34
-5.34
-10.75
-15.89
-20.96
-26.07
-31.37
-36.87
-42.52
-48.37
-54.54
-61.39
-69.32
-78.81
-90.27
-104.23
-121.0
-140.22
-160.66
-179.85
-194.49
-201.15
-197.23
-181.72
-155.53
-120.95
-80.71
-36.98
9.21
57.52
107.25
156.17
200.04
233.46
251.51
251.66
235.09
206.73
173.15
140.22
110.69
83.45
54.54
19.37
-25.05
-78.61
-137.65
-196.13
-246.92
-282.7
-296.65
-283.46
-241.06
-172.63
-87.81
-1.37
70.52
115.08
126.71
107.81
66.8
14.03
-41.57
-93.87
-138.96
-173.67
-194.66
-199.25
-186.74
-159.28
-121.85
-80.47
-40.57
-5.58
23.28
46.57
65.43
80.62
91.98
98.68
99.89
95.51
86.64
75.32
64.08
54.99
49.27
47.03
47.7
50.51
54.98
60.83
67.91
75.85
83.84
90.92
96.1
98.76
98.73
96.21
91.53
85.13
77.37
68.58
58.96
48.53
37.1
24.43
10.48
-4.35
-19.19
-33.13
-45.42
-55.77
-64.13
-70.43
-74.17
-74.55
-70.82
-62.79
-51.13
-37.18
-22.46
-8.28
4.62
15.88
25.12
31.85
35.44
35.36
31.51
24.53
15.38
5.39
-4.31
-12.92
-20.0
-25.41
-29.18
-31.56
-32.84
-33.57
-34.2
-35.26
-37.06
-39.51
-42.35
-45.17
-47.61
-49.36
-50.37
-50.71
-50.73
-50.8
-51.08
-51.51
-51.59
-50.48
-47.17
-40.97
-31.68
-19.83
-6.57
6.81
19.12
29.66
38.27
45.15
50.55
54.64
57.39
58.51
57.83
55.12
50.44
44.0
36.35
28.45
21.47
16.7
14.86
15.99
19.17
22.9
25.42
25.48
22.61
17.2
10.35
3.26
-3.01
-7.96
-11.71
-14.97
-18.92
-24.81
-33.62
-45.61
-60.24
-76.04
-90.85
-102.27
-108.12
-107.07
-99.0
-85.01
-67.08
-47.66
-28.88
-12.08
2.28
14.53
25.46
35.85
46.26
57.1
68.4
80.07
91.81
103.09
113.25
121.6
127.59
130.84
131.19
128.56
122.88
113.97
101.67
85.91
66.8
44.88
21.02
-3.44
-27.0
-48.16
-65.66
-78.64
-86.64
-89.56
-87.45
-80.46
-68.74
-52.77
-33.33
-11.63
10.73
32.09
50.87
65.95
76.67
83.05
85.44
84.48
80.83
75.04
67.67
59.18
50.12
40.94
32.16
24.12
17.02
10.87
5.53
0.84
-3.33
-7.0
-10.22
-12.94
-15.16
-16.87
-18.15
-19.11
-19.92
-20.67
-21.56
-22.8
-24.48
-26.52
-28.66
-30.29
-30.69
-29.18
-25.38
-19.45
-12.04
-4.11
3.42
9.69
14.37
17.36
18.81
19.03
18.27
16.76
14.74
12.52
10.36
8.53
7.27
6.61
6.5
6.73
7.05
7.27
7.17
6.64
5.64
4.18
2.31
0.16
-2.15
-4.54
-6.88
-9.13
-11.29
-13.36
-15.4
-17.36
-18.91
-19.61
-18.77
-15.76
-10.3
-2.65
6.42
15.73
24.06
30.55
34.72
36.65
36.68
35.25
32.75
29.56
25.98
22.29
18.73
15.47
12.55
9.94
7.57
5.36
3.26
1.27
-0.59
-2.33
-3.96
-5.55
-7.18
-8.87
-10.66
-12.56
-14.53
-16.52
-18.49
-20.45
-22.5
-24.69
-26.81
-28.27
-28.16
-25.54
-19.81
-11.14
-0.43
10.92
21.45
30.11
36.38
40.14
41.44
40.31
36.86
31.4
24.53
17.0
9.62
3.0
-2.58
-7.15
-10.87
-13.81
-15.98
-17.3
-17.81
-17.65
-17.22
-16.9
-17.1
-18.03
-19.66
-21.78
-24.1
-26.42
-28.59
-30.57
-32.26
-33.52
-34.0
-33.22
-30.57
-25.36
-17.26
-6.46
6.33
19.85
32.45
42.26
47.63
47.26
40.56
27.5
8.59
-15.06
-41.76
-69.22
-94.85
-115.99
-130.3
-136.17
-132.98
-121.13
-102.0
-77.71
-50.69
-23.45
1.71
23.03
39.37
50.28
56.07
57.49
55.5
51.11
45.25
38.58
31.59
24.69
18.31
13.01
9.29
7.51
7.83
10.2
14.18
19.06
23.9
27.8
30.16
30.64
29.34
26.58
22.82
18.44
13.92
9.62
5.92
3.14
1.39
0.61
0.55
0.87
1.21
1.38
1.25
0.83
0.16
-0.84
-2.2
-3.97
-6.02
-8.22
-10.29
-12.06
-13.41
-14.38
-15.14
-15.87
-16.7
-17.64
-18.52
-18.91
-18.29
-16.09
-11.91
-5.73
2.11
10.88
19.64
27.42
33.51
37.46
39.2
38.94
37.08
34.1
30.37
26.31
22.25
18.54
15.45
13.23
11.96
11.56
11.81
12.35
12.91
13.24
13.18
12.58
11.35
9.44
6.85
3.71
0.21
-3.34
-6.69
-9.66
-12.27
-14.54
-16.6
-18.43
-19.78
-20.24
-19.26
-16.44
-11.65
-5.22
2.15
9.53
16.0
20.9
23.86
24.86
24.11
21.97
18.89
15.37
11.87
8.84
6.64
5.41
5.18
5.8
7.07
8.65
10.23
11.43
11.98
11.71
10.56
8.6
5.99
2.92
-0.43
-3.9
-7.29
-10.46
-13.27
-15.71
-17.87
-19.83
-21.59
-22.88
-23.17
-21.87
-18.54
-13.11
-5.99
1.97
9.81
16.62
21.8
25.11
26.57
26.33
24.71
22.04
18.77
15.32
12.18
9.72
8.18
7.53
7.55
7.93
8.4
8.73
8.83
8.61
8.01
6.95
5.29
3.01
0.14
-3.13
-6.56
-9.8
-12.6
-14.88
-16.66
-18.19
-19.65
-21.18
-22.57
-23.32
-22.71
-20.09
-15.21
-8.2
0.2
8.99
17.16
23.94
28.9
31.94
33.1
32.54
30.54
27.44
23.68
19.8
16.25
13.34
11.17
9.63
8.58
7.9
7.54
7.46
7.56
7.58
7.18
6.06
4.04
1.1
-2.5
-6.45
-10.39
-14.0
-17.13
-19.71
-21.78
-23.49
-25.01
-26.45
-27.75
-28.58
-28.38
-26.57
-22.69
-16.75
-9.24
-1.03
6.93
13.83
19.2
22.92
25.09
25.84
25.39
23.93
21.8
19.4
17.15
15.35
14.14
13.49
13.2
13.08
12.95
12.71
12.33
11.85
11.26
10.56
9.71
8.59
7.12
5.22
2.98
0.54
-1.87
-4.01
-5.75
-7.05
-7.93
-8.55
-9.29
-10.35
-11.77
-13.43
-15.21
-17.09
-19.34
-22.47
-27.22
-34.5
-44.79
-57.97
-73.18
-88.86
-103.09
-113.82
-119.33
-118.5
-110.98
-97.16
-78.13
-55.47
-31.07
-6.91
15.27
34.1
48.83
59.25
65.72
68.73
68.91
66.99
63.49
58.82
53.37
47.53
41.68
36.16
31.17
26.73
22.87
19.47
16.36
13.4
10.44
7.52
4.81
2.69
1.69
2.33
4.8
8.96
14.31
19.97
25.11
29.01
31.32
31.98
31.21
29.22
26.26
22.6
18.58
14.67
11.27
8.72
7.13
6.37
6.16
6.17
6.16
6.0
5.66
5.02
4.02
2.55
0.59
-1.71
-4.17
-6.57
-8.82
-10.84
-12.74
-14.53
-16.22
-17.79
-19.22
-20.52
-21.74
-22.89
-23.73
-23.9
-22.87
-20.21
-15.81
-9.91
-3.06
3.94
10.33
15.55
19.25
21.34
21.87
20.97
18.78
15.52
11.57
7.41
3.64
0.68
-1.18
-2.01
-2.1
-1.78
-1.28
-0.67
-0.01
0.65
1.07
1.02
0.26
-1.26
-3.42
-6.0
-8.66
-11.12
-13.11
-14.51
-15.28
-15.56
-15.63
-15.86
-16.56
-17.76
-19.25
-20.4
-20.57
-19.15
-15.9
-11.01
-5.04
1.25
7.11
12.0
15.7
18.13
19.42
19.73
19.21
17.96
16.15
13.92
11.5
9.16
7.09
5.45
4.26
3.46
3.0
2.77
2.74
2.85
2.99
2.96
2.59
1.73
0.32
-1.52
-3.61
-5.77
-7.88
-9.84
-11.65
-13.34
-14.95
-16.56
-18.2
-19.9
-21.49
-22.68
-22.93
-21.73
-18.74
-13.93
-7.74
-0.87
5.83
11.69
16.27
19.42
21.15
21.54
20.69
18.78
16.11
13.09
10.23
7.97
6.61
6.21
6.62
7.56
8.7
9.73
10.42
10.67
10.42
9.72
8.57
6.97
4.87
2.22
-0.87
-4.2
-7.4
-10.15
-12.24
-13.7
-14.77
-15.76
-16.91
-18.2
-19.41
-20.07
-19.65
-17.74
-14.13
-8.9
-2.48
4.44
11.02
16.41
20.03
21.65
21.39
19.61
16.81
13.48
10.08
7.08
4.77
3.36
2.81
2.87
3.17
3.39
3.42
3.3
3.12
2.88
2.41
1.41
-0.37
-2.99
-6.22
-9.66
-12.82
-15.29
-16.85
-17.52
-17.56
-17.41
-17.6
-18.51
-20.25
-22.52
-24.59
-25.5
-24.39
-20.84
-15.07
-7.86
-0.32
6.45
11.7
15.1
16.73
16.91
16.06
14.52
12.54
10.34
8.07
5.88
3.97
2.49
1.6
1.35
1.75
2.66
3.82
4.82
5.19
4.51
2.63
-0.33
-3.99
-7.81
-11.35
-14.29
-16.62
-18.4
-19.82
-21.08
-22.26
-23.41
-24.32
-24.66
-23.87
-21.47
-17.17
-11.09
-3.81
3.85
10.97
16.81
20.91
23.15
23.65
22.64
20.48
17.53
14.19
10.83
7.78
5.35
3.68
2.85
2.76
3.28
4.19
5.23
6.07
6.47
6.21
5.22
3.55
1.39
-1.02
-3.48
-5.89
-8.2
-10.42
-12.49
-14.35
-15.97
-17.37
-18.64
-19.78
-20.64
-20.81
-19.79
-17.12
-12.59
-6.47
0.61
7.8
14.24
19.32
22.72
24.44
24.66
23.64
21.69
19.04
16.01
12.96
10.27
8.26
7.07
6.61
6.59
6.74
6.84
6.88
6.93
7.0
6.95
6.54
5.49
3.69
1.27
-1.48
-4.18
-6.56
-8.53
-10.15
-11.55
-12.84
-14.04
-15.06
-15.75
-15.86
-15.12
-13.24
-9.98
-5.33
0.44
6.73
12.77
17.82
21.38
23.37
23.94
23.46
22.17
20.32
18.02
15.42
12.76
10.32
8.34
6.96
6.23
6.0
6.05
6.08
5.82
5.05
3.7
1.86
-0.31
-2.59
-4.94
-7.32
-9.75
-12.18
-14.49
-16.51
-18.19
-19.57
-20.78
-21.89
-22.73
-22.93
-21.95
-19.35
-14.99
-9.14
-2.44
4.33
10.34
15.04
18.08
19.41
19.22
17.85
15.69
13.18
10.65
8.35
6.45
5.03
4.11
3.7
3.77
4.23
4.89
5.42
5.45
4.66
2.87
0.12
-3.31
-7.01
-10.63
-13.92
-16.89
-19.61
-22.22
-24.76
-27.16
-29.3
-30.9
-31.71
-31.39
-29.64
-26.22
-21.11
-14.6
-7.33
-0.13
6.18
11.0
14.11
15.64
15.9
15.31
14.22
12.82
11.22
9.51
7.76
6.12
4.76
3.78
3.33
3.43
4.01
4.92
5.94
6.81
7.24
7.08
6.19
4.58
2.35
-0.27
-2.91
-5.23
-6.94
-7.99
-8.63
-9.26
-10.28
-11.83
-13.65
-15.06
-15.26
-13.61
-9.91
-4.44
2.08
8.86
15.19
20.55
24.68
27.39
28.63
28.41
26.93
24.55
21.81
19.21
17.1
15.56
14.44
13.53
12.61
11.59
10.41
9.11
7.66
6.01
4.14
2.0
-0.3
-2.62
-4.81
-6.77
-8.52
-10.08
-11.59
-13.16
-14.95
-16.93
-19.01
-20.87
-22.04
-22.03
-20.45
-17.19
-12.45
-6.71
-0.55
5.41
10.67
14.89
17.83
19.39
19.59
18.52
16.41
13.56
10.29
6.9
3.68
0.88
-1.32
-2.81
-3.64
-3.95
-4.0
-4.03
-4.26
-4.82
-5.74
-7.01
-8.54
-10.24
-11.9
-13.4
-14.66
-15.73
-16.76
-17.92
-19.27
-20.68
-21.76
-22.02
-21.01
-18.48
-14.48
-9.41
-3.83
1.65
6.42
10.11
12.51
13.56
13.44
12.43
10.9
9.2
7.61
6.28
5.26
4.54
4.11
3.97
4.06
4.3
4.54
4.62
4.37
3.62
2.2
-0.04
-3.16
-7.04
-11.36
-15.6
-19.17
-21.74
-23.29
-24.09
-24.58
-25.06
-25.63
-26.04
-25.78
-24.29
-21.23
-16.56
-10.66
-4.16
2.15
7.58
11.66
14.17
15.27
15.23
14.42
13.16
11.65
10.03
8.4
6.87
5.58
4.68
4.26
4.28
4.62
5.0
5.18
4.92
4.16
2.91
1.3
-0.6
-2.63
-4.7
-6.74
-8.66
-10.32
-11.66
-12.72
-13.6
-14.47
-15.41
-16.28
-16.74
-16.28
-14.46
-11.08
-6.33
-0.72
5.01
10.21
14.43
17.44
19.24
19.91
19.62
18.48
16.72
14.57
12.38
10.5
9.16
8.5
8.44
8.78
9.27
9.68
9.83
9.63
9.08
8.1
6.68
4.78
2.43
-0.24
-3.04
-5.72
-8.09
-10.07
-11.74
-13.24
-14.76
-16.35
-17.84
-18.91
-19.07
-17.82
-14.84
-10.22
-4.38
1.93
7.87
12.81
16.41
18.64
19.71
19.86
19.21
17.93
16.07
13.85
11.6
9.67
8.29
7.54
7.32
7.42
7.68
7.94
8.09
8.03
7.6
6.62
4.99
2.76
0.11
-2.63
-5.22
-7.52
-9.49
-11.21
-12.87
-14.56
-16.29
-17.96
-19.3
-19.98
-19.59
-17.76
-14.24
-9.1
-2.69
4.36
11.29
17.61
22.89
26.92
29.62
30.97
30.77
28.69
24.27
17.1
7.02
-5.99
-21.8
-39.95
-59.67
-79.73
-98.44
-113.97
-124.45
-128.45
-125.28
-115.17
-99.16
-78.98
-56.58
-33.85
-12.38
6.67
22.5
34.64
42.93
47.61
49.01
47.8
44.85
40.96
36.88
33.24
30.61
29.46
30.08
32.31
35.67
39.45
42.88
45.34
46.51
46.4
45.19
43.12
40.36
37.15
33.71
30.34
27.38
25.13
23.78
23.24
23.31
23.67
24.05
24.29
24.27
23.99
23.42
22.56
21.31
19.67
17.61
15.24
12.77
10.45
8.53
7.12
6.24
5.68
5.27
4.84
4.4
4.15
4.39
5.47
7.64
11.1
15.78
21.67
28.55
36.23
44.47
53.04
61.7
70.11
77.85
84.31
88.78
90.61
89.37
85.09
78.28
69.85
60.88
52.44
45.26
39.71
35.85
33.54
32.73
33.4
35.57
39.07
43.43
47.69
50.6
50.86
47.35
39.55
27.44
11.57
-7.17
-27.61
-48.6
-69.02
-88.02
-105.14
-120.28
-133.61
-145.34
-155.26
-162.41
-165.11
-161.39
-149.79
-130.35
-105.04
-77.33
-51.3
-30.12
-15.01
-5.13
1.53
6.79
11.32
14.75
16.48
16.48
15.63
15.06
15.28
15.78
15.29
12.59
7.16
-0.73
-10.45
-21.54
-33.89
-47.21
-60.53
-72.03
-79.71
-82.3
-79.99
-74.06
-66.02
-56.72
-46.03
-33.42
-18.88
-3.41
11.28
23.82
34.01
43.0
52.38
63.04
74.4
84.79
92.55
97.06
98.75
98.22
95.13
88.07
75.64
57.99
37.57
18.45
4.25
-3.71
-6.78
-7.79
-8.95
-10.38
-10.28
-6.4
2.15
13.97
25.83
34.22
36.8
33.16
24.59
13.31
1.58
-8.71
-16.18
-20.08
-20.2
-16.97
-11.33
-4.68
1.43
5.67
7.29
6.38
3.8
0.76
-1.64
-2.76
-2.62
-1.81
-1.12
-1.27
-2.66
-5.19
-8.42
-11.76
-14.67
-17.02
-19.06
-21.45
-24.94
-30.26
-38.01
-48.6
-62.17
-78.38
-96.42
-114.88
-132.33
-147.59
-160.11
-169.79
-176.74
-180.74
-181.32
-178.11
-171.3
-162.06
-152.0
-142.35
-133.21
-123.22
-110.34
-92.85
-70.36
-44.19
-16.91
8.48
29.38
43.91
51.02
50.26
41.87
27.01
7.94
-12.08
-29.46
-40.97
-44.82
-40.86
-30.7
-17.1
-3.04
9.27
18.84
25.92
31.63
37.0
42.7
48.67
54.43
59.5
63.8
67.79
72.24
77.82
84.49
91.52
97.41
100.56
99.82
94.86
86.32
75.43
63.56
51.72
40.41
29.77
19.75
10.43
1.96
-5.47
-11.89
-17.42
-22.25
-26.39
-29.73
-32.15
-33.69
-34.77
-36.05
-38.31
-42.14
-47.76
-54.96
-63.12
-71.28
-78.23
-82.78
-83.91
-81.01
-73.95
-62.92
-48.36
-30.6
-9.86
13.69
39.59
66.97
94.5
120.7
144.3
164.52
181.16
194.28
203.79
209.3
210.14
205.85
196.56
183.26
167.59
151.26
135.67
121.42
108.37
95.88
83.22
69.74
55.15
39.52
23.28
7.21
-7.8
-20.91
-31.6
-39.82
-46.07
-51.07
-55.62
-60.19
-64.85
-69.22
-72.72
-74.6
-74.2
-71.13
-65.34
-57.31
-47.91
-38.34
-29.7
-22.87
-18.18
-15.43
-14.07
-13.36
-12.67
-11.55
-9.82
-7.4
-4.41
-0.96
2.83
6.96
11.48
16.3
21.28
26.01
29.98
32.66
33.68
33.03
31.04
28.36
25.57
23.22
21.51
20.38
19.65
19.05
18.44
17.85
17.54
17.89
19.39
22.45
27.25
33.65
41.16
49.04
56.4
62.56
67.08
69.88
71.09
70.82
69.0
65.24
59.09
50.34
39.32
27.15
15.52
6.09
-0.17
-3.54
-5.76
-9.61
-18.0
-32.81
-53.92
-78.86
-103.43
-122.98
-134.15
-135.92
-129.71
-118.45
-105.08
-91.35
-77.35
-61.83
-43.02
-19.43
9.73
44.28
82.71
121.61
155.56
178.25
184.67
173.44
147.85
114.77
81.89
54.69
34.68
20.05
8.13
-2.19
-9.71
-12.19
-8.82
-1.86
3.61
1.83
-10.96
-34.78
-65.94
-98.48
-126.16
-144.25
-150.31
-144.28
-127.9
-103.89
-75.06
-43.79
-11.51
21.11
53.73
85.61
115.33
141.07
161.45
176.08
185.55
190.89
192.74
190.96
184.98
174.5
160.25
144.05
128.24
114.77
104.45
96.76
90.3
83.63
75.94
67.15
57.69
47.91
37.66
26.47
13.72
-0.95
-17.39
-35.06
-53.14
-70.85
-87.83
-104.29
-120.95
-138.75
-158.25
-179.04
-199.66
-217.97
-232.06
-241.08
-245.39
-246.17
-244.63
-241.49
-236.76
-230.44
-223.17
-216.58
-212.9
-213.66
-218.55
-224.77
-227.75
-222.7
-206.77
-180.18
-146.33
-110.4
-77.39
-50.55
-30.85
-17.56
-9.38
-5.4
-5.14
-8.26
-13.93
-20.7
-26.83
-30.83
-31.96
-30.47
-27.37
-24.0
-21.38
-19.97
-19.51
-19.41
-19.08
-18.24
-17.01
-15.66
-14.45
-13.36
-12.24
-10.83
-9.17
-7.55
-6.55
-6.67
-8.03
-10.16
-11.97
-12.11
-9.35
-3.04
6.67
18.84
32.06
44.73
55.45
63.28
67.77
68.9
67.13
63.11
57.7
51.74
45.94
40.83
36.73
33.71
31.63
30.16
28.83
27.17
24.84
21.78
18.22
14.62
11.47
9.11
7.58
6.64
5.83
4.75
3.07
0.65
-2.47
-6.22
-10.38
-14.61
-18.25
-20.42
-20.03
-16.23
-8.67
2.25
15.32
28.82
40.95
50.27
55.94
57.82
56.27
51.91
45.46
37.65
29.27
20.92
12.99
5.4
-2.28
-10.54
-19.55
-28.75
-37.0
-42.92
-45.57
-44.83
-41.46
-36.82
-32.39
-29.33
-28.14
-28.54
-29.59
-29.96
-28.5
-24.77
-19.36
-13.5
-8.34
-4.2
-0.3
4.71
11.93
21.45
32.2
42.49
50.92
56.86
60.43
62.05
61.85
59.53
54.51
46.41
35.35
22.12
8.07
-5.08
-15.5
-21.56
-22.29
-17.6
-8.37
3.76
16.87
29.15
39.38
47.08
52.39
55.78
57.81
58.77
58.69
57.41
54.8
50.94
46.2
41.09
36.13
31.85
28.87
28.14
30.82
37.9
49.66
65.06
81.82
96.97
107.82
112.71
111.35
104.61
93.98
81.09
67.59
55.01
44.84
38.2
35.6
36.64
40.12
44.46
48.36
51.16
52.92
54.04
54.85
55.25
54.65
52.43
48.15
41.87
33.87
24.5
13.8
1.55
-12.48
-28.21
-44.9
-61.2
-75.32
-85.42
-90.09
-88.64
-81.34
-69.42
-54.72
-39.3
-24.95
-12.98
-4.13
1.33
3.38
2.28
-1.58
-7.51
-14.61
-21.9
-28.47
-33.73
-37.44
-39.69
-40.81
-41.3
-41.68
-42.4
-43.83
-46.06
-49.04
-52.52
-56.18
-59.7
-62.91
-65.8
-68.54
-71.44
-74.79
-78.68
-82.86
-86.55
-88.52
-87.33
-81.85
-71.64
-57.29
-40.33
-22.75
-6.52
7.0
17.14
23.87
27.51
28.47
27.19
24.13
19.84
15.03
10.47
6.83
4.52
3.57
3.67
4.21
4.62
4.43
3.44
1.73
-0.51
-3.09
-5.95
-9.14
-12.76
-16.87
-21.39
-26.18
-31.08
-35.96
-40.72
-45.08
-48.5
-50.09
-48.81
-43.89
-35.16
-23.25
-9.44
4.66
17.63
28.45
36.67
42.15
44.96
45.27
43.32
39.49
34.38
28.7
23.16
18.37
14.7
12.26
10.9
10.18
9.56
8.52
6.77
4.25
1.2
-2.1
-5.4
-8.62
-11.97
-15.71
-20.15
-25.37
-31.29
-37.4
-42.84
-46.43
-47.01
-43.67
-36.12
-24.84
-11.08
3.52
17.29
28.96
37.79
43.55
46.39
46.61
44.55
40.52
34.96
28.38
21.48
15.03
9.76
6.15
4.29
3.86
4.17
4.52
4.27
3.11
0.98
-1.92
-5.38
-9.17
-13.21
-17.46
-22.0
-27.01
-32.64
-38.96
-45.65
-51.87
-56.33
-57.5
-54.1
-45.55
-32.3
-15.67
2.43
20.05
35.61
48.09
57.01
62.35
64.33
63.29
59.75
54.3
47.69
40.72
34.17
28.64
24.42
21.5
19.52
17.96
16.28
14.1
11.26
7.84
4.11
0.24
-3.64
-7.61
-11.81
-16.42
-21.5
-27.08
-33.17
-39.65
-46.16
-51.94
-55.75
-56.1
-51.74
-42.06
-27.52
-9.57
9.68
28.04
43.72
55.56
63.15
66.63
66.58
63.79
59.11
53.41
47.37
41.52
36.22
31.67
27.99
25.26
23.47
22.5
22.06
21.6
20.5
18.2
14.36
8.98
2.38
-4.92
-12.36
-19.48
-26.1
-32.27
-38.12
-43.91
-49.79
-55.66
-61.04
-64.98
-66.1
-63.02
-54.74
-41.11
-23.06
-2.43
18.48
37.45
52.84
63.86
70.43
73.04
72.39
69.24
64.39
58.64
52.82
47.65
43.68
41.1
39.74
39.15
38.86
38.5
37.92
37.13
36.13
34.8
32.86
29.96
25.79
20.28
13.64
6.33
-1.09
-8.11
-14.39
-19.87
-24.86
-29.86
-35.39
-41.73
-48.63
-55.16
-59.81
-60.92
-57.12
-47.95
-33.97
-16.71
1.75
19.34
34.48
46.23
54.35
59.09
60.85
60.13
57.36
53.01
47.68
42.07
36.95
32.91
30.25
28.87
28.33
27.99
27.32
26.03
24.14
21.85
19.32
16.53
13.21
9.02
3.74
-2.55
-9.47
-16.44
-22.87
-28.45
-33.14
-37.21
-40.99
-44.81
-48.93
-53.41
-58.15
-62.54
-65.65
-66.14
-62.73
-54.59
-41.73
-25.17
-6.71
11.51
27.64
40.44
49.46
54.9
57.24
57.05
54.81
51.0
46.07
40.67
35.47
31.13
28.06
26.32
25.66
25.59
25.67
25.55
25.06
24.17
22.88
21.08
18.58
15.1
10.48
4.67
-2.14
-9.6
-17.23
-24.55
-31.23
-37.07
-42.02
-46.16
-49.65
-52.8
-55.98
-59.45
-63.16
-66.52
-68.39
-67.3
-62.02
-52.01
-37.77
-20.77
-2.94
13.8
28.04
39.0
46.44
50.46
51.31
49.44
45.48
40.31
34.89
30.1
26.5
24.3
23.38
23.39
23.85
24.33
24.46
23.97
22.85
21.19
19.14
16.75
13.84
10.1
5.18
-0.96
-8.03
-15.43
-22.43
-28.49
-33.44
-37.47
-40.93
-44.24
-47.65
-51.3
-55.21
-59.14
-62.52
-64.39
-63.54
-58.78
-49.48
-35.89
-19.2
-1.29
15.77
30.28
41.21
48.25
51.66
52.0
49.87
45.87
40.64
34.87
29.33
24.77
21.67
20.02
19.44
19.25
18.87
17.97
16.65
15.16
13.75
12.48
11.13
9.25
6.48
2.56
-2.44
-8.25
-14.45
-20.6
-26.35
-31.51
-36.13
-40.42
-44.75
-49.46
-54.68
-60.12
-64.96
-68.01
-67.93
-63.66
-54.81
-41.94
-26.31
-9.69
6.12
19.72
30.21
37.22
40.86
41.46
39.46
35.42
30.06
24.18
18.7
14.42
11.84
11.1
11.88
13.59
15.51
17.11
18.08
18.39
18.07
17.07
15.13
11.96
7.35
1.26
-5.91
-13.53
-20.84
-27.22
-32.43
-36.64
-40.26
-43.79
-47.69
-52.03
-56.5
-60.16
-61.81
-60.09
-54.08
-43.58
-29.35
-12.86
4.06
19.66
32.74
42.66
49.31
52.8
53.4
51.38
47.25
41.7
35.62
29.87
25.18
21.86
19.77
18.52
17.62
16.79
15.99
15.33
14.89
14.54
13.85
12.24
9.24
4.67
-1.23
-7.93
-14.79
-21.26
-27.02
-31.96
-36.19
-39.95
-43.61
-47.59
-52.1
-56.94
-61.29
-63.8
-62.94
-57.48
-47.11
-32.58
-15.56
1.85
17.71
30.7
40.19
46.14
48.81
48.48
45.57
40.52
34.02
26.93
20.18
14.56
10.61
8.44
7.72
7.93
8.4
8.66
8.46
7.84
6.99
6.05
4.97
3.41
1.03
-2.41
-6.81
-11.79
-16.86
-21.58
-25.8
-29.68
-33.52
-37.67
-42.33
-47.56
-53.04
-58.17
-61.87
-62.84
-59.85
-52.16
-39.89
-24.11
-6.6
10.7
26.09
38.52
47.54
53.14
55.55
55.01
51.94
46.94
40.9
34.87
29.86
26.49
25.01
25.16
26.38
28.02
29.48
30.38
30.59
30.13
29.05
27.29
24.64
20.8
15.51
8.84
1.24
-6.57
-13.79
-19.85
-24.62
-28.39
-31.78
-35.38
-39.66
-44.7
-50.06
-54.83
-57.71
-57.32
-52.69
-43.62
-30.72
-15.31
0.89
16.23
29.42
39.73
46.84
50.79
51.74
50.04
46.18
40.82
34.77
28.92
23.99
20.39
18.07
16.62
15.57
14.54
13.48
12.52
11.82
11.28
10.53
9.08
6.46
2.48
-2.68
-8.57
-14.61
-20.29
-25.31
-29.56
-33.17
-36.44
