-15.0
-7.64
-0.59
5.72
10.98
14.99
17.55
18.59
18.17
16.56
14.26
11.82
9.65
7.92
6.59
5.49
4.49
3.59
2.86
2.41
2.31
2.52
2.86
3.13
3.16
2.85
2.2
1.27
0.12
-1.23
-2.77
-4.51
-6.38
-8.26
-10.06
-11.74
-13.36
-14.94
-16.43
-17.58
-17.91
-16.97
-14.43
-10.29
-4.89
1.26
7.56
13.51
18.75
23.19
26.87
30.02
32.97
36.01
39.36
43.06
46.97
50.81
54.29
57.08
59.04
60.1
60.29
59.64
58.22
56.07
53.31
50.05
46.38
42.35
37.92
33.01
27.57
21.57
15.14
8.61
2.4
-2.94
-6.98
-9.36
-9.94
-8.75
-6.06
-2.39
1.66
5.46
8.54
10.71
12.11
13.01
13.58
13.54
12.1
8.18
1.01
-9.52
-22.57
-36.6
-49.78
-60.51
-67.7
-70.79
-69.76
-65.03
-57.53
-48.42
-39.03
-30.48
-23.36
-17.61
-12.67
-7.76
-2.13
4.7
12.9
22.31
32.33
41.93
49.85
54.86
56.31
54.49
50.58
46.13
42.33
39.35
36.5
32.66
26.94
19.09
9.47
-1.57
-13.92
-27.64
-42.53
-57.56
-71.08
-81.46
-87.98
-91.19
-92.55
-93.54
-94.84
-96.21
-97.07
-97.39
-98.11
-100.73
-106.32
-114.71
-124.14
-131.89
-135.41
-133.37
-126.01
-114.83
-101.89
-88.94
-76.97
-66.03
-55.39
-43.99
-30.81
-15.29
2.63
22.38
42.97
63.25
82.14
98.74
112.31
122.26
128.07
129.45
126.61
120.28
111.74
102.44
93.63
86.07
79.98
75.06
70.89
67.11
63.6
60.35
57.32
54.36
51.22
47.72
43.81
39.72
35.78
32.34
29.62
27.58
26.05
24.84
23.75
22.73
21.89
21.48
21.79
23.2
25.95
30.08
35.4
41.38
47.41
52.98
57.78
61.7
64.85
67.19
68.71
69.35
69.23
68.67
68.14
68.07
68.69
69.92
71.34
72.26
71.88
69.43
64.23
55.94
44.67
31.09
16.24
1.26
-13.15
-27.04
-41.18
-56.81
-75.04
-96.35
-120.27
-145.31
-169.25
-189.43
-203.31
-208.85
-204.8
-190.97
-168.27
-138.66
-104.81
-69.65
-35.64
-4.46
23.28
47.86
69.92
90.01
108.11
123.74
136.1
144.48
148.36
147.45
141.78
131.86
118.83
104.21
89.43
75.31
61.62
47.53
32.08
14.83
-4.01
-23.81
-44.2
-65.2
-87.04
-109.69
-132.4
-153.96
-173.31
-190.02
-204.19
-215.92
-224.55
-228.55
-226.13
-216.0
-198.27
-174.28
-146.32
-116.54
-86.57
-57.39
-29.8
-4.84
16.29
32.48
43.35
49.33
51.56
51.42
50.12
48.54
47.27
46.94
48.18
51.53
57.13
64.33
71.94
78.49
82.7
83.73
81.39
75.82
67.32
56.23
42.83
27.68
11.59
-4.3
-19.03
-32.1
-43.85
-55.23
-67.32
-80.67
-94.86
-108.73
-120.81
-130.02
-135.97
-138.81
-138.83
-136.07
-130.5
-122.14
-111.56
-99.74
-87.59
-75.28
-62.02
-46.06
-25.57
0.37
31.12
64.26
96.15
122.93
141.68
151.08
151.83
146.36
138.17
131.13
128.51
132.39
143.12
159.24
177.86
195.41
208.45
214.32
211.36
198.65
175.81
142.86
100.56
51.0
-2.05
-53.53
-98.23
-132.27
-154.34
-165.68
-169.14
-167.61
-163.0
-156.1
-147.32
-137.65
-128.78
-122.48
-119.35
-118.25
-116.54
-111.51
-101.76
-87.91
-72.32
-57.97
-47.38
-41.9
-41.55
-45.06
-50.33
-54.89
-56.48
-53.93
-47.7
-39.66
-32.29
-27.58
-26.06
-26.66
-27.2
-25.49
-20.43
-12.53
-3.63
4.0
8.89
11.31
13.51
18.84
30.17
48.13
70.45
92.8
110.85
122.36
128.09
130.84
133.26
135.94
136.97
133.31
123.08
107.03
88.59
72.24
61.14
55.91
54.66
54.57
53.4
50.36
45.93
40.98
35.99
30.71
24.38
16.45
7.02
-2.97
-11.95
-18.21
-20.66
-19.13
-14.57
-8.68
-3.27
0.22
1.17
-0.2
-3.09
-6.64
-10.13
-13.19
-15.68
-17.6
-18.93
-19.68
-19.88
-19.67
-19.35
-19.33
-19.97
-21.51
-23.87
-26.71
-29.38
-31.22
-31.66
-30.43
-27.53
-23.27
-18.05
-12.3
-6.3
-0.22
5.79
11.57
16.8
21.1
24.04
25.21
24.37
21.51
16.95
11.37
5.86
1.5
-0.86
-1.09
0.1
1.47
1.7
-0.02
-3.63
-8.28
-12.74
-16.0
-17.54
-17.48
-16.24
-14.44
-12.63
-11.24
-10.56
-10.69
-11.53
-12.54
-12.93
-11.65
-7.87
-1.32
7.6
17.73
27.55
35.49
40.4
41.62
38.98
32.56
22.71
10.18
-3.7
-16.82
-26.58
-30.55
-27.57
-18.4
-5.86
6.02
13.47
14.53
9.88
2.17
-5.27
-10.14
-12.48
-14.67
-20.35
-32.51
-52.04
-77.07
-103.54
-126.1
-139.32
-138.92
-123.0
-93.35
-55.85
-19.27
7.51
19.03
16.43
7.82
5.3
19.92
56.89
113.7
182.09
251.83
314.34
365.08
403.42
431.08
450.96
465.99
478.09
487.72
493.03
488.97
469.35
429.53
368.91
292.22
207.92
124.75
48.6
-19.26
-82.85
-148.76
-223.29
-310.25
-409.52
-517.53
-628.51
-735.78
-824.37
-878.76
-886.22
-841.93
-751.72
-629.82
-493.89
-360.01
-239.28
-137.2
-55.82
5.48
48.81
76.98
93.74
103.45
110.46
118.67
130.97
147.92
167.99
189.77
209.09
221.48
222.72
209.18
178.41
130.29
67.65
-3.26
-73.85
-135.78
-183.01
-213.49
-228.98
-233.12
-229.07
-218.41
-200.96
-176.16
-144.42
-107.02
-66.25
-24.65
15.98
54.7
90.69
122.88
149.77
169.84
182.43
188.4
190.0
190.23
192.04
197.42
207.04
220.2
235.05
249.43
261.57
270.72
277.39
283.1
289.6
297.97
307.98
318.01
325.95
330.07
329.8
325.43
317.37
305.25
287.56
261.86
225.34
175.94
113.08
38.57
-43.1
-125.19
-200.03
-260.67
-302.76
-325.45
-331.08
-323.93
-308.56
-288.59
-266.54
-244.23
-223.3
-205.24
-191.01
-180.57
-172.94
-166.46
-159.55
-151.34
-142.01
-132.65
-124.77
-119.41
-116.7
-115.63
-114.29
-110.61
-103.14
-91.41
-76.11
-58.68
-40.7
-23.55
-8.09
5.33
16.66
25.91
33.05
37.94
40.46
40.59
38.49
34.55
29.28
23.25
17.04
11.25
6.52
3.48
2.66
4.14
7.57
12.17
16.94
21.07
24.08
25.84
26.38
25.79
24.07
21.31
17.75
13.74
9.71
5.87
2.13
-1.8
-6.2
-11.23
-16.6
-21.77
-25.95
-28.41
-28.74
-26.87
-23.18
-18.3
-12.92
-7.57
-2.53
2.19
6.76
11.31
15.77
19.92
23.39
25.88
27.27
27.59
27.03
25.93
24.61
23.36
22.35
21.6
20.99
20.41
19.73
18.87
17.85
16.63
15.17
13.34
10.99
8.1
4.88
1.69
-1.06
-3.18
-4.77
-6.17
-7.82
-9.99
-12.63
-15.23
-17.01
-17.15
-15.13
-10.9
-4.95
1.85
8.52
14.24
18.5
21.0
21.72
20.71
18.18
14.55
10.41
6.51
3.52
1.92
1.87
3.33
6.03
9.49
13.09
16.06
17.65
17.34
15.03
11.05
6.01
0.55
-4.97
-10.31
-15.32
-19.6
-22.7
-24.23
-24.18
-22.98
-21.44
-20.33
-19.9
-19.84
-19.26
-17.28
-13.42
-7.75
-0.89
6.26
12.91
18.48
22.63
25.21
26.14
25.45
23.4
20.49
17.38
14.79
13.14
12.45
12.42
12.55
12.44
11.9
10.99
9.86
8.7
7.5
6.09
4.24
1.75
-1.47
-5.32
-9.57
-13.97
-18.18
-22.04
-25.55
-28.7
-31.59
-34.16
-36.18
-37.22
-36.76
-34.26
-29.47
-22.5
-13.82
-4.29
5.14
13.57
20.31
25.05
27.77
28.7
28.26
26.86
24.86
22.58
20.23
17.93
15.73
13.68
11.89
10.5
9.64
9.28
9.23
9.16
8.57
7.06
4.43
0.82
-3.34
-7.42
-10.86
-13.29
-14.69
-15.41
-16.04
-17.24
-19.46
-22.67
-26.28
-29.26
-30.41
-28.87
-24.32
-17.16
-8.44
0.57
8.67
15.12
19.69
22.6
24.18
24.8
24.66
23.82
22.35
20.4
18.24
16.19
14.58
13.57
13.19
13.3
13.67
14.08
14.35
14.36
14.01
13.21
11.83
9.74
6.84
3.14
-1.12
-5.51
-9.52
-12.79
-15.21
-17.1
-18.91
-21.03
-23.42
-25.49
-26.33
-25.06
-21.27
-15.18
-7.63
0.36
7.94
14.61
20.23
24.8
28.31
30.62
31.57
31.13
29.52
27.19
24.74
22.67
21.28
20.55
20.26
19.99
19.44
18.44
17.1
15.65
14.33
13.25
12.25
11.02
9.23
6.74
3.65
0.31
-2.89
-5.71
-8.15
-10.47
-13.01
-16.09
-19.79
-23.97
-28.24
-32.03
-34.67
-35.5
-34.06
-30.22
-24.22
-16.66
-8.29
0.12
7.91
14.63
20.02
23.9
26.17
26.81
25.93
23.88
21.17
18.42
16.16
14.68
13.95
13.72
13.69
13.61
13.38
12.97
12.31
11.26
9.6
7.2
4.16
0.8
-2.53
-5.53
-8.05
-10.1
-11.76
-13.19
-14.5
-15.8
-17.22
-18.95
-21.05
-23.35
-25.39
-26.5
-26.04
-23.64
-19.31
-13.47
-6.76
0.14
6.72
12.61
17.62
21.6
24.37
25.73
25.53
23.76
20.71
16.93
13.17
10.09
8.07
7.07
6.76
6.73
6.7
6.64
6.61
6.73
6.93
7.03
6.76
5.96
4.62
2.8
0.68
-1.64
-4.03
-6.45
-8.82
-11.11
-13.32
-15.49
-17.73
-20.11
-22.57
-24.91
-26.72
-27.39
-26.43
-23.54
-18.78
-12.6
-5.74
1.01
7.02
11.89
15.54
17.95
19.11
19.04
17.73
15.35
12.27
9.01
6.13
4.04
2.89
2.53
2.69
3.01
3.24
3.23
2.92
2.3
1.4
0.22
-1.24
-2.96
-4.97
-7.25
-9.77
-12.42
-14.98
-17.19
-18.82
-19.84
-20.36
-20.67
-21.01
-21.5
-22.04
-22.3
-21.84
-20.23
-17.25
-12.93
-7.51
-1.36
5.1
11.43
17.26
22.25
26.08
28.5
29.33
28.57
26.38
23.11
19.15
14.99
11.05
7.63
4.9
2.85
1.39
0.38
-0.26
-0.63
-0.8
-0.94
-1.33
-2.24
-3.87
-6.18
-8.92
-11.68
-14.03
-15.77
-16.96
-17.79
-18.5
-19.29
-20.26
-21.47
-22.94
-24.53
-26.01
-26.97
-26.9
-25.38
-22.24
-17.61
-11.98
-5.94
-0.07
5.14
9.41
12.61
14.59
15.22
14.43
12.29
9.17
5.71
2.65
0.56
-0.35
-0.37
-0.05
0.08
-0.24
-0.89
-1.6
-2.11
-2.33
-2.41
-2.63
-3.21
-4.2
-5.5
-6.87
-8.12
-9.2
-10.15
-11.15
-12.43
-14.13
-16.32
-18.97
-21.93
-24.95
-27.74
-29.9
-30.95
-30.44
-28.06
-23.82
-18.03
-11.31
-4.34
2.19
7.7
11.84
14.4
15.44
15.12
13.82
11.98
10.06
8.42
7.22
6.6
6.47
6.75
7.23
7.77
8.25
8.66
9.14
9.83
10.84
12.03
13.14
13.71
13.38
11.96
9.57
6.63
3.66
1.07
-1.02
-2.77
-4.53
-6.67
-9.36
-12.52
-15.85
-18.93
-21.24
-22.34
-21.85
-19.58
-15.69
-10.51
-4.74
0.85
5.52
8.85
10.72
11.23
10.6
9.04
6.78
4.13
1.51
-0.61
-1.73
-1.61
-0.32
1.76
4.07
6.12
7.56
8.26
8.22
7.5
6.07
3.89
0.95
-2.6
-6.45
-10.22
-13.55
-16.24
-18.3
-19.86
-21.06
-22.03
-22.88
-23.69
-24.51
-25.25
-25.64
-25.25
-23.61
-20.39
-15.57
-9.52
-2.88
3.62
9.37
13.98
17.31
19.43
20.45
20.48
19.6
17.92
15.69
13.31
11.24
9.9
9.52
9.99
10.98
12.04
12.81
13.07
12.8
11.99
10.62
8.71
6.25
3.42
0.52
-2.13
-4.27
-5.89
-7.09
-8.08
-9.05
-10.17
-11.63
-13.58
-16.14
-19.22
-22.46
-25.18
-26.59
-26.03
-23.19
-18.23
-11.7
-4.35
3.07
9.96
15.93
20.76
24.36
26.67
27.73
27.61
26.44
24.49
22.0
19.3
16.68
14.43
12.76
11.73
11.29
11.19
11.16
10.96
10.44
9.58
8.47
7.14
5.59
3.79
1.63
-0.85
-3.57
-6.36
-9.05
-11.47
-13.53
-15.21
-16.61
-17.97
-19.51
-21.46
-23.82
-26.29
-28.29
-29.18
-28.4
-25.72
-21.36
-15.84
-9.88
-4.16
0.85
4.93
8.06
10.36
12.01
13.11
13.71
13.85
13.54
12.92
12.13
11.39
10.92
10.84
11.12
11.65
12.24
12.7
12.95
12.92
12.65
12.12
11.27
10.0
8.19
5.83
2.99
-0.1
-3.17
-5.96
-8.32
-10.29
-12.04
-13.84
-15.95
-18.48
-21.3
-24.03
-26.09
-26.81
-25.66
-22.34
-16.91
-9.87
-1.95
5.99
13.21
19.15
23.51
26.23
27.4
27.21
25.89
23.81
21.4
19.16
17.44
16.5
16.24
16.41
16.62
16.47
15.75
14.51
13.0
11.55
10.42
9.66
9.11
8.49
7.46
5.85
3.62
0.89
-2.09
-5.11
-7.98
-10.58
-12.84
-14.83
-16.68
-18.55
-20.68
-23.08
-25.55
-27.56
-28.41
-27.4
-24.17
-18.88
-12.19
-5.07
1.64
7.35
11.83
15.09
17.21
18.27
18.34
17.57
16.24
14.76
13.49
12.66
12.3
12.27
12.37
12.42
12.26
11.88
11.36
10.77
10.12
9.43
8.59
7.51
6.14
4.5
2.65
0.71
-1.29
-3.33
-5.3
-7.12
-8.68
-9.92
-10.98
-12.16
-13.8
-16.18
-19.26
-22.64
-25.61
-27.33
-27.07
-24.49
-19.72
-13.33
-6.21
0.75
6.8
11.55
14.88
16.92
17.89
17.98
17.41
16.33
14.95
13.44
12.04
10.94
10.34
10.24
10.53
11.01
11.36
11.41
11.04
10.3
9.32
8.28
7.2
6.07
4.75
3.09
0.97
-1.62
-4.56
-7.61
-10.49
-12.97
-14.95
-16.54
-17.99
-19.57
-21.47
-23.63
-25.72
-27.19
-27.39
-25.85
-22.34
-17.0
-10.26
-2.8
4.63
11.36
16.82
20.65
22.75
23.2
22.33
20.53
18.17
15.59
13.11
10.95
9.37
8.5
8.36
8.82
9.55
10.23
10.55
10.46
10.07
9.59
9.18
8.83
8.42
7.62
6.15
3.8
0.61
-3.14
-7.01
-10.53
-13.44
-15.63
-17.32
-18.84
-20.56
-22.68
-25.14
-27.6
-29.5
-30.25
-29.32
-26.41
-21.61
-15.35
-8.27
-1.13
5.45
11.05
15.48
18.67
20.68
21.58
21.5
20.61
19.18
17.48
15.79
14.28
13.05
12.12
11.42
10.96
10.73
10.69
10.83
11.09
11.31
11.3
10.88
9.87
8.25
6.1
3.58
0.87
-1.88
-4.56
-7.09
-9.38
-11.45
-13.34
-15.2
-17.24
-19.65
-22.46
-25.5
-28.3
-30.22
-30.54
-28.68
-24.43
-18.06
-10.27
-2.03
5.73
12.34
17.48
21.06
23.13
23.73
22.95
20.95
18.03
14.74
11.64
9.23
7.77
7.2
7.31
7.76
8.27
8.62
8.78
8.76
8.57
8.15
7.33
6.0
4.06
1.63
-1.05
-3.66
-5.94
-7.77
-9.21
-10.5
-11.85
-13.51
-15.54
-18.01
-20.85
-23.93
-26.88
-29.15
-30.05
-28.92
-25.44
-19.66
-12.23
-4.05
3.79
10.47
15.57
18.99
20.91
21.57
21.19
19.93
17.98
15.62
13.26
11.36
10.27
10.04
10.48
11.18
11.76
11.94
11.66
10.97
9.94
8.59
6.88
4.82
2.47
-0.04
-2.55
-4.99
-7.27
-9.37
-11.27
-12.97
-14.53
-16.13
-17.99
-20.27
-22.93
-25.62
-27.75
-28.68
-27.88
-25.09
-20.44
-14.38
-7.55
-0.69
5.55
10.68
14.48
16.99
18.37
18.85
18.63
17.84
16.58
14.98
13.29
11.83
10.95
10.77
11.18
11.83
12.34
12.41
11.97
11.14
10.14
9.12
8.01
6.57
4.58
1.94
-1.2
-4.49
-7.65
-10.5
-13.09
-15.59
-18.19
-20.97
-23.87
-26.79
-29.47
-31.67
-32.96
-32.85
-30.84
-26.72
-20.64
-13.27
-5.55
1.65
7.73
12.45
15.87
18.19
19.55
20.09
19.9
19.13
18.07
17.1
16.58
16.75
17.6
19.01
20.67
22.24
23.42
24.12
24.34
24.18
23.62
22.54
20.76
18.2
14.88
11.04
7.02
3.03
-0.82
-4.67
-8.66
-12.95
-17.63
-22.71
-28.08
-33.47
-38.41
-42.2
-44.1
-43.54
-40.33
-34.8
-27.69
-19.86
-12.21
-5.39
0.22
4.46
7.26
8.58
8.41
6.82
4.08
0.69
-2.53
-4.83
-5.74
-5.14
-3.08
0.57
6.07
13.49
22.04
29.81
34.11
32.53
24.25
10.49
-5.84
-21.59
-34.47
-43.84
-50.37
-55.49
-60.8
-68.16
-79.87
-98.4
-125.39
-160.16
-199.11
-236.23
-265.19
-281.62
-284.55
-276.18
-260.14
-239.49
-215.61
-188.58
-158.31
-125.69
-92.69
-61.33
-32.7
-6.21
19.86
47.36
77.07
108.32
139.2
167.3
190.56
207.84
219.19
225.35
227.29
225.69
220.65
211.99
199.46
183.29
164.08
142.71
119.92
96.26
72.39
49.31
28.47
11.32
-1.32
-9.57
-14.36
-16.98
-18.57
-19.76
-20.78
-21.59
-22.01
-21.78
-20.52
-17.77
-13.22
-6.9
0.7
8.56
15.47
20.26
22.15
21.03
17.49
12.79
8.47
6.03
6.38
9.58
14.78
20.53
25.42
28.67
30.51
32.09
35.0
40.48
48.9
59.49
70.61
80.28
86.85
89.61
88.95
86.12
82.81
80.39
79.58
80.09
80.98
81.13
79.84
77.16
73.8
70.85
69.05
68.4
67.89
65.69
59.77
48.72
32.37
12.02
-9.91
-30.91
-49.36
-65.24
-80.06
-96.18
-115.89
-140.54
-170.06
-202.48
-233.88
-258.67
-270.68
-264.97
-239.69
-197.3
-144.1
-88.27
-37.05
5.24
37.97
63.02
82.88
99.15
111.99
120.78
125.11
125.42
122.93
119.24
115.68
112.96
111.29
110.68
111.13
112.71
115.42
118.9
122.38
124.8
125.05
122.32
116.29
107.2
95.51
81.83
66.65
50.35
33.29
15.91
-1.27
-17.67
-32.7
-45.91
-56.96
-65.73
-72.31
-76.98
-80.26
-82.73
-84.94
-87.21
-89.53
-91.61
-93.08
-93.74
-93.59
-92.95
-92.23
-91.77
-91.67
-91.74
-91.47
-90.29
-87.7
-83.25
-76.8
-68.45
-58.59
-47.93
-37.28
-27.39
-18.79
-11.72
-6.09
-1.81
1.26
3.18
3.97
3.77
2.8
1.4
-0.11
-1.48
-2.61
-3.45
-3.91
-3.96
-3.62
-3.03
-2.55
-2.6
-3.49
-5.42
-8.38
-12.19
-16.69
-21.68
-26.97
-32.34
-37.51
-42.24
-46.46
-50.25
-53.73
-56.84
-59.11
-59.76
-57.91
-53.06
-45.31
-35.5
-24.92
-14.97
-6.8
-1.08
2.02
2.7
1.4
-1.38
-5.11
-9.23
-13.31
-17.05
-20.22
-22.72
-24.39
-25.05
-24.49
-22.41
-18.48
-12.45
-4.37
5.28
15.48
24.89
32.08
36.17
37.12
35.85
33.97
33.07
34.15
37.29
41.78
46.4
50.01
51.84
51.64
49.71
46.85
44.22
43.07
44.49
48.94
55.99
64.37
72.29
78.03
80.53
79.64
75.84
69.79
61.84
51.82
39.17
23.49
5.05
-14.98
-34.82
-52.49
-66.33
-75.21
-78.5
-76.03
-68.16
-55.83
-40.74
-25.16
-11.3
-0.38
8.07
16.02
25.78
38.48
53.18
67.06
76.85
80.7
79.01
74.09
68.64
64.29
60.93
57.41
52.75
47.12
42.0
39.24
39.97
43.79
49.01
53.19
54.27
51.2
44.38
35.42
26.39
19.07
14.29
11.76
10.33
8.64
5.82
1.72
-3.08
-7.75
-11.49
-13.78
-14.46
-13.71
-12.02
-9.84
-7.58
-5.35
-3.23
-1.37
-0.19
-0.34
-2.33
-6.23
-11.54
-17.42
-22.98
-27.74
-31.61
-34.72
-37.05
-38.08
-36.97
-32.92
-25.69
-15.76
-4.19
7.76
19.26
29.96
39.99
49.58
58.7
67.04
74.06
79.33
82.5
83.53
82.51
79.72
75.69
71.2
67.26
64.78
64.24
65.3
66.69
66.67
63.69
57.12
47.5
36.35
25.4
15.92
8.32
2.3
-2.79
-7.55
-12.43
-17.93
-24.68
-33.48
-44.94
-58.96
-74.59
-90.21
-104.07
-114.88
-122.18
-126.31
-128.1
-128.54
-128.23
-127.2
-124.97
-120.76
-113.99
-104.59
-93.25
-81.16
-69.58
-59.29
-50.27
-41.86
-33.11
-23.41
-12.79
-1.95
8.04
16.27
22.18
25.65
26.81
25.78
22.58
17.31
10.26
2.16
-5.94
-12.99
-18.3
-21.87
-24.17
-26.0
-27.9
-29.98
-31.82
-32.73
-32.08
-29.53
-25.17
-19.4
-12.85
-6.21
-0.15
4.77
8.26
10.25
10.96
10.81
10.23
9.62
9.11
8.67
8.14
7.39
6.42
5.38
4.45
3.79
3.46
3.34
3.2
2.78
1.84
0.21
-2.13
-5.05
-8.34
-11.61
-14.43
-16.44
-17.51
-17.85
-17.98
-18.56
-20.08
-22.65
-25.81
-28.66
-30.18
-29.58
-26.55
-21.35
-14.63
-7.2
0.15
6.76
12.2
16.2
18.81
20.22
20.79
20.87
20.69
20.35
19.84
19.19
18.48
17.94
17.63
17.47
17.23
16.68
15.7
14.4
13.06
11.94
11.2
10.74
10.32
9.75
8.96
7.98
6.85
5.57
4.01
2.06
-0.32
-2.87
-5.23
-6.94
-7.56
-6.86
-4.64
-0.91
4.21
10.32
16.79
22.73
27.16
29.21
28.3
24.23
17.08
7.25
-4.69
-17.98
-31.55
-44.09
-54.2
-60.71
-63.09
-61.63
-57.45
-52.0
-46.73
-42.55
-39.65
-37.72
-36.29
-35.07
-34.11
-33.76
-34.35
-36.19
-39.41
-44.0
-49.8
-56.37
-62.87
-68.01
-70.32
-68.48
-61.89
-50.69
-35.79
-18.44
0.22
19.23
37.81
55.22
70.68
83.43
92.95
99.09
102.1
102.55
101.09
98.43
95.23
92.07
89.3
86.75
83.79
79.54
73.47
65.65
56.87
48.19
40.45
33.93
28.49
24.0
20.71
19.31
20.53
24.64
31.14
38.87
46.38
52.22
55.08
53.7
47.18
35.38
19.46
2.01
-13.43
-23.38
-25.75
-20.52
-9.91
2.65
13.77
21.14
24.07
23.08
19.4
14.12
8.0
1.44
-5.28
-11.77
-17.6
-22.44
-26.31
-29.44
-32.06
-33.95
-34.32
-32.11
-26.47
-17.35
-5.54
7.63
20.66
32.2
41.02
45.93
45.79
40.03
29.26
15.82
3.31
-4.5
-5.09
1.86
14.39
29.08
42.24
50.79
52.66
46.78
33.11
12.95
-10.9
-34.24
-52.35
-61.17
-58.66
-45.58
-25.32
-2.96
16.25
28.37
31.67
26.86
16.55
4.14
-7.34
-15.99
-21.26
-23.43
-23.05
-20.5
-16.01
-9.95
-3.33
2.28
5.27
4.64
0.55
-5.79
-12.65
-18.53
-22.66
-25.14
-26.55
-27.57
-28.64
-29.94
-31.49
-33.18
-34.85
-36.26
-37.05
-36.84
-35.25
-32.04
-27.17
-20.92
-13.75
-6.35
0.57
6.4
10.78
13.57
14.92
15.03
14.13
12.49
10.3
7.85
5.43
3.45
2.24
2.13
3.29
5.63
8.81
12.26
15.34
17.53
18.52
18.26
16.91
14.63
11.55
7.85
3.77
-0.35
-4.04
-7.0
-9.18
-10.8
-12.25
-13.81
-15.33
-16.25
-15.76
-13.06
-7.55
0.96
12.4
26.47
42.63
60.0
77.14
92.13
103.01
108.29
107.56
101.53
91.83
80.28
68.41
57.07
46.68
37.54
30.09
24.93
22.45
22.54
24.27
26.19
26.68
24.63
19.72
12.53
4.12
-4.44
-12.57
-20.23
-27.74
-35.22
-42.35
-48.35
-52.31
-53.65
-52.44
-49.46
-45.78
-42.25
-39.13
-35.99
-32.0
-26.35
-18.71
-9.36
0.9
11.02
20.14
27.76
33.82
38.53
42.1
44.61
46.01
46.28
45.57
44.33
43.17
42.76
43.56
45.68
48.81
52.43
55.97
59.07
61.59
63.61
65.29
66.73
67.81
68.16
67.18
64.13
58.21
48.81
35.79
19.67
1.68
-16.73
-34.42
-50.99
-66.84
-82.83
-99.78
-117.94
-136.51
-153.65
-166.81
-173.29
-171.0
-159.27
-139.32
-114.1
-87.45
-62.89
-42.44
-26.42
-14.09
-4.41
3.26
9.16
13.22
15.26
14.99
11.89
5.29
-5.53
-20.5
-38.19
-55.87
-70.42
-79.77
-83.86
-84.52
-84.29
-85.03
-86.77
-87.94
-86.41
-80.85
-71.67
-60.91
-51.16
-44.3
-40.68
-39.13
-37.87
-35.48
-31.19
-24.97
-17.11
-8.02
2.08
12.91
23.96
34.2
42.32
47.28
48.72
47.17
43.84
40.25
37.56
36.33
36.46
37.35
38.35
38.87
38.47
36.99
34.57
31.52
28.4
25.61
23.32
21.5
19.96
18.63
17.56
16.84
16.22
15.17
13.04
9.55
5.23
1.15
-1.62
-2.74
-2.87
-3.29
-4.91
-7.75
-10.77
-12.44
-11.87
-9.13
-5.19
-1.17
2.34
5.59
9.15
13.41
18.24
22.93
26.74
29.2
30.16
29.65
27.76
24.53
20.25
15.75
12.13
10.38
10.97
13.66
17.77
22.62
27.17
30.54
32.05
31.16
27.81
22.57
16.74
12.11
10.38
11.27
13.24
14.01
11.49
4.8
-5.31
-16.95
-27.73
-35.74
-42.2
-49.51
-60.28
-76.11
-96.8
-120.7
-146.17
-172.31
-199.5
-231.84
-273.94
-329.66
-400.88
-486.55
-583.03
-685.18
-787.0
-863.97
-893.58
-858.7
-754.79
-593.22
-396.71
-190.34
5.66
179.16
325.15
440.37
523.97
576.95
602.49
606.24
596.79
581.61
566.1
553.32
541.94
528.99
511.3
486.89
456.01
420.95
384.78
350.44
320.03
293.02
267.71
243.34
219.66
197.35
177.72
161.88
150.23
142.17
135.63
128.33
118.6
105.91
91.37
77.17
65.8
59.2
58.24
62.05
68.68
75.64
80.51
81.64
78.05
69.19
54.57
33.63
5.72
-29.3
-70.73
-116.86
-165.15
-212.89
-257.95
-299.47
-337.89
-374.67
-411.73
-451.01
-494.13
-541.76
-592.78
-643.43
-687.3
-716.48
-724.0
-706.53
-665.9
-608.53
-542.93
-476.76
-414.73
-358.5
-307.73
-261.73
-220.19
-183.08
-149.85
-118.84
-87.74
-54.46
-18.13
20.66
60.0
97.38
130.46
157.73
179.07
195.91
210.93
226.8
244.86
263.99
280.7
290.54
289.95
277.85
255.81
227.17
195.26
162.27
129.13
96.13
64.05
34.42
9.55
-8.25
-17.13
-16.19
-5.67
13.23
38.41
67.33
97.25
125.77
151.2
172.74
190.5
205.16
217.46
227.77
235.82
240.83
241.96
239.01
232.63
224.12
214.87
205.68
196.59
187.24
177.46
167.65
158.72
151.29
145.21
139.34
131.99
121.69
107.82
90.81
71.79
52.27
33.59
16.81
2.57
-8.94
-18.02
-25.43
-32.16
-38.91
-45.81
-52.21
-57.04
-59.41
-59.09
-56.58
-52.76
-48.41
-43.84
-39.02
-33.7
-27.8
-21.47
-15.16
-9.45
-4.82
-1.78
-0.64
-1.63
-4.66
-9.34
-14.86
-20.21
-24.39
-26.73
-27.21
-26.38
-25.34
-25.16
-26.52
-29.41
-33.11
-36.55
-38.72
-39.02
-37.38
-34.08
-29.51
-24.06
-18.03
-11.85
-6.07
-1.3
1.96
3.45
3.32
1.96
-0.11
-2.36
-4.37
-5.69
-5.91
-4.67
-1.89
2.21
6.95
11.49
15.11
17.42
18.44
18.62
18.46
18.42
18.7
19.17
19.44
19.01
17.4
14.34
10.0
4.85
-0.39
-4.96
-8.22
-9.78
-9.36
-6.91
-2.5
3.66
11.07
18.95
26.4
32.53
36.71
38.79
38.97
37.82
36.04
