23.97
24.22
23.22
21.36
18.82
15.82
12.67
9.72
7.28
5.56
4.53
4.05
3.93
4.01
4.24
4.65
5.11
5.35
5.05
3.94
1.9
-0.93
-4.3
-7.88
-11.24
-14.04
-16.01
-17.04
-17.22
-16.98
-16.87
-17.44
-18.94
-21.16
-23.45
-24.93
-24.79
-22.53
-18.08
-11.86
-4.67
2.55
8.86
13.48
16.09
16.75
15.82
13.93
11.68
9.51
7.74
6.51
5.85
5.8
6.33
7.27
8.54
10.02
11.64
13.41
15.2
16.71
17.56
17.35
15.86
13.2
9.73
5.91
2.13
-1.47
-4.93
-8.37
-11.89
-15.48
-19.14
-22.92
-26.96
-31.29
-35.92
-40.59
-44.8
-47.91
-49.16
-47.89
-43.71
-36.7
-27.38
-16.73
-5.89
4.11
12.4
18.57
22.7
25.52
28.35
32.95
40.95
53.2
69.21
86.94
103.34
115.23
120.21
117.31
107.07
91.05
71.4
50.29
29.67
11.18
-3.88
-14.8
-21.44
-24.32
-24.59
-23.6
-22.63
-22.5
-23.41
-24.94
-26.49
-27.51
-27.94
-28.16
-28.87
-30.55
-33.22
-36.24
-38.54
-39.14
-37.5
-33.77
-28.55
-22.69
-16.9
-11.57
-6.84
-2.77
0.57
3.11
4.77
5.61
5.77
5.37
4.51
3.25
1.62
-0.24
-2.06
-3.54
-4.39
-4.49
-3.93
-2.95
-1.99
-1.4
-1.48
-2.31
-3.83
-5.87
-8.2
-10.69
-13.26
-16.04
-19.14
-22.66
-26.44
-30.11
-33.13
-34.9
-34.98
-33.11
-29.37
-24.01
-17.42
-10.15
-2.79
4.05
9.9
14.5
17.83
20.0
21.21
21.63
21.45
20.89
20.21
19.73
19.63
19.97
20.56
21.16
21.57
21.66
21.43
20.92
20.12
19.0
17.48
15.48
12.9
9.63
5.53
0.64
-4.86
-10.52
-15.82
-20.26
-23.58
-25.92
-27.71
-29.47
-31.55
-33.96
-36.36
-38.14
-38.54
-36.98
-33.13
-27.06
-19.16
-10.12
-0.79
7.97
15.45
21.25
25.26
27.68
28.84
29.14
28.94
28.46
27.88
27.36
27.04
27.06
27.55
28.52
29.83
31.22
32.35
32.93
32.83
31.99
30.46
28.31
25.52
22.0
17.77
12.99
8.05
3.47
-0.31
-3.15
-5.22
-7.0
-9.09
-11.88
-15.5
-19.75
-24.12
-27.95
-30.54
-31.22
-29.53
-25.36
-19.03
-11.27
-3.09
4.48
10.68
15.11
17.77
18.88
18.78
17.86
16.5
15.01
13.72
12.84
12.56
12.97
14.07
15.67
17.51
19.18
20.22
20.33
19.4
17.62
15.28
12.68
9.94
7.06
3.98
0.73
-2.48
-5.39
-7.68
-9.17
-9.7
-9.17
-7.37
-4.18
0.55
6.84
14.56
23.65
34.04
45.81
58.99
73.38
88.33
102.82
115.58
125.43
131.68
134.29
134.07
132.44
131.14
131.82
135.35
141.24
147.24
149.7
144.38
127.9
98.99
59.02
11.6
-38.54
-86.99
-130.61
-167.8
-198.25
-222.25
-240.23
-252.63
-259.82
-262.31
-260.79
-256.05
-248.95
-240.21
-230.08
-218.36
-204.4
-187.32
-166.48
-141.75
-113.99
-84.85
-56.49
-30.83
-8.92
9.23
24.48
37.84
50.03
61.13
70.83
78.69
84.4
87.7
88.1
84.8
76.85
63.86
46.47
26.46
6.22
-12.02
-27.11
-39.07
-48.87
-57.89
-67.24
-77.44
-88.3
-99.04
-108.64
-116.22
-121.52
-125.14
-128.51
-133.4
-141.36
-153.22
-169.14
-188.88
-211.86
-237.08
-262.52
-285.05
-300.91
-307.07
-302.61
-289.34
-271.04
-251.41
-232.0
-211.33
-185.78
-151.69
-107.72
-55.69
-0.04
54.2
103.22
145.55
181.75
213.29
241.14
264.9
282.83
292.59
292.53
282.68
265.04
243.16
221.33
203.38
192.07
189.21
195.52
210.61
232.24
256.13
276.61
288.63
290.02
282.95
273.62
269.54
276.28
294.96
322.04
351.22
376.34
393.49
401.49
400.74
391.43
372.67
342.99
301.92
251.85
198.5
149.65
112.45
90.47
81.84
80.15
77.31
67.06
47.52
21.22
-6.74
-31.49
-50.48
-64.05
-74.49
-84.42
-95.58
-108.17
-121.04
-132.43
-140.83
-145.65
-147.33
-147.26
-147.26
-149.2
-154.37
-163.15
-174.84
-187.63
-198.88
-206.02
-207.78
-205.09
-200.64
-197.21
-196.07
-196.42
-196.49
-195.75
-196.13
-201.32
-214.37
-235.46
-261.0
-285.24
-303.12
-312.31
-313.24
-307.39
-295.48
-276.78
-249.88
-214.01
-169.68
-118.3
-61.31
0.0
63.96
127.57
186.15
231.94
256.48
253.96
224.44
173.91
111.39
45.33
-16.75
-73.41
-124.25
-168.2
-203.66
-229.39
-244.99
-250.73
-248.39
-240.4
-229.37
-216.81
-203.22
-188.29
-171.63
-153.02
-132.86
-112.07
-91.61
-72.36
-54.43
-37.46
-20.69
-3.31
15.27
35.2
56.21
77.77
99.16
120.01
140.17
159.69
178.81
197.82
216.96
236.44
256.66
278.27
302.08
328.35
356.09
382.68
404.25
416.81
417.64
406.21
384.13
354.41
320.15
283.87
247.32
211.83
178.61
148.67
122.42
99.48
78.82
59.3
40.35
22.2
5.67
-8.31
-19.13
-26.87
-32.17
-36.02
-39.53
-43.63
-48.93
-55.58
-63.41
-71.91
-80.43
-88.31
-94.95
-99.91
-102.96
-104.07
-103.41
-101.2
-97.69
-93.05
-87.42
-81.07
-74.39
-67.88
-62.05
-57.3
-53.85
-51.7
-50.69
-50.48
-50.63
-50.68
-50.26
-49.24
-47.69
-45.84
-43.83
-41.74
-39.57
-37.23
-34.7
-31.99
-29.18
-26.42
-23.91
-21.9
-20.72
-20.59
-21.48
-23.12
-25.01
-26.59
-27.4
-27.13
-25.61
-22.8
-18.75
-13.63
-7.72
-1.47
4.7
10.42
15.38
19.37
22.1
23.3
22.74
20.42
16.63
11.89
6.78
1.67
-3.3
-8.36
-13.83
-19.93
-26.54
-33.15
-38.96
-43.21
-45.4
-45.53
-44.06
-41.68
-39.03
-36.55
-34.28
-32.02
-29.43
-26.16
-21.83
-16.14
-8.81
0.27
10.89
22.53
34.32
45.27
54.47
61.3
65.46
67.02
66.27
63.54
59.27
53.9
47.88
41.69
35.76
30.42
25.83
22.02
18.82
16.0
13.29
10.44
7.32
3.88
0.15
-3.77
-7.81
-11.91
-16.1
-20.47
-25.04
-29.71
-34.06
-37.5
-39.32
-38.94
-36.15
-31.19
-24.72
-17.54
-10.43
-3.88
1.84
6.71
10.74
13.93
16.21
17.54
17.91
17.48
16.5
15.36
14.42
13.98
14.12
14.76
15.6
16.27
16.29
15.22
12.67
8.47
2.75
-4.1
-11.37
-18.34
-24.41
-29.31
-33.13
-36.12
-38.47
-40.1
-40.8
-40.19
-38.06
-34.53
-29.93
-24.85
-19.95
-15.7
-12.36
-10.18
-9.44
-10.69
-14.69
-22.01
-32.95
-47.32
-64.27
-82.42
-100.06
-115.34
-126.57
-132.33
-131.61
-123.99
-109.63
-89.4
-64.79
-37.75
-10.46
15.04
37.02
54.39
66.57
73.56
75.82
74.05
69.33
63.01
56.49
50.95
47.21
45.49
45.56
46.89
48.73
50.5
51.78
52.3
51.92
50.58
48.23
44.93
40.83
36.15
31.28
26.57
22.38
18.93
16.29
14.4
13.02
11.93
10.92
9.93
8.99
8.07
7.13
6.04
4.7
3.03
1.02
-1.31
-3.91
-6.74
-9.75
-12.83
-15.7
-17.93
-19.01
-18.56
-16.45
-12.85
-8.18
-3.0
2.17
6.91
10.96
14.09
16.26
17.46
17.72
17.19
16.03
14.42
12.5
10.42
8.29
6.23
4.37
2.78
1.51
0.49
-0.44
-1.41
-2.59
-4.05
-5.83
-7.84
-10.0
-12.14
-14.13
-15.9
-17.38
-18.56
-19.5
-20.27
-20.89
-21.32
-21.35
-20.73
-19.18
-16.5
-12.68
-7.91
-2.62
2.7
7.57
11.67
14.8
16.95
18.16
18.53
18.2
17.36
16.24
15.07
14.03
13.2
12.52
11.82
10.94
9.78
8.34
6.8
5.38
4.23
3.38
2.68
1.91
0.84
-0.59
-2.29
-3.98
-5.44
-6.61
-7.58
-8.68
-10.2
-12.27
-14.72
-17.1
-18.83
-19.39
-18.52
-16.13
-12.43
-7.78
-2.57
2.78
7.86
12.22
15.56
17.64
18.46
18.16
16.97
15.19
13.14
11.07
9.2
7.65
6.5
5.69
5.07
4.41
3.57
2.39
0.83
-1.14
-3.5
-6.2
-9.09
-12.05
-15.11
-18.22
-21.42
-24.83
-28.77
-33.87
-40.91
-50.56
-63.18
-78.68
-96.24
-114.44
-131.42
-145.25
-154.27
-157.21
-153.4
-142.75
-125.79
-103.52
-77.31
-48.72
-19.34
9.26
35.64
58.52
76.9
90.16
98.18
101.29
100.3
96.4
90.71
84.16
77.34
70.54
63.85
57.24
50.53
43.53
36.11
28.26
20.24
12.68
6.42
2.34
0.9
1.93
4.72
8.27
11.67
14.57
17.17
20.11
23.95
28.81
34.23
39.34
43.2
45.07
44.77
42.51
38.78
34.07
28.62
22.43
15.38
7.4
-1.52
-11.31
-21.77
-32.26
-41.37
-46.99
-46.79
-39.1
-23.9
-3.09
19.96
41.55
58.91
70.83
77.49
79.78
78.54
74.24
67.22
58.06
47.74
37.34
27.72
19.06
11.09
3.38
-4.19
-11.2
-16.78
-20.04
-20.49
-18.26
-14.11
-9.08
-4.2
-0.19
2.66
4.43
5.42
5.97
6.36
6.7
7.0
7.29
7.61
8.19
9.32
11.25
14.01
17.42
21.05
24.4
27.1
29.06
30.57
32.31
34.95
38.89
44.07
49.85
55.36
59.79
62.73
64.22
64.9
65.41
66.02
66.57
66.61
65.86
64.71
64.09
65.23
69.6
77.93
89.85
103.79
117.3
127.68
132.58
130.29
120.06
102.83
80.96
57.86
37.11
20.95
9.33
-0.48
-12.96
-34.54
-68.03
-111.2
-156.61
-194.39
-216.6
-220.5
-208.74
-187.17
-161.44
-134.86
-108.84
-83.82
-60.35
-39.74
-23.18
-10.76
-1.18
8.19
20.54
38.0
61.02
88.2
116.63
142.75
164.97
181.37
191.22
194.76
192.56
185.22
173.25
157.19
137.63
115.75
93.1
71.53
52.79
38.05
27.81
21.96
19.95
20.5
22.37
24.26
25.1
23.84
19.52
11.22
-2.15
-18.3
-36.51
-56.7
-79.49
-105.71
-136.17
-171.16
-209.98
-251.02
-291.92
-330.56
-364.99
-393.86
-416.53
-433.19
-444.68
-452.27
-457.04
-459.22
-458.09
-451.4
-436.2
-410.08
-372.6
-325.77
-273.61
-220.78
-170.9
-126.0
-86.06
-49.94
-16.29
15.55
45.48
72.87
97.03
117.57
134.17
146.81
155.57
160.54
161.84
159.7
154.59
147.35
139.15
131.27
124.85
120.61
118.59
118.25
118.5
118.18
116.31
112.35
106.22
98.25
88.9
78.58
67.66
56.41
45.23
34.82
26.04
19.78
16.69
16.77
19.4
23.56
28.19
32.49
36.15
39.13
41.41
42.86
43.19
42.07
39.4
35.41
30.61
25.67
21.1
17.17
13.83
10.78
7.85
4.92
2.21
0.14
-0.78
-0.16
2.22
6.23
11.34
16.87
22.14
26.73
30.56
33.77
36.48
38.56
39.74
39.6
38.04
35.43
32.46
29.82
27.85
26.38
24.8
22.57
19.4
15.55
11.67
8.4
6.15
4.75
3.86
2.94
1.67
-0.0
-1.91
-3.83
-5.59
-7.12
-8.43
-9.39
-9.83
-9.6
-8.71
-7.34
-5.82
-4.51
-3.62
-3.21
-3.23
-3.55
-4.09
-4.73
-5.31
-5.63
-5.52
-4.86
-3.67
-2.13
-0.43
1.2
2.61
3.69
4.38
4.67
4.65
4.38
3.97
3.47
2.88
2.15
1.17
-0.17
-1.96
-4.03
-6.14
-7.78
-8.54
-8.05
-6.3
-3.5
-0.09
3.44
6.75
9.58
11.9
13.69
15.01
15.89
16.25
16.06
15.26
13.95
12.24
10.37
8.56
6.91
5.52
4.37
3.44
2.72
2.21
1.78
1.3
0.52
-0.79
-2.75
-5.33
-8.33
-11.4
-14.1
-15.99
-16.66
-15.88
-13.7
-10.43
-6.55
-2.58
1.07
4.25
7.08
9.69
12.16
14.28
15.72
16.17
15.59
14.25
12.66
11.37
10.76
10.77
11.11
11.27
10.83
9.61
7.7
5.38
2.97
0.77
-1.19
-3.03
-4.89
-6.91
-9.07
-11.24
-13.22
-14.84
-15.89
-16.19
-15.57
-13.95
-11.39
-8.04
-4.2
-0.17
3.7
7.19
10.07
12.22
13.6
14.25
14.3
14.0
13.55
13.07
12.63
12.19
11.76
11.3
10.7
9.81
8.56
6.9
4.92
2.8
0.71
-1.23
-2.98
-4.64
-6.34
-8.15
-10.12
-12.15
-14.04
-15.45
-16.0
-15.35
-13.38
-10.18
-6.08
-1.58
2.88
6.96
10.44
13.24
15.31
16.61
17.14
16.97
16.27
15.32
14.39
13.69
13.24
12.98
12.74
12.36
11.79
10.96
9.89
8.57
7.0
5.14
3.01
0.61
-2.02
-4.75
-7.55
-10.36
-13.07
-15.57
-17.61
-18.92
-19.2
-18.23
-15.93
-12.53
-8.41
-4.05
0.11
3.8
6.9
9.39
11.32
12.72
13.59
13.91
13.74
13.18
12.41
11.65
11.08
10.71
10.47
10.16
9.55
8.5
6.97
5.1
3.1
1.18
-0.57
-2.09
-3.44
-4.67
-5.86
-7.05
-8.21
-9.26
-10.12
-10.69
-10.89
-10.67
-9.89
-8.53
-6.58
-4.09
-1.27
1.62
4.24
6.4
7.97
8.97
9.47
9.56
9.32
8.82
8.25
7.8
7.67
7.89
8.39
8.91
9.18
9.05
8.52
7.66
6.58
5.35
3.95
2.39
0.63
-1.3
-3.4
-5.59
-7.77
-9.78
-11.33
-12.09
-11.76
-10.22
-7.58
-4.18
-0.48
3.14
6.39
9.15
11.42
13.14
14.27
14.73
14.55
13.83
12.83
11.8
10.92
10.24
9.77
9.46
9.26
9.15
9.07
8.94
8.65
8.19
7.51
6.64
5.6
4.38
3.0
1.51
-0.0
-1.54
-3.06
-4.64
-6.33
-8.0
-9.39
-10.14
-9.93
-8.67
-6.58
-4.03
-1.41
0.96
3.0
4.72
6.11
7.14
7.81
8.15
8.32
8.5
8.8
9.26
9.78
10.17
10.32
10.19
9.82
9.29
8.62
7.86
7.06
6.23
5.34
4.36
3.27
2.07
0.88
-0.22
-1.11
-1.77
-2.36
-3.06
-4.03
-5.41
-7.19
-9.22
-11.3
-13.15
-14.52
-15.26
-15.28
-14.6
-13.34
-11.63
-9.56
-7.16
-4.48
-1.68
1.06
3.53
5.54
6.98
7.89
8.32
8.43
8.27
7.89
7.37
6.82
6.33
5.93
5.7
5.54
5.43
5.27
4.99
4.54
3.85
2.89
1.65
0.2
-1.38
-2.97
-4.43
-5.67
-6.62
-7.31
-7.82
-8.3
-8.95
-9.84
-10.85
-11.69
-12.01
-11.5
-10.11
-7.97
-5.37
-2.66
-0.09
2.13
3.91
5.16
5.87
6.11
6.05
5.88
5.79
5.91
6.18
6.5
6.67
6.57
6.18
5.61
5.02
4.56
4.27
4.06
3.84
3.43
2.81
1.95
0.91
-0.2
-1.3
-2.35
-3.33
-4.22
-5.06
-5.89
-6.84
-8.03
-9.48
-11.11
-12.67
-13.86
-14.32
-13.86
-12.43
-10.18
-7.47
-4.59
-1.85
0.6
2.62
4.17
5.28
6.03
6.51
6.79
7.01
7.18
7.34
7.38
7.23
6.78
6.05
5.11
4.04
3.03
2.11
1.37
0.8
0.37
0.0
-0.36
-0.71
-1.02
-1.23
-1.39
-1.62
-2.08
-3.0
-4.52
-6.69
-9.25
-11.87
-14.07
-15.48
-15.83
-15.12
-13.47
-11.19
-8.57
-5.82
-3.12
-0.6
1.6
3.39
4.7
5.55
6.05
6.34
6.58
6.85
7.17
7.53
7.92
8.37
8.83
9.25
9.5
9.38
8.73
7.51
5.86
3.94
2.04
0.34
-1.03
-2.1
-2.93
-3.71
-4.53
-5.44
-6.45
-7.5
-8.53
-9.5
-10.35
-10.97
-11.27
-11.01
-10.03
-8.31
-5.99
-3.36
-0.74
1.65
3.75
5.55
7.12
8.42
9.38
9.93
10.11
10.06
10.04
10.25
10.71
11.26
11.61
11.49
10.81
9.67
8.24
6.76
5.34
3.97
2.61
1.17
-0.29
-1.64
-2.75
-3.57
-4.16
-4.76
-5.52
-6.53
-7.78
-9.06
-10.13
-10.76
-10.78
-10.11
-8.83
-7.07
-5.05
-3.07
-1.39
-0.13
0.68
1.23
1.71
2.25
2.94
3.73
4.54
5.3
6.03
6.73
7.47
8.19
8.77
9.1
9.08
8.72
8.09
7.28
6.32
5.23
3.93
2.4
0.62
-1.34
-3.38
-5.35
-7.17
-8.81
-10.27
-11.55
-12.62
-13.36
-13.66
-13.34
-12.28
-10.41
-7.81
-4.73
-1.59
1.17
3.25
4.58
5.42
6.2
7.34
8.99
11.03
13.07
14.72
15.74
16.2
16.46
17.01
18.23
20.26
22.94
25.77
28.04
28.95
27.79
24.18
18.2
10.5
2.27
-5.23
-11.03
-14.92
-17.46
-19.65
-22.46
-26.12
-30.09
-33.09
-33.81
-31.4
-25.82
-17.78
-8.44
1.05
9.94
17.82
24.62
30.32
34.8
37.87
39.25
38.82
36.68
33.2
28.96
24.53
20.31
16.4
12.68
8.93
5.11
1.41
-1.81
-4.28
-6.04
-7.51
-9.4
-12.27
-16.41
-21.8
-28.33
-35.99
-45.1
-55.93
-68.56
-82.49
-96.6
-109.42
-119.68
-126.62
-130.27
-131.32
-130.67
-129.11
-126.97
-124.16
-120.35
-115.34
-109.07
-101.76
-93.53
-84.28
-73.71
-61.51
-47.72
-32.64
-16.56
0.63
19.48
40.64
64.22
89.18
113.41
134.36
150.09
160.26
166.29
170.63
175.49
181.86
188.96
194.79
197.14
194.67
187.51
177.11
165.46
154.18
144.0
134.47
124.44
112.55
97.79
79.71
58.58
35.28
10.74
-14.32
-39.55
-64.63
-88.92
-111.39
-130.62
-145.58
-155.92
-162.16
-164.7
-162.87
-154.72
-138.14
-112.7
-80.89
-47.65
-18.26
4.05
19.36
30.31
39.89
49.4
57.9
63.36
64.48
61.75
57.17
52.84
49.77
47.33
44.43
40.38
35.52
30.88
27.56
26.15
26.52
28.06
29.83
31.06
31.18
29.93
27.47
24.2
20.67
17.42
14.72
12.54
10.68
8.86
6.91
4.83
2.77
0.84
-0.94
-2.71
-4.69
-7.06
-9.9
-13.2
-16.84
-20.63
-24.41
-28.0
-31.29
-34.15
-36.42
-37.93
-38.55
-38.12
-36.52
-33.78
-29.99
-25.54
-20.89
-16.54
-12.95
-10.29
-8.53
-7.51
-7.05
-6.99
-7.31
-8.0
-8.96
-10.07
-11.08
-11.78
-12.05
-11.9
-11.38
-10.64
-9.88
-9.17
-8.6
-8.2
-7.96
-7.93
-8.17
-8.73
-9.64
-10.91
-12.44
-14.15
-15.93
-17.68
-19.35
-20.9
-22.22
-23.07
-23.18
-22.26
-20.18
-17.0
-12.98
-8.56
-4.18
-0.26
2.91
5.21
6.55
6.96
6.48
5.24
3.45
1.39
-0.63
-2.32
-3.44
-3.96
-3.93
-3.57
-3.12
-2.8
-2.68
-2.7
-2.73
-2.61
-2.43
-2.34
-2.66
-3.6
-5.18
-7.14
-9.08
-10.63
-11.63
-12.19
-12.54
-12.9
-13.4
-13.92
-14.26
-14.13
-13.28
-11.55
-8.98
-5.74
-2.1
1.59
5.04
8.02
10.4
12.11
13.11
13.35
12.8
11.56
9.81
7.89
6.03
4.44
3.24
2.43
1.92
1.65
1.55
1.51
1.48
1.3
0.9
0.22
-0.68
-1.73
-2.82
-3.87
-4.9
-5.95
-7.08
-8.34
-9.71
-11.17
-12.7
-14.3
-15.99
-17.72
-19.39
-20.82
-21.83
-22.21
-21.79
-20.44
-18.11
-14.86
-10.92
-6.64
-2.43
1.33
4.4
6.71
8.22
8.95
8.9
8.09
6.74
5.17
3.8
3.03
3.11
3.99
5.46
7.2
8.91
10.37
11.5
12.22
12.52
12.35
11.71
10.6
9.04
7.06
4.68
2.06
-0.67
-3.33
-5.73
-7.79
-9.51
-11.0
-12.37
-13.79
-15.3
-17.0
-18.89
-20.94
-23.0
-24.78
-25.94
-26.07
-24.83
-22.06
-17.93
-12.71
-6.92
-1.05
4.38
9.01
12.68
15.34
17.11
18.13
18.59
18.7
18.59
18.32
17.95
17.49
16.95
16.34
15.63
14.81
13.93
13.0
12.08
11.16
10.22
9.14
7.82
6.26
4.54
2.87
1.41
0.27
-0.69
-1.72
-3.1
-4.96
-7.19
-9.6
-11.93
-13.99
-15.75
-17.27
-18.68
-20.04
-21.32
-22.42
-23.22
-23.51
-22.98
-21.44
-18.68
-14.78
-9.96
-4.64
0.7
5.62
9.79
13.04
15.18
16.27
16.4
15.75
14.6
13.24
11.91
10.8
10.11
9.85
10.05
10.58
11.22
11.82
12.23
12.41
12.4
12.3
12.1
11.71
10.96
9.68
7.89
5.71
3.36
1.06
-1.01
-2.77
-4.26
-5.5
-6.6
-7.59
-8.5
-9.37
-10.15
-10.8
-11.25
-11.5
-11.61
-11.76
-12.06
-12.49
-12.8
-12.51
-11.12
-8.29
-3.94
1.65
7.96
14.42
20.58
26.23
31.38
36.14
40.6
44.88
49.07
53.36
57.91
62.78
67.9
73.14
78.33
83.37
88.29
93.2
98.26
103.55
108.97
114.29
119.27
123.86
128.04
131.91
135.37
138.18
139.96
140.08
138.13
134.0
127.96
120.42
111.64
101.56
89.82
75.91
58.63
37.08
11.31
-17.15
-45.18
-68.74
-83.98
-88.35
-81.3
-66.06
-47.19
-28.85
-13.17
0.1
12.77
26.7
42.71
60.3
74.93
81.33
74.96
53.78
18.66
-27.29
-80.42
-137.98
-198.96
-267.72
-349.82
-449.42
-566.47
-695.75
-828.38
-954.79
-1067.39
-1137.33
-1140.84
-1064.37
-912.27
-706.75
-478.16
-253.43
-49.95
124.22
267.45
378.55
458.04
508.21
533.85
542.07
540.59
535.54
531.94
530.02
525.33
512.89
489.15
453.7
409.57
361.92
316.01
275.16
240.52
210.1
180.94
150.43
117.67
83.59
50.07
21.66
0.51
-13.6
-23.23
-31.84
-42.52
-56.68
-73.83
-92.07
-109.29
-124.53
-138.09
-151.35
-165.95
-183.28
-204.23
-229.24
-257.9
-288.4
-316.93
-337.43
-342.96
-328.35
-292.76
-240.31
-178.64
-115.78
-57.52
-6.43
37.23
73.61
101.89
120.25
127.31
123.66
112.33
97.95
84.83
75.58
70.44
67.98
66.19
63.74
60.76
58.58
59.07
63.43
71.4
80.95
89.18
93.36
92.13
86.05
77.21
68.36
61.85
58.91
59.31
61.88
64.99
67.24
67.83
66.44
63.09
57.84
50.68
41.62
30.89
19.06
7.01
-4.15
-13.54
-20.69
-25.79
-29.61
-33.05
-36.62
-40.17
-42.75
-43.12
-40.22
-33.59
-23.4
-10.37
4.51
20.02
34.73
47.06
55.64
59.68
59.43
56.03
51.09
45.81
40.65
35.48
30.09
24.82
20.67
18.9
20.31
24.7
30.8
36.78
40.89
42.02
39.85
34.68
27.23
18.48
9.65
1.99
-3.31
-5.54
-4.57
-0.96
4.27
9.79
14.27
16.69
16.57
14.07
10.07
5.92
3.12
2.72
4.95
9.01
13.45
16.64
17.31
14.95
9.86
3.04
-4.29
-10.89
-15.95
-19.06
-20.13
-19.33
-16.99
-13.61
-9.73
-5.89
-2.43
0.6
3.4
6.25
9.27
12.3
14.76
16.01
15.48
13.0
8.77
3.31
-2.7
-8.57
-13.68
-17.63
-20.3
-21.89
-22.89
-24.0
-25.87
-28.85
-32.74
-36.78
-39.71
-40.38
-37.98
-32.38
-24.13
-14.19
-3.64
6.54
15.52
22.65
27.38
29.47
29.16
27.17
24.5
22.02
20.21
19.06
18.24
17.42
16.43
15.22
13.8
12.13
10.22
8.09
5.88
3.69
1.41
-1.33
-4.92
-9.48
-14.62
-19.49
-23.19
-25.05
-24.92
-23.09
-20.15
-16.78
-13.74
-11.83
-11.88
-14.34
-18.97
-24.67
-29.79
-32.6
-32.11
-28.26
-21.97
-14.67
-7.68
-1.87
2.46
5.43
7.4
8.66
9.41
9.72
9.6
9.07
8.2
7.2
6.27
5.6
5.17
4.88
4.65
4.57
4.94
6.1
8.22
11.19
14.58
17.75
20.09
21.08
20.51
18.47
15.18
10.98
6.22
1.1
-4.44
-10.58
-17.47
-25.06
-32.87
-40.09
-45.83
-49.25
-49.8
-47.36
-42.17
-34.83
-26.09
-16.67
-7.14
2.19
11.24
19.97
28.24
35.72
42.0
46.8
50.2
52.61
54.62
56.68
58.84
60.76
61.94
61.96
60.72
58.51
55.82
53.17
50.83
48.92
47.25
45.7
44.11
42.44
40.85
39.64
39.3
40.56
44.27
51.12
61.18
73.34
85.28
93.84
95.86
89.02
72.44
46.67
13.47
-24.78
-65.31
-105.26
-141.86
-172.81
-196.83
-213.84
-224.98
-231.99
-236.54
-239.63
-241.43
-241.37
-238.5
-231.98
-221.27
-206.19
-186.99
-164.22
-138.87
-112.14
-85.58
-60.96
-40.27
-25.35
-17.47
-16.92
-22.66
-32.71
-44.69
-56.53
-66.92
-75.65
-83.21
-90.35
-97.57
-104.77
-111.32
-116.49
-119.73
-120.93
-120.48
-119.14
-117.91
-117.95
-120.29
-125.56
-133.48
-142.27
-148.63
-148.44
-138.14
-116.29
-84.5
-47.18
-10.18
21.04
42.85
54.05
55.46
49.02
37.04
21.85
5.9
-8.23
-17.96
-21.09
-16.27
-3.28
16.98
42.71
71.51
100.87
128.46
152.38
171.39
184.85
192.66
195.12
192.65
185.71
174.69
159.98
142.2
122.33
101.83
82.45
65.92
53.39
45.18
40.8
39.36
40.18
43.21
49.05
58.73
73.23
93.2
119.04
150.81
187.72
227.39
265.24
295.05
310.83
309.25
291.41
262.73
230.7
201.73
178.66
160.37
143.52
125.16
104.52
82.9
62.38
44.12
27.68
11.75
-4.68
-21.33
-36.71
-48.99
-57.26
-62.25
-66.15
-71.53
-80.08
-91.79
-105.03
-117.23
-125.94
-129.69
-128.19
-122.3
-113.55
-103.79
-94.72
-87.67
-83.16
-80.71
-78.92
-75.91
-70.0
-60.43
-47.55
-32.52
-16.83
-1.83
11.36
21.89
29.19
33.26
34.91
35.6
37.12
40.66
46.58
54.31
62.95
71.65
79.68
86.13
89.39
87.35
78.18
61.5
39.06
14.42
-8.24
-25.64
-36.36
-41.01
-41.48
-39.83
-37.46
-34.71
-31.18
-26.3
-20.08
-13.29
-7.29
-3.44
-2.38
-3.76
-6.42
-9.05
-10.55
-10.28
-7.8
-2.86
4.64
14.07
23.33
28.58
24.86
7.96
-23.4
-65.87
-111.6
-150.46
-173.65
-176.92
-162.2
-136.55
-109.14
-87.76
-76.47
-75.05
-80.27
-87.86
-93.97
-96.02
-92.71
-84.13
-71.52
-57.1
-43.42
-32.93
-27.39
-27.5
-32.62
-40.82
-48.95
-53.12
-49.59
-35.88
-11.94
19.6
54.23
87.16
114.83
135.91
150.96
161.73
170.13
177.71
185.57
194.47
205.05
217.55
231.97
247.69
263.73
278.82
291.34
299.44
301.1
294.65
279.26
255.46
224.93
189.99
152.92
115.41
78.54
43.15
10.22
-19.08
-43.46
-62.03
-74.59
-81.68
-84.41
-84.06
-81.89
-79.02
-76.46
-75.05
-75.27
-77.1
-79.78
-82.04
-82.35
-79.62
-73.52
-64.74
-54.61
-44.77
-36.56
-30.64
-27.06
-25.39
-25.04
-25.49
-26.45
-27.72
-29.27
-30.96
-32.54
-33.71
-34.24
-34.09
-33.53
-33.03
-32.95
-33.34
-33.91
-34.16
-33.65
-32.27
-30.24
-27.99
-25.98
-24.41
-23.21
-22.08
-20.59
-18.42
-15.39
-11.63
-7.6
-3.94
-1.17
0.48
1.31
2.01
3.39
6.11
10.4
15.88
21.68
26.65
29.75
30.41
28.67
25.24
21.24
17.81
15.79
15.51
16.88
19.36
22.0
23.55
22.69
18.55
11.16
1.58
-8.35
-16.71
-22.23
-24.65
-24.49
-22.7
-20.09
-17.18
-14.16
-11.08
-8.03
-5.09
-2.31
0.52
3.67
7.53
12.41
18.6
26.26
35.23
45.06
55.06
64.57
73.13
80.56
86.92
92.47
97.46
101.89
105.41
107.65
108.62
109.06
110.37
114.35
122.52
135.56
152.18
169.51
184.16
193.52
196.66
194.26
187.9
179.05
168.54
155.45
138.34
116.45
90.66
63.48
37.64
14.64
-6.29
-28.05
-56.2
-96.87
-154.72
-231.06
-323.34
-426.03
-532.2
-634.97
-717.95
-763.54
-758.59
-701.46
-603.37
-482.73
-357.25
-239.44
-136.18
-50.04
17.67
66.55
97.29
112.64
117.11
115.98
114.05
114.71
119.84
129.11
140.96
153.6
166.28
179.39
193.82
210.11
229.02
248.38
264.52
273.41
271.79
257.97
232.22
196.38
153.55
105.53
56.65
10.45
-30.96
-66.58
-95.99
-119.27
-136.91
-149.28
-157.83
-164.58
-171.02
-178.46
-187.57
-198.38
-210.28
-224.86
-239.38
-251.84
-261.14
-265.93
-265.25
-258.44
-245.27
-226.0
-201.24
-171.46
-134.94
-95.08
-54.58
-15.46
20.94
53.54
81.35
103.75
120.75
132.22
138.13
139.65
138.1
134.99
131.34
127.29
122.82
117.81
112.0
105.24
98.83
93.97
92.25
94.75
101.25
110.79
121.74
132.13
140.21
146.18
149.08
148.52
143.98
134.47
119.18
97.7
70.4
38.22
2.63
-34.66
-70.69
-101.28
-121.83
-128.29
-119.41
-97.94
-70.15
-43.97
-25.91
-18.4
-19.73
-26.04
-32.98
-38.45
-42.54
-46.15
-49.93
-53.49
-55.61
-55.29
-53.15
-50.33
-48.56
-49.35
-53.36
-60.16
-68.9
-78.94
-90.05
-102.84
-118.01
-135.92
-155.85
-176.13
-193.64
-204.84
-206.65
-197.25
-176.39
-145.29
-106.39
-62.8
-17.51
25.85
64.72
97.31
122.57
140.09
150.23
153.84
152.0
146.84
139.47
131.14
122.77
114.82
107.46
100.67
94.34
88.16
82.08
76.02
70.13
64.51
59.19
54.18
49.45
44.95
40.63
36.5
32.5
28.69
25.14
21.86
18.85
16.13
13.62
11.29
9.15
7.14
5.28
3.63
2.18
0.96
-0.02
-0.84
-1.52
-2.16
-2.82
-3.48
-4.04
-4.37
-4.32
-3.65
-2.1
0.61
4.66
10.16
17.1
25.26
34.24
43.3
51.98
59.06
63.55
64.73
62.36
56.58
48.08
37.8
26.77
15.91
5.83
-3.22
-11.22
-18.22
-24.32
-29.25
-32.69
-34.33
-34.1
-32.31
-29.49
-26.28
-23.04
-19.92
-16.56
-12.38
-7.0
-0.57
6.17
12.2
16.6
19.0
19.62
19.5
19.89
21.79
25.77
31.92
39.89
48.56
56.04
59.74
57.3
47.37
30.67
10.2
-9.69
-24.84
-32.91
-34.02
-30.36
-24.82
-19.49
-14.87
-10.19
-4.29
2.92
10.05
14.81
15.04
9.69
-0.59
-13.9
-28.43
-41.97
-53.65
-63.75
-72.9
-81.27
-88.38
-93.19
-94.8
-93.0
-88.28
-81.81
-74.68
-67.44
-60.01
-52.05
-43.29
-34.02
-25.13
-17.9
-13.49
-12.2
-12.92
-13.38
-10.97
-3.78
8.42
24.16
40.82
55.66
66.51
72.28
72.82
68.6
60.73
50.59
39.8
29.95
22.11
16.61
12.89
9.92
6.61
2.34
-2.8
-8.23
-13.03
-16.62
-18.92
-20.32
-21.4
-22.62
-24.08
-25.46
-26.39
-26.52
-25.83
-24.48
-22.77
-20.92
-19.24
-17.97
-17.29
-17.13
-17.15
-16.82
-15.57
-13.22
-9.94
-6.24
-2.68
0.43
3.11
5.6
7.97
9.91
10.61
9.18
4.95
-2.05
-11.13
-21.13
-30.63
-38.47
-43.9
-46.68
-46.91
-45.04
-41.75
-37.91
-34.52
-32.33
-31.66
-32.09
-32.51
-31.23
-26.7
-17.87
-4.55
12.22
30.6
48.18
62.64
72.43
77.26
78.02
76.36
74.14
72.63
72.46
73.47
74.96
76.05
75.81
73.5
68.77
61.93
53.85
46.04
40.12
37.22
37.71
40.86
45.19
49.04
50.94
49.92
45.73
38.56
28.58
15.57
-1.57
-24.11
-52.58
-85.71
-120.06
-150.46
-171.63
-179.88
-174.21
-156.46
-130.17
-99.24
