-14.31
-12.31
-8.74
-4.25
0.4
4.25
6.63
6.93
4.92
0.86
-4.34
-9.09
-11.51
-9.93
-3.74
6.39
18.51
30.06
38.76
43.21
43.28
39.8
34.15
27.68
21.36
15.79
11.24
7.83
5.54
4.41
4.36
5.34
7.07
9.14
10.96
11.92
11.62
9.88
7.05
3.56
-0.07
-3.5
-6.76
-9.88
-13.07
-16.37
-19.7
-22.66
-24.77
-25.55
-24.86
-23.1
-21.07
-19.94
-20.36
-22.32
-24.95
-26.79
-26.32
-22.41
-14.73
-3.65
9.65
23.59
36.35
46.19
51.79
52.73
49.55
43.44
35.97
28.4
21.59
15.93
11.52
8.35
6.36
5.41
5.15
5.32
5.7
6.3
7.15
8.16
9.04
9.29
8.54
6.66
3.92
0.81
-2.2
-4.92
-7.42
-9.86
-12.38
-14.9
-17.3
-19.49
-21.62
-23.95
-26.71
-29.89
-33.16
-36.02
-37.8
-37.91
-35.81
-31.19
-23.86
-13.96
-2.07
10.9
23.6
34.53
42.33
46.1
45.61
41.46
34.85
27.19
19.84
13.59
8.81
5.43
3.24
2.08
1.74
2.0
2.38
2.46
1.95
1.01
0.03
-0.62
-0.86
-1.05
-1.74
-3.51
-6.52
-10.55
-15.05
-19.4
-23.07
-25.7
-27.05
-27.16
-26.31
-25.05
-24.05
-23.86
-24.49
-25.48
-25.79
-24.2
-19.7
-11.83
-0.9
12.0
25.19
36.94
45.58
50.01
49.81
45.36
37.83
28.83
20.06
12.71
7.44
4.07
2.01
0.63
-0.45
-1.2
-1.47
-1.14
-0.39
0.54
1.4
2.22
3.15
4.2
5.19
5.58
4.77
2.31
-1.73
-6.78
-11.95
-16.36
-19.59
-21.58
-22.72
-23.69
-25.09
-27.29
-30.17
-33.01
-34.6
-33.63
-29.11
-20.83
-9.52
3.37
16.08
26.99
34.89
39.26
39.96
37.37
32.24
25.64
18.67
12.14
6.5
1.66
-2.63
-6.67
-10.57
-14.27
-17.69
-20.9
-24.1
-27.49
-31.05
-34.6
-38.03
-41.44
-45.26
-49.98
-55.77
-62.26
-68.43
-73.01
-74.85
-73.51
-69.35
-63.6
-57.92
-53.69
-51.68
-51.8
-53.32
-55.17
-56.56
-57.16
-57.02
-56.4
-55.32
-53.86
-52.04
-49.9
-46.77
-40.86
-29.46
-10.01
18.07
52.24
86.82
115.2
132.27
136.61
130.64
118.9
105.76
93.67
83.09
73.49
64.87
58.03
54.07
53.36
54.9
56.7
56.56
53.29
46.93
38.88
30.93
24.5
20.08
17.06
14.34
10.74
5.76
-0.34
-6.56
-11.7
-14.81
-15.47
-14.09
-11.44
-8.57
-6.24
-4.72
-3.6
-1.96
1.27
6.94
15.07
24.74
34.24
41.66
45.34
44.46
39.19
30.55
20.14
9.67
0.6
-6.22
-10.5
-12.58
-13.21
-13.13
-12.88
-12.52
-11.84
-10.48
-8.36
-5.62
-2.69
-0.11
1.74
2.61
2.48
1.37
-0.74
-3.75
-7.46
-11.48
-15.27
-18.3
-20.19
-20.73
-20.14
-19.04
-18.31
-18.75
-20.54
-22.93
-24.3
-22.86
-17.31
-7.62
4.94
18.29
30.26
39.3
44.71
46.5
44.95
40.56
33.93
25.84
17.27
9.19
2.42
-2.56
-5.59
-6.78
-6.41
-4.85
-2.59
-0.18
1.82
3.02
3.22
2.43
0.82
-1.43
-4.1
-7.08
-10.18
-13.25
-16.01
-18.32
-20.17
-21.65
-22.99
-24.33
-25.77
-27.16
-28.31
-29.05
-29.24
-28.87
-27.79
-25.68
-21.86
-15.77
-7.1
3.71
15.49
26.61
35.47
40.96
42.76
41.42
37.86
33.21
28.19
23.13
18.04
12.83
7.52
2.36
-2.12
-5.45
-7.28
-7.7
-7.15
-6.12
-5.12
-4.47
-4.27
-4.4
-4.74
-5.08
-5.33
-5.52
-5.71
-6.16
-7.05
-8.53
-10.57
-12.96
-15.33
-17.25
-18.35
-18.32
-17.23
-15.36
-13.1
-10.67
-7.91
-4.22
1.09
8.27
17.02
26.11
34.02
39.27
41.07
39.46
35.21
29.48
23.22
17.07
11.18
5.59
0.29
-4.55
-8.47
-11.03
-11.93
-11.38
-9.94
-8.39
-7.34
-7.08
-7.49
-8.21
-8.99
-9.9
-11.25
-13.4
-16.44
-20.06
-23.54
-26.14
-27.24
-26.67
-24.77
-22.15
-19.54
-17.37
-15.79
-14.48
-12.84
-10.15
-5.86
0.22
7.83
16.15
24.2
30.89
35.5
37.68
37.49
35.31
31.56
26.68
21.0
14.99
9.05
3.77
-0.35
-3.01
-4.14
-4.03
-3.19
-2.3
-1.84
-2.06
-2.89
-4.01
-5.05
-5.7
-5.96
-6.09
-6.66
-8.09
-10.55
-13.75
-17.0
-19.7
-21.35
-22.02
-22.0
-21.7
-21.4
-21.05
-20.4
-19.0
-16.54
-12.59
-6.99
0.29
8.84
17.94
26.56
33.7
38.62
40.84
40.36
37.41
32.57
26.59
20.31
14.52
9.71
6.08
3.31
1.04
-1.15
-3.35
-5.47
-7.44
-9.23
-10.92
-12.49
-13.84
-14.64
-14.63
-13.91
-12.93
-12.52
-13.35
-15.72
-19.3
-23.41
-27.15
-29.84
-31.15
-30.99
-29.63
-27.35
-24.46
-21.1
-17.27
-12.61
-6.86
0.16
8.35
17.12
25.63
32.85
37.94
40.36
40.17
37.83
34.12
29.94
25.81
21.96
18.38
15.11
12.3
10.43
9.86
10.64
12.38
14.21
15.36
15.39
14.37
12.67
10.68
8.55
6.18
3.48
0.4
-2.82
-5.9
-8.58
-10.85
-12.84
-14.73
-16.64
-18.35
-19.68
-20.36
-20.22
-19.33
-17.85
-16.02
-14.03
-11.86
-9.09
-5.3
-0.07
6.57
13.94
20.85
25.9
28.01
26.76
22.65
16.67
10.02
3.56
-2.36
-7.54
-11.94
-15.34
-17.46
-18.04
-17.05
-14.66
-11.31
-7.65
-4.15
-1.23
0.9
2.17
2.6
2.25
1.27
-0.22
-2.21
-4.67
-7.7
-11.29
-15.21
-19.05
-22.3
-24.48
-25.29
-24.78
-23.27
-21.25
-19.13
-17.06
-14.98
-12.64
-9.66
-5.69
-0.58
5.6
12.3
18.65
23.68
26.54
26.92
25.06
21.57
17.12
12.24
7.25
2.32
-2.18
-5.8
-8.0
-8.46
-7.29
-5.06
-2.52
-0.29
1.21
1.97
2.12
1.89
1.4
0.61
-0.7
-2.93
-6.44
-11.46
-17.7
-24.56
-31.23
-37.06
-41.89
-45.96
-49.7
-53.26
-56.32
-58.08
-57.74
-54.76
-48.92
-40.22
-28.63
-14.23
2.41
19.9
36.26
49.5
58.57
63.85
66.78
69.07
71.33
72.9
71.98
67.18
58.34
47.08
35.96
27.4
22.55
21.02
21.38
22.02
21.79
20.4
18.05
15.04
11.36
6.77
0.96
-6.08
-13.81
-21.3
-27.39
-31.1
-31.95
-30.38
-27.42
-24.52
-22.78
-22.6
-23.47
-24.32
-24.24
-22.83
-20.77
-19.08
-18.82
-20.4
-23.27
-26.28
-27.83
-26.58
-21.5
-12.5
-0.26
13.43
26.29
36.17
41.63
42.62
40.15
35.84
30.92
26.08
21.28
16.4
11.73
7.76
5.3
4.54
5.21
6.18
6.38
5.07
2.39
-0.78
-3.28
-4.26
-3.58
-1.82
0.08
1.23
1.34
0.49
-0.9
-2.63
-4.56
-6.88
-9.5
-12.1
-14.21
-15.5
-16.19
-16.77
-18.05
-20.46
-23.81
-27.39
-29.95
-30.59
-28.37
-23.21
-15.18
-5.05
6.26
17.38
27.17
34.59
39.32
41.48
41.56
40.12
37.58
34.04
29.49
23.85
17.16
9.74
2.11
-5.08
-11.21
-15.8
-18.77
-20.13
-20.3
-19.48
-17.94
-15.77
-13.08
-9.95
-6.67
-3.68
-1.35
-0.27
-0.6
-2.46
-5.58
-9.73
-14.42
-19.21
-23.59
-26.9
-28.74
-28.86
-27.44
-24.82
-21.34
-16.87
-11.16
-3.72
5.43
15.72
25.89
34.8
41.36
45.46
47.11
46.95
45.18
42.1
37.59
31.91
25.31
18.29
11.41
5.1
-0.34
-4.86
-8.6
-11.76
-14.61
-17.11
-19.41
-21.2
-22.43
-22.73
-22.05
-20.29
-17.62
-14.37
-10.98
-7.9
-5.39
-3.62
-2.87
-3.22
-4.85
-7.48
-10.9
-14.42
-17.82
-20.71
-23.14
-24.87
-25.54
-24.45
-21.14
-15.51
-8.1
0.23
8.49
16.18
22.86
28.65
33.38
36.98
39.14
39.87
39.1
37.09
34.27
31.16
28.22
25.53
22.8
19.57
15.44
10.49
5.15
0.29
-3.69
-6.62
-9.04
-11.59
-14.79
-18.75
-23.21
-27.6
-31.18
-33.25
-33.1
-30.45
-25.58
-19.33
-13.15
-8.21
-5.4
-4.66
-5.74
-7.86
-10.58
-13.1
-14.72
-14.4
-11.42
-5.61
2.12
10.0
16.04
18.81
18.09
14.95
11.02
7.92
6.26
6.03
6.6
7.72
9.45
12.15
15.88
20.07
23.79
25.79
25.57
23.26
19.67
15.73
11.82
7.97
3.76
-0.9
-5.96
-10.82
-15.15
-18.8
-22.15
-25.66
-29.48
-33.3
-36.3
-37.81
-37.44
-35.55
-33.01
-30.73
-29.25
-28.3
-26.96
-24.01
-18.5
-9.99
0.93
12.92
24.48
33.84
39.83
41.8
40.06
35.51
29.66
23.81
18.93
15.17
12.14
9.06
5.46
1.37
-2.74
-6.36
-9.27
-11.62
-13.87
-16.27
-18.72
-20.61
-21.31
-20.64
-18.85
-16.76
-15.19
-14.63
-15.14
-16.37
-17.79
-19.0
-19.75
-19.85
-19.25
-18.13
-16.66
-15.19
-13.82
-12.43
-10.48
-7.41
-2.74
3.27
9.92
15.99
20.54
22.8
22.62
20.45
16.76
12.34
7.66
3.26
-0.7
-4.08
-6.94
-9.15
-10.42
-10.17
-7.76
-2.92
4.21
12.79
21.55
29.31
35.24
39.14
41.3
42.08
41.6
39.78
36.26
30.99
24.28
16.79
9.5
3.1
-2.06
-6.17
-9.72
-13.14
-16.61
-19.81
-22.25
-23.3
-22.56
-19.66
-14.48
-7.0
2.46
13.21
24.12
33.72
40.6
43.73
43.0
39.06
33.09
26.18
19.1
12.17
5.49
-0.8
-6.44
-10.93
-13.9
-15.23
-15.16
-14.18
-12.91
-11.9
-11.45
-11.84
-12.99
-14.7
-16.61
-18.42
-20.05
-21.65
-23.5
-25.63
-27.85
-29.49
-29.84
-28.37
-25.13
-20.71
-16.09
-12.45
-10.65
-11.17
-13.59
-16.56
-17.95
-15.63
-8.47
3.01
16.51
28.97
37.8
41.89
41.75
38.92
35.02
30.88
26.7
22.27
17.71
13.5
10.28
8.52
8.15
8.87
10.15
11.49
12.48
12.88
12.59
11.73
10.63
9.46
8.33
6.99
5.02
2.0
-2.11
-6.92
-11.8
-15.9
-18.83
-20.39
-20.94
-21.05
-21.32
-22.14
-23.54
-25.46
-27.54
-29.35
-30.08
-28.76
-24.39
-16.4
-5.23
7.55
19.54
28.45
32.84
32.7
29.3
24.24
18.84
13.59
8.44
3.26
-1.67
-5.75
-8.46
-9.57
-9.48
-8.69
-7.9
-7.38
-7.2
-7.19
-7.13
-6.89
-6.31
-5.49
-4.49
-3.72
-3.51
-4.21
-5.94
-8.51
-11.61
-14.72
-17.49
-19.53
-20.8
-21.38
-21.53
-21.5
-21.2
-20.15
-17.47
-12.4
-4.55
5.55
16.59
26.73
34.25
38.1
38.14
35.13
30.27
24.93
20.1
16.38
13.86
12.33
11.47
11.03
10.92
11.08
11.48
11.98
12.35
12.38
11.82
10.57
8.48
5.51
1.67
-2.88
-7.84
-12.85
-17.5
-21.53
-24.64
-26.63
-27.26
-26.46
-24.45
-21.83
-19.5
-18.26
-18.38
-19.36
-20.01
-18.91
-15.03
-8.21
0.63
9.94
18.1
23.87
26.84
27.26
25.81
23.23
20.09
16.87
13.9
11.54
10.07
9.5
9.57
9.83
9.76
9.09
7.87
6.45
5.16
4.2
3.56
2.93
2.09
0.92
-0.59
-2.35
-4.38
-6.87
-9.99
-13.74
-17.88
-21.9
-25.11
-27.11
-27.76
-27.4
-26.61
-25.92
-25.49
-24.92
-23.43
-20.13
-14.47
-6.4
3.35
13.58
22.94
30.18
34.48
35.56
33.63
29.29
23.48
17.19
11.31
6.53
3.15
1.17
0.46
0.83
2.11
4.11
6.51
8.74
10.27
10.55
9.34
6.68
2.87
-1.6
-6.33
-11.0
-15.39
-19.43
-23.09
-26.27
-28.78
-30.34
-30.66
-29.77
-28.05
-26.24
-25.06
-24.9
-25.36
-25.36
-23.56
-18.93
-11.37
-1.72
8.47
17.65
24.6
28.82
30.36
29.54
26.91
22.99
18.41
13.86
10.1
7.71
6.93
7.62
9.28
11.31
13.1
14.31
14.83
14.81
14.51
14.24
14.26
14.49
14.56
13.84
11.8
8.26
3.58
-1.33
-5.41
-7.8
-8.44
-7.9
-7.24
-7.32
-8.48
-10.44
-12.27
-12.75
-10.81
-5.9
1.85
11.52
21.61
30.43
36.46
38.94
37.92
34.31
29.43
24.55
20.55
17.71
15.94
14.87
14.17
13.58
12.9
11.99
10.66
8.79
6.21
3.17
-0.03
-2.83
-4.8
-5.77
-5.92
-6.01
-7.05
-10.14
-15.82
-23.81
-32.82
-41.0
-46.53
-48.28
-46.36
-41.84
-36.29
-31.02
-26.54
-22.55
-18.38
-13.43
-7.45
-0.84
5.73
11.37
15.28
16.82
15.74
12.15
6.54
-0.16
-7.11
-13.46
-18.77
-22.87
-25.79
-27.72
-28.72
-28.9
-28.19
-26.59
-23.92
-20.1
-15.11
-9.09
-2.54
3.83
9.12
12.5
13.42
11.88
8.4
3.87
-0.69
-4.57
-7.38
-9.29
-10.64
-11.86
-13.14
-14.39
-15.37
-15.76
-15.48
-14.59
-13.21
-11.34
-8.5
-4.11
2.61
11.61
22.23
32.66
41.04
45.63
45.85
42.25
36.25
29.48
23.14
17.74
13.29
9.56
6.56
4.41
3.5
3.79
5.11
6.82
8.43
9.44
9.73
9.28
8.11
6.35
4.08
1.48
-1.29
-4.15
-7.11
-10.4
-13.88
-17.39
-20.22
-21.91
-21.99
-20.62
-18.27
-15.74
-13.74
-12.63
-12.58
-13.27
-14.26
-14.71
-13.79
-10.85
-5.76
0.91
8.12
14.54
19.26
21.84
22.51
21.74
19.9
17.43
14.46
11.32
8.13
5.23
2.67
0.59
-1.08
-2.22
-2.79
-2.72
-2.14
-1.22
-0.21
0.77
1.61
2.31
2.67
2.59
1.71
-0.11
-2.99
-6.63
-10.65
-14.39
-17.25
-18.68
-18.54
-17.03
-14.61
-11.97
-9.58
-7.69
-6.17
-4.66
-2.78
-0.1
3.57
8.31
13.78
19.24
23.6
25.78
25.12
21.6
16.07
9.71
3.88
-0.69
-3.78
-5.8
-7.19
-8.26
-8.81
-8.44
-6.79
-4.02
-0.64
2.44
4.45
4.78
3.67
1.56
-0.61
-2.37
-3.35
-3.93
-4.62
-6.17
-8.92
-12.94
-17.65
-22.41
-26.51
-29.7
-31.99
-33.77
-35.23
-36.5
-37.31
-37.52
-36.98
-35.7
-33.26
-28.96
-21.66
-10.62
3.92
20.21
35.37
46.22
50.77
48.75
41.85
32.64
23.72
16.44
10.99
6.47
1.99
-2.9
-7.8
-11.85
-14.16
-14.4
-12.86
-10.32
-7.54
-4.89
-2.25
0.61
3.72
6.82
9.88
13.53
19.19
28.34
41.37
56.82
71.36
80.98
82.45
74.72
58.97
38.12
15.51
-6.12
-25.0
-40.18
-50.96
-56.61
-56.38
-50.02
-38.15
-22.43
-5.38
10.2
21.95
28.64
30.38
28.34
24.09
18.98
13.78
8.78
3.98
-0.6
-4.7
-7.87
-9.58
-9.5
-7.79
-5.06
-2.15
0.2
1.68
2.48
3.03
3.68
4.49
5.08
4.95
3.73
1.33
-1.94
-5.6
-9.17
-12.41
-15.29
-17.96
-20.53
-22.95
-25.08
-26.66
-27.5
-27.59
-26.88
-25.28
-22.37
-17.65
-10.74
-1.83
8.2
17.91
25.6
30.21
31.42
29.88
26.69
22.89
19.03
15.25
11.49
7.58
3.8
0.59
-1.51
-2.17
-1.35
0.65
3.29
6.0
8.36
10.53
13.1
16.8
22.0
28.18
33.89
37.19
36.63
31.67
23.15
12.64
1.74
-8.48
-17.64
-25.69
-32.69
-38.42
-42.65
-45.17
-45.95
-44.85
-41.55
-35.65
-26.9
-15.64
-2.8
10.1
21.43
29.84
34.53
35.38
32.76
27.5
20.69
13.49
6.93
1.62
-2.2
-4.67
-6.0
-6.4
-5.99
-4.9
-3.24
-1.24
0.86
2.91
4.71
6.13
7.02
7.31
6.9
5.84
4.07
1.43
-2.28
-7.2
-13.08
-19.31
-24.99
-29.31
-31.91
-33.02
-33.3
-33.45
-33.83
-34.19
-33.68
-31.18
-25.8
-17.26
-6.08
6.49
18.83
29.35
36.85
40.71
40.98
38.22
33.29
27.19
20.85
15.01
10.16
6.58
4.33
3.32
3.43
4.39
5.99
7.85
9.58
10.78
11.17
10.53
8.86
6.31
3.19
-0.13
-3.43
-6.55
-9.59
-12.69
-15.88
-19.04
-21.96
-24.37
-26.14
-27.34
-28.06
-28.4
-28.34
-27.74
-26.45
-24.52
-22.14
-19.41
-16.22
-12.13
-6.57
0.56
8.78
16.87
23.3
26.75
26.73
23.64
18.69
13.26
8.42
4.77
2.37
1.07
0.59
0.81
1.55
2.59
3.63
4.33
4.52
4.31
4.03
3.97
4.34
4.88
5.09
4.52
2.9
0.38
-2.58
-5.39
-7.61
-9.06
-9.87
-10.33
-10.64
-10.91
-11.07
-11.06
-10.92
-10.82
-11.01
-11.58
-12.24
-12.16
-10.25
-5.62
1.98
11.78
22.2
31.31
37.58
40.25
39.51
36.23
31.46
26.16
20.86
15.89
11.32
7.24
3.74
0.96
-0.97
-1.84
-1.51
-0.08
2.14
4.57
6.4
6.96
5.85
3.2
-0.37
-3.86
-6.35
-7.34
-6.99
-6.09
-5.54
-6.01
-7.54
-9.82
-12.35
-14.82
-17.17
-19.35
-21.14
-22.31
-23.05
-24.1
-26.77
-32.05
-39.79
-48.12
-53.8
-53.53
-45.29
-29.61
-9.29
11.5
28.86
40.48
45.96
46.63
44.46
41.29
38.2
35.62
33.49
31.66
30.19
29.2
28.71
28.49
28.14
27.39
26.31
25.18
24.4
23.96
23.16
20.83
15.71
7.19
-4.05
-16.32
-27.39
-35.39
-39.46
-40.25
-39.28
-38.59
-39.73
-43.16
-48.36
-53.95
-58.51
-60.85
-60.39
-56.93
-50.66
-41.95
-31.09
-18.45
-4.37
10.56
25.38
38.66
48.88
54.72
55.64
52.19
45.76
38.23
31.14
25.24
20.53
16.65
13.39
10.85
9.39
9.12
9.86
10.99
11.69
11.41
9.93
7.56
4.97
2.86
1.67
1.4
1.53
1.19
-0.34
-3.34
-7.33
-11.38
-14.29
-15.28
-14.17
-11.7
-9.28
-8.45
-10.43
-15.36
-22.19
-28.91
-33.26
-33.56
-29.23
-20.98
-10.12
1.69
13.08
22.93
30.38
34.7
35.46
32.68
27.06
19.93
12.8
7.11
3.78
2.85
3.53
4.4
4.02
1.43
-3.2
-8.89
-14.09
-17.57
-19.06
-19.15
-19.0
-19.57
-21.27
-23.74
-26.31
-28.31
-29.4
-29.7
-29.47
-29.08
-28.72
-28.53
-28.45
-28.3
-27.78
-26.41
-23.62
-18.57
-10.56
0.69
14.65
29.78
43.75
54.17
59.42
59.11
54.23
46.5
37.75
29.38
22.08
16.07
11.3
7.67
4.97
3.01
1.47
0.15
-0.98
-1.77
-2.03
-1.68
-0.87
0.01
0.55
0.31
-0.97
-3.37
-6.7
-10.45
-13.77
-15.87
-16.34
-15.59
-14.82
-15.65
-19.22
-25.55
-33.16
-39.55
-42.1
-38.94
-29.76
-15.83
0.5
16.5
29.75
38.6
42.32
41.11
35.96
28.38
20.06
12.53
6.82
3.28
1.79
1.8
2.71
4.09
5.67
7.2
8.45
8.97
8.49
6.86
4.44
1.71
-0.78
-2.91
-4.97
-7.56
-11.13
-15.62
-20.52
-24.82
-27.62
-28.6
-28.09
-26.98
-26.26
-26.48
-27.47
-28.43
-28.09
-25.36
-19.64
-11.07
-0.47
10.86
21.35
29.67
34.82
36.4
34.59
29.99
23.51
16.06
8.59
1.77
-3.79
-7.89
-10.57
-12.21
-13.3
-14.08
-14.64
-14.75
-14.22
-12.76
-10.16
-6.13
-0.47
6.57
14.08
20.23
23.06
21.02
13.85
2.72
-10.18
-22.51
-32.63
-39.77
-44.17
-46.39
-47.11
-46.57
-44.51
-40.06
-31.79
-18.52
0.28
23.66
49.24
73.6
93.23
105.36
108.76
103.91
92.49
77.1
60.36
44.52
31.13
20.98
14.1
9.97
7.85
6.92
6.56
6.39
6.27
6.25
6.4
6.69
6.9
6.65
5.61
3.75
1.29
-1.48
-4.24
-6.89
-9.47
-12.12
-14.97
-18.06
-21.29
-24.53
-27.49
-29.86
-31.35
-31.88
-31.61
-30.85
-29.86
-28.6
-26.61
-23.18
-17.67
-9.93
-0.53
9.33
18.19
24.68
27.9
27.78
24.91
20.43
15.49
10.92
7.02
3.63
0.49
-2.5
-5.12
-7.0
-7.88
-7.77
-7.04
-6.11
-5.2
-4.19
-2.78
-0.7
1.93
4.49
6.05
5.72
3.09
-1.57
-7.31
-12.91
-17.29
-19.95
-21.0
-21.03
-20.76
-20.69
-20.97
-21.4
-21.57
-20.93
-18.98
-15.25
-9.37
-1.32
8.4
18.66
27.87
34.51
37.63
37.25
34.2
29.77
25.01
20.49
16.21
12.0
7.8
3.89
0.73
-1.4
-2.46
-2.71
-2.45
-1.96
-1.4
-0.97
-0.84
-1.21
-2.09
-3.25
-4.38
-5.1
-5.42
-5.69
-6.39
-7.9
-10.25
-13.1
-15.97
-18.6
-20.97
-23.2
-25.29
-26.96
-27.77
-27.42
-26.03
-24.04
-21.94
-19.92
-17.46
-13.62
-7.52
1.06
11.36
21.78
30.54
36.23
38.32
37.28
34.16
30.2
26.26
22.76
19.62
16.58
13.46
10.34
7.6
5.65
4.87
5.41
7.12
9.54
12.09
14.1
15.03
14.59
12.86
10.29
7.64
5.7
4.91
5.1
5.54
5.28
3.61
0.55
-3.31
-7.01
-9.75
-11.15
-11.31
-10.76
-10.23
-10.48
-12.23
-15.88
-21.35
-27.89
-34.15
-38.54
-39.76
-37.21
-31.21
-22.76
-13.23
-3.91
4.08
9.91
13.2
14.03
13.01
11.05
9.14
7.85
7.36
7.31
7.13
6.47
5.32
3.97
2.79
2.03
1.6
1.41
1.33
1.44
1.89
2.68
3.54
3.94
3.45
1.95
-0.17
-2.25
-3.87
-5.0
-6.21
-8.25
-11.67
-16.41
-21.88
-27.16
-31.35
-34.03
-35.16
-35.24
-34.88
-34.71
-35.0
-35.56
-35.57
-33.87
-29.45
-21.74
-11.25
0.61
11.78
20.25
24.6
24.61
21.33
16.7
13.06
12.23
14.9
20.51
27.54
34.08
38.57
40.26
39.17
36.08
31.9
27.43
23.27
19.54
16.16
12.98
10.07
7.63
6.07
5.62
6.05
6.53
5.68
2.26
-4.21
-12.97
-22.37
-30.45
-35.9
-38.47
-38.87
-38.23
-37.49
-36.94
-36.33
-35.31
-33.63
-31.29
-28.18
-23.72
-17.08
-7.56
4.73
18.4
31.11
40.36
44.59
43.69
39.11
32.92
26.89
21.96
18.08
14.87
12.12
10.02
8.91
9.02
10.11
11.61
12.94
13.68
13.74
13.22
12.22
10.77
8.87
6.49
3.7
0.63
-2.69
-6.09
-9.38
-12.45
-15.13
-17.22
-18.58
-19.21
-19.2
-19.11
-19.7
-21.68
-25.47
-30.62
-36.04
-40.16
-41.66
-39.83
-34.77
-26.99
-16.94
-5.11
8.09
21.6
33.75
42.56
46.5
45.21
39.74
32.23
24.83
19.2
15.66
13.66
12.36
11.17
10.19
9.9
10.84
13.0
15.94
18.77
