-11.78
-18.93
-26.15
-31.99
-36.01
-38.83
-41.57
-45.17
-50.06
-56.15
-62.95
-69.5
-74.25
-75.2
-70.52
-59.62
-43.75
-25.9
-9.56
2.68
10.11
13.77
15.51
16.9
18.56
20.31
21.68
22.36
22.33
21.75
21.02
20.7
21.67
24.76
30.42
38.21
46.92
54.99
61.31
65.51
67.64
67.68
65.17
59.66
51.21
40.9
30.43
21.15
13.22
5.57
-3.05
-12.83
-22.12
-28.01
-27.72
-20.18
-6.7
9.58
25.16
37.41
44.98
47.59
45.23
37.92
25.87
9.9
-8.21
-25.95
-40.73
-50.63
-54.73
-53.22
-47.0
-37.35
-25.58
-12.8
0.04
12.02
22.14
29.42
33.05
32.91
29.74
24.99
20.4
17.22
15.92
16.13
17.24
18.81
20.85
23.58
26.78
29.67
30.98
29.81
26.14
21.11
16.4
13.38
12.3
12.17
11.49
8.98
4.3
-2.0
-8.95
-15.88
-22.6
-29.28
-35.94
-42.25
-47.71
-52.12
-55.77
-59.27
-62.89
-66.07
-67.49
-65.7
-60.06
-51.13
-40.6
-30.39
-21.86
-15.42
-10.78
-7.4
-4.92
-3.33
-2.73
-3.16
-4.34
-5.76
-6.68
-6.56
-5.24
-3.26
-1.87
-2.56
-6.33
-13.04
-21.29
-29.07
-34.64
-37.38
-37.91
-37.56
-37.65
-38.97
-41.94
-46.76
-53.24
-60.17
-64.98
-64.07
-54.19
-34.29
-6.39
24.73
53.47
75.49
89.11
95.06
95.29
91.71
85.51
77.48
68.58
60.25
54.05
50.86
50.29
50.84
50.76
49.13
46.75
45.94
49.48
59.0
73.63
89.85
102.87
108.58
105.23
94.01
77.8
59.44
40.56
21.41
1.86
-17.37
-34.5
-47.37
-54.49
-55.96
-53.34
-48.8
-44.12
-40.23
-37.06
-34.26
-31.61
-29.36
-28.22
-29.13
-32.82
-39.48
-48.62
-59.0
-69.14
-77.7
-83.83
-87.24
-87.94
-85.93
-81.28
-74.3
-65.69
-56.68
-48.56
-42.34
-38.41
-36.4
-35.5
-34.74
-33.29
-30.46
-25.66
-18.46
-8.68
3.33
16.54
29.2
39.06
43.7
41.3
31.25
14.58
-6.02
-27.19
-45.96
-60.88
-72.3
-82.07
-92.44
-104.93
-119.94
-136.78
-154.35
-171.65
-188.17
-203.55
-217.07
-227.64
-233.75
-234.07
-228.02
-215.82
-198.5
-177.43
-154.25
-131.17
-111.78
-101.51
-106.78
-132.28
-177.8
-236.28
-294.75
-338.53
-356.67
-346.18
-312.6
-266.98
-220.66
-180.99
-150.08
-126.13
-106.4
-89.36
-75.03
-63.7
-54.63
-45.63
-33.83
-17.36
3.67
26.99
48.81
65.39
74.5
76.28
73.05
68.36
65.59
66.97
72.89
82.12
92.56
102.27
110.22
116.58
122.47
129.18
137.46
146.98
156.48
163.96
167.24
164.83
156.4
142.87
126.04
108.08
90.87
76.07
64.55
56.07
49.18
41.2
29.13
10.9
-12.97
-38.44
-57.78
-62.7
-47.52
-11.39
41.22
102.51
164.09
219.6
265.83
304.06
336.58
365.13
390.36
412.25
431.24
448.65
465.9
483.64
504.96
530.88
560.1
589.46
615.25
635.39
650.26
662.2
674.34
695.1
729.81
778.44
835.42
891.59
938.27
970.01
984.95
983.52
974.72
965.42
957.95
949.89
936.25
913.33
881.08
842.55
752.62
586.31
341.15
42.73
-266.2
-546.13
-774.02
-943.8
-1060.33
-1133.4
-1166.0
-1161.92
-1127.14
-1070.85
-1004.2
-937.23
-876.51
-825.16
-783.67
-745.13
-703.47
-655.68
-602.85
-549.15
-499.2
-455.83
-420.08
-391.33
-364.44
-334.94
-300.7
-262.27
-222.27
-183.78
-149.09
-119.39
-94.81
-73.11
-52.22
-30.92
-9.47
11.02
29.46
44.98
57.19
66.04
72.16
75.72
76.34
73.09
65.15
52.46
35.67
16.49
-2.52
-18.69
-29.84
-34.82
-33.95
-28.28
-19.4
-9.5
-0.5
6.24
9.65
8.86
3.1
-8.5
-25.72
-47.29
-71.75
-96.78
-120.06
-139.95
-156.39
-171.0
-187.42
-210.13
-236.36
-266.98
-302.88
-343.48
-385.37
-422.05
-444.93
-446.51
-421.9
-371.29
-301.37
-221.74
-141.9
-68.65
-5.52
49.32
93.18
122.25
134.03
128.26
108.51
80.35
49.52
20.11
-5.6
-28.65
-50.05
-70.0
-88.55
-105.08
-118.79
-129.01
-135.63
-139.31
-141.67
-143.58
-145.07
-145.81
-144.94
-141.52
-134.75
-124.39
-110.81
-95.12
-78.33
-61.29
-44.92
-29.99
-17.27
-7.34
-0.66
2.6
2.53
-0.2
-4.5
-9.23
-13.21
-15.67
-16.25
-14.92
-11.93
-7.46
-1.59
5.74
14.47
24.56
35.71
47.45
59.27
70.75
81.81
92.56
103.31
114.36
126.32
139.7
154.84
171.94
190.92
211.65
233.72
256.61
279.84
304.23
330.63
359.23
388.76
416.07
436.76
446.36
441.98
423.65
396.48
367.2
341.64
322.93
311.63
307.43
310.61
322.37
343.28
374.26
411.75
448.31
475.64
489.12
490.45
486.24
483.7
486.19
495.67
509.39
522.29
529.11
525.54
508.46
475.36
424.41
331.47
189.35
9.29
-181.28
-351.45
-481.15
-566.14
-613.52
-634.26
-638.03
-627.62
-604.61
-571.79
-533.8
-496.04
-462.58
-435.12
-413.15
-395.14
-376.45
-353.87
-326.87
-297.45
-268.88
-243.89
-223.63
-207.79
-195.1
-182.4
-167.45
-149.69
-130.2
-110.73
-92.73
-76.6
-62.14
-48.53
-34.42
-19.18
-3.32
11.71
24.2
32.71
37.03
37.22
34.27
29.81
25.55
23.01
23.32
27.25
34.89
45.95
59.61
74.54
88.93
100.82
108.45
110.29
105.73
94.57
77.7
56.94
34.64
13.49
-3.9
-15.05
-18.6
-13.76
-1.36
17.25
40.2
65.24
90.36
113.64
134.07
150.91
164.33
174.37
181.63
186.8
190.44
192.89
193.94
192.84
187.54
180.29
170.96
158.92
143.48
124.16
100.92
74.36
45.9
17.49
-8.24
-29.37
-44.19
-51.49
-50.9
-42.93
-28.94
-10.63
10.13
31.64
51.92
69.29
82.5
90.46
92.1
86.63
73.97
54.8
30.56
2.97
-26.13
-54.74
-81.18
-104.29
-123.12
-136.82
-144.66
-145.97
-140.74
-130.02
-115.7
-100.52
-87.3
-78.28
-74.9
-77.98
-87.55
-102.34
-119.34
-133.5
-139.3
-133.06
-115.33
-91.62
-70.66
-60.76
-66.29
-86.03
-114.02
-142.87
-166.76
-183.39
-193.86
-200.79
-206.54
-212.11
-217.55
-222.71
-227.67
-232.04
-233.66
-228.3
-211.01
-179.15
-135.2
-87.56
-48.07
-27.42
-30.78
-55.96
-95.53
-141.22
-187.68
-233.4
-278.71
-322.75
-361.56
-389.31
-400.75
-393.58
-369.56
-333.73
-292.21
-250.46
-212.39
-180.11
-155.01
-138.21
-130.57
-132.25
-141.79
-155.74
-168.74
-174.8
-169.05
-149.59
-118.26
-79.47
-38.29
2.04
40.46
76.82
109.38
133.18
140.89
126.51
89.66
37.82
-14.75
-52.65
-65.28
-50.9
-16.28
27.34
69.93
106.01
134.75
157.42
174.07
182.51
180.2
167.06
147.06
127.17
113.85
109.41
110.7
110.67
102.33
82.84
54.96
25.47
1.97
-10.41
-10.67
-0.73
16.38
38.3
63.81
91.83
120.51
146.72
166.81
177.4
177.24
167.6
152.52
137.26
126.5
122.53
124.73
130.55
136.69
141.2
143.13
141.81
135.57
121.44
96.39
59.28
12.67
-37.43
-82.53
-114.67
-128.62
-123.29
-102.13
-71.94
-41.37
-18.44
-8.5
-12.64
-27.36
-45.96
-60.58
-65.06
-56.45
-35.49
-5.35
29.5
64.65
96.49
122.55
141.85
154.22
159.91
158.75
150.09
133.04
107.82
76.99
45.63
20.57
8.06
11.65
30.35
59.15
90.5
116.5
131.22
131.4
116.84
90.09
56.21
21.83
-6.28
-23.15
-26.85
-19.01
-4.2
11.8
23.54
27.3
21.76
8.26
-9.86
-28.35
-43.57
-53.78
-58.9
-59.68
-56.53
-49.0
-36.55
-19.65
-0.48
17.65
31.47
39.41
42.04
41.19
38.6
35.01
30.17
23.69
15.85
7.58
-0.06
-6.63
-12.69
-19.43
-27.94
-38.63
-50.57
-61.68
-69.45
-72.04
-69.18
-62.38
-54.27
-47.56
-44.37
-45.68
-51.59
-61.21
-73.09
-85.23
-95.33
-100.99
-100.42
-93.1
-79.8
-62.33
-42.59
-22.1
-2.0
16.39
31.43
41.64
46.63
47.99
48.97
53.06
62.38
76.3
91.91
105.45
114.15
116.91
113.95
105.65
91.87
72.47
48.22
21.73
-3.38
-23.67
-37.27
-44.03
-44.41
-38.09
-23.51
1.03
35.49
76.87
119.53
156.81
183.28
196.15
195.47
183.28
162.33
135.5
105.61
76.06
50.9
34.09
28.15
32.87
44.81
58.18
67.06
67.46
58.62
42.97
24.81
8.62
-2.42
-7.0
-5.53
0.44
8.95
17.86
24.89
27.65
24.12
13.31
-3.98
-24.98
-45.71
-62.41
-72.98
-77.47
-77.88
-76.82
-76.36
-77.23
-78.88
-80.14
-80.15
-78.74
-75.92
-71.93
-66.58
-59.52
-50.73
-40.83
-31.13
-23.14
-17.75
-14.54
-11.79
-7.37
0.16
10.39
21.16
29.53
33.21
31.67
26.17
19.01
12.4
7.58
4.46
2.32
0.38
-1.6
-3.12
-3.24
-1.13
3.38
9.51
15.48
19.3
19.56
16.03
9.49
1.12
-8.08
-17.56
-26.86
-35.19
-41.36
-44.14
-42.81
-37.36
-28.74
-18.42
-7.87
1.75
9.63
15.08
17.34
16.0
11.46
5.27
-0.35
-3.33
-2.85
0.47
4.93
8.78
10.93
11.14
9.72
6.91
2.84
-2.22
-7.27
-10.7
-10.67
-6.4
1.11
9.06
13.96
13.24
6.61
-3.71
-14.08
-21.19
-23.44
-21.43
-17.22
-12.96
-9.96
-8.03
-5.98
-2.31
3.92
12.6
22.53
32.02
39.79
45.33
49.08
51.85
54.23
56.34
57.78
58.03
56.92
54.69
51.79
48.7
45.59
42.37
38.82
34.6
29.52
23.53
17.01
10.87
6.29
4.21
4.68
6.49
7.63
6.31
2.06
-4.1
-10.12
-14.19
-15.59
-15.09
-13.92
-13.11
-12.72
-11.99
-10.19
-7.14
-3.58
-0.74
0.12
-1.44
-5.28
-10.72
-16.75
-22.35
-26.45
-28.09
-26.63
-22.22
-15.67
-8.36
-1.78
2.84
4.7
3.38
-0.97
-7.47
-14.78
-21.17
-25.33
-26.96
-26.74
-26.01
-25.92
-26.98
-28.97
-31.23
-32.84
-32.85
-30.66
-26.11
-20.02
-13.94
-9.7
-8.42
-9.76
-11.79
-12.12
-9.29
-3.44
3.76
10.32
15.01
17.74
19.08
19.66
19.64
19.13
18.62
18.91
20.81
24.38
28.76
32.53
34.29
33.2
29.23
22.92
14.91
6.1
-2.45
-9.34
-13.25
-13.65
-11.06
-7.09
-3.74
-2.63
-4.52
-9.25
-16.05
-23.68
-30.73
-35.48
-36.35
-32.21
-22.62
-8.14
9.78
29.03
47.38
62.71
73.27
77.99
76.57
70.06
60.49
50.36
41.55
34.74
29.12
23.25
15.8
6.23
-5.24
-18.07
-31.94
-46.64
-61.57
-75.18
-84.81
-87.49
-81.18
-65.73
-43.19
-17.11
8.64
30.8
47.35
57.72
62.55
63.4
62.41
61.76
62.94
65.99
69.11
69.13
62.77
48.04
25.39
-2.09
-29.72
-52.65
-67.29
-72.03
-67.25
-54.9
-38.02
-19.87
-3.2
10.39
20.99
29.79
38.16
46.34
53.11
56.45
55.01
49.42
42.08
35.76
31.53
27.74
20.43
4.9
-21.93
-60.1
-106.07
-153.39
-193.87
-219.5
-224.54
-207.2
-170.47
-121.2
-68.02
-18.48
22.46
52.9
72.85
83.0
84.11
77.1
63.47
45.14
23.92
0.61
-24.85
-52.22
-79.74
-103.07
-115.94
-112.23
-88.77
-47.0
6.76
63.06
112.01
145.94
160.78
156.16
134.43
99.34
55.43
7.94
-37.15
-73.77
-97.43
-106.8
-104.44
-95.7
-86.49
-80.83
-79.48
-80.43
-80.24
-75.68
-64.32
-44.86
-17.14
17.27
54.4
88.41
113.01
123.82
119.95
104.08
80.79
54.76
29.21
5.69
-15.27
-33.52
-48.73
-60.32
-67.37
-69.1
-64.89
-54.88
-40.15
-22.54
-4.3
12.71
27.37
39.29
48.24
54.04
56.41
55.29
51.21
44.87
36.98
27.88
17.61
6.17
-6.03
-18.1
-28.86
-36.98
-41.69
-42.75
-40.6
-36.02
-30.05
-23.43
-16.36
-8.77
-0.33
9.16
19.74
30.98
41.92
50.79
55.43
54.12
46.48
34.23
20.69
9.53
3.11
1.72
4.0
8.05
12.61
16.88
20.15
21.44
19.95
15.84
10.73
7.18
7.05
10.36
14.96
17.83
16.67
10.92
1.83
-8.49
-17.95
-25.12
-29.22
-29.95
-27.63
-23.23
-18.35
-14.69
-13.29
-14.08
-15.87
-16.85
-15.29
-10.32
-2.13
8.08
18.46
27.03
32.12
32.62
28.07
18.36
3.45
-16.41
-40.41
-66.97
-93.49
-116.48
-131.95
-135.94
-125.41
-99.3
-59.08
-8.98
44.71
95.06
136.0
163.3
175.18
172.14
156.65
132.41
103.66
74.17
46.65
22.06
-0.14
-21.3
-42.4
-63.2
-82.16
-97.18
-106.54
-109.3
-105.46
-95.23
-78.66
-55.61
-26.19
8.59
46.17
82.33
111.94
130.15
133.94
123.34
101.62
74.19
47.17
25.38
11.11
3.86
0.97
-1.13
-5.68
-14.8
-29.13
-47.74
-68.41
-88.17
-104.07
-114.12
-117.44
-114.19
-104.82
-89.86
-70.03
-46.73
-22.41
-0.21
16.82
26.78
29.51
26.3
19.02
9.27
-1.97
-14.0
-25.57
-34.87
-40.0
-39.67
-34.15
-25.3
-15.89
-8.69
-5.44
-6.17
-9.77
-14.37
-18.12
-19.7
-18.48
-14.37
-7.62
1.25
11.67
22.86
33.85
43.51
50.58
54.07
53.54
49.52
43.54
37.69
33.81
32.95
34.91
38.46
41.95
43.85
43.1
39.27
32.58
23.72
13.92
4.61
-2.87
-7.56
-9.11
-7.66
-3.75
2.15
9.74
18.68
28.28
37.4
44.59
48.51
48.49
44.64
37.8
29.21
20.13
11.48
3.95
-2.16
-6.98
-10.98
-15.06
-20.09
-26.48
-33.86
-41.32
-47.88
-53.01
-56.89
-60.22
-63.67
-67.15
-69.41
-68.46
-62.32
-50.11
-32.57
-11.89
9.02
27.14
40.16
46.61
45.93
38.53
25.9
10.45
-4.91
-17.32
-25.17
-28.23
-27.96
-26.65
-26.45
-28.6
-33.42
-40.55
-49.18
-57.97
-64.74
-66.54
-60.3
-44.05
-17.86
15.57
51.51
84.59
110.06
124.87
128.04
120.59
105.11
84.87
63.09
42.16
23.33
6.76
-7.95
-21.19
-33.04
-43.2
-51.62
-58.57
-64.74
-70.81
-76.9
-82.0
-84.0
-80.16
-68.26
-47.72
-20.36
9.83
37.87
59.47
72.32
76.36
73.15
64.75
52.91
38.77
23.18
6.87
-9.39
-25.0
-39.75
-53.68
-66.64
-77.79
-85.57
-88.07
-83.67
-71.6
-52.42
-28.02
-1.29
24.27
45.22
59.04
64.46
61.83
53.0
40.9
28.81
19.8
15.57
16.23
20.15
24.38
25.63
21.57
11.75
-2.21
-17.03
-29.33
-36.52
-37.59
-33.06
-24.35
-13.27
-1.62
8.97
17.36
22.76
24.97
24.43
21.84
18.22
14.41
10.93
8.01
5.76
4.18
3.33
3.42
4.61
6.95
10.02
13.15
15.66
17.3
18.36
19.48
21.11
23.13
24.92
25.61
24.75
22.63
19.99
17.43
15.09
12.52
8.94
4.07
-1.64
-7.24
-11.56
-14.01
-14.68
-14.2
-13.18
-11.97
-10.32
-7.77
-4.27
-0.45
2.22
2.31
-0.87
-6.52
-12.78
-17.49
-19.25
-17.86
-14.17
-9.38
-4.31
0.68
5.41
9.4
11.86
12.09
10.32
7.74
6.0
6.31
8.61
11.54
13.18
11.94
7.25
-0.35
-9.65
-19.24
-27.88
-34.56
-38.75
-40.17
-39.01
-35.82
-31.38
-26.42
-21.24
-15.88
-10.18
-4.29
1.53
6.85
11.22
14.35
16.06
16.35
15.36
13.51
11.4
9.76
9.03
9.26
9.9
10.2
9.35
7.05
3.52
-0.49
-4.03
-6.39
-7.19
-6.55
-4.87
-2.56
-0.03
2.33
3.97
4.32
2.87
-0.48
-5.16
-10.0
-13.62
-15.04
-14.35
-12.59
-11.23
-11.28
-12.61
-13.98
-13.81
-11.32
-6.82
-1.8
2.07
3.97
4.07
3.36
2.88
3.04
3.51
3.75
3.57
3.54
4.62
7.41
11.62
16.02
18.93
19.07
16.09
10.61
3.95
-2.61
-8.27
-12.82
-16.63
-20.4
-24.74
-29.99
-36.01
-42.14
-47.27
-50.47
-50.93
-48.34
-42.92
-35.19
-25.84
-15.64
-5.34
4.57
13.81
22.56
31.19
39.76
47.88
54.65
59.16
60.96
60.29
57.75
53.82
48.54
41.55
32.6
22.1
11.24
1.45
-6.28
-12.06
-17.0
-22.56
-29.73
-38.5
-47.97
-56.96
-64.92
-72.23
-80.24
-90.59
-104.32
-121.13
-139.02
-154.76
-164.79
-166.52
-159.52
-145.83
-129.58
-115.66
-107.84
-107.04
-111.04
-115.34
-114.92
-106.42
-89.54
-67.48
-46.49
-34.24
-37.63
-60.57
-101.9
-154.64
-206.92
-245.39
-259.31
-244.24
-203.42
-146.07
-83.63
-25.94
21.31
56.56
80.75
95.64
102.96
104.76
103.87
104.06
109.23
122.14
143.27
170.79
201.13
230.16
254.25
270.93
278.96
278.33
269.96
255.35
236.35
214.76
192.06
169.25
147.09
126.32
107.9
92.99
82.54
76.83
75.32
76.73
79.65
83.09
86.7
90.56
94.76
98.79
101.42
101.14
96.75
88.18
76.4
63.21
50.39
39.15
29.91
22.5
16.58
11.9
8.36
5.75
3.69
1.64
-0.84
-3.8
-6.87
-9.33
-10.69
-10.8
-9.92
-8.53
-7.0
-5.58
-4.34
-3.33
-2.57
-2.25
-2.48
-3.34
-4.77
-6.58
-8.6
-10.59
-12.44
-14.07
-15.64
-17.17
-18.8
-20.44
-21.94
-23.12
-23.72
-23.68
-23.07
-22.13
-21.12
-20.41
-20.28
-20.8
-21.95
-23.49
-25.14
-26.71
-28.04
-29.17
-30.2
-31.28
-32.28
-33.0
-33.02
-31.93
-29.54
-25.91
-21.4
-16.56
-12.02
-8.13
-5.25
-3.4
-2.54
-2.45
-2.86
-3.5
-4.04
-4.29
-4.01
-3.15
-1.68
0.18
2.11
3.67
4.45
4.27
3.16
1.42
-0.55
-2.37
-3.9
-5.18
-6.41
-7.76
-9.28
-11.0
-12.91
-15.11
-17.58
-20.25
-22.87
-25.0
-26.19
-26.14
-24.88
-22.76
-20.38
-18.25
-16.7
-15.81
-15.45
-15.53
-16.0
-16.86
-18.02
-19.29
-20.29
-20.69
-20.27
-19.09
-17.42
-15.61
-13.9
-12.47
-11.43
-10.86
-10.92
-11.73
-13.17
-14.96
-16.55
-17.29
-16.82
-15.05
-12.25
-9.0
-5.91
-3.4
-1.7
-0.55
0.57
2.33
5.36
9.96
15.85
22.21
27.79
31.26
31.77
29.2
24.29
18.52
13.83
11.84
13.4
18.08
24.24
29.88
33.39
34.14
32.74
30.52
28.76
28.21
28.87
30.2
31.59
32.53
32.61
31.49
28.81
24.37
18.41
11.64
5.08
-0.31
-3.83
-5.35
-5.15
-3.86
-2.1
-0.41
0.87
1.53
1.48
0.78
-0.42
-1.85
-3.21
-4.08
-3.9
-2.13
1.71
7.83
16.13
26.12
37.06
48.04
58.15
66.84
73.88
79.49
84.15
88.43
92.69
97.15
101.87
106.83
112.12
117.82
123.82
129.7
134.65
137.74
138.14
135.36
129.09
119.23
105.38
86.9
62.85
32.29
-5.25
-49.43
-98.95
-151.74
-205.1
-256.16
-301.92
-339.51
-366.35
-380.77
-382.47
-372.88
-354.77
-331.28
-304.81
-276.13
-244.69
-209.55
-170.6
-129.04
-86.94
-45.88
-6.22
32.87
72.37
112.11
149.89
182.05
204.7
215.14
212.89
199.54
178.1
152.07
124.59
97.87
73.21
50.99
31.34
14.5
1.34
-6.87
-9.15
-5.67
1.73
10.02
15.91
17.26
13.67
6.27
-3.04
-12.59
-21.45
-29.23
-35.56
-39.88
-41.39
-39.44
-34.08
-26.3
-17.73
-10.35
-5.76
-4.71
-6.96
-11.27
-15.98
-19.56
-21.12
-20.48
-18.11
-14.62
-10.56
-6.29
-2.12
1.48
3.87
4.5
3.16
0.27
-3.3
-6.5
-8.46
-8.69
-7.3
-4.78
-1.81
0.86
2.6
2.91
1.68
-0.81
-3.82
-6.45
-7.87
-7.66
-6.0
-3.58
-1.47
-0.57
-1.46
-4.0
-7.46
-10.78
-12.85
-13.09
-11.55
-8.97
-6.38
-4.78
-4.65
-5.94
-8.19
-10.74
-13.17
-15.11
-16.46
-17.04
-16.69
-15.35
-13.22
-10.82
-8.93
-8.24
-8.83
-10.28
-11.58
-11.65
-9.67
-5.4
0.68
7.77
14.88
21.24
26.29
29.63
31.08
30.64
28.58
25.34
21.6
17.81
14.3
11.19
8.5
6.49
5.44
5.78
7.66
10.85
14.56
17.78
19.6
19.62
17.99
15.14
11.59
7.66
3.48
-0.84
-4.93
-8.14
-9.79
-9.4
-6.96
-3.01
1.57
5.92
9.45
12.15
14.35
16.31
17.98
18.97
18.78
17.21
14.63
11.86
9.73
8.56
8.01
7.42
6.35
4.92
3.87
3.9
5.19
7.2
8.93
9.61
9.07
7.74
6.2
4.85
3.61
2.18
0.38
-1.73
-3.84
-5.66
-7.16
-8.6
-10.33
-12.61
-15.43
-18.49
-21.42
-23.79
-25.39
-26.09
-25.96
-25.13
-23.86
-22.38
-20.79
-19.32
-18.06
-17.18
-16.74
-16.68
-16.75
-16.69
-16.17
-14.92
-12.85
-9.89
-6.08
-1.6
3.32
8.41
13.34
17.88
21.91
25.32
28.23
30.83
33.32
35.92
38.73
41.57
44.16
46.19
47.44
48.05
48.3
48.54
48.93
49.48
50.06
50.65
51.58
53.15
55.73
59.32
63.58
67.93
71.76
74.63
76.48
77.51
78.1
78.67
79.39
80.3
81.34
82.36
83.23
83.9
84.24
84.09
83.29
81.65
79.07
75.7
71.87
67.95
64.26
61.01
58.22
55.87
53.8
51.61
48.76
44.28
37.23
26.89
13.31
-2.66
-19.37
-35.0
-48.13
-58.33
-66.24
-73.19
-80.69
-89.99
-101.75
-115.84
-131.33
-146.58
-159.61
-168.63
-172.58
-171.67
-167.43
-162.22
-158.4
-157.26
-158.74
-161.61
-164.33
-165.78
-165.78
-165.01
-164.29
-164.2
-164.79
-165.69
-166.32
-166.18
-164.57
-160.35
-152.04
-138.37
-119.34
-96.93
-74.67
-56.36
-44.38
-38.58
-36.41
-34.39
-29.83
-22.0
-12.01
-1.68
7.79
16.54
25.63
36.34
49.13
63.48
78.07
91.43
102.37
110.19
114.72
116.25
115.41
112.99
109.84
106.73
104.05
102.07
100.82
100.19
100.03
99.88
98.95
96.3
91.13
83.12
72.71
60.95
49.16
38.51
29.56
22.28
16.12
10.47
4.86
-0.64
-5.57
-9.36
-11.58
-12.22
-11.67
-10.57
-9.58
-9.25
-9.74
-10.77
-11.86
-12.38
-11.93
-10.44
-8.22
-5.82
-3.73
-2.17
-1.0
0.09
1.48
3.32
5.5
7.78
9.83
11.44
12.48
12.98
12.94
12.47
11.7
10.79
9.88
8.92
7.75
6.18
4.17
1.86
-0.45
-2.42
-3.95
-5.04
-5.89
-6.78
-7.8
-8.87
-9.85
-10.52
-10.73
-10.41
-9.5
-7.96
-5.89
-3.54
-1.18
0.94
2.72
4.3
5.85
7.47
9.12
10.53
11.44
11.63
11.23
10.55
9.95
9.62
9.53
9.49
9.22
8.66
7.77
6.69
5.66
4.82
4.19
3.74
3.27
2.56
1.47
-0.02
-1.81
-3.77
-5.85
-8.09
-10.6
-13.32
-15.9
-17.7
-18.02
-16.39
-12.97
-8.43
-3.61
0.66
3.93
6.05
7.13
7.29
6.64
5.35
3.67
2.05
0.8
0.19
0.16
0.46
0.71
0.66
0.26
-0.38
-1.1
-1.78
-2.32
-2.65
-2.78
-2.7
-2.4
-1.89
-1.12
0.01
1.54
3.61
6.15
8.87
11.35
13.1
13.74
13.26
11.92
10.15
8.34
6.67
5.13
3.68
2.35
1.27
0.75
1.05
2.26
4.25
6.71
9.33
11.77
13.85
15.35
16.18
16.29
15.76
14.75
13.45
12.09
10.77
9.52
8.19
6.64
4.71
2.52
0.22
-1.98
-3.87
-5.36
-6.38
-6.97
-7.21
-7.23
-7.18
-7.25
-7.59
-8.3
-9.38
-10.56
-11.44
-11.72
-11.18
-9.93
-8.23
-6.5
-5.04
-4.11
-3.56
-3.07
-2.38
-1.27
0.24
1.95
3.53
4.72
5.22
4.99
4.09
2.67
0.99
-0.64
-2.01
-2.98
-3.49
-3.71
-3.84
-4.07
-4.47
-4.95
-5.39
-5.78
-6.19
-6.77
-7.6
-8.63
-9.67
-10.45
-10.73
-10.52
-9.97
-9.24
-8.5
-7.71
-6.83
-5.69
-4.29
-2.67
-0.94
0.77
2.46
4.08
5.61
6.95
8.06
8.77
9.0
8.69
7.9
6.82
5.69
4.73
4.04
3.67
3.58
3.7
3.97
4.41
5.0
5.77
6.69
7.68
8.6
9.44
10.08
10.44
10.38
9.77
8.59
6.92
4.85
2.52
0.13
-2.15
-4.09
-5.54
-6.4
-6.61
-6.2
-5.24
-3.81
-2.02
0.02
2.15
4.2
5.89
7.0
7.5
7.48
7.18
6.78
6.31
5.7
4.94
3.91
2.67
1.34
0.09
-0.92
-1.63
-2.09
-2.34
-2.4
-2.41
-2.49
-2.81
-3.49
-4.51
-5.73
-6.86
-7.65
-8.01
-8.11
-8.2
-8.58
-9.34
-10.32
-11.12
-11.41
-10.97
-9.88
-8.33
-6.44
-4.25
-1.74
1.0
3.7
5.93
7.35
7.81
7.46
6.66
5.79
4.99
4.34
3.7
3.03
2.37
1.75
1.15
0.38
-0.69
-2.14
-3.8
-5.4
-6.58
-7.05
-6.76
-5.88
-4.77
-3.85
-3.39
-3.45
-3.76
-3.82
-3.16
-1.49
1.05
4.03
6.68
8.34
8.5
7.08
4.27
0.57
-3.48
-7.35
-10.54
-12.85
-14.16
-14.55
-14.2
-13.37
-12.23
-10.86
-9.34
-7.62
-5.83
-4.06
-2.52
-1.26
-0.29
0.44
1.02
1.45
1.69
1.66
1.35
0.78
0.09
-0.59
-1.16
-1.54
-1.81
-1.99
-2.19
-2.37
-2.44
-2.34
-2.02
-1.61
-1.29
-1.3
-1.72
-2.48
-3.38
-4.11
-4.59
-4.72
-4.62
-4.25
-3.57
-2.5
-0.99
0.79
2.54
3.78
4.23
3.87
3.03
2.21
1.89
2.24
3.1
4.17
5.15
5.97
6.68
7.48
8.36
9.15
9.6
9.5
8.87
7.85
6.6
5.17
3.59
1.85
-0.02
-1.77
-3.22
-4.29
-5.02
-5.65
-6.43
-7.46
-8.73
-10.2
-11.63
-12.81
-13.45
-13.29
-12.12
-9.96
-7.01
-3.71
-0.62
1.87
3.55
4.46
4.78
4.73
4.46
4.15
3.9
3.83
4.1
4.62
5.26
5.79
5.9
5.51
4.75
3.95
3.54
3.97
5.33
7.43
9.87
12.05
13.47
13.86
13.19
11.71
9.84
7.96
6.25
4.74
3.18
1.27
-1.21
-4.2
-7.38
-10.3
-12.45
-13.54
-13.44
-12.28
-10.23
-7.54
-4.46
-1.35
1.38
3.34
4.33
4.4
3.73
2.68
1.58
0.65
0.04
-0.25
-0.29
-0.08
0.32
0.86
1.48
2.15
2.84
3.69
4.72
5.89
7.01
7.79
7.93
7.19
5.52
3.07
0.15
-2.9
-5.74
-8.2
-10.23
-11.82
-12.94
-13.61
-13.83
-13.59
-12.91
-11.85
-10.43
-8.67
-6.53
-3.91
-0.84
2.41
5.58
8.31
10.32
11.5
11.88
11.65
10.98
10.05
9.0
7.92
6.93
6.17
5.73
5.64
5.81
6.07
6.21
6.14
5.84
5.37
4.9
4.58
4.54
4.84
5.44
6.21
6.93
7.39
7.41
6.92
5.95
4.61
3.0
1.28
-0.39
-1.91
-3.12
-3.92
-4.24
-4.09
-3.52
-2.75
-2.03
-1.63
-1.8
-2.76
-4.62
-7.44
-11.14
-15.39
-19.77
-23.63
-26.32
-27.38
-26.71
-24.52
-21.28
-17.53
-13.71
-10.07
-6.78
-3.88
-1.44
0.48
1.9
2.88
3.54
3.97
4.24
4.34
4.24
3.89
3.36
2.75
2.18
1.72
1.39
1.08
0.68
0.12
-0.59
-1.33
-1.96
-2.33
-2.3
-1.79
-0.85
0.43
1.96
3.6
5.25
6.8
8.15
9.22
9.96
10.36
10.38
10.1
9.57
8.9
8.22
7.68
7.35
7.25
7.38
7.52
7.47
7.03
6.09
4.73
3.09
1.33
-0.36
-1.88
-3.23
-4.48
-5.74
-7.06
-8.35
-9.53
-10.54
-11.39
-12.16
-13.01
-13.97
-15.04
-16.06
-16.78
-16.96
-16.51
-15.39
-13.79
-11.98
-10.24
-8.87
-8.17
-8.25
-9.01
-10.19
-11.36
-12.3
-13.04
-13.84
-15.23
-17.66
-21.25
-25.66
-30.19
-33.99
-36.61
-38.14
-39.26
-41.05
-44.4
-49.6
-56.12
-62.65
-67.6
-69.73
-68.63
-64.7
-59.16
-53.31
-47.97
-43.02
-37.23
-28.29
-13.45
9.86
43.01
85.19
133.05
181.04
222.51
251.47
264.26
260.4
242.66
216.02
186.0
157.4
133.21
114.36
100.14
89.28
80.83
74.62
71.01
69.79
69.69
68.34
63.51
54.49
43.07
32.81
27.1
27.23
31.3
35.37
35.41
29.5
18.59
5.41
-7.42
-18.98
-30.09
-42.24
-55.79
-69.39
-80.36
-85.91
-84.67
-77.21
-65.63
-52.39
-39.34
-27.16
-15.67
-4.58
6.1
15.78
23.62
28.71
30.58
29.11
24.65
17.87
9.54
0.56
-8.32
-16.47
-23.63
-29.76
-35.08
-39.87
-44.22
-48.06
-51.06
-52.92
-53.51
-52.97
-51.65
-50.16
-49.05
-48.61
-48.91
-49.62
-50.27
-50.34
-49.28
-46.68
-42.41
-36.58
-29.4
-21.35
-12.92
-4.61
3.03
9.62
14.74
18.07
19.48
19.15
17.31
14.5
11.27
8.0
5.01
2.34
-0.26
-3.12
-6.51
-10.5
-14.56
-17.75
-19.3
-18.81
-16.75
-14.24
-12.51
-12.49
-14.43
-17.94
-22.14
-25.92
-27.81
-26.38
-20.61
-10.48
2.46
15.35
24.69
27.59
22.65
10.53
-6.63
-26.07
-45.01
-61.51
-74.29
-82.75
-86.87
-87.09
-84.13
-78.91
-72.48
-65.66
-59.21
-53.56
-48.85
-44.88
-41.23
-37.57
-33.7
-29.92
-26.64
-24.34
-23.08
-22.53
-22.12
-21.21
-19.63
-17.53
-15.52
-14.22
-14.04
-15.05
-16.92
-19.15
-21.15
-22.53
-23.07
-22.88
-22.19
-21.22
-20.1
-18.74
-17.03
-14.85
-12.33
-9.75
-7.56
-6.15
-5.67
-6.11
-7.07
-8.11
-8.62
-8.11
-6.24
-2.98
1.25
5.74
9.5
11.75
12.06
10.58
8.11
5.73
4.51
5.13
7.72
11.63
15.87
19.26
20.71
19.6
15.83
9.78
2.16
-6.09
-14.03
-20.8
-25.75
-28.6
-29.39
-28.53
-26.7
-24.55
-22.55
-20.69
-18.62
-15.74
-11.59
-6.0
0.77
8.13
15.38
21.72
26.65
29.97
31.69
32.01
31.26
29.84
28.15
26.69
25.81
25.86
27.07
29.54
33.12
37.57
42.58
47.9
53.49
59.41
65.78
72.64
79.96
87.36
94.35
100.53
105.61
109.54
112.36
114.17
115.06
115.18
114.35
112.48
109.62
106.18
102.71
99.59
96.91
94.34
91.36
86.6
78.64
66.51
50.06
30.35
9.32
-10.54
-26.77
-37.88
-45.31
-52.28
-62.46
-78.13
-98.83
-121.58
-142.37
-158.03
-167.67
-175.03
-185.85
-205.74
-238.12
-283.47
-340.29
-406.43
-479.69
-542.99
-578.67
-572.05
-518.53
-426.3
-311.84
-192.42
-80.9
15.61
94.92
155.81
198.2
222.81
231.9
229.43
220.37
209.42
200.05
194.23
190.87
187.62
181.99
172.71
160.26
146.49
133.54
123.09
116.0
111.31
107.32
102.3
95.3
86.49
76.96
67.96
60.55
55.25
51.64
48.83
45.91
42.28
37.95
33.36
29.05
25.53
22.94
21.06
19.58
18.16
16.7
15.39
14.76
15.47
18.28
23.61
31.69
42.34
54.85
68.04
80.3
90.13
95.66
95.66
89.34
76.86
59.26
38.3
16.36
-4.14
-21.05
-33.04
-39.36
-40.39
-37.36
-32.28
-27.16
-23.75
-23.26
-25.99
-31.66
-39.05
-46.4
-51.78
-53.56
-50.52
-41.94
-28.01
-9.46
12.39
36.03
59.79
81.94
100.93
115.25
123.9
126.06
121.56
110.52
93.59
71.79
46.23
18.59
-9.58
-36.57
-60.91
-80.84
-94.66
-100.8
-98.17
-86.56
-66.11
-37.77
-2.94
35.63
75.65
115.28
153.1
187.75
217.61
241.19
257.65
265.42
261.41
244.77
216.67
180.12
138.65
95.14
51.93
10.56
-28.0
-66.48
-105.78
-145.56
-183.5
-217.12
-244.92
-266.12
-280.16
-286.48
-288.98
-288.77
-286.21
-279.76
-268.55
-254.03
-239.38
-228.44
-196.12
-134.08
-50.66
32.39
98.78
143.77
170.18
183.83
190.68
195.7
189.76
176.13
158.31
141.85
131.75
130.23
137.3
150.93
167.67
178.84
189.32
197.4
201.6
200.62
192.29
175.0
148.42
114.03
72.68
29.0
-13.35
-49.39
-74.32
-85.76
-83.67
-69.45
-45.83
-17.23
13.49
42.3
66.85
86.04
98.88
104.69
103.49
95.88
82.7
66.03
47.14
27.62
9.23
-7.39
-22.21
-35.41
-47.86
-60.03
-72.21
-85.27
-100.44
-118.78
-141.85
-171.05
-207.23
-251.02
-301.83
-357.6
-415.36
-470.18
-514.8
-541.27
-542.1
-512.47
-452.16
-365.2
-259.12
-143.57
-28.1
79.31
172.2
245.91
297.41
325.11
329.99
315.4
286.74
250.64
213.22
179.18
151.0
129.73
115.13
106.67
103.66
105.34
110.44
116.82
122.16
124.59
123.85
120.92
117.95
117.43
121.25
130.28
143.73
159.81
176.07
189.9
198.73
200.45
193.94
178.73
155.66
125.99
91.95
55.79
19.74
-14.4
-45.58
-73.26
-97.76
-119.51
-139.6
-158.92
-178.21
-197.73
-216.88
-234.91
-250.41
-262.25
-269.19
-270.61
-266.36
-256.66
-242.2
-223.73
-202.37
-178.92
-154.61
-130.22
-106.58
-84.53
-64.88
-49.26
-39.46
-37.56
-44.43
-59.63
-80.63
-103.54
-124.52
-140.72
-151.88
-159.39
-166.27
-175.19
-187.9
-204.81
-225.05
-247.45
-270.52
-293.35
-314.52
-332.99
-347.88
-359.46
-369.33
-379.66
-392.45
-407.25
-421.38
-430.02
-428.64
-415.15
-390.93
-360.39
-328.58
-299.61
-274.6
-252.89
-232.73
-212.86
-193.17
-174.03
-155.83
-138.04
-120.12
-101.29
-81.69
-62.17
-43.99
-28.61
-16.52
-7.63
-0.7
5.54
12.46
20.77
30.43
40.93
51.34
61.22
70.2
78.61
86.66
94.64
102.58
110.02
116.6
121.6
124.81
126.03
125.47
123.3
119.8
115.2
109.41
102.77
95.3
87.48
79.64
72.31
65.93
60.7
56.84
54.03
52.21
50.88
49.81
48.58
46.96
44.83
41.98
38.64
34.64
30.38
25.89
21.43
17.25
13.53
10.54
8.33
7.2
7.01
7.97
9.96
12.79
16.36
20.27
24.35
28.13
31.55
34.2
36.05
37.14
37.48
37.36
36.92
36.59
36.42
36.79
37.6
38.81
40.34
41.81
43.14
43.97
44.39
44.27
43.85
43.2
42.5
42.07
41.78
41.87
42.08
42.42
42.65
42.61
42.13
41.03
39.38
36.95
34.14
30.93
27.61
24.38
21.42
18.82
16.5
14.49
12.49
10.84
9.63
9.25
10.24
13.03
17.93
24.77
33.48
43.38
54.27
65.84
77.92
90.69
103.99
117.76
131.33
144.22
155.76
165.85
174.75
183.08
191.89
201.65
212.77
224.64
236.67
247.99
258.15
267.19
275.51
284.19
293.98
306.23
321.78
341.04
362.91
384.54
401.8
410.25
407.48
393.36
370.94
344.74
319.18
297.09
279.05
264.53
252.23
241.69
232.47
224.25
216.09
206.38
193.77
177.3
157.7
136.11
114.48
94.17
76.04
60.25
46.32
34.02
23.09
13.82
6.02
-0.14
-4.9
-8.46
-10.88
-12.51
-13.35
-13.8
-14.13
-14.9
-16.26
-18.14
-20.22
-21.74
-22.49
-22.05
-20.74
-18.75
-16.37
-13.67
-10.56
-7.1
-3.16
0.73
4.33
7.03
8.51
8.51
6.81
3.3
-2.21
-9.25
-17.75
-27.02
-36.74
-46.36
-55.4
-63.36
-69.53
-73.56
-74.98
-74.09
-71.13
-66.75
-61.41
-55.29
-48.92
-42.41
-36.33
-30.65
-25.55
-20.69
-16.06
-11.77
-7.81
-4.5
-1.54
1.06
3.74
6.41
8.89
10.77
11.56
11.42
10.38
8.93
7.49
6.39
5.42
4.16
2.39
-0.01
-2.52
-4.95
-6.97
-8.19
-8.38
-7.61
-6.43
-5.08
-4.14
-3.31
-2.33
-0.34
4.5
13.46
26.35
40.96
54.57
64.28
68.98
68.58
64.47
61.9
65.01
74.87
88.55
101.76
110.86
114.93
114.88
113.09
119.24
140.46
177.98
226.0
275.63
318.99
351.8
372.28
380.36
388.87
408.32
442.04
484.06
523.53
551.27
563.6
562.26
553.36
561.5
608.62
705.11
845.01
1010.84
1183.12
1346.66
1492.08
1518.04
1364.24
1031.92
589.26
126.88
-290.63
-636.96
-911.16
-1122.67
-1283.07
-1387.45
-1432.3
-1426.62
-1386.88
-1332.29
-1276.4
-1224.2
-1174.13
-1122.27
-1053.61
-958.63
-836.97
-699.2
-565.11
-453.31
-375.86
-336.93
-334.01
-352.39
-376.23
-394.35
-398.81
-386.04
-356.07
-312.59
-261.33
-207.77
-152.14
-93.95
-27.1
48.76
128.73
206.13
274.95
331.2
373.12
402.58
402.89
371.4
313.65
241.31
168.02
105.05
58.72
29.36
12.26
-0.08
-12.25
-28.34
-50.32
-77.69
-107.94
-137.35
-162.85
-183.53
-200.34
-212.9
-223.78
-232.41
-237.52
-238.18
-233.84
-224.62
-211.52
-195.23
-174.45
-147.83
-114.5
-75.34
-33.39
6.95
41.06
65.34
78.7
83.19
82.4
80.16
78.38
76.45
71.77
61.3
42.07
13.14
-24.3
-67.21
-111.55
-153.79
-190.98
-221.49
-244.09
-258.6
-264.59
-261.98
-250.73
-230.82
-202.93
-168.06
-128.07
-85.1
-41.69
0.24
39.4
75.04
107.04
134.91
158.33
176.55
189.07
195.84
197.38
195.01
190.04
183.93
177.47
171.05
164.22
156.27
146.27
133.38
117.23
97.5
74.63
49.31
23.29
-1.17
-21.76
-36.81
-46.15
-50.64
-52.04
-51.7
-50.5
-48.47
-45.41
-41.46
-36.92
-32.59
-28.48
-24.2
-18.87
-11.97
-3.87
4.18
10.39
13.75
13.96
12.01
9.48
7.96
8.38
10.95
15.07
19.43
22.77
23.76
21.87
17.37
11.39
5.43
0.61
-2.52
-4.47
-5.9
-7.73
-10.24
-13.39
-16.8
-19.8
-21.96
-22.68
-21.76
-18.92
