56.3
56.75
55.07
51.44
46.04
39.44
32.33
25.49
19.61
14.99
11.53
8.86
6.54
4.45
2.8
1.95
2.16
3.23
4.59
5.44
5.12
3.41
0.57
-2.83
-6.25
-9.34
-12.22
-15.13
-18.35
-22.17
-26.8
-32.39
-38.84
-45.83
-52.51
-57.74
-59.99
-57.91
-50.83
-39.08
-23.98
-7.37
8.78
22.94
34.12
42.0
46.8
48.83
48.63
46.71
43.63
39.94
36.2
32.8
29.91
27.59
25.53
23.57
21.46
19.09
16.45
13.76
11.21
8.88
6.88
4.96
3.01
0.67
-2.26
-5.96
-10.25
-14.91
-19.72
-24.49
-29.28
-34.0
-38.78
-43.49
-48.04
-52.18
-55.58
-57.65
-57.51
-54.25
-47.04
-35.87
-21.45
-5.34
10.48
24.17
34.45
40.91
43.67
43.37
40.8
36.65
31.67
26.48
21.68
17.71
14.97
13.41
12.87
13.08
13.56
13.98
14.18
14.17
13.88
13.33
12.17
10.1
6.76
1.93
-4.22
-11.16
-18.02
-24.05
-28.62
-31.65
-33.43
-34.59
-35.87
-37.72
-40.18
-42.76
-44.49
-44.19
-40.84
-33.74
-22.88
-9.0
6.63
22.35
36.45
47.8
55.81
60.36
61.81
60.59
57.21
52.31
46.39
39.93
33.48
27.34
21.63
16.32
11.24
6.35
1.75
-2.46
-6.08
-8.94
-11.02
-12.42
-13.44
-14.5
-15.85
-17.64
-19.87
-22.26
-24.59
-26.77
-28.83
-31.06
-33.81
-37.44
-42.04
-47.48
-52.88
-57.01
-58.43
-55.8
-48.46
-36.71
-21.76
-5.33
10.67
24.88
36.41
44.81
50.12
52.5
52.23
49.67
45.45
40.23
34.72
29.58
25.11
21.55
18.73
16.46
14.41
12.49
10.73
9.22
8.04
7.2
6.56
5.66
4.09
1.35
-2.65
-7.74
-13.47
-19.24
-24.63
-29.47
-33.98
-38.55
-43.49
-48.85
-54.29
-58.97
-61.6
-60.85
-55.59
-45.24
-30.24
-11.83
8.0
27.11
43.7
56.63
65.36
69.91
70.68
68.19
63.2
56.48
48.97
41.53
34.86
29.38
25.3
22.66
21.3
21.01
21.41
22.1
22.63
22.64
21.78
19.92
16.95
12.79
7.38
0.65
-7.33
-16.19
-25.38
-34.31
-42.44
-49.62
-55.84
-61.3
-66.25
-70.85
-74.97
-78.26
-80.06
-79.38
-75.34
-67.21
-54.88
-39.01
-20.93
-2.38
14.95
29.65
40.87
48.24
51.83
52.03
49.34
44.5
38.33
31.8
25.72
20.78
17.24
14.99
13.85
13.28
12.89
12.41
11.79
11.0
10.05
8.77
6.84
4.12
0.36
-4.26
-9.48
-14.75
-19.6
-23.82
-27.44
-30.88
-34.46
-38.56
-43.13
-47.81
-51.83
-54.12
-53.48
-48.94
-40.13
-27.28
-11.45
5.67
22.27
36.68
47.72
55.1
59.09
60.14
58.87
55.71
51.13
45.63
39.9
34.62
30.3
27.25
25.18
23.65
22.08
20.2
18.03
15.79
13.8
12.08
10.49
8.46
5.53
1.34
-4.01
-10.12
-16.42
-22.49
-28.1
-33.23
-38.13
-42.94
-47.85
-52.99
-58.31
-63.39
-67.45
-69.3
-67.56
-61.32
-50.31
-35.17
-17.43
0.99
18.34
33.21
44.71
52.53
56.7
57.59
55.75
51.8
46.54
40.83
35.37
30.84
27.64
25.81
25.22
25.48
26.07
26.53
26.53
25.87
24.65
22.98
20.88
18.34
15.19
11.21
6.22
0.2
-6.73
-14.17
-21.58
-28.5
-34.58
-39.74
-44.16
-48.19
-52.22
-56.34
-60.23
-63.0
-63.47
-60.4
-53.15
-41.7
-26.81
-9.86
7.57
23.79
37.46
47.77
54.38
57.35
57.15
54.27
49.3
42.91
35.54
27.83
20.51
14.29
9.76
7.29
6.67
7.52
9.35
11.43
13.31
14.6
15.04
14.52
12.96
10.28
6.45
1.78
-3.5
-8.77
-13.64
-17.93
-21.67
-25.17
-28.69
-32.42
-36.32
-40.5
-44.9
-49.61
-54.57
-59.3
-62.79
-63.64
-60.48
-52.47
-39.86
-23.81
-6.31
10.33
24.38
34.7
41.11
44.1
44.54
43.26
40.95
38.08
34.92
32.05
29.78
28.54
28.34
28.92
29.65
29.8
28.83
26.43
22.97
18.81
14.41
10.04
5.77
1.53
-2.72
-6.83
-10.69
-13.98
-16.63
-18.71
-20.43
-22.04
-23.78
-25.76
-28.1
-31.0
-34.64
-39.19
-44.29
-49.06
-52.15
-51.95
-47.29
-37.91
-24.57
-8.82
7.31
22.17
34.58
43.91
50.07
53.14
53.28
50.7
45.88
39.49
32.38
25.59
19.94
15.84
13.47
12.58
12.74
13.67
15.01
16.42
17.56
18.02
17.35
15.4
12.11
7.65
2.16
-4.21
-11.22
-18.49
-25.43
-31.32
-35.66
-38.37
-39.75
-40.62
-41.97
-44.43
-48.23
-52.95
-57.45
-60.2
-59.74
-55.06
-45.85
-32.93
-17.6
-1.61
13.44
26.32
36.44
43.48
47.55
48.95
48.04
45.47
41.72
37.52
33.43
29.91
27.15
25.13
23.58
22.08
20.24
17.77
14.75
11.51
8.38
5.66
3.43
1.5
-0.53
-3.0
-6.16
-9.96
-14.04
-18.13
-22.05
-25.63
-28.93
-32.14
-35.41
-39.03
-43.19
-47.83
-52.82
-57.52
-60.8
-61.36
-57.94
-49.8
-37.16
-21.18
-3.79
12.9
27.12
37.89
45.0
48.81
49.9
48.71
45.63
41.08
35.69
30.25
25.54
22.07
20.04
19.26
19.12
19.08
18.75
18.03
16.97
15.79
14.52
13.1
11.32
8.84
5.41
1.04
-4.17
-9.99
-16.02
-21.94
-27.39
-32.18
-36.23
-39.66
-42.87
-46.32
-50.44
-55.23
-60.21
-64.28
-65.99
-63.98
-57.36
-46.11
-31.01
-13.58
4.37
20.96
34.79
44.97
51.14
53.49
52.49
48.85
43.38
36.98
30.37
24.32
19.47
16.13
14.41
14.15
15.01
16.57
18.53
20.7
22.81
24.75
26.11
26.37
25.16
22.12
17.37
11.31
4.6
-2.15
-8.47
-14.19
-19.36
-24.12
-28.69
-33.16
-37.55
-41.63
-44.76
-45.99
-44.25
-38.51
-28.48
-14.75
1.34
17.88
33.0
45.39
54.41
60.0
62.44
62.23
59.72
55.41
49.86
43.62
37.51
32.08
27.75
24.5
22.19
20.45
19.09
17.96
17.02
16.26
15.39
14.07
11.89
8.64
4.4
-0.38
-5.17
-9.43
-12.96
-15.9
-18.58
-21.45
-24.68
-28.06
-31.14
-33.18
-33.47
-31.41
-26.84
-19.81
-10.83
-0.78
9.27
18.13
24.85
28.85
30.12
28.76
25.28
20.09
13.48
5.77
-2.51
-10.63
-17.87
-23.71
-28.22
-32.02
-36.05
-41.25
-48.04
-56.09
-64.59
-72.57
-79.25
-84.33
-88.01
-90.86
-93.45
-96.17
-99.02
-101.79
-103.98
-104.99
-104.34
-101.52
-96.22
-88.4
-77.97
-65.15
-50.43
-34.36
-17.61
-1.09
14.53
28.76
41.2
51.81
60.36
66.56
70.05
70.69
68.63
64.88
61.02
58.79
59.74
64.46
72.7
83.27
94.62
104.96
112.9
117.35
117.63
113.86
106.67
97.19
86.71
76.1
65.63
54.96
43.25
29.64
14.0
-3.05
-20.16
-35.38
-46.88
-53.15
-53.57
-48.58
-39.57
-28.53
-17.57
-8.47
-2.2
0.95
1.42
-0.07
-2.76
-6.07
-9.71
-13.63
-17.89
-22.31
-26.65
-30.51
-33.59
-35.52
-36.11
-35.5
-34.0
-32.22
-30.67
-29.78
-29.8
-30.53
-31.5
-32.06
-31.71
-30.12
-27.43
-24.2
-21.2
-19.22
-18.65
-19.26
-20.16
-20.11
-17.74
-12.23
-3.36
8.3
21.57
34.95
46.93
56.32
62.38
64.87
63.89
59.85
53.57
45.97
38.14
31.09
25.65
22.26
20.92
21.23
22.46
23.95
25.03
25.19
24.15
21.87
18.32
13.61
7.9
1.32
-5.78
-13.04
-20.04
-26.48
-32.13
-37.09
-41.63
-46.19
-51.14
-56.62
-62.14
-66.62
-68.62
-66.73
-60.1
-48.86
-34.06
-17.44
-0.85
14.28
27.07
37.27
44.85
49.99
52.81
53.54
52.48
50.0
46.64
42.81
38.84
34.84
30.78
26.47
21.87
17.03
12.16
7.64
3.89
1.13
-0.64
-1.84
-3.05
-4.75
-7.27
-10.77
-15.12
-20.06
-25.27
-30.3
-34.92
-38.95
-42.39
-45.47
-48.51
-51.72
-54.98
-57.77
-58.84
-56.86
-50.76
-40.11
-25.46
-8.2
9.74
26.53
40.7
51.57
59.1
63.58
65.42
65.11
63.1
59.75
55.47
50.67
45.79
41.23
37.23
33.81
30.8
28.02
25.3
22.51
19.54
16.42
13.2
9.9
6.64
3.4
0.03
-3.48
-7.3
-11.47
-15.89
-20.32
-24.68
-28.89
-32.97
-37.3
-42.02
-47.26
-52.95
-58.72
-63.86
-67.46
-68.4
-65.45
-58.06
-46.19
-30.71
-13.29
4.16
19.8
32.41
41.58
47.53
50.63
51.41
50.18
47.2
42.92
37.81
32.5
27.58
23.45
20.06
17.37
15.05
12.84
10.71
8.65
6.76
5.1
3.6
2.01
0.05
-2.66
-6.52
-11.44
-17.11
-22.97
-28.38
-33.08
-37.02
-40.37
-43.54
-46.94
-50.81
-55.25
-60.05
-64.52
-67.64
-67.99
-64.18
-55.51
-42.18
-25.33
-6.81
11.32
27.48
40.43
49.59
54.91
56.52
54.88
50.7
44.8
38.18
31.81
26.32
22.09
19.1
17.15
16.05
15.69
15.98
16.78
17.95
19.23
20.37
21.15
21.44
21.08
19.95
17.73
14.07
8.82
2.09
-5.8
-14.21
-22.63
-30.55
-37.66
-43.97
-49.6
-54.71
-59.37
-63.41
-66.38
-67.58
-66.12
-61.26
-52.64
-40.57
-25.87
-9.92
5.77
19.94
31.7
40.58
46.43
49.42
49.78
48.04
44.68
40.14
34.91
29.45
24.16
19.56
16.14
14.19
13.81
14.62
16.07
17.52
18.61
19.18
19.35
19.18
18.43
16.67
13.38
8.3
1.58
-6.34
-14.79
-23.22
-31.27
-38.8
-45.71
-51.86
-57.21
-61.84
-66.02
-70.0
-73.81
-76.8
-77.86
-75.42
-68.36
-56.21
-39.7
-20.64
-1.3
16.14
30.27
40.59
47.41
51.15
52.27
51.0
47.33
41.53
34.19
26.16
18.52
12.1
7.26
3.98
2.0
0.98
0.77
1.28
2.52
4.27
6.18
7.71
8.27
7.4
4.86
0.78
-4.57
-10.53
-16.51
-21.91
-26.3
-29.61
-32.17
-34.61
-37.45
-41.1
-45.53
-50.09
-53.82
-55.37
-53.48
-47.38
-37.06
-23.23
-7.2
9.44
25.28
39.09
50.21
58.14
62.75
63.99
62.12
57.64
51.4
44.29
37.15
30.79
25.51
21.48
18.64
16.73
15.53
14.83
14.58
14.59
14.86
15.04
14.9
14.14
12.44
9.78
6.29
2.36
-1.71
-5.69
-9.79
-14.16
-19.12
-25.07
-32.17
-40.31
-48.85
-56.63
-62.14
-63.96
-61.03
-53.08
-40.85
-25.68
-9.44
6.07
19.43
29.69
36.46
39.81
40.14
37.88
33.78
28.39
22.41
16.5
11.23
6.85
3.39
0.59
-2.04
-4.76
-7.86
-11.33
-15.13
-19.08
-23.22
-27.58
-32.2
-37.0
-41.53
-45.29
-47.7
-48.63
-48.29
-47.38
-46.73
-47.11
-48.96
-52.22
-56.46
-60.73
-63.83
-64.38
-61.17
-53.46
-41.22
-25.32
-7.2
11.2
28.09
42.11
52.34
58.49
60.58
59.04
54.35
47.35
38.89
29.88
21.37
14.12
8.66
5.14
3.5
3.27
3.84
4.57
4.84
4.34
3.07
1.25
-0.91
-3.08
-5.24
-7.43
-9.67
-12.09
-14.8
-17.86
-21.49
-25.73
-30.38
-34.81
-37.82
-38.02
-34.23
-25.85
-13.08
2.75
19.97
36.62
51.05
62.25
69.87
74.0
74.94
73.16
69.0
63.12
56.24
49.09
42.38
36.66
32.11
28.59
25.81
23.46
21.39
19.41
17.35
15.08
12.44
9.25
5.43
0.94
-4.08
-9.33
-14.49
-19.24
-23.24
-26.5
-29.33
-32.19
-35.52
-39.36
-43.08
-45.44
-44.86
-40.03
-30.49
-16.76
-0.19
17.5
34.59
49.69
61.86
70.63
75.72
77.18
75.29
70.64
63.89
55.93
47.57
39.57
32.45
26.54
21.94
18.62
16.53
15.33
14.69
14.1
13.08
11.13
8.09
3.93
-1.02
-6.17
-11.03
-15.31
-18.99
-22.37
-25.88
-29.87
-34.41
-39.12
-43.08
-45.16
-44.29
-39.65
-31.11
-19.03
-4.53
10.89
25.55
38.1
47.58
53.59
56.36
56.3
54.09
50.46
45.96
41.02
36.01
31.17
26.73
22.94
19.85
17.44
15.69
14.45
13.41
12.21
10.42
7.66
3.82
-1.07
-6.72
-12.61
-18.25
-23.24
-27.39
-30.78
-33.67
-36.4
-39.35
-42.68
-46.17
-49.14
-50.44
-48.76
-43.16
-33.33
-19.75
-3.67
13.19
29.12
42.61
52.66
58.89
61.31
60.28
56.38
50.32
42.85
34.77
26.81
19.66
13.85
9.75
7.51
6.99
7.86
9.52
11.39
12.75
13.05
11.75
8.63
3.68
-2.86
-10.41
-18.33
-25.76
-32.15
-37.23
-41.29
-44.77
-48.11
-51.46
-54.41
-56.04
-55.23
-50.94
-42.66
-30.71
-15.98
0.13
16.04
30.34
42.04
50.46
55.36
56.87
55.39
51.61
46.38
40.57
35.0
30.32
26.9
24.87
24.08
24.27
24.99
25.8
26.23
26.03
24.86
22.58
19.08
14.27
8.12
0.78
-7.32
-15.62
-23.41
-30.21
-35.81
-40.49
-44.83
-49.54
-54.91
-60.55
-65.39
-67.93
-66.71
-60.69
-49.73
-34.62
-16.92
1.54
18.93
33.86
45.3
52.77
56.3
56.19
53.08
47.68
40.85
33.34
25.91
19.1
13.29
8.78
5.61
3.74
2.97
2.94
3.32
3.7
3.64
2.82
0.96
-2.01
-5.95
-10.51
-15.36
-20.1
-24.54
-28.64
-32.55
-36.55
-40.97
-45.94
-51.22
-56.35
-60.32
-62.02
-60.25
-54.32
-44.08
-30.36
-14.52
1.6
16.17
27.72
35.37
39.0
38.99
36.2
31.46
25.7
19.54
13.62
8.34
4.11
1.26
-0.01
0.44
2.43
5.66
9.66
13.97
18.03
21.36
23.44
23.82
22.29
18.89
14.01
8.26
2.44
-2.78
-7.08
-10.41
-13.11
-15.46
-17.52
-18.91
-18.86
-16.47
-10.86
-1.85
10.23
24.27
38.77
52.18
63.22
71.0
75.02
75.19
71.69
65.08
56.09
45.64
34.61
23.89
14.18
5.86
-0.77
-5.78
-9.21
-11.28
-12.14
-11.97
-11.06
-9.86
-8.94
-8.87
-10.17
-13.01
-17.31
-22.64
-28.46
-34.28
-39.93
-45.34
-50.6
-55.86
-61.15
-66.44
-71.28
-74.92
-76.24
-74.07
-67.55
-56.39
-41.28
-23.55
-5.02
12.51
27.63
39.5
47.86
52.71
54.31
52.94
49.09
43.39
36.63
29.51
22.76
16.8
11.81
7.83
4.74
2.48
1.03
0.36
0.25
0.46
0.49
-0.16
-1.85
-4.86
-9.08
-14.27
-19.94
-25.63
-30.92
-35.57
-39.59
-43.16
-46.62
-50.17
-53.84
-57.08
-58.89
-57.95
-53.13
-43.93
-30.74
-14.86
2.03
18.03
31.6
41.76
48.14
50.81
50.11
46.64
41.0
34.15
26.95
20.38
15.3
12.12
11.03
11.58
13.26
15.28
17.21
18.7
19.79
20.5
20.53
19.6
17.17
13.06
7.22
0.2
-7.37
-14.68
-21.12
-26.66
-31.39
-35.67
-39.75
-43.94
-48.32
-52.86
-57.19
-60.45
-61.59
-59.34
-52.79
-41.8
-27.14
-10.29
6.86
22.5
35.5
45.23
51.71
55.2
55.89
54.1
50.24
44.78
38.46
32.13
26.52
22.16
19.22
17.4
16.35
15.56
14.6
13.32
11.81
10.06
8.09
5.74
2.64
-1.4
-6.36
-11.91
-17.49
-22.48
-26.6
-29.76
-32.22
-34.43
-36.92
-40.15
-44.41
-49.4
-54.52
-58.75
-60.66
-59.09
-53.13
-42.62
-28.21
-11.3
6.41
23.07
37.21
47.96
54.82
57.95
57.78
54.99
50.39
44.75
38.72
32.81
27.52
23.05
19.62
17.21
15.78
15.16
15.02
15.0
14.76
14.17
12.94
10.98
8.09
4.06
-1.12
-7.43
-14.53
-21.78
-28.46
-34.05
-38.3
-41.35
-43.76
-46.01
-48.51
-51.14
-53.33
-54.24
-52.99
-48.89
-41.66
-31.52
-19.1
-5.53
8.0
20.25
30.31
37.68
42.31
44.48
44.56
42.96
39.98
35.99
31.39
26.78
22.68
19.45
17.17
15.66
14.66
13.92
13.31
12.72
12.18
11.49
10.33
8.27
5.05
0.56
-4.99
-11.14
-17.44
-23.19
-27.96
-31.49
-34.05
-36.17
-38.52
-41.65
-45.56
-49.79
-53.18
-54.4
-52.23
-46.03
-36.02
-22.95
-8.06
7.24
21.69
34.26
44.22
51.15
54.91
55.53
53.32
48.93
43.01
36.22
29.14
22.2
15.82
10.36
6.03
2.92
1.0
0.19
0.16
0.43
0.5
-0.13
-1.76
-4.62
-8.7
-13.81
-19.43
-25.06
-30.19
-34.52
-38.09
-41.29
-44.6
-48.28
-52.04
-54.89
-55.49
-52.5
-45.14
-33.52
-18.72
-2.31
13.93
28.34
39.73
47.42
51.24
51.42
48.56
43.45
37.1
30.51
24.44
19.38
15.51
12.81
11.02
9.84
9.14
8.77
8.55
8.28
7.74
6.71
5.13
2.85
-0.15
-3.73
-7.8
-12.24
-16.95
-21.74
-26.51
-31.27
-36.18
-41.4
-46.92
-52.36
-56.84
-59.14
-57.92
-52.32
-42.2
-28.38
-12.46
3.73
18.3
30.12
38.6
43.65
45.59
44.92
42.2
38.04
33.05
27.75
22.83
18.82
16.04
14.64
14.49
15.19
16.29
17.31
17.84
17.63
16.48
14.2
10.64
5.85
0.02
-6.43
-12.93
-19.08
-24.7
-29.83
-34.79
-39.94
-45.41
-51.05
-56.3
-60.18
-61.47
-58.99
-52.05
-40.79
-26.09
-9.55
7.02
22.07
34.49
43.82
50.0
53.02
53.01
50.3
45.46
39.3
32.69
26.5
21.25
17.31
14.7
13.28
12.86
13.18
13.87
14.43
14.41
13.13
10.21
5.59
-0.63
-7.94
-15.62
-22.97
-29.41
-34.68
-39.01
-42.85
-46.62
-50.58
-54.55
-57.87
-59.53
-58.32
-53.2
-43.7
-30.12
-13.52
4.33
21.54
36.34
47.57
54.68
57.81
57.4
54.13
48.82
42.24
35.28
28.66
22.9
18.34
15.13
13.15
12.2
12.03
12.37
13.08
13.99
14.82
15.21
14.77
13.11
10.01
5.61
0.23
-5.62
-11.64
-17.64
-23.75
-30.16
-37.08
-44.57
-52.4
-59.95
-66.07
-69.41
-68.64
-62.73
-51.53
-35.81
-17.12
2.48
20.9
36.6
48.63
56.58
60.65
61.21
58.78
53.93
47.33
39.69
31.86
24.77
19.19
15.61
14.01
14.12
15.27
16.85
18.29
19.21
19.4
18.62
16.64
13.01
7.58
0.59
-7.43
-15.59
-22.99
-29.05
-33.58
-36.77
-39.39
-42.13
-45.41
-49.32
-53.37
-56.49
-57.41
-54.82
-47.86
-36.49
-21.57
-4.68
12.26
27.47
39.65
48.22
53.13
54.76
53.61
50.31
45.53
40.05
34.84
30.66
28.19
27.61
28.61
30.5
32.52
34.0
34.52
34.1
32.84
31.01
28.67
25.81
22.35
18.36
14.13
9.98
6.34
3.45
1.63
0.82
