69.66
66.34
63.07
60.44
58.67
57.63
56.87
55.84
54.2
51.88
49.11
46.19
43.23
40.01
36.01
30.63
23.34
14.15
3.51
-7.72
-18.62
-28.59
-37.39
-45.29
-52.76
-60.42
-68.54
-77.0
-85.03
-91.31
-94.31
-92.67
-85.77
-73.96
-58.6
-41.69
-25.36
-11.4
-0.88
5.86
9.07
9.29
7.2
3.46
-1.39
-6.87
-12.6
-18.17
-23.12
-27.07
-29.75
-30.97
-30.69
-29.14
-26.8
-24.4
-22.67
-22.29
-23.62
-26.69
-31.09
-36.16
-41.26
-45.92
-49.99
-53.6
-57.06
-60.67
-64.66
-68.97
-73.13
-76.1
-76.49
-72.77
-63.84
-49.4
-30.22
-8.13
14.58
35.47
52.67
65.05
72.27
74.58
72.67
67.5
60.11
51.71
43.35
35.99
30.21
26.23
24.0
23.26
23.78
25.24
27.34
29.58
31.34
31.93
30.89
28.13
23.95
19.05
13.97
9.06
4.36
-0.38
-5.42
-11.03
-17.23
-23.91
-30.58
-36.4
-40.17
-40.39
-35.83
-25.9
-11.25
6.59
25.24
42.47
56.61
66.78
72.96
75.6
75.34
72.82
68.74
63.61
58.03
52.45
47.24
42.5
38.21
34.27
30.67
27.54
24.98
23.02
21.41
19.7
17.31
13.82
9.06
3.32
-3.0
-9.42
-15.63
-21.47
-27.15
-32.9
-38.85
-44.98
-50.81
-55.43
-57.59
-55.96
-49.6
-38.46
-23.38
-6.03
11.56
27.52
40.56
50.13
56.24
59.35
59.97
58.67
55.97
52.36
48.34
44.41
40.92
38.03
35.76
33.92
32.18
30.26
27.84
24.77
21.09
16.9
12.34
7.62
2.8
-2.08
-6.9
-11.58
-16.08
-20.5
-25.12
-30.33
-36.3
-42.76
-48.84
-52.95
-53.43
-48.98
-39.22
-24.82
-7.4
10.99
28.29
42.84
53.81
60.85
64.12
64.08
61.34
56.55
50.43
43.65
36.83
30.51
24.99
20.39
16.69
13.73
11.32
9.35
7.64
5.96
3.93
1.15
-2.8
-7.96
-14.11
-20.69
-27.01
-32.58
-37.36
-41.59
-45.73
-50.16
-54.86
-59.32
-62.42
-62.84
-59.3
-51.14
-38.39
-22.03
-3.63
14.89
31.81
45.82
56.18
62.6
65.11
64.01
59.8
53.17
45.05
36.49
28.4
21.55
16.35
12.9
11.02
10.35
10.47
10.97
11.4
11.22
10.01
7.51
3.69
-1.25
-6.79
-12.36
-17.47
-21.91
-25.81
-29.51
-33.45
-38.03
-43.44
-49.42
-55.31
-59.96
-61.93
-60.0
-53.43
-42.27
-27.5
-10.73
6.19
21.56
34.25
43.83
50.29
53.91
55.14
54.28
51.58
47.37
42.01
36.07
30.24
25.05
20.86
17.88
15.94
14.81
14.2
13.72
13.0
11.69
9.37
5.85
1.09
-4.82
-11.39
-18.0
-24.18
-29.68
-34.62
-39.5
-44.65
-50.2
-55.95
-61.03
-64.26
-64.36
-60.29
-51.51
-38.35
-21.89
-3.85
13.67
28.95
40.82
48.76
52.92
53.72
51.66
47.29
41.28
34.35
27.35
21.05
15.96
12.38
10.16
8.94
8.45
8.51
9.09
10.17
11.52
12.54
12.53
10.68
6.61
0.46
-7.04
-14.97
-22.42
-28.9
-34.51
-39.55
-44.54
-49.72
-55.01
-59.88
-63.49
-64.63
-62.27
-55.72
-44.81
-30.12
-12.92
5.1
22.2
36.93
48.37
56.09
60.1
60.67
58.33
53.72
47.52
40.52
33.5
27.14
21.9
18.05
15.63
14.41
14.21
14.65
15.41
16.08
16.15
15.17
12.8
9.06
4.07
-1.69
-7.73
-13.64
-19.2
-24.38
-29.33
-34.39
-39.87
-45.97
-52.52
-58.77
-63.33
-64.67
-61.42
-52.98
-39.85
-23.67
-6.53
9.42
22.5
31.89
37.34
39.01
37.29
32.66
25.6
16.82
7.16
-2.6
-11.72
-19.65
-26.2
-31.34
-35.25
-38.11
-40.12
-41.41
-42.06
-42.02
-41.23
-39.59
-37.01
-33.66
-29.72
-25.58
-21.77
-18.8
-16.91
-16.45
-17.48
-19.91
-23.44
-27.29
-30.23
-30.75
-27.5
-19.47
-6.74
9.69
28.12
46.62
63.41
77.26
87.41
93.52
95.61
93.77
88.51
80.6
70.98
60.67
50.55
41.13
32.69
25.33
18.97
13.74
9.72
6.85
4.85
3.19
1.21
-1.61
-5.53
-10.53
-16.25
-22.23
-28.12
-33.63
-38.64
-43.18
-47.36
-51.41
-55.65
-60.33
-65.45
-70.55
-74.56
-76.08
-73.69
-66.5
-54.51
-38.69
-20.8
-2.76
13.77
27.76
38.77
46.77
51.9
54.41
54.51
52.58
49.18
44.98
40.61
36.59
33.01
29.75
26.64
23.53
20.55
17.93
15.87
14.34
13.14
11.72
9.52
6.13
1.32
-4.73
-11.59
-18.67
-25.39
-31.25
-36.07
-40.08
-43.68
-47.45
-51.75
-56.54
-61.27
-64.84
-65.9
-63.25
-56.18
-44.7
-29.77
-12.84
4.3
20.05
33.22
43.19
49.85
53.44
54.46
53.36
50.68
46.94
42.62
38.13
33.8
29.9
26.56
23.89
21.81
20.19
18.8
17.55
16.4
15.32
14.28
13.01
11.14
8.14
3.69
-2.24
-9.26
-16.71
-23.82
-30.09
-35.45
-40.16
-44.63
-49.26
-54.11
-58.92
-63.06
-65.41
-64.84
-60.38
-51.6
-38.84
-23.22
-6.35
10.07
24.72
36.8
45.97
52.14
55.24
55.36
52.78
48.01
41.85
35.11
28.52
22.59
17.6
13.67
10.89
9.25
8.64
8.78
9.17
9.24
8.47
6.45
2.99
-1.91
-7.88
-14.33
-20.51
-25.86
-30.17
-33.63
-36.87
-40.62
-45.45
-51.35
-57.73
-63.32
-66.54
-65.9
-60.32
-49.67
-34.69
-16.97
1.55
18.96
33.85
45.42
53.39
57.85
59.06
57.4
53.45
47.95
41.71
35.57
30.1
25.65
22.28
19.9
18.37
17.5
17.04
16.69
16.15
15.1
13.33
10.72
7.15
2.61
-2.94
-9.44
-16.67
-24.26
-31.82
-39.1
-46.01
-52.62
-59.18
-65.89
-72.75
-79.3
-84.43
-86.62
-84.31
-76.46
-62.97
-44.9
-24.24
-3.27
16.01
32.22
44.8
53.63
58.9
60.9
60.1
57.11
52.64
47.44
42.0
36.62
31.42
26.41
21.58
17.04
12.94
9.5
6.83
4.92
3.63
2.61
1.37
-0.7
-4.04
-8.8
-14.75
-21.35
-28.04
-34.3
-39.97
-45.09
-49.91
-54.66
-59.51
-64.5
-69.25
-73.08
-74.73
-72.82
-66.1
-54.06
-37.23
-17.17
3.75
23.32
39.65
51.86
59.78
63.77
64.39
62.25
57.95
52.11
45.52
38.97
33.29
29.06
26.47
25.31
25.06
25.24
25.42
25.44
25.15
24.44
23.16
20.96
17.6
12.88
6.94
0.14
-6.85
-13.55
-19.6
-24.9
-29.76
-34.53
-39.67
-45.33
-51.14
-56.0
-58.56
-57.33
-51.26
-40.09
-24.48
-6.07
13.1
31.06
46.44
58.31
66.39
70.62
71.21
68.53
63.21
56.11
48.34
40.88
34.41
29.23
25.22
22.09
19.6
17.69
16.41
15.75
15.45
15.01
13.71
10.95
6.37
0.13
-7.34
-15.37
-23.39
-30.99
-37.94
-44.29
-50.31
-56.36
-62.8
-69.7
-76.65
-82.57
-85.86
-84.79
-78.16
-65.67
-48.23
-27.5
-5.65
15.3
33.76
48.74
59.68
66.46
69.26
68.38
64.42
58.2
50.63
42.7
35.26
28.96
24.14
20.92
19.1
18.3
18.18
18.41
18.66
18.6
17.85
16.0
12.7
7.77
1.33
-6.22
-14.23
-22.03
-29.15
-35.34
-40.66
-45.5
-50.39
-55.71
-61.48
-67.2
-71.66
-73.36
-70.87
-63.32
-50.73
-34.17
-15.31
4.02
22.23
38.14
51.02
60.39
65.85
67.3
64.92
59.35
51.64
43.04
34.71
27.47
21.72
17.44
14.54
12.86
12.31
12.76
13.97
15.52
16.77
16.93
15.21
11.16
4.71
-3.7
-13.24
-22.93
-31.91
-39.64
-46.01
-51.31
-55.93
-60.43
-65.17
-70.2
-75.0
-78.3
-78.41
-73.72
-63.26
-47.24
-27.27
-5.72
14.83
32.36
45.88
55.21
60.64
62.61
61.57
57.92
52.24
45.35
38.27
31.97
27.1
23.81
21.86
20.84
20.43
20.43
20.81
21.49
22.2
22.46
21.59
19.05
14.54
8.2
0.6
-7.46
-15.25
-22.27
-28.39
-33.87
-39.18
-44.81
-50.99
-57.34
-62.8
-65.84
-64.81
-58.47
-46.47
-29.67
-9.85
10.64
29.45
44.81
55.68
61.8
63.58
61.78
57.29
51.06
43.96
36.73
29.97
24.22
19.73
16.57
14.49
13.16
12.24
11.51
10.81
10.02
8.99
7.4
4.85
1.05
-4.03
-10.01
-16.3
-22.25
-27.4
-31.62
-35.2
-38.72
-42.9
-48.26
-54.89
-62.11
-68.5
-72.22
-71.51
-65.27
-53.49
-37.33
-18.72
0.12
17.28
31.54
42.19
49.08
52.37
52.45
49.81
45.14
39.21
32.86
26.89
21.82
17.98
15.41
13.95
13.41
13.51
13.94
14.43
14.56
13.84
11.83
8.13
2.64
-4.24
-11.9
-19.59
-26.6
-32.57
-37.57
-42.03
-46.61
-51.9
-57.97
-64.41
-70.17
-73.61
-73.03
-67.14
-55.45
-38.62
-18.32
3.23
23.75
41.44
55.28
64.9
70.45
72.4
71.22
67.52
61.95
55.29
48.32
41.77
36.06
31.46
27.94
25.32
23.35
21.68
20.07
18.29
16.17
13.37
9.69
4.84
-1.35
-8.67
-16.71
-24.86
-32.39
-38.95
-44.65
-49.9
-55.29
-61.24
-67.58
-73.45
-77.43
-77.9
-73.64
-64.2
-50.13
-32.8
-14.07
4.22
20.5
33.86
43.69
49.95
52.88
52.84
50.35
45.96
40.35
34.06
27.75
21.89
16.93
13.12
10.49
8.92
8.15
7.99
8.15
8.31
8.03
6.83
4.31
0.24
-5.23
-11.72
-18.58
-25.27
-31.36
-36.75
-41.5
-45.79
-49.7
-53.0
-55.12
-55.0
-51.4
-43.4
-30.77
-14.31
4.3
22.87
39.36
52.31
61.14
65.94
67.14
65.29
60.89
54.47
46.76
38.62
31.04
24.8
20.25
17.36
15.83
15.15
14.81
14.53
14.06
13.25
11.91
9.75
6.54
2.23
-3.11
-9.26
-15.88
-22.6
-29.2
-35.68
-42.21
-49.05
-56.29
-63.63
-70.15
-74.4
-74.72
-69.71
-58.76
-42.35
-21.93
0.33
22.09
41.36
56.73
67.42
73.34
74.93
72.9
68.15
61.55
53.86
45.73
37.74
30.37
24.05
19.15
15.77
13.7
12.58
12.06
11.71
11.12
9.9
7.62
3.98
-1.22
-7.78
-15.19
-22.65
-29.49
-35.36
-40.4
-45.14
-50.25
-56.3
-63.26
-70.48
-76.63
-80.11
-79.25
-72.91
-60.83
-43.74
-23.41
-2.07
18.01
35.04
47.84
56.13
60.14
60.42
57.77
52.99
46.95
40.54
34.49
29.33
25.31
22.33
20.15
18.58
17.44
16.59
15.94
15.13
13.75
11.36
7.55
2.29
-4.01
-10.77
-17.33
-23.11
-27.97
-31.94
-35.39
-38.88
-42.97
-47.93
-53.6
-59.24
-63.39
-64.47
-60.82
-51.65
-37.31
-19.29
0.16
18.66
34.28
46.0
53.5
57.25
57.83
55.83
51.81
46.39
40.24
34.14
28.82
24.73
22.02
20.46
19.54
18.82
18.0
16.92
15.56
13.78
11.3
7.74
2.81
-3.48
-10.66
-17.96
-24.64
-30.18
-34.58
-38.34
-42.16
-46.65
-52.04
-58.05
-63.8
-67.97
-68.98
-65.43
-56.58
-42.6
-24.71
-4.95
14.33
31.18
44.35
53.47
58.75
60.64
59.7
56.45
51.55
45.78
40.13
35.38
32.05
30.24
29.65
29.87
30.46
31.04
31.38
31.22
30.24
28.09
24.54
19.43
12.97
5.57
-2.31
-10.07
-17.27
-23.43
-28.3
-31.68
-33.79
-35.17
-36.59
-38.7
-41.72
-45.05
-47.31
-46.78
-41.78
-31.59
-16.56
1.84
21.56
40.44
56.85
69.83
79.09
84.86
87.42
87.12
84.29
79.37
72.91
65.63
58.32
51.64
46.1
41.8
38.5
35.76
33.09
30.16
26.92
23.49
19.93
16.32
12.37
7.66
1.72
-5.75
-14.58
-24.11
-33.53
-42.19
-49.6
-55.82
-61.09
-65.78
-70.29
-74.74
-78.94
-82.41
-84.35
-83.68
-79.4
-70.91
-58.25
-42.42
-24.96
-7.71
7.82
20.68
30.56
37.58
41.94
43.83
43.27
40.42
35.73
29.97
24.11
19.03
15.06
12.12
9.96
8.13
6.44
4.82
3.24
1.62
-0.3
-2.92
-6.54
-11.12
-16.47
-22.07
-27.43
-32.16
-36.08
-39.26
-42.04
-44.85
-48.05
-51.8
-55.72
-58.78
-59.5
-56.28
-48.06
-34.73
-17.25
2.58
22.55
40.68
55.51
66.16
72.46
74.52
72.9
68.35
61.75
54.04
46.08
38.56
31.83
26.16
21.48
17.74
14.78
12.51
10.84
9.68
8.83
7.87
6.38
3.82
-0.09
-5.39
-11.78
-18.66
-25.42
-31.58
-37.0
-41.77
-46.32
-51.1
-56.49
-62.48
-68.46
-73.36
-75.71
-74.17
-67.84
-56.59
-41.15
-23.06
-4.18
13.77
29.33
41.69
50.46
55.74
57.99
57.78
55.5
51.57
46.34
40.03
32.75
24.23
13.96
1.32
-14.21
-32.88
-54.19
-76.88
-99.14
-118.89
-134.29
-144.0
-147.13
-143.3
-132.59
-115.51
-93.25
-67.7
-41.11
-15.96
5.55
21.99
32.69
37.9
38.63
36.37
33.07
31.05
32.34
38.22
48.8
62.88
78.48
93.3
105.41
113.68
117.94
118.51
115.89
110.51
102.78
93.19
82.44
71.43
61.06
51.98
44.33
37.84
32.05
26.56
21.23
16.18
11.59
7.47
3.46
-1.07
-6.68
-13.58
-21.53
-29.89
-37.95
-45.24
-51.59
-57.13
-62.14
-66.88
-71.56
-76.39
-81.37
-86.14
-89.81
-90.98
-88.15
-80.23
-67.07
-49.65
-29.83
-9.8
8.45
23.6
35.1
42.93
47.41
48.95
47.96
44.94
40.44
35.12
29.6
24.53
20.37
17.36
15.55
14.81
14.92
15.5
16.17
16.38
15.7
13.8
10.55
6.11
0.86
-4.63
-9.86
-14.38
-18.13
-21.34
-24.56
-28.41
-33.25
-38.95
-44.56
-48.6
-49.3
-45.3
-36.09
-22.32
-5.59
12.06
28.53
42.29
52.45
58.78
61.4
60.73
57.27
51.67
44.72
37.1
29.51
22.42
16.07
10.47
5.46
0.92
-3.18
-6.71
-9.64
-12.02
-14.06
-16.2
-18.71
-21.75
-25.05
-28.07
-30.26
-31.29
-31.2
-30.44
-29.83
-30.17
-32.14
-35.84
-40.72
-45.51
-48.59
-48.32
-43.53
-33.96
-20.21
-3.71
13.69
30.2
44.29
55.06
62.1
65.52
65.76
63.46
59.32
53.94
47.93
41.67
35.53
29.75
24.5
19.95
16.27
13.5
11.53
10.1
8.71
6.9
4.28
0.6
-4.07
-9.47
-15.28
-21.18
-26.87
-32.22
-37.14
-41.74
-46.45
-51.6
-57.28
-63.01
-67.61
-69.35
-66.54
-58.12
-44.23
-26.33
-6.72
12.14
28.24
40.47
48.58
52.9
54.03
52.53
48.83
43.37
36.64
29.26
21.9
15.16
9.47
5.12
2.21
0.69
0.36
0.84
1.57
1.86
1.13
-1.02
-4.7
-9.63
-15.37
-21.42
-27.31
-32.8
-37.79
-42.3
-46.55
-50.76
-54.97
-58.89
-61.64
-61.98
-58.59
-50.58
-37.98
-21.9
-4.3
12.61
26.94
37.65
44.6
48.26
49.38
48.57
46.19
42.48
37.79
32.55
27.27
22.5
18.54
15.45
13.02
10.94
8.92
6.82
4.46
1.72
-1.58
-5.63
-10.53
-16.23
-22.43
-28.68
-34.56
-39.85
-44.68
-49.48
-54.63
-60.2
-65.62
-69.78
-71.21
-68.7
-61.64
-50.33
-35.95
-20.21
-4.9
8.49
18.93
25.9
29.25
29.15
25.99
20.45
13.34
5.57
-2.07
-9.02
-15.11
-20.37
-24.94
-28.88
-32.07
-34.32
-35.61
-36.14
-36.49
-37.4
-39.44
-42.86
-47.42
-52.58
-57.64
-62.04
-65.39
-67.6
-68.8
-69.16
-68.84
-67.75
-65.61
-61.77
-55.45
-45.92
-32.9
-16.75
1.54
20.51
38.7
54.85
68.21
78.41
85.48
89.65
91.24
90.67
88.42
85.0
80.86
76.34
71.76
67.4
63.52
60.4
58.12
56.53
55.32
54.01
52.21
49.63
46.08
41.49
35.85
29.23
21.8
13.88
5.84
-2.11
-10.02
-18.13
-26.56
-35.01
-42.46
-47.41
-48.24
-43.82
-33.97
-19.56
-2.31
15.82
33.07
48.08
60.0
68.29
72.67
73.08
69.84
63.58
55.25
45.91
36.53
27.94
20.72
15.24
11.68
9.96
9.72
10.32
10.94
10.83
9.46
6.65
2.42
-2.92
-8.97
-15.23
-21.28
-26.8
-31.78
-36.41
-40.99
-45.7
-50.26
-53.81
-55.05
-52.69
-45.85
-34.52
-19.62
-2.68
14.44
30.06
42.99
52.57
58.62
61.27
60.87
57.81
52.61
45.86
38.18
30.2
22.5
15.64
9.96
5.72
2.76
0.7
-1.01
-2.92
-5.4
-8.57
-12.28
-16.34
-20.54
-24.89
-29.46
-34.3
-39.45
-44.93
-50.7
-56.59
-62.15
-66.4
-68.13
-65.96
-58.91
-46.9
-30.87
-12.67
5.52
21.69
34.67
43.96
49.86
52.86
53.49
52.11
48.97
44.27
38.34
31.79
25.19
19.24
14.39
10.78
8.32
6.64
5.25
3.72
1.83
-0.7
-3.87
-7.76
-12.34
-17.48
-22.99
-28.67
-34.36
-40.0
-45.69
-51.38
-56.81
-61.32
-63.85
-63.35
-58.88
-50.05
-37.11
-20.99
-3.13
14.72
30.85
44.03
53.48
59.08
61.14
60.35
57.38
52.88
47.44
41.6
36.01
31.27
27.77
25.52
24.28
23.64
23.21
22.78
22.24
21.53
20.42
18.62
15.79
11.87
7.12
1.94
-3.28
-8.47
-13.83
-19.69
-26.28
-33.46
-40.61
-46.7
-50.47
-50.7
-46.63
-38.16
-25.95
-11.42
3.72
17.81
29.56
38.3
43.91
46.62
46.85
44.98
41.39
36.44
30.61
24.42
18.4
13.03
8.65
5.51
3.6
2.79
2.82
3.27
3.7
3.73
2.98
1.35
-1.16
-4.38
-8.09
-12.07
-16.14
-20.28
-24.54
-29.11
-34.08
-39.3
-44.09
-47.3
-47.56
-43.66
-35.09
-22.26
-6.47
10.46
26.65
40.57
51.26
58.27
61.64
61.68
58.96
54.22
48.16
41.43
34.54
27.87
21.75
16.51
12.4
9.53
7.83
6.96
6.42
5.7
4.4
2.2
-0.9
-4.82
-9.37
-14.28
-19.32
-24.26
-28.98
-33.46
-37.87
-42.35
-46.91
-51.21
-54.43
-55.51
-53.15
-46.51
-35.48
-20.84
-4.2
12.5
27.5
39.62
48.27
53.57
55.85
55.54
53.02
48.6
42.71
35.85
28.64
21.61
15.24
9.84
5.63
2.7
1.03
0.47
0.72
1.39
1.96
1.88
0.73
-1.72
-5.37
-9.89
-14.81
-19.64
-24.17
-28.37
-32.51
-36.93
-41.82
-46.92
-51.47
-54.21
-53.78
-49.09
-39.76
-26.38
-10.37
6.39
22.12
35.46
45.65
52.44
55.94
56.46
54.38
50.3
44.92
38.95
32.98
27.45
22.57
18.38
14.83
11.83
9.31
7.26
5.68
4.46
3.37
2.16
0.45
-2.0
-5.28
-9.26
-13.74
-18.43
-23.09
-27.61
-32.02
-36.44
-41.06
-45.98
-51.04
-55.74
-59.09
-59.87
-56.87
-49.39
-37.53
-22.24
-5.13
11.86
27.03
39.2
47.78
52.7
54.23
52.84
49.16
43.96
38.02
32.08
26.69
22.13
18.44
15.49
13.12
11.26
9.96
9.22
9.01
9.11
9.22
8.89
7.72
5.36
1.7
-3.05
-8.44
-13.9
-18.94
-23.39
-27.35
-31.16
-35.24
-39.74
-44.42
-48.59
-51.19
-51.15
-47.59
-40.15
-29.11
-15.45
-0.51
14.23
27.5
38.35
46.17
50.75
52.25
51.12
47.97
43.59
38.62
33.57
28.75
24.3
20.28
16.76
13.78
11.36
9.52
8.13
7.03
5.99
4.7
2.84
0.13
-3.59
-8.18
-13.33
-18.58
-23.65
-28.35
-32.78
-37.22
-41.93
-47.01
-52.13
-56.42
-58.7
-57.73
-52.54
-42.84
-29.14
-12.74
4.6
20.91
34.55
44.26
49.54
50.58
48.1
43.18
36.97
30.37
23.9
17.74
11.85
6.23
1.04
-3.46
-6.82
-8.62
-8.68
-7.17
-4.65
-1.98
-0.07
0.34
-1.18
-4.55
-9.41
-15.18
-21.26
-27.06
-32.23
-36.71
-40.64
-44.44
-48.29
-52.01
-54.94
-55.98
-53.99
-48.22
-38.66
-26.07
-11.78
2.62
15.78
26.64
34.62
39.53
41.49
40.83
38.18
34.23
29.65
25.02
20.79
17.18
14.22
11.88
10.05
8.74
7.93
7.6
7.6
7.62
7.23
5.9
3.3
-0.61
-5.56
-11.06
-16.6
-21.85
-26.64
-31.07
-35.33
-39.64
-44.16
-48.79
-53.06
-56.11
-56.72
-53.78
-46.61
-35.32
-20.87
-4.97
10.52
24.03
34.52
41.69
45.61
46.66
45.3
42.05
37.38
31.93
26.36
21.25
17.0
13.8
11.55
10.01
9.01
8.34
7.94
7.66
7.33
6.66
5.39
3.32
0.29
-3.68
-8.46
-13.75
-19.28
-24.86
-30.45
-36.09
-41.78
-47.31
-52.09
-55.18
-55.37
-51.69
-43.72
-31.86
-17.27
-1.53
13.58
26.58
36.51
43.12
46.55
47.22
45.59
42.05
37.01
30.93
24.33
17.81
11.98
7.37
4.23
2.57
2.06
2.19
2.41
2.3
1.57
0.09
-2.09
-4.87
-8.11
-11.73
-15.61
-19.66
-23.85
-28.15
-32.71
-37.62
-42.82
-47.93
-52.19
-54.5
-53.71
-48.97
-39.94
-27.15
-11.82
4.33
19.57
32.52
42.36
48.88
52.26
52.97
51.49
48.29
43.77
38.37
32.54
26.71
21.27
16.51
12.62
9.67
7.59
6.19
5.16
4.19
2.94
1.21
-1.06
-3.83
-6.96
-10.3
-13.68
-17.14
-20.76
-24.78
-29.33
-34.39
-39.67
-44.48
-47.71
-48.15
-44.81
-37.28
-25.92
-11.75
3.67
18.68
31.84
42.2
49.35
53.41
54.68
53.65
50.76
46.45
41.14
35.27
29.32
23.73
18.87
14.86
11.68
9.25
7.45
6.22
5.44
4.87
4.18
3.0
1.01
-1.92
-5.71
-10.16
-15.01
-20.06
-25.25
-30.63
-36.28
-42.15
-47.89
-52.72
-55.59
-55.29
-50.94
-42.27
-29.76
-14.59
1.68
17.44
31.33
42.29
49.78
53.67
54.17
51.81
47.28
41.39
34.9
28.42
22.42
17.21
13.04
10.02
8.18
7.37
7.3
7.48
7.31
6.29
4.09
0.71
-3.58
-8.4
-13.35
-18.26
-23.09
-27.92
-32.85
-37.88
-42.8
-47.16
-50.24
-51.22
-49.29
-43.83
-34.77
-22.6
-8.44
6.22
19.8
31.06
39.05
43.4
44.26
42.16
37.87
32.22
25.97
19.78
14.14
9.37
5.64
2.99
1.37
0.64
0.55
0.78
0.94
0.66
-0.42
-2.5
-5.57
-9.46
-13.79
-18.25
-22.56
-26.59
-30.32
-33.9
-37.49
-41.25
-45.07
-48.48
-50.62
-50.42
-46.87
-39.42
-28.26
-14.36
0.68
15.11
27.47
36.8
42.77
45.49
45.39
43.04
39.02
33.94
28.41
23.05
18.34
14.65
12.09
10.53
9.74
9.43
9.32
9.18
8.81
7.96
6.42
4.01
0.66
-3.52
-8.25
-13.15
-17.75
-21.76
-25.15
-28.18
-31.28
-34.87
-38.95
-43.03
-46.12
-46.99
-44.64
-38.5
-28.77
-16.24
-2.22
11.83
24.52
34.78
41.95
45.83
46.74
45.34
42.37
38.52
34.29
29.97
25.82
22.08
18.92
16.52
14.9
13.87
13.17
12.58
11.97
11.36
10.68
9.7
8.11
5.56
1.91
-2.63
-7.62
-12.49
-16.84
-20.59
-24.07
-27.72
-32.0
-36.93
-41.95
-46.1
-48.07
-46.66
-41.17
-31.64
-18.79
-4.1
10.8
24.39
35.5
43.39
47.92
49.26
47.85
44.34
39.36
33.6
27.72
22.23
17.43
13.45
10.24
7.7
5.82
4.54
3.81
3.47
3.21
2.65
1.4
-0.8
-4.0
-8.01
-12.56
-17.3
-21.93
-26.27
-30.3
-34.16
-38.09
-42.26
-46.47
-50.13
-52.23
-51.53
-47.09
-38.56
-26.37
-11.74
3.65
18.18
30.56
40.01
46.23
49.29
49.5
47.41
43.67
38.94
33.86
28.99
24.68
21.06
18.14
15.78
13.87
12.28
10.88
9.59
8.28
6.78
4.96
2.64
-0.31
-3.95
-8.2
-12.89
-17.69
-22.26
-26.4
-30.13
-33.73
-37.59
-41.96
-46.77
-51.5
-55.12
-56.53
-54.7
-49.08
-39.74
-27.37
-13.1
1.72
15.82
28.22
38.21
45.4
49.61
50.83
49.25
45.36
39.86
33.64
27.55
22.18
17.82
14.52
12.1
10.42
9.4
9.07
9.46
10.47
11.69
12.48
12.27
10.57
7.23
2.52
-3.07
-8.91
-14.51
-19.58
-24.13
-28.31
-32.37
-36.57
-40.92
-45.13
-48.48
-50.0
-48.64
-43.67
-35.0
-23.12
-9.19
5.4
19.23
31.15
40.41
46.74
50.18
50.98
49.57
46.4
42.06
37.04
31.9
27.15
23.22
20.35
18.57
17.64
17.18
16.86
16.43
15.75
14.82
13.56
11.82
9.42
6.15
2.03
-2.67
-7.54
-12.12
-16.04
-19.26
-22.04
-24.88
-28.23
-32.34
-36.91
-41.13
-43.8
-43.61
-39.73
-32.03
-21.21
-8.51
4.55
16.61
26.69
34.26
39.19
41.5
41.3
38.75
34.23
28.35
21.92
15.78
10.59
6.65
3.83
1.84
0.35
-0.74
-1.39
-1.55
-1.39
-1.29
-1.77
-3.22
-5.65
-8.84
-12.47
-16.45
-20.93
-26.18
-32.41
-39.57
-47.4
-55.44
-63.23
-70.15
-75.46
-78.16
-77.22
-71.81
-61.7
-47.52
-30.6
-12.73
4.39
19.44
31.67
40.79
46.88
50.28
51.37
50.78
48.99
46.55
43.82
41.12
38.5
35.91
33.33
30.7
28.14
25.72
23.52
21.43
19.23
16.58
13.13
8.72
3.41
-2.52
-8.71
-14.85
-20.71
-26.18
-31.17
-35.76
-40.02
-44.16
-48.19
-51.98
-55.01
-56.45
-55.34
-50.85
-42.7
-31.27
-17.72
-3.5
9.92
21.4
30.38
36.7
40.49
41.88
41.12
38.44
34.29
29.36
24.42
20.1
16.78
14.43
12.73
11.36
10.04
8.75
7.56
6.6
5.75
4.77
3.3
1.06
-1.99
-5.67
-9.64
-13.49
-16.89
-19.8
-22.4
-25.06
-28.19
-31.95
-36.16
-40.13
-42.79
-43.06
-40.06
-33.52
-23.81
-11.94
0.75
12.86
23.28
31.34
36.82
39.83
40.7
39.82
37.57
34.38
30.65
26.78
23.15
20.06
17.69
16.12
15.33
15.19
15.46
15.82
15.89
15.38
14.17
12.28
9.9
7.15
4.12
0.72
-3.16
-7.6
-12.56
-17.9
-23.46
-29.02
-34.21
-38.45
-40.87
-40.48
-36.47
-28.55
-17.18
-3.55
10.66
23.75
34.35
41.73
45.72
46.68
45.13
41.7
36.91
31.21
25.03
18.84
13.15
8.42
5.0
2.94
2.1
2.14
2.65
3.21
3.45
3.01
1.69
-0.61
-3.88
-7.92
-12.4
-16.97
-21.26
-25.01
-28.24
-31.08
-33.82
-36.68
-39.54
-41.85
-42.65
-40.79
-35.43
-26.41
-14.32
-0.4
13.76
26.78
37.67
45.89
51.35
54.13
54.34
52.28
48.39
43.32
37.85
32.61
28.0
24.18
21.09
18.6
16.62
15.06
13.82
12.76
11.69
10.29
8.32
5.5
1.65
-3.22
-8.93
-15.11
-21.26
-27.01
-32.21
-36.98
-41.65
-46.54
-51.52
-56.08
-59.19
-59.64
-56.48
-49.33
-38.58
-25.36
-11.19
2.47
14.42
23.88
30.59
34.55
35.94
35.06
32.3
28.19
23.37
18.45
13.9
10.02
6.87
4.41
2.55
1.32
0.77
0.88
1.44
2.01
2.03
1.04
-1.13
-4.31
-8.05
-11.88
-15.55
-19.04
-22.47
-26.01
-29.73
-33.54
-37.15
-40.08
-41.66
-41.07
-37.51
-30.39
-19.68
-6.0
9.48
25.23
39.72
51.69
60.35
65.39
66.95
65.55
61.91
56.84
51.09
45.24
39.77
34.97
31.11
28.27
26.41
25.32
24.66
24.14
23.54
22.75
21.68
20.17
17.98
14.92
10.9
6.05
0.7
-4.87
-10.39
-15.77
-21.04
-26.24
-31.41
-36.42
-40.63
-42.63
-40.38
-31.7
-15.35
8.33
37.05
67.25
95.48
119.65
139.85
157.58
174.57
191.21
206.18
217.01
221.44
218.34
208.01
191.7
170.77
146.27
119.01
90.02
60.88
33.32
8.33
-14.14
-35.03
-54.83
-72.65
-85.71
-90.35
-83.76
-65.62
-38.95
-9.45
15.98
31.42
33.24
20.83
-3.84
-37.11
-74.69
-112.02
-144.71
-168.9
-181.7
-181.68
-169.5
-147.95
-121.32
-94.14
-69.77
-49.68
-33.81
-21.56
-12.74
-8.07
-8.57
-14.77
-25.76
-39.2
-51.85
-60.73
-63.85
-60.67
-51.98
-39.27
-24.45
-9.39
4.11
14.36
20.05
20.59
16.51
9.32
1.19
-6.0
-11.15
-14.39
-16.88
-20.18
-25.52
-33.12
-42.02
-50.31
-55.82
-56.72
-52.29
-43.0
-30.29
-16.08
-2.07
10.46
20.7
28.1
32.15
32.37
28.45
20.6
9.61
-3.31
-16.84
-29.95
-42.16
-53.39
-63.86
-73.73
-82.8
-90.57
-96.33
-99.47
-99.88
-98.14
-95.47
-93.3
-92.8
-94.44
-97.92
-102.33
-106.54
-109.72
-111.62
-112.52
-112.91
-113.14
-113.0
-111.8
-108.66
-102.7
-93.46
-81.22
-66.96
-52.34
-39.4
-30.1
-26.15
-28.8
-38.39
-54.17
-74.44
-96.59
-117.52
-134.09
-143.54
-143.89
-134.41
-115.7
-89.49
-58.49
-25.74
5.75
33.54
55.99
72.38
82.8
87.99
88.93
86.54
81.61
74.26
64.15
51.01
34.99
16.58
-3.68
-25.81
-50.46
-78.2
-109.0
-141.37
-171.87
-195.73
-208.28
-206.61
-190.45
-162.73
-128.51
-93.68
-63.28
-40.49
-26.11
-19.07
-17.22
-17.9
-18.88
-18.34
-14.91
-7.39
5.05
22.51
44.44
69.61
96.55
123.83
150.5
175.78
198.7
217.81
230.88
235.6
230.16
213.93
187.57
153.31
114.62
75.34
39.33
9.77
-11.4
-24.13
-29.98
-31.91
-32.96
-35.47
-40.82
-49.05
-59.15
-69.32
-77.55
-81.71
-80.1
-71.81
-57.22
-38.12
-17.09
3.27
21.31
36.7
50.14
62.35
73.32
81.81
85.83
83.62
74.33
58.66
38.69
17.61
-1.58
-16.72
-27.14
-33.68
-37.86
-41.58
-46.05
-51.73
-58.41
-65.83
-73.85
-82.32
-90.42
-96.03
-96.03
-86.92
-66.41
-34.5
6.25
51.78
97.96
142.01
182.94
220.72
255.42
286.17
311.13
328.44
336.8
336.3
328.24
314.55
296.82
276.27
253.87
230.56
207.93
187.68
171.54
160.52
154.42
151.64
149.63
145.78
138.22
126.92
113.74
101.83
94.58
93.85
98.89
105.83
108.1
97.96
68.82
17.58
-53.63
-136.66
-219.15
-287.5
-330.61
-342.69
-323.92
-279.13
-215.52
-140.78
-61.52
16.95
90.49
156.14
212.0
257.26
291.81
315.43
327.11
325.22
308.3
275.76
228.65
168.97
99.32
22.34
-59.35
-142.42
-222.18
-292.33
-346.11
-377.89
-385.61
-371.86
-343.16
-308.09
-274.8
-248.8
-231.87
-222.82
-218.95
-217.69
-217.64
-218.1
-218.51
-218.13
-216.12
-211.87
-205.68
-198.83
-192.82
-188.81
-186.33
-183.53
-177.49
-165.56
-146.23
-119.77
-88.02
-53.82
-20.48
8.81
31.33
45.3
50.23
47.07
38.13
26.66
15.93
8.05
3.36
0.9
-0.75
-2.32
-3.61
-3.82
-2.54
-0.16
1.94
2.28
0.44
-2.56
-4.46
-3.02
3.14
13.89
27.88
43.24
58.35
72.24
84.33
94.31
101.82
106.55
108.31
107.14
103.32
97.28
89.65
81.16
72.67
65.05
59.07
55.17
53.38
53.27
54.15
55.35
56.39
57.03
57.03
56.05
53.62
49.26
42.77
34.31
24.44
13.93
3.5
-6.38
-15.45
-23.52
-30.2
-34.73
-35.97
-32.69
-23.99
-9.71
9.09
30.29
51.0
68.35
80.26
85.95
85.98
81.72
74.71
66.11
56.75
47.25
38.31
30.87
25.82
23.64
24.03
25.94
27.99
29.04
28.62
26.84
24.15
20.93
17.39
13.57
9.45
5.08
0.56
-3.86
-7.89
-11.21
-13.49
-14.25
-12.87
-8.78
-1.8
7.83
19.57
32.82
47.24
62.94
80.48
100.78
124.13
149.55
174.55
195.85
210.34
216.09
212.94
202.42
187.84
172.57
159.3
149.91
145.93
148.38
157.41
172.06
190.26
210.58
231.07
249.42
263.55
272.14
274.43
269.77
257.68
238.16
213.75
186.67
157.9
127.64
96.31
64.92
34.92
7.93
-14.21
-27.67
-31.15
-27.37
-22.15
-22.24
-33.34
-58.98
-99.69
-165.54
-250.54
-335.26
-398.43
-430.25
-434.08
-419.06
-393.78
-363.82
-331.87
-297.09
-260.17
-224.49
-194.13
-171.7
-156.79
-147.07
-139.76
-132.45
-122.21
-108.45
-93.09
-78.5
-66.15
-55.17
-43.27
-28.16
-8.17
18.19
50.18
84.8
119.3
149.4
172.28
186.31
190.58
184.84
169.92
146.92
115.38
79.06
40.89
3.93
-29.07
-56.12
-76.25
-89.32
-95.93
-97.45
-95.24
-91.15
-86.37
-81.57
-77.06
-72.97
-69.31
-65.89
-62.56
-59.05
-55.49
-51.99
-48.63
-45.52
-42.89
-40.91
-39.75
-39.98
-41.96
-46.17
-52.79
-61.62
-72.03
-82.97
-94.11
-102.94
-107.82
-107.39
-101.07
-88.9
-71.63
-50.64
-27.82
-5.22
15.48
32.57
45.17
52.91
56.14
55.75
52.95
48.82
44.41
40.72
37.99
36.42
35.67
35.25
34.93
34.44
33.7
32.84
32.35
32.62
34.35
37.72
42.78
49.58
57.81
67.13
76.99
87.02
96.67
105.61
113.09
118.45
121.45
121.83
119.59
115.03
108.95
102.3
96.35
91.61
88.35
86.81
86.54
86.74
86.4
84.36
78.96
73.51
68.78
64.55
60.36
55.09
47.68
37.37
24.02
8.05
-9.58
-28.5
-48.43
-69.13
-90.62
-112.84
-135.76
-159.33
-183.55
-207.72
-230.74
-250.24
-262.54
-264.28
-253.57
-230.97
-199.73
-164.79
-131.05
-102.43
-80.9
-66.42
-58.15
-54.96
-55.56
-58.67
-62.71
-65.87
-66.55
-63.94
-58.39
-51.68
-46.43
-44.79
-47.61
-53.63
-60.26
-64.45
-64.31
-59.58
-51.79
-43.06
-34.99
-28.29
-22.45
-16.73
-10.58
-4.13
2.2
7.93
13.05
17.98
23.22
29.29
36.24
43.67
50.75
56.53
60.17
61.12
59.29
54.81
48.18
39.96
30.66
20.77
10.66
0.73
-8.59
-16.75
-23.17
-27.19
-28.39
-26.85
-23.0
-17.79
-12.26
-7.46
-3.84
-1.41
0.34
2.22
4.78
8.36
12.75
17.51
21.64
23.84
22.16
14.44
-1.02
-24.76
-55.23
-89.25
-122.77
-152.43
-176.3
-194.57
-208.79
-220.9
-232.52
-244.52
-257.43
-271.93
-288.84
-308.45
-329.85
-350.34
-365.74
-371.96
-366.13
-348.01
-320.12
-286.66
-251.96
-219.01
-189.16
-162.08
-137.13
-113.89
-92.6
-73.84
-57.94
-44.79
-33.72
-24.01
-14.99
-6.69
0.59
6.33
10.14
12.14
12.78
12.82
13.07
14.21
16.44
19.82
24.23
29.44
35.34
41.74
48.42
54.89
60.57
64.68
66.48
65.6
61.95
55.89
48.11
39.46
30.74
22.64
15.6
9.77
5.27
1.92
-0.41
-1.94
-2.88
-3.46
-3.84
-4.14
-4.47
-4.76
-5.05
-5.16
-5.02
-4.5
-3.55
-2.12
-0.16
2.23
5.1
8.25
11.61
15.07
18.48
21.77
