-6.24
-6.4
-6.4
-6.47
-6.77
-7.13
-7.45
-7.63
-7.84
-8.32
-9.41
-11.06
-12.96
-14.81
-16.32
-17.35
-17.81
-17.63
-16.69
-14.87
-12.18
-8.59
-4.26
0.89
7.0
14.28
22.84
32.32
41.95
50.43
56.64
59.6
59.21
56.01
51.12
45.88
41.41
38.3
36.44
35.33
34.21
32.73
30.73
28.3
25.42
21.84
17.01
10.26
0.92
-11.74
-28.33
-49.11
-73.54
-99.99
-125.78
-147.7
-162.85
-169.5
-167.56
-158.29
-143.66
-125.63
-105.62
-84.76
-63.93
-44.03
-25.82
-9.81
4.0
16.15
27.33
38.14
48.64
58.39
66.56
72.42
75.56
76.07
74.32
70.86
66.26
60.91
55.2
49.3
43.4
37.51
31.6
25.6
19.59
13.84
8.73
4.57
1.3
-1.42
-4.06
-7.07
-10.52
-14.18
-17.57
-20.23
-21.83
-22.41
-22.26
-21.71
-21.08
-20.5
-20.02
-19.57
-19.13
-18.76
-18.68
-19.1
-20.06
-21.32
-22.35
-22.63
-21.66
-19.27
-15.43
-10.29
-4.14
2.67
9.73
16.63
22.93
28.31
32.74
36.3
39.09
41.1
42.13
41.93
40.47
37.82
34.3
30.31
26.15
22.05
18.07
14.36
10.97
7.92
4.99
1.82
-2.02
-6.74
-12.1
-17.52
-22.24
-25.79
-28.11
-29.57
-30.68
-31.88
-33.34
-34.98
-36.58
-37.89
-38.68
-38.59
-37.0
-33.13
-26.21
-16.03
-3.08
11.5
26.3
40.31
53.27
65.64
77.9
90.05
100.9
108.43
110.4
105.4
93.36
75.78
54.93
33.1
12.22
-6.45
-22.03
-33.95
-41.82
-45.68
-46.13
-44.37
-41.95
-40.08
-39.45
-40.04
-41.34
-42.77
-43.9
-44.6
-44.92
-44.91
-44.48
-43.48
-41.82
-39.46
-36.44
-32.8
-28.44
-23.03
-16.37
-8.31
0.89
10.61
20.17
28.77
35.82
40.79
43.48
43.8
41.81
37.78
32.15
25.75
19.38
13.79
9.28
5.84
3.3
1.4
0.03
-1.02
-1.89
-2.82
-3.74
-4.41
-4.32
-3.08
-0.63
2.49
5.34
7.16
7.72
7.51
7.27
7.71
9.18
11.57
14.16
16.12
17.28
18.2
19.75
22.68
27.38
33.99
42.58
52.12
61.44
69.77
77.27
84.18
90.65
96.24
100.45
102.97
102.05
96.1
84.65
69.03
51.0
31.93
11.95
-9.83
-34.6
-65.82
-106.54
-157.48
-215.82
-276.92
-335.78
-388.63
-433.64
-455.4
-442.42
-392.93
-317.77
-232.67
-150.77
-78.45
-17.34
32.78
73.88
105.81
128.53
143.04
153.26
161.97
170.71
181.71
193.05
202.63
206.55
201.4
185.38
160.7
128.51
89.49
44.43
-5.47
-57.53
-109.63
-160.22
-208.38
-244.0
-261.28
-258.54
-236.58
-197.91
-145.66
-85.16
-23.03
35.13
92.28
151.07
212.2
274.22
332.75
381.92
415.88
432.24
411.68
358.74
286.58
209.37
137.44
76.4
29.2
-2.52
-18.25
-19.75
-7.86
12.0
32.67
48.9
59.12
65.33
70.34
75.35
78.29
76.78
66.32
42.83
6.27
-38.5
-83.78
-122.91
-152.47
-173.53
-190.34
-203.97
-214.67
-221.07
-221.21
-214.06
-200.33
-182.33
-163.49
-146.16
-131.03
-118.56
-108.96
-102.71
-100.38
-101.89
-106.56
-109.24
-108.36
-101.37
-86.35
-62.42
-30.8
6.0
45.77
86.1
124.23
157.6
186.06
210.03
229.66
242.77
246.69
241.19
225.63
198.47
159.19
110.52
56.44
2.24
-48.85
-93.0
-121.15
-127.55
-111.84
-75.83
-21.79
46.34
123.76
200.4
266.88
323.82
369.56
398.34
400.39
370.32
306.64
212.11
86.76
-66.17
-229.59
-389.81
-540.03
-674.31
-785.62
-867.55
-880.78
-805.21
-702.18
-599.51
-489.21
-375.74
-265.88
-166.18
-82.12
-16.87
23.6
38.32
42.57
49.05
63.8
86.52
109.94
122.88
119.29
94.92
50.48
-0.8
-48.8
-87.92
-114.02
-126.3
-127.66
-123.9
-124.97
-139.38
-167.06
-207.2
-259.94
-321.55
-386.67
-448.61
-499.71
-534.12
-546.45
-530.14
-482.31
-404.81
-298.24
-166.1
-15.24
144.65
302.0
446.33
570.51
669.22
738.83
784.43
811.9
825.16
825.25
812.08
787.14
754.27
718.48
684.86
665.74
670.04
700.01
750.47
812.46
878.21
942.97
1004.31
1009.16
926.4
757.74
538.6
313.37
111.5
-56.2
-190.4
-296.12
-378.83
-434.89
-461.98
-462.92
-446.41
-423.96
-404.26
-391.28
-385.65
-386.3
-385.19
-376.44
-358.77
-336.22
-316.42
-305.91
-308.44
-325.08
-354.15
-387.28
-414.96
-429.37
-421.17
-389.95
-340.76
-281.63
-220.93
-165.07
-115.37
-71.12
-31.46
3.29
30.7
49.49
60.68
67.27
73.21
82.57
97.08
115.62
134.96
151.42
161.57
164.61
161.77
155.34
147.47
139.47
131.83
124.61
116.72
107.77
98.31
89.04
80.45
72.28
63.52
52.83
39.53
22.69
2.81
-18.52
-39.91
-60.71
-81.65
-104.62
-132.62
-163.02
-194.36
-224.26
-249.68
-267.88
-276.98
-276.62
-267.85
-252.71
-233.52
-213.65
-195.95
-182.08
-171.84
-162.47
-149.2
-126.62
-91.27
-43.07
13.22
70.23
120.72
159.54
185.57
201.09
209.79
214.25
214.88
209.87
197.33
177.15
151.39
124.62
102.27
88.77
85.21
89.74
98.88
109.7
121.66
134.92
150.65
169.4
190.11
208.31
219.57
221.74
216.27
208.55
202.07
199.12
200.35
204.7
206.29
199.65
182.77
157.89
132.27
109.01
89.77
75.41
65.58
53.03
30.67
-4.58
-50.66
-98.97
-148.15
-199.04
-252.27
-308.8
-376.16
-459.63
-557.96
-662.67
-757.08
-835.33
-896.07
-939.42
-918.17
-803.87
-603.68
-360.42
-157.46
0.58
124.22
222.65
308.49
382.5
434.86
456.92
446.99
411.56
366.97
320.22
274.97
234.38
199.99
166.49
127.84
80.36
25.01
-29.2
-77.72
-114.93
-133.09
-125.95
-94.4
-44.36
14.84
73.3
124.28
158.09
167.42
150.12
109.73
53.96
-4.53
-50.48
-70.23
-55.95
-12.42
46.16
101.88
139.65
151.93
140.85
115.42
86.05
59.9
37.13
13.74
-14.54
-49.09
-87.91
-127.49
-165.24
-200.04
-230.86
-254.94
-267.51
-264.63
-246.86
-221.19
-198.84
-190.02
-198.08
-216.8
-233.13
-233.11
-208.34
-158.77
-91.49
-16.84
55.25
116.95
162.85
189.64
196.8
187.03
166.54
143.44
125.01
114.81
111.43
108.97
99.05
74.15
30.75
-28.42
-93.88
-151.41
-186.18
-187.67
-153.79
-92.17
-17.62
52.55
104.48
131.81
136.64
127.61
115.79
110.7
117.52
136.67
164.72
196.1
224.58
244.03
249.21
236.42
204.88
158.0
103.9
53.61
17.83
2.88
8.15
26.75
49.02
67.0
77.53
82.42
85.38
88.86
92.07
91.93
85.89
74.6
62.21
54.3
54.99
64.18
77.79
89.44
93.28
85.77
66.28
36.05
-3.24
-49.83
-102.26
-157.9
-212.48
-260.14
-295.07
-313.27
-314.19
-301.09
-279.55
-255.83
-234.55
-217.88
-205.58
-195.66
-185.07
-170.69
-150.36
-123.87
-94.24
-67.42
-50.37
-48.44
-61.99
-85.52
-109.04
-121.69
-115.47
-87.9
-42.24
14.49
73.84
128.47
173.06
204.47
221.23
223.74
213.88
195.07
171.84
148.75
129.59
116.23
108.28
103.55
99.23
93.01
84.05
73.1
61.92
52.48
45.78
41.29
37.22
31.22
21.45
7.48
-9.53
-26.85
-41.03
-48.86
-48.43
-39.53
-23.67
-3.76
16.77
34.66
47.86
56.13
61.4
66.97
76.49
92.17
113.74
138.67
163.03
183.11
196.71
203.66
205.16
202.83
197.74
190.54
182.11
174.01
168.09
165.66
166.21
167.23
164.59
154.02
132.84
101.18
61.53
17.71
-26.72
-69.86
-111.39
-152.15
-193.29
-235.42
-277.7
-317.43
-349.8
-368.9
-369.95
-351.53
-316.85
-273.01
-228.2
-188.75
-156.98
-131.69
-110.06
-90.48
-73.72
-62.14
-58.0
-61.44
-70.19
-80.5
-88.58
-91.73
-88.93
-80.59
-68.34
-54.85
-43.18
-36.05
-35.01
-39.79
-48.11
-56.71
-62.17
-62.18
-56.34
-45.94
-33.01
-19.13
-4.38
13.12
35.65
63.97
96.62
129.66
157.94
177.09
184.81
181.43
169.56
152.32
131.68
108.45
82.53
54.08
24.45
-4.19
-28.66
-44.73
-49.63
-43.36
-28.27
-8.57
11.36
27.86
37.49
38.24
31.94
20.49
4.8
-13.2
-30.78
-44.47
-51.68
-54.07
-55.42
-54.81
-51.99
-48.08
-41.93
-31.09
-13.4
11.03
34.97
48.57
50.86
41.01
17.24
-17.14
-54.73
-86.43
-106.0
-118.75
-137.18
-165.4
-208.03
-270.02
-347.98
-432.08
-509.77
-539.62
-493.37
-422.1
-353.26
-278.02
-195.16
-104.07
-5.31
99.39
206.82
306.9
379.35
414.62
410.67
372.0
311.52
243.01
176.43
116.03
57.5
-4.73
-64.96
-115.78
-155.25
-181.39
-194.94
-199.33
-199.25
-201.25
-209.35
-218.51
-222.59
-218.96
-206.78
-187.77
-164.7
-141.69
-122.45
-108.02
-93.93
-74.92
-48.05
-12.3
30.73
77.72
125.53
171.83
215.93
259.52
304.71
352.91
404.97
459.41
512.13
557.56
589.86
604.54
600.57
581.8
556.67
536.22
528.35
535.1
552.72
573.35
587.87
588.42
570.11
531.09
472.24
393.93
296.92
184.25
62.35
-60.19
-174.59
-274.16
-359.96
-425.06
-463.09
-474.28
-465.66
-445.31
-418.68
-388.14
-354.5
-318.3
-279.94
-241.83
-207.02
-177.48
-153.52
-134.57
-119.84
-108.83
-101.14
-96.16
-94.21
-95.75
-100.19
-105.64
-109.7
-110.21
-105.88
-96.2
-81.41
-63.15
-43.78
-25.46
-9.63
2.7
10.87
14.53
13.62
8.6
-0.04
-11.57
-24.9
-37.76
-48.47
-55.61
-58.3
-56.15
-49.19
-37.99
-23.45
-6.78
11.11
29.09
46.25
61.73
74.88
85.14
92.24
95.9
95.87
92.42
85.9
76.98
66.42
55.14
43.99
33.03
22.41
12.34
3.12
-5.09
-12.02
-17.33
-20.81
-22.06
-21.73
-20.24
-17.82
-14.54
-10.34
-5.01
1.73
9.9
19.73
29.36
37.45
43.38
47.37
50.36
53.64
58.61
66.32
77.36
88.33
96.11
99.04
96.92
90.19
79.48
65.3
47.37
29.91
10.35
-12.99
-38.85
-64.68
-89.01
-111.61
-131.53
-145.99
-149.48
-143.53
-129.19
-105.91
-75.3
-43.97
-21.85
-17.21
-33.44
-67.06
-119.96
-189.62
-266.75
-340.51
-404.11
-455.79
-496.41
-527.4
-501.04
-403.31
-263.97
-127.36
-17.01
66.14
130.19
183.64
232.21
281.08
324.28
354.47
370.62
375.92
373.02
362.71
345.45
309.09
258.18
197.05
131.72
70.16
19.23
-18.13
-42.9
-57.7
-64.92
-64.31
-60.85
-58.76
-58.57
-58.7
-58.26
-57.94
-58.77
-60.9
-62.02
-62.55
-63.19
-63.32
-62.23
-60.09
-58.13
-57.77
-59.74
-62.98
-67.22
-71.79
-74.67
-72.95
-64.1
-47.15
-23.39
3.77
30.34
52.31
67.19
74.91
77.27
76.73
74.84
71.57
65.4
54.75
38.9
19.09
-1.38
-18.0
-26.75
-25.98
-17.48
-5.41
5.33
11.49
12.88
11.67
10.74
11.64
13.78
14.87
12.62
6.39
-2.69
-12.24
-20.39
-26.76
-32.37
-38.86
-47.18
-56.78
-65.66
-71.43
-71.78
-65.79
-54.17
-38.85
-22.29
-6.59
7.09
18.64
28.56
37.62
45.96
53.22
58.62
61.32
60.98
58.17
54.09
50.21
47.79
47.18
47.92
48.88
48.86
47.1
43.75
39.7
36.11
34.04
33.99
35.99
39.5
43.47
46.32
46.04
40.7
29.45
13.07
-5.74
-23.1
-35.35
-40.54
-38.98
-32.98
-25.63
-19.08
-13.93
-9.4
-4.29
1.97
8.65
14.23
17.13
16.59
13.04
7.98
3.03
-0.86
-3.71
-6.35
-9.71
-14.18
-19.26
-23.76
-26.27
-25.81
-22.34
-16.89
-11.13
-6.72
-4.73
-5.32
-7.86
-11.29
-14.68
-17.57
-20.08
-22.8
-26.27
-30.66
-35.56
-39.95
-42.65
-42.74
-39.71
-33.65
-25.15
-15.03
-4.14
6.61
16.39
24.51
30.55
34.57
37.09
38.75
40.01
40.99
41.51
41.37
40.55
39.24
37.69
36.07
34.3
32.28
29.96
27.54
25.33
23.56
22.25
21.19
20.1
18.88
17.77
16.96
16.63
16.54
16.13
14.62
11.48
6.53
0.18
-6.77
-13.49
-19.4
-24.35
-28.47
-32.02
-34.98
-37.14
-38.15
-37.87
-36.45
-34.2
-31.32
-27.7
-22.96
-16.83
-9.42
-1.41
6.14
12.29
16.61
19.29
20.87
21.93
22.64
22.91
22.65
21.88
20.82
19.74
18.71
17.55
16.13
14.4
12.6
11.11
10.14
9.61
9.18
8.4
7.12
5.4
3.55
1.88
0.57
-0.49
-1.52
-2.7
-4.18
-5.96
-7.97
-10.13
-12.38
-14.66
-17.09
-19.75
-22.63
-25.77
-28.96
-31.91
-34.25
-35.56
-35.42
-33.59
-29.91
-24.45
-17.63
-9.99
-2.34
4.52
9.98
13.76
15.95
16.95
17.34
17.58
18.0
18.59
19.12
19.41
19.38
19.16
19.03
19.2
19.6
20.08
20.37
20.26
19.79
19.11
18.37
17.62
16.71
15.38
13.49
11.09
8.37
5.69
3.28
1.14
-0.8
-2.87
-5.38
-8.52
-12.28
-16.52
-20.96
-25.41
-29.81
-34.07
-38.15
-41.86
-44.91
-47.0
-47.93
-47.63
-46.07
-43.23
-38.92
-33.18
-26.14
-18.18
-9.94
-1.97
5.35
11.86
17.48
22.14
25.66
27.89
28.85
28.61
27.38
25.34
22.73
19.82
17.03
14.79
13.47
13.22
13.75
14.7
15.58
16.03
15.83
14.93
13.35
11.21
8.65
5.88
3.26
1.0
-0.86
-2.45
-4.12
-6.27
-9.16
-12.89
-17.31
-22.03
-26.65
-30.92
-34.71
-38.1
-41.29
-44.3
-46.93
-48.79
-49.38
-48.3
-45.39
-40.74
-34.64
-27.54
-19.81
-11.87
-4.15
2.98
9.2
14.4
18.62
21.96
24.47
26.15
26.9
26.68
25.71
24.33
22.99
22.0
21.47
21.28
21.36
21.56
21.75
21.87
21.74
21.15
19.99
18.31
16.26
14.12
12.05
10.1
8.23
6.4
4.53
2.57
0.38
-2.24
-5.46
-9.24
-13.3
-17.17
-20.44
-22.91
-24.7
-26.16
-27.59
-29.08
-30.22
-30.49
-29.37
-26.69
-22.57
-17.37
-11.5
-5.29
0.97
6.97
12.36
16.76
19.9
21.72
22.26
21.72
20.34
18.34
16.06
13.84
12.01
10.88
10.6
11.15
12.31
13.64
14.59
14.7
13.71
11.77
9.28
6.75
4.58
2.91
1.6
0.53
-0.31
-0.82
-0.91
-0.75
-0.83
-1.81
-4.17
-7.94
-12.62
-17.35
-21.42
-24.52
-26.78
-28.53
-29.87
-30.38
-29.32
-25.9
-19.92
-11.93
-3.14
5.12
12.02
17.43
21.76
25.51
28.8
31.31
32.56
32.41
31.18
29.61
28.45
27.99
28.06
28.14
27.77
26.81
25.38
23.58
21.4
18.63
15.14
11.11
7.0
3.25
0.01
-2.98
-6.28
-10.2
-14.64
-19.13
-23.07
-26.34
-29.43
-33.21
-38.5
-45.58
-54.1
-63.2
-71.92
-79.29
-84.34
-85.99
-83.09
-74.9
-61.48
-44.12
-25.08
-6.98
7.96
18.54
24.71
27.27
27.33
26.02
24.23
22.72
22.08
22.79
25.08
28.8
33.48
38.3
42.26
44.52
44.8
43.33
40.84
38.01
35.11
31.9
27.8
22.34
15.49
7.78
-0.01
-7.28
-13.73
-19.42
-24.49
-29.01
-32.86
-35.93
-38.24
-39.93
-41.2
-42.04
-42.19
-41.23
-38.74
-34.56
-28.78
-21.85
-14.34
-6.83
0.27
6.66
12.27
17.16
21.48
25.36
28.87
31.89
34.13
35.31
35.2
33.9
31.78
29.34
26.91
24.68
22.54
20.34
17.97
15.49
12.98
10.4
7.51
3.98
-0.34
-5.24
-10.17
-14.56
-18.11
-20.9
-23.33
-25.83
-28.64
-31.65
-34.59
-37.12
-38.99
-40.04
-40.05
-38.76
-35.89
-31.34
-25.31
-18.32
-11.04
-4.02
2.33
7.98
12.92
17.13
20.52
22.88
24.07
24.12
23.17
21.46
19.33
17.09
14.99
13.29
12.05
11.17
10.43
9.59
8.45
6.95
5.11
2.89
0.19
-3.09
-6.96
-11.17
-15.39
-19.27
-22.71
-25.86
-29.06
-32.57
-36.44
-40.28
-43.33
-44.8
-43.88
-40.32
-34.36
-26.61
-17.8
-8.68
0.33
9.03
17.2
24.67
31.09
36.01
39.12
40.25
39.43
37.01
33.47
29.43
25.49
22.14
19.67
18.18
17.55
17.54
17.87
18.11
17.74
16.26
13.4
9.28
4.4
-0.6
-5.19
-9.15
-12.69
-16.24
-20.17
-24.69
-29.77
-35.18
-40.54
-45.35
-49.13
-51.34
-51.54
-49.42
-44.77
-37.62
-28.09
-16.65
-4.04
8.68
20.36
30.11
37.32
41.84
43.74
43.3
40.78
36.68
31.58
26.15
21.09
16.88
13.76
11.73
10.82
10.99
12.13
13.94
15.83
17.04
16.94
15.24
11.94
7.57
2.7
-2.22
-6.95
-11.64
-16.54
-21.94
-27.85
-34.02
-39.77
-44.29
-46.71
-46.28
-42.66
-35.88
-26.42
-15.19
-3.3
8.15
18.27
26.53
32.85
37.36
40.28
41.85
42.2
41.43
39.7
37.26
34.45
31.67
29.24
27.32
25.87
24.67
23.37
21.71
19.52
16.86
13.88
10.67
7.25
3.56
-0.41
-4.55
-8.52
-12.04
-14.98
-17.49
-20.06
-23.28
-27.51
-32.55
-37.74
-41.96
-44.03
-43.08
-38.74
-31.24
-21.4
-10.35
0.77
10.94
19.52
26.16
30.79
33.51
34.51
33.98
32.2
29.56
26.49
23.48
20.85
18.65
16.73
14.81
12.67
10.37
8.15
6.29
4.96
4.01
3.05
1.65
-0.46
-3.3
-6.7
-10.33
-13.99
-17.63
-21.39
-25.54
-30.24
-35.41
-40.71
-45.53
-49.1
-50.69
-49.78
-46.18
-40.13
-32.07
-22.58
-12.33
-1.98
7.84
16.44
23.37
28.34
31.3
32.53
32.44
31.41
29.77
27.71
25.4
23.07
21.08
19.56
18.52
17.61
16.32
14.35
11.69
8.62
5.51
2.52
-0.65
-4.48
-9.45
-15.73
-22.9
-30.35
-37.39
-43.58
-48.89
-53.55
-57.92
-62.3
-66.86
-71.39
-75.41
-78.03
-78.09
-74.63
-67.22
-56.32
-43.28
-30.19
-19.08
-11.47
-7.72
-6.89
-7.05
-5.82
-1.27
7.48
19.72
33.5
46.12
55.17
59.33
58.75
54.94
50.07
46.24
44.73
45.8
48.79
52.46
55.69
57.76
58.59
58.35
57.31
55.38
52.32
47.87
42.09
35.51
28.85
22.57
16.7
11.02
5.16
-0.71
-6.07
-10.24
-12.77
-13.7
-13.57
-12.85
-11.73
-10.04
-7.26
-3.0
2.93
10.47
19.49
29.7
40.78
52.08
62.54
71.12
77.03
80.14
81.05
80.91
80.73
81.21
82.25
83.32
83.82
83.47
82.57
81.87
82.39
84.95
89.98
97.14
105.34
112.93
117.98
119.05
115.65
108.54
99.31
89.86
81.46
74.3
67.48
59.48
49.01
35.45
19.05
0.75
-18.3
-36.91
-54.04
-68.8
-80.6
-89.34
-95.59
-100.26
-104.0
-106.65
-107.19
-104.29
-97.27
-86.85
-75.05
-64.69
-58.17
-56.63
-59.91
-66.98
-76.7
-88.18
-100.67
-113.16
-124.2
-131.96
-134.6
-130.99
-120.98
-105.58
-86.72
-66.6
-47.01
-29.13
-13.51
-0.51
9.27
14.99
15.78
11.32
2.36
-9.18
-20.76
-30.15
-36.29
-39.7
-42.15
-46.04
-53.26
-64.29
-77.67
-90.29
-98.42
-99.18
-91.7
-77.49
-59.67
-41.59
-25.42
-11.52
1.13
13.77
26.82
39.3
49.41
55.5
56.71
53.33
46.47
37.52
27.84
18.61
10.95
6.02
4.84
7.72
14.03
22.14
29.93
35.49
37.76
36.68
33.14
28.38
23.4
18.88
15.07
11.98
9.57
7.8
6.42
5.06
3.3
0.66
-2.96
-7.53
-12.85
-18.72
-24.89
-31.21
-37.43
-43.06
-47.43
-49.62
-48.85
-44.71
-37.25
-27.08
-15.19
-2.73
9.19
19.67
28.17
34.42
38.52
40.78
41.55
41.11
39.81
38.0
36.12
34.6
33.72
33.44
33.42
33.17
32.2
30.46
28.22
25.87
23.71
21.73
19.73
17.55
15.22
12.93
10.88
8.97
6.89
4.23
0.85
-2.97
-6.73
-10.15
-13.49
-17.44
-22.89
-30.12
-38.65
-47.43
-55.28
-61.44
-65.6
-67.59
-67.1
-63.6
-56.68
-46.62
-34.62
-22.56
-12.28
-4.9
-0.42
1.98
3.47
4.82
6.31
7.81
9.28
11.07
13.88
18.49
25.17
33.34
41.51
47.94
51.17
50.72
46.87
40.09
30.66
18.45
3.47
-13.52
-30.62
-45.08
-54.36
-57.19
-54.28
-47.98
-41.24
-36.36
-34.19
-34.07
-34.27
-33.06
-29.17
-22.36
-13.21
-2.74
8.0
18.41
28.18
37.15
44.99
51.25
55.37
57.13
56.77
54.94
52.54
50.12
47.76
45.08
41.62
37.26
32.51
28.29
25.61
25.15
26.85
29.96
33.28
35.54
35.88
34.13
30.71
26.46
22.24
18.52
15.23
11.9
7.8
2.48
-4.12
-11.58
-19.2
-26.23
-32.14
-36.62
-39.59
-41.33
-42.22
-42.88
-43.99
-45.91
-48.5
-51.0
-52.15
-50.7
-45.83
-37.44
-26.21
-13.39
-0.35
11.69
21.84
29.65
34.93
37.93
39.03
38.69
37.27
35.03
32.06
28.48
24.55
20.55
16.93
14.07
12.14
11.02
10.48
10.18
9.93
9.68
9.32
8.73
7.69
6.0
3.69
1.07
-1.35
-3.16
-4.23
-4.9
-5.78
-7.48
-10.31
-14.2
-18.88
-24.01
-29.33
-34.59
-39.42
-43.23
-45.27
-44.87
-41.59
-35.63
-27.62
-18.51
-9.22
-0.43
7.48
14.27
19.71
23.63
25.77
26.03
24.64
22.22
19.58
17.49
16.36
16.13
16.54
17.25
18.14
19.24
20.66
22.34
23.88
24.74
24.47
22.87
20.06
16.28
11.73
6.4
0.45
-5.88
-12.1
-17.63
-22.2
-25.94
-29.33
-32.74
-36.32
-39.64
-41.89
-42.27
-40.16
-35.44
-28.38
-19.54
-9.69
0.26
9.47
17.31
23.5
28.11
31.3
33.22
33.81
33.02
30.94
28.04
25.05
22.63
21.12
20.31
19.72
18.85
17.46
15.6
13.48
11.24
8.75
5.9
2.5
-1.39
-5.67
-10.17
-14.74
-19.28
-23.62
-27.67
-31.22
-34.31
-37.12
-40.03
-43.43
-47.48
-52.03
-56.49
-60.08
-61.8
-60.86
-56.68
-49.05
-38.26
-25.04
-10.49
4.08
17.29
28.0
35.45
39.49
40.58
39.5
37.15
34.28
31.47
29.16
27.74
27.41
28.14
29.64
31.24
32.25
32.13
30.74
28.24
24.98
21.06
16.48
11.12
4.99
-1.61
-8.15
-14.1
-19.13
-23.23
-26.79
-30.39
-34.56
-39.62
-45.49
-51.7
-57.59
-62.41
-65.4
-65.91
-63.46
-57.81
-49.13
-37.98
-25.26
-12.04
0.68
12.26
22.31
30.64
37.06
41.36
43.42
43.42
41.83
39.36
36.72
34.38
32.46
30.88
29.46
27.99
26.33
24.22
21.5
17.99
13.7
8.74
3.43
-1.91
-6.99
-11.54
-15.4
-18.48
-20.81
-22.63
-24.36
-26.4
-29.07
-32.35
-35.86
-38.98
-41.01
-41.22
-39.14
-34.52
-27.4
-18.17
-7.52
3.63
14.32
23.58
30.82
35.65
38.03
38.17
36.53
33.74
30.49
27.42
24.97
23.26
22.06
21.05
19.93
18.6
17.08
15.41
13.5
11.22
8.45
5.26
1.8
-1.71
-5.24
-9.0
-13.29
-18.26
-23.79
-29.59
-35.31
-40.79
-45.99
-50.85
-55.09
-58.02
-58.74
-56.46
-50.85
-42.21
-31.41
-19.71
-8.29
1.86
10.24
16.83
21.94
26.0
29.38
32.22
34.37
35.75
36.31
36.21
35.75
35.15
34.47
33.62
32.49
30.97
29.21
27.3
25.31
23.2
20.82
18.12
15.22
12.34
9.44
6.34
2.52
-2.56
-9.16
-17.17
-26.05
-35.11
-43.73
-51.55
-58.3
-63.63
-66.9
-67.27
-64.05
-57.15
-47.07
-34.85
-21.71
-8.6
3.95
15.74
26.6
35.99
42.99
46.67
46.54
42.96
37.1
30.44
24.29
19.5
16.29
14.48
13.76
13.83
14.42
15.31
16.14
16.56
16.39
15.56
14.11
12.11
9.56
6.45
2.88
-1.0
-5.08
-9.28
-13.63
-18.13
-22.65
-26.9
-30.39
-32.54
-32.73
-30.54
-25.82
-18.75
-9.93
-0.33
8.95
16.92
22.99
27.03
29.29
30.13
29.82
28.53
26.36
23.51
20.28
17.13
14.48
12.68
11.91
12.15
13.16
14.6
16.0
16.82
16.55
14.7
10.97
5.48
-1.18
-7.94
-13.6
-17.25
-18.77
-18.81
-18.65
-19.56
-22.31
-26.98
-33.02
-39.64
-46.06
-51.56
-55.39
-56.75
-54.97
-49.73
-41.43
-30.99
-19.73
-8.89
0.77
8.98
15.94
21.94
27.18
31.59
34.92
36.94
37.66
37.35
36.39
35.2
34.08
33.06
32.1
31.08
29.86
28.36
26.51
24.22
21.43
18.16
14.51
10.67
6.68
2.47
-2.08
-7.05
-12.38
-17.91
-23.5
-29.15
-34.93
-41.01
-47.32
-53.46
-58.63
-61.85
-62.13
-58.81
-51.81
-41.52
-28.97
-15.53
-2.5
9.08
18.74
26.46
32.43
36.74
