-94.19
-93.39
-89.46
-82.2
-71.95
-59.59
-46.33
-33.36
-21.61
-11.56
-3.29
3.26
8.23
11.69
13.81
14.91
15.54
16.36
17.95
20.62
24.38
28.94
34.0
39.25
44.54
49.77
54.83
59.5
63.55
66.73
68.88
69.94
69.91
68.83
66.69
63.52
59.35
54.24
48.33
41.8
34.85
27.65
20.34
12.96
5.45
-2.31
-10.42
-18.77
-26.97
-34.27
-39.75
-42.49
-41.93
-38.04
-31.33
-22.69
-13.18
-3.7
5.03
12.54
18.53
22.88
25.57
26.71
26.61
25.66
24.31
22.92
21.78
21.02
20.66
20.63
20.78
20.9
20.81
20.36
19.51
18.33
16.93
15.38
13.67
11.7
9.28
6.3
2.77
-1.14
-5.15
-9.06
-12.75
-16.34
-20.02
-24.0
-28.41
-33.27
-38.5
-43.88
-49.07
-53.49
-56.33
-56.69
-53.86
-47.56
-38.13
-26.49
-13.88
-1.52
9.62
18.98
26.31
31.54
34.71
35.93
35.44
33.68
31.22
28.71
26.61
25.21
24.45
24.16
24.15
24.31
24.63
25.11
25.69
26.12
26.09
25.24
23.38
20.48
16.75
12.54
8.23
4.11
0.29
-3.29
-6.82
-10.45
-14.22
-18.08
-21.85
-25.41
-28.7
-31.83
-35.05
-38.7
-43.05
-48.17
-53.78
-59.25
-63.6
-65.85
-65.26
-61.54
-54.99
-46.33
-36.47
-26.26
-16.32
-7.13
1.01
7.83
13.13
16.78
18.8
19.42
19.0
17.98
16.77
15.7
14.99
14.73
14.92
15.47
16.21
16.93
17.4
17.37
16.72
15.4
13.45
11.03
8.3
5.45
2.59
-0.25
-3.14
-6.22
-9.64
-13.49
-17.76
-22.33
-27.05
-31.8
-36.51
-41.23
-46.1
-51.35
-57.25
-64.0
-71.48
-79.08
-85.62
-89.55
-89.43
-84.47
-74.82
-61.56
-46.3
-30.65
-15.82
-2.44
9.28
19.43
28.2
35.85
42.64
48.68
53.87
57.83
60.1
60.43
59.04
56.67
54.37
53.0
52.92
53.93
55.47
56.99
58.23
59.23
60.06
60.52
60.03
57.79
53.16
46.11
37.3
27.8
18.62
10.22
2.31
-5.99
-15.7
-27.52
-41.59
-57.35
-73.64
-88.79
-100.93
-108.36
-110.02
-105.92
-97.32
-86.35
-75.26
-65.59
-57.64
-50.56
-42.96
-33.79
-23.08
-12.1
-3.04
1.94
1.71
-3.11
-10.01
-15.14
-14.32
-4.27
16.29
45.91
80.51
114.23
141.06
156.54
159.08
150.4
134.75
117.46
103.03
93.83
89.64
88.33
87.06
83.52
76.5
65.8
51.72
34.6
14.71
-7.49
-30.97
-54.07
-74.93
-92.21
-105.81
-116.69
-126.33
-135.75
-144.91
-152.78
-157.94
-159.19
-155.94
-148.03
-135.27
-117.33
-93.88
-65.3
-33.25
-0.87
27.85
49.08
60.43
61.82
55.49
45.23
35.05
27.84
24.58
24.33
25.06
24.69
21.95
16.74
9.88
2.56
-4.22
-9.84
-14.09
-17.03
-18.85
-19.78
-20.15
-20.27
-20.22
-19.67
-17.73
-13.27
-5.25
6.67
22.01
39.45
57.34
74.19
89.1
101.85
112.61
121.52
128.2
131.66
130.49
123.38
109.72
90.08
66.26
40.93
17.02
-3.04
-17.75
-26.81
-30.87
-31.13
-28.9
-25.18
-20.46
-14.71
-7.55
1.53
12.92
26.65
42.35
59.22
76.23
92.25
106.3
117.61
125.71
130.49
132.11
130.96
127.52
122.26
115.52
107.46
98.16
87.7
76.27
64.13
51.56
38.62
25.24
11.19
-3.57
-18.8
-33.87
-47.97
-60.41
-70.94
-79.78
-87.63
-95.31
-103.46
-112.37
-121.93
-131.9
-142.05
-152.3
-162.63
-172.89
-182.66
-191.24
-197.93
-202.19
-203.78
-202.62
-198.55
-191.22
-180.23
-165.37
-147.01
-126.11
-103.97
-81.8
-60.36
-39.99
-20.97
-3.81
10.62
21.32
27.66
29.71
28.31
24.84
20.77
17.29
15.14
14.57
15.43
17.29
19.54
21.51
22.67
22.82
22.25
21.59
21.66
22.99
25.61
28.98
32.18
34.3
34.76
33.49
30.86
27.44
23.69
19.87
15.99
12.0
7.79
3.26
-1.7
-7.26
-13.52
-20.47
-27.81
-35.02
-41.51
-46.9
-51.27
-55.16
-59.41
-64.77
-71.47
-79.04
-86.41
-92.28
-95.71
-96.38
-94.72
-91.62
-87.86
-83.83
-79.31
-73.68
-66.31
-56.81
-45.22
-32.02
-18.1
-4.68
6.86
15.22
19.49
19.59
16.45
11.98
8.85
9.83
17.13
31.74
53.01
78.81
106.11
131.82
153.41
169.15
177.99
179.4
173.33
160.56
142.91
123.22
104.68
89.81
79.57
73.13
68.5
63.54
56.93
48.55
39.29
30.47
23.31
18.6
16.69
17.49
20.61
25.39
31.1
37.07
42.91
48.47
53.73
58.58
62.6
65.13
65.42
63.03
58.04
51.1
43.26
35.58
28.95
23.82
20.23
18.02
16.94
16.76
17.28
18.32
19.53
20.45
20.57
19.57
17.39
14.31
10.77
7.2
3.78
0.45
-3.03
-6.93
-11.36
-16.26
-21.34
-26.3
-30.84
-34.82
-38.26
-41.36
-44.46
-47.92
-52.01
-56.75
-61.81
-66.5
-69.92
-71.22
-69.8
-65.59
-59.01
-50.77
-41.65
-32.27
-23.08
-14.43
-6.67
-0.18
4.73
8.0
9.84
10.71
11.14
11.56
12.25
13.28
14.65
16.32
18.22
20.23
22.23
24.08
25.72
27.2
28.6
29.98
31.33
32.54
33.48
34.02
34.13
33.88
33.33
32.52
31.37
29.72
27.4
24.3
20.42
15.83
10.58
4.65
-2.02
-9.4
-17.2
-24.83
-31.45
-36.21
-38.54
-38.13
-34.95
-29.09
-20.72
-10.17
1.86
14.29
25.74
34.86
40.68
42.9
41.84
38.19
32.8
26.41
19.65
12.99
6.82
1.48
-2.79
-5.86
-7.79
-8.81
-9.31
-9.72
-10.43
-11.66
-13.42
-15.54
-17.8
-19.99
-22.07
-24.04
-25.93
-27.67
-29.16
-30.28
-31.0
-31.41
-31.73
-32.23
-33.14
-34.67
-36.87
-39.67
-42.75
-45.58
-47.49
-47.81
-46.07
-42.13
-36.28
-29.09
-21.3
-13.57
-6.43
-0.17
5.04
9.17
12.17
14.02
14.74
14.45
13.43
12.05
10.73
9.76
9.27
9.19
9.33
9.52
9.69
9.85
10.08
10.37
10.63
10.7
10.42
9.74
8.7
7.43
6.09
4.8
3.63
2.51
1.29
-0.19
-2.04
-4.24
-6.65
-9.07
-11.34
-13.45
-15.55
-17.88
-20.71
-24.07
-27.82
-31.46
-34.29
-35.55
-34.68
-31.46
-26.1
-19.17
-11.44
-3.71
3.41
9.48
14.23
17.54
19.37
19.83
19.12
17.57
15.6
13.61
11.94
10.78
10.19
10.13
10.46
11.07
11.93
13.0
14.29
15.69
16.99
17.92
18.26
17.9
16.9
15.46
13.8
12.04
10.18
8.08
5.59
2.62
-0.78
-4.4
-8.02
-11.42
-14.55
-17.44
-20.28
-23.27
-26.61
-30.37
-34.41
-38.39
-41.76
-43.79
-43.84
-41.51
-36.8
-30.13
-22.19
-13.76
-5.5
2.09
8.6
13.77
17.35
19.25
19.59
18.64
16.81
14.52
12.08
9.68
7.51
5.71
4.47
3.9
4.01
4.67
5.65
6.71
7.62
8.24
8.5
8.4
7.94
7.22
6.35
5.44
4.56
3.7
2.76
1.63
0.19
-1.59
-3.68
-6.02
-8.5
-11.07
-13.73
-16.6
-19.85
-23.68
-28.14
-33.04
-37.82
-41.72
-43.86
-43.58
-40.63
-35.22
-27.98
-19.69
-11.17
-3.03
4.29
10.45
15.19
18.37
19.93
20.02
18.99
17.33
15.5
13.92
12.82
12.28
12.3
12.82
13.74
14.92
16.16
17.27
18.02
18.31
18.06
17.3
16.06
14.37
12.27
9.8
6.92
3.6
-0.25
-4.61
-9.39
-14.33
-19.05
-23.15
-26.41
-28.83
-30.64
-32.32
-34.31
-36.91
-40.14
-43.64
-46.77
-48.71
-48.67
-46.2
-41.22
-34.14
-25.69
-16.67
-7.78
0.5
7.91
14.32
19.65
23.84
26.89
28.92
30.19
31.03
31.74
32.5
33.34
34.14
34.75
35.1
35.17
35.0
34.62
33.92
32.73
30.88
28.32
25.16
21.65
18.06
14.6
11.33
8.2
5.1
1.9
-1.49
-5.07
-8.76
-12.41
-15.87
-19.03
-21.88
-24.55
-27.26
-30.32
-33.92
-38.08
-42.49
-46.45
-49.04
-49.32
-46.64
-40.91
-32.61
-22.68
-12.19
-2.01
7.23
15.18
21.67
26.5
29.51
30.65
30.09
28.24
25.72
23.16
21.02
19.47
18.41
17.64
16.97
16.34
15.83
15.55
15.46
15.39
15.08
14.32
13.04
11.42
9.72
8.19
6.91
5.76
4.52
2.91
0.76
-1.86
-4.78
-7.71
-10.38
-12.69
-14.67
-16.56
-18.74
-21.62
-25.51
-30.42
-35.98
-41.42
-45.78
-48.15
-47.99
-45.23
-40.36
-34.12
-27.37
-20.81
-14.91
-9.89
-5.87
-2.94
-1.22
-0.73
-1.47
-3.22
-5.6
-8.07
-10.11
-11.25
-11.26
-10.04
-7.71
-4.49
-0.67
3.47
7.7
11.87
15.88
19.68
23.22
26.41
29.12
31.23
32.65
33.39
33.49
33.05
32.16
30.88
29.25
27.31
25.08
22.59
19.78
16.51
12.61
7.99
2.74
-2.72
-7.71
-11.46
-13.34
-13.03
-10.65
-6.58
-1.41
4.33
10.19
15.85
21.04
25.56
29.22
31.87
33.5
34.12
33.85
32.83
31.27
29.45
27.68
26.24
25.34
25.05
25.3
25.98
26.94
28.07
29.23
30.19
30.66
30.33
28.95
26.58
23.5
20.14
16.82
13.68
10.5
6.97
2.84
-1.94
-7.14
-12.42
-17.47
-22.2
-26.75
-31.35
-36.22
-41.33
-46.39
-50.75
-53.62
-54.29
-52.32
-47.74
-40.97
-32.7
-23.64
-14.39
-5.38
3.0
10.35
16.26
20.4
22.64
23.17
22.42
20.94
19.3
17.86
16.84
16.3
16.21
16.57
17.37
18.61
20.2
21.95
23.51
24.55
24.78
24.08
22.51
20.28
17.61
14.62
11.36
7.78
3.89
-0.19
-4.21
-7.91
-11.05
-13.58
-15.64
-17.52
-19.6
-22.23
-25.64
-29.83
-34.52
-39.15
-42.98
-45.23
-45.24
-42.7
-37.68
-30.67
-22.4
-13.74
-5.5
1.68
7.44
11.63
14.3
15.64
15.88
15.31
14.26
13.08
12.12
11.64
11.77
12.43
13.44
14.57
15.63
16.53
17.27
17.85
18.3
18.63
18.87
19.01
19.07
18.98
18.63
17.89
16.64
14.85
12.49
9.58
6.17
2.31
-1.9
-6.37
-11.05
-15.99
-21.38
-27.39
-33.97
-40.63
-46.49
-50.41
-51.44
-49.12
-43.73
-36.13
-27.47
-18.85
-11.01
-4.35
0.91
4.66
6.76
7.2
6.18
4.19
1.89
-0.04
-1.15
-1.3
-0.63
0.59
2.1
3.72
5.4
7.08
8.59
9.66
10.02
9.47
8.05
5.99
3.65
1.33
-0.86
-2.95
-5.04
-7.21
-9.33
-11.23
-12.78
-13.98
-15.05
-16.34
-18.22
-20.94
-24.56
-28.91
-33.56
-37.84
-40.89
-41.86
-40.09
-35.36
-27.94
-18.52
-8.03
2.63
12.63
21.32
28.19
32.86
35.19
35.29
33.62
30.86
27.81
25.15
23.35
22.56
22.69
23.48
24.67
26.01
27.32
28.43
29.15
29.34
28.96
28.15
27.14
26.24
25.59
25.1
24.48
23.33
21.32
18.32
14.41
9.81
4.8
-0.37
-5.47
-10.41
-15.13
-19.74
-24.44
-29.5
-35.09
-41.15
-47.21
-52.48
-55.92
-56.63
-54.06
-48.23
-39.7
-29.45
-18.6
-8.13
1.2
8.95
14.87
18.9
21.07
21.67
21.14
20.07
19.02
18.36
18.13
18.13
18.07
17.83
17.56
17.6
18.3
19.8
21.92
24.22
26.19
27.46
27.85
27.36
26.09
24.16
21.69
18.75
15.46
11.94
8.36
4.89
1.64
-1.36
-4.2
-7.1
-10.35
-14.26
-19.09
-24.95
-31.79
-39.25
-46.63
-52.95
-57.14
-58.31
-56.05
-50.59
-42.75
-33.62
-24.22
-15.26
-7.07
0.21
6.45
11.44
14.94
16.82
17.24
16.66
15.71
15.06
15.23
16.48
18.86
22.18
26.1
30.19
33.91
36.69
38.04
37.61
35.35
31.48
26.56
21.23
16.16
11.74
8.12
5.16
2.57
0.04
-2.64
-5.59
-8.83
-12.32
-16.01
-19.85
-23.83
-27.88
-31.83
-35.31
-37.73
-38.37
-36.63
-32.27
-25.49
-16.95
-7.53
1.96
10.9
18.94
25.86
31.5
35.68
38.25
39.19
38.74
37.37
35.62
34.0
32.77
31.91
31.26
30.57
29.69
28.52
27.07
25.35
23.34
20.98
18.29
15.32
12.21
9.17
6.32
3.69
1.15
-1.45
-4.25
-7.3
-10.53
-13.75
-16.81
-19.64
-22.35
-25.15
-28.32
-32.08
-36.49
-41.45
-46.67
-51.57
-55.38
-57.22
-56.32
-52.28
-45.23
-35.84
-25.2
-14.45
-4.56
3.83
10.43
15.15
18.04
19.24
19.01
17.79
16.2
14.9
14.46
15.21
17.08
19.69
22.49
24.97
26.79
27.87
28.31
28.26
27.8
26.95
25.67
24.03
22.14
20.15
18.15
16.07
13.7
10.83
7.35
3.36
-0.88
-5.03
-8.84
-12.26
-15.45
-18.73
-22.49
-27.01
-32.34
-38.2
-43.94
-48.62
-51.28
-51.19
-48.11
-42.4
-34.86
-26.48
-18.13
-10.32
-3.2
3.31
9.28
14.67
19.26
22.79
25.1
26.26
26.59
26.58
26.74
27.47
28.9
30.94
33.22
35.32
36.79
37.25
36.53
34.55
31.36
27.07
21.82
15.82
9.4
2.98
-2.95
-7.96
-11.78
-14.46
-16.38
-18.11
-20.25
-23.31
-27.55
-33.03
-39.59
-46.85
-54.26
-61.02
-66.24
-69.05
-68.93
-65.87
-60.47
-53.74
-46.84
-40.61
-35.45
-31.31
-27.9
-24.91
-22.24
-20.09
-18.87
-19.07
-21.07
-24.99
-30.73
-37.91
-46.03
-54.43
-62.45
-69.39
-74.6
-77.6
-78.25
-76.74
-73.6
-69.39
-64.45
-58.74
-51.89
-43.54
-33.66
-22.78
-11.95
-2.46
4.54
8.4
9.12
7.3
3.84
-0.25
-4.02
-6.7
-7.64
-6.32
-2.34
4.57
14.34
26.53
40.26
54.29
67.38
78.55
87.35
93.97
99.01
103.25
107.3
111.48
115.79
120.05
124.0
127.35
129.7
130.57
129.46
126.1
120.7
113.9
106.63
99.69
93.35
87.22
80.51
72.45
62.79
51.84
40.37
29.15
18.6
8.63
-1.09
-10.9
-20.95
-31.08
-41.0
-50.49
-59.55
-68.33
-76.99
-85.4
-93.03
-98.91
-101.94
-101.23
-96.43
-87.94
-76.82
-64.44
-52.07
-40.57
-30.36
-21.54
-14.14
-8.3
-4.21
-1.96
-1.37
-1.99
-3.23
-4.6
-5.97
-7.57
-9.83
-13.05
-17.21
-21.75
-25.81
-28.58
-29.56
-28.84
-27.02
-24.93
-23.28
-22.45
-22.36
-22.6
-22.7
-22.28
-21.21
-19.57
-17.5
-15.15
-12.65
-10.16
-7.92
-6.22
-5.26
-4.97
-4.84
-3.98
-1.34
3.9
11.91
22.08
33.21
43.89
52.92
59.6
63.69
65.3
64.62
61.91
57.45
51.74
45.43
39.23
33.71
29.16
25.52
22.56
19.96
17.59
15.43
13.6
12.17
11.09
10.2
9.22
7.86
5.97
3.53
0.63
-2.49
-5.63
-8.61
-11.34
-13.78
-15.99
-18.04
-20.15
-22.55
-25.42
-28.68
-31.86
-34.15
-34.61
-32.58
-27.91
-21.06
-12.93
-4.47
3.61
10.98
17.51
23.09
27.46
30.24
31.08
29.97
27.35
24.0
20.77
18.28
16.72
15.8
14.92
13.47
11.02
7.58
3.46
-0.81
-4.69
-7.87
-10.36
-12.5
-14.71
-17.38
-20.68
-24.56
-28.77
-32.93
-36.62
-39.43
-41.0
-41.19
-40.09
-38.05
-35.47
-32.69
-29.73
-26.3
-21.91
-15.95
-7.97
2.2
14.43
28.19
42.7
57.06
70.45
82.35
92.53
100.94
107.44
111.59
112.78
110.48
104.57
95.66
84.92
73.75
63.26
54.0
45.91
38.6
31.68
24.98
18.58
12.66
7.24
2.16
-2.88
-8.19
-13.82
-19.62
-25.24
-30.36
-34.75
-38.38
-41.47
-44.31
-47.23
-50.58
-54.65
-59.67
-65.76
-72.84
-80.47
-87.92
-94.22
-98.49
-100.18
-99.27
-96.14
-91.4
-85.48
-78.42
-69.91
-59.37
-46.32
-30.54
-12.24
8.12
30.0
52.91
76.56
100.71
125.12
149.28
172.32
192.88
209.18
219.28
221.47
214.83
199.59
177.22
150.04
120.63
91.11
62.79
36.14
11.1
-12.57
-35.0
-56.26
-76.52
-96.14
-115.54
-135.08
-154.83
-174.54
-193.75
-211.96
-228.75
-243.76
-256.67
-267.04
-274.43
-278.46
-278.96
-275.86
-269.13
-258.51
-243.54
-223.73
-198.92
-169.59
-136.89
-102.41
-67.69
-33.86
-1.39
29.76
59.86
89.13
117.52
144.71
170.21
193.42
213.82
230.93
244.42
254.16
260.19
262.72
262.13
258.8
253.22
245.84
237.18
227.68
217.67
207.39
196.85
186.06
174.93
163.37
151.26
138.27
123.96
107.9
89.89
70.21
49.66
29.41
10.62
-5.82
-19.55
-30.71
-39.78
-47.4
-54.16
-60.5
-66.61
-72.51
-78.09
-83.26
-87.95
-92.1
-95.58
-98.09
-99.19
-98.57
-96.15
-92.24
-87.49
-82.58
-78.0
-73.95
-70.38
-67.16
-64.21
-61.61
-59.46
-57.85
-56.76
-56.07
-55.57
-55.06
-54.41
-53.63
-52.8
-52.09
-51.74
-51.92
-52.73
-54.11
-55.93
-58.08
-60.47
-62.96
-65.3
-67.14
-67.98
-67.47
-65.31
-61.53
-56.53
-50.88
-45.03
-39.35
-34.15
-29.75
-26.68
-25.28
-25.74
-28.11
-32.09
-36.77
-41.23
-44.87
-47.64
-50.18
-52.73
-55.3
-57.82
-60.12
-61.64
-62.22
-62.27
-62.6
-64.47
-67.83
-71.84
-75.26
-76.4
-72.57
-61.44
-41.81
-14.1
19.16
55.63
93.17
128.26
155.11
169.46
170.89
162.59
153.36
144.61
136.3
128.76
123.11
118.19
114.96
114.26
115.88
118.57
120.03
119.19
115.85
110.27
103.01
95.34
88.09
81.43
74.99
67.81
59.9
51.73
43.68
36.02
29.32
23.9
19.74
16.54
13.54
10.4
6.93
2.94
-1.55
-6.06
-10.07
-13.24
-15.55
-17.44
-19.28
-21.27
-23.46
-25.68
-27.51
-28.59
-28.73
-27.98
-26.52
-24.44
-21.82
-18.8
-15.59
-12.47
-9.73
-7.49
-5.65
-3.94
-2.02
0.39
3.41
7.03
11.08
15.24
19.11
22.17
23.96
24.18
22.91
20.61
18.0
15.86
14.73
14.73
15.59
16.79
17.81
18.37
18.52
18.64
19.21
20.64
22.99
25.9
28.66
30.41
30.38
28.09
23.48
16.82
8.57
-0.84
-11.13
-22.25
-34.25
-47.09
-60.45
-73.7
-86.04
-96.74
-105.27
-111.44
-115.14
-116.28
-114.64
-110.06
-102.61
-92.8
-81.58
-70.19
-59.7
-50.78
-43.6
-37.91
-33.39
-29.8
-27.15
-25.56
-25.11
-25.61
-26.59
-27.5
-27.93
-27.89
-27.85
-28.49
-30.44
-34.01
-38.98
-44.82
-50.91
-56.82
-62.42
-67.88
-73.51
-79.6
-86.29
-93.52
-101.08
-108.71
-116.18
-123.41
-130.49
-137.6
-145.01
-152.9
-161.26
-169.69
-177.22
-182.22
-182.57
-176.16
-161.43
-137.93
-106.45
