11.8
10.19
8.43
6.55
4.51
2.32
0.03
-2.39
-4.91
-7.54
-10.22
-12.88
-15.41
-17.75
-20.01
-22.47
-25.47
-29.21
-33.6
-38.09
-41.8
-43.81
-43.37
-40.25
-34.74
-27.52
-19.48
-11.4
-3.88
2.73
8.27
12.7
16.04
18.34
19.69
20.2
20.02
19.37
18.48
17.57
16.8
16.24
15.9
15.78
15.89
16.22
16.74
17.34
17.77
17.77
17.09
15.62
13.46
10.86
8.15
5.63
3.39
1.35
-0.75
-3.17
-6.07
-9.4
-12.9
-16.22
-19.1
-21.44
-23.43
-25.43
-27.9
-31.16
-35.23
-39.82
-44.21
-47.53
-48.83
-47.48
-43.28
-36.57
-28.14
-18.97
-10.03
-1.99
4.8
10.33
14.69
18.04
20.47
22.05
22.87
23.08
22.93
22.69
22.56
22.61
22.8
23.03
23.22
23.4
23.69
24.21
24.95
25.73
26.18
25.93
24.69
22.46
19.48
16.17
12.96
10.15
7.77
5.65
3.54
1.2
-1.5
-4.53
-7.77
-11.04
-14.16
-17.04
-19.67
-22.21
-24.88
-27.94
-31.55
-35.59
-39.63
-42.93
-44.66
-44.08
-40.83
-35.01
-27.17
-18.18
-8.98
-0.41
6.93
12.75
17.0
19.84
21.48
22.21
22.24
21.81
21.11
20.29
19.51
18.88
18.45
18.27
18.33
18.63
19.15
19.82
20.5
20.99
21.05
20.45
19.14
17.18
14.77
12.15
9.48
6.83
4.16
1.45
-1.24
-3.82
-6.19
-8.33
-10.34
-12.35
-14.47
-16.78
-19.35
-22.27
-25.58
-29.15
-32.53
-34.98
-35.65
-33.85
-29.41
-22.71
-14.6
-6.08
1.95
8.93
14.58
18.81
21.65
23.16
23.48
22.79
21.39
19.62
17.79
16.2
15.04
14.36
14.11
14.16
14.35
14.54
14.62
14.51
14.2
13.64
12.8
11.65
10.18
8.44
6.49
4.39
2.15
-0.25
-2.81
-5.52
-8.27
-10.95
-13.42
-15.68
-17.85
-20.2
-23.01
-26.48
-30.62
-35.09
-39.28
-42.39
-43.59
-42.28
-38.26
-31.79
-23.55
-14.46
-5.43
2.8
9.81
15.43
19.65
22.47
23.94
24.1
23.16
21.44
19.4
17.54
16.2
15.53
15.49
15.86
16.44
17.06
17.66
18.23
18.73
19.04
18.99
18.41
17.19
15.39
13.18
10.81
8.51
6.37
4.3
2.15
-0.24
-2.94
-5.93
-9.09
-12.31
-15.49
-18.57
-21.46
-24.14
-26.6
-28.98
-31.55
-34.63
-38.38
-42.58
-46.52
-49.15
-49.45
-46.75
-41.11
-33.18
-24.01
-14.68
-5.95
1.77
8.36
13.81
18.09
21.16
23.01
23.76
23.67
23.04
22.25
21.6
21.3
21.43
21.94
22.67
23.44
24.11
24.61
25.0
25.28
25.4
25.17
24.39
22.85
20.57
17.77
14.83
12.1
9.78
7.79
5.85
3.6
0.84
-2.46
-6.07
-9.69
-12.99
-15.79
-18.13
-20.17
-22.23
-24.65
-27.75
-31.66
-36.25
-40.98
-44.95
-47.15
-46.69
-43.1
-36.55
-27.78
-17.87
-7.99
0.99
8.57
14.62
19.22
22.49
24.5
25.28
24.95
23.79
22.23
20.72
19.62
19.04
18.86
18.86
18.91
19.04
19.42
20.15
21.18
22.2
22.78
22.52
21.29
19.21
16.59
13.78
11.02
8.39
5.82
3.23
0.56
-2.15
-4.85
-7.49
-10.05
-12.57
-15.11
-17.72
-20.48
-23.49
-26.78
-30.24
-33.58
-36.2
-37.43
-36.62
-33.41
-27.9
-20.6
-12.26
-3.73
4.28
11.23
16.77
20.72
23.02
23.79
23.27
21.82
19.79
17.55
15.42
13.69
12.61
12.31
12.76
13.76
14.93
15.89
16.39
16.38
15.94
15.19
14.19
12.89
11.23
9.16
6.7
3.95
1.01
-2.03
-5.11
-8.21
-11.31
-14.4
-17.47
-20.57
-23.83
-27.37
-31.29
-35.48
-39.55
-42.81
-44.4
-43.57
-39.9
-33.56
-25.25
-16.01
-6.88
1.34
8.22
13.63
17.66
20.4
21.94
22.33
21.7
20.29
18.39
16.41
14.67
13.43
12.78
12.72
13.17
13.95
14.85
15.62
16.05
15.95
15.26
14.06
12.5
10.73
8.87
6.95
4.91
2.64
0.06
-2.84
-6.0
-9.3
-12.58
-15.77
-18.85
-21.89
-25.01
-28.35
-31.99
-35.87
-39.75
-43.12
-45.26
-45.42
-42.98
-37.73
-30.02
-20.61
-10.55
-0.83
7.83
15.07
20.78
25.01
27.78
29.17
29.3
28.41
26.88
25.16
23.63
22.55
21.94
21.67
21.53
21.38
21.21
21.06
21.01
21.0
20.86
20.38
19.38
17.82
15.81
13.52
11.11
8.68
6.21
3.61
0.78
-2.35
-5.74
-9.29
-12.8
-16.06
-18.91
-21.39
-23.75
-26.4
-29.76
-34.01
-38.97
-43.99
-48.11
-50.31
-49.78
-46.15
-39.59
-30.79
-20.75
-10.53
-1.02
7.24
13.99
19.25
23.11
25.66
26.94
27.05
26.2
24.71
22.97
21.35
20.06
19.18
18.65
18.38
18.27
18.27
18.32
18.38
18.36
18.15
17.62
16.68
15.31
13.59
11.7
9.86
8.23
6.83
5.52
4.06
2.21
-0.18
-3.08
-6.34
-9.71
-12.94
-15.86
-18.41
-20.62
-22.67
-24.81
-27.38
-30.68
-34.84
-39.61
-44.3
-47.91
-49.36
-47.86
-43.18
-35.75
-26.47
-16.39
-6.43
2.78
10.83
17.49
22.55
25.92
27.63
27.92
27.17
25.84
24.34
22.91
21.73
20.86
20.34
20.15
20.27
20.6
21.01
21.35
21.49
21.35
20.88
20.05
18.91
17.5
15.88
14.11
12.19
10.12
7.86
5.37
2.63
-0.31
-3.36
-6.42
-9.33
-12.02
-14.55
-17.1
-19.98
-23.44
-27.53
-31.9
-35.85
-38.4
-38.66
-36.06
-30.58
-22.74
-13.48
-3.86
5.16
12.9
19.0
23.36
26.1
27.37
27.38
26.34
24.49
22.16
19.77
17.73
16.35
15.75
15.8
16.24
16.75
17.15
17.35
17.37
17.21
16.78
15.94
14.57
12.63
10.25
7.6
4.86
2.1
-0.74
-3.78
-7.07
-10.54
-13.99
-17.19
-20.01
-22.48
-24.83
-27.38
-30.43
-34.11
-38.28
-42.47
-45.93
-47.81
-47.35
-44.12
-38.19
-30.11
-20.75
-11.05
-1.81
6.43
13.42
19.05
23.29
26.12
27.63
27.97
27.42
26.33
25.05
23.87
22.96
22.37
22.02
21.84
21.69
21.51
21.24
20.88
20.4
19.73
18.79
17.45
15.62
13.32
10.65
7.83
5.07
2.5
0.07
-2.35
-4.96
-7.84
-10.93
-14.03
-16.91
-19.47
-21.77
-24.07
-26.72
-30.04
-34.17
-38.96
-43.92
-48.2
-50.78
-50.76
-47.59
-41.34
-32.66
-22.6
-12.31
-2.69
5.7
12.69
18.3
22.64
25.76
27.73
28.59
28.48
27.66
26.48
25.29
24.39
23.89
23.73
23.71
23.65
23.46
23.16
22.9
22.77
22.81
22.86
22.69
22.08
20.85
19.02
16.72
14.2
11.68
9.24
6.89
4.46
1.78
-1.28
-4.73
-8.4
-12.0
-15.25
-18.01
-20.28
-22.31
-24.45
-27.11
-30.58
-34.96
-40.04
-45.3
-49.93
-52.98
-53.56
-51.09
-45.48
-37.14
-26.97
-16.05
-5.47
3.93
11.67
17.6
21.83
24.62
26.22
26.87
26.74
26.02
24.92
23.73
22.68
21.93
21.53
21.41
21.45
21.62
21.94
22.45
23.08
23.66
23.9
23.49
22.25
20.21
17.57
14.63
11.66
8.85
6.21
3.65
1.04
-1.72
-4.66
-7.64
-10.48
-13.0
-15.12
-16.93
-18.67
-20.71
-23.39
-26.85
-30.9
-34.96
-38.09
-39.24
-37.65
-33.04
-25.81
-16.9
-7.49
1.36
8.92
14.92
19.33
22.2
23.63
23.69
22.59
20.67
18.4
16.25
14.56
13.47
12.92
12.76
12.83
13.09
13.53
14.14
14.8
15.29
15.29
14.61
13.21
11.29
9.17
7.12
5.24
3.4
1.36
-1.13
-4.1
-7.43
-10.85
-14.11
-17.05
-19.65
-22.01
-24.33
-26.89
-29.97
-33.72
-38.04
-42.37
-45.85
-47.42
-46.22
-41.92
-34.82
-25.8
-15.98
-6.39
2.29
9.71
15.8
20.55
23.92
25.89
26.51
26.02
24.78
23.28
21.92
20.96
20.42
20.19
20.09
19.98
19.83
19.69
19.62
19.61
19.58
19.32
18.67
17.53
15.93
14.01
11.91
9.74
7.47
5.01
2.22
-0.97
-4.54
-8.33
-12.11
-15.61
-18.62
-21.04
-22.98
-24.73
-26.73
-29.42
-33.15
-37.85
-43.08
-47.94
-51.27
-52.0
-49.43
-43.51
-34.83
-24.52
-13.83
-3.83
4.81
11.92
17.63
22.18
25.69
28.13
29.35
29.32
28.2
26.42
24.57
23.16
22.48
22.48
22.88
23.34
23.65
23.75
23.76
23.77
23.78
23.6
22.97
21.69
19.73
17.3
14.7
12.23
9.98
7.9
5.77
3.41
0.72
-2.28
-5.51
-8.86
-12.25
-15.55
-18.64
-21.42
-23.88
-26.18
-28.65
-31.66
-35.51
-40.13
-45.03
-49.28
-51.73
-51.38
-47.69
-40.83
-31.63
-21.28
-10.97
-1.54
6.6
13.36
18.77
22.84
25.53
26.83
26.91
26.07
24.72
23.24
21.86
20.68
19.71
18.94
18.41
18.15
18.21
18.56
19.13
19.76
20.3
20.54
20.32
19.53
18.11
16.15
13.81
11.31
8.85
6.48
4.13
1.65
-1.08
-4.03
-7.05
-9.92
-12.5
-14.82
-17.08
-19.58
-22.6
-26.31
-30.63
-35.14
-39.11
-41.62
-41.73
-38.85
-32.91
-24.48
-14.63
-4.58
4.6
12.25
18.14
22.37
25.13
26.59
26.88
26.1
24.42
22.14
19.59
17.19
15.2
13.84
13.14
13.01
13.29
13.78
14.24
14.46
14.28
13.63
12.52
11.08
9.46
7.81
6.16
4.42
2.42
0.03
-2.76
-5.86
-9.06
-12.17
-15.07
-17.76
-20.27
-22.74
-25.32
-28.21
-31.63
-35.59
-39.79
-43.55
-45.86
-45.69
-42.4
-35.98
-27.16
-17.1
-7.06
1.95
9.42
15.22
19.5
22.43
24.15
24.76
24.38
23.28
21.79
20.29
19.06
18.21
17.73
17.5
17.42
17.45
17.6
17.84
18.1
18.23
18.03
17.34
16.08
14.27
12.02
9.55
7.03
4.59
2.23
-0.14
-2.74
-5.73
-9.18
-12.97
-16.86
-20.52
-23.77
-26.59
-29.18
-31.9
-35.08
-38.85
-42.99
-46.86
-49.58
-50.23
-48.16
-43.22
-35.8
-26.66
-16.73
-6.84
2.43
10.68
17.65
23.18
27.14
29.53
30.48
30.27
29.24
27.77
26.15
24.59
23.26
22.2
21.44
20.99
20.81
20.88
21.16
21.54
21.87
21.92
21.45
20.31
18.55
16.3
13.81
11.27
8.67
5.89
2.74
-0.89
-4.88
-8.97
-12.79
-16.1
-18.84
-21.13
-23.25
-25.5
-28.12
-31.29
-34.95
-38.8
-42.25
-44.48
-44.61
-42.05
-36.68
-28.95
-19.75
-10.1
-0.91
7.24
14.11
19.63
23.82
26.69
28.22
28.47
27.64
26.05
24.12
22.23
20.69
19.67
19.16
19.05
19.15
19.23
19.14
18.81
18.27
17.63
16.99
16.37
15.68
14.75
13.4
11.54
9.2
6.52
3.68
0.83
-1.97
-4.74
-7.54
-10.48
-13.64
-17.1
-20.92
-25.09
-29.41
-33.42
-36.39
-37.46
-35.91
-31.47
-24.46
-15.78
-6.59
2.07
9.53
15.52
20.08
23.23
24.92
25.01
23.49
20.6
16.93
13.24
10.3
8.53
8.02
8.44
9.3
10.12
10.6
10.67
10.46
10.11
9.7
9.1
8.08
6.37
3.85
0.61
-3.02
-6.61
-9.81
-12.48
-14.71
-16.78
-19.0
-21.61
-24.75
-28.39
-32.35
-36.27
-39.57
-41.47
-41.22
-38.28
-32.56
-24.49
-14.98
-5.1
4.15
12.05
18.28
22.82
25.82
27.51
28.12
27.83
26.84
25.36
23.6
21.79
20.13
18.79
17.82
17.2
16.79
16.41
15.89
15.12
14.09
12.83
11.43
9.91
8.29
6.53
4.58
2.4
-0.0
-2.6
-5.29
-8.01
-10.68
-13.3
-15.97
-18.8
-21.95
-25.56
-29.71
-34.37
-39.31
-44.01
-47.68
-49.41
-48.41
-44.27
-37.17
-27.86
-17.41
-6.96
2.59
10.71
17.17
21.96
25.19
26.99
27.58
27.21
26.16
24.75
23.24
21.87
20.76
20.01
19.67
19.74
20.21
20.98
21.9
22.76
23.32
23.36
22.76
21.49
19.61
17.24
14.5
11.47
8.22
4.83
1.33
-2.2
-5.67
-9.0
-12.15
-15.12
-17.98
-20.83
-23.84
-27.15
-30.9
-35.08
-39.53
-43.81
-47.21
-48.89
-48.04
-44.27
-37.7
-29.02
-19.24
-9.42
-0.36
7.52
14.11
19.46
23.56
26.34
27.75
27.88
27.01
25.64
24.25
23.21
22.66
22.5
22.52
22.56
22.57
22.61
22.81
23.18
23.61
23.84
23.58
22.63
21.02
18.94
16.65
14.36
12.08
9.61
6.72
3.23
-0.76
-4.93
-8.87
-12.25
-15.01
-17.38
-19.77
-22.55
-26.01
-30.14
-34.64
-38.94
-42.28
-43.8
-42.83
-39.0
-32.44
-23.84
-14.22
-4.69
3.87
10.97
16.5
20.59
23.41
25.03
25.46
24.75
23.09
20.9
18.68
16.89
15.85
15.59
15.97
16.75
17.68
18.59
19.33
19.82
19.95
19.61
18.76
17.38
15.53
13.29
10.7
7.81
4.66
1.29
-2.18
-5.63
-8.92
-11.99
-14.85
-17.59
-20.36
-23.35
-26.73
-30.6
-34.85
-39.08
-42.52
-44.25
-43.41
-39.57
-32.92
-24.27
-14.76
-5.49
2.75
9.58
14.99
19.08
21.95
23.65
24.23
23.84
22.78
21.43
20.15
19.21
18.7
18.56
18.65
18.83
19.04
19.27
19.55
19.82
19.96
19.77
19.06
17.71
15.74
13.33
10.73
8.17
5.73
3.38
0.92
-1.89
-5.23
-9.08
-13.2
-17.22
-20.71
-23.46
-25.55
-27.32
-29.34
-32.1
-35.81
-40.24
-44.67
-48.08
-49.44
-48.01
-43.57
-36.54
-27.77
-18.28
-8.95
-0.39
7.14
13.55
18.8
22.86
25.65
27.19
27.6
27.15
26.13
24.89
23.71
22.78
22.23
22.03
22.08
22.22
22.28
22.16
21.85
21.36
20.7
19.8
18.48
16.62
14.15
11.19
7.98
4.8
1.83
-0.89
-3.46
-6.08
-8.9
-12.01
-15.43
-19.08
-22.82
-26.48
-29.88
-32.9
-35.56
-38.02
-40.52
-43.35
-46.66
-50.39
-54.18
-57.36
-59.01
-58.17
-54.03
-46.25
-35.15
-21.65
-7.07
7.21
20.12
31.07
39.87
46.55
51.17
53.75
54.36
53.16
50.54
46.99
43.05
39.16
35.59
32.48
29.87
27.73
25.99
24.55
23.28
22.05
20.75
19.23
17.4
15.12
12.34
9.06
5.41
1.6
-2.12
-5.61
-8.85
-11.99
-15.28
-18.96
-23.16
-27.81
-32.73
-37.64
-42.31
-46.62
-50.61
-54.46
-58.4
-62.65
-67.28
-72.2
-77.09
-81.39
-84.31
-84.93
-82.34
-75.87
-65.32
-51.14
-34.38
-16.55
0.81
16.35
29.24
39.25
46.52
51.37
54.15
55.06
54.24
51.85
48.11
43.38
38.12
32.93
28.56
25.81
25.48
28.07
33.64
41.63
50.97
60.32
68.51
74.86
79.34
82.47
84.99
87.39
89.67
91.25
91.32
89.13
84.39
77.29
68.36
58.22
47.34
35.96
24.18
12.05
-0.39
-13.08
-26.0
-39.04
-51.91
-63.98
-74.42
-82.33
-87.13
-88.78
-87.87
-85.31
-82.01
-78.68
-75.62
-72.95
-70.7
-68.87
-67.34
-65.88
-64.16
-61.84
-58.7
-54.66
-49.62
-43.42
-35.79
-26.59
-16.01
-4.7
6.44
16.57
25.21
32.37
38.34
43.41
47.67
51.07
53.49
54.88
55.27
54.73
53.36
51.31
48.8
46.07
43.28
40.36
37.05
32.99
27.92
21.87
15.16
8.29
1.82
-3.66
-7.57
-9.38
-8.66
-5.19
0.88
9.07
18.66
28.85
38.87
48.06
55.87
61.94
66.03
68.14
68.44
67.28
65.12
62.44
59.71
57.34
55.59
54.57
54.21
54.32
54.72
55.26
55.86
56.46
56.89
56.89
56.14
54.35
51.36
47.19
41.93
35.69
28.46
20.21
10.92
0.73
-10.0
-20.81
-31.23
-40.92
-49.74
-57.73
-65.09
-72.0
-78.53
-84.56
-89.78
-93.71
-95.85
-95.77
-93.21
-88.26
-81.24
-72.72
-63.38
-53.9
-44.89
-36.81
-30.0
-24.76
-21.31
-19.76
-19.97
-21.53
-23.7
-25.63
-26.65
-26.47
-25.27
-23.57
-21.97
-20.9
-20.51
-20.7
-21.16
-21.59
-21.74
-21.53
-21.02
-20.43
-19.99
-19.94
-20.36
-21.21
-22.37
-23.69
-25.1
-26.57
-28.13
-29.81
-31.65
-33.75
-36.31
-39.45
-43.19
-47.15
-50.6
-52.53
-52.01
-48.54
-42.25
-33.86
-24.37
-14.7
-5.43
3.23
11.23
18.55
24.98
30.23
34.01
36.22
37.09
37.09
36.89
37.17
38.5
41.14
44.99
49.6
54.32
58.51
61.77
64.04
65.53
66.56
67.33
67.83
67.77
66.63
63.8
58.55
50.29
38.67
23.83
6.51
-12.1
-30.58
-47.73
-62.9
-76.02
-87.33
-96.96
-104.59
-109.41
-110.46
-107.03
-99.11
-87.47
-73.46
-58.63
-44.32
-31.42
-20.37
-11.4
-4.58
0.02
2.46
3.05
2.38
1.26
0.49
0.65
1.88
3.92
6.28
8.46
10.18
11.39
12.24
12.84
13.21
13.17
12.48
10.92
8.37
4.89
0.71
-3.9
-8.62
-13.13
-17.21
-20.77
-23.9
-26.94
-30.32
-34.5
-39.75
-46.03
-52.9
-59.5
-64.73
-67.42
-66.66
-61.99
-53.61
-42.36
-29.46
-16.26
-3.86
7.02
16.08
23.32
28.8
32.61
34.84
35.66
35.4
34.57
33.73
33.25
33.22
33.45
33.57
33.31
32.75
32.28
32.48
33.8
36.33
39.69
43.18
46.08
47.92
48.68
48.67
48.43
48.41
48.93
50.09
51.79
53.76
55.48
56.23
55.16
51.61
45.46
37.39
29.03
22.48
19.71
21.83
28.63
38.7
50.07
60.96
70.28
77.67
83.13
86.58
87.66
85.94
81.26
74.09
65.46
56.61
48.58
41.85
36.46
32.22
29.09
27.28
27.24
29.39
33.84
40.26
47.8
55.23
61.18
64.43
64.12
59.91
51.95
40.77
27.16
11.91
-4.24
-20.74
-37.15
-53.07
-68.13
-81.97
-94.25
-104.73
-113.26
-119.68
-123.7
-124.72
-121.84
-114.06
-100.61
-81.43
-57.38
-30.16
-1.91
25.47
50.72
73.41
93.65
111.63
127.24
140.03
149.46
155.15
157.03
155.18
149.63
140.11
126.23
107.75
84.86
58.28
29.03
-1.82
-33.34
-64.59
-94.45
-121.47
-144.06
-160.92
-171.43
-175.93
-175.45
-171.38
-164.98
-157.24
-148.93
-140.85
-133.94
-129.12
-126.96
-127.32
-129.25
-131.12
-131.06
-127.46
-119.39
-106.75
-90.24
-71.14
-50.96
-31.25
-13.38
1.59
12.92
20.25
23.61
23.49
20.72
16.41
11.71
7.53
4.25
1.75
-0.59
-3.49
-7.4
-12.3
-17.64
-22.7
-26.95
-30.41
-33.65
-37.62
-43.16
-50.66
-59.86
-70.02
-80.21
-89.68
-98.1
-105.64
-112.77
-120.0
-127.64
-135.62
-143.34
-149.55
-152.34
-149.26
-137.87
-116.57
-85.55
-47.16
-5.5
34.84
70.17
98.78
120.93
137.97
151.17
160.9
166.72
168.04
164.89
158.14
149.24
139.53
129.77
120.13
110.4
100.23
89.4
77.67
64.76
50.36
34.28
16.66
-1.98
-20.74
-38.62
-54.68
-68.23
-78.85
-86.45
-91.28
-93.88
-95.11
-95.98
-97.42
-100.13
-104.31
-109.6
-115.12
-119.64
-121.95
-121.21
-117.17
-110.13
-100.73
-89.61
-77.15
-63.43
-48.53
-32.72
-16.76
-1.87
10.65
19.7
24.66
25.52
22.9
18.1
12.93
9.39
9.03
12.45
19.01
26.98
34.14
38.58
39.22
36.03
29.79
21.67
12.84
4.28
-3.25
-9.16
-13.07
-14.91
-14.94
-13.74
-12.18
-11.18
-11.63
-14.02
-18.24
-23.47
-28.34
-31.22
-30.69
-25.95
-17.18
-5.5
7.46
20.09
31.45
41.48
50.86
60.49
70.76
81.32
91.03
98.46
102.31
101.76
96.77
88.2
78.11
69.73
66.76
72.15
86.51
107.29
129.27
146.43
154.31
151.65
140.43
124.45
107.26
90.78
75.24
60.03
44.98
30.77
18.61
9.38
3.13
-0.87
-3.52
-5.18
-5.51
-3.67
1.0
8.52
18.14
28.57
38.57
47.3
54.56
60.58
65.83
70.69
75.33
79.69
83.5
86.43
88.09
88.23
86.72
83.58
78.93
72.87
65.49
56.93
47.38
37.11
26.46
15.68
4.95
-5.67
-16.15
-26.5
-36.71
-46.71
-56.34
-65.25
-72.88
-78.53
-81.55
-81.53
-78.51
-72.99
-65.75
-57.62
-49.33
-41.37
-34.06
-27.61
-22.17
