11.02
8.89
6.72
4.64
2.79
1.18
-0.28
-1.77
-3.48
-5.5
-7.83
-10.32
-12.82
-15.2
-17.43
-19.59
-21.78
-24.12
-26.69
-29.49
-32.41
-35.19
-37.44
-38.66
-38.37
-36.26
-32.28
-26.7
-20.04
-12.94
-6.01
0.31
5.75
10.18
13.58
15.97
17.43
18.07
18.02
17.47
16.64
15.77
15.09
14.76
14.83
15.28
15.96
16.77
17.59
18.34
18.96
19.34
19.33
18.77
17.61
15.89
13.84
11.69
9.68
7.91
6.31
4.73
2.95
0.89
-1.46
-3.96
-6.43
-8.72
-10.77
-12.65
-14.49
-16.46
-18.72
-21.41
-24.55
-27.99
-31.37
-34.05
-35.32
-34.55
-31.45
-26.21
-19.44
-11.99
-4.68
1.9
7.41
11.76
14.95
17.04
18.08
18.19
17.6
16.64
15.66
14.94
14.62
14.67
14.95
15.28
15.5
15.56
15.46
15.24
14.91
14.48
13.95
13.3
12.5
11.52
10.38
9.08
7.66
6.15
4.56
2.85
0.95
-1.18
-3.57
-6.17
-8.85
-11.46
-13.86
-16.03
-18.06
-20.05
-22.18
-24.55
-27.25
-30.28
-33.48
-36.5
-38.77
-39.67
-38.64
-35.48
-30.4
-23.97
-16.96
-10.0
-3.52
2.29
7.38
11.64
14.96
17.24
18.48
18.84
18.63
18.19
17.8
17.66
17.8
18.12
18.49
18.75
18.81
18.66
18.41
18.21
18.12
18.09
17.92
17.41
16.43
15.0
13.32
11.63
10.11
8.79
7.54
6.16
4.47
2.39
-0.07
-2.8
-5.63
-8.39
-10.96
-13.27
-15.33
-17.27
-19.24
-21.48
-24.14
-27.3
-30.86
-34.47
-37.58
-39.55
-39.77
-37.89
-33.91
-28.21
-21.38
-14.15
-7.16
-0.86
4.54
8.98
12.49
15.13
16.96
18.01
18.4
18.31
18.07
17.98
18.26
18.97
19.92
20.83
21.45
21.66
21.54
21.26
20.94
20.6
20.15
19.42
18.33
16.85
15.06
13.08
11.0
8.89
6.81
4.84
3.03
1.41
-0.05
-1.46
-2.94
-4.58
-6.42
-8.47
-10.67
-12.98
-15.34
-17.75
-20.3
-23.12
-26.37
-30.02
-33.78
-37.02
-38.95
-38.88
-36.49
-31.94
-25.87
-19.07
-12.26
-5.89
-0.15
4.89
9.16
12.56
14.98
16.45
17.11
17.21
17.02
16.79
16.68
16.8
17.2
17.89
18.82
19.86
20.84
21.58
21.99
22.04
21.77
21.22
20.42
19.35
17.99
16.33
14.45
12.5
10.59
8.87
7.33
5.87
4.32
2.51
0.39
-2.0
-4.49
-6.95
-9.32
-11.63
-13.92
-16.22
-18.54
-20.89
-23.37
-26.18
-29.43
-33.04
-36.62
-39.51
-41.0
-40.53
-37.92
-33.39
-27.43
-20.65
-13.61
-6.77
-0.48
5.0
9.51
12.94
15.31
16.72
17.38
17.53
17.45
17.34
17.36
17.57
17.99
18.56
19.23
19.91
20.52
21.01
21.31
21.41
21.25
20.79
19.98
18.77
17.18
15.28
13.19
11.09
9.07
7.16
5.3
3.35
1.19
-1.2
-3.75
-6.3
-8.66
-10.73
-12.54
-14.26
-16.17
-18.54
-21.51
-25.03
-28.77
-32.16
-34.54
-35.21
-33.76
-30.12
-24.62
-17.93
-10.83
-4.02
2.0
7.04
11.09
14.23
16.51
17.91
18.41
18.07
17.15
16.04
15.19
14.88
15.13
15.75
16.42
16.91
17.15
17.23
17.27
17.32
17.29
17.03
16.4
15.39
14.06
12.58
11.12
9.76
8.48
7.15
5.57
3.58
1.09
-1.8
-4.94
-8.09
-11.03
-13.65
-15.96
-18.08
-20.23
-22.66
-25.56
-28.99
-32.8
-36.55
-39.55
-41.07
-40.49
-37.56
-32.44
-25.67
-18.02
-10.28
-3.07
3.24
8.49
12.7
15.92
18.17
19.43
19.72
19.16
18.04
16.78
15.82
15.48
15.87
16.86
18.13
19.36
20.34
20.99
21.3
21.28
20.88
20.01
18.61
16.76
14.6
12.38
10.29
8.45
6.86
5.37
3.76
1.79
-0.63
-3.51
-6.65
-9.77
-12.62
-15.06
-17.13
-19.0
-20.94
-23.19
-25.91
-29.16
-32.87
-36.72
-40.19
-42.6
-43.28
-41.75
-37.9
-32.07
-24.91
-17.24
-9.78
-3.03
2.84
7.81
11.95
15.27
17.75
19.34
20.06
20.11
19.78
19.42
19.31
19.6
20.23
21.04
21.82
22.41
22.73
22.77
22.57
22.15
21.5
20.59
19.35
17.73
15.81
13.68
11.52
9.5
7.68
6.0
4.29
2.35
0.04
-2.63
-5.51
-8.44
-11.26
-13.95
-16.59
-19.31
-22.22
-25.33
-28.65
-32.15
-35.79
-39.43
-42.74
-45.19
-46.11
-44.93
-41.44
-35.92
-29.02
-21.59
-14.38
-7.9
-2.36
2.16
5.62
7.97
9.23
9.56
9.27
8.81
8.57
8.76
9.4
10.32
11.29
12.11
12.68
13.02
13.16
13.14
12.95
12.53
11.79
10.69
9.27
7.65
6.02
4.56
3.38
2.48
1.75
1.03
0.17
-0.85
-1.97
-3.01
-3.84
-4.4
-4.77
-5.19
-5.92
-7.2
-9.19
-11.89
-15.18
-18.73
-22.03
-24.42
-25.21
-23.89
-20.33
-14.84
-8.1
-0.91
6.01
12.25
17.68
22.29
26.05
28.84
30.49
30.93
30.32
29.03
27.58
26.41
25.75
25.59
25.79
26.13
26.48
26.77
26.97
27.03
26.85
26.36
25.5
24.26
22.68
20.83
18.77
16.59
14.39
12.24
10.19
8.19
6.11
3.8
1.17
-1.77
-4.88
-8.0
-10.93
-13.58
-15.95
-18.18
-20.49
-23.17
-26.43
-30.35
-34.72
-39.01
-42.47
-44.24
-43.7
-40.6
-35.2
-28.14
-20.24
-12.26
-4.73
2.04
7.91
12.82
16.68
19.47
21.2
22.03
22.24
22.1
21.87
21.73
21.79
22.1
22.7
23.55
24.56
25.58
26.45
27.01
27.16
26.82
25.97
24.62
22.81
20.62
18.17
15.6
13.06
10.61
8.23
5.79
3.19
0.33
-2.77
-6.0
-9.18
-12.1
-14.62
-16.72
-18.51
-20.24
-22.19
-24.63
-27.72
-31.44
-35.57
-39.67
-43.14
-45.34
-45.68
-43.82
-39.7
-33.62
-26.19
-18.15
-10.22
-2.94
3.4
8.72
13.06
16.46
18.95
20.52
21.25
21.31
20.99
20.63
20.47
20.61
20.95
21.28
21.44
21.41
21.28
21.24
21.4
21.72
21.97
21.87
21.21
19.94
18.2
16.25
14.32
12.55
10.93
9.32
7.56
5.54
3.25
0.77
-1.77
-4.24
-6.58
-8.75
-10.8
-12.77
-14.77
-16.95
-19.47
-22.5
-25.99
-29.64
-32.76
-34.51
-34.06
-30.96
-25.27
-17.57
-8.74
0.31
8.83
16.34
22.58
27.46
30.96
33.22
34.48
35.1
35.45
35.79
36.19
36.61
36.99
37.3
37.62
38.0
38.41
38.65
38.47
37.59
35.83
33.16
29.63
25.38
20.58
15.49
10.33
5.3
0.49
-4.13
-8.7
-13.31
-17.99
-22.6
-26.96
-30.85
-34.19
-37.01
-39.45
-41.75
-44.17
-46.94
-50.22
-53.9
-57.59
-60.6
-62.08
-61.22
-57.53
-51.05
-42.36
-32.44
-22.39
-13.13
-5.21
1.24
6.35
10.34
13.38
15.53
16.81
17.36
17.44
17.46
17.82
18.73
20.15
21.83
23.46
24.88
26.07
27.13
28.18
29.15
29.82
29.9
29.17
27.62
25.43
22.88
20.19
17.47
14.64
11.58
8.15
4.34
0.2
-4.14
-8.53
-12.82
-16.92
-20.84
-24.65
-28.5
-32.59
-37.08
-42.03
-47.23
-52.17
-56.07
-58.04
-57.39
-53.88
-47.89
-40.22
-31.92
-23.87
-16.57
-10.14
-4.52
0.39
4.59
7.99
10.57
12.39
13.64
14.53
15.21
15.74
16.14
16.42
16.63
16.86
17.17
17.63
18.26
19.02
19.82
20.45
20.67
20.25
19.07
17.16
14.72
12.01
9.26
6.62
4.1
1.61
-0.97
-3.73
-6.66
-9.66
-12.57
-15.19
-17.4
-19.24
-20.92
-22.77
-25.19
-28.38
-32.31
-36.61
-40.63
-43.58
-44.73
-43.62
-40.13
-34.53
-27.4
-19.46
-11.43
-3.86
2.87
8.59
13.24
16.81
19.33
20.88
21.61
21.78
21.68
21.57
21.59
21.78
22.1
22.47
22.85
23.25
23.65
24.0
24.18
24.0
23.22
21.78
19.74
17.35
14.92
12.73
10.86
9.19
7.47
5.47
3.06
0.35
-2.51
-5.3
-7.93
-10.36
-12.64
-14.82
-17.05
-19.47
-22.29
-25.61
-29.3
-32.92
-35.76
-36.98
-35.91
-32.31
-26.41
-18.94
-10.85
-3.02
3.85
9.43
13.66
16.62
18.44
19.24
19.15
18.39
17.22
16.0
15.04
14.54
14.54
14.91
15.44
15.97
16.45
16.95
17.55
18.21
18.77
18.96
18.53
17.43
15.79
13.86
11.86
9.87
7.77
5.39
2.61
-0.52
-3.83
-7.06
-10.04
-12.65
-14.95
-17.06
-19.18
-21.56
-24.44
-27.98
-32.1
-36.38
-40.05
-42.18
-41.9
-38.8
-33.05
-25.35
-16.73
-8.2
-0.45
6.21
11.77
16.31
19.86
22.33
23.66
23.86
23.18
22.03
20.87
20.05
19.75
19.93
20.37
20.88
21.3
21.6
21.8
21.93
21.87
21.43
20.41
18.7
16.39
13.75
11.13
8.8
6.87
5.21
3.57
1.67
-0.69
-3.51
-6.62
-9.77
-12.72
-15.36
-17.75
-20.11
-22.71
-25.76
-29.39
-33.53
-37.91
-42.02
-45.12
-46.38
-45.09
-40.96
-34.31
-25.96
-17.06
-8.62
-1.24
4.98
10.21
14.73
18.6
21.62
23.56
24.27
23.92
22.91
21.78
20.94
20.59
20.66
20.97
21.34
21.69
22.03
22.38
22.71
22.89
22.74
22.13
20.97
19.27
17.11
14.68
12.2
9.91
7.93
6.23
4.55
2.58
0.11
-2.87
-6.12
-9.3
-12.17
-14.71
-17.11
-19.66
-22.64
-26.2
-30.35
-34.96
-39.7
-44.02
-47.12
-48.13
-46.43
-41.91
-35.03
-26.72
-18.0
-9.67
-2.14
4.5
10.28
15.16
19.01
21.68
23.16
23.66
23.55
23.23
22.96
22.87
22.95
23.16
23.48
23.91
24.46
25.06
25.58
25.82
25.61
24.86
23.55
21.72
19.52
17.1
14.63
12.27
10.1
8.12
6.19
4.13
1.77
-0.91
-3.74
-6.44
-8.74
-10.54
-11.92
-13.19
-14.72
-16.83
-19.74
-23.48
-27.76
-32.05
-35.52
-37.32
-36.72
-33.44
-27.75
-20.42
-12.43
-4.7
2.2
8.03
12.79
16.53
19.24
20.8
21.15
20.4
18.93
17.31
16.12
15.73
16.19
17.23
18.45
19.49
20.16
20.48
20.56
20.46
20.15
19.48
18.29
16.48
14.1
11.32
8.36
5.45
2.72
0.24
-2.03
-4.18
-6.28
-8.4
-10.54
-12.71
-14.95
-17.33
-20.0
-23.11
-26.77
-30.94
-35.36
-39.48
-42.56
-43.77
-42.49
-38.54
-32.28
-24.47
-16.08
-7.93
-0.56
5.79
11.08
15.29
18.36
20.24
20.96
20.69
19.74
18.48
17.26
16.32
15.75
15.52
15.54
15.71
15.99
16.38
16.87
17.39
17.78
17.85
17.39
16.3
14.6
12.41
9.93
7.36
4.83
2.36
-0.1
-2.67
-5.45
-8.44
-11.52
-14.49
-17.16
-19.44
-21.42
-23.34
-25.53
-28.31
-31.83
-36.03
-40.58
-44.81
-47.84
-48.76
-46.86
-41.99
-34.52
-25.34
-15.56
-6.21
2.05
8.94
14.49
18.86
22.12
24.27
25.32
25.35
24.66
23.66
22.76
22.23
22.12
22.3
22.58
22.84
23.01
23.12
23.16
23.03
22.58
21.68
20.25
18.34
16.14
13.85
11.66
9.7
7.98
6.41
4.8
2.91
0.53
-2.43
-5.87
-9.51
-13.01
-16.03
-18.43
-20.29
-21.92
-23.77
-26.26
-29.69
-34.05
-38.93
-43.58
-47.01
-48.3
-46.82
-42.48
-35.69
-27.3
-18.28
-9.52
-1.62
5.11
10.58
14.88
18.1
20.34
21.66
22.12
21.83
21.01
19.97
19.07
18.62
18.79
19.55
20.75
22.17
23.62
24.95
26.08
26.86
27.13
26.69
25.43
23.36
20.65
17.59
14.52
11.69
9.21
6.98
4.82
2.46
-0.29
-3.46
-6.91
-10.36
-13.53
-16.23
-18.5
-20.54
-22.73
-25.46
-28.96
-33.14
-37.52
-41.23
-43.29
-42.82
-39.43
-33.31
-25.23
-16.22
-7.3
0.81
7.74
13.38
17.77
20.91
22.78
23.38
22.88
21.56
19.89
18.35
17.3
16.95
17.26
18.02
18.94
19.69
20.05
19.95
19.38
18.44
17.19
15.7
13.98
12.04
9.93
7.68
5.37
3.09
0.87
-1.27
-3.32
-5.3
-7.17
-8.94
-10.68
-12.58
-14.94
-18.02
-21.92
-26.34
-30.63
-33.86
-35.14
-33.93
-30.19
-24.34
-17.17
-9.47
-1.91
5.03
11.02
15.77
19.05
20.71
20.78
19.57
17.6
15.46
13.67
12.5
11.97
11.9
12.04
12.24
12.44
12.72
13.14
13.64
14.04
14.05
13.4
11.94
9.74
7.03
4.08
1.17
-1.55
-4.03
-6.3
-8.41
-10.39
-12.26
-14.12
-16.09
-18.3
-20.9
-23.93
-27.33
-30.88
-34.18
-36.63
-37.6
-36.59
-33.35
-28.08
-21.31
-13.78
-6.21
0.91
7.29
12.82
17.43
21.06
23.56
24.85
24.94
23.95
22.19
20.07
18.03
16.45
15.57
15.39
15.77
16.41
17.01
17.33
17.21
16.54
15.29
13.45
11.09
8.34
5.4
2.44
-0.46
-3.27
-6.02
-8.73
-11.32
-13.73
-15.9
-17.95
-20.1
-22.69
-25.98
-30.07
-34.74
-39.49
-43.53
-46.01
-46.17
-43.56
-38.25
-30.81
-22.14
-13.28
-5.05
2.06
7.93
12.64
16.3
18.94
20.52
21.07
20.76
19.98
19.2
18.79
18.94
19.54
20.28
20.85
21.02
20.74
20.07
19.13
17.99
16.69
15.19
13.49
11.65
9.76
7.91
6.17
4.54
2.88
1.03
-1.19
-3.88
-7.06
-10.58
-14.25
-17.83
-21.21
-24.41
-27.61
-31.0
-34.69
-38.48
-41.81
-43.93
-44.07
-41.77
-37.07
-30.5
-22.87
-15.02
-7.56
-0.78
5.29
10.69
15.46
19.51
22.71
24.92
26.11
26.43
26.2
25.8
25.57
25.67
26.04
26.4
26.49
26.11
25.24
24.04
22.7
21.38
20.11
18.82
17.4
15.75
13.82
11.67
9.37
7.03
4.69
2.36
-0.03
-2.54
-5.19
-7.92
-10.71
-13.54
-16.58
-19.98
-23.81
-27.8
-31.32
-33.49
-33.5
-30.92
-25.87
-19.0
-11.23
-3.41
3.8
10.13
15.48
19.82
23.06
25.06
25.73
25.15
23.65
21.73
19.91
18.52
17.65
17.13
16.69
16.11
15.31
14.35
13.33
12.33
11.33
10.25
9.02
7.57
5.87
3.89
1.64
-0.84
-3.46
-6.06
-8.51
-10.72
-12.73
-14.68
-16.78
-19.26
-22.26
-25.85
-29.92
-34.13
-37.92
-40.54
-41.22
-39.44
-35.08
-28.55
-20.61
-12.19
-4.09
3.23
9.52
14.75
18.86
21.78
23.4
23.74
23.02
21.68
20.21
18.99
18.24
17.88
17.73
17.6
17.39
17.14
16.92
16.73
16.43
15.8
14.67
12.94
10.68
8.09
5.38
2.73
0.25
-2.0
-4.04
-5.94
-7.79
-9.65
-11.58
-13.62
-15.81
-18.29
-21.28
-24.98
-29.47
-34.43
-39.13
-42.54
-43.66
-41.89
-37.22
-30.28
-22.04
-13.53
-5.53
1.54
7.51
12.4
16.24
19.09
21.07
22.33
23.09
23.52
23.75
23.86
23.86
23.76
23.57
23.28
22.87
22.36
21.75
21.09
20.4
19.65
18.74
17.54
16.0
14.15
12.17
10.26
8.56
7.01
5.39
3.39
0.73
-2.64
-6.57
-10.67
-14.52
-17.75
-20.27
-22.22
-23.95
-25.95
-28.56
-31.9
-35.71
-39.37
-42.04
-42.9
-41.4
-37.43
-31.35
-23.85
-15.74
-7.68
-0.14
6.72
12.85
18.17
22.5
25.61
27.33
27.69
27.0
25.76
24.47
23.46
22.77
22.28
21.83
21.38
21.0
20.85
20.95
21.14
21.1
20.45
19.01
16.87
14.33
11.83
9.68
8.03
6.77
5.7
4.61
3.31
1.73
-0.22
-2.55
-5.24
-8.15
-11.09
-13.84
-16.25
-18.33
-20.19
-22.12
-24.41
-27.3
-30.84
-34.81
-38.6
-41.38
-42.27
-40.66
-36.46
-30.11
-22.49
-14.54
-7.01
-0.3
5.52
10.5
14.7
18.05
20.44
21.79
22.19
21.89
21.23
20.52
19.95
19.57
19.36
19.34
19.5
19.87
20.38
20.91
21.24
21.19
20.65
19.63
18.2
16.46
14.44
12.18
9.68
6.93
3.97
0.86
-2.29
-5.32
-8.04
-10.3
-12.07
-13.46
-14.75
-16.3
-18.48
-21.49
-25.26
-29.36
-33.11
-35.69
-36.35
-34.65
-30.53
-24.39
-16.97
-9.12
-1.61
5.01
10.44
14.56
17.36
18.9
19.32
18.86
17.85
16.62
15.46
14.57
14.11
14.2
14.94
16.35
18.25
20.23
21.74
22.26
21.5
19.49
16.56
13.18
9.79
6.69
3.99
1.63
-0.5
-2.55
-4.62
-6.79
-9.03
-11.36
-13.77
-16.29
-18.89
-21.57
-24.3
-27.09
-30.02
-33.12
-36.31
-39.23
-41.25
-41.64
-39.86
-35.77
-29.79
-22.73
-15.51
-8.84
-3.05
1.95
6.52
10.96
15.38
19.63
23.32
26.06
27.6
27.96
27.43
26.4
25.24
24.17
23.24
22.39
21.6
20.87
20.27
19.8
19.35
18.75
17.77
16.3
14.34
12.05
9.59
7.12
4.68
2.22
-0.35
-3.06
-5.9
-8.75
-11.46
-13.94
-16.15
-18.18
-20.2
-22.47
-25.25
-28.74
-32.93
-37.49
-41.74
-44.73
-45.54
-43.53
-38.59
-31.26
-22.51
-13.46
-5.02
2.27
8.28
13.11
16.9
19.73
21.58
22.5
22.58
22.06
21.26
20.47
19.9
19.59
19.47
19.41
19.28
19.07
18.82
18.66
18.65
18.72
18.7
18.35
17.47
16.03
14.12
11.93
9.63
7.31
4.98
2.6
0.1
-2.55
-5.39
-8.39
-11.47
-14.49
-17.25
-19.66
-21.69
-23.48
-25.26
-27.28
-29.74
-32.7
-36.03
-39.36
-42.06
-43.39
-42.64
-39.41
-33.78
-26.36
-18.09
-9.92
-2.52
3.81
9.1
13.52
17.1
19.75
21.34
21.84
21.46
20.63
19.81
19.31
19.24
19.46
19.76
20.04
20.33
20.7
21.17
21.59
21.68
21.17
19.94
18.08
15.85
13.54
11.3
9.22
7.21
5.22
3.17
1.05
-1.13
-3.34
-5.58
-7.87
-10.22
-12.65
-15.23
-18.01
-21.01
-24.12
-27.07
-29.37
-30.46
-29.86
-27.36
-23.1
-17.57
-11.45
-5.43
0.02
4.63
8.39
11.38
13.67
15.24
16.05
16.1
15.52
14.54
13.49
12.65
12.19
12.11
12.31
12.65
13.03
13.37
13.58
13.58
13.23
12.43
11.14
9.42
7.39
5.19
2.93
0.66
-1.6
-3.86
-6.1
-8.31
-10.45
-12.51
-14.48
-16.4
-18.31
-20.32
-22.56
-25.13
-27.98
-30.81
-33.07
-34.07
-33.15
-30.04
-24.94
-18.49
-11.52
-4.79
1.27
6.51
10.96
14.62
17.4
19.12
19.73
19.36
18.39
17.23
16.27
15.68
15.45
15.53
15.84
16.36
17.01
17.65
18.06
18.0
17.33
16.08
14.43
12.62
10.85
9.21
7.67
6.1
4.44
2.64
0.7
-1.37
-3.57
-5.91
-8.39
-11.04
-13.86
-16.91
-20.28
-24.1
-28.37
-32.94
-37.39
-41.1
-43.34
-43.56
-41.48
-37.24
-31.38
-24.6
-17.6
-10.87
-4.68
0.88
5.77
9.86
12.93
14.83
15.55
15.37
14.78
14.35
14.44
15.21
16.51
18.06
19.59
20.95
22.09
23.07
23.88
24.48
24.72
24.47
23.64
22.17
20.08
17.49
14.58
11.54
8.59
5.81
3.18
0.58
-2.14
-5.04
-8.04
-11.0
-13.77
-16.29
-18.68
-21.18
-24.04
-27.47
-31.44
-35.72
-39.84
-43.17
-45.04
-44.86
-42.29
-37.37
-30.53
-22.52
-14.19
-6.27
0.78
6.81
11.79
15.78
18.75
20.69
21.61
21.75
21.47
21.21
21.28
21.76
22.53
23.36
24.09
24.65
25.07
25.38
25.55
25.45
24.92
23.88
22.36
20.5
18.45
16.35
14.28
12.26
10.34
8.51
6.78
5.08
3.22
1.04
-1.59
-4.63
-7.89
-11.08
-13.94
-16.36
-18.42
-20.37
-22.5
-25.07
-28.19
-31.8
-35.59
-39.07
-41.65
-42.66
-41.66
-38.48
-33.36
-26.83
-19.58
-12.22
-5.2
1.24
6.99
12.0
16.19
19.44
21.67
22.86
23.14
22.75
22.01
21.26
20.78
20.7
21.0
21.54
22.15
22.66
22.92
22.88
22.43
21.55
20.21
18.47
16.5
14.47
12.58
10.9
9.38
7.85
6.12
4.05
1.63
-1.01
-3.69
-6.24
-8.57
-10.73
-12.86
