-25.36
-28.92
-32.86
-37.25
-42.04
-46.95
-51.34
-54.36
-55.17
-53.24
-48.52
-41.44
-32.76
-23.29
-13.75
-4.7
3.45
10.39
15.89
19.92
22.59
24.15
24.91
25.18
25.22
25.2
25.21
25.25
25.29
25.32
25.37
25.52
25.84
26.31
26.82
27.14
27.11
26.65
25.84
24.85
23.85
22.93
22.06
21.14
20.03
18.54
16.51
13.84
10.55
6.85
3.08
-0.43
-3.47
-6.09
-8.49
-10.89
-13.4
-15.99
-18.58
-21.17
-23.83
-26.71
-29.88
-33.4
-37.29
-41.57
-46.18
-50.87
-55.07
-57.89
-58.4
-55.95
-50.44
-42.38
-32.68
-22.38
-12.31
-3.02
5.2
12.21
17.89
22.21
25.18
26.95
27.76
27.93
27.8
27.62
27.59
27.76
28.13
28.62
29.17
29.66
30.03
30.23
30.2
29.91
29.35
28.55
27.52
26.28
24.81
23.1
21.13
18.93
16.59
14.22
11.96
9.89
7.97
6.07
3.99
1.58
-1.24
-4.35
-7.5
-10.37
-12.72
-14.53
-15.95
-17.35
-19.13
-21.6
-24.85
-28.73
-32.79
-36.41
-38.84
-39.34
-37.42
-32.96
-26.46
-18.87
-11.32
-4.68
0.79
5.48
10.06
15.04
20.31
25.15
28.55
29.72
28.49
25.32
21.01
16.31
11.72
7.55
4.18
2.19
2.35
5.26
11.03
19.0
27.93
36.39
43.26
48.04
50.82
52.06
52.21
51.49
49.89
47.33
43.78
39.31
34.08
28.16
21.56
14.3
6.51
-1.48
-9.17
-16.02
-21.65
-26.01
-29.29
-31.91
-34.37
-37.12
-40.47
-44.63
-49.62
-55.23
-60.89
-65.72
-68.68
-68.84
-65.73
-59.4
-50.52
-39.99
-28.78
-17.73
-7.49
1.41
8.58
13.78
16.94
18.26
18.12
17.1
15.76
14.67
14.24
14.72
16.15
18.35
21.02
23.81
26.42
28.62
30.25
31.14
31.06
29.83
27.32
23.58
18.9
13.76
8.82
4.74
2.02
0.83
0.92
1.64
2.18
1.84
0.28
-2.34
-5.48
-8.59
-11.39
-14.03
-17.0
-20.83
-25.76
-31.61
-37.84
-43.75
-48.74
-52.27
-53.88
-53.19
-49.94
-44.12
-36.17
-26.93
-17.42
-8.6
-1.08
5.0
9.84
13.81
17.23
20.25
22.79
24.64
25.59
25.53
24.59
23.08
21.52
20.4
20.11
20.79
22.32
24.39
26.55
28.34
29.43
29.63
28.98
27.62
25.8
23.73
21.61
19.51
17.47
15.45
13.35
11.05
8.43
5.41
2.02
-1.66
-5.49
-9.35
-13.19
-17.02
-20.9
-24.87
-28.98
-33.23
-37.61
-42.14
-46.75
-51.24
-55.2
-58.04
-59.1
-57.87
-54.18
-48.26
-40.66
-32.1
-23.19
-14.39
-5.97
1.87
8.88
14.74
19.07
21.69
22.69
22.51
21.83
21.36
21.55
22.52
24.0
25.56
26.83
27.65
28.13
28.47
28.77
28.98
28.83
28.04
26.45
24.13
21.35
18.43
15.57
12.79
9.91
6.69
3.0
-1.06
-5.23
-9.17
-12.68
-15.8
-18.8
-22.04
-25.85
-30.42
-35.75
-41.69
-47.91
-53.84
-58.68
-61.47
-61.34
-57.83
-51.1
-41.89
-31.3
-20.4
-9.99
-0.52
7.73
14.54
19.65
22.91
24.45
24.78
24.64
24.77
25.54
26.87
28.31
29.37
29.73
29.44
28.81
28.23
28.0
28.15
28.52
28.81
28.71
27.95
26.34
23.86
20.62
16.92
13.12
9.56
6.41
3.63
1.05
-1.51
-4.09
-6.62
-8.94
-10.99
-12.8
-14.57
-16.52
-18.83
-21.61
-24.94
-28.97
-33.84
-39.57
-45.79
-51.73
-56.21
-58.01
-56.26
-50.78
-42.13
-31.44
-20.01
-9.0
0.81
9.05
15.55
20.34
23.46
25.07
25.52
25.27
24.92
24.94
25.56
26.64
27.76
28.48
28.54
28.02
27.31
26.87
27.01
27.71
28.62
29.26
29.15
28.07
26.08
23.44
20.51
17.64
14.99
12.64
10.52
8.46
6.24
3.62
0.49
-3.12
-7.04
-11.02
-14.87
-18.55
-22.17
-25.92
-29.97
-34.44
-39.36
-44.69
-50.24
-55.57
-59.96
-62.46
-62.11
-58.32
-51.06
-40.97
-29.18
-17.01
-5.61
4.23
12.21
18.39
23.04
26.46
28.82
30.22
30.73
30.53
29.96
29.42
29.22
29.52
30.26
31.22
32.18
32.91
33.28
33.16
32.54
31.45
30.04
28.46
26.88
25.36
23.86
22.3
20.57
18.64
16.54
14.33
12.11
9.88
7.61
5.11
2.18
-1.37
-5.59
-10.36
-15.39
-20.33
-24.91
-29.0
-32.73
-36.44
-40.56
-45.41
-50.96
-56.66
-61.52
-64.37
-64.27
-60.83
-54.4
-45.81
-36.13
-26.27
-16.8
-7.96
0.16
7.6
14.33
20.33
25.51
29.78
33.0
35.09
36.1
36.19
35.6
34.58
33.31
31.86
30.27
28.58
26.95
25.54
24.51
23.93
23.79
24.03
24.57
25.32
26.12
26.72
26.76
25.86
23.81
20.55
16.32
11.5
6.51
1.66
-2.97
-7.43
-11.88
-16.44
-21.1
-25.89
-30.82
-36.09
-41.86
-48.11
-54.33
-59.56
-62.56
-62.31
-58.44
-51.39
-42.3
-32.48
-23.04
-14.53
-7.07
-0.47
5.43
10.69
15.28
19.14
22.29
24.79
26.75
28.21
29.24
29.87
30.2
30.34
30.4
30.44
30.38
30.05
29.27
27.95
26.11
23.96
21.76
19.77
18.2
17.21
16.87
17.09
17.65
18.1
17.9
16.65
14.19
10.71
6.59
2.26
-2.05
-6.3
-10.62
-15.13
-19.83
-24.64
-29.48
-34.47
-39.8
-45.63
-51.83
-57.77
-62.48
-64.88
-64.22
-60.35
-53.76
-45.37
-36.19
-27.0
-18.28
-10.21
-2.85
3.67
9.17
13.4
16.24
17.81
18.5
18.89
19.59
20.94
22.89
25.0
26.7
27.53
27.42
26.62
25.65
24.94
24.74
25.01
25.52
25.98
26.11
25.77
24.93
23.68
22.21
20.78
19.56
18.68
18.03
17.35
16.26
14.41
11.59
7.88
3.57
-1.01
-5.55
-9.99
-14.43
-19.08
-24.12
-29.63
-35.63
-42.0
-48.49
-54.55
-59.36
-61.96
-61.53
-57.7
-50.82
-41.73
-31.56
-21.36
-11.82
-3.27
4.18
10.47
15.5
19.13
21.3
22.09
21.77
20.76
19.48
18.21
17.14
16.32
15.78
15.61
15.95
16.96
18.68
20.97
23.51
25.86
27.58
28.32
27.93
26.42
23.94
20.73
17.04
13.06
8.95
4.88
1.07
-2.23
-4.83
-6.66
-7.89
-8.93
-10.33
-12.62
-16.22
-21.26
-27.56
-34.52
-41.18
-46.43
-49.22
-48.87
-45.22
-38.69
-30.02
-20.08
-9.66
0.63
10.25
18.69
25.42
30.05
32.42
32.73
31.48
29.3
26.8
24.38
22.19
20.22
18.35
16.47
14.61
12.9
11.54
10.78
10.69
11.21
12.14
13.2
14.19
14.97
15.46
15.48
14.74
12.87
9.67
5.26
0.19
-4.76
-8.89
-11.89
-14.04
-15.98
-18.43
-21.83
-26.31
-31.74
-37.93
-44.66
-51.6
-58.09
-63.04
-65.21
-63.62
-58.03
-49.06
-38.04
-26.43
-15.41
-5.62
2.81
9.97
15.92
20.61
23.89
25.71
26.22
25.78
24.91
24.1
23.76
24.07
24.99
26.32
27.74
29.0
29.89
30.33
30.27
29.68
28.57
26.94
24.85
22.41
19.76
17.11
14.73
12.88
11.75
11.39
11.7
12.46
13.36
14.02
14.01
12.86
10.13
5.58
-0.63
-7.97
-15.66
-23.04
-29.84
-36.32
-42.85
-49.61
-56.12
-61.29
-63.81
-62.73
-57.84
-49.71
-39.39
-28.06
-16.64
-5.77
4.1
12.59
19.37
24.23
27.27
28.89
29.72
30.41
31.33
32.48
33.53
33.94
33.27
31.43
28.75
25.85
23.49
22.17
22.03
22.78
23.79
24.36
23.83
21.8
18.2
13.3
7.71
2.1
-2.95
-7.21
-10.84
-14.32
-18.19
-22.74
-27.97
-33.58
-39.26
-44.88
-50.53
-56.51
-63.1
-70.41
-78.35
-86.69
-95.08
-103.07
-110.07
-115.34
-118.07
-117.63
-113.8
-106.91
-97.74
-87.33
-76.53
-65.64
-54.25
-41.45
-26.27
-8.25
12.14
33.58
54.38
73.2
89.46
103.44
115.86
127.38
138.18
148.08
156.88
164.72
172.06
179.36
186.43
192.05
194.13
190.53
179.99
162.93
141.51
118.9
98.11
80.85
67.13
55.67
44.82
33.58
22.0
10.92
1.29
-6.51
-12.9
-18.78
-25.04
-32.04
-39.49
-46.66
-52.69
-56.91
-58.87
-58.36
-55.29
-49.75
-41.97
-32.39
-21.64
-10.41
0.58
10.68
19.37
26.27
31.17
34.05
35.05
34.47
32.71
30.25
27.73
25.81
25.12
26.04
28.47
31.77
34.94
36.97
37.27
35.94
33.85
32.19
32.05
34.03
37.93
42.93
47.87
51.71
53.8
54.0
52.56
49.84
46.03
40.96
34.18
25.02
12.86
-2.65
-21.43
-42.89
-65.89
-88.92
-110.25
-128.34
-142.14
-151.29
-156.16
-157.6
-156.47
-153.25
-147.96
-140.28
-129.91
-116.99
-102.26
-86.97
-72.6
-60.46
-51.36
-45.58
-42.81
-42.34
-43.17
-44.22
-44.47
-43.13
-39.91
-34.98
-28.89
-22.43
-16.29
-10.93
-6.56
-3.13
-0.51
1.4
2.65
3.29
3.44
3.31
3.25
3.61
4.58
6.13
7.89
9.35
9.83
8.77
5.77
0.73
-6.06
-13.97
-22.13
-29.73
-36.35
-42.1
-47.54
-53.29
-59.48
-65.54
-70.23
-72.17
-70.43
-64.92
-56.41
-46.09
-35.11
-24.21
-13.72
-3.77
5.44
13.59
20.33
25.48
29.12
31.6
33.29
34.42
35.01
34.97
34.28
33.14
31.92
31.06
30.82
31.24
32.14
33.23
34.22
34.88
35.02
34.45
33.02
30.57
27.05
22.59
17.49
12.18
7.14
2.71
-1.05
-4.36
-7.69
-11.55
-16.34
-22.21
-28.99
-36.26
-43.31
-49.28
-53.22
-54.22
-51.74
-45.76
-36.9
-26.24
-14.99
-4.18
5.62
14.19
21.57
27.73
32.57
35.91
37.67
37.99
37.26
35.98
34.6
33.37
32.38
31.58
30.9
30.32
29.87
29.61
29.51
29.48
29.27
28.64
27.31
25.14
22.08
18.26
13.94
9.52
5.45
2.1
-0.38
-2.16
-3.68
-5.5
-8.12
-11.82
-16.62
-22.39
-29.01
-36.32
-44.07
-51.62
-57.89
-61.57
-61.5
-57.17
-48.91
-37.83
-25.42
-13.1
-1.89
7.71
15.56
21.78
26.52
29.97
32.27
33.58
34.1
34.03
33.62
33.17
32.89
32.91
33.2
33.59
33.9
33.99
33.85
33.49
32.93
32.08
30.78
28.86
26.28
23.17
19.78
16.4
13.21
10.19
7.17
3.93
0.37
-3.51
-7.58
-11.69
-15.83
-20.09
-24.69
-29.9
-35.93
-42.74
-49.94
-56.66
-61.72
-63.89
-62.27
-56.66
-47.59
-36.2
-23.87
-11.76
-0.67
9.03
17.26
24.04
29.4
33.39
36.07
37.6
38.22
38.24
37.95
37.6
37.26
36.92
36.49
35.93
35.33
34.85
34.61
34.59
34.53
34.06
32.85
30.8
28.08
25.05
22.1
19.46
17.19
15.15
13.09
10.69
7.7
3.9
-0.73
-6.04
-11.67
-17.16
-22.06
-26.12
-29.4
-32.26
-35.29
-39.04
-43.83
-49.46
-55.18
-59.84
-62.22
-61.48
-57.37
-50.32
-41.26
-31.24
-21.18
-11.68
-3.03
4.69
11.46
17.24
21.92
25.36
27.43
28.04
27.23
25.17
22.13
18.51
14.75
11.33
8.63
6.85
5.78
4.87
3.32
0.43
-4.11
-10.05
-16.63
-23.06
-28.86
-34.21
-39.86
-46.77
-55.63
-66.46
-78.62
-91.11
-102.92
-113.48
-122.77
-131.35
-140.16
-150.45
-163.47
-180.06
-200.03
-221.8
-242.28
-257.5
-263.67
-258.32
-241.09
-213.67
-179.08
-140.71
-101.31
-62.62
-25.49
9.39
40.83
66.69
84.18
90.78
85.42
69.22
45.26
17.32
-11.69
-40.57
-69.47
-98.5
-126.31
-149.76
-164.94
-169.15
-162.32
-147.27
-128.33
-109.36
-92.27
-76.79
-61.4
-44.8
-26.8
-8.37
9.11
24.81
38.91
52.52
67.09
83.66
102.37
122.48
142.78
162.04
179.53
195.37
210.67
227.23
246.86
270.21
295.98
320.97
341.03
352.96
355.97
352.04
344.95
338.76
336.45
339.47
347.9
360.86
376.67
392.66
405.45
411.43
407.87
393.79
370.01
338.59
301.95
262.46
222.41
184.1
149.74
120.69
96.6
75.21
52.87
25.53
-10.18
-56.21
-112.35
-175.47
-239.41
-295.74
-336.03
-354.79
-351.75
-332.28
-305.15
-278.91
-258.72
-245.21
-235.92
-228.03
-220.94
-216.6
-218.02
-226.87
-241.84
-258.73
-272.37
-278.82
-276.75
-267.8
-255.4
-243.04
-232.86
-224.92
-217.46
-208.12
-195.25
-179.03
-161.63
-146.35
-136.01
-131.37
-130.44
-129.01
-122.19
-106.3
-80.09
-45.17
-5.44
34.1
68.67
95.05
112.39
122.47
128.84
135.22
143.78
154.2
164.01
170.09
170.44
165.0
155.26
143.09
129.69
115.25
99.48
82.24
63.91
45.15
26.71
9.33
-5.9
-17.19
-22.19
-18.61
-5.14
17.77
47.77
80.98
112.85
139.11
156.63
163.83
160.86
149.22
131.21
109.38
85.99
62.87
41.38
22.49
6.69
-6.08
-16.44
-25.31
-33.28
-39.98
-43.89
-42.94
-35.48
-21.28
-1.73
20.65
43.17
63.98
82.2
97.7
110.42
119.97
125.8
127.67
126.04
121.97
116.54
110.07
101.78
90.28
74.6
55.1
33.89
14.24
-0.79
-9.62
-13.07
-14.19
-16.99
-24.63
-37.55
-52.81
-65.03
-68.72
-61.09
-43.95
-23.39
-7.42
-2.29
-9.7
-26.09
-44.59
-58.25
-63.04
-58.79
-48.24
-34.95
-21.49
-9.07
1.84
10.48
15.53
15.79
11.12
3.37
-3.81
-6.28
-1.0
12.66
32.65
54.99
75.12
89.35
95.91
95.16
89.11
80.53
71.96
64.92
59.47
54.45
48.11
38.97
26.5
11.28
-5.15
-20.83
-33.88
-42.94
-47.35
-47.21
-43.3
-36.82
-29.13
-21.34
-14.09
-7.64
-1.99
2.76
6.37
8.6
9.36
8.87
7.53
5.71
3.59
1.31
-0.83
-2.13
-1.71
1.09
6.19
12.61
18.67
22.74
23.98
22.76
20.6
19.52
21.01
25.2
30.45
33.9
32.28
23.1
5.44
-19.87
-50.56
-83.53
-115.33
-142.41
-161.37
-169.41
-165.07
-149.04
-124.24
-95.11
-66.18
-40.64
-19.68
-2.77
11.28
23.49
34.34
43.93
52.42
60.13
67.28
73.65
78.51
81.0
80.79
78.52
75.61
73.64
73.37
74.16
74.08
70.65
61.86
46.96
26.77
3.31
-20.87
-43.4
-62.62
-77.72
-88.65
-95.95
-100.54
-103.53
-105.95
-108.54
-111.51
-114.48
-116.63
-117.03
-114.89
-109.75
-101.63
-90.93
-78.47
-65.21
-52.16
-40.17
-29.76
-20.99
-13.52
-6.74
-0.04
6.95
14.24
21.51
28.3
34.24
39.22
43.37
46.89
49.86
52.12
53.33
53.19
51.65
48.98
45.63
42.02
38.33
34.48
30.26
25.51
20.3
14.9
9.62
4.61
-0.22
-5.15
-10.39
-15.89
-21.25
-25.79
-28.84
-29.98
-29.15
-26.64
-22.93
-18.53
-13.82
-9.18
-4.95
-1.61
0.36
0.56
-1.12
-4.43
-8.81
-13.57
-18.16
-22.33
-26.07
-29.5
-32.61
-35.27
-37.2
-38.17
-38.14
-37.23
-35.61
-33.36
-30.41
-26.7
-22.33
-17.71
-13.47
-10.27
-8.41
-7.71
-7.48
-6.85
-4.98
-1.4
3.99
11.06
19.54
29.18
39.76
51.05
62.67
74.12
84.76
93.98
101.2
106.01
108.15
107.56
104.37
98.89
91.67
83.32
74.54
65.93
57.92
50.71
44.33
38.67
33.62
29.04
24.8
20.76
16.7
12.41
7.73
2.62
-2.84
-8.44
-13.96
-19.21
-24.04
-28.38
-32.22
-35.64
-38.78
-41.86
-45.1
-48.62
-52.33
-55.9
-58.76
-60.31
-60.05
-57.71
-53.36
-47.32
-40.07
-32.12
-24.0
-16.19
-9.1
-3.1
1.57
4.84
6.88
8.0
8.67
9.31
10.23
11.55
13.19
14.94
16.54
17.77
18.51
18.79
18.75
18.55
18.36
18.28
18.29
18.31
18.17
17.68
16.59
14.68
11.8
7.92
3.22
-1.92
-7.01
-11.59
-15.37
-18.33
-20.66
-22.64
-24.52
-26.35
-27.98
-29.1
-29.38
-28.52
-26.4
-23.08
-18.82
-14.05
-9.23
-4.77
-0.94
2.14
4.54
6.36
7.71
8.67
9.29
9.62
9.72
9.64
9.41
9.01
8.44
7.75
7.12
6.76
6.87
7.53
8.6
9.81
10.77
11.23
11.04
10.22
8.94
7.39
5.75
4.13
2.55
0.93
-0.85
-2.93
-5.42
-8.24
-11.17
-13.86
-15.92
-17.11
-17.39
-16.97
-16.21
-15.51
-15.09
-14.94
-14.82
-14.35
-13.14
-10.95
-7.8
-3.91
0.33
4.56
8.53
12.1
15.24
17.89
19.91
21.13
21.47
21.05
20.14
19.1
18.24
17.67
17.33
17.05
16.65
16.06
15.31
14.45
13.56
12.67
11.74
10.72
9.55
8.17
6.59
4.88
3.15
1.54
0.09
-1.23
-2.55
-3.95
-5.48
-7.08
-8.61
-9.98
-11.2
-12.43
-13.85
-15.69
-18.02
-20.79
-23.69
-26.26
-27.91
-28.13
-26.6
-23.38
-18.86
-13.67
-8.44
-3.65
0.46
3.8
6.41
8.32
9.58
10.3
10.6
10.68
10.71
10.8
10.98
11.22
11.5
11.78
12.09
12.48
12.98
13.56
14.19
14.76
15.13
15.23
14.98
14.4
13.53
12.44
11.23
9.97
8.79
7.76
6.91
6.15
5.35
4.39
3.2
1.81
0.29
-1.34
-3.15
-5.33
-8.01
-11.27
-15.02
-19.01
-22.97
-26.61
-29.74
-32.18
-33.81
-34.49
-34.15
-32.88
-30.88
-28.45
-25.9
-23.37
-20.93
-18.56
-16.29
-14.23
-12.49
-11.16
-10.12
-9.19
-8.12
-6.75
-5.11
-3.37
-1.71
-0.28
0.89
1.76
2.33
2.5
2.2
1.45
0.41
-0.68
-1.55
-2.08
-2.3
-2.32
-2.3
-2.32
-2.38
-2.49
-2.72
-3.23
-4.22
-5.81
-7.91
-10.29
-12.63
-14.63
-16.18
-17.37
-18.4
-19.55
-21.01
-22.82
-24.82
-26.67
-27.95
-28.27
-27.33
-25.05
-21.55
-17.13
-12.18
-7.15
-2.42
1.71
5.08
7.64
9.49
10.71
11.4
11.61
11.43
10.95
10.38
9.94
9.85
10.21
10.99
12.05
13.14
14.06
14.66
14.89
14.76
14.34
13.69
12.84
11.83
10.7
9.5
8.28
7.12
6.05
5.05
4.06
2.99
1.76
0.36
-1.19
-2.85
-4.62
-6.52
-8.54
-10.66
-12.79
-14.85
-16.8
-18.71
-20.73
-23.0
-25.56
-28.21
-30.59
-32.22
-32.67
-31.73
-29.43
-26.02
-21.83
-17.17
-12.24
-7.21
-2.23
2.51
6.75
10.28
12.95
14.73
15.68
15.92
15.57
14.79
13.77
12.79
12.15
12.08
12.67
13.78
15.13
16.38
17.2
17.41
16.91
15.75
14.05
11.99
9.79
7.65
5.72
4.03
2.54
1.16
-0.18
-1.52
-2.83
-4.03
-5.08
-5.98
-6.82
-7.77
-9.05
-10.89
-13.39
-16.54
-20.13
-23.88
-27.43
-30.44
-32.66
-33.85
-33.88
-32.68
-30.33
-27.06
-23.24
-19.35
-15.87
-13.3
-12.01
-12.22
-13.92
-16.88
-20.76
-25.25
-30.27
-35.98
-42.73
-50.9
-60.77
-72.47
-85.99
-101.27
-118.12
-136.32
-155.65
-175.92
-196.75
-217.27
-235.64
-248.88
-253.3
-245.48
-223.28
-186.59
-137.49
-79.8
-18.48
41.0
93.46
134.63
162.07
175.73
177.89
172.39
163.37
153.99
145.93
139.55
134.64
130.88
127.96
125.3
121.94
116.82
109.38
100.1
90.47
82.44
77.59
76.41
78.23
81.6
85.03
87.46
88.55
88.47
87.66
86.58
85.59
84.95
84.8
85.16
85.87
86.62
86.97
86.4
84.38
80.46
74.41
66.36
56.82
46.56
36.38
26.93
18.55
11.38
5.46
0.81
-2.57
-4.84
-6.4
-7.75
-9.36
-11.45
-13.97
-16.73
-19.53
-22.34
-25.2
-28.09
-30.86
-33.16
-34.68
-35.26
-35.1
-34.67
-34.62
-35.45
-37.42
-40.36
-43.73
-46.65
-48.07
-47.05
-43.01
-35.96
-26.49
-15.61
-4.47
5.99
15.22
23.08
29.74
35.54
40.85
45.96
50.95
55.71
59.9
63.16
65.32
66.57
67.52
69.03
71.96
76.7
83.03
89.97
96.16
100.26
101.53
100.18
97.34
94.64
93.54
94.71
97.61
100.58
101.34
97.82
88.92
74.99
57.8
40.03
24.43
12.9
6.0
2.82
1.56
0.29
-2.44
-7.24
-14.03
-22.19
-30.94
-39.43
-46.97
-53.34
-59.1
-65.57
-74.4
-86.86
-103.22
-122.57
-143.47
-164.95
-187.14
-211.05
-237.31
-264.79
-289.9
-307.36
-312.15
-301.52
-276.27
-240.57
-200.51
-162.15
-129.87
-105.51
-88.46
-76.41
-66.34
-55.64
-42.81
-27.67
-11.1
5.64
21.57
36.45
50.58
64.44
78.17
91.32
102.99
112.2
118.33
121.23
121.31
119.17
115.47
110.65
104.92
98.27
90.38
80.63
68.01
51.3
29.54
2.74
-27.57
-58.26
-85.29
-104.86
-114.68
-114.56
-106.18
-92.35
-75.86
-58.78
-42.22
-26.64
-12.29
0.45
11.06
19.13
24.57
27.8
29.55
30.65
31.69
32.87
34.03
34.79
34.79
33.79
31.76
28.64
24.28
18.51
11.23
2.75
-6.21
-14.62
-21.52
-26.29
-28.83
-29.5
-28.89
-27.62
-26.3
-25.44
-25.54
-26.93
-29.63
-33.14
-36.53
-38.64
-38.5
-35.65
-30.15
-22.56
-13.74
-4.57
4.16
11.87
18.25
23.27
27.02
29.66
31.25
31.84
31.5
30.45
29.12
28.04
27.69
28.34
30.0
32.5
35.66
39.35
43.48
47.92
52.4
56.56
60.08
62.79
64.73
66.06
66.95
67.36
67.01
65.47
62.34
57.39
50.75
42.82
34.16
25.36
16.87
8.96
1.82
-4.39
-9.4
-12.81
-14.16
-13.14
-9.77
-4.42
2.17
9.17
15.84
21.71
26.62
30.57
33.55
35.46
36.06
35.19
32.9
29.55
25.73
22.0
18.74
15.94
13.41
10.91
8.38
5.99
3.98
2.53
1.53
0.63
-0.61
-2.54
-5.28
-8.7
-12.53
-16.49
-20.42
-24.19
-27.72
-31.0
-34.05
-37.01
-40.15
-43.75
-47.96
-52.64
-57.25
-60.97
-62.96
-62.62
-59.82
-54.9
-48.49
-41.24
-33.65
-25.97
-18.42
-11.21
-4.7
0.74
4.82
7.53
9.09
9.9
10.35
10.69
11.02
11.3
11.49
11.62
11.8
12.14
12.69
13.38
13.98
14.19
13.76
12.61
10.92
9.02
7.3
5.98
5.06
4.27
3.26
1.71
-0.48
-3.21
-6.23
-9.27
-12.18
-14.92
-17.56
-20.21
-22.99
-26.02
-29.35
-32.82
-36.08
-38.54
-39.53
-38.49
-35.23
-29.94
-23.18
-15.66
-8.05
-0.88
5.47
10.79
14.94
17.91
19.73
20.59
20.68
20.28
19.67
19.12
18.8
18.81
19.13
19.63
20.14
20.53
20.74
20.78
20.63
20.25
19.54
18.4
16.88
15.12
13.39
11.92
10.84
10.03
9.21
8.01
6.15
3.53
0.27
-3.38
-7.15
-10.85
-14.44
-17.94
-21.4
-24.9
-28.46
-32.09
-35.68
-39.0
-41.65
-43.14
-43.0
-40.92
-36.91
-31.17
-24.11
-16.2
-7.88
0.48
8.57
16.13
22.9
28.63
33.11
36.18
37.77
38.0
37.19
35.82
34.4
33.34
32.77
32.63
32.7
32.73
32.59
32.18
31.42
30.15
28.16
25.22
21.27
16.5
11.34
6.31
1.86
-1.8
-4.71
-7.11
-9.29
-11.52
-13.98
-16.73
-19.72
-22.81
-25.81
-28.47
-30.64
-32.31
-33.7
-35.14
-36.99
-39.44
-42.37
-45.33
-47.66
-48.62
-47.69
-44.66
-39.68
-33.21
-25.85
-18.23
-10.84
-4.07
1.81
6.64
10.33
12.89
14.42
15.14
15.31
15.26
15.23
15.4
15.82
16.43
17.11
17.73
18.23
18.64
19.06
19.59
20.19
20.66
20.72
20.09
18.68
16.61
14.18
11.69
9.36
7.22
5.15
3.02
0.75
-1.62
-4.03
-6.38
-8.61
-10.72
-12.73
-14.74
-16.9
-19.35
-22.22
-25.61
-29.44
-33.52
-37.46
-40.76
-42.82
-43.09
-41.22
-37.21
-31.45
-24.64
-17.54
-10.8
-4.76
0.53
5.17
9.23
12.64
15.22
16.81
17.44
17.33
16.87
16.46
16.36
16.66
17.31
18.26
19.48
20.95
22.6
24.24
25.62
26.47
26.66
26.17
25.15
23.74
22.1
20.33
18.51
16.73
15.01
13.34
11.64
9.85
7.93
5.92
3.85
1.68
-0.68
-3.37
-6.4
-9.65
-12.87
-15.83
-18.45
-20.89
-23.47
-26.49
-30.04
-33.86
-37.39
-39.86
-40.54
-38.92
-34.93
-28.93
-21.6
-13.85
-6.52
-0.25
4.64
8.13
10.45
11.95
12.99
13.88
14.74
15.6
16.41
17.05
17.46
17.64
17.64
17.52
17.32
17.06
16.79
16.62
16.7
17.13
17.86
18.71
19.38
19.55
19.05
17.86
16.1
13.98
11.67
9.23
6.67
3.96
1.09
-1.89
-4.91
-7.89
-10.73
-13.38
-15.84
-18.15
-20.43
-22.9
-25.82
-29.39
-33.63
-38.2
-42.47
-45.55
-46.66
-45.33
-41.57
-35.83
-28.87
-21.46
-14.23
-7.56
-1.59
3.64
8.11
11.76
14.49
16.2
16.89
16.72
16.02
15.18
14.54
14.27
14.38
14.72
15.15
15.6
16.05
16.56
17.16
17.78
18.32
18.58
18.38
17.61
16.29
14.55
12.58
10.59
8.68
6.85
5.04
3.16
1.19
-0.82
-2.76
-4.58
-6.23
-7.78
-9.34
-11.07
-13.13
-15.65
-18.73
-22.36
-26.39
-30.52
-34.24
-36.92
-37.99
-37.06
-34.06
-29.29
-23.31
-16.75
-10.17
-3.97
1.63
6.51
10.59
13.78
16.02
17.31
17.8
17.73
17.44
17.22
17.26
17.55
17.92
18.15
18.04
17.58
16.91
16.25
15.8
15.61
15.56
15.42
15.01
14.19
12.95
11.34
9.46
7.36
5.09
2.7
0.25
-2.2
-4.62
-7.03
-9.52
-12.2
-15.16
-18.45
-22.06
-25.9
-29.72
-33.14
-35.61
-36.56
-35.51
-32.29
-27.13
-20.62
-13.55
-6.63
-0.38
4.99
9.43
12.93
15.47
16.99
17.51
17.21
16.39
15.45
14.73
14.4
14.47
14.87
15.49
16.3
17.25
18.26
19.2
19.84
19.95
19.39
18.14
16.31
14.11
11.73
9.37
7.09
4.9
2.71
0.41
-2.05
-4.68
-7.36
-9.97
-12.37
-14.57
-16.67
-18.86
-21.35
-24.27
-27.67
-31.43
-35.31
-38.88
-41.61
-42.92
-42.35
-39.7
-35.09
-28.96
-21.9
-14.54
-7.36
-0.66
5.4
10.7
15.12
18.56
20.94
22.25
22.62
22.27
21.46
20.43
19.39
18.48
17.82
17.47
17.45
17.72
18.2
18.73
19.19
19.46
19.46
19.14
18.47
17.51
16.32
14.97
13.46
11.65
9.27
6.13
2.17
-2.35
-6.94
-11.04
-14.25
-16.47
-17.94
-19.07
-20.33
-22.1
-24.61
-27.9
-31.81
-35.95
-39.76
-42.52
-43.59
-42.46
-38.92
-33.07
-25.35
-16.49
-7.33
1.3
8.75
14.64
18.88
21.61
23.07
23.58
23.46
22.97
22.36
21.78
21.33
21.08
21.08
21.39
22.08
23.13
24.44
25.76
26.82
27.34
27.15
26.15
24.39
22.0
19.23
16.3
13.43
10.75
8.23
5.77
3.18
0.3
-2.92
-6.45
-10.13
-13.8
-17.37
-20.82
-24.27
-27.88
-31.83
-36.25
-41.16
-46.36
-51.39
-55.54
-58.06
-58.32
-56.12
-51.76
-45.99
-39.82
-34.12
-29.46
-26.01
-23.7
-22.41
-22.22
-23.36
-26.1
-30.65
-36.94
-44.64
-53.23
-62.14
-71.0
-79.73
-88.66
-98.44
-109.85
-123.46
-139.39
-157.3
-176.52
-196.46
-216.83
-237.74
-259.42
-281.82
-304.19
-324.95
-341.76
-351.97
-353.03
-342.95
-320.74
-286.73
-242.83
-192.35
-139.36
-87.58
-39.13
6.13
50.38
96.61
146.82
200.48
254.17
302.49
339.98
363.04
371.05
366.25
352.65
334.46
315.04
296.46
279.82
265.64
254.09
244.99
237.55
230.32
221.56
209.9
194.98
177.57
159.25
141.75
126.28
113.16
101.98
91.96
82.41
72.94
63.51
54.37
45.9
38.56
32.77
28.71
26.22
24.73
23.41
21.49
18.59
14.85
10.93
7.7
5.95
6.08
7.96
11.0
14.31
16.84
17.69
16.23
12.34
6.5
-0.3
-6.76
-11.63
-14.01
-13.59
-10.69
-6.16
-1.06
3.59
7.18
9.5
10.7
11.01
10.47
8.9
6.02
1.69
-3.78
-9.62
-14.75
-18.15
-19.25
-18.06
-15.12
-11.18
-6.95
-2.86
0.87
4.1
6.61
7.99
7.86
6.13
3.23
0.15
-1.94
-2.2
-0.65
1.84
3.85
4.18
2.36
-1.12
-5.2
-8.79
-11.35
-13.0
-14.33
-15.96
-18.2
-21.01
-24.0
-26.66
-28.48
-29.0
-27.87
-24.9
-20.14
-13.95
-6.92
0.26
7.01
12.93
17.85
21.72
24.58
26.48
27.53
27.94
28.01
28.08
28.47
29.27
30.43
31.71
32.84
33.63
34.08
34.34
34.66
35.24
36.12
37.16
38.1
38.63
38.57
37.93
36.87
35.69
34.67
33.91
33.27
32.28
30.25
26.35
19.81
10.16
-2.46
-17.12
-32.11
-45.29
-54.64
-58.9
-57.95
-52.73
-44.85
-35.98
-27.45
-20.04
-14.21
-10.34
-8.76
-9.69
-13.06
-18.41
-24.96
-31.83
-38.28
-43.79
-48.11
-51.13
-52.8
-53.11
-52.11
-49.9
-46.62
-42.4
-37.44
-31.95
-26.23
-20.57
-15.18
-10.11
-5.22
-0.37
4.48
9.06
12.88
15.24
15.51
13.29
8.54
1.63
-6.7
-15.51
-23.85
-30.92
-36.3
-39.96
-42.22
-43.51
-44.14
-44.12
-43.16
-40.88
-36.97
-31.47
-24.73
-17.28
-9.6
-1.96
5.63
13.22
20.8
28.13
34.83
40.55
45.19
48.98
52.41
56.02
60.21
65.13
70.66
76.6
82.73
88.93
95.11
101.21
107.12
112.66
117.61
121.83
125.23
127.74
129.22
129.44
128.03
124.64
119.0
111.17
101.42
90.08
77.33
63.11
47.06
28.9
8.72
-12.97
-35.35
-57.72
-79.8
-101.67
-123.42
-144.66
-164.2
-180.28
-191.07
-195.29
-192.66
-183.85
-170.08
-152.76
-133.19
-112.46
-91.52
-71.28
-52.67
-36.49
-23.27
-13.02
-5.15
1.5
8.29
16.32
25.96
36.74
47.56
57.06
64.22
68.47
69.84
68.75
65.84
61.82
57.37
53.02
49.08
45.61
42.46
39.42
36.36
33.17
29.69
25.66
20.77
14.83
7.98
0.71
-6.27
-12.42
-17.64
-22.32
-27.21
-32.99
-40.0
-48.03
-56.43
-64.27
-70.6
-74.6
-75.69
-73.7
-68.89
-62.06
-54.33
-46.85
-40.42
-35.25
-31.02
-27.19
-23.36
-19.55
-16.13
-13.58
-12.19
-11.99
-12.67
-13.91
-15.37
-16.84
-18.19
-19.28
-20.0
-20.3
-20.18
-19.7
-18.87
-17.69
-16.08
-14.04
-11.7
-9.31
-7.24
-5.81
-5.2
-5.43
-6.35
-7.7
-9.24
-10.75
-12.14
-13.39
-14.57
-15.73
-16.99
-18.5
-20.39
-22.75
-25.5
-28.31
-30.63
-31.75
-31.06
-28.24
-23.35
-16.81
-9.35
-1.74
5.32
11.33
16.04
19.41
21.59
22.76
23.12
22.81
21.94
20.7
19.35
18.3
17.95
18.58
20.26
22.8
25.85
29.03
32.01
34.57
36.57
37.94
38.67
38.82
38.51
37.92
37.2
36.44
35.61
34.65
33.51
32.17
30.65
28.9
26.71
23.77
19.68
14.17
7.22
-0.85
-9.38
-17.46
-24.07
-28.33
-29.69
-28.05
-23.88
-18.11
-11.91
-6.42
-2.53
-0.76
-1.26
-3.83
-8.09
-13.49
-19.37
-25.01
-29.76
-33.08
-34.69
-34.56
-32.88
-30.0
-26.41
-22.61
-19.11
-16.29
-14.35
-13.3
-12.95
-12.99
-13.07
-12.92
-12.38
-11.51
-10.55
-9.9
-9.97
-11.08
-13.24
-16.21
-19.46
-22.38
-24.52
-25.62
-25.77
-25.3
-24.72
-24.56
-25.28
-27.1
-29.9
-33.21
-36.22
-37.99
-37.66
-34.7
-29.09
-21.29
-12.15
-2.61
6.46
14.39
20.81
25.54
28.55
29.9
29.8
28.57
26.64
24.51
22.65
21.38
20.78
20.76
21.05
21.42
21.7
21.87
21.95
21.93
21.73
21.23
20.31
18.99
17.37
15.65
13.97
12.33
10.56
8.4
5.62
2.16
-1.83
-6.07
-10.18
-13.87
-16.97
-19.51
-21.69
-23.84
-26.38
-29.63
-33.77
-38.62
-43.64
-47.91
-50.38
-50.14
-46.68
-40.15
-31.29
-21.28
-11.37
-2.55
4.71
10.41
14.87
18.44
21.28
23.31
24.31
24.2
23.12
21.51
19.91
18.77
18.34
18.57
19.3
20.3
21.42
22.5
23.39
23.87
23.67
22.55
20.41
17.35
13.65
9.72
5.91
2.43
-0.74
-3.88
-7.26
-11.04
-15.1
-18.95
-21.94
-23.38
-22.81
-20.16
-15.86
-10.9
-6.63
-4.53
-5.91
-11.49
-21.24
-34.29
-49.02
-63.29
-74.9
-82.0
-83.54
-79.48
-70.84
-59.26
-46.54
-34.11
-22.79
-12.86
-4.3
2.97
9.07
14.26
19.12
24.41
30.83
38.69
47.65
56.81
64.89
70.64
73.06
71.71
66.8
59.24
50.51
42.22
35.71
31.67
29.96
29.84
30.36
30.7
30.33
29.03
26.66
23.1
18.18
11.85
4.26
-4.22
-13.08
-21.81
-30.09
-37.83
-45.29
-52.88
-61.02
-69.88
-79.18
-88.18
-95.83
-101.13
-103.47
-102.9
-100.08
-96.13
-92.16
-89.03
-87.05
-86.08
-85.77
-85.95
-86.87
-89.23
-93.89
-101.25
-111.02
-122.1
-133.11
-142.86
-150.8
-157.04
-162.06
-166.39
-170.42
-174.33
-178.11
-181.22
-182.36
-179.27
-169.22
-149.83
-120.04
-80.49
-33.23
19.18
74.51
131.12
187.55
241.64
290.22
329.11
354.22
362.83
354.47
331.23
297.13
257.1
215.97
177.82
145.65
121.5
106.57
101.33
105.59
118.34
137.84
161.63
186.88
210.8
231.21
246.91
257.91
265.37
271.11
277.0
284.1
291.99
298.48
300.06
292.89
274.09
243.15
202.12
155.09
106.63
60.23
17.38
-22.19
-59.55
-95.42
-129.71
-161.86
-191.63
-219.53
-246.63
-273.57
-299.78
-323.2
-340.99
-350.58
-350.6
-341.12
-323.14
-297.92
-266.55
-230.0
-189.55
-147.03
-104.76
-65.15
-30.1
-0.76
22.61
40.33
53.07
61.62
66.76
69.13
69.2
67.26
63.55
58.49
52.75
47.23
42.76
39.92
38.88
39.39
40.8
42.31
43.06
42.44
40.34
37.18
33.74
30.73
28.37
26.19
23.36
19.26
13.99
8.37
3.53
0.19
-1.8
-3.5
-6.2
-10.75
-17.06
-24.12
-30.42
-34.57
