-22.12
-24.64
-26.91
-28.53
-29.09
-28.22
-25.8
-21.98
-17.17
-11.95
-6.87
-2.36
1.36
4.28
6.47
8.0
8.88
9.13
8.84
8.16
7.36
6.74
6.52
6.75
7.36
8.23
9.25
10.38
11.64
13.02
14.45
15.75
16.67
16.96
16.46
15.18
13.29
11.11
8.98
7.19
5.81
4.7
3.62
2.26
0.43
-1.84
-4.39
-6.93
-9.22
-11.12
-12.68
-14.06
-15.48
-17.13
-19.21
-21.83
-25.03
-28.67
-32.34
-35.38
-37.0
-36.55
-33.76
-28.89
-22.62
-15.79
-9.13
-3.07
2.2
6.64
10.21
12.83
14.48
15.24
15.43
15.44
15.62
16.17
17.01
17.97
18.8
19.42
19.92
20.46
21.2
22.16
23.19
23.97
24.2
23.63
22.21
20.06
17.45
14.72
12.16
9.97
8.16
6.59
4.98
3.09
0.8
-1.84
-4.61
-7.25
-9.58
-11.56
-13.28
-14.9
-16.6
-18.49
-20.68
-23.22
-26.03
-28.85
-31.16
-32.34
-31.79
-29.22
-24.77
-19.02
-12.72
-6.58
-1.03
3.78
7.89
11.36
14.23
16.47
18.07
19.08
19.6
19.75
19.63
19.35
19.0
18.73
18.65
18.85
19.27
19.77
20.09
19.97
19.25
17.85
15.88
13.48
10.81
7.93
4.81
1.35
-2.49
-6.63
-10.83
-14.81
-18.46
-21.87
-25.34
-29.19
-33.58
-38.41
-43.44
-48.41
-53.1
-57.34
-60.88
-63.41
-64.6
-64.2
-61.98
-57.68
-50.93
-41.53
-29.76
-16.52
-2.94
10.41
24.16
39.92
59.38
83.16
110.12
137.83
163.52
185.2
201.91
213.38
219.25
218.85
211.72
198.19
179.62
157.68
133.12
104.8
69.92
25.53
-29.37
-92.29
-157.34
-216.73
-263.38
-293.23
-306.3
-306.15
-297.96
-286.46
-274.65
-263.85
-254.44
-246.72
-241.06
-237.29
-233.93
-228.18
-216.88
-198.15
-172.79
-144.41
-118.09
-98.13
-85.78
-78.45
-70.64
-55.97
-29.6
10.09
61.2
119.11
178.05
232.74
279.56
317.05
345.67
367.0
382.93
394.84
403.24
407.82
407.86
402.7
392.18
376.93
358.28
337.91
317.23
296.69
275.37
250.97
220.64
182.13
134.79
80.09
21.4
-36.89
-90.38
-135.49
-169.84
-192.23
-202.55
-201.69
-191.63
-175.43
-157.08
-140.71
-129.72
-125.65
-127.71
-133.1
-138.05
-139.26
-135.0
-125.51
-112.48
-98.25
-84.89
-73.8
-65.63
-60.45
-57.93
-57.42
-58.06
-58.88
-59.04
-58.1
-56.18
-54.0
-52.62
-53.15
-56.36
-62.45
-70.98
-81.03
-91.42
-101.05
-109.1
-115.12
-119.01
-120.93
-121.14
-119.96
-117.63
-114.23
-109.6
-103.45
-95.42
-85.37
-73.7
-61.52
-50.58
-42.76
-39.43
-40.68
-45.12
-50.22
-53.24
-52.2
-46.5
-36.79
-24.43
-10.87
2.83
15.98
28.13
38.81
47.42
53.37
56.35
56.49
54.5
51.61
49.27
48.73
50.64
54.81
60.32
65.91
70.55
73.76
75.71
76.94
77.87
78.57
78.7
77.7
75.16
71.02
65.64
59.68
53.84
48.6
44.14
40.43
37.45
35.3
34.29
34.71
36.57
39.49
42.8
45.8
48.08
49.68
51.06
52.77
55.12
57.94
60.54
62.0
61.62
59.29
55.66
51.98
49.61
49.38
51.22
53.97
55.89
55.22
50.88
42.74
31.54
18.45
4.67
-8.77
-20.96
-31.03
-38.3
-42.69
-45.09
-47.37
-51.63
-59.11
-69.45
-80.82
-91.06
-99.16
-106.02
-113.99
-125.31
-140.31
-156.72
-170.49
-177.79
-176.93
-169.03
-156.87
-142.98
-128.08
-110.8
-88.93
-61.05
-27.7
8.81
45.56
80.3
112.11
140.84
166.03
185.82
197.04
196.44
182.66
157.97
128.56
103.06
89.66
93.0
112.31
141.75
172.71
196.96
209.27
208.29
195.74
174.72
148.12
118.04
86.29
54.97
26.89
5.34
-6.88
-8.36
0.29
16.43
35.99
54.54
68.45
75.73
76.39
71.88
64.19
54.77
43.86
30.79
14.81
-3.84
-23.26
-40.29
-51.57
-54.99
-50.6
-40.5
-28.1
-16.8
-9.23
-6.77
-9.58
-16.7
-26.0
-34.37
-38.24
-34.56
-22.06
-2.08
21.56
43.61
59.12
65.02
60.95
48.96
32.61
15.67
1.32
-8.22
-11.58
-8.23
1.48
15.94
32.19
46.21
53.97
52.73
42.16
24.63
4.34
-14.17
-27.75
-35.53
-38.89
-40.56
-43.36
-49.26
-58.92
-71.88
-86.98
-102.81
-117.78
-130.28
-138.76
-142.05
-139.8
-132.73
-122.63
-111.87
-102.81
-96.99
-94.79
-95.49
-97.62
-99.64
-100.38
-99.43
-97.27
-95.22
-95.01
-98.17
-105.39
-115.99
-128.0
-138.73
-145.8
-148.05
-145.9
-141.01
-135.38
-130.4
-126.37
-122.71
-118.72
-114.26
-110.04
-107.34
-107.25
-110.0
-114.64
-119.4
-122.52
-123.1
-121.57
-119.38
-118.14
-118.66
-120.49
-122.29
-122.56
-120.33
-115.29
-107.08
-94.55
-75.53
-47.56
-9.55
36.73
86.47
133.05
170.45
195.44
208.42
212.58
211.95
209.44
205.97
200.95
193.63
184.3
174.63
166.83
162.39
160.95
160.53
158.69
154.17
147.78
142.0
139.48
141.1
145.09
147.6
144.63
134.16
117.3
97.62
79.32
65.13
55.26
47.83
40.42
31.62
21.71
12.25
5.01
0.89
-0.48
-0.36
-0.14
-0.6
-1.66
-2.69
-2.95
-2.06
-0.22
1.98
3.83
4.8
4.71
3.77
2.34
0.71
-1.11
-3.48
-6.94
-11.8
-17.76
-23.76
-28.25
-29.72
-27.32
-21.3
-12.86
-3.68
4.78
11.68
16.92
20.78
23.55
25.35
26.11
25.81
24.52
22.41
19.58
15.98
11.35
5.46
-1.73
-9.98
-18.8
-27.58
-35.72
-42.73
-48.28
-52.24
-54.76
-56.31
-57.56
-59.11
-61.25
-63.79
-66.13
-67.57
-67.6
-66.18
-63.62
-60.41
-56.9
-53.15
-48.97
-44.11
-38.41
-31.86
-24.62
-16.91
-8.95
-0.9
7.19
15.49
24.4
34.37
45.61
57.77
69.93
80.87
89.63
95.98
100.49
104.08
107.47
110.64
112.87
113.25
111.21
106.9
101.02
94.32
87.12
79.25
70.19
59.57
47.59
34.97
22.81
12.17
3.59
-2.95
-8.04
-12.48
-16.91
-21.56
-26.24
-30.53
-34.22
-37.39
-40.5
-43.99
-48.01
-52.14
-55.56
-57.38
-57.12
-54.81
-51.02
-46.45
-41.69
-37.0
-32.44
-27.97
-23.68
-19.76
-16.49
-14.08
-12.52
-11.66
-11.19
-10.84
-10.5
-10.19
-10.06
-10.22
-10.65
-11.2
-11.64
-11.81
-11.64
-11.2
-10.58
-9.85
-9.0
-7.99
-6.85
-5.7
-4.76
-4.26
-4.36
-5.12
-6.52
-8.47
-10.88
-13.66
-16.66
-19.76
-22.83
-25.77
-28.44
-30.67
-32.22
-32.8
-32.2
-30.34
-27.33
-23.52
-19.33
-15.2
-11.38
-7.99
-4.98
-2.28
0.14
2.18
3.7
4.58
4.83
4.57
4.09
3.69
3.6
3.94
4.62
5.48
6.3
6.89
7.18
7.18
6.94
6.52
5.95
5.27
4.47
3.55
2.52
1.4
0.23
-0.95
-2.08
-3.14
-4.15
-5.17
-6.32
-7.73
-9.52
-11.69
-14.18
-16.8
-19.3
-21.39
-22.73
-23.05
-22.18
-20.12
-17.05
-13.29
-9.19
-5.07
-1.18
2.35
5.42
7.92
9.72
10.8
11.18
11.02
10.53
9.91
9.34
8.89
8.57
8.4
8.39
8.5
8.68
8.8
8.74
8.42
7.87
7.18
6.52
5.97
5.52
5.07
4.46
3.58
2.41
1.02
-0.47
-1.94
-3.36
-4.72
-6.04
-7.35
-8.68
-10.1
-11.69
-13.56
-15.75
-18.15
-20.5
-22.34
-23.25
-22.88
-21.17
-18.29
-14.64
-10.65
-6.65
-2.88
0.54
3.51
5.95
7.73
8.83
9.3
9.3
9.04
8.73
8.51
8.48
8.68
9.12
9.74
10.46
11.12
11.56
11.69
11.48
10.98
10.3
9.53
8.76
8.01
7.26
6.44
5.49
4.36
3.07
1.68
0.3
-1.02
-2.27
-3.52
-4.89
-6.5
-8.32
-10.23
-12.04
-13.52
-14.51
-14.92
-14.7
-13.82
-12.23
-9.93
-7.0
-3.69
-0.35
2.64
4.93
6.39
7.04
7.05
6.67
6.16
5.7
5.46
5.53
5.93
6.68
7.72
8.97
10.24
11.29
11.89
11.94
11.41
10.39
8.96
7.02
4.25
0.27
-5.14
-11.78
-18.98
-25.71
-31.05
-34.51
-36.24
-36.88
-37.24
-37.91
-39.11
-40.82
-42.93
-45.52
-48.69
-52.33
-55.84
-58.08
-57.66
-53.45
-45.05
-33.0
-18.64
-3.65
10.38
22.3
31.45
37.66
40.99
41.67
40.03
36.42
31.27
25.01
18.13
11.06
4.1
-2.63
-9.25
-15.97
-22.84
-29.56
-35.44
-39.65
-41.59
-41.26
-39.24
-36.43
-33.65
-31.26
-29.15
-26.93
-24.14
-20.39
-15.34
-8.63
-0.09
9.97
20.51
29.88
36.48
39.45
39.12
36.81
34.05
31.65
29.4
26.29
21.28
13.97
4.75
-5.41
-15.6
-25.32
-34.5
-43.27
-51.77
-60.19
-69.01
-78.82
-89.82
-101.22
-111.01
-116.38
-114.9
-105.44
-88.73
-67.01
-43.09
-19.6
1.52
19.36
34.37
48.47
64.63
85.89
113.83
147.49
183.23
215.9
240.78
255.3
259.7
256.56
249.55
242.1
236.29
232.45
229.3
224.59
216.31
203.79
188.33
172.67
159.91
152.02
149.01
149.12
149.29
145.79
134.79
113.29
79.84
35.42
-16.66
-71.89
-126.31
-178.28
-228.97
-281.64
-339.58
-403.76
-471.31
-535.6
-587.88
-619.92
-626.69
-607.84
-567.69
-513.56
-453.23
-392.72
-335.22
-281.48
-230.86
-182.64
-136.04
-89.99
-42.59
8.75
66.17
129.77
196.48
260.63
315.68
356.91
382.96
395.75
398.73
394.46
383.38
364.09
335.3
297.59
253.93
208.66
165.4
125.52
87.95
50.2
9.61
-35.91
-87.61
-145.5
-207.44
-268.56
-321.49
-358.2
-372.7
-363.46
-334.05
-291.55
-243.66
-195.95
-150.88
-108.72
-69.22
-32.86
-0.78
26.31
49.34
70.84
93.83
120.04
148.74
176.95
200.51
216.1
222.5
220.77
213.49
203.4
192.42
181.37
170.37
159.31
148.23
137.41
127.19
117.92
110.1
104.26
100.67
98.95
97.88
95.64
90.6
81.99
70.43
57.57
45.33
35.04
27.06
20.93
15.98
11.77
8.16
5.02
1.87
-2.34
-8.84
-18.38
-30.75
-44.5
-57.4
-67.22
-72.62
-73.48
-70.82
-66.16
-60.81
-55.5
-50.32
-44.96
-39.02
-32.15
-24.13
-14.81
-4.2
7.47
19.69
31.61
42.23
50.63
56.19
58.71
58.46
56.04
52.28
47.95
43.66
39.7
36.12
32.85
29.78
26.85
23.98
21.02
17.64
13.42
8.01
1.28
-6.49
-14.6
-22.01
-27.65
-30.62
-30.53
-27.59
-22.57
-16.68
-11.19
-7.13
-5.07
-5.04
-6.58
-9.04
-11.73
-14.16
-16.04
-17.3
-17.95
-18.03
-17.59
-16.73
-15.68
-14.73
-14.16
-14.17
-14.76
-15.75
-16.9
-17.99
-18.96
-19.84
-20.77
-21.87
-23.15
-24.56
-25.97
-27.24
-28.23
-28.84
-29.01
-28.7
-27.89
-26.53
-24.55
-21.82
-18.2
-13.62
-8.18
-2.23
3.69
8.97
13.11
15.9
17.39
17.85
17.63
16.97
16.0
14.75
13.29
11.75
10.3
9.09
8.14
7.38
6.64
5.77
4.74
3.57
2.26
0.79
-0.96
-3.11
-5.66
-8.43
-11.11
-13.3
-14.67
-15.06
-14.54
-13.28
-11.53
-9.51
-7.34
-5.13
-2.92
-0.73
1.44
3.55
5.52
7.1
8.07
8.21
7.49
6.08
4.37
2.77
1.58
0.88
0.48
0.11
-0.55
-1.64
-3.1
-4.77
-6.45
-8.02
-9.39
-10.58
-11.5
-12.06
-12.11
-11.54
-10.46
-9.14
-7.99
-7.39
-7.52
-8.21
-9.06
-9.54
-9.25
-8.03
-6.05
-3.65
-1.22
0.95
2.73
4.09
5.04
5.55
5.56
5.03
4.01
2.6
1.02
-0.51
-1.77
-2.6
-2.9
-2.75
-2.33
-1.93
-1.83
-2.23
-3.04
-4.03
-4.83
-5.23
-5.25
-5.17
-5.4
-6.26
-7.79
-9.72
-11.68
-13.32
-14.5
-15.27
-15.83
-16.35
-16.99
-17.81
-18.83
-20.0
-21.11
-21.83
-21.74
-20.55
-18.21
-14.99
-11.38
-7.92
-4.91
-2.41
-0.28
1.63
3.33
4.64
5.34
5.3
4.67
3.8
3.07
2.72
2.77
3.04
3.34
3.52
3.58
3.55
3.44
3.23
2.91
2.58
2.33
2.28
2.44
2.7
2.86
2.76
2.35
1.66
0.81
-0.09
-0.99
-1.9
-2.89
-4.04
-5.39
-6.92
-8.55
-10.17
-11.7
-13.11
-14.39
-15.5
-16.3
-16.59
-16.2
-15.13
-13.52
-11.62
-9.65
-7.68
-5.59
-3.21
-0.47
2.52
5.43
7.88
9.64
10.69
11.26
11.67
12.15
12.73
13.24
13.38
12.93
11.91
10.53
9.15
8.06
7.32
6.76
6.13
5.21
4.05
2.84
1.79
0.97
0.24
-0.66
-1.93
-3.52
-5.18
-6.63
-7.67
-8.39
-9.01
-9.75
-10.72
-11.86
-13.08
-14.34
-15.72
-17.31
-19.1
-20.91
-22.38
-23.14
-22.93
-21.64
-19.32
-16.14
-12.35
-8.24
-4.22
-0.73
1.86
3.47
4.26
4.66
5.1
5.83
6.86
7.98
8.98
9.76
10.39
10.95
11.52
12.04
12.41
12.57
12.53
12.34
12.03
11.55
10.81
9.8
8.58
7.29
6.11
5.09
4.2
3.33
2.41
1.41
0.35
-0.76
-1.95
-3.27
-4.7
-6.16
-7.51
-8.65
-9.6
-10.51
-11.58
-13.0
-14.86
-17.05
-19.33
-21.37
-22.79
-23.24
-22.52
-20.57
-17.58
-13.91
-10.0
-6.21
-2.76
0.26
2.88
5.1
6.9
8.25
9.15
9.7
10.02
10.25
10.47
10.7
10.92
11.13
11.4
11.86
12.54
13.45
14.43
15.29
15.86
16.01
15.76
15.13
14.21
13.01
11.54
9.82
7.89
5.89
3.93
2.14
0.6
-0.71
-1.85
-2.92
-4.02
-5.21
-6.52
-7.96
-9.56
-11.33
-13.31
-15.53
-17.9
-20.16
-21.96
-22.87
-22.61
-21.13
-18.64
-15.5
-12.09
-8.65
-5.26
-1.91
1.39
4.51
7.22
9.3
10.65
11.38
11.75
12.06
12.53
13.24
14.07
14.86
15.45
15.75
15.79
15.65
15.46
15.31
15.27
15.34
15.45
15.47
15.26
14.69
13.76
12.56
11.19
9.78
8.37
6.93
5.43
3.83
2.16
0.5
-1.1
-2.58
-3.93
-5.2
-6.5
-7.97
-9.78
-11.97
-14.5
-17.18
-19.74
-21.89
-23.39
-24.04
-23.67
-22.2
-19.62
-16.06
-11.79
-7.18
-2.61
1.62
5.32
8.39
10.81
12.61
13.86
14.7
15.33
15.95
16.69
17.58
18.5
19.28
19.79
19.95
19.82
19.52
19.14
18.73
18.25
17.65
16.92
16.14
15.43
14.87
14.45
14.06
13.61
13.06
12.46
11.94
11.52
11.07
10.37
9.16
7.31
4.95
2.35
-0.12
-2.21
-3.85
-5.17
-6.38
-7.73
-9.41
-11.52
-14.05
-16.91
-19.95
-22.93
-25.53
-27.4
-28.22
-27.76
-25.94
-22.92
-19.01
-14.63
-10.19
-5.97
-2.15
1.21
4.04
6.28
7.84
8.71
9.04
9.06
9.08
9.28
9.73
10.34
10.97
11.51
11.91
12.19
12.35
12.42
12.41
12.39
12.46
12.68
13.1
13.61
14.04
14.17
13.82
12.89
11.39
9.41
7.13
4.78
2.6
0.77
-0.66
-1.75
-2.7
-3.72
-4.95
-6.4
-7.93
-9.35
-10.55
-11.57
-12.58
-13.88
-15.7
-18.13
-21.01
-23.94
-26.37
-27.76
-27.76
-26.28
-23.51
-19.83
-15.63
-11.29
-7.07
-3.14
0.37
3.39
5.89
7.87
9.38
10.5
11.31
11.91
12.35
12.7
12.98
13.21
13.4
13.6
13.86
14.2
14.62
14.97
15.07
14.71
13.75
12.15
10.11
7.88
5.79
4.13
3.02
2.46
2.32
2.34
2.25
1.86
1.06
-0.13
-1.61
-3.23
-4.86
-6.44
-7.92
-9.33
-10.72
-12.15
-13.72
-15.5
-17.57
-19.9
-22.27
-24.3
-25.43
-25.13
-23.11
-19.51
-14.88
-9.98
-5.52
-1.92
0.8
2.88
4.6
6.13
7.46
8.46
8.97
8.94
8.45
7.68
6.86
6.16
5.75
5.64
5.8
6.13
6.45
6.6
6.41
5.74
4.59
3.13
1.8
1.19
1.95
4.46
8.72
14.16
19.88
24.86
28.29
29.77
29.34
27.35
24.28
20.57
16.56
12.5
8.62
5.1
2.01
-0.79
-3.66
-7.03
-11.19
-16.08
-21.19
-25.69
-28.77
-29.9
-29.02
-26.45
-22.75
-18.4
-13.71
-8.85
-3.95
0.8
5.16
8.87
11.73
13.69
14.83
15.28
15.18
14.66
13.84
12.87
11.93
11.14
10.58
10.22
9.95
9.63
9.22
8.77
8.38
8.2
8.25
8.4
8.5
8.36
7.93
7.26
6.43
5.52
4.54
3.43
2.17
0.79
-0.64
-2.0
-3.24
-4.39
-5.52
-6.67
-7.84
-9.01
-10.24
-11.69
-13.53
-15.87
-18.57
-21.2
-23.17
-23.91
-23.08
-20.72
-17.25
-13.23
-9.18
-5.42
-2.04
1.01
3.76
6.18
8.14
9.53
10.29
10.51
10.33
9.95
9.51
9.1
8.75
8.49
8.35
8.31
8.32
8.27
8.02
7.42
6.43
5.09
3.52
1.9
0.41
-0.87
-1.97
-2.96
-3.94
-4.98
-6.09
-7.22
-8.31
-9.31
-10.17
-10.86
-11.41
-11.93
-12.59
-13.59
-15.05
-16.92
-18.91
-20.58
-21.43
-21.09
-19.45
-16.66
-13.11
-9.28
-5.6
-2.37
0.32
2.5
4.32
5.88
7.19
8.21
8.87
9.13
9.03
8.7
8.27
7.88
7.6
7.51
7.66
8.11
8.86
9.87
11.0
12.01
12.66
12.72
12.1
10.83
9.05
6.92
4.58
2.08
-0.55
-3.31
-6.12
-8.84
-11.31
-13.41
-15.16
-16.67
-18.16
-19.82
-21.76
-23.93
-26.16
-28.15
-29.57
-30.11
-29.47
-27.45
-24.0
-19.29
-13.7
-7.77
-2.06
3.0
7.24
10.72
13.61
16.04
18.05
19.57
20.49
20.82
20.7
20.3
19.77
19.21
18.61
17.95
17.26
16.64
16.22
16.08
16.18
16.37
16.5
16.44
16.16
15.75
15.27
14.78
14.22
13.4
12.14
10.31
7.89
5.04
2.03
-0.9
-3.6
-6.02
-8.2
-10.26
-12.25
-14.25
-16.35
-18.62
-21.12
-23.8
-26.4
-28.5
-29.64
-29.44
-27.8
-24.92
-21.18
-17.04
-12.84
-8.75
-4.83
-1.13
2.25
5.16
7.43
8.98
9.85
10.17
10.18
10.05
9.96
10.01
10.28
10.78
11.5
12.36
13.25
14.03
14.57
14.74
14.5
13.85
12.85
11.65
10.43
9.35
8.48
7.72
6.89
5.74
4.16
2.18
0.05
-1.97
-3.68
-5.06
-6.32
-7.75
-9.59
-11.92
-14.69
-17.67
-20.61
-23.21
-25.16
-26.19
-26.12
-24.86
-22.47
-19.12
-14.99
-10.34
-5.45
-0.65
3.71
7.32
10.02
11.81
12.89
13.52
13.92
14.26
14.58
14.91
15.21
15.45
15.55
15.47
15.22
14.87
14.57
14.48
14.64
14.94
15.19
15.17
14.71
13.81
12.54
11.07
9.53
8.02
6.62
5.4
4.36
3.49
2.67
1.66
0.21
-1.84
-4.5
-7.59
-10.88
-14.16
-17.36
-20.44
-23.32
-25.7
-27.14
-27.12
-25.36
-21.9
-17.2
-11.96
-6.89
-2.53
0.83
3.16
4.6
5.38
5.76
6.0
6.3
6.76
7.35
8.0
8.6
9.11
9.6
10.14
10.81
11.55
12.26
12.74
12.86
12.58
12.01
