17.94
18.38
18.8
19.03
18.9
18.25
17.03
15.31
13.24
11.02
8.78
6.57
4.37
2.14
-0.07
-2.18
-4.11
-5.82
-7.34
-8.78
-10.21
-11.73
-13.39
-15.3
-17.56
-20.23
-23.19
-26.05
-28.24
-29.13
-28.33
-25.8
-21.83
-16.9
-11.51
-6.04
-0.68
4.41
9.07
13.05
16.1
18.03
18.82
18.64
17.81
16.72
15.67
14.84
14.24
13.76
13.28
12.73
12.12
11.55
11.06
10.68
10.29
9.76
8.97
7.85
6.44
4.85
3.2
1.56
-0.08
-1.77
-3.57
-5.56
-7.83
-10.41
-13.31
-16.51
-19.83
-22.95
-25.43
-26.83
-26.8
-25.21
-22.18
-17.98
-12.98
-7.58
-2.13
3.02
7.58
11.3
14.03
15.77
16.63
16.79
16.47
15.9
15.26
14.74
14.5
14.62
15.08
15.72
16.31
16.65
16.64
16.32
15.87
15.37
14.82
14.06
12.92
11.32
9.34
7.16
4.95
2.73
0.41
-2.14
-4.99
-8.03
-11.09
-13.96
-16.57
-18.97
-21.3
-23.71
-26.22
-28.64
-30.64
-31.74
-31.56
-29.86
-26.67
-22.26
-17.09
-11.73
-6.7
-2.38
1.01
3.44
5.02
5.93
6.38
6.51
6.49
6.44
6.51
6.88
7.67
8.9
10.44
12.07
13.49
14.51
15.06
15.19
15.02
14.63
14.03
13.2
12.13
10.91
9.66
8.52
7.51
6.51
5.29
3.67
1.6
-0.81
-3.36
-5.91
-8.49
-11.27
-14.47
-18.17
-22.25
-26.3
-29.74
-31.92
-32.35
-30.81
-27.45
-22.68
-17.12
-11.39
-6.0
-1.23
2.77
6.0
8.47
10.18
11.18
11.5
11.28
10.74
10.11
9.64
9.49
9.74
10.36
11.27
12.32
13.4
14.32
14.95
15.16
14.9
14.17
13.07
11.76
10.33
8.92
7.54
6.15
4.66
2.98
1.04
-1.17
-3.57
-6.06
-8.47
-10.66
-12.59
-14.4
-16.39
-18.89
-22.1
-25.94
-29.99
-33.49
-35.58
-35.65
-33.55
-29.67
-24.74
-19.48
-14.36
-9.48
-4.47
1.16
7.68
14.88
21.85
27.49
31.0
32.3
32.23
32.51
35.09
41.46
52.15
66.47
82.91
99.58
114.71
125.7
130.42
128.17
120.3
110.01
100.61
94.18
91.08
90.39
90.81
91.56
92.47
93.38
93.8
92.63
88.81
81.79
71.87
60.01
47.47
35.16
22.89
11.28
-0.31
-12.78
-26.65
-41.8
-57.57
-73.05
-87.5
-100.64
-112.71
-124.69
-137.9
-153.95
-174.58
-200.94
-232.51
-266.31
-296.91
-317.8
-323.72
-312.56
-286.09
-249.28
-208.3
-168.4
-132.77
-102.46
-77.17
-56.13
-38.29
-22.18
-5.89
12.42
33.58
56.4
77.67
93.17
99.51
96.08
86.08
75.66
71.83
79.63
99.99
129.23
160.36
185.58
198.78
197.19
181.36
154.04
118.8
79.06
37.89
-1.78
-36.89
-64.63
-83.21
-92.54
-94.16
-90.29
-82.6
-71.48
-56.57
-38.06
-17.83
0.44
12.61
15.98
10.63
-0.82
-14.5
-27.13
-37.19
-44.84
-50.9
-55.79
-59.04
-59.23
-54.75
-44.46
-28.68
-9.73
7.96
18.87
18.21
4.27
-19.95
-47.36
-69.34
-79.3
-75.61
-62.24
-46.81
-37.04
-37.02
-45.32
-55.8
-60.77
-55.01
-38.58
-17.2
0.24
5.82
-3.82
-26.07
-53.86
-78.76
-93.96
-95.62
-82.35
-54.2
-12.41
39.48
94.74
144.04
178.47
192.99
188.81
172.94
155.19
144.24
144.81
157.01
177.08
199.05
216.25
222.55
213.9
189.58
152.68
109.24
66.29
29.42
1.29
-18.15
-30.84
-39.34
-46.29
-54.14
-64.82
-79.0
-95.58
-111.6
-123.36
-128.18
-125.62
-117.83
-108.42
-100.79
-96.59
-95.25
-94.52
-91.61
-84.48
-72.5
-56.52
-38.41
-20.33
-4.2
8.71
17.96
23.72
26.45
26.62
24.48
20.15
13.87
6.3
-1.58
-8.74
-14.52
-18.92
-22.46
-25.83
-29.42
-33.25
-37.25
-41.67
-47.33
-55.38
-66.66
-80.99
-96.91
-112.21
-124.79
-133.54
-138.67
-141.18
-141.91
-140.86
-137.18
-129.82
-118.31
-103.24
-85.98
-68.12
-51.0
-35.73
-23.65
-16.43
-15.68
-21.76
-32.93
-45.24
-53.89
-55.43
-49.54
-39.36
-30.16
-26.85
-31.79
-43.76
-58.52
-70.35
-73.98
-66.05
-46.01
-16.17
19.03
54.2
84.67
107.96
124.3
136.1
146.61
158.42
172.78
189.62
208.08
226.93
244.69
259.42
268.84
270.85
264.31
249.74
229.41
206.89
186.14
170.54
162.07
160.92
165.48
173.0
180.84
187.64
193.85
201.36
212.16
227.15
245.58
265.31
283.67
298.3
307.56
310.28
305.54
292.38
269.99
237.84
195.73
143.99
84.87
23.8
-30.26
-66.46
-76.02
-56.51
-14.08
37.95
83.37
110.0
114.12
100.72
79.57
59.61
45.14
35.54
27.64
17.57
3.93
-12.32
-29.17
-45.45
-61.96
-80.85
-103.91
-131.22
-162.91
-197.48
-232.57
-265.37
-293.78
-317.57
-338.04
-356.88
-375.06
-395.07
-417.96
-443.33
-468.78
-490.98
-507.89
-519.0
-524.91
-508.96
-459.7
-374.75
-264.74
-147.06
-36.6
57.98
134.02
192.1
234.01
258.45
266.47
259.55
241.54
217.94
192.62
167.32
141.3
112.05
73.99
24.61
-37.59
-111.82
-188.42
-257.3
-308.98
-336.17
-334.59
-305.12
-253.1
-188.46
-122.68
-65.7
-24.35
-0.21
9.66
10.34
5.85
-1.7
-11.85
-23.79
-35.22
-44.03
-48.7
-49.12
-47.19
-44.57
-42.97
-43.38
-45.48
-47.6
-48.55
-47.85
-45.99
-44.21
-43.86
-46.11
-51.39
-59.31
-68.37
-77.26
-85.0
-91.12
-95.54
-98.17
-98.72
-96.28
-92.39
-87.24
-80.84
-73.33
-64.86
-55.69
-46.05
-36.25
-26.69
-17.96
-10.31
-4.11
0.46
3.65
6.11
8.84
12.7
18.12
24.82
32.29
39.74
46.67
53.31
60.63
70.07
82.86
99.45
119.26
141.23
163.92
186.33
208.23
230.28
253.88
281.09
314.49
356.57
408.54
468.52
530.62
585.54
623.1
635.91
622.21
586.6
537.91
485.56
435.96
391.03
349.05
306.95
262.63
215.84
167.8
119.79
72.29
24.71
-24.04
-74.83
-128.04
-183.71
-242.38
-305.24
-373.32
-445.87
-518.88
-585.09
-635.77
-663.98
-667.34
-649.16
-616.84
-578.79
-541.33
-507.27
-476.44
-447.41
-419.19
-391.57
-364.77
-338.45
-311.51
-282.47
-250.44
-215.76
-180.02
-145.59
-114.61
-88.14
-65.81
-46.05
-26.86
-6.59
15.36
38.47
61.45
83.08
102.74
120.78
138.31
156.71
177.21
200.71
227.74
258.28
291.47
325.09
355.53
378.45
390.03
388.46
374.69
352.09
325.16
298.05
273.53
252.88
236.39
223.88
214.9
208.5
203.04
196.33
186.4
172.25
154.38
134.61
115.3
98.48
85.03
74.61
66.04
57.96
49.46
40.36
31.03
22.05
13.79
6.27
-0.71
-7.31
-13.42
-18.71
-22.73
-25.28
-26.5
-26.86
-26.94
-27.21
-27.88
-28.92
-30.11
-31.23
-32.1
-32.53
-32.39
-31.57
-30.03
-27.83
-25.15
-22.18
-19.13
-16.17
-13.52
-11.48
-10.28
-9.98
-10.32
-10.75
-10.61
-9.54
-7.66
-5.59
-4.14
-3.88
-4.74
-6.12
-7.11
-7.02
-5.7
-3.59
-1.44
0.0
0.38
-0.32
-1.83
-3.87
-6.27
-9.03
-12.15
-15.61
-19.21
-22.62
-25.43
-27.27
-27.87
-27.11
-25.07
-22.0
-18.28
-14.36
-10.65
-7.47
-5.0
-3.22
-1.98
-0.98
0.04
1.25
2.61
3.86
4.72
4.97
4.63
3.93
3.22
2.77
2.7
2.98
3.54
4.3
5.23
6.3
7.46
8.65
9.89
11.24
12.78
14.45
16.01
17.09
17.32
16.55
14.95
12.95
11.11
9.93
9.64
10.2
11.23
12.09
12.01
10.27
6.6
1.32
-4.63
-9.87
-13.06
-13.35
-10.65
-5.74
-0.1
4.61
6.9
5.97
1.94
-4.24
-11.07
-17.02
-20.99
-22.73
-22.78
-22.24
-22.37
-24.05
-27.49
-32.04
-36.35
-38.66
-37.47
-32.05
-22.96
-11.92
-1.37
6.3
9.56
8.15
3.07
-3.81
-10.35
-14.79
-16.15
-14.37
-10.19
-4.76
0.88
6.02
10.31
13.51
15.2
14.84
12.04
7.01
0.78
-4.98
-8.59
-8.99
-5.96
-0.09
7.66
16.27
24.76
32.16
37.36
39.3
37.16
30.64
20.05
6.24
-9.63
-26.27
-42.5
-57.3
-69.9
-79.79
-86.61
-90.19
-90.49
-87.69
-82.3
-75.16
-67.31
-59.66
-52.59
-45.91
-39.1
-31.7
-23.57
-14.93
-6.11
2.7
11.39
19.73
27.15
32.77
35.89
36.55
35.67
34.71
34.89
36.67
39.79
43.81
48.71
54.86
62.45
70.94
79.06
85.46
89.56
92.0
94.01
96.34
98.37
98.17
93.53
83.21
67.61
48.3
27.05
4.99
-17.41
-39.68
-60.69
-78.62
-91.43
-97.86
-97.97
-93.09
-85.24
-76.4
-67.87
-60.11
-52.89
-45.67
-38.01
-29.94
-22.09
-15.52
-11.3
-10.07
-11.76
-15.68
-20.84
-26.33
-31.36
-35.22
-37.18
-36.6
-33.23
-27.48
-20.28
-12.75
-5.65
0.84
6.98
13.05
19.09
24.77
29.69
33.52
36.11
37.41
37.32
35.75
32.78
28.79
24.44
20.48
17.46
15.62
14.85
14.77
14.89
14.68
13.75
12.05
10.16
9.26
10.66
15.16
22.42
30.86
38.27
42.79
43.8
42.13
39.52
37.58
36.98
37.04
36.23
32.94
26.37
16.79
5.46
-5.98
-16.09
-24.04
-29.7
-33.46
-35.96
-37.76
-39.29
-40.89
-43.09
-46.73
-52.81
-62.17
-74.94
-90.23
-106.2
-120.55
-131.28
-137.23
-138.29
-135.2
-128.97
-120.46
-110.24
-98.61
-85.94
-72.65
-59.28
-46.31
-34.07
-22.77
-12.51
-3.34
4.78
11.97
18.4
24.14
28.98
32.48
34.21
34.04
32.52
30.76
30.08
31.44
35.05
40.3
46.1
51.41
55.52
58.19
59.35
58.9
56.64
52.35
46.05
38.07
28.98
19.34
9.44
-0.62
-10.78
-20.64
-29.29
-35.42
-37.64
-35.07
-27.68
-16.44
-3.03
10.53
22.5
31.66
37.51
40.09
39.69
36.63
31.19
23.7
14.67
4.91
-4.54
-12.68
-18.81
-22.69
-24.63
-25.12
-24.64
-23.42
-21.47
-18.78
-15.56
-12.32
-9.66
-8.08
-7.76
-8.55
-10.12
-12.19
-14.71
-17.92
-22.14
-27.6
-34.28
-41.78
-49.49
-56.8
-63.26
-68.76
-73.43
-77.48
-80.95
-83.71
-85.51
-86.19
-85.88
-84.97
-83.93
-83.12
-82.66
-82.34
-81.81
-80.65
-78.46
-74.94
-69.98
-63.77
-56.76
-49.59
-42.77
-36.51
-30.59
-24.55
-17.95
-10.56
-2.51
5.74
13.54
20.19
25.11
28.01
29.06
28.94
28.76
29.8
33.07
38.98
47.19
56.74
66.47
75.41
83.06
89.45
94.88
99.75
104.25
108.32
111.53
113.29
113.02
110.44
105.76
99.72
93.42
87.88
83.79
81.23
79.77
78.63
77.12
74.79
71.56
67.55
62.99
58.06
52.95
47.84
42.99
38.65
34.99
32.06
29.68
27.55
25.35
22.89
20.14
17.22
14.25
11.35
8.56
6.03
4.0
2.75
2.45
2.9
3.53
3.55
2.31
-0.32
-3.89
-7.45
-9.97
-10.76
-9.79
-7.58
-5.05
-3.01
-1.95
-1.92
-2.65
-3.83
-5.33
-7.29
-9.97
-13.56
-18.05
-23.22
-28.71
-34.16
-39.21
-43.57
-46.92
-48.96
-49.49
-48.45
-45.88
-41.82
-36.26
-29.13
-20.5
-10.75
-0.6
9.0
17.17
23.43
27.81
30.75
32.86
34.55
35.84
36.33
35.42
32.61
27.81
21.41
14.21
7.12
0.9
-4.04
-7.58
-9.78
-10.68
-10.29
-8.68
-6.08
-2.89
0.34
3.08
4.96
5.85
5.88
5.36
4.79
4.73
5.72
8.12
11.98
16.89
21.98
26.04
27.81
26.36
21.44
13.59
4.0
-5.84
-14.57
-21.25
-25.59
-27.76
-28.29
-27.79
-26.87
-26.09
-25.93
-26.72
-28.58
-31.33
-34.56
-37.75
-40.48
-42.58
-44.24
-45.78
-47.47
-49.25
-50.68
-51.11
-49.96
-47.08
-42.83
-37.89
-33.01
-28.64
-24.81
-21.32
-17.97
-14.75
-11.84
-9.44
-7.54
-5.86
-3.97
-1.55
1.4
4.55
7.41
9.58
10.99
11.84
12.48
13.14
13.9
14.62
15.08
15.13
14.75
14.01
13.04
11.83
10.29
8.29
5.71
2.61
-0.8
-4.23
-7.39
-10.14
-12.48
-14.53
-16.39
-18.07
-19.4
-20.06
-19.72
-18.16
-15.36
-11.54
-7.08
-2.38
2.22
6.52
10.49
14.15
17.6
20.91
24.14
27.27
30.16
32.57
34.24
34.98
34.78
33.79
32.36
30.87
29.64
28.83
28.36
27.92
27.08
25.43
22.78
19.22
15.15
11.0
7.13
3.62
0.39
-2.71
-5.69
-8.43
-10.8
-12.78
-14.58
-16.44
-18.52
-20.72
-22.79
-24.41
-25.47
-26.1
-26.51
-26.81
-26.91
-26.56
-25.51
-23.67
-21.15
-18.12
-14.71
-10.89
-6.6
-1.82
3.22
8.13
12.43
15.72
17.79
18.68
18.64
18.07
17.39
17.0
17.16
17.95
19.23
20.75
22.25
23.63
24.9
26.21
27.6
28.99
30.05
30.42
29.81
28.14
25.6
22.6
19.66
17.36
16.28
16.89
19.4
23.5
28.15
31.7
32.32
28.6
20.04
7.31
-7.99
-23.84
-38.33
-50.01
-58.04
-62.05
-62.18
-58.92
-53.16
-46.01
-38.55
-31.66
-25.77
-20.92
-16.75
-12.65
-7.96
-2.09
5.18
13.57
22.31
30.32
36.58
40.51
42.1
41.84
40.36
38.11
35.23
31.57
26.97
21.41
15.21
8.89
2.96
-2.25
-6.81
-11.03
-15.32
-19.88
-24.65
-29.29
-33.44
-36.93
-39.8
-42.22
-44.33
-46.07
-47.26
-47.74
-47.59
-47.05
-46.4
-45.77
-45.04
-44.01
-42.55
-40.76
-38.9
-37.2
-35.66
-33.98
-31.69
-28.4
-24.04
-18.9
-13.48
-8.3
-3.63
0.59
4.62
8.79
13.18
17.57
21.44
24.24
25.7
26.04
25.92
26.22
27.7
30.69
35.05
40.26
45.74
50.98
55.71
59.78
63.08
65.48
66.69
66.4
64.3
60.17
53.99
45.98
36.61
26.51
16.37
6.77
-1.91
-9.58
-16.43
-22.79
-29.08
-35.61
-42.42
-49.29
-55.7
-60.93
-64.25
-65.09
-63.21
-58.78
-52.35
-44.78
-37.05
-30.11
-24.7
-21.22
-19.67
-19.64
-20.45
-21.28
-21.37
-20.2
-17.51
-13.39
-8.21
-2.54
2.87
7.28
10.04
10.84
9.81
7.51
4.8
2.44
0.85
0.05
-0.24
-0.32
-0.32
-0.15
0.37
1.33
2.51
3.59
4.22
4.27
3.89
3.35
2.87
2.45
1.9
0.96
-0.51
-2.42
-4.46
-6.22
-7.32
-7.55
-6.92
-5.55
-3.71
-1.69
0.18
1.64
2.57
3.0
3.2
3.44
3.88
4.46
4.83
4.59
3.47
1.53
-0.88
-3.28
-5.31
-6.91
-8.27
-9.62
-11.09
-12.57
-13.8
-14.49
-14.46
-13.59
-11.85
-9.2
-5.73
-1.69
2.58
6.68
10.38
13.67
16.7
19.55
22.04
23.75
24.1
22.71
19.65
15.43
10.91
6.94
4.15
2.85
3.11
4.86
8.02
12.42
17.85
23.95
30.37
36.74
42.78
48.31
53.1
56.84
59.15
59.64
58.01
54.23
48.49
41.24
33.06
24.57
16.32
8.71
1.97
-3.77
-8.48
-12.15
-14.82
-16.62
-17.77
-18.56
-19.23
-19.91
-20.57
-21.08
-21.36
-21.36
-21.1
-20.65
-20.08
-19.49
-19.05
-18.93
-19.28
-20.12
-21.32
-22.66
-23.97
-25.17
-26.22
-27.11
-27.68
-27.64
-26.63
-24.42
-20.97
-16.53
-11.55
-6.56
-2.02
1.74
4.47
6.0
6.2
5.03
2.71
-0.3
-3.25
-5.38
-6.11
-5.23
-3.01
-0.0
3.16
5.94
7.94
8.9
8.66
7.26
5.01
2.54
0.74
0.44
2.1
5.59
10.21
14.89
18.61
20.58
20.51
18.6
15.47
11.98
8.95
6.96
6.11
6.0
5.8
4.58
1.61
-3.33
-9.92
-17.25
-24.2
-29.64
-32.8
-33.39
-31.65
-28.2
-23.86
-19.33
-15.11
-11.43
-8.34
-5.82
-3.8
-2.24
-1.07
-0.27
0.2
0.38
0.34
0.21
0.16
0.33
0.73
1.24
1.62
1.68
1.38
0.88
0.45
0.29
0.42
0.62
0.59
0.06
-1.11
-2.87
-4.99
-6.98
-8.09
-7.37
-4.03
2.2
10.69
19.91
27.86
32.69
33.35
29.9
23.49
15.88
8.86
3.84
1.58
2.17
5.18
9.86
15.29
20.55
24.83
27.44
27.94
26.17
22.46
17.61
12.7
8.77
6.42
5.56
5.52
5.33
4.24
2.0
-1.05
-4.24
-6.92
-8.78
-9.93
-10.72
-11.51
-12.44
-13.36
-13.97
-14.04
-13.57
-12.88
-12.43
-12.62
-13.64
-15.39
-17.55
-19.77
-21.78
-23.41
-24.65
-25.56
-26.27
-27.0
-28.06
-29.69
-31.94
-34.48
-36.49
-36.86
-34.59
-29.17
-20.89
-10.75
-0.14
9.64
17.74
23.81
27.87
30.03
30.37
28.99
26.14
22.34
18.32
14.82
12.36
11.11
10.93
11.57
12.76
14.34
16.14
17.96
19.44
20.24
20.08
18.89
16.84
14.23
11.42
8.7
6.34
4.52
3.43
3.15
3.63
4.61
5.73
6.56
6.78
6.17
4.68
2.31
-0.87
-4.75
-9.11
-13.66
-18.04
-21.88
-24.94
-27.09
-28.36
-28.94
-29.06
-28.9
-28.53
-27.8
-26.52
-24.51
-21.75
-18.45
-14.88
-11.23
-7.54
-3.72
0.27
4.31
8.09
11.25
13.55
15.06
16.1
17.1
18.4
20.13
22.27
24.69
27.24
29.78
32.09
33.83
34.55
33.79
31.28
27.06
21.54
15.35
9.21
3.71
-0.88
-4.56
-7.51
-9.98
-12.13
-14.07
-15.81
-17.39
-18.94
-20.65
-22.75
-25.41
-28.66
-32.29
-35.91
-38.99
-40.99
-41.45
