4.21
7.24
10.08
12.86
15.45
17.55
18.83
19.08
18.34
16.89
15.2
13.75
12.9
12.87
13.68
15.26
17.42
19.86
22.12
23.66
23.98
22.83
20.38
17.14
13.88
11.31
9.8
9.33
9.48
9.69
9.45
8.46
6.66
4.15
1.12
-2.16
-5.36
-8.17
-10.32
-11.72
-12.47
-12.95
-13.61
-14.93
-17.18
-20.35
-24.11
-27.85
-30.81
-32.24
-31.62
-28.75
-23.83
-17.45
-10.38
-3.48
2.52
7.15
10.2
11.75
12.12
11.76
11.15
10.68
10.7
11.34
12.61
14.31
16.08
17.54
18.28
18.13
17.16
15.72
14.28
13.28
12.96
13.24
13.83
14.3
14.25
13.46
11.88
9.64
7.0
4.25
1.71
-0.36
-1.82
-2.66
-3.05
-3.28
-3.71
-4.65
-6.33
-8.79
-11.88
-15.29
-18.63
-21.6
-23.98
-25.69
-26.65
-26.78
-25.96
-24.06
-21.1
-17.27
-12.84
-8.16
-3.46
1.16
5.6
9.72
13.23
15.79
17.14
17.24
16.27
14.66
12.82
11.15
9.94
9.34
9.46
10.27
11.64
13.3
14.82
15.76
15.78
14.7
12.66
9.99
7.18
4.68
2.84
1.78
1.37
1.28
1.05
0.23
-1.54
-4.4
-8.2
-12.53
-16.76
-20.27
-22.62
-23.75
-23.99
-23.98
-24.43
-25.88
-28.52
-32.14
-36.17
-39.82
-42.23
-42.66
-40.67
-36.26
-29.84
-22.13
-14.02
-6.29
0.49
5.99
10.1
12.86
14.43
15.11
15.36
15.74
16.72
18.6
21.36
24.61
27.78
30.23
31.51
31.48
30.35
28.64
26.93
25.73
25.33
25.66
26.43
27.2
27.49
26.95
25.37
22.78
19.46
15.82
12.4
9.66
7.86
7.04
6.97
7.34
7.74
7.78
7.16
5.61
3.02
-0.54
-4.81
-9.32
-13.46
-16.64
-18.31
-18.19
-16.23
-12.76
-8.37
-3.82
0.2
3.23
5.18
6.26
6.83
7.18
7.37
7.32
6.89
6.05
4.92
3.71
2.59
1.64
0.87
0.27
-0.06
0.05
0.78
2.2
4.21
6.52
8.72
10.39
11.19
10.92
9.61
7.5
5.02
2.66
0.86
-0.2
-0.6
-0.71
-0.98
-1.83
-3.51
-6.0
-9.06
-12.32
-15.35
-17.85
-19.72
-21.1
-22.31
-23.7
-25.53
-27.85
-30.49
-33.08
-35.16
-36.28
-36.04
-34.18
-30.65
-25.64
-19.57
-13.09
-6.9
-1.68
2.08
4.14
4.52
3.53
1.66
-0.42
-2.05
-2.65
-1.88
0.17
3.11
6.26
8.96
10.75
11.48
11.33
10.63
9.75
8.95
8.36
7.98
7.76
7.57
7.25
6.58
5.33
3.4
0.84
-2.1
-5.03
-7.51
-9.21
-9.99
-9.96
-9.43
-8.87
-8.77
-9.56
-11.45
-14.37
-17.86
-21.17
-23.37
-23.68
-21.61
-17.24
-11.13
-4.19
2.57
8.33
12.63
15.41
16.93
17.57
17.73
17.77
17.87
18.11
18.41
18.6
18.52
18.04
17.23
16.24
15.33
14.73
14.62
15.1
16.21
17.9
20.02
22.27
24.22
25.4
25.45
24.34
22.32
19.91
17.67
16.07
15.39
15.64
16.68
18.19
19.73
20.82
21.01
19.97
17.67
14.43
10.89
7.86
6.01
5.66
6.6
8.23
9.77
10.55
10.24
8.9
6.94
4.94
3.48
2.92
3.26
4.09
4.59
3.81
0.99
-4.09
-11.02
-18.85
-26.48
-33.05
-38.2
-42.01
-44.81
-46.9
-48.4
-49.26
-49.34
-48.61
-47.15
-45.17
-42.89
-40.49
-38.06
-35.6
-33.04
-30.36
-27.6
-24.9
-22.43
-20.36
-18.79
-17.68
-16.93
-16.44
-16.19
-16.24
-16.73
-17.73
-19.24
-21.14
-23.26
-25.36
-27.11
-28.14
-28.01
-26.4
-23.2
-18.59
-13.04
-7.11
-1.31
4.14
9.2
13.92
18.37
22.46
25.96
28.64
30.3
30.91
30.63
29.74
28.58
27.47
26.61
26.05
25.74
25.56
25.47
25.4
25.27
24.94
24.19
22.81
20.73
18.1
15.26
12.58
10.35
8.61
7.21
5.88
4.39
2.64
0.64
-1.52
-3.74
-5.98
-8.27
-10.63
-13.05
-15.43
-17.58
-19.3
-20.38
-20.71
-20.31
-19.27
-17.72
-15.69
-13.19
-10.14
-6.53
-2.46
1.82
5.98
9.67
12.59
14.49
15.27
14.92
13.63
11.78
9.88
8.51
8.06
8.66
10.11
12.02
13.93
15.42
16.23
16.28
15.61
14.4
12.9
11.4
10.14
9.27
8.77
8.45
8.08
7.4
6.23
4.47
2.17
-0.56
-3.49
-6.36
-8.97
-11.22
-13.11
-14.71
-16.02
-16.87
-17.03
-16.22
-14.35
-11.58
-8.27
-4.86
-1.66
1.24
3.94
6.58
9.22
11.75
13.94
15.55
16.47
16.8
16.85
17.01
17.55
18.55
19.86
21.19
22.3
23.05
23.46
23.58
23.35
22.61
21.11
18.67
15.25
11.08
6.59
2.32
-1.2
-3.65
-5.02
-5.68
-6.22
-7.28
-9.23
-12.08
-15.54
-19.19
-22.7
-25.93
-28.95
-31.87
-34.8
-37.67
-40.35
-42.61
-44.16
-44.7
-43.94
-41.72
-38.03
-33.06
-27.18
-20.84
-14.53
-8.69
-3.71
0.11
2.54
3.46
2.99
1.43
-0.71
-2.83
-4.39
-5.11
-5.08
-4.78
-4.9
-6.07
-8.55
-12.15
-16.29
-20.36
-24.01
-27.37
-30.97
-35.49
-41.38
-48.67
-57.02
-65.87
-74.82
-83.69
-92.56
-101.72
-111.57
-122.57
-135.04
-148.82
-163.04
-176.04
-185.71
-190.3
-189.09
-182.78
-173.3
-162.88
-153.07
-144.08
-134.83
-123.68
-109.28
-91.13
-69.61
-45.68
-20.45
5.05
29.88
53.25
74.58
93.78
111.28
127.8
143.85
159.36
173.71
186.13
196.42
205.21
213.59
222.34
231.22
238.85
243.35
243.25
238.3
229.42
218.1
205.56
192.19
177.76
162.0
145.19
128.36
112.76
99.17
87.26
75.69
62.75
47.34
29.72
11.57
-4.7
-17.0
-24.51
-28.02
-29.39
-30.64
-32.97
-36.38
-39.88
-42.25
-42.94
-42.22
-40.93
-39.8
-39.25
-39.64
-42.01
-48.41
-61.22
-81.62
-107.96
-135.48
-157.48
-167.86
-163.51
-145.47
-118.28
-88.14
-60.82
-40.12
-27.52
-22.62
-23.97
-29.73
-37.96
-46.62
-53.41
-55.75
-51.38
-39.41
-21.11
0.06
19.6
34.09
42.86
48.33
54.29
63.53
75.97
88.65
97.58
100.08
96.33
89.06
81.9
77.41
75.81
75.2
72.78
66.36
55.42
41.29
26.54
13.81
4.75
-0.69
-4.05
-7.6
-13.36
-22.33
-34.4
-48.76
-64.24
-79.33
-91.81
-98.75
-97.04
-84.63
-61.83
-31.63
0.9
30.33
52.62
66.07
71.28
70.21
64.95
57.06
47.4
36.66
25.81
16.35
9.9
7.63
9.72
15.16
22.02
28.14
31.8
32.12
29.03
23.19
15.71
8.21
2.61
0.77
3.68
10.91
20.43
29.33
35.09
36.7
35.11
32.54
31.35
32.74
36.24
40.16
42.56
42.31
39.71
36.43
34.88
37.34
45.0
57.35
72.09
85.65
94.23
95.13
87.7
73.57
56.02
38.66
24.11
13.26
5.24
-1.73
-9.36
-18.56
-29.34
-41.16
-53.54
-66.31
-79.51
-92.92
-105.63
-116.05
-122.41
-123.6
-119.7
-112.05
-102.56
-92.89
-83.75
-74.85
-65.47
-55.16
-44.32
-34.08
-25.83
-20.59
-18.62
-19.4
-21.87
-24.75
-26.79
-26.93
-24.54
-19.61
-12.85
-5.56
0.87
5.47
8.13
9.65
11.3
14.25
19.01
25.29
32.26
38.94
44.54
48.53
50.65
51.02
50.17
49.09
48.97
50.64
54.05
58.13
61.16
61.57
58.66
52.83
45.19
36.82
28.29
19.74
11.4
4.17
-0.31
-0.19
5.65
16.98
32.15
48.71
64.3
77.36
87.4
94.78
100.24
104.49
107.99
110.92
113.21
114.71
115.31
115.15
114.82
115.28
117.72
122.98
131.11
141.09
150.92
158.23
161.04
158.4
150.5
138.24
122.57
103.86
81.91
56.36
27.24
-4.58
-37.55
-69.79
-99.72
-126.33
-149.31
-168.72
-184.81
-197.76
-207.67
-214.5
-218.13
-218.26
-214.6
-207.16
-196.51
-183.85
-170.8
-158.82
-148.64
-140.08
-132.23
-124.17
-115.52
-106.79
-99.14
-93.65
-90.59
-89.21
-87.93
-85.07
-79.5
-70.97
-59.96
-47.33
-33.89
-20.28
-6.95
5.63
16.93
26.3
33.11
36.88
37.46
35.19
30.98
26.16
22.1
19.81
19.46
20.38
21.36
21.2
19.17
15.22
9.89
3.95
-1.93
-7.25
-11.69
-15.03
-17.04
-17.58
-16.67
-14.52
-11.47
-7.86
-3.9
0.31
4.67
9.0
12.98
16.22
18.41
19.44
19.41
18.53
17.09
15.34
13.53
11.95
10.87
10.46
10.74
11.49
12.28
12.69
12.42
11.37
9.69
7.63
5.46
3.36
1.37
-0.63
-2.91
-5.8
-9.58
-14.32
-19.75
-25.31
-30.23
-33.87
-35.85
-36.15
-35.08
-32.99
-30.22
-26.95
-23.36
-19.64
-16.05
-12.85
-10.17
-7.93
-5.95
-4.04
-2.19
-0.58
0.47
0.76
0.22
-0.96
-2.4
-3.67
-4.36
-4.25
-3.27
-1.62
0.36
2.23
3.6
4.27
4.29
3.96
3.65
3.7
4.28
5.32
6.58
7.77
8.59
8.81
8.26
6.84
4.54
1.47
-2.11
-5.81
-9.16
-11.73
-13.22
-13.51
-12.72
-11.05
-8.82
-6.36
-3.95
-1.81
-0.09
1.21
2.21
3.02
3.7
4.18
4.27
3.87
3.01
1.99
1.25
1.18
1.95
3.42
5.23
6.99
8.37
9.24
9.62
9.67
9.64
9.83
10.51
11.82
13.66
15.67
17.32
18.13
17.78
16.21
13.63
10.35
6.68
2.87
-1.01
-4.96
-9.02
-13.14
-17.16
-20.74
-23.46
-25.0
-25.2
-24.1
-21.91
-18.85
-15.14
-10.97
-6.57
-2.28
1.51
4.43
6.25
6.99
6.89
6.39
5.97
6.05
6.85
8.28
9.99
11.48
12.29
12.17
11.2
9.73
8.23
7.07
6.41
6.27
6.54
7.23
8.43
10.24
12.6
15.18
17.44
18.74
18.68
17.22
14.75
11.88
9.2
6.95
5.03
3.04
0.59
-2.52
-6.11
-9.68
-12.56
-14.18
-14.21
-12.71
-10.05
-6.71
-3.14
0.39
3.76
6.88
9.58
11.57
12.47
12.07
10.42
7.87
4.96
2.26
0.21
-0.91
-1.0
-0.07
1.78
4.28
7.06
9.59
11.45
12.34
12.3
11.58
10.56
9.5
8.46
7.28
5.79
3.92
1.79
-0.32
-2.2
-3.84
-5.34
-6.86
-8.38
-9.68
-10.48
-10.61
-10.22
-9.76
-9.73
-10.47
-12.01
-14.03
-16.08
-17.7
-18.53
-18.31
-16.88
-14.28
-10.78
-6.9
-3.3
-0.51
1.23
2.11
2.57
3.15
4.22
5.92
8.18
10.87
13.89
17.09
20.31
23.31
25.78
27.46
28.19
27.98
26.95
25.3
23.25
21.06
19.02
17.45
16.57
16.41
16.76
17.23
17.31
16.63
15.05
12.68
9.92
7.37
5.71
5.59
7.39
11.04
15.89
20.75
24.24
25.23
23.29
18.76
12.61
6.0
-0.15
-5.38
-9.66
-13.21
-16.28
-19.08
-21.77
-24.54
-27.52
-30.65
-33.59
-35.82
-36.84
-36.46
-35.0
-33.13
-31.73
-31.44
-32.53
-34.7
-37.19
-38.93
-38.85
-36.15
-30.65
-22.88
-14.04
-5.63
1.03
5.26
7.21
7.71
7.83
8.44
9.93
12.15
14.63
16.87
18.49
19.34
19.5
19.2
18.75
18.46
18.61
19.29
20.39
21.58
22.39
22.47
21.69
20.29
18.76
17.68
17.51
18.4
20.25
22.7
25.29
27.59
29.24
30.06
30.07
29.5
28.66
27.88
27.31
26.88
26.26
24.99
22.71
19.31
15.02
10.33
5.85
2.11
-0.59
-2.19
-2.88
-2.98
-2.83
-2.77
-3.03
-3.75
-4.99
-6.86
-9.48
-13.06
-17.83
-23.96
-31.43
-39.9
-48.74
-57.04
-63.89
-68.51
-70.46
-69.66
-66.43
-61.4
-55.36
-49.2
-43.73
-39.57
-36.95
-35.7
-35.24
-34.82
-33.83
-31.99
-29.41
-26.47
-23.64
-21.2
-19.24
-17.61
-16.11
-14.56
-12.87
-11.08
-9.32
-7.76
-6.54
-5.73
-5.19
-4.63
-3.58
-1.61
1.55
5.87
11.05
16.6
22.04
27.0
31.29
34.85
37.6
39.37
39.92
39.07
36.82
33.45
29.45
25.35
21.46
17.82
14.13
10.08
5.51
0.62
-4.04
-7.79
-10.1
-10.77
-10.0
-8.16
-5.67
-2.76
0.43
3.84
7.32
10.64
13.56
15.92
17.66
18.79
19.31
19.18
18.41
17.08
15.42
13.72
12.31
11.33
10.79
10.51
10.23
9.68
8.6
6.83
4.35
1.24
-2.25
-5.76
-8.92
-11.38
-12.85
-13.17
-12.33
-10.52
-8.17
-5.79
-3.89
-2.77
-2.47
-2.76
-3.36
-4.13
-5.11
-6.56
-8.76
-11.83
-15.62
-19.69
-23.45
-26.28
-27.78
-27.78
-26.41
-23.99
-20.93
-17.56
-14.17
-10.91
-7.82
-4.88
-2.03
0.82
3.65
6.42
9.1
11.74
14.59
17.92
21.9
26.32
30.58
33.89
35.62
35.61
34.26
32.32
30.47
29.01
27.81
26.47
24.67
22.39
19.89
17.56
15.57
13.79
11.85
9.33
6.11
2.4
-1.28
-4.44
-6.81
-8.46
-9.7
-10.84
-12.1
-13.43
-14.67
-15.61
-16.12
-16.08
-15.41
-14.02
-11.91
-9.21
-6.21
-3.19
-0.37
2.17
4.44
6.39
7.86
8.59
8.38
7.24
5.45
3.43
1.6
0.21
-0.64
-0.99
-0.94
-0.53
0.17
1.06
1.99
2.81
3.38
3.65
3.58
3.15
2.34
1.17
-0.3
-1.88
-3.39
-4.72
-5.93
-7.19
-8.67
-10.41
-12.34
-14.28
-16.07
-17.71
-19.34
-21.2
-23.47
-26.16
-29.02
-31.57
-33.23
-33.48
-32.09
-29.14
-25.04
-20.37
-15.66
-11.23
-7.18
-3.5
-0.21
2.6
4.83
6.56
8.03
9.59
11.53
13.89
16.41
18.68
20.31
21.19
21.47
21.44
21.43
21.6
21.95
22.35
22.62
22.52
21.8
20.21
17.6
13.92
9.31
4.05
-1.44
-6.67
-11.15
-14.51
-16.56
-17.41
-17.41
-17.1
-16.98
-17.44
-18.6
-20.32
-22.22
-23.72
-24.18
-23.04
-19.99
-15.19
-9.2
-2.84
3.09
8.14
12.25
15.62
18.52
21.05
23.06
24.38
24.91
24.7
23.96
22.92
21.7
20.32
18.87
17.49
16.49
16.12
16.44
17.26
18.19
18.8
18.79
18.16
17.07
15.8
14.53
13.37
12.35
11.43
10.58
9.67
8.44
6.51
3.52
-0.71
-6.05
-11.98
-17.83
-22.93
-26.8
-29.25
-30.31
-30.14
-28.9
-26.77
-23.92
-20.57
-16.92
-13.19
-9.51
-5.98
-2.69
0.26
2.71
4.52
5.59
5.93
5.64
4.85
3.73
2.48
1.29
0.4
-0.02
0.09
0.66
1.52
2.45
3.34
4.18
5.04
5.96
6.86
7.56
7.82
7.55
6.84
5.91
5.06
4.47
4.15
3.97
3.74
3.35
2.8
2.17
1.49
0.75
-0.2
-1.47
-3.07
-4.78
-6.24
-7.05
-6.92
-5.77
-3.75
-1.13
1.81
4.86
7.86
10.63
12.98
14.62
15.33
14.97
13.53
11.19
8.19
4.84
1.39
-1.93
-4.97
-7.6
-9.73
-11.36
-12.6
-13.61
-14.56
-15.51
-16.34
-16.87
-16.85
-16.17
-14.9
-13.3
-11.7
-10.37
-9.47
-9.0
-8.81
-8.7
-8.43
-7.81
-6.73
-5.19
-3.33
-1.41
0.29
1.5
2.12
2.22
2.06
2.0
2.43
3.6
5.54
8.08
10.89
13.62
15.95
17.59
18.25
17.65
15.59
12.09
7.56
2.75
-1.41
-4.18
-5.3
-5.16
-4.6
-4.56
-5.65
-7.9
-10.78
-13.55
-15.55
-16.52
-16.58
-16.14
-15.56
-15.09
-14.68
-14.19
-13.4
-12.16
-10.34
-7.85
-4.63
-0.66
3.94
8.89
13.8
18.22
21.83
24.41
25.9
26.38
26.01
24.97
23.44
21.51
19.19
16.44
13.23
9.68
6.09
2.9
0.52
-0.86
-1.38
-1.42
-1.47
-1.92
-2.9
-4.32
-5.97
-7.56
-8.91
-9.89
-10.48
-10.74
-10.83
-10.96
-11.33
-12.08
-13.19
-14.49
-15.74
-16.73
-17.4
-17.96
-18.8
-20.35
-22.9
-26.42
-30.52
-34.64
-38.28
-41.3
-44.0
-47.07
-51.36
-57.55
-65.86
-75.88
-86.59
-96.47
-103.86
-107.41
-106.63
-102.13
-95.54
-88.94
-83.96
-80.98
-78.87
-75.55
-68.97
-58.22
-44.0
-28.27
-13.27
-0.53
9.71
18.11
25.55
32.33
38.12
42.47
45.53
48.42
52.79
60.05
70.54
83.44
97.31
110.79
122.95
133.09
140.26
143.13
140.51
132.26
119.78
105.73
92.88
82.86
75.69
70.22
65.3
60.7
57.16
55.58
56.1
57.61
58.15
55.86
49.83
40.41
28.88
16.73
5.17
-5.15
-14.02
-21.33
-27.05
-31.12
-33.69
-35.22
-36.38
-37.92
-40.31
-43.57
-47.13
-49.89
-50.49
-47.5
-39.84
-27.17
-10.29
8.7
26.8
41.05
49.7
52.85
52.44
51.19
51.29
53.56
57.36
61.6
65.63
69.91
75.55
83.47
93.55
104.68
115.35
124.53
132.14
138.81
145.27
151.68
157.3
160.69
160.06
153.68
140.34
119.62
92.14
59.69
24.97
-8.94
-39.54
-65.84
-88.77
-110.79
-134.8
-162.76
-194.47
-227.16
-255.98
-275.5
-281.55
-272.78
-251.12
-221.01
-187.81
-156.22
-129.26
-108.09
-92.48
-81.24
-72.73
-65.17
-57.04
-47.45
-36.31
-24.34
-12.64
-2.08
7.01
14.85
21.79
28.07
33.72
38.73
43.25
47.39
50.93
53.01
52.41
48.04
39.64
28.06
14.97
2.14
-9.21
-18.81
-27.18
-35.18
-43.52
-52.49
-62.02
-71.9
-81.84
-91.4
-99.92
-106.45
-109.85
-109.07
-103.47
-93.05
-78.55
-61.32
-43.04
-25.31
-9.28
4.38
15.25
22.76
25.95
23.64
15.01
0.29
-19.02
-40.51
-61.75
-81.31
-99.09
-115.88
-132.48
-148.98
-164.58
-178.0
-188.0
-193.59
-193.99
-188.52
-176.82
-159.0
-135.79
-108.19
-76.86
-41.75
-2.32
41.56
88.44
134.82
175.82
206.88
225.56
232.55
231.17
225.76
219.84
215.0
211.22
207.97
205.35
204.42
206.56
212.27
220.23
227.48
230.58
227.25
217.44
203.33
188.33
175.55
166.7
161.73
159.26
157.44
154.83
150.85
145.84
140.71
136.38
133.12
130.31
126.69
120.91
112.21
100.77
87.5
73.44
59.19
44.65
29.28
12.69
-4.78
-22.0
-37.35
-49.37
-57.3
-61.28
-62.11
-60.86
-58.42
-55.25
-51.53
-47.29
-42.76
-38.39
-34.81
-32.51
-31.66
-32.1
-33.45
-35.07
-35.94
-34.71
-29.83
-20.12
-5.4
13.14
33.1
51.47
65.51
73.52
75.18
71.27
63.05
51.56
37.39
20.89
2.67
-16.11
-33.93
-49.59
-62.97
-75.24
-88.54
-104.83
-124.8
-147.63
-171.49
-194.65
-216.21
-236.15
-254.56
-270.9
-283.78
-291.49
-292.82
-287.61
-276.58
-260.74
-240.97
-217.72
-191.6
-163.86
-136.82
-113.63
-97.24
-89.27
-89.19
-94.5
-101.76
-107.96
-111.4
-111.61
-108.54
-101.84
-90.82
-75.17
-55.99
-35.93
-18.36
-5.72
1.9
6.8
12.58
22.28
37.25
57.03
80.29
105.81
133.05
161.86
192.01
222.72
252.75
280.83
306.07
328.16
346.97
362.13
372.52
376.0
369.84
351.44
319.15
273.03
215.03
148.34
76.38
2.06
-72.32
-144.21
-210.19
-265.69
-305.73
-326.09
-324.49
-301.14
-258.53
-201.0
-134.07
-64.06
2.25
58.09
97.49
116.35
113.53
91.42
55.6
13.55
-27.33
-61.79
-87.99
-107.51
-123.66
-138.97
-153.53
-164.85
-169.49
-165.48
-153.84
-138.29
-123.5
-112.64
-105.96
-100.87
-93.56
-80.86
-61.58
-36.69
-8.47
20.48
48.06
72.83
93.9
110.74
123.03
130.77
134.18
133.72
129.99
123.57
115.03
104.82
93.49
81.63
69.99
59.5
51.14
45.77
43.76
44.77
47.72
51.1
53.47
53.96
52.48
49.6
46.1
42.46
38.51
33.32
25.45
13.46
-3.6
-25.76
-51.99
-80.39
-108.61
-134.43
-156.16
-172.97
-184.79
-192.25
-196.38
-198.25
-198.7
-198.18
-196.73
-194.16
-190.32
-185.2
-179.0
-171.92
-164.12
-155.73
-146.91
-137.92
-128.83
-119.18
-107.73
-92.76
-72.69
-46.89
-16.17
17.49
51.64
84.32
114.59
142.45
168.27
192.08
213.31
230.91
243.91
251.92
255.38
255.36
253.05
249.24
244.08
237.16
227.9
216.14
202.37
187.66
173.19
159.79
147.8
137.07
127.31
118.38
110.33
103.31
97.27
91.85
86.45
80.4
73.25
64.92
55.67
46.06
36.76
28.44
21.62
16.51
12.96
10.52
8.54
6.46
3.96
1.0
-2.21
-5.37
-8.23
-10.71
-12.89
-15.0
-17.29
-20.02
-23.36
-27.38
-31.95
-36.82
-41.59
-45.83
-49.22
-51.66
-53.24
-54.25
-54.96
-55.52
-55.9
-55.86
-55.08
-53.25
-50.15
-45.75
-40.2
-33.78
-26.91
-19.99
-13.37
-7.22
-1.6
3.49
7.99
11.77
14.59
16.32
16.96
16.76
16.06
15.26
14.6
14.15
13.83
13.54
13.23
12.92
12.72
12.75
13.08
13.65
14.28
14.67
14.51
13.55
11.77
9.3
6.42
3.38
0.26
-3.04
-6.74
-11.05
-16.02
-21.51
-27.2
-32.65
-37.38
-40.91
-42.85
-43.05
-41.66
-39.13
-36.08
-33.06
-30.43
-28.32
-26.69
-25.46
-24.68
-24.38
-24.57
-25.06
-25.52
-25.56
-24.96
-23.75
-22.14
-20.41
-18.8
-17.36
-15.98
-14.51
-12.85
-11.01
-9.08
-7.18
-5.38
-3.73
-2.24
-0.97
0.01
0.62
0.87
0.85
0.75
0.72
0.88
1.2
1.56
1.76
1.59
0.87
-0.48
-2.39
-4.64
-6.86
-8.64
-9.68
-9.87
-9.33
-8.33
-7.17
-6.13
-5.43
-5.22
-5.6
-6.58
-8.06
-9.74
-11.3
-12.41
-12.88
-12.69
-11.97
-10.88
-9.55
-8.11
-6.66
-5.35
-4.33
-3.69
-3.45
-3.47
-3.53
-3.4
-2.99
-2.32
-1.57
-0.97
-0.74
-1.03
-1.86
-3.11
-4.61
-6.12
-7.43
-8.42
-9.03
-9.3
-9.36
-9.36
-9.41
-9.54
-9.6
-9.34
-8.43
-6.59
-3.72
0.06
4.45
9.07
13.55
17.56
20.85
23.16
24.26
23.99
22.29
19.33
15.52
11.45
7.76
4.96
3.26
2.43
1.9
0.89
-1.32
-5.17
-10.73
-17.69
-25.43
-33.18
-40.06
-45.23
-48.06
-48.21
-45.77
-41.26
-35.5
-29.38
-23.63
-18.7
-14.72
-11.52
-8.78
-6.16
-3.38
-0.35
2.83
5.84
8.26
9.72
10.11
9.62
8.79
8.37
9.15
11.7
16.25
22.65
30.38
38.8
47.31
55.44
62.95
69.68
75.34
79.52
81.66
81.31
78.35
73.15
66.51
59.38
52.59
46.57
41.33
36.51
31.59
25.98
19.24
11.27
2.45
-6.35
-13.96
-19.37
-22.15
-22.8
-22.68
-23.72
-27.74
-35.89
-48.17
-63.43
-79.62
-94.48
-106.08
-113.43
-116.51
-116.06
-113.16
-108.78
-103.66
-98.26
-92.94
-87.97
-83.47
-79.32
-75.17
-70.48
-64.81
-57.94
-49.92
-40.96
-31.29
-21.12
-10.64
-0.17
9.78
18.48
25.03
28.52
28.28
24.1
16.46
6.53
-3.94
-13.11
-19.41
-22.05
-21.12
-17.46
-12.34
-6.97
-2.26
1.33
3.66
4.77
4.71
3.62
1.68
-0.81
-3.48
-6.0
-8.15
-9.93
-11.5
-13.16
-15.18
-17.76
-20.95
-24.6
-28.42
-32.02
-35.04
-37.37
-39.12
-40.62
-42.24
-44.18
-46.36
-48.52
-50.26
-51.25
-51.3
-50.38
-48.49
-45.73
-42.17
-37.87
-32.87
-27.2
-20.91
-14.13
-7.18
-0.56
5.14
9.42
12.13
13.54
14.27
15.12
16.77
19.49
22.97
26.21
27.68
25.67
18.85
6.89
-9.12
-26.66
-42.35
-52.86
-55.95
-51.11
-39.61
-23.88
-6.7
9.62
23.61
34.62
42.55
47.55
49.81
49.64
47.56
44.3
40.76
37.73
35.69
34.66
34.15
33.43
31.87
29.27
26.03
22.97
20.98
20.48
21.25
22.53
23.41
23.38
22.49
21.27
20.37
20.17
20.61
21.35
21.97
22.22
22.0
21.4
20.59
19.77
19.16
19.0
19.45
20.56
22.24
24.33
26.68
29.18
31.72
34.15
36.29
37.96
39.09
39.72
39.97
39.95
39.71
39.18
38.3
36.99
35.26
33.15
30.76
28.15
25.39
22.58
19.84
17.27
14.93
12.72
10.47
7.93
4.96
1.65
-1.58
-4.06
-5.11
-4.23
-1.37
3.09
8.42
13.86
18.74
22.64
25.4
26.97
27.42
26.86
25.5
23.63
21.63
19.85
18.52
17.73
17.37
17.26
17.19
17.04
16.78
16.39
15.9
15.28
14.46
13.4
12.12
10.7
9.29
8.0
6.84
5.71
4.49
3.02
1.3
-0.64
-2.63
-4.53
-6.24
-7.77
-9.22
-10.76
-12.48
-14.3
-15.98
-17.11
-17.33
-16.42
-14.44
-11.65
-8.41
-5.07
-1.86
1.03
3.43
5.16
6.05
6.05
5.25
3.85
2.12
0.27
-1.55
-3.26
-4.82
-6.18
-7.24
-7.89
-8.08
-7.88
-7.5
-7.27
-7.56
-8.63
-10.52
-13.0
-15.63
-17.96
-19.63
-20.56
-20.89
-20.93
-21.08
-21.66
-22.92
-24.92
-27.58
-30.61
-33.58
-35.98
-37.29
-37.13
-35.35
-32.06
-27.66
-22.72
-17.85
-13.5
-9.86
-6.82
-4.12
-1.48
1.22
3.91
6.42
8.56
10.22
11.37
12.01
12.19
11.97
11.45
10.79
10.21
9.87
9.79
9.88
9.92
9.71
9.12
8.08
6.57
4.59
2.14
-0.76
-4.06
-7.63
-11.31
-14.94
-18.34
-21.37
-24.0
-26.36
-28.7
-31.41
-34.8
-38.94
-43.52
-47.9
-51.34
-53.25
-53.37
-51.79
-48.81
-44.73
-39.78
-34.15
-28.1
-22.03
-16.34
-11.35
-7.14
-3.6
-0.51
2.3
4.88
7.26
9.53
11.91
14.67
18.03
21.97
26.21
30.31
33.8
36.38
37.97
38.67
38.67
38.15
37.2
35.83
34.06
31.94
29.6
27.21
24.91
22.71
20.52
18.23
15.72
13.02
10.23
7.46
4.73
1.94
-1.05
-4.31
-7.69
-10.77
-12.97
-13.73
-12.73
-10.02
-6.01
-1.28
3.63
8.31
12.57
16.31
19.45
21.91
23.62
24.57
24.87
24.73
24.36
23.93
23.49
23.02
22.47
21.84
21.2
20.62
20.13
19.69
19.16
18.41
17.41
16.26
15.18
14.35
13.78
13.3
12.62
11.46
9.71
7.44
4.87
2.18
-0.49
-3.1
-5.65
-8.1
-10.41
-12.47
-14.21
-15.48
-16.06
-15.64
-13.89
-10.57
-5.67
0.54
7.61
15.0
22.3
29.25
35.72
41.67
47.08
51.92
56.17
59.88
63.13
65.99
68.58
71.0
73.37
75.81
78.38
80.98
83.37
85.12
85.78
85.01
82.67
78.82
73.74
67.74
61.11
54.11
46.87
39.5
32.09
24.67
17.16
9.42
1.29
-7.36
-16.5
-26.0
-35.71
-45.53
-55.43
-65.36
-75.17
-84.6
-93.37
-101.28
-108.36
-114.78
-120.75
-126.28
-131.1
-134.65
-136.2
-135.05
-130.69
-122.88
-111.67
-97.47
-81.0
-63.22
-45.22
-28.12
-12.88
-0.19
9.55
16.28
20.13
21.27
19.81
15.71
8.92
-0.46
-12.07
-25.15
-38.72
-51.64
-62.78
-71.1
-75.78
-76.23
-72.36
-64.58
-53.79
-41.14
-27.68
-14.13
-0.77
12.34
25.18
37.49
48.82
58.63
66.46
72.07
75.4
76.55
75.69
73.03
68.76
63.06
56.08
47.96
38.86
29.05
18.95
9.07
-0.04
-7.93
-14.39
-19.35
-22.87
-25.09
-26.11
-26.12
-25.42
-24.31
-23.16
-22.19
-21.47
-20.94
-20.51
-20.16
-19.96
-20.07
-20.57
-21.39
-22.25
-22.72
-22.33
-20.76
-17.9
-13.9
-9.12
-3.96
1.23
6.19
10.82
15.04
18.79
21.95
24.36
25.9
26.54
26.39
25.67
24.63
23.48
22.38
21.34
20.39
19.44
18.49
17.53
16.54
15.56
14.6
13.7
12.86
12.04
11.16
10.08
8.7
7.02
5.11
3.15
1.32
-0.27
-1.62
-2.82
-3.99
-5.28
-6.79
-8.55
-10.52
-12.59
-14.51
-15.92
-16.42
-15.65
-13.4
-9.7
-4.79
0.89
6.82
12.52
17.6
21.82
25.04
27.26
28.55
29.05
28.94
28.36
27.42
26.21
24.85
23.51
22.38
21.65
21.38
21.49
21.77
21.95
21.88
21.5
20.86
20.03
19.03
17.83
16.44
14.88
13.26
11.65
10.06
8.4
6.56
4.46
2.12
-0.33
-2.72
-4.87
-6.72
-8.31
-9.78
-11.36
-13.26
-15.57
-18.16
-20.62
-22.4
-22.99
-22.08
-19.73
-16.3
-12.3
-8.14
-4.11
-0.35
3.05
5.98
8.26
9.75
10.38
10.27
9.63
8.72
7.78
6.95
6.33
5.95
5.84
5.96
6.27
6.64
6.96
7.15
7.15
7.0
6.75
6.4
5.96
5.41
4.71
3.9
3.06
2.25
1.5
0.74
-0.19
