-11.29
-5.73
2.25
11.5
20.34
27.23
31.47
33.56
34.9
37.03
40.8
46.0
51.62
56.44
59.62
60.87
60.14
57.24
51.72
43.11
31.33
17.13
2.03
-12.03
-23.41
-31.18
-35.36
-36.64
-35.98
-34.17
-31.71
-28.73
-25.27
-21.4
-17.34
-13.43
-10.03
-7.4
-5.7
-4.84
-4.62
-4.67
-4.65
-4.26
-3.46
-2.4
-1.43
-0.89
-1.02
-1.78
-2.88
-3.91
-4.51
-4.55
-4.14
-3.6
-3.31
-3.54
-4.37
-5.64
-7.02
-8.09
-8.5
-8.08
-6.88
-5.31
-3.99
-3.7
-5.0
-7.91
-11.54
-14.11
-13.27
-6.9
6.05
24.99
47.6
70.36
89.44
101.7
105.26
99.82
86.42
67.11
44.54
21.53
0.68
-15.97
-27.37
-33.45
-35.08
-33.6
-30.35
-26.21
-21.41
-15.69
-8.61
-0.12
9.28
18.39
25.81
30.33
31.4
29.25
24.73
18.91
12.65
6.47
0.55
-5.01
-10.05
-14.38
-17.85
-20.58
-22.96
-25.46
-28.45
-31.86
-35.22
-37.78
-38.81
-37.85
-34.96
-30.61
-25.55
-20.45
-15.72
-11.41
-7.34
-3.34
0.6
4.19
7.03
8.76
9.31
8.92
8.07
7.25
6.78
6.77
7.15
7.78
8.55
9.39
10.27
11.14
11.92
12.49
12.82
12.91
12.84
12.69
12.46
12.07
11.32
10.03
8.11
5.61
2.72
-0.24
-3.01
-5.48
-7.76
-10.19
-13.15
-16.94
-21.53
-26.56
-31.36
-35.16
-37.33
-37.61
-36.14
-33.41
-30.01
-26.54
-23.38
-20.75
-18.74
-17.32
-16.45
-16.03
-15.9
-15.83
-15.59
-15.01
-14.03
-12.71
-11.24
-9.78
-8.41
-7.09
-5.66
-3.91
-1.77
0.7
3.2
5.35
6.86
7.63
7.82
7.81
7.97
8.57
9.67
11.07
12.45
13.43
13.71
13.18
11.9
10.06
7.98
5.95
4.21
2.88
1.88
0.95
-0.31
-2.25
-5.01
-8.37
-11.77
-14.51
-15.97
-15.83
-14.17
-11.35
-7.8
-3.94
-0.07
3.54
6.64
9.03
10.57
11.29
11.34
10.94
10.36
9.82
9.48
9.44
9.71
10.11
10.41
10.35
9.73
8.52
6.9
5.08
3.33
1.76
0.34
-1.09
-2.75
-4.78
-7.24
-10.05
-13.09
-16.2
-19.31
-22.46
-25.66
-28.81
-31.66
-33.82
-34.94
-34.89
-33.84
-32.27
-30.77
-29.85
-29.76
-30.46
-31.62
-32.73
-33.22
-32.6
-30.6
-27.22
-22.69
-17.42
-11.79
-6.15
-0.72
4.25
8.49
11.62
13.26
13.11
11.05
7.28
2.42
-2.37
-5.57
-5.56
-1.22
7.56
19.62
32.86
44.94
54.09
59.62
61.93
62.01
60.87
59.17
57.14
54.82
52.29
49.7
47.21
44.81
42.35
39.59
36.31
32.47
28.18
23.7
19.3
15.21
11.59
8.44
5.68
3.18
0.88
-1.21
-3.0
-4.36
-5.21
-5.46
-5.05
-3.92
-2.05
0.47
3.43
6.44
9.14
11.26
12.74
13.64
14.07
14.11
13.78
13.02
11.82
10.21
8.3
6.27
4.39
3.01
2.47
3.07
4.87
7.73
11.28
14.99
18.28
20.64
21.7
21.42
20.14
18.58
17.61
17.98
19.96
23.29
27.29
31.16
34.34
36.64
38.19
39.17
39.51
38.65
35.62
29.32
19.06
5.13
-10.92
-26.43
-38.39
-44.43
-43.7
-37.25
-27.63
-17.92
-10.74
-7.42
-7.95
-11.32
-16.09
-20.93
-24.92
-27.64
-29.11
-29.66
-29.73
-29.72
-29.75
-29.66
-29.11
-27.74
-25.36
-22.03
-17.96
-13.48
-8.93
-4.71
-1.37
0.44
0.1
-2.68
-7.66
-13.99
-20.48
-25.97
-29.77
-31.83
-32.66
-33.02
-33.58
-34.66
-36.3
-38.38
-40.81
-43.59
-46.77
-50.34
-54.13
-57.84
-61.16
-63.76
-65.31
-65.5
-64.07
-60.95
-56.32
-50.62
-44.34
-37.89
-31.49
-25.23
-19.32
-14.13
-10.23
-8.01
-7.48
-8.04
-8.69
-8.36
-6.36
-2.6
2.41
7.78
12.59
16.26
18.65
20.14
21.35
22.89
25.04
27.73
30.56
33.06
34.72
35.05
33.49
29.53
22.91
13.93
3.64
-6.49
-15.03
-21.14
-24.77
-26.4
-26.49
-25.17
-22.18
-17.34
-11.01
-4.13
2.07
6.73
9.79
11.98
14.33
17.61
21.82
26.36
30.4
33.35
35.11
35.95
36.22
36.12
35.71
35.06
34.32
33.74
33.47
33.43
33.3
32.7
31.37
29.32
26.8
24.12
21.47
18.92
16.41
13.83
11.06
7.99
4.47
0.38
-4.28
-9.34
-14.41
-18.97
-22.47
-24.54
-25.03
-24.05
-21.83
-18.61
-14.53
-9.61
-3.96
2.18
8.36
14.07
18.88
22.61
25.31
27.15
28.23
28.55
28.1
26.99
25.47
23.9
22.52
21.35
20.18
18.69
16.69
14.2
11.47
8.77
6.32
4.17
2.26
0.49
-1.17
-2.68
-4.0
-5.16
-6.37
-7.95
-10.24
-13.55
-17.95
-23.21
-28.81
-34.04
-38.18
-40.75
-41.63
-41.04
-39.41
-37.19
-34.78
-32.42
-30.35
-28.8
-27.99
-28.07
-28.95
-30.34
-31.77
-32.75
-32.96
-32.31
-30.91
-28.92
-26.42
-23.38
-19.65
-15.11
-9.82
-4.07
1.65
6.85
11.16
14.41
16.52
17.46
17.17
15.66
13.1
9.87
6.49
3.41
0.9
-1.05
-2.51
-3.44
-3.65
-2.82
-0.77
2.44
6.39
10.57
14.56
18.2
21.53
24.6
27.34
29.43
30.45
30.13
28.56
26.23
23.87
22.1
21.23
21.21
21.75
22.62
23.78
25.31
27.24
29.32
31.04
31.8
31.18
29.1
25.89
22.07
18.11
14.28
10.54
6.73
2.67
-1.7
-6.34
-11.06
-15.69
-20.03
-23.85
-26.8
-28.4
-28.12
-25.63
-21.0
-14.8
-7.98
-1.5
3.94
8.11
11.16
13.37
14.92
15.84
16.15
15.92
15.4
14.9
14.65
14.61
14.6
14.33
13.68
12.69
11.62
10.73
10.23
10.12
10.22
10.23
9.84
8.83
7.12
4.82
2.14
-0.66
-3.43
-6.14
-8.93
-11.98
-15.45
-19.27
-23.2
-26.82
-29.67
-31.36
-31.7
-30.68
-28.44
-25.21
-21.29
-17.07
-12.99
-9.52
-7.02
-5.66
-5.35
-5.81
-6.64
-7.45
-7.93
-7.95
-7.5
-6.73
-5.9
-5.29
-5.07
-5.2
-5.41
-5.27
-4.37
-2.49
0.28
3.58
6.85
9.59
11.43
12.38
12.75
13.11
14.09
16.11
19.21
23.04
26.96
30.22
32.27
32.9
32.28
30.88
29.32
28.19
27.87
28.41
29.47
30.49
30.9
30.35
28.85
26.79
24.66
22.84
21.45
20.35
19.32
18.29
17.4
16.89
16.83
17.0
16.92
16.09
14.36
12.06
9.93
8.65
8.46
8.96
9.3
8.57
6.27
2.5
-2.18
-7.08
-11.7
-15.87
-19.68
-23.24
-26.57
-29.58
-32.09
-34.01
-35.38
-36.34
-37.08
-37.76
-38.4
-38.85
-38.81
-37.87
-35.67
-32.08
-27.26
-21.63
-15.77
-10.12
-4.91
-0.15
4.28
8.43
12.25
15.54
18.15
19.97
21.06
21.55
21.63
21.53
21.47
21.75
22.65
24.35
26.84
29.82
32.79
35.16
36.44
36.36
34.96
32.58
29.69
26.77
24.17
22.02
20.24
18.59
16.81
14.77
12.5
10.19
8.1
6.39
5.08
4.0
2.88
1.45
-0.52
-3.1
-6.16
-9.31
-11.9
-13.07
-12.05
-8.43
-2.33
5.56
14.16
22.43
29.54
35.02
38.66
40.33
39.89
37.2
32.23
25.19
16.46
6.53
-4.1
-15.07
-26.05
-36.77
-46.87
-55.92
-63.44
-69.0
-72.23
-72.96
-71.24
-67.43
-62.18
-56.32
-50.68
-45.84
-42.0
-38.95
-36.37
-33.96
-31.73
-29.89
-28.68
-28.16
-28.16
-28.37
-28.61
-28.95
-29.67
-30.98
-32.77
-34.53
-35.42
-34.68
-31.88
-27.05
-20.58
-13.04
-4.97
3.19
11.08
18.38
24.74
29.89
33.67
36.13
37.5
38.11
38.35
38.52
38.8
39.19
39.64
40.02
40.3
40.48
40.56
40.57
40.47
40.17
39.59
38.64
37.29
35.53
33.25
30.23
26.21
21.03
14.84
8.15
1.69
-3.81
-7.92
-10.64
-12.33
-13.49
-14.49
-15.43
-16.21
-16.7
-16.91
-17.03
-17.33
-17.96
-18.91
-19.99
-20.9
-21.37
-21.22
-20.37
-18.78
-16.44
-13.35
-9.57
-5.25
-0.67
3.83
7.94
11.43
14.19
16.19
17.46
18.09
18.18
17.9
17.41
16.87
16.34
15.79
15.12
14.27
13.24
12.09
10.91
9.76
8.63
7.5
6.38
5.35
4.5
3.92
3.65
3.61
3.68
3.75
3.74
3.61
3.38
3.08
2.75
2.37
1.9
1.32
0.74
0.45
0.91
2.7
6.26
11.75
18.88
26.94
34.85
41.45
45.78
47.29
46.05
42.71
38.25
33.7
29.79
26.8
24.53
22.5
20.15
17.09
13.19
8.55
3.48
-1.65
-6.49
-10.81
-14.5
-17.63
-20.31
-22.68
-24.84
-26.84
-28.71
-30.52
-32.37
-34.37
-36.58
-38.96
-41.33
-43.45
-45.09
-46.13
-46.63
-46.79
-46.92
-47.33
-48.2
-49.51
-51.01
-52.3
-52.92
-52.49
-50.8
-47.87
-43.82
-38.84
-33.06
-26.56
-19.48
-12.08
-4.81
1.79
7.24
11.36
14.25
16.28
17.87
19.36
20.94
22.63
24.41
26.23
28.0
29.49
30.39
30.4
29.34
27.34
24.73
21.91
19.11
16.36
13.46
10.18
6.4
2.19
-2.21
-6.51
-10.51
-14.12
-17.41
-20.51
-23.53
-26.58
-29.72
-33.05
-36.71
-40.85
-45.45
-50.26
-54.72
-58.11
-59.74
-59.17
-56.34
-51.54
-45.24
-37.96
-30.23
-22.51
-15.31
-9.06
-4.03
-0.23
2.58
4.79
6.74
8.6
10.42
12.13
13.69
15.02
16.06
16.67
16.69
16.1
15.08
14.02
13.33
13.2
13.51
13.8
13.53
12.38
10.38
7.88
5.33
3.06
1.21
-0.22
-1.18
-1.47
-0.85
0.69
2.75
4.34
4.3
1.82
-3.0
-8.94
-13.99
-16.14
-14.16
-8.04
1.11
11.78
22.66
33.11
43.03
52.43
61.13
68.74
74.88
79.61
83.42
86.96
90.53
93.82
95.97
96.17
94.17
90.54
86.4
82.68
79.59
76.4
71.84
64.79
54.86
42.48
28.6
14.14
-0.33
-14.58
-28.38
-41.22
-52.3
-60.83
-66.39
-69.24
-70.2
-70.3
-70.35
-70.68
-71.14
-71.42
-71.34
-71.06
-70.97
-71.5
-72.75
-74.38
-75.62
-75.54
-73.43
-69.06
-62.75
-55.25
-47.37
-39.72
-32.57
-25.91
-19.63
-13.66
-8.06
-2.99
1.42
5.1
8.05
10.31
11.89
12.79
13.07
12.88
12.53
12.41
12.91
14.27
16.45
19.12
21.68
23.53
24.18
23.44
21.38
18.14
13.89
8.68
2.61
-4.07
-10.94
-17.49
-23.3
-28.23
-32.35
-35.81
-38.64
-40.65
-41.47
-40.74
-38.36
-34.5
-29.56
-23.98
-17.99
-11.62
-4.8
2.46
9.85
16.78
22.57
26.69
29.09
30.13
30.44
30.55
30.63
30.46
29.69
28.08
25.63
22.51
18.88
14.7
9.79
3.99
-2.63
-9.71
-16.75
-23.29
-29.07
-33.98
-37.91
-40.58
-41.52
-40.25
-36.5
-30.5
-22.88
-14.6
-6.59
0.38
5.96
10.09
12.97
14.87
16.03
16.54
16.38
15.41
13.59
11.03
8.22
5.88
4.81
5.59
8.32
12.65
17.95
23.58
29.22
34.9
40.86
47.33
54.34
61.62
68.69
75.07
80.41
84.49
87.25
88.64
88.64
87.26
84.56
80.63
75.53
69.23
61.58
52.42
41.7
29.59
16.58
3.34
-9.43
-21.19
-31.71
-41.1
-49.63
-57.63
-65.21
-72.25
-78.31
-82.86
-85.47
-86.02
-84.8
-82.44
-79.73
-77.32
-75.59
-74.48
-73.6
-72.29
-69.88
-65.82
-59.84
-52.04
-42.86
-32.98
-23.13
-13.97
-5.87
1.07
6.96
12.01
16.38
20.09
23.1
25.3
26.61
27.02
26.64
25.65
24.31
22.87
21.53
20.42
19.63
19.18
19.11
19.46
20.21
21.26
22.38
23.27
23.69
23.55
23.0
22.32
21.79
21.52
21.4
21.13
20.47
19.26
17.54
15.43
13.01
10.21
6.93
3.08
-1.24
-5.79
-10.24
-14.23
-17.52
-19.94
-21.38
-21.74
-20.98
-19.17
-16.51
-13.33
-10.04
-7.04
-4.66
-3.11
-2.43
-2.43
-2.75
-2.99
-2.84
-2.2
-1.26
-0.27
0.55
1.17
1.74
2.49
3.61
5.22
7.31
9.81
12.57
15.3
17.62
19.04
19.19
17.87
15.2
11.53
7.31
2.92
-1.32
-5.21
-8.58
-11.32
-13.34
-14.71
-15.58
-16.16
-16.63
-17.04
-17.35
-17.45
-17.28
-16.88
-16.38
-15.91
-15.52
-15.14
-14.55
-13.48
-11.67
-8.93
-5.18
-0.46
5.18
11.58
18.53
25.69
32.64
38.89
44.04
47.84
50.29
51.61
52.07
51.89
51.16
49.79
47.58
44.37
40.07
34.67
28.27
21.01
13.05
4.63
-3.93
-12.22
-19.76
-26.09
-30.91
-34.14
-35.96
-36.74
-36.87
-36.7
-36.39
-35.97
-35.36
-34.44
-33.06
-31.09
-28.5
-25.39
-22.13
-19.29
-17.4
-16.82
-17.39
-18.51
-19.31
-18.96
-16.95
-13.23
-8.14
-2.16
4.27
10.83
17.31
23.55
29.31
34.3
38.22
40.8
41.97
41.9
40.99
39.84
38.97
38.61
38.51
38.06
36.54
33.5
28.96
23.47
17.8
12.6
8.12
4.19
0.46
-3.36
-7.3
-11.15
-14.59
-17.43
-19.72
-21.71
-23.71
-25.96
-28.48
-31.11
-33.62
-35.88
-37.95
-40.04
-42.4
-45.09
-47.85
-50.18
-51.43
-51.07
-48.88
-44.94
-39.64
-33.44
-26.87
-20.35
-14.25
-8.89
-4.42
-0.83
2.15
4.93
7.96
11.53
15.71
20.24
24.74
28.84
32.33
35.29
37.96
40.64
43.54
46.72
50.07
53.43
56.71
59.87
62.9
65.76
68.29
70.16
70.97
70.31
67.86
63.37
56.7
47.86
37.16
25.22
12.89
0.99
-10.07
-20.55
-31.24
-43.13
-56.84
-72.23
-88.3
-103.44
-115.97
-124.7
-129.15
-129.55
-126.55
-120.83
-112.78
-102.51
-89.93
-75.06
-58.22
-40.13
-21.75
-4.05
12.22
26.7
39.39
50.51
60.33
69.0
76.52
82.8
87.77
91.5
94.13
95.79
96.43
95.73
93.26
88.74
82.27
74.38
65.83
57.39
49.56
42.61
36.72
32.05
28.76
26.87
26.08
25.83
25.5
24.61
22.96
20.42
16.72
11.2
2.92
-9.02
-25.15
-45.21
-68.21
-92.53
-116.42
-138.36
-157.29
-172.66
-184.18
-191.49
-193.97
-190.67
-180.71
-163.68
-140.14
-111.73
-80.95
-50.71
-23.59
-1.38
15.31
27.0
35.05
41.12
46.71
52.7
59.26
66.0
72.32
77.65
81.68
84.28
85.37
84.73
82.02
76.85
69.08
58.87
46.84
33.91
21.04
9.02
-1.77
-11.37
-20.02
-27.93
-34.97
-40.7
-44.52
-46.0
-45.07
-42.13
-37.87
-33.01
-28.03
-23.08
-18.05
-12.66
-6.66
0.07
7.44
15.17
22.86
30.12
36.65
42.32
47.13
51.15
54.39
56.7
57.94
57.97
56.88
54.95
52.59
50.2
48.0
45.99
43.94
41.57
38.65
35.09
30.94
26.41
21.7
17.04
12.6
8.5
4.78
1.36
-1.94
-5.34
-9.01
-12.97
-17.09
-21.16
-25.02
-28.6
-31.99
-35.23
-38.28
-40.82
-42.37
-42.37
-40.48
-36.68
-31.34
-25.05
-18.42
-11.88
-5.6
0.44
6.24
11.76
16.72
20.78
23.58
24.95
24.93
23.85
22.17
20.37
18.74
17.36
16.16
14.97
13.66
12.18
10.52
8.63
6.43
3.84
0.87
-2.35
-5.61
-8.72
-11.67
-14.56
-17.54
-20.58
-23.4
-25.54
-26.54
-26.23
-24.85
-23.01
-21.53
-21.09
-22.04
-24.31
-27.44
-30.81
-33.75
-35.73
-36.44
-35.88
-34.36
-32.39
-30.58
-29.46
-29.31
-30.19
-31.87
-33.94
-35.91
-37.28
-37.73
-37.14
-35.65
-33.56
-31.2
-28.75
-26.14
-23.11
-19.38
-14.77
-9.35
-3.3
3.11
9.7
16.36
23.01
29.59
35.97
42.08
47.81
53.11
57.85
61.81
64.67
66.05
65.67
63.44
59.54
54.38
48.52
42.55
36.97
31.98
27.54
23.41
19.31
15.06
10.76
6.72
3.35
0.95
-0.43
-1.0
-1.0
-0.59
0.31
1.9
4.35
7.55
11.07
14.22
16.33
16.96
16.04
13.85
10.92
7.78
4.87
2.44
0.62
-0.54
-1.01
-0.81
-0.09
0.88
1.74
2.28
2.47
2.63
3.12
4.16
5.59
6.93
7.6
7.21
5.75
3.56
1.04
-1.61
-4.49
-7.9
-12.0
-16.68
-21.53
-25.98
-29.59
-32.17
-33.79
-34.65
-34.89
-34.57
-33.72
-32.35
-30.52
-28.31
-25.77
-22.9
-19.68
-16.13
-12.34
-8.43
-4.52
-0.69
2.97
6.31
9.03
10.76
11.19
10.19
8.0
5.16
2.41
0.44
-0.31
0.24
1.82
3.91
6.02
7.81
9.2
10.29
11.24
12.12
12.88
13.39
13.6
13.63
13.76
14.29
15.35
16.77
18.11
18.82
18.49
16.98
14.48
11.42
8.32
5.72
4.04
3.58
4.45
6.53
9.5
12.84
16.0
18.47
19.95
20.34
19.75
18.31
16.1
13.09
9.17
4.29
-1.38
-7.4
