45.11
47.72
50.17
52.24
53.79
54.7
54.86
54.16
52.49
49.83
46.19
41.73
36.68
31.33
25.92
20.6
15.44
10.43
5.55
0.84
-3.65
-7.92
-12.07
-16.27
-20.69
-25.31
-29.85
-33.76
-36.34
-37.05
-35.7
-32.51
-28.04
-22.94
-17.78
-12.87
-8.38
-4.36
-0.84
2.1
4.41
6.05
7.09
7.65
7.94
8.11
8.31
8.62
9.05
9.51
9.91
10.12
10.08
9.77
9.24
8.56
7.81
7.09
6.49
6.08
5.92
5.96
6.03
5.85
5.17
3.87
2.02
-0.12
-2.29
-4.44
-6.78
-9.77
-13.84
-19.15
-25.46
-32.19
-38.61
-44.06
-48.1
-50.49
-51.17
-50.26
-47.99
-44.73
-40.96
-37.08
-33.39
-29.91
-26.5
-22.95
-19.08
-14.85
-10.32
-5.66
-1.11
3.05
6.51
9.0
10.35
10.59
9.97
8.9
7.85
7.19
7.08
7.48
8.22
9.12
10.08
11.11
12.28
13.63
15.15
16.77
18.39
19.98
21.53
23.05
24.48
25.67
26.36
26.23
25.09
22.83
19.55
15.47
10.91
6.23
1.76
-2.22
-5.51
-8.06
-9.96
-11.39
-12.59
-13.73
-14.89
-16.05
-17.12
-18.04
-18.75
-19.29
-19.7
-20.02
-20.26
-20.38
-20.33
-20.03
-19.4
-18.39
-16.94
-15.02
-12.69
-10.09
-7.42
-4.87
-2.57
-0.5
1.49
3.65
6.18
9.11
12.3
15.49
18.42
21.01
23.27
25.32
27.18
28.8
30.04
30.78
31.03
30.9
30.54
30.0
29.2
27.94
26.0
23.26
19.74
15.67
11.45
7.62
4.72
3.07
2.7
3.29
4.32
5.27
5.83
5.97
5.88
5.77
5.77
5.83
5.78
5.39
4.52
3.19
1.62
0.23
-0.48
-0.11
1.49
4.13
7.32
10.54
13.32
15.43
16.78
17.38
17.25
16.44
15.11
13.49
11.84
10.32
8.87
7.25
5.12
2.28
-1.22
-5.03
-8.73
-12.05
-15.07
-18.26
-22.22
-27.39
-33.78
-40.89
-47.89
-53.82
-57.99
-60.03
-59.92
-57.8
-53.88
-48.34
-41.45
-33.56
-25.19
-16.96
-9.45
-2.99
2.37
6.92
11.09
15.27
19.59
23.87
27.76
30.83
32.77
33.49
33.06
31.76
29.94
27.96
26.14
24.71
23.77
23.29
23.13
23.06
22.77
21.91
20.08
16.84
11.76
4.67
-4.21
-14.15
-24.02
-32.68
-39.33
-43.74
-46.32
-47.76
-48.68
-49.28
-49.41
-48.68
-46.87
-44.1
-40.77
-37.39
-34.39
-31.91
-29.84
-27.86
-25.58
-22.57
-18.53
-13.38
-7.27
-0.55
6.38
13.17
19.55
25.33
30.31
34.32
37.24
39.02
39.73
39.47
38.32
36.36
33.69
30.47
26.89
23.2
19.54
15.98
12.54
9.26
6.3
3.85
2.06
0.87
0.06
-0.7
-1.7
-3.08
-4.77
-6.61
-8.37
-9.92
-11.17
-12.13
-12.82
-13.28
-13.54
-13.64
-13.67
-13.77
-14.14
-15.0
-16.54
-18.72
-21.28
-23.63
-25.0
-24.66
-22.23
-17.81
-12.02
-5.81
-0.09
4.48
7.6
9.24
9.57
8.81
7.24
5.21
3.11
1.34
0.18
-0.31
-0.26
0.07
0.46
0.76
0.95
1.05
1.07
0.97
0.63
-0.1
-1.33
-3.03
-5.0
-6.84
-8.09
-8.41
-7.76
-6.44
-4.99
-4.06
-4.2
-5.67
-8.43
-11.99
-15.56
-18.16
-18.98
-17.68
-14.55
-10.44
-6.33
-2.91
-0.28
1.99
4.5
7.59
11.16
14.75
17.87
20.32
22.22
23.92
25.64
27.32
28.63
29.19
28.77
27.42
25.43
23.16
20.85
18.64
16.59
14.88
13.91
14.16
16.04
19.59
24.49
30.04
35.53
40.49
44.91
49.12
53.57
58.48
63.64
68.41
71.86
73.02
71.11
65.78
57.09
45.53
31.88
17.11
2.18
-12.1
-25.09
-36.31
-45.36
-51.91
-55.84
-57.36
-57.03
-55.65
-53.92
-52.12
-50.08
-47.31
-43.31
-37.93
-31.46
-24.58
-18.09
-12.67
-8.69
-6.19
-4.9
-4.33
-3.9
-3.18
-1.99
-0.43
1.27
2.88
4.36
5.8
7.3
8.92
10.6
12.23
13.66
14.7
15.14
14.7
13.14
10.45
6.93
3.23
0.07
-1.96
-2.73
-2.53
-1.96
-1.59
-1.74
-2.51
-3.78
-5.47
-7.47
-9.66
-11.75
-13.31
-13.8
-12.8
-10.25
-6.51
-2.27
1.76
5.09
7.65
9.75
11.8
14.05
16.44
18.6
20.1
20.66
20.3
19.34
18.25
17.48
17.35
18.01
19.48
21.62
24.18
26.83
29.25
31.34
33.23
35.27
37.85
41.19
45.22
49.57
53.76
57.37
60.26
62.48
64.32
66.16
68.34
71.02
74.07
76.83
78.19
76.71
71.0
60.29
44.83
25.99
5.91
-13.23
-29.95
-43.97
-56.18
-68.06
-80.86
-95.03
-109.96
-124.28
-136.41
-145.05
-149.51
-149.76
-146.32
-140.15
-132.47
-124.5
-117.17
-110.93
-105.66
-100.88
-96.02
-90.66
-84.58
-77.72
-69.91
-60.93
-50.6
-39.04
-26.7
-14.34
-2.66
7.96
17.57
26.53
35.25
43.85
52.17
59.79
66.3
71.45
75.26
77.87
79.55
80.51
80.86
80.6
79.75
78.42
76.85
75.34
74.1
73.13
72.15
70.67
68.22
64.48
59.35
52.89
45.18
36.15
25.73
13.98
1.32
-11.42
-23.14
-32.82
-39.81
-44.08
-46.21
-47.09
-47.66
-48.49
-49.72
-51.03
-51.92
-51.91
-50.74
-48.4
-45.1
-41.14
-36.9
-32.82
-29.39
-27.03
-26.02
-26.29
-27.52
-29.15
-30.71
-31.96
-33.05
-34.34
-36.22
-38.89
-42.19
-45.69
-48.86
-51.32
-52.87
-53.49
-53.19
-51.88
-49.28
-45.07
-39.15
-31.88
-24.16
-17.24
-12.29
-9.86
-9.6
-10.34
-10.5
-8.71
-4.31
2.54
11.02
20.03
28.51
35.69
41.07
44.38
45.5
44.46
41.48
36.93
31.37
25.43
19.74
14.69
10.45
6.87
3.7
0.66
-2.32
-5.2
-7.87
-10.32
-12.67
-15.08
-17.61
-20.14
-22.43
-24.25
-25.43
-25.89
-25.49
-24.01
-21.22
-17.03
-11.69
-5.72
0.22
5.64
10.38
14.61
18.69
22.91
27.36
31.91
36.28
40.17
43.37
45.76
47.38
48.36
48.85
49.01
48.88
48.49
47.82
46.92
45.86
44.74
43.56
42.22
40.6
38.6
36.27
33.77
31.31
28.99
26.69
24.09
20.79
16.49
11.18
5.23
-0.75
-6.0
-9.95
-12.34
-13.27
-13.11
-12.24
-10.83
-8.84
-6.07
-2.41
1.99
6.71
11.2
15.04
18.07
20.44
22.47
24.47
26.65
29.1
31.79
34.66
37.52
40.04
41.72
42.11
40.88
38.08
34.06
29.44
24.83
20.7
17.3
14.64
12.63
11.12
9.95
8.88
7.68
6.11
3.96
1.15
-2.21
-5.85
-9.43
-12.7
-15.6
-18.31
-21.14
-24.3
-27.71
-30.95
-33.37
-34.44
-33.89
-31.88
-28.92
-25.68
-22.77
-20.68
-19.65
-19.62
-20.24
-20.93
-21.02
-19.98
-17.67
-14.42
-10.97
-8.14
-6.54
-6.37
-7.42
-9.24
-11.37
-13.46
-15.29
-16.74
-17.66
-17.9
-17.31
-15.79
-13.43
-10.39
-6.93
-3.23
0.63
4.75
9.29
14.33
19.69
24.93
29.39
32.52
34.05
34.18
33.41
32.25
30.89
29.19
26.72
23.18
18.54
13.13
7.53
2.28
-2.2
-5.73
-8.2
-9.6
-10.03
-9.69
-9.01
-8.51
-8.64
-9.66
-11.47
-13.69
-15.81
-17.4
-18.22
-18.31
-17.91
-17.38
-16.96
-16.68
-16.36
-15.67
-14.29
-12.04
-9.0
-5.42
-1.68
1.89
5.12
7.98
10.59
13.07
15.48
17.74
19.7
21.15
21.93
21.99
21.36
20.16
18.46
16.26
13.49
10.02
5.76
0.75
-4.8
-10.55
-16.08
-20.94
-24.7
-27.01
-27.6
-26.37
-23.47
-19.27
-14.42
-9.58
-5.33
-1.99
0.36
1.83
2.5
2.39
1.46
-0.3
-2.71
-5.41
-8.01
-10.14
-11.69
-12.78
-13.67
-14.67
-15.92
-17.35
-18.71
-19.74
-20.3
-20.48
-20.62
-21.07
-22.07
-23.63
-25.49
-27.3
-28.77
-29.76
-30.38
-30.82
-31.31
-32.0
-32.91
-33.88
-34.68
-34.98
-34.49
-32.98
-30.29
-26.42
-21.44
-15.58
-9.19
-2.65
3.65
9.44
14.62
19.18
23.12
26.29
28.44
29.29
28.68
26.72
23.81
20.56
17.63
15.6
14.8
15.28
16.79
18.89
21.07
22.98
24.46
25.64
26.77
28.09
29.69
31.46
33.18
34.57
35.4
35.47
34.64
32.8
29.91
26.02
21.32
16.08
10.61
5.23
0.21
-4.2
-7.75
-10.24
-11.59
-11.84
-11.2
-10.01
-8.64
-7.47
-6.84
-7.04
-8.3
-10.8
-14.49
-19.15
-24.35
-29.59
-34.37
-38.31
-41.14
-42.77
-43.21
-42.59
-41.11
-39.0
-36.43
-33.55
-30.45
-27.18
-23.78
-20.14
-16.01
-10.96
-4.57
3.38
12.68
22.56
31.87
39.34
43.98
45.4
43.84
40.14
35.42
30.75
26.87
24.12
22.47
21.7
21.49
21.53
21.54
21.21
20.32
18.82
16.88
14.82
12.97
11.41
9.91
8.06
5.49
2.11
-1.84
-5.9
-9.61
-12.64
-14.84
-16.22
-16.86
-16.86
-16.4
-15.73
-15.09
-14.64
-14.34
-13.97
-13.19
-11.74
-9.63
-7.2
-5.0
-3.54
-3.11
-3.62
-4.65
-5.7
-6.43
-6.79
-6.97
-7.3
-8.06
-9.42
-11.37
-13.74
-16.24
-18.4
-19.68
-19.56
-17.77
-14.36
-9.74
-4.51
0.77
5.65
9.89
13.39
16.08
17.93
18.94
19.15
18.67
17.57
15.95
13.88
11.47
8.91
6.45
4.46
3.24
2.94
3.45
4.43
5.38
5.82
5.47
4.36
2.8
1.24
0.1
-0.4
-0.28
0.22
0.8
1.21
1.26
0.93
0.2
-0.84
-2.11
-3.55
-5.07
-6.68
-8.38
-10.27
-12.37
-14.69
-17.09
-19.28
-20.9
-21.57
-21.03
-19.21
-16.3
-12.72
-8.98
-5.56
-2.73
-0.56
1.21
2.98
5.19
8.07
11.59
15.45
19.17
22.33
24.74
26.43
27.61
28.43
28.93
29.03
28.56
27.52
26.07
24.47
23.06
22.0
21.27
20.73
20.17
19.43
18.4
17.04
15.37
13.52
11.68
10.14
9.1
8.6
8.5
8.5
8.23
7.4
5.85
3.59
0.72
-2.6
-6.18
-9.81
-13.29
-16.49
-19.37
-21.94
-24.15
-25.87
-26.84
-26.82
-25.73
-23.68
-20.94
-17.82
-14.53
-11.2
-7.93
-4.86
-2.17
-0.01
1.6
2.84
3.99
5.3
6.89
8.71
10.6
12.37
13.82
14.81
15.22
15.02
14.24
13.06
11.74
10.54
9.62
8.96
8.36
7.62
6.6
5.33
4.0
2.83
1.93
1.24
0.54
-0.39
-1.65
-3.18
-4.85
-6.57
-8.37
-10.36
-12.56
-14.72
-16.28
-16.57
-15.1
-11.81
-7.17
-1.98
2.93
7.01
10.1
12.38
14.06
15.24
15.83
15.65
14.59
12.76
10.46
8.08
5.89
4.01
2.37
0.84
-0.65
-2.0
-3.09
-3.87
-4.43
-5.05
-6.02
-7.54
-9.56
-11.82
-13.96
-15.7
-16.95
-17.76
-18.26
-18.6
-18.86
-19.05
-19.2
-19.25
-19.15
-18.8
-18.05
-16.83
-15.2
-13.36
-11.63
-10.31
-9.51
-9.15
-8.91
-8.39
-7.27
-5.45
-3.07
-0.51
1.72
3.17
3.48
2.5
0.31
-2.77
-6.19
-9.3
-11.49
-12.37
-11.85
-10.06
-7.27
-3.74
0.3
4.66
9.11
13.36
17.17
20.4
23.11
25.53
27.83
30.06
32.06
33.56
34.32
34.31
33.66
32.64
31.53
30.5
29.52
28.44
27.02
25.02
22.34
19.04
15.31
11.41
7.56
3.85
0.27
-3.22
-6.66
-10.01
-13.19
-16.18
-19.0
-21.65
-24.08
-26.16
-27.71
-28.56
-28.68
-28.15
-27.11
-25.74
-24.14
-22.43
-20.64
-18.85
-17.09
-15.42
-13.88
-12.51
-11.34
-10.34
-9.42
-8.51
-7.56
-6.58
-5.65
-4.87
-4.28
-3.88
-3.67
-3.65
-3.85
-4.26
-4.81
-5.36
-5.73
-5.83
-5.69
-5.42
-5.17
-5.08
-5.22
-5.62
-6.28
-7.17
-8.24
-9.41
-10.59
-11.77
-12.99
-14.37
-16.04
-18.08
-20.45
-22.94
-25.25
-26.98
-27.78
-27.4
-25.8
-23.13
-19.71
-15.94
-12.15
-8.61
-5.41
-2.57
-0.02
2.28
4.35
6.13
7.58
8.69
9.56
10.38
11.32
12.42
13.42
13.9
13.38
11.64
8.85
5.6
2.64
0.57
-0.34
-0.19
0.74
2.22
4.14
6.47
9.1
11.76
14.02
15.46
15.9
15.46
14.54
13.61
13.09
13.09
13.5
13.97
14.12
13.65
12.48
10.78
8.86
7.14
5.98
5.6
6.06
7.29
9.15
11.43
13.96
16.55
19.05
21.24
22.92
23.84
23.76
22.56
20.32
17.31
13.95
10.68
7.89
5.79
4.47
3.8
3.61
3.66
3.75
3.72
3.47
2.93
1.99
0.53
-1.59
-4.4
-7.77
-11.4
-14.86
-17.84
-20.17
-21.95
-23.43
-24.88
-26.38
-27.75
-28.63
-28.61
-27.52
-25.5
-23.09
-20.96
-19.74
-19.73
-20.8
-22.45
-24.03
-24.92
-24.71
-23.25
-20.58
-16.9
-12.52
-7.79
-3.14
1.09
4.64
7.48
9.72
11.59
13.25
14.73
15.96
16.84
17.38
17.77
18.24
19.01
20.09
21.39
22.73
23.99
25.18
26.33
27.45
28.39
28.89
28.71
27.73
26.08
24.07
22.05
20.29
18.85
17.67
16.57
15.37
13.99
12.38
10.53
8.45
6.08
3.31
0.04
-3.77
-8.02
-12.38
-16.35
-19.37
-21.01
-21.16
-20.03
-18.07
-15.86
-13.85
-12.26
-11.1
-10.24
-9.49
-8.74
-7.97
-7.21
-6.62
-6.28
-6.3
-6.69
-7.39
-8.33
-9.4
-10.55
-11.75
-13.03
-14.36
-15.72
-17.04
-18.25
-19.31
-20.19
-20.93
-21.55
-22.03
-22.31
-22.3
-21.94
-21.16
-19.87
-17.84
-14.71
-10.14
-3.94
3.64
11.86
19.6
25.67
29.14
29.5
26.8
21.46
14.18
5.88
-2.43
-9.73
-15.19
-18.41
-19.49
-18.93
-17.43
-15.53
-13.51
-11.43
-9.23
-6.9
-4.53
-2.22
0.03
2.32
4.85
7.78
11.15
14.86
18.7
22.45
25.87
28.86
31.37
33.48
35.31
36.97
38.52
39.93
41.09
41.87
42.15
41.89
41.1
39.94
38.62
37.39
36.5
35.99
35.68
35.06
33.4
29.99
24.4
16.65
7.34
-2.58
-12.07
-20.3
-26.78
-31.43
-34.44
-36.06
-36.57
-36.12
-34.81
-32.72
-29.97
-26.77
-23.4
-20.21
-17.53
-15.6
-14.46
-13.99
-13.91
-13.92
-13.77
-13.37
-12.7
-11.8
-10.72
-9.55
-8.4
-7.5
-7.08
-7.31
-8.16
-9.43
-10.78
-11.94
-12.79
-13.39
-13.91
-14.51
-15.24
-16.05
-16.8
-17.4
-17.76
-17.88
-17.8
-17.65
-17.53
-17.58
-17.88
-18.45
-19.22
-20.04
-20.68
-20.83
-20.08
-18.05
-14.5
-9.49
-3.47
2.87
8.77
13.68
17.39
19.99
21.58
22.15
21.53
19.55
16.32
12.33
8.36
5.25
3.53
3.25
3.98
5.03
5.79
5.97
5.7
5.35
5.36
6.02
7.37
9.27
11.45
13.67
15.78
17.68
19.31
20.59
21.39
21.54
20.93
19.56
17.53
15.07
12.41
9.75
7.16
4.57
1.85
-1.01
-3.9
-6.5
-8.44
-9.39
-9.22
-8.0
-5.9
-3.16
0.02
3.41
6.84
10.1
13.01
15.44
17.32
18.62
19.31
19.39
18.9
18.02
17.07
16.41
16.3
16.78
17.67
18.64
19.37
19.63
19.32
18.4
16.89
14.84
12.29
9.35
6.17
2.92
-0.28
-3.41
-6.6
-10.11
-14.29
-19.4
-25.5
-32.24
-38.94
-44.67
-48.54
-49.98
-48.92
-45.73
-41.05
-35.56
-29.87
-24.5
-19.87
-16.34
-14.11
-13.14
-13.11
-13.48
-13.69
-13.36
-12.39
-10.95
-9.37
-7.92
-6.74
-5.77
-4.88
-3.86
-2.64
-1.28
0.04
1.11
1.8
2.11
2.16
2.07
1.86
1.4
0.46
-1.1
-3.27
-5.75
-8.12
-9.93
-10.92
-11.07
-10.6
-9.85
-9.22
-8.99
-9.29
-10.05
-10.94
-11.5
-11.17
-9.5
-6.29
-1.66
4.03
10.22
16.36
22.0
26.8
30.61
33.42
35.34
36.55
37.25
37.56
37.52
37.11
36.28
35.06
33.51
31.7
29.67
27.42
24.98
22.46
20.02
17.8
15.81
13.95
11.99
9.76
7.19
4.35
1.4
-1.49
-4.22
-6.79
-9.24
-11.61
-13.87
-15.96
-17.82
-19.46
-21.0
-22.66
-24.7
-27.22
-30.1
-32.91
-35.1
-36.15
-35.74
-33.9
-30.92
-27.24
-23.29
-19.38
-15.66
-12.22
-9.09
-6.31
-3.93
-1.93
-0.25
1.26
2.78
4.47
6.4
8.54
10.78
12.93
14.79
16.2
17.07
17.4
17.32
17.07
16.89
17.0
17.49
18.31
19.25
20.02
20.37
20.09
19.12
17.53
15.53
13.4
11.46
9.91
8.87
8.27
7.89
7.44
6.57
5.02
2.66
-0.44
-3.96
-7.46
-10.47
-12.69
-14.04
-14.66
-14.8
-14.68
-14.37
-13.86
-13.1
-12.04
-10.71
-9.16
-7.43
-5.56
-3.6
-1.6
0.38
2.28
4.1
5.83
7.51
9.15
10.77
12.37
13.92
15.36
16.61
17.61
18.29
18.59
18.42
17.66
16.19
13.97
11.14
7.97
4.81
1.94
-0.53
-2.67
-4.58
-6.29
-7.8
-9.13
-10.43
-11.96
-13.99
-16.57
-19.45
-22.06
-23.78
-24.14
-23.01
-20.62
-17.37
-13.67
-9.8
-5.89
-2.04
1.57
4.65
6.85
7.92
7.89
7.06
6.0
5.24
5.17
5.85
7.01
8.26
9.24
9.76
9.8
9.49
8.96
8.32
7.61
6.85
6.01
5.04
3.86
2.35
0.44
-1.82
-4.27
-6.65
-8.71
-10.27
-11.3
-11.86
-12.08
-12.05
-11.86
-11.6
-11.44
-11.54
-12.02
-12.89
-13.94
-14.76
-14.92
-14.03
-11.9
-8.61
-4.4
0.32
5.15
9.67
13.59
16.67
18.82
20.11
20.69
20.78
20.59
20.29
20.01
19.84
19.82
19.97
20.27
20.67
21.01
21.12
20.82
19.97
18.51
16.47
13.95
11.12
8.18
5.28
2.53
-0.09
-2.63
-5.16
-7.68
-10.14
-12.5
-14.75
-16.94
-19.21
-21.72
-24.6
-27.88
-31.45
-35.03
-38.22
-40.51
-41.41
-40.53
-37.69
-32.97
-26.69
