0.72
-1.6
-3.95
-6.27
-8.55
-10.75
-12.8
-14.68
-16.41
-18.19
-20.24
-22.71
-25.46
-28.0
-29.6
-29.5
-27.24
-22.87
-16.9
-10.11
-3.28
3.02
8.52
13.07
16.57
18.9
19.92
19.63
18.23
16.18
14.01
12.23
11.1
10.63
10.61
10.8
10.98
11.07
11.07
11.0
10.81
10.42
9.74
8.75
7.48
6.01
4.39
2.64
0.74
-1.31
-3.46
-5.61
-7.64
-9.48
-11.1
-12.55
-13.94
-15.43
-17.19
-19.36
-22.01
-24.96
-27.79
-29.88
-30.51
-29.18
-25.74
-20.46
-13.97
-7.03
-0.37
5.52
10.34
13.96
16.32
17.44
17.41
16.45
14.93
13.27
11.86
10.92
10.5
10.49
10.75
11.17
11.68
12.28
12.92
13.5
13.81
13.69
13.01
11.79
10.18
8.38
6.58
4.88
3.29
1.7
0.02
-1.82
-3.81
-5.86
-7.87
-9.75
-11.45
-13.01
-14.51
-16.1
-17.93
-20.14
-22.71
-25.36
-27.61
-28.78
-28.26
-25.71
-21.17
-15.1
-8.21
-1.2
5.35
11.08
15.77
19.28
21.48
22.29
21.8
20.28
18.18
16.02
14.18
12.84
12.0
11.51
11.29
11.27
11.47
11.87
12.39
12.87
13.11
12.95
12.29
11.19
9.75
8.12
6.41
4.73
3.13
1.54
-0.1
-1.91
-3.9
-6.01
-8.1
-10.0
-11.65
-13.05
-14.33
-15.67
-17.26
-19.23
-21.63
-24.3
-26.84
-28.65
-28.99
-27.31
-23.41
-17.62
-10.68
-3.49
3.13
8.71
13.06
16.19
18.15
18.97
18.66
17.38
15.4
13.12
10.95
9.23
8.16
7.77
8.04
8.79
9.84
10.95
11.91
12.53
12.68
12.3
11.41
10.09
8.48
6.7
4.86
3.0
1.17
-0.62
-2.36
-4.01
-5.54
-6.92
-8.13
-9.2
-10.21
-11.28
-12.59
-14.2
-16.08
-17.91
-19.21
-19.39
-18.0
-14.85
-10.13
-4.32
1.99
8.23
13.96
18.93
22.97
25.93
27.76
28.41
27.98
26.73
25.05
23.41
22.23
21.81
22.23
23.43
25.25
27.42
29.69
31.81
33.54
34.75
35.42
35.66
35.68
35.67
35.65
35.5
34.92
33.66
31.62
28.87
25.6
22.05
18.32
14.4
10.16
5.41
0.03
-6.01
-12.56
-19.34
-25.91
-31.74
-36.34
-39.3
-40.4
-39.66
-37.33
-33.85
-29.76
-25.59
-21.75
-18.52
-16.05
-14.43
-13.76
-14.08
-15.33
-17.21
-19.2
-20.67
-21.05
-20.04
-17.72
-14.46
-10.78
-7.21
-4.12
-1.72
-0.03
0.96
1.24
0.79
-0.44
-2.44
-5.11
-8.22
-11.51
-14.77
-17.88
-20.89
-23.89
-26.94
-29.95
-32.71
-35.01
-36.71
-37.89
-38.83
-39.91
-41.48
-43.62
-46.13
-48.45
-49.88
-49.79
-47.8
-43.96
-38.67
-32.54
-26.16
-20.0
-14.31
-9.28
-5.12
-2.05
-0.35
-0.12
-1.25
-3.28
-5.58
-7.48
-8.48
-8.4
-7.36
-5.67
-3.72
-1.8
-0.13
1.25
2.4
3.55
4.98
6.96
9.53
12.37
14.69
15.53
14.24
11.03
7.15
4.52
5.0
9.52
17.7
28.0
38.48
47.52
54.27
58.6
60.71
60.74
58.68
54.55
48.67
41.74
34.69
28.49
23.96
21.74
22.27
25.8
32.2
40.89
50.74
60.32
68.31
73.89
76.99
78.15
78.18
77.69
76.88
75.57
73.47
70.46
66.67
62.38
58.14
54.8
53.65
56.09
63.03
74.04
87.04
98.69
105.67
106.05
100.16
90.22
79.17
69.18
60.72
52.49
42.17
27.33
6.2
-21.82
-55.84
-93.4
-130.82
-164.0
-189.51
-205.57
-212.36
-211.63
-205.75
-196.82
-186.31
-175.13
-164.03
-153.83
-145.23
-138.53
-133.27
-128.31
-122.2
-113.73
-102.39
-88.38
-72.47
-55.66
-38.87
-22.86
-8.15
4.72
15.15
22.36
25.79
25.38
21.73
16.07
9.98
5.09
2.54
2.87
5.58
9.63
13.54
15.67
14.68
9.84
1.5
-9.43
-21.63
-34.19
-46.27
-57.37
-67.39
-76.48
-84.96
-92.69
-99.64
-105.44
-109.89
-112.35
-112.13
-109.1
-103.79
-97.45
-91.27
-86.85
-80.75
-70.72
-55.43
-35.22
-12.28
10.51
27.62
38.77
45.32
49.02
50.62
50.31
48.8
46.22
42.92
39.58
37.57
37.49
39.38
42.3
45.18
47.18
47.71
46.62
44.08
40.73
36.83
32.61
28.02
23.14
18.08
12.87
7.65
2.77
-1.05
-3.28
-3.67
-2.45
-0.18
2.44
4.68
6.14
6.67
6.51
5.87
4.98
4.01
3.06
2.15
1.14
-0.12
-1.74
-3.66
-5.75
-7.78
-9.58
-11.07
-12.33
-13.51
-14.72
-15.96
-17.15
-18.2
-19.14
-20.25
-22.02
-24.96
-29.39
-35.22
-41.94
-48.71
-54.7
-59.33
-62.45
-64.24
-65.02
-64.97
-63.99
-61.67
-57.49
-50.96
-41.85
-30.33
-16.9
-2.4
12.11
25.64
37.44
47.2
55.19
62.12
68.99
76.74
85.93
96.54
107.91
118.89
128.14
134.48
137.23
136.33
132.35
126.25
119.09
111.65
104.33
97.17
90.12
83.28
76.99
71.72
67.74
64.98
63.08
61.61
60.39
59.55
59.38
59.94
60.74
60.89
59.51
56.38
52.2
48.42
46.49
47.1
49.78
53.1
55.41
55.64
53.71
50.41
46.84
43.79
41.36
39.1
36.43
33.01
29.01
24.9
21.24
18.27
15.87
13.62
11.07
7.98
4.37
0.48
-3.37
-6.93
-10.13
-13.02
-15.82
-18.76
-22.03
-25.71
-29.68
-33.53
-36.69
-38.63
-39.07
-38.19
-36.56
-34.91
-33.8
-33.39
-33.36
-33.16
-32.3
-30.66
-28.52
-26.51
-25.2
-24.82
-25.12
-25.41
-24.82
-22.67
-18.66
-12.89
-5.78
2.09
9.91
16.6
20.95
21.91
19.14
13.3
5.92
-1.12
-6.42
-9.57
-11.18
-12.38
-14.07
-16.48
-19.11
-21.11
-21.8
-21.02
-19.07
-16.45
-13.51
-10.32
-6.69
-2.43
2.45
7.52
12.02
15.15
16.39
15.72
13.61
10.7
7.59
4.55
1.59
-1.41
-4.42
-7.26
-9.54
-10.9
-11.14
-10.28
-8.58
-6.43
-4.26
-2.42
-1.14
-0.54
-0.63
-1.33
-2.57
-4.28
-6.41
-8.91
-11.73
-14.79
-18.02
-21.3
-24.57
-27.67
-30.35
-32.21
-32.83
-31.84
-29.17
-25.05
-20.08
-14.99
-10.43
-6.75
-3.99
-1.89
-0.14
1.46
2.99
4.39
5.58
6.56
7.32
7.9
8.29
8.47
8.46
8.33
8.24
8.32
8.65
9.15
9.63
9.85
9.59
8.71
7.21
5.17
2.73
0.05
-2.73
-5.51
-8.25
-10.98
-13.76
-16.66
-19.76
-23.06
-26.44
-29.64
-32.24
-33.73
-33.7
-31.94
-28.53
-23.83
-18.38
-12.74
-7.38
-2.57
1.56
4.99
7.68
9.64
10.85
11.35
11.31
10.92
10.47
10.18
10.16
10.39
10.72
10.92
10.88
10.61
10.25
9.99
9.92
9.96
9.83
9.25
8.01
6.16
3.95
1.71
-0.28
-1.94
-3.35
-4.66
-6.01
-7.48
-9.09
-10.88
-12.92
-15.2
-17.57
-19.68
-21.02
-21.09
-19.66
-16.82
-13.03
-8.87
-4.89
-1.4
1.57
4.11
6.31
8.14
9.44
9.98
9.64
8.49
6.81
5.04
3.59
2.72
2.44
2.54
2.7
2.62
2.18
1.36
0.26
-1.0
-2.41
-4.01
-5.84
-7.92
-10.16
-12.39
-14.42
-16.11
-17.42
-18.42
-19.24
-20.03
-20.89
-21.82
-22.8
-23.7
-24.41
-24.77
-24.58
-23.66
-21.89
-19.21
-15.74
-11.7
-7.37
-3.02
1.13
4.95
8.3
11.06
13.13
14.44
14.99
14.93
14.45
13.76
13.05
12.44
12.0
11.73
11.61
11.55
11.5
11.4
11.28
11.17
11.08
10.95
10.62
9.93
8.76
7.13
5.21
3.24
1.4
-0.21
-1.65
-3.06
-4.58
-6.28
-8.19
-10.26
-12.4
-14.5
-16.38
-17.83
-18.64
-18.62
-17.71
-15.95
-13.51
-10.61
-7.48
-4.34
-1.36
1.34
3.68
5.62
7.11
8.13
8.68
8.78
8.51
8.03
7.54
7.23
7.23
7.58
8.2
8.96
9.68
10.18
10.33
10.1
9.52
8.64
7.53
6.2
4.61
2.77
0.72
-1.39
-3.37
-5.05
-6.38
-7.41
-8.33
-9.33
-10.59
-12.19
-14.1
-16.23
-18.38
-20.35
-21.86
-22.67
-22.57
-21.48
-19.47
-16.79
-13.75
-10.63
-7.62
-4.76
-2.04
0.55
2.93
4.98
6.6
7.76
8.56
9.15
9.69
10.28
10.93
11.61
12.24
12.77
13.16
13.4
13.52
13.53
13.44
13.24
12.82
12.05
10.89
9.37
7.65
5.94
4.41
3.06
1.8
0.46
-1.06
-2.76
-4.57
-6.37
-8.09
-9.74
-11.3
-12.74
-13.91
-14.61
-14.63
-13.86
-12.29
-10.03
-7.23
-4.09
-0.82
2.38
5.31
7.75
9.52
10.51
10.72
10.26
9.35
8.25
7.22
6.5
6.22
6.43
7.08
8.04
9.15
10.27
11.3
12.16
12.85
13.35
13.65
13.74
13.57
13.15
12.51
11.72
10.88
10.04
9.23
8.43
7.57
6.59
5.43
4.05
2.5
0.84
-0.74
-1.97
-2.57
-2.3
-1.04
1.11
3.9
6.98
10.03
12.84
15.28
17.27
18.73
19.53
19.62
19.01
17.86
16.41
14.95
13.63
12.53
11.6
10.8
10.1
9.58
9.26
9.14
9.09
8.94
8.52
7.76
6.71
5.49
4.18
2.79
1.23
-0.54
-2.51
-4.56
-6.52
-8.31
-10.01
-11.79
-13.88
-16.41
-19.34
-22.43
-25.35
-27.77
-29.39
-30.06
-29.72
-28.4
-26.24
-23.44
-20.27
-16.99
-13.89
-11.17
-8.93
-7.21
-5.98
-5.17
-4.75
-4.69
-4.98
-5.54
-6.25
-6.92
-7.37
-7.46
-7.16
-6.53
-5.71
-4.85
-4.09
-3.48
-3.04
-2.76
-2.6
-2.6
-2.77
-3.16
-3.8
-4.68
-5.76
-6.96
-8.23
-9.48
-10.68
-11.78
-12.77
-13.66
-14.49
-15.35
-16.32
-17.38
-18.39
-19.11
-19.23
-18.52
-16.93
-14.58
-11.74
-8.71
-5.67
-2.66
0.34
3.36
6.33
9.08
11.42
13.19
14.4
15.18
15.72
16.18
16.65
17.11
17.49
17.74
17.9
18.09
18.39
18.85
19.4
19.85
20.01
19.75
19.1
18.21
17.33
16.68
16.39
16.39
16.48
16.39
15.89
14.87
13.37
11.55
9.67
7.95
6.61
5.84
5.84
6.77
8.76
11.77
15.53
19.51
23.05
25.42
26.03
24.49
20.72
14.98
7.86
0.21
-6.95
-12.7
-16.39
-17.87
-17.5
-15.99
-14.12
-12.42
-10.99
-9.42
-6.92
-2.56
4.44
14.3
26.45
39.46
51.36
60.21
64.83
65.28
62.89
59.72
57.76
58.13
60.71
64.33
67.44
68.73
67.59
64.12
58.87
52.54
45.76
39.1
33.08
28.19
24.76
22.81
22.01
21.75
21.42
20.63
19.31
17.61
15.73
13.78
11.72
9.46
6.93
4.17
1.31
-1.57
-4.38
-7.1
-9.7
-12.07
-14.1
-15.72
-16.91
-17.8
-18.58
-19.45
-20.55
-21.92
-23.54
-25.3
-27.09
-28.79
-30.33
-31.69
-32.93
-34.16
-35.5
-37.07
-38.91
-41.01
-43.29
-45.56
-47.53
-48.83
-49.15
-48.34
-46.52
-44.05
-41.39
-38.93
-36.79
-34.88
-33.01
-31.11
-29.32
-28.02
-27.62
-28.36
-30.19
-32.76
-35.51
-37.91
-39.54
-40.24
-40.08
-39.3
-38.28
-37.37
-36.83
-36.72
-36.86
-36.91
-36.53
-35.44
-33.61
-31.15
-28.31
-25.31
-22.29
-19.32
-16.41
-13.61
-11.03
-8.91
-7.58
-7.44
-8.8
-11.79
-16.18
-21.46
-26.89
-31.73
-35.51
-38.02
-39.37
-39.75
-39.31
-38.11
-36.12
-33.36
-29.99
-26.3
-22.58
-19.04
-15.66
-12.18
-8.19
-3.21
3.06
10.62
19.12
27.94
36.39
43.92
50.23
55.33
59.35
62.43
64.61
65.77
65.75
64.45
61.92
58.42
54.32
50.11
46.23
42.96
40.39
38.36
36.54
34.52
31.96
28.71
24.87
20.7
16.59
12.88
9.84
7.62
6.32
6.04
6.85
8.79
11.73
15.41
19.38
23.18
26.42
28.84
30.33
30.81
30.19
28.38
25.35
21.28
16.61
11.95
7.95
5.09
3.51
2.98
3.01
3.03
2.5
1.1
-1.31
-4.64
-8.65
-12.96
-17.15
-20.89
-23.97
-26.39
-28.32
-29.99
-31.63
-33.37
-35.22
-37.04
-38.54
-39.4
-39.24
-37.85
-35.2
-31.51
-27.15
-22.55
-18.04
-13.8
-9.89
-6.29
-3.04
-0.2
2.11
3.82
4.94
5.54
5.75
5.7
5.47
5.12
4.64
4.06
3.4
2.72
2.13
1.75
1.65
1.8
2.09
2.3
2.27
1.88
1.22
0.43
-0.29
-0.88
-1.41
-2.05
-3.0
-4.34
-6.08
-8.1
-10.32
-12.59
-14.72
-16.37
-17.12
-16.58
-14.57
-11.26
-7.14
-2.81
1.21
4.61
7.36
9.56
11.3
12.56
13.2
13.11
12.19
10.49
8.11
5.24
2.07
-1.14
-4.14
-6.7
-8.67
-10.04
-10.91
-11.48
-11.96
-12.48
-13.09
-13.8
-14.56
-15.37
-16.26
-17.24
-18.32
-19.44
-20.5
-21.47
-22.37
-23.34
-24.57
-26.21
-28.25
-30.47
-32.48
-33.76
-33.87
-32.53
-29.73
-25.67
-20.68
-15.17
-9.46
-3.87
1.37
6.02
9.92
12.94
15.06
16.34
16.86
16.75
16.17
15.33
14.49
13.95
13.91
14.41
15.32
16.36
17.28
17.95
18.38
18.63
18.77
18.7
18.2
17.05
15.1
12.41
9.2
5.75
2.27
-1.13
-4.47
-7.8
-11.2
-14.71
-18.29
-21.91
-25.39
-28.46
-30.76
-31.89
-31.62
-29.93
-27.07
-23.44
-19.46
-15.46
-11.62
-8.08
-4.91
-2.23
-0.12
1.35
2.23
2.58
2.48
2.03
1.36
0.65
0.12
-0.04
0.24
0.92
1.79
2.65
3.28
3.58
3.5
3.08
2.41
1.63
0.88
0.22
-0.36
-1.01
-1.87
-3.03
-4.41
-5.78
-6.87
-7.58
-7.99
-8.41
-9.15
-10.43
-12.18
-14.08
-15.65
-16.45
-16.15
-14.58
-11.82
-8.03
-3.54
1.28
5.97
10.13
13.43
15.74
17.09
17.69
17.77
17.49
16.97
16.23
15.32
14.3
13.32
12.48
11.83
11.34
10.95
10.58
10.17
9.72
9.23
8.64
7.92
6.99
5.78
4.28
2.55
0.71
-1.1
-2.77
-4.33
-5.88
-7.59
-9.62
-12.01
-14.69
-17.52
-20.34
-22.98
-25.27
-26.99
-27.97
-28.05
-27.23
-25.63
-23.51
-21.14
-18.78
-16.66
-15.01
-14.09
-14.21
-15.51
-17.95
-21.09
-24.14
-26.03
-25.67
-22.22
-15.41
-5.59
6.38
19.45
32.74
45.78
58.49
70.96
83.16
94.71
104.96
113.1
118.54
121.04
120.76
118.16
113.75
107.94
101.03
93.21
84.71
75.86
67.03
58.55
50.54
43.03
36.04
29.74
24.49
20.61
18.18
16.76
15.5
13.42
9.9
4.94
-0.8
-6.41
-11.1
-14.57
-16.96
-18.59
-19.54
-19.52
-17.93
-14.27
-8.41
-0.75
7.97
16.99
25.87
34.53
43.14
51.77
60.2
67.86
74.01
77.99
79.34
77.97
74.07
68.17
61.1
53.91
47.6
42.8
39.36
36.31
32.07
24.94
13.59
-2.56
-23.28
-47.76
-74.8
-103.08
-131.26
-158.12
-182.56
-203.66
-220.55
-232.29
-237.69
-235.48
-224.65
-204.96
-177.46
-144.54
-109.5
-75.81
-46.27
-22.46
-4.74
7.43
14.96
18.79
19.69
18.28
15.08
10.49
4.78
-1.98
-9.68
-17.92
-25.75
-31.72
-34.25
-32.27
-25.74
-15.84
-4.68
5.48
12.97
17.3
19.16
20.08
21.67
25.08
30.59
37.62
45.09
51.82
56.92
59.99
61.1
60.56
58.58
55.2
50.19
43.37
34.79
24.86
14.28
3.7
-6.54
-16.53
-26.49
-36.49
-46.14
-54.62
-61.01
-64.72
-65.8
-64.85
-62.78
-60.31
-57.76
-55.02
-51.77
-47.72
-42.91
-37.69
-32.65
-28.41
-25.41
-23.73
-23.11
-23.02
-22.92
-22.43
-21.45
-20.14
-18.79
-17.71
-17.13
-17.22
-18.09
-19.79
-22.17
-24.86
-27.3
-28.83
-28.93
-27.37
-24.21
-19.72
-14.26
-8.11
-1.53
5.28
12.01
18.28
23.68
27.81
30.5
31.78
31.91
31.28
30.19
28.82
27.15
25.03
22.37
19.23
15.85
12.55
9.58
7.03
4.81
2.77
0.82
-0.96
-2.41
-3.43
-4.04
-4.44
-4.87
-5.5
-6.28
-7.14
-8.02
-9.04
-10.44
-12.44
-15.1
-18.22
-21.31
-23.77
-25.08
-24.92
-23.25
-20.18
-15.94
-10.88
-5.4
0.18
5.62
10.67
15.11
18.69
21.24
22.66
22.82
21.81
19.91
17.76
15.8
14.26
13.08
12.15
11.36
10.28
8.69
6.58
4.57
3.01
2.01
1.31
0.62
-0.43
-2.78
-7.19
-13.98
-22.26
-31.28
-40.47
-49.62
-58.56
-67.28
-76.49
-86.57
-97.18
-106.38
-112.56
-114.6
-112.27
-105.73
-91.15
-67.1
-34.64
-2.54
24.6
44.38
57.47
64.54
67.0
66.81
65.18
62.96
60.5
58.58
57.2
56.02
54.51
52.57
50.33
47.38
43.38
38.19
32.55
27.01
21.98
17.71
14.51
12.62
11.7
11.34
11.17
11.53
12.59
14.38
16.64
18.95
20.78
21.37
20.14
16.84
11.87
5.83
-0.5
-6.28
-10.71
-13.12
-13.26
-11.18
-7.28
-2.02
4.1
10.67
17.49
24.54
31.86
39.4
46.88
53.83
59.62
63.68
65.62
65.37
63.1
59.21
54.14
48.32
42.01
35.29
28.11
20.35
11.93
2.89
-6.58
-16.18
-25.56
-34.44
-42.57
-49.82
-56.1
-61.35
-65.54
-68.68
-70.79
-71.95
-72.3
-72.0
-71.21
-69.99
-68.24
-65.63
-61.63
-55.78
-47.9
-38.25
-27.59
-16.88
-7.09
1.17
7.72
12.69
16.44
19.29
21.42
