25.24
25.19
24.41
22.9
20.77
18.14
15.13
11.74
7.96
3.79
-0.68
-5.31
-9.91
-14.29
-18.23
-21.68
-24.7
-27.53
-30.55
-34.14
-38.49
-43.35
-48.08
-51.65
-53.04
-51.42
-46.43
-38.25
-27.54
-15.27
-2.51
9.77
20.78
30.01
37.2
42.3
45.42
46.78
46.66
45.41
43.42
41.11
38.88
37.04
35.77
35.07
34.78
34.63
34.33
33.66
32.47
30.66
28.24
25.26
21.84
18.2
14.6
11.2
8.02
4.93
1.7
-1.86
-5.78
-9.93
-14.08
-18.04
-21.71
-25.18
-28.65
-32.38
-36.63
-41.49
-46.8
-52.06
-56.42
-58.91
-58.63
-55.07
-48.27
-38.89
-27.93
-16.55
-5.72
3.82
11.71
17.84
22.24
25.02
26.33
26.4
25.49
23.97
22.24
20.63
19.4
18.66
18.38
18.48
18.89
19.52
20.32
21.13
21.74
21.87
21.25
19.74
17.41
14.58
11.63
8.98
6.82
5.08
3.43
1.48
-1.06
-4.26
-7.89
-11.56
-14.79
-17.3
-19.0
-20.08
-20.97
-22.19
-24.21
-27.27
-31.22
-35.46
-39.08
-41.06
-40.55
-37.14
-30.92
-22.43
-12.53
-2.25
7.43
15.69
21.94
25.95
27.79
27.83
26.46
24.07
20.9
17.15
13.1
9.16
5.78
3.33
2.03
1.83
2.59
4.14
6.36
9.08
12.08
15.06
17.65
19.54
20.58
20.77
20.29
19.33
18.02
16.36
14.18
11.23
7.33
2.47
-3.07
-8.85
-14.46
-19.63
-24.39
-28.98
-33.66
-38.57
-43.53
-48.13
-51.76
-53.81
-53.74
-51.25
-46.36
-39.43
-31.2
-22.54
-14.28
-7.02
-1.03
3.66
7.09
9.35
10.52
10.78
10.48
10.13
10.24
11.15
12.91
15.32
18.02
20.67
23.01
24.88
26.12
26.56
26.03
24.38
21.61
17.86
13.35
8.35
3.2
-1.8
-6.32
-10.13
-13.19
-15.58
-17.59
-19.51
-21.48
-23.51
-25.44
-27.11
-28.51
-29.76
-31.12
-32.9
-35.35
-38.59
-42.59
-47.05
-51.31
-54.42
-55.22
-52.68
-46.22
-35.98
-22.8
-7.99
6.97
20.82
32.72
42.23
49.26
53.92
56.39
56.95
55.87
53.56
50.51
47.26
44.34
42.03
40.39
39.19
38.09
36.74
34.89
32.44
29.38
25.66
21.22
15.91
9.66
2.56
-5.06
-12.66
-19.61
-25.47
-30.07
-33.57
-36.33
-38.8
-41.23
-43.62
-45.77
-47.36
-48.08
-47.76
-46.44
-44.37
-41.96
-39.7
-38.08
-37.52
-38.21
-40.1
-42.84
-45.81
-48.21
-49.23
-48.23
-44.84
-39.17
-31.63
-22.91
-13.69
-4.52
4.19
12.21
19.28
25.12
29.5
32.38
33.97
34.7
35.07
35.44
35.94
36.47
36.87
37.03
36.98
36.82
36.57
36.15
35.27
33.68
31.14
27.68
23.55
19.25
15.37
12.44
10.84
10.55
11.26
12.45
13.58
14.26
14.35
13.95
13.25
12.41
11.51
10.5
9.28
7.78
5.92
3.59
0.63
-3.17
-8.02
-13.94
-20.64
-27.49
-33.52
-37.68
-39.08
-37.32
-32.56
-25.54
-17.32
-8.97
-1.31
5.18
10.41
14.45
17.39
19.31
20.31
20.55
20.37
20.1
20.02
20.12
20.21
20.02
19.39
18.37
17.16
16.09
15.28
14.69
14.08
13.16
11.74
9.75
7.28
4.5
1.59
-1.29
-3.99
-6.43
-8.58
-10.46
-12.14
-13.63
-14.94
-16.0
-16.75
-17.21
-17.51
-17.88
-18.66
-20.17
-22.64
-26.09
-30.28
-34.63
-38.3
-40.37
-40.05
-36.87
-30.87
-22.49
-12.51
-1.78
8.94
19.07
28.2
36.03
42.25
46.51
48.49
47.99
45.11
40.35
34.52
28.69
23.81
20.57
19.14
19.25
20.29
21.52
22.28
22.11
20.81
18.4
15.05
11.08
6.85
2.77
-0.82
-3.67
-5.71
-7.01
-7.72
-8.02
-8.1
-8.12
-8.26
-8.74
-9.76
-11.36
-13.38
-15.46
-17.15
-18.04
-17.94
-16.92
-15.28
-13.4
-11.7
-10.57
-10.37
-11.27
-13.1
-15.22
-16.69
-16.48
-13.89
-8.84
-1.91
5.88
13.41
19.71
24.15
26.41
26.43
24.44
20.96
16.84
13.07
10.49
9.57
10.24
11.94
13.88
15.33
15.88
15.49
14.44
13.15
11.91
10.81
9.68
8.24
6.29
3.78
0.95
-1.87
-4.37
-6.39
-7.97
-9.29
-10.53
-11.75
-12.92
-13.91
-14.61
-15.02
-15.28
-15.61
-16.35
-17.8
-20.22
-23.7
-28.06
-32.85
-37.26
-40.35
-41.19
-39.13
-34.02
-26.15
-16.24
-5.16
6.13
16.84
26.33
34.28
40.66
45.74
49.99
53.85
57.58
61.12
64.15
66.22
66.94
66.1
63.73
60.02
55.35
50.27
45.39
41.31
38.41
36.73
35.87
35.15
33.84
31.48
27.99
23.63
18.83
13.91
9.02
4.08
-0.99
-6.24
-11.6
-16.99
-22.4
-27.92
-33.63
-39.53
-45.44
-51.04
-56.04
-60.3
-63.89
-67.06
-70.01
-72.76
-74.97
-75.98
-75.03
-71.53
-65.29
-56.71
-46.73
-36.6
-27.59
-20.61
-16.09
-13.84
-13.29
-13.71
-14.4
-14.88
-14.85
-14.21
-12.94
-11.22
-9.28
-7.46
-6.04
-5.13
-4.63
-4.17
-3.32
-1.7
0.75
3.83
7.06
9.87
11.79
12.52
12.03
10.49
8.21
5.56
2.9
0.55
-1.15
-1.9
-1.5
0.01
2.29
4.75
6.7
7.63
7.45
6.58
5.83
6.1
8.05
11.9
17.39
23.88
30.61
36.84
42.01
45.74
47.86
48.36
47.32
44.97
41.6
37.59
33.33
29.18
25.44
22.28
19.75
17.85
16.53
15.73
15.4
15.38
15.5
15.48
15.11
14.24
12.9
11.28
9.65
8.29
7.32
6.74
6.39
6.09
5.73
5.36
5.1
5.12
5.57
6.49
7.86
9.52
11.24
12.73
13.76
14.36
14.86
15.87
18.04
21.7
26.7
32.39
37.9
42.41
45.36
46.54
45.88
43.32
38.79
32.32
24.22
15.07
5.74
-2.93
-10.24
-15.88
-19.76
-21.99
-22.61
-21.59
-18.85
-14.54
-9.25
-4.03
-0.19
1.2
-0.29
-4.27
-9.77
-15.66
-21.05
-25.42
-28.45
-29.89
-29.5
-27.2
-23.43
-19.2
-15.82
-14.48
-15.74
-19.35
-24.48
-30.12
-35.45
-40.11
-44.12
-47.68
-50.92
-53.77
-55.97
-57.17
-57.16
-56.0
-54.1
-52.03
-50.33
-49.2
-48.37
-47.31
-45.47
-42.62
-39.01
-35.28
-32.13
-30.04
-28.96
-28.42
-27.62
-25.77
-22.49
-17.89
-12.58
-7.41
-3.05
0.26
2.77
5.08
7.66
10.63
13.55
15.59
15.79
13.5
8.59
1.59
-6.44
-13.92
-19.05
-20.36
-17.24
-10.54
-2.64
3.11
3.63
-2.64
-15.01
-30.79
-46.45
-59.11
-67.7
-73.09
-77.34
-82.51
-89.63
-98.43
-107.64
-115.55
-120.52
-121.16
-116.54
-106.17
-90.18
-69.43
-45.42
-19.93
5.37
29.26
50.86
69.25
83.25
91.42
92.68
87.08
76.29
63.28
51.36
42.82
37.99
35.32
32.28
26.84
18.56
8.83
0.08
-5.55
-7.24
-5.78
-2.98
-0.63
0.23
-0.53
-2.49
-5.18
-8.12
-10.74
-12.16
-11.43
-8.03
-2.32
4.25
9.67
12.35
11.86
9.2
6.6
6.67
11.65
22.58
38.82
58.05
76.67
90.73
97.0
93.94
82.37
65.5
48.34
36.39
34.0
42.63
60.18
81.57
100.67
112.77
116.25
112.74
105.64
98.12
92.02
87.99
86.77
89.8
98.77
114.21
134.22
154.52
170.02
176.91
174.27
164.12
150.23
136.35
124.94
116.74
111.07
106.52
101.61
95.18
86.7
76.24
64.31
51.5
37.99
23.42
7.12
-11.33
-31.64
-52.73
-73.22
-91.98
-108.59
-123.38
-136.88
-149.3
-160.16
-168.3
-172.58
-172.44
-168.46
-162.27
-155.87
-150.83
-147.6
-145.37
-142.53
-137.38
-128.76
-116.44
-100.93
-83.26
-64.67
-46.46
-29.93
-16.22
-5.94
1.04
5.61
9.04
12.44
16.31
20.32
23.58
25.09
24.09
20.23
13.54
4.31
-6.97
-19.72
-33.24
-46.74
-59.4
-70.36
-78.79
-83.9
-85.18
-82.44
-76.02
-66.67
-55.44
-43.43
-31.68
-20.98
-11.9
-4.83
0.06
2.73
3.34
2.2
-0.2
-3.27
-6.35
-8.87
-10.45
-10.94
-10.42
-9.09
-7.16
-4.76
-2.01
0.93
3.76
6.06
7.41
7.53
6.43
4.32
1.59
-1.37
-4.29
-7.07
-9.74
-12.42
-15.27
-18.43
-22.03
-26.19
-30.98
-36.31
-41.83
-46.87
-50.54
-51.94
-50.46
-46.02
-39.12
-30.6
-21.32
-11.94
-2.84
5.78
13.66
20.42
25.67
29.15
30.94
31.43
31.19
30.75
30.43
30.29
30.2
29.96
29.49
28.81
28.06
27.35
26.7
26.01
25.14
23.9
22.21
20.02
17.31
14.05
10.22
5.85
1.08
-3.82
-8.63
-13.19
-17.53
-21.9
-26.6
-31.88
-37.68
-43.56
-48.71
-52.11
-52.88
-50.54
-45.2
-37.55
-28.57
-19.23
-10.22
-1.88
5.66
12.31
17.91
22.19
24.97
26.2
26.05
24.86
23.05
21.01
19.17
17.85
17.36
17.83
19.19
21.08
23.03
24.51
25.2
25.06
24.31
23.24
22.02
20.61
18.75
16.19
12.88
9.06
5.13
1.54
-1.55
-4.3
-7.07
-10.27
-14.12
-18.6
-23.4
-28.09
-32.18
-35.15
-36.52
-35.73
-32.41
-26.63
-19.03
-10.69
-2.74
4.07
9.59
14.19
18.62
23.45
28.7
33.89
38.43
42.07
45.25
48.98
54.35
62.37
73.05
85.06
96.0
103.18
104.57
99.63
89.31
75.52
60.87
47.56
36.82
29.29
25.36
25.62
30.74
40.92
51.66
57.72
54.9
42.69
25.05
7.9
-3.76
-7.58
-4.31
2.92
10.69
17.86
22.98
25.44
25.03
21.61
15.24
6.39
-3.95
-13.84
-21.17
-24.57
-23.76
-19.3
-12.7
-5.74
0.16
4.19
6.5
7.73
8.36
8.68
8.65
7.95
6.33
3.76
0.39
-3.31
-6.79
-9.68
-11.65
-12.62
-12.73
-12.27
-11.61
-11.06
-10.82
-10.95
-11.46
-12.27
-13.3
-14.48
-15.74
-17.04
-18.36
-19.76
-21.31
-23.09
-25.13
-27.37
-29.69
-31.98
-34.13
-36.08
-37.9
-39.72
-41.8
-44.34
-47.38
-50.65
-53.47
-54.84
-53.79
-49.67
-42.42
-32.65
-21.45
-10.04
0.53
9.56
16.75
22.06
25.56
27.38
27.68
26.76
25.04
23.01
21.1
19.65
18.73
18.3
18.19
18.23
18.32
18.35
18.23
17.86
17.13
15.9
14.16
11.96
9.34
6.43
3.24
-0.21
-3.95
-7.97
-12.12
-16.24
-20.11
-23.58
-26.61
-29.26
-31.67
-34.04
-36.57
-39.41
-42.57
-45.8
-48.5
-49.81
-48.86
-45.03
-38.28
-29.21
-18.84
-8.35
1.36
9.79
16.79
22.39
26.64
29.47
30.78
30.63
29.26
27.2
24.99
23.1
21.79
21.04
20.67
20.53
20.49
20.55
20.73
20.98
21.18
21.14
20.71
19.85
18.57
16.97
15.11
12.96
10.47
7.54
4.18
0.51
-3.24
-6.89
-10.31
-13.53
-16.72
-20.1
-23.9
-28.26
-33.23
-38.75
-44.55
-50.09
-54.61
-57.18
-56.96
-53.46
-46.75
-37.45
-26.63
-15.41
-4.8
4.56
12.35
18.58
23.32
26.71
28.86
29.94
30.1
29.65
28.9
28.19
27.73
27.59
27.71
27.94
28.2
28.49
28.88
29.36
29.83
30.02
29.61
28.35
26.17
23.25
19.93
16.56
13.39
10.51
7.81
5.14
2.35
-0.56
-3.48
-6.17
-8.46
-10.3
-11.89
-13.59
-15.87
-19.11
-23.44
-28.57
-33.8
-38.13
-40.46
-39.97
-36.34
-29.91
-21.54
-12.33
-3.32
4.76
11.56
16.94
20.89
23.35
24.29
23.78
22.09
19.63
16.93
14.41
12.36
10.86
9.84
9.17
8.67
8.16
7.47
6.42
4.91
2.9
0.44
-2.37
-5.47
-8.82
-12.4
-16.14
-19.9
-23.46
-26.51
-28.81
-30.23
-30.79
-30.65
-30.06
-29.23
-28.38
-27.62
-27.05
-26.77
-26.94
-27.78
-29.58
-32.51
-36.52
-41.17
-45.62
-48.76
-49.46
-46.93
-40.95
-31.93
-20.77
-8.54
3.7
15.12
25.11
33.29
39.44
43.53
45.71
46.38
45.99
45.02
43.88
42.83
42.0
41.47
41.34
41.65
42.42
43.6
45.01
46.45
47.68
48.52
48.8
48.36
47.1
44.95
41.96
38.28
34.12
29.71
25.2
20.64
15.98
11.12
5.96
0.47
-5.28
-11.21
-17.31
-23.66
-30.48
-37.99
-46.23
-54.78
-62.75
-68.89
-72.02
-71.39
-67.01
-59.61
-50.41
-40.62
-31.25
-22.87
-15.82
-10.3
-6.46
-4.43
-4.21
-5.57
-8.1
-11.28
-14.57
-17.55
-19.95
-21.6
-22.46
-22.62
-22.22
-21.44
-20.45
-19.37
-18.28
-17.23
-16.24
-15.37
-14.62
-14.01
-13.5
-13.07
-12.68
-12.32
-11.98
-11.61
-11.13
-10.45
-9.44
-8.09
-6.37
-4.27
-1.79
1.03
4.04
6.88
9.04
9.91
9.03
6.32
2.25
-2.13
-5.45
-6.42
-4.19
1.39
9.69
19.68
30.18
40.21
49.15
56.65
62.52
66.59
68.63
68.51
66.26
62.22
57.03
51.46
46.26
41.9
38.5
35.77
33.23
30.45
27.21
23.67
20.13
16.88
13.98
11.14
7.86
3.64
-1.8
-8.43
-15.83
-23.42
-30.59
-36.93
-42.23
-46.53
-49.95
-52.65
-54.72
-56.19
-57.03
-57.17
-56.45
-54.76
-51.99
-48.16
-43.61
-38.98
-35.09
-32.61
-31.66
-31.61
-31.14
-28.79
-23.47
-14.94
-3.88
8.42
20.55
31.42
40.39
47.2
51.79
54.17
54.41
52.73
49.58
45.6
41.46
37.64
34.37
31.63
29.27
27.12
25.18
23.54
22.39
21.9
22.06
22.68
23.37
23.65
23.13
21.62
19.21
16.21
13.03
9.98
7.23
4.7
2.16
-0.61
-3.72
-7.06
-10.31
-13.01
-14.77
-15.35
-14.81
-13.44
-11.7
-10.13
-9.17
-9.05
-9.72
-10.84
-11.79
-11.87
-10.51
-7.41
-2.69
3.12
9.3
15.09
19.85
23.16
24.71
24.38
22.09
17.91
12.12
5.24
-1.98
-8.67
-14.06
-17.66
-19.4
-19.51
-18.44
-16.5
-13.74
-9.97
-4.81
2.0
10.37
19.74
29.07
37.02
42.29
43.96
41.78
36.24
28.43
19.58
10.72
2.42
-5.23
-12.4
-19.29
-25.94
-32.35
-38.56
-44.75
-51.21
-58.12
-65.33
-72.18
-77.53
-80.05
-78.62
-72.74
-62.81
-50.0
-35.93
-22.15
-9.77
0.65
9.05
15.57
20.3
23.25
24.46
24.09
22.58
20.56
18.66
17.37
16.9
17.2
18.11
19.41
20.97
22.67
24.37
25.87
26.95
27.43
27.19
26.24
24.62
22.39
19.56
16.14
12.15
7.71
2.93
-2.03
-7.08
-12.11
-17.03
-21.78
-26.38
-30.94
-35.75
-41.03
-46.77
-52.54
-57.42
-60.21
-59.81
-55.58
-47.6
-36.74
-24.3
-11.69
0.02
10.18
18.61
25.33
30.45
34.02
36.07
36.7
36.16
34.88
33.32
31.87
30.81
30.19
29.97
30.05
30.31
30.62
30.84
30.81
30.33
29.22
27.35
24.67
21.27
17.33
13.14
8.96
4.97
1.19
-2.44
-6.0
-9.6
-13.27
-16.99
-20.73
-24.49
-28.31
-32.29
-36.59
-41.32
-46.53
-51.93
-56.93
-60.63
-62.02
-60.27
-55.07
-46.69
-35.99
-24.1
-12.17
-1.12
8.48
16.4
22.54
26.95
29.72
31.07
31.32
30.93
30.39
30.04
30.02
30.27
30.61
30.91
31.17
31.43
31.71
31.87
31.58
30.5
28.4
25.32
21.52
17.39
13.2
9.02
4.79
0.41
-4.17
-8.8
-13.26
-17.31
-20.81
-23.75
-26.21
-28.41
-30.61
-33.1
-36.11
-39.76
-43.82
-47.69
-50.37
-50.81
-48.1
-41.9
-32.58
-21.13
-8.85
2.95
13.34
21.79
28.15
32.5
34.97
35.76
35.06
33.17
30.47
27.4
24.33
21.57
19.35
17.86
17.2
17.38
18.21
19.31
20.14
20.23
19.36
17.55
15.1
12.34
9.49
6.63
3.77
0.91
-1.82
-4.29
-6.45
-8.38
-10.36
-12.68
-15.61
-19.2
-23.42
-28.12
-33.23
-38.7
-44.39
-49.92
-54.62
-57.6
-58.01
-55.35
-49.65
-41.53
-32.0
-22.12
-12.74
-4.32
2.95
9.12
14.14
17.93
20.43
21.66
21.87
21.55
21.23
21.36
22.15
23.58
25.47
27.61
29.88
32.19
34.45
36.47
37.98
38.68
38.34
36.93
34.58
31.57
28.18
24.63
21.01
17.31
13.46
9.35
4.96
0.39
-4.23
-8.69
-12.73
-16.2
-19.05
-21.39
-23.53
-25.86
-28.75
-32.29
-36.18
-39.62
-41.47
-40.67
-36.55
-29.15
-19.2
-7.89
3.56
14.16
23.34
30.87
36.7
40.85
43.31
44.14
43.53
41.88
39.73
37.55
35.71
34.25
32.97
31.55
29.77
27.57
25.14
22.78
20.73
19.06
17.62
16.19
14.58
12.7
10.61
8.44
6.26
4.08
1.78
-0.73
-3.5
-6.5
-9.52
-12.32
-14.65
-16.32
-17.35
-17.91
-18.36
-19.11
-20.49
-22.67
-25.59
-28.91
-32.0
-34.13
-34.5
-32.49
-27.85
-20.8
-12.01
-2.41
7.06
15.63
22.77
28.17
31.6
32.9
32.01
29.19
24.96
20.05
15.24
11.11
7.88
5.49
3.65
2.07
0.56
-0.88
-2.16
-3.13
-3.69
-3.83
-3.64
-3.29
-2.99
-2.91
-3.15
-3.67
-4.31
-4.8
-4.86
-4.29
-3.01
-1.11
1.15
3.45
5.39
6.6
6.9
6.36
5.5
5.14
6.19
9.46
15.28
23.47
33.38
44.05
54.5
63.85
71.41
76.73
79.55
79.9
78.01
74.3
69.21
63.11
56.19
48.56
40.36
31.85
23.46
15.76
9.24
4.25
0.85
-1.16
-2.17
-2.66
-3.05
-3.57
-4.3
-5.06
-5.64
-5.82
-5.53
-4.83
-3.98
-3.33
-3.18
-3.83
-5.37
-7.8
-10.88
-14.25
-17.38
-19.73
-20.88
-20.54
-18.7
-15.53
-11.35
-6.55
-1.54
3.24
7.33
10.21
11.46
10.79
8.2
3.98
-1.34
-7.11
-12.67
-17.49
-21.27
-24.12
-26.6
-29.68
-34.35
-41.3
-50.48
-61.2
-72.31
-82.84
-92.28
-100.74
-108.63
-116.26
-123.47
-129.58
-133.54
-134.32
-131.16
-123.84
-112.72
-98.68
-82.99
-66.98
-51.76
-38.08
-26.18
-15.94
-7.07
0.71
7.53
13.42
18.32
22.22
25.17
27.29
28.66
29.33
29.23
28.25
26.31
23.46
19.93
16.16
12.65
9.88
8.06
7.14
6.81
6.65
6.25
5.44
4.25
2.86
1.47
0.1
-1.42
-3.36
-5.97
-9.34
-13.38
-17.93
-22.79
-27.88
-33.11
-38.46
-43.83
-49.14
-54.4
-59.81
-65.62
-71.91
-78.33
-83.93
-87.35
-87.23
-82.73
-73.91
-61.66
-47.4
-32.5
-17.95
-4.17
8.69
20.55
31.14
40.06
46.98
51.8
54.76
56.33
57.02
57.18
56.94
56.32
55.34
54.13
52.86
51.72
50.71
49.71
48.41
46.53
43.89
40.5
36.57
32.34
28.07
23.91
19.96
16.26
12.78
9.48
6.2
2.84
-0.74
-4.54
-8.4
-12.12
-15.45
-18.24
-20.56
-22.64
-24.76
-27.24
-30.29
-34.04
-38.41
-43.04
-47.27
-50.14
-50.66
-48.14
-42.44
-34.1
-24.13
-13.66
-3.67
5.22
12.76
18.87
23.58
26.88
28.84
29.57
29.34
28.49
27.36
26.13
24.86
23.42
21.64
19.39
16.73
13.9
11.23
8.86
6.76
4.65
2.19
-0.9
-4.74
-9.16
-13.74
-18.15
-22.39
-26.68
-31.31
-36.39
-41.77
-47.17
-51.96
-55.44
-57.12
-56.91
-54.88
-50.85
-44.32
-34.77
-22.08
-6.52
11.14
29.32
45.51
57.05
61.85
59.13
49.61
35.39
20.26
9.04
6.2
14.37
33.94
63.18
98.9
137.34
171.25
192.74
197.43
187.4
169.13
148.74
129.05
110.17
91.61
73.79
58.75
49.06
46.86
50.2
55.53
59.22
59.01
54.54
47.04
38.85
32.47
29.47
29.69
31.72
33.77
33.98
30.77
23.19
11.5
-2.81
-17.56
-30.81
-41.34
-48.96
-54.42
-58.97
-63.81
-69.47
-75.61
-81.3
-85.34
-86.44
-83.53
-76.14
-64.54
-49.74
-33.13
-16.0
0.81
17.0
32.66
47.78
61.79
73.4
80.7
81.89
76.05
63.86
47.59
30.59
16.22
6.81
3.08
4.37
9.37
16.93
26.53
37.96
50.47
62.13
69.92
70.73
62.92
47.43
27.73
8.56
-6.09
-14.64
-18.39
-20.58
-24.66
-32.55
-43.98
-56.95
-69.12
-79.08
-87.01
-94.4
-103.1
-114.39
-128.32
-143.7
-158.52
-170.32
-176.61
-175.2
-164.58
-144.56
-116.96
-85.81
-56.63
-34.83
-23.52
-22.02
-25.95
-29.13
-26.47
-16.47
-1.74
12.48
21.21
22.46
18.08
12.64
10.87
15.3
25.27
37.88
49.89
59.49
66.89
73.42
80.07
86.36
90.38
89.83
83.42
71.86
57.7
44.24
34.04
27.88
24.63
22.0
17.87
11.32
3.02
-5.3
-11.75
-15.31
-16.22
-15.66
-15.02
-15.14
-15.96
-16.83
-16.99
-16.17
-14.77
-13.63
-13.55
-15.06
-18.23
-22.78
-28.28
-34.12
-39.55
-43.68
-45.65
-44.9
-41.46
-35.94
-29.35
-22.7
-16.69
-11.57
-7.26
-3.64
-0.67
1.65
3.37
4.83
6.55
9.05
12.52
16.65
20.7
23.8
25.28
24.98
23.19
20.48
17.43
14.51
11.93
9.77
8.02
6.68
5.66
4.85
4.04
2.98
1.45
-0.58
-3.02
-5.56
-7.96
-10.16
-12.36
-14.92
-18.15
-22.05
-26.13
-29.58
-31.57
-31.52
-29.37
-25.51
-20.61
-15.32
-10.15
-5.4
-1.27
2.13
4.88
7.2
9.39
11.8
14.65
18.0
21.7
25.25
28.14
30.06
30.95
31.02
30.51
29.57
28.22
26.34
23.49
19.42
14.27
8.6
3.08
-1.75
-5.6
-8.4
-10.24
-12.17
-15.09
-19.26
-24.23
-29.32
-34.02
-38.15
-41.7
-44.6
-48.46
-54.32
-61.76
-68.99
-73.97
-75.38
-72.92
-66.97
-58.19
-50.23
-46.12
-47.08
-52.23
-59.99
-69.15
-79.24
-90.05
-101.45
-117.18
-140.23
-170.92
-206.58
-243.34
-277.87
-308.51
-334.55
-332.87
-290.91
-212.6
-117.03
-25.11
50.53
106.1
141.98
160.41
164.63
155.22
134.69
108.54
84.27
66.19
57.77
58.94
67.61
81.18
94.64
104.73
111.24
116.78
124.6
137.67
155.5
176.08
196.73
213.02
221.68
221.94
215.61
205.59
195.4
187.11
181.46
177.34
171.08
158.38
136.48
107.86
74.71
42.04
15.07
-2.92
-12.0
-15.45
-17.58
-21.35
-27.13
-33.72
-38.86
-41.41
-41.84
-41.8
-42.91
-45.83
-50.1
-53.28
-54.3
-52.93
-50.34
-48.54
-49.56
-54.2
-61.48
-68.95
-73.75
-74.36
-70.65
-63.97
-56.08
-48.09
-40.05
-31.27
-21.25
-10.35
-0.04
8.13
13.24
15.43
15.81
15.84
16.69
19.01
22.91
28.15
34.4
41.14
47.46
52.09
53.9
52.44
48.46
43.82
40.87
41.53
46.41
54.43
63.18
69.76
72.0
69.32
62.98
55.44
49.18
45.49
43.83
42.15
38.01
29.85
17.82
3.67
-9.98
-20.9
-28.09
-31.98
-33.93
-35.41
-37.23
-39.2
-40.28
-38.96
-33.71
-23.45
-7.96
11.69
32.8
51.15
61.81
60.58
45.45
17.61
-18.67
-57.34
-92.27
-118.97
-135.67
-143.47
-145.64
-146.33
-149.07
-155.76
-166.28
-178.97
-191.54
-201.8
-208.06
-208.88
-202.69
-187.62
-162.16
-126.27
-82.24
-34.86
9.55
44.84
66.72
73.86
67.97
53.02
33.91
15.03
-0.69
-12.02
-18.88
-21.66
-20.54
-15.65
-7.33
3.42
14.93
25.45
33.91
40.43
46.19
52.84
61.54
72.36
84.16
95.01
102.89
106.43
105.44
100.91
94.66
88.6
83.95
80.86
78.4
75.28
70.58
64.17
56.58
48.51
40.24
31.75
23.1
15.13
9.53
8.23
12.24
20.75
31.04
39.56
43.42
41.73
35.89
28.87
23.82
22.86
26.42
33.34
41.46
48.41
52.17
51.59
46.63
38.44
29.21
21.61
17.94
19.35
25.37
34.16
43.38
51.16
56.78
60.65
63.71
66.57
69.0
69.92
68.04
62.47
53.28
41.61
29.39
18.72
11.27
7.84
8.37
12.25
18.73
27.28
37.31
47.84
57.2
63.15
63.73
58.12
47.26
33.49
19.55
7.36
-2.61
-11.18
-19.58
-28.5
-37.73
-46.36
-53.35
-57.99
-59.9
-58.9
-54.83
-47.6
-37.61
-26.1
-15.09
-6.85
-3.06
-4.07
-8.65
-14.55
-19.39
-21.71
-21.38
-19.4
-17.23
-15.93
-15.79
-16.35
-16.83
-16.64
-15.69
-14.28
-12.86
-11.64
-10.41
-8.55
-5.3
-0.03
7.4
16.51
26.27
35.29
42.28
46.39
47.52
46.23
43.53
40.34
37.1
33.67
29.51
24.05
17.16
9.42
1.9
-4.11
-7.66
-8.7
-8.2
-7.92
-9.68
-14.54
-22.43
-32.28
-42.78
-53.18
-63.72
-75.61
-90.58
-110.3
-135.79
-166.99
-202.52
-239.58
-274.24
-302.12
-319.36
-323.55
-314.31
-293.26
-263.36
-228.11
-190.69
-153.59
-118.5
-86.53
-58.55
-35.45
-18.05
-6.95
-2.18
-3.1
-8.56
-17.37
-28.52
-40.94
-53.11
-62.94
-68.15
-67.05
-59.51
-47.21
-33.03
-19.88
-9.73
-3.0
1.17
4.45
8.87
16.25
27.76
43.27
60.95
77.47
88.95
92.34
86.74
73.54
55.71
36.38
17.81
1.07
-13.51
-25.66
-34.78
-40.17
-41.67
-40.05
-37.04
-34.82
-35.37
-39.88
-48.28
-59.28
-70.61
-79.47
-83.09
-79.18
-66.21
-43.91
-13.61
21.49
56.69
86.93
108.36
119.71
122.71
121.17
119.16
119.31
122.08
126.34
130.77
135.03
139.81
145.87
153.04
159.85
164.18
164.54
160.83
154.3
146.78
139.52
132.84
126.29
119.34
112.01
105.02
99.37
95.88
94.69
95.27
96.53
97.06
95.33
90.19
81.13
68.67
54.18
39.58
26.73
16.99
10.94
8.31
8.02
8.3
6.86
1.36
-9.96
-27.61
-50.56
-76.39
-101.95
-124.06
-140.11
-148.46
-148.49
-140.68
-126.51
-108.13
-87.97
-68.15
-50.1
-34.37
-20.86
-9.14
1.18
10.36
18.5
25.68
32.03
37.73
42.87
47.38
50.96
53.32
54.36
54.4
54.08
54.13
54.95
56.38
57.65
57.76
55.98
52.16
46.77
40.63
34.47
28.61
22.86
16.65
9.31
0.4
-10.09
-21.63
-33.26
-43.68
-51.65
-56.21
-56.98
-54.21
-48.67
-41.41
-33.43
-25.58
-18.43
-12.35
-7.62
-4.35
-2.52
-1.87
-2.01
-2.47
-2.92
-3.22
-3.46
-3.87
-4.6
-5.63
-6.76
-7.65
-8.09
-8.01
-7.61
-7.19
-7.08
-7.49
-8.43
-9.77
-11.34
-12.98
-14.66
-16.43
-18.44
-20.84
-23.83
-27.54
-31.89
-36.51
-40.64
-43.25
-43.27
-39.94
-33.12
-23.39
-11.91
-0.05
11.01
20.52
28.2
34.1
38.34
41.07
42.37
42.41
41.47
39.95
38.22
36.59
35.19
34.02
32.98
31.98
30.93
29.77
28.47
26.99
25.33
23.46
21.33
18.85
15.93
12.49
8.54
4.19
-0.37
-4.9
-9.21
-13.21
-16.98
-20.82
-25.09
-30.08
-35.81
-41.84
-47.32
-51.12
-52.22
-50.02
-44.54
-36.36
-26.45
-15.82
-5.35
4.38
13.02
20.36
26.25
30.56
33.16
34.06
33.46
31.75
29.45
27.1
25.11
23.7
22.83
22.35
22.02
21.75
21.5
21.35
21.34
21.43
21.49
21.31
20.64
19.32
17.27
14.58
11.45
8.11
4.77
1.47
-1.81
-5.19
-8.78
-12.73
-17.21
-22.33
-28.09
-34.23
-40.09
-44.68
-46.94
-46.03
-41.68
-34.35
-25.08
-15.18
-5.87
2.09
8.39
13.16
16.68
19.21
20.82
21.41
20.75
18.63
15.03
10.15
4.47
-1.29
-6.21
-9.39
-10.06
-7.75
-2.46
5.34
14.79
24.83
34.42
42.74
49.37
54.38
58.27
61.88
66.18
71.87
79.12
87.34
95.22
101.09
103.42
101.17
93.99
82.09
66.13
47.27
27.26
8.47
-6.57
-15.98
-19.36
-18.21
-15.32
-13.63
-14.92
-19.2
-24.98
-30.35
-34.02
-35.78
-36.33
-36.6
-37.16
-38.06
-39.08
-40.03
-40.94
-41.96
-43.16
-44.32
-44.92
-44.41
-42.34
-38.69
-33.77
-28.23
-22.85
-18.31
-15.07
-13.24
-12.67
-13.03
-13.95
-15.21
-16.77
-18.67
-21.01
-23.75
-26.71
-29.58
-32.1
-34.17
-35.94
-37.83
-40.25
-43.5
-47.47
-51.57
-54.84
-56.19
-54.74
-50.07
-42.38
-32.39
-21.18
-9.9
0.48
9.31
16.33
21.58
25.32
27.82
29.32
29.91
29.65
28.6
26.92
24.88
22.76
20.81
19.15
17.82
16.83
16.2
15.94
16.01
16.25
16.43
16.28
15.62
14.44
12.84
10.96
8.85
6.42
3.53
0.12
-3.66
-7.52
-11.07
-14.04
-16.42
-18.39
-20.33
-22.6
-25.46
-28.95
-32.89
-36.79
-39.91
-41.42
-40.57
-36.96
-30.75
-22.59
-13.49
-4.49
3.58
10.3
15.53
19.35
21.84
23.02
22.95
21.75
19.67
17.08
14.37
11.84
9.66
7.92
6.66
5.89
5.7
6.08
6.99
8.22
9.5
10.58
11.25
11.43
11.13
10.45
9.46
8.14
6.38
4.01
0.86
-3.05
-7.57
-12.4
-17.18
-21.66
-25.75
-29.59
-33.42
-37.53
-42.08
-47.06
-52.11
-56.56
-59.52
-60.05
-57.43
-51.43
-42.43
-31.35
-19.46
-7.98
2.13
10.38
16.7
21.3
24.45
26.4
27.35
27.45
26.87
25.81
24.53
23.23
22.1
21.24
20.67
20.31
20.0
19.6
18.93
17.84
16.21
13.99
11.22
8.01
4.58
1.17
-2.06
-5.02
-7.8
-10.5
-13.28
-16.18
-19.15
-22.07
-24.76
-27.09
-29.05
-30.76
-32.43
-34.35
-36.82
-39.93
-43.41
-46.6
-48.47
-47.91
-44.09
-36.8
-26.58
-14.57
-2.17
9.41
19.4
27.53
33.88
38.61
41.85
43.7
44.27
43.84
42.72
41.22
39.48
37.5
35.23
