11.95
12.16
12.2
12.23
12.35
12.6
12.91
13.26
13.61
13.95
14.25
14.46
14.56
14.52
14.33
13.98
13.47
12.75
11.79
10.61
9.23
7.74
6.21
4.76
3.42
2.2
1.06
-0.06
-1.25
-2.55
-3.96
-5.44
-6.94
-8.39
-9.78
-11.14
-12.53
-14.03
-15.71
-17.6
-19.68
-21.89
-23.99
-25.64
-26.44
-25.99
-24.11
-20.87
-16.64
-11.97
-7.41
-3.34
0.13
3.07
5.65
8.01
10.13
11.92
13.28
14.13
14.55
14.65
14.59
14.49
14.41
14.38
14.45
14.66
15.0
15.45
15.89
16.16
16.13
15.71
14.9
13.79
12.5
11.16
9.87
8.72
7.74
6.88
6.06
5.16
4.04
2.62
0.95
-0.84
-2.6
-4.22
-5.74
-7.24
-8.84
-10.57
-12.39
-14.22
-16.0
-17.83
-19.8
-21.92
-23.98
-25.56
-26.14
-25.38
-23.2
-19.83
-15.72
-11.32
-6.98
-2.88
0.84
4.08
6.75
8.76
10.16
11.08
11.66
12.05
12.27
12.33
12.25
12.12
12.12
12.41
13.05
13.97
14.93
15.66
15.95
15.7
14.99
13.97
12.77
11.52
10.29
9.09
7.97
6.93
5.98
5.07
4.12
3.05
1.8
0.35
-1.26
-2.95
-4.64
-6.3
-7.89
-9.41
-10.82
-12.13
-13.32
-14.5
-15.82
-17.47
-19.59
-22.14
-24.84
-27.23
-28.69
-28.74
-27.13
-23.95
-19.6
-14.58
-9.43
-4.55
-0.24
3.37
6.22
8.33
9.8
10.73
11.25
11.5
11.54
11.43
11.27
11.12
11.04
11.12
11.37
11.76
12.29
12.87
13.45
13.93
14.24
14.33
14.19
13.81
13.24
12.5
11.62
10.65
9.62
8.51
7.3
5.93
4.35
2.6
0.77
-1.01
-2.63
-4.11
-5.51
-6.94
-8.47
-10.07
-11.66
-13.16
-14.6
-16.07
-17.77
-19.84
-22.22
-24.67
-26.69
-27.77
-27.45
-25.55
-22.22
-17.85
-12.93
-7.94
-3.26
0.89
4.36
7.07
9.0
10.16
10.69
10.78
10.67
10.55
10.56
10.73
11.03
11.34
11.58
11.74
11.85
12.0
12.25
12.58
12.92
13.13
13.08
12.68
11.94
10.87
9.55
8.05
6.47
4.91
3.46
2.22
1.19
0.3
-0.54
-1.47
-2.56
-3.85
-5.28
-6.8
-8.32
-9.81
-11.26
-12.8
-14.58
-16.75
-19.33
-22.11
-24.61
-26.23
-26.42
-24.91
-21.77
-17.44
-12.51
-7.56
-3.02
0.92
4.21
6.93
9.11
10.8
11.98
12.67
12.91
12.8
12.5
12.18
11.96
11.9
11.96
12.11
12.29
12.48
12.64
12.74
12.68
12.4
11.82
10.95
9.88
8.74
7.67
6.76
6.06
5.56
5.18
4.78
4.24
3.42
2.27
0.8
-0.9
-2.75
-4.68
-6.66
-8.66
-10.64
-12.57
-14.44
-16.28
-18.17
-20.26
-22.61
-25.13
-27.57
-29.46
-30.31
-29.72
-27.52
-23.86
-19.15
-13.94
-8.7
-3.8
0.59
4.43
7.71
10.42
12.54
14.11
15.19
15.91
16.4
16.79
17.11
17.41
17.65
17.8
17.83
17.75
17.59
17.41
17.25
17.05
16.68
15.96
14.73
13.0
10.9
8.69
6.65
4.93
3.55
2.36
1.16
-0.23
-1.92
-3.88
-6.02
-8.19
-10.25
-12.07
-13.62
-14.9
-15.98
-17.02
-18.23
-19.82
-21.87
-24.3
-26.78
-28.8
-29.79
-29.29
-27.09
-23.34
-18.47
-13.11
-7.85
-3.12
0.87
4.18
6.93
9.21
11.02
12.28
12.94
13.05
12.78
12.35
11.96
11.72
11.67
11.79
12.03
12.38
12.8
13.23
13.61
13.84
13.86
13.58
12.95
11.93
10.57
8.98
7.35
5.88
4.68
3.67
2.71
1.59
0.21
-1.4
-3.1
-4.75
-6.28
-7.73
-9.24
-10.96
-12.96
-15.25
-17.7
-20.11
-22.19
-23.61
-23.99
-23.07
-20.74
-17.16
-12.68
-7.8
-3.0
1.39
5.21
8.42
11.02
12.95
14.14
14.55
14.26
13.51
12.6
11.85
11.44
11.38
11.53
11.7
11.76
11.66
11.45
11.22
11.05
10.99
11.01
11.05
10.98
10.68
10.04
9.05
7.75
6.3
4.88
3.59
2.45
1.34
0.09
-1.4
-3.12
-4.97
-6.78
-8.42
-9.93
-11.4
-12.95
-14.7
-16.64
-18.74
-20.92
-23.09
-25.11
-26.77
-27.73
-27.63
-26.23
-23.45
-19.48
-14.71
-9.62
-4.67
-0.19
3.64
6.77
9.24
11.11
12.44
13.3
13.72
13.76
13.53
13.15
12.77
12.56
12.63
12.99
13.59
14.33
15.09
15.74
16.21
16.44
16.36
15.94
15.12
13.94
12.46
10.86
9.3
7.91
6.68
5.47
4.14
2.57
0.75
-1.22
-3.16
-4.95
-6.55
-8.0
-9.4
-10.89
-12.55
-14.38
-16.39
-18.52
-20.71
-22.83
-24.71
-26.05
-26.46
-25.61
-23.28
-19.56
-14.81
-9.6
-4.53
-0.06
3.58
6.38
8.44
9.9
10.86
11.39
11.59
11.59
11.53
11.51
11.61
11.82
12.09
12.41
12.76
13.16
13.6
14.07
14.46
14.68
14.65
14.29
13.59
12.56
11.24
9.73
8.16
6.61
5.16
3.78
2.39
0.91
-0.74
-2.54
-4.42
-6.25
-7.95
-9.52
-11.05
-12.7
-14.67
-17.01
-19.65
-22.35
-24.71
-26.28
-26.65
-25.57
-22.98
-19.1
-14.32
-9.17
-4.14
0.41
4.25
7.31
9.59
11.11
11.95
12.21
12.08
11.78
11.45
11.17
10.89
10.51
10.0
9.43
8.94
8.7
8.8
9.15
9.59
9.88
9.87
9.49
8.79
7.89
6.89
5.86
4.79
3.67
2.43
1.01
-0.6
-2.42
-4.42
-6.51
-8.6
-10.59
-12.41
-14.05
-15.63
-17.28
-19.14
-21.29
-23.6
-25.81
-27.46
-28.06
-27.18
-24.63
-20.55
-15.37
-9.75
-4.33
0.42
4.3
7.4
9.9
11.95
13.54
14.6
15.01
14.82
14.26
13.66
13.32
13.34
13.63
13.94
14.06
13.89
13.52
13.13
12.85
12.69
12.49
12.03
11.18
9.94
8.48
7.03
5.76
4.68
3.7
2.61
1.28
-0.33
-2.16
-4.03
-5.82
-7.46
-8.99
-10.51
-12.16
-14.07
-16.31
-18.89
-21.66
-24.4
-26.73
-28.26
-28.59
-27.46
-24.83
-20.92
-16.12
-10.95
-5.85
-1.18
2.91
6.35
9.13
11.23
12.64
13.39
13.55
13.33
12.97
12.67
12.56
12.67
12.9
13.15
13.34
13.47
13.54
13.6
13.59
13.43
13.03
12.31
11.28
10.03
8.68
7.33
5.98
4.56
2.97
1.12
-1.0
-3.3
-5.62
-7.81
-9.8
-11.62
-13.39
-15.26
-17.36
-19.7
-22.13
-24.38
-26.07
-26.77
-26.16
-24.1
-20.7
-16.27
-11.26
-6.14
-1.25
3.16
6.94
9.98
12.23
13.66
14.36
14.51
14.36
14.15
14.0
13.94
13.87
13.72
13.42
13.0
12.55
12.16
11.88
11.7
11.58
11.42
11.16
10.73
10.1
9.23
8.13
6.78
5.19
3.38
1.4
-0.68
-2.78
-4.85
-6.84
-8.8
-10.77
-12.83
-15.09
-17.63
-20.48
-23.48
-26.32
-28.46
-29.29
-28.36
-25.51
-21.03
-15.52
-9.69
-4.17
0.67
4.72
8.0
10.57
12.43
13.56
14.01
13.92
13.52
13.08
12.79
12.72
12.79
12.88
12.91
12.88
12.88
12.97
13.13
13.23
13.07
12.48
11.43
10.0
8.42
6.9
5.58
4.46
3.44
2.33
1.02
-0.57
-2.38
-4.31
-6.23
-8.07
-9.86
-11.71
-13.8
-16.25
-19.12
-22.33
-25.58
-28.45
-30.46
-31.12
-30.12
-27.39
-23.15
-17.86
-12.11
-6.41
-1.16
3.41
7.26
10.4
12.85
14.62
15.73
16.24
16.28
15.98
15.51
14.99
14.51
14.15
14.0
14.14
14.56
15.21
15.95
16.58
16.91
16.78
16.13
14.97
13.38
11.52
9.57
7.67
5.91
4.24
2.55
0.72
-1.3
-3.48
-5.68
-7.79
-9.77
-11.68
-13.68
-15.91
-18.47
-21.38
-24.5
-27.59
-30.29
-32.15
-32.73
-31.71
-29.02
-24.85
-19.66
-13.98
-8.33
-3.1
1.55
5.55
8.93
11.67
13.7
14.95
15.43
15.28
14.79
14.33
14.13
14.32
14.82
15.51
16.23
16.89
17.44
17.86
18.06
17.98
17.57
16.84
15.82
14.54
12.97
11.05
8.8
6.33
3.85
1.57
-0.4
-2.1
-3.69
-5.34
-7.17
-9.26
-11.61
-14.22
-17.0
-19.71
-21.89
-23.01
-22.59
-20.42
-16.68
-11.84
-6.57
-1.47
3.05
6.79
9.71
11.82
13.12
13.59
13.25
12.18
10.6
8.86
7.32
6.3
5.94
6.17
6.72
7.27
7.6
7.66
7.6
7.6
7.77
8.06
8.26
8.12
7.43
6.16
4.36
2.22
-0.11
-2.52
-4.95
-7.38
-9.8
-12.27
-14.87
-17.76
-21.09
-24.96
-29.27
-33.68
-37.63
-40.42
-41.46
-40.43
-37.42
-32.89
-27.5
-21.9
-16.58
-11.78
-7.55
-3.89
-0.79
1.69
3.53
4.76
5.51
6.01
6.47
7.08
7.88
8.84
9.87
10.92
11.97
13.06
14.21
15.38
16.38
17.0
17.05
16.43
15.24
13.69
12.04
10.48
9.08
7.72
6.2
4.26
1.72
-1.48
-5.21
-9.04
-12.39
-14.52
-14.84
-13.05
-9.24
-3.98
1.98
7.86
13.06
17.27
20.42
22.57
23.8
24.16
23.71
22.53
20.81
18.79
16.7
14.68
12.79
11.02
9.39
8.04
7.18
6.98
7.42
8.22
8.91
9.04
8.37
7.01
5.28
3.58
2.12
0.82
-0.6
-2.49
-5.13
-8.63
-12.91
-17.69
-22.56
-26.94
-30.19
-31.71
-31.08
-28.24
-23.5
-17.44
-10.76
-4.11
2.06
7.49
12.05
15.7
18.44
20.28
21.29
21.59
21.3
20.57
19.52
18.24
16.84
15.42
14.1
13.01
12.2
11.68
11.31
10.9
10.2
9.0
7.2
4.86
2.19
-0.53
-3.1
-5.43
-7.65
-9.96
-12.6
-15.72
-19.33
-23.19
-26.84
-29.71
-31.16
-30.73
-28.21
-23.78
-18.02
-11.68
-5.44
0.26
5.29
9.75
13.73
17.26
20.19
22.16
22.89
22.35
20.79
18.63
16.34
14.23
12.55
11.3
10.14
8.72
6.98
5.0
2.98
1.13
-0.44
-1.56
-2.28
-3.3
-5.28
-8.38
-12.4
-16.83
-21.07
-24.68
-27.15
-28.42
-29.66
-32.06
-36.13
-41.89
-48.86
-56.15
-62.5
-65.98
-64.63
-58.07
-46.75
-31.66
-14.76
1.6
15.55
23.23
22.65
20.28
21.24
25.96
34.23
44.75
55.84
65.94
74.0
79.76
82.98
82.08
75.44
62.47
43.54
20.28
-4.64
-28.1
-46.91
-58.97
-64.56
-65.36
-63.53
-61.43
-60.94
-62.9
-67.03
-71.92
-75.77
-77.47
-76.42
-72.34
-65.58
-56.82
-46.92
-36.78
-27.14
-18.61
-11.85
-7.09
-3.94
-1.59
0.98
4.82
10.69
18.84
28.89
39.82
50.38
59.55
66.79
72.18
76.25
79.67
82.89
85.99
88.75
90.76
91.65
91.24
89.5
86.61
82.9
78.81
74.76
71.05
67.71
64.47
60.94
56.79
51.98
46.73
41.47
36.53
32.09
28.0
24.02
19.89
15.47
10.86
6.31
2.24
-0.86
-2.52
-2.45
-0.61
2.77
7.21
12.18
17.26
22.24
27.07
31.72
36.03
39.72
42.32
43.41
42.62
39.79
34.93
28.25
20.11
10.99
1.36
-8.44
-18.26
-28.18
-38.34
-48.72
-59.0
-68.55
-76.65
-82.7
-86.4
-87.8
-87.04
-84.31
-79.74
-73.61
-66.46
-59.22
-53.0
-48.86
-47.46
-48.83
-52.44
-57.3
-62.32
-66.44
-68.91
-69.31
-67.57
-63.91
-58.72
-52.41
-45.31
-37.64
-29.49
-20.94
-12.07
-3.08
5.82
14.31
22.08
28.81
34.26
38.33
41.07
42.67
43.36
43.3
42.57
41.2
39.21
36.72
33.94
30.97
27.79
24.21
19.96
14.9
9.13
3.03
-2.92
-8.31
-12.96
-16.94
-20.38
-23.42
-26.04
-28.16
-29.66
-30.56
-30.96
-31.0
-30.8
-30.23
-29.08
-27.07
-24.03
-19.86
-14.59
-8.18
-0.65
7.72
16.67
25.66
34.0
40.99
46.16
49.31
50.8
51.17
50.75
50.13
49.76
50.13
51.8
55.33
60.98
69.03
79.25
90.85
103.32
116.18
129.03
141.53
153.14
162.89
170.03
173.71
169.84
155.92
131.84
100.68
67.66
39.24
16.88
-0.2
-13.92
-26.74
-40.04
-55.05
-73.05
-95.33
-122.66
-154.55
-188.0
-218.01
-239.05
-246.46
-238.54
-217.19
-187.07
-153.86
-122.45
-95.34
-73.0
-55.02
-40.73
-29.93
-22.63
-18.5
-16.53
-15.27
-13.12
-9.2
-3.72
2.2
7.14
10.05
10.71
9.7
8.02
6.66
6.12
6.27
6.66
6.8
6.42
5.58
4.53
3.45
2.4
1.18
-0.56
-3.14
-6.73
-11.24
-16.4
-21.81
-27.09
-31.99
-36.31
-39.92
-42.64
-44.16
-44.11
-42.14
-38.08
-32.04
-24.46
-15.93
-6.99
1.92
10.61
18.99
26.9
34.1
40.18
44.8
47.69
48.85
48.49
46.97
44.73
42.08
39.18
36.02
32.56
28.78
24.76
20.72
16.82
13.14
9.58
5.98
2.26
-1.45
-4.84
-7.62
-9.65
-11.15
-12.6
-14.52
-17.26
-20.92
-25.27
-29.95
-34.52
-38.49
-41.39
-42.76
-42.31
-39.98
-36.06
-31.1
-25.72
-20.5
-15.73
-11.43
-7.47
-3.71
-0.14
3.1
5.86
8.09
9.95
11.75
13.86
16.42
19.36
22.37
25.1
27.35
29.14
30.63
31.91
32.88
33.22
32.54
30.67
27.69
23.94
19.86
15.78
11.83
8.03
4.34
0.81
-2.44
-5.39
-8.1
-10.76
-13.43
-15.93
-17.74
-18.08
-16.27
-12.03
-5.65
2.05
10.03
17.3
23.24
27.65
30.61
32.34
33.03
32.81
31.79
30.16
28.21
26.28
24.71
23.7
23.3
23.37
23.65
23.86
23.74
23.07
21.7
19.56
16.65
13.06
9.0
4.77
0.67
-3.05
-6.31
-9.17
-11.75
-14.12
-16.22
-17.88
-18.93
-19.28
-19.05
-18.53
-18.04
-17.94
-18.37
-19.27
-20.34
-21.13
-21.17
-20.14
-17.98
-14.92
-11.36
-7.69
-4.18
-0.88
2.28
5.36
8.28
10.87
12.9
14.25
14.96
15.21
15.22
15.1
14.85
14.38
13.61
12.6
11.53
10.67
10.22
10.13
10.14
9.8
8.72
6.69
3.85
0.61
-2.56
-5.27
-7.43
-9.19
-10.83
-12.59
-14.51
-16.48
-18.34
-19.99
-21.49
-23.02
-24.85
-27.13
-29.86
-32.81
-35.57
-37.55
-38.17
-36.97
-33.72
-28.53
-21.83
-14.23
-6.39
1.09
7.75
13.29
17.57
20.6
22.52
23.54
23.9
23.83
23.47
22.93
22.3
21.64
21.03
20.52
20.13
19.86
19.67
19.52
19.3
18.88
18.11
16.91
15.23
13.11
10.63
7.84
4.74
1.3
-2.54
-6.73
-11.17
-15.68
-20.1
-24.32
-28.26
-31.92
-35.33
-38.56
-41.62
-44.45
-46.83
-48.39
-48.63
-47.14
-43.7
-38.46
-31.89
-24.65
-17.38
-10.57
-4.52
0.59
4.63
7.48
9.08
9.49
8.94
7.82
6.55
5.51
4.94
4.94
5.41
6.18
7.0
7.67
8.05
8.09
7.86
7.44
6.9
6.25
5.36
4.07
2.23
-0.21
-3.14
-6.34
-9.52
-12.43
-14.92
-16.94
-18.52
-19.75
-20.77
-21.8
-23.02
-24.47
-26.01
-27.24
-27.58
-26.53
-23.8
-19.45
-13.88
-7.63
-1.33
4.48
9.42
13.27
16.01
17.77
18.81
19.41
19.77
20.03
20.19
20.19
20.0
19.65
19.23
18.87
18.69
18.71
18.89
19.07
19.07
18.73
17.95
16.73
15.14
13.28
11.27
9.14
6.89
4.45
1.75
-1.25
-4.49
-7.76
-10.84
-13.51
-15.68
-17.37
-18.74
-20.04
-21.56
-23.55
-26.13
-29.14
-32.12
-34.35
-35.02
-33.54
-29.74
-23.94
-16.85
-9.31
-2.03
4.52
10.12
14.75
18.41
21.14
22.95
23.87
23.96
23.33
22.17
20.73
19.27
18.0
17.04
16.44
16.25
16.52
17.28
18.47
19.88
21.12
21.81
21.67
20.68
19.03
17.02
14.94
12.91
10.9
8.8
6.49
3.89
1.08
-1.77
-4.47
-6.84
-8.83
-10.53
-12.16
-13.97
-16.22
-19.06
-22.53
-26.47
-30.47
-33.88
-35.88
-35.72
-32.99
-27.78
-20.7
-12.67
-4.64
2.68
8.96
14.12
18.19
21.21
23.14
24.01
23.98
23.33
22.45
21.64
21.1
20.85
20.8
20.81
20.78
20.66
20.5
20.35
20.27
20.24
20.14
19.79
18.97
17.57
15.6
13.22
10.68
8.24
6.07
4.21
2.58
0.98
-0.77
-2.77
-4.99
-7.25
-9.32
-11.04
-12.39
-13.57
-14.89
-16.72
-19.29
-22.69
-26.75
-31.13
-35.24
-38.42
-39.98
-39.39
-36.49
-31.53
-25.11
-18.05
-11.15
-5.01
0.07
4.03
6.97
9.01
10.24
10.73
10.6
9.99
9.15
8.31
7.7
7.4
7.4
7.59
7.82
7.94
7.89
7.63
7.15
6.45
5.51
4.34
2.9
1.2
-0.79
-3.05
-5.55
-8.31
-11.26
-14.29
-17.22
-19.81
-21.8
-23.02
-23.42
-23.03
-21.94
-20.33
-18.37
-16.3
-14.22
-12.12
-9.72
-6.52
-2.02
4.06
11.58
20.03
28.62
36.53
43.14
48.06
51.12
52.26
51.5
48.9
44.67
39.17
32.93
26.52
20.48
15.22
10.97
7.8
5.66
4.39
3.76
3.55
3.53
3.53
3.4
3.01
2.31
1.26
-0.08
-1.63
-3.22
-4.68
-5.88
-6.83
-7.64
-8.42
-9.3
-10.32
-11.48
-12.77
-14.22
-15.91
-17.9
-20.19
-22.77
-25.57
-28.49
-31.35
-33.83
-35.45
-35.65
-33.99
-30.32
-24.91
-18.35
-11.39
-4.72
1.22
6.23
10.26
13.35
