-42.46
-42.57
-40.0
-34.8
-27.53
-19.15
-10.71
-3.06
3.32
8.3
11.98
14.6
16.3
17.18
17.31
16.79
15.81
14.65
13.62
13.0
12.95
13.52
14.65
16.16
17.86
19.49
20.82
21.68
21.93
21.53
20.53
19.06
17.25
15.24
13.11
10.9
8.6
6.21
3.74
1.21
-1.35
-3.91
-6.44
-8.96
-11.48
-14.04
-16.74
-19.68
-22.88
-26.15
-28.98
-30.66
-30.48
-27.99
-23.3
-17.05
-10.22
-3.76
1.71
6.01
9.27
11.74
13.55
14.69
15.13
14.92
14.23
13.35
12.5
11.84
11.41
11.18
11.16
11.35
11.81
12.5
13.31
14.01
14.31
14.0
12.93
11.22
9.12
6.97
5.03
3.41
1.96
0.41
-1.5
-3.88
-6.65
-9.54
-12.24
-14.59
-16.57
-18.34
-20.18
-22.35
-25.07
-28.39
-32.14
-35.9
-39.04
-40.81
-40.53
-37.81
-32.74
-25.84
-17.95
-9.99
-2.69
3.55
8.64
12.69
15.81
18.08
19.47
20.03
19.9
19.37
18.8
18.45
18.41
18.55
18.66
18.64
18.54
18.54
18.85
19.46
20.17
20.6
20.39
19.37
17.63
15.45
13.16
11.03
9.1
7.3
5.43
3.34
0.92
-1.82
-4.79
-7.85
-10.85
-13.66
-16.22
-18.58
-20.85
-23.24
-25.96
-29.16
-32.83
-36.66
-40.07
-42.29
-42.52
-40.27
-35.5
-28.68
-20.66
-12.37
-4.6
2.18
7.79
12.3
15.77
18.3
19.96
20.88
21.27
21.32
21.23
21.13
21.08
21.06
21.08
21.14
21.26
21.49
21.84
22.26
22.65
22.82
22.56
21.74
20.33
18.46
16.32
14.12
11.99
9.98
8.05
6.07
3.95
1.59
-1.01
-3.79
-6.61
-9.28
-11.63
-13.62
-15.32
-16.95
-18.81
-21.2
-24.3
-28.07
-32.18
-35.97
-38.64
-39.35
-37.6
-33.34
-27.02
-19.48
-11.65
-4.3
2.09
7.36
11.51
14.62
16.73
17.89
18.19
17.8
17.02
16.19
15.59
15.4
15.59
16.02
16.53
17.0
17.41
17.79
18.15
18.44
18.54
18.27
17.56
16.41
14.96
13.35
11.65
9.86
7.89
5.68
3.24
0.68
-1.88
-4.3
-6.54
-8.57
-10.45
-12.26
-14.14
-16.35
-19.12
-22.61
-26.73
-31.01
-34.69
-36.91
-36.98
-34.58
-29.89
-23.49
-16.17
-8.7
-1.69
4.43
9.45
13.28
15.97
17.59
18.28
18.23
17.62
16.74
15.83
15.17
14.95
15.23
15.9
16.82
17.81
18.76
19.67
20.54
21.31
21.76
21.57
20.47
18.4
15.58
12.46
9.52
7.07
5.1
3.33
1.38
-1.01
-3.77
-6.66
-9.33
-11.6
-13.55
-15.37
-17.33
-19.57
-22.14
-25.06
-28.35
-32.03
-35.97
-39.75
-42.66
-43.85
-42.64
-38.82
-32.69
-25.05
-16.86
-8.97
-1.95
3.94
8.68
12.4
15.22
17.22
18.46
19.04
19.07
18.77
18.39
18.2
18.37
18.96
19.85
20.88
21.85
22.66
23.28
23.68
23.83
23.64
23.0
21.86
20.28
18.37
16.29
14.19
12.15
10.22
8.38
6.56
4.64
2.53
0.13
-2.54
-5.4
-8.29
-11.05
-13.58
-15.84
-17.86
-19.69
-21.41
-23.16
-25.13
-27.54
-30.48
-33.82
-37.13
-39.68
-40.66
-39.39
-35.66
-29.75
-22.42
-14.61
-7.13
-0.48
5.22
10.02
14.0
17.13
19.3
20.4
20.54
20.04
19.34
18.84
18.79
19.19
19.9
20.7
21.43
21.95
22.21
22.14
21.73
21.0
20.03
18.9
17.71
16.5
15.32
14.16
13.06
11.99
10.87
9.53
7.83
5.75
3.37
0.91
-1.39
-3.44
-5.3
-7.2
-9.43
-12.23
-15.72
-19.84
-24.33
-28.72
-32.34
-34.49
-34.59
-32.36
-27.93
-21.86
-14.94
-8.0
-1.69
3.62
7.82
10.98
13.28
14.88
15.9
16.49
16.77
16.85
16.83
16.78
16.75
16.81
16.99
17.27
17.54
17.7
17.61
17.23
16.57
15.67
14.51
13.01
11.11
8.79
6.16
3.43
0.76
-1.82
-4.41
-7.2
-10.32
-13.72
-17.22
-20.59
-23.6
-26.15
-28.21
-29.89
-31.32
-32.78
-34.58
-37.0
-40.06
-43.44
-46.41
-48.03
-47.48
-44.33
-38.73
-31.27
-22.82
-14.28
-6.33
0.62
6.37
10.93
14.46
17.12
19.13
20.65
21.74
22.45
22.81
22.91
22.87
22.86
22.97
23.23
23.58
23.95
24.34
24.73
25.12
25.41
25.42
24.95
23.87
22.21
20.15
17.99
15.98
14.23
12.65
10.99
9.0
6.51
3.59
0.42
-2.71
-5.58
-8.11
-10.36
-12.5
-14.71
-17.12
-19.83
-22.94
-26.46
-30.25
-33.93
-36.87
-38.32
-37.73
-34.88
-30.04
-23.86
-17.07
-10.32
-4.03
1.6
6.51
10.62
13.86
16.16
17.54
18.09
18.01
17.51
16.81
16.11
15.54
15.23
15.25
15.6
16.21
16.93
17.61
18.04
18.11
17.71
16.83
15.5
13.78
11.79
9.66
7.5
5.4
3.35
1.27
-0.9
-3.19
-5.49
-7.67
-9.61
-11.29
-12.84
-14.48
-16.45
-18.91
-21.88
-25.26
-28.77
-31.94
-34.16
-34.77
-33.29
-29.54
-23.81
-16.74
-9.17
-1.88
4.59
9.97
14.16
17.2
19.17
20.18
20.39
20.01
19.25
18.3
17.33
16.42
15.63
15.04
14.69
14.63
14.87
15.37
16.03
16.65
17.02
16.93
16.28
15.05
13.36
11.42
9.37
7.31
5.2
2.95
0.52
-2.08
-4.75
-7.33
-9.71
-11.82
-13.7
-15.46
-17.27
-19.35
-21.86
-24.92
-28.41
-32.05
-35.29
-37.43
-37.8
-35.96
-31.83
-25.77
-18.46
-10.7
-3.25
3.35
8.83
13.14
16.36
18.65
20.14
20.94
21.15
20.89
20.3
19.54
18.79
18.21
17.86
17.75
17.84
18.07
18.39
18.76
19.13
19.38
19.36
18.9
17.89
16.33
14.32
12.07
9.83
7.79
6.0
4.44
2.95
1.34
-0.57
-2.85
-5.49
-8.37
-11.27
-14.03
-16.53
-18.78
-20.96
-23.35
-26.19
-29.63
-33.54
-37.5
-40.82
-42.76
-42.7
-40.36
-35.87
-29.72
-22.61
-15.24
-8.2
-1.86
3.57
8.02
11.51
14.06
15.71
16.56
16.77
16.57
16.23
15.96
15.91
16.05
16.29
16.53
16.75
17.03
17.48
18.14
18.88
19.43
19.48
18.79
17.38
15.42
13.24
11.13
9.28
7.67
6.18
4.61
2.78
0.62
-1.82
-4.37
-6.85
-9.06
-10.97
-12.61
-14.15
-15.79
-17.72
-20.1
-22.99
-26.23
-29.44
-32.02
-33.22
-32.41
-29.3
-24.08
-17.42
-10.2
-3.29
2.75
7.72
11.64
14.63
16.74
17.98
18.33
17.9
16.97
15.9
15.05
14.64
14.65
14.92
15.22
15.41
15.45
15.42
15.43
15.5
15.58
15.52
15.13
14.3
12.99
11.3
9.36
7.34
5.34
3.41
1.51
-0.46
-2.56
-4.82
-7.24
-9.69
-12.04
-14.15
-15.93
-17.43
-18.86
-20.49
-22.65
-25.57
-29.22
-33.28
-37.08
-39.79
-40.58
-38.96
-34.85
-28.69
-21.25
-13.43
-5.99
0.59
6.12
10.65
14.29
17.13
19.21
20.5
21.04
20.92
20.34
19.58
18.87
18.37
18.15
18.18
18.43
18.84
19.38
19.98
20.52
20.84
20.75
20.12
18.92
17.2
15.1
12.83
10.6
8.62
7.02
5.79
4.8
3.75
2.32
0.3
-2.36
-5.46
-8.68
-11.69
-14.26
-16.34
-18.05
-19.6
-21.25
-23.26
-25.82
-28.98
-32.57
-36.12
-38.96
-40.36
-39.76
-36.95
-32.14
-25.88
-18.9
-11.89
-5.38
0.31
5.07
8.96
12.07
14.54
16.43
17.78
18.55
18.74
18.43
17.81
17.16
16.76
16.77
17.19
17.87
18.6
19.21
19.64
19.92
20.05
19.99
19.6
18.72
17.26
15.32
13.14
11.01
9.17
7.69
6.43
5.15
3.6
1.63
-0.73
-3.32
-5.9
-8.26
-10.27
-11.97
-13.47
-14.97
-16.72
-18.92
-21.68
-24.9
-28.23
-31.07
-32.75
-32.69
-30.59
-26.56
-21.03
-14.66
-8.11
-1.92
3.59
8.21
11.89
14.64
16.53
17.67
18.17
18.17
17.83
17.29
16.7
16.2
15.89
15.77
15.85
16.05
16.35
16.73
17.15
17.56
17.81
17.76
17.21
16.09
14.42
12.32
10.05
7.83
5.84
4.15
2.65
1.09
-0.8
-3.27
-6.36
-9.93
-13.62
-17.04
-19.88
-22.03
-23.63
-24.95
-26.32
-28.03
-30.23
-32.88
-35.77
-38.39
-40.12
-40.28
-38.42
-34.41
-28.61
-21.66
-14.38
-7.43
-1.22
4.09
8.47
11.91
14.39
15.88
16.42
16.2
15.53
14.76
14.23
14.14
14.55
15.35
16.39
17.46
18.4
19.09
19.49
19.58
19.37
18.83
17.96
16.77
15.34
13.81
12.29
10.85
9.46
8.01
6.4
4.57
2.57
0.47
-1.61
-3.65
-5.64
-7.6
-9.53
-11.4
-13.16
-14.76
-16.22
-17.66
-19.25
-21.2
-23.71
-26.84
-30.4
-33.92
-36.68
-37.97
-37.23
-34.31
-29.51
-23.46
-16.9
-10.48
-4.59
0.6
5.08
8.8
11.64
13.41
13.96
13.29
11.68
9.58
7.6
6.26
5.86
6.43
7.78
9.64
11.76
13.99
16.25
18.44
20.45
22.11
23.22
23.64
23.26
22.02
19.99
17.34
14.36
11.35
8.57
6.13
3.98
1.96
-0.03
-1.98
-3.8
-5.36
-6.66
-7.82
-9.03
-10.48
-12.25
-14.34
-16.68
-19.18
-21.71
-24.05
-25.84
-26.66
-26.13
-24.06
-20.55
-15.94
-10.69
-5.24
0.05
4.93
9.21
12.67
15.17
16.61
17.06
16.7
15.83
14.75
13.73
12.89
12.26
11.81
11.52
11.39
11.46
11.7
12.06
12.38
12.5
12.28
11.66
10.7
9.53
8.27
6.98
5.68
4.34
2.88
1.26
-0.59
-2.7
-5.0
-7.39
-9.64
-11.55
-13.09
-14.39
-15.8
-17.75
-20.5
-23.97
-27.7
-30.91
-32.78
-32.71
-30.48
-26.27
-20.57
-14.01
-7.22
-0.76
4.96
9.66
13.21
15.61
16.96
17.38
17.04
16.1
14.8
13.39
12.18
11.4
11.18
11.49
12.16
13.01
13.87
14.63
15.25
15.68
15.83
15.57
14.8
13.51
11.83
9.94
8.05
6.28
4.63
2.99
1.19
-0.86
-3.19
-5.71
-8.26
-10.67
-12.84
-14.78
-16.6
-18.49
-20.64
-23.22
-26.22
-29.49
-32.68
-35.3
-36.8
-36.68
-34.64
-30.69
-25.17
-18.68
-11.89
-5.4
0.43
5.43
9.61
12.98
15.56
17.33
18.34
18.69
18.59
18.3
18.02
17.92
18.01
18.26
18.55
18.81
19.01
19.13
19.2
19.22
19.18
19.05
18.69
17.99
16.84
15.22
13.24
11.13
9.11
7.33
5.76
4.2
2.41
0.2
-2.47
-5.4
-8.31
-10.87
-12.94
-14.55
-15.95
-17.49
-19.54
-22.34
-25.86
-29.73
-33.33
-35.91
-36.81
-35.67
-32.53
-27.74
-21.88
-15.55
-9.24
-3.26
2.19
7.01
11.12
14.44
16.96
18.69
19.74
20.24
20.33
20.12
19.72
19.22
18.76
18.47
18.47
18.82
19.44
20.14
20.67
20.77
20.28
19.16
17.52
15.55
13.48
11.53
9.83
8.38
7.09
5.81
4.4
2.74
0.84
-1.21
-3.24
-5.11
-6.68
-7.95
-9.05
-10.25
-11.88
-14.2
-17.27
-20.84
-24.38
-27.16
-28.53
-28.06
-25.63
-21.48
-16.11
-10.15
-4.22
1.16
5.68
9.2
11.7
13.29
14.07
14.22
13.93
13.45
13.04
12.91
13.14
13.63
14.17
14.52
14.55
14.29
13.81
13.24
12.61
11.94
11.17
10.32
9.36
8.34
7.26
6.13
4.96
3.74
2.47
1.08
-0.52
-2.45
-4.73
-7.32
-10.02
-12.59
-14.88
-16.85
-18.62
-20.45
-22.59
-25.11
-27.85
-30.35
-31.99
-32.18
-30.53
-27.07
-22.18
-16.46
-10.53
-4.9
0.18
4.61
8.39
11.53
14.03
15.86
17.03
17.62
17.73
17.53
17.22
16.93
16.77
16.73
16.75
16.75
16.68
16.57
16.47
16.39
16.31
16.11
15.65
14.85
13.66
12.13
10.38
8.54
6.73
5.04
3.5
2.08
0.68
-0.85
-2.62
-4.66
-6.88
-9.13
-11.23
-13.12
-14.88
-16.69
-18.74
-21.19
-24.06
-27.28
-30.61
-33.72
-36.15
-37.4
-36.98
-34.64
-30.44
-24.8
-18.39
-11.88
-5.8
-0.38
4.35
8.46
11.97
14.83
16.98
18.39
19.14
19.36
19.22
18.86
18.44
18.03
17.72
17.55
17.51
17.52
17.48
17.36
17.14
16.87
16.55
16.13
15.46
14.41
12.94
11.15
9.23
7.41
5.75
4.23
2.68
0.96
-0.97
-3.01
-5.04
-6.92
-8.64
-10.26
-11.86
-13.49
-15.18
-16.97
-18.98
-21.34
-24.09
-27.04
-29.7
-31.41
-31.53
-29.7
-25.97
-20.81
-14.87
-8.8
-3.08
2.0
6.32
9.81
12.45
14.21
15.14
15.33
15.01
14.4
13.73
13.16
12.78
12.6
12.64
12.85
13.22
13.67
14.11
14.4
14.4
13.98
13.09
11.79
10.22
8.54
6.91
5.42
4.03
2.65
1.15
-0.58
-2.58
-4.85
-7.28
-9.75
-12.16
-14.45
-16.65
-18.88
-21.31
-23.99
-26.79
-29.37
-31.14
-31.53
-30.15
-26.94
-22.2
-16.49
-10.42
-4.52
0.9
5.65
9.66
12.86
15.17
16.57
17.12
17.02
16.58
16.1
15.81
15.78
15.93
16.09
16.1
15.9
15.56
15.22
14.96
14.75
14.45
13.86
12.85
11.44
9.75
7.98
6.28
4.69
3.12
1.45
-0.45
-2.61
-5.02
-7.57
-10.15
-12.61
-14.87
-16.87
-18.63
-20.22
-21.78
-23.52
-25.59
-28.04
-30.7
-33.14
-34.76
-34.91
-33.15
-29.4
-24.01
-17.62
-10.94
-4.59
1.07
5.93
9.98
13.21
15.6
17.15
17.88
17.95
17.66
17.3
17.11
17.19
17.47
17.8
18.01
17.98
17.71
17.27
16.77
16.28
15.83
15.4
14.91
14.25
13.31
12.02
10.42
8.62
6.75
4.92
3.16
1.44
-0.32
-2.17
-4.07
-5.95
-7.75
-9.47
-11.19
-13.05
-15.2
-17.76
-20.75
-24.13
-27.7
-31.09
-33.82
-35.31
-35.11
-32.97
-29.01
-23.63
-17.46
-11.16
-5.25
-0.06
4.31
7.84
10.59
12.61
13.92
14.54
14.55
14.1
13.44
12.8
12.42
12.43
12.88
13.69
14.7
15.78
16.75
17.51
17.98
18.05
17.67
16.78
15.39
13.61
11.66
9.75
8.01
6.4
4.73
2.78
0.41
-2.24
-4.91
-7.25
-9.09
-10.56
-12.03
-13.92
-16.52
-19.8
-23.39
-26.72
-29.14
-30.12
-29.36
-26.83
-22.72
-17.46
-11.56
-5.59
-0.04
4.71
8.47
11.22
13.06
14.18
14.77
15.01
15.0
14.82
14.54
14.24
13.98
13.84
13.86
14.06
14.43
14.89
15.36
15.65
15.61
15.09
14.06
12.6
10.89
9.08
7.3
5.54
3.75
1.87
-0.09
-2.1
-4.09
-6.07
-8.06
-10.05
-11.98
-13.75
-15.3
-16.71
-18.26
-20.27
-22.99
-26.29
-29.69
-32.37
-33.5
-32.53
-29.39
-24.54
-18.76
-12.9
-7.53
-2.89
1.09
4.59
7.75
10.51
12.74
14.25
15.03
15.23
15.12
14.98
15.02
15.28
15.67
16.05
16.35
16.53
16.63
16.72
16.78
16.78
16.61
16.15
15.35
14.22
12.88
11.51
10.28
9.31
8.56
7.86
6.93
5.56
3.66
1.33
-1.16
-3.54
-5.64
-7.49
-9.25
-11.15
-13.43
-16.21
-19.49
-23.12
-26.79
-30.06
-32.4
-33.28
-32.33
-29.46
-24.91
-19.19
-12.94
-6.82
-1.28
3.43
7.28
10.33
12.66
14.29
15.19
15.38
15.0
14.33
13.7
13.4
13.56
14.13
14.94
15.75
16.42
16.89
17.19
17.34
17.32
17.03
16.35
15.2
13.61
11.76
9.91
8.31
7.04
6.05
5.1
3.92
2.34
0.34
-1.98
-4.47
-7.0
-9.54
-12.13
-14.84
-17.73
-20.85
-24.17
-27.56
-30.67
-32.95
-33.78
-32.63
-29.34
-24.32
-18.32
-12.27
-6.87
-2.42
1.17
4.13
6.64
8.72
10.28
11.23
11.61
11.55
11.22
10.76
10.23
9.68
9.18
8.85
8.78
9.03
9.59
10.37
11.2
11.92
12.36
12.46
12.23
11.83
11.43
11.09
10.75
10.15
8.98
7.03
4.32
1.1
-2.28
-5.49
-8.4
-11.07
-13.63
-16.29
-19.12
-22.14
-25.21
-28.06
-30.3
-31.47
-31.16
-29.15
-25.55
-20.72
-15.2
-9.52
-4.08
0.92
5.37
9.21
12.34
14.68
16.2
16.93
17.05
16.77
16.26
15.66
15.06
14.55
14.23
14.2
14.45
14.9
15.34
15.57
15.41
14.8
13.81
12.55
11.11
9.54
7.85
6.02
4.04
1.94
-0.27
-2.59
-5.04
-7.6
-10.19
-12.63
-14.74
-16.4
-17.68
-18.87
-20.35
-22.47
-25.39
-28.88
-32.34
-34.98
-36.0
-34.86
-31.46
-26.17
-19.62
-12.63
-5.84
0.27
5.52
9.91
13.5
16.4
18.67
20.32
21.4
21.99
22.21
22.2
22.07
21.84
21.52
21.07
20.55
20.09
19.88
20.06
20.6
21.31
21.88
21.94
21.28
19.85
17.81
15.42
12.94
10.55
8.32
6.24
4.26
2.29
0.25
-1.96
-4.4
-7.06
-9.8
-12.44
-14.81
-16.87
-18.78
-20.85
-23.37
-26.45
-29.86
-32.98
-35.04
-35.26
-33.22
-28.98
-23.08
-16.34
-9.56
-3.32
2.08
6.59
10.23
12.96
14.75
15.59
15.6
15.06
14.29
13.58
13.08
12.86
12.91
13.22
13.78
14.5
15.22
15.73
15.85
15.48
14.68
13.59
12.38
11.16
9.93
8.61
7.14
5.5
3.73
1.9
0.07
-1.74
-3.56
-5.41
-7.3
-9.22
-11.25
-13.48
-16.12
-19.3
-22.99
-26.87
-30.31
-32.53
-32.81
-30.77
-26.5
-20.56
-13.77
-7.02
-0.95
4.09
8.1
11.19
13.49
15.03
15.84
16.01
15.77
15.46
15.36
15.57
15.93
16.18
16.08
15.65
15.12
14.82
14.96
15.52
16.15
16.4
15.92
14.58
12.55
10.18
7.88
5.91
4.37
3.08
1.78
0.23
-1.71
-4.04
-6.63
-9.27
-11.82
-14.19
-16.41
-18.54
-20.71
-23.11
-25.89
-29.06
-32.43
-35.51
-37.6
-37.97
-36.15
-32.08
-26.21
-19.29
-12.19
-5.55
0.29
5.26
9.44
12.9
15.6
17.47
18.51
18.86
18.79
18.58
18.44
18.45
18.56
18.72
18.88
19.04
19.19
19.32
19.37
19.28
19.01
18.53
17.83
16.86
15.63
14.13
12.47
10.77
9.12
7.55
5.94
4.1
1.88
-0.71
-3.54
-6.38
-9.03
-11.43
-13.62
-15.7
-17.76
-19.87
-22.1
-24.59
-27.49
-30.9
-34.64
-38.18
-40.67
-41.23
-39.26
-34.76
-28.34
-20.94
-13.54
-6.78
-0.9
4.18
8.6
12.4
15.47
17.69
19.05
19.68
19.86
19.83
19.69
19.44
19.06
18.61
18.25
18.16
18.42
18.95
19.58
20.05
20.16
19.83
19.04
17.84
16.27
14.39
12.21
9.76
7.04
4.1
1.06
-1.93
-4.69
-7.09
-9.13
-10.89
-12.52
-14.19
-16.0
-18.09
-20.56
-23.47
-26.71
-29.92
-32.5
-33.77
-33.16
-30.49
-25.97
-20.15
-13.71
-7.29
-1.37
3.79
8.1
11.53
14.07
15.73
16.49
16.44
15.75
14.74
13.76
13.14
13.01
13.31
13.88
14.54
15.19
15.85
16.51
17.08
17.33
16.99
15.89
14.08
11.8
9.39
7.13
5.11
3.26
1.39
-0.66
-2.93
-5.34
-7.76
-10.05
-12.12
-14.0
-15.82
-17.8
-20.17
-23.13
-26.69
-30.62
-34.39
-37.31
-38.65
-37.91
-34.92
-29.93
-23.48
-16.28
-9.01
-2.18
3.86
8.95
12.98
15.95
17.91
18.99
19.38
19.33
19.12
18.94
18.91
19.03
19.21
19.33
19.34
19.27
19.21
19.23
19.29
19.27
18.95
18.15
16.84
