-15.09
-17.16
-19.26
-21.56
-24.18
-27.11
-30.2
-33.08
-35.29
-36.3
-35.73
-33.39
-29.43
-24.2
-18.2
-11.93
-5.81
-0.2
4.64
8.57
11.59
13.78
15.35
16.45
17.22
17.67
17.84
17.76
17.54
17.32
17.17
17.14
17.17
17.26
17.41
17.65
17.98
18.32
18.47
18.22
17.4
16.0
14.18
12.21
10.34
8.7
7.27
5.87
4.3
2.39
0.07
-2.59
-5.43
-8.21
-10.74
-12.85
-14.55
-15.99
-17.43
-19.18
-21.44
-24.26
-27.44
-30.58
-33.08
-34.32
-33.84
-31.42
-27.19
-21.6
-15.31
-9.02
-3.28
1.62
5.6
8.73
11.15
12.92
14.06
14.58
14.58
14.22
13.78
13.49
13.51
13.83
14.31
14.76
15.01
15.01
14.8
14.47
14.05
13.53
12.83
11.86
10.59
9.07
7.39
5.62
3.75
1.72
-0.5
-2.89
-5.34
-7.7
-9.87
-11.89
-13.86
-16.0
-18.48
-21.37
-24.55
-27.7
-30.33
-31.86
-31.77
-29.74
-25.81
-20.35
-14.01
-7.52
-1.45
3.82
8.15
11.57
14.12
15.88
16.9
17.28
17.19
16.82
16.34
15.87
15.48
15.2
15.12
15.3
15.76
16.45
17.19
17.75
17.88
17.4
16.3
14.67
12.72
10.64
8.64
6.81
5.14
3.51
1.76
-0.27
-2.64
-5.29
-8.08
-10.82
-13.39
-15.75
-17.98
-20.21
-22.63
-25.36
-28.38
-31.43
-34.02
-35.51
-35.28
-33.02
-28.85
-23.27
-17.0
-10.73
-4.86
0.45
5.2
9.37
12.85
15.48
17.16
18.01
18.29
18.33
18.36
18.47
18.62
18.77
18.91
19.05
19.25
19.5
19.75
19.94
20.04
20.03
19.83
19.36
18.45
17.0
15.01
12.63
10.1
7.63
5.33
3.18
1.06
-1.17
-3.56
-6.07
-8.56
-10.85
-12.86
-14.59
-16.19
-17.9
-19.97
-22.59
-25.81
-29.5
-33.24
-36.48
-38.58
-39.0
-37.41
-33.8
-28.46
-21.9
-14.75
-7.6
-0.93
4.95
9.91
13.91
16.98
19.19
20.58
21.24
21.33
21.05
20.69
20.5
20.6
20.98
21.52
22.06
22.48
22.72
22.75
22.55
22.09
21.36
20.4
19.24
17.96
16.58
15.11
13.55
11.91
10.17
8.39
6.58
4.78
2.97
1.11
-0.84
-2.92
-5.12
-7.38
-9.57
-11.61
-13.48
-15.29
-17.21
-19.41
-22.0
-24.99
-28.25
-31.53
-34.45
-36.48
-37.08
-35.81
-32.51
-27.44
-21.19
-14.54
-8.14
-2.42
2.51
6.72
10.3
13.26
15.53
17.06
17.9
18.19
18.16
17.99
17.79
17.6
17.41
17.22
17.09
17.12
17.35
17.77
18.22
18.47
18.28
17.51
16.16
14.39
12.46
10.61
8.96
7.47
5.99
4.33
2.4
0.21
-2.12
-4.41
-6.52
-8.37
-9.93
-11.27
-12.56
-14.03
-15.93
-18.5
-21.76
-25.43
-28.93
-31.48
-32.31
-30.98
-27.47
-22.25
-16.07
-9.7
-3.76
1.45
5.89
9.64
12.78
15.27
16.98
17.78
17.69
16.92
15.88
15.03
14.63
14.76
15.22
15.77
16.22
16.53
16.76
17.01
17.23
17.27
16.95
16.1
14.75
13.01
11.07
9.08
7.13
5.25
3.41
1.56
-0.31
-2.22
-4.16
-6.12
-8.1
-10.11
-12.18
-14.31
-16.44
-18.54
-20.64
-22.87
-25.46
-28.53
-32.02
-35.45
-38.05
-38.96
-37.56
-33.72
-27.88
-20.88
-13.62
-6.85
-0.93
4.04
8.14
11.48
14.1
16.05
17.38
18.2
18.64
18.87
18.99
19.08
19.15
19.17
19.15
19.07
18.95
18.83
18.74
18.67
18.6
18.46
18.17
17.69
16.96
16.01
14.88
13.59
12.15
10.55
8.79
6.89
4.92
2.93
0.92
-1.13
-3.31
-5.64
-8.02
-10.28
-12.26
-13.86
-15.16
-16.4
-17.89
-19.87
-22.48
-25.7
-29.32
-33.01
-36.27
-38.55
-39.31
-38.16
-34.99
-30.04
-23.78
-16.86
-9.92
-3.5
2.05
6.56
10.03
12.58
14.41
15.73
16.71
17.43
17.9
18.14
18.16
18.08
18.02
18.12
18.43
18.9
19.42
19.87
20.17
20.29
20.24
20.0
19.48
18.59
17.26
15.52
13.51
11.48
9.64
8.13
6.92
5.87
4.78
3.53
2.04
0.33
-1.55
-3.54
-5.62
-7.81
-10.08
-12.41
-14.75
-17.12
-19.58
-22.27
-25.24
-28.41
-31.45
-33.82
-34.91
-34.24
-31.61
-27.23
-21.58
-15.3
-9.02
-3.22
1.84
6.02
9.33
11.85
13.64
14.81
15.45
15.66
15.58
15.41
15.35
15.58
16.14
16.93
17.73
18.31
18.55
18.46
18.16
17.81
17.48
17.15
16.72
16.04
14.98
13.53
11.78
9.87
7.96
6.17
4.48
2.79
0.95
-1.17
-3.6
-6.28
-9.07
-11.78
-14.26
-16.4
-18.14
-19.5
-20.58
-21.59
-22.82
-24.58
-27.05
-30.12
-33.37
-36.09
-37.5
-37.01
-34.4
-29.89
-24.06
-17.61
-11.2
-5.26
-0.01
4.5
8.29
11.41
13.94
15.89
17.3
18.21
18.65
18.76
18.66
18.54
18.53
18.69
19.0
19.42
19.89
20.36
20.77
21.0
20.89
20.3
19.17
17.63
15.94
14.36
13.01
11.85
10.68
9.33
7.74
6.01
4.3
2.75
1.4
0.16
-1.08
-2.39
-3.76
-5.16
-6.52
-7.88
-9.26
-10.76
-12.44
-14.38
-16.66
-19.36
-22.53
-26.08
-29.7
-32.87
-34.97
-35.42
-33.94
-30.6
-25.82
-20.2
-14.33
-8.67
-3.46
1.2
5.25
8.67
11.44
13.61
15.3
16.64
17.71
18.43
18.61
18.06
16.72
14.78
12.69
10.94
9.94
9.8
10.35
11.25
12.14
12.76
13.0
12.86
12.35
11.46
10.19
8.55
6.62
4.49
2.25
-0.02
-2.3
-4.55
-6.69
-8.57
-10.07
-11.12
-11.85
-12.52
-13.49
-15.07
-17.37
-20.28
-23.48
-26.49
-28.75
-29.73
-29.05
-26.55
-22.39
-16.99
-10.96
-4.91
0.63
5.32
9.03
11.78
13.64
14.76
15.28
15.42
15.32
15.13
14.92
14.69
14.45
14.16
13.86
13.61
13.42
13.3
13.24
13.16
13.0
12.73
12.32
11.83
11.32
10.81
10.27
9.55
8.42
6.62
3.98
0.49
-3.6
-7.91
-11.99
-15.47
-18.24
-20.39
-22.22
-24.07
-26.18
-28.51
-30.78
-32.48
-33.07
-32.19
-29.79
-26.1
-21.53
-16.49
-11.31
-6.17
-1.22
3.4
7.47
10.8
13.3
14.99
16.04
16.63
16.9
16.91
16.71
16.29
15.72
15.07
14.44
13.91
13.55
13.39
13.43
13.62
13.88
14.13
14.25
14.19
13.88
13.28
12.38
11.17
9.64
7.76
5.46
2.66
-0.64
-4.29
-8.02
-11.47
-14.37
-16.56
-18.15
-19.37
-20.5
-21.78
-23.36
-25.3
-27.58
-30.1
-32.57
-34.57
-35.56
-35.06
-32.84
-29.0
-23.95
-18.27
-12.47
-6.87
-1.57
3.41
8.05
12.18
15.6
18.09
19.64
20.38
20.58
20.49
20.3
20.05
19.74
19.45
19.33
19.57
20.29
21.42
22.67
23.63
23.99
23.63
22.64
21.27
19.68
17.9
15.81
13.29
10.33
7.1
3.85
0.86
-1.74
-3.96
-5.93
-7.79
-9.65
-11.52
-13.35
-15.1
-16.78
-18.5
-20.4
-22.67
-25.4
-28.61
-32.12
-35.56
-38.4
-40.13
-40.28
-38.65
-35.29
-30.54
-24.89
-18.77
-12.52
-6.29
-0.12
5.96
11.8
17.18
21.79
25.35
27.72
28.91
29.11
28.58
27.59
26.35
25.01
23.71
22.58
21.72
21.16
20.88
20.75
20.6
20.28
19.72
18.91
17.89
16.66
15.17
13.34
11.06
8.27
5.01
1.41
-2.31
-5.86
-8.96
-11.44
-13.26
-14.56
-15.61
-16.78
-18.36
-20.45
-22.93
-25.38
-27.25
-27.97
-27.15
-24.67
-20.74
-15.78
-10.32
-4.83
0.34
4.95
8.9
12.1
14.51
16.15
17.12
17.6
17.8
17.84
17.7
17.28
16.4
14.96
13.08
11.05
9.26
8.05
7.54
7.65
8.14
8.71
9.14
9.32
9.19
8.78
8.1
7.13
5.79
4.0
1.67
-1.22
-4.56
-8.11
-11.57
-14.73
-17.46
-19.88
-22.19
-24.64
-27.39
-30.44
-33.65
-36.68
-39.09
-40.37
-40.07
-37.93
-33.99
-28.59
-22.33
-15.87
-9.75
-4.26
0.54
4.78
8.55
11.85
14.6
16.71
18.18
19.12
19.77
20.32
20.86
21.31
21.45
21.08
20.13
18.72
17.13
15.65
14.48
13.68
13.17
12.81
12.46
12.05
11.52
10.88
10.13
9.29
8.35
7.25
5.87
4.02
1.6
-1.37
-4.68
-7.98
-10.99
-13.59
-15.89
-18.14
-20.55
-23.19
-25.94
-28.53
-30.66
-32.02
-32.29
-31.19
-28.58
-24.5
-19.3
-13.58
-7.97
-2.93
1.34
4.94
8.1
10.94
13.46
15.53
17.04
18.01
18.57
18.89
19.06
19.08
18.9
18.48
17.88
17.24
16.73
16.48
16.56
16.94
17.56
18.26
18.86
19.15
18.98
18.27
17.05
15.38
13.31
10.82
7.85
4.35
0.46
-3.55
-7.3
-10.45
-12.86
-14.62
-16.01
-17.38
-19.03
-21.14
-23.74
-26.69
-29.67
-32.21
-33.79
-33.88
-32.19
-28.71
-23.79
-17.98
-11.88
-5.94
-0.4
4.64
9.14
12.98
15.98
17.99
19.01
19.19
18.78
18.06
17.22
16.34
15.47
14.66
14.01
13.66
13.66
13.95
14.32
14.51
14.32
13.68
12.66
11.42
10.09
8.71
7.2
5.47
3.42
1.06
-1.54
-4.21
-6.81
-9.23
-11.45
-13.5
-15.48
-17.53
-19.82
-22.45
-25.42
-28.48
-31.21
-33.02
-33.36
-31.87
-28.54
-23.68
-17.87
-11.7
-5.73
-0.29
4.43
8.38
11.55
13.96
15.7
16.86
17.58
17.96
18.08
17.99
17.74
17.36
16.97
16.68
16.57
16.67
16.86
16.93
16.65
15.86
14.54
12.89
11.15
9.61
8.4
7.47
6.62
5.58
4.12
2.18
-0.16
-2.72
-5.33
-7.88
-10.33
-12.69
-15.06
-17.58
-20.43
-23.76
-27.64
-31.91
-36.14
-39.65
-41.68
-41.6
-39.12
-34.38
-27.88
-20.38
-12.65
-5.3
1.29
6.9
11.51
15.17
17.96
19.97
21.31
22.1
22.46
22.51
22.39
22.19
22.0
21.86
21.79
21.82
21.93
22.1
22.23
22.18
21.8
20.95
19.54
17.59
15.19
12.52
9.76
7.15
4.89
3.1
1.79
0.83
-0.04
-1.13
-2.64
-4.65
-7.04
-9.61
-12.12
-14.48
-16.71
-18.96
-21.43
-24.26
-27.46
-30.87
-34.15
-36.76
-38.13
-37.77
-35.41
-31.15
-25.41
-18.84
-12.11
-5.73
0.03
5.06
9.32
12.76
15.29
16.88
17.61
17.73
17.58
17.43
17.44
17.59
17.77
17.9
18.01
18.25
18.78
19.6
20.53
21.26
21.47
21.01
19.95
18.52
16.93
15.34
13.73
12.02
10.14
8.03
5.71
3.18
0.45
-2.46
-5.52
-8.65
-11.8
-14.95
-18.11
-21.34
-24.65
-27.91
-30.86
-33.11
-34.21
-33.79
-31.63
-27.77
-22.47
-16.19
-9.52
-3.02
2.83
7.74
11.57
14.33
16.11
17.03
17.27
16.99
16.39
15.67
15.04
14.64
14.53
14.69
15.09
15.65
16.3
16.96
17.47
17.61
17.14
15.89
13.87
11.27
8.46
5.8
3.58
1.85
0.47
-0.87
-2.43
-4.38
-6.69
-9.21
-11.74
-14.14
-16.36
-18.44
-20.43
-22.38
-24.27
-26.1
-27.87
-29.56
-31.03
-31.91
-31.71
-29.89
-26.19
-20.73
-14.09
-7.09
-0.5
5.19
9.78
13.37
16.11
18.16
19.63
20.6
21.18
21.54
21.81
22.04
22.21
22.19
21.89
21.28
20.45
19.58
18.87
18.43
18.28
18.24
18.05
17.42
16.16
14.29
11.99
9.62
7.5
5.79
4.41
3.09
1.47
-0.71
-3.46
-6.55
-9.65
-12.43
-14.76
-16.68
-18.39
-20.14
-22.17
-24.65
-27.7
-31.26
-35.03
-38.44
-40.75
-41.24
-39.47
-35.44
-29.55
-22.53
-15.11
-7.92
-1.39
4.25
8.92
12.65
15.5
17.53
18.82
19.44
19.44
18.96
18.23
17.49
16.95
16.75
16.87
17.25
17.79
18.41
18.98
19.36
19.32
18.68
17.35
15.42
13.13
10.77
8.58
6.69
5.11
3.75
2.42
0.96
-0.74
-2.72
-4.88
-7.07
-9.11
-10.94
-12.67
-14.55
-16.87
-19.82
-23.32
-27.0
-30.23
-32.33
-32.78
-31.28
-27.88
-22.91
-16.91
-10.51
-4.31
1.24
5.85
9.46
12.14
14.05
15.26
15.82
15.73
15.08
14.09
13.07
12.31
11.95
11.96
12.21
12.52
12.76
12.87
12.78
12.46
11.87
10.99
9.86
8.57
7.22
5.87
4.52
3.12
1.59
-0.11
-1.98
-3.97
-5.97
-7.86
-9.58
-11.16
-12.77
-14.6
-16.89
-19.75
-23.16
-26.86
-30.31
-32.84
-33.78
-32.67
-29.43
-24.42
-18.31
-11.83
-5.6
0.03
4.93
9.12
12.61
15.35
17.25
18.29
18.54
18.24
17.72
17.29
17.16
17.35
17.77
18.27
18.75
19.21
19.69
20.15
20.44
20.34
19.61
18.18
16.13
13.72
11.15
8.53
5.81
2.9
-0.25
-3.5
-6.62
-9.38
-11.64
-13.44
-14.91
-16.31
-17.86
-19.79
-22.29
-25.42
-29.12
-33.05
-36.66
-39.3
-40.32
-39.28
-36.08
-30.97
-24.44
-17.15
-9.74
-2.74
3.46
8.7
12.91
16.12
18.36
19.67
20.14
19.96
19.41
18.82
18.48
18.48
18.71
18.93
18.91
18.55
17.95
17.26
16.66
16.18
15.76
15.26
14.56
13.61
12.41
11.02
9.49
7.87
6.22
4.58
2.96
1.29
-0.53
-2.6
-4.97
-7.57
-10.2
-12.66
-14.81
-16.69
-18.56
-20.76
-23.58
-27.06
-30.89
-34.42
-36.84
-37.39
-35.67
-31.72
-26.02
-19.36
-12.54
-6.19
-0.65
4.05
7.99
11.28
13.97
16.02
17.43
18.24
18.6
18.69
18.69
18.65
18.6
18.47
18.23
17.9
17.53
17.16
16.8
16.41
15.91
15.25
14.4
13.39
12.25
11.01
9.68
8.24
6.66
4.94
3.07
1.05
-1.09
-3.36
-5.74
-8.2
-10.69
-13.21
-15.79
-18.51
-21.38
-24.28
-26.88
-28.63
-28.94
-27.38
-23.88
-18.76
-12.64
-6.27
-0.29
4.93
9.25
12.69
15.26
16.97
17.79
17.8
17.23
16.42
15.73
15.42
15.51
15.84
16.15
16.24
16.05
15.59
14.97
14.23
13.39
12.43
11.38
10.25
9.11
7.95
6.76
5.47
4.04
2.47
0.77
-1.05
-3.0
-5.14
-7.49
-10.02
-12.67
-15.33
-17.96
-20.62
-23.38
-26.25
-29.09
-31.57
-33.15
-33.32
-31.73
-28.34
-23.44
-17.62
-11.53
-5.76
-0.65
3.67
7.24
10.17
12.53
14.3
15.46
16.03
16.16
16.06
15.94
15.96
16.14
16.41
16.66
16.79
16.78
16.69
16.55
16.4
16.18
15.76
15.04
13.98
12.6
11.02
9.34
7.61
5.84
3.93
1.85
-0.4
-2.73
-5.03
-7.19
-9.18
-11.02
-12.8
-14.63
-16.65
-18.98
-21.75
-25.01
-28.67
-32.42
-35.77
-38.07
-38.72
-37.33
-33.85
-28.6
-22.22
-15.43
-8.89
-2.98
2.14
6.48
10.07
12.89
14.87
15.91
16.09
15.66
15.04
14.72
15.02
16.02
17.52
19.21
20.74
21.9
22.67
23.1
23.19
22.88
22.01
20.47
18.28
15.64
12.86
10.31
8.21
6.65
5.57
4.76
3.97
2.91
1.41
-0.57
-2.93
-5.45
-7.92
-10.24
-12.48
-14.81
-17.44
-20.45
-23.77
-27.17
-30.29
-32.68
-33.91
-33.58
-31.49
-27.7
-22.55
-16.62
-10.56
-4.91
-0.03
3.95
7.06
9.38
11.02
12.07
12.62
12.81
12.78
12.65
12.53
12.47
12.5
12.62
12.82
13.08
13.33
13.5
13.53
13.33
12.88
12.17
11.22
10.1
8.85
7.51
6.09
4.58
2.98
1.3
-0.39
-2.07
-3.73
-5.45
-7.31
-9.46
-12.02
-15.05
-18.52
-22.26
-25.89
-28.83
-30.46
-30.26
-28.0
-23.85
-18.31
-12.12
-5.93
-0.24
4.68
8.75
11.96
14.32
15.82
16.44
16.2
15.19
13.59
11.66
9.75
8.17
7.16
6.81
7.09
7.92
9.22
10.98
13.13
15.51
17.83
19.67
20.64
20.44
18.99
16.42
12.96
8.9
4.54
0.13
-4.09
-7.96
-11.38
-14.38
-17.06
-19.6
-22.21
-25.01
-27.97
-30.8
-33.0
-33.94
-33.12
-30.32
-25.77
-20.06
-13.98
-8.23
-3.21
0.96
4.43
7.39
9.91
11.96
13.44
14.27
14.45
14.17
13.68
13.23
13.02
13.07
13.31
13.55
13.6
13.3
12.63
11.68
10.59
9.55
8.6
7.71
6.71
5.45
3.85
1.92
-0.22
-2.44
-4.62
-6.73
-8.82
-10.94
-13.2
-15.72
-18.59
-21.88
-25.56
-29.37
-32.8
-35.2
-35.85
-34.26
-30.34
-24.46
-17.37
-10.0
-3.16
2.63
7.18
10.62
13.21
15.16
16.56
17.41
17.67
17.41
16.8
16.13
15.7
15.69
16.14
16.93
17.84
18.69
19.35
19.72
19.72
19.28
18.32
16.84
14.96
12.86
10.77
8.88
7.29
5.92
4.66
3.29
1.68
-0.22
-2.36
-4.63
-6.98
-9.39
-11.93
-14.73
-17.89
-21.45
-25.26
-29.08
-32.48
-34.98
-36.06
-35.36
-32.69
-28.19
-22.3
-15.65
-8.97
-2.84
2.37
6.56
9.8
12.24
14.03
15.24
15.9
16.07
15.83
15.32
14.69
14.05
13.5
13.1
12.84
12.76
12.81
12.96
13.13
13.22
13.11
12.74
12.07
11.11
9.88
8.41
6.73
4.82
2.67
0.25
-2.44
-5.31
-8.23
-11.01
-13.53
-15.77
-17.82
-19.79
-21.69
-23.35
-24.4
-24.38
-22.91
-19.91
-15.6
-10.49
-5.21
-0.29
3.9
7.25
9.81
11.73
13.16
14.22
14.97
15.45
15.68
15.68
15.51
15.23
14.92
14.63
14.41
14.23
14.04
13.72
13.17
12.31
11.17
9.84
8.46
7.2
6.12
5.16
4.22
3.13
1.77
0.11
-1.79
-3.86
-6.01
-8.24
-10.62
-13.25
-16.24
-19.65
-23.42
-27.32
-30.97
-33.8
-35.25
-34.87
-32.5
-28.3
-22.75
-16.49
-10.15
-4.22
1.02
5.44
9.04
11.85
13.9
15.27
16.07
16.42
16.5
16.52
16.61
16.86
17.21
17.59
17.9
18.14
18.4
18.74
19.1
19.28
18.99
17.98
16.23
13.95
11.54
9.36
7.61
6.25
5.07
3.78
2.19
0.24
-1.96
-4.26
-6.5
-8.56
-10.42
-12.16
-13.97
-16.13
-18.89
-22.35
-26.34
-30.36
-33.66
-35.44
-35.17
-32.74
-28.52
-23.18
-17.45
-11.89
-6.77
-2.08
2.28
6.38
10.16
13.37
15.67
16.66
16.09
13.95
10.58
6.63
2.94
0.31
-0.8
-0.28
1.64
4.62
8.43
12.94
18.01
23.28
28.13
31.81
33.78
33.91
32.5
30.08
27.12
23.83
20.22
16.25
12.05
7.96
4.34
1.45
-0.74
-2.48
-4.15
-6.1
-8.57
-11.68
-15.4
-19.59
-23.89
-27.8
-30.7
-32.09
-31.65
-29.37
-25.56
-20.71
-15.38
-10.05
-5.03
-0.5
3.5
6.94
9.72
11.71
12.76
12.83
12.07
10.74
9.15
7.54
6.01
4.6
3.34
2.35
1.83
1.93
2.68
3.89
5.24
6.31
6.78
6.47
5.34
3.53
1.25
-1.25
-3.73
-6.05
-8.16
-10.1
-11.95
-13.79
-15.68
-17.64
-19.61
-21.38
-22.66
-23.05
-22.23
-20.02
-16.53
-12.06
-7.02
-1.86
3.09
7.58
11.44
14.53
16.76
18.07
18.5
18.2
17.39
16.34
15.31
14.47
13.9
13.56
13.36
13.18
12.96
12.67
12.32
11.88
11.34
10.67
9.88
8.99
8.06
7.08
5.99
4.69
3.1
1.18
-0.99
-3.34
-5.79
-8.28
-10.86
-13.57
-16.44
-19.5
-22.78
-26.22
-29.66
-32.75
-34.94
-35.62
-34.27
-30.75
-25.35
-18.73
-11.68
-4.93
1.07
6.13
10.18
13.23
15.28
16.35
16.56
16.16
15.5
14.9
14.58
14.6
14.91
15.4
16.01
16.72
17.55
18.45
19.3
19.89
19.97
19.33
17.85
15.59
12.74
9.57
6.34
3.24
0.38
-2.22
-4.54
-6.56
-8.27
-9.68
-10.92
-12.2
-13.74
-15.68
-18.08
-20.91
-24.09
-27.55
-31.07
-34.31
-36.66
-37.46
-36.17
-32.64
-27.22
-20.59
-13.57
-6.8
-0.65
4.77
9.43
13.28
16.2
18.1
19.01
19.11
18.72
18.13
17.56
17.08
16.67
16.34
16.17
16.2
16.47
16.86
17.2
17.25
16.89
16.09
14.92
13.5
11.9
10.16
8.27
6.2
3.97
1.6
-0.84
-3.27
-5.57
-7.63
-9.41
-10.94
-12.38
-13.96
-15.9
-18.36
-21.39
-24.86
-28.51
-31.9
-34.48
-35.65
-35.0
-32.36
-27.92
-22.18
-15.77
-9.33
-3.33
1.96
6.44
10.15
13.19
15.64
17.54
18.87
19.64
19.89
19.75
19.37
18.93
18.51
18.07
17.56
16.95
16.28
15.66
15.2
14.92
14.78
14.65
14.39
13.89
13.09
11.96
10.44
8.53
6.23
3.6
0.81
-1.99
-4.62
-7.01
-9.19
-11.23
-13.23
-15.28
-17.44
-19.72
-22.09
-24.43
-26.54
-28.05
-28.55
-27.67
-25.3
-21.64
-17.13
-12.35
-7.75
-3.57
0.14
3.46
6.43
8.98
10.98
12.31
12.97
13.1
12.89
12.53
12.16
11.82
11.57
11.4
11.39
11.54
11.83
12.14
12.25
12.01
11.32
10.25
9.02
7.87
6.95
6.28
5.74
5.1
4.12
2.68
0.72
-1.7
-4.49
-7.51
-10.69
-13.98
-17.42
-21.05
-24.89
-28.77
-32.3
-34.91
-36.0
-35.2
-32.47
-28.17
-22.94
-17.52
-12.52
-8.39
-5.3
-3.25
-2.12
-1.76
-2.01
-2.76
-3.89
-5.31
-6.86
-8.38
-9.71
-10.72
-11.3
-11.36
-10.81
-9.51
-7.35
-4.34
-0.57
3.74
8.33
12.96
17.41
21.52
25.11
27.98
30.0
31.07
31.24
30.62
29.4
27.68
25.57
23.09
20.28
17.16
13.74
10.0
5.88
1.4
-3.26
-7.67
-11.21
-13.21
-13.22
-11.13
-7.31
-2.37
2.97
8.1
12.67
16.52
19.65
22.09
23.85
24.94
25.34
25.05
24.14
22.73
20.98
19.04
17.06
15.13
13.32
11.68
10.22
8.95
7.8
6.64
5.32
3.69
1.71
-0.55
-2.91
-5.23
-7.47
-9.66
-11.95
-14.46
-17.22
-20.14
-23.04
-25.68
-27.85
-29.43
-30.46
-31.15
-31.79
-32.74
-34.16
-35.96
-37.7
-38.7
-38.29
-36.0
-31.83
-26.15
-19.62
-12.9
-6.46
-0.51
4.92
9.84
14.19
17.8
20.51
22.24
23.06
23.17
22.79
22.12
21.26
20.26
19.17
18.1
17.19
16.59
16.3
16.17
15.92
15.27
14.08
12.42
10.56
8.78
7.26
6.02
4.84
3.47
1.71
-0.48
-3.0
-5.66
-8.27
-10.73
-13.01
-15.2
-17.38
-19.66
-22.0
-24.23
-26.0
-26.87
-26.44
-24.48
-20.97
-16.19
-10.58
-4.68
0.96
5.93
9.92
12.78
14.53
15.26
15.2
14.61
13.81
13.06
12.58
12.44
12.62
12.94
13.17
13.14
12.74
11.97
10.96
9.88
8.92
8.21
7.76
7.46
7.13
6.54
5.52
4.02
2.11
-0.09
-2.42
-4.8
-7.16
-9.51
-11.87
-14.31
-16.93
-19.76
-22.79
-25.8
-28.4
-30.06
-30.27
-28.73
-25.37
-20.51
-14.69
-8.59
-2.81
2.19
6.23
9.32
11.6
13.21
14.3
14.91
15.1
14.96
14.63
14.3
14.14
14.18
14.38
14.62
14.8
14.87
14.86
14.82
14.76
14.62
14.23
13.4
12.0
10.02
7.59
4.94
2.32
-0.09
-2.19
-4.06
-5.86
-7.8
-10.04
-12.68
-15.71
-19.07
-22.64
-26.23
-29.61
-32.42
-34.23
-34.64
-33.38
-30.44
-26.09
-20.81
-15.1
-9.41
-4.0
1.02
5.54
9.46
12.64
14.92
16.28
16.84
16.87
16.65
16.4
16.23
16.14
16.11
16.08
16.03
15.96
15.87
15.75
15.6
15.44
15.23
14.89
14.27
13.2
11.58
9.42
6.84
4.05
1.23
-1.52
-4.18
-6.76
-9.24
-11.64
-13.97
-16.32
-18.85
-21.71
-24.93
-28.31
-31.35
-33.44
-33.94
-32.44
-28.93
-23.75
-17.55
-11.01
-4.67
1.12
6.25
10.72
14.5
17.52
19.71
21.02
21.56
21.57
21.33
21.11
21.03
21.04
21.0
20.74
20.24
19.56
18.85
18.22
17.66
17.03
16.17
14.94
13.38
11.61
9.83
8.16
6.61
5.04
3.3
1.29
-0.97
-3.36
-5.73
-8.02
-10.24
-12.47
-14.88
-17.63
-20.83
-24.43
-28.18
-31.6
-34.01
-34.77
-33.42
-29.89
-24.53
-17.97
-10.96
-4.11
2.12
7.53
12.01
15.52
18.02
19.54
20.15
19.97
19.23
18.18
17.12
16.3
15.9
15.96
16.34
16.82
17.11
17.03
16.52
15.68
14.66
13.61
12.55
11.4
10.04
8.35
6.36
4.17
1.97
-0.12
-2.08
-4.0
-5.98
-8.15
-10.59
-13.35
-16.46
-19.94
-23.71
-27.52
-30.92
-33.31
-34.13
-33.0
-29.91
-25.19
-19.41
-13.18
-7.03
-1.31
3.8
8.2
11.84
14.62
16.45
17.33
17.41
16.93
16.24
15.63
15.28
15.17
15.2
15.26
15.32
15.44
15.66
15.93
16.11
15.98
15.37
14.28
12.82
11.15
9.43
7.69
5.91
4.05
2.07
-0.02
-2.16
-4.29
-6.37
-8.41
-10.43
-12.5
-14.67
-17.03
-19.65
-22.64
-26.04
-29.78
-33.54
-36.73
-38.61
-38.48
-36.02
-31.36
-25.13
-18.14
-11.19
-4.76
0.98
6.07
10.56
14.39
17.37
19.35
20.31
20.43
20.11
19.75
19.64
19.84
20.19
20.45
20.42
20.08
19.56
19.06
18.74
18.63
18.59
18.37
17.71
16.44
14.61
12.43
10.2
8.14
6.31
4.54
2.56
0.18
-2.58
-5.49
-8.23
-10.51
-12.28
-13.67
-14.99
-16.53
-18.5
-20.98
-23.93
-27.19
-30.52
-33.58
-35.97
-37.24
-37.01
-35.07
-31.44
-26.41
-20.45
-14.16
-8.04
-2.48
2.37
6.51
10.0
12.91
15.21
16.87
17.87
18.29
18.31
18.13
17.89
17.66
17.46
17.27
17.15
17.19
17.49
18.01
18.55
18.8
18.47
17.42
15.71
13.61
11.47
9.53
7.87
6.38
4.85
3.11
1.13
-0.98
-3.06
-4.97
-6.71
-8.37
-10.09
-12.02
-14.24
-16.8
-19.76
-23.08
-26.63
-30.06
-32.81
-34.22
-33.73
-31.09
-26.49
-20.51
-13.9
-7.41
-1.53
3.52
7.73
11.17
13.87
15.78
16.84
17.08
16.67
15.91
15.12
14.55
14.36
14.56
15.09
15.82
16.58
17.23
17.61
17.64
17.3
16.61
15.6
14.31
12.75
10.94
8.94
6.83
4.68
2.54
0.35
-1.96
-4.38
-6.84
-9.19
-11.33
-13.28
-15.17
-17.26
-19.79
-22.87
-26.37
-29.89
-32.84
-34.53
-34.4
-32.21
-28.1
-22.58
-16.37
-10.14
-4.38
0.74
5.27
9.28
12.74
15.5
17.33
18.15
18.09
17.45
16.65
15.99
15.6
15.4
15.28
15.2
15.2
15.4
15.78
16.21
16.43
16.17
15.31
13.9
12.16
10.34
8.63
7.08
5.57
3.95
2.08
-0.11
-2.58
-5.22
-7.88
-10.41
-12.69
-14.67
-16.4
-18.0
-19.69
-21.71
-24.23
-27.23
-30.43
-33.33
-35.31
-35.81
-34.5
-31.38
-26.74
-21.11
-15.08
-9.18
-3.73
1.14
5.42
9.19
12.43
15.09
17.06
18.26
18.77
18.77
18.56
18.41
18.49
18.83
19.35
19.93
20.45
20.84
21.1
21.21
21.12
20.79
20.17
19.22
17.95
16.44
14.76
13.01
11.25
9.43
7.48
5.28
2.75
-0.06
-3.0
-5.88
-8.52
-10.86
-12.98
-15.07
-17.37
-20.1
-23.36
-27.08
-31.0
-34.63
-37.37
-38.59
-37.87
-35.12
-30.62
-24.89
-18.56
-12.17
-6.07
-0.45
4.62
9.06
12.76
15.64
17.67
18.9
19.48
19.6
19.37
18.91
18.29
17.61
17.02
16.7
16.75
17.14
17.71
18.16
18.19
17.63
16.46
14.85
13.01
11.18
9.5
7.97
6.52
5.02
3.34
1.44
-0.66
-2.87
-5.13
-7.39
-9.66
-11.99
-14.44
-17.05
-19.86
-22.87
-25.96
-28.84
-31.04
-31.99
-31.23
-28.5
-23.95
-18.13
-11.74
-5.52
0.06
4.78
8.67
11.81
14.27
16.01
17.01
17.31
17.12
16.7
16.36
16.31
16.59
17.09
17.65
18.1
18.33
18.31
18.03
17.48
16.69
15.65
14.39
12.95
11.39
9.78
8.14
6.45
4.64
2.6
0.28
-2.35
-5.19
-8.07
-10.78
-13.15
-15.13
-16.8
-18.37
-20.13
-22.35
-25.11
-28.29
-31.47
-34.04
-35.34
-34.86
-32.39
-28.12
-22.57
-16.37
-10.15
-4.34
0.86
5.38
9.22
12.33
14.65
16.12
16.77
16.79
16.47
16.09
15.85
15.76
15.73
15.66
15.58
15.58
15.84
16.39
17.15
17.83
18.15
17.9
17.05
15.72
14.08
12.28
10.4
8.46
6.45
4.36
2.2
-0.03
-2.29
-4.56
-6.77
-8.88
-10.86
-12.76
-14.71
-16.91
-19.58
-22.83
-26.61
-30.57
-34.11
-36.53
-37.18
-35.73
-32.25
-27.2
-21.29
-15.2
-9.49
-4.39
0.08
4.06
7.67
10.95
13.81
16.06
17.56
18.28
18.39
18.17
17.9
17.78
17.82
17.95
18.11
18.29
18.57
19.0
19.61
20.25
20.67
20.58
19.8
18.32
16.3
14.02
11.74
9.63
7.67
5.74
3.66
1.34
-1.19
-3.78
-6.24
-8.45
-10.42
-12.22
-14.0
-15.86
-17.93
-20.31
-23.1
-26.28
-29.68
-32.9
-35.35
-36.42
-35.64
-32.86
-28.31
-22.53
-16.19
-9.92
-4.15
0.88
5.12
8.63
11.46
13.65
15.21
16.11
16.37
16.1
15.45
14.67
14.04
13.74
13.83
14.24
14.77
15.27
15.57
15.59
15.31
14.74
13.88
12.78
11.49
10.08
8.59
7.06
5.45
3.69
1.72
-0.5
-2.95
-5.51
-7.97
-10.15
-11.95
-13.46
-14.95
-16.77
-19.21
-22.28
-25.63
-28.67
-30.64
-30.89
-29.07
-25.25
-19.92
-13.79
-7.63
-1.97
2.9
6.99
10.39
13.12
15.09
16.14
16.22
15.5
14.34
13.21
12.47
12.27
12.52
13.02
13.54
13.95
14.25
14.45
14.56
14.54
14.25
13.59
12.51
11.07
9.39
7.61
5.82
4.0
2.1
0.05
-2.14
-4.41
-6.63
-8.71
-10.62
-12.36
-14.03
-15.72
-17.58
-19.77
-22.39
-25.41
-28.57
-31.36
-33.11
-33.2
-31.32
-27.48
-22.1
-15.83
-9.35
-3.2
2.25
6.82
10.44
13.11
14.89
15.86
16.19
16.09
15.8
15.51
15.36
15.36
15.42
15.45
15.32
15.03
14.62
14.2
13.81
13.46
13.06
12.48
11.63
10.48
9.13
7.76
6.53
5.49
4.53
3.4
1.81
-0.41
-3.2
-6.27
-9.25
-11.86
-13.98
-15.72
-17.35
-19.21
-21.57
-24.55
-28.03
-31.58
-34.59
-36.38
-36.4
-34.38
-30.42
-24.9
-18.41
-11.55
-4.84
1.34
6.75
11.31
14.98
17.77
19.67
20.72
20.97
20.58
19.84
19.07
18.56
18.45
18.69
19.16
19.69
20.17
20.54
20.81
20.95
20.89
20.52
19.7
18.38
16.55
14.31
11.8
9.17
6.52
3.9
1.34
-1.16
-3.59
-5.96
-8.32
-10.71
-13.16
-15.71
-18.4
-21.26
-24.31
-27.41
-30.24
-32.28
-32.9
-31.61
-28.29
-23.27
-17.23
-10.97
-5.12
-0.02
4.23
7.67
10.28
11.97
12.7
12.56
11.86
11.05
10.57
10.64
11.21
12.02
12.74
13.15
13.24
13.13
12.97
12.82
12.58
12.07
11.1
9.57
7.56
5.26
2.87
0.59
-1.54
-3.55
-5.52
-7.53
-9.63
-11.81
-14.1
-16.54
-19.13
-21.8
-24.29
-26.18
-26.93
-26.12
-23.56
-19.44
-14.2
-8.49
-2.89
2.19
6.55
10.1
12.8
14.58
15.38
15.26
14.43
13.27
12.21
11.59
11.55
11.98
12.59
13.04
13.07
12.65
11.92
11.14
10.53
10.18
9.98
9.67
8.95
7.66
5.8
3.57
1.27
-0.88
-2.79
-4.56
-6.37
-8.41
-10.79
-13.55
-16.63
-19.9
-23.16
-26.06
-28.18
-29.05
-28.32
-25.89
-21.99
-17.08
-11.75
-6.51
-1.68
2.58
6.19
9.09
11.17
12.38
12.83
12.76
12.51
12.38
12.48
12.76
13.03
13.12
12.98
12.67
12.32
12.0
11.75
11.49
11.08
10.34
9.08
7.18
4.69
1.82
-1.1
-3.69
-5.78
-7.42
-8.92
-10.65
-12.91
-15.8
-19.21
-22.84
-26.28
-29.06
-30.7
-30.82
-29.19
-25.82
-21.01
-15.25
-9.12
-3.13
2.34
7.12
11.19
14.55
17.2
19.1
20.19
20.51
20.24
19.64
19.05
18.67
18.54
18.53
18.4
17.98
17.21
16.2
15.11
14.11
13.2
12.26
11.07
9.45
7.32
4.74
1.87
-1.06
-3.86
-6.38
-8.54
-10.38
-11.96
-13.47
-15.11
-17.1
-19.55
-22.37
-25.28
-27.81
-29.44
-29.7
-28.38
-25.45
-21.15
-15.88
-10.11
-4.25
1.38
6.56
11.16
15.07
18.16
20.34
21.57
21.92
21.56
20.73
19.72
18.75
17.97
17.48
17.26
17.26
17.38
17.48
17.39
17.0
16.27
15.23
13.99
12.63
11.2
9.74
8.22
6.64
4.97
3.2
1.33
-0.64
-2.7
-4.81
-6.93
-9.09
-11.42
-14.06
-17.16
-20.66
-24.28
-27.5
-29.66
-30.2
-28.81
-25.54
-20.78
-15.11
-9.14
-3.36
1.85
6.29
9.84
12.47
14.18
15.02
15.07
14.51
13.59
12.62
11.92
11.68
11.96
12.59
13.32
13.87
14.08
13.93
13.53
12.98
12.37
11.67
10.76
9.47
7.7
5.42
2.78
0.02
-2.55
-4.67
-6.23
-7.32
-8.22
-9.25
-10.72
-12.79
-15.49
-18.66
-22.0
-25.1
-27.46
-28.6
-28.15
-25.97
-22.19
-17.22
-11.62
-5.98
-0.76
3.77
7.55
10.59
12.98
14.75
15.91
16.5
16.62
16.38
15.97
15.55
15.18
14.91
14.74
14.65
14.61
14.56
14.45
14.22
13.86
13.35
12.67
11.74
10.48
8.8
6.68
4.24
1.67
-0.83
-3.11
-5.14
-7.0
-8.77
-10.54
-12.33
-14.13
-15.97
-17.94
-20.22
-22.93
-26.04
-29.2
-31.78
-33.04
-32.32
-29.39
-24.45
-18.13
-11.22
-4.48
1.59
6.71
10.78
13.84
15.95
17.2
17.73
17.7
17.29
16.71
16.17
15.85
15.85
16.14
16.59
17.04
17.31
17.35
17.19
16.89
16.5
15.95
15.12
13.88
12.2
10.15
7.93
5.77
3.86
2.31
1.06
-0.02
-1.16
-2.54
-4.28
-6.32
-8.55
-10.82
-13.0
-15.08
-17.12
-19.24
-21.56
-24.13
-26.86
-29.52
-31.68
-32.85
-32.6
-30.72
-27.31
-22.74
-17.54
-12.22
-7.19
-2.61
1.48
5.12
8.29
10.95
13.04
14.53
15.49
16.05
16.36
16.56
16.7
16.78
16.76
16.65
16.53
16.51
16.65
16.93
17.2
17.31
17.1
16.5
15.52
14.21
12.67
11.0
9.31
7.73
6.32
5.06
3.82
2.45
0.82
-1.08
-3.17
-5.28
-7.31
-9.24
-11.12
-13.09
-15.2
-17.53
-20.05
-22.7
-25.36
-27.83
-29.81
-30.95
-30.95
-29.61
-26.98
-23.27
-18.83
-14.04
-9.25
-4.71
-0.58
3.01
6.04
8.49
10.38
11.74
12.66
13.23
13.56
13.76
13.88
13.92
13.84
13.61
13.25
12.8
12.33
11.85
11.33
10.7
9.95
9.16
8.44
7.86
7.43
7.05
6.55
5.8
4.73
3.35
1.72
-0.06
-1.94
-3.86
-5.81
-7.75
-9.7
-11.68
-13.81
-16.19
-18.91
-21.92
-24.99
-27.74
-29.71
-30.48
-29.81
-27.71
-24.39
-20.17
-15.42
-10.49
-5.68
-1.24
2.65
5.82
8.25
9.95
11.04
11.67
12.0
12.18
12.3
12.41
12.51
12.62
12.78
13.07
13.59
14.31
15.06
15.59
15.57
14.81
13.32
11.33
9.17
7.18
5.57
4.35
3.42
2.64
1.85
0.93
-0.23
-1.69
-3.44
-5.41
-7.45
-9.46
-11.43
-13.46
-15.72
-18.36
-21.39
-24.64
-27.76
-30.29
-31.78
-31.88
-30.45
-27.58
-23.53
-18.67
-13.39
-8.03
-2.92
1.66
5.5
8.46
10.54
11.88
12.7
13.23
13.63
13.92
14.09
14.13
14.1
14.07
14.08
14.16
14.25
14.29
14.22
14.05
13.79
13.44
12.99
12.38
11.59
10.66
9.65
8.61
7.51
6.22
4.62
2.65
0.41
-1.92
-4.18
-6.25
-8.17
-10.06
-12.07
-14.32
-16.86
-19.69
-22.76
-25.92
-28.88
-31.18
-32.34
-31.94
-29.81
-26.08
-21.13
-15.54
-9.85
-4.57
0.03
3.79
6.77
9.06
10.78
11.98
12.64
12.75
12.36
11.68
11.03
10.74
11.01
11.81
12.89
13.94
14.76
15.26
15.52
15.62
15.59
15.32
14.64
13.46
11.76
9.65
7.29
4.83
2.36
-0.08
-2.47
-4.78
-6.94
-8.9
-10.67
-12.32
-13.99
-15.84
-17.97
-20.28
-22.47
-24.1
-24.68
-23.88
-21.63
-18.1
-13.69
-8.85
-3.98
0.58
4.64
8.05
10.75
12.72
14.01
14.65
14.71
14.29
13.51
12.56
11.64
10.94
10.55
10.46
10.53
10.62
10.6
10.44
10.13
9.67
9.05
8.15
6.88
5.19
3.13
0.87
-1.4
-3.54
-5.51
-7.41
-9.37
-11.59
-14.15
-17.09
-20.28
-23.49
-26.38
-28.51
-29.48
-28.96
-26.84
-23.28
-18.66
-13.52
-8.35
-3.5
0.86
4.7
8.05
10.87
13.06
14.51
15.15
15.06
14.46
13.69
13.07
12.86
13.12
13.76
14.61
15.46
16.1
16.43
16.38
15.93
15.11
13.93
12.37
10.42
8.05
5.31
2.25
-0.98
-4.19
-7.21
-9.93
-12.32
-14.46
-16.55
-18.77
-21.24
-23.96
-26.72
-29.12
-30.71
-31.08
-30.03
-27.65
-24.25
-20.23
-15.93
-11.55
-7.15
-2.69
1.79
6.19
10.3
13.87
16.67
18.59
19.62
19.91
19.7
19.23
18.74
18.31
17.97
17.67
17.35
16.98
16.56
16.06
15.43
14.63
13.6
12.32
10.79
9.06
7.16
5.15
3.1
1.03
-1.03
-3.17
-5.51
-8.2
-11.27
-14.69
-18.3
-21.91
-25.31
-28.26
-30.44
-31.51
-31.16
-29.27
-25.99
-21.79
-17.23
-12.84
-8.97
-5.72
-3.08
-1.07
0.2
0.57
-0.05
-1.56
-3.68
-5.97
-8.08
-9.81
-11.19
-12.4
-13.69
-15.22
-17.04
-19.17
-21.61
-24.44
-27.78
-31.62
-35.8
-39.97
-43.58
-46.08
-46.99
-45.89
-42.48
-36.55
-28.03
-17.11
-4.3
9.57
23.56
36.86
49.0
59.92
69.8
78.81
86.97
94.05
99.81
104.09
106.9
108.35
108.41
106.84
103.22
97.23
88.92
78.83
67.9
57.19
47.52
39.28
32.45
26.83
22.22
18.57
15.93
14.27
13.33
12.71
11.94
10.7
8.93
6.75
4.31
1.64
-1.4
-4.98
-9.21
-14.0
-19.14
-24.45
-29.84
-35.32
-40.9
-46.43
-51.57
-55.9
-59.07
-61.01
-61.94
-62.21
-62.14
-61.8
-61.01
-59.45
-56.88
-53.25
-48.81
-43.97
-39.22
-34.91
-31.22
-28.08
-25.26
-22.46
-19.48
-16.3
-13.19
-10.6
-9.12
-9.19
-10.98
-14.26
-18.53
-23.12
-27.46
-31.26
-34.44
-37.07
-39.13
-40.42
-40.63
-39.59
-37.4
-34.51
-31.46
-28.6
-25.99
-23.44
-20.78
-18.17
-16.08
-15.0
-15.06
-15.78
-16.17
-15.21
-12.37
-7.85
-2.36
3.32
8.89
14.59
20.94
28.22
36.15
43.84
50.24
54.62
56.9
57.65
57.85
58.36
59.71
61.91
64.64
67.45
69.97
72.03
73.66
74.89
75.7
75.89
75.1
73.03
69.59
65.01
59.82
54.5
49.33
44.27
39.01
33.22
26.81
19.99
13.15
6.65
0.67
-4.88
-10.19
-15.36
-20.25
-24.54
-27.84
-29.85
-30.51
-29.95
-28.42
-26.13
-23.32
-20.2
-17.05
-14.19
-11.93
-10.42
-9.62
-9.32
-9.23
-9.1
-8.86
-8.6
-8.55
-8.92
-9.79
-11.06
-12.46
-13.58
-14.13
-14.0
-13.38
-12.68
-12.36
-12.8
-14.11
-16.14
-18.53
-20.9
-22.9
-24.31
-25.06
-25.16
-24.71
-23.85
-22.7
-21.38
-19.95
-18.44
-16.87
-15.25
-13.62
-11.91
-9.95
-7.43
-4.0
0.57
6.21
12.59
19.11
25.2
30.44
34.66
37.95
40.49
42.48
44.09
45.41
46.52
47.37
47.81
47.54
46.29
43.97
40.76
37.15
33.65
30.56
27.84
25.08
21.75
17.51
12.34
6.6
0.85
-4.43
-8.96
-12.77
-16.03
-18.98
-21.74
-24.37
-26.83
-29.1
-31.16
-32.94
-34.24
-34.77
-34.17
-32.2
-28.92
-24.69
-20.1
-15.74
-12.05
-9.2
-7.11
-5.59
-4.5
-3.8
-3.49
-3.58
-4.01
-4.61
-5.19
-5.61
-5.78
-5.7
-5.36
-4.71
-3.69
-2.2
-0.25
2.06
4.53
6.95
9.11
10.8
11.89
12.23
11.78
10.58
8.75
6.48
4.0
1.44
-1.13
-3.68
-6.22
-8.71
-11.15
-13.56
-15.97
-18.39
-20.75
-22.84
-24.34
-24.97
-24.52
-22.98
-20.43
-17.05
-13.07
-8.71
-4.21
0.21
4.37
8.14
11.42
14.13
16.15
17.32
17.52
16.77
15.26
13.35
11.43
9.8
8.57
7.72
7.11
6.6
6.05
5.35
4.36
3.05
1.44
-0.3
-1.94
-3.27
-4.2
-4.74
-5.03
-5.16
-5.14
-4.9
-4.38
-3.67
-3.01
-2.76
-3.21
-4.46
-6.32
-8.41
-10.33
-11.71
-12.4
-12.38
-11.7
-10.4
-8.55
-6.26
-3.75
-1.3
0.78
2.31
3.23
3.62
3.6
3.24
2.63
1.89
1.26
1.06
1.61
3.04
5.2
7.66
9.92
11.53
12.28
12.21
11.51
10.42
9.08
7.6
5.97
4.28
2.59
0.99
-0.47
-1.83
-3.23
-4.82
-6.7
-8.88
-11.22
-13.54
-15.64
-17.36
-18.64
-19.48
-19.9
-19.9
-19.46
-18.48
-16.91
-14.73
-11.97
-8.75
-5.22
-1.61
1.82
4.82
7.14
8.63
9.25
9.05
8.2
6.9
5.37
3.8
2.34
1.13
0.27
-0.21
-0.29
-0.05
0.42
1.06
1.89
2.96
4.28
5.78
7.27
8.55
9.46
9.97
10.15
10.06
9.62
8.7
7.13
4.91
2.23
-0.6
-3.3
-5.75
-8.05
-10.3
-12.53
-14.57
-16.11
-16.87
-16.68
-15.61
-13.86
-11.68
-9.29
-6.83
-4.43
-2.18
-0.24
1.23
2.08
2.24
1.77
0.84
-0.25
-1.25
-1.99
-2.45
-2.67
-2.72
-2.58
-2.19
-1.51
-0.59
0.34
1.07
1.44
1.5
1.47
1.64
2.17
3.01
3.96
4.69
5.03
4.93
4.49
3.93
3.37
2.84
2.22
1.34
0.04
-1.76
-4.01
-6.57
-9.27
-11.96
-14.48
-16.64
-18.18
-18.83
-18.4
-16.95
-14.75
-12.15
-9.45
-6.81
-4.29
-1.97
-0.05
1.3
2.04
2.36
2.65
3.31
4.47
5.96
7.42
8.47
8.96
8.96
