-5.45
-8.97
-13.02
-17.36
-21.6
-25.33
-28.23
-30.17
-31.21
-31.54
-31.39
-31.01
-30.61
-30.35
-30.37
-30.74
-31.42
-32.16
-32.58
-32.2
-30.61
-27.56
-23.08
-17.39
-10.8
-3.67
3.67
10.89
17.59
23.36
27.81
30.75
32.21
32.38
31.59
30.11
28.14
25.79
23.16
20.41
17.72
15.31
13.33
11.82
10.68
9.68
8.6
7.28
5.62
3.64
1.44
-0.87
-3.24
-5.65
-8.1
-10.64
-13.31
-16.14
-19.17
-22.42
-25.88
-29.43
-32.89
-36.07
-38.85
-41.23
-43.3
-45.19
-46.93
-48.45
-49.5
-49.75
-48.75
-46.1
-41.47
-34.72
-26.06
-16.05
-5.5
4.71
13.91
21.8
28.57
34.67
40.61
46.71
52.92
58.95
64.4
68.98
72.58
75.3
77.28
78.58
79.25
79.26
78.64
77.47
75.89
73.93
71.6
68.81
65.46
61.5
56.89
51.67
45.91
39.74
33.39
27.15
21.23
15.7
10.49
5.47
0.56
-4.13
-8.37
-11.93
-14.77
-17.13
-19.42
-21.91
-24.53
-26.84
-28.25
-28.48
-27.72
-26.69
-26.26
-27.03
-29.03
-31.81
-34.76
-37.47
-39.88
-42.2
-44.55
-46.74
-48.31
-48.74
-47.75
-45.48
-42.33
-38.81
-35.28
-31.89
-28.69
-25.75
-23.26
-21.48
-20.62
-20.78
-21.84
-23.54
-25.54
-27.53
-29.27
-30.6
-31.4
-31.68
-31.51
-31.14
-30.87
-31.05
-31.94
-33.66
-36.12
-38.95
-41.62
-43.45
-43.86
-42.44
-39.11
-34.16
-28.1
-21.56
-15.08
-8.99
-3.43
1.58
5.97
9.62
12.34
14.06
14.9
15.19
15.39
15.87
16.74
17.86
18.9
19.6
19.91
20.07
20.48
21.45
23.04
24.97
26.83
28.21
28.95
29.16
29.12
29.08
29.17
29.28
29.17
28.6
27.36
25.35
22.55
19.02
14.89
10.33
5.49
0.44
-4.84
-10.37
-16.06
-21.59
-26.37
-29.67
-30.83
-29.47
-25.64
-19.8
-12.7
-5.14
2.14
8.59
13.8
17.52
19.65
20.25
19.55
17.95
15.92
13.94
12.33
11.29
10.85
10.98
11.65
12.78
14.27
15.93
17.48
18.59
18.97
18.47
17.09
14.99
12.45
9.86
7.54
5.7
4.34
3.21
1.88
-0.06
-2.86
-6.44
-10.43
-14.37
-17.83
-20.6
-22.72
-24.4
-25.91
-27.49
-29.22
-31.01
-32.5
-33.16
-32.42
-29.84
-25.31
-19.06
-11.56
-3.4
4.91
13.0
20.63
27.58
33.51
38.11
41.06
42.22
41.7
39.85
37.18
34.19
31.18
28.18
25.05
21.57
17.61
13.26
8.75
4.39
0.48
-2.77
-5.26
-6.96
-7.95
-8.37
-8.39
-8.22
-8.04
-8.03
-8.3
-8.86
-9.54
-9.98
-9.65
-8.09
-5.12
-1.03
3.45
7.37
9.85
10.4
8.93
5.69
1.13
-4.23
-9.8
-14.88
-18.69
-20.52
-19.91
-16.86
-11.83
-5.66
0.71
6.48
11.19
14.76
17.32
19.02
19.89
19.91
19.1
17.7
16.17
15.09
14.89
15.66
17.1
18.66
19.79
20.21
19.96
19.4
19.04
19.24
20.11
21.41
22.66
23.31
22.99
21.6
19.35
16.6
13.71
10.9
8.19
5.55
2.88
0.15
-2.68
-5.64
-8.85
-12.49
-16.74
-21.63
-26.91
-32.04
-36.3
-38.93
-39.49
-37.95
-34.75
-30.63
-26.36
-22.48
-19.24
-16.65
-14.67
-13.37
-13.0
-13.82
-15.94
-19.08
-22.66
-25.94
-28.4
-29.97
-31.05
-32.33
-34.32
-37.02
-39.81
-41.68
-41.66
-39.32
-35.01
-29.69
-24.47
-20.1
-16.75
-14.06
-11.43
-8.26
-4.14
1.28
8.21
16.63
26.03
35.35
43.16
48.29
50.37
50.05
48.7
47.59
47.21
46.95
45.5
41.66
35.01
26.21
16.69
8.1
1.64
-2.25
-3.84
-3.82
-2.85
-1.4
0.37
2.45
4.68
6.67
7.82
7.61
5.91
3.13
0.11
-2.2
-3.19
-2.81
-1.55
-0.09
1.12
1.96
2.7
3.71
5.17
7.03
8.98
10.64
11.75
12.22
12.11
11.61
10.93
10.24
9.57
8.79
7.69
6.08
3.87
1.2
-1.66
-4.41
-6.91
-9.21
-11.58
-14.32
-17.67
-21.63
-25.98
-30.3
-34.03
-36.6
-37.6
-36.79
-34.31
-30.5
-25.89
-21.04
-16.34
-12.01
-8.07
-4.5
-1.3
1.42
3.54
5.01
5.94
6.66
7.6
9.19
11.65
14.98
18.85
22.8
26.38
29.28
31.46
33.06
34.27
35.18
35.8
36.03
35.84
35.28
34.56
33.86
33.3
32.77
32.05
30.9
29.19
27.0
24.52
21.98
19.49
17.04
14.48
11.64
8.34
4.49
0.14
-4.48
-8.96
-12.76
-15.33
-16.32
-15.65
-13.6
-10.72
-7.64
-4.92
-2.94
-1.92
-2.0
-3.23
-5.58
-8.89
-12.79
-16.82
-20.51
-23.54
-25.79
-27.34
-28.32
-28.88
-29.12
-29.09
-28.86
-28.58
-28.39
-28.42
-28.71
-29.13
-29.5
-29.64
-29.48
-29.06
-28.55
-28.08
-27.67
-27.29
-26.8
-26.16
-25.36
-24.47
-23.56
-22.64
-21.71
-20.75
-19.81
-18.92
-18.0
-16.82
-15.02
-12.19
-8.05
-2.57
4.05
11.39
18.99
26.38
33.2
39.15
44.0
47.61
49.96
51.13
51.35
50.89
50.01
48.9
47.69
46.47
45.35
44.43
43.67
42.83
41.54
39.35
35.97
31.36
25.75
19.49
12.89
6.15
-0.66
-7.45
-14.06
-20.26
-25.85
-30.76
-35.09
-39.03
-42.72
-46.17
-49.2
-51.5
-52.79
-52.95
-52.09
-50.66
-49.28
-48.56
-48.82
-49.95
-51.31
-51.97
-51.01
-47.83
-42.38
-35.1
-26.72
-18.03
-9.64
-2.01
4.59
9.98
14.03
16.7
18.07
18.37
17.93
17.1
16.17
15.33
14.67
14.24
14.08
14.16
14.47
14.89
15.35
15.71
15.91
15.93
15.75
15.38
14.82
14.1
13.22
12.22
11.14
10.02
8.85
7.68
6.53
5.45
4.49
3.7
3.09
2.65
2.32
1.95
1.34
0.25
-1.43
-3.64
-6.04
-8.09
-9.2
-8.92
-7.07
-3.79
0.52
5.35
10.19
14.61
18.32
21.11
22.87
23.58
23.31
22.26
20.7
18.93
17.2
15.66
14.4
13.39
12.64
12.11
11.77
11.54
11.32
10.95
10.35
9.46
8.36
7.18
6.05
5.01
3.98
2.83
1.39
-0.43
-2.56
-4.85
-7.08
-9.07
-10.78
-12.27
-13.76
-15.43
-17.42
-19.71
-22.09
-24.21
-25.62
-25.93
-24.89
-22.45
-18.84
-14.48
-9.86
-5.44
-1.53
1.74
4.31
6.22
7.48
8.1
8.13
7.64
6.77
5.7
4.58
3.52
2.62
1.96
1.57
1.51
1.72
2.05
2.27
2.12
1.38
-0.01
-2.0
-4.45
-7.15
-9.91
-12.6
-15.11
-17.43
-19.53
-21.44
-23.21
-24.9
-26.6
-28.35
-30.19
-32.11
-34.1
-36.18
-38.32
-40.36
-41.95
-42.59
-41.72
-38.99
-34.41
-28.43
-21.78
-15.17
-9.06
-3.59
1.33
5.8
9.76
13.0
15.33
16.7
17.28
17.37
17.27
17.17
17.15
17.2
17.35
17.62
18.06
18.63
19.22
19.68
19.95
20.09
20.23
20.52
21.03
21.67
22.26
22.62
22.64
22.3
21.69
20.92
20.12
19.44
19.07
19.16
19.74
20.68
21.67
22.29
22.12
20.85
18.32
14.55
9.78
4.43
-0.88
-5.51
-8.91
-10.79
-11.19
-10.43
-8.98
-7.25
-5.53
-3.94
-2.47
-1.11
0.18
1.44
2.7
4.0
5.36
6.78
8.22
9.59
10.76
11.65
12.22
12.54
12.76
13.05
13.47
13.95
14.28
14.21
13.56
12.33
10.69
8.9
7.19
5.66
4.22
2.72
0.99
-1.04
-3.3
-5.64
-7.93
-10.06
-12.06
-14.03
-16.11
-18.41
-20.95
-23.69
-26.47
-29.09
-31.28
-32.71
-33.03
-31.94
-29.25
-25.0
-19.51
-13.35
-7.21
-1.76
2.5
5.34
6.78
6.97
6.15
4.63
2.72
0.75
-0.98
-2.31
-3.24
-3.94
-4.62
-5.4
-6.22
-6.91
-7.3
-7.33
-7.07
-6.63
-6.04
-5.26
-4.15
-2.66
-0.79
1.41
3.9
6.71
9.87
13.27
16.57
19.23
20.68
20.63
19.16
16.76
14.09
11.67
9.73
8.17
6.77
5.44
4.31
3.7
3.92
5.05
6.88
8.98
10.92
12.4
13.33
13.76
13.74
13.3
12.39
10.98
9.11
6.94
4.74
2.8
1.39
0.63
0.5
0.79
1.23
1.58
1.67
1.5
1.17
0.76
0.31
-0.18
-0.75
-1.41
-2.17
-3.01
-3.95
-5.0
-6.21
-7.58
-9.08
-10.65
-12.16
-13.5
-14.59
-15.42
-16.06
-16.65
-17.29
-18.09
-19.0
-19.89
-20.49
-20.51
-19.7
-17.92
-15.22
-11.79
-7.94
-3.97
-0.16
3.3
6.26
8.65
10.39
11.45
11.87
11.72
11.16
10.38
9.57
8.91
8.52
8.45
8.66
9.07
9.63
10.31
11.11
11.99
12.89
13.63
14.06
14.01
13.43
12.36
10.92
9.24
7.41
5.45
3.33
1.05
-1.36
-3.82
-6.19
-8.35
-10.27
-11.99
-13.65
-15.4
-17.39
-19.61
-21.93
-24.06
-25.61
-26.22
-25.67
-23.95
-21.23
-17.87
-14.17
-10.36
-6.55
-2.85
0.62
3.61
5.89
7.28
7.71
7.33
6.38
5.18
4.07
3.27
2.93
3.11
3.75
4.79
6.06
7.44
8.77
9.91
10.76
11.22
11.25
10.85
10.1
9.09
7.96
6.8
5.69
4.62
3.56
2.47
1.39
0.39
-0.4
-0.9
-1.11
-1.09
-0.99
-1.01
-1.29
-1.9
-2.75
-3.61
-4.09
-3.84
-2.61
-0.44
2.44
5.6
8.66
11.35
13.54
15.2
16.32
16.87
16.83
16.19
15.0
13.35
11.38
9.29
7.33
5.72
4.63
4.05
3.89
3.9
3.85
3.54
2.86
1.76
0.2
-1.85
-4.48
-7.7
-11.46
-15.62
-19.98
-24.35
-28.61
-32.72
-36.71
-40.63
-44.45
-48.06
-51.33
-54.18
-56.6
-58.64
-60.27
-61.37
-61.59
-60.56
-57.98
-53.74
-47.96
-40.94
-33.08
-24.79
-16.46
-8.44
-1.09
5.29
10.5
14.51
17.46
19.63
21.36
22.98
24.75
26.81
29.15
31.63
34.05
36.12
37.62
38.36
38.27
37.34
35.56
32.98
29.63
25.53
20.73
15.36
9.58
3.64
-2.23
-7.83
-12.91
-17.27
-20.68
-22.96
-24.08
-24.21
-23.7
-23.01
-22.59
-22.76
-23.69
-25.31
-27.29
-29.13
-30.16
-29.7
-27.31
-22.93
-16.96
-10.17
-3.33
2.94
8.4
13.06
17.07
20.5
23.31
25.36
26.57
27.0
26.86
26.44
25.98
25.57
25.16
24.63
23.89
22.94
21.95
21.08
20.44
19.95
19.42
18.58
17.25
15.42
13.2
10.82
8.45
6.18
4.02
1.96
0.04
-1.66
-3.04
-4.11
-4.96
-5.79
-6.84
-8.21
-9.93
-11.92
-14.0
-15.98
-17.56
-18.42
-18.19
-16.62
-13.66
-9.55
-4.76
0.17
4.8
8.88
12.37
15.28
17.56
19.17
20.05
20.3
20.13
19.8
19.48
19.18
18.82
18.32
17.7
17.05
16.5
16.1
15.8
15.49
15.08
14.59
14.04
13.48
12.85
12.07
11.02
9.65
7.97
6.03
3.88
1.55
-0.94
-3.55
-6.18
-8.74
-11.15
-13.41
-15.58
-17.76
-19.97
-22.08
-23.78
-24.64
-24.2
-22.22
-18.72
-14.06
-8.8
-3.53
1.28
5.38
8.68
11.2
12.92
13.83
13.91
13.24
12.04
10.63
9.37
8.51
8.13
8.12
8.29
8.42
8.36
8.07
7.58
6.93
6.2
5.44
4.69
3.99
3.36
2.76
2.12
1.34
0.33
-0.9
-2.31
-3.83
-5.44
-7.16
-9.06
-11.21
-13.63
-16.27
-19.05
-21.81
-24.36
-26.39
-27.56
-27.48
-25.9
-22.78
-18.39
-13.24
-7.95
-3.09
0.93
3.9
5.83
6.83
7.11
6.88
6.34
5.68
5.06
4.61
4.4
4.43
4.68
5.04
5.44
5.79
6.05
6.23
6.38
6.51
6.61
6.59
6.35
5.8
4.91
3.76
2.46
1.14
-0.11
-1.29
-2.45
-3.75
-5.29
-7.2
-9.51
-12.14
-14.93
-17.69
-20.22
-22.36
-23.98
-24.99
-25.19
-24.36
-22.3
-18.87
-14.14
-8.37
-2.05
4.28
10.08
14.93
18.57
20.89
21.9
21.68
20.44
18.48
16.17
13.91
12.06
10.85
10.31
10.34
10.73
11.29
11.91
12.49
12.94
13.14
12.87
11.94
10.26
7.87
4.95
1.78
-1.36
-4.27
-6.88
-9.16
-11.23
-13.21
-15.21
-17.3
-19.38
-21.29
-22.78
-23.75
-24.29
-24.65
-25.1
-25.72
-26.28
-26.28
-25.18
-22.7
-18.99
-14.53
-9.92
-5.59
-1.66
1.99
5.53
8.94
11.94
14.14
15.2
15.08
14.04
12.6
11.26
10.42
10.19
10.47
11.05
11.73
12.41
13.02
13.61
14.2
14.85
15.58
16.36
17.1
17.69
17.99
17.85
17.2
15.99
14.23
12.01
9.43
6.68
3.93
1.38
-0.91
-3.01
-5.11
-7.4
-9.9
-12.34
-14.18
-14.81
-13.81
-11.12
-7.08
-2.31
2.57
7.11
11.13
14.63
17.64
20.15
22.04
23.14
23.37
22.78
21.63
20.23
18.96
18.11
17.81
18.0
18.52
19.15
19.7
20.04
20.08
19.76
19.01
17.79
16.12
14.09
11.86
9.55
7.3
5.18
3.25
1.56
0.1
-1.28
-2.85
-4.98
-7.93
-11.79
-16.41
-21.51
-26.73
-31.76
-36.25
-39.79
-41.87
-42.02
-40.04
-36.17
-31.06
-25.59
-20.51
-16.2
-12.67
-9.73
-7.23
-5.2
-3.85
-3.36
-3.76
-4.8
-6.11
-7.25
-7.91
-8.0
-7.54
-6.65
-5.43
-3.88
-1.96
0.34
3.01
5.89
8.72
11.15
12.9
13.7
13.47
12.23
10.17
7.55
4.73
2.03
-0.31
-2.16
-3.54
-4.58
-5.46
-6.39
-7.58
-9.17
-11.19
-13.5
-15.76
-17.49
-18.19
-17.5
-15.26
-11.6
-6.84
-1.42
4.17
9.5
14.2
18.0
20.74
22.25
22.49
21.47
19.4
16.64
13.71
11.1
9.1
7.7
6.62
5.47
4.01
2.21
0.25
-1.65
-3.38
-4.99
-6.56
-8.18
-9.84
-11.41
-12.77
-13.9
-14.87
-15.84
-17.01
-18.5
-20.37
-22.6
-25.14
-27.9
-30.77
-33.59
-36.13
-38.01
-38.75
-37.88
-35.09
-30.37
-24.04
-16.67
-8.91
-1.32
5.69
11.83
16.92
20.8
23.34
24.52
24.52
23.59
22.1
20.39
18.76
17.35
16.25
15.46
14.91
14.51
14.16
13.79
13.39
13.0
12.64
12.3
11.88
11.22
10.17
8.66
6.79
4.78
2.93
1.49
0.58
0.11
-0.16
-0.52
-1.32
-2.81
-5.11
-8.16
-11.64
-15.05
-17.77
-19.24
-19.12
-17.4
-14.39
-10.5
-6.21
-1.88
2.27
6.0
9.12
11.44
12.84
13.33
13.14
12.6
12.03
11.65
11.51
11.55
11.62
11.63
11.57
11.51
11.55
11.77
12.13
12.57
12.95
13.13
13.1
12.88
12.6
12.36
12.17
11.91
11.37
10.29
8.51
6.06
3.13
-0.01
-3.12
-6.1
-8.96
-11.72
-14.26
-16.22
-17.12
-16.53
-14.25
-10.43
-5.54
-0.2
5.1
10.08
14.64
18.77
22.4
25.28
27.12
27.72
27.04
25.3
22.91
20.31
17.88
15.85
14.28
13.13
12.31
11.68
11.09
10.34
9.19
7.38
4.75
1.31
-2.78
-7.21
-11.66
-15.88
-19.77
-23.27
-26.37
-28.99
-31.05
-32.48
-33.32
-33.71
-33.9
-34.13
-34.64
-35.52
-36.76
-38.15
-39.29
-39.7
-38.88
-36.48
-32.42
-26.88
-20.24
-13.0
-5.62
1.53
8.17
14.07
19.01
22.78
25.21
26.29
26.27
25.56
24.7
24.15
24.16
24.67
25.4
26.03
26.35
26.4
26.3
26.22
26.21
26.16
25.91
25.31
24.31
22.96
21.35
19.52
17.44
15.0
12.1
8.63
4.56
-0.03
-5.06
-10.4
-15.93
-21.58
-27.25
-32.72
-37.56
-41.2
-43.02
-42.59
-39.92
-35.41
-29.78
-23.8
-18.08
-12.96
-8.62
-5.13
-2.54
-0.83
0.13
0.65
1.16
1.98
3.27
4.97
6.81
8.52
9.89
10.88
11.57
12.13
12.67
13.21
13.61
13.58
12.74
10.75
7.43
2.9
-2.41
-7.83
-12.58
-16.08
-18.08
-18.75
-18.63
-18.41
-18.8
-20.29
-23.03
-26.84
-31.18
-35.3
-38.42
-39.87
-39.23
-36.47
-31.81
-25.74
-18.86
-11.72
-4.75
1.73
7.56
12.66
17.0
20.64
23.67
26.29
28.71
31.16
33.8
36.62
39.4
41.74
43.15
43.25
41.9
39.29
35.84
32.04
28.27
24.67
21.25
17.98
14.88
12.06
9.65
7.62
5.68
3.43
0.49
-3.25
-7.62
-12.18
-16.38
-19.81
-22.26
-23.77
-24.58
-25.02
-25.33
-25.61
-25.75
-25.46
-24.42
-22.44
-19.54
-15.94
-11.98
-7.84
-3.49
1.3
6.76
12.87
19.2
25.01
29.48
32.02
32.46
31.1
28.47
25.14
21.57
18.03
14.76
12.0
10.0
8.97
8.93
9.72
11.01
12.44
13.69
14.58
15.03
15.04
14.71
14.23
13.84
13.75
13.99
14.34
14.38
13.62
11.69
8.49
4.24
-0.58
-5.45
-9.8
-13.2
-15.36
-16.11
-15.49
-13.74
-11.23
-8.45
-5.77
-3.39
-1.3
0.66
2.56
4.4
6.0
7.19
7.86
8.15
8.34
8.77
9.66
10.96
12.44
13.7
14.38
14.32
13.52
12.09
10.19
7.89
5.2
2.06
-1.56
-5.61
-9.97
-14.41
-18.61
-22.29
-25.24
-27.38
-28.84
-29.89
-30.9
-32.15
-33.87
-36.07
-38.6
-41.21
-43.55
-45.27
-46.03
-45.53
-43.66
-40.5
-36.39
-31.85
-27.45
-23.65
-20.74
-18.8
-17.74
-17.41
-17.63
-18.2
-18.98
-19.77
-20.35
-20.53
-20.12
-19.04
-17.34
-15.19
-12.81
-10.42
-8.19
-6.16
-4.32
-2.63
-1.09
0.21
1.17
1.7
1.83
1.76
1.86
2.57
4.27
7.07
10.77
14.94
19.07
22.8
25.9
28.35
30.07
30.9
30.65
29.24
26.91
24.27
22.1
21.1
21.58
23.37
25.9
28.42
30.29
31.08
30.69
29.29
27.26
25.03
23.08
21.72
21.08
21.11
21.61
22.32
23.05
23.67
24.11
24.27
24.04
23.3
21.97
20.07
17.72
15.09
12.37
9.73
7.28
5.12
3.32
1.85
0.59
-0.6
-1.89
-3.35
-4.96
-6.55
-7.96
-9.04
-9.74
-10.12
-10.4
-10.88
-11.87
-13.55
-15.79
-18.18
-20.01
-20.59
-19.45
-16.57
-12.33
-7.32
-2.13
2.86
7.47
11.62
15.21
18.03
19.89
20.68
20.52
19.67
18.47
17.2
16.01
14.97
14.14
13.57
13.33
13.37
13.49
13.29
12.31
10.24
7.03
2.91
-1.71
-6.45
-11.04
-15.44
-19.73
-24.07
-28.53
-33.04
-37.43
-41.35
-44.41
-46.33
-46.93
-46.32
-44.84
-42.94
-41.08
-39.53
-38.3
-37.18
-35.8
-33.81
-30.97
-27.25
-22.79
-17.8
-12.52
-7.09
-1.57
4.0
9.56
15.0
20.16
24.9
29.12
32.8
35.93
38.51
40.53
41.97
42.79
42.92
42.34
41.03
39.06
36.57
33.83
31.15
28.78
26.83
25.27
23.92
22.56
20.97
19.01
16.62
13.8
10.64
7.25
3.75
0.18
-3.54
-7.57
-12.06
-17.02
-22.3
-27.67
-32.94
-38.08
-43.15
-48.18
-52.93
-56.89
-59.37
-59.73
-57.7
-53.54
-47.94
-41.81
-36.01
-31.12
-27.36
-24.71
-22.94
-21.84
-21.26
-21.07
-21.17
-21.4
-21.55
-21.47
-21.04
-20.11
-18.5
-15.88
-11.95
-6.63
-0.29
6.23
11.87
15.75
17.55
17.64
16.81
15.96
15.58
15.75
16.24
16.86
17.67
18.95
21.04
23.99
27.5
30.96
33.71
35.28
35.53
34.61
32.73
30.1
26.8
22.92
18.66
14.4
10.6
7.63
5.65
4.53
3.97
3.58
3.14
2.61
2.08
1.69
1.48
1.33
1.01
0.34
-0.74
-2.12
-3.56
-4.79
-5.63
-6.04
-6.08
-5.84
-5.41
-4.85
-4.25
-3.64
-3.07
-2.48
-1.78
-0.92
0.07
0.95
1.42
1.16
0.06
-1.76
-4.0
-6.33
-8.47
-10.24
-11.6
-12.54
-13.14
-13.47
-13.63
-13.73
-13.84
-13.98
-14.08
-13.98
-13.39
-11.98
-9.46
-5.63
-0.52
5.61
12.21
18.64
24.28
28.65
31.5
32.79
32.61
31.16
28.73
25.65
22.29
18.95
15.9
13.25
11.0
9.15
7.62
6.4
5.48
4.85
4.5
4.35
4.35
4.45
4.59
4.73
4.75
4.55
4.06
3.31
2.41
1.56
0.97
0.77
0.92
1.17
1.12
0.33
-1.54
-4.6
-8.68
-13.43
-18.32
-22.85
-26.53
-28.94
-29.8
-28.92
-26.4
-22.58
-18.04
-13.42
-9.25
-5.82
-3.12
-0.96
0.88
2.48
3.85
4.9
5.65
6.2
6.79
7.62
8.81
10.38
12.26
14.38
16.68
19.01
21.14
22.68
23.25
22.56
20.54
17.43
13.61
9.56
5.68
2.21
-0.71
-3.06
-4.93
-6.48
-7.91
-9.4
-11.07
-12.92
-14.88
-16.91
-19.01
-21.26
-23.7
-26.26
-28.6
-30.23
-30.6
-29.28
-26.15
-21.45
-15.72
-9.59
-3.72
1.48
5.76
9.14
11.74
13.68
15.07
16.0
16.58
16.93
17.2
17.52
17.99
18.62
19.39
20.22
21.0
21.55
21.65
21.12
19.91
18.19
16.27
14.49
13.05
11.92
10.81
9.36
7.27
4.45
1.0
-2.84
-6.84
-10.83
-14.77
-18.69
-22.58
-26.43
-30.18
-33.77
-37.09
-40.02
-42.34
-43.73
-43.85
-42.45
-39.54
-35.37
-30.43
