16.7
16.92
17.17
17.28
17.07
16.42
15.37
14.02
12.56
11.15
9.86
8.63
7.36
5.92
4.24
2.33
0.29
-1.71
-3.55
-5.19
-6.72
-8.27
-10.04
-12.12
-14.54
-17.23
-20.07
-22.93
-25.6
-27.79
-29.1
-29.07
-27.39
-23.98
-19.13
-13.44
-7.59
-2.19
2.4
6.1
8.94
10.97
12.24
12.76
12.6
11.94
11.08
10.29
9.81
9.77
10.15
10.86
11.75
12.66
13.45
13.98
14.14
13.9
13.29
12.37
11.3
10.2
9.17
8.2
7.21
6.1
4.75
3.13
1.25
-0.84
-3.06
-5.33
-7.55
-9.59
-11.35
-12.82
-14.15
-15.62
-17.49
-19.89
-22.74
-25.65
-28.08
-29.47
-29.4
-27.7
-24.44
-19.94
-14.63
-8.98
-3.4
1.76
6.25
9.9
12.56
14.18
14.8
14.61
13.86
12.84
11.79
10.88
10.22
9.9
9.96
10.4
11.14
12.02
12.82
13.4
13.67
13.64
13.34
12.79
11.97
10.85
9.4
7.64
5.62
3.45
1.28
-0.74
-2.47
-3.83
-4.84
-5.59
-6.23
-6.87
-7.62
-8.56
-9.75
-11.32
-13.38
-15.95
-18.85
-21.67
-23.78
-24.6
-23.72
-21.17
-17.29
-12.65
-7.8
-3.1
1.28
5.25
8.7
11.41
13.13
13.74
13.32
12.15
10.62
9.09
7.76
6.72
5.98
5.52
5.4
5.65
6.3
7.29
8.46
9.59
10.46
10.93
10.93
10.49
9.7
8.65
7.43
6.05
4.52
2.81
0.9
-1.17
-3.32
-5.48
-7.55
-9.47
-11.22
-12.78
-14.22
-15.62
-17.09
-18.78
-20.8
-23.16
-25.65
-27.86
-29.23
-29.18
-27.38
-23.82
-18.88
-13.16
-7.29
-1.74
3.26
7.63
11.37
14.44
16.74
18.2
18.79
18.67
18.12
17.41
16.78
16.3
15.96
15.69
15.45
15.28
15.24
15.36
15.62
15.89
15.99
15.75
15.11
14.07
12.68
11.0
9.05
6.84
4.45
2.01
-0.29
-2.27
-3.83
-5.03
-6.07
-7.17
-8.47
-10.01
-11.66
-13.36
-15.09
-17.0
-19.24
-21.85
-24.65
-27.17
-28.82
-29.08
-27.68
-24.68
-20.42
-15.35
-9.95
-4.57
0.46
4.86
8.42
10.95
12.39
12.79
12.36
11.38
10.2
9.11
8.36
8.03
8.09
8.42
8.86
9.3
9.72
10.14
10.58
10.98
11.27
11.36
11.23
10.87
10.29
9.43
8.22
6.58
4.49
2.04
-0.61
-3.22
-5.62
-7.69
-9.35
-10.62
-11.56
-12.3
-13.06
-14.07
-15.5
-17.38
-19.52
-21.51
-22.86
-23.09
-21.89
-19.25
-15.39
-10.7
-5.65
-0.66
3.88
7.71
10.62
12.55
13.6
13.97
13.95
13.78
13.58
13.32
12.92
12.33
11.57
10.79
10.18
9.87
9.86
10.07
10.32
10.46
10.39
10.08
9.58
9.0
8.42
7.94
7.57
7.27
6.92
6.37
5.46
4.11
2.37
0.38
-1.65
-3.57
-5.33
-7.03
-8.83
-10.91
-13.38
-16.23
-19.37
-22.61
-25.64
-28.04
-29.35
-29.18
-27.34
-23.96
-19.51
-14.64
-10.01
-6.09
-3.08
-0.98
0.37
1.07
1.22
0.94
0.39
-0.18
-0.47
-0.27
0.5
1.76
3.32
4.92
6.38
7.6
8.61
9.46
10.18
10.7
10.86
10.51
9.63
8.35
6.99
5.91
5.33
5.27
5.48
5.6
5.32
4.49
3.15
1.49
-0.32
-2.07
-3.67
-5.1
-6.41
-7.78
-9.41
-11.52
-14.19
-17.29
-20.48
-23.23
-24.95
-25.14
-23.55
-20.25
-15.63
-10.29
-4.93
-0.08
4.01
7.41
10.34
13.08
15.71
18.15
20.24
21.85
22.97
23.73
24.23
24.54
24.63
24.43
23.98
23.34
22.62
21.8
20.74
19.19
16.98
14.13
10.91
7.8
5.22
3.4
2.28
1.59
0.96
0.13
-1.04
-2.48
-4.1
-5.79
-7.51
-9.23
-10.87
-12.35
-13.58
-14.53
-15.27
-15.87
-16.38
-16.68
-16.49
-15.5
-13.48
-10.42
-6.52
-2.08
2.58
7.18
11.53
15.46
18.77
21.3
22.96
23.84
24.14
24.14
24.06
23.98
23.85
23.59
23.17
22.68
22.26
22.06
22.16
22.48
22.75
22.69
21.98
20.47
18.14
15.13
11.67
7.94
4.06
0.03
-4.14
-8.39
-12.54
-16.33
-19.52
-21.95
-23.66
-24.83
-25.76
-26.8
-28.27
-30.33
-32.98
-35.92
-38.63
-40.41
-40.64
-38.93
-35.29
-30.12
-24.02
-17.65
-11.5
-5.84
-0.79
3.61
7.27
10.06
11.85
12.58
12.32
11.23
9.52
7.39
5.06
2.78
0.91
-0.2
-0.27
0.7
2.47
4.56
6.5
7.94
8.78
9.09
8.94
8.4
7.43
5.99
4.11
1.9
-0.51
-3.03
-5.59
-8.17
-10.7
-13.03
-14.96
-16.33
-17.1
-17.36
-17.43
-17.62
-18.24
-19.39
-20.9
-22.38
-23.27
-23.05
-21.37
-18.14
-13.56
-8.06
-2.16
3.66
9.04
13.77
17.74
20.94
23.28
24.68
25.0
24.24
22.52
20.2
17.71
15.46
13.7
12.43
11.46
10.58
9.68
8.82
8.18
7.95
8.21
8.89
9.73
10.47
10.88
10.84
10.36
9.5
8.33
6.82
4.89
2.49
-0.4
-3.66
-7.09
-10.44
-13.52
-16.2
-18.47
-20.46
-22.33
-24.25
-26.31
-28.49
-30.66
-32.57
-33.92
-34.4
-33.8
-32.02
-29.15
-25.4
-21.08
-16.54
-12.06
-7.85
-4.06
-0.74
2.09
4.42
6.31
7.84
9.17
10.47
11.91
13.57
15.4
17.27
18.99
20.39
21.44
22.17
22.67
22.99
23.1
22.89
22.27
21.26
19.99
18.68
17.47
16.39
15.24
13.79
11.83
9.34
6.51
3.59
0.77
-1.95
-4.76
-7.93
-11.65
-15.93
-20.57
-25.25
-29.59
-33.18
-35.71
-36.91
-36.64
-34.94
-32.04
-28.31
-24.2
-20.09
-16.34
-13.17
-10.76
-9.17
-8.37
-8.22
-8.46
-8.82
-9.05
-8.96
-8.47
-7.56
-6.24
-4.56
-2.64
-0.62
1.31
3.03
4.48
5.7
6.83
8.01
9.35
10.87
12.51
14.1
15.45
16.37
16.71
16.44
15.61
14.35
12.81
11.15
9.47
7.7
5.71
3.29
0.36
-3.03
-6.59
-9.84
-12.26
-13.44
-13.23
-11.74
-9.32
-6.43
-3.51
-0.88
1.3
2.97
4.21
5.13
5.95
6.84
7.96
9.4
11.17
13.19
15.42
17.83
20.52
23.59
27.08
30.82
34.53
37.82
40.32
41.81
42.18
41.44
39.66
36.95
33.45
29.39
25.05
20.7
16.52
12.5
8.55
4.58
0.64
-3.03
-6.11
-8.39
-9.89
-10.9
-11.82
-12.99
-14.55
-16.42
-18.44
-20.47
-22.36
-23.94
-24.9
-24.83
-23.34
-20.28
-15.8
-10.41
-4.75
0.58
5.22
9.01
11.99
14.25
15.83
16.75
17.09
17.0
16.77
16.69
16.91
17.36
17.67
17.34
15.93
13.3
9.63
5.33
0.8
-3.75
-8.39
-13.32
-18.69
-24.48
-30.45
-36.32
-41.83
-46.87
-51.4
-55.48
-59.23
-62.79
-66.37
-70.2
-74.38
-78.77
-83.04
-86.75
-89.62
-91.7
-93.42
-95.34
-97.92
-101.17
-104.55
-107.15
-108.02
-106.59
-102.87
-97.49
-91.46
-85.82
-81.37
-78.41
-76.7
-75.54
-73.91
-70.81
-65.63
-58.39
-49.76
-40.88
-32.81
-26.08
-20.3
-14.23
-6.24
5.06
20.23
38.74
59.11
79.28
97.2
111.22
120.33
124.18
123.0
117.56
108.97
98.63
87.99
78.28
70.33
64.37
60.12
56.94
54.11
51.07
47.58
43.77
40.12
37.35
36.28
37.68
42.01
49.17
58.3
68.02
76.81
83.6
88.15
90.98
92.97
94.79
96.46
97.33
96.53
93.49
88.33
81.83
75.05
68.83
63.52
58.95
54.7
50.4
45.95
41.53
37.5
34.13
31.48
29.38
27.52
25.68
23.79
21.87
19.98
18.0
15.71
12.84
9.21
4.86
0.02
-4.93
-9.68
-14.05
-18.08
-21.96
-25.93
-30.08
-34.23
-37.92
-40.57
-41.62
-40.79
-38.2
-34.27
-29.59
-24.69
-19.91
-15.37
-11.05
-6.94
-3.07
0.42
3.31
5.37
6.45
6.58
5.95
4.92
3.86
3.06
2.62
2.49
2.5
2.48
2.34
2.02
1.55
0.9
0.05
-0.98
-2.15
-3.43
-4.76
-6.11
-7.44
-8.73
-9.91
-10.97
-11.97
-13.03
-14.34
-16.05
-18.2
-20.69
-23.31
-25.77
-27.8
-29.12
-29.51
-28.79
-26.84
-23.66
-19.4
-14.32
-8.82
-3.41
1.4
5.17
7.63
8.77
8.79
8.03
6.9
5.71
4.68
3.89
3.41
3.2
3.25
3.51
3.86
4.19
4.42
4.48
4.37
4.1
3.66
3.04
2.17
0.97
-0.57
-2.38
-4.27
-6.04
-7.55
-8.76
-9.82
-10.97
-12.43
-14.3
-16.46
-18.55
-20.07
-20.48
-19.38
-16.62
-12.37
-7.12
-1.51
3.8
8.3
11.73
14.04
15.35
15.82
15.59
14.74
13.38
11.58
9.49
7.25
4.96
2.72
0.56
-1.49
-3.38
-5.04
-6.43
-7.55
-8.51
-9.5
-10.73
-12.34
-14.35
-16.63
-18.99
-21.26
-23.35
-25.28
-27.18
-29.21
-31.49
-34.09
-37.06
-40.47
-44.34
-48.59
-52.9
-56.64
-59.0
-59.19
-56.67
-51.4
-43.84
-34.81
-25.26
-15.99
-7.55
-0.22
5.91
10.84
14.69
17.71
20.3
22.95
26.13
30.11
34.84
39.92
44.8
48.85
51.64
53.07
53.31
52.76
51.83
50.8
49.64
48.06
45.63
41.99
36.96
30.6
23.13
14.82
6.04
-2.73
-10.8
-17.32
-21.53
-23.09
-22.33
-20.14
-17.73
-16.07
-15.52
-15.8
-16.18
-15.89
-14.43
-11.8
-8.31
-4.43
-0.56
3.05
6.3
9.1
11.31
12.77
13.3
12.93
11.83
10.39
8.98
7.92
7.33
7.14
7.18
7.25
7.24
7.08
6.8
6.43
6.03
5.65
5.3
4.95
4.54
3.96
3.12
1.99
0.59
-1.01
-2.72
-4.47
-6.22
-7.94
-9.56
-11.05
-12.43
-13.86
-15.56
-17.68
-20.13
-22.5
-24.11
-24.25
-22.48
-18.76
-13.54
-7.52
-1.43
4.15
8.92
12.77
15.73
17.88
19.3
20.07
20.34
20.25
19.96
19.6
19.25
18.95
18.65
18.3
17.81
17.17
16.39
15.59
14.88
14.36
14.02
13.75
13.31
12.49
11.19
9.47
7.55
5.69
4.12
2.93
2.06
1.37
0.66
-0.12
-0.99
-1.87
-2.69
-3.39
-3.93
-4.27
-4.37
-4.27
-4.08
-4.15
-4.89
-6.61
-9.28
-12.39
-14.97
-15.94
-14.57
-10.78
-5.29
0.68
5.87
9.38
10.92
10.76
9.42
7.44
5.19
2.92
0.88
-0.6
-1.11
-0.22
2.3
6.36
11.46
16.72
21.07
23.51
23.41
20.68
15.8
9.64
3.23
-2.57
-7.14
-10.2
-11.72
-11.85
-10.88
-9.24
-7.44
-6.04
-5.58
-6.47
-8.9
-12.76
-17.64
-22.79
-27.32
-30.29
-31.02
-29.2
-25.02
-19.09
-12.3
-5.59
0.23
4.55
7.04
7.56
6.18
3.14
-1.13
-6.08
-11.15
-15.77
-19.51
-22.08
-23.32
-23.2
-21.84
-19.45
-16.36
-12.94
-9.6
-6.66
-4.29
-2.44
-0.93
0.52
2.12
3.9
5.72
7.36
8.66
9.59
10.29
10.97
11.72
12.51
13.21
13.73
14.05
14.26
14.35
14.16
13.3
11.39
8.25
4.14
-0.3
-4.22
-6.86
-7.88
-7.47
-6.26
-5.02
-4.39
-4.56
-5.21
-5.65
-5.04
-2.8
1.19
6.5
12.36
17.85
22.27
25.2
26.54
26.41
24.96
22.43
19.11
15.41
11.83
8.8
6.56
5.02
3.85
2.61
1.01
-1.0
-3.23
-5.38
-7.23
-8.73
-10.0
-11.23
-12.53
-13.87
-15.16
-16.25
-17.13
-17.88
-18.69
-19.76
-21.26
-23.24
-25.58
-28.03
-30.14
-31.44
-31.48
-30.02
-27.07
-22.95
-18.1
-13.02
-8.16
-3.8
-0.13
2.78
4.87
6.18
6.77
6.74
6.28
5.56
4.75
3.97
3.31
2.78
2.4
2.17
2.04
1.98
1.96
1.92
1.83
1.7
1.51
1.24
0.83
0.21
-0.68
-1.85
-3.27
-4.85
-6.5
-8.16
-9.76
-11.29
-12.75
-14.16
-15.54
-16.95
-18.45
-20.14
-22.05
-24.13
-26.15
-27.72
-28.35
-27.62
-25.29
-21.42
-16.42
-10.86
-5.33
-0.32
3.9
7.25
9.7
11.29
12.03
11.99
11.32
10.25
9.07
8.06
7.4
7.16
7.28
7.63
8.1
8.6
9.1
9.57
9.97
10.21
10.19
9.81
9.07
7.97
6.62
5.09
3.48
1.8
0.05
-1.79
-3.72
-5.7
-7.66
-9.5
-11.16
-12.65
-14.05
-15.51
-17.16
-19.15
-21.52
-24.2
-27.0
-29.58
-31.51
-32.35
-31.73
-29.46
-25.66
-20.66
-14.96
-9.09
-3.51
1.5
5.78
9.26
11.92
13.73
14.66
14.8
14.35
13.59
12.81
12.24
11.95
11.9
11.96
12.04
12.12
12.25
12.44
12.72
13.04
13.34
13.55
13.6
13.38
12.8
11.8
10.44
8.82
7.15
5.55
4.09
2.67
1.17
-0.52
-2.42
-4.47
-6.51
-8.43
-10.18
-11.79
-13.38
-15.13
-17.2
-19.7
-22.6
-25.67
-28.48
-30.46
-31.03
-29.79
-26.59
-21.62
-15.41
-8.63
-2.01
3.87
8.64
12.18
14.56
15.97
16.6
16.61
16.14
15.31
14.26
13.25
12.47
12.1
12.16
12.6
13.28
14.08
14.91
15.69
16.33
16.69
16.67
16.18
15.26
14.06
12.78
11.56
10.44
9.31
8.01
6.37
4.35
2.06
-0.31
-2.57
-4.58
-6.31
-7.82
-9.24
-10.74
-12.51
-14.71
-17.38
-20.3
-23.0
-24.79
-25.03
-23.36
-19.87
-15.02
-9.53
-4.07
0.9
5.2
8.82
11.82
14.2
15.93
16.9
17.06
16.46
15.32
13.94
12.63
11.66
11.13
10.97
11.05
11.28
11.64
12.16
12.85
13.58
14.14
14.31
13.97
13.17
12.1
10.98
9.94
8.96
7.91
6.59
4.85
2.68
0.19
-2.41
-4.87
-6.99
-8.7
-10.12
-11.47
-13.04
-15.01
-17.47
-20.38
-23.56
-26.72
-29.43
-31.17
-31.42
-29.81
-26.28
-21.13
-14.98
-8.53
-2.41
3.02
7.56
11.18
13.86
15.57
16.32
16.19
15.38
14.2
12.96
11.92
11.2
10.79
10.59
10.48
10.38
10.3
10.27
10.35
10.53
10.77
10.97
10.98
10.65
9.85
8.52
6.7
4.53
2.18
-0.2
-2.6
-5.12
-7.88
-10.93
-14.19
-17.45
-20.46
-23.08
-25.29
-27.26
-29.24
-31.48
-34.18
-37.42
-41.04
-44.65
-47.65
-49.37
-49.24
-47.01
-42.76
-36.99
-30.31
-23.39
-16.78
-10.83
-5.79
-1.74
1.33
3.53
5.06
6.1
6.79
7.22
7.45
7.58
7.78
8.31
9.43
11.28
13.84
16.92
20.2
23.33
26.01
28.09
29.53
30.37
30.68
30.53
29.9
28.76
27.03
24.72
21.86
18.57
15.03
11.45
8.02
4.89
2.11
-0.36
-2.61
-4.77
-7.0
-9.43
-12.13
-15.06
-18.0
-20.54
-22.14
-22.26
-20.58
-17.1
-12.22
-6.54
-0.73
4.66
9.32
13.08
15.86
17.57
18.14
17.56
16.01
13.8
11.32
8.96
6.97
5.51
4.64
4.32
4.47
4.94
5.51
6.0
6.26
6.25
5.98
5.54
4.98
4.39
3.8
3.25
2.74
2.15
1.32
0.05
-1.73
-3.96
-6.44
-8.97
-11.43
-13.89
-16.54
-19.55
-22.97
-26.66
-30.21
-33.02
-34.4
-33.77
-30.79
-25.51
-18.41
-10.29
-2.06
5.5
11.88
16.87
20.51
22.91
24.2
24.47
23.9
22.7
21.19
19.67
18.39
17.47
16.88
16.54
16.34
16.19
16.08
16.02
16.03
16.07
16.07
15.97
15.7
15.23
14.54
13.63
12.45
10.96
9.12
6.96
4.54
1.93
-0.78
-3.54
-6.31
-9.1
-11.89
-14.7
-17.54
-20.34
-22.91
-24.84
-25.62
-24.77
-22.05
-17.59
-11.9
-5.63
0.56
6.24
11.2
15.42
18.91
21.64
23.55
24.58
24.69
23.96
22.54
20.71
18.81
17.21
16.19
15.83
16.0
16.38
16.65
16.58
16.15
15.46
14.65
13.78
12.79
11.57
10.04
8.22
6.23
4.21
2.27
0.42
-1.43
-3.41
-5.59
-7.92
-10.32
-12.71
-15.09
-17.63
-20.49
-23.79
-27.28
-30.45
-32.56
-32.92
-31.14
-27.3
-21.85
-15.47
-8.82
-2.43
3.4
8.5
12.77
16.13
18.53
19.95
20.49
20.3
19.63
18.68
17.69
16.78
16.07
15.56
15.25
15.14
15.21
15.44
15.74
15.97
15.99
15.66
14.95
13.91
12.68
11.39
10.07
8.66
7.02
5.07
2.77
0.22
-2.43
-5.02
-7.46
-9.73
-11.89
-14.07
-16.4
-18.93
-21.59
-24.1
-26.02
-26.87
-26.21
-23.85
-19.89
-14.7
-8.88
-3.02
2.39
7.04
10.79
13.58
15.37
16.13
15.94
14.97
13.51
11.84
10.17
8.58
7.01
5.43
3.88
2.58
1.71
1.43
1.68
2.24
2.86
3.36
3.66
3.78
3.75
3.54
3.09
2.36
1.36
0.18
-1.06
-2.31
-3.64
-5.26
-7.4
-10.17
-13.48
-16.94
-20.03
-22.21
-23.08
-22.51
-20.57
-17.51
-13.64
-9.27
-4.71
-0.2
4.04
7.84
11.03
13.45
14.94
15.41
14.87
13.52
11.73
9.92
8.47
7.58
7.33
7.64
8.43
9.62
11.09
12.68
14.14
15.17
15.57
15.24
14.25
12.73
10.86
8.78
6.55
4.26
1.99
-0.22
-2.34
-4.46
-6.71
-9.25
-12.18
-15.52
-19.12
-22.71
-25.87
-28.14
-29.06
-28.29
-25.73
-21.56
-16.16
-10.07
-3.85
2.06
7.25
11.45
14.41
15.96
16.15
15.23
13.67
12.02
10.77
10.19
10.33
11.05
12.15
13.43
14.71
15.82
16.6
16.89
16.61
15.74
14.38
12.62
10.58
8.38
6.08
3.77
1.46
-0.87
-3.3
-5.92
-8.75
-11.69
-14.54
-17.14
-19.47
-21.69
-24.11
-26.92
-30.04
-32.98
-34.95
-35.19
-33.22
-29.03
-23.08
-16.06
-8.71
-1.61
4.78
10.16
14.32
17.17
18.79
19.41
19.34
18.9
18.32
17.76
17.3
17.03
17.04
17.34
17.88
18.51
19.07
19.46
19.66
19.68
19.58
19.36
18.96
18.31
17.33
15.97
14.18
11.96
9.31
6.32
3.1
-0.19
-3.41
-6.49
-9.45
-12.35
-15.26
-18.26
-21.35
-24.51
-27.62
-30.48
-32.72
-33.86
-33.42
-31.06
-26.81
-21.04
-14.43
-7.68
-1.38
4.13
8.7
12.3
14.95
16.67
17.56
17.81
17.65
17.33
16.98
16.7
16.49
16.37
16.4
16.69
17.3
18.24
19.38
20.45
21.12
21.06
20.11
18.27
15.7
12.64
9.35
5.97
2.59
-0.73
-3.93
-6.88
-9.46
-11.62
-13.45
-15.17
-17.1
-19.5
-22.52
-26.07
-29.86
-33.46
-36.38
-38.14
-38.33
-36.66
-33.07
-27.79
-21.41
-14.77
-8.74
-4.01
-0.83
0.98
1.88
2.39
2.87
3.44
4.07
4.71
5.36
6.1
6.99
8.02
9.11
10.15
11.06
11.81
12.38
12.72
12.78
12.47
11.78
10.76
9.47
7.96
6.26
4.4
2.41
0.3
-1.94
-4.36
-7.09
-10.25
-13.87
-17.81
-21.73
-25.13
-27.45
-28.24
-27.26
-24.56
-20.47
-15.57
-10.49
-5.77
-1.79
1.35
3.68
5.33
6.41
7.0
7.17
7.09
6.98
7.1
7.67
8.72
10.1
11.52
12.68
13.44
13.81
13.93
13.93
13.83
13.56
13.05
12.28
11.35
10.42
9.58
8.75
7.76
6.35
4.39
1.84
-1.17
-4.49
-8.07
-11.92
-16.11
-20.55
-24.92
-28.68
-31.13
-31.69
-30.03
-26.2
-20.61
-13.89
-6.74
0.25
6.66
12.23
16.79
20.23
22.51
23.7
23.98
23.67
23.09
22.5
21.99
21.51
20.92
20.14
19.21
18.26
17.44
16.88
16.62
16.6
16.67
16.65
16.33
15.53
14.2
12.41
10.32
8.11
5.86
3.6
1.27
-1.14
-3.6
-6.0
-8.2
-10.13
-11.79
-13.27
-14.75
-16.42
-18.43
-20.85
-23.59
-26.35
-28.72
-30.2
-30.41
-29.1
-26.33
-22.38
-17.68
-12.67
-7.73
-3.06
1.22
5.08
8.46
11.22
13.22
14.38
14.76
14.54
13.95
13.2
12.43
11.75
11.23
10.95
10.99
11.33
11.84
12.29
12.48
12.2
11.35
9.92
7.94
5.51
2.8
0.04
-2.58
-4.9
-6.9
-8.59
-10.03
-11.2
-12.03
-12.46
-12.5
-12.29
-12.04
-11.98
-12.25
-12.92
-14.05
-15.69
-17.93
-20.77
-24.04
-27.34
-30.11
-31.72
-31.7
-29.92
-26.56
-22.1
-17.14
-12.2
-7.65
-3.71
-0.51
1.83
3.17
3.39
2.49
0.65
-1.8
-4.44
-6.82
-8.65
-9.74
-10.05
-9.62
-8.53
-6.86
-4.72
-2.26
0.35
2.96
5.42
7.69
9.72
11.57
13.3
15.01
16.81
18.76
20.79
22.69
24.18
25.01
25.06
24.43
23.38
22.15
20.86
19.46
17.81
15.77
13.32
10.49
7.34
3.88
0.16
-3.67
-7.27
-10.09
-11.56
-11.32
-9.33
-5.96
-1.79
2.5
6.41
9.63
12.08
13.79
14.83
15.25
15.1
14.5
13.59
12.58
11.7
11.09
10.86
11.02
11.5
12.24
13.17
14.21
15.27
16.2
16.85
17.07
16.73
15.87
14.58
13.06
11.51
10.04
8.68
7.35
5.91
4.21
2.21
-0.05
-2.4
-4.63
-6.55
-8.1
-9.35
-10.47
-11.7
-13.26
-15.22
-17.48
-19.8
-21.81
-23.15
-23.5
-22.65
-20.55
-17.28
-13.06
-8.23
-3.23
1.46
5.42
8.34
10.14
10.95
11.07
10.82
10.48
10.18
9.92
9.65
9.33
8.96
8.6
8.31
8.15
8.17
8.37
8.73
9.17
9.53
9.62
9.23
8.22
6.57
4.4
1.95
-0.5
-2.69
-4.53
-6.06
-7.45
-8.9
-10.49
-12.17
-13.72
-14.91
-15.59
-15.85
-16.0
-16.49
-17.71
-19.87
-22.84
-26.24
-29.46
-31.89
-32.96
-32.32
-29.87
-25.79
-20.51
-14.62
-8.78
-3.58
0.61
3.73
5.98
7.72
9.23
10.63
11.83
12.62
12.87
12.64
12.2
11.88
11.93
12.4
13.2
14.12
14.97
15.56
15.74
15.38
14.37
12.69
10.47
7.96
5.45
3.19
1.3
-0.26
-1.64
-3.03
-4.58
-6.34
-8.24
-10.18
-12.04
-13.73
-15.25
-16.72
-18.25
-19.94
-21.75
-23.44
-24.61
-24.77
-23.59
-20.95
-17.03
-12.32
-7.37
-2.72
1.29
4.51
6.92
8.55
9.45
9.69
9.37
8.68
7.82
7.03
6.46
6.13
5.98
5.87
5.74
5.58
5.52
5.73
6.33
7.34
8.61
9.88
10.84
11.18
10.69
9.3
7.12
4.41
1.54
-1.12
-3.32
-5.0
-6.36
-7.67
-9.22
-11.19
-13.47
-15.78
-17.64
-18.59
-18.31
-16.75
-14.08
-10.7
-6.98
-3.26
0.29
3.57
6.48
8.89
10.64
11.6
11.69
10.98
9.61
7.81
5.91
4.28
3.28
3.1
3.74
4.95
6.35
7.59
8.44
8.84
8.78
8.22
7.09
5.3
2.88
0.0
-3.02
-5.89
-8.44
-10.69
-12.77
-14.88
-17.11
-19.48
-21.95
-24.48
-27.08
-29.65
-31.94
-33.52
-33.85
-32.51
-29.34
-24.6
-18.81
-12.65
-6.7
-1.34
3.25
7.03
9.95
11.99
13.13
13.4
12.98
12.13
11.17
10.4
9.98
9.9
9.99
10.02
9.84
9.44
8.93
8.48
8.13
7.8
7.28
6.39
5.05
3.35
1.49
-0.31
-1.94
-3.37
-4.68
-6.0
-7.5
-9.38
-11.82
-14.91
-18.58
-22.58
-26.47
-29.66
-31.63
-31.93
-30.37
-26.98
-22.1
-16.23
-10.0
-3.99
1.35
5.79
9.29
11.88
13.65
14.63
14.85
14.39
13.42
12.21
11.02
10.1
9.54
9.35
9.44
9.71
10.04
10.38
10.66
10.82
10.83
10.66
10.34
9.9
9.37
8.75
7.96
6.97
5.69
4.1
2.2
0.05
-2.3
-4.81
-7.43
-10.12
-12.91
-15.83
-18.92
-22.08
-25.03
-27.27
-28.2
-27.31
-24.4
-19.69
-13.72
-7.23
-0.92
4.72
9.41
13.04
15.63
17.22
17.88
17.73
16.95
15.73
14.28
12.78
11.39
10.23
9.42
8.98
8.88
9.04
9.35
9.69
9.97
10.06
9.88
9.31
8.32
6.96
5.32
3.57
1.83
0.18
-1.37
-2.83
-4.22
-5.59
-7.01
-8.61
-10.51
-12.81
-15.46
-18.22
-20.65
-22.21
-22.38
-20.86
-17.61
-12.9
-7.22
-1.18
4.63
9.72
13.73
16.48
17.96
18.3
17.75
16.62
15.21
13.76
12.41
11.23
10.23
9.42
8.8
8.42
8.28
8.4
8.67
8.89
8.85
8.37
7.4
6.05
4.49
2.88
1.29
-0.32
-2.04
-3.94
-6.08
-8.51
-11.31
-14.49
-17.97
-21.43
-24.36
-26.15
-26.26
-24.43
-20.81
-15.86
-10.27
-4.76
0.15
4.17
7.26
9.5
10.99
11.8
11.96
11.55
10.71
9.69
8.71
7.99
7.6
7.51
7.65
7.91
8.22
8.51
8.74
8.83
8.68
8.16
7.12
5.48
3.22
0.43
-2.73
-6.08
-9.45
-12.74
-15.92
-19.03
-22.15
-25.38
-28.82
-32.47
-36.1
-39.29
-41.44
-41.93
-40.37
-36.72
-31.35
-24.9
-18.11
-11.59
-5.74
-0.76
3.3
6.42
8.58
9.73
9.88
9.09
7.52
5.47
3.29
1.35
-0.09
-0.88
-1.05
-0.72
-0.01
0.97
2.16
3.49
4.86
6.08
7.0
7.51
7.64
7.55
7.44
7.46
7.6
7.74
7.65
7.16
6.17
4.7
2.82
0.55
-2.15
-5.35
-9.01
-12.89
-16.44
-19.01
-20.0
-19.07
-16.32
-12.19
-7.3
-2.28
2.4
6.47
9.8
12.31
13.92
14.61
14.46
13.68
12.59
11.48
10.59
10.01
9.7
9.59
9.66
9.98
10.62
11.63
12.95
14.39
15.71
16.63
16.96
16.58
15.47
13.73
11.5
8.97
6.31
3.57
0.8
-2.01
-4.8
-7.47
-9.87
-11.96
-13.87
-15.88
-18.38
-21.63
-25.67
-30.26
-34.94
-39.07
-42.0
-43.07
-41.84
-38.18
-32.39
-25.16
-17.39
-9.95
-3.41
2.1
6.77
10.89
14.62
17.91
20.53
22.3
23.2
23.4
23.25
23.03
22.91
22.87
22.75
22.35
21.55
20.35
18.82
17.14
15.47
13.94
12.62
11.52
10.54
9.51
8.27
6.7
4.85
2.88
1.07
-0.33
-1.23
-1.7
-2.0
-2.44
-3.33
-4.84
-6.96
-9.49
-12.04
-14.13
-15.27
-15.09
-13.41
-10.36
-6.27
-1.63
3.07
7.4
11.05
13.89
15.9
17.15
17.79
17.97
17.79
17.34
16.67
15.82
14.88
13.97
13.25
12.79
12.59
12.55
12.52
12.36
12.0
11.42
10.68
9.84
8.96
8.01
6.98
5.81
4.51
3.12
1.74
0.46
-0.73
-1.9
-3.24
-4.87
-6.82
-9.0
-11.31
-13.72
-16.3
-19.16
-22.21
-25.13
-27.3
-28.05
-26.88
-23.75
-19.06
-13.48
-7.72
-2.3
2.55
6.81
10.54
13.69
16.16
17.84
18.66
18.73
18.25
