16.38
15.63
15.05
14.67
14.52
14.55
14.61
14.53
14.11
13.21
11.82
10.08
8.17
6.26
4.38
2.44
0.29
-2.15
-4.84
-7.57
-10.1
-12.26
-14.02
-15.5
-16.96
-18.66
-20.81
-23.44
-26.44
-29.46
-32.03
-33.59
-33.65
-31.91
-28.38
-23.37
-17.37
-10.98
-4.7
1.07
6.05
10.06
12.99
14.82
15.62
15.58
15.0
14.13
13.2
12.33
11.6
11.04
10.68
10.59
10.77
11.2
11.8
12.43
12.93
13.13
12.93
12.31
11.34
10.16
8.92
7.74
6.63
5.55
4.35
2.87
1.05
-1.09
-3.38
-5.63
-7.67
-9.39
-10.82
-12.1
-13.42
-15.02
-17.11
-19.8
-22.99
-26.3
-29.08
-30.59
-30.17
-27.54
-22.93
-16.97
-10.46
-4.12
1.59
6.52
10.67
14.07
16.66
18.31
18.95
18.61
17.55
16.13
14.75
13.72
13.17
13.06
13.22
13.41
13.44
13.15
12.5
11.51
10.28
8.86
7.29
5.56
3.63
1.54
-0.59
-2.53
-4.03
-4.94
-5.26
-5.19
-5.0
-4.98
-5.34
-6.17
-7.5
-9.32
-11.53
-14.07
-16.77
-19.34
-21.39
-22.41
-21.97
-19.85
-16.11
-11.13
-5.46
0.27
5.59
10.15
13.78
16.41
18.04
18.7
18.44
17.33
15.53
13.29
10.97
9.01
7.78
7.46
7.96
8.89
9.78
10.26
10.16
9.59
8.77
7.87
6.97
6.04
5.0
3.8
2.47
1.08
-0.33
-1.72
-3.18
-4.78
-6.67
-8.93
-11.62
-14.69
-17.94
-21.05
-23.6
-25.17
-25.45
-24.29
-21.75
-18.06
-13.56
-8.65
-3.74
0.79
4.62
7.58
9.68
11.08
12.0
12.64
13.04
13.21
13.11
12.81
12.48
12.33
12.46
12.86
13.31
13.57
13.47
12.93
12.02
10.86
9.56
8.14
6.59
4.83
2.85
0.66
-1.67
-4.07
-6.46
-8.83
-11.19
-13.59
-16.05
-18.67
-21.56
-24.82
-28.46
-32.25
-35.71
-38.12
-38.76
-37.13
-33.14
-27.16
-19.87
-12.08
-4.51
2.37
8.32
13.37
17.62
21.19
24.12
26.36
27.85
28.58
28.71
28.5
28.22
28.02
27.93
27.75
27.28
26.3
24.72
22.52
19.71
16.3
12.34
7.93
3.31
-1.2
-5.25
-8.54
-10.95
-12.59
-13.69
-14.56
-15.47
-16.58
-17.92
-19.46
-21.14
-22.9
-24.72
-26.57
-28.41
-30.19
-31.73
-32.82
-33.23
-32.74
-31.35
-29.32
-27.02
-24.81
-22.95
-21.4
-20.05
-18.88
-17.85
-17.25
-17.62
-19.4
-22.71
-27.05
-31.17
-33.56
-33.13
-29.12
-21.92
-12.77
-3.25
5.3
12.12
17.72
23.4
30.99
43.51
63.5
92.5
130.13
173.74
218.55
259.62
292.53
314.14
324.24
323.85
315.14
300.65
282.94
263.83
245.14
227.17
201.44
161.27
102.73
27.3
-58.44
-143.29
-222.41
-292.03
-348.44
-388.31
-405.69
-397.68
-365.55
-315.0
-254.68
-193.98
-139.21
-93.08
-55.35
-23.5
4.08
27.4
44.89
54.57
55.16
47.79
35.23
20.45
6.22
-6.4
-17.5
-27.63
-37.09
-45.57
-51.79
-54.51
-53.38
-48.86
-42.42
-35.72
-29.89
-25.28
-21.59
-17.96
-13.65
-8.32
-1.93
5.27
13.01
20.96
28.67
35.45
40.57
43.38
43.57
41.28
37.1
31.86
26.38
21.28
16.83
12.97
9.43
5.9
2.18
-1.75
-5.79
-9.72
-13.34
-16.49
-19.03
-20.86
-21.85
-21.9
-21.03
-19.43
-17.47
-15.55
-13.94
-12.69
-11.54
-10.14
-8.17
-5.55
-2.48
0.68
3.52
5.82
7.59
9.01
10.32
11.75
13.48
15.69
18.61
22.42
27.2
32.72
38.46
43.69
47.66
49.87
50.11
48.43
45.04
40.15
34.04
27.11
19.87
12.82
6.27
0.14
-6.03
-12.86
-20.74
-29.59
-38.85
-47.71
-55.52
-62.05
-67.5
-72.31
-76.9
-81.48
-86.08
-90.62
-94.95
-98.76
-101.53
-102.6
-101.34
-97.5
-91.4
-83.79
-75.49
-66.89
-57.65
-46.95
-33.89
-18.14
-0.12
19.1
38.27
56.43
73.13
88.33
102.13
114.61
125.68
135.25
143.32
150.0
155.37
159.38
161.79
162.34
160.98
157.91
153.63
148.76
143.9
139.41
135.48
132.12
129.18
126.33
122.71
117.37
109.54
99.09
86.72
73.75
61.67
51.53
43.69
37.07
30.14
21.57
10.8
-1.62
-14.48
-26.46
-36.8
-45.56
-54.64
-66.32
-82.44
-103.44
-128.09
-154.02
-178.68
-200.11
-217.4
-232.1
-246.87
-264.74
-288.19
-318.26
-354.37
-394.45
-435.43
-464.56
-470.35
-445.03
-388.26
-307.88
-216.22
-124.96
-41.93
29.19
87.57
132.38
163.36
181.04
187.32
185.51
179.58
173.11
168.29
165.88
164.38
161.77
156.46
148.15
138.0
127.94
119.83
114.53
111.83
110.01
107.22
102.29
95.24
87.35
80.3
75.55
73.4
72.99
72.38
69.71
63.9
55.09
44.58
33.47
22.65
11.97
0.44
-13.3
-30.38
-51.34
-76.19
-103.14
-130.28
-153.8
-168.6
-169.93
-155.54
-127.44
-91.73
-56.55
-28.86
-12.01
-4.8
-3.31
-3.44
-2.96
-1.84
-1.08
-1.18
-1.17
0.61
5.54
13.71
23.59
32.9
39.51
42.64
43.12
43.07
44.78
49.83
58.33
68.63
78.15
84.48
86.41
84.51
80.85
78.03
78.01
81.23
86.06
89.65
89.4
83.93
73.97
61.96
51.06
44.02
42.49
46.52
55.08
66.04
75.98
80.37
74.3
54.41
20.34
-24.56
-74.76
-124.38
-169.77
-211.0
-250.97
-292.84
-337.16
-380.92
-414.67
-430.38
-423.87
-396.8
-355.97
-310.4
-267.8
-231.96
-202.78
-178.27
-157.42
-140.85
-130.27
-126.83
-129.69
-135.77
-140.23
-139.04
-130.55
-116.24
-99.38
-83.09
-68.75
-55.52
-40.97
-20.9
7.42
44.01
85.76
127.97
166.52
199.45
227.41
252.74
280.38
313.67
352.92
395.19
435.69
470.24
496.93
516.45
531.33
548.1
572.87
609.52
657.94
713.42
767.54
810.14
831.97
808.25
726.5
589.59
416.51
234.58
67.61
-71.49
-180.59
-263.4
-324.64
-364.99
-384.92
-386.78
-375.85
-359.17
-342.89
-330.39
-322.03
-316.1
-308.22
-295.3
-276.65
-254.31
-231.82
-212.43
-197.71
-187.32
-179.74
-171.86
-161.42
-147.79
-132.05
-116.32
-102.57
-91.75
-83.73
-77.64
-71.83
-65.08
-57.01
-48.06
-39.2
-31.35
-24.96
-19.97
-16.01
-12.41
-8.7
-4.64
-0.33
3.92
7.89
11.41
14.46
17.12
19.5
21.72
23.96
26.35
29.01
32.05
35.36
38.74
41.79
44.09
45.12
44.49
41.91
37.34
30.86
22.64
12.9
1.94
-9.84
-22.07
-34.13
-45.28
-54.82
-62.12
-66.99
-69.54
-70.13
-69.18
-66.89
-62.91
-56.44
-46.69
-33.08
-15.97
3.44
23.13
40.81
54.4
62.81
65.99
64.6
59.7
51.7
40.72
26.63
10.16
-8.14
-27.15
-45.68
-62.82
-77.45
-88.22
-93.14
-90.45
-80.2
-65.45
-51.57
-44.32
-47.88
-60.34
-76.68
-90.52
-96.97
-94.72
-85.93
-73.99
-61.43
-48.99
-36.1
-22.88
-11.11
-3.75
-3.28
-9.85
-20.72
-31.39
-37.76
-38.1
-33.8
-28.24
-24.9
-25.84
-31.36
-39.83
-49.05
-56.83
-61.42
-61.91
-58.36
-52.04
-45.34
-41.24
-41.5
-46.05
-52.62
-57.58
-57.39
-50.01
-35.67
-17.0
-1.0
5.02
-4.9
-32.7
-74.6
-121.63
-162.53
-187.78
-192.97
-179.72
-153.41
-120.46
-85.54
-50.69
-16.4
16.84
47.8
74.95
97.67
117.35
136.78
158.79
184.78
213.96
243.66
270.8
293.33
311.29
327.08
344.67
368.64
402.84
448.94
504.98
564.76
618.63
655.87
667.98
651.42
608.55
546.28
473.12
396.16
319.38
243.91
169.57
96.56
26.15
-39.64
-98.76
-149.83
-192.29
-226.05
-251.22
-268.13
-277.42
-280.47
-279.91
-279.66
-284.41
-298.05
-321.61
-351.77
-380.98
-399.74
-400.13
-378.97
-338.69
-285.65
-226.92
-167.5
-109.84
-55.38
-6.69
31.72
54.64
58.7
44.45
16.53
-18.26
-53.67
-85.84
-113.67
-137.87
-159.66
-180.31
-201.3
-224.59
-251.71
-282.37
-313.03
-337.03
-346.74
-336.68
-306.21
-260.14
-206.91
-155.24
-111.09
-76.41
-49.94
-29.19
-12.24
1.64
12.45
20.51
26.84
33.04
40.64
50.63
63.41
79.24
98.99
124.15
155.93
193.8
234.27
270.97
296.04
302.63
287.29
251.38
200.73
143.73
88.76
41.91
5.95
-19.24
-35.5
-45.05
-49.78
-51.42
-52.01
-54.19
-60.76
-73.69
-93.2
-117.34
-142.85
-166.47
-185.92
-199.96
-207.67
-207.82
-198.78
-179.4
-149.93
-112.6
-71.08
-29.37
9.51
44.19
74.88
102.98
130.48
159.55
192.13
229.22
270.27
312.81
352.66
384.97
405.65
412.46
405.49
386.62
358.48
323.42
282.98
238.06
189.5
138.71
88.06
40.76
0.38
-29.99
-48.5
-55.29
-52.57
-44.1
-34.12
-26.23
-22.57
-23.65
-28.83
-36.94
-46.86
-57.78
-69.46
-82.37
-97.87
-117.88
-143.98
-176.1
-211.62
-245.56
-271.99
-286.11
-285.92
-272.6
-249.49
-220.52
-188.96
-157.09
-126.61
-99.11
-76.13
-58.62
-46.32
-37.68
-30.52
-22.94
-14.24
-5.08
3.04
8.55
10.56
9.23
5.46
0.48
-4.7
-9.67
-14.51
-19.61
-25.34
-31.83
-38.93
-46.39
-53.98
-61.51
-68.82
-75.66
-81.73
-86.86
-91.13
-94.9
-98.69
-102.77
-106.88
-110.29
-112.14
-111.91
-109.8
-106.57
-103.02
-99.52
-95.69
-90.69
-83.85
-75.02
-64.67
-53.47
-41.73
-29.22
-15.39
0.06
16.69
33.27
48.22
60.36
69.42
76.22
82.28
89.19
98.08
109.33
122.56
136.96
151.55
165.44
177.97
188.74
197.6
204.68
210.4
215.4
220.35
225.54
230.45
233.72
233.39
227.68
215.87
198.8
178.8
158.99
142.25
130.38
123.59
120.56
118.88
115.89
109.37
98.39
83.62
67.25
52.34
41.63
36.33
35.31
35.31
31.81
20.58
-0.99
-33.2
-74.22
-120.94
-169.82
-217.46
-260.77
-297.19
-325.1
-344.35
-356.44
-364.05
-369.71
-374.5
-377.53
-376.64
-369.77
-356.25
-337.13
-314.54
-290.49
-266.03
-241.12
-215.26
-188.11
-159.83
-130.83
-101.57
-72.49
-44.19
-17.56
6.39
26.82
43.58
57.47
70.13
83.87
101.32
124.85
155.89
194.08
236.73
279.14
315.8
342.14
356.21
359.12
354.3
345.7
336.06
326.09
314.74
300.39
282.04
259.86
235.09
209.39
184.1
159.93
136.97
114.93
93.53
72.92
53.73
36.84
22.93
12.0
3.17
-4.84
-13.04
-21.4
-28.79
-33.47
-34.11
-30.55
-23.98
-16.3
-9.22
-3.6
0.62
3.92
6.68
8.85
10.1
10.19
9.37
8.38
8.27
9.99
14.02
20.17
27.57
34.82
40.38
42.97
41.98
37.59
30.75
22.72
14.76
7.77
2.22
-1.76
-4.24
-5.48
-5.86
-5.96
-6.46
-7.93
-10.66
-14.69
-19.81
-25.79
-32.42
-39.64
-47.54
-56.25
-65.95
-76.72
-88.46
-100.75
-112.89
-123.93
-132.88
-139.0
-141.93
-141.81
-139.07
-134.31
-127.98
-120.4
-111.74
-102.19
-91.99
-81.55
-71.38
-62.0
-53.74
-46.68
-40.6
-34.99
-29.29
-23.04
-16.1
-8.75
-1.52
4.95
10.22
14.17
17.07
19.45
21.81
24.45
27.39
30.42
33.22
35.53
37.17
38.12
38.49
38.43
38.2
38.17
38.76
40.35
43.19
47.22
52.06
57.09
61.61
65.07
67.15
67.88
67.54
66.5
65.04
63.29
61.21
58.7
55.73
52.38
48.86
45.43
42.29
39.47
36.78
33.94
30.57
26.43
21.46
15.76
9.66
3.49
-2.4
-7.73
-12.28
-15.84
-18.23
-19.32
-19.14
-17.85
-15.82
-13.42
-10.93
-8.54
-6.24
-3.97
-1.79
0.12
1.48
1.98
1.56
0.37
-1.2
-2.76
-4.02
-4.92
-5.54
-6.04
-6.46
-6.7
-6.63
-6.2
-5.5
-4.79
-4.39
-4.52
-5.33
-6.86
-9.05
-11.84
-15.12
-18.59
-21.82
-24.28
-25.46
-25.06
-23.14
-20.0
-16.08
-11.82
-7.53
-3.44
0.29
3.4
5.67
6.96
7.34
7.08
6.59
6.22
6.17
6.35
6.52
6.37
5.65
4.35
2.69
1.08
-0.07
-0.53
-0.44
-0.21
-0.53
-1.98
-4.87
-9.1
-14.2
-19.45
-24.07
-27.39
-28.85
-28.2
-25.43
-20.82
-14.94
-8.47
-2.0
4.07
9.58
14.55
19.04
23.04
26.53
29.46
31.91
34.11
36.33
38.7
41.18
43.48
45.21
46.08
45.97
45.05
43.6
41.84
39.87
37.6
34.84
31.52
27.8
23.93
20.18
16.6
12.97
8.93
4.27
-0.93
-6.15
-10.6
-13.45
-14.03
-12.07
-7.63
-1.06
7.03
15.91
24.77
32.87
39.75
45.22
49.46
52.75
55.31
57.2
58.22
58.03
56.28
52.72
47.27
40.11
31.71
22.84
14.48
7.59
2.75
-0.11
-1.74
-3.3
-5.94
-10.33
-16.36
-23.33
-30.22
-36.11
-40.45
-43.12
-44.33
-44.46
-43.97
-43.29
-42.77
-42.57
-42.67
-42.75
-42.35
-40.96
-38.16
-33.76
-27.85
-20.78
-13.11
-5.46
1.57
7.57
12.38
16.19
19.28
21.94
24.27
26.15
27.32
27.6
27.03
25.94
24.8
24.03
23.83
24.12
24.62
24.99
24.95
24.38
23.29
21.79
20.0
18.1
16.2
14.35
12.59
10.86
9.03
6.97
4.58
1.85
-1.11
-4.12
-6.97
-9.48
-11.53
-13.2
-14.71
-16.43
-18.86
-22.23
-26.48
-31.02
-34.8
-36.68
-35.82
-31.96
-25.49
-17.27
-8.25
0.76
9.14
16.5
22.44
26.69
29.18
30.14
30.05
29.56
29.22
29.3
29.82
30.58
31.35
31.98
32.45
32.81
33.15
33.43
33.52
33.23
32.35
30.82
28.73
26.28
23.66
20.93
18.0
14.61
10.57
5.77
0.34
-5.49
-11.48
-17.46
-23.35
-29.16
-34.89
-40.54
-46.12
-51.71
-57.49
-63.79
-70.92
-79.08
-88.14
-97.54
-106.37
-113.53
-117.98
-119.13
-116.89
-111.66
-104.14
-95.07
-85.15
-74.89
-64.79
-55.34
-47.08
-40.48
-35.88
-33.29
-32.43
-32.76
-33.72
-34.75
-35.48
-35.64
-35.0
-33.31
-30.34
-25.95
-20.19
-13.41
-6.21
0.71
6.77
11.7
15.58
18.74
21.48
23.89
25.71
26.56
26.12
24.48
22.15
19.88
18.32
17.7
17.77
18.02
17.92
17.26
16.19
15.05
14.19
13.7
13.36
12.73
11.31
8.67
4.65
-0.59
-6.58
-12.62
-17.95
-21.87
-23.92
-23.9
-21.83
-17.92
-12.4
-5.54
2.39
11.12
20.29
29.46
38.15
45.89
52.32
57.21
60.52
62.31
62.75
62.09
60.68
58.99
57.52
56.77
56.94
57.96
59.43
60.75
61.29
60.49
58.02
53.78
47.99
41.15
33.95
27.16
21.41
17.08
14.24
12.67
11.83
11.02
9.28
5.64
-0.65
-9.79
-21.15
-33.44
-45.0
-54.39
-60.86
-64.56
-66.29
-67.04
-67.64
-68.44
-69.4
-70.35
-71.18
-72.0
-72.94
-73.99
-74.86
-75.03
-73.88
-71.05
-66.57
-60.83
-54.4
-47.75
-41.02
-34.15
-26.97
-19.52
-12.13
-5.31
0.4
4.69
7.57
9.37
10.53
11.38
12.08
12.52
12.49
11.9
10.84
9.65
8.86
8.84
9.77
11.48
13.57
15.67
17.57
19.37
21.34
23.77
26.73
30.06
33.51
36.89
40.18
43.46
46.8
50.08
53.01
55.26
56.61
57.13
57.07
56.74
56.38
56.02
55.53
54.58
52.81
49.73
44.91
38.04
29.17
18.75
7.61
-3.37
-13.62
-22.96
-31.63
-39.91
-47.81
-54.89
-60.36
-63.32
-63.25
-60.18
-54.8
-48.17
-41.41
-35.3
-30.12
-25.7
-21.66
-17.61
-13.4
-9.08
-4.79
-0.66
3.25
6.85
9.97
12.4
13.93
14.49
14.25
13.53
12.69
11.94
11.33
10.7
9.84
8.59
6.89
4.79
2.41
-0.05
-2.35
-4.24
-5.61
-6.46
-7.02
-7.58
-8.37
-9.41
-10.47
-11.14
-11.1
-10.26
-8.88
-7.48
-6.61
-6.61
-7.45
-8.86
-10.42
-11.89
-13.21
-14.6
-16.33
-18.63
-21.51
-24.78
-28.22
-31.61
-34.92
-38.25
-41.77
-45.63
-49.83
-54.17
-58.27
-61.64
-63.79
-64.36
-63.19
-60.32
-55.92
-50.24
-43.46
-35.72
-27.15
-17.89
-8.27
1.34
10.48
18.72
25.82
31.62
36.07
39.13
40.82
41.16
40.19
38.03
34.87
31.05
27.03
23.34
20.49
18.79
18.28
18.75
19.72
20.73
21.39
21.55
21.24
20.61
19.9
19.32
18.97
18.83
18.65
18.13
16.95
14.99
12.4
9.63
7.25
5.77
5.5
6.38
8.07
9.93
11.23
11.24
9.38
5.43
-0.39
-7.35
-14.45
-20.72
-25.52
-28.76
-30.94
-32.83
-35.1
-37.89
-40.76
-42.83
-43.27
-41.7
-38.23
-33.35
-27.54
-21.01
-13.73
-5.73
2.67
10.83
17.94
23.45
27.13
29.06
29.29
27.59
23.52
16.65
6.97
-4.99
-18.2
-31.42
-43.56
-53.74
-61.47
-66.47
-68.55
-67.54
-63.3
-55.85
-45.39
-32.43
-17.63
-1.7
14.84
31.73
48.76
65.51
81.03
93.87
102.48
105.87
104.03
98.09
89.82
80.83
72.05
63.46
54.48
44.53
33.57
22.15
11.25
1.77
-5.82
-11.53
-15.78
-19.05
-21.71
-23.83
-25.34
-26.05
-25.84
-24.77
-23.03
-20.9
-18.59
-16.21
-13.71
-10.94
-7.77
-4.2
-0.47
3.07
6.11
8.47
10.23
11.66
13.15
14.95
17.14
19.59
22.11
24.49
26.62
28.46
30.0
31.12
31.66
31.48
30.52
28.89
26.81
24.5
22.12
19.71
17.21
14.58
11.8
8.93
6.06
3.22
0.29
-2.91
-6.63
-11.0
-15.95
-21.18
-26.31
-30.89
-34.69
-37.66
-39.94
-41.76
-43.29
-44.67
-45.94
-47.17
-48.35
-49.46
-50.38
-50.87
-50.59
-49.17
-46.34
-42.05
-36.5
-30.16
-23.59
-17.32
-11.62
-6.5
-1.76
2.84
7.35
11.59
15.18
17.77
19.25
19.85
19.98
20.11
20.5
21.26
22.28
23.45
24.73
26.1
27.51
28.73
29.41
29.17
27.84
25.5
22.56
19.52
16.77
14.54
12.79
11.3
9.83
8.16
6.16
3.82
1.21
-1.53
-4.24
-6.83
-9.27
-11.61
-13.91
