-0.93
2.5
5.54
8.13
10.28
12.0
13.32
14.31
15.03
15.57
16.07
16.7
17.62
18.89
20.49
22.23
23.94
25.46
26.77
27.97
29.22
30.64
32.26
34.02
35.7
37.01
37.62
37.3
35.95
33.69
30.85
27.84
25.0
22.48
20.22
17.98
15.54
12.74
9.49
5.75
1.49
-3.18
-7.99
-12.44
-15.89
-17.79
-17.89
-16.37
-13.73
-10.62
-7.52
-4.65
-1.98
0.65
3.35
6.08
8.65
10.86
12.47
13.34
13.43
12.76
11.49
9.78
7.9
6.11
4.64
3.57
2.87
2.39
1.91
1.25
0.26
-1.07
-2.61
-4.15
-5.52
-6.58
-7.37
-7.99
-8.61
-9.32
-10.2
-11.26
-12.48
-13.86
-15.37
-17.0
-18.72
-20.51
-22.4
-24.47
-26.77
-29.26
-31.76
-33.91
-35.27
-35.47
-34.27
-31.6
-27.56
-22.38
-16.38
-10.01
-3.74
2.0
6.91
10.84
13.83
15.97
17.39
18.18
18.41
18.22
17.79
17.34
17.07
17.05
17.25
17.6
17.98
18.35
18.62
18.73
18.54
17.91
16.7
14.9
12.66
10.25
7.91
5.87
4.16
2.77
1.63
0.66
-0.19
-1.07
-2.17
-3.78
-6.07
-9.05
-12.54
-16.17
-19.66
-22.82
-25.58
-27.87
-29.49
-30.15
-29.55
-27.56
-24.28
-20.05
-15.26
-10.32
-5.5
-0.93
3.24
6.9
9.9
12.18
13.78
14.87
15.64
16.24
16.77
17.25
17.76
18.4
19.38
20.82
22.65
24.58
26.11
26.76
26.29
24.81
22.76
20.74
19.26
18.56
18.56
18.94
19.33
19.46
19.27
18.79
18.16
17.5
16.89
16.36
15.81
14.97
13.38
10.52
6.02
-0.13
-7.42
-14.99
-21.93
-27.59
-31.76
-34.56
-36.21
-36.76
-36.0
-33.58
-29.24
-22.99
-15.24
-6.74
1.56
8.74
14.13
17.47
18.96
19.15
18.68
18.01
17.32
16.52
15.42
13.94
12.2
10.39
8.7
7.12
5.54
3.82
1.95
0.14
-1.3
-2.08
-2.03
-1.21
0.11
1.52
2.55
2.9
2.42
1.22
-0.47
-2.36
-4.28
-6.15
-7.98
-9.79
-11.75
-14.22
-17.72
-22.71
-29.36
-37.24
-45.38
-52.59
-57.97
-61.2
-62.53
-62.46
-61.35
-59.22
-55.9
-51.22
-45.35
-38.79
-32.19
-26.14
-20.96
-16.67
-13.13
-10.07
-7.3
-4.75
-2.43
-0.38
1.4
3.09
5.0
7.43
10.54
14.21
18.01
21.41
23.95
25.3
25.43
24.49
22.78
20.66
18.51
16.59
14.99
13.7
12.57
11.48
10.39
9.3
8.17
6.96
5.58
4.06
2.58
1.5
1.16
1.73
3.1
4.84
6.49
7.67
8.26
8.26
7.79
6.92
5.82
4.74
4.11
4.41
5.86
8.28
10.97
13.03
13.64
12.45
9.65
5.85
1.83
-1.83
-4.82
-7.04
-8.51
-9.26
-9.24
-8.36
-6.57
-3.84
-0.27
3.97
8.63
13.38
17.82
21.57
24.25
25.6
25.56
24.21
21.82
18.81
15.61
12.67
10.27
8.5
7.16
5.81
3.92
1.04
-2.94
-7.71
-12.61
-16.89
-19.96
-21.7
-22.4
-22.67
-23.15
-24.22
-25.88
-27.75
-29.24
-29.77
-29.0
-26.84
-23.42
-18.97
-13.68
-7.71
-1.25
5.39
11.73
17.18
21.27
23.83
25.1
25.58
25.87
26.44
27.5
29.02
30.8
32.53
33.84
34.42
34.1
32.99
31.45
29.99
29.08
28.86
29.04
29.01
28.08
25.78
22.03
17.14
11.64
6.12
1.02
-3.43
-7.19
-10.36
-13.07
-15.4
-17.43
-19.35
-21.44
-24.08
-27.65
-32.36
-38.16
-44.66
-51.27
-57.29
-62.15
-65.42
-66.93
-66.6
-64.43
-60.41
-54.62
-47.27
-38.76
-29.74
-20.86
-12.64
-5.3
1.25
7.33
13.19
18.96
24.54
29.74
34.39
38.49
42.17
45.63
49.06
52.61
56.38
60.44
64.64
68.62
71.73
73.23
72.46
69.11
63.45
56.22
48.45
41.07
34.62
29.02
23.67
17.76
10.6
2.0
-7.73
-17.86
-27.56
-36.2
-43.53
-49.63
-54.83
-59.43
-63.68
-67.74
-71.63
-75.23
-78.18
-79.9
-79.63
-76.7
-70.79
-62.13
-51.54
-40.15
-29.13
-19.37
-11.27
-4.78
0.39
4.59
8.04
10.76
12.74
13.96
14.53
14.66
14.62
14.63
14.85
15.35
16.11
17.11
18.27
19.47
20.55
21.27
21.42
20.83
19.49
17.54
15.29
13.09
11.22
9.81
8.77
7.95
7.15
6.28
5.3
4.28
3.22
2.11
0.83
-0.73
-2.69
-5.03
-7.56
-9.89
-11.44
-11.62
-9.99
-6.48
-1.49
4.19
9.65
14.15
17.31
19.2
20.23
20.8
21.2
21.44
21.38
20.93
20.22
19.58
19.41
19.95
21.14
22.7
24.21
25.33
25.91
25.92
25.35
24.09
22.0
18.94
14.99
10.48
5.85
1.58
-2.09
-5.18
-7.92
-10.69
-13.82
-17.49
-21.71
-26.43
-31.5
-36.78
-42.17
-47.49
-52.52
-56.97
-60.49
-62.77
-63.54
-62.61
-59.9
-55.42
-49.3
-41.81
-33.42
-24.68
-16.18
-8.41
-1.67
3.83
8.0
10.78
12.25
12.69
12.56
12.49
13.0
14.37
16.45
18.84
21.09
22.89
24.19
25.12
25.82
26.31
26.47
26.08
25.07
23.45
21.37
19.08
16.81
14.74
12.97
11.56
10.48
9.65
8.87
7.92
6.59
4.68
2.15
-1.0
-4.65
-8.6
-12.55
-16.08
-18.73
-20.11
-20.03
-18.67
-16.49
-14.09
-12.06
-10.72
-10.15
-10.23
-10.82
-11.91
-13.52
-15.64
-18.06
-20.4
-22.2
-23.1
-22.98
-22.0
-20.44
-18.62
-16.73
-14.92
-13.3
-11.97
-11.03
-10.42
-9.86
-8.87
-6.87
-3.44
1.58
7.9
14.93
21.79
27.58
31.55
33.26
32.67
30.07
26.05
21.31
16.55
12.34
9.11
7.15
6.54
7.22
8.93
11.2
13.49
15.28
16.21
16.23
15.56
14.59
13.7
13.0
12.32
11.27
9.53
7.11
4.37
2.01
0.67
0.71
1.97
3.83
5.48
6.23
5.77
4.19
1.85
-0.86
-3.67
-6.46
-9.19
-11.81
-14.22
-16.32
-18.09
-19.68
-21.32
-23.28
-25.73
-28.68
-32.05
-35.64
-39.25
-42.57
-45.2
-46.73
-46.76
-45.12
-41.82
-37.16
-31.56
-25.51
-19.47
-13.88
-9.11
-5.43
-3.0
-1.8
-1.68
-2.41
-3.72
-5.26
-6.6
-7.28
-6.99
-5.76
-4.0
-2.49
-2.03
-3.18
-6.0
-10.09
-14.7
-18.86
-21.63
-22.14
-19.88
-14.92
-7.88
0.13
7.99
14.84
20.32
24.31
26.87
27.93
27.52
25.97
23.98
22.58
22.64
24.61
28.27
33.09
38.44
43.92
49.34
54.58
59.43
63.51
66.42
67.79
67.5
65.6
62.44
58.47
54.25
50.23
46.61
43.33
40.08
36.57
32.62
28.31
23.79
19.17
14.46
9.66
5.13
1.55
-0.15
0.7
4.06
8.97
13.79
16.82
16.83
13.46
7.11
-1.28
-10.71
-20.27
-29.19
-36.65
-41.81
-43.92
-42.59
-38.14
-31.58
-24.4
-18.02
-13.23
-9.83
-6.86
-3.18
1.83
7.86
13.87
18.6
21.29
21.96
21.21
19.75
17.9
15.47
12.08
7.54
2.23
-3.1
-7.64
-10.9
-13.02
-14.51
-16.02
-17.93
-20.15
-22.27
-23.76
-24.3
-23.98
-23.3
-22.96
-23.57
-25.44
-28.5
-32.43
-36.82
-41.32
-45.71
-49.78
-53.3
-55.92
-57.3
-57.22
-55.69
-52.99
-49.52
-45.68
-41.68
-37.42
-32.58
-26.75
-19.66
-11.35
-2.2
7.1
15.89
23.7
30.34
35.83
40.21
43.35
45.06
45.16
43.73
41.14
37.93
34.67
31.69
29.12
26.9
24.94
23.14
21.43
19.65
17.54
14.81
11.25
6.88
2.04
-2.71
-6.72
-9.35
-10.16
-8.95
-5.87
-1.38
3.75
8.63
12.5
15.08
16.56
17.61
18.96
21.15
24.31
28.17
32.22
35.95
39.03
41.23
42.45
42.56
41.47
39.21
35.88
31.8
27.29
22.72
18.31
14.24
10.56
7.27
4.42
2.02
0.11
-1.28
-2.17
-2.68
-3.01
-3.37
-4.06
-5.26
-7.03
-9.22
-11.49
-13.49
-14.96
-15.83
-16.26
-16.57
-17.08
-18.02
-19.41
-21.12
-22.88
-24.42
-25.53
-26.09
-26.03
-25.3
-23.92
-21.94
-19.46
-16.7
-13.93
-11.41
-9.35
-7.75
-6.5
-5.4
-4.31
-3.22
-2.28
-1.71
-1.67
-2.14
-2.87
-3.5
-3.76
-3.62
-3.24
-2.92
-2.86
-3.05
-3.32
-3.47
-3.4
-3.2
-3.05
-3.15
-3.61
-4.4
-5.44
-6.71
-8.17
-9.8
-11.48
-12.95
-13.91
-14.11
-13.5
-12.28
-10.85
-9.7
-9.14
-9.29
-9.92
-10.63
-10.99
-10.71
-9.65
-7.86
-5.47
-2.62
0.53
3.85
7.11
10.02
12.31
13.79
14.52
14.81
15.07
15.65
16.7
18.02
19.2
19.83
19.68
18.82
17.53
16.17
14.91
13.76
12.51
10.95
9.02
6.78
4.37
1.88
-0.77
-3.65
-6.78
-9.99
-12.97
-15.34
-16.92
-17.8
-18.36
-19.06
-20.19
-21.71
-23.25
-24.39
-24.74
-24.35
-23.59
-23.03
-23.12
-23.94
-25.12
-25.95
-25.73
-23.99
-20.71
-16.26
-11.2
-6.14
-1.55
2.25
5.04
6.8
7.64
7.89
8.01
8.44
9.38
10.76
12.21
13.28
13.68
13.39
12.65
11.86
11.39
11.41
11.95
12.77
13.57
14.03
13.94
13.23
12.0
10.44
8.74
7.05
5.42
3.91
2.62
1.64
1.06
0.73
0.33
-0.65
-2.68
-6.0
-10.45
-15.53
-20.56
-24.89
-28.15
-30.22
-31.15
-31.01
-29.79
-27.37
-23.69
-18.84
-13.15
-7.11
-1.2
4.21
8.91
12.75
15.59
17.31
17.85
17.3
16.03
14.58
13.54
13.36
14.21
16.0
18.39
20.93
23.17
24.7
25.25
24.69
23.07
20.64
17.79
14.9
12.23
9.88
7.65
5.3
2.63
-0.38
-3.5
-6.35
-8.56
-9.94
-10.53
-10.68
-10.89
-11.7
-13.54
-16.61
-20.73
-25.39
-29.8
-33.19
-34.93
-34.78
-32.87
-29.65
-25.72
-21.66
-17.91
-14.7
-12.01
-9.73
-7.65
-5.6
-3.57
-1.67
-0.14
0.8
1.04
0.66
-0.15
-1.16
-2.18
-3.05
-3.67
-3.93
-3.75
-3.17
-2.35
-1.55
-1.03
-0.94
-1.31
-2.02
-2.97
-4.05
-5.3
-6.76
-8.38
-10.01
-11.35
-12.09
-12.0
-10.98
-9.11
-6.6
-3.76
-0.96
1.36
2.76
2.87
1.55
-0.96
-4.09
-7.05
-9.07
-9.7
-8.9
-6.94
-4.3
-1.36
1.65
4.64
7.63
10.6
13.41
15.91
17.91
19.33
20.22
20.7
20.96
21.17
21.41
21.68
22.0
22.39
22.93
23.68
24.56
25.35
25.73
25.34
24.0
21.79
19.03
16.17
13.65
11.79
10.75
10.53
11.01
11.98
13.14
14.18
14.74
14.5
13.32
11.17
8.25
4.85
1.34
-1.93
-4.65
-6.53
-7.3
-6.75
-4.7
-1.1
3.96
10.19
17.06
23.81
29.41
32.85
33.24
30.17
23.88
15.31
5.83
-3.1
-10.28
-15.06
-17.39
-17.78
-17.05
-16.11
-15.7
-16.13
-17.2
-18.19
-18.3
-17.01
-14.49
-11.68
-9.98
-10.73
-14.54
-21.15
-29.41
-37.87
-45.3
-51.04
-55.09
-57.89
-60.0
-61.84
-63.6
-65.12
-66.09
-66.14
-65.01
-62.69
-59.41
-55.66
-51.91
-48.5
-45.33
-41.73
-36.55
-28.42
-16.21
0.49
21.02
43.64
65.88
85.15
99.42
107.69
110.15
107.88
102.48
95.52
88.25
81.39
75.23
69.77
64.81
60.11
55.33
50.08
44.06
37.14
29.54
21.75
14.49
8.32
3.46
-0.34
-3.63
-6.94
-10.43
-13.82
-16.55
-18.09
-18.27
-17.37
-16.09
-15.16
-15.16
-16.27
-18.35
-20.95
-23.52
-25.57
-26.68
-26.61
-25.32
-22.94
-19.72
-16.06
-12.29
-8.68
-5.38
-2.4
0.38
3.13
5.93
8.67
11.07
12.83
13.85
14.41
15.16
16.85
19.98
24.45
29.58
34.42
38.21
40.63
41.86
42.36
42.39
41.95
40.72
38.38
34.84
30.26
25.0
19.34
13.47
7.45
1.36
-4.59
-10.04
-14.61
-18.06
-20.39
-21.85
-22.88
-23.91
-25.29
-27.17
-29.5
-32.07
-34.61
-36.89
-38.76
-40.13
-40.94
-41.07
-40.41
-38.92
-36.73
-34.11
-31.42
-28.92
-26.64
-24.36
-21.76
-18.56
-14.71
-10.43
-6.07
-1.97
1.73
5.06
8.17
11.16
14.05
16.73
19.03
20.86
22.18
23.04
23.46
23.46
23.07
22.3
21.22
19.97
18.66
17.43
16.32
15.25
14.09
12.57
10.37
7.22
2.95
-2.39
-8.59
-15.27
-22.07
-28.59
-34.49
-39.42
-43.05
-45.09
-45.45
-44.24
-41.78
-38.45
-34.57
-30.3
-25.69
-20.74
-15.64
-10.73
-6.38
-2.88
-0.2
1.96
4.02
6.35
9.11
12.12
15.03
17.46
19.12
19.97
20.11
19.78
19.21
18.54
17.84
17.13
16.42
15.76
15.17
14.66
14.1
13.27
11.91
9.8
6.84
3.09
-1.35
-6.28
-11.5
-16.74
-21.74
-26.25
-30.07
-33.09
-35.24
-36.44
-36.52
-35.27
-32.55
-28.39
-23.08
-17.08
-10.97
-5.25
-0.29
3.76
6.94
9.43
11.48
13.3
14.95
16.33
17.28
17.63
17.37
16.61
15.67
14.82
14.3
14.17
14.32
14.52
14.61
14.58
14.62
15.04
16.13
17.9
20.12
22.35
24.17
25.36
25.95
26.16
26.16
25.98
25.36
23.94
21.36
17.44
12.24
5.99
-0.96
-8.2
-15.3
-21.76
-26.98
-30.48
-31.91
-31.29
-29.1
-26.06
-22.95
-20.28
-18.18
-16.44
-14.75
-12.89
-10.88
-8.82
-6.8
-4.75
-2.5
0.06
2.83
5.47
7.59
8.96
9.73
10.32
11.24
12.74
14.74
16.91
18.86
20.5
21.88
23.17
24.31
24.89
24.26
21.88
17.65
12.04
6.05
0.69
-3.33
-5.94
-7.7
-9.47
-12.02
-15.7
-20.37
-25.48
-30.35
-34.35
-37.04
-38.09
-37.27
-34.44
-29.68
-23.38
-16.33
-9.54
-4.06
-0.68
0.35
-0.72
-3.2
-6.24
-9.09
-11.29
-12.65
-13.19
-12.95
-11.89
-9.93
-7.04
-3.37
0.67
4.48
7.48
9.26
9.73
9.07
7.65
5.87
4.05
2.42
1.17
0.47
0.45
1.12
2.33
3.76
4.97
5.57
5.19
3.57
0.54
-3.95
-9.7
-16.15
-22.44
-27.64
-30.99
-32.27
-31.69
-29.75
-26.95
-23.48
-19.27
-14.17
-8.19
-1.59
5.17
11.72
17.81
23.32
28.15
32.07
34.73
35.85
35.33
33.48
30.83
27.97
25.31
22.96
20.78
18.54
16.14
13.56
10.91
8.21
5.37
2.14
-1.64
-5.95
-10.48
-14.66
-17.95
-20.0
-20.86
-20.93
-20.8
-21.03
-21.93
-23.5
-25.32
-26.78
-27.23
-26.22
-23.66
-19.84
-15.28
-10.54
-5.99
-1.7
2.49
6.8
11.33
15.95
20.4
24.42
27.77
30.33
32.01
32.78
32.57
31.43
29.53
27.29
25.28
24.09
24.17
25.68
28.38
31.75
35.14
37.98
39.94
40.94
41.02
40.21
38.51
35.89
32.47
28.51
24.38
20.4
16.66
12.95
8.93
4.35
-0.81
-6.27
-11.61
-16.53
-20.95
-25.02
-28.95
-32.75
-36.19
-38.77
-39.95
-39.32
-36.85
-32.84
-27.8
-22.22
-16.45
-10.69
-5.14
-0.11
3.93
6.57
7.58
7.13
5.76
4.21
3.15
2.97
3.74
5.27
7.25
9.33
11.24
12.77
13.82
14.33
14.38
14.07
13.5
12.73
11.72
10.34
8.41
5.82
2.68
-0.73
-3.96
-6.57
-8.36
-9.42
-10.12
-11.01
-12.62
-15.26
-18.95
-23.36
-27.88
-31.76
-34.33
-35.14
-34.03
-31.16
-26.88
-21.62
-15.83
-9.87
-3.97
1.76
7.24
12.38
17.02
20.97
24.03
26.19
27.58
28.49
29.17
29.72
30.0
29.75
28.72
26.79
24.07
20.81
17.36
14.03
11.11
8.76
6.99
5.69
4.63
3.65
2.62
1.54
0.45
-0.65
-1.8
-3.09
-4.58
-6.2
-7.78
-9.11
-10.02
-10.45
-10.39
-9.79
-8.49
-6.25
-2.82
1.91
7.76
14.26
20.72
26.36
30.48
32.63
32.67
30.77
27.35
22.96
18.15
13.33
8.79
4.67
1.07
-1.87
-4.01
-5.26
-5.68
-5.44
-4.87
-4.39
-4.31
-4.83
-5.98
-7.68
-9.78
-12.2
-14.87
-17.78
-20.95
-24.35
-27.94
-31.63
-35.27
-38.63
-41.46
-43.48
-44.51
-44.48
-43.4
-41.41
-38.61
-34.98
-30.45
-24.98
-18.63
-11.74
-4.8
1.71
7.42
12.26
16.44
20.2
23.73
26.99
29.69
31.5
32.26
32.14
31.66
31.42
31.82
32.81
33.86
34.15
32.95
29.94
25.29
19.57
13.48
7.62
2.37
-2.11
-5.84
-8.97
-11.69
-14.28
-16.86
-19.36
-21.46
-22.72
-22.86
-21.89
-20.15
-18.15
-16.38
-15.08
-14.32
-14.04
-14.25
-14.93
-15.97
-16.98
-17.3
-16.2
-13.18
-8.24
-1.99
4.59
10.44
14.76
17.29
18.25
18.26
17.94
17.68
17.44
16.88
15.53
13.19
10.11
6.92
4.42
3.2
3.32
4.28
5.26
5.37
4.11
1.41
-2.28
-6.18
-9.37
-10.92
-10.13
-6.77
-1.33
4.89
10.03
12.21
10.38
4.92
-2.29
-8.53
-11.33
-9.49
-3.47
4.98
13.73
21.23
26.85
30.8
33.63
35.71
37.19
38.18
39.0
40.19
42.27
45.35
48.88
51.82
53.05
51.79
47.86
41.75
34.42
27.25
21.9
20.05
23.11
31.6
44.83
60.73
76.39
88.83
95.84
96.59
91.87
83.85
75.62
70.48
71.12
78.96
93.62
112.82
132.81
149.43
159.35
161.07
155.38
144.81
132.63
121.49
112.54
105.25
98.01
89.05
77.29
62.68
45.9
27.65
8.21
-12.91
-36.79
-64.87
-98.49
-138.16
-182.49
-227.52
-266.69
-292.45
-298.96
-284.91
-255.09
-219.24
-188.58
-171.43
-170.07
-180.39
-194.24
-203.05
-200.84
-185.27
-157.17
-119.54
-77.15
-36.31
-4.21
12.92
12.28
-3.68
-27.52
-49.58
-61.81
-60.89
-48.89
-31.39
-14.24
-1.05
7.53
12.77
16.17
18.36
19.18
18.39
16.25
13.48
10.7
7.9
4.4
-0.75
-8.16
-17.71
-28.63
-39.96
-51.07
-61.81
-72.57
-83.81
-95.76
-108.17
-120.39
-131.39
-140.12
-145.67
-147.47
-145.42
-139.89
-131.72
-122.23
-112.93
-105.08
-99.06
-94.13
-88.74
-81.38
-71.48
-59.83
-48.12
-37.88
-29.55
-22.23
-14.38
-4.8
6.4
17.91
28.04
35.76
41.45
46.6
52.85
60.87
69.77
77.48
81.87
82.21
79.71
77.13
77.27
81.36
88.3
95.27
99.38
99.25
95.81
91.62
89.37
90.5
94.6
99.95
104.51
106.98
107.36
106.69
106.58
108.52
113.5
121.9
133.62
148.16
164.66
181.79
197.62
209.74
215.71
213.85
204.17
188.69
171.09
155.4
144.59
139.42
138.33
138.32
136.3
130.34
120.08
106.42
90.72
74.09
57.26
40.66
24.84
10.46
-1.93
-12.31
-21.3
-30.01
-39.44
-49.98
-61.14
-71.78
-80.76
-87.49
-92.43
-96.78
-102.06
-109.43
-119.23
-130.89
-143.23
-154.98
-165.25
-173.82
-181.06
-187.62
-194.02
-200.28
-205.84
-209.72
-210.96
-209.06
-204.05
-196.28
-186.12
-173.62
-158.54
-140.73
-120.53
-99.0
-77.8
-58.49
-42.14
-28.93
-18.43
-10.01
-3.23
1.91
5.33
7.17
8.12
9.3
12.02
17.16
24.86
34.42
44.43
53.28
59.63
62.66
62.29
58.96
53.42
46.44
38.56
30.02
20.76
10.62
-0.55
-12.72
-25.59
-38.44
-50.23
-59.81
-66.15
-68.77
-67.92
-64.48
-59.76
-55.02
-51.18
-48.59
-46.98
-45.64
-43.53
-39.43
-32.25
-21.31
-6.55
11.14
30.12
48.42
64.23
76.46
84.88
89.95
92.44
93.08
92.35
90.56
88.03
85.14
82.41
80.29
79.07
78.72
79.13
80.05
81.28
82.64
83.93
84.86
85.12
84.43
82.65
79.89
76.45
72.78
69.38
66.59
64.53
63.09
61.96
60.86
59.72
58.67
58.0
58.03
58.88
60.42
62.28
63.9
64.75
64.37
62.52
59.26
54.92
50.09
45.36
41.09
37.29
33.5
29.03
23.27
15.9
7.05
-2.82
-13.07
-23.11
-32.42
-40.61
-47.38
-52.53
-56.03
-58.04
-59.05
-59.68
-60.56
-62.17
-64.7
-68.01
-71.74
-75.56
-79.3
-83.06
-87.07
-91.52
-96.2
-100.52
-103.63
