14.2
16.14
17.29
17.83
17.92
17.73
17.43
17.17
17.03
17.04
17.14
17.22
17.19
17.01
16.74
16.45
16.16
15.77
15.12
14.04
12.53
10.71
8.8
6.95
5.15
3.24
1.03
-1.57
-4.48
-7.46
-10.24
-12.61
-14.57
-16.27
-17.99
-20.02
-22.58
-25.73
-29.4
-33.26
-36.85
-39.59
-40.9
-40.38
-37.85
-33.47
-27.64
-20.9
-13.78
-6.69
0.08
6.32
11.78
16.2
19.33
21.08
21.55
21.09
20.16
19.24
18.7
18.65
19.02
19.6
20.2
20.68
21.02
21.21
21.23
20.97
20.27
19.0
17.16
14.91
12.55
10.4
8.61
7.17
5.88
4.48
2.76
0.62
-1.86
-4.52
-7.19
-9.77
-12.2
-14.55
-16.94
-19.48
-22.33
-25.54
-29.12
-32.86
-36.31
-38.85
-39.78
-38.59
-35.14
-29.72
-22.93
-15.55
-8.26
-1.53
4.4
9.43
13.57
16.83
19.24
20.88
21.91
22.47
22.73
22.8
22.79
22.77
22.84
23.03
23.34
23.76
24.2
24.6
24.83
24.74
24.19
23.07
21.32
19.03
16.39
13.64
10.99
8.57
6.32
4.12
1.8
-0.72
-3.4
-6.12
-8.72
-11.13
-13.35
-15.41
-17.43
-19.56
-21.96
-24.79
-28.07
-31.59
-34.93
-37.39
-38.29
-37.09
-33.64
-28.22
-21.48
-14.14
-6.85
-0.03
6.06
11.25
15.36
18.22
19.74
19.98
19.27
18.07
16.87
16.0
15.54
15.42
15.5
15.68
15.91
16.15
16.31
16.25
15.81
14.9
13.55
11.86
9.96
7.9
5.68
3.26
0.6
-2.21
-5.06
-7.8
-10.3
-12.57
-14.73
-16.92
-19.28
-21.9
-24.82
-28.07
-31.64
-35.44
-39.22
-42.55
-44.8
-45.38
-43.87
-40.24
-34.78
-28.04
-20.58
-12.8
-4.92
2.93
10.56
17.68
23.97
29.3
33.78
37.81
41.88
46.37
51.35
56.61
61.84
66.78
71.44
75.95
80.55
85.3
90.01
94.35
97.91
100.49
102.11
102.94
103.16
102.7
101.23
98.21
93.1
85.47
75.09
61.71
45.13
25.23
2.3
-22.68
-48.1
-72.08
-93.12
-110.54
-124.62
-136.16
-145.91
-154.16
-160.84
-165.84
-169.32
-171.85
-173.93
-175.65
-176.42
-175.27
-171.48
-165.08
-157.04
-148.94
-142.21
-137.61
-134.97
-133.43
-131.85
-129.33
-125.31
-119.74
-112.88
-105.2
-97.13
-88.89
-80.32
-70.8
-59.52
-45.88
-30.04
-13.17
2.7
15.29
22.94
25.19
22.9
17.81
11.68
5.73
0.28
-4.92
-10.1
-14.91
-18.21
-18.36
-13.8
-3.73
11.42
29.93
49.13
66.01
77.95
83.12
80.74
71.22
55.99
37.46
18.58
2.16
-9.82
-16.81
-19.7
-20.25
-20.27
-20.98
-22.92
-26.28
-31.46
-39.05
-49.23
-60.95
-71.37
-76.49
-72.54
-57.61
-32.61
-0.94
32.81
64.54
91.68
113.33
129.66
141.06
147.86
150.28
148.71
143.87
136.73
128.18
119.01
109.88
101.44
94.19
88.19
82.76
76.6
68.34
57.33
44.14
30.54
18.71
10.32
5.82
4.43
4.56
4.56
3.23
0.09
-4.7
-10.66
-17.2
-23.67
-29.27
-33.05
-33.91
-30.81
-22.99
-10.2
7.11
27.72
49.74
70.91
88.96
102.22
109.89
112.19
110.12
104.99
97.96
89.77
80.71
70.86
60.35
49.59
39.15
29.6
21.29
14.27
8.34
3.07
-1.92
-6.86
-11.65
-15.82
-18.59
-19.06
-16.53
-10.66
-1.62
9.96
23.22
37.14
50.76
63.18
73.69
81.76
87.14
89.8
89.92
87.75
83.63
77.89
70.86
63.0
54.73
46.58
39.07
32.64
27.65
24.23
22.17
20.97
19.93
18.34
15.79
12.2
7.86
3.21
-1.39
-5.76
-9.95
-14.1
-18.33
-22.57
-26.64
-30.34
-33.5
-36.11
-38.2
-39.82
-40.98
-41.71
-42.06
-42.19
-42.34
-42.66
-43.27
-44.19
-45.42
-46.98
-48.92
-51.2
-53.73
-56.53
-59.85
-64.33
-70.8
-79.87
-91.36
-104.04
-115.65
-123.37
-124.62
-117.79
-102.77
-81.08
-55.51
-29.35
-5.5
14.32
29.91
42.36
53.43
64.7
76.99
90.1
102.97
114.05
121.75
124.94
123.24
117.19
108.15
97.94
88.34
80.53
74.89
71.04
68.17
65.41
62.04
57.57
51.67
44.28
35.57
26.01
16.36
7.32
-0.63
-7.43
-13.41
-19.09
-24.86
-30.79
-36.67
-42.05
-46.55
-50.02
-52.72
-55.16
-57.95
-61.54
-65.83
-70.1
-72.91
-72.39
-66.62
-54.34
-35.54
-11.72
14.25
38.94
59.21
73.11
80.19
81.33
78.16
72.51
65.98
59.82
54.89
51.75
50.55
51.05
52.63
54.51
56.01
56.79
56.88
56.69
56.76
57.59
59.48
62.31
65.69
69.14
72.29
75.09
77.84
81.0
84.98
89.98
95.91
102.53
109.51
116.52
123.36
129.92
136.22
142.33
148.4
154.55
160.86
167.2
173.31
178.83
183.36
186.56
188.08
187.45
184.03
176.97
165.4
148.46
125.94
98.42
67.35
34.59
1.99
-29.06
-57.67
-83.21
-105.24
-123.14
-136.06
-143.28
-144.57
-140.48
-132.33
-121.73
-110.15
-99.04
-89.25
-81.02
-74.16
-68.27
-63.02
-58.23
-53.69
-49.17
-45.66
-43.91
-43.86
-44.38
-43.94
-41.57
-37.45
-32.65
-28.47
-28.25
-33.72
-44.26
-57.09
-69.06
-78.82
-87.3
-96.76
-109.44
-130.89
-164.98
-212.35
-269.47
-329.78
-386.09
-432.69
-466.73
-488.94
-508.66
-535.84
-576.24
-628.27
-684.4
-735.81
-776.44
-804.69
-788.92
-710.52
-569.44
-387.43
-195.73
-19.2
129.68
248.1
338.21
404.54
447.46
468.52
471.5
463.09
450.62
439.22
430.99
425.9
423.25
418.98
409.37
392.91
371.28
347.85
325.48
305.72
289.24
276.61
265.9
255.36
243.6
230.58
216.91
202.97
188.82
174.57
160.42
144.84
129.5
113.82
96.63
76.61
52.79
25.33
-4.01
-32.27
-56.88
-76.43
-91.86
-105.55
-120.45
-139.27
-163.74
-194.26
-229.6
-266.36
-298.79
-319.89
-323.21
-305.86
-271.04
-227.83
-187.91
-160.23
-146.5
-140.11
-129.2
-101.94
-52.06
18.31
99.44
177.75
240.34
278.74
290.44
278.44
249.54
211.91
172.74
136.8
106.41
81.85
62.42
46.71
32.83
18.35
0.99
-20.06
-42.55
-60.46
-65.51
-50.23
-11.76
45.62
110.9
169.86
210.05
225.13
216.16
189.7
153.86
114.65
75.07
36.9
3.81
-17.53
-19.19
3.48
47.75
102.91
153.83
187.08
196.61
185.45
162.95
139.41
121.27
109.34
100.63
91.73
81.46
71.35
64.04
61.12
61.91
63.78
63.43
58.79
49.83
38.66
28.42
21.92
20.54
23.73
29.57
35.62
40.14
42.58
43.55
44.09
44.73
44.82
42.38
34.63
18.99
-5.99
-40.19
-81.97
-128.73
-178.01
-228.08
-278.22
-328.36
-378.53
-428.39
-477.69
-526.88
-577.41
-631.12
-688.26
-745.53
-795.63
-828.93
-836.78
-815.13
-766.17
-696.92
-616.35
-532.2
-450.41
-375.84
-313.39
-267.22
-238.62
-223.92
-214.76
-201.6
-178.15
-144.54
-106.61
-71.66
-44.06
-22.53
-1.3
26.67
65.52
114.38
167.28
214.71
245.84
250.65
222.56
160.87
72.23
-30.37
-130.56
-213.47
-269.76
-297.27
-300.15
-285.63
-261.03
-231.77
-201.29
-171.8
-145.03
-122.48
-104.66
-90.83
-78.63
-65.33
-48.97
-29.51
-8.82
10.12
24.35
32.54
35.22
34.78
34.28
36.26
41.87
50.51
60.52
69.83
77.28
82.99
88.45
95.85
107.21
123.59
144.61
168.7
193.66
217.67
239.8
260.33
280.3
300.75
322.01
343.19
362.49
377.88
387.99
392.85
394.01
394.27
397.1
406.31
425.32
456.5
499.73
551.44
604.48
649.45
677.69
684.04
668.81
637.09
596.5
553.99
513.83
477.31
443.85
412.84
384.28
358.85
336.87
317.72
299.87
281.66
262.22
241.74
221.46
202.88
187.04
174.01
162.89
152.37
141.16
128.76
115.37
101.88
89.22
78.01
68.32
59.65
51.42
43.06
34.42
25.6
16.89
8.45
0.23
-7.94
-16.24
-24.57
-32.74
-40.41
-47.52
-54.3
-61.33
-69.27
-78.41
-88.54
-98.75
-107.96
-115.31
-120.75
-125.3
-130.58
-138.39
-149.69
-164.3
-180.69
-196.98
-211.55
-223.84
-234.66
-245.55
-258.37
-274.47
-294.86
-319.52
-347.24
-374.72
-396.65
-407.2
-402.12
-381.57
-350.44
-317.0
-289.08
-270.48
-259.32
-249.35
-233.95
-209.43
-176.95
-140.9
-106.14
-75.6
-49.58
-27.02
-6.75
11.57
27.85
41.74
52.91
60.74
63.94
61.03
51.23
35.5
16.04
-4.45
-24.88
-46.26
-70.88
-100.3
-133.54
-167.26
-196.83
-218.81
-232.15
-238.03
-238.82
-236.9
-234.76
-235.2
-241.57
-256.45
-280.02
-308.84
-336.63
-356.98
-366.2
-365.3
-359.04
-353.51
-352.88
-357.97
-366.71
-375.88
-383.16
-387.47
-388.7
-386.41
-379.51
-366.51
-346.66
-320.53
-290.15
-258.66
-228.94
-202.85
-180.73
-161.48
-143.4
-124.96
-105.51
-85.39
-65.74
-47.72
-32.11
-19.0
-7.75
2.41
12.18
21.69
30.7
38.65
45.2
50.37
54.59
58.6
62.98
68.12
73.89
79.97
86.01
91.93
98.0
104.58
112.02
120.17
128.55
136.41
143.13
148.65
153.63
159.34
167.1
177.9
191.76
207.95
225.21
242.5
259.32
276.05
293.83
313.92
337.53
365.33
397.29
432.38
468.07
500.75
526.73
543.82
552.34
555.43
557.71
563.34
573.91
587.37
598.82
602.14
592.51
567.88
529.51
481.06
427.1
371.62
317.09
264.59
214.32
166.31
120.89
78.8
40.33
4.86
-29.05
-63.45
-100.14
-140.34
-184.62
-232.59
-282.75
-332.0
-375.8
-408.83
-426.87
-428.43
-415.48
-392.65
-364.86
-335.81
-307.25
-280.23
-256.47
-238.79
-229.6
-228.95
-233.28
-236.3
-231.83
-216.42
-190.35
-156.2
-116.65
-72.91
-25.44
23.9
70.74
108.53
131.7
138.71
133.64
124.75
121.03
128.33
147.14
173.0
198.82
218.3
228.1
228.44
222.08
212.14
200.91
189.21
177.39
166.2
157.38
152.66
152.25
153.59
151.8
141.93
121.76
93.52
62.8
35.78
15.57
0.86
-12.6
-29.17
-49.79
-71.53
-89.54
-100.39
-104.37
-105.23
-107.6
-113.85
-122.83
-130.27
-131.44
-123.13
-104.99
-79.28
-49.82
-21.14
2.58
18.2
24.84
24.17
20.08
17.12
18.19
23.38
29.86
33.88
32.9
27.29
20.04
15.19
16.0
23.43
36.14
51.28
65.7
76.76
82.53
82.11
75.72
65.2
53.71
45.15
42.3
45.97
54.51
64.7
73.13
77.28
76.4
71.37
64.92
60.74
62.72
73.61
93.34
118.83
144.56
164.9
176.37
178.73
174.27
165.69
154.26
139.23
119.41
95.06
69.3
47.49
34.97
34.64
45.38
62.39
79.17
90.2
92.55
86.3
73.62
57.16
39.1
20.6
2.3
-15.5
-32.56
-48.9
-65.06
-81.91
-100.61
-121.9
-146.16
-173.23
-202.36
-231.88
-259.39
-281.96
-296.85
-302.75
-300.33
-292.28
-282.22
-273.17
-266.66
-262.32
-258.62
-253.67
-246.04
-234.6
-218.41
-196.78
-169.77
-139.43
-110.03
-87.43
-76.62
-79.72
-95.16
-118.67
-145.5
-171.91
-195.44
-213.61
-223.08
-219.97
-201.75
-169.25
-127.81
-86.45
-55.31
-42.92
-53.76
-87.2
-137.65
-195.47
-249.23
-288.14
-305.12
-298.29
-271.03
-229.59
-180.13
-126.87
-72.18
-18.83
28.1
61.18
73.63
63.29
35.32
1.33
-25.18
-34.36
-23.93
1.04
32.33
63.85
94.85
128.61
168.27
211.97
251.58
275.22
272.59
239.5
179.23
100.76
14.93
-68.4
-142.04
-200.96
-241.92
-263.36
-266.15
-254.07
-233.17
-210.23
-190.63
-177.26
-170.46
-168.77
-169.84
-170.94
-169.59
-163.63
-151.91
-134.56
-113.01
-89.27
-64.93
-40.51
-15.1
12.91
45.08
81.85
122.42
165.04
207.68
249.02
288.72
327.6
367.21
409.72
457.44
512.04
573.4
638.3
700.13
749.89
779.01
782.18
759.46
716.16
660.57
601.04
543.36
489.99
440.68
394.09
349.03
304.82
261.28
218.18
175.51
133.26
91.78
51.29
11.67
-27.64
-68.03
-111.5
-160.84
-218.7
-286.6
-363.18
-443.21
-518.05
-577.67
-614.04
-623.66
-608.71
-575.48
-531.82
-484.36
-437.04
-391.61
-348.55
-308.18
-270.59
-235.22
-199.9
-160.99
-114.86
-60.02
0.66
59.71
106.45
130.95
127.87
98.88
52.27
-0.67
-49.96
-90.46
-122.47
-150.44
-179.97
-215.15
-256.92
-302.45
-345.89
-379.5
-395.95
-390.4
-362.36
-315.91
-258.0
-196.29
-136.74
-83.0
-36.71
1.09
29.38
47.33
55.16
54.72
49.11
41.63
34.34
27.61
20.3
10.54
-2.84
-19.73
-38.61
-57.3
-73.64
-86.48
-95.85
-102.82
-108.83
-114.92
-121.41
-127.69
-132.79
-135.67
-135.78
-133.25
-128.78
-123.37
-117.88
-112.87
-108.38
-104.26
-100.21
-96.0
-91.68
-87.39
-83.45
-80.0
-77.14
-74.69
-72.4
-69.9
-66.82
-62.79
-57.48
-50.63
-42.06
-31.65
-19.44
-5.61
9.45
25.28
41.23
56.73
71.19
84.14
95.28
104.39
111.5
116.74
120.35
122.55
123.54
123.43
122.18
119.66
115.53
109.52
101.27
90.61
77.52
62.2
45.16
27.1
8.91
-8.47
-24.09
-37.16
-47.08
-53.53
-56.44
-56.01
-52.63
-46.79
-39.05
-29.94
-19.94
-9.48
1.13
11.62
21.77
31.38
40.32
48.46
55.69
61.96
67.26
71.65
75.18
78.8
83.22
88.51
94.01
98.64
101.59
102.53
101.64
99.35
97.12
96.18
97.08
99.59
103.02
106.8
110.77
115.11
120.12
128.18
140.96
158.45
178.65
198.61
215.91
229.43
239.24
246.13
257.1
277.61
308.85
346.88
385.11
418.28
444.34
464.01
479.38
504.94
551.57
621.15
704.79
788.23
859.9
914.97
954.45
982.41
1022.96
1094.57
1201.21
1329.71
1458.02
1567.93
1651.39
1709.08
1746.44
1796.07
1884.71
2021.77
2194.19
2375.33
2539.41
2669.57
2758.2
2643.66
2234.65
1541.3
687.34
-161.11
-883.1
-1433.46
-1821.8
-2080.89
-2245.52
-2318.68
-2301.77
-2206.86
-2063.0
-1906.61
-1766.28
-1655.47
-1575.0
-1519.27
-1461.48
-1380.59
-1270.27
-1142.26
-1017.2
-911.92
-833.06
-778.75
-742.81
-706.79
-656.22
-586.33
-505.18
-426.7
-362.38
-317.44
-292.38
-280.93
-272.59
-259.25
-237.64
-212.83
-192.27
-181.17
-180.39
-187.92
-200.8
-214.8
-226.26
-232.97
-238.97
-248.57
-263.83
-283.73
-305.86
-328.2
-350.08
-370.94
-389.96
-412.08
-441.27
-478.89
-523.28
-571.49
-621.18
-671.66
-723.14
-741.17
-705.85
-616.5
-490.73
-350.26
-209.64
-76.28
44.47
147.11
226.8
276.37
294.62
287.45
265.36
238.59
213.42
192.21
175.79
165.09
157.09
149.38
140.93
132.19
124.05
116.75
110.39
105.98
104.91
105.77
107.03
107.92
108.75
110.56
114.95
120.57
127.91
138.2
151.53
167.83
186.73
207.16
226.85
242.45
250.49
249.2
238.83
221.08
198.78
174.89
151.63
130.1
110.44
92.37
76.0
61.36
48.27
36.3
24.94
13.78
2.78
-7.78
-17.41
-25.2
-30.32
-32.19
-30.77
-26.76
-21.64
-17.26
-15.14
-15.88
-18.78
-22.41
-25.31
-26.77
-27.08
-27.35
-28.93
-32.86
-39.44
-48.22
-58.16
-68.02
-76.67
-83.25
-87.23
-88.35
-86.55
-81.92
-74.76
-65.52
-54.83
-43.43
-32.05
-21.31
-11.71
-3.58
2.88
7.63
10.93
13.26
15.26
17.53
20.34
23.58
26.89
29.92
32.51
34.76
36.86
38.91
40.83
42.35
43.16
43.11
42.27
40.88
39.17
37.27
35.18
32.86
30.36
27.85
25.51
23.48
21.77
20.33
19.17
18.43
18.38
19.31
21.36
24.41
28.06
31.69
34.67
36.51
36.91
35.85
33.47
29.98
25.61
20.56
14.98
8.97
2.52
-4.57
-12.56
-21.73
-32.08
-43.21
-54.47
-65.26
-75.32
-84.89
-94.54
-104.75
-115.69
-127.04
-138.03
-147.54
-154.16
-156.33
-152.65
-142.42
-125.99
-104.9
-81.41
-57.72
-35.33
-14.82
3.75
20.25
34.13
44.65
51.36
54.64
55.68
55.98
56.64
57.96
59.36
59.9
58.83
55.89
51.42
46.14
40.81
36.02
32.14
29.36
27.75
27.39
28.31
30.54
34.03
38.55
43.68
48.83
53.24
56.2
57.19
56.04
52.91
48.3
42.83
37.12
31.72
27.06
23.44
20.87
19.12
17.62
15.7
12.8
8.77
3.95
-0.87
-4.8
-7.21
-7.93
-7.34
-6.08
-4.79
-3.8
-3.07
-2.28
-1.09
0.62
2.63
4.49
5.76
6.22
5.97
5.34
4.65
4.0
3.21
1.92
-0.24
-3.45
-7.69
-12.75
-18.26
-23.77
-28.8
-32.93
-35.87
-37.66
-38.61
-39.11
-39.42
-39.41
-38.58
-36.36
-32.48
-27.27
-21.63
-16.62
-13.0
-10.85
-9.52
-7.97
-5.2
-0.66
5.62
13.14
21.22
29.18
36.52
42.84
47.83
51.27
53.07
53.44
52.86
51.97
51.42
51.51
52.16
52.98
53.44
53.08
51.67
49.12
45.42
40.57
34.59
27.65
20.11
12.55
5.57
-0.28
-4.77
-7.96
-10.14
-11.7
-12.9
-13.75
-13.99
-13.24
-11.18
-7.78
-3.3
1.75
6.81
11.5
15.68
19.38
22.67
25.54
27.85
29.38
29.95
29.47
28.0
25.74
22.98
20.04
17.27
14.92
13.14
11.96
11.3
10.99
10.83
10.64
10.25
9.52
8.37
6.75
4.73
2.37
-0.2
-2.93
-5.79
-8.79
-11.97
-15.34
-18.93
-22.69
-26.52
-30.19
-33.37
-35.62
-36.54
-35.86
-33.54
-29.8
-25.06
-19.87
-14.69
-9.93
-5.83
-2.5
0.03
1.79
2.9
3.51
3.79
3.93
4.05
4.24
4.52
4.84
5.15
5.33
5.31
4.99
4.37
3.51
2.51
1.5
0.52
-0.44
-1.5
-2.77
-4.3
-6.03
-7.84
-9.55
-11.06
-12.4
-13.71
-15.19
-17.02
-19.24
-21.74
-24.29
-26.55
-28.14
-28.72
-28.06
-26.09
-22.99
-19.07
-14.81
-10.65
-6.95
-3.93
-1.62
0.04
1.15
1.81
2.07
1.95
1.51
0.84
0.12
-0.47
-0.77
-0.69
-0.3
0.29
0.91
1.42
1.67
1.59
1.1
0.17
-1.13
-2.7
-4.37
-6.08
-7.83
-9.68
-11.69
-13.86
-16.12
-18.39
-20.57
-22.58
-24.32
-25.57
-26.05
-25.43
-23.54
-20.4
-16.33
-11.8
-7.3
-3.21
0.28
3.12
5.37
7.09
8.3
8.99
9.14
8.84
8.25
7.6
7.12
6.92
6.96
7.14
7.27
7.19
6.89
6.41
5.9
5.45
5.06
4.63
4.01
3.11
1.91
0.55
-0.81
-1.99
-2.98
-3.91
-5.04
-6.59
-8.66
-11.17
-13.85
-16.41
-18.51
-19.9
-20.35
-19.72
-17.94
-15.07
-11.33
-7.11
-2.92
0.83
3.83
6.07
7.72
9.01
10.08
10.91
11.32
11.13
10.31
9.06
7.72
6.7
6.19
6.19
6.45
6.67
6.64
6.31
5.7
4.85
3.73
2.28
0.46
-1.65
-3.82
-5.71
-7.06
-7.78
-8.0
-8.03
-8.23
-8.78
-9.69
-10.82
-11.97
-13.07
-14.19
-15.51
-17.22
-19.36
-21.79
-24.16
-26.06
-27.09
-26.98
-25.66
-23.24
-19.98
-16.16
-12.04
-7.84
-3.74
0.09
3.44
6.13
8.04
9.15
9.62
9.72
9.72
9.85
10.18
10.64
11.11
11.51
11.81
12.1
12.5
13.08
13.77
14.44
14.86
14.83
14.29
13.24
11.79
10.05
8.11
6.03
3.87
1.75
-0.2
-1.89
-3.27
-4.42
-5.46
-6.52
-7.67
-8.89
-10.17
-11.53
-13.05
-14.79
-16.65
-18.35
-19.42
-19.37
-17.93
-15.14
-11.39
-7.24
-3.27
0.18
3.04
5.39
7.37
9.06
10.42
11.39
11.96
12.21
12.25
12.2
12.09
11.94
11.69
11.37
11.04
10.81
10.73
10.79
10.84
10.69
10.18
9.24
7.97
6.53
5.14
3.96
3.04
2.27
1.5
0.54
-0.7
-2.24
-4.03
-5.96
-7.94
-9.89
-11.8
-13.62
-15.33
-16.85
-17.98
-18.53
-18.33
-17.26
-15.36
-12.78
-9.75
-6.54
-3.4
-0.5
2.05
4.17
5.79
6.86
7.39
7.45
7.2
6.87
6.65
6.69
7.02
7.57
8.24
8.87
9.37
9.65
9.67
9.41
8.94
8.33
7.68
7.04
6.41
5.76
5.08
4.39
3.78
3.29
2.86
2.3
1.41
0.01
-1.86
-3.96
-5.99
-7.68
-8.98
-10.01
-11.04
-12.29
-13.86
-15.65
-17.51
-19.26
-20.74
-21.79
-22.19
-21.7
-20.11
-17.39
-13.76
-9.61
-5.41
-1.5
1.94
4.91
7.44
9.51
10.99
11.74
11.78
11.26
10.54
9.92
9.59
9.56
9.65
9.69
9.59
9.39
9.17
9.0
8.88
8.75
8.58
8.43
8.36
8.42
8.54
8.54
8.24
7.56
6.57
5.45
4.38
3.45
2.65
1.86
0.96
-0.12
-1.35
-2.66
-3.99
-5.28
-6.53
-7.82
-9.25
-10.89
-12.78
-14.8
-16.69
-18.08
-18.62
-18.06
-16.36
-13.69
-10.38
-6.81
-3.35
-0.3
2.18
4.08
5.52
6.7
7.84
9.02
10.19
11.19
11.84
12.06
11.92
11.61
11.33
11.21
11.22
11.23
11.04
10.56
9.76
8.76
7.71
6.73
5.88
5.08
4.21
3.16
1.95
0.66
-0.56
-1.6
-2.45
-3.23
-4.08
-5.06
-6.14
-7.19
-8.12
-8.96
-9.89
-11.17
-13.0
-15.43
-18.2
-20.92
-23.08
-24.3
-24.36
-23.17
-20.82
-17.49
-13.44
-8.98
-4.46
-0.19
3.57
6.68
9.12
10.93
12.16
12.91
13.25
13.29
13.19
13.06
12.93
