6.66
6.49
6.31
6.25
6.39
6.77
7.3
7.85
8.33
8.66
8.86
8.96
9.01
9.06
9.12
9.14
9.04
8.72
8.13
7.32
6.4
5.49
4.67
3.91
3.12
2.18
1.07
-0.14
-1.33
-2.4
-3.32
-4.18
-5.06
-6.05
-7.18
-8.42
-9.67
-10.82
-11.67
-12.03
-11.67
-10.46
-8.41
-5.71
-2.69
0.28
2.91
5.03
6.63
7.85
8.82
9.63
10.31
10.85
11.25
11.53
11.72
11.84
11.85
11.68
11.29
10.7
10.02
9.41
8.98
8.77
8.7
8.66
8.56
8.32
7.93
7.36
6.58
5.6
4.45
3.28
2.21
1.33
0.65
0.08
-0.52
-1.22
-1.99
-2.74
-3.33
-3.73
-4.03
-4.42
-5.09
-6.16
-7.63
-9.37
-11.24
-13.03
-14.59
-15.74
-16.34
-16.25
-15.39
-13.77
-11.5
-8.78
-5.8
-2.78
0.13
2.81
5.16
7.1
8.59
9.63
10.25
10.55
10.55
10.3
9.8
9.07
8.19
7.31
6.58
6.06
5.7
5.36
4.89
4.32
3.74
3.32
3.13
3.11
3.01
2.6
1.78
0.62
-0.67
-1.92
-3.04
-4.12
-5.25
-6.55
-7.97
-9.42
-10.77
-11.95
-12.98
-13.91
-14.78
-15.64
-16.5
-17.4
-18.33
-19.27
-20.07
-20.53
-20.41
-19.57
-18.03
-15.92
-13.47
-10.86
-8.17
-5.4
-2.58
0.21
2.77
4.86
6.27
6.94
6.95
6.49
5.83
5.2
4.77
4.64
4.79
5.2
5.78
6.46
7.18
7.88
8.47
8.86
8.98
8.81
8.41
7.85
7.2
6.46
5.58
4.49
3.23
1.89
0.65
-0.32
-0.94
-1.27
-1.48
-1.78
-2.36
-3.31
-4.62
-6.19
-7.89
-9.5
-10.82
-11.56
-11.45
-10.24
-7.89
-4.6
-0.85
2.81
5.87
8.06
9.38
9.99
10.1
9.83
9.23
8.38
7.39
6.43
5.68
5.23
5.03
4.99
4.98
4.95
4.92
4.9
4.85
4.74
4.46
4.0
3.4
2.76
2.15
1.61
1.09
0.51
-0.19
-0.99
-1.85
-2.69
-3.48
-4.28
-5.19
-6.33
-7.76
-9.44
-11.3
-13.21
-14.99
-16.42
-17.25
-17.24
-16.22
-14.21
-11.41
-8.15
-4.82
-1.71
1.0
3.27
5.15
6.65
7.8
8.61
9.06
9.17
8.99
8.58
8.06
7.6
7.29
7.22
7.34
7.5
7.53
7.29
6.74
5.96
5.13
4.38
3.78
3.26
2.7
1.96
0.99
-0.24
-1.69
-3.32
-5.08
-6.89
-8.63
-10.2
-11.53
-12.67
-13.78
-15.07
-16.66
-18.52
-20.48
-22.28
-23.68
-24.5
-24.54
-23.66
-21.73
-18.77
-15.0
-10.88
-6.94
-3.66
-1.23
0.42
1.57
2.51
3.43
4.37
5.26
6.03
6.68
7.29
7.91
8.57
9.21
9.73
10.03
10.11
10.02
9.85
9.67
9.5
9.29
9.01
8.61
8.14
7.68
7.38
7.29
7.37
7.5
7.42
6.96
6.01
4.58
2.8
0.85
-1.11
-2.95
-4.59
-5.95
-6.99
-7.7
-8.13
-8.41
-8.67
-9.0
-9.37
-9.54
-9.21
-8.09
-6.08
-3.36
-0.29
2.65
5.16
7.09
8.49
9.46
10.12
10.49
10.56
10.37
9.95
9.34
8.51
7.49
6.31
5.07
3.97
3.17
2.71
2.5
2.38
2.19
1.85
1.33
0.62
-0.31
-1.51
-3.01
-4.85
-7.06
-9.64
-12.57
-15.72
-18.81
-21.49
-23.49
-24.69
-25.19
-25.25
-25.01
-24.42
-23.22
-21.14
-18.0
-13.85
-8.91
-3.41
2.47
8.6
14.86
21.0
26.71
31.7
35.76
38.84
40.98
42.18
42.42
41.7
40.13
37.95
35.49
32.97
30.47
27.87
25.03
21.9
18.6
15.33
12.34
9.76
7.6
5.79
4.28
3.06
2.16
1.58
1.26
1.08
0.82
0.24
-0.82
-2.38
-4.28
-6.14
-7.5
-8.05
-7.69
-6.64
-5.3
-4.11
-3.34
-3.03
-2.99
-2.99
-2.83
-2.44
-1.86
-1.16
-0.33
0.68
1.9
3.23
4.42
5.13
5.16
4.49
3.36
2.12
1.05
0.22
-0.46
-1.07
-1.53
-1.6
-1.04
0.15
1.66
2.87
3.21
2.36
0.42
-2.16
-4.83
-7.14
-8.91
-10.13
-10.95
-11.49
-11.87
-12.14
-12.36
-12.55
-12.73
-12.88
-13.03
-13.21
-13.48
-13.87
-14.33
-14.79
-15.15
-15.42
-15.66
-15.96
-16.31
-16.5
-16.17
-14.95
-12.65
-9.39
-5.65
-2.09
0.68
2.22
2.45
1.52
-0.29
-2.69
-5.46
-8.37
-11.13
-13.35
-14.71
-15.04
-14.47
-13.35
-12.06
-10.75
-9.3
-7.38
-4.63
-0.9
3.69
8.83
14.19
19.48
24.5
29.09
33.02
36.05
38.0
38.86
38.78
38.08
37.04
35.83
34.39
32.47
29.8
26.17
21.64
16.55
11.47
7.02
3.69
1.75
1.16
1.66
2.87
4.47
6.21
7.93
9.53
10.9
11.93
12.46
12.41
11.78
10.69
9.32
7.85
6.44
5.16
4.05
3.14
2.55
2.4
2.74
3.53
4.52
5.44
6.02
6.12
5.79
5.18
4.45
3.65
2.77
1.78
0.7
-0.45
-1.62
-2.88
-4.35
-6.19
-8.48
-11.08
-13.69
-15.91
-17.37
-17.88
-17.47
-16.38
-14.95
-13.52
-12.37
-11.69
-11.57
-12.08
-13.23
-15.04
-17.42
-20.16
-22.91
-25.19
-26.62
-26.92
-26.1
-24.37
-22.05
-19.45
-16.73
-13.97
-11.1
-8.07
-4.87
-1.58
1.67
4.66
7.18
9.03
10.12
10.54
10.5
10.26
9.95
9.52
8.77
7.47
5.51
3.05
0.41
-1.98
-3.75
-4.69
-4.79
-4.19
-3.08
-1.68
-0.15
1.41
2.99
4.57
6.07
7.38
8.34
8.9
9.1
9.13
9.19
9.4
9.74
10.09
10.28
10.19
9.82
9.26
8.6
7.91
7.23
6.61
6.12
5.81
5.65
5.56
5.32
4.78
3.83
2.49
0.86
-0.99
-3.0
-5.22
-7.68
-10.36
-13.16
-15.88
-18.3
-20.19
-21.3
-21.33
-19.95
-16.85
-11.93
-5.39
2.25
10.28
18.05
25.11
31.3
36.64
41.06
44.18
45.44
44.24
40.35
34.09
26.33
18.19
10.71
4.56
-0.06
-3.28
-5.45
-6.94
-8.05
-9.03
-10.0
-11.01
-12.02
-13.02
-14.12
-15.52
-17.44
-19.91
-22.78
-25.72
-28.45
-30.87
-33.1
-35.36
-37.76
-40.24
-42.56
-44.49
-45.94
-46.92
-47.48
-47.52
-46.8
-44.99
-41.91
-37.63
-32.53
-27.09
-21.73
-16.67
-11.9
-7.34
-2.91
1.31
5.18
8.48
11.07
12.91
14.07
14.7
14.97
15.04
14.98
14.81
14.51
14.08
13.57
13.01
12.42
11.76
10.92
9.81
8.45
6.96
5.52
4.27
3.24
2.33
1.33
0.02
-1.74
-3.96
-6.43
-8.87
-10.9
-12.18
-12.54
-11.95
-10.57
-8.62
-6.33
-3.86
-1.38
0.99
3.11
4.82
6.01
6.64
6.7
6.18
5.12
3.53
1.5
-0.8
-3.12
-5.18
-6.77
-7.82
-8.35
-8.54
-8.57
-8.59
-8.69
-8.9
-9.18
-9.5
-9.81
-10.05
-10.19
-10.2
-10.15
-10.15
-10.34
-10.85
-11.72
-12.82
-13.91
-14.66
-14.73
-13.83
-11.87
-8.88
-5.1
-0.89
3.37
7.39
11.04
14.48
17.97
21.77
25.9
30.06
33.71
36.25
37.34
37.02
35.7
33.97
32.31
30.9
29.58
28.03
25.98
23.44
20.64
17.93
15.57
13.65
12.02
10.46
8.77
6.88
4.85
2.76
0.71
-1.31
-3.32
-5.37
-7.52
-9.78
-12.09
-14.32
-16.17
-17.33
-17.53
-16.7
-14.99
-12.7
-10.24
-8.05
-6.65
-6.62
-8.52
-12.64
-18.84
-26.41
-34.31
-41.48
-47.19
-51.1
-53.22
-53.65
-52.42
-49.53
-44.99
-38.86
-31.2
-22.0
-11.21
1.09
14.46
28.02
40.54
50.74
57.69
61.0
60.89
58.04
53.37
47.85
42.27
37.1
32.48
28.28
24.22
20.07
15.79
11.51
7.59
4.54
2.87
3.0
5.06
8.81
13.59
18.53
22.9
26.33
28.9
30.97
32.83
34.43
35.43
35.21
33.19
29.04
22.81
14.93
6.12
-2.92
-11.61
-19.62
-26.87
-33.41
-39.39
-44.9
-49.91
-54.1
-56.83
-57.22
-54.4
-47.78
-37.41
-24.04
-8.97
6.3
20.5
32.81
42.9
50.61
55.85
58.55
58.77
56.89
53.65
49.98
46.71
44.34
42.76
41.49
39.91
37.55
34.3
30.3
25.82
21.12
16.35
11.64
7.03
2.55
-1.98
-6.89
-12.58
-19.37
-27.34
-36.2
-45.43
-54.35
-62.31
-68.84
-73.71
-76.99
-79.06
-80.4
-81.41
-82.14
-82.32
-81.52
-79.55
-76.56
-73.1
-69.83
-67.18
-65.16
-63.39
-61.2
-57.92
-52.91
-45.47
-35.01
-21.1
-3.82
16.04
36.97
57.11
74.84
89.33
100.74
109.98
118.04
125.34
131.33
134.75
134.18
128.81
118.81
105.3
89.82
73.75
57.88
42.36
27.03
11.76
-3.26
-17.5
-30.32
-41.19
-49.87
-56.49
-61.51
-65.55
-69.22
-72.96
-76.87
-80.7
-83.92
-85.92
-86.3
-85.06
-82.63
-79.75
-77.19
-75.41
-74.35
-73.31
-71.15
-66.46
-58.02
-45.22
-28.38
-8.94
10.97
29.15
44.21
55.99
65.54
74.41
83.81
93.97
104.05
112.68
118.82
122.33
124.08
125.52
128.03
132.33
138.25
144.86
150.85
154.87
155.76
152.55
144.43
130.67
110.64
83.93
50.31
9.54
-38.78
-94.64
-156.6
-220.67
-279.94
-325.62
-349.28
-345.64
-314.49
-260.89
-193.25
-120.62
-50.24
13.42
68.17
112.87
146.48
167.94
176.94
174.79
164.58
150.44
136.21
124.14
114.33
105.12
94.38
80.81
64.57
47.07
30.12
15.03
2.18
-8.92
-18.98
-28.36
-36.71
-43.22
-47.01
-47.65
-45.4
-41.13
-36.05
-31.21
-27.19
-23.92
-20.86
-17.31
-12.82
-7.35
-1.36
4.39
9.13
12.32
13.76
13.62
12.26
10.13
7.68
5.32
3.46
2.48
2.76
4.44
7.42
11.17
14.86
17.49
18.23
16.57
12.38
5.81
-2.82
-13.07
-24.31
-35.74
-46.51
-55.92
-63.73
-70.11
-75.47
-80.06
-83.68
-85.78
-85.71
-83.22
-78.65
-72.82
-66.62
-60.68
-55.11
-49.64
-43.91
-37.72
-31.19
-24.69
-18.64
-13.35
-8.94
-5.4
-2.64
-0.59
0.82
1.65
2.02
2.11
2.12
2.16
2.22
2.21
2.06
1.8
1.58
1.54
1.71
2.01
2.21
2.11
1.66
0.89
-0.06
-1.09
-2.19
-3.33
-4.47
-5.45
-6.09
-6.2
-5.76
-4.87
-3.79
-2.81
-2.19
-2.11
-2.64
-3.69
-5.04
-6.37
-7.34
-7.66
-7.21
-6.05
-4.37
-2.37
-0.18
2.14
4.55
6.98
9.21
10.91
11.74
11.48
10.18
8.13
5.81
3.67
2.09
1.16
0.76
0.61
0.46
0.2
-0.11
-0.3
-0.25
0.03
0.34
0.41
0.06
-0.75
-1.91
-3.18
-4.34
-5.25
-5.81
-6.03
-5.96
-5.7
-5.32
-4.85
-4.19
-3.24
-1.89
-0.23
1.5
2.96
3.81
3.89
3.27
2.16
0.83
-0.48
-1.63
-2.58
-3.31
-3.86
-4.21
-4.37
-4.31
-4.06
-3.62
-3.01
-2.24
-1.33
-0.33
0.59
1.19
1.12
0.18
-1.67
-4.16
-6.81
-9.07
-10.54
-11.06
-10.72
-9.75
-8.43
-6.97
-5.5
-4.02
-2.4
-0.46
2.03
5.16
8.83
12.64
16.0
18.23
18.75
17.28
13.81
8.69
2.51
-4.02
-10.22
-15.63
-20.12
-23.93
-27.57
-31.64
-36.6
-42.65
-49.66
-57.25
-64.83
-71.62
-76.81
-79.54
-79.12
-75.2
-67.78
-57.22
-44.08
-28.98
-12.54
4.57
21.62
37.9
52.71
65.62
76.45
85.3
92.38
97.84
101.76
104.16
105.08
104.63
102.96
100.25
96.76
92.72
88.37
83.87
79.27
74.59
69.82
64.99
60.28
55.98
52.41
49.76
48.05
47.06
46.33
45.22
42.97
38.9
32.52
23.83
13.3
1.85
-9.49
-19.88
-28.88
-36.48
-42.98
-48.77
-54.13
-59.12
-63.57
-67.23
-69.72
-70.69
-69.84
-66.97
-62.1
-55.42
-47.26
-38.02
-28.16
-18.16
-8.41
0.81
9.35
17.21
24.54
31.52
38.33
45.0
51.37
57.14
61.81
64.93
66.12
65.23
62.33
57.69
51.64
44.54
36.69
28.27
19.4
10.19
0.82
-8.45
-17.25
-25.18
-31.9
-37.27
-41.38
-44.44
-46.64
-48.11
-48.85
-48.87
-48.25
-47.23
-46.03
-44.79
-43.42
-41.66
-39.18
-35.77
-31.48
-26.57
-21.4
-16.33
-11.6
-7.34
-3.6
-0.41
2.23
4.3
5.81
6.76
7.24
7.33
7.17
6.86
6.49
6.13
5.82
5.58
5.43
5.37
5.37
5.3
5.01
4.37
3.29
1.84
0.16
-1.55
-3.15
-4.55
-5.78
-6.92
-8.11
-9.51
-11.27
-13.46
-16.05
-18.8
-21.45
-23.81
-25.88
-27.89
-30.27
-33.35
-37.33
-42.17
-47.74
-53.96
-60.89
-68.63
-77.21
-86.37
-95.59
-104.21
-111.59
-117.24
-120.89
-122.41
-121.74
-118.76
-113.28
-105.09
-94.09
-80.33
-64.11
-46.02
-26.9
-7.79
10.23
26.23
39.65
50.41
58.89
65.76
71.71
77.2
82.36
87.06
91.08
94.3
96.7
98.38
99.3
99.34
98.28
95.97
92.41
87.74
82.24
76.21
69.93
63.68
57.77
52.54
48.34
45.46
44.07
44.21
45.71
48.15
50.96
53.45
55.06
55.48
54.74
53.13
51.08
48.93
46.84
44.81
42.79
40.75
38.71
36.69
34.66
32.52
30.16
27.49
24.53
21.35
18.09
14.82
11.49
7.94
3.95
-0.57
-5.46
-10.31
-14.57
-17.78
-19.81
-20.83
-21.27
-21.54
-21.89
-22.38
-22.95
-23.61
-24.41
-25.43
-26.66
-27.96
-29.09
-29.9
-30.41
-30.79
-31.28
-32.02
-33.02
-34.15
-35.23
-36.1
-36.64
-36.74
-36.27
-35.09
-33.13
-30.43
-27.21
-23.75
-20.36
-17.21
-14.36
-11.74
-9.27
-6.93
-4.75
-2.81
-1.18
0.12
1.12
1.91
2.51
2.96
3.28
3.49
3.74
4.17
4.89
5.92
7.13
8.27
9.11
9.51
9.48
9.14
8.65
8.07
7.34
6.32
4.88
3.01
0.81
-1.52
-3.77
-5.81
-7.64
-9.29
-10.77
-11.96
-12.65
-12.6
-11.68
-9.95
-7.67
-5.21
-2.89
-0.89
0.86
2.57
4.49
6.74
9.2
11.6
13.56
14.9
15.7
16.28
17.07
18.38
20.24
22.43
24.6
26.47
27.97
29.23
30.39
31.52
32.51
33.05
32.87
31.81
29.86
27.2
24.01
20.44
16.56
12.42
8.08
3.67
-0.58
-4.43
-7.66
-10.19
-12.04
-13.3
-14.14
-14.68
-15.05
-15.32
-15.57
-15.74
-15.73
-15.4
-14.68
-13.63
-12.51
-11.64
-11.24
-11.39
-11.89
-12.4
-12.61
-12.31
-11.52
-10.46
-9.37
-8.46
-7.84
-7.49
-7.36
-7.47
-7.88
-8.73
-10.09
-11.93
-14.04
-16.08
-17.75
-18.82
-19.25
-19.16
-18.79
-18.36
-18.1
-18.13
-18.46
-19.0
-19.58
-20.06
-20.3
-20.27
-19.98
-19.41
-18.53
-17.22
-15.39
-13.03
-10.26
-7.25
-4.22
-1.34
1.33
3.75
5.89
7.7
9.1
10.11
10.81
11.38
12.0
12.7
13.38
13.85
13.9
13.43
12.53
11.39
10.24
9.25
8.49
8.0
7.78
7.8
7.94
8.03
7.83
7.18
6.05
4.52
2.8
1.06
-0.61
-2.23
-3.87
-5.6
-7.39
-9.14
-10.7
-11.92
-12.73
-13.09
-13.01
-12.52
-11.64
-10.44
-8.92
-7.09
-4.96
-2.55
0.1
2.87
5.61
8.16
10.38
12.18
13.55
14.52
15.12
15.42
15.49
15.33
14.97
14.43
13.72
12.95
12.21
11.61
11.2
10.89
10.47
9.77
8.66
7.11
5.23
3.18
1.1
-0.91
-2.81
-4.53
-6.02
-7.19
-8.04
-8.57
-8.88
-9.05
-9.19
-9.42
-9.9
-10.8
-12.34
-14.62
-17.6
-21.03
-24.51
-27.52
-29.61
-30.49
-30.09
-28.53
-26.07
-23.05
-19.78
-16.56
-13.55
-10.82
-8.27
-5.71
-2.92
0.25
3.83
7.68
11.55
15.18
18.37
21.0
23.06
24.54
25.46
25.86
25.81
25.42
24.79
24.02
23.12
22.1
20.95
19.71
18.45
17.2
15.96
14.66
13.16
11.35
9.17
6.64
3.88
1.05
-1.7
-4.25
-6.56
-8.67
-10.65
-12.61
-14.65
-16.76
-18.85
-20.7
-22.05
-22.64
-22.28
-20.92
-18.65
-15.68
-12.3
-8.79
-5.44
-2.44
0.1
2.15
3.77
5.04
6.07
6.94
7.66
8.23
8.65
8.92
9.06
9.07
8.89
8.5
7.89
7.09
6.21
5.37
4.61
3.96
3.33
2.63
1.82
0.9
-0.06
-1.01
-1.95
-2.92
-3.96
-5.07
-6.24
-7.44
-8.67
-9.95
-11.35
-12.87
-14.42
-15.87
-16.99
-17.6
-17.58
-16.91
-15.59
-13.72
-11.39
-8.66
-5.66
-2.53
0.57
3.49
6.08
8.27
9.97
11.17
11.87
12.15
12.13
11.98
11.81
11.71
11.69
11.81
12.06
12.51
13.12
13.78
14.26
14.32
13.74
12.46
10.58
8.32
5.94
3.66
1.66
0.03
-1.22
-2.16
-2.94
-3.71
-4.6
-5.73
-7.18
-9.0
-11.22
-13.79
-16.54
-19.17
-21.31
-22.61
-22.87
-22.08
-20.39
-18.04
-15.25
-12.22
-9.11
-6.07
-3.27
-0.81
1.3
3.12
4.77
6.35
7.87
9.28
10.45
11.3
11.79
12.0
12.03
12.0
12.02
12.09
12.18
12.23
12.2
12.08
11.88
11.63
11.33
10.98
10.52
9.88
9.09
8.16
7.15
6.07
4.86
3.42
1.68
-0.36
-2.54
-4.61
-6.35
-7.66
-8.68
-9.67
-10.95
-12.67
-14.8
-17.14
-19.4
-21.32
-22.67
-23.27
-22.93
-21.48
-18.85
-15.17
-10.78
-6.14
-1.78
1.99
5.02
7.33
9.05
10.3
11.16
11.64
11.8
11.75
11.67
11.74
12.05
12.56
13.1
13.46
13.48
13.1
12.43
11.61
10.79
9.98
9.13
8.14
6.97
5.67
4.37
3.17
2.13
1.23
0.37
-0.58
-1.68
-2.93
-4.27
-5.65
-7.05
-8.51
-10.03
-11.65
-13.31
-14.97
-16.54
-17.88
-18.82
-19.11
-18.53
-16.95
-14.39
-11.05
-7.25
-3.36
0.34
3.67
6.57
8.99
10.92
12.33
13.17
13.45
13.26
12.79
12.28
11.93
11.85
12.06
12.4
12.76
13.04
13.27
13.55
13.95
14.43
14.8
14.77
14.15
12.88
11.11
9.13
7.2
5.5
4.09
2.91
1.84
0.76
-0.47
-2.05
-4.16
-6.94
-10.37
-14.28
-18.41
-22.48
-26.3
-29.69
-32.53
-34.62
-35.77
-35.79
-34.58
-32.2
-28.84
-24.76
-20.2
-15.39
-10.54
-5.81
-1.4
2.53
5.9
8.67
10.9
12.72
14.27
15.67
16.99
18.22
19.31
20.23
20.96
21.54
22.03
22.44
22.79
23.07
23.19
23.07
22.6
21.65
20.17
18.23
16.02
13.8
11.86
10.27
8.92
7.5
5.67
3.26
0.33
-2.78
-5.67
-8.04
-9.89
-11.36
-12.82
-14.54
-16.66
-19.08
-21.58
-23.8
-25.43
-26.2
-25.93
-24.59
-22.27
-19.15
-15.5
-11.63
-7.8
-4.26
-1.15
1.44
3.49
5.0
5.97
6.47
6.58
6.54
6.62
7.15
8.34
10.24
12.62
15.12
17.25
18.67
19.23
19.01
18.21
17.11
15.87
14.57
13.21
11.72
10.06
8.26
6.36
4.49
2.78
1.3
0.02
-1.22
-2.75
-5.05
-8.52
-13.43
-19.64
-26.62
-33.53
-39.37
-43.26
-44.62
-43.3
-39.48
-33.59
-26.17
-17.85
-9.32
-1.28
5.59
10.81
14.18
15.83
16.19
15.82
15.25
14.89
15.01
15.67
16.84
18.34
19.88
21.14
21.81
21.74
21.0
19.81
18.52
17.42
16.65
16.15
15.73
15.1
14.09
12.65
10.87
8.92
6.92
4.89
2.8
0.57
-1.75
-4.02
-6.04
-7.63
-8.75
-9.53
-10.22
-11.12
-12.42
-14.21
-16.42
-18.98
-21.76
-24.62
-27.32
-29.5
-30.76
-30.74
-29.33
-26.67
-23.22
-19.48
-15.89
-12.7
-9.92
-7.46
-5.19
-3.09
-1.19
0.46
1.79
2.82
3.57
4.19
4.82
5.6
6.6
7.78
8.97
9.93
10.39
10.21
9.37
7.98
6.25
4.47
2.98
2.11
2.19
3.38
5.6
8.49
11.46
13.91
15.46
16.04
15.81
15.01
13.76
12.02
9.7
6.8
3.55
0.32
-2.56
-4.98
-7.13
-9.39
-12.11
