15.43
12.73
9.99
7.01
3.55
-0.45
-4.83
-9.27
-13.38
-16.88
-19.7
-21.98
-24.1
-26.47
-29.47
-33.27
-37.74
-42.38
-46.41
-48.88
-48.92
-45.99
-40.09
-31.76
-21.98
-11.86
-2.34
5.97
12.84
18.25
22.32
25.04
26.43
26.51
25.43
23.52
21.2
19.0
17.36
16.6
16.82
17.89
19.49
21.21
22.67
23.59
23.82
23.33
22.11
20.17
17.54
14.28
10.5
6.32
1.95
-2.41
-6.55
-10.32
-13.67
-16.67
-19.47
-22.25
-25.18
-28.37
-31.92
-35.85
-40.07
-44.22
-47.65
-49.5
-48.89
-45.31
-38.78
-29.99
-20.01
-9.96
-0.75
7.14
13.54
18.47
22.01
24.23
25.22
25.2
24.42
23.2
21.82
20.47
19.26
18.28
17.62
17.36
17.55
18.15
18.95
19.63
19.83
19.32
18.04
16.18
14.02
11.86
9.85
7.96
6.01
3.84
1.38
-1.25
-3.88
-6.35
-8.63
-10.8
-13.06
-15.62
-18.69
-22.44
-26.9
-31.87
-36.81
-40.85
-42.95
-42.15
-37.91
-30.34
-20.21
-8.67
2.99
13.72
22.85
30.1
35.46
39.05
40.99
41.37
40.35
38.17
35.2
31.89
28.67
25.86
23.58
21.79
20.33
19.06
17.94
16.99
16.26
15.75
15.27
14.58
13.43
11.72
9.49
6.96
4.33
1.7
-1.01
-3.97
-7.32
-11.0
-14.79
-18.35
-21.51
-24.27
-26.91
-29.83
-33.39
-37.71
-42.61
-47.58
-51.86
-54.52
-54.76
-52.03
-46.24
-37.84
-27.71
-16.92
-6.54
2.64
10.12
15.76
19.64
22.02
23.23
23.58
23.32
22.65
21.68
20.59
19.53
18.69
18.18
18.06
18.25
18.61
18.95
19.12
18.98
18.51
17.71
16.65
15.4
14.03
12.59
11.04
9.28
7.17
4.55
1.3
-2.54
-6.79
-11.17
-15.34
-19.09
-22.36
-25.34
-28.4
-31.97
-36.31
-41.4
-46.78
-51.6
-54.76
-55.27
-52.59
-46.81
-38.68
-29.35
-19.98
-11.45
-4.2
1.71
6.48
10.25
13.12
15.06
16.07
16.3
15.99
15.49
15.11
15.0
15.17
15.48
15.77
15.9
15.84
15.61
15.23
14.69
13.96
12.97
11.7
10.16
8.43
6.52
4.45
2.16
-0.35
-3.07
-5.86
-8.57
-11.07
-13.36
-15.58
-17.99
-20.81
-24.22
-28.22
-32.6
-36.96
-40.66
-42.86
-42.76
-39.76
-33.76
-25.15
-14.83
-3.91
6.61
16.06
24.07
30.55
35.49
38.9
40.86
41.56
41.36
40.76
40.22
40.11
40.54
41.43
42.58
43.84
45.12
46.44
47.78
49.05
49.99
50.22
49.34
47.05
43.17
37.75
30.95
23.1
14.61
5.9
-2.65
-10.69
-18.03
-24.52
-30.1
-34.75
-38.51
-41.57
-44.23
-46.95
-50.17
-54.12
-58.6
-62.96
-66.06
-66.64
-63.69
-56.81
-46.48
-33.92
-20.75
-8.47
1.94
10.2
16.6
21.72
26.05
29.82
33.01
35.44
37.03
37.87
38.23
38.48
38.92
39.69
40.75
42.0
43.32
44.61
45.77
46.63
46.95
46.4
44.73
41.89
38.01
33.39
28.43
23.47
18.67
14.08
9.57
4.96
0.06
-5.25
-10.99
-17.05
-23.23
-29.26
-34.98
-40.37
-45.61
-51.07
-57.12
-63.88
-71.08
-77.91
-83.28
-85.98
-85.08
-80.11
-71.19
-58.99
-44.56
-29.26
-14.57
-1.82
7.99
14.34
17.32
17.48
15.7
12.94
10.07
7.78
6.55
6.61
7.95
10.25
13.02
15.71
17.9
19.42
20.32
20.74
20.76
20.3
19.17
17.17
14.22
10.41
6.08
1.65
-2.5
-6.15
-9.32
-12.22
-15.07
-17.98
-20.89
-23.62
-26.07
-28.37
-30.87
-34.02
-37.97
-42.36
-46.23
-48.29
-47.32
-42.73
-34.67
-24.02
-11.96
0.3
11.87
22.12
30.6
36.93
40.77
41.99
40.73
37.47
32.92
27.87
22.97
18.7
15.3
12.91
11.48
10.88
10.88
11.19
11.52
11.66
11.54
11.2
10.74
10.24
9.73
9.15
8.4
7.4
6.16
4.72
3.12
1.33
-0.83
-3.56
-7.07
-11.37
-16.33
-21.73
-27.33
-32.94
-38.26
-42.8
-45.73
-46.07
-43.0
-36.17
-26.02
-13.59
-0.33
12.43
23.71
33.05
40.36
45.81
49.66
52.15
53.53
53.99
53.62
52.41
50.26
47.16
43.22
38.77
34.19
29.77
25.54
21.18
16.22
10.37
3.63
-3.5
-10.24
-15.78
-19.64
-21.8
-22.67
-22.82
-22.75
-22.74
-22.82
-22.94
-23.12
-23.5
-24.37
-25.92
-28.23
-31.17
-34.46
-37.69
-40.3
-41.51
-40.42
-36.35
-29.37
-20.56
-12.03
-6.13
-4.59
-7.66
-13.98
-21.24
-27.12
-30.22
-30.36
-28.2
-24.64
-20.29
-15.37
-9.98
-4.31
1.1
5.57
8.57
10.0
10.3
10.25
10.49
11.28
12.43
13.34
13.37
12.09
9.47
5.93
2.11
-1.52
-4.69
-7.39
-9.69
-11.81
-13.97
-16.32
-18.96
-21.85
-25.36
-29.7
-34.74
-39.97
-44.8
-48.93
-52.36
-55.18
-57.38
-59.58
-61.87
-63.52
-63.09
-59.27
-51.7
-41.21
-29.45
-18.35
-11.13
-9.94
-14.85
-23.66
-33.13
-40.53
-44.36
-44.47
-41.81
-40.08
-42.95
-52.64
-69.07
-90.42
-114.02
-136.84
-155.86
-157.02
-132.74
-86.21
-30.85
18.83
54.96
77.17
89.27
96.05
101.15
104.41
104.3
99.54
90.07
76.64
60.38
42.94
26.19
12.37
1.59
-6.84
-13.55
-18.41
-20.64
-19.44
-14.49
-6.07
4.67
14.94
22.09
24.83
23.76
20.7
17.68
15.09
12.96
10.99
8.37
4.77
0.59
-3.02
-4.73
-3.64
0.39
6.96
15.19
23.73
31.31
37.0
40.45
41.77
41.4
39.86
37.74
35.4
32.96
30.38
27.59
24.57
21.32
17.92
14.42
10.91
7.53
4.41
1.61
-0.93
-3.37
-5.85
-8.25
-10.13
-10.67
-9.02
-4.59
2.67
12.27
23.34
34.87
45.95
55.84
64.04
70.28
74.49
76.85
77.77
77.76
77.33
76.86
76.41
75.82
74.77
72.92
70.04
66.06
61.09
55.32
48.97
42.27
35.46
28.79
22.52
16.78
11.56
6.69
1.88
-3.08
-8.29
-13.65
-18.97
-24.06
-28.83
-33.32
-37.61
-41.74
-45.71
-49.58
-53.4
-57.36
-61.42
-65.25
-68.02
-68.63
-66.06
-59.73
-49.78
-37.1
-23.01
-8.93
3.9
14.67
22.99
28.83
32.53
34.54
35.41
35.6
35.4
34.98
34.38
33.61
32.67
31.61
30.52
29.52
28.76
28.33
28.18
28.1
27.71
26.64
24.65
21.75
18.1
14.01
9.66
5.15
0.54
-4.18
-8.95
-13.74
-18.52
-23.35
-28.2
-32.96
-37.43
-41.38
-44.72
-47.5
-49.95
-52.18
-54.07
-55.21
-55.0
-52.97
-48.97
-43.28
-36.5
-29.35
-22.4
-15.97
-10.11
-4.75
0.16
4.63
8.59
12.06
15.17
18.18
21.47
25.33
29.93
35.16
40.69
46.01
50.61
54.1
56.44
57.85
58.68
59.17
59.31
58.77
57.18
54.39
50.56
46.21
41.9
38.02
34.59
31.36
27.89
23.8
18.77
12.63
5.37
-2.73
-11.09
-18.8
-24.89
-28.6
-29.6
-28.08
-24.65
-20.09
-15.12
-10.38
-6.24
-3.03
-0.94
-0.08
-0.39
-1.63
-3.37
-5.1
-6.43
-7.22
-7.62
-7.93
-8.44
-9.12
-9.63
-9.49
-8.32
-6.07
-3.06
0.19
3.19
5.62
7.31
8.11
7.8
6.16
3.05
-1.53
-7.55
-15.06
-24.3
-35.54
-48.8
-63.38
-77.79
-90.0
-97.93
-100.23
-96.67
-88.16
-76.31
-62.86
-49.19
-36.15
-24.1
-13.19
-3.61
4.46
10.8
15.43
18.62
20.8
22.44
23.81
24.94
25.69
25.8
25.16
23.82
21.96
19.79
17.45
14.97
12.31
9.4
6.29
3.13
0.1
-2.57
-4.68
-6.11
-6.79
-6.79
-6.34
-5.77
-5.54
-6.06
-7.49
-9.61
-11.79
-13.11
-12.68
-9.9
-4.73
2.28
10.13
17.7
23.98
28.26
30.1
29.35
26.07
20.54
13.23
4.85
-3.87
-12.25
-19.91
-26.75
-32.91
-38.5
-43.39
-47.13
-49.04
-48.48
-45.2
-39.49
-32.16
-24.29
-16.88
-10.58
-5.57
-1.68
1.39
3.85
5.72
6.89
7.25
6.8
5.62
3.77
1.27
-1.98
-6.06
-10.84
-15.84
-20.25
-23.14
-23.71
-21.59
-16.94
-10.39
-2.84
4.84
11.95
18.07
23.02
26.75
29.27
30.6
30.78
29.96
28.39
26.44
24.44
22.65
21.1
19.55
17.57
14.72
10.72
5.66
-0.01
-5.59
-10.34
-13.74
-15.52
-15.63
-14.2
-11.45
-7.7
-3.46
0.63
3.9
5.85
6.33
5.54
3.91
1.94
-0.02
-1.77
-3.3
-4.74
-6.29
-8.24
-10.76
-13.78
-16.85
-19.22
-19.99
-18.47
-14.5
-8.51
-1.32
6.07
12.89
18.66
23.23
26.61
28.86
30.04
30.2
29.53
28.3
26.84
25.46
24.31
23.39
22.63
21.98
21.46
21.13
21.05
21.17
21.32
21.28
20.88
20.11
19.0
17.62
15.97
13.95
11.52
8.71
5.74
2.88
0.39
-1.66
-3.4
-5.04
-6.76
-8.67
-10.83
-13.25
-15.93
-18.84
-21.75
-24.23
-25.69
-25.55
-23.42
-19.28
-13.52
-6.81
0.07
6.44
11.86
16.2
19.48
21.85
23.4
24.19
24.25
23.64
22.57
21.35
20.28
19.52
19.05
18.68
18.16
17.27
15.99
14.44
12.8
11.26
9.92
8.7
7.45
5.93
4.01
1.66
-0.99
-3.73
-6.31
-8.61
-10.61
-12.45
-14.33
-16.44
-18.87
-21.6
-24.47
-27.15
-29.17
-29.97
-29.04
-26.02
-20.88
-13.99
-5.99
2.31
10.18
17.08
22.76
27.11
30.18
32.03
32.75
32.51
31.59
30.35
29.16
28.25
27.71
27.45
27.22
26.67
25.42
23.16
19.63
14.77
8.64
1.48
-6.43
-14.77
-23.19
-31.25
-38.36
-43.82
-46.96
-47.43
-45.38
-41.48
-36.64
-31.77
-27.48
-24.11
-21.8
-20.73
-21.09
-22.91
-25.86
-29.13
-31.54
-31.96
-29.76
-25.02
-18.45
-11.06
-3.79
2.81
8.61
13.69
18.2
22.13
25.31
27.53
28.67
28.8
28.15
27.08
25.86
24.68
23.57
22.49
21.45
20.5
19.76
19.28
19.02
18.82
18.39
17.52
16.11
14.23
12.07
9.91
8.01
6.54
5.53
4.82
4.15
3.13
1.53
-0.72
-3.44
-6.3
-9.05
-11.65
-14.37
-17.67
-21.93
-27.3
-33.56
-40.18
-46.42
-51.47
-54.59
-55.2
-52.97
-47.96
-40.62
-31.8
-22.5
-13.79
-6.54
-1.33
1.58
2.27
1.15
-1.06
-3.47
-5.11
-5.14
-3.11
0.98
6.61
12.93
19.03
24.24
28.3
31.33
33.65
35.53
37.04
37.98
38.01
36.87
34.54
31.26
27.44
23.49
19.7
16.19
12.93
9.87
6.96
4.18
1.52
-1.03
-3.52
-5.99
-8.5
-11.02
-13.52
-15.98
-18.42
-20.92
-23.57
-26.35
-29.05
-31.22
-32.27
-31.65
-29.08
-24.72
-19.09
-12.98
-7.14
-2.04
2.17
5.6
8.47
10.91
12.89
14.3
15.03
15.13
14.83
14.42
14.18
14.22
14.47
14.71
14.74
14.45
13.87
13.13
12.34
11.57
10.77
9.86
8.76
7.5
6.16
4.88
3.77
2.86
2.11
1.46
0.77
-0.01
-0.98
-2.18
-3.74
-5.79
-8.43
-11.64
-15.17
-18.53
-21.0
-21.91
-20.81
-17.7
-12.97
-7.36
-1.64
3.58
7.95
11.36
13.85
15.48
16.26
16.14
15.02
12.9
9.88
6.22
2.38
-1.1
-3.68
-4.97
-4.89
-3.63
-1.65
0.61
2.77
4.69
6.32
7.64
8.59
9.0
8.7
7.54
5.48
2.53
-1.21
-5.66
-10.67
-16.04
-21.43
-26.42
-30.55
-33.48
-35.11
-35.6
-35.32
-34.66
-33.81
-32.71
-31.01
-28.25
-24.03
-18.28
-11.24
-3.46
4.37
11.62
17.86
22.9
26.77
29.6
31.51
32.58
32.82
32.3
31.17
29.6
27.75
25.69
23.41
20.89
18.19
15.45
12.85
10.49
8.35
6.24
4.03
1.68
-0.72
-3.01
-5.11
-7.11
-9.24
-11.74
-14.75
-18.24
-22.08
-26.17
-30.47
-35.07
-40.01
-45.16
-50.22
-54.76
-58.41
-60.94
-62.26
-62.37
-61.19
-58.58
-54.33
-48.42
-41.02
-32.6
-23.68
-14.71
-5.91
2.69
11.11
19.25
26.83
33.47
38.9
43.02
46.0
48.1
49.48
50.17
50.01
48.82
46.58
43.51
39.94
36.34
33.02
30.18
27.8
25.82
24.16
22.86
22.02
21.74
22.1
22.98
24.13
25.15
25.65
25.37
24.28
22.56
20.52
18.47
16.57
14.82
13.11
11.23
8.97
6.2
2.91
-0.71
-4.27
-7.25
-9.11
-9.46
-8.28
-5.86
-2.73
0.58
3.71
6.47
8.81
10.63
11.74
11.92
11.06
9.24
6.76
4.01
1.32
-1.16
-3.39
-5.42
-7.27
-8.85
-10.09
-10.93
-11.43
-11.7
-11.87
-12.02
-12.19
-12.39
-12.68
-13.11
-13.76
-14.63
-15.72
-16.95
-18.26
-19.64
-21.14
-22.87
-24.92
-27.3
-29.95
-32.78
-35.65
-38.38
-40.7
-42.26
-42.62
-41.43
-38.53
-34.07
-28.59
-22.79
-17.4
-12.94
-9.61
-7.29
-5.69
-4.44
-3.26
-2.04
-0.82
0.28
1.12
1.71
2.19
2.9
4.24
6.53
9.87
14.08
18.77
23.4
27.53
30.88
33.37
35.03
35.98
36.27
35.96
35.07
33.65
31.78
29.58
27.19
24.78
22.54
20.6
18.96
17.5
15.93
13.92
11.24
7.93
4.27
0.72
-2.15
-3.88
-4.16
-2.88
-0.06
4.08
9.19
14.86
20.67
26.24
31.29
35.62
39.11
41.64
43.16
43.69
43.3
42.15
40.36
38.06
35.3
32.13
28.65
25.0
21.3
17.67
14.15
10.75
7.42
4.15
0.89
-2.41
-5.87
-9.65
-13.95
-18.93
-24.69
-31.18
-38.22
-45.45
-52.47
-58.83
-64.18
-68.34
-71.25
-73.01
-73.74
-73.55
-72.57
-70.85
-68.48
-65.39
-61.43
-56.37
-49.99
-42.22
-33.34
-23.92
-14.69
-6.31
0.82
6.65
11.39
15.36
18.79
21.71
24.03
25.57
26.23
26.07
25.36
24.44
23.68
23.31
23.39
23.81
24.37
24.87
25.18
25.31
25.33
25.35
25.38
25.34
25.03
24.19
22.62
20.26
17.18
13.56
9.62
5.51
1.31
-2.93
-7.19
-11.39
-15.47
-19.36
-23.03
-26.48
-29.64
-32.41
-34.55
-35.85
-36.15
-35.42
-33.75
-31.22
-27.84
-23.5
-18.07
-11.55
-4.12
3.81
11.67
18.94
25.22
30.27
34.05
36.58
37.94
38.21
37.53
36.08
34.14
31.99
29.91
28.12
26.72
25.68
24.85
24.02
22.98
21.65
20.04
18.24
16.35
14.44
12.52
10.61
8.71
6.93
5.38
4.16
3.24
2.52
1.76
0.77
-0.56
-2.23
-4.13
-6.11
-8.07
-9.99
-11.86
-13.69
-15.43
-16.9
-17.9
-18.22
-17.76
-16.49
-14.52
-12.01
-9.14
-6.15
-3.3
-0.89
0.82
1.63
1.55
0.72
-0.53
-1.88
-3.07
-4.0
-4.7
-5.29
-5.9
-6.63
-7.54
-8.68
-10.07
-11.68
-13.43
-15.18
-16.73
-17.84
-18.37
-18.29
-17.69
-16.73
-15.64
-14.55
-13.55
-12.69
-11.96
-11.42
-11.16
-11.26
-11.79
-12.75
-14.06
-15.61
-17.21
-18.65
-19.65
-19.9
-19.03
-16.77
-13.02
-7.89
-1.75
4.88
11.48
17.73
23.5
28.86
33.91
38.69
43.12
47.01
50.11
52.26
53.38
53.54
52.89
51.62
49.97
48.18
46.5
45.12
44.13
43.48
43.04
42.58
41.9
40.81
39.27
37.32
35.08
32.67
30.16
27.48
24.57
21.31
17.73
14.01
10.44
7.31
4.78
2.74
0.86
-1.27
-3.99
-7.36
-11.14
-14.84
-17.89
-19.79
-20.24
-19.25
-17.11
-14.26
-11.14
-8.05
-5.06
-2.13
0.83
3.71
6.19
7.84
8.29
7.54
6.03
4.47
3.59
3.72
4.73
6.09
7.09
7.13
5.86
3.2
-0.7
-5.3
-9.53
-11.99
-11.29
-6.94
0.36
8.78
15.95
19.82
19.46
15.36
9.0
1.96
-4.95
-11.92
-19.63
-28.67
-39.28
-50.87
-62.35
-72.59
-80.82
-87.28
-92.67
-97.5
-101.71
-105.43
-108.3
-109.48
-107.81
-101.8
-91.56
-78.12
-62.81
-47.18
-34.09
-25.59
-21.96
-21.55
-20.52
-17.38
-12.02
-5.01
2.35
6.29
3.85
-5.53
-19.57
-32.73
-43.1
-50.69
-56.2
-61.38
-71.36
-90.86
-122.11
-163.74
-209.27
-254.85
-296.78
-330.64
-332.04
-286.57
-198.06
-89.18
-3.67
50.8
78.72
87.7
89.66
91.05
92.2
91.91
90.31
90.23
98.29
115.91
141.59
172.61
205.29
234.27
255.59
267.85
272.42
273.81
273.15
270.45
265.88
259.22
248.56
231.52
206.13
171.86
130.99
85.27
37.18
-10.08
-54.09
-94.4
-131.67
-166.65
-199.02
-226.57
-247.39
-260.08
-264.45
-262.12
-256.3
-249.98
-244.89
-240.96
-236.56
-230.2
-221.16
-209.91
-198.14
-187.78
-179.41
-172.0
-163.41
-151.38
-134.55
-112.6
-85.97
-55.61
-22.28
14.36
54.88
99.19
145.96
192.87
238.15
281.19
322.27
356.45
377.74
381.31
366.57
337.59
300.39
260.91
223.11
188.35
156.55
127.84
102.58
81.26
64.87
51.76
40.41
29.22
16.29
0.52
-17.77
-37.38
-56.98
-75.75
-94.02
-112.07
-126.07
-133.71
-133.69
-126.1
-112.41
-95.01
-76.49
-61.41
-49.83
-41.43
-36.54
-35.43
-38.0
-43.66
-51.38
-58.64
-63.78
-65.44
-63.74
-60.39
-57.51
-56.78
-58.72
-62.47
-66.27
-68.67
-68.61
-66.34
-63.05
-59.61
-56.04
-51.34
-44.14
-33.79
-21.19
-8.11
3.63
12.91
19.65
24.25
27.71
31.71
38.32
49.02
64.04
81.74
98.78
111.32
116.48
114.65
109.39
105.07
103.61
103.18
99.66
89.4
71.46
47.67
22.57
2.17
-7.83
-3.15
18.79
58.95
115.7
183.56
246.18
282.59
278.29
235.72
173.03
110.92
60.88
22.33
-11.93
-47.11
-83.37
-113.27
-127.57
-121.67
-99.24
-70.25
-46.53
-36.46
-42.25
-60.37
-82.29
-98.88
-104.01
-96.82
-80.28
-58.89
-35.86
-12.4
12.04
39.01
66.71
90.89
105.97
110.36
103.64
87.66
66.25
43.24
23.15
8.38
-0.64
-6.01
-9.94
-13.89
-17.86
-21.17
-23.52
-24.73
-26.28
-30.13
-39.38
-55.84
-79.16
-106.46
-133.16
-154.89
-168.33
-173.93
-166.55
-146.51
-118.75
-90.11
-64.97
-43.21
-27.15
-13.13
0.66
14.4
26.27
34.89
42.1
48.95
56.07
63.29
70.6
77.03
81.69
83.1
80.44
73.87
63.99
51.97
38.92
26.3
14.64
4.02
-6.34
-17.19
-28.76
-40.96
-53.33
-65.47
-76.91
-87.65
-97.63
-106.69
-114.23
-119.29
-121.24
-119.84
-115.45
-108.47
-99.5
-88.83
-76.68
-63.24
-48.77
-33.68
-18.35
-3.04
12.17
27.11
41.45
54.72
66.39
76.04
83.51
88.93
92.64
95.09
96.62
97.48
97.72
97.27
95.94
93.47
89.66
84.42
77.89
70.39
62.45
54.57
47.1
40.19
33.67
27.23
20.62
13.79
7.02
0.86
-4.0
-6.96
-7.64
-6.0
-2.26
3.19
9.83
17.12
24.4
30.98
36.13
39.18
39.65
37.38
32.52
25.61
17.43
8.85
0.53
-7.23
-14.56
-21.83
-29.28
-36.66
-43.22
-47.93
-49.99
-49.29
-46.51
-42.84
-39.46
-37.13
-36.06
-36.11
-37.15
-39.21
-42.44
-46.73
-51.51
-55.71
-58.16
-58.02
-55.12
-50.02
-43.63
-36.78
-30.04
-23.61
-17.62
-12.36
-8.31
-5.9
-5.27
-5.98
-7.13
-7.71
-7.03
-4.98
-2.0
1.11
3.58
4.89
4.77
3.25
0.55
-2.98
-6.79
-10.29
-12.91
-14.32
-14.53
-13.91
-13.0
-12.3
-12.09
-12.32
-12.69
-12.8
-12.3
-10.93
-8.57
-5.17
-0.69
4.85
11.3
18.32
25.39
32.03
37.87
42.87
47.2
51.14
54.81
58.1
60.74
62.51
63.34
63.41
62.94
61.96
60.18
57.05
52.05
44.96
36.0
25.8
15.12
4.57
-5.53
-15.17
-24.37
-32.98
-40.48
-46.09
-48.97
-48.5
-44.66
-38.02
-29.7
-21.0
-13.04
-6.43
-1.18
3.07
6.68
9.69
11.72
12.21
10.78
7.54
3.14
-1.5
-5.56
-8.65
-10.85
-12.53
-14.04
-15.41
-16.38
-16.58
-15.78
-14.07
-11.85
-9.74
-8.29
-7.91
-8.67
-10.4
-12.7
-15.03
-16.83
-17.55
-16.76
-14.25
-10.05
-4.46
2.02
8.79
15.23
20.84
25.27
28.26
29.69
29.51
27.8
24.78
20.87
16.62
12.57
9.16
6.51
4.51
2.85
1.18
-0.71
-2.84
-5.12
-7.38
-9.54
-11.66
-13.92
-16.53
-19.68
-23.45
-27.7
-32.08
-36.03
-38.82
-39.76
-38.31
-34.34
-28.14
-20.39
-11.93
-3.6
4.03
10.6
15.94
19.96
22.58
23.76
23.57
22.19
20.03
17.54
15.17
13.15
11.49
9.99
8.39
6.5
4.33
2.0
-0.24
-2.23
-3.92
-5.4
-6.84
-8.44
-10.35
-12.76
-15.75
-19.38
-23.51
-27.76
-31.48
-33.88
-34.24
-32.13
-27.56
-21.02
-13.24
-5.03
2.98
10.35
16.86
22.31
26.51
29.28
30.53
30.41
29.22
27.4
25.33
23.25
21.23
19.24
17.29
15.4
13.62
11.93
10.21
8.3
6.04
3.34
0.25
-3.09
-6.57
-10.13
-13.82
-17.78
-22.12
-26.88
-31.91
-36.88
-41.22
-44.27
-45.34
-43.89
-39.74
-33.15
-24.74
-15.39
-6.01
2.67
10.17
16.33
21.14
24.68
26.99
28.11
28.1
