29.4
27.34
25.05
22.4
19.34
15.96
12.51
9.25
6.35
3.79
1.39
-1.13
-3.97
-7.19
-10.63
-14.07
-17.27
-20.12
-22.71
-25.27
-28.14
-31.59
-35.87
-41.06
-47.09
-53.58
-59.82
-64.76
-67.25
-66.31
-61.58
-53.37
-42.67
-30.79
-19.0
-8.17
1.24
9.06
15.28
19.93
23.05
24.77
25.36
25.15
24.56
23.92
23.52
23.48
23.82
24.42
25.1
25.7
26.13
26.3
26.18
25.69
24.74
23.23
21.18
18.76
16.17
13.67
11.38
9.23
7.02
4.52
1.61
-1.7
-5.2
-8.67
-11.9
-14.91
-17.89
-21.18
-25.12
-29.89
-35.4
-41.21
-46.58
-50.56
-52.2
-50.86
-46.3
-38.83
-29.21
-18.46
-7.64
2.41
11.13
18.26
23.73
27.58
29.89
30.76
30.4
29.17
27.53
25.93
24.71
23.95
23.56
23.32
23.07
22.77
22.47
22.23
21.98
21.55
20.71
19.26
17.2
14.72
12.13
9.69
7.48
5.37
3.1
0.41
-2.81
-6.46
-10.32
-14.14
-17.76
-21.09
-24.25
-27.46
-31.02
-35.28
-40.52
-46.69
-53.31
-59.43
-63.84
-65.37
-63.27
-57.49
-48.64
-37.73
-25.95
-14.33
-3.62
5.72
13.46
19.51
23.9
26.76
28.34
28.97
29.07
28.99
29.04
29.39
30.06
30.9
31.74
32.42
32.87
33.13
33.29
33.38
33.27
32.66
31.23
28.77
25.33
21.26
17.03
13.1
9.63
6.48
3.29
-0.34
-4.62
-9.51
-14.67
-19.69
-24.18
-27.94
-31.09
-33.89
-36.79
-40.19
-44.41
-49.47
-54.94
-60.06
-63.66
-64.62
-62.08
-55.79
-46.23
-34.44
-21.77
-9.47
1.54
10.76
18.05
23.48
27.18
29.35
30.25
30.18
29.56
28.8
28.24
28.09
28.42
29.11
30.02
30.98
31.88
32.64
33.13
33.22
32.67
31.29
28.95
25.68
21.71
17.44
13.26
9.49
6.22
3.3
0.53
-2.34
-5.33
-8.32
-11.14
-13.68
-16.02
-18.46
-21.44
-25.43
-30.66
-37.01
-43.84
-50.03
-54.23
-55.26
-52.46
-45.99
-36.72
-25.94
-14.97
-4.78
4.07
11.43
17.27
21.67
24.64
26.35
27.03
27.07
26.85
26.75
26.89
27.29
27.81
28.31
28.69
28.93
29.08
29.17
29.17
28.88
28.04
26.44
23.98
20.83
17.37
14.03
11.08
8.57
6.28
3.84
0.97
-2.44
-6.29
-10.36
-14.4
-18.28
-21.99
-25.66
-29.43
-33.49
-38.06
-43.29
-49.15
-55.24
-60.76
-64.5
-65.3
-62.34
-55.59
-45.75
-34.09
-21.99
-10.52
-0.32
8.38
15.55
21.2
25.32
27.96
29.37
29.94
30.13
30.32
30.68
31.17
31.62
31.88
31.88
31.66
31.35
31.06
30.88
30.7
30.37
29.64
28.33
26.36
23.86
21.05
18.25
15.72
13.53
11.58
9.54
7.08
3.97
0.2
-3.99
-8.25
-12.27
-15.93
-19.32
-22.78
-26.74
-31.58
-37.58
-44.72
-52.68
-60.7
-67.68
-72.29
-73.41
-70.34
-63.15
-52.61
-40.02
-26.79
-14.14
-2.87
6.69
14.53
20.76
25.55
28.99
31.19
32.34
32.76
32.84
33.0
33.47
34.23
35.06
35.65
35.8
35.52
34.97
34.37
33.86
33.35
32.63
31.44
29.56
27.02
23.99
20.78
17.69
14.89
12.34
9.82
7.09
3.97
0.46
-3.25
-6.86
-10.16
-13.14
-15.98
-19.03
-22.63
-27.09
-32.51
-38.76
-45.37
-51.52
-56.1
-57.95
-56.22
-50.67
-41.83
-30.79
-18.9
-7.36
3.03
11.96
19.38
25.32
29.73
32.54
33.69
33.31
31.77
29.56
27.27
25.37
24.08
23.43
23.26
23.29
23.28
23.1
22.72
22.19
21.56
20.82
19.91
18.7
17.05
14.87
12.13
8.91
5.29
1.43
-2.56
-6.59
-10.6
-14.63
-18.77
-23.16
-28.0
-33.39
-39.34
-45.57
-51.51
-56.28
-58.89
-58.52
-54.74
-47.73
-38.22
-27.28
-16.01
-5.31
4.22
12.26
18.65
23.3
26.24
27.58
27.61
26.73
25.4
24.04
22.96
22.34
22.25
22.64
23.41
24.39
25.37
26.13
26.45
26.18
25.27
23.77
21.83
19.61
17.23
14.67
11.8
8.46
4.54
0.08
-4.68
-9.44
-13.94
-18.02
-21.71
-25.17
-28.67
-32.58
-37.18
-42.61
-48.63
-54.5
-59.07
-61.04
-59.47
-54.04
-45.29
-34.36
-22.58
-11.08
-0.62
8.47
16.09
22.22
26.84
30.0
31.83
32.6
32.66
32.33
31.87
31.38
30.86
30.29
29.63
28.92
28.27
27.8
27.62
27.64
27.71
27.58
27.03
25.93
24.24
22.01
19.33
16.24
12.76
8.91
4.69
0.16
-4.56
-9.34
-14.09
-18.76
-23.44
-28.39
-33.96
-40.38
-47.54
-54.85
-61.21
-65.24
-65.74
-62.09
-54.46
-43.75
-31.32
-18.55
-6.46
4.34
13.57
21.16
27.05
31.13
33.38
33.93
33.19
31.71
30.15
28.97
28.36
28.24
28.35
28.46
28.46
28.37
28.24
28.08
27.75
27.07
25.89
24.18
21.96
19.31
16.24
12.69
8.66
4.22
-0.43
-5.04
-9.4
-13.43
-17.32
-21.39
-26.05
-31.62
-38.2
-45.48
-52.72
-58.81
-62.49
-62.67
-58.81
-51.08
-40.33
-27.82
-14.83
-2.43
8.73
18.27
25.96
31.64
35.21
36.75
36.56
35.18
33.21
31.19
29.42
28.04
27.03
26.31
25.82
25.49
25.3
25.16
24.99
24.62
23.88
22.63
20.83
18.54
15.98
13.36
10.79
8.25
5.51
2.35
-1.31
-5.38
-9.6
-13.69
-17.5
-21.11
-24.77
-28.88
-33.74
-39.61
-46.45
-53.94
-61.32
-67.49
-71.17
-71.27
-67.24
-59.29
-48.36
-35.79
-22.87
-10.57
0.58
10.4
18.83
25.82
31.37
35.49
38.32
40.1
41.13
41.68
41.94
42.08
42.12
42.06
41.82
41.4
40.82
40.14
39.47
38.74
37.78
36.25
33.84
30.44
26.24
21.66
17.21
13.24
9.81
6.69
3.53
0.0
-4.01
-8.38
-12.8
-16.9
-20.41
-23.31
-25.81
-28.4
-31.67
-36.16
-42.14
-49.4
-57.24
-64.49
-69.77
-71.82
-69.87
-63.82
-54.28
-42.39
-29.51
-16.84
-5.17
5.13
14.0
21.49
27.61
32.26
35.4
37.1
37.64
37.46
36.95
36.38
35.82
35.23
34.59
34.01
33.64
33.67
34.06
34.56
34.79
34.38
33.14
31.13
28.65
26.01
23.46
21.0
18.46
15.53
12.0
7.8
3.06
-1.9
-6.84
-11.58
-16.08
-20.4
-24.65
-28.99
-33.62
-38.75
-44.46
-50.48
-56.06
-60.04
-61.17
-58.59
-52.17
-42.62
-31.22
-19.37
-8.21
1.67
10.04
16.94
22.36
26.25
28.59
29.52
29.38
28.69
27.93
27.43
27.29
27.4
27.6
27.79
27.93
28.06
28.12
27.9
27.14
25.62
23.23
20.18
16.79
13.44
10.41
7.8
5.53
3.38
1.13
-1.43
-4.38
-7.64
-11.01
-14.28
-17.33
-20.19
-23.12
-26.47
-30.63
-35.89
-42.24
-49.29
-56.22
-61.8
-64.72
-63.94
-59.03
-50.4
-39.08
-26.5
-13.99
-2.5
7.46
15.73
22.32
27.29
30.69
32.61
33.27
32.94
32.03
30.91
29.92
29.23
28.86
28.74
28.81
28.98
29.3
29.79
30.44
31.12
31.53
31.31
30.08
27.71
24.32
20.3
16.25
12.68
9.84
7.6
5.49
2.97
-0.38
-4.62
-9.47
-14.46
-19.12
-23.17
-26.56
-29.49
-32.32
-35.48
-39.4
-44.33
-50.23
-56.56
-62.28
-66.07
-66.68
-63.4
-56.31
-46.25
-34.55
-22.58
-11.39
-1.51
6.92
14.02
19.94
24.71
28.32
30.77
32.2
32.87
33.14
33.4
33.86
34.55
35.36
36.08
36.6
36.89
37.06
37.22
37.44
37.63
37.54
36.9
35.44
33.05
29.81
25.91
21.64
17.24
12.91
8.71
4.61
0.53
-3.59
-7.82
-12.1
-16.33
-20.34
-24.0
-27.18
-29.91
-32.31
-34.61
-37.08
-40.04
-43.73
-48.22
-53.31
-58.28
-62.06
-63.43
-61.35
-55.44
-46.09
-34.41
-21.85
-9.72
1.11
10.22
17.56
23.16
27.03
29.17
29.72
29.06
27.79
26.52
25.75
25.64
26.01
26.51
26.78
26.68
26.3
25.91
25.74
25.83
25.96
25.81
25.06
23.58
21.49
19.06
16.55
14.01
11.33
8.23
4.47
0.01
-5.0
-10.2
-15.24
-19.83
-23.9
-27.54
-31.0
-34.59
-38.63
-43.35
-48.77
-54.53
-59.79
-63.39
-64.15
-61.25
-54.6
-44.91
-33.38
-21.38
-9.99
0.18
8.93
16.28
22.22
26.69
29.57
30.92
30.99
30.25
29.28
28.59
28.5
29.07
30.14
31.4
32.56
33.4
33.79
33.73
33.26
32.41
31.21
29.61
27.53
24.84
21.52
17.65
13.46
9.22
5.21
1.58
-1.71
-4.81
-7.93
-11.26
-14.85
-18.67
-22.53
-26.23
-29.59
-32.56
-35.19
-37.76
-40.62
-44.17
-48.67
-54.04
-59.77
-64.86
-68.06
-68.16
-64.46
-56.87
-46.13
-33.46
-20.25
-7.73
3.31
12.49
19.8
25.41
29.55
32.43
34.2
35.03
35.14
34.83
34.41
34.09
33.94
33.86
33.69
33.27
32.64
31.95
31.37
31.01
30.74
30.31
29.41
27.79
25.45
22.59
19.51
16.55
13.94
11.65
9.46
7.04
4.13
0.64
-3.33
-7.5
-11.55
-15.22
-18.45
-21.32
-24.12
-27.21
-30.94
-35.52
-40.93
-46.75
-52.18
-56.17
-57.6
-55.69
-50.17
-41.47
-30.52
-18.56
-6.76
3.95
13.0
20.12
25.23
28.41
29.85
29.87
28.93
27.55
26.17
25.05
24.26
23.69
23.17
22.6
21.98
21.4
20.98
20.76
20.63
20.37
19.75
18.54
16.68
14.27
11.54
8.77
6.18
3.85
1.61
-0.83
-3.76
-7.29
-11.27
-15.36
-19.24
-22.7
-25.87
-29.09
-32.84
-37.48
-43.14
-49.56
-56.1
-61.8
-65.5
-66.21
-63.34
-56.9
-47.55
-36.35
-24.5
-13.01
-2.54
6.51
13.98
19.84
24.18
27.18
29.16
30.46
31.37
32.11
32.76
33.33
33.82
34.21
34.5
34.69
34.72
34.55
34.1
33.27
31.94
29.99
27.35
24.08
20.37
16.56
12.99
9.88
7.22
4.76
2.09
-1.15
-5.11
-9.67
-14.48
-19.07
-23.13
-26.54
-29.53
-32.49
-35.95
-40.3
-45.68
-51.83
-58.04
-63.24
-66.21
-65.87
-61.63
-53.58
-42.56
-29.85
-16.87
-4.82
5.55
13.91
20.25
24.72
27.56
29.05
29.56
29.47
29.17
28.9
28.77
28.75
28.77
28.81
28.88
29.07
29.46
30.06
30.79
31.49
31.92
31.77
30.81
28.92
26.19
22.87
19.38
16.04
13.03
10.29
7.55
4.5
0.93
-3.11
-7.35
-11.44
-15.12
-18.35
-21.37
-24.63
-28.54
-33.31
-38.77
-44.31
-48.96
-51.67
-51.54
-48.13
-41.57
-32.5
-21.93
-10.93
-0.43
8.91
16.71
22.73
26.94
29.35
30.1
29.4
27.6
25.1
22.33
19.65
17.3
15.43
14.0
12.9
11.91
10.82
9.38
7.41
4.79
1.47
-2.45
-6.82
-11.38
-15.98
-20.49
-24.9
-29.25
-33.6
-37.88
-42.0
-45.83
-49.27
-52.28
-54.97
-57.53
-60.2
-63.23
-66.79
-70.83
-75.06
-78.81
-81.09
-80.81
-77.02
-69.23
-57.67
-43.2
-27.13
-10.85
4.49
18.12
29.67
39.0
46.04
50.82
53.48
54.36
53.98
53.0
52.0
51.38
51.21
51.36
51.51
51.44
50.98
50.15
49.07
47.86
46.58
45.17
43.47
41.29
38.54
35.32
31.9
28.56
25.51
22.64
19.6
15.93
11.3
5.68
-0.56
-6.85
-12.64
-17.58
-21.69
-25.3
-28.82
-32.65
-37.0
-41.77
-46.51
-50.42
-52.42
-51.37
-46.42
-37.26
-24.37
-8.91
7.6
23.64
38.14
50.54
60.77
69.01
75.47
80.31
83.7
85.85
87.08
87.69
87.85
87.47
86.27
83.86
80.06
75.0
69.18
63.23
57.67
52.75
48.35
44.11
39.65
34.73
29.4
23.86
18.45
13.37
8.61
3.95
-0.85
-6.01
-11.52
-17.27
-23.0
-28.49
-33.55
-38.11
-42.2
-45.94
-49.57
-53.4
-57.71
-62.67
-68.14
-73.57
-78.08
-80.63
-80.32
-76.64
-69.69
-60.11
-48.94
-37.29
-26.15
-16.21
-7.85
-1.21
3.71
7.02
8.89
9.59
9.42
8.76
8.01
7.53
7.53
8.1
9.13
10.41
11.68
12.72
13.43
13.7
13.46
12.61
11.1
8.92
6.27
3.39
0.55
-2.05
-4.37
-6.44
-8.38
-10.26
-12.14
-14.05
-16.07
-18.3
-20.9
-24.1
-28.09
-32.96
-38.56
-44.37
-49.49
-52.79
-53.21
-50.12
-43.54
-34.19
-23.22
-11.9
-1.22
8.18
16.08
22.4
27.14
30.26
31.72
31.68
30.45
28.56
26.56
24.83
23.58
22.73
22.11
21.63
21.25
21.0
20.93
20.95
20.89
20.56
19.86
18.81
17.53
16.17
14.72
13.05
10.92
8.12
4.61
0.51
-3.93
-8.42
-12.78
-16.97
-21.17
-25.65
-30.71
-36.57
-43.19
-50.11
-56.47
-61.13
-62.93
-61.08
-55.45
-46.65
-35.77
-24.11
-12.78
-2.52
6.4
13.91
20.1
24.95
28.44
30.56
31.48
31.54
31.24
30.97
31.02
31.41
32.0
32.63
33.21
33.78
34.43
35.18
35.96
36.5
36.49
35.67
33.94
31.36
28.17
24.64
21.03
17.46
13.92
10.3
6.47
2.34
-2.07
-6.66
-11.25
-15.71
-19.98
-24.11
-28.21
-32.55
-37.34
-42.78
-48.84
-55.16
-60.98
-65.22
-66.77
-64.87
-59.34
-50.74
-40.15
-28.83
-17.81
-7.73
1.2
8.97
15.58
20.94
24.93
27.52
28.9
29.46
29.65
29.82
30.13
30.54
30.94
31.26
31.48
31.6
31.61
31.42
30.86
29.79
28.16
26.1
23.85
21.65
19.67
17.88
16.13
14.19
11.94
9.34
6.52
3.66
0.92
-1.62
-3.99
-6.38
-9.02
-12.22
-16.23
-21.1
-26.54
-31.8
-35.79
-37.23
-35.15
-29.15
-19.56
-7.31
6.34
20.17
33.26
45.0
55.0
62.93
68.4
70.97
70.38
66.63
60.13
51.62
42.0
32.06
22.36
13.17
4.58
-3.34
-10.5
-16.78
-22.17
-26.73
-30.65
-34.1
-37.23
-40.08
-42.66
-44.98
-47.04
-48.85
-50.36
-51.48
-52.17
-52.43
-52.32
-51.9
-51.16
-50.06
-48.59
-46.92
-45.45
-44.68
-45.04
-46.53
-48.51
-49.86
-49.25
-45.7
-38.93
-29.47
-18.46
-7.11
3.71
13.64
22.77
31.27
39.2
46.3
52.18
56.49
59.14
60.38
60.77
60.95
61.47
62.65
64.54
67.04
69.9
72.97
76.13
79.31
82.34
85.06
87.2
88.61
89.33
89.55
89.64
89.82
90.19
90.52
90.39
89.33
86.94
82.94
77.19
69.69
60.62
50.34
39.45
28.65
18.43
8.88
-0.4
-10.18
-21.17
-33.63
-47.07
-60.45
-72.5
-82.18
-89.03
-93.12
-94.92
-94.97
-93.69
-91.38
-88.34
-84.92
-81.61
-78.89
-77.08
-76.23
-76.07
-76.26
-76.47
-76.61
-76.78
-77.23
-78.12
-79.45
-81.1
-82.88
-84.61
-86.27
-87.88
-89.5
-91.2
-92.99
-94.75
-96.17
-96.75
-95.91
-93.23
-88.73
-83.04
-77.26
-72.6
-69.87
-69.15
-69.78
-70.71
-71.04
-70.35
-68.74
-66.5
-63.81
-60.44
-55.93
-49.78
-41.89
-32.6
-22.49
-11.97
-0.97
11.08
24.87
40.82
58.66
77.52
96.13
113.21
127.79
139.22
147.07
151.06
151.03
147.17
140.08
130.91
121.04
111.73
103.78
97.34
92.06
87.3
82.46
77.13
71.18
64.67
57.67
50.23
42.28
33.8
24.82
15.53
6.26
-2.61
-10.78
-18.08
-24.55
-30.43
-35.92
-41.01
-45.34
-48.18
-48.66
-46.1
-40.25
-31.47
-20.68
-9.02
2.4
12.64
21.09
27.35
31.29
32.87
32.37
30.27
27.23
23.99
21.18
19.24
18.34
18.44
19.31
20.66
22.2
23.76
25.25
26.71
28.15
29.49
30.49
30.78
29.97
27.83
24.36
19.81
14.59
9.13
3.72
-1.55
-6.73
-11.98
-17.45
-23.25
-29.44
-36.07
-43.2
-50.89
-59.02
-67.2
-74.69
-80.43
-83.37
-82.73
-78.26
-70.32
-59.81
-47.83
-35.55
-23.91
-13.68
-5.42
0.45
3.72
4.37
2.71
-0.72
-5.3
-10.51
-16.06
-21.9
-28.13
-34.86
-42.08
-49.7
-57.56
-65.4
-72.98
-80.05
-86.53
-92.61
-98.78
-105.73
-114.09
-124.16
-135.86
-148.89
-162.97
-178.01
-194.0
-210.77
-227.83
-244.43
-259.87
-273.82
-286.5
-298.41
-309.94
-320.92
-330.31
-336.22
-336.28
-328.1
-309.97
-281.21
-242.34
-194.81
-140.41
-80.94
-18.33
45.0
105.76
160.1
204.65
237.68
259.91
274.02
283.31
290.18
295.33
298.18
297.89
294.36
288.48
281.58
274.58
267.61
260.22
252.04
243.32
234.95
228.04
223.39
220.98
220.01
219.06
216.64
211.59
203.53
192.89
180.71
168.14
156.06
144.78
134.12
123.77
113.47
103.13
92.76
82.51
72.59
63.46
55.73
50.11
47.06
46.5
47.76
49.66
50.92
50.48
47.83
43.0
36.52
29.18
21.8
14.99
9.07
4.07
-0.06
-3.37
-5.76
-7.15
-7.58
-7.37
-7.03
-7.04
-7.65
-8.84
-10.34
-11.93
-13.58
-15.47
-17.87
-20.95
-24.59
-28.41
-31.92
-34.78
-36.85
-38.32
-39.59
-41.1
-43.2
-46.04
-49.62
-53.72
-57.94
-61.65
-64.0
-64.07
-61.04
-54.54
-44.81
-32.69
-19.45
-6.4
5.4
15.34
23.24
29.18
33.33
35.87
37.04
37.14
36.58
35.71
34.75
33.73
32.54
31.05
29.31
27.53
26.07
25.13
24.7
24.47
23.98
22.81
20.81
18.08
14.94
11.74
8.68
5.75
2.78
-0.42
-3.94
-7.72
-11.54
-15.15
-18.35
-21.08
-23.4
-25.51
-27.69
-30.24
-33.42
-37.34
-41.78
-46.14
-49.49
-50.77
-49.1
-44.08
-35.92
-25.38
-13.56
-1.6
9.53
19.14
26.83
32.43
36.02
37.81
38.2
37.67
36.71
35.68
34.84
34.26
33.92
33.81
33.95
34.36
35.04
35.92
36.83
37.51
37.7
37.22
35.94
33.84
30.97
27.36
23.04
18.06
12.52
6.62
0.62
-5.17
-10.54
-15.39
-19.69
-23.51
-26.93
-30.05
-33.05
-36.22
-39.84
-44.1
-48.81
-53.31
-56.58
-57.49
-55.2
-49.5
-40.91
-30.47
-19.39
-8.69
0.97
9.29
16.19
21.59
25.3
27.13
27.0
25.09
21.92
18.25
14.87
12.29
10.63
9.59
8.69
7.46
5.67
3.34
0.63
-2.33
-5.48
-8.89
-12.66
-16.79
-21.18
-25.69
-30.16
-34.49
-38.57
-42.36
-45.71
-48.51
-50.69
-52.33
-53.7
-55.22
-57.28
-60.0
-63.0
-65.45
-66.2
-64.23
-58.93
-50.42
-39.44
-27.06
-14.44
-2.51
8.14
17.16
24.35
29.57
32.79
34.18
34.08
32.92
31.19
29.27
27.45
25.89
24.71
23.9
23.42
23.19
23.04
22.83
22.57
22.34
22.27
22.36
22.48
22.34
21.68
20.25
18.01
15.34
12.85
11.04
10.06
9.56
9.0
7.95
6.04
3.29
0.3
-2.08
-3.37
-3.59
-3.19
-2.47
-1.13
1.38
5.91
13.68
25.65
41.7
60.51
79.6
96.09
107.51
111.41
106.1
91.4
68.52
39.49
7.07
-25.93
-57.58
-82.37
-96.66
-102.55
-106.07
-112.01
-120.97
-129.68
-134.4
-133.48
-128.41
-123.49
-122.59
-126.12
-130.56
-132.68
-128.18
-116.22
-99.06
-80.42
-63.99
-51.86
-43.6
-37.09
-30.21
-21.69
-12.19
-3.68
1.42
0.96
-6.14
-18.9
-34.27
-48.1
-56.2
-55.99
-46.78
-29.58
-6.63
19.56
46.93
74.06
99.65
122.12
139.47
149.85
152.18
146.75
135.47
121.56
108.44
98.48
92.0
87.7
83.36
76.86
66.86
53.2
36.81
19.04
0.88
-17.75
-37.02
-56.89
-76.78
-95.58
-111.77
-123.79
-130.72
-132.89
-132.51
-131.63
-131.44
-131.66
-130.53
-125.29
-113.09
-92.21
-61.8
-25.63
10.3
41.34
66.64
88.07
106.96
122.35
131.39
135.8
133.83
125.93
114.78
103.72
95.01
89.27
86.02
84.63
81.53
75.22
66.32
56.67
48.12
41.72
37.37
34.2
31.11
27.32
22.39
16.82
11.4
6.68
2.71
-0.81
-4.08
-7.07
-9.54
-11.31
-12.23
-12.23
-11.49
-10.39
-9.47
-9.25
-10.26
-12.87
-17.09
-22.43
-27.95
-32.36
-34.34
-32.77
-27.04
-17.19
-4.05
10.87
25.62
38.23
47.22
51.96
52.77
50.61
46.64
41.73
36.31
30.42
24.04
17.41
11.04
5.5
1.26
-1.62
-3.31
-4.05
-3.96
-2.89
-0.59
3.16
8.27
14.41
20.99
27.4
33.07
37.63
40.73
41.95
40.69
36.15
27.5
14.06
-4.52
-28.07
-55.73
-85.98
-116.54
-144.53
-166.84
-180.61
-183.96
-176.52
-159.66
-136.22
-109.76
-83.77
-60.85
-42.37
-28.38
-18.05
-10.0
-2.92
3.99
10.77
16.56
19.99
19.65
14.83
5.91
-5.52
-17.1
-26.43
-31.82
-32.68
-29.6
-23.93
-17.29
-11.08
-6.32
-3.63
-3.39
-5.75
-10.62
-17.48
-25.37
-33.03
-39.22
-43.16
-44.8
-44.82
-44.35
-44.46
-45.76
-48.24
-51.29
-53.88
-54.93
-53.6
-49.48
-42.6
-33.4
-22.45
-10.41
2.17
14.71
26.56
37.04
45.4
51.13
54.01
54.31
52.63
49.8
46.67
43.91
41.92
40.84
40.48
40.43
40.2
39.32
37.53
34.76
31.13
26.89
22.32
17.7
13.15
8.7
4.24
-0.41
-5.43
-10.89
-16.63
-22.38
-27.73
-32.37
-36.21
-39.47
-42.55
-45.94
-49.92
-54.38
-58.78
-62.17
-63.58
-62.17
-57.64
-50.21
-40.58
-29.67
-18.39
-7.47
2.55
11.25
18.26
23.26
26.1
26.91
26.12
24.4
22.45
20.73
19.42
18.44
17.6
16.76
15.93
15.22
14.81
14.75
15.0
15.39
15.71
15.75
15.36
14.43
12.91
10.79
8.15
5.18
2.09
-0.94
-3.83
-6.64
-9.57
-12.82
-16.51
-20.6
-24.8
-28.61
-31.28
-32.04
-30.16
-25.22
-17.21
-6.59
5.86
19.26
32.87
46.16
58.82
70.57
81.07
89.88
96.68
101.36
104.2
105.8
106.94
108.31
110.43
113.49
117.42
121.96
126.58
130.64
133.42
134.33
133.09
129.91
125.52
120.85
116.62
112.91
109.06
103.78
95.75
84.13
68.89
50.81
31.09
10.89
-9.06
-28.57
-47.8
-66.96
-85.99
-104.44
-121.48
-136.07
-147.21
-154.14
-156.53
-154.54
-148.77
-140.0
-129.03
-116.63
-103.48
-90.34
-78.06
-67.53
-59.49
-54.25
-51.59
-50.79
-50.89
-50.97
-50.39
-48.92
-46.73
-44.22
-41.96
-40.5
-40.11
-40.77
