-87.64
-81.08
-72.33
-62.67
-53.27
-44.98
-38.2
-32.96
-28.98
-25.84
-22.98
-19.78
-15.68
-10.35
-3.81
3.45
10.66
16.99
21.91
25.42
28.06
30.64
33.88
38.07
42.96
47.93
52.22
55.28
56.91
57.24
56.63
55.45
53.98
52.46
51.05
49.91
49.19
48.93
48.93
48.77
47.89
45.7
41.86
36.31
29.32
21.3
12.62
3.46
-6.06
-15.77
-25.18
-33.42
-39.4
-42.09
-40.91
-35.94
-27.95
-18.16
-7.92
1.59
9.61
15.82
20.28
23.28
25.18
26.28
26.74
26.59
25.83
24.49
22.76
21.02
19.73
19.32
19.93
21.32
22.82
23.59
22.77
19.85
14.83
8.35
1.68
-3.4
-5.03
-1.75
6.86
19.74
34.37
47.48
56.04
58.35
54.57
46.44
36.48
26.92
19.06
13.18
8.85
5.43
2.44
-0.49
-3.68
-7.48
-12.18
-17.79
-23.85
-29.43
-33.38
-34.65
-32.65
-27.5
-19.97
-11.35
-2.95
4.17
9.47
12.95
14.93
15.87
16.1
15.8
15.01
13.82
12.43
11.17
10.41
10.45
11.44
13.33
15.91
18.76
21.37
23.17
23.62
22.41
19.56
15.5
10.92
6.56
2.94
0.19
-1.87
-3.64
-5.42
-7.37
-9.39
-11.34
-13.11
-14.72
-16.28
-17.9
-19.61
-21.44
-23.44
-25.78
-28.65
-32.05
-35.72
-39.01
-41.08
-41.15
-38.79
-34.04
-27.42
-19.68
-11.62
-3.89
3.06
8.88
13.39
16.46
18.14
18.65
18.37
17.77
17.28
17.14
17.38
17.84
18.33
18.73
19.03
19.31
19.62
19.89
19.88
19.28
17.84
15.5
12.43
8.97
5.45
2.15
-0.81
-3.44
-5.77
-7.88
-9.81
-11.65
-13.51
-15.49
-17.64
-19.99
-22.46
-25.01
-27.7
-30.65
-33.95
-37.49
-40.9
-43.53
-44.69
-43.81
-40.65
-35.38
-28.47
-20.58
-12.4
-4.57
2.42
8.29
12.89
16.27
18.57
19.95
20.57
20.58
20.16
19.54
18.94
18.52
18.36
18.39
18.49
18.56
18.54
18.45
18.32
18.17
17.93
17.54
16.88
15.89
14.55
12.91
11.02
8.98
6.85
4.65
2.33
-0.24
-3.11
-6.29
-9.65
-12.99
-16.08
-18.87
-21.46
-24.07
-27.03
-30.52
-34.51
-38.62
-42.22
-44.56
-44.91
-42.84
-38.34
-31.81
-23.94
-15.53
-7.25
0.37
7.04
12.58
16.89
19.96
21.87
22.75
22.83
22.38
21.61
20.77
20.05
19.6
19.54
19.86
20.51
21.35
22.2
22.92
23.4
23.54
23.27
22.51
21.24
19.52
17.46
15.26
13.05
10.92
8.8
6.53
3.95
0.96
-2.35
-5.82
-9.18
-12.23
-14.86
-17.17
-19.37
-21.77
-24.67
-28.31
-32.73
-37.66
-42.56
-46.62
-49.0
-49.02
-46.37
-41.18
-33.99
-25.56
-16.71
-8.11
-0.25
6.58
12.27
16.73
19.97
22.06
23.15
23.5
23.4
23.16
22.96
22.9
22.88
22.79
22.52
22.0
21.26
20.33
19.31
18.18
16.98
15.72
14.44
13.15
11.85
10.43
8.74
6.62
4.01
1.0
-2.14
-5.08
-7.55
-9.42
-10.82
-12.07
-13.59
-15.77
-18.9
-23.05
-28.01
-33.33
-38.21
-41.67
-42.79
-40.96
-36.19
-29.07
-20.63
-12.01
-4.08
2.63
7.95
11.92
14.65
16.26
16.87
16.68
15.97
15.01
14.02
13.16
12.5
12.16
12.27
13.0
14.46
16.64
19.34
22.21
24.75
26.44
26.89
25.96
23.75
20.55
16.7
12.55
8.36
4.31
0.62
-2.53
-4.94
-6.52
-7.45
-8.09
-8.99
-10.7
-13.58
-17.72
-22.92
-28.77
-34.68
-39.84
-43.34
-44.31
-42.13
-36.73
-28.68
-19.03
-8.95
0.63
9.22
16.72
23.13
28.33
32.01
33.85
33.75
32.0
29.17
25.94
22.8
19.98
17.47
15.33
13.7
12.87
13.08
14.26
15.96
17.4
17.8
16.68
14.02
10.25
5.99
1.8
-2.03
-5.51
-8.78
-11.94
-14.97
-17.73
-20.0
-21.67
-22.71
-23.31
-23.75
-24.39
-25.61
-27.74
-30.98
-35.31
-40.35
-45.41
-49.56
-51.87
-51.61
-48.49
-42.64
-34.61
-25.13
-14.98
-4.79
4.91
13.69
21.14
26.89
30.68
32.47
32.48
31.15
28.96
26.38
23.71
21.16
18.84
16.88
15.47
14.82
15.09
16.2
17.92
19.73
20.98
21.14
19.88
17.25
13.61
9.45
5.22
1.18
-2.59
-6.09
-9.27
-11.94
-13.9
-14.99
-15.3
-15.16
-15.05
-15.54
-17.01
-19.68
-23.45
-28.01
-32.8
-37.15
-40.35
-41.8
-41.15
-38.34
-33.57
-27.28
-19.94
-11.97
-3.72
4.57
12.6
19.97
26.22
30.91
33.77
34.85
34.43
33.01
31.04
28.86
26.62
24.45
22.47
20.89
19.87
19.5
19.6
19.81
19.7
18.96
17.5
15.47
13.1
10.66
8.3
6.0
3.68
1.27
-1.27
-3.85
-6.33
-8.52
-10.29
-11.61
-12.58
-13.44
-14.57
-16.36
-19.24
-23.43
-28.85
-35.02
-41.04
-45.73
-48.02
-47.22
-43.3
-36.84
-28.87
-20.43
-12.32
-4.88
1.87
8.08
13.84
19.05
23.44
26.71
28.66
29.34
28.99
28.02
26.8
25.62
24.62
23.81
23.25
22.97
23.1
23.66
24.58
25.6
26.41
26.67
26.18
24.88
22.85
20.18
16.93
13.09
8.63
3.6
-1.81
-7.3
-12.51
-17.22
-21.31
-24.82
-27.87
-30.52
-32.79
-34.6
-35.87
-36.45
-36.27
-35.2
-33.24
-30.39
-26.76
-22.51
-17.78
-12.74
-7.54
-2.35
2.57
6.87
10.29
12.66
14.14
15.08
15.94
17.09
18.66
20.51
22.3
23.67
24.36
24.24
23.27
21.52
19.13
16.34
13.51
11.08
9.44
8.72
8.74
9.02
8.99
8.11
6.14
3.09
-0.79
-5.17
-9.78
-14.47
-19.17
-23.96
-28.92
-34.07
-39.28
-44.13
-47.91
-49.72
-48.73
-44.5
-37.21
-27.7
-17.27
-7.24
1.33
7.91
12.45
15.23
16.66
17.07
16.71
15.78
14.56
13.43
12.87
13.32
15.01
17.84
21.3
24.72
27.35
28.62
28.35
26.63
23.78
20.18
16.16
11.98
7.88
4.12
1.01
-1.18
-2.29
-2.36
-1.75
-1.0
-0.74
-1.48
-3.45
-6.56
-10.47
-14.8
-19.3
-23.89
-28.66
-33.67
-38.76
-43.41
-46.83
-48.15
-46.72
-42.3
-35.15
-25.96
-15.67
-5.29
4.28
12.4
18.63
22.85
25.11
25.62
24.75
22.85
20.34
17.7
15.44
14.03
13.87
15.13
17.7
21.16
24.9
28.25
30.69
31.88
31.78
30.52
28.31
25.34
21.8
17.87
13.82
9.95
6.62
4.04
2.25
1.08
0.21
-0.63
-1.63
-2.8
-4.12
-5.62
-7.48
-10.02
-13.56
-18.27
-24.06
-30.57
-37.22
-43.35
-48.27
-51.34
-52.05
-50.05
-45.4
-38.46
-29.96
-20.74
-11.56
-2.96
4.75
11.4
16.76
20.56
22.52
22.5
20.68
17.51
13.71
10.08
7.35
6.15
6.83
9.5
13.96
19.76
26.16
32.29
37.23
40.2
40.72
38.67
34.39
28.55
21.93
15.22
8.85
2.95
-2.48
-7.47
-11.9
-15.49
-17.94
-19.07
-18.96
-17.99
-16.78
-16.07
-16.46
-18.34
-21.71
-26.13
-30.76
-34.55
-36.45
-35.76
-32.21
-26.08
-18.03
-8.85
0.74
10.15
18.89
26.47
32.35
35.96
36.92
35.23
31.33
26.05
20.4
15.25
11.15
8.34
6.78
6.3
6.7
7.87
9.81
12.61
16.38
21.08
26.31
31.33
35.1
36.66
35.43
31.46
25.35
18.02
10.27
2.66
-4.53
-11.19
-17.24
-22.61
-27.26
-31.25
-34.7
-37.59
-39.65
-40.38
-39.27
-36.11
-31.23
-25.4
-19.63
-14.72
-11.0
-8.3
-6.14
-4.07
-1.9
0.29
2.28
3.92
5.27
6.6
8.17
10.1
12.26
14.35
16.02
17.09
17.58
17.72
17.84
18.22
19.02
20.21
21.65
23.16
24.58
25.84
26.93
27.83
28.49
28.74
28.27
26.66
23.33
17.74
9.44
-1.64
-15.08
-29.93
-44.82
-58.32
-69.21
-76.78
-80.82
-81.47
-78.98
-73.72
-66.07
-56.58
-45.92
-34.81
-23.86
-13.51
-4.05
4.22
10.98
15.88
18.76
19.79
19.53
18.76
18.29
18.61
19.78
21.47
23.09
24.05
23.93
22.62
20.35
17.52
14.52
11.61
8.79
5.96
3.02
0.04
-2.76
-5.11
-6.92
-8.36
-9.81
-11.68
-14.15
-17.05
-19.86
-21.96
-23.02
-23.22
-23.32
-24.36
-27.3
-32.46
-39.35
-46.76
-53.12
-56.98
-57.42
-54.26
-47.94
-39.38
-29.73
-20.14
-11.58
-4.63
0.6
4.43
7.43
10.07
12.53
14.55
15.66
15.53
14.13
11.88
9.41
7.28
5.8
4.97
4.64
4.73
5.19
6.03
7.13
8.27
9.15
9.61
9.72
9.75
10.07
10.9
12.22
13.8
15.26
16.31
16.78
16.64
15.95
14.72
12.85
10.18
6.62
2.17
-2.97
-8.45
-13.84
-18.61
-22.16
-23.82
-22.99
-19.29
-12.83
-4.28
5.25
14.55
22.69
29.27
34.38
38.4
41.63
44.13
45.87
46.76
46.93
46.67
46.27
45.87
45.24
43.97
41.66
38.19
33.81
29.05
24.61
21.0
18.45
16.79
15.41
13.4
9.67
3.26
-6.4
-19.25
-34.55
-51.05
-67.39
-82.48
-95.73
-107.13
-116.97
-125.54
-132.84
-138.58
-142.33
-143.81
-143.23
-141.22
-138.6
-135.89
-132.98
-129.12
-123.12
-113.79
-100.14
-81.52
-57.47
-27.87
6.79
44.93
83.74
119.6
149.0
169.74
181.6
186.23
186.25
184.06
181.1
177.59
173.1
167.04
159.1
149.24
137.44
123.56
107.47
89.31
69.72
49.91
31.29
15.02
1.62
-9.17
-18.24
-26.7
-35.5
-45.14
-55.63
-66.62
-77.57
-87.98
-97.38
-105.37
-111.52
-115.36
-116.44
-114.37
-108.81
-99.6
-86.55
-69.62
-49.05
-25.61
-0.71
23.72
45.53
62.93
74.89
81.31
82.86
80.63
75.74
69.16
61.65
53.81
46.15
39.04
32.68
27.05
21.97
17.21
12.65
8.31
4.34
0.87
-2.03
-4.55
-6.93
-9.48
-12.26
-15.13
-17.86
-20.16
-21.95
-23.31
-24.53
-25.95
-27.96
-30.68
-34.08
-37.79
-41.26
-43.69
-44.25
-42.35
-37.78
-30.9
-22.35
-13.03
-3.83
4.61
11.95
18.2
23.47
27.93
31.63
34.84
37.74
40.28
42.34
43.79
44.68
45.04
44.9
44.13
43.07
41.83
40.26
38.04
35.19
32.2
29.73
28.27
27.79
28.51
29.96
30.94
30.01
26.52
20.96
14.75
9.63
7.21
9.72
18.27
32.18
48.95
65.32
78.26
85.68
86.87
76.24
53.28
23.25
-5.8
-28.46
-44.02
-54.23
-60.5
-63.01
-61.2
-54.2
-42.97
-30.03
-19.15
-12.95
-11.93
-14.75
-19.43
-24.45
-28.42
-31.09
-33.19
-35.72
-38.98
-42.43
-44.95
-45.89
-45.45
-44.21
-43.41
-44.58
-49.05
-57.05
-67.6
-78.7
-87.91
-92.95
-91.83
-83.66
-68.9
-49.3
-27.35
-5.69
13.48
28.69
39.25
45.3
47.33
46.0
41.99
36.16
29.49
23.07
17.77
14.04
11.86
10.78
10.22
9.65
8.76
7.48
5.91
4.23
2.52
0.76
-1.15
-3.34
-5.93
-8.95
-12.33
-15.99
-19.97
-24.37
-29.29
-34.64
-39.98
-44.44
-46.93
-46.47
-42.47
-35.02
-24.79
-12.89
-0.52
11.24
21.59
29.95
36.01
39.66
40.98
40.32
38.18
35.22
32.04
29.15
26.83
25.16
23.98
23.12
22.4
21.78
21.2
20.56
19.58
17.91
15.21
11.39
6.65
1.43
-3.82
-8.76
-13.39
-17.95
-22.84
-28.46
-35.07
-42.64
-50.7
-58.24
-63.88
-66.15
-64.03
-57.32
-46.72
-33.62
-19.54
-5.73
7.11
18.68
28.96
37.85
45.17
50.7
54.33
56.22
56.75
56.39
55.66
54.91
54.36
54.0
53.71
53.28
52.53
51.36
49.8
47.93
45.74
43.15
39.95
35.94
31.09
25.59
19.9
14.48
9.77
5.92
2.79
0.03
-2.83
-6.27
-10.77
-16.7
-24.26
-33.3
-43.18
-52.65
-60.16
-64.21
-63.85
-59.0
-50.42
-39.42
-27.42
-15.47
-4.18
6.26
15.85
24.52
32.06
38.13
42.45
44.84
45.41
44.44
42.41
39.84
37.28
35.16
33.75
32.97
32.42
31.35
28.89
24.3
17.26
8.09
-2.31
-12.57
-21.31
-27.46
-30.5
-30.66
-28.7
-25.65
-22.51
-19.92
-18.09
-16.89
-16.03
-15.28
-14.61
-14.22
-14.52
-15.99
-19.02
-23.66
-29.56
-35.8
-41.14
-44.19
-43.95
-39.99
-32.66
-22.93
-12.07
-1.18
8.95
17.95
25.67
31.88
36.13
37.76
36.18
31.21
23.38
13.95
4.63
-2.91
-7.56
-9.01
-7.72
-4.64
-0.79
3.05
6.45
9.25
11.42
12.97
13.94
14.47
14.78
15.21
15.93
16.93
17.87
18.29
17.75
16.09
13.4
10.01
6.2
1.96
-2.96
-9.0
-16.44
-25.12
-34.23
-42.46
-48.33
-50.66
-49.0
-43.81
-36.29
-27.86
-19.78
-12.67
-6.54
-1.01
4.28
9.43
14.26
18.48
21.94
24.79
27.4
30.08
32.87
35.48
37.38
38.16
37.65
36.09
33.94
31.67
29.57
27.58
25.4
22.61
18.89
14.14
8.59
2.59
-3.41
-9.07
-14.21
-18.85
-23.24
-27.73
-32.72
-38.46
-44.92
-51.65
-57.74
-62.08
-63.54
-61.45
-55.71
-46.91
-36.13
-24.58
-13.31
-2.95
6.26
14.35
21.34
27.11
31.37
33.83
34.34
33.11
30.63
27.55
24.41
21.62
19.38
17.79
16.98
17.1
18.19
20.05
22.14
23.74
24.16
23.03
20.43
16.89
13.13
9.79
7.22
5.41
4.0
2.51
0.49
-2.32
-5.97
-10.34
-15.23
-20.42
-25.75
-31.15
-36.62
-42.19
-47.85
-53.39
-58.36
-62.02
-63.57
-62.38
-58.22
-51.49
-43.0
-33.72
-24.4
-15.42
-6.8
1.63
9.88
17.81
25.11
31.46
36.62
40.57
43.4
45.26
46.24
46.4
45.78
44.43
42.43
39.97
37.33
34.79
32.64
31.0
29.8
28.74
27.43
25.59
23.06
20.0
16.71
13.46
10.35
7.21
3.79
-0.12
-4.44
-8.75
-12.48
-15.21
-16.83
-17.75
-18.72
-20.64
-24.25
-29.79
-37.0
-45.09
-52.94
-59.29
-63.02
-63.34
-59.92
-52.97
-43.2
-31.58
-19.14
-6.76
5.0
15.81
25.37
33.18
38.51
40.45
38.36
32.26
23.13
12.87
3.83
-1.78
-2.49
2.09
11.32
23.86
38.07
52.34
65.15
75.09
80.88
81.52
76.6
66.6
52.96
37.84
23.53
11.88
3.84
-0.58
-2.06
-1.73
-0.68
0.02
-0.51
-3.06
-8.31
-16.72
-28.36
-42.78
-58.9
-75.07
-89.44
-100.37
-106.75
-108.32
-105.49
-98.99
-89.52
-77.6
-63.58
-47.95
-31.58
-15.65
-1.44
10.02
18.16
22.99
24.85
24.35
22.11
18.72
14.75
10.69
7.03
4.17
2.35
1.74
2.38
4.19
6.99
10.45
14.06
17.27
19.51
20.39
19.74
17.64
14.31
10.11
5.47
0.83
-3.32
-6.49
-8.27
-8.39
-6.75
-3.47
1.09
6.42
11.8
16.41
19.36
19.9
17.52
12.16
4.31
-5.06
-14.62
-22.91
-28.73
-31.28
-30.38
-26.39
-20.07
-12.39
-4.2
3.9
11.57
18.7
25.21
30.8
34.96
36.98
36.27
32.57
26.23
18.15
9.57
1.71
-4.51
-8.68
-10.83
-11.24
-10.28
-8.21
-5.22
-1.45
2.93
7.72
12.65
17.37
21.42
24.25
25.22
23.77
19.58
12.68
3.51
-7.18
-18.39
-29.09
-38.34
-45.45
-50.13
-52.56
-53.26
-52.86
-51.73
-49.8
-46.58
-41.45
-34.17
-25.14
-15.45
-6.58
0.12
3.89
4.78
3.51
1.14
-1.34
-3.26
-4.29
-4.32
-3.28
-1.1
2.34
7.01
12.7
18.93
25.1
30.59
34.84
37.46
38.17
36.85
33.55
28.54
22.32
15.59
9.11
3.59
-0.49
-2.93
-3.81
-3.46
-2.34
-1.09
-0.45
-1.25
-4.31
-10.22
-19.04
-30.16
-42.31
-53.9
-63.4
-69.81
-72.77
-72.41
-69.1
-63.15
-54.69
-43.83
-30.81
-16.19
-0.84
14.12
27.61
38.84
47.4
53.3
56.89
58.7
59.28
59.06
58.25
56.82
54.49
50.83
45.32
37.6
27.68
16.11
4.06
-6.89
-15.19
-19.71
-20.15
-17.05
-11.59
-5.14
1.16
6.62
10.98
14.3
16.69
18.25
19.08
19.28
18.98
18.25
17.03
15.1
12.12
7.9
2.46
-3.88
-10.57
-17.05
-22.94
-28.08
-32.42
-35.94
-38.53
-40.05
-40.54
-40.21
-39.5
-38.83
-38.43
-38.19
-37.71
-36.5
-34.27
-31.01
-27.06
-22.81
-18.57
-14.41
-10.22
-5.84
-1.26
3.38
7.84
12.0
15.93
19.87
24.11
28.75
33.61
38.2
41.9
44.1
44.39
42.59
38.86
33.66
27.69
21.77
16.64
12.7
9.93
7.88
5.96
3.73
1.07
-1.81
-4.62
-7.26
-9.91
-13.03
-17.02
-22.03
-27.79
-33.78
-39.41
-44.22
-47.83
-49.91
-49.95
-47.42
-41.87
-33.3
-22.29
-9.95
2.3
13.11
21.59
27.3
30.34
31.06
29.92
27.42
24.02
20.21
16.52
13.44
11.38
10.56
10.93
12.19
13.9
15.62
17.02
17.97
18.57
19.02
19.53
20.11
20.49
20.22
18.8
15.93
11.7
6.6
1.35
-3.35
-6.98
-9.41
-10.77
-11.42
-11.75
-12.17
-13.06
-14.76
-17.48
-21.19
-25.52
-29.7
-32.72
-33.62
-31.82
-27.29
-20.56
-12.5
-4.0
4.25
11.85
18.54
24.16
28.5
31.43
32.99
33.46
33.34
33.11
33.08
33.16
32.98
32.07
30.1
27.1
23.44
19.7
