-22.24
-12.44
-2.89
5.68
12.8
18.25
21.96
24.04
24.67
24.1
22.67
20.84
19.13
18.05
17.97
18.97
20.82
23.08
25.3
27.13
28.45
29.25
29.58
29.45
28.7
27.21
24.92
21.94
18.54
15.09
11.86
8.96
6.31
3.7
0.92
-2.13
-5.43
-8.77
-11.96
-14.82
-17.28
-19.42
-21.4
-23.49
-25.97
-29.07
-32.91
-37.3
-41.8
-45.67
-48.07
-48.22
-45.66
-40.41
-32.96
-24.12
-14.82
-5.86
2.18
9.02
14.58
18.8
21.69
23.28
23.7
23.18
22.11
20.92
19.98
19.51
19.53
19.93
20.5
21.06
21.51
21.77
21.83
21.66
21.2
20.41
19.23
17.67
15.78
13.67
11.47
9.27
7.06
4.76
2.21
-0.64
-3.79
-7.06
-10.21
-13.04
-15.52
-17.79
-20.16
-23.0
-26.59
-31.0
-35.97
-40.93
-45.1
-47.59
-47.64
-44.83
-39.15
-31.06
-21.38
-11.02
-0.89
8.35
16.22
22.5
27.06
29.87
30.99
30.61
29.08
26.88
24.53
22.47
20.93
19.9
19.18
18.53
17.76
16.89
16.05
15.43
15.07
14.8
14.3
13.27
11.57
9.28
6.76
4.36
2.32
0.66
-0.83
-2.4
-4.26
-6.45
-8.86
-11.35
-13.76
-15.98
-18.05
-20.08
-22.3
-25.07
-28.72
-33.46
-39.11
-45.04
-50.18
-53.25
-53.17
-49.41
-42.16
-32.33
-21.19
-10.03
0.14
8.81
15.82
21.21
25.06
27.41
28.27
27.77
26.22
24.09
21.94
20.23
19.23
18.97
19.29
19.98
20.84
21.78
22.73
23.59
24.22
24.41
23.98
22.82
20.93
18.5
15.76
12.96
10.26
7.68
5.05
2.15
-1.21
-5.03
-9.09
-13.04
-16.52
-19.38
-21.67
-23.65
-25.66
-28.02
-30.99
-34.67
-38.94
-43.39
-47.2
-49.31
-48.66
-44.62
-37.2
-27.11
-15.54
-3.77
7.17
16.68
24.48
30.46
34.57
36.75
37.01
35.56
32.86
29.5
26.15
23.29
21.15
19.7
18.72
18.02
17.54
17.37
17.62
18.33
19.29
20.16
20.52
20.09
18.8
16.86
14.52
12.01
9.45
6.82
4.09
1.24
-1.67
-4.58
-7.45
-10.27
-13.04
-15.74
-18.4
-21.08
-23.89
-27.06
-30.76
-35.0
-39.56
-43.89
-47.18
-48.55
-47.29
-43.05
-35.99
-26.81
-16.5
-6.19
3.27
11.31
17.69
22.36
25.33
26.61
26.28
24.54
21.86
18.79
15.89
13.57
11.99
11.13
10.9
11.25
12.15
13.53
15.21
16.86
18.1
18.58
18.26
17.33
16.11
14.98
14.09
13.38
12.62
11.61
10.25
8.65
7.13
6.07
5.78
6.4
7.86
9.85
11.95
13.65
14.61
14.74
14.41
14.32
15.37
18.28
23.3
30.12
37.88
45.55
52.17
57.19
60.45
62.02
62.08
60.68
57.72
52.98
46.32
37.78
27.66
16.61
5.51
-4.65
-13.02
-19.09
-22.86
-24.77
-25.55
-25.96
-26.51
-27.3
-28.11
-28.55
-28.25
-27.04
-24.96
-22.28
-19.42
-16.91
-15.29
-15.04
-16.48
-19.63
-24.32
-30.2
-36.94
-44.3
-52.11
-60.33
-68.91
-77.7
-86.45
-94.71
-101.82
-106.95
-109.21
-107.93
-102.83
-94.23
-82.94
-70.03
-56.59
-43.39
-30.93
-19.49
-9.32
-0.73
5.93
10.47
12.94
13.79
13.65
13.2
12.92
13.0
13.4
13.98
14.7
15.61
16.87
18.58
20.68
22.94
25.02
26.61
27.49
27.59
26.92
25.58
23.69
21.34
18.65
15.73
12.64
9.43
6.19
3.05
0.2
-2.22
-4.21
-5.94
-7.77
-10.12
-13.27
-17.31
-22.01
-26.8
-30.86
-33.3
-33.3
-30.42
-24.7
-16.7
-7.28
2.56
12.01
20.51
27.77
33.65
38.03
40.88
42.23
42.3
41.46
40.22
39.03
38.27
38.1
38.51
39.4
40.57
41.83
42.96
43.75
43.96
43.38
41.9
39.53
36.43
32.85
29.06
25.23
21.45
17.69
13.93
10.18
6.51
3.07
-0.0
-2.62
-4.78
-6.63
-8.41
-10.42
-12.95
-16.16
-20.0
-24.15
-27.98
-30.74
-31.73
-30.57
-27.33
-22.56
-17.08
-11.66
-6.83
-2.8
0.47
3.07
5.01
6.17
6.39
5.65
4.18
2.4
0.81
-0.15
-0.27
0.36
1.52
2.87
4.14
5.15
5.85
6.25
6.37
6.17
5.54
4.33
2.43
-0.12
-3.1
-6.15
-8.88
-11.07
-12.7
-14.01
-15.34
-17.01
-19.23
-22.03
-25.34
-28.93
-32.41
-35.2
-36.57
-35.86
-32.67
-27.07
-19.54
-10.92
-2.08
6.26
13.57
19.51
23.85
26.43
27.21
26.36
24.25
21.44
18.5
15.95
14.11
13.11
12.89
13.28
14.1
15.19
16.44
17.77
19.06
20.22
21.11
21.59
21.58
20.99
19.78
17.94
15.56
12.79
9.87
7.0
4.37
1.94
-0.45
-3.07
-6.22
-10.07
-14.66
-19.76
-24.84
-29.1
-31.57
-31.38
-28.06
-21.72
-13.03
-3.03
7.19
16.79
25.29
32.52
38.42
43.03
46.36
48.43
49.37
49.44
49.02
48.51
48.27
48.46
49.1
50.0
50.95
51.78
52.36
52.57
52.14
50.68
47.79
43.28
37.35
30.61
23.79
17.49
11.91
6.86
1.97
-3.07
-8.32
-13.62
-18.79
-23.75
-28.67
-33.85
-39.61
-46.09
-53.19
-60.45
-67.13
-72.28
-74.99
-74.65
-71.15
-65.03
-57.27
-49.02
-41.21
-34.36
-28.57
-23.71
-19.65
-16.35
-13.87
-12.24
-11.35
-10.93
-10.63
-10.2
-9.52
-8.64
-7.68
-6.72
-5.78
-4.76
-3.6
-2.25
-0.81
0.55
1.5
1.74
1.07
-0.53
-2.91
-5.84
-9.09
-12.55
-16.22
-20.13
-24.24
-28.34
-32.24
-35.83
-39.23
-42.8
-46.86
-51.44
-56.08
-59.89
-61.76
-60.84
-56.8
-49.92
-40.93
-30.77
-20.31
-10.28
-1.21
6.44
12.33
16.4
18.88
20.4
21.8
23.9
27.2
31.73
37.16
42.83
48.13
52.55
55.84
57.96
59.0
59.05
58.18
56.37
53.57
49.72
44.8
38.83
31.91
24.24
16.06
7.63
-0.74
-8.79
-16.3
-23.11
-29.14
-34.45
-39.19
-43.53
-47.61
-51.54
-55.26
-58.58
-61.11
-62.29
-61.56
-58.49
-52.94
-45.24
-36.08
-26.44
-17.33
-9.6
-3.83
-0.24
1.26
0.94
-0.71
-3.15
-5.89
-8.49
-10.67
-12.27
-13.23
-13.57
-13.37
-12.81
-12.07
-11.33
-10.74
-10.29
-9.93
-9.57
-9.16
-8.73
-8.43
-8.48
-9.05
-10.27
-12.09
-14.33
-16.72
-19.0
-21.04
-22.9
-24.83
-27.23
-30.46
-34.72
-39.86
-45.31
-50.08
-52.96
-52.84
-49.02
-41.49
-30.94
-18.53
-5.62
6.65
17.54
26.7
34.08
39.73
43.7
46.11
47.13
47.1
46.45
45.62
44.9
44.42
44.19
44.16
44.36
44.85
45.7
46.84
48.02
48.92
49.21
48.75
47.59
45.92
44.03
42.16
40.47
39.01
37.8
36.77
35.86
34.99
34.06
32.99
31.77
30.46
29.16
28.02
27.05
26.09
24.76
22.63
19.44
15.4
11.23
8.01
6.81
8.26
12.45
18.92
26.96
35.87
45.03
53.76
61.12
66.08
67.76
65.86
60.88
53.88
46.06
38.25
30.77
23.55
16.51
9.82
3.91
-0.74
-3.92
-5.79
-6.89
-7.92
-9.48
-11.9
-15.22
-19.16
-23.4
-27.66
-31.81
-35.86
-39.83
-43.66
-47.14
-50.02
-52.07
-53.29
-53.83
-53.99
-54.11
-54.59
-55.87
-58.4
-62.44
-67.86
-73.92
-79.39
-82.93
-83.53
-80.83
-75.19
-67.47
-58.64
-49.52
-40.68
-32.54
-25.48
-19.88
-16.02
-13.95
-13.4
-13.85
-14.78
-15.75
-16.58
-17.24
-17.74
-18.06
-18.11
-17.77
-17.06
-16.08
-15.06
-14.18
-13.5
-12.85
-11.91
-10.31
-7.75
-4.15
0.39
5.58
11.08
16.52
21.63
26.16
29.91
32.69
34.28
34.48
33.09
30.0
25.21
18.9
11.57
4.06
-2.54
-7.14
-8.93
-7.69
-3.81
1.89
8.43
15.0
21.05
26.25
30.37
33.2
34.61
34.57
33.33
31.28
28.85
26.35
23.97
21.74
19.72
17.96
16.53
15.45
14.67
14.1
13.66
13.32
13.04
12.75
12.38
11.75
10.75
9.33
7.55
5.5
3.26
0.83
-1.78
-4.56
-7.37
-10.02
-12.38
-14.51
-16.66
-19.21
-22.42
-26.25
-30.22
-33.53
-35.23
-34.65
-31.56
-26.27
-19.42
-11.79
-4.06
3.29
9.91
15.54
19.94
22.96
24.57
24.92
24.3
23.06
21.55
20.1
18.96
18.37
18.44
19.16
20.36
21.78
23.13
24.21
24.92
25.27
25.28
24.96
24.32
23.36
22.09
20.49
18.46
15.87
12.55
8.51
3.89
-0.96
-5.62
-9.75
-13.22
-16.1
-18.66
-21.17
-23.87
-26.8
-29.84
-32.63
-34.69
-35.48
-34.53
-31.59
-26.73
-20.31
-12.88
-5.09
2.47
9.33
15.22
19.97
23.55
26.0
27.39
27.89
27.64
26.94
26.1
25.47
25.3
25.71
26.65
27.91
29.22
30.38
31.27
31.82
31.99
31.68
30.77
29.17
26.88
24.08
21.01
17.96
15.1
12.49
10.06
7.67
5.2
2.56
-0.28
-3.33
-6.54
-9.87
-13.26
-16.71
-20.23
-23.91
-27.91
-32.41
-37.47
-42.98
-48.55
-53.49
-56.93
-58.09
-56.47
-52.06
-45.31
-37.02
-28.02
-19.01
-10.37
-2.33
4.97
11.39
16.65
20.56
23.03
24.22
24.49
24.3
24.09
24.15
24.65
25.59
26.88
28.33
29.66
30.61
30.92
30.52
29.47
28.02
26.44
24.86
23.24
21.36
19.02
16.17
12.94
9.72
6.88
4.63
2.97
1.64
0.29
-1.39
-3.56
-6.23
-9.32
-12.68
-16.11
-19.34
-22.13
-24.36
-26.14
-27.85
-30.0
-32.98
-36.77
-40.8
-44.06
-45.48
-44.3
-40.38
-34.16
-26.44
-18.07
-9.72
-1.8
5.42
11.67
16.68
20.21
22.29
23.18
23.33
23.2
23.08
23.03
22.97
22.83
22.68
22.6
22.67
22.83
22.82
22.36
21.27
19.59
17.52
15.35
13.3
11.46
9.79
8.26
6.91
5.87
5.23
4.94
4.75
4.24
3.05
1.01
-1.75
-4.88
-7.99
-10.8
-13.31
-15.7
-18.17
-20.79
-23.45
-25.9
-27.93
-29.61
-31.29
-33.51
-36.78
-41.32
-46.89
-52.75
-57.88
-61.25
-62.15
-60.29
-55.87
-49.32
-41.16
-31.74
-21.29
-9.98
2.04
14.62
27.62
40.95
54.52
68.14
81.39
93.64
104.2
112.57
118.56
122.31
124.1
124.22
122.83
119.96
115.72
110.36
104.24
97.67
90.68
82.88
73.49
61.56
46.45
28.11
7.37
-14.24
-34.86
-52.84
-67.29
-78.24
-86.45
-92.95
-98.59
-103.76
-108.43
-112.51
-116.05
-119.32
-122.65
-126.1
-129.41
-132.06
-133.63
-134.02
-133.62
-133.0
-132.62
-132.41
-131.68
-129.34
-124.23
-115.62
-103.48
-88.53
-72.01
-55.29
-39.43
-24.99
-12.02
-0.32
10.3
19.82
28.0
34.64
39.68
43.43
46.37
49.0
51.62
54.28
56.89
59.27
61.34
63.08
64.48
65.52
66.17
66.33
65.97
65.07
63.61
61.58
59.01
56.0
52.7
49.34
46.12
43.11
40.29
37.5
34.55
31.32
27.78
24.03
20.19
16.4
12.69
9.03
5.31
1.4
-2.81
-7.43
-12.51
-17.92
-23.36
-28.28
-32.02
-33.95
-33.65
-31.06
-26.48
-20.46
-13.71
-6.87
-0.47
5.12
9.66
13.04
15.25
16.41
16.78
16.61
16.2
15.77
15.45
15.31
15.36
15.62
16.09
16.81
17.73
18.72
19.61
20.21
20.39
20.12
19.4
18.27
16.78
14.9
12.66
10.1
7.3
4.34
1.31
-1.75
-4.77
-7.68
-10.39
-12.8
-14.92
-16.92
-19.08
-21.74
-25.13
-29.19
-33.56
-37.57
-40.45
-41.49
-40.24
-36.6
-30.83
-23.5
-15.32
-7.03
0.76
7.67
13.51
18.22
21.79
24.17
25.33
25.27
24.17
22.38
20.34
18.51
17.18
16.47
16.29
16.48
16.87
17.28
17.54
17.47
16.93
15.83
14.2
12.14
9.8
7.31
4.7
1.96
-0.93
-3.91
-6.85
-9.65
-12.24
-14.66
-17.01
-19.31
-21.59
-23.84
-26.09
-28.44
-30.93
-33.39
-35.36
-36.07
-34.81
-31.1
-24.99
-16.97
-7.89
1.39
10.09
17.65
23.69
28.05
30.73
31.95
32.09
31.57
30.67
29.44
27.62
24.8
20.53
14.58
7.02
-1.65
-10.76
-19.57
-27.52
-34.3
-39.9
-44.45
-48.13
-51.11
-53.45
-55.06
-55.77
-55.28
-53.32
-49.69
-44.39
-37.69
-30.03
-22.03
-14.37
-7.69
-2.64
0.22
0.51
-1.86
-6.52
-12.63
-18.96
-24.11
-26.94
-26.73
-23.44
-17.53
-9.88
-1.47
6.87
14.52
21.17
26.68
31.01
34.16
36.11
36.88
36.62
35.64
34.36
33.19
32.43
32.07
31.92
31.73
31.31
30.64
29.82
28.94
27.93
26.6
24.72
22.16
19.0
15.52
12.04
8.77
5.78
3.0
0.4
-1.98
-4.01
-5.5
-6.37
-6.7
-6.7
-6.69
-6.99
-7.88
-9.53
-12.02
-15.27
-18.98
-22.62
-25.52
-26.94
-26.33
-23.47
-18.57
-12.18
-5.05
2.11
8.72
14.46
19.17
22.77
25.18
26.39
26.4
25.31
23.39
20.95
18.37
15.95
13.85
12.07
10.48
8.92
7.27
5.51
3.71
2.01
0.53
-0.61
-1.31
-1.39
-0.67
1.03
3.73
7.24
11.14
14.95
18.18
20.64
22.37
23.66
24.8
25.94
26.99
27.59
27.33
25.86
23.1
19.23
14.64
9.8
5.28
1.54
-0.99
-2.08
-1.78
-0.46
1.25
2.61
3.05
2.32
0.54
-1.92
-4.67
-7.46
-10.26
-13.08
-15.94
-18.7
-21.1
-22.89
-23.95
-24.31
-24.16
-23.73
-23.17
-22.57
-21.96
-21.36
-20.84
-20.45
-20.19
-19.97
-19.62
-18.96
-17.92
-16.57
-15.1
-13.8
-12.92
-12.65
-13.08
-14.26
-16.13
-18.63
-21.66
-24.98
-28.28
-31.05
-32.75
-32.84
-30.94
-27.01
-21.34
-14.51
-7.16
0.1
6.87
12.93
18.16
22.46
25.74
27.86
28.83
28.76
27.95
26.8
25.71
24.95
24.63
24.66
24.82
24.88
24.68
24.15
23.39
22.52
21.6
20.53
19.11
17.08
14.35
11.06
7.52
4.16
1.25
-1.15
-3.22
-5.29
-7.66
-10.53
-13.95
-17.86
-22.03
-26.09
-29.44
-31.46
-31.54
-29.36
-25.01
-18.92
-11.84
-4.54
2.32
8.31
13.29
17.24
20.24
22.33
23.48
23.7
23.03
21.71
20.05
18.4
17.01
15.97
15.2
14.56
13.94
13.3
12.65
12.0
11.32
10.57
9.69
8.65
7.4
5.91
4.16
2.13
-0.13
-2.52
-4.95
-7.4
-9.95
-12.73
-15.9
-19.61
-23.92
-28.72
-33.75
-38.54
-42.44
-44.73
-44.81
-42.35
-37.46
-30.67
-22.74
-14.45
-6.41
0.99
7.55
13.12
17.56
20.75
22.69
23.52
23.55
23.16
22.7
22.43
22.44
22.77
23.35
24.07
24.83
25.49
25.97
26.17
25.99
25.32
24.06
22.15
19.67
16.82
13.87
11.07
8.51
6.09
3.61
0.83
-2.33
-5.8
-9.45
-13.15
-16.9
-20.84
-25.13
-29.87
-35.06
-40.4
-45.44
-49.55
-52.08
-52.51
-50.54
-46.23
-39.94
-32.26
-23.86
-15.35
-7.2
0.17
6.48
11.55
15.3
17.83
19.39
20.29
20.87
21.34
21.77
22.15
22.43
22.56
22.54
22.42
22.23
21.99
21.64
21.13
20.33
19.12
17.46
15.36
12.94
10.35
7.71
5.1
2.47
-0.23
-3.08
-6.05
-9.01
-11.74
-14.0
-15.58
-16.35
-16.32
-15.74
-15.08
-14.94
-15.94
-18.42
-22.23
-26.71
-30.79
-33.33
-33.49
-30.95
-25.97
-19.22
-11.55
-3.71
3.72
10.43
16.32
21.41
25.78
29.46
32.43
34.6
35.91
36.39
36.16
35.47
34.56
33.61
32.72
31.87
31.06
30.27
29.49
28.67
27.67
26.29
24.31
21.6
18.2
14.27
10.09
5.96
2.09
-1.41
-4.59
-7.56
-10.4
-13.09
-15.38
-17.0
-17.77
-17.78
-17.54
-17.79
-19.32
-22.65
-27.86
-34.56
-42.1
-49.7
-56.61
-62.18
-65.87
-67.32
-66.33
-63.02
-57.69
-50.82
-42.97
-34.64
-26.33
-18.53
-11.76
-6.48
-2.86
-0.41
2.16
6.86
15.85
30.59
51.08
75.67
101.48
125.42
145.22
160.08
170.62
178.33
184.73
190.73
196.33
200.5
201.51
197.33
186.29
167.75
142.54
112.72
80.72
48.22
15.27
-19.66
-58.79
-103.62
-153.75
-206.52
-257.64
-302.37
-336.8
-358.7
-367.76
-365.22
-353.34
-334.8
-312.13
-287.3
-261.48
-235.04
-207.67
-178.67
-147.36
-113.25
-76.32
-37.04
3.7
44.8
85.01
123.01
157.44
186.87
210.01
225.84
234.02
234.94
229.72
219.87
206.89
192.0
176.03
159.59
143.27
127.7
113.53
101.13
90.51
81.29
72.87
64.7
56.52
48.4
40.58
33.26
26.46
19.9
13.18
5.97
-1.88
-10.24
-18.78
-27.09
-34.84
-41.84
-48.0
-53.36
-57.92
-61.74
-64.79
-67.01
-68.24
-68.35
-67.15
-64.55
-60.55
-55.28
-48.94
-41.77
-34.07
-26.15
-18.37
-11.02
-4.36
1.47
6.41
10.43
13.53
15.65
16.75
16.87
16.14
14.77
13.06
11.27
9.57
8.05
6.7
5.41
4.06
2.52
0.69
-1.42
-3.68
-5.88
-7.79
-9.26
-10.29
-11.01
-11.59
-12.19
-12.89
-13.67
-14.47
-15.27
-16.08
-16.94
-17.99
-19.36
-21.2
-23.6
-26.54
-29.72
-32.62
-34.51
-34.67
-32.62
-28.27
-21.98
-14.45
-6.48
1.2
8.01
13.57
17.66
20.19
21.18
20.82
19.46
17.57
15.6
13.98
12.96
12.59
12.73
13.12
13.5
13.66
13.51
13.08
12.45
11.65
10.67
9.44
7.87
5.94
3.7
1.29
-1.17
-3.54
-5.78
-7.96
-10.29
-13.03
-16.46
-20.75
-25.83
-31.38
-36.81
-41.45
-44.58
-45.7
-44.56
-41.22
-35.98
-29.29
-21.68
-13.64
-5.65
1.84
8.44
13.76
17.63
19.98
20.98
20.91
20.12
18.96
17.79
16.88
16.46
16.61
17.23
18.04
18.73
19.01
18.74
17.94
16.71
15.19
13.39
11.27
8.82
6.02
3.02
-0.05
-3.02
-5.8
-8.42
-10.96
-13.55
-16.3
-19.34
-22.8
-26.77
-31.26
-36.07
-40.69
-44.41
-46.41
-46.09
-43.2
-37.95
-30.93
-22.86
-14.44
-6.18
1.54
8.51
14.54
19.45
23.15
25.63
27.0
27.48
27.33
26.83
26.18
25.54
25.01
24.67
24.54
24.58
24.69
24.68
24.35
23.57
22.35
20.81
19.13
17.43
15.75
14.0
12.07
9.78
7.08
3.95
0.47
-3.23
-7.0
-10.72
-14.29
-17.72
-21.13
-24.74
-28.77
-33.31
-38.13
-42.68
-46.05
-47.33
-45.84
-41.43
-34.53
-26.02
-16.97
-8.26
-0.45
6.26
11.86
16.42
19.9
22.24
23.43
23.62
23.17
22.48
21.97
21.88
22.21
22.81
23.48
24.07
24.59
25.14
25.81
26.56
27.22
27.48
27.06
25.8
23.78
21.22
18.39
15.53
12.71
9.88
6.89
3.58
-0.09
-4.05
-8.1
-12.03
-15.66
-18.92
-21.89
-24.74
-27.72
-31.03
-34.76
-38.78
-42.68
-45.83
-47.49
-47.03
-44.12
-38.82
-31.56
-22.99
-13.84
-4.73
3.89
11.67
18.36
23.76
27.7
30.13
31.1
30.88
29.84
28.37
26.83
25.42
24.22
23.23
22.42
21.86
21.58
21.64
21.93
22.27
22.38
22.02
21.01
19.35
17.14
14.53
11.7
8.77
5.78
2.68
-0.66
-4.38
-8.5
-12.86
-17.18
-21.11
-24.35
-26.77
-28.4
-29.52
-30.55
-32.0
-34.28
-37.57
-41.63
-45.73
-48.82
-49.79
-47.95
-43.24
-36.31
-28.18
-19.89
-12.15
-5.25
0.84
6.21
10.89
14.8
17.77
19.82
21.04
21.66
21.99
22.25
22.58
23.06
23.74
24.66
25.81
27.21
28.8
30.45
31.93
32.98
33.29
32.69
31.17
28.91
26.19
23.25
20.27
17.31
14.33
11.22
7.9
4.3
0.41
-3.69
-7.85
-11.81
-15.4
-18.53
-21.31
-24.01
-27.0
-30.52
-34.53
-38.65
-42.2
-44.33
-44.31
-41.66
-36.35
-28.74
-19.57
-9.7
-0.04
8.72
16.07
21.79
25.85
28.38
29.6
29.82
29.41
28.71
28.0
27.47
27.14
26.94
26.8
26.68
26.63
26.76
27.15
27.76
28.38
28.68
28.3
26.98
24.71
21.69
18.25
14.78
11.44
8.2
4.84
1.11
-3.1
-7.7
-12.43
-16.99
-21.18
-25.0
-28.59
-32.18
-35.97
-40.09
-44.51
-49.01
-53.12
-56.2
-57.47
-56.26
-52.23
-45.55
-36.85
-27.05
-17.07
-7.62
0.97
8.61
15.32
21.11
25.82
29.27
31.31
32.04
31.74
30.84
29.74
28.73
27.91
27.24
26.66
26.13
25.63
25.12
24.5
23.65
22.4
20.67
18.45
15.93
13.34
10.86
8.58
6.36
3.99
1.21
-2.09
-5.81
-9.67
-13.28
-16.35
-18.78
-20.7
-22.5
-24.68
-27.69
-31.71
-36.55
-41.53
-45.64
-47.75
-47.0
-43.09
-36.39
-27.75
-18.23
-8.79
-0.1
7.45
13.71
18.55
21.93
23.82
24.32
23.64
22.09
20.08
17.99
16.13
14.71
13.76
13.24
13.1
13.29
13.8
14.52
15.25
15.66
15.36
14.14
12.04
9.34
6.45
3.73
1.32
-0.89
-3.13
-5.6
-8.37
-11.34
-14.33
-17.11
-19.65
-22.02
-24.46
-27.25
-30.62
-34.68
-39.31
-44.1
-48.38
-51.27
-51.89
-49.65
-44.4
-36.49
-26.74
-16.17
-5.8
3.62
11.63
18.05
22.89
26.25
28.24
28.99
28.7
27.64
26.13
24.6
23.38
22.73
22.71
23.21
24.03
24.9
25.63
26.05
26.0
25.36
24.01
21.89
19.11
15.88
12.5
9.27
6.28
3.47
0.64
-2.44
-5.84
-9.43
-12.94
-16.07
-18.72
-21.01
-23.29
-26.02
-29.58
-34.12
-39.4
-44.79
-49.31
-51.87
-51.49
-47.66
-40.49
-30.76
-19.67
-8.54
1.61
10.2
17.09
22.4
26.27
28.82
30.07
30.12
29.21
27.73
26.13
24.81
24.01
23.8
24.11
24.78
25.63
26.47
27.13
27.5
27.45
26.9
25.8
24.12
21.85
19.02
15.71
12.03
8.11
4.11
0.19
-3.55
-7.05
-10.35
-13.62
-17.12
-21.17
-26.04
-31.82
-38.32
-44.98
-50.93
-55.16
-56.79
-55.27
-50.55
-43.1
-33.77
-23.54
-13.35
-3.95
4.16
10.71
15.67
19.16
21.4
22.62
23.08
23.0
22.57
21.99
21.41
20.93
20.54
20.12
19.5
18.56
17.23
15.6
13.88
12.27
10.95
9.89
8.97
7.94
6.57
4.78
2.64
0.37
-1.82
-3.75
-5.41
-6.89
-8.33
-9.94
-11.93
-14.58
-18.17
-22.86
-28.52
-34.64
-40.34
-44.51
-46.15
-44.69
-40.09
-32.87
-23.94
-14.29
-4.83
3.84
11.34
17.5
22.24
25.52
27.38
27.93
27.44
26.3
24.95
23.8
23.12
23.01
23.45
24.24
25.18
26.05
26.7
27.01
26.87
26.15
24.71
22.48
19.47
15.85
11.92
7.96
4.2
0.69
-2.57
-5.64
-8.56
-11.26
-13.69
-15.81
-17.68
-19.5
-21.56
-24.18
-27.58
-31.75
-36.37
-40.77
-44.08
-45.45
-44.28
-40.4
-34.14
-26.19
-17.35
-8.4
0.1
7.71
14.19
19.38
23.2
25.74
27.22
27.95
28.32
28.62
29.05
29.7
30.47
31.2
31.7
31.83
31.56
30.94
30.05
28.93
27.56
25.83
23.7
21.14
18.27
15.22
12.18
9.26
6.5
3.86
1.24
-1.46
-4.29
-7.22
-10.15
-12.92
-15.47
-17.89
-20.38
-23.3
-26.98
-31.54
-36.83
-42.3
-47.1
-50.25
-50.88
-48.51
-43.22
-35.61
-26.68
-17.46
-8.82
-1.28
4.99
10.02
13.92
16.78
18.67
19.74
20.22
20.47
20.79
21.42
22.42
23.72
25.16
26.56
27.75
28.62
29.05
28.94
28.21
26.84
24.88
22.49
19.86
17.14
14.41
11.63
8.69
5.54
2.19
-1.22
-4.52
-7.53
-10.15
-12.43
-14.5
-16.57
-18.91
-21.78
-25.32
-29.51
-34.02
-38.19
-41.19
-42.21
-40.72
-36.72
-30.69
-23.48
-15.95
-8.84
-2.53
2.83
7.24
10.73
13.26
14.84
15.54
15.58
15.3
15.08
15.23
15.88
17.02
18.46
19.95
21.31
22.42
23.34
24.16
24.93
25.61
26.02
25.87
24.94
23.18
20.77
18.03
15.32
12.83
10.51
8.12
5.4
2.19
-1.44
-5.25
-8.95
-12.38
-15.51
-18.56
-21.82
-25.59
-30.11
-35.43
-41.35
-47.35
-52.58
-56.09
-56.98
-54.84
-49.8
-42.55
-34.06
-25.23
-16.7
-8.81
-1.69
4.51
9.67
13.59
16.26
17.87
18.8
19.45
20.18
21.16
22.35
23.63
24.86
25.95
26.94
27.86
28.68
29.29
29.52
29.19
28.21
26.61
24.53
22.16
19.69
17.29
15.08
13.04
11.11
9.12
6.86
4.16
1.0
-2.54
-6.23
-9.79
-13.05
-15.99
-18.73
-21.58
-24.83
-28.73
-33.34
-38.42
-43.41
-47.53
-49.9
-49.8
-46.85
-41.14
-33.23
-23.98
-14.35
-5.12
3.12
10.07
15.59
19.68
22.44
24.06
24.88
25.31
25.73
26.47
27.64
29.16
30.8
32.29
33.41
34.07
34.27
34.03
33.36
32.22
30.56
28.34
25.58
22.41
19.0
15.55
12.2
8.98
5.87
2.72
-0.57
-4.09
-7.8
-11.56
-15.19
-18.52
-21.49
-24.11
-26.47
-28.72
-31.0
-33.43
-36.13
-39.07
-42.03
-44.49
-45.82
-45.38
-42.77
-38.0
-31.49
-23.93
-16.07
-8.55
-1.77
4.04
8.75
12.34
14.81
16.31
17.06
17.39
17.62
17.92
18.39
18.97
19.56
20.08
20.52
20.92
21.29
21.61
21.78
21.64
21.05
19.9
18.15
15.89
13.31
10.72
8.4
6.5
4.91
3.36
1.48
-0.93
-3.85
-6.96
-9.93
-12.47
-14.53
-16.32
-18.17
-20.47
-23.48
-27.35
-32.06
-37.27
-42.35
-46.43
-48.55
-47.97
-44.4
-38.18
-30.11
-21.24
-12.52
-4.61
2.25
8.06
12.88
16.75
19.61
21.44
22.3
22.43
22.18
21.88
21.74
21.77
21.83
21.75
21.45
21.01
20.69
20.71
21.15
21.86
22.51
22.68
22.06
20.55
18.32
15.67
12.9
10.15
7.39
4.51
1.41
-1.89
-5.26
-8.5
-11.47
-14.14
-16.6
-19.06
-21.7
-24.71
-28.23
-32.35
-37.0
-41.91
-46.52
-50.05
-51.65
-50.7
-47.02
-40.94
-33.2
