15.99
14.62
12.78
10.64
8.4
6.21
4.21
2.56
1.41
0.87
0.99
1.68
2.7
3.69
4.27
4.1
3.06
1.21
-1.19
-3.83
-6.49
-9.12
-11.85
-14.92
-18.59
-22.95
-27.86
-32.85
-37.12
-39.72
-39.77
-36.74
-30.67
-22.22
-12.45
-2.6
6.3
13.58
18.98
22.51
24.4
24.92
24.37
23.1
21.42
19.6
17.86
16.34
15.08
14.09
13.37
12.91
12.7
12.66
12.66
12.48
11.84
10.49
8.31
5.36
1.91
-1.68
-5.04
-7.99
-10.57
-13.05
-15.89
-19.56
-24.38
-30.2
-36.37
-41.73
-44.86
-44.55
-40.22
-32.15
-21.4
-9.54
1.87
11.68
19.3
24.65
27.98
29.68
30.18
29.87
29.18
28.48
28.03
27.9
27.95
27.88
27.4
26.32
24.68
22.74
20.87
19.44
18.62
18.27
18.03
17.34
15.77
13.11
9.48
5.34
1.22
-2.46
-5.57
-8.29
-11.03
-14.28
-18.4
-23.48
-29.13
-34.57
-38.66
-40.18
-38.23
-32.53
-23.59
-12.62
-1.15
9.4
18.06
24.45
28.73
31.3
32.61
33.06
32.95
32.53
32.02
31.57
31.2
30.85
30.38
29.7
28.86
28.01
27.32
26.82
26.38
25.79
24.83
23.47
21.79
19.9
17.85
15.57
12.92
9.8
6.27
2.55
-1.1
-4.43
-7.38
-10.02
-12.53
-15.13
-18.06
-21.5
-25.55
-30.19
-35.09
-39.59
-42.75
-43.55
-41.2
-35.48
-26.87
-16.49
-5.71
4.18
12.36
18.5
22.73
25.37
26.83
27.45
27.53
27.32
27.0
26.67
26.34
25.96
25.53
25.1
24.75
24.56
24.53
24.58
24.56
24.36
23.97
23.44
22.81
22.11
21.26
20.13
18.57
16.54
14.16
11.62
9.22
7.15
5.47
4.03
2.58
0.87
-1.18
-3.5
-5.88
-8.1
-10.07
-11.81
-13.47
-15.15
-16.95
-18.94
-21.27
-24.1
-27.51
-31.29
-34.84
-37.18
-37.29
-34.45
-28.63
-20.49
-11.25
-2.23
5.51
11.4
15.38
17.69
18.71
18.82
18.37
17.68
17.01
16.57
16.37
16.34
16.32
16.15
15.82
15.41
15.06
14.93
15.07
15.44
15.89
16.28
16.43
16.22
15.61
14.62
13.34
11.88
10.33
8.74
7.1
5.4
3.63
1.85
0.15
-1.4
-2.73
-3.83
-4.79
-5.74
-6.87
-8.33
-10.21
-12.43
-14.75
-16.88
-18.61
-19.87
-20.9
-22.06
-23.76
-26.23
-29.33
-32.55
-35.05
-35.95
-34.52
-30.51
-24.2
-16.37
-8.1
-0.42
5.89
10.47
13.34
14.8
15.27
15.14
14.73
14.22
13.75
13.37
13.08
12.85
12.66
12.51
12.42
12.44
12.61
12.89
13.2
13.42
13.47
13.29
12.89
12.31
11.59
10.79
9.96
9.14
8.33
7.49
6.53
5.37
4.01
2.53
1.11
-0.11
-1.04
-1.72
-2.29
-2.87
-3.58
-4.48
-5.55
-6.75
-7.97
-9.09
-10.01
-10.75
-11.53
-12.7
-14.62
-17.45
-20.95
-24.41
-26.82
-27.22
-25.03
-20.29
-13.59
-5.84
2.07
9.53
16.25
22.2
27.37
31.75
35.33
38.18
40.52
42.66
44.86
47.17
49.39
51.13
51.99
51.82
50.76
49.3
47.98
47.19
46.89
46.69
45.99
44.35
41.59
37.8
33.13
27.53
20.85
12.98
4.11
-5.31
-14.82
-24.41
-34.73
-46.85
-61.68
-79.36
-98.97
-118.97
-137.97
-155.48
-172.02
-188.44
-205.01
-220.73
-233.51
-241.04
-241.8
-235.59
-223.37
-206.48
-185.93
-162.07
-134.89
-104.56
-71.8
-38.02
-5.04
25.29
51.44
72.37
87.7
97.73
103.37
106.0
107.12
108.08
109.82
112.77
116.75
121.05
124.55
126.08
124.83
120.67
114.24
106.65
99.06
92.26
86.52
81.71
77.54
73.68
69.85
65.74
61.01
55.32
48.55
40.87
32.78
24.88
17.73
11.59
6.38
1.72
-2.86
-7.74
-13.06
-18.7
-24.26
-29.27
-33.43
-36.68
-39.39
-42.19
-45.76
-50.5
-56.36
-62.76
-68.73
-73.22
-75.41
-74.84
-71.57
-65.99
-58.8
-50.74
-42.48
-34.56
-27.29
-20.79
-15.07
-10.09
-5.94
-2.85
-1.08
-0.66
-1.16
-1.49
0.06
5.34
15.72
31.47
51.46
73.42
94.66
112.92
126.99
136.77
142.88
145.9
145.87
142.21
134.06
120.94
103.14
81.81
58.62
35.14
12.44
-9.03
-29.33
-48.7
-67.32
-85.22
-102.21
-117.87
-131.5
-142.36
-149.87
-154.16
-156.15
-157.42
-159.54
-163.19
-167.61
-170.44
-168.25
-157.75
-136.92
-106.04
-67.89
-27.23
10.43
40.24
59.33
67.58
67.49
63.45
60.3
61.95
70.27
84.81
103.25
122.42
139.49
152.82
162.19
168.43
172.83
176.55
180.45
185.11
190.71
196.71
201.61
203.07
198.5
186.09
165.57
138.39
107.17
74.69
43.0
13.32
-13.62
-37.22
-56.94
-72.72
-85.48
-97.13
-110.12
-126.78
-148.58
-175.91
-207.81
-242.01
-275.04
-302.75
-320.93
-326.41
-317.66
-295.1
-260.72
-217.39
-168.15
-115.97
-63.8
-14.33
30.38
69.14
101.52
127.24
145.61
155.66
157.03
151.04
141.24
132.47
129.14
133.41
144.28
158.2
170.71
178.38
179.96
176.25
169.04
159.75
148.61
134.7
116.96
95.1
70.16
44.17
19.25
-3.33
-23.36
-41.22
-57.18
-71.08
-82.62
-91.72
-98.7
-103.74
-106.06
-103.6
-93.4
-72.93
-41.32
0.05
47.92
98.41
148.12
194.89
237.4
274.51
304.23
324.4
333.65
332.53
323.89
311.9
300.56
291.89
285.19
277.13
264.14
244.48
219.29
191.88
165.96
143.93
126.24
111.92
98.6
84.75
70.37
56.77
45.58
37.64
32.62
29.24
26.1
19.46
6.96
-11.28
-32.75
-54.1
-73.07
-89.29
-103.93
-118.3
-139.15
-170.94
-213.56
-262.12
-309.72
-351.1
-384.41
-410.76
-431.88
-459.14
-500.81
-558.32
-625.81
-694.0
-755.71
-808.43
-853.57
-893.35
-943.62
-1017.19
-1118.43
-1241.02
-1371.16
-1493.39
-1594.68
-1666.19
-1634.04
-1460.63
-1154.3
-771.08
-383.74
-45.58
222.34
422.55
557.42
649.34
702.14
716.53
697.47
657.25
611.42
572.29
545.46
530.41
525.25
516.65
494.73
457.09
409.39
361.05
319.86
289.12
268.29
256.17
243.98
225.18
198.04
165.84
134.3
108.06
88.97
76.52
69.87
64.17
55.84
43.84
29.72
16.31
5.94
-0.41
-2.93
-2.02
0.27
2.31
3.49
4.13
5.0
6.68
9.25
12.4
15.81
19.0
21.77
24.16
26.41
28.76
31.32
33.99
36.5
38.52
39.82
40.43
40.67
41.05
42.05
43.95
46.68
49.91
53.23
56.49
59.97
64.41
70.77
79.9
92.1
107.05
123.89
141.57
159.27
176.69
194.04
211.95
231.34
253.2
278.33
306.81
337.33
366.99
391.63
406.98
410.18
400.95
381.79
357.09
331.55
308.66
289.97
275.26
263.36
253.04
243.4
233.89
223.88
212.57
198.94
182.26
162.37
139.93
116.37
93.42
72.44
54.12
38.27
24.18
11.11
-1.35
-13.05
-23.55
-32.38
-39.37
-44.88
-49.59
-54.29
-59.51
-65.28
-71.1
-76.15
-79.47
-80.29
-78.07
-72.67
-64.33
-53.68
-41.68
-29.48
-18.21
-8.69
-1.29
4.02
7.54
9.6
10.43
10.17
8.95
7.03
4.72
2.3
-0.03
-2.24
-4.36
-6.34
-8.04
-9.2
-9.6
-9.23
-8.32
-7.28
-6.52
-6.21
-6.24
-6.26
-5.83
-4.69
-2.82
-0.45
2.07
4.43
6.47
8.23
9.94
11.92
14.37
17.19
19.94
21.88
22.21
20.39
16.42
10.87
4.71
-1.06
-5.74
-9.06
-11.15
-12.25
-12.51
-11.96
-10.55
-8.39
-5.79
-3.34
-1.64
-1.12
-1.86
-3.57
-5.78
-8.13
-10.44
-12.78
-15.35
-18.27
-21.55
-25.05
-28.7
-32.49
-36.53
-40.88
-45.44
-49.84
-53.53
-56.02
-57.07
-56.79
-55.57
-53.93
-52.34
-51.11
-50.46
-50.53
-51.4
-53.01
-55.11
-57.3
-59.13
-60.29
-60.71
-60.56
-60.08
-59.43
-58.62
-57.5
-55.88
-53.67
-50.87
-47.62
-44.12
-40.55
-37.13
-34.03
-31.43
-29.44
-28.1
-27.34
-26.97
-26.76
-26.49
-26.04
-25.47
-24.98
-24.79
-25.0
-25.48
-25.84
-25.53
-24.1
-21.33
-17.38
-12.67
-7.78
-3.2
0.71
3.76
5.87
7.0
7.22
6.66
5.59
4.34
3.24
2.5
2.14
2.01
1.87
1.49
0.82
-0.07
-0.96
-1.66
-2.07
-2.27
-2.46
-2.89
-3.7
-4.93
-6.45
-8.08
-9.6
-10.85
-11.74
-12.27
-12.55
-12.78
-13.19
-13.97
-15.17
-16.64
-18.04
-18.93
-18.89
-17.66
-15.23
-11.8
-7.76
-3.54
0.46
3.92
6.64
8.53
9.58
9.87
9.53
8.74
7.63
6.33
4.97
3.64
2.44
1.47
0.74
0.26
-0.05
-0.23
-0.33
-0.35
-0.29
-0.21
-0.26
-0.63
-1.48
-2.84
-4.56
-6.36
-7.93
-9.04
-9.64
-9.9
-10.11
-10.6
-11.61
-13.14
-14.97
-16.69
-17.78
-17.71
-16.16
-13.1
-8.78
-3.79
1.2
5.53
8.78
10.81
11.79
12.01
11.77
11.26
10.59
9.79
8.93
8.08
7.33
6.7
6.15
5.6
5.0
4.38
3.8
3.36
3.08
2.89
2.64
2.17
1.4
0.32
-1.01
-2.44
-3.82
-5.03
-6.02
-6.87
-7.77
-8.92
-10.53
-12.58
-14.82
-16.79
-17.91
-17.73
-16.03
-12.93
-8.85
-4.37
-0.03
3.75
6.81
9.12
10.77
11.82
12.27
12.11
11.34
10.1
8.61
7.16
5.98
5.16
4.68
4.42
4.28
4.21
4.25
4.43
4.74
5.06
5.19
4.88
4.0
2.54
0.65
-1.38
-3.31
-4.98
-6.4
-7.69
-9.05
-10.62
-12.47
-14.58
-16.78
-18.75
-20.07
-20.26
-18.97
-16.11
-11.93
-6.96
-1.88
2.7
6.4
9.06
10.74
11.58
11.72
11.27
10.35
9.1
7.71
6.39
5.33
4.62
4.2
3.96
3.8
3.68
3.66
3.81
4.14
4.47
4.55
4.1
3.03
1.43
-0.4
-2.17
-3.71
-4.99
-6.1
-7.22
-8.46
-9.95
-11.75
-13.88
-16.24
-18.48
-20.07
-20.41
-19.05
-15.9
-11.3
-5.93
-0.56
4.21
8.05
10.9
12.82
13.86
14.06
13.45
12.2
10.57
8.94
7.61
6.73
6.2
5.8
5.3
4.62
3.85
3.19
2.78
2.64
2.61
2.44
1.95
1.09
-0.03
-1.21
-2.27
-3.12
-3.77
-4.32
-4.99
-6.03
-7.65
-9.99
-12.89
-15.92
-18.43
-19.75
-19.41
-17.3
-13.7
-9.11
-4.13
0.71
5.02
8.55
11.12
12.7
13.32
13.18
12.55
11.7
10.85
10.1
9.5
9.0
8.56
8.13
7.67
7.17
6.67
6.24
5.91
5.67
5.42
5.0
4.3
3.25
1.89
0.35
-1.23
-2.76
-4.21
-5.63
-7.09
-8.73
-10.64
-12.86
-15.3
-17.66
-19.51
-20.32
-19.67
-17.36
-13.57
-8.76
-3.59
1.26
5.3
8.28
10.2
11.19
11.46
11.2
10.57
9.76
8.91
8.18
7.68
7.45
7.45
7.59
7.72
7.71
7.49
7.05
6.5
5.92
5.42
4.96
4.44
3.71
2.68
1.39
-0.02
-1.37
-2.52
-3.48
-4.41
-5.54
-7.13
-9.3
-11.98
-14.83
-17.33
-18.89
-19.0
-17.4
-14.22
-9.89
-5.08
-0.44
3.48
6.41
8.32
9.38
9.82
9.87
9.72
9.46
9.16
8.84
8.56
8.32
8.14
8.0
7.86
7.71
7.54
7.41
7.32
7.27
7.15
6.79
6.02
4.77
3.11
1.27
-0.47
-1.88
-2.91
-3.66
-4.41
-5.42
-6.87
-8.8
-11.1
-13.55
-15.8
-17.44
-18.05
-17.29
-15.06
-11.57
-7.28
-2.81
1.23
4.47
6.78
8.27
9.14
9.58
9.74
9.69
9.46
9.09
8.66
8.21
7.78
7.38
7.01
6.67
6.39
6.21
6.17
6.3
6.55
6.82
6.92
6.68
5.94
4.68
3.01
1.17
-0.56
-1.95
-2.9
-3.49
-3.95
-4.58
-5.65
-7.3
-9.5
-12.0
-14.33
-15.96
-16.39
-15.37
-13.0
-9.66
-5.97
-2.49
0.39
2.55
4.06
5.11
5.85
6.38
6.73
6.89
6.92
6.87
6.84
6.86
6.98
7.17
7.4
7.65
7.86
8.02
8.07
7.98
7.7
7.22
6.53
5.67
4.71
3.71
2.73
1.78
0.87
-0.03
-0.94
-1.88
-2.87
-3.94
-5.16
-6.59
-8.33
-10.43
-12.87
-15.43
-17.69
-19.1
-19.16
-17.66
-14.75
-10.93
-6.89
-3.25
-0.37
1.68
3.03
3.89
4.42
4.7
4.75
4.57
4.2
3.68
3.14
2.71
2.54
2.68
3.08
3.57
3.96
4.11
3.96
3.63
3.27
3.02
2.95
2.99
3.0
2.79
2.24
1.27
-0.05
-1.57
-3.07
-4.38
-5.38
-6.1
-6.68
-7.34
-8.27
-9.6
-11.32
-13.29
-15.18
-16.58
-17.07
-16.33
-14.22
-10.92
-6.86
-2.64
1.15
4.1
6.06
7.17
7.7
7.97
8.17
8.35
8.44
8.35
8.06
7.66
7.33
7.24
7.43
7.8
8.14
8.24
7.97
7.38
6.59
5.82
5.18
4.69
4.27
3.75
3.02
2.03
0.78
-0.63
-2.1
-3.52
-4.79
-5.85
-6.7
-7.38
-7.96
-8.59
-9.42
-10.6
-12.21
-14.12
-16.03
-17.5
-18.03
-17.28
-15.19
-12.03
-8.28
-4.55
-1.31
1.17
2.88
4.0
4.79
5.46
6.14
6.85
7.54
8.14
8.61
8.94
9.14
9.21
9.13
8.93
8.7
8.54
8.54
8.68
8.81
8.72
8.26
7.41
6.31
5.16
4.11
3.12
2.07
0.8
-0.73
-2.4
-4.0
-5.34
-6.4
-7.24
-8.05
-8.98
-10.1
-11.47
-13.11
-15.02
-17.16
-19.3
-21.08
-21.99
-21.6
-19.69
-16.4
-12.2
-7.78
-3.78
-0.61
1.64
3.17
4.3
5.33
6.34
7.27
7.95
8.3
8.41
8.45
8.64
9.03
9.53
10.0
10.29
10.44
10.55
10.76
11.03
11.22
11.07
10.4
9.21
7.64
5.99
4.52
3.38
2.54
1.84
1.04
-0.07
-1.59
-3.42
-5.34
-7.06
-8.37
-9.2
-9.68
-10.05
-10.59
-11.57
-13.16
-15.42
-18.17
-20.96
-23.15
-24.07
-23.28
-20.75
-16.89
-12.38
-7.94
-4.09
-1.04
1.27
3.01
4.39
5.58
6.68
7.76
8.85
9.93
10.94
11.76
12.33
12.59
12.6
12.44
12.24
12.12
12.13
12.24
12.39
12.47
12.42
12.23
11.88
11.4
10.78
10.05
9.27
8.49
7.79
7.16
6.47
5.56
4.26
2.53
0.5
-1.61
-3.51
-5.04
-6.24
-7.27
-8.44
-10.02
-12.15
-14.8
-17.7
-20.4
-22.38
-23.18
-22.5
-20.3
-16.81
-12.46
-7.81
-3.4
0.36
3.24
5.19
6.34
6.94
7.23
7.4
7.56
7.7
7.8
7.8
7.69
7.5
7.27
7.03
6.87
6.85
7.02
7.36
7.78
8.13
8.28
8.15
7.7
7.02
6.19
5.32
4.47
3.65
2.8
1.85
0.73
-0.59
-2.04
-3.54
-4.95
-6.23
-7.37
-8.47
-9.69
-11.16
-12.98
-15.13
-17.42
-19.46
-20.76
-20.85
-19.46
-16.67
-12.85
-8.59
-4.5
-0.99
1.73
3.7
5.09
6.1
6.87
7.52
8.05
8.46
8.74
8.87
8.91
8.92
8.97
9.12
9.37
9.71
10.06
10.36
10.5
10.38
9.94
9.17
8.13
6.96
5.83
4.86
4.04
3.27
2.38
1.2
-0.34
-2.19
-4.18
-6.11
-7.87
-9.41
-10.83
-12.28
-13.89
-15.73
-17.72
-19.62
-21.04
-21.55
-20.78
-18.58
-15.1
-10.78
-6.18
-1.84
1.87
4.8
6.97
8.5
9.53
10.18
10.53
10.66
10.59
10.36
10.05
9.75
9.58
9.64
9.89
10.23
10.48
10.52
10.32
9.94
9.46
8.89
8.19
7.27
6.1
4.77
3.42
2.18
1.1
0.09
-0.97
-2.21
-3.6
-5.04
-6.36
-7.47
-8.4
-9.35
-10.58
-12.31
-14.57
-17.19
-19.75
-21.74
-22.63
-22.08
-19.98
-16.55
-12.22
-7.57
-3.16
0.61
3.58
5.73
7.2
8.15
8.74
9.1
9.36
9.62
9.94
10.3
10.61
10.79
10.75
10.51
10.2
9.92
9.78
9.75
9.76
9.66
9.37
8.87
8.2
7.41
6.57
5.69
4.72
3.61
2.33
0.92
-0.56
-2.04
-3.53
-5.07
-6.74
-8.55
-10.5
-12.54
-14.62
-16.68
-18.57
-20.05
-20.74
-20.23
-18.23
-14.73
-10.11
-5.01
-0.17
3.8
6.59
8.2
8.87
8.93
8.73
8.48
8.29
8.12
7.9
7.59
7.22
6.91
6.78
6.9
7.21
7.56
7.78
7.77
7.57
7.26
6.93
6.57
6.07
5.31
4.22
2.87
1.38
-0.09
-1.45
-2.73
-4.01
-5.36
-6.76
-8.17
-9.52
-10.79
-12.06
-13.48
-15.15
-17.06
-18.95
-20.35
-20.72
-19.64
-17.02
-13.13
-8.54
-3.86
0.38
3.9
6.57
8.41
9.45
9.76
9.48
8.81
8.03
7.41
7.07
7.03
7.18
7.38
7.53
7.59
7.6
7.62
7.64
7.64
7.57
7.37
6.99
6.42
5.65
4.66
3.43
1.97
0.31
-1.39
-2.96
-4.24
-5.18
-5.89
-6.59
-7.55
-8.94
-10.77
-12.91
-15.15
-17.26
-18.97
-20.02
-20.1
-18.92
-16.34
-12.51
-7.89
-3.17
0.99
4.11
6.09
7.13
7.59
7.81
7.98
8.18
8.37
8.53
8.63
8.71
8.79
8.91
9.04
9.18
9.25
9.23
9.09
8.85
8.59
8.38
8.24
8.14
7.98
7.58
6.85
5.73
4.33
2.78
1.23
-0.27
-1.73
-3.22
-4.75
-6.34
-7.92
-9.51
-11.17
-13.02
-15.13
-17.39
-19.42
-20.71
-20.71
-19.17
-16.18
-12.24
-8.01
-4.12
-0.95
1.41
3.11
4.37
5.38
6.24
6.97
7.54
7.95
8.22
8.43
8.68
9.05
9.6
10.28
11.0
11.61
12.0
12.14
12.04
11.73
11.27
10.66
9.94
9.13
8.23
7.26
6.16
4.86
3.29
1.47
-0.49
-2.4
-4.07
-5.44
-6.54
-7.58
-8.77
-10.32
-12.3
-14.58
-16.86
-18.66
-19.47
-18.88
-16.79
-13.45
-9.38
-5.24
-1.55
1.45
3.75
5.55
6.99
8.12
8.84
9.04
8.71
7.93
6.93
5.95
5.25
4.95
5.08
5.48
5.94
6.23
6.2
5.85
5.32
4.78
4.38
4.12
3.85
3.4
2.59
1.4
-0.1
-1.7
-3.19
-4.44
-5.45
-6.33
-7.25
-8.33
-9.64
-11.13
-12.75
-14.4
-15.88
-16.92
-17.12
-16.11
-13.72
-10.12
-5.82
-1.52
2.11
4.75
6.43
7.44
8.05
8.38
8.39
8.03
7.35
6.57
5.97
5.73
5.85
6.13
6.37
6.4
6.22
5.93
5.62
5.37
5.15
4.94
4.64
4.16
3.4
2.3
0.88
-0.74
-2.36
-3.8
-5.0
-6.02
-7.03
-8.22
-9.68
-11.45
-13.47
-15.6
-17.62
-19.22
-20.02
-19.62
-17.8
-14.62
-10.49
-6.04
-1.96
1.23
3.35
4.5
4.99
5.14
5.2
5.26
5.31
5.34
5.37
5.47
5.71
6.13
6.64
7.1
7.3
7.1
6.5
5.64
4.75
4.02
3.49
3.06
2.48
1.54
0.14
-1.61
-3.47
-5.12
-6.36
-7.16
-7.67
-8.18
-8.96
-10.22
-11.98
-14.15
-16.44
-18.48
-19.87
-20.23
-19.34
-17.17
-13.94
-10.04
-5.96
-2.13
1.17
3.82
5.85
7.37
8.46
9.19
9.57
9.62
9.39
8.99
8.61
8.42
8.53
8.91
9.45
9.94
10.26
10.33
10.2
9.93
9.55
9.01
8.24
7.19
5.87
4.41
2.96
1.68
0.63
-0.21
-0.9
-1.56
-2.31
-3.25
-4.53
-6.28
-8.55
-11.22
-13.96
-16.22
-17.43
-17.2
-15.41
-12.28
-8.25
-3.88
0.34
4.02
6.91
8.91
10.06
10.51
10.47
10.14
9.7
9.26
8.88
8.64
8.6
8.77
9.09
9.44
9.67
9.65
9.38
8.94
8.44
7.99
7.6
7.2
6.65
5.78
4.52
2.92
1.15
-0.54
-1.93
-2.9
-3.53
-3.99
-4.6
-5.62
-7.25
-9.54
-12.33
-15.31
-18.01
-19.93
-20.63
-19.84
-17.54
-13.95
-9.51
-4.78
-0.34
3.33
5.94
7.45
8.07
8.13
8.01
7.93
7.96
8.0
7.95
7.75
7.47
7.27
7.28
7.52
7.91
8.28
8.53
8.57
8.4
8.04
7.51
6.79
5.92
4.94
3.88
2.76
1.54
0.18
-1.37
-3.06
-4.76
-6.31
-7.64
-8.76
-9.86
-11.14
-12.79
-14.86
-17.21
-19.54
-21.41
-22.36
-22.03
-20.22
-17.03
-12.74
-7.86
-2.97
1.41
4.94
7.48
9.09
10.02
10.5
10.74
10.84
10.88
10.85
10.82
10.84
10.93
11.11
11.34
11.59
11.81
12.0
12.14
12.22
12.16
11.92
11.41
10.58
9.45
8.04
6.41
4.64
2.84
1.1
-0.5
-1.9
-3.11
-4.2
-5.31
-6.6
-8.23
-10.28
-12.72
-15.39
-17.9
-19.78
-20.44
-19.45
-16.68
-12.43
-7.33
-2.22
2.21
5.6
7.97
9.59
10.77
11.7
12.38
12.69
12.57
12.03
11.25
10.45
9.81
9.44
9.33
9.39
9.51
9.56
9.47
9.16
8.59
7.75
6.67
5.44
4.17
2.96
1.84
0.76
-0.4
-1.75
-3.34
-5.14
-7.01
-8.79
-10.38
-11.82
-13.25
-14.95
-17.06
-19.55
-22.07
-24.02
-24.79
-23.91
-21.33
-17.37
-12.6
-7.64
-2.99
1.04
4.33
6.84
8.6
9.71
10.36
10.76
11.07
11.37
11.63
11.78
11.76
11.62
11.44
11.33
11.32
11.42
11.54
11.59
11.52
11.27
10.84
10.21
9.3
8.03
6.36
4.33
2.07
-0.16
-2.12
-3.68
-4.84
-5.81
-6.82
-8.1
-9.79
-11.88
-14.32
-16.96
-19.6
-21.89
-23.38
-23.64
-22.34
-19.49
-15.38
-10.57
-5.73
-1.38
2.15
4.75
6.5
7.54
8.05
8.14
7.93
7.51
7.01
6.58
6.34
6.38
6.66
7.02
7.27
7.24
6.93
6.47
6.04
5.73
5.47
5.02
4.13
2.67
0.69
-1.61
-3.94
-6.12
-8.07
-9.82
-11.46
-13.07
-14.76
-16.62
-18.76
-21.17
-23.65
-25.8
-27.04
-26.84
-24.87
-21.17
-16.15
-10.45
-4.8
0.18
4.11
6.86
8.51
9.3
9.5
9.41
9.26
9.19
9.27
9.52
9.93
10.47
11.05
11.55
11.86
11.89
11.62
11.12
10.5
9.82
9.07
8.18
7.05
5.63
4.01
2.35
0.84
-0.38
-1.31
-2.04
-2.76
-3.68
-4.95
-6.63
-8.62
-10.6
-12.08
-12.54
-11.58
-9.11
-5.37
-0.91
3.63
7.72
11.07
13.63
15.47
16.71
17.42
17.64
17.44
16.92
16.25
15.56
14.96
14.45
14.01
13.62
13.28
13.04
12.96
13.11
13.49
14.07
14.74
15.31
15.55
15.28
14.37
12.86
10.89
8.73
6.61
4.64
2.84
1.06
-0.92
-3.31
-6.19
-9.43
-12.65
-15.29
-16.81
-16.76
-15.05
-11.93
-7.98
-3.84
-0.12
2.8
4.77
5.86
6.28
6.26
6.04
5.75
5.47
5.19
4.88
4.51
4.09
3.71
3.44
3.33
3.39
3.55
3.76
3.94
4.1
4.2
4.21
3.96
3.29
2.03
0.16
-2.18
-4.68
-6.96
-8.73
-9.86
-10.5
-10.97
-11.66
-12.87
-14.72
-17.07
-19.52
-21.59
-22.76
-22.67
-21.11
-18.15
-14.08
-9.35
-4.54
-0.17
3.3
5.68
6.98
7.43
7.39
7.2
7.11
7.23
7.58
8.09
8.7
9.34
9.94
10.41
10.61
10.46
9.93
9.08
8.08
7.12
6.38
5.93
5.68
5.4
4.86
3.87
2.41
0.62
-1.24
-2.97
-4.45
-5.69
-6.86
-8.18
-9.84
-11.92
-14.3
-16.72
-18.76
-19.97
-20.0
-18.66
-16.07
-12.54
-8.52
-4.48
-0.82
2.17
4.34
5.7
6.34
6.42
6.14
5.67
5.15
4.69
4.39
4.31
4.47
4.8
5.15
5.33
5.16
4.59
3.71
2.73
1.9
1.34
1.02
0.73
0.25
-0.61
-1.85
-3.3
-4.72
-5.91
-6.83
-7.59
-8.4
-9.48
-10.93
-12.71
-14.67
-16.59
-18.18
-19.16
-19.25
-18.28
-16.18
-13.1
-9.39
-5.5
-1.9
1.09
3.3
4.77
5.64
6.06
6.21
6.19
6.11
6.07
6.16
6.41
6.86
7.49
8.3
9.25
10.25
11.17
11.82
12.07
11.85
11.26
10.47
9.65
8.88
8.06
7.08
5.8
4.27
2.64
1.16
-0.06
-1.02
-1.88
-2.9
-4.28
-6.15
-8.45
-10.97
-13.38
-15.2
-15.96
-15.36
-13.29
-10.0
-6.03
-2.0
1.51
4.17
5.93
6.99
7.61
8.03
8.35
8.6
8.7
8.63
8.42
8.17
7.96
7.87
7.9
7.98
8.04
8.03
7.94
7.78
7.64
7.53
7.48
7.44
7.3
6.95
6.31
5.41
4.36
3.3
2.35
1.52
0.73
-0.13
-1.12
-2.24
-3.41
-4.59
-5.8
-7.13
-8.63
-10.27
-11.85
-13.02
-13.42
-12.81
-11.09
-8.41
-5.05
-1.39
2.2
5.4
7.99
9.82
10.83
11.07
10.63
9.73
8.62
7.53
6.64
6.06
5.8
5.87
6.2
6.7
7.19
7.44
7.22
6.45
5.2
3.78
2.53
1.72
1.36
1.25
1.04
0.39
-0.83
-2.58
-4.67
-6.87
-9.02
-11.01
-12.76
-14.14
-15.04
-15.37
-15.17
-14.59
-13.81
-12.91
-11.79
-10.24
-8.06
-5.25
-2.07
1.03
3.55
5.16
5.81
5.68
5.05
4.2
3.29
2.41
1.6
0.98
0.68
0.82
1.39
2.24
3.14
3.83
4.18
4.14
3.79
3.23
2.55
1.77
0.91
0.01
-0.88
-1.72
-2.5
-3.23
-3.98
-4.78
-5.67
-6.65
-7.76
-9.04
-10.59
-12.46
-14.67
-17.06
-19.3
-20.94
-21.49
-20.62
-18.28
-14.72
-10.47
-6.16
-2.37
0.55
2.48
3.52
3.86
3.72
3.26
2.64
2.0
1.53
1.45
1.9
2.9
4.28
5.71
6.82
7.32
7.14
6.38
5.27
4.05
2.88
1.77
0.7
-0.41
-1.53
-2.61
-3.56
-4.29
-4.78
-5.07
-5.31
-5.69
-6.46
-7.88
-10.13
-13.22
-16.9
-20.67
-23.78
-25.48
-25.21
-22.81
-18.6
-13.28
-7.71
-2.66
1.34
4.09
5.64
6.2
5.99
5.24
4.21
3.16
2.39
2.16
2.58
3.59
4.95
6.31
7.3
7.68
7.38
6.54
5.42
4.33
3.54
3.19
3.28
3.67
4.11
4.34
4.14
3.43
2.26
0.82
-0.7
-2.14
-3.51
-4.9
-6.48
-8.38
-10.56
-12.79
-14.7
-15.87
-15.88
-14.46
-11.6
-7.55
-2.82
1.93
6.07
9.2
11.22
12.36
12.99
13.46
13.95
14.46
14.89
15.14
15.24
15.29
15.42
15.71
16.16
16.68
17.15
17.43
17.48
17.31
17.06
16.9
17.02
17.48
18.2
18.95
19.39
19.23
18.25
16.46
14.0
11.15
8.21
5.44
2.88
0.36
-2.52
-6.22
-11.02
-16.83
-23.1
-28.92
-33.26
-35.26
-34.55
-31.27
-26.0
-19.6
-12.95
-6.77
-1.57
2.38
5.03
6.41
6.67
5.96
4.53
2.68
0.74
-0.97
-2.28
-3.14
-3.67
-4.06
-4.49
-5.01
-5.61
-6.21
-6.72
-7.09
-7.29
-7.28
-7.07
-6.66
-6.13
-5.57
-5.12
-4.88
-4.92
-5.28
-6.02
-7.19
-8.85
-10.98
-13.38
-15.72
-17.5
-18.25
-17.61
-15.42
-11.82
-7.14
-1.91
3.29
7.92
11.59
14.09
15.4
15.69
15.2
14.13
12.66
10.96
9.18
7.53
6.22
5.42
5.13
5.21
5.43
5.52
5.36
4.91
4.26
3.51
2.69
1.79
0.71
-0.59
-2.15
-3.86
-5.61
-7.24
-8.7
-10.03
-11.36
-12.85
-14.66
-16.85
-19.32
-21.84
-23.99
-25.26
-25.14
-23.33
-19.8
-14.9
-9.27
-3.63
1.38
5.39
8.27
10.09
10.95
11.01
10.44
9.54
8.65
8.14
8.21
8.88
9.9
10.9
11.53
11.6
11.14
10.36
9.54
8.89
8.48
8.25
8.01
7.58
6.79
5.6
4.06
2.27
0.38
-1.52
-3.36
-5.15
-7.0
-9.05
-11.44
-14.2
-17.17
-19.97
-22.02
-22.74
-21.74
-18.95
-14.72
-9.68
-4.52
0.16
4.04
7.03
9.24
10.8
11.87
12.55
12.9
13.0
12.95
12.87
12.89
13.12
13.58
14.22
14.9
15.43
15.7
15.63
15.28
14.7
13.94
12.97
11.71
10.1
8.19
6.09
4.0
2.08
0.4
-1.03
-2.32
-3.59
-4.95
-6.51
-8.39
-10.66
-13.27
-16.0
-18.37
-19.74
-19.52
-17.38
-13.44
-8.23
-2.56
2.79
7.32
10.86
13.53
15.54
17.02
17.94
18.18
17.67
16.52
14.95
13.25
11.65
10.28
9.14
8.22
7.52
7.1
6.96
7.02
7.13
7.06
6.61
5.7
4.36
2.69
0.84
-1.06
-2.92
-4.71
-6.38
-7.91
-9.33
-10.73
-12.32
-14.3
-16.81
-19.76
-22.81
-25.42
-27.02
-27.2
-25.86
-23.19
-19.56
-15.38
-11.0
-6.62
-2.46
1.31
4.49
6.87
8.33
8.87
8.62
7.82
6.77
5.8
5.12
4.84
4.93
5.27
5.71
6.17
6.66
7.19
7.77
8.29
8.59
8.5
7.93
6.91
5.57
4.11
2.71
1.46
0.33
-0.76
-1.96
-3.37
-5.06
-7.05
-9.37
-11.97
-14.73
-17.38
-19.46
-20.42
-19.81
-17.44
-13.52
-8.62
-3.5
1.14
4.84
7.44
9.0
9.71
9.76
9.32
8.6
7.78
7.04
6.51
6.22
6.1
6.07
6.08
6.17
6.38
6.74
7.17
7.56
7.81
7.88
7.82
7.69
7.5
7.2
6.69
5.94
5.0
3.97
2.93
1.92
0.88
-0.29
-1.72
-3.49
-5.66
-8.28
-11.34
-14.7
-18.04
-20.85
-22.53
-22.55
-20.67
-16.99
-11.98
-6.32
-0.72
4.25
8.24
11.18
13.15
14.35
15.03
15.44
15.78
16.24
16.87
17.65
18.4
18.9
18.91
18.32
17.17
15.67
14.1
12.74
11.81
11.37
11.38
11.71
12.18
12.62
12.85
12.74
12.2
11.18
9.7
7.79
5.49
2.83
-0.17
-3.48
-6.97
-10.47
-13.78
-16.76
-19.32
-21.44
-23.01
-23.84
-23.61
-21.99
-18.88
-14.47
-9.31
-4.14
0.37
3.76
5.95
7.15
7.77
8.2
8.77
9.67
10.9
12.37
13.83
14.99
15.6
15.52
14.75
13.44
11.87
10.33
9.07
8.26
7.96
8.11
8.59
9.23
9.81
10.12
9.94
9.12
7.54
5.24
2.35
-0.86
-4.07
-6.99
-9.42
-11.31
-12.68
-13.66
-14.4
-15.11
-16.02
-17.32
-19.06
-21.07
-22.96
-24.16
-24.18
-22.7
-19.72
-15.56
-10.74
-5.84
-1.3
2.56
5.59
7.73
8.94
9.2
8.49
6.92
4.74
2.35
0.2
-1.3
-1.94
-1.79
-1.09
-0.19
0.64
1.26
1.61
1.71
1.55
1.09
0.31
-0.78
-2.02
-3.2
-4.07
-4.43
-4.2
-3.42
-2.27
-1.0
0.13
0.84
0.88
0.08
-1.7
-4.42
-7.82
-11.41
-14.46
-16.21
-16.15
-14.13
-10.46
-5.72
-0.58
4.38
8.79
12.37
14.88
16.14
16.08
14.79
12.64
10.13
7.76
5.93
4.83
4.53
4.94
5.89
7.13
8.33
9.13
9.32
8.83
7.81
6.49
5.09
3.75
2.46
1.2
-0.09
-1.4
-2.73
-4.07
-5.49
-7.01
-8.68
-10.44
-12.25
-14.07
-15.94
-17.98
-20.28
-22.82
-25.38
-27.52
-28.73
-28.52
-26.65
-23.19
-18.52
-13.17
-7.76
-2.77
1.49
4.87
7.35
9.01
9.98
10.4
10.37
9.99
9.37
8.65
8.01
7.64
7.68
8.1
8.76
9.48
10.11
10.59
10.96
11.24
11.39
11.3
10.87
10.06
8.92
7.63
6.31
5.04
3.76
2.38
0.78
-1.06
-3.13
-5.34
-7.62
-9.91
-12.25
-14.69
-17.23
-19.75
-21.96
-23.36
-23.46
-21.89
-18.57
-13.8
-8.16
-2.34
3.02
7.5
10.92
13.29
14.73
15.46
15.69
15.65
15.51
15.37
15.28
15.21
15.16
15.14
15.17
15.23
15.31
15.3
15.11
14.67
13.94
12.94
11.74
10.43
9.14
8.01
7.12
6.47
5.92
5.21
4.13
2.54
0.53
-1.69
-3.86
-5.74
-7.3
-8.66
-10.08
-11.8
-13.93
-16.42
-18.98
-21.21
-22.62
-22.76
-21.36
-18.38
-14.04
-8.84
-3.4
1.65
5.82
8.88
10.81
11.82
12.16
12.08
11.73
