1.49
-0.91
-3.97
-7.62
-11.71
-16.02
-20.28
-24.14
-27.32
-29.6
-30.88
-31.19
-30.62
-29.42
-27.81
-26.08
-24.46
-23.08
-22.01
-21.23
-20.61
-20.06
-19.52
-18.99
-18.6
-18.39
-18.38
-18.46
-18.4
-18.0
-17.16
-15.96
-14.6
-13.39
-12.53
-12.09
-11.98
-12.0
-12.02
-11.99
-12.01
-12.21
-12.71
-13.56
-14.74
-16.22
-17.89
-19.61
-21.13
-22.04
-21.88
-20.3
-17.18
-12.76
-7.56
-2.19
2.73
6.82
9.96
12.24
13.82
14.83
15.31
15.25
14.69
13.77
12.77
11.98
11.56
11.53
11.73
11.96
12.07
12.04
11.89
11.69
11.48
11.19
10.81
10.3
9.63
8.86
8.07
7.37
6.84
6.54
6.48
6.63
6.87
7.06
7.02
6.65
5.81
4.55
2.92
1.05
-0.95
-2.98
-5.03
-7.09
-9.21
-11.44
-13.8
-16.31
-18.93
-21.46
-23.59
-24.94
-25.11
-23.87
-21.24
-17.45
-12.93
-8.16
-3.5
0.72
4.32
7.18
9.2
10.36
10.68
10.25
9.2
7.79
6.26
4.89
3.85
3.21
2.87
2.65
2.39
2.02
1.65
1.46
1.58
2.03
2.64
3.16
3.38
3.26
2.85
2.28
1.64
0.93
0.07
-1.02
-2.29
-3.67
-4.96
-6.04
-6.89
-7.61
-8.35
-9.3
-10.59
-12.22
-14.17
-16.26
-18.31
-19.98
-20.94
-20.83
-19.42
-16.68
-12.81
-8.19
-3.27
1.5
5.78
9.35
12.07
13.9
14.8
14.82
14.03
12.6
10.79
8.92
7.3
6.19
5.75
5.98
6.76
7.87
9.06
10.05
10.65
10.7
10.16
9.09
7.68
6.15
4.69
3.4
2.21
0.94
-0.64
-2.63
-4.99
-7.54
-10.06
-12.37
-14.38
-16.17
-17.84
-19.57
-21.45
-23.52
-25.7
-27.8
-29.56
-30.62
-30.69
-29.52
-27.02
-23.21
-18.3
-12.73
-6.98
-1.64
2.84
6.21
8.41
9.57
9.88
9.51
8.64
7.41
5.96
4.48
3.15
2.12
1.46
1.16
1.2
1.52
2.12
2.93
3.87
4.78
5.48
5.74
5.41
4.48
3.03
1.36
-0.25
-1.56
-2.5
-3.19
-3.86
-4.73
-5.93
-7.5
-9.41
-11.6
-14.08
-16.88
-19.97
-23.15
-26.04
-28.12
-28.89
-28.01
-25.47
-21.58
-16.79
-11.64
-6.52
-1.7
2.64
6.37
9.32
11.42
12.65
13.18
13.26
13.17
13.12
13.24
13.54
14.02
14.61
15.22
15.75
16.11
16.23
16.11
15.75
15.1
14.08
12.57
10.5
7.95
5.09
2.18
-0.57
-3.03
-5.21
-7.18
-8.89
-10.24
-11.14
-11.56
-11.66
-11.72
-12.07
-12.91
-14.32
-16.15
-18.14
-19.91
-21.09
-21.33
-20.4
-18.25
-15.02
-11.03
-6.66
-2.27
1.82
5.39
8.32
10.55
12.09
13.08
13.67
14.05
14.35
14.67
15.1
15.67
16.4
17.3
18.33
19.43
20.55
21.65
22.64
23.38
23.67
23.31
22.27
20.65
18.72
16.82
15.24
14.07
13.19
12.31
11.1
9.36
7.07
4.42
1.69
-0.82
-2.94
-4.63
-5.99
-7.22
-8.46
-9.88
-11.58
-13.56
-15.72
-17.8
-19.35
-19.86
-18.92
-16.36
-12.36
-7.4
-2.1
2.99
7.47
11.22
14.19
16.43
17.91
18.65
18.69
18.2
17.45
16.74
16.3
16.24
16.54
17.02
17.49
17.81
17.87
17.67
17.28
16.74
16.06
15.2
14.07
12.64
10.97
9.16
7.36
5.66
4.07
2.53
0.98
-0.62
-2.24
-3.79
-5.21
-6.45
-7.5
-8.4
-9.21
-10.05
-10.99
-12.15
-13.6
-15.34
-17.31
-19.34
-21.17
-22.4
-22.64
-21.57
-19.06
-15.27
-10.59
-5.51
-0.5
4.11
8.11
11.34
13.67
14.97
15.27
14.7
13.6
12.36
11.29
10.58
10.2
9.99
9.79
9.49
9.1
8.69
8.36
8.12
7.93
7.68
7.19
6.35
5.13
3.63
1.95
0.23
-1.42
-2.94
-4.32
-5.57
-6.69
-7.75
-8.75
-9.72
-10.68
-11.64
-12.59
-13.58
-14.7
-16.04
-17.76
-19.85
-22.19
-24.43
-26.07
-26.58
-25.59
-22.98
-18.98
-14.11
-8.96
-4.06
0.24
3.81
6.64
8.79
10.31
11.22
11.58
11.48
11.14
10.73
10.51
10.59
11.01
11.71
12.51
13.26
13.89
14.38
14.77
15.11
15.34
15.35
14.98
14.07
12.62
10.71
8.54
6.33
4.28
2.48
0.93
-0.46
-1.77
-3.12
-4.54
-6.0
-7.39
-8.59
-9.52
-10.19
-10.7
-11.27
-12.14
-13.49
-15.34
-17.5
-19.66
-21.35
-22.09
-21.54
-19.54
-16.16
-11.72
-6.66
-1.55
3.11
6.92
9.66
11.29
12.01
12.05
11.72
11.28
10.89
10.6
10.45
10.39
10.38
10.39
10.38
10.31
10.22
10.13
10.1
10.18
10.3
10.35
10.16
9.54
8.41
6.8
4.86
2.79
0.78
-1.07
-2.68
-4.06
-5.27
-6.35
-7.36
-8.35
-9.32
-10.23
-11.02
-11.61
-11.99
-12.21
-12.43
-12.85
-13.7
-15.13
-17.1
-19.37
-21.43
-22.68
-22.57
-20.76
-17.28
-12.49
-6.94
-1.25
4.08
8.64
12.22
14.71
16.16
16.75
16.76
16.52
16.28
16.17
16.18
16.26
16.34
16.37
16.33
16.18
15.92
15.52
15.04
14.53
14.01
13.44
12.72
11.74
10.48
8.99
7.4
5.82
4.26
2.72
1.12
-0.52
-2.15
-3.65
-4.97
-6.09
-7.03
-7.83
-8.49
-9.0
-9.45
-9.97
-10.82
-12.22
-14.26
-16.78
-19.39
-21.54
-22.68
-22.46
-20.8
-17.94
-14.29
-10.28
-6.26
-2.45
1.01
4.0
6.36
7.95
8.72
8.78
8.37
7.78
7.23
6.82
6.57
6.45
6.45
6.61
6.93
7.34
7.71
7.89
7.75
7.27
6.54
5.64
4.69
3.73
2.83
2.05
1.43
1.04
0.78
0.57
0.25
-0.31
-1.09
-2.04
-3.1
-4.3
-5.74
-7.6
-9.96
-12.81
-15.96
-19.14
-22.07
-24.42
-25.86
-26.03
-24.74
-21.93
-17.86
-12.98
-7.86
-3.03
1.2
4.64
7.35
9.37
10.75
11.56
11.85
11.71
11.25
10.61
9.94
9.33
8.83
8.46
8.25
8.22
8.37
8.69
9.09
9.41
9.46
9.09
8.25
7.06
5.7
4.35
3.05
1.71
0.19
-1.63
-3.75
-6.05
-8.28
-10.27
-11.92
-13.28
-14.55
-15.92
-17.55
-19.56
-21.97
-24.69
-27.51
-30.07
-31.89
-32.46
-31.38
-28.48
-23.98
-18.4
-12.41
-6.68
-1.69
2.35
5.44
7.73
9.39
10.59
11.51
12.29
13.06
13.86
14.66
15.35
15.81
15.95
15.82
15.5
15.15
14.87
14.72
14.69
14.69
14.56
14.12
13.23
11.85
10.03
7.92
5.76
3.73
1.93
0.33
-1.22
-2.87
-4.72
-6.78
-8.98
-11.17
-13.24
-15.12
-16.81
-18.42
-20.17
-22.24
-24.68
-27.32
-29.73
-31.28
-31.39
-29.68
-26.15
-21.16
-15.34
-9.33
-3.66
1.36
5.55
8.9
11.45
13.27
14.51
15.38
16.07
16.73
17.44
18.16
18.82
19.39
19.84
20.27
20.71
21.18
21.59
21.8
21.7
21.24
20.51
19.61
18.72
17.91
17.19
16.47
15.68
14.75
13.62
12.29
10.69
8.79
6.55
3.98
1.17
-1.72
-4.55
-7.21
-9.7
-12.19
-14.82
-17.7
-20.81
-24.0
-26.96
-29.31
-30.64
-30.57
-28.87
-25.53
-20.74
-14.93
-8.59
-2.28
3.55
8.6
12.67
15.65
17.51
18.28
18.09
17.19
15.9
14.52
13.31
12.41
11.85
11.52
11.29
11.02
10.69
10.34
10.04
9.84
9.71
9.52
9.1
8.33
7.19
5.79
4.35
3.02
1.88
0.86
-0.22
-1.53
-3.11
-4.89
-6.7
-8.35
-9.72
-10.78
-11.64
-12.46
-13.43
-14.72
-16.41
-18.47
-20.65
-22.59
-23.76
-23.75
-22.28
-19.36
-15.25
-10.4
-5.32
-0.41
3.99
7.7
10.6
12.64
13.86
14.36
14.32
13.93
13.37
12.72
12.06
11.43
10.88
10.53
10.46
10.69
11.08
11.44
11.52
11.2
10.47
9.46
8.33
7.18
6.03
4.75
3.28
1.53
-0.44
-2.52
-4.63
-6.7
-8.7
-10.61
-12.43
-14.17
-15.91
-17.8
-20.05
-22.75
-25.74
-28.6
-30.68
-31.34
-30.16
-27.06
-22.31
-16.38
-9.84
-3.22
2.97
8.28
12.38
15.1
16.49
16.78
16.35
15.55
14.63
13.7
12.81
11.99
11.35
10.97
10.9
11.03
11.16
11.1
10.69
9.96
9.0
7.96
6.96
6.04
5.18
4.33
3.43
2.39
1.17
-0.3
-2.04
-3.99
-6.01
-7.95
-9.66
-11.08
-12.29
-13.43
-14.72
-16.36
-18.49
-21.1
-24.01
-26.82
-28.94
-29.79
-28.9
-26.12
-21.64
-15.96
-9.75
-3.65
1.89
6.63
10.5
13.52
15.73
17.16
17.9
18.04
17.72
17.12
16.39
15.66
15.04
14.54
14.19
13.99
13.91
13.97
14.18
14.51
14.84
14.97
14.67
13.75
12.17
10.08
7.74
5.47
3.46
1.72
0.14
-1.45
-3.17
-4.98
-6.75
-8.34
-9.66
-10.77
-11.81
-12.98
-14.43
-16.29
-18.62
-21.36
-24.36
-27.25
-29.48
-30.43
-29.57
-26.66
-21.86
-15.68
-8.82
-1.94
4.44
10.03
14.64
18.21
20.67
22.07
22.54
22.37
21.89
21.46
21.31
21.53
22.04
22.66
23.17
23.38
23.23
22.76
22.14
21.5
20.9
20.3
19.59
18.65
17.47
16.07
14.53
12.88
11.16
9.34
7.44
5.54
3.69
1.96
0.35
-1.21
-2.74
-4.21
-5.56
-6.73
-7.71
-8.6
-9.51
-10.6
-12.04
-13.9
-16.2
-18.83
-21.48
-23.67
-24.83
-24.45
-22.31
-18.54
-13.64
-8.24
-2.99
1.67
5.49
8.37
10.36
11.49
11.83
11.51
10.69
9.55
8.29
7.08
6.06
5.36
5.04
5.1
5.48
6.1
6.85
7.64
8.34
8.8
8.88
8.53
7.78
6.79
5.72
4.75
3.94
3.27
2.62
1.85
0.79
-0.64
-2.47
-4.61
-6.84
-8.86
-10.44
-11.52
-12.19
-12.74
-13.49
-14.76
-16.66
-19.12
-21.85
-24.36
-26.06
-26.43
-25.12
-22.12
-17.79
-12.64
-7.27
-2.21
2.24
5.94
8.92
11.24
12.96
14.09
14.64
14.62
14.13
13.31
12.38
11.56
11.03
10.85
10.99
11.28
11.57
11.74
11.75
11.57
11.18
10.54
9.56
8.24
6.65
4.93
3.26
1.76
0.37
-1.08
-2.85
-5.11
-7.86
-10.85
-13.7
-16.04
-17.71
-18.75
-19.48
-20.33
-21.62
-23.52
-25.87
-28.33
-30.4
-31.63
-31.64
-30.22
-27.37
-23.25
-18.18
-12.57
-6.9
-1.59
3.06
6.88
9.88
12.12
13.68
14.58
14.87
14.65
14.15
13.65
13.37
13.43
13.75
14.13
14.42
14.56
14.64
14.75
14.91
14.99
14.78
14.06
12.77
11.06
9.19
7.45
6.02
4.92
3.99
3.0
1.81
0.37
-1.23
-2.85
-4.35
-5.71
-6.96
-8.25
-9.78
-11.7
-14.13
-17.14
-20.63
-24.25
-27.46
-29.57
-29.95
-28.28
-24.59
-19.35
-13.21
-6.86
-0.87
4.39
8.73
12.11
14.58
16.24
17.19
17.61
17.65
17.48
17.27
17.12
17.13
17.32
17.66
18.08
18.54
19.05
19.64
20.3
20.94
21.43
21.58
21.25
20.41
19.08
17.44
15.69
14.01
12.55
11.38
10.48
9.74
9.0
8.08
6.84
5.28
3.47
1.51
-0.47
-2.43
-4.35
-6.23
-8.11
-9.93
-11.54
-12.69
-13.1
-12.4
-10.34
-6.81
-1.91
4.07
10.67
17.4
23.82
29.58
34.41
38.16
40.68
41.86
41.62
39.94
36.91
32.83
28.13
23.32
18.8
14.84
11.49
8.68
6.32
4.37
2.83
1.66
0.72
-0.26
-1.56
-3.31
-5.46
-7.78
-9.99
-11.88
-13.35
-14.45
-15.32
-16.09
-16.88
-17.76
-18.79
-19.99
-21.35
-22.84
-24.38
-25.91
-27.4
-28.8
-30.16
-31.52
-32.94
-34.51
-36.23
-37.94
-39.29
-39.82
-39.05
-36.63
-32.47
-26.7
-19.75
-12.12
-4.43
2.76
8.92
13.65
16.67
17.96
17.66
16.15
13.88
11.31
8.85
6.73
5.12
4.02
3.43
3.28
3.49
3.97
4.61
5.31
6.01
6.69
7.29
7.8
8.14
8.25
8.06
7.53
6.69
5.54
4.09
2.34
0.26
-2.13
-4.8
-7.63
-10.53
-13.4
-16.18
-18.86
-21.48
-24.07
-26.69
-29.37
-32.02
-34.42
-36.2
-36.92
-36.27
-34.19
-30.84
-26.61
-21.96
-17.25
-12.78
-8.74
-5.28
-2.58
-0.8
-0.01
-0.13
-0.94
-2.09
-3.23
-4.12
-4.64
-4.82
-4.73
-4.45
-4.01
-3.36
-2.48
-1.36
-0.07
1.24
2.4
3.34
4.02
4.56
5.06
5.62
6.16
6.57
6.64
6.17
5.12
3.51
1.48
-0.81
-3.19
-5.62
-8.05
-10.56
-13.24
-16.16
-19.34
-22.57
-25.47
-27.53
-28.23
-27.28
-24.68
-20.72
-15.85
-10.59
-5.35
-0.48
3.77
7.21
9.78
11.53
12.65
13.4
14.02
14.63
15.17
15.58
15.8
15.87
15.9
15.96
16.1
16.24
16.29
16.15
15.78
15.16
14.3
13.19
11.85
10.33
8.8
7.45
6.4
5.72
5.28
4.83
4.09
2.87
1.13
-1.05
-3.46
-5.93
-8.33
-10.62
-12.87
-15.18
-17.69
-20.49
-23.59
-26.84
-29.92
-32.37
-33.7
-33.51
-31.57
-27.94
-22.9
-16.92
-10.6
-4.49
0.96
5.47
8.93
11.38
12.96
13.88
14.36
14.61
14.81
15.12
15.62
16.32
17.2
18.16
19.09
19.88
20.44
20.77
20.92
20.98
21.01
20.97
20.78
20.32
19.49
18.27
16.72
14.88
12.79
10.49
8.05
5.59
3.26
1.16
-0.74
-2.51
-4.28
-6.12
-7.97
-9.77
-11.48
-13.13
-14.85
-16.77
-18.96
-21.38
-23.82
-25.88
-27.1
-27.03
-25.34
-21.97
-17.14
-11.35
-5.21
0.69
5.89
10.07
13.08
14.87
15.55
15.37
14.68
13.81
13.07
12.57
12.35
12.41
12.79
13.52
14.58
15.85
17.14
18.2
18.84
19.03
18.81
18.27
17.46
16.35
14.94
13.24
11.34
9.39
7.54
5.89
4.41
3.04
1.6
-0.0
-1.87
-3.96
-6.18
-8.39
-10.4
-12.13
-13.56
-14.85
-16.26
-18.06
-20.4
-23.14
-25.83
-27.78
-28.3
-26.94
-23.64
-18.79
-13.01
-6.97
-1.21
3.95
8.35
11.87
14.46
16.05
16.69
16.58
16.01
15.31
14.74
14.39
14.27
14.29
14.38
14.46
14.54
14.59
14.6
14.57
14.45
14.18
13.67
12.83
11.61
10.09
8.41
6.77
5.29
3.94
2.57
0.97
-0.99
-3.31
-5.84
-8.34
-10.64
-12.64
-14.34
-15.9
-17.48
-19.33
-21.66
-24.53
-27.72
-30.71
-32.83
-33.4
-32.09
-28.88
-24.18
-18.56
-12.57
-6.68
-1.23
3.54
7.36
10.08
11.68
12.31
12.27
11.88
11.42
11.05
10.84
10.79
10.83
10.95
11.08
11.24
11.45
11.77
12.18
12.6
12.87
12.81
12.33
11.39
10.11
8.65
7.17
5.79
4.54
3.37
2.14
0.7
-1.05
-3.14
-5.46
-7.84
-10.06
-11.99
-13.65
-15.17
-16.79
-18.74
-21.17
-24.05
-27.08
-29.73
-31.36
-31.4
-29.55
-25.9
-20.85
-15.0
-8.96
-3.27
1.78
5.98
9.32
11.87
13.76
15.2
16.34
17.25
17.9
18.24
18.24
17.93
17.45
16.92
16.51
16.29
16.27
16.42
16.67
16.9
16.97
16.73
16.0
14.73
12.98
10.94
8.89
7.09
5.63
4.43
3.32
2.01
0.36
-1.64
-3.85
-6.09
-8.2
-10.15
-12.02
-13.94
-16.04
-18.43
-21.12
-24.05
-27.05
-29.88
-32.16
-33.46
-33.41
-31.72
-28.32
-23.41
-17.35
-10.7
-4.04
2.14
7.51
11.93
15.41
18.1
20.1
21.54
22.52
23.14
23.53
23.86
24.27
24.81
25.45
26.06
26.53
26.74
26.67
26.36
25.9
25.32
24.59
23.63
22.32
20.6
18.51
16.18
13.83
11.63
9.63
7.83
6.12
4.36
2.48
0.42
-1.77
-4.0
-6.11
-7.99
-9.59
-10.95
-12.24
-13.65
-15.41
-17.62
-20.27
-23.2
-26.09
-28.49
-29.97
-30.13
-28.75
-25.83
-21.57
-16.39
-10.83
-5.4
-0.55
3.41
6.36
8.27
9.21
9.34
8.86
8.07
7.32
6.95
7.12
7.82
8.87
10.0
11.0
11.81
12.45
12.97
13.37
13.55
13.38
12.82
11.9
10.76
9.57
8.46
7.47
6.56
5.62
4.51
3.15
1.53
-0.29
-2.21
-4.11
-5.89
-7.55
-9.11
-10.72
-12.5
-14.67
-17.34
-20.56
-24.13
-27.63
-30.43
-31.87
-31.47
-29.09
-24.97
-19.68
-13.85
-8.03
-2.65
2.1
6.1
9.27
11.59
13.09
13.84
14.05
13.89
13.54
13.08
12.55
12.0
11.49
11.08
10.85
10.81
10.9
11.0
11.02
10.9
10.65
10.28
9.78
9.14
8.35
7.47
6.54
5.63
4.74
3.86
2.9
1.79
0.44
-1.15
-2.93
-4.81
-6.65
-8.41
-10.14
-11.99
-14.21
-16.98
-20.28
-23.79
-26.91
-28.92
-29.21
-27.47
-23.8
-18.65
-12.73
-6.73
-1.24
3.36
6.86
9.29
10.69
11.25
11.16
10.68
10.02
9.37
8.89
8.67
8.76
9.13
9.73
10.45
11.22
11.96
12.64
13.26
13.81
14.23
14.45
14.35
13.81
12.78
11.29
9.48
7.56
5.78
4.27
3.08
2.08
1.1
-0.09
-1.61
-3.52
-5.78
-8.26
-10.83
-13.34
-15.7
-17.85
-19.87
-21.89
-24.1
-26.53
-29.03
-31.2
-32.47
-32.28
-30.33
-26.58
-21.42
-15.42
-9.24
-3.38
1.82
6.21
9.79
12.56
14.55
15.84
16.52
16.79
16.91
17.11
17.54
18.22
19.0
19.62
19.85
19.61
18.95
18.12
17.4
16.99
16.93
17.07
17.15
16.91
16.22
15.07
13.63
12.11
10.7
9.5
8.43
7.28
5.87
4.06
1.92
-0.4
-2.7
-4.84
-6.81
-8.64
-10.37
-12.0
-13.57
-15.17
-17.01
-19.27
-21.99
-24.87
-27.38
-28.84
-28.73
-26.86
-23.4
-18.83
-13.74
-8.64
-3.88
0.36
3.94
6.82
8.95
10.31
10.96
11.02
10.68
10.16
9.72
9.5
9.58
9.9
10.35
10.81
11.21
11.53
11.83
12.17
12.53
12.8
12.79
12.37
11.51
10.29
8.84
7.28
5.67
3.99
2.23
0.37
-1.56
-3.5
-5.42
-7.27
-9.01
-10.6
-12.01
-13.27
-14.47
-15.86
-17.69
-20.12
-23.11
-26.3
-29.1
-30.8
-30.76
-28.73
-24.84
-19.59
-13.66
-7.73
-2.27
2.44
6.29
9.29
11.45
12.84
13.5
13.55
13.11
12.38
11.58
10.88
10.35
9.97
9.65
9.32
9.0
8.82
8.9
9.29
9.88
10.41
10.63
10.43
9.88
9.2
8.6
8.13
7.69
7.0
5.81
3.98
1.5
-1.49
-4.8
-8.18
-11.47
-14.51
-17.25
-19.65
-21.8
-23.82
-25.86
-27.93
-29.83
-31.12
-31.28
-29.89
-26.77
-22.13
-16.44
-10.25
-4.11
1.56
6.44
10.28
12.87
14.13
14.13
13.14
11.51
9.63
7.78
6.18
4.93
4.13
3.8
3.94
4.45
5.24
6.25
7.43
8.72
10.02
11.07
11.64
11.51
10.68
9.3
7.68
6.12
4.78
3.63
2.52
1.26
-0.26
-2.04
-3.96
-5.85
-7.6
-9.17
-10.67
-12.33
-14.35
-16.88
-19.9
-23.13
-26.14
-28.4
-29.41
-28.85
-26.7
-23.1
-18.45
-13.15
-7.65
-2.34
2.43
6.39
9.46
11.67
13.22
14.32
15.1
15.58
15.73
15.49
14.93
14.19
13.51
13.07
12.93
13.08
13.45
14.0
14.69
15.49
16.34
17.09
17.63
17.81
17.57
16.89
15.81
14.39
12.73
10.91
8.96
6.84
4.53
1.99
-0.72
-3.43
-5.95
-8.13
-9.9
-11.39
-12.82
-14.41
-16.34
-18.64
-21.14
-23.55
-25.42
-26.29
-25.78
-23.69
-20.08
-15.24
-9.68
-3.9
1.62
6.61
10.9
14.44
17.16
19.05
20.09
20.35
19.99
19.24
18.41
17.73
17.39
17.43
17.76
18.23
18.65
18.88
18.82
18.47
17.87
17.02
15.91
14.51
12.84
10.97
9.1
7.36
5.91
4.74
3.75
2.75
1.57
0.09
-1.64
-3.41
-5.03
-6.32
-7.22
-7.89
-8.57
-9.51
