11.9
16.32
19.19
20.61
20.7
19.68
17.85
15.58
13.3
11.37
10.05
9.47
9.59
10.24
11.17
12.1
12.81
13.11
12.95
12.3
11.2
9.7
7.84
5.65
3.13
0.3
-2.82
-6.15
-9.61
-13.07
-16.42
-19.57
-22.49
-25.27
-28.07
-31.22
-34.96
-39.38
-44.19
-48.7
-51.95
-53.05
-51.41
-47.01
-40.36
-32.24
-23.55
-14.99
-7.13
-0.32
5.19
9.23
11.8
13.03
13.23
12.83
12.26
11.84
11.77
12.1
12.78
13.74
14.88
16.11
17.3
18.31
18.97
19.13
18.7
17.66
16.12
14.23
12.13
9.93
7.64
5.23
2.67
-0.02
-2.77
-5.43
-7.92
-10.25
-12.6
-15.28
-18.6
-22.71
-27.51
-32.59
-37.23
-40.54
-41.67
-40.03
-35.48
-28.42
-19.66
-10.31
-1.38
6.38
12.6
17.26
20.59
22.87
24.37
25.35
26.03
26.59
27.15
27.75
28.37
28.93
29.39
29.68
29.76
29.62
29.25
28.68
27.92
26.99
25.9
24.59
22.98
20.98
18.57
15.82
12.82
9.72
6.64
3.61
0.68
-2.19
-5.05
-7.99
-11.15
-14.69
-18.77
-23.46
-28.64
-33.87
-38.46
-41.55
-42.3
-40.23
-35.39
-28.41
-20.32
-12.21
-4.91
1.16
5.96
9.68
12.49
14.52
15.79
16.34
16.31
15.97
15.64
15.62
16.03
16.88
18.03
19.29
20.49
21.49
22.18
22.46
22.25
21.49
20.18
18.38
16.22
13.84
11.35
8.84
6.33
3.78
1.17
-1.53
-4.29
-7.01
-9.56
-11.88
-14.04
-16.24
-18.77
-21.89
-25.57
-29.45
-32.8
-34.77
-34.63
-32.06
-27.23
-20.79
-13.57
-6.39
0.16
5.75
10.23
13.57
15.73
16.71
16.62
15.75
14.55
13.49
12.94
12.96
13.46
14.12
14.7
15.04
15.15
15.17
15.24
15.42
15.71
16.04
16.23
16.11
15.51
14.34
12.59
10.34
7.77
5.02
2.18
-0.74
-3.73
-6.8
-9.92
-12.96
-15.77
-18.23
-20.31
-22.11
-23.84
-25.77
-28.16
-31.11
-34.48
-37.77
-40.25
-41.1
-39.72
-35.95
-30.07
-22.85
-15.23
-8.06
-1.98
2.76
6.19
8.55
10.13
11.19
11.89
12.28
12.42
12.37
12.28
12.37
12.8
13.58
14.55
15.43
15.98
16.13
15.96
15.7
15.6
15.77
16.15
16.51
16.6
16.24
15.44
14.34
13.12
11.91
10.7
9.36
7.72
5.75
3.54
1.32
-0.7
-2.4
-3.79
-4.97
-6.06
-7.13
-8.29
-9.68
-11.51
-13.95
-16.98
-20.29
-23.29
-25.3
-25.73
-24.36
-21.29
-16.99
-11.99
-6.84
-1.94
2.45
6.19
9.18
11.42
12.9
13.72
14.0
13.93
13.67
13.42
13.31
13.48
13.91
14.58
15.33
16.03
16.56
16.92
17.18
17.49
17.91
18.34
18.57
18.26
17.19
15.36
12.99
10.52
8.32
6.6
5.28
4.02
2.51
0.51
-1.91
-4.49
-6.9
-8.9
-10.44
-11.7
-12.97
-14.54
-16.62
-19.3
-22.61
-26.36
-30.2
-33.56
-35.74
-36.12
-34.32
-30.4
-24.8
-18.29
-11.62
-5.42
-0.06
4.31
7.66
10.06
11.62
12.46
12.78
12.76
12.56
12.3
12.07
11.93
11.93
12.15
12.58
13.21
13.96
14.73
15.4
15.87
16.06
15.91
15.37
14.38
12.95
11.14
9.05
6.82
4.68
2.79
1.23
-0.03
-1.09
-2.15
-3.34
-4.71
-6.24
-7.79
-9.25
-10.63
-12.04
-13.65
-15.64
-18.06
-20.92
-24.1
-27.47
-30.91
-34.22
-37.05
-38.96
-39.46
-38.16
-35.03
-30.34
-24.65
-18.61
-12.75
-7.41
-2.74
1.19
4.38
6.77
8.37
9.26
9.61
9.69
9.8
10.14
10.73
11.46
12.09
12.44
12.48
12.32
12.12
12.0
11.99
12.0
11.94
11.8
11.64
11.53
11.45
11.29
10.85
10.02
8.75
7.19
5.57
4.13
3.01
2.15
1.42
0.57
-0.61
-2.22
-4.23
-6.51
-8.9
-11.22
-13.45
-15.62
-17.91
-20.53
-23.61
-27.11
-30.78
-34.17
-36.68
-37.81
-37.23
-34.89
-31.03
-26.03
-20.32
-14.34
-8.53
-3.17
1.43
5.09
7.73
9.42
10.42
11.06
11.66
12.43
13.42
14.55
15.7
16.86
18.05
19.44
21.14
23.13
25.21
27.04
28.25
28.63
28.2
27.15
25.77
24.28
22.73
21.07
19.16
16.93
14.48
11.99
9.68
7.67
5.95
4.45
3.04
1.67
0.36
-0.88
-2.08
-3.33
-4.79
-6.56
-8.68
-11.07
-13.64
-16.4
-19.43
-22.79
-26.35
-29.66
-32.08
-32.89
-31.69
-28.47
-23.7
-18.05
-12.25
-6.8
-2.01
2.03
5.27
7.64
9.15
9.8
9.77
9.28
8.63
8.08
7.82
7.88
8.16
8.51
8.78
8.94
9.05
9.26
9.68
10.32
11.02
11.49
11.47
10.81
9.55
7.89
6.12
4.45
2.99
1.77
0.72
-0.26
-1.23
-2.26
-3.33
-4.38
-5.36
-6.32
-7.35
-8.67
-10.48
-12.88
-15.72
-18.61
-21.04
-22.49
-22.64
-21.37
-18.84
-15.36
-11.38
-7.34
-3.67
-0.64
1.65
3.25
4.37
5.19
5.8
6.14
6.18
5.92
5.53
5.29
5.42
6.04
7.03
8.13
9.07
9.63
9.75
9.48
8.93
8.14
7.13
5.92
4.47
2.82
1.02
-0.85
-2.67
-4.36
-5.91
-7.38
-8.84
-10.42
-12.14
-14.03
-16.1
-18.38
-20.97
-23.97
-27.37
-30.9
-34.05
-36.15
-36.58
-35.03
-31.67
-27.05
-21.92
-16.95
-12.51
-8.71
-5.44
-2.61
-0.24
1.57
2.79
3.51
3.99
4.55
5.43
6.74
8.34
10.01
11.51
12.75
13.68
14.33
14.71
14.78
14.47
13.77
12.76
11.6
10.49
9.51
8.65
7.77
6.68
5.31
3.69
1.98
0.4
-0.99
-2.22
-3.52
-5.17
-7.48
-10.6
-14.56
-19.16
-24.05
-28.66
-32.34
-34.42
-34.46
-32.4
-28.49
-23.33
-17.59
-11.84
-6.43
-1.52
2.89
6.79
10.14
12.89
14.98
16.45
17.37
17.84
18.03
18.07
18.16
18.44
19.04
19.94
21.03
22.05
22.79
23.1
22.89
22.24
21.22
19.97
18.65
17.35
16.15
15.04
13.9
12.53
10.72
8.42
5.74
2.92
0.22
-2.2
-4.32
-6.29
-8.34
-10.68
-13.41
-16.48
-19.62
-22.33
-23.96
-23.92
-21.88
-17.85
-12.28
-5.87
0.59
6.46
11.36
15.2
18.09
20.2
21.73
22.73
23.24
23.29
23.0
22.55
22.13
21.91
21.95
22.17
22.49
22.76
22.93
22.93
22.67
22.02
20.85
19.12
16.91
14.47
12.09
10.01
8.27
6.82
5.43
3.95
2.27
0.42
-1.49
-3.34
-5.08
-6.74
-8.36
-10.09
-12.06
-14.39
-17.13
-20.17
-23.18
-25.61
-26.9
-26.57
-24.48
-20.81
-16.05
-10.81
-5.68
-1.12
2.61
5.39
7.23
8.19
8.41
8.1
7.49
6.86
6.43
6.35
6.67
7.38
8.36
9.55
10.82
12.12
13.3
14.24
14.78
14.79
14.27
13.3
12.01
10.56
9.07
7.59
6.2
4.92
3.77
2.72
1.67
0.48
-0.92
-2.58
-4.46
-6.51
-8.69
-11.06
-13.66
-16.49
-19.34
-21.82
-23.37
-23.5
-21.91
-18.63
-14.04
-8.75
-3.46
1.26
5.04
7.73
9.41
10.25
10.44
10.19
9.65
8.96
8.24
7.61
7.18
7.01
7.07
7.29
7.55
7.79
7.93
8.0
7.97
7.72
7.12
6.05
4.5
2.62
0.63
-1.26
-2.97
-4.58
-6.27
-8.14
-10.14
-12.09
-13.79
-15.09
-15.98
-16.6
-17.21
-18.03
-19.32
-21.23
-23.8
-26.89
-30.11
-32.93
-34.68
-34.83
-33.09
-29.53
-24.58
-18.85
-13.04
-7.71
-3.29
0.04
2.33
3.77
4.64
5.23
5.78
6.45
7.3
8.27
9.26
10.11
10.68
10.92
10.85
10.63
10.42
10.37
10.51
10.82
11.23
11.62
11.91
12.01
11.78
11.2
10.24
9.01
7.63
6.16
4.61
2.91
1.0
-1.07
-3.16
-5.07
-6.68
-7.99
-9.12
-10.31
-11.74
-13.56
-15.84
-18.55
-21.53
-24.44
-26.8
-28.01
-27.63
-25.44
-21.6
-16.64
-11.27
-6.16
-1.78
1.73
4.43
6.52
8.19
9.58
10.75
11.72
12.57
13.39
14.32
15.43
16.73
18.09
19.31
20.2
20.65
20.6
20.14
19.38
18.45
17.48
16.46
15.34
14.05
12.54
10.86
9.11
7.45
6.04
4.98
4.27
3.83
3.55
3.26
2.83
2.13
1.09
-0.33
-2.09
-4.09
-6.2
-8.3
-10.3
-12.17
-14.0
-15.93
-18.04
-20.28
-22.39
-23.9
-24.31
-23.21
-20.48
-16.4
-11.53
-6.55
-2.05
1.59
4.3
6.19
7.46
8.27
8.69
8.74
8.46
8.02
7.63
7.52
7.82
8.48
9.3
10.04
10.49
10.61
10.52
10.41
10.45
10.67
10.96
11.11
10.92
10.32
9.35
8.16
6.88
5.61
4.28
2.85
1.25
-0.48
-2.25
-3.94
-5.46
-6.82
-8.04
-9.2
-10.4
-11.76
-13.45
-15.66
-18.46
-21.7
-24.98
-27.71
-29.27
-29.3
-27.7
-24.71
-20.72
-16.16
-11.35
-6.54
-1.98
2.01
5.05
6.82
7.18
6.24
4.38
2.1
-0.06
-1.74
-2.77
-3.28
-3.52
-3.88
-4.69
-6.1
-8.03
-10.15
-11.98
-13.05
-13.0
-11.72
-9.39
-6.4
-3.21
-0.32
1.87
3.08
3.2
2.32
0.65
-1.42
-3.46
-5.12
-6.2
-6.75
-6.99
-7.2
-7.68
-8.61
-10.07
-11.96
-14.0
-15.76
-16.68
-16.22
-14.11
-10.45
-5.74
-0.75
3.78
7.38
9.94
11.6
12.59
13.0
12.85
12.08
10.81
9.29
7.95
7.13
7.02
7.5
8.28
9.02
9.46
9.51
9.22
8.64
7.72
6.4
4.64
2.64
0.84
-0.13
0.27
2.32
5.84
10.35
15.25
20.1
24.74
29.23
33.67
38.08
42.2
45.55
47.51
47.54
45.27
40.71
34.29
26.76
19.01
11.86
5.85
1.35
-1.44
-2.36
-1.28
1.76
6.47
12.25
18.26
23.72
28.08
31.12
32.92
33.73
33.84
33.5
32.94
32.37
31.94
31.77
31.77
31.73
31.38
30.47
28.86
26.56
23.62
20.1
16.05
11.43
6.25
0.54
-5.61
-12.06
-18.56
-24.87
-30.73
-35.92
-40.26
-43.63
-46.0
-47.42
-48.02
-48.05
-47.81
-47.65
-47.88
-48.71
-50.16
-52.05
-54.04
-55.62
-56.17
-55.12
-52.03
-46.82
-39.82
-31.71
-23.4
-15.71
-9.24
-4.28
-0.82
1.31
2.32
2.4
1.74
0.55
-0.91
-2.36
-3.48
-4.09
-4.07
-3.44
-2.3
-0.8
0.92
2.72
4.43
5.94
7.08
7.79
8.08
8.07
7.91
7.79
7.85
8.13
8.55
8.99
9.3
9.36
9.11
8.59
7.88
7.1
6.31
5.52
4.65
3.55
2.01
-0.13
-2.87
-5.98
-8.93
-11.01
-11.52
-10.06
-6.65
-1.73
3.93
9.53
14.39
18.07
20.33
21.16
20.74
19.36
17.46
15.49
13.75
12.43
11.51
10.91
10.55
10.4
10.48
10.8
11.38
12.12
12.92
13.65
14.19
14.44
14.28
13.65
12.48
10.73
8.45
5.7
2.63
-0.59
-3.77
-6.77
-9.52
-12.02
-14.32
-16.45
-18.43
-20.35
-22.33
-24.51
-26.95
-29.47
-31.67
-32.92
-32.62
-30.43
-26.43
-21.15
-15.33
-9.75
-4.95
-1.22
1.37
2.91
3.5
3.3
2.43
1.11
-0.43
-1.93
-3.16
-3.94
-4.17
-3.88
-3.11
-2.03
-0.68
0.85
2.49
4.1
5.44
6.21
6.19
5.34
3.84
2.04
0.33
-1.05
-2.04
-2.75
-3.37
-4.02
-4.76
-5.54
-6.35
-7.17
-8.09
-9.18
-10.59
-12.42
-14.77
-17.62
-20.78
-23.83
-26.15
-27.02
-25.89
-22.56
-17.22
-10.45
-3.03
4.23
10.72
15.98
19.82
22.18
23.13
22.81
21.48
19.42
16.99
14.52
12.25
10.38
8.96
7.99
7.38
7.06
6.99
7.1
7.28
7.38
7.21
6.62
5.58
4.17
2.56
1.01
-0.25
-1.13
-1.6
-1.77
-1.81
-1.88
-2.07
-2.44
-2.92
-3.37
-3.61
-3.5
-2.98
-2.12
-1.05
-0.07
0.45
0.15
-1.17
-3.43
-6.14
-8.49
-9.55
-8.55
-5.16
0.46
7.67
15.67
23.64
30.98
37.34
42.58
46.69
49.75
51.9
53.35
54.36
55.14
55.88
56.62
57.24
57.5
57.15
56.05
54.15
51.54
48.33
44.59
40.3
35.49
30.23
24.72
19.26
14.12
9.46
5.22
1.29
-2.5
-6.23
-9.88
-13.38
-16.68
-19.81
-22.86
-25.76
-28.36
-30.36
-31.45
-31.49
-30.63
-29.26
-27.87
-26.94
-26.67
-27.06
-27.89
-28.95
-30.01
-30.91
-31.45
-31.3
-30.0
-27.13
-22.47
-16.2
-8.83
-1.03
6.54
13.41
19.2
23.65
26.47
27.44
26.5
23.97
20.42
16.59
13.05
10.07
7.54
5.22
2.9
0.62
-1.4
-2.85
-3.53
-3.5
-3.0
-2.47
-2.28
-2.7
-3.8
-5.48
-7.53
-9.73
-11.88
-13.82
-15.48
-16.87
-18.04
-19.02
-19.89
-20.66
-21.37
-22.06
-22.79
-23.59
-24.45
-25.33
-26.18
-27.02
-27.98
-29.18
-30.63
-32.12
-33.12
-32.99
-31.12
-27.29
-21.7
-14.93
-7.79
-1.06
4.67
9.01
11.8
13.08
12.96
11.68
9.57
6.93
4.09
1.39
-0.85
-2.4
-3.15
-3.11
-2.49
-1.51
-0.39
0.72
1.72
2.5
2.91
2.81
2.1
0.73
-1.09
-3.12
-5.03
-6.64
-7.87
-8.85
-9.8
-10.94
-12.39
-14.11
-15.95
-17.73
-19.26
-20.45
-21.31
-21.93
-22.5
-23.34
-24.74
-26.84
-29.46
-32.0
-33.57
-33.32
-30.79
-26.11
-20.0
-13.48
-7.42
-2.38
1.49
4.29
6.18
7.23
7.55
7.27
6.65
6.03
5.72
5.89
6.54
7.55
8.75
10.03
11.33
12.65
14.0
15.3
16.39
17.04
16.99
16.13
14.52
12.38
10.06
7.88
5.98
4.39
2.93
1.4
-0.38
-2.49
-4.91
-7.53
-10.21
-12.75
-15.03
-17.03
-18.87
-20.79
-23.08
-25.9
-29.16
-32.42
-34.96
-35.95
-34.72
-30.95
-24.87
-17.15
-8.74
-0.65
6.32
11.67
15.25
17.12
17.49
16.6
14.74
12.25
9.46
6.79
4.59
3.19
2.75
3.27
4.55
6.34
8.33
10.22
11.8
12.92
13.43
13.27
12.42
10.95
9.11
7.19
5.45
4.02
2.78
1.47
-0.16
-2.27
-4.8
-7.52
-10.17
-12.56
-14.62
-16.43
-18.13
-19.88
-21.86
-24.15
-26.69
-29.17
-30.99
-31.41
-29.8
-25.89
-19.89
-12.48
-4.55
3.05
9.61
14.75
18.3
20.19
20.52
19.45
17.25
14.28
10.96
7.72
4.93
2.88
1.72
1.48
1.99
3.03
4.3
5.56
6.63
7.45
7.98
8.2
8.05
7.42
6.22
4.43
2.15
-0.43
-3.02
-5.42
-7.52
-9.4
-11.21
-13.12
-15.3
-17.83
-20.73
-23.97
-27.38
-30.55
-32.87
-33.6
-32.04
-27.85
-21.25
-12.88
-3.77
5.1
12.9
19.2
23.8
26.68
27.88
27.46
25.56
22.46
18.58
14.48
10.73
7.77
5.85
4.97
4.93
5.44
6.17
6.9
7.5
7.92
8.17
8.23
7.97
7.24
5.86
3.79
1.11
-1.88
-4.86
-7.54
-9.81
-11.79
-13.73
-15.98
-18.78
-22.2
-26.04
-29.79
-32.69
-33.87
-32.65
-28.71
-22.24
-13.91
-4.7
4.38
12.5
19.11
23.94
26.85
27.88
27.16
25.0
21.94
18.64
15.74
13.7
12.69
12.61
13.14
13.93
14.72
15.38
15.89
16.32
16.68
16.94
16.92
16.39
15.12
12.98
10.0
6.38
2.43
-1.52
-5.2
-8.47
-11.34
-13.91
-16.38
-19.01
-21.99
-25.31
-28.66
-31.35
-32.47
-31.18
-27.05
-20.23
-11.47
-1.89
7.33
15.25
21.3
25.3
27.35
27.67
26.55
24.28
21.23
17.86
14.73
12.33
11.02
10.84
11.53
12.64
13.64
14.23
14.37
14.23
14.08
14.0
13.9
13.52
12.56
10.87
8.56
5.92
3.35
1.14
-0.63
-2.09
-3.46
-5.02
-6.96
-9.46
-12.54
-16.12
-19.85
-23.18
-25.33
-25.6
-23.5
-19.0
-12.6
-5.08
2.61
9.69
15.64
20.24
23.44
25.36
26.11
25.75
24.52
22.7
20.72
19.04
18.04
17.87
18.45
19.49
20.55
21.3
21.49
21.12
20.3
19.24
18.07
16.88
15.6
14.11
12.28
10.02
7.36
4.53
1.83
-0.48
-2.2
-3.4
-4.37
-5.52
-7.26
-9.88
-13.33
-17.29
-21.14
-24.1
-25.48
-24.76
-21.84
-16.98
-10.8
-4.1
2.33
7.88
12.15
14.97
16.38
16.49
15.57
13.93
11.96
10.06
8.55
7.67
7.48
7.9
8.75
9.76
10.66
11.24
11.41
11.2
10.78
10.29
9.86
9.45
8.92
8.03
6.67
4.86
2.81
0.79
-1.04
-2.68
-4.31
-6.18
-8.46
-11.17
-14.19
-17.3
-20.23
-22.65
-24.16
-24.33
-22.81
-19.45
-14.5
-8.5
-2.2
3.69
8.64
12.37
14.83
16.03
16.08
15.07
13.25
10.95
8.63
6.75
5.62
5.32
5.66
6.31
6.91
7.22
7.19
6.86
6.4
5.89
5.39
4.87
4.26
3.47
2.38
0.91
-0.97
-3.15
-5.44
-7.61
-9.47
-10.99
-12.3
-13.7
-15.44
-17.7
-20.36
-22.97
-24.9
-25.44
-24.1
-20.76
-15.74
-9.73
-3.56
2.0
6.45
9.59
11.48
12.27
12.15
11.34
10.02
8.39
6.74
5.39
4.66
4.83
5.91
7.68
9.73
11.54
12.81
13.44
13.54
13.32
12.9
12.23
11.11
9.38
7.05
4.27
1.34
-1.43
-3.85
-5.87
-7.52
-8.92
-10.18
-11.45
-12.84
-14.48
-16.49
-18.9
-21.63
-24.28
-26.31
-27.04
-25.97
-22.93
-18.29
-12.79
-7.33
-2.69
0.78
3.08
4.51
5.42
6.07
6.53
6.85
7.1
7.4
7.93
8.8
10.03
11.46
12.8
13.82
14.42
14.64
14.66
14.59
14.46
14.12
13.39
12.14
10.41
8.42
6.42
4.57
2.85
1.14
-0.73
-2.78
-4.96
-7.09
-9.0
-10.62
-11.94
-13.1
-14.26
-15.61
-17.29
-19.43
-22.01
-24.79
-27.37
-29.09
-29.35
-27.68
-23.98
-18.6
-12.29
-5.96
-0.42
3.8
6.61
8.23
9.0
9.3
9.38
9.4
9.5
9.82
10.45
11.45
12.74
14.11
15.34
16.17
16.47
16.19
15.45
14.38
13.23
12.11
11.09
10.12
9.12
8.02
6.84
5.59
4.36
3.26
2.36
1.66
1.14
0.7
0.2
-0.52
-1.56
-2.93
-4.55
-6.31
-8.12
-9.9
-11.62
-13.28
-14.88
-16.55
-18.49
-20.94
-23.98
-27.38
-30.56
-32.66
-32.83
-30.56
-25.9
-19.48
-12.25
-5.27
0.66
5.07
7.94
9.48
10.07
10.07
9.74
9.27
8.74
8.3
8.11
8.37
9.14
10.38
11.83
13.2
14.26
14.91
15.23
15.32
15.28
15.07
14.61
13.78
12.51
10.83
8.85
6.75
4.77
3.07
1.75
0.81
0.17
-0.32
-0.78
-1.28
-1.85
-2.48
-3.24
-4.14
-5.23
-6.48
-7.82
-9.23
-10.82
-12.76
-15.27
-18.48
-22.24
-26.08
-29.25
-30.9
-30.38
-27.46
-22.35
-15.7
-8.41
-1.36
4.73
9.42
12.62
14.49
15.29
15.24
14.53
13.3
11.74
10.18
9.01
8.57
9.02
10.22
11.75
13.1
13.95
14.23
14.11
13.83
13.55
13.2
12.62
11.6
10.05
8.03
5.76
3.51
1.5
-0.13
-1.37
-2.33
-3.2
-4.2
-5.49
-7.19
-9.27
-11.61
-14.0
-16.22
-18.12
-19.67
-21.08
-22.72
-25.01
-28.16
-32.04
-36.06
-39.28
-40.7
-39.63
-35.87
-29.83
-22.3
-14.26
-6.61
-0.02
5.09
8.55
10.42
10.94
10.54
9.72
8.91
8.43
8.44
8.94
9.9
11.21
12.78
14.42
15.92
17.07
17.78
18.13
18.31
18.46
18.64
18.71
18.42
17.54
16.0
13.92
11.59
9.29
7.26
5.49
3.89
2.24
0.37
-1.82
-4.35
-7.13
-10.01
-12.83
-15.47
-17.91
-20.21
-22.56
-25.15
-28.24
-31.99
-36.36
-41.03
-45.3
-48.23
-48.9
-46.65
-41.39
-33.68
-24.53
-15.16
-6.61
0.51
6.03
10.11
13.06
15.16
16.53
17.31
17.59
17.58
17.58
17.87
18.62
19.84
21.37
22.94
24.3
25.27
25.8
25.92
25.7
25.24
24.59
23.76
22.71
21.41
19.82
17.96
15.94
13.9
12.0
10.34
8.95
7.67
6.29
4.54
2.23
-0.67
-4.02
-7.51
-10.82
-13.66
-15.96
-17.92
-19.95
-22.5
-25.93
-30.26
-35.08
-39.63
-42.96
-44.14
-42.57
-38.12
-31.12
-22.33
-12.73
-3.34
4.97
11.65
16.44
19.45
20.9
21.15
20.52
19.36
18.05
16.94
16.37
16.54
17.52
19.13
21.09
23.09
24.91
26.42
27.62
28.5
28.98
28.9
28.12
26.57
24.37
21.8
19.24
16.98
15.15
13.69
12.38
10.92
9.07
6.68
3.75
0.44
-2.99
-6.27
-9.17
-11.63
-13.74
-15.73
-17.93
-20.68
-24.27
-28.72
-33.79
-38.77
-42.71
-44.52
-43.35
-38.9
-31.47
-21.96
-11.56
-1.48
7.32
14.22
18.93
21.55
22.36
21.81
20.41
18.68
17.02
15.73
15.06
15.09
15.82
17.12
18.76
20.47
21.98
23.06
23.56
23.41
22.57
21.11
19.13
16.85
14.51
12.31
10.35
8.59
6.82
4.86
2.54
-0.16
-3.07
-6.01
-8.83
-11.51
-14.25
-17.35
-21.15
-25.86
-31.39
-37.28
-42.73
-46.7
-48.19
-46.46
-41.27
-33.0
-22.62
-11.42
-0.71
8.49
15.66
20.7
23.85
25.42
25.73
25.03
23.6
21.76
19.89
18.34
17.38
17.09
17.45
18.33
19.55
20.95
22.34
23.55
24.38
24.6
24.09
22.77
20.71
18.12
15.22
12.24
9.34
6.51
3.65
0.58
-2.83
-6.56
-10.47
-14.29
-17.78
-20.81
-23.47
-26.07
-29.08
-32.94
-37.78
-43.3
-48.63
-52.52
-53.65
-51.08
-44.57
-34.72
-22.8
-10.37
1.18
10.94
18.52
24.0
27.58
29.53
30.08
29.5
28.18
26.61
25.3
24.63
24.68
25.33
26.3
27.34
28.32
29.24
30.11
30.9
31.47
31.57
30.96
29.53
27.3
24.48
21.36
18.17
15.04
11.96
8.8
5.39
1.65
-2.37
-6.5
-10.47
-14.07
-17.19
-19.94
-22.59
-25.56
-29.27
-34.02
-39.84
-46.28
-52.43
-57.04
-58.76
-56.59
-50.19
-40.12
-27.66
-14.45
-2.07
8.41
16.47
22.1
25.56
27.21
27.45
26.71
25.48
24.31
23.71
24.0
25.22
27.12
29.27
31.24
32.79
33.88
34.69
35.41
36.1
36.62
36.65
35.85
34.01
31.15
27.54
23.58
19.7
16.13
12.89
9.81
6.57
2.92
-1.2
-5.67
-10.16
-14.3
-17.84
-20.71
-23.06
-25.24
-27.66
-30.78
-34.89
-39.97
-45.6
-50.91
-54.71
-55.77
-53.23
-46.82
-37.04
-25.0
-12.09
0.31
11.14
19.72
25.75
29.23
30.38
29.6
27.43
24.55
21.67
19.41
18.18
18.07
18.87
20.16
21.53
22.71
23.59
24.26
24.82
25.3
25.52
25.21
24.12
22.18
19.53
16.45
13.33
10.39
7.7
5.15
2.52
-0.35
-3.53
-6.87
-10.15
-13.11
-15.58
-17.61
-19.48
-21.68
-24.67
-28.81
-34.05
-39.83
-45.11
-48.61
-49.13
-45.95
-39.08
-29.26
-17.82
-6.21
4.32
12.96
19.38
23.61
25.86
26.33
25.27
23.04
20.16
17.32
15.2
14.24
14.54
15.83
17.66
19.62
21.45
23.02
24.26
25.01
25.02
24.04
21.98
18.97
15.32
11.39
7.45
3.62
-0.15
-3.99
-7.97
-12.07
-16.13
-19.91
-23.24
-26.09
-28.65
-31.33
-34.56
-38.7
-43.85
-49.7
-55.56
-60.35
-62.81
-61.88
-56.97
-48.23
-36.57
-23.42
-10.36
1.3
10.76
17.77
22.43
25.11
26.2
26.09
25.22
24.05
23.0
22.4
22.42
23.02
24.03
25.21
26.35
27.35
28.18
28.79
29.08
28.86
27.9
26.07
23.39
20.04
16.31
12.49
8.75
5.11
1.47
-2.28
-6.17
-10.12
-13.94
-17.45
-20.5
-23.07
-25.25
-27.3
-29.62
-32.7
-36.95
-42.48
-48.82
-54.91
-59.2
-60.15
-56.77
-48.99
-37.71
-24.55
-11.3
0.54
10.11
17.15
21.83
24.52
25.62
25.48
24.5
23.13
21.89
21.28
21.61
22.9
24.88
27.05
28.95
30.32
31.13
31.59
31.85
31.95
31.71
30.85
29.12
26.48
23.15
19.49
15.87
12.55
9.55
6.74
3.92
0.88
-2.4
-5.85
-9.3
-12.57
-15.62
-18.49
-21.35
-24.42
-27.95
-32.22
-37.42
-43.56
-50.29
-56.73
-61.57
-63.38
-61.06
-54.21
-43.4
-29.93
-15.5
-1.72
10.24
19.73
26.64
31.15
33.62
34.42
33.96
32.65
31.01
29.44
28.34
27.94
28.26
29.14
30.24
31.22
31.81
31.87
31.48
30.82
30.1
29.38
28.57
27.43
25.68
23.2
20.07
16.61
13.25
10.28
7.78
5.59
3.36
0.75
-2.43
-6.15
-10.17
-14.15
-17.77
-20.87
-23.43
-25.64
-27.84
-30.47
-33.96
-38.53
-44.01
-49.73
-54.53
-57.04
-56.1
-51.12
-42.32
-30.71
-17.71
-4.82
6.72
16.12
22.96
27.16
28.9
28.57
26.73
24.06
21.27
18.93
17.42
16.85
17.14
18.1
19.48
21.03
22.52
23.73
24.51
24.75
24.42
23.5
21.99
19.87
17.18
14.03
10.68
7.4
4.41
1.77
-0.71
-3.32
-6.31
-9.74
-13.37
-16.84
-19.76
-21.94
-23.43
-24.59
-25.93
-28.02
-31.31
-35.88
-41.33
-46.72
-50.8
-52.24
-50.02
-43.81
-34.02
-21.75
-8.52
4.11
14.86
22.97
28.19
30.73
31.09
29.86
27.55
24.65
21.58
18.82
16.87
16.08
16.59
18.18
20.38
22.59
24.37
25.52
26.04
26.04
25.53
24.39
22.4
19.49
15.78
11.6
7.4
3.51
0.08
-2.97
-5.88
-8.88
-12.1
-15.48
-18.85
-21.97
-24.71
-27.03
-29.08
-31.14
-33.59
-36.8
-41.02
-46.24
-52.07
-57.7
-61.9
-63.38
-61.02
-54.36
-43.74
-30.33
-15.79
-1.84
10.19
19.52
25.96
29.74
31.26
30.99
29.44
27.15
24.73
22.7
21.52
21.36
22.15
23.57
25.24
26.83
28.16
29.21
30.0
30.56
30.8
30.57
29.66
27.91
25.3
21.95
18.14
14.21
10.5
7.2
4.29
1.57
-1.27
-4.5
-8.24
-12.38
-16.63
-20.63
-24.15
-27.15
-29.81
-32.53
-35.79
-40.03
-45.37
-51.54
-57.68
-62.49
-64.51
-62.59
-56.29
-46.08
-33.25
-19.45
-6.32
5.02
14.03
20.69
25.24
27.99
29.28
29.45
28.94
28.24
27.84
28.1
29.15
30.84
32.86
34.79
36.31
37.23
37.53
37.33
36.79
36.03
35.03
33.72
31.92
29.56
26.69
23.46
20.17
17.13
14.52
12.38
10.54
8.65
6.32
3.28
-0.54
-4.94
-9.54
-13.88
-17.65
-20.75
-23.38
-25.92
-28.82
-32.49
-37.14
-42.7
-48.73
-54.34
-58.37
-59.6
-57.15
-50.8
-41.13
-29.33
-16.97
-5.48
4.16
11.52
16.61
19.74
21.28
21.6
21.09
20.17
19.28
18.83
19.09
20.12
21.82
23.88
26.05
28.12
29.89
31.23
32.0
32.06
31.37
29.93
27.83
25.2
22.13
18.7
15.03
11.29
7.76
4.74
2.4
0.71
-0.61
-1.97
-3.73
-5.98
-8.59
-11.19
-13.48
-15.37
-17.03
-18.87
-21.31
-24.68
-29.03
-34.16
-39.55
-44.4
-47.74
-48.54
-46.06
-40.06
-31.0
-19.92
-8.29
2.48
11.35
17.78
21.74
23.54
23.55
22.17
19.81
16.93
14.13
12.03
11.13
11.63
13.36
15.85
18.5
20.88
22.77
24.16
25.12
25.63
25.61
24.87
23.33
20.97
17.98
14.62
11.17
7.86
4.82
2.1
-0.38
-2.74
-5.13
-7.68
-10.45
-13.39
-16.34
-19.08
-21.45
-23.47
-25.34
-27.46
-30.31
-34.26
-39.39
-45.32
-51.15
-55.64
-57.49
-55.74
-50.15
-41.24
-30.16
-18.31
-7.02
2.71
10.32
15.66
18.87
20.34
20.57
20.12
19.52
19.15
19.24
19.82
20.86
22.25
23.84
25.44
26.84
27.85
28.36
28.38
27.95
27.13
25.94
24.35
22.29
19.76
16.84
13.74
10.71
7.95
5.56
3.5
1.62
-0.26
-2.32
-4.67
-7.37
-10.34
-13.4
-16.32
-18.9
-21.07
-22.99
-25.0
-27.53
-30.96
-35.43
-40.78
-46.41
-51.36
-54.48
-54.66
-51.2
-44.08
-34.03
-22.36
-10.62
-0.11
8.4
14.68
18.97
21.64
23.03
23.4
23.01
22.17
21.26
20.62
20.46
20.81
21.51
22.35
23.17
23.91
24.61
25.34
26.1
26.84
27.43
27.73
27.65
27.11
26.06
24.52
22.51
20.08
17.37
14.48
11.5
8.44
5.24
1.84
-1.79
-5.49
-9.05
-12.21
-14.82
-16.87
-18.5
-19.98
-21.57
-23.51
-26.03
-29.3
-33.38
-38.09
-42.87
-46.74
-48.56
-47.33
-42.61
-34.74
-24.79
-14.2
-4.33
3.84
9.91
13.9
16.13
16.9
16.53
15.32
13.6
11.81
10.36
9.65
9.85
10.95
12.69
14.71
16.66
18.31
19.63
20.67
21.53
22.27
22.78
22.88
22.36
21.12
19.18
16.74
14.11
11.59
9.38
7.47
5.72
3.86
1.7
-0.83
-3.59
-6.37
-8.96
-11.24
-13.24
-15.06
-16.87
-18.84
-21.21
-24.11
-27.58
-31.38
-34.86
-37.13
-37.31
-34.78
-29.53
-22.06
-13.31
-4.31
4.03
11.1
16.51
20.06
21.72
21.57
19.92
17.25
14.22
11.53
9.77
9.21
9.77
11.13
12.82
14.47
15.92
17.18
18.28
19.22
19.82
19.87
19.23
17.86
15.86
13.43
10.76
8.01
5.26
2.55
-0.15
-2.87
-5.7
-8.66
-11.77
-14.94
-17.98
-20.7
-22.95
-24.78
-26.4
-28.24
-30.73
-34.18
-38.48
-43.03
-46.83
-48.69
-47.66
-43.4
-36.24
-27.15
-17.37
-8.07
-0.06
6.32
11.05
14.34
16.43
17.46
17.56
16.97
16.0
15.11
14.72
15.05
16.07
17.44
18.7
19.58
20.04
20.32
20.68
21.27
21.92
22.28
21.97
20.77
18.72
16.1
13.29
10.62
8.32
6.45
4.87
3.38
1.7
-0.35
-2.89
-5.82
-8.92
-11.98
-14.83
-17.45
-19.99
-22.7
-25.84
-29.61
-34.02
-38.82
-43.47
-47.14
-48.9
-48.01
-44.13
-37.5
-28.92
-19.52
-10.41
-2.43
4.02
8.87
12.24
14.3
15.23
15.25
14.75
14.22
14.15
14.91
16.53
18.77
21.24
23.52
25.26
26.36
26.83
26.74
26.22
25.34
24.16
22.66
20.85
18.67
16.22
13.6
11.05
8.79
6.94
5.53
4.37
3.14
1.49
-0.76
-3.61
-6.78
-9.89
-12.61
-14.8
-16.53
-18.04
-19.63
-21.54
-24.0
-27.14
-30.9
-34.99
-38.73
-41.15
-41.31
-38.51
-32.73
-24.67
-15.51
-6.52
1.27
7.31
11.56
14.26
15.76
16.36
16.27
15.67
14.82
14.02
13.62
13.88
14.88
16.47
18.25
19.82
20.83
21.21
21.09
20.77
20.44
20.12
19.65
18.8
17.42
15.54
13.35
11.16
9.25
7.81
6.86
6.31
5.92
5.41
4.49
2.98
0.85
-1.7
-4.35
-6.76
-8.74
-10.26
-11.5
-12.75
-14.36
-16.61
-19.62
-23.25
-27.02
-30.08
-31.49
-30.37
-26.36
-19.73
-11.34
-2.4
5.89
12.69
17.58
20.54
21.79
21.61
20.32
18.28
15.9
13.66
11.93
10.94
10.69
10.98
11.54
12.09
12.49
12.76
12.97
13.2
13.41
13.47
13.11
12.14
10.45
8.13
5.38
2.51
-0.2
-2.57
-4.62
-6.5
-8.38
-10.34
-12.36
-14.31
-16.04
-17.55
-19.03
-20.76
-23.11
-26.29
-30.2
-34.47
-38.44
-41.28
-42.19
-40.6
-36.37
-29.84
-21.85
-13.43
-5.65
0.78
5.49
8.51
10.08
10.53
10.18
9.29
8.16
7.07
6.37
6.28
6.89
8.12
9.74
11.48
13.11
14.48
15.47
15.98
15.9
15.17
13.83
12.04
10.05
8.08
6.3
4.71
3.23
1.71
0.01
-1.96
-4.24
-6.76
-9.41
-12.05
-14.63
-17.24
-20.07
-23.47
-27.65
-32.64
-38.13
-43.52
-47.91
-50.41
-50.25
-47.04
-40.87
-32.36
-22.52
-12.51
-3.43
3.96
9.32
12.66
14.33
14.76
14.39
13.61
12.73
12.04
11.75
11.92
12.56
13.56
14.75
16.04
17.37
18.68
19.95
21.04
21.76
21.89
21.25
19.78
17.62
14.98
12.1
9.18
6.27
3.33
0.28
-2.91
-6.17
-9.37
-12.37
-15.09
-17.56
-19.97
-22.57
-25.7
-29.65
-34.59
-40.34
-46.34
-51.55
-54.75
-54.84
-51.25
-44.14
-34.36
-23.21
-12.05
-1.99
6.29
12.58
16.94
19.65
21.04
21.49
21.35
20.98
20.73
20.84
21.51
22.74
24.4
26.24
27.93
29.23
30.05
30.45
30.59
30.64
30.69
30.67
30.34
29.48
27.94
25.75
23.09
20.24
17.44
14.74
12.1
9.29
6.09
2.43
-1.63
-5.83
-9.85
-13.42
-16.45
-19.06
-21.55
-24.34
-27.77
-31.99
-36.76
-41.42
-45.0
-46.45
-44.89
-40.02
-32.16
-22.26
-11.63
-1.55
7.01
13.54
17.95
20.46
21.38
21.08
19.98
18.51
17.16
16.37
16.38
17.28
18.86
20.84
22.88
24.76
26.4
27.81
29.01
29.94
30.49
30.48
29.74
28.2
