7.36
6.37
6.08
6.39
7.14
8.16
9.25
10.16
10.74
10.88
10.54
9.81
8.8
7.66
6.42
5.04
3.39
1.34
-1.15
-4.0
-7.02
-10.02
-12.83
-15.48
-18.08
-20.81
-23.82
-27.08
-30.41
-33.46
-35.71
-36.65
-35.75
-32.72
-27.61
-20.76
-12.83
-4.68
3.0
9.59
14.77
18.4
20.56
21.39
21.14
20.13
18.71
17.27
16.09
15.34
15.07
15.21
15.59
16.01
16.33
16.46
16.44
16.31
16.06
15.63
14.9
13.7
11.97
9.74
7.15
4.36
1.47
-1.5
-4.5
-7.5
-10.36
-12.91
-15.02
-16.75
-18.37
-20.26
-22.73
-25.81
-29.14
-32.0
-33.51
-32.89
-29.79
-24.37
-17.26
-9.35
-1.53
5.47
11.22
15.47
18.21
19.49
19.52
18.63
17.24
15.77
14.54
13.76
13.43
13.43
13.59
13.74
13.74
13.53
13.08
12.38
11.44
10.24
8.77
7.0
4.89
2.47
-0.21
-2.97
-5.56
-7.79
-9.56
-10.92
-12.14
-13.58
-15.57
-18.3
-21.61
-25.05
-27.95
-29.6
-29.35
-26.86
-22.16
-15.59
-7.88
0.12
7.6
13.92
18.68
21.82
23.44
23.76
23.09
21.74
20.07
18.46
17.18
16.37
15.96
15.68
15.21
14.33
13.0
11.41
9.87
8.61
7.69
6.91
5.93
4.43
2.3
-0.36
-3.26
-6.06
-8.59
-10.86
-13.03
-15.38
-18.19
-21.55
-25.44
-29.52
-33.2
-35.73
-36.41
-34.7
-30.54
-24.23
-16.47
-8.16
-0.22
6.56
11.66
14.87
16.22
16.03
14.71
12.72
10.46
8.3
6.53
5.38
5.02
5.41
6.38
7.67
9.07
10.48
11.97
13.65
15.52
17.42
19.05
20.1
20.45
20.2
19.69
19.37
19.48
20.08
20.97
21.89
22.68
23.34
24.05
25.22
27.29
30.65
35.54
41.84
49.15
56.76
63.95
70.05
74.73
77.89
79.66
80.25
79.82
78.32
75.45
70.73
63.56
53.51
40.52
25.05
8.11
-9.09
-25.41
-39.95
-52.28
-62.36
-70.34
-76.61
-81.55
-85.49
-88.73
-91.42
-93.52
-94.83
-95.06
-93.89
-91.12
-86.74
-81.02
-74.48
-67.77
-61.54
-56.25
-52.16
-49.15
-46.99
-45.2
-43.21
-40.46
-36.36
-30.56
-23.05
-14.21
-4.72
4.5
12.64
19.11
23.67
26.43
27.75
28.12
28.01
27.92
28.19
29.07
30.64
32.88
35.61
38.51
41.17
43.12
43.9
43.1
40.53
36.18
30.38
23.73
16.99
10.92
6.16
3.04
1.62
1.75
3.18
5.64
8.84
12.43
15.99
19.04
21.17
22.14
22.1
21.53
21.17
21.7
23.55
26.74
30.96
35.83
41.06
46.55
52.33
58.33
64.31
69.84
74.52
77.94
79.83
80.04
78.51
75.35
70.97
66.12
61.78
58.86
57.89
58.85
61.05
63.22
63.7
60.96
54.08
43.35
30.42
17.82
8.06
2.35
0.03
-1.18
-4.05
-10.48
-20.62
-32.93
-45.13
-55.28
-62.7
-67.89
-71.96
-75.87
-79.86
-83.33
-85.25
-84.66
-81.08
-74.63
-65.94
-55.89
-45.55
-36.13
-28.88
-24.8
-24.12
-25.89
-27.95
-27.55
-22.4
-11.71
3.57
21.16
38.45
53.48
65.33
73.87
79.32
81.83
81.47
78.58
73.82
68.21
62.68
57.66
52.63
46.15
36.31
21.45
1.06
-23.83
-50.66
-76.1
-97.08
-111.63
-119.28
-120.8
-117.57
-110.93
-101.97
-91.47
-80.09
-68.41
-56.88
-45.66
-34.61
-23.58
-12.54
-1.84
7.88
15.92
21.71
25.06
26.16
25.4
23.2
19.95
15.94
11.43
6.72
2.07
-2.22
-6.0
-9.23
-12.04
-14.55
-16.83
-18.78
-20.27
-21.17
-21.52
-21.51
-21.36
-21.27
-21.13
-20.69
-19.47
-16.93
-12.72
-6.73
0.95
10.04
20.26
31.39
43.34
56.02
69.36
83.24
97.39
111.48
125.18
138.07
149.78
159.93
168.34
174.95
179.81
182.86
183.66
181.46
175.25
164.24
148.16
127.54
103.62
77.94
52.0
26.93
3.59
-17.46
-35.75
-51.02
-63.25
-72.74
-80.15
-86.27
-91.78
-96.99
-101.86
-106.07
-109.26
-111.19
-111.79
-111.12
-109.27
-106.3
-102.31
-97.58
-92.6
-87.98
-84.29
-81.86
-80.66
-80.39
-80.65
-81.16
-81.82
-82.58
-83.41
-84.25
-85.03
-85.79
-86.81
-88.51
-91.28
-95.26
-100.18
-105.44
-110.14
-113.44
-114.6
-113.32
-109.66
-104.07
-97.31
-90.21
-83.55
-77.75
-72.88
-68.6
-64.38
-59.6
-53.75
-46.59
-38.28
-29.31
-20.37
-12.19
-5.31
0.06
3.95
6.69
8.62
10.09
11.36
12.56
13.7
14.7
15.47
15.84
15.8
15.41
14.87
14.37
13.98
13.69
13.44
13.18
12.85
12.46
12.03
11.61
11.22
10.88
10.55
10.23
9.87
9.4
8.8
8.08
7.31
6.68
6.43
6.94
8.64
11.78
16.3
21.73
27.17
31.68
34.6
35.67
35.13
33.42
30.86
27.51
23.31
18.14
12.2
5.96
-0.02
-5.3
-9.79
-13.67
-17.23
-20.58
-23.69
-26.27
-27.99
-28.69
-28.43
-27.44
-25.97
-24.11
-21.78
-18.9
-15.36
-11.36
-7.31
-3.7
-0.84
1.27
3.09
5.23
8.21
12.12
16.64
21.17
25.21
28.66
31.85
35.44
40.07
46.09
53.52
62.13
71.78
82.5
94.46
107.75
122.1
137.13
152.33
167.45
182.45
197.23
211.37
223.85
233.39
238.94
240.27
237.99
233.25
227.07
219.81
211.2
200.73
188.26
174.41
160.34
147.29
136.13
127.11
120.1
114.83
111.31
109.78
110.43
113.19
117.44
122.28
126.68
129.88
131.57
131.91
131.33
130.13
128.26
125.21
120.29
112.85
102.69
90.2
76.18
61.54
46.84
32.02
16.42
-0.92
-20.81
-43.52
-68.56
-95.02
-121.85
-148.26
-173.93
-199.08
-224.34
-250.94
-280.53
-314.71
-353.92
-396.08
-436.28
-467.47
-482.75
-477.83
-452.8
-412.19
-363.38
-314.28
-271.2
-237.98
-215.78
-203.54
-198.54
-196.97
-194.62
-187.73
-174.14
-153.87
-129.04
-102.77
-77.69
-54.81
-33.0
-10.09
16.73
49.35
87.92
130.15
171.8
207.76
233.47
246.3
245.95
235.38
220.07
206.46
199.49
200.51
206.52
211.36
208.31
191.76
160.4
117.27
68.1
18.47
-28.32
-71.6
-112.38
-151.97
-193.84
-239.51
-287.91
-336.12
-381.29
-421.96
-457.96
-489.75
-518.0
-549.46
-589.39
-639.47
-697.29
-758.12
-815.99
-863.51
-892.53
-896.32
-881.24
-855.47
-824.94
-791.25
-753.99
-712.96
-668.41
-620.94
-571.79
-534.68
-518.81
-523.83
-540.2
-556.64
-566.23
-567.48
-562.64
-481.72
-297.08
-31.38
254.22
502.67
687.52
809.11
880.18
915.25
926.32
910.42
866.72
800.58
725.91
656.04
598.45
554.8
523.03
499.63
472.24
433.06
382.33
327.7
278.13
237.85
207.74
186.52
172.19
157.31
137.18
112.0
86.25
64.91
50.68
43.77
42.76
45.74
48.3
47.69
43.82
38.91
35.54
35.08
37.63
42.4
48.33
53.71
57.73
60.79
64.18
69.52
77.47
87.72
99.13
110.4
120.84
130.58
140.43
151.48
165.67
183.87
205.49
228.68
251.23
271.68
289.83
306.52
323.19
343.81
371.36
406.49
446.81
487.4
522.27
545.81
554.11
546.17
527.91
506.67
488.2
474.53
464.4
455.17
444.58
431.6
416.4
404.6
400.2
403.5
410.72
416.27
415.83
407.65
392.27
341.6
243.21
103.47
-52.95
-197.16
-310.74
-389.27
-437.55
-463.47
-474.25
-470.28
-451.7
-420.8
-383.06
-345.23
-312.25
-285.9
-265.63
-249.79
-233.08
-211.62
-185.5
-158.32
-135.1
-119.13
-111.1
-109.64
-112.4
-114.58
-112.45
-104.31
-91.83
-78.04
-64.84
-52.56
-40.64
-28.58
-15.22
-0.34
14.96
29.69
40.76
46.18
45.77
40.41
31.12
19.22
6.2
-6.44
-21.17
-40.67
-65.65
-94.71
-125.66
-156.87
-187.46
-216.59
-243.23
-271.46
-305.34
-346.65
-394.45
-446.5
-501.26
-558.37
-618.39
-650.84
-636.55
-573.4
-475.66
-361.43
-243.07
-127.78
-21.44
69.81
141.18
186.74
205.89
204.08
190.36
173.04
156.69
142.51
130.6
121.34
112.15
100.96
87.13
71.56
55.71
40.58
27.03
16.19
8.83
4.46
2.0
0.62
0.05
0.13
0.39
0.27
-0.53
-1.95
-4.48
-8.78
-15.19
-23.56
-33.49
-44.62
-56.54
-68.83
-81.02
-92.59
-103.38
-113.3
-122.11
-129.5
-134.98
-137.77
-136.65
-133.54
-128.87
-122.96
-116.0
-108.21
-99.74
-90.8
-81.61
-72.59
-64.28
-56.74
-50.14
-44.54
-39.83
-35.7
-31.83
-27.95
-23.99
-20.12
-16.17
-12.03
-7.44
-1.92
5.06
13.86
24.46
36.35
48.59
60.4
71.25
81.17
90.8
101.22
113.45
128.06
144.92
163.39
182.65
202.09
221.56
241.36
262.2
284.95
310.62
340.02
373.25
408.88
443.42
471.59
487.63
487.29
469.42
436.47
393.49
346.2
299.16
254.81
213.86
176.22
142.03
111.75
85.85
64.16
45.62
28.71
12.09
-4.78
-21.46
-36.73
-49.22
-58.02
-62.94
-64.6
-63.99
-62.13
-59.78
-57.45
-55.41
-53.91
-53.21
-53.52
-54.86
-56.97
-59.36
-61.45
-62.71
-62.81
-61.67
-59.44
-56.44
-53.08
-49.77
-46.86
-44.49
-42.64
-41.15
-39.84
-38.63
-37.5
-36.51
-35.73
-35.12
-34.6
-34.02
-33.31
-32.51
-31.78
-31.31
-31.33
-31.95
-33.16
-34.71
-36.21
-37.08
-36.78
-34.96
-31.55
-26.87
-21.41
-15.8
-10.54
-5.93
-2.12
0.91
3.14
4.64
5.49
5.9
6.16
6.56
7.29
8.41
9.81
11.32
12.82
14.2
15.44
16.5
17.27
17.54
17.14
16.0
14.17
11.79
9.03
6.0
2.72
-0.73
-4.26
-7.75
-11.04
-14.07
-16.9
-19.64
-22.37
-25.01
-27.3
-28.82
-29.22
-28.3
-26.13
-23.0
-19.33
-15.56
-12.01
-8.88
-6.23
-4.06
-2.36
-1.1
-0.28
0.07
-0.1
-0.76
-1.82
-3.13
-4.5
-5.74
-6.71
-7.36
-7.63
-7.53
-7.1
-6.49
-5.9
-5.59
-5.8
-6.66
-8.24
-10.47
-13.19
-16.16
-19.14
-21.89
-24.23
-26.18
-27.86
-29.46
-31.16
-33.03
-34.97
-36.82
-38.33
-39.23
-39.27
-38.17
-35.72
-31.83
-26.64
-20.52
-14.0
-7.67
-1.98
2.73
6.36
8.91
10.48
11.2
11.22
10.72
9.9
8.98
8.12
7.48
7.1
7.01
7.22
7.68
8.35
9.19
10.15
11.09
11.82
12.1
11.69
10.46
8.4
5.59
2.25
-1.41
-5.26
-9.21
-13.22
-17.29
-21.4
-25.55
-29.67
-33.64
-37.13
-39.61
-40.51
-39.37
-36.13
-31.12
-25.04
-18.69
-12.71
-7.28
-2.29
2.41
6.83
10.71
13.71
15.59
16.42
16.64
17.24
19.21
23.2
29.3
36.95
45.11
52.64
58.6
62.53
64.91
66.52
68.18
70.59
74.1
78.77
84.28
89.82
94.12
96.29
95.46
91.39
84.71
76.84
69.69
65.23
65.01
65.79
65.08
60.85
52.55
41.24
28.83
17.41
8.78
4.12
3.67
7.37
14.09
22.55
31.63
40.91
49.62
56.99
62.21
64.72
64.93
63.55
61.72
60.5
60.34
60.73
60.32
57.21
49.35
38.01
24.45
10.23
-3.14
-14.84
-25.0
-34.5
-44.58
-56.45
-70.75
-87.94
-107.72
-128.82
-149.06
-165.66
-176.04
-178.84
-174.77
-166.51
-158.25
-153.76
-154.93
-161.24
-170.25
-178.99
-185.31
-188.49
-188.9
-187.17
-183.26
-176.29
-165.35
-150.2
-131.86
-112.38
-93.94
-78.01
-64.76
-53.33
-42.31
-30.62
-17.8
-4.14
9.65
22.73
34.28
43.77
50.94
55.98
59.3
61.38
62.5
62.57
61.24
58.19
53.49
47.74
41.92
37.06
33.81
32.04
30.76
28.26
22.35
10.73
-8.53
-36.49
-72.75
-115.18
-159.84
-201.83
-236.46
-260.69
-273.98
-278.46
-277.94
-276.3
-276.21
-278.45
-282.39
-286.99
-291.47
-295.61
-299.2
-301.59
-301.49
-297.37
-287.9
-272.36
-250.62
-222.88
-189.46
-150.87
-108.03
-62.47
-16.22
28.56
70.1
107.19
139.19
165.84
187.12
203.22
214.62
222.02
226.29
228.3
228.78
228.31
227.51
227.09
228.01
231.14
236.91
244.77
253.03
259.16
260.56
255.6
244.34
228.59
211.21
194.99
181.74
171.9
164.86
159.47
154.67
149.56
143.4
135.46
125.06
111.83
96.07
78.79
61.51
45.82
32.91
23.26
16.71
12.63
10.35
9.36
9.34
10.1
11.42
12.88
13.91
13.93
12.56
9.7
5.6
0.76
-4.36
-9.37
-14.15
-18.75
-23.27
-27.72
-32.0
-36.0
-39.63
-42.95
-46.23
-49.83
-54.09
-59.18
-64.99
-71.01
-76.44
-80.21
-81.25
-78.75
-72.39
-62.51
-50.06
-36.39
-22.95
-10.89
-0.89
6.94
12.88
17.4
20.95
23.83
26.16
27.97
29.34
30.36
31.21
32.01
32.84
33.73
34.7
35.79
37.03
38.47
40.01
41.43
42.37
42.51
41.6
39.65
36.89
33.64
30.24
26.8
23.22
19.24
14.57
9.16
3.2
-2.89
-8.62
-13.69
-18.03
-21.86
-25.56
-29.53
-34.06
-39.15
-44.43
-49.09
-52.03
-52.04
-48.21
-40.27
-28.82
-15.14
-0.9
12.31
23.41
31.91
37.86
41.56
43.41
43.76
42.94
41.29
39.12
36.78
34.57
32.74
31.48
30.86
30.87
31.36
32.08
32.73
33.01
32.71
31.75
30.09
27.78
24.87
21.45
17.62
13.52
9.27
4.93
0.54
-3.85
-8.17
-12.34
-16.3
-20.04
-23.67
-27.4
-31.53
-36.35
-41.93
-47.99
-53.79
-58.18
-59.86
-57.74
-51.33
-40.99
-27.84
-13.44
0.6
13.01
23.04
30.42
35.25
37.85
38.61
38.0
36.52
34.66
32.85
31.38
30.36
29.83
29.73
30.07
30.84
31.98
33.32
34.54
35.26
35.11
33.92
31.72
28.79
25.45
21.99
18.52
15.0
11.3
7.29
2.95
-1.65
-6.35
-10.97
-15.36
-19.44
-23.2
-26.73
-30.24
-34.04
-38.4
-43.28
-48.24
-52.31
-54.27
-52.96
-47.79
-38.92
-27.33
-14.46
-1.81
9.42
18.58
25.48
30.24
33.11
34.3
34.03
32.54
30.19
27.41
24.72
22.59
21.3
20.88
21.14
21.73
22.33
22.73
22.91
22.96
22.93
22.76
22.11
20.58
17.81
13.73
8.61
2.93
-2.81
-8.2
-13.11
-17.54
-21.53
-25.13
-28.36
-31.42
-34.64
-38.34
-42.6
-46.97
-50.39
-51.51
-49.16
-42.83
-32.92
-20.6
-7.43
5.09
15.93
24.63
31.19
35.82
38.8
40.35
40.65
39.91
38.4
36.53
34.77
33.55
33.12
33.48
34.38
35.46
36.33
36.76
36.63
35.95
34.67
32.67
29.76
25.77
20.65
14.47
7.42
-0.22
-8.23
-16.39
-24.53
-32.53
-40.31
-47.93
-55.57
-63.52
-71.93
-80.64
-88.95
-95.73
-99.62
-99.47
-94.71
-85.56
-72.99
-58.52
-43.77
-30.18
-18.75
-9.9
-3.63
0.42
2.74
3.82
4.13
4.05
3.96
4.19
4.99
6.43
8.39
10.58
12.74
14.63
16.11
17.19
17.91
18.33
18.45
18.16
17.31
15.74
13.34
10.16
6.46
2.65
-0.87
-3.83
-6.21
-8.26
-10.46
-13.33
-17.39
-22.9
-29.73
-37.19
-43.96
-48.39
-48.93
-44.67
-35.8
-23.5
-9.7
3.6
14.92
23.57
29.58
33.4
35.52
36.31
35.95
34.59
32.47
29.93
27.4
25.25
23.66
22.6
21.89
21.29
20.61
19.8
18.88
17.97
17.11
16.25
15.15
13.53
11.11
7.76
3.59
-1.11
-5.93
-10.48
-14.58
-18.22
-21.61
-25.06
-28.83
-33.1
-37.9
-43.07
-48.17
-52.5
-55.14
-55.14
-51.88
-45.26
-35.77
-24.44
-12.53
-1.18
8.7
16.64
22.47
26.27
28.25
28.71
28.0
26.51
24.62
22.67
20.94
19.65
18.92
18.74
19.05
19.68
20.44
21.12
21.53
21.51
20.95
19.81
18.09
15.85
13.13
9.96
6.38
2.48
-1.59
-5.65
-9.52
-13.07
-16.31
-19.39
-22.55
-26.03
-29.99
-34.43
-39.09
-43.39
-46.48
-47.39
-45.24
-39.64
-30.78
-19.58
-7.39
4.37
14.58
22.65
28.49
32.27
34.3
34.82
34.05
32.29
29.94
27.48
25.33
23.79
22.96
22.77
23.09
23.72
24.45
25.09
25.44
25.39
24.87
23.92
22.56
20.82
18.62
15.86
12.49
8.62
4.49
0.47
-3.09
-6.04
-8.37
-10.25
-11.95
-13.73
-15.81
-18.33
-21.34
-24.69
-28.06
-30.82
-32.14
-31.2
-27.44
-20.84
-11.97
-1.92
8.04
16.77
23.54
28.13
30.69
31.59
31.19
29.87
27.99
25.98
24.25
23.16
22.85
23.12
23.54
23.64
23.13
22.04
20.65
19.27
18.13
17.16
16.18
14.96
13.44
11.64
9.67
7.53
5.12
2.33
-0.87
-4.31
-7.72
-10.8
-13.4
-15.57
-17.5
-19.5
-21.8
-24.53
-27.6
-30.68
-33.16
-34.26
-33.18
-29.37
-22.79
-13.99
-4.09
5.61
13.94
20.17
24.13
26.06
26.44
25.73
24.31
22.44
20.38
18.39
16.73
15.54
14.84
14.51
14.37
14.27
14.14
14.0
13.88
13.75
13.56
13.19
12.59
11.7
10.56
9.12
7.38
5.29
2.81
0.01
-3.01
-6.05
-8.97
-11.62
-13.96
-16.02
-17.91
-19.82
-21.94
-24.49
-27.53
-30.96
-34.36
-37.02
-38.14
-37.0
-33.31
-27.33
-19.86
-11.94
-4.56
1.6
6.31
9.68
11.98
13.44
14.19
14.31
13.9
13.19
12.46
11.97
11.87
12.12
12.5
12.79
12.87
12.75
12.53
12.3
12.07
11.71
11.07
10.05
8.68
7.09
5.46
3.9
2.44
0.99
-0.56
-2.33
-4.36
-6.6
-8.96
-11.25
-13.32
-15.01
-16.31
-17.32
-18.3
-19.5
-21.08
-22.94
-24.71
-25.79
-25.5
-23.38
-19.26
-13.38
-6.32
1.17
8.39
14.76
19.96
23.89
26.61
28.23
28.99
29.08
28.7
27.97
27.04
25.98
24.91
23.88
22.89
21.9
20.78
19.49
18.06
16.65
15.39
14.36
13.42
12.31
10.8
8.81
6.49
4.18
2.16
0.51
-0.87
-2.24
-3.8
-5.62
-7.6
-9.55
-11.33
-12.92
-14.44
-16.05
-17.95
-20.26
-22.95
-25.77
-28.23
-29.72
-29.64
-27.65
-23.8
-18.48
-12.33
-6.04
-0.13
5.02
9.22
12.34
14.35
15.25
15.22
14.58
13.73
13.07
12.81
12.98
13.38
13.74
13.81
13.48
12.77
11.8
10.7
9.54
8.29
6.83
5.07
3.0
0.75
-1.45
-3.37
-4.89
-6.14
-7.35
-8.79
-10.58
-12.62
-14.66
-16.46
-17.92
-19.13
-20.32
-21.74
-23.48
-25.56
-27.82
-30.01
-31.76
-32.65
-32.25
-30.26
-26.6
-21.49
-15.42
-8.97
-2.7
3.01
7.91
11.87
14.82
16.75
17.74
17.94
17.64
17.17
16.83
16.8
17.13
17.7
18.33
18.81
19.01
18.94
18.7
18.41
18.08
17.6
16.73
15.26
13.13
10.49
7.63
4.88
2.43
0.29
-1.64
-3.54
-5.57
-7.77
-10.08
-12.38
-14.5
-16.34
-17.84
-19.11
-20.37
-21.84
-23.61
-25.58
-27.34
-28.36
-28.09
-26.2
-22.68
-17.89
-12.31
-6.47
-0.8
4.42
8.94
12.6
15.29
16.96
17.76
17.97
17.99
18.13
18.56
19.26
20.09
20.87
21.46
21.78
21.82
21.56
21.05
20.34
19.48
18.5
17.36
16.02
14.43
12.61
10.63
8.59
6.56
4.54
2.44
0.15
-2.35
-4.96
-7.5
-9.79
-11.77
-13.44
-14.91
-16.3
-17.72
-19.26
-20.99
-22.9
-24.94
-26.89
-28.4
-29.04
-28.4
-26.3
-22.79
-18.18
-12.95
-7.61
-2.58
1.79
5.25
7.69
9.06
9.46
9.14
8.45
7.8
7.47
7.62
8.2
9.02
9.84
10.44
10.67
10.48
9.85
8.84
7.52
5.98
4.37
2.78
1.29
-0.07
-1.37
-2.66
-4.05
-5.63
-7.46
-9.53
-11.75
-13.98
-16.03
-17.72
-18.99
-19.89
-20.66
-21.63
-23.14
-25.4
-28.37
-31.64
-34.53
-36.24
-36.11
-33.85
-29.68
-24.15
-17.99
-11.89
-6.31
-1.52
2.32
5.1
6.74
7.3
7.06
6.43
5.91
5.86
6.44
7.54
8.91
10.24
11.3
11.98
12.3
12.38
12.34
12.22
11.99
11.54
10.72
9.45
7.77
5.85
3.88
2.03
0.33
-1.28
-2.89
-4.6
-6.44
-8.33
-10.18
-11.93
-13.56
-15.11
-16.65
-18.27
-20.02
-21.92
-23.8
-25.38
-26.22
-25.86
-23.94
-20.44
-15.64
-10.12
-4.52
0.64
5.05
8.66
11.53
13.78
15.46
16.63
17.35
17.78
18.1
18.49
19.04
19.68
20.27
20.63
20.67
20.37
19.76
18.91
17.85
16.61
15.22
13.73
12.23
10.77
9.37
7.92
6.29
4.36
2.09
-0.42
-3.03
-5.54
-7.79
-9.69
-11.24
-12.47
-13.54
-14.63
-15.97
-17.69
-19.82
-22.16
-24.3
-25.67
-25.69
-24.01
-20.62
-15.92
-10.55
-5.19
-0.37
3.67
6.88
9.34
11.1
12.13
12.38
11.95
11.09
10.16
9.5
9.29
9.47
9.83
10.14
10.26
10.14
9.85
9.43
8.86
8.06
7.0
5.7
4.31
2.95
1.66
0.33
-1.2
-3.04
-5.16
-7.4
-9.55
-11.49
-13.23
-14.88
-16.58
-18.35
-20.18
-22.02
-23.87
-25.75
-27.59
-29.1
-29.81
-29.23
-27.03
-23.29
-18.46
-13.2
-8.1
-3.55
0.33
3.54
6.04
7.73
8.51
8.45
7.85
7.15
6.79
6.93
7.5
8.26
8.9
9.33
9.57
9.8
10.13
10.56
10.92
11.0
10.63
9.79
8.63
7.31
6.02
4.83
3.69
2.49
1.1
-0.48
-2.24
-4.05
-5.81
-7.47
-9.01
-10.48
-11.93
-13.38
-14.82
-16.24
-17.66
-19.18
-20.83
-22.55
-24.09
-24.99
-24.78
-23.05
-19.77
-15.22
-10.01
-4.77
0.04
4.16
7.62
10.47
12.8
14.62
15.96
16.93
17.74
18.62
19.74
21.08
22.48
23.7
24.56
25.02
25.18
25.21
25.21
25.2
25.1
24.82
24.3
23.52
22.51
21.34
20.08
18.83
17.65
16.57
15.56
14.44
13.02
11.13
8.75
5.98
3.02
0.09
-2.68
-5.23
-7.61
-9.86
-12.02
-14.12
-16.22
-18.34
-20.48
-22.55
-24.3
-25.38
-25.4
-24.1
-21.47
-17.76
-13.36
-8.71
-4.19
-0.07
3.52
6.44
8.6
9.96
10.56
10.61
10.45
10.39
10.66
11.26
11.99
12.52
12.58
12.03
11.0
9.76
8.57
7.64
7.0
6.49
5.91
5.05
3.83
2.28
0.55
-1.26
-3.04
-4.77
-6.45
-8.11
-9.73
-11.29
-12.8
-14.34
-15.95
-17.62
-19.26
-20.66
-21.68
-22.33
-22.84
-23.55
-24.69
-26.23
-27.77
-28.8
-28.8
-27.52
-25.02
-21.62
-17.68
-13.55
-9.49
-5.71
-2.43
0.22
2.18
3.51
4.38
5.02
5.63
6.39
7.35
8.49
9.68
10.7
11.31
11.37
10.93
10.21
9.51
9.06
8.9
8.86
8.63
7.95
6.74
5.1
3.25
1.46
-0.12
-1.47
-2.62
-3.67
-4.65
-5.61
-6.6
-7.69
-8.95
-10.45
-12.13
-13.83
-15.38
-16.67
-17.7
-18.63
-19.65
-20.93
-22.5
-24.25
-25.94
-27.16
-27.51
-26.64
-24.37
-20.78
-16.17
-11.01
-5.75
-0.73
3.87
7.99
11.59
14.6
16.97
18.68
19.84
20.65
21.31
21.98
22.71
23.48
24.13
24.52
24.5
23.96
22.97
21.64
20.24
18.98
18.0
17.21
16.46
15.55
14.38
13.0
11.47
9.89
8.25
6.54
4.76
2.99
1.4
0.08
-0.96
-1.87
-2.85
-4.06
-5.52
-7.12
-8.72
-10.24
-11.71
-13.23
-14.92
-16.8
-18.76
-20.57
-21.95
-22.64
-22.49
-21.41
-19.47
-16.76
-13.41
-9.56
-5.41
-1.22
2.64
5.83
8.07
9.26
9.53
9.17
8.54
7.94
7.54
7.34
7.24
7.07
6.73
6.15
5.4
4.58
3.82
3.24
2.89
2.79
2.86
3.02
3.21
3.36
3.37
3.17
2.67
1.84
0.71
-0.6
-1.96
-3.22
-4.33
-5.32
-6.38
-7.68
-9.34
-11.33
-13.46
-15.55
-17.44
-19.12
-20.7
-22.38
-24.25
-26.24
-28.09
-29.32
-29.44
-28.11
-25.18
-20.8
-15.41
-9.58
-3.91
1.12
5.2
8.22
10.22
11.38
11.99
12.35
12.68
13.16
13.82
14.59
15.35
15.92
16.15
15.97
15.39
14.56
13.66
12.86
12.27
11.88
11.59
11.25
10.7
9.89
8.85
7.67
6.4
5.13
3.9
2.7
1.52
0.31
-0.97
-2.36
-3.88
-5.53
-7.27
-9.05
-10.86
-12.71
-14.61
-16.61
-18.73
-21.01
-23.46
-26.01
-28.43
-30.32
-31.21
-30.67
-28.48
-24.7
-19.72
-14.08
-8.35
-3.0
1.69
5.63
8.84
11.38
13.31
14.67
15.56
16.16
16.66
17.24
17.93
18.65
19.2
19.42
19.29
18.98
18.79
18.95
19.51
20.33
21.13
21.61
21.59
21.06
20.12
18.91
17.57
16.18
14.8
13.45
12.15
10.85
9.47
7.87
5.97
3.79
1.43
-0.9
-3.03
-4.89
-6.48
-7.85
-9.11
-10.32
-11.62
-13.13
-14.98
-17.17
-19.49
-21.5
-22.57
-22.18
-20.01
-16.17
-11.11
-5.48
0.03
4.93
8.9
11.77
13.58
14.43
14.53
14.18
13.74
13.53
13.71
14.25
14.93
15.46
15.64
15.44
14.93
14.26
13.55
12.84
12.08
11.2
10.06
8.58
6.72
4.52
2.11
-0.31
-2.53
-4.42
-6.0
-7.45
-9.04
-10.97
-13.28
-15.85
-18.4
-20.7
-22.65
-24.26
-25.7
-27.16
-28.79
-30.66
-32.76
-34.93
-36.84
-38.01
-37.88
-36.03
-32.31
-26.99
-20.62
-13.9
-7.42
-1.58
3.38
7.34
10.2
11.92
12.6
12.55
12.19
11.96
12.12
12.71
13.53
14.32
14.89
15.18
15.25
15.19
15.03
14.74
14.23
13.4
12.21
10.68
8.86
6.84
4.72
2.62
0.61
-1.27
-3.08
-4.86
-6.67
-8.55
-10.48
-12.46
-14.48
-16.5
-18.51
-20.48
-22.4
-24.34
-26.48
-28.94
-31.75
-34.64
-37.02
-38.14
-37.29
-34.08
-28.6
-21.41
-13.31
-5.2
2.24
8.55
13.53
17.15
19.52
20.81
21.23
21.1
20.71
20.36
20.27
20.52
21.07
21.8
22.55
23.21
23.73
24.08
24.26
24.26
24.02
23.5
22.67
21.5
20.05
18.4
16.66
14.92
13.23
11.54
9.79
7.88
5.79
3.58
1.37
-0.75
-2.76
-4.68
-6.65
-8.76
-11.12
-13.73
-16.53
-19.33
-21.83
-23.55
-23.97
-22.62
-19.29
-14.17
-7.77
-0.79
6.04
12.17
17.27
21.17
23.87
25.45
26.05
25.89
25.29
24.53
23.86
23.37
23.04
22.73
22.31
21.71
20.93
20.05
19.14
18.2
17.14
15.88
14.35
12.61
10.85
9.26
7.92
6.7
5.33
3.54
1.2
-1.63
-4.73
-7.86
-10.86
-13.63
-16.13
-18.31
-20.1
-21.53
-22.73
-23.97
-25.48
-27.34
-29.27
-30.68
-30.82
-29.06
-25.19
-19.47
-12.63
-5.58
0.83
6.09
10.01
12.67
14.28
14.99
14.94
14.24
13.07
11.65
10.23
9.02
8.09
7.45
7.04
6.77
6.58
6.43
6.29
6.12
5.86
5.43
4.74
3.69
2.2
0.26
-2.05
-4.56
-7.03
-9.24
-11.06
-12.52
-13.76
-15.0
-16.41
-18.04
-19.92
-22.06
-24.51
-27.19
-29.88
-32.1
-33.14
-32.37
-29.42
-24.43
-18.01
-11.08
-4.47
1.23
5.81
9.28
11.81
13.55
14.6
15.11
15.24
15.16
15.03
14.92
14.83
14.74
14.66
14.56
14.48
14.39
14.21
13.82
13.08
11.96
10.48
8.77
6.9
4.88
2.66
0.18
-2.55
-5.42
-8.24
-10.84
-13.09
-14.98
-16.57
-17.98
-19.37
-20.9
-22.7
-24.78
-26.93
-28.7
-29.46
-28.56
-25.63
-20.7
-14.2
-6.83
0.67
7.7
13.92
19.16
23.4
26.61
28.78
29.94
30.23
29.87
29.15
28.36
27.71
27.29
27.03
26.78
26.32
25.5
24.25
22.64
20.84
19.04
17.35
15.81
14.37
12.94
11.46
9.86
8.08
6.01
3.61
0.89
-2.05
-5.0
-7.77
-10.21
-12.38
-14.47
-16.72
-19.31
-22.2
-25.09
-27.41
-28.53
-27.94
-25.43
-21.19
-15.78
-9.95
-4.39
0.35
4.04
6.66
8.36
9.35
9.81
9.94
9.89
9.78
9.67
9.56
9.34
8.91
8.23
7.3
6.24
5.2
4.32
3.65
3.17
2.71
2.11
1.22
-0.02
-1.58
-3.27
-4.92
-6.36
-7.49
-8.34
-8.95
-9.47
-10.08
-11.0
-12.44
-14.53
-17.28
-20.52
-23.94
-27.08
-29.44
-30.56
-30.01
-27.61
-23.35
-17.55
-10.76
-3.68
2.98
8.67
13.1
16.23
18.22
19.28
19.61
19.4
18.76
17.87
16.88
15.96
15.2
14.56
13.96
13.24
12.37
11.37
10.35
9.35
8.35
7.26
5.98
4.5
2.86
1.19
-0.42
-1.96
-3.51
-5.21
-7.13
-9.25
-11.43
-13.47
-15.16
-16.41
-17.3
-18.04
-18.98
-20.38
-22.37
-24.83
-27.44
-29.67
-30.97
-30.88
-29.15
-25.79
-21.07
-15.46
-9.49
-3.68
1.54
5.86
9.06
11.13
12.15
12.4
12.24
12.04
12.06
12.42
13.02
13.68
14.23
14.54
14.64
14.62
14.63
14.72
14.88
14.96
14.83
14.4
13.62
12.51
11.15
9.61
7.99
6.38
4.89
3.56
2.39
1.27
0.09
-1.25
-2.79
-4.46
-6.14
-7.73
-9.18
-10.55
-12.0
-13.65
-15.58
-17.71
-19.75
-21.25
-21.64
-20.5
-17.62
-13.16
-7.54
-1.37
4.73
10.22
14.74
18.08
20.2
21.24
21.47
21.27
21.02
21.01
21.37
22.07
23.0
24.03
25.05
25.95
26.63
26.98
26.96
26.65
26.21
25.89
25.87
26.15
26.54
26.72
26.43
25.59
24.35
22.98
21.76
20.81
20.05
19.31
18.46
17.46
16.39
15.36
14.41
13.5
12.59
11.67
10.81
10.09
9.52
9.0
8.39
7.68
7.15
7.43
9.23
13.08
19.02
26.53
34.68
42.56
49.58
55.61
60.95
65.92
70.67
75.01
78.61
81.29
83.28
85.2
87.71
91.03
94.66
97.49
98.14
95.7
90.03
81.84
72.19
62.0
51.82
41.95
32.77
24.92
19.07
15.61
14.2
13.79
13.04
10.92
7.15
2.2
-3.05
-7.88
-11.98
-15.56
-19.01
-22.69
-26.77
-31.29
-36.24
-41.69
-47.69
-54.1
-60.53
-66.22
-70.32
-72.06
-71.11
-67.69
-62.48
-56.46
-50.54
-45.35
-41.13
-37.79
-35.17
-33.12
-31.58
-30.52
-29.81
-29.19
-28.28
-26.79
-24.54
-21.66
-18.39
-15.04
-11.79
-8.64
-5.48
-2.17
1.33
5.02
8.86
12.81
16.61
19.84
21.77
21.76
19.54
15.47
10.56
5.98
2.55
0.27
-1.67
-4.54
-9.43
-16.85
-26.63
-38.23
-51.08
-64.79
-79.06
-93.33
-106.58
-117.4
-124.36
-126.69
-124.7
-119.77
-113.83
-108.58
-104.79
-102.13
-99.59
-96.11
-91.28
-85.47
-79.61
-74.6
-70.85
-68.09
-65.65
-62.83
-59.2
-54.78
-49.82
-44.59
-39.18
-33.42
-27.09
-20.09
-12.68
-5.34
1.31
6.77
10.87
13.71
15.57
16.7
17.15
16.8
15.49
13.18
10.06
6.54
3.02
-0.24
-3.19
-6.05
-9.13
-12.78
-17.25
-22.6
-28.59
-34.65
-39.86
-43.16
-43.62
-40.83
-35.11
-27.51
-19.42
-12.17
-6.63
-3.09
-1.35
-1.03
-1.74
-3.12
-4.88
-6.69
-8.22
-9.17
-9.4
-8.91
-7.82
-6.24
-4.28
-2.05
0.33
2.65
4.7
6.33
7.44
8.05
8.21
7.97
7.34
6.38
5.18
3.89
2.72
1.84
1.28
0.99
0.82
0.62
0.31
-0.12
-0.6
-1.08
-1.55
-2.15
-3.15
-4.87
-7.56
-11.16
-15.17
-18.69
-20.6
-19.87
-16.0
-9.18
-0.27
9.45
18.7
26.54
32.51
36.6
39.04
40.09
39.96
38.81
36.9
34.62
32.51
31.11
30.78
31.53
33.05
34.82
36.37
37.41
37.88
37.86
37.43
36.61
35.33
33.51
31.13
28.3
25.24
22.2
19.39
16.87
14.56
12.29
9.82
7.05
3.96
0.72
-2.49
-5.52
-8.37
-11.21
-14.26
-17.75
-21.72
-26.03
-30.23
-33.66
-35.58
-35.39
-32.74
-27.72
-20.83
-12.83
-4.64
2.97
9.46
14.51
18.04
20.08
20.79
20.38
19.22
17.72
16.29
15.27
14.84
15.01
15.67
16.64
17.77
18.94
20.07
21.07
21.78
21.99
21.53
20.29
18.33
15.82
13.04
10.22
7.48
4.8
2.1
-0.7
-3.65
-6.73
-9.86
-12.95
-15.9
-18.62
-21.07
-23.34
-25.6
-28.15
-31.2
-34.71
-38.25
-41.01
-42.03
-40.54
-36.2
-29.31
-20.7
-11.37
-2.3
5.8
12.51
17.65
21.19
23.27
24.14
24.13
23.67
23.12
22.72
22.56
22.6
22.71
22.82
22.89
22.94
23.02
23.14
23.24
23.24
22.94
22.18
20.89
19.03
16.72
14.09
11.31
8.47
5.67
2.89
0.09
-2.81
-5.87
-9.04
-12.18
-15.1
-17.64
-19.81
-21.84
-24.12
-27.06
-30.81
-35.14
-39.4
-42.6
-43.74
-42.1
-37.43
-30.07
-20.81
-10.7
-0.78
8.15
15.54
21.16
25.02
27.29
28.23
28.23
27.63
26.81
26.06
25.56
25.42
25.69
26.28
27.07
27.89
28.52
28.87
28.9
28.71
28.4
28.0
27.41
26.42
24.83
22.56
19.73
16.59
13.46
10.49
7.67
4.87
1.96
-1.04
-3.99
-6.66
-8.91
-10.81
-12.59
-14.59
-17.12
-20.4
-24.44
-29.08
-33.92
-38.33
-41.46
-42.45
-40.62
-35.79
-28.34
-19.17
-9.4
-0.07
8.12
14.81
19.87
23.39
25.43
26.17
25.88
24.97
23.86
22.94
22.41
22.26
22.37
22.56
22.69
22.73
22.7
22.64
22.57
22.37
21.83
20.76
18.97
16.47
13.45
10.24
7.2
4.6
2.5
0.7
-1.16
-3.41
-6.27
-9.63
-13.27
-16.85
-20.1
-23.04
-25.85
-28.87
-32.44
-36.67
-41.35
-45.92
-49.47
-51.05
-49.87
-45.54
-38.26
-28.8
-18.32
-8.06
0.9
7.89
12.71
15.53
16.75
16.77
15.97
14.63
13.05
11.52
10.34
9.77
9.91
10.68
11.87
13.17
14.32
15.16
15.62
15.69
15.34
14.49
13.1
11.14
8.7
5.9
2.84
-0.36
-3.66
-7.05
-10.52
-14.01
-17.39
-20.52
-23.27
-25.62
-27.71
-29.83
-32.3
-35.43
-39.31
-43.62
-47.69
-50.46
-50.83
-47.98
-41.7
-32.49
-21.49
-10.09
0.38
9.04
15.52
19.95
22.69
24.11
24.53
24.24
23.52
22.73
22.26
22.39
23.24
24.66
26.27
27.7
28.65
28.99
28.78
28.12
27.04
25.53
23.49
20.85
17.65
14.09
10.45
7.01
3.95
1.23
-1.35
-4.05
-7.06
-10.34
-13.71
-16.91
-19.81
-22.45
-25.09
-28.1
-31.77
-36.17
-41.08
-46.01
-50.16
-52.59
-52.36
-48.83
-41.8
-31.76
-19.73
-7.07
4.86
15.02
22.88
28.4
31.8
33.49
33.89
33.39
32.39
31.31
30.5
30.23
30.57
31.38
32.38
33.26
33.81
34.04
34.06
34.01
33.92
33.67
33.02
31.75
29.72
26.97
23.68
20.07
16.41
12.83
9.43
6.16
2.9
-0.47
-4.02
-7.68
-11.26
-14.5
-17.25
-19.58
-21.84
-24.51
-28.01
-32.5
-37.71
-42.92
-47.12
-49.19
-48.24
-43.8
-35.99
-25.51
-13.5
-1.29
9.93
19.32
26.44
31.31
34.21
35.52
35.69
35.09
34.08
32.93
31.9
31.13
30.72
30.67
30.89
31.3
31.77
32.22
32.48
32.43
31.9
30.75
28.89
26.33
23.21
19.76
16.24
12.86
9.74
6.86
4.13
1.43
-1.36
-4.27
-7.36
-10.55
-13.82
-17.1
-20.39
-23.75
-27.38
-31.51
-36.25
-41.48
-46.58
-50.54
-52.11
-50.3
-44.71
-35.71
-24.42
-12.31
-0.85
8.86
16.24
21.15
23.76
24.41
23.49
21.44
18.79
16.07
13.81
12.39
11.98
12.54
13.81
15.44
17.07
18.46
19.46
20.0
19.99
19.36
18.06
16.07
13.46
10.37
6.96
3.37
-0.31
-4.06
-7.9
-11.86
-15.88
-19.84
-23.6
-27.04
-30.14
-33.02
-35.96
-39.25
-43.13
-47.57
-52.12
-55.92
-57.86
-56.81
-52.04
-43.53
-32.07
-19.09
-6.22
5.17
14.23
20.73
24.89
27.13
27.83
27.38
26.11
24.4
22.64
21.15
20.14
19.69
19.74
20.21
20.99
21.96
22.92
23.7
24.05
23.8
22.88
21.32
19.23
16.75
14.0
11.06
7.92
4.56
0.97
-2.84
-6.8
-10.79
-14.66
-18.33
-21.71
-24.8
-27.69
-30.58
-33.82
-37.78
-42.66
-48.19
-53.55
-57.37
-58.21
-54.98
-47.47
-36.41
-23.26
-9.76
2.64
13.0
21.01
26.72
30.37
32.21
32.53
31.76
30.41
29.11
28.34
28.4
29.28
30.67
32.18
33.41
34.16
34.39
34.24
33.84
33.28
32.53
31.41
29.75
27.42
24.46
21.03
17.45
13.96
10.71
7.72
4.83
1.88
-1.24
-4.51
-7.81
-10.95
-13.78
-16.32
-18.75
-21.41
-24.7
-28.93
-34.1
-39.87
-45.44
-49.7
-51.49
-49.85
-44.38
-35.33
-23.61
-10.57
2.34
13.87
23.25
30.14
34.68
37.19
38.11
37.86
36.9
35.61
34.38
33.53
33.22
33.44
33.95
34.4
34.53
34.22
33.53
32.7
31.98
31.46
31.0
30.27
28.86
26.51
23.21
19.27
15.19
11.51
8.56
6.37
4.63
2.85
0.59
-2.38
-5.96
-9.84
-13.63
-17.08
-20.14
-23.01
-26.02
-29.42
-33.41
-37.96
-42.81
-47.46
-51.08
-52.7
-51.39
-46.58
-38.38
-27.62
-15.7
-4.19
5.61
12.93
17.62
19.99
20.53
19.73
18.04
15.88
13.71
12.0
11.15
11.3
12.31
13.81
15.34
16.55
17.34
17.77
17.96
17.92
17.54
16.57
14.83
12.29
9.14
5.7
2.31
-0.83
-3.7
-6.49
-9.43
-12.71
-16.33
-20.09
-23.68
-26.79
-29.25
-31.14
-32.77
-34.62
-37.19
-40.71
-45.0
-49.33
-52.56
-53.45
-51.03
-45.0
-35.83
-24.6
-12.72
-1.45
8.26
15.92
21.39
24.79
26.37
26.52
25.74
24.51
23.31
22.44
22.05
22.12
22.47
22.92
23.26
23.44
23.42
23.33
23.24
23.17
23.0
22.49
21.35
19.41
16.68
13.4
9.96
6.71
3.9
1.52
-0.61
-2.8
-5.29
-8.17
-11.3
-14.38
-17.11
-19.35
-21.22
-23.04
-25.29
-28.38
-32.52
-37.52
-42.75
-47.23
-49.79
-49.3
-45.08
-37.19
-26.36
-13.93
-1.46
9.76
18.9
25.76
30.53
33.64
35.45
36.23
36.23
35.62
34.71
33.74
32.9
32.25
31.74
31.24
30.64
29.88
28.96
27.98
26.97
25.97
24.94
23.71
22.1
19.88
16.99
13.46
9.64
5.88
2.58
-0.05
-2.09
-3.84
-5.7
-7.96
-10.67
-13.64
-16.56
-19.16
-21.3
-23.1
-24.77
-26.59
-28.78
-31.44
-34.55
-37.82
-40.66
-42.23
-41.57
-37.86
-30.82
-20.86
-9.05
3.14
14.28
23.31
29.78
33.73
35.52
35.59
34.35
32.15
29.29
26.12
23.02
20.34
18.29
16.96
16.24
15.88
15.65
15.32
14.82
14.18
13.44
12.6
11.59
10.26
8.5
6.27
3.68
1.02
-1.39
-3.28
-4.55
-5.31
-5.85
-6.53
-7.55
-8.92
-10.38
-11.63
-12.49
-13.02
-13.57
-14.65
-16.67
-19.82
-23.94
-28.54
-32.87
-36.02
-37.05
-35.19
-30.01
-21.64
-10.85
1.17
13.04
23.68
32.51
39.53
45.09
49.59
53.21
55.84
57.24
57.24
56.01
54.1
52.32
51.54
52.35
54.9
58.9
63.68
68.45
72.41
75.03
75.92
74.93
71.99
67.05
60.05
50.78
38.96
24.15
5.98
-15.67
-40.21
-66.17
-91.24
-112.62
-127.76
-135.06
-134.34
-126.81
-114.7
-100.56
-86.67
-74.59
-65.09
-58.18
-53.29
-49.57
-46.04
-41.95
-36.99
-31.3
-25.45
-20.15
-16.03
-13.37
-12.1
-11.81
-11.88
-11.74
-10.94
-9.32
-6.95
-4.09
-1.08
1.86
4.55
7.01
9.27
11.42
13.48
15.44
17.23
18.7
19.76
20.24
20.08
19.31
18.06
16.52
14.85
13.13
11.29
9.25
6.91
4.36
1.87
-0.25
-1.7
-2.44
-2.67
-2.93
-3.88
-6.23
-10.43
-16.45
-23.68
-30.9
-36.62
-39.5
-38.87
-34.88
-28.5
-21.14
-14.23
-8.82
-5.38
-3.91
-4.12
-5.59
-8.04
-11.22
-14.98
-19.06
-23.14
-26.76
-29.5
-31.09
-31.52
-31.01
-29.89
-28.43
-26.69
-24.6
-22.11
-19.33
-16.59
-14.36
-12.98
-12.54
-12.81
-13.38
-13.9
-14.25
-14.65
-15.46
-16.98
-19.26
-22.04
-24.88
-27.38
-29.31
-30.71
-31.8
-32.97
-34.63
-37.15
-40.8
-45.5
-50.74
-55.46
-58.22
-57.64
-52.86
-43.87
-31.58
-17.52
-3.42
9.25
19.55
27.13
32.1
34.89
36.02
35.98
35.2
34.06
32.91
32.09
31.83
32.28
33.33
34.68
35.88
36.61
36.76
36.47
36.03
35.64
35.3
34.69
33.41
31.11
27.74
23.58
19.09
14.77
10.92
7.6
4.65
1.79
-1.2
-4.44
-7.86
-11.31
-14.53
-17.34
-19.65
-21.5
-23.14
-24.93
-27.34
-30.76
-35.32
-40.66
-45.91
-49.75
-50.79
-47.98
-40.95
-30.25
-17.09
-3.1
10.19
21.56
30.3
36.19
39.38
40.28
39.4
37.3
34.56
31.69
29.19
27.43
26.67
26.91
27.96
29.48
31.14
32.72
34.12
35.29
36.11
36.35
35.69
33.96
31.17
27.6
23.69
19.83
16.21
12.78
9.33
5.56
1.37
-3.18
-7.82
-12.21
-16.07
-19.35
-22.21
-25.0
-28.2
-32.19
-37.11
-42.64
-48.01
-52.03
-53.38
-51.02
-44.5
-34.2
-21.23
-7.15
6.46
18.34
27.78
34.49
38.52
40.11
39.64
37.61
34.65
31.45
28.63
26.61
25.56
25.39
25.9
26.81
27.95
29.17
30.38
31.42
32.1
32.17
31.4
29.67
27.01
23.62
19.82
15.91
12.12
8.47
4.83
0.99
-3.2
-7.72
-12.37
-16.82
-20.81
-24.19
-27.04
-29.66
-32.47
-35.92
-40.31
-45.66
-51.48
-56.8
-60.2
-60.29
-56.08
-47.4
-35.04
-20.52
-5.65
7.96
19.27
27.87
33.79
37.34
38.88
38.79
37.49
35.48
33.26
31.33
30.0
29.39
29.44
29.92
30.61
31.34
32.08
32.83
33.59
34.24
34.54
34.14
32.73
30.19
26.69
22.67
18.67
15.09
12.04
9.26
6.35
2.85
-1.38
-6.19
-11.14
-15.69
-19.46
-22.32
-24.51
-26.5
-28.91
-32.25
-36.78
-42.31
-48.13
-53.03
-55.6
-54.54
-49.18
-39.69
-27.16
-13.29
0.11
11.57
20.32
26.25
29.7
31.21
31.3
30.42
28.92
27.2
25.61
24.46
23.96
24.17
24.99
26.18
27.5
28.68
29.55
30.02
30.06
29.65
28.74
27.23
25.03
22.18
18.8
15.16
11.56
8.19
5.06
1.98
-1.3
-4.98
-9.01
-13.17
-17.09
-20.5
-23.34
-25.76
-28.13
-30.82
-34.16
-38.21
-42.7
-46.98
-50.0
-50.59
-47.77
-41.16
-31.21
-19.12
-6.49
5.16
14.77
21.9
26.6
29.15
29.85
28.95
26.73
23.61
20.09
16.75
14.11
12.48
11.97
12.46
13.67
15.27
16.94
18.39
19.39
19.79
19.46
18.36
16.54
14.17
11.46
8.58
5.61
2.49
-0.92
-4.66
-8.67
-12.71
-16.47
-19.78
-22.61
-25.12
-27.57
-30.27
-33.53
-37.54
-42.25
-47.19
-51.4
-53.59
-52.54
-47.51
-38.62
-26.88
-13.83
-1.11
9.96
18.64
24.73
28.37
29.89
29.64
28.02
25.48
22.54
19.75
17.57
16.33
16.11
16.74
17.92
19.33
20.74
22.05
23.22
24.14
24.58
24.24
22.92
20.6
17.48
13.95
10.34
6.83
3.4
-0.16
-4.03
-8.31
-12.88
-17.53
-21.9
-25.73
-28.88
-31.4
-33.61
-35.99
-39.09
-43.25
-48.39
-53.87
-58.46
-60.64
-59.08
-53.06
-42.83
-29.52
-14.92
-0.89
11.1
20.23
26.37
29.88
31.35
31.33
30.35
28.87
27.3
26.04
25.41
25.54
26.32
27.46
28.59
29.44
29.93
30.21
30.44
30.74
30.99
30.91
30.13
28.43
25.84
22.62
19.19
15.83
12.64
9.52
6.26
2.66
-1.35
-5.66
-10.06
-14.3
-18.17
-21.57
-24.59
-27.43
-30.44
-34.02
-38.49
-43.84
-49.62
-54.82
-58.11
-58.11
-53.88
-45.3
-33.14
-18.93
-4.51
8.45
18.83
26.21
30.73
32.85
33.16
32.21
30.49
28.41
26.33
24.55
23.31
22.7
22.75
23.35
24.36
25.67
27.12
28.56
29.84
30.73
30.96
30.28
28.46
25.5
21.65
17.39
13.22
9.52
6.39
3.61
0.84
-2.19
-5.52
-8.94
-12.13
-14.85
-17.15
-19.27
-21.67
-24.81
-29.05
-34.44
-40.67
-46.98
-52.24
-55.18
-54.71
-50.31
-42.18
-31.23
-18.85
-6.49
4.59
13.52
19.89
23.66
25.0
24.3
22.05
18.86
15.42
12.41
10.34
9.55
10.04
11.57
13.74
16.12
18.32
20.07
21.15
21.31
20.28
17.8
13.72
8.1
1.23
-6.38
-14.2
-21.75
-28.8
-35.33
-41.46
-47.29
-52.72
-57.54
-61.47
-64.41
-66.48
-68.05
-69.59
-71.5
-74.0
-76.99
-80.05
-82.43
-83.08
-80.82
-74.7
-64.33
-50.21
-33.67
-16.55
-0.6
12.9
23.48
31.32
36.89
40.76
43.4
45.29
47.04
49.45
53.37
59.42
67.7
77.64
88.09
97.66
105.06
109.56
111.0
109.69
106.19
101.05
94.76
87.74
80.43
73.1
65.87
58.59
50.96
42.73
33.93
24.94
16.34
8.52
1.44
-5.47
-13.12
-22.39
-33.74
-46.97
-61.18
-74.83
-86.14
-93.36
-95.26
-91.42
-82.35
-69.38
-54.38
-39.24
-25.54
-14.33
-6.0
-0.48
2.68
4.08
4.37
4.1
3.69
3.41
3.4
3.77
4.59
5.87
7.65
9.84
12.33
14.91
17.37
19.49
21.02
21.71
21.35
19.86
17.32
13.98
10.13
6.04
1.81
-2.6
-7.27
-12.23
-17.28
-22.13
-26.42
-29.92
-32.65
-34.95
-37.4
-40.58
-44.82
-49.9
-54.96
-58.56
-59.18
-55.66
-47.73
-36.1
-22.23
-7.87
5.4
16.53
25.03
30.83
34.12
35.25
34.68
32.98
30.73
28.51
26.72
25.62
25.3
25.66
26.52
27.59
28.55
29.1
29.06
28.42
27.3
25.85
24.14
22.08
19.49
16.17
12.04
7.2
1.99
-3.22
-8.05
-12.28
-15.88
-19.04
-22.08
-25.4
-29.39
-34.32
-40.16
-46.47
-52.3
-56.35
-57.22
-53.9
-46.14
-34.56
-20.5
-5.68
8.32
20.29
29.58
35.96
39.5
40.47
39.28
36.48
32.75
28.77
25.16
22.33
20.53
19.75
19.86
20.6
21.64
22.66
23.35
23.58
23.29
22.56
21.51
20.19
18.55
16.4
13.55
9.94
5.73
1.22
-3.18
-7.17
-10.64
-13.7
-16.62
-19.75
-23.38
-27.65
-32.47
-37.42
-41.68
-44.19
-43.83
-39.84
-32.06
-21.12
-8.31
4.79
16.69
26.4
33.47
37.99
40.3
40.83
39.94
37.95
35.18
32.07
29.13
26.85
25.58
25.39
26.08
27.24
28.42
29.22
29.48
29.13
28.2
26.77
24.9
22.61
19.94
16.93
13.64
10.09
6.32
2.43
-1.44
-5.09
-8.36
-11.17
-13.59
-15.86
-18.3
-21.25
-24.98
-29.52
-34.68
-39.82
-44.0
-46.09
-45.07
-40.41
-32.27
-21.51
-9.45
2.43
12.93
21.25
27.04
30.24
31.02
29.69
26.69
22.57
18.01
13.72
10.31
8.19
7.47
8.0
9.42
11.24
13.03
14.41
15.21
15.39
15.06
14.3
13.11
11.44
9.14
6.08
2.29
-2.11
-6.81
-11.49
-15.81
-19.56
-22.69
-25.29
-27.58
-29.81
-32.28
-35.23
-38.75
-42.58
-46.14
-48.43
-48.38
-45.09
-38.23
-28.28
-16.46
-4.39
6.44
14.98
20.85
24.18
25.37
24.91
23.18
20.58
17.57
14.67
12.4
11.1
10.89
11.58
12.81
14.17
15.34
16.13
16.49
16.44
15.97
15.05
13.58
11.51
8.87
5.78
2.44
-0.99
-4.43
-7.9
-11.41
-14.92
-18.32
-21.42
-24.1
-26.42
-28.58
-30.96
-33.94
-37.76
-42.34
-47.13
-51.14
-53.17
-52.07
-47.24
-38.84
-27.83
-15.7
-4.01
6.04
13.81
19.18
22.39
23.78
23.68
22.42
20.37
17.95
15.67
13.93
13.01
12.95
13.62
14.79
16.21
17.75
19.29
20.74
21.98
22.86
23.18
22.81
21.76
20.18
18.31
16.38
14.44
12.4
10.06
7.24
3.91
0.26
-3.37
-6.64
-9.31
-11.34
-12.9
-14.3
-15.97
-18.21
-21.09
-24.2
-26.58
-26.91
-23.84
-16.51
-4.99
9.6
25.31
39.94
51.64
59.35
62.84
62.6
59.43
54.19
47.6
40.29
32.86
25.96
20.19
16.02
13.53
12.46
12.26
12.25
11.9
10.97
9.53
7.78
5.99
4.23
2.38
0.21
-2.46
-5.6
-8.96
-12.17
-14.88
-16.97
-18.61
-20.16
-22.0
-24.3
-27.0
-29.83
-32.49
-34.81
-36.83
-38.73
-40.76
-43.11
-45.9
-49.11
-52.66
-56.26
-59.46
-61.51
-61.53
-58.68
-52.41
-42.74
-30.27
-16.11
-1.59
12.0
23.69
32.88
39.31
43.0
44.07
42.74
39.29
34.22
28.18
21.99
16.43
12.06
9.06
7.27
6.34
5.9
5.77
5.8
5.92
5.9
5.4
4.16
2.13
-0.45
-3.15
-5.51
-7.35
-8.77
-10.13
-11.84
-14.08
-16.76
-19.5
-21.94
-23.83
-25.25
-26.46
-27.82
-29.66
-32.15
-35.31
-38.97
-42.76
-46.06
-48.06
-47.89
-44.96
-39.14
-30.89
-21.22
-11.31
-2.2
5.4
11.18
15.13
17.36
18.02
17.38
15.8
13.8
11.99
10.87
10.66
11.31
12.51
13.91
15.29
16.53
17.64
18.57
19.17
19.15
18.28
16.47
13.87
10.79
7.6
4.57
1.78
-0.85
-3.54
-6.49
-9.8
-13.44
-17.24
-20.92
-24.21
-26.89
-28.94
-30.54
-32.05
-33.91
-36.55
-40.13
-44.5
-49.03
-52.71
-54.37
-52.99
-48.01
-39.6
-28.65
-16.58
-4.9
5.16
12.98
18.52
22.16
24.43
25.7
26.18
26.02
25.44
24.75
24.35
24.53
25.33
26.59
27.98
29.24
30.27
31.09
31.76
32.29
32.55
32.4
31.7
30.35
28.38
25.86
22.91
19.72
16.53
13.56
10.93
8.64
6.5
4.19
1.43
-1.9
-5.69
-9.6
-13.27
-16.44
-19.03
-21.28
-23.55
-26.27
-29.82
-34.41
-39.89
-45.71
-50.98
-54.45
-54.95
-51.7
-44.58
-34.29
-22.13
-9.61
1.91
11.49
18.78
23.81
26.93
28.57
29.17
29.13
28.82
28.49
28.35
28.5
28.98
29.72
30.61
31.52
32.31
32.87
33.12
33.06
32.69
32.01
31.0
29.66
28.05
26.27
24.47
22.75
21.06
19.27
17.18
14.65
11.71
8.56
5.45
2.53
-0.16
-2.77
-5.49
-8.45
-11.62
-14.85
-17.91
-20.61
-22.92
-24.89
-26.82
-29.05
-31.98
-35.85
-40.58
-45.6
-49.89
-52.17
-51.32
-46.81
-38.81
-28.21
-16.36
-4.63
5.84
14.32
20.51
24.38
26.09
25.94
24.36
21.84
18.99
16.44
14.75
14.27
15.05
16.81
19.05
21.19
22.79
23.68
23.98
23.91
23.69
23.35
22.75
21.66
19.87
17.33
14.26
10.97
7.84
5.12
2.85
0.9
-1.04
-3.22
-5.79
-8.72
-11.85
-14.97
-17.93
-20.65
-23.17
-25.6
-28.09
-30.89
-34.24
-38.33
-43.1
-48.06
-52.28
-54.54
-53.7
-49.06
-40.72
-29.61
-17.17
-4.98
5.72
14.2
20.3
24.15
26.06
26.34
25.34
23.53
21.42
19.59
18.42
18.12
18.61
19.66
20.98
22.35
23.69
24.97
26.22
27.37
28.22
28.47
27.74
25.85
22.79
18.82
14.41
10.06
6.14
2.77
-0.15
-2.84
-5.59
-8.6
-11.96
-15.57
-19.26
-22.75
-25.84
-28.43
-30.65
-32.8
-35.28
-38.5
-42.7
-47.79
-53.28
-58.23
-61.38
-61.47
-57.63
-49.64
-38.21
-24.72
-10.9
1.69
12.01
19.73
25.04
28.4
30.35
31.23
31.37
31.04
30.56
30.25
30.34
30.9
31.83
32.86
33.75
34.34
34.59
34.63
34.52
34.28
33.8
32.89
31.35
29.06
26.03
22.38
18.37
14.31
10.49
7.15
4.36
2.0
-0.19
-2.53
-5.24
-8.38
-11.75
-15.11
-18.16
-20.82
-23.17
-25.51
-28.28
-31.85
-36.41
-41.8
-47.39
-52.15
-54.88
-54.47
-50.28
-42.35
-31.44
-18.8
-5.92
5.88
15.65
22.94
27.71
30.3
31.17
30.84
29.78
28.37
26.97
25.84
25.21
25.15
25.66
26.53
27.51
28.38
29.07
29.64
30.2
30.74
31.07
30.81
29.62
27.35
24.13
20.35
16.45
12.76
9.33
6.03
2.61
-1.1
-5.13
-9.31
-13.37
-16.99
-19.93
-22.09
-23.58
-24.79
-26.27
-28.65
-32.31
-37.23
-42.79
-47.86
-51.05
-51.1
-47.32
-39.79
-29.34
-17.32
-5.21
5.75
14.75
21.4
25.66
27.64
27.61
25.93
23.13
19.8
16.57
13.91
12.12
11.3
11.35
12.09
13.32
14.85
16.47
17.99
19.16
19.71
19.43
18.19
16.02
13.07
9.6
5.85
2.01
-1.85
-5.73
-9.66
-13.65
-17.67
-21.63
-25.48
-29.19
-32.74
-36.22
-39.81
-43.73
-48.18
-53.0
-57.64
-61.04
-61.96
-59.36
-52.88
-42.97
-30.85
-18.11
-6.17
3.95
11.79
17.32
20.71
22.22
22.15
20.96
19.16
17.38
16.1
15.62
15.99
17.04
18.49
20.07
21.57
22.82
23.7
24.05
23.73
22.63
20.71
18.01
14.64
10.8
6.66
2.42
-1.72
-5.57
-8.95
-11.68
-13.61
-14.66
-14.91
-14.65
-14.39
-14.76
-16.36
-19.61
-24.48
-30.49
-36.7
-41.83
-44.53
-43.65
-38.64
-29.65
-17.65
-4.13
9.25
21.07
30.38
36.84
40.66
42.33
42.49
41.76
40.62
39.47
38.54
38.0
37.9
38.27
39.02
40.07
41.24
42.34
43.19
43.62
43.52
42.79
41.34
39.1
36.06
32.36
28.28
24.22
20.59
17.61
15.25
13.14
10.77
7.71
3.8
-0.81
-5.68
-10.39
-14.63
-18.37
-21.84
-25.33
-29.13
-33.37
-37.95
-42.4
-45.82
-46.93
-44.34
-37.09
-25.16
-9.7
7.11
22.73
35.0
42.78
46.09
45.86
43.31
39.47
34.99
30.22
25.45
21.09
17.62
15.41
14.5
14.5
14.76
14.61
13.69
12.06
10.13
8.38
7.12
6.3
5.55
4.35
2.31
-0.66
-4.29
-8.08
-11.54
-14.4
-16.66
-18.63
-20.67
-23.05
-25.8
-28.74
-31.57
-34.03
-35.96
-37.42
-38.56
-39.63
-40.88
-42.56
-44.83
-47.65
-50.76
-53.52
-54.99
-54.18
-50.29
-43.08
-33.05
-21.3
-9.22
1.83
10.97
17.81
22.34
24.82
25.55
24.83
23.06
20.75
18.49
16.87
16.29
16.8
18.18
20.04
21.96
23.71
25.16
26.25
26.91
26.95
26.16
24.44
21.86
18.68
15.31
12.09
9.2
6.62
4.17
1.57
-1.35
-4.68
-8.35
-12.15
-15.85
-19.25
-22.23
-24.82
-27.21
-29.7
-32.65
-36.23
-40.31
-44.26
-47.06
-47.54
-44.77
-38.43
-28.99
-17.58
-5.7
5.27
14.33
21.06
25.54
28.11
29.19
29.11
28.17
26.64
24.88
23.3
22.26
22.01
22.53
23.59
24.84
25.99
26.85
27.38
27.64
27.59
27.15
26.16
24.45
21.92
18.64
14.82
10.78
6.88
3.37
0.41
-2.07
-4.25
-6.44
-8.91
-11.76
-14.85
-17.88
-20.53
-22.64
-24.29
-25.82
-27.71
-30.41
-34.22
-39.07
-44.48
-49.49
-52.84
-53.22
-49.8
-42.48
-32.07
-20.08
-8.19
2.17
10.21
15.82
19.37
21.38
22.37
22.77
22.87
22.87
22.96
23.18
23.56
24.09
24.71
25.42
26.18
26.95
27.65
28.19
28.47
28.48
28.19
27.58
26.6
25.14
23.11
20.53
17.5
14.27
11.06
8.07
5.37
2.96
0.77
-1.28
-3.29
-5.37
-7.62
-10.11
-12.82
-15.65
-18.43
-21.06
-23.52
-25.9
-28.46
-31.42
-34.99
-39.18
-43.71
-47.97
-51.05
-51.93
-49.77
-44.25
-35.71
-25.17
-14.03
-3.62
5.1
11.69
16.14
18.73
19.8
19.67
18.62
16.98
15.18
13.62
12.69
12.55
13.16
14.31
15.67
16.9
17.74
18.13
18.1
17.83
17.44
16.96
16.23
15.04
13.21
10.76
7.87
4.88
2.14
-0.2
-2.23
-4.26
-6.6
-9.41
-12.61
-15.95
-19.08
-21.72
-23.83
-25.48
-26.88
-28.26
-29.82
-31.81
-34.48
-37.91
-41.88
-45.79
-48.61
-49.17
-46.57
-40.47
-31.33
-20.21
-8.53
2.39
11.59
18.6
23.4
26.24
27.44
27.34
26.26
24.51
22.47
20.52
19.06
18.38
18.57
19.48
20.8
22.12
23.13
23.73
23.95
23.96
23.86
23.61
23.05
21.96
20.17
17.71
14.74
11.54
8.32
5.16
2.0
-1.25
-4.74
-8.48
-12.36
-16.19
-19.77
-22.97
-25.77
-28.22
-30.4
-32.37
-34.28
-36.34
-38.84
-42.08
-46.14
-50.65
-54.8
-57.35
-57.1
-53.24
-45.67
-35.1
-22.8
-10.28
1.15
10.63
17.81
22.79
25.95
27.72
28.5
28.64
28.43
28.17
28.08
28.37
29.13
30.35
31.91
33.58
35.13
36.41
37.3
37.79
37.92
37.73
37.18
36.2
34.65
32.48
29.72
26.52
23.09
19.66
16.38
13.35
10.59
8.12
5.86
3.67
1.34
-1.36
-4.58
-8.3
-12.31
-16.26
-19.78
-22.69
-25.04
-27.15
-29.52
-32.63
-36.79
-41.85
-47.24
-51.87
-54.51
-54.07
-50.02
-42.56
-32.53
-21.27
-10.08
-0.07
8.11
14.24
18.42
20.89
21.95
21.94
21.2
20.08
18.91
17.95
17.4
17.32
17.73
18.53
19.6
20.8
22.06
23.31
24.47
25.48
26.11
26.15
25.35
23.57
20.87
17.49
13.8
10.18
6.92
4.05
1.48
-1.02
-3.67
-6.58
-9.7
-12.87
-15.88
-18.58
-20.89
-22.9
-24.77
-26.8
-29.31
-32.57
-36.66
-41.25
-45.61
-48.67
-49.3
-46.69
-40.65
-31.73
-21.05
-9.99
0.23
8.82
15.39
19.89
22.47
23.33
22.79
21.23
19.11
16.97
15.25
14.23
14.04
14.62
15.74
17.16
18.61
19.89
20.88
21.49
21.62
21.22
20.2
18.54
16.27
13.55
10.63
7.78
5.2
2.92
0.8
-1.4
-3.95
-6.99
-10.53
-14.43
-18.43
-22.25
-25.66
-28.5
-30.72
-32.49
-34.18
-36.28
-39.13
-42.62
-46.09
-48.35
-48.06
-44.29
-36.87
-26.56
-14.72
-2.86
7.79
16.55
23.18
27.75
30.43
31.43
31.02
29.59
27.71
25.9
24.63
24.17
24.48
25.34
26.41
27.33
27.94
28.19
28.2
28.09
27.91
27.54
26.76
25.35
23.18
20.35
17.12
13.81
10.7
7.86
5.17
2.4
-0.64
-4.09
-7.84
-11.73
-15.53
-19.03
-22.16
-24.92
-27.36
-29.59
-31.75
-34.07
-36.82
-40.17
-43.94
-47.56
-50.01
-50.11
-46.98
-40.37
-30.82
-19.54
-7.95
2.7
11.6
18.43
23.21
26.13
27.44
27.48
26.62
25.34
24.13
23.36
23.28
23.87
24.98
26.35
27.74
28.93
29.86
30.54
31.01
31.34
31.49
31.38
30.83
29.71
27.9
25.43
22.43
19.13
15.86
12.84
10.23
7.97
5.83
3.61
1.16
-1.52
-4.28
-6.91
-9.26
-11.27
-13.04
-14.79
-16.76
-19.28
-22.58
-26.74
-31.46
-36.15
-39.87
-41.61
-40.59
-36.47
-29.48
-20.39
-10.33
-0.49
8.07
14.65
18.96
21.08
21.38
20.35
18.51
16.27
13.99
11.96
10.44
9.55
9.34
9.72
10.51
11.5
12.53
13.49
14.28
14.84
15.04
14.71
13.68
11.88
9.36
6.37
3.24
0.32
-2.22
-4.45
-6.64
-9.14
-12.13
-15.55
-19.07
-22.23
-24.73
-26.55
-27.98
-29.52
-31.65
-34.72
-38.78
-43.52
-48.25
-52.01
-53.7
-52.45
-47.84
-40.1
-30.13
-19.16
-8.48
0.93
8.53
14.21
18.12
20.49
21.59
21.65
20.94
19.83
18.66
17.72
17.18
17.04
17.17
17.44
17.73
18.03
18.38
18.82
19.27
19.61
19.62
19.09
17.88
15.93
13.32
10.19
6.81
3.46
0.42
-2.2
-4.45
-6.55
-8.85
-11.53
-14.62
-17.94
-21.16
-24.0
-26.41
-28.52
-30.68
-33.33
-36.79
-41.18
-46.24
