-25.43
-27.78
-30.61
-34.24
-38.82
-44.24
-49.98
-55.08
-58.34
-58.55
-54.93
-47.35
-36.46
-23.52
-10.09
2.41
12.89
20.77
25.91
28.47
28.83
27.5
25.03
22.04
19.1
16.68
15.11
14.49
14.78
15.79
17.28
19.01
20.78
22.4
23.72
24.56
24.79
24.26
22.87
20.59
17.47
13.76
9.77
5.88
2.35
-0.71
-3.52
-6.44
-9.79
-13.72
-18.06
-22.42
-26.29
-29.4
-31.74
-33.68
-35.78
-38.58
-42.42
-47.27
-52.65
-57.61
-60.93
-61.39
-58.06
-50.69
-39.76
-26.46
-12.33
1.09
12.67
21.78
28.26
32.27
34.07
33.98
32.39
29.8
26.83
24.13
22.23
21.37
21.49
22.29
23.4
24.52
25.52
26.42
27.25
28.0
28.53
28.58
27.85
26.17
23.53
20.11
16.25
12.35
8.7
5.41
2.37
-0.68
-3.97
-7.66
-11.69
-15.86
-19.91
-23.61
-26.86
-29.69
-32.29
-35.0
-38.18
-42.25
-47.42
-53.48
-59.74
-64.96
-67.66
-66.57
-61.02
-51.19
-38.12
-23.33
-8.49
4.98
16.12
24.5
30.13
33.32
34.6
34.52
33.65
32.44
31.26
30.42
30.15
30.6
31.75
33.46
35.43
37.38
39.01
40.14
40.69
40.62
39.89
38.47
36.36
33.56
30.17
26.31
22.19
18.05
14.13
10.6
7.5
4.73
2.04
-0.83
-4.1
-7.8
-11.81
-15.94
-19.93
-23.57
-26.79
-29.64
-32.33
-35.24
-38.78
-43.25
-48.68
-54.59
-59.94
-63.34
-63.41
-59.17
-50.47
-38.02
-23.23
-7.89
6.32
18.14
26.92
32.55
35.3
35.72
34.41
32.05
29.24
26.56
24.49
23.38
23.33
24.26
25.88
27.78
29.61
31.14
32.3
33.12
33.66
33.88
33.63
32.7
30.9
28.21
24.76
20.82
16.7
12.71
9.04
5.77
2.84
0.05
-2.83
-6.0
-9.55
-13.33
-17.08
-20.48
-23.37
-25.76
-27.99
-30.4
-33.4
-37.21
-41.84
-46.98
-51.94
-55.68
-57.03
-54.99
-49.02
-39.38
-26.98
-13.28
0.12
11.85
21.0
27.15
30.35
30.94
29.5
26.67
23.19
19.75
16.96
15.33
15.08
16.17
18.27
20.85
23.34
25.37
26.79
27.72
28.36
28.81
28.98
28.57
27.26
24.82
21.32
17.07
12.55
8.19
4.23
0.67
-2.69
-6.12
-9.81
-13.8
-17.94
-21.98
-25.68
-28.89
-31.59
-33.92
-36.18
-38.7
-41.92
-46.15
-51.39
-57.18
-62.49
-65.9
-65.94
-61.58
-52.65
-39.9
-24.92
-9.57
4.42
15.92
24.43
30.04
33.15
34.26
33.84
32.35
30.24
28.02
26.19
25.14
25.03
25.79
27.16
28.82
30.46
31.89
33.03
33.86
34.35
34.43
33.97
32.8
30.79
27.9
24.22
19.99
15.58
11.41
7.78
4.79
2.26
-0.14
-2.79
-5.88
-9.42
-13.23
-17.02
-20.6
-23.88
-26.97
-30.07
-33.41
-37.24
-41.74
-46.98
-52.73
-58.35
-62.7
-64.41
-62.23
-55.5
-44.49
-30.38
-14.95
-0.05
12.9
23.13
30.54
35.43
38.19
39.19
38.76
37.28
35.29
33.32
31.87
31.19
31.23
31.74
32.38
32.93
33.37
33.81
34.3
34.78
35.01
34.68
33.56
31.62
28.99
25.87
22.47
18.88
15.18
11.41
7.68
4.12
0.85
-2.12
-4.89
-7.63
-10.5
-13.53
-16.62
-19.59
-22.28
-24.68
-26.94
-29.39
-32.39
-36.26
-41.09
-46.61
-52.18
-56.77
-59.2
-58.35
-53.65
-45.12
-33.59
-20.38
-7.04
5.11
15.16
22.67
27.58
30.02
30.26
28.69
25.87
22.46
19.18
16.63
15.17
14.88
15.57
16.9
18.53
20.19
21.76
23.17
24.38
25.27
25.61
25.11
23.56
20.9
17.3
13.19
8.99
5.06
1.53
-1.71
-4.91
-8.27
-11.86
-15.59
-19.21
-22.53
-25.38
-27.76
-29.8
-31.78
-34.12
-37.25
-41.48
-46.68
-52.23
-56.98
-59.48
-58.46
-53.23
-43.95
-31.65
-17.88
-4.25
7.88
17.69
24.83
29.32
31.35
31.25
29.39
26.26
22.5
18.75
15.6
13.46
12.53
12.73
13.83
15.5
17.45
19.44
21.26
22.73
23.64
23.75
22.89
20.98
18.19
14.89
11.49
8.29
5.32
2.35
-0.97
-4.86
-9.29
-13.96
-18.43
-22.31
-25.47
-28.06
-30.45
-33.11
-36.43
-40.72
-46.01
-51.94
-57.66
-61.91
-63.23
-60.48
-53.24
-41.98
-28.05
-13.26
0.67
12.49
21.61
28.03
32.05
34.08
34.53
33.8
32.31
30.54
29.0
28.08
27.97
28.58
29.67
30.91
32.02
32.9
33.53
33.96
34.12
33.88
32.94
31.05
28.09
24.12
19.44
14.51
9.77
5.57
2.01
-1.04
-3.92
-6.95
-10.36
-14.15
-18.09
-21.88
-25.27
-28.16
-30.76
-33.51
-36.93
-41.41
-46.99
-53.19
-59.01
-63.09
-64.03
-60.85
-53.22
-41.68
-27.48
-12.24
2.41
15.19
25.36
32.7
37.36
39.79
40.53
40.11
39.09
37.94
37.0
36.53
36.57
37.04
37.79
38.63
39.44
40.16
40.84
41.51
42.11
42.49
42.39
41.51
39.62
36.62
32.66
28.04
23.18
18.46
14.1
10.14
6.45
2.79
-1.07
-5.21
-9.56
-13.93
-18.03
-21.66
-24.74
-27.37
-29.76
-32.23
-35.14
-38.83
-43.51
-49.14
-55.19
-60.66
-64.14
-64.17
-59.8
-50.97
-38.61
-24.4
-10.21
2.43
12.6
20.05
24.97
27.71
28.64
28.1
26.47
24.29
22.1
20.46
19.74
20.02
21.14
22.78
24.57
26.2
27.53
28.51
29.15
29.35
28.96
27.76
25.6
22.51
18.69
14.52
10.39
6.59
3.17
0.01
-3.19
-6.66
-10.51
-14.68
-18.9
-22.88
-26.36
-29.23
-31.65
-33.92
-36.53
-39.9
-44.26
-49.36
-54.44
-58.25
-59.39
-56.72
-49.79
-39.05
-25.76
-11.61
1.76
13.12
21.85
27.85
31.32
32.64
32.21
30.48
28.02
25.48
23.41
22.19
21.94
22.46
23.38
24.37
25.24
25.99
26.72
27.46
28.11
28.36
27.82
26.19
23.39
19.59
15.17
10.6
6.24
2.25
-1.42
-5.04
-8.84
-12.99
-17.43
-21.9
-26.07
-29.65
-32.56
-34.93
-37.14
-39.58
-42.67
-46.73
-51.84
-57.66
-63.39
-67.72
-69.18
-66.56
-59.34
-47.99
-33.84
-18.72
-4.38
7.86
17.36
24.05
28.21
30.32
30.85
30.3
29.18
27.94
27.0
26.63
27.0
28.05
29.58
31.28
32.78
33.85
34.44
34.63
34.57
34.35
33.89
32.95
31.28
28.63
25.06
20.82
16.35
12.04
8.14
4.64
1.28
-2.23
-6.15
-10.52
-15.18
-19.77
-23.96
-27.46
-30.16
-32.17
-33.81
-35.61
-38.13
-41.8
-46.51
-51.48
-55.27
-56.15
-52.62
-44.01
-30.74
-14.23
3.43
20.16
34.3
44.94
51.94
55.71
57.05
56.81
55.72
54.27
52.77
51.32
49.95
48.66
47.52
46.57
45.91
45.62
45.74
46.29
47.13
47.97
48.3
47.59
45.44
41.78
36.92
31.46
26.03
21.12
16.88
13.09
9.28
4.9
-0.5
-7.17
-15.11
-23.99
-33.27
-42.21
-50.0
-55.95
-59.58
-60.79
-59.93
-57.74
-55.22
-53.4
-53.09
-54.55
-57.31
-60.32
-62.11
-61.24
-56.81
-48.75
-37.84
-25.53
-13.48
-3.03
5.08
10.83
14.73
17.47
19.67
21.63
23.39
24.76
25.51
25.44
24.45
22.48
19.62
16.07
12.19
8.44
5.21
2.77
1.22
0.52
0.65
1.56
3.21
5.41
7.8
9.81
10.82
10.29
8.0
4.03
-1.28
-7.36
-13.46
-18.8
-22.54
-24.06
-23.2
-20.38
-16.61
-13.25
-11.6
-12.6
-16.61
-23.41
-32.23
-41.95
-51.15
-58.27
-61.87
-60.95
-55.23
-45.4
-32.87
-19.43
-6.77
3.93
12.09
17.7
21.12
22.73
22.92
21.96
20.16
17.88
15.61
13.85
12.95
13.11
14.18
15.85
17.76
19.66
21.41
22.98
24.32
25.25
25.51
24.77
22.85
19.78
15.83
11.47
7.15
3.22
-0.2
-3.29
-6.34
-9.64
-13.31
-17.22
-21.13
-24.8
-28.08
-31.05
-33.94
-37.04
-40.69
-45.18
-50.71
-57.22
-64.2
-70.61
-74.96
-75.69
-71.67
-62.7
-49.65
-34.21
-18.33
-3.69
8.64
18.24
25.16
29.64
31.97
32.48
31.61
29.89
27.88
26.09
24.86
24.37
24.6
25.42
26.64
28.06
29.5
30.85
32.07
33.15
34.01
34.48
34.35
33.35
31.39
28.55
25.12
21.44
17.85
14.49
11.36
8.29
5.09
1.65
-1.98
-5.6
-8.94
-11.81
-14.18
-16.2
-18.18
-20.46
-23.43
-27.39
-32.52
-38.69
-45.34
-51.34
-55.2
-55.38
-50.86
-41.5
-28.27
-12.84
2.86
17.21
29.2
38.45
45.0
49.11
51.08
51.24
50.0
47.85
45.39
43.16
41.53
40.66
40.48
40.72
41.12
41.45
41.6
41.61
41.52
41.32
40.86
39.87
38.1
35.35
31.69
27.4
22.87
18.53
14.59
11.06
7.71
4.22
0.34
-4.02
-8.77
-13.63
-18.28
-22.45
-26.06
-29.2
-32.15
-35.27
-38.89
-43.31
-48.53
-54.25
-59.71
-63.77
-65.16
-62.82
-56.24
-45.74
-32.45
-17.98
-4.0
8.2
17.83
24.63
28.7
30.29
29.74
27.52
24.19
20.49
17.16
14.76
13.57
13.49
14.22
15.38
16.72
18.14
19.64
21.14
22.4
23.04
22.64
21.01
18.17
14.48
10.47
6.62
3.18
0.13
-2.81
-6.02
-9.78
-14.16
-18.94
-23.78
-28.28
-32.23
-35.65
-38.83
-42.24
-46.32
-51.3
-56.97
-62.66
-67.22
-69.32
-67.78
-61.98
-52.09
-39.05
-24.34
-9.59
3.83
15.03
23.65
29.75
33.6
35.56
36.01
35.34
33.94
32.2
30.42
28.76
27.31
26.11
25.27
24.91
25.18
26.13
27.56
29.08
30.17
30.39
29.44
27.31
24.17
20.33
16.12
11.83
7.68
3.76
0.01
-3.73
-7.63
-11.81
-16.2
-20.57
-24.57
-27.96
-30.7
-33.06
-35.48
-38.52
-42.56
-47.6
-53.2
-58.34
-61.65
-61.73
-57.54
-48.77
-36.09
-20.91
-5.07
9.72
22.21
31.83
38.56
42.74
44.81
45.25
44.5
43.04
41.33
39.81
38.8
38.4
38.47
38.73
38.86
38.65
38.11
37.36
36.57
35.82
35.03
33.95
32.27
29.8
26.57
22.84
19.01
15.49
12.5
10.01
7.74
5.28
2.29
-1.39
-5.68
-10.25
-14.7
-18.69
-22.09
-25.02
-27.8
-30.85
-34.55
-39.08
-44.3
-49.63
-54.11
-56.58
-55.87
-51.29
-42.74
-30.92
-17.12
-2.86
10.47
21.9
30.92
37.43
41.55
43.56
43.78
42.63
40.59
38.16
35.84
33.97
32.75
32.18
32.11
32.27
32.41
32.3
31.82
30.95
29.67
27.97
25.82
23.19
20.17
16.92
13.67
10.58
7.68
4.81
1.74
-1.73
-5.7
-10.08
-14.65
-19.12
-23.21
-26.75
-29.74
-32.37
-34.98
-37.96
-41.65
-46.18
-51.33
-56.35
-60.13
-61.38
-59.06
-52.72
-42.78
-30.34
-16.92
-3.97
7.45
16.75
23.69
28.24
30.45
30.48
28.65
25.54
21.85
18.24
15.2
12.97
11.64
11.13
11.32
12.1
13.31
14.73
16.07
17.02
17.29
16.71
15.22
12.91
10.02
6.75
3.28
-0.3
-3.99
-7.88
-12.01
-16.37
-20.81
-25.07
-28.92
-32.16
-34.78
-36.96
-39.11
-41.72
-45.22
-49.78
-55.07
-60.31
-64.28
-65.65
-63.36
-56.95
-46.78
-33.9
-19.79
-5.97
6.36
16.41
23.9
28.83
31.45
32.15
31.42
29.85
28.07
26.57
25.69
25.52
25.96
26.82
27.9
29.09
30.3
31.42
32.33
32.84
32.78
32.0
30.47
28.25
25.51
22.48
19.32
16.14
12.89
9.38
5.4
0.82
-4.28
-9.6
-14.74
-19.37
-23.38
-26.89
-30.17
-33.63
-37.57
-42.18
-47.34
-52.6
-57.13
-59.75
-59.26
-54.78
-46.15
-34.03
-19.83
-5.24
8.18
19.33
27.76
33.5
36.9
38.46
38.67
38.02
36.95
35.82
34.88
34.2
33.74
33.37
32.97
32.49
31.98
31.53
31.28
31.24
31.36
31.37
30.95
29.8
27.76
24.95
21.68
18.36
15.28
12.5
9.79
6.82
3.33
-0.7
-5.01
-9.21
-12.95
-16.05
-18.6
-20.89
-23.3
-26.21
-29.92
-34.56
-39.96
-45.56
-50.38
-53.17
-52.75
-48.36
-39.98
-28.42
-15.01
-1.34
11.26
21.85
29.96
35.55
38.79
40.0
39.59
38.0
35.73
33.24
30.92
29.07
27.83
27.19
27.04
27.16
27.28
27.22
26.84
26.09
24.86
23.03
20.4
16.88
12.52
7.55
2.36
-2.73
-7.55
-12.15
-16.71
-21.4
-26.18
-30.75
-34.69
-37.57
-39.2
-39.65
-39.25
-38.52
-37.96
-37.83
-38.05
-38.11
-37.13
-34.19
-28.62
-20.31
-9.79
1.84
13.31
23.44
31.43
36.86
39.62
39.79
37.55
33.3
27.65
21.46
15.66
11.05
8.18
7.22
8.04
10.21
13.22
16.45
19.32
21.33
22.15
21.73
20.23
18.02
15.46
12.82
10.15
7.32
4.06
0.15
-4.47
-9.66
-15.05
-20.21
-24.77
-28.58
-31.77
-34.73
-37.97
-42.02
-47.18
-53.45
-60.35
-66.92
-71.9
-73.98
-72.14
-66.06
-56.22
-43.79
-30.32
-17.36
-6.11
2.73
8.98
12.84
14.69
14.95
14.0
12.24
10.02
7.77
5.97
5.01
5.1
6.22
8.11
10.35
12.54
14.36
15.59
16.14
15.95
15.0
13.34
11.03
8.21
5.06
1.68
-1.87
-5.63
-9.61
-13.78
-18.03
-22.2
-26.08
-29.56
-32.66
-35.66
-38.93
-42.86
-47.58
-52.72
-57.36
-60.16
-59.73
-55.13
-46.23
-33.85
-19.44
-4.79
8.6
19.7
28.08
33.77
37.02
38.27
38.04
36.89
35.4
34.09
33.3
33.1
33.41
34.02
34.72
35.4
36.01
36.51
36.85
36.92
36.54
35.59
33.98
31.7
28.77
25.29
21.37
17.22
12.99
8.79
4.67
0.61
-3.45
-7.46
-11.32
-14.84
-17.91
-20.64
-23.38
-26.64
-30.91
-36.33
-42.52
-48.51
-52.88
-54.18
-51.37
-44.21
-33.38
-20.33
-6.81
5.56
15.75
23.32
28.38
31.25
32.27
31.8
30.15
27.8
25.3
23.25
22.08
21.96
22.75
24.1
25.61
26.93
27.81
28.14
27.88
27.07
25.77
24.09
22.14
20.02
17.77
15.44
13.0
10.45
7.81
5.08
2.26
-0.68
-3.74
-6.85
-9.88
-12.7
-15.22
-17.49
-19.71
-22.15
-24.93
-27.89
-30.52
-32.02
-31.6
-28.7
-23.23
-15.66
-6.91
1.82
9.33
14.67
17.32
17.25
14.91
11.13
6.95
3.39
1.27
1.02
2.61
5.71
9.76
14.21
18.75
23.3
27.93
32.68
37.39
41.54
44.43
45.31
43.7
39.64
33.81
27.35
21.48
17.1
14.5
13.19
12.18
10.31
6.68
0.98
-6.48
-14.92
-23.4
-31.23
-38.19
-44.56
-50.96
-57.85
-65.23
-72.34
-77.72
-79.75
-77.13
-69.38
-57.1
-41.79
-25.53
-10.4
1.95
10.81
16.33
19.45
21.49
23.6
26.48
30.15
34.12
37.68
40.28
41.59
41.6
40.41
38.14
34.98
31.23
27.41
24.12
21.89
20.93
20.96
21.4
21.51
20.8
19.29
17.43
15.88
15.15
15.24
15.64
15.48
13.89
10.39
5.0
-1.69
-8.75
-15.31
-20.8
-25.21
-29.11
-33.29
-38.53
-45.23
-53.16
-61.44
-68.7
-73.42
-74.22
-70.21
-61.18
-47.7
-31.1
-13.3
3.67
18.0
28.53
34.97
37.86
38.19
37.13
35.55
34.04
32.81
31.99
31.58
31.61
31.93
32.16
31.72
30.07
26.95
22.54
17.48
12.52
8.37
5.34
3.36
2.16
1.39
0.77
0.12
-0.72
-1.95
-3.71
-6.1
-9.12
-12.59
-16.27
-19.97
-23.6
-27.08
-30.32
-33.1
-35.14
-36.2
-36.18
-35.26
-33.87
-32.63
-32.22
-33.13
-35.44
-38.8
-42.34
-44.79
-44.89
-41.65
-34.64
-24.22
-11.5
1.92
14.35
24.57
32.18
37.56
41.67
45.49
49.52
53.62
57.25
59.79
61.03
61.13
60.46
59.27
57.51
54.88
51.2
46.63
41.66
36.98
33.13
30.21
27.91
25.65
22.91
19.5
15.66
11.86
8.57
6.04
4.13
2.43
0.48
-1.98
-4.88
-7.84
-10.4
-12.22
-13.24
-13.65
-13.79
-14.0
-14.5
-15.28
-16.07
-16.34
-15.38
-12.47
-7.12
0.65
10.13
20.05
28.81
35.04
37.9
37.35
33.88
28.27
21.18
13.01
3.93
-5.79
-15.64
-24.71
-31.99
-36.67
-38.49
-37.9
-35.77
-33.11
-30.61
-28.44
-26.28
-23.5
-19.49
-13.89
-6.75
1.44
9.76
16.96
21.74
23.07
20.48
14.24
5.29
-5.06
-15.56
-25.3
-33.89
-41.36
-47.86
-53.54
-58.46
-62.65
-66.3
-69.86
-73.91
-78.97
-85.14
-91.94
-98.24
-102.68
-104.07
-101.78
-95.92
-87.2
-76.64
-65.23
-53.81
-42.98
-33.23
-24.95
-18.38
-13.61
-10.47
-8.61
-7.55
-6.82
-6.03
-4.9
-3.29
-1.16
1.38
4.16
6.96
9.61
12.02
14.19
16.11
17.74
19.01
19.79
19.92
19.25
17.72
15.4
12.5
9.31
6.1
3.06
0.21
-2.57
-5.48
-8.64
-12.05
-15.55
-18.85
-21.71
-23.94
-25.62
-27.06
-28.78
-31.35
-35.22
-40.38
-46.21
-51.62
-55.16
-55.55
-51.99
-44.44
-33.61
-20.78
-7.41
5.18
15.96
24.4
30.33
33.91
35.53
35.67
34.88
33.64
32.4
31.44
30.97
31.05
31.66
32.71
34.01
35.35
36.53
37.39
37.87
38.0
37.84
37.41
36.68
35.6
34.1
32.18
29.88
27.32
24.66
22.07
19.63
17.35
15.16
12.92
10.49
7.78
4.76
1.52
-1.79
-5.0
-7.96
-10.69
-13.27
-15.91
-18.89
-22.49
-26.93
-32.24
-38.07
-43.67
-47.94
-49.64
-47.73
-41.73
-31.98
-19.51
-5.91
7.21
18.53
27.26
33.17
36.46
37.57
36.96
35.16
32.63
29.84
27.27
25.32
24.25
24.08
24.65
25.69
26.94
28.19
29.38
30.47
31.37
31.92
31.84
30.9
28.96
26.14
22.69
19.01
15.47
12.3
9.57
7.16
4.84
2.36
-0.43
-3.59
-7.02
-10.54
-13.9
-16.93
-19.63
-22.18
-24.95
-28.34
-32.57
-37.5
-42.5
-46.5
-48.3
-46.84
-41.68
-33.04
-21.88
-9.53
2.61
13.38
22.03
28.25
32.1
33.86
33.96
32.85
30.95
28.7
26.47
24.56
23.25
22.71
22.99
23.97
25.4
26.96
28.33
29.24
29.57
29.31
28.49
27.22
25.55
23.56
21.31
18.93
16.53
14.2
11.94
9.61
6.96
3.77
-0.06
-4.4
-8.93
-13.3
-17.15
-20.33
-22.9
-25.08
-27.2
-29.63
-32.74
-36.73
-41.55
-46.68
-51.18
-53.85
-53.5
-49.44
-41.68
-31.03
-18.8
-6.47
4.73
14.0
21.02
25.83
28.65
29.83
29.76
28.88
27.59
26.34
25.47
25.16
25.39
25.97
26.64
27.18
27.54
27.8
28.1
28.53
28.98
29.21
28.93
27.93
26.16
23.75
20.87
17.75
14.59
11.52
8.67
6.02
3.44
0.74
-2.24
-5.61
-9.19
-12.68
-15.74
-18.13
-19.85
-21.19
-22.54
-24.36
-27.0
-30.56
-34.77
-38.98
-42.17
-43.19
-41.11
-35.52
-26.68
-15.54
-3.35
8.58
19.22
27.93
34.45
38.74
40.99
41.46
40.55
38.74
36.52
34.32
32.49
31.21
30.5
30.27
30.31
30.4
30.4
30.29
30.12
29.97
29.71
29.14
27.97
25.99
23.21
19.9
16.46
13.24
10.39
7.81
5.27
2.55
-0.5
-3.84
-7.35
-10.86
-14.17
-17.18
-19.83
-22.22
-24.57
-27.19
-30.38
-34.32
-38.85
-43.44
-47.19
-49.08
-48.23
-44.24
-37.3
-28.15
-17.87
-7.6
1.74
9.54
15.45
19.34
21.24
21.3
19.85
17.41
14.56
11.84
9.63
8.11
7.24
6.89
6.88
7.06
7.31
7.54
7.69
7.65
7.31
6.47
4.97
2.67
-0.43
-4.17
-8.26
-12.47
-16.65
-20.76
-24.85
-28.82
-32.51
-35.66
-38.04
-39.55
-40.33
-40.73
-41.2
-42.2
-43.91
-46.11
-48.0
-48.34
-45.75
-39.14
-28.25
-13.82
2.39
18.26
31.77
41.69
47.7
50.32
50.45
48.95
46.39
43.02
39.02
34.6
30.23
26.44
23.68
22.19
22.02
23.12
25.47
29.05
33.68
38.82
43.59
47.02
48.42
47.64
45.14
41.67
37.93
34.18
30.26
25.75
20.32
13.96
7.02
0.01
-6.65
-12.81
-18.67
-24.64
-31.07
-38.16
-45.74
-53.28
-59.96
-64.77
-66.79
-65.3
-60.03
-51.19
-39.51
-26.08
-12.19
0.9
12.17
20.92
26.85
30.05
30.99
30.39
29.05
27.68
26.72
26.31
26.34
26.58
26.84
27.13
27.64
28.71
30.65
33.73
37.98
43.19
48.85
54.25
58.57
61.08
61.34
59.26
55.16
49.59
43.12
36.25
29.21
21.93
14.15
5.5
-4.35
-15.48
-27.63
-40.11
-51.96
-62.13
-69.68
-73.78
-73.76
-69.12
-59.66
-45.78
-28.66
-10.29
6.88
20.54
29.22
32.58
31.39
27.1
21.2
14.79
8.44
2.22
-3.92
-9.96
-15.67
-20.7
-24.7
-27.53
-29.28
-30.22
-30.69
-30.95
-31.17
-31.41
-31.73
-32.21
-32.92
-33.92
-35.17
-36.58
-38.04
-39.49
-40.94
-42.43
-44.02
-45.69
-47.37
-49.0
-50.46
-51.7
-52.72
-53.56
-54.32
-55.2
-56.45
-58.26
-60.59
-63.01
-64.69
-64.55
-61.6
-55.34
-45.94
-34.24
-21.55
-9.18
1.81
10.76
17.39
21.74
24.0
24.42
23.35
21.21
18.47
15.68
13.35
11.91
11.66
12.64
14.63
17.22
19.92
22.27
23.97
24.89
25.07
24.55
23.39
21.54
18.99
15.74
11.82
7.36
2.51
-2.55
-7.67
-12.66
-17.35
-21.63
-25.49
-29.07
-32.64
-36.53
-40.98
-45.93
-50.9
-54.95
-56.87
-55.55
-50.34
-41.27
-29.19
-15.49
-1.74
10.67
20.8
28.17
32.75
34.77
34.68
32.99
30.32
27.29
24.45
22.24
20.87
20.44
20.84
21.92
23.4
24.99
26.4
27.42
27.93
27.91
27.37
26.33
24.8
22.8
20.39
17.61
14.47
10.97
7.06
2.77
-1.82
-6.51
-11.09
-15.38
-19.35
-23.1
-26.81
-30.71
-35.04
-39.9
-45.17
-50.3
-54.26
-55.82
-53.8
-47.62
-37.47
-24.44
-10.08
3.95
16.3
26.19
33.37
37.97
40.35
41.0
40.42
39.09
37.45
35.83
34.52
33.71
33.45
33.67
34.21
34.93
35.7
36.45
37.14
37.67
37.82
37.36
36.09
33.95
31.05
27.64
23.99
20.3
16.64
12.97
9.2
5.25
1.12
-3.11
-7.29
-11.2
-14.71
-17.76
-20.44
-23.01
-25.82
-29.3
-33.67
-38.83
-44.21
-48.78
-51.26
-50.5
-45.86
-37.42
-25.99
-12.92
0.3
12.33
22.22
29.47
34.0
36.02
35.94
34.33
31.82
29.08
26.71
25.16
24.61
24.99
25.98
27.22
28.39
29.34
30.03
30.53
30.86
30.97
30.67
29.81
28.27
26.08
23.34
20.22
16.92
13.56
10.2
6.79
3.28
-0.38
-4.16
-7.91
-11.5
-14.78
-17.73
-20.41
-23.06
-25.98
-29.45
-33.61
-38.29
-42.9
-46.51
-48.02
-46.46
-41.39
-33.05
-22.34
-10.57
0.95
11.14
19.36
25.34
29.12
30.88
30.88
29.5
27.16
24.35
21.49
18.95
16.98
15.74
15.29
15.56
16.43
17.63
18.91
19.97
20.58
20.54
19.7
18.05
15.65
12.68
9.38
5.99
2.71
-0.41
-3.44
-6.49
-9.61
-12.77
-15.89
-18.81
-21.46
-23.89
-26.31
-29.05
-32.37
-36.35
-40.64
-44.49
-46.84
-46.64
-43.2
-36.44
-27.0
-15.98
-4.67
5.81
14.75
21.78
26.78
29.82
31.02
30.67
29.24
27.27
25.29
23.64
22.42
21.53
20.89
20.49
20.44
20.87
21.78
22.99
24.08
24.59
24.16
22.66
20.21
17.09
13.66
10.23
6.98
3.92
0.98
-1.98
-5.09
-8.38
-11.87
-15.43
-18.94
-22.29
-25.43
-28.43
-31.47
-34.8
-38.59
-42.82
-47.07
-50.51
-52.08
-50.77
-45.95
-37.67
-26.69
-14.25
-1.79
9.45
18.68
25.57
30.18
32.81
33.81
33.56
32.42
30.78
29.04
27.56
26.62
26.37
26.72
27.46
28.3
29.03
29.47
29.58
29.28
28.48
27.06
24.91
21.98
18.44
14.59
10.81
7.4
4.51
2.04
-0.25
-2.69
-5.54
-8.84
-12.44
-16.09
-19.45
-22.31
-24.66
-26.67
-28.66
-31.0
-34.0
-37.71
-41.85
-45.67
-48.15
-48.19
-44.95
-38.18
-28.34
-16.44
-3.87
8.11
18.5
26.74
32.69
36.48
38.41
38.87
38.33
37.27
36.11
35.21
34.76
34.82
35.3
35.99
36.68
37.25
37.66
37.99
38.37
38.85
39.32
39.49
39.01
37.59
35.17
31.91
28.14
24.23
20.44
16.87
13.46
10.08
6.67
3.21
-0.18
-3.35
-6.16
-8.53
-10.5
-12.23
-14.0
-16.19
-19.2
-23.32
-28.55
-34.51
-40.35
-44.87
-46.87
-45.53
-40.67
-32.9
-23.39
-13.54
-4.56
2.76
8.14
11.65
13.53
14.05
13.44
11.94
9.81
7.36
4.96
2.84
1.19
0.05
-0.56
-0.67
-0.36
0.25
0.94
1.42
1.36
0.6
-0.89
-2.94
-5.24
-7.49
-9.5
-11.27
-12.99
-14.91
-17.25
-20.06
-23.2
-26.41
-29.41
-32.01
-34.2
-36.15
-38.14
-40.5
-43.48
-47.16
-51.29
-55.27
-58.19
-58.97
-56.72
-50.96
-41.89
-30.35
-17.63
-5.18
5.75
14.34
20.27
23.69
25.04
24.89
23.79
22.18
20.44
18.87
17.72
17.17
17.28
17.94
18.93
20.0
20.89
21.5
21.8
21.78
21.37
20.44
18.81
16.41
13.29
9.63
5.76
1.93
-1.73
-5.26
-8.79
-12.48
-16.27
-19.98
-23.32
-26.07
-28.21
-29.99
-31.85
-34.33
-37.82
-42.37
-47.61
-52.77
-56.75
-58.43
-56.91
-51.76
-43.17
-31.99
-19.43
-6.8
4.78
14.59
22.37
28.11
32.0
34.22
34.96
34.5
33.26
31.74
30.53
30.04
30.37
31.3
32.42
33.29
33.67
33.61
33.3
32.95
32.59
32.06
31.06
29.32
26.74
23.42
19.66
15.79
12.12
8.73
5.52
2.25
-1.32
-5.27
-9.52
-13.74
-17.61
-20.84
-23.4
-25.5
-27.48
-29.81
-32.86
-36.85
-41.62
-46.59
-50.76
-52.84
-51.7
-46.69
-37.91
-26.24
-13.08
0.09
12.06
22.02
29.67
34.98
38.15
39.5
39.44
38.49
37.19
36.01
35.27
35.09
35.39
35.96
36.58
37.04
37.23
37.16
36.91
36.58
36.19
35.67
34.83
33.41
31.27
28.39
24.95
21.24
17.55
14.09
10.92
7.98
5.08
2.05
-1.28
-4.93
-8.81
-12.7
-16.31
-19.36
-21.77
-23.67
-25.38
-27.39
-30.15
-33.9
-38.58
-43.71
-48.4
-51.48
-51.84
-48.64
-41.75
-31.76
-19.87
-7.51
4.02
13.82
21.46
26.86
30.12
31.4
30.89
28.96
26.11
22.97
20.07
17.79
16.21
15.21
14.58
14.13
13.78
13.52
13.3
13.0
12.46
11.48
9.98
7.94
5.47
2.72
-0.15
-3.02
-5.78
-8.36
-10.81
-13.24
-15.85
-18.79
-22.09
-25.56
-28.9
-31.8
-34.1
-35.88
-37.47
-39.32
-41.82
-45.2
-49.31
-53.56
-57.0
-58.44
-56.85
-51.57
-42.71
-31.03
-17.87
-4.67
7.3
17.23
24.74
29.8
32.57
33.26
32.23
29.93
26.95
23.96
21.54
20.04
19.5
19.72
20.34
21.08
21.73
22.23
22.6
22.86
22.94
22.69
21.9
20.37
18.06
15.06
11.63
8.09
4.74
1.73
-1.01
-3.76
-6.81
-10.31
-14.18
-18.13
-21.77
-24.85
-27.35
-29.49
-31.66
-34.3
-37.7
-41.95
-46.81
-51.7
-55.73
-57.78
-56.86
-52.32
-44.15
-33.06
-20.28
-7.29
4.63
14.6
22.21
27.49
30.72
32.32
32.72
32.38
31.72
31.11
30.75
30.72
30.95
31.29
31.62
31.86
32.01
32.03
31.98
31.84
31.54
30.96
29.96
28.34
26.01
23.03
19.6
16.11
12.93
10.25
7.98
5.82
3.36
0.33
-3.31
-7.31
-11.27
-14.78
-17.63
-19.84
-21.69
-23.54
-25.77
-28.65
-32.22
-36.18
-39.87
-42.29
-42.34
-39.17
-32.5
-22.72
-10.84
1.86
14.11
24.94
33.77
40.36
44.71
47.0
47.55
46.76
45.12
43.11
41.13
39.43
38.11
37.11
36.27
35.44
34.48
33.4
32.3
31.27
30.35
29.44
28.36
26.89
24.86
22.16
18.86
15.14
11.3
7.64
4.32
1.35
-1.45
-4.34
