39.05
37.3
35.54
34.25
33.7
33.89
34.56
35.3
35.77
35.8
35.42
34.77
33.98
33.08
31.98
30.51
28.47
25.76
22.44
18.71
14.91
11.36
8.31
5.77
3.56
1.34
-1.18
-4.13
-7.39
-10.64
-13.58
-16.04
-18.18
-20.32
-22.93
-26.37
-30.77
-35.9
-41.15
-45.64
-48.3
-48.15
-44.52
-37.32
-27.09
-14.9
-2.07
10.17
20.9
29.62
36.17
40.62
43.09
43.75
42.85
40.74
37.94
35.04
32.62
31.02
30.37
30.49
31.05
31.73
32.24
32.45
32.33
31.84
30.96
29.59
27.62
24.98
21.73
18.03
14.16
10.4
6.91
3.71
0.68
-2.36
-5.56
-8.98
-12.52
-16.01
-19.3
-22.32
-25.1
-27.77
-30.52
-33.55
-37.03
-41.09
-45.72
-50.66
-55.29
-58.66
-59.73
-57.63
-52.06
-43.38
-32.56
-20.83
-9.4
0.84
9.34
15.88
20.38
22.83
23.34
22.2
19.86
16.96
14.17
12.03
10.84
10.66
11.25
12.31
13.58
14.88
16.14
17.32
18.26
18.69
18.27
16.8
14.19
10.7
6.71
2.68
-1.03
-4.28
-7.17
-9.94
-12.91
-16.25
-19.93
-23.68
-27.14
-29.97
-32.1
-33.76
-35.43
-37.73
-41.11
-45.68
-51.06
-56.36
-60.31
-61.6
-59.27
-52.98
-43.19
-31.04
-17.97
-5.36
5.83
15.11
22.33
27.53
30.82
32.34
32.37
31.3
29.66
27.99
26.7
25.97
25.76
25.85
25.98
26.01
25.9
25.74
25.64
25.61
25.47
24.92
23.63
21.39
18.31
14.72
11.01
7.5
4.3
1.29
-1.78
-5.12
-8.88
-12.97
-17.19
-21.31
-25.07
-28.34
-31.11
-33.56
-36.03
-38.94
-42.61
-47.12
-52.1
-56.69
-59.67
-59.81
-56.21
-48.69
-37.84
-24.9
-11.36
1.37
12.36
21.15
27.73
32.33
35.21
36.62
36.8
36.02
34.64
33.1
31.83
31.14
31.12
31.62
32.36
33.0
33.37
33.46
33.39
33.26
33.06
32.59
31.53
29.69
27.04
23.77
20.27
16.9
13.86
11.14
8.56
5.82
2.68
-0.91
-4.86
-8.9
-12.68
-15.93
-18.51
-20.54
-22.36
-24.44
-27.32
-31.38
-36.68
-42.79
-48.78
-53.28
-54.93
-52.67
-46.12
-35.79
-22.9
-9.05
4.17
15.59
24.56
30.94
34.98
37.09
37.68
37.14
35.84
34.12
32.3
30.65
29.35
28.46
27.91
27.58
27.38
27.31
27.45
27.86
28.47
29.02
29.1
28.33
26.48
23.68
20.27
16.75
13.48
10.58
7.93
5.23
2.17
-1.42
-5.52
-9.9
-14.24
-18.17
-21.46
-24.01
-26.02
-27.86
-30.04
-33.05
-37.07
-41.88
-46.78
-50.73
-52.54
-51.3
-46.58
-38.58
-28.07
-16.19
-4.18
6.84
16.03
22.89
27.26
29.24
29.21
27.63
25.07
22.1
19.19
16.71
14.84
13.67
13.18
13.36
14.15
15.47
17.09
18.66
19.72
19.91
19.03
17.16
14.59
11.66
8.59
5.47
2.25
-1.16
-4.79
-8.59
-12.45
-16.27
-19.95
-23.41
-26.56
-29.33
-31.72
-33.88
-36.13
-38.84
-42.23
-46.17
-50.02
-52.75
-53.2
-50.5
-44.36
-35.21
-24.11
-12.38
-1.29
8.25
15.74
21.07
24.33
25.76
25.64
24.31
22.22
19.84
17.66
16.07
15.26
15.18
15.63
16.31
16.93
17.32
17.42
17.24
16.74
15.86
14.5
12.61
10.24
7.48
4.5
1.41
-1.8
-5.23
-8.94
-12.95
-17.12
-21.19
-24.92
-28.14
-30.85
-33.24
-35.59
-38.21
-41.4
-45.27
-49.6
-53.81
-56.9
-57.68
-55.18
-48.94
-39.25
-27.16
-14.09
-1.52
9.42
18.1
24.36
28.37
30.46
31.05
30.53
29.34
27.88
26.54
25.6
25.21
25.33
25.75
26.23
26.51
26.51
26.3
26.05
25.85
25.68
25.35
24.55
23.06
20.8
17.92
14.72
11.43
8.2
5.01
1.78
-1.61
-5.15
-8.77
-12.3
-15.54
-18.36
-20.7
-22.62
-24.37
-26.31
-28.82
-32.1
-35.98
-39.83
-42.63
-43.29
-40.95
-35.31
-26.71
-16.02
-4.41
7.03
17.36
25.98
32.65
37.34
40.23
41.58
41.75
41.12
40.11
39.1
38.33
37.87
37.65
37.44
37.01
36.24
35.12
33.84
32.57
31.43
30.42
29.36
28.03
26.2
23.81
20.9
17.7
14.47
11.41
8.57
5.81
2.9
-0.37
-4.06
-8.02
-11.95
-15.53
-18.51
-20.86
-22.81
-24.73
-27.08
-30.27
-34.47
-39.58
-45.07
-50.04
-53.39
-54.04
-51.24
-44.82
-35.33
-23.88
-11.94
-0.87
8.32
15.17
19.7
22.24
23.22
22.99
21.91
20.27
18.48
16.9
15.84
15.45
15.65
16.21
16.89
17.49
17.93
18.17
18.18
17.76
16.75
14.92
12.2
8.72
4.78
0.81
-2.74
-5.59
-7.74
-9.41
-10.99
-12.85
-15.18
-17.96
-20.99
-23.98
-26.71
-29.14
-31.39
-33.79
-36.7
-40.36
-44.72
-49.27
-53.1
-55.13
-54.33
-50.11
-42.51
-32.24
-20.43
-8.4
2.64
11.87
18.84
23.53
26.22
27.29
27.16
26.28
25.0
23.65
22.51
21.77
21.52
21.75
22.32
23.05
23.79
24.38
24.78
24.97
24.88
24.41
23.4
21.71
19.34
16.43
13.27
10.13
7.21
4.48
1.76
-1.21
-4.65
-8.55
-12.69
-16.76
-20.37
-23.27
-25.38
-26.87
-28.1
-29.58
-31.84
-35.22
-39.75
-44.89
-49.71
-52.92
-53.37
-50.29
-43.62
-34.01
-22.63
-10.84
0.15
9.52
16.88
22.22
25.71
27.64
28.34
28.17
27.5
26.72
26.15
25.99
26.29
26.94
27.72
28.29
28.48
28.17
27.49
26.66
25.86
25.16
24.42
23.41
21.87
19.71
17.04
14.13
11.25
8.62
6.25
4.05
1.83
-0.63
-3.49
-6.79
-10.46
-14.28
-17.97
-21.27
-23.98
-26.12
-27.82
-29.38
-31.15
-33.42
-36.27
-39.47
-42.36
-44.01
-43.39
-39.72
-32.77
-23.01
-11.46
0.53
11.77
21.39
28.98
34.51
38.13
40.09
40.63
40.1
38.89
37.48
36.31
35.68
35.69
36.25
37.13
38.02
38.75
39.19
39.33
39.18
38.76
38.03
36.9
35.31
33.25
30.76
27.96
24.99
21.95
18.92
15.97
13.13
10.42
7.85
5.37
2.91
0.38
-2.3
-5.14
-8.09
-10.99
-13.75
-16.25
-18.49
-20.63
-22.98
-25.85
-29.53
-34.05
-39.05
-43.86
-47.48
-48.9
-47.42
-42.81
-35.44
-26.12
-15.97
-6.12
2.53
9.38
14.18
16.9
17.75
17.01
15.16
12.72
10.22
8.12
6.71
6.07
6.09
6.58
7.26
7.96
8.56
9.03
9.4
9.66
9.78
9.69
9.24
8.27
6.69
4.48
1.77
-1.19
-4.13
-6.84
-9.2
-11.3
-13.36
-15.63
-18.32
-21.46
-24.89
-28.32
-31.46
-34.14
-36.41
-38.53
-40.87
-43.73
-47.17
-50.9
-54.23
-56.23
-55.94
-52.64
-46.17
-36.95
-25.92
-14.29
-3.25
6.25
13.67
18.8
21.75
22.84
22.47
21.13
19.34
17.54
16.06
15.1
14.73
14.89
15.44
16.23
17.12
18.06
19.02
19.95
20.73
21.15
20.92
19.83
17.78
14.87
11.33
7.52
3.78
0.38
-2.6
-5.22
-7.64
-10.11
-12.83
-15.88
-19.19
-22.53
-25.59
-28.13
-30.04
-31.41
-32.56
-33.93
-35.99
-39.05
-43.01
-47.34
-51.03
-52.89
-51.88
-47.49
-39.87
-29.85
-18.67
-7.54
2.51
10.92
17.46
22.12
25.06
26.48
26.67
26.01
24.96
23.97
23.43
23.6
24.48
25.97
27.81
29.73
31.46
32.89
33.97
34.72
35.11
35.02
34.31
32.79
30.48
27.52
24.21
20.86
17.69
14.83
12.23
9.84
7.57
5.42
3.35
1.31
-0.72
-2.83
-5.0
-7.18
-9.24
-11.05
-12.54
-13.74
-14.85
-16.21
-18.17
-20.96
-24.5
-28.3
-31.53
-33.21
-32.46
-28.78
-22.26
-13.55
-3.68
6.13
14.87
21.81
26.62
29.37
30.34
29.97
28.64
26.74
24.56
22.41
20.52
19.11
18.27
18.05
18.31
18.85
19.45
19.89
20.01
19.75
19.09
18.09
16.8
15.24
13.41
11.32
8.94
6.26
3.31
0.17
-3.06
-6.24
-9.24
-11.93
-14.21
-16.09
-17.66
-19.12
-20.66
-22.44
-24.45
-26.6
-28.72
-30.67
-32.43
-34.11
-35.86
-37.88
-40.36
-43.31
-46.54
-49.54
-51.54
-51.65
-49.09
-43.48
-35.07
-24.67
-13.41
-2.5
7.15
14.93
20.66
24.38
26.31
26.69
25.91
24.39
22.59
20.91
19.61
18.81
18.48
18.51
18.77
19.16
19.61
20.07
20.49
20.76
20.72
20.2
19.01
17.07
14.45
11.36
8.09
4.97
2.21
-0.12
-2.08
-3.88
-5.69
-7.7
-9.99
-12.56
-15.29
-18.0
-20.51
-22.7
-24.56
-26.26
-28.05
-30.29
-33.27
-37.06
-41.37
-45.53
-48.5
-49.26
-46.96
-41.37
-32.92
-22.63
-11.79
-1.6
7.06
13.78
18.51
21.41
22.71
22.63
21.43
19.44
17.08
14.79
12.95
11.81
11.43
11.68
12.38
13.33
14.38
15.46
16.5
17.43
18.12
18.34
17.9
16.6
14.47
11.69
8.6
5.56
2.81
0.37
-1.95
-4.44
-7.35
-10.77
-14.61
-18.63
-22.55
-26.1
-29.13
-31.62
-33.73
-35.79
-38.26
-41.54
-45.83
-50.86
-55.93
-59.9
-61.58
-59.99
-54.75
-46.12
-35.0
-22.67
-10.43
0.57
9.66
16.55
21.34
24.28
25.71
25.96
25.36
24.28
23.14
22.31
22.06
22.41
23.25
24.31
25.39
26.41
27.43
28.54
29.7
30.75
31.38
31.27
30.22
28.18
25.3
21.88
18.25
14.72
11.47
8.55
5.81
3.08
0.17
-3.03
-6.51
-10.15
-13.8
-17.24
-20.36
-23.12
-25.63
-28.16
-31.05
-34.66
-39.08
-43.97
-48.48
-51.39
-51.52
-48.01
-40.7
-30.15
-17.44
-3.93
9.14
20.82
30.52
38.02
43.34
46.63
48.2
48.44
47.82
46.76
45.67
44.88
44.53
44.67
45.15
45.78
46.32
46.62
46.61
46.33
45.88
45.27
44.46
43.27
41.48
38.95
35.68
31.85
27.83
23.99
20.6
17.72
15.21
12.72
9.94
6.68
2.95
-1.0
-4.88
-8.45
-11.64
-14.54
-17.43
-20.58
-24.24
-28.52
-33.35
-38.4
-43.08
-46.58
-48.02
-46.64
-42.03
-34.32
-24.17
-12.66
-1.09
9.38
17.92
24.08
27.85
29.48
29.37
27.93
25.62
22.9
20.27
18.18
16.96
16.7
17.23
18.17
19.1
19.68
19.77
19.4
18.69
17.69
16.34
14.55
12.27
9.57
6.66
3.77
1.06
-1.48
-4.01
-6.75
-9.87
-13.36
-17.06
-20.63
-23.76
-26.21
-27.95
-29.14
-30.14
-31.42
-33.4
-36.28
-39.91
-43.71
-46.77
-48.01
-46.52
-41.85
-34.18
-24.33
-13.49
-2.91
6.34
13.58
18.54
21.28
22.09
21.4
19.68
17.47
15.28
13.59
12.71
12.76
13.6
14.86
16.18
17.21
17.83
18.05
17.99
17.76
17.29
16.47
15.1
13.16
10.78
8.21
5.67
3.3
1.03
-1.32
-3.94
-6.91
-10.15
-13.45
-16.58
-19.36
-21.71
-23.74
-25.71
-27.95
-30.82
-34.5
-38.84
-43.29
-46.89
-48.56
-47.42
-43.1
-35.85
-26.51
-16.2
-6.04
3.08
10.63
16.36
20.28
22.5
23.27
22.89
21.76
20.34
19.05
18.21
17.91
18.07
18.44
18.76
18.87
18.74
18.46
18.15
17.87
17.57
17.13
16.36
15.13
13.37
11.1
8.44
5.53
2.51
-0.52
-3.48
-6.35
-9.12
-11.74
-14.19
-16.4
-18.36
-20.09
-21.69
-23.37
-25.38
-28.0
-31.3
-35.13
-38.93
-41.85
-42.92
-41.38
-36.89
-29.75
-20.73
-10.92
-1.38
7.08
14.03
19.36
23.18
25.74
27.33
28.27
28.83
29.29
29.85
30.63
31.62
32.7
33.71
34.5
34.93
34.97
34.65
34.07
33.35
32.53
31.58
30.37
28.75
26.61
24.03
21.22
18.52
16.18
14.28
12.64
10.88
8.65
5.74
2.25
-1.49
-5.05
-8.09
-10.52
-12.45
-14.2
-16.13
-18.59
-21.7
-25.39
-29.2
-32.46
-34.28
-33.91
-30.86
-25.18
-17.4
-8.43
0.72
9.18
16.34
21.86
25.65
27.81
28.53
28.13
26.97
25.44
23.94
22.77
22.12
22.02
22.34
22.9
23.45
23.81
23.86
23.51
22.72
21.35
19.25
16.28
12.45
7.94
3.11
-1.67
-6.11
-10.12
-13.84
-17.51
-21.34
-25.36
-29.41
-33.19
-36.42
-38.91
-40.69
-41.94
-42.97
-44.13
-45.72
-47.92
-50.65
-53.48
-55.65
-56.2
-54.25
-49.38
-41.8
-32.33
-22.17
-12.47
-4.07
2.65
7.7
11.27
13.59
14.84
15.21
14.9
14.21
13.51
13.06
13.05
13.48
14.23
15.05
15.73
16.1
16.1
15.81
15.31
14.67
13.82
12.62
10.93
8.72
6.14
3.49
1.12
-0.81
-2.29
-3.61
-5.06
-6.86
-9.03
-11.42
-13.8
-15.95
-17.81
-19.47
-21.2
-23.33
-26.19
-29.91
-34.28
-38.74
-42.36
-44.15
-43.29
-39.42
-32.77
-24.04
-14.31
-4.61
4.14
11.4
16.93
20.76
23.1
24.25
24.51
24.2
23.66
23.18
23.0
23.2
23.7
24.29
24.69
24.73
24.43
23.99
23.64
23.54
23.64
23.66
23.22
22.03
19.97
17.17
13.97
10.72
7.66
4.91
2.35
-0.24
-3.04
-6.24
-9.86
-13.75
-17.71
-21.5
-24.96
-28.06
-30.92
-33.81
-37.05
-40.91
-45.38
-50.07
-54.21
-56.78
-56.8
-53.64
-47.25
-38.16
-27.41
-16.17
-5.52
3.78
11.4
17.32
21.71
24.88
27.11
28.72
29.98
31.19
32.55
34.17
36.04
38.04
40.03
41.88
43.49
44.77
45.63
45.95
45.59
44.51
42.77
40.5
37.86
34.99
31.95
28.77
25.43
22.03
18.63
15.3
12.04
8.7
5.1
1.09
-3.3
-7.95
-12.57
-16.92
-20.82
-24.24
-27.27
-30.11
-33.04
-36.33
-40.23
-44.77
-49.75
-54.63
-58.65
-60.99
-60.98
-58.38
-53.4
-46.71
-39.18
-31.69
-24.89
-19.17
-14.61
-11.14
-8.6
-6.81
-5.62
-4.87
-4.35
-3.86
-3.2
-2.24
-0.91
0.78
2.73
4.81
6.82
8.58
9.94
10.8
11.07
10.73
9.79
8.34
6.53
4.64
2.95
1.67
0.85
0.31
-0.3
-1.31
-2.9
-5.02
-7.43
-9.78
-11.77
-13.16
-13.85
-13.9
-13.5
-13.01
-12.87
-13.55
-15.29
-17.98
-21.05
-23.56
-24.44
-22.81
-18.25
-10.89
-1.48
8.88
18.88
27.31
33.37
36.8
37.87
37.3
35.98
34.59
33.55
32.92
32.64
32.64
32.93
33.61
34.73
36.2
37.8
39.23
40.19
40.49
40.03
38.8
36.85
34.25
31.12
27.62
23.96
20.38
17.12
14.4
12.27
10.64
9.22
7.7
5.83
3.6
1.21
-1.01
-2.76
-3.89
-4.55
-5.11
-6.0
-7.6
-10.08
-13.41
-17.34
-21.45
-25.13
-27.61
-28.15
-26.19
-21.66
-15.0
-7.17
0.72
7.67
13.1
16.82
18.97
19.77
19.39
17.99
15.79
13.18
10.63
8.58
7.3
6.78
6.82
7.14
7.57
8.07
8.78
9.79
11.1
12.55
13.83
14.61
14.62
13.75
12.08
9.81
7.18
4.39
1.56
-1.29
-4.22
-7.34
-10.74
-14.48
-18.58
-22.98
-27.6
-32.26
-36.81
-41.11
-45.1
-48.83
-52.4
-55.92
-59.41
-62.72
-65.5
-67.2
-67.2
-64.93
-60.07
-52.69
-43.31
-32.76
-22.04
-12.13
-3.74
2.66
6.97
9.39
10.34
10.4
10.24
10.43
11.41
13.37
16.31
20.06
24.36
28.94
33.52
37.79
41.46
44.3
46.24
47.32
47.74
47.77
47.64
47.49
47.29
46.89
46.01
44.44
42.06
38.88
35.02
30.64
25.9
20.91
15.74
10.44
5.07
-0.23
-5.32
-10.03
-14.24
-17.91
-21.11
-23.99
-26.81
-29.84
-33.39
-37.61
-42.33
-47.03
-50.76
-52.4
-50.96
-45.97
-37.74
-27.3
-16.13
-5.6
3.27
10.07
14.8
17.65
18.83
18.45
16.66
13.79
10.41
7.25
5.0
4.07
4.54
6.19
8.67
11.68
15.0
18.51
22.11
25.64
28.89
31.63
33.72
35.07
35.67
35.59
34.95
33.98
33.0
32.3
32.07
32.32
32.82
33.24
33.25
32.71
31.66
30.27
28.7
27.07
25.44
23.83
22.3
20.9
19.62
18.42
17.33
16.5
16.3
17.23
19.69
23.74
28.99
34.62
39.67
43.32
45.11
45.07
43.55
41.09
38.19
35.25
32.48
29.97
27.81
26.08
24.9
24.33
24.35
24.81
25.41
25.86
25.87
25.37
24.34
22.86
20.93
18.5
15.51
11.9
7.79
3.35
-1.14
-5.43
-9.43
-13.21
-16.97
-20.92
-25.13
-29.48
-33.72
-37.59
-40.94
-43.89
-46.73
-49.89
-53.69
-58.19
-63.01
-67.4
-70.35
-70.83
-68.21
-62.4
-54.01
-44.15
-34.15
-25.14
-17.85
-12.51
-8.99
-6.98
-6.14
-6.25
-7.11
-8.48
-10.04
-11.38
-12.11
-12.0
-11.1
-9.65
-8.01
-6.52
-5.35
-4.47
-3.83
-3.38
-3.16
-3.33
-4.01
-5.33
-7.26
-9.65
-12.23
-14.73
-16.97
-18.95
-20.83
-22.86
-25.27
-28.15
-31.38
-34.71
-37.83
-40.55
-42.85
-44.94
-47.09
-49.65
-52.89
-56.91
-61.51
-66.16
-69.97
-71.83
-70.79
-66.27
-58.41
-47.94
-36.12
-24.33
-13.72
-5.02
1.58
6.23
9.32
11.24
12.34
12.85
12.99
13.02
13.21
13.87
15.16
17.1
19.47
21.94
24.19
26.02
27.46
28.66
29.8
30.9
31.85
32.31
31.98
30.64
28.38
25.46
22.29
19.2
16.4
13.9
11.57
9.28
6.89
4.39
1.82
-0.72
-3.12
-5.33
-7.34
-9.22
-11.15
-13.37
-16.17
-19.8
-24.28
-29.33
-34.27
-38.15
-39.98
-39.0
-35.03
-28.57
-20.63
-12.44
-5.05
0.86
5.13
7.99
9.89
11.29
12.55
13.96
15.62
17.57
19.75
22.03
24.15
25.88
26.95
27.16
26.42
24.8
22.55
19.99
17.47
15.2
13.28
11.67
10.33
9.29
8.65
8.59
9.1
9.94
10.57
10.34
8.72
5.57
1.24
-3.63
-8.32
-12.32
-15.49
-18.03
-20.3
-22.72
-25.62
-29.15
-33.27
-37.65
-41.64
-44.31
-44.7
-42.04
-36.13
-27.45
-17.03
-6.22
3.72
11.94
18.0
21.84
23.62
23.55
21.9
19.02
15.44
11.77
8.64
6.53
5.65
5.94
7.16
8.91
10.84
12.62
14.0
14.81
14.92
14.31
13.03
11.24
9.11
6.8
4.41
1.89
-0.8
-3.78
-7.06
-10.57
-14.21
-17.76
-21.07
-24.06
-26.79
-29.47
-32.41
-35.95
-40.25
-45.22
-50.4
-54.91
-57.71
-57.75
-54.31
-47.27
-37.19
-25.23
-12.82
-1.38
8.04
14.85
18.98
20.69
20.44
18.8
16.38
13.79
11.65
10.4
10.32
11.41
13.4
15.93
18.63
21.23
23.6
25.72
27.59
29.17
30.4
31.15
31.29
30.73
29.44
27.52
25.18
22.62
19.97
17.18
14.06
10.38
6.02
1.09
-4.1
-9.13
-13.71
-17.77
-21.54
-25.43
-29.95
-35.4
-41.78
-48.59
-54.86
-59.36
-60.86
-58.56
-52.33
-42.8
-31.2
-19.03
-7.7
1.77
8.87
13.6
16.27
17.41
17.57
17.26
16.85
16.62
16.76
17.35
18.47
20.07
22.01
24.1
26.14
28.0
29.63
31.03
32.12
32.71
32.53
31.36
29.1
25.88
22.06
18.03
14.22
10.84
7.94
5.36
2.85
0.11
-3.01
-6.48
-10.1
-13.57
-16.61
-19.09
-21.14
-23.16
-25.69
-29.24
-34.1
-40.1
-46.47
-52.0
-55.15
-54.58
-49.45
-39.74
-26.24
-10.41
6.07
21.65
35.14
45.88
53.65
58.53
60.76
60.63
58.48
54.75
49.96
44.78
39.87
35.86
33.16
31.95
32.18
33.57
35.76
38.32
40.82
42.94
44.45
45.25
45.33
44.76
43.59
41.74
39.06
35.24
30.08
23.58
15.97
7.75
-0.57
-8.49
-15.66
-21.79
-26.66
-30.01
-31.78
-32.12
-31.47
-30.5
-29.91
-30.22
-31.7
-34.46
-38.31
-42.76
-46.93
-49.63
-49.56
-45.78
-38.07
-27.07
-14.19
-1.06
10.85
20.58
27.72
32.23
34.27
34.14
32.25
29.2
25.77
22.72
20.65
19.85
20.2
21.3
22.68
23.9
24.74
25.17
25.22
24.92
24.19
22.87
20.74
17.65
13.61
8.84
3.7
-1.4
-6.17
-10.47
-14.4
-18.23
-22.19
-26.39
-30.68
-34.72
-38.14
-40.7
-42.47
-43.83
-45.32
-47.45
-50.52
-54.47
-58.85
-62.8
-65.23
-64.99
-61.18
-53.47
-42.29
-28.76
-14.45
-0.94
10.59
19.49
25.65
29.27
30.71
30.34
28.57
25.93
23.04
20.55
18.99
18.55
19.15
20.38
21.78
22.94
23.72
24.15
24.35
24.33
23.92
22.76
20.5
16.99
12.4
7.19
1.97
-2.76
-6.75
-10.1
-13.07
-15.98
-19.08
-22.43
-25.95
-29.46
-32.73
-35.55
-37.85
-39.8
-41.82
-44.55
-48.53
-53.87
-59.97
-65.54
-68.87
-68.41
-63.35
-53.88
-41.22
-27.09
-13.25
-1.03
8.83
16.17
21.13
24.03
25.24
25.15
24.25
23.06
22.05
21.59
21.81
22.59
23.67
24.69
25.38
25.64
25.5
25.15
24.75
24.35
23.86
23.1
21.85
19.93
17.36
14.27
10.93
7.63
4.65
2.04
-0.26
-2.54
-5.14
-8.24
-11.87
-15.82
-19.76
-23.37
-26.49
-29.15
-31.57
-34.07
-37.02
-40.7
-45.2
-50.21
-54.99
-58.35
-58.94
-55.73
-48.33
-37.26
-23.85
-9.81
3.32
14.4
22.97
29.09
33.1
35.41
36.39
36.33
35.57
34.44
33.32
32.52
32.24
32.52
33.23
34.12
34.94
35.49
35.66
35.39
34.64
33.35
31.42
28.76
25.37
21.32
16.81
12.09
7.43
3.06
-0.89
-4.34
-7.32
-9.91
-12.27
-14.54
-16.79
-18.99
-20.99
-22.62
-23.79
-24.51
-24.94
-25.39
-26.21
-27.7
-30.02
-33.07
-36.43
-39.27
-40.44
-38.72
-33.19
-23.57
-10.37
5.15
21.31
36.49
49.52
59.84
67.46
72.75
76.17
78.17
79.05
79.19
79.06
79.17
80.01
81.87
84.68
88.05
91.4
94.2
96.12
97.05
97.07
96.28
94.67
92.06
88.19
82.88
76.13
68.28
59.86
51.52
43.79
36.86
30.57
24.49
18.15
11.22
3.67
-4.23
-12.1
-19.59
-26.58
-33.21
-39.79
-46.66
-54.05
-61.84
-69.57
-76.41
-81.3
-83.19
-81.27
-75.25
-65.52
-53.1
-39.42
-26.04
-14.34
-5.21
0.91
4.11
4.84
3.7
1.35
-1.56
-4.46
-6.9
-8.49
-9.06
-8.57
-7.17
-5.15
-2.83
-0.49
1.62
3.34
4.55
5.08
4.73
3.35
0.85
-2.64
-6.82
-11.31
-15.77
-19.98
-23.93
-27.73
-31.53
-35.4
-39.28
-42.95
-46.21
-48.96
-51.28
-53.51
-56.11
-59.56
-64.15
-69.74
-75.56
-80.37
-82.66
-81.11
-74.98
-64.42
-50.46
-34.79
-19.23
-5.35
5.85
14.06
19.42
22.37
23.38
22.91
21.37
19.28
17.21
15.69
15.12
15.57
16.82
18.47
20.13
21.62
22.89
24.01
24.93
25.5
25.42
24.39
22.31
19.36
15.9
12.35
9.07
6.2
3.67
1.24
-1.34
-4.19
-7.28
-10.4
-13.28
-15.69
-17.51
-18.77
-19.69
-20.65
-22.06
-24.35
-27.64
-31.63
-35.42
-37.67
-36.95
-32.22
-23.25
-10.74
3.81
18.63
32.12
43.23
51.54
57.15
60.43
61.8
61.69
60.49
58.65
56.59
54.73
53.31
52.44
51.99
51.72
51.33
50.61
49.46
47.93
46.09
43.97
41.53
38.56
34.8
30.05
24.25
17.67
10.79
4.15
-1.87
-7.13
-11.79
-16.14
-20.41
-24.64
-28.74
-32.49
-35.8
-38.75
-41.55
-44.56
-48.16
-52.7
-58.32
-64.9
-71.82
-77.97
-81.9
-82.18
-77.83
-68.74
-55.75
-40.46
-24.77
-10.42
1.41
10.23
16.16
19.66
21.3
21.64
21.1
20.09
18.99
18.14
17.77
17.93
18.46
19.07
19.45
19.41
18.95
18.19
17.25
16.07
14.45
12.1
8.84
4.72
0.09
-4.6
-8.95
-12.78
-16.22
-19.54
-22.96
-26.52
-30.06
-33.31
-36.02
-38.14
-39.83
-41.42
-43.35
-46.02
-49.7
-54.37
-59.67
-64.75
-68.44
-69.41
-66.59
-59.56
-48.75
-35.39
-21.14
-7.62
3.97
13.09
19.72
24.12
26.62
27.46
26.9
25.28
23.09
20.91
19.3
18.64
19.01
20.24
22.01
23.86
25.42
26.4
26.6
25.98
24.58
22.53
20.01
17.19
14.2
11.1
7.89
4.47
0.8
-3.14
-7.23
-11.3
-15.12
-18.53
-21.46
-24.04
-26.54
-29.35
-32.82
-37.05
-41.74
-46.09
-48.93
-48.95
-45.15
-37.26
-25.86
-12.29
1.79
14.81
25.7
33.97
39.61
42.9
44.15
43.73
42.04
39.56
36.85
34.43
32.72
31.85
31.78
32.3
33.15
34.09
34.93
35.52
35.71
35.38
34.46
32.92
30.82
28.28
25.41
22.3
19.0
15.5
11.75
7.75
3.6
-0.56
-4.49
-8.03
-11.09
-13.73
-16.18
-18.8
-22.0
-26.11
-31.17
-36.82
-42.17
-45.95
-46.78
-43.69
-36.42
-25.65
-12.79
0.39
12.3
21.88
28.75
33.07
35.32
36.01
35.56
34.31
32.52
30.52
28.61
27.11
26.18
25.81
25.81
25.88
25.82
25.54
25.1
24.69
24.44
24.36
24.32
24.12
23.57
22.66
21.51
20.32
19.25
18.33
17.35
16.03
14.1
11.49
8.38
5.17
2.33
0.22
-1.1
-1.88
-2.67
-4.14
-7.0
-11.64
-18.0
-25.33
-32.32
-37.28
-38.77
-35.98
-29.15
-19.49
-8.68
1.65
10.54
17.8
23.91
29.53
35.16
40.88
46.37
51.14
54.72
56.71
56.87
55.09
51.45
46.32
40.34
34.39
29.39
26.0
24.36
24.03
24.16
23.81
22.3
19.38
15.26
10.4
5.29
0.22
-4.73
-9.65
-14.7
-20.03
-25.62
-31.37
-37.03
-42.27
-46.73
-50.16
-52.49
-53.92
-54.89
-55.98
-57.75
-60.47
-64.0
-67.72
-70.58
-71.4
-69.16
-63.36
-54.24
-42.74
-30.31
-18.39
-8.15
-0.19
5.39
8.86
10.64
11.11
10.64
9.6
8.41
7.53
7.32
7.93
9.22
10.86
12.45
13.73
14.65
15.35
16.05
16.83
17.57
17.94
17.55
16.12
13.67
10.47
6.95
3.5
0.34
-2.52
-5.22
-7.89
-10.57
-13.14
-15.45
-17.36
-18.83
-19.98
-21.0
-22.16
-23.77
-26.04
-29.11
-32.83
-36.75
-40.04
-41.72
-40.82
-36.83
-29.88
-20.79
-10.79
-1.17
7.12
13.64
18.4
21.66
23.66
24.56
24.48
23.57
22.11
20.48
19.03
18.03
17.53
17.47
17.68
18.0
18.31
18.55
18.71
18.75
18.61
18.13
17.15
15.48
13.12
10.19
7.02
3.97
1.33
-0.83
-2.65
-4.44
-6.5
-8.95
-11.76
-14.72
-17.57
-20.13
-22.36
-24.33
-26.23
-28.28
-30.7
-33.68
-37.29
-41.38
-45.47
-48.79
-50.4
-49.4
-45.32
-38.24
-28.86
-18.36
-8.0
1.12
8.39
13.63
17.06
19.04
19.94
20.09
19.81
19.39
19.15
19.38
20.22
21.64
23.39
25.15
26.65
27.73
28.39
28.72
28.81
28.7
28.32
27.53
26.26
24.47
22.25
19.77
17.22
14.75
12.45
10.37
8.52
6.85
5.26
3.63
1.85
-0.14
-2.35
-4.74
-7.25
-9.83
-12.41
-14.96
-17.46
-19.94
-22.56
-25.6
-29.26
-33.56
-38.1
-42.12
-44.64
-44.75
-41.94
-36.24
-28.25
-18.86
-9.12
0.01
7.83
13.88
18.07
20.49
21.47
21.38
20.6
19.5
18.39
17.54
17.19
17.47
18.33
19.56
20.77
21.65
21.97
21.72
21.06
20.19
19.28
18.37
17.39
16.24
14.81
13.04
10.94
8.59
6.07
3.53
1.07
-1.29
-3.59
-5.94
-8.46
-11.21
-14.15
-17.2
-20.24
-23.2
-26.04
-28.73
-31.24
-33.63
-35.99
-38.5
-41.33
-44.47
-47.57
-49.95
-50.72
-49.09
-44.67
-37.63
-28.71
-19.02
-9.67
-1.54
4.9
9.57
12.61
14.25
14.73
14.25
13.04
11.44
9.91
8.84
8.52
8.99
10.09
11.53
13.03
14.37
15.51
16.46
17.21
17.73
17.94
17.69
16.86
15.4
13.4
11.04
8.63
6.36
4.36
2.57
0.83
-1.04
-3.17
-5.56
-8.14
-10.83
-13.57
-16.32
-19.07
-21.76
-24.36
-26.92
-29.62
-32.74
-36.52
-41.0
-45.84
-50.27
-53.27
-53.82
-51.23
-45.38
-36.81
-26.58
-15.91
-5.97
2.47
9.04
13.78
16.93
18.86
19.9
20.34
20.42
20.33
20.27
20.35
20.66
21.2
21.93
22.83
23.87
25.04
26.24
27.37
28.22
28.62
28.43
27.6
26.18
24.28
22.04
19.59
17.04
14.51
12.08
9.77
7.51
5.15
2.53
-0.42
-3.65
-7.01
-10.28
-13.24
-15.77
-17.85
-19.62
-21.34
-23.29
-25.8
-29.08
-33.15
-37.68
-42.01
-45.12
-45.99
-43.79
-38.23
-29.7
-19.18
-7.92
2.81
12.1
19.48
24.89
28.48
30.57
31.45
31.41
30.78
29.87
29.0
28.41
28.2
28.34
28.74
29.29
29.89
30.52
31.11
31.58
31.79
31.62
30.93
29.67
27.82
25.43
22.59
19.48
16.32
13.32
10.66
8.31
6.11
3.79
1.16
-1.82
-4.98
-7.96
-10.49
-12.4
-13.83
-15.07
-16.49
-18.44
-21.16
-24.75
-29.1
-33.84
-38.28
-41.46
-42.35
-40.15
-34.6
-26.13
-15.74
-4.75
5.61
14.45
21.27
25.94
28.56
29.31
28.48
26.44
23.66
20.65
17.9
15.8
14.54
14.13
14.42
15.19
16.17
17.12
17.85
18.19
17.96
17.09
15.55
13.42
10.9
8.19
5.42
2.67
-0.11
-3.04
-6.18
-9.52
-12.94
-16.2
-19.08
-21.47
-23.38
-25.0
-26.64
-28.67
-31.39
-34.92
-39.05
-43.16
-46.3
-47.41
-45.54
-40.27
-31.84
-21.18
-9.63
1.4
10.81
18.01
22.84
25.51
26.36
25.79
24.15
21.84
19.28
16.9
15.09
14.09
13.96
14.63
15.9
17.51
19.21
20.74
21.82
22.21
21.72
20.28
17.95
14.97
11.64
8.24
4.99
1.95
-0.95
-3.81
-6.7
-9.65
-12.6
-15.43
-18.11
-20.65
-23.17
-25.85
-28.93
-32.6
-36.89
-41.55
-45.94
-49.11
-49.98
-47.71
-41.96
-33.09
-22.08
-10.25
1.04
10.72
18.15
23.15
25.9
26.8
26.4
25.24
23.84
22.64
21.91
21.75
22.13
22.88
23.79
24.67
25.4
25.93
26.28
26.4
26.19
25.5
24.23
22.31
19.88
17.12
14.21
11.37
8.69
6.21
3.84
1.43
-1.18
-4.04
-7.08
-10.12
-12.91
-15.3
-17.34
-19.33
-21.66
-24.72
-28.59
-32.99
-37.22
-40.27
-41.13
-38.97
-33.51
-25.08
-14.64
-3.46
7.14
16.12
22.94
27.5
30.08
31.16
31.18
30.53
29.52
28.42
27.49
26.94
26.87
27.22
27.8
28.34
28.62
28.57
28.33
28.09
28.01
28.01
27.84
27.16
25.69
23.41
20.48
17.23
13.96
10.82
7.8
4.8
1.7
-1.52
-4.79
-7.96
-10.9
-13.47
-15.6
-17.29
-18.65
-19.94
-21.5
-23.7
-26.76
-30.6
-34.73
-38.3
-40.31
-39.86
-36.46
-30.21
-21.82
-12.4
-3.13
5.0
11.4
15.89
18.62
19.88
20.0
19.29
18.1
16.73
15.53
14.75
14.46
14.61
15.0
15.36
15.49
15.29
14.81
14.17
13.49
12.81
12.07
11.11
9.84
8.25
6.48
4.68
3.01
1.48
-0.03
-1.72
-3.78
-6.27
-9.05
-11.91
-14.59
-16.9
-18.84
-20.58
-22.4
-24.6
-27.34
-30.53
-33.8
-36.52
-37.96
-37.41
-34.47
-29.08
-21.63
-12.91
-3.89
4.41
11.25
16.2
19.2
20.49
20.43
19.46
17.94
16.21
14.51
13.07
12.04
11.51
11.44
11.74
12.24
12.79
13.28
13.63
13.78
13.62
13.0
11.79
9.9
7.38
4.43
1.36
-1.54
-4.04
-6.14
-7.97
-9.72
-11.57
-13.55
-15.57
-17.47
-19.13
-20.53
-21.79
-23.1
-24.73
-26.91
-29.77
-33.21
-36.79
-39.79
-41.25
-40.32
-36.52
-29.99
-21.47
-12.06
-2.93
5.06
11.36
15.87
18.69
20.07
20.26
19.57
18.33
16.91
15.66
14.8
14.44
14.5
14.77
15.05
15.15
15.09
14.97
14.99
15.24
15.64
15.89
15.63
14.58
12.73
10.31
7.72
5.31
3.3
1.64
0.17
-1.34
-3.01
-4.84
-6.77
-8.68
-10.43
-11.96
-13.22
-14.29
-15.36
-16.66
-18.5
-20.99
-24.04
-27.16
-29.62
-30.51
-29.11
-25.07
-18.57
-10.3
-1.28
7.4
14.89
20.67
24.63
26.91
27.79
27.6
26.6
25.06
23.26
21.48
19.98
19.0
18.64
18.82
19.34
19.9
20.26
20.25
19.84
19.03
17.87
16.36
14.42
12.0
9.11
5.88
2.63
-0.32
-2.68
-4.37
-5.53
-6.46
-7.53
-9.04
-11.03
-13.37
-15.77
-17.95
-19.78
-21.3
-22.77
-24.52
-26.86
-29.9
-33.45
-36.99
-39.74
-40.83
-39.6
-35.8
-29.67
-21.93
-13.48
-5.24
2.08
8.09
12.69
15.91
17.85
18.65
18.45
17.5
16.11
14.63
13.39
12.63
12.41
12.66
13.26
14.02
14.79
15.42
15.75
15.62
14.92
13.59
11.66
9.28
6.64
4.0
1.57
-0.58
-2.48
-4.25
-6.11
-8.14
-10.3
-12.42
-14.26
-15.68
-16.73
-17.64
-18.72
-20.33
-22.68
-25.79
-29.41
-32.98
-35.71
-36.76
-35.41
-31.31
-24.66
-16.13
-6.75
2.35
10.28
16.51
20.88
23.54
24.75
24.87
24.17
22.94
21.42
19.86
18.47
17.43
16.82
16.65
16.86
17.35
18.06
18.84
19.54
19.94
19.76
18.78
16.9
14.22
10.98
7.57
4.29
1.35
-1.24
-3.61
-5.92
-8.31
-10.85
-13.5
-16.14
-18.65
-20.97
-23.1
-25.23
-27.63
-30.62
-34.36
-38.7
-43.11
-46.62
-48.21
-46.96
-42.51
-35.15
-25.77
-15.59
-5.85
2.55
9.14
13.85
16.92
18.69
19.51
19.72
19.62
19.48
19.55
19.97
20.75
21.83
23.02
24.13
25.02
25.62
25.97
26.12
26.12
25.89
25.28
24.09
22.21
19.67
16.7
13.67
10.91
8.6
6.69
4.93
3.0
0.71
-1.93
-4.75
-7.44
-9.73
-11.5
-12.86
-14.08
-15.52
-17.57
-20.43
-24.14
-28.41
-32.64
-35.96
-37.48
-36.43
-32.42
-25.69
-16.92
-7.24
2.23
10.55
17.2
22.09
25.42
27.54
28.73
29.24
29.23
28.84
28.24
27.61
27.1
26.75
26.49
26.2
25.76
25.13
24.36
23.52
22.59
21.5
20.07
18.14
15.66
12.78
9.74
6.85
4.3
2.12
0.11
-2.01
-4.45
-7.3
-10.36
-13.35
-15.96
-18.06
-19.76
-21.33
-23.19
-25.64
-28.84
-32.7
-36.9
-40.88
-43.9
-45.17
-43.99
-40.02
-33.37
-24.73
-15.19
-5.97
1.9
7.85
11.77
13.94
14.8
14.75
14.11
13.11
11.97
10.95
10.34
10.31
10.91
11.99
13.32
14.65
15.84
16.81
17.52
17.92
17.87
17.22
15.87
13.86
11.37
8.7
6.12
3.72
1.45
-0.83
-3.25
-5.78
-8.22
-10.34
-11.97
-13.14
-14.14
-15.36
-17.18
-19.82
-23.21
-27.04
-30.75
-33.64
-34.95
-34.09
-30.69
-24.92
-17.37
-9.01
-0.95
5.96
11.22
14.81
17.0
18.23
18.82
18.92
18.64
18.07
17.32
16.62
16.17
16.05
16.22
16.5
16.72
16.83
16.84
16.79
16.64
16.25
15.42
13.99
11.97
9.52
6.95
4.53
2.43
0.65
-0.96
-2.62
-4.54
-6.79
-9.27
-11.82
-14.17
-16.16
-17.73
-18.97
-20.14
-21.57
-23.56
-26.22
-29.39
-32.56
-34.97
-35.8
-34.37
-30.41
-24.21
-16.51
-8.31
-0.58
5.97
11.0
14.54
16.84
18.26
19.13
19.68
20.05
20.3
20.5
20.67
20.89
21.16
21.44
21.65
21.68
21.49
21.12
20.72
20.45
20.32
20.24
19.93
19.13
17.67
15.63
13.26
10.95
8.99
7.44
6.14
4.82
3.18
1.1
-1.35
-3.89
-6.18
-7.92
-9.03
-9.67
-10.17
-10.95
-12.36
-14.57
-17.47
-20.73
-23.82
-26.07
-26.82
-25.61
-22.25
-16.95
-10.28
-3.09
3.78
9.57
13.89
16.67
18.11
18.6
18.54
18.27
17.97
17.7
17.41
17.1
16.79
16.58
16.57
16.81
17.19
17.54
17.69
17.51
17.03
16.29
15.36
14.26
12.92
11.29
9.35
7.17
4.93
2.9
1.25
0.06
-0.76
-1.44
-2.24
-3.37
-4.86
-6.64
-8.5
-10.28
-11.87
-13.28
-14.53
-15.72
-16.94
-18.37
-20.22
-22.6
-25.44
-28.39
-30.8
-31.88
-31.0
-27.87
-22.71
-16.19
-9.16
-2.49
3.22
7.63
10.69
12.48
13.19
12.98
12.12
10.89
9.62
8.62
8.04
7.91
8.1
8.41
8.71
8.91
9.08
9.25
9.47
9.66
9.66
9.32
8.52
7.24
5.51
3.49
1.29
-0.93
-3.09
-5.17
-7.17
-9.13
-11.12
-13.13
-15.14
-17.07
-18.84
-20.38
-21.73
-22.97
-24.32
-26.02
-28.29
-31.17
-34.43
-37.48
-39.52
-39.76
-37.7
-33.36
-27.3
-20.45
-13.75
-7.88
-3.16
0.44
3.02
4.7
5.56
5.7
5.3
4.61
3.92
3.42
3.23
3.39
3.85
4.58
5.51
6.56
7.62
8.62
9.44
10.02
10.27
10.08
9.31
7.96
6.09
3.95
1.81
-0.14
-1.86
-3.5
-5.29
-7.4
-9.87
-12.58
-15.33
-17.9
-20.14
-22.08
-23.85
-25.71
-27.95
-30.82
-34.42
-38.54
-42.65
-45.94
-47.51
-46.67
-43.16
-37.26
-29.73
-21.61
-13.81
-7.01
-1.5
2.7
5.72
7.76
9.03
9.79
10.33
10.98
11.99
13.41
15.07
16.68
17.95
18.72
19.08
19.19
19.27
19.42
19.56
19.54
19.17
18.35
17.05
15.32
13.27
11.02
8.75
6.62
4.75
3.14
1.69
0.2
-1.54
-3.65
-6.11
-8.74
-11.35
-13.76
-15.93
-17.93
-19.93
-22.13
-24.7
-27.76
-31.22
-34.84
-38.08
-40.18
-40.34
-37.87
-32.51
-24.57
-14.9
-4.64
5.1
13.51
20.24
25.29
28.89
31.26
32.6
33.04
32.79
32.16
31.53
31.2
31.26
31.65
32.13
32.44
32.39
31.99
31.32
30.54
29.7
28.77
27.64
26.15
24.22
21.86
19.18
16.33
13.49
10.76
8.18
5.68
3.12
0.33
-2.8
-6.25
-9.88
-13.42
-16.57
-19.17
-21.22
-22.92
-24.61
-26.68
-29.45
-32.97
-36.93
-40.62
-43.04
-43.21
-40.45
-34.65
-26.33
-16.54
-6.44
2.9
10.78
16.91
21.29
24.09
25.55
25.9
25.36
24.2
22.67
21.04
19.54
18.32
17.45
16.95
16.84
17.12
17.77
18.69
19.63
20.31
20.41
19.67
18.04
15.65
12.76
9.66
6.61
3.7
0.93
-1.85
-4.74
-7.79
-10.95
-14.03
-16.81
-19.09
-20.89
-22.39
-23.97
-26.06
-28.93
-32.56
-36.49
-39.85
-41.58
-40.77
-36.93
-30.17
-21.15
-10.92
-0.66
8.67
16.36
22.12
25.87
27.76
28.07
27.15
25.44
23.45
21.63
20.36
19.75
19.73
20.05
20.44
20.77
21.06
21.4
21.88
22.42
22.78
22.65
21.75
19.96
17.34
14.09
10.54
7.04
3.81
0.94
-1.71
-4.4
-7.4
-10.8
-14.46
-18.04
-21.12
-23.48
-25.17
-26.55
-28.11
-30.37
-33.55
-37.64
-42.2
-46.46
-49.44
-50.09
-47.59
-41.69
-32.78
-21.81
-10.11
1.03
10.62
18.1
23.4
26.71
28.36
28.73
28.23
27.24
26.15
25.32
25.01
25.33
26.14
27.19
28.14
28.8
29.15
29.34
29.54
29.78
29.91
29.58
28.5
26.53
23.81
20.7
17.6
14.8
12.37
10.17
7.97
5.55
2.78
-0.27
-3.4
-6.35
-8.9
-11.02
-12.82
-14.57
-16.62
-19.27
-22.72
-26.9
-31.5
-35.88
-39.09
-40.05
-37.89
-32.22
-23.41
-12.56
-1.13
9.44
18.16
24.62
28.93
31.41
32.41
32.22
31.05
29.19
27.05
25.06
23.55
22.67
22.4
22.54
22.91
23.3
23.59
23.72
23.63
23.26
22.5
21.2
19.3
16.83
13.92
10.86
7.89
5.13
2.58
0.04
-2.67
-5.66
-8.93
-12.34
-15.7
-18.85
-21.73
-24.29
-26.66
-28.99
-31.5
-34.29
-37.22
-39.77
-41.12
-40.36
-36.87
-30.55
-21.97
-12.17
-2.39
6.24
13.04
17.75
20.53
21.77
21.92
21.37
20.4
19.23
17.97
16.81
15.95
15.55
15.71
16.34
17.2
18.03
18.62
18.83
18.65
18.05
17.0
15.45
13.38
10.83
7.98
5.01
2.03
-0.9
-3.85
-6.88
-10.01
-13.19
-16.27
-19.07
-21.42
-23.25
-24.65
-25.92
-27.55
-29.93
-33.23
-37.15
-40.87
-43.25
-43.21
-40.07
-33.89
-25.39
-15.76
-6.24
2.15
8.8
13.51
16.39
17.73
17.89
17.26
16.29
15.37
14.81
14.73
15.07
15.65
16.2
16.55
16.69
16.72
16.88
17.34
18.12
19.02
19.7
19.72
18.83
16.97
14.38
11.45
8.61
6.12
3.99
2.06
0.02
-2.38
-5.23
-8.34
-11.41
-14.04
-16.01
-17.34
-18.36
-19.56
-21.46
-24.33
-28.13
-32.36
-36.24
-38.77
-39.05
-36.5
-31.03
-23.15
-13.81
-4.19
4.69
12.11
17.82
21.91
24.61
26.19
26.84
26.78
26.24
25.53
24.95
24.72
24.9
25.36
25.88
26.24
26.32
26.06
25.49
24.63
23.53
22.2
20.63
18.83
16.79
14.55
12.2
9.83
7.57
5.5
3.57
1.61
-0.56
-3.05
-5.85
-8.71
-11.31
-13.39
-14.88
-15.94
-16.9
-18.13
-19.96
-22.58
-25.9
-29.6
-33.03
-35.35
-35.74
-33.6
-28.82
-21.82
-13.52
-4.97
2.82
9.12
13.62
16.33
17.51
17.5
16.72
15.53
14.27
13.2
12.51
12.36
12.76
13.61
14.7
15.76
16.56
17.04
17.21
17.18
17.0
16.63
15.93
14.72
12.92
10.62
8.07
5.58
3.43
1.72
0.33
-1.02
-2.62
-4.64
-6.99
-9.42
-11.57
-13.21
-14.35
-15.28
-16.43
-18.24
-20.95
-24.54
-28.62
-32.53
-35.45
-36.55
-35.22
-31.26
-24.98
-17.14
-8.79
-0.98
5.5
10.25
13.27
14.83
15.33
15.17
14.71
14.26
14.16
14.67
16.0
18.13
20.87
23.84
26.67
29.07
30.96
32.43
33.6
34.54
35.15
35.17
34.31
32.34
29.21
25.11
20.42
15.61
11.1
7.17
3.78
0.72
-2.36
-5.77
-9.58
-13.67
-17.71
-21.31
-24.19
-26.27
-27.68
-28.81
-30.11
-32.02
-34.73
-38.05
-41.41
-43.93
-44.7
-43.05
-38.81
-32.4
-24.62
-16.53
-9.08
-2.93
1.62
4.55
6.08
6.53
6.3
5.82
5.45
5.47
6.02
7.04
8.36
9.75
11.04
12.11
12.99
13.65
14.12
14.31
14.13
13.47
12.28
10.61
8.56
6.29
3.92
1.56
-0.77
-3.1
-5.53
-8.17
-11.07
-14.14
-17.24
-20.13
-22.62
-24.66
-26.41
-28.13
-30.18
-32.75
-35.77
-38.78
-40.99
-41.5
-39.54
-34.84
-27.65
-18.83
-9.52
-0.84
6.39
11.77
15.3
17.2
17.76
17.33
16.28
15.05
14.05
13.6
13.82
14.62
15.71
16.78
17.65
18.26
18.67
18.98
19.18
19.21
18.95
18.3
17.26
15.94
14.44
12.81
11.07
9.11
6.87
4.35
1.64
-1.14
-3.89
-6.56
-9.21
-11.95
-14.97
-18.49
-22.69
-27.67
-33.24
-38.77
-43.26
-45.57
-44.79
-40.69
-33.82
-25.35
-16.71
-9.07
-3.09
1.1
3.77
5.34
6.14
6.44
6.38
6.09
5.73
5.46
5.4
5.67
6.25
7.07
7.97
8.77
9.32
9.5
9.23
8.45
7.12
5.22
2.82
0.02
-2.98
-6.02
-8.99
-11.87
-14.69
-17.49
-20.3
-23.04
-25.6
-27.86
-29.73
-31.17
-32.23
-33.06
-33.88
-34.95
-36.46
-38.4
-40.37
-41.63
-41.29
-38.55
-33.04
-25.01
-15.28
-4.98
4.75
13.04
19.48
24.03
26.95
28.64
29.54
30.01
30.36
30.78
31.35
32.02
32.67
33.17
33.45
33.48
33.32
33.09
32.89
32.77
32.68
32.5
32.08
31.26
29.98
28.27
26.22
23.99
21.74
19.59
17.58
15.65
13.69
11.52
9.05
6.28
3.32
0.38
-2.35
-4.77
-6.97
-9.15
-11.58
-14.42
-17.63
-20.87
-23.47
-24.69
-23.84
-20.58
-15.03
-7.79
0.25
8.2
15.36
21.44
26.37
30.23
33.05
34.77
35.31
34.7
33.18
31.09
28.88
26.86
25.16
23.74
22.44
21.13
19.72
18.2
16.62
14.97
13.22
11.27
9.0
6.38
3.48
0.47
-2.48
-5.21
-7.75
-10.18
-12.59
-15.03
-17.45
-19.74
-21.83
-23.72
-25.47
-27.13
-28.8
-30.54
-32.43
-34.58
-36.93
-39.22
-40.92
-41.3
-39.67
-35.67
-29.45
-21.67
-13.32
-5.41
1.29
6.43
10.02
12.25
13.41
13.74
13.45
12.72
11.83
11.05
10.6
10.61
11.04
11.71
12.36
12.73
12.63
11.99
10.8
9.19
7.28
5.21
3.09
0.96
-1.15
-3.22
-5.18
-6.99
-8.6
-10.01
-11.25
-12.38
-13.47
-14.56
-15.67
-16.83
-18.12
-19.57
-21.25
-23.2
-25.39
-27.74
-29.95
-31.59
-32.08
-30.92
-27.85
-23.01
-17.01
-10.63
-4.63
0.52
4.71
8.07
10.81
13.11
15.01
16.51
17.68
18.63
19.56
20.58
21.67
22.71
23.46
23.74
23.42
22.54
21.21
19.65
18.05
16.55
15.22
14.06
13.0
12.0
11.02
10.03
9.0
7.97
6.9
5.8
4.66
3.49
2.38
1.43
0.75
0.33
0.09
-0.27
-1.11
-2.77
-5.38
-8.72
-12.18
-14.95
-16.23
-15.53
-12.84
-8.62
-3.65
1.31
5.69
9.23
11.87
13.65
14.61
14.79
14.29
13.3
12.12
11.08
10.36
10.03
10.03
10.22
10.48
10.73
10.94
11.09
11.13
11.01
10.66
10.08
9.26
8.26
7.09
5.75
4.25
2.55
0.69
-1.34
-3.49
-5.74
-8.04
-10.3
-12.4
-14.19
-15.59
-16.63
-17.51
-18.54
-20.04
-22.11
-24.54
-26.8
-28.16
-27.93
-25.7
-21.5
-15.84
-9.47
-3.25
2.13
6.28
9.15
10.91
11.84
12.17
12.0
11.35
10.23
8.72
6.99
5.3
3.88
2.9
2.34
2.06
1.88
1.61
1.19
0.6
-0.15
-1.05
-2.11
-3.36
-4.77
-6.32
-7.92
-9.53
-11.11
-12.67
-14.23
-15.79
-17.37
-18.95
-20.54
-22.16
-23.84
-25.6
-27.49
-29.49
-31.42
-32.93
-33.53
-32.73
-30.22
-26.04
-20.58
-14.49
-8.48
-3.06
1.5
5.16
7.99
10.07
11.4
12.01
11.95
11.35
10.45
9.44
8.51
7.78
7.26
6.93
6.69
6.46
6.15
5.71
5.09
4.25
3.2
1.97
0.61
-0.82
-2.32
-3.94
-5.74
-7.78
-10.04
-12.42
-14.81
-17.09
-19.19
-21.17
-23.1
-25.1
-27.28
-29.71
-32.36
-35.09
-37.52
-39.08
-39.16
-37.26
-33.21
-27.28
-20.06
-12.35
-4.86
1.9
7.71
12.49
16.28
19.17
21.24
22.66
23.61
24.32
24.97
25.72
26.63
27.68
28.81
29.95
31.05
32.07
32.96
33.61
33.94
33.85
33.29
32.26
30.78
28.89
26.69
24.25
21.66
19.02
16.34
13.57
10.65
7.5
4.17
0.81
-2.41
-5.42
-8.27
-11.21
-14.56
-18.47
-22.85
-27.26
-30.97
-33.1
-32.87
-29.87
-24.22
-16.6
-8.05
0.25
7.36
12.77
16.41
18.55
19.57
19.79
19.44
18.64
17.51
16.23
15.01
14.04
13.5
13.43
13.74
14.27
14.8
15.1
15.03
14.52
13.52
12.03
10.02
7.49
4.49
1.12
-2.46
-6.04
-9.45
-12.62
-15.52
-18.2
-20.68
-22.95
-24.93
-26.58
-27.91
-29.1
-30.46
-32.26
-34.59
-37.16
-39.28
-40.06
-38.64
-34.54
-27.87
-19.27
-9.71
-0.22
8.36
15.49
20.94
24.71
26.9
27.7
27.35
26.21
24.68
23.19
22.05
21.39
21.17
21.18
21.21
21.1
20.84
20.49
20.15
19.81
19.34
18.54
17.22
15.35
13.06
10.59
8.18
6.01
4.09
2.25
0.25
-2.08
-4.77
-7.65
-10.42
-12.76
-14.47
-15.56
-16.27
-17.05
-18.33
-20.38
-23.11
-26.06
-28.38
-29.14
-27.5
-23.04
-15.9
-6.73
3.47
13.61
22.74
30.18
35.61
39.05
40.74
41.04
40.31
38.79
36.71
34.24
31.65
29.24
27.32
26.03
25.27
24.76
24.13
23.2
22.02
20.83
19.89
19.3
19.0
18.81
18.61
18.45
18.48
18.84
19.48
20.07
20.13
19.15
16.81
13.04
8.04
2.25
-3.8
-9.55
-14.56
-18.56
-21.64
-24.11
-26.46
-29.02
-31.77
-34.14
-35.13
-33.68
-29.11
-21.39
-11.23
0.21
11.59
21.81
30.08
36.03
39.54
40.77
40.08
38.04
35.34
32.69
30.68
29.66
29.6
30.19
30.95
31.44
31.55
31.43
31.47
31.92
32.64
33.07
32.48
30.32
26.56
21.71
16.57
11.82
7.78
4.3
0.98
-2.5
-6.36
-10.64
-15.39
-20.68
-26.61
-33.12
-39.93
-46.63
-52.77
-58.17
-62.98
-67.53
-72.22
-77.15
-82.02
-86.08
-88.4
-88.12
-84.74
-78.31
-69.36
-58.86
-47.96
-37.73
-28.9
-21.86
-16.57
-12.73
-9.88
-7.51
-5.26
-2.89
-0.3
2.47
5.35
8.27
11.27
14.42
17.86
21.57
25.37
28.97
32.01
34.2
35.44
35.83
35.6
34.98
34.11
33.0
31.55
29.63
27.18
24.25
21.04
17.82
14.89
12.48
10.7
9.53
8.78
8.19
7.46
6.39
4.99
3.57
2.76
3.27
5.69
10.18
16.38
23.54
30.77
37.35
42.88
47.28
50.57
52.72
53.55
52.86
50.62
47.11
42.86
38.56
34.75
31.63
29.02
26.5
23.68
20.34
16.51
12.4
8.16
3.84
-0.72
-5.76
-11.53
-18.0
-24.95
-31.9
-38.38
-44.03
-48.79
-52.91
-56.82
-60.97
-65.65
-70.97
-76.95
-83.61
-90.99
-98.97
-107.11
-114.59
-120.35
-123.51
-123.76
-121.54
-117.8
-113.63
-109.75
-106.38
-103.33
-100.29
-97.16
-94.1
-91.34
-88.94
-86.63
-83.83
-79.83
-74.0
-66.12
-56.28
-44.83
-32.18
-18.63
-4.37
10.5
25.71
40.76
54.83
66.97
76.44
82.9
86.59
88.23
88.73
88.88
89.09
89.26
88.95
87.6
84.79
80.45
74.94
69.06
63.94
60.81
60.69
64.11
70.9
80.34
91.27
102.53
113.18
122.72
130.95
137.85
143.37
147.4
149.83
150.69
150.23
148.88
147.06
144.91
142.2
138.3
132.45
124.06
112.9
99.27
83.82
67.3
50.37
33.49
16.93
0.86
-14.59
-29.24
-42.97
-55.74
-67.7
-79.17
-90.55
-102.21
-114.38
-127.08
-139.99
-152.41
-163.34
-171.55
-175.81
-175.23
-169.57
-159.3
-145.59
-129.97
-113.96
-98.69
-84.82
-72.47
-61.48
-51.64
-42.77
-34.83
-27.82
-21.77
-16.61
-12.19
-8.25
-4.56
-1.01
2.39
5.43
7.8
9.15
9.2
7.85
5.19
1.5
-2.8
-7.27
-11.48
-15.17
-18.24
-20.86
-23.4
-26.31
-29.95
-34.4
-39.22
-43.56
-46.39
-46.75
-44.18
-38.79
-31.27
-22.65
-14.03
-6.26
0.13
4.94
8.27
10.34
11.45
11.87
11.89
11.77
11.66
11.68
11.87
12.28
12.94
13.9
15.18
16.75
18.54
20.44
22.24
23.66
24.32
23.77
21.56
17.38
11.2
3.38
-5.48
-14.76
-23.98
-32.88
-41.44
-49.66
-57.46
-64.48
-70.12
-73.58
-74.09
-71.14
-64.66
-55.08
-43.24
-30.22
-17.03
-4.48
6.83
16.41
23.8
28.61
30.76
30.56
28.73
26.16
23.62
21.4
19.41
17.32
14.83
11.92
8.79
5.75
3.07
0.82
-1.07
-2.72
-4.24
-5.77
-7.44
-9.33
-11.48
-13.83
-16.21
-18.41
-20.25
-21.65
-22.73
-23.75
-25.07
-26.93
-29.33
-31.89
-33.85
-34.22
-32.08
-26.96
-18.93
-8.72
2.6
13.87
24.09
32.66
39.33
44.07
47.02
48.34
48.25
47.0
44.88
42.18
39.18
36.16
33.35
30.9
28.9
27.29
25.95
24.7
23.36
21.8
19.97
17.9
15.62
13.18
10.59
7.81
4.79
1.52
-2.0
-5.69
-9.44
-13.12
-16.63
-19.94
-23.1
-26.19
-29.39
-32.92
-36.93
-41.46
-46.17
-50.36
-53.03
-53.11
-49.85
-43.11
-33.52
-22.21
-10.56
0.26
9.47
16.67
21.81
25.01
26.53
26.65
25.86
24.59
23.32
22.36
21.89
21.94
22.42
23.14
23.94
24.68
25.27
25.68
25.94
26.02
25.83
25.18
23.89
21.88
19.27
16.31
13.36
10.68
8.31
6.08
3.67
0.82
-2.55
-6.26
-10.03
-13.56
-16.69
-19.47
-22.14
-24.97
-28.24
-32.1
-36.42
-40.8
-44.52
-46.65
-46.33
-42.98
-36.54
-27.53
-16.92
-5.9
4.41
13.19
19.99
24.72
27.55
28.76
28.7
27.68
25.98
23.88
21.76
20.03
19.03
19.0
19.86
21.33
22.97
24.4
25.35
25.78
25.78
25.44
24.82
23.86
22.49
20.65
18.42
15.99
13.59
11.4
9.48
7.7
5.86
3.77
1.28
-1.61
-4.74
-7.92
-10.93
-13.62
-15.92
-17.95
-19.91
-22.12
-24.89
-28.36
-32.39
-36.47
-39.74
-41.2
-40.0
-35.69
-28.41
-18.85
-8.1
2.68
12.5
20.73
27.08
31.45
33.89
34.53
33.59
31.44
28.64
25.8
23.45
21.91
21.2
21.14
21.4
21.73
21.99
22.15
22.29
22.43
22.55
22.5
22.16
21.37
20.03
18.22
16.07
13.84
11.73
9.85
8.16
6.45
4.43
1.88
-1.24
-4.77
-8.38
-11.73
-14.58
-16.89
-18.79
-20.49
-22.21
-24.13
-26.42
-29.15
-32.26
-35.42
-38.02
-39.2
-38.15
-34.34
-27.76
-19.04
-9.18
0.65
9.45
16.61
21.87
25.3
27.08
27.41
26.49
24.57
21.94
19.01
16.16
13.71
11.78
10.38
9.46
9.01
9.06
9.65
10.69
11.95
13.07
13.72
13.69
13.03
11.93
10.57
9.09
7.44
5.52
3.19
0.47
-2.58
-5.72
-8.73
-11.41
-13.68
-15.55
-17.13
-18.66
-20.4
-22.62
-25.43
-28.65
-31.79
-34.02
-34.39
-32.19
-27.17
-19.76
-10.88
-1.72
6.7
13.67
18.94
22.53
24.57
25.24
24.66
23.05
20.64
17.76
14.76
11.9
9.42
7.44
6.08
5.39
5.37
5.94
6.95
8.15
9.29
10.1
10.35
9.93
8.84
7.2
5.23
3.12
0.99
-1.15
-3.39
-5.87
-8.62
-11.59
-14.62
-17.54
-20.22
-22.69
-25.09
-27.66
-30.57
-33.78
-36.97
-39.46
-40.38
-38.9
-34.56
-27.43
-18.19
-7.91
2.21
11.11
18.1
22.91
25.61
26.45
25.82
24.11
21.71
18.99
16.22
13.66
11.54
10.02
9.22
9.17
9.76
10.81
12.1
13.42
14.66
15.71
16.48
16.87
16.76
16.03
14.66
12.71
10.34
7.71
4.9
1.87
-1.38
-4.85
-8.43
-11.89
-15.06
-17.79
-20.16
-22.4
-24.82
-27.7
-31.04
-34.47
-37.25
-38.43
-37.08
-32.65
-25.19
-15.38
-4.38
6.52
16.22
24.04
29.72
33.36
35.23
35.64
34.87
33.11
30.61
27.63
24.53
21.64
19.3
17.68
16.81
16.6
16.89
17.48
18.21
18.89
19.33
19.32
18.73
17.49
15.69
13.49
11.06
8.53
5.88
3.04
-0.12
-3.61
-7.38
-11.21
-14.84
-18.03
-20.67
-22.84
-24.79
-26.87
-29.37
-32.38
-35.59
-38.28
-39.51
-38.32
-34.12
-26.89
-17.24
-6.27
4.8
14.88
23.23
29.5
33.64
35.84
36.27
35.17
32.83
29.61
25.98
22.42
19.35
17.03
15.6
14.93
14.85
15.08
15.4
15.63
15.74
15.76
15.74
15.7
15.53
15.02
13.89
11.96
9.19
5.76
1.99
-1.76
-5.24
-8.34
-11.13
-13.77
-16.48
-19.47
-22.88
-26.75
-30.96
-35.12
-38.52
-40.23
-39.31
-35.16
-27.78
-17.88
-6.69
4.37
14.15
21.91
27.43
30.84
32.37
32.27
30.76
28.04
24.38
20.16
15.85
11.93
8.87
7.0
6.42
7.0
8.4
10.13
11.74
12.89
13.42
13.3
12.6
11.35
9.55
7.17
4.23
0.86
-2.71
-6.23
-9.44
-12.26
-14.8
-17.24
-19.85
-22.79
-26.15
-29.92
-33.99
-38.02
-41.42
-43.34
-42.8
-39.1
-32.08
-22.24
-10.68
1.22
12.23
21.46
28.49
33.22
35.74
36.21
34.89
32.14
28.49
24.54
20.89
17.96
15.99
15.01
14.83
15.22
15.86
16.49
16.94
17.11
16.99
16.64
16.01
15.05
13.58
11.42
8.44
4.73
0.57
-3.66
-7.56
-10.96
-13.85
-16.43
-18.98
-21.79
-25.04
-28.81
-33.02
-37.35
-41.16
-43.54
-43.42
-40.02
-33.11
-23.26
-11.67
0.14
10.83
19.55
25.99
30.29
32.74
33.63
33.13
31.42
28.74
25.49
22.13
19.15
16.89
15.51
14.98
15.12
15.69
16.44
17.2
17.81
18.15
18.09
17.55
16.49
14.89
12.77
10.12
6.96
3.35
-0.58
-4.61
-8.52
-12.09
-15.21
-17.87
-20.13
-22.12
-24.02
-26.07
-28.52
-31.47
-34.67
-37.48
-38.86
-37.73
-33.35
-25.71
-15.57
-4.3
6.65
16.09
23.36
28.32
31.15
32.06
31.3
29.09
25.81
21.96
18.16
15.01
12.88
11.89
11.86
12.44
13.21
13.85
14.21
14.24
14.02
13.6
13.0
12.17
10.99
9.36
7.19
4.47
1.32
-2.08
-5.46
-8.6
-11.35
-13.63
-15.55
-17.31
-19.18
-21.47
-24.36
-27.93
-31.93
-35.79
-38.63
-39.41
-37.26
-31.8
-23.36
-12.9
-1.79
8.62
17.31
23.8
28.01
30.2
30.67
29.77
27.76
24.98
21.78
18.5
15.55
13.24
11.76
11.21
11.52
12.52
13.93
15.44
16.67
17.32
17.15
16.05
14.14
11.62
8.82
6.04
3.42
0.94
-1.51
-4.12
-6.96
-9.94
-12.89
-15.62
-18.06
-20.24
-22.36
-24.62
-27.22
-30.28
-33.71
-37.25
-40.32
-42.08
-41.57
-38.09
-31.38
-21.91
-10.77
0.67
11.07
19.52
25.63
29.49
31.39
31.74
30.91
29.21
26.99
24.57
22.31
20.47
19.22
18.55
18.33
18.42
18.67
19.05
19.51
19.95
20.19
19.95
18.96
17.09
14.39
11.15
7.75
4.54
1.7
-0.84
-3.3
-5.95
-8.96
-12.33
-15.87
-19.34
-22.46
-25.06
-27.11
-28.7
-30.05
-31.47
-33.31
-35.83
-38.98
-42.32
-44.98
-45.81
-43.81
-38.42
-29.85
-19.01
-7.3
3.87
13.42
20.75
25.77
28.66
29.73
29.3
27.74
25.49
23.05
20.9
19.33
18.43
18.08
18.05
18.17
18.33
18.5
18.64
18.69
18.55
18.14
17.39
16.26
14.7
12.67
10.17
7.29
4.29
1.47
-0.96
-2.95
-4.72
-6.62
-8.99
-11.96
-15.41
-18.92
-22.03
-24.36
-25.79
-26.56
-27.06
-27.83
-29.3
-31.75
-35.16
-39.23
-43.25
-46.24
-47.18
-45.2
-39.94
-31.73
-21.47
-10.47
-0.02
8.93
15.91
20.8
23.77
25.09
25.01
23.83
21.9
19.6
17.34
15.47
14.23
13.7
13.86
14.54
15.54
16.62
17.58
18.28
18.68
18.8
18.65
18.13
17.08
15.37
12.96
10.0
6.81
3.77
1.15
-0.96
-2.74
-4.46
-6.39
-8.62
-11.04
-13.38
-15.36
-16.83
-17.87
-18.74
-19.78
-21.32
-23.5
-26.3
-29.52
-32.77
-35.49
-36.98
-36.5
-33.47
-27.74
-19.71
-10.24
-0.48
8.48
15.85
21.29
24.75
26.41
26.51
25.29
23.03
20.1
16.95
14.08
11.96
10.86
10.84
11.73
13.16
14.72
16.1
17.14
17.84
18.26
18.37
18.01
16.98
15.17
12.62
9.59
6.43
3.46
0.85
-1.43
-3.56
-5.68
-7.94
-10.34
-12.81
-15.2
-17.36
-19.21
-20.78
-22.24
-23.91
-26.11
-29.07
-32.78
-36.92
-40.81
-43.53
-44.14
-41.9
-36.51
-28.25
-17.96
-6.85
3.81
12.99
20.15
25.14
28.18
29.6
29.73
28.89
27.37
25.51
23.65
22.15
21.21
20.94
21.26
22.03
23.08
24.21
25.26
26.09
26.56
26.56
26.0
24.81
22.93
20.38
17.19
13.55
9.74
6.05
2.77
0.03
-2.22
-4.26
-6.39
-8.88
-11.8
-14.98
-18.16
-21.03
-23.44
-25.42
-27.23
-29.23
-31.76
-35.02
-38.9
-42.96
-46.4
-48.25
-47.6
-43.92
-37.21
-28.09
-17.65
-7.07
2.61
10.78
17.21
21.97
25.26
27.24
28.08
27.92
26.99
25.6
24.08
22.75
21.86
21.54
21.82
22.6
23.66
24.76
25.69
26.26
26.4
26.1
25.36
24.14
22.42
20.19
17.51
14.51
11.41
8.41
5.66
3.15
0.8
-1.59
-4.17
-7.05
-10.21
-13.48
-16.63
-19.41
-21.66
-23.4
-24.76
-26.01
-27.49
-29.52
-32.31
-35.89
-40.0
-43.98
-46.87
-47.62
-45.38
-39.85
-31.41
