5.55
4.49
3.12
1.36
-0.72
-2.93
-5.09
-7.05
-8.74
-10.19
-11.49
-12.79
-14.3
-16.21
-18.62
-21.44
-24.36
-26.87
-28.36
-28.3
-26.41
-22.74
-17.69
-11.86
-5.98
-0.68
3.64
6.83
8.97
10.29
11.06
11.54
11.93
12.4
13.03
13.86
14.81
15.78
16.61
17.21
17.55
17.72
17.82
17.96
18.16
18.32
18.35
18.11
17.55
16.66
15.5
14.13
12.62
11.03
9.39
7.7
5.95
4.13
2.25
0.33
-1.53
-3.29
-4.92
-6.47
-8.04
-9.77
-11.8
-14.21
-16.97
-19.88
-22.58
-24.59
-25.41
-24.71
-22.39
-18.7
-14.11
-9.21
-4.52
-0.4
2.98
5.58
7.43
8.62
9.25
9.43
9.32
9.06
8.79
8.6
8.53
8.56
8.67
8.83
9.04
9.34
9.74
10.23
10.68
10.92
10.79
10.17
9.06
7.54
5.75
3.87
2.03
0.38
-1.0
-2.1
-3.01
-3.87
-4.83
-5.95
-7.21
-8.51
-9.8
-11.15
-12.7
-14.61
-16.88
-19.25
-21.24
-22.28
-21.89
-19.89
-16.45
-12.06
-7.34
-2.87
0.97
4.0
6.22
7.73
8.64
9.03
9.0
8.71
8.33
8.06
8.06
8.39
9.04
9.91
10.92
11.98
12.98
13.79
14.28
14.32
13.88
13.03
11.91
10.68
9.45
8.22
6.92
5.49
3.88
2.11
0.24
-1.66
-3.54
-5.41
-7.27
-9.16
-11.08
-13.08
-15.16
-17.27
-19.25
-20.83
-21.68
-21.45
-19.9
-17.03
-13.07
-8.45
-3.71
0.64
4.25
6.95
8.75
9.8
10.27
10.37
10.24
9.99
9.71
9.47
9.31
9.26
9.29
9.35
9.37
9.29
9.09
8.81
8.46
8.06
7.59
6.99
6.26
5.43
4.55
3.64
2.68
1.58
0.2
-1.49
-3.45
-5.5
-7.45
-9.17
-10.7
-12.17
-13.82
-15.83
-18.27
-21.07
-23.96
-26.57
-28.42
-29.09
-28.28
-25.91
-22.25
-17.73
-12.92
-8.34
-4.33
-1.04
1.51
3.44
4.86
5.9
6.64
7.15
7.53
7.86
8.25
8.79
9.5
10.33
11.12
11.75
12.18
12.46
12.74
13.14
13.69
14.27
14.68
14.75
14.44
13.84
13.12
12.45
11.89
11.39
10.86
10.19
9.3
8.2
6.95
5.64
4.36
3.18
2.11
1.06
-0.07
-1.45
-3.15
-5.15
-7.27
-9.14
-10.32
-10.34
-8.93
-6.09
-2.13
2.32
6.57
10.02
12.34
13.54
13.91
13.8
13.51
13.16
12.7
12.03
11.11
9.99
8.85
7.9
7.26
6.94
6.8
6.65
6.34
5.83
5.17
4.47
3.78
3.08
2.28
1.25
-0.01
-1.45
-2.92
-4.28
-5.46
-6.51
-7.55
-8.7
-10.04
-11.49
-12.93
-14.22
-15.31
-16.25
-17.23
-18.48
-20.15
-22.24
-24.52
-26.6
-27.98
-28.22
-27.06
-24.47
-20.62
-15.87
-10.66
-5.43
-0.57
3.59
6.86
9.17
10.58
11.26
11.42
11.26
10.93
10.58
10.3
10.17
10.23
10.49
10.9
11.41
11.92
12.39
12.77
13.01
13.05
12.79
12.2
11.3
10.17
8.93
7.67
6.37
4.99
3.48
1.8
-0.03
-1.98
-3.95
-5.87
-7.63
-9.2
-10.6
-11.92
-13.34
-15.07
-17.2
-19.64
-22.06
-23.94
-24.74
-24.03
-21.7
-17.95
-13.27
-8.24
-3.41
0.83
4.32
7.0
8.91
10.1
10.63
10.63
10.27
9.78
9.37
9.19
9.28
9.6
10.05
10.55
11.01
11.43
11.8
12.14
12.46
12.72
12.81
12.57
11.87
10.65
9.05
7.31
5.72
4.42
3.38
2.4
1.25
-0.15
-1.75
-3.35
-4.8
-6.05
-7.2
-8.4
-9.83
-11.59
-13.74
-16.28
-19.09
-21.88
-24.17
-25.4
-25.06
-22.9
-19.09
-14.14
-8.77
-3.66
0.69
4.11
6.6
8.34
9.49
10.2
10.56
10.65
10.57
10.45
10.42
10.53
10.77
11.05
11.26
11.35
11.36
11.38
11.49
11.7
11.93
12.03
11.84
11.23
10.21
8.81
7.16
5.38
3.58
1.81
0.08
-1.62
-3.29
-4.87
-6.31
-7.53
-8.52
-9.43
-10.47
-11.9
-13.85
-16.31
-18.96
-21.39
-23.1
-23.67
-22.9
-20.81
-17.63
-13.7
-9.42
-5.14
-1.18
2.24
5.0
7.05
8.51
9.54
10.33
11.02
11.61
12.03
12.21
12.14
11.96
11.81
11.85
12.1
12.45
12.73
12.78
12.56
12.12
11.55
10.91
10.2
9.39
8.44
7.35
6.16
4.92
3.64
2.29
0.81
-0.86
-2.68
-4.57
-6.4
-8.03
-9.39
-10.57
-11.72
-13.11
-14.96
-17.33
-20.04
-22.65
-24.58
-25.29
-24.49
-22.16
-18.62
-14.34
-9.8
-5.4
-1.4
2.03
4.75
6.7
7.88
8.44
8.64
8.81
9.24
10.11
11.47
13.25
15.29
17.42
19.48
21.29
22.71
23.63
23.95
23.67
22.92
21.91
20.97
20.38
20.36
20.99
22.27
24.17
26.68
29.88
33.8
38.36
43.34
48.26
52.62
55.94
57.92
58.42
57.52
55.35
52.11
48.03
43.32
38.22
33.01
27.95
23.25
19.07
15.4
12.16
9.22
6.48
3.93
1.61
-0.4
-2.08
-3.54
-4.97
-6.61
-8.59
-10.85
-13.12
-14.96
-15.96
-15.88
-14.75
-12.89
-10.83
-9.13
-8.27
-8.49
-9.78
-11.96
-14.72
-17.7
-20.56
-23.0
-24.81
-25.87
-26.2
-25.95
-25.31
-24.54
-23.78
-23.13
-22.55
-21.93
-21.11
-19.9
-18.05
-15.31
-11.44
-6.43
-0.54
5.65
11.43
16.23
19.78
22.25
24.01
25.46
26.73
27.75
28.32
28.4
28.16
27.87
27.69
27.44
26.58
24.37
20.2
13.82
5.54
-3.92
-13.51
-22.15
-28.89
-33.08
-34.47
-33.28
-30.13
-25.96
-21.74
-18.34
-16.28
-15.68
-16.39
-18.06
-20.33
-22.88
-25.48
-27.97
-30.27
-32.37
-34.3
-36.11
-37.77
-39.08
-39.69
-39.11
-36.83
-32.53
-26.17
-18.09
-8.91
0.53
9.43
17.1
23.1
27.19
29.33
29.62
28.15
25.11
20.7
15.3
9.4
3.59
-1.59
-5.82
-9.06
-11.49
-13.36
-14.87
-16.04
-16.84
-17.29
-17.58
-17.98
-18.75
-19.92
-21.27
-22.37
-22.85
-22.54
-21.6
-20.37
-19.28
-18.52
-18.11
-17.82
-17.36
-16.54
-15.33
-13.87
-12.38
-11.13
-10.39
-10.35
-11.05
-12.26
-13.44
-13.83
-12.7
-9.65
-4.81
1.23
7.64
13.75
19.23
24.09
28.54
32.66
36.3
39.15
40.96
41.71
41.61
41.03
40.31
39.64
39.03
38.5
38.12
38.06
38.54
39.71
41.61
44.2
47.48
51.49
56.14
60.97
64.91
66.35
63.58
55.39
41.65
23.37
2.44
-19.12
-39.73
-58.59
-75.48
-90.49
-103.64
-114.97
-124.57
-132.81
-140.19
-147.02
-153.09
-157.64
-159.61
-158.12
-152.87
-144.33
-133.49
-121.45
-109.11
-97.01
-85.45
-74.65
-64.86
-56.34
-49.25
-43.5
-38.82
-34.81
-31.12
-27.53
-23.97
-20.44
-16.93
-13.37
-9.67
-5.82
-2.03
1.39
4.04
5.65
6.19
5.9
5.19
4.47
3.92
3.48
2.91
1.95
0.49
-1.38
-3.44
-5.45
-7.31
-9.1
-11.0
-13.28
-16.22
-20.03
-24.73
-30.01
-35.15
-39.12
-40.77
-39.26
-34.34
-26.52
-16.87
-6.66
3.0
11.39
18.26
23.63
27.6
30.31
31.85
32.38
32.17
31.54
30.82
30.27
30.0
30.01
30.25
30.68
31.25
31.97
32.75
33.47
33.89
33.79
32.97
31.4
29.19
26.6
23.93
21.43
19.13
16.92
14.53
11.75
8.52
4.98
1.43
-1.83
-4.66
-7.12
-9.5
-12.17
-15.45
-19.51
-24.25
-29.25
-33.76
-36.83
-37.53
-35.21
-29.72
-21.59
-11.81
-1.64
7.75
15.56
21.49
25.61
28.27
29.84
30.63
30.84
30.59
30.01
29.3
28.65
28.26
28.25
28.62
29.29
30.13
31.0
31.79
32.37
32.64
32.49
31.84
30.69
29.1
27.17
24.99
22.6
20.01
17.2
14.2
11.11
8.01
5.02
2.22
-0.39
-2.83
-5.24
-7.8
-10.75
-14.28
-18.39
-22.77
-26.76
-29.53
-30.25
-28.41
-23.97
-17.4
-9.51
-1.25
6.53
13.2
18.4
22.06
24.34
25.49
25.85
25.72
25.31
24.82
24.35
24.0
23.83
23.84
24.01
24.25
24.5
24.72
24.93
25.14
25.33
25.36
25.06
24.22
22.78
20.83
18.55
16.2
13.92
11.75
9.62
7.38
4.96
2.38
-0.28
-2.83
-5.15
-7.18
-8.98
-10.77
-12.86
-15.53
-18.92
-22.89
-26.95
-30.3
-32.05
-31.46
-28.19
-22.46
-14.95
-6.66
1.39
8.39
13.88
17.73
20.09
21.3
21.72
21.72
21.57
21.41
21.31
21.29
21.36
21.54
21.81
22.13
22.42
22.62
22.72
22.71
22.63
22.41
21.94
21.09
19.77
18.01
15.96
13.82
11.77
9.9
8.21
6.61
5.01
3.27
1.33
-0.78
-2.97
-5.05
-6.85
-8.31
-9.56
-10.88
-12.65
-15.09
-18.12
-21.3
-23.86
-25.01
-24.17
-21.17
-16.32
-10.27
-3.81
2.35
7.68
11.89
14.87
16.66
17.39
17.3
16.66
15.76
14.86
14.13
13.66
13.48
13.6
13.97
14.54
15.23
15.94
16.56
17.02
17.24
17.18
16.81
16.09
15.0
13.57
11.82
9.84
7.74
5.62
3.58
1.69
-0.01
-1.58
-3.08
-4.65
-6.35
-8.24
-10.27
-12.42
-14.64
-16.81
-18.71
-19.95
-20.04
-18.55
-15.33
-10.67
-5.24
0.12
4.65
7.96
10.06
11.21
11.74
11.84
11.59
11.03
10.24
9.4
8.75
8.45
8.56
9.01
9.64
10.28
10.86
11.33
11.72
12.05
12.33
12.47
12.37
11.88
10.89
9.37
7.4
5.19
3.01
1.14
-0.3
-1.31
-2.08
-2.85
-3.88
-5.37
-7.43
-10.02
-12.91
-15.69
-17.8
-18.65
-17.88
-15.43
-11.62
-7.01
-2.27
2.11
5.8
8.65
10.63
11.71
11.94
11.45
10.49
9.38
8.46
7.93
7.83
8.04
8.35
8.61
8.75
8.81
8.86
8.96
9.09
9.15
9.0
8.53
7.67
6.45
5.0
3.47
2.01
0.75
-0.29
-1.15
-1.92
-2.75
-3.73
-4.97
-6.53
-8.46
-10.7
-13.1
-15.37
-17.08
-17.83
-17.27
-15.3
-12.08
-8.02
-3.63
0.55
4.12
6.88
8.74
9.77
10.07
9.8
9.12
8.23
7.37
6.73
6.46
6.59
7.03
7.63
8.22
8.65
8.87
8.89
8.75
8.53
8.26
7.97
7.61
7.08
6.27
5.1
3.58
1.82
0.02
-1.63
-2.99
-4.08
-5.03
-6.07
-7.4
-9.07
-10.94
-12.69
-13.89
-14.14
-13.2
-11.05
-7.95
-4.28
-0.51
3.01
6.02
8.38
10.09
11.16
11.67
11.69
11.3
10.63
9.81
9.02
8.42
8.14
8.2
8.47
8.75
8.8
8.51
7.95
7.32
6.89
6.79
6.97
7.18
7.13
6.6
5.57
4.21
2.74
1.37
0.18
-0.86
-1.86
-2.9
-4.04
-5.33
-6.8
-8.44
-10.25
-12.1
-13.76
-14.89
-15.12
-14.2
-12.06
-8.88
-5.07
-1.12
2.49
5.42
7.53
8.89
9.65
9.97
9.99
9.8
9.44
9.01
8.58
8.24
8.03
7.88
7.71
7.41
6.96
6.45
6.01
5.75
5.67
5.66
5.53
5.13
4.41
3.45
2.41
1.45
0.65
-0.02
-0.64
-1.32
-2.11
-3.02
-4.0
-4.97
-5.89
-6.77
-7.75
-8.96
-10.51
-12.34
-14.17
-15.56
-16.07
-15.41
-13.59
-10.87
-7.68
-4.42
-1.4
1.22
3.37
5.05
6.24
6.94
7.21
7.15
6.93
6.75
6.73
6.96
7.4
7.96
8.52
8.97
9.29
9.55
9.87
10.31
10.83
11.24
11.33
11.02
10.39
9.68
9.15
8.93
8.96
9.03
8.9
8.43
7.71
6.94
6.42
6.38
6.89
7.88
9.16
10.46
11.49
11.97
11.67
10.6
9.05
7.75
7.65
9.71
14.44
21.78
31.06
41.3
51.57
61.2
69.84
77.36
83.62
88.43
91.55
92.81
92.18
89.8
85.94
80.98
75.43
69.82
64.62
60.1
56.25
52.84
49.55
46.14
42.55
38.84
35.13
31.42
27.59
23.5
19.09
14.5
9.97
5.74
1.89
-1.73
-5.36
-9.24
-13.5
-18.05
-22.7
-27.2
-31.26
-34.7
-37.41
-39.37
-40.77
-41.89
-43.1
-44.65
-46.61
-48.76
-50.63
-51.67
-51.42
-49.66
-46.49
-42.32
-37.71
-33.23
-29.35
-26.37
-24.45
-23.59
-23.69
-24.53
-25.78
-27.09
-28.13
-28.75
-28.95
-28.88
-28.71
-28.54
-28.38
-28.12
-27.65
-26.88
-25.78
-24.39
-22.81
-21.17
-19.6
-18.24
-17.19
-16.55
-16.31
-16.43
-16.79
-17.22
-17.61
-17.89
-18.07
-18.24
-18.48
-18.81
-19.17
-19.5
-19.76
-20.02
-20.38
-20.9
-21.51
-21.92
-21.74
-20.57
-18.23
-14.78
-10.58
-6.15
-1.99
1.49
4.17
6.06
7.36
8.24
8.83
9.14
9.15
8.83
8.23
7.54
6.96
6.69
6.8
7.19
7.7
8.08
8.17
7.83
7.02
5.69
3.83
1.42
-1.5
-4.84
-8.48
-12.28
-16.15
-20.0
-23.75
-27.27
-30.4
-33.02
-35.07
-36.67
-38.01
-39.33
-40.8
-42.47
-44.12
-45.38
-45.77
-44.87
-42.46
-38.65
-33.81
-28.53
-23.39
-18.84
-15.15
-12.35
-10.39
-9.14
-8.42
-8.1
-7.94
-7.75
-7.32
-6.51
-5.27
-3.7
-1.95
-0.25
1.22
2.36
3.19
3.84
4.42
5.0
5.47
5.62
5.23
4.15
2.46
0.39
-1.74
-3.67
-5.25
-6.53
-7.65
-8.76
-9.97
-11.39
-13.08
-15.11
-17.44
-19.92
-22.13
-23.53
-23.53
-21.74
-18.14
-13.15
-7.48
-1.92
2.96
6.9
9.95
12.27
13.98
15.1
15.55
15.35
14.65
13.74
13.04
12.85
13.34
14.45
16.0
17.67
19.17
20.3
20.96
21.2
21.13
20.88
20.51
20.05
19.51
18.93
18.37
17.89
17.46
16.94
16.08
14.61
12.33
9.13
5.01
-0.02
-5.82
-12.07
-18.22
-23.46
-26.88
-27.78
-25.84
-21.3
-14.88
-7.54
-0.2
6.45
12.02
16.36
19.36
20.85
20.63
18.55
14.77
9.77
4.35
-0.65
-4.64
-7.43
-9.22
-10.46
-11.52
-12.57
-13.53
-14.21
-14.5
-14.47
-14.44
-14.77
-15.78
-17.54
-19.85
-22.35
-24.63
-26.4
-27.6
-28.41
-29.15
-30.18
-31.8
-34.15
-37.15
-40.38
-43.15
-44.61
-44.05
-41.12
-36.05
-29.5
-22.36
-15.46
-9.29
-4.09
0.13
3.44
5.89
7.56
8.54
8.98
9.07
8.98
8.89
8.96
9.31
10.03
11.11
12.42
13.73
14.85
15.62
16.0
16.04
15.86
15.55
15.18
14.74
14.16
13.38
12.35
11.09
9.69
8.25
6.85
5.45
3.97
2.28
0.29
-2.04
-4.7
-7.56
-10.36
-12.66
-13.86
-13.38
-10.84
-6.25
-0.1
6.8
13.56
19.43
23.97
27.09
28.88
29.53
29.25
28.24
26.71
24.86
22.79
20.53
18.02
15.18
11.96
8.43
4.75
1.09
-2.37
-5.51
-8.26
-10.62
-12.57
-14.17
-15.47
-16.57
-17.56
-18.51
-19.41
-20.23
-20.89
-21.35
-21.64
-21.86
-22.1
-22.46
-23.01
-23.83
-24.98
-26.49
-28.27
-30.03
-31.26
-31.31
-29.61
-25.85
-20.2
-13.2
-5.69
1.47
7.62
12.42
15.82
18.0
19.21
19.64
19.47
18.83
17.85
16.76
15.78
15.08
14.75
14.73
14.89
15.07
15.19
15.26
15.33
15.44
15.56
15.58
15.37
14.82
13.88
12.63
11.17
9.62
8.05
6.49
4.86
3.09
1.14
-0.94
-3.03
-4.96
-6.67
-8.17
-9.63
-11.27
-13.33
-15.97
-19.16
-22.65
-25.95
-28.42
-29.39
-28.37
-25.28
-20.43
-14.53
-8.43
-2.92
1.52
4.76
6.92
8.21
8.86
9.0
8.74
8.27
7.75
7.38
7.27
7.41
7.71
8.03
8.28
8.41
8.45
8.48
8.55
8.67
8.85
9.01
9.05
8.87
8.36
7.49
6.3
4.92
3.53
2.28
1.27
0.54
-0.02
-0.51
-1.07
-1.78
-2.6
-3.5
-4.4
-5.29
-6.18
-7.11
-8.14
-9.33
-10.77
-12.54
-14.64
-16.87
-18.78
-19.77
-19.28
-17.03
-13.18
-8.26
-3.0
1.96
6.21
9.61
12.17
13.96
15.01
15.35
15.08
14.36
13.44
12.57
11.93
11.58
11.5
11.62
11.88
12.25
12.72
13.29
13.91
14.47
14.85
14.93
14.63
13.97
13.01
11.87
10.67
9.54
8.53
7.62
6.72
5.66
4.33
2.66
0.74
-1.21
-2.93
-4.27
-5.23
-6.02
-7.0
-8.49
-10.65
-13.39
-16.24
-18.57
-19.7
-19.14
-16.82
-13.02
-8.38
-3.6
0.72
4.26
6.92
8.76
9.9
10.41
10.36
9.85
9.09
8.29
7.67
7.29
7.11
6.95
6.69
6.28
5.8
5.42
5.25
5.29
5.39
5.35
5.0
4.31
3.4
2.43
1.5
0.59
-0.41
-1.62
-3.09
-4.74
-6.43
-8.0
-9.43
-10.75
-12.09
-13.57
-15.26
-17.19
-19.25
-21.27
-22.9
-23.67
-23.12
-20.94
-17.17
-12.16
-6.57
-1.09
3.69
7.44
10.09
11.77
12.69
13.05
13.02
12.73
12.33
11.9
11.55
11.38
11.44
11.7
12.1
12.51
12.82
12.96
12.9
12.66
12.23
11.6
10.74
9.64
8.31
6.8
5.12
3.24
1.14
-1.15
-3.52
-5.8
-7.81
-9.48
-10.88
-12.26
-13.92
-16.11
-18.86
-21.95
-24.89
-27.12
-28.05
-27.33
-24.82
-20.72
-15.46
-9.67
-4.01
0.96
4.86
7.6
9.29
10.16
10.43
10.29
9.84
9.21
8.56
8.12
8.08
8.52
9.37
10.42
11.42
12.24
12.83
13.26
13.59
13.91
14.2
14.41
14.43
14.16
13.46
12.22
10.45
8.22
5.7
3.11
0.63
-1.69
-3.89
-6.1
-8.46
-11.01
-13.67
-16.15
-18.02
-18.78
-18.03
-15.61
-11.7
-6.8
-1.56
3.41
7.64
10.93
13.2
14.46
14.79
14.31
13.2
11.74
10.16
8.67
7.35
6.25
5.36
4.69
4.22
3.91
3.71
3.56
3.5
3.63
4.02
4.65
5.32
5.71
5.45
4.35
2.46
0.09
-2.31
-4.36
-5.89
-7.04
-8.15
-9.61
-11.74
-14.67
-18.35
-22.56
-26.98
-31.15
-34.44
-36.18
-35.79
-33.02
-28.08
-21.66
-14.7
-8.11
-2.53
1.76
4.8
6.76
7.87
8.32
8.27
7.9
7.36
6.83
6.47
6.38
6.6
7.07
7.69
8.31
8.88
9.42
10.07
10.94
11.98
13.01
13.71
13.8
13.14
11.82
10.04
8.03
5.93
3.73
1.32
-1.46
-4.72
-8.45
-12.58
-17.0
-21.62
-26.32
-30.91
-35.0
-38.01
-39.23
-38.07
-34.27
-28.15
-20.47
-12.28
-4.56
2.0
7.12
10.82
13.25
14.61
15.06
14.77
14.0
13.12
12.52
12.47
13.03
14.01
15.09
15.93
16.35
16.33
16.02
15.64
15.26
14.84
14.19
13.09
11.39
9.13
6.5
3.77
1.15
-1.25
-3.41
-5.4
-7.3
-9.14
-11.03
-13.12
-15.69
-18.94
-22.89
-27.17
-31.03
-33.54
-33.88
-31.64
-26.97
-20.5
-13.09
-5.59
1.34
7.29
12.03
15.46
17.59
18.54
18.55
18.0
17.23
16.55
16.12
16.01
16.2
16.62
17.22
17.89
18.52
18.96
19.1
18.9
18.42
17.71
16.82
15.7
14.17
12.05
9.26
5.91
2.31
-1.19
-4.26
-6.8
-8.89
-10.79
-12.83
-15.34
-18.57
-22.66
-27.46
-32.57
-37.23
-40.54
-41.65
-40.11
-35.98
-29.89
-22.76
-15.57
-9.09
-3.78
0.25
3.07
4.89
5.94
6.42
6.53
6.45
6.32
6.3
6.53
7.12
8.1
9.42
10.91
12.4
13.77
14.98
16.11
17.2
18.26
19.15
19.71
19.8
19.38
18.53
17.38
16.07
14.67
13.2
11.72
10.27
8.92
7.66
6.38
4.9
2.94
0.29
-3.1
-7.04
-11.01
-14.24
-15.91
-15.32
-12.19
-6.76
0.28
7.95
15.31
21.67
26.72
30.49
33.28
35.45
37.29
38.98
40.53
41.82
42.68
42.96
42.6
41.68
40.44
39.22
38.37
38.18
38.71
39.8
41.09
42.14
42.54
42.02
40.48
37.93
34.43
30.05
24.87
18.99
12.63
6.17
0.11
-4.98
-8.64
-10.71
-11.32
-10.94
-10.12
-9.45
-9.33
-9.95
-11.24
-12.81
-13.99
-13.87
-11.61
-6.7
0.71
9.82
19.29
27.67
33.82
37.15
37.64
35.68
31.81
26.57
20.4
13.69
6.81
0.08
-6.23
-11.92
-16.98
-21.47
-25.49
-29.07
-32.13
-34.51
-36.12
-36.98
-37.34
-37.54
-37.91
-38.64
-39.7
-40.88
-41.9
-42.54
-42.68
-42.35
-41.71
-40.93
-40.22
-39.77
-39.65
-39.84
-40.21
-40.56
-40.71
-40.58
-40.19
-39.72
-39.43
-39.61
-40.45
-41.95
-43.81
-45.43
-46.01
-44.8
-41.37
-35.76
-28.5
-20.43
-12.4
-5.08
1.19
6.28
10.21
13.03
14.8
15.62
15.68
15.22
14.54
13.92
13.56
13.57
13.94
14.53
15.17
15.64
15.79
15.64
15.27
14.83
14.38
13.88
13.18
12.15
10.75
9.11
7.47
6.07
4.98
4.1
3.19
2.06
0.58
-1.16
-3.0
-4.73
-6.26
-7.62
-8.94
-10.35
-11.97
-13.84
-15.99
-18.35
-20.74
-22.79
-24.0
-23.8
-21.81
-17.98
-12.7
-6.69
-0.71
4.57
8.86
12.09
14.38
15.89
16.66
16.72
16.12
15.0
13.59
12.21
11.09
10.38
10.11
10.25
10.72
11.47
12.39
13.37
14.22
14.74
14.79
14.32
13.4
12.2
10.85
9.46
8.05
6.53
4.83
2.96
0.99
-0.94
-2.68
-4.17
-5.42
-6.57
-7.8
-9.31
-11.27
-13.76
-16.67
-19.68
-22.24
-23.64
-23.29
-20.89
-16.61
-11.01
-4.89
0.98
6.03
9.95
12.66
14.22
14.81
14.7
14.15
13.39
12.59
11.78
10.96
10.15
9.48
9.12
9.22
9.82
10.8
11.87
12.71
13.06
12.84
12.11
11.09
9.97
8.87
7.77
6.6
5.2
3.53
1.65
-0.33
-2.26
-4.08
-5.81
-7.54
-9.37
-11.4
-13.73
-16.43
-19.57
-23.03
-26.48
-29.34
-30.89
-30.48
-27.77
-22.88
-16.41
-9.3
-2.54
3.07
7.09
9.5
10.59
10.8
10.55
10.14
9.67
9.15
8.6
8.1
7.78
7.76
8.09
8.7
9.42
10.09
10.6
10.92
11.11
11.21
11.2
11.01
10.5
9.57
8.19
6.45
4.46
2.38
0.28
-1.78
-3.84
-5.91
-7.99
-9.98
-11.87
-13.67
-15.54
-17.68
-20.23
-23.12
-25.98
-28.22
-29.16
-28.29
-25.44
-20.84
-15.1
-8.95
-3.06
2.1
6.29
9.46
11.68
13.06
13.75
13.87
13.56
12.98
12.34
11.82
11.59
11.66
11.96
12.35
12.68
12.91
13.05
13.22
13.47
13.77
13.98
13.95
13.5
12.54
11.05
9.09
6.75
4.2
1.65
-0.7
-2.68
-4.29
-5.68
-7.15
-9.01
-11.53
-14.79
-18.67
-22.77
-26.5
-29.17
-30.11
-28.89
-25.43
-20.06
-13.48
-6.55
-0.11
5.27
9.3
12.0
13.58
14.3
14.36
13.93
13.12
12.06
10.91
9.88
9.15
8.84
8.99
9.51
10.18
10.77
11.08
10.98
10.49
9.69
8.69
7.54
6.22
4.66
2.8
0.66
-1.67
-3.99
-6.13
-7.96
-9.51
-10.9
-12.38
-14.22
-16.61
-19.64
-23.17
-26.85
-30.1
-32.23
-32.61
-30.8
-26.77
-20.93
-14.0
-6.81
-0.14
5.51
9.9
13.05
15.07
16.14
16.45
16.19
15.54
14.7
13.89
13.28
12.99
13.05
13.4
13.88
14.32
14.59
14.61
14.38
13.96
13.4
12.74
11.95
10.95
9.64
7.93
5.81
3.36
0.77
-1.77
-4.1
-6.17
-8.01
-9.78
-11.65
-13.82
-16.49
-19.76
-23.59
-27.63
-31.2
-33.44
-33.51
-30.91
-25.7
-18.55
-10.49
-2.65
4.11
9.32
12.94
15.23
16.53
17.17
17.35
17.2
16.79
16.22
15.62
15.14
14.88
14.87
15.06
15.36
15.66
15.9
16.05
16.13
16.09
15.87
15.36
14.47
13.17
11.49
9.52
7.38
5.18
2.97
0.8
-1.28
-3.24
-5.03
-6.7
-8.37
-10.26
-12.58
-15.48
-18.91
-22.56
-25.85
-28.08
-28.58
-26.93
-23.08
-17.44
-10.74
-3.82
2.51
7.71
11.56
14.14
15.72
16.64
17.19
17.58
17.89
18.14
18.28
18.32
18.28
18.21
18.16
18.19
18.34
18.6
18.93
19.26
19.45
19.36
18.86
17.93
16.64
15.15
13.63
12.21
10.91
9.63
8.21
6.53
4.57
2.42
0.28
-1.7
-3.47
-5.1
-6.76
-8.69
-11.04
-13.92
-17.25
-20.74
-23.82
-25.77
-25.89
-23.75
-19.4
-13.44
-6.86
-0.64
4.49
8.25
10.75
12.32
13.23
13.66
13.64
13.24
12.57
11.88
11.42
11.39
11.86
12.69
13.65
14.46
14.9
14.9
14.57
14.08
13.62
13.27
12.95
12.48
11.68
10.47
8.89
7.08
5.22
3.42
1.68
-0.03
-1.76
-3.56
-5.49
-7.61
-10.09
-13.1
-16.77
-21.11
-25.91
-30.68
-34.76
-37.42
-38.05
-36.36
-32.48
-26.97
-20.63
-14.31
-8.71
-4.21
-0.92
1.26
2.52
3.08
3.14
2.9
2.53
2.19
2.01
2.03
2.25
2.67
3.23
3.88
4.56
5.18
5.65
5.9
5.88
5.56
4.93
3.99
2.75
1.28
-0.3
-1.83
-3.17
-4.3
-5.27
-6.21
-7.21
-8.29
-9.37
-10.39
-11.37
-12.47
-13.94
-15.97
-18.54
-21.28
-23.57
-24.69
-24.06
-21.48
-17.21
-11.89
-6.32
-1.19
3.05
6.31
8.66
10.25
11.19
11.54
11.41
10.96
10.43
10.02
9.82
9.75
9.7
9.59
9.46
9.43
9.62
10.01
10.44
10.67
10.49
9.89
8.96
7.9
6.83
5.81
4.79
3.68
2.4
0.92
-0.75
-2.52
-4.3
-5.96
-7.43
-8.7
-9.84
-11.02
-12.46
-14.34
-16.76
-19.67
-22.76
-25.57
-27.46
-27.83
-26.29
-22.82
-17.82
-12.01
-6.21
-1.11
2.94
5.89
7.91
9.24
10.06
10.51
10.68
10.71
10.75
10.92
11.28
11.82
12.44
13.09
13.71
14.33
14.95
15.52
15.94
16.08
15.82
15.13
14.09
12.85
11.59
10.42
9.32
8.19
6.85
5.16
3.09
0.76
-1.63
-3.82
-5.62
-6.97
-7.95
-8.78
-9.76
-11.19
-13.26
-15.95
-18.94
-21.67
-23.44
-23.63
-21.91
-18.37
-13.49
-8.01
-2.66
1.99
5.59
8.06
9.47
10.04
10.05
9.82
9.67
9.82
10.35
11.16
12.07
12.87
13.43
13.72
13.79
13.74
13.68
13.67
13.74
13.85
13.93
13.84
13.47
12.68
11.46
9.91
8.2
6.54
5.03
3.64
2.22
0.6
-1.27
-3.32
-5.37
-7.25
-8.87
-10.3
-11.7
-13.25
-15.11
-17.37
-20.02
-22.91
-25.72
-27.94
-29.02
-28.47
-26.08
-21.97
-16.62
-10.69
-4.86
0.29
4.42
7.4
9.34
10.44
10.98
11.25
11.45
11.74
12.2
12.87
13.73
14.72
15.75
16.7
17.51
18.14
18.64
19.02
19.31
19.5
19.53
19.4
19.09
18.63
18.0
17.21
16.21
15.0
13.58
11.98
10.2
8.29
6.29
4.3
2.4
0.68
-0.88
-2.32
-3.71
-5.13
-6.63
-8.32
-10.34
-12.82
-15.8
-19.05
-22.08
-24.22
-24.85
-23.61
-20.57
-16.14
-10.97
-5.75
-1.05
2.8
5.66
7.56
8.63
9.03
8.9
8.37
7.62
6.82
6.15
5.78
5.76
6.07
6.62
7.26
7.88
8.41
8.81
9.08
9.23
9.24
9.06
8.63
7.92
6.91
5.66
4.25
2.79
1.36
-0.03
-1.41
-2.83
-4.33
-5.89
-7.48
-9.09
-10.7
-12.35
-14.07
-15.97
-18.12
-20.48
-22.84
-24.79
-25.77
-25.31
-23.17
-19.5
-14.76
-9.6
-4.63
-0.25
3.33
6.05
7.91
8.91
9.09
8.57
7.57
6.37
5.28
4.53
4.22
4.36
4.81
5.4
5.96
6.34
6.52
6.5
6.34
6.09
5.75
5.31
4.71
3.9
2.82
1.48
-0.1
-1.84
-3.61
-5.3
-6.83
-8.21
-9.54
-11.03
-12.91
-15.34
-18.36
-21.77
-25.13
-27.85
-29.34
-29.17
-27.17
-23.5
-18.59
-13.03
-7.39
-2.22
2.12
5.4
7.57
8.75
9.18
9.16
8.94
8.68
8.44
8.2
7.95
7.69
7.5
7.42
7.5
7.71
8.04
8.39
8.71
8.9
8.88
8.57
7.92
6.91
5.6
4.06
2.41
0.75
-0.84
-2.34
-3.82
-5.37
-7.09
-9.09
-11.41
-14.08
-17.05
-20.15
-23.05
-25.24
-26.21
-25.51
-23.04
-19.02
-14.02
-8.69
-3.64
0.77
4.39
7.25
9.43
10.96
11.82
11.99
11.5
10.52
9.32
8.22
7.49
7.25
7.42
7.77
8.09
8.23
8.2
8.07
7.95
7.8
7.53
7.0
6.1
4.8
3.19
1.39
-0.48
-2.32
-4.09
-5.8
-7.52
-9.35
-11.41
-13.85
-16.75
-20.01
-23.33
-26.18
-27.89
-27.87
-25.78
-21.66
-16.0
-9.53
-3.07
2.69
7.31
10.64
12.73
13.81
14.16
14.03
13.67
13.23
12.85
12.61
12.56
12.66
12.81
12.85
12.64
12.15
11.45
10.73
10.15
9.73
9.34
8.73
7.7
6.13
4.08
1.78
-0.55
-2.67
-4.46
-5.92
-7.19
-8.53
-10.2
-12.47
-15.44
-18.96
-22.6
-25.69
-27.49
-27.42
-25.2
-21.0
-15.35
-8.99
-2.66
3.06
7.82
11.49
14.08
15.69
16.46
16.57
16.25
15.7
15.12
14.64
14.29
14.07
13.88
13.68
13.44
13.2
13.03
13.03
13.2
13.43
13.53
13.23
12.34
10.81
8.76
6.4
3.98
1.65
-0.54
-2.62
-4.68
-6.83
-9.19
-11.86
-14.86
-18.06
-21.1
-23.45
-24.55
-23.95
-21.5
-17.42
-12.21
-6.47
-0.83
4.25
8.49
11.73
13.99
15.36
16.0
16.09
15.83
15.42
15.05
14.88
15.01
15.46
16.13
16.84
17.39
17.63
17.53
17.14
16.61
16.02
15.41
14.7
13.79
12.54
10.9
8.88
6.59
4.17
1.79
-0.45
-2.51
-4.42
-6.36
-8.57
-11.28
-14.62
-18.45
-22.3
-25.49
-27.23
-26.95
-24.49
-20.19
-14.74
-9.03
-3.81
0.44
3.55
5.62
6.86
7.55
7.89
8.09
8.29
8.59
9.01
9.49
9.95
10.3
10.53
10.7
10.94
11.27
11.66
12.01
12.2
12.15
11.9
11.49
10.95
10.23
9.22
7.81
6.02
3.93
1.68
-0.55
-2.64
-4.52
-6.18
-7.68
-9.12
-10.67
-12.51
-14.83
-17.67
-20.87
-24.05
-26.65
-28.04
-27.76
-25.64
-21.91
-17.12
-12.02
-7.25
-3.28
-0.25
1.9
3.34
4.23
4.71
4.89
4.92
5.01
5.33
6.02
7.03
8.19
9.28
10.12
10.69
11.11
11.57
12.2
12.97
13.7
14.13
14.09
13.59
12.82
12.01
11.32
10.76
10.17
9.36
8.22
6.78
5.22
3.77
2.58
1.71
1.09
0.59
0.03
-0.72
-1.81
-3.37
-5.45
-7.93
-10.45
-12.47
-13.42
-12.9
-10.9
-7.74
-4.0
-0.27
3.06
5.76
7.78
9.01
9.28
8.45
6.58
4.04
1.54
-0.12
-0.26
1.46
4.96
9.75
15.06
19.99
23.71
25.57
25.32
23.15
19.67
15.74
12.24
9.79
8.7
8.9
10.13
12.04
14.2
16.23
17.72
18.38
18.04
16.73
14.64
12.05
9.26
6.44
3.65
0.75
-2.48
-6.32
-11.03
-16.64
-22.87
-29.03
-34.07
-36.8
-36.3
-32.2
-24.91
-15.56
-5.69
3.22
10.09
14.44
16.31
16.1
14.32
11.5
8.18
4.96
2.44
1.08
1.02
2.02
3.45
4.51
4.49
2.98
0.03
-3.89
-8.0
-11.41
-13.38
-13.55
-12.07
-9.53
-6.79
-4.68
-3.74
-4.17
-5.81
-8.37
-11.52
-15.02
-18.59
-21.99
-24.89
-27.06
-28.46
-29.31
-30.04
-31.12
-32.85
-35.11
-37.39
-38.89
-38.88
-36.94
-33.18
-28.14
-22.62
-17.39
-12.96
-9.51
-6.93
-4.98
-3.4
-2.06
-0.92
-0.02
0.58
0.95
1.19
1.48
1.98
2.73
3.63
4.57
5.43
6.16
6.77
7.28
7.6
7.65
7.34
6.71
5.87
4.96
4.05
3.15
2.17
1.04
-0.23
-1.62
-3.05
-4.49
-5.9
-7.26
-8.52
-9.66
-10.74
-11.9
-13.32
-15.07
-17.02
-18.76
-19.74
-19.45
-17.63
-14.38
-10.11
-5.38
-0.75
3.38
6.78
9.4
11.24
12.35
12.82
12.76
12.36
11.85
11.41
11.15
11.07
11.13
11.26
11.45
11.7
12.01
12.35
12.62
12.69
12.53
12.1
11.49
10.75
9.9
8.88
7.61
6.04
4.18
2.13
0.05
-1.88
-3.57
-5.02
-6.29
-7.54
-8.93
-10.61
-12.68
-15.16
-17.88
-20.57
-22.79
-24.09
-24.04
-22.4
-19.21
-14.77
-9.58
-4.25
0.67
4.82
8.0
10.23
11.64
12.42
12.75
12.76
12.55
12.24
11.93
11.77
11.81
12.05
12.39
12.7
12.9
12.97
12.93
12.78
12.49
12.02
11.31
10.4
9.4
8.39
7.42
6.4
5.15
3.52
1.42
-1.06
-3.71
-6.3
-8.67
-10.78
-12.75
-14.76
-17.01
-19.63
-22.63
-25.84
-28.92
-31.37
-32.63
-32.22
-29.95
-25.98
-20.79
-15.1
-9.59
-4.77
-0.91
1.97
3.99
5.35
6.27
6.99
7.7
8.5
9.37
10.17
10.71
10.87
10.66
10.27
9.93
9.86
10.17
10.81
11.6
12.34
12.79
12.81
12.37
11.53
10.43
9.25
8.1
7.0
5.89
4.66
3.21
1.54
-0.26
-2.05
-3.7
-5.17
-6.52
-7.93
-9.59
-11.71
-14.35
-17.43
-20.67
-23.58
-25.55
-26.01
-24.57
-21.21
-16.26
-10.39
-4.41
0.96
5.26
8.38
10.49
11.89
12.89
13.68
14.34
14.85
15.22
15.49
15.72
15.95
16.14
16.22
16.12
15.84
15.49
15.22
15.14
15.18
15.18
14.85
14.04
12.74
11.15
9.56
8.2
7.1
6.1
4.96
3.5
1.73
-0.18
-2.0
-3.57
-4.85
-5.93
-6.94
-8.01
-9.22
-10.65
-12.37
-14.4
-16.6
-18.61
-19.87
-19.78
-17.91
-14.2
-9.04
-3.1
2.86
8.19
12.52
15.74
17.91
19.17
19.69
19.62
19.16
18.46
17.68
16.9
16.17
15.52
15.01
14.69
14.58
14.63
14.69
14.56
14.09
13.25
12.12
10.84
9.53
8.23
6.88
5.44
3.89
2.28
0.68
-0.89
-2.45
-4.02
-5.61
-7.13
-8.49
-9.67
-10.74
-11.91
-13.42
-15.41
-17.8
-20.27
-22.3
-23.34
-22.95
-20.99
-17.65
-13.36
-8.67
-4.1
-0.04
3.3
5.81
7.45
8.22
8.19
7.5
6.42
5.2
4.14
3.38
3.01
3.04
3.4
4.04
4.84
5.64
6.28
6.61
6.62
6.37
5.98
5.56
5.07
4.43
3.51
2.27
0.79
-0.73
-2.12
-3.27
-4.26
-5.21
-6.35
-7.87
-9.89
-12.45
-15.4
-18.42
-20.99
-22.54
-22.55
-20.82
-17.51
-13.14
-8.46
-4.2
-0.88
1.27
2.3
2.42
1.89
0.95
-0.24
-1.51
-2.7
-3.62
-4.15
-4.24
-4.0
-3.62
-3.33
-3.2
-3.16
-3.02
-2.59
-1.77
-0.63
0.58
1.56
2.08
2.03
1.49
0.63
-0.34
-1.25
-2.01
-2.68
-3.38
-4.31
-5.66
-7.56
-10.04
-12.9
-15.72
-17.87
-18.71
-17.75
-14.9
-10.52
-5.28
0.04
4.9
9.09
12.72
16.02
19.11
21.86
24.03
25.4
25.94
25.95
25.9
26.36
27.77
30.27
33.69
37.58
41.3
44.2
45.75
45.67
43.94
40.81
36.74
32.35
28.29
25.06
22.88
21.65
21.12
21.16
21.94
23.96
27.68
33.14
39.67
45.95
50.48
52.18
50.8
46.96
41.8
36.5
31.89
28.28
25.49
23.07
20.31
16.46
10.84
3.11
-6.49
-17.07
-27.18
-35.28
-40.13
-41.14
-38.45
-32.8
-25.27
-17.04
-9.34
-3.29
0.1
0.15
-3.32
-9.83
-18.34
-27.46
-35.86
-42.54
-47.09
-49.68
-50.92
-51.67
-52.72
-54.55
-57.29
-60.73
-64.43
-67.94
-70.92
-73.13
-74.52
-75.14
-75.09
-74.56
-73.69
-72.53
-70.97
-68.71
-65.32
-60.46
-54.0
-46.17
-37.47
-28.58
-20.14
-12.63
-6.32
-1.28
2.54
5.32
7.27
8.61
9.58
10.4
11.21
12.08
13.01
13.89
14.64
15.22
15.66
16.05
16.47
16.94
17.34
17.52
17.31
16.67
15.68
14.5
13.25
11.96
10.54
8.88
6.94
4.79
2.6
0.53
-1.33
-3.02
-4.65
-6.38
-8.35
-10.69
-13.43
-16.54
-19.74
-22.58
-24.42
-24.66
-22.92
-19.22
-14.0
-7.98
-2.0
3.3
7.53
10.6
12.59
13.68
14.03
13.78
13.08
12.06
10.94
9.95
9.29
9.1
9.4
10.1
11.03
11.99
12.79
13.3
13.44
13.25
12.82
12.24
11.62
10.94
10.11
9.05
7.7
6.15
4.55
3.09
1.86
0.81
-0.21
-1.37
-2.84
-4.69
-6.94
-9.53
-12.33
-15.03
-17.16
-18.15
-17.5
-15.02
-10.94
-5.83
-0.46
4.43
8.38
11.23
13.03
13.99
14.32
14.16
13.63
12.84
11.91
11.02
10.29
9.85
9.72
9.86
10.17
10.55
10.94
11.32
11.72
12.12
12.41
12.46
12.07
11.13
9.66
7.8
5.76
3.75
1.92
0.3
-1.12
-2.45
-3.79
-5.24
-6.89
-8.81
-11.06
-13.65
-16.44
-19.12
-21.21
-22.12
-21.38
-18.82
-14.67
-9.53
-4.15
0.77
4.74
7.56
9.19
9.7
9.15
7.69
5.54
3.07
0.76
-0.93
-1.7
-1.46
-0.36
1.35
3.4
5.66
8.06
10.62
13.26
15.81
18.02
19.61
20.45
20.58
20.18
19.52
18.77
18.02
17.26
16.43
15.56
14.7
13.89
13.13
12.26
11.04
9.22
6.66
3.45
-0.09
-3.45
-6.09
-7.55
-7.58
-6.21
-3.71
-0.53
2.8
5.78
8.09
9.57
10.27
10.38
10.15
9.86
9.7
9.76
10.07
10.58
11.22
11.92
12.58
13.15
13.58
13.84
13.9
13.71
13.21
12.32
11.08
9.62
8.21
7.15
6.71
6.99
7.89
9.14
10.42
11.44
12.06
12.18
11.81
10.94
9.55
7.61
5.15
2.31
-0.64
-3.3
-5.23
-6.0
-5.26
-2.87
1.08
6.15
11.63
16.61
20.12
21.46
20.3
16.84
11.68
5.61
-0.56
-6.27
-11.2
-15.26
-18.43
-20.69
-22.04
-22.5
-22.21
-21.43
-20.43
-19.37
-18.24
-16.87
-15.06
-12.73
-10.02
-7.31
-5.01
-3.44
-2.7
-2.69
-3.21
-4.13
-5.37
-6.95
-8.87
-11.11
-13.54
-16.09
-18.74
-21.53
-24.43
-27.25
-29.56
-30.76
-30.3
-27.92
-23.84
-18.61
-13.05
-7.86
-3.54
-0.21
2.2
3.89
5.05
5.78
6.17
6.33
6.34
6.32
6.36
6.5
6.74
7.02
7.33
7.65
7.99
8.4
8.87
9.36
9.78
10.02
10.0
9.66
9.0
8.06
6.89
5.52
3.99
2.35
0.69
-0.89
-2.32
-3.56
-4.68
-5.82
-7.13
-8.73
-10.68
-12.96
-15.43
-17.83
-19.77
-20.78
-20.39
-18.34
-14.66
-9.76
-4.31
0.96
5.45
8.86
11.19
12.63
13.46
13.88
14.02
13.95
13.72
13.39
13.02
12.65
12.31
11.98
11.68
11.42
11.24
11.13
11.07
10.98
10.79
10.44
9.86
9.04
7.97
6.72
5.39
4.05
2.73
1.37
-0.14
-1.9
-3.89
-5.99
-7.97
-9.67
-11.03
-12.15
-13.28
-14.69
-16.55
-18.87
-21.39
-23.59
-24.84
-24.53
-22.31
-18.24
-12.73
-6.46
-0.14
5.69
10.68
14.7
17.69
19.67
20.71
21.04
21.03
21.14
21.76
23.06
24.95
27.05
28.86
30.0
30.33
30.01
29.41
28.9
28.65
28.56
28.32
27.57
26.01
23.62
20.61
17.44
14.82
13.54
14.37
17.79
23.71
31.29
39.02
45.13
48.18
47.51
43.45
36.98
29.34
21.52
14.08
7.24
1.15
-3.94
-7.72
-10.0
-10.91
-10.96
-10.81
-11.01
-11.84
-13.2
-14.85
-16.51
-18.05
-19.49
-20.94
-22.51
-24.26
-26.15
-28.05
-29.75
-30.98
-31.52
-31.27
-30.33
-28.96
-27.45
-26.03
-24.75
-23.56
-22.39
-21.22
-20.17
-19.4
-18.98
-18.87
-18.85
-18.67
-18.15
-17.33
-16.41
-15.69
-15.38
-15.51
-15.96
-16.52
-17.01
-17.42
-17.79
-18.24
-18.85
-19.7
-20.83
-22.23
-23.81
-25.29
-26.21
-26.01
-24.25
-20.79
-15.93
-10.34
-4.85
-0.15
3.35
5.63
6.89
7.47
7.64
7.55
7.25
6.75
6.14
5.54
5.11
4.95
5.06
5.34
5.68
6.0
6.29
6.58
6.9
7.21
7.45
7.52
7.36
6.94
6.26
5.3
4.08
2.67
1.2
-0.19
-1.36
-2.33
-3.18
-4.12
-5.32
-6.88
-8.77
-10.86
-12.95
-14.79
-16.1
-16.55
-15.86
-13.89
-10.71
-6.65
-2.21
2.06
5.73
8.54
10.43
11.48
11.83
11.65
11.11
10.36
9.58
8.91
8.46
8.31
8.45
8.83
9.33
9.79
10.07
10.08
9.79
9.24
8.54
7.8
7.11
6.49
5.95
5.42
4.8
4.01
2.96
1.68
0.24
-1.22
-2.6
-3.83
-5.01
-6.3
-7.92
-10.05
-12.69
-15.66
-18.55
-20.83
-21.96
-21.57
-19.56
-16.19
-11.98
-7.58
-3.62
-0.49
1.68
3.01
3.75
4.14
4.36
4.44
4.37
4.14
3.79
3.45
3.27
3.35
3.69
4.21
4.76
5.23
5.59
5.88
6.14
6.36
6.49
6.43
6.1
5.52
4.73
3.79
2.7
1.48
0.14
-1.25
-2.54
-3.59
-4.33
-4.83
-5.23
-5.72
-6.44
-7.43
-8.62
-9.82
-10.75
-11.04
-10.4
-8.66
-5.88
-2.4
1.34
4.89
7.93
10.33
12.13
13.37
14.1
14.31
14.01
13.29
12.33
11.35
10.57
10.1
9.92
9.93
9.98
10.02
10.02
9.96
9.84
9.62
9.22
8.61
7.81
6.87
5.83
4.67
3.36
1.83
0.11
-1.73
-3.53
-5.21
-6.72
-8.11
-9.45
-10.85
-12.39
-14.16
-16.16
-18.3
-20.34
-21.89
-22.48
-21.72
-19.42
-15.75
-11.13
-6.21
-1.61
2.17
4.88
6.53
7.29
7.46
7.3
7.02
6.74
6.47
6.23
6.06
6.02
6.19
6.57
7.09
7.61
7.95
8.02
7.8
7.4
6.96
6.57
6.23
5.85
5.31
4.49
3.34
1.91
0.28
-1.4
-3.06
-4.66
-6.18
-7.61
-8.95
-10.17
-11.31
-12.51
-14.01
-16.03
-18.64
-21.64
-24.57
-26.77
-27.64
-26.78
-24.18
-20.13
-15.2
-10.01
-5.11
-0.87
2.51
5.04
6.83
8.04
8.87
9.47
9.95
10.37
10.72
10.97
11.1
11.12
11.12
11.19
11.41
11.78
12.24
12.66
12.91
12.93
12.66
12.1
11.26
10.17
8.88
7.47
6.02
4.59
3.18
1.72
0.13
-1.63
-3.56
-5.58
-7.57
-9.45
-11.2
-12.87
-14.63
-16.66
-19.15
-22.08
-25.23
-28.09
-30.0
-30.34
-28.76
-25.3
-20.37
-14.64
-8.78
-3.36
1.26
4.86
7.43
9.04
9.9
10.29
10.47
10.62
10.84
11.13
11.48
11.91
12.46
13.18
14.02
14.94
15.87
16.79
17.71
18.62
19.44
20.03
20.27
20.07
19.46
18.54
17.46
16.35
15.25
14.1
12.82
11.27
9.36
7.12
4.68
2.24
0.01
-1.88
-3.42
-4.73
-6.0
-7.44
-9.25
-11.54
-14.34
-17.48
-20.57
-23.01
-24.14
-23.43
-20.67
-16.1
-10.34
-4.2
1.53
6.3
9.86
12.25
13.67
14.35
14.46
14.1
13.36
12.37
11.36
10.55
10.14
10.17
10.56
11.13
11.73
12.26
12.71
13.11
13.42
13.59
13.49
13.07
12.29
11.22
9.94
8.53
7.03
5.44
3.73
1.91
0.03
-1.83
-3.62
-5.28
-6.84
-8.38
-9.98
-11.75
-13.75
-16.05
-18.62
-21.26
-23.56
-24.95
-24.83
-22.82
-18.92
-13.57
-7.5
-1.52
3.79
8.13
11.5
14.02
15.8
16.88
17.26
17.02
16.33
15.47
14.65
14.01
13.52
13.11
12.74
12.47
12.43
12.69
13.18
13.67
13.85
13.47
12.44
10.85
8.88
6.69
4.35
1.85
-0.85
-3.74
-6.74
-9.74
-12.6
-15.2
-17.51
-19.57
-21.53
-23.61
-25.99
-28.77
-31.77
-34.59
-36.62
-37.28
-36.16
-33.17
-28.55
-22.8
-16.55
-10.41
-4.93
-0.5
2.72
4.71
5.68
5.92
5.76
5.41
5.03
4.71
4.51
4.52
4.82
5.45
6.37
7.44
8.47
9.27
9.73
9.81
9.58
9.1
8.44
7.64
6.7
5.6
4.33
2.86
1.21
-0.64
-2.67
-4.8
-6.92
-8.93
-10.77
-12.53
-14.4
-16.63
-19.39
-22.63
-26.06
-29.16
-31.29
-31.84
-30.41
-26.88
-21.52
-14.93
-7.93
-1.35
4.15
8.26
11.0
12.63
13.47
13.82
13.84
13.63
13.3
12.98
12.84
12.99
13.43
14.07
14.75
15.34
15.77
16.01
16.06
15.92
15.62
15.12
14.44
13.55
12.39
10.89
9.02
6.77
4.25
1.61
-0.99
-3.42
-5.63
-7.64
-9.51
-11.34
-13.26
-15.42
-17.97
-20.99
-24.37
-27.78
-30.63
-32.25
-32.0
-29.55
-24.98
-18.8
-11.84
-5.01
0.96
5.66
9.03
11.34
12.97
14.25
15.48
16.77
18.16
19.58
20.92
22.02
22.74
23.07
23.08
23.0
23.09
23.53
24.33
25.33
26.27
26.87
26.99
26.64
25.94
25.06
24.07
23.01
21.83
20.47
18.92
17.23
15.51
13.91
12.56
11.55
10.84
10.27
9.46
7.93
5.15
0.8
-5.06
-11.83
-18.46
-23.72
-26.61
-26.7
-24.23
-20.0
-15.04
-10.26
-6.24
-3.12
-0.83
0.82
1.93
2.53
2.59
2.15
1.39
0.57
0.02
-0.06
0.43
1.37
2.57
3.79
4.9
5.84
6.64
7.3
7.77
7.93
7.67
6.91
5.71
4.2
2.58
1.03
-0.29
-1.37
-2.25
-3.05
-3.92
-5.02
-6.44
-8.24
-10.45
-13.04
-15.99
-19.19
-22.39
-25.18
-26.98
-27.18
-25.26
-20.98
-14.41
-5.93
3.86
14.2
24.22
32.99
39.59
43.26
43.6
40.74
35.31
28.41
21.24
14.92
10.18
7.32
6.23
6.53
7.77
9.59
11.8
14.37
17.25
20.26
23.0
24.84
25.21
23.73
20.47
15.85
10.49
4.94
-0.47
-5.68
-10.75
-15.74
-20.67
-25.55
-30.46
-35.51
-40.75
-45.96
-50.6
-53.87
-54.95
-53.39
-49.24
-43.09
-35.81
-28.36
-21.46
-15.55
-10.79
-7.17
-4.58
-2.88
-1.91
-1.47
-1.34
-1.33
-1.26
-1.02
-0.57
0.06
0.8
1.6
2.42
3.25
4.05
4.74
5.16
5.17
4.72
3.86
2.73
1.48
0.19
-1.16
-2.66
-4.32
-6.06
-7.73
-9.21
-10.55
-12.0
-13.91
-16.5
-19.74
-23.18
-26.06
-27.55
-27.0
-24.14
-19.22
-12.86
-5.93
0.79
6.68
11.47
15.17
18.02
20.37
22.58
24.91
27.54
30.45
33.46
36.23
38.33
39.37
39.09
37.51
34.94
31.83
28.68
25.83
23.42
21.35
19.37
17.15
14.4
10.9
6.59
1.61
-3.71
-8.89
-13.48
-17.17
-19.93
-22.0
-23.78
-25.68
-28.0
-30.83
-34.01
-37.17
-39.81
-41.33
-41.19
-39.07
-34.95
-29.19
-22.48
-15.65
-9.5
-4.54
-0.99
1.31
2.7
3.59
4.29
4.96
5.61
6.2
6.68
7.09
7.49
8.01
8.7
9.55
10.49
11.38
12.1
12.56
12.73
12.63
12.29
11.76
11.03
10.07
8.86
7.39
5.65
3.69
1.54
-0.75
-3.05
-5.21
-7.0
-8.2
-8.68
-8.42
-7.54
-6.16
-4.32
-1.92
1.23
5.28
10.14
15.45
20.59
24.85
27.67
28.82
28.41
26.83
24.56
22.02
19.47
16.95
14.41
11.76
8.93
5.93
2.79
-0.42
-3.64
-6.7
-9.45
-11.67
-13.24
-14.15
-14.52
-14.58
-14.57
-14.63
-14.79
-14.97
-15.08
-15.08
-15.07
-15.18
-15.58
-16.33
-17.38
-18.56
-19.67
-20.56
-21.2
-21.64
-22.01
-22.53
-23.38
-24.73
-26.56
-28.61
-30.37
-31.17
-30.4
-27.73
-23.26
-17.49
-11.19
-5.13
0.14
4.36
7.52
9.76
11.26
12.19
12.61
12.61
12.28
11.76
11.2
10.78
10.57
10.57
10.71
10.91
11.14
11.46
11.9
12.46
13.01
13.36
13.29
12.72
11.68
10.34
8.93
7.62
6.48
5.47
4.47
3.33
1.95
0.31
-1.49
-3.33
-5.08
-6.65
-8.06
-9.38
-10.77
-12.37
-14.34
-16.79
-19.66
-22.7
-25.38
-27.03
-27.0
-24.88
-20.74
-15.05
-8.61
-2.25
3.38
7.94
11.33
13.63
15.0
15.64
15.76
15.6
15.36
15.22
15.25
15.48
15.87
16.37
16.92
17.48
17.99
18.46
18.86
19.19
19.45
19.66
19.78
19.76
19.51
18.95
18.03
16.75
15.22
13.61
12.13
10.94
10.04
9.34
8.64
7.73
6.51
4.99
3.32
1.65
0.05
-1.5
-3.15
-5.05
-7.33
-10.01
-13.03
-16.18
-19.18
-21.61
-23.0
-22.94
-21.21
-17.9
-13.39
-8.32
-3.33
1.1
4.66
7.29
9.04
10.04
10.4
10.29
9.87
9.38
8.96
8.71
8.6
8.55
8.48
8.39
8.37
8.52
8.9
9.49
10.12
10.59
10.69
10.31
9.43
8.16
6.63
5.0
3.38
1.82
0.33
-1.12
-2.59
-4.07
-5.54
-6.96
-8.31
-9.61
-10.89
-12.23
-13.69
-15.32
-17.16
-19.21
-21.38
-23.45
-25.03
-25.62
-24.79
-22.29
-18.25
-13.12
-7.57
-2.25
2.33
5.91
8.43
9.92
10.46
10.19
9.28
8.0
6.64
5.48
4.71
4.4
4.53
4.98
5.62
6.33
7.05
7.7
8.26
8.67
8.89
8.82
8.43
7.71
6.72
5.55
4.28
2.9
1.35
-0.41
-2.38
-4.41
-6.33
-8.05
-9.55
-10.99
-12.58
-14.53
-16.91
-19.61
-22.35
-24.72
-26.23
-26.46
-25.11
-22.1
-17.68
-12.34
-6.71
-1.39
3.16
6.7
9.21
10.73
11.38
11.31
10.67
9.71
8.67
7.78
7.16
6.86
6.79
6.82
6.87
6.87
6.84
6.81
6.8
6.8
6.74
6.5
6.0
5.18
4.08
2.76
1.3
-0.28
-1.98
-3.85
-5.87
-7.97
-9.99
-11.81
-13.37
-14.77
-16.23
-18.01
-20.32
-23.17
-26.35
-29.41
-31.78
-32.83
-32.13
-29.5
-25.14
-19.56
-13.47
-7.56
-2.39
1.78
4.91
7.11
8.5
9.21
9.33
8.98
8.36
7.73
7.31
7.24
7.52
8.05
8.7
9.38
10.08
10.82
11.59
12.3
12.82
13.01
12.77
12.15
11.2
10.05
8.74
7.3
5.7
3.89
1.85
-0.44
-2.94
-5.57
-8.19
-10.61
-12.71
-14.51
-16.16
-17.98
-20.3
-23.23
-26.57
-29.79
-32.1
-32.76
-31.27
-27.53
-21.88
-15.0
-7.65
-0.63
5.51
10.41
14.0
16.39
17.82
18.55
18.77
18.61
18.11
17.38
16.58
15.96
15.7
15.91
16.47
17.18
17.76
18.03
17.95
17.59
17.08
16.46
15.7
14.69
13.35
11.68
9.72
7.59
5.38
3.17
0.99
-1.16
-3.33
-5.51
-7.69
-9.78
-11.69
-13.4
-14.99
-16.71
-18.84
-21.62
-25.01
-28.64
-31.78
-33.52
-33.05
-29.97
-24.47
-17.25
-9.34
-1.76
4.75
9.86
13.57
16.06
17.56
18.24
18.27
17.93
17.55
17.44
17.78
18.57
19.64
20.75
21.76
22.6
23.29
23.87
24.29
24.5
24.41
23.98
23.21
22.16
20.88
19.41
17.76
15.95
13.99
11.88
9.64
7.26
4.74
2.1
-0.57
-3.18
-5.58
-7.71
-9.65
-11.64
-13.97
-16.88
-20.35
-24.08
-27.45
-29.74
-30.3
-28.79
-25.25
-20.1
-13.94
-7.47
-1.29
4.15
8.51
11.63
13.47
14.13
13.84
12.9
11.64
10.33
9.18
8.31
7.83
7.76
8.09
8.72
9.5
10.25
10.81
11.05
10.96
10.55
9.89
9.02
8.0
6.78
5.36
3.66
1.64
-0.7
-3.27
-5.93
-8.48
-10.74
-12.61
-14.11
-15.4
-16.74
-18.42
-20.61
-23.26
-26.03
-28.35
-29.5
-28.83
-26.03
-21.2
-14.9
-7.97
-1.33
4.28
8.47
11.18
12.58
12.96
12.58
11.66
10.38
8.98
7.69
6.74
6.27
6.28
6.66
7.22
7.8
8.29
8.67
8.98
9.24
9.43
9.46
9.18
8.43
7.14
5.34
3.16
0.81
-1.51
-3.67
-5.67
-7.56
-9.49
-11.64
-14.16
-17.2
-20.79
-24.78
-28.8
-32.22
-34.29
-34.36
-32.07
-27.48
-21.1
-13.75
-6.28
0.55
6.23
10.52
13.43
15.12
15.86
15.95
15.66
15.17
14.6
14.03
13.58
13.33
13.39
13.76
14.32
14.84
15.12
15.07
14.81
14.57
14.47
14.44
14.16
13.24
11.4
8.71
5.53
2.34
-0.47
-2.75
-4.63
-6.34
-8.19
-10.37
-13.01
-16.17
-19.78
-23.62
-27.22
-29.93
-31.04
-30.0
-26.61
-21.16
-14.3
-6.96
-0.01
5.87
10.37
13.49
15.44
16.47
16.77
16.46
15.64
14.49
13.3
12.43
12.14
12.51
13.33
14.24
14.87
15.02
14.78
14.35
13.98
13.72
13.42
12.8
11.65
9.88
7.61
5.08
2.52
0.12
-2.05
-4.01
-5.9
-7.89
-10.23
-13.09
-16.53
-20.34
-24.07
-27.01
-28.47
-27.89
-25.07
-20.23
-13.95
-6.98
-0.15
5.92
10.82
14.38
16.66
17.83
18.09
17.65
16.71
15.51
14.3
13.34
12.83
12.81
13.16
13.61
13.91
13.91
13.63
13.2
12.74
12.33
11.87
11.24
10.31
9.02
7.38
5.44
3.31
1.07
-1.17
-3.32
-5.34
-7.3
-9.34
-11.68
-14.53
-17.94
-21.81
-25.81
-29.38
-31.84
-32.55
-31.05
-27.25
-21.48
-14.47
-7.14
-0.37
5.21
9.35
12.13
13.83
14.74
15.09
14.98
14.49
13.7
12.84
12.19
12.04
12.52
13.53
14.79
15.92
16.65
16.86
16.62
16.09
15.4
14.58
13.58
12.34
10.87
9.24
7.53
5.8
4.02
2.14
0.11
-2.05
-4.25
-6.42
-8.57
-10.82
-13.38
-16.38
-19.76
-23.16
-25.98
-27.54
-27.29
-25.02
-20.94
-15.62
-9.79
-4.17
0.74
4.7
7.74
10.0
11.6
12.6
12.99
12.79
12.09
11.13
10.19
9.54
9.31
9.46
9.86
10.31
10.68
10.9
10.99
10.98
10.88
10.67
10.33
9.78
8.98
7.88
6.47
4.78
2.88
0.88
-1.1
-2.99
-4.78
-6.53
-8.33
-10.31
-12.6
-15.28
-18.39
-21.78
-25.12
-27.89
-29.47
-29.33
-27.19
-23.19
-17.81
-11.81
-5.92
-0.73
3.47
6.65
8.93
10.49
11.5
12.06
12.28
12.27
12.17
12.11
12.23
12.57
13.15
13.87
14.65
15.39
16.01
16.49
16.79
16.87
16.67
16.14
15.24
14.0
12.51
10.87
9.18
7.51
5.87
4.17
2.33
0.29
-1.95
-4.26
-6.48
-8.49
-10.24
-11.92
-13.8
-16.2
-19.25
-22.81
-26.4
-29.33
-30.89
-30.56
-28.18
-23.95
-18.42
-12.3
-6.27
-0.88
3.53
6.84
9.08
10.43
11.13
11.45
11.61
11.79
12.07
12.45
12.94
13.51
14.19
14.97
15.81
16.6
17.29
17.81
18.19
18.48
18.7
18.73
18.43
17.64
16.33
14.63
12.77
11.0
9.44
8.05
6.64
5.01
3.02
0.66
-1.91
-4.44
-6.72
-8.63
-10.28
-11.96
-14.06
-16.87
-20.52
-24.82
-29.32
-33.4
-36.42
-37.83
-37.3
-34.79
-30.6
-25.34
-19.75
-14.57
-10.31
-7.17
-5.04
-3.71
-2.91
-2.51
-2.43
-2.59
-2.87
-3.1
-3.13
-2.87
-2.35
-1.61
-0.73
0.25
1.33
2.47
3.64
4.78
5.86
6.85
7.71
8.37
8.73
8.7
8.28
7.58
6.77
6.05
5.57
5.37
5.42
5.56
5.61
5.37
4.65
3.38
1.62
-0.36
-2.14
-3.15
-2.86
-0.96
2.49
7.03
11.88
16.22
19.41
21.2
21.71
21.29
20.29
18.93
17.25
15.19
12.74
9.89
6.67
3.09
-0.84
-5.09
-9.49
-13.7
-17.3
-19.91
-21.36
-21.73
-21.27
-20.25
-18.88
-17.22
-15.28
-13.07
-10.71
-8.41
-6.4
-4.81
-3.65
-2.79
-2.07
-1.37
-0.67
-0.03
0.44
0.7
0.73
0.53
0.12
-0.53
-1.47
-2.7
-4.17
-5.74
-7.29
-8.77
-10.27
-12.0
-14.14
-16.73
-19.54
-22.11
-23.83
-24.15
-22.78
-19.77
-15.5
-10.53
-5.47
-0.8
3.14
6.15
8.14
9.11
9.22
8.73
7.99
7.31
6.87
6.71
6.74
6.89
7.13
7.48
7.99
8.65
9.36
10.01
10.49
10.74
10.77
10.67
10.49
10.26
9.98
9.61
9.12
8.47
7.61
6.54
5.26
3.83
2.32
0.86
-0.47
-1.63
-2.67
-3.7
-4.9
-6.44
-8.45
-10.94
-13.75
-16.53
-18.75
-19.83
-19.3
-17.0
-13.15
-8.3
-3.21
1.45
5.19
7.84
9.42
10.13
10.17
9.72
8.92
7.87
6.7
5.49
4.42
3.65
3.31
3.42
3.9
4.57
5.21
5.65
5.77
5.56
5.07
4.38
3.53
2.55
1.43
0.14
-1.32
-2.91
-4.6
-6.32
-8.02
-9.65
-11.19
-12.69
-14.24
-15.95
-17.94
-20.21
-22.58
-24.67
-25.93
-25.81
-23.99
-20.46
-15.6
-9.99
-4.29
0.99
5.51
9.1
11.73
13.4
14.19
14.23
13.73
12.91
12.0
11.19
10.63
10.36
10.4
10.68
11.06
11.4
11.58
11.52
11.24
10.8
10.26
9.64
8.89
7.93
6.66
5.03
3.01
0.64
-1.98
-4.73
-7.49
-10.14
-12.67
-15.16
-17.78
-20.69
-23.92
-27.27
-30.29
-32.33
-32.76
-31.2
-27.63
-22.48
-16.46
-10.34
-4.75
-0.08
3.51
6.06
7.67
8.45
8.52
8.04
7.22
6.28
5.45
4.93
4.81
5.1
5.68
6.37
7.01
7.51
7.88
8.2
8.53
8.84
9.0
8.83
8.16
6.95
5.32
3.46
1.6
-0.14
-1.78
-3.45
-5.32
-7.54
-10.2
-13.29
-16.7
-20.15
-23.22
-25.35
-25.96
-24.68
-21.43
-16.53
-10.57
-4.28
1.67
6.77
10.71
13.38
14.79
15.06
14.43
13.21
11.71
10.2
8.9
7.92
7.33
7.17
7.43
8.01
8.74
9.41
9.84
9.91
9.65
9.09
8.3
7.26
5.92
4.21
2.17
-0.06
-2.26
-4.18
-5.74
-6.96
-8.08
-9.37
-11.07
-13.29
-16.0
-18.99
-21.88
-24.18
-25.36
-24.93
-22.58
-18.33
-12.54
-5.89
0.85
6.96
12.0
15.81
18.48
20.21
21.23
21.71
21.78
21.55
21.16
20.76
20.48
20.38
20.41
20.47
20.48
20.36
20.11
19.73
19.23
18.58
17.78
16.8
15.62
14.19
12.49
10.46
8.13
5.63
3.17
0.95
-0.9
-2.43
-3.81
-5.31
-7.14
-9.46
-12.3
-15.59
-19.06
-22.28
-24.66
-25.6
-24.64
-21.63
-16.86
-10.94
-4.64
1.32
6.44
10.49
13.41
15.26
16.12
16.09
15.32
14.05
12.57
11.17
10.08
9.4
9.12
9.13
9.31
9.54
9.75
9.89
9.96
9.95
9.83
9.56
9.06
8.2
6.92
5.19
3.14
0.92
-1.3
-3.4
-5.34
-7.11
-8.72
-10.12
-11.33
-12.46
-13.73
-15.39
-17.57
-20.18
-22.83
-24.87
-25.62
-24.6
-21.68
-17.13
-11.59
-5.79
-0.44
4.01
7.37
9.67
11.09
11.8
11.99
11.8
11.39
10.92
10.54
10.35
10.37
10.56
10.84
11.15
11.41
11.62
11.73
11.76
11.68
11.48
11.15
10.69
10.06
9.24
8.19
6.89
5.34
3.61
1.82
0.12
-1.4
-2.68
-3.8
-4.87
-6.03
-7.39
-9.02
-10.96
-13.14
-15.39
-17.34
-18.52
-18.38
-16.53
-12.9
-7.83
-1.98
3.89
9.07
13.15
15.99
17.63
18.26
18.12
17.48
16.67
16.01
15.75
15.95
16.53
17.26
17.94
18.48
18.92
19.43
20.24
21.48
23.17
25.18
27.21
28.9
29.91
30.07
29.38
28.0
26.16
24.01
21.52
18.52
14.76
10.07
4.5
-1.62
-7.64
-12.76
-16.1
-17.01
-15.28
-11.35
-6.28
-1.5
1.71
2.56
1.01
-2.33
-6.51
-10.68
-14.23
-16.91
-18.67
-19.55
-19.66
-19.23
-18.65
-18.41
-18.96
-20.52
-22.92
-25.68
-28.17
-29.79
-30.18
-29.29
-27.27
-24.39
-20.9
-16.98
-12.76
-8.31
-3.78
0.62
4.64
8.05
10.74
12.77
14.35
15.69
16.98
18.26
19.5
20.65
21.68
22.58
23.24
23.5
23.07
21.7
19.25
15.8
11.54
6.74
1.55
-3.95
-9.8
-15.95
-22.19
-28.01
-32.73
-35.58
-36.05
-34.04
-29.93
-24.51
-18.69
-13.19
-8.42
-4.42
-1.04
1.88
4.4
6.49
8.1
9.31
10.25
11.12
12.06
13.12
14.2
15.14
15.75
15.9
15.51
14.61
13.26
11.58
9.67
7.58
5.33
2.89
0.27
-2.48
-5.24
-7.87
-10.27
-12.4
-14.36
-16.32
-18.39
-20.62
-22.92
-25.06
-26.8
-27.96
-28.51
-28.59
-28.5
-28.59
-29.16
-30.3
-31.85
-33.42
-34.43
-34.32
-32.72
-29.51
-24.92
-19.39
-13.48
-7.75
-2.66
1.47
4.42
6.17
6.86
6.76
6.25
5.64
5.18
4.92
4.84
4.88
4.98
5.16
5.47
5.93
6.51
7.12
7.59
7.82
7.71
7.22
6.37
5.2
3.78
2.25
0.8
-0.28
-0.68
-0.12
1.49
3.98
6.89
9.6
11.46
11.97
10.88
8.2
4.15
-0.88
-6.32
-11.42
-15.42
-17.64
-17.74
-15.82
-12.48
-8.61
-5.18
-2.83
-1.8
-1.88
-2.61
-3.53
-4.39
-5.17
-6.01
-7.01
-8.15
-9.24
-9.99
-10.19
-9.76
-8.8
-7.53
-6.18
-4.86
-3.65
-2.56
-1.63
-0.94
-0.59
-0.66
-1.16
-2.02
-3.16
-4.46
-5.83
-7.21
-8.55
-9.84
-11.09
-12.39
-13.85
-15.59
-17.71
-20.27
-23.28
-26.64
-30.13
-33.32
-35.61
-36.34
-34.99
-31.42
-25.93
-19.23
-12.23
-5.76
-0.36
3.72
6.48
8.1
8.77
8.75
8.32
7.78
7.36
7.2
7.32
7.66
8.13
8.67
9.25
9.87
10.46
10.95
11.27
11.37
11.22
10.83
10.16
9.15
7.76
6.01
3.99
1.88
-0.2
-2.17
-4.04
-5.87
-7.71
-9.55
-11.37
-13.21
-15.21
-17.6
-20.57
-24.09
-27.8
-31.02
-32.89
-32.68
-30.02
-25.01
-18.23
-10.53
-2.8
4.16
9.84
13.95
16.5
17.68
17.8
17.21
16.23
15.1
13.96
12.93
12.07
11.49
11.24
11.34
11.77
12.42
13.18
13.92
14.51
14.88
14.94
14.68
14.1
13.24
12.13
10.75
9.06
7.02
4.64
2.07
-0.48
-2.8
-4.79
-6.52
-8.17
-10.0
-12.24
-14.99
-18.21
-21.66
-24.85
-27.16
-27.87
-26.39
-22.46
-16.27
-8.48
-0.02
8.1
15.07
20.39
23.91
25.76
26.25
25.75
24.62
23.2
21.77
20.54
19.66
19.13
18.89
18.83
18.8
18.75
18.69
18.64
18.6
18.47
18.13
17.41
16.22
14.58
12.57
10.37
8.1
5.84
3.55
1.14
-1.47
-4.25
-7.02
-9.55
-11.66
-13.3
-14.66
-16.05
-17.88
-20.43
-23.8
-27.77
-31.73
-34.85
-36.16
-34.89
-30.72
-23.93
-15.32
-5.99
3.0
10.88
17.22
21.94
25.11
26.89
27.53
27.3
26.51
25.46
24.38
23.38
22.53
21.84
21.34
21.04
20.95
21.0
21.09
21.14
21.03
20.71
20.08
19.07
17.6
15.66
13.34
10.81
8.27
5.86
3.59
1.39
-0.88
-3.27
-5.74
-8.18
-10.43
-12.45
-14.27
-16.09
-18.2
-20.9
-24.41
-28.76
-33.66
-38.46
-42.2
-43.84
-42.6
-38.21
-31.03
-22.03
-12.42
-3.37
4.35
10.39
14.78
17.8
19.69
20.69
20.95
20.68
20.15
19.67
19.52
19.81
20.47
21.27
22.02
22.62
23.11
23.66
24.34
25.1
25.71
25.87
25.3
23.96
22.0
19.71
17.42
15.3
13.38
11.48
9.41
6.99
4.23
1.3
-1.56
-4.12
-6.28
-8.1
-9.73
-11.39
-13.27
-15.6
-18.55
-22.18
-26.31
-30.43
-33.68
-35.06
-33.79
-29.58
-22.81
-14.37
-5.39
3.13
10.53
16.47
20.88
23.77
25.25
25.5
24.79
23.49
21.96
20.53
19.38
18.63
18.28
18.3
18.6
19.06
19.54
19.9
20.03
19.91
19.54
18.88
17.9
16.57
14.92
13.05
11.09
9.14
7.21
5.22
3.03
0.6
-2.01
-4.68
-7.21
-9.53
-11.69
-13.85
-16.22
-18.96
-22.13
-25.63
-29.24
-32.54
-34.96
-35.85
-34.65
-31.04
-25.17
-17.61
-9.24
-1.06
6.1
11.71
15.59
17.83
18.64
18.31
17.09
15.21
12.94
10.61
8.58
7.16
6.53
6.69
7.44
8.46
9.48
10.31
10.89
11.25
11.35
11.13
10.45
9.21
7.42
5.21
2.77
0.27
-2.17
-4.54
-6.85
-9.14
-11.44
-13.78
-16.26
-18.98
-22.08
-25.63
-29.51
-33.38
-36.62
-38.43
-38.08
-35.11
-29.55
-21.95
-13.22
-4.4
3.61
10.22
15.15
18.42
20.18
20.7
20.23
19.02
17.37
15.53
13.82
12.52
11.83
11.83
12.42
13.37
14.36
15.15
15.59
15.65
15.43
14.99
14.38
13.54
12.34
10.65
8.43
5.72
2.72
-0.36
-3.31
-6.02
-8.54
-11.0
-13.62
-16.61
-20.16
-24.33
-29.0
-33.82
-38.12
-41.06
-41.81
-39.81
-34.99
-27.82
-19.15
-10.04
-1.44
5.94
11.77
15.97
18.67
20.06
20.32
19.66
18.32
16.61
14.93
13.65
13.04
13.18
13.94
15.04
16.13
16.93
17.32
17.29
16.91
16.25
15.32
14.1
12.53
10.61
8.37
5.91
3.34
0.78
-1.67
-3.94
-6.05
-8.08
-10.21
-12.71
-15.82
-19.68
-24.23
-29.08
-33.57
-36.87
-38.14
-36.78
-32.58
-25.85
-17.34
-8.06
0.92
8.73
14.84
19.11
21.68
22.86
23.01
22.44
21.4
20.11
18.75
17.54
16.72
16.42
16.66
17.31
18.08
18.67
18.83
18.53
17.85
17.02
16.18
15.32
14.24
12.69
10.43
7.46
3.97
0.36
-2.97
-5.76
-7.99
-9.85
-11.69
-13.92
-16.81
-20.51
-24.83
-29.28
-33.07
-35.28
-35.1
-32.07
-26.23
-18.21
-8.99
0.33
8.75
15.59
20.53
23.61
25.11
25.46
25.13
24.49
23.81
23.23
22.81
22.6
22.68
23.07
23.77
24.64
25.52
26.21
26.6
26.69
26.55
26.18
25.52
24.36
22.44
19.57
15.7
11.03
5.89
0.69
-4.22
-8.62
-12.47
-15.86
-18.95
-21.97
-25.13
-28.62
-32.51
-36.67
-40.74
-44.07
-45.92
-45.59
-42.69
-37.26
-29.81
-21.17
-12.28
-3.99
3.13
8.82
13.07
16.03
17.93
18.98
19.42
19.5
19.49
19.6
19.96
20.56
21.23
21.76
22.0
21.92
21.67
21.46
21.41
21.5
21.56
21.31
20.42
18.64
15.89
12.31
8.3
4.42
1.2
-1.05
-2.37
-3.12
-3.77
-4.73
-6.18
-8.16
-10.66
-13.74
-17.54
-22.03
-26.86
-31.24
-34.14
-34.65
-32.34
-27.42
-20.7
-13.31
-6.28
-0.33
4.28
7.63
9.98
11.53
12.42
12.69
12.39
11.66
10.73
9.82
9.1
8.62
8.29
8.02
7.74
7.48
7.39
7.59
8.08
8.67
9.04
8.82
7.75
5.8
3.18
0.23
-2.56
-4.79
-6.19
-6.75
-6.67
-6.37
-6.28
-6.8
-8.16
-10.43
-13.56
-17.5
-22.17
-27.47
-33.15
-38.77
-43.72
-47.27
-48.76
-47.72
-44.02
-37.87
-29.86
-20.8
-11.6
-3.02
4.36
10.32
14.9
18.29
20.77
22.64
24.17
25.62
27.19
28.98
30.91
32.74
34.18
35.0
35.1
34.51
33.36
31.78
29.86
27.6
24.95
21.88
18.34
14.33
9.93
5.31
0.69
-3.67
-7.59
-11.0
-13.96
-16.56
-18.89
-20.99
-22.82
-24.35
-25.62
-26.78
-28.05
-29.68
-31.86
-34.68
-37.99
-41.47
-44.61
-46.78
-47.4
-46.09
-42.8
-37.83
-31.74
-25.22
-18.89
-13.2
-8.42
-4.62
-1.84
-0.06
0.79
0.87
0.46
-0.12
-0.53
-0.55
-0.08
0.78
1.9
3.06
4.15
5.09
5.88
6.53
7.06
7.46
7.71
7.76
7.54
7.0
6.12
4.94
3.62
2.36
1.39
0.81
0.6
0.56
0.41
-0.09
-1.11
-2.7
-4.77
-7.17
-9.68
-11.98
-13.65
-14.24
-13.4
-10.96
-7.07
-2.18
3.09
8.12
12.47
15.93
18.5
20.26
21.29
21.56
21.01
19.63
17.53
14.99
12.37
10.03
8.23
7.01
6.28
5.81
5.41
4.99
4.56
4.2
3.94
3.75
3.48
2.94
1.98
0.57
-1.21
-3.18
-5.1
-6.79
-8.15
-9.24
-10.22
-11.3
-12.68
-14.49
-16.64
-18.88
-20.77
-21.81
-21.55
-19.73
-16.35
-11.74
-6.38
-0.88
4.23
8.58
11.99
14.45
16.07
16.98
17.34
17.25
16.85
16.23
15.53
14.92
14.57
14.6
15.05
15.8
16.69
17.56
18.29
18.91
19.45
19.91
20.15
19.95
19.11
17.49
15.15
12.26
9.04
5.73
2.49
-0.59
-3.49
-6.2
-8.8
-11.37
-13.95
-16.54
-18.96
-20.93
-22.0
-21.72
-19.74
-15.83
-10.02
-2.55
6.1
15.2
23.77
30.71
35.03
36.04
33.64
28.34
21.16
13.33
5.94
-0.24
-4.84
-7.79
-9.19
-9.09
-7.43
-4.02
1.42
8.91
17.97
27.37
35.28
39.76
39.48
34.28
25.43
15.19
6.02
-0.16
-2.53
-1.44
1.93
5.9
8.78
9.16
6.26
0.14
-8.23
-17.1
-24.43
-28.47
-28.29
-24.06
-16.89
-8.49
-0.63
5.25
8.3
8.33
5.72
1.28
-4.04
-9.27
-13.72
-16.97
-18.94
-19.83
-19.99
-19.8
-19.55
-19.39
-19.31
-19.23
-19.03
-18.66
-18.17
-17.72
-17.51
-17.69
-18.38
-19.59
-21.23
-23.24
-25.53
-28.11
-31.0
-34.12
-37.31
-40.25
-42.56
-43.96
-44.31
-43.62
-42.0
-39.59
-36.46
-32.68
-28.35
-23.64
-18.77
-13.92
-9.22
-4.68
-0.24
4.16
8.51
12.68
16.48
19.7
22.12
23.59
24.12
23.86
23.05
21.98
20.89
19.9
18.99
18.09
17.1
15.99
14.82
13.69
12.69
11.83
11.06
10.24
9.3
8.19
6.91
5.52
4.05
2.55
1.04
-0.45
-1.95
-3.5
-5.24
-7.33
-9.93
-13.08
-16.68
-20.38
-23.68
-25.94
-26.62
-25.39
-22.25
-17.63
-12.2
-6.75
-1.91
1.95
4.78
6.78
8.22
9.31
10.15
10.78
11.2
11.45
11.67
11.99
12.49
13.17
13.95
14.75
15.53
16.29
17.08
17.9
18.67
19.24
19.45
19.21
18.51
17.47
16.23
14.96
13.72
12.48
11.13
9.56
7.73
5.69
3.57
1.53
-0.38
-2.17
-3.97
-5.92
-8.17
-10.83
-13.89
-17.25
-20.61
-23.49
-25.34
-25.61
-24.04
-20.69
-15.97
-10.56
-5.18
-0.43
3.27
5.81
7.26
7.86
7.96
7.88
7.88
8.12
8.6
9.27
10.04
10.82
11.54
12.17
12.69
13.07
13.27
13.28
13.14
12.91
12.67
12.48
12.25
11.86
11.12
9.98
8.52
6.99
5.64
4.6
3.81
3.05
2.07
0.72
-0.91
-2.61
-4.1
-5.21
-6.0
-6.67
-7.47
-8.59
-10.09
-11.94
-14.09
-16.52
-19.17
-21.87
-24.21
-25.62
-25.5
-23.49
-19.65
-14.49
-8.8
-3.39
1.21
4.82
7.53
9.55
11.04
12.05
12.63
12.8
12.68
12.45
12.28
12.31
12.56
12.97
13.43
13.86
14.21
14.46
14.58
14.55
14.33
13.89
13.2
12.29
11.17
9.89
8.53
7.18
5.92
4.84
3.94
3.2
2.49
1.67
0.64
-0.59
-1.94
-3.23
-4.31
-5.09
-5.57
-5.89
-6.26
-6.96
-8.23
-10.17
-12.67
-15.38
-17.77
-19.28
-19.47
-18.14
-15.4
-11.59
-7.25
-2.9
0.99
4.14
6.43
7.87
8.53
8.5
7.9
6.86
5.61
4.37
3.36
2.68
2.37
2.32
2.44
2.66
2.98
3.44
4.02
4.65
5.18
5.48
5.46
5.14
4.57
3.82
2.97
2.04
1.06
0.03
-1.03
-2.13
-3.27
-4.49
-5.77
-7.14
-8.58
-10.12
-11.84
-13.89
-16.37
-19.3
-22.51
-25.62
-28.09
-29.36
-29.01
-26.86
-23.08
-18.14
-12.67
-7.34
-2.63
1.21
4.19
6.44
8.18
9.57
10.75
11.89
13.21
14.97
17.39
20.47
23.9
27.1
29.34
30.03
28.85
25.94
21.75
16.9
11.99
7.44
3.5
0.33
-1.95
-3.2
-3.34
-2.38
-0.51
1.91
4.4
6.48
7.71
7.8
6.69
4.48
1.39
-2.34
-6.53
-11.03
-15.68
-20.15
-24.01
-26.72
-27.84
-27.16
-24.85
-21.3
-17.07
-12.7
-8.57
-4.9
-1.8
0.73
2.72
4.27
5.51
6.57
7.61
8.74
10.08
11.71
13.67
15.92
18.28
20.41
21.89
22.36
21.62
19.75
17.02
13.75
10.15
6.25
1.9
-3.11
-8.87
-15.23
-21.84
-28.22
-33.94
-38.68
-42.29
-44.79
-46.25
-46.79
-46.49
-45.47
-43.89
-41.94
-39.79
-37.47
-34.85
-31.64
-27.57
-22.52
-16.67
-10.44
-4.35
1.12
5.62
9.05
11.39
12.72
13.19
12.96
12.21
11.17
10.03
8.96
8.1
7.54
7.31
7.41
7.76
8.26
8.79
9.27
9.63
9.84
9.89
9.71
9.27
8.52
7.43
6.02
4.32
2.41
0.38
-1.65
-3.57
-5.33
-6.9
-8.38
-9.94
-11.8
-14.11
-16.89
-19.94
-22.8
-24.87
-25.51
-24.3
-21.13
-16.3
-10.44
-4.31
1.38
6.18
9.92
12.64
14.53
15.8
16.6
17.02
17.12
16.99
16.71
16.39
16.09
15.85
15.65
15.46
15.27
15.08
14.91
14.75
14.55
14.23
13.71
12.96
11.97
10.75
9.29
7.58
5.61
3.43
1.17
-1.06
-3.16
-5.11
-6.96
-8.84
-10.91
-13.32
-16.19
-19.45
-22.86
-25.93
-27.97
-28.37
-26.7
-22.96
-17.55
-11.13
-4.46
1.76
7.07
11.2
14.05
15.72
16.43
16.51
16.29
16.02
15.84
15.74
15.64
15.49
15.3
15.11
14.97
14.89
14.79
14.63
14.36
13.98
13.52
12.98
12.27
11.32
10.05
8.44
6.5
4.26
1.78
-0.87
-3.52
-5.99
-8.14
-9.93
-11.51
-13.18
-15.27
-17.94
-21.15
-24.49
-27.4
-29.24
-29.46
-27.8
-24.3
-19.27
-13.24
-6.84
-0.66
4.82
9.28
12.61
14.88
16.27
17.04
17.41
17.5
17.41
17.16
16.78
16.38
16.07
15.96
16.09
16.37
16.67
16.81
16.7
16.3
15.64
14.78
13.75
12.57
11.19
9.65
7.98
6.25
4.52
2.78
0.99
-0.92
-2.98
-5.16
-7.38
-9.52
-11.55
-13.53
-15.58
-17.87
-20.42
-23.0
-25.16
-26.25
-25.69
-23.17
-18.77
-13.0
-6.62
-0.39
5.12
9.6
13.01
15.42
17.02
17.96
18.43
18.59
18.6
18.57
18.57
18.66
18.84
19.15
19.59
20.15
20.75
21.29
21.66
21.81
21.74
21.44
20.92
20.17
19.16
17.9
16.4
14.7
12.82
10.8
8.65
6.47
4.4
2.57
1.08
-0.12
-1.2
-2.44
-4.1
-6.37
-9.23
-12.47
-15.67
-18.32
-19.95
-20.19
-18.88
-16.12
-12.24
-7.75
-3.2
0.9
4.17
6.41
7.62
7.92
7.56
6.76
5.74
4.69
3.76
3.11
2.81
2.89
3.23
3.68
4.09
4.38
4.51
4.55
4.53
4.44
4.23
3.84
3.22
2.4
1.41
0.3
-0.94
-2.3
-3.75
-5.2
-6.56
-7.71
-8.63
-9.39
-10.17
-11.17
-12.56
-14.4
-16.53
-18.63
-20.27
-20.97
-20.38
-18.36
-14.99
-10.65
-5.84
-1.15
2.89
5.93
7.83
8.69
8.73
8.26
7.53
6.75
6.0
5.35
4.87
4.61
4.63
4.89
5.28
5.65
5.85
5.82
5.59
5.29
5.02
4.78
4.48
3.98
3.2
2.16
0.98
-0.19
-1.24
-2.15
-3.01
-3.89
-4.86
-6.02
-7.47
-9.36
-11.75
-14.5
-17.21
-19.27
-20.09
-19.33
-17.05
-13.62
-9.57
-5.43
-1.56
1.83
4.59
6.6
7.81
8.24
8.01
7.33
6.42
5.51
4.75
4.25
4.07
4.22
4.63
5.16
5.68
6.11
6.43
6.65
6.77
6.73
6.42
5.77
4.75
3.45
2.01
0.57
-0.8
-2.05
-3.18
-4.23
-5.2
-6.16
-7.24
-8.6
-10.43
-12.76
-15.44
-18.07
-20.09
-20.96
-20.3
-18.07
-14.56
-10.31
-5.93
-1.91
1.44
4.07
6.02
7.39
8.22
8.53
8.37
7.89
7.32
6.91
6.79
6.96
7.26
7.49
7.56
7.5
7.48
7.63
7.96
8.34
8.55
8.41
7.83
6.89
5.7
4.38
2.97
1.47
-0.14
-1.81
-3.45
-4.98
-6.43
-7.9
-9.58
-11.59
-13.92
-16.31
-18.3
-19.35
-19.01
-17.13
-13.86
-9.65
-5.08
-0.66
3.25
6.52
9.18
11.26
12.77
13.65
13.87
13.5
12.77
11.99
11.45
11.28
11.4
11.62
11.67
11.42
10.88
10.15
9.36
8.55
7.71
6.77
5.7
4.51
3.25
1.94
0.57
-0.87
-2.39
-3.95
-5.48
-6.94
-8.34
-9.74
-11.31
-13.19
-15.5
-18.17
-20.95
-23.33
-24.67
-24.44
-22.4
-18.76
-14.14
-9.35
-5.09
-1.77
0.54
2.03
2.93
3.45
3.69
3.76
3.79
3.91
4.27
4.89
5.66
6.39
6.89
7.04
6.87
6.53
6.19
6.03
6.07
6.24
6.34
6.17
5.57
4.53
3.11
1.44
-0.33
-2.06
-3.67
-5.16
-6.53
-7.84
-9.21
-10.77
-12.63
-14.86
-17.37
-19.93
-22.14
-23.51
-23.63
-22.27
-19.47
-15.56
-11.03
-6.45
-2.29
1.17
3.83
5.76
7.05
7.82
8.17
8.18
7.98
7.7
7.49
7.42
7.52
7.74
8.03
8.35
8.69
9.02
9.33
9.55
9.63
9.52
9.26
8.87
8.39
7.81
7.11
6.25
5.26
4.17
3.04
1.93
0.84
-0.31
-1.59
-3.1
-4.92
-7.08
-9.55
-12.19
-14.69
-16.65
-17.57
-17.1
-15.08
-11.72
-7.5
-3.05
1.03
4.37
6.82
8.45
9.43
9.93
10.09
10.05
9.9
9.74
9.66
9.69
9.83
10.07
10.38
10.74
11.08
11.36
11.56
11.65
11.62
11.42
11.01
10.33
9.37
8.18
6.84
5.43
3.96
2.41
0.74
-1.07
-2.97
-4.85
-6.61
-8.18
-9.55
-10.74
-11.9
-13.19
-14.78
-16.78
-19.08
-21.37
-23.11
-23.75
-22.89
-20.39
-16.5
-11.72
-6.67
-1.98
1.9
4.7
6.38
7.08
7.09
6.71
6.24
5.89
5.78
5.96
6.4
7.0
7.64
8.22
8.66
8.95
9.15
9.29
9.39
9.4
9.23
8.83
8.18
7.37
6.53
5.8
5.25
4.82
4.39
3.78
2.87
1.62
0.14
-1.42
-2.92
-4.27
-5.46
-6.55
-7.57
-8.58
-9.64
-10.84
-12.31
-14.11
-16.1
-17.95
-19.17
-19.22
-17.81
-14.96
-11.06
-6.7
-2.45
1.24
4.16
6.27
7.67
8.49
8.85
8.93
8.89
8.88
8.99
9.22
9.55
9.88
10.17
10.39
10.54
10.69
10.86
11.11
11.4
11.68
11.87
11.9
11.72
11.36
10.87
10.31
9.76
9.24
8.75
8.24
7.65
6.9
5.97
4.88
3.69
2.58
1.65
1.0
0.58
0.23
-0.27
-1.11
-2.41
-4.17
-6.26
-8.47
-10.53
-12.11
-12.88
-12.58
-11.12
-8.65
-5.54
-2.31
0.53
2.66
4.01
4.68
4.87
4.75
4.4
3.83
3.07
2.19
1.31
0.55
0.01
-0.3
-0.41
-0.36
-0.18
0.14
0.57
1.05
1.5
1.75
1.68
1.23
0.44
-0.57
-1.6
-2.5
-3.19
-3.72
-4.21
-4.76
-5.38
-5.96
-6.36
-6.46
-6.28
-5.97
-5.74
-5.82
-6.31
-7.24
-8.53
-10.04
-11.53
-12.67
-13.1
-12.52
-10.81
-8.15
-4.93
-1.66
1.22
3.46
5.01
5.91
6.26
6.11
5.48
4.43
3.11
1.71
0.46
-0.48
-1.04
-1.26
-1.22
-1.04
-0.82
-0.6
-0.47
-0.46
-0.59
-0.85
-1.21
-1.63
-2.11
-2.64
-3.23
-3.86
-4.47
-5.02
-5.46
-5.82
-6.18
-6.62
-7.19
-7.9
-8.74
-9.75
-11.02
-12.57
-14.33
-16.01
-17.16
-17.28
-16.04
-13.45
-9.85
-5.78
-1.83
1.61
4.37
6.45
7.94
8.85
9.16
8.86
8.05
6.94
5.79
4.85
4.19
3.78
3.53
3.33
3.16
3.05
3.02
3.04
3.03
2.91
2.63
2.21
1.68
1.06
0.3
-0.67
-1.89
-3.28
-4.65
-5.78
-6.53
-6.95
-7.28
-7.83
-8.89
-10.53
-12.67
-15.12
-17.58
-19.78
-21.42
-22.16
-21.73
-19.97
-16.95
-13.0
-8.64
-4.41
-0.7
2.32
4.64
6.34
7.51
8.2
8.44
8.28
7.88
7.41
7.07
7.0
7.25
7.78
8.46
9.13
9.64
9.93
9.99
9.89
9.66
9.31
8.79
8.03
