-23.54
-18.33
-13.54
-9.57
-6.56
-4.49
-3.26
-2.8
-2.97
-3.65
-4.67
-5.82
-6.9
-7.75
-8.26
-8.41
-8.27
-7.94
-7.58
-7.3
-7.16
-7.2
-7.41
-7.75
-8.15
-8.59
-9.04
-9.54
-10.19
-11.06
-12.13
-13.32
-14.44
-15.34
-15.99
-16.5
-17.06
-17.81
-18.81
-20.07
-21.56
-23.31
-25.35
-27.62
-29.81
-31.36
-31.6
-30.01
-26.4
-21.08
-14.77
-8.32
-2.51
2.2
5.7
8.17
9.86
10.98
11.68
11.99
11.98
11.77
11.55
11.51
11.77
12.31
13.01
13.71
14.29
14.7
14.94
15.05
15.0
14.75
14.18
13.21
11.83
10.06
8.04
5.87
3.67
1.47
-0.74
-3.02
-5.41
-7.86
-10.27
-12.48
-14.44
-16.14
-17.75
-19.57
-21.83
-24.63
-27.76
-30.75
-32.92
-33.64
-32.48
-29.38
-24.65
-18.89
-12.78
-6.91
-1.7
2.67
6.15
8.79
10.69
11.95
12.71
13.15
13.48
13.89
14.47
15.2
15.95
16.53
16.85
16.94
16.94
16.99
17.14
17.34
17.36
17.05
16.34
15.33
14.23
13.23
12.41
11.69
10.89
9.85
8.45
6.7
4.69
2.55
0.38
-1.69
-3.57
-5.14
-6.41
-7.52
-8.79
-10.62
-13.17
-16.25
-19.23
-21.24
-21.5
-19.62
-15.77
-10.56
-4.77
0.88
5.9
10.04
13.19
15.33
16.51
16.87
16.69
16.28
15.96
15.98
16.44
17.28
18.37
19.5
20.49
21.29
21.96
22.66
23.51
24.57
25.73
26.75
27.35
27.28
26.44
24.88
22.79
20.46
18.15
16.03
14.16
12.47
10.81
9.01
6.98
4.76
2.48
0.31
-1.64
-3.38
-5.07
-7.02
-9.52
-12.75
-16.58
-20.56
-23.96
-25.97
-25.96
-23.69
-19.4
-13.75
-7.66
-1.97
2.75
6.3
8.78
10.41
11.38
11.84
11.89
11.69
11.49
11.56
12.05
12.97
14.11
15.2
16.05
16.63
17.08
17.58
18.23
18.99
19.68
20.08
20.02
19.49
18.62
17.65
16.81
16.25
15.91
15.6
15.05
14.04
12.55
10.71
8.8
7.05
5.56
4.26
2.96
1.39
-0.71
-3.57
-7.34
-11.99
-17.18
-22.29
-26.49
-28.99
-29.36
-27.7
-24.57
-20.82
-17.25
-14.35
-12.34
-11.16
-10.67
-10.67
-11.0
-11.49
-12.02
-12.5
-12.89
-13.18
-13.35
-13.38
-13.24
-12.9
-12.4
-11.76
-11.02
-10.22
-9.44
-8.81
-8.49
-8.61
-9.19
-10.12
-11.2
-12.24
-13.17
-14.09
-15.18
-16.58
-18.32
-20.3
-22.32
-24.22
-25.89
-27.34
-28.68
-30.04
-31.61
-33.55
-36.01
-38.96
-42.14
-45.04
-46.9
-47.03
-44.93
-40.56
-34.36
-27.1
-19.71
-13.02
-7.63
-3.71
-1.16
0.37
1.26
1.85
2.32
2.7
2.99
3.2
3.45
3.9
4.66
5.7
6.9
8.06
9.04
9.86
10.6
11.36
12.09
12.56
12.48
11.58
9.92
7.78
5.64
3.92
2.74
1.9
1.02
-0.29
-2.16
-4.42
-6.74
-8.73
-10.23
-11.3
-12.19
-13.23
-14.73
-16.85
-19.59
-22.75
-25.93
-28.53
-29.93
-29.52
-26.98
-22.32
-16.0
-8.75
-1.45
5.14
10.5
14.42
16.97
18.36
18.9
18.9
18.64
18.4
18.37
18.65
19.22
19.94
20.6
21.05
21.28
21.37
21.48
21.71
21.99
22.15
21.96
21.26
20.02
18.35
16.42
14.41
12.42
10.52
8.71
6.97
5.25
3.51
1.69
-0.24
-2.25
-4.28
-6.29
-8.34
-10.52
-13.04
-16.02
-19.52
-23.32
-27.02
-29.96
-31.5
-31.11
-28.57
-24.08
-18.23
-11.79
-5.53
-0.03
4.36
7.53
9.59
10.7
11.15
11.19
11.09
11.04
11.16
11.51
12.11
12.95
13.96
15.05
16.08
16.96
17.68
18.29
18.85
19.3
19.48
19.18
18.23
16.65
14.62
12.4
10.19
8.12
6.13
4.13
2.03
-0.23
-2.62
-5.11
-7.6
-9.99
-12.18
-14.12
-15.89
-17.69
-19.8
-22.45
-25.8
-29.73
-33.9
-37.7
-40.38
-41.2
-39.61
-35.47
-29.1
-21.27
-12.97
-5.22
1.26
6.15
9.48
11.54
12.7
13.34
13.81
14.33
15.06
16.02
17.16
18.36
19.5
20.55
21.49
22.34
23.03
23.51
23.73
23.74
23.63
23.55
23.47
23.27
22.71
21.65
20.1
18.2
16.21
14.29
12.53
10.85
9.16
7.41
5.58
3.72
1.88
0.11
-1.59
-3.23
-4.86
-6.56
-8.38
-10.38
-12.57
-15.01
-17.76
-20.87
-24.23
-27.45
-29.87
-30.67
-29.21
-25.3
-19.34
-12.21
-4.97
1.5
6.73
10.64
13.44
15.41
16.71
17.47
17.75
17.62
17.28
16.9
16.68
16.78
17.22
17.89
18.59
19.12
19.35
19.31
19.12
18.94
18.83
18.74
18.47
17.81
16.65
15.02
13.1
11.13
9.29
7.66
6.18
4.71
3.06
1.13
-1.13
-3.63
-6.23
-8.72
-10.98
-12.93
-14.58
-16.04
-17.46
-19.06
-21.1
-23.76
-27.04
-30.61
-33.83
-35.85
-35.92
-33.6
-29.02
-22.74
-15.67
-8.7
-2.51
2.48
6.16
8.62
10.07
10.79
11.08
11.22
11.43
11.84
12.51
13.44
14.56
15.7
16.69
17.32
17.46
17.11
16.39
15.44
14.46
13.53
12.69
11.9
11.06
10.1
8.9
7.41
5.62
3.65
1.66
-0.15
-1.65
-2.86
-3.92
-5.03
-6.36
-7.99
-9.85
-11.86
-13.88
-15.77
-17.5
-19.11
-20.76
-22.65
-24.98
-27.81
-30.95
-33.93
-36.09
-36.78
-35.53
-32.25
-27.18
-20.9
-14.07
-7.4
-1.45
3.36
6.83
9.01
10.16
10.68
11.0
11.39
11.98
12.72
13.49
14.25
15.01
15.83
16.75
17.73
18.63
19.33
19.76
19.96
20.05
20.08
20.03
19.8
19.22
18.16
16.64
14.79
12.87
11.11
9.67
8.5
7.42
6.13
4.44
2.27
-0.19
-2.67
-4.92
-6.79
-8.41
-9.99
-11.79
-13.92
-16.4
-19.14
-22.06
-25.06
-27.97
-30.45
-32.01
-32.1
-30.3
-26.55
-21.18
-14.83
-8.25
-2.1
3.19
7.43
10.6
12.73
13.93
14.31
14.07
13.42
12.6
11.85
11.34
11.12
11.15
11.29
11.44
11.56
11.72
12.03
12.54
13.09
13.43
13.24
12.37
10.82
8.86
6.77
4.81
3.07
1.52
0.01
-1.58
-3.33
-5.3
-7.44
-9.66
-11.77
-13.65
-15.25
-16.68
-18.19
-20.1
-22.64
-25.9
-29.72
-33.66
-37.08
-39.25
-39.45
-37.22
-32.54
-25.89
-18.16
-10.45
-3.72
1.45
4.91
6.86
7.74
7.97
7.95
7.95
8.2
8.79
9.69
10.78
11.86
12.74
13.31
13.63
13.84
14.11
14.58
15.25
15.97
16.5
16.57
16.0
14.78
13.05
11.05
9.04
7.18
5.5
3.86
2.12
0.13
-2.08
-4.4
-6.69
-8.8
-10.66
-12.33
-13.92
-15.6
-17.53
-19.83
-22.5
-25.37
-28.02
-29.86
-30.24
-28.63
-24.86
-19.2
-12.32
-5.05
1.78
7.61
12.23
15.7
18.21
19.96
21.02
21.37
21.01
20.05
18.8
17.68
17.08
17.22
18.02
19.19
20.37
21.28
21.82
22.05
22.08
22.0
21.82
21.53
21.07
20.42
19.53
18.34
16.82
14.94
12.73
10.34
7.95
5.72
3.76
2.11
0.71
-0.59
-1.99
-3.78
-6.23
-9.54
-13.59
-17.9
-21.66
-24.03
-24.3
-22.22
-18.02
-12.36
-6.03
0.17
5.62
9.9
12.83
14.46
15.0
14.77
14.09
13.21
12.23
11.19
10.11
9.09
8.28
7.83
7.79
8.11
8.62
9.17
9.67
10.14
10.65
11.15
11.51
11.46
10.73
9.21
7.0
4.37
1.63
-1.05
-3.67
-6.32
-9.07
-11.83
-14.36
-16.42
-17.9
-18.96
-20.03
-21.58
-23.95
-27.13
-30.72
-33.95
-35.95
-35.94
-33.52
-28.79
-22.35
-15.05
-7.79
-1.32
3.96
7.92
10.68
12.44
13.46
13.96
14.17
14.28
14.43
14.67
14.98
15.28
15.49
15.53
15.43
15.24
15.09
15.1
15.28
15.53
15.62
15.26
14.19
12.31
9.75
6.79
3.82
1.11
-1.2
-3.2
-5.06
-6.94
-8.87
-10.74
-12.38
-13.65
-14.55
-15.26
-16.03
-17.15
-18.84
-21.16
-24.03
-27.14
-30.0
-31.99
-32.48
-31.0
-27.4
-21.94
-15.18
-7.9
-0.87
5.32
10.31
13.99
16.43
17.8
18.32
18.23
17.77
17.17
16.67
16.45
16.6
17.08
17.72
18.31
18.69
18.82
18.82
18.86
19.01
19.15
19.01
18.33
16.99
15.13
13.03
10.99
9.19
7.62
6.19
4.78
3.36
1.91
0.44
-1.06
-2.6
-4.11
-5.54
-6.85
-8.07
-9.4
-11.16
-13.61
-16.87
-20.69
-24.47
-27.41
-28.76
-28.01
-25.09
-20.35
-14.41
-7.99
-1.77
3.73
8.17
11.36
13.3
14.11
14.07
13.53
12.79
12.05
11.43
10.97
10.72
10.74
11.1
11.79
12.76
13.8
14.72
15.33
15.49
15.16
14.35
13.1
11.47
9.58
7.47
5.25
3.0
0.8
-1.3
-3.32
-5.34
-7.5
-9.9
-12.58
-15.41
-18.13
-20.48
-22.33
-23.81
-25.27
-27.22
-29.99
-33.56
-37.37
-40.52
-41.96
-40.95
-37.29
-31.42
-24.22
-16.68
-9.63
-3.56
1.4
5.31
8.28
10.4
11.73
12.34
12.42
12.25
12.13
12.27
12.72
13.4
14.11
14.69
15.08
15.38
15.73
16.24
16.94
17.67
18.23
18.38
17.99
17.03
15.59
13.84
11.98
10.14
8.41
6.72
4.98
3.06
0.88
-1.53
-4.06
-6.53
-8.83
-10.95
-12.94
-14.92
-17.04
-19.43
-22.26
-25.61
-29.45
-33.54
-37.26
-39.83
-40.4
-38.38
-33.72
-26.9
-18.86
-10.63
-3.16
3.02
7.72
11.07
13.31
14.67
15.32
15.41
15.1
14.63
14.26
14.22
14.63
15.36
16.16
16.77
17.05
17.03
16.89
16.84
16.97
17.19
17.29
17.03
16.24
14.95
13.29
11.48
9.72
8.1
6.58
5.01
3.24
1.21
-1.05
-3.37
-5.53
-7.41
-9.0
-10.41
-11.82
-13.43
-15.38
-17.78
-20.65
-23.91
-27.29
-30.3
-32.3
-32.59
-30.69
-26.46
-20.19
-12.59
-4.56
2.97
9.29
13.96
16.92
18.37
18.74
18.49
17.98
17.42
16.83
16.18
15.47
14.78
14.28
14.15
14.46
15.09
15.83
16.39
16.52
16.12
15.21
13.9
12.36
10.7
8.99
7.23
5.36
3.35
1.19
-1.09
-3.43
-5.78
-8.09
-10.35
-12.58
-14.84
-17.29
-20.12
-23.52
-27.57
-32.02
-36.29
-39.52
-40.82
-39.53
-35.52
-29.2
-21.41
-13.13
-5.23
1.68
7.29
11.45
14.14
15.39
15.35
14.33
12.87
11.54
10.87
11.07
12.01
13.28
14.42
15.15
15.47
15.66
15.95
16.48
17.13
17.59
17.54
16.8
15.37
13.42
11.16
8.73
6.22
3.65
1.02
-1.69
-4.44
-7.24
-10.06
-12.9
-15.74
-18.64
-21.66
-24.9
-28.48
-32.43
-36.62
-40.64
-43.85
-45.51
-44.94
-41.75
-36.01
-28.23
-19.24
-10.08
-1.61
5.52
11.02
14.9
17.42
18.89
19.63
19.96
20.13
20.35
20.75
21.37
22.14
22.97
23.76
24.48
25.18
25.91
26.69
27.49
28.2
28.67
28.71
28.2
27.06
25.35
23.22
20.88
18.47
16.07
13.59
10.87
7.81
4.4
0.84
-2.63
-5.74
-8.38
-10.59
-12.61
-14.76
-17.37
-20.68
-24.72
-29.23
-33.64
-37.12
-38.77
-37.85
-34.01
-27.42
-18.84
-9.32
-0.04
8.03
14.33
18.72
21.38
22.68
22.98
22.59
21.78
20.8
19.92
19.41
19.42
19.98
20.93
22.1
23.28
24.37
25.28
25.94
26.21
25.91
24.91
23.22
21.01
18.53
16.0
13.55
11.14
8.64
5.9
2.86
-0.44
-3.82
-7.11
-10.1
-12.7
-14.95
-17.02
-19.18
-21.76
-24.99
-28.87
-33.09
-37.04
-39.84
-40.64
-38.81
-34.17
-27.11
-18.5
-9.45
-1.05
5.84
10.8
13.75
14.96
14.85
13.86
12.38
10.69
8.96
7.28
5.79
4.62
3.95
3.85
4.29
5.1
6.0
6.71
6.98
6.73
5.92
4.61
2.8
0.41
-2.64
-6.39
-10.71
-15.3
-19.78
-23.83
-27.3
-30.29
-33.04
-35.85
-38.99
-42.6
-46.67
-50.99
-55.12
-58.39
-60.07
-59.48
-56.24
-50.46
-42.71
-33.88
-24.93
-16.7
-9.75
-4.3
-0.32
2.34
3.91
4.56
4.5
3.91
2.99
1.96
1.03
0.33
-0.03
-0.02
0.35
1.07
2.09
3.28
4.48
5.4
5.79
5.45
4.27
2.4
0.14
-2.06
-3.78
-4.77
-5.09
-5.06
-5.22
-6.1
-8.05
-11.08
-14.82
-18.55
-21.35
-22.3
-20.72
-16.37
-9.53
-0.97
8.26
17.05
24.44
29.81
32.87
33.69
32.66
30.35
27.44
24.51
21.99
20.08
18.78
18.0
17.64
17.64
17.97
18.59
19.42
20.34
21.19
21.8
21.95
21.39
19.93
17.47
14.15
10.33
6.49
3.11
0.53
-1.18
-2.19
-2.89
-3.69
-4.97
-6.89
-9.27
-11.54
-12.85
-12.24
-8.99
-2.85
5.75
15.86
26.3
35.97
44.17
50.67
55.54
59.04
61.37
62.67
63.04
62.65
61.78
60.79
59.98
59.49
59.25
59.02
58.53
57.65
56.4
54.95
53.46
52.01
50.52
48.79
46.52
43.47
39.55
34.79
29.39
23.56
17.49
11.24
4.78
-1.98
-9.16
-16.81
-25.0
-33.69
-42.74
-51.8
-60.25
-67.26
-71.89
-73.41
-71.51
-66.45
-59.04
-50.36
-41.55
-33.5
-26.77
-21.55
-17.78
-15.27
-13.77
-13.04
-12.72
-12.41
-11.7
-10.31
-8.2
-5.57
-2.78
-0.12
2.27
4.45
6.59
8.78
10.93
12.82
14.18
14.83
14.77
14.16
13.22
12.17
11.13
10.13
9.06
7.79
6.25
4.44
2.48
0.51
-1.38
-3.24
-5.21
-7.53
-10.44
-14.12
-18.6
-23.78
-29.3
-34.54
-38.66
-40.77
-40.15
-36.6
-30.42
-22.43
-13.74
-5.41
1.72
7.21
10.98
13.28
14.5
15.07
15.28
15.28
15.13
14.84
14.48
14.24
14.32
14.81
15.67
16.72
17.73
18.52
19.02
19.24
19.25
19.11
18.83
18.4
17.78
16.93
15.79
14.27
12.35
10.06
7.54
5.02
2.74
0.9
-0.48
-1.53
-2.47
-3.55
-4.89
-6.5
-8.29
-10.13
-11.95
-13.74
-15.51
-17.25
-18.96
-20.72
-22.67
-24.89
-27.3
-29.45
-30.65
-30.09
-27.28
-22.21
-15.45
-7.99
-0.87
5.12
9.61
12.68
14.68
16.0
16.95
17.7
18.27
18.6
18.73
18.74
18.79
19.05
19.53
20.12
20.66
21.0
21.08
20.97
20.72
20.31
19.68
18.72
17.41
15.85
14.25
12.78
11.52
10.39
9.22
7.86
6.25
4.47
2.64
0.89
-0.72
-2.12
-3.3
-4.25
-4.99
-5.59
-6.19
-6.92
-7.88
-9.04
-10.3
-11.44
-12.26
-12.68
-12.78
-12.79
-13.03
-13.75
-15.0
-16.54
-17.89
-18.42
-17.66
-15.4
-11.84
-7.5
-3.01
1.05
4.28
6.6
8.07
8.85
9.12
8.99
8.57
7.93
7.15
6.31
5.46
4.66
3.95
3.41
3.07
2.92
2.91
2.94
2.94
2.91
2.93
3.04
3.25
3.44
3.41
3.01
2.16
0.93
-0.49
-1.89
-3.12
-4.12
-4.93
-5.6
-6.21
-6.83
-7.5
-8.25
-9.13
-10.13
-11.23
-12.31
-13.23
-13.86
-14.21
-14.42
-14.74
-15.46
-16.75
-18.52
-20.39
-21.77
-22.06
-20.84
-18.05
-14.03
-9.37
-4.74
-0.66
2.6
5.02
6.7
7.81
8.46
8.72
8.66
8.41
8.17
8.15
8.58
9.5
10.83
12.3
13.67
14.75
15.56
16.2
16.85
17.62
18.51
19.43
20.2
20.67
20.68
20.18
19.05
17.32
15.07
12.57
10.13
8.05
6.53
5.54
4.89
4.11
2.76
0.57
-2.52
-6.28
-10.32
-14.3
-18.03
-21.54
-25.34
-29.84
-35.24
-41.42
-47.96
-54.21
-59.54
-63.34
-65.19
-65.49
-64.77
-63.6
-62.44
-61.69
-61.5
-61.93
-62.81
-63.78
-65.26
-67.45
-70.22
-73.28
-76.42
-79.43
-82.3
-84.63
-85.48
-84.42
-80.54
-72.67
-60.08
-43.16
-23.29
-3.07
15.05
35.59
59.72
85.73
110.3
130.8
144.41
152.53
156.02
155.22
150.4
141.37
128.57
113.35
97.61
83.14
71.44
62.95
57.57
54.87
53.4
51.88
49.54
46.02
41.14
35.04
27.67
19.4
10.97
2.97
-3.82
-8.59
-10.83
-10.72
-8.89
-6.47
-4.37
-3.0
-2.48
-2.58
-2.98
-3.51
-4.25
-5.35
-6.95
-8.86
-10.67
-11.95
-12.35
-11.65
-9.67
-6.32
-1.48
4.76
12.18
20.32
28.58
36.27
42.74
47.32
49.42
48.45
43.9
35.52
23.35
7.89
-9.99
-29.12
-48.26
-66.26
-82.12
-95.18
-104.93
-111.02
-113.3
-111.98
-107.62
-101.11
-93.44
-85.5
-77.86
-70.62
-63.44
-55.82
-47.44
-38.34
-28.81
-19.14
-9.32
0.91
12.27
25.58
41.31
59.03
77.31
93.96
106.52
112.76
110.62
99.45
80.16
54.87
26.23
-3.26
-31.63
-57.5
-80.0
-99.51
-115.64
-127.03
-132.19
-130.68
-123.67
-113.64
-103.68
-96.91
-97.54
-107.62
-126.26
-150.23
-175.47
-198.29
-216.17
-228.2
-234.85
-239.11
-241.73
-240.12
-230.07
-208.68
-176.28
-136.29
-93.88
-40.81
20.94
81.29
129.24
161.48
182.84
200.79
220.35
241.86
261.26
270.46
264.33
243.57
214.17
183.87
158.6
140.74
129.21
121.09
112.29
101.7
91.38
84.42
82.36
84.06
86.75
87.8
85.88
80.56
73.42
67.09
63.87
64.33
67.25
70.34
71.43
68.82
61.66
50.42
36.6
21.95
7.64
-5.97
-19.22
-31.74
-44.28
-57.1
-69.64
-80.78
-89.2
-93.97
-95.15
-93.53
-90.44
-87.39
-85.09
-83.76
-83.41
-84.35
-87.0
-91.02
-94.42
-93.44
-83.98
-63.44
-32.77
3.27
37.68
64.11
79.22
83.62
80.63
74.22
67.42
61.6
57.36
55.35
56.66
61.64
68.58
73.25
69.97
54.23
24.93
-14.15
-55.5
-90.47
-112.54
-119.53
-113.45
-99.04
-81.45
-64.9
-51.94
-44.28
-42.32
-45.88
-53.93
-64.36
-74.64
-82.35
-85.35
-81.45
-68.5
-45.0
-11.39
28.67
68.78
101.46
120.96
125.36
116.96
100.63
80.73
60.94
42.09
23.58
5.12
-12.36
-26.91
-36.86
-41.61
-41.98
-39.48
-36.16
-32.9
-29.58
-25.42
-19.42
-11.11
-0.87
10.13
20.42
28.56
33.78
36.1
36.18
35.01
33.48
32.12
31.01
29.97
28.59
26.71
24.43
22.15
20.4
19.67
20.2
21.83
24.07
26.15
27.43
27.58
26.77
25.55
24.7
24.88
26.37
28.87
31.56
33.63
34.4
33.79
32.11
30.07
28.48
28.18
29.87
33.97
40.13
46.86
51.53
50.86
42.3
25.28
1.79
-24.36
-49.01
-69.32
-84.68
-95.69
-104.03
-111.29
-118.02
-123.7
-127.39
-128.47
-127.08
-123.91
-119.68
-114.78
-109.11
-102.18
-93.6
-83.47
-72.3
-60.96
-50.11
-39.99
-30.41
-20.83
-10.7
0.1
11.14
21.54
30.32
36.84
41.26
44.4
47.6
52.07
58.47
66.62
75.8
85.34
95.1
105.37
116.22
126.79
135.03
138.3
134.47
123.11
105.77
85.4
65.15
47.17
32.43
20.94
12.65
7.96
7.65
12.32
21.79
34.82
49.4
63.41
75.2
83.99
89.79
93.16
94.7
94.78
93.43
90.47
85.72
79.23
71.28
62.39
53.04
43.62
34.31
25.14
16.14
7.35
-1.01
-8.67
-15.41
-21.26
-26.52
-31.75
-37.59
-44.46
-52.37
-60.79
-68.7
-74.88
-78.23
-78.02
-74.18
-67.29
-58.43
-48.91
-39.98
-32.46
-26.75
-22.77
-20.19
-18.58
-17.59
-16.89
-16.18
-15.17
-13.55
-11.12
-7.84
-3.91
0.31
4.44
8.17
11.4
14.15
16.46
18.33
19.64
20.22
19.92
18.71
16.75
14.33
11.82
9.52
7.6
6.0
4.47
2.71
0.5
-2.18
-5.17
-8.18
-10.96
-13.37
-15.45
-17.4
-19.5
-22.08
-25.33
-29.17
-33.18
-36.5
-38.05
-36.75
-31.99
-23.85
-13.15
-1.2
10.62
21.17
29.82
36.42
41.12
44.19
45.97
46.72
46.69
46.1
45.1
43.79
42.2
40.33
38.15
35.74
33.21
30.78
28.67
26.93
25.54
24.3
22.96
21.28
19.12
16.36
12.89
8.57
3.31
-2.91
-9.89
-17.38
-25.13
-33.03
-41.11
-49.37
-57.7
-65.77
-73.17
-79.52
-84.67
-88.71
-91.89
-94.46
-96.63
-98.54
-100.34
-102.14
-103.91
-105.26
-105.37
-103.17
-97.74
-88.66
-76.31
-61.8
-46.56
-31.96
-18.88
-7.7
1.61
9.19
15.17
19.63
22.65
24.47
25.45
26.06
26.72
27.74
29.15
30.82
32.43
33.69
34.37
34.36
33.7
32.48
30.86
28.97
26.95
24.87
22.73
20.45
17.92
15.0
11.68
8.06
4.32
0.65
-2.88
-6.31
-9.73
-13.15
-16.43
-19.25
-21.34
-22.62
-23.35
-24.08
-25.47
-28.0
-31.76
-36.45
-41.36
-45.58
-48.17
-48.32
-45.56
-39.84
-31.63
-21.86
-11.64
-2.08
6.03
12.29
16.67
19.36
20.69
20.96
20.48
19.59
18.64
17.96
17.76
18.14
19.06
20.44
22.21
24.34
26.77
29.39
31.93
34.03
35.39
35.77
35.12
33.52
31.2
28.41
25.43
22.44
19.48
16.36
12.8
8.49
3.31
-2.6
-8.94
-15.32
-21.55
-27.63
-33.83
-40.49
-47.85
-55.89
-64.16
-71.81
-77.68
-80.53
-79.42
-74.0
-64.72
-52.67
-39.4
-26.36
-14.67
-4.9
2.89
8.98
13.79
17.74
21.17
24.28
27.14
29.73
31.94
33.63
34.75
35.32
35.49
35.41
35.28
35.29
35.51
35.97
36.48
36.8
36.6
35.67
33.86
31.22
27.87
23.99
19.74
15.2
10.49
5.66
0.85
-3.82
-8.28
-12.43
-16.25
-19.77
-23.13
-26.58
-30.4
-34.72
-39.22
-43.11
-45.14
-44.04
-38.99
-29.95
-17.73
-3.74
10.46
23.63
34.96
44.16
51.19
56.18
59.36
60.95
61.27
60.56
59.0
56.61
53.41
49.38
44.69
39.59
34.35
29.07
23.69
17.88
11.23
3.42
-5.64
-15.73
-26.29
-36.57
-45.83
-53.49
-59.27
-63.26
-65.84
-67.56
-68.95
-70.37
-71.93
-73.53
-75.02
-76.25
-77.19
-77.94
-78.79
-80.12
-82.36
-85.81
-90.38
-95.43
-99.73
-101.71
-99.86
-93.28
-82.04
-67.14
-50.24
-33.2
-17.46
-3.94
7.08
15.64
21.9
26.04
28.24
28.85
28.36
27.38
26.52
26.15
26.38
27.04
27.95
28.96
30.1
31.4
32.84
34.17
34.99
34.91
33.68
31.43
28.45
25.16
21.85
18.59
15.27
11.7
7.79
3.58
-0.75
-5.02
-9.09
-13.03
-16.97
-21.16
-25.86
-31.2
-37.17
-43.39
-49.08
-53.09
-54.24
-51.64
-45.06
-35.08
-22.95
-10.22
1.71
11.89
19.88
25.65
29.29
30.94
30.73
28.95
26.06
22.76
19.78
17.79
17.19
18.08
20.25
23.4
27.16
31.24
35.42
39.4
42.92
45.64
47.31
47.8
47.09
45.33
42.63
39.2
35.21
30.88
26.48
22.31
18.56
15.29
12.39
9.52
6.31
2.35
-2.56
-8.38
-14.71
-20.69
-25.21
-27.02
-25.19
-19.38
-10.09
1.48
13.74
25.12
34.5
41.36
45.75
48.08
48.8
48.33
46.99
45.05
42.87
40.8
39.19
38.23
38.01
38.41
39.21
40.13
40.84
40.93
40.05
37.94
34.59
30.2
25.13
19.76
14.32
8.9
3.45
-2.1
-7.73
-13.32
-18.67
-23.62
-28.02
-31.82
-35.03
-37.73
-40.14
-42.61
-45.52
-49.15
-53.35
-57.47
-60.35
-60.67
-57.38
-50.15
-39.61
-27.16
-14.54
-3.23
5.86
12.57
17.25
20.43
22.6
24.05
24.94
25.44
25.68
25.75
25.59
25.05
23.93
22.23
20.31
18.8
18.42
19.67
22.56
26.62
31.15
35.56
39.58
43.3
47.03
50.98
55.13
59.29
63.17
66.59
69.58
72.33
75.07
77.94
80.98
84.05
86.85
88.78
88.91
86.08
79.19
67.59
51.5
32.1
11.35
-8.57
-25.85
-39.44
-49.27
-55.91
-60.28
-63.31
-65.73
-68.01
-70.47
-73.21
-76.15
-78.99
-81.26
-82.41
-81.95
-79.69
-75.74
-70.5
-64.53
-58.39
-52.55
-47.28
-42.71
-38.8
-35.44
-32.47
-29.76
-27.23
-24.93
-22.94
-21.34
-20.18
-19.43
-18.96
-18.63
-18.31
-17.94
-17.57
-17.3
-17.23
-17.4
-17.77
-18.27
-18.84
-19.42
-20.01
-20.67
-21.46
-22.42
-23.59
-24.97
-26.69
-28.85
-31.54
-34.59
-37.52
-39.49
-39.56
-36.97
-31.49
-23.55
-14.12
-4.46
4.34
11.59
17.03
20.72
22.85
23.68
23.45
22.54
21.35
20.29
19.64
19.52
19.88
20.59
21.53
22.62
23.89
25.34
27.0
28.77
30.51
32.02
33.08
33.47
33.11
32.03
30.47
28.7
26.93
25.23
23.49
21.52
19.12
16.28
13.08
9.72
6.4
3.24
0.27
-2.51
-5.14
-7.66
-10.23
-13.1
-16.48
-20.4
-24.52
-28.12
-30.19
-29.83
-26.48
-20.26
-11.94
-2.74
6.04
13.4
18.78
22.12
23.72
23.98
23.38
22.27
21.01
19.92
19.28
19.32
20.09
21.52
23.35
25.27
27.05
28.5
29.61
30.4
30.95
31.26
31.29
30.93
30.1
28.74
26.9
24.68
22.18
19.5
16.61
13.43
9.79
5.55
0.66
-4.77
-10.41
-15.9
-20.93
-25.44
-29.57
-33.69
-38.15
-43.09
-48.43
-53.75
-58.45
-61.86
-63.31
-62.28
-58.54
-52.21
-43.76
-34.03
-23.96
-14.39
-5.99
0.91
6.22
10.08
12.68
14.39
15.49
16.34
17.26
18.51
20.23
22.34
24.64
26.8
28.52
29.64
30.15
30.21
29.98
29.53
28.8
27.66
26.0
23.81
21.18
18.22
15.0
11.46
7.58
3.34
-1.14
-5.69
-10.13
-14.33
-18.29
-21.97
-25.35
-28.3
-30.58
-32.11
-32.95
-33.46
-34.2
-35.72
-38.32
-41.91
-45.88
-49.22
-50.81
-49.69
-45.45
-38.32
-29.14
-19.06
-9.27
-0.72
6.1
11.1
14.54
16.7
17.95
18.53
18.7
18.65
18.63
18.86
19.44
20.43
21.7
23.1
24.45
25.65
26.63
27.36
27.8
27.85
27.48
26.67
25.47
23.98
22.3
20.55
18.8
17.15
15.64
14.37
13.36
12.52
11.69
10.66
9.25
7.4
5.17
2.7
0.24
-2.0
-3.89
-5.39
-6.62
-7.81
-9.3
-11.4
-14.2
-17.46
-20.59
-22.77
-23.22
-21.44
-17.36
-11.38
-4.16
3.46
10.74
17.15
22.33
26.15
28.57
29.67
29.64
28.72
27.21
25.51
23.95
22.79
22.16
21.98
22.04
22.04
21.77
21.15
20.26
19.26
18.26
17.18
15.82
13.9
11.31
8.14
4.74
1.53
-1.19
-3.31
-4.97
-6.42
-7.88
-9.51
-11.33
-13.31
-15.4
-17.56
-19.76
-21.92
-24.01
-26.04
-28.18
-30.71
-33.94
-38.0
-42.64
-47.16
-50.47
-51.52
-49.6
-44.69
-37.41
-28.85
-20.17
-12.34
-5.91
-1.05
2.34
4.48
5.63
6.0
5.86
5.45
5.03
4.85
5.03
5.62
6.47
7.41
8.3
9.09
9.9
10.84
12.04
13.45
14.92
16.18
16.94
17.01
16.29
14.89
13.06
11.1
9.2
7.4
5.55
3.33
0.52
-2.94
-6.84
-10.76
-14.24
-16.96
-18.87
-20.22
-21.48
-23.2
-25.78
-29.38
-33.72
-38.14
-41.75
-43.56
-42.85
-39.34
-33.31
-25.52
-17.03
-8.85
-1.71
4.04
8.43
11.62
13.83
15.21
15.96
16.32
16.64
17.27
18.44
20.11
22.02
23.8
25.16
26.03
26.51
26.78
27.0
27.12
27.02
26.53
25.54
24.04
22.12
19.95
17.71
15.56
13.57
11.76
9.99
8.1
5.93
3.47
0.84
-1.75
-4.05
-5.94
-7.52
-8.98
-10.62
-12.71
-15.43
-18.83
-22.79
-26.93
-30.62
-33.06
-33.41
-31.14
-26.09
-18.71
-9.87
-0.64
8.01
15.46
21.41
25.91
29.14
31.3
32.55
32.98
32.66
31.65
30.11
28.24
26.28
24.48
23.05
22.1
21.69
21.77
22.21
22.81
23.29
23.35
22.76
21.44
19.41
16.88
14.1
11.25
8.41
5.59
2.7
-0.32
-3.49
-6.76
-10.05
-13.23
-16.18
-18.84
-21.26
-23.64
-26.26
-29.37
-32.98
-36.79
-40.15
-42.24
-42.29
-39.87
-35.07
-28.39
-20.68
-12.82
-5.57
0.53
5.19
8.29
9.82
9.86
8.62
6.43
3.7
0.87
-1.61
-3.43
-4.44
-4.61
-4.07
-3.0
-1.57
0.01
1.56
2.93
3.95
4.48
4.48
4.02
3.21
2.21
1.07
-0.24
-1.86
-3.9
-6.36
-9.12
-11.9
-14.45
-16.59
-18.28
-19.71
-21.18
-23.06
-25.65
-29.02
-32.92
-36.8
-39.82
-41.11
-40.0
-36.2
-29.88
-21.7
-12.59
-3.51
4.73
11.64
16.98
20.8
23.26
24.59
25.02
24.82
24.24
23.51
22.82
22.23
21.76
21.36
21.02
20.74
20.53
20.41
20.24
19.9
19.22
18.21
16.99
15.81
14.92
14.35
13.9
13.15
11.71
9.32
5.95
1.81
-2.76
-7.41
-11.84
-15.84
-19.28
-22.14
-24.56
-26.83
-29.33
-32.26
-35.49
-38.48
-40.27
-39.93
-36.91
-31.24
-23.64
-15.16
-6.89
0.37
6.23
10.68
13.92
16.18
17.67
18.49
18.7
18.42
17.8
17.13
16.67
16.72
17.37
18.61
20.23
21.92
23.44
24.6
25.29
25.43
24.97
23.84
22.05
19.73
17.1
14.45
11.95
9.64
7.37
4.93
2.15
-1.01
-4.4
-7.76
-10.81
-13.39
-15.52
-17.36
-19.21
-21.36
-23.99
-27.0
-30.0
-32.32
-33.14
-31.75
-27.8
-21.44
-13.28
-4.3
4.53
12.41
18.93
23.94
27.55
29.91
31.19
31.6
31.38
30.87
30.34
29.98
29.79
29.67
29.45
29.04
28.43
27.71
26.99
26.37
25.8
25.19
24.43
23.43
22.15
20.62
18.94
17.21
15.52
13.85
12.09
10.06
7.6
4.73
1.64
-1.4
-4.12
-6.45
-8.5
-10.58
-13.02
-16.1
-19.96
-24.49
-29.28
-33.63
-36.63
-37.44
-35.52
-30.9
-24.22
-16.52
-8.9
-2.2
3.11
7.01
9.66
11.28
12.04
12.08
11.5
10.49
9.28
8.15
7.3
6.89
6.92
7.28
7.77
8.16
8.23
7.88
7.12
6.04
4.72
3.25
1.58
-0.27
-2.33
-4.51
-6.71
-8.83
-10.87
-12.89
-14.96
-17.09
-19.2
-21.23
-23.11
-24.94
-26.9
-29.27
-32.21
-35.69
-39.39
-42.66
-44.74
-44.86
-42.57
-37.83
-31.07
-23.1
-14.85
-7.21
-0.79
4.13
7.57
9.73
10.98
11.62
11.94
12.1
12.18
12.23
12.29
12.43
12.69
13.16
13.83
14.66
15.58
16.42
17.02
17.17
16.75
15.76
14.31
12.55
10.67
8.71
6.58
4.2
1.5
-1.42
-4.35
-7.08
-9.44
-11.44
-13.16
-14.71
-16.16
-17.61
-19.32
-21.6
-24.72
-28.6
-32.71
-36.08
-37.61
-36.47
-32.45
-26.0
-18.08
-9.74
-1.88
4.89
10.17
13.68
15.26
14.9
12.91
9.89
6.56
3.65
1.55
0.36
-0.1
-0.07
0.29
0.98
2.17
3.92
6.21
8.87
11.62
14.18
16.32
17.91
18.89
19.28
19.08
18.29
16.98
15.13
12.83
10.11
6.99
3.5
-0.3
-4.31
-8.42
-12.46
-16.39
-20.28
-24.3
-28.69
-33.58
-38.86
-44.06
-48.4
-50.99
-51.07
-48.27
-42.74
-35.17
-26.52
-17.81
-9.82
-2.93
2.77
7.43
11.23
14.39
17.08
19.51
21.88
24.4
27.2
30.24
33.31
36.15
38.57
40.49
41.98
43.13
44.03
44.68
45.02
44.97
44.5
43.57
42.16
40.27
37.93
35.27
32.56
30.06
27.94
26.14
24.41
22.43
19.97
17.08
13.93
10.82
7.93
5.19
2.36
-0.89
-4.88
-9.72
-15.32
-21.3
-27.03
-31.72
-34.54
-34.89
-32.6
-28.0
-21.84
-15.05
-8.5
-2.8
1.72
4.94
6.88
7.62
7.34
6.31
4.85
3.32
2.07
1.34
1.24
1.73
2.66
3.82
4.97
5.98
6.8
7.51
8.18
8.83
9.35
9.55
9.24
8.37
7.0
5.3
3.41
1.4
-0.73
-2.97
-5.28
-7.54
-9.59
-11.28
-12.61
-13.68
-14.71
-15.94
-17.65
-20.05
-23.28
-27.26
-31.66
-35.79
-38.72
-39.5
-37.45
-32.42
-24.95
-16.07
-7.04
1.04
7.53
12.32
15.62
17.84
19.29
20.17
20.59
20.61
20.27
19.66
18.88
18.05
17.33
16.92
17.07
18.03
19.95
22.65
25.68
28.31
29.74
29.37
27.01
22.98
17.96
12.77
8.02
3.99
0.68
-2.12
-4.61
-6.85
-8.81
-10.44
-11.73
-12.86
-14.14
-15.96
-18.71
-22.67
-28.08
-35.01
-43.24
-52.18
-60.84
-67.89
-72.06
-72.55
-69.24
-62.86
-54.65
-45.97
-37.9
-31.01
-25.44
-21.05
-17.66
-15.05
-12.95
-11.07
-9.1
-6.85
-4.23
-1.33
1.68
4.68
7.62
10.53
13.4
16.26
19.07
21.8
24.4
26.73
28.57
29.62
29.64
28.53
26.5
23.89
21.09
18.33
15.6
12.73
9.47
5.7
1.46
-3.0
-7.41
-11.51
-15.13
-18.26
-20.95
-23.38
-25.8
-28.57
-31.94
-35.94
-40.18
-43.85
-45.94
-45.55
-42.22
-36.18
-28.22
-19.43
-10.84
-3.15
3.42
8.95
13.68
17.88
21.72
25.32
28.71
31.96
35.1
38.14
40.99
43.45
45.26
46.16
46.05
44.98
43.16
40.86
38.34
35.7
32.97
30.07
26.97
23.76
20.58
17.6
14.97
12.74
10.87
9.28
7.88
6.55
5.21
3.82
2.35
0.83
-0.69
-2.16
-3.65
-5.27
-7.27
-9.9
-13.35
-17.69
-22.7
-27.93
-32.66
-36.08
-37.36
-36.02
-31.99
-25.79
-18.25
-10.29
-2.71
3.99
9.56
13.96
17.19
19.32
20.46
20.78
20.57
20.08
19.52
19.0
18.54
18.14
17.82
17.64
17.6
17.74
18.01
18.32
18.53
18.43
17.8
16.53
14.62
12.22
9.56
6.86
4.26
1.77
-0.78
-3.51
-6.48
-9.56
-12.55
-15.23
-17.49
-19.38
-21.12
-23.05
-25.45
-28.53
-32.25
-36.36
-40.32
-43.41
-44.87
-44.15
-41.05
-35.83
-29.15
-21.84
-14.73
-8.46
-3.42
0.26
2.54
3.55
3.53
2.82
1.87
1.07
0.74
0.99
1.73
2.79
3.98
5.21
6.44
7.65
8.77
9.66
10.2
10.33
10.08
9.55
8.81
7.82
6.46
4.59
2.17
-0.67
-3.6
-6.36
