10.89
11.63
11.92
12.03
12.11
12.25
12.46
12.73
13.07
13.52
14.1
14.79
15.62
16.56
17.58
18.54
19.21
19.38
18.92
17.86
16.41
14.83
13.28
11.76
10.1
8.09
5.6
2.65
-0.56
-3.79
-6.83
-9.56
-11.94
-13.99
-15.85
-17.75
-19.93
-22.61
-25.82
-29.28
-32.43
-34.53
-34.91
-33.16
-29.28
-23.64
-16.86
-9.69
-2.79
3.26
8.13
11.69
14.01
15.31
15.82
15.7
15.06
13.96
12.53
10.97
9.62
8.74
8.45
8.7
9.19
9.61
9.66
9.24
8.32
7.05
5.59
4.0
2.39
0.81
-0.71
-2.22
-3.79
-5.53
-7.5
-9.71
-12.09
-14.51
-16.88
-19.18
-21.49
-24.01
-26.9
-30.25
-33.85
-37.32
-40.08
-41.53
-41.18
-38.79
-34.43
-28.46
-21.45
-14.02
-6.86
-0.49
4.64
8.32
10.59
11.67
11.84
11.35
10.43
9.21
7.88
6.65
5.72
5.27
5.34
5.82
6.52
7.26
7.88
8.35
8.72
8.99
9.23
9.39
9.41
9.22
8.76
7.99
6.97
5.75
4.37
2.82
0.99
-1.16
-3.66
-6.39
-9.27
-12.23
-15.38
-18.82
-22.54
-26.25
-29.3
-30.87
-30.19
-26.98
-21.51
-14.57
-7.2
-0.35
5.34
9.58
12.44
14.09
14.8
14.77
14.23
13.39
12.5
11.76
11.28
11.07
11.02
11.04
11.03
11.01
10.99
11.06
11.27
11.6
11.98
12.27
12.35
12.11
11.55
10.67
9.55
8.23
6.7
4.93
2.89
0.65
-1.67
-3.8
-5.58
-6.92
-7.96
-9.02
-10.47
-12.64
-15.56
-18.92
-22.12
-24.39
-25.03
-23.61
-20.14
-14.94
-8.66
-2.01
4.3
9.77
14.07
17.07
18.77
19.33
18.98
18.02
16.82
15.75
15.07
14.87
15.05
15.41
15.73
15.9
15.97
16.08
16.34
16.74
17.11
17.23
16.97
16.32
15.42
14.39
13.34
12.25
11.05
9.7
8.19
6.49
4.57
2.37
-0.16
-2.97
-5.88
-8.62
-10.97
-12.82
-14.32
-15.77
-17.54
-19.87
-22.81
-26.07
-29.11
-31.23
-31.77
-30.36
-26.93
-21.83
-15.61
-8.94
-2.39
3.6
8.74
12.86
15.78
17.47
17.96
17.47
16.32
14.94
13.72
12.97
12.83
13.2
13.87
14.51
14.85
14.75
14.3
13.77
13.36
13.19
13.06
12.67
11.77
10.29
8.48
6.71
5.33
4.4
3.74
2.96
1.7
-0.18
-2.55
-5.05
-7.33
-9.2
-10.68
-12.02
-13.5
-15.33
-17.57
-20.11
-22.72
-25.15
-27.1
-28.25
-28.24
-26.8
-23.87
-19.58
-14.42
-9.0
-3.95
0.25
3.36
5.4
6.48
6.82
6.62
6.05
5.29
4.44
3.6
2.81
2.17
1.79
1.84
2.42
3.57
5.19
7.05
8.78
10.06
10.58
10.19
8.91
6.88
4.41
1.9
-0.23
-1.75
-2.59
-2.95
-3.18
-3.64
-4.61
-6.13
-8.09
-10.23
-12.38
-14.47
-16.59
-18.85
-21.35
-24.09
-26.98
-29.89
-32.61
-34.82
-36.07
-35.84
-33.75
-29.71
-24.03
-17.38
-10.5
-4.03
1.71
6.61
10.71
13.97
16.32
17.67
18.02
17.51
16.47
15.25
14.21
13.62
13.55
13.96
14.65
15.42
16.1
16.63
16.99
17.18
17.14
16.77
15.96
14.69
13.09
11.32
9.6
8.04
6.61
5.25
3.85
2.33
0.67
-1.14
-3.13
-5.29
-7.59
-9.84
-11.8
-13.19
-13.96
-14.27
-14.57
-15.45
-17.29
-20.05
-23.14
-25.59
-26.39
-24.89
-21.04
-15.38
-8.78
-2.16
3.83
8.88
12.94
16.08
18.37
19.79
20.31
20.04
19.21
18.17
17.25
16.67
16.53
16.81
17.44
18.33
19.44
20.69
21.98
23.17
24.12
24.73
25.07
25.23
25.32
25.39
25.39
25.28
24.97
24.42
23.67
22.75
21.74
20.63
19.41
17.95
16.06
13.59
10.5
6.97
3.33
-0.1
-3.07
-5.6
-7.93
-10.43
-13.42
-17.08
-21.32
-25.79
-29.96
-33.12
-34.65
-34.09
-31.36
-26.76
-20.89
-14.53
-8.36
-2.93
1.5
4.78
6.95
8.07
8.3
7.86
7.04
6.18
5.51
5.23
5.37
5.86
6.53
7.23
7.91
8.61
9.43
10.42
11.58
12.73
13.63
14.04
13.81
12.92
11.46
9.69
7.8
6.01
4.37
2.84
1.27
-0.51
-2.59
-4.94
-7.34
-9.54
-11.35
-12.72
-13.8
-14.86
-16.2
-18.04
-20.46
-23.34
-26.4
-29.15
-31.04
-31.55
-30.36
-27.48
-23.24
-18.17
-12.87
-7.89
-3.62
-0.36
1.71
2.54
2.17
0.85
-1.06
-3.08
-4.8
-5.92
-6.29
-5.94
-4.98
-3.56
-1.88
-0.06
1.74
3.4
4.8
5.85
6.46
6.55
6.07
5.02
3.45
1.49
-0.67
-2.82
-4.83
-6.65
-8.3
-9.89
-11.44
-12.92
-14.27
-15.4
-16.31
-17.11
-17.99
-19.15
-20.82
-23.12
-26.07
-29.41
-32.68
-35.18
-36.22
-35.25
-32.11
-27.04
-20.63
-13.61
-6.68
-0.38
4.99
9.3
12.6
15.0
16.66
17.69
18.21
18.28
18.0
17.46
16.75
15.96
15.16
14.35
13.5
12.63
11.82
11.21
10.94
11.03
11.36
11.7
11.75
11.3
10.32
8.91
7.19
5.21
2.91
0.19
-2.97
-6.45
-9.96
-13.16
-15.81
-17.87
-19.52
-21.01
-22.64
-24.64
-27.11
-30.05
-33.3
-36.51
-39.11
-40.46
-39.99
-37.4
-32.79
-26.63
-19.59
-12.37
-5.54
0.5
5.54
9.48
12.3
14.13
15.14
15.63
15.91
16.24
16.78
17.61
18.66
19.82
20.98
22.09
23.12
24.13
25.13
26.13
27.04
27.7
27.93
27.58
26.64
25.21
23.52
21.8
20.2
18.68
17.08
15.21
12.93
10.25
7.37
4.58
2.09
-0.0
-1.78
-3.43
-5.23
-7.46
-10.35
-14.0
-18.26
-22.7
-26.63
-29.24
-29.82
-27.9
-23.43
-16.78
-8.69
-0.12
7.99
14.84
19.99
23.31
25.03
25.59
25.51
25.2
24.93
24.78
24.73
24.73
24.71
24.64
24.55
24.46
24.42
24.41
24.4
24.26
23.91
23.29
22.42
21.38
20.29
19.22
18.21
17.15
15.92
14.35
12.33
9.84
6.97
3.89
0.8
-2.2
-5.07
-7.88
-10.79
-13.91
-17.39
-21.21
-25.23
-29.15
-32.45
-34.55
-34.89
-33.12
-29.23
-23.6
-16.88
-9.94
-3.55
1.71
5.53
7.91
9.04
9.2
8.71
7.84
6.83
5.91
5.31
5.22
5.69
6.68
8.02
9.45
10.74
11.74
12.36
12.6
12.44
11.88
10.86
9.37
7.42
5.1
2.55
-0.07
-2.64
-5.13
-7.5
-9.75
-11.88
-13.89
-15.87
-18.03
-20.61
-23.85
-27.83
-32.29
-36.72
-40.33
-42.32
-42.09
-39.44
-34.56
-28.1
-20.88
-13.72
-7.3
-2.01
2.01
4.85
6.69
7.74
8.18
8.15
7.79
7.23
6.66
6.2
5.95
5.97
6.18
6.49
6.79
7.07
7.32
7.56
7.75
7.79
7.59
7.06
6.16
4.9
3.36
1.6
-0.29
-2.31
-4.5
-6.91
-9.59
-12.53
-15.64
-18.87
-22.23
-25.8
-29.63
-33.68
-37.6
-40.77
-42.36
-41.68
-38.43
-32.81
-25.53
-17.5
-9.56
-2.29
3.96
9.11
13.08
15.84
17.35
17.71
17.2
16.16
15.02
14.11
13.68
13.78
14.38
15.3
16.32
17.14
17.51
17.36
16.75
15.94
15.15
14.61
14.32
14.11
13.67
12.76
11.24
9.12
6.61
3.93
1.34
-0.97
-2.92
-4.49
-5.82
-7.12
-8.69
-10.81
-13.67
-17.26
-21.26
-25.12
-28.1
-29.45
-28.62
-25.41
-20.06
-13.15
-5.5
2.11
8.97
14.65
18.91
21.79
23.45
24.16
24.23
23.94
23.53
23.12
22.8
22.61
22.58
22.7
22.88
23.03
23.04
22.94
22.8
22.79
23.0
23.42
23.87
24.09
23.86
23.06
21.77
20.2
18.63
17.25
16.12
15.1
13.96
12.46
10.49
8.1
5.48
2.85
0.37
-1.96
-4.3
-6.9
-9.94
-13.47
-17.3
-20.99
-23.97
-25.61
-25.44
-23.25
-19.19
-13.73
-7.5
-1.17
4.75
9.9
14.09
17.24
19.36
20.52
20.91
20.79
20.5
20.3
20.36
20.71
21.19
21.62
21.78
21.63
21.19
20.61
20.05
19.59
19.23
18.83
18.25
17.39
16.29
15.06
13.81
12.64
11.61
10.66
9.64
8.45
7.03
5.36
3.5
1.48
-0.62
-2.79
-5.0
-7.24
-9.53
-11.88
-14.35
-17.03
-20.04
-23.42
-27.17
-31.1
-34.84
-37.9
-39.69
-39.75
-37.83
-34.07
-28.92
-23.12
-17.4
-12.28
-8.1
-4.92
-2.7
-1.25
-0.41
0.02
0.26
0.55
1.05
1.79
2.67
3.59
4.4
5.12
5.82
6.58
7.45
8.34
9.09
9.54
9.6
9.27
8.63
7.81
6.86
5.83
4.73
3.51
2.12
0.48
-1.47
-3.73
-6.19
-8.69
-11.09
-13.2
-14.97
-16.41
-17.61
-18.76
-19.99
-21.49
-23.42
-25.85
-28.73
-31.76
-34.4
-36.01
-35.95
-33.85
-29.72
-24.01
-17.44
-10.76
-4.62
0.64
4.9
8.17
10.51
11.96
12.58
12.53
12.07
11.57
11.38
11.69
12.49
13.57
14.63
15.4
15.74
15.66
15.29
14.76
14.14
13.46
12.71
11.85
10.85
9.7
8.38
6.89
5.29
3.67
2.13
0.77
-0.44
-1.57
-2.8
-4.29
-6.18
-8.48
-11.07
-13.7
-16.12
-18.14
-19.71
-20.99
-22.28
-23.9
-26.05
-28.69
-31.56
-34.14
-35.86
-36.12
-34.55
-30.99
-25.65
-19.01
-11.77
-4.65
1.77
7.12
11.31
14.42
16.62
18.11
19.05
19.56
19.7
19.57
19.25
18.85
18.5
18.23
18.06
17.93
17.81
17.64
17.44
17.22
17.01
16.8
16.58
16.33
16.07
15.76
15.3
14.53
13.3
11.57
9.46
7.26
5.28
3.7
2.5
1.48
0.38
-0.94
-2.44
-3.94
-5.25
-6.31
-7.22
-8.21
-9.54
-11.32
-13.63
-16.35
-19.25
-22.0
-24.15
-25.2
-24.65
-22.24
-17.95
-12.16
-5.47
1.38
7.73
13.12
17.37
20.44
22.4
23.41
23.63
23.31
22.67
21.99
21.42
20.99
20.65
20.29
19.87
19.39
18.91
18.46
18.04
17.65
17.28
16.91
16.51
16.0
15.22
14.03
12.37
10.27
7.9
5.44
3.05
0.77
-1.41
-3.6
-5.89
-8.31
-10.81
-13.27
-15.48
-17.28
-18.65
-19.7
-20.74
-22.09
-24.01
-26.51
-29.39
-32.23
-34.48
-35.67
-35.43
-33.57
-30.1
-25.23
-19.33
-12.97
-6.78
-1.33
2.94
5.84
7.41
7.88
7.59
6.87
6.0
5.22
4.58
4.11
3.74
3.49
3.38
3.52
3.98
4.79
5.82
6.89
7.73
8.17
8.16
7.73
6.99
6.02
4.82
3.43
1.81
0.0
-1.97
-4.02
-6.11
-8.21
-10.27
-12.27
-14.2
-16.08
-17.96
-19.9
-22.04
-24.45
-27.16
-30.0
-32.65
-34.61
-35.25
-34.11
-30.98
-26.04
-19.81
-13.03
-6.34
-0.27
4.89
9.03
12.05
13.95
14.78
14.72
14.05
13.14
12.3
11.77
11.65
11.88
12.35
12.89
13.37
13.76
14.05
14.3
14.5
14.57
14.38
13.81
12.79
11.32
9.51
7.48
5.27
2.96
0.57
-1.79
-4.06
-6.18
-8.18
-10.13
-12.14
-14.31
-16.71
-19.39
-22.38
-25.66
-29.17
-32.65
-35.68
-37.68
-38.02
-36.28
-32.33
-26.5
-19.44
-11.94
-4.75
1.57
6.7
10.52
13.06
14.47
14.93
14.76
14.26
13.72
13.31
13.13
13.18
13.45
13.91
14.49
15.13
15.74
16.27
16.68
17.0
17.22
17.22
16.88
16.07
14.81
13.24
11.55
9.9
8.32
6.65
4.65
2.21
-0.64
-3.69
-6.63
-9.25
-11.43
-13.32
-15.19
-17.36
-20.1
-23.55
-27.58
-31.86
-35.72
-38.37
-39.04
-37.23
-32.87
-26.36
-18.49
-10.17
-2.24
4.75
10.5
15.02
18.44
20.95
22.75
24.02
24.96
25.69
26.31
26.87
27.38
27.79
28.06
28.2
28.2
28.11
27.96
27.78
27.59
27.31
26.86
26.15
25.17
23.93
22.58
21.23
19.88
18.44
16.71
14.48
11.66
8.34
4.77
1.32
-1.7
-4.08
-5.9
-7.31
-8.59
-9.97
-11.68
-13.87
-16.57
-19.59
-22.52
-24.73
-25.46
-24.09
-20.31
-14.28
-6.68
1.6
9.62
16.63
22.22
26.2
28.59
29.51
29.18
27.88
25.99
23.88
21.89
20.22
18.89
17.8
16.81
15.87
14.97
14.14
13.42
12.74
12.06
11.25
10.24
8.95
7.41
5.68
3.88
2.11
0.44
-1.13
-2.79
-4.72
-7.05
-9.81
-12.82
-15.83
-18.54
-20.85
-22.78
-24.55
-26.48
-28.85
-31.79
-35.13
-38.4
-40.89
-41.88
-40.79
-37.42
-32.02
-25.16
-17.6
-10.13
-3.35
2.37
6.86
10.1
12.13
13.03
12.92
12.0
10.53
8.93
7.61
6.88
6.78
7.19
7.79
8.34
8.71
8.99
9.24
9.51
9.68
9.54
8.92
7.79
6.28
4.55
2.75
0.81
-1.43
-4.15
-7.41
-11.09
-14.9
-18.52
-21.68
-24.27
-26.39
-28.29
-30.24
-32.54
-35.37
-38.62
-41.85
-44.35
-45.27
-43.88
-39.87
-33.48
-25.44
-16.77
-8.42
-1.07
4.96
9.59
12.9
15.0
16.03
16.2
15.82
15.28
14.94
15.06
15.67
16.64
17.74
18.76
19.58
20.22
20.79
21.34
21.89
22.31
22.35
21.84
20.66
18.86
16.58
13.97
11.11
8.01
4.65
1.08
-2.54
-5.96
-8.93
-11.32
-13.24
-15.01
-16.98
-19.49
-22.65
-26.4
-30.53
-34.7
-38.45
-41.25
-42.47
-41.55
-38.21
-32.56
-25.16
-16.9
-8.67
-1.18
5.23
10.45
14.55
17.59
19.62
20.75
21.18
21.21
21.11
21.06
21.1
21.14
21.1
21.01
20.95
21.09
21.47
22.05
22.62
22.95
22.81
22.09
20.78
19.0
16.91
14.73
12.64
10.76
9.09
7.5
5.78
3.68
1.1
-1.88
-5.01
-7.95
-10.47
-12.57
-14.44
-16.44
-18.87
-21.92
-25.55
-29.52
-33.38
-36.53
-38.33
-38.13
-35.59
-30.71
-23.89
-15.86
-7.51
0.39
7.28
12.86
17.09
20.05
21.91
22.9
23.28
23.32
23.26
23.25
23.32
23.49
23.72
24.04
24.53
25.25
26.18
27.2
28.11
28.72
28.86
28.48
27.61
26.28
24.49
22.33
19.94
17.53
15.3
13.35
11.6
9.87
7.96
5.75
3.26
0.64
-1.95
-4.42
-6.8
-9.27
-12.0
-15.19
-18.95
-23.23
-27.88
-32.49
-36.44
-38.99
-39.47
-37.45
-32.96
-26.44
-18.71
-10.73
-3.27
3.09
8.11
11.76
14.09
15.2
15.26
14.54
13.35
12.1
11.11
10.58
10.52
10.79
11.18
11.58
11.97
12.47
13.15
13.94
14.62
14.88
14.44
13.24
11.44
9.39
7.51
6.05
5.06
4.34
3.61
2.52
0.9
-1.3
-3.98
-6.91
-9.89
-12.78
-15.57
-18.38
-21.43
-24.92
-28.93
-33.34
-37.7
-41.37
-43.56
-43.61
-41.16
-36.28
-29.47
-21.51
-13.27
-5.53
1.15
6.44
10.17
12.39
13.32
13.31
12.8
12.23
11.93
12.04
12.55
13.33
14.25
15.17
15.94
16.46
16.62
16.4
15.86
15.08
14.16
13.12
11.91
10.45
8.76
6.92
5.11
3.45
1.99
0.61
-0.89
-2.65
-4.73
-7.02
-9.35
-11.51
-13.38
-14.98
-16.46
-18.17
-20.51
-23.82
-28.09
-32.93
-37.48
-40.66
-41.48
-39.41
-34.52
-27.43
-19.11
-10.53
-2.5
4.48
10.16
14.49
17.5
19.3
20.09
20.08
19.55
18.77
17.99
17.35
16.92
16.71
16.66
16.78
17.0
17.33
17.72
18.12
18.45
18.6
18.52
18.15
17.49
16.5
15.17
13.55
11.71
9.77
7.82
5.91
3.96
1.87
-0.43
-2.92
-5.48
-7.94
-10.21
-12.31
-14.4
-16.73
-19.57
-23.08
-27.3
-32.02
-36.76
-40.8
-43.35
-43.7
-41.51
-36.86
-30.26
-22.53
-14.57
-7.1
-0.61
4.69
8.83
11.95
14.25
15.9
17.04
17.79
18.25
18.56
18.81
19.08
19.41
19.79
20.2
20.65
21.11
21.56
21.92
22.06
21.9
21.37
20.48
19.3
17.87
16.25
14.47
12.56
10.65
8.83
7.16
5.63
4.14
2.56
0.79
-1.18
-3.23
-5.2
-6.92
-8.34
-9.49
-10.55
-11.78
-13.49
-15.9
-18.98
-22.4
-25.47
-27.39
-27.46
-25.32
-21.11
-15.32
-8.71
-1.98
4.3
9.79
14.3
17.8
20.33
21.98
22.9
23.17
22.97
22.47
21.87
21.39
21.15
21.16
21.31
21.43
21.38
21.15
20.81
20.47
20.19
19.91
19.55
19.01
18.24
17.22
15.91
14.33
12.51
10.48
8.3
5.99
3.58
1.07
-1.54
-4.21
-6.86
-9.38
-11.62
-13.51
-15.04
-16.34
-17.64
-19.25
-21.45
-24.36
-27.84
-31.41
-34.36
-35.92
-35.53
-33.0
-28.56
-22.79
-16.39
-10.06
-4.28
0.62
4.49
7.24
8.85
9.38
8.99
7.93
6.55
5.2
4.17
3.61
3.59
4.11
5.09
6.42
7.98
9.6
11.02
11.97
12.21
11.68
10.46
8.77
6.87
4.96
3.11
1.31
-0.51
-2.39
-4.35
-6.34
-8.31
-10.2
-11.97
-13.57
-15.01
-16.37
-17.8
-19.52
-21.76
-24.61
-27.99
-31.54
-34.67
-36.66
-36.83
-34.79
-30.54
-24.55
-17.59
-10.54
-4.18
1.09
5.09
7.92
9.75
10.75
11.11
11.02
10.74
10.54
10.62
11.07
11.81
12.64
13.38
13.92
14.29
14.58
14.87
15.14
15.25
15.0
14.24
12.95
11.27
9.38
7.44
5.55
3.68
1.78
-0.19
-2.21
-4.24
-6.24
-8.22
-10.22
-12.24
-14.24
-16.17
-18.04
-19.97
-22.2
-24.98
-28.39
-32.25
-36.02
-38.93
-40.17
-39.18
-35.83
-30.34
-23.31
-15.48
-7.66
-0.52
5.43
9.97
13.1
15.03
16.1
16.61
16.84
16.92
16.95
16.94
16.98
17.08
17.28
17.56
17.82
18.0
18.02
17.93
17.77
17.6
17.38
16.98
16.24
15.03
13.38
11.46
9.54
7.84
6.49
5.42
4.46
3.36
1.92
0.04
-2.21
-4.68
-7.13
-9.38
-11.34
-13.07
-14.8
-16.84
-19.45
-22.77
-26.72
-30.91
-34.67
-37.25
-37.93
-36.25
-32.2
-26.15
-18.82
-11.03
-3.54
3.14
8.75
13.21
16.55
18.8
20.05
20.48
20.38
20.1
19.98
20.26
21.0
22.11
23.44
24.86
26.29
27.73
29.17
30.52
31.61
32.3
32.46
32.02
30.95
29.29
27.07
24.39
21.37
18.16
14.97
11.95
9.17
6.61
4.18
1.75
-0.75
-3.3
-5.81
-8.14
-10.12
-11.73
-13.05
-14.33
-15.86
-17.86
-20.39
-23.35
-26.47
-29.32
-31.37
-32.1
-31.09
-28.2
-23.56
-17.66
-11.18
-4.81
0.85
5.39
8.7
10.8
11.87
12.15
11.94
11.51
11.12
10.92
11.0
11.39
11.97
12.6
13.15
13.52
13.72
13.85
14.06
14.42
14.87
15.17
15.07
14.36
13.0
11.12
8.97
6.82
4.86
3.15
1.62
0.09
-1.6
-3.55
-5.78
-8.14
-10.51
-12.67
-14.49
-15.98
-17.29
-18.73
-20.62
-23.15
-26.22
-29.4
-31.93
-33.05
-32.2
-29.21
-24.4
-18.41
-11.94
-5.64
0.01
4.71
8.27
10.59
11.73
11.84
11.23
10.19
9.03
7.93
7.0
6.36
6.1
6.26
6.84
7.68
8.58
9.42
10.14
10.77
11.37
11.91
12.27
12.26
11.75
10.78
9.48
8.02
6.53
4.94
3.14
1.05
-1.32
-3.85
-6.35
-8.66
-10.74
-12.65
-14.5
-16.46
-18.72
-21.5
-24.93
-28.94
-33.2
-37.07
-39.73
-40.4
-38.59
-34.3
-28.02
-20.64
-13.1
-6.18
-0.41
3.99
6.99
8.7
9.32
9.13
8.51
7.9
7.67
8.05
9.0
10.28
11.59
12.7
13.53
14.13
14.61
15.02
15.37
15.52
15.33
14.66
13.43
11.71
9.56
7.14
4.64
2.25
0.08
-1.84
-3.57
-5.23
-6.95
-8.82
-10.82
-12.88
-14.84
-16.61
-18.18
-19.69
-21.39
-23.5
-26.16
-29.23
-32.28
-34.64
-35.62
-34.61
-31.37
-26.05
-19.16
-11.47
-3.85
3.02
8.63
12.84
15.74
17.56
18.57
19.02
19.12
19.05
19.06
19.39
20.21
21.5
23.01
24.38
25.28
25.55
25.3
24.78
24.23
23.79
23.38
22.81
21.98
20.88
19.66
18.52
17.59
16.84
16.09
15.12
13.73
11.9
9.66
7.16
4.52
1.83
-0.9
-3.67
-6.5
-9.43
-12.5
-15.82
-19.46
-23.28
-26.93
-29.86
-31.39
-31.01
-28.46
-23.85
-17.66
-10.57
-3.33
3.4
9.17
13.72
16.99
19.08
20.23
20.65
20.55
20.08
19.43
18.82
18.49
18.63
19.33
20.43
21.63
22.6
23.0
22.69
21.72
20.24
18.44
16.49
14.45
12.35
10.22
8.14
6.2
4.49
3.0
1.65
0.27
-1.29
-3.07
-4.98
-6.87
-8.63
-10.13
-11.43
-12.65
-13.99
-15.7
-17.98
-20.87
-24.22
-27.59
-30.28
-31.55
-30.86
-28.02
-23.32
-17.37
-10.97
-4.8
0.64
5.07
8.37
10.48
11.44
11.42
10.65
9.47
8.19
7.04
6.19
5.72
5.65
5.96
6.62
7.55
8.62
9.67
10.51
10.97
10.96
10.41
9.4
8.09
6.67
5.3
4.0
2.67
1.13
-0.74
-2.91
