-13.95
-6.05
0.92
6.61
10.92
14.03
16.19
17.59
18.38
18.58
18.26
17.49
16.46
15.41
14.59
14.16
14.14
14.46
14.95
15.54
16.18
16.94
17.8
18.67
19.3
19.46
18.96
17.8
16.17
14.3
12.44
10.7
9.02
7.25
5.27
3.07
0.77
-1.39
-3.2
-4.58
-5.62
-6.5
-7.5
-8.74
-10.26
-11.95
-13.64
-15.19
-16.57
-17.9
-19.36
-21.21
-23.6
-26.54
-29.75
-32.7
-34.67
-34.95
-33.05
-28.89
-22.84
-15.61
-8.01
-0.77
5.58
10.75
14.64
17.26
18.72
19.13
18.73
17.77
16.54
15.31
14.23
13.4
12.79
12.34
12.01
11.81
11.8
12.01
12.45
13.03
13.6
14.02
14.19
14.08
13.7
13.07
12.19
11.08
9.79
8.39
6.98
5.62
4.32
3.06
1.74
0.29
-1.33
-3.14
-5.09
-7.13
-9.17
-11.1
-12.81
-14.28
-15.54
-16.69
-17.97
-19.62
-21.88
-24.83
-28.27
-31.7
-34.39
-35.52
-34.5
-31.1
-25.59
-18.61
-11.05
-3.7
2.84
8.27
12.48
15.5
17.33
17.93
17.34
15.69
13.36
10.86
8.76
7.5
7.24
7.85
9.06
10.58
12.22
13.94
15.77
17.67
19.49
21.02
22.05
22.49
22.34
21.71
20.7
19.41
17.89
16.19
14.33
12.37
10.29
8.16
6.03
4.01
2.22
0.75
-0.41
-1.42
-2.48
-3.78
-5.38
-7.17
-8.99
-10.64
-12.07
-13.33
-14.58
-15.99
-17.8
-20.2
-23.35
-27.26
-31.66
-35.96
-39.29
-40.74
-39.65
-35.84
-29.69
-22.0
-13.78
-5.93
0.92
6.5
10.79
13.9
15.95
17.04
17.31
16.92
16.1
15.14
14.25
13.56
13.05
12.64
12.31
12.11
12.17
12.65
13.62
14.99
16.56
18.05
19.19
19.77
19.66
18.84
17.41
15.62
13.79
12.18
10.94
9.97
9.04
7.86
6.32
4.52
2.77
1.33
0.35
-0.32
-0.98
-1.97
-3.5
-5.56
-7.96
-10.47
-12.84
-14.92
-16.66
-18.13
-19.46
-20.9
-22.78
-25.38
-28.75
-32.58
-36.17
-38.53
-38.75
-36.26
-31.12
-23.99
-15.91
-7.96
-0.93
4.79
9.21
12.48
14.82
16.33
17.09
17.26
17.06
16.74
16.48
16.31
16.12
15.74
15.11
14.33
13.65
13.34
13.58
14.36
15.48
16.62
17.47
17.8
17.5
16.63
15.32
13.76
12.13
10.52
8.92
7.27
5.53
3.72
1.96
0.38
-0.93
-1.97
-2.84
-3.71
-4.68
-5.86
-7.27
-8.89
-10.68
-12.59
-14.54
-16.49
-18.46
-20.54
-22.95
-25.84
-29.23
-32.83
-36.07
-38.16
-38.36
-36.21
-31.72
-25.35
-17.88
-10.13
-2.8
3.68
9.11
13.46
16.74
18.96
20.16
20.49
20.15
19.44
18.64
17.95
17.49
17.2
16.99
16.79
16.6
16.5
16.58
16.87
17.32
17.78
18.05
18.01
17.63
16.97
16.14
15.21
14.19
13.04
11.77
10.4
9.03
7.72
6.51
5.34
4.15
2.91
1.65
0.48
-0.52
-1.32
-2.0
-2.75
-3.79
-5.27
-7.22
-9.52
-11.95
-14.26
-16.28
-17.98
-19.49
-21.06
-23.0
-25.57
-28.85
-32.7
-36.65
-39.95
-41.75
-41.36
-38.4
-33.01
-25.8
-17.65
-9.48
-1.99
4.42
9.6
13.57
16.4
18.12
18.84
18.73
18.07
17.2
16.46
16.02
15.93
16.09
16.35
16.63
16.96
17.47
18.31
19.48
20.85
22.14
23.01
23.22
22.64
21.36
19.58
17.61
15.69
13.97
12.46
11.1
9.8
8.53
7.3
6.12
4.98
3.81
2.56
1.17
-0.25
-1.63
-2.88
-4.02
-5.21
-6.62
-8.38
-10.46
-12.7
-14.86
-16.78
-18.38
-19.74
-21.06
-22.56
-24.5
-27.03
-30.16
-33.62
-36.86
-39.06
-39.45
-37.46
-32.98
-26.44
-18.63
-10.5
-2.89
3.6
8.73
12.47
14.98
16.51
17.32
17.65
17.66
17.46
17.06
16.52
15.88
15.24
14.66
14.17
13.79
13.51
13.38
13.48
13.89
14.61
15.53
16.42
16.96
16.89
16.1
14.67
12.88
11.05
9.46
8.19
7.18
6.21
5.06
3.62
1.92
0.11
-1.61
-3.05
-4.11
-4.82
-5.29
-5.74
-6.36
-7.29
-8.57
-10.12
-11.81
-13.51
-15.14
-16.73
-18.39
-20.26
-22.5
-25.19
-28.3
-31.59
-34.67
-36.92
-37.69
-36.45
-32.94
-27.35
-20.25
-12.49
-4.91
1.78
7.21
11.29
14.13
15.96
16.99
17.39
17.34
16.97
16.43
15.86
15.41
15.15
15.13
15.31
15.62
16.02
16.48
17.03
17.7
18.49
19.29
19.94
20.21
19.94
19.09
17.78
16.21
14.61
13.13
11.82
10.63
9.47
8.27
6.95
5.5
3.94
2.34
0.84
-0.42
-1.28
-1.69
-1.73
-1.63
-1.7
-2.2
-3.29
-4.94
-7.02
-9.33
-11.71
-14.06
-16.31
-18.43
-20.37
-22.17
-23.99
-26.11
-28.82
-32.17
-35.84
-39.06
-40.83
-40.23
-36.81
-30.77
-22.9
-14.3
-5.98
1.33
7.31
11.92
15.26
17.51
18.77
19.23
19.04
18.42
17.54
16.51
15.43
14.35
13.37
12.58
12.11
12.03
12.37
13.08
14.02
14.98
15.77
16.24
16.33
16.06
15.52
14.76
13.85
12.85
11.78
10.68
9.57
8.44
7.25
5.93
4.46
2.89
1.35
0.01
-1.05
-1.85
-2.5
-3.16
-3.97
-5.02
-6.3
-7.78
-9.37
-11.0
-12.63
-14.21
-15.76
-17.32
-18.98
-20.86
-23.05
-25.6
-28.47
-31.45
-34.15
-35.98
-36.28
-34.48
-30.33
-24.07
-16.35
-8.11
-0.29
6.47
11.85
15.86
18.66
20.4
21.14
20.91
19.78
17.96
15.78
13.63
11.85
10.59
9.82
9.39
9.11
8.92
8.88
9.17
9.94
11.2
12.78
14.35
15.57
16.18
16.15
15.58
14.64
13.49
12.21
10.81
9.28
7.69
6.07
4.49
2.97
1.44
-0.18
-1.97
-3.9
-5.92
-7.95
-9.95
-11.96
-14.06
-16.36
-18.92
-21.77
-24.81
-27.97
-31.11
-34.16
-37.19
-40.37
-43.91
-47.89
-52.07
-55.84
-58.29
-58.54
-56.08
-50.96
-43.82
-35.6
-27.2
-19.28
-12.21
-6.13
-1.05
3.0
6.04
8.14
9.47
10.28
10.82
11.36
12.11
13.31
15.18
17.9
21.44
25.51
29.57
32.92
34.98
35.52
34.77
33.36
31.97
31.08
30.74
30.63
30.28
29.33
27.71
25.58
23.23
20.96
18.98
17.43
16.42
15.97
16.02
16.35
16.7
16.76
16.33
15.27
13.57
11.24
8.32
4.88
1.04
-2.99
-6.99
-10.75
-14.15
-17.14
-19.74
-22.1
-24.37
-26.77
-29.41
-32.22
-34.86
-36.72
-37.11
-35.46
-31.64
-25.88
-18.81
-11.19
-3.68
3.23
9.22
14.09
17.7
20.0
21.02
20.97
20.17
19.0
17.81
16.79
16.03
15.47
15.07
14.8
14.71
14.86
15.32
16.05
16.95
17.85
18.6
19.06
19.13
18.79
18.09
17.08
15.83
14.46
13.03
11.61
10.17
8.65
6.94
5.0
2.83
0.55
-1.68
-3.73
-5.54
-7.22
-8.9
-10.72
-12.68
-14.72
-16.65
-18.38
-20.01
-21.75
-23.92
-26.68
-29.94
-33.31
-36.13
-37.73
-37.52
-35.21
-30.85
-24.85
-17.84
-10.54
-3.6
2.58
7.83
12.13
15.49
17.87
19.15
19.22
18.09
16.03
13.44
10.86
8.71
7.24
6.52
6.45
6.88
7.67
8.77
10.16
11.89
14.02
16.48
19.07
21.45
23.29
24.35
24.6
24.15
23.24
22.06
20.77
19.35
17.74
15.74
13.13
9.71
5.35
0.09
-5.91
-12.42
-19.28
-26.48
-34.15
-42.45
-51.44
-61.0
-70.83
-80.48
-89.29
-96.43
-101.07
-102.58
-100.84
-96.34
-90.03
-82.91
-75.59
-68.07
-59.88
-50.45
-39.67
-28.07
-16.82
-7.39
-1.06
1.46
0.38
-3.23
-7.54
-10.52
-10.52
-6.79
0.31
9.59
19.6
29.24
38.17
46.69
55.3
64.12
72.53
79.32
83.14
83.07
79.07
72.0
63.31
54.49
46.61
40.12
34.94
30.79
27.38
24.6
22.46
20.91
19.77
18.68
17.24
15.09
12.12
8.51
4.78
1.61
-0.35
-0.79
0.03
1.36
2.19
1.63
-0.7
-4.48
-8.9
-12.89
-15.54
-16.22
-14.68
-10.92
-5.22
1.93
9.86
17.75
24.86
30.68
35.0
37.82
39.18
39.09
37.55
34.68
30.81
26.46
22.21
18.54
15.65
13.54
12.11
11.29
11.1
11.58
12.7
14.28
16.02
17.56
18.58
18.85
18.26
16.85
14.75
12.22
9.56
6.97
4.54
2.23
-0.15
-2.69
-5.34
-7.87
-9.93
-11.26
-11.82
-11.8
-11.5
-11.24
-11.23
-11.53
-12.16
-13.1
-14.32
-15.74
-17.21
-18.55
-19.64
-20.48
-21.26
-22.3
-23.89
-26.19
-29.07
-32.07
-34.45
-35.39
-34.19
-30.49
-24.48
-16.87
-8.69
-0.98
5.54
10.56
14.24
16.91
18.92
20.39
21.35
21.69
21.37
20.39
18.88
17.0
14.99
13.16
11.83
11.26
11.55
12.56
13.91
15.1
15.72
15.53
14.57
13.1
11.51
10.11
9.09
8.49
8.2
8.06
7.93
7.69
7.27
6.59
5.67
4.56
3.42
2.45
1.8
1.45
1.24
0.9
0.22
-0.84
-2.09
-3.34
-4.46
-5.57
-6.95
-8.9
-11.53
-14.7
-18.11
-21.49
-24.78
-28.04
-31.3
-34.31
-36.48
-37.02
-35.25
-30.96
-24.43
-16.41
-7.77
0.72
8.54
15.4
21.07
25.32
28.06
29.41
29.8
29.9
30.33
31.31
32.63
33.7
33.98
33.31
32.14
31.28
31.52
33.15
35.73
38.28
39.64
39.01
36.18
31.53
25.65
18.98
11.57
2.96
-7.5
-20.47
-36.49
-55.96
-78.91
-104.67
-131.4
-156.06
-175.0
-184.94
-184.3
-173.73
-155.77
-133.62
-109.66
-84.37
-56.2
-22.5
18.83
67.79
121.39
174.08
219.25
251.22
266.96
266.44
252.1
227.33
195.13
157.88
117.67
77.08
39.38
8.0
-14.63
-28.05
-33.93
-35.35
-35.47
-36.25
-37.92
-39.11
-37.81
-32.58
-23.43
-12.04
-1.05
7.01
10.8
10.61
7.89
4.35
1.03
-2.01
-5.24
-9.07
-13.3
-17.21
-19.92
-20.95
-20.51
-19.36
-18.38
-18.25
-19.18
-20.95
-23.18
-25.4
-27.28
-28.6
-29.25
-29.22
-28.51
-27.23
-25.48
-23.45
-21.41
-19.68
-18.53
-18.11
-18.37
-19.1
-19.99
-20.79
-21.35
-21.63
-21.67
-21.52
-21.17
-20.68
-20.04
-19.29
-18.47
-17.73
-17.34
-17.59
-18.67
-20.48
-22.59
-24.25
-24.63
-23.13
-19.56
-14.24
-7.81
-1.05
5.35
10.9
15.31
18.45
20.39
21.28
21.39
21.0
20.28
19.31
18.15
16.79
15.28
13.73
12.17
10.64
9.13
7.65
6.32
5.32
4.82
4.93
5.65
6.87
8.45
10.23
11.96
13.31
13.87
13.28
11.38
8.32
4.49
0.4
-3.57
-7.19
-10.4
-13.16
-15.43
-17.16
-18.34
-19.01
-19.31
-19.38
-19.4
-19.43
-19.56
-19.81
-20.21
-20.73
-21.34
-22.04
-22.85
-23.88
-25.3
-27.24
-29.79
-32.97
-36.73
-40.94
-45.44
-49.89
-53.8
-56.51
-57.37
-55.89
-51.96
-45.88
-38.37
-30.33
-22.65
-15.98
-10.68
-6.78
-4.08
-2.26
-1.03
-0.13
0.56
1.07
1.3
1.11
0.37
-1.01
-2.99
-5.34
-7.66
-9.45
-10.29
-10.0
-8.81
-7.33
-6.39
-6.74
-8.73
-12.04
-15.65
-18.1
-17.97
-14.39
-7.47
1.69
11.28
19.41
24.81
27.15
27.2
26.32
25.93
26.87
29.17
32.13
34.77
36.39
36.81
36.38
35.69
35.14
34.76
34.25
33.31
31.87
30.16
28.59
27.43
26.66
25.93
24.85
23.2
21.05
18.76
16.73
15.22
14.29
13.78
13.42
13.01
12.41
11.59
10.65
9.69
8.82
8.09
7.48
6.84
6.04
4.92
3.36
1.39
-0.89
-3.29
-5.62
-7.74
-9.55
-11.02
-12.11
-12.8
-13.05
-12.84
-12.19
-11.15
-9.81
-8.28
-6.65
-5.08
-3.68
-2.6
-1.9
-1.56
-1.45
-1.39
-1.23
-0.89
-0.38
0.22
0.83
1.4
1.9
2.27
2.47
2.39
1.94
1.06
-0.18
-1.62
-3.07
-4.35
-5.42
-6.38
-7.38
-8.58
-10.03
-11.61
-13.13
-14.37
-15.22
-15.66
-15.71
-15.43
-14.82
-13.85
-12.52
-10.91
-9.13
-7.32
-5.54
-3.81
-2.11
-0.43
1.17
2.53
3.56
4.17
4.41
4.41
4.34
4.36
4.56
4.98
5.6
6.36
7.13
7.77
8.14
8.16
7.84
7.3
6.73
6.3
6.1
6.09
6.14
6.08
5.8
5.27
4.55
3.76
3.01
2.4
1.95
1.59
1.21
0.63
-0.28
-1.59
-3.22
-4.95
-6.49
-7.59
-8.17
-8.32
-8.27
-8.3
-8.61
-9.28
-10.25
-11.41
-12.64
-13.85
-14.96
-15.89
-16.52
-16.78
-16.61
-16.03
-15.06
-13.69
-11.88
-9.56
-6.75
-3.54
-0.14
3.18
6.2
8.73
10.74
12.22
13.21
13.81
14.13
14.32
14.47
14.63
14.72
14.67
14.47
14.19
13.98
13.99
14.22
14.56
14.82
14.81
14.49
13.94
13.36
12.9
12.61
12.38
12.05
11.49
10.68
9.75
8.9
8.27
7.86
7.57
7.22
6.71
6.05
5.41
4.97
4.84
5.01
5.35
5.72
5.99
6.13
6.08
5.88
5.54
5.17
4.92
4.9
5.12
5.39
5.36
4.64
2.98
0.39
-2.78
-5.99
-8.61
-10.08
-10.05
-8.42
-5.39
-1.41
2.91
6.89
9.95
11.67
11.84
10.48
7.83
4.26
0.25
-3.66
-6.93
-9.19
-10.24
-10.1
-9.02
-7.35
-5.4
-3.4
-1.43
0.57
2.77
5.28
8.13
11.25
14.4
17.19
19.15
19.85
19.01
16.73
13.38
9.5
5.57
1.77
-1.95
-5.8
-9.93
-14.24
-18.45
-22.25
-25.47
-28.2
-30.67
-33.07
-35.37
-37.33
-38.61
-38.93
-38.22
-36.64
-34.64
-32.83
-31.79
-31.99
-33.6
-36.4
-39.72
-42.63
-44.11
-43.3
-39.71
-33.26
-24.34
-13.72
-2.5
8.03
16.61
22.33
25.01
25.23
24.18
23.14
23.09
24.41
26.87
29.91
32.93
35.39
36.85
36.9
35.27
31.96
27.39
22.42
18.1
15.34
14.52
15.35
17.08
18.7
19.4
18.82
17.17
15.14
13.58
13.08
13.75
15.2
16.84
18.3
19.59
21.06
23.04
25.58
28.39
31.04
33.3
35.19
37.03
39.03
41.19
43.25
45.04
46.69
48.75
51.81
55.91
60.14
62.72
61.63
55.46
44.12
28.84
11.69
-5.28
-20.65
-33.86
-44.89
-53.9
-60.92
-66.0
-69.44
-71.88
-74.14
-76.74
-79.62
-82.17
-83.6
-83.51
-82.23
-80.88
-80.98
-84.0
-90.82
-101.25
-113.78
-125.55
-132.71
-131.3
-118.61
-94.51
-62.01
-26.68
5.26
29.13
43.24
48.99
49.47
47.66
45.16
42.07
37.7
31.62
24.05
15.88
8.17
1.81
-2.57
-4.67
-4.55
-2.68
0.07
2.61
4.05
3.66
0.96
-4.16
-11.13
-18.37
-23.38
-23.57
-17.48
-5.75
8.91
22.81
33.16
39.3
42.76
45.87
50.04
54.83
58.27
58.38
54.53
47.97
40.92
35.01
30.08
24.07
14.49
0.22
-17.09
-33.34
-43.8
-45.45
-38.58
-26.6
-14.23
-5.2
-0.71
0.52
0.99
2.69
6.03
10.0
13.08
14.39
14.17
13.53
13.68
15.2
17.77
20.3
21.62
21.04
18.6
15.05
11.4
8.4
6.25
4.56
2.59
-0.25
-4.1
-8.52
-12.73
-15.92
-17.71
-18.23
-18.12
-18.22
-19.22
-21.47
-24.88
-29.03
-33.29
-37.03
-39.59
-40.42
-39.12
-35.52
-29.73
-22.28
-13.99
-5.84
1.29
6.77
10.33
12.05
12.19
11.1
9.14
6.59
3.7
0.69
-2.27
-5.04
-7.55
-9.71
-11.44
-12.6
-12.97
-12.32
-10.44
-7.28
-2.99
2.07
7.36
12.26
16.24
18.94
20.25
20.33
19.46
17.95
16.03
13.82
11.37
8.76
6.14
3.7
1.62
-0.08
-1.52
-2.95
-4.59
-6.51
-8.6
-10.63
-12.41
-13.88
-15.24
-16.83
-19.08
-22.33
-26.67
-31.84
-37.22
-41.92
-44.94
-45.46
-43.0
-37.65
-30.0
-20.98
-11.61
-2.76
4.97
11.33
16.33
20.16
23.04
25.12
26.45
27.06
27.02
26.48
25.73
25.11
24.84
25.03
25.62
26.46
27.46
28.55
29.75
31.02
32.25
33.23
33.75
33.62
32.81
31.38
29.54
27.44
25.21
22.86
20.32
17.49
14.38
11.13
7.96
5.11
2.7
0.71
-1.06
-2.85
-4.87
-7.23
-9.88
-12.69
-15.45
-17.93
-19.92
-21.33
-22.23
-22.95
-23.97
-25.84
-28.89
-32.99
-37.56
-41.56
-43.88
-43.62
-40.46
-34.67
-26.99
-18.39
-9.75
-1.7
5.35
11.15
15.62
18.74
20.64
21.56
21.83
21.76
21.55
21.33
21.11
20.91
20.81
20.93
21.35
22.1
23.08
24.13
25.08
25.82
26.35
26.64
26.69
26.44
25.76
24.57
22.81
20.58
18.04
15.44
12.95
10.67
8.53
6.4
4.09
1.49
-1.45
-4.61
-7.78
-10.73
-13.34
-15.59
-17.66
-19.8
-22.32
-25.45
-29.32
-33.78
-38.4
-42.46
-45.09
-45.47
-43.1
-37.95
-30.55
-21.75
-12.52
-3.64
4.37
11.2
16.78
21.13
24.35
26.6
28.06
28.89
29.12
28.73
27.71
26.15
24.31
22.54
21.19
20.51
20.57
21.23
22.22
23.17
23.72
23.58
22.62
20.93
18.8
16.6
14.65
13.12
11.97
11.03
10.08
8.95
7.55
5.87
3.96
1.9
-0.17
-2.07
-3.7
-5.02
-6.18
-7.43
-8.99
-10.95
-13.17
-15.32
-17.09
-18.38
-19.45
-20.85
-23.17
-26.77
-31.5
-36.6
-40.95
-43.38
-43.03
-39.61
-33.46
-25.34
-16.25
-7.12
1.34
8.61
14.44
18.78
21.76
23.65
24.78
25.47
25.89
26.06
25.9
25.34
24.38
23.18
21.94
20.89
20.12
19.69
19.61
19.89
20.51
21.36
22.24
22.83
22.87
22.24
20.99
19.36
17.62
15.96
14.43
12.98
11.48
9.91
8.26
6.63
5.09
3.72
2.55
1.57
0.71
-0.17
-1.22
-2.6
-4.34
-6.4
-8.58
-10.73
-12.75
-14.63
-16.48
-18.42
-20.57
-23.08
-26.07
-29.64
-33.73
-37.97
-41.62
-43.7
-43.3
-39.93
-33.73
-25.45
-16.2
-7.09
1.07
7.88
13.26
17.29
20.1
21.81
22.53
22.43
21.74
20.72
19.63
18.62
17.75
17.0
16.33
15.73
15.3
15.21
15.61
16.56
17.9
19.31
20.4
20.88
20.63
19.76
18.49
17.04
15.54
13.97
12.25
10.32
8.19
5.97
3.83
1.88
0.17
-1.33
-2.75
-4.27
-6.03
-8.06
-10.31
-12.61
-14.75
-16.59
-18.12
-19.49
-20.92
-22.65
-24.82
-27.53
-30.77
-34.38
-37.99
-40.98
-42.58
-42.05
-39.0
-33.5
-26.16
-17.91
-9.68
-2.18
4.18
9.29
13.15
15.83
17.42
18.09
18.07
17.66
17.08
16.45
15.78
15.1
14.48
14.09
14.16
14.78
15.96
17.51
19.18
20.74
22.05
23.0
23.56
23.62
23.09
21.93
20.21
18.12
15.93
13.92
12.18
10.68
9.26
7.76
6.13
4.39
2.66
1.02
-0.51
-1.97
-3.4
-4.8
-6.11
-7.36
-8.6
-9.99
-11.61
-13.46
-15.42
-17.29
-18.96
-20.46
-21.97
-23.75
-26.04
-28.96
-32.51
-36.48
-40.46
-43.79
-45.63
-45.23
-42.09
-36.31
-28.49
-19.62
-10.74
-2.63
4.22
9.69
13.78
16.6
18.34
19.19
19.43
19.31
19.02
18.62
18.08
17.37
16.53
15.71
15.11
14.92
15.18
15.84
16.71
17.58
18.29
18.75
18.98
19.0
18.78
18.23
17.3
15.94
14.27
12.47
10.73
9.19
7.84
6.65
5.5
4.36
3.23
2.14
1.05
-0.04
-1.15
-2.21
-3.14
-3.87
-4.45
-5.1
-6.04
-7.45
-9.33
-11.53
-13.83
-16.08
-18.26
-20.42
-22.65
-25.0
-27.54
-30.4
-33.76
-37.67
-41.84
-45.58
-47.83
-47.56
-44.24
-38.01
-29.7
-20.45
-11.36
-3.14
3.89
9.74
14.47
18.1
20.57
21.87
22.09
21.49
20.41
19.22
18.15
17.34
16.77
16.39
16.13
15.99
16.03
16.29
16.76
17.38
17.98
18.42
18.58
18.37
17.73
16.66
15.21
13.47
11.57
9.66
7.8
6.02
4.23
2.35
0.33
-1.79
-3.85
-5.62
-6.93
-7.69
-8.02
-8.15
-8.35
-8.79
-9.6
-10.76
-12.22
-13.95
-15.95
-18.21
-20.79
-23.76
-27.22
-31.23
-35.65
-40.08
-43.85
-46.07
-45.97
-43.13
-37.68
-30.24
-21.72
-13.05
-4.88
2.35
8.47
13.32
16.79
18.74
19.23
18.49
17.0
15.36
14.06
13.32
13.04
12.84
12.28
11.12
9.46
7.74
6.59
6.5
7.56
9.3
10.76
10.87
8.88
4.67
-1.05
-7.1
-12.28
-15.91
-18.23
-20.37
-24.02
-30.79
-41.73
-56.84
-75.07
-94.34
-112.01
-125.53
-132.94
-133.61
-128.24
-118.61
-106.78
-94.19
-80.94
-65.67
-46.23
-20.96
9.86
43.46
75.06
99.43
112.84
114.51
106.72
93.71
79.84
67.9
58.56
50.94
43.84
36.93
30.92
27.04
26.18
28.34
32.69
38.16
43.86
49.21
53.79
57.07
58.31
57.01
53.24
47.81
41.97
36.83
32.97
30.41
28.85
28.06
27.9
28.21
28.58
28.42
27.2
24.91
22.03
19.45
18.02
18.18
19.88
22.72
26.15
29.61
32.67
35.08
36.79
38.06
39.42
41.46
44.57
48.67
53.19
57.27
60.14
61.38
61.11
59.93
58.63
57.97
58.56
60.71
64.37
68.99
73.26
75.28
72.94
64.71
50.35
31.26
10.05
-10.27
-27.45
-40.57
-50.11
-57.32
-63.54
-69.55
-75.43
-80.77
-85.01
-87.69
-88.53
-87.44
-84.5
-79.97
-74.27
-67.97
-61.67
-55.91
-51.09
-47.35
-44.57
-42.47
-40.66
-38.81
-36.72
-34.33
-31.7
-28.96
-26.23
-23.51
-20.81
-18.01
-15.02
-11.73
-8.19
-4.55
-1.13
1.66
3.48
4.17
3.85
2.92
1.84
1.01
0.58
0.41
0.2
-0.36
-1.48
-3.09
-4.99
-6.87
-8.45
-9.63
-10.49
-11.28
-12.32
-13.87
-16.01
-18.64
-21.53
-24.4
-27.14
-29.8
-32.62
-35.94
-40.13
-45.35
-51.53
-58.19
-64.51
-69.45
-72.11
-72.01
-69.29
-64.58
-58.83
-52.89
-47.32
-42.34
-38.06
-34.59
-32.17
-31.07
-31.44
-33.15
-35.76
-38.67
-41.16
-42.52
-42.05
-39.2
-33.68
-25.56
-15.38
-3.96
7.81
19.29
30.27
40.87
51.37
61.78
71.7
80.37
86.87
90.51
91.09
88.92
84.68
79.16
73.06
66.87
60.87
55.21
50.01
45.3
41.08
37.26
33.65
30.08
26.37
22.42
18.24
13.95
9.7
5.66
1.92
-1.56
-4.9
-8.33
-12.01
-16.0
-20.23
-24.54
-28.8
-33.0
-37.28
-41.85
-46.82
-52.02
-56.88
-60.54
-62.12
-60.94
-56.84
-50.29
-42.26
-34.1
-27.18
-22.55
-20.64
-21.15
-23.12
-25.27
-26.45
-26.13
-24.57
-22.76
-22.06
-23.59
-27.63
-33.13
-37.6
-37.42
-28.81
-9.13
21.87
61.36
103.83
142.48
171.3
186.88
189.29
181.68
168.79
155.13
143.65
135.34
129.6
125.18
120.95
116.36
111.52
107.18
104.57
104.95
108.99
115.98
123.43
127.25
122.87
106.71
77.63
37.58
-8.8
-55.54
-96.83
-128.37
-147.98
-155.59
-152.9
-142.83
-128.91
-114.65
-102.97
-95.64
-92.99
-94.01
-96.77
-99.0
-98.88
-95.45
-88.82
-79.93
-70.06
-60.43
-51.79
-44.33
-37.81
-31.76
-25.87
-20.14
-14.92
-10.74
-8.0
-6.77
-6.69
-7.13
-7.34
-6.77
-5.08
-2.2
1.76
6.61
12.08
17.92
23.89
29.78
35.46
40.83
45.8
50.28
54.16
57.36
59.88
61.78
63.14
64.02
64.43
64.4
64.07
63.68
63.59
64.12
65.56
68.13
72.07
77.62
84.83
93.35
102.21
110.0
115.25
116.97
115.1
110.47
104.3
97.63
90.83
83.53
74.94
64.4
51.71
37.25
21.87
6.59
-7.57
-19.69
-29.17
-35.86
-40.25
-43.44
-46.8
-51.36
-57.3
-63.69
-68.66
-70.12
-66.52
-57.5
-44.14
-28.56
-13.34
-0.68
8.04
12.42
12.82
9.98
4.69
-2.52
-11.4
-21.94
-34.07
-47.51
-61.56
-75.06
-86.47
-94.24
-97.15
-94.81
-87.84
-77.77
-66.66
-56.52
-48.87
-44.4
-43.01
-43.99
-46.37
-49.18
-51.77
-53.93
-56.03
-58.82
-63.24
-69.89
-78.64
-88.43
-97.42
-103.53
-105.13
-101.62
-93.72
-83.22
-72.45
-63.4
-57.13
-53.39
-50.8
-47.58
-42.37
-34.93
-26.17
-17.66
-10.63
-5.43
-1.34
2.87
8.14
14.67
21.93
29.12
35.76
41.85
47.59
52.95
57.31
59.56
58.48
53.26
43.81
30.74
15.31
-0.84
-15.85
-27.9
-35.47
-37.65
-34.4
-26.73
-16.46
-5.87
2.8
7.87
8.54
5.05
-1.51
-9.49
-17.2
-23.38
-27.46
-29.58
-30.42
-30.83
-31.48
-32.59
-33.91
-34.85
-34.89
-33.88
-32.33
-31.4
-32.57
-37.16
-45.87
-58.51
-74.1
-91.14
-108.07
-123.56
-136.78
-147.53
-156.12
-163.29
-169.81
-176.18
-182.36
-187.87
-192.24
-195.6
-199.01
-204.13
-212.14
-222.58
-232.72
-238.16
-234.46
-219.17
-193.03
-159.66
-124.01
-90.09
-59.42
-30.82
-1.24
32.73
73.66
122.41
177.71
235.95
291.41
337.19
366.86
376.63
366.82
342.26
310.78
280.56
257.38
242.86
234.58
227.71
217.45
200.85
177.65
149.73
119.86
90.59
63.6
39.76
19.65
3.94
-6.67
-11.9
-12.42
-10.0
-7.04
-5.66
-6.83
-9.98
-13.38
-15.13
-14.16
-10.76
-6.42
-2.92
-1.57
-2.62
-5.4
-8.9
-12.41
-15.67
-18.79
-21.91
-24.93
-27.44
-28.88
-28.64
-26.15
-21.02
-13.25
-3.52
6.78
15.8
21.77
23.76
22.01
17.88
13.26
9.96
9.25
11.81
17.85
27.19
39.15
52.38
64.79
74.08
78.34
76.83
70.3
60.73
50.55
41.8
35.53
31.66
29.41
27.88
26.48
25.17
24.26
24.16
25.13
27.11
29.84
33.02
36.37
39.54
42.02
43.06
41.77
37.42
29.75
19.06
6.27
-7.25
-19.83
-29.63
-34.75
-33.47
-24.57
-7.82
15.67
43.19
70.73
93.52
107.17
108.78
97.78
76.09
47.54
16.75
-12.08
-35.94
-53.35
-64.05
-68.64
-68.09
-63.58
-56.34
-47.55
-38.25
-29.28
-21.33
-15.04
-11.1
-10.15
-12.71
-18.92
-28.47
-40.89
-55.86
-73.52
-94.48
-119.28
-147.54
-177.19
-204.41
-224.35
-232.73
-227.32
-208.75
-180.25
-146.31
-111.15
-77.71
-47.62
-21.8
-1.08
13.72
22.29
25.66
26.58
28.77
35.43
47.61
63.51
79.04
89.48
91.41
83.97
68.99
50.15
31.69
17.07
8.27
5.3
6.33
8.22
7.59
2.15
-8.19
-20.9
-31.61
-35.71
-30.37
-15.81
4.74
26.25
43.84
54.52
58.13
57.03
54.85
54.88
58.95
66.94
77.4
88.44
98.62
107.28
114.17
119.05
121.26
119.92
114.48
105.18
93.25
80.54
68.87
59.31
51.86
45.72
39.81
33.42
26.55
19.86
14.31
10.6
8.83
8.41
8.32
7.54
5.51
2.36
-1.25
-4.39
-6.39
-7.01
-6.56
-5.63
-4.85
-4.59
-4.88
-5.55
-6.32
-7.03
-7.59
-8.03
-8.4
-8.75
-9.14
-9.68
-10.46
-11.62
-13.2
-15.18
-17.48
-20.0
-22.71
-25.62
-28.72
-31.94
-35.01
-37.5
-38.92
-38.85
-37.09
-33.74
-29.11
-23.7
-17.99
-12.37
-7.1
-2.32
1.94
5.68
8.89
11.54
13.58
15.01
15.84
16.18
16.18
16.06
15.96
15.99
16.18
16.48
16.87
17.33
17.84
18.33
18.71
18.85
18.68
18.19
17.49
16.71
15.98
15.28
14.54
13.67
12.64
11.53
10.45
9.47
8.56
7.61
6.46
5.03
3.41
1.76
0.28
-0.93
-1.93
-2.91
-4.06
-5.51
-7.22
-9.02
-10.67
-12.05
-13.14
-14.12
-15.21
-16.61
-18.35
-20.31
-22.25
-23.86
-24.88
-25.08
-24.24
-22.21
-18.95
-14.59
-9.51
-4.22
0.73
4.93
8.21
10.61
12.27
13.35
13.9
13.89
13.31
12.15
10.48
8.42
6.1
3.65
1.22
-1.08
-3.13
-4.85
-6.27
-7.51
-8.7
-10.01
-11.55
-13.32
-15.2
-17.04
-18.63
-19.82
-20.5
-20.64
-20.26
-19.45
-18.3
-16.9
-15.35
-13.71
-12.04
-10.39
-8.81
-7.36
-6.14
-5.24
-4.71
-4.52
-4.57
-4.74
-4.89
