-28.85
-25.66
-21.4
-16.49
-11.33
-6.31
-1.77
2.09
5.18
7.55
9.32
10.63
11.62
12.32
12.75
12.88
12.72
12.28
11.65
10.96
10.39
10.14
10.36
11.09
12.17
13.37
14.39
15.06
15.34
15.32
15.13
14.83
14.4
13.8
13.0
12.03
10.96
9.85
8.75
7.67
6.63
5.71
4.94
4.32
3.76
3.14
2.34
1.39
0.37
-0.53
-1.22
-1.75
-2.31
-3.1
-4.23
-5.66
-7.23
-8.73
-10.03
-11.13
-12.18
-13.34
-14.79
-16.65
-18.96
-21.63
-24.41
-26.91
-28.64
-29.11
-28.03
-25.37
-21.37
-16.53
-11.38
-6.44
-2.06
1.59
4.52
6.82
8.62
9.99
10.96
11.53
11.71
11.61
11.36
11.1
10.9
10.76
10.61
10.42
10.27
10.28
10.6
11.24
12.07
12.85
13.31
13.31
12.84
12.05
11.11
10.21
9.42
8.73
8.11
7.48
6.78
5.98
5.07
4.06
3.0
1.98
1.09
0.37
-0.2
-0.71
-1.27
-1.97
-2.82
-3.78
-4.83
-5.97
-7.23
-8.65
-10.24
-11.92
-13.59
-15.18
-16.69
-18.21
-19.89
-21.74
-23.63
-25.21
-26.01
-25.59
-23.68
-20.34
-15.92
-10.94
-5.95
-1.37
2.55
5.76
8.25
10.05
11.17
11.68
11.73
11.5
11.2
10.93
10.73
10.52
10.24
9.92
9.63
9.54
9.73
10.25
11.02
11.9
12.68
13.21
13.37
13.14
12.57
11.74
10.77
9.75
8.75
7.8
6.92
6.12
5.41
4.76
4.11
3.41
2.59
1.67
0.71
-0.23
-1.06
-1.77
-2.4
-3.05
-3.78
-4.68
-5.76
-7.02
-8.41
-9.86
-11.28
-12.58
-13.73
-14.78
-15.91
-17.33
-19.24
-21.65
-24.33
-26.85
-28.62
-29.09
-27.91
-25.13
-21.09
-16.32
-11.4
-6.73
-2.55
1.11
4.24
6.84
8.9
10.43
11.52
12.29
12.89
13.34
13.6
13.59
13.28
12.75
12.17
11.73
11.55
11.63
11.91
12.34
12.86
13.42
13.95
14.34
14.5
14.35
13.97
13.46
12.94
12.44
11.92
11.26
10.33
9.11
7.69
6.25
4.97
3.98
3.33
2.93
2.65
2.33
1.88
1.26
0.55
-0.18
-0.88
-1.62
-2.51
-3.68
-5.14
-6.8
-8.48
-10.03
-11.4
-12.69
-14.06
-15.68
-17.56
-19.67
-21.84
-23.9
-25.62
-26.76
-27.08
-26.37
-24.53
-21.63
-17.86
-13.52
-8.95
-4.44
-0.27
3.34
6.27
8.45
9.94
10.82
11.21
11.24
11.04
10.73
10.45
10.33
10.42
10.68
11.01
11.32
11.54
11.72
11.94
12.24
12.62
12.96
13.14
13.05
12.66
12.05
11.32
10.53
9.71
8.83
7.82
6.69
5.48
4.25
3.08
2.02
1.08
0.26
-0.42
-0.97
-1.42
-1.88
-2.51
-3.4
-4.61
-6.04
-7.52
-8.89
-10.06
-11.04
-11.92
-12.83
-13.88
-15.21
-16.9
-18.97
-21.33
-23.7
-25.65
-26.66
-26.27
-24.28
-20.8
-16.21
-11.1
-6.03
-1.41
2.53
5.71
8.17
9.94
11.03
11.5
11.48
11.15
10.76
10.49
10.44
10.57
10.82
11.11
11.47
11.95
12.58
13.31
13.95
14.31
14.24
13.74
12.95
12.05
11.18
10.42
9.7
8.93
8.04
7.03
5.99
5.05
4.32
3.84
3.55
3.34
3.04
2.58
1.97
1.29
0.66
0.11
-0.4
-1.01
-1.83
-2.92
-4.21
-5.57
-6.93
-8.26
-9.61
-11.0
-12.44
-13.85
-15.17
-16.43
-17.72
-19.21
-20.99
-23.02
-25.07
-26.76
-27.64
-27.36
-25.7
-22.69
-18.62
-13.97
-9.29
-5.05
-1.54
1.19
3.28
4.91
6.21
7.25
7.98
8.35
8.41
8.24
7.95
7.64
7.34
7.09
6.91
6.87
7.04
7.46
8.03
8.59
8.93
8.84
8.25
7.22
5.91
4.54
3.29
2.24
1.43
0.74
0.06
-0.8
-1.93
-3.37
-5.03
-6.77
-8.41
-9.81
-10.91
-11.77
-12.48
-13.24
-14.18
-15.41
-16.93
-18.65
-20.37
-21.8
-22.68
-22.83
-22.18
-20.87
-19.15
-17.32
-15.65
-14.29
-13.32
-12.74
-12.48
-12.45
-12.49
-12.36
-11.76
-10.44
-8.19
-4.98
-0.98
3.5
8.09
12.45
16.34
19.67
22.47
24.83
26.82
28.47
29.75
30.66
31.2
31.47
31.58
31.67
31.82
32.04
32.33
32.66
33.03
33.45
33.92
34.36
34.7
34.86
34.79
34.52
34.1
33.5
32.68
31.49
29.79
27.48
24.61
21.27
17.67
13.99
10.4
6.97
3.74
0.69
-2.27
-5.2
-8.16
-11.15
-14.11
-16.92
-19.48
-21.72
-23.7
-25.6
-27.62
-29.9
-32.51
-35.35
-38.18
-40.69
-42.51
-43.3
-42.74
-40.68
-37.15
-32.39
-26.87
-21.1
-15.54
-10.51
-6.16
-2.49
0.58
3.14
5.25
6.93
8.22
9.14
9.75
10.13
10.37
10.59
10.87
11.25
11.72
12.23
12.65
12.91
12.94
12.74
12.37
11.88
11.37
10.89
10.45
10.02
9.57
9.04
8.37
7.54
6.57
5.55
4.57
3.74
3.08
2.52
1.9
1.07
-0.04
-1.39
-2.82
-4.19
-5.41
-6.55
-7.71
-9.03
-10.57
-12.31
-14.14
-15.98
-17.78
-19.48
-21.12
-22.74
-24.46
-26.43
-28.82
-31.62
-34.65
-37.44
-39.39
-39.94
-38.76
-35.85
-31.59
-26.5
-21.2
-16.2
-11.85
-8.33
-5.61
-3.52
-1.78
-0.1
1.72
3.74
5.93
8.13
10.22
12.16
13.95
15.61
17.17
18.64
20.02
21.35
22.66
23.98
25.27
26.41
27.23
27.55
27.28
26.42
25.15
23.65
22.15
20.75
19.48
18.32
17.2
16.09
14.95
13.77
12.51
11.16
9.71
8.19
6.62
5.03
3.45
1.92
0.47
-0.87
-2.09
-3.17
-4.21
-5.28
-6.46
-7.79
-9.24
-10.73
-12.17
-13.53
-14.85
-16.24
-17.81
-19.65
-21.71
-23.76
-25.45
-26.3
-25.92
-24.11
-20.96
-16.82
-12.2
-7.56
-3.23
0.65
4.06
6.98
9.34
11.07
12.12
12.57
12.59
12.45
12.35
12.38
12.55
12.82
13.14
13.53
14.05
14.74
15.6
16.59
17.61
18.53
19.21
19.56
19.59
19.38
19.08
18.82
18.62
18.43
18.14
17.68
17.09
16.47
16.0
15.79
15.92
16.4
17.23
18.38
19.71
20.95
21.75
21.75
20.67
18.46
15.19
11.09
6.37
1.23
-4.22
-9.91
-15.8
-21.8
-27.81
-33.63
-39.0
-43.57
-46.89
-48.58
-48.38
-46.31
-42.65
-37.89
-32.59
-27.24
-22.19
-17.64
-13.68
-10.41
-7.87
-6.09
-5.0
-4.46
-4.29
-4.36
-4.59
-4.9
-5.24
-5.47
-5.44
-5.02
-4.21
-3.09
-1.85
-0.68
0.3
1.04
1.63
2.14
2.62
3.07
3.37
3.42
3.12
2.45
1.46
0.27
-1.02
-2.26
-3.29
-3.92
-3.97
-3.35
-2.14
-0.59
0.93
2.09
2.67
2.62
2.04
1.08
-0.11
-1.4
-2.76
-4.15
-5.56
-6.98
-8.42
-9.84
-11.25
-12.65
-14.0
-15.35
-16.74
-18.23
-19.83
-21.4
-22.65
-23.18
-22.62
-20.72
-17.51
-13.21
-8.26
-3.09
1.9
6.48
10.55
14.07
17.12
19.79
22.2
24.4
26.38
28.07
29.35
30.18
30.63
30.92
31.35
32.2
33.64
35.71
38.33
41.33
44.5
47.6
50.35
52.47
53.73
53.99
53.28
51.71
49.41
46.42
42.71
38.2
32.94
27.19
21.36
15.87
11.02
6.88
3.35
0.24
-2.58
-5.17
-7.51
-9.56
-11.32
-12.86
-14.27
-15.62
-16.93
-18.26
-19.57
-20.9
-22.25
-23.66
-25.09
-26.53
-27.93
-29.21
-30.36
-31.42
-32.47
-33.65
-35.04
-36.57
-37.97
-38.77
-38.52
-36.84
-33.71
-29.39
-24.39
-19.32
-14.63
-10.6
-7.32
-4.74
-2.81
-1.46
-0.6
-0.11
0.25
0.63
1.15
1.75
2.24
2.41
2.14
1.53
0.81
0.28
0.12
0.32
0.7
1.0
1.0
0.64
-0.01
-0.76
-1.48
-2.08
-2.62
-3.19
-3.9
-4.8
-5.82
-6.85
-7.72
-8.3
-8.58
-8.64
-8.64
-8.73
-8.99
-9.41
-9.91
-10.43
-11.0
-11.76
-12.95
-14.76
-17.3
-20.5
-24.1
-27.74
-30.96
-33.39
-34.76
-34.97
-34.05
-32.2
-29.61
-26.47
-22.88
-18.86
-14.44
-9.66
-4.59
0.64
5.85
10.88
15.58
19.82
23.53
26.71
29.43
31.82
33.99
36.02
37.97
39.9
41.89
44.04
46.48
49.2
52.14
55.13
57.94
60.37
62.21
63.25
63.26
61.95
59.11
54.7
48.91
42.18
35.08
28.11
21.59
15.58
9.98
4.68
-0.33
-4.95
-8.98
-12.29
-14.83
-16.7
-18.07
-19.11
-19.94
-20.63
-21.22
-21.77
-22.34
-23.01
-23.84
-24.84
-25.91
-26.94
-27.76
-28.3
-28.59
-28.79
-29.14
-29.85
-31.06
-32.75
-34.73
-36.65
-38.09
-38.56
-37.67
-35.22
-31.28
-26.22
-20.61
-14.98
-9.77
-5.18
-1.24
2.07
4.78
6.83
8.19
8.9
9.08
8.92
8.56
8.07
7.48
6.77
6.0
5.24
4.6
4.18
4.03
4.16
4.49
4.9
5.2
5.2
4.78
3.93
2.81
1.68
0.76
0.1
-0.42
-0.99
-1.73
-2.6
-3.37
-3.83
-3.87
-3.61
-3.37
-3.47
-4.15
-5.47
-7.3
-9.43
-11.64
-13.77
-15.76
-17.61
-19.37
-21.07
-22.67
-24.01
-24.91
-25.21
-24.85
-23.95
-22.71
-21.4
-20.24
-19.39
-18.88
-18.67
-18.65
-18.61
-18.29
-17.41
-15.77
-13.3
-10.12
-6.48
-2.71
0.93
4.28
7.28
9.92
12.14
13.91
15.17
15.92
16.27
16.38
16.45
16.61
16.95
17.49
18.23
19.16
20.26
21.48
22.74
23.9
24.89
25.68
26.29
26.76
27.12
27.37
27.45
27.33
27.04
26.61
26.15
25.78
25.55
25.5
25.59
25.81
26.16
26.67
27.38
28.21
29.07
29.82
30.41
30.9
31.45
32.28
33.5
35.06
36.73
38.23
39.29
39.67
39.19
37.61
34.68
30.16
23.93
16.11
7.18
-2.18
-11.11
-18.85
-24.86
-28.94
-31.2
-32.0
-31.74
-30.81
-29.5
-27.97
-26.34
-24.69
-23.11
-21.62
-20.24
-18.93
-17.67
-16.41
-15.17
-13.97
-12.83
-11.79
-10.85
-9.97
-9.06
-8.03
-6.83
-5.52
-4.26
-3.23
-2.63
-2.5
-2.73
-3.1
-3.39
-3.47
-3.32
-3.03
-2.73
-2.5
-2.39
-2.38
-2.46
-2.61
-2.85
-3.21
-3.7
-4.26
-4.87
-5.46
-6.03
-6.62
-7.25
-7.94
-8.64
-9.31
-9.92
-10.47
-11.02
-11.62
-12.27
-12.93
-13.55
-14.13
-14.74
-15.53
-16.75
-18.54
-20.9
-23.57
-26.06
-27.73
-28.03
-26.66
-23.69
-19.5
-14.62
-9.55
-4.65
-0.13
3.85
7.17
9.76
11.64
12.9
13.72
14.25
14.58
14.69
14.55
14.21
13.74
13.24
12.81
12.5
12.28
12.12
12.01
11.91
11.82
11.71
11.54
11.24
10.77
10.1
9.23
8.24
7.18
6.11
5.05
3.98
2.87
1.72
0.52
-0.68
-1.83
-2.96
-4.09
-5.26
-6.47
-7.71
-8.99
-10.31
-11.73
-13.3
-15.04
-16.94
-18.93
-20.94
-22.92
-24.93
-27.05
-29.35
-31.86
-34.53
-37.26
-40.0
-42.67
-45.17
-47.34
-48.84
-49.26
-48.22
-45.54
-41.3
-35.87
-29.75
-23.44
-17.27
-11.4
-5.81
-0.5
4.49
9.03
12.96
16.15
18.57
20.31
21.49
22.23
22.6
22.66
22.51
22.32
22.31
22.7
23.57
24.85
26.31
27.69
28.76
29.4
29.61
29.53
29.35
29.26
29.41
29.83
30.44
31.11
31.67
32.05
32.27
32.39
32.53
32.78
33.21
33.85
34.78
36.03
37.58
39.28
40.85
41.93
42.13
41.16
38.84
35.16
30.24
24.32
17.69
10.65
3.5
-3.53
-10.24
-16.44
-22.03
-26.98
-31.24
-34.71
-37.23
-38.52
-38.36
-36.67
-33.6
-29.57
-25.09
-20.67
-16.61
-13.04
-9.92
-7.21
-4.87
-2.92
-1.39
-0.3
0.37
0.67
0.66
0.42
0.1
-0.21
-0.37
-0.33
-0.07
0.38
0.95
1.6
2.31
3.03
3.69
4.18
4.46
4.51
4.42
4.29
4.2
4.12
3.97
3.6
2.95
2.08
1.14
0.33
-0.18
-0.37
-0.32
-0.17
-0.09
-0.18
-0.46
-0.93
-1.5
-2.16
-2.91
-3.8
-4.89
-6.2
-7.66
-9.11
-10.39
-11.37
-12.04
-12.51
-12.98
-13.67
-14.74
-16.24
-18.1
-20.22
-22.43
-24.52
-26.22
-27.22
-27.2
-25.9
-23.28
-19.52
-15.0
-10.24
-5.77
-1.96
0.97
3.03
4.38
5.27
5.89
6.38
6.74
6.96
7.0
6.9
6.74
6.62
6.64
6.82
7.17
7.62
8.14
8.7
9.32
9.98
10.64
11.2
11.57
11.63
11.32
10.65
9.74
8.71
7.74
6.9
6.2
5.59
5.01
4.37
3.67
2.89
2.04
1.15
0.23
-0.69
-1.57
-2.36
-3.05
-3.66
-4.25
-4.97
-5.89
-7.08
-8.46
-9.89
-11.2
-12.29
-13.23
-14.22
-15.55
-17.48
-20.06
-23.03
-25.9
-27.98
-28.7
-27.71
-25.08
-21.16
-16.52
-11.71
-7.12
-2.94
0.77
3.97
6.64
8.74
10.24
11.22
11.82
12.18
12.4
12.46
12.32
11.97
11.5
11.03
10.74
10.71
10.93
11.33
11.79
12.24
12.62
12.9
13.07
13.13
13.07
12.92
12.71
12.4
11.98
11.43
10.77
10.06
9.34
8.61
7.86
7.13
6.47
5.94
5.59
5.35
5.1
4.65
3.89
2.82
1.53
0.17
-1.17
-2.44
-3.66
-4.89
-6.18
-7.55
-9.05
-10.64
-12.28
-13.88
-15.35
-16.63
-17.78
-18.93
-20.26
-21.93
-24.01
-26.35
-28.61
-30.29
-30.84
-29.88
-27.26
-23.2
-18.14
-12.67
-7.33
-2.48
1.7
5.19
8.06
10.34
12.07
13.25
13.93
14.18
14.09
13.78
13.33
12.82
12.3
11.84
11.53
11.45
11.66
12.18
12.9
13.66
14.33
14.74
14.83
14.59
14.05
13.29
12.39
11.42
10.46
9.6
8.84
8.17
7.58
7.01
6.47
5.94
5.39
4.78
4.05
3.16
2.14
1.01
-0.17
-1.37
-2.6
-3.87
-5.19
-6.51
-7.8
-9.04
-10.27
-11.52
-12.88
-14.34
-15.89
-17.47
-19.03
-20.55
-22.07
-23.67
-25.48
-27.64
-30.24
-33.31
-36.67
-39.98
-42.73
-44.36
-44.42
-42.77
-39.6
-35.46
-31.05
-26.97
-23.57
-20.79
-18.29
-15.62
-12.45
-8.7
-4.54
-0.31
3.64
7.06
9.82
11.86
13.13
13.62
13.37
12.59
11.57
10.7
10.22
10.18
10.45
10.76
10.95
10.97
10.92
10.88
10.87
10.81
10.6
10.25
9.87
9.68
9.81
10.28
10.95
11.62
12.14
12.46
12.59
12.59
12.48
12.23
11.81
11.2
10.4
9.43
8.3
7.03
5.65
4.22
2.85
1.59
0.42
-0.78
-2.21
-4.05
-6.42
-9.28
-12.46
-15.67
-18.49
-20.4
-20.91
-19.69
-16.63
-12.02
-6.38
-0.4
5.39
10.61
15.17
19.15
22.63
25.69
28.4
30.81
33.05
35.25
37.5
39.84
42.25
44.69
47.13
49.62
52.26
55.19
58.5
62.14
65.9
69.33
71.85
72.85
71.87
68.72
63.5
56.54
48.34
39.39
30.16
21.02
12.21
3.97
-3.49
-9.97
-15.27
-19.26
-21.97
-23.61
-24.5
-25.04
-25.53
-26.11
-26.79
-27.43
-27.89
-28.09
-28.04
-27.84
-27.64
-27.6
-27.82
-28.32
-29.03
-29.85
-30.7
-31.53
-32.38
-33.32
-34.45
-35.82
-37.47
-39.39
-41.5
-43.55
-45.13
-45.75
-44.9
-42.29
-37.97
-32.31
-25.89
-19.34
-13.19
-7.75
-3.18
0.53
3.44
5.67
7.38
8.71
9.77
10.61
11.26
11.68
11.92
12.06
12.21
12.45
12.82
13.34
13.94
14.57
15.12
15.51
15.64
15.47
15.03
14.44
13.86
13.4
13.03
12.66
12.13
11.39
10.47
9.47
8.5
7.56
6.62
5.59
4.47
3.3
2.2
1.23
0.39
-0.38
-1.18
-2.01
-2.86
-3.68
-4.45
-5.21
-6.07
-7.1
-8.36
-9.81
-11.37
-12.91
-14.39
-15.86
-17.44
-19.36
-21.76
-24.68
-27.92
-31.04
-33.47
-34.59
-33.97
-31.45
-27.23
-21.83
-15.94
-10.22
-5.16
-0.98
2.3
4.79
6.67
8.05
9.01
9.59
9.81
9.75
9.54
9.32
9.28
9.52
10.07
10.85
11.75
12.64
13.46
14.23
14.98
15.73
16.44
16.98
17.22
17.07
16.53
15.65
14.56
13.37
12.15
10.98
9.87
8.85
7.89
6.96
6.02
5.05
4.02
2.93
1.76
0.53
-0.76
-2.08
-3.4
-4.7
-6.04
-7.51
-9.21
-11.2
-13.38
-15.59
-17.62
-19.32
-20.76
-22.12
-23.71
-25.74
-28.23
-30.94
-33.38
-34.96
-35.15
-33.62
-30.35
-25.6
-19.88
-13.74
-7.74
-2.26
2.4
6.13
8.92
10.84
12.06
12.76
13.13
13.29
13.32
13.25
13.12
13.01
13.01
13.24
13.72
14.43
15.26
16.08
16.77
17.25
17.5
17.53
17.37
17.11
16.77
16.41
15.98
15.43
14.68
13.7
12.46
11.04
9.51
7.98
6.6
5.43
4.51
3.76
3.05
2.23
1.23
0.08
-1.08
-2.14
-3.04
-3.83
-4.67
-5.67
-6.84
-8.13
-9.45
-10.77
-12.16
-13.7
-15.47
-17.51
-19.8
-22.29
-24.92
-27.58
-30.03
-31.91
-32.73
-32.09
-29.78
-25.91
-20.87
-15.23
-9.57
-4.3
0.33
4.22
7.41
9.94
11.9
13.36
14.42
15.15
15.64
15.93
16.05
16.05
15.98
15.92
15.93
16.08
16.39
16.87
17.45
18.03
18.43
18.51
18.21
17.52
16.57
15.53
14.53
13.63
12.81
12.01
11.2
10.38
9.56
8.75
7.95
7.14
6.26
5.31
4.29
3.24
2.16
1.07
-0.05
-1.22
-2.46
-3.78
-5.17
-6.6
-8.04
-9.46
-10.85
-12.22
-13.65
-15.19
-16.93
-18.92
-21.17
-23.6
-25.95
-27.84
-28.8
-28.43
-26.55
-23.26
-18.93
-14.09
-9.23
-4.72
-0.71
2.76
5.74
8.25
10.27
11.78
12.71
13.08
12.98
12.54
11.96
11.41
11.05
10.93
11.05
11.33
11.7
12.08
12.47
12.88
13.32
13.77
14.16
14.36
14.29
13.9
13.2
12.3
11.3
10.31
9.37
8.49
7.63
6.74
5.77
4.72
3.62
2.52
1.5
0.58
-0.25
-1.03
-1.83
-2.7
-3.65
-4.66
-5.72
-6.85
-8.08
-9.43
-10.94
-12.61
-14.46
-16.54
-18.88
-21.47
-24.2
-26.77
-28.75
-29.67
-29.15
-27.02
-23.4
-18.66
-13.36
-8.07
-3.24
0.88
4.25
6.95
9.1
10.76
11.92
12.58
12.78
12.65
12.4
12.23
12.24
12.45
12.71
12.92
13.0
12.97
12.93
12.97
13.1
13.27
13.37
13.3
13.02
12.6
12.11
11.59
11.02
10.39
9.65
8.85
8.09
7.43
6.92
6.49
6.03
5.41
4.58
3.59
2.54
1.54
0.67
-0.1
-0.87
-1.73
-2.79
-4.02
-5.34
-6.62
-7.81
-8.93
-10.06
-11.28
-12.64
-14.13
-15.74
-17.54
-19.65
-22.08
-24.67
-26.97
-28.39
-28.33
-26.51
-23.05
-18.42
-13.26
-8.15
-3.53
0.4
3.52
5.82
7.35
8.25
8.7
8.98
9.22
9.49
9.71
9.79
9.63
9.29
8.86
8.47
8.2
8.0
7.83
7.64
7.47
7.41
7.54
7.81
8.07
8.14
7.86
7.22
6.36
5.49
4.76
4.2
3.71
3.15
2.48
1.78
1.19
0.84
0.73
0.68
0.46
-0.12
-1.09
-2.29
-3.5
-4.53
-5.3
-5.88
-6.41
-7.03
-7.83
-8.86
-10.19
-11.88
-13.96
-16.34
-18.8
-20.9
-22.15
-22.14
-20.67
-17.86
-14.03
-9.65
-5.16
-0.88
2.95
6.18
8.68
10.42
11.44
11.9
12.01
11.96
11.87
11.7
11.42
10.97
10.43
9.95
9.68
9.71
9.99
10.37
10.7
10.87
10.89
10.82
10.78
10.79
10.81
10.71
10.34
9.65
8.67
7.55
6.47
5.49
4.61
3.73
2.78
1.8
0.9
0.19
-0.3
-0.65
-1.0
-1.53
-2.29
-3.24
-4.24
-5.18
-5.98
-6.66
-7.3
-7.99
-8.82
-9.82
-10.99
-12.36
-13.93
-15.76
-17.85
-20.16
-22.48
-24.45
-25.61
-25.53
-24.02
-21.17
-17.36
-13.08
-8.82
-4.88
-1.37
1.75
4.5
6.88
8.82
10.19
10.98
11.22
11.1
10.81
10.52
10.32
10.19
10.06
9.88
9.71
9.71
10.03
10.74
11.74
12.72
13.37
13.43
12.87
11.86
10.71
9.72
9.01
8.52
8.1
7.57
6.86
5.98
5.02
4.06
3.15
2.31
1.57
0.98
0.57
0.32
0.11
-0.24
-0.91
-2.01
-3.57
-5.47
-7.5
-9.45
-11.1
-12.31
-13.0
-13.24
-13.21
-13.18
-13.44
-14.25
-15.72
-17.77
-20.15
-22.43
-24.07
-24.55
-23.52
-20.92
-17.01
-12.34
-7.57
-3.3
0.12
2.64
4.42
5.75
6.88
7.88
8.69
9.16
9.13
8.62
7.76
6.8
6.0
5.48
5.25
5.22
5.32
5.53
5.89
6.46
7.18
7.89
8.39
8.5
8.21
7.6
6.86
6.13
5.51
4.91
4.25
3.41
2.33
1.08
-0.23
-1.42
-2.35
-2.98
-3.34
-3.55
-3.77
-4.13
-4.67
-5.4
-6.3
-7.35
-8.55
-9.91
-11.42
-13.08
-14.91
-16.91
-19.03
-21.11
-22.81
-23.66
-23.24
-21.3
-17.94
-13.58
-8.81
-4.23
-0.23
3.02
5.53
7.46
8.94
10.05
10.82
11.23
11.3
11.08
10.69
10.25
9.83
9.43
9.03
8.62
8.27
8.12
8.32
8.92
9.81
10.77
11.48
11.75
11.53
10.91
10.07
9.16
8.26
7.37
6.49
5.61
4.74
3.85
2.97
2.09
1.21
0.4
-0.29
-0.81
-1.17
-1.45
-1.81
-2.4
-3.35
-4.66
-6.21
-7.8
-9.19
-10.24
-10.96
-11.54
-12.3
-13.53
-15.47
-18.08
-21.13
-24.15
-26.58
-27.87
-27.64
-25.8
-22.54
-18.28
-13.53
-8.85
-4.63
-1.08
1.75
4.01
5.91
7.64
9.27
10.72
11.79
12.26
12.11
11.5
10.74
10.18
10.04
10.36
11.01
11.82
12.61
13.31
13.88
14.33
14.65
14.78
14.72
14.45
14.01
13.47
12.89
12.32
11.76
11.12
10.33
9.34
8.19
6.99
5.88
4.94
4.18
3.51
2.83
2.03
1.06
-0.14
-1.59
-3.31
-5.24
-7.26
-9.17
-10.77
-11.96
-12.79
-13.44
-14.14
-15.06
-16.34
-18.02
-20.06
-22.36
-24.61
-26.39
-27.17
-26.54
-24.35
-20.8
-16.39
-11.71
-7.28
-3.36
-0.04
2.73
5.01
6.8
8.14
9.09
9.74
10.19
10.49
10.61
10.54
10.3
9.99
9.77
9.81
10.13
10.71
11.41
12.09
12.63
12.97
13.12
13.05
12.77
12.28
11.6
10.8
9.96
9.09
8.16
7.09
5.84
4.47
3.13
1.98
1.13
0.52
0.01
-0.57
-1.32
-2.21
-3.18
-4.14
-5.12
-6.14
-7.29
-8.55
-9.89
-11.27
-12.69
-14.19
-15.9
-17.84
-19.91
-21.81
