52.0
52.28
52.03
51.19
49.86
48.22
46.44
44.62
42.78
40.87
38.87
36.75
34.52
32.18
29.81
27.47
25.26
23.24
21.38
19.58
17.69
15.58
13.22
10.69
8.1
5.61
3.32
1.22
-0.72
-2.61
-4.53
-6.5
-8.54
-10.63
-12.74
-14.83
-16.75
-18.35
-19.41
-19.75
-19.33
-18.21
-16.56
-14.52
-12.24
-9.83
-7.37
-4.96
-2.77
-0.94
0.46
1.44
2.04
2.33
2.35
2.16
1.85
1.56
1.41
1.45
1.63
1.87
2.07
2.23
2.4
2.63
2.91
3.17
3.32
3.3
3.12
2.9
2.75
2.69
2.66
2.53
2.16
1.5
0.61
-0.35
-1.22
-1.9
-2.39
-2.79
-3.26
-3.91
-4.74
-5.71
-6.7
-7.62
-8.42
-9.15
-9.86
-10.63
-11.55
-12.69
-14.05
-15.61
-17.26
-18.81
-20.03
-20.7
-20.63
-19.79
-18.25
-16.15
-13.72
-11.14
-8.61
-6.24
-4.1
-2.24
-0.62
0.77
1.96
2.96
3.75
4.35
4.72
4.86
4.81
4.58
4.26
3.95
3.76
3.8
4.08
4.55
5.04
5.4
5.5
5.34
5.01
4.59
4.16
3.73
3.25
2.66
1.99
1.29
0.66
0.2
-0.04
-0.14
-0.17
-0.28
-0.53
-0.95
-1.52
-2.18
-2.92
-3.76
-4.7
-5.7
-6.67
-7.52
-8.23
-8.85
-9.56
-10.54
-11.91
-13.64
-15.54
-17.33
-18.72
-19.49
-19.56
-18.95
-17.78
-16.21
-14.41
-12.49
-10.53
-8.55
-6.6
-4.72
-3.02
-1.58
-0.47
0.35
0.99
1.55
2.1
2.64
3.09
3.39
3.57
3.72
3.97
4.41
5.0
5.64
6.18
6.52
6.63
6.55
6.32
6.06
5.83
5.71
5.77
5.96
6.22
6.42
6.46
6.27
5.81
5.04
3.95
2.56
0.96
-0.68
-2.11
-3.13
-3.66
-3.81
-3.8
-3.87
-4.19
-4.81
-5.67
-6.69
-7.79
-8.96
-10.22
-11.62
-13.24
-15.09
-17.11
-19.14
-20.92
-22.18
-22.69
-22.3
-21.01
-18.95
-16.32
-13.36
-10.33
-7.44
-4.85
-2.62
-0.7
1.02
2.63
4.21
5.66
6.86
7.66
7.99
7.91
7.59
7.26
7.1
7.22
7.58
8.06
8.57
9.0
9.36
9.63
9.82
9.87
9.7
9.24
8.44
7.37
6.13
4.93
3.92
3.19
2.77
2.55
2.41
2.22
1.97
1.68
1.41
1.17
0.93
0.58
0.03
-0.76
-1.74
-2.81
-3.88
-4.91
-5.92
-6.97
-8.09
-9.3
-10.56
-11.9
-13.39
-15.1
-17.04
-19.09
-21.04
-22.55
-23.32
-23.19
-22.11
-20.22
-17.74
-14.89
-11.87
-8.81
-5.83
-3.06
-0.61
1.4
2.94
4.05
4.84
5.45
6.01
6.57
7.11
7.56
7.86
8.01
8.05
8.07
8.16
8.39
8.76
9.26
9.83
10.4
10.87
11.15
11.2
10.98
10.5
9.8
8.95
8.0
7.02
6.07
5.23
4.54
4.02
3.61
3.17
2.58
1.72
0.55
-0.84
-2.32
-3.75
-5.06
-6.31
-7.57
-8.97
-10.56
-12.37
-14.35
-16.45
-18.58
-20.66
-22.52
-23.99
-24.87
-24.97
-24.19
-22.53
-20.06
-16.93
-13.37
-9.6
-5.86
-2.41
0.56
2.95
4.76
6.11
7.21
8.23
9.3
10.4
11.45
12.31
12.9
13.2
13.31
13.34
13.4
13.56
13.81
14.09
14.33
14.46
14.42
14.2
13.83
13.35
12.81
12.25
11.65
10.99
10.28
9.55
8.86
8.24
7.66
7.03
6.25
5.27
4.12
2.9
1.76
0.8
0.03
-0.6
-1.24
-2.03
-3.08
-4.44
-6.03
-7.73
-9.38
-10.85
-12.1
-13.15
-14.14
-15.24
-16.64
-18.43
-20.59
-22.94
-25.11
-26.66
-27.15
-26.31
-24.15
-20.94
-17.12
-13.15
-9.32
-5.77
-2.52
0.45
3.13
5.41
7.22
8.55
9.46
10.1
10.59
11.04
11.49
11.95
12.4
12.83
13.24
13.62
13.99
14.37
14.71
14.99
15.15
15.16
15.04
14.83
14.59
14.34
14.04
13.61
13.0
12.24
11.38
10.54
9.73
8.92
8.04
7.05
5.99
4.96
4.06
3.35
2.75
2.13
1.34
0.29
-1.01
-2.5
-4.09
-5.67
-7.16
-8.46
-9.53
-10.35
-11.0
-11.62
-12.43
-13.65
-15.4
-17.65
-20.18
-22.66
-24.68
-25.86
-25.95
-24.84
-22.64
-19.6
-16.05
-12.33
-8.72
-5.36
-2.31
0.44
2.88
4.99
6.71
8.01
8.86
9.32
9.49
9.51
9.53
9.65
9.95
10.4
10.93
11.48
11.98
12.4
12.71
12.92
12.98
12.89
12.64
12.29
11.88
11.45
10.96
10.37
9.64
8.77
7.82
6.83
5.84
4.83
3.77
2.67
1.59
0.64
-0.16
-0.82
-1.54
-2.5
-3.86
-5.6
-7.56
-9.5
-11.21
-12.59
-13.68
-14.59
-15.49
-16.52
-17.79
-19.34
-21.19
-23.24
-25.31
-27.1
-28.27
-28.49
-27.52
-25.35
-22.12
-18.15
-13.82
-9.49
-5.42
-1.79
1.35
3.98
6.1
7.8
9.14
10.29
11.36
12.37
13.31
14.05
14.54
14.77
14.84
14.89
15.06
15.39
15.86
16.38
16.84
17.14
17.25
17.14
16.83
16.36
15.77
15.12
14.43
13.71
12.95
12.13
11.27
10.38
9.51
8.66
7.84
6.98
6.02
4.95
3.78
2.61
1.53
0.59
-0.25
-1.08
-2.06
-3.26
-4.67
-6.19
-7.68
-9.02
-10.17
-11.19
-12.23
-13.41
-14.86
-16.66
-18.82
-21.3
-23.96
-26.52
-28.63
-29.87
-29.91
-28.58
-25.99
-22.44
-18.33
-14.06
-9.89
-5.96
-2.34
0.94
3.84
6.34
8.48
10.29
11.77
12.88
13.57
13.82
13.73
13.49
13.3
13.31
13.51
13.8
14.09
14.33
14.58
14.87
15.16
15.33
15.2
14.73
13.98
13.15
12.41
11.83
11.3
10.64
9.69
8.39
6.86
5.27
3.82
2.6
1.63
0.84
0.14
-0.54
-1.23
-1.94
-2.69
-3.5
-4.43
-5.48
-6.68
-8.0
-9.44
-10.94
-12.51
-14.13
-15.86
-17.78
-19.93
-22.28
-24.63
-26.6
-27.74
-27.69
-26.28
-23.6
-19.97
-15.79
-11.44
-7.16
-3.18
0.39
3.43
5.9
7.82
9.28
10.4
11.25
11.88
12.27
12.46
12.46
12.38
12.29
12.26
12.35
12.55
12.86
13.26
13.71
14.17
14.56
14.77
14.7
14.31
13.58
12.64
11.63
10.72
9.99
9.42
8.92
8.37
7.65
6.76
5.75
4.72
3.74
2.87
2.07
1.3
0.52
-0.32
-1.2
-2.1
-3.02
-3.98
-5.03
-6.22
-7.57
-9.07
-10.69
-12.34
-13.97
-15.54
-17.05
-18.54
-20.1
-21.8
-23.67
-25.63
-27.45
-28.82
-29.36
-28.8
-27.01
-24.11
-20.33
-16.0
-11.46
-6.97
-2.79
0.93
4.05
6.53
8.43
9.86
10.97
11.88
12.66
13.27
13.66
13.84
13.87
13.88
13.99
14.28
14.75
15.32
15.86
16.26
16.47
16.45
16.23
15.87
15.43
14.94
14.4
13.8
13.11
12.33
11.47
10.52
9.5
8.41
7.3
6.18
5.11
4.11
3.17
2.27
1.41
0.6
-0.15
-0.86
-1.56
-2.3
-3.11
-3.98
-4.89
-5.86
-6.94
-8.21
-9.71
-11.41
-13.2
-14.92
-16.48
-17.88
-19.26
-20.75
-22.42
-24.22
-25.94
-27.23
-27.72
-27.11
-25.26
-22.24
-18.36
-14.01
-9.63
-5.58
-2.06
0.85
3.18
4.97
6.27
7.11
7.55
7.69
7.67
7.68
7.82
8.16
8.64
9.17
9.7
10.2
10.71
11.26
11.81
12.28
12.59
12.7
12.64
12.46
12.21
11.87
11.38
10.68
9.78
8.79
7.81
6.91
6.03
5.08
3.95
2.64
1.27
-0.02
-1.12
-2.05
-2.96
-3.98
-5.23
-6.71
-8.29
-9.83
-11.21
-12.42
-13.49
-14.57
-15.73
-17.09
-18.71
-20.62
-22.82
-25.19
-27.47
-29.28
-30.14
-29.65
-27.65
-24.29
-19.99
-15.29
-10.68
-6.42
-2.6
0.8
3.82
6.46
8.68
10.45
11.82
12.81
13.49
13.87
13.96
13.83
13.59
13.41
13.47
13.84
14.48
15.25
15.94
16.41
16.53
16.3
15.8
15.13
14.41
13.71
13.04
12.34
11.55
10.62
9.56
8.47
7.46
6.58
5.85
5.19
4.49
3.69
2.74
1.7
0.63
-0.4
-1.36
-2.24
-3.05
-3.84
-4.68
-5.67
-6.86
-8.29
-9.92
-11.61
-13.24
-14.72
-16.02
-17.23
-18.49
-19.95
-21.64
-23.5
-25.32
-26.82
-27.64
-27.49
-26.17
-23.67
-20.21
-16.15
-11.91
-7.86
-4.21
-0.99
1.9
4.59
7.14
9.51
11.55
13.11
14.1
14.52
14.49
14.2
13.85
13.59
13.5
13.58
13.81
14.16
14.63
15.17
15.68
16.0
15.99
15.53
14.67
13.55
12.4
11.39
10.59
9.95
9.34
8.65
7.83
6.86
5.77
4.59
3.32
2.02
0.75
-0.37
-1.25
-1.86
-2.24
-2.54
-2.94
-3.59
-4.55
-5.77
-7.13
-8.48
-9.76
-10.97
-12.22
-13.66
-15.37
-17.39
-19.64
-22.0
-24.25
-26.12
-27.3
-27.46
-26.41
-24.12
-20.78
-16.76
-12.46
-8.19
-4.17
-0.5
2.76
5.51
7.68
9.22
10.16
10.62
10.75
10.72
10.62
10.54
10.51
10.54
10.63
10.78
10.99
11.26
11.62
12.07
12.57
13.01
13.28
13.27
12.95
12.33
11.51
10.6
9.69
8.9
8.26
7.78
7.39
6.97
6.42
5.66
4.7
3.66
2.64
1.72
0.88
0.03
-0.93
-2.03
-3.25
-4.52
-5.79
-7.08
-8.43
-9.92
-11.57
-13.36
-15.2
-17.06
-18.91
-20.83
-22.89
-25.1
-27.29
-29.12
-30.19
-30.13
-28.75
-26.12
-22.5
-18.28
-13.84
-9.46
-5.34
-1.6
1.7
4.57
7.02
9.08
10.75
12.03
12.92
13.49
13.84
14.14
14.47
14.84
15.18
15.36
15.35
15.23
15.13
15.22
15.54
16.0
16.43
16.65
16.54
16.15
15.56
14.9
14.21
13.45
12.53
11.4
10.16
8.94
7.92
7.18
6.62
6.06
5.34
4.4
3.36
2.4
1.59
0.91
0.14
-0.92
-2.34
-4.02
-5.77
-7.38
-8.81
-10.12
-11.43
-12.83
-14.34
-15.99
-17.81
-19.89
-22.28
-24.85
-27.25
-28.98
-29.56
-28.67
-26.3
-22.74
-18.46
-13.95
-9.57
-5.56
-1.99
1.15
3.9
6.25
8.23
9.81
10.98
11.77
12.21
12.37
12.32
12.12
11.85
11.62
11.52
11.62
11.95
12.42
12.93
13.34
13.57
13.62
13.54
13.39
13.16
12.84
12.34
11.66
10.84
9.97
9.09
8.25
7.43
6.62
5.78
4.86
3.85
2.67
1.34
-0.12
-1.6
-3.03
-4.37
-5.63
-6.88
-8.14
-9.4
-10.63
-11.81
-13.03
-14.48
-16.34
-18.69
-21.44
-24.28
-26.78
-28.51
-29.06
-28.28
-26.17
-22.99
-19.06
-14.75
-10.35
-6.07
-2.08
1.53
4.63
7.13
8.98
10.2
10.91
11.27
11.46
11.6
11.78
12.05
12.4
12.83
13.31
13.81
14.24
14.55
14.71
14.7
14.55
14.33
14.08
13.85
13.62
13.37
13.04
12.58
11.97
11.19
10.26
9.24
8.18
7.14
6.16
5.22
4.28
3.27
2.15
0.94
-0.3
-1.46
-2.46
-3.32
-4.1
-4.92
-5.84
-6.91
-8.11
-9.38
-10.67
-11.95
-13.23
-14.53
-15.9
-17.42
-19.22
-21.39
-23.93
-26.66
-29.18
-30.93
-31.36
-30.12
-27.18
-22.91
-17.91
-12.78
-7.98
-3.71
0.03
3.3
6.15
8.56
10.47
11.86
12.81
13.42
13.81
14.05
14.17
14.18
14.09
13.96
13.81
13.71
13.67
13.73
13.89
14.13
14.4
14.62
14.75
14.76
14.66
14.45
14.14
13.7
13.09
12.32
11.42
10.47
9.53
8.64
7.79
6.98
6.15
5.25
4.25
3.11
1.89
0.64
-0.55
-1.64
-2.67
-3.74
-4.94
-6.31
-7.78
-9.23
-10.54
-11.75
-12.97
-14.4
-16.19
-18.37
-20.82
-23.34
-25.66
-27.51
-28.61
-28.66
-27.47
-24.98
-21.38
-17.03
-12.43
-7.97
-3.92
-0.34
2.75
5.37
7.48
9.04
10.06
10.64
10.97
11.22
11.43
11.55
11.5
11.26
10.96
10.79
10.97
11.54
12.41
13.29
13.93
14.13
13.85
13.15
12.15
10.99
9.74
8.5
7.39
6.46
5.74
5.12
4.47
3.61
2.5
1.16
-0.25
-1.56
-2.66
-3.55
-4.3
-5.06
-5.94
-7.0
-8.2
-9.46
-10.71
-11.97
-13.32
-14.9
-16.81
-19.06
-21.46
-23.72
-25.45
-26.32
-26.11
-24.74
-22.28
-18.91
-14.9
-10.49
-5.97
-1.64
2.24
5.46
7.92
9.65
10.79
11.5
11.93
12.17
12.26
12.24
12.16
12.14
12.24
12.52
12.96
13.53
14.16
14.79
15.35
15.71
15.81
15.59
15.06
14.31
13.43
12.48
11.46
10.38
9.28
8.27
7.42
6.79
6.29
5.79
5.14
4.29
3.32
2.33
1.44
0.64
-0.13
-0.99
-1.99
-3.16
-4.51
-6.04
-7.78
-9.7
-11.65
-13.43
-14.85
-15.85
-16.6
-17.47
-18.85
-20.93
-23.6
-26.4
-28.7
-29.89
-29.58
-27.7
-24.46
-20.26
-15.55
-10.74
-6.13
-1.95
1.72
4.83
7.43
9.57
11.33
12.71
13.72
14.32
14.53
14.39
14.04
13.63
13.33
13.26
13.46
13.89
14.46
15.02
15.46
15.68
15.64
15.33
14.81
14.14
13.44
12.77
12.15
11.54
10.88
10.09
9.16
8.12
7.03
5.96
4.91
3.85
2.74
1.59
0.43
-0.65
-1.64
-2.58
-3.58
-4.76
-6.17
-7.76
-9.38
-10.86
-12.07
-13.05
-13.9
-14.86
-16.18
-18.0
-20.33
-22.94
-25.43
-27.29
-28.03
-27.32
-25.09
-21.58
-17.17
-12.36
-7.57
-3.11
0.86
4.25
7.01
9.09
10.45
11.13
11.25
11.02
10.66
10.35
10.2
10.27
10.53
10.93
11.4
11.86
12.23
12.52
12.76
12.99
13.22
13.37
13.26
12.75
11.83
10.62
9.4
8.39
7.67
7.08
6.37
5.35
4.0
2.47
1.0
-0.24
-1.21
-2.06
-2.91
-3.88
-4.97
-6.15
-7.36
-8.63
-9.97
-11.36
-12.75
-14.04
-15.26
-16.49
-17.93
-19.72
-21.89
-24.24
-26.36
-27.75
-27.93
-26.61
-23.79
-19.75
-14.95
-9.93
-5.19
-1.01
2.47
5.26
7.48
9.24
10.66
11.8
12.67
13.3
13.69
13.85
13.85
13.7
13.46
13.22
13.06
13.11
13.4
13.95
14.63
15.27
15.68
15.75
15.44
14.82
14.01
13.1
12.16
11.19
10.22
9.27
8.39
7.58
6.81
6.04
5.2
4.27
3.25
2.23
1.25
0.38
-0.4
-1.09
-1.74
-2.4
-3.13
-3.99
-5.01
-6.22
-7.59
-9.07
-10.6
-12.14
-13.67
-15.26
-16.95
-18.83
-20.86
-22.97
-24.97
-26.55
-27.4
-27.19
-25.72
-23.01
-19.3
-15.01
-10.6
-6.45
-2.77
0.39
3.1
5.39
7.27
8.73
9.76
10.43
10.86
11.16
11.4
11.56
11.64
11.66
11.69
11.84
12.15
12.58
13.02
13.36
13.54
13.58
13.49
13.27
12.88
12.31
11.58
10.77
9.96
9.19
8.41
7.54
6.54
5.42
4.25
3.12
2.05
1.02
0.02
-0.93
-1.76
-2.42
-2.9
-3.34
-3.91
-4.78
-6.0
-7.45
-8.94
-10.24
-11.23
-11.98
-12.69
-13.63
-15.06
-17.07
-19.55
-22.14
-24.25
-25.28
-24.73
-22.46
-18.71
-14.04
-9.1
-4.44
-0.35
3.09
5.94
8.24
9.97
11.13
11.8
12.15
12.38
12.61
12.84
12.94
12.79
12.38
11.82
11.3
10.96
10.86
10.94
11.08
11.19
11.21
11.16
11.09
10.99
10.82
10.47
9.81
8.82
7.56
6.21
5.03
4.1
3.41
2.78
2.01
0.98
-0.23
-1.42
-2.36
-2.95
-3.28
-3.55
-3.97
-4.64
-5.58
-6.68
-7.89
-9.12
-10.32
-11.46
-12.51
-13.5
-14.54
-15.84
-17.56
-19.79
-22.38
-24.96
-27.05
-28.11
-27.76
-25.83
-22.46
-18.03
-13.12
-8.29
-4.0
-0.47
2.34
4.64
6.67
8.55
10.25
11.61
12.51
12.9
12.88
12.64
12.38
12.25
12.3
12.5
12.8
13.15
13.56
13.99
14.44
14.85
15.14
15.2
14.95
14.35
13.43
12.29
11.06
9.88
8.85
8.03
7.38
6.86
6.38
5.83
5.14
4.24
3.12
1.86
0.57
-0.58
-1.52
-2.22
-2.78
-3.38
-4.19
-5.29
-6.68
-8.21
-9.7
-11.02
-12.14
-13.16
-14.24
-15.56
-17.21
-19.2
-21.41
-23.62
-25.54
-26.83
-27.18
-26.34
-24.22
-20.88
-16.64
-11.93
-7.22
-2.88
0.88
4.03
6.62
8.73
10.35
11.43
11.94
11.92
11.55
11.1
10.79
10.76
10.98
11.34
11.72
12.07
12.37
12.65
12.94
13.17
13.25
13.05
12.49
11.57
10.42
9.23
8.19
7.42
6.9
6.52
6.06
5.4
4.49
3.4
2.27
1.25
0.41
-0.23
-0.74
-1.25
-1.89
-2.78
-3.94
-5.32
-6.82
-8.33
-9.79
-11.23
-12.7
-14.29
-16.05
-17.97
-20.02
-22.11
-24.06
-25.55
-26.21
-25.64
-23.64
-20.25
-15.8
-10.82
-5.83
-1.24
2.72
5.97
8.51
10.36
11.57
12.26
12.6
12.75
12.87
13.0
13.09
13.06
12.85
12.48
12.02
11.65
11.48
11.6
11.98
12.53
13.08
13.45
13.54
13.32
12.85
12.23
11.53
10.8
10.03
9.19
8.26
7.26
6.24
5.23
4.24
3.31
2.43
1.64
0.96
0.35
-0.26
-0.95
-1.77
-2.73
-3.76
-4.77
-5.73
-6.65
-7.58
-8.57
-9.63
-10.72
-11.79
-12.84
-13.92
-15.16
-16.67
-18.51
-20.61
-22.71
-24.44
-25.37
-25.13
-23.54
-20.61
-16.63
-11.99
-7.16
-2.53
1.58
4.96
7.56
9.39
10.54
11.17
11.45
11.52
11.51
11.54
11.69
11.98
12.38
12.82
13.17
13.38
13.46
13.5
13.57
13.72
13.89
13.92
13.69
13.13
12.3
11.32
10.33
9.39
8.53
7.7
6.9
6.15
5.47
4.9
4.38
3.85
3.2
2.35
1.28
0.08
-1.12
-2.15
-2.92
-3.44
-3.86
-4.41
-5.23
-6.35
-7.62
-8.82
-9.76
-10.46
-11.13
-12.1
-13.62
-15.76
-18.34
-20.99
-23.23
-24.66
-24.94
-23.92
-21.59
-18.13
-13.9
-9.34
-4.89
-0.86
2.56
5.36
7.55
9.2
10.33
11.01
11.36
11.49
11.5
11.4
11.19
10.85
10.42
10.01
9.76
9.74
9.94
10.26
10.6
10.87
11.06
11.15
11.15
11.02
10.7
10.1
9.24
8.18
7.04
5.98
5.07
4.35
3.76
3.17
2.48
1.61
0.54
-0.67
-1.87
-2.97
-3.88
-4.58
-5.15
-5.71
-6.37
-7.19
-8.18
-9.28
-10.37
-11.36
-12.27
-13.17
-14.22
-15.56
-17.22
-19.12
-21.06
-22.8
-24.06
-24.61
-24.23
-22.84
-20.43
-17.1
-13.08
-8.69
-4.24
-0.04
3.66
6.7
8.99
10.53
11.4
11.77
11.81
11.66
11.44
11.18
10.93
10.72
10.61
10.64
10.86
11.26
11.81
12.46
13.11
13.72
14.22
14.56
14.68
14.55
14.09
13.3
12.21
10.92
9.56
8.22
6.99
5.89
4.92
4.09
3.39
2.83
2.32
1.81
1.2
0.46
-0.36
-1.17
-1.87
-2.38
-2.73
-3.0
-3.33
-3.85
-4.59
-5.56
-6.67
-7.86
-9.05
-10.23
-11.43
-12.75
-14.3
-16.17
-18.39
-20.86
-23.35
-25.52
-26.92
-27.17
-26.0
-23.38
-19.53
-14.88
-9.97
-5.3
-1.25
2.03
4.57
6.51
8.04
9.22
10.08
10.56
10.61
10.28
9.76
9.29
9.07
9.21
9.65
10.24
10.8
11.19
11.38
11.38
11.25
11.06
10.82
10.51
10.1
9.57
8.93
8.21
7.51
6.9
6.4
5.97
5.45
4.73
3.76
2.62
1.5
0.58
-0.04
-0.48
-0.93
-1.62
-2.67
-4.05
-5.59
-7.08
-8.36
-9.42
-10.37
-11.36
-12.5
-13.83
-15.32
-16.93
-18.65
-20.46
-22.3
-23.92
-24.96
-24.94
-23.53
-20.6
-16.4
-11.46
-6.4
-1.75
2.18
5.33
7.74
9.54
10.76
11.42
11.54
11.22
10.66
10.09
9.71
9.6
9.74
10.06
10.46
10.93
11.47
12.07
12.68
13.17
13.41
13.32
12.94
12.37
11.76
11.2
10.7
10.19
9.63
9.03
8.43
7.89
7.44
7.07
6.7
6.28
5.77
5.2
4.63
4.09
3.59
3.11
2.59
2.03
1.43
0.78
0.07
-0.7
-1.56
-2.51
-3.53
-4.6
-5.72
-6.88
-8.16
-9.62
-11.31
-13.23
-15.35
-17.62
-19.94
-22.12
-23.82
-24.64
-24.19
-22.24
-18.82
-14.25
-9.07
-3.86
0.89
4.84
7.86
9.99
11.37
12.23
12.84
13.4
14.0
14.66
15.29
15.85
16.35
16.9
17.65
18.71
20.13
21.88
23.89
26.05
28.26
30.51
32.84
35.26
37.8
40.37
42.85
45.11
47.09
48.9
50.82
53.18
56.26
60.17
64.78
69.8
74.82
79.51
83.72
87.54
91.3
95.44
100.29
105.88
111.78
117.14
120.91
122.16
120.27
115.13
107.06
96.71
84.91
72.4
59.68
46.83
33.54
19.28
3.71
-12.98
-29.9
-45.71
-59.12
-69.48
-77.12
-83.16
-89.04
-95.84
-103.94
-112.93
-121.97
-130.15
-136.66
-140.89
-142.3
-140.47
-135.19
-126.59
-115.15
-101.68
-87.05
-72.12
-57.72
-44.63
-33.48
-24.6
-17.85
-12.54
-7.71
-2.51
3.38
9.65
15.61
20.55
24.16
26.6
28.3
29.71
31.08
32.52
34.08
35.94
38.4
41.86
46.47
52.11
58.27
64.19
69.08
72.24
73.17
71.47
66.89
59.25
48.59
35.17
19.61
2.84
-14.01
-29.84
-43.85
-55.68
-65.5
-73.82
-81.3
-88.5
-95.71
-102.82
-109.42
-114.78
-118.02
-118.3
-115.09
-108.42
-98.97
-87.98
-76.91
-66.97
-58.81
-52.45
-47.53
-43.6
-40.4
-37.89
-36.21
-35.43
-35.48
-36.07
-36.85
-37.5
-37.81
-37.66
-37.01
-35.82
-34.13
-32.07
-29.83
-27.66
-25.76
-24.26
-23.2
-22.63
-22.68
-23.45
-25.0
-27.22
-29.81
-32.33
-34.48
-36.21
-37.94
-40.49
-44.84
-51.67
-60.98
-71.93
-82.97
-92.36
-98.68
-101.1
-99.08
-92.19
-80.24
-63.66
-44.07
-23.94
-5.64
9.71
22.48
33.34
41.61
44.57
38.57
21.87
-2.78
-27.66
-42.62
-38.95
-12.83
33.6
93.76
159.19
221.73
274.47
312.19
331.66
332.3
316.58
289.47
256.95
224.13
194.25
168.67
147.74
131.41
119.22
110.09
102.13
93.2
81.92
68.37
53.95
40.59
29.74
21.66
15.54
10.07
4.17
-2.61
-10.03
-17.51
-24.5
-30.67
-35.96
-40.51
-44.59
-48.45
-52.19
-55.71
-58.71
-60.82
-61.7
-61.27
-59.74
-57.59
-55.44
-53.85
-53.12
-53.24
-53.84
-54.43
-54.56
-54.02
-52.77
-50.86
-48.24
-44.81
-40.5
-35.45
-30.13
-25.22
-21.34
-18.76
-17.22
-15.98
-14.14
-11.0
-6.46
-1.06
4.17
8.18
10.41
11.04
10.88
10.85
11.42
12.31
12.73
11.9
9.56
6.11
2.38
-0.76
-2.53
-2.24
0.82
7.2
16.68
27.76
37.64
43.01
41.51
32.93
19.45
4.68
-7.95
-16.64
-21.55
-24.12
-25.83
-27.32
-28.35
-28.33
-27.03
-25.0
-23.39
-23.46
-26.01
-31.13
-38.09
-45.6
-52.17
-56.52
-58.05
-57.04
-54.48
-51.62
-49.33
-47.7
-46.15
-43.94
-40.91
-37.69
-35.42
-35.01
-36.35
-38.19
-38.55
-35.7
-28.91
-18.84
-7.17
4.05
13.13
19.32
22.95
25.28
28.15
33.35
41.92
53.58
66.57
78.15
85.58
87.22
83.09
74.71
64.02
52.2
39.03
23.21
3.57
-19.55
-43.82
-65.39
-80.59
-87.54
-87.06
-82.21
-76.76
-73.54
-73.31
-75.0
-76.65
-76.64
-74.37
-70.17
-64.71
-58.5
-51.64
-43.96
-35.43
-26.45
-17.81
-10.5
-5.21
-2.09
-0.58
0.37
1.78
4.26
7.67
11.19
13.73
14.43
13.1
10.28
6.86
3.71
1.25
-0.64
-2.46
-4.68
-7.46
-10.56
-13.44
-15.56
-16.67
-16.92
-16.76
-16.79
-17.53
-19.28
-22.14
-26.01
-30.61
-35.48
-39.94
-43.27
-44.9
-44.7
-43.14
-41.2
-40.02
-40.38
-42.41
-45.52
-48.68
-50.92
-51.73
-51.21
-49.94
-48.6
-47.61
-47.01
-46.47
-45.58
-43.99
-41.47
-37.9
-33.21
-27.39
-20.64
-13.44
-6.61
-1.08
2.41
3.63
2.98
1.32
-0.4
-1.58
-2.12
-2.27
-2.28
-2.04
-0.9
2.02
7.28
14.6
22.68
29.52
33.14
32.31
26.94
17.85
6.18
-7.12
-21.66
-37.6
-55.45
-76.03
-100.36
-129.4
-163.55
-201.87
-241.57
-278.16
-306.56
-322.66
-324.7
-313.72
-292.81
-265.77
-235.67
-204.28
-172.22
-139.77
-107.23
-75.24
-44.27
-14.23
15.78
47.27
81.96
121.36
166.09
215.41
266.83
316.24
358.74
389.84
406.78
409.23
399.15
379.89
354.86
326.73
297.19
267.21
237.57
209.06
182.4
157.98
135.78
115.44
96.55
78.85
62.31
47.12
33.81
23.12
15.8
12.34
12.63
15.85
20.54
25.15
28.51
30.25
30.73
30.63
30.52
30.54
30.46
29.87
28.62
26.84
24.87
23.0
21.27
19.51
17.44
14.85
11.74
8.29
4.76
1.42
-1.56
-4.13
-6.37
-8.4
-10.35
-12.31
-14.2
-15.86
-17.0
-17.38
-16.81
-15.3
-13.03
-10.35
-7.66
-5.25
-3.24
-1.53
0.06
1.74
3.57
5.47
7.3
8.98
10.52
12.01
13.55
15.19
16.92
18.8
20.99
23.64
26.75
30.09
33.11
35.21
35.9
35.06
32.89
29.8
26.2
22.39
18.5
14.58
10.61
6.49
2.01
-3.17
-9.39
-16.82
-25.21
-33.91
-41.85
-47.9
-51.19
-51.43
-49.02
-44.91
-40.32
-36.33
-33.68
-32.6
-32.97
-34.52
-36.98
-40.19
-44.05
-48.46
-53.27
-58.24
-63.12
-67.6
-71.31
-73.88
-74.96
-74.3
-71.84
-67.68
-62.07
-55.36
-47.93
-40.22
-32.61
-25.44
-18.94
-13.17
-8.08
-3.62
0.2
3.26
5.39
6.47
6.55
5.87
4.85
3.92
3.45
3.71
4.77
6.5
8.62
10.76
12.58
13.92
14.82
15.48
16.18
17.13
18.35
19.68
20.83
21.5
21.42
20.48
18.7
16.26
13.42
10.44
7.5
4.69
1.96
-0.75
-3.51
-6.39
-9.46
-12.89
-16.87
-21.6
-27.18
-33.53
-40.36
-47.21
-53.62
-59.23
-63.91
-67.81
-71.28
-74.7
-78.35
-82.2
-85.9
-88.92
-90.64
-90.66
-88.88
-85.53
-81.05
-75.97
-70.6
-64.79
-57.82
-48.49
-35.45
-17.77
4.68
30.91
58.92
86.12
109.93
128.4
140.57
146.58
147.53
144.98
140.53
135.43
130.34
125.35
120.24
114.76
108.86
102.67
96.4
90.13
83.8
77.27
70.42
63.22
55.71
47.87
39.54
30.54
21.02
11.73
4.04
-0.55
-1.11
2.01
7.17
12.1
14.98
15.28
13.83
12.04
11.0
10.8
10.67
9.63
7.1
3.17
-1.68
-7.06
-12.8
-18.83
-24.82
-30.18
-34.18
-36.19
-35.97
-33.59
-29.4
-23.96
-18.18
-12.87
-8.31
-3.9
1.49
8.53
16.65
23.93
28.12
28.05
24.46
19.74
16.4
15.64
16.72
17.81
17.46
15.72
13.99
13.97
16.28
20.09
23.57
25.1
24.17
21.38
17.97
15.18
13.59
12.93
12.27
10.46
6.72
0.97
-6.01
-12.87
-18.17
-21.07
-21.49
-20.11
-17.9
-15.63
-13.64
-11.83
-9.97
-8.04
-6.38
-5.5
-5.81
-7.36
-9.81
-12.6
-15.24
-17.41
-19.07
-20.35
-21.37
-22.05
-22.08
-21.08
-18.75
-15.06
-10.34
-5.16
-0.18
4.13
7.54
10.06
11.82
12.94
13.52
13.64
13.43
13.04
12.56
11.93
10.89
9.18
6.71
3.75
0.9
-1.09
-1.61
-0.47
1.93
4.75
6.93
7.55
6.09
2.64
-2.13
-7.06
-10.88
-12.48
-11.26
-7.21
-0.95
6.41
13.6
19.34
22.76
23.51
21.93
18.88
15.43
12.52
10.69
9.98
9.92
9.8
8.82
6.37
2.18
-3.58
-10.26
-16.81
-22.08
-25.07
-25.28
-22.73
-18.08
-12.3
-6.48
-1.48
2.24
4.67
6.16
7.19
8.18
9.27
10.32
10.95
10.73
9.43
7.15
4.29
1.46
-0.79
-2.14
-2.55
-2.29
-1.7
-1.11
-0.73
-0.69
-0.94
-1.34
-1.61
-1.54
-1.14
-0.65
-0.55
-1.16
-2.46
-4.02
-5.13
-5.15
-3.76
-1.1
2.31
5.69
8.2
9.09
7.82
4.14
-1.72
-9.23
-17.62
-26.26
-34.79
-43.11
-51.24
-59.14
-66.67
-73.56
-79.55
-84.36
-87.66
-89.03
-88.01
-84.14
-77.24
-67.46
-55.47
-42.35
-29.42
-17.92
-8.74
-2.12
2.23
5.07
7.13
8.98
10.76
12.36
13.59
14.44
15.03
15.61
16.39
17.43
18.66
19.91
21.06
22.03
22.82
23.4
23.76
23.87
23.72
23.35
22.82
22.21
21.55
20.77
19.77
18.42
16.64
14.46
12.02
9.54
7.27
5.38
3.87
2.59
1.27
-0.36
-2.44
-4.88
-7.44
-9.82
-11.79
-13.32
-14.59
-15.94
-17.73
-20.27
-23.63
-27.64
-31.85
-35.58
-38.1
-38.71
-36.97
-32.82
-26.63
-19.14
-11.26
-3.85
2.53
7.65
11.62
14.67
17.0
18.7
19.76
20.16
20.02
19.53
18.93
18.45
18.15
18.04
18.08
18.25
18.56
18.99
19.52
20.02
20.4
20.54
20.39
19.96
19.29
18.4
17.33
16.12
14.8
13.38
11.85
10.15
8.28
6.28
4.26
2.39
0.79
-0.52
-1.64
-2.77
-4.08
-5.68
-7.56
-9.62
-11.7
-13.7
-15.57
-17.37
-19.24
-21.39
-23.98
-27.13
-30.75
-34.53
-37.97
-40.38
-41.09
-39.62
-35.81
-29.9
-22.54
-14.54
-6.73
0.3
6.23
11.04
14.88
17.9
20.24
21.91
22.96
23.46
23.51
23.25
22.79
22.21
21.56
20.96
20.58
20.55
20.94
21.69
22.61
23.49
24.15
24.51
24.57
24.38
23.92
23.2
22.19
20.94
19.51
18.02
16.52
15.02
13.47
11.82
10.07
8.29
6.57
4.99
3.54
2.13
0.63
-1.06
-2.96
-4.99
-7.03
-8.97
-10.79
-12.48
-14.13
-15.78
-17.52
-19.46
-21.78
-24.65
-28.13
-31.98
-35.57
-38.08
-38.65
-36.74
-32.35
-25.97
-18.43
-10.61
-3.24
3.26
8.74
13.2
16.73
19.42
21.34
22.56
23.15
23.2
22.83
22.17
21.4
20.73
20.33
20.33
20.75
21.48
22.38
23.26
24.02
24.61
25.03
25.28
25.28
24.92
24.1
22.86
21.38
19.9
18.62
17.59
16.63
15.44
13.75
11.55
9.1
6.85
5.19
4.27
3.88
3.62
3.04
1.84
-0.0
-2.34
-4.91
-7.49
-9.92
-12.17
-14.29
-16.35
-18.52
-20.97
-23.86
-27.2
-30.76
-34.05
-36.34
-36.89
-35.22
-31.28
-25.55
-18.84
-12.04
-5.83
-0.55
3.72
7.03
9.37
10.65
10.81
9.86
8.03
5.65
3.13
0.8
-1.11
-2.47
-3.16
-3.1
-2.18
-0.4
2.2
5.47
9.23
13.3
17.49
21.56
25.18
27.97
29.59
29.85
28.84
26.88
24.48
22.07
19.97
18.27
16.91
15.78
14.79
13.8
12.7
11.4
9.8
7.92
5.84
3.7
1.59
-0.44
-2.47
-4.59
-6.89
-9.38
-12.02
-14.81
-17.81
-21.15
-24.99
-29.4
-34.21
-38.94
-42.84
-45.11
-45.07
-42.44
-37.43
-30.66
-22.95
-15.13
-7.81
-1.36
4.02
8.3
11.51
13.76
15.25
16.19
16.77
17.07
17.12
16.93
16.55
16.12
15.79
15.69
15.87
16.33
17.03
17.95
19.03
20.14
21.01
21.41
21.17
20.36
19.2
18.0
16.98
16.16
15.42
14.6
13.57
12.36
11.06
9.74
8.42
7.05
5.57
3.99
2.39
0.94
-0.23
-1.1
-1.77
-2.52
-3.59
-5.13
-7.12
-9.34
-11.5
-13.41
-15.05
-16.56
-18.21
-20.26
-22.91
-26.17
-29.91
-33.75
-37.15
-39.43
-39.96
-38.31
-34.46
-28.76
-21.83
-14.43
-7.15
-0.4
5.61
10.77
15.02
18.2
20.23
21.06
20.84
19.88
18.54
17.13
15.87
14.85
14.06
13.53
13.29
13.43
14.0
14.99
16.3
17.77
19.2
20.35
21.04
21.06
20.32
18.81
16.67
14.12
11.55
9.33
7.75
6.94
6.81
7.02
7.17
6.88
5.92
4.24
1.88
-1.07
-4.5
-8.29
-12.15
-15.65
-18.3
-19.81
-20.26
-20.15
-20.22
-21.19
-23.43
-26.83
-30.84
-34.75
-37.85
-39.6
-39.66
-37.86
-34.17
-28.76
-22.0
-14.48
-6.96
-0.16
5.42
9.59
12.48
14.42
15.72
16.57
17.0
16.92
16.29
15.21
13.97
12.91
12.33
12.37
12.92
13.79
14.71
15.5
16.11
16.59
17.04
17.52
17.99
18.31
18.32
17.87
16.91
15.51
13.8
12.0
10.27
8.72
7.37
6.2
5.17
4.25
3.41
2.59
1.75
0.84
-0.17
-1.33
-2.67
-4.23
-6.08
-8.21
-10.54
-12.91
-15.18
-17.22
-19.06
-20.87
-22.91
-25.43
-28.53
-32.1
-35.78
-38.97
-41.0
-41.27
-39.45
-35.56
-29.99
-23.35
-16.32
-9.44
-3.12
2.45
7.17
11.02
14.04
16.26
17.77
18.64
18.96
18.79
18.2
17.31
16.24
15.14
14.19
13.54
13.38
13.76
14.7
16.03
17.52
18.9
19.93
20.5
20.59
20.25
19.54
18.52
17.23
15.72
14.09
12.38
10.63
8.84
6.99
5.14
3.41
1.93
0.78
-0.07
-0.69
-1.18
-1.64
-2.12
-2.71
-3.54
-4.75
-6.4
-8.44
-10.62
-12.69
-14.46
-15.95
-17.42
-19.26
-21.82
-25.2
-29.21
-33.29
-36.65
-38.44
-38.02
-35.16
-30.07
-23.44
-16.11
-8.86
-2.21
3.61
8.58
12.7
15.94
18.19
19.38
19.58
19.03
18.08
17.09
16.3
15.75
15.37
15.04
14.67
14.27
13.86
13.47
13.09
12.68
12.23
11.77
11.34
10.96
10.64
10.31
9.95
9.52
9.06
8.57
7.98
7.12
5.78
3.9
1.55
-0.93
-3.1
-4.6
-5.27
-5.25
-4.9
-4.65
-4.84
-5.64
-7.03
-8.88
-11.02
-13.3
-15.64
-18.0
-20.4
-22.93
-25.65
-28.61
-31.74
-34.78
-37.24
-38.51
-37.97
-35.27
-30.44
-23.92
-16.48
-8.95
-2.05
3.86
8.66
12.44
15.32
17.34
18.5
18.79
18.29
17.22
15.85
14.47
13.32
12.54
12.18
12.23
12.61
13.21
13.95
14.76
15.61
16.49
17.34
18.05
18.42
18.3
17.62
16.48
15.09
13.64
12.27
11.02
9.84
8.72
7.63
6.6
5.6
4.59
3.5
2.3
1.0
-0.36
-1.69
-2.98
-4.2
-5.39
-6.58
-7.81
-9.12
-10.54
-12.06
-13.65
-15.24
-16.77
-18.27
-19.83
-21.6
-23.74
-26.38
-29.46
-32.78
-35.88
-38.18
-39.05
-38.0
-34.84
-29.78
-23.35
-16.31
-9.38
-3.07
2.33
6.79
10.38
13.16
15.2
16.53
17.19
17.3
17.0
16.45
15.77
15.07
14.42
13.91
13.6
13.56
13.84
14.45
15.32
16.31
17.18
17.7
17.71
17.18
16.23
15.07
13.91
12.85
11.89
10.92
9.84
8.58
7.15
5.62
4.08
2.62
1.32
0.21
-0.76
-1.69
-2.75
-4.02
-5.52
-7.14
-8.75
-10.24
-11.6
-12.93
-14.36
-15.95
-17.74
-19.71
-21.89
-24.34
-27.12
-30.18
-33.27
-35.9
-37.47
-37.37
-35.19
-30.9
-24.85
-17.72
-10.32
-3.35
2.69
7.61
11.42
14.19
16.02
16.96
17.06
16.47
15.44
14.27
13.25
12.58
12.33
12.49
13.0
13.8
14.78
15.8
16.66
17.11
16.96
16.1
14.61
12.67
10.56
8.55
6.87
5.61
4.82
4.41
4.26
4.21
4.07
3.66
2.83
1.55
-0.05
-1.7
-3.1
-4.02
-4.42
-4.51
-4.62
-5.06
-6.01
-7.45
-9.2
-11.08
-12.9
-14.57
-16.06
-17.38
-18.59
-19.85
-21.36
-23.36
-25.96
-29.08
-32.34
-35.17
-36.86
-36.83
-34.76
-30.7
-25.08
-18.54
-11.8
-5.43
0.2
4.94
8.77
11.7
13.76
14.94
15.34
15.12
14.53
13.82
13.16
12.63
12.27
12.12
12.24
12.72
13.56
14.66
15.85
16.92
17.69
18.07
18.04
17.61
16.82
15.7
14.33
12.84
11.34
9.95
8.72
7.6
6.47
5.25
3.87
2.41
1.0
-0.24
-1.25
-2.07
-2.85
-3.77
-4.91
-6.23
-7.64
-9.0
-10.26
-11.47
-12.7
-14.05
-15.62
-17.44
-19.59
-22.19
-25.32
-28.93
-32.7
-36.02
-38.12
-38.22
-35.87
-31.12
-24.52
-16.93
-9.33
-2.45
3.26
7.72
11.0
13.29
14.72
15.33
15.23
14.51
13.37
12.06
10.85
9.91
9.28
8.95
8.85
8.95
9.23
9.68
10.23
10.75
11.03
10.9
10.27
9.14
7.65
5.96
4.19
2.41
0.58
-1.4
-3.63
-6.11
-8.8
-11.53
-14.09
-16.35
-18.3
-20.07
-21.88
-23.86
-25.76
-26.88
-26.03
-21.9
-13.36
0.25
18.92
41.94
67.79
94.27
118.64
138.1
150.37
154.28
150.21
139.95
126.14
111.58
98.45
87.9
80.02
74.15
69.22
64.3
58.78
52.49
45.64
38.52
31.28
24.02
16.84
10.0
3.94
-0.99
-4.73
-7.58
-10.01
-12.31
-14.45
-16.27
-17.85
-19.68
-22.55
-27.03
-32.98
-39.44
-45.04
-48.65
-49.97
-49.55
-48.32
-47.02
-45.86
-44.57
-42.83
-40.64
-38.35
-36.41
-34.99
-33.88
-32.69
-31.14
-29.3
-27.62
-26.57
-26.37
-26.82
-27.54
-28.25
-29.02
-30.23
-32.27
-35.24
-38.79
-42.2
-44.78
-46.13
-46.29
-45.65
-44.67
-43.65
-42.58
-41.17
-39.07
-36.03
-32.04
-27.26
-21.9
-16.06
-9.74
-2.91
4.29
11.57
18.64
25.36
31.79
38.0
43.79
48.71
52.06
53.24
52.09
48.95
44.68
40.3
36.65
33.98
31.93
29.73
26.67
22.48
17.47
12.31
7.65
3.69
0.22
-3.18
-6.75
-10.28
-13.34
-15.57
-17.11
-18.51
-20.45
-23.35
-27.12
-31.31
-35.38
-38.88
-41.51
-43.06
-43.4
-42.63
-41.17
-39.76
-39.22
-40.07
-42.26
-45.14
-47.71
-49.16
-49.2
-48.19
-46.89
-46.04
-46.08
-47.04
-48.65
-50.51
-52.2
-53.26
-53.17
-51.43
-47.7
-42.0
-34.76
-26.82
-19.09
-12.34
-7.02
-3.12
-0.31
1.9
3.91
5.99
8.12
10.11
11.71
12.7
13.03
12.76
12.1
11.28
10.56
10.11
10.12
10.67
11.79
13.38
15.19
16.89
18.16
18.82
18.83
18.35
17.55
16.59
15.51
14.33
13.07
11.86
10.85
10.14
9.66
9.17
8.43
7.34
6.02
4.76
3.81
3.2
2.69
1.93
0.63
-1.2
-3.34
-5.43
-7.25
-8.75
-10.11
-11.56
-13.26
-15.25
-17.55
-20.17
-23.2
-26.61
-30.2
-33.43
-35.57
-35.9
-34.0
-29.98
-24.38
-17.96
-11.42
-5.2
0.48
5.51
9.74
12.93
14.86
15.53
15.19
14.33
13.46
12.95
12.93
13.34
14.02
14.79
15.53
16.15
16.53
16.62
16.43
16.06
15.7
15.54
15.67
16.05
16.56
17.0
17.23
17.14
16.69
15.84
14.62
13.09
11.35
9.58
7.93
6.54
5.44
4.62
4.0
3.42
2.71
1.66
0.16
-1.77
-3.95
-6.08
-7.94
-9.37
-10.49
-11.56
-12.94
-14.97
-17.87
-21.67
-26.09
-30.63
-34.58
-37.13
-37.59
-35.56
-31.06
-24.56
-16.85
-8.85
-1.42
4.81
9.57
12.81
14.74
15.61
15.72
15.32
14.68
14.1
13.86
14.22
15.27
16.95
18.98
20.98
22.52
23.25
23.0
21.83
20.06
18.12
16.49
15.53
15.35
15.85
16.71
17.5
17.82
17.44
16.32
14.64
12.69
10.76
9.09
7.76
6.73
5.91
5.19
4.48
3.74
2.93
2.05
1.07
-0.0
-1.14
-2.36
-3.66
-5.13
-6.78
-8.62
-10.56
-12.47
-14.3
-16.08
-17.99
-20.27
-23.08
-26.4
-29.97
-33.32
-35.91
-37.22
-36.94
-34.99
-31.54
-26.89
-21.43
-15.56
-9.66
-4.04
1.0
5.25
8.57
10.96
12.54
13.49
14.01
14.21
14.12
13.74
13.17
12.58
12.24
12.36
13.06
14.28
15.86
17.63
19.45
21.17
22.64
23.6
23.83
23.23
21.94
20.3
18.78
17.76
17.38
17.51
17.82
17.9
17.44
16.29
14.46
12.06
9.24
6.11
2.82
-0.43
-3.34
-5.57
-6.88
-7.2
-6.73
-5.91
-5.23
-5.11
-5.74
-7.16
-9.33
-12.29
-16.06
-20.61
-25.59
-30.32
-33.85
-35.29
-34.08
-30.23
-24.33
-17.33
-10.26
-3.95
1.12
4.86
7.42
9.12
10.26
11.1
11.76
12.28
12.63
12.81
12.87
12.91
12.99
13.14
13.32
13.46
13.56
13.72
14.09
14.77
15.69
16.62
17.18
17.11
16.32
15.01
13.52
12.17
11.12
10.3
9.52
8.67
7.75
6.86
6.09
5.46
4.87
4.18
3.32
2.32
1.27
0.25
-0.7
-1.54
-2.27
-2.86
-3.37
-3.9
-4.59
-5.61
-7.04
-8.82
-10.81
-12.81
-14.69
-16.41
-18.06
-19.78
-21.75
-24.03
-26.56
-29.06
-31.07
-32.04
-31.47
-29.08
-24.88
-19.2
-12.57
-5.69
0.76
6.26
10.51
13.51
15.48
16.79
17.71
18.38
18.74
18.65
18.05
17.08
16.01
15.19
14.82
14.98
15.59
16.51
17.61
18.77
19.86
20.76
21.28
21.31
20.79
19.8
18.49
17.08
15.72
14.49
13.39
12.37
11.36
10.3
9.21
8.14
7.11
6.16
5.26
4.38
3.48
2.56
1.63
0.71
-0.23
-1.27
-2.5
-4.01
-5.75
-7.6
-9.39
-10.98
-12.34
-13.52
-14.64
-15.84
-17.25
-18.95
-21.0
-23.39
-26.01
-28.62
-30.81
-32.08
-31.92
-30.0
-26.3
-21.17
-15.19
-9.04
-3.32
1.6
5.55
8.55
10.68
12.03
12.73
12.9
12.74
12.41
12.04
11.65
11.21
10.74
10.33
10.14
10.32
10.94
11.86
12.8
13.48
13.68
13.37
12.64
11.67
10.63
9.62
8.69
7.83
6.98
6.07
5.03
3.83
2.55
1.32
0.3
-0.43
-0.87
-1.17
-1.54
-2.16
-3.16
-4.49
-6.05
-7.65
-9.14
-10.45
-11.61
-12.75
-14.04
-15.67
-17.71
-20.1
-22.64
-24.92
-26.45
-26.71
-25.34
-22.19
-17.44
-11.58
-5.23
0.92
6.32
10.63
13.73
15.67
16.63
16.82
16.49
15.88
15.19
14.55
14.03
13.63
13.28
12.98
12.72
12.58
12.66
13.0
13.56
14.26
14.95
15.5
15.85
15.96
15.78
15.27
14.39
13.16
11.71
10.23
8.92
7.87
7.07
6.36
5.6
4.71
3.74
2.8
1.99
1.35
0.79
0.24
-0.42
-1.21
-2.14
-3.16
-4.28
-5.53
-6.96
-8.57
-10.29
-12.01
-13.61
-15.06
-16.39
-17.73
-19.29
-21.17
-23.42
-25.94
-28.44
-30.51
-31.66
-31.4
-29.39
-25.59
-20.26
-13.98
-7.47
-1.38
3.82
7.89
10.84
12.73
13.7
13.89
13.47
12.64
11.63
10.66
9.87
9.35
9.1
9.09
9.3
9.69
10.22
10.88
11.63
12.46
13.33
14.17
14.88
15.34
15.42
15.11
14.47
13.63
12.69
11.69
10.58
9.33
7.94
6.53
5.27
4.31
3.71
3.35
3.01
2.49
1.74
0.81
-0.14
-0.95
-1.62
-2.28
-3.14
-4.37
-5.97
-7.79
-9.57
-11.1
-12.29
-13.25
-14.18
-15.34
-16.89
-18.97
-21.51
-24.3
-26.97
-29.02
-29.93
-29.3
-26.91
-22.88
-17.59
-11.62
-5.53
0.17
5.16
9.26
12.4
14.59
15.85
16.27
15.99
15.24
14.23
13.19
12.27
11.53
10.98
10.6
10.4
10.39
10.62
11.11
11.83
12.68
13.53
14.26
14.79
15.07
15.07
14.78
14.18
13.27
12.1
10.8
9.55
8.5
7.75
7.29
7.04
6.88
6.73
6.54
6.3
6.01
5.67
5.3
4.89
4.49
4.08
3.69
3.25
2.68
1.9
0.87
-0.37
-1.72
-3.02
-4.18
-5.13
-5.93
-6.67
-7.43
-8.29
-9.29
-10.48
-11.8
-13.05
-13.86
-13.72
-12.13
-8.78
-3.7
2.79
10.12
17.73
25.11
31.87
37.64
42.09
44.92
46.07
45.72
44.32
42.46
40.68
39.31
38.4
37.78
37.09
35.96
34.15
31.68
28.85
26.13
24.01
22.67
21.9
21.17
19.84
17.49
14.14
10.18
6.23
2.81
0.2
-1.57
-2.64
-3.15
-3.2
-2.84
-2.1
-1.13
-0.06
0.86
1.46
1.64
1.41
0.86
0.08
-0.81
-1.63
-2.03
-1.6
-0.02
2.62
5.64
7.89
8.07
5.29
-0.64
-9.1
-18.98
-28.99
-38.03
-45.25
-49.99
-51.7
-50.07
-45.19
-37.76
-29.04
-20.47
-13.21
-7.72
-3.68
-0.26
3.48
8.03
13.34
18.81
23.67
27.29
29.39
30.02
29.43
27.93
25.71
22.94
19.83
16.64
13.76
11.59
10.37
10.14
10.65
11.52
12.4
13.08
13.53
13.81
13.93
13.76
13.04
11.54
9.14
5.93
2.18
-1.79
-5.78
-9.74
-13.81
-18.11
-22.72
-27.49
-32.15
-36.36
-39.89
-42.72
-45.01
-47.01
-48.94
-50.86
-52.73
-54.42
-55.86
-57.04
-58.04
-59.02
-60.15
-61.61
-63.58
-66.12
-69.07
-72.0
-74.21
-74.9
-73.37
-69.34
-62.96
-54.86
-45.93
-37.06
-28.95
-21.98
-16.24
-11.65
-8.1
-5.5
-3.81
-2.91
-2.67
-2.82
-3.1
-3.32
-3.39
-3.3
-3.12
-2.89
-2.59
-2.14
-1.45
-0.48
0.71
1.98
3.13
3.92
4.2
3.91
3.12
2.0
0.74
-0.53
-1.71
-2.8
-3.79
-4.66
-5.42
-6.06
-6.6
-6.98
-7.17
-7.07
-6.71
-6.25
-5.97
-6.25
-7.35
-9.31
-11.94
-14.92
-17.91
-20.71
-23.34
-25.97
-28.83
-32.06
-35.64
-39.33
-42.82
-45.82
-48.35
-50.71
-53.38
-56.71
-60.65
-64.66
-67.79
-69.01
-67.38
-62.12
-52.61
-38.41
-19.66
2.57
26.01
47.65
64.58
75.11
79.3
78.87
76.23
73.42
71.36
69.84
68.13
65.69
62.58
59.37
56.67
54.71
53.17
51.41
48.78
44.97
40.06
34.47
28.72
23.18
17.99
13.13
8.58
4.46
1.13
-1.03
-1.77
-1.26
-0.08
0.9
0.86
-0.61
-3.43
-7.06
-10.77
-13.89
-16.04
-17.17
-17.46
-17.26
-16.95
-16.89
-17.37
-18.56
-20.46
-22.93
-25.71
-28.5
-31.09
-33.43
-35.67
-38.13
-41.12
-44.84
-49.16
-53.62
-57.45
-59.79
-59.9
-57.46
-52.55
-45.66
-37.51
-28.88
-20.42
-12.65
-5.92
-0.42
3.82
6.94
9.24
11.11
12.98
15.19
17.88
20.96
24.1
26.89
28.91
30.0
30.32
30.41
31.11
33.19
37.11
42.67
48.99
54.71
58.48
59.5
57.82
54.32
50.36
47.19
45.54
45.4
46.21
47.19
47.72
47.67
47.57
48.57
52.25
60.11
72.9
89.99
109.24
127.27
140.48
146.09
142.93
131.71
114.47
93.76
71.83
50.32
30.18
11.86
-4.56
-19.39
-33.36
-47.46
-62.62
-79.28
-97.07
-114.93
-131.4
-145.01
-154.46
-158.63
-156.46
-147.29
-131.25
-109.75
-85.43
-61.54
-40.83
-24.69
-12.9
-4.13
3.12
9.75
15.91
21.3
25.75
29.52
33.12
36.95
40.87
44.23
46.09
45.64
42.56
37.14
30.19
22.77
15.8
9.83
4.9
0.68
-3.35
-7.55
-12.03
-16.69
-21.29
-25.69
-29.94
-34.18
-38.48
-42.79
-46.8
-50.06
-52.16
-52.81
-51.97
-49.83
-46.73
-43.09
-39.33
-35.79
-32.67
-29.99
-27.51
-24.85
-21.63
-17.62
-12.94
-8.09
-3.83
-0.91
0.22
-0.34
-1.93
-3.49
-3.87
-2.17
2.0
8.46
16.6
25.62
34.84
44.0
53.23
62.99
73.76
85.85
99.14
113.01
126.53
138.59
148.39
155.71
161.16
166.02
171.74
179.05
187.31
194.25
196.39
190.22
173.45
146.09
110.77
72.07
35.29
4.84
-16.94
-30.2
-37.22
-41.31
-45.64
-52.39
-62.37
-75.22
-89.7
-104.05
-116.33
-124.78
-128.3
-127.0
-122.31
-116.61
-112.32
-110.91
-112.36
-115.29
-117.75
-118.13
-115.69
-110.64
-103.67
-95.63
-87.2
-79.02
-71.71
-65.93
-62.18
-60.57
-60.68
-61.7
-62.66
-62.77
-61.54
-58.83
-54.71
-49.35
-42.9
-35.57
-27.64
-19.5
-11.64
-4.62
1.07
5.01
6.98
7.15
6.23
5.39
5.99
9.04
14.72
22.24
30.08
36.61
40.69
41.91
40.48
36.81
31.1
23.27
13.16
0.93
-12.54
-25.53
-35.73
-40.95
-39.93
-32.96
-21.91
-9.6
1.31
9.31
14.43
17.77
20.51
23.11
25.09
25.5
23.8
20.31
16.22
12.9
11.11
10.68
10.64
9.77
7.31
3.22
-1.81
-6.78
-10.84
-13.68
-15.51
-16.94
-18.69
-21.28
-24.91
-29.33
-34.03
-38.22
-41.03
-41.71
-39.77
-35.22
-28.56
-20.75
-12.84
-5.73
0.12
4.72
8.33
11.23
13.47
14.77
14.74
13.12
10.02
6.04
2.1
-0.92
-2.48
-2.73
-2.48
-2.88
-4.93
-8.97
-14.49
-20.32
-25.17
-28.22
-29.55
-30.14
-31.46
-34.94
-41.61
-51.75
-64.76
-78.91
-90.99
-96.58
-91.11
-71.67
-38.82
2.86
46.07
83.46
110.43
126.47
134.26
137.44
138.35
137.25
133.3
126.21
117.32
109.22
104.24
102.94
103.76
104.03
101.54
95.6
86.99
77.15
67.27
57.96
49.39
41.64
34.72
28.48
22.44
15.99
8.82
1.37
-5.07
-8.86
-8.84
-5.03
1.28
8.06
13.48
16.67
17.97
18.66
20.27
23.89
29.73
37.04
44.47
50.64
54.7
56.45
56.15
54.19
50.93
46.84
42.7
39.78
39.41
42.33
47.97
54.22
57.94
56.04
46.72
30.22
8.7
-14.54
-36.2
-53.86
-66.42
-73.92
-77.08
-76.85
-74.23
-70.11
-65.44
-61.1
-57.79
-55.77
-54.88
-54.51
-53.94
-52.7
-50.79
-48.64
-46.92
-46.3
-47.17
-49.55
-53.07
-57.0
-60.37
-62.12
-61.36
-57.65
-51.17
-42.68
-33.25
-23.91
-15.36
-7.86
-1.41
4.07
8.55
11.92
14.04
14.91
14.74
13.92
12.87
11.93
11.27
10.94
10.95
11.33
12.13
13.38
15.06
17.03
19.05
20.82
22.05
22.47
21.94
20.44
18.14
15.32
12.37
9.62
7.26
5.33
3.71
2.23
0.69
-0.98
-2.74
-4.47
-5.97
-7.1
-7.78
-8.08
-8.15
-8.22
-8.5
-9.12
-10.08
-11.3
-12.63
-13.99
-15.4
-16.97
-18.91
-21.45
-24.76
-28.84
-33.48
-38.18
-42.16
-44.53
-44.46
-41.49
-35.74
-27.86
-18.91
-10.0
-1.97
4.72
10.0
14.04
17.0
19.01
20.13
20.47
20.21
19.62
18.94
18.3
17.66
16.98
16.25
15.6
15.28
15.5
16.28
17.44
18.63
19.5
19.83
19.57
18.79
17.57
16.0
14.19
12.29
10.52
9.09
8.07
7.38
6.76
5.97
4.89
3.59
2.29
1.16
0.25
-0.58
-1.56
-2.84
-4.47
-6.33
-8.23
-10.04
-11.79
-13.58
-15.58
-17.88
-20.54
-23.55
-26.87
-30.48
-34.2
-37.65
-40.21
-41.1
-39.67
-35.63
-29.27
-21.33
-12.85
-4.78
2.29
8.09
12.68
16.19
18.72
20.27
20.87
20.67
19.91
18.93
17.99
17.25
16.71
16.31
16.02
15.9
16.06
16.61
17.53
18.67
19.78
20.59
20.9
20.64
19.86
18.62
17.02
15.16
13.16
11.13
9.18
7.39
5.75
4.2
2.66
1.1
-0.48
-1.99
-3.4
-4.72
-6.01
-7.44
-9.1
-10.99
-12.99
-14.91
-16.6
-18.02
-19.31
-20.76
-22.72
-25.41
-28.92
-33.01
-37.22
-40.85
-43.11
-43.25
-40.83
-35.82
-28.65
-20.17
-11.36
-3.15
3.85
9.42
13.65
16.73
18.89
20.27
20.94
20.98
20.53
19.77
18.9
18.07
17.35
16.83
16.58
16.69
17.23
18.18
19.43
20.76
21.91
22.68
22.93
22.67
21.98
20.99
19.83
18.6
17.32
15.99
14.54
12.98
11.32
9.7
8.26
7.1
6.23
5.52
4.78
3.83
2.62
1.23
-0.16
-1.37
-2.36
-3.25
-4.29
-5.72
-7.64
-9.95
-12.46
-14.94
-17.24
-19.37
-21.46
-23.69
-26.29
-29.42
-33.16
-37.38
-41.7
-45.47
-47.86
-48.13
-45.77
-40.72
-33.43
-24.66
-15.4
-6.54
1.21
7.43
11.99
14.98
16.66
17.36
17.4
17.05
16.52
15.96
15.48
15.17
15.08
15.17
15.42
15.78
16.2
16.69
17.27
17.95
18.7
19.4
19.87
19.97
19.65
18.91
17.87
16.7
15.51
14.36
13.25
12.16
11.03
9.81
8.46
6.97
5.32
3.56
1.77
0.02
-1.61
-3.13
-4.57
-6.0
-7.46
-8.96
-10.53
-12.2
-14.03
-16.06
-18.29
-20.68
-23.21
-25.89
-28.83
-32.08
-35.53
-38.77
-41.15
-41.95
-40.56
-36.79
-30.89
-23.41
-15.09
-6.66
1.28
8.21
13.76
17.73
20.11
21.14
21.22
20.74
20.0
19.17
18.32
17.52
16.89
16.58
16.65
17.1
17.83
18.73
19.75
20.87
22.06
23.14
23.86
23.96
23.26
21.8
19.84
17.7
15.71
14.01
12.62
11.38
10.15
8.86
7.52
6.24
5.08
4.05
3.05
1.95
0.71
-0.64
-1.97
-3.14
-4.14
-5.08
-6.19
-7.72
-9.74
-12.18
-14.81
-17.38
-19.75
-21.96
-24.17
-26.62
-29.55
-33.07
-37.1
-41.34
-45.21
-47.96
-48.77
-47.01
-42.47
-35.43
-26.67
-17.22
-8.1
-0.09
6.44
11.42
15.03
17.52
19.13
20.04
20.42
20.44
20.26
20.01
19.78
19.63
19.53
19.51
19.58
19.81
20.25
20.92
21.78
22.69
23.51
24.07
24.25
23.96
23.21
22.07
20.72
19.3
17.94
16.67
15.44
14.14
12.72
11.17
9.59
8.14
6.91
5.9
5.02
4.09
3.02
1.77
0.46
-0.81
-1.96
-3.03
-4.17
-5.56
-7.33
-9.48
-11.91
-14.41
-16.81
-19.0
-20.98
-22.88
-24.9
-27.32
-30.34
-34.01
-38.16
-42.25
-45.53
-47.11
-46.22
-42.53
-36.21
-27.97
-18.84
-9.9
-1.94
4.6
9.64
13.34
15.9
17.46
18.11
17.93
17.11
15.97
14.83
13.99
13.59
13.56
13.78
14.08
14.47
15.02
15.86
17.05
18.49
19.93
21.08
21.68
21.63
21.02
19.99
18.74
17.42
16.16
14.96
13.84
12.73
11.57
10.27
8.8
7.19
5.55
3.98
2.57
1.31
0.14
-1.1
-2.54
-4.24
-6.19
-8.3
-10.44
-12.49
-14.36
-16.06
-17.66
-19.41
-21.61
-24.58
-28.46
-33.11
-37.99
-42.24
-44.85
-44.98
-42.2
-36.65
-29.0
-20.22
-11.3
-3.04
4.11
9.95
14.54
17.97
20.34
21.75
22.29
22.08
21.33
20.24
19.01
17.82
16.8
16.06
15.67
15.7
16.2
17.17
18.52
20.05
21.48
22.48
22.85
22.5
21.51
20.1
18.53
17.0
15.6
14.38
13.3
12.29
11.27
10.2
9.08
7.95
6.92
6.07
5.4
4.76
3.99
2.94
1.59
0.0
-1.67
-3.33
-4.99
-6.77
-8.77
-11.02
-13.46
-15.91
-18.22
-20.33
-22.29
-24.21
-26.27
-28.65
-31.46
-34.74
-38.4
-42.12
-45.35
-47.35
-47.38
-44.89
-39.76
-32.37
-23.52
-14.23
-5.46
2.09
8.09
12.51
15.54
17.42
18.41
18.67
18.41
17.82
17.12
16.49
16.1
15.97
16.01
16.12
16.17
16.17
16.23
16.54
17.19
18.16
19.25
20.12
20.5
20.23
19.4
18.22
16.94
15.72
14.58
13.4
12.1
10.64
9.15
7.8
6.76
6.11
5.79
5.63
5.45
5.07
4.36
3.31
2.03
0.67
-0.61
-1.72
-2.72
-3.8
-5.2
-7.06
-9.37
-11.96
-14.61
-17.12
-19.41
-21.53
-23.58
-25.65
-27.85
-30.31
-33.16
-36.41
-39.85
-42.9
-44.71
-44.42
-41.47
-35.85
-28.15
-19.38
-10.66
-2.86
3.52
8.43
12.06
14.72
16.65
17.94
18.59
18.59
17.99
16.99
15.87
14.92
