-17.06
-18.61
-20.2
-22.08
-24.48
-27.51
-31.07
-34.84
-38.2
-40.46
-40.95
-39.26
-35.37
-29.66
-22.8
-15.52
-8.5
-2.21
3.04
7.15
10.13
12.07
13.22
13.82
14.14
14.35
14.56
14.74
14.89
14.97
14.98
14.96
14.97
15.12
15.51
16.24
17.34
18.72
20.13
21.25
21.76
21.49
20.5
19.04
17.44
15.98
14.78
13.71
12.6
11.22
9.52
7.54
5.48
3.51
1.78
0.3
-1.03
-2.35
-3.82
-5.48
-7.26
-8.97
-10.45
-11.62
-12.58
-13.58
-14.9
-16.77
-19.27
-22.33
-25.78
-29.32
-32.6
-35.11
-36.32
-35.75
-33.17
-28.7
-22.81
-16.15
-9.39
-3.03
2.66
7.58
11.67
14.89
17.16
18.42
18.71
18.2
17.19
16.02
15.03
14.48
14.46
14.96
15.82
16.82
17.76
18.51
19.02
19.31
19.43
19.41
19.22
18.82
18.16
17.27
16.19
15.0
13.73
12.41
10.99
9.48
7.85
6.15
4.41
2.72
1.16
-0.19
-1.27
-2.2
-3.14
-4.31
-5.85
-7.73
-9.77
-11.73
-13.43
-14.84
-16.1
-17.48
-19.27
-21.71
-24.88
-28.72
-32.85
-36.68
-39.46
-40.43
-39.1
-35.41
-29.74
-22.82
-15.44
-8.29
-1.81
3.79
8.45
12.16
14.91
16.74
17.75
18.13
18.12
17.89
17.55
17.1
16.5
15.81
15.15
14.78
14.92
15.64
16.85
18.31
19.71
20.81
21.49
21.74
21.6
21.11
20.26
19.08
17.61
15.98
14.33
12.77
11.39
10.17
9.06
7.98
6.88
5.74
4.55
3.29
1.98
0.64
-0.67
-1.9
-3.04
-4.15
-5.33
-6.75
-8.51
-10.63
-13.0
-15.46
-17.84
-20.05
-22.11
-24.17
-26.43
-29.03
-31.92
-34.81
-37.17
-38.34
-37.71
-35.0
-30.26
-23.97
-16.84
-9.58
-2.81
3.1
7.94
11.68
14.33
15.96
16.66
16.62
16.05
15.17
14.23
13.45
12.97
12.87
13.13
13.63
14.25
14.89
15.56
16.29
17.12
18.0
18.72
19.05
18.79
17.95
16.75
15.49
14.45
13.7
13.15
12.56
11.75
10.64
9.31
7.86
6.44
5.07
3.76
2.43
1.07
-0.35
-1.85
-3.45
-5.22
-7.16
-9.27
-11.44
-13.57
-15.56
-17.39
-19.18
-21.1
-23.34
-25.96
-28.84
-31.68
-33.99
-35.22
-34.85
-32.58
-28.36
-22.51
-15.6
-8.39
-1.59
4.25
8.83
12.12
14.21
15.33
15.67
15.46
14.9
14.22
13.58
13.08
12.77
12.6
12.52
12.52
12.64
12.99
13.63
14.53
15.54
16.44
17.02
17.19
17.01
16.61
16.15
15.68
15.14
14.36
13.19
11.62
9.78
7.97
6.49
5.55
5.14
5.08
5.04
4.78
4.2
3.35
2.42
1.53
0.7
-0.22
-1.38
-2.93
-4.88
-7.14
-9.55
-11.97
-14.3
-16.46
-18.42
-20.18
-21.85
-23.61
-25.74
-28.44
-31.71
-35.21
-38.3
-40.19
-40.16
-37.85
-33.35
-27.18
-20.12
-12.95
-6.3
-0.52
4.26
8.1
11.07
13.28
14.82
15.75
16.16
16.12
15.71
15.06
14.26
13.51
12.96
12.79
13.07
13.77
14.74
15.77
16.61
17.13
17.28
17.13
16.79
16.39
15.96
15.52
15.03
14.4
13.6
12.59
11.37
9.99
8.55
7.16
5.89
4.8
3.82
2.87
1.87
0.81
-0.28
-1.37
-2.45
-3.6
-4.93
-6.49
-8.24
-10.07
-11.83
-13.45
-14.94
-16.38
-17.9
-19.56
-21.38
-23.34
-25.47
-27.78
-30.26
-32.69
-34.63
-35.47
-34.6
-31.68
-26.75
-20.33
-13.2
-6.21
0.04
5.23
9.32
12.44
14.72
16.21
16.92
16.91
16.3
15.32
14.25
13.29
12.58
12.12
11.83
11.64
11.52
11.49
11.62
11.97
12.51
13.15
13.72
14.05
13.98
13.46
12.51
11.22
9.77
8.31
7.0
5.86
4.86
3.88
2.75
1.43
-0.03
-1.47
-2.72
-3.66
-4.39
-5.08
-5.95
-7.13
-8.6
-10.2
-11.76
-13.23
-14.69
-16.36
-18.44
-21.08
-24.28
-27.83
-31.31
-34.15
-35.7
-35.43
-33.02
-28.6
-22.64
-15.89
-9.08
-2.77
2.75
7.42
11.31
14.46
16.81
18.3
18.89
18.66
17.79
16.59
15.36
14.32
13.6
13.2
13.08
13.18
13.5
14.01
14.7
15.51
16.28
16.89
17.19
17.14
16.71
15.96
14.96
13.75
12.44
11.1
9.83
8.69
7.66
6.73
5.82
4.9
3.95
2.94
1.87
0.77
-0.3
-1.26
-2.05
-2.69
-3.33
-4.16
-5.32
-6.88
-8.71
-10.66
-12.57
-14.41
-16.23
-18.1
-20.14
-22.41
-24.96
-27.82
-30.91
-33.94
-36.42
-37.73
-37.27
-34.71
-30.15
-24.01
-16.99
-9.83
-3.18
2.51
7.0
10.22
12.28
13.39
13.84
13.93
13.88
13.83
13.8
13.77
13.71
13.61
13.53
13.54
13.7
14.08
14.69
15.51
16.42
17.3
17.99
18.35
18.31
17.86
17.05
15.97
14.7
13.32
11.9
10.51
9.19
7.98
6.91
5.95
5.07
4.23
3.36
2.4
1.34
0.17
-1.05
-2.25
-3.38
-4.41
-5.4
-6.44
-7.67
-9.18
-11.02
-13.12
-15.36
-17.59
-19.72
-21.76
-23.78
-25.95
-28.36
-30.96
-33.47
-35.44
-36.29
-35.51
-32.82
-28.32
-22.44
-15.88
-9.35
-3.38
1.77
6.08
9.68
12.63
14.95
16.53
17.32
17.31
16.67
15.64
14.53
13.59
12.97
12.7
12.69
12.83
13.05
13.36
13.83
14.49
15.32
16.18
16.84
17.1
16.84
16.05
14.86
13.38
11.76
10.1
8.48
6.94
5.48
4.09
2.75
1.47
0.23
-0.93
-2.05
-3.17
-4.35
-5.6
-6.92
-8.22
-9.47
-10.69
-11.94
-13.29
-14.84
-16.58
-18.52
-20.69
-23.16
-26.0
-29.17
-32.41
-35.21
-36.88
-36.81
-34.63
-30.38
-24.52
-17.77
-10.88
-4.39
1.38
6.32
10.44
13.69
16.03
17.42
17.92
17.71
17.07
16.29
15.56
15.0
14.63
14.45
14.47
14.77
15.37
16.29
17.46
18.75
19.96
20.92
21.47
21.53
21.05
20.07
18.69
17.11
15.51
14.07
12.88
11.9
11.02
10.14
9.15
8.02
6.76
5.4
4.04
2.74
1.6
0.62
-0.27
-1.21
-2.32
-3.65
-5.18
-6.81
-8.5
-10.23
-12.02
-13.88
-15.73
-17.47
-19.05
-20.52
-22.11
-24.07
-26.56
-29.57
-32.83
-35.87
-38.12
-39.04
-38.2
-35.38
-30.69
-24.53
-17.53
-10.46
-3.97
1.5
5.82
9.12
11.64
13.59
15.07
16.1
16.6
16.59
16.12
15.3
14.32
13.33
12.52
12.05
12.06
12.58
13.52
14.74
15.97
17.01
17.72
18.05
18.04
17.73
17.17
16.4
15.47
14.39
13.26
12.13
11.0
9.91
8.82
7.69
6.5
5.25
3.95
2.66
1.45
0.37
-0.56
-1.42
-2.34
-3.47
-4.91
-6.69
-8.7
-10.73
-12.59
-14.14
-15.39
-16.45
-17.57
-19.06
-21.16
-24.03
-27.59
-31.47
-34.98
-37.34
-37.82
-36.0
-31.87
-25.87
-18.69
-11.14
-3.9
2.56
7.95
12.19
15.25
17.23
18.19
18.3
17.77
16.87
15.87
15.03
14.48
14.24
14.2
14.21
14.15
14.01
13.91
14.0
14.41
15.11
15.93
16.6
16.9
16.7
16.03
15.02
13.85
12.69
11.64
10.75
10.03
9.43
8.83
8.06
6.99
5.52
3.73
1.78
-0.05
-1.54
-2.6
-3.35
-4.03
-4.94
-6.25
-8.0
-10.08
-12.3
-14.5
-16.63
-18.66
-20.57
-22.35
-24.03
-25.71
-27.59
-29.84
-32.54
-35.41
-37.89
-39.2
-38.63
-35.82
-30.91
-24.45
-17.2
-9.94
-3.24
2.55
7.28
10.95
13.65
15.5
16.64
17.24
17.41
17.22
16.68
15.87
14.96
14.17
13.75
13.86
14.5
15.52
16.7
17.84
18.84
19.64
20.22
20.52
20.45
19.92
18.92
17.5
15.8
13.97
12.15
10.41
8.84
7.54
6.57
6.0
5.73
5.59
5.33
4.72
3.64
2.13
0.37
-1.36
-2.85
-3.99
-4.83
-5.56
-6.39
-7.48
-8.89
-10.59
-12.52
-14.58
-16.71
-18.88
-21.1
-23.45
-26.02
-28.9
-32.08
-35.3
-38.06
-39.69
-39.6
-37.42
-33.24
-27.48
-20.81
-13.92
-7.39
-1.6
3.27
7.16
10.14
12.34
13.92
15.03
15.78
16.23
16.45
16.49
16.42
16.32
16.23
16.21
16.34
16.7
17.33
18.17
19.1
19.89
20.37
20.44
20.1
19.44
18.51
17.4
16.15
14.86
13.64
12.55
11.6
10.65
9.54
8.15
6.47
4.63
2.82
1.19
-0.2
-1.43
-2.58
-3.79
-5.1
-6.54
-8.06
-9.64
-11.24
-12.82
-14.39
-15.94
-17.56
-19.34
-21.4
-23.83
-26.62
-29.63
-32.52
-34.79
-35.82
-35.09
-32.29
-27.5
-21.13
-13.89
-6.51
0.36
6.31
11.14
14.82
17.43
19.08
19.86
19.94
19.49
18.7
17.83
17.04
16.48
16.19
16.12
16.23
16.44
16.73
17.07
17.44
17.77
17.95
17.91
17.6
17.04
16.3
15.48
14.61
13.71
12.77
11.75
10.68
9.59
8.55
7.59
6.7
5.82
4.9
3.95
3.05
2.26
1.59
0.95
0.15
-0.96
-2.44
-4.16
-5.94
-7.6
-9.13
-10.63
-12.29
-14.22
-16.4
-18.75
-21.19
-23.75
-26.59
-29.81
-33.35
-36.81
-39.58
-40.95
-40.42
-37.83
-33.38
-27.52
-20.84
-13.88
-7.16
-1.06
4.14
8.29
11.43
13.68
15.22
16.21
16.75
16.92
16.82
16.58
16.3
16.08
15.93
15.81
15.7
15.6
15.55
15.58
15.69
15.83
15.95
15.98
15.89
15.63
15.17
14.47
13.58
12.54
11.45
10.4
9.45
8.63
7.96
7.36
6.78
6.13
5.4
4.56
3.67
2.77
1.87
0.93
-0.09
-1.22
-2.48
-3.83
-5.24
-6.68
-8.15
-9.67
-11.26
-12.89
-14.55
-16.25
-18.04
-20.03
-22.34
-25.03
-28.05
-31.13
-33.78
-35.41
-35.43
-33.54
-29.71
-24.33
-17.96
-11.3
-4.91
0.79
5.59
9.43
12.29
14.2
15.23
15.51
15.21
14.6
13.9
13.3
12.93
12.8
12.92
13.25
13.76
14.42
15.19
16.01
16.81
17.48
17.9
17.92
17.43
16.38
14.83
12.98
11.06
9.32
7.87
6.69
5.6
4.44
3.08
1.55
0.02
-1.34
-2.4
-3.13
-3.67
-4.22
-4.99
-6.15
-7.68
-9.48
-11.33
-13.05
-14.59
-16.04
-17.68
-19.8
-22.56
-25.89
-29.44
-32.68
-35.05
-36.03
-35.34
-32.88
-28.75
-23.25
-16.86
-10.13
-3.63
2.16
6.96
10.7
13.46
15.36
16.51
16.99
16.89
16.38
15.71
15.12
14.82
14.87
15.25
15.84
16.54
17.27
17.99
18.68
19.29
19.79
20.13
20.25
20.13
19.73
19.05
18.12
17.01
15.76
14.44
13.08
11.7
10.32
8.9
7.45
5.96
4.44
2.99
1.68
0.6
-0.27
-1.02
-1.82
-2.81
-4.07
-5.6
-7.26
-8.95
-10.62
-12.29
-14.04
-15.96
-18.08
-20.39
-22.94
-25.77
-28.93
-32.4
-35.91
-38.93
-40.8
-40.82
-38.6
-34.17
-28.04
-20.98
-13.83
-7.17
-1.3
3.78
8.14
11.82
14.74
16.77
17.85
18.09
17.79
17.31
16.95
16.81
16.78
16.67
16.35
15.82
15.29
14.96
15.05
15.56
16.39
17.27
17.95
18.21
17.98
17.26
16.15
14.81
13.42
12.09
10.86
9.71
8.56
7.36
6.15
4.95
3.84
2.82
1.83
0.82
-0.23
-1.32
-2.47
-3.71
-5.1
-6.68
-8.43
-10.24
-11.99
-13.58
-15.04
-16.47
-18.03
-19.86
-22.01
-24.47
-27.1
-29.68
-31.84
-33.13
-33.12
-31.51
-28.28
-23.67
-18.12
-12.11
-6.07
-0.37
4.74
9.04
12.41
14.82
16.34
17.12
17.28
16.95
16.26
15.33
14.32
13.4
12.71
12.28
12.1
12.15
12.45
13.05
13.98
15.13
16.3
17.15
17.44
17.05
16.07
14.74
13.36
12.16
11.26
10.6
10.03
9.33
8.33
6.98
5.35
3.61
1.91
0.37
-0.98
-2.19
-3.34
-4.47
-5.64
-6.93
-8.39
-10.08
-12.01
-14.11
-16.26
-18.39
-20.5
-22.75
-25.37
-28.42
-31.74
-34.83
-36.94
-37.36
-35.61
-31.68
-25.99
-19.26
-12.22
-5.48
0.57
5.78
10.06
13.4
15.8
17.33
18.09
18.24
17.98
17.48
16.89
16.29
15.77
15.4
15.21
15.24
15.48
15.89
16.43
17.11
17.87
18.62
19.2
19.41
19.08
18.19
16.87
15.33
13.8
12.39
11.09
9.84
8.59
7.4
6.36
5.54
4.92
4.41
3.84
3.1
2.14
1.0
-0.23
-1.49
-2.73
-4.0
-5.39
-6.99
-8.81
-10.74
-12.61
-14.19
-15.4
-16.38
-17.37
-18.72
-20.61
-23.09
-25.99
-29.05
-31.93
-34.27
-35.66
-35.67
-33.96
-30.36
-25.02
-18.42
-11.2
-4.04
2.54
8.23
12.96
16.71
19.57
21.68
23.25
24.56
25.89
27.38
28.94
30.31
31.15
31.35
31.19
31.29
32.41
35.02
39.0
43.62
47.8
50.59
51.65
51.43
51.0
51.56
53.85
57.84
62.64
66.96
69.55
69.72
67.47
63.51
58.93
54.88
52.19
50.78
49.15
44.02
30.69
4.38
-37.57
-93.69
-157.72
-219.96
-270.49
-302.7
-315.56
-313.32
-302.97
-290.87
-280.28
-270.88
-259.99
-244.44
-221.65
-189.78
-147.67
-95.36
-35.33
26.52
81.21
119.2
133.77
123.9
94.6
54.89
14.37
-19.54
-42.53
-52.63
-49.04
-31.63
-1.64
37.42
79.71
118.28
147.13
163.03
165.91
158.18
143.57
125.86
108.31
93.46
83.04
77.74
77.18
80.1
84.74
89.46
93.05
94.84
94.52
92.0
87.42
81.36
74.91
69.48
66.32
65.97
68.02
71.31
74.49
76.48
76.78
75.39
72.53
68.34
62.72
55.45
46.32
35.31
22.62
8.69
-5.87
-20.25
-33.62
-45.16
-54.3
-60.72
-64.46
-65.78
-65.17
-63.17
-60.39
-57.36
-54.53
-52.08
-49.95
-47.81
-45.18
-41.62
-36.8
-30.63
-23.21
-14.75
-5.48
4.39
14.71
25.29
35.81
45.88
55.01
62.82
69.12
74.07
78.14
82.05
86.56
92.21
99.08
106.64
113.73
118.85
120.49
117.48
109.22
95.7
77.48
55.55
31.31
6.5
-16.88
-36.81
-51.59
-60.12
-62.15
-58.24
-49.63
-38.03
-25.34
-13.4
-3.66
3.1
7.07
9.39
11.78
15.88
22.5
31.14
39.91
46.06
47.01
41.43
29.89
14.82
-0.49
-13.32
-22.66
-29.55
-36.38
-45.63
-58.66
-75.34
-94.4
-114.27
-133.88
-152.59
-169.81
-184.38
-194.57
-198.58
-195.39
-185.38
-170.42
-153.25
-136.64
-122.56
-111.76
-103.84
-97.65
-91.85
-85.42
-77.93
-69.61
-61.1
-53.07
-45.86
-39.37
-33.17
-26.76
-19.85
-12.56
-5.29
1.41
7.16
11.9
15.86
19.4
22.84
26.27
29.54
32.37
34.49
35.74
36.12
35.8
34.99
33.89
32.61
31.19
29.68
28.09
26.46
24.91
23.48
22.22
21.12
20.11
19.07
17.95
16.68
15.28
13.77
12.19
10.56
8.88
7.14
5.34
3.59
2.07
1.08
0.9
1.73
3.54
6.08
8.94
11.66
13.9
15.57
16.7
17.42
17.82
17.91
17.63
16.96
15.96
14.75
13.52
12.42
11.54
10.92
10.59
10.54
10.82
11.43
12.27
13.21
13.99
14.42
14.37
13.86
13.04
12.12
11.29
10.64
10.14
9.69
9.18
8.57
7.85
7.13
6.48
5.98
5.65
5.49
5.5
5.63
5.8
5.87
5.68
5.07
3.97
2.45
0.69
-1.05
-2.54
-3.62
-4.27
-4.53
-4.58
-4.63
-4.9
-5.62
-6.89
-8.69
-10.8
-12.9
-14.6
-15.61
-15.74
-14.98
-13.41
-11.23
-8.72
-6.13
-3.75
-1.75
-0.22
0.89
1.75
2.48
3.21
3.89
4.43
4.74
4.78
4.62
4.41
4.3
4.39
4.67
5.08
5.55
6.05
6.61
7.25
7.96
8.65
9.23
9.61
9.71
9.55
9.18
8.67
8.12
7.6
7.15
6.75
6.32
5.78
5.1
4.31
3.51
2.79
2.2
1.7
1.21
0.7
0.15
-0.42
-1.02
-1.68
-2.49
-3.47
-4.56
-5.64
-6.57
-7.27
-7.82
-8.4
-9.2
-10.36
-11.88
-13.61
-15.3
-16.61
-17.25
-17.04
-15.94
-14.07
-11.68
-9.0
-6.22
-3.49
-0.88
1.52
3.63
5.37
6.67
7.55
8.08
8.38
8.61
8.87
9.17
9.44
9.56
9.45
9.15
8.76
8.43
8.25
8.19
8.15
8.01
7.7
7.27
6.84
6.48
6.23
6.03
5.81
5.51
5.12
4.64
4.08
3.45
2.78
2.11
1.52
1.03
0.62
0.23
-0.25
-0.9
-1.75
-2.76
-3.81
-4.81
-5.69
-6.44
-7.14
-7.88
-8.81
-10.07
-11.74
-13.77
-15.95
-17.89
-19.13
-19.27
-18.14
-15.84
-12.75
-9.33
-6.01
-3.04
-0.49
1.66
3.41
4.73
5.57
5.96
5.99
5.91
5.92
6.11
6.47
6.84
7.09
7.19
7.19
7.24
7.44
7.84
8.36
8.84
9.13
9.12
8.84
8.37
7.83
7.35
6.96
6.61
6.22
5.72
5.08
4.33
3.51
2.65
1.76
0.87
0.02
-0.7
-1.22
-1.54
-1.72
-1.9
-2.2
-2.7
-3.35
-4.04
-4.65
-5.11
-5.43
-5.7
-6.01
-6.41
-6.9
-7.47
-8.09
-8.83
-9.8
-11.1
-12.75
-14.6
-16.32
-17.49
-17.74
-16.89
-14.97
-12.26
-9.11
-5.86
-2.78
-0.05
2.26
4.13
5.59
6.7
7.52
8.15
8.63
9.0
9.22
9.26
9.11
8.85
8.6
8.53
8.76
9.32
10.12
10.98
11.7
12.13
12.26
12.12
11.77
11.26
10.64
9.93
9.23
8.6
8.09
7.68
7.27
6.79
6.17
5.46
4.74
4.13
3.66
3.33
3.07
2.8
2.49
2.12
1.71
1.25
0.69
-0.05
-1.03
-2.25
-3.6
-4.99
-6.31
-7.63
-9.07
-10.77
-12.79
-15.01
-17.13
-18.8
-19.71
-19.68
-18.65
-16.74
-14.1
-10.98
-7.67
-4.45
-1.55
0.89
2.87
4.42
5.61
6.44
6.89
6.98
6.78
6.44
6.13
5.97
6.01
6.23
6.53
6.88
7.24
7.6
7.96
8.26
8.43
8.38
8.09
7.62
7.07
6.54
6.06
5.6
5.06
4.39
3.63
2.9
2.32
1.96
1.79
1.71
1.6
1.39
1.07
0.7
0.29
-0.18
-0.79
-1.61
-2.68
-3.92
-5.24
-6.51
-7.68
-8.78
-9.94
-11.31
-12.92
-14.63
-16.12
-16.97
-16.82
-15.5
-13.08
-9.84
-6.2
-2.56
0.81
3.71
6.04
7.74
8.8
9.23
9.16
8.76
8.25
7.8
7.49
7.32
7.2
7.09
6.94
6.78
6.61
6.5
6.53
6.77
7.28
8.02
8.83
9.46
9.66
9.31
8.48
7.41
6.36
5.52
4.93
4.49
4.09
3.66
3.19
2.74
2.33
1.98
1.66
1.34
0.98
0.51
-0.09
-0.87
-1.77
-2.71
-3.6
-4.39
-5.11
-5.82
-6.6
-7.49
-8.5
-9.67
-11.1
-12.88
-15.04
-17.42
-19.64
-21.22
-21.72
-20.94
-18.92
-15.92
-12.32
-8.51
-4.84
-1.58
1.07
3.06
4.46
5.41
6.09
6.6
6.97
7.16
7.16
6.95
6.6
6.18
5.81
5.61
5.69
6.12
6.85
7.77
8.66
9.36
9.76
9.85
9.7
9.33
8.79
8.11
7.38
6.73
6.28
6.06
5.99
5.91
5.64
5.1
4.31
3.45
2.68
2.14
1.86
1.7
1.55
1.25
0.78
0.22
-0.36
-0.87
-1.33
-1.87
-2.6
-3.61
-4.83
-6.13
-7.34
-8.38
-9.29
-10.22
-11.29
-12.53
-13.85
-15.0
-15.73
-15.81
-15.13
-13.69
-11.58
-8.97
-6.05
-3.1
-0.37
1.92
3.65
4.85
5.61
6.08
6.35
6.47
6.45
6.3
6.08
5.87
5.75
5.78
5.97
6.28
6.69
7.19
7.76
8.39
9.01
9.51
9.77
9.69
9.25
8.52
7.64
6.79
6.12
5.63
5.25
4.84
4.3
3.57
2.72
1.88
1.19
0.78
0.71
0.94
1.38
1.82
2.03
1.86
1.24
0.29
-0.86
-2.02
-3.11
-4.09
-5.01
-5.92
-6.91
-8.1
-9.63
-11.59
-13.92
-16.36
-18.46
-19.73
-19.82
-18.61
-16.28
-13.16
-9.62
-6.01
-2.6
0.45
3.01
5.02
6.45
7.3
7.63
7.57
7.27
6.9
6.61
6.43
6.33
6.23
6.06
5.84
5.68
5.68
5.92
6.37
6.91
7.38
7.66
7.71
7.59
7.37
7.13
6.91
6.71
6.47
6.18
5.81
5.35
4.84
4.33
3.82
3.33
2.86
2.42
2.02
1.75
1.64
1.72
1.92
2.14
2.2
1.97
1.37
0.41
-0.83
-2.23
-3.67
-5.0
-6.17
-7.19
-8.17
-9.26
-10.58
