-15.45
-16.52
-17.03
-16.79
-15.69
-13.81
-11.3
-8.4
-5.41
-2.58
-0.11
1.9
3.47
4.73
5.78
6.65
7.27
7.52
7.37
6.92
6.42
6.18
6.34
6.88
7.59
8.24
8.68
8.95
9.19
9.49
9.88
10.29
10.57
10.61
10.34
9.81
9.1
8.35
7.68
7.17
6.85
6.67
6.54
6.37
6.12
5.8
5.47
5.16
4.87
4.56
4.15
3.62
2.99
2.34
1.71
1.14
0.57
-0.08
-0.9
-1.94
-3.15
-4.41
-5.65
-6.81
-7.91
-9.02
-10.2
-11.5
-12.91
-14.45
-16.1
-17.78
-19.33
-20.52
-21.03
-20.61
-19.21
-16.93
-14.07
-10.96
-7.91
-5.08
-2.52
-0.29
1.57
3.01
3.94
4.36
4.39
4.22
4.04
4.01
4.18
4.51
4.9
5.3
5.7
6.09
6.49
6.9
7.3
7.64
7.89
8.02
8.01
7.87
7.6
7.25
6.86
6.49
6.12
5.74
5.28
4.75
4.19
3.7
3.34
3.12
2.97
2.8
2.5
2.07
1.58
1.09
0.6
0.07
-0.59
-1.45
-2.46
-3.51
-4.46
-5.22
-5.83
-6.43
-7.24
-8.43
-10.11
-12.24
-14.65
-17.04
-19.03
-20.23
-20.29
-19.08
-16.67
-13.37
-9.68
-6.1
-2.98
-0.52
1.3
2.61
3.52
4.12
4.46
4.58
4.58
4.52
4.46
4.37
4.2
3.91
3.52
3.13
2.92
3.01
3.49
4.29
5.26
6.22
6.94
7.26
7.14
6.65
5.99
5.35
4.91
4.71
4.7
4.73
4.68
4.49
4.2
3.89
3.62
3.37
3.09
2.71
2.21
1.65
1.16
0.84
0.71
0.68
0.57
0.23
-0.44
-1.42
-2.63
-3.95
-5.29
-6.55
-7.63
-8.51
-9.15
-9.61
-10.06
-10.7
-11.78
-13.4
-15.47
-17.65
-19.47
-20.41
-20.09
-18.46
-15.74
-12.43
-9.01
-5.89
-3.26
-1.11
0.65
2.11
3.28
4.13
4.63
4.86
4.93
4.99
5.13
5.38
5.7
6.05
6.45
6.9
7.47
8.12
8.83
9.54
10.17
10.7
11.08
11.3
11.31
11.13
10.83
10.52
10.3
10.22
10.18
10.03
9.64
8.98
8.16
7.37
6.78
6.47
6.36
6.3
6.1
5.66
4.98
4.23
3.57
3.14
2.97
2.93
2.83
2.48
1.77
0.7
-0.63
-2.09
-3.51
-4.82
-5.99
-7.05
-8.08
-9.16
-10.39
-11.82
-13.43
-15.1
-16.63
-17.79
-18.37
-18.21
-17.24
-15.53
-13.21
-10.51
-7.68
-4.94
-2.5
-0.44
1.23
2.54
3.56
4.32
4.85
5.14
5.21
5.13
5.02
4.96
5.0
5.18
5.47
5.9
6.49
7.21
8.01
8.76
9.35
9.71
9.82
9.75
9.57
9.33
9.03
8.66
8.24
7.82
7.42
7.08
6.72
6.32
5.83
5.28
4.73
4.24
3.82
3.44
3.1
2.73
2.37
2.02
1.67
1.29
0.86
0.35
-0.25
-0.91
-1.69
-2.61
-3.73
-5.12
-6.79
-8.69
-10.71
-12.67
-14.39
-15.69
-16.46
-16.66
-16.31
-15.41
-13.94
-11.88
-9.24
-6.13
-2.79
0.48
3.41
5.83
7.64
8.78
9.18
8.78
7.6
5.84
3.94
2.34
1.41
1.18
1.46
1.9
2.27
2.54
2.86
3.42
4.3
5.41
6.49
7.35
7.88
8.07
8.02
7.82
7.52
7.14
6.72
6.32
6.01
5.85
5.85
5.97
6.12
6.23
6.2
5.98
5.56
4.93
4.19
3.45
2.84
2.42
2.17
1.96
1.63
1.05
0.18
-0.91
-2.08
-3.19
-4.15
-4.94
-5.62
-6.26
-6.94
-7.69
-8.55
-9.58
-10.84
-12.39
-14.2
-16.11
-17.8
-18.92
-19.14
-18.28
-16.44
-13.85
-10.91
-7.92
-5.13
-2.66
-0.57
1.14
2.47
3.4
3.98
4.25
4.26
4.08
3.77
3.4
3.08
2.91
2.99
3.38
4.05
4.92
5.87
6.79
7.6
8.25
8.7
8.92
8.93
8.81
8.61
8.4
8.21
7.99
7.69
7.22
6.58
5.83
5.1
4.53
4.18
3.98
3.8
3.51
3.06
2.53
2.06
1.77
1.65
1.58
1.43
1.13
0.67
0.13
-0.47
-1.19
-2.12
-3.32
-4.74
-6.22
-7.58
-8.69
-9.58
-10.37
-11.27
-12.45
-13.94
-15.65
-17.31
-18.58
-19.09
-18.65
-17.17
-14.83
-11.93
-8.81
-5.78
-3.04
-0.69
1.26
2.82
3.98
4.77
5.2
5.35
5.33
5.27
5.22
5.21
5.2
5.13
5.06
5.05
5.24
5.7
6.43
7.29
8.1
8.72
9.1
9.26
9.24
9.09
8.79
8.35
7.77
7.13
6.51
5.97
5.53
5.11
4.64
4.03
3.31
2.59
2.04
1.77
1.79
1.97
2.1
1.95
1.36
0.41
-0.76
-1.91
-2.9
-3.69
-4.41
-5.23
-6.26
-7.55
-9.08
-10.78
-12.64
-14.61
-16.63
-18.48
-19.91
-20.64
-20.52
-19.51
-17.76
-15.43
-12.73
-9.8
-6.8
-3.92
-1.37
0.73
2.31
3.43
4.21
4.76
5.13
5.35
5.41
5.31
5.11
4.9
4.78
4.85
5.18
5.77
6.56
7.41
8.19
8.77
9.1
9.2
9.1
8.86
8.54
8.18
7.83
7.52
7.21
6.82
6.3
5.63
4.89
4.25
3.84
3.72
3.79
3.88
3.87
3.66
3.3
2.87
2.39
1.88
1.29
0.58
-0.26
-1.17
-2.07
-2.94
-3.74
-4.48
-5.17
-5.89
-6.71
-7.75
-9.1
-10.83
-12.88
-15.12
-17.3
-19.15
-20.42
-20.89
-20.41
-18.98
-16.74
-13.92
-10.86
-7.87
-5.18
-2.91
-1.08
0.36
1.47
2.27
2.81
3.13
3.33
3.53
3.81
4.19
4.62
5.04
5.4
5.72
6.09
6.56
7.18
7.9
8.65
9.29
9.74
9.9
9.76
9.36
8.82
8.27
7.83
7.56
7.46
7.44
7.43
7.33
7.12
6.78
6.35
5.86
5.34
4.84
4.42
4.1
3.87
3.63
3.21
2.45
1.28
-0.24
-1.94
-3.58
-5.01
-6.17
-7.16
-8.13
-9.21
-10.5
-12.01
-13.69
-15.46
-17.14
-18.43
-18.99
-18.54
-17.0
-14.53
-11.51
-8.39
-5.51
-3.0
-0.81
1.17
3.0
4.63
5.91
6.71
7.01
6.93
6.64
6.33
6.13
6.11
6.35
6.85
7.59
8.51
9.44
10.2
10.68
10.86
10.8
10.64
10.43
10.21
9.92
9.54
9.05
8.51
7.99
7.55
7.22
6.99
6.8
6.63
6.41
6.11
5.69
5.15
4.53
3.87
3.24
2.65
2.06
1.43
0.7
-0.1
-0.95
-1.82
-2.68
-3.59
-4.61
-5.83
-7.31
-9.04
-10.97
-13.02
-15.05
-16.93
-18.45
-19.42
-19.61
-18.86
-17.11
-14.46
-11.18
-7.68
-4.38
-1.65
0.37
1.76
2.7
3.42
4.06
4.6
5.0
5.21
5.28
5.31
5.42
5.68
6.08
6.57
7.09
7.61
8.15
8.68
9.2
9.64
9.96
10.08
9.98
9.66
9.17
8.63
8.2
7.98
8.01
8.18
8.31
8.23
7.84
7.19
6.42
5.67
5.1
4.74
4.53
4.38
4.15
3.74
3.09
2.24
1.29
0.38
-0.35
-0.87
-1.25
-1.62
-2.1
-2.74
-3.49
-4.26
-5.03
-5.86
-6.88
-8.22
-9.89
-11.84
-13.86
-15.75
-17.3
-18.38
-18.84
-18.54
-17.38
-15.36
-12.67
-9.62
-6.59
-3.85
-1.52
0.42
2.03
3.34
4.29
4.78
4.8
4.47
4.06
3.84
3.98
4.45
5.06
5.54
5.73
5.62
5.38
5.23
5.39
5.87
6.6
7.4
8.12
8.66
9.01
9.15
9.04
8.69
8.11
7.42
6.74
6.19
5.76
5.39
4.98
4.51
4.02
3.59
3.26
2.99
2.71
2.35
1.86
1.27
0.56
-0.29
-1.32
-2.52
-3.81
-5.04
-6.07
-6.87
-7.49
-8.11
-8.91
-9.98
-11.29
-12.71
-14.04
-15.06
-15.57
-15.4
-14.47
-12.74
-10.33
-7.43
-4.35
-1.44
0.98
2.72
3.77
4.3
4.53
4.66
4.78
4.85
4.8
4.58
4.28
4.04
4.02
4.32
4.89
5.59
6.28
6.86
7.3
7.63
7.86
7.95
7.83
7.48
6.99
6.51
6.19
6.09
6.09
5.94
5.45
4.53
3.33
2.07
0.99
0.16
-0.46
-1.03
-1.63
-2.25
-2.83
-3.26
-3.55
-3.78
-4.11
-4.69
-5.65
-6.98
-8.6
-10.35
-12.06
-13.58
-14.87
-15.99
-17.11
-18.54
-20.63
-23.67
-27.72
-32.49
-37.29
-41.24
-43.57
-44.05
-43.08
-41.64
-40.81
-41.21
-42.8
-44.89
-46.57
-47.34
-47.4
-47.64
-49.17
-52.87
-58.84
-66.35
-74.06
-80.34
-83.5
-81.8
-73.65
-58.08
-35.41
-7.82
20.88
46.36
65.33
76.74
81.86
83.25
83.15
82.53
81.18
78.54
74.63
70.3
66.63
64.07
62.08
59.55
55.63
50.44
45.02
40.73
38.44
37.81
37.27
34.46
26.84
12.41
-9.62
-38.19
-70.23
-100.95
-125.12
-138.69
-140.01
-130.31
-112.72
-90.47
-64.98
-35.07
1.87
47.49
99.92
152.85
197.18
224.39
230.04
215.38
186.3
150.44
114.07
80.45
50.11
22.57
-2.16
-23.08
-38.96
-49.35
-55.21
-58.52
-61.38
-65.09
-69.84
-74.85
-78.86
-80.67
-79.56
-75.46
-69.09
-61.7
-54.62
-48.7
-43.92
-39.33
-33.53
-25.32
-14.3
-1.2
12.42
24.74
34.39
40.87
44.59
46.53
47.72
48.81
49.94
50.73
50.64
49.18
46.2
41.88
36.76
31.53
26.91
23.43
21.22
19.92
18.63
16.15
11.36
3.56
-7.09
-19.67
-32.7
-44.68
-54.58
-62.03
-67.24
-70.63
-72.5
-72.75
-71.06
-67.04
-60.57
-51.85
-41.37
-29.72
-17.35
-4.54
8.54
21.71
34.57
46.49
56.69
64.55
69.85
72.94
74.58
75.69
76.94
78.57
80.38
81.96
83.0
83.39
83.26
82.78
82.05
81.01
79.52
77.49
74.95
71.95
68.49
64.42
59.54
53.74
47.2
40.41
33.93
28.1
22.87
17.83
12.47
6.57
0.31
-5.76
-11.06
-15.23
-18.31
-20.62
-22.61
-24.61
-26.8
-29.27
-32.11
-35.46
-39.51
-44.42
-50.16
-56.58
-63.36
-70.11
-76.38
-81.8
-86.06
-88.95
-90.38
-90.34
-88.97
-86.47
-83.06
-78.97
-74.42
-69.72
-65.27
-61.55
-59.03
-57.99
-58.42
-60.09
-62.67
-65.81
-69.19
-72.39
-74.89
-76.15
-75.85
-74.14
-71.81
-69.96
-69.58
-71.08
-74.01
-77.11
-78.66
-76.8
-69.89
-56.74
-36.91
-10.97
19.3
51.07
80.98
105.98
124.17
135.18
140.07
140.62
138.57
135.06
130.53
125.06
118.79
112.2
106.08
101.18
97.91
96.22
95.67
95.78
96.29
97.19
98.62
100.52
102.52
104.03
104.5
103.78
102.06
99.67
96.75
93.27
89.35
85.74
83.97
85.88
92.55
103.24
114.92
122.94
122.57
110.91
88.11
57.31
23.45
-8.52
-35.13
-55.06
-68.78
-77.78
-83.67
-87.62
-90.27
-92.0
-93.26
-94.66
-96.84
-100.11
-104.18
-108.07
-110.41
-109.96
-106.22
-99.66
-91.63
-83.79
-77.43
-73.01
-70.11
-67.88
-65.56
-62.84
-59.96
-57.42
-55.66
-54.79
-54.49
-54.2
-53.35
-51.62
-49.06
-46.03
-43.06
-40.59
-38.85
-37.77
-37.09
-36.56
-36.03
-35.61
-35.58
-36.21
-37.5
-39.12
-40.43
-40.68
-39.29
-36.06
-31.21
-25.29
-18.88
-12.52
-6.49
-0.98
3.94
8.17
11.6
14.17
15.87
16.79
17.18
17.33
17.6
18.23
19.32
20.83
22.6
24.42
26.13
27.63
28.84
29.67
30.09
30.06
29.59
28.78
27.63
26.12
24.18
21.77
19.03
16.22
13.73
11.83
10.56
9.68
8.82
7.64
5.98
3.89
1.53
-0.95
-3.53
-6.29
-9.35
-12.75
-16.45
-20.32
-24.2
-27.96
-31.48
-34.65
-37.39
-39.64
-41.51
-43.19
-45.01
-47.29
-50.18
-53.48
-56.75
-59.24
-60.23
-59.16
-55.81
-50.38
-43.44
-35.8
-28.31
-21.61
-16.04
-11.58
-7.88
-4.56
-1.35
1.79
4.7
7.19
9.18
10.77
12.14
13.4
14.57
15.57
16.41
17.27
18.43
20.16
22.48
25.09
27.43
28.95
29.28
28.37
26.48
24.03
21.47
19.21
17.57
16.7
16.61
17.04
17.63
17.94
17.67
16.8
15.57
14.43
13.84
14.03
14.88
16.01
16.86
16.91
15.89
13.79
10.88
7.52
4.01
0.52
-2.93
-6.4
-9.94
-13.59
-17.4
-21.37
-25.49
-29.57
-33.21
-35.85
-36.84
-35.73
-32.43
-27.28
-20.96
-14.27
-7.91
-2.31
2.39
6.24
9.42
12.06
14.2
15.83
16.91
17.45
17.57
17.48
17.37
17.41
17.68
18.18
18.9
19.84
21.0
22.32
23.67
24.86
25.68
26.01
25.81
25.13
24.04
22.64
20.98
19.11
17.11
15.06
13.04
11.11
9.27
7.52
5.82
4.16
2.53
0.95
-0.57
-2.04
-3.45
-4.8
-6.13
-7.42
-8.63
-9.71
-10.63
-11.43
-12.23
-13.21
-14.54
-16.26
-18.3
-20.51
-22.73
-24.93
-27.13
-29.28
-31.14
-32.24
-31.96
-29.79
-25.6
-19.74
-12.93
-6.04
0.25
5.59
9.95
13.54
16.67
19.54
22.21
24.62
26.58
27.91
28.45
28.27
27.77
27.64
28.76
31.87
37.3
44.8
53.64
62.74
70.94
77.11
80.27
79.75
75.36
67.37
56.37
42.94
27.32
9.31
-11.35
-34.26
-57.66
-78.35
-92.42
-96.69
-89.94
-73.66
-51.44
-27.75
-6.34
10.63
22.45
29.22
30.89
26.94
16.81
0.83
-19.16
-39.75
-56.96
-67.69
-70.97
-68.26
-62.64
-57.28
-53.94
-52.33
-50.84
-47.87
-43.16
-37.98
-34.34
-33.57
-35.24
-37.23
-36.8
-32.15
-23.31
-12.16
-1.37
6.71
10.92
11.36
8.95
4.76
-0.48
-6.53
-13.6
-22.07
-32.18
-43.81
-56.29
-68.67
-80.02
-89.88
-98.43
-106.38
-114.65
-123.92
-134.24
-144.82
-153.98
-159.51
-159.22
-151.75
-137.12
-116.78
-93.24
-69.04
-45.83
-23.9
-2.22
20.93
47.4
78.54
114.62
154.29
194.35
230.2
256.93
271.12
272.16
262.55
246.67
228.84
211.58
195.15
178.38
160.22
140.85
121.69
104.53
90.32
78.64
68.05
57.18
45.67
34.51
25.69
21.18
21.91
27.42
36.06
45.96
55.88
65.72
76.38
89.03
104.31
121.82
140.03
156.72
169.53
176.61
176.99
170.75
158.78
142.41
122.87
101.04
77.28
51.77
24.72
-3.44
-32.29
-61.81
-92.41
-124.56
-158.08
-191.55
-222.46
-247.92
-266.01
-276.61
-281.5
-283.65
-286.01
-290.47
-297.47
-306.17
-314.82
-321.08
-322.17
-315.08
-297.19
-267.27
-226.54
-179.05
-131.14
-89.79
-60.58
-46.09
-45.49
-55.35
-70.94
-87.49
-100.68
-106.72
-102.24
-84.65
-52.89
-8.31
45.12
101.56
154.81
199.8
233.39
254.25
262.14
257.31
240.53
213.47
179.19
142.01
106.66
77.09
55.4
41.59
34.22
31.54
32.48
36.96
45.43
57.96
73.44
89.33
102.18
108.68
106.88
96.81
80.4
60.63
40.53
22.29
7.08
-4.58
-12.46
-16.32
-16.18
-12.6
-6.92
-0.9
3.85
6.56
7.44
7.47
7.77
9.02
11.3
14.29
17.71
21.74
27.08
34.69
45.37
59.36
76.19
94.89
114.25
133.08
150.39
165.32
177.12
185.22
189.35
189.71
186.99
182.16
176.19
169.83
163.44
157.16
151.09
145.35
139.99
134.76
128.9
121.3
110.77
96.68
79.2
59.33
38.49
17.9
-1.78
-20.42
-38.04
-54.38
-68.79
-80.49
-89.08
-94.82
-98.69
-101.88
-105.34
-109.43
-113.91
-118.15
-121.42
-123.15
-123.14
-121.65
-119.43
-117.5
-116.72
-117.31
-118.61
-119.36
-118.28
-114.77
-109.25
-102.9
-97.06
-92.52
-89.2
-86.37
-83.12
-78.94
-73.93
-68.63
-63.6
-59.08
-54.89
-50.59
-45.86
-40.76
-35.8
-31.79
-29.4
-28.86
-29.83
-31.55
-33.29
-34.71
-36.12
-38.3
-42.18
-48.31
-56.53
-65.93
-75.05
-82.42
-86.94
-88.2
-86.5
-82.57
-77.3
-71.4
-65.28
-59.07
-52.84
-46.71
-40.93
-35.68
-30.9
-26.06
-20.28
-12.71
-3.01
8.18
19.32
28.43
33.86
34.86
31.89
26.25
19.58
13.36
8.64
6.0
5.56
6.98
9.43
11.66
12.5
11.37
8.82
6.47
6.42
10.2
17.89
27.8
36.98
42.4
42.23
36.5
26.99
16.31
6.75
-0.54
-5.68
-9.59
-13.25
-17.08
-20.92
-24.31
-26.93
-28.84
-30.46
-32.25
-34.46
-37.02
-39.65
-41.97
-43.56
-44.03
-42.96
-39.9
-34.58
-27.01
-17.63
-7.33
2.7
11.22
17.35
20.87
22.33
22.88
23.87
26.3
30.52
36.17
42.6
49.21
55.84
62.81
70.54
79.21
88.45
97.5
105.47
111.76
116.32
119.63
122.43
125.33
128.41
131.05
131.75
128.49
119.32
103.08
80.18
52.85
24.76
-0.15
-18.99
-30.82
-36.54
-38.11
-37.6
-36.58
-36.27
-37.69
-41.82
-49.23
-59.54
-71.31
-82.67
-92.33
-100.31
-107.93
-116.78
-127.69
-140.1
-152.49
-163.15
-170.97
-175.5
-176.34
-172.89
-164.44
-150.85
-133.14
-113.35
-93.66
-75.08
-56.73
-36.26
-11.31
18.73
51.72
83.2
107.94
121.85
123.36
113.57
95.37
72.41
48.3
26.33
9.33
-0.67
-3.0
1.22
9.36
18.13
24.97
28.87
30.44
31.11
31.98
33.2
34.04
33.64
31.72
28.87
26.19
24.59
24.28
24.68
24.87
24.05
21.87
18.52
14.47
10.24
6.28
3.02
0.85
0.05
0.64
2.22
4.07
5.42
5.69
4.72
2.65
-0.3
-3.9
-7.93
-12.07
-15.88
-19.05
-21.68
-24.36
-27.94
-32.99
-39.32
-45.89
-51.16
-53.75
-52.98
-49.08
-42.85
-35.29
-27.09
-18.55
-9.68
-0.43
9.08
18.39
26.89
33.93
39.11
42.42
44.27
45.34
46.36
47.85
50.03
52.77
55.7
58.29
60.08
61.03
61.75
63.73
68.98
79.37
95.77
117.15
140.51
161.48
175.56
179.52
172.4
155.64
132.48
106.95
82.73
62.5
47.63
38.34
33.96
33.27
34.72
36.67
37.52
35.97
31.32
23.59
13.58
2.54
-8.17
-17.51
-25.09
-31.13
-36.26
-41.15
-46.29
-51.87
-57.92
-64.58
-72.19
-81.12
-91.44
-102.62
-113.54
-122.71
-128.66
-130.41
-127.75
-121.26
-112.23
-102.27
-93.02
-85.79
-81.3
-79.68
-80.47
-82.85
-85.86
-88.61
-90.45
-91.07
-90.45
-88.95
-87.09
-85.34
-83.63
-81.12
-76.12
-66.42
-50.0
-25.68
6.14
43.25
81.99
118.11
147.96
169.5
182.65
188.66
189.07
184.72
175.55
161.25
142.12
119.75
96.61
75.01
56.0
38.96
22.1
3.69
-16.92
-38.89
-60.37
-79.36
-94.55
-105.5
-112.45
-115.9
-116.17
-113.22
-106.81
-96.86
-83.82
-68.95
-54.16
-41.38
-31.91
-25.85
-22.09
-19.03
-15.43
-11.17
-7.18
-4.75
-4.67
-6.57
-9.06
-10.44
-9.55
-6.29
-1.47
3.89
9.1
14.18
19.47
25.12
30.66
35.14
37.69
38.07
36.92
35.44
34.62
34.72
35.14
34.9
33.2
30.02
26.06
22.33
19.63
18.19
17.81
18.11
18.81
19.79
21.03
22.4
23.69
24.66
25.19
25.34
25.24
25.01
24.66
24.09
23.22
22.02
20.51
18.64
16.22
12.97
8.72
3.53
-2.18
-7.77
-12.71
-16.7
-19.86
-22.54
-25.21
-28.29
-32.04
-36.68
-42.22
-48.34
-54.23
-58.63
-60.21
-58.21
-52.89
-45.46
-37.61
-30.71
-25.32
-21.17
-17.63
-14.24
-10.98
-8.09
-5.62
-3.19
-0.06
4.36
10.04
16.15
21.33
24.39
24.71
22.58
19.02
15.37
12.85
12.19
13.51
16.26
19.5
22.19
23.56
23.32
21.68
19.18
16.36
13.57
10.83
8.02
4.97
1.71
-1.54
-4.44
-6.67
-8.1
-8.86
-9.39
-10.33
-12.35
-15.78
-20.5
-25.9
-31.17
-35.71
-39.49
-43.11
-47.43
-53.19
-60.51
-68.73
-76.5
-81.99
-83.06
-77.47
-63.33
-39.78
-7.89
28.88
65.08
94.59
112.61
117.17
109.74
94.38
75.98
58.54
44.23
33.52
26.06
21.45
19.66
20.74
24.34
29.52
34.87
39.13
41.59
42.33
42.07
41.61
41.47
41.62
41.53
40.49
37.9
33.63
28.04
21.89
16.04
11.16
7.58
5.2
3.72
2.73
1.93
1.11
0.2
-0.79
-1.78
-2.62
-3.01
-2.6
-1.07
1.71
5.47
9.59
13.17
15.37
15.7
14.14
11.16
7.47
3.71
0.34
-2.42
-4.47
-5.73
-6.13
-5.65
-4.42
-2.85
-1.57
-1.23
-2.33
-5.01
-8.94
-13.42
-17.6
-20.75
-22.49
-22.75
-21.69
-19.51
-16.34
-12.29
-7.49
-2.22
3.17
8.22
12.59
16.08
18.58
20.02
20.36
19.63
17.98
15.74
13.36
11.27
9.8
9.06
9.05
9.65
10.68
11.96
13.23
14.14
14.26
13.28
11.02
7.7
3.8
-0.02
-3.14
-5.15
-5.97
-5.8
-4.99
-3.91
-2.83
-1.9
-1.22
-0.81
-0.62
-0.54
-0.41
-0.04
0.69
1.74
2.93
3.93
4.47
4.29
3.38
1.9
0.16
-1.47
-2.66
-3.32
-3.63
-4.01
-5.0
-7.01
-10.16
-14.25
-18.85
-23.42
-27.52
-30.75
-32.81
-33.41
-32.3
-29.43
-24.98
-19.46
-13.54
-7.88
-2.92
1.21
4.59
7.43
9.91
12.1
13.95
15.4
16.39
16.93
17.09
16.98
16.8
16.69
16.72
16.81
16.81
16.57
16.03
