18.58
18.33
17.83
16.97
15.77
14.36
12.94
11.72
10.79
10.18
9.74
9.28
8.61
7.6
6.26
4.68
3.0
1.33
-0.26
-1.76
-3.21
-4.67
-6.21
-7.89
-9.76
-11.78
-13.85
-15.82
-17.59
-19.19
-20.8
-22.66
-24.95
-27.62
-30.33
-32.54
-33.67
-33.28
-31.24
-27.71
-23.04
-17.67
-12.07
-6.61
-1.65
2.55
5.84
8.24
9.93
11.16
12.1
12.81
13.18
13.13
12.7
12.12
11.69
11.7
12.19
13.01
13.92
14.72
15.36
15.9
16.43
16.98
17.44
17.62
17.39
16.71
15.68
14.52
13.44
12.63
12.11
11.79
11.45
10.89
10.02
8.88
7.64
6.48
5.47
4.54
3.52
2.29
0.83
-0.72
-2.22
-3.56
-4.82
-6.16
-7.75
-9.62
-11.63
-13.61
-15.4
-17.01
-18.59
-20.34
-22.4
-24.8
-27.45
-30.21
-32.8
-34.9
-36.05
-35.86
-34.05
-30.59
-25.79
-20.17
-14.3
-8.67
-3.56
0.92
4.72
7.78
10.08
11.63
12.57
13.08
13.36
13.56
13.75
13.95
14.19
14.55
15.12
15.88
16.77
17.6
18.21
18.54
18.62
18.57
18.47
18.34
18.09
17.62
16.89
15.98
15.04
14.23
13.6
13.08
12.52
11.79
10.84
9.73
8.53
7.34
6.18
5.04
3.89
2.73
1.58
0.49
-0.57
-1.67
-2.97
-4.6
-6.59
-8.8
-10.98
-12.9
-14.45
-15.76
-17.08
-18.77
-21.03
-23.88
-27.15
-30.48
-33.45
-35.6
-36.53
-35.89
-33.57
-29.67
-24.6
-18.93
-13.31
-8.2
-3.85
-0.25
2.76
5.37
7.69
9.66
11.17
12.09
12.41
12.3
12.08
12.05
12.42
13.16
14.08
14.95
15.59
15.98
16.18
16.26
16.24
16.06
15.69
15.08
14.31
13.45
12.58
11.75
10.98
10.26
9.55
8.81
7.94
6.93
5.78
4.55
3.34
2.19
1.09
-0.04
-1.26
-2.62
-4.13
-5.76
-7.48
-9.24
-10.95
-12.54
-13.94
-15.17
-16.33
-17.63
-19.29
-21.46
-24.19
-27.36
-30.64
-33.56
-35.55
-36.07
-34.72
-31.43
-26.44
-20.34
-13.84
-7.63
-2.24
2.11
5.42
7.87
9.67
11.02
12.09
12.94
13.63
14.15
14.47
14.61
14.64
14.63
14.74
15.05
15.64
16.46
17.36
18.18
18.72
18.88
18.63
18.03
17.26
16.45
15.72
15.06
14.4
13.66
12.77
11.79
10.78
9.87
9.14
8.57
8.1
7.63
7.05
6.27
5.27
4.07
2.73
1.39
0.19
-0.78
-1.51
-2.13
-2.87
-3.95
-5.48
-7.38
-9.42
-11.32
-12.96
-14.39
-15.83
-17.57
-19.82
-22.63
-25.83
-29.12
-32.07
-34.21
-35.08
-34.38
-31.98
-28.06
-23.05
-17.5
-11.95
-6.85
-2.45
1.19
4.14
6.53
8.5
10.09
11.32
12.12
12.48
12.5
12.36
12.28
12.4
12.76
13.23
13.75
14.28
14.94
15.81
16.92
18.05
18.86
19.05
18.46
17.23
15.71
14.29
13.24
12.6
12.23
11.85
11.23
10.23
8.87
7.28
5.66
4.16
2.88
1.82
0.91
0.05
-0.81
-1.71
-2.68
-3.74
-4.94
-6.32
-7.88
-9.59
-11.36
-13.15
-14.95
-16.85
-18.99
-21.49
-24.36
-27.42
-30.28
-32.38
-33.17
-32.24
-29.47
-25.12
-19.74
-13.96
-8.34
-3.25
1.14
4.77
7.66
9.81
11.27
12.09
12.34
12.18
11.75
11.23
10.8
10.63
10.86
11.54
12.64
14.02
15.44
16.71
17.66
18.24
18.41
18.18
17.54
16.49
15.1
13.54
12.01
10.7
9.7
8.99
8.42
7.85
7.17
6.37
5.49
4.57
3.62
2.55
1.29
-0.15
-1.68
-3.15
-4.4
-5.41
-6.27
-7.17
-8.31
-9.82
-11.71
-13.84
-16.02
-18.07
-19.89
-21.55
-23.22
-25.14
-27.51
-30.27
-33.11
-35.42
-36.5
-35.82
-33.19
-28.86
-23.39
-17.49
-11.77
-6.65
-2.28
1.33
4.29
6.72
8.74
10.41
11.76
12.75
13.34
13.53
13.43
13.23
13.17
13.43
14.06
14.98
16.01
17.03
17.93
18.73
19.41
19.91
20.11
19.86
19.1
17.92
16.56
15.33
14.46
14.01
13.83
13.64
13.17
12.29
11.09
9.79
8.63
7.7
6.97
6.29
5.48
4.5
3.37
2.19
1.01
-0.19
-1.48
-2.9
-4.47
-6.13
-7.8
-9.4
-10.95
-12.51
-14.17
-16.03
-18.1
-20.36
-22.82
-25.44
-28.22
-31.03
-33.59
-35.43
-35.98
-34.84
-31.89
-27.41
-21.98
-16.28
-10.86
-6.02
-1.82
1.83
5.02
7.75
9.98
11.62
12.61
13.01
12.95
12.64
12.29
12.06
12.06
12.25
12.61
13.11
13.75
14.53
15.37
16.13
16.6
16.66
16.32
15.73
15.08
14.51
14.03
13.51
12.8
11.84
10.67
9.42
8.24
7.19
6.23
5.27
4.28
3.22
2.15
1.05
-0.08
-1.3
-2.64
-4.11
-5.64
-7.11
-8.47
-9.74
-10.99
-12.35
-13.96
-15.9
-18.2
-20.8
-23.56
-26.25
-28.55
-30.11
-30.58
-29.71
-27.43
-23.94
-19.65
-15.07
-10.65
-6.61
-2.95
0.44
3.64
6.63
9.28
11.43
13.02
14.09
14.76
15.1
15.17
14.97
14.59
14.16
13.89
13.99
14.56
15.55
16.77
17.94
18.78
19.1
18.83
18.03
16.88
15.57
14.26
13.05
11.93
10.9
9.93
8.99
8.03
7.01
5.93
4.81
3.74
2.8
1.99
1.27
0.54
-0.25
-1.1
-1.91
-2.66
-3.38
-4.19
-5.22
-6.55
-8.11
-9.75
-11.31
-12.74
-14.1
-15.6
-17.42
-19.74
-22.62
-26.01
-29.64
-33.06
-35.66
-36.79
-35.99
-33.17
-28.7
-23.23
-17.51
-12.08
-7.18
-2.78
1.22
4.82
7.88
10.2
11.73
12.59
13.06
13.43
13.85
14.26
14.53
14.56
14.38
14.19
14.22
14.6
15.32
16.2
17.01
17.58
17.84
17.82
17.64
17.3
16.8
16.05
14.99
13.67
12.25
10.93
9.86
9.1
8.55
8.07
7.57
6.96
6.28
5.53
4.72
3.81
2.75
1.54
0.21
-1.18
-2.6
-4.03
-5.5
-7.03
-8.61
-10.2
-11.77
-13.28
-14.72
-16.16
-17.74
-19.61
-21.91
-24.63
-27.58
-30.26
-32.04
-32.28
-30.65
-27.23
-22.51
-17.19
-11.87
-6.93
-2.47
1.47
4.86
7.5
9.24
10.02
10.05
9.68
9.3
9.1
9.09
9.14
9.15
9.1
9.1
9.3
9.81
10.62
11.61
12.6
13.36
13.7
13.5
12.75
11.63
10.37
9.29
8.58
8.28
8.25
8.17
7.76
6.87
5.51
3.91
2.35
1.07
0.17
-0.42
-0.92
-1.58
-2.57
-3.96
-5.69
-7.59
-9.46
-11.18
-12.68
-14.04
-15.43
-17.07
-19.14
-21.71
-24.65
-27.59
-29.98
-31.23
-30.81
-28.53
-24.56
-19.4
-13.74
-8.23
-3.35
0.73
4.05
6.77
9.02
10.86
12.27
13.25
13.85
14.16
14.31
14.43
14.62
14.89
15.26
15.67
16.09
16.49
16.8
16.97
16.95
16.7
16.24
15.63
15.01
14.47
14.11
13.91
13.78
13.55
13.06
12.2
10.99
9.55
8.06
6.66
5.4
4.28
3.26
2.31
1.45
0.72
0.1
-0.47
-1.14
-2.1
-3.45
-5.16
-7.11
-9.14
-11.09
-12.87
-14.51
-16.05
-17.59
-19.23
-21.07
-23.21
-25.71
-28.55
-31.49
-34.08
-35.69
-35.72
-33.8
-29.87
-24.37
-18.0
-11.59
-5.8
-1.01
2.68
5.45
7.5
9.04
10.2
11.06
11.68
12.11
12.43
12.72
13.06
13.54
14.17
14.95
15.8
16.62
17.3
17.8
18.12
18.27
18.23
17.92
17.28
16.32
15.17
14.03
13.1
12.47
12.09
11.8
11.36
10.62
9.53
8.13
6.56
4.93
3.32
1.8
0.42
-0.73
-1.59
-2.16
-2.55
-2.94
-3.56
-4.56
-5.96
-7.61
-9.32
-10.92
-12.41
-13.89
-15.53
-17.51
-19.85
-22.48
-25.21
-27.71
-29.56
-30.3
-29.61
-27.34
-23.66
-19.0
-13.93
-8.96
-4.42
-0.43
2.99
5.88
8.19
9.83
10.74
10.93
10.62
10.1
9.76
9.8
10.32
11.17
12.11
12.91
13.47
13.83
14.15
14.58
15.13
15.69
16.04
15.97
15.4
14.35
12.98
11.46
9.96
8.6
7.4
6.35
5.4
4.5
3.6
2.71
1.85
1.01
0.17
-0.77
-1.89
-3.25
-4.8
-6.4
-7.9
-9.19
-10.31
-11.4
-12.65
-14.17
-15.97
-18.02
-20.27
-22.72
-25.34
-27.95
-30.15
-31.38
-31.15
-29.19
-25.68
-21.13
-16.19
-11.41
-7.04
-3.11
0.48
3.76
6.64
9.03
10.87
12.18
13.1
13.71
14.09
14.26
14.3
14.32
14.46
14.8
15.32
15.88
16.32
16.52
16.46
16.26
15.98
15.7
15.39
15.02
14.59
14.17
13.82
13.56
13.31
12.88
12.13
10.99
9.57
8.06
6.63
5.36
4.22
3.15
2.11
1.14
0.31
-0.39
-1.03
-1.76
-2.74
-4.04
-5.62
-7.32
-8.92
-10.29
-11.42
-12.49
-13.82
-15.7
-18.29
-21.54
-25.17
-28.8
-32.03
-34.47
-35.78
-35.62
-33.78
-30.29
-25.42
-19.74
-13.87
-8.34
-3.45
0.73
4.27
7.19
9.54
11.31
12.59
13.54
14.37
15.17
15.93
16.53
16.84
16.78
16.43
15.93
15.46
15.18
15.17
15.41
15.79
16.21
16.55
16.75
16.78
16.63
16.25
15.61
14.74
13.68
12.55
11.47
10.51
9.66
8.86
8.04
7.15
6.17
5.12
3.94
2.62
1.19
-0.27
-1.62
-2.72
-3.56
-4.26
-5.03
-6.07
-7.46
-9.18
-11.07
-12.99
-14.81
-16.51
-18.16
-19.93
-21.98
-24.43
-27.18
-29.91
-32.05
-33.02
-32.36
-29.93
-25.97
-21.01
-15.61
-10.28
-5.32
-0.92
2.84
5.89
8.2
9.79
10.79
11.36
11.67
11.86
12.0
12.14
12.33
12.6
13.02
13.61
14.38
15.29
16.26
17.14
17.8
18.11
18.04
17.65
17.02
16.24
15.35
14.33
13.17
11.92
10.63
9.36
8.11
6.86
5.58
4.28
3.07
2.06
1.31
0.75
0.25
-0.32
-1.06
-1.96
-2.98
-4.11
-5.36
-6.76
-8.28
-9.82
-11.31
-12.74
-14.21
-15.88
-17.89
-20.26
-22.88
-25.59
-28.2
-30.58
-32.52
-33.75
-33.93
-32.74
-30.04
-25.98
-20.97
-15.58
-10.35
-5.62
-1.53
1.96
4.9
7.31
9.21
10.59
11.53
12.2
12.78
13.41
14.13
14.92
15.63
16.16
16.45
16.53
16.48
16.4
16.38
16.44
16.57
16.66
16.66
16.53
16.27
15.9
15.41
14.78
13.99
13.07
12.12
11.25
10.57
10.03
9.53
8.84
7.8
6.36
4.65
2.92
1.45
0.38
-0.31
-0.85
-1.51
-2.58
-4.15
-6.15
-8.37
-10.55
-12.52
-14.21
-15.74
-17.27
-18.96
-20.92
-23.17
-25.63
-28.15
-30.5
-32.38
-33.43
-33.24
-31.55
-28.29
-23.69
-18.27
-12.66
-7.43
-2.92
0.78
3.77
6.19
8.15
9.71
10.9
11.79
12.42
12.88
13.2
13.44
13.66
13.92
14.29
14.75
15.26
15.79
16.27
16.7
17.04
17.26
17.28
17.05
16.55
15.85
15.04
14.17
13.26
12.27
11.17
9.94
8.58
7.1
5.49
3.8
2.09
0.52
-0.79
-1.82
-2.63
-3.38
-4.25
-5.35
-6.66
-8.08
-9.51
-10.92
-12.35
-13.87
-15.58
-17.53
-19.79
-22.33
-25.04
-27.66
-29.72
-30.74
-30.24
-28.08
-24.43
-19.79
-14.81
-10.06
-5.86
-2.26
0.88
3.67
6.18
8.33
10.0
11.15
11.79
12.03
12.06
12.04
12.08
12.23
12.53
13.01
13.68
14.54
15.5
16.39
17.05
17.31
17.08
16.41
15.4
14.24
13.14
12.27
11.78
11.68
11.83
11.92
11.62
10.69
9.13
7.15
5.11
3.3
1.84
0.67
-0.37
-1.41
-2.51
-3.65
-4.84
-6.11
-7.54
-9.18
-11.03
-12.96
-14.88
-16.77
-18.74
-21.0
-23.7
-26.85
-30.21
-33.29
-35.44
-36.09
-34.89
-31.85
-27.32
-21.91
-16.27
-10.97
-6.33
-2.46
0.73
3.38
5.64
7.57
9.21
10.56
11.63
12.44
13.03
13.43
13.65
13.73
13.73
13.76
13.97
14.49
15.42
16.7
18.15
19.52
20.46
20.78
20.39
19.39
18.01
16.52
15.09
13.82
12.67
11.54
10.36
9.09
7.75
6.45
5.32
4.47
3.93
3.62
3.35
2.87
1.97
0.57
-1.26
-3.31
-5.33
-7.15
-8.73
-10.15
-11.54
-13.04
-14.75
-16.71
-18.95
-21.4
-23.97
-26.44
-28.46
-29.64
-29.6
-28.12
-25.25
-21.29
-16.71
-11.98
-7.47
-3.35
0.35
3.64
6.46
8.68
10.16
10.86
10.9
10.52
10.04
9.7
9.63
9.89
10.47
11.32
12.38
13.52
14.59
15.44
15.97
16.17
16.06
15.72
15.19
14.47
13.54
12.4
11.09
9.71
8.35
7.07
5.89
4.78
3.7
2.62
1.57
0.55
-0.42
-1.38
-2.39
-3.5
-4.71
-5.96
-7.17
-8.31
-9.42
-10.65
-12.21
-14.25
-16.83
-19.84
-22.99
-25.87
-28.03
-29.01
-28.52
-26.53
-23.26
-19.14
-14.67
-10.24
-6.09
-2.27
1.28
4.6
7.65
10.29
12.34
13.67
14.28
14.28
13.95
13.56
13.39
13.53
13.98
14.59
15.17
15.62
15.89
16.02
16.08
16.08
15.99
15.75
15.3
14.67
13.92
13.16
12.45
11.77
11.08
10.32
9.48
8.59
7.7
6.87
6.08
5.29
4.44
3.49
2.41
1.2
-0.17
-1.74
-3.52
-5.5
-7.56
-9.54
-11.27
-12.68
-13.85
-14.97
-16.28
-17.96
-20.05
-22.4
-24.76
-26.8
-28.21
-28.72
-28.21
-26.63
-24.04
-20.59
-16.48
-11.94
-7.28
-2.81
1.19
4.5
7.03
8.81
9.96
10.61
10.9
10.92
10.76
10.55
10.4
10.48
10.88
11.58
12.49
13.39
14.14
14.65
14.96
15.18
15.45
15.79
16.09
16.18
15.87
15.12
14.01
12.71
11.41
10.18
9.04
7.94
6.87
5.81
4.81
3.88
3.05
2.32
1.71
1.17
0.62
-0.09
-1.09
-2.43
-4.02
-5.68
-7.23
-8.57
-9.72
-10.78
-11.87
-13.1
-14.53
-16.23
-18.28
-20.73
-23.46
-26.2
-28.45
-29.67
-29.42
-27.5
-24.08
-19.58
-14.6
-9.69
-5.23
-1.39
1.88
4.67
7.06
9.0
10.36
10.98
10.85
10.14
9.15
8.24
7.68
7.52
7.67
8.01
8.46
9.07
9.94
11.09
12.41
13.62
14.39
14.47
13.85
12.74
11.48
10.39
9.6
9.01
8.38
7.5
6.26
4.76
3.28
2.09
1.37
1.1
1.04
0.88
0.34
-0.71
-2.16
-3.76
-5.27
-6.54
-7.58
-8.59
-9.8
-11.34
-13.29
-15.61
-18.16
-20.75
-23.12
-24.92
-25.75
-25.25
-23.23
-19.77
-15.26
-10.26
-5.36
-0.98
2.68
5.59
7.84
9.54
10.75
11.54
12.05
12.54
13.34
14.75
16.92
19.73
22.78
25.57
27.7
29.07
29.96
30.89
32.46
35.05
38.68
42.99
47.38
51.27
54.23
56.12
57.04
57.22
56.91
56.28
55.4
54.25
52.61
50.09
46.23
40.68
33.44
24.9
15.86
7.16
-0.6
-7.19
-12.79
-17.66
-21.97
-25.72
-28.87
-31.55
-34.14
-37.12
-40.8
-45.13
-49.69
-53.93
-57.45
-60.16
-62.24
-64.0
-65.7
-67.42
-68.99
-69.97
-69.72
-67.52
-62.85
-55.61
-46.3
-35.79
-25.03
-14.71
-5.0
4.24
13.23
21.98
30.2
37.45
43.37
47.81
50.78
52.36
52.62
51.59
49.36
46.13
42.19
37.88
33.52
29.41
25.77
22.65
19.82
16.79
12.95
7.84
1.43
-5.84
-13.2
-19.94
-25.6
-30.14
-33.74
-36.68
-39.17
-41.38
-43.47
-45.57
-47.71
-49.73
-51.29
-51.95
-51.41
-49.66
-46.95
-43.7
-40.27
-36.88
-33.52
-29.97
-25.95
-21.19
-15.5
-8.88
-1.53
6.2
13.87
21.03
27.26
32.14
35.34
36.69
36.24
34.38
31.77
29.14
27.11
25.97
25.66
25.87
26.27
26.6
26.72
26.49
25.66
23.89
20.86
16.44
10.84
4.52
-1.98
-8.26
-14.18
-19.87
-25.53
-31.23
-36.81
-41.89
-45.93
-48.47
-49.31
-48.64
-47.0
-45.19
-43.96
-43.84
-45.01
-47.28
-50.26
-53.48
-56.44
-58.68
-59.87
-59.92
-59.03
-57.69
-56.44
-55.57
-54.98
-54.12
-52.3
-48.98
-43.98
-37.55
-30.09
-21.96
-13.31
-4.11
5.68
15.98
26.5
36.88
46.63
55.24
62.18
66.94
69.19
68.89
66.36
62.14
56.8
50.7
43.87
36.14
27.32
17.42
6.78
-4.05
-14.44
-23.85
-31.9
-38.36
-43.17
-46.46
-48.64
-50.36
-52.34
-55.22
-59.33
-64.75
-71.44
-79.4
-88.67
-98.97
-109.34
-117.83
-121.69
-118.19
-105.27
-82.21
-49.76
-10.08
33.56
77.06
115.91
145.96
164.39
170.54
166.14
154.7
140.18
125.74
113.0
102.17
92.8
84.48
77.12
70.81
65.51
60.88
56.42
51.8
47.02
42.36
38.24
34.93
32.39
30.23
27.94
24.97
20.98
15.95
10.16
4.09
-1.75
-7.01
-11.56
-15.46
-18.76
-21.41
-23.16
-23.7
-22.81
-20.5
-17.09
-13.09
-9.09
-5.47
-2.4
0.2
2.51
4.67
6.69
8.44
9.72
10.39
10.37
9.66
8.34
6.56
4.46
2.2
-0.02
-2.03
-3.69
-4.96
-5.88
-6.55
-7.08
-7.5
-7.8
-7.86
-7.53
-6.67
-5.17
-3.06
-0.46
2.4
5.2
7.59
9.27
10.05
9.98
9.3
8.43
7.78
7.62
7.98
8.65
9.33
9.77
9.86
9.64
9.18
8.52
7.67
6.59
5.34
4.03
2.81
1.8
1.02
0.37
-0.34
-1.32
-2.74
-4.67
-7.0
-9.51
-11.83
-13.58
-14.4
-14.08
-12.63
-10.23
-7.23
-4.06
-1.12
1.25
2.88
3.7
3.79
3.33
2.53
1.62
0.81
0.25
0.03
0.19
0.71
1.53
2.57
3.74
4.9
5.96
6.84
7.51
8.0
8.36
8.62
8.77
8.76
8.58
8.25
7.85
7.48
7.16
6.81
6.25
5.33
4.03
2.5
1.0
-0.22
-1.03
-1.49
-1.75
-1.91
-2.0
-1.99
-1.89
-1.82
-1.99
-2.61
-3.75
-5.31
-7.06
-8.78
-10.42
-12.05
-13.87
-15.97
-18.35
-20.87
-23.32
-25.5
-27.2
-28.19
-28.19
-26.92
-24.28
-20.34
-15.45
-10.13
-4.85
0.02
4.33
8.07
11.26
13.9
15.9
17.22
17.81
17.75
17.21
16.38
15.48
14.72
14.24
14.14
14.4
14.87
15.32
15.44
15.04
14.07
12.66
11.11
9.71
8.68
8.02
7.57
7.05
6.16
4.74
2.74
0.29
-2.38
-4.99
-7.26
-8.94
-9.89
-10.09
-9.63
-8.75
-7.7
-6.8
-6.23
-6.07
-6.29
-6.75
-7.38
-8.11
-9.0
-10.12
-11.49
-13.02
-14.52
-15.82
-16.84
-17.63
-18.37
-19.3
-20.56
-22.17
-24.08
-26.16
-28.35
-30.56
-32.65
-34.35
-35.27
-34.98
-33.24
-30.11
-25.95
-21.26
-16.53
-12.08
-7.99
-4.23
-0.73
2.52
5.48
8.13
10.47
12.54
14.33
15.77
16.78
17.32
17.46
17.37
17.26
17.29
17.52
17.92
18.41
18.95
19.42
19.69
19.58
18.96
17.8
16.19
14.35
12.44
10.57
8.77
7.03
5.37
3.83
2.46
1.28
0.21
-0.83
-1.88
-2.9
-3.79
-4.44
-4.85
-5.11
-5.42
-5.95
-6.84
-8.05
-9.52
-11.11
-12.71
-14.24
-15.62
-16.78
-17.68
-18.37
-19.0
-19.78
-20.82
-22.06
-23.2
-23.76
-23.26
-21.41
-18.23
-13.99
-9.09
-3.92
1.18
5.93
10.07
13.36
15.64
16.88
17.24
17.0
16.49
15.93
15.42
14.96
14.51
14.08
13.72
13.51
13.47
13.54
