-9.62
-5.01
-0.73
3.07
6.18
8.42
9.73
10.28
10.37
10.35
10.48
10.85
11.39
11.98
12.57
13.16
13.78
14.46
15.14
15.71
16.03
16.08
15.96
15.84
15.9
16.18
16.58
16.84
16.71
16.04
14.87
13.38
11.78
10.25
8.84
7.53
6.32
5.23
4.32
3.58
2.88
2.02
0.79
-0.9
-2.98
-5.21
-7.34
-9.15
-10.61
-11.82
-12.95
-14.24
-15.89
-18.03
-20.68
-23.73
-26.89
-29.71
-31.65
-32.28
-31.34
-28.91
-25.31
-21.02
-16.47
-11.99
-7.73
-3.76
-0.16
2.95
5.43
7.14
8.01
8.11
7.61
6.84
6.13
5.84
6.16
7.13
8.59
10.25
11.85
13.17
14.13
14.74
15.05
15.12
15.03
14.83
14.6
14.35
14.03
13.55
12.87
11.98
10.98
9.99
9.07
8.23
7.43
6.62
5.77
4.95
4.18
3.48
2.79
2.02
1.12
-0.0
-1.36
-2.95
-4.75
-6.7
-8.68
-10.55
-12.2
-13.54
-14.61
-15.55
-16.56
-17.86
-19.57
-21.7
-24.07
-26.27
-27.75
-27.95
-26.5
-23.35
-18.83
-13.53
-8.11
-3.11
1.2
4.73
7.52
9.64
11.16
12.13
12.66
12.92
13.07
13.2
13.32
13.38
13.3
13.06
12.73
12.44
12.37
12.63
13.25
14.08
14.9
15.45
15.58
15.27
14.75
14.21
13.83
13.63
13.5
13.28
12.89
12.31
11.61
10.86
10.05
9.19
8.25
7.22
6.1
4.89
3.58
2.14
0.63
-0.82
-2.11
-3.15
-4.03
-4.93
-6.02
-7.4
-9.03
-10.74
-12.37
-13.85
-15.21
-16.55
-17.99
-19.61
-21.44
-23.48
-25.67
-27.82
-29.61
-30.52
-30.06
-27.89
-24.02
-18.88
-13.16
-7.59
-2.69
1.31
4.48
7.03
9.15
10.9
12.27
13.19
13.62
13.59
13.21
12.63
12.0
11.45
11.06
10.86
10.84
11.02
11.41
12.0
12.77
13.62
14.42
15.02
15.32
15.31
15.0
14.41
13.55
12.43
11.06
9.54
8.01
6.56
5.26
4.04
2.85
1.63
0.47
-0.54
-1.28
-1.76
-2.15
-2.64
-3.46
-4.68
-6.26
-8.05
-9.91
-11.68
-13.31
-14.78
-16.11
-17.38
-18.74
-20.38
-22.42
-24.83
-27.34
-29.45
-30.56
-30.21
-28.27
-24.94
-20.69
-16.02
-11.4
-7.07
-3.16
0.24
3.1
5.39
7.17
8.54
9.59
10.33
10.75
10.81
10.58
10.21
9.89
9.78
9.93
10.3
10.8
11.39
12.02
12.68
13.27
13.65
13.74
13.48
12.98
12.34
11.67
11.02
10.36
9.67
8.96
8.29
7.74
7.38
7.17
7.04
6.88
6.6
6.16
5.55
4.81
4.0
3.13
2.21
1.23
0.16
-0.99
-2.17
-3.32
-4.41
-5.49
-6.69
-8.1
-9.75
-11.5
-13.19
-14.69
-16.0
-17.3
-18.83
-20.76
-23.09
-25.62
-27.95
-29.66
-30.34
-29.74
-27.73
-24.45
-20.21
-15.43
-10.6
-6.08
-2.12
1.2
3.9
6.08
7.84
9.29
10.52
11.54
12.35
12.92
13.2
13.25
13.16
13.06
13.05
13.19
13.46
13.88
14.44
15.11
15.82
16.36
16.58
16.31
15.59
14.57
13.47
12.49
11.72
11.11
10.54
9.92
9.18
8.33
7.44
6.55
5.74
4.99
4.31
3.59
2.77
1.77
0.59
-0.66
-1.84
-2.78
-3.47
-4.0
-4.6
-5.48
-6.77
-8.4
-10.16
-11.75
-13.0
-13.88
-14.55
-15.23
-16.11
-17.28
-18.74
-20.5
-22.56
-24.83
-27.07
-28.77
-29.32
-28.18
-25.17
-20.55
-15.01
-9.35
-4.23
-0.01
3.27
5.77
7.65
9.03
10.0
10.58
10.84
10.84
10.62
10.23
9.74
9.22
8.81
8.64
8.78
9.25
9.98
10.84
11.67
12.36
12.8
12.97
12.84
12.44
11.74
10.75
9.5
8.08
6.64
5.29
4.13
3.13
2.21
1.25
0.07
-1.45
-3.39
-5.63
-7.91
-9.79
-10.75
-10.46
-8.85
-6.33
-3.62
-1.58
-0.86
-1.66
-3.55
-5.72
-7.24
-7.55
-6.73
-5.42
-4.59
-5.02
-6.92
-9.93
-13.22
-15.91
-17.31
-17.05
-15.0
-11.23
-6.01
0.22
6.76
12.8
17.57
20.56
21.65
21.06
19.3
16.92
14.44
12.24
10.55
9.51
9.19
9.63
10.82
12.76
15.49
19.08
23.58
28.94
34.89
40.89
46.24
50.35
52.96
54.22
54.71
55.04
55.7
56.78
58.06
59.16
59.7
59.36
57.85
54.92
50.31
43.99
36.22
27.62
19.07
11.37
5.05
0.24
-3.32
-6.06
-8.4
-10.63
-12.83
-14.98
-17.04
-19.12
-21.34
-23.85
-26.69
-29.76
-32.79
-35.51
-37.78
-39.67
-41.5
-43.66
-46.49
-50.09
-54.26
-58.59
-62.54
-65.56
-67.13
-66.85
-64.44
-59.87
-53.31
-45.23
-36.32
-27.42
-19.4
-12.96
-8.49
-5.99
-5.05
-5.03
-5.19
-4.96
-3.98
-2.21
0.1
2.47
4.27
4.94
4.29
2.76
1.48
2.06
6.03
14.23
26.54
41.99
59.05
76.08
91.42
103.2
109.22
107.01
94.38
70.16
34.53
-11.07
-64.5
-123.27
-184.45
-244.08
-296.85
-336.81
-359.02
-361.62
-346.88
-320.73
-290.84
-264.11
-244.91
-234.44
-231.51
-233.54
-237.65
-241.02
-241.06
-235.53
-222.87
-202.51
-175.06
-142.16
-106.13
-69.38
-33.9
-0.76
30.22
60.47
92.22
127.54
167.23
210.2
253.38
292.5
323.42
343.41
352.05
351.18
344.03
334.1
324.07
315.28
307.85
301.26
294.94
288.72
282.87
277.87
274.15
271.84
270.82
270.74
271.3
272.37
273.94
275.91
277.97
279.54
280.06
279.17
276.79
272.95
267.38
259.29
247.42
230.6
208.3
181.05
150.31
117.87
85.36
53.71
23.22
-6.21
-34.76
-62.53
-89.66
-116.43
-143.42
-171.4
-201.1
-232.84
-266.15
-299.6
-331.05
-358.24
-379.58
-394.66
-404.26
-409.68
-411.99
-411.46
-407.66
-400.01
-388.2
-372.36
-352.8
-329.64
-302.85
-272.56
-239.55
-205.46
-172.4
-142.25
-116.08
-93.81
-74.45
-56.6
-38.99
-20.83
-2.08
16.66
34.28
49.59
61.73
70.5
76.45
80.53
83.74
86.68
89.39
91.5
92.38
91.52
88.74
84.29
78.85
73.31
68.46
64.78
62.29
60.67
59.47
58.24
56.68
54.58
51.83
48.36
44.14
39.25
33.87
28.33
23.07
18.52
15.0
12.53
10.87
9.5
7.87
5.65
2.91
0.06
-2.43
-4.34
-5.83
-7.44
-9.75
-13.1
-17.48
-22.5
-27.59
-32.19
-35.88
-38.32
-39.29
-38.64
-36.43
-32.96
-28.8
-24.6
-20.92
-17.96
-15.61
-13.51
-11.26
-8.63
-5.59
-2.33
0.9
3.84
6.34
8.32
9.84
11.04
12.17
13.55
15.49
18.27
21.97
26.49
31.54
36.71
41.58
45.75
48.97
51.09
52.13
52.24
51.7
50.85
50.02
49.32
48.66
47.7
46.0
43.19
39.13
34.01
28.32
22.68
17.66
13.56
10.37
7.75
5.22
2.4
-0.9
-4.54
-8.12
-11.21
-13.53
-15.06
-16.04
-16.84
-17.85
-19.26
-21.05
-23.01
-24.79
-26.04
-26.45
-25.78
-23.95
-21.01
-17.21
-12.94
-8.62
-4.64
-1.24
1.53
3.7
5.37
6.59
7.36
7.66
7.5
7.03
6.49
6.12
6.11
6.5
7.14
7.83
8.38
8.77
9.08
9.48
10.02
10.66
11.16
11.31
11.04
10.46
9.85
9.48
9.49
9.85
10.39
10.9
11.26
11.41
11.34
11.05
10.48
9.64
8.54
7.29
6.04
4.93
3.98
3.12
2.18
1.0
-0.49
-2.29
-4.29
-6.39
-8.53
-10.7
-12.92
-15.22
-17.61
-20.09
-22.65
-25.32
-28.04
-30.58
-32.53
-33.32
-32.44
-29.65
-25.07
-19.22
-12.76
-6.32
-0.31
5.06
9.71
13.55
16.42
18.22
18.96
18.87
18.31
17.69
17.28
17.15
17.19
17.27
17.3
17.32
17.45
17.8
18.39
19.11
19.81
20.3
20.49
20.34
19.89
19.17
18.24
17.18
16.06
14.96
13.95
13.02
12.08
11.04
9.77
8.26
6.57
4.85
3.31
2.07
1.19
0.61
0.16
-0.34
-1.08
-2.16
-3.6
-5.31
-7.16
-8.99
-10.68
-12.22
-13.68
-15.22
-17.07
-19.38
-22.2
-25.35
-28.49
-31.14
-32.74
-32.84
-31.22
-27.93
-23.34
-17.99
-12.44
-7.12
-2.29
1.98
5.63
8.63
10.9
12.42
13.23
13.48
13.39
13.19
13.0
12.91
12.92
13.05
13.3
13.73
14.35
15.14
15.97
16.72
17.27
17.55
17.52
17.2
16.62
15.83
14.88
13.83
12.79
11.83
11.05
10.5
10.19
10.07
10.04
10.02
9.94
9.72
9.32
8.65
7.67
6.37
4.83
3.22
1.72
0.45
-0.61
-1.57
-2.63
-3.88
-5.32
-6.87
-8.48
-10.13
-11.96
-14.1
-16.63
-19.55
-22.75
-26.05
-29.18
-31.78
-33.42
-33.67
-32.23
-29.08
-24.5
-19.05
-13.4
-8.11
-3.51
0.33
3.51
6.2
8.5
10.42
11.89
12.88
13.38
13.51
13.46
13.4
13.49
13.77
14.26
14.93
15.8
16.88
18.14
19.45
20.59
21.27
21.31
20.69
19.58
18.28
17.07
16.08
15.25
14.4
13.34
12.04
10.59
9.19
8.02
7.08
6.29
5.48
4.5
3.29
1.93
0.51
-0.84
-2.05
-3.14
-4.15
-5.14
-6.15
-7.2
-8.28
-9.38
-10.49
-11.57
-12.61
-13.63
-14.68
-15.86
-17.31
-19.11
-21.33
-23.88
-26.54
-28.95
-30.66
-31.2
-30.22
-27.6
-23.49
-18.3
-12.67
-7.24
-2.56
1.09
3.67
5.35
6.43
7.16
7.71
8.12
8.38
8.43
8.25
7.91
7.48
7.02
6.58
6.16
5.74
5.33
4.97
4.71
4.54
4.42
4.24
3.88
3.21
2.12
0.59
-1.32
-3.49
-5.78
-8.08
-10.42
-12.92
-15.76
-19.05
-22.75
-26.65
-30.55
-34.37
-38.19
-42.29
-46.92
-52.2
-57.94
-63.77
-69.34
-74.45
-79.21
-83.92
-88.85
-94.16
-99.87
-106.08
-113.12
-121.54
-131.6
-142.79
-153.39
-160.64
-161.45
-153.37
-135.29
-107.6
-71.65
-29.34
17.2
65.42
112.12
153.57
186.07
206.83
214.82
211.04
198.14
179.75
159.5
140.42
124.55
112.89
105.53
101.94
101.27
102.54
104.73
106.73
107.47
105.94
101.71
95.05
86.98
78.83
71.67
65.82
60.82
55.75
49.85
42.98
35.63
28.69
22.83
18.2
14.37
10.63
6.42
1.67
-3.25
-7.78
-11.52
-14.38
-16.63
-18.6
-20.5
-22.32
-23.9
-25.09
-25.9
-26.54
-27.29
-28.37
-29.76
-31.24
-32.47
-33.21
-33.47
-33.52
-33.82
-34.78
-36.58
-39.04
-41.6
-43.55
-44.14
-42.91
-39.8
-35.13
-29.56
-23.87
-18.67
-14.29
-10.72
-7.76
-5.22
-3.01
-1.24
-0.06
0.47
0.49
0.27
0.11
0.19
0.55
1.15
1.97
3.07
4.49
6.23
8.1
9.78
10.96
11.47
11.36
10.87
10.25
9.69
9.23
8.82
8.42
8.1
7.99
8.23
8.86
9.83
11.04
12.35
13.66
14.91
16.02
16.86
17.37
17.47
17.17
16.6
15.96
15.48
15.29
15.36
15.45
15.22
14.35
12.68
10.3
7.48
4.59
1.89
-0.56
-2.9
-5.35
-7.99
-10.72
-13.21
-15.11
-16.17
-16.38
-16.0
-15.38
-14.82
-14.41
-14.11
-13.8
-13.42
-13.06
-12.94
-13.32
-14.35
-16.02
-18.22
-20.75
-23.4
-25.99
-28.3
-30.1
-31.11
-31.07
-29.84
-27.46
-24.22
-20.57
-16.95
-13.73
-11.07
-8.96
-7.31
-6.04
-5.07
-4.3
-3.59
-2.77
-1.62
-0.06
1.85
3.88
5.74
7.2
8.19
8.83
9.36
9.93
10.6
11.24
11.63
11.58
11.01
10.01
8.69
7.21
5.68
4.14
2.66
1.25
-0.11
-1.56
-3.37
-5.83
-9.04
-12.79
-16.53
-19.47
-20.88
-20.44
-18.26
-14.83
-10.75
-6.5
-2.33
1.69
5.5
8.93
11.73
13.71
14.79
15.11
14.85
14.16
13.1
11.69
10.05
8.37
7.03
6.37
6.67
7.99
10.25
13.18
16.44
19.69
22.68
25.32
27.68
29.99
32.41
34.99
37.63
40.13
42.39
44.56
46.95
49.99
53.98
58.87
64.29
69.49
73.55
75.64
75.21
72.22
67.23
61.25
55.45
50.79
47.73
46.06
45.01
43.55
40.67
35.73
28.63
19.87
10.5
1.82
-5.08
-9.94
-13.75
-18.78
-27.94
-43.64
-66.7
-95.59
-126.69
-155.25
-176.86
-188.6
-189.72
-181.34
-165.83
-145.96
-124.4
-103.43
-84.88
-70.08
-59.71
-53.62
-50.89
-50.07
-49.67
-48.62
-46.65
-44.16
-41.92
-40.56
-40.25
-40.59
-40.84
-40.24
-38.35
-35.11
-30.85
-26.16
-21.66
-17.85
-14.92
-12.71
-10.73
-8.4
-5.34
-1.56
2.53
6.36
9.49
11.89
13.93
16.14
18.92
22.26
25.82
29.02
31.43
32.82
33.29
33.03
32.21
30.78
28.56
25.35
21.05
15.82
9.93
3.81
-2.13
-7.5
-11.93
-15.05
-16.53
-16.19
-14.07
-10.4
-5.64
-0.32
5.04
10.0
14.25
17.62
20.09
21.71
22.55
22.66
22.06
20.81
19.05
17.05
15.14
13.62
12.72
12.54
13.11
14.46
16.59
19.39
22.63
25.88
28.65
30.56
31.5
31.66
31.44
31.26
31.32
31.63
31.98
32.12
31.92
31.38
30.66
29.89
29.14
28.32
27.3
25.93
24.16
22.04
19.71
17.29
14.77
12.01
8.77
4.84
0.16
-5.16
-10.83
-16.54
-22.05
-27.3
-32.43
-37.71
-43.39
-49.58
-56.09
-62.48
-68.07
-72.09
-73.87
-72.96
-69.3
-63.17
-55.16
-45.99
-36.4
-27.0
-18.22
-10.31
-3.44
2.34
7.0
10.65
13.43
15.57
17.32
18.81
20.13
21.28
22.28
23.17
24.06
25.04
26.21
27.56
29.03
30.53
31.94
33.2
34.26
35.06
35.53
35.6
35.24
34.48
33.46
32.36
31.43
30.84
30.64
30.81
31.21
31.72
32.22
32.66
33.0
33.25
33.39
33.41
33.31
33.09
32.74
32.31
31.88
31.56
31.5
31.73
32.23
32.84
33.33
33.43
32.94
31.67
29.51
26.45
22.57
18.16
13.67
9.6
6.41
4.33
3.36
3.26
3.69
4.3
4.8
4.91
4.31
2.64
-0.41
-4.93
-10.62
-16.81
-22.59
-27.14
-29.93
-30.89
-30.27
-28.48
-25.86
-22.53
-18.42
-13.51
-7.9
-1.99
3.63
8.4
11.98
14.31
15.6
16.14
16.07
15.38
13.96
11.8
9.1
6.32
3.89
1.94
0.12
-2.44
-6.7
-13.41
-22.76
-34.41
-47.77
-62.27
-77.52
-93.22
-108.98
-124.24
-138.35
-150.88
-161.81
-171.4
-179.91
-187.07
-191.97
-193.39
-190.32
-182.56
-170.77
-156.23
-140.27
-123.95
-108.0
-92.9
-79.14
-67.18
-57.31
-49.5
-43.5
-38.87
-35.31
-32.67
-30.91
-30.04
-30.04
-30.93
-32.79
-35.57
-38.84
-41.44
-41.7
-37.82
-28.53
-13.5
6.73
31.53
60.85
95.48
136.21
182.39
230.86
275.95
310.99
330.64
332.88
319.71
296.05
267.71
239.42
213.83
191.53
171.97
154.31
137.97
122.65
108.24
94.62
81.64
69.13
56.95
45.0
33.48
22.78
13.41
5.69
-0.48
-5.72
-10.82
-16.38
-22.41
-28.35
-33.37
-36.88
-38.89
-40.04
-41.24
-43.33
-46.72
-51.32
-56.59
-61.72
-65.79
-67.88
-67.3
-63.7
-57.32
-48.94
-39.69
-30.65
-22.6
-15.79
-10.03
-5.0
-0.48
3.56
6.95
9.5
11.19
12.2
12.82
13.35
13.98
14.7
15.42
16.06
16.64
17.28
18.1
19.16
20.35
21.45
22.17
22.29
21.76
20.67
19.21
17.57
15.9
14.26
12.68
11.18
9.77
8.46
7.21
5.96
4.66
3.24
1.73
0.18
-1.31
-2.65
-3.87
-5.02
-6.21
-7.44
-8.62
-9.64
-10.42
-11.07
-11.82
-12.97
-14.69
-16.98
-19.65
-22.44
-25.24
-28.08
-31.1
-34.38
-37.81
-40.94
-43.16
-43.82
-42.44
-38.9
-33.4
-26.45
-18.74
-10.94
-3.65
2.71
7.88
11.79
14.49
16.11
16.85
16.92
16.51
15.79
14.89
13.92
12.96
12.09
11.43
11.09
11.19
11.81
12.86
14.15
15.38
16.25
16.57
16.34
15.72
14.93
14.06
13.02
11.61
9.64
7.08
4.16
1.31
-1.02
-2.54
-3.24
-3.37
-3.33
-3.53
-4.23
-5.49
-7.16
-8.92
-10.48
-11.63
-12.36
-12.85
-13.36
-14.17
-15.49
-17.41
-19.84
-22.63
-25.49
-28.19
-30.61
-32.82
-35.15
-38.04
-41.78
-46.24
-50.75
-54.26
-55.83
-55.01
-52.06
-47.81
-43.26
-39.24
-36.09
-33.81
-32.24
-31.32
-31.19
-32.04
-33.97
-36.78
-39.93
-42.56
-43.6
-42.02
-37.08
-28.68
-17.58
-5.33
6.14
15.1
20.66
22.97
23.11
22.51
22.41
23.32
24.99
26.69
27.75
28.02
27.86
27.95
28.74
30.05
31.04
30.65
28.16
23.6
17.8
11.89
6.64
2.11
-2.42
-7.86
-14.68
-22.46
-30.12
-36.45
-40.93
-44.02
-46.82
-50.37
-54.94
-60.03
-64.82
-68.89
-72.56
-76.7
-82.15
-89.25
-98.0
-108.48
-121.16
-136.64
-154.49
-172.19
-185.04
-187.46
-175.34
-148.03
-109.05
-65.08
-23.79
8.32
27.41
32.87
27.09
14.83
2.12
-5.27
-3.39
8.84
29.4
54.2
78.83
100.06
116.41
127.72
134.19
135.91
133.1
126.72
118.82
112.11
108.84
109.7
113.44
117.41
118.9
116.22
109.28
99.24
87.68
75.72
63.7
51.31
38.06
23.81
8.87
-6.15
-20.53
-33.57
-44.75
-53.6
-59.8
-63.49
-65.61
-68.13
-73.73
-84.98
-103.15
-127.2
-153.61
-177.25
-193.12
-198.14
-192.21
-177.97
-159.48
-140.47
-122.97
-107.0
-91.13
-73.44
-52.24
-26.53
3.92
38.38
74.98
110.71
141.82
164.74
177.16
178.8
171.27
157.46
140.44
122.62
105.49
89.92
76.61
66.34
59.88
57.47
58.56
61.58
64.42
65.05
62.27
56.28
48.73
42.13
38.91
40.46
46.58
55.62
65.18
73.08
78.12
80.21
80.05
78.46
75.8
71.87
66.21
58.66
49.68
40.37
32.04
25.67
21.46
18.93
17.18
15.4
13.24
10.91
8.95
7.87
7.83
8.52
9.3
9.43
8.43
6.26
3.26
0.02
-2.95
-5.39
-7.35
-9.17
-11.22
-13.72
-16.59
-19.48
-21.89
-23.42
-23.89
-23.36
-22.08
-20.35
-18.33
-16.06
-13.5
-10.69
-7.74
-4.89
-2.35
-0.25
1.42
2.74
3.77
4.51
4.92
4.96
4.63
4.01
3.24
2.48
1.87
1.53
1.52
1.86
2.49
3.29
4.1
4.81
5.37
5.82
6.23
6.62
6.95
7.13
7.08
6.78
6.28
5.69
5.06
4.42
3.74
3.0
2.22
1.47
0.79
0.17
-0.52
-1.46
-2.85
-4.76
-7.11
-9.67
-12.15
-14.38
-16.31
-18.06
-19.79
-21.61
-23.51
-25.43
-27.33
-29.19
-31.0
-32.66
-33.92
-34.39
-33.72
-31.77
-28.64
-24.66
-20.23
-15.71
-11.34
-7.3
-3.75
-0.88
1.17
2.39
2.89
2.97
2.94
3.06
3.42
3.99
4.69
5.39
6.1
6.88
7.82
8.97
10.23
11.46
12.43
13.0
13.14
12.94
12.51
11.95
11.24
10.34
9.22
7.96
6.7
5.64
