8.25
7.31
6.53
5.86
5.24
4.64
4.06
3.45
2.78
1.95
0.88
-0.48
-2.1
-3.87
-5.66
-7.34
-8.86
-10.21
-11.48
-12.76
-14.16
-15.78
-17.71
-19.95
-22.42
-24.9
-27.01
-28.37
-28.65
-27.67
-25.52
-22.45
-18.82
-14.96
-11.11
-7.38
-3.83
-0.49
2.56
5.19
7.3
8.84
9.84
10.42
10.75
11.0
11.3
11.7
12.2
12.71
13.14
13.44
13.64
13.84
14.14
14.57
15.01
15.29
15.23
14.75
13.92
12.97
12.09
11.42
10.97
10.66
10.39
10.07
9.72
9.35
8.96
8.48
7.84
7.0
5.95
4.78
3.57
2.42
1.35
0.3
-0.78
-1.94
-3.21
-4.59
-6.09
-7.73
-9.53
-11.46
-13.44
-15.36
-17.1
-18.64
-20.09
-21.57
-23.29
-25.31
-27.58
-29.79
-31.54
-32.37
-31.96
-30.15
-27.07
-23.05
-18.53
-13.92
-9.52
-5.49
-1.87
1.31
4.0
6.18
7.82
9.04
9.98
10.8
11.6
12.39
13.13
13.8
14.44
15.15
15.98
16.93
17.86
18.59
18.97
18.98
18.7
18.31
17.93
17.6
17.29
16.91
16.39
15.7
14.9
14.05
13.21
12.4
11.61
10.84
10.09
9.43
8.93
8.6
8.37
8.09
7.6
6.82
5.78
4.6
3.46
2.45
1.56
0.69
-0.27
-1.38
-2.6
-3.89
-5.2
-6.53
-7.91
-9.39
-11.02
-12.8
-14.77
-16.9
-19.2
-21.62
-24.09
-26.47
-28.6
-30.32
-31.44
-31.78
-31.18
-29.54
-26.85
-23.22
-18.93
-14.35
-9.91
-5.96
-2.71
-0.14
1.86
3.51
4.96
6.27
7.42
8.39
9.15
9.72
10.17
10.54
10.88
11.2
11.53
11.88
12.28
12.73
13.17
13.55
13.81
13.91
13.85
13.62
13.22
12.66
11.95
11.18
10.39
9.65
8.97
8.3
7.63
6.93
6.21
5.45
4.61
3.64
2.53
1.31
0.07
-1.1
-2.14
-3.1
-4.06
-5.11
-6.28
-7.49
-8.65
-9.7
-10.62
-11.49
-12.43
-13.51
-14.78
-16.25
-17.87
-19.63
-21.51
-23.43
-25.3
-26.85
-27.74
-27.57
-26.07
-23.19
-19.12
-14.29
-9.23
-4.41
-0.14
3.46
6.41
8.79
10.68
12.09
13.0
13.41
13.35
12.94
12.35
11.8
11.5
11.59
12.09
12.95
14.02
15.12
16.13
16.97
17.57
17.92
17.94
17.58
16.84
15.82
14.71
13.71
12.97
12.51
12.19
11.78
11.12
10.18
9.07
7.98
7.05
6.28
5.56
4.77
3.82
2.73
1.58
0.4
-0.86
-2.28
-3.92
-5.69
-7.45
-9.04
-10.4
-11.6
-12.79
-14.02
-15.26
-16.41
-17.42
-18.33
-19.35
-20.73
-22.59
-24.86
-27.21
-29.14
-30.12
-29.76
-27.91
-24.7
-20.5
-15.83
-11.22
-7.09
-3.69
-1.04
0.99
2.6
3.97
5.18
6.23
7.03
7.56
7.82
7.89
7.9
7.95
8.14
8.57
9.34
10.58
12.33
14.55
17.03
19.42
21.39
22.65
23.14
22.98
22.47
21.92
21.59
21.57
21.81
22.12
22.3
22.21
21.83
21.27
20.73
20.35
20.15
20.05
19.86
19.41
18.65
17.63
16.49
15.41
14.51
13.86
13.47
13.35
13.43
13.58
13.62
13.38
12.76
11.81
10.68
9.5
8.32
7.07
5.68
4.21
3.01
2.66
3.88
7.19
12.8
20.42
29.41
38.88
48.03
56.36
63.85
70.84
77.97
85.82
94.73
104.7
115.4
126.38
137.21
147.6
157.49
167.07
176.71
186.88
197.86
209.44
220.68
230.1
236.0
237.16
233.24
225.0
213.93
201.6
188.97
176.03
161.93
145.48
125.84
102.94
77.54
50.84
23.92
-2.66
-29.0
-55.59
-82.96
-111.46
-141.19
-172.01
-203.49
-234.77
-264.41
-290.6
-311.72
-327.01
-336.92
-342.96
-346.91
-349.94
-352.19
-352.83
-350.81
-345.51
-337.14
-326.47
-314.34
-301.13
-286.69
-270.47
-251.9
-230.61
-206.52
-179.9
-151.28
-121.39
-91.03
-60.88
-31.48
-3.2
23.46
47.74
68.58
84.92
96.06
101.95
103.22
100.82
95.73
88.66
80.12
70.59
60.54
50.38
40.32
30.36
20.44
10.7
1.57
-6.39
-12.8
-17.77
-21.87
-25.9
-30.45
-35.58
-40.77
-45.17
-48.05
-49.03
-48.18
-45.71
-41.71
-36.14
-28.94
-20.45
-11.59
-3.81
1.47
3.46
2.43
-0.49
-3.77
-6.24
-7.56
-8.14
-8.74
-9.88
-11.64
-13.58
-15.08
-15.52
-14.4
-11.47
-6.61
0.04
8.11
16.95
25.75
33.76
40.5
45.85
50.05
53.46
56.36
58.77
60.47
61.2
60.85
59.56
57.67
55.63
53.83
52.58
52.15
52.73
54.29
56.48
58.55
59.58
58.78
55.88
51.32
45.99
40.87
36.56
33.11
30.21
27.48
24.79
22.23
20.01
18.16
16.55
14.88
12.94
10.72
8.48
6.53
5.06
3.95
2.8
1.11
-1.44
-4.89
-8.96
-13.28
-17.63
-22.01
-26.69
-31.94
-37.9
-44.42
-51.1
-57.39
-62.69
-66.45
-68.18
-67.53
-64.37
-58.85
-51.49
-43.01
-34.15
-25.49
-17.38
-9.94
-3.23
2.7
7.75
11.82
14.91
17.13
18.66
19.72
20.49
21.11
21.75
22.58
23.78
25.44
27.49
29.7
31.75
33.33
34.25
34.44
33.97
32.96
31.58
29.99
28.35
26.82
25.46
24.29
23.26
22.28
21.22
19.95
18.41
16.61
14.66
12.7
10.9
9.33
7.98
6.73
5.47
4.11
2.61
0.93
-0.96
-3.14
-5.62
-8.37
-11.33
-14.44
-17.74
-21.4
-25.62
-30.48
-35.82
-41.19
-45.88
-49.06
-50.05
-48.48
-44.41
-38.28
-30.74
-22.57
-14.38
-6.61
0.52
6.88
12.45
17.17
21.03
24.04
26.27
27.86
28.97
29.73
30.21
30.51
30.67
30.8
31.03
31.5
32.27
33.26
34.29
35.12
35.59
35.62
35.31
34.78
34.12
33.31
32.26
30.85
29.02
26.84
24.48
22.13
19.95
18.04
16.4
14.98
13.69
12.47
11.24
9.97
8.65
7.29
5.92
4.59
3.32
2.09
0.81
-0.64
-2.37
-4.45
-6.81
-9.35
-11.88
-14.28
-16.48
-18.5
-20.42
-22.38
-24.55
-27.08
-30.11
-33.68
-37.59
-41.41
-44.44
-45.96
-45.42
-42.61
-37.78
-31.47
-24.4
-17.24
-10.52
-4.57
0.41
4.37
7.35
9.5
11.05
12.24
13.24
14.14
14.92
15.53
15.95
16.26
16.55
16.99
17.62
18.42
19.29
20.11
20.75
21.09
21.01
20.46
19.42
18.02
16.47
15.06
13.99
13.38
13.15
13.08
12.93
12.5
11.69
10.52
9.14
7.73
6.48
5.49
4.74
4.11
3.37
2.3
0.78
-1.17
-3.39
-5.67
-7.85
-9.91
-11.97
-14.28
-17.03
-20.36
-24.22
-28.46
-32.79
-36.85
-40.21
-42.39
-42.94
-41.53
-38.04
-32.7
-26.01
-18.73
-11.62
-5.29
-0.07
4.02
7.19
9.67
11.63
13.11
14.04
14.34
14.02
13.23
12.19
11.14
10.24
9.57
9.19
9.16
9.61
10.68
12.32
14.32
16.21
17.5
17.87
17.36
16.32
15.3
14.74
14.83
15.44
16.26
16.97
17.34
17.35
17.03
16.45
15.68
14.83
14.04
13.49
13.28
13.38
13.58
13.66
13.41
12.79
11.92
10.92
9.85
8.64
7.11
5.15
2.8
0.3
-2.12
-4.27
-6.2
-8.08
-10.13
-12.51
-15.22
-18.21
-21.42
-24.78
-28.13
-31.19
-33.44
-34.33
-33.36
-30.39
-25.67
-19.84
-13.63
-7.65
-2.27
2.46
6.56
10.05
12.86
14.92
16.22
16.85
16.96
16.64
15.85
14.49
12.48
9.92
7.12
4.47
2.32
0.84
0.05
-0.15
0.08
0.59
1.19
1.7
1.94
1.81
1.31
0.59
-0.2
-1.0
-1.9
-3.14
-4.99
-7.53
-10.62
-13.88
-16.79
-18.94
-20.1
-20.28
-19.6
-18.18
-16.03
-13.12
-9.47
-5.37
-1.35
1.95
4.0
4.52
3.66
1.82
-0.5
-2.88
-5.09
-7.04
-8.79
-10.41
-12.01
-13.69
-15.5
-17.38
-19.04
-19.96
-19.54
-17.27
-13.03
-7.16
-0.42
6.31
12.25
16.96
20.38
22.73
24.27
25.17
25.49
25.28
24.6
23.71
22.88
22.35
22.18
22.25
22.36
22.35
22.22
22.15
22.33
22.89
23.77
24.79
25.7
26.39
26.88
27.38
28.11
29.28
30.98
33.21
35.89
38.86
41.93
44.87
47.46
49.58
51.26
52.7
54.31
56.48
59.5
63.41
68.01
72.96
77.92
82.68
87.16
91.39
95.36
99.03
102.24
104.76
106.28
106.45
104.91
101.33
95.54
87.59
77.72
66.32
53.64
39.74
24.36
7.11
-12.3
-33.74
-56.47
-79.08
-99.75
-116.68
-128.48
-134.54
-135.19
-131.53
-125.16
-117.84
-111.04
-105.83
-102.65
-101.39
-101.59
-102.6
-103.82
-104.77
-105.15
-104.7
-103.16
-100.23
-95.65
-89.34
-81.5
-72.56
-63.1
-53.61
-44.42
-35.61
-27.15
-18.92
-10.85
-2.85
5.19
13.46
22.14
31.34
40.84
50.06
58.15
64.18
67.46
67.82
65.63
61.69
56.93
52.04
47.22
42.13
36.11
28.53
19.16
8.12
-4.17
-17.15
-30.12
-42.11
-51.87
-58.18
-60.39
-58.82
-54.86
-50.42
-47.14
-45.73
-45.89
-46.77
-47.73
-48.78
-50.48
-53.34
-57.27
-61.4
-64.33
-64.79
-62.19
-56.88
-50.02
-43.06
-37.26
-33.12
-30.35
-28.19
-25.8
-22.83
-19.57
-16.72
-15.06
-14.95
-16.18
-18.15
-20.14
-21.72
-22.9
-24.11
-25.9
-28.66
-32.42
-36.85
-41.46
-45.89
-50.17
-54.78
-60.48
-68.0
-77.65
-89.13
-101.63
-114.13
-125.71
-135.75
-143.89
-149.89
-153.33
-153.64
-150.11
-142.14
-129.47
-112.33
-91.44
-68.02
-43.76
-20.67
-0.93
13.37
20.65
20.21
12.55
-0.47
-15.83
-30.03
-39.98
-43.91
-41.69
-34.55
-24.23
-12.07
1.38
16.16
32.24
48.98
65.02
78.89
89.7
97.63
103.79
109.6
116.01
123.09
130.09
135.96
139.84
141.46
141.11
139.36
136.72
133.31
128.91
123.18
116.05
107.96
99.78
92.59
87.21
83.87
82.19
81.38
80.63
79.33
77.29
74.54
71.28
67.64
63.7
59.47
54.97
50.23
45.36
40.54
35.97
31.86
28.34
25.36
22.78
20.4
18.05
15.68
13.37
11.19
9.19
7.28
5.36
3.37
1.36
-0.52
-2.15
-3.44
-4.49
-5.49
-6.66
-8.12
-9.87
-11.83
-13.84
-15.8
-17.6
-19.11
-20.16
-20.49
-19.87
-18.23
-15.68
-12.51
-9.16
-5.97
-3.19
-0.87
1.07
2.77
4.34
5.83
7.23
8.5
9.59
10.5
11.22
11.75
12.05
12.12
12.0
11.8
11.68
11.75
12.01
12.36
12.59
12.54
12.16
11.52
10.78
10.08
9.45
8.79
7.99
6.97
5.81
4.7
3.86
3.42
3.38
3.63
3.99
4.33
4.57
4.62
4.44
4.01
3.29
2.33
1.24
0.15
-0.85
-1.72
-2.54
-3.44
-4.56
-6.01
-7.81
-9.86
-11.95
-13.81
-15.15
-15.78
-15.58
-14.59
-12.95
-10.92
-8.72
-6.56
-4.53
-2.64
-0.86
0.82
2.38
3.73
4.79
5.55
6.05
6.41
6.69
6.91
7.08
7.2
7.33
7.57
7.97
8.49
9.01
9.41
9.6
9.62
9.54
9.4
9.18
8.83
8.3
7.62
6.93
6.32
5.86
5.48
5.08
4.55
3.9
3.18
2.48
1.86
1.31
0.84
0.4
0.01
-0.38
-0.77
-1.22
-1.76
-2.45
-3.31
-4.37
-5.62
-7.01
-8.45
-9.81
-10.99
-11.97
-12.77
-13.53
-14.36
-15.36
-16.51
-17.73
-18.83
-19.58
-19.73
-19.09
-17.62
-15.42
-12.78
-10.02
-7.45
-5.23
-3.37
-1.77
-0.27
1.22
2.7
4.08
5.26
6.19
6.89
7.39
7.75
7.96
8.01
7.93
7.76
7.61
7.58
7.71
7.99
8.31
8.58
8.75
8.82
8.86
8.93
9.02
9.09
9.07
8.84
8.34
7.59
6.65
5.71
4.97
4.55
4.49
4.62
4.7
4.52
3.98
3.13
2.15
1.2
0.36
-0.42
-1.25
-2.2
-3.26
-4.34
-5.38
-6.41
-7.51
-8.8
-10.31
-12.02
-13.8
-15.51
-17.05
-18.42
-19.57
-20.43
-20.89
-20.78
-19.96
-18.4
-16.29
-13.91
-11.62
-9.66
-8.13
-6.91
-5.76
-4.46
-2.95
-1.31
0.26
1.54
2.44
2.95
3.22
3.39
3.59
3.84
4.14
4.44
4.68
4.87
5.04
5.23
5.45
5.63
5.68
5.5
5.05
4.42
3.79
3.38
3.26
3.37
3.5
3.43
2.99
2.21
1.23
0.25
-0.59
-1.23
-1.7
-2.02
-2.21
-2.32
-2.49
-2.89
-3.66
-4.87
-6.44
-8.15
-9.82
-11.36
-12.81
-14.29
-15.86
-17.48
-18.93
-19.93
-20.25
-19.79
-18.62
-16.97
-15.08
-13.2
-11.39
-9.63
-7.82
-5.87
-3.8
-1.73
0.19
1.83
3.24
4.49
5.71
6.91
7.99
8.78
9.22
9.33
9.3
9.35
9.62
10.09
10.58
10.92
10.97
10.76
10.41
10.07
9.84
9.69
9.52
9.23
8.74
8.08
7.31
6.53
5.83
5.22
4.73
4.36
4.09
3.87
3.69
3.47
3.18
2.74
2.16
1.42
0.57
-0.33
-1.22
-2.05
-2.82
-3.59
-4.42
-5.4
-6.55
-7.83
-9.18
-10.54
-11.87
-13.22
-14.63
-16.12
-17.59
-18.88
-19.77
-20.04
-19.64
-18.61
-17.09
-15.27
-13.27
-11.17
-8.98
-6.73
-4.49
-2.4
-0.58
0.87
1.94
2.71
3.33
3.91
4.5
5.07
5.6
6.08
6.55
7.05
7.58
8.14
8.69
9.26
9.89
10.6
11.41
12.23
12.88
13.24
13.23
12.9
12.37
11.76
11.13
10.5
9.84
9.14
8.46
7.87
7.38
6.97
6.57
6.11
5.55
4.91
4.22
3.48
2.67
1.75
0.71
-0.44
-1.65
-2.89
-4.17
-5.53
-7.0
-8.56
-10.15
-11.75
-13.36
-15.08
-16.99
-19.03
-20.99
-22.55
-23.39
-23.37
-22.54
-21.09
-19.23
-17.05
-14.54
-11.67
-8.52
-5.34
-2.47
-0.15
1.54
2.69
3.52
4.26
4.98
5.68
6.27
6.72
7.02
7.26
7.48
7.71
7.96
8.18
8.34
8.44
8.52
8.6
8.73
8.88
9.01
9.02
8.86
8.5
8.0
7.48
7.06
6.81
6.73
6.74
6.74
6.6
6.26
5.68
4.88
3.9
2.81
1.68
0.56
-0.54
-1.62
-2.7
-3.76
-4.75
-5.63
-6.36
-6.97
-7.58
-8.3
-9.24
-10.47
-11.99
-13.76
-15.6
-17.3
-18.53
-19.02
-18.61
-17.33
-15.43
-13.21
-10.99
-8.94
-7.09
-5.38
-3.73
-2.12
-0.52
1.02
2.5
3.88
5.16
6.28
7.19
7.89
8.4
8.79
9.11
9.4
9.64
9.84
10.0
10.18
10.4
10.67
10.93
11.09
11.1
10.96
10.72
10.45
10.17
9.86
9.44
8.85
8.07
7.17
6.24
5.35
4.57
3.91
3.37
2.93
2.58
2.31
2.09
1.85
1.53
1.07
0.44
-0.39
-1.38
-2.5
-3.65
-4.78
-5.83
-6.81
-7.79
-8.91
-10.26
-11.84
-13.56
-15.24
-16.74
-17.97
-18.92
-19.63
-20.03
-20.01
-19.39
-18.04
-16.01
-13.49
-10.78
-8.13
-5.74
-3.66
-1.85
-0.27
1.08
2.23
3.18
3.99
4.71
5.38
6.06
6.73
7.38
7.96
8.46
8.88
9.26
9.66
10.17
10.8
11.48
12.05
12.34
12.25
11.82
11.24
10.71
10.37
10.19
10.05
9.77
9.28
8.61
7.84
7.12
6.46
5.85
5.18
4.38
3.42
2.41
1.5
0.83
0.49
0.4
0.35
0.14
-0.43
-1.37
-2.63
-4.02
-5.43
-6.76
-7.99
-9.13
-10.21
-11.26
-12.32
-13.46
-14.67
-15.89
-16.98
-17.72
-17.93
-17.49
-16.37
-14.66
-12.56
-10.29
-8.07
-6.01
-4.18
-2.54
-1.06
0.27
1.42
2.38
3.14
3.76
4.35
4.97
5.66
6.35
6.94
7.37
7.62
7.76
7.87
8.01
8.19
8.38
8.52
8.59
8.59
8.53
8.45
8.39
8.36
8.36
8.38
8.38
8.29
8.04
7.59
6.95
6.23
5.54
4.98
4.55
4.17
3.71
3.1
2.32
1.48
0.72
0.11
-0.36
-0.82
-1.44
-2.32
-3.48
-4.78
-6.09
-7.33
-8.51
-9.74
-11.15
-12.82
-14.71
-16.69
-18.54
-20.03
-20.98
-21.2
-20.62
-19.22
-17.1
-14.5
-11.73
-9.11
-6.85
-4.99
-3.43
-2.01
-0.58
0.86
2.26
3.5
4.55
5.41
6.2
6.99
7.79
8.54
9.12
9.47
9.58
9.54
9.5
9.59
9.85
10.27
10.75
11.18
11.5
11.69
11.8
11.81
11.68
11.35
10.74
9.9
8.95
8.05
7.34
6.87
6.56
6.29
5.96
5.54
5.06
4.55
4.05
3.52
2.92
2.18
1.27
0.17
-1.06
-2.31
-3.47
-4.44
-5.19
-5.8
-6.4
-7.11
-8.0
-9.07
-10.3
-11.69
-13.21
-14.77
-16.2
-17.21
-17.55
-17.1
-15.94
-14.32
-12.5
-10.67
-8.88
-7.08
-5.22
-3.36
-1.6
-0.08
1.12
2.0
2.67
3.25
3.83
4.47
5.11
5.67
6.07
6.27
6.33
6.38
6.59
7.02
7.65
8.3
8.77
8.92
8.75
8.35
7.88
7.45
7.09
6.78
6.5
6.25
5.99
5.72
5.33
4.78
4.02
3.11
2.19
1.42
0.88
0.54
0.28
-0.06
-0.57
-1.28
-2.11
-2.97
-3.82
-4.64
-5.49
-6.42
-7.51
-8.82
-10.38
-12.19
-14.18
-16.17
-17.89
-19.08
-19.51
-19.09
-17.91
-16.13
-13.97
-11.58
