24.74
24.58
24.16
23.5
22.64
21.65
20.65
19.68
18.74
17.75
16.68
15.48
14.21
13.03
12.06
11.36
10.84
10.33
9.66
8.75
7.62
6.39
5.17
3.98
2.79
1.52
0.08
-1.55
-3.35
-5.24
-7.21
-9.19
-11.14
-13.01
-14.74
-16.35
-17.91
-19.57
-21.49
-23.82
-26.63
-29.89
-33.4
-36.74
-39.28
-40.31
-39.22
-35.8
-30.3
-23.47
-16.22
-9.4
-3.49
1.38
5.33
8.47
10.86
12.5
13.45
13.91
14.14
14.43
14.88
15.44
15.93
16.19
16.18
15.99
15.83
15.84
16.11
16.61
17.24
17.88
18.48
19.0
19.39
19.57
19.43
18.81
17.67
16.08
14.22
12.37
10.73
9.41
8.39
7.53
6.7
5.83
4.92
4.02
3.18
2.38
1.59
0.75
-0.2
-1.28
-2.52
-3.93
-5.55
-7.4
-9.48
-11.67
-13.83
-15.8
-17.51
-19.0
-20.47
-22.19
-24.43
-27.28
-30.56
-33.77
-36.17
-37.02
-35.78
-32.35
-27.09
-20.69
-13.96
-7.59
-2.01
2.64
6.43
9.48
11.89
13.72
15.01
15.76
16.05
15.98
15.71
15.38
15.1
14.96
15.03
15.35
15.95
16.83
17.89
19.03
20.07
20.89
21.4
21.53
21.28
20.63
19.59
18.23
16.71
15.19
13.83
12.69
11.7
10.75
9.76
8.78
7.91
7.28
6.94
6.8
6.65
6.3
5.64
4.69
3.56
2.38
1.19
-0.04
-1.36
-2.79
-4.27
-5.76
-7.22
-8.72
-10.36
-12.26
-14.41
-16.68
-18.9
-20.92
-22.76
-24.57
-26.64
-29.21
-32.36
-35.87
-39.19
-41.55
-42.16
-40.51
-36.52
-30.64
-23.64
-16.46
-9.82
-4.15
0.45
4.14
7.07
9.42
11.21
12.51
13.37
13.87
14.14
14.23
14.23
14.19
14.18
14.29
14.61
15.23
16.16
17.32
18.56
19.67
20.43
20.69
20.4
19.65
18.58
17.41
16.33
15.4
14.65
13.99
13.33
12.63
11.9
11.16
10.44
9.71
8.88
7.92
6.85
5.75
4.69
3.69
2.66
1.47
0.06
-1.54
-3.21
-4.82
-6.34
-7.86
-9.5
-11.32
-13.31
-15.34
-17.34
-19.25
-21.14
-23.13
-25.34
-27.85
-30.61
-33.44
-35.97
-37.69
-38.01
-36.5
-33.0
-27.78
-21.46
-14.78
-8.44
-2.87
1.78
5.57
8.61
11.04
12.89
14.16
14.88
15.09
14.95
14.69
14.51
14.57
14.91
15.45
16.06
16.63
17.1
17.53
17.96
18.41
18.79
18.91
18.6
17.79
16.49
14.89
13.18
11.52
9.97
8.53
7.16
5.84
4.6
3.5
2.56
1.75
1.0
0.25
-0.52
-1.31
-2.09
-2.89
-3.83
-5.01
-6.49
-8.26
-10.17
-12.07
-13.81
-15.36
-16.8
-18.34
-20.17
-22.5
-25.38
-28.66
-32.01
-34.9
-36.74
-37.01
-35.38
-31.82
-26.59
-20.22
-13.37
-6.71
-0.77
4.13
7.91
10.67
12.58
13.84
14.59
14.97
15.08
15.07
15.03
15.02
15.06
15.11
15.2
15.37
15.75
16.41
17.31
18.32
19.24
19.88
20.16
20.09
19.73
19.16
18.4
17.45
16.36
15.2
14.1
13.11
12.24
11.42
10.56
9.6
8.6
7.68
6.95
6.47
6.14
5.79
5.19
4.22
2.89
1.35
-0.18
-1.55
-2.72
-3.8
-4.93
-6.27
-7.83
-9.54
-11.29
-12.97
-14.61
-16.32
-18.2
-20.37
-22.82
-25.51
-28.37
-31.35
-34.38
-37.3
-39.73
-41.15
-40.96
-38.72
-34.36
-28.23
-21.06
-13.66
-6.75
-0.77
4.14
8.01
10.98
13.21
14.82
15.92
16.62
17.0
17.12
17.01
16.74
16.43
16.22
16.22
16.49
16.99
17.62
18.26
18.82
19.27
19.57
19.73
19.69
19.36
18.7
17.72
16.56
15.37
14.34
13.5
12.76
11.92
10.82
9.4
7.8
6.27
5.05
4.22
3.7
3.29
2.75
1.98
0.97
-0.16
-1.25
-2.23
-3.11
-4.01
-5.1
-6.48
-8.16
-10.01
-11.83
-13.47
-14.86
-16.13
-17.49
-19.22
-21.52
-24.48
-28.0
-31.81
-35.46
-38.38
-39.94
-39.6
-37.13
-32.66
-26.69
-19.95
-13.15
-6.88
-1.43
3.08
6.65
9.33
11.24
12.49
13.28
13.8
14.17
14.42
14.51
14.44
14.28
14.18
14.29
14.71
15.43
16.29
17.15
17.85
18.32
18.55
18.55
18.34
17.92
17.28
16.44
15.44
14.31
13.13
11.87
10.56
9.18
7.78
6.45
5.29
4.42
3.85
3.49
3.19
2.74
2.0
0.91
-0.45
-1.96
-3.49
-4.95
-6.38
-7.86
-9.49
-11.3
-13.22
-15.13
-16.93
-18.59
-20.24
-22.09
-24.38
-27.26
-30.69
-34.38
-37.79
-40.26
-41.16
-40.01
-36.72
-31.54
-25.07
-18.01
-11.04
-4.66
0.85
5.41
9.02
11.75
13.7
14.99
15.78
16.21
16.41
16.49
16.53
16.54
16.56
16.57
16.59
16.65
16.82
17.18
17.8
18.66
19.65
20.55
21.15
21.29
20.91
20.09
18.97
17.69
16.39
15.15
14.03
12.99
12.04
11.11
10.23
9.41
8.7
8.11
7.6
7.09
6.44
5.54
4.35
2.9
1.29
-0.35
-1.91
-3.32
-4.57
-5.74
-6.97
-8.4
-10.13
-12.14
-14.27
-16.33
-18.14
-19.66
-21.03
-22.5
-24.35
-26.74
-29.7
-33.03
-36.39
-39.27
-41.1
-41.3
-39.46
-35.48
-29.65
-22.62
-15.26
-8.37
-2.53
2.04
5.47
7.99
9.89
11.33
12.43
13.24
13.85
14.29
14.65
14.91
15.1
15.23
15.36
15.58
15.97
16.57
17.33
18.15
18.87
19.37
19.54
19.36
18.87
18.17
17.41
16.67
15.97
15.26
14.41
13.39
12.23
11.07
10.07
9.32
8.79
8.33
7.72
6.78
5.44
3.81
2.04
0.37
-1.07
-2.21
-3.11
-3.91
-4.85
-6.1
-7.72
-9.7
-11.83
-13.94
-15.86
-17.58
-19.19
-20.86
-22.77
-25.02
-27.62
-30.42
-33.15
-35.39
-36.59
-36.25
-34.03
-29.88
-24.15
-17.46
-10.54
-4.06
1.53
6.09
9.62
12.26
14.12
15.31
15.89
15.99
15.77
15.43
15.16
15.06
15.16
15.4
15.72
16.09
16.54
17.11
17.81
18.54
19.17
19.49
19.39
18.86
18.01
17.02
16.05
15.21
14.49
13.85
13.19
12.47
11.65
10.75
9.77
8.74
7.71
6.73
5.88
5.19
4.68
4.28
3.88
3.34
2.56
1.45
0.03
-1.61
-3.33
-5.02
-6.65
-8.31
-10.08
-12.01
-14.06
-16.1
-17.99
-19.63
-21.09
-22.58
-24.38
-26.75
-29.75
-33.21
-36.63
-39.29
-40.42
-39.4
-36.01
-30.52
-23.59
-16.11
-8.95
-2.71
2.29
6.07
8.79
10.7
12.06
13.06
13.83
14.47
15.01
15.46
15.79
16.03
16.19
16.3
16.43
16.63
16.93
17.34
17.86
18.44
18.97
19.34
19.45
19.21
18.65
17.86
16.95
16.05
15.25
14.51
13.76
12.93
11.95
10.85
9.7
8.62
7.68
6.93
6.34
5.84
5.33
4.71
3.86
2.72
1.31
-0.25
-1.78
-3.15
-4.33
-5.43
-6.59
-7.98
-9.66
-11.56
-13.53
-15.39
-17.05
-18.52
-19.97
-21.63
-23.75
-26.47
-29.7
-33.08
-36.0
-37.74
-37.74
-35.72
-31.83
-26.54
-20.51
-14.34
-8.5
-3.23
1.37
5.24
8.36
10.7
12.27
13.16
13.57
13.7
13.73
13.74
13.77
13.84
13.95
14.15
14.49
14.98
15.59
16.23
16.76
17.09
17.13
16.89
16.41
15.77
15.05
14.26
13.35
12.26
10.94
9.45
7.91
6.46
5.24
4.29
3.51
2.8
2.01
1.1
0.09
-0.93
-1.92
-2.88
-3.93
-5.18
-6.7
-8.43
-10.2
-11.78
-13.03
-13.92
-14.64
-15.44
-16.61
-18.37
-20.85
-23.99
-27.53
-31.01
-33.8
-35.22
-34.76
-32.22
-27.8
-22.02
-15.63
-9.29
-3.54
1.35
5.3
8.38
10.72
12.5
13.86
14.85
15.46
15.66
15.44
14.89
14.23
13.73
13.6
13.9
14.55
15.4
16.31
17.2
18.06
18.88
19.56
19.89
19.7
18.9
17.58
16.0
14.46
13.16
12.16
11.32
10.45
9.38
8.1
6.72
5.46
4.55
4.15
4.24
4.63
4.97
4.91
4.27
3.04
1.5
-0.05
-1.37
-2.45
-3.5
-4.77
-6.44
-8.54
-10.93
-13.42
-15.9
-18.29
-20.52
-22.53
-24.31
-25.98
-27.8
-30.13
-33.16
-36.77
-40.33
-42.89
-43.47
-41.44
-36.75
-29.97
-22.05
-14.04
-6.73
-0.52
4.5
8.43
11.41
13.55
14.93
15.69
15.98
15.97
15.75
15.37
14.87
14.36
14.04
14.1
14.64
15.65
16.98
18.4
19.74
20.82
21.5
21.66
21.23
20.27
18.97
17.6
16.42
15.55
14.92
14.32
13.6
12.67
11.61
10.56
9.71
9.1
8.68
8.27
7.67
6.74
5.44
3.9
2.28
0.74
-0.65
-1.93
-3.14
-4.3
-5.41
-6.48
-7.55
-8.71
-10.04
-11.57
-13.17
-14.74
-16.15
-17.5
-19.01
-21.01
-23.71
-27.14
-31.05
-34.96
-38.25
-40.3
-40.56
-38.75
-34.89
-29.35
-22.73
-15.74
-8.99
-2.91
2.25
6.38
9.49
11.65
13.01
13.78
14.17
14.31
14.3
14.14
13.9
13.7
13.7
13.99
14.56
15.3
16.06
16.71
17.22
17.6
17.8
17.77
17.45
16.8
15.86
14.73
13.53
12.32
11.13
9.96
8.8
7.7
6.68
5.76
4.96
4.25
3.61
3.03
2.47
1.87
1.15
0.26
-0.87
-2.23
-3.8
-5.52
-7.35
-9.27
-11.21
-13.14
-14.97
-16.64
-18.12
-19.53
-21.04
-22.92
-25.35
-28.35
-31.64
-34.61
-36.52
-36.66
-34.66
-30.6
-25.02
-18.71
-12.43
-6.7
-1.75
2.41
5.86
8.64
10.72
12.12
12.93
13.35
13.6
13.86
14.2
14.59
14.95
15.22
15.41
15.56
15.76
16.09
16.57
17.23
18.02
18.82
19.5
19.9
19.94
19.62
19.04
18.3
17.49
16.67
15.8
14.83
13.76
12.55
11.25
9.94
8.7
7.64
6.78
6.12
5.5
4.77
3.77
2.47
0.97
-0.54
-1.81
-2.76
-3.42
-4.01
-4.8
-5.99
-7.63
-9.65
-11.86
-14.06
-16.1
-17.9
-19.45
-20.87
-22.35
-24.14
-26.44
-29.29
-32.45
-35.37
-37.35
-37.7
-36.02
-32.37
-27.18
-21.12
-14.85
-8.84
-3.36
1.45
5.53
8.82
11.31
13.07
14.27
15.1
15.72
16.19
16.49
16.63
16.64
16.62
16.63
16.7
16.8
16.88
16.93
17.01
17.18
17.44
17.74
18.0
18.15
18.14
17.99
17.67
17.15
16.42
15.45
14.28
12.94
11.46
9.9
8.26
6.63
5.12
3.85
2.87
2.14
1.54
0.92
0.16
-0.76
-1.78
-2.79
-3.78
-4.72
-5.73
-6.88
-8.23
-9.74
-11.28
-12.73
-14.0
-15.12
-16.25
-17.61
-19.43
-21.85
-24.82
-28.08
-31.21
-33.62
-34.76
-34.19
-31.75
-27.62
-22.23
-16.19
-10.11
-4.47
0.45
4.49
7.65
10.0
11.63
12.64
13.17
13.34
13.28
13.11
12.95
12.88
12.93
13.09
13.3
13.51
13.73
13.98
14.31
14.74
15.21
15.59
15.75
15.59
15.11
14.37
13.47
12.47
11.42
10.31
9.13
7.88
6.6
5.32
4.1
2.98
1.97
1.02
0.09
-0.85
-1.84
-2.86
-3.89
-4.96
-6.11
-7.38
-8.79
-10.34
-11.95
-13.55
-15.09
-16.56
-18.0
-19.49
-21.2
-23.28
-25.83
-28.73
-31.58
-33.74
-34.54
-33.44
-30.35
-25.54
-19.67
-13.47
-7.58
-2.48
1.58
4.54
6.41
7.32
7.47
7.11
6.47
5.7
4.86
3.96
2.98
1.93
0.85
-0.23
-1.3
-2.31
-3.2
-3.9
-4.38
-4.72
-5.09
-5.75
-6.89
-8.59
-10.79
-13.31
-15.93
-18.36
-20.31
-21.52
-21.94
-21.8
-21.68
-22.33
-24.32
-27.77
-32.1
-36.27
-39.25
-40.72
-41.49
-43.38
-48.6
-58.8
-74.34
-93.97
-115.27
-135.29
-151.4
-161.68
-165.22
-162.14
-153.85
-143.25
-134.46
-131.8
-137.96
-152.4
-170.7
-185.84
-190.7
-180.92
-156.44
-121.26
-81.33
-42.0
-6.17
26.13
56.87
88.58
123.35
162.29
205.48
251.68
297.81
338.65
367.43
377.6
365.42
331.95
283.43
229.35
179.05
138.59
109.32
88.81
73.19
59.68
47.55
37.67
31.03
27.52
25.84
24.29
21.85
18.67
15.94
14.96
16.37
19.68
23.65
26.93
28.77
29.34
29.53
30.35
32.33
35.23
38.29
40.77
42.41
43.62
45.16
47.68
51.27
55.4
59.23
61.98
63.24
63.06
61.61
59.03
55.15
49.71
42.6
34.19
25.5
18.06
13.45
12.86
16.69
24.36
34.4
44.68
52.86
56.78
55.01
47.19
34.18
17.88
0.69
-15.16
-28.08
-37.51
-43.75
-47.7
-50.41
-52.7
-55.05
-57.48
-59.78
-61.66
-62.88
-63.36
-63.17
-62.46
-61.31
-59.55
-56.76
-52.27
-45.53
-36.41
-25.51
-14.02
-3.3
5.62
12.47
17.7
22.12
26.38
30.58
34.31
36.9
37.74
36.52
33.29
28.27
21.76
14.09
5.68
-2.9
-10.81
-17.05
-20.66
-20.91
-17.58
-11.05
-2.33
7.13
15.71
21.88
24.49
22.93
17.4
8.93
-0.84
-10.12
-17.63
-22.93
-26.51
-29.27
-32.07
-35.28
-38.81
-42.37
-45.83
-49.33
-53.18
-57.52
-62.1
-66.28
-69.22
-70.25
-69.04
-65.7
-60.65
-54.55
-48.14
-42.09
-36.9
-32.9
-30.22
-28.85
-28.69
-29.58
-31.29
-33.45
-35.61
-37.29
-38.06
-37.66
-36.05
-33.37
-29.94
-26.07
-22.03
-17.91
-13.66
-9.17
-4.39
0.61
5.52
9.95
13.55
16.14
17.78
18.75
19.41
20.03
20.76
21.52
22.11
22.3
22.0
21.29
20.42
19.71
19.4
19.62
20.27
21.17
22.11
22.86
23.34
23.46
23.27
22.82
22.23
21.64
21.19
20.97
20.98
21.15
21.28
21.15
20.53
19.27
17.35
14.85
12.03
9.16
6.48
4.13
2.13
0.39
-1.21
-2.7
-4.07
-5.25
-6.18
-6.88
-7.44
-7.99
-8.63
-9.38
-10.22
-11.12
-12.05
-13.04
-14.1
-15.24
-16.38
-17.43
-18.26
-18.79
-18.96
-18.83
-18.5
-18.17
-18.09
-18.45
-19.32
-20.66
-22.21
-23.69
-24.77
-25.23
-24.97
-23.95
-22.23
-19.9
-17.05
-13.8
-10.3
-6.7
-3.17
0.08
2.9
5.18
6.87
8.05
8.81
9.23
9.32
8.95
8.02
6.47
4.38
2.02
-0.25
-2.1
-3.32
-3.87
-3.83
-3.37
-2.64
-1.74
-0.77
0.26
1.29
2.28
3.17
3.88
4.29
4.3
3.84
2.9
1.55
-0.12
-2.04
-4.12
-6.28
-8.36
-10.23
-11.75
-12.89
-13.74
-14.48
-15.3
-16.33
-17.59
-18.96
-20.26
-21.31
-22.01
-22.38
-22.48
-22.35
-21.97
-21.25
-20.04
-18.28
-15.98
-13.33
-10.55
-7.85
-5.34
-3.07
-1.02
0.77
2.28
3.5
4.43
5.18
5.82
6.4
6.9
7.28
7.53
7.68
7.83
8.06
8.41
8.85
9.3
9.72
10.07
10.35
10.53
10.61
10.56
10.39
10.11
9.76
9.34
8.83
8.19
7.4
6.53
5.68
4.95
4.32
3.77
3.24
2.74
2.36
2.18
2.23
2.43
2.59
2.53
2.15
1.46
0.57
-0.38
-1.33
-2.3
-3.34
-4.5
-5.79
-7.18
-8.61
-10.05
-11.5
-12.98
-14.54
-16.19
-17.89
-19.54
-20.99
-22.04
-22.46
-22.08
-20.74
-18.38
-15.09
-11.05
-6.59
-2.11
2.02
5.55
8.34
10.43
11.95
13.02
13.73
14.11
14.15
13.87
13.34
12.68
12.04
11.54
11.22
11.07
11.06
11.16
11.34
11.6
11.91
12.19
12.31
12.17
11.71
10.99
10.15
9.33
8.64
8.07
7.56
7.0
6.36
5.65
4.88
4.08
3.24
2.31
1.26
0.1
-1.11
-2.29
-3.38
-4.34
-5.17
-5.93
-6.66
-7.41
-8.22
-9.12
-10.14
-11.29
-12.58
-14.02
-15.65
-17.47
-19.52
-21.75
-24.05
-26.27
-28.18
-29.51
-29.99
-29.37
-27.47
-24.25
-19.88
-14.68
-9.14
-3.78
0.92
4.68
7.44
9.34
10.61
11.51
12.17
12.62
12.77
12.61
12.18
11.62
11.14
10.84
10.75
10.82
10.99
11.24
11.62
12.18
12.83
13.42
13.76
13.71
13.29
12.63
11.89
11.18
10.5
9.82
9.11
8.39
7.7
7.06
6.41
5.66
4.73
3.66
2.56
1.6
0.85
0.28
-0.24
-0.85
-1.61
-2.44
-3.24
-3.94
-4.54
-5.14
-5.83
-6.66
-7.59
-8.57
-9.57
-10.63
-11.82
-13.24
-14.89
-16.75
-18.73
-20.77
-22.86
-24.98
-27.05
-28.89
-30.16
-30.45
-29.39
-26.81
-22.76
-17.58
-11.83
-6.1
-0.94
3.3
6.48
8.65
9.97
10.67
10.95
10.95
10.76
10.45
10.05
9.65
9.33
9.16
9.2
9.43
9.78
10.14
10.42
10.61
10.7
10.74
10.74
10.71
10.61
10.37
9.95
9.29
8.46
7.56
6.72
6.09
5.71
5.51
5.34
5.02
4.44
3.63
2.71
1.84
1.13
0.6
0.15
-0.34
-0.99
-1.82
-2.73
-3.61
-4.33
-4.84
-5.17
-5.46
-5.81
-6.32
-7.01
-7.87
-8.87
-10.04
-11.46
-13.22
-15.35
-17.82
-20.45
-23.04
-25.31
-27.07
-28.15
-28.4
-27.67
-25.85
-22.84
-18.7
-13.7
-8.23
-2.79
2.19
6.44
9.89
12.57
14.53
15.8
16.39
16.31
15.68
14.68
13.6
12.66
12.02
11.73
11.74
11.96
12.28
12.62
12.98
13.36
13.84
14.47
15.21
15.92
16.4
16.43
15.94
15.02
13.84
12.62
11.47
10.38
9.27
8.11
6.92
5.81
4.86
4.07
3.34
2.48
1.38
0.01
-1.49
-2.97
-4.32
-5.47
-6.45
-7.3
-8.1
-8.93
-9.9
-11.13
-12.69
-14.6
-16.76
-19.07
-21.46
-23.94
-26.59
-29.43
-32.29
-34.79
-36.34
-36.4
-34.64
-31.06
-26.02
-20.1
-13.86
-7.79
-2.2
2.76
6.99
10.42
12.99
14.68
15.54
15.69
15.32
14.65
13.89
13.21
12.7
12.4
12.32
12.43
12.73
13.19
13.82
14.58
15.43
16.27
16.94
17.29
17.21
16.69
15.78
14.68
13.59
12.65
11.92
11.34
10.78
10.13
9.34
8.46
7.57
6.75
5.99
5.24
4.43
3.53
2.52
1.46
0.34
-0.83
-2.08
-3.45
-4.94
-6.49
-7.98
-9.37
-10.64
-11.89
-13.23
-14.81
-16.69
-18.85
-21.22
-23.73
-26.36
-29.09
-31.91
-34.7
-37.24
-39.16
-40.05
-39.53
-37.34
-33.42
-27.98
-21.43
-14.35
-7.33
-0.86
4.72
9.25
12.73
15.21
16.75
17.44
17.4
16.81
15.92
14.98
14.21
13.77
13.71
13.96
14.42
15.02
15.71
16.5
17.45
18.55
19.73
20.83
21.7
22.15
22.17
21.82
21.25
20.54
19.73
18.74
17.44
15.76
13.74
11.56
9.49
7.77
6.52
5.7
5.11
4.49
3.66
2.55
1.2
-0.28
-1.8
-3.31
-4.76
-6.11
-7.28
-8.21
-8.9
-9.46
-10.09
-11.0
-12.32
-14.1
-16.3
-18.81
-21.49
-24.14
-26.51
-28.26
-29.05
-28.61
-26.82
-23.7
-19.43
-14.31
-8.75
-3.18
1.97
6.38
9.86
12.38
14.03
14.97
15.34
15.31
15.0
14.59
14.24
14.03
14.02
14.15
14.35
14.58
14.88
15.36
16.06
16.95
17.86
18.56
18.85
18.67
18.17
17.58
17.15
16.99
16.99
16.88
16.44
15.54
14.26
12.82
11.41
10.11
8.88
7.61
6.23
4.77
3.37
2.15
1.14
0.24
-0.71
-1.85
-3.22
-4.77
-6.39
-7.98
-9.54
-11.09
-12.68
-14.37
-16.15
-18.01
-19.91
-21.88
-23.97
-26.22
-28.61
-30.99
-33.09
-34.54
-34.99
-34.2
-32.06
-28.61
-24.03
-18.62
-12.72
-6.76
-1.18
3.64
7.46
10.24
12.13
13.34
14.09
14.51
14.63
14.48
14.12
13.65
13.24
13.04
13.13
13.53
14.2
15.08
16.12
17.24
18.35
19.33
20.04
20.37
20.28
19.82
19.1
18.23
17.3
16.33
15.3
14.2
13.02
11.8
10.58
9.35
8.1
6.78
5.3
3.66
1.89
0.03
-1.85
-3.7
-5.53
-7.37
-9.22
-11.07
-12.79
-14.22
-15.19
-15.67
-15.75
-15.62
-15.54
-15.68
-16.13
-16.91
-18.02
-19.46
-21.21
-23.2
-25.23
-27.01
-28.17
-28.4
-27.47
-25.31
-21.98
-17.67
-12.7
-7.51
-2.52
1.9
5.53
8.32
10.36
11.84
12.96
13.88
14.71
15.49
16.24
16.98
17.73
18.54
19.47
20.61
22.0
23.64
25.43
27.14
28.55
29.43
29.64
29.13
27.99
26.34
24.36
22.25
20.16
18.32
16.88
15.9
15.28
14.79
14.13
13.06
11.47
9.44
7.13
4.76
2.45
0.21
-2.03
-4.38
-6.86
-9.4
-11.89
-14.2
-16.26
-18.08
-19.73
-21.3
-22.78
-24.14
-25.34
-26.49
-27.83
-29.66
-32.27
-35.68
-39.6
-43.38
-46.19
-47.25
-46.01
-42.4
-36.8
-29.95
-22.72
-15.9
-10.05
-5.38
-1.87
0.65
2.4
3.63
4.53
5.33
6.19
7.21
8.45
9.94
11.71
13.84
16.35
19.2
22.22
25.19
27.87
30.11
31.83
32.99
33.54
33.42
32.58
31.06
29.03
26.75
24.47
22.31
20.26
18.24
16.23
14.29
12.62
11.38
10.7
10.53
10.7
10.95
11.07
10.87
10.27
9.28
7.9
6.11
3.83
0.98
-2.49
-6.5
-10.89
-15.42
-19.93
-24.35
-28.75
-33.25
-38.0
-43.01
-48.25
-53.61
-58.86
-63.56
-67.08
-68.61
-67.38
-62.96
-55.47
-45.57
-34.32
-22.8
-11.85
-1.9
6.92
14.67
21.33
26.83
31.06
33.94
35.59
36.19
35.95
35.03
33.5
31.4
28.83
25.93
22.99
20.33
18.28
17.07
16.8
17.36
18.49
19.86
21.16
22.21
22.97
23.48
23.83
24.05
24.12
23.97
23.56
22.87
21.87
20.59
19.05
17.29
15.34
13.25
11.05
8.8
6.51
4.19
1.86
-0.44
-2.64
-4.66
-6.43
-7.97
-9.4
-10.93
-12.86
-15.41
-18.76
-22.9
-27.72
-32.93
-38.07
-42.5
-45.53
-46.59
-45.42
-42.24
-37.66
-32.52
-27.54
-23.18
-19.54
-16.48
-13.8
-11.3
-8.97
-6.77
-4.69
-2.61
-0.3
2.5
6.06
10.53
15.89
21.93
28.27
34.38
39.75
44.03
47.1
49.11
50.35
51.09
51.42
51.25
50.36
48.59
45.88
42.33
38.15
33.5
28.47
23.09
17.46
11.8
6.41
1.67
-2.18
-5.03
-6.97
-8.19
-8.93
-9.38
-9.6
-9.54
-9.14
-8.36
-7.31
-6.24
-5.46
-5.25
-5.77
-6.97
-8.69
-10.71
-12.84
-14.97
-17.08
-19.23
-21.56
-24.27
-27.53
-31.37
-35.53
-39.45
-42.28
-43.18
-41.57
-37.31
-30.8
-22.87
-14.51
-6.64
0.1
5.39
9.2
11.64
12.91
13.18
12.59
11.25
9.32
7.0
4.51
2.01
-0.36
-2.53
-4.45
-6.01
-7.03
-7.29
-6.62
-4.95
-2.37
0.95
4.78
8.96
13.35
17.82
22.2
26.25
29.74
32.49
34.46
35.68
36.27
36.33
35.93
35.02
33.54
31.4
28.54
24.93
20.65
15.87
10.83
5.83
1.12
-3.1
-6.73
-9.79
-12.32
-14.42
-16.16
-17.61
-18.76
-19.58
-20.02
-20.08
-19.84
-19.52
-19.35
-19.59
-20.46
-22.05
-24.43
-27.53
-31.18
-35.0
-38.45
-40.84
-41.45
-39.89
-36.08
-30.44
-23.66
-16.52
-9.69
-3.57
1.65
6.04
9.7
12.73
15.22
17.19
18.66
19.63
20.15
20.33
20.34
20.33
20.46
20.74
21.12
21.54
21.92
22.28
22.67
23.17
23.76
24.32
24.67
24.61
24.08
23.21
22.21
21.31
20.66
20.23
19.84
19.31
18.49
17.34
15.93
14.32
12.6
10.79
8.91
6.99
5.07
3.21
1.46
-0.12
-1.51
-2.72
-3.8
-4.87
-6.05
-7.45
-9.09
-10.94
-12.87
-14.74
-16.5
-18.16
-19.83
-21.67
-23.76
-26.22
-29.08
-32.34
-35.98
-39.84
-43.58
-46.59
-48.11
-47.44
-44.14
-38.33
-30.61
-21.92
-13.29
-5.5
1.06
6.35
