36.56
38.1
39.35
40.29
40.76
40.47
39.08
36.36
32.27
26.9
20.47
13.23
5.49
-2.4
-10.09
-17.23
-23.58
-29.04
-33.67
-37.68
-41.25
-44.51
-47.41
-49.76
-51.24
-51.45
-50.02
-46.8
-41.88
-35.65
-28.71
-21.72
-15.23
-9.58
-4.91
-1.16
1.82
4.29
6.48
8.62
10.91
13.42
16.11
18.84
21.43
23.74
25.73
27.51
29.24
31.1
33.18
35.47
37.84
40.07
41.87
42.94
42.96
41.66
38.88
34.61
29.04
22.56
15.68
8.86
2.54
-3.03
-7.75
-11.63
-14.82
-17.53
-19.97
-22.32
-24.7
-27.14
-29.61
-32.0
-34.23
-36.19
-37.77
-38.88
-39.38
-39.17
-38.16
-36.31
-33.56
-29.95
-25.59
-20.79
-16.0
-11.86
-8.92
-7.49
-7.41
-8.0
-8.26
-7.14
-3.89
1.73
9.35
18.12
26.9
34.55
40.12
43.01
43.05
40.5
35.92
30.08
23.75
17.52
11.74
6.53
1.76
-2.74
-7.08
-11.28
-15.21
-18.67
-21.49
-23.6
-25.0
-25.81
-26.1
-25.97
-25.42
-24.44
-23.02
-21.15
-18.79
-15.91
-12.42
-8.26
-3.46
1.85
7.44
13.01
18.3
23.14
27.46
31.21
34.42
37.08
39.16
40.56
41.18
40.9
39.59
37.15
33.5
28.63
22.64
15.72
8.16
0.29
-7.58
-15.2
-22.42
-29.2
-35.58
-41.62
-47.32
-52.6
-57.18
-60.66
-62.49
-62.15
-59.25
-53.73
-45.92
-36.54
-26.47
-16.56
-7.41
0.7
7.73
13.75
18.83
23.01
26.34
28.9
30.83
32.25
33.24
33.81
33.94
33.65
33.03
32.22
31.41
30.69
30.08
29.52
28.91
28.12
27.05
25.59
23.7
21.34
18.61
15.7
12.82
10.18
7.86
5.82
3.95
2.13
0.33
-1.43
-3.08
-4.62
-6.03
-7.32
-8.47
-9.4
-10.05
-10.45
-10.7
-10.96
-11.31
-11.79
-12.34
-12.91
-13.54
-14.35
-15.5
-17.14
-19.35
-22.11
-25.3
-28.65
-31.7
-33.85
-34.46
-33.02
-29.42
-23.96
-17.34
-10.39
-3.84
1.85
6.48
10.08
12.78
14.69
15.94
16.64
16.86
16.69
16.18
15.37
14.35
13.27
12.32
11.69
11.48
11.68
12.19
12.91
13.78
14.79
15.91
17.03
17.95
18.42
18.27
17.56
16.48
15.3
14.25
13.42
12.7
11.96
11.04
9.85
8.44
6.86
5.2
3.53
1.88
0.24
-1.37
-2.9
-4.33
-5.59
-6.7
-7.71
-8.77
-9.97
-11.41
-13.02
-14.69
-16.25
-17.64
-18.95
-20.35
-22.05
-24.18
-26.77
-29.77
-33.02
-36.25
-39.04
-40.79
-40.84
-38.7
-34.27
-27.95
-20.55
-13.02
-6.19
-0.52
3.91
7.21
9.59
11.17
11.99
12.16
11.79
11.1
10.34
9.72
9.35
9.29
9.54
10.12
11.09
12.51
14.41
16.76
19.49
22.4
25.27
27.84
29.89
31.23
31.83
31.69
30.91
29.58
27.79
25.56
22.86
19.66
15.99
11.97
7.83
3.82
0.13
-3.08
-5.81
-8.1
-10.01
-11.65
-13.08
-14.46
-15.92
-17.62
-19.56
-21.63
-23.64
-25.41
-26.95
-28.48
-30.34
-32.81
-35.94
-39.39
-42.49
-44.37
-44.17
-41.31
-35.61
-27.42
-17.5
-6.86
3.46
12.65
20.22
26.08
30.44
33.65
36.06
37.94
39.34
40.21
40.33
39.47
37.42
34.08
29.55
24.11
18.21
12.43
7.31
3.25
0.36
-1.48
-2.61
-3.46
-4.38
-5.6
-7.14
-8.86
-10.55
-11.98
-13.02
-13.69
-14.06
-14.31
-14.53
-14.68
-14.62
-14.11
-12.91
-10.85
-7.9
-4.11
0.34
5.25
10.38
15.48
20.33
24.67
28.24
30.82
32.23
32.46
31.64
30.02
27.87
25.32
22.31
18.55
13.71
7.48
-0.23
-9.31
-19.41
-30.03
-40.46
-49.88
-57.39
-62.2
-63.8
-62.15
-57.75
-51.47
-44.33
-37.23
-30.71
-24.97
-19.95
-15.5
-11.5
-7.93
-4.83
-2.27
-0.3
1.13
2.12
2.88
3.64
4.69
6.27
8.58
11.73
15.72
20.41
25.52
30.67
35.46
39.55
42.68
44.82
46.03
46.51
46.44
45.93
45.02
43.61
41.56
38.69
34.89
30.09
24.39
17.98
11.17
4.28
-2.4
-8.62
-14.23
-19.16
-23.44
-27.15
-30.39
-33.29
-35.88
-38.17
-40.13
-41.68
-42.86
-43.69
-44.28
-44.71
-44.98
-45.02
-44.71
-43.93
-42.58
-40.57
-37.75
-33.91
-28.76
-22.1
-13.9
-4.4
5.9
16.38
26.4
35.46
43.25
49.62
54.6
58.27
60.7
61.86
61.64
59.8
56.16
50.64
43.43
35.01
25.98
17.03
8.7
1.38
-4.7
-9.5
-13.03
-15.46
-16.99
-17.83
-18.19
-18.23
-18.07
-17.82
-17.56
-17.31
-17.04
-16.64
-15.99
-14.93
-13.4
-11.29
-8.54
-5.07
-0.84
4.04
9.31
14.51
19.15
22.8
25.26
26.53
26.84
26.51
25.79
24.86
23.75
22.44
20.85
18.94
16.6
13.67
9.9
5.0
-1.23
-8.78
-17.38
-26.56
-35.72
-44.27
-51.64
-57.26
-60.68
-61.54
-59.8
-55.74
-49.97
-43.28
-36.47
-30.16
-24.68
-20.15
-16.48
-13.47
-10.88
-8.43
-5.86
-2.97
0.34
4.03
8.0
12.12
16.29
20.44
24.55
28.57
32.4
35.89
38.9
41.36
43.27
44.71
45.71
46.23
46.15
45.3
43.51
40.73
36.97
32.37
27.12
21.42
15.49
9.53
3.73
-1.75
-6.81
-11.39
-15.49
-19.08
-22.17
-24.75
-26.82
-28.38
-29.45
-30.09
-30.39
-30.48
-30.51
-30.59
-30.67
-30.58
-30.04
-28.77
-26.65
-23.79
-20.59
-17.54
-15.08
-13.47
-12.69
-12.51
-12.57
-12.46
-11.75
-10.02
-6.95
-2.38
3.6
10.56
17.81
24.5
29.87
33.34
34.68
33.96
31.51
27.8
23.3
18.43
13.46
8.54
3.77
-0.72
-4.78
-8.2
-10.8
-12.52
-13.4
-13.61
-13.3
-12.57
-11.46
-9.99
-8.22
-6.19
-3.93
-1.39
1.54
4.99
8.95
13.27
17.65
21.73
25.19
27.86
29.69
30.77
31.27
31.37
31.19
30.79
30.14
29.1
27.54
25.33
22.36
18.6
14.11
8.95
3.26
-2.83
-9.21
-15.76
-22.37
-28.97
-35.53
-41.94
-48.04
-53.49
-57.81
-60.42
-60.82
-58.77
-54.38
-48.17
-40.9
-33.41
-26.38
-20.18
-14.8
-9.95
-5.24
-0.34
4.87
10.28
15.63
20.64
25.07
28.82
31.88
34.31
36.22
37.75
39.1
40.42
41.8
43.2
44.34
44.86
44.34
42.52
39.28
34.75
29.26
23.27
17.24
11.6
6.64
2.41
-1.16
-4.27
-7.12
-9.8
-12.3
-14.5
-16.3
-17.67
-18.69
-19.48
-20.17
-20.77
-21.26
-21.59
-21.79
-21.92
-22.09
-22.33
-22.58
-22.65
-22.31
-21.39
-19.86
-17.89
-15.82
-14.09
-13.1
-13.13
-14.24
-16.21
-18.5
-20.4
-21.13
-20.09
-17.03
-12.16
-6.12
0.15
5.68
9.69
11.74
11.76
10.09
7.35
4.27
1.53
-0.47
-1.63
-2.1
-2.16
-2.01
-1.69
-1.16
-0.35
0.73
1.99
3.33
4.74
6.29
8.07
10.09
12.22
14.17
15.62
16.33
16.22
15.49
14.47
13.6
13.2
13.41
14.13
15.14
16.19
17.15
18.08
19.1
20.27
21.48
22.47
22.94
22.66
21.62
19.97
17.93
15.7
13.33
10.72
7.77
4.32
0.27
-4.49
-10.03
-16.35
-23.35
-30.74
-38.05
-44.67
-49.9
-53.08
-53.73
-51.62
-46.94
-40.18
-32.16
-23.76
-15.77
-8.7
-2.72
2.29
6.56
10.32
13.6
16.31
18.25
19.29
19.44
18.89
17.91
16.82
15.86
15.22
15.06
15.48
16.52
18.11
20.01
21.92
23.58
24.78
25.46
25.64
25.36
24.68
23.69
22.51
21.31
20.18
19.05
17.72
15.91
13.46
10.39
6.93
3.4
0.04
-3.05
-5.89
-8.55
-11.05
-13.33
-15.33
-17.07
-18.56
-19.89
-21.07
-22.05
-22.76
-23.16
-23.28
-23.29
-23.39
-23.82
-24.77
-26.35
-28.54
-31.18
-33.89
-36.12
-37.19
-36.43
-33.41
-28.06
-20.76
-12.24
-3.39
4.93
12.06
17.65
21.66
24.27
25.83
26.73
27.25
27.54
27.56
27.09
25.83
23.58
20.3
16.19
11.64
7.1
3.01
-0.34
-2.79
-4.36
-5.18
-5.43
-5.3
-4.97
-4.63
-4.42
-4.38
-4.49
-4.6
-4.48
-3.94
-2.87
-1.32
0.5
2.28
3.73
4.7
5.18
5.34
5.42
5.67
6.17
6.86
7.57
8.14
8.52
8.71
8.79
8.74
8.5
7.95
7.04
5.86
4.6
3.49
2.63
1.93
1.14
-0.09
-2.06
-4.94
-8.81
-13.62
-19.15
-24.97
-30.43
-34.75
-37.24
-37.49
-35.6
-32.07
-27.75
-23.43
-19.66
-16.61
-14.09
-11.79
-9.44
-6.89
-4.13
-1.2
1.84
4.97
8.12
11.21
14.11
16.72
19.0
21.02
22.99
25.13
27.68
30.75
34.28
38.02
41.53
44.27
45.7
45.45
43.45
40.0
35.64
31.05
26.82
23.31
20.53
18.2
15.83
12.89
9.0
4.03
-1.86
-8.27
-14.66
-20.5
-25.43
-29.34
-32.37
-34.83
-37.05
-39.21
-41.25
-42.95
-43.99
-44.16
-43.46
-42.13
-40.56
-39.17
-38.32
-38.17
-38.72
-39.67
-40.52
-40.57
-39.11
-35.57
-29.77
-21.96
-12.8
-3.12
6.31
14.88
22.24
28.2
32.7
35.82
37.69
38.56
38.76
38.58
38.22
37.7
36.92
35.72
34.0
31.75
29.08
26.11
22.95
19.65
16.19
12.57
8.88
5.25
1.84
-1.3
-4.22
-7.14
-10.19
-13.42
-16.61
-19.4
-21.38
-22.3
-22.16
-21.19
-19.72
-18.03
-16.28
-14.52
-12.71
-10.82
-8.82
-6.69
-4.42
-2.02
0.42
2.76
4.82
6.44
7.53
8.11
8.25
8.08
7.71
7.24
6.67
5.91
4.78
3.0
0.36
-3.23
-7.63
-12.57
-17.62
-22.32
-26.28
-29.11
-30.59
-30.57
-29.09
-26.37
-22.81
-18.87
-14.98
-11.4
-8.23
-5.42
-2.85
-0.46
1.78
3.86
5.77
7.6
9.42
11.35
13.4
15.53
17.63
19.57
21.25
22.65
23.71
24.36
24.46
23.82
22.31
19.92
16.78
13.19
9.44
5.84
2.6
-0.13
-2.25
-3.78
-4.91
-5.98
-7.36
-9.38
-12.13
-15.55
-19.55
-24.1
-29.34
-35.49
-42.71
-50.88
-59.56
-68.1
-75.8
-82.15
-86.82
-89.78
-91.25
-91.73
-91.89
-92.32
-93.23
-94.22
-94.3
-92.19
-86.85
-77.86
-65.65
-51.21
-35.64
-19.77
-4.1
10.98
24.93
36.91
46.09
52.01
54.78
55.03
53.78
51.8
49.32
46.3
43.31
42.23
46.02
57.4
76.94
101.86
126.48
144.33
151.1
146.32
133.28
116.91
101.14
87.24
74.03
59.18
40.77
18.26
-7.56
-35.01
-61.88
-85.88
-104.92
-117.69
-123.84
-123.6
-116.95
-103.08
-80.6
-48.72
-8.99
33.75
72.18
98.85
109.12
103.02
85.13
62.47
41.64
26.5
17.67
13.48
12.02
12.51
15.46
21.5
30.12
39.17
45.6
47.04
43.09
35.54
27.38
21.24
18.11
17.25
16.92
15.38
11.7
5.92
-1.41
-9.54
-17.88
-25.88
-32.99
-38.68
-42.52
-44.19
-43.59
-40.62
-35.34
-27.94
-18.99
-9.43
-0.46
6.79
11.65
14.11
14.82
14.81
15.07
16.27
18.63
22.11
26.5
31.63
37.33
43.34
49.21
54.29
57.92
59.62
59.34
57.47
54.72
51.87
49.5
47.74
46.25
44.27
40.9
35.29
26.99
16.15
3.55
-9.49
-21.49
-31.19
-37.86
-41.38
-42.14
-40.77
-37.89
-33.98
-29.39
-24.47
-19.5
-14.75
-10.3
-6.2
-2.52
0.44
2.18
2.19
0.27
-3.16
-7.11
-10.32
-11.86
-11.42
-9.45
-6.79
-4.23
-2.15
-0.53
0.86
2.1
2.93
2.89
1.52
-1.34
-5.47
-10.32
-15.29
-19.93
-23.97
-27.27
-29.66
-31.02
-31.36
-31.03
-30.63
-30.79
-31.92
-33.98
-36.58
-39.22
-41.5
-43.27
-44.39
-44.7
-43.79
-41.25
-36.85
-30.75
-23.47
-15.74
-8.22
-1.39
4.53
9.48
13.54
16.86
19.59
21.83
23.56
24.68
25.11
24.88
24.28
23.71
23.53
23.93
24.77
25.72
26.4
26.55
26.11
25.27
24.31
23.43
22.67
21.87
20.77
19.1
16.67
13.46
9.61
5.38
1.04
-3.15
-7.03
-10.5
-13.45
-15.84
-17.76
-19.59
-21.96
-25.64
-31.22
-38.85
-48.09
-58.06
-67.75
-76.43
-83.99
-90.86
-97.7
-104.87
-112.22
-119.07
-124.66
-128.73
-131.78
-134.76
-138.29
-141.97
-143.89
-141.14
-130.88
-111.35
-82.33
-44.79
-0.36
48.91
100.2
149.37
190.94
219.06
229.42
221.01
197.05
164.2
130.42
102.43
83.87
74.81
72.7
73.96
75.5
75.48
73.29
69.06
63.11
55.71
47.21
38.26
29.99
23.57
19.71
18.16
17.69
16.67
13.75
8.48
1.5
-5.85
-12.17
-16.56
-18.88
-19.74
-20.01
-20.54
-21.77
-23.62
-25.53
-26.77
-26.64
-24.77
-21.26
-16.56
-11.31
-6.11
-1.3
2.93
6.57
9.59
11.94
13.54
14.45
14.8
14.82
14.72
14.59
14.38
13.98
13.29
12.36
11.32
10.32
9.48
8.87
8.45
8.17
7.95
7.76
7.53
7.18
6.59
5.67
4.4
2.91
1.42
0.16
-0.71
-1.21
-1.53
-1.91
-2.51
-3.39
-4.48
-5.61
-6.7
-7.69
-8.6
-9.5
-10.41
-11.39
-12.45
-13.54
-14.6
-15.53
-16.23
-16.7
-17.07
-17.54
-18.37
-19.69
-21.54
-23.79
-26.16
-28.31
-29.79
-30.18
-29.11
-26.48
-22.43
-17.38
-11.97
-6.8
-2.33
1.24
3.96
6.06
7.75
9.16
10.28
11.02
11.28
11.0
10.28
9.29
8.24
7.32
6.64
6.21
5.99
5.93
5.98
6.1
6.21
6.22
6.04
5.69
5.25
4.92
4.85
5.07
5.46
5.79
5.81
5.38
4.58
3.54
2.43
1.3
0.11
-1.24
-2.81
-4.51
-6.19
-7.63
-8.7
-9.35
-9.7
-9.96
-10.37
-11.15
-12.5
-14.47
-16.98
-19.71
-22.24
-24.02
-24.57
-23.6
-21.08
-17.3
-12.73
-7.94
-3.4
0.57
3.83
6.37
8.28
9.68
10.68
11.37
11.82
12.02
11.98
11.68
11.18
10.58
10.02
9.61
9.42
9.43
9.64
10.02
10.61
11.39
12.27
13.08
13.61
13.74
13.47
12.93
12.33
11.77
11.28
10.78
10.16
9.34
8.32
7.13
5.83
4.5
3.22
2.09
1.15
0.4
-0.25
-0.91
-1.73
-2.78
-4.09
-5.58
-7.14
-8.65
-10.01
-11.18
-12.18
-13.09
-14.03
-15.11
-16.44
-18.06
-19.86
-21.62
-22.94
-23.39
-22.57
-20.32
-16.76
-12.3
-7.52
-2.99
0.89
3.95
6.22
7.9
9.15
10.07
10.7
11.01
10.99
10.67
10.11
9.45
8.81
8.31
8.03
8.0
8.18
8.51
8.91
9.32
9.73
10.12
10.48
10.73
10.81
10.65
10.21
9.52
8.59
7.46
6.18
4.82
3.48
2.27
1.3
0.6
0.15
-0.11
-0.27
-0.43
-0.67
-1.1
-1.81
-2.81
-4.08
-5.53
-7.04
-8.49
-9.87
-11.19
-12.49
-13.79
-15.05
-16.21
-17.28
-18.36
-19.62
-21.28
-23.37
-25.74
-27.91
-29.29
-29.3
-27.59
-24.21
-19.55
-14.22
-8.82
-3.84
0.44
3.97
6.76
8.88
10.39
11.34
11.77
11.74
11.33
10.61
9.68
8.63
7.59
6.73
6.2
6.07
6.34
6.93
7.72
8.56
9.39
10.13
10.75
11.14
11.22
10.95
10.37
9.6
8.8
8.05
7.34
6.59
5.64
4.42
2.93
1.28
-0.37
-1.88
-3.19
-4.31
-5.28
-6.16
-6.98
-7.71
-8.38
-9.02
-9.66
-10.37
-11.15
-12.01
-12.95
-14.05
-15.42
-17.15
-19.22
-21.41
-23.3
-24.38
-24.19
-22.51
-19.4
-15.2
-10.41
-5.52
-0.98
2.89
5.93
8.11
9.55
10.41
10.9
11.18
11.28
11.18
10.83
10.22
9.44
8.67
8.15
8.04
8.39
9.14
10.15
11.23
12.26
13.1
13.63
13.74
13.37
12.55
11.43
10.19
9.06
8.14
7.4
6.73
6.05
5.35
4.73
4.32
4.2
4.29
4.41
4.28
3.77
2.83
1.63
0.39
-0.69
-1.55
-2.29
-3.07
-4.03
-5.23
-6.62
-8.07
-9.5
-10.87
-12.21
-13.59
-15.05
-16.61
-18.28
-20.14
-22.3
-24.84
-27.7
-30.57
-32.94
-34.16
-33.73
-31.43
-27.47
-22.35
-16.75
-11.23
-6.17
-1.72
2.11
5.31
7.86
9.75
11.02
11.8
12.27
12.55
12.67
12.61
12.31
11.78
11.17
10.69
10.55
10.84
11.47
12.27
13.09
13.84
14.57
15.38
16.32
17.32
18.15
18.53
18.23
17.22
15.71
14.01
12.41
11.06
9.87
8.68
7.3
5.69
3.94
2.21
0.61
-0.84
-2.21
-3.57
-4.99
-6.45
-7.95
-9.45
-10.91
-12.26
-13.38
-14.15
-14.49
-14.45
-14.25
-14.22
-14.7
-15.97
-18.13
-21.06
-24.45
-27.76
-30.37
-31.66
-31.2
-28.86
-24.86
-19.7
-14.02
-8.38
-3.13
1.55
5.62
9.08
11.89
14.02
15.47
16.33
16.77
16.89
16.77
16.38
15.77
15.02
14.32
13.88
13.8
14.05
14.51
15.03
15.51
15.91
16.2
16.33
16.22
15.82
15.11
14.13
12.93
11.56
10.11
8.67
7.37
6.34
5.63
5.21
4.99
4.82
4.58
4.19
3.61
2.81
1.79
0.56
-0.82
-2.27
-3.76
-5.29
-6.95
-8.8
-10.82
-12.87
-14.81
-16.48
-17.86
-19.1
-20.4
-22.0
-24.01
-26.41
-28.98
-31.33
-33.01
-33.49
-32.36
