-30.67
-24.82
-18.24
-11.67
-5.68
-0.54
3.67
7.02
9.59
11.46
12.74
13.55
13.98
14.13
14.04
13.76
13.38
13.02
12.8
12.83
13.1
13.58
14.18
14.88
15.66
16.48
17.31
18.05
18.62
18.93
18.93
18.66
18.15
17.43
16.55
15.5
14.31
13.01
11.67
10.36
9.14
8.0
6.89
5.75
4.53
3.27
2.03
0.92
-0.04
-0.87
-1.67
-2.55
-3.57
-4.75
-6.08
-7.51
-9.07
-10.78
-12.62
-14.54
-16.48
-18.43
-20.45
-22.72
-25.41
-28.51
-31.71
-34.39
-35.85
-35.47
-33.0
-28.65
-22.97
-16.65
-10.28
-4.32
1.04
5.69
9.56
12.56
14.64
15.87
16.41
16.52
16.42
16.2
15.84
15.25
14.42
13.45
12.61
12.16
12.29
12.95
13.98
15.11
16.12
16.86
17.29
17.39
17.21
16.78
16.17
15.45
14.68
13.91
13.14
12.35
11.46
10.43
9.27
8.02
6.79
5.67
4.73
3.95
3.25
2.48
1.55
0.41
-0.9
-2.29
-3.71
-5.16
-6.65
-8.22
-9.88
-11.55
-13.15
-14.62
-15.93
-17.16
-18.43
-19.94
-21.87
-24.3
-27.17
-30.25
-33.09
-35.13
-35.86
-34.85
-31.96
-27.4
-21.63
-15.29
-9.02
-3.33
1.51
5.39
8.42
10.74
12.51
13.84
14.8
15.43
15.79
16.0
16.15
16.32
16.55
16.81
17.02
17.14
17.18
17.21
17.37
17.7
18.22
18.8
19.28
19.54
19.55
19.41
19.25
19.22
19.32
19.47
19.53
19.38
18.99
18.46
17.93
17.52
17.29
17.18
17.17
17.19
17.22
17.22
17.17
16.98
16.57
15.81
14.64
12.98
10.83
8.22
5.22
1.89
-1.7
-5.57
-9.72
-14.11
-18.61
-23.0
-27.03
-30.57
-33.66
-36.55
-39.55
-42.85
-46.29
-49.38
-51.4
-51.68
-49.83
-45.91
-40.36
-33.84
-27.0
-20.34
-14.17
-8.68
-3.96
-0.1
2.91
5.1
6.63
7.64
8.31
8.74
9.01
9.17
9.24
9.26
9.22
9.12
9.0
8.91
9.02
9.43
10.2
11.21
12.23
13.01
13.35
13.23
12.77
12.15
11.5
10.81
10.01
9.03
7.88
6.7
5.68
4.96
4.56
4.36
4.18
3.89
3.41
2.79
2.09
1.38
0.7
0.08
-0.52
-1.12
-1.77
-2.52
-3.42
-4.49
-5.69
-6.98
-8.32
-9.66
-11.0
-12.34
-13.73
-15.26
-17.01
-19.1
-21.57
-24.37
-27.27
-29.85
-31.6
-32.01
-30.72
-27.65
-23.0
-17.27
-11.1
-5.11
0.17
4.42
7.54
9.6
10.83
11.5
11.86
12.09
12.26
12.38
12.41
12.31
12.06
11.67
11.2
10.77
10.54
10.67
11.22
12.13
13.22
14.28
15.12
15.64
15.82
15.69
15.24
14.5
13.46
12.21
10.87
9.59
8.5
7.72
7.26
7.07
7.03
6.98
6.75
6.3
5.67
5.0
4.39
3.9
3.46
2.98
2.42
1.76
1.04
0.28
-0.56
-1.55
-2.71
-3.99
-5.29
-6.56
-7.82
-9.15
-10.63
-12.26
-13.91
-15.41
-16.68
-17.77
-18.87
-20.29
-22.23
-24.76
-27.66
-30.44
-32.45
-33.02
-31.71
-28.44
-23.56
-17.73
-11.67
-5.98
-0.99
3.16
6.5
9.06
10.84
11.91
12.38
12.43
12.24
11.93
11.53
11.04
10.48
9.89
9.37
9.03
8.95
9.17
9.73
10.58
11.63
12.7
13.6
14.16
14.3
14.08
13.63
13.08
12.55
12.07
11.64
11.2
10.68
9.98
9.04
7.82
6.38
4.86
3.44
2.31
1.58
1.24
1.16
1.13
0.92
0.4
-0.41
-1.35
-2.23
-2.94
-3.44
-3.9
-4.5
-5.37
-6.57
-8.03
-9.62
-11.2
-12.69
-14.01
-15.2
-16.32
-17.52
-18.95
-20.76
-22.98
-25.52
-28.09
-30.22
-31.38
-31.1
-29.11
-25.43
-20.41
-14.64
-8.79
-3.42
1.14
4.78
7.59
9.7
11.23
12.25
12.79
12.91
12.64
12.08
11.31
10.41
9.52
8.79
8.4
8.45
8.95
9.78
10.78
11.77
12.7
13.49
14.1
14.45
14.45
14.08
13.39
12.53
11.67
10.93
10.33
9.81
9.28
8.68
8.01
7.31
6.66
6.08
5.55
5.03
4.49
3.93
3.43
3.08
2.87
2.71
2.47
1.95
1.13
0.04
-1.12
-2.18
-3.04
-3.79
-4.6
-5.63
-6.98
-8.57
-10.25
-11.86
-13.32
-14.63
-15.88
-17.19
-18.64
-20.33
-22.33
-24.69
-27.35
-30.09
-32.43
-33.78
-33.58
-31.54
-27.68
-22.42
-16.41
-10.27
-4.55
0.4
4.38
7.36
9.37
10.55
11.09
11.22
11.17
11.07
10.94
10.73
10.36
9.84
9.2
8.59
8.14
7.96
8.12
8.63
9.41
10.34
11.23
11.92
12.28
12.31
12.14
11.9
11.73
11.64
11.52
11.24
10.68
9.82
8.76
7.63
6.56
5.63
4.84
4.18
3.57
2.96
2.3
1.55
0.71
-0.17
-1.05
-1.88
-2.64
-3.38
-4.19
-5.15
-6.3
-7.64
-9.1
-10.6
-12.04
-13.39
-14.63
-15.88
-17.28
-19.04
-21.29
-24.02
-26.96
-29.56
-31.2
-31.25
-29.37
-25.61
-20.4
-14.41
-8.41
-3.01
1.48
5.01
7.72
9.84
11.5
12.75
13.54
13.85
13.72
13.23
12.52
11.68
10.76
9.83
9.01
8.47
8.33
8.63
9.28
10.13
11.06
12.01
12.91
13.7
14.24
14.37
14.04
13.36
12.54
11.85
11.41
11.13
10.83
10.25
9.26
7.95
6.49
5.14
4.06
3.3
2.73
2.15
1.4
0.39
-0.8
-2.01
-3.03
-3.74
-4.17
-4.49
-4.94
-5.69
-6.84
-8.3
-9.9
-11.46
-12.84
-14.04
-15.15
-16.34
-17.78
-19.54
-21.68
-24.14
-26.8
-29.35
-31.39
-32.38
-31.87
-29.58
-25.62
-20.41
-14.61
-8.87
-3.63
0.88
4.69
7.86
10.46
12.45
13.81
14.53
14.76
14.69
14.53
14.35
14.17
13.92
13.56
13.15
12.81
12.66
12.78
13.14
13.65
14.21
14.72
15.11
15.36
15.38
15.13
14.61
13.89
13.12
12.42
11.83
11.27
10.64
9.85
8.98
8.16
7.58
7.35
7.42
7.63
7.76
7.63
7.18
6.44
5.53
4.54
3.53
2.57
1.68
0.84
0.03
-0.83
-1.83
-3.03
-4.44
-5.99
-7.56
-8.99
-10.17
-11.08
-11.79
-12.54
-13.57
-15.14
-17.33
-19.95
-22.56
-24.52
-25.17
-24.06
-21.06
-16.42
-10.69
-4.49
1.6
7.22
12.23
16.62
20.44
23.71
26.43
28.51
29.88
30.51
30.4
29.62
28.24
26.39
24.22
21.94
19.75
17.83
16.25
14.95
13.78
12.59
11.25
9.71
7.95
5.89
3.41
0.4
-3.15
-7.08
-11.11
-14.95
-18.43
-21.53
-24.3
-26.74
-28.77
-30.25
-31.14
-31.57
-31.87
-32.42
-33.52
-35.22
-37.3
-39.47
-41.45
-43.15
-44.65
-46.19
-48.0
-50.18
-52.7
-55.31
-57.61
-59.15
-59.69
-59.34
-58.74
-58.79
-60.31
-63.53
-67.89
-72.22
-75.36
-76.81
-77.1
-77.5
-79.29
-82.95
-87.91
-92.83
-96.39
-97.75
-96.68
-93.25
-87.46
-79.19
-68.51
-55.92
-42.45
-29.22
-17.09
-6.3
3.39
12.19
19.78
25.23
27.35
25.45
19.97
12.76
6.6
4.48
8.67
20.05
37.9
60.14
84.04
106.95
126.94
143.0
154.84
162.59
166.42
166.52
163.15
156.84
148.41
138.86
129.1
119.58
110.38
101.34
92.33
83.47
75.14
67.78
61.62
56.63
52.52
48.9
45.46
42.05
38.66
35.43
32.51
29.97
27.76
25.7
23.59
21.33
18.99
16.74
14.75
13.01
11.33
9.34
6.68
3.1
-1.46
-6.86
-12.69
-18.31
-22.9
-25.67
-26.08
-24.04
-20.04
-14.94
-9.7
-5.15
-1.73
0.47
1.55
1.74
1.28
0.37
-0.76
-2.0
-3.28
-4.67
-6.29
-8.22
-10.44
-12.76
-14.9
-16.57
-17.59
-17.87
-17.51
-16.63
-15.43
-14.06
-12.63
-11.19
-9.76
-8.35
-6.98
-5.72
-4.63
-3.79
-3.24
-2.97
-2.93
-3.1
-3.43
-3.84
-4.25
-4.51
-4.5
-4.15
-3.55
-2.93
-2.59
-2.77
-3.53
-4.69
-5.95
-6.96
-7.58
-7.88
-8.09
-8.48
-9.17
-10.09
-11.04
-11.83
-12.33
-12.63
-12.91
-13.39
-14.23
-15.54
-17.31
-19.43
-21.67
-23.69
-24.98
-25.03
-23.44
-20.07
-15.12
-9.08
-2.62
3.62
9.11
13.6
16.97
19.3
20.73
21.42
21.5
21.03
20.04
18.51
16.48
14.09
11.56
9.13
7.07
5.52
4.56
4.17
4.26
4.74
5.48
6.35
7.16
7.74
7.96
7.79
7.32
6.73
6.24
5.98
5.94
5.97
5.87
5.5
4.87
4.06
3.2
2.33
1.42
0.44
-0.57
-1.48
-2.17
-2.58
-2.84
-3.21
-3.93
-5.11
-6.63
-8.25
-9.69
-10.87
-11.88
-12.98
-14.43
-16.38
-18.8
-21.42
-23.85
-25.62
-26.31
-25.63
-23.45
-19.82
-15.02
-9.47
-3.72
1.66
6.23
9.71
12.07
13.47
14.14
14.34
14.24
13.94
13.51
13.04
12.64
12.33
12.08
11.77
11.28
10.6
9.9
9.42
9.37
9.79
10.53
11.31
11.85
12.02
11.84
11.42
10.87
10.22
9.43
8.52
7.5
6.5
5.58
4.78
4.07
3.35
2.58
1.77
0.98
0.29
-0.28
-0.71
-1.04
-1.31
-1.57
-1.91
-2.4
-3.09
-3.92
-4.81
-5.63
-6.37
-7.11
-8.0
-9.15
-10.59
-12.2
-13.8
-15.27
-16.58
-17.86
-19.3
-21.1
-23.36
-26.07
-29.0
-31.76
-33.8
-34.55
-33.61
-30.8
-26.31
-20.54
-14.1
-7.61
-1.66
3.29
6.93
9.17
10.22
10.45
10.33
10.24
10.37
10.62
10.77
10.62
10.1
9.3
8.41
7.62
7.09
6.9
7.07
7.58
8.38
9.33
10.23
10.87
11.12
10.95
10.43
9.72
8.96
8.28
7.7
7.15
6.55
5.8
4.89
3.86
2.83
1.9
1.14
0.54
0.01
-0.48
-1.0
-1.53
-2.06
-2.62
-3.25
-4.0
-4.91
-5.94
-7.06
-8.24
-9.48
-10.78
-12.09
-13.33
-14.44
-15.44
-16.47
-17.75
-19.52
-21.88
-24.7
-27.62
-30.14
-31.67
-31.76
-30.15
-26.83
-22.06
-16.3
-10.15
-4.21
1.04
5.32
8.52
10.72
12.08
12.79
13.0
12.84
12.43
11.85
11.2
10.55
9.95
9.38
8.85
8.36
7.97
7.79
7.94
8.52
9.53
10.86
12.23
13.33
13.86
13.68
12.82
11.52
10.14
8.98
8.27
7.96
7.86
7.69
7.24
6.48
5.57
4.75
4.23
4.06
4.14
4.23
4.12
3.73
3.07
2.26
1.4
0.55
-0.32
-1.22
-2.18
-3.2
-4.27
-5.38
-6.53
-7.74
-9.01
-10.33
-11.7
-13.08
-14.44
-15.82
-17.32
-19.05
-21.0
-22.97
-24.44
-24.75
-23.26
-19.66
-14.09
-7.12
0.53
8.17
15.34
21.79
27.44
32.23
36.09
39.0
41.03
42.43
43.58
44.89
46.67
49.0
51.67
54.17
55.87
56.16
54.71
51.57
47.14
42.04
36.89
32.13
27.9
24.06
20.33
16.43
12.18
7.56
2.57
-2.83
-8.76
-15.31
-22.4
-29.65
-36.44
-42.12
-46.28
-48.94
-50.45
-51.28
-51.69
-51.66
-50.97
-49.57
-47.73
-46.02
-45.0
-44.87
-45.3
-45.54
-44.78
-42.56
-38.98
-34.63
-30.4
-27.06
-25.09
-24.52
-25.07
-26.37
-28.14
-30.35
-33.16
-36.65
-40.66
-44.67
-47.84
-49.36
-48.67
-45.65
-40.49
-33.57
-25.31
-16.1
-6.46
2.94
11.23
17.57
21.44
22.82
22.22
20.47
18.33
16.24
14.22
11.92
9.02
5.42
1.38
-2.6
-6.0
-8.46
-9.89
-10.4
-10.17
-9.33
-7.98
-6.18
-4.03
-1.69
0.69
2.92
4.81
6.14
6.74
6.53
5.72
4.87
4.75
6.1
9.23
13.9
19.34
24.52
28.51
30.73
31.07
29.83
27.58
25.0
22.69
20.99
19.9
19.1
18.13
16.71
14.91
13.2
12.1
11.85
12.1
12.05
10.91
8.34
4.71
0.9
-2.15
-3.95
-4.73
-5.23
-6.31
-8.51
-11.86
-15.86
-19.81
-22.98
-24.78
-24.79
-22.77
-18.77
-13.21
-6.83
-0.58
4.77
8.78
11.54
13.43
14.81
15.85
16.41
16.25
15.21
13.37
10.95
8.21
5.27
2.18
-1.01
-4.06
-6.58
-8.15
-8.62
-8.15
-7.2
-6.28
-5.64
-5.27
-4.87
-4.21
-3.22
-2.11
-1.23
-0.82
-0.89
-1.23
-1.51
-1.53
-1.28
-0.92
-0.71
-0.81
-1.26
-1.96
-2.79
-3.69
-4.61
-5.59
-6.61
-7.63
-8.57
-9.37
-10.07
-10.7
-11.4
-12.29
-13.43
-14.83
-16.34
-17.8
-19.08
-20.18
-21.29
-22.72
-24.74
-27.36
-30.26
-32.79
-34.16
-33.8
-31.54
-27.65
-22.72
-17.41
-12.2
-7.32
-2.82
1.28
4.86
7.69
9.6
10.58
10.92
11.05
11.37
12.05
12.94
13.72
14.08
13.96
13.59
13.37
13.71
14.78
16.49
18.54
20.6
22.44
23.98
25.27
26.39
27.37
28.19
28.85
29.37
29.72
29.72
28.92
26.7
22.53
16.36
8.81
1.06
-5.57
-10.13
-12.38
-12.82
-12.3
-11.64
-11.25
-11.17
-11.2
-11.13
-10.88
-10.48
-9.96
-9.33
-8.62
-7.9
-7.35
-7.25
-7.78
-9.04
-10.94
-13.21
-15.57
-17.77
-19.74
-21.6
-23.64
-26.15
-29.27
-32.82
-36.26
-38.76
-39.5
-37.88
-33.75
-27.41
-19.48
-10.72
-1.82
6.72
14.61
21.74
28.22
34.28
40.27
46.48
52.96
59.47
65.47
70.32
73.56
74.88
74.22
71.59
67.17
61.34
54.75
48.24
42.52
37.86
33.9
29.79
24.58
17.61
8.59
-2.44
-15.33
-29.85
-45.59
-61.81
-77.34
-90.99
-101.9
-109.99
-115.94
-120.88
-125.99
-131.94
-138.66
-145.19
-149.91
-150.87
-146.4
-135.69
-119.32
-99.3
-78.46
-59.61
-44.53
-33.38
-24.83
-16.69
-6.67
6.97
25.13
47.68
73.28
99.4
122.59
139.26
146.78
144.39
133.56
117.4
99.66
83.51
70.95
62.77
59.03
59.39
63.28
69.75
77.35
84.21
88.55
89.16
85.89
79.72
72.52
66.28
62.27
60.51
59.63
57.26
50.81
38.23
18.73
-6.75
-35.44
-63.18
-85.41
-98.47
-100.78
-93.29
-78.87
-61.08
-42.83
-25.78
-10.56
2.47
12.54
18.57
19.82
16.65
10.71
4.45
0.01
-1.65
-1.01
0.44
1.05
-0.18
-3.22
-7.13
-10.65
-12.84
-13.48
-13.07
-12.52
-12.6
-13.72
-15.79
-18.49
-21.54
-24.83
-28.41
-32.21
-35.92
-38.82
-40.1
-39.04
-35.37
-29.35
-21.73
-13.42
-5.32
1.88
7.83
12.49
16.06
18.85
21.16
23.06
24.47
25.17
24.99
23.94
22.34
20.64
19.29
18.59
18.57
19.08
19.95
21.02
22.2
23.5
24.84
26.09
27.04
27.44
27.14
26.12
24.54
22.68
20.85
19.27
17.97
16.88
15.84
14.72
13.52
12.31
11.2
10.22
9.35
8.48
7.52
6.44
5.24
3.99
2.71
1.41
0.06
-1.36
-2.84
-4.39
-6.02
-7.76
-9.65
-11.77
-14.13
-16.81
-19.86
-23.29
-27.04
-30.85
-34.29
-36.78
-37.77
-36.86
-33.96
-29.28
-23.3
-16.63
-9.85
-3.47
2.16
6.84
10.5
13.22
15.15
16.53
17.56
18.39
19.06
19.54
19.77
19.73
19.47
19.14
18.92
18.92
19.26
19.94
20.94
22.25
23.78
25.37
26.75
27.58
27.57
26.62
24.86
22.64
20.39
18.46
16.93
15.66
14.33
12.69
10.66
8.39
6.13
4.08
2.23
0.37
-1.73
-4.23
-7.02
-9.85
-12.41
-14.55
-16.32
-17.96
-19.73
-21.77
-24.04
-26.45
-28.86
-31.17
-33.24
-34.84
-35.66
-35.32
-33.5
-30.09
-25.26
-19.45
-13.26
-7.3
-2.05
2.28
5.66
8.25
10.23
11.75
12.9
13.71
14.17
14.32
14.19
13.89
13.52
13.19
13.02
13.09
13.41
13.98
14.75
15.63
16.56
17.42
18.14
18.6
18.74
18.5
17.84
16.79
15.41
13.78
12.04
10.31
8.7
7.28
6.07
5.1
4.36
3.84
3.49
3.25
3.03
2.76
2.44
2.12
1.91
1.91
2.16
2.64
3.24
3.83
4.29
4.52
4.42
3.92
2.85
1.07
-1.52
-4.99
-9.26
-14.07
-18.98
-23.4
-26.71
-28.32
-27.9
-25.42
-21.22
-15.89
-10.09
-4.46
0.55
4.75
8.06
10.54
12.25
13.28
13.74
13.74
13.41
12.91
12.36
11.85
11.41
10.99
10.53
9.99
9.44
9.0
8.81
9.02
9.66
10.67
11.84
12.92
13.66
13.91
13.66
13.0
12.14
11.24
10.43
9.73
9.07
8.35
7.47
6.45
5.31
4.12
2.96
1.88
0.93
0.1
-0.55
-1.0
-1.25
-1.34
-1.39
-1.56
-1.97
-2.68
-3.61
-4.6
-5.46
-6.05
-6.37
-6.49
-6.61
-7.0
-7.94
-9.67
-12.23
-15.36
-18.45
-20.71
-21.46
-20.38
-17.66
-13.9
-9.88
-6.21
-3.22
-1.0
0.48
1.18
1.02
-0.02
-1.81
-4.03
-6.31
-8.36
-10.02
-11.29
-12.12
-12.48
-12.23
-11.28
-9.65
-7.54
-5.24
-3.04
-1.14
0.39
1.62
2.6
3.41
4.02
4.38
4.42
4.13
3.59
2.93
2.29
1.78
1.45
1.28
1.22
1.2
1.08
0.75
0.12
-0.84
-2.02
-3.27
-4.41
-5.42
-6.36
-7.41
-8.68
-10.21
-11.88
-13.52
-14.99
-16.26
-17.4
-18.5
-19.69
-21.09
-22.78
-24.78
-26.97
-29.02
-30.41
-30.6
-29.19
-26.08
-21.59
-16.29
-10.8
-5.66
-1.16
2.6
5.59
7.87
9.5
10.57
11.23
11.66
12.0
12.32
12.59
12.71
12.58
12.1
11.32
10.36
9.48
8.95
9.01
9.69
10.83
12.12
13.22
13.88
14.04
13.78
13.25
12.56
11.78
10.87
9.82
8.6
7.27
5.92
4.65
3.53
2.58
1.77
1.06
0.39
-0.3
-1.04
-1.78
-2.48
-3.07
-3.55
-4.0
-4.53
-5.3
-6.36
-7.68
-9.13
-10.54
-11.81
-12.96
-14.04
-15.16
-16.41
-17.84
-19.53
-21.56
-23.98
-26.68
-29.36
-31.44
-32.26
-31.31
-28.38
-23.71
-17.85
-11.52
-5.4
0.03
4.49
7.89
10.3
11.88
12.82
13.35
13.59
13.59
13.3
12.66
11.67
10.43
9.13
8.0
7.24
6.97
7.18
7.77
8.57
9.38
10.07
10.54
10.78
10.83
10.75
10.62
10.55
10.58
10.7
10.81
10.72
10.21
9.13
7.5
5.47
3.3
1.25
-0.53
-2.02
-3.31
-4.54
-5.86
-7.34
-8.98
-10.69
-12.36
-13.85
-15.08
-16.06
-16.9
-17.8
-19.01
-20.75
-23.05
-25.7
-28.23
-30.01
-30.45
-29.18
-26.24
-21.99
-17.06
-12.0
-7.24
-3.02
0.59
3.55
5.87
7.56
8.71
9.47
9.98
10.39
10.71
10.91
10.97
10.92
10.81
10.76
10.84
11.12
11.6
12.27
13.1
13.99
14.85
15.54
15.97
16.04
15.74
15.13
14.3
13.38
12.46
11.64
10.95
10.36
9.76
9.09
8.32
7.47
6.58
5.71
4.85
3.93
2.87
1.64
0.29
-1.05
-2.22
-3.15
-3.9
-4.61
-5.51
-6.73
-8.31
-10.11
-11.89
-13.45
-14.69
-15.67
-16.57
-17.63
-19.04
-20.93
-23.29
-26.03
-28.91
-31.58
-33.57
-34.39
-33.59
-31.0
-26.79
-21.41
-15.5
-9.7
-4.45
0.05
3.8
6.87
9.4
11.46
13.09
14.33
15.17
15.62
15.65
15.28
14.58
13.67
12.77
12.09
11.77
11.85
12.27
12.92
13.7
14.51
15.25
15.83
16.13
16.1
15.69
14.97
14.03
12.96
11.83
10.64
9.39
8.07
6.74
5.5
4.47
3.74
3.34
3.17
3.06
2.77
2.14
1.17
-0.03
-1.24
-2.26
-3.04
-3.68
-4.39
-5.32
-6.56
-8.06
-9.69
-11.31
-12.83
-14.21
-15.49
-16.78
-18.14
-19.7
-21.54
-23.69
-26.09
-28.52
-30.62
-31.93
-31.96
-30.36
-27.04
-22.25
-16.54
-10.58
-4.99
-0.17
3.78
6.93
9.43
11.35
12.71
13.49
13.75
13.65
13.37
13.06
12.75
12.42
12.03
11.66
11.44
11.54
12.06
12.95
14.03
15.06
15.82
16.17
16.07
15.57
14.79
13.85
12.88
11.95
11.08
10.29
9.54
8.82
8.11
7.44
6.8
6.2
5.61
5.02
4.39
3.68
2.91
2.06
1.18
0.29
-0.59
-1.43
-2.25
-3.06
-3.88
-4.79
-5.87
-7.21
-8.86
-10.79
-12.9
-15.01
-17.02
-18.9
-20.79
-22.91
-25.39
-28.17
-30.9
-32.98
-33.79
-32.89
-30.2
-26.0
-20.85
-15.34
-9.96
-5.01
-0.62
3.14
6.27
8.77
10.62
11.87
12.57
12.84
12.81
12.64
12.49
12.45
12.54
12.72
12.9
13.03
13.13
13.34
13.83
14.71
15.94
17.26
18.38
18.99
19.0
