-12.35
-14.04
-15.76
-17.43
-18.98
-20.46
-21.92
-23.39
-24.9
-26.49
-28.26
-30.29
-32.62
-35.06
-37.18
-38.46
-38.39
-36.71
-33.47
-28.95
-23.62
-17.88
-12.05
-6.35
-0.9
4.18
8.77
12.74
15.99
18.44
20.12
21.12
21.59
21.67
21.42
20.86
20.04
19.07
18.2
17.72
17.83
18.53
19.61
20.77
21.73
22.33
22.56
22.46
22.07
21.37
20.35
19.03
17.52
15.99
14.52
13.14
11.74
10.19
8.42
6.45
4.44
2.56
0.98
-0.29
-1.31
-2.26
-3.27
-4.41
-5.67
-6.99
-8.31
-9.68
-11.21
-12.99
-15.01
-17.16
-19.21
-20.95
-22.27
-23.24
-24.09
-25.15
-26.71
-28.92
-31.69
-34.64
-37.18
-38.62
-38.43
-36.34
-32.49
-27.33
-21.48
-15.51
-9.85
-4.69
-0.07
4.04
7.64
10.68
13.04
14.66
15.54
15.79
15.63
15.26
14.86
14.54
14.37
14.4
14.66
15.16
15.81
16.48
17.0
17.3
17.35
17.28
17.19
17.18
17.22
17.23
17.09
16.69
15.95
14.89
13.59
12.23
10.97
9.93
9.14
8.51
7.93
7.31
6.65
5.95
5.23
4.42
3.36
1.94
0.14
-1.93
-4.02
-5.96
-7.67
-9.27
-10.9
-12.73
-14.75
-16.87
-18.93
-20.84
-22.64
-24.52
-26.72
-29.47
-32.79
-36.45
-39.96
-42.7
-44.05
-43.64
-41.35
-37.38
-32.12
-26.0
-19.46
-12.89
-6.61
-0.89
4.09
8.28
11.75
14.64
17.07
19.06
20.53
21.39
21.6
21.28
20.68
20.11
19.86
20.08
20.73
21.63
22.54
23.26
23.7
23.91
23.99
23.98
23.86
23.55
22.99
22.14
21.06
19.83
18.51
17.13
15.7
14.21
12.69
11.14
9.6
8.06
6.55
5.07
3.59
2.11
0.6
-0.94
-2.5
-4.0
-5.38
-6.57
-7.6
-8.57
-9.63
-10.9
-12.41
-14.07
-15.71
-17.18
-18.38
-19.34
-20.2
-21.2
-22.56
-24.51
-27.12
-30.29
-33.69
-36.78
-38.96
-39.67
-38.57
-35.66
-31.23
-25.79
-19.86
-13.9
-8.25
-3.1
1.44
5.36
8.64
11.35
13.5
15.11
16.19
16.72
16.73
16.28
15.54
14.73
14.1
13.83
14.01
14.61
15.48
16.46
17.39
18.2
18.84
19.28
19.47
19.31
18.75
17.78
16.53
15.18
13.92
12.83
11.86
10.82
9.49
7.78
5.77
3.68
1.8
0.29
-0.86
-1.83
-2.87
-4.17
-5.75
-7.49
-9.2
-10.72
-12.0
-13.06
-13.98
-14.82
-15.68
-16.63
-17.84
-19.49
-21.76
-24.69
-28.12
-31.63
-34.64
-36.52
-36.81
-35.38
-32.36
-28.13
-23.14
-17.75
-12.24
-6.79
-1.59
3.2
7.38
10.84
13.54
15.55
16.94
17.8
18.19
18.21
17.98
17.64
17.34
17.2
17.26
17.55
18.0
18.54
19.09
19.58
19.98
20.26
20.39
20.36
20.15
19.75
19.22
18.64
18.07
17.54
16.99
16.31
15.4
14.27
13.02
11.78
10.7
9.84
9.13
8.45
7.66
6.67
5.45
4.04
2.55
1.09
-0.26
-1.48
-2.62
-3.85
-5.33
-7.2
-9.46
-11.95
-14.42
-16.61
-18.45
-20.03
-21.62
-23.46
-25.7
-28.35
-31.26
-34.24
-37.03
-39.28
-40.62
-40.65
-39.1
-35.95
-31.45
-26.07
-20.3
-14.53
-9.04
-3.96
0.63
4.69
8.17
11.11
13.57
15.62
17.26
18.44
19.09
19.19
18.87
18.37
18.02
18.06
18.61
19.6
20.77
21.83
22.54
22.78
22.53
21.91
21.0
19.94
18.83
17.76
16.8
15.94
15.12
14.22
13.1
11.74
10.21
8.65
7.19
5.92
4.79
3.7
2.57
1.32
-0.06
-1.55
-3.14
-4.81
-6.58
-8.42
-10.29
-12.12
-13.86
-15.49
-17.03
-18.54
-20.09
-21.74
-23.6
-25.74
-28.22
-30.95
-33.67
-35.95
-37.26
-37.14
-35.34
-31.89
-27.12
-21.5
-15.54
-9.66
-4.16
0.8
5.14
8.87
12.03
14.72
16.96
18.74
19.98
20.59
20.57
20.03
19.2
18.35
17.72
17.45
17.59
18.13
18.96
19.98
20.97
21.73
22.03
21.77
20.97
19.79
18.47
17.21
16.13
15.27
14.53
13.77
12.86
11.71
10.36
8.94
7.59
6.42
5.46
4.65
3.91
3.2
2.46
1.69
0.86
-0.07
-1.05
-2.03
-2.9
-3.6
-4.21
-4.88
-5.83
-7.11
-8.67
-10.32
-11.86
-13.2
-14.37
-15.53
-16.89
-18.57
-20.67
-23.21
-26.1
-29.13
-31.92
-33.98
-34.78
-33.96
-31.41
-27.33
-22.12
-16.32
-10.45
-4.95
-0.1
3.97
7.26
9.88
12.03
13.9
15.69
17.46
19.19
20.74
21.92
22.5
22.39
21.62
20.44
19.22
18.33
17.98
18.17
18.69
19.2
19.46
19.32
18.81
18.04
17.1
16.01
14.66
12.96
10.87
8.45
5.89
3.37
1.01
-1.24
-3.54
-6.06
-8.85
-11.74
-14.41
-16.53
-17.96
-18.8
-19.31
-19.7
-20.0
-20.05
-19.68
-18.82
-17.63
-16.34
-15.04
-13.51
-11.35
-8.16
-3.9
1.09
6.23
11.03
15.35
19.4
23.51
27.94
32.62
37.29
41.66
45.63
49.23
52.51
55.29
57.1
57.32
55.56
51.88
46.88
41.66
37.45
35.32
35.76
38.56
42.79
46.92
49.28
48.52
44.21
37.02
28.71
21.56
17.55
17.55
20.99
26.08
30.55
32.5
31.02
26.38
19.66
12.16
4.84
-1.88
-8.02
-13.8
-19.32
-24.63
-29.72
-34.66
-39.66
-44.99
-50.83
-57.06
-63.38
-69.24
-74.05
-77.44
-79.28
-79.81
-79.51
-78.88
-78.28
-77.79
-77.15
-75.98
-74.01
-71.24
-68.01
-64.89
-62.45
-60.98
-60.43
-60.42
-60.38
-59.75
-58.09
-55.21
-51.11
-46.1
-40.59
-35.09
-30.07
-25.89
-22.7
-20.45
-18.87
-17.54
-15.97
-13.76
-10.78
-7.26
-3.66
-0.49
1.95
3.8
5.52
7.76
11.03
15.57
21.29
27.94
35.09
42.18
48.48
53.15
55.43
54.93
51.82
46.88
41.27
36.11
32.17
29.68
28.38
27.79
27.5
27.32
27.29
27.48
27.82
28.07
27.87
26.96
25.29
23.1
20.78
18.68
16.99
15.65
14.49
13.36
12.24
11.31
10.84
11.11
12.22
13.98
15.88
17.14
16.96
14.7
10.18
3.63
-4.33
-13.03
-21.89
-30.54
-38.71
-46.1
-52.36
-57.05
-59.77
-60.02
-57.27
-50.84
-40.14
-24.95
-5.74
16.16
38.87
60.4
79.18
94.32
105.58
112.99
116.65
116.5
112.41
104.3
92.36
77.23
60.22
43.26
28.57
18.2
13.38
14.08
19.04
26.08
32.87
37.53
39.02
37.28
32.88
26.77
19.89
13.0
6.49
0.4
-5.49
-11.55
-18.09
-25.25
-32.87
-40.59
-47.9
-54.26
-59.28
-62.72
-64.52
-64.7
-63.36
-60.61
-56.66
-51.78
-46.29
-40.52
-34.93
-30.15
-27.05
-26.66
-29.83
-36.8
-46.97
-58.93
-70.83
-80.84
-87.68
-90.77
-90.19
-86.5
-80.59
-73.52
-66.42
-60.36
-55.98
-53.35
-51.89
-50.65
-48.79
-45.93
-42.23
-38.16
-34.1
-30.18
-26.22
-22.08
-17.88
-14.05
-11.09
-9.19
-8.14
-7.4
-6.44
-5.08
-3.49
-1.97
-0.71
0.36
1.48
2.88
4.62
6.61
8.8
11.32
14.66
19.54
26.7
36.56
48.79
62.33
75.42
86.15
93.14
95.99
95.38
92.76
89.68
87.24
85.88
85.62
86.29
87.77
89.84
91.85
92.68
90.92
85.57
76.65
65.47
54.24
45.23
39.81
37.88
38.07
38.44
37.42
34.44
29.99
25.14
20.84
17.52
15.12
13.39
12.3
12.1
13.05
15.01
17.33
19.07
19.49
18.54
16.88
15.66
15.9
18.08
21.98
26.75
31.22
34.09
34.19
30.82
24.02
14.7
4.49
-4.74
-11.52
-15.17
-15.95
-14.74
-12.59
-10.3
-8.28
-6.59
-5.16
-4.03
-3.4
-3.66
-5.28
-8.53
-13.36
-19.35
-25.81
-32.11
-37.91
-43.28
-48.49
-53.79
-59.15
-64.26
-68.74
-72.35
-75.14
-77.34
-79.27
-81.21
-83.43
-86.25
-90.02
-94.95
-100.89
-107.22
-112.97
-117.23
-119.53
-119.97
-119.14
-117.7
-115.97
-113.74
-110.43
-105.45
-98.56
-89.99
-80.27
-69.92
-59.12
-47.79
-35.78
-23.28
-10.93
0.36
9.8
17.11
22.59
26.9
30.64
34.01
36.84
38.81
39.73
39.79
39.37
38.83
38.31
37.76
37.01
35.99
34.86
33.87
33.24
33.07
33.27
33.67
34.11
34.5
34.8
34.96
34.96
34.7
34.13
33.25
32.12
30.88
29.62
28.39
27.12
25.65
23.77
21.35
18.36
15.03
11.66
8.55
5.94
3.84
2.08
0.43
-1.37
-3.45
-5.79
-8.24
-10.57
-12.56
-14.09
-15.09
-15.63
-15.86
-16.04
-16.51
-17.55
-19.3
-21.56
-23.84
-25.42
-25.62
-24.05
-20.79
-16.32
-11.37
-6.57
-2.28
1.46
4.86
8.11
11.2
13.89
15.79
16.54
16.03
14.5
12.45
10.47
9.0
8.23
8.08
8.39
9.07
10.16
11.82
14.17
17.16
20.54
23.89
26.84
29.14
30.69
31.49
31.46
30.47
28.41
25.27
21.33
17.04
12.91
9.31
6.38
3.96
1.74
-0.59
-3.3
-6.43
-9.9
-13.47
-16.83
-19.63
-21.64
-22.77
-23.19
-23.29
-23.57
-24.5
-26.27
-28.79
-31.64
-34.25
-36.11
-36.96
-36.86
-36.14
-35.22
-34.42
-33.85
-33.38
-32.63
-31.11
-28.32
-23.91
-17.79
-10.22
-1.74
6.91
14.9
21.48
26.06
28.34
28.49
27.14
25.24
23.7
23.05
23.15
23.39
23.09
21.97
20.34
18.89
18.27
18.68
19.79
21.09
22.21
23.12
23.98
24.8
25.29
24.87
23.12
20.03
16.16
12.37
9.34
7.21
5.58
3.79
1.3
-1.97
-5.63
-9.11
-11.92
-13.91
-15.29
-16.52
-18.06
-20.24
-23.18
-26.71
-30.51
-34.19
-37.38
-39.87
-41.6
-42.7
-43.39
-43.86
-44.24
-44.55
-44.74
-44.65
-44.05
-42.73
-40.54
-37.49
-33.78
-29.74
-25.69
-21.84
-18.18
-14.54
-10.69
-6.46
-1.86
2.99
7.82
12.34
16.22
19.2
21.1
21.9
21.81
21.23
20.71
20.8
21.89
24.07
27.11
30.52
33.73
36.26
37.84
38.45
38.24
37.4
36.09
34.41
32.4
30.12
27.62
25.12
22.91
21.41
21.05
22.15
24.69
28.27
32.13
35.35
37.14
37.02
34.96
31.22
26.22
20.32
13.76
6.75
-0.59
-8.14
-15.81
-23.5
-31.13
-38.52
-45.36
-51.3
-56.07
-59.63
-62.17
-64.05
-65.56
-66.79
-67.51
-67.36
-65.94
-63.03
-58.61
-52.81
-45.88
-38.15
-29.97
-21.71
-13.63
-5.84
1.71
9.22
16.86
24.74
32.8
40.87
48.72
56.08
62.65
68.12
72.25
74.97
76.48
77.14
77.35
77.37
77.16
76.4
74.68
71.69
67.35
61.8
55.24
47.8
39.47
30.18
20.02
9.26
-1.58
-12.01
-21.7
-30.62
-38.9
-46.64
-53.8
-60.18
-65.57
-69.9
-73.25
-75.66
-76.95
-76.66
-74.23
-69.32
-62.08
-53.25
-43.89
-35.05
-27.41
-21.08
-15.74
-10.89
-6.14
-1.37
3.18
7.1
10.04
11.9
13.03
14.12
16.08
19.7
25.46
33.29
42.68
52.69
62.13
69.78
74.57
75.76
73.13
66.99
58.08
47.39
35.95
24.68
14.33
5.43
-1.68
-6.82
-9.97
-11.3
-11.1
-9.73
-7.58
-4.99
-2.29
0.31
2.66
4.72
6.43
7.75
8.61
8.96
8.83
8.37
7.74
7.1
6.48
5.78
4.89
3.74
2.35
0.87
-0.49
-1.51
-2.03
-2.06
-1.74
-1.35
-1.21
-1.58
-2.49
-3.79
-5.22
-6.58
-7.82
-8.98
-10.09
-11.03
-11.59
-11.58
-11.07
-10.36
-9.81
-9.64
-9.74
-9.83
-9.67
-9.38
-9.39
-10.18
-11.9
-14.12
-16.0
-16.64
-15.68
-13.39
-10.59
-8.17
-6.69
-6.28
-6.67
-7.54
-8.61
-9.74
-10.76
-11.38
-11.21
-9.93
-7.48
-4.19
-0.7
2.25
4.13
4.75
4.34
3.35
2.31
1.59
1.39
1.76
2.68
4.09
5.93
8.08
10.31
12.35
13.9
14.79
15.03
14.78
14.24
13.61
12.99
12.43
11.92
11.4
10.78
9.91
8.65
6.91
4.78
2.52
0.49
-0.96
-1.69
-1.75
-1.36
-0.73
-0.07
0.5
0.8
0.64
-0.13
-1.5
-3.21
-4.83
-5.95
-6.41
-6.38
-6.24
-6.43
-7.19
-8.45
-9.93
-11.16
-11.69
-11.11
-9.15
-5.78
-1.3
3.69
8.43
12.26
14.89
16.45
17.4
18.25
19.26
20.36
21.19
21.38
20.74
19.38
17.57
15.55
13.43
11.11
8.43
5.39
2.17
-0.83
-3.17
-4.62
-5.25
-5.43
-5.61
-6.08
-6.93
-8.01
-9.14
-10.18
-11.11
-11.92
-12.53
-12.81
-12.54
-11.63
-10.13
-8.25
-6.2
-4.17
-2.23
-0.38
1.36
2.93
4.24
5.19
5.73
5.91
5.75
5.31
4.62
3.69
2.61
1.49
0.43
-0.49
-1.32
-2.17
-3.19
-4.45
-5.94
-7.6
-9.34
-11.11
-12.85
-14.57
-16.26
-17.98
-19.84
-21.94
-24.3
-26.73
-28.82
-29.99
-29.7
-27.66
-23.93
-18.91
-13.2
-7.41
-2.03
2.67
6.62
9.88
12.55
14.72
16.46
17.77
18.7
19.26
19.51
19.48
19.2
18.71
18.06
17.35
16.72
16.29
16.19
16.43
16.96
17.64
18.27
18.66
18.67
18.23
17.4
16.31
15.11
13.95
12.87
11.84
10.79
9.64
8.4
7.13
5.95
4.96
4.15
3.47
2.77
1.92
0.85
-0.41
-1.7
-2.84
-3.68
-4.16
-4.41
-4.63
-5.01
-5.65
-6.51
-7.44
-8.32
-9.11
-9.88
-10.73
-11.72
-12.86
-14.13
-15.57
-17.31
-19.46
-21.95
-24.42
-26.24
-26.73
-25.41
-22.23
-17.57
-12.12
-6.6
-1.6
2.59
5.89
8.35
10.08
11.15
11.66
11.72
11.47
11.07
10.63
10.18
9.68
9.06
8.3
7.46
6.71
6.24
6.18
6.5
7.07
7.73
8.3
8.68
8.82
8.74
8.5
8.18
7.85
7.59
7.42
7.31
7.25
7.22
7.18
7.11
6.91
6.55
6.05
5.49
5.03
4.79
4.76
4.83
4.81
4.52
3.86
2.84
1.54
0.07
-1.46
-2.92
-4.2
-5.28
-6.23
-7.21
-8.36
-9.74
-11.28
-12.83
-14.3
-15.64
-16.94
-18.32
-19.89
-21.69
-23.7
-25.79
-27.72
-29.15
-29.68
-28.88
-26.54
-22.72
-17.81
-12.4
-7.1
-2.39
1.5
4.56
6.92
8.72
10.08
11.07
11.73
12.09
12.18
12.05
11.77
11.43
11.11
10.91
10.89
11.09
11.51
12.14
12.91
13.71
14.42
14.9
15.07
14.93
14.59
14.17
13.79
13.5
13.23
12.85
12.19
11.18
9.89
8.51
7.3
6.42
5.91
5.65
5.42
5.05
4.47
3.73
2.95
2.19
1.47
0.73
-0.13
-1.16
-2.37
-3.74
-5.23
-6.8
-8.42
-10.07
-11.69
-13.24
-14.7
-16.02
-17.17
-18.12
-18.85
-19.4
-19.85
-20.31
-20.91
-21.78
-22.94
-24.34
-25.75
-26.84
-27.14
-26.25
-23.91
-20.12
-15.18
-9.59
-3.9
1.39
5.94
9.61
12.34
14.2
15.31
15.84
15.96
15.82
15.5
15.01
14.34
13.52
12.6
11.71
10.96
10.42
10.15
10.17
10.52
11.21
12.19
13.3
14.25
14.79
14.73
14.11
13.14
12.06
11.1
10.31
9.6
8.81
7.85
6.7
5.44
4.2
3.06
2.08
1.31
0.78
0.49
0.43
0.47
0.49
0.35
-0.02
-0.62
-1.35
-2.15
-2.91
-3.59
-4.22
-4.88
-5.67
-6.73
-8.09
-9.66
-11.26
-12.65
-13.71
-14.51
-15.28
-16.4
-18.15
-20.63
-23.61
-26.62
-29.05
-30.25
-29.79
-27.53
-23.65
-18.64
-13.12
-7.67
-2.77
1.31
4.44
6.67
8.09
8.85
9.17
9.25
9.29
9.4
9.58
9.7
9.6
9.18
8.49
7.71
7.11
6.93
7.26
8.07
9.18
10.39
11.56
12.53
13.24
13.6
13.57
13.21
12.62
11.97
11.39
10.88
10.38
9.81
9.13
8.4
7.69
7.05
6.47
5.86
5.16
4.35
3.55
2.84
2.28
1.77
1.17
0.34
-0.74
-1.97
-3.19
-4.29
-5.29
-6.28
-7.36
-8.58
-9.87
-11.1
-12.16
-13.08
-14.0
-15.15
-16.75
-18.9
-21.55
-24.53
-27.58
-30.33
-32.43
-33.47
-33.16
-31.35
-28.09
-23.67
-18.53
-13.16
-7.98
-3.34
0.55
3.61
5.87
7.44
8.48
9.15
9.59
9.84
9.94
9.93
9.89
9.95
10.2
10.7
11.39
12.15
12.91
13.58
14.16
14.7
15.24
15.78
16.3
16.7
16.86
16.68
16.11
15.18
14.0
12.7
11.42
10.22
9.14
8.16
7.25
6.41
5.6
4.81
3.98
3.09
2.15
1.22
0.4
-0.24
-0.73
-1.2
-1.85
-2.84
-4.22
-5.92
-7.74
-9.51
-11.12
-12.56
-13.9
-15.24
-16.66
-18.25
-20.09
-22.23
-24.61
-27.04
-29.16
-30.51
-30.63
-29.21
-26.19
-21.73
-16.3
-10.44
-4.75
0.32
4.49
7.71
10.12
11.96
13.48
14.82
16.0
16.92
17.42
17.43
16.97
16.2
15.36
14.7
14.42
14.59
15.14
15.88
16.59
17.09
17.3
17.23
16.99
16.66
16.31
15.92
15.44
14.81
14.02
13.09
12.08
11.04
10.02
9.04
8.14
7.34
6.65
6.07
5.6
5.17
4.75
4.29
3.82
3.34
2.86
2.33
1.73
1.05
0.36
-0.2
-0.49
-0.46
-0.2
0.05
0.02
-0.48
-1.52
-2.99
-4.68
-6.39
-7.94
-9.22
-10.23
-11.05
-11.83
-12.74
-13.93
-15.5
-17.44
-19.63
-21.79
-23.5
-24.19
-23.37
-20.74
-16.38
-10.73
-4.54
1.41
6.52
10.51
13.4
15.37
16.63
17.34
17.62
17.56
17.21
16.56
15.46
13.68
11.04
7.52
3.43
-0.69
-4.18
-6.4
-6.95
-5.74
-2.9
1.23
6.21
11.61
17.06
22.25
26.96
30.98
34.09
36.02
36.47
35.29
32.56
28.67
24.15
19.52
15.08
10.89
6.86
2.85
-1.1
-4.88
-8.32
-11.31
-13.83
-15.96
-17.77
-19.3
-20.61
-21.82
-23.09
-24.66
-26.66
-29.04
-31.49
-33.58
-34.92
-35.38
-35.19
-34.9
-35.25
-36.81
-39.88
-44.33
-49.66
-55.2
-60.24
-64.24
-66.87
-68.02
-67.81
-66.53
-64.59
-62.36
-60.15
-58.15
-56.37
-54.79
-53.36
-52.09
-51.03
-50.24
-49.69
-49.28
-48.76
-47.78
-46.0
-43.15
-39.1
-33.85
-27.5
-20.19
-12.02
-3.04
6.76
17.41
28.91
41.12
53.67
66.03
77.49
87.34
94.95
99.96
102.33
102.27
100.24
96.74
92.26
87.24
81.98
76.74
71.65
66.79
62.12
57.6
53.15
48.75
44.47
40.41
36.59
33.02
29.56
26.11
22.62
19.12
15.74
12.6
9.8
7.31
5.08
3.09
1.27
-0.39
-1.98
-3.6
-5.38
-7.37
-9.51
-11.68
-13.69
-15.45
-17.02
-18.57
-20.31
-22.29
-24.34
-26.06
-26.92
-26.48
-24.54
-21.25
-17.02
-12.43
-8.01
-4.13
-0.94
1.58
3.54
5.05
6.18
6.99
7.53
7.86
8.02
8.04
7.92
7.66
7.3
6.91
6.58
6.4
6.47
6.8
7.4
8.2
9.08
9.88
10.41
10.58
10.32
9.71
8.85
7.88
6.91
6.05
5.38
4.93
4.67
4.49
4.28
3.99
3.67
3.41
3.28
3.23
3.13
2.76
2.05
1.08
0.03
-0.86
-1.53
-2.04
-2.59
-3.35
-4.4
-5.67
-7.04
-8.41
-9.74
-11.07
-12.38
-13.67
-14.89
-16.04
-17.22
-18.56
-20.17
-22.06
-24.06
-25.82
-26.95
-27.07
-25.94
-23.48
-19.86
-15.41
-10.56
-5.8
-1.57
1.86
4.39
6.11
7.24
8.03
8.72
9.35
9.91
10.28
10.38
10.19
9.75
9.13
8.39
7.57
6.71
5.94
5.41
5.28
5.62
6.37
7.3
8.16
8.75
8.96
8.83
8.46
7.96
7.38
6.76
6.08
5.36
4.62
3.94
3.38
3.04
2.95
3.13
3.6
4.34
5.31
6.43
7.58
8.62
9.47
10.07
10.4
10.43
10.15
9.52
8.55
7.26
5.73
4.07
2.38
0.73
-0.82
-2.24
-3.57
-4.82
-6.07
-7.37
-8.72
-10.14
-11.53
-12.87
-14.12
-15.32
-16.58
-17.97
-19.52
-21.15
-22.66
-23.72
-24.0
-23.2
-21.2
-18.09
-14.21
-10.02
-5.97
-2.41
0.52
2.85
4.71
6.21
7.38
8.17
8.56
8.56
8.25
7.77
7.24
6.73
6.29
6.01
6.04
6.56
7.72
9.45
11.46
13.24
14.25
14.18
13.0
11.1
9.04
7.39
6.48
6.39
6.98
7.96
9.06
9.99
10.52
10.48
9.81
8.59
7.06
5.51
4.18
3.22
2.66
2.45
2.48
2.64
2.75
2.63
2.09
1.06
-0.37
-1.97
-3.43
-4.53
-5.2
-5.57
-5.89
-6.41
-7.33
-8.66
-10.27
-11.99
-13.62
-15.09
-16.43
-17.74
-19.2
-20.94
-23.01
-25.28
-27.52
-29.33
-30.29
-30.04
-28.4
-25.41
-21.35
-16.62
-11.7
-6.95
-2.65
1.04
4.1
6.54
8.41
9.74
10.6
11.06
11.22
11.2
11.1
11.03
11.0
11.0
10.95
10.78
10.53
10.31
10.33
10.76
11.71
13.11
14.66
16.02
16.83
16.91
16.29
15.2
14.0
13.11
12.86
13.49
14.93
16.81
18.33
18.51
16.54
12.14
5.83
-1.28
-7.84
-12.86
-16.01
-17.64
-18.4
-18.87
-19.22
-19.26
-18.77
-17.77
-16.7
-16.22
-16.85
-18.63
-21.01
-23.13
-24.33
-24.56
-24.65
-25.98
-29.88
-36.92
-46.44
-56.8
-65.95
-72.39
-75.79
-77.06
-77.77
-79.44
-82.89
-88.14
-94.71
-101.81
-108.12
-111.39
-108.6
-97.08
-76.22
-48.74
-20.47
1.64
12.39
10.49
-1.11
-16.86
-31.04
-39.51
-40.04
-31.57
-13.47
14.39
50.8
92.4
133.9
169.44
194.61
207.75
210.15
205.08
196.25
186.51
177.18
168.22
158.96
148.89
138.0
126.91
116.48
107.32
99.52
92.7
86.3
79.87
73.27
66.54
59.84
53.25
46.78
40.5
34.53
29.08
24.34
20.31
16.8
13.48
10.1
6.53
2.8
-0.93
-4.42
-7.51
-10.13
-12.38
-14.51
-16.82
-19.52
-22.67
-26.12
-29.64
-33.01
-36.09
-38.87
-41.42
-43.93
-46.7
-50.13
-54.55
-59.99
-66.01
-71.63
-75.64
-76.95
-75.0
-69.88
-62.25
-53.02
-43.06
-33.08
-23.57
-14.76
-6.7
0.75
7.8
14.46
20.46
25.22
28.2
29.27
29.03
28.73
29.83
33.33
39.16
46.12
52.19
55.32
54.08
48.3
39.08
28.27
17.75
8.58
0.8
-6.38
-14.0
-22.93
-33.5
-45.53
-57.94
-68.33
-72.93
-67.73
-50.7
-23.78
6.52
31.25
42.92
39.15
23.99
5.79
-7.11
-10.37
-5.12
3.5
9.42
8.45
-0.66
-16.71
-37.23
-59.22
-79.32
-93.82
-99.11
-92.74
-74.47
-46.67
-14.05
17.64
43.12
58.99
64.38
60.85
51.68
40.76
31.44
25.71
23.73
23.85
23.2
18.86
9.3
-4.51
-18.97
-29.1
-30.76
-22.75
-7.67
9.09
21.86
27.15
24.88
17.76
9.32
2.02
-3.62
-8.41
-13.29
-18.47
-23.5
-28.0
-32.21
-36.63
-41.17
-44.4
-43.69
-36.58
-22.52
-3.83
14.75
27.77
31.23
24.01
8.05
-12.65
-33.5
-50.78
-62.13
-66.75
-65.09
-58.52
-48.9
-38.31
-28.67
-21.42
-17.14
-15.51
-15.41
-15.37
-14.25
-11.65
-8.02
-4.31
-1.43
0.2
0.75
0.73
0.57
0.33
-0.34
-1.9
-4.64
-8.48
-13.04
-17.81
-22.36
-26.38
-29.68
-32.13
-33.71
-34.59
-35.2
-36.09
-37.71
-40.15
-43.07
-45.86
-47.93
-48.98
-49.14
-48.82
-48.46
-48.18
-47.86
-47.12
-45.55
-42.7
-38.18
-31.72
-23.18
-12.66
-0.52
12.67
26.24
39.52
51.88
62.6
70.91
76.09
77.74
76.05
72.18
68.08
66.07
68.21
75.5
87.24
100.75
111.75
115.6
109.2
92.45
68.7
43.36
21.65
6.22
-3.67
-11.18
-19.57
-30.03
-41.08
-49.67
-53.37
-52.04
-48.06
-44.83
-44.77
-47.95
-52.23
-54.69
-53.33
-48.25
-41.52
-36.05
-34.0
-35.7
-39.65
-43.35
-44.62
-42.64
-38.2
-33.0
-28.7
-26.0
-24.47
-23.0
-20.6
-16.99
-12.75
-8.91
-6.32
-5.26
-5.31
-5.68
-5.72
-5.13
-4.03
-2.74
-1.56
-0.57
0.33
1.33
2.56
3.98
5.43
6.65
7.46
7.8
7.75
7.49
7.24
7.11
7.1
6.99
6.55
5.54
3.89
1.74
-0.59
-2.75
-4.44
-5.58
-6.34
-6.98
-7.81
-9.0
-10.55
-12.37
-14.37
-16.56
-19.01
-21.8
-24.89
-28.1
-31.2
-34.04
-36.63
-39.05
-41.22
-42.76
-42.98
-41.13
-36.77
-30.11
-22.0
-13.69
-6.36
-0.74
3.15
5.87
8.31
11.38
15.62
21.06
27.03
32.24
34.97
33.57
27.15
15.97
1.62
-13.61
-27.61
-39.57
-50.53
-63.27
-81.62
-109.18
-147.88
-196.69
-251.06
-303.44
-345.08
-368.5
-369.85
-349.97
-313.71
-267.87
-218.62
-169.84
-122.82
-77.13
-31.81
13.62
58.96
103.47
145.99
184.9
218.02
242.83
257.17
260.05
252.29
236.47
216.4
196.18
179.45
168.76
165.07
167.45
173.0
177.58
177.16
169.47
155.11
137.45
121.2
110.17
105.55
105.32
105.19
100.55
88.18
67.12
38.7
5.98
-26.93
-55.65
-76.44
-87.35
-88.88
-83.91
-76.49
-70.18
-66.65
-65.41
-64.73
-63.04
-59.86
-55.79
-51.59
-47.25
-41.8
-34.01
-23.56
-11.74
-1.24
5.05
5.48
0.5
-7.33
-14.38
-17.4
-14.76
-6.87
4.21
15.83
25.93
33.84
40.49
47.83
57.82
71.38
87.95
105.56
121.63
134.04
141.92
145.97
148.08
150.57
155.11
161.81
168.78
172.7
170.09
158.89
139.55
115.08
89.84
67.84
51.26
40.01
32.4
26.59
21.5
17.06
13.56
10.87
8.08
3.86
-2.8
-11.96
-22.71
-33.69
-43.62
-51.82
-58.37
-63.82
-68.88
-74.05
-79.37
-84.43
-88.51
-90.85
-91.02
-89.15
-85.79
-81.8
-77.99
-74.78
-72.18
-69.86
-67.35
-64.23
-60.32
-55.72
-50.8
-46.13
-42.28
-39.65
-38.25
-37.75
-37.59
-37.21
-36.13
-34.08
-30.82
-26.1
-19.6
-11.04
-0.42
11.91
25.27
38.83
51.77
63.53
73.68
81.89
87.72
90.7
90.4
86.69
79.91
70.92
60.79
50.47
40.42
30.6
20.69
10.48
0.18
-9.5
-17.7
-23.78
-27.58
-29.47
-30.09
-30.04
-29.69
-29.21
-28.65
-28.16
-27.97
-28.32
-29.35
-30.99
-32.99
-34.99
-36.61
-37.59
-37.8
-37.28
-36.17
-34.71
-33.15
-31.73
-30.54
-29.65
-29.04
-28.66
-28.46
-28.3
-28.01
-27.36
-26.19
-24.47
-22.42
-20.38
-18.79
-18.05
-18.4
-19.94
-22.67
-26.55
-31.43
-36.98
-42.61
-47.48
-50.63
-51.21
-48.72
-43.2
-35.2
-25.62
-15.51
-5.76
2.97
10.35
16.32
20.97
24.47
26.97
28.67
29.77
30.46
30.97
31.49
32.19
33.15
34.44
36.12
38.26
40.9
44.04
47.57
51.28
54.91
58.22
60.97
62.96
63.99
63.92
62.76
60.67
57.94
54.94
51.95
49.08
46.29
43.48
40.58
37.67
34.95
32.71
31.2
30.55
30.74
31.59
32.74
33.63
33.63
32.18
29.01
24.36
18.89
13.6
9.35
6.65
5.39
5.05
4.93
4.56
3.8
2.8
1.75
0.65
-0.8
-3.0
-6.15
-9.99
-13.79
-16.45
-16.98
-14.83
-10.07
-3.36
4.28
11.84
18.53
23.86
27.65
29.9
30.76
30.41
29.0
26.51
22.82
17.68
10.93
2.61
-6.97
-17.25
-27.58
-37.34
-46.06
-53.35
-59.02
-63.12
-65.97
-68.23
-70.71
-74.06
-78.44
-83.38
-87.94
-91.16
-92.58
-92.59
-92.39
-93.6
-97.57
-104.81
-114.76
-126.0
-136.88
-146.06
-152.77
-156.68
-157.41
-154.08
-145.31
-129.43
-104.94
-70.92
-27.29
24.91
83.04
142.53
196.79
238.03
259.11
255.93
229.41
185.88
135.32
88.09
51.58
28.34
16.4
11.51
9.7
8.94
9.2
11.19
15.02
19.68
23.61
25.91
27.17
29.31
34.44
43.74
56.56
70.75
83.61
92.95
97.67
97.7
93.67
86.53
77.54
68.34
60.82
56.71
56.88
60.99
67.56
74.61
80.47
84.26
85.91
85.8
84.22
81.0
75.5
66.67
53.47
35.24
12.23
-14.14
-41.34
-66.33
-86.59
-100.69
-108.65
-111.47
-110.48
-106.77
-101.09
-94.23
-87.18
-81.29
-77.8
-77.43
-80.1
-84.96
-90.86
-96.74
-102.01
-106.66
-110.91
-115.03
-118.9
-122.02
-123.61
-122.93
-119.56
-113.65
-105.74
-96.66
-87.17
-77.8
-68.82
-60.3
-52.19
-44.39
-36.67
-28.71
-20.04
-10.13
1.48
15.05
30.44
47.15
64.26
80.52
94.51
104.99
111.17
113.01
111.23
107.04
101.74
96.35
91.34
86.8
82.68
79.0
75.94
73.65
72.03
70.61
68.75
65.85
61.73
56.63
51.08
45.55
40.26
35.1
29.78
24.24
18.76
14.0
10.66
9.14
9.2
9.99
10.41
9.57
7.18
3.61
-0.34
-3.91
-6.67
-8.71
-10.45
-12.34
-14.64
-17.27
-20.01
-22.65
-25.19
-27.88
-30.96
-34.51
-38.19
-41.32
-43.04
-42.67
-39.98
-35.3
-29.33
-22.96
-16.91
-11.63
-7.26
-3.79
-1.1
0.89
2.26
3.08
3.43
3.47
3.36
3.25
3.29
3.57
4.14
4.99
6.11
7.4
8.8
10.27
11.8
13.39
15.05
16.67
18.08
19.05
19.37
18.93
17.76
16.04
14.02
11.92
9.93
8.15
6.6
5.21
3.91
2.64
1.34
0.0
-1.36
-2.73
-4.09
-5.42
-6.75
-8.1
-9.51
-10.97
-12.46
-13.92
-15.38
-16.86
-18.47
-20.27
-22.29
-24.49
-26.82
-29.25
-31.85
-34.65
-37.52
-40.08
-41.75
-41.82
-39.83
-35.67
-29.71
-22.66
-15.33
-8.44
-2.44
2.47
6.28
9.08
10.98
12.08
12.52
12.44
12.02
11.41
10.76
10.17
9.7
9.4
9.34
9.57
10.14
11.02
12.12
13.3
14.4
15.3
15.93
16.25
16.23
15.89
15.25
14.4
13.45
12.49
11.53
10.56
9.54
8.49
7.47
6.54
5.69
4.82
3.83
2.65
1.33
-0.03
-1.35
-2.58
-3.83
-5.23
-6.9
-8.83
-10.91
-13.03
-15.09
-17.05
-18.91
-20.68
-22.42
-24.21
-26.24
-28.65
-31.47
-34.4
-36.89
-38.21
-37.74
-35.17
-30.66
-24.7
-17.98
-11.16
-4.77
0.84
5.41
8.79
10.94
12.0
12.22
11.95
11.45
10.84
10.08
9.12
7.97
6.78
5.79
5.24
5.23
5.71
6.51
7.46
8.43
9.38
10.28
11.05
11.56
11.7
11.43
10.82
10.0
9.08
8.1
6.93
5.45
3.61
1.49
-0.74
-2.88
-4.86
-6.75
-8.64
-10.56
-12.42
-14.11
-15.51
-16.67
-17.79
-19.15
-21.0
-23.46
-26.52
-29.95
-33.35
-36.11
-37.54
-37.0
-34.14
-29.1
-22.44
-15.07
-7.92
-1.69
3.27
6.97
9.59
11.39
12.56
13.21
13.42
13.28
12.89
12.38
11.84
11.35
10.93
10.59
10.38
10.37
10.66
11.31
12.27
13.42
14.52
15.33
15.67
15.49
14.79
13.7
12.31
10.74
9.07
7.33
5.58
3.84
2.18
0.62
-0.8
-2.12
-3.47
-4.99
-6.83
-8.99
-11.34
-13.61
-15.59
-17.15
-18.39
-19.53
-20.9
-22.78
-25.33
-28.51
-32.12
-35.69
-38.6
-40.15
-39.74
-37.06
-32.24
-25.8
-18.55
-11.33
-4.8
0.69
5.07
8.43
10.94
12.69
13.73
14.13
14.02
13.61
13.17
12.91
12.91
13.12
13.43
13.77
14.18
14.79
15.7
16.87
18.08
19.07
19.6
19.63
19.25
18.68
18.09
17.55
16.96
16.23
15.28
14.11
12.77
11.39
10.02
8.7
7.4
6.05
4.59
3.02
1.41
-0.14
-1.53
-2.8
-4.07
-5.51
-7.25
-9.28
-11.45
-13.55
-15.46
-17.15
-18.79
-20.58
-22.71
-25.3
-28.41
-32.0
-35.85
-39.58
-42.6
-44.19
-43.69
-40.73
-35.39
-28.23
-20.15
-12.09
-4.81
1.29
6.12
9.76
12.39
14.14
15.15
15.61
15.77
15.89
16.11
16.46
16.76
16.86
16.66
16.3
16.01
16.04
16.54
17.47
18.67
19.89
20.94
21.66
22.02
21.99
21.61
20.91
19.92
18.7
17.33
15.91
14.53
13.26
12.16
11.21
10.34
9.45
8.46
7.35
6.19
5.07
4.04
3.08
2.09
0.96
-0.36
-1.88
-3.53
-5.26
-7.04
-8.89
-10.79
-12.73
-14.67
-16.64
-18.72
-21.06
-23.84
-27.15
-30.95
-34.97
-38.76
-41.69
-43.05
-42.31
-39.22
-33.99
-27.22
-19.74
-12.39
-5.78
-0.22
4.27
7.81
10.55
12.58
13.95
14.75
15.12
15.28
15.38
15.53
15.69
15.76
15.72
15.61
15.63
15.98
16.78
18.0
19.47
20.93
22.18
23.05
23.53
23.62
23.37
22.83
22.07
21.15
20.12
19.0
17.76
16.37
14.85
13.31
11.82
10.45
9.12
7.71
6.06
4.12
1.95
-0.25
-2.34
-4.21
-5.9
-7.56
-9.35
-11.42
-13.84
-16.61
-19.66
-22.9
-26.22
-29.53
-32.78
-35.95
-39.09
-42.16
-44.99
-47.24
-48.37
-47.8
-45.14
-40.35
-33.79
-26.14
-18.22
-10.75
-4.2
1.19
5.35
8.31
10.11
10.9
10.9
10.37
9.56
8.64
7.65
6.54
5.25
3.74
2.12
0.54
-0.81
-1.78
-2.31
-2.49
-2.56
-2.85
-3.71
-5.4
-8.0
-11.39
-15.26
-19.33
-23.43
-27.63
-32.17
-37.38
-43.45
-50.35
-57.76
-65.24
-72.48
-79.41
-86.29
-93.41
-100.91
-108.5
-115.49
-121.11
-124.93
-127.21
-128.97
-131.73
-137.04
-146.05
-159.29
-176.62
-197.21
-219.41
-240.6
-257.44
-266.39
-264.7
-251.14
-226.36
-192.35
-151.6
-106.19
-57.59
-6.94
44.34
94.23
140.39
180.8
214.49
241.61
263.02
279.65
292.0
300.05
303.47
301.73
294.4
281.31
262.75
239.72
213.86
187.1
161.04
136.34
112.67
89.22
65.68
43.33
25.47
16.6
20.56
38.37
66.84
98.87
125.5
138.93
134.98
114.04
79.96
37.91
-7.52
-53.01
-96.16
-134.63
-165.71
-186.47
-194.39
-187.8
-166.09
-130.04
-82.47
-28.61
24.03
67.31
94.76
103.74
96.21
77.55
54.07
30.6
9.49
-8.84
-24.51
-37.05
-45.23
-47.83
-44.62
-36.87
-27.01
-17.44
-9.58
-3.28
2.77
10.1
19.3
29.46
38.51
44.18
45.22
42.13
37.03
32.78
31.73
34.8
41.28
49.25
56.53
61.48
63.49
62.98
61.03
58.88
57.48
57.22
57.96
59.13
60.08
60.29
59.51
57.79
55.35
52.43
49.22
45.81
42.25
38.61
35.04
31.74
28.82
26.3
24.0
21.66
19.05
16.11
12.95
9.83
7.03
4.67
2.71
0.96
-0.83
-2.85
-5.16
-7.69
-10.23
-12.5
-14.16
-14.94
-14.69
-13.46
-11.5
-9.16
-6.79
-4.62
-2.77
-1.24
0.04
1.14
2.03
2.67
3.0
2.98
2.67
2.19
1.67
1.25
0.94
0.67
0.33
-0.17
-0.85
-1.65
-2.42
-3.07
-3.5
-3.69
-3.67
-3.55
-3.41
-3.36
-3.47
-3.75
-4.17
-4.64
-5.08
-5.43
-5.69
-5.91
-6.17
-6.53
-7.0
-7.54
-8.11
-8.67
-9.23
-9.77
-10.28
-10.67
-10.88
-10.92
-10.92
-11.04
-11.51
-12.41
-13.71
-15.25
-16.87
-18.38
-19.64
-20.47
-20.73
-20.28
-19.06
-17.14
-14.67
-11.9
-9.06
-6.35
-3.9
-1.78
-0.01
1.41
2.53
3.44
4.21
4.89
5.48
5.96
6.31
6.54
6.74
6.92
7.12
7.26
7.25
7.0
6.49
5.79
5.05
4.44
4.09
4.05
4.26
4.58
4.84
4.89
4.63
4.03
3.2
2.23
1.26
0.35
-0.52
-1.38
-2.29
-3.32
-4.48
-5.77
-7.12
-8.49
-9.78
-10.93
-11.97
-12.96
-14.0
-15.17
-16.46
-17.78
-18.96
-19.82
-20.22
-20.1
-19.47
-18.42
-17.06
-15.49
-13.78
-11.96
-10.04
-8.09
-6.21
-4.54
-3.2
-2.19
-1.42
-0.66
0.28
1.49
2.92
4.4
5.78
6.95
7.94
8.84
9.77
10.76
11.77
12.65
13.28
13.55
13.48
13.12
12.61
12.08
11.62
11.26
10.99
10.76
10.51
10.16
9.69
9.12
8.55
8.12
7.96
8.1
8.44
8.78
8.89
8.61
7.98
7.17
6.46
6.13
6.37
7.25
8.69
10.41
11.96
12.84
12.58
10.9
7.8
3.58
-1.26
-6.02
-10.04
-12.8
-13.99
-13.59
-11.83
-9.04
-5.63
-1.98
1.62
4.87
7.57
9.55
10.71
11.01
10.48
9.2
7.28
4.91
2.3
-0.29
-2.6
-4.48
-5.89
-6.9
-7.6
-8.09
-8.33
-8.25
-7.75
-6.78
-5.45
-3.97
-2.56
-1.43
-0.67
-0.24
-0.12
-0.26
-0.66
-1.34
-2.29
-3.39
-4.46
-5.31
-5.83
-6.01
-5.85
-5.33
-4.37
-2.87
-0.84
1.54
3.97
6.1
7.74
8.95
9.94
10.98
12.17
13.44
14.52
15.1
14.92
13.86
12.01
9.76
7.8
6.97
8.04
11.33
16.51
22.64
28.37
32.38
33.6
31.31
25.15
15.13
1.7
-14.13
-30.84
-46.73
-60.25
-70.48
-77.22
-80.9
-82.29
-82.22
-81.34
-80.01
-78.31
-76.05
-72.91
-68.59
-62.88
-55.8
-47.49
-38.1
-27.69
-16.36
-4.41
7.35
17.7
25.24
28.87
28.31
24.24
18.21
12.06
7.36
4.86
4.31
4.61
4.27
1.99
-2.95
-10.51
-20.11
-30.95
-42.34
-53.81
-65.02
-75.51
-84.61
-91.54
-95.73
-97.14
-96.42
-94.72
-93.27
-92.86
-93.62
-95.01
-96.11
-96.06
-94.37
-90.99
-86.23
-80.48
-73.99
-66.88
-59.13
-50.72
-41.78
-32.52
-23.24
-14.24
-5.79
1.92
8.73
14.63
19.76
24.47
29.24
34.58
40.88
48.27
56.7
65.93
75.62
85.37
94.7
103.06
109.93
114.93
117.89
118.93
118.33
116.41
113.4
109.49
104.84
99.7
94.31
88.84
83.29
77.52
71.37
64.83
58.12
51.58
45.56
40.16
35.22
30.44
25.55
20.52
15.55
11.0
7.2
4.29
2.17
0.62
-0.69
-2.0
-3.46
-5.11
-6.92
-8.87
-10.92
-13.05
-15.28
-17.53
-19.74
-21.77
-23.51
-24.82
-25.62
-25.82
-25.36
-24.19
-22.33
-19.88
-17.0
-13.9
-10.74
-7.64
-4.65
-1.81
0.79
3.05
4.86
6.17
6.99
7.36
7.36
7.07
6.58
6.01
5.5
5.17
5.08
5.27
5.7
6.28
6.91
7.46
7.81
7.88
7.68
7.27
6.78
6.33
5.98
5.75
5.59
5.45
5.26
4.99
4.63
4.2
3.79
3.48
3.34
3.34
3.35
3.14
2.51
1.3
-0.44
-2.51
-4.64
-6.57
-8.2
-9.57
-10.81
-12.06
-13.34
-14.63
-15.86
-16.93
-17.8
-18.32
-18.38
-17.83
-16.65
-15.06
-13.44
-12.27
-11.83
-12.11
-12.73
-13.15
-12.87
-11.66
-9.57
-6.87
-3.86
-0.8
2.15
4.85
7.22
9.13
10.51
11.42
12.02
12.56
13.24
14.16
15.26
16.36
17.24
17.78
17.98
17.91
17.71
17.41
16.95
16.24
15.2
13.87
12.44
11.12
10.09
9.41
8.96
8.57
8.08
7.44
6.7
5.93
5.15
4.31
3.31
2.12
0.8
-0.51
-1.67
-2.57
-3.27
-3.9
-4.62
-5.56
-6.73
-8.1
-9.63
-11.35
-13.33
-15.61
-18.22
-21.04
