-1.91
-2.98
-4.27
-5.73
-7.34
-9.05
-10.86
-12.75
-14.69
-16.62
-18.51
-20.43
-22.54
-25.04
-27.98
-31.23
-34.39
-36.92
-38.27
-37.99
-35.91
-32.14
-27.05
-21.15
-15.03
-9.19
-3.98
0.42
4.04
6.94
9.26
11.06
12.45
13.49
14.23
14.73
15.0
15.08
15.03
14.93
14.93
15.13
15.6
16.32
17.21
18.15
18.99
19.61
19.9
19.82
19.4
18.75
18.01
17.26
16.53
15.79
14.93
13.93
12.77
11.54
10.36
9.35
8.6
8.09
7.74
7.35
6.72
5.72
4.3
2.6
0.84
-0.78
-2.15
-3.28
-4.26
-5.22
-6.23
-7.34
-8.57
-9.99
-11.62
-13.47
-15.41
-17.34
-19.2
-21.08
-23.19
-25.78
-28.89
-32.29
-35.44
-37.64
-38.27
-36.95
-33.66
-28.72
-22.63
-15.99
-9.38
-3.3
1.89
6.0
9.0
10.98
12.15
12.73
12.94
12.99
13.0
13.09
13.29
13.6
14.0
14.45
14.91
15.36
15.79
16.23
16.64
17.02
17.31
17.43
17.33
16.97
16.34
15.49
14.5
13.44
12.34
11.22
10.05
8.83
7.6
6.38
5.19
4.01
2.8
1.52
0.14
-1.28
-2.67
-3.91
-4.97
-5.86
-6.69
-7.61
-8.73
-10.08
-11.6
-13.18
-14.77
-16.43
-18.3
-20.54
-23.25
-26.34
-29.5
-32.25
-34.08
-34.52
-33.3
-30.38
-25.99
-20.58
-14.69
-8.8
-3.31
1.54
5.63
8.9
11.39
13.19
14.42
15.24
15.76
16.03
16.06
15.87
15.48
15.0
14.54
14.2
14.07
14.18
14.6
15.32
16.28
17.34
18.29
18.89
19.0
18.61
17.82
16.78
15.63
14.5
13.48
12.64
12.03
11.66
11.4
11.11
10.63
9.9
8.95
7.88
6.79
5.74
4.75
3.82
2.94
2.12
1.32
0.49
-0.45
-1.54
-2.75
-3.97
-5.07
-6.0
-6.74
-7.4
-8.1
-8.98
-10.07
-11.37
-12.79
-14.24
-15.73
-17.32
-19.21
-21.58
-24.53
-27.97
-31.58
-34.9
-37.35
-38.37
-37.56
-34.77
-30.15
-24.15
-17.45
-10.79
-4.78
0.2
4.06
6.89
8.92
10.33
11.27
11.86
12.19
12.35
12.37
12.25
11.97
11.57
11.14
10.87
10.95
11.47
12.41
13.6
14.86
15.93
16.66
16.96
16.84
16.4
15.78
15.15
14.59
14.17
13.86
13.56
13.17
12.59
11.79
10.8
9.72
8.63
7.63
6.75
6.0
5.32
4.66
3.95
3.14
2.2
1.14
-0.01
-1.21
-2.44
-3.67
-4.91
-6.18
-7.51
-8.93
-10.47
-12.17
-14.0
-15.91
-17.81
-19.61
-21.31
-23.03
-24.97
-27.29
-29.99
-32.77
-35.05
-36.14
-35.46
-32.75
-28.22
-22.41
-16.06
-9.89
-4.37
0.25
3.98
6.89
9.1
10.68
11.73
12.35
12.65
12.8
12.91
13.06
13.25
13.46
13.63
13.77
13.95
14.29
14.9
15.75
16.74
17.63
18.23
18.42
18.2
17.64
16.84
15.94
15.0
14.08
13.21
12.38
11.54
10.61
9.57
8.46
7.37
6.42
5.68
5.11
4.64
4.15
3.58
2.92
2.21
1.48
0.74
-0.0
-0.79
-1.61
-2.48
-3.37
-4.26
-5.17
-6.14
-7.27
-8.63
-10.28
-12.16
-14.2
-16.23
-18.16
-19.93
-21.6
-23.36
-25.41
-27.92
-30.83
-33.86
-36.48
-38.09
-38.18
-36.49
-33.09
-28.31
-22.64
-16.56
-10.52
-4.88
0.04
4.02
6.95
8.93
10.24
11.19
12.07
12.95
13.78
14.39
14.65
14.56
14.26
13.96
13.87
14.14
14.79
15.75
16.86
17.92
18.74
19.24
19.41
19.32
19.07
18.73
18.28
17.69
16.9
15.93
14.79
13.56
12.29
11.03
9.85
8.77
7.82
7.01
6.29
5.67
5.18
4.84
4.63
4.45
4.13
3.49
2.48
1.13
-0.35
-1.79
-3.1
-4.29
-5.44
-6.61
-7.82
-9.03
-10.24
-11.5
-12.9
-14.5
-16.27
-18.14
-20.05
-22.02
-24.2
-26.75
-29.75
-33.03
-36.16
-38.54
-39.59
-38.88
-36.3
-32.02
-26.45
-20.13
-13.62
-7.42
-1.95
2.5
5.82
8.08
9.53
10.51
11.31
12.09
12.86
13.51
13.89
13.95
13.74
13.45
13.29
13.39
13.8
14.47
15.25
16.01
16.62
17.02
17.17
17.07
16.76
16.25
15.58
14.76
13.82
12.82
11.81
10.8
9.83
8.89
7.98
7.11
6.29
5.49
4.66
3.74
2.7
1.58
0.45
-0.61
-1.61
-2.62
-3.77
-5.16
-6.82
-8.67
-10.59
-12.49
-14.3
-16.09
-17.98
-20.15
-22.76
-25.88
-29.4
-33.01
-36.19
-38.39
-39.14
-38.14
-35.34
-30.93
-25.29
-18.92
-12.4
-6.29
-1.06
3.03
5.99
8.08
9.63
10.99
12.35
13.67
14.85
15.75
16.28
16.46
16.36
16.14
15.91
15.81
15.97
16.45
17.23
18.2
19.14
19.83
20.11
20.0
19.57
19.01
18.48
18.05
17.71
17.37
16.92
16.26
15.33
14.13
12.75
11.34
10.05
8.99
8.18
7.56
6.97
6.28
5.35
4.2
2.91
1.62
0.45
-0.58
-1.55
-2.59
-3.85
-5.4
-7.24
-9.3
-11.48
-13.69
-15.89
-18.04
-20.12
-22.14
-24.13
-26.24
-28.6
-31.31
-34.29
-37.21
-39.52
-40.63
-40.02
-37.48
-33.15
-27.44
-20.97
-14.33
-8.03
-2.46
2.17
5.77
8.4
10.24
11.57
12.63
13.58
14.4
15.02
15.33
15.29
15.01
14.66
14.39
14.32
14.48
14.88
15.52
16.39
17.46
18.56
19.5
20.0
19.89
19.19
18.09
16.86
15.75
14.82
14.0
13.14
12.15
11.04
9.92
8.92
8.07
7.3
6.49
5.54
4.45
3.29
2.2
1.21
0.29
-0.69
-1.89
-3.38
-5.1
-6.89
-8.56
-10.04
-11.31
-12.51
-13.74
-15.1
-16.64
-18.37
-20.37
-22.75
-25.57
-28.8
-32.14
-35.07
-36.91
-37.06
-35.19
-31.39
-26.18
-20.31
-14.55
-9.39
-5.06
-1.55
1.23
3.29
4.59
5.15
5.07
4.64
4.21
3.99
4.04
4.17
4.13
3.77
3.11
2.37
1.84
1.75
2.15
2.86
3.58
4.01
3.95
3.38
2.47
1.42
0.43
-0.39
-1.06
-1.66
-2.3
-3.1
-4.14
-5.42
-6.9
-8.46
-10.05
-11.64
-13.3
-15.0
-16.6
-17.72
-17.9
-16.83
-14.58
-11.65
-8.76
-6.41
-4.55
-2.67
-0.16
3.02
6.12
7.97
7.56
4.8
0.37
-4.75
-10.06
-15.85
-22.63
-30.19
-36.96
-40.35
-37.88
-28.54
-13.48
4.52
22.33
37.8
50.38
60.74
69.64
76.92
81.18
80.42
73.1
59.24
40.71
20.7
2.49
-11.8
-21.81
-28.69
-34.15
-39.35
-44.31
-48.03
-49.34
-47.71
-43.74
-38.94
-35.19
-34.04
-36.25
-41.66
-49.46
-58.46
-67.59
-75.98
-83.09
-88.44
-91.62
-92.27
-90.22
-85.77
-79.69
-73.04
-66.79
-61.39
-56.67
-51.91
-46.17
-38.69
-29.17
-17.85
-5.41
7.16
18.83
28.76
36.45
41.91
45.5
47.84
49.48
50.77
51.8
52.49
52.73
52.47
51.75
50.61
49.0
46.87
44.17
41.05
37.9
35.32
33.95
34.29
36.48
40.24
44.97
49.88
54.32
57.9
60.57
62.6
64.3
65.89
67.33
68.31
68.45
67.47
65.4
62.57
59.51
56.78
54.8
53.72
53.45
53.72
54.09
54.16
53.56
52.13
49.84
46.85
43.37
39.61
35.71
31.76
27.87
24.17
20.79
17.81
15.24
13.07
11.24
9.79
8.78
8.31
8.38
8.93
9.75
10.56
11.08
11.08
10.44
9.22
7.59
5.82
4.11
2.57
1.15
-0.34
-2.02
-3.86
-5.51
-6.44
-6.06
-3.97
-0.14
5.09
11.15
17.43
23.42
28.77
33.27
36.82
39.43
41.24
42.4
43.07
43.24
42.68
40.97
37.66
32.43
25.28
16.53
6.77
-3.21
-12.66
-20.99
-27.87
-33.29
-37.49
-40.75
-43.27
-45.09
-46.14
-46.34
-45.81
-44.77
-43.51
-42.23
-40.95
-39.54
-37.91
-36.07
-34.19
-32.55
-31.35
-30.59
-30.08
-29.55
-28.77
-27.68
-26.4
-25.12
-24.07
-23.35
-23.0
-22.95
-23.08
-23.24
-23.29
-23.17
-22.89
-22.56
-22.33
-22.34
-22.66
-23.29
-24.23
-25.45
-26.95
-28.7
-30.62
-32.57
-34.45
-36.21
-37.87
-39.48
-40.99
-42.15
-42.52
-41.65
-39.19
-35.18
-29.98
-24.22
-18.59
-13.59
-9.41
-6.0
-3.18
-0.8
1.14
2.55
3.26
3.22
2.51
1.38
0.17
-0.78
-1.16
-0.8
0.32
2.05
4.11
6.19
8.08
9.72
11.2
12.75
14.52
16.53
18.64
20.62
22.26
23.47
24.26
24.73
24.97
25.0
24.79
24.29
23.49
22.51
21.5
20.64
20.02
19.63
19.38
19.13
18.8
18.39
17.95
17.52
17.08
16.51
15.69
14.58
13.24
11.78
10.29
8.77
7.05
4.94
2.25
-1.11
-5.11
-9.74
-15.01
-20.92
-27.42
-34.22
-40.79
-46.41
-50.4
-52.34
-52.27
-50.6
-48.07
-45.55
-44.01
-44.39
-47.58
-54.1
-63.97
-76.5
-90.36
-103.85
-115.35
-123.72
-128.53
-130.08
-129.16
-126.7
-123.41
-119.42
-114.05
-105.8
-92.7
-72.9
-45.39
-10.48
30.15
73.8
117.38
157.94
193.0
220.8
240.33
251.51
255.24
253.23
247.46
239.72
231.13
222.11
212.7
202.76
192.08
180.22
166.41
149.77
129.74
106.65
81.86
57.6
36.31
20.05
10.02
6.36
8.27
14.15
22.02
29.85
35.93
39.1
38.82
34.95
27.55
16.87
3.47
-11.57
-26.68
-40.05
-50.23
-56.66
-59.77
-60.82
-61.28
-62.22
-63.96
-66.1
-67.86
-68.63
-68.29
-67.18
-65.83
-64.58
-63.45
-62.23
-60.76
-59.18
-57.93
-57.5
-58.1
-59.56
-61.34
-62.86
-63.75
-64.01
-63.87
-63.61
-63.31
-62.78
-61.67
-59.67
-56.66
-52.74
-48.13
-43.0
-37.41
-31.36
-24.91
-18.31
-11.97
-6.35
-1.65
2.16
5.43
8.53
11.68
14.82
17.71
20.1
21.95
23.43
24.85
26.46
28.29
30.07
31.41
31.95
31.5
30.09
27.95
25.39
22.64
19.82
16.94
13.98
10.98
8.06
5.35
2.98
0.97
-0.76
-2.37
-4.0
-5.76
-7.69
-9.79
-11.96
-14.06
-15.9
-17.27
-18.02
-18.12
-17.67
-16.92
-16.13
-15.47
-15.02
-14.75
-14.53
-14.23
-13.7
-12.81
-11.48
-9.71
-7.6
-5.35
-3.18
-1.27
0.34
1.76
3.17
4.71
6.36
7.93
9.16
9.8
9.73
9.02
7.85
6.44
4.95
3.46
1.99
0.58
-0.66
-1.62
-2.2
-2.41
-2.4
-2.38
-2.55
-2.99
-3.61
-4.25
-4.77
-5.19
-5.58
-6.13
-6.87
-7.74
-8.51
-8.95
-8.95
-8.55
-7.95
-7.38
-6.99
-6.79
-6.7
-6.62
-6.53
-6.49
-6.63
-7.01
-7.61
-8.29
-8.8
-8.94
-8.57
-7.75
-6.58
-5.27
-3.99
-2.81
-1.78
-0.87
-0.12
0.44
0.77
0.84
0.69
0.37
0.02
-0.26
-0.35
-0.18
0.35
1.2
2.29
3.41
4.37
5.01
5.32
5.4
5.38
5.39
5.47
5.58
5.66
5.71
5.75
5.81
5.88
5.88
5.78
5.56
5.29
5.07
4.96
4.96
5.0
4.96
4.77
4.38
3.83
3.11
2.27
1.38
0.5
-0.27
-0.86
-1.3
-1.7
-2.23
-3.07
-4.33
-5.97
-7.87
-9.79
-11.49
-12.76
-13.5
-13.74
-13.62
-13.34
-13.11
-13.05
-13.18
-13.39
-13.5
-13.3
-12.6
-11.34
-9.59
-7.51
-5.34
-3.3
-1.52
0.01
1.39
2.8
4.43
6.36
8.51
10.58
12.14
12.82
12.47
11.28
9.76
8.52
8.01
8.36
9.34
10.51
11.44
11.8
11.39
10.12
7.93
4.93
1.33
-2.42
-5.74
-8.13
-9.31
-9.34
-8.52
-7.35
-6.18
-5.22
-4.41
-3.64
-2.94
-2.59
-3.06
-4.69
-7.42
-10.74
-13.89
-16.25
-17.68
-18.48
-19.12
-19.88
-20.62
-20.98
-20.66
-19.72
-18.58
-17.78
-17.57
-17.82
-18.08
-17.87
-17.0
-15.66
-14.27
-13.3
-13.01
-13.43
-14.29
-15.16
-15.61
-15.23
-13.79
-11.36
-8.46
-5.91
-4.73
-5.59
-8.5
-12.56
-16.19
-17.66
-15.84
-10.6
-2.88
5.73
13.54
19.33
22.56
23.37
22.34
20.19
17.62
15.16
13.05
11.3
9.67
7.81
5.39
2.14
-1.95
-6.76
-11.9
-16.84
-20.97
-23.74
-24.82
-24.21
-22.24
-19.42
-16.38
-13.61
-11.4
-9.77
-8.57
-7.5
-6.32
-4.92
-3.35
-1.83
-0.57
0.29
0.77
1.05
1.3
1.59
1.81
1.76
1.2
0.01
-1.7
-3.69
-5.62
-7.21
-8.31
-8.94
-9.19
-9.23
-9.21
-9.21
-9.27
-9.38
-9.46
-9.44
-9.19
-8.65
-7.76
-6.56
-5.15
-3.6
-1.93
0.04
2.58
6.02
10.55
16.11
22.31
28.35
33.2
35.77
35.29
31.58
25.24
17.56
10.08
4.14
0.46
-1.0
-0.82
0.23
1.55
2.89
4.16
5.35
6.34
6.94
7.07
6.91
6.89
7.45
8.84
10.92
13.15
14.87
15.51
14.95
13.41
11.38
9.35
7.64
6.31
5.31
4.53
3.94
3.55
3.35
3.3
3.29
3.21
3.03
2.77
2.5
2.22
1.9
1.48
0.96
0.46
0.11
0.09
0.4
0.95
1.56
2.13
2.65
3.25
4.05
5.07
6.17
7.07
7.45
7.05
5.75
3.58
0.68
-2.7
-6.31
-9.8
-12.87
-15.27
-16.85
-17.63
-17.82
-17.74
-17.73
-18.04
-18.72
-19.66
-20.59
-21.25
-21.49
-21.34
-20.97
-20.63
-20.52
-20.66
-20.93
-21.08
-20.9
-20.27
-19.18
-17.68
-15.81
-13.51
-10.73
-7.45
-3.81
-0.04
3.61
6.99
10.1
13.02
15.8
18.35
20.48
21.97
22.74
22.87
22.59
22.18
21.81
21.47
21.01
20.26
19.1
17.56
15.82
14.1
12.6
11.4
10.45
9.59
8.69
7.65
6.5
5.32
4.1
2.77
1.19
-0.76
-3.03
-5.44
-7.62
-9.27
-10.16
-10.34
-10.05
-9.64
-9.48
-9.82
-10.71
-12.05
-13.64
-15.26
-16.71
-17.84
-18.48
-18.49
-17.74
-16.22
-14.15
-11.85
-9.73
-8.06
-6.89
-6.1
-5.49
-4.9
-4.36
-3.95
-3.85
-4.13
-4.79
-5.72
-6.74
-7.65
-8.22
-8.24
-7.59
-6.29
-4.55
-2.74
-1.21
-0.23
0.14
0.03
-0.4
-0.97
-1.59
-2.23
-2.84
-3.33
-3.57
-3.43
-2.85
-1.86
-0.57
0.85
2.21
3.3
3.93
3.98
3.44
2.44
1.19
-0.07
-1.25
-2.45
-3.89
-5.82
-8.37
-11.39
-14.56
-17.48
-19.84
-21.56
-22.8
-23.82
-24.82
-25.89
-26.92
-27.66
-27.83
-27.13
-25.38
-22.47
-18.5
-13.69
-8.35
-2.79
2.73
8.07
13.15
17.96
22.47
26.68
30.54
34.05
37.18
39.91
42.2
43.97
45.21
45.91
46.11
45.85
45.2
44.25
43.13
41.99
40.94
40.04
39.33
38.79
38.49
38.55
39.11
40.27
41.93
43.75
45.14
45.46
44.22
41.25
36.76
31.3
25.57
20.25
15.85
12.64
10.59
9.46
8.84
8.28
7.45
6.25
4.83
3.53
2.69
2.48
2.8
3.37
3.92
4.24
4.3
4.11
3.65
2.8
1.39
-0.62
-3.07
-5.55
-7.58
-8.8
-9.14
-8.84
-8.35
-8.13
-8.52
-9.68
-11.56
-13.99
-16.71
-19.45
-21.97
-24.03
-25.53
-26.47
-26.93
-27.04
-26.81
-26.25
-25.31
-24.01
-22.47
-20.89
-19.43
-18.17
-17.05
-16.0
-15.03
-14.3
-13.99
-14.22
-14.92
-15.74
-16.29
-16.17
-15.26
-13.64
-11.58
-9.39
-7.34
-5.62
-4.3
-3.39
-2.83
-2.6
-2.7
-3.26
-4.45
-6.47
-9.38
-13.08
-17.3
-21.77
-26.25
-30.69
-35.11
-39.59
-44.21
-49.07
-54.33
-60.25
-67.03
-74.61
-82.62
-90.29
-96.76
-101.29
-103.62
-103.84
-102.35
-99.44
-95.19
-89.56
-82.44
-73.95
-64.34
-53.96
-43.15
-32.22
-21.56
-11.73
-3.37
2.99
7.11
9.13
9.32
7.96
5.23
1.48
-2.45
-5.19
-5.2
-1.46
6.02
16.14
27.25
37.96
47.69
56.68
65.42
74.09
82.16
88.72
92.95
94.54
93.67
90.83
86.57
81.44
76.12
71.56
68.77
68.43
70.42
73.8
77.1
79.12
79.39
78.39
77.01
76.02
75.51
74.92
73.44
70.6
66.56
62.09
58.2
55.7
54.87
55.39
56.56
57.58
57.78
56.82
54.74
51.95
48.99
46.31
43.99
41.78
39.25
36.12
32.49
28.85
25.92
24.28
24.22
25.73
28.59
32.26
35.5
36.04
30.75
16.53
-8.29
-42.77
-83.21
-124.16
-160.25
-187.91
-205.96
-215.14
-216.96
-212.64
-202.82
-188.04
-169.36
-148.59
-127.94
-109.23
-93.31
-79.95
-68.26
-57.31
-46.69
-36.58
-27.53
-20.05
-14.29
-9.9
-6.18
-2.43
1.82
6.57
11.43
15.77
18.98
20.76
21.08
20.15
18.27
15.67
12.48
8.7
4.34
-0.56
-5.98
-11.81
-17.99
-24.26
-30.11
-34.74
-37.17
-36.55
-32.5
-25.37
-16.21
-6.56
2.09
8.73
13.12
15.75
17.52
19.35
21.78
24.95
28.63
32.45
36.06
39.1
41.17
41.9
40.89
37.91
32.97
26.28
18.19
9.08
-0.66
-10.53
-19.82
-27.65
-33.14
-35.6
-34.78
-30.92
-24.67
-16.91
-8.56
-0.39
7.04
13.42
18.64
22.79
26.01
28.38
29.96
30.78
30.95
30.63
30.09
29.55
29.2
29.2
29.6
30.43
31.61
32.94
34.13
34.9
35.17
35.06
34.84
34.75
34.89
35.12
35.19
34.94
34.33
33.5
32.59
31.66
30.66
29.49
28.09
26.51
24.89
23.43
22.25
21.38
20.7
19.99
19.03
17.64
15.83
13.73
11.58
9.58
7.81
6.28
4.88
3.48
2.0
0.39
-1.39
-3.35
-5.42
-7.54
-9.6
-11.55
-13.43
-15.43
-17.86
-21.09
-25.38
-30.72
-36.76
-42.73
-47.59
-50.26
-49.88
-46.03
-38.85
-28.97
-17.31
-4.82
7.72
19.78
31.01
41.2
50.04
57.22
62.49
65.73
67.1
66.92
65.6
63.45
60.71
57.56
54.26
51.18
48.7
47.08
46.35
46.27
46.45
46.45
45.92
44.65
42.52
39.5
35.61
31.0
25.93
20.79
15.97
11.77
8.3
5.45
3.0
0.76
-1.31
-3.11
-4.49
-5.35
-5.78
-6.02
-6.37
-7.01
-7.99
-9.15
-10.25
-11.03
-11.35
-11.15
-10.52
-9.71
-9.05
-8.88
-9.44
-10.82
-12.9
-15.46
-18.26
-21.09
-23.91
-26.79
-29.88
-33.34
-37.24
-41.43
-45.46
-48.62
-50.02
-48.85
-44.7
-37.72
-28.62
-18.52
-8.6
0.2
7.3
12.57
16.16
18.4
19.66
20.26
20.47
20.45
20.32
20.1
19.76
19.25
18.55
17.64
16.64
15.73
15.14
15.08
15.64
16.72
18.01
19.15
19.86
20.02
19.72
19.17
18.56
18.02
17.53
17.02
16.38
15.55
14.54
13.38
12.14
10.9
9.7
8.57
7.48
6.4
5.27
4.11
2.97
1.91
1.0
0.19
-0.57
-1.4
-2.34
-3.43
-4.63
-5.94
-7.38
-9.0
-10.85
-12.9
-15.12
-17.38
-19.62
-21.76
-23.78
-25.67
-27.43
-29.16
-31.02
-33.27
-36.16
-39.74
-43.73
-47.4
-49.83
-50.04
-47.46
-42.06
-34.41
-25.44
-16.2
-7.52
0.1
6.48
11.61
15.54
18.31
19.97
20.67
20.64
20.14
19.43
18.65
17.83
16.93
15.94
14.96
14.2
13.89
14.16
15.02
16.31
17.77
19.14
20.2
20.87
21.12
20.98
20.53
19.82
18.9
17.78
16.47
14.98
13.37
11.69
10.06
8.53
7.14
5.86
4.67
3.55
2.52
1.58
0.68
-0.25
-1.28
-2.41
-3.6
-4.74
-5.81
-6.82
-7.93
-9.29
-10.98
-12.94
-15.02
-17.0
-18.78
-20.39
-22.01
-23.96
-26.54
-29.93
-34.05
-38.47
-42.41
-44.97
-45.3
-42.99
-38.14
-31.42
-23.81
-16.33
-9.74
-4.4
-0.34
2.66
4.87
6.49
7.65
8.47
9.07
9.61
10.27
11.19
12.4
13.88
15.51
17.24
18.99
20.79
22.65
24.57
26.48
28.25
29.71
30.71
31.15
31.04
30.45
29.51
28.35
27.08
25.75
24.33
22.77
20.99
18.88
16.35
13.33
9.82
5.94
1.86
-2.2
-6.01
-9.42
-12.39
-14.92
-17.05
-18.8
-20.2
-21.28
-22.11
-22.77
-23.3
-23.7
-23.96
-24.09
-24.26
-24.74
-25.85
-27.75
-30.36
-33.37
-36.38
-39.09
-41.53
-44.01
-47.0
-50.87
-55.61
-60.73
-65.37
-68.53
-69.45
-67.88
-64.19
-59.24
-54.1
-49.76
-46.9
-45.82
-46.54
-48.94
-52.94
-58.44
-65.35
-73.48
-82.42
-91.67
-100.74
-109.35
-117.45
-125.28
-133.05
-140.91
-148.82
-156.77
-164.95
-173.71
-183.1
-192.17
-198.71
-199.41
-190.85
-170.82
-139.0
-96.86
-46.77
8.86
67.76
127.35
184.16
233.93
272.56
297.54
308.79
308.4
299.4
284.39
264.76
240.89
212.83
181.01
146.61
111.44
77.54
46.86
20.84
0.16
-15.45
-27.0
-35.76
-42.51
-47.44
-50.18
-50.35
-48.11
-44.27
-39.86
-35.73
-32.12
-28.89
-25.96
-23.57
-22.21
-22.17
-23.0
-23.23
-20.66
-13.04
1.01
21.46
46.62
73.57
98.82
119.2
132.52
137.95
136.08
128.55
117.61
105.37
93.3
82.0
71.39
61.08
50.86
40.95
32.07
25.15
21.1
20.42
22.88
27.27
31.44
32.89
29.58
20.92
8.22
-5.66
-17.44
-24.62
-26.43
-23.7
-18.17
-11.44
-4.33
3.12
11.23
20.16
29.68
39.24
48.01
54.8
57.87
54.94
43.76
22.98
-6.92
-43.29
-81.65
-116.78
-144.11
-160.88
-166.73
-163.42
-153.86
-140.99
-126.8
-112.21
-97.55
-83.35
-70.79
-61.45
-56.39
-55.41
-57.01
-59.1
-60.29
-60.39
-60.06
-59.67
-58.32
-53.94
-44.33
-28.71
-8.53
12.89
31.6
44.77
51.53
52.88
50.72
47.01
43.37
41.12
41.43
45.22
52.78
63.32
75.07
85.88
94.05
98.93
101.12
101.99
103.05
105.29
108.83
113.01
116.63
118.41
117.24
112.58
104.51
93.73
81.31
68.23
55.21
42.68
30.77
19.46
8.65
-1.79
-11.88
-21.47
-30.16
-37.46
-42.99
-46.75
-49.06
-50.47
-51.4
-52.03
-52.34
-52.22
-51.68
-50.85
-49.96
-49.15
-48.42
-47.7
-46.88
-45.95
-44.97
-43.99
-43.08
-42.31
-41.77
-41.6
-41.91
-42.66
-43.65
-44.46
-44.61
-43.62
-41.22
-37.31
-32.02
-25.6
-18.38
-10.79
-3.25
3.8
10.02
15.17
19.2
22.26
24.63
26.64
28.56
30.42
32.06
33.2
33.61
33.26
32.35
31.18
30.03
29.04
28.18
27.39
26.59
25.8
25.08
24.4
23.7
22.87
21.82
20.53
19.02
17.32
15.42
13.3
10.99
8.55
6.15
3.9
1.89
0.09
-1.56
-3.14
-4.74
-6.41
-8.2
-10.1
-12.04
-13.91
-15.58
-17.02
-18.32
-19.74
-21.55
-23.97
-27.0
-30.49
-34.03
-37.13
-39.27
-40.01
-39.14
-36.66
-32.77
-27.85
-22.31
-16.6
-11.09
-6.18
-2.16
0.8
2.71
3.78
4.42
5.03
5.91
7.16
8.74
10.5
12.29
13.99
15.54
16.97
18.33
19.77
21.46
23.49
25.88
28.44
30.92
33.05
34.7
35.88
36.72
37.36
37.85
38.16
38.18
37.82
37.07
36.01
34.71
33.22
31.53
29.59
27.41
25.06
22.62
20.17
17.71
15.19
12.6
10.0
7.5
5.21
3.2
1.37
-0.38
-2.2
-4.13
-6.16
-8.24
-10.36
-12.54
-14.82
-17.22
-19.79
-22.52
-25.35
-28.06
-30.26
-31.47
-31.19
-29.13
-25.33
-20.17
-14.27
-8.32
-2.93
1.52
4.88
7.17
8.59
9.34
9.67
9.73
9.68
9.57
9.48
9.45
9.5
9.65
9.89
10.17
10.46
10.76
11.07
11.45
11.97
12.62
13.33
13.97
14.39
14.48
14.2
13.57
12.58
11.19
9.39
7.21
4.85
2.61
0.85
-0.18
-0.48
-0.22
0.25
0.62
0.71
0.48
-0.06
-0.86
-1.93
-3.29
-4.92
-6.72
-8.56
-10.32
-11.96
-13.53
-15.1
-16.7
-18.3
-19.81
-21.19
-22.47
-23.72
-25.03
-26.46
-27.92
-29.22
-30.03
-29.98
-28.72
-26.06
-22.02
-16.89
-11.17
-5.43
-0.19
4.22
7.63
10.04
11.56
12.35
12.61
12.51
12.26
11.99
11.81
11.77
11.89
12.21
12.75
13.52
14.53
15.73
17.02
18.3
19.46
20.39
20.96
21.12
20.8
19.99
18.71
16.99
14.9
12.51
9.93
7.33
4.88
2.71
0.89
-0.62
-1.9
-3.09
-4.34
-5.76
-7.45
-9.48
-11.85
-14.48
-17.24
-19.96
-22.48
-24.69
-26.52
-27.97
-29.08
-29.93
-30.63
-31.32
-32.09
-33.0
-34.0
-35.05
-36.09
-37.1
-38.09
-39.0
-39.61
-39.55
-38.34
-35.54
-30.97
-24.77
-17.42
-9.61
-2.07
4.6
10.04
14.13
16.91
18.59
19.4
19.62
19.5
19.25
19.04
18.96
19.0
19.11
19.25
19.4
19.57
19.82
20.2
20.73
21.36
21.97
22.4
22.45
22.0
21.05
19.69
18.13
16.57
15.11
13.75
12.36
10.87
9.27
7.71
6.37
5.37
4.68
4.1
3.39
2.41
1.16
-0.2
-1.46
-2.51
-3.38
-4.17
-5.02
-5.97
-7.0
-8.06
-9.1
-10.14
-11.23
-12.39
-13.63
-14.96
-16.37
-17.85
-19.39
-20.93
-22.38
-23.66
-24.69
-25.33
-25.45
-24.83
-23.31
-20.8
-17.4
-13.42
-9.24
-5.27
-1.8
1.0
3.09
4.51
5.32
5.67
5.72
5.65
5.55
5.42
5.17
4.71
4.05
3.29
2.62
2.19
2.12
2.41
3.06
4.04
5.3
6.69
7.99
8.86
9.05
8.56
7.6
6.55
5.75
5.37
5.3
5.31
5.16
4.74
4.08
3.3
2.48
1.66
0.86
0.14
-0.38
-0.61
-0.52
-0.24
-0.04
-0.23
-1.02
-2.45
-4.35
-6.43
-8.37
-9.98
-11.23
-12.28
-13.36
-14.64
-16.15
-17.73
-19.02
-19.59
-19.12
-17.43
-14.65
-11.06
-7.11
-3.21
0.29
3.22
5.56
7.42
8.92
10.16
11.14
11.82
12.15
12.12
11.82
11.33
10.8
10.28
9.8
9.4
9.12
9.02
9.14
9.47
9.93
10.4
10.82
11.15
11.4
11.58
11.61
11.38
10.78
9.77
8.52
7.26
6.23
5.54
5.14
4.82
4.36
3.68
2.83
1.98
1.24
0.65
0.15
-0.37
-0.97
-1.62
-2.26
-2.8
-3.26
-3.7
-4.23
-4.95
-5.9
-7.08
-8.42
-9.81
-11.14
-12.28
-13.19
-13.9
-14.51
-15.2
-16.14
-17.36
-18.81
-20.23
-21.29
-21.63
-20.92
-19.0
-15.87
-11.72
-6.86
-1.72
3.28
7.73
11.33
13.96
15.64
16.55
16.85
16.58
15.57
13.56
10.41
6.29
1.81
-2.2
-5.0
-6.28
-6.2
-5.34
-4.32
-3.49
-2.95
-2.52
-2.03
-1.41
-0.76
-0.21
0.15
0.28
0.23
0.0
-0.4
-1.02
-1.87
-2.95
-4.24
-5.66
-7.08
-8.33
-9.28
-9.88
-10.19
-10.36
-10.56
-10.88
-11.27
-11.6
-11.64
-11.17
-10.06
-8.26
-5.84
-2.93
0.26
3.53
6.63
9.35
11.48
12.88
13.37
12.81
11.15
8.47
4.99
1.07
-2.85
-6.3
-8.85
-10.17
-10.06
-8.48
-5.6
-1.77
2.54
6.83
10.62
13.54
15.35
15.99
15.57
14.41
12.87
11.33
9.98
8.84
7.77
6.63
5.37
4.07
2.92
2.06
1.55
1.37
1.43
1.69
2.1
2.66
3.31
3.96
4.49
4.8
4.84
4.61
4.18
3.62
3.0
2.37
1.76
1.16
0.6
0.11
-0.3
-0.6
-0.87
-1.17
-1.61
-2.23
-3.01
-3.92
-4.82
-5.62
-6.25
-6.7
-7.04
-7.43
-8.02
-8.89
-10.06
-11.45
-12.9
-14.31
-15.63
-16.89
-18.17
-19.57
-21.15
-22.95
-24.89
-26.79
-28.33
-29.07
-28.56
-26.53
-22.98
-18.28
-13.02
-7.9
-3.47
-0.01
2.46
4.13
5.26
6.11
6.84
7.55
8.26
8.92
9.43
9.67
9.56
9.1
8.43
7.79
7.4
7.41
7.82
8.49
9.26
10.03
10.72
11.34
11.82
12.05
11.87
11.18
10.01
8.51
6.95
5.52
4.31
3.25
2.21
1.15
0.1
-0.74
-1.21
-1.24
-0.93
-0.57
-0.46
-0.76
-1.49
-2.44
-3.4
-4.26
-5.07
-5.97
-7.12
-8.52
-10.03
-11.43
-12.62
-13.63
-14.65
-15.92
-17.56
-19.51
-21.59
-23.57
-25.39
-27.1
-28.86
-30.77
-32.77
-34.51
-35.5
-35.28
-33.58
-30.44
-26.19
-21.3
-16.2
-11.24
-6.57
-2.26
1.67
5.14
8.08
10.4
12.04
13.02
13.4
13.32
12.95
12.42
11.9
11.49
11.23
11.16
11.26
11.51
11.85
12.25
12.66
13.07
13.45
13.81
14.14
14.39
14.54
14.54
14.36
14.03
13.59
13.1
12.54
11.87
11.02
9.95
8.7
7.41
6.23
5.26
4.53
3.99
3.54
3.13
2.71
2.29
1.81
1.22
0.38
-0.77
-2.26
-4.01
-5.91
-7.81
-9.59
-11.2
-12.63
-13.96
-15.32
-16.89
-18.81
-21.09
-23.57
-25.87
-27.52
-28.0
-26.99
-24.41
-20.49
-15.69
-10.59
-5.76
-1.59
1.8
4.48
6.71
8.72
10.62
12.35
13.75
14.64
15.0
14.87
14.41
13.75
12.98
12.16
11.39
10.83
10.64
10.91
11.64
12.63
13.65
14.45
14.9
14.97
14.71
14.24
13.67
13.12
12.68
12.42
12.33
12.35
12.35
12.17
11.67
10.82
9.74
8.61
7.63
6.91
6.36
5.84
5.18
4.3
3.25
2.16
1.1
0.08
-1.01
-2.3
-3.83
-5.58
-7.42
-9.22
-10.93
-12.51
-14.0
-15.46
-16.98
-18.59
-20.35
-22.26
-24.26
-26.22
-27.97
-29.23
-29.7
-29.05
-27.08
-23.77
-19.33
-14.2
-8.9
-3.92
0.36
3.8
6.38
8.28
9.71
10.87
11.9
12.87
13.71
14.3
14.54
14.4
13.92
13.26
12.58
12.02
11.7
11.66
11.93
12.52
13.35
14.32
15.24
15.95
16.29
16.25
15.87
15.29
14.61
13.92
13.21
12.47
11.68
10.79
9.82
8.82
7.86
7.04
6.4
5.91
5.44
4.84
4.0
2.9
1.66
0.49
-0.45
-1.09
-1.5
-1.82
-2.24
-2.89
-3.84
-5.07
-6.51
-8.06
-9.58
-10.98
-12.19
-13.26
-14.32
-15.54
-17.11
-19.13
-21.54
-24.13
-26.46
-28.0
-28.2
-26.69
-23.41
-18.7
-13.21
-7.7
-2.81
1.08
3.95
6.05
7.68
9.07
10.29
11.26
11.92
12.22
12.24
12.13
12.02
11.98
12.03
12.12
12.22
12.33
12.44
12.59
12.82
13.12
13.46
13.77
13.98
14.02
13.86
13.49
12.92
12.21
11.36
10.45
9.49
8.53
7.62
6.77
5.99
5.22
4.44
3.59
2.66
1.68
0.65
-0.38
-1.39
-2.37
-3.29
-4.2
-5.15
-6.21
-7.41
-8.72
-10.03
-11.24
-12.37
-13.53
-14.92
-16.75
-19.05
-21.64
-24.14
-26.05
-26.93
-26.46
-24.58
-21.45
-17.41
-12.93
-8.47
-4.39
-0.92
1.89
4.11
5.87
7.28
8.44
9.37
10.09
10.56
10.75
10.65
10.29
9.8
9.33
9.05
9.02
9.2
9.52
9.89
10.3
10.81
11.46
12.21
12.93
13.44
13.61
13.4
12.89
12.24
11.56
10.9
10.28
9.63
8.9
8.08
7.2
6.34
5.63
5.18
5.01
5.07
5.23
5.3
5.14
4.72
4.06
3.29
2.51
1.79
1.16
0.58
-0.04
-0.79
-1.74
-2.92
-4.29
-5.77
-7.25
-8.67
-10.01
-11.28
-12.58
-14.01
-15.7
-17.72
-20.04
-22.46
-24.63
-26.04
-26.25
-24.97
-22.2
-18.27
-13.66
-8.94
-4.59
-0.92
1.92
3.92
5.22
5.99
6.43
6.7
6.89
7.03
7.15
7.23
7.32
7.47
7.73
8.08
8.51
8.96
9.43
9.9
10.4
10.87
11.23
11.42
11.37
11.15
10.87
10.64
10.51
10.43
10.29
9.95
9.34
8.46
7.38
6.21
5.06
4.03
3.2
2.58
2.15
1.84
1.56
1.26
0.91
0.51
0.05
-0.5
-1.21
-2.09
-3.07
-4.09
-5.08
-6.04
-7.03
-8.1
-9.24
-10.39
-11.43
-12.33
-13.19
-14.22
-15.64
-17.52
-19.71
-21.87
-23.55
-24.32
-23.93
-22.28
-19.47
-15.77
-11.54
-7.2
-3.13
0.36
3.15
5.26
6.84
8.06
9.06
9.91
10.59
11.01
11.1
10.82
10.23
9.48
8.75
8.23
8.03
8.17
8.55
9.0
9.35
9.51
9.52
9.49
9.53
9.68
9.87
9.96
9.83
9.42
8.81
8.13
7.54
7.07
6.69
6.32
5.89
5.37
4.81
4.29
3.83
3.43
3.1
2.75
2.32
1.76
1.04
0.22
-0.61
-1.33
-1.85
-2.19
-2.41
-2.67
-3.1
-3.78
-4.74
-5.96
-7.37
-8.89
-10.47
-12.04
-13.57
-15.01
-16.39
-17.76
-19.23
-20.86
-22.66
-24.47
-25.92
-26.59
-26.05
-24.12
-20.9
-16.8
-12.41
-8.27
-4.73
-1.89
0.35
2.13
3.56
4.69
5.53
6.14
6.63
7.12
7.67
8.23
8.69
8.95
9.01
8.99
9.08
9.45
10.15
11.05
11.96
12.64
12.97
12.91
12.57
12.11
11.63
11.17
10.68
10.08
9.34
8.48
7.63
6.88
6.27
5.77
5.27
4.69
4.02
3.31
2.65
2.07
1.58
1.14
0.72
0.32
-0.02
-0.28
-0.49
-0.7
-1.01
-1.48
-2.17
-3.05
-4.11
-5.27
-6.49
-7.73
-8.97
-10.21
-11.44
-12.65
-13.82
-14.94
-16.04
-17.18
-18.4
-19.68
-20.93
-21.9
-22.27
-21.73
-20.13
-17.45
-13.92
-9.9
-5.77
-1.89
1.54
4.44
6.82
8.75
10.32
11.6
12.65
13.53
14.28
14.89
15.3
15.47
15.41
15.23
15.08
15.22
15.77
16.76
18.06
19.44
20.64
21.43
21.63
21.18
20.15
18.7
17.0
15.22
13.48
11.81
10.21
8.73
7.4
6.32
5.52
4.96
4.53
4.08
3.48
2.64
1.6
0.38
-0.91
-2.23
-3.53
-4.78
-5.93
-6.92
-7.72
-8.33
-8.83
-9.29
-9.82
-10.47
-11.24
-12.1
-13.05
-14.08
-15.23
-16.5
-17.85
-19.2
-20.48
-21.71
-22.99
-24.46
-26.15
-27.97
-29.58
-30.49
-30.2
-28.4
-25.09
-20.61
-15.56
-10.58
-6.12
-2.41
0.59
3.01
4.94
6.38
7.29
7.72
7.81
7.85
8.06
8.52
9.11
9.6
9.8
9.71
9.51
9.43
9.71
10.39
11.38
12.48
13.51
14.29
14.7
14.7
14.29
13.54
12.58
11.54
10.57
9.75
9.12
8.62
8.15
7.59
6.89
6.06
5.21
4.46
3.89
3.54
3.37
3.32
3.34
3.39
3.41
3.31
2.98
2.37
1.53
0.61
-0.22
-0.85
-1.35
-1.88
-2.63
-3.68
-5.0
-6.43
-7.85
-9.16
-10.37
-11.54
-12.72
-13.97
-15.27
-16.61
-17.95
-19.31
-20.76
-22.38
-24.19
-26.01
-27.44
-27.97
-27.15
-24.81
-21.16
-16.67
-11.93
-7.42
-3.41
-0.02
2.73
4.82
6.26
7.11
7.57
7.83
8.07
8.35
8.59
8.69
8.58
8.31
7.96
7.68
7.54
7.6
7.87
8.35
9.02
9.81
10.58
11.13
11.3
11.01
10.33
9.46
8.6
7.97
7.61
7.51
7.55
7.6
7.53
7.25
6.73
5.95
5.0
3.96
2.95
2.03
1.19
0.41
-0.41
-1.26
-2.1
-2.85
-3.46
-3.99
-4.57
-5.34
-6.36
-7.57
-8.81
-9.88
-10.75
-11.51
-12.42
-13.72
-15.56
-17.9
-20.54
-23.18
-25.44
-26.92
-27.32
-26.43
-24.22
-20.87
-16.73
-12.25
