-15.81
-16.92
-18.44
-20.28
-22.13
-23.63
-24.44
-24.31
-23.15
-20.99
-17.97
-14.34
-10.37
-6.43
-2.81
0.24
2.67
4.57
6.13
7.52
8.79
9.88
10.65
11.01
10.95
10.6
10.13
9.72
9.5
9.48
9.64
9.91
10.25
10.62
11.04
11.47
11.88
12.18
12.27
12.15
11.83
11.38
10.87
10.28
9.61
8.81
7.93
7.03
6.2
5.5
4.92
4.38
3.77
3.03
2.16
1.18
0.18
-0.76
-1.59
-2.28
-2.87
-3.42
-4.04
-4.81
-5.77
-6.87
-8.05
-9.25
-10.48
-11.75
-13.18
-14.81
-16.66
-18.71
-20.84
-22.87
-24.54
-25.54
-25.54
-24.3
-21.78
-18.18
-13.93
-9.58
-5.63
-2.39
0.08
1.92
3.32
4.47
5.45
6.26
6.89
7.37
7.74
8.06
8.37
8.63
8.82
8.9
8.9
8.92
9.09
9.48
10.1
10.85
11.53
11.98
12.07
11.81
11.31
10.72
10.2
9.79
9.42
8.92
8.15
7.07
5.8
4.61
3.73
3.29
3.18
3.16
2.94
2.37
1.49
0.47
-0.45
-1.18
-1.7
-2.12
-2.55
-3.1
-3.79
-4.63
-5.63
-6.79
-8.09
-9.43
-10.7
-11.79
-12.71
-13.61
-14.72
-16.23
-18.2
-20.42
-22.47
-23.85
-24.09
-22.99
-20.6
-17.24
-13.34
-9.37
-5.68
-2.49
0.09
2.1
3.66
4.94
6.12
7.32
8.54
9.71
10.69
11.37
11.74
11.9
12.02
12.26
12.7
13.28
13.9
14.45
14.84
15.08
15.21
15.28
15.28
15.19
15.0
14.77
14.6
14.56
14.69
14.92
15.1
15.08
14.76
14.21
13.6
13.15
13.01
13.17
13.43
13.55
13.34
12.75
11.91
11.0
10.12
9.32
8.51
7.62
6.62
5.51
4.3
2.97
1.47
-0.2
-1.99
-3.77
-5.5
-7.18
-8.94
-10.91
-13.16
-15.64
-18.18
-20.57
-22.58
-24.01
-24.69
-24.47
-23.25
-21.1
-18.23
-14.97
-11.66
-8.64
-6.08
-4.08
-2.64
-1.7
-1.21
-1.03
-0.98
-0.89
-0.64
-0.22
0.29
0.76
1.16
1.51
1.96
2.59
3.44
4.41
5.33
6.08
6.62
7.0
7.27
7.46
7.52
7.43
7.2
6.96
6.87
7.01
7.39
7.86
8.23
8.35
8.16
7.73
7.11
6.36
5.5
4.56
3.55
2.47
1.32
0.05
-1.4
-3.05
-4.78
-6.48
-7.99
-9.25
-10.3
-11.24
-12.26
-13.49
-15.07
-17.05
-19.41
-21.98
-24.48
-26.5
-27.63
-27.58
-26.27
-23.93
-20.9
-17.62
-14.45
-11.6
-9.16
-7.08
-5.31
-3.72
-2.24
-0.79
0.71
2.26
3.8
5.24
6.44
7.35
7.98
8.4
8.72
9.03
9.34
9.68
10.06
10.5
11.04
11.68
12.4
13.14
13.77
14.23
14.46
14.44
14.2
13.78
13.22
12.6
11.99
11.47
11.06
10.76
10.5
10.22
9.87
9.41
8.81
8.09
7.22
6.23
5.15
4.03
2.96
2.0
1.18
0.43
-0.35
-1.29
-2.46
-3.86
-5.41
-6.99
-8.45
-9.77
-10.95
-12.09
-13.29
-14.69
-16.41
-18.51
-20.91
-23.36
-25.43
-26.59
-26.43
-24.81
-21.93
-18.28
-14.42
-10.79
-7.63
-4.96
-2.68
-0.75
0.87
2.15
3.12
3.84
4.44
5.0
5.64
6.37
7.16
7.93
8.55
8.91
9.03
9.01
9.06
9.34
9.92
10.71
11.49
12.08
12.36
12.34
12.08
11.64
11.07
10.34
9.46
8.47
7.48
6.59
5.86
5.28
4.77
4.2
3.46
2.53
1.45
0.35
-0.68
-1.58
-2.4
-3.23
-4.22
-5.45
-6.91
-8.54
-10.26
-12.0
-13.75
-15.52
-17.33
-19.2
-21.18
-23.3
-25.66
-28.33
-31.31
-34.52
-37.77
-40.76
-43.15
-44.56
-44.64
-43.17
-40.1
-35.63
-30.16
-24.18
-18.14
-12.36
-6.94
-1.93
2.67
6.8
10.36
13.26
15.51
17.19
18.43
19.41
20.23
20.97
21.69
22.41
23.19
24.03
24.92
25.83
26.68
27.36
27.77
27.86
27.64
27.21
26.66
26.08
25.48
24.88
24.25
23.63
23.03
22.47
21.89
21.19
20.31
19.22
17.96
16.62
15.25
13.85
12.36
10.7
8.86
6.94
5.07
3.46
2.23
1.4
0.89
0.51
0.05
-0.67
-1.71
-3.07
-4.67
-6.45
-8.35
-10.31
-12.27
-14.16
-16.0
-17.91
-20.05
-22.58
-25.51
-28.55
-31.22
-32.95
-33.29
-32.08
-29.51
-25.97
-21.95
-17.82
-13.82
-10.02
-6.46
-3.13
-0.01
2.89
5.57
7.98
10.06
11.74
12.96
13.73
14.13
14.28
14.34
14.46
14.76
15.3
16.09
17.06
18.08
19.03
19.83
20.41
20.75
20.79
20.47
19.72
18.54
17.05
15.44
13.9
12.57
11.5
10.66
10.02
9.52
9.13
8.79
8.39
7.86
7.16
6.32
5.4
4.47
3.58
2.74
1.96
1.25
0.61
0.03
-0.54
-1.17
-1.99
-3.08
-4.52
-6.24
-8.14
-10.05
-11.84
-13.47
-15.02
-16.71
-18.72
-21.2
-24.07
-27.08
-29.83
-31.86
-32.83
-32.51
-30.88
-28.1
-24.45
-20.3
-16.01
-11.87
-8.08
-4.72
-1.82
0.65
2.7
4.35
5.69
6.75
7.62
8.34
8.92
9.34
9.64
9.85
10.07
10.4
10.87
11.49
12.23
13.03
13.85
14.6
15.2
15.57
15.65
15.5
15.23
14.97
14.81
14.76
14.68
14.43
13.92
13.19
12.38
11.61
10.93
10.26
9.4
8.26
6.84
5.34
3.99
2.94
2.15
1.39
0.4
-0.97
-2.67
-4.5
-6.21
-7.68
-8.93
-10.12
-11.44
-13.05
-15.0
-17.29
-19.87
-22.59
-25.22
-27.43
-28.78
-28.9
-27.59
-24.97
-21.43
-17.54
-13.79
-10.48
-7.6
-4.99
-2.44
0.13
2.66
5.01
7.01
8.59
9.76
10.59
11.17
11.54
11.73
11.76
11.7
11.64
11.69
11.98
12.62
13.62
14.89
16.23
17.41
18.18
18.46
18.3
17.86
17.37
16.96
16.65
16.35
15.93
15.28
14.39
13.33
12.18
11.04
9.97
9.02
8.23
7.63
7.18
6.77
6.3
5.63
4.75
3.7
2.64
1.66
0.8
0.0
-0.88
-1.99
-3.41
-5.12
-7.05
-9.05
-10.98
-12.78
-14.44
-16.04
-17.71
-19.54
-21.62
-23.96
-26.53
-29.22
-31.78
-33.87
-35.06
-34.98
-33.42
-30.38
-26.12
-21.07
-15.76
-10.65
-6.11
-2.31
0.74
3.16
5.15
6.85
8.33
9.57
10.49
11.11
11.48
11.74
12.01
12.35
12.75
13.2
13.71
14.29
14.96
15.68
16.36
16.92
17.33
17.59
17.75
17.78
17.64
17.28
16.68
15.9
15.03
14.16
13.31
12.43
11.48
10.47
9.48
8.58
7.82
7.12
6.37
5.43
4.29
3.02
1.78
0.7
-0.16
-0.85
-1.52
-2.31
-3.34
-4.61
-6.05
-7.56
-9.06
-10.51
-11.91
-13.32
-14.76
-16.33
-18.12
-20.22
-22.64
-25.26
-27.78
-29.73
-30.66
-30.23
-28.35
-25.2
-21.19
-16.82
-12.53
-8.6
-5.16
-2.22
0.29
2.4
4.08
5.31
6.15
6.73
7.22
7.76
8.38
9.0
9.47
9.73
9.8
9.79
9.85
10.02
10.29
10.57
10.78
10.93
11.06
11.2
11.35
11.48
11.53
11.5
11.39
11.24
11.02
10.68
10.13
9.34
8.35
7.25
6.15
5.12
4.2
3.38
2.66
2.01
1.45
0.94
0.41
-0.24
-1.16
-2.45
-4.13
-6.13
-8.29
-10.41
-12.35
-14.1
-15.75
-17.49
-19.54
-21.97
-24.69
-27.34
-29.44
-30.51
-30.17
-28.33
-25.14
-21.0
-16.36
-11.63
-7.14
-3.1
0.37
3.2
5.41
7.07
8.32
9.31
10.18
11.0
11.81
12.54
13.14
13.54
13.74
13.77
13.73
13.73
13.87
14.19
14.69
15.28
15.88
16.39
16.76
17.02
17.23
17.45
17.71
18.0
18.25
18.37
18.27
17.9
17.26
16.38
15.37
14.35
13.41
12.62
11.97
11.36
10.68
9.78
8.63
7.26
5.77
4.29
2.86
1.44
-0.1
-1.88
-3.98
-6.36
-8.88
-11.31
-13.45
-15.17
-16.52
-17.66
-18.85
-20.35
-22.31
-24.72
-27.41
-30.09
-32.41
-34.04
-34.68
-34.12
-32.29
-29.27
-25.28
-20.66
-15.84
-11.21
-7.1
-3.68
-0.99
1.07
2.69
4.05
5.27
6.39
7.36
8.14
8.7
9.09
9.4
9.68
9.99
10.35
10.8
11.39
12.16
13.12
14.18
15.14
15.78
15.97
15.7
15.09
14.36
13.67
13.07
12.49
11.78
10.85
9.69
8.46
7.32
6.42
5.74
5.17
4.53
3.75
2.85
1.96
1.19
0.56
0.01
-0.6
-1.36
-2.29
-3.33
-4.41
-5.48
-6.56
-7.74
-9.06
-10.54
-12.11
-13.73
-15.39
-17.14
-19.08
-21.17
-23.23
-24.87
-25.69
-25.34
-23.76
-21.11
-17.77
-14.12
-10.46
-6.96
-3.68
-0.68
1.98
4.25
6.09
7.54
8.65
9.44
9.94
10.12
10.02
9.73
9.4
9.14
9.06
9.21
9.61
10.21
10.97
11.8
12.61
13.3
13.79
14.04
14.04
13.8
13.38
12.81
12.15
11.45
10.75
10.09
9.47
8.88
8.31
7.75
7.2
6.63
6.01
5.33
4.56
3.74
2.9
2.08
1.32
0.58
-0.17
-1.02
-2.04
-3.25
-4.59
-5.99
-7.37
-8.69
-9.99
-11.35
-12.89
-14.72
-16.87
-19.32
-21.94
-24.5
-26.68
-28.12
-28.51
-27.69
-25.68
-22.68
-18.96
-14.84
-10.64
-6.61
-2.93
0.26
2.93
5.11
6.91
8.39
9.6
10.49
11.05
11.28
11.29
11.21
11.19
11.31
11.55
11.88
12.22
12.58
12.94
13.37
13.86
14.4
14.92
15.32
15.5
15.39
14.99
14.34
13.57
12.8
12.1
11.52
10.99
10.43
9.73
8.87
7.87
6.82
5.8
4.86
3.99
3.15
2.31
1.44
0.56
-0.32
-1.23
-2.15
-3.11
-4.06
-4.99
-5.9
-6.84
-7.88
-9.06
-10.33
-11.6
-12.77
-13.83
-14.88
-16.14
-17.78
-19.87
-22.28
-24.68
-26.65
-27.75
-27.66
-26.22
-23.51
-19.78
-15.44
-10.95
-6.71
-3.02
0.0
2.39
4.26
5.74
6.96
8.01
8.9
9.66
10.24
10.63
10.73
10.51
9.96
9.18
8.36
7.77
7.63
8.01
8.84
9.88
10.84
11.49
11.7
11.5
11.0
10.33
9.64
8.97
8.32
7.69
7.04
6.41
5.82
5.32
4.88
4.43
3.86
3.06
2.05
0.9
-0.26
-1.32
-2.31
-3.31
-4.49
-5.86
-7.32
-8.68
-9.76
-10.53
-11.13
-11.83
-12.89
-14.47
-16.58
-19.05
-21.61
-23.91
-25.58
-26.27
-25.73
-23.88
-20.86
-16.99
-12.72
-8.5
-4.68
-1.42
1.25
3.41
5.2
6.7
7.97
9.02
9.84
10.45
10.85
11.04
11.02
10.81
10.46
10.1
9.89
9.97
10.37
11.01
11.69
12.19
12.36
12.21
11.86
11.47
11.17
10.95
10.73
10.43
9.97
9.35
8.65
7.95
7.31
6.78
6.38
6.12
5.99
5.92
5.82
5.55
5.04
4.29
3.44
2.66
2.09
1.77
1.58
1.33
0.87
0.14
-0.82
-1.84
-2.76
-3.47
-3.95
-4.28
-4.6
-5.05
-5.73
-6.71
-7.87
-8.99
-9.69
-9.58
-8.3
-5.61
-1.54
3.72
9.76
16.08
22.12
27.43
31.74
35.04
37.59
39.76
41.94
44.36
47.03
49.79
52.44
54.75
56.57
57.77
58.32
58.28
57.82
57.18
56.54
55.9
55.07
53.73
51.62
48.71
45.18
41.36
37.52
33.66
29.59
24.9
19.24
12.33
4.05
-5.59
-16.41
-27.95
-39.45
-49.86
-58.13
-63.42
-65.49
-64.68
-61.86
-58.03
-54.0
-50.19
-46.63
-43.21
-39.86
-36.64
-33.66
-30.98
-28.44
-25.78
-22.69
-19.08
-15.08
-11.12
-7.68
-5.21
-3.86
-3.56
-3.92
-4.41
-4.38
-3.33
-1.08
2.09
5.43
8.0
9.04
8.42
6.65
4.7
3.49
3.41
4.27
5.44
6.33
6.64
6.45
5.99
5.41
4.73
3.9
3.06
2.57
2.92
4.49
7.36
11.29
15.91
20.82
25.76
30.49
34.74
38.08
40.0
40.03
37.96
33.9
28.35
21.99
15.53
9.52
4.24
-0.25
-3.98
-7.05
-9.52
-11.46
-12.97
-14.18
-15.14
-15.82
-16.12
-16.01
-15.61
-15.31
-15.58
-16.76
-18.88
-21.62
-24.47
-27.07
-29.33
-31.45
-33.7
-36.2
-38.81
-41.17
-42.88
-43.65
-43.36
-42.03
-39.81
-36.93
-33.68
-30.43
-27.56
-25.38
-23.97
-23.17
-22.68
-22.16
-21.5
-20.8
-20.31
-20.25
-20.59
-21.1
-21.48
-21.5
-21.12
-20.47
-19.65
-18.61
-17.18
-15.19
-12.69
-9.96
-7.46
-5.57
-4.4
-3.74
-3.22
-2.46
-1.29
0.19
1.7
2.85
3.41
3.3
2.7
1.94
1.38
1.27
1.61
2.2
2.75
3.0
2.82
2.2
1.2
-0.14
-1.72
-3.42
-5.06
-6.42
-7.41
-8.1
-8.7
-9.54
-10.87
-12.75
-15.01
-17.37
-19.54
-21.34
-22.81
-24.14
-25.58
-27.29
-29.26
-31.18
-32.53
-32.7
-31.23
-28.01
-23.35
-17.89
-12.35
-7.36
-3.29
-0.26
1.84
3.21
4.05
4.57
4.89
5.12
5.24
5.2
4.93
4.4
3.7
2.97
2.38
2.1
2.19
2.67
3.47
4.48
5.5
6.34
6.81
6.85
6.55
6.13
5.79
5.63
5.56
5.37
4.86
3.94
2.7
1.34
0.09
-0.93
-1.74
-2.47
-3.25
-4.16
-5.22
-6.39
-7.6
-8.81
-9.99
-11.16
-12.36
-13.64
-15.05
-16.6
-18.29
-20.08
-21.91
-23.66
-25.16
-26.11
-26.19
-25.1
-22.74
-19.26
-15.11
-10.83
-6.93
-3.69
-1.13
0.86
2.44
3.73
4.74
5.45
5.82
5.88
5.71
5.41
5.08
4.77
4.52
4.34
4.28
4.39
4.74
5.37
6.24
7.25
8.23
9.06
9.7
10.17
10.56
10.92
11.23
11.42
11.38
11.08
10.52
9.78
8.93
8.05
7.17
6.26
5.28
4.2
3.03
1.82
0.68
-0.28
-1.03
-1.6
-2.12
-2.79
-3.79
-5.23
-7.06
-9.14
-11.29
-13.27
-14.97
-16.36
-17.56
-18.8
-20.31
-22.18
-24.25
-26.12
-27.22
-27.02
-25.22
-21.84
-17.24
-11.98
-6.61
-1.62
2.69
6.17
8.79
10.58
11.7
12.33
12.7
13.0
13.33
13.68
13.94
13.97
13.71
13.24
12.78
12.6
12.9
13.75
14.96
16.25
17.29
17.86
17.91
17.56
17.01
16.49
16.09
15.85
15.68
15.47
15.09
14.46
13.54
12.39
11.09
9.77
8.53
7.4
6.38
5.42
4.5
3.59
2.74
1.93
1.15
0.27
-0.81
-2.17
-3.76
-5.44
-7.0
-8.27
-9.23
-10.01
-10.83
-11.88
-13.23
-14.87
-16.77
-18.92
-21.36
-24.02
-26.64
-28.7
-29.55
-28.66
-25.85
-21.46
-16.16
-10.78
-5.94
-1.91
1.39
4.2
6.75
9.08
11.11
12.68
13.65
14.0
13.81
13.28
12.61
11.99
11.54
11.34
11.46
11.9
12.66
13.72
14.97
16.24
17.33
18.06
18.34
18.19
17.74
17.14
16.5
15.81
15.02
14.03
12.79
11.35
9.81
8.3
6.92
5.69
4.58
3.57
2.64
1.83
1.16
0.59
0.04
-0.6
-1.46
-2.62
-4.08
-5.81
-7.7
-9.65
-11.59
-13.49
-15.42
-17.53
-19.95
-22.66
-25.43
-27.79
-29.15
-29.01
-27.11
-23.55
-18.77
-13.36
-7.95
-3.06
0.98
4.06
6.22
7.66
8.64
9.38
10.02
10.54
10.88
10.95
10.78
10.46
10.14
9.95
9.93
10.02
10.19
10.43
10.82
11.49
12.48
13.72
15.03
16.14
16.81
16.91
16.47
15.69
14.83
14.13
13.76
13.73
13.92
14.14
14.23
14.1
13.79
13.42
13.17
13.24
13.75
14.75
16.15
17.73
19.19
20.24
20.71
20.61
20.16
19.68
19.48
19.69
20.17
20.47
19.93
17.84
13.77
7.64
-0.1
-8.64
-17.09
-24.79
-31.51
-37.45
-42.93
-47.99
-52.21
-54.72
-54.61
-51.42
-45.5
-37.94
-30.11
-23.1
-17.25
-12.16
-7.2
-2.12
2.73
6.57
8.88
9.89
10.54
11.89
14.32
17.14
18.96
18.42
15.08
9.78
4.25
0.41
-0.48
1.8
6.58
12.69
19.01
24.66
29.13
32.16
33.76
34.12
33.59
32.63
31.67
31.05
30.93
31.22
31.57
31.47
30.4
27.98
24.19
19.38
14.22
9.43
5.54
2.72
0.79
-0.65
-2.0
-3.49
-5.27
-7.54
-10.7
-15.24
-21.55
-29.61
-38.91
-48.59
-57.71
-65.53
-71.74
-76.26
-79.18
-80.45
-79.9
-77.28
-72.57
-66.06
-58.34
-50.14
-41.94
-33.89
-25.85
-17.57
-9.02
-0.47
7.52
14.38
19.66
23.19
24.96
25.06
23.64
20.99
17.59
14.05
10.98
8.75
7.43
6.88
6.77
6.88
7.01
7.06
6.85
6.25
5.17
3.68
2.0
0.38
-0.98
-2.1
-3.1
-4.11
-5.2
-6.32
-7.38
-8.32
-9.08
-9.63
-9.95
-9.97
-9.71
-9.25
-8.67
-8.01
-7.17
-5.92
-4.01
-1.31
2.06
5.64
8.85
11.15
12.25
12.15
11.03
8.98
5.84
1.28
-4.88
-12.38
-20.38
-27.72
-33.35
-36.69
-37.67
-36.53
-33.7
-29.6
-24.9
-20.55
-17.67
-17.06
-18.73
-21.79
-24.81
-26.62
-26.95
-26.59
-26.78
-28.38
-31.05
-33.22
-32.56
-27.12
-16.21
-0.82
16.74
33.76
48.2
59.23
67.19
73.0
77.58
81.35
84.33
86.29
87.17
87.03
85.96
83.94
80.71
75.94
69.48
61.5
52.53
43.36
34.8
27.41
21.44
16.83
13.31
10.56
8.43
6.9
6.07
5.98
6.47
7.2
7.63
7.31
5.96
3.66
0.65
-2.69
-6.24
-10.13
-14.71
-20.32
-27.03
-34.47
-41.85
-48.26
-52.83
-55.14
-55.37
-54.29
-53.09
-53.04
-55.07
-59.49
-65.93
-73.57
-81.51
-89.0
-95.59
-100.99
-104.95
-107.24
-107.73
-106.66
-104.67
-102.78
-102.09
-103.38
-106.9
-112.22
-118.38
-124.12
-128.18
-129.56
-127.66
-122.23
-113.31
-101.0
-85.49
-66.93
-45.68
-22.36
2.05
26.29
49.05
69.26
86.31
100.11
111.0
119.59
126.49
132.12
136.6
139.78
141.39
141.23
139.36
136.23
132.73
129.92
128.81
129.9
133.08
137.68
142.88
148.12
153.34
158.86
165.07
172.01
179.11
185.19
188.61
187.6
180.67
167.07
147.12
122.42
95.56
69.64
47.5
30.98
20.53
15.32
13.73
13.87
14.06
12.97
9.72
3.88
-4.45
-14.56
-25.07
-34.26
-40.42
-42.43
-40.19
-34.62
-27.24
-19.43
-11.83
-4.24
3.89
12.66
21.22
27.92
30.98
29.51
23.91
15.77
7.12
-0.41
-6.08
-9.81
-11.85
-12.49
-12.01
-10.88
-9.77
-9.3
-9.66
-10.41
-10.71
-9.92
-8.11
-6.11
-5.2
-6.29
-9.49
-14.15
-19.3
-24.34
-29.32
-34.77
-41.14
-48.36
-55.64
-61.86
-66.13
-68.21
-68.61
-68.26
-68.04
-68.35
-69.01
-69.56
-69.5
-68.64
-67.12
-65.24
-63.32
-61.48
-59.71
-57.9
-55.99
-54.03
-52.16
-50.53
-49.27
-48.41
-47.92
-47.7
-47.67
-47.81
-48.19
-48.97
-50.28
-52.14
-54.29
-56.22
-57.19
-56.49
-53.62
-48.45
-41.3
-32.82
-23.83
-15.11
-7.23
-0.49
5.05
9.5
13.06
15.91
18.15
19.86
21.04
21.73
22.0
21.97
21.78
21.59
21.51
21.61
21.96
22.58
23.5
24.69
26.08
27.53
28.84
29.86
30.45
30.6
30.34
29.75
28.87
27.68
26.15
24.19
21.84
19.18
16.37
13.62
11.07
8.76
6.64
4.63
2.71
0.93
-0.57
-1.68
-2.43
-2.97
-3.56
-4.41
-5.61
-7.05
-8.56
-10.05
-11.55
-13.24
-15.29
-17.83
-20.84
-24.16
-27.59
-30.86
-33.66
-35.55
-36.05
-34.76
-31.52
-26.5
-20.12
-12.99
-5.66
1.39
7.81
13.37
17.95
21.52
24.22
26.24
27.81
29.06
30.03
30.69
30.99
30.98
30.78
30.59
30.65
31.18
32.34
34.22
36.86
40.19
44.07
48.2
52.18
55.55
57.88
58.93
58.74
57.61
55.94
54.08
52.14
50.02
47.52
44.48
40.95
37.07
33.01
28.79
24.28
19.32
13.83
7.92
1.86
-4.05
-9.64
-14.88
-19.86
