-41.35
-35.25
-28.79
-22.45
-16.51
-11.12
-6.31
-2.07
1.66
4.96
7.93
10.63
13.05
15.12
16.77
17.95
18.72
19.18
19.45
19.62
19.74
19.85
19.96
20.13
20.41
20.85
21.42
22.06
22.64
23.05
23.18
22.98
22.41
21.46
20.15
18.47
16.51
14.4
12.34
10.55
9.16
8.14
7.32
6.45
5.31
3.81
2.03
0.1
-1.8
-3.57
-5.2
-6.71
-8.15
-9.54
-10.88
-12.23
-13.61
-15.04
-16.48
-17.79
-18.77
-19.28
-19.3
-18.97
-18.61
-18.57
-19.08
-20.05
-21.11
-21.66
-21.11
-19.06
-15.47
-10.61
-4.95
0.98
6.71
11.84
16.13
19.4
21.58
22.75
23.07
22.75
21.98
20.9
19.6
18.14
16.58
14.96
13.35
11.83
10.48
9.38
8.63
8.31
8.44
8.95
9.65
10.27
10.54
10.27
9.39
7.98
6.21
4.29
2.35
0.48
-1.27
-2.9
-4.37
-5.61
-6.56
-7.2
-7.53
-7.58
-7.39
-6.98
-6.42
-5.73
-4.93
-4.05
-3.11
-2.11
-1.13
-0.3
0.23
0.3
-0.16
-1.16
-2.6
-4.3
-6.11
-7.87
-9.51
-11.03
-12.57
-14.35
-16.63
-19.53
-22.95
-26.47
-29.46
-31.24
-31.32
-29.49
-25.95
-21.16
-15.74
-10.3
-5.3
-1.06
2.24
4.62
6.2
7.19
7.8
8.21
8.47
8.51
8.25
7.6
6.6
5.34
3.99
2.71
1.67
0.99
0.81
1.19
2.16
3.58
5.23
6.9
8.38
9.6
10.58
11.39
12.1
12.7
13.17
13.44
13.49
13.31
12.91
12.37
11.74
11.03
10.22
9.27
8.13
6.85
5.53
4.24
3.05
1.89
0.71
-0.52
-1.74
-2.8
-3.62
-4.25
-4.82
-5.54
-6.54
-7.82
-9.28
-10.79
-12.25
-13.65
-15.03
-16.44
-17.94
-19.58
-21.42
-23.57
-26.11
-29.0
-32.03
-34.79
-36.69
-37.11
-35.56
-31.88
-26.35
-19.61
-12.5
-5.83
-0.17
4.31
7.73
10.4
12.65
14.68
16.53
18.12
19.34
20.12
20.47
20.46
20.25
19.94
19.62
19.32
19.06
18.87
18.82
19.04
19.62
20.52
21.61
22.66
23.37
23.56
23.21
22.39
21.29
20.03
18.66
17.16
15.53
13.8
12.08
10.49
9.1
7.82
6.49
4.88
2.9
0.66
-1.63
-3.66
-5.26
-6.39
-7.24
-8.03
-8.99
-10.24
-11.73
-13.36
-14.96
-16.45
-17.82
-19.15
-20.62
-22.39
-24.61
-27.31
-30.34
-33.33
-35.75
-37.0
-36.56
-34.24
-30.19
-24.88
-18.96
-13.02
-7.52
-2.68
1.37
4.62
7.06
8.74
9.81
10.42
10.77
10.98
11.08
11.05
10.87
10.6
10.36
10.24
10.36
10.74
11.35
12.17
13.13
14.23
15.39
16.47
17.31
17.75
17.71
17.26
16.59
15.9
15.32
14.84
14.31
13.55
12.43
10.98
9.36
7.77
6.4
5.31
4.47
3.8
3.23
2.71
2.2
1.67
1.11
0.48
-0.24
-1.04
-1.91
-2.85
-3.89
-5.09
-6.46
-8.02
-9.7
-11.38
-13.0
-14.55
-16.13
-17.91
-20.01
-22.51
-25.4
-28.49
-31.48
-33.93
-35.33
-35.22
-33.34
-29.75
-24.81
-19.17
-13.49
-8.3
-3.89
-0.3
2.53
4.7
6.29
7.35
7.96
8.2
8.17
7.93
7.49
6.88
6.13
5.36
4.73
4.42
4.59
5.3
6.49
8.03
9.73
11.4
12.88
14.04
14.84
15.23
15.24
14.91
14.34
13.62
12.86
12.12
11.39
10.65
9.86
9.02
8.21
7.47
6.83
6.24
5.62
4.89
4.03
3.06
2.08
1.24
0.6
0.18
-0.12
-0.49
-1.13
-2.18
-3.66
-5.41
-7.18
-8.76
-10.03
-11.06
-12.07
-13.38
-15.28
-17.97
-21.42
-25.33
-29.12
-31.99
-33.16
-32.17
-29.06
-24.41
-19.17
-14.27
-10.26
-7.24
-4.91
-2.98
-1.37
-0.36
-0.37
-1.7
-4.26
-7.51
-10.71
-13.22
-14.79
-15.69
-16.56
-18.06
-20.55
-23.87
-27.35
-30.14
-31.56
-31.44
-30.21
-28.72
-27.85
-28.16
-29.61
-31.5
-32.53
-30.85
-24.26
-10.66
11.19
40.82
75.67
111.47
143.5
168.18
184.23
192.86
196.82
198.88
200.61
201.96
201.73
198.52
191.55
180.92
167.4
151.91
135.2
117.69
99.5
80.72
61.61
42.85
25.5
10.67
-0.85
-9.06
-14.85
-19.63
-24.71
-30.74
-37.46
-44.02
-49.57
-53.84
-57.24
-60.47
-63.97
-67.39
-69.71
-69.7
-66.71
-61.15
-54.63
-49.32
-47.18
-48.99
-53.99
-60.07
-64.58
-65.41
-61.73
-54.25
-44.78
-35.35
-27.36
-21.13
-15.96
-10.7
-4.45
2.94
10.69
17.42
21.74
22.85
20.91
16.95
12.45
8.59
5.87
3.96
2.11
-0.35
-3.51
-6.77
-9.08
-9.48
-7.54
-3.54
1.61
6.78
11.04
13.9
15.31
15.49
14.54
12.38
8.69
3.22
-4.0
-12.49
-21.36
-29.55
-36.12
-40.46
-42.4
-42.18
-40.48
-38.24
-36.55
-36.42
-38.47
-42.68
-48.34
-54.32
-59.45
-62.88
-64.31
-63.85
-61.8
-58.43
-53.9
-48.46
-42.54
-36.87
-32.27
-29.3
-28.12
-28.4
-29.57
-31.18
-33.08
-35.38
-38.27
-41.77
-45.66
-49.5
-52.78
-55.03
-56.01
-55.75
-54.59
-53.21
-52.47
-53.26
-56.16
-61.27
-68.07
-75.53
-82.48
-88.01
-91.83
-94.38
-96.64
-99.74
-104.51
-111.03
-118.52
-125.54
-130.41
-131.88
-129.55
-124.05
-116.61
-108.59
-100.81
-93.35
-85.66
-77.09
-67.42
-57.27
-48.13
-42.14
-41.63
-48.34
-62.5
-82.15
-103.01
-119.38
-125.98
-119.79
-101.23
-73.91
-43.06
-13.5
11.77
31.74
46.55
56.42
61.17
60.49
54.79
45.85
36.65
30.61
30.68
38.62
54.91
78.65
107.72
138.92
168.36
192.2
207.65
213.72
211.39
203.03
191.35
178.42
165.37
152.57
140.27
128.95
119.26
111.66
105.9
101.06
95.87
89.32
81.12
71.69
61.99
53.0
45.28
38.84
33.21
27.75
21.99
15.84
9.6
3.81
-1.03
-4.67
-7.18
-8.98
-10.58
-12.46
-14.87
-17.81
-21.06
-24.34
-27.44
-30.25
-32.74
-34.79
-36.14
-36.39
-35.11
-32.07
-27.35
-21.35
-14.69
-8.05
-2.01
3.06
7.04
9.98
12.07
13.55
14.69
15.64
16.46
17.09
17.45
17.51
17.33
17.09
16.97
17.09
17.44
17.9
18.33
18.63
18.81
18.95
19.14
19.41
19.73
20.02
20.26
20.49
20.8
21.23
21.72
22.1
22.15
21.69
20.73
19.39
17.84
16.2
14.45
12.52
10.34
8.01
5.79
3.99
2.84
2.26
1.96
1.51
0.64
-0.68
-2.25
-3.77
-5.1
-6.31
-7.6
-9.18
-11.13
-13.43
-16.03
-18.85
-21.85
-24.84
-27.41
-28.96
-28.9
-26.92
-23.18
-18.23
-12.79
-7.5
-2.66
1.65
5.5
8.93
11.85
14.13
15.69
16.61
17.09
17.39
17.71
18.07
18.41
18.65
18.77
18.82
18.98
19.43
20.26
21.43
22.73
23.88
24.66
24.91
24.72
24.27
23.78
23.38
23.02
22.53
21.71
20.41
18.67
16.61
14.43
12.25
10.15
8.15
6.27
4.49
2.81
1.14
-0.66
-2.72
-5.09
-7.65
-10.15
-12.3
-13.93
-15.07
-16.0
-17.11
-18.71
-20.95
-23.68
-26.49
-28.83
-30.14
-30.0
-28.26
-25.04
-20.65
-15.57
-10.31
-5.29
-0.87
2.75
5.52
7.48
8.77
9.55
9.98
10.2
10.29
10.3
10.27
10.22
10.17
10.15
10.24
10.49
10.98
11.76
12.75
13.84
14.85
15.61
16.02
16.08
15.83
15.37
14.77
14.11
13.42
12.77
12.21
11.82
11.6
11.51
11.44
11.25
10.83
10.15
9.25
8.2
7.04
5.78
4.36
2.8
1.18
-0.36
-1.64
-2.59
-3.26
-3.84
-4.53
-5.49
-6.76
-8.29
-9.96
-11.68
-13.38
-15.04
-16.72
-18.5
-20.49
-22.75
-25.24
-27.76
-29.9
-31.18
-31.12
-29.49
-26.32
-21.95
-16.84
-11.47
-6.21
-1.36
2.88
6.3
8.77
10.24
10.84
10.79
10.43
10.07
9.88
9.87
9.93
9.96
9.89
9.72
9.6
9.67
10.05
10.78
11.8
12.97
14.1
15.0
15.53
15.64
15.33
14.71
13.9
13.0
12.11
11.2
10.27
9.29
8.26
7.27
6.39
5.7
5.2
4.81
4.38
3.79
2.93
1.8
0.54
-0.68
-1.66
-2.33
-2.76
-3.14
-3.7
-4.6
-5.84
-7.3
-8.76
-10.03
-11.02
-11.71
-12.23
-12.73
-13.42
-14.52
-16.14
-18.3
-20.77
-23.14
-24.88
-25.47
-24.58
-22.15
-18.43
-13.87
-9.03
-4.41
-0.37
2.89
5.34
7.11
8.35
9.25
9.91
10.39
10.67
10.74
10.57
10.18
9.6
8.88
8.14
7.51
7.15
7.14
7.51
8.15
8.92
9.69
10.4
11.05
11.64
12.13
12.37
12.25
11.64
10.56
9.19
7.74
6.46
5.48
4.81
4.34
3.92
3.42
2.79
2.0
1.05
-0.07
-1.37
-2.8
-4.27
-5.65
-6.81
-7.73
-8.54
-9.43
-10.58
-12.07
-13.8
-15.56
-17.12
-18.3
-19.07
-19.55
-19.96
-20.56
-21.59
-23.14
-25.07
-26.98
-28.27
-28.34
-26.79
-23.59
-19.05
-13.76
-8.31
-3.18
1.32
5.02
7.81
9.66
10.61
10.85
10.64
10.32
10.07
9.91
9.71
9.31
8.64
7.85
7.19
6.94
7.2
7.9
8.79
9.63
10.25
10.63
10.76
10.69
10.39
9.82
9.01
8.06
7.17
6.49
6.08
5.83
5.56
5.09
4.35
3.42
2.46
1.63
1.01
0.54
0.08
-0.53
-1.37
-2.4
-3.47
-4.37
-4.99
-5.33
-5.53
-5.81
-6.33
-7.19
-8.32
-9.56
-10.77
-11.86
-12.87
-13.91
-15.12
-16.64
-18.54
-20.8
-23.27
-25.69
-27.7
-28.91
-28.97
-27.7
-25.06
-21.28
-16.72
-11.91
-7.37
-3.52
-0.56
1.51
2.82
3.54
3.82
3.73
3.31
2.64
1.81
0.93
0.06
-0.75
-1.44
-1.93
-2.12
-1.9
-1.24
-0.23
1.0
2.27
3.45
4.39
5.02
5.24
5.04
4.47
3.63
2.7
1.82
1.09
0.48
-0.07
-0.65
-1.28
-1.95
-2.59
-3.14
-3.61
-4.09
-4.7
-5.56
-6.73
-8.18
-9.78
-11.34
-12.64
-13.5
-13.75
-13.3
-12.18
-10.59
-8.85
-7.32
-6.33
-5.94
-6.03
-6.22
-6.03
-5.07
-3.12
-0.27
3.19
6.8
10.11
12.81
14.77
16.07
16.88
17.41
17.74
17.87
17.73
17.25
16.43
15.35
14.16
12.98
11.91
11.0
10.31
9.89
9.79
10.02
10.55
11.25
11.98
12.54
12.76
12.55
11.95
11.08
10.18
9.45
8.94
8.56
8.11
7.42
6.46
5.4
4.51
4.01
3.92
4.06
4.12
3.86
3.19
2.22
1.15
0.16
-0.68
-1.44
-2.24
-3.21
-4.37
-5.68
-7.04
-8.33
-9.51
-10.57
-11.58
-12.61
-13.71
-14.91
-16.25
-17.76
-19.48
-21.31
-23.04
-24.28
-24.58
-23.59
-21.18
-17.52
-13.03
-8.25
-3.68
0.33
3.62
6.16
7.99
9.14
9.65
9.61
9.18
8.61
8.16
8.04
8.27
8.74
9.21
9.47
9.46
9.26
9.05
9.06
9.38
9.97
10.71
11.38
11.82
11.94
11.76
11.32
10.66
9.82
8.81
7.68
6.52
5.47
4.67
4.16
3.9
3.76
3.57
3.24
2.74
2.1
1.38
0.6
-0.18
-0.92
-1.59
-2.16
-2.68
-3.27
-4.09
-5.22
-6.65
-8.26
-9.83
-11.24
-12.41
-13.41
-14.35
-15.4
-16.68
-18.27
-20.14
-22.11
-23.84
-24.81
-24.51
-22.6
-19.06
-14.26
-8.82
-3.46
1.26
5.03
7.82
9.74
10.97
11.65
11.86
11.72
11.33
10.86
10.44
10.18
10.09
10.12
10.22
10.32
10.47
10.71
11.13
11.76
12.53
13.35
14.07
14.57
14.78
14.73
14.45
14.01
13.44
12.76
11.98
11.14
10.28
9.43
8.6
7.79
6.98
6.18
5.41
4.66
3.93
3.15
2.24
1.17
-0.04
-1.25
-2.34
-3.24
-3.99
-4.7
-5.49
-6.39
-7.39
-8.39
-9.32
-10.14
-10.87
-11.58
-12.32
-13.23
-14.4
-15.98
-18.0
-20.39
-22.88
-25.05
-26.48
-26.74
-25.63
-23.16
-19.52
-15.1
-10.34
-5.7
-1.53
1.9
4.56
6.49
7.85
8.79
9.38
9.63
9.55
9.2
8.67
8.12
7.65
7.3
7.08
6.97
7.01
7.28
7.85
8.67
9.64
10.57
11.29
11.7
11.77
11.56
11.16
10.66
10.12
9.57
9.02
8.42
7.73
6.91
5.97
4.98
4.06
3.29
2.73
2.36
2.09
1.83
1.43
0.82
-0.05
-1.09
-2.19
-3.23
-4.14
-4.93
-5.68
-6.48
-7.39
-8.41
-9.51
-10.62
-11.67
-12.61
-13.45
-14.23
-15.1
-16.27
-17.89
-19.96
-22.22
-24.2
-25.34
-25.21
-23.63
-20.76
-16.95
-12.63
-8.17
-3.85
0.13
3.58
6.37
8.45
9.85
10.71
11.14
11.23
10.97
10.36
9.45
8.38
7.39
6.64
6.24
6.2
6.47
7.0
7.73
8.57
9.36
9.95
10.24
10.25
10.15
10.1
10.19
10.35
10.44
10.25
9.71
8.85
7.81
6.74
5.72
4.72
3.72
2.67
1.6
0.6
-0.21
-0.79
-1.18
-1.52
-2.0
-2.77
-3.87
-5.19
-6.55
-7.78
-8.77
-9.54
-10.24
-11.11
-12.34
-14.06
-16.27
-18.78
-21.27
-23.26
-24.3
-24.0
-22.21
-19.0
-14.7
-9.81
-4.83
-0.21
3.77
6.99
9.42
11.1
12.11
12.58
12.66
12.52
12.3
12.08
11.85
11.59
11.27
10.9
10.54
10.3
10.24
10.37
10.67
11.07
11.53
11.99
12.42
12.77
12.96
12.88
12.47
11.73
10.75
9.65
8.54
7.49
6.5
5.55
4.67
3.92
3.38
3.07
2.92
2.78
2.46
1.84
0.9
-0.24
-1.42
-2.47
-3.3
-3.92
-4.47
-5.07
-5.83
-6.79
-7.89
-9.03
-10.15
-11.21
-12.21
-13.19
-14.2
-15.29
-16.54
-18.04
-19.84
-21.86
-23.87
-25.48
-26.21
-25.68
-23.73
-20.46
-16.26
-11.62
-7.08
-3.01
0.37
3.06
5.11
6.61
7.6
8.07
8.05
7.66
7.09
6.52
6.09
5.82
5.64
5.49
5.4
5.5
5.97
6.86
8.06
9.28
10.25
10.8
10.94
10.84
10.66
10.52
10.35
10.0
9.33
8.33
7.13
5.95
5.01
4.36
3.95
3.6
3.14
2.49
1.67
0.81
0.03
-0.62
-1.19
-1.72
-2.29
-2.9
-3.54
-4.2
-4.94
-5.78
-6.74
-7.73
-8.59
-9.2
-9.55
-9.79
-10.16
-10.88
-12.07
-13.62
-15.28
-16.66
-17.32
-16.91
-15.24
-12.36
-8.54
-4.28
-0.08
3.61
6.54
8.66
10.09
11.0
11.55
11.87
12.03
12.1
12.05
11.87
11.53
11.05
10.54
10.11
9.91
9.97
10.28
10.77
11.37
12.02
12.68
13.22
13.55
13.54
13.19
12.59
11.95
11.43
11.08
10.81
10.39
9.67
8.58
7.26
5.91
4.75
3.86
3.25
2.83
2.47
2.07
1.56
0.94
0.21
-0.59
-1.42
-2.24
-3.01
-3.77
-4.51
-5.31
-6.16
-7.08
-8.08
-9.15
-10.27
-11.41
-12.53
-13.62
-14.71
-15.92
-17.34
-18.98
-20.7
-22.16
-22.92
-22.54
-20.8
-17.73
-13.68
-9.16
-4.77
-0.97
2.0
4.12
5.58
6.6
7.37
7.97
8.39
8.57
8.49
8.16
7.63
6.98
6.3
5.68
5.26
5.13
5.38
6.0
6.91
7.91
8.77
9.3
9.41
9.08
8.43
7.6
6.7
5.81
4.94
4.11
3.35
2.71
2.21
1.82
1.47
1.05
0.52
-0.09
-0.7
-1.21
-1.6
-1.89
-2.14
-2.41
-2.73
-3.08
-3.45
-3.88
-4.38
-4.99
-5.69
-6.46
-7.26
-8.1
-8.98
-9.9
-10.81
-11.66
-12.49
-13.45
-14.72
-16.45
-18.5
-20.48
-21.82
-21.96
-20.58
-17.78
-14.0
-9.8
-5.74
-2.14
0.86
3.31
5.26
6.79
7.91
8.64
9.02
9.14
9.1
9.02
8.94
8.85
8.73
8.54
8.35
8.26
8.42
8.89
9.58
10.35
10.99
11.37
11.48
11.43
11.33
11.25
11.16
10.96
10.6
10.1
9.55
9.08
8.71
8.44
8.14
7.75
7.21
6.54
5.81
5.08
4.38
3.67
2.91
2.04
1.04
-0.1
-1.32
-2.55
-3.7
-4.71
-5.56
-6.28
-6.94
-7.62
-8.4
-9.32
-10.43
-11.8
-13.44
-15.32
-17.25
-18.99
-20.17
-20.47
-19.68
-17.75
-14.83
-11.19
-7.19
-3.19
0.45
3.45
5.59
6.78
7.12
6.81
6.14
5.41
4.85
4.57
4.57
4.78
5.1
5.44
5.73
5.94
6.12
6.32
6.63
7.1
7.73
8.44
9.11
9.59
9.74
9.5
8.85
7.9
6.82
5.81
4.99
4.41
4.0
3.6
3.09
2.44
1.7
0.98
0.37
-0.1
-0.49
-0.89
-1.37
-1.96
-2.67
-3.46
-4.3
-5.15
-5.98
-6.78
-7.58
-8.4
-9.28
-10.2
-11.09
-11.88
-12.5
-12.98
-13.39
-13.89
-14.61
-15.63
-17.0
-18.7
-20.67
-22.75
-24.66
-25.99
-26.33
-25.4
-23.12
-19.72
-15.64
-11.35
-7.28
-3.7
-0.71
1.7
3.57
4.96
5.92
6.54
6.94
7.21
7.38
7.45
7.35
7.05
6.56
5.95
5.36
4.97
4.91
5.26
6.01
7.04
8.17
9.23
10.09
10.71
11.09
11.28
11.29
11.12
10.72
10.06
9.2
8.23
7.31
6.55
6.05
5.82
5.84
6.03
6.24
6.34
6.2
5.75
5.02
4.13
3.2
2.32
1.53
0.77
-0.01
-0.87
-1.8
-2.77
-3.72
-4.65
-5.58
-6.59
-7.81
-9.35
-11.21
-13.23
-15.12
-16.45
-16.79
-15.89
-13.71
-10.52
-6.7
-2.73
0.98
4.16
6.66
8.44
9.59
10.22
10.46
10.42
10.19
9.81
9.32
8.76
8.21
7.76
7.48
7.4
7.52
7.81
8.2
8.66
9.12
9.55
9.89
10.11
10.15
10.03
9.76
9.4
8.99
8.57
8.14
7.72
7.32
6.94
6.59
6.21
5.75
5.13
4.36
3.53
2.78
2.23
1.89
1.67
1.39
0.9
0.19
-0.62
-1.36
-1.88
-2.24
-2.58
-3.1
-3.93
-5.1
-6.47
-7.89
-9.26
-10.54
-11.76
-13.01
-14.36
-15.82
-17.43
-19.15
-20.95
-22.71
-24.25
-25.32
-25.62
-24.89
-23.01
-20.04
-16.26
-12.06
-7.89
-4.13
-0.99
1.4
3.06
4.09
4.6
4.69
4.51
4.16
3.79
3.49
3.34
3.38
3.58
3.85
4.12
4.33
4.51
4.73
5.1
5.65
6.36
7.11
7.73
8.1
