-129.64
-123.82
-113.27
-97.32
-75.82
-49.4
-19.57
11.53
41.5
68.15
89.84
105.59
115.07
118.51
116.57
110.28
100.91
89.97
78.87
68.88
60.9
55.32
52.02
50.57
50.3
50.55
50.89
51.12
51.25
51.43
51.75
52.26
52.94
53.73
54.55
55.29
55.76
55.75
55.06
53.61
51.47
48.84
45.93
42.89
39.77
36.52
33.17
29.82
26.63
23.73
21.12
18.71
16.28
13.73
11.01
8.24
5.6
3.19
1.05
-0.88
-2.66
-4.34
-5.88
-7.21
-8.3
-9.17
-9.92
-10.66
-11.49
-12.43
-13.48
-14.62
-15.85
-17.23
-18.81
-20.55
-22.41
-24.28
-26.09
-27.89
-29.81
-32.0
-34.52
-37.19
-39.61
-41.21
-41.49
-40.15
-37.22
-33.01
-28.0
-22.71
-17.51
-12.7
-8.43
-4.79
-1.78
0.65
2.62
4.28
5.75
7.12
8.34
9.36
10.09
10.51
10.67
10.68
10.67
10.77
11.02
11.43
11.96
12.52
13.01
13.33
13.39
13.11
12.41
11.27
9.72
7.88
5.87
3.82
1.82
-0.1
-2.0
-3.98
-6.16
-8.63
-11.4
-14.42
-17.55
-20.68
-23.72
-26.64
-29.47
-32.26
-34.99
-37.6
-40.01
-42.16
-44.09
-45.84
-47.51
-49.19
-50.98
-52.92
-55.07
-57.35
-59.48
-61.01
-61.36
-59.96
-56.49
-50.94
-43.64
-35.15
-26.11
-17.08
-8.49
-0.57
6.57
12.93
18.58
23.65
28.26
32.58
36.77
40.9
44.96
48.85
52.35
55.28
57.47
58.87
59.52
59.52
58.97
58.0
56.7
55.17
53.45
51.53
49.32
46.72
43.65
40.12
36.22
32.12
28.01
24.01
20.18
16.51
12.9
9.29
5.63
1.96
-1.63
-5.05
-8.23
-11.15
-13.82
-16.22
-18.34
-20.18
-21.87
-23.58
-25.54
-27.88
-30.59
-33.5
-36.35
-38.91
-41.04
-42.75
-44.19
-45.62
-47.39
-49.78
-52.89
-56.46
-59.84
-62.1
-62.39
-60.18
-55.5
-48.87
-41.07
-32.84
-24.71
-16.96
-9.78
-3.3
2.3
6.92
10.62
13.67
16.41
19.17
22.11
25.19
28.22
31.04
33.57
35.84
37.99
40.1
42.15
44.03
45.55
46.53
46.86
46.54
45.65
44.33
42.75
41.03
39.24
37.36
35.35
33.2
30.94
28.7
26.63
24.9
23.58
22.64
21.94
21.29
20.52
19.51
18.19
16.53
14.54
12.27
9.79
7.19
4.55
1.91
-0.71
-3.33
-5.96
-8.57
-11.16
-13.7
-16.24
-18.91
-21.84
-25.17
-28.91
-32.91
-36.78
-39.96
-41.83
-41.89
-39.91
-36.0
-30.6
-24.38
-17.98
-11.95
-6.65
-2.25
1.24
3.88
5.79
7.1
7.98
8.61
9.11
9.54
9.92
10.21
10.37
10.42
10.47
10.63
11.01
11.66
12.53
13.5
14.4
15.05
15.35
15.24
14.75
13.95
12.97
11.9
10.79
9.67
8.54
7.39
6.27
5.21
4.24
3.33
2.43
1.49
0.48
-0.58
-1.67
-2.77
-3.9
-5.09
-6.36
-7.72
-9.13
-10.6
-12.11
-13.72
-15.44
-17.29
-19.26
-21.36
-23.66
-26.22
-29.11
-32.2
-35.13
-37.29
-38.04
-36.87
-33.61
-28.53
-22.19
-15.31
-8.54
-2.37
2.95
7.33
10.79
13.43
15.39
16.8
17.8
18.51
18.98
19.28
19.44
19.52
19.57
19.63
19.74
19.95
20.26
20.68
21.14
21.57
21.88
21.98
21.82
21.36
20.62
19.65
18.54
17.38
16.26
15.24
14.3
13.38
12.41
11.3
10.04
8.74
7.52
6.45
5.52
4.6
3.52
2.19
0.61
-1.03
-2.47
-3.57
-4.32
-4.92
-5.67
-6.8
-8.39
-10.36
-12.51
-14.62
-16.59
-18.42
-20.22
-22.07
-24.09
-26.38
-29.04
-32.1
-35.41
-38.58
-40.98
-41.91
-40.82
-37.52
-32.26
-25.62
-18.34
-11.06
-4.28
1.7
6.69
10.57
13.35
15.15
16.2
16.78
17.11
17.3
17.38
17.3
17.05
16.67
16.26
15.95
15.84
16.0
16.46
17.18
18.08
19.0
19.73
20.11
20.02
19.49
18.61
17.51
16.32
15.12
13.92
12.72
11.51
10.32
9.22
8.27
7.47
6.77
6.04
5.15
4.04
2.71
1.29
-0.07
-1.22
-2.13
-2.83
-3.48
-4.26
-5.3
-6.68
-8.37
-10.23
-12.12
-13.91
-15.59
-17.29
-19.23
-21.66
-24.75
-28.49
-32.62
-36.7
-40.06
-42.03
-42.02
-39.75
-35.31
-29.13
-21.95
-14.51
-7.45
-1.2
4.05
8.26
11.47
13.75
15.21
16.03
16.39
16.46
16.31
15.96
15.41
14.72
14.01
13.49
13.28
13.43
13.87
14.42
14.99
15.52
16.0
16.42
16.65
16.55
15.98
14.93
13.56
12.13
10.87
9.87
9.05
8.23
7.23
6.01
4.65
3.31
2.16
1.24
0.53
-0.11
-0.8
-1.63
-2.6
-3.62
-4.56
-5.35
-6.03
-6.79
-7.88
-9.52
-11.76
-14.44
-17.29
-20.02
-22.46
-24.63
-26.67
-28.8
-31.22
-34.03
-37.19
-40.45
-43.38
-45.36
-45.8
-44.24
-40.56
-34.99
-28.11
-20.64
-13.27
-6.54
-0.73
4.04
7.82
10.71
12.86
14.39
15.43
16.04
16.3
16.27
16.06
15.81
15.67
15.76
16.15
16.82
17.68
18.59
19.44
20.13
20.65
20.99
21.19
21.27
21.22
21.0
20.56
19.81
18.73
17.35
15.76
14.1
12.51
11.12
9.98
9.05
8.24
7.43
6.52
5.51
4.43
3.37
2.38
1.48
0.64
-0.22
-1.14
-2.13
-3.23
-4.48
-5.94
-7.65
-9.58
-11.63
-13.68
-15.6
-17.38
-19.07
-20.77
-22.63
-24.79
-27.35
-30.39
-33.78
-37.18
-39.98
-41.49
-41.08
-38.42
-33.64
-27.23
-19.95
-12.57
-5.72
0.2
5.05
8.89
11.88
14.24
16.09
17.49
18.4
18.81
18.77
18.46
18.08
17.8
17.66
17.63
17.67
17.86
18.29
19.05
20.07
21.08
21.75
21.76
21.04
19.74
18.17
16.63
15.3
14.19
13.2
12.19
11.12
10.0
8.9
7.9
7.02
6.23
5.39
4.39
3.14
1.7
0.16
-1.32
-2.66
-3.85
-4.95
-6.07
-7.27
-8.59
-10.03
-11.61
-13.31
-15.14
-17.05
-18.98
-20.89
-22.83
-24.98
-27.57
-30.79
-34.59
-38.57
-41.97
-43.93
-43.7
-40.95
-35.88
-29.15
-21.67
-14.27
-7.48
-1.52
3.6
7.95
11.53
14.32
16.33
17.72
18.68
19.43
20.05
20.48
20.56
20.21
19.54
18.81
18.39
18.49
19.13
20.12
21.17
22.0
22.49
22.63
22.47
22.08
21.47
20.65
19.65
18.5
17.29
16.04
14.8
13.55
12.33
11.18
10.16
9.3
8.59
8.01
7.43
6.8
5.99
4.97
3.68
2.14
0.4
-1.43
-3.22
-4.87
-6.33
-7.65
-8.92
-10.3
-11.84
-13.56
-15.41
-17.26
-19.04
-20.72
-22.34
-23.99
-25.79
-27.87
-30.32
-33.15
-36.18
-39.04
-41.16
-41.93
-40.86
-37.72
-32.68
-26.26
-19.15
-12.06
-5.54
0.05
4.57
7.99
10.45
12.1
13.17
13.85
14.3
14.6
14.79
14.86
14.85
14.84
14.92
15.17
15.64
16.36
17.32
18.46
19.68
20.82
21.67
22.1
22.02
21.5
20.63
19.55
18.35
17.03
15.57
13.96
12.22
10.47
8.85
7.42
6.26
5.32
4.54
3.83
3.09
2.23
1.23
0.07
-1.21
-2.53
-3.84
-5.11
-6.39
-7.8
-9.44
-11.33
-13.41
-15.56
-17.68
-19.72
-21.7
-23.74
-25.99
-28.64
-31.79
-35.39
-39.16
-42.53
-44.77
-45.1
-43.07
-38.59
-32.1
-24.39
-16.36
-8.74
-1.98
3.74
8.5
12.37
15.42
17.64
19.02
19.6
19.51
18.98
18.31
17.73
17.38
17.27
17.34
17.54
17.86
18.38
19.17
20.19
21.32
22.26
22.75
22.65
21.96
20.89
19.64
18.42
17.28
16.21
15.08
13.85
12.5
11.1
9.75
8.55
7.55
6.73
6.06
5.44
4.81
4.11
3.3
2.37
1.26
-0.03
-1.49
-3.05
-4.63
-6.16
-7.65
-9.21
-10.92
-12.86
-14.96
-17.16
-19.32
-21.43
-23.57
-25.88
-28.52
-31.58
-35.02
-38.61
-41.95
-44.48
-45.62
-44.86
-41.96
-36.99
-30.4
-22.85
-15.13
-7.89
-1.6
3.53
7.48
10.41
12.5
13.94
14.87
15.4
15.63
15.7
15.73
15.83
16.07
16.44
16.9
17.39
17.9
18.43
19.05
19.86
20.91
22.13
23.35
24.28
24.67
24.34
23.35
21.87
20.21
18.62
17.23
16.01
14.85
13.66
12.4
11.12
9.9
8.77
7.69
6.58
5.38
4.09
2.8
1.61
0.6
-0.29
-1.16
-2.17
-3.46
-5.07
-6.98
-9.13
-11.45
-13.84
-16.21
-18.42
-20.38
-22.06
-23.57
-25.18
-27.23
-30.01
-33.56
-37.55
-41.31
-43.98
-44.76
-43.2
-39.28
-33.4
-26.28
-18.66
-11.23
-4.52
1.15
5.62
8.91
11.17
12.63
13.6
14.33
14.93
15.45
15.85
16.09
16.18
16.24
16.39
16.78
17.46
18.37
19.44
20.53
21.54
22.4
23.03
23.36
23.3
22.85
22.01
20.9
19.65
18.34
17.0
15.61
14.14
12.59
11.05
9.56
8.18
6.86
5.52
4.11
2.64
1.17
-0.18
-1.35
-2.39
-3.41
-4.53
-5.84
-7.34
-8.98
-10.71
-12.47
-14.25
-16.09
-17.99
-20.01
-22.27
-24.93
-28.13
-31.87
-35.88
-39.62
-42.33
-43.26
-41.95
-38.36
-32.87
-26.14
-18.91
-11.78
-5.18
0.64
5.54
9.51
12.58
14.86
16.51
17.68
18.43
18.82
18.9
18.77
18.58
18.47
18.55
18.82
19.27
19.88
20.66
21.62
22.65
23.54
24.05
24.0
23.37
22.37
21.28
20.33
19.59
18.98
18.26
17.28
15.97
14.44
12.86
11.4
10.13
9.07
8.15
7.33
6.54
5.76
4.94
4.03
2.98
1.77
0.44
-0.95
-2.33
-3.7
-5.14
-6.73
-8.55
-10.57
-12.71
-14.84
-16.85
-18.76
-20.7
-22.87
-25.46
-28.58
-32.18
-36.04
-39.75
-42.74
-44.42
-44.29
-42.08
-37.83
-31.91
-24.9
-17.43
-10.12
-3.41
2.38
7.07
10.59
13.01
14.5
15.32
15.73
15.95
16.1
16.23
16.37
16.55
16.87
17.37
18.06
18.91
19.82
20.76
21.71
22.65
23.52
24.17
24.44
24.2
23.42
22.19
20.71
19.19
17.75
16.43
15.13
13.75
12.18
10.42
8.58
6.84
5.39
4.34
3.67
3.19
2.65
1.86
0.76
-0.51
-1.76
-2.81
-3.62
-4.33
-5.13
-6.23
-7.7
-9.5
-11.51
-13.61
-15.72
-17.81
-19.9
-22.02
-24.29
-26.82
-29.74
-33.05
-36.52
-39.62
-41.64
-41.87
-39.87
-35.6
-29.47
-22.21
-14.67
-7.57
-1.39
3.64
7.52
10.4
12.47
13.91
14.88
15.47
15.73
15.7
15.4
14.9
14.28
13.65
13.18
13.04
13.37
14.25
15.65
17.41
19.25
20.88
22.0
22.49
22.31
21.59
20.53
19.28
17.97
16.61
15.16
13.57
11.86
10.12
8.49
7.09
5.97
5.04
4.16
3.18
2.01
0.68
-0.68
-1.93
-3.0
-3.9
-4.75
-5.67
-6.75
-8.02
-9.48
-11.12
-12.98
-15.1
-17.5
-20.14
-22.92
-25.76
-28.64
-31.63
-34.79
-38.04
-41.06
-43.28
-44.04
-42.79
-39.3
-33.78
-26.77
-19.07
-11.47
-4.61
1.13
5.62
8.97
11.4
13.14
14.4
15.3
15.92
16.32
16.56
16.73
16.91
17.15
17.53
18.06
18.76
19.57
20.4
21.08
21.51
21.63
21.46
21.11
20.66
20.15
19.51
18.69
17.61
16.31
14.86
13.36
11.84
10.34
8.85
7.43
6.24
5.37
4.93
4.84
4.89
4.84
4.46
3.69
2.6
1.41
0.27
-0.71
-1.61
-2.57
-3.76
-5.26
-7.06
-9.07
-11.18
-13.3
-15.33
-17.21
-18.95
-20.56
-22.16
-23.96
-26.15
-28.85
-31.97
-35.15
-37.77
-39.15
-38.71
-36.17
-31.65
-25.61
-18.73
-11.7
-5.08
0.77
5.7
9.7
12.84
15.21
16.88
17.93
18.41
18.39
17.96
17.27
16.44
15.63
15.0
14.65
14.67
15.08
15.86
16.87
17.92
18.8
19.34
19.44
19.11
18.48
17.66
16.79
15.9
14.96
13.9
12.69
11.38
10.04
8.82
7.8
6.98
6.29
5.63
4.86
3.91
2.75
1.42
-0.01
-1.47
-2.89
-4.3
-5.73
-7.28
-9.02
-10.95
-12.99
-15.02
-16.9
-18.59
-20.17
-21.83
-23.82
-26.35
-29.44
-32.92
-36.34
-39.11
-40.54
-40.13
-37.59
-33.0
-26.76
-19.54
-12.12
-5.19
0.73
5.41
8.87
11.29
12.93
14.04
14.79
15.29
15.55
15.58
15.37
14.98
14.46
13.99
13.7
13.72
14.05
14.62
15.3
15.95
16.49
16.84
17.01
16.96
16.68
16.18
15.5
14.71
13.88
13.04
12.14
11.16
10.1
8.99
7.94
7.01
6.19
5.45
4.71
3.94
3.14
2.32
1.48
0.59
-0.39
-1.55
-2.91
-4.48
-6.25
-8.2
-10.3
-12.49
-14.72
-16.91
-19.04
-21.09
-23.13
-25.29
-27.73
-30.6
-33.87
-37.32
-40.43
-42.57
-43.08
-41.57
-37.97
-32.61
-26.06
-18.99
-11.95
-5.4
0.38
5.25
9.16
12.14
14.31
15.8
16.76
17.3
17.56
17.58
17.39
17.05
16.56
16.02
15.58
15.42
15.67
16.37
17.39
18.49
19.38
19.87
19.9
19.54
19.01
18.45
17.95
17.47
16.92
16.2
15.28
14.2
13.06
11.93
10.87
9.9
9.0
8.09
7.11
5.96
4.56
2.93
1.2
-0.49
-2.0
-3.33
-4.6
-5.99
-7.65
-9.62
-11.78
-13.96
-16.04
-17.97
-19.8
-21.66
-23.68
-26.01
-28.76
-31.93
-35.36
-38.68
-41.32
-42.63
-42.09
-39.36
-34.55
-28.08
-20.68
-13.15
-6.15
-0.15
4.66
8.33
11.03
12.89
14.08
14.71
14.9
14.79
14.57
14.4
14.37
14.52
14.83
15.28
15.86
16.57
17.37
18.23
19.07
19.79
20.32
20.58
20.52
20.1
19.34
18.36
17.27
16.22
15.26
14.36
13.42
12.31
11.0
9.5
7.89
6.26
4.62
3.0
1.38
-0.29
-2.07
-3.99
-6.12
-8.43
-10.83
-13.23
-15.49
-17.53
-19.36
-21.03
-22.67
-24.45
-26.58
-29.2
-32.3
-35.66
-38.75
-40.87
-41.31
-39.61
-35.74
-30.1
-23.39
-16.34
-9.54
-3.29
2.28
7.13
11.26
14.58
17.1
18.9
20.12
20.97
21.52
21.82
21.82
21.52
21.0
20.48
20.18
20.26
20.76
21.58
22.54
23.44
24.09
24.35
24.16
23.55
22.61
21.48
20.3
19.13
18.01
16.84
15.54
14.04
12.34
10.53
8.74
7.08
5.61
4.36
3.24
2.17
1.07
-0.08
-1.24
-2.35
-3.43
-4.58
-5.94
-7.64
-9.66
-11.83
-13.9
-15.64
-17.0
-18.08
-19.17
-20.54
-22.39
-24.82
-27.76
-31.06
-34.46
-37.5
-39.61
-40.17
-38.69
-35.04
-29.48
-22.63
-15.25
-8.08
-1.6
3.95
8.56
12.28
15.21
17.39
18.87
19.68
19.94
19.81
19.48
19.14
18.89
18.77
18.77
18.84
18.97
19.21
19.66
20.36
21.29
22.27
23.05
23.36
23.01
21.96
20.34
18.4
16.43
14.67
13.2
11.99
10.94
9.89
8.78
7.62
6.51
5.54
4.76
4.11
3.47
2.73
1.82
0.75
-0.42
-1.68
-3.1
-4.77
-6.73
-8.97
-11.33
-13.62
-15.67
-17.42
-18.9
-20.28
-21.75
-23.53
-25.79
-28.52
-31.49
-34.25
-36.17
-36.65
-35.27
-32.0
-27.09
-21.07
-14.57
-8.16
-2.31
2.63
6.49
9.19
10.86
11.69
11.94
11.8
11.38
10.72
9.91
9.07
8.44
8.26
8.65
9.56
10.82
12.16
13.32
14.15
14.65
14.81
14.66
14.21
13.47
12.51
11.43
10.37
9.42
8.61
7.9
7.28
6.73
6.32
6.09
6.04
6.05
5.95
5.55
4.73
3.53
2.08
0.59
-0.79
-2.01
-3.12
-4.28
-5.65
-7.37
-9.45
-11.8
-14.26
-16.6
-18.7
-20.53
-22.18
-23.83
-25.73
-28.02
-30.69
-33.57
-36.21
-38.03
-38.47
-37.1
-33.81
-28.81
-22.59
-15.8
-9.03
-2.81
2.54
6.84
10.08
12.38
13.97
15.09
15.93
16.59
17.08
17.37
17.48
17.46
17.42
17.44
17.57
17.8
18.09
18.41
18.75
19.1
19.45
19.73
19.92
19.96
19.83
19.51
18.95
18.15
17.09
15.83
14.42
12.95
11.47
10.04
8.73
7.58
6.65
5.96
5.41
4.87
4.17
3.22
1.99
0.58
-0.9
-2.36
-3.76
-5.17
-6.67
-8.37
-10.28
-12.34
-14.4
-16.3
-17.95
-19.41
-20.87
-22.6
-24.85
-27.7
-30.99
-34.32
-37.08
-38.65
-38.51
-36.44
-32.48
-27.03
-20.7
-14.17
-8.02
-2.64
1.82
5.39
8.17
10.3
11.87
12.93
13.52
13.73
13.74
13.7
13.77
13.97
14.23
14.44
14.51
14.51
14.65
15.13
16.04
17.26
18.45
19.22
19.29
18.62
17.39
15.89
14.37
12.96
11.64
10.35
9.02
7.65
6.3
5.0
3.75
2.51
1.18
-0.26
-1.85
-3.51
-5.17
-6.77
-8.28
-9.76
-11.23
-12.79
-14.47
-16.33
-18.39
-20.73
-23.41
-26.45
-29.8
-33.22
-36.34
-38.62
-39.55
-38.73
-36.02
-31.56
-25.78
-19.23
-12.49
-6.1
-0.39
4.36
8.08
10.77
12.52
13.5
13.93
14.0
13.9
13.74
13.61
13.55
13.57
13.74
14.1
14.74
15.68
16.91
18.32
19.68
20.81
21.52
21.74
21.53
20.98
20.19
19.19
18.01
16.66
15.19
13.69
12.3
11.09
10.04
9.06
8.01
6.77
5.31
3.68
2.04
0.55
-0.66
-1.59
-2.33
-3.05
-3.9
-4.96
-6.24
-7.62
-9.04
-10.47
-11.99
-13.75
-15.89
-18.46
-21.49
-24.92
-28.72
-32.75
-36.79
-40.42
-43.03
-44.0
-42.82
-39.36
-33.85
-26.92
-19.31
-11.76
-4.82
1.16
6.01
9.73
12.38
14.12
15.14
15.69
15.98
16.18
16.41
16.69
16.97
17.13
17.11
16.88
16.54
16.27
16.27
16.64
17.35
18.19
18.9
19.21
18.98
18.24
17.15
