-35.17
-34.7
-34.46
-34.35
-34.35
-34.67
-35.63
-37.49
-40.35
-44.08
-48.41
-52.91
-57.03
-60.13
-61.55
-60.7
-57.25
-51.23
-43.01
-33.32
-23.1
-13.22
-4.29
3.53
10.6
17.57
25.07
33.36
42.15
50.66
57.89
62.82
64.75
63.32
58.56
50.87
40.95
29.66
17.9
6.37
-4.73
-15.51
-26.32
-37.45
-48.75
-59.59
-68.92
-75.58
-78.86
-78.88
-76.58
-73.41
-70.8
-69.45
-69.27
-69.48
-69.24
-68.09
-66.16
-63.88
-61.62
-59.31
-56.54
-52.74
-47.67
-41.47
-34.62
-27.67
-20.91
-14.4
-8.01
-1.66
4.52
10.18
14.9
18.38
20.53
21.51
21.65
21.29
20.66
19.85
18.81
17.46
15.73
13.7
11.53
9.5
7.82
6.6
5.76
5.13
4.6
4.25
4.35
5.26
7.3
10.69
15.53
21.87
29.67
38.78
48.71
58.7
67.74
74.98
79.94
82.64
83.47
82.96
81.5
79.38
76.72
73.66
70.28
66.5
61.94
55.83
47.22
35.4
20.25
2.57
-16.1
-33.82
-48.82
-59.97
-66.92
-69.99
-69.87
-67.35
-63.16
-58.02
-52.58
-47.37
-42.7
-38.57
-34.82
-31.24
-27.82
-24.76
-22.34
-20.68
-19.57
-18.45
-16.65
-13.6
-8.98
-2.84
4.49
12.39
20.03
26.54
31.19
33.72
34.47
34.28
34.1
34.55
35.63
36.69
36.88
35.58
32.69
28.59
23.87
19.04
14.36
9.89
5.61
1.49
-2.45
-6.18
-9.69
-13.0
-16.15
-19.22
-22.36
-25.77
-29.65
-34.09
-39.08
-44.54
-50.47
-56.91
-63.89
-71.2
-78.24
-84.12
-87.86
-88.83
-86.91
-82.49
-76.23
-68.72
-60.38
-51.44
-42.15
-32.94
-24.3
-16.73
-10.48
-5.6
-1.94
0.63
2.17
2.7
2.28
1.14
-0.34
-1.77
-2.87
-3.49
-3.51
-2.91
-1.59
0.47
3.2
6.45
9.97
13.56
17.03
20.31
23.29
25.83
27.76
28.91
29.19
28.62
27.29
25.38
23.06
20.57
18.15
15.99
14.18
12.69
11.3
9.82
8.06
5.95
3.53
0.92
-1.84
-4.74
-7.88
-11.39
-15.32
-19.54
-23.68
-27.13
-29.21
-29.34
-27.22
-22.94
-16.94
-9.9
-2.55
4.49
10.78
16.11
20.41
23.71
26.12
27.73
28.65
29.04
29.07
28.93
28.79
28.74
28.77
28.82
28.85
28.86
28.97
29.26
29.75
30.35
30.93
31.3
31.37
31.14
30.61
29.78
28.62
27.08
25.19
23.07
20.87
18.73
16.66
14.55
12.21
9.56
6.64
3.58
0.58
-2.27
-5.05
-7.93
-11.12
-14.72
-18.7
-22.94
-27.33
-31.79
-36.19
-40.31
-43.7
-45.78
-45.99
-43.99
-39.76
-33.64
-26.22
-18.15
-10.03
-2.34
4.58
10.51
15.39
19.23
22.12
24.19
25.5
26.12
26.11
25.59
24.73
23.75
22.82
22.12
21.75
21.74
22.09
22.73
23.51
24.18
24.53
24.33
23.5
22.12
20.32
18.29
16.18
14.08
12.06
10.08
8.08
5.93
3.47
0.65
-2.46
-5.61
-8.52
-10.95
-12.92
-14.67
-16.58
-19.08
-22.38
-26.45
-30.96
-35.38
-39.02
-41.2
-41.35
-39.18
-34.74
-28.49
-21.09
-13.34
-5.89
0.85
6.7
11.65
15.72
18.94
21.28
22.78
23.56
23.82
23.79
23.67
23.61
23.63
23.7
23.81
24.0
24.35
24.95
25.76
26.66
27.41
27.82
27.76
27.25
26.38
25.27
23.96
22.45
20.69
18.68
16.51
14.32
12.27
10.41
8.7
6.98
5.1
2.93
0.47
-2.18
-4.86
-7.43
-9.82
-12.09
-14.36
-16.81
-19.61
-22.86
-26.55
-30.48
-34.24
-37.23
-38.77
-38.27
-35.47
-30.49
-23.88
-16.36
-8.71
-1.53
4.85
10.31
14.9
18.69
21.73
24.02
25.56
26.37
26.53
26.23
25.64
24.93
24.21
23.52
22.9
22.39
22.1
22.11
22.47
23.07
23.7
24.14
24.18
23.73
22.85
21.63
20.22
18.73
17.18
15.6
13.97
12.3
10.57
8.78
6.89
4.89
2.8
0.62
-1.56
-3.71
-5.79
-7.83
-9.89
-12.02
-14.27
-16.64
-19.1
-21.59
-24.06
-26.48
-28.9
-31.46
-34.32
-37.59
-41.11
-44.47
-47.0
-48.04
-47.02
-43.76
-38.45
-31.58
-23.82
-15.8
-8.07
-1.01
5.13
10.22
14.2
17.07
18.87
19.71
19.79
19.32
18.55
17.67
16.83
16.13
15.58
15.21
15.06
15.16
15.51
16.06
16.74
17.4
17.9
18.1
17.95
17.45
16.66
15.72
14.7
13.66
12.59
11.49
10.4
9.41
8.66
8.19
7.94
7.74
7.38
6.74
5.84
4.87
3.99
3.32
2.76
2.13
1.26
0.07
-1.38
-2.95
-4.58
-6.31
-8.29
-10.67
-13.52
-16.86
-20.63
-24.75
-29.07
-33.23
-36.7
-38.75
-38.69
-36.14
-31.21
-24.49
-16.84
-9.16
-2.11
3.95
8.89
12.73
15.52
17.32
18.22
18.41
18.1
17.57
16.99
16.44
15.92
15.39
14.86
14.4
14.15
14.22
14.65
15.39
16.28
17.13
17.73
17.92
17.63
16.92
15.93
14.87
13.9
13.06
12.25
11.33
10.18
8.78
7.18
5.44
3.62
1.74
-0.16
-1.99
-3.61
-4.91
-5.91
-6.74
-7.61
-8.69
-10.03
-11.58
-13.24
-14.91
-16.54
-18.15
-19.83
-21.69
-23.85
-26.33
-29.0
-31.51
-33.3
-33.75
-32.29
-28.67
-22.99
-15.69
-7.46
0.93
8.83
15.73
21.44
25.96
29.47
32.19
34.35
36.04
37.3
38.06
38.3
38.0
37.26
36.23
35.09
34.01
33.07
32.22
31.27
29.95
27.92
24.96
20.98
16.17
11.01
6.1
2.12
-0.5
-1.75
-2.07
-2.23
-3.1
-5.27
-8.88
-13.65
-18.96
-24.14
-28.7
-32.35
-35.05
-36.89
-38.01
-38.52
-38.44
-37.79
-36.72
-35.59
-34.93
-35.38
-37.38
-40.99
-45.77
-50.94
-55.61
-59.04
-60.82
-60.91
-59.59
-57.3
-54.47
-51.38
-47.97
-43.82
-38.17
-30.26
-19.61
-6.38
8.58
23.89
37.96
49.47
57.8
63.23
66.83
69.92
73.46
77.58
81.55
84.34
85.28
84.42
82.45
80.08
77.68
75.14
72.28
69.25
66.62
65.07
64.78
65.14
64.99
63.3
59.7
54.7
49.37
44.76
41.45
39.38
38.1
36.98
35.53
33.49
30.8
27.54
23.89
20.04
16.19
12.48
9.09
6.16
3.77
1.83
0.12
-1.68
-3.84
-6.48
-9.5
-12.7
-15.92
-19.06
-22.15
-25.22
-28.28
-31.31
-34.32
-37.35
-40.51
-43.85
-47.34
-50.85
-54.16
-57.0
-59.09
-60.04
-59.36
-56.52
-51.15
-43.32
-33.66
-23.25
-13.32
-4.86
1.74
6.68
10.5
13.8
16.86
19.69
22.05
23.68
24.53
24.7
24.42
23.92
23.34
22.65
21.74
20.5
18.88
16.94
14.87
13.01
11.79
11.67
13.02
15.97
20.25
25.23
29.95
33.31
34.32
32.32
27.09
18.85
8.2
-4.03
-16.98
-29.93
-42.47
-54.47
-65.95
-76.9
-87.1
-96.12
-103.43
-108.59
-111.37
-111.88
-110.52
-107.89
-104.8
-102.1
-100.66
-101.16
-103.81
-108.18
-113.16
-117.16
-118.58
-116.28
-109.99
-100.44
-89.15
-77.94
-68.44
-61.52
-57.24
-54.91
-53.54
-52.45
-51.51
-51.28
-52.68
-56.58
-63.37
-72.81
-84.02
-95.54
-105.4
-111.17
-110.51
-101.87
-85.35
-63.12
-38.84
-16.43
1.61
15.01
25.56
35.85
47.72
61.52
76.23
90.42
103.27
114.84
125.58
135.55
143.97
149.32
150.24
146.22
138.05
127.61
117.04
107.74
99.82
92.12
82.89
70.75
55.56
38.81
23.19
11.65
6.33
7.81
14.94
25.3
36.0
44.52
49.29
50.0
47.43
43.03
38.4
34.72
32.48
31.51
30.98
29.65
26.1
19.06
7.96
-6.69
-23.07
-38.43
-49.74
-54.79
-52.87
-45.05
-33.59
-21.17
-10.08
-1.78
3.05
4.34
2.36
-2.28
-8.6
-15.29
-20.92
-24.24
-24.54
-21.97
-17.36
-12.06
-7.31
-3.9
-1.94
-0.98
-0.32
0.57
1.88
3.42
4.79
5.68
5.96
5.76
5.37
5.06
4.95
4.94
4.82
4.38
3.54
2.34
0.87
-0.83
-2.88
-5.49
-8.91
-13.21
-18.3
-23.83
-29.36
-34.45
-38.8
-42.3
-45.08
-47.49
-49.93
-52.77
-56.22
-60.17
-64.19
-67.63
-69.65
-69.52
-66.75
-61.23
-53.26
-43.55
-32.98
-22.41
-12.57
-3.9
3.38
9.29
13.93
17.48
20.1
21.94
23.13
23.81
24.08
24.09
23.95
23.79
23.68
23.68
23.82
24.1
24.53
25.09
25.69
26.23
26.63
26.84
26.84
26.66
26.29
25.73
24.97
24.02
22.93
21.78
20.58
19.36
18.09
16.74
15.27
13.65
11.91
10.11
8.33
6.66
5.16
3.85
2.62
1.32
-0.25
-2.28
-4.84
-7.85
-11.09
-14.32
-17.33
-20.1
-22.81
-25.72
-29.15
-33.29
-38.07
-43.13
-47.84
-51.37
-52.87
-51.7
-47.68
-41.17
-32.99
-24.17
-15.61
-7.85
-1.03
4.95
10.24
14.89
18.77
21.79
23.91
25.24
26.01
26.44
26.66
26.71
26.57
26.25
25.84
25.53
25.51
25.89
26.72
27.86
29.14
30.32
31.22
31.76
31.93
31.77
31.33
30.62
29.62
28.34
26.8
25.13
23.45
21.85
20.39
19.04
17.74
16.44
15.13
13.81
12.48
11.1
9.62
8.0
6.25
4.42
2.53
0.56
-1.59
-4.03
-6.83
-9.94
-13.21
-16.43
-19.46
-22.25
-24.91
-27.63
-30.64
-34.18
-38.32
-42.96
-47.65
-51.62
-53.95
-53.78
-50.61
-44.54
-36.21
-26.62
-16.8
-7.56
0.61
7.51
13.16
17.6
20.92
23.24
24.67
25.4
25.58
25.39
24.97
24.45
23.94
23.49
23.16
23.03
23.21
23.81
24.87
26.29
27.83
29.19
30.09
30.42
30.2
29.6
28.77
27.75
26.48
24.84
22.76
20.3
17.66
15.07
12.71
10.65
8.8
7.08
5.43
3.81
2.25
0.73
-0.84
-2.51
-4.35
-6.32
-8.33
-10.28
-12.14
-13.99
-16.0
-18.36
-21.2
-24.6
-28.52
-32.72
-36.77
-40.01
-41.68
-41.12
-38.02
-32.54
-25.33
-17.3
-9.33
-2.1
4.05
9.03
12.91
15.74
17.61
18.6
18.89
18.71
18.32
17.92
17.59
17.32
17.1
16.99
17.09
17.54
18.42
19.69
21.21
22.8
24.28
25.5
26.39
26.83
26.72
25.99
24.63
22.77
20.65
18.53
16.65
15.11
13.88
12.81
11.73
10.48
9.05
7.49
5.92
4.42
3.07
1.82
0.58
-0.72
-2.16
-3.77
-5.55
-7.54
-9.73
-12.06
-14.4
-16.63
-18.64
-20.49
-22.39
-24.68
-27.65
-31.41
-35.74
-40.12
-43.77
-45.91
-45.89
-43.43
-38.62
-31.92
-24.05
-15.8
-7.92
-0.97
4.75
9.19
12.53
15.03
16.94
18.4
19.43
20.0
20.08
19.75
19.16
18.51
17.99
17.71
17.76
18.16
18.88
19.84
20.87
21.78
22.43
22.72
22.67
22.38
21.89
21.26
20.5
19.56
18.47
17.25
15.95
14.6
13.28
12.01
10.8
9.64
8.49
7.31
6.09
4.82
3.57
2.36
1.2
0.05
-1.12
-2.39
-3.79
-5.34
-7.03
-8.8
-10.61
-12.4
-14.13
-15.84
-17.58
-19.48
-21.63
-24.14
-27.09
-30.5
-34.2
-37.78
-40.58
-41.79
-40.71
-37.0
-30.89
-23.13
-14.79
-6.91
-0.2
5.05
8.92
11.65
13.48
14.61
15.14
15.19
14.94
14.57
14.23
14.01
13.9
13.8
13.66
13.48
13.39
13.59
14.24
15.36
16.79
18.22
19.25
19.58
19.04
17.65
15.65
13.38
11.18
9.32
7.89
6.82
5.92
4.97
3.87
2.59
1.18
-0.3
-1.78
-3.22
-4.57
-5.84
-7.03
-8.18
-9.37
-10.65
-12.01
-13.44
-14.9
-16.39
-17.97
-19.74
-21.83
-24.35
-27.31
-30.54
-33.61
-35.88
-36.57
-35.15
-31.44
-25.81
-19.02
-11.96
-5.35
0.41
5.17
8.97
11.84
13.84
14.98
15.37
15.15
14.54
13.72
12.82
11.98
11.3
10.89
10.81
11.07
11.63
12.41
13.32
14.25
15.1
15.77
16.18
16.25
16.01
15.53
14.96
14.45
14.09
13.9
13.78
13.62
13.25
12.59
11.63
10.47
9.29
8.24
7.4
6.71
6.04
5.24
4.22
2.99
1.65
0.32
-0.93
-2.09
-3.25
-4.49
-5.96
-7.73
-9.81
-12.13
-14.52
-16.83
-18.95
-20.94
-23.02
-25.5
-28.65
-32.52
-36.88
-41.14
-44.5
-46.15
-45.47
-42.23
-36.72
-29.63
-21.9
-14.5
-8.14
-3.2
0.35
2.71
4.17
4.94
5.09
4.61
3.48
1.78
-0.26
-2.32
-4.07
-5.34
-6.21
-6.93
-7.78
-8.87
-10.06
-11.03
-11.38
-10.94
-9.87
-8.71
-8.27
-9.38
-12.69
-18.39
-25.98
-34.12
-40.66
-43.05
-39.01
-27.3
-8.3
15.88
41.87
65.77
84.18
94.97
97.6
93.19
83.99
72.74
61.9
53.12
46.98
43.12
40.66
38.6
36.32
33.62
30.74
28.0
25.55
23.28
20.81
18.02
15.09
12.73
11.73
12.52
14.84
17.93
21.11
24.32
28.3
34.06
42.17
52.05
62.1
70.32
75.18
76.17
73.82
69.27
63.62
57.71
51.98
46.61
41.65
37.03
32.62
28.28
24.0
19.99
16.58
14.03
12.36
11.3
10.35
8.95
6.68
3.37
-0.88
-5.75
-10.88
-15.93
-20.7
-25.14
-29.22
-32.98
-36.42
-39.53
-42.31
-44.79
-47.07
-49.2
-51.19
-52.93
-54.28
-55.13
-55.4
-55.17
-54.64
-54.02
-53.55
-53.44
-53.83
-54.72
-55.99
-57.35
-58.43
-58.94
-58.73
-57.89
-56.75
-55.77
-55.39
-55.95
-57.57
-60.09
-63.1
-65.95
-67.86
-68.07
-65.97
-61.34
-54.35
-45.59
-35.91
-26.22
-17.29
-9.64
-3.54
0.99
4.04
5.87
6.78
7.13
7.24
7.37
7.55
7.7
7.63
7.24
6.58
5.91
5.57
5.83
6.78
8.24
9.95
11.57
12.86
13.68
13.94
13.66
12.86
11.7
10.37
9.09
7.97
7.0
6.0
4.77
3.21
1.44
-0.28
-1.64
-2.45
-2.75
-2.75
-2.74
-2.94
-3.42
-4.13
-4.95
-5.82
-6.75
-7.81
-9.14
-10.84
-12.92
-15.31
-17.83
-20.21
-22.21
-23.74
-24.89
-25.96
-27.35
-29.42
-32.29
-35.81
-39.52
-42.75
-44.77
-44.92
-42.76
-38.19
-31.49
-23.32
-14.54
-6.05
1.5
7.78
12.83
16.88
20.12
22.62
24.33
25.16
25.1
24.31
23.01
21.53
20.12
19.0
18.3
18.14
18.53
19.4
20.56
21.75
22.69
23.21
23.22
22.78
22.0
21.04
19.99
18.93
17.87
16.76
15.55
14.23
12.82
11.4
10.04
8.83
7.8
6.99
6.37
5.88
5.48
5.06
4.56
3.87
2.94
1.7
0.1
-1.87
-4.19
-6.77
-9.45
-12.06
-14.5
-16.83
-19.26
-22.07
-25.51
-29.62
-34.14
-38.54
-42.08
-43.96
-43.56
-40.59
-35.22
-27.98
-19.7
-11.22
-3.25
3.79
9.73
14.57
18.35
21.19
23.17
24.42
25.06
25.23
25.04
24.58
23.92
23.13
22.32
21.59
21.05
20.76
20.75
20.94
21.17
21.25
20.98
20.22
18.95
17.23
15.21
13.05
10.98
9.2
7.87
7.04
6.67
6.58
6.57
6.49
6.27
5.94
5.55
5.1
4.55
3.82
2.9
1.8
0.6
-0.57
-1.61
-2.44
-3.03
-3.43
-3.76
-4.2
-4.93
-6.05
-7.6
-9.5
-11.59
-13.7
-15.67
-17.44
-19.03
-20.66
-22.57
-25.05
-28.14
-31.57
-34.65
-36.47
-36.22
-33.43
-28.2
-21.08
-12.91
-4.49
3.55
10.83
17.18
22.45
26.59
29.57
31.57
32.88
33.93
35.05
36.35
37.7
38.72
39.11
38.77
38.01
37.4
37.57
39.05
41.97
46.13
51.04
56.15
60.88
64.67
67.03
67.58
66.18
63.0
58.57
53.64
48.87
44.59
40.74
36.9
32.63
27.68
22.08
16.03
9.74
3.26
-3.41
-10.3
-17.32
-24.24
-30.88
-37.15
-43.13
-48.99
-54.87
-60.82
-66.79
-72.65
-78.21
-83.21
-87.27
-89.93
-90.78
-89.65
-86.75
-82.67
-78.23
-74.28
-71.39
-69.81
-69.28
-69.23
-68.78
-67.02
-63.16
-56.76
-47.85
-36.99
-25.09
-13.19
-2.17
7.44
15.5
22.14
27.59
31.92
35.1
37.04
37.73
37.5
36.93
36.81
37.91
40.82
45.73
52.34
59.86
67.09
72.65
75.31
74.32
69.64
61.89
52.16
41.59
31.08
21.22
12.32
4.56
-1.92
-7.15
-11.36
-15.08
-18.93
-23.32
-28.21
-33.04
-37.07
-39.73
-41.06
-41.78
-43.0
-45.71
-50.22
-56.0
-61.88
-66.7
-69.87
-71.67
-73.17
-75.62
-79.83
-85.92
-93.33
-101.38
-109.75
-118.38
-126.93
-134.08
-137.56
-135.0
-125.19
-108.83
-88.09
-65.18
-41.03
-15.09
13.52
44.47
75.26
101.9
120.87
130.95
133.82
133.19
132.95
135.46
140.87
147.49
152.81
154.6
151.51
143.39
131.2
116.41
100.38
83.67
66.01
47.06
27.77
10.99
0.94
1.24
12.54
31.44
51.61
66.61
73.05
71.9
67.42
64.28
64.64
67.03
67.67
63.15
52.72
38.72
25.18
15.55
11.13
10.86
12.46
14.03
14.99
16.06
18.3
22.0
26.04
28.33
26.88
21.06
12.31
3.66
-1.47
-0.83
5.66
16.01
27.13
36.08
41.12
41.91
39.14
33.81
26.57
17.57
6.53
-6.83
-22.3
-38.93
-55.01
-68.52
-77.77
-81.89
-81.08
-76.4
-69.33
-61.3
-53.33
-46.08
-39.9
-35.05
-31.75
-30.19
-30.36
-31.98
-34.51
-37.3
-39.73
-41.48
-42.48
-42.92
-43.01
-42.84
-42.24
-40.89
-38.52
-35.03
-30.64
-25.8
-21.07
-16.88
-13.51
-11.05
-9.43
-8.55
-8.26
-8.39
-8.72
-9.07
-9.23
-9.11
-8.67
-7.9
-6.84
-5.54
-4.07
-2.53
-1.04
0.23
1.11
1.45
1.13
0.16
-1.35
-3.16
-4.96
-6.51
-7.71
-8.67
-9.68
-11.08
-13.18
-16.2
-20.15
-24.85
-29.85
-34.45
-37.76
-38.94
-37.41
-33.1
-26.44
-18.26
-9.54
-1.2
6.08
11.89
16.1
18.79
20.18
20.57
20.25
19.46
18.36
17.02
15.48
13.83
12.18
10.64
9.37
8.49
8.13
8.33
9.08
10.25
11.62
12.9
13.83
14.23
13.99
13.2
12.03
10.7
9.39
8.21
7.15
6.13
5.1
4.07
3.15
2.5
2.19
2.22
2.38
2.48
2.32
1.86
1.2
0.45
-0.29
-1.05
-1.94
-3.06
-4.44
-6.04
-7.76
-9.53
-11.29
-13.02
-14.71
-16.33
-17.95
-19.71
-21.88
-24.72
-28.25
-32.15
-35.75
-38.12
-38.44
-36.26
-31.66
-25.22
-17.83
-10.41
-3.67
1.98
6.44
9.84
12.42
14.4
15.87
16.86
17.29
17.18
16.63
15.84
15.04
14.43
14.07
13.98
14.12
14.46
14.99
15.68
16.46
17.2
17.77
18.05
17.97
17.52
16.69
15.53
14.12
12.6
11.14
9.85
8.78
7.87
6.99
6.07
5.11
4.22
3.51
3.04
2.72
2.39
1.86
1.04
-0.03
-1.2
-2.34
-3.4
-4.5
-5.81
-7.51
-9.65
-12.07
-14.54
-16.75
-18.57
-20.03
-21.33
-22.74
-24.48
-26.69
-29.38
-32.54
-36.04
-39.63
-42.81
-44.93
-45.22
-43.13
-38.48
-31.57
-23.13
-14.03
-5.07
3.15
10.3
16.24
20.88
24.18
26.11
26.76
26.34
25.15
23.57
21.9
20.32
18.91
17.64
16.54
15.65
15.05
14.84
15.04
15.58
16.31
17.09
17.74
18.22
18.51
18.63
18.63
18.47
18.11
17.52
16.7
15.68
14.6
13.51
12.45
11.4
10.33
9.21
8.09
6.96
5.78
4.43
2.75
0.62
-1.97
-4.95
-8.13
-11.34
-14.42
-17.25
-19.75
-21.96
-23.91
-25.73
-27.55
-29.52
-31.77
-34.41
-37.5
-40.93
-44.37
-47.18
-48.54
-47.69
-44.17
-38.06
-29.98
-20.9
-11.83
-3.6
3.3
8.7
12.65
15.37
17.08
18.04
18.42
18.38
18.04
17.53
16.96
16.48
16.14
16.0
16.08
16.41
17.02
17.95
19.18
20.61
22.01
23.11
23.68
23.6
22.89
21.72
20.31
18.89
17.6
16.48
15.49
14.58
13.7
12.85
12.05
11.3
10.59
9.89
9.12
8.24
7.17
5.9
4.47
2.96
1.53
0.31
-0.68
-1.55
-2.54
-3.92
-5.82
-8.21
-10.95
-13.81
-16.64
-19.35
-21.89
-24.22
-26.31
-28.18
-30.02
-32.16
-34.95
-38.51
-42.54
-46.23
-48.51
-48.41
-45.41
-39.67
-31.9
-23.08
-14.22
-6.08
0.88
6.43
10.51
13.2
14.62
14.98
14.56
13.63
12.5
11.42
10.56
10.0
9.76
9.77
9.98
10.42
11.13
12.17
13.5
14.96
16.29
17.23
17.61
17.37
16.62
15.52
14.29
13.13
12.12
11.27
10.52
9.81
9.13
8.51
8.01
7.56
7.05
6.26
5.05
3.42
1.52
-0.4
-2.12
-3.55
-4.76
-5.91
-7.21
-8.81
-10.71
-12.86
-15.11
-17.36
-19.56
-21.77
-24.1
-26.74
-29.8
-33.27
-37.03
-40.75
-43.96
-46.07
-46.48
-44.73
-40.65
-34.48
-26.79
-18.4
-10.15
-2.68
3.61
8.63
12.42
15.11
16.83
17.68
17.8
17.36
16.57
15.63
14.72
13.97
13.42
13.09
13.03
13.32
14.01
15.11
16.51
17.99
19.28
20.15
20.44
20.12
19.23
17.93
16.42
14.96
13.84
13.19
