-15.87
-17.13
-18.63
-20.56
-23.04
-26.16
-29.96
-34.39
-39.26
-44.1
-48.16
-50.54
-50.43
-47.36
-41.4
-33.2
-23.78
-14.27
-5.58
1.72
7.47
11.8
14.95
17.12
18.46
19.06
19.01
18.44
17.53
16.5
15.54
14.82
14.47
14.54
15.08
16.02
17.23
18.53
19.68
20.51
20.94
20.98
20.69
20.12
19.29
18.24
17.0
15.67
14.34
13.08
11.88
10.69
9.44
8.07
6.59
5.01
3.35
1.65
-0.08
-1.77
-3.35
-4.73
-5.87
-6.78
-7.51
-8.19
-8.97
-10.02
-11.48
-13.4
-15.64
-17.98
-20.08
-21.74
-22.95
-23.94
-25.13
-26.96
-29.8
-33.78
-38.81
-44.46
-50.05
-54.65
-57.25
-57.02
-53.59
-47.19
-38.62
-29.02
-19.51
-10.93
-3.69
2.14
6.73
10.31
13.08
15.2
16.78
17.92
18.66
19.04
19.09
18.89
18.56
18.28
18.24
18.53
19.22
20.24
21.48
22.82
24.15
25.34
26.29
26.86
26.96
26.54
25.64
24.35
22.85
21.28
19.77
18.37
17.11
16.01
15.05
14.22
13.44
12.61
11.65
10.53
9.25
7.87
6.45
5.01
3.51
1.88
0.07
-1.89
-3.95
-5.96
-7.81
-9.45
-11.0
-12.7
-14.89
-17.92
-21.96
-26.9
-32.21
-37.0
-40.21
-40.91
-38.6
-33.38
-25.96
-17.37
-8.73
-0.87
5.76
11.09
15.26
18.46
20.75
22.15
22.6
22.13
20.88
19.11
17.1
15.16
13.52
12.36
11.78
11.85
12.5
13.58
14.84
16.0
16.83
17.2
17.12
16.7
16.08
15.38
14.71
14.12
13.6
13.14
12.64
12.03
11.26
10.33
9.25
8.07
6.81
5.47
4.08
2.68
1.32
0.05
-1.16
-2.38
-3.7
-5.25
-7.07
-9.14
-11.36
-13.64
-15.89
-18.06
-20.21
-22.45
-24.95
-27.89
-31.4
-35.52
-40.16
-45.02
-49.58
-53.09
-54.73
-53.78
-49.91
-43.31
-34.73
-25.24
-15.94
-7.71
-0.98
4.21
8.09
10.95
13.01
14.42
15.26
15.63
15.66
15.51
15.27
15.04
14.82
14.64
14.54
14.6
14.92
15.5
16.31
17.19
17.96
18.47
18.65
18.5
18.1
17.49
16.71
15.76
14.63
13.36
12.0
10.61
9.26
7.95
6.68
5.46
4.32
3.29
2.43
1.72
1.08
0.45
-0.29
-1.16
-2.14
-3.23
-4.41
-5.65
-6.94
-8.15
-9.18
-9.92
-10.4
-10.84
-11.55
-12.92
-15.22
-18.54
-22.74
-27.51
-32.35
-36.7
-39.94
-41.45
-40.74
-37.57
-32.0
-24.5
-15.81
-6.87
1.5
8.7
14.41
18.7
21.75
23.81
25.09
25.68
25.66
25.15
24.3
23.32
22.38
21.58
20.93
20.43
20.09
20.0
20.26
20.91
21.88
22.95
23.81
24.17
23.84
22.8
21.25
19.43
17.65
16.09
14.78
13.66
12.57
11.37
10.02
8.57
7.17
6.02
5.21
4.69
4.24
3.53
2.27
0.28
-2.37
-5.41
-8.5
-11.34
-13.78
-15.86
-17.81
-19.96
-22.71
-26.34
-30.98
-36.39
-41.98
-46.85
-49.94
-50.36
-47.65
-41.93
-33.9
-24.64
-15.28
-6.77
0.35
5.95
10.16
13.23
15.37
16.72
17.39
17.43
17.0
16.24
15.34
14.46
13.75
13.34
13.37
13.93
15.03
16.54
18.26
19.96
21.39
22.39
22.87
22.77
22.11
20.95
19.44
17.71
15.92
14.21
12.66
11.3
10.13
9.17
8.39
7.77
7.22
6.63
5.92
4.98
3.85
2.52
1.08
-0.43
-1.96
-3.52
-5.16
-6.93
-8.83
-10.82
-12.8
-14.65
-16.34
-17.91
-19.52
-21.36
-23.65
-26.58
-30.29
-34.77
-39.77
-44.79
-49.01
-51.52
-51.52
-48.63
-43.03
-35.42
-26.73
-17.89
-9.61
-2.34
3.72
8.48
11.98
14.24
15.42
15.69
15.29
14.46
13.4
12.34
11.42
10.77
10.47
10.52
10.86
11.46
12.25
13.19
14.21
15.21
16.09
16.75
17.13
17.19
16.92
16.29
15.32
14.05
12.61
11.12
9.72
8.47
7.39
6.45
5.64
4.95
4.38
3.93
3.57
3.31
3.14
3.06
3.05
2.99
2.7
1.95
0.58
-1.44
-3.96
-6.71
-9.35
-11.61
-13.41
-14.85
-16.19
-17.78
-19.92
-22.78
-26.27
-30.02
-33.4
-35.61
-35.91
-33.82
-29.3
-22.74
-14.92
-6.74
0.93
7.5
12.67
16.42
18.97
20.63
21.71
22.41
22.79
22.76
22.27
21.3
20.02
18.7
17.64
17.07
17.09
17.71
18.81
20.23
21.77
23.21
24.32
24.93
24.91
24.28
23.13
21.6
19.85
18.0
16.19
14.45
12.81
11.23
9.7
8.16
6.62
5.11
3.67
2.35
1.17
0.07
-1.07
-2.46
-4.26
-6.61
-9.45
-12.56
-15.59
-18.24
-20.33
-21.92
-23.21
-24.51
-26.09
-28.15
-30.79
-34.03
-37.66
-41.27
-44.18
-45.56
-44.66
-41.12
-35.11
-27.32
-18.74
-10.35
-2.91
3.19
7.88
11.32
13.77
15.47
16.61
17.29
17.55
17.42
16.96
16.31
15.62
15.09
14.81
14.84
15.15
15.68
16.39
17.16
17.87
18.32
18.38
17.99
17.21
16.16
15.02
13.88
12.76
11.67
10.58
9.5
8.46
7.49
6.64
5.95
5.41
4.96
4.49
3.84
2.9
1.62
0.08
-1.52
-3.03
-4.41
-5.75
-7.24
-9.04
-11.22
-13.68
-16.24
-18.7
-20.94
-22.94
-24.76
-26.56
-28.56
-31.01
-34.12
-37.92
-42.11
-46.04
-48.78
-49.45
-47.4
-42.56
-35.41
-26.86
-17.99
-9.77
-2.81
2.64
6.68
9.57
11.62
13.04
13.95
14.41
14.47
14.23
13.88
13.61
13.59
13.92
14.63
15.66
16.93
18.32
19.74
21.06
22.19
23.05
23.53
23.62
23.3
22.6
21.6
20.39
19.03
17.62
16.22
14.89
13.64
12.5
11.47
10.53
9.7
8.99
8.42
7.95
7.52
7.01
6.32
5.33
3.99
2.31
0.36
-1.73
-3.75
-5.57
-7.15
-8.61
-10.13
-11.96
-14.25
-17.05
-20.36
-24.04
-27.89
-31.55
-34.42
-35.83
-35.09
-31.85
-26.23
-18.86
-10.73
-2.84
4.03
9.52
13.63
16.58
18.55
19.63
19.84
19.18
17.8
16.02
14.23
12.76
11.8
11.31
11.16
11.24
11.52
12.11
13.08
14.41
15.95
17.36
18.35
18.71
18.45
17.68
16.6
15.36
14.02
12.62
11.15
9.68
8.27
6.99
5.81
4.69
3.59
2.48
1.44
0.52
-0.25
-0.96
-1.69
-2.57
-3.63
-4.83
-6.1
-7.44
-8.88
-10.5
-12.3
-14.2
-16.01
-17.54
-18.76
-19.78
-20.9
-22.47
-24.77
-27.93
-31.86
-36.32
-40.85
-44.85
-47.56
-48.23
-46.29
-41.58
-34.51
-25.95
-17.0
-8.64
-1.46
4.38
9.03
12.72
15.55
17.49
18.49
18.58
17.91
16.79
15.54
14.43
13.6
13.13
13.03
13.26
13.74
14.38
15.07
15.78
16.47
17.11
17.61
17.8
17.55
16.8
15.65
14.3
12.99
11.83
10.82
9.81
8.65
7.29
5.78
4.28
2.91
1.7
0.61
-0.47
-1.61
-2.81
-4.05
-5.3
-6.54
-7.77
-8.92
-9.89
-10.59
-11.0
-11.23
-11.49
-12.0
-12.88
-14.11
-15.52
-16.92
-18.17
-19.33
-20.63
-22.49
-25.3
-29.34
-34.58
-40.6
-46.58
-51.48
-54.32
-54.44
-51.85
-47.16
-41.39
-35.69
-30.88
-27.33
-24.95
-23.45
-22.62
-22.56
-23.59
-25.97
-29.56
-33.69
-37.3
-39.42
-39.73
-38.83
-38.12
-39.23
-43.28
-50.37
-59.46
-68.89
-76.97
-82.49
-84.95
-84.4
-81.28
-76.16
-69.57
-61.75
-52.38
-40.29
-23.49
-0.04
30.58
66.05
100.9
127.92
140.96
138.0
122.66
103.18
89.09
87.14
98.4
118.2
138.49
151.51
152.66
141.46
120.6
94.37
67.4
43.9
27.15
18.48
16.26
15.72
10.17
-6.15
-35.12
-73.3
-113.11
-146.21
-166.89
-173.53
-167.82
-152.35
-128.93
-98.52
-62.68
-25.14
8.16
30.95
39.31
33.55
18.03
-0.74
-16.79
-26.57
-29.42
-26.69
-20.46
-12.57
-4.12
4.42
12.88
21.08
28.64
35.06
39.94
43.28
45.52
47.48
49.99
53.45
57.56
61.43
63.97
64.51
63.1
60.44
57.56
55.29
53.9
53.14
52.37
51.0
48.74
45.7
42.29
39.08
36.47
34.52
32.88
30.86
27.7
22.91
16.6
9.52
2.93
-1.77
-3.58
-2.3
1.21
5.11
7.03
4.75
-2.96
-15.74
-31.58
-47.29
-59.67
-66.54
-67.45
-63.57
-56.96
-49.61
-42.76
-36.88
-32.14
-28.94
-28.22
-31.2
-38.84
-51.24
-67.19
-84.2
-98.91
-107.78
-107.87
-97.35
-75.9
-44.8
-6.87
33.7
71.94
103.01
123.32
131.47
128.69
118.36
104.91
92.38
83.36
78.63
77.5
78.54
80.29
81.59
81.61
79.78
75.87
70.03
62.93
55.65
49.47
45.4
43.81
44.28
45.7
46.78
46.57
44.8
41.85
38.5
35.43
32.98
31.1
29.5
27.87
26.05
24.01
21.73
19.16
16.17
12.65
8.53
3.86
-1.28
-6.71
-12.21
-17.44
-21.88
-25.0
-26.34
-25.78
-23.57
-20.34
-16.9
-14.02
-12.19
-11.59
-12.05
-13.28
-14.82
-16.24
-17.18
-17.34
-16.55
-14.81
-12.23
-9.04
-5.57
-2.15
0.85
3.15
4.6
5.26
5.36
5.18
4.9
4.55
3.97
2.91
1.23
-1.01
-3.55
-6.04
-8.15
-9.71
-10.66
-11.09
-11.11
-10.79
-10.23
-9.55
-8.91
-8.53
-8.58
-9.15
-10.19
-11.52
-12.86
-13.97
-14.71
-15.1
-15.34
-15.66
-16.32
-17.49
-19.2
-21.41
-23.96
-26.63
-29.11
-31.0
-31.87
-31.39
-29.44
-26.14
-21.87
-17.09
-12.3
-7.83
-3.9
-0.57
2.16
4.32
5.94
7.01
7.56
7.59
7.16
6.35
5.32
4.23
3.25
2.52
2.12
2.11
2.5
3.23
4.19
5.21
6.03
6.46
6.41
5.89
5.09
4.22
3.47
2.94
2.59
2.32
1.97
1.42
0.64
-0.32
-1.36
-2.36
-3.26
-4.05
-4.79
-5.51
-6.24
-6.99
-7.76
-8.59
-9.51
-10.59
-11.86
-13.29
-14.8
-16.31
-17.79
-19.26
-20.76
-22.37
-24.14
-26.13
-28.34
-30.73
-33.02
-34.79
-35.46
-34.56
-31.95
-27.87
-22.9
-17.7
-12.83
-8.53
-4.82
-1.63
1.09
3.31
4.95
6.01
6.6
6.89
7.05
7.15
7.17
7.04
6.74
6.29
5.83
5.52
5.53
5.93
6.67
7.67
8.75
9.8
10.76
11.64
12.48
13.34
14.22
15.03
15.64
15.88
15.58
14.67
13.16
11.15
8.82
6.36
3.98
1.85
0.1
-1.16
-1.94
-2.34
-2.55
-2.84
-3.45
-4.57
-6.24
-8.32
-10.57
-12.71
-14.48
-15.79
-16.73
-17.56
-18.63
-20.2
-22.43
-25.25
-28.39
-31.37
-33.6
-34.51
-33.69
-31.06
-26.92
-21.83
-16.5
-11.52
-7.23
-3.69
-0.79
1.59
3.51
4.98
6.0
6.65
7.02
7.23
7.32
7.31
7.23
7.18
7.3
7.76
8.6
9.74
11.03
12.33
13.52
14.54
15.31
15.74
15.71
15.17
14.17
12.9
11.55
10.28
9.1
7.97
6.78
5.52
4.22
2.98
1.82
0.74
-0.28
-1.3
-2.32
-3.34
-4.38
-5.48
-6.69
-8.02
-9.42
-10.79
-12.09
-13.32
-14.65
-16.27
-18.35
-20.96
-24.02
-27.36
-30.71
-33.69
-35.86
-36.74
-35.94
-33.35
-29.19
-24.01
-18.46
-13.13
-8.37
-4.25
-0.69
2.45
5.19
7.5
9.33
10.67
11.58
12.18
12.58
12.83
12.99
13.1
13.22
13.43
13.82
14.38
15.1
15.9
16.69
17.42
18.01
18.38
18.48
18.31
17.9
17.33
16.74
16.17
15.62
15.01
14.26
13.33
12.23
11.05
9.85
8.66
7.48
6.27
5.06
3.91
2.91
2.08
1.39
0.73
-0.08
-1.18
-2.66
-4.48
-6.54
-8.69
-10.81
-12.81
-14.7
-16.55
-18.43
-20.46
-22.73
-25.29
-28.11
-31.02
-33.75
-35.88
-36.97
-36.66
-34.74
-31.27
-26.55
-21.02
-15.18
-9.49
-4.28
0.26
4.04
7.08
9.52
11.51
13.24
14.8
16.25
17.5
18.47
19.03
19.18
18.99
18.59
18.18
17.94
18.0
18.42
19.2
20.23
21.36
22.35
22.96
23.04
22.48
21.28
19.56
17.5
15.32
13.21
11.31
9.71
8.47
7.61
7.05
6.63
6.11
5.24
3.86
2.03
-0.01
-1.88
-3.27
-4.11
-4.55
-4.99
-5.88
-7.49
-9.86
-12.74
-15.73
-18.45
-20.69
-22.59
-24.52
-27.01
-30.51
-35.22
-41.01
-47.46
-54.04
-60.21
-65.46
-69.44
-72.05
-73.59
-74.85
-76.83
-80.29
-85.32
-91.04
-95.87
-98.11
-96.67
-91.39
-83.11
-73.1
-62.52
-52.04
-41.71
-31.21
-20.11
-8.22
4.29
16.8
28.4
38.04
44.87
48.5
49.06
47.15
43.58
39.21
34.86
31.19
28.71
27.79
28.8
32.34
39.35
50.98
68.16
91.07
118.78
149.15
179.46
206.97
229.49
245.55
254.2
255.01
248.15
234.76
217.13
198.32
181.31
167.89
158.06
150.21
142.09
131.84
118.82
103.54
87.17
70.77
54.96
39.96
25.94
13.2
2.15
-7.09
-14.88
-21.99
-29.32
-37.43
-46.31
-55.46
-64.22
-72.1
-78.96
-84.92
-90.27
-95.14
-99.51
-103.19
-105.91
-107.48
-107.88
-107.26
-105.93
-104.21
-102.29
-100.14
-97.61
-94.52
-90.8
-86.55
-81.99
-77.29
-72.57
-67.82
-63.08
-58.44
-54.11
-50.27
-47.03
-44.24
-41.63
-38.85
-35.66
-32.04
-28.16
-24.3
-20.69
-17.44
-14.52
-11.81
-9.22
-6.71
-4.35
-2.26
-0.55
0.73
1.64
2.24
2.63
2.82
2.77
2.36
1.5
0.15
-1.61
-3.61
-5.64
-7.59
-9.48
-11.43
-13.61
-16.1
-18.86
-21.73
-24.44
-26.72
-28.25
-28.71
-27.8
-25.32
-21.31
-16.06
-10.12
-4.17
1.18
5.52
8.67
10.61
11.42
11.22
10.2
8.58
6.68
4.83
3.3
2.21
1.56
1.25
1.14
1.19
1.41
1.89
2.71
3.91
5.51
7.42
9.53
11.68
13.67
15.34
16.58
17.37
17.76
17.82
17.59
17.12
16.4
15.49
14.48
13.45
12.47
11.48
10.38
9.1
7.6
5.95
4.23
2.49
0.68
-1.29
-3.51
-5.93
-8.36
-10.56
-12.34
-13.7
-14.84
-16.15
-18.0
-20.64
-24.04
-27.89
-31.67
-34.75
-36.53
-36.56
-34.65
-30.86
-25.55
-19.26
-12.62
-6.25
-0.62
3.97
7.44
9.85
11.38
12.22
12.51
12.35
11.86
11.17
10.43
9.8
9.35
9.06
8.86
8.68
8.53
8.53
8.76
9.26
9.96
10.71
11.35
11.78
11.94
11.83
11.47
10.88
10.14
9.27
8.32
7.25
6.03
4.65
3.19
1.79
0.6
-0.28
-0.85
-1.19
-1.43
-1.64
-1.87
-2.14
-2.43
-2.78
-3.2
-3.75
-4.48
-5.42
-6.64
-8.13
-9.82
-11.59
-13.31
-14.89
-16.32
-17.65
-18.97
-20.41
-22.14
-24.32
-27.03
-30.14
-33.22
-35.59
-36.51
-35.42
-32.2
-27.18
-21.07
-14.61
-8.41
-2.79
2.18
6.48
10.05
12.79
14.57
15.43
15.54
15.23
14.83
14.57
14.46
14.41
14.28
14.06
13.88
13.95
14.44
15.37
16.59
17.86
18.93
19.71
20.27
20.71
21.1
21.43
21.6
21.48
20.98
20.14
19.08
17.95
16.9
16.03
15.45
15.2
15.31
15.7
16.24
16.77
17.15
17.41
17.63
17.96
18.46
19.09
19.68
19.98
19.78
18.94
17.43
15.34
12.79
9.98
7.11
4.29
1.55
-1.32
-4.63
-8.79
-14.07
-20.41
-27.34
-34.02
-39.49
-42.92
-43.91
-42.56
-39.47
-35.42
-31.14
-27.07
-23.33
-19.83
-16.46
-13.2
-10.21
-7.74
-5.94
-4.81
-4.15
-3.72
-3.31
-2.86
-2.41
-2.03
-1.66
-1.16
-0.31
1.03
2.81
4.81
6.68
8.11
8.92
9.11
8.85
8.33
7.73
7.19
6.73
6.33
5.95
5.49
4.89
4.13
3.23
2.29
1.44
0.76
0.26
-0.13
-0.51
-0.98
-1.6
-2.36
-3.23
-4.13
-4.95
-5.59
-6.0
-6.19
-6.29
-6.49
-7.0
-7.89
-9.09
-10.42
-11.71
-12.83
-13.81
-14.75
-15.77
-16.96
-18.37
-20.04
-21.88
-23.67
-24.94
-25.12
-23.67
-20.32
-15.25
-9.02
-2.41
3.89
9.43
14.05
17.77
20.68
22.83
24.2
24.78
24.58
23.74
22.45
20.99
19.62
18.48
17.58
16.8
16.05
15.31
14.73
14.48
14.72
15.41
16.31
17.16
17.7
17.84
17.61
17.09
16.39
15.58
14.74
13.9
13.11
12.3
11.44
10.48
9.5
8.65
8.1
7.96
8.15
8.49
8.76
8.86
8.84
8.88
9.13
9.64
10.31
10.94
11.34
11.34
10.79
9.57
7.53
4.57
0.65
-4.14
-9.57
-15.39
-21.36
-27.34
-33.25
-38.96
-44.26
-48.81
-52.19
-54.03
-54.1
-52.36
-49.04
-44.53
-39.37
-34.07
-29.11
-24.91
-21.72
-19.79
-19.18
-19.86
-21.56
-23.87
-26.37
-28.78
-31.11
-33.56
-36.29
-39.08
-41.33
-42.15
-40.81
-37.14
-31.56
-25.01
-18.54
-13.02
-9.1
-7.29
-8.05
-11.62
-17.66
-25.05
-32.1
-37.19
-39.41
-38.85
-36.22
-32.32
-27.56
-21.91
-15.28
-7.83
-0.02
7.65
14.86
21.5
27.57
32.93
37.41
40.99
44.02
47.12
50.78
55.07
59.48
63.27
65.85
67.07
67.14
66.42
65.21
63.62
61.69
59.45
56.97
54.26
51.28
47.8
43.48
37.91
30.82
22.26
12.91
3.96
-3.16
-7.33
-8.25
-6.62
-3.82
-1.34
-0.26
-0.96
-3.17
-6.37
-10.1
-14.13
-18.42
-22.96
-27.69
-32.38
-36.72
-40.37
-43.07
-44.68
-45.16
-44.54
-42.85
-40.14
-36.49
-32.03
-27.02
-21.74
-16.44
-11.27
-6.26
-1.3
3.69
8.74
13.81
18.79
23.56
28.04
32.16
35.91
39.32
42.54
45.8
49.29
53.07
56.94
60.52
63.44
65.52
66.9
68.0
69.26
70.86
72.53
73.5
72.69
68.98
61.49
49.91
34.76
17.39
-0.16
-15.65
-27.21
-33.85
-35.73
-34.15
-31.23
-29.32
-30.42
-35.6
-44.62
-56.0
-67.36
-76.12
-80.14
-78.3
-70.72
-58.51
-43.54
-27.86
-13.42
-1.77
6.1
9.82
9.64
6.37
1.3
-4.06
-8.2
-9.98
-8.92
-5.38
-0.49
4.27
7.56
8.67
7.68
5.31
2.51
0.14
-1.15
-0.84
1.6
6.69
14.64
25.08
36.83
48.22
57.5
63.37
65.28
63.31
57.95
49.94
40.17
29.88
20.52
13.5
9.73
9.24
11.1
13.83
15.96
16.53
15.32
12.72
9.33
5.6
1.58
-3.1
-8.95
-16.18
-24.43
-32.58
-39.05
-42.39
-41.85
-37.77
-31.5
-24.95
-19.99
-17.99
-19.57
-24.57
-32.17
-41.05
-49.52
-55.9
-58.8
-57.52
-52.18
-43.63
-33.17
-22.2
-11.87
-2.94
4.33
10.16
15.08
19.7
24.51
29.58
34.62
39.04
42.19
43.55
42.86
40.13
35.48
29.25
22.09
15.06
9.65
7.44
9.72
17.09
29.31
45.27
63.17
80.82
95.79
105.73
108.66
103.45
90.13
69.99
45.28
18.66
-7.43
-31.22
-51.56
-67.86
-79.82
-87.49
-91.3
-92.02
-90.72
-88.49
-86.34
-85.04
-85.27
-87.6
-92.42
-99.75
-109.03
-119.21
-129.18
-138.4
-147.22
-156.77
-168.05
-180.82
-192.7
-199.6
-197.25
-183.36
-159.08
-129.03
-99.59
-76.13
-60.95
-52.78
-48.09
-43.28
-36.41
-27.5
-17.67
-7.67
2.88
15.22
30.45
48.49
67.76
85.69
99.73
108.42
111.81
111.17
107.99
103.1
96.38
87.35
76.25
64.84
56.11
53.03
56.82
65.96
76.72
84.89
87.81
85.31
79.2
71.73
64.09
56.13
47.2
37.57
28.87
23.48
22.94
26.68
31.9
34.98
33.43
27.25
19.17
13.4
13.85
22.53
38.83
59.69
80.5
96.23
102.66
97.55
81.3
56.96
29.36
3.46
-17.13
-31.05
-38.95
-42.48
-43.14
-41.65
-38.14
-32.72
-26.12
-19.66
-14.77
-12.34
-12.2
-13.28
-14.27
-14.28
-13.38
-12.55
-13.13
-16.12
-21.59
-28.56
-35.35
-40.36
-42.6
-42.17
-40.04
-37.56
-35.81
-35.05
-34.67
-33.5
-30.49
-25.22
-18.17
-10.52
-3.57
1.82
5.48
7.95
9.99
12.14
14.47
16.67
18.25
18.93
18.7
17.84
16.7
15.55
14.43
13.24
11.91
10.41
8.9
7.59
6.63
5.97
5.4
4.5
2.94
0.5
-2.75
-6.57
-10.58
-14.44
-17.89
-20.89
-23.54
-26.12
-28.93
-32.18
-35.85
-39.6
-42.87
-44.97
-45.38
-43.89
-40.64
-36.05
-30.65
-24.87
-19.01
-13.25
-7.69
-2.47
2.29
6.48
10.0
12.84
15.06
16.72
17.94
18.83
19.49
20.05
20.57
21.09
21.63
22.23
22.91
23.69
24.55
25.4
26.16
26.68
26.84
26.54
25.79
24.61
23.13
21.52
19.9
18.37
16.93
15.56
14.25
12.98
11.76
10.58
9.41
8.22
6.98
5.71
4.45
3.22
2.0
0.72
-0.71
-2.36
-4.27
-6.43
-8.84
-11.49
-14.36
-17.44
-20.7
-24.12
-27.68
-31.4
-35.2
-38.98
-42.53
-45.57
-47.8
-48.88
-48.48
-46.32
-42.25
-36.3
-28.79
-20.25
-11.4
-2.95
4.52
10.68
15.43
18.89
21.29
22.85
23.8
24.3
24.5
24.58
24.69
24.96
25.48
26.27
27.3
28.5
29.82
31.2
32.5
33.62
34.41
34.75
34.6
33.98
32.97
31.74
30.43
29.15
27.98
26.87
25.78
24.61
23.34
21.96
20.53
19.06
17.52
15.85
13.99
11.95
9.78
7.59
5.46
3.39
1.28
-1.0
-3.54
-6.38
-9.47
-12.71
-15.98
-19.18
-22.3
-25.43
-28.69
-32.27
-36.29
-40.73
-45.33
-49.64
-53.04
-54.84
-54.47
-51.56
-46.11
-38.52
-29.47
-19.85
-10.41
-1.75
5.87
12.37
17.77
22.04
25.12
26.97
27.64
27.39
26.57
25.6
24.81
24.42
24.59
25.37
26.74
28.58
30.72
32.88
34.79
36.25
37.16
37.58
37.6
37.34
36.82
36.01
34.83
33.26
31.37
29.3
27.25
25.31
23.51
21.77
19.98
18.07
16.01
13.84
11.64
9.44
7.3
5.18
3.1
1.03
-1.06
-3.19
-5.38
-7.64
-9.91
-12.18
-14.46
-16.77
-19.13
-21.58
-24.1
-26.68
-29.42
-32.43
-35.93
-40.0
-44.52
-49.06
-52.81
-54.78
-54.1
-50.25
-43.3
-33.89
-23.08
-12.03
-1.76
7.07
14.14
19.49
23.27
25.72
27.01
27.31
26.8
25.75
24.44
23.22
22.36
21.98
22.08
22.51
23.17
23.99
24.94
26.05
27.26
28.46
29.5
30.21
30.48
30.26
29.54
28.37
26.88
25.25
23.65
22.22
20.91
19.57
17.97
15.9
13.31
10.28
7.07
3.98
1.25
-1.04
-2.97
-4.78
-6.76
-9.1
-11.9
-15.05
-18.3
-21.4
-24.19
-26.65
-28.94
-31.35
-34.18
-37.71
-42.01
-46.92
-51.9
-56.07
-58.4
-57.94
-54.19
-47.25
-37.81
-26.98
-15.91
-5.56
3.5
11.05
17.12
21.84
25.3
27.56
28.68
28.77
28.08
26.92
25.68
24.67
24.07
23.93
24.2
24.77
25.56
26.54
27.64
28.78
29.81
30.52
30.76
30.45
29.65
28.52
27.24
25.95
24.66
23.24
21.54
19.48
17.14
14.74
12.57
10.79
9.36
8.07
6.61
4.8
2.59
0.16
-2.24
-4.42
-6.31
-7.99
-9.61
-11.31
-13.21
-15.4
-17.91
-20.76
-23.9
-27.13
-30.22
-32.94
-35.29
-37.51
-40.02
-43.21
-47.11
-51.24
-54.64
-56.14
-54.85
-50.42
-43.19
-34.02
-23.99
-14.09
-5.04
2.78
9.27
14.46
18.48
21.47
23.54
24.79
25.29
25.15
24.51
23.59
22.66
21.95
21.61
21.67
22.06
22.68
23.44
24.32
25.26
26.12
26.68
26.67
25.91
24.4
22.36
20.1
17.91
15.96
14.26
12.73
11.28
9.86
8.5
7.17
5.88
4.57
3.22
1.76
0.16
-1.59
-3.47
-5.41
-7.29
-9.04
-10.64
-12.12
-13.62
-15.24
-17.01
-18.91
-20.84
-22.73
-24.56
-26.4
-28.43
-30.84
-33.77
-37.22
-40.99
-44.58
-47.34
-48.51
-47.43
-43.74
-37.5
-29.28
-19.96
-10.58
-2.02
5.11
10.64
14.66
17.48
19.4
20.63
21.29
21.46
21.21
20.69
20.04
19.45
19.04
18.87
18.95
19.28
19.87
20.68
21.66
22.66
23.45
23.83
23.67
22.96
21.87
20.6
19.34
18.19
17.1
15.97
14.7
13.18
11.39
9.38
7.25
5.14
3.18
1.47
0.05
-1.09
-2.06
-3.04
-4.19
-5.64
-7.43
-9.49
-11.68
-13.84
-15.86
-17.73
-19.54
-21.45
-23.63
-26.21
-29.27
-32.8
-36.7
-40.74
-44.56
-47.63
-49.29
-48.92
-46.11
-40.8
-33.42
-24.71
-15.63
-7.05
0.38
6.35
10.81
13.9
15.88
16.98
17.43
17.45
17.22
16.91
16.6
16.38
16.32
16.47
16.85
17.44
18.15
18.87
19.52
20.05
20.49
20.83
21.04
21.0
20.6
19.75
18.48
16.93
15.27
13.67
12.19
10.85
9.61
8.45
7.35
6.34
5.38
4.46
3.55
2.57
1.51
0.38
-0.78
-1.89
-2.9
-3.82
-4.79
-5.96
-7.52
-9.53
-11.95
-14.63
-17.33
-19.9
-22.26
-24.41
-26.45
-28.46
-30.57
-32.92
-35.64
-38.72
-41.98
-44.96
-46.98
-47.31
-45.34
-40.85
-34.11
-25.8
-16.84
-8.17
-0.49
5.79
10.58
14.01
16.28
17.64
18.3
18.46
18.31
18.01
17.75
17.65
17.8
18.2
18.85
19.71
20.73
21.85
23.0
24.08
24.97
25.57
25.8
25.59
24.9
23.71
22.03
19.93
17.56
15.09
12.71
10.53
8.57
6.78
5.05
3.35
1.72
0.22
-1.06
-2.12
-3.05
-3.95
-4.98
-6.19
-7.63
-9.25
-11.03
-12.94
-14.94
-17.0
-19.06
-21.11
-23.18
-25.35
-27.75
-30.42
-33.32
-36.21
-38.72
-40.36
-40.62
-39.06
-35.47
-29.93
-22.84
-14.86
-6.76
0.77
7.23
12.38
16.16
18.66
20.02
20.44
20.12
19.32
18.29
17.25
16.41
15.86
15.65
15.76
16.16
16.79
17.58
18.45
19.32
20.11
20.75
21.16
21.3
21.09
20.54
19.65
18.48
17.16
15.83
14.61
13.59
12.77
12.07
11.35
10.53
9.56
8.48
7.36
6.24
5.13
4.0
2.77
1.4
-0.13
-1.84
-3.67
-5.56
-7.46
-9.3
-11.07
-12.81
-14.59
-16.53
-18.69
-21.08
-23.64
-26.31
-29.05
-31.88
-34.81
-37.69
-40.23
-41.91
-42.24
-40.82
-37.55
-32.58
-26.32
-19.28
-11.97
-4.88
1.59
7.12
11.49
14.61
16.57
17.63
18.08
18.19
18.15
18.09
18.06
18.09
18.24
18.53
18.99
19.61
20.37
21.21
22.03
22.69
23.02
22.91
22.3
21.28
19.99
18.6
17.21
15.83
14.43
12.95
11.42
9.92
8.57
7.46
6.6
5.9
5.21
4.43
3.49
2.42
1.31
0.22
-0.84
-1.94
-3.16
-4.6
-6.24
-8.01
-9.8
-11.49
-13.04
-14.48
-15.89
-17.36
-18.98
-20.82
-22.94
-25.35
-27.97
-30.59
-32.86
-34.44
-35.0
-34.38
-32.52
-29.5
-25.43
-20.48
-14.88
-8.96
-3.13
2.22
6.75
10.24
12.65
14.02
14.49
14.26
13.61
12.89
12.42
12.45
13.06
14.16
15.48
16.71
17.59
18.04
18.14
18.09
18.12
18.31
18.57
18.68
18.41
17.65
16.45
15.0
13.49
12.03
10.65
9.37
8.16
7.08
6.16
5.38
4.67
3.94
3.09
2.05
0.83
-0.6
-2.2
-3.93
-5.67
-7.33
-8.82
-10.17
-11.49
-12.94
-14.66
-16.7
-19.04
-21.6
-24.27
-26.9
-29.36
-31.49
-33.12
-34.09
-34.23
-33.36
-31.34
-28.09
-23.64
-18.21
-12.21
-6.11
-0.37
4.64
8.74
11.89
14.11
15.5
16.18
16.29
16.04
15.63
15.25
15.0
14.91
14.91
14.98
15.14
15.43
15.92
16.59
17.31
17.87
18.09
17.89
17.31
16.53
15.72
15.0
14.43
13.99
13.66
13.42
13.19
12.85
12.24
11.21
9.69
7.76
5.65
3.6
1.8
0.27
-1.08
-2.4
-3.83
-5.36
-6.92
-8.45
-9.97
-11.53
-13.24
-15.09
-16.99
-18.8
-20.47
-22.11
-23.99
-26.31
-29.1
-32.09
-34.74
-36.45
-36.78
-35.57
-32.97
-29.35
-25.08
-20.45
-15.63
-10.7
-5.79
-1.06
3.21
6.78
9.47
11.2
12.05
12.21
11.95
11.55
11.29
11.35
11.8
12.6
13.59
14.61
15.52
16.25
16.81
17.23
17.53
17.68
17.66
17.44
17.01
16.4
15.66
14.87
14.1
13.4
12.79
12.24
11.67
11.02
10.22
9.25
8.21
7.15
6.17
5.24
4.31
3.26
2.04
0.66
-0.76
-2.09
-3.26
-4.31
-5.38
-6.69
-8.43
-10.64
-13.28
-16.13
-18.92
-21.36
-23.16
-24.14
-24.21
-23.44
-22.0
-20.02
-17.44
-13.9
-8.89
-1.96
6.91
17.14
27.63
37.03
44.15
48.23
49.14
47.43
44.15
40.73
38.67
39.09
42.25
47.28
52.2
54.64
52.73
45.92
35.22
22.78
10.89
1.16
-5.89
-10.72
-14.17
-16.99
-19.53
-21.91
-24.29
-27.06
-30.77
-35.89
-42.57
-50.51
-59.15
-67.87
-76.28
-84.29
-92.05
-99.79
-107.64
-115.55
-123.3
-130.63
-137.3
-143.16
-148.02
-151.54
-153.1
-151.92
-147.28
-138.83
-126.95
-112.81
-98.27
-85.47
-76.18
-71.22
-70.11
-71.13
-71.83
-69.73
-63.05
-51.06
-34.08
-13.17
10.26
34.72
58.77
81.05
100.37
115.98
127.74
136.18
142.24
146.7
149.76
150.86
148.97
143.22
133.45
120.49
105.97
91.76
79.39
69.66
62.58
57.58
53.86
50.76
47.93
45.45
43.7
43.24
44.44
47.18
50.76
53.97
55.42
54.01
49.32
41.7
32.17
22.06
12.68
4.97
-0.55
-3.84
-5.18
-5.01
-3.94
-2.61
-1.72
-1.85
-3.33
-6.1
-9.69
-13.41
-16.64
-19.13
-21.01
-22.67
-24.47
-26.51
-28.68
-30.69
-32.28
-33.24
-33.38
-32.41
-29.97
-25.77
-19.75
-12.29
-4.09
4.03
11.34
17.4
22.1
25.46
27.59
28.53
28.34
27.12
25.16
22.88
20.77
19.23
18.52
18.65
19.45
20.63
21.85
22.87
23.55
23.88
23.95
23.88
23.75
23.59
23.33
22.89
22.19
21.17
19.86
18.26
16.4
14.25
11.8
9.06
6.03
2.78
-0.69
-4.33
-8.15
-12.14
-16.32
-20.7
-25.33
-30.21
-35.27
-40.34
-45.13
-49.21
-52.19
-53.7
-53.54
-51.65
-48.17
-43.3
-37.35
-30.65
-23.54
-16.38
-9.5
-3.2
2.26
6.73
10.15
12.62
14.27
15.22
15.55
15.29
14.46
13.11
11.37
9.44
7.5
5.75
4.35
3.41
3.05
3.34
4.25
5.66
7.31
8.9
10.14
10.85
11.02
10.79
10.38
10.0
9.8
9.79
9.92
10.11
10.26
10.32
10.23
10.0
9.59
9.01
8.28
7.45
6.62
5.87
5.24
4.73
4.22
3.55
2.52
0.94
-1.29
-4.25
-7.96
-12.37
-17.36
-22.69
-27.99
-32.83
-36.76
-39.43
-40.62
-40.26
-38.45
-35.38
-31.36
-26.8
-22.14
-17.8
-14.08
-11.05
