47.63
47.23
46.9
46.83
46.97
47.28
47.86
49.06
51.28
54.72
59.12
63.7
67.37
68.99
67.81
63.54
56.41
46.97
35.9
23.89
11.65
-0.03
-10.23
-17.93
-22.12
-22.09
-17.65
-9.18
2.32
15.53
29.02
41.51
51.96
59.77
64.68
66.88
66.73
64.64
60.79
55.0
46.78
35.63
21.43
4.62
-13.71
-32.13
-49.3
-64.35
-76.95
-87.12
-94.97
-100.53
-103.82
-105.11
-105.01
-104.16
-102.95
-101.14
-98.19
-93.82
-88.58
-83.73
-80.45
-78.88
-77.74
-75.0
-69.23
-60.65
-51.25
-43.59
-39.33
-38.22
-38.42
-37.81
-35.29
-31.31
-27.2
-24.08
-21.99
-19.88
-16.47
-11.17
-4.52
2.02
6.83
8.99
8.72
7.27
6.27
7.08
10.28
15.6
22.19
29.08
35.52
41.14
45.89
49.89
53.28
56.14
58.46
60.14
61.0
60.9
59.8
57.85
55.43
53.02
51.01
49.61
48.74
48.18
47.65
46.98
46.11
45.05
43.78
42.24
40.33
38.0
35.28
32.33
29.3
26.35
23.53
20.88
18.35
15.95
13.71
11.66
9.88
8.36
7.05
5.83
4.5
2.91
0.92
-1.49
-4.27
-7.28
-10.37
-13.43
-16.48
-19.62
-23.05
-26.92
-31.22
-35.67
-39.71
-42.61
-43.63
-42.3
-38.56
-32.78
-25.66
-18.02
-10.57
-3.8
2.04
6.86
10.65
13.43
15.31
16.45
17.02
17.23
17.19
16.91
16.4
15.66
14.85
14.18
13.89
14.1
14.8
15.81
16.89
17.8
18.38
18.52
18.18
17.37
16.16
14.71
13.2
11.84
10.76
9.97
9.37
8.81
8.11
7.21
6.12
4.91
3.65
2.39
1.07
-0.35
-1.91
-3.6
-5.42
-7.36
-9.44
-11.66
-14.0
-16.36
-18.61
-20.64
-22.43
-24.13
-25.99
-28.27
-31.18
-34.76
-38.84
-42.99
-46.62
-48.96
-49.34
-47.3
-42.83
-36.35
-28.66
-20.65
-13.12
-6.56
-1.16
3.16
6.55
9.2
11.21
12.63
13.5
13.89
13.88
13.63
13.24
12.84
12.49
12.22
12.06
12.05
12.19
12.48
12.86
13.22
13.42
13.31
12.78
11.78
10.36
8.61
6.7
4.8
2.99
1.37
-0.04
-1.17
-1.93
-2.25
-2.1
-1.61
-0.99
-0.58
-0.68
-1.44
-2.81
-4.53
-6.24
-7.6
-8.43
-8.79
-8.9
-9.1
-9.62
-10.6
-11.97
-13.54
-15.14
-16.65
-18.04
-19.39
-20.82
-22.43
-24.34
-26.59
-29.12
-31.7
-33.84
-34.94
-34.39
-31.8
-27.17
-20.91
-13.69
-6.29
0.61
6.54
11.29
14.86
17.35
18.97
19.94
20.45
20.66
20.63
20.41
19.99
19.39
18.65
17.88
17.2
16.78
16.76
17.2
18.03
19.01
19.84
20.3
20.28
19.83
19.11
18.23
17.21
16.01
14.6
12.98
11.28
9.63
8.1
6.66
5.21
3.7
2.14
0.69
-0.51
-1.35
-1.89
-2.27
-2.66
-3.2
-3.9
-4.7
-5.55
-6.5
-7.7
-9.29
-11.34
-13.74
-16.24
-18.58
-20.62
-22.46
-24.38
-26.71
-29.67
-33.27
-37.21
-40.97
-43.9
-45.34
-44.8
-42.02
-37.13
-30.57
-23.02
-15.2
-7.78
-1.23
4.19
8.43
11.58
13.83
15.42
16.59
17.49
18.24
18.83
19.25
19.47
19.52
19.52
19.62
19.98
20.71
21.77
23.01
24.2
25.12
25.61
25.64
25.31
24.71
23.93
22.95
21.72
20.22
18.51
16.79
15.22
13.9
12.8
11.78
10.71
9.53
8.32
7.15
6.06
4.98
3.74
2.16
0.19
-2.07
-4.41
-6.61
-8.55
-10.32
-12.1
-14.14
-16.57
-19.35
-22.25
-24.97
-27.32
-29.26
-30.98
-32.76
-34.88
-37.51
-40.63
-44.02
-47.28
-49.86
-51.13
-50.49
-47.52
-42.17
-34.79
-26.11
-17.13
-8.8
-1.81
3.52
7.28
9.87
11.78
13.41
14.93
16.3
17.37
18.03
18.29
18.3
18.29
18.47
18.93
19.67
20.58
21.56
22.52
23.42
24.21
24.83
25.15
25.02
24.28
22.87
20.87
18.5
16.11
14.0
12.32
11.01
9.87
8.68
7.27
5.67
3.98
2.37
0.95
-0.27
-1.36
-2.44
-3.62
-4.94
-6.38
-7.96
-9.71
-11.7
-13.96
-16.43
-18.96
-21.35
-23.48
-25.41
-27.39
-29.78
-32.87
-36.67
-40.83
-44.65
-47.22
-47.76
-45.77
-41.26
-34.69
-26.85
-18.58
-10.59
-3.32
2.99
8.25
12.42
15.52
17.6
18.86
19.5
19.78
19.85
19.78
19.59
19.29
18.95
18.71
18.72
19.1
19.83
20.81
21.87
22.84
23.57
24.03
24.19
24.05
23.63
22.91
21.97
20.89
19.8
18.77
17.8
16.8
15.68
14.4
13.03
11.69
10.48
9.42
8.45
7.41
6.19
4.81
3.34
1.92
0.6
-0.64
-1.97
-3.52
-5.39
-7.53
-9.82
-12.13
-14.38
-16.59
-18.82
-21.14
-23.52
-25.88
-28.12
-30.23
-32.41
-34.93
-38.04
-41.73
-45.57
-48.73
-50.23
-49.28
-45.53
-39.26
-31.26
-22.51
-13.94
-6.18
0.47
5.96
10.34
13.73
16.25
18.01
19.16
19.81
20.02
19.84
19.34
18.65
17.96
17.5
17.43
17.81
18.59
19.65
20.81
21.94
22.91
23.65
24.06
24.12
23.81
23.19
22.29
21.16
19.84
18.36
16.75
15.08
13.4
11.77
10.25
8.89
7.74
6.84
6.18
5.68
5.2
4.59
3.73
2.58
1.18
-0.37
-1.95
-3.47
-4.91
-6.28
-7.66
-9.18
-10.89
-12.8
-14.79
-16.71
-18.43
-19.93
-21.38
-23.05
-25.25
-28.16
-31.74
-35.64
-39.27
-41.91
-42.9
-41.78
-38.41
-33.01
-26.08
-18.35
-10.57
-3.43
2.65
7.5
11.18
13.91
15.89
17.24
18.01
18.19
17.85
17.17
16.39
15.73
15.35
15.29
15.54
16.06
16.84
17.83
18.97
20.12
21.12
21.83
22.09
21.83
20.99
19.63
17.88
16.01
14.32
13.07
12.33
11.95
11.66
11.21
10.47
9.49
8.44
7.45
6.54
5.62
4.53
3.2
1.68
0.09
-1.42
-2.84
-4.22
-5.75
-7.55
-9.65
-11.95
-14.29
-16.51
-18.51
-20.36
-22.19
-24.13
-26.34
-28.89
-31.83
-35.18
-38.88
-42.68
-46.09
-48.42
-48.89
-46.95
-42.45
-35.74
-27.65
-19.16
-11.13
-4.13
1.65
6.28
9.89
12.66
14.72
16.15
17.06
17.53
17.63
17.43
17.04
16.59
16.23
16.07
16.16
16.5
17.05
17.78
18.65
19.61
20.55
21.27
21.61
21.44
20.8
19.82
18.72
17.7
16.87
16.27
15.8
15.32
14.69
13.88
12.93
11.96
11.09
10.39
9.83
9.33
8.79
8.1
7.21
6.09
4.78
3.35
1.89
0.47
-0.92
-2.37
-4.06
-6.12
-8.61
-11.4
-14.29
-17.04
-19.5
-21.7
-23.78
-26.03
-28.65
-31.79
-35.43
-39.28
-42.82
-45.33
-46.05
-44.44
-40.33
-34.04
-26.27
-17.94
-9.9
-2.82
2.94
7.33
10.52
12.78
14.41
15.64
16.55
17.14
17.38
17.32
17.08
16.89
16.91
17.18
17.6
17.99
18.27
18.46
18.75
19.3
20.12
21.04
21.68
21.71
20.92
19.35
17.25
14.98
12.83
10.97
9.39
8.01
6.73
5.51
4.38
3.32
2.36
1.41
0.45
-0.56
-1.6
-2.62
-3.64
-4.75
-6.09
-7.78
-9.88
-12.32
-14.94
-17.55
-20.0
-22.19
-24.18
-26.08
-28.11
-30.48
-33.3
-36.44
-39.53
-41.95
-42.98
-41.99
-38.73
-33.32
-26.3
-18.41
-10.42
-2.97
3.5
8.77
12.76
15.53
17.24
18.12
18.45
18.54
18.63
18.83
19.15
19.46
19.64
19.59
19.31
18.92
18.62
18.58
18.89
19.48
20.15
20.64
20.72
20.28
19.33
18.04
16.55
14.99
13.38
11.76
10.16
8.71
7.51
6.65
6.09
5.72
5.37
4.88
4.18
3.27
2.24
1.15
0.04
-1.15
-2.47
-4.01
-5.84
-7.97
-10.31
-12.74
-15.1
-17.25
-19.12
-20.74
-22.26
-23.93
-26.04
-28.81
-32.27
-36.16
-39.9
-42.76
-44.0
-43.07
-39.77
-34.3
-27.17
-19.14
-11.02
-3.54
2.8
7.78
11.43
13.95
15.64
16.72
17.4
17.8
18.03
18.17
18.27
18.36
18.39
18.35
18.27
18.25
18.39
18.79
19.41
20.13
20.74
21.02
20.87
20.29
19.37
18.24
17.0
15.66
14.23
12.67
11.01
9.29
7.59
6.0
4.56
3.25
2.07
0.96
-0.11
-1.16
-2.2
-3.28
-4.45
-5.77
-7.28
-8.97
-10.78
-12.61
-14.43
-16.26
-18.19
-20.33
-22.83
-25.77
-29.14
-32.77
-36.27
-39.0
-40.24
-39.34
-35.99
-30.37
-23.14
-15.23
-7.56
-0.76
4.94
9.62
13.48
16.64
19.1
20.76
21.55
21.59
21.11
20.45
19.83
19.36
18.99
18.64
18.3
18.05
18.02
18.32
18.92
19.72
20.51
21.08
21.28
21.04
20.33
19.25
17.88
16.4
14.93
13.54
12.25
11.02
9.82
8.63
7.47
6.34
5.23
4.08
2.82
1.41
-0.14
-1.77
-3.43
-5.03
-6.55
-7.98
-9.37
-10.81
-12.36
-14.04
-15.84
-17.7
-19.49
-21.17
-22.78
-24.47
-26.5
-29.12
-32.43
-36.21
-39.87
-42.55
-43.33
-41.6
-37.24
-30.73
-22.93
-14.82
-7.22
-0.68
4.61
8.67
11.66
13.8
15.33
16.48
17.39
18.11
18.64
18.9
18.89
18.65
18.31
18.02
17.89
17.97
18.27
18.76
19.41
20.15
20.84
21.3
21.35
20.89
19.98
18.81
17.6
16.55
15.69
14.88
13.94
12.74
11.29
9.79
8.48
7.57
7.07
6.79
6.46
5.81
4.74
3.33
1.79
0.35
-0.91
-2.06
-3.29
-4.79
-6.64
-8.81
-11.09
-13.29
-15.22
-16.86
-18.25
-19.52
-20.85
-22.4
-24.36
-26.88
-30.05
-33.69
-37.27
-39.98
-40.86
-39.25
-34.99
-28.57
-20.94
-13.22
-6.27
-0.49
4.11
7.77
10.69
12.95
14.53
15.39
15.63
15.45
15.1
14.77
14.56
14.42
14.28
14.09
13.93
13.91
14.17
14.74
15.49
16.26
16.79
16.96
16.72
16.15
15.36
14.45
13.51
12.55
11.6
10.62
9.61
8.55
7.38
6.06
4.57
2.9
1.1
-0.7
-2.37
-3.74
-4.76
-5.48
-6.1
-6.92
-8.17
-9.94
-12.1
-14.36
-16.45
-18.22
-19.75
-21.29
-23.16
-25.61
-28.71
-32.2
-35.55
-38.04
-38.89
-37.6
-34.02
-28.52
-21.73
-14.48
-7.47
-1.17
4.14
8.41
11.65
13.94
15.4
16.2
16.5
16.5
16.38
16.27
16.24
16.27
16.3
16.27
16.2
16.21
16.47
17.09
18.02
19.08
19.96
20.4
20.29
19.69
18.74
17.62
16.44
15.25
14.09
13.02
12.05
11.18
10.35
9.45
8.39
7.2
5.97
4.82
3.87
3.09
2.39
1.59
0.59
-0.63
-1.98
-3.37
-4.74
-6.12
-7.57
-9.18
-10.96
-12.86
-14.75
-16.51
-18.06
-19.42
-20.68
-22.05
-23.76
-26.04
-28.98
-32.43
-35.91
-38.72
-40.04
-39.22
-36.01
-30.64
-23.75
-16.22
-8.88
-2.33
3.12
7.46
10.83
13.41
15.35
16.74
17.61
17.97
17.86
17.35
16.55
15.61
14.71
14.04
13.7
13.79
14.28
15.08
16.01
16.87
17.48
17.76
17.72
17.42
16.93
16.26
15.4
14.34
13.19
12.05
11.05
10.25
9.56
8.86
8.0
6.9
5.61
4.26
3.0
1.97
1.15
0.43
-0.37
-1.49
-3.04
-5.05
-7.37
-9.8
-12.15
-14.29
-16.22
-18.01
-19.73
-21.51
-23.48
-25.79
-28.51
-31.58
-34.68
-37.23
-38.52
-37.9
-35.01
-29.95
-23.23
-15.66
-8.13
-1.37
4.19
8.44
11.53
13.72
15.29
16.38
17.05
17.28
17.04
16.41
15.55
14.68
13.93
13.42
13.15
13.1
13.27
13.69
14.34
15.18
16.07
16.85
17.34
17.46
17.19
16.59
15.74
14.71
13.59
12.39
11.13
9.83
8.49
7.15
5.83
4.55
3.32
2.12
0.92
-0.27
-1.43
-2.47
-3.36
-4.13
-4.86
-5.71
-6.8
-8.17
-9.81
-11.59
-13.44
-15.27
-17.05
-18.76
-20.38
-21.95
-23.55
-25.35
-27.55
-30.27
-33.37
-36.4
-38.64
-39.27
-37.7
-33.74
-27.71
-20.36
-12.58
-5.22
1.13
6.18
9.91
12.54
14.32
15.52
16.3
16.78
17.01
17.02
16.87
16.58
16.24
15.9
15.67
15.62
15.85
16.36
17.09
17.9
18.62
19.09
19.21
18.96
18.36
17.47
16.34
15.07
13.76
12.51
11.39
10.44
9.59
8.82
8.06
7.29
6.52
5.76
4.98
4.15
3.22
2.18
1.02
-0.2
-1.46
-2.75
-4.12
-5.64
-7.37
-9.31
-11.39
-13.46
-15.39
-17.13
-18.71
-20.29
-22.07
-24.25
-26.93
-30.08
-33.45
-36.59
-38.89
-39.68
-38.44
-34.95
-29.39
-22.32
-14.61
-7.12
-0.5
4.88
9.01
12.06
14.25
15.74
16.61
16.92
16.77
16.29
15.69
15.14
14.75
14.59
14.67
15.01
15.62
16.45
17.41
18.38
19.23
19.85
20.22
20.29
20.01
19.3
18.11
16.47
14.48
12.35
10.33
8.54
7.04
5.75
4.61
3.53
2.51
1.54
0.63
-0.27
-1.18
-2.18
-3.28
-4.49
-5.86
-7.4
-9.1
-10.89
-12.67
-14.33
-15.84
-17.28
-18.83
-20.67
-22.97
-25.76
-28.99
-32.46
-35.8
-38.48
-39.87
-39.36
-36.58
-31.56
-24.75
-16.94
-8.98
-1.63
4.65
9.67
13.44
16.05
17.64
18.4
18.53
18.28
17.89
17.48
17.13
16.8
16.49
16.22
16.06
16.12
16.48
17.13
17.98
18.9
19.71
20.26
20.45
20.25
19.69
18.83
17.73
16.46
15.09
13.7
12.4
11.29
10.41
9.74
9.18
8.65
8.05
7.34
6.46
5.36
3.99
2.36
0.55
-1.27
-2.91
-4.24
-5.29
-6.2
-7.2
-8.48
-10.11
-12.05
-14.15
-16.24
-18.17
-19.87
-21.34
-22.69
-24.13
-25.92
-28.28
-31.26
-34.59
-37.69
-39.77
-40.03
-37.95
-33.49
-27.06
-19.45
-11.61
-4.33
1.88
6.82
10.58
13.36
15.34
16.66
17.4
17.64
17.5
17.16
16.81
16.58
16.49
16.49
16.52
16.58
16.74
17.1
17.73
18.55
19.4
20.03
20.22
19.88
19.06
17.92
16.67
15.48
14.42
13.49
12.63
11.75
10.82
9.79
8.69
7.53
6.37
5.31
4.4
3.67
3.12
2.66
2.16
1.55
0.77
-0.13
-1.11
-2.14
-3.23
-4.46
-5.92
-7.65
-9.6
-11.65
-13.66
-15.52
-17.19
-18.67
-20.05
-21.51
-23.29
-25.6
-28.53
-31.87
-35.08
-37.36
-37.88
-36.07
-31.85
-25.63
-18.22
-10.54
-3.39
2.67
7.37
10.71
12.85
14.09
14.72
15.0
15.13
15.14
15.01
14.67
14.13
13.47
12.84
12.38
12.2
12.32
12.74
13.41
14.29
15.29
16.24
16.92
17.09
16.64
15.59
14.14
12.56
11.08
9.78
8.63
7.55
6.49
5.51
4.65
3.97
3.41
2.87
2.23
1.44
0.53
-0.46
-1.48
-2.56
-3.73
-5.03
-6.47
-8.02
-9.63
-11.24
-12.82
-14.35
-15.89
-17.46
-19.19
-21.17
-23.52
-26.28
-29.36
-32.45
-35.07
-36.6
-36.47
-34.31
-30.11
-24.24
-17.36
-10.19
-3.39
2.63
7.62
11.54
14.45
16.39
17.47
17.79
17.49
16.72
15.66
14.51
13.48
12.74
12.42
12.56
13.12
13.96
14.92
15.84
16.58
17.04
17.17
16.93
16.36
15.47
14.38
13.2
12.05
11.05
10.27
9.74
9.37
9.06
8.66
8.08
7.33
6.53
5.82
5.33
5.07
4.93
4.71
4.23
3.37
2.09
0.51
-1.25
-3.0
-4.61
-5.99
-7.17
-8.24
-9.4
-10.76
-12.38
-14.2
-16.06
-17.78
-19.24
-20.46
-21.58
-22.87
-24.6
-27.01
-30.09
-33.54
-36.74
-38.88
-39.2
-37.2
-32.9
-26.74
-19.49
-11.97
-4.88
1.35
6.54
10.66
13.79
16.01
17.44
18.18
18.37
18.15
17.66
17.01
16.31
15.61
14.97
14.46
14.16
14.17
14.56
15.33
16.36
17.42
18.25
18.65
18.54
17.97
17.07
15.98
14.79
13.57
12.35
11.2
10.15
9.21
8.36
7.54
6.72
5.91
5.19
4.6
4.14
3.71
3.15
2.39
1.42
0.31
-0.85
-1.97
-3.07
-4.21
-5.49
-7.01
-8.76
-10.69
-12.65
-14.42
-15.86
-16.91
-17.64
-18.29
-19.13
-20.45
-22.42
-25.09
-28.32
-31.76
-34.86
-36.96
-37.39
-35.69
-31.75
-25.88
-18.78
-11.29
-4.23
1.81
6.58
10.1
12.59
14.3
15.41
15.99
16.03
15.54
14.66
13.64
12.76
12.23
12.1
12.26
12.58
12.96
13.38
13.9
14.55
15.31
16.04
16.59
16.84
16.72
16.28
15.58
14.7
13.73
12.74
11.77
10.85
9.96
9.08
8.2
7.33
6.53
5.81
5.14
4.43
3.55
2.4
0.94
-0.71
-2.38
-3.88
-5.12
-6.12
-7.0
-7.92
-9.05
-10.44
-12.14
-14.03
-15.99
-17.83
-19.39
-20.57
-21.42
-22.17
-23.14
-24.69
-27.03
-30.08
-33.39
-36.23
-37.76
-37.31
-34.59
-29.79
-23.5
-16.5
-9.51
-3.03
2.61
7.29
10.95
13.6
15.31
16.2
16.46
16.26
15.78
15.12
14.41
13.74
13.19
12.88
12.88
13.23
13.94
14.92
16.08
17.23
18.18
18.74
18.83
18.45
17.7
16.78
15.84
14.97
14.2
13.44
12.6
11.63
10.56
9.48
8.48
7.64
6.98
6.44
6.01
5.65
5.34
5.03
4.67
4.14
3.35
2.3
1.03
-0.31
-1.63
-2.85
-4.02
-5.23
-6.65
-8.41
-10.54
-12.97
-15.52
-17.96
-20.09
-21.83
-23.27
-24.69
-26.45
-28.82
-31.88
-35.33
-38.57
-40.81
-41.29
-39.53
-35.45
-29.42
-22.1
-14.32
-6.83
-0.18
5.26
9.4
12.32
14.22
15.39
16.13
16.64
17.0
17.21
17.18
16.87
16.35
15.8
15.44
15.48
16.03
17.05
18.35
19.64
20.65
21.17
21.15
20.62
19.71
18.55
17.18
15.65
13.95
12.13
10.23
8.33
6.55
4.97
3.68
2.74
2.14
1.78
1.52
1.17
0.58
-0.27
-1.36
-2.6
-3.91
-5.28
-6.73
-8.29
-9.96
-11.68
-13.4
-15.07
-16.66
-18.17
-19.7
-21.39
-23.43
-25.99
-29.07
-32.4
-35.4
-37.27
-37.25
-34.87
-30.15
-23.61
-16.09
-8.46
-1.44
4.58
9.46
13.23
15.93
17.65
18.47
18.55
18.14
17.49
16.83
16.27
15.8
15.35
14.9
14.52
14.38
14.66
15.41
16.5
17.66
18.55
18.92
18.69
17.97
16.93
15.77
14.61
13.51
12.52
11.61
10.79
10.04
9.28
8.48
7.64
6.78
5.98
5.31
4.78
4.31
3.78
3.04
2.02
0.75
-0.68
-2.11
-3.41
-4.51
-5.48
-6.47
-7.68
-9.21
-11.05
-13.08
-15.1
-16.96
-18.62
-20.2
-21.93
-24.03
-26.6
-29.6
-32.75
-35.57
-37.49
-37.86
-36.19
-32.31
-26.45
-19.24
-11.56
-4.26
2.06
7.1
10.92
13.76
15.88
17.47
18.59
19.2
19.29
18.91
18.26
17.55
17.03
16.79
16.81
16.99
17.24
17.55
17.95
18.47
19.0
19.36
19.31
18.74
17.66
16.24
14.71
13.21
11.8
10.46
9.18
7.96
6.86
5.95
5.21
4.62
4.11
3.62
3.14
2.63
2.09
1.51
0.87
0.17
-0.58
-1.35
-2.14
-3.0
-4.03
-5.33
-6.99
-8.95
-11.05
-13.07
-14.76
-16.08
-17.11
-18.11
-19.42
-21.26
-23.7
-26.59
-29.56
-32.08
-33.5
-33.25
-30.91
-26.48
-20.33
-13.23
-6.1
0.28
5.44
9.29
11.97
13.75
14.8
15.26
15.22
14.78
14.1
13.33
12.59
11.94
11.39
11.01
