16.2
15.93
15.58
15.18
14.72
14.26
13.92
13.83
14.08
14.65
15.5
16.52
17.59
18.6
19.38
19.76
19.62
18.9
17.69
16.21
14.69
13.28
12.0
10.76
9.43
7.92
6.27
4.57
2.95
1.52
0.33
-0.59
-1.32
-2.02
-2.88
-4.12
-5.9
-8.22
-10.89
-13.64
-16.11
-18.1
-19.6
-20.85
-22.25
-24.21
-27.01
-30.66
-34.74
-38.58
-41.29
-42.11
-40.57
-36.67
-30.8
-23.61
-15.81
-8.05
-0.86
5.33
10.23
13.71
15.84
16.91
17.33
17.47
17.55
17.61
17.57
17.39
17.11
16.89
16.91
17.28
17.99
18.91
19.89
20.8
21.55
22.11
22.42
22.42
22.08
21.35
20.25
18.81
17.1
15.2
13.24
11.34
9.64
8.22
7.13
6.31
5.63
4.93
4.03
2.9
1.56
0.15
-1.18
-2.37
-3.47
-4.6
-5.96
-7.68
-9.76
-12.08
-14.41
-16.57
-18.48
-20.21
-21.94
-23.91
-26.31
-29.24
-32.6
-36.13
-39.32
-41.51
-42.04
-40.34
-36.18
-29.8
-21.87
-13.35
-5.24
1.71
7.13
11.05
13.74
15.57
16.85
17.76
18.38
18.72
18.8
18.64
18.32
17.94
17.64
17.5
17.59
17.91
18.41
19.01
19.59
20.03
20.22
20.06
19.49
18.48
17.06
15.36
13.55
11.84
10.43
9.42
8.81
8.49
8.28
7.97
7.44
6.64
5.64
4.54
3.45
2.4
1.38
0.29
-0.97
-2.51
-4.33
-6.39
-8.58
-10.78
-12.93
-14.98
-16.88
-18.65
-20.31
-21.94
-23.7
-25.81
-28.41
-31.46
-34.5
-36.82
-37.5
-35.81
-31.5
-24.94
-17.03
-8.86
-1.41
4.78
9.58
13.12
15.68
17.39
18.35
18.6
18.25
17.48
16.53
15.61
14.83
14.23
13.8
13.59
13.67
14.14
15.02
16.19
17.47
18.57
19.24
19.34
18.86
17.86
16.51
14.97
13.41
11.96
10.67
9.51
8.41
7.29
6.08
4.79
3.47
2.17
0.99
-0.04
-0.89
-1.53
-2.01
-2.42
-2.87
-3.54
-4.56
-6.0
-7.87
-10.08
-12.51
-14.96
-17.26
-19.27
-20.98
-22.53
-24.19
-26.32
-29.15
-32.61
-36.26
-39.36
-41.04
-40.62
-37.82
-32.85
-26.28
-18.91
-11.48
-4.61
1.32
6.16
9.88
12.61
14.57
15.95
16.93
17.63
18.09
18.31
18.29
18.05
17.64
17.15
16.7
16.47
16.59
17.11
17.97
19.0
19.94
20.53
20.65
20.3
19.63
18.75
17.8
16.79
15.69
14.47
13.13
11.74
10.38
9.16
8.13
7.28
6.57
5.93
5.3
4.64
3.89
2.98
1.91
0.65
-0.71
-2.07
-3.36
-4.57
-5.82
-7.27
-9.07
-11.23
-13.61
-15.93
-17.94
-19.49
-20.65
-21.63
-22.72
-24.2
-26.26
-28.93
-32.0
-34.99
-37.22
-37.99
-36.69
-33.14
-27.6
-20.73
-13.38
-6.36
-0.29
4.54
8.04
10.37
11.78
12.6
13.11
13.53
13.88
14.1
14.06
13.73
13.21
12.71
12.43
12.51
12.99
13.83
14.93
16.21
17.5
18.62
19.35
19.51
19.09
18.17
16.98
15.76
14.61
13.5
12.26
10.78
9.04
7.18
5.42
3.94
2.85
2.07
1.44
0.77
-0.04
-1.03
-2.12
-3.29
-4.51
-5.86
-7.42
-9.23
-11.22
-13.26
-15.17
-16.8
-18.16
-19.41
-20.84
-22.75
-25.31
-28.5
-31.99
-35.26
-37.64
-38.45
-37.19
-33.66
-28.06
-20.99
-13.25
-5.72
0.86
6.11
9.97
12.65
14.53
15.89
16.94
17.67
18.04
17.97
17.52
16.85
16.15
15.61
15.3
15.21
15.28
15.52
15.96
16.62
17.42
18.15
18.53
18.32
17.45
16.1
14.57
13.21
12.23
11.62
11.2
10.74
10.06
9.12
8.01
6.92
5.97
5.22
4.64
4.15
3.63
3.02
2.28
1.35
0.21
-1.18
-2.78
-4.51
-6.26
-7.91
-9.42
-10.85
-12.29
-13.82
-15.46
-17.14
-18.78
-20.33
-21.84
-23.45
-25.43
-27.96
-31.09
-34.65
-38.15
-40.83
-41.93
-40.79
-37.15
-31.25
-23.77
-15.62
-7.71
-0.68
5.17
9.82
13.45
16.19
18.17
19.39
19.9
19.77
19.18
18.35
17.49
16.77
16.3
16.11
16.23
16.61
17.24
18.06
19.03
20.04
20.91
21.44
21.41
20.72
19.41
17.67
15.84
14.2
12.92
12.0
11.31
10.65
9.89
8.98
7.98
6.94
5.96
5.07
4.24
3.4
2.5
1.48
0.37
-0.76
-1.86
-2.9
-3.9
-4.89
-5.94
-7.07
-8.32
-9.67
-11.16
-12.77
-14.47
-16.14
-17.69
-19.06
-20.35
-21.77
-23.59
-26.02
-29.03
-32.31
-35.22
-36.98
-36.85
-34.39
-29.64
-23.09
-15.6
-8.08
-1.25
4.42
8.8
11.93
13.97
15.06
15.38
15.14
14.61
14.07
13.7
13.56
13.62
13.78
13.94
14.1
14.26
14.51
14.89
15.42
16.05
16.68
17.17
17.39
17.23
16.62
15.61
14.29
12.82
11.35
9.97
8.74
7.64
6.65
5.74
4.88
4.04
3.17
2.25
1.28
0.31
-0.6
-1.39
-2.07
-2.7
-3.45
-4.53
-6.1
-8.2
-10.69
-13.28
-15.67
-17.64
-19.16
-20.4
-21.68
-23.3
-25.49
-28.27
-31.43
-34.56
-37.11
-38.42
-37.91
-35.23
-30.36
-23.76
-16.19
-8.58
-1.71
3.94
8.28
11.47
13.74
15.33
16.34
16.87
17.01
16.9
16.74
16.67
16.74
16.91
17.1
17.25
17.38
17.59
17.98
18.62
19.44
20.27
20.87
21.02
20.64
19.77
18.54
17.11
15.62
14.17
12.81
11.57
10.49
9.56
8.73
7.95
7.19
6.43
5.68
4.94
4.16
3.28
2.23
1.0
-0.34
-1.68
-2.92
-3.99
-4.91
-5.76
-6.65
-7.68
-8.93
-10.43
-12.14
-13.92
-15.62
-17.17
-18.63
-20.12
-21.84
-23.97
-26.54
-29.45
-32.46
-35.14
-36.92
-37.23
-35.58
-31.81
-26.16
-19.26
-11.98
-5.13
0.74
5.41
8.9
11.37
13.02
14.02
14.57
14.86
15.05
15.21
15.35
15.41
15.34
15.15
14.96
14.88
15.02
15.42
16.02
16.71
17.32
17.69
17.7
17.32
16.6
15.71
14.78
13.88
12.98
11.98
10.81
9.46
8.05
6.74
5.68
4.91
4.34
3.85
3.33
2.78
2.21
1.69
1.21
0.74
0.22
-0.41
-1.18
-2.12
-3.29
-4.75
-6.49
-8.44
-10.47
-12.45
-14.3
-16.06
-17.85
-19.86
-22.21
-24.95
-28.02
-31.18
-34.05
-36.07
-36.7
-35.5
-32.38
-27.53
-21.44
-14.74
-8.02
-1.77
3.66
8.01
11.17
13.15
14.11
14.32
14.08
13.62
13.1
12.6
12.13
11.77
11.59
11.64
11.94
12.49
13.28
14.26
15.37
16.49
17.48
18.16
18.38
18.07
17.31
16.24
15.02
13.82
12.7
11.65
10.64
9.63
8.58
7.54
6.52
5.57
4.72
4.01
3.44
2.97
2.47
1.83
0.91
-0.31
-1.71
-3.12
-4.37
-5.42
-6.35
-7.35
-8.59
-10.17
-11.99
-13.91
-15.74
-17.34
-18.69
-19.86
-20.98
-22.26
-23.89
-26.03
-28.68
-31.62
-34.4
-36.35
-36.79
-35.22
-31.5
-25.91
-19.06
-11.75
-4.67
1.66
6.97
11.19
14.3
16.37
17.52
18.01
18.12
18.15
18.24
18.38
18.44
18.3
17.92
17.39
16.89
16.57
16.48
16.62
16.9
17.23
17.51
17.59
17.35
16.65
15.51
14.07
12.57
11.25
10.19
9.32
8.43
7.37
6.14
4.86
3.75
2.94
2.44
2.12
1.84
1.45
0.85
-0.01
-1.13
-2.5
-4.01
-5.47
-6.67
-7.46
-7.87
-8.12
-8.52
-9.32
-10.55
-12.07
-13.61
-14.97
-16.09
-17.09
-18.19
-19.63
-21.52
-23.85
-26.44
-28.98
-30.96
-31.82
-30.98
-28.07
-23.13
-16.64
-9.4
-2.36
3.68
8.28
11.38
13.24
14.22
14.63
14.65
14.34
13.75
12.95
12.08
11.26
10.6
10.13
9.86
9.78
9.96
10.43
11.21
12.22
13.28
14.14
14.57
14.39
13.59
12.23
10.53
8.72
7.01
5.53
4.33
3.38
2.6
1.92
1.25
0.56
-0.16
-0.85
-1.43
-1.86
-2.13
-2.35
-2.72
-3.5
-4.89
-6.91
-9.37
-11.94
-14.24
-16.03
-17.33
-18.37
-19.54
-21.19
-23.48
-26.34
-29.43
-32.27
-34.33
-35.07
-34.08
-31.17
-26.44
-20.25
-13.28
-6.27
0.12
5.49
9.73
12.91
15.18
16.66
17.45
17.6
17.25
16.54
15.68
14.82
14.1
13.61
13.43
13.6
14.13
14.97
15.96
16.94
17.69
18.07
18.02
17.52
16.64
15.5
14.22
12.98
11.87
10.95
10.16
9.38
8.48
7.4
6.19
5.0
4.01
3.36
3.05
2.99
3.01
2.91
2.59
1.97
1.07
-0.05
-1.33
-2.72
-4.16
-5.61
-7.08
-8.55
-10.06
-11.67
-13.38
-15.15
-16.9
-18.51
-19.98
-21.43
-23.06
-25.15
-27.83
-30.97
-34.12
-36.59
-37.61
-36.58
-33.3
-27.99
-21.31
-14.05
-6.98
-0.68
4.55
8.61
11.55
13.51
14.7
15.34
15.66
15.81
15.83
15.7
15.38
14.87
14.25
13.69
13.36
13.39
13.81
14.5
15.31
16.05
16.59
16.85
16.84
16.56
16.03
15.24
14.2
12.98
11.64
10.33
9.11
8.05
7.13
6.32
5.63
5.03
4.51
4.04
3.53
2.88
2.02
0.99
-0.13
-1.19
-2.13
-2.94
-3.79
-4.86
-6.33
-8.23
-10.47
-12.8
-14.93
-16.68
-18.02
-19.12
-20.33
-21.98
-24.28
-27.17
-30.3
-33.03
-34.63
-34.45
-32.14
-27.76
-21.76
-14.86
-7.86
-1.45
3.92
8.04
10.96
12.84
13.91
14.42
14.54
14.43
14.2
13.91
13.62
13.33
13.08
12.89
12.86
13.04
13.52
14.28
15.24
16.26
17.17
17.83
18.12
17.99
17.42
16.45
15.14
13.61
11.97
10.37
8.89
7.55
6.32
5.12
3.89
2.63
1.42
0.39
-0.4
-0.95
-1.39
-1.92
-2.65
-3.6
-4.64
-5.6
-6.37
-7.03
-7.75
-8.81
-10.32
-12.25
-14.37
-16.38
-18.08
-19.47
-20.76
-22.26
-24.3
-27.03
-30.34
-33.87
-37.02
-39.1
-39.43
-37.59
-33.43
-27.3
-19.85
-11.95
-4.41
2.19
7.57
11.74
14.87
17.19
18.86
19.96
20.55
20.67
20.36
19.72
18.86
17.91
17.01
16.33
15.99
16.06
16.52
17.24
18.05
18.78
19.27
19.41
19.18
18.58
17.66
16.56
15.38
14.21
13.11
12.03
10.94
9.81
8.71
7.74
7.01
6.54
6.27
6.05
5.73
5.17
4.33
3.2
1.83
0.32
-1.25
-2.77
-4.2
-5.57
-6.97
-8.46
-10.11
-11.89
-13.66
-15.34
-16.84
-18.16
-19.44
-20.84
-22.54
-24.66
-27.22
-30.14
-33.18
-35.96
-37.9
-38.36
-36.83
-33.05
-27.21
-19.92
-12.06
-4.58
1.8
6.72
10.23
12.59
14.13
15.09
15.56
15.57
15.18
14.58
13.98
13.58
13.47
13.58
13.75
13.88
13.96
14.09
14.41
14.97
15.73
16.52
17.13
17.41
17.27
16.7
15.75
14.52
13.13
11.72
10.41
9.22
8.14
7.07
5.92
4.63
3.25
1.9
0.73
-0.18
-0.83
-1.34
-1.91
-2.75
-3.99
-5.62
-7.5
-9.42
-11.2
-12.8
-14.25
-15.72
-17.35
-19.28
-21.6
-24.27
-27.17
-29.98
-32.24
-33.33
-32.71
-30.04
-25.38
-19.14
-12.03
-4.85
1.72
7.19
11.36
14.22
15.93
16.76
16.99
16.82
16.37
15.68
14.75
13.64
12.51
11.56
10.97
10.82
11.07
11.57
12.19
12.8
13.37
13.85
14.22
14.4
14.34
13.98
13.36
12.57
11.73
10.94
10.25
9.61
8.98
8.33
7.65
6.99
6.39
5.86
5.34
4.77
4.04
3.14
2.11
1.03
-0.08
-1.24
-2.53
-4.08
-5.92
-7.98
-10.1
-12.09
-13.82
-15.31
-16.7
-18.22
-20.09
-22.41
-25.21
-28.37
-31.62
-34.56
-36.57
-37.0
-35.31
-31.31
-25.36
-18.22
-10.84
-4.06
1.63
6.12
9.59
12.2
14.1
15.33
15.93
16.04
15.84
15.54
15.28
15.12
15.08
15.11
15.22
15.39
15.63
15.96
16.35
16.76
17.13
17.34
17.28
16.89
16.24
15.45
14.67
13.99
13.37
12.7
11.91
10.97
9.94
8.94
8.04
7.26
6.58
5.96
5.39
4.82
4.2
3.45
2.48
1.3
-0.02
-1.38
-2.68
-3.94
-5.26
-6.74
-8.45
-10.35
-12.28
-14.09
-15.66
-17.0
-18.17
-19.32
-20.6
-22.12
-23.95
-26.05
-28.26
-30.2
-31.32
-31.05
-28.95
-24.95
-19.34
-12.78
-6.02
0.26
5.63
9.91
13.12
15.34
16.67
17.21
17.07
16.39
15.32
14.03
12.71
11.55
10.76
10.48
10.75
11.45
12.36
13.23
13.9
14.32
14.55
14.64
14.56
14.2
13.44
12.19
10.55
8.72
6.94
5.44
4.3
3.47
2.83
2.25
1.6
0.89
0.1
-0.69
-1.41
-2.06
-2.69
-3.41
-4.34
-5.57
-7.08
-8.75
-10.45
-12.02
-13.33
-14.4
-15.31
-16.28
-17.57
-19.39
-21.84
-24.72
-27.56
-29.68
-30.36
-29.12
-25.87
-20.92
-14.94
-8.66
-2.72
2.47
6.68
9.91
12.21
13.7
14.51
14.8
14.68
14.26
13.59
12.74
11.78
10.84
10.06
9.59
9.51
9.81
10.43
11.28
12.27
13.27
14.09
14.51
14.39
13.69
12.55
11.25
10.06
9.21
8.75
8.56
8.43
8.15
7.54
6.56
5.31
3.97
2.77
1.89
1.39
1.2
1.12
0.94
0.52
-0.21
-1.2
-2.34
-3.52
-4.66
-5.75
-6.84
-7.97
-9.16
-10.42
-11.69
-12.96
-14.21
-15.48
-16.77
-18.1
-19.46
-20.9
-22.5
-24.37
-26.47
-28.58
-30.17
-30.58
-29.25
-25.93
-20.88
-14.76
-8.4
-2.51
2.53
6.61
9.81
12.22
13.88
14.8
15.06
14.85
14.41
13.99
13.7
13.49
13.29
12.96
12.51
12.04
11.7
11.61
11.83
12.3
12.89
13.45
13.82
13.88
13.55
12.79
11.65
10.24
8.76
7.38
6.27
5.43
4.78
4.22
3.66
3.11
2.67
2.42
2.34
2.31
2.1
1.57
0.69
-0.38
-1.4
-2.2
-2.75
-3.19
-3.76
-4.67
-5.94
-7.46
-9.02
-10.42
-11.57
-12.52
-13.43
-14.47
-15.77
-17.38
-19.34
-21.6
-24.01
-26.28
-27.91
-28.3
-26.97
-23.77
-19.01
-13.35
-7.62
-2.51
1.6
4.65
6.79
8.25
9.24
9.89
10.33
10.59
10.69
10.63
10.39
10.01
9.55
9.1
8.76
8.61
8.68
9.01
9.59
10.38
11.24
12.0
12.49
12.65
12.46
12.02
11.38
10.58
9.63
8.53
7.37
6.26
5.29
4.48
3.74
2.95
2.0
0.87
-0.35
-1.55
-2.65
-3.64
-4.57
-5.51
-6.51
-7.63
-8.88
-10.28
-11.83
-13.49
-15.19
-16.86
-18.47
-20.04
-21.66
-23.49
-25.66
-28.18
-30.91
-33.45
-35.24
-35.68
-34.26
-30.83
-25.66
-19.35
-12.69
-6.39
-0.93
3.49
6.91
9.45
11.26
12.47
13.24
13.74
14.12
14.49
14.84
15.1
15.19
15.07
14.8
14.47
14.21
14.11
14.24
14.61
15.14
15.71
16.12
16.2
15.87
15.19
14.32
13.42
12.62
11.94
11.34
10.79
10.24
9.67
9.05
8.34
7.54
6.66
5.76
4.94
4.21
3.54
2.83
1.99
1.02
-0.01
-1.04
-2.04
-3.12
-4.39
-5.97
-7.85
-9.85
-11.74
-13.32
-14.53
-15.52
-16.54
-17.93
-19.95
-22.73
-26.19
-30.07
-33.85
-36.88
-38.43
-37.93
-35.15
-30.28
-23.89
-16.79
-9.76
-3.47
1.74
5.74
8.63
10.64
12.04
13.06
13.9
14.59
15.08
15.27
15.12
14.69
14.17
13.83
13.88
14.4
15.34
16.49
17.64
18.57
19.19
19.49
19.52
19.34
18.99
18.46
17.71
16.72
15.49
14.09
12.63
11.22
9.97
8.89
7.97
7.1
6.22
5.26
4.26
3.24
2.29
1.44
0.64
-0.22
-1.27
-2.65
-4.4
-6.46
-8.66
-10.78
-12.64
-14.15
-15.39
-16.58
-18.0
-19.93
-22.52
-25.66
-29.0
-32.0
-34.0
-34.38
-32.79
-29.14
-23.74
-17.2
-10.27
-3.67
2.04
6.55
9.81
11.93
13.19
13.85
14.18
14.31
14.28
14.03
13.54
12.86
12.15
11.67
11.68
12.24
13.29
14.6
15.9
17.02
17.85
18.32
18.39
18.03
17.27
16.22
15.12
14.17
13.44
12.88
12.24
11.34
10.11
8.69
7.39
6.42
5.85
5.56
5.28
4.76
3.89
2.7
1.33
-0.07
-1.42
-2.73
-4.07
-5.51
-7.07
-8.76
-10.54
-12.38
-14.25
-16.15
-18.07
-20.03
-22.03
-24.1
-26.31
-28.72
-31.33
-33.96
-36.19
-37.4
-36.96
-34.43
-29.84
-23.62
-16.51
-9.34
-2.76
2.88
7.47
11.06
13.71
15.48
16.42
16.67
16.42
15.92
15.38
14.96
14.74
14.7
14.79
14.94
15.17
15.53
16.1
16.94
17.97
19.0
19.74
19.91
19.39
18.29
16.86
15.42
14.2
13.25
12.5
11.81
11.06
10.2
9.29
8.4
7.65
7.13
6.85
6.71
6.56
6.2
5.46
4.35
2.97
1.53
0.22
-0.9
-1.89
-2.9
-4.07
-5.51
-7.23
-9.2
-11.31
-13.45
-15.5
-17.38
-19.05
-20.63
-22.32
-24.37
-27.0
-30.23
-33.75
-36.97
-39.08
-39.31
-37.19
-32.71
-26.39
-19.1
-11.82
-5.29
0.11
4.35
7.64
10.22
12.22
13.7
14.62
15.0
14.87
14.37
13.64
12.89
12.28
11.95
11.96
12.33
13.02
13.93
14.95
15.98
16.88
17.53
17.78
17.56
16.81
15.59
14.02
12.25
10.45
8.77
7.34
6.21
5.36
4.69
4.04
3.28
2.34
1.26
0.12
-0.92
-1.84
-2.67
-3.57
-4.71
-6.2
-8.03
-10.06
-12.09
-13.93
-15.53
-16.96
-18.39
-20.04
-22.15
-24.83
-28.02
-31.46
-34.62
-36.83
-37.38
-35.79
-31.94
-26.13
-19.03
-11.48
-4.25
2.11
7.3
11.28
14.12
15.96
16.99
17.4
17.4
17.18
