12.44
-6.68
-27.45
-48.51
-68.42
-85.86
-99.73
-109.17
-113.67
-113.12
-107.87
-98.64
-86.45
-72.48
-57.8
-43.26
-29.32
-16.07
-3.27
9.4
22.04
34.39
45.8
55.41
62.53
66.99
69.24
70.24
71.21
73.1
76.21
80.03
83.3
84.4
81.99
75.39
64.9
51.5
36.45
20.79
5.0
-10.88
-27.02
-43.44
-59.86
-75.69
-90.19
-102.65
-112.45
-119.12
-122.29
-121.77
-117.62
-110.28
-100.54
-89.42
-77.9
-66.72
-56.2
-46.29
-36.75
-27.39
-18.22
-9.45
-1.36
5.76
11.74
16.43
19.69
21.34
21.29
19.6
16.65
13.0
9.25
5.81
2.72
-0.34
-3.96
-8.77
-15.27
-23.53
-33.1
-42.89
-51.34
-56.69
-57.49
-53.01
-43.51
-30.2
-14.91
0.44
14.3
25.77
34.62
41.09
45.7
48.98
51.35
53.11
54.44
55.42
56.11
56.48
56.46
55.94
54.84
53.16
50.97
48.43
45.64
42.66
39.45
35.91
31.94
27.54
22.83
17.99
13.26
8.86
4.92
1.47
-1.6
-4.46
-7.29
-10.24
-13.4
-16.82
-20.55
-24.65
-29.14
-33.93
-38.86
-43.73
-48.43
-53.08
-57.98
-63.58
-70.28
-78.2
-87.0
-95.84
-103.5
-108.69
-110.44
-108.33
-102.67
-94.31
-84.4
-74.08
-64.34
-55.85
-49.05
-44.11
-41.01
-39.55
-39.37
-40.07
-41.29
-42.76
-44.33
-45.83
-47.15
-48.08
-48.31
-47.36
-44.64
-39.47
-31.4
-20.32
-6.63
8.77
24.79
40.4
54.83
67.68
78.81
88.2
95.85
101.77
106.07
109.0
110.98
112.54
114.16
116.24
118.95
122.28
126.09
130.05
133.73
136.59
138.06
137.67
135.27
131.12
125.92
120.63
116.2
113.21
111.64
110.89
110.06
108.21
104.79
99.79
93.68
87.18
81.01
75.65
71.34
68.05
65.62
63.81
62.32
60.9
59.35
57.58
55.6
53.47
51.2
48.71
45.9
42.65
38.93
34.74
30.06
24.77
18.68
11.66
3.79
-4.54
-12.74
-20.32
-27.07
-33.16
-39.0
-44.9
-50.81
-56.3
-60.75
-63.77
-65.39
-66.16
-66.88
-68.32
-71.11
-75.55
-81.78
-89.63
-98.55
-107.55
-115.24
-120.26
-121.75
-119.66
-114.81
-108.55
-102.25
-96.87
-92.76
-89.82
-87.71
-86.15
-84.96
-84.11
-83.64
-83.51
-83.6
-83.57
-82.93
-81.2
-78.09
-73.77
-68.75
-63.81
-59.6
-56.44
-54.2
-52.48
-50.89
-49.27
-47.66
-46.17
-44.75
-43.12
-40.83
-37.54
-33.22
-28.2
-23.06
-18.41
-14.71
-12.1
-10.49
-9.6
-9.15
-8.86
-8.66
-8.63
-8.98
-10.02
-12.05
-15.28
-19.7
-24.99
-30.42
-34.95
-37.34
-36.54
-32.01
-23.88
-12.96
-0.5
12.19
24.02
34.32
42.81
49.53
54.69
58.6
61.54
63.73
65.28
66.2
66.47
66.15
65.36
64.3
63.16
62.06
61.04
60.13
59.35
58.78
58.39
58.03
57.43
56.26
54.37
51.77
48.75
45.62
42.66
39.91
37.27
34.51
31.5
28.2
24.7
21.17
17.73
14.41
11.18
7.92
4.45
0.59
-3.83
-8.97
-14.89
-21.45
-28.27
-34.59
-39.38
-41.61
-40.48
-35.72
-27.71
-17.34
-5.8
5.77
16.37
25.28
32.0
36.32
38.36
38.59
37.76
36.7
36.04
36.02
36.52
37.18
37.7
38.02
38.3
38.86
39.91
41.46
43.33
45.2
46.75
47.83
48.39
48.45
48.07
47.27
46.1
44.61
42.99
41.46
40.29
39.63
39.45
39.53
39.64
39.63
39.61
39.87
40.74
42.43
44.9
47.92
51.24
54.63
58.05
61.63
65.59
70.33
76.45
84.71
95.92
110.62
128.72
149.24
170.45
190.21
206.53
217.99
223.95
224.43
219.9
211.05
198.74
183.88
167.43
150.25
132.91
115.65
98.43
81.16
63.85
46.73
30.19
14.63
0.35
-12.6
-24.31
-35.0
-44.89
-54.13
-62.68
-70.32
-76.62
-81.15
-83.59
-83.95
-82.52
-79.78
-76.16
-71.87
-66.9
-61.08
-54.29
-46.47
-37.65
-27.8
-16.8
-4.49
9.28
24.47
40.86
58.07
75.59
92.72
108.41
121.16
129.19
130.85
125.23
112.62
94.53
73.29
51.33
30.47
11.48
-5.81
-22.19
-38.63
-55.78
-73.91
-92.86
-112.26
-131.69
-150.74
-169.0
-186.03
-201.36
-214.52
-225.27
-233.69
-240.23
-245.61
-250.55
-255.5
-260.54
-265.36
-269.38
-272.02
-272.89
-271.97
-269.61
-266.39
-262.95
-259.59
-256.28
-252.64
-248.11
-242.21
-234.58
-224.9
-212.88
-198.22
-180.75
-160.67
-138.63
-115.74
-93.3
-72.47
-54.18
-39.04
-27.49
-19.85
-16.05
-15.4
-16.26
-16.3
-13.07
-4.91
8.35
25.31
43.51
60.36
74.04
83.86
90.12
93.65
95.28
95.57
94.87
93.4
91.41
89.16
86.83
84.47
81.99
79.24
76.14
72.77
69.36
66.35
64.12
62.87
62.43
62.25
61.54
59.59
56.07
51.17
45.5
39.81
34.61
30.0
25.59
20.79
15.04
8.11
0.15
-8.38
-16.93
-25.03
-32.45
-39.23
-45.65
-52.2
-59.37
-67.39
-75.94
-83.83
-89.17
-89.71
-83.72
-70.63
-51.39
-28.28
-4.23
18.06
36.71
50.84
60.45
66.06
68.42
68.44
67.08
65.34
64.04
63.66
64.16
65.09
65.7
65.2
62.98
58.8
52.79
45.41
37.26
28.85
20.47
12.12
3.57
-5.41
-14.91
-24.72
-34.44
-43.54
-51.51
-58.06
-63.14
-66.92
-69.64
-71.49
-72.55
-72.84
-72.34
-71.23
-69.87
-68.86
-68.88
-70.45
-73.92
-79.34
-86.49
-94.92
-103.9
-112.3
-118.68
-121.41
-119.1
-110.96
-97.09
-78.46
-56.55
-32.94
-8.94
14.58
37.06
58.09
77.26
94.21
108.64
120.4
129.46
135.81
139.47
140.46
138.95
135.38
130.43
124.95
119.75
115.5
112.52
110.9
110.47
110.99
112.11
113.52
114.85
115.75
115.75
114.3
110.77
104.58
95.5
83.86
70.68
57.53
46.03
37.4
31.85
28.53
25.76
21.54
14.3
3.25
-11.34
-28.47
-46.79
-65.1
-82.73
-99.48
-115.38
-130.25
-143.36
-153.4
-158.85
-158.53
-152.2
-140.74
-125.92
-109.87
-94.29
-80.24
-68.19
-58.11
-49.69
-42.43
-35.78
-29.17
-22.1
-14.09
-5.17
4.08
12.66
19.53
24.0
25.94
25.7
23.91
21.6
19.4
17.31
14.88
11.66
7.51
2.53
-3.03
-8.87
-13.61
-16.33
-17.01
-16.28
-14.73
-12.63
-10.17
-7.63
-5.25
-0.84
7.16
18.7
32.48
47.24
62.24
76.84
90.1
100.92
111.9
124.64
138.53
151.64
162.95
173.1
183.33
194.52
206.75
223.95
247.5
274.65
300.08
319.67
332.34
339.51
343.66
318.3
253.71
162.14
67.71
-13.0
-75.98
-123.56
-159.12
-185.32
-204.12
-212.49
-209.53
-198.03
-182.98
-168.58
-156.85
-148.35
-143.1
-140.93
-138.06
-132.15
-123.85
-115.89
-110.54
-108.11
-107.67
-108.18
-108.95
-107.51
-102.65
-95.09
-86.79
-79.24
-72.27
-65.31
-58.48
-52.84
-48.61
-45.67
-43.71
-42.05
-39.83
-35.36
-27.87
-18.16
-8.15
0.81
8.33
14.8
20.91
27.24
35.39
46.64
61.28
78.5
97.28
116.94
137.32
158.45
172.02
171.73
156.96
133.52
108.67
87.04
70.09
57.12
46.76
37.5
29.63
24.08
21.6
21.78
23.59
26.52
28.97
29.92
28.76
26.39
24.03
22.42
21.23
19.8
17.72
14.85
11.41
7.46
3.3
-1.45
-6.35
-12.18
-19.76
-29.29
-40.22
-51.38
-61.61
-69.89
-75.94
-80.23
-83.95
-88.0
-92.59
-97.26
-101.07
-103.13
-102.77
-99.72
-94.02
-86.1
-76.42
-65.44
-53.66
-41.66
-30.03
-19.31
-9.84
-1.66
5.24
11.03
15.87
19.87
23.01
25.22
26.45
26.71
26.14
24.97
23.47
21.89
20.34
18.84
17.32
15.71
14.07
12.53
11.24
10.23
9.38
8.38
6.79
4.25
0.6
-3.93
-8.73
-12.89
-15.44
-15.65
-13.21
-8.42
-2.01
5.02
11.65
17.08
20.83
22.69
22.76
21.27
18.57
15.07
11.14
7.15
3.37
0.03
-2.68
-4.69
-6.01
-6.77
-7.18
-7.46
-7.84
-8.42
-9.22
-10.2
-11.28
-12.43
-13.66
-14.97
-16.37
-17.8
-19.1
-20.1
-20.66
-20.74
-20.46
-20.05
-19.85
-20.11
-20.97
-22.37
-24.15
-26.08
-28.01
-29.91
-31.9
-34.14
-36.78
-39.9
-43.4
-47.04
-50.35
-52.74
-53.51
-52.1
-48.27
-42.25
-34.69
-26.49
-18.55
-11.49
-5.54
-0.61
3.57
7.29
10.78
14.19
17.6
21.08
24.64
28.23
31.78
35.2
38.45
41.56
44.65
47.83
51.27
55.04
59.1
63.27
67.23
70.53
72.76
73.59
72.88
70.67
67.18
62.76
57.76
52.53
47.35
42.3
37.36
32.36
27.15
21.64
15.87
9.99
4.15
-1.56
-7.2
-12.87
-18.67
-24.65
-30.75
-36.88
-42.93
-48.7
-53.79
-57.59
-59.34
-58.43
-54.64
-48.31
-40.31
-31.68
-23.34
-15.89
-9.55
-4.29
-0.08
3.15
5.45
6.98
7.99
8.76
9.47
10.12
10.57
10.65
10.29
9.57
8.75
8.15
8.02
8.41
9.17
10.01
10.57
10.65
10.24
9.57
8.93
8.56
8.52
8.68
8.81
8.71
8.31
7.67
6.87
5.96
4.85
3.37
1.31
-1.5
-5.11
-9.52
-14.64
-20.36
-26.44
-32.47
-37.82
-41.74
-43.56
-42.9
-39.84
-34.91
-28.86
-22.51
-16.44
-10.98
-6.19
-2.06
1.5
4.47
6.81
8.45
9.36
9.54
9.04
7.96
6.49
4.89
3.42
2.34
1.79
1.9
2.68
4.07
5.88
7.8
9.44
10.45
10.65
10.12
9.21
8.3
7.69
7.42
7.28
6.95
6.2
4.93
3.24
1.25
-0.89
-3.1
-5.28
-7.39
-9.38
-11.23
-13.09
-15.14
-17.55
-20.33
-23.2
-25.63
-27.0
-26.83
-24.96
-21.61
-17.28
-12.59
-8.06
-4.06
-0.76
1.83
3.73
5.03
5.81
6.24
6.48
6.74
7.15
7.82
8.76
9.92
11.2
12.46
13.63
14.67
15.58
16.42
17.19
17.79
18.03
17.65
16.46
14.41
11.65
8.5
5.25
2.14
-0.79
-3.65
-6.56
-9.59
-12.69
-15.73
-18.58
-21.18
-23.64
-26.13
-28.91
-32.18
-36.07
-40.6
-45.69
-51.05
-56.21
-60.5
-63.18
-63.64
-61.58
-57.18
-51.0
-43.89
-36.61
-29.74
-23.51
-17.93
-12.86
-8.13
-3.69
0.48
4.33
7.84
11.02
13.98
16.83
19.66
22.46
25.14
27.57
29.63
31.34
32.76
33.93
34.76
35.02
34.44
32.89
30.46
27.45
24.22
21.01
17.86
14.65
11.22
7.5
3.59
-0.26
-3.82
-6.9
-9.48
-11.67
-13.64
-15.58
-17.62
-19.87
-22.37
-25.03
-27.6
-29.64
-30.6
-29.99
-27.6
-23.62
-18.63
-13.38
-8.53
-4.45
-1.17
1.53
3.9
6.1
8.2
10.12
11.78
13.09
14.03
14.62
14.92
15.04
15.01
14.83
14.44
13.82
13.04
12.25
11.66
11.41
11.47
11.71
11.89
11.82
11.4
10.65
9.64
8.41
6.93
5.08
2.77
0.01
-3.11
-6.39
-9.66
-12.86
-16.04
-19.4
-23.19
-27.62
-32.74
-38.42
-44.29
-49.8
-54.32
-57.24
-58.11
-56.78
-53.38
-48.37
-42.34
-35.95
-29.68
-23.82
-18.38
-13.22
-8.12
-2.86
2.66
8.39
14.2
19.86
25.14
29.85
33.89
37.29
40.14
42.58
44.7
46.48
47.86
48.76
49.1
48.86
48.0
46.46
44.21
41.26
37.78
34.05
30.39
27.01
23.97
21.11
18.24
15.18
11.9
8.5
5.14
1.92
-1.15
-4.22
-7.51
-11.28
-15.71
-20.81
-26.31
-31.63
-35.98
-38.56
-38.77
-36.46
-31.96
-25.98
-19.32
-12.72
-6.61
-1.15
3.71
8.1
12.09
15.68
18.89
21.68
24.1
26.17
27.93
29.33
30.32
30.83
30.88
30.58
30.07
29.48
28.92
28.41
27.92
27.35
26.62
25.64
24.3
22.58
20.51
18.16
15.66
13.08
10.4
7.53
4.39
0.98
-2.56
-6.04
-9.28
-12.26
-15.04
-17.84
-20.83
-24.19
-27.96
-32.06
-36.19
-39.82
-42.29
-42.89
-41.2
-37.19
-31.31
-24.39
-17.27
-10.65
-4.88
-0.01
4.05
7.44
10.29
12.74
14.91
16.89
18.67
20.1
20.97
21.1
20.48
19.34
18.05
17.0
16.44
16.44
16.92
17.68
18.49
19.1
19.35
19.07
18.25
16.98
15.4
13.66
11.84
9.89
7.73
5.28
2.59
-0.21
-2.94
-5.43
-7.64
-9.64
-11.59
-13.74
-16.35
-19.61
-23.52
-27.85
-32.11
-35.59
-37.57
-37.48
-35.06
-30.5
-24.29
-17.19
-9.96
-3.24
2.62
7.47
11.39
14.55
17.07
19.03
20.42
21.23
21.5
21.36
20.94
20.37
19.73
19.04
18.4
17.9
17.67
17.75
18.05
18.32
18.3
17.78
16.72
15.21
13.42
11.47
9.39
7.18
4.81
2.3
-0.26
-2.79
-5.21
-7.52
-9.78
-12.1
-14.6
-17.35
-20.42
-23.79
-27.33
-30.79
-33.76
-35.66
-35.93
-34.11
-30.1
-24.19
-17.01
-9.39
-2.08
4.41
9.81
14.09
17.34
19.65
21.14
21.96
22.3
22.39
22.39
22.39
22.36
22.21
21.87
21.38
20.88
20.53
20.41
20.43
20.37
20.0
19.13
17.78
16.01
13.95
11.67
9.24
6.68
4.07
1.56
-0.68
-2.58
-4.2
-5.76
-7.51
-9.65
-12.17
-14.93
-17.73
-20.53
-23.46
-26.77
-30.57
-34.61
-38.2
-40.33
-40.15
-37.24
-31.9
-24.98
-17.61
-10.72
-4.83
0.03
4.14
7.87
11.43
14.82
17.88
20.39
22.22
23.41
24.12
24.57
24.91
25.16
25.2
24.95
24.39
23.62
22.82
22.12
21.49
20.78
19.83
18.45
16.62
14.4
11.94
9.42
6.98
4.74
2.73
0.87
-0.99
-3.04
-5.39
-8.08
-10.99
-13.91
-16.7
-19.3
-21.78
-24.37
-27.32
-30.85
-34.97
-39.37
-43.39
-46.2
-47.01
-45.42
-41.51
-35.86
-29.26
-22.43
-15.82
-9.59
-3.75
1.69
6.63
10.9
14.38
17.07
19.09
20.58
21.65
22.34
22.63
22.52
22.12
21.57
20.99
20.45
19.9
19.24
18.42
17.44
16.42
15.47
14.62
13.82
12.91
11.78
10.4
8.83
7.21
5.56
3.86
1.99
-0.12
-2.45
-4.86
-7.18
-9.31
-11.29
-13.32
-15.67
-18.56
-22.0
-25.78
-29.41
-32.22
-33.5
-32.67
-29.49
-24.13
-17.08
-9.08
-0.85
7.01
14.1
20.17
25.12
28.86
31.4
32.8
33.2
32.83
31.87
30.47
28.66
26.47
24.01
21.49
19.1
17.07
15.53
14.52
13.95
13.63
13.32
12.74
11.67
9.87
7.29
4.1
0.66
-2.65
-5.59
-8.12
-10.35
-12.53
-14.95
-17.77
-20.72
-23.39
-25.5
-27.11
-28.49
-29.99
-31.91
-34.61
-38.29
-42.43
-46.38
-49.64
-52.09
-53.75
-54.46
-54.04
-52.75
-50.78
-47.68
-43.02
-36.94
-30.35
-24.43
-19.86
-16.71
-14.91
-13.41
-9.8
-1.71
12.14
31.28
54.25
79.68
106.51
133.49
152.84
157.53
145.71
122.63
95.86
70.4
48.06
31.73
18.51
6.72
-3.18
-10.04
-13.27
-13.44
-13.12
-13.67
-15.84
-20.43
-27.14
-34.5
-40.84
-45.01
-46.95
-47.38
-46.92
-46.21
-46.17
-47.11
-48.76
-50.89
-53.61
-57.38
-62.36
-67.75
-71.98
-73.42
-70.41
-61.77
-47.34
-28.03
-5.71
17.22
38.43
55.87
68.0
74.32
75.34
72.43
67.29
61.45
55.91
51.02
46.52
41.85
36.59
30.59
24.07
17.38
10.87
4.76
-0.81
-5.63
-9.32
-11.27
-10.95
-8.11
-2.97
3.85
11.59
19.64
27.65
35.49
43.07
50.15
56.24
60.76
63.17
63.26
61.18
57.38
52.63
47.87
43.95
41.4
40.28
40.14
40.26
39.81
38.06
34.81
30.38
25.38
20.19
14.82
8.96
2.2
-5.75
-15.35
-26.54
-38.76
-51.28
-63.58
-75.42
-86.63
-97.0
-106.2
-114.53
-121.98
-128.07
-132.38
-134.89
-135.89
-135.66
-134.15
-131.09
-126.87
-121.55
-114.52
-105.16
-93.41
-79.74
-64.88
-49.51
-29.25
-4.17
21.76
44.02
60.4
71.11
77.13
79.36
78.47
75.21
70.42
64.51
58.9
55.13
54.04
55.51
58.8
62.87
66.73
69.19
68.62
65.05
59.35
52.52
45.42
38.65
32.54
27.14
21.86
16.16
10.21
4.39
-0.87
-5.23
-8.44
-10.38
-11.11
-11.07
-10.76
-10.28
-9.63
-8.78
-7.71
-6.42
-4.94
-3.38
-2.03
-1.27
-1.34
-2.37
-4.42
-7.35
-10.85
-14.53
-18.02
-21.06
-23.6
-25.68
-27.5
-29.31
-31.31
-33.49
-35.6
-37.08
-37.25
-35.55
-31.7
-25.95
-18.95
-11.58
-4.66
1.18
5.66
8.72
10.51
11.26
11.27
10.84
10.18
9.44
8.63
7.74
6.74
5.66
4.63
3.78
3.23
3.06
3.32
4.05
5.3
7.07
9.32
11.92
14.6
17.09
19.06
20.27
20.55
19.84
18.16
15.65
12.53
9.08
5.57
2.18
-1.07
-4.36
-7.94
-12.04
-16.69
-21.59
-26.08
-29.31
-30.39
-28.76
-24.31
-17.52
-9.3
-0.74
7.12
13.57
18.25
21.15
22.52
22.72
22.11
21.03
19.72
18.34
16.93
15.47
13.89
12.21
10.48
8.88
7.63
6.86
6.58
6.65
6.83
6.89
6.67
6.14
5.32
4.26
2.91
1.15
-1.1
-3.94
-7.29
-11.0
-14.82
-18.49
-21.78
-24.57
-26.9
-28.98
-31.22
-34.08
-37.86
-42.55
-47.63
-52.13
-54.89
-54.9
-51.68
-45.41
-36.88
-27.18
-17.38
-8.24
-0.16
6.73
12.44
16.98
20.37
22.66
24.0
24.61
24.71
24.49
24.09
23.68
23.49
23.78
24.8
26.61
29.11
32.07
35.25
38.58
42.16
46.16
50.69
55.66
60.75
65.41
68.97
70.69
69.92
66.19
59.4
49.93
38.61
26.47
14.47
3.11
-7.66
-18.41
-29.9
-42.65
-56.62
-70.98
-84.26
-94.66
-100.53
-100.85
-95.43
-85.0
-70.99
-55.12
-39.12
-24.41
-11.97
-2.23
4.86
9.73
13.03
15.47
17.59
19.7
21.82
23.82
25.52
26.85
27.88
28.8
29.84
31.1
32.53
33.94
35.0
35.47
35.18
34.11
32.35
30.02
27.23
24.02
20.46
16.65
12.72
8.82
5.02
1.33
-2.38
-6.32
-10.74
-15.92
-22.05
-29.14
-36.89
-44.57
-51.12
-55.35
-56.3
-53.53
-47.3
-38.55
-28.59
-18.79
-10.24
-3.52
1.26
4.37
6.24
7.3
7.83
8.01
7.94
7.69
7.35
6.95
6.42
5.61
4.35
2.63
0.6
-1.46
-3.26
-4.64
-5.56
-6.1
-6.38
-6.53
-6.67
-6.96
-7.49
-8.26
-9.06
-9.51
-9.19
-7.8
-5.31
-1.98
1.65
4.91
7.09
7.54
5.85
1.98
-3.61
-9.93
-15.62
-19.34
-20.07
-17.51
-12.07
-4.71
3.37
11.1
17.72
22.88
26.54
28.86
30.12
30.62
30.66
30.5
30.3
30.12
29.91
29.54
28.9
27.94
26.72
25.44
24.27
23.39
22.86
22.62
22.49
22.23
21.56
20.26
18.16
15.22
11.51
7.27
2.75
-1.73
-5.97
-9.92
-13.71
-17.57
-21.82
-26.64
-32.14
-38.29
-45.0
-52.08
-59.16
-65.66
-70.69
-73.28
-72.63
-68.36
-60.67
-50.24
-38.04
-25.0
-11.84
0.98
13.17
24.57
35.14
45.01
54.43
63.73
73.13
82.63
91.98
100.76
108.52
114.92
119.83
123.3
125.53
126.74
127.15
126.94
126.18
124.88
122.98
120.39
116.97
112.57
107.1
100.54
93.02
84.77
76.07
67.11
57.91
48.26
37.8
26.2
13.24
-1.02
-16.3
-32.17
-48.06
-63.32
-77.25
-89.17
-98.56
-105.2
-109.3
-111.38
-112.13
-112.22
-112.13
-112.14
-112.31
-112.65
-113.07
-113.38
-113.28
-112.39
-110.41
-107.23
-103.01
-98.08
-92.8
-87.38
-81.9
-76.26
-70.47
-64.61
-58.91
-53.61
-48.87
-44.72
-41.12
-38.0
-35.4
-33.44
-32.25
-31.89
-32.25
-33.08
-33.98
-34.62
-34.75
-34.33
-33.47
-32.41
-31.41
-30.72
-30.55
-31.03
-32.18
-33.78
-35.27
-35.81
-34.5
-30.59
-23.88
-14.75
-4.15
6.74
16.84
25.38
32.04
36.85
40.02
41.88
42.73
42.79
42.18
40.86
38.74
35.68
31.71
27.05
22.13
17.5
13.63
10.76
8.87
7.64
6.69
5.7
4.55
3.3
2.07
0.95
-0.14
-1.39
-3.0
-4.98
-7.21
-9.36
-11.14
-12.39
-13.21
-13.87
-14.71
-15.97
-17.81
-20.28
-23.31
-26.72
-30.11
-32.78
-33.91
-32.63
-28.41
-21.28
-11.86
-1.25
9.32
18.83
26.72
32.87
37.51
41.02
43.69
45.72
47.17
48.05
48.42
48.38
48.08
47.63
47.11
46.58
46.06
45.59
45.21
44.93
44.7
44.35
43.71
42.61
40.87
38.5
35.49
31.91
27.79
23.16
18.07
12.6
6.95
1.35
-3.95
-8.82
-13.24
-17.36
-21.47
-25.85
-30.75
-36.24
-42.06
-47.59
-51.93
-54.03
-53.09
-48.76
-41.31
-31.62
-20.88
-10.37
-1.04
6.5
12.11
15.96
18.39
19.81
20.49
20.6
20.18
19.25
17.85
16.13
14.32
12.62
11.14
9.93
8.92
8.05
7.24
6.42
5.54
4.53
3.36
2.07
0.7
-0.65
-1.96
-3.26
-4.67
-6.29
-8.16
-10.29
-12.56
-14.84
-16.98
-18.93
-20.74
-22.63
-24.91
-27.94
-31.84
-36.39
-40.9
-44.32
-45.53
-43.69
-38.5
-30.37
-20.27
-9.45
0.88
9.8
16.84
21.88
25.14
26.95
27.67
27.58
26.88
25.69
24.06
22.1
19.96
17.86
16.03
14.61
13.61
12.9
12.25
11.46
10.45
9.34
8.35
7.71
7.46
7.44
7.32
6.75
5.53
3.68
1.42
-0.93
-3.14
-5.08
-6.76
-8.35
-10.0
-11.89
-14.17
-16.94
-20.17
-23.57
-26.53
-28.13
-27.42
-23.65
-16.66
-6.99
4.26
15.74
26.29
35.15
42.1
47.25
50.87
53.2
54.42
54.7
54.23
53.26
52.05
50.82
49.71
48.82
48.21
47.92
48.04
48.59
49.53
50.76
52.11
53.36
54.32
54.83
54.8
54.22
53.11
51.48
49.26
46.2
41.99
36.31
29.02
20.22
10.25
-0.46
-11.54
-22.75
-34.09
-45.61
-57.34
-69.12
-80.54
-90.98
-99.65
-105.74
-108.6
-107.84
-103.54
-96.23
-86.88
-76.69
-66.87
-58.34
-51.59
-46.63
-43.14
-40.69
-38.93
-37.61
-36.61
-35.81
-35.08
-34.24
-33.1
-31.51
-29.38
-26.69
-23.49
-19.9
-16.07
-12.23
-8.57
-5.27
-2.4
-0.06
1.7
2.79
3.13
2.72
1.61
-0.03
-2.04
-4.2
-6.34
-8.32
-10.07
-11.61
-13.12
-14.94
-17.5
-21.11
-25.81
-31.18
-36.36
-40.21
-41.58
-39.66
-34.23
-25.72
-15.15
-3.84
6.91
16.14
23.33
28.48
31.94
34.19
35.72
36.86
37.77
38.49
38.97
39.14
38.97
38.45
37.66
36.75
35.92
35.38
35.26
35.59
36.19
36.8
37.09
36.77
35.7
33.86
31.4
28.53
25.45
22.3
19.13
15.91
12.62
9.33
6.21
3.45
1.14
-0.79
-2.66
-4.95
-8.1
-12.36
-17.63
-23.39
-28.74
-32.66
-34.17
-32.7
-28.17
-21.12
-12.54
-3.63
4.52
11.19
16.08
19.36
21.44
22.83
23.92
24.93
25.85
26.6
27.08
27.29
27.28
27.16
27.01
26.89
26.79
26.75
26.78
26.93
27.13
27.26
27.12
26.48
25.23
23.4
21.14
18.63
16.05
13.42
10.65
7.58
4.09
0.18
-3.99
-8.16
-12.06
-15.49
-18.4
-20.95
-23.43
-26.24
-29.74
-34.13
-39.21
-44.32
-48.39
-50.24
-48.92
-44.13
-36.38
-26.8
-16.75
-7.39
0.63
7.14
12.31
16.38
19.51
21.79
23.27
24.05
24.24
23.94
23.23
22.12
20.67
18.96
17.19
15.54
14.16
13.11
12.34
11.66
10.85
9.72
8.16
6.23
4.08
1.91
-0.19
-2.28
-4.52
-7.01
-9.74
-12.55
-15.2
-17.49
-19.35
-20.82
-22.07
-23.28
-24.7
-26.54
-28.92
-31.72
-34.5
-36.54
-36.95
-35.02
-30.41
-23.32
-14.42
-4.67
4.95
13.6
20.74
26.15
29.91
32.32
33.77
34.59
35.0
35.09
34.92
34.55
34.04
33.44
32.67
31.58
29.99
27.93
25.58
23.31
21.47
20.19
19.34
18.57
17.54
16.03
14.11
11.99
9.9
7.97
6.18
4.33
2.26
-0.1
-2.68
-5.29
-7.76
-9.99
-12.05
-14.15
-16.55
-19.43
-22.82
-26.61
-30.51
-34.09
-36.77
-37.94
-37.01
-33.61
-27.74
-19.85
-10.8
-1.65
6.62
13.31
18.14
21.22
22.92
23.74
24.14
24.42
24.72
24.96
24.96
24.51
23.48
21.85
19.7
17.21
14.57
11.96
9.51
7.29
5.34
3.62
2.04
0.48
-1.18
-2.99
-4.98
-7.13
-9.41
-11.82
-14.4
-17.16
-20.11
-23.13
-26.06
-28.67
-30.76
-32.28
-33.29
-34.06
-34.96
-36.37
-38.58
-41.54
-44.85
-47.68
-49.0
-47.85
-43.66
-36.51
-27.1
-16.57
-6.12
3.3
11.15
17.34
22.03
25.46
27.86
29.43
30.37
30.83
30.94
30.66
29.89
28.55
26.62
24.3
21.89
19.7
17.92
16.55
15.42
14.34
13.12
11.66
9.95
8.02
5.94
3.78
1.61
-0.5
-2.56
-4.6
-6.68
-8.85
-11.12
-13.44
-15.79
-18.15
-20.57
-23.14
-26.01
-29.36
-33.27
-37.65
-42.14
-46.07
-48.58
-48.89
-46.54
-41.6
-34.66
-26.64
-18.53
-11.09
-4.76
0.29
4.12
6.89
8.81
10.07
10.86
11.34
11.55
11.46
11.05
10.35
9.48
8.62
7.92
7.45
7.17
7.0
6.86
6.73
6.63
6.58
6.51
6.32
5.91
5.24
4.33
3.24
2.05
0.76
-0.61
-1.99
-3.23
-4.19
-4.81
-5.2
-5.68
-6.66
-8.49
-11.26
-14.73
-18.31
-21.17
-22.48
-21.58
-18.25
-12.69
-5.55
2.27
9.87
16.5
21.75
25.48
27.86
29.17
29.77
29.96
29.95
29.77
29.33
28.52
27.23
25.46
23.32
21.0
18.71
16.65
14.98
13.81
13.15
12.9
12.88
12.89
12.78
12.49
12.05
11.52
10.92
10.19
9.2
7.8
5.95
3.65
1.03
-1.74
-4.49
-7.13
-9.66
-12.17
-14.83
-17.81
-21.21
-24.96
-28.72
-31.87
-33.63
-33.23
-30.18
-24.47
-16.59
-7.49
1.72
10.01
16.71
21.49
24.46
25.97
26.46
26.38
26.06
25.67
25.25
24.73
23.98
22.87
21.36
19.51
17.5
15.61
14.12
13.18
12.79
12.76
12.77
12.49
11.74
10.49
8.83
6.94
4.96
2.96
0.97
-1.03
-3.05
-5.07
-7.08
-9.1
-11.19
-13.44
-15.95
-18.82
-22.15
-26.04
-30.54
-35.49
-40.47
-44.72
-47.32
-47.46
-44.71
-39.25
-31.79
-23.3
-14.74
-6.78
0.24
6.16
10.92
14.49
16.88
18.24
18.81
18.94
18.87
18.77
18.59
18.26
17.67
16.81
15.79
14.81
14.05
13.62
13.45
13.36
13.08
12.41
11.32
9.97
8.61
7.51
6.77
6.33
6.0
5.57
4.9
3.99
2.88
1.64
0.24
-1.39
-3.34
-5.69
-8.49
-11.81
-15.77
-20.44
-25.68
-31.0
-35.54
-38.25
-38.26
-35.22
-29.48
-21.96
-13.85
-6.23
0.17
5.07
8.52
10.82
12.3
13.32
14.17
15.03
16.0
17.03
18.03
18.85
19.38
19.6
19.52
19.23
18.83
18.43
18.1
17.89
17.78
17.72
17.6
17.32
16.79
15.97
14.88
13.62
12.3
11.0
9.77
8.59
7.44
6.31
5.25
4.33
3.66
3.25
3.03
2.84
2.39
1.41
-0.32
-2.81
-5.75
-8.53
-10.25
-9.99
-7.13
-1.52
6.4
15.72
25.38
34.45
42.33
48.81
53.92
57.83
60.73
62.81
64.28
65.23
65.7
65.52
64.44
62.26
58.9
54.55
49.49
44.03
38.28
32.13
25.32
17.59
8.83
-0.88
-11.26
-21.88
-32.22
-41.68
-49.69
-55.87
-60.22
-63.21
-65.65
-68.42
-72.17
-77.0
-82.48
-87.82
-92.16
-94.95
-96.05
-95.75
-94.63
-93.39
-92.58
-92.61
-93.53
-95.05
-96.52
-97.01
-95.55
-91.4
-84.31
-74.62
-63.22
-51.25
-39.81
-29.61
-20.95
-13.71
-7.53
-2.07
2.96
7.7
12.19
16.38
20.23
23.69
26.67
29.11
30.97
32.28
33.1
33.54
33.75
33.78
33.7
33.51
33.22
32.83
32.34
31.66
30.69
29.3
27.47
25.21
22.63
19.82
16.83
13.62
10.16
6.47
2.66
-1.09
-4.64
-7.97
-11.19
-14.57
-18.4
-22.94
-28.19
-33.83
-39.22
-43.43
-45.58
-45.04
-41.69
-35.98
-28.76
-21.06
-13.82
-7.66
-2.98
0.09
1.64
1.85
1.07
-0.3
-1.84
-3.27
-4.51
-5.69
-7.01
-8.66
-10.68
-12.94
-15.17
-17.1
-18.52
-19.32
-19.55
-19.36
-18.94
-18.46
-18.06
-17.73
-17.41
-16.94
-16.17
-15.02
-13.51
-11.76
-9.99
-8.31
-6.72
-5.07
-3.17
-0.87
1.77
4.51
7.0
8.84
9.79
9.73
8.76
7.27
5.86
5.38
6.7
10.46
16.81
25.31
35.08
45.02
54.2
61.99
68.1
72.49
75.2
76.39
76.26
75.09
73.2
70.87
68.25
65.33
62.01
58.22
54.03
49.66
45.43
41.68
38.65
36.36
34.66
33.28
31.87
30.15
27.94
25.17
21.9
18.25
14.4
10.51
6.68
2.91
-0.87
-4.77
-8.85
-13.02
-17.1
-20.86
-24.09
-26.74
-28.97
-31.08
-33.43
-36.31
-39.74
-43.52
-47.21
-50.21
-51.91
-51.83
-49.72
-45.62
-39.93
-33.26
-26.37
-19.89
-14.27
-9.61
-5.8
-2.55
0.42
3.26
5.96
8.37
10.38
11.92
13.15
14.32
15.73
17.54
19.69
21.92
23.88
25.29
26.03
26.14
25.74
24.97
23.88
22.48
20.76
18.75
16.53
14.21
11.89
9.69
7.63
5.7
3.82
1.83
-0.52
-3.45
-7.18
-11.77
-17.12
-22.86
-28.39
-32.91
-35.62
-35.86
-33.39
-28.43
-21.73
-14.26
-7.02
-0.72
4.32
8.12
10.91
12.9
14.27
15.1
15.5
15.63
15.69
15.85
16.09
16.26
16.04
15.17
13.6
11.49
9.2
7.03
5.11
3.28
1.19
-1.5
-4.9
-8.78
-12.66
-16.0
-18.48
-20.12
-21.28
-22.4
-23.82
-25.58
-27.47
-29.17
-30.48
-31.47
-32.47
-33.93
-36.22
-39.37
-42.99
-46.27
-48.24
-47.99
-44.99
-39.26
-31.36
-22.18
-12.66
-3.64
4.38
11.15
16.68
21.03
24.37
26.87
28.74
30.21
31.47
32.65
33.79
34.87
35.8
36.53
37.1
37.58
38.12
38.77
39.52
40.2
40.68
40.84
40.69
40.36
40.02
39.72
39.39
38.82
37.75
36.03
33.61
30.59
27.07
23.09
18.56
13.29
7.07
-0.19
-8.5
-17.66
-27.35
-37.02
-46.05
-53.7
-59.35
-62.62
-63.47
-62.25
-59.65
-56.44
-53.35
-50.88
-49.18
-48.1
-47.34
-46.51
-45.37
-43.77
-41.78
-39.52
-37.19
-34.9
-32.71
-30.59
-28.47
-26.25
-23.78
-20.98
-17.84
-14.46
-11.05
-7.89
-5.22
-3.13
-1.59
-0.44
0.49
1.24
1.77
1.92
1.5
0.45
-1.12
-2.98
-4.9
-6.74
-8.54
-10.47
-12.79
-15.72
-19.36
-23.65
-28.27
-32.65
-36.02
-37.51
-36.45
-32.53
-25.98
-17.52
-8.16
1.08
9.41
16.37
21.87
26.02
29.08
31.35
33.12
34.59
35.91
37.08
38.02
38.59
38.66
38.15
37.11
35.73
34.21
32.75
31.42
30.2
28.95
27.54
25.89
24.0
21.9
19.65
17.31
14.9
12.47
10.04
7.56
4.97
2.18
-0.83
-4.0
-7.14
-10.1
-12.81
-15.39
-18.1
-21.29
-25.19
-29.83
-35.0
-40.14
-44.52
-47.28
-47.66
-45.21
-40.01
-32.65
-24.11
-15.51
-7.75
-1.33
3.67
7.51
10.52
12.95
14.93
16.46
17.47
17.91
17.75
17.02
15.78
14.17
12.38
10.67
9.28
8.35
7.93
7.88
8.0
8.13
8.19
8.23
8.39
8.85
9.7
10.92
12.4
13.96
15.46
16.79
17.97
19.13
20.47
22.18
24.38
27.0
29.87
32.71
35.32
37.59
39.59
41.48
43.61
46.37
50.27
55.78
63.17
72.44
83.15
94.51
105.56
115.34
123.11
128.47
131.27
131.48
129.01
123.67
115.18
103.33
88.1
69.78
48.92
26.24
2.52
-21.42
-44.67
-66.18
-84.83
-99.64
-110.05
-116.11
-118.47
-118.14
-116.13
-113.16
-109.53
-105.29
-100.33
-94.63
-88.26
-81.43
-74.34
-67.18
-60.09
-53.19
-46.57
-40.34
-34.66
-29.75
-25.85
-23.12
-21.59
-21.09
-21.37
-22.15
-23.25
-24.61
-26.07
-27.28
-27.55
-26.0
-21.87
-14.9
-5.52
5.18
15.78
24.99
32.02
36.7
39.4
40.74
41.32
41.56
41.58
41.34
40.66
39.38
37.42
34.78
31.58
28.01
24.32
20.81
17.82
15.69
14.66
14.8
15.91
17.54
19.09
19.91
19.54
17.82
14.91
11.23
7.28
3.52
0.22
-2.55
-4.86
-6.86
-8.68
-10.44
-12.26
-14.28
-16.63
-19.48
-22.95
-27.06
-31.77
-36.91
-42.12
-46.86
-50.39
-51.91
-50.75
-46.66
-39.97
-31.49
-22.37
-13.7
-6.24
-0.37
3.89
6.66
8.1
8.3
7.41
5.69
3.51
1.35
-0.44
-1.68
-2.48
-3.07
-3.64
-4.17
-4.38
-3.86
-2.24
0.6
4.42
8.75
12.91
16.33
18.64
19.76
19.85
19.23
18.2
17.01
15.73
14.29
12.56
10.39
7.77
4.75
1.53
-1.71
-4.8
-7.7
-10.49
-13.43
-16.85
-21.09
-26.34
-32.46
-38.82
-44.44
-48.22
-49.31
-47.41
-42.86
-36.5
-29.29
-22.02
-15.13
-8.76
-2.86
2.6
7.58
11.99
15.79
19.01
21.78
24.2
26.35
28.17
29.51
30.18
30.07
29.27
28.05
26.81
25.9
25.42
25.24
25.06
24.52
23.42
21.69
19.46
16.92
14.29
11.76
9.45
7.44
5.67
4.03
2.3
0.24
-2.3
-5.36
-8.81
-12.46
-16.07
-19.45
-22.49
-25.21
-27.81
-30.57
-33.83
-37.78
-42.25
-46.68
-50.12
-51.54
-50.17
-45.83
-38.94
-30.45
-21.4
-12.64
-4.64
2.48
8.72
14.09
18.51
21.92
24.35
25.98
27.08
27.81
28.18
28.02
27.15
25.51
23.29
20.89
18.73
17.13
16.21
15.9
16.04
16.43
16.89
17.16
16.99
16.14
14.54
12.33
9.89
7.63
5.86
4.68
3.93
3.32
2.53
1.3
-0.44
-2.61
-4.99
-7.26
-9.14
-10.52
-11.61
-12.88
-14.92
-18.13
-22.49
-27.44
-31.99
-35.0
-35.56
-33.24
-28.15
-20.91
-12.44
-3.74
4.31
11.09
16.31
20.04
22.56
24.26
25.49
26.42
27.1
27.5
27.66
27.68
27.68
27.72
27.7
27.43
26.72
25.53
23.92
22.03
19.93
17.58
14.86
11.7
8.21
4.63
1.33
-1.38
-3.3
-4.42
-4.86
-4.87
-4.73
-4.74
-5.13
-6.01
-7.33
-8.89
-10.47
-11.93
-13.44
-15.31
-17.86
-21.18
-24.91
-28.31
-30.47
-30.66
-28.59
-24.41
-18.61
-11.77
-4.45
2.91
9.94
16.34
21.93
26.65
30.51
33.59
35.87
37.24
37.53
36.57
34.23
30.47
25.39
19.25
12.53
5.97
0.45
-3.28
-4.81
-4.24
-2.2
0.44
2.83
4.46
5.24
5.44
5.52
5.88
6.65
7.65
8.45
8.56
7.6
5.47
2.36
-1.37
-5.33
-9.26
-13.15
-17.17
-21.58
-26.62
-32.33
-38.49
-44.59
-49.85
-53.46
-54.71
-53.24
-49.16
-42.97
-35.37
-27.02
-18.3
-9.3
0.13
10.11
20.53
30.82
40.02
46.91
50.39
49.91
45.65
38.52
29.92
21.27
13.58
7.33
2.47
-1.32
-4.41
-7.05
-9.37
-11.42
-13.18
-14.58
-15.47
-15.68
-15.11
-13.77
-11.84
-9.59
-7.34
-5.42
-4.12
-3.69
-4.3
-5.93
-8.34
-11.13
-13.87
-16.37
-18.77
-21.57
-25.28
-30.09
-35.58
-40.75
-44.34
-45.22
-42.89
-37.56
-30.09
-21.64
-13.34
-6.01
-0.03
4.62
8.27
11.42
14.53
17.9
21.49
24.96
27.7
29.1
28.81
26.88
23.84
20.46
17.47
15.33
14.11
13.58
13.37
13.23
12.98
12.63
12.22
11.82
11.49
11.24
11.02
10.69
9.97
8.61
6.38
3.3
-0.37
-4.22
-7.82
-10.86
-13.29
-15.26
-17.07
-19.01
-21.32
-24.11
-27.35
-30.82
-34.03
-36.34
-37.06
-35.65
-31.98
-26.4
-19.68
-12.81
-6.6
-1.51
2.47
5.71
8.61
11.41
14.02
16.17
17.53
18.01
17.83
17.49
17.5
18.16
19.4
20.83
21.95
22.44
22.26
21.65
20.93
20.23
19.44
18.31
16.62
14.4
11.95
9.69
7.99
7.06
6.86
7.17
7.69
8.01
7.79
6.77
4.87
2.28
-0.68
-3.65
-6.46
-9.18
-12.13
-15.72
-20.2
-25.55
-31.34
-36.87
-41.27
-43.74
-43.69
-40.95
-35.8
-28.9
-21.18
-13.58
-6.87
-1.54
2.27
4.69
6.03
6.62
6.77
6.74
6.76
7.01
7.66
8.72
10.08
11.48
12.65
13.39
13.71
13.73
13.69
13.71
13.78
13.69
13.18
12.02
10.11
7.53
4.47
1.16
-2.21
-5.56
-8.85
-12.05
-15.13
-17.99
-20.49
-22.6
-24.36
-25.95
-27.67
-29.78
-32.4
-35.35
-38.1
-39.86
-39.74
-37.07
-31.57
-23.47
-13.47
-2.52
8.42
18.6
27.55
35.11
41.3
46.24
50.0
52.62
54.03
54.19
53.07
50.81
47.68
44.08
40.46
37.18
34.47
32.43
30.99
30.02
29.32
28.7
27.96
26.95
25.56
23.81
21.78
19.65
17.58
15.68
13.97
12.37
10.72
8.9
6.79
4.36
1.7
-1.08
-3.85
-6.5
-9.04
-11.61
-14.46
-17.79
-21.66
-25.88
-29.91
-32.94
-34.12
-32.8
-28.7
-22.1
-13.76
-4.72
3.97
11.48
17.37
21.61
24.46
26.3
27.48
28.22
28.56
28.47
27.87
26.74
25.09
22.9
20.14
16.75
12.69
8.01
2.96
-2.08
-6.68
-10.45
-13.21
-15.0
-16.01
-16.42
-16.35
-15.81
-14.71
-13.01
-10.75
-8.09
-5.28
-2.57
-0.21
1.53
2.36
1.98
0.18
-3.05
-7.43
-12.46
-17.58
-22.42
-26.9
-31.23
-35.73
-40.55
-45.45
-49.77
-52.52
-52.79
-50.03
-44.34
-36.51
-27.78
-19.54
-12.86
-8.22
-5.41
-3.66
-1.97
0.5
4.2
9.04
14.51
19.91
24.6
28.19
30.54
31.75
32.06
31.73
31.07
30.37
29.89
29.79
30.05
30.49
30.84
30.83
30.29
29.25
27.87
26.35
24.89
23.58
22.39
21.24
20.0
18.59
16.96
15.19
13.37
11.61
9.95
8.36
6.76
5.05
3.2
1.27
-0.66
-2.61
-4.71
-7.24
-10.45
-14.43
-18.99
-23.63
-27.65
-30.43
-31.54
-30.9
-28.78
-25.7
-22.28
-19.09
-16.56
-14.96
-14.32
-14.58
-15.53
-16.89
-18.32
-19.45
-19.97
-19.76
-18.99
-18.14
-17.89
-18.79
-20.97
-23.97
-26.84
-28.56
-28.41
-26.25
-22.45
-17.7
-12.63
-7.72
-3.33
0.2
2.5
3.29
2.6
0.93
-0.91
-2.04
-1.82
-0.09
2.98
6.96
11.36
15.66
19.27
21.59
22.23
21.26
19.33
17.64
17.54
19.97
25.03
31.95
39.28
45.42
49.15
49.9
47.81
43.51
37.93
31.97
26.41
21.75
18.24
15.83
14.25
13.13
12.12
10.98
9.67
8.3
7.05
6.1
5.54
5.42
5.68
6.16
6.66
6.91
6.7
5.9
4.52
2.64
0.39
-2.14
-4.92
-7.96
-11.26
-14.75
-18.24
-21.38
-23.81
-25.23
-25.6
-25.14
-24.35
-23.9
-24.39
-26.22
-29.38
-33.45
-37.64
-40.9
-42.14
-40.42
-35.16
-26.23
-13.99
0.73
16.77
32.73
47.22
59.07
67.47
72.12
73.2
71.18
66.68
60.26
52.36
43.32
33.44
23.0
12.24
1.31
-9.72
-20.79
-31.62
-41.74
-50.48
-57.21
-61.59
-63.75
-64.2
-63.64
-62.6
-61.24
-59.37
-56.68
-53.07
-48.85
-44.73
-41.54
-39.93
-40.07
-41.65
-44.01
-46.4
-48.24
-49.24
-49.41
-48.97
-48.25
-47.52
-46.96
-46.5
-45.87
-44.6
-42.2
-38.33
-32.95
-26.31
-18.89
-11.21
-3.62
3.66
10.58
17.14
23.34
29.17
34.61
39.54
43.72
46.81
48.43
48.28
46.33
42.83
38.31
33.32
28.4
23.94
20.26
17.64
16.34
16.48
17.93
20.27
22.78
24.63
25.13
23.9
20.99
16.81
11.95
6.96
2.19
-2.28
-6.53
-10.65
-14.54
-17.95
-20.57
-22.24
-23.21
-24.09
-25.77
-29.0
-34.09
-40.62
-47.53
-53.38
-56.85
-57.11
-54.07
-48.29
-40.77
-32.54
-24.44
-16.97
-10.33
-4.58
0.32
4.39
7.64
10.09
11.75
12.7
13.05
13.02
12.9
13.03
13.64
14.82
16.47
18.39
20.4
22.44
24.58
26.92
29.42
31.87
33.86
35.02
35.07
33.97
31.92
29.26
26.42
23.73
21.4
19.43
17.64
15.84
13.89
11.79
9.69
7.71
5.8
3.66
0.83
-3.13
-8.42
-14.83
-21.74
-28.27
-33.47
-36.53
-36.95
-34.62
-29.86
-23.33
-15.85
-8.23
-1.06
5.36
11.02
16.06
20.54
24.4
27.4
29.23
29.73
28.92
27.1
24.65
21.99
19.38
17.03
15.04
13.49
12.4
11.66
11.0
10.11
8.71
6.79
4.57
2.42
0.65
-0.65
-1.61
-2.5
-3.55
-4.78
-6.09
-7.25
-8.12
-8.66
-8.98
-9.3
-9.93
-11.2
-13.38
-16.6
-20.65
-25.0
-28.79
-31.04
-30.96
-28.16
-22.77
-15.35
-6.71
2.33
11.08
19.0
25.79
31.33
35.65
38.91
41.26
42.84
43.68
43.78
43.16
41.92
40.28
38.51
36.84
35.44
34.41
33.81
33.67
33.99
34.71
35.65
36.56
37.14
37.1
36.27
34.59
32.13
29.1
25.67
21.98
18.03
13.72
8.95
3.66
-2.12
-8.29
-14.84
-21.91
-29.78
-38.78
-49.07
-60.49
-72.5
-84.23
-94.69
-102.94
-108.28
-110.36
-109.21
-105.21
-98.98
-91.3
-82.93
-74.44
-66.13
-58.02
-49.88
-41.42
-32.39
-22.73
-12.59
-2.28
7.83
17.35
25.96
33.39
39.47
44.18
47.74
50.62
53.48
57.07
61.97
68.37
75.9
83.63
90.25
94.41
95.07
91.82
84.95
75.34
64.23
52.87
42.31
33.2
25.85
20.22
16.04
12.97
10.64
8.71
6.87
4.9
2.72
0.42
-1.72
-3.36
-4.24
-4.41
-4.16
-4.07
-4.68
-6.34
-9.1
-12.77
-17.06
-21.69
-26.44
-31.18
-35.71
-39.8
-43.15
-45.51
-46.71
-46.67
-45.52
-43.48
-40.86
-38.02
-35.25
-32.79
-30.76
-29.2
-28.07
-27.29
-26.77
-26.44
-26.22
-25.97
-25.54
-24.77
-23.56
-22.01
-20.37
-18.97
-18.06
-17.68
-17.64
-17.6
-17.31
-16.76
-16.22
-16.15
-17.0
-18.98
-21.87
-25.01
-27.43
-28.12
-26.33
-21.78
-14.74
-5.91
3.77
13.32
22.0
29.3
35.04
39.26
42.25
44.38
46.03
47.49
48.91
50.29
51.5
52.43
53.02
53.29
53.36
53.44
53.68
54.15
54.81
55.46
55.83
55.62
54.63
52.8
50.23
47.12
43.67
39.99
36.07
31.75
26.87
21.31
15.07
8.39
1.61
-4.88
-10.87
-16.37
-21.73
-27.43
-33.96
-41.57
-50.09
-58.9
-66.95
-73.02
-75.96
-75.03
-70.08
-61.63
-50.75
-38.77
-26.86
-15.83
-5.92
3.04
11.44
19.59
27.58
35.19
42.01
47.5
51.2
52.84
52.41
50.18
46.61
42.31
37.91
33.91
30.63
28.1
26.05
23.97
21.22
17.23
11.71
4.72
-3.23
-11.39
-18.96
-25.38
-30.46
-34.39
-37.6
-40.51
-43.37
-46.2
-48.81
-50.98
-52.56
-53.57
-54.18
-54.65
-55.33
-56.48
-58.25
-60.55
-62.96
-64.77
-65.1
-63.15
-58.38
-50.76
-40.77
-29.29
-17.4
-6.15
3.65
11.56
17.5
21.68
24.55
26.52
27.95
29.01
29.7
29.98
29.79
29.12
28.05
26.67
25.07
23.42
21.84
20.45
19.31
18.34
17.33
16.11
14.5
12.49
10.17
7.72
5.27
2.89
0.62
-1.58
-3.69
-5.64
-7.38
-8.85
-10.07
-11.09
-12.01
-13.01
-14.27
-15.99
-18.28
-21.03
-23.82
-25.91
-26.31
-24.16
-18.97
-10.83
-0.42
11.22
22.94
33.78
43.04
50.36
55.62
58.91
60.55
60.97
60.64
59.92
58.94
57.65
55.88
53.49
50.54
47.24
43.89
40.7
37.77
35.12
32.69
30.42
28.23
26.04
23.75
21.26
18.43
15.23
11.7
7.97
4.14
0.21
-3.84
-8.01
-12.25
-16.54
-20.77
-24.8
-28.5
-31.89
-35.13
-38.49
-42.09
-45.83
-49.49
-52.44
-53.66
-52.09
-47.23
-39.36
-29.48
-18.79
-8.54
-0.14
5.73
9.31
11.46
13.02
14.31
15.28
15.93
16.14
15.06
12.35
8.53
4.69
1.57
-0.92
-3.32
-5.96
-9.41
-15.19
-24.24
-36.47
-50.82
-66.05
-81.33
-95.98
-109.21
-113.78
-106.16
-89.25
-70.4
-55.25
-44.86
-37.59
-33.74
-30.7
-27.38
-24.56
-22.84
-22.16
-22.19
-21.4
-19.95
-18.37
-16.67
-14.96
-13.23
-10.15
-3.68
8.03
25.63
48.14
73.66
100.18
122.13
133.23
131.5
120.36
105.48
90.9
77.78
65.7
54.23
44.56
36.22
29.62
25.08
22.21
20.14
18.0
15.5
12.94
10.19
7.57
5.79
5.11
5.16
5.26
4.72
3.24
0.81
-2.36
-5.74
-8.46
-10.02
-10.53
-10.62
-10.91
-11.8
-13.37
-15.46
-17.87
-20.32
-22.8
-25.49
-28.63
-32.24
-36.1
-39.8
-42.9
-44.82
-44.98
-42.92
-38.54
-32.12
-24.32
-15.96
-7.86
-0.63
5.42
10.28
14.1
17.06
19.32
20.95
21.99
22.46
22.46
22.1
21.56
20.98
20.41
19.9
19.43
19.03
18.76
18.64
18.65
18.62
18.34
17.62
16.35
14.6
12.55
10.34
8.08
5.72
3.15
0.28
-2.92
-6.33
-9.74
-12.95
-15.87
-18.55
-21.19
-24.06
-27.42
-31.35
-35.72
-40.07
-43.74
-45.91
-45.85
-43.2
-38.05
-31.02
-23.0
-14.92
-7.5
-1.11
4.11
8.2
11.26
13.42
14.83
15.75
16.42
17.07
17.83
18.66
19.46
20.11
20.55
20.83
21.12
21.54
22.14
22.82
23.34
23.39
22.73
21.27
19.08
16.3
13.16
9.83
6.45
3.15
0.09
-2.64
-5.01
-7.09
-9.07
-11.17
-13.53
-16.19
-19.05
-21.9
-24.59
-27.06
-29.37
-31.57
-33.66
-35.44
-36.52
-36.48
-34.97
-31.85
-27.25
-21.52
-15.09
-8.43
-1.96
3.91
8.88
12.73
15.42
17.06
17.86
18.07
17.84
17.26
16.37
15.19
13.76
12.14
10.37
8.53
6.71
5.08
3.81
3.07
2.87
3.07
3.35
3.32
2.67
1.28
-0.68
-2.77
-4.43
-5.15
-4.7
-3.18
-1.01
1.12
2.48
2.46
0.74
-2.62
-7.22
-12.39
-17.34
-21.41
-24.27
-25.98
-26.95
-27.62
-28.25
-28.62
-28.11
-25.89
-21.19
-13.66
-3.45
8.77
21.95
34.84
46.26
55.2
61.05
63.73
63.64
61.6
58.52
55.22
52.18
49.53
47.16
44.83
42.31
39.46
36.13
32.26
27.81
22.83
17.48
12.0
6.67
1.66
-2.99
-7.45
-11.96
-16.74
-21.81
-27.03
-32.08
-36.61
-40.41
-43.46
-45.89
-47.88
-49.56
-50.97
-52.04
-52.71
-53.05
-53.27
-53.66
-54.5
-55.85
-57.51
-58.88
-59.22
-57.74
-53.94
-47.76
-39.63
-30.36
-20.95
-12.28
-4.91
0.96
5.51
9.13
12.26
15.21
18.07
20.75
23.05
24.84
26.04
26.67
26.7
26.04
24.57
22.23
19.17
15.69
12.23
9.15
6.66
4.8
3.48
2.65
2.32
2.63
3.66
5.43
7.8
10.48
13.07
15.22
16.7
17.43
17.51
17.14
16.54
15.84
15.1
14.24
13.1
11.48
9.22
6.29
2.93
-0.26
-2.41
-2.6
-0.14
5.11
12.66
21.53
30.6
38.91
45.94
51.57
55.99
59.44
62.05
63.87
64.83
64.88
63.91
61.84
58.53
53.97
48.29
41.86
35.26
29.14
24.0
20.02
17.09
14.83
12.77
10.5
7.75
4.35
0.3
-4.33
-9.33
-14.39
-19.16
-23.27
-26.53
-28.96
-30.8
-32.47
-34.39
-36.82
-39.8
-43.12
-46.46
-49.54
-52.22
-54.55
-56.72
-58.97
-61.45
-64.18
-66.97
-69.36
-70.72
-70.25
-67.21
-61.13
-52.03
-40.51
-27.58
-14.43
-2.13
8.62
17.5
24.49
29.75
33.47
35.85
37.09
37.39
36.94
35.92
34.52
32.89
31.16
29.48
27.93
26.51
25.2
23.89
22.51
21.0
19.34
17.47
15.34
12.87
10.04
6.93
3.71
0.65
-2.04
-4.25
-6.05
-7.63
-9.2
-10.98
-13.08
-15.5
-18.09
-20.64
-22.89
-24.61
-25.78
-26.52
-27.16
-28.04
-29.26
-30.52
-31.13
-30.23
-27.13
-21.68
-14.31
-5.96
2.3
9.59
15.4
19.61
22.35
23.82
24.27
23.93
23.04
21.84
20.53
19.19
17.82
16.36
14.8
13.09
11.27
9.34
7.34
5.33
3.43
1.74
0.29
-1.04
-2.52
-4.44
-6.99
-10.14
-13.7
-17.39
-20.99
-24.45
-27.8
-31.14
-34.51
-37.82
-40.91
-43.57
-45.62
-46.94
-47.47
-47.3
-46.66
-45.87
-45.32
-45.34
-45.99
-46.94
-47.54
-46.92
-44.29
-39.2
-31.68
-22.27
-11.84
-1.37
8.28
16.49
22.93
27.56
30.55
32.2
32.93
33.14
33.14
33.08
32.98
32.73
32.22
31.42
30.39
29.33
28.47
28.07
28.27
29.07
30.33
31.74
32.93
33.55
33.36
32.23
30.11
27.09
23.37
19.22
15.02
11.14
7.82
5.04
2.62
0.25
-2.22
-4.73
-6.95
-8.43
-8.86
-8.22
-6.86
-5.33
-4.33
-4.46
-6.11
-9.32
-13.64
-18.16
-21.57
-22.54
-20.09
-14.01
-4.99
5.51
15.75
24.18
29.82
32.45
32.38
30.31
26.99
23.08
19.12
15.48
12.4
9.95
8.03
6.38
4.72
2.92
1.04
-0.57
-1.39
-0.97
0.9
4.05
7.98
12.04
15.65
18.46
20.38
21.51
21.98
21.82
21.03
19.57
17.46
14.91
12.14
9.35
6.65
3.98
1.19
-1.86
-5.31
-9.28
-13.93
-19.51
-26.15
-33.71
-41.58
-48.72
-53.94
-56.29
-55.41
-51.75
-46.36
-40.49
-35.27
-31.29
-28.64
-26.98
-25.78
-24.54
-22.87
-20.52
-17.31
-13.01
-7.35
-0.08
8.94
19.53
31.18
43.18
54.74
65.31
74.67
82.9
90.22
96.74
102.4
106.9
109.8
110.71
109.32
105.51
99.41
91.33
81.81
71.42
60.68
49.89
39.06
27.96
16.33
4.0
-8.89
-22.02
-34.94
-47.25
-58.69
-69.09
-78.3
-85.92
-91.23
-93.23
-90.95
-83.86
-72.23
-57.31
-41.01
-25.43
-12.18
-2.07
4.91
9.27
11.62
12.4
11.8
9.93
6.97
3.26
-0.81
-4.92
-8.82
-12.46
-15.75
-18.56
-20.63
-21.68
-21.58
-20.46
-18.79
-17.22
-16.28
-16.18
-16.55
-16.58
-15.22
-11.58
-5.24
3.63
14.34
25.92
37.38
47.98
57.35
65.51
72.83
79.84
87.14
95.16
104.01
113.31
122.17
129.38
133.69
134.23
130.84
124.26
115.97
107.88
101.85
99.24
100.6
105.46
112.49
119.76
125.3
127.55
125.75
119.93
110.76
99.13
85.79
71.23
55.72
39.51
22.98
6.67
-8.83
-23.06
-35.76
-46.9
-56.59
-65.0
-72.31
-78.73
-84.53
-89.97
-95.19
-100.18
-104.77
-108.67
-111.69
-113.78
-115.06
-115.72
-115.97
-115.95
-115.8
-115.68
-115.83
-116.49
-117.94
-120.32
-123.71
-128.11
-133.49
-139.82
-147.09
-155.21
-164.09
-173.52
-183.33
-193.33
-203.31
-212.99
-221.84
-229.14
-233.93
-235.22
-232.06
-223.81
-210.21
-191.55
-168.86
-143.8
-118.52
-95.26
-75.8
-61.11
-51.12
-45.01
-41.61
-39.8
-38.77
-37.98
-36.99
-35.35
-32.59
-28.48
-23.24
-17.66
-12.85
-9.8
-8.89
-9.6
-10.7
-10.73
-8.64
-4.16
2.18
9.43
16.74
23.61
29.9
35.67
40.82
45.14
48.31
50.22
51.01
51.05
50.74
50.29
49.62
48.4
46.21
42.81
38.35
33.41
28.9
25.73
24.55
25.51
28.26
32.08
36.06
39.39
41.51
42.2
41.51
39.68
37.06
33.99
30.77
27.63
24.67
21.97
19.53
17.35
15.44
13.81
12.43
11.2
9.93
8.41
6.45
4.07
1.52
-0.77
-2.35
-2.91
-2.49
-1.37
-0.05
0.97
1.34
0.88
-0.43
-2.48
-5.15
-8.29
-11.74
-15.34
-18.99
-22.63
-26.27
-29.93
-33.57
-37.11
-40.46
-43.62
-46.75
-50.2
-54.37
-59.5
-65.4
-71.32
-75.95
-77.72
-75.22
-67.61
-54.96
-38.26
-19.15
0.51
19.09
35.51
49.28
60.39
69.07
75.68
80.56
84.07
86.51
88.13
89.04
89.2
88.51
86.91
84.46
81.38
78.01
74.66
71.59
68.95
66.77
65.06
63.76
62.8
62.02
61.2
60.08
58.38
55.86
52.38
47.94
42.73
37.15
31.63
26.57
22.15
18.25
14.57
10.74
6.54
1.95
-2.85
-7.61
-12.17
-16.55
-20.98
-25.81
-31.39
-37.9
-45.22
-52.73
-59.34
-63.67
-64.28
-60.19
-51.15
-37.81
-21.6
-4.31
12.34
27.11
39.36
49.07
56.62
62.5
67.18
70.87
73.62
75.35
75.93
75.4
73.91
71.74
69.17
66.42
63.64
60.92
58.38
56.19
54.53
53.46
52.9
52.58
52.17
51.37
50.03
48.15
45.89
43.37
40.67
37.81
34.72
31.36
27.74
23.92
19.96
15.97
12.05
8.26
4.69
1.35
-1.87
-5.2
-8.92
-13.38
-18.79
-25.08
-31.78
-37.98
-42.47
-44.07
-41.97
-36.0
-26.78
-15.5
-3.67
7.33
16.53
23.49
28.29
31.33
33.13
34.16
34.74
35.01
34.97
34.61
33.89
32.85
31.54
30.0
28.25
26.36
24.48
22.86
21.73
21.16
21.01
20.9
20.4
19.16
17.04
14.15
10.72
7.05
3.32
-0.33
-3.95
-7.65
-11.59
-15.94
-20.77
-25.98
-31.33
-36.47
-41.1
-45.14
-48.72
-52.21
-56.03
-60.41
-65.27
-70.02
-73.73
-75.26
-73.59
-68.16
-59.03
-46.93
-33.1
-18.95
-5.7
5.86
15.45
23.26
29.7
35.21
40.09
44.44
48.15
51.06
52.97
53.79
53.57
52.46
50.71
48.6
46.38
44.27
42.33
40.52
38.65
36.47
33.73
30.29
26.17
21.49
16.43
11.14
5.63
-0.06
-5.92
-11.79
-17.37
-22.34
-26.39
-29.38
-31.36
-32.52
-33.07
-33.2
-33.04
-32.66
-32.23
-31.95
-32.15
-33.15
-35.21
-38.4
-42.43
-46.66
-50.11
-51.67
-50.4
-45.78
-37.89
-27.46
-15.62
-3.64
7.34
16.56
23.67
28.7
32.0
34.06
35.36
36.24
36.84
37.15
37.04
36.4
35.16
33.33
31.05
28.57
26.19
24.28
23.09
22.65
22.79
23.12
23.19
22.69
21.47
19.59
17.21
14.52
11.62
8.59
5.46
2.26
-0.99
-4.32
-7.81
-11.44
-15.14
-18.62
-21.52
-23.56
-24.78
-25.51
-26.34
-27.81
-30.19
-33.38
-36.88
-40.03
-42.13
-42.54
-40.74
-36.36
-29.31
-19.85
-8.73
3.03
14.33
24.37
32.82
39.8
45.67
50.71
55.02
58.42
60.65
61.5
60.99
59.26
56.52
52.89
48.43
43.17
37.28
31.09
25.02
19.39
14.35
9.76
5.31
0.74
-4.04
-8.89
-13.55
-17.77
-21.47
-24.7
-27.6
-30.29
-32.86
-35.4
-38.01
-40.74
-43.63
-46.58
-49.44
-52.06
-54.49
-57.01
-60.1
-64.21
-69.53
-75.83
-82.38
-88.03
-91.45
-91.45
-87.28
-78.88
-66.95
-52.79
-37.92
-23.69
-11.0
-0.24
8.62
15.82
21.61
26.17
29.68
32.32
34.31
35.84
37.02
37.83
38.17
37.96
37.19
36.0
34.62
33.29
32.22
31.42
30.77
30.02
28.88
27.16
24.8
21.93
18.79
15.62
12.57
9.61
6.57
3.29
-0.34
-4.25
-8.25
-12.14
-15.79
-19.21
-22.54
-25.97
-29.72
-33.95
-38.78
-44.33
-50.61
-57.45
-64.33
-70.37
-74.44
-75.5
-72.94
-66.79
-57.77
-47.06
-35.92
-25.37
-16.0
-8.01
-1.26
4.5
9.56
14.13
18.34
22.24
25.79
28.91
31.52
33.59
35.1
36.11
36.69
36.96
37.06
37.12
37.28
37.59
38.02
38.46
38.72
38.63
38.06
36.96
35.41
33.56
31.57
29.56
27.52
25.39
23.01
20.29
17.22
13.84
10.25
6.53
2.72
-1.15
-5.07
-9.01
-13.03
-17.27
-21.99
-27.44
-33.63
-40.18
-46.2
-50.53
-52.0
-49.92
-44.26
-35.69
-25.32
-14.36
-3.79
5.73
13.87
20.55
25.82
29.82
32.81
35.07
36.92
38.55
40.02
41.17
41.76
41.54
40.41
38.46
36.01
33.52
31.37
29.78
28.65
27.7
26.54
24.82
22.43
19.4
15.93
12.26
8.56
4.95
1.48
-1.9
-5.25
-8.67
-12.2
-15.77
-19.26
-22.52
-25.44
-28.08
-30.62
-33.33
-36.43
-40.04
-44.01
-47.94
-51.13
-52.71
-51.84
-47.95
-41.06
-31.81
-21.3
-10.78
-1.25
6.81
13.39
18.77
23.28
27.1
30.28
32.82
34.81
36.4
37.83
39.26
40.76
42.27
43.64
44.75
45.54
46.04
46.33
46.48
46.51
46.35
45.86
44.93
43.49
41.61
39.44
37.19
35.03
33.03
31.09
29.0
26.49
23.31
19.37
14.67
9.39
3.8
-1.84
-7.35
-12.66
-17.82
-23.04
-28.58
-34.76
-41.78
-49.6
-57.81
-65.59
-71.86
-75.57
-76.02
-73.13
-67.51
-60.28
-52.7
-45.81
-40.17
-35.87
-32.64
-30.16
-28.17
-26.58
-25.37
-24.6
-24.28
-24.39
-24.86
-25.53
-26.15
-26.32
-25.59
-23.55
-20.01
-15.05
-9.04
-2.48
4.15
10.52
16.43
21.81
26.62
30.79
34.24
36.95
38.98
40.49
41.77
43.07
44.61
46.5
48.69
51.04
53.31
55.21
56.52
57.07
56.8
55.74
53.97
51.57
48.54
44.8
40.08
34.03
26.35
17.0
6.41
-4.49
-14.37
-21.84
-25.94
-26.37
-23.69
-19.02
-13.71
-8.87
-5.19
-2.84
-1.64
-1.26
-1.41
-1.87
-2.51
-3.24
-3.98
-4.64
-5.18
-5.63
-6.06
-6.6
-7.31
-8.17
-9.05
-9.77
-10.16
-10.19
-9.95
-9.66
-9.57
-9.81
-10.44
-11.34
-12.38
-13.44
-14.42
-15.31
-16.09
-16.72
-17.18
-17.45
-17.56
-17.59
-17.66
-17.89
-18.34
-18.96
-19.63
-20.16
-20.39
-20.28
-20.01
-19.93
-20.49
-21.99
-24.47
-27.55
-30.46
-32.31
-32.27
-29.87
-25.05
-18.24
-10.13
-1.56
6.67
13.91
19.66
23.66
25.89
26.56
26.1
25.08
23.98
23.13
22.57
22.18
21.69
20.9
19.76
18.47
17.36
16.8
16.98
17.84
19.1
20.31
21.1
21.27
20.87
20.06
19.06
18.03
17.05
16.15
15.37
14.65
13.96
13.12
12.0
10.49
8.66
6.72
4.99
3.75
3.07
2.81
2.56
1.82
0.26
-2.15
-4.97
-7.38
-8.44
-7.43
-4.09
1.27
7.88
14.8
21.21
26.57
30.67
33.47
35.04
35.43
34.73
33.05
30.54
27.36
23.7
19.71
15.55
11.41
7.55
4.21
1.59
-0.25
-1.42
-2.19
-2.89
-3.84
-5.24
-7.17
-9.6
-12.46
-15.63
-18.99
-22.41
-25.74
-28.89
-31.91
-34.99
-38.38
-42.24
-46.55
-51.1
-55.52
-59.48
-62.85
-65.73
-68.38
-71.09
-74.1
-77.45
-81.04
-84.5
-87.35
-88.9
-88.47
-85.5
-79.73
-71.34
-60.9
-49.27
-37.34
-25.93
-15.61
-6.73
0.63
6.56
11.3
15.24
18.75
22.1
25.37
28.41
30.99
32.89
34.05
34.56
34.6
34.42
34.14
33.85
33.57
33.32
33.1
32.91
32.68
32.36
31.87
31.24
30.46
29.54
28.37
26.79
24.59
21.63
17.89
13.5
8.72
3.84
-0.87
-5.22
-9.15
-12.77
-16.3
-20.0
-24.15
-28.92
-34.26
-39.87
-45.15
-49.33
-51.55
-51.15
-47.79
-41.61
-33.27
-23.8
-14.35
-5.97
0.58
4.97
7.23
7.66
6.71
4.85
2.42
-0.37
-3.47
-6.88
-10.59
-14.52
-18.5
-22.33
-25.79
-28.69
-30.94
-32.54
-33.62
-34.43
-35.27
-36.35
-37.72
-39.1
-40.04
-40.0
-38.59
-35.75
-31.72
-26.94
-21.88
-16.91
-12.31
-8.28
-4.94
-2.42
-0.72
0.29
0.81
1.04
1.02
0.67
-0.18
-1.5
-2.97
-3.85
-3.21
-0.2
5.61
14.05
24.36
35.39
46.03
55.41
63.11
69.08
73.52
76.67
78.71
79.72
79.74
78.87
77.25
75.05
72.44
69.53
66.38
63.07
59.75
56.6
53.8
51.41
49.27
47.07
44.47
41.25
37.43
33.28
29.28
25.89
23.4
21.84
20.98
20.32
19.36
17.66
15.06
11.6
7.57
3.28
-0.99
-5.2
-9.47
-14.16
-19.72
-26.57
-34.99
-44.85
-55.58
-66.09
-74.98
-80.96
-83.2
-81.58
-76.76
-69.88
-62.24
-54.93
-48.68
-43.82
-40.39
-38.2
-36.93
-36.18
-35.55
-34.76
-33.73
-32.56
-31.44
-30.55
-29.9
-29.42
-28.89
-28.17
-27.14
-25.77
-24.08
-22.08
-19.81
-17.39
-15.01
-12.89
-11.31
-10.46
-10.43
-11.22
-12.69
-14.64
-16.87
-19.23
-21.66
-24.2
-26.96
-30.04
-33.47
-37.21
-41.12
-44.99
-48.62
-51.87
-54.71
-57.26
-59.79
-62.61
-65.92
-69.65
-73.3
-76.04
-76.91
-75.09
-70.21
-62.43
-52.42
-41.12
-29.54
-18.51
-8.56
0.08
7.49
13.93
19.74
25.21
30.46
35.47
40.07
44.09
47.48
50.32
52.71
54.8
56.65
58.25
59.56
60.57
61.26
61.57
61.4
60.63
59.2
57.17
54.78
52.3
49.99
47.94
46.01
43.92
41.35
38.06
34.06
29.55
24.88
20.5
16.75
13.78
11.49
9.47
7.15
3.97
-0.33
-5.52
-10.87
-15.28
-17.63
-17.15
-13.62
-7.47
0.4
8.9
16.96
23.76
28.81
31.96
33.36
33.35
32.35
30.74
28.76
26.46
23.79
20.68
17.18
13.4
9.63
6.16
3.28
1.15
-0.16
-0.7
-0.63
-0.18
0.37
0.76
0.79
0.42
-0.29
-1.22
-2.24
-3.32
-4.53
-5.97
-7.68
-9.55
-11.38
-12.9
-13.99
-14.67
-15.16
-15.79
-16.97
-19.04
-22.2
-26.39
-31.22
-35.88
-39.32
-40.45
-38.53
-33.38
-25.46
-15.68
-5.14
5.22
14.74
23.13
30.33
36.43
41.58
45.95
49.73
53.12
56.25
59.16
61.8
63.99
65.51
66.22
66.07
65.24
64.04
62.8
61.74
60.87
59.92
58.48
56.12
52.54
47.63
41.54
34.54
26.97
19.02
10.73
1.95
-7.52
-17.81
-28.8
-40.16
-51.4
-62.06
-71.85
-80.75
-88.94
-96.7
-104.37
-112.18
-120.16
-127.97
-134.84
-139.57
-140.79
-137.34
-128.65
-115.01
-97.56
-77.96
-57.99
-39.15
-22.39
-8.07
3.95
14.06
22.74
30.37
37.19
43.32
48.82
53.66
57.81
61.16
63.62
65.16
65.86
65.98
65.88
65.94
66.38
67.16
68.03
68.52
68.23
66.86
64.34
60.86
56.74
52.4
48.19
44.38
41.07
38.25
35.82
33.69
31.83
30.33
29.3
28.85
28.95
29.4
29.83
29.84
29.13
27.67
25.81
24.26
23.97
25.95
30.92
39.2
50.55
64.25
79.33
94.74
109.63
123.39
135.73
146.49
155.57
162.91
168.47
172.36
174.84
176.3
176.95
176.65
174.68
169.85
160.79
146.29
125.65
98.83
66.6
30.43
-7.62
-45.17
-79.89
-109.92
-134.18
-152.47
-165.35
-173.79
-178.88
-181.64
-182.93
-183.42
-183.53
-183.47
-183.11
-182.19
-180.4
-177.57
-173.72
-169.0
-163.66
-157.93
-152.14
-146.59
-141.48
-136.69
-131.62
-125.33
-116.83
-105.56
-91.63
-75.78
-59.15
-42.77
-27.37
-13.31
-0.76
10.14
19.14
26.01
30.66
33.21
34.01
33.51
32.06
30.0
27.52
24.73
21.69
18.41
14.89
11.15
7.28
3.43
-0.29
-3.86
-7.42
-11.2
-15.41
-20.09
-25.03
-29.87
-34.1
-37.3
-39.19
-39.64
-38.67
-36.4
-33.0
-28.74
-23.93
-18.96
-14.1
-9.63
-5.72
-2.54
-0.32
0.69
0.38
-1.07
-3.03
-4.45
-4.09
-0.92
5.62
15.38
27.61
41.14
54.71
67.24
77.95
86.44
92.67
96.88
99.47
100.97
101.84
102.41
102.8
102.85
102.25
100.59
97.55
92.95
86.88
79.56
71.3
62.33
52.79
42.7
32.08
21.03
9.79
-1.31
-11.9
-21.71
-30.54
-38.35
-45.17
-51.12
-56.4
-61.33
-66.35
-71.83
-77.87
-84.1
-89.66
-93.39
-94.28
-91.93
-86.68
-79.54
-71.86
-64.77
-58.99
-54.72
-51.77
-49.73
-48.03
-46.03
-42.93
-37.91
-30.3
-19.84
-6.82
7.93
23.2
37.63
50.13
60.04
67.28
72.23
75.45
77.4
78.31
78.11
76.72
74.16
70.72
66.88
63.18
59.93
57.18
54.75
52.39
49.9
47.24
44.51
41.82
39.28
36.89
34.64
32.52
30.54
28.82
27.51
26.74
26.57
26.84
27.16
27.06
26.08
23.99
20.82
16.87
12.41
7.6
2.38
-3.42
-9.91
-17.04
-24.66
-32.52
-40.41
-48.03
-54.9
-60.33
-63.54
-63.93
-61.41
-56.52
-50.31
-44.04
-38.77
-35.05
-32.96
-32.21
-32.36
-33.09
-34.16
-35.5
-37.07
-38.85
-40.78
-42.86
-45.11
-47.54
-50.13
-52.84
-55.53
-58.0
-60.02
-61.42
-62.02
-61.74
-60.57
-58.58
-55.93
-52.84
-49.63
-46.64
-44.22
-42.68
-42.29
-43.12
-45.04
-47.73
-50.7
-53.45
-55.55
-56.75
-57.01
-56.48
-55.44
-54.23
-53.18
-52.52
-52.44
-53.01
-54.22
-55.95
-57.95
-59.78
-60.8
-60.25
-57.43
-51.97
-43.94
-33.97
-23.05
-12.28
-2.5
5.8
12.52
17.79
21.78
24.61
26.4
27.28
27.49
27.29
26.95
26.65
26.44
26.34
26.36
26.51
26.88
27.59
28.73
30.35
32.38
34.64
36.83
38.61
39.7
39.93
39.32
38.01
36.22
34.1
31.67
28.88
25.62
21.84
17.61
13.14
8.68
4.45
0.51
-3.29
-7.24
-11.71
-16.99
-23.09
-29.6
-35.64
-40.06
-41.68
-39.65
-33.79
-24.59
-13.16
-0.81
11.25
22.15
31.5
39.22
45.43
50.35
54.19
57.15
59.41
61.09
62.22
62.69
62.36
61.12
59.0
56.28
53.35
50.65
48.45
46.81
45.57
44.47
43.19
41.48
39.22
36.38
33.07
29.47
25.85
22.43
19.34
16.51
13.77
10.9
7.82
4.55
1.28
-1.78
-4.48
-6.78
-8.81
-10.85
-13.27
-16.49
-20.74
-25.94
-31.5
-36.38
-39.34
-39.24
-35.48
-28.18
-18.16
-6.66
5.01
15.82
25.15
32.78
38.81
43.47
46.97
49.53
51.26
52.26
52.57
52.22
51.29
49.86
48.11
46.26
44.51
43.0
41.8
40.84
40.05
39.32
38.53
37.52
36.09
34.05
31.28
27.77
23.7
19.36
15.03
10.94
7.16
3.63
0.2
-3.26
-6.85
-10.54
-14.21
-17.67
-20.78
-23.48
-25.83
-28.02
-30.3
-32.91
-36.09
-39.99
-44.6
-49.6
-54.35
