-65.81
-58.52
-48.54
-36.95
-24.84
-13.17
-2.61
6.43
13.77
19.44
23.57
26.41
28.31
29.63
30.68
31.63
32.43
32.89
32.8
32.1
30.96
29.7
28.65
27.95
27.51
27.12
26.57
25.81
24.94
24.07
23.19
22.17
20.77
18.84
16.39
13.57
10.56
7.5
4.45
1.39
-1.71
-4.89
-8.21
-11.73
-15.45
-19.28
-22.96
-26.16
-28.68
-30.61
-32.38
-34.68
-38.15
-43.05
-49.07
-55.31
-60.51
-63.39
-62.99
-58.92
-51.48
-41.53
-30.22
-18.77
-8.13
1.11
8.74
14.87
19.78
23.84
27.36
30.54
33.4
35.85
37.69
38.74
38.92
38.31
37.12
35.63
34.13
32.84
31.89
31.28
30.93
30.64
30.22
29.48
28.36
26.82
24.91
22.66
20.12
17.32
14.41
11.49
8.67
5.95
3.26
0.44
-2.64
-6.02
-9.64
-13.37
-17.04
-20.57
-23.92
-27.13
-30.26
-33.48
-37.01
-41.11
-45.96
-51.44
-57.07
-61.94
-64.91
-64.99
-61.64
-55.0
-45.82
-35.18
-24.17
-13.67
-4.15
4.16
11.28
17.33
22.46
26.85
30.64
33.86
36.42
38.19
39.07
39.14
38.69
38.07
37.61
37.43
37.47
37.57
37.59
37.49
37.25
36.86
36.19
35.05
33.27
30.83
27.89
24.72
21.6
18.63
15.79
12.93
9.89
6.56
2.9
-1.09
-5.35
-9.79
-14.28
-18.63
-22.72
-26.51
-30.11
-33.77
-37.8
-42.51
-48.01
-54.16
-60.44
-65.97
-69.59
-70.18
-67.03
-60.11
-50.16
-38.45
-26.36
-14.99
-4.92
3.77
11.24
17.61
22.9
26.99
29.85
31.58
32.42
32.68
32.56
32.16
31.4
30.22
28.62
26.76
24.88
23.26
22.04
21.14
20.3
19.17
17.55
15.4
12.9
10.41
8.19
6.34
4.73
3.12
1.26
-0.92
-3.27
-5.5
-7.32
-8.61
-9.49
-10.25
-11.22
-12.55
-14.16
-15.72
-16.85
-17.24
-16.84
-15.85
-14.64
-13.69
-13.41
-14.03
-15.54
-17.49
-18.97
-18.76
-15.56
-8.41
2.94
17.94
35.38
53.63
71.08
86.42
98.79
107.76
113.24
115.41
114.61
111.31
106.09
99.58
92.38
84.97
77.6
70.34
63.15
56.04
49.12
42.66
36.97
32.27
28.57
25.63
23.09
20.53
17.7
14.47
10.85
6.96
2.83
-1.58
-6.43
-11.94
-18.34
-25.83
-34.64
-44.98
-57.02
-70.84
-86.33
-103.13
-120.8
-138.89
-157.11
-175.29
-193.36
-211.12
-228.17
-243.86
-257.29
-267.36
-272.93
-272.95
-266.54
-253.39
-233.64
-207.98
-177.56
-144.03
-109.26
-75.03
-42.51
-11.93
17.18
45.5
72.96
98.45
120.17
136.64
147.75
154.98
160.76
167.11
174.69
182.52
188.81
192.04
191.71
188.38
182.97
176.14
168.0
158.19
146.27
131.79
114.43
93.62
68.52
38.28
2.68
-37.1
-77.98
-115.2
-143.48
-158.59
-158.99
-146.5
-125.67
-102.23
-81.23
-65.64
-56.17
-51.96
-51.7
-54.54
-60.29
-68.99
-80.35
-93.3
-105.98
-116.12
-121.7
-121.39
-114.91
-102.96
-86.82
-67.99
-47.85
-27.47
-7.79
10.32
26.0
38.53
47.58
53.44
56.92
59.1
60.92
62.88
64.95
66.75
67.84
68.0
67.31
66.13
64.87
63.85
63.16
62.65
62.03
61.01
59.41
57.14
54.25
50.88
47.18
43.29
39.32
35.29
31.17
26.87
22.32
17.59
12.9
8.56
4.85
1.82
-0.79
-3.54
-7.16
-12.34
-19.44
-28.35
-38.36
-48.24
-56.39
-61.29
-61.84
-57.61
-49.01
-37.06
-23.13
-8.61
5.38
18.11
29.18
38.46
45.97
51.73
55.81
58.31
59.43
59.51
58.98
58.24
57.53
56.92
56.28
55.51
54.57
53.58
52.69
52.01
51.47
50.84
49.79
48.04
45.51
42.32
38.76
35.16
31.68
28.31
24.78
20.82
16.29
11.27
6.05
1.02
-3.56
-7.69
-11.58
-15.64
-20.32
-26.01
-32.95
-41.07
-49.93
-58.72
-66.22
-71.15
-72.42
-69.44
-62.37
-51.99
-39.53
-26.3
-13.46
-1.78
8.31
16.68
23.4
28.62
32.55
35.35
37.18
38.13
38.26
37.68
36.52
34.98
33.26
31.56
30.02
28.73
27.68
26.84
26.09
25.27
24.21
22.74
20.73
18.1
14.83
10.96
6.65
2.05
-2.68
-7.44
-12.21
-16.93
-21.53
-25.89
-29.98
-33.97
-38.26
-43.41
-49.79
-57.27
-65.1
-71.96
-76.44
-77.34
-74.12
-66.9
-56.41
-43.71
-29.97
-16.29
-3.55
7.61
16.86
24.19
29.76
33.86
36.76
38.64
39.64
39.9
39.62
39.05
38.46
38.04
37.85
37.82
37.78
37.58
37.13
36.4
35.39
34.09
32.48
30.51
28.15
25.36
22.16
18.56
14.57
10.28
5.83
1.36
-2.97
-7.15
-11.31
-15.78
-20.91
-26.93
-33.78
-40.98
-47.63
-52.56
-54.62
-52.99
-47.46
-38.48
-27.09
-14.61
-2.33
8.8
18.24
25.86
31.83
36.41
39.84
42.25
43.67
44.09
43.5
42.02
39.84
37.26
34.55
32.0
29.77
27.95
26.48
25.18
23.85
22.31
20.47
18.32
15.9
13.2
10.18
6.75
2.85
-1.46
-5.99
-10.53
-14.92
-19.1
-23.18
-27.29
-31.54
-35.96
-40.55
-45.37
-50.44
-55.75
-60.98
-65.46
-68.21
-68.21
-64.77
-57.81
-47.95
-36.31
-24.17
-12.61
-2.34
6.34
13.39
18.99
23.37
26.78
29.46
31.57
33.16
34.19
34.61
34.41
33.71
32.68
31.56
30.59
29.91
29.57
29.53
29.63
29.64
29.33
28.48
26.99
24.92
22.44
19.8
17.11
14.4
11.53
8.37
4.84
1.02
-2.92
-6.78
-10.49
-14.05
-17.64
-21.49
-25.88
-31.11
-37.38
-44.64
-52.46
-59.92
-65.77
-68.74
-67.89
-62.94
-54.32
-43.02
-30.34
-17.56
-5.73
4.51
12.9
19.47
24.49
28.25
30.99
32.88
33.96
34.25
33.79
32.7
31.11
29.2
27.13
25.02
23.02
21.25
19.82
18.79
18.14
17.7
17.23
16.45
15.11
13.12
10.56
7.63
4.59
1.7
-0.95
-3.41
-5.85
-8.52
-11.62
-15.14
-18.9
-22.58
-25.82
-28.44
-30.51
-32.34
-34.43
-37.25
-41.11
-46.0
-51.51
-56.84
-60.91
-62.6
-61.03
-55.86
-47.4
-36.52
-24.44
-12.35
-1.21
8.4
16.28
22.49
27.26
30.92
33.73
35.87
37.45
38.41
38.71
38.28
37.14
35.43
33.35
31.19
29.2
27.56
26.33
25.38
24.57
23.7
22.65
21.34
19.76
17.87
15.64
13.0
9.96
6.63
3.18
-0.2
-3.42
-6.48
-9.49
-12.62
-16.0
-19.7
-23.64
-27.66
-31.57
-35.25
-38.68
-42.05
-45.63
-49.72
-54.53
-59.98
-65.72
-71.05
-75.1
-76.92
-75.75
-71.17
-63.22
-52.5
-39.97
-26.85
-14.26
-3.08
6.24
13.67
19.52
24.21
28.08
31.3
33.85
35.59
36.46
36.5
35.9
34.94
33.85
32.86
32.09
31.6
31.39
31.4
31.39
31.05
30.03
28.1
25.24
21.66
17.78
13.96
10.47
7.3
4.28
1.19
-2.17
-5.82
-9.65
-13.46
-17.08
-20.38
-23.37
-26.17
-29.07
-32.4
-36.47
-41.35
-46.73
-51.82
-55.56
-56.85
-54.9
-49.55
-41.31
-31.15
-20.22
-9.58
0.04
8.23
14.88
20.04
23.93
26.78
28.86
30.34
31.33
31.86
31.92
31.53
30.76
29.76
28.68
27.67
26.83
26.21
25.8
25.54
25.34
25.05
24.47
23.42
21.77
19.42
16.42
12.94
9.24
5.61
2.24
-0.83
-3.78
-6.83
-10.23
-14.03
-18.11
-22.18
-26.0
-29.46
-32.68
-35.97
-39.71
-44.26
-49.82
-56.31
-63.33
-70.12
-75.61
-78.64
-78.23
-73.87
-65.67
-54.33
-40.98
-26.82
-12.98
-0.31
10.61
19.52
26.41
31.48
35.07
37.6
39.4
40.68
41.54
41.95
41.87
41.26
40.19
38.86
37.54
36.52
35.99
35.96
36.3
36.75
37.05
36.97
36.4
35.29
33.63
31.52
29.04
26.33
23.46
20.42
17.17
13.61
9.75
5.74
1.82
-1.81
-5.09
-8.16
-11.34
-14.91
-18.98
-23.45
-28.06
-32.52
-36.69
-40.63
-44.62
-49.08
-54.41
-60.83
-68.18
-75.76
-82.4
-86.64
-87.18
-83.22
-74.8
-62.71
-48.28
-32.95
-18.02
-4.41
7.31
16.89
24.36
29.97
34.13
37.26
39.74
41.74
43.29
44.28
44.62
44.31
43.46
42.31
41.13
40.25
39.9
40.16
40.91
41.86
42.6
42.79
42.21
40.82
38.73
36.07
32.91
29.3
25.3
21.03
16.65
12.36
8.3
4.42
0.59
-3.43
-7.76
-12.39
-17.18
-21.83
-26.12
-29.94
-33.37
-36.67
-40.23
-44.46
-49.7
-56.11
-63.5
-71.21
-78.11
-82.75
-83.73
-80.07
-71.65
-59.14
-43.96
-27.73
-11.96
2.33
14.64
24.85
33.06
39.45
44.18
47.44
49.44
50.46
50.75
50.52
49.92
49.05
47.99
46.88
45.87
45.07
44.51
44.11
43.74
43.28
42.61
41.67
40.41
38.74
36.55
33.75
30.31
26.32
21.95
17.43
13.0
8.89
5.21
1.99
-0.88
-3.65
-6.56
-9.85
-13.59
-17.71
-22.02
-26.27
-30.29
-34.08
-37.77
-41.69
-46.2
-51.64
-58.08
-65.11
-71.82
-76.89
-78.9
-76.81
-70.29
-59.84
-46.62
-32.07
-17.53
-3.99
7.99
18.16
26.46
32.91
37.66
40.9
42.9
43.97
44.32
44.09
43.36
42.19
40.71
39.11
37.67
36.65
36.27
36.53
37.29
38.17
38.73
38.55
37.38
35.17
32.13
28.64
25.03
21.58
18.3
15.04
11.54
7.64
3.3
-1.31
-5.93
-10.33
-14.4
-18.21
-22.01
-26.17
-31.02
-36.79
-43.43
-50.47
-57.08
-62.12
-64.39
-62.94
-57.43
-48.23
-36.36
-23.26
-10.35
1.24
10.93
18.56
24.31
28.45
31.23
32.83
33.46
33.35
32.8
32.1
31.47
30.99
30.68
30.49
30.41
30.51
30.87
31.51
32.35
33.11
33.44
32.97
31.49
29.0
25.72
21.93
17.9
13.78
9.57
5.24
0.72
-3.98
-8.8
-13.64
-18.41
-23.05
-27.59
-32.08
-36.64
-41.48
-46.84
-52.91
-59.62
-66.5
-72.62
-76.71
-77.55
-74.34
-66.98
-56.14
-42.96
-28.81
-14.97
-2.43
8.15
16.46
22.53
26.71
29.5
31.42
32.84
33.93
34.69
35.08
35.08
34.75
34.17
33.4
32.54
31.66
30.92
30.44
30.26
30.25
30.08
29.32
27.62
24.83
21.12
16.89
12.56
8.44
4.58
0.78
-3.24
-7.67
-12.51
-17.57
-22.58
-27.26
-31.5
-35.32
-38.9
-42.55
-46.62
-51.42
-57.08
-63.29
-69.24
-73.73
-75.37
-73.09
-66.42
-55.75
-42.18
-27.27
-12.55
0.77
11.96
20.84
27.58
32.55
36.16
38.79
40.74
42.21
43.29
43.98
44.22
43.95
43.17
41.98
40.56
39.15
37.98
37.22
36.87
36.8
36.73
36.26
35.06
32.92
29.82
25.97
21.69
17.37
13.27
9.47
5.88
2.28
-1.56
-5.77
-10.32
-15.02
-19.58
-23.79
-27.56
-31.02
-34.52
-38.51
-43.45
-49.6
-56.89
-64.71
-71.97
-77.27
-79.17
-76.73
-69.7
-58.74
-45.13
-30.39
-15.91
-2.72
8.62
17.85
24.99
30.28
34.07
36.76
38.71
40.13
41.07
41.49
41.4
40.87
40.04
39.04
37.9
36.61
35.17
33.73
32.54
31.77
31.42
31.18
30.61
29.31
27.13
24.21
20.92
17.6
14.43
11.39
8.31
5.01
1.38
-2.56
-6.7
-10.85
-14.8
-18.38
-21.5
-24.28
-27.06
-30.36
-34.69
-40.32
-47.1
-54.3
-60.71
-64.92
-65.69
-62.32
-54.82
-43.95
-30.98
-17.33
-4.32
7.09
16.42
23.59
28.9
32.79
35.72
37.95
39.57
40.48
40.55
39.77
38.32
36.5
34.59
32.81
31.22
29.84
28.68
27.72
26.95
26.22
25.29
23.82
21.53
18.32
14.32
9.86
5.39
1.25
-2.39
-5.61
-8.67
-11.87
-15.42
-19.35
-23.53
-27.72
-31.69
-35.31
-38.65
-41.98
-45.74
-50.38
-56.1
-62.7
-69.38
-74.84
-77.56
-76.26
-70.34
-60.08
-46.59
-31.46
-16.29
-2.28
9.91
20.15
28.64
35.67
41.5
46.26
50.01
52.77
54.55
55.4
55.43
54.81
53.75
52.5
51.27
50.2
49.29
48.53
47.81
47.01
46.03
44.75
43.07
40.88
38.15
34.91
31.28
27.4
23.42
19.39
15.28
11.04
6.66
2.23
-2.1
-6.18
-9.96
-13.5
-16.98
-20.52
-24.2
-27.97
-31.71
-35.31
-38.75
-42.1
-45.61
-49.61
-54.46
-60.32
-66.94
-73.48
-78.65
-80.93
-79.17
-72.88
-62.54
-49.32
-34.79
-20.49
-7.48
3.65
12.82
20.24
26.25
31.2
35.3
38.7
41.49
43.7
45.37
46.52
47.14
47.23
46.82
46.07
45.22
44.54
44.23
44.25
44.37
44.2
43.37
41.65
39.02
35.66
31.87
27.96
24.19
20.68
17.4
14.18
10.8
7.06
2.92
-1.47
-5.84
-9.89
-13.45
-16.54
-19.35
-22.17
-25.18
-28.46
-31.93
-35.45
-38.92
-42.35
-45.79
-49.38
-53.29
-57.7
-62.74
-68.34
-74.06
-79.04
-82.05
-81.81
-77.37
-68.55
-56.05
-41.33
-26.18
-12.18
-0.33
9.06
16.26
21.82
26.27
29.95
33.01
35.49
37.43
38.87
39.9
40.52
40.68
40.34
39.52
38.41
37.32
36.58
36.42
36.79
37.41
37.84
37.69
36.72
35.02
32.85
30.53
28.3
26.22
24.25
22.27
20.22
18.08
15.82
13.45
10.89
8.13
5.22
2.27
-0.57
-3.17
-5.56
-7.88
-10.37
-13.28
-16.7
-20.57
-24.65
-28.63
-32.28
-35.48
-38.34
-41.11
-44.14
-47.81
-52.39
-57.95
-64.17
-70.23
-74.88
-76.72
-74.6
-68.06
-57.55
-44.31
-29.94
-16.03
-3.69
6.54
14.55
20.54
24.81
27.71
29.59
30.81
31.64
32.22
32.56
32.58
32.2
31.45
30.49
29.53
28.8
28.42
28.41
28.65
28.96
29.08
28.77
27.81
26.1
23.69
20.76
17.53
14.25
11.01
7.88
4.86
1.99
-0.69
-3.19
-5.57
-7.98
-10.57
-13.4
-16.38
-19.33
-22.06
-24.49
-26.7
-28.92
-31.47
-34.69
-38.82
-43.92
-49.76
-55.67
-60.61
-63.32
-62.67
-58.05
-49.59
-38.2
-25.25
-12.19
-0.21
9.95
18.04
24.16
28.6
31.7
33.73
34.91
35.37
35.21
34.55
33.54
32.35
31.14
30.02
29.03
28.19
27.53
27.16
27.11
27.39
27.85
28.16
27.95
26.86
24.7
21.53
17.58
13.22
8.81
4.56
0.52
-3.47
-7.61
-12.07
-16.92
-22.04
-27.18
-32.08
-36.58
-40.63
-44.38
-48.15
-52.3
-57.22
-63.13
-69.9
-76.96
-83.21
-87.29
-87.87
-84.16
-76.13
-64.58
-50.86
-36.51
-22.81
-10.62
-0.3
8.14
14.93
20.4
24.85
28.54
31.62
34.11
35.97
37.17
37.8
37.99
37.98
37.95
37.98
38.06
38.11
38.09
37.98
37.78
37.44
36.87
35.96
34.62
32.81
30.59
28.05
25.28
22.35
19.32
16.22
13.07
9.86
6.55
3.03
-0.78
-4.96
-9.43
-13.98
-18.31
-22.15
-25.34
-28.01
-30.6
-33.79
-38.23
-44.28
-51.69
-59.47
-66.07
-69.77
-69.18
-63.71
-53.72
-40.43
-25.45
-10.37
3.6
15.75
25.82
33.87
40.09
44.78
48.24
50.72
52.43
53.47
53.83
53.52
52.51
50.86
48.69
46.21
43.72
41.53
39.89
38.86
38.29
37.83
37.03
35.55
33.26
30.31
26.98
23.56
20.2
16.88
13.47
9.93
6.27
2.6
-1.02
-4.62
-8.4
-12.58
-17.28
-22.42
-27.65
-32.57
-36.83
-40.35
-43.41
-46.53
-50.36
-55.42
-61.97
-69.77
-78.12
-85.87
-91.61
-94.0
-92.06
-85.54
-74.89
-61.24
-46.04
-30.74
-16.5
-4.07
6.27
14.6
21.25
26.67
31.22
35.12
38.37
40.83
42.34
42.82
42.39
41.36
40.17
39.22
38.77
38.88
39.38
39.92
40.11
39.59
38.14
35.73
32.54
28.86
25.04
21.28
17.66
14.03
10.15
5.81
0.98
-4.19
-9.32
-14.04
-18.12
-21.62
-24.89
-28.5
-33.04
-38.9
-46.11
-54.16
-62.01
-68.25
-71.39
-70.32
-64.63
-54.79
-41.97
-27.76
-13.63
-0.7
10.43
19.58
26.81
32.3
36.2
38.7
40.04
40.47
40.26
39.62
38.7
37.58
36.34
35.08
33.96
33.15
32.77
32.79
33.02
33.13
32.73
31.55
29.46
26.56
23.11
19.44
15.81
12.33
8.99
5.6
2.0
-1.88
-5.94
-9.95
-13.69
-17.05
-20.2
-23.49
-27.43
-32.42
-38.62
-45.78
-53.15
-59.63
-63.89
-64.75
-61.4
-53.77
-42.5
-28.88
-14.48
-0.77
11.2
20.97
28.61
34.51
39.12
42.77
45.54
47.38
48.23
48.13
47.34
46.17
44.97
43.94
43.13
42.48
41.92
41.39
40.85
40.29
39.62
38.68
37.24
35.07
32.05
28.21
23.8
19.23
14.85
10.89
7.33
3.93
0.4
-3.5
-7.8
-12.36
-16.91
-21.19
-25.03
-28.42
-31.46
-34.38
-37.48
-41.1
-45.59
-51.11
-57.5
-64.14
-69.93
-73.48
-73.49
-69.19
-60.6
-48.56
-34.47
-19.87
-6.1
5.93
15.8
23.46
29.15
33.24
36.12
38.15
39.54
40.45
40.94
41.07
40.92
40.58
40.08
39.47
38.76
38.06
37.51
37.22
37.21
37.31
37.22
36.61
35.24
33.05
30.17
26.81
23.2
19.47
15.66
11.8
7.94
4.17
0.6
-2.76
-5.96
-9.14
-12.41
-15.82
-19.27
-22.6
-25.7
-28.51
-31.16
-33.87
-36.96
-40.75
-45.45
-51.01
-56.97
-62.43
-66.12
-66.78
-63.49
-56.09
-45.25
-32.31
-18.87
-6.33
4.41
13.05
19.73
24.75
28.45
31.08
32.75
33.59
33.77
33.49
32.96
32.32
31.69
31.09
30.59
30.23
30.06
30.09
30.27
30.51
30.67
30.61
30.21
29.39
28.09
26.2
23.7
20.6
17.02
13.21
9.44
5.95
2.84
0.03
-2.64
-5.37
-8.27
-11.33
-14.46
-17.51
-20.4
-23.12
-25.78
-28.55
-31.64
-35.25
-39.54
-44.55
-50.14
-55.86
-60.91
-64.23
-64.72
-61.54
-54.44
-43.93
-31.15
-17.64
-4.83
6.24
15.07
21.71
26.46
29.73
31.85
33.05
33.52
33.44
33.06
32.56
32.07
31.61
31.13
30.6
30.09
29.71
29.57
29.71
30.0
30.16
29.87
28.87
27.06
24.53
21.54
18.41
15.45
12.8
10.45
8.22
5.89
3.31
0.47
-2.48
-5.33
-7.96
-10.37
-12.72
-15.21
-18.0
-21.12
-24.48
-27.91
-31.25
-34.33
-37.01
-39.25
-41.15
-42.97
-45.11
-48.02
-51.97
-56.86
-62.04
-66.4
-68.6
-67.45
-62.31
-53.36
-41.49
-28.1
-14.7
-2.49
7.82
15.96
22.03
26.32
29.2
31.03
32.14
32.74
32.97
32.9
32.6
32.14
31.62
31.11
30.64
30.19
29.75
29.33
28.98
28.76
28.64
28.48
28.07
27.21
25.83
24.0
21.9
19.72
17.57
15.48
13.37
11.12
8.63
5.92
3.1
0.37
-2.08
-4.17
-5.98
-7.73
-9.73
-12.19
-15.18
-18.57
-22.08
-25.48
-28.64
-31.58
-34.47
-37.5
-40.9
-44.88
-49.58
-54.96
-60.69
-66.02
-69.81
-70.86
-68.19
-61.46
-51.14
-38.37
-24.68
-11.55
-0.11
9.04
15.8
20.42
23.31
24.96
25.78
26.1
26.19
26.2
26.24
26.37
26.58
26.84
27.09
27.29
27.4
27.47
27.53
27.6
27.63
27.5
27.02
26.06
24.58
22.63
20.39
18.02
15.63
13.23
10.78
8.23
5.57
2.85
0.12
-2.57
-5.21
-7.84
-10.52
-13.29
-16.17
-19.15
-22.15
-25.08
-27.85
-30.45
-33.02
-35.86
-39.28
-43.51
-48.43
-53.51
-57.83
-60.3
-59.97
-56.3
-49.35
-39.74
-28.49
-16.73
-5.51
4.42
12.57
18.75
23.0
25.56
26.79
27.07
26.81
26.26
25.57
24.83
24.07
23.36
22.78
22.43
22.32
22.45
22.71
23.03
23.32
23.5
23.5
23.19
22.42
21.08
19.12
16.67
13.94
11.21
8.67
6.32
4.0
1.44
-1.62
-5.26
-9.38
-13.71
-17.93
-21.77
-25.17
-28.25
-31.34
-34.93
-39.42
-45.01
-51.46
-57.98
-63.35
-66.21
-65.49
-60.72
-52.27
-41.17
-28.85
-16.71
-5.86
3.06
9.82
14.56
17.56
19.25
20.01
20.24
20.28
20.43
20.9
21.85
23.33
25.25
27.45
29.72
31.92
34.08
36.29
38.69
41.24
43.69
45.59
46.51
46.16
44.55
41.92
38.6
34.91
31.0
26.93
22.68
18.26
13.7
9.06
4.39
-0.27
-4.84
-9.19
-13.17
-16.69
-19.79
-22.67
-25.74
-29.48
-34.29
-40.26
-47.07
-53.94
-59.74
-63.3
-63.67
-60.44
-53.84
-44.67
-34.09
-23.31
-13.33
-4.83
1.88
6.78
10.12
12.22
13.46
14.12
14.43
14.5
14.48
14.48
14.6
14.92
15.43
16.03
16.66
17.3
18.05
19.03
20.26
21.58
22.64
23.01
22.45
20.91
18.66
16.07
13.52
11.22
9.2
7.32
5.36
3.09
0.31
-3.07
-7.04
-11.43
-15.99
-20.38
-24.4
-28.04
-31.54
-35.29
-39.75
-45.17
-51.49
-58.17
-64.26
-68.53
-69.75
-67.06
-60.26
-49.89
-37.13
-23.42
-10.1
1.87
11.96
19.98
25.97
30.09
32.66
34.15
35.08
35.89
36.8
37.79
38.68
39.32
39.69
39.95
40.39
41.19
42.41
43.94
45.57
47.07
48.25
48.97
49.08
48.46
47.01
44.72
41.73
38.3
34.77
31.44
28.46
25.78
23.17
20.35
17.18
13.64
9.9
6.16
2.6
-0.74
-3.99
-7.39
-11.3
-16.06
-21.92
-28.89
-36.62
-44.32
-50.81
-54.81
-55.23
-51.59
-44.16
-33.87
-22.14
-10.36
0.28
9.02
15.52
19.74
21.92
22.42
21.72
20.28
18.45
16.42
14.21
11.79
9.16
6.44
3.77
1.39
-0.57
-2.04
-3.03
-3.61
-3.92
-4.2
-4.68
-5.6
-7.03
-8.92
-11.05
-13.22
-15.29
-17.24
-19.14
-21.07
-23.04
-25.02
-26.93
-28.75
-30.54
-32.45
-34.69
-37.52
-41.21
-45.93
-51.6
-57.72
-63.28
-66.92
-67.31
-63.57
-55.69
-44.49
-31.44
-18.13
-5.82
4.76
13.39
20.17
25.32
29.03
31.47
32.85
33.42
33.51
33.39
33.24
33.13
32.99
32.79
32.55
32.41
32.56
33.09
33.92
34.75
35.15
34.72
33.29
30.96
28.03
24.9
21.85
18.92
15.99
12.84
9.32
5.45
1.38
-2.72
-6.67
-10.41
-13.97
-17.45
-21.08
-25.18
-30.04
-35.82
-42.35
-48.91
-54.34
-57.25
-56.44
-51.36
-42.28
-30.31
-17.0
-3.93
7.71
17.31
24.83
30.56
34.88
38.1
40.42
41.99
42.95
43.45
43.63
43.54
43.11
42.25
40.95
39.36
37.78
36.53
35.81
35.49
35.22
34.47
32.83
30.14
26.58
22.56
18.5
14.67
11.08
7.52
3.75
-0.43
-4.99
-9.79
-14.57
-19.11
-23.32
-27.28
-31.2
-35.39
-40.13
-45.55
-51.51
-57.46
-62.51
-65.54
-65.51
-61.79
-54.33
-43.78
-31.25
-18.07
-5.41
5.84
15.22
22.61
28.12
31.97
34.38
35.6
35.85
35.36
34.32
32.9
31.2
29.3
27.35
25.6
24.43
24.18
24.98
26.64
28.62
30.25
30.94
30.39
28.64
25.97
22.69
19.0
15.02
10.74
6.22
1.56
-3.11
-7.69
-12.12
-16.44
-20.67
-24.85
-29.06
-33.48
-38.36
-43.92
-50.14
-56.52
-62.08
-65.54
-65.71
-61.88
-54.09
-43.14
-30.34
-17.08
-4.56
6.47
15.62
22.84
28.26
32.12
34.7
36.27
37.06
37.22
36.84
35.99
34.74
33.2
31.54
29.94
28.55
27.43
26.55
25.74
24.78
23.44
21.53
18.97
15.83
12.24
8.38
4.4
0.38
-3.64
-7.63
-11.55
-15.33
-18.9
-22.21
-25.27
-28.18
-31.22
-34.74
-39.06
-44.31
-50.2
-55.94
-60.37
-62.25
-60.6
-55.06
-45.94
-34.19
-21.09
-7.93
4.27
14.89
23.65
30.56
35.8
39.59
42.2
43.92
45.02
45.75
46.23
46.43
46.24
45.6
44.52
43.2
41.9
40.82
40.03
39.38
38.62
37.47
35.77
33.51
30.77
27.69
24.35
20.75
16.89
12.75
8.32
3.67
-1.07
-5.73
-10.12
-14.1
-17.68
-21.01
-24.39
-28.22
-32.83
-38.4
-44.79
-51.39
-57.24
-61.12
-61.91
-58.87
-51.96
-41.85
-29.78
-17.19
-5.36
4.85
13.1
19.39
23.95
27.01
28.78
29.49
29.38
28.78
28.0
27.31
26.89
26.84
27.12
27.68
28.43
29.26
30.07
30.79
31.27
31.35
30.85
29.57
27.42
24.44
20.78
16.71
12.4
7.97
3.38
-1.47
-6.65
-12.09
-17.65
-23.12
-28.35
-33.31
-38.2
-43.3
-48.96
-55.39
-62.45
-69.51
-75.48
-78.98
-78.8
-74.29
-65.65
-53.91
-40.62
-27.34
-15.23
-4.83
3.81
10.87
16.54
20.88
23.87
25.59
26.28
26.3
25.99
25.62
25.26
24.9
24.49
24.07
23.75
23.68
23.96
24.63
25.54
26.42
26.85
26.45
24.99
22.43
19.02
15.19
11.4
7.97
5.05
2.55
0.18
-2.39
-5.42
-8.98
-12.92
-16.92
-20.62
-23.77
-26.34
-28.53
-30.78
-33.63
-37.54
-42.71
-48.91
-55.41
-60.97
-64.16
-63.68
-58.81
-49.64
-37.07
-22.59
-7.84
5.79
17.34
26.37
32.93
37.37
40.22
42.04
43.26
44.15
44.77
45.0
44.65
43.65
42.0
39.93
37.7
35.57
33.72
32.21
31.01
30.04
29.14
28.08
26.61
24.56
21.94
18.97
15.98
13.24
10.83
8.6
6.29
3.69
0.81
-2.19
-5.08
-7.78
-10.39
-13.1
-16.09
-19.34
-22.65
-25.71
-28.3
-30.38
-32.21
-34.21
-36.85
-40.52
-45.33
-51.07
-57.1
-62.47
-65.95
-66.39
-62.97
-55.46
-44.41
-30.98
-16.7
-3.1
8.64
17.88
24.49
28.74
31.1
32.06
32.08
31.5
30.6
29.57
28.55
27.6
26.73
25.93
25.21
24.65
24.32
24.28
24.52
24.94
25.43
25.83
26.02
25.86
25.14
23.67
21.37
18.33
14.91
11.55
8.63
6.25
4.19
2.02
-0.61
-3.86
-7.56
-11.33
-14.83
-17.91
-20.69
-23.49
-26.71
-30.69
-35.65
-41.65
-48.51
-55.7
-62.37
-67.35
-69.44
-67.7
-61.78
-52.06
-39.54
-25.58
-11.65
1.06
11.69
19.84
25.53
29.09
31.06
31.99
32.32
32.3
32.07
31.68
31.23
30.83
30.55
30.33
30.04
29.52
28.68
27.53
26.21
24.86
23.51
22.06
20.36
18.22
15.59
12.55
9.28
5.93
2.6
-0.79
-4.37
-8.3
-12.6
-17.12
-21.52
-25.47
-28.71
-31.19
-33.1
-34.78
-36.63
-39.07
-42.43
-46.86
-52.16
-57.75
-62.6
-65.46
-65.17
-61.05
-53.08
-42.01
-29.05
-15.59
-2.81
8.45
17.81
25.22
30.87
35.04
38.0
39.96
41.06
41.38
41.05
40.24
39.24
38.31
37.67
37.41
37.5
37.78
38.08
38.22
38.04
37.45
36.34
34.66
32.34
29.42
26.01
22.32
18.61
15.1
11.92
9.0
6.19
3.27
0.12
-3.29
-6.9
-10.57
-14.22
-17.8
-21.32
-24.78
-28.23
-31.71
-35.39
-39.5
-44.34
-50.11
-56.72
-63.65
-69.81
-73.86
-74.45
-70.68
-62.38
-50.24
-35.59
-20.02
-5.04
8.26
19.24
27.67
33.63
37.37
39.22
39.48
38.5
36.6
34.06
31.17
28.18
25.31
22.7
20.42
18.47
16.82
15.49
14.55
14.07
14.07
14.47
15.05
15.54
15.72
15.44
14.71
13.61
12.24
10.69
9.0
7.16
5.17
3.02
0.7
-1.79
-4.47
-7.29
-10.19
-13.07
-15.8
-18.29
-20.55
-22.71
-25.1
-28.14
-32.25
-37.58
-43.8
-50.06
-55.05
-57.49
-56.45
-51.73
-43.92
-34.16
-23.76
-13.87
-5.27
1.69
6.93
10.6
12.95
14.32
15.06
15.45
15.61
15.52
15.07
14.18
12.94
11.6
10.52
10.02
10.27
11.25
12.79
14.59
16.34
17.74
18.5
18.39
17.31
15.38
12.81
9.97
7.15
4.5
1.98
-0.51
-3.07
-5.7
-8.27
-10.61
-12.57
-14.12
-15.36
-16.46
-17.73
-19.47
-21.92
-25.11
-28.71
-31.99
-33.97
-33.65
-30.37
-24.06
-15.29
-5.11
5.25
14.75
22.65
28.66
32.82
35.38
36.63
36.81
36.16
34.86
33.15
31.29
29.56
28.15
27.15
26.49
26.05
25.7
25.36
25.06
24.85
24.72
24.49
23.91
22.64
20.49
17.45
13.74
9.76
5.86
2.22
-1.22
-4.71
-8.51
-12.77
-17.38
-22.07
-26.46
-30.25
-33.34
-35.85
-38.1
-40.56
-43.72
-47.9
-53.1
-58.85
-64.23
-68.04
-69.1
-66.63
-60.46
-51.11
-39.64
-27.31
-15.25
-4.26
5.32
13.5
20.47
26.43
31.48
35.62
38.87
41.28
43.0
44.25
45.21
45.98
46.58
46.99
47.22
47.33
47.38
47.39
47.33
47.07
46.5
45.5
44.01
42.0
39.48
36.5
33.13
29.48
25.63
21.66
17.6
13.44
9.2
4.9
0.59
-3.69
-7.89
-11.99
-15.95
-19.76
-23.41
-26.98
-30.64
-34.62
-39.16
-44.31
-49.86
-55.25
-59.57
-61.84
-61.16
-57.07
-49.67
-39.63
-28.02
-16.02
-4.63
5.46
13.9
20.63
25.73
29.39
31.81
33.28
34.08
34.45
34.59
34.59
34.46
34.16
33.65
32.97
32.23
31.55
31.06
30.73
30.45
30.0
29.15
27.75
25.82
23.48
20.95
18.41
15.88
13.32
10.6
7.61
4.33
0.88
-2.57
-5.82
-8.74
-11.33
-13.72
-16.14
-18.77
-21.73
-24.96
-28.26
-31.37
-34.09
-36.41
-38.54
-40.89
-43.94
-47.93
-52.78
-57.86
-62.18
-64.6
-64.19
-60.45
-53.54
-44.09
-33.07
-21.5
-10.32
-0.23
8.31
15.06
20.03
23.43
25.57
26.82
27.51
27.89
28.09
28.15
28.05
27.77
27.34
26.81
26.28
25.84
25.52
25.34
25.26
25.24
25.17
24.89
24.18
22.84
20.74
18.0
14.87
11.7
8.75
6.11
3.65
1.14
-1.58
-4.58
-7.73
-10.83
-13.64
-16.09
-18.24
-20.35
-22.79
-25.89
-29.89
-34.79
-40.29
-45.73
-50.17
-52.55
-51.99
-48.02
-40.84
-31.22
-20.36
-9.5
0.42
8.86
15.73
21.2
25.49
28.74
30.98
32.23
32.56
32.15
31.32
30.41
29.66
29.13
28.73
28.26
27.63
26.87
26.11
25.5
25.07
24.71
24.17
23.24
21.75
19.67
17.06
14.06
10.81
7.5
4.23
1.05
-2.06
-5.18
-8.38
-11.69
-15.02
-18.21
-21.09
-23.62
-25.87
-28.03
-30.4
-33.24
-36.76
-40.99
-45.78
-50.68
-54.97
-57.71
-57.96
-55.09
-48.97
-40.12
-29.54
-18.37
-7.63
2.0
10.21
16.95
22.29
26.32
29.2
31.09
32.19
32.69
32.74
32.44
31.89
31.16
30.33
29.51
28.8
28.28
28.01
27.99
28.12
28.24
28.09
27.47
26.24
24.4
22.05
19.35
16.48
13.63
10.93
8.47
6.26
4.19
2.08
-0.28
-3.04
-6.26
-9.86
-13.72
-17.63
-21.38
-24.83
-27.91
-30.7
-33.41
-36.38
-39.97
-44.42
-49.69
-55.32
-60.46
-63.99
-64.78
-62.03
-55.59
-46.0
-34.36
-22.04
-10.3
-0.03
8.38
14.94
19.88
23.51
26.14
28.0
29.32
30.27
30.96
31.47
31.79
31.88
31.75
31.47
31.14
30.88
30.75
30.76
30.85
30.87
30.68
30.12
29.04
27.4
25.24
22.74
20.09
17.43
14.79
12.06
9.18
6.13
2.99
-0.09
-3.03
-5.83
-8.58
-11.44
-14.5
-17.76
-21.15
-24.53
-27.8
-30.87
-33.78
-36.68
-39.76
-43.31
-47.53
-52.44
-57.81
-63.02
-67.15
-69.14
-68.05
-63.35
-55.16
-44.23
-31.77
-19.08
-7.32
2.79
10.93
17.11
21.58
24.64
26.65
27.94
28.8
29.42
29.89
30.19
30.21
29.85
29.07
27.92
26.59
25.3
24.27
23.62
23.27
23.04
22.67
21.96
20.83
19.31
17.49
15.48
13.34
11.1
8.76
6.39
4.07
1.86
-0.23
-2.32
-4.6
-7.25
-10.33
-13.75
-17.27
-20.62
-23.59
-26.12
-28.34
-30.5
-32.87
-35.79
-39.46
-43.93
-48.94
-53.9
-57.9
-59.87
-58.9
-54.51
-46.8
-36.47
-24.6
-12.4
-0.91
9.16
17.48
24.01
28.91
32.33
34.47
35.46
35.46
34.72
33.54
32.21
30.99
30.0
29.29
28.82
28.56
28.48
28.54
28.65
28.7
28.53
28.02
27.08
25.7
23.92
21.78
19.32
16.56
13.52
10.25
6.84
3.39
0.02
-3.23
-6.35
-9.4
-12.44
-15.49
-18.5
-21.39
-24.11
-26.68
-29.28
-32.19
-35.75
-40.22
-45.63
-51.56
-57.19
-61.36
-62.91
-61.04
-55.54
-46.91
-36.13
-24.37
-12.66
-1.74
7.93
16.16
22.88
28.08
31.92
34.61
36.48
37.8
38.76
39.45
39.8
39.78
39.37
38.64
37.75
36.84
36.05
35.46
35.06
34.74
34.33
33.64
