9.03
18.55
26.13
32.01
36.4
39.43
41.19
41.83
41.63
40.92
40.0
39.1
38.27
37.44
36.53
35.54
34.58
33.8
33.29
32.93
32.49
31.62
30.09
27.86
25.04
21.9
18.66
15.45
12.24
8.89
5.26
1.27
-3.05
-7.55
-12.03
-16.31
-20.28
-23.95
-27.43
-30.94
-34.83
-39.47
-45.16
-51.88
-59.07
-65.6
-69.93
-70.6
-66.68
-58.16
-45.94
-31.56
-16.67
-2.63
9.75
20.17
28.66
35.35
40.38
43.86
45.91
46.76
46.73
46.15
45.31
44.31
43.15
41.73
40.09
38.4
36.95
36.02
35.66
35.7
35.78
35.52
34.63
33.03
30.71
27.74
24.17
20.07
15.63
11.11
6.84
3.01
-0.38
-3.54
-6.75
-10.31
-14.31
-18.68
-23.19
-27.54
-31.52
-35.06
-38.28
-41.47
-45.04
-49.41
-54.89
-61.5
-68.85
-76.06
-81.76
-84.45
-82.84
-76.34
-65.29
-50.93
-35.04
-19.37
-5.23
6.73
16.47
24.24
30.38
35.21
38.93
41.73
43.77
45.21
46.1
46.42
46.13
45.24
43.88
42.3
40.83
39.76
39.21
39.09
39.11
38.94
38.27
36.98
35.09
32.68
29.92
26.88
23.64
20.22
16.7
13.14
9.66
6.37
3.36
0.64
-1.85
-4.23
-6.7
-9.47
-12.71
-16.44
-20.52
-24.7
-28.66
-32.19
-35.24
-38.01
-40.88
-44.34
-48.83
-54.57
-61.37
-68.46
-74.53
-78.02
-77.54
-72.34
-62.6
-49.4
-34.41
-19.3
-5.36
6.73
16.82
25.09
31.79
37.11
41.12
43.9
45.51
46.05
45.66
44.52
42.82
40.75
38.55
36.45
34.68
33.41
32.71
32.51
32.59
32.63
32.31
31.41
29.88
27.79
25.31
22.57
19.68
16.68
13.6
10.45
7.28
4.1
0.89
-2.34
-5.58
-8.77
-11.86
-14.86
-17.84
-20.9
-24.08
-27.33
-30.5
-33.43
-36.07
-38.52
-41.03
-43.91
-47.48
-51.89
-57.03
-62.39
-67.02
-69.72
-69.25
-64.82
-56.36
-44.6
-30.91
-16.84
-3.7
7.68
17.04
24.5
30.37
34.93
38.37
40.77
42.12
42.41
41.7
40.12
37.96
35.58
33.35
31.56
30.38
29.8
29.71
29.94
30.23
30.34
30.02
29.12
27.61
25.61
23.32
20.93
18.51
16.02
13.3
10.22
6.78
3.12
-0.53
-3.94
-7.01
-9.83
-12.6
-15.51
-18.69
-22.12
-25.61
-28.95
-32.01
-34.84
-37.68
-40.91
-44.9
-49.85
-55.66
-61.8
-67.3
-70.97
-71.61
-68.39
-61.11
-50.32
-37.15
-23.04
-9.34
2.94
13.29
21.61
28.1
33.07
36.88
39.83
42.12
43.84
44.97
45.45
45.21
44.26
42.72
40.81
38.8
37.03
35.8
35.28
35.41
35.89
36.22
35.89
34.56
32.2
29.09
25.66
22.31
19.19
16.27
13.36
10.32
7.11
3.85
0.69
-2.26
-4.93
-7.34
-9.56
-11.67
-13.76
-15.95
-18.39
-21.19
-24.37
-27.82
-31.32
-34.68
-37.81
-40.85
-44.15
-48.18
-53.29
-59.46
-66.14
-72.18
-76.13
-76.58
-72.67
-64.36
-52.45
-38.34
-23.59
-9.52
3.02
13.63
22.28
29.11
34.34
38.24
41.1
43.15
44.55
45.31
45.4
44.79
43.6
42.05
40.45
39.09
38.2
37.86
38.02
38.54
39.18
39.62
39.53
38.66
36.88
34.31
31.19
27.91
24.79
21.99
19.5
17.13
14.67
11.95
8.94
5.76
2.61
-0.31
-2.88
-5.12
-7.21
-9.41
-11.99
-15.17
-19.0
-23.32
-27.87
-32.34
-36.49
-40.28
-43.86
-47.53
-51.72
-56.74
-62.68
-69.21
-75.5
-80.33
-82.3
-80.3
-73.81
-63.13
-49.28
-33.77
-18.2
-3.88
8.34
18.16
25.67
31.25
35.34
38.34
40.52
42.04
42.98
43.37
43.26
42.69
41.75
40.54
39.2
37.94
36.97
36.5
36.62
37.22
37.97
38.42
38.15
36.87
34.55
31.42
27.84
24.17
20.64
17.29
14.03
10.73
7.35
3.97
0.71
-2.3
-5.08
-7.74
-10.48
-13.48
-16.81
-20.4
-24.05
-27.54
-30.71
-33.56
-36.23
-39.08
-42.52
-46.97
-52.6
-59.15
-65.85
-71.42
-74.38
-73.49
-68.18
-58.7
-46.1
-31.88
-17.53
-4.2
7.45
17.2
25.07
31.19
35.67
38.68
40.46
41.36
41.73
41.83
41.73
41.34
40.52
39.24
37.69
36.22
35.19
34.79
34.95
35.37
35.63
35.4
34.51
32.95
30.8
28.16
25.09
21.67
18.04
14.35
10.81
7.6
4.8
2.39
0.19
-2.05
-4.59
-7.61
-11.14
-15.04
-19.07
-22.98
-26.64
-30.07
-33.42
-36.96
-40.99
-45.85
-51.76
-58.74
-66.35
-73.64
-79.24
-81.65
-79.74
-73.1
-62.2
-48.25
-32.84
-17.52
-3.54
8.36
17.86
24.99
30.03
33.39
35.52
36.83
37.58
37.92
37.87
37.4
36.53
35.31
33.91
32.56
31.54
31.07
31.19
31.75
32.42
32.81
32.63
31.71
30.08
27.87
25.24
22.31
19.16
15.78
12.17
8.36
4.41
0.47
-3.28
-6.7
-9.79
-12.67
-15.64
-18.97
-22.84
-27.19
-31.83
-36.44
-40.78
-44.76
-48.49
-52.25
-56.42
-61.42
-67.5
-74.53
-81.81
-88.07
-91.66
-91.04
-85.33
-74.58
-59.89
-42.99
-25.74
-9.71
4.15
15.42
24.14
30.56
35.05
38.07
40.06
41.45
42.51
43.35
43.95
44.22
44.07
43.45
42.46
41.28
40.18
39.44
39.23
39.51
40.03
40.34
40.0
38.75
36.63
33.98
31.21
28.65
26.32
24.03
21.47
18.42
14.9
11.09
7.31
3.73
0.37
-2.93
-6.4
-10.23
-14.45
-18.99
-23.7
-28.42
-33.04
-37.48
-41.73
-45.82
-49.9
-54.28
-59.33
-65.4
-72.48
-80.01
-86.84
-91.43
-92.3
-88.47
-79.86
-67.2
-51.81
-35.18
-18.58
-2.96
11.11
23.27
33.36
41.37
47.44
51.88
55.07
57.35
58.91
59.83
60.08
59.69
58.78
57.54
56.24
55.14
54.39
54.03
53.98
54.08
54.09
53.76
52.81
51.0
48.14
44.25
39.49
34.26
29.0
24.1
19.72
15.77
11.94
7.83
3.2
-2.0
-7.58
-13.2
-18.56
-23.42
-27.77
-31.77
-35.75
-40.16
-45.5
-52.1
-59.89
-68.24
-75.92
-81.33
-82.92
-79.67
-71.4
-58.88
-43.53
-27.07
-11.06
3.41
15.79
25.94
33.99
40.13
44.55
47.41
48.9
49.31
48.96
48.21
47.33
46.49
45.7
44.91
44.08
43.25
42.52
42.01
41.78
41.7
41.45
40.55
38.56
35.25
30.73
25.45
19.99
14.81
10.09
5.61
0.93
-4.42
-10.65
-17.69
-25.15
-32.58
-39.59
-45.96
-51.72
-57.06
-62.32
-67.91
-74.23
-81.49
-89.48
-97.38
-103.87
-107.35
-106.45
-100.57
-90.05
-76.11
-60.42
-44.56
-29.66
-16.33
-4.79
4.95
12.94
19.23
24.0
27.51
30.09
32.04
33.57
34.81
35.87
36.81
37.71
38.63
39.61
40.65
41.77
42.97
44.22
45.42
46.36
46.69
46.09
44.33
41.42
37.57
33.17
28.64
24.23
20.02
15.87
11.56
6.9
1.81
-3.61
-9.15
-14.56
-19.59
-24.12
-28.11
-31.72
-35.28
-39.21
-44.0
-50.03
-57.31
-65.3
-72.86
-78.42
-80.38
-77.61
-69.9
-57.98
-43.29
-27.5
-12.04
2.17
14.66
25.29
34.01
40.85
45.88
49.34
51.58
52.96
53.75
54.11
54.08
53.67
52.96
52.12
51.33
50.76
50.45
50.33
50.21
49.85
49.0
47.51
45.29
42.37
38.9
35.06
31.07
27.07
23.16
19.32
15.53
11.78
8.1
4.55
1.1
-2.37
-6.1
-10.26
-14.91
-19.88
-24.83
-29.44
-33.52
-37.16
-40.7
-44.65
-49.49
-55.49
-62.53
-69.97
-76.66
-81.14
-81.99
-78.32
-69.99
-57.73
-42.88
-26.97
-11.42
2.76
14.99
25.03
32.94
38.92
43.28
46.39
48.58
50.04
50.9
51.17
50.9
50.17
49.17
48.1
47.21
46.62
46.42
46.54
46.8
46.92
46.65
45.75
44.13
41.81
38.96
35.71
32.23
28.58
24.78
20.84
16.78
12.68
8.6
4.61
0.72
-3.12
-7.0
-10.99
-15.13
-19.36
-23.59
-27.69
-31.59
-35.38
-39.27
-43.68
-49.06
-55.72
-63.55
-71.86
-79.39
-84.55
-85.82
-82.29
-73.9
-61.55
-46.76
-31.24
-16.45
-3.3
7.85
17.01
24.34
29.98
34.0
36.51
37.71
37.94
37.57
36.91
36.06
34.96
33.47
31.57
29.51
27.65
26.41
25.93
26.02
26.21
25.94
24.79
22.62
19.58
15.97
12.15
8.34
4.66
1.1
-2.4
-5.95
-9.59
-13.32
-17.05
-20.64
-23.93
-26.78
-29.19
-31.26
-33.3
-35.73
-38.99
-43.4
-48.91
-54.97
-60.5
-64.17
-64.67
-61.19
-53.64
-42.67
-29.52
-15.63
-2.24
9.75
19.95
28.31
34.99
40.17
43.97
46.43
47.64
47.74
47.01
45.79
44.43
43.21
42.28
41.68
41.32
41.05
40.7
40.14
39.27
38.04
36.44
34.41
31.89
28.78
25.07
20.82
16.19
11.42
6.65
1.93
-2.85
-7.87
-13.28
-19.1
-25.19
-31.31
-37.18
-42.62
-47.54
-51.98
-56.08
-60.07
-64.24
-68.95
-74.49
-80.91
-87.8
-94.21
-98.78
-100.01
-96.8
-88.75
-76.32
-60.65
-43.21
-25.47
-8.57
6.78
20.29
32.04
42.28
51.33
59.4
66.57
72.71
77.69
81.48
84.2
86.14
87.57
88.7
89.58
90.22
90.56
90.58
90.19
89.19
87.29
84.21
79.82
74.22
67.75
60.81
53.73
46.6
39.38
31.92
24.18
16.25
8.3
0.49
-7.14
-14.69
-22.29
-30.0
-37.67
-45.01
-51.7
-57.55
-62.66
-67.37
-72.18
-77.53
-83.64
-90.31
-96.86
-102.17
-104.85
-103.58
-97.47
-86.39
-71.04
-52.84
-33.51
-14.67
2.51
17.48
30.14
40.71
49.48
56.7
62.52
67.03
70.22
72.05
72.45
71.41
69.06
65.71
61.77
57.68
53.79
50.21
46.9
43.63
40.13
36.11
31.28
25.4
18.31
10.06
0.95
-8.58
-17.94
-26.71
-34.69
-41.99
-48.92
-55.84
-62.98
-70.3
-77.52
-84.24
-90.12
-95.04
-99.18
-102.96
-106.89
-111.47
-116.97
-123.36
-130.27
-136.91
-142.28
-145.29
-145.11
-141.39
-134.37
-124.87
-114.01
-102.97
-92.68
-83.76
-76.4
-70.53
-65.91
-62.24
-59.29
-56.92
-55.05
-53.54
-52.14
-50.4
-47.75
-43.61
-37.56
-29.53
-19.82
-9.16
1.52
11.21
19.11
24.76
28.09
29.38
29.14
27.97
26.43
24.96
23.87
23.37
23.55
24.5
26.3
28.98
32.51
36.75
41.37
46.03
50.37
54.08
56.94
58.79
59.53
59.3
58.49
57.91
58.52
61.18
66.28
73.57
82.2
91.06
99.14
105.82
110.93
114.57
116.94
118.18
118.36
117.49
115.63
112.89
109.42
105.41
101.1
96.81
92.91
89.71
87.28
85.34
83.3
80.41
76.12
70.2
62.94
54.96
46.98
39.6
33.09
27.39
22.14
16.91
11.23
4.83
-2.37
-10.27
-18.61
-27.14
-35.66
-44.09
-52.44
-60.65
-68.52
-75.54
-80.94
-83.81
-83.32
-79.02
-71.04
-60.09
-47.29
-33.79
-20.47
-7.75
4.43
16.4
28.51
40.93
53.5
65.8
77.25
87.26
95.4
101.48
105.58
107.97
109.12
109.55
109.81
110.43
111.8
114.15
117.47
121.6
126.36
131.68
137.59
144.07
150.81
157.16
162.26
165.28
165.62
162.87
156.7
146.74
132.6
114.05
91.34
65.24
36.84
7.19
-22.93
-53.03
-82.56
-110.51
-135.27
-154.91
-167.73
-172.92
-170.9
-163.3
-152.46
-140.79
-130.08
-121.21
-114.16
-108.32
-102.96
-97.55
-91.85
-85.88
-79.76
-73.52
-67.19
-60.73
-54.13
-47.43
-40.7
-34.0
-27.39
-20.92
-14.69
-8.85
-3.62
0.7
3.73
5.07
4.43
1.71
-2.86
-8.71
-15.12
-21.43
-27.27
-32.66
-37.99
-43.77
-50.49
-58.39
-67.44
-77.29
-87.2
-96.12
-102.7
-105.55
-103.59
-96.46
-84.71
-69.78
-53.57
-37.94
-24.26
-13.13
-4.51
2.07
7.15
11.15
14.26
16.5
17.83
18.27
17.9
16.91
15.53
14.04
12.68
11.65
11.1
11.07
11.48
12.16
12.87
13.35
13.36
12.7
11.23
8.85
5.56
1.51
-3.01
-7.63
-12.03
-16.07
-19.85
-23.66
-27.88
-32.85
-38.8
-45.72
-53.3
-60.79
-67.03
-70.67
-70.46
-65.67
-56.4
-43.59
-28.73
-13.47
0.8
13.14
23.11
30.58
35.65
38.53
39.56
39.15
37.75
35.79
33.6
31.39
29.24
27.15
25.03
22.77
20.3
17.59
14.76
12.04
9.66
7.77
6.31
5.01
3.4
1.03
-2.4
-6.91
-12.19
-17.68
-22.79
-27.09
-30.46
-33.13
-35.65
-38.65
-42.7
-47.99
-54.19
-60.34
-65.0
-66.65
-64.11
-57.0
-45.91
-32.24
-17.75
-4.0
8.01
17.91
25.77
31.86
36.39
39.48
41.21
41.67
41.02
39.44
37.11
34.21
30.91
27.39
23.88
20.58
17.67
15.29
13.53
12.37
11.71
11.29
10.7
9.49
7.28
3.93
-0.42
-5.39
-10.47
-15.27
-19.61
-23.57
-27.44
-31.6
-36.41
-42.12
-48.72
-55.77
-62.29
-66.91
-68.13
-64.9
-56.95
-45.0
-30.5
-15.18
-0.58
12.29
22.91
31.18
37.17
41.1
43.22
43.88
43.45
42.23
40.42
38.13
35.41
32.36
29.15
25.96
22.99
20.35
18.1
16.2
14.57
13.1
11.69
10.19
8.41
6.11
3.11
-0.68
-5.18
-10.14
-15.23
-20.15
-24.77
-29.1
-33.34
-37.74
-42.59
-48.15
-54.59
-61.79
-69.06
-75.15
-78.42
-77.33
-71.0
-59.59
-44.36
-27.16
-9.92
5.91
19.53
30.64
39.25
45.51
49.61
51.88
52.78
52.79
52.28
51.4
50.08
48.17
45.64
42.62
39.4
36.36
33.77
31.73
30.1
28.65
27.11
25.29
23.15
20.69
17.94
14.9
11.51
7.72
3.52
-1.02
-5.77
-10.59
-15.42
-20.22
-24.99
-29.75
-34.53
-39.51
-44.98
-51.3
-58.6
-66.47
-73.76
-78.72
-79.51
-74.86
-64.61
-49.8
-32.37
-14.52
2.0
16.15
27.65
36.67
43.49
48.31
51.24
52.4
51.99
50.32
47.74
44.59
41.15
37.65
34.27
31.13
28.3
25.82
23.7
21.92
20.46
19.26
18.2
17.05
15.52
13.35
10.31
6.38
1.66
-3.59
-9.09
-14.53
-19.7
-24.52
-29.03
-33.43
-38.07
-43.36
-49.6
-56.77
-64.27
-70.86
-74.91
-74.85
-69.72
-59.53
-45.33
-28.81
-11.83
4.08
17.99
29.48
38.48
45.07
49.38
51.61
52.0
50.92
48.75
45.9
42.7
39.43
36.28
33.35
30.67
28.27
26.15
24.3
22.68
21.21
19.78
18.23
16.37
14.03
11.03
7.21
2.55
-2.85
-8.74
-14.84
-20.84
-26.58
-32.02
-37.23
-42.39
-47.8
-53.82
-60.75
-68.6
-76.73
-83.79
-87.98
-87.53
-81.38
-69.63
-53.53
-35.07
-16.33
1.01
15.99
28.23
37.76
44.76
49.48
52.2
53.26
53.05
51.9
50.04
47.59
44.64
41.3
37.76
34.34
31.31
28.91
27.17
25.94
24.93
23.79
22.25
20.17
17.57
14.52
11.1
7.27
2.91
-2.1
-7.79
-14.0
-20.42
-26.69
-32.49
-37.7
-42.41
-46.98
-51.92
-57.77
-64.83
-72.86
-80.93
-87.45
-90.54
-88.66
-81.1
-68.27
-51.54
-32.77
-13.81
3.89
19.41
32.27
42.3
49.56
54.3
56.97
58.14
58.33
57.95
57.15
55.93
54.21
51.98
49.41
46.83
44.63
43.14
42.46
42.42
42.62
42.54
41.69
39.78
36.77
32.87
28.43
23.79
19.23
14.8
10.36
5.65
0.46
-5.28
-11.39
-17.51
-23.28
-28.46
-33.14
-37.67
-42.63
-48.56
-55.78
-64.08
-72.63
-80.0
-84.44
-84.39
-78.92
-68.06
-52.78
-34.73
-15.79
2.39
18.58
32.07
42.6
50.27
55.41
58.48
59.99
60.39
60.02
59.06
57.59
55.65
53.27
50.54
47.6
44.71
42.15
40.2
38.96
38.31
37.85
37.06
35.48
32.93
29.55
25.73
21.92
18.39
15.12
11.86
8.26
4.06
-0.79
-6.13
-11.68
-17.14
-22.27
-26.99
-31.37
-35.63
-40.11
-45.22
-51.3
-58.37
-66.0
-73.13
-78.28
-79.87
-76.73
-68.51
-55.79
-39.99
-22.87
-6.11
9.07
21.99
32.4
40.3
45.78
49.0
50.25
49.91
48.47
46.44
44.18
41.92
39.73
37.6
35.6
33.85
32.54
31.78
31.51
31.42
31.06
30.02
28.07
25.25
21.82
18.11
14.34
10.57
6.68
2.51
-2.04
-6.95
-12.03
-17.03
-21.76
-26.07
-29.97
-33.57
-37.17
-41.15
-45.91
-51.64
-58.06
-64.28
-68.88
-70.3
-67.35
-59.65
-47.82
-33.25
-17.65
-2.56
10.94
22.33
31.48
38.46
43.43
46.59
48.16
48.41
47.67
46.18
44.13
41.64
38.81
35.8
32.85
30.28
28.32
27.1
26.5
26.23
25.88
25.02
23.39
20.89
17.67
14.01
10.2
6.45
2.81
-0.87
-4.78
-9.03
-13.63
-18.39
-23.08
-27.49
-31.54
-35.28
-38.87
-42.62
-46.91
-52.07
-58.27
-65.25
-72.19
-77.74
-80.35
-78.71
-72.23
-61.3
-47.11
-31.35
-15.61
-1.1
11.54
22.1
30.63
37.24
42.04
45.16
46.81
47.27
46.87
45.91
44.65
43.2
41.65
40.06
38.51
37.1
35.94
35.09
34.55
34.24
33.97
33.49
32.53
30.9
28.43
25.13
21.11
16.58
11.88
7.3
3.05
-0.81
-4.42
-8.02
-11.89
-16.19
-20.9
-25.86
-30.77
-35.38
-39.56
-43.37
-47.09
-51.17
-56.1
-62.2
-69.35
-76.79
-83.18
-86.87
-86.36
-80.86
-70.51
-56.36
-40.03
-23.29
-7.59
6.11
17.37
26.25
33.04
38.18
42.13
45.22
47.63
49.39
50.45
50.79
50.47
49.61
48.41
47.04
45.66
44.39
43.32
42.53
42.02
41.64
41.15
40.24
38.69
36.41
33.49
30.15
26.6
22.96
19.22
15.31
11.21
7.02
2.94
-0.83
-4.21
-7.31
-10.43
-13.87
-17.82
-22.23
-26.87
-31.42
-35.69
-39.66
-43.49
-47.5
-52.02
-57.39
-63.76
-71.06
-78.69
-85.61
-90.35
-91.43
-87.78
-79.13
-66.14
-50.18
-32.98
-16.16
-0.91
12.07
22.6
30.83
37.1
41.79
45.23
47.64
49.14
49.75
49.54
48.61
47.12
45.27
43.29
41.38
39.69
38.32
37.31
36.61
36.05
35.41
34.44
32.92
30.76
27.96
24.64
21.0
17.21
13.44
9.79
6.32
2.97
-0.37
-3.84
-7.58
-11.63
-15.91
-20.26
-24.51
-28.56
-32.41
-36.22
-40.19
-44.58
-49.69
-55.71
-62.61
-69.94
-76.77
-81.76
-83.48
-80.84
-73.45
-61.8
-47.1
-30.87
-14.65
0.37
13.45
24.29
32.88
39.37
44.01
47.04
48.72
49.33
49.12
48.34
47.17
45.71
44.01
42.13
40.19
38.44
37.12
36.36
36.09
36.05
35.83
35.1
33.63
31.41
28.51
25.09
21.26
17.18
12.97
8.8
4.77
0.89
-2.94
-6.9
-11.17
-15.82
-20.77
-25.81
-30.68
-35.17
-39.25
-43.11
-47.13
-51.81
-57.65
-64.87
-73.2
-81.76
-89.09
-93.48
-93.41
-88.01
-77.37
-62.53
-45.12
-26.95
-9.61
5.87
18.97
29.61
37.92
44.13
48.53
51.39
53.04
53.79
53.91
53.52
52.69
51.47
49.97
48.43
47.18
46.49
46.45
46.97
47.72
48.31
48.33
47.54
45.84
43.27
39.97
36.06
31.72
27.07
22.21
17.24
12.24
7.34
2.64
-1.78
-5.9
-9.82
-13.68
-17.68
-21.94
-26.5
-31.27
-36.04
-40.62
-44.95
-49.14
-53.58
-58.78
-65.26
-73.2
-82.25
-91.32
-98.71
-102.49
-101.13
-93.95
-81.4
-64.81
-46.03
-26.84
-8.63
7.71
21.74
33.31
42.48
49.46
54.6
58.33
61.02
62.93
64.14
64.64
64.4
63.43
61.84
59.84
57.7
55.76
54.28
53.4
53.03
52.89
52.59
51.8
50.28
48.03
45.19
41.94
38.46
34.8
30.91
26.7
22.13
17.26
12.29
7.46
2.96
-1.17
-5.09
-9.06
-13.33
-18.02
-23.09
-28.33
-33.55
-38.6
-43.5
-48.37
-53.5
-59.2
-65.83
-73.56
-82.16
-90.79
-97.99
-101.97
-101.12
-94.58
-82.54
-66.23
-47.5
-28.27
-10.07
6.08
19.7
30.65
39.06
45.21
49.47
52.25
53.9
54.67
54.71
54.05
52.77
50.97
48.83
46.55
44.36
42.49
41.08
40.2
39.78
39.62
39.41
38.78
37.43
35.16
31.93
27.94
23.5
18.96
14.59
10.43
6.37
2.13
-2.51
-7.64
-13.15
-18.76
-24.11
-28.91
-33.06
-36.72
-40.26
-44.22
-49.19
-55.52
-63.14
-71.35
-78.86
-84.03
-85.27
-81.55
-72.73
-59.56
-43.49
-26.19
-9.23
6.23
19.46
30.11
38.1
43.57
46.84
48.35
48.58
47.95
46.79
45.3
43.61
41.79
39.92
38.09
36.43
35.05
34.09
33.59
33.52
33.67
33.72
33.3
32.03
29.69
26.27
21.97
17.13
12.16
7.37
2.9
-1.33
-5.51
-9.84
-14.42
-19.14
-23.77
-28.05
-31.86
-35.27
-38.58
-42.25
-46.8
-52.66
-59.98
-68.42
-77.05
-84.4
-88.76
-88.66
-83.31
-72.85
-58.36
-41.45
-23.82
-6.94
8.16
20.84
30.87
38.3
43.49
46.98
49.33
50.95
51.97
52.28
51.72
50.29
48.2
45.89
43.82
42.31
41.44
41.09
41.01
40.92
40.54
39.7
38.33
36.39
33.94
31.02
27.68
23.93
19.8
15.42
10.95
6.56
2.36
-1.69
-5.78
-10.15
-14.92
-20.06
-25.31
-30.33
-34.87
-38.82
-42.29
-45.58
-49.09
-53.27
-58.48
-64.9
-72.36
-80.17
-87.09
-91.51
-91.83
-87.02
-76.92
-62.41
-45.08
-26.89
-9.51
5.9
18.83
29.28
37.53
43.9
48.68
52.06
54.23
55.41
55.85
55.75
55.25
54.33
52.95
51.11
49.02
47.0
45.42
44.48
44.1
43.92
43.49
42.42
40.55
37.99
34.94
31.65
28.2
24.6
20.77
16.7
12.49
8.32
4.4
0.86
-2.35
-5.44
-8.68
-12.31
-16.38
-20.77
-25.22
-29.51
-33.53
-37.34
-41.15
-45.22
-49.84
-55.22
-61.49
-68.48
-75.6
-81.74
-85.39
-85.06
-79.77
-69.5
-55.23
-38.7
-21.81
-6.13
7.38
18.42
27.09
33.66
38.41
41.6
43.43
44.13
43.93
43.03
41.63
39.96
38.2
36.53
35.11
34.02
33.33
33.05
33.14
33.47
33.82
33.9
33.41
32.15
30.05
27.19
23.75
19.95
16.02
12.12
8.37
4.8
1.36
-2.08
-5.67
-9.5
-13.55
-17.65
-21.61
-25.29
-28.7
-32.02
-35.58
-39.75
-44.84
-50.99
-57.97
-65.17
-71.5
-75.57
-76.04
-72.03
-63.44
-51.06
-36.36
-21.05
-6.65
5.89
16.2
24.36
30.62
35.24
38.35
40.11
40.7
40.42
39.59
38.53
37.42
36.33
35.23
34.11
32.97
31.92
31.02
30.34
29.82
29.3
28.54
27.3
25.38
22.73
19.4
15.61
11.62
7.66
3.9
0.35
-3.1
-6.61
-10.38
-14.47
-18.87
-23.4
-27.82
-31.91
-35.57
-38.89
-42.14
-45.76
-50.2
-55.77
-62.45
-69.64
-76.16
-80.48
-81.09
-77.0
-68.08
-55.15
-39.66
-23.34
-7.73
6.14
17.72
26.9
33.86
38.87
42.27
44.41
45.6
46.12
46.17
45.85
45.23
44.29
43.04
41.56
40.01
38.59
37.52
36.87
36.55
36.34
35.9
34.99
33.46
31.28
28.53
25.27
21.59
17.57
13.37
9.18
5.18
1.51
-1.85
-5.05
-8.27
-11.7
-15.38
-19.26
-23.22
-27.08
-30.75
-34.27
-37.8
-41.58
-45.99
-51.32
-57.79
-65.3
-73.32
-80.81
-86.34
-88.4
-85.82
-78.18
-65.98
-50.51
-33.48
-16.55
-1.03
12.3
23.13
31.46
37.57
41.82
44.67
46.53
47.67
48.2
48.1
47.33
45.96
44.18
42.25
40.42
38.85
37.6
36.62
35.89
35.33
34.86
34.33
33.54
32.27
30.4
27.95
25.03
21.87
18.61
15.26
11.71
7.75
3.18
-2.07
-7.96
-14.24
-20.6
-26.72
-32.36
-37.41
-41.88
-45.92
-49.76
-53.74
-58.22
-63.48
-69.52
-75.84
-81.4
-84.75
-84.48
-79.66
-70.28
-57.18
-41.83
-25.83
-10.48
3.34
15.22
24.97
32.6
38.17
41.94
44.26
45.58
46.34
46.82
47.16
47.39
47.45
47.31
47.0
46.62
46.32
46.23
46.35
46.44
46.11
44.82
42.18
38.12
32.92
27.16
21.48
16.36
11.93
7.98
4.12
-0.03
-4.66
-9.69
-14.82
-19.72
-24.16
-28.13
-31.81
-35.57
-39.82
-44.97
-51.26
-58.53
-66.11
-72.75
-76.88
-77.04
-72.37
-62.94
-49.76
-34.46
-18.77
-4.11
8.62
19.01
27.01
32.72
36.41
38.38
39.01
38.67
37.63
36.03
33.9
31.25
28.13
24.65
20.99
17.31
13.75
10.39
7.28
4.39
1.58
-1.42
-4.88
-9.03
-13.89
-19.24
-24.64
-29.61
-33.81
-37.14
-39.73
-41.87
-43.86
-45.95
-48.3
-50.95
-53.81
-56.7
-59.31
-61.4
-62.85
-63.81
-64.72
-66.11
-68.34
-71.31
-74.31
-76.16
-75.47
-71.13
-62.63
-50.19
-34.7
-17.41
0.32
17.33
32.76
46.12
57.27
66.3
73.53
79.31
83.95
87.6
90.29
91.95
92.52
92.0
90.54
88.36
85.77
83.08
80.62
78.64
77.28
76.53
76.14
75.73
74.86
73.19
70.52
66.88
62.43
57.4
52.04
46.53
40.99
35.53
30.2
25.05
20.08
15.26
10.49
5.66
0.65
-4.66
-10.33
-16.37
-22.69
-29.23
-35.98
-43.07
-50.68
-58.96
-67.71
-76.23
-83.31
-87.43
-87.26
-82.07
-72.07
-58.33
-42.47
-26.2
-10.97
2.27
13.04
21.24
27.06
30.92
33.34
34.87
35.92
36.72
37.3
37.61
37.66
37.5
37.21
36.84
36.38
35.77
35.02
34.18
33.29
32.33
31.08
29.26
26.66
23.27
19.36
15.38
11.78
8.87
6.62
4.76
2.76
0.15
-3.4
-7.91
-13.05
-18.32
-23.15
-27.21
-30.44
-33.13
-35.73
-38.78
-42.68
-47.6
-53.31
-59.13
-63.96
-66.52
-65.62
-60.62
-51.65
-39.62
-25.93
-12.1
0.61
11.48
20.26
27.09
32.18
35.75
37.92
38.78
38.47
37.31
35.67
33.97
32.51
31.45
30.75
30.36
30.24
30.44
31.01
31.86
32.71
33.12
32.65
31.0
28.18
24.49
20.42
16.46
12.96
10.01
7.43
4.91
2.11
-1.2
-5.02
-9.18
-13.37
-17.34
-20.96
-24.32
-27.73
-31.55
-36.17
-41.87
-48.77
-56.65
-64.91
-72.48
-78.01
-80.11
-77.82
-70.96
-60.2
-46.9
-32.64
-18.82
-6.38
4.28
13.05
20.02
25.35
29.21
31.82
33.42
34.21
34.32
33.84
32.83
31.45
29.91
28.49
27.44
26.88
26.79
26.99
27.25
27.33
27.04
26.27
24.93
22.99
20.46
17.37
13.86
10.13
6.39
2.83
-0.52
-3.74
-7.02
-10.5
-14.27
-18.26
-22.31
-26.24
-29.92
-33.35
-36.68
-40.11
-43.92
-48.37
-53.65
-59.84
-66.67
-73.5
-79.27
-82.66
-82.4
-77.72
-68.58
-55.77
-40.67
-24.92
-9.94
3.32
14.42
23.34
30.3
35.59
39.47
42.2
43.96
44.92
45.22
45.02
44.41
43.49
42.38
41.15
39.89
38.67
37.54
36.53
35.61
34.75
33.86
32.8
31.45
29.68
27.46
24.86
22.03
19.16
16.36
13.67
11.01
8.25
5.24
1.89
-1.82
-5.84
-10.08
-14.41
-18.75
-23.02
-27.18
-31.26
-35.34
-39.61
-44.37
-49.94
-56.5
-63.87
-71.32
-77.6
-81.21
-80.83
-75.73
-66.08
-52.86
-37.59
-21.85
-6.97
6.18
17.25
26.2
33.21
38.55
42.48
45.23
46.96
47.8
47.83
47.16
45.91
44.29
42.49
40.73
39.15
37.83
36.82
36.07
35.49
34.94
34.18
32.98
31.1
28.46
25.08
21.18
17.07
13.06
9.36
6.0
2.82
-0.47
-4.17
-8.4
-13.1
-17.98
-22.73
-27.08
-30.99
-34.64
-38.41
-42.7
-47.91
-54.18
-61.29
-68.52
-74.67
-78.34
-78.25
-73.71
-64.85
-52.59
-38.33
-23.59
-9.66
2.65
12.95
21.19
27.53
32.24
35.59
37.82
39.13
39.67
39.6
39.06
38.2
37.14
35.97
34.84
33.9
33.32
33.23
33.63
34.32
34.93
35.02
34.26
32.48
29.7
26.06
21.84
17.35
12.88
8.69
4.9
1.42
-1.97
-5.55
-9.51
-13.85
-18.34
-22.69
-26.58
-29.92
-32.82
-35.54
-38.5
-42.15
-46.85
-52.7
-59.31
-65.76
-70.67
-72.57
-70.35
-63.62
-52.89
-39.35
-24.51
-9.82
3.65
15.2
24.56
31.73
36.9
40.41
42.64
43.94
44.57
44.66
44.28
43.49
42.34
40.96
39.51
38.15
37.01
36.1
35.31
34.43
33.2
31.43
29.04
26.05
22.61
18.87
15.02
11.19
7.44
3.82
0.36
-2.92
-5.98
-8.78
-11.31
-13.62
-15.85
-18.18
-20.77
-23.63
-26.68
-29.77
-32.76
-35.64
-38.52
-41.65
-45.32
-49.8
-55.24
-61.47
-67.9
-73.49
-76.91
-76.88
-72.57
-63.93
-51.66
-37.09
-21.75
-7.03
6.11
17.17
26.07
32.98
38.22
42.1
44.93
46.91
48.16
48.77
48.81
48.3
47.3
45.88
44.14
42.26
40.47
38.98
37.91
37.24
36.82
36.36
35.58
34.24
32.27
29.68
26.58
23.14
19.49
15.76
12.06
8.46
5.01
1.71
-1.5
-4.68
-7.93
-11.3
-14.8
-18.38
-22.05
-25.8
-29.66
-33.67
-37.92
-42.51
-47.62
-53.41
-59.87
-66.65
-72.93
-77.5
-79.13
-76.93
-70.72
-61.1
-49.26
-36.59
-24.31
-13.31
-4.02
3.43
9.1
13.21
16.01
17.82
18.91
19.47
19.66
19.54
19.16
18.57
17.86
17.12
16.45
16.03
16.0
16.44
17.28
18.26
19.01
19.14
18.4
16.76
14.48
11.89
9.39
7.2
5.39
3.89
2.56
1.23
-0.26
-1.95
-3.83
-5.8
-7.75
-9.58
-11.31
-13.14
-15.41
-18.52
-22.76
-28.09
-34.0
-39.56
-43.55
-44.78
-42.39
-36.14
-26.45
-14.3
-1.05
11.86
23.27
32.4
39.06
43.47
46.17
47.68
48.41
48.51
47.98
46.82
45.1
43.01
40.84
38.86
37.25
36.15
35.62
35.65
36.18
37.04
37.96
38.62
38.69
37.91
36.15
33.45
29.99
26.02
21.81
17.53
13.3
9.12
4.9
0.54
-4.09
-9.03
-14.25
-19.61
-24.9
-29.92
-34.56
-38.86
-43.02
-47.4
-52.43
-58.46
-65.55
-73.37
-81.06
-87.36
-90.9
-90.56
-85.84
-76.98
-64.93
-51.01
-36.66
-23.05
-11.03
-1.02
6.95
13.11
17.89
21.71
24.93
27.68
29.97
31.73
32.94
33.69
34.13
34.44
34.76
35.21
35.84
36.73
37.86
39.13
40.3
41.05
41.1
40.25
38.53
36.11
33.2
29.96
26.42
22.58
18.38
13.88
9.21
4.53
0.04
-4.17
-8.12
-11.95
-15.8
-19.82
-24.03
-28.34
-32.63
-36.8
-40.92
-45.19
-49.85
-55.17
-61.24
-67.99
-75.08
-81.89
-87.5
-90.81
-90.71
-86.34
-77.48
-64.62
-48.94
-32.06
-15.58
-0.77
11.67
21.58
29.22
35.01
39.42
42.76
45.24
46.98
48.06
48.62
48.77
48.63
48.26
47.71
46.99
46.15
45.24
44.33
43.46
42.61
41.68
40.54
39.03
37.0
34.37
31.16
27.49
