-71.57
-59.74
-44.1
-26.92
-10.47
3.68
14.96
23.64
30.4
35.81
40.13
43.33
45.34
46.22
46.28
45.84
45.23
44.5
43.5
42.04
40.0
37.52
34.91
32.57
30.74
29.42
28.38
27.31
25.99
24.41
22.74
21.23
19.96
18.78
17.38
15.34
12.45
8.81
4.74
0.71
-2.91
-6.0
-8.74
-11.48
-14.55
-18.14
-22.18
-26.43
-30.55
-34.23
-37.36
-39.99
-42.4
-45.03
-48.38
-52.83
-58.44
-64.66
-70.32
-73.74
-73.28
-67.87
-57.5
-43.35
-27.38
-11.67
2.19
13.46
22.19
28.78
33.66
37.04
38.99
39.65
39.38
38.66
38.01
37.73
37.8
37.96
37.87
37.35
36.45
35.42
34.58
34.09
33.86
33.58
32.88
31.43
29.2
26.35
23.23
20.16
17.33
14.7
12.03
8.99
5.3
0.89
-4.05
-9.13
-13.96
-18.3
-22.19
-25.93
-29.85
-34.16
-38.81
-43.51
-47.92
-51.83
-55.26
-58.47
-61.9
-66.11
-71.59
-78.61
-86.87
-95.29
-102.04
-104.95
-102.22
-93.17
-78.55
-60.28
-40.77
-22.06
-5.37
8.95
21.05
31.15
39.32
45.53
49.91
52.84
54.9
56.65
58.38
60.03
61.29
61.81
61.42
60.31
58.92
57.81
57.38
57.72
58.52
59.18
59.11
57.86
55.36
51.81
47.68
43.43
39.46
35.93
32.83
29.86
26.73
23.19
19.21
14.98
10.84
7.06
3.69
0.47
-3.06
-7.36
-12.64
-18.8
-25.4
-31.88
-37.83
-43.1
-47.95
-52.9
-58.57
-65.43
-73.59
-82.58
-91.29
-98.04
-100.96
-98.51
-89.93
-75.71
-57.43
-37.43
-18.07
-1.09
12.7
23.4
31.64
38.16
43.5
48.0
51.78
54.9
57.44
59.41
60.77
61.45
61.39
60.62
59.31
57.75
56.24
54.97
54.01
53.26
52.47
51.38
49.74
47.4
44.29
40.48
36.07
31.18
25.93
20.52
15.11
9.91
5.09
0.71
-3.25
-6.96
-10.67
-14.56
-18.78
-23.35
-28.15
-32.98
-37.63
-41.96
-45.95
-49.81
-53.91
-58.73
-64.67
-71.86
-79.86
-87.52
-93.13
-94.7
-90.69
-80.58
-65.13
-46.28
-26.5
-8.09
7.47
19.67
28.79
35.48
40.36
43.87
46.28
47.8
48.67
49.12
49.28
49.15
48.61
47.52
45.86
43.83
41.79
40.16
39.26
39.08
39.3
39.43
38.98
37.71
35.63
32.96
29.97
26.76
23.31
19.49
15.28
10.77
6.21
1.86
-2.16
-5.99
-9.93
-14.29
-19.17
-24.38
-29.49
-34.07
-37.94
-41.25
-44.42
-47.99
-52.45
-58.12
-65.02
-72.81
-80.55
-86.71
-89.41
-86.96
-78.51
-64.49
-46.6
-27.19
-8.51
7.95
21.67
32.83
41.95
49.51
55.74
60.76
64.64
67.46
69.32
70.24
70.18
69.04
66.71
63.25
58.92
54.23
49.81
46.26
43.93
42.73
42.18
41.63
40.45
38.36
35.39
31.86
28.04
24.13
20.12
15.91
11.44
6.71
1.79
-3.23
-8.24
-13.06
-17.5
-21.33
-24.55
-27.41
-30.33
-33.83
-38.13
-43.08
-48.17
-52.77
-56.47
-59.3
-61.71
-64.4
-68.03
-73.09
-79.73
-87.61
-95.76
-102.58
-106.04
-104.25
-96.14
-81.97
-63.37
-42.86
-23.03
-5.72
8.29
19.22
27.76
34.64
40.31
44.91
48.46
51.01
52.72
53.81
54.41
54.56
54.19
53.12
51.38
49.19
47.0
45.38
44.65
44.75
45.18
45.19
44.18
41.91
38.63
34.86
31.11
27.66
24.48
21.31
17.86
13.93
9.54
4.84
0.11
-4.43
-8.7
-12.86
-17.18
-22.01
-27.49
-33.44
-39.46
-45.02
-49.74
-53.58
-56.91
-60.29
-64.34
-69.48
-75.89
-83.27
-90.85
-97.3
-100.89
-99.85
-92.98
-80.13
-62.45
-42.1
-21.59
-2.98
12.54
24.79
34.18
41.33
46.73
50.67
53.41
55.25
56.57
57.64
58.51
58.98
58.73
57.48
55.2
52.23
49.1
46.4
44.51
43.45
42.88
42.22
40.9
38.61
35.39
31.6
27.72
24.18
21.16
18.63
16.34
14.07
11.61
8.94
6.1
3.12
-0.09
-3.72
-8.0
-13.05
-18.78
-24.82
-30.7
-35.99
-40.54
-44.56
-48.56
-53.24
-59.19
-66.67
-75.28
-83.86
-90.6
-93.44
-90.75
-81.91
-67.63
-49.78
-30.74
-12.7
2.98
15.87
26.22
34.6
41.42
46.88
50.96
53.69
55.17
55.68
55.52
54.92
53.98
52.64
50.86
48.62
46.12
43.65
41.54
40.07
39.37
39.36
39.74
40.08
39.89
38.75
36.46
33.09
28.95
24.45
19.95
15.58
11.22
6.62
1.53
-4.09
-10.07
-16.11
-21.93
-27.4
-32.57
-37.64
-42.85
-48.48
-54.72
-61.69
-69.29
-77.02
-83.79
-87.99
-87.86
-82.14
-70.63
-54.46
-35.82
-17.23
-0.76
12.52
22.55
29.93
35.46
39.7
42.92
45.21
46.57
47.13
47.01
46.4
45.41
44.06
42.39
40.46
38.41
36.46
34.82
33.58
32.64
31.75
30.56
28.85
26.53
23.68
20.43
16.92
13.17
9.24
5.19
1.14
-2.77
-6.46
-9.98
-13.52
-17.32
-21.64
-26.51
-31.8
-37.14
-42.07
-46.25
-49.57
-52.25
-54.79
-57.84
-61.97
-67.57
-74.56
-82.24
-89.25
-93.64
-93.45
-87.28
-74.94
-57.6
-37.56
-17.48
0.5
15.22
26.64
35.44
42.43
48.13
52.7
56.04
58.06
58.85
58.69
57.95
56.92
55.77
54.57
53.3
52.01
50.77
49.71
48.81
47.98
46.93
45.33
42.98
39.84
36.08
31.99
27.84
23.74
19.64
15.42
11.01
6.46
1.97
-2.23
-6.0
-9.37
-12.6
-16.03
-19.93
-24.38
-29.2
-34.03
-38.48
-42.37
-45.76
-49.07
-52.83
-57.6
-63.68
-70.87
-78.35
-84.67
-87.99
-86.64
-79.68
-67.34
-51.03
-32.91
-15.2
0.5
13.47
23.83
32.08
38.65
43.78
47.48
49.77
50.8
50.87
50.33
49.41
48.23
46.8
45.14
43.34
41.6
40.19
39.32
39.01
39.08
39.13
38.66
37.33
35.0
31.86
28.24
24.51
20.82
17.13
13.28
9.12
4.72
0.31
-3.83
-7.51
-10.81
-14.03
-17.57
-21.64
-26.19
-30.95
-35.51
-39.57
-43.09
-46.31
-49.67
-53.67
-58.72
-64.99
-72.29
-79.9
-86.51
-90.4
-89.89
-83.93
-72.53
-56.95
-39.24
-21.61
-5.74
7.58
18.32
26.86
33.6
38.7
42.2
44.19
44.98
45.04
44.87
44.76
44.74
44.54
43.82
42.42
40.45
38.29
36.46
35.32
34.93
34.98
34.94
34.23
32.42
29.4
25.32
20.6
15.79
11.35
7.5
4.13
0.82
-2.96
-7.56
-13.01
-18.88
-24.52
-29.34
-33.09
-35.93
-38.35
-40.99
-44.41
-49.0
-54.94
-62.1
-69.85
-76.96
-81.72
-82.39
-77.69
-67.47
-52.8
-35.68
-18.39
-2.82
10.0
19.92
27.37
32.99
37.27
40.5
42.73
44.04
44.44
44.06
43.05
41.54
39.65
37.48
35.11
32.7
30.44
28.57
27.24
26.46
26.08
25.75
25.15
24.06
22.41
20.31
17.97
15.55
13.17
10.86
8.62
6.41
4.17
1.74
-1.09
-4.58
-8.85
-13.86
-19.37
-24.99
-30.35
-35.23
-39.63
-43.83
-48.29
-53.53
-59.98
-67.81
-76.71
-85.68
-93.15
-97.18
-96.03
-88.81
-75.81
-58.44
-38.85
-19.27
-1.37
13.93
26.48
36.58
44.67
51.12
56.16
59.96
62.64
64.37
65.29
65.56
65.33
64.69
63.72
62.52
61.2
59.88
58.72
57.79
57.05
56.35
55.44
54.1
52.17
49.55
46.34
42.68
38.8
34.86
30.87
26.68
22.06
16.78
10.81
4.38
-2.09
-8.06
-13.19
-17.38
-20.85
-24.0
-27.25
-30.88
-34.9
-39.12
-43.24
-46.97
-50.17
-52.95
-55.61
-58.66
-62.62
-67.84
-74.16
-80.78
-86.16
-88.43
-85.93
-77.89
-64.76
-48.14
-30.24
-13.13
1.87
14.29
24.36
32.5
39.05
44.11
47.66
49.84
50.91
51.26
51.23
50.93
50.32
49.3
47.8
45.94
44.01
42.3
41.03
40.23
39.71
39.18
38.35
37.06
35.31
33.24
31.03
28.81
26.61
24.36
21.88
19.03
15.72
12.05
8.17
4.3
0.54
-3.14
-6.92
-11.03
-15.56
-20.45
-25.45
-30.22
-34.53
-38.32
-41.7
-44.93
-48.33
-52.21
-56.82
-62.2
-67.95
-73.1
-76.16
-75.53
-70.02
-59.47
-44.98
-28.53
-12.43
1.57
12.63
20.93
27.13
31.98
35.83
38.65
40.28
40.64
40.01
38.82
37.59
36.56
35.71
34.77
33.53
31.95
30.26
28.79
27.78
27.25
26.99
26.66
25.93
24.6
22.63
20.08
17.1
13.89
10.67
7.59
4.68
1.8
-1.32
-4.95
-9.25
-14.09
-19.16
-24.01
-28.26
-31.72
-34.49
-36.89
-39.42
-42.61
-46.88
-52.37
-58.75
-65.07
-69.9
-71.53
-68.6
-60.57
-48.04
-32.63
-16.49
-1.55
10.99
20.88
28.5
34.41
38.94
42.12
43.84
44.15
43.41
42.22
41.15
40.48
40.11
39.68
38.82
37.44
35.64
33.81
32.26
31.13
30.34
29.61
28.68
27.38
25.68
23.62
21.25
18.59
15.63
12.39
8.98
5.52
2.18
-1.02
-4.12
-7.31
-10.83
-14.84
-19.37
-24.25
-29.11
-33.61
-37.46
-40.66
-43.47
-46.33
-49.74
-54.06
-59.48
-65.8
-72.35
-77.92
-80.96
-79.94
-73.88
-62.86
-48.05
-31.45
-15.2
-0.87
10.8
19.93
27.1
32.86
37.55
41.27
43.98
45.72
46.62
46.86
46.59
45.87
44.73
43.18
41.28
39.26
37.34
35.79
34.73
34.11
33.69
33.1
31.96
30.06
27.4
24.24
20.93
17.77
14.89
12.16
9.35
6.25
2.82
-0.78
-4.27
-7.48
-10.44
-13.37
-16.57
-20.25
-24.34
-28.57
-32.56
-36.09
-39.2
-42.2
-45.53
-49.56
-54.54
-60.45
-66.97
-73.4
-78.56
-80.98
-79.22
-72.44
-60.79
-45.53
-28.69
-12.4
1.82
13.31
22.23
29.11
34.41
38.34
40.98
42.42
42.89
42.78
42.46
42.08
41.63
40.94
39.89
38.5
37.07
35.97
35.56
35.94
36.89
37.92
38.45
38.03
36.51
34.02
30.93
27.64
24.46
21.5
18.68
15.75
12.51
8.81
4.75
0.56
-3.41
-6.86
-9.74
-12.23
-14.75
-17.72
-21.34
-25.51
-29.85
-33.97
-37.56
-40.62
-43.44
-46.44
-50.07
-54.62
-60.13
-66.31
-72.39
-77.18
-79.25
-77.34
-70.78
-59.86
-45.78
-30.31
-15.21
-1.76
9.42
18.29
25.14
30.27
33.91
36.2
37.33
37.52
37.1
36.39
35.65
35.04
34.56
34.08
33.46
32.59
31.53
30.42
29.42
28.55
27.66
26.46
24.66
22.09
18.78
14.95
10.95
7.09
3.64
0.66
-1.99
-4.63
-7.68
-11.44
-15.97
-20.97
-25.92
-30.27
-33.74
-36.38
-38.6
-40.98
-44.03
-48.15
-53.45
-59.73
-66.31
-71.99
-75.2
-74.4
-68.55
-57.71
-43.07
-26.67
-10.7
3.17
14.22
22.59
28.97
34.01
38.1
41.28
43.4
44.39
44.35
43.55
42.31
40.84
39.24
37.5
35.6
33.65
31.88
30.57
29.9
29.76
29.74
29.22
27.65
24.75
20.73
16.14
11.68
7.87
4.81
2.19
-0.58
-4.04
-8.42
-13.57
-19.05
-24.28
-28.85
-32.59
-35.7
-38.61
-41.93
-46.21
-51.91
-59.15
-67.63
-76.39
-83.88
-88.18
-87.53
-80.95
-68.72
-52.41
-34.36
-16.9
-1.67
10.75
20.62
28.6
35.22
40.66
44.81
47.53
48.82
48.98
48.43
47.55
46.55
45.5
44.29
42.88
41.37
40.0
39.11
38.9
39.31
39.9
39.98
38.9
36.25
32.13
27.0
21.55
16.36
11.7
7.43
3.1
-1.76
-7.44
-13.92
-20.79
-27.48
-33.49
-38.6
-42.97
-47.04
-51.4
-56.59
-63.01
-70.8
-79.6
-88.49
-95.84
-99.64
-98.07
-90.22
-76.57
-58.93
-39.83
-21.62
-5.72
7.51
18.54
27.98
36.22
43.21
48.78
52.83
55.53
57.25
58.35
59.01
59.2
58.76
57.6
55.8
53.64
51.52
49.78
48.56
47.73
46.91
45.6
43.37
40.0
35.61
30.59
25.47
20.7
16.51
12.77
9.06
4.91
-0.04
-5.84
-12.16
-18.51
-24.41
-29.68
-34.51
-39.42
-45.08
-52.06
-60.55
-70.2
-79.96
-88.22
-93.08
-92.9
-86.85
-75.27
-59.59
-41.93
-24.41
-8.55
5.0
16.33
25.85
33.95
40.81
46.42
50.73
53.8
55.77
56.85
57.18
56.9
56.08
54.84
53.32
51.73
50.3
49.24
48.65
48.44
48.21
47.38
45.38
41.9
37.14
31.73
26.44
21.79
17.84
14.08
9.81
4.5
-1.88
-8.85
-15.68
-21.8
-27.04
-31.69
-36.35
-41.59
-47.87
-55.39
-64.02
-73.14
-81.61
-87.79
-89.86
-86.42
-77.06
-62.67
-45.2
-27.05
-10.28
3.96
15.47
24.69
32.18
38.36
43.36
47.27
50.19
52.32
53.81
54.69
54.78
53.84
51.77
48.74
45.24
41.9
39.25
37.46
36.29
35.19
33.59
31.11
27.77
23.89
19.92
16.21
12.86
9.67
6.24
2.12
-2.97
-9.01
-15.68
-22.44
-28.79
-34.44
-39.52
-44.49
-50.01
-56.63
-64.56
-73.35
-81.88
-88.44
-91.13
-88.43
-79.76
-65.78
-48.34
-29.83
-12.46
2.37
14.24
23.53
30.85
36.71
41.28
44.58
46.65
47.68
47.95
47.72
47.12
46.13
44.67
42.78
40.64
38.57
36.88
35.67
34.77
33.76
32.17
29.67
26.24
22.18
17.99
14.13
10.8
7.82
4.77
1.17
-3.29
-8.56
-14.28
-19.94
-25.1
-29.59
-33.59
-37.59
-42.22
-48.06
-55.31
-63.62
-71.83
-78.18
-80.7
-77.87
-69.18
-55.46
-38.55
-20.73
-3.97
10.57
22.6
32.35
40.19
46.3
50.64
53.16
54.02
53.68
52.78
51.84
51.13
50.54
49.71
48.31
46.23
43.69
41.17
39.14
37.87
37.23
36.8
36.0
34.36
31.65
27.98
23.66
19.11
14.64
10.43
6.43
2.43
-1.82
-6.52
-11.72
-17.25
-22.78
-27.96
-32.61
-36.72
-40.56
-44.52
-49.07
-54.6
-61.43
-69.6
-78.69
-87.59
-94.56
-97.56
-94.87
-85.84
-71.21
-52.92
-33.45
-14.98
1.2
14.75
25.99
35.35
43.03
48.96
53.0
55.24
56.05
55.99
55.52
54.84
53.88
52.46
50.5
48.18
45.9
44.09
43.02
42.58
42.38
41.89
40.71
38.72
36.14
33.36
30.73
28.39
26.22
23.95
21.26
17.98
14.11
9.81
5.36
1.01
-3.03
-6.73
-10.19
-13.66
-17.46
-21.79
-26.64
-31.73
-36.65
-40.98
-44.56
-47.58
-50.52
-54.04
-58.73
-64.89
-72.29
-80.1
-86.77
-90.42
-89.31
-82.44
-70.05
-53.55
-35.18
-17.2
-1.28
11.82
22.2
30.36
36.8
41.77
45.31
47.42
48.28
48.23
47.68
46.97
46.22
45.41
44.43
43.23
41.91
40.69
39.78
39.2
38.83
38.33
37.33
35.61
33.1
29.92
26.29
22.4
18.37
14.3
10.29
6.49
3.0
-0.11
-2.99
-5.92
-9.2
-13.03
-17.39
-22.0
-26.47
-30.44
-33.81
-36.77
-39.77
-43.38
-48.1
-54.18
-61.46
-69.26
-76.32
-81.07
-81.9
-77.71
-68.35
-54.69
-38.5
-21.82
-6.42
6.72
17.4
25.98
32.92
38.54
42.83
45.73
47.28
47.72
47.47
46.9
46.23
45.43
44.36
42.88
41.0
38.88
36.75
34.8
33.14
31.74
30.44
29.04
27.35
25.19
22.46
19.19
15.53
11.69
7.94
4.47
1.33
-1.61
-4.63
-8.04
-12.03
-16.56
-21.35
-25.98
-30.09
-33.55
-36.55
-39.47
-42.77
-46.75
-51.62
-57.42
-64.05
-71.08
-77.56
-82.02
-82.71
-78.24
-68.18
-53.43
-36.05
-18.48
-2.82
9.87
19.55
26.89
32.61
37.18
40.69
43.14
44.62
45.43
45.94
46.39
46.76
46.77
46.12
44.66
42.56
40.25
38.18
36.64
35.61
34.79
33.78
32.22
30.04
27.32
24.37
21.41
18.57
15.8
12.9
9.66
5.93
1.77
-2.67
-7.12
-11.38
-15.38
-19.22
-23.06
-27.09
-31.33
-35.66
-39.84
-43.6
-46.88
-49.79
-52.72
-56.17
-60.71
-66.62
-73.75
-81.2
-87.4
-90.38
-88.47
-80.87
-68.15
-52.04
-34.91
-18.92
-5.36
5.5
14.13
21.3
27.59
33.17
37.98
41.89
44.88
47.09
48.7
49.82
50.42
50.36
49.52
47.93
45.87
43.78
42.09
41.03
40.49
40.1
39.4
38.1
36.17
33.82
31.31
28.83
26.36
23.77
20.9
17.68
14.18
10.54
6.91
3.35
-0.21
-3.97
-8.17
-12.98
-18.39
-24.16
-29.91
-35.21
-39.84
-43.88
-47.69
-51.79
-56.65
-62.54
-69.27
-76.21
-82.14
-85.54
-84.94
-79.35
-68.76
-54.23
-37.65
-21.07
-6.15
6.34
16.45
24.72
31.67
37.5
42.09
45.2
46.77
47.08
46.65
46.03
45.55
45.23
44.82
44.0
42.63
40.79
38.74
36.81
35.16
33.78
32.47
30.95
28.98
26.4
23.22
19.57
15.74
11.98
8.5
5.34
2.34
-0.85
-4.58
-9.04
-14.2
-19.73
-25.15
-30.06
-34.28
-37.92
-41.43
-45.34
-50.21
-56.38
-63.88
-72.26
-80.52
-87.12
-90.29
-88.5
-81.04
-68.35
-52.01
-34.16
-16.91
-1.66
11.05
21.42
29.9
36.88
42.42
46.41
48.7
49.36
48.75
47.41
45.95
44.77
43.99
43.42
42.78
41.85
40.63
39.35
38.29
37.57
37.03
36.25
34.79
32.33
28.87
24.74
20.42
16.35
12.77
9.62
6.62
3.33
-0.65
-5.53
-11.19
-17.3
-23.33
-28.79
-33.45
-37.36
-40.88
-44.49
-48.72
-54.02
-60.66
-68.51
-76.89
-84.37
-89.03
-88.92
-82.8
-70.76
-54.26
-35.72
-17.6
-1.67
11.41
21.87
30.32
37.26
42.8
46.9
49.54
51.0
51.71
52.15
52.55
52.87
52.84
52.28
51.18
49.84
48.67
48.03
48.0
48.31
48.49
48.07
46.77
44.61
41.82
38.68
35.39
31.93
28.17
23.92
19.11
13.84
8.37
3.04
-1.9
-6.35
-10.45
-14.46
-18.68
-23.23
-28.06
-32.95
-37.65
-42.03
-46.18
-50.34
-54.84
-60.03
-66.2
-73.5
-81.77
-90.28
-97.67
-102.06
-101.6
-95.2
-83.02
-66.53
-48.06
-29.89
-13.64
0.14
11.72
21.68
30.46
38.14
44.56
49.54
53.05
55.29
56.56
57.15
57.25
56.93
56.18
55.07
53.75
52.48
51.57
51.22
51.43
51.9
52.14
51.62
49.99
47.19
43.49
39.33
35.15
31.22
27.56
24.01
20.26
16.09
11.48
6.61
1.84
-2.41
-5.94
-8.8
-11.34
-14.07
-17.38
-21.44
-26.1
-31.02
-35.82
-40.34
-44.61
-48.86
-53.39
-58.48
-64.37
-71.24
-79.06
-87.38
-95.1
-100.55
-101.77
-97.21
-86.37
-70.14
-50.62
-30.39
-11.66
4.26
17.14
27.43
35.73
42.41
47.52
51.01
53.01
53.89
54.17
54.28
54.41
54.45
54.14
53.35
52.18
50.94
50.03
49.7
49.91
50.29
50.36
49.69
48.08
45.6
42.56
39.29
36.05
32.94
29.85
26.54
22.78
18.47
13.68
8.66
3.66
-1.14
-5.75
-10.31
-15.07
-20.11
-25.35
-30.58
-35.52
-40.0
-44.14
-48.25
-52.86
-58.51
-65.58
-74.06
-83.33
-92.04
-98.25
-99.91
-95.49
-84.58
-68.17
-48.36
-27.73
-8.51
7.96
21.32
31.85
40.03
46.19
50.45
52.89
53.74
53.43
52.46
51.2
49.75
48.05
45.91
43.32
40.46
37.72
35.46
33.92
33.07
32.67
32.33
31.73
30.7
29.32
27.81
26.4
25.22
24.12
22.74
20.68
17.57
13.38
8.41
3.26
-1.42
-5.22
-8.11
-10.51
-13.07
-16.45
-20.97
-26.58
-32.88
-39.33
-45.56
-51.45
-57.2
-63.16
-69.8
-77.56
-86.71
-97.1
-107.93
-117.65
-124.14
-125.29
-119.77
-107.53
-89.93
-69.32
-48.23
-28.7
-11.82
2.26
13.93
23.81
32.4
39.99
46.66
52.41
57.19
61.01
63.92
66.06
67.57
68.62
69.4
70.11
71.03
72.35
74.14
76.21
78.11
79.24
79.06
77.29
73.95
69.41
64.12
58.55
53.0
47.58
42.26
36.96
31.63
26.31
21.16
16.37
12.08
8.25
4.64
0.82
-3.63
-9.01
-15.4
-22.6
-30.24
-37.85
-45.02
-51.46
-57.05
-61.83
-66.03
-70.01
-74.23
-79.24
-85.51
-93.26
-102.09
-110.78
-117.33
-119.44
-115.27
-104.19
-87.16
-66.43
-44.77
-24.55
-7.12
7.27
19.1
29.05
37.6
44.96
51.19
56.31
60.44
63.67
66.07
67.7
68.56
68.73
68.3
67.42
66.22
64.81
63.26
61.58
59.65
57.36
54.56
51.29
47.69
44.03
40.59
37.56
34.92
32.52
30.11
27.47
24.46
21.03
17.22
13.09
8.75
4.36
0.18
-3.6
-6.83
-9.67
-12.46
-15.67
-19.66
-24.5
-29.9
-35.34
-40.3
-44.55
-48.16
-51.57
-55.32
-59.98
-65.88
-73.03
-80.86
-88.12
-93.11
-93.95
-89.32
-79.01
-64.04
-46.44
-28.55
-12.22
1.61
12.88
22.1
29.77
36.13
41.1
44.53
46.41
47.04
46.84
46.23
45.47
44.63
43.71
42.73
41.84
41.26
41.14
41.43
41.94
42.37
42.43
41.93
40.78
38.94
36.38
33.13
29.28
25.0
20.55
16.21
12.14
8.38
4.77
1.05
-3.01
-7.54
-12.49
-17.63
-22.68
-27.41
-31.79
-35.9
-40.03
-44.46
-49.5
-55.4
-62.22
-69.68
-76.92
-82.52
-84.77
-82.22
-74.25
-61.46
-45.47
-28.46
-12.39
1.5
12.88
22.06
29.5
35.52
40.13
43.2
44.7
44.87
44.25
43.42
42.81
42.49
42.2
41.6
40.48
38.97
37.53
36.64
36.55
37.11
37.77
37.87
36.9
34.7
31.5
27.76
23.97
20.46
17.28
14.28
11.26
8.02
4.53
0.93
-2.57
-5.78
-8.68
-11.42
-14.32
-17.71
-21.81
-26.59
-31.81
-37.12
-42.19
-46.84
-51.11
-55.29
-59.77
-65.0
-71.33
-78.76
-86.71
-93.89
-98.46
-98.54
-92.85
-81.36
-65.27
-46.75
-28.1
-11.09
3.38
15.24
24.83
32.54
38.66
43.34
46.76
49.16
50.78
51.84
52.41
52.52
52.17
51.41
50.35
49.16
48.03
47.17
46.69
46.63
46.88
47.15
47.09
46.34
44.69
42.14
38.9
35.34
31.86
28.7
25.92
23.37
20.78
17.9
14.54
10.69
6.46
2.12
-2.06
-5.9
-9.35
-12.6
-15.97
-19.8
-24.27
-29.33
-34.7
-40.0
-44.92
-49.32
-53.31
-57.17
-61.27
-66.01
-71.7
-78.43
-85.8
-92.76
-97.68
-98.7
-94.4
-84.39
-69.59
-51.95
-33.78
-17.03
-2.74
8.96
18.52
26.49
33.2
38.7
42.95
45.93
47.81
48.91
49.5
49.8
49.86
49.63
49.03
48.09
46.94
45.79
44.82
44.06
43.37
42.47
41.1
39.11
36.58
33.72
30.78
27.93
25.22
22.48
19.53
16.12
12.22
7.94
3.59
-0.52
-4.24
-7.66
-11.12
-15.04
-19.65
-24.88
-30.36
-35.55
-40.05
-43.73
-46.83
-49.83
-53.29
-57.76
-63.5
-70.36
-77.56
-83.7
-86.98
-85.71
-78.96
-66.97
-51.11
-33.5
-16.25
-0.93
11.76
21.83
29.66
35.71
40.3
43.61
45.81
47.11
47.7
47.78
47.47
46.83
45.88
44.67
43.29
41.93
40.79
40.04
39.71
39.6
39.35
38.52
36.79
34.11
30.78
27.25
23.91
20.92
18.12
15.12
11.62
7.52
3.05
-1.39
-5.35
-8.65
-11.36
-13.86
-16.55
-19.82
-23.81
-28.39
-33.23
-37.93
-42.15
-45.79
-49.04
-52.32
-56.19
-61.14
-67.43
-74.84
-82.51
-88.97
-92.37
-91.01
-83.98
-71.58
-55.3
-37.33
-19.85
-4.32
8.67
19.31
28.03
35.22
41.03
45.48
48.63
50.68
51.93
52.64
52.93
52.84
52.4
51.67
50.79
49.95
49.26
48.78
48.51
48.39
48.32
48.16
47.68
46.6
44.76
42.13
38.92
35.48
32.17
29.17
26.42
23.66
20.62
17.12
13.18
8.97
4.71
0.6
-3.26
-6.92
-10.49
-14.15
-18.09
-22.42
-27.12
-32.02
-36.85
-41.29
-45.17
-48.51
-51.54
-54.71
-58.57
-63.64
-70.19
-78.0
-86.14
-93.04
-96.8
-95.68
-88.77
-76.36
-59.91
-41.57
-23.53
-7.39
6.11
16.98
25.62
32.53
38.02
42.25
45.3
47.3
48.41
48.86
48.84
48.47
47.77
46.74
45.47
44.1
42.89
42.09
41.79
41.85
41.94
41.64
40.63
38.84
36.47
33.86
31.35
29.07
26.92
24.62
21.92
18.65
14.89
10.9
7.03
3.58
0.65
-1.94
-4.55
-7.59
-11.35
-15.83
-20.82
-25.9
-30.69
-34.99
-38.81
-42.4
-46.12
-50.4
-55.58
-61.78
-68.62
-75.13
-79.85
-81.13
-77.75
-69.4
-56.87
-41.79
-26.12
-11.47
1.25
11.88
20.73
28.15
34.34
39.27
42.81
44.92
45.76
45.65
44.96
43.96
42.79
41.47
40.02
38.54
37.26
36.45
36.26
36.63
37.21
37.51
37.08
35.68
33.37
30.44
27.23
23.99
20.8
17.52
14.02
10.23
6.24
2.22
-1.68
-5.48
-9.36
-13.56
-18.17
-23.11
-28.1
-32.79
-36.94
-40.55
-43.81
-47.05
-50.66
-54.99
-60.28
-66.52
-73.29
-79.58
-83.93
-84.68
-80.57
-71.26
-57.56
-41.22
-24.41
-8.99
4.0
14.41
22.71
29.53
35.28
40.03
43.64
46.04
47.35
47.91
48.15
48.32
48.45
48.34
47.78
46.71
45.34
44.05
43.19
42.86
42.81
42.56
41.59
39.58
36.61
33.08
29.51
26.31
23.62
21.22
18.7
15.66
11.95
7.7
3.26
-0.95
-4.69
-8.0
-11.12
-14.37
-18.0
-22.04
-26.4
-30.89
-35.32
-39.57
-43.61
-47.49
-51.37
-55.54
-60.38
-66.22
-73.13
-80.6
-87.46
-91.97
-92.34
-87.31
-76.71
-61.57
-43.81
-25.6
-8.73
5.79
17.75
27.4
35.11
41.13
45.61
48.66
50.45
51.26
51.38
51.05
50.39
49.46
48.32
47.07
45.82
44.73
43.89
43.31
42.91
42.52
41.99
41.14
39.85
38.06
35.76
33.05
30.12
27.14
24.27
21.5
18.64
15.46
11.74
7.49
2.9
-1.65
-5.77
-9.2
-11.92
-14.14
-16.29
-18.8
-22.02
-26.05
-30.69
-35.51
-40.06
-44.03
-47.44
-50.6
-53.97
-58.05
-63.19
-69.49
-76.6
-83.65
-89.21
-91.56
-89.14
-81.18
-68.08
-51.39
-33.36
-16.14
-1.2
10.96
20.6
28.29
34.47
39.28
42.65
44.54
45.12
44.74
43.88
42.94
42.14
41.49
40.93
40.38
39.86
39.48
39.32
39.38
39.57
39.67
39.44
38.66
37.23
35.16
32.56
29.58
26.34
22.92
19.36
15.68
11.88
7.94
3.82
-0.56
-5.25
-10.19
-15.25
-20.18
-24.72
-28.77
-32.43
-35.97
-39.77
-44.2
-49.53
-55.92
-63.19
-70.67
-77.13
-80.87
-80.24
-74.27
-63.09
-48.05
-31.25
-14.85
-0.36
11.61
21.22
28.96
35.21
40.07
43.45
45.35
45.96
45.68
44.97
44.16
43.38
42.56
41.59
40.42
39.13
37.9
36.91
36.29
35.98
35.78
35.41
34.56
33.05
30.84
28.12
25.18
22.29
19.57
16.95
14.19
11.06
7.48
3.59
-0.26
-3.77
-6.86
-9.79
-13.02
-17.03
-21.96
-27.54
-33.17
-38.18
-42.19
-45.22
-47.73
-50.39
-53.86
-58.62
-64.78
-72.03
-79.45
-85.51
-88.39
-86.44
-78.79
-65.85
-49.17
-31.04
-13.68
1.39
13.59
23.14
30.63
36.61
41.44
45.26
48.12
50.13
51.4
52.03
52.09
51.63
50.65
49.24
47.56
45.81
44.25
43.05
42.28
41.78
41.3
40.51
39.18
37.22
34.74
31.96
29.13
26.44
23.95
21.59
19.23
16.71
13.92
10.84
7.48
3.86
-0.01
-4.1
-8.35
-12.59
-16.55
-19.98
-22.75
-24.95
-26.88
-28.98
-31.63
-34.93
-38.71
-42.57
-46.13
-49.19
-51.88
-54.58
-57.76
-61.84
-67.06
-73.4
-80.48
-87.38
-92.68
-94.63
-91.67
-83.02
-69.15
-51.69
-32.97
-15.18
0.21
12.75
22.68
30.6
36.97
42.06
46.03
49.01
51.21
52.8
53.92
54.61
54.86
54.68
54.06
53.04
51.64
50.01
48.32
46.9
45.95
45.54
45.4
45.05
43.99
41.92
38.88
35.23
31.48
28.03
25.09
22.54
20.14
17.58
14.63
11.27
7.64
4.02
0.71
-2.11
-4.41
-6.43
-8.55
-11.22
-14.71
-19.02
-23.86
-28.75
-33.23
-37.02
-40.2
-43.07
-46.08
-49.66
-54.15
-59.66
-66.01
-72.6
-78.25
-81.43
-80.56
-74.68
-63.82
-49.2
-32.83
-16.84
-2.8
8.64
17.63
24.75
30.53
35.28
38.99
41.64
43.27
44.08
44.34
44.27
44.05
43.73
43.31
42.75
42.03
41.15
40.16
39.12
38.1
37.1
36.07
34.88
33.37
31.4
28.91
25.89
22.41
18.62
14.69
10.76
6.96
3.33
-0.16
-3.62
-7.21
-11.03
-15.16
-19.53
-23.98
-28.29
-32.27
-35.86
-39.16
-42.46
-46.15
-50.64
-56.14
-62.58
-69.33
-75.23
-78.72
-78.29
-73.01
-62.88
-49.01
-33.28
-17.66
-3.65
8.09
17.62
25.43
31.95
37.35
41.52
44.36
45.91
46.5
46.54
46.35
46.01
45.4
44.3
42.73
40.89
39.25
38.19
37.84
38.02
38.23
37.98
36.9
34.93
32.26
29.21
26.15
23.29
20.72
18.3
15.8
12.95
9.63
5.89
2.04
-1.57
-4.65
-7.09
-9.1
-11.03
-13.29
-16.18
-19.73
-23.81
-28.03
-32.05
-35.58
-38.64
-41.46
-44.56
-48.5
-53.77
-60.52
-68.33
-76.16
-82.37
-85.12
-82.97
-75.36
-62.93
-47.35
-30.75
-15.02
-1.36
9.94
19.1
26.56
32.65
37.5
41.18
43.81
45.63
46.86
47.67
48.07
47.98
47.36
46.23
44.77
43.27
42.03
41.25
40.95
40.95
40.92
40.54
39.58
37.98
35.81
33.21
30.32
27.24
24.06
20.81
17.56
14.3
11.06
7.79
4.49
1.16
-2.13
-5.3
-8.23
-10.92
-13.43
-16.0
-18.86
-22.2
-26.03
-30.14
-34.2
-37.89
-41.04
-43.77
-46.38
-49.3
-52.91
-57.45
-62.95
-69.1
-75.14
-79.82
-81.61
-79.13
-71.73
-59.84
-44.97
-29.16
-14.29
-1.52
8.91
17.38
24.46
30.45
35.32
38.91
41.19
42.32
42.69
42.64
42.37
41.91
41.19
40.22
39.09
37.97
36.99
36.23
35.65
35.15
34.62
33.91
32.87
31.31
29.08
26.13
22.52
18.49
14.36
10.42
6.8
3.43
0.08
-3.56
-7.72
-12.43
-17.52
-22.67
-27.5
-31.76
-35.36
-38.42
-41.22
-44.14
-47.6
-51.93
-57.26
-63.25
-68.98
-72.97
-73.6
-69.68
-60.97
-48.36
-33.63
-18.74
-5.26
6.06
15.22
22.59
28.53
33.2
36.55
38.52
39.24
39.02
38.26
37.38
36.61
36.06
35.65
35.22
34.65
33.86
32.89
31.86
30.87
29.95
29.0
27.86
26.34
24.34
21.86
19.0
15.92
12.78
9.71
6.74
3.87
0.93
-2.27
-5.96
-10.28
-15.23
-20.57
-25.96
-31.0
-35.41
-39.2
-42.64
-46.22
-50.44
-55.76
-62.3
-69.78
-77.33
-83.56
-86.8
-85.54
-79.05
-67.61
-52.59
-35.95
-19.65
-5.05
7.26
17.34
25.55
32.21
37.45
41.32
43.9
45.39
46.12
46.34
46.26
45.94
45.36
44.5
43.44
42.35
41.43
40.91
40.86
41.15
41.4
41.16
40.0
37.78
34.67
31.08
27.53
24.42
21.88
19.74
17.63
15.11
11.9
7.99
3.67
-0.61
-4.45
-7.69
-10.52
-13.39
-16.81
-21.06
-26.07
-31.41
-36.57
-41.18
-45.13
-48.66
-52.15
-56.05
-60.8
-66.7
-73.84
-81.77
-89.37
-94.93
-96.49
-92.57
-82.74
-67.92
-50.05
-31.47
-14.15
0.81
13.21
23.43
31.98
39.27
45.49
50.67
54.86
58.14
60.55
62.16
63.0
63.09
62.51
61.42
60.07
58.73
57.65
56.95
56.59
56.41
56.14
55.5
54.26
52.31
49.67
46.5
43.06
39.58
36.25
33.05
29.86
26.47
22.76
18.69
14.37
10.03
5.85
1.92
-1.76
-5.29
-8.77
-12.29
-15.91
-19.65
-23.55
-27.58
-31.68
-35.69
-39.44
-42.8
-45.77
-48.57
-51.62
-55.42
-60.46
-66.98
-74.84
-83.3
-91.03
-96.25
-97.15
-92.51
-82.19
-67.3
-49.84
-32.12
-15.99
-2.38
8.66
17.61
25.03
31.21
36.17
39.85
42.29
43.75
44.56
45.02
45.21
45.11
44.57
43.6
42.36
41.18
40.36
40.07
40.21
40.48
40.43
39.72
38.19
35.89
33.08
30.02
26.93
23.89
20.92
17.95
14.92
11.84
8.7
5.5
2.19
-1.37
-5.35
-9.87
-14.87
-20.13
-25.29
-29.97
-33.98
-37.39
-40.59
-44.14
-48.63
-54.4
-61.35
-68.79
-75.42
-79.56
-79.67
-74.77
-64.93
-51.29
-35.7
-20.12
-6.02
5.93
15.8
24.03
31.05
37.03
41.89
45.49
47.78
48.85
48.91
48.22
47.0
45.44
43.75
42.11
40.71
39.61
38.82
38.25
37.7
37.03
36.03
34.58
32.64
30.24
27.45
24.38
21.12
17.73
14.21
10.58
6.86
3.12
-0.57
-4.16
-7.69
-11.26
-14.97
-18.88
-22.91
-26.9
-30.69
-34.18
-37.49
-40.92
-44.86
-49.7
-55.7
-62.85
-70.74
-78.43
-84.52
-87.34
-85.51
-78.41
-66.56
-51.47
-35.17
-19.5
-5.6
6.22
16.23
24.84
32.31
38.61
43.56
47.04
49.16
50.2
50.54
50.49
50.18
49.63
48.76
47.57
46.21
44.94
44.02
43.62
43.67
43.9
43.96
43.51
42.42
40.72
38.63
36.4
34.22
32.1
29.93
27.51
24.75
21.67
18.45
15.29
12.35
9.61
6.92
4.1
1.02
-2.33
-5.83
-9.28
-12.53
-15.53
-18.41
-21.4
-24.8
-28.75
-33.17
-37.81
-42.26
-46.2
-49.52
-52.42
-55.3
-58.68
-63.01
-68.56
-75.19
-82.21
-88.32
-91.82
-91.0
-84.8
-73.26
-57.67
-40.15
-22.96
-7.73
4.88
15.09
23.55
30.84
37.12
42.23
45.94
48.19
49.22
49.46
49.32
49.01
48.51
47.71
46.53
45.08
43.62
42.49
41.89
41.8
41.87
41.63
40.62
38.61
35.71
32.31
28.86
25.76
23.08
20.62
18.02
14.96
11.35
7.42
3.54
0.08
-2.85
-5.46
-8.17
-11.41
-15.38
-19.89
-24.54
-28.85
-32.54
-35.65
-38.47
-41.45
-44.99
-49.39
-54.77
-61.02
-67.65
-73.73
-77.86
-78.54
-74.63
-65.87
-53.1
-37.98
-22.5
-8.31
3.73
13.54
21.55
28.29
34.04
38.73
42.16
44.22
45.03
44.99
44.57
44.14
43.78
43.32
42.47
41.04
39.13
37.07
35.31
34.12
33.49
33.05
32.24
30.56
27.75
23.92
19.47
14.91
10.73
7.13
4.05
1.17
-1.93
-5.54
-9.77
-14.45
-19.26
-23.85
-27.98
-31.58
-34.81
-37.96
-41.41
-45.58
-50.78
-57.12
-64.3
-71.47
-77.21
-79.85
-77.95
-70.9
-59.2
-44.34
-28.35
-13.05
0.41
11.69
20.99
28.66
34.91
39.72
43.02
44.89
45.6
45.57
45.2
44.71
44.17
43.49
42.6
41.49
40.27
39.12
38.25
37.73
37.49
37.26
36.67
35.4
33.35
30.66
27.68
24.78
22.15
19.67
17.0
13.77
9.79
5.18
0.31
-4.41
-8.72
-12.67
-16.56
-20.76
-25.54
-30.96
-36.83
-42.79
-48.47
-53.56
-57.93
-61.7
-65.26
-69.13
-73.93
-80.09
-87.63
-95.91
-103.49
-108.34
-108.4
-102.28
-89.85
-72.37
-52.16
-31.79
-13.25
2.46
15.33
25.94
34.94
42.69
49.27
54.6
58.62
61.4
63.08
63.83
63.84
63.26
62.22
60.88
59.41
58.04
56.96
56.32
56.08
56.0
55.69
54.74
52.95
50.34
47.24
44.01
40.95
38.17
35.6
33.09
30.53
27.85
25.03
22.09
19.03
15.85
12.54
9.08
5.43
1.57
-2.45
-6.49
-10.38
-13.98
-17.31
-20.6
-24.16
-28.25
-32.92
-37.9
-42.77
-47.13
-50.78
-53.91
-56.95
-60.54
-65.28
-71.51
-79.16
-87.55
-95.28
-100.45
-101.15
-96.07
-85.09
-69.46
-51.38
-33.3
-17.08
-3.57
7.38
16.45
24.28
31.2
37.17
41.98
45.54
47.92
49.39
50.24
50.65
50.68
50.3
49.57
48.64
47.78
47.23
47.09
47.18
47.14
46.53
45.1
42.88
40.08
37.04
33.98
30.91
27.71
24.2
20.29
16.08
11.78
7.66
3.88
0.46
-2.75
-6.01
-9.56
-13.54
-17.94
-22.58
-27.22
-31.62
-35.67
-39.45
-43.21
-47.31
-52.18
-58.09
-64.95
-72.1
-78.26
-81.74
-80.95
-74.99
-64.08
-49.53
-33.34
-17.49
-3.38
8.46
18.17
26.19
32.88
38.36
42.58
45.51
47.23
48.01
48.15
47.88
47.34
46.53
45.48
44.24
42.99
42.0
41.47
41.47
41.83
42.13
41.83
40.53
38.1
34.77
31.02
27.38
24.15
21.29
18.45
15.21
11.24
6.59
1.63
-3.14
-7.34
-10.85
-13.94
-17.04
-20.57
-24.73
-29.44
-34.42
-39.33
-43.9
-47.98
-51.57
-54.84
-58.1
-61.88
-66.74
-73.02
-80.48
-88.05
-93.85
-95.77
-92.15
-82.53
-67.84
-50.15
-31.88
-15.01
-0.54
11.41
21.28
29.53
36.37
41.79
45.76
48.43
50.15
51.3
52.16
52.77
53.07
52.91
52.29
51.35
50.31
49.4
48.76
48.38
48.15
47.87
47.31
46.27
44.58
42.24
39.37
36.24
33.13
30.24
27.6
25.04
22.33
19.23
15.69
11.8
7.77
3.75
-0.2
-4.08
-7.89
-11.61
-15.18
-18.62
-22.06
-25.75
-29.93
-34.61
-39.61
-44.53
-48.98
-52.82
-56.17
-59.46
-63.29
-68.2
-74.54
-82.21
-90.48
-97.99
-102.84
-103.16
-97.66
-86.2
-69.92
-50.94
-31.65
-13.98
1.04
13.36
23.46
31.97
39.24
45.37
50.29
54.0
56.66
58.55
59.91
60.85
61.29
61.09
60.19
58.72
57.0
55.39
54.17
53.4
52.91
52.4
51.58
50.29
48.46
46.13
43.32
40.06
36.37
32.31
28.02
23.65
19.35
15.2
11.16
7.18
3.22
-0.64
-4.21
-7.3
-9.8
-11.77
-13.54
-15.57
-18.3
-22.03
-26.76
-32.18
-37.8
-43.07
-47.65
-51.44
-54.69
-57.88
-61.62
-66.5
-72.85
-80.58
-88.96
-96.58
-101.51
-101.9
-96.5
-85.23
-69.33
-50.9
-32.29
-15.33
-0.92
10.94
20.8
29.25
36.57
42.73
47.52
50.79
52.7
53.59
53.91
53.96
53.88
53.63
53.1
52.31
51.39
50.54
49.86
49.31
48.65
47.56
45.79
43.24
39.97
36.16
32.02
27.76
23.53
19.43
15.48
11.66
7.89
4.08
0.16
-3.9
-8.17
-12.65
-17.35
-22.2
-27.14
-32.06
-36.91
-41.73
-46.74
-52.29
-58.8
-66.51
-75.25
-84.2
-91.81
-96.14
-95.44
-88.82
-76.67
-60.6
-42.88
-25.65
-10.26
2.86
14.01
23.68
32.13
39.26
44.87
48.8
51.24
52.59
53.27
53.58
53.57
53.16
52.26
50.94
49.46
48.1
47.05
46.26
45.46
44.26
42.43
39.91
36.92
33.78
30.75
27.96
25.27
22.48
19.32
15.65
11.46
6.9
2.25
-2.29
-6.6
-10.75
-14.97
-19.55
-24.66
-30.23
-36.02
-41.63
-46.78
-51.43
-55.79
-60.3
-65.51
-71.9
-79.71
-88.67
-97.81
-105.44
-109.41
-107.86
-99.8
-85.67
-67.24
-47.03
-27.48
-10.22
4.18
15.97
25.79
34.17
41.37
47.44
52.4
56.3
59.26
61.38
62.72
63.28
63.12
62.32
61.08
59.67
58.4
57.54
57.2
57.33
57.67
57.79
57.24
55.69
53.05
49.51
45.51
41.53
37.98
34.96
32.35
29.76
26.82
23.26
19.07
14.43
9.64
5.01
0.71
-3.24
-7.02
-10.91
-15.26
-20.29
-26.01
-32.21
-38.48
-44.39
-49.69
-54.39
-58.77
-63.26
-68.36
-74.51
-81.89
-90.27
-98.8
-105.91
-109.62
-108.06
-100.19
-86.3
-68.07
-48.02
-28.63
-11.66
2.33
13.67
23.13
31.37
38.62
44.86
49.9
53.72
56.46
58.33
59.5
60.03
59.9
59.12
57.79
56.15
54.53
53.22
52.38
51.96
51.63
50.98
49.55
47.1
43.68
39.67
35.6
31.9
28.72
25.85
22.91
19.5
15.42
10.8
5.99
1.42
-2.55
-5.88
-8.83
-11.84
-15.41
-19.81
-24.98
-30.52
-35.93
-40.77
-44.88
-48.46
-51.94
-55.88
-60.82
-67.11
-74.78
-83.26
-91.26
-96.94
-98.33
-94.01
-83.73
-68.54
-50.52
-32.06
-15.04
-0.47
11.6
21.62
30.14
37.44
43.53
48.28
51.62
53.64
54.58
54.77
54.44
53.75
52.73
51.37
49.71
47.92
46.23
44.87
43.93
43.31
42.69
41.67
39.86
37.07
33.32
28.87
24.08
19.32
14.87
10.82
7.04
3.22
-1.0
-5.85
-11.32
-17.12
-22.84
-28.06
-32.61
-36.56
-40.23
-44.01
-48.33
-53.53
-59.88
-67.41
-75.72
-83.82
-90.09
-92.61
-89.85
-81.23
-67.54
-50.63
-32.86
-16.22
-1.83
10.16
20.18
28.7
35.91
41.66
45.7
48.0
48.83
48.71
48.11
47.31
46.33
45.09
43.59
42.07
40.96
40.66
41.38
42.94
44.84
46.39
47.02
46.44
44.77
42.34
39.6
36.93
34.48
32.19
29.81
26.99
23.42
18.98
13.84
8.41
3.27
-1.15
-4.72
-7.74
-10.79
-14.53
-19.31
-25.13
-31.58
-38.13
-44.29
-49.84
-54.8
-59.44
-64.17
-69.52
-75.92
-83.54
-91.96
-99.89
-105.37
-106.29
-101.06
-89.37
-72.38
-52.31
-31.71
-12.64
3.82
17.54
28.91
38.39
46.25
52.55
57.36
60.89
63.5
65.54
67.17
68.35
68.83
68.42
67.11
65.11
62.87
60.8
59.19
58.08
57.28
56.45
55.24
53.42
50.96
48.02
44.91
41.95
39.32
36.99
34.75
32.31
29.44
26.1
22.48
18.91
15.7
12.99
10.64
8.34
5.68
2.44
-1.37
-5.49
-9.55
-13.32
-16.81
-20.32
-24.26
-28.92
-34.28
-40.03
-45.69
-50.75
-54.96
-58.37
-61.33
-64.42
-68.28
-73.4
-79.98
-87.68
-95.54
-102.01
-105.24
-103.58
-96.11
-83.11
-65.99
-46.9
-28.11
-11.22
3.05
14.81
24.6
32.91
39.94
45.67
50.0
52.98
54.86
55.95
56.47
56.49
55.96
54.9
53.4
51.77
50.31
49.21
48.47
47.79
46.84
45.31
43.1
40.32
37.19
33.91
30.56
27.11
23.46
19.57
15.46
11.19
6.89
2.65
-1.45
-5.43
-9.39
-13.51
-17.93
-22.67
-27.57
-32.3
-36.5
-40.04
-43.05
-45.99
-49.43
-53.86
-59.57
-66.4
-73.67
-80.17
-84.27
-84.36
-79.3
-68.92
-54.18
-36.95
-19.36
-3.19
10.57
21.76
30.69
37.81
43.39
47.51
50.21
51.56
51.78
51.11
49.82
48.17
46.35
44.52
42.83
41.33
40.02
38.81
37.56
36.2
34.74
33.26
31.77
30.24
28.5
26.32
23.49
19.95
15.83
11.39
6.95
2.74
-1.19
-4.96
-8.77
-12.84
-17.25
-21.93
-26.7
-31.36
-35.77
-39.9
-43.88
-47.9
-52.24
-57.18
-62.97
-69.74
-77.29
-84.85
-91.02
-94.02
-92.15
-84.51
-71.34
-54.17
-35.25
-16.86
-0.64
12.74
23.46
32.07
39.07
44.72
49.03
52.03
53.89
54.93
55.51
55.83
55.89
55.54
54.55
52.84
50.57
48.06
45.72
43.84
42.43
41.22
39.77
37.67
34.7
31.01
27.0
23.17
19.92
17.32
15.15
12.9
10.07
6.4
1.95
-2.92
-7.7
-12.0
-15.77
-19.28
-23.01
-27.4
-32.55
-38.19
-43.8
-48.8
-52.92
-56.28
-59.36
-62.81
-67.26
-73.06
-80.15
-87.94
-95.24
-100.33
-101.34
-96.76
-86.04
-69.98
-50.56
-30.4
-11.83
3.72
15.97
25.52
33.24
39.78
45.33
49.82
53.14
55.38
56.79
57.68
58.22
58.39
58.06
57.13
55.71
54.11
52.75
51.97
51.84
52.12
52.31
51.9
50.5
48.07
44.82
41.16
37.45
33.97
30.82
28.0
25.37
22.73
19.82
16.39
12.33
7.7
2.81
-1.98
-6.35
-10.19
-13.61
-16.92
-20.43
-24.34
-28.64
-33.13
-37.53
-41.53
-44.98
-47.87
-50.35
-52.72
-55.34
-58.65
-63.04
-68.74
-75.57
-82.71
-88.66
-91.5
-89.5
-81.78
-68.78
-52.15
-34.21
-17.14
-2.34
9.77
19.57
27.66
34.46
40.06
44.32
47.14
48.62
49.07
48.88
48.36
47.64
46.76
45.71
44.55
43.45
42.53
41.9
41.47
41.05
40.39
39.31
37.69
35.55
32.91
29.82
26.31
22.44
18.3
14.01
9.72
5.5
1.37
-2.8
-7.18
-11.91
-17.02
-22.35
-27.61
-32.46
-36.64
-40.13
-43.17
-46.25
-49.96
-54.8
-61.0
-68.26
-75.7
-81.8
-84.84
-83.29
-76.4
-64.48
-48.93
-31.8
-15.12
-0.43
11.61
21.06
28.4
34.14
38.6
41.95
44.29
45.77
46.59
46.95
46.95
46.58
45.77
44.5
42.87
41.13
39.56
38.35
37.52
36.84
36.06
34.9
33.19
30.93
28.14
24.88
21.14
16.98
12.52
7.99
3.66
-0.31
-3.97
-7.62
-11.68
-16.51
-22.23
-28.63
-35.28
-41.62
-47.25
-52.01
-55.99
-59.56
-63.24
-67.62
-73.2
-80.22
-88.33
-96.41
-102.66
-105.01
-101.85
-92.61
-78.14
-60.43
-41.94
-24.83
-10.36
1.2
10.25
17.39
23.06
27.49
30.85
33.41
35.63
37.99
40.82
44.12
47.59
50.77
53.27
54.95
56.0
56.78
57.65
58.77
59.98
60.9
61.05
60.11
57.98
54.87
51.13
47.18
43.36
39.81
36.55
33.44
30.23
26.71
22.79
18.57
14.31
10.29
6.64
3.19
-0.47
-4.79
-10.01
-16.0
-22.29
-28.29
