-83.26
-76.04
-64.32
-49.4
-32.74
-15.59
1.13
16.81
31.08
43.69
54.46
63.34
70.34
75.6
79.29
81.63
82.8
82.96
82.18
80.52
78.03
74.9
71.42
68.01
65.03
62.66
60.82
59.14
57.12
54.3
50.43
45.53
39.83
33.74
27.66
21.9
16.62
11.78
7.21
2.65
-2.13
-7.29
-12.82
-18.55
-24.24
-29.66
-34.67
-39.39
-44.09
-49.24
-55.28
-62.46
-70.61
-79.01
-86.43
-91.32
-92.25
-88.3
-79.33
-66.06
-49.82
-32.2
-14.68
1.63
16.04
28.28
38.34
46.36
52.54
57.08
60.16
61.93
62.49
61.97
60.5
58.27
55.52
52.52
49.54
46.81
44.44
42.47
40.81
39.31
37.8
36.19
34.41
32.42
30.14
27.45
24.2
20.33
15.9
11.11
6.26
1.59
-2.79
-6.94
-11.05
-15.34
-19.97
-24.95
-30.19
-35.47
-40.55
-45.25
-49.54
-53.57
-57.67
-62.32
-67.9
-74.48
-81.6
-88.23
-92.91
-94.1
-90.68
-82.25
-69.32
-53.16
-35.42
-17.77
-1.49
12.59
24.2
33.42
40.6
46.13
50.36
53.54
55.77
57.05
57.41
56.9
55.64
53.8
51.57
49.14
46.66
44.28
42.1
40.18
38.5
36.97
35.38
33.51
31.15
28.16
24.54
20.38
15.88
11.22
6.58
2.01
-2.45
-6.81
-11.08
-15.25
-19.31
-23.32
-27.32
-31.35
-35.39
-39.35
-43.13
-46.66
-49.98
-53.25
-56.73
-60.75
-65.56
-71.19
-77.27
-82.99
-87.14
-88.4
-85.68
-78.53
-67.27
-52.95
-37.05
-21.06
-6.19
6.84
17.78
26.66
33.7
39.11
43.08
45.75
47.25
47.72
47.29
46.12
44.32
42.02
39.39
36.7
34.27
32.43
31.37
31.02
31.09
31.12
30.7
29.55
27.63
25.07
22.07
18.82
15.43
11.96
8.4
4.7
0.8
-3.41
-7.94
-12.76
-17.71
-22.57
-27.14
-31.3
-35.11
-38.79
-42.69
-47.18
-52.53
-58.68
-65.14
-70.95
-74.85
-75.62
-72.47
-65.22
-54.39
-41.03
-26.42
-11.75
2.03
14.27
24.64
33.01
39.46
44.2
47.46
49.48
50.44
50.53
49.95
48.93
47.7
46.4
45.14
43.91
42.71
41.63
40.78
40.25
40.0
39.87
39.55
38.68
36.93
34.1
30.25
25.64
20.68
15.76
11.06
6.51
1.81
-3.42
-9.44
-16.13
-23.12
-29.98
-36.44
-42.46
-48.24
-54.02
-60.06
-66.56
-73.37
-80.3
-87.18
-93.82
-99.81
-104.34
-106.44
-105.37
-100.85
-92.59
-80.83
-66.38
-50.56
-34.81
-20.32
-7.86
2.2
9.94
16.8
24.4
33.67
44.28
55.08
64.82
72.6
78.02
81.19
83.74
87.34
92.84
100.05
108.41
117.67
127.67
137.68
138.58
123.19
90.2
46.04
0.5
-38.44
-66.49
-82.84
-89.33
-89.16
-84.46
-76.65
-66.87
-56.46
-46.87
-39.18
-34.02
-31.58
-31.56
-32.54
-33.31
-33.56
-34.13
-36.33
-41.12
-48.67
-58.32
-68.45
-76.19
-78.73
-74.37
-63.29
-47.42
-29.64
-12.49
1.05
9.12
11.75
10.43
7.22
3.85
1.38
0.19
0.21
1.11
2.77
5.34
9.03
13.89
19.66
25.82
31.77
36.96
41.05
44.08
46.31
48.01
49.22
49.75
49.24
47.41
44.15
39.57
34.07
28.13
22.17
16.42
10.95
5.67
0.46
-4.76
-10.02
-15.25
-20.34
-25.17
-29.72
-34.01
-38.12
-42.23
-46.55
-51.34
-56.76
-62.66
-68.47
-73.21
-75.66
-74.67
-69.61
-60.55
-48.33
-34.26
-19.8
-6.15
5.96
16.22
24.65
31.4
36.64
40.5
43.11
44.66
45.29
45.17
44.35
42.86
40.71
38.03
35.08
32.27
30.02
28.61
28.04
28.0
28.0
27.49
26.15
23.95
21.16
18.17
15.3
12.65
10.06
7.23
3.89
-0.03
-4.44
-9.05
-13.53
-17.66
-21.31
-24.58
-27.72
-31.11
-35.2
-40.38
-46.82
-54.22
-61.7
-67.91
-71.28
-70.5
-64.96
-54.93
-41.57
-26.5
-11.32
2.72
14.92
25.06
33.23
39.61
44.39
47.72
49.71
50.53
50.35
49.37
47.82
45.94
43.92
41.93
40.11
38.54
37.3
36.43
35.9
35.59
35.28
34.67
33.48
31.54
28.83
25.53
21.88
18.16
14.48
10.82
6.99
2.8
-1.91
-7.07
-12.5
-17.95
-23.15
-28.0
-32.51
-36.89
-41.44
-46.55
-52.61
-59.84
-68.07
-76.52
-83.84
-88.34
-88.52
-83.54
-73.57
-59.74
-43.74
-27.31
-11.82
1.92
13.6
23.2
30.9
36.93
41.58
45.11
47.74
49.55
50.53
50.62
49.86
48.38
46.48
44.48
42.63
41.07
39.84
38.91
38.2
37.61
36.97
36.04
34.57
32.33
29.26
25.44
21.11
16.59
12.11
7.84
3.76
-0.25
-4.33
-8.68
-13.38
-18.41
-23.62
-28.78
-33.67
-38.16
-42.28
-46.26
-50.52
-55.58
-61.87
-69.55
-78.27
-87.06
-94.43
-98.67
-98.36
-92.79
-82.17
-67.58
-50.6
-32.89
-15.8
-0.32
13.01
23.98
32.63
39.2
44.11
47.75
50.45
52.32
53.33
53.39
52.46
50.65
48.25
45.62
43.16
41.19
39.92
39.33
39.27
39.37
39.22
38.42
36.75
34.2
30.96
27.33
23.6
19.95
16.4
12.88
9.22
5.31
1.02
-3.62
-8.55
-13.62
-18.63
-23.36
-27.66
-31.46
-34.88
-38.2
-41.87
-46.46
-52.46
-60.05
-68.87
-77.88
-85.44
-89.73
-89.23
-83.29
-72.27
-57.44
-40.58
-23.4
-7.2
7.24
19.59
29.79
37.94
44.2
48.79
51.98
54.07
55.28
55.8
55.79
55.29
54.36
53.04
51.4
49.58
47.74
46.02
44.46
42.94
41.17
38.86
35.77
31.88
27.34
22.46
17.56
12.95
8.81
5.2
2.02
-0.99
-4.18
-7.81
-11.97
-16.49
-21.04
-25.28
-29.03
-32.37
-35.59
-39.1
-43.31
-48.58
-55.1
-62.77
-71.04
-78.81
-84.52
-86.58
-83.81
-75.91
-63.57
-48.29
-31.8
-15.7
-1.04
11.66
22.3
31.03
38.05
43.58
47.87
51.11
53.47
55.03
55.82
55.83
55.09
53.73
51.93
49.98
48.17
46.77
45.9
45.52
45.36
45.02
44.1
42.3
39.56
36.03
31.97
27.63
23.16
18.6
13.96
9.3
4.76
0.48
-3.42
-7.0
-10.43
-13.94
-17.7
-21.74
-25.93
-30.05
-33.93
-37.48
-40.82
-44.25
-48.24
-53.3
-59.78
-67.63
-76.15
-83.97
-89.25
-90.26
-85.89
-76.08
-61.84
-44.91
-27.24
-10.44
4.44
16.99
27.21
35.33
41.66
46.51
50.19
52.91
54.83
56.02
56.44
56.07
54.95
53.25
51.25
49.32
47.82
46.96
46.72
46.9
47.09
46.85
45.83
43.81
40.84
37.12
32.96
28.66
24.42
20.24
16.0
11.57
6.93
2.25
-2.19
-6.11
-9.41
-12.25
-14.96
-17.96
-21.46
-25.5
-29.85
-34.23
-38.39
-42.23
-45.86
-49.56
-53.72
-58.76
-64.99
-72.41
-80.52
-88.27
-94.18
-96.65
-94.42
-87.01
-74.83
-59.12
-41.59
-23.96
-7.64
6.51
18.15
27.32
34.34
39.59
43.46
46.27
48.23
49.45
49.99
49.87
49.16
47.99
46.56
45.16
44.07
43.52
43.58
44.13
44.8
45.11
44.59
42.95
40.17
36.48
32.22
27.72
23.15
18.58
13.99
9.42
4.99
0.87
-2.83
-6.15
-9.25
-12.42
-15.87
-19.65
-23.68
-27.74
-31.62
-35.2
-38.53
-41.79
-45.31
-49.54
-54.89
-61.54
-69.22
-77.05
-83.59
-87.15
-86.31
-80.32
-69.39
-54.64
-37.73
-20.45
-4.25
9.9
21.6
30.81
37.77
42.82
46.3
48.5
49.66
49.97
49.62
48.77
47.58
46.14
44.52
42.81
41.1
39.52
38.22
37.26
36.57
35.9
34.95
33.38
31.02
27.83
23.93
19.56
15.0
10.46
6.14
2.06
-1.88
-5.9
-10.28
-15.16
-20.49
-26.0
-31.3
-36.03
-40.03
-43.42
-46.56
-49.96
-54.15
-59.56
-66.33
-74.15
-82.11
-88.77
-92.43
-91.56
-85.32
-73.85
-58.24
-40.26
-21.82
-4.57
10.44
22.76
32.44
39.77
45.13
48.9
51.35
52.72
53.2
52.94
52.09
50.77
49.1
47.22
45.28
43.47
41.93
40.79
40.08
39.71
39.46
39.04
38.13
36.47
33.94
30.59
26.63
22.29
17.81
13.31
8.84
4.4
-0.04
-4.5
-8.98
-13.52
-18.15
-22.89
-27.69
-32.41
-36.92
-41.13
-45.07
-48.94
-53.07
-57.85
-63.69
-70.79
-79.04
-87.73
-95.58
-100.89
-101.91
-97.42
-87.11
-71.75
-52.97
-32.82
-13.28
4.19
18.73
30.11
38.51
44.4
48.38
51.0
52.72
53.82
54.42
54.55
54.2
53.41
52.23
50.78
49.24
47.78
46.63
45.88
45.48
45.24
44.86
44.09
42.79
40.94
38.56
35.69
32.32
28.45
24.16
19.6
14.95
10.31
5.66
0.86
-4.26
-9.78
-15.6
-21.51
-27.21
-32.46
-37.2
-41.52
-45.72
-50.15
-55.2
-61.21
-68.38
-76.65
-85.53
-93.93
-100.27
-102.79
-99.99
-91.23
-76.91
-58.51
-38.09
-17.76
0.8
16.58
29.23
38.9
46.01
51.13
54.77
57.37
59.22
60.43
61.0
60.84
59.86
58.1
55.69
52.91
50.08
47.56
45.63
44.37
43.72
43.37
42.87
41.72
39.55
36.25
32.0
27.23
22.37
17.71
13.29
8.88
4.19
-0.99
-6.62
-12.48
-18.26
-23.66
-28.55
-32.98
-37.11
-41.22
-45.71
-51.04
-57.62
-65.56
-74.47
-83.26
-90.27
-93.67
-91.93
-84.45
-71.63
-54.84
-35.95
-16.82
0.99
16.46
29.08
38.77
45.74
50.43
53.32
54.92
55.57
55.51
54.89
53.8
52.34
50.58
48.63
46.62
44.7
43.08
41.94
41.34
41.17
41.07
40.61
39.38
37.11
33.81
29.72
25.18
20.53
16.01
11.66
7.39
3.0
-1.65
-6.58
-11.66
-16.66
-21.33
-25.58
-29.48
-33.32
-37.56
-42.65
-48.94
-56.46
-64.76
-72.85
-79.32
-82.6
-81.31
-74.74
-63.06
-47.33
-29.25
-10.73
6.6
21.62
33.81
43.11
49.72
53.92
55.98
56.24
55.11
53.09
50.64
48.15
45.78
43.47
41.14
38.72
36.35
34.3
32.82
32.03
31.76
31.66
31.24
30.12
28.1
25.2
21.61
17.63
13.49
9.39
5.38
1.39
-2.75
-7.18
-11.97
-17.03
-22.16
-27.08
-31.59
-35.63
-39.33
-42.95
-46.96
-51.85
-58.06
-65.72
-74.34
-82.73
-89.13
-91.66
-88.97
-80.63
-67.32
-50.57
-32.23
-14.03
2.72
17.16
28.85
37.66
43.75
47.46
49.37
50.04
49.97
49.46
48.64
47.55
46.21
44.64
42.92
41.14
39.46
38.03
36.99
36.35
36.02
35.71
35.07
33.72
31.44
28.19
24.19
19.75
15.23
10.91
6.89
3.11
-0.57
-4.35
-8.37
-12.71
-17.33
-22.1
-26.8
-31.23
-35.25
-38.84
-42.17
-45.58
-49.55
-54.57
-60.94
-68.52
-76.57
-83.74
-88.32
-88.66
-83.72
-73.39
-58.59
-40.97
-22.51
-4.94
10.47
23.11
32.91
40.18
45.41
49.09
51.59
53.14
53.85
53.75
52.97
51.64
49.97
48.15
46.36
44.7
43.22
41.95
40.9
40.01
39.15
38.14
36.75
34.85
32.34
29.21
25.5
21.29
16.72
11.98
7.3
2.84
-1.35
-5.4
-9.52
-13.91
-18.65
-23.62
-28.6
-33.34
-37.67
-41.53
-45.05
-48.47
-52.17
-56.6
-62.12
-68.83
-76.32
-83.48
-88.71
-90.26
-86.81
-77.9
-64.2
-47.23
-28.99
-11.32
4.41
17.5
27.82
35.53
40.99
44.54
46.56
47.44
47.54
47.15
46.46
45.53
44.35
42.88
41.15
39.25
37.35
35.65
34.28
33.3
32.63
32.06
31.28
29.95
27.8
24.72
20.82
16.37
11.75
7.24
3.03
-0.92
-4.78
-8.76
-12.99
-17.42
-21.84
-25.95
-29.54
-32.6
-35.37
-38.35
-42.11
-47.17
-53.73
-61.5
-69.64
-76.79
-81.33
-81.77
-77.17
-67.47
-53.58
-37.1
-19.91
-3.64
10.61
22.32
31.43
38.13
42.69
45.39
46.54
46.46
45.47
43.9
42.03
40.06
38.12
36.27
34.51
32.89
31.49
30.47
29.95
29.92
30.17
30.27
29.73
28.14
25.36
21.53
17.07
12.46
8.08
4.06
0.28
-3.55
-7.77
-12.55
-17.79
-23.18
-28.32
-32.89
-36.84
-40.39
-43.98
-48.14
-53.33
-59.75
-67.2
-74.89
-81.56
-85.61
-85.54
-80.36
-69.99
-55.26
-37.77
-19.42
-1.98
13.23
25.54
34.85
41.46
45.89
48.67
50.21
50.78
50.53
49.57
48.08
46.27
44.34
42.48
40.76
39.27
38.09
37.3
37.0
37.14
37.51
37.72
37.28
35.78
33.03
29.12
24.39
19.36
14.5
10.1
6.14
2.35
-1.65
-6.2
-11.42
-17.18
-23.1
-28.81
-33.98
-38.53
-42.61
-46.62
-51.09
-56.57
-63.4
-71.45
-79.93
-87.39
-92.01
-92.08
-86.54
-75.38
-59.63
-41.07
-21.74
-3.47
12.44
25.31
34.99
41.75
46.09
48.66
50.04
50.69
50.88
50.73
50.26
49.46
48.36
46.98
45.4
43.71
42.06
40.64
39.63
39.1
38.93
38.81
38.28
36.94
34.55
31.14
26.97
22.41
17.84
13.44
9.27
5.21
1.11
-3.17
-7.68
-12.41
-17.31
-22.31
-27.32
-32.24
-37.01
-41.64
-46.25
-51.14
-56.69
-63.28
-70.99
-79.4
-87.42
-93.39
-95.5
-92.3
-83.22
-68.82
-50.64
-30.78
-11.27
6.3
21.06
32.75
41.58
47.93
52.28
55.03
56.55
57.09
56.88
56.07
54.75
53.04
51.06
48.95
46.91
45.15
43.81
42.94
42.46
42.14
41.67
40.72
39.06
36.56
33.28
29.35
25.02
20.48
15.87
11.3
6.81
2.43
-1.9
-6.26
-10.8
-15.65
-20.82
-26.18
-31.48
-36.43
-40.86
-44.8
-48.55
-52.62
-57.61
-63.93
-71.56
-79.8
-87.25
-92.09
-92.54
-87.45
-76.69
-61.25
-42.87
-23.59
-5.23
10.96
24.36
34.82
42.53
47.82
51.05
52.62
52.93
52.38
51.35
50.13
48.9
47.7
46.5
45.24
43.95
42.73
41.68
40.9
40.38
40.01
39.6
38.89
37.64
35.65
32.78
29.08
24.75
20.1
15.47
11.07
6.9
2.8
-1.44
-5.96
-10.71
-15.48
-20.0
-24.08
-27.69
-30.97
-34.19
-37.72
-41.96
-47.25
-53.78
-61.38
-69.34
-76.39
-80.9
-81.29
-76.54
-66.56
-52.28
-35.35
-17.71
-1.07
13.45
25.32
34.47
41.14
45.62
48.18
49.12
48.73
47.38
45.47
43.36
41.32
39.44
37.66
35.93
34.21
32.67
31.53
30.98
30.99
31.28
31.35
30.65
28.84
25.9
22.07
17.8
13.48
9.35
5.43
1.56
-2.5
-6.92
-11.73
-16.79
-21.85
-26.6
-30.81
-34.44
-37.69
-41.01
-45.0
-50.18
-56.77
-64.4
-72.08
-78.29
-81.33
-79.8
-73.09
-61.54
-46.43
-29.55
-12.74
2.51
15.31
25.39
32.9
38.21
41.7
43.69
44.44
44.18
43.17
41.68
39.97
38.19
36.43
34.69
32.97
31.32
29.87
28.77
28.1
27.74
27.44
26.79
25.43
23.1
19.74
15.45
10.5
5.2
-0.09
-5.08
-9.65
-13.87
-17.95
-22.22
-26.89
-32.01
-37.38
-42.64
-47.44
-51.58
-55.11
-58.32
-61.69
-65.71
-70.76
-76.93
-83.81
-90.44
-95.38
-96.99
-93.9
-85.44
-71.93
-54.6
-35.27
-15.9
1.86
16.93
28.87
37.74
43.95
48.07
50.63
52.1
52.83
53.04
52.91
52.56
52.1
51.6
51.06
50.5
49.94
49.48
49.24
49.28
49.58
49.9
49.93
49.29
47.77
45.38
42.38
39.13
36.02
33.25
30.82
28.52
26.09
23.23
19.78
15.67
10.95
5.8
0.45
-4.82
-9.76
-14.25
-18.38
-22.48
-27.01
-32.42
-38.9
-46.22
-53.63
-59.94
-63.79
-63.96
-59.73
-51.11
-38.83
-24.26
-9.05
5.19
17.24
26.4
32.54
36.01
37.34
37.13
35.86
33.85
31.28
28.27
24.92
21.34
17.68
14.13
10.91
8.3
6.55
5.8
6.05
7.05
8.4
9.6
10.21
9.95
8.8
6.94
4.67
2.3
0.05
-2.08
-4.19
-6.51
-9.2
-12.32
-15.78
-19.41
-23.06
-26.68
-30.42
-34.55
-39.48
-45.44
-52.34
-59.52
-65.81
-69.7
-69.8
-65.28
-56.14
-43.25
-28.04
-12.16
2.93
16.16
26.9
34.93
40.37
43.56
44.97
45.11
44.42
43.25
41.81
40.23
38.53
36.71
34.77
32.79
30.94
29.37
28.18
27.28
26.47
25.44
23.95
21.88
19.27
16.25
12.93
9.36
5.52
1.37
-3.09
-7.8
-12.68
-17.61
-22.47
-27.16
-31.65
-35.97
-40.33
-45.05
-50.55
-57.05
-64.29
-71.33
-76.66
-78.55
-75.66
-67.55
-54.87
-39.16
-22.35
-6.21
8.03
19.78
28.95
35.73
40.41
43.29
44.63
44.7
43.75
42.02
39.71
37.08
34.35
31.73
29.4
27.46
25.95
24.78
23.83
22.92
21.91
20.68
19.15
17.27
14.98
12.19
8.81
4.82
0.24
-4.74
-9.87
-14.88
-19.59
-23.96
-28.08
-32.22
-36.69
-41.85
-47.83
-54.44
-61.03
-66.47
-69.38
-68.52
-63.18
-53.4
-40.08
-24.65
-8.76
6.11
18.91
29.03
36.35
41.01
43.37
43.85
42.87
40.82
38.07
34.95
31.81
28.94
26.52
24.62
23.21
22.17
21.37
20.7
20.08
19.47
18.78
17.88
16.63
14.81
12.25
8.81
4.51
-0.47
-5.79
-11.07
-16.0
-20.43
-24.45
-28.37
-32.57
-37.47
-43.29
-50.06
-57.45
-64.79
-70.98
-74.69
-74.57
-69.7
-59.87
-45.8
-29.02
-11.48
5.02
19.16
30.36
38.63
44.31
47.83
49.54
49.75
48.77
46.96
44.7
42.33
40.08
38.0
36.1
34.32
32.62
31.0
29.47
28.02
26.58
25.06
23.32
21.2
18.57
15.37
11.64
7.49
3.1
-1.36
-5.8
-10.15
-14.42
-18.62
-22.8
-27.07
-31.59
-36.66
-42.53
-49.28
-56.59
-63.59
-68.96
-71.12
-68.78
-61.29
-48.99
-33.16
-15.66
1.56
16.89
29.37
38.71
45.13
49.08
51.09
51.64
51.06
49.61
47.44
44.7
41.59
38.35
35.3
32.73
30.82
29.6
28.89
28.45
27.99
27.31
26.29
24.81
22.76
20.01
16.47
12.11
7.08
1.63
-3.97
-9.46
-14.7
-19.63
-24.29
-28.73
-33.08
-37.56
-42.49
-48.2
-54.83
-62.09
-69.11
-74.46
-76.45
-73.7
-65.59
-52.58
-36.12
-18.24
-0.98
14.13
26.31
35.44
41.8
45.81
47.79
48.04
46.86
44.62
41.72
38.59
35.53
32.74
30.3
28.29
26.77
25.77
25.28
25.16
25.16
24.99
24.42
23.35
21.78
19.78
17.4
14.65
11.48
7.89
3.99
-0.03
-3.94
-7.59
-10.93
-14.07
-17.22
-20.65
-24.58
-29.2
-34.47
-40.03
-45.06
-48.32
-48.38
-44.03
-34.7
-20.74
-3.4
15.53
34.19
51.07
65.25
76.35
84.43
89.75
92.61
93.33
92.21
89.55
85.73
81.12
76.08
70.89
65.66
60.35
54.84
48.98
42.7
36.02
29.05
21.93
14.73
7.46
0.02
-7.7
-15.88
-24.66
-34.09
-44.08
-54.4
-64.68
-74.49
-83.39
-91.08
-97.41
-102.49
-106.61
-110.18
-113.57
-116.96
-120.15
-122.47
-122.9
-120.34
-113.89
-103.21
-88.65
-71.12
-51.93
-32.44
-13.88
2.86
17.23
29.03
38.45
45.9
51.93
56.97
61.32
65.01
67.95
70.0
71.07
71.13
70.22
68.47
66.18
63.85
62.1
61.44
62.0
63.37
64.61
64.55
62.16
56.83
48.48
37.41
24.17
9.33
-6.54
-22.81
-38.78
-53.67
-66.7
-77.31
-85.25
-90.68
-94.18
-96.63
-99.0
-102.01
-105.84
-109.88
-112.77
-112.73
-108.1
-97.98
-82.6
-63.3
-42.18
-21.46
-2.93
12.38
24.25
33.03
39.32
43.71
46.65
48.44
49.3
49.48
49.21
48.76
48.36
48.17
48.3
48.75
49.5
50.44
51.39
52.12
52.35
51.83
50.36
47.88
44.39
39.98
34.74
28.81
22.31
15.43
8.36
1.35
-5.36
-11.56
-17.14
-22.09
-26.57
-30.86
-35.34
-40.39
-46.19
-52.46
-58.34
-62.42
-62.99
-58.57
-48.38
-32.63
-12.56
9.93
32.75
54.08
72.73
88.19
100.61
110.53
118.71
125.89
132.59
139.04
145.24
151.02
156.23
160.86
165.08
169.14
173.18
177.05
180.18
181.49
179.49
172.52
159.05
138.08
109.45
73.97
33.24
-10.74
-56.07
-101.36
-145.75
-188.68
-229.5
-267.16
-300.3
-327.55
-347.94
-361.15
-367.64
-368.43
-364.79
-357.93
-348.64
-337.24
-323.52
-306.95
-287.01
-263.48
-236.74
-207.72
-177.73
-148.14
-120.03
-94.03
-70.33
-48.85
-29.44
-12.01
3.38
16.66
27.83
37.04
44.58
50.76
55.74
59.52
62.01
63.2
63.24
62.51
61.39
60.17
58.83
57.16
54.83
51.6
47.39
42.26
36.39
29.98
23.24
16.39
9.65
3.23
-2.73
-8.2
-13.3
-18.3
-23.56
-29.45
-36.19
-43.66
-51.26
-57.84
-61.88
-61.77
-56.32
-45.13
-28.82
-8.83
12.86
34.22
53.6
69.89
82.64
91.85
97.92
101.37
102.76
102.62
101.42
99.52
97.17
94.51
91.6
88.49
85.31
82.24
79.54
77.37
75.69
74.22
72.5
70.13
66.86
62.71
57.9
52.71
47.31
41.78
36.1
30.25
24.24
18.17
12.13
6.22
0.46
-5.2
-10.87
-16.77
-23.21
-30.44
-38.49
-46.95
-54.77
-60.44
-62.31
-59.08
-50.27
-36.41
-18.9
0.3
19.24
36.28
50.39
61.15
68.71
73.53
76.22
77.39
77.48
76.81
75.62
74.07
72.28
70.28
68.04
65.48
62.58
59.46
56.37
53.6
51.26
49.22
47.09
44.41
40.88
36.48
31.5
26.4
21.54
17.08
12.92
8.77
4.32
-0.58
-5.9
-11.44
-16.9
-22.04
-26.74
-31.05
-35.17
-39.47
-44.36
-50.13
-56.71
-63.52
-69.41
-72.87
-72.48
-67.3
-57.28
-43.28
-26.83
-9.75
6.38
20.43
31.87
40.63
46.91
51.05
53.4
54.32
54.14
53.21
51.85
50.28
48.61
46.88
45.08
43.25
41.57
40.28
39.58
39.54
39.96
40.46
40.54
39.79
38.01
35.24
31.71
27.76
23.7
19.74
15.93
12.21
8.42
4.36
-0.06
-4.84
-9.77
-14.59
-18.99
-22.8
-25.98
-28.63
-31.04
-33.56
-36.63
-40.68
-45.92
-52.2
-58.86
-64.72
-68.36
-68.48
-64.31
-55.88
-44.01
-30.06
-15.51
-1.7
10.42
20.31
27.76
32.84
35.78
36.94
36.79
35.81
34.42
32.92
31.46
30.06
28.7
27.41
26.25
25.33
24.71
24.37
24.18
23.99
23.6
22.93
21.95
20.67
19.08
17.14
14.8
12.05
8.96
5.72
2.57
-0.32
-2.92
-5.3
-7.67
-10.2
-13.0
-16.06
-19.3
-22.57
-25.69
-28.57
-31.14
-33.46
-35.75
-38.34
-41.63
-45.88
-50.99
-56.4
-61.07
-63.75
-63.29
-59.05
-51.04
-39.97
-27.02
-13.53
-0.68
10.69
20.1
27.4
32.63
35.93
37.5
37.6
36.52
34.65
32.39
30.1
28.04
26.32
24.9
23.68
22.55
21.47
20.52
19.84
19.53
19.54
19.63
19.45
18.61
16.91
14.4
11.3
7.99
4.75
1.73
-1.08
-3.81
-6.55
-9.33
-12.13
-14.89
-17.54
-20.08
-22.53
-24.94
-27.35
-29.8
-32.32
-34.94
-37.76
-40.93
-44.61
-48.82
-53.28
-57.38
-60.18
-60.7
-58.16
-52.3
-43.43
-32.38
-20.23
-8.11
3.06
12.66
20.35
26.04
29.81
31.89
32.53
32.07
30.83
29.1
27.09
24.94
22.71
20.47
18.35
16.52
15.15
14.32
13.98
13.93
13.91
13.66
13.04
12.0
10.58
8.84
6.82
4.54
1.98
-0.87
-4.0
-7.38
-10.95
-14.56
-18.08
-21.37
-24.38
-27.21
-30.06
-33.19
-36.79
-40.88
-45.17
-49.07
-51.81
-52.56
-50.71
-46.01
-38.7
-29.42
-19.09
-8.63
1.16
9.73
16.76
22.11
25.75
27.74
28.21
27.36
25.47
22.91
20.01
17.1
14.41
12.11
10.26
8.87
7.93
7.35
7.02
6.79
6.5
6.03
5.26
4.14
2.67
0.86
-1.29
-3.75
-6.48
-9.44
-12.49
-15.5
-18.3
-20.79
-22.95
-24.88
-26.81
-29.02
-31.72
-34.98
-38.55
-41.86
-44.13
-44.5
-42.3
-37.26
-29.59
-19.93
-9.24
1.47
11.32
19.71
26.33
31.12
34.1
35.38
35.1
33.46
30.74
27.34
23.78
20.51
17.89
16.06
14.92
14.29
13.94
13.71
13.49
13.22
12.86
12.33
11.57
10.48
8.96
6.9
4.26
1.07
-2.54
-6.34
-10.1
-13.68
-17.02
-20.19
-23.35
-26.72
-30.49
-34.83
-39.69
-44.73
-49.25
-52.28
-52.81
-50.09
-43.87
-34.51
-22.9
-10.23
2.31
13.75
23.46
31.17
36.9
40.8
43.08
43.94
43.58
42.26
40.31
38.08
35.88
33.96
32.43
31.36
30.8
30.83
31.48
32.69
34.29
36.02
37.61
38.95
40.11
41.35
42.95
45.11
47.89
51.18
54.74
58.35
61.83
65.1
68.14
70.94
73.44
75.48
76.71
76.57
74.4
69.53
61.64
50.99
38.54
25.89
14.81
6.82
2.7
2.34
4.86
8.98
13.29
16.66
18.3
17.79
15.09
10.48
4.53
-2.03
-8.5
-14.4
-19.58
-24.21
-28.66
-33.26
-38.17
-43.31
-48.4
-53.07
-57.05
-60.21
-62.6
-64.41
-65.87
-67.15
-68.32
-69.33
-70.08
-70.45
-70.36
-69.85
-69.02
-68.03
-67.02
-66.12
-65.38
-64.82
-64.43
-64.14
-63.88
-63.59
-63.23
-62.83
-62.47
-62.27
-62.35
-62.85
-63.89
-65.61
-68.18
-71.73
-76.18
-81.12
-85.72
-88.79
-89.06
-85.47
-77.56
-65.54
-50.35
-33.34
-15.98
0.46
15.11
27.5
37.6
45.62
51.91
56.82
60.65
63.59
65.77
67.24
68.02
68.14
67.6
66.44
64.74
62.66
60.47
58.41
56.74
55.55
54.78
54.23
53.57
52.5
50.8
48.43
45.5
42.24
38.88
35.61
32.49
29.47
26.44
23.3
19.96
16.46
12.86
9.25
5.69
2.19
-1.29
-4.81
-8.43
-12.18
-16.04
-19.95
-23.84
-27.64
-31.32
-34.91
-38.5
-42.31
-46.64
-51.76
-57.82
-64.54
-71.15
-76.42
-78.94
-77.54
-71.69
-61.7
-48.58
-33.72
-18.51
-4.05
8.9
19.94
28.87
35.67
40.49
43.68
45.71
47.06
48.09
48.94
49.53
49.6
48.94
47.48
45.44
43.19
41.21
39.85
39.21
39.16
39.34
39.33
38.81
37.56
35.56
32.88
29.71
26.29
22.81
19.48
16.39
13.59
11.04
8.6
6.12
3.43
0.5
-2.65
-5.84
-8.92
-11.76
-14.45
-17.16
-20.13
-23.52
-27.3
-31.34
-35.36
-39.15
-42.58
-45.72
-48.79
-52.14
-56.19
-61.19
-67.03
-73.09
-78.26
-81.17
-80.52
-75.51
-66.08
-52.98
-37.5
-21.21
-5.55
8.37
19.89
28.78
35.14
39.39
42.08
43.79
44.99
45.96
46.76
47.27
47.29
46.68
45.44
43.74
41.89
40.2
38.91
38.14
37.87
37.94
38.11
38.12
37.72
36.7
34.98
32.57
29.61
26.31
22.94
19.72
16.78
14.12
11.63
9.09
6.36
3.39
0.3
-2.68
-5.3
-7.48
-9.3
-11.04
-12.99
-15.45
-18.5
-22.1
-26.09
-30.25
-34.39
-38.38
-42.17
-45.88
-49.75
-54.12
-59.32
-65.48
-72.3
-79.0
-84.34
-86.89
-85.49
-79.55
-69.3
-55.67
-40.07
-24.0
-8.77
4.65
15.68
24.11
30.05
33.86
36.06
37.2
37.74
37.96
37.91
37.54
36.77
35.63
34.27
32.92
31.83
31.13
30.88
31.02
31.44
31.98
32.46
32.66
32.33
31.26
29.41
26.89
23.97
20.96
18.1
15.46
12.97
10.43
7.72
4.75
1.52
-1.84
-5.22
-8.46
-11.49
-14.26
-16.85
-19.41
-22.1
-25.08
-28.42
-32.07
-35.94
-39.88
-43.79
-47.7
-51.75
-56.28
-61.66
-68.12
-75.5
-83.13
-89.78
-93.94
-94.22
-89.78
-80.56
-67.35
-51.54
-34.73
-18.4
-3.62
8.98
19.18
27.02
32.76
36.71
39.28
40.83
41.7
42.11
42.14
41.8
41.09
40.06
38.92
37.97
37.5
37.67
38.47
39.68
40.96
41.97
42.47
42.34
41.54
40.1
38.03
35.38
32.23
28.69
24.88
20.92
16.9
12.87
8.86
4.85
0.85
-3.15
-7.12
-10.97
-14.63
-18.07
-21.35
-24.62
-28.06
-31.78
-35.76
-39.87
-43.92
-47.83
-51.62
-55.48
-59.7
-64.63
-70.49
-77.24
-84.37
-90.86
-95.28
-96.16
-92.41
-83.7
-70.57
-54.28
-36.44
-18.62
-2.06
12.39
24.33
33.66
40.54
45.29
48.29
49.94
50.55
50.39
49.66
48.57
47.32
46.11
45.06
44.24
43.71
43.52
43.74
44.38
45.32
46.29
46.93
46.84
45.79
43.75
40.84
37.32
33.42
29.34
25.24
21.24
17.4
13.72
10.1
6.37
2.36
-1.99
-6.6
-11.31
-15.92
-20.35
-24.63
-28.94
-33.51
-38.57
-44.3
-50.79
-57.9
-65.15
-71.67
-76.24
-77.54
-74.57
-66.92
-54.99
-39.91
-23.2
-6.48
8.9
22.05
32.56
40.44
45.95
49.46
51.34
51.9
51.42
50.17
48.48
46.67
45.06
43.85
43.12
42.83
42.87
43.14
43.56
44.02
44.38
44.43
43.9
42.54
40.21
36.92
32.86
28.38
23.81
19.43
15.32
11.45
7.65
3.77
-0.29
-4.61
-9.14
-13.83
-18.57
-23.19
-27.56
-31.57
-35.31
-39.0
-43.02
-47.77
-53.55
-60.41
-67.96
-75.34
-81.29
-84.39
-83.42
-77.67
-67.21
-52.85
-35.97
-18.19
-1.01
14.41
27.36
37.54
45.01
50.07
53.14
54.66
55.01
54.52
53.43
51.94
50.26
48.56
47.0
45.76
44.93
44.58
44.71
45.21
45.93
46.62
47.01
46.88
46.06
44.46
42.12
39.17
35.78
32.13
28.4
24.62
20.82
16.93
12.87
8.58
4.07
-0.63
-5.43
-10.2
-14.83
-19.29
-23.56
-27.68
-31.74
-35.92
-40.48
-45.72
-51.91
-59.05
-66.7
-73.85
-79.07
-80.81
-77.86
-69.81
-57.16
-41.26
-23.88
-6.83
8.44
21.04
30.61
37.27
41.42
43.61
44.47
44.53
44.17
43.57
42.75
41.59
40.05
38.18
36.19
34.33
32.85
31.85
31.29
30.99
30.77
30.36
29.58
28.26
26.23
23.44
19.9
15.81
11.44
7.08
2.93
-0.91
-4.5
-7.94
-11.33
-14.7
-18.07
-21.43
-24.77
-28.06
-31.27
-34.38
-37.36
-40.26
-43.19
-46.35
-50.06
-54.61
-60.16
-66.5
-72.95
-78.35
-81.27
-80.42
-75.04
-65.16
-51.63
-35.88
-19.5
-3.91
9.93
21.49
30.64
37.49
42.31
45.39
47.07
47.64
47.35
46.42
45.07
43.5
41.9
40.42
39.19
38.26
37.63
37.3
37.19
37.16
36.95
36.26
34.79
32.45
29.3
25.62
21.74
17.95
14.36
10.96
7.58
4.05
0.23
-3.89
-8.27
-12.77
-17.22
-21.47
-25.37
-28.9
-32.19
-35.51
-39.29
-43.91
-49.57
-56.04
-62.57
-67.9
-70.59
-69.4
-63.64
-53.49
-39.95
-24.54
-8.94
5.4
17.56
27.13
34.17
38.99
42.01
43.58
44.01
43.54
42.41
40.87
39.21
37.62
36.26
35.13
34.19
33.35
32.59
31.92
31.36
30.92
30.49
29.88
28.84
27.12
24.61
21.34
17.48
13.28
9.0
4.85
0.95
-2.63
-5.89
-8.9
-11.82
-14.83
-18.07
-21.62
-25.39
-29.18
-32.77
-36.06
-39.18
-42.44
-46.27
-50.98
-56.51
-62.36
-67.56
-70.87
-71.08
-67.33
-59.36
-47.6
-33.15
-17.5
-2.19
11.44
22.56
30.86
36.53
40.01
41.86
42.56
42.42
41.66
40.43
38.92
37.32
35.81
34.53
33.54
32.88
32.55
32.52
32.75
33.12
33.38
33.24
32.44
30.82
28.42
25.45
22.18
18.84
15.55
12.29
8.98
5.57
2.08
-1.42
-4.8
-7.97
-10.91
-13.7
-16.48
-19.37
-22.39
-25.48
-28.47
-31.19
-33.65
-36.03
-38.78
-42.38
-47.17
-53.08
-59.47
-65.19
-68.84
-69.12
-65.2
-57.0
-45.17
-30.97
-15.92
-1.48
11.21
21.5
29.21
34.51
37.8
39.54
40.17
40.02
39.4
38.54
37.59
36.66
35.79
34.96
34.17
33.47
32.93
32.66
32.69
32.89
33.05
32.85
32.05
30.52
28.31
25.6
22.62
19.59
16.67
13.91
11.3
8.76
6.2
3.55
0.82
-1.91
-4.54
-7.04
-9.49
-12.07
-14.96
-18.22
-21.77
-25.38
-28.83
-31.98
-34.84
-37.55
-40.37
-43.59
-47.5
-52.32
-58.03
-64.15
-69.72
-73.38
-73.72
-69.73
-61.19
-48.83
-34.04
-18.57
-3.96
8.71
18.93
26.64
32.06
35.54
37.46
38.22
38.19
37.64
36.74
35.57
34.17
32.62
31.05
29.61
28.47
27.75
27.5
27.7
28.28
29.01
29.59
29.63
28.85
27.12
24.56
21.49
18.25
15.06
11.97
8.91
5.79
2.63
-0.43
-3.29
-5.9
-8.33
-10.74
-13.27
-15.96
-18.78
-21.64
-24.45
-27.17
-29.78
-32.29
-34.78
-37.43
-40.55
-44.43
-49.2
-54.53
-59.64
-63.28
-64.14
-61.2
-54.1
-43.31
-29.94
-15.51
-1.49
10.95
21.12
28.81
34.09
37.24
38.57
38.43
37.23
35.4
33.4
31.55
30.05
28.86
27.83
26.84
25.89
25.11
24.7
24.73
25.11
25.58
25.77
25.4
24.37
22.71
20.57
18.14
15.5
12.7
9.8
6.85
3.93
1.16
-1.38
-3.68
-5.77
-7.78
-9.89
-12.27
-15.08
-18.36
-22.04
-25.92
-29.8
-33.47
-36.87
-40.1
-43.45
-47.31
-52.02
-57.72
-64.09
-70.33
-75.23
-77.41
-75.77
-69.75
-59.58
-46.24
-31.18
-16.03
-2.13
9.6
18.78
25.49
30.04
32.88
34.44
35.1
35.11
34.68
33.93
32.97
31.93
30.98
30.33
30.16
30.6
31.61
33.04
34.63
36.06
37.01
37.15
36.26
34.27
31.3
27.7
23.87
20.11
16.53
13.06
9.54
5.88
2.18
-1.32
-4.4
-7.0
-9.25
-11.44
-13.85
-16.64
-19.8
-23.21
-26.72
-30.23
-33.71
-37.23
-40.9
-44.91
-49.48
-54.8
-60.9
