-47.37
-52.24
-58.08
-65.17
-73.48
-82.35
-90.43
-95.82
-96.63
-91.63
-80.75
-65.14
-46.8
-27.91
-10.26
5.12
17.84
27.97
35.78
41.57
45.62
48.28
49.92
50.88
51.41
51.61
51.45
50.88
49.86
48.53
47.13
46.01
45.46
45.53
46.0
46.45
46.41
45.57
43.87
41.47
38.62
35.5
32.19
28.66
24.82
20.67
16.31
11.92
7.73
3.93
0.55
-2.54
-5.57
-8.84
-12.56
-16.86
-21.66
-26.76
-31.84
-36.63
-40.95
-44.91
-48.91
-53.59
-59.62
-67.31
-76.3
-85.36
-92.61
-95.96
-93.84
-85.71
-72.22
-55.03
-36.28
-17.96
-1.53
12.25
23.25
31.74
38.14
42.9
46.49
49.27
51.5
53.21
54.29
54.57
53.93
52.45
50.39
48.15
46.11
44.53
43.47
42.84
42.42
41.96
41.22
40.02
38.29
36.09
33.52
30.72
27.76
24.61
21.23
17.56
13.66
9.65
5.69
1.88
-1.77
-5.4
-9.21
-13.34
-17.84
-22.56
-27.22
-31.54
-35.35
-38.72
-42.01
-45.82
-50.78
-57.33
-65.44
-74.42
-82.92
-89.16
-91.4
-88.42
-80.0
-66.89
-50.67
-33.25
-16.4
-1.41
11.06
20.87
28.32
33.9
38.17
41.58
44.36
46.49
47.82
48.22
47.69
46.46
44.88
43.34
42.11
41.34
41.04
41.08
41.26
41.36
41.1
40.23
38.54
35.93
32.42
28.15
23.4
18.56
14.01
10.02
6.64
3.71
0.87
-2.24
-5.85
-9.98
-14.41
-18.85
-23.06
-26.93
-30.53
-34.08
-37.84
-42.21
-47.54
-54.1
-61.81
-70.02
-77.45
-82.37
-83.12
-78.61
-68.8
-54.72
-38.18
-21.17
-5.33
8.33
19.46
28.12
34.6
39.23
42.31
44.17
45.12
45.45
45.42
45.17
44.77
44.22
43.55
42.79
42.03
41.35
40.81
40.42
40.07
39.59
38.76
37.36
35.31
32.7
29.76
26.76
23.9
21.2
18.53
15.69
12.56
9.17
5.7
2.34
-0.83
-3.92
-7.2
-10.96
-15.35
-20.23
-25.3
-30.17
-34.58
-38.53
-42.22
-46.07
-50.55
-56.16
-63.28
-72.01
-81.91
-91.8
-99.85
-103.99
-102.56
-94.96
-81.87
-65.1
-46.96
-29.55
-14.23
-1.57
8.53
16.43
22.54
27.22
30.75
33.38
35.32
36.7
37.56
37.85
37.54
36.66
35.4
34.08
33.02
32.42
32.29
32.38
32.36
31.87
30.7
28.79
26.21
23.09
19.54
15.56
11.05
5.89
-0.01
-6.56
-13.44
-20.04
-25.6
-29.45
-31.17
-30.82
-28.86
-26.05
-23.2
-20.93
-19.57
-19.12
-19.32
-19.81
-20.31
-20.71
-21.24
-22.38
-24.78
-28.97
-35.15
-42.83
-50.76
-57.13
-60.0
-57.95
-50.57
-38.6
-23.69
-7.8
7.35
20.65
31.69
40.48
47.27
52.34
56.0
58.57
60.32
61.43
61.91
61.65
60.56
58.69
56.28
53.72
51.42
49.64
48.49
47.84
47.45
46.99
46.16
44.72
42.52
39.56
35.92
31.77
27.31
22.77
18.31
14.09
10.21
6.63
3.27
-0.04
-3.47
-7.11
-10.95
-14.85
-18.67
-22.27
-25.58
-28.63
-31.53
-34.5
-37.83
-41.92
-47.14
-53.57
-60.79
-67.77
-72.86
-74.3
-70.72
-61.66
-47.76
-30.66
-12.43
4.96
20.14
32.49
42.03
49.1
54.1
57.3
58.84
58.88
57.63
55.42
52.63
49.62
46.67
43.96
41.63
39.77
38.5
37.86
37.81
38.22
38.81
39.26
39.23
38.48
36.92
34.62
31.73
28.39
24.69
20.6
16.05
10.96
5.27
-1.04
-7.89
-15.17
-22.65
-30.04
-36.98
-43.2
-48.55
-53.15
-57.42
-61.93
-67.31
-74.03
-82.1
-91.0
-99.49
-105.9
-108.43
-105.68
-97.13
-83.41
-66.07
-47.21
-28.87
-12.56
0.92
11.39
19.1
24.48
27.97
30.03
31.09
31.55
31.73
31.82
31.85
31.78
31.49
30.9
30.01
28.92
27.78
26.77
26.03
25.61
25.43
25.26
24.83
23.82
22.0
19.3
15.81
11.86
7.83
4.12
0.96
-1.71
-4.15
-6.83
-10.11
-14.16
-18.82
-23.72
-28.43
-32.66
-36.34
-39.65
-42.92
-46.61
-51.17
-57.03
-64.4
-73.02
-81.98
-89.71
-94.25
-93.86
-87.69
-76.04
-60.39
-42.84
-25.46
-9.78
3.41
13.95
22.12
28.33
33.05
36.68
39.56
41.91
43.77
45.08
45.76
45.78
45.18
44.11
42.72
41.18
39.69
38.4
37.42
36.67
35.9
34.71
32.75
29.88
26.16
21.85
17.21
12.44
7.66
2.96
-1.53
-5.7
-9.55
-13.25
-17.08
-21.35
-26.15
-31.33
-36.53
-41.33
-45.48
-48.97
-52.09
-55.28
-59.13
-64.13
-70.58
-78.38
-86.88
-94.76
-100.26
-101.63
-97.63
-88.05
-73.74
-56.39
-37.97
-20.21
-4.25
9.42
20.78
30.08
37.62
43.69
48.54
52.38
55.36
57.56
59.0
59.68
59.62
58.86
57.53
55.78
53.85
51.99
50.42
49.22
48.32
47.48
46.34
44.58
41.98
38.47
34.17
29.29
24.12
18.97
14.03
9.39
4.95
0.49
-4.24
-9.39
-14.93
-20.62
-26.13
-31.15
-35.6
-39.56
-43.31
-47.22
-51.68
-57.02
-63.43
-70.73
-78.24
-84.71
-88.48
-87.94
-82.02
-70.56
-54.34
-34.81
-13.53
8.17
29.5
50.07
69.65
88.02
104.8
119.55
131.88
141.55
148.47
152.63
153.99
152.37
147.52
139.27
127.68
113.2
96.64
78.96
61.0
43.39
26.52
10.75
-3.37
-15.14
-24.0
-29.77
-32.93
-34.43
-35.37
-36.5
-38.06
-39.76
-41.05
-41.42
-40.55
-38.36
-34.93
-30.51
-25.52
-20.63
-16.68
-14.55
-14.85
-17.68
-22.52
-28.28
-33.48
-36.67
-36.71
-33.08
-26.01
-16.39
-5.47
5.46
15.36
23.64
30.15
35.05
38.6
41.03
42.42
42.7
41.72
39.34
35.56
30.58
24.84
18.86
13.18
8.27
4.41
1.65
-0.15
-1.38
-2.55
-4.22
-6.86
-10.72
-15.75
-21.68
-28.11
-34.69
-41.26
-47.83
-54.57
-61.69
-69.38
-77.62
-86.16
-94.48
-101.88
-107.73
-111.66
-113.85
-114.99
-116.19
-118.59
-122.98
-129.57
-137.75
-146.18
-153.1
-156.66
-155.47
-148.93
-137.42
-122.11
-104.62
-86.55
-69.07
-52.74
-37.59
-23.29
-9.4
4.35
18.06
31.59
44.65
56.94
68.18
78.19
86.88
94.23
100.23
105.0
108.74
111.69
114.09
116.01
117.27
117.56
116.52
114.02
110.22
105.51
100.4
95.23
90.15
85.07
79.82
74.25
68.29
62.01
55.48
48.78
41.98
35.12
28.26
21.47
14.82
8.35
2.14
-3.77
-9.37
-14.81
-20.38
-26.52
-33.65
-41.91
-50.88
-59.58
-66.63
-70.61
-70.56
-66.23
-58.16
-47.43
-35.28
-22.8
-10.77
0.35
10.33
19.05
26.5
32.68
37.71
41.71
44.77
46.94
48.21
48.53
47.96
46.65
44.91
43.1
41.56
40.5
39.96
39.78
39.68
39.36
38.56
37.12
35.03
32.42
29.46
26.37
23.33
20.38
17.45
14.4
11.09
7.5
3.79
0.18
-3.06
-5.83
-8.24
-10.58
-13.18
-16.26
-19.85
-23.75
-27.64
-31.23
-34.42
-37.3
-40.15
-43.37
-47.34
-52.26
-58.02
-64.08
-69.42
-72.74
-72.82
-68.86
-60.83
-49.48
-36.12
-22.24
-9.08
2.61
12.61
21.03
28.12
34.08
38.93
42.62
45.03
46.16
46.13
45.22
43.81
42.23
40.73
39.45
38.43
37.69
37.23
37.03
36.99
36.94
36.66
35.88
34.42
32.19
29.24
25.78
22.06
18.37
14.93
11.83
8.97
6.11
2.99
-0.55
-4.5
-8.63
-12.6
-16.08
-18.89
-21.07
-22.91
-24.86
-27.47
-31.16
-36.13
-42.19
-48.64
-54.38
-58.09
-58.62
-55.32
-48.27
-38.26
-26.52
-14.36
-2.88
7.23
15.66
22.41
27.65
31.65
34.73
37.12
38.95
40.2
40.74
40.47
39.44
37.87
36.12
34.54
33.38
32.69
32.31
32.04
31.63
30.91
29.77
28.2
26.3
24.19
21.96
19.67
17.29
14.72
11.9
8.87
5.77
2.8
0.06
-2.46
-4.92
-7.54
-10.49
-13.74
-17.15
-20.5
-23.66
-26.59
-29.41
-32.33
-35.55
-39.31
-43.81
-49.11
-55.02
-60.93
-65.83
-68.52
-67.92
-63.5
-55.41
-44.53
-32.2
-19.8
-8.38
1.41
9.44
15.92
21.21
25.7
29.64
33.1
36.01
38.2
39.5
39.86
39.4
38.35
37.06
35.91
35.2
35.14
35.74
36.87
38.22
39.45
40.27
40.49
40.13
39.31
38.23
36.99
35.57
33.85
31.65
28.86
25.43
21.41
16.96
12.27
7.52
2.91
-1.46
-5.6
-9.63
-13.72
-17.98
-22.43
-26.94
-31.32
-35.4
-39.08
-42.38
-45.44
-48.53
-52.0
-56.2
-61.23
-66.8
-72.09
-75.86
-76.79
-73.89
-66.9
-56.37
-43.49
-29.67
-16.15
-3.75
7.18
16.59
24.62
31.35
36.88
41.26
44.56
46.88
48.25
48.73
48.33
47.11
45.23
43.03
40.95
39.5
39.11
40.02
42.17
45.16
48.31
50.75
51.67
50.54
47.32
42.45
36.75
31.06
25.98
21.68
17.91
14.23
10.23
5.81
1.07
-3.74
-8.47
-13.19
-18.14
-23.62
-29.81
-36.68
-43.92
-51.12
-57.85
-63.83
-68.93
-73.25
-77.03
-80.64
-84.47
-88.76
-93.44
-97.98
-101.45
-102.74
-100.85
-95.21
-85.88
-73.53
-59.18
-43.96
-28.81
-14.33
-0.76
11.92
23.86
35.12
45.58
54.96
63.07
70.09
76.7
84.12
93.67
106.33
122.22
140.29
158.27
173.11
181.52
180.84
169.83
149.06
120.93
89.08
57.5
29.51
7.04
-9.49
-20.9
-28.57
-33.9
-37.93
-41.29
-44.35
-47.38
-50.62
-54.29
-58.45
-62.93
-67.38
-71.37
-74.63
-77.17
-79.21
-81.13
-83.27
-85.82
-88.82
-92.23
-95.9
-99.64
-103.05
-105.48
-105.97
-103.53
-97.39
-87.32
-73.85
-58.13
-41.7
-26.09
-12.43
-1.36
7.05
13.09
17.2
19.83
21.33
21.99
22.04
21.76
21.41
21.17
21.13
21.21
21.25
21.13
20.82
20.54
20.68
21.64
23.7
26.82
30.66
34.66
38.17
40.63
41.67
41.18
39.25
36.15
32.16
27.48
22.11
15.93
8.79
0.76
-7.82
-16.39
-24.4
-31.49
-37.65
-43.14
-48.33
-53.48
-58.72
-63.95
-68.87
-72.78
-74.67
-73.28
-67.48
-56.76
-41.58
-23.38
-4.22
13.88
29.44
41.73
50.76
56.93
60.73
62.62
62.98
62.2
60.64
58.6
56.28
53.72
50.92
47.85
44.58
41.25
38.08
35.34
33.21
31.77
30.99
30.7
30.62
30.49
30.05
29.08
27.39
24.81
21.26
16.78
11.63
6.16
0.79
-4.17
-8.62
-12.64
-16.47
-20.3
-24.26
-28.36
-32.54
-36.73
-40.92
-45.17
-49.67
-54.68
-60.52
-67.45
-75.45
-84.05
-92.22
-98.44
-101.07
-98.76
-91.0
-78.27
-62.0
-44.17
-26.75
-11.2
1.73
11.94
19.77
25.66
29.96
32.85
34.42
34.79
34.15
32.81
31.09
29.32
27.7
26.33
25.27
24.53
24.09
23.94
24.01
24.17
24.24
23.97
23.14
21.58
19.27
16.26
12.75
8.96
5.12
1.38
-2.17
-5.55
-8.86
-12.23
-15.78
-19.58
-23.61
-27.75
-31.84
-35.73
-39.34
-42.75
-46.23
-50.2
-55.1
-61.24
-68.48
-76.14
-82.93
-87.18
-87.27
-82.14
-71.59
-56.51
-38.56
-19.81
-2.18
12.96
24.97
33.86
40.13
44.4
47.23
48.96
49.81
49.9
49.33
48.24
46.8
45.15
43.37
41.58
39.86
38.36
37.24
36.61
36.42
36.44
36.25
35.39
33.4
30.08
25.56
20.32
15.04
10.33
6.49
3.36
0.45
-2.87
-6.93
-11.71
-16.8
-21.61
-25.71
-29.01
-31.81
-34.76
-38.54
-43.7
-50.34
-57.97
-65.46
-71.2
-73.43
-70.78
-62.71
-49.7
-33.25
-15.36
1.95
17.17
29.47
38.72
45.18
49.27
51.4
51.91
51.14
49.43
47.23
44.94
42.87
41.15
39.72
38.46
37.22
35.99
34.87
34.03
33.57
33.42
33.32
32.83
31.56
29.25
25.96
22.03
17.9
14.0
10.53
7.43
4.38
1.01
-3.05
-7.89
-13.37
-19.06
-24.46
-29.13
-32.95
-36.17
-39.35
-43.23
-48.4
-55.1
-63.03
-71.27
-78.4
-82.7
-82.64
-77.25
-66.57
-51.65
-34.36
-16.81
-0.76
12.74
23.45
31.69
38.01
42.81
46.33
48.64
49.82
50.01
49.49
48.54
47.36
46.08
44.71
43.23
41.67
40.16
38.89
38.03
37.68
37.78
38.04
38.01
37.2
35.22
31.97
27.65
22.7
17.62
12.83
8.47
4.47
0.55
-3.59
-8.15
-13.16
-18.47
-23.78
-28.77
-33.17
-36.96
-40.36
-43.77
-47.77
-52.86
-59.26
-66.74
-74.42
-80.84
-84.17
-82.75
-75.63
-62.97
-46.08
-27.08
-8.28
8.49
22.19
32.64
40.23
45.56
49.16
51.41
52.58
52.88
52.59
51.94
51.09
50.06
48.76
47.1
45.11
42.96
40.95
39.36
38.3
37.66
37.16
36.45
35.26
33.44
30.96
27.82
24.08
19.85
15.28
10.61
6.06
1.79
-2.21
-6.13
-10.2
-14.65
-19.48
-24.53
-29.45
-33.9
-37.61
-40.59
-43.11
-45.68
-48.88
-53.26
-59.08
-66.17
-73.75
-80.45
-84.54
-84.38
-78.9
-68.02
-52.81
-35.15
-17.24
-0.98
12.46
22.78
30.34
35.81
39.88
42.98
45.33
46.95
47.8
47.87
47.18
45.84
43.98
41.81
39.59
37.57
35.97
34.92
34.42
34.33
34.43
34.43
34.05
33.01
31.16
28.44
25.01
21.18
17.32
13.75
10.54
7.58
4.59
1.28
-2.46
-6.53
-10.68
-14.63
-18.19
-21.29
-24.03
-26.65
-29.5
-33.01
-37.6
-43.56
-50.79
-58.66
-65.91
-70.86
-71.82
-67.67
-58.2
-44.31
-27.73
-10.58
5.27
18.57
28.88
36.31
41.35
44.56
46.36
47.09
46.99
46.31
45.2
43.76
41.98
39.86
37.46
34.94
32.59
30.7
29.48
28.95
29.01
29.44
29.96
30.23
29.87
28.52
26.0
22.39
18.07
13.6
9.44
5.8
2.46
-1.02
-5.11
-9.99
-15.48
-21.06
-26.15
-30.39
-33.77
-36.63
-39.53
-43.05
-47.64
-53.52
-60.57
-68.18
-75.24
-80.15
-81.22
-77.15
-67.54
-53.14
-35.75
-17.65
-0.92
13.01
23.63
31.12
36.1
39.18
40.87
41.5
41.26
40.3
38.79
36.9
34.84
32.78
30.86
29.21
27.9
27.01
26.58
26.61
27.08
27.82
28.54
28.87
28.44
27.05
24.68
21.57
18.07
14.5
11.06
7.75
4.49
1.18
-2.27
-5.87
-9.6
-13.5
-17.62
-21.92
-26.26
-30.4
-34.09
-37.2
-39.85
-42.42
-45.43
-49.44
-54.91
-62.02
-70.49
-79.43
-87.33
-92.26
-92.33
-86.34
-74.29
-57.42
-37.98
-18.44
-0.89
13.5
24.52
32.62
38.52
42.9
46.22
48.71
50.46
51.51
51.87
51.58
50.71
49.35
47.64
45.74
43.82
42.06
40.61
39.51
38.7
38.02
37.19
36.01
34.35
32.24
29.84
27.29
24.71
22.09
19.35
16.39
13.13
9.61
5.92
2.22
-1.41
-4.96
-8.54
-12.28
-16.27
-20.46
-24.66
-28.63
-32.24
-35.51
-38.73
-42.41
-47.12
-53.28
-60.91
-69.37
-77.35
-82.98
-84.32
-79.99
-69.64
-54.23
-35.73
-16.56
1.11
15.87
27.18
35.22
40.59
43.95
45.88
46.79
47.0
46.69
45.94
44.77
43.12
40.96
38.33
35.35
32.27
29.45
27.21
25.81
25.27
25.37
25.73
25.88
25.47
24.32
22.45
19.99
17.13
14.01
10.73
7.34
3.89
0.44
-2.94
-6.2
-9.35
-12.47
-15.72
-19.19
-22.95
-26.93
-30.97
-34.94
-38.82
-42.72
-46.9
-51.69
-57.45
-64.43
-72.55
-81.21
-89.16
-94.6
-95.58
-90.65
-79.45
-62.98
-43.36
-23.19
-4.75
10.57
22.38
31.04
37.24
41.58
44.46
46.09
46.65
46.34
45.37
43.93
42.12
39.98
37.55
34.97
32.49
30.47
29.23
28.93
29.47
30.46
31.28
31.3
30.04
27.37
23.5
19.0
14.55
10.62
7.34
4.42
1.35
-2.34
-6.79
-11.77
-16.78
-21.3
-25.08
-28.19
-31.09
-34.38
-38.67
-44.43
-51.71
-60.06
-68.38
-74.99
-77.99
-75.85
-67.92
-54.77
-38.11
-20.21
-3.28
11.15
22.5
30.94
37.11
41.68
45.09
47.5
48.89
49.19
48.49
47.04
45.23
43.43
41.89
40.64
39.58
38.6
37.67
36.85
36.24
35.77
35.23
34.25
32.49
29.73
26.03
21.64
16.96
12.38
8.16
4.4
0.97
-2.43
-6.15
-10.44
-15.33
-20.56
-25.68
-30.23
-33.98
-37.01
-39.69
-42.61
-46.38
-51.51
-58.24
-66.33
-74.91
-82.44
-86.95
-86.57
-80.21
-68.01
-51.41
-32.7
-14.26
2.11
15.59
26.19
34.39
40.72
45.5
48.85
50.83
51.62
51.5
50.82
49.87
48.8
47.58
46.16
44.47
42.62
40.81
39.33
38.34
37.87
37.69
37.44
36.68
35.07
32.46
28.93
24.78
20.39
16.15
12.36
9.08
6.16
3.27
0.02
-3.85
-8.36
-13.27
-18.14
-22.53
-26.23
-29.33
-32.22
-35.46
-39.6
-45.06
-52.03
-60.34
-69.36
-77.85
-84.04
-86.03
-82.29
-72.32
-56.98
-38.24
-18.62
-0.42
14.88
26.81
35.65
42.03
46.57
49.69
51.63
52.55
52.56
51.84
50.51
48.72
46.6
44.29
41.95
39.8
38.04
36.8
36.08
35.72
35.46
34.98
34.04
32.56
30.57
28.18
25.47
22.47
19.17
15.57
11.77
7.91
4.14
0.61
-2.67
-5.78
-8.93
-12.35
-16.23
-20.62
-25.35
-30.11
-34.58
-38.58
-42.22
-45.9
-50.22
-55.79
-62.91
-71.39
-80.36
-88.3
-93.37
-93.88
-88.8
-78.21
-63.32
-46.16
-28.98
-13.64
-1.19
8.17
14.86
19.55
22.79
24.96
26.21
26.6
26.22
25.23
23.86
22.35
20.89
19.56
18.39
17.43
16.8
16.72
17.38
18.82
20.84
22.94
24.55
25.16
24.61
23.09
21.06
19.04
17.31
15.84
14.28
12.16
9.15
5.22
0.71
-3.85
-7.96
-11.41
-14.37
-17.35
-20.98
-25.78
-32.02
-39.55
-47.79
-55.68
-61.89
-64.97
-63.82
-58.02
-48.03
-35.08
-20.82
-6.86
5.71
16.34
25.04
32.06
37.71
42.24
45.79
48.44
50.18
50.95
50.71
49.51
47.59
45.32
43.16
41.46
40.4
39.94
39.85
39.89
39.9
39.78
39.51
39.03
38.2
36.83
34.71
31.75
28.03
23.79
19.4
15.18
11.34
7.9
4.72
1.62
-1.52
-4.64
-7.59
-10.19
-12.36
-14.21
-15.98
-18.03
-20.69
-24.32
-29.2
-35.55
-43.38
-52.21
-61.04
-68.35
-72.48
-72.19
-67.07
-57.73
-45.59
-32.36
-19.53
-8.04
1.78
10.05
17.13
23.35
28.92
33.91
38.24
41.75
44.24
45.62
45.95
45.46
44.48
43.29
42.13
41.13
40.36
39.83
39.53
39.37
39.16
38.66
37.6
35.77
33.09
29.59
25.43
20.84
16.07
11.34
6.76
2.28
-2.28
-7.17
-12.58
-18.5
-24.72
-30.9
-36.74
-42.07
-46.93
-51.54
-56.2
-61.27
-67.02
-73.54
-80.56
-87.29
-92.44
-94.5
-92.2
-84.99
-73.23
-58.15
-41.42
-24.66
-9.1
4.59
16.16
25.64
33.16
38.89
43.02
45.77
47.32
47.8
47.31
45.88
43.6
40.63
37.17
33.52
29.97
26.69
23.78
21.15
18.64
16.02
13.16
9.99
6.59
3.1
-0.35
-3.69
-6.9
-9.99
-13.01
-15.94
-18.79
-21.56
-24.21
-26.77
-29.26
-31.85
-34.84
-38.68
-43.82
-50.4
-57.97
-65.33
-70.77
-72.52
-69.45
-61.42
-49.46
-35.29
-20.75
-7.27
4.44
14.21
22.21
28.6
33.43
36.7
38.47
39.0
38.62
37.69
36.43
34.94
33.18
31.16
29.03
27.08
25.63
24.94
25.01
25.58
26.16
26.16
25.16
22.98
19.81
16.05
12.2
8.62
5.47
2.63
-0.14
-3.1
-6.36
-9.89
-13.51
-16.99
-20.18
-23.09
-25.9
-28.97
-32.78
-37.78
-44.24
-52.04
-60.45
-68.2
-73.64
-75.23
-71.97
-63.83
-51.72
-37.26
-22.24
-8.15
4.14
14.38
22.73
29.48
34.9
39.2
42.52
44.98
46.7
47.73
48.1
47.77
46.78
45.26
43.5
41.86
40.69
40.22
40.48
41.31
42.37
43.22
43.42
42.61
40.64
37.65
34.01
30.15
26.45
23.0
19.61
15.93
11.63
6.61
1.05
-4.66
-10.14
-15.09
-19.46
-23.38
-27.1
-30.96
-35.33
-40.54
-46.71
-53.58
-60.34
-65.74
-68.33
-66.93
-61.05
-51.09
-38.24
-24.1
-10.24
2.22
12.66
21.0
27.49
32.52
36.47
39.62
42.13
44.01
45.2
45.65
45.36
44.41
42.98
41.24
39.4
37.65
36.17
35.16
34.7
34.72
34.95
34.96
34.34
32.77
30.25
26.97
23.3
19.53
15.85
12.32
8.92
5.61
2.36
-0.91
-4.31
-7.98
-12.01
-16.39
-20.94
-25.44
-29.69
-33.57
-37.16
-40.73
-44.68
-49.39
-55.13
-61.77
-68.63
-74.55
-78.06
-77.91
-73.45
-64.9
-53.27
-39.99
-26.49
-13.85
-2.67
6.82
14.66
20.95
25.84
29.53
32.21
34.1
35.31
35.89
35.8
35.0
33.5
31.36
28.8
26.1
23.6
21.59
20.24
19.53
19.22
18.93
18.28
17.06
15.23
12.99
10.55
8.07
5.54
2.83
-0.17
-3.48
-6.96
-10.41
-13.64
-16.58
-19.31
-22.02
-24.96
-28.36
-32.5
-37.53
-43.42
-49.72
-55.55
-59.67
-60.85
-58.26
-51.8
-42.13
-30.48
-18.21
-6.52
3.86
12.61
19.74
25.41
29.77
32.99
35.18
36.46
36.96
36.78
36.03
34.8
33.22
31.4
29.54
27.81
26.32
25.18
24.36
23.8
23.33
22.77
21.88
20.42
18.22
15.3
11.83
8.17
4.67
1.54
-1.29
-4.14
-7.37
-11.19
-15.51
-19.96
-24.02
-27.33
-29.84
-31.83
-33.83
-36.42
-40.05
-44.88
-50.68
-56.83
-62.32
-65.96
-66.6
-63.47
-56.46
-46.17
-33.78
-20.72
-8.25
2.72
11.83
19.1
24.82
29.31
32.87
35.65
37.71
39.04
39.62
39.52
38.85
37.81
36.54
35.13
33.61
31.99
30.31
28.71
27.36
26.37
25.69
25.07
24.15
22.6
20.27
17.23
13.75
10.16
6.73
3.57
0.66
-2.13
-5.02
-8.14
-11.58
-15.28
-19.1
-22.82
-26.31
-29.54
-32.68
-35.99
-39.77
-44.31
-49.78
-56.13
-63.0
-69.62
-74.85
-77.4
-76.14
-70.54
-60.91
-48.34
-34.39
-20.64
-8.26
2.13
10.47
17.05
22.27
26.48
29.9
32.62
34.63
35.94
36.57
36.61
36.15
35.32
34.21
32.87
31.39
29.87
28.5
27.5
26.96
26.82
26.75
26.31
25.06
22.78
19.58
15.79
11.89
8.24
5.02
2.13
-0.67
-3.67
-7.05
-10.82
-14.85
-18.93
-22.86
-26.54
-30.08
-33.73
-37.91
-42.99
-49.19
-56.33
-63.73
-70.31
-74.68
-75.57
-72.18
-64.48
-53.22
-39.72
-25.55
-12.03
-0.05
10.04
18.28
24.95
30.33
34.69
38.16
40.82
42.7
43.79
44.04
43.45
42.07
40.08
37.78
35.55
33.74
32.57
32.02
31.84
31.58
30.81
29.23
26.8
23.74
20.37
16.99
13.75
10.57
7.26
3.56
-0.65
-5.31
-10.2
-15.0
-19.48
-23.54
-27.38
-31.31
-35.8
-41.21
-47.65
-54.81
-61.89
-67.65
-70.7
-69.91
-64.76
-55.54
-43.29
-29.43
-15.4
-2.3
9.22
18.87
26.63
32.6
36.99
40.05
42.1
43.44
44.23
44.5
44.18
43.22
41.68
39.75
37.75
36.02
34.78
34.12
33.91
33.88
33.65
32.84
31.16
28.51
25.01
20.94
16.67
12.44
8.38
4.39
0.35
-3.86
-8.22
-12.6
-16.85
-20.85
-24.62
-28.21
-31.82
-35.68
-40.13
-45.52
-52.08
-59.7
-67.66
-74.68
-79.14
-79.57
-75.2
-66.19
-53.66
-39.21
-24.51
-10.8
1.25
11.52
20.14
27.34
33.28
38.07
41.84
44.71
46.82
48.29
49.12
49.25
48.59
47.13
45.01
42.58
40.24
38.38
37.18
36.57
36.22
35.71
34.66
32.84
30.23
27.01
23.42
19.76
16.19
12.8
9.51
6.18
2.63
-1.26
-5.48
-9.93
-14.42
-18.74
-22.74
-26.42
-29.99
-33.81
-38.36
-44.06
-51.0
-58.71
-66.14
-71.83
-74.25
-72.37
-65.97
-55.71
-42.91
-29.11
-15.64
-3.37
7.27
16.24
23.65
29.7
34.6
38.52
41.58
43.85
45.32
45.99
45.9
45.06
43.55
41.44
38.88
36.09
33.39
31.12
29.52
28.63
28.17
27.65
26.58
24.62
21.74
18.21
14.45
10.88
7.69
4.82
2.01
-1.09
-4.73
-8.96
-13.61
-18.33
-22.78
-26.69
-30.08
-33.19
-36.44
-40.31
-45.19
-51.22
-58.22
-65.54
-72.08
-76.43
-77.2
-73.51
-65.25
-53.28
-39.13
-24.6
-11.2
0.23
9.5
16.93
23.02
28.17
32.59
36.24
39.04
40.84
41.61
41.44
40.56
39.21
37.64
36.09
34.75
33.79
33.31
33.31
33.58
33.73
33.28
31.85
29.36
26.04
22.37
18.8
15.57
12.55
9.39
5.73
1.45
-3.26
-8.0
-12.33
-16.07
-19.33
-22.53
-26.17
-30.77
-36.62
-43.68
-51.53
-59.2
-65.37
-68.57
-67.62
-62.04
-52.23
-39.43
-25.31
-11.53
0.68
10.73
18.61
24.69
29.44
33.21
36.17
38.31
39.53
39.81
39.26
38.11
36.61
34.96
33.24
31.43
29.56
27.74
26.18
25.06
24.4
23.98
23.36
22.09
19.84
16.62
12.69
8.47
4.36
0.57
-2.97
-6.49
-10.27
-14.48
-19.02
-23.63
-27.91
-31.59
-34.62
-37.26
-39.95
-43.22
-47.49
-52.91
-59.36
-66.28
-72.71
-77.4
-79.03
-76.58
-69.69
-58.79
-45.02
-29.91
-14.95
-1.27
10.48
20.08
27.63
33.4
37.74
40.99
43.4
45.11
46.17
46.54
46.21
45.27
43.87
42.23
40.57
39.06
37.82
36.93
36.44
36.34
36.6
37.06
37.55
37.82
37.6
36.7
34.97
32.48
29.46
26.25
23.23
20.64
18.48
16.54
14.48
12.06
9.23
6.29
3.63
1.63
0.49
0.06
-0.05
-0.37
-1.46
-3.78
-7.57
-12.55
-17.73
-21.31
-20.94
-14.43
-0.55
20.22
45.68
72.45
97.07
117.1
131.65
141.3
147.42
151.39
154.0
155.34
154.93
152.07
146.11
136.66
123.66
107.52
89.07
69.53
50.3
32.69
17.64
5.53
-3.82
-11.13
-17.35
-23.5
-30.34
-38.21
-47.01
-56.23
-65.17
-73.18
-79.89
-85.23
-89.5
-93.28
-97.19
-101.73
-107.17
-113.4
-120.01
-126.43
-132.17
-137.03
-141.16
-145.09
-149.49
-155.02
-161.99
-170.19
-178.83
-186.59
-191.88
-193.17
-189.35
-179.85
-164.76
-144.66
-120.49
-93.26
-64.0
-33.66
-3.09
26.88
55.38
81.49
104.3
123.12
137.66
148.17
155.26
159.73
162.2
163.02
162.27
160.07
156.68
152.56
148.15
143.54
138.32
131.79
123.23
112.37
99.52
85.49
71.22
57.45
44.49
32.17
20.06
7.61
-5.53
-19.39
-33.67
-47.75
-60.88
-72.44
-82.2
-90.44
-97.93
-105.73
-114.81
-125.61
-137.69
-149.6
-158.9
-162.76
-158.65
-145.18
-122.62
-93.01
-59.62
-26.1
4.46
30.14
50.29
65.23
75.76
82.75
86.95
88.95
89.34
88.64
87.33
85.74
84.0
82.0
79.57
76.54
72.95
69.05
65.18
61.72
58.92
56.8
55.31
54.24
53.43
52.74
52.12
51.61
51.34
51.56
52.58
54.65
57.86
62.02
66.78
71.64
76.24
80.48
84.54
88.73
93.33
98.39
103.78
109.22
114.4
118.89
122.13
123.29
121.38
115.52
105.15
90.27
71.39
49.28
24.54
-2.66
-32.47
-64.86
-98.9
-132.35
-161.88
-183.95
-196.14
-198.04
-191.41
-179.34
-164.95
-150.22
-135.62
-120.76
-105.39
-90.2
-76.68
-66.29
-59.36
-54.56
-49.4
-41.63
-30.84
-19.23
-11.26
-11.87
-24.41
-49.07
-82.73
-120.13
-155.8
-185.81
-208.49
-224.16
-234.09
-239.67
-241.95
-241.82
-240.47
-239.32
-239.68
-241.8
-244.17
-243.49
-235.36
-215.72
-182.06
-134.38
-75.19
-9.01
58.52
121.71
175.74
217.26
244.74
258.45
260.04
251.95
236.67
216.28
192.32
165.92
137.99
109.49
81.28
54.01
28.03
3.34
-20.19
-42.54
-63.31
-81.55
-96.02
-105.55
-109.55
-108.28
-102.84
-94.83
-85.93
-77.48
-70.44
-65.33
-62.35
-61.44
-62.21
-64.03
-66.07
-67.54
-68.03
-67.64
-67.1
-67.44
-69.5
-73.33
-77.89
-81.11
-80.48
-73.94
-60.75
-41.76
-19.2
4.17
25.89
44.45
59.35
70.81
79.27
85.12
88.6
89.92
89.36
87.25
83.89
79.45
73.96
67.45
60.08
52.25
44.55
37.69
32.27
28.58
26.55
25.73
25.41
24.82
23.39
20.9
17.45
13.39
9.02
4.57
0.02
-4.75
-9.82
-15.18
-20.68
-26.13
-31.38
-36.39
-41.28
-46.3
-51.81
-58.24
-65.93
-74.97
-84.96
-94.82
-102.86
-107.19
-106.21
-99.11
-86.15
-68.46
-47.71
-25.58
-3.5
17.45
36.48
53.0
66.6
77.14
84.76
89.8
92.75
94.04
93.99
92.81
90.68
87.78
84.31
80.57
76.92
73.72
71.25
69.53
68.27
66.93
64.86
61.62
57.03
51.27
44.67
37.61
30.33
22.93
15.37
7.56
-0.58
-9.1
-17.97
-27.04
-36.1
-44.84
-53.02
-60.55
-67.56
-74.49
-81.98
-90.75
-101.17
-112.87
-124.38
-133.24
-136.5
-131.65
-117.35
-93.92
-63.13
-27.62
9.84
46.82
81.42
112.2
138.14
158.63
173.54
183.18
188.13
189.01
186.3
180.34
171.48
160.2
147.18
133.27
119.34
106.23
94.63
85.05
77.69
72.43
68.85
66.31
64.18
62.05
59.77
57.41
55.09
52.89
50.68
48.23
45.32
41.84
37.83
33.46
28.91
24.3
19.62
14.8
9.72
4.33
-1.37
-7.36
-13.53
-19.7
-25.47
-30.22
-33.26
-34.26
-33.51
-32.14
-31.62
-33.22
-37.28
-43.03
-48.88
-53.14
-54.65
-53.15
-49.11
-43.26
-36.26
-28.51
-20.28
-11.9
-3.82
3.51
9.75
14.83
18.9
22.18
24.76
26.48
26.98
25.79
22.64
17.51
10.76
2.92
-5.44
-13.95
-22.37
-30.57
-38.32
-45.23
-50.83
-54.76
-56.95
-57.7
-57.6
-57.34
-57.57
-58.85
-61.63
-66.17
-72.28
-79.08
-84.88
-87.48
-84.79
-75.55
-60.0
-39.81
-17.64
3.73
22.15
36.53
46.79
53.38
57.0
58.17
57.32
54.83
51.13
46.8
42.33
38.14
34.37
30.87
27.41
23.76
19.89
16.0
12.41
9.39
7.01
5.08
3.29
1.37
-0.73
-2.81
-4.51
-5.51
-5.69
-5.18
-4.37
-3.73
-3.72
-4.56
-6.23
-8.49
-11.01
-13.53
-15.96
-18.39
-21.12
-24.46
-28.67
-33.81
-39.69
-45.76
-51.17
-54.9
-56.01
-53.97
-48.85
-41.37
-32.65
-23.96
-16.3
-10.25
-5.96
-3.29
-2.0
-1.88
-2.8
-4.63
-7.22
-10.28
-13.45
-16.31
-18.54
-20.0
-20.68
-20.64
-19.9
-18.38
-15.93
-12.49
-8.1
-2.96
2.66
8.6
14.87
21.72
29.49
38.55
49.02
60.76
73.24
85.61
96.88
106.12
112.67
116.28
117.14
115.74
112.65
108.36
103.19
97.36
90.98
84.24
77.35
70.5
63.82
57.35
50.99
44.66
38.29
31.9
25.64
19.68
14.23
9.45
5.38
2.03
-0.68
-2.83
-4.53
-5.94
-7.24
-8.68
-10.41
-12.52
-14.96
-17.68
-20.62
-23.88
-27.62
-32.06
-37.31
-43.26
-49.6
-55.8
-61.31
-65.67
-68.61
-70.08
-70.16
-69.02
-66.79
-63.66
-59.86
-55.76
-51.83
-48.51
-46.07
-44.51
-43.59
-42.97
-42.36
-41.6
-40.74
-39.94
-39.44
-39.51
-40.37
-42.17
-44.86
-48.05
-50.99
-52.58
-51.71
-47.56
-39.98
-29.52
-17.29
-4.58
7.58
18.57
28.22
36.52
43.41
48.7
52.14
53.61
53.22
51.35
48.46
44.98
41.15
37.15
33.11
29.23
25.71
22.79
20.56
18.94
17.73
16.63
15.32
13.57
11.28
8.45
5.23
1.79
-1.74
-5.29
-8.9
-12.62
-16.47
-20.37
-24.15
-27.59
-30.54
-33.07
-35.42
-38.06
-41.47
-45.98
-51.44
-57.16
-61.91
-64.28
-63.07
-57.76
-48.69
-36.94
-23.99
-11.24
0.34
10.29
18.6
25.39
30.76
34.73
37.26
38.41
38.42
37.68
36.61
35.55
34.57
33.58
32.33
30.65
28.54
26.19
23.87
21.8
20.0
18.3
16.39
14.03
11.16
7.91
4.57
1.39
-1.51
-4.19
-6.87
-9.78
-13.06
-16.67
-20.4
-23.92
-26.98
-29.48
-31.53
-33.55
-36.04
-39.55
-44.41
-50.51
-57.2
-63.25
-67.14
-67.48
-63.35
-54.74
-42.44
-27.92
-12.8
1.48
14.01
24.38
32.62
38.9
43.42
46.3
47.65
47.67
46.67
45.13
43.5
42.14
41.14
40.37
39.57
38.5
37.18
35.78
34.56
33.65
32.98
32.19
30.91
28.87
26.05
22.73
19.25
15.94
12.91
10.08
7.19
3.97
0.23
-4.09
-8.85
-13.75
-18.42
-22.54
-25.96
-28.83
-31.48
-34.45
-38.19
-43.03
-48.92
-55.41
-61.59
-66.17
-67.75
-65.19
-57.98
-46.55
-32.19
-16.76
-2.08
10.54
20.58
28.23
34.02
38.47
41.85
44.19
45.46
45.73
45.27
44.47
43.64
42.88
42.07
40.98
39.47
37.58
35.61
33.91
32.74
32.08
31.65
31.0
29.67
27.4
24.16
20.2
15.87
11.54
7.46
3.73
0.26
-3.18
-6.85
-10.92
-15.4
-20.1
