15.12
11.01
7.04
3.49
0.39
-2.48
-5.47
-8.92
-12.94
-17.44
-22.09
-26.54
-30.51
-33.89
-36.78
-39.51
-42.52
-46.32
-51.34
-57.72
-65.15
-72.65
-78.74
-81.62
-79.73
-72.36
-59.92
-43.89
-26.42
-9.6
5.05
16.9
26.02
32.91
38.08
41.87
44.46
45.97
46.58
46.54
46.06
45.3
44.3
43.05
41.54
39.83
38.04
36.29
34.69
33.3
32.04
30.81
29.46
27.84
25.83
23.38
20.5
17.29
13.87
10.41
7.04
3.87
0.88
-2.01
-4.95
-8.16
-11.8
-15.95
-20.49
-25.19
-29.7
-33.75
-37.26
-40.41
-43.61
-47.37
-52.09
-57.9
-64.43
-70.75
-75.49
-77.1
-74.27
-66.41
-53.95
-38.24
-21.2
-4.69
9.89
21.89
31.26
38.3
43.31
46.54
48.19
48.53
47.97
46.99
45.98
45.11
44.32
43.4
42.14
40.5
38.63
36.81
35.32
34.31
33.7
33.2
32.4
30.9
28.5
25.25
21.43
17.46
13.74
10.4
7.34
4.2
0.56
-3.83
-8.98
-14.53
-20.0
-24.87
-28.88
-32.09
-34.9
-37.97
-41.97
-47.4
-54.26
-61.92
-69.12
-74.13
-75.26
-71.36
-62.22
-48.76
-32.73
-16.21
-1.02
11.81
22.03
29.98
36.2
41.06
44.63
46.88
47.84
47.74
46.99
45.96
44.86
43.67
42.25
40.54
38.62
36.77
35.29
34.38
34.0
33.8
33.26
31.85
29.22
25.34
20.56
15.46
10.71
6.77
3.71
1.23
-1.3
-4.46
-8.61
-13.71
-19.33
-24.82
-29.7
-33.76
-37.27
-40.81
-45.08
-50.63
-57.66
-65.87
-74.37
-81.7
-86.05
-85.7
-79.59
-67.73
-51.35
-32.61
-13.89
2.86
16.59
27.17
35.11
41.0
45.3
48.26
50.01
50.75
50.74
50.28
49.52
48.51
47.14
45.37
43.27
41.09
39.2
37.89
37.27
37.15
37.16
36.8
35.69
33.63
30.67
27.05
23.11
19.17
15.45
11.96
8.53
4.9
0.73
-4.14
-9.71
-15.7
-21.67
-27.12
-31.69
-35.28
-38.12
-40.7
-43.7
-47.8
-53.47
-60.76
-69.11
-77.2
-83.16
-85.05
-81.39
-71.78
-57.09
-39.28
-20.73
-3.57
10.88
22.22
30.77
37.09
41.69
44.88
46.82
47.68
47.71
47.23
46.49
45.65
44.69
43.57
42.23
40.69
39.09
37.63
36.47
35.64
35.06
34.45
33.45
31.71
29.06
25.54
21.43
17.13
13.02
9.26
5.73
2.08
-2.01
-6.73
-12.0
-17.52
-22.91
-27.84
-32.17
-35.94
-39.33
-42.64
-46.22
-50.46
-55.78
-62.36
-69.94
-77.63
-83.88
-86.83
-84.88
-77.3
-64.56
-48.28
-30.69
-13.92
0.53
12.12
21.05
27.84
33.04
36.94
39.64
41.2
41.79
41.68
41.19
40.5
39.66
38.6
37.25
35.69
34.12
32.83
31.97
31.47
30.99
30.05
28.28
25.54
22.05
18.21
14.47
11.06
7.9
4.69
1.04
-3.32
-8.33
-13.66
-18.83
-23.41
-27.22
-30.47
-33.64
-37.38
-42.24
-48.5
-55.93
-63.75
-70.61
-74.78
-74.65
-69.21
-58.54
-43.82
-27.1
-10.64
3.78
15.33
24.04
30.52
35.45
39.23
41.94
43.55
44.11
43.9
43.37
42.9
42.66
42.54
42.28
41.6
40.43
38.9
37.32
36.0
35.06
34.39
33.64
32.38
30.21
26.98
22.83
18.13
13.38
9.01
5.25
2.03
-0.94
-4.02
-7.58
-11.75
-16.49
-21.53
-26.49
-30.99
-34.78
-37.87
-40.59
-43.53
-47.36
-52.63
-59.45
-67.26
-74.82
-80.37
-82.04
-78.45
-69.24
-55.23
-38.23
-20.51
-4.09
9.74
20.59
28.72
34.72
39.13
42.27
44.35
45.53
46.07
46.23
46.2
46.03
45.59
44.71
43.31
41.51
39.64
38.04
36.98
36.47
36.23
35.85
34.9
33.18
30.73
27.81
24.8
22.03
19.66
17.67
15.86
13.91
11.57
8.7
5.37
1.78
-1.85
-5.41
-8.99
-12.81
-17.08
-21.9
-27.08
-32.26
-37.0
-41.05
-44.41
-47.42
-50.62
-54.58
-59.72
-66.1
-73.28
-80.21
-85.35
-86.9
-83.43
-74.31
-60.15
-42.71
-24.32
-7.21
7.19
18.44
26.91
33.29
38.14
41.72
44.08
45.31
45.66
45.54
45.33
45.23
45.19
44.98
44.4
43.35
41.99
40.63
39.58
39.01
38.83
38.71
38.21
36.97
34.85
32.04
28.86
25.71
22.75
19.95
17.07
13.85
10.17
6.11
1.93
-2.04
-5.57
-8.56
-11.14
-13.55
-16.1
-19.05
-22.53
-26.45
-30.54
-34.48
-38.07
-41.28
-44.36
-47.73
-51.88
-57.2
-63.8
-71.31
-78.76
-84.59
-86.97
-84.38
-76.14
-62.85
-46.22
-28.63
-12.3
1.28
11.69
19.33
24.96
29.26
32.56
34.91
36.28
36.75
36.58
36.07
35.5
34.95
34.33
33.47
32.22
30.55
28.61
26.59
24.67
22.94
21.35
19.78
18.1
16.24
14.18
11.96
9.69
7.42
5.26
3.28
1.48
-0.15
-1.79
-3.63
-5.9
-8.74
-12.18
-16.13
-20.43
-24.92
-29.45
-33.9
-38.21
-42.33
-46.29
-50.23
-54.31
-58.56
-62.71
-65.96
-67.15
-65.05
-58.85
-48.53
-35.02
-19.95
-5.12
8.03
18.81
27.22
33.7
38.7
42.43
44.86
45.86
45.54
44.26
42.64
41.21
40.24
39.6
38.91
37.78
36.08
34.01
32.0
30.46
29.53
29.09
28.71
27.94
26.46
24.15
21.13
17.68
14.15
10.84
7.88
5.2
2.49
-0.65
-4.54
-9.27
-14.65
-20.27
-25.66
-30.49
-34.68
-38.42
-42.07
-46.05
-50.69
-56.12
-62.19
-68.35
-73.65
-76.72
-76.14
-70.82
-60.44
-45.75
-28.44
-10.73
5.3
18.3
27.88
34.45
38.85
41.81
43.76
44.83
45.05
44.55
43.66
42.83
42.4
42.46
42.79
43.05
42.91
42.26
41.28
40.29
39.55
39.12
38.8
38.19
36.94
34.87
32.05
28.77
25.33
21.93
18.66
15.46
12.22
8.8
5.11
1.03
-3.44
-8.28
-13.31
-18.28
-22.94
-27.12
-30.81
-34.2
-37.6
-41.35
-45.78
-51.01
-56.95
-63.11
-68.61
-72.2
-72.53
-68.58
-59.97
-47.25
-31.8
-15.51
-0.22
12.73
22.74
29.93
34.83
38.12
40.32
41.74
42.5
42.7
42.44
41.89
41.22
40.51
39.75
38.89
37.93
36.97
36.24
35.98
36.31
37.18
38.3
39.32
39.95
40.12
39.94
39.63
39.34
39.09
38.76
38.16
37.13
35.63
33.78
31.7
29.51
27.22
24.75
21.96
18.73
15.11
11.26
7.53
4.22
1.54
-0.6
-2.59
-4.99
-8.35
-13.08
-19.31
-26.91
-35.55
-44.78
-54.07
-62.85
-70.58
-76.81
-81.26
-83.81
-84.43
-83.1
-79.85
-74.74
-68.02
-60.09
-51.44
-42.43
-33.19
-23.79
-14.32
-5.16
3.08
9.77
14.65
18.01
20.61
23.27
26.36
29.6
32.14
33.02
31.66
28.16
23.2
17.67
12.27
7.21
2.28
-2.94
-8.76
-15.17
-21.81
-28.13
-33.67
-38.24
-41.98
-45.38
-49.08
-53.77
-59.98
-67.79
-76.61
-85.01
-90.85
-91.85
-86.26
-73.64
-55.19
-33.39
-11.24
8.75
25.16
37.74
47.03
53.76
58.46
61.36
62.65
62.61
61.7
60.4
58.99
57.5
55.74
53.52
50.84
47.93
45.16
42.86
41.08
39.58
37.86
35.38
31.76
27.01
21.44
15.61
10.02
4.9
0.16
-4.58
-9.76
-15.57
-21.87
-28.24
-34.16
-39.33
-43.74
-47.79
-52.05
-57.16
-63.55
-71.17
-79.34
-86.64
-91.17
-91.06
-85.15
-73.47
-57.37
-39.08
-21.0
-4.96
8.18
18.44
26.33
32.43
37.07
40.38
42.38
43.24
43.2
42.56
41.58
40.42
39.11
37.68
36.24
34.95
34.08
33.79
34.12
34.89
35.7
36.02
35.37
33.48
30.42
26.57
22.5
18.74
15.51
12.67
9.75
6.2
1.67
-3.82
-9.9
-16.04
-21.73
-26.74
-31.05
-34.88
-38.58
-42.62
-47.51
-53.76
-61.57
-70.53
-79.37
-86.1
-88.5
-84.91
-74.99
-59.86
-41.81
-23.43
-6.76
7.22
18.52
27.68
35.24
41.43
46.25
49.68
51.87
53.13
53.76
53.9
53.46
52.24
50.16
47.34
44.11
40.96
38.32
36.41
35.23
34.58
34.12
33.49
32.36
30.58
28.09
25.01
21.49
17.74
13.98
10.35
6.95
3.7
0.4
-3.24
-7.49
-12.42
-17.87
-23.42
-28.62
-33.1
-36.75
-39.74
-42.52
-45.65
-49.73
-55.22
-62.24
-70.31
-78.23
-84.24
-86.36
-83.11
-74.02
-59.95
-42.8
-24.93
-8.35
5.72
17.03
26.0
33.19
39.06
43.74
47.23
49.53
50.77
51.23
51.21
50.88
50.26
49.24
47.74
45.83
43.76
41.86
40.42
39.54
39.04
38.49
37.42
35.43
32.42
28.56
24.29
20.09
16.34
13.15
10.27
7.25
3.57
-1.1
-6.73
-12.91
-19.02
-24.46
-28.98
-32.72
-36.2
-40.11
-45.08
-51.46
-59.19
-67.67
-75.66
-81.49
-83.4
-80.07
-71.18
-57.59
-41.14
-24.05
-8.25
5.12
15.84
24.26
30.95
36.32
40.51
43.48
45.22
45.83
45.55
44.7
43.59
42.39
41.16
39.85
38.41
36.83
35.29
34.01
33.17
32.77
32.56
32.09
30.87
28.58
25.22
21.11
16.75
12.64
9.07
6.03
3.21
0.15
-3.58
-8.2
-13.6
-19.4
-25.04
-30.04
-34.17
-37.57
-40.7
-44.22
-48.77
-54.79
-62.34
-70.89
-79.24
-85.68
-88.32
-85.66
-77.21
-63.61
-46.6
-28.4
-11.08
3.97
16.23
25.82
33.19
38.79
42.98
45.95
47.89
48.99
49.46
49.47
49.11
48.4
47.37
46.11
44.8
43.63
42.81
42.42
42.31
42.22
41.79
40.74
38.97
36.59
33.82
30.9
27.92
24.86
21.54
17.81
13.64
9.14
4.61
0.33
-3.56
-7.14
-10.73
-14.71
-19.39
-24.77
-30.52
-36.16
-41.26
-45.56
-49.2
-52.57
-56.24
-60.82
-66.81
-74.33
-82.88
-91.13
-97.07
-98.48
-93.73
-82.49
-65.93
-46.4
-26.61
-8.73
6.16
17.98
27.28
34.68
40.6
45.23
48.73
51.28
53.15
54.52
55.44
55.82
55.57
54.68
53.36
51.96
50.84
50.29
50.39
51.0
51.75
52.2
51.89
50.58
48.21
45.06
41.54
38.07
34.9
31.92
28.81
25.14
20.71
15.65
10.46
5.71
1.76
-1.42
-4.29
-7.46
-11.37
-16.12
-21.37
-26.61
-31.37
-35.46
-39.0
-42.39
-46.22
-51.06
-57.35
-65.08
-73.6
-81.48
-86.76
-87.45
-82.27
-71.17
-55.52
-37.6
-19.95
-4.53
7.76
17.0
23.85
29.11
33.28
36.56
38.91
40.39
41.15
41.46
41.55
41.54
41.38
40.97
40.24
39.25
38.2
37.32
36.8
36.63
36.58
36.3
35.33
33.3
30.05
25.7
20.63
15.39
10.52
6.34
2.83
-0.36
-3.73
-7.74
-12.53
-17.85
-23.16
-27.85
-31.54
-34.28
-36.53
-39.0
-42.4
-47.21
-53.5
-60.82
-68.09
-73.77
-76.1
-73.67
-65.91
-53.36
-37.66
-21.01
-5.49
7.56
17.69
25.24
30.86
35.1
38.21
40.23
41.11
40.93
39.94
38.48
36.9
35.45
34.22
33.21
32.36
31.67
31.2
30.99
31.04
31.21
31.27
30.91
29.83
27.84
24.9
21.15
16.88
12.43
8.12
4.12
0.41
-3.16
-6.84
-10.8
-15.12
-19.76
-24.55
-29.25
-33.65
-37.59
-41.04
-44.12
-47.11
-50.39
-54.42
-59.54
-65.83
-72.88
-79.67
-84.61
-85.91
-82.12
-72.71
-58.42
-41.09
-23.11
-6.63
7.04
17.6
25.48
31.38
35.82
39.07
41.2
42.29
42.58
42.43
42.08
41.64
41.05
40.16
38.92
37.41
35.84
34.46
33.47
32.9
32.7
32.69
32.61
32.2
31.25
29.64
27.38
24.56
21.31
17.72
13.88
9.89
5.88
2.01
-1.66
-5.2
-8.78
-12.6
-16.74
-21.11
-25.45
-29.48
-32.99
-35.96
-38.62
-41.38
-44.77
-49.33
-55.4
-62.84
-70.76
-77.54
-81.13
-79.67
-72.25
-59.35
-42.74
-24.92
-8.24
5.74
16.54
24.51
30.33
34.56
37.48
39.2
39.88
39.84
39.48
39.12
38.87
38.57
37.98
36.94
35.48
33.85
32.38
31.32
30.75
30.51
30.28
29.65
28.3
26.01
22.82
18.99
14.87
10.89
7.26
4.01
0.91
-2.37
-6.09
-10.3
-14.74
-19.04
-22.84
-25.98
-28.6
-31.06
-33.83
-37.33
-41.9
-47.74
-54.8
-62.58
-69.99
-75.3
-76.63
-72.51
-62.62
-48.04
-30.97
-14.01
0.75
12.31
20.73
26.77
31.27
34.7
37.15
38.54
38.89
38.46
37.62
36.69
35.71
34.53
32.9
30.76
28.35
26.14
24.67
24.22
24.61
25.25
25.3
24.06
21.23
17.06
12.28
7.69
3.91
1.1
-1.08
-3.26
-6.06
-9.76
-14.23
-18.99
-23.51
-27.43
-30.78
-33.87
-37.21
-41.29
-46.53
-53.06
-60.58
-68.16
-74.23
-76.85
-74.37
-66.11
-52.79
-36.35
-19.37
-4.04
8.4
17.82
24.84
30.19
34.32
37.27
38.95
39.44
39.16
38.67
38.47
38.67
39.0
38.93
37.97
36.03
33.47
30.98
29.28
28.74
29.12
29.72
29.69
28.35
25.59
21.76
17.51
13.43
9.76
6.32
2.67
-1.68
-6.95
-12.97
-19.21
-24.98
-29.72
-33.23
-35.75
-37.88
-40.37
-43.93
-49.05
-55.93
-64.26
-73.09
-80.77
-85.24
-84.6
-77.81
-65.26
-48.66
-30.57
-13.44
1.13
12.68
21.61
28.62
34.26
38.69
41.87
43.81
44.72
45.01
45.07
45.1
45.08
44.79
43.99
42.59
40.77
38.9
37.43
36.68
36.63
36.9
36.88
35.96
33.79
30.43
26.31
22.03
18.11
14.78
11.93
9.16
5.98
2.01
-2.87
-8.47
-14.35
-19.96
-24.85
-28.9
-32.36
-35.85
-40.13
-45.88
-53.43
-62.46
-71.96
-80.22
-85.22
-85.09
-78.84
-66.68
-50.15
-31.65
-13.71
1.81
14.07
23.26
30.11
35.37
39.45
42.45
44.31
45.12
45.16
44.88
44.58
44.36
44.06
43.4
42.23
40.64
38.96
37.6
36.81
36.55
36.42
35.85
34.32
31.55
27.65
23.08
18.41
14.12
10.37
6.95
3.41
-0.71
-5.61
-11.12
-16.75
-21.96
-26.38
-30.0
-33.19
-36.5
-40.59
-45.98
-52.9
-61.05
-69.45
-76.47
-80.11
-78.66
-71.31
-58.56
-42.15
-24.5
-7.9
6.12
17.03
25.13
31.09
35.58
39.01
41.53
43.21
44.03
44.04
43.28
41.84
39.86
37.53
35.1
32.86
31.06
29.82
29.1
28.64
28.06
26.96
25.11
22.46
19.21
15.68
12.11
8.61
5.04
1.17
-3.21
-8.18
-13.57
-19.09
-24.38
-29.23
-33.61
-37.8
-42.28
-47.71
-54.62
-63.13
-72.59
-81.5
-87.76
-89.23
-84.56
-73.78
-58.38
-40.84
-23.76
-9.05
2.54
11.24
17.85
23.08
27.22
30.24
31.97
32.43
31.85
30.63
29.08
27.32
25.31
23.03
20.64
18.55
17.35
17.47
18.97
21.4
23.92
25.59
25.71
24.06
20.97
17.05
12.98
9.22
5.83
2.58
-0.96
-5.17
-10.18
-15.83
-21.69
-27.28
-32.2
-36.38
-40.07
-43.81
-48.27
-54.08
-61.54
-70.37
-79.59
-87.58
-92.45
-92.55
-87.06
-76.27
-61.53
-44.79
-28.03
-12.67
0.59
11.76
21.25
29.5
36.81
43.24
48.67
53.0
56.24
58.56
60.21
61.41
62.24
62.64
62.51
61.91
61.06
60.3
59.93
59.97
60.12
59.86
58.67
56.29
52.82
48.64
44.25
40.06
36.28
32.85
29.61
26.28
22.63
18.49
13.81
8.67
3.32
-1.92
-6.7
-10.88
-14.54
-18.03
-21.83
-26.47
-32.35
-39.63
-48.13
-57.11
-65.22
-70.75
-71.97
-67.79
-58.18
-44.35
-28.36
-12.47
1.55
12.84
21.5
28.17
33.56
38.14
42.0
45.04
47.15
48.35
48.76
48.6
47.97
46.94
45.51
43.74
41.8
39.99
38.61
37.86
37.7
37.82
37.69
36.69
34.4
30.72
26.03
20.97
16.26
12.32
9.08
6.07
2.66
-1.62
-6.83
-12.59
-18.32
-23.52
-27.95
-31.8
-35.52
-39.66
-44.72
-51.0
-58.48
-66.68
-74.58
-80.73
-83.52
-81.67
-74.68
-63.11
-48.42
-32.5
-17.13
-3.5
7.94
17.26
24.78
30.8
35.49
38.93
41.19
42.41
42.78
42.48
41.68
40.53
39.15
37.64
36.15
34.84
33.81
33.01
32.29
31.36
29.96
27.93
25.3
22.27
19.13
16.1
13.27
10.55
7.74
4.57
0.9
-3.32
-7.92
-12.65
-17.21
-21.43
-25.31
-29.07
-33.11
-37.88
-43.76
-50.77
-58.42
-65.55
-70.57
-71.84
-68.3
-59.84
-47.52
-33.15
-18.69
-5.63
5.34
14.27
21.61
27.82
33.08
37.34
40.45
42.36
43.19
43.18
42.61
41.67
40.49
39.13
37.71
36.42
35.49
35.06
35.15
35.53
35.87
35.79
34.99
33.36
30.92
27.81
24.22
20.34
16.38
12.49
8.78
5.24
1.75
-1.86
-5.78
-10.05
-14.62
-19.29
-23.82
-28.04
-31.92
-35.6
-39.4
-43.77
-49.15
-55.83
-63.72
-72.04
-79.38
-83.92
-84.0
-78.74
-68.39
-54.37
-38.68
-23.32
-9.68
1.67
10.82
18.17
24.1
28.88
32.67
35.63
37.9
39.7
41.12
42.18
42.86
43.1
42.93
42.51
42.1
41.95
42.23
42.89
43.65
44.11
43.85
42.66
40.63
38.07
35.36
32.74
30.27
27.79
25.13
22.23
19.19
16.24
13.55
11.09
8.66
5.91
2.58
-1.38
-5.81
-10.36
-14.67
-18.56
-22.06
-25.41
-29.01
-33.26
-38.55
-45.07
-52.7
-60.76
-67.97
-72.57
-72.81
-67.58
-56.96
-42.33
-25.94
-10.17
3.21
13.5
20.96
26.35
30.4
33.53
35.79
37.07
37.32
36.71
35.55
34.18
32.83
31.53
30.11
28.31
26.01
23.28
20.44
17.91
16.03
14.84
14.05
13.08
11.38
8.63
4.88
0.5
-4.06
-8.39
-12.29
-15.77
-18.95
-21.96
-24.94
-27.93
-30.94
-33.89
-36.65
-39.02
-40.91
-42.33
-43.5
-44.77
-46.6
-49.43
-53.54
-58.96
-65.22
-71.2
-75.24
-75.47
-70.56
-60.22
-45.53
-28.63
-12.0
2.37
13.53
21.55
27.14
31.13
34.06
36.12
37.34
37.72
37.44
36.75
35.85
34.82
33.61
32.16
30.49
28.74
27.2
26.14
25.63
25.5
25.34
24.64
23.02
20.4
17.04
13.47
10.23
7.58
5.42
3.31
0.67
-2.85
-7.27
-12.18
-17.0
-21.19
-24.55
-27.23
-29.73
-32.71
-36.82
-42.48
-49.68
-57.72
-65.2
-70.22
-70.89
-66.03
-55.71
-41.29
-25.02
-9.35
3.96
14.15
21.42
26.53
30.29
33.12
35.12
36.21
