11.47
8.22
4.65
1.03
-2.36
-5.38
-8.14
-10.98
-14.26
-18.2
-22.73
-27.49
-32.03
-35.95
-39.13
-41.8
-44.47
-47.87
-52.68
-59.25
-67.29
-75.61
-82.25
-84.97
-81.95
-72.53
-57.55
-39.12
-19.94
-2.4
12.01
22.84
30.49
35.67
39.01
40.95
41.78
41.76
41.21
40.45
39.65
38.81
37.79
36.42
34.66
32.69
30.8
29.34
28.49
28.25
28.44
28.74
28.81
28.31
26.99
24.69
21.4
17.29
12.66
7.92
3.43
-0.55
-3.99
-7.06
-10.09
-13.41
-17.24
-21.53
-26.01
-30.29
-34.04
-37.14
-39.78
-42.39
-45.52
-49.68
-55.16
-61.91
-69.39
-76.45
-81.4
-82.42
-78.02
-67.72
-52.34
-33.82
-14.68
2.78
17.1
27.87
35.44
40.53
43.77
45.53
46.02
45.47
44.25
42.79
41.47
40.39
39.44
38.29
36.65
34.44
31.81
29.15
26.89
25.34
24.51
24.15
23.78
22.92
21.24
18.67
15.43
11.92
8.55
5.58
3.0
0.56
-2.17
-5.58
-9.89
-14.96
-20.41
-25.69
-30.31
-34.09
-37.15
-39.92
-43.01
-47.0
-52.31
-59.1
-66.99
-75.04
-81.64
-84.83
-82.83
-74.64
-60.59
-42.32
-22.36
-3.32
12.79
25.06
33.59
39.1
42.45
44.3
45.04
44.86
43.97
42.64
41.19
39.85
38.67
37.52
36.18
34.51
32.58
30.72
29.33
28.74
28.95
29.62
30.12
29.78
28.15
25.14
21.01
16.32
11.63
7.4
3.78
0.61
-2.5
-6.07
-10.46
-15.67
-21.42
-27.12
-32.18
-36.26
-39.39
-42.02
-44.9
-48.85
-54.51
-61.99
-70.58
-78.69
-84.16
-84.78
-79.13
-67.11
-50.15
-30.7
-11.48
5.38
18.82
28.78
35.81
40.62
43.68
45.3
45.7
45.2
44.21
43.09
42.02
40.93
39.57
37.66
35.17
32.3
29.49
27.25
25.9
25.45
25.48
25.37
24.46
22.32
18.96
14.72
10.19
5.9
2.08
-1.37
-4.88
-8.87
-13.62
-19.05
-24.79
-30.32
-35.21
-39.34
-42.92
-46.51
-50.85
-56.65
-64.34
-73.68
-83.7
-92.58
-98.09
-98.21
-91.86
-79.35
-62.42
-43.64
-25.62
-10.18
1.93
10.94
17.55
22.43
26.0
28.41
29.76
30.21
30.0
29.4
28.58
27.6
26.52
25.46
24.65
24.41
24.91
26.15
27.83
29.46
30.54
30.69
29.81
28.07
25.79
23.22
20.47
17.46
13.98
9.86
5.11
-0.06
-5.33
-10.38
-15.06
-19.45
-23.89
-28.88
-35.02
-42.71
-51.93
-61.93
-71.2
-77.79
-79.81
-76.13
-66.75
-52.87
-36.44
-19.53
-3.8
9.77
20.87
29.63
36.4
41.56
45.48
48.47
50.77
52.51
53.7
54.27
54.15
53.33
51.95
50.3
48.77
47.72
47.36
47.59
48.06
48.19
47.47
45.55
42.46
38.49
34.11
29.73
25.54
21.43
17.08
12.14
6.39
-0.13
-7.09
-13.98
-20.37
-26.0
-31.01
-35.88
-41.33
-48.09
-56.58
-66.57
-76.98
-85.94
-91.18
-90.72
-83.59
-70.21
-52.34
-32.5
-13.19
3.8
17.67
28.48
36.77
43.15
48.11
51.97
54.97
57.3
59.12
60.48
61.31
61.48
60.82
59.28
56.96
54.18
51.38
48.98
47.22
46.02
45.05
43.8
41.78
38.75
34.76
30.12
25.31
20.76
16.74
13.22
9.92
6.38
2.18
-2.88
-8.65
-14.72
-20.56
-25.79
-30.33
-34.45
-38.63
-43.48
-49.55
-57.17
-66.2
-75.77
-84.33
-89.81
-90.29
-84.65
-73.08
-57.08
-38.94
-20.98
-4.87
8.62
19.5
28.14
34.92
40.11
43.89
46.44
48.03
48.93
49.35
49.39
49.05
48.31
47.19
45.77
44.26
42.86
41.8
41.2
41.02
41.0
40.74
39.75
37.69
34.43
30.16
25.35
20.53
16.14
12.33
8.92
5.51
1.65
-2.95
-8.25
-14.0
-19.75
-25.1
-29.83
-34.01
-37.93
-42.04
-46.85
-52.76
-59.94
-68.12
-76.39
-83.23
-86.75
-85.32
-78.1
-65.52
-49.19
-31.42
-14.46
0.17
11.92
21.01
28.04
33.55
37.85
41.06
43.29
44.74
45.64
46.19
46.42
46.21
45.35
43.75
41.55
39.15
37.09
35.84
35.5
35.73
35.89
35.24
33.29
30.05
25.92
21.54
17.4
13.68
10.22
6.61
2.48
-2.33
-7.73
-13.38
-18.84
-23.75
-27.97
-31.57
-34.93
-38.58
-43.14
-49.08
-56.52
-64.95
-73.14
-79.33
-81.63
-78.68
-70.11
-56.77
-40.51
-23.52
-7.76
5.58
16.18
24.35
30.67
35.67
39.65
42.72
44.88
46.17
46.71
46.66
46.18
45.38
44.32
43.03
41.6
40.17
38.94
38.07
37.62
37.5
37.46
37.17
36.26
34.47
31.75
28.19
24.1
19.8
15.62
11.74
8.2
4.89
1.63
-1.82
-5.59
-9.74
-14.17
-18.7
-23.06
-27.04
-30.5
-33.46
-36.15
-38.96
-42.42
-47.1
-53.38
-61.13
-69.53
-76.94
-81.39
-81.11
-75.24
-64.2
-49.55
-33.49
-18.08
-4.69
6.21
14.81
21.63
27.1
31.47
34.83
37.26
38.9
39.97
40.67
41.14
41.37
41.24
40.65
39.65
38.46
37.47
37.01
37.2
37.79
38.24
37.98
36.65
34.25
31.15
27.84
24.74
21.96
19.4
16.74
13.71
10.19
6.29
2.29
-1.51
-4.92
-7.96
-10.88
-14.04
-17.7
-21.9
-26.42
-30.83
-34.74
-37.97
-40.64
-43.11
-45.91
-49.58
-54.59
-61.09
-68.73
-76.45
-82.53
-84.96
-82.13
-73.53
-60.02
-43.61
-26.76
-11.52
1.01
10.68
17.94
23.37
27.36
30.11
31.78
32.67
33.15
33.5
33.86
34.16
34.25
34.02
33.51
32.86
32.27
31.91
31.82
31.97
32.18
32.15
31.58
30.2
27.93
24.87
21.28
17.48
13.75
10.26
7.04
4.08
1.3
-1.45
-4.38
-7.72
-11.6
-15.92
-20.38
-24.56
-28.15
-31.13
-33.8
-36.69
-40.4
-45.4
-51.88
-59.61
-67.77
-74.97
-79.46
-79.54
-74.2
-63.55
-48.91
-32.43
-16.37
-2.4
8.77
17.28
23.75
28.84
32.9
36.05
38.25
39.52
39.96
39.72
38.98
37.87
36.52
35.05
33.6
32.33
31.37
30.78
30.54
30.51
30.47
30.13
29.27
27.75
25.62
23.1
20.42
17.77
15.16
12.5
9.66
6.6
3.42
0.27
-2.77
-5.79
-9.01
-12.7
-16.99
-21.75
-26.64
-31.26
-35.28
-38.67
-41.68
-44.85
-48.82
-54.15
-61.12
-69.45
-78.13
-85.49
-89.48
-88.34
-81.2
-68.48
-51.86
-33.73
-16.43
-1.57
10.23
19.2
25.98
31.18
35.16
38.09
40.1
41.39
42.23
42.82
43.24
43.37
43.04
42.13
40.79
39.36
38.29
37.91
38.21
38.87
39.36
39.13
37.91
35.74
32.94
29.94
27.03
24.32
21.63
18.68
15.22
11.23
6.92
2.67
-1.21
-4.59
-7.66
-10.81
-14.45
-18.79
-23.68
-28.74
-33.47
-37.5
-40.81
-43.66
-46.61
-50.32
-55.4
-62.12
-70.14
-78.35
-84.9
-87.62
-84.76
-75.68
-61.15
-43.21
-24.46
-7.26
6.99
17.94
26.06
32.11
36.7
40.17
42.65
44.29
45.28
45.88
46.24
46.37
46.12
45.33
44.0
42.35
40.81
39.83
39.66
40.23
41.13
41.75
41.55
40.25
37.87
34.74
31.28
27.85
24.53
21.24
17.78
14.02
9.99
5.9
2.0
-1.57
-4.91
-8.3
-12.1
-16.52
-21.5
-26.68
-31.59
-35.86
-39.41
-42.44
-45.46
-48.99
-53.52
-59.37
-66.55
-74.59
-82.36
-88.1
-89.8
-85.83
-75.61
-60.01
-41.14
-21.69
-4.06
10.32
21.14
28.94
34.51
38.53
41.35
43.12
43.97
44.14
43.95
43.67
43.45
43.22
42.83
42.14
41.16
40.07
39.1
38.47
38.25
38.28
38.27
37.85
36.68
34.51
31.3
27.21
22.59
17.87
13.46
9.55
6.05
2.57
-1.3
-5.91
-11.24
-16.98
-22.61
-27.65
-31.86
-35.35
-38.46
-41.64
-45.31
-49.78
-55.3
-61.94
-69.47
-76.98
-82.9
-85.21
-82.17
-72.99
-58.37
-40.36
-21.63
-4.59
9.35
19.93
27.7
33.45
37.77
40.89
42.83
43.66
43.63
43.12
42.48
41.94
41.52
41.13
40.64
39.99
39.18
38.28
37.37
36.51
35.68
34.85
33.93
32.79
31.26
29.18
26.4
22.91
18.85
14.48
10.14
6.07
2.39
-1.04
-4.48
-8.23
-12.52
-17.37
-22.59
-27.85
-32.83
-37.34
-41.38
-45.1
-48.83
-52.98
-58.01
-64.33
-72.02
-80.47
-88.28
-93.29
-93.31
-86.9
-74.05
-56.38
-36.57
-17.43
-1.0
11.91
21.58
28.81
34.33
38.56
41.64
43.64
44.77
45.36
45.72
45.97
46.06
45.8
45.07
43.92
42.54
41.27
40.38
39.98
39.99
40.13
40.0
39.22
37.55
34.92
31.47
27.44
23.14
18.81
14.66
10.77
7.13
3.63
0.13
-3.56
-7.62
-12.11
-16.96
-21.92
-26.72
-31.13
-35.08
-38.71
-42.29
-46.2
-50.86
-56.66
-63.82
-72.09
-80.5
-87.31
-90.36
-87.77
-78.73
-63.94
-45.41
-25.87
-7.79
7.28
18.91
27.51
33.83
38.52
42.01
44.5
46.19
47.28
48.01
48.54
48.9
48.98
48.67
47.92
46.85
45.71
44.78
44.21
43.96
43.76
43.25
42.14
40.3
37.76
34.67
31.17
27.32
23.13
18.64
13.98
9.43
5.26
1.6
-1.65
-4.8
-8.26
-12.3
-16.96
-22.01
-27.09
-31.79
-35.88
-39.36
-42.48
-45.69
-49.62
-54.91
-61.89
-70.31
-79.05
-86.19
-89.49
-87.11
-78.31
-63.88
-45.89
-27.0
-9.61
4.84
15.99
24.32
30.6
35.44
39.09
41.56
42.86
43.17
42.81
42.16
41.46
40.8
40.05
39.09
37.86
36.44
35.07
34.03
33.52
33.57
33.91
34.07
33.48
31.72
28.68
24.67
20.27
16.13
12.65
9.78
7.11
4.06
0.15
-4.72
-10.27
-15.97
-21.32
-25.97
-29.91
-33.35
-36.69
-40.37
-44.85
-50.5
-57.5
-65.51
-73.49
-79.69
-82.06
-78.95
-69.84
-55.64
-38.48
-20.97
-5.29
7.4
17.03
24.25
29.86
34.36
37.89
40.35
41.72
42.14
41.91
41.36
40.71
40.07
39.44
38.79
38.16
37.64
37.29
37.11
36.98
36.7
36.04
34.89
33.23
31.13
28.67
25.87
22.71
19.21
15.44
11.65
8.04
4.72
1.58
-1.69
-5.43
-9.82
-14.72
-19.72
-24.33
-28.24
-31.4
-34.11
-36.86
-40.12
-44.35
-49.83
-56.69
-64.68
-73.05
-80.36
-84.73
-84.35
-78.14
-66.28
-50.26
-32.44
-15.29
-0.58
10.98
19.63
26.11
31.21
35.37
38.75
41.36
43.21
44.43
45.18
45.6
45.7
45.4
44.63
43.47
42.14
40.94
40.13
39.75
39.6
39.31
38.5
36.92
34.53
31.51
28.08
24.44
20.67
16.82
12.93
9.11
5.51
2.25
-0.7
-3.57
-6.7
-10.41
-14.81
-19.68
-24.6
-29.1
-32.88
-35.97
-38.71
-41.62
-45.28
-50.16
-56.5
-64.24
-72.7
-80.52
-85.8
-86.57
-81.47
-70.35
-54.49
-36.18
-18.01
-2.02
10.78
20.39
27.43
32.67
36.65
39.63
41.75
43.11
43.91
44.33
44.51
44.45
44.04
43.19
41.9
40.35
38.82
37.62
36.9
36.6
36.48
36.18
35.35
33.76
31.31
28.07
24.21
20.01
15.74
11.7
8.06
4.85
1.96
-0.83
-3.8
-7.19
-11.09
-15.47
-20.08
-24.61
-28.74
-32.29
-35.3
-38.08
-41.18
-45.26
-50.86
-58.14
-66.6
-74.9
-81.04
-82.87
-78.88
-68.82
-53.94
-36.59
-19.4
-4.4
7.51
16.5
23.33
28.73
33.09
36.41
38.6
39.64
39.78
39.41
38.89
38.38
37.82
37.06
35.98
34.67
33.38
32.46
32.12
32.31
32.65
32.6
31.65
29.54
26.37
22.57
18.66
15.07
12.01
9.33
6.68
3.59
-0.29
-5.06
-10.52
-16.19
-21.51
-26.04
-29.62
-32.47
-35.11
-38.23
-42.49
-48.3
-55.63
-63.77
-71.36
-76.56
-77.57
-73.23
-63.48
-49.48
-33.24
-16.99
-2.48
9.37
18.5
25.33
30.48
34.37
37.29
39.36
40.68
41.37
41.54
41.25
40.54
39.45
38.06
36.54
35.11
33.97
33.23
32.89
32.79
32.69
32.34
31.47
29.9
27.55
24.45
20.76
16.75
12.74
9.07
5.96
3.42
1.27
-0.86
-3.39
-6.64
-10.67
-15.2
-19.83
-24.1
-27.8
-30.97
-33.92
-37.11
-40.99
-45.93
-52.19
-59.7
-67.91
-75.57
-80.92
-82.03
-77.59
-67.41
-52.65
-35.45
-18.19
-2.74
9.94
19.79
27.25
32.88
37.09
40.13
42.19
43.44
44.09
44.28
44.05
43.41
42.37
41.04
39.6
38.27
37.26
36.66
36.43
36.42
36.43
36.21
35.58
34.39
32.55
30.05
26.92
23.26
19.25
15.08
10.98
7.1
3.49
0.06
-3.34
-6.92
-10.86
-15.15
-19.67
-24.18
-28.43
-32.28
-35.8
-39.21
-42.87
-47.18
-52.53
-59.1
-66.67
-74.43
-80.9
-84.21
-82.65
-75.36
-62.76
-46.53
-29.03
-12.52
1.57
12.84
21.72
28.85
34.71
39.38
42.73
44.68
45.39
45.26
44.76
44.2
43.66
42.97
41.92
40.41
38.57
36.72
35.26
34.49
34.43
34.81
35.1
34.68
33.06
30.07
25.91
21.08
16.22
11.86
8.25
5.27
2.54
-0.41
-3.97
-8.29
-13.23
-18.41
-23.41
-27.85
-31.62
-34.89
-38.08
-41.75
-46.44
-52.46
-59.75
-67.67
-74.97
-79.93
-80.8
-76.37
-66.48
-52.2
-35.58
-18.9
-4.03
8.09
17.4
24.38
29.58
33.39
35.98
37.51
38.22
38.46
38.56
38.64
38.61
38.22
37.28
35.81
34.13
32.72
32.01
32.14
32.86
33.54
33.43
31.95
28.93
24.68
19.83
15.08
10.88
7.34
4.17
0.89
-2.94
-7.5
-12.66
-18.04
-23.15
-27.63
-31.41
-34.7
-37.93
-41.65
-46.41
-52.51
-59.85
-67.65
-74.49
-78.52
-77.97
-71.84
-60.4
-45.15
-28.41
-12.42
1.28
12.19
20.61
27.14
32.24
36.04
38.52
39.76
40.1
40.03
39.93
39.94
39.83
39.28
38.08
36.33
34.42
32.84
31.91
31.64
31.68
31.46
30.44
28.33
25.13
21.14
16.78
12.41
8.19
4.09
-0.06
-4.39
-8.93
-13.56
-18.06
-22.26
-26.11
-29.68
-33.21
-37.07
-41.63
-47.28
-54.19
-62.13
-70.26
-77.14
-80.98
-80.13
-73.74
-62.06
-46.53
-29.27
-12.47
2.23
14.08
23.12
29.87
34.95
38.82
41.73
43.78
45.01
45.48
45.27
44.46
43.15
41.47
39.58
37.69
36.0
34.66
33.71
33.07
32.5
31.7
30.37
28.31
25.53
22.23
18.74
15.32
12.02
8.63
4.85
0.43
-4.61
-9.98
-15.22
-19.96
-24.11
-27.9
-31.84
-36.49
-42.33
-49.53
-57.79
-66.18
-73.19
-77.0
-76.02
-69.48
-57.79
-42.56
-26.02
-10.36
2.96
13.45
21.39
27.41
32.07
35.67
38.28
39.89
40.58
40.49
39.8
38.63
37.08
35.29
33.39
31.62
30.2
29.26
28.83
28.74
28.71
28.38
27.45
25.74
23.26
20.16
16.63
12.83
8.83
4.6
0.1
-4.65
-9.55
-14.43
-19.17
-23.75
-28.34
-33.24
-38.88
-45.6
-53.41
-61.77
-69.48
-74.83
-76.08
-72.03
-62.57
-48.77
-32.63
-16.36
-1.75
10.23
19.5
26.51
31.85
35.92
38.92
40.86
41.8
41.88
41.32
40.37
39.2
37.93
36.56
35.11
33.64
32.24
30.97
29.84
28.78
27.58
26.08
24.15
21.75
18.87
15.51
11.64
7.22
2.31
-2.89
-8.1
-13.02
-17.42
-21.3
-24.88
-28.53
-32.71
-37.88
-44.32
-51.96
-60.17
-67.67
-72.7
-73.51
-68.96
-59.02
-44.87
-28.55
-12.29
2.18
13.95
22.96
29.68
34.63
38.19
40.51
41.65
41.77
41.1
40.0
38.77
37.54
36.34
35.1
33.82
32.63
31.73
31.29
31.25
31.28
30.92
29.67
27.32
23.96
19.96
15.84
11.94
8.36
4.95
1.36
-2.72
-7.44
-12.71
-18.21
-23.54
-28.4
-32.71
-36.68
-40.8
-45.67
-51.75
-59.07
-66.89
-73.74
-77.65
-76.76
-70.05
-57.8
-41.61
-23.89
-7.08
7.1
17.98
25.78
31.18
34.82
37.12
38.31
38.57
38.15
37.33
36.35
35.32
34.24
33.07
31.85
30.72
29.9
29.53
29.61
29.92
30.09
29.67
28.34
25.99
22.74
18.91
14.81
10.58
6.22
1.61
-3.33
-8.49
-13.59
-18.23
-22.12
-25.2
-27.74
-30.25
-33.4
-37.85
-43.96
-51.62
-59.96
-67.42
-72.05
-72.06
-66.45
-55.48
-40.6
-24.04
-8.07
5.7
16.51
24.51
30.21
34.2
36.83
38.26
38.62
38.12
37.13
36.04
35.14
34.48
33.95
33.34
32.53
31.61
30.8
30.35
30.31
30.52
30.55
29.88
28.11
25.12
21.18
16.8
12.59
8.98
6.0
3.33
0.42
-3.2
-7.66
-12.68
-17.72
-22.22
-25.91
-28.88
-31.55
-34.54
-38.46
-43.77
-50.61
-58.5
-66.27
-72.12
-74.04
-70.52
-61.18
-47.06
-30.32
-13.44
1.58
13.73
22.97
29.82
34.79
38.16
39.98
40.34
39.57
38.21
36.83
35.71
34.85
33.92
32.6
30.78
28.67
26.7
25.3
24.72
24.8
25.09
24.93
23.8
21.46
18.13
14.33
10.65
7.48
4.84
2.35
-0.53
-4.23
-8.85
-14.08
-19.35
-24.1
-28.03
-31.22
-34.1
-37.32
-41.56
-47.33
-54.72
-63.26
-71.77
-78.42
-81.18
-78.44
-69.6
-55.46
-38.0
-19.78
-3.15
10.45
20.63
27.78
32.67
35.94
37.93
38.75
38.48
37.31
35.53
33.44
31.22
28.97
26.7
24.51
22.59
21.18
20.45
20.34
20.56
20.67
20.27
19.13
17.28
14.93
12.32
9.58
6.68
3.45
-0.24
-4.44
-9.01
-13.68
-18.19
-22.34
-26.09
-29.56
-33.06
-37.0
-41.82
-47.84
-55.0
-62.57
-69.12
-72.74
-71.66
-64.92
-52.88
-37.17
-20.15
-4.12
9.36
19.73
27.24
32.48
35.92
37.82
38.28
37.49
35.86
33.93
32.25
31.04
30.23
29.52
28.61
27.45
26.27
25.48
25.43
26.16
27.26
28.05
27.82
26.13
23.0
18.88
14.48
10.39
6.88
3.76
0.54
-3.29
-8.01
-13.49
-19.24
-24.65
-29.3
-33.1
-36.39
-39.68
-43.59
-48.65
-55.17
-63.06
-71.65
-79.53
-84.71
-85.16
-79.5
-67.7
-51.2
-32.49
-14.25
1.52
13.96
23.23
30.04
35.12
38.89
41.44
42.82
43.17
42.79
42.08
41.37
40.8
40.26
39.57
38.55
37.21
35.76
34.57
33.93
33.88
34.09
33.97
32.94
30.65
27.22
23.1
18.93
15.27
12.33
9.93
7.59
4.75
0.97
-3.83
-9.34
-15.0
-20.21
-24.61
-28.23
-31.44
-34.9
-39.26
-45.03
-52.4
-61.09
-70.16
-78.05
-82.76
-82.41
-75.89
-63.34
-46.27
-27.1
-8.41
7.86
20.82
30.53
37.63
42.81
46.54
49.05
50.51
51.14
51.29
51.3
51.36
51.5
51.59
51.46
51.11
50.66
50.36
50.46
51.07
52.12
53.33
54.34
54.78
54.4
53.1
50.96
48.25
45.31
42.47
39.87
37.44
34.83
31.61
27.42
22.22
16.34
10.35
4.77
-0.13
-4.56
-9.03
-14.2
-20.68
-28.81
-38.68
-50.06
-62.27
-74.13
-83.97
-89.91
-90.43
-85.03
-74.5
-60.8
-46.47
-33.72
-23.85
-17.02
-12.55
-9.49
-7.09
-5.08
-3.46
-2.35
-1.7
-1.29
-0.84
-0.19
0.68
1.66
2.69
3.9
5.59
8.08
11.47
15.47
19.41
22.49
24.05
23.91
22.33
19.93
17.29
14.74
12.25
9.46
5.98
1.58
-3.63
-9.24
-14.71
-19.54
-23.49
-26.68
-29.55
-32.77
-37.1
-43.14
-51.01
-60.1
-68.9
-75.22
-76.75
-71.89
-60.41
-43.71
-24.42
-5.5
10.69
22.97
31.44
36.94
40.44
42.6
43.66
43.68
42.75
41.21
39.55
38.18
37.28
36.67
35.98
34.89
33.34
31.6
30.09
29.23
29.09
29.42
29.66
29.17
27.5
24.56
20.57
16.05
11.55
7.47
3.91
0.68
-2.62
-6.42
-10.96
-16.24
-21.97
-27.7
-32.93
-37.27
-40.62
-43.18
-45.46
-48.21
-52.18
-57.96
-65.61
-74.41
-82.76
-88.49
-89.39
-83.98
-72.11
-55.15
-35.54
-16.03
1.2
15.03
25.41
32.99
38.54
42.6
45.41
47.03
47.57
47.29
46.51
45.53
44.51
43.44
42.27
40.92
39.44
37.98
36.77
35.95
35.52
35.26
34.8
33.81
32.06
29.55
26.43
22.89
19.1
15.16
11.17
7.25
3.54
0.1
-3.1
-6.29
-9.73
-13.66
-18.12
-22.93
-27.77
-32.27
-36.19
-39.46
-42.24
-44.9
-47.96
-52.08
-57.85
-65.52
-74.53
-83.39
-89.78
-91.2
-85.89
-73.56
-55.68
-35.01
-14.62
3.08
16.98
27.21
34.57
39.94
43.9
46.62
48.14
48.59
48.25
47.51
46.65
45.79
44.85
43.72
42.32
40.71
39.04
37.51
36.29
35.41
34.8
34.21
33.35
31.96
29.83
26.93
23.38
19.39
15.22
11.07
7.04
3.13
-0.76
-4.72
-8.89
-13.35
-18.1
-23.02
-27.86
-32.29
-36.06
-39.13
-41.76
-44.48
-48.0
-52.93
-59.63
-67.84
-76.57
-84.07
-88.23
-87.05
-79.45
-65.67
-47.35
-27.06
-7.48
9.37
22.56
32.19
38.95
43.6
46.65
48.29
48.64
47.85
46.25
44.24
42.18
40.26
38.49
36.79
35.12
33.56
32.36
31.73
31.77
32.26
32.68
32.37
30.77
27.67
23.31
18.3
13.42
9.28
6.13
3.71
1.42
-1.44
-5.36
-10.43
-16.23
-22.08
-27.33
-31.61
-35.0
-38.05
-41.47
-46.0
-52.13
-59.96
-68.97
-77.93
-84.94
-87.82
-84.77
-75.08
-59.56
-40.35
-20.28
-1.9
13.2
24.64
32.92
38.88
43.22
46.28
48.2
49.06
49.06
48.46
47.52
46.44
45.28
44.03
42.69
41.3
39.97
38.84
38.02
37.51
37.17
36.76
