-15.46
-17.62
-19.83
-22.14
-24.59
-27.16
-29.83
-32.57
-35.44
-38.5
-41.84
-45.41
-48.95
-51.89
-53.51
-53.13
-50.38
-45.34
-38.51
-30.64
-22.49
-14.65
-7.51
-1.21
4.24
8.89
12.92
16.54
19.98
23.41
26.83
30.13
33.07
35.41
36.97
37.71
37.7
37.16
36.36
35.59
35.08
34.9
34.92
34.9
34.59
33.81
32.53
30.88
28.99
27.01
25.02
23.06
21.15
19.31
17.52
15.74
13.88
11.91
9.84
7.73
5.68
3.78
2.03
0.34
-1.45
-3.51
-5.95
-8.74
-11.74
-14.75
-17.58
-20.12
-22.45
-24.75
-27.27
-30.26
-33.82
-37.87
-42.08
-45.87
-48.54
-49.44
-48.16
-44.73
-39.56
-33.29
-26.61
-19.98
-13.71
-7.92
-2.73
1.76
5.39
8.13
10.08
11.47
12.56
13.5
14.28
14.72
14.6
13.76
12.21
10.17
8.0
6.06
4.61
3.71
3.25
3.04
2.95
3.0
3.39
4.42
6.42
9.65
14.23
20.13
27.09
34.58
41.83
47.98
52.24
54.1
53.49
50.67
46.19
40.6
34.4
27.89
21.25
14.54
7.79
1.09
-5.46
-11.63
-17.13
-21.68
-25.13
-27.46
-28.89
-29.76
-30.43
-31.16
-31.98
-32.7
-32.86
-31.86
-29.04
-23.91
-16.33
-6.66
4.24
15.16
24.85
32.38
37.44
40.35
41.86
42.86
43.99
45.4
46.84
47.75
47.55
45.86
42.53
37.7
31.69
24.92
17.9
11.07
4.86
-0.53
-5.05
-8.85
-12.18
-15.25
-18.23
-21.16
-24.03
-26.79
-29.36
-31.65
-33.61
-35.21
-36.53
-37.72
-38.89
-40.0
-40.8
-40.79
-39.44
-36.44
-31.91
-26.38
-20.69
-15.57
-11.52
-8.67
-6.92
-6.16
-6.31
-7.31
-8.98
-10.97
-12.81
-14.03
-14.36
-13.77
-12.32
-10.08
-7.01
-3.06
1.64
6.71
11.55
15.49
18.09
19.26
19.14
17.88
15.42
11.38
5.28
-3.16
-13.72
-25.63
-37.76
-48.97
-58.36
-65.44
-70.0
-72.08
-71.78
-69.27
-64.72
-58.26
-50.09
-40.48
-30.09
-19.95
-11.5
-6.14
-4.73
-7.1
-11.97
-17.36
-21.3
-22.5
-20.75
-16.69
-11.37
-5.7
-0.18
5.05
10.05
14.83
19.33
23.49
27.38
31.21
35.18
39.33
43.47
47.16
49.98
51.66
52.19
51.77
50.71
49.28
47.67
45.99
44.37
42.9
41.7
40.81
40.22
39.85
39.64
39.48
39.34
39.12
38.69
37.89
36.47
34.24
31.12
27.19
22.72
18.08
13.58
9.4
5.58
2.04
-1.28
-4.43
-7.32
-9.92
-12.25
-14.39
-16.41
-18.33
-20.09
-21.57
-22.75
-23.71
-24.65
-25.74
-26.97
-28.21
-29.19
-29.73
-29.78
-29.56
-29.35
-29.42
-29.83
-30.47
-31.02
-31.19
-30.68
-29.35
-27.16
-24.22
-20.74
-17.0
-13.26
-9.71
-6.43
-3.38
-0.47
2.32
4.95
7.29
9.15
10.47
11.24
11.57
11.61
11.49
11.32
11.15
11.04
11.06
11.28
11.73
12.38
13.15
13.9
14.48
14.78
14.78
14.5
14.01
13.34
12.53
11.53
10.32
8.85
7.07
4.97
2.57
-0.07
-2.86
-5.68
-8.39
-10.86
-13.0
-14.81
-16.44
-18.15
-20.26
-22.96
-26.22
-29.75
-33.02
-35.44
-36.54
-36.02
-33.86
-30.26
-25.57
-20.26
-14.82
-9.7
-5.23
-1.53
1.43
3.84
5.9
7.75
9.45
10.93
12.1
12.86
13.16
13.06
12.65
12.09
11.51
11.0
10.61
10.32
10.09
9.88
9.7
9.58
9.59
9.66
9.71
9.58
9.16
8.46
7.54
6.55
5.58
4.62
3.59
2.32
0.75
-1.11
-3.14
-5.2
-7.18
-9.07
-10.9
-12.74
-14.63
-16.59
-18.67
-20.93
-23.49
-26.34
-29.26
-31.83
-33.5
-33.75
-32.29
-29.16
-24.7
-19.45
-13.98
-8.74
-4.05
-0.01
3.41
6.35
8.98
11.42
13.64
15.47
16.73
17.28
17.19
16.65
15.96
15.37
14.99
14.81
14.75
14.76
14.83
14.99
15.26
15.58
15.84
15.91
15.66
15.06
14.17
13.13
12.06
11.0
9.93
8.72
7.27
5.52
3.51
1.35
-0.86
-3.08
-5.35
-7.72
-10.22
-12.77
-15.27
-17.69
-20.08
-22.64
-25.55
-28.89
-32.56
-36.22
-39.36
-41.4
-41.78
-40.12
-36.36
-30.75
-23.87
-16.44
-9.16
-2.51
3.25
8.07
12.04
15.24
17.79
19.79
21.39
22.7
23.8
24.66
25.19
25.36
25.19
24.81
24.4
24.12
24.03
24.09
24.18
24.16
23.93
23.46
22.76
21.87
20.82
19.54
17.98
16.04
13.75
11.24
8.73
6.48
4.61
3.05
1.58
-0.13
-2.25
-4.78
-7.51
-10.12
-12.4
-14.34
-16.13
-18.08
-20.44
-23.33
-26.71
-30.45
-34.36
-38.21
-41.59
-43.95
-44.63
-43.09
-39.13
-33.01
-25.44
-17.34
-9.57
-2.73
2.94
7.51
11.16
14.11
16.55
18.61
20.39
21.95
23.29
24.34
25.0
25.23
25.07
24.63
24.1
23.65
23.37
23.28
23.29
23.31
23.18
22.77
21.98
20.78
19.2
17.37
15.44
13.53
11.7
9.9
8.07
6.16
4.2
2.22
0.22
-1.87
-4.17
-6.72
-9.5
-12.31
-14.96
-17.32
-19.46
-21.67
-24.31
-27.73
-32.02
-36.96
-41.96
-46.23
-48.89
-49.26
-47.01
-42.3
-35.7
-28.06
-20.23
-12.89
-6.42
-0.94
3.56
7.16
9.89
11.8
12.93
13.42
13.43
13.15
12.72
12.21
11.62
10.95
10.2
9.43
8.71
8.11
7.68
7.38
7.11
6.75
6.13
5.17
3.84
2.24
0.48
-1.33
-3.1
-4.8
-6.42
-7.96
-9.38
-10.66
-11.77
-12.68
-13.32
-13.56
-13.26
-12.29
-10.67
-8.59
-6.41
-4.48
-3.01
-1.86
-0.6
1.42
4.77
9.76
16.25
23.7
31.29
38.14
43.53
47.14
49.09
49.85
49.99
49.98
49.96
49.86
49.51
48.93
48.28
47.84
47.67
47.51
46.78
44.82
41.23
36.01
29.49
22.07
13.99
5.4
-3.52
-12.18
-19.67
-25.04
-27.93
-28.98
-29.78
-32.22
-37.7
-46.41
-57.38
-68.99
-79.82
-89.29
-97.72
-105.99
-114.95
-125.04
-136.22
-148.09
-160.05
-171.3
-180.79
-187.25
-189.33
-185.98
-176.75
-162.04
-143.09
-121.51
-98.85
-76.08
-53.37
-30.28
-6.21
19.0
44.74
69.64
92.06
110.6
124.53
133.86
139.14
141.05
140.16
136.85
131.42
124.33
116.27
108.14
100.77
94.73
90.13
86.66
83.92
81.58
79.62
78.25
77.66
77.84
78.44
78.92
78.72
77.54
75.38
72.39
68.71
64.22
58.46
50.75
40.38
27.02
10.96
-6.64
-23.96
-38.81
-49.23
-54.07
-53.27
-47.84
-39.44
-29.83
-20.36
-11.68
-3.93
3.05
9.36
14.83
19.14
22.0
23.4
23.7
23.46
23.21
23.26
23.64
24.22
24.96
26.1
28.08
31.41
36.29
42.42
49.03
55.06
59.52
61.86
62.08
60.68
58.49
56.25
54.43
53.07
51.88
50.45
48.47
45.83
42.67
39.26
35.92
32.97
30.62
28.93
27.69
26.39
24.32
20.82
15.64
9.14
2.25
-3.87
-8.39
-11.2
-12.98
-14.9
-18.02
-22.8
-28.86
-35.23
-40.84
-45.01
-47.7
-49.36
-50.53
-51.48
-51.94
-51.41
-49.58
-46.66
-43.39
-40.63
-38.76
-37.41
-35.66
-32.66
-28.29
-23.33
-19.11
-16.85
-16.98
-19.02
-21.93
-24.75
-27.05
-29.01
-31.09
-33.58
-36.41
-39.16
-41.48
-43.35
-45.22
-47.88
-51.98
-57.58
-63.96
-69.7
-73.23
-73.48
-70.3
-64.46
-57.26
-49.96
-43.25
-37.18
-31.34
-25.31
-18.89
-12.26
-5.86
-0.15
4.58
8.22
10.89
12.8
14.19
15.25
16.08
16.73
17.2
17.48
17.59
17.58
17.51
17.44
17.36
17.26
17.01
16.44
15.35
13.53
10.89
7.47
3.48
-0.77
-5.0
-9.02
-12.76
-16.34
-19.95
-23.86
-28.37
-33.69
-39.82
-46.38
-52.59
-57.32
-59.43
-58.16
-53.35
-45.53
-35.73
-25.15
-14.82
-5.47
2.55
9.11
14.29
18.27
21.28
23.5
25.02
25.82
25.81
24.97
23.39
21.36
19.17
17.11
15.3
13.82
12.7
12.05
11.95
12.37
13.04
13.54
13.36
12.2
10.1
7.44
4.71
2.27
0.21
-1.71
-3.89
-6.59
-9.86
-13.45
-17.04
-20.36
-23.31
-26.12
-29.1
-32.64
-37.04
-42.42
-48.63
-55.14
-61.08
-65.3
-66.67
-64.35
-58.12
-48.49
-36.53
-23.58
-10.91
0.62
10.62
19.08
26.18
32.15
37.09
41.02
43.92
45.81
46.82
47.19
47.16
46.94
46.65
46.33
46.03
45.84
45.89
46.3
47.06
47.99
48.81
49.17
48.84
47.67
45.69
43.02
39.83
36.34
32.71
29.07
25.47
21.84
18.1
14.13
9.92
5.48
0.95
-3.52
-7.79
-11.79
-15.53
-19.11
-22.74
-26.71
-31.28
-36.69
-42.99
-49.95
-56.91
-62.87
-66.62
-67.05
-63.55
-56.17
-45.72
-33.39
-20.55
-8.25
2.85
12.49
20.69
27.58
33.28
37.92
41.61
44.47
46.62
48.09
48.91
49.06
48.57
47.56
46.2
44.73
43.33
42.1
41.01
39.95
38.77
37.34
35.55
33.34
30.66
27.53
24.01
20.19
16.25
12.32
8.5
4.8
1.18
-2.39
-5.88
-9.21
-12.26
-15.02
-17.46
-19.66
-21.68
-23.57
-25.41
-27.35
-29.59
-32.32
-35.56
-38.97
-41.85
-43.19
-42.06
-37.88
-30.7
-21.19
-10.41
0.51
10.62
19.38
26.59
32.31
36.73
40.08
42.56
44.31
45.43
45.9
45.74
44.95
43.62
41.91
39.98
37.98
36.0
34.14
32.44
30.93
29.55
28.13
26.44
24.27
21.53
18.32
14.89
11.45
8.09
4.75
1.29
-2.37
-6.15
-9.81
-13.08
-15.78
-17.97
-19.91
-21.99
-24.56
-27.82
-31.67
-35.77
-39.46
-41.95
-42.4
-40.18
-35.02
-27.13
-17.2
-6.13
5.07
15.63
25.07
33.22
40.18
46.19
51.52
56.38
60.93
65.24
69.38
73.44
77.52
81.67
85.77
89.59
92.86
95.4
97.26
98.68
99.95
101.19
102.24
102.56
101.42
98.04
91.8
82.33
69.62
53.98
36.09
16.92
-2.41
-20.82
-37.58
-52.42
-65.5
-77.36
-88.62
-99.84
-111.28
-122.84
-133.95
-143.71
-151.05
-155.09
-155.47
-152.43
-146.83
-139.7
-131.93
-124.02
-116.04
-107.88
-99.47
-90.88
-82.35
-74.06
-66.12
-58.54
-51.32
-44.55
-38.41
-33.1
-28.68
-25.07
-22.01
-19.23
-16.53
-13.86
-11.3
-9.05
-7.26
-6.06
-5.45
-5.32
-5.59
-6.12
-6.9
-7.9
-9.15
-10.6
-12.2
-13.87
-15.6
-17.49
-19.74
-22.57
-26.09
-30.17
-34.36
-37.92
-40.04
-40.0
-37.38
-32.21
-24.92
-16.23
-7.02
1.91
9.92
16.68
22.07
26.19
29.28
31.54
33.15
34.18
34.64
34.51
33.81
32.62
31.02
29.12
27.03
24.87
22.74
20.78
19.04
17.48
15.97
14.31
12.3
9.88
7.08
4.04
0.92
-2.18
-5.17
-8.02
-10.74
-13.3
-15.79
-18.32
-21.11
-24.36
-28.19
-32.53
-37.01
-40.97
-43.56
-43.96
-41.66
-36.6
-29.28
-20.58
-11.51
-2.92
4.66
11.06
16.34
20.66
24.18
26.99
29.16
30.71
31.7
32.22
32.34
32.15
31.7
31.08
30.35
29.56
28.77
28.03
27.37
26.82
26.34
25.87
25.25
24.36
23.08
21.3
19.04
16.33
13.3
10.06
6.72
3.33
-0.09
-3.55
-7.12
-10.91
-15.08
-19.79
-25.0
-30.4
-35.32
-38.81
-39.96
-38.19
-33.48
-26.44
-18.06
-9.45
-1.49
5.27
10.63
14.64
17.5
19.45
20.72
21.52
21.92
21.92
21.43
20.36
18.75
16.79
14.77
13.0
11.67
10.86
10.46
10.25
10.05
9.71
9.13
8.28
7.13
5.66
3.87
1.83
-0.35
-2.46
-4.4
-6.14
-7.82
-9.65
-11.78
-14.25
-17.0
-19.94
-23.13
-26.67
-30.7
-35.09
-39.33
-42.57
-43.88
-42.59
-38.52
-32.07
-24.03
-15.34
-6.77
1.17
8.24
14.34
19.48
23.71
27.04
29.52
31.18
32.03
32.08
31.44
30.26
28.78
27.22
25.76
24.47
23.31
22.21
21.1
19.96
18.82
17.68
16.51
15.17
13.52
11.44
8.91
5.94
2.62
-0.95
-4.63
-8.27
-11.71
-14.88
-17.81
-20.73
-23.97
-27.79
-32.24
-36.99
-41.32
-44.31
-45.13
-43.24
-38.61
-31.68
-23.2
-14.03
-4.96
3.37
10.55
16.44
21.06
24.56
27.17
29.04
30.25
30.85
30.85
30.36
29.52
28.48
27.37
26.23
25.11
24.09
23.25
22.64
22.19
21.71
20.92
19.64
17.81
15.57
13.1
10.57
7.99
5.29
2.35
-0.94
-4.5
-8.18
-11.78
-15.12
-18.17
-21.02
-23.91
-27.13
-30.92
-35.28
-39.94
-44.24
-47.32
-48.3
-46.55
-41.91
-34.77
-25.95
-16.43
-7.14
1.3
8.56
14.62
19.55
23.5
26.6
28.95
30.63
31.7
32.2
32.22
31.85
31.19
30.35
29.41
28.44
27.54
26.8
26.3
26.03
25.86
25.52
24.69
23.16
20.88
18.05
15.01
12.09
9.44
6.96
4.42
1.52
-1.91
-5.82
-9.99
-14.08
-17.79
-20.94
-23.54
-25.77
-27.99
-30.61
-33.91
-37.94
-42.37
-46.5
-49.39
-50.14
-48.09
-43.14
-35.69
-26.56
-16.77
-7.29
1.19
8.32
14.09
18.7
22.45
25.55
28.11
30.16
31.63
32.55
32.94
32.91
32.53
31.86
30.93
29.78
28.52
27.24
26.1
25.16
24.44
23.87
23.34
22.67
21.69
20.27
18.32
15.89
13.13
10.26
7.42
4.67
1.94
-0.92
-4.04
-7.39
-10.79
-14.07
-17.03
-19.66
-22.08
-24.55
-27.34
-30.68
-34.71
-39.42
-44.57
-49.7
-54.1
-56.91
-57.34
-54.94
-49.72
-42.23
-33.31
-23.88
-14.73
-6.35
1.0
7.24
12.33
16.29
19.18
21.1
22.25
22.83
23.01
22.91
22.6
22.06
21.36
20.56
19.87
19.47
19.52
20.03
20.82
21.52
21.73
21.18
19.78
17.72
15.36
13.03
10.96
9.15
7.43
5.5
3.11
0.14
-3.31
-6.98
-10.56
-13.81
-16.61
-19.05
-21.38
-23.94
-27.08
-31.03
-35.76
-40.91
-45.79
-49.47
-51.03
-49.83
-45.71
-39.02
-30.54
-21.26
-12.07
-3.62
3.74
9.94
15.08
19.3
22.77
25.61
27.91
29.73
31.09
32.01
32.49
32.55
32.23
31.62
30.84
30.04
29.36
28.96
28.89
29.12
29.47
29.72
29.62
29.03
27.9
26.25
24.14
21.66
18.89
15.91
12.82
9.64
6.34
2.87
-0.81
-4.59
-8.27
-11.66
-14.7
-17.53
-20.51
-24.02
-28.29
-33.27
-38.6
-43.67
-47.71
-49.94
-49.66
-46.46
-40.29
-31.56
-21.11
-10.0
0.75
10.31
18.25
24.44
29.02
32.26
34.48
35.95
36.85
37.22
37.01
36.12
34.52
32.31
29.74
27.1
24.63
22.49
20.74
19.37
18.32
17.57
16.99
16.4
15.59
14.38
12.7
10.64
8.36
6.07
3.87
1.75
-0.33
-2.44
-4.6
-6.85
-9.19
-11.64
-14.24
-16.97
-19.84
-22.84
-25.98
-29.24
-32.51
-35.47
-37.59
-38.29
-37.05
-33.61
-28.14
-21.14
-13.37
-5.64
1.38
7.26
11.83
15.19
17.56
19.21
20.35
21.11
21.55
21.65
21.42
20.89
20.13
19.2
18.13
17.01
15.92
15.02
14.43
14.23
14.33
14.51
14.51
14.1
13.22
11.95
10.47
8.97
7.55
6.18
4.8
3.31
1.66
-0.25
-2.45
-4.97
-7.76
-10.71
-13.71
-16.65
-19.57
-22.62
-25.97
-29.78
-34.06
-38.58
-42.86
-46.24
-48.06
-47.77
-45.2
-40.53
-34.28
-27.16
-19.9
-13.09
-7.05
-1.9
2.42
6.07
9.2
11.96
14.4
16.5
18.19
19.36
19.91
19.87
19.38
18.64
17.86
17.25
16.9
16.82
16.92
17.06
17.06
16.76
16.04
14.86
13.29
11.47
9.52
7.53
5.46
3.24
0.76
-2.01
-4.98
-7.99
-10.84
-13.39
-15.61
-17.62
-19.61
-21.84
-24.49
-27.65
-31.24
-34.95
-38.24
-40.43
-40.87
-39.1
-35.1
-29.26
-22.3
-15.08
-8.29
-2.36
2.62
6.76
10.25
13.25
15.81
17.93
19.55
20.64
21.23
21.37
21.13
20.6
19.87
18.99
18.06
17.18
16.45
15.99
15.8
15.84
15.94
15.9
15.51
14.64
13.27
11.48
9.44
7.31
5.24
3.3
1.47
-0.35
-2.28
-4.4
-6.71
-9.12
-11.49
-13.67
-15.57
-17.19
-18.64
-20.09
-21.73
-23.76
-26.29
-29.32
-32.7
-36.05
-38.79
-40.21
-39.7
-36.9
-31.96
-25.39
-18.03
-10.7
-4.04
1.66
6.43
10.39
13.73
16.54
18.81
20.54
21.75
22.51
22.91
23.01
22.86
22.47
21.87
21.13
20.35
19.66
19.15
18.85
18.72
18.67
18.61
18.43
18.06
17.45
16.58
15.43
13.97
12.2
10.17
7.96
5.69
3.45
1.3
-0.83
-3.01
-5.3
-7.68
-10.03
-12.21
-14.09
-15.64
-16.95
-18.19
-19.57
-21.33
-23.63
-26.49
-29.74
-32.91
-35.35
-36.33
-35.36
-32.28
-27.46
-21.54
-15.32
-9.45
-4.3
0.05
3.63
6.57
8.94
10.79
12.25
13.46
14.55
15.54
16.26
16.51
16.12
15.11
13.74
12.38
11.39
10.92
10.93
11.2
11.49
11.65
11.59
11.27
10.63
9.6
8.17
6.43
4.57
2.78
1.22
-0.1
-1.31
-2.61
-4.18
-6.09
-8.31
-10.7
-13.06
-15.18
-16.94
-18.31
-19.4
-20.43
-21.71
-23.53
-26.06
-29.26
-32.84
-36.24
-38.78
-39.78
-38.73
-35.45
-30.13
-23.26
-15.59
-7.86
-0.75
5.29
10.08
13.68
16.36
18.46
20.29
22.05
23.77
25.37
26.63
27.37
27.48
26.98
26.02
24.81
23.58
22.49
21.58
20.81
20.08
19.28
18.3
17.04
15.48
13.63
11.54
9.34
7.08
4.81
2.5
0.09
-2.46
-5.16
-7.96
-10.79
-13.61
-16.39
-19.09
-21.74
-24.41
-27.24
-30.45
-34.18
-38.34
-42.52
-46.01
-48.02
-47.91
-45.43
-40.77
-34.47
-27.2
-19.6
-12.15
-5.2
1.04
6.42
10.88
14.43
17.19
19.34
21.03
22.38
23.42
24.17
24.61
24.73
24.53
24.03
23.3
22.41
21.52
20.78
20.35
20.24
20.37
20.49
20.3
19.55
18.15
16.18
13.85
11.42
9.05
6.8
4.61
2.38
0.02
-2.51
-5.2
-8.04
-10.94
-13.85
-16.69
-19.4
-21.97
-24.52
-27.26
-30.44
-34.18
-38.39
-42.63
-46.16
-48.17
-47.95
-45.19
-40.01
-32.97
-24.84
-16.43
-8.39
-1.15
5.08
10.22
14.34
17.55
20.04
21.95
23.42
24.48
25.13
25.33
25.11
24.51
23.68
22.77
21.94
21.33
21.01
21.02
21.31
21.77
22.15
22.23
21.79
20.74
19.14
17.14
14.93
12.67
10.37
8.0
5.42
2.52
-0.71
-4.19
-7.75
-11.14
-14.23
-16.94
-19.42
-21.92
-24.8
-28.32
-32.6
-37.42
-42.24
-46.24
-48.5
-48.29
-45.26
-39.58
-31.91
-23.15
-14.28
-6.1
0.88
6.47
10.72
13.92
16.38
18.43
20.3
22.04
23.56
24.64
25.1
24.89
24.12
23.08
22.1
21.52
21.43
21.8
22.39
22.87
22.94
22.41
21.26
19.6
17.66
15.63
13.65
11.78
9.91
7.95
5.78
3.37
0.76
-1.93
-4.59
-7.12
-9.52
-11.89
-14.45
-17.45
-21.08
-25.31
-29.81
-33.94
-36.86
-37.76
-36.12
-31.85
-25.33
-17.34
-8.84
-0.7
6.42
12.21
16.71
20.1
22.7
24.74
26.37
27.66
28.62
29.27
29.61
29.64
29.34
28.72
27.81
26.68
25.51
24.45
23.63
23.01
22.43
21.67
20.54
18.94
16.95
14.77
12.63
10.72
9.1
7.67
6.28
4.74
2.92
0.82
-1.53
-4.05
-6.65
-9.24
-11.83
-14.45
-17.18
-20.19
-23.62
-27.6
-32.09
-36.84
-41.27
-44.63
-46.13
-45.18
-41.61
-35.73
-28.25
-20.07
-11.99
-4.62
1.75
7.11
11.59
15.34
18.52
21.19
23.39
25.12
26.37
27.16
27.48
27.4
26.95
26.24
25.35
24.41
23.57
22.92
22.47
22.18
21.88
21.4
20.6
19.41
17.84
15.97
13.93
11.83
9.78
7.81
5.92
4.02
2.0
-0.21
-2.68
-5.34
-8.07
-10.76
-13.29
-15.65
-17.89
-20.08
-22.36
-24.89
-27.84
-31.36
-35.45
-39.81
-43.78
-46.48
-47.0
-44.78
-39.82
-32.74
-24.54
-16.26
-8.68
-2.18
3.18
7.58
11.17
14.09
16.42
18.27
19.75
20.98
22.0
22.77
23.19
23.12
22.57
21.64
20.58
19.68
19.13
18.95
18.98
18.97
18.65
17.86
16.62
15.0
13.17
11.28
9.41
7.63
5.92
4.23
2.47
0.54
-1.61
-3.96
-6.4
-8.8
-11.08
-13.2
-15.25
-17.36
-19.68
-22.35
-25.49
-29.11
-33.01
-36.75
-39.64
-40.93
-40.01
-36.66
-31.18
-24.24
-16.73
-9.41
-2.78
2.94
7.76
11.79
15.11
17.79
19.85
21.28
22.09
22.32
22.07
21.49
20.76
19.99
19.25
18.5
17.68
16.78
15.88
15.13
14.67
14.47
14.35
14.0
13.15
11.67
9.66
7.32
4.94
2.71
0.68
-1.21
-3.1
-5.15
-7.45
-9.98
-12.66
-15.33
-17.89
-20.23
-22.4
-24.51
-26.78
-29.43
-32.64
-36.46
-40.69
-44.92
-48.52
-50.76
-51.01
-48.85
-44.26
-37.58
-29.46
-20.71
-12.19
-4.53
1.88
7.01
11.09
14.46
17.45
20.21
22.73
24.87
26.49
27.52
27.96
27.88
27.38
26.52
25.4
24.14
22.88
21.78
20.9
20.18
19.49
18.65
17.52
16.09
14.39
12.55
10.63
8.7
6.73
4.69
2.55
0.25
-2.21
-4.87
-7.76
-10.84
-13.98
-17.03
-19.82
-22.24
-24.36
-26.38
-28.64
-31.45
-34.96
-39.0
-43.01
-46.12
-47.39
-46.05
-41.84
-35.05
-26.47
-17.13
-8.01
0.22
7.24
13.03
17.75
21.6
24.79
27.42
29.58
31.29
32.56
33.39
33.77
33.73
33.31
32.58
31.61
30.52
29.41
28.34
27.35
26.4
25.41
24.26
22.82
20.97
18.7
16.06
13.25
10.46
7.89
5.58
3.42
1.21
-1.26
-4.06
-7.13
-10.27
-13.28
-16.04
-18.53
-20.8
-22.97
-25.2
-27.67
-30.6
-34.1
-38.06
-42.08
-45.44
-47.3
-46.96
-44.12
-38.94
-32.0
-24.08
-15.97
-8.26
-1.35
4.63
9.64
13.78
17.18
19.95
22.21
24.04
25.48
26.53
27.18
27.41
27.26
26.8
26.13
25.44
24.87
24.5
24.31
24.15
23.81
23.11
21.95
20.36
18.44
16.36
14.22
12.07
9.9
7.66
5.31
2.86
0.34
-2.22
-4.76
-7.22
-9.56
-11.85
-14.25
-17.06
-20.57
-24.93
-29.97
-35.1
-39.44
-42.02
-42.08
-39.29
-33.84
-26.34
-17.69
-8.83
-0.6
6.48
12.19
16.63
20.11
22.93
25.32
27.3
28.81
29.74
30.1
29.96
29.49
28.79
27.89
26.79
25.55
24.31
23.3
22.7
22.55
22.65
22.66
22.21
21.06
19.2
16.82
14.24
11.73
9.41
7.23
5.04
2.68
0.06
-2.79
-5.8
-8.8
-11.68
-14.35
-16.74
-18.92
-21.01
-23.23
-25.86
-29.03
-32.66
-36.35
-39.36
-40.85
-40.06
-36.64
-30.69
-22.82
-13.95
-5.02
3.3
10.62
16.93
22.37
27.15
31.42
35.25
38.66
41.63
44.11
46.05
47.41
48.16
48.32
47.93
47.07
45.77
44.04
41.87
39.29
36.3
32.91
29.03
24.5
19.12
12.76
5.47
-2.5
-10.73
-18.79
-26.38
-33.38
-39.86
-45.91
-51.55
-56.67
-61.06
-64.5
-66.85
-68.12
-68.39
-67.81
-66.52
-64.62
-62.27
-59.69
-57.21
-55.11
-53.54
-52.33
-50.99
-48.77
-44.9
-38.93
-30.81
-21.0
-10.3
0.41
10.34
18.99
26.12
31.72
35.93
38.93
40.91
42.06
42.56
42.55
42.16
41.46
40.52
39.35
37.97
36.46
34.95
33.64
32.64
32.0
31.58
31.14
30.38
29.08
27.16
24.61
21.58
18.24
14.75
11.27
7.87
4.54
1.22
-2.2
-5.8
-9.56
-13.4
