7.1
4.6
2.0
-0.85
-3.99
-7.34
-10.72
-13.9
-16.73
-19.18
-21.41
-23.73
-26.5
-30.0
-34.3
-39.07
-43.59
-46.87
-47.91
-45.95
-40.8
-32.87
-23.1
-12.65
-2.59
6.28
13.6
19.33
23.73
27.17
30.0
32.46
34.66
36.61
38.29
39.67
40.71
41.44
41.88
42.0
41.82
41.4
40.9
40.54
40.45
40.61
40.96
41.37
41.63
41.53
40.96
39.95
38.69
37.29
35.76
34.22
32.83
31.67
30.67
29.68
28.65
27.66
26.6
25.37
24.09
23.06
22.39
21.75
20.31
17.11
11.4
2.55
-9.52
-23.92
-38.99
-53.15
-65.43
-75.63
-84.18
-88.86
-88.13
-83.06
-76.73
-71.73
-68.66
-66.55
-63.95
-59.78
-55.25
-50.77
-47.2
-45.15
-44.61
-45.21
-46.48
-48.1
-49.89
-50.52
-49.59
-47.39
-44.31
-40.61
-36.43
-31.93
-27.21
-22.31
-17.25
-12.31
-7.94
-4.32
-1.3
1.43
4.06
6.49
8.47
9.68
9.78
8.73
6.91
5.03
3.76
3.39
3.71
4.12
3.94
2.56
-0.24
-4.22
-8.73
-12.87
-15.77
-16.71
-15.23
-11.18
-4.74
3.65
13.44
24.09
35.15
46.2
56.89
66.79
75.42
82.37
87.36
90.31
91.31
90.54
88.12
84.21
79.0
72.78
65.92
58.78
51.57
44.36
37.17
30.13
23.6
18.08
14.09
11.87
11.24
11.64
12.3
12.57
12.09
10.79
8.85
6.46
3.75
0.73
-2.52
-5.87
-9.03
-11.66
-13.59
-14.88
-15.98
-17.6
-20.43
-24.84
-30.61
-36.91
-42.55
-46.37
-47.64
-46.26
-42.71
-37.79
-32.26
-26.62
-21.11
-15.87
-11.03
-6.83
-3.4
-0.61
1.97
4.99
8.99
14.25
20.61
27.63
34.84
41.84
48.41
54.31
59.22
62.75
64.68
65.14
64.69
64.12
64.08
64.77
65.88
66.73
66.68
65.4
62.91
59.4
55.06
49.92
43.91
37.0
29.32
21.2
12.97
4.88
-3.11
-11.23
-19.92
-29.59
-40.56
-52.95
-66.53
-80.7
-94.56
-107.04
-117.15
-124.26
-128.29
-129.64
-129.0
-126.97
-123.96
-120.12
-115.66
-110.99
-106.85
-104.17
-103.58
-105.13
-107.98
-110.71
-111.77
-109.98
-104.76
-96.16
-84.7
-71.14
-56.39
-41.27
-26.67
-13.5
-2.55
5.87
12.03
16.66
20.61
24.53
29.02
34.2
39.66
44.62
48.47
51.06
52.73
54.12
55.82
58.51
62.27
66.38
69.67
71.42
71.84
71.8
72.18
73.24
75.06
77.06
78.34
78.4
77.79
77.64
78.67
80.36
77.51
67.1
51.47
37.61
31.64
34.82
43.34
51.29
53.84
49.58
41.05
32.14
25.41
20.78
16.63
11.14
3.98
-4.52
-13.36
-21.23
-27.43
-32.02
-35.58
-38.45
-40.74
-42.07
-42.18
-41.08
-38.93
-36.4
-34.66
-35.31
-37.72
-41.68
-46.41
-50.92
-54.26
-55.71
-55.07
-52.65
-49.06
-44.88
-40.71
-36.81
-33.33
-30.41
-28.23
-27.06
-27.24
-28.95
-32.01
-35.99
-39.97
-42.8
-43.48
-41.36
-36.39
-29.05
-20.17
-10.69
-1.52
6.76
13.86
19.69
24.24
27.58
29.79
31.05
31.54
31.41
30.74
29.6
28.05
26.22
24.29
22.52
21.15
20.33
20.06
20.19
20.46
20.53
20.09
18.91
16.95
14.35
11.35
8.27
5.29
2.45
-0.34
-3.26
-6.41
-9.81
-13.28
-16.62
-19.61
-22.22
-24.55
-26.93
-29.71
-33.18
-37.34
-41.78
-45.74
-48.25
-48.43
-45.74
-40.17
-32.24
-22.83
-12.95
-3.49
4.89
11.86
17.33
21.42
24.34
26.33
27.65
28.52
29.06
29.36
29.47
29.42
29.28
29.17
29.16
29.32
29.68
30.21
30.82
31.37
31.67
31.51
30.71
29.18
26.92
24.0
20.6
16.85
12.9
8.9
4.95
1.15
-2.45
-5.88
-9.22
-12.6
-16.07
-19.69
-23.5
-27.58
-32.06
-36.97
-42.1
-46.91
-50.49
-51.89
-50.41
-45.85
-38.57
-29.43
-19.43
-9.51
-0.36
7.63
14.29
19.66
23.93
27.36
30.19
32.6
34.57
36.0
36.74
36.76
36.15
35.2
34.18
33.37
32.87
32.64
32.57
32.5
32.28
31.8
30.95
29.65
27.85
25.6
23.0
20.22
17.44
14.74
12.05
9.24
6.14
2.69
-1.03
-4.82
-8.38
-11.51
-14.1
-16.28
-18.3
-20.56
-23.45
-27.28
-32.05
-37.42
-42.67
-46.8
-48.83
-48.01
-44.09
-37.39
-28.64
-18.87
-9.13
-0.26
7.19
13.03
17.39
20.61
23.08
25.14
27.0
28.66
30.08
31.14
31.77
31.89
31.48
30.54
29.16
27.53
25.92
24.56
23.58
22.9
22.28
21.42
20.02
17.96
15.36
12.48
9.65
7.14
5.01
3.19
1.44
-0.52
-2.9
-5.8
-9.14
-12.73
-16.3
-19.64
-22.63
-25.31
-27.9
-30.71
-34.05
-38.13
-42.86
-47.86
-52.43
-55.64
-56.59
-54.59
-49.44
-41.49
-31.57
-20.82
-10.36
-1.11
6.43
12.17
16.4
19.54
22.02
24.13
25.93
27.29
28.04
28.13
27.6
26.68
25.56
24.41
23.3
22.26
21.34
20.6
20.04
19.53
18.81
17.55
15.58
12.93
9.85
6.71
3.76
1.05
-1.52
-4.1
-6.78
-9.5
-12.12
-14.52
-16.72
-18.91
-21.44
-24.67
-28.87
-34.0
-39.68
-45.1
-49.21
-50.97
-49.67
-45.14
-37.83
-28.66
-18.71
-8.96
-0.05
7.74
14.39
20.03
24.83
28.97
32.65
36.06
39.3
42.39
45.18
47.52
49.23
50.29
50.82
51.03
51.13
51.23
51.25
51.04
50.36
49.04
46.97
44.14
40.59
36.38
31.53
25.99
19.67
12.53
4.63
-3.83
-12.43
-20.69
-28.16
-34.51
-39.63
-43.67
-46.96
-49.95
-53.12
-56.83
-61.21
-66.0
-70.52
-73.82
-74.92
-73.06
-68.01
-60.12
-50.28
-39.57
-29.02
-19.32
-10.75
-3.27
3.28
9.03
13.98
18.04
21.15
23.38
24.88
25.88
26.55
26.96
27.1
26.9
26.37
25.54
24.54
23.51
22.59
21.84
21.3
20.85
20.35
19.6
18.47
16.9
14.98
12.85
10.66
8.42
6.04
3.33
0.16
-3.46
-7.35
-11.22
-14.82
-18.0
-20.79
-23.33
-25.86
-28.61
-31.81
-35.61
-39.94
-44.45
-48.48
-51.08
-51.33
-48.57
-42.68
-34.13
-23.84
-12.91
-2.35
7.08
14.94
21.12
25.72
29.04
31.42
33.18
34.54
35.57
36.24
36.5
36.34
35.85
35.12
34.27
33.32
32.27
31.15
30.02
28.98
28.06
27.15
25.99
24.3
21.93
18.94
15.61
12.27
9.18
6.37
3.71
1.03
-1.8
-4.75
-7.73
-10.63
-13.39
-16.05
-18.63
-21.11
-23.47
-25.8
-28.32
-31.44
-35.5
-40.61
-46.41
-52.04
-56.43
-58.52
-57.68
-53.81
-47.28
-38.8
-29.2
-19.26
-9.66
-0.93
6.56
12.62
17.3
20.77
23.33
25.26
26.75
27.88
28.63
28.94
28.76
28.09
27.08
25.89
24.78
23.93
23.46
23.29
23.24
23.03
22.38
21.18
19.48
17.44
15.29
13.13
10.98
8.7
6.12
3.14
-0.23
-3.85
-7.49
-10.98
-14.24
-17.36
-20.55
-24.1
-28.24
-33.08
-38.46
-43.91
-48.67
-51.88
-52.75
-50.83
-46.1
-39.0
-30.27
-20.78
-11.31
-2.51
5.2
11.61
16.68
20.48
23.22
25.08
26.26
26.87
26.99
26.71
26.11
25.32
24.47
23.66
22.93
22.33
21.86
21.56
21.41
21.4
21.36
21.11
20.43
19.14
17.22
14.8
12.12
9.35
6.62
3.87
1.0
-2.08
-5.33
-8.62
-11.75
-14.58
-17.11
-19.49
-21.94
-24.76
-28.2
-32.41
-37.3
-42.5
-47.26
-50.57
-51.44
-49.15
-43.55
-35.08
-24.65
-13.36
-2.2
8.06
17.03
24.59
30.82
35.98
40.35
44.26
47.93
51.52
55.07
58.58
62.02
65.34
68.48
71.37
74.06
76.67
79.46
82.74
86.72
91.48
96.82
102.41
107.9
113.0
117.61
121.86
126.03
130.52
135.7
141.81
148.77
156.2
163.53
170.1
175.45
179.36
181.94
183.41
183.94
183.43
181.45
177.15
169.44
157.29
140.09
117.99
92.17
64.7
38.1
14.71
-3.93
-17.43
-26.49
-32.59
-37.43
-42.47
-48.65
-56.3
-65.22
-74.9
-84.65
-93.77
-101.67
-107.91
-112.32
-115.02
-116.5
-117.55
-119.14
-122.12
-127.02
-133.93
-142.44
-151.88
-161.6
-171.13
-180.26
-188.95
-197.19
-204.96
-212.12
-218.43
-223.46
-226.62
-227.2
-224.72
-219.17
-211.31
-202.53
-194.55
-188.78
-185.9
-185.74
-187.48
-190.16
-193.08
-195.94
-198.7
-201.33
-203.61
-205.07
-205.05
-202.7
-197.05
-187.12
-172.11
-151.71
-126.3
-97.14
-66.07
-35.22
-6.5
18.73
39.8
56.6
69.4
78.56
84.43
87.23
87.18
84.6
80.18
75.0
70.46
67.88
67.98
70.57
74.54
78.26
80.16
79.33
75.82
70.5
64.66
59.45
55.52
52.84
50.86
48.82
46.11
42.4
37.74
32.43
26.81
21.19
15.71
10.44
5.47
0.94
-3.08
-6.68
-10.17
-14.07
-18.81
-24.44
-30.41
-35.61
-38.59
-38.02
-33.19
-24.17
-11.92
2.04
16.06
28.77
39.4
47.81
54.39
59.72
64.28
68.28
71.61
74.0
75.24
75.32
74.43
72.92
71.12
69.3
67.58
65.96
64.31
62.45
60.12
57.13
53.39
48.94
43.95
38.62
33.05
27.29
21.28
14.96
8.4
1.75
-4.75
-10.86
-16.41
-21.37
-25.88
-30.22
-34.84
-40.22
-46.73
-54.32
-62.39
-69.75
-74.91
-76.47
-73.55
-66.11
-54.91
-41.25
-26.59
-12.18
1.12
12.87
22.98
31.55
38.78
44.91
50.16
54.7
58.72
62.31
65.52
68.35
70.71
72.49
73.59
73.94
73.52
72.4
70.7
68.59
66.19
63.59
60.77
57.58
53.85
49.44
44.31
38.58
32.48
26.28
20.18
14.26
8.5
2.83
-2.86
-8.67
-14.78
-21.42
-28.75
-36.63
-44.46
-51.03
-54.83
-54.45
-49.16
-39.15
-25.62
-10.31
4.94
18.68
30.07
38.92
45.49
50.32
53.98
56.98
59.57
61.79
63.42
64.12
63.62
61.84
58.93
55.24
51.24
47.33
43.82
40.86
38.46
36.47
34.68
32.78
30.48
27.51
23.82
19.52
14.88
10.2
5.68
1.34
-2.91
-7.2
-11.57
-15.96
-20.25
-24.36
-28.35
-32.37
-36.69
-41.59
-47.31
-53.85
-60.83
-67.44
-72.44
-74.49
-72.55
-66.3
-56.33
-44.01
-31.06
-19.0
-8.81
-0.76
5.35
9.9
13.19
15.29
16.2
16.01
15.01
13.66
12.42
11.57
11.14
10.9
10.58
10.0
9.15
8.2
7.39
6.94
6.97
7.45
8.24
9.17
10.05
10.77
11.31
11.71
12.03
12.25
12.27
11.91
11.03
9.6
7.79
5.88
4.16
2.83
1.87
1.04
-0.07
-1.9
-4.86
-9.17
-14.79
-21.26
-27.72
-33.02
-35.96
-35.71
-32.03
-25.4
-16.88
-7.75
0.87
8.27
14.21
18.79
22.25
24.84
26.71
27.92
28.48
28.38
27.62
26.2
24.14
21.47
18.25
14.64
10.9
7.35
4.32
2.0
0.42
-0.65
-1.53
-2.57
-3.97
-5.73
-7.68
-9.62
-11.34
-12.83
-14.2
-15.68
-17.51
-19.83
-22.61
-25.66
-28.7
-31.44
-33.74
-35.61
-37.27
-39.07
-41.38
-44.48
-48.36
-52.64
-56.55
-59.07
-59.25
-56.49
-50.79
-42.72
-33.27
-23.48
-14.22
-6.02
0.89
6.48
10.83
14.07
16.38
18.01
19.24
20.3
21.36
22.49
23.76
25.23
26.99
29.15
31.72
34.6
37.49
40.05
41.92
42.87
42.83
41.94
40.42
38.53
36.49
34.43
32.39
30.34
28.16
25.71
22.86
19.56
15.9
12.08
8.31
4.71
1.13
-2.81
-7.66
-13.83
-21.32
-29.63
-37.75
-44.41
-48.47
-49.17
-46.37
-40.49
-32.35
-22.94
-13.2
-3.83
4.71
12.23
18.82
24.73
30.33
35.9
41.58
47.27
52.7
57.58
61.7
65.03
67.61
69.5
70.69
71.07
70.5
68.93
66.42
63.09
59.04
54.29
48.79
42.48
35.39
27.66
19.52
11.21
2.85
-5.58
-14.23
-23.25
-32.63
-42.12
-51.29
-59.63
-66.82
-72.87
-78.12
-83.13
-88.48
-94.54
-101.29
-108.22
-114.43
-118.76
-120.06
-117.53
-110.97
-100.87
-88.26
-74.46
-60.72
-47.97
-36.71
-27.14
-19.19
-12.73
-7.57
-3.49
-0.25
2.31
4.31
5.79
6.71
7.11
7.11
6.99
7.08
7.72
9.07
11.05
13.39
15.68
17.49
18.54
18.73
18.15
17.0
15.49
13.76
11.82
9.58
6.93
3.81
0.26
-3.61
-7.65
-11.72
-15.73
-19.64
-23.43
-27.14
-30.9
-34.92
-39.4
-44.44
-49.84
-55.05
-59.2
-61.33
-60.67
-56.86
-50.07
-40.95
-30.39
-19.3
-8.5
1.44
10.15
17.47
23.39
28.0
31.49
34.09
36.03
37.46
38.47
39.06
39.2
38.89
38.16
37.12
35.91
34.7
33.61
32.7
31.9
31.06
29.96
28.4
26.23
23.43
20.15
16.6
13.05
9.63
6.32
2.95
-0.7
-4.76
-9.14
-13.6
-17.86
-21.73
-25.28
-28.81
-32.73
-37.37
-42.76
-48.54
-53.91
-57.89
-59.5
-58.07
-53.4
-45.8
-36.0
-24.97
-13.73
-3.14
6.16
13.82
19.74
24.07
27.06
28.99
30.1
30.54
30.41
29.77
28.76
27.56
26.32
25.16
24.13
23.28
22.63
22.18
21.87
21.55
20.96
19.86
18.13
15.79
13.01
9.97
6.81
3.51
0.03
-3.69
-7.65
-11.8
-16.13
-20.74
-25.83
-31.58
-38.02
-44.95
-52.0
-58.68
-64.51
-69.01
-71.59
-71.61
-68.46
-61.82
-51.95
-39.82
-26.91
-14.86
-4.94
2.26
6.92
9.69
11.35
12.43
13.12
13.35
12.97
11.99
10.65
9.37
8.55
8.47
9.16
10.45
12.1
13.84
15.53
17.14
18.65
20.05
21.32
22.41
23.42
24.56
26.13
28.4
31.43
35.01
38.65
41.72
43.65
44.07
42.9
40.34
36.72
32.43
27.76
22.88
17.88
12.87
8.08
4.01
1.34
0.79
2.85
7.55
14.42
22.58
31.02
38.83
45.4
50.42
53.86
55.79
56.37
55.78
54.25
52.05
49.44
46.67
43.9
41.23
38.67
36.23
33.97
31.98
30.39
29.26
28.52
27.96
27.27
26.15
24.45
22.16
19.41
16.39
13.25
10.01
6.64
3.07
-0.7
-4.59
-8.44
-12.11
-15.56
-18.84
-22.16
-25.76
-29.89
-34.72
-40.24
-46.18
-51.94
-56.64
-59.27
-59.02
-55.52
-48.98
-40.19
-30.27
-20.41
-11.58
-4.37
0.99
4.64
6.93
8.28
9.05
9.48
9.66
9.59
9.24
8.64
7.84
6.92
5.99
5.11
4.38
3.84
3.5
3.27
2.99
2.43
1.43
-0.11
-2.18
-4.7
-7.61
-10.91
-14.63
-18.78
-23.31
-28.03
-32.73
-37.19
-41.29
-45.04
-48.58
-52.14
-56.08
-60.75
-66.42
-73.03
-80.05
-86.38
-90.54
-91.12
-87.13
-78.46
-65.83
-50.59
-34.32
-18.48
-4.12
8.15
18.21
26.28
32.79
38.22
42.98
47.28
51.2
54.7
57.71
60.14
61.88
62.85
63.11
62.85
62.4
62.13
62.18
62.42
62.41
61.67
59.81
56.8
52.88
48.42
43.73
38.93
33.98
28.78
23.32
17.73
12.24
7.07
2.39
-1.79
-5.54
-9.04
-12.5
-16.11
-19.95
-23.83
-27.17
-29.03
-28.39
-24.48
-17.21
-7.24
4.13
15.41
25.38
33.42
39.46
43.79
46.78
48.64
49.48
49.37
48.45
46.97
45.16
43.21
41.19
39.06
36.78
34.35
31.81
29.29
26.9
24.71
22.68
20.72
18.74
16.68
14.57
12.49
10.54
8.71
6.93
5.05
2.95
0.61
-1.89
-4.4
-6.83
-9.15
-11.39
-13.66
-16.08
-18.84
-22.14
-26.13
-30.77
-35.7
-40.23
-43.47
-44.63
-43.32
-39.76
-34.69
-29.09
-23.88
-19.63
-16.55
-14.57
-13.53
-13.3
-13.81
-15.0
-16.69
-18.65
-20.58
-22.2
-23.32
-23.85
-23.74
-22.98
-21.63
-19.77
-17.58
-15.3
-13.18
-11.46
-10.29
-9.71
-9.68
-10.11
-10.99
-12.43
-14.78
-18.41
-23.64
-30.5
-38.61
-47.36
-56.07
-64.29
-71.99
-79.46
-87.08
-95.01
-102.94
-110.04
-115.18
-117.12
-114.87
-107.79
-95.8
-79.36
-59.51
-37.67
-15.52
5.32
23.53
38.32
49.48
57.32
62.54
66.04
68.73
71.42
74.73
78.98
84.15
89.88
95.54
100.42
103.91
105.69
105.83
104.79
103.14
101.4
99.78
98.11
95.89
92.61
87.99
82.18
75.8
69.61
64.31
60.2
57.12
54.54
51.74
48.1
43.22
37.1
30.12
23.01
16.68
12.05
9.71
9.78
11.78
14.79
17.67
19.38
19.2
16.88
12.66
7.11
1.01
-4.82
-9.66
-13.01
-14.56
-14.25
-12.24
-8.88
-4.73
-0.55
2.88
4.92
5.21
3.82
1.14
-2.25
-5.94
-9.71
-13.58
-17.61
-21.67
-25.45
-28.53
-30.54
-31.38
-31.16
-30.13
-28.56
-26.7
-24.93
-23.76
-23.85
-25.7
-29.41
-34.42
-39.68
-43.95
-46.27
-46.34
-44.5
-41.61
-38.63
-36.33
-35.11
-35.03
-35.87
-37.26
-38.8
-40.0
-40.36
-39.34
-36.52
-31.73
-25.04
-16.79
-7.3
3.23
14.83
27.6
41.45
55.88
69.89
82.12
91.11
95.68
95.17
89.51
79.22
65.31
49.07
31.81
14.64
-1.82
-17.47
-32.67
-47.95
-63.86
-80.63
-98.15
-115.88
-132.91
-148.04
-160.03
-167.8
-170.85
-169.32
-164.08
-156.41
-147.7
-139.06
-131.14
-124.14
-117.87
-111.95
-105.99
-99.56
-92.29
-83.87
-74.1
-62.99
-50.77
-37.88
-24.91
-12.4
-0.74
9.91
19.54
28.26
36.18
43.25
49.37
54.34
58.06
60.56
62.09
63.03
63.8
64.64
65.53
66.25
66.48
65.98
64.74
62.95
60.91
58.86
56.83
54.69
52.16
48.94
44.8
39.64
33.53
26.74
19.66
12.69
6.08
-0.2
-6.4
-12.89
-19.91
-27.48
-35.43
-43.58
-51.92
-60.69
-70.22
-80.67
-91.85
-103.07
-113.31
-121.38
-126.19
-126.93
-123.18
-114.96
-102.71
-87.23
-69.58
-50.88
-32.2
-14.43
1.75
15.89
27.69
37.07
44.09
49.01
52.19
54.1
55.17
55.69
55.77
55.37
54.33
52.47
49.71
46.2
42.55
39.74
39.16
42.19
49.77
61.92
77.56
94.73
111.04
124.4
133.45
137.79
137.77
134.18
127.91
119.78
110.57
100.99
91.77
83.52
76.61
71.08
66.58
62.48
58.15
53.18
47.52
41.55
35.92
31.29
28.1
26.43
25.92
25.91
25.6
24.28
21.52
17.24
11.7
5.41
-0.97
-6.79
-11.56
-15.1
-17.69
-20.11
-23.49
-28.96
-37.13
-47.72
-59.49
-70.66
-79.57
-85.37
-88.17
-88.9
-88.76
-88.69
-89.19
-90.36
-92.11
-94.28
-96.67
-98.94
-100.58
-100.93
-99.42
-95.7
-89.74
-81.79
-72.29
-61.81
-50.92
-40.1
-29.72
-19.96
-10.85
-2.36
5.4
12.23
17.77
21.68
23.75
24.01
22.77
20.52
17.75
14.86
12.01
9.17
6.19
2.87
-0.99
-5.54
-10.83
-16.72
-22.76
-28.1
-31.64
-32.27
-29.32
-22.79
-13.47
-2.67
8.17
17.89
25.86
31.95
36.34
39.35
41.25
42.24
42.5
42.27
41.83
41.42
41.16
41.0
40.76
40.25
39.44
38.55
37.9
37.81
38.37
39.29
40.02
39.87
38.29
35.03
30.18
24.14
17.42
10.48
3.62
-3.1
-9.78
-16.62
-23.81
-31.46
-39.53
-47.76
-55.63
-62.32
-66.81
-68.18
-65.83
-59.81
-50.8
-39.97
-28.61
-17.81
-8.18
0.08
7.07
12.97
17.88
21.83
24.8
26.88
28.28
29.35
30.47
31.92
33.82
36.08
38.52
40.91
43.2
45.41
47.71
50.28
53.18
56.31
59.41
62.14
64.21
65.57
66.38
67.02
67.94
69.48
71.76
74.62
77.75
80.68
83.08
84.86
86.33
88.25
91.64
97.56
106.69
118.99
133.44
148.12
160.42
167.64
167.58
159.19
142.89
120.51
94.85
68.92
45.22
25.32
9.77
-1.54
-8.91
-12.62
-12.85
-9.96
-4.64
2.0
8.67
14.16
17.66
18.84
17.86
15.13
11.14
6.28
0.74
-5.47
-12.47
-20.43
-29.49
-39.71
-51.01
-63.24
-76.12
-89.33
-102.54
-115.47
-128.06
-140.56
-153.54
-167.66
-183.19
-199.49
-214.64
-225.64
-229.18
-222.76
-205.65
-179.32
-146.96
-112.45
-79.21
-49.41
-23.87
-2.46
15.29
29.76
41.15
49.63
55.57
59.59
62.38
64.47
65.96
66.52
65.61
62.73
57.78
51.04
42.97
33.93
23.91
12.56
-0.54
-15.55
-32.22
-49.88
-67.7
-84.92
-101.06
-115.94
-129.62
-142.21
-153.82
-164.46
-174.08
-182.72
-190.5
-197.64
-204.22
-209.9
-213.72
-214.18
-209.7
-199.17
-182.43
-160.4
-134.67
-107.1
-79.25
-52.31
-27.1
-4.3
15.5
31.84
44.52
53.73
59.96
63.93
66.32
67.65
68.25
68.27
67.79
66.94
65.84
64.69
63.66
62.82
62.15
61.51
60.73
59.64
58.17
56.3
54.05
51.43
48.48
45.19
41.65
37.96
34.27
30.74
27.38
24.05
20.46
16.14
10.62
3.62
-4.78
-14.01
-23.02
-30.51
-35.23
-36.33
-33.59
-27.42
-18.72
-8.64
1.73
11.53
20.24
27.66
33.81
38.81
42.74
45.6
47.37
48.02
47.61
46.29
44.27
41.71
38.7
35.25
31.42
27.37
23.36
19.67
16.4
13.42
10.46
7.28
3.97
0.9
-1.3
-2.12
-1.47
0.25
2.16
3.35
3.08
1.09
-2.44
-7.02
-12.12
-17.35
-22.61
-28.05
-34.14
-41.43
-50.4
-61.18
-73.25
-85.26
-95.23
-100.9
-100.42
-92.94
-78.97
-60.25
-39.23
-18.38
0.42
16.17
28.73
38.49
46.05
51.95
56.54
60.03
62.58
64.37
65.61
66.47
66.99
67.05
66.49
65.15
63.08
60.6
58.16
56.14
54.63
53.34
51.65
48.92
44.8
39.39
33.21
26.99
21.32
16.48
12.37
8.62
4.82
0.74
-3.67
-8.22
-12.63
-16.71
-20.38
-23.81
-27.28
-31.19
-35.91
-41.73
-48.72
-56.66
-64.87
-72.24
-77.35
-78.83
-75.71
-67.77
-55.62
-40.51
-24.02
-7.68
7.31
20.23
30.79
39.09
45.48
50.39
54.28
57.46
60.06
62.08
63.48
64.26
64.53
64.45
64.2
63.94
63.79
63.88
64.27
64.94
65.71
66.27
66.19
65.17
63.11
60.17
56.69
53.03
49.37
45.73
41.95
37.87
33.46
28.86
24.31
20.04
16.16
12.6
9.09
5.22
0.6
-5.03
-11.67
-18.93
-25.97
-31.66
-34.75
-34.27
-29.83
-21.76
-11.03
1.07
13.2
24.3
33.71
41.13
46.51
50.0
51.85
52.38
51.91
50.73
49.03
47.01
44.79
42.5
40.23
38.01
35.86
33.82
31.96
30.41
29.25
28.48
27.84
26.98
25.49
23.11
19.82
15.85
11.61
7.53
3.84
0.58
-2.47
-5.6
-9.06
-12.9
-16.9
-20.71
-23.99
-26.62
-28.76
-30.85
-33.47
-37.07
-41.86
-47.56
-53.43
-58.32
-61.03
-60.56
-56.46
-48.98
-38.96
-27.62
-16.17
-5.62
3.4
10.62
16.08
20.04
22.84
24.83
26.28
27.28
27.88
28.03
27.76
27.18
26.45
25.75
25.21
24.87
24.7
24.69
24.77
24.84
24.73
24.27
23.3
21.77
19.75
17.37
14.8
12.15
9.51
6.97
4.57
2.32
0.17
-2.02
-4.4
-7.06
-9.99
-13.07
-16.12
-19.01
-21.7
-24.26
-26.85
-29.65
-32.83
-36.57
-40.98
-46.08
-51.61
-56.92
-60.99
-62.66
-61.07
-55.89
-47.59
-37.25
-26.24
-15.77
-6.64
0.78
6.49
10.66
13.5
15.26
16.22
16.7
16.94
17.11
17.23
17.22
16.99
16.52
15.85
15.09
14.41
13.94
13.74
13.78
13.92
13.94
13.64
12.91
11.73
10.26
8.64
6.98
5.31
3.53
1.53
-0.73
-3.21
-5.78
-8.28
-10.65
-12.86
-15.0
-17.16
-19.45
-21.94
-24.63
-27.5
-30.42
-33.31
-36.1
-38.92
-41.98
-45.61
-50.01
-55.11
-60.4
-65.02
-67.86
-67.95
-64.75
-58.37
-49.51
-39.3
-28.93
-19.33
-11.06
-4.22
1.35
5.9
9.63
12.64
15.01
16.81
18.18
19.29
20.26
21.15
21.85
22.19
22.02
21.29
20.12
18.72
17.34
16.12
15.04
13.97
12.75
11.23
9.37
7.18
4.74
2.15
-0.53
-3.24
-5.97
-8.72
-11.52
-14.4
-17.35
-20.34
-23.22
-25.81
-27.91
-29.4
-30.31
-30.84
-31.38
-32.36
-34.16
-36.87
-40.13
-43.17
-44.96
-44.51
-41.16
-34.85
-26.12
-15.93
-5.42
4.42
12.89
19.68
24.74
28.24
30.44
31.59
31.95
31.72
31.09
30.21
29.22
28.24
27.35
26.52
25.72
24.86
23.95
23.06
22.3
21.7
21.17
20.46
19.22
17.24
14.47
11.09
7.43
3.82
0.46
-2.59
-5.42
-8.17
-11.03
-14.11
-17.53
-21.26
-25.21
-29.18
-32.98
-36.46
-39.61
-42.53
-45.44
-48.69
-52.58
-57.28
-62.61
-67.99
-72.39
-74.63
-73.66
-68.96
-60.77
-49.98
-37.93
-26.02
-15.42
-6.84
-0.64
3.17
4.86
4.95
4.17
3.32
3.17
4.3
6.98
11.25
16.98
24.02
32.14
41.04
50.23
59.01
66.61
72.36
75.88
77.18
76.61
74.73
72.06
68.98
65.68
62.22
58.6
54.8
50.82
46.67
42.33
37.75
32.85
27.63
22.16
16.6
11.19
6.08
1.32
-3.22
-7.79
-12.69
-18.17
-24.43
-31.58
-39.77
-49.08
-59.47
-70.53
-81.35
-90.63
-96.86
-98.85
-96.06
-88.84
-78.33
-66.06
-53.57
-42.01
-31.98
-23.61
-16.64
-10.65
-5.13
0.31
5.97
11.94
18.15
24.45
30.63
36.54
42.08
47.16
51.65
55.42
58.32
60.32
61.52
62.11
62.28
62.09
61.4
59.96
57.46
53.8
49.14
43.9
38.6
33.7
29.42
25.7
22.32
19.0
15.57
11.97
8.24
4.41
0.5
-3.49
-7.57
-11.69
-15.82
-20.02
-24.49
-29.5
-35.27
-41.66
-48.1
-53.5
-56.62
-56.43
-52.43
-44.87
-34.63
-22.91
-10.85
0.57
10.74
19.31
26.15
31.31
35.01
37.62
39.51
40.99
42.25
43.3
44.07
44.49
44.58
44.42
44.14
43.83
43.51
43.19
42.8
42.28
41.46
40.16
38.21
35.53
32.2
28.5
24.75
21.26
18.16
15.4
12.78
10.07
7.16
4.07
0.91
-2.2
-5.17
-8.02
-10.83
-13.72
-16.86
-20.44
-24.68
-29.74
-35.57
-41.73
-47.32
-51.19
-52.18
-49.62
-43.59
-34.93
-24.95
-15.04
-6.28
0.78
6.06
9.78
12.25
13.73
14.46
14.65
14.48
14.09
13.55
12.88
12.04
11.03
9.92
8.86
8.02
7.59
7.67
8.22
9.08
9.93
10.43
10.27
9.37
7.83
5.96
4.06
2.35
0.86
-0.5
-1.86
-3.22
-4.49
-5.58
-6.49
-7.37
-8.47
-10.02
-12.12
-14.76
-17.76
-20.96
-24.22
-27.44
-30.59
-33.69
-36.86
-40.33
-44.36
-49.18
-54.7
-60.4
-65.31
-68.18
-67.86
-63.71
-55.85
-45.21
-33.21
-21.39
-10.91
-2.38
4.15
8.97
12.55
15.3
17.56
19.57
21.44
23.17
24.62
25.62
25.99
25.69
24.85
23.72
22.59
21.69
21.15
20.93
20.93
21.01
20.97
20.64
19.92
18.75
17.18
15.32
13.36
11.48
9.82
8.42
7.26
6.19
5.03
3.63
1.9
-0.11
-2.25
-4.31
-6.1
-7.58
-8.86
-10.15
-11.7
-13.65
-15.99
-18.56
-21.09
-23.39
-25.34
-27.04
-28.72
-30.72
-33.35
-36.78
-40.88
-45.16
-48.76
-50.67
-50.0
-46.19
-39.3
-29.97
-19.31
-8.58
1.07
8.9
14.66
18.55
21.08
22.83
24.31
25.8
27.35
28.78
29.83
30.24
29.81
28.46
26.21
23.26
19.91
16.6
13.82
11.9
10.93
10.68
10.64
10.27
9.2
7.4
5.16
2.92
1.02
-0.42
-1.53
-2.55
-3.65
-4.89
-6.18
-7.45
-8.75
-10.21
-12.09
-14.54
-17.59
-21.05
-24.6
-27.91
-30.76
-33.12
-35.13
-37.06
-39.28
-42.12
-45.73
-49.94
-54.18
-57.52
-58.93
-57.56
-53.02
-45.52
-35.77
-24.8
-13.69
-3.32
5.67
12.99
18.62
22.73
25.68
27.86
29.58
31.04
32.3
33.36
34.19
34.83
35.29
35.55
35.61
35.43
35.01
34.43
33.76
33.06
32.3
31.39
30.2
28.61
26.54
24.04
21.23
18.32
15.52
13.02
10.88
9.01
7.22
5.31
3.15
0.77
-1.67
-3.97
-6.01
-7.83
-9.59
-11.53
-13.82
-16.5
-19.47
-22.58
-25.63
-28.51
-31.19
-33.78
-36.49
-39.57
-43.21
-47.35
-51.58
-55.08
-56.87
-56.0
-51.98
-44.91
-35.53
-24.91
-14.21
-4.38
3.97
10.57
15.47
18.88
21.18
22.81
24.14
25.45
26.78
28.02
28.92
29.28
28.99
28.12
26.9
25.61
24.48
23.65
23.13
22.83
22.63
22.38
21.93
21.2
20.09
18.63
16.91
15.07
13.28
11.63
10.08
8.57
6.96
5.22
3.38
1.51
-0.31
-2.05
-3.7
-5.27
-6.79
-8.33
-9.99
-11.9
-14.13
-16.62
-19.17
-21.54
-23.56
-25.26
-26.86
-28.72
-31.18
-34.41
-38.45
-43.11
-48.06
-52.79
-56.56
-58.55
-57.94
-54.25
-47.51
-38.36
-27.82
-17.06
-7.05
1.58
8.6
14.03
18.09
21.09
23.36
25.21
26.84
28.32
29.57
30.44
30.88
30.94
30.78
30.6
30.61
30.92
31.54
32.42
33.38
34.17
34.52
34.22
33.22
31.68
29.91
28.23
26.88
25.89
25.11
24.4
23.62
22.8
21.99
21.18
20.26
19.01
17.23
14.81
11.79
8.35
4.74
1.18
-2.15
-5.15
-7.89
-10.58
-13.52
-17.04
-21.28
-26.05
-30.72
-34.35
-35.93
-34.7
-30.44
-23.54
-14.86
-5.49
3.52
11.39
17.71
22.39
25.56
27.46
28.42
28.76
28.79
28.73
28.7
28.65
28.43
27.92
27.05
25.93
24.78
23.85
23.3
23.21
23.46
23.86
24.2
24.24
23.86
22.99
21.71
20.11
18.32
16.4
14.32
12.08
9.67
7.18
4.69
2.28
-0.05
-2.37
-4.82
-7.47
-10.35
-13.42
-16.55
-19.59
-22.38
-24.83
-26.94
-28.88
-31.02
-33.78
-37.51
-42.24
-47.5
-52.33
-55.51
-55.97
-53.12
-47.03
-38.44
-28.44
-18.19
-8.68
-0.52
6.01
10.93
14.47
17.01
18.96
20.64
22.22
23.64
24.77
25.44
25.61
25.34
24.81
24.21
23.71
23.47
23.54
23.85
24.3
24.72
24.93
24.82
24.33
23.44
22.21
20.71
19.05
17.38
15.83
14.49
13.34
12.18
10.78
8.97
6.74
4.18
1.48
-1.24
-3.99
-6.85
-9.94
-13.3
-16.84
-20.36
-23.64
-26.49
-28.88
-30.88
-32.77
-34.94
-37.8
-41.52
-45.87
-50.03
-52.81
-53.01
-49.82
-43.22
-33.91
-23.08
-12.02
-1.71
7.32
14.94
21.23
26.41
30.66
34.18
37.17
39.76
42.1
44.19
45.93
47.22
47.97
48.23
48.2
48.18
48.5
49.34
50.75
52.57
54.5
56.27
57.65
58.49
58.77
58.49
57.7
56.44
54.78
52.77
50.4
47.64
44.4
40.61
36.24
31.37
26.14
20.82
15.67
10.9
6.64
2.86
-0.6
-4.02
-7.76
-12.17
-17.45
-23.61
-30.21
-36.42
-41.18
-43.4
-42.43
-38.22
-31.4
-23.07
-14.41
-6.36
0.54
6.17
10.63
14.14
16.91
19.13
21.0
22.68
24.26
25.73
26.97
27.8
28.08
27.7
26.69
25.14
23.23
21.2
19.28
17.62
16.25
14.95
13.36
11.06
7.73
3.3
-2.02
-7.87
-13.91
-19.92
-25.98
-32.27
-39.04
-46.42
-54.3
-62.42
-70.45
-78.07
-85.07
-91.4
-97.13
-102.43
-107.59
-113.02
-119.06
-125.77
-132.74
-138.95
-142.96
-143.33
-139.16
-130.46
-118.14
-103.82
-89.21
-75.72
-64.23
-55.14
-48.41
-43.76
-40.79
-38.93
-37.62
-36.34
-34.73
-32.66
-30.18
-27.5
-24.87
-22.53
-20.57
-18.93
-17.43
-15.85
-14.07
-12.14
-10.3
-8.82
-7.83
-7.3
-7.0
-6.64
-6.01
-5.03
-3.72
-2.14
-0.31
1.84
4.42
7.41
10.71
14.1
17.23
19.76
21.41
22.02
21.62
20.37
18.49
16.22
13.72
11.08
8.25
5.15
1.59
-2.64
-7.76
-13.84
-20.62
-27.42
-33.1
-36.34
-36.06
-31.81
-23.91
-13.45
-1.85
9.5
19.62
28.01
34.6
39.55
43.2
45.92
48.07
49.96
51.69
53.16
54.12
54.28
53.48
51.78
49.46
46.91
44.5
42.43
40.74
39.37
38.15
36.91
35.48
33.69
31.46
28.82
25.93
23.07
20.5
18.35
16.56
14.86
12.9
10.44
7.49
4.26
1.09
-1.78
-4.33
-6.75
-9.27
-12.04
-15.01
-17.95
-20.65
-23.02
-25.17
-27.34
-29.77
-32.68
-36.21
-40.44
-45.38
-50.75
-55.93
-59.9
-61.47
-59.63
-53.97
-44.86
-33.39
-20.97
-8.93
1.83
10.9
18.29
24.21
28.96
32.81
36.04
38.87
41.41
43.7
45.67
47.21
48.26
48.83
49.01
48.95
48.8
48.76
48.99
49.63
50.71
52.12
53.58
54.74
55.34
55.2
54.32
52.79
50.76
48.35
45.66
42.78
39.8
36.8
33.78
30.74
27.63
24.4
21.05
17.61
14.11
10.6
7.07
3.54
-0.05
-3.81
-7.89
-12.52
-17.87
-23.88
-30.11
-35.72
-39.63
-40.79
-38.6
-33.11
-25.0
-15.39
-5.5
3.69
11.56
17.86
22.64
26.11
28.56
30.33
31.72
32.93
33.98
34.72
34.95
34.48
33.25
31.42
29.32
27.32
25.76
24.83
24.53
24.67
24.93
24.93
24.35
23.0
20.93
18.34
15.64
13.19
11.24
9.78
8.62
7.39
5.8
3.71
1.18
-1.62
-4.45
-7.18
-9.8
-12.43
-15.26
-18.52
-22.36
-26.85
-31.95
-37.45
-43.14
-48.75
-54.11
-59.2
-64.17
-69.24
-74.55
-79.95
-84.83
-88.2
-88.88
-85.98
-79.25
-69.26
-57.23
-44.64
-32.74
-22.32
-13.68
-6.81
-1.54
2.31
4.97
6.72
7.94
8.93
9.93
11.0
12.1
13.16
14.09
14.91
15.65
16.37
17.11
17.88
18.65
19.33
19.8
19.88
19.47
18.57
17.3
15.86
14.47
13.2
11.98
10.61
8.89
6.75
4.29
1.78
-0.49
-2.36
-3.89
-5.26
-6.75
-8.51
-10.55
-12.76
-15.01
-17.22
-19.4
-21.59
-23.79
-26.04
-28.45
-31.26
-34.8
-39.28
-44.47
-49.52
-53.1
-53.78
-50.56
-43.32
-32.9
-20.79
-8.65
2.24
11.19
18.06
23.12
26.73
29.25
30.97
32.06
32.62
32.67
32.25
31.38
