-11.68
-1.32
7.8
15.41
21.46
26.12
29.69
32.56
35.13
37.64
40.18
42.63
44.82
46.56
47.78
48.49
48.79
48.78
48.54
48.12
47.55
46.86
46.08
45.23
44.28
43.16
41.84
40.28
38.51
36.59
34.53
32.29
29.8
26.95
23.74
20.22
16.55
12.89
9.34
5.96
2.7
-0.56
-3.96
-7.64
-11.7
-16.13
-20.8
-25.46
-29.79
-33.34
-35.64
-36.26
-34.88
-31.39
-25.92
-18.89
-10.92
-2.67
5.21
12.27
18.25
23.11
26.9
29.75
31.74
32.94
33.4
33.22
32.57
31.71
30.96
30.58
30.7
31.29
32.16
33.07
33.81
34.26
34.34
33.96
33.03
31.43
29.1
26.14
22.82
19.5
16.53
14.11
12.17
10.45
8.58
6.26
3.34
-0.14
-3.97
-7.88
-11.63
-15.11
-18.31
-21.26
-24.06
-26.74
-29.39
-32.2
-35.44
-39.38
-44.07
-49.21
-54.06
-57.58
-58.77
-56.97
-52.07
-44.51
-35.09
-24.76
-14.37
-4.65
3.85
10.8
16.07
19.76
22.2
23.82
24.99
25.97
26.86
27.7
28.5
29.31
30.1
30.76
31.01
30.6
29.4
27.59
25.56
23.78
22.56
21.92
21.58
21.14
20.26
18.77
16.68
14.11
11.17
7.96
4.57
1.14
-2.12
-5.02
-7.39
-9.27
-10.87
-12.51
-14.52
-17.07
-20.11
-23.39
-26.59
-29.49
-32.06
-34.5
-37.11
-40.24
-44.06
-48.52
-53.26
-57.62
-60.79
-61.96
-60.53
-56.29
-49.47
-40.73
-30.96
-21.08
-11.89
-3.91
2.64
7.82
11.92
15.34
18.4
21.32
24.05
26.45
28.31
29.48
29.96
29.84
29.27
28.42
27.47
26.55
25.81
25.29
25.01
24.82
24.53
23.92
22.84
21.28
19.39
17.38
15.43
13.6
11.83
10.01
8.03
5.85
3.56
1.24
-1.04
-3.29
-5.6
-8.08
-10.79
-13.76
-16.88
-20.04
-23.11
-26.01
-28.75
-31.46
-34.32
-37.51
-41.11
-45.04
-48.9
-52.1
-53.85
-53.5
-50.62
-45.21
-37.68
-28.73
-19.11
-9.51
-0.46
7.65
14.54
20.03
24.07
26.85
28.73
30.14
31.41
32.7
33.96
35.03
35.73
35.97
35.75
35.18
34.4
33.59
32.87
32.31
31.82
31.22
30.2
28.47
25.81
22.23
17.9
13.14
8.29
3.62
-0.73
-4.76
-8.54
-12.16
-15.68
-19.13
-22.44
-25.55
-28.36
-30.8
-32.85
-34.61
-36.31
-38.32
-40.95
-44.34
-48.22
-51.92
-54.52
-55.12
-53.14
-48.55
-41.89
-34.03
-25.96
-18.45
-11.96
-6.59
-2.23
1.32
4.21
6.54
8.43
9.99
11.35
12.66
13.94
15.16
16.23
17.09
17.79
18.5
19.37
20.49
21.74
22.92
23.75
24.07
23.89
23.37
22.75
22.2
21.86
21.76
21.83
22.0
22.17
22.19
21.9
21.13
19.75
17.73
15.18
12.3
9.39
6.69
4.33
2.26
0.24
-2.11
-5.31
-9.81
-15.96
-23.72
-32.65
-41.78
-49.85
-55.51
-57.74
-56.01
-50.51
-41.94
-31.38
-19.99
-8.73
1.69
10.82
18.48
24.64
29.39
32.89
35.25
36.56
36.82
35.96
33.99
31.03
27.34
23.33
19.41
15.88
12.88
10.38
8.26
6.38
4.66
3.08
1.62
0.25
-1.07
-2.34
-3.55
-4.62
-5.51
-6.21
-6.81
-7.5
-8.47
-9.89
-11.79
-14.06
-16.47
-18.79
-20.84
-22.55
-23.96
-25.19
-26.36
-27.62
-29.12
-31.1
-33.77
-37.24
-41.4
-45.73
-49.39
-51.37
-50.79
-47.19
-40.66
-31.86
-21.77
-11.47
-1.85
6.53
13.4
18.81
22.95
26.1
28.57
30.58
32.3
33.77
34.97
35.84
36.33
36.45
36.25
35.81
35.26
34.76
34.45
34.44
34.73
35.18
35.56
35.56
34.93
33.58
31.61
29.27
26.87
24.68
22.83
21.32
20.04
18.79
17.33
15.44
12.98
9.98
6.6
3.11
-0.23
-3.25
-5.96
-8.52
-11.2
-14.23
-17.67
-21.31
-24.64
-26.88
-27.26
-25.19
-20.58
-13.83
-5.73
2.74
10.78
17.89
23.85
28.67
32.39
35.05
36.64
37.22
36.93
36.0
34.64
33.08
31.45
29.84
28.31
26.91
25.69
24.69
23.93
23.39
22.95
22.49
21.83
20.78
19.24
17.14
14.53
11.55
8.35
5.11
2.0
-0.83
-3.33
-5.5
-7.47
-9.4
-11.44
-13.66
-16.05
-18.49
-20.87
-23.15
-25.35
-27.57
-29.93
-32.58
-35.63
-39.11
-42.95
-46.87
-50.34
-52.7
-53.28
-51.54
-47.32
-40.85
-32.7
-23.68
-14.58
-6.07
1.4
7.65
12.7
16.73
19.93
22.47
24.41
25.78
26.6
26.91
26.79
26.38
25.81
25.17
24.52
23.9
23.35
22.86
22.41
21.92
21.3
20.44
19.28
17.84
16.15
14.32
12.37
10.33
8.19
5.94
3.57
1.12
-1.41
-3.97
-6.5
-8.93
-11.14
-13.05
-14.65
-15.98
-17.14
-18.21
-19.18
-19.9
-20.16
-19.76
-18.6
-16.83
-14.79
-13.03
-12.06
-12.31
-13.86
-16.4
-19.28
-21.68
-22.84
-22.28
-19.94
-16.19
-11.56
-6.59
-1.67
3.03
7.47
11.67
15.61
19.2
22.32
24.84
26.63
27.58
27.6
26.72
25.1
23.03
20.87
18.92
17.36
16.22
15.44
14.97
14.8
14.93
15.28
15.69
15.93
15.84
15.31
14.37
13.03
11.27
8.95
5.96
2.34
-1.67
-5.68
-9.33
-12.42
-15.0
-17.32
-19.65
-22.18
-24.92
-27.77
-30.55
-33.07
-35.24
-37.03
-38.57
-40.1
-41.94
-44.37
-47.48
-51.04
-54.43
-56.82
-57.31
-55.23
-50.33
-42.88
-33.53
-23.14
-12.58
-2.55
6.5
14.33
20.89
26.23
30.42
33.59
35.8
37.19
37.9
38.11
37.98
37.63
37.07
36.27
35.18
33.81
32.27
30.71
29.3
28.09
27.03
25.98
24.74
23.17
21.2
18.89
16.41
13.96
11.7
9.69
7.86
6.03
4.0
1.64
-1.05
-4.0
-7.05
-10.12
-13.17
-16.21
-19.34
-22.65
-26.29
-30.36
-34.94
-39.86
-44.71
-48.79
-51.28
-51.48
-49.04
-44.1
-37.23
-29.24
-20.99
-13.11
-5.99
0.24
5.61
10.2
14.07
17.24
19.68
21.38
22.42
22.9
22.97
22.77
22.35
21.75
20.97
20.09
19.21
18.44
17.74
16.99
15.98
14.55
12.7
10.58
8.45
6.53
4.89
3.41
1.86
0.05
-2.06
-4.38
-6.76
-9.04
-11.18
-13.23
-15.32
-17.52
-19.86
-22.32
-24.83
-27.31
-29.76
-32.18
-34.65
-37.28
-40.24
-43.69
-47.69
-52.07
-56.36
-59.82
-61.61
-61.01
-57.68
-51.75
-43.77
-34.52
-24.82
-15.33
-6.54
1.23
7.78
13.03
17.01
19.89
21.96
23.54
24.87
26.04
27.0
27.64
27.82
27.54
26.9
26.11
25.37
24.79
24.38
24.01
23.53
22.77
21.67
20.19
18.38
16.33
14.14
11.9
9.67
7.44
5.2
2.9
0.55
-1.83
-4.2
-6.52
-8.85
-11.25
-13.79
-16.48
-19.3
-22.19
-25.13
-28.13
-31.2
-34.33
-37.49
-40.71
-44.13
-47.97
-52.36
-57.15
-61.78
-65.29
-66.63
-64.99
-60.11
-52.34
-42.5
-31.61
-20.61
-10.23
-0.97
6.88
13.17
17.92
21.36
23.8
25.62
27.1
28.35
29.36
30.01
30.27
30.16
29.82
29.43
29.14
29.06
29.17
29.4
29.59
29.59
29.26
28.54
27.39
25.82
23.85
21.51
18.86
16.06
13.25
10.59
8.12
5.75
3.33
0.73
-2.08
-5.01
-7.91
-10.61
-13.05
-15.23
-17.21
-19.06
-20.92
-23.03
-25.69
-29.13
-33.35
-37.92
-42.01
-44.59
-44.72
-41.86
-36.03
-27.74
-17.85
-7.33
2.97
12.35
20.36
26.78
31.61
35.01
37.22
38.49
39.01
38.92
38.35
37.45
36.38
35.34
34.45
33.72
33.13
32.54
31.89
31.13
30.25
29.29
28.23
27.02
25.58
23.81
21.65
19.13
16.33
13.38
10.41
7.46
4.48
1.34
-2.04
-5.69
-9.48
-13.23
-16.74
-19.9
-22.74
-25.39
-28.1
-31.11
-34.71
-38.99
-43.81
-48.65
-52.63
-54.7
-53.95
-49.93
-42.82
-33.38
-22.73
-11.97
-1.97
6.72
13.89
19.54
23.82
26.95
29.19
30.82
32.04
32.96
33.63
34.01
34.1
33.87
33.35
32.59
31.63
30.55
29.46
28.45
27.57
26.79
26.0
25.03
23.71
21.94
19.72
17.14
14.35
11.48
8.56
5.64
2.7
-0.23
-3.08
-5.82
-8.43
-10.98
-13.57
-16.28
-19.13
-22.08
-25.07
-28.03
-31.03
-34.22
-37.87
-42.21
-47.28
-52.74
-57.85
-61.55
-62.77
-60.77
-55.4
-47.12
-36.84
-25.63
-14.45
-4.02
5.24
13.09
19.45
24.4
28.14
30.97
33.17
34.95
36.37
37.36
37.82
37.68
36.99
35.94
34.76
33.68
32.82
32.11
31.4
30.54
29.43
28.07
26.46
24.63
22.52
20.09
17.32
14.26
11.08
7.94
4.95
2.13
-0.56
-3.17
-5.77
-8.39
-11.08
-13.86
-16.76
-19.77
-22.81
-25.77
-28.57
-31.18
-33.72
-36.41
-39.57
-43.51
-48.34
-53.84
-59.38
-63.97
-66.5
-66.02
-62.11
-54.95
-45.28
-34.09
-22.42
-11.06
-0.63
8.51
16.12
22.13
26.65
30.0
32.53
34.55
36.17
37.32
37.88
37.8
37.23
36.39
35.54
34.81
34.17
33.5
32.68
31.65
30.46
29.17
27.8
26.34
24.75
22.96
20.91
18.59
16.05
13.4
10.77
8.31
6.11
4.18
2.41
0.68
-1.15
-3.15
-5.35
-7.72
-10.17
-12.63
-15.05
-17.45
-19.93
-22.7
-25.99
-29.91
-34.31
-38.71
-42.34
-44.31
-43.87
-40.6
-34.55
-26.2
-16.38
-5.98
4.07
13.07
20.55
26.33
30.53
33.4
35.26
36.34
36.75
36.57
35.88
34.85
33.7
32.65
31.79
31.09
30.47
29.85
29.24
28.68
28.19
27.7
27.08
26.16
24.84
23.08
20.91
18.4
15.63
12.69
9.66
6.63
3.66
0.71
-2.26
-5.32
-8.47
-11.71
-14.98
-18.25
-21.47
-24.6
-27.57
-30.36
-33.03
-35.75
-38.82
-42.56
-47.1
-52.26
-57.42
-61.62
-63.76
-62.95
-58.76
-51.39
-41.6
-30.42
-18.92
-7.96
1.93
10.42
17.39
22.8
26.76
29.5
31.38
32.73
33.78
34.61
35.11
35.17
34.73
33.85
32.74
31.59
30.6
29.84
29.35
29.02
28.74
28.31
27.59
26.48
24.95
23.05
20.87
18.53
16.11
13.67
11.21
8.7
6.08
3.32
0.42
-2.61
-5.72
-8.9
-12.16
-15.55
-19.13
-22.9
-26.78
-30.61
-34.21
-37.4
-40.18
-42.72
-45.37
-48.57
-52.63
-57.56
-62.92
-67.83
-71.17
-71.84
-69.16
-63.05
-54.06
-43.18
-31.57
-20.26
-9.94
-0.93
6.71
13.14
18.57
23.22
27.29
30.89
34.05
36.72
38.8
40.2
40.93
41.06
40.75
40.19
39.59
39.06
38.65
38.3
37.9
37.4
36.79
36.15
35.58
35.11
34.66
34.05
33.05
31.43
29.05
25.85
21.87
17.21
12.05
6.6
1.07
-4.37
-9.64
-14.67
-19.44
-23.87
-27.84
-31.23
-33.99
-36.18
-38.06
-40.05
-42.64
-46.29
-51.23
-57.36
-64.12
-70.6
-75.69
-78.29
-77.64
-73.47
-66.06
-56.16
-44.74
-32.77
-21.04
-10.05
0.03
9.21
17.69
25.72
33.5
41.17
48.7
55.86
62.3
67.59
71.32
73.18
73.03
70.94
67.2
62.25
56.65
50.95
45.55
40.65
36.21
32.09
28.13
24.28
20.6
17.2
14.12
11.31
8.6
5.79
2.68
-0.83
-4.81
-9.29
-14.25
-19.67
-25.48
-31.57
-37.83
-44.22
-50.76
-57.51
-64.37
-70.95
-76.56
-80.31
-81.35
-79.16
-73.69
-65.36
-54.98
-43.5
-31.82
-20.69
-10.63
-1.92
5.33
11.19
15.78
19.24
21.66
23.13
23.68
23.4
22.44
21.0
19.37
17.81
16.57
15.86
15.77
16.24
17.12
18.11
18.89
19.17
18.82
17.9
16.68
15.51
14.79
14.8
15.66
17.31
19.46
21.69
23.45
24.25
23.76
21.93
19.07
15.72
12.53
10.06
8.62
8.2
8.43
8.69
8.21
6.36
2.81
-2.28
-8.26
-14.08
-18.62
-21.02
-20.88
-18.32
-13.94
-8.56
-3.0
2.08
6.33
9.66
12.13
13.93
15.2
16.04
16.46
16.47
16.03
15.19
14.02
12.64
11.2
9.84
8.7
7.91
7.51
7.48
7.69
7.91
7.9
7.42
6.37
4.76
2.7
0.41
-1.97
-4.3
-6.52
-8.66
-10.76
-12.88
-15.02
-17.16
-19.23
-21.19
-23.0
-24.67
-26.19
-27.55
-28.76
-29.85
-30.97
-32.38
-34.35
-37.05
-40.39
-43.98
-47.16
-49.18
-49.36
-47.28
-42.8
-36.16
-27.81
-18.45
-8.81
0.38
8.59
15.55
21.26
25.91
29.78
33.11
36.01
38.49
40.48
41.92
42.75
42.95
42.49
41.39
39.76
37.72
35.41
32.89
30.17
27.17
23.83
20.25
16.62
13.19
10.16
7.56
5.29
3.18
1.07
-1.11
-3.3
-5.44
-7.44
-9.25
-10.88
-12.37
-13.85
-15.49
-17.49
-20.0
-23.07
-26.53
-29.99
-32.86
-34.47
-34.26
-31.89
-27.37
-21.04
-13.53
-5.57
2.11
8.96
14.62
18.94
22.01
24.03
25.35
26.37
27.48
28.92
30.75
32.79
34.62
35.79
35.87
34.69
32.33
29.17
25.71
22.47
19.78
17.68
15.98
14.33
12.41
10.13
7.6
5.1
2.89
1.07
-0.5
-2.09
-4.05
-6.56
-9.66
-13.24
-17.1
-21.06
-25.02
-28.98
-33.03
-37.32
-41.94
-46.86
-51.85
-56.42
-59.93
-61.7
-61.2
-58.18
-52.73
-45.3
-36.57
-27.36
-18.53
-10.75
-4.47
0.24
3.62
6.12
8.27
10.46
12.89
15.49
18.09
20.46
22.4
23.81
24.67
25.05
25.04
24.78
24.39
23.94
23.46
22.92
22.29
21.52
20.57
19.38
17.9
16.11
14.07
11.86
9.61
7.41
5.21
2.83
0.11
-3.08
-6.65
-10.37
-13.95
-17.14
-19.91
-22.42
-24.99
-27.96
-31.53
-35.62
-39.79
-43.32
-45.36
-45.18
-42.42
-37.14
-29.81
-21.19
-12.12
-3.39
4.37
10.77
15.65
19.07
21.26
22.55
23.25
23.59
23.7
23.59
23.25
22.61
21.69
20.52
19.27
18.12
17.26
16.82
16.71
16.75
16.7
16.37
15.71
14.76
13.62
12.36
10.97
9.39
7.52
5.36
2.95
0.4
-2.14
-4.59
-6.84
-8.87
-10.7
-12.38
-14.04
-15.88
-18.13
-20.93
-24.21
-27.59
-30.38
-31.73
-30.93
-27.57
-21.77
-14.11
-5.45
3.28
11.33
18.29
23.96
28.37
31.62
33.8
34.99
35.33
34.98
34.19
33.13
31.93
30.62
29.16
27.54
25.8
24.07
22.47
21.11
19.99
19.02
18.07
17.0
15.7
14.11
12.2
9.97
7.47
4.75
1.83
-1.24
-4.44
-7.73
-11.03
-14.28
-17.39
-20.36
-23.18
-25.93
-28.65
-31.41
-34.13
-36.61
-38.47
-39.23
-38.37
-35.54
-30.67
-24.05
-16.25
-8.04
-0.17
6.78
12.49
16.91
20.2
22.63
24.44
25.83
26.85
27.43
27.46
26.84
25.57
23.77
21.66
19.5
17.54
15.92
14.66
13.68
12.83
11.92
10.8
9.41
7.73
5.82
3.76
1.6
-0.62
-2.9
-5.28
-7.76
-10.35
-13.01
-15.69
-18.3
-20.81
-23.17
-25.41
-27.61
-29.88
-32.35
-35.15
-38.28
-41.55
-44.5
-46.47
-46.73
-44.72
-40.25
-33.61
-25.48
-16.73
-8.21
-0.51
6.06
11.41
15.62
18.8
21.07
22.57
23.42
23.78
23.8
23.59
23.21
22.71
22.09
21.36
20.55
19.71
18.84
17.93
16.95
15.83
14.52
12.99
11.23
9.22
7.0
4.62
2.17
-0.27
-2.64
-4.98
-7.37
-9.93
-12.73
-15.75
-18.88
-21.95
-24.85
-27.53
-30.06
-32.59
-35.3
-38.38
-41.87
-45.58
-49.08
-51.73
-52.83
-51.8
-48.35
-42.59
-34.97
-26.17
-16.94
-7.99
0.12
7.0
12.42
16.33
18.88
20.31
20.95
21.12
21.07
20.92
20.73
20.47
20.11
19.63
19.08
18.5
17.94
17.4
16.88
16.37
15.87
15.34
14.74
13.94
12.84
11.34
9.46
7.34
5.17
3.1
1.17
-0.68
-2.56
-4.51
-6.48
-8.38
-10.11
-11.74
-13.45
-15.54
-18.21
-21.54
-25.29
-28.93
-31.8
-33.14
-32.43
-29.43
-24.31
-17.54
-9.78
-1.73
6.0
12.89
18.6
22.92
25.8
27.38
27.89
27.67
27.02
26.21
25.34
24.44
23.47
22.35
21.05
19.61
18.17
16.9
15.94
15.31
14.91
14.53
13.96
13.07
11.88
10.45
8.87
7.14
5.15
2.81
0.09
-2.87
-5.87
-8.73
-11.34
-13.8
-16.24
-18.84
-21.68
-24.79
-28.21
-31.95
-35.98
-40.08
-43.75
-46.29
-46.88
-44.94
-40.28
-33.24
-24.55
-15.12
-5.81
2.77
10.3
16.66
21.89
26.01
29.08
31.11
32.19
32.46
32.17
31.55
30.77
29.88
28.81
27.5
25.98
24.44
23.13
22.29
21.97
21.94
21.85
21.26
19.97
17.98
15.54
12.99
10.58
8.4
6.36
4.3
2.02
-0.58
-3.54
-6.8
-10.25
-13.77
-17.22
-20.5
-23.57
-26.49
-29.48
-32.78
-36.63
-41.07
-45.77
-50.05
-52.96
-53.5
-51.02
-45.43
-37.23
-27.41
-17.1
-7.25
1.51
8.94
15.01
19.79
23.39
25.97
27.72
28.91
29.8
30.53
31.13
31.48
31.4
30.72
29.43
27.64
25.57
23.47
21.59
20.1
19.05
18.33
17.71
16.91
15.66
13.85
11.6
9.14
6.8
4.82
3.2
1.71
-0.04
-2.42
-5.65
-9.73
-14.42
-19.38
-24.23
-28.7
-32.67
-36.15
-39.34
-42.46
-45.77
-49.35
-53.02
-56.25
-58.34
-58.5
-56.18
-51.26
-44.07
-35.31
-25.83
-16.45
-7.75
-0.12
6.3
11.48
15.54
18.66
21.09
23.03
24.62
25.87
26.67
26.89
26.45
25.44
24.1
22.71
21.54
20.71
20.26
20.13
20.22
20.4
20.51
20.33
19.67
18.45
16.74
14.78
12.82
10.98
9.2
7.23
4.83
1.93
-1.36
-4.74
-7.89
-10.61
-12.86
-14.77
-16.56
-18.46
-20.71
-23.46
-26.76
-30.47
-34.15
-37.14
-38.65
-37.99
-34.75
-28.95
-21.01
-11.66
-1.75
7.89
16.57
23.8
29.37
33.31
35.86
37.4
38.27
38.73
38.88
38.73
38.24
37.45
36.43
35.34
34.32
33.48
32.84
32.35
31.93
31.49
30.97
30.4
29.83
29.27
28.71
28.05
27.21
26.12
24.77
23.25
21.71
20.32
19.25
18.6
18.34
18.3
18.16
17.56
16.24
14.11
11.35
8.33
5.44
2.96
1.04
-0.28
-0.95
-0.71
0.91
4.57
11.04
20.96
34.64
51.85
71.6
91.94
110.15
123.23
128.73
125.52
114.21
96.99
76.83
56.58
38.33
23.12
11.28
2.83
-2.3
-4.21
-3.22
-0.03
4.36
8.94
12.97
16.12
18.45
20.15
21.27
21.52
20.23
16.59
10.06
0.74
-10.48
-22.03
-32.16
-39.55
-43.67
-44.89
-44.24
-42.91
-41.88
-41.69
-42.44
-43.9
-45.63
-47.03
-47.45
-46.37
-43.45
-38.78
-32.76
-26.04
-19.33
-13.17
-7.91
-3.71
-0.61
1.44
2.57
3.01
3.02
2.87
2.71
2.59
2.42
2.12
1.66
1.02
0.24
-0.74
-2.0
-3.61
-5.56
-7.74
-9.95
-12.05
-14.02
-15.99
-18.16
-20.69
-23.54
-26.55
-29.47
-32.09
-34.31
-36.13
-37.6
-38.83
-40.01
-41.38
-43.13
-45.42
-48.17
-51.15
-54.01
-56.53
-58.65
-60.57
-62.6
-64.89
-67.35
-69.45
-70.47
-69.66
-66.57
-61.24
-54.18
-46.27
-38.47
-31.48
-25.57
-20.47
-15.51
-9.82
-2.61
6.53
17.46
29.32
40.56
49.24
53.54
52.36
45.79
35.27
23.18
12.14
4.15
0.02
-0.62
1.04
3.67
6.35
8.76
11.01
13.24
15.35
16.83
16.98
15.3
11.82
7.22
2.58
-1.0
-3.0
-3.58
-3.52
-3.69
-4.51
-5.53
-5.53
-2.9
3.72
15.0
30.67
49.66
70.34
90.65
108.22
120.48
125.11
120.69
107.42
87.43
64.3
42.01
23.59
10.28
1.49
-4.36
-8.76
-12.46
-15.43
-17.47
-18.87
-20.67
-24.37
-31.23
-41.67
-54.99
-69.74
-84.21
-97.12
-107.94
-116.78
-124.13
-130.37
-135.52
-139.28
-141.28
-141.44
-140.14
-138.24
-136.74
-136.51
-138.07
-141.52
-146.53
-152.29
-157.37
-159.74
-157.12
-147.56
-130.26
-106.0
-77.11
-46.74
-17.96
7.1
27.51
43.32
55.12
63.5
68.94
71.86
72.75
72.25
71.04
69.59
68.06
66.3
64.06
61.13
57.62
53.89
50.44
47.7
45.81
44.55
43.38
41.72
39.19
35.75
31.71
27.52
23.54
19.83
16.16
12.16
7.53
2.24
-3.47
-9.2
-14.59
-19.42
-23.65
-27.44
-31.07
-34.91
-39.36
-44.65
-50.71
-56.96
-62.28
-65.27
-64.67
-59.82
-50.9
-38.99
-25.65
-12.46
-0.54
9.59
18.01
25.13
31.3
36.72
41.37
45.13
47.94
49.9
51.19
52.0
52.39
52.33
51.71
50.46
48.62
46.39
44.05
41.87
40.02
38.47
37.07
35.59
33.82
31.63
29.02
26.07
22.88
19.55
16.14
12.83
9.75
7.07
4.78
2.73
0.61
-1.91
-4.97
-8.51
-12.25
-15.89
-19.24
-22.29
-25.29
-28.6
-32.66
-37.82
-44.24
-51.62
-59.16
-65.54
-69.1
-68.44
-62.78
-52.35
-38.34
-22.53
-6.81
7.37
19.14
28.26
34.93
39.6
42.77
44.9
46.4
47.51
48.35
48.84
48.77
47.85
45.9
42.97
39.36
35.64
32.41
30.14
28.97
28.71
28.92
29.09
28.78
27.74
25.92
23.39
20.36
17.07
13.73
10.47
7.21
3.78
-0.04
-4.4
-9.23
-14.26
-19.18
-23.7
-27.77
-31.51
-35.21
-39.26
-44.04
-49.8
-56.59
-63.96
-70.98
-76.22
-78.12
-75.42
-67.74
-55.66
-40.67
-24.68
-9.38
4.1
15.37
24.54
32.0
38.09
43.09
47.12
50.29
52.66
54.29
55.23
55.49
55.09
54.03
52.35
50.22
47.84
45.56
43.7
42.43
41.72
41.26
40.58
39.25
37.02
33.91
30.19
26.16
22.08
18.04
14.01
9.91
5.65
1.23
-3.29
-7.83
-12.34
-16.8
-21.23
-25.7
-30.34
-35.36
-41.03
-47.56
-54.89
-62.42
-68.99
-73.0
-72.99
-68.09
-58.46
-45.22
-30.08
-14.77
-0.55
11.96
22.62
31.55
38.88
44.68
49.03
52.04
53.91
54.89
55.18
54.95
54.31
53.26
51.83
50.1
48.23
46.44
44.96
43.92
43.24
42.73
42.07
41.01
39.42
37.32
34.76
31.82
28.46
24.68
20.5
16.04
11.57
7.33
3.55
0.24
-2.76
-5.75
-9.03
-12.8
-17.02
-21.47
-25.84
-29.86
-33.49
-36.93
-40.58
-44.97
-50.48
-57.19
-64.7
-72.06
-77.91
-80.77
-79.44
-73.4
-62.95
-49.22
-33.77
-18.23
-3.92
8.35
18.27
25.91
31.58
35.73
38.83
41.29
43.37
45.14
46.46
47.13
46.99
46.04
44.43
42.45
40.42
38.66
37.37
36.65
36.43
36.46
36.41
35.98
34.96
33.28
31.05
28.43
25.62
22.76
19.9
16.98
13.94
10.69
7.26
3.78
0.43
-2.65
-5.44
-8.13
-10.97
-14.17
-17.75
-21.51
-25.19
-28.56
-31.62
-34.57
-37.71
-41.36
-45.75
-50.95
-56.81
-62.92
-68.49
-72.4
-73.47
-70.77
-64.02
-53.76
-41.19
-27.82
-15.0
-3.63
5.87
13.46
19.3
23.64
26.8
29.18
31.18
33.07
34.9
36.49
37.52
37.68
36.89
35.26
33.12
30.91
28.98
27.56
26.7
26.29
26.09
25.85
25.33
24.37
22.85
20.77
18.14
15.04
11.61
8.05
4.55
1.3
-1.64
-4.37
-7.05
-9.86
-12.92
-16.22
-19.62
-22.95
-26.04
-28.87
-31.46
-34.0
-36.71
-39.88
-43.78
-48.56
-54.16
-60.11
-65.47
-68.99
-69.45
-66.09
-58.93
-48.78
-36.95
-24.83
-13.47
-3.39
5.3
12.75
19.06
24.25
28.3
31.21
33.1
34.16
34.62
34.68
34.48
34.05
33.44
32.66
31.78
30.96
30.36
30.09
30.17
30.45
30.64
30.35
29.3
27.37
24.63
21.35
17.88
14.54
11.52
8.87
6.47
4.1
1.53
-1.43
-4.85
-8.66
-12.71
-16.83
-20.86
-24.71
-28.43
-32.18
-36.2
-40.77
-46.0
-51.72
-57.28
-61.66
-63.65
-62.32
-57.28
-48.91
-38.19
-26.38
-14.71
-4.04
5.17
12.76
18.77
23.33
26.61
28.86
30.31
31.23
31.8
32.13
32.26
32.19
31.92
31.44
30.75
29.94
29.11
28.4
27.91
27.67
27.54
27.32
26.73
25.54
23.69
21.23
18.39
15.4
12.44
9.55
6.69
3.78
0.77
-2.29
-5.38
