11.27
18.21
23.47
27.39
30.34
32.63
34.44
35.84
36.82
37.33
37.35
36.91
36.17
35.4
34.93
35.01
35.72
36.85
37.95
38.54
38.26
37.07
35.19
32.95
30.6
28.2
25.65
22.79
19.52
15.89
12.08
8.3
4.73
1.42
-1.67
-4.67
-7.74
-10.97
-14.42
-18.02
-21.7
-25.4
-29.1
-32.87
-36.86
-41.25
-46.19
-51.63
-57.23
-62.27
-65.7
-66.45
-63.67
-57.13
-47.27
-35.15
-22.13
-9.44
2.02
11.82
19.86
26.25
31.13
34.66
37.0
38.37
39.0
39.13
38.94
38.53
37.95
37.2
36.28
35.22
34.1
33.05
32.23
31.75
31.61
31.65
31.58
31.05
29.77
27.61
24.66
21.21
17.6
14.12
10.9
7.88
4.86
1.62
-1.99
-5.93
-10.03
-14.03
-17.7
-20.96
-23.95
-26.97
-30.43
-34.7
-39.96
-46.07
-52.53
-58.46
-62.74
-64.29
-62.33
-56.64
-47.65
-36.31
-23.86
-11.49
-0.13
9.66
17.64
23.82
28.44
31.82
34.32
36.29
37.94
39.3
40.26
40.67
40.42
39.54
38.21
36.68
35.19
33.91
32.94
32.25
31.79
31.44
31.01
30.31
29.15
27.4
25.01
22.1
18.84
15.44
12.04
8.72
5.44
2.14
-1.28
-4.87
-8.67
-12.66
-16.78
-20.94
-25.02
-28.93
-32.63
-36.15
-39.6
-43.23
-47.33
-52.15
-57.75
-63.82
-69.58
-73.87
-75.43
-73.3
-67.16
-57.47
-45.33
-32.16
-19.27
-7.61
2.32
10.44
16.88
21.93
25.86
28.95
31.38
33.27
34.7
35.68
36.22
36.33
36.09
35.59
34.95
34.31
33.77
33.32
32.92
32.41
31.62
30.36
28.56
26.23
23.46
20.43
17.27
14.08
10.87
7.59
4.2
0.66
-2.99
-6.64
-10.24
-13.75
-17.24
-20.85
-24.66
-28.65
-32.64
-36.34
-39.47
-41.92
-43.83
-45.61
-47.84
-51.05
-55.42
-60.54
-65.41
-68.65
-68.78
-64.71
-56.04
-43.18
-27.33
-10.1
6.78
21.88
34.29
43.66
50.19
54.38
56.85
58.14
58.58
58.32
57.46
56.07
54.32
52.4
50.48
48.64
46.81
44.87
42.66
40.08
37.16
33.98
30.62
27.06
23.17
18.84
14.07
9.12
4.48
0.64
-2.14
-4.0
-5.5
-7.32
-9.97
-13.52
-17.57
-21.55
-25.0
-27.77
-30.11
-32.47
-35.34
-39.07
-43.86
-49.64
-56.04
-62.31
-67.4
-70.12
-69.55
-65.31
-57.69
-47.61
-36.23
-24.72
-13.92
-4.37
3.74
10.4
15.71
19.9
23.17
25.78
27.93
29.77
31.34
32.63
33.59
34.2
34.51
34.68
34.93
35.48
36.47
37.82
39.23
40.26
40.4
39.29
36.74
32.91
28.14
22.94
17.79
13.04
8.81
5.04
1.54
-1.91
-5.4
-8.93
-12.42
-15.75
-18.84
-21.73
-24.54
-27.48
-30.84
-34.87
-39.75
-45.43
-51.49
-57.13
-61.28
-62.87
-61.11
-55.79
-47.29
-36.5
-24.53
-12.47
-1.24
8.56
16.65
22.97
27.77
31.35
34.08
36.23
37.89
39.07
39.73
39.86
39.5
38.76
37.73
36.52
35.23
33.99
32.82
31.73
30.6
29.26
27.53
25.28
22.51
19.32
15.9
12.45
9.18
6.24
3.65
1.33
-0.94
-3.39
-6.18
-9.33
-12.68
-16.01
-19.15
-22.02
-24.66
-27.22
-29.87
-32.77
-36.16
-40.2
-45.06
-50.66
-56.58
-62.0
-65.79
-66.85
-64.41
-58.36
-49.24
-38.12
-26.23
-14.69
-4.24
4.8
12.37
18.61
23.72
27.85
31.17
33.75
35.64
36.89
37.5
37.55
37.13
36.41
35.55
34.74
34.09
33.67
33.43
33.26
33.02
32.56
31.76
30.57
28.93
26.84
24.31
21.37
18.12
14.65
11.12
7.67
4.39
1.34
-1.55
-4.37
-7.24
-10.2
-13.24
-16.28
-19.26
-22.16
-25.14
-28.41
-32.24
-36.82
-42.2
-48.13
-54.05
-59.07
-62.17
-62.44
-59.35
-52.95
-43.87
-33.1
-21.67
-10.49
-0.15
9.05
16.96
23.53
28.76
32.72
35.56
37.44
38.59
39.17
39.32
39.11
38.57
37.67
36.41
34.83
33.03
31.19
29.46
27.95
26.64
25.42
24.14
22.63
20.81
18.71
16.44
14.13
11.9
9.74
7.55
5.15
2.39
-0.78
-4.24
-7.81
-11.25
-14.37
-17.15
-19.72
-22.32
-25.24
-28.72
-32.85
-37.43
-41.97
-45.68
-47.62
-46.94
-43.19
-36.42
-27.25
-16.68
-5.83
4.37
13.31
20.73
26.63
31.18
34.55
36.93
38.47
39.27
39.39
38.87
37.73
36.04
33.92
31.55
29.15
27.0
25.29
24.17
23.61
23.4
23.19
22.64
21.49
19.67
17.3
14.55
11.59
8.49
5.25
1.88
-1.53
-4.83
-7.86
-10.55
-12.96
-15.27
-17.71
-20.41
-23.42
-26.6
-29.78
-32.76
-35.47
-37.92
-40.27
-42.72
-45.49
-48.81
-52.76
-57.26
-61.92
-66.05
-68.77
-69.2
-66.74
-61.25
-53.12
-43.14
-32.25
-21.37
-11.26
-2.43
4.87
10.64
15.07
18.51
21.28
23.57
25.39
26.57
26.95
26.46
25.16
23.25
21.0
18.7
16.6
14.91
13.82
13.42
13.65
14.3
14.98
15.23
14.7
13.29
11.25
9.08
7.37
6.55
6.75
7.8
9.36
11.12
12.86
14.46
15.82
16.74
17.0
16.47
15.18
13.35
11.25
9.07
6.85
4.45
1.71
-1.4
-4.82
-8.43
-12.25
-16.47
-21.36
-27.09
-33.47
-39.86
-45.27
-48.67
-49.32
-47.0
-42.0
-34.98
-26.72
-17.98
-9.39
-1.49
5.32
10.78
14.8
17.58
19.5
20.97
22.32
23.69
24.97
25.95
26.43
26.31
25.6
24.45
23.06
21.66
20.44
19.55
19.03
18.81
18.74
18.64
18.4
17.94
17.25
16.37
15.32
14.12
12.74
11.15
9.32
7.2
4.8
2.16
-0.61
-3.42
-6.21
-8.97
-11.77
-14.69
-17.85
-21.29
-24.94
-28.66
-32.23
-35.49
-38.4
-41.15
-44.0
-47.15
-50.5
-53.53
-55.37
-55.08
-52.01
-46.05
-37.69
-27.84
-17.53
-7.63
1.31
9.05
15.6
21.08
25.68
29.51
32.62
35.02
36.66
37.5
37.51
36.79
35.51
33.91
32.32
31.02
30.18
29.8
29.73
29.72
29.46
28.74
27.43
25.52
23.08
20.27
17.25
14.22
11.34
8.71
6.36
4.18
1.99
-0.41
-3.16
-6.28
-9.68
-13.14
-16.45
-19.49
-22.27
-24.95
-27.82
-31.22
-35.42
-40.52
-46.29
-52.1
-57.01
-59.98
-60.17
-57.18
-51.19
-42.89
-33.26
-23.32
-13.93
-5.64
1.27
6.81
11.21
14.79
17.85
20.6
23.05
25.11
26.63
27.53
27.84
27.71
27.32
26.8
26.29
25.84
25.52
25.31
25.19
25.05
24.77
24.2
23.25
21.86
20.11
18.11
16.03
14.02
12.14
10.39
8.74
7.11
5.44
3.66
1.68
-0.65
-3.47
-6.86
-10.78
-15.02
-19.24
-23.19
-26.75
-30.08
-33.57
-37.66
-42.64
-48.5
-54.79
-60.71
-65.25
-67.41
-66.46
-62.1
-54.55
-44.51
-33.0
-21.17
-10.03
-0.3
7.63
13.77
18.34
21.71
24.25
26.31
28.08
29.69
31.14
32.39
33.4
34.18
34.82
35.45
36.26
37.37
38.86
40.65
42.55
44.27
45.45
45.85
45.31
43.89
41.78
39.26
36.59
33.97
31.42
28.86
26.12
23.05
19.6
15.86
12.03
8.36
4.99
1.85
-1.26
-4.61
-8.36
-12.47
-16.73
-20.84
-24.61
-28.08
-31.48
-35.24
-39.78
-45.36
-51.84
-58.68
-64.9
-69.36
-71.02
-69.24
-63.97
-55.75
-45.5
-34.35
-23.35
-13.41
-5.09
1.31
5.83
8.73
10.41
11.28
11.67
11.76
11.55
10.98
10.01
8.66
7.07
5.47
4.13
3.28
3.05
3.41
4.22
5.29
6.45
7.58
8.59
9.46
10.21
10.88
11.45
11.92
12.14
11.95
11.2
9.81
7.85
5.51
3.04
0.69
-1.42
-3.26
-4.9
-6.42
-7.94
-9.56
-11.48
-13.92
-17.19
-21.49
-26.83
-32.85
-38.73
-43.37
-45.71
-44.98
-40.98
-34.12
-25.21
-15.24
-5.1
4.52
13.12
20.31
25.8
29.42
31.21
31.47
30.7
29.42
28.04
26.75
25.53
24.27
22.85
21.24
19.52
17.87
16.46
15.42
14.8
14.52
14.36
13.95
12.96
11.17
8.57
5.42
2.1
-1.06
-3.95
-6.67
-9.48
-12.6
-16.1
-19.84
-23.56
-27.0
-30.09
-32.9
-35.65
-38.59
-41.91
-45.7
-50.03
-54.83
-59.82
-64.36
-67.52
-68.22
-65.65
-59.57
-50.45
-39.32
-27.41
-15.72
-4.93
4.67
12.98
20.01
25.76
30.35
33.98
36.92
39.39
41.48
43.14
44.24
44.71
44.6
44.12
43.52
42.99
42.67
42.56
42.57
42.6
42.48
42.05
41.15
39.65
37.47
34.7
31.47
28.04
24.62
21.34
18.23
15.16
12.03
8.69
5.08
1.23
-2.83
-6.97
-11.1
-15.14
-19.09
-23.04
-27.18
-31.7
-36.77
-42.36
-48.16
-53.56
-57.68
-59.59
-58.5
-54.03
-46.25
-35.79
-23.6
-10.87
1.33
12.13
20.99
27.76
32.59
35.9
38.16
39.82
41.16
42.22
42.93
43.13
42.73
41.78
40.47
39.04
37.73
36.67
35.91
35.34
34.82
34.17
33.22
31.87
30.09
27.92
25.46
22.8
20.03
17.16
14.22
11.19
8.1
5.0
1.93
-1.1
-4.15
-7.3
-10.64
-14.21
-17.96
-21.77
-25.52
-29.11
-32.53
-35.9
-39.44
-43.4
-48.01
-53.35
-59.21
-65.02
-69.9
-72.78
-72.74
-69.21
-62.25
-52.46
-40.86
-28.6
-16.7
-5.92
3.29
10.79
16.63
21.04
24.35
26.93
29.05
30.89
32.48
33.74
34.57
34.89
34.71
34.16
33.45
32.85
32.54
32.61
32.95
33.33
33.47
33.14
32.24
30.8
28.95
26.83
24.53
22.11
19.56
16.88
14.08
11.2
8.27
5.31
2.32
-0.7
-3.71
-6.67
-9.53
-12.3
-15.01
-17.77
-20.72
-24.05
-27.96
-32.64
-38.19
-44.4
-50.75
-56.3
-59.89
-60.47
-57.4
-50.68
-40.96
-29.37
-17.21
-5.66
4.45
12.7
19.07
23.82
27.32
29.92
31.89
33.33
34.26
34.67
34.56
34.03
33.21
32.29
31.46
30.83
30.47
30.32
30.27
30.21
30.0
29.54
28.76
27.56
25.91
23.82
21.4
18.82
16.21
13.64
11.08
8.44
5.63
2.58
-0.7
-4.16
-7.73
-11.33
-14.85
-18.2
-21.31
-24.16
-26.84
-29.54
-32.49
-35.93
-40.06
-44.93
-50.38
-55.93
-60.79
-63.94
-64.34
-61.29
-54.63
-44.86
-33.03
-20.45
-8.36
2.32
11.11
17.99
23.17
27.03
29.96
32.25
34.11
35.59
36.67
37.28
37.36
36.9
35.96
34.71
33.36
32.19
31.43
31.21
31.51
32.11
32.64
32.76
32.19
30.89
28.98
26.69
24.27
21.85
19.47
17.05
14.49
11.74
8.82
5.79
2.79
-0.06
-2.7
-5.17
-7.6
-10.19
-13.11
-16.43
-20.13
-24.04
-28.0
-31.85
-35.54
-39.14
-42.86
-47.01
-51.9
-57.57
-63.7
-69.48
-73.75
-75.29
-73.22
-67.28
-57.96
-46.34
-33.75
-21.42
-10.25
-0.72
7.12
13.41
18.4
22.36
25.48
27.91
29.79
31.21
32.23
32.87
33.12
32.95
32.44
31.73
31.05
30.64
30.62
31.0
31.58
32.12
32.33
31.99
30.98
29.33
27.16
24.66
22.05
19.46
16.91
14.32
11.56
8.51
5.19
1.69
-1.85
-5.33
-8.73
-12.13
-15.63
-19.34
-23.23
-27.21
-31.12
-34.75
-37.92
-40.61
-42.94
-45.23
-47.88
-51.24
-55.42
-60.06
-64.39
-67.33
-67.82
-65.16
-59.21
-50.46
-39.84
-28.46
-17.33
-7.2
1.47
8.52
13.97
17.98
20.78
22.64
23.78
24.32
24.3
23.73
22.67
21.33
20.02
19.03
18.53
18.5
18.79
19.14
19.41
19.49
19.34
18.91
18.13
16.89
15.15
12.97
10.53
8.06
5.77
3.78
2.07
0.58
-0.76
-2.01
-3.19
-4.31
-5.4
-6.48
-7.59
-8.75
-9.91
-11.01
-12.01
-12.93
-13.98
-15.46
-17.68
-20.81
-24.68
-28.71
-31.96
-33.42
-32.26
-28.15
-21.27
-12.32
-2.27
7.9
17.33
25.42
31.83
36.49
39.57
41.38
42.29
42.64
42.62
42.35
41.84
41.13
40.26
39.26
38.13
36.86
35.48
34.08
32.83
31.86
31.29
31.05
31.01
30.99
30.83
30.45
29.8
28.88
27.65
26.02
23.92
21.31
18.2
14.74
11.12
7.54
4.1
0.74
-2.68
-6.36
-10.36
-14.59
-18.82
-22.79
-26.37
-29.62
-32.82
-36.37
-40.64
-45.87
-52.0
-58.61
-64.84
-69.61
-71.8
-70.58
-65.68
-57.5
-47.0
-35.4
-23.86
-13.19
-3.83
4.16
10.87
16.43
20.98
24.65
27.59
30.02
32.14
34.08
35.89
37.46
38.67
39.37
39.54
39.3
38.82
38.34
37.98
37.71
37.42
36.9
35.97
34.56
32.76
30.76
28.77
26.95
25.34
23.84
22.27
20.45
18.28
15.75
12.98
10.1
7.22
4.37
1.49
-1.56
-4.93
-8.71
-12.87
-17.28
-21.76
-26.13
-30.32
-34.4
-38.57
-43.09
-48.21
-54.04
-60.48
-67.09
-73.11
-77.53
-79.32
-77.74
-72.56
-64.18
-53.54
-41.87
-30.41
-20.14
-11.62
-5.01
-0.11
3.51
6.31
8.64
10.73
12.6
14.22
15.52
16.45
16.99
17.1
16.76
15.99
14.88
13.61
12.36
11.28
10.36
9.43
8.28
6.71
4.63
2.08
-0.83
-3.92
-7.02
-10.06
-13.05
-16.02
-19.08
-22.23
-25.39
-28.42
-31.2
-33.71
-36.04
-38.34
-40.69
-43.04
-45.17
-46.87
-48.02
-48.67
-49.04
-49.46
-50.19
-51.36
-52.89
-54.4
-55.27
-54.71
-51.95
-46.48
-38.27
-27.77
-15.82
-3.4
8.64
19.73
29.56
38.0
44.96
50.41
54.36
56.93
58.34
58.86
58.73
58.13
57.14
55.82
54.22
52.4
50.41
48.3
46.11
43.95
41.91
40.1
38.55
37.18
35.79
34.16
32.06
29.4
26.23
22.77
19.29
15.99
12.98
10.2
7.49
4.69
1.72
-1.39
-4.49
-7.46
-10.21
-12.77
-15.3
-18.02
-21.21
-25.07
-29.64
-34.76
-39.94
-44.49
-47.6
-48.55
-46.9
-42.65
-36.17
-28.13
-19.32
-10.49
-2.24
5.02
11.08
15.88
19.48
22.07
23.89
25.16
26.03
26.6
26.91
27.01
26.98
26.97
27.13
27.56
28.33
29.41
30.75
32.32
34.1
36.05
38.11
40.16
42.05
43.65
44.86
45.61
45.82
45.41
44.26
42.28
39.47
35.95
31.9
27.5
22.88
18.04
12.95
7.64
2.17
-3.29
-8.6
-13.72
-18.75
-23.92
-29.49
-35.72
-42.67
-50.13
-57.54
-64.02
-68.52
-70.02
-67.88
-62.05
-53.12
-42.25
-30.79
-20.0
-10.75
-3.33
2.42
7.0
10.97
14.75
18.53
22.23
25.64
28.52
30.8
32.47
33.63
34.39
34.86
35.18
35.52
36.1
37.09
38.52
40.22
41.81
42.81
42.83
41.75
39.74
37.19
34.51
31.97
29.6
27.21
24.53
21.35
17.67
13.68
9.68
5.96
2.59
-0.54
-3.68
-7.11
-10.96
-15.25
-19.8
-24.45
-29.04
-33.55
-38.05
-42.67
-47.62
-53.05
-59.11
-65.74
-72.67
-79.24
-84.59
-87.77
-88.04
-85.07
-79.07
-70.67
-60.8
-50.42
-40.36
-31.21
-23.34
-16.84
-11.56
-7.21
-3.46
-0.04
3.17
6.16
8.85
11.17
13.14
14.92
16.67
18.53
20.49
22.47
24.35
25.96
27.1
27.78
28.15
28.45
28.9
29.54
30.3
31.09
31.63
31.57
30.81
29.61
28.41
27.65
27.51
28.05
29.28
30.84
32.09
32.73
32.97
33.18
33.77
34.55
35.06
34.76
32.67
27.68
19.29
7.88
-5.61
-19.82
-33.73
-46.21
-53.57
-52.63
-43.86
-31.48
-20.3
-14.51
-13.21
-14.83
-17.97
-21.87
-25.51
-28.98
-32.38
-35.42
-37.59
-38.32
-37.72
-36.05
-33.59
-30.85
-28.48
-26.6
-24.65
-21.85
-17.46
-11.45
-4.11
4.13
12.7
21.01
29.08
37.51
47.14
58.58
71.56
85.12
97.93
108.58
116.05
120.25
121.99
122.52
123.15
124.77
127.88
132.63
138.74
145.49
151.66
155.79
156.5
152.96
145.31
134.78
123.32
113.09
105.68
101.79
101.18
102.91
105.8
108.71
110.74
111.17
109.43
105.04
97.66
87.25
74.14
58.99
42.58
25.61
8.43
-8.95
-26.64
-44.61
-62.54
-79.77
-95.48
-109.06
-120.21
-129.05
-135.97
-141.43
-145.79
-149.21
-151.69
-153.19
-153.77
-153.61
-153.05
-152.47
-152.12
-152.09
-152.28
-152.54
-152.72
-152.85
-153.01
-153.32
-153.92
-154.91
-156.45
-158.62
-161.32
-164.08
-166.09
-166.33
-164.0
-158.86
-151.32
-142.22
-132.47
-122.54
-112.3
-101.13
-88.36
-73.65
-57.32
-40.33
-24.01
-9.69
1.73
9.92
15.01
17.47
17.72
15.96
12.23
6.46
-1.27
-10.71
-21.51
-33.35
-46.13
-59.87
-74.56
-89.91
-105.29
-119.75
-132.24
-142.02
-148.73
-152.43
-153.22
-151.02
-145.52
-136.27
-123.07
-106.19
-86.45
-64.98
-43.09
-22.13
-3.33
12.27
24.09
32.15
37.16
40.12
41.95
42.97
42.85
41.0
37.15
31.84
26.36
22.31
20.87
22.39
26.33
31.68
37.48
43.19
48.75
54.25
59.69
64.77
68.93
71.66
72.78
72.57
71.6
70.41
69.33
68.32
67.14
65.52
63.43
61.06
58.82
57.09
56.1
55.77
55.77
55.64
54.92
53.34
50.84
47.63
44.03
40.33
36.7
33.16
29.58
25.84
21.92
17.86
13.77
9.67
5.52
1.16
-3.6
-8.93
-14.92
-21.49
-28.41
-35.2
-41.2
-45.59
-47.6
-46.65
-42.58
-35.69
-26.69
-16.47
-5.93
4.25
13.59
21.87
28.95
34.77
39.28
42.49
44.48
45.44
45.65
45.37
44.83
44.23
43.68
43.29
43.18
43.43
44.08
45.06
46.19
47.2
47.82
47.88
47.25
45.94
43.99
41.49
38.54
35.26
31.79
28.28
24.83
21.47
18.22
15.04
11.86
8.58
5.04
1.06
-3.46
-8.36
-13.14
-17.01
-19.06
-18.68
-15.74
-10.59
-3.94
3.52
11.26
18.97
26.45
33.38
39.34
43.84
46.54
47.41
46.72
44.96
42.62
40.11
37.71
35.6
33.97
32.95
32.61
32.89
33.56
34.29
34.69
34.52
33.67
32.2
30.32
28.23
26.14
24.15
22.24
20.27
18.06
15.47
12.52
9.34
6.18
3.22
0.42
-2.54
-6.15
-10.93
-17.09
-24.41
-32.15
-39.17
-44.2
-46.2
-44.6
-39.43
-31.27
-21.07
-9.92
1.23
11.64
20.83
28.61
34.98
40.09
44.14
47.34
49.83
51.73
53.1
53.99
54.46
54.57
54.38
53.94
53.3
52.5
51.59
50.6
49.48
48.17
46.58
44.62
42.24
39.45
36.3
32.87
29.32
25.81
22.5
19.48
16.77
14.29
11.89
9.42
6.76
3.86
0.76
-2.49
-5.87
-9.46
-13.47
-18.19
-23.83
-30.35
-37.34
-44.05
-49.53
-52.93
-53.68
-51.58
-46.76
-39.61
-30.66
-20.62
-10.36
-0.83
7.03
12.61
15.73
16.69
16.1
14.65
12.85
11.03
9.4
8.15
7.52
7.71
8.8
10.58
12.63
14.41
15.45
15.5
14.57
12.89
10.79
8.55
6.43
4.56
2.96
1.53
0.09
-1.6
-3.71
-6.34
-9.42
-12.8
-16.29
-19.72
-23.03
-26.29
-29.7
-33.54
-38.0
-43.04
-48.27
-52.95
-56.14
-56.94
-54.73
-49.38
-41.31
-31.4
-20.72
-10.32
-1.02
6.73
12.82
17.38
20.72
23.14
24.86
26.04
26.74
26.96
26.66
25.83
24.48
22.73
20.74
18.73
16.88
15.29
13.97
12.81
11.66
10.38
8.86
7.03
4.86
2.34
-0.54
-3.75
-7.26
-11.07
-15.13
-19.4
-23.8
-28.13
-32.12
-35.49
-38.09
-39.96
-41.44
-43.05
-45.3
-48.39
-52.02
-55.38
-57.33
-56.75
-52.96
-45.86
-36.0
-24.35
-11.99
0.11
11.23
20.87
28.73
34.66
38.66
40.93
41.78
41.65
40.92
39.9
38.78
37.63
36.52
35.46
34.46
33.49
32.47
31.29
29.88
28.24
26.46
24.63
22.84
21.06
19.21
17.17
14.87
12.31
9.58
6.76
3.93
1.09
-1.76
-4.62
-7.47
-10.27
-13.05
-15.91
-19.06
-22.62
-26.56
-30.47
-33.64
-35.21
-34.5
-31.2
-25.56
-18.21
-10.0
-1.79
5.69
11.87
16.32
18.83
19.48
18.64
16.91
14.88
12.9
11.01
8.95
6.44
3.33
-0.23
-3.87
-7.18
-9.87
-11.86
-13.21
-14.1
-14.73
-15.28
-15.93
-16.84
-18.08
-19.59
-21.16
-22.49
-23.32
-23.56
-23.32
-22.81
-22.25
-21.77
-21.33
-20.79
-20.06
-19.18
-18.32
-17.81
-17.91
-18.76
-20.26
-21.97
-23.26
-23.42
-21.89
-18.49
-13.48
-7.5
-1.37
4.16
8.58
11.73
13.68
14.64
14.85
14.45
13.56
12.25
10.63
8.81
6.96
5.23
3.75
2.59
1.79
1.37
1.32
1.6
2.06
2.51
2.7
2.45
1.74
0.63
-0.7
-2.16
-3.78
-5.64
-7.8
-10.23
-12.75
-15.18
-17.38
-19.39
-21.3
-23.3
-25.51
-28.01
-30.84
-34.02
-37.52
-41.09
-44.29
-46.4
-46.69
-44.6
-40.0
-33.24
-25.04
-16.28
-7.76
-0.08
6.41
11.56
15.37
17.94
19.48
20.24
20.53
20.56
20.44
20.17
19.69
18.94
17.96
16.81
15.58
14.34
13.1
11.88
10.67
9.48
8.26
6.93
5.35
3.37
0.97
-1.74
-4.47
-6.93
-8.95
-10.57
-12.06
-13.73
-15.81
-18.28
-20.99
-23.74
-26.41
-29.12
-32.07
-35.44
-39.22
-43.11
-46.57
-48.93
-49.57
-48.04
-44.24
-38.38
-30.94
-22.64
-14.2
-6.26
0.69
6.46
11.0
14.37
16.69
18.06
18.62
18.52
18.01
17.35
16.74
16.31
16.03
15.8
15.51
15.14
14.77
14.53
14.47
14.52
14.47
14.04
13.01
11.27
8.92
6.17
3.3
0.54
-2.02
-4.45
-6.89
-9.53
-12.5
-15.78
-19.24
-22.68
-25.94
-28.99
-31.95
-35.06
-38.64
-42.84
-47.59
-52.43
-56.62
-59.23
-59.39
-56.57
-50.72
-42.33
-32.31
-21.7
-11.5
-2.37
5.36
11.64
16.56
20.26
22.85
24.45
25.26
25.54
25.6
25.69
25.94
26.33
26.76
27.15
27.45
27.71
27.98
28.29
28.59
28.76
28.64
28.02
26.76
24.79
22.21
19.22
16.11
13.06
10.16
7.28
4.22
0.8
-3.04
-7.19
-11.46
-15.64
-19.63
-23.46
-27.29
-31.35
-35.85
-40.92
-46.53
-52.41
-57.99
-62.44
-64.8
-64.26
-60.33
-53.07
-43.06
-31.31
-18.93
-6.98
3.74
12.79
20.03
25.52
29.44
32.01
33.45
33.99
33.89
33.42
32.83
32.32
31.99
31.84
31.81
31.81
31.79
31.79
31.82
31.86
31.78
31.4
30.49
28.9
26.59
23.68
20.35
16.81
13.2
9.56
5.89
2.15
-1.61
-5.28
-8.69
-11.71
-14.34
-16.77
-19.4
-22.66
-26.87
-32.01
-37.6
-42.75
-46.36
-47.39
-45.21
-39.75
-31.5
-21.38
-10.46
0.27
10.04
18.35
24.93
29.7
32.68
34.02
33.89
32.56
30.3
27.42
24.24
21.14
18.51
16.66
15.75
15.69
16.21
16.93
17.46
17.53
17.06
16.08
14.74
13.17
11.52
9.91
8.39
7.07
6.0
5.31
5.19
5.91
7.81
11.25
16.47
23.33
31.17
38.72
44.3
46.17
43.14
34.97
22.58
7.8
-7.09
-20.01
-29.46
-34.77
-35.99
-33.72
-28.86
-22.52
-15.77
-9.54
-4.43
-0.56
2.42
5.12
8.08
11.5
15.13
18.38
20.59
21.35
20.67
18.9
16.66
14.5
12.83
11.89
11.74
12.4
13.79
15.73
17.9
19.87
21.2
21.59
21.0
19.67
18.01
16.44
15.19
14.25
13.41
12.39
11.01
9.3
7.44
5.69
4.25
3.19
2.46
1.93
1.47
0.88
-0.06
-1.65
-4.1
-7.38
-11.05
-14.18
-15.61
-14.22
-9.33
-0.96
10.24
23.17
36.64
49.62
61.38
71.54
80.0
86.87
92.4
96.82
100.31
102.89
104.44
104.7
103.31
99.9
94.14
85.93
75.48
63.37
50.55
38.02
26.67
16.93
8.73
1.64
-4.89
-11.27
-17.59
-23.68
-29.25
-34.04
-37.96
-41.05
-43.48
-45.41
-46.92
-48.04
-48.82
-49.41
-50.06
-51.1
-52.8
-55.23
-58.25
-61.55
-64.77
-67.73
-70.47
-73.27
-76.55
-80.58
-85.3
-90.18
-94.29
-96.47
-95.69
-91.39
-83.64
-73.12
-60.87
-48.03
-35.57
-24.21
-14.41
-6.43
-0.31
4.09
7.09
9.1
10.53
11.66
12.62
13.49
14.33
15.26
16.41
17.9
19.76
21.9
24.21
26.52
28.74
30.78
32.56
33.98
34.9
35.18
34.77
33.68
32.03
29.98
27.71
25.35
22.98
20.6
18.16
15.63
12.95
10.1
7.13
4.08
1.06
-1.92
-4.98
-8.33
-12.29
-17.11
-22.81
-29.14
-35.44
-40.82
-44.26
-44.93
-42.36
-36.59
-28.11
-17.8
-6.68
4.24
14.13
22.42
28.81
33.3
36.22
38.04
39.31
40.43
41.6
42.79
43.87
44.83
45.76
46.88
48.37
50.27
52.32
54.14
55.33
55.63
55.05
53.85
52.4
51.11
50.25
49.95
50.19
50.86
51.81
52.91
53.99
54.92
55.57
55.9
55.93
55.68
55.14
54.22
52.75
50.49
47.26
42.94
37.49
30.91
23.1
13.9
3.2
-8.79
-21.37
-33.29
-43.01
-49.13
-50.95
-48.73
-43.64
-37.37
-31.61
-27.57
-25.78
-26.15
-28.13
-30.97
-33.96
-36.57
-38.56
-39.98
-41.13
-42.34
-43.84
-45.63
-47.51
-49.21
-50.52
-51.33
-51.67
-51.62
-51.23
-50.58
-49.81
-49.13
-48.8
-49.04
-49.92
-51.33
-52.92
-54.28
-55.11
-55.31
-55.05
-54.67
-54.46
-54.54
-54.77
-54.91
-54.76
