-25.81
-14.44
-0.12
15.73
31.41
45.28
56.04
62.98
66.04
65.85
63.46
60.02
56.32
52.51
48.07
42.11
33.92
23.45
11.5
-0.51
-10.97
-18.63
-22.86
-23.68
-21.56
-17.26
-11.72
-5.99
-1.25
1.45
1.41
-1.43
-6.33
-11.91
-16.53
-18.76
-17.72
-13.31
-6.26
2.08
9.82
14.89
15.3
9.49
-3.41
-23.39
-49.57
-80.22
-112.91
-144.68
-172.4
-193.32
-205.49
-208.26
-202.24
-189.11
-171.07
-150.42
-129.27
-109.22
-91.36
-76.02
-62.78
-50.62
-38.25
-24.71
-9.78
5.85
20.88
33.91
43.9
50.54
54.22
55.82
56.37
56.78
57.62
59.05
60.86
62.6
63.8
64.1
63.34
61.45
58.33
53.85
47.78
40.02
30.69
20.25
9.46
-0.85
-9.9
-17.07
-21.85
-23.84
-22.75
-18.6
-11.81
-3.32
5.57
13.56
19.65
23.49
25.35
26.02
26.47
27.49
29.47
32.24
35.22
37.63
38.94
39.06
38.47
37.92
38.19
39.78
42.8
47.09
52.39
58.51
65.28
72.44
79.49
85.71
90.47
93.43
94.73
94.96
94.73
94.34
93.58
91.88
88.71
83.98
78.15
72.11
66.71
62.35
58.77
55.24
50.91
45.21
38.11
30.04
21.84
14.37
8.35
4.16
1.74
0.7
0.38
0.09
-0.85
-2.98
-6.69
-12.11
-19.09
-27.2
-35.78
-44.05
-51.24
-56.78
-60.38
-62.05
-62.1
-61.09
-59.75
-58.87
-59.25
-61.42
-65.54
-71.2
-77.46
-83.03
-86.61
-87.21
-84.46
-78.58
-70.32
-60.58
-50.19
-39.8
-29.92
-20.93
-13.21
-7.12
-2.81
-0.25
0.85
0.96
0.69
0.69
1.59
3.89
7.83
13.27
19.69
26.3
32.28
37.09
40.49
42.6
43.72
44.09
43.91
43.27
42.2
40.71
38.86
36.63
34.0
30.95
27.52
23.85
20.11
16.39
12.63
8.52
3.58
-2.75
-10.89
-21.01
-32.87
-45.78
-58.7
-70.28
-79.08
-83.83
-83.67
-78.41
-68.7
-56.0
-42.4
-30.38
-22.45
-20.82
-27.01
-41.52
-63.53
-90.74
-119.6
-145.99
-166.14
-177.61
-179.84
-174.13
-162.94
-149.01
-134.48
-120.57
-107.69
-95.73
-84.43
-73.56
-62.8
-51.83
-40.34
-28.34
-16.22
-4.73
5.32
13.43
19.68
24.66
29.23
34.02
39.15
44.2
48.34
50.76
50.94
48.82
44.76
39.43
33.55
27.77
22.52
17.96
13.94
10.11
6.04
1.44
-3.57
-8.37
-11.98
-13.31
-11.59
-6.68
0.85
9.79
18.73
26.44
32.23
36.14
38.89
41.6
45.41
51.12
58.81
67.77
76.72
84.12
88.69
89.81
87.71
83.46
78.71
75.27
74.5
76.91
81.92
88.04
93.4
96.48
96.68
94.48
91.12
87.89
85.38
83.17
80.1
74.94
67.22
57.6
47.79
39.84
35.27
34.47
36.56
39.6
41.04
38.31
29.36
13.26
-9.11
-34.75
-58.98
-76.92
-85.49
-85.03
-79.52
-75.01
-77.0
-87.83
-105.6
-125.08
-139.93
-145.31
-139.41
-123.5
-100.74
-74.64
-48.01
-22.76
-0.27
18.15
31.34
38.76
41.11
40.52
40.04
42.51
49.31
59.72
71.2
80.44
84.69
82.68
74.95
63.31
50.02
36.98
25.23
14.92
5.64
-3.06
-11.19
-18.19
-23.09
-25.01
-23.59
-19.31
-13.26
-6.72
-0.66
4.49
8.82
12.57
15.76
17.96
18.32
15.76
9.49
-0.66
-14.01
-29.05
-43.78
-56.2
-64.81
-68.85
-68.36
-64.03
-56.89
-48.08
-38.64
-29.45
-21.14
-14.17
-8.81
-5.13
-3.03
-2.16
-1.98
-1.78
-0.82
1.39
5.02
9.78
15.14
20.53
25.6
30.26
34.61
38.73
42.51
45.64
47.79
48.73
48.51
47.38
45.58
43.29
40.52
37.21
33.38
29.21
24.99
20.93
17.06
13.16
8.8
3.45
-3.35
-11.8
-21.84
-32.97
-44.3
-54.58
-62.41
-66.63
-66.58
-62.35
-54.77
-45.07
-34.57
-24.33
-14.96
-6.69
0.53
6.74
11.93
16.06
19.1
21.11
22.24
22.72
22.78
22.66
22.57
22.7
23.19
24.08
25.35
26.93
28.72
30.56
32.24
33.48
33.97
33.53
32.08
29.78
26.82
23.32
19.25
14.44
8.67
1.91
-5.67
-13.68
-21.65
-29.17
-36.01
-42.13
-47.74
-53.18
-58.86
-65.08
-71.71
-78.05
-82.88
-84.79
-82.59
-75.83
-64.92
-51.05
-35.78
-20.55
-6.43
6.06
16.83
26.05
33.93
40.73
46.7
52.13
57.35
62.63
68.22
74.18
80.48
87.02
93.65
100.26
106.82
113.25
119.43
125.14
130.14
134.31
137.73
140.69
143.61
146.88
150.68
154.98
159.54
164.07
168.34
172.3
176.01
179.63
183.27
186.97
190.61
193.86
196.03
196.07
192.66
184.58
171.22
152.99
131.59
109.68
90.09
74.84
64.35
57.24
50.83
42.3
29.84
13.29
-5.82
-25.02
-41.85
-54.75
-63.41
-68.72
-72.29
-75.96
-81.34
-89.46
-100.62
-114.15
-128.58
-141.83
-151.79
-156.92
-156.68
-151.8
-143.9
-135.03
-126.94
-120.69
-116.47
-113.85
-112.16
-110.77
-109.23
-107.24
-104.54
-100.86
-96.05
-90.27
-83.98
-77.82
-72.34
-67.77
-63.97
-60.58
-57.23
-53.82
-50.45
-47.32
-44.48
-41.84
-39.4
-37.51
-37.03
-38.96
-43.9
-51.41
-59.81
-66.6
-69.34
-66.6
-58.53
-46.74
-33.64
-21.57
-12.08
-5.66
-1.97
-0.23
0.39
0.47
0.31
-0.07
-0.76
-1.88
-3.54
-5.83
-8.86
-12.76
-17.64
-23.57
-30.55
-38.66
-47.91
-58.25
-69.4
-80.74
-91.43
-100.62
-107.84
-113.23
-117.48
-121.63
-126.65
-132.97
-140.4
-148.2
-155.39
-161.1
-164.82
-166.48
-166.39
-165.15
-163.48
-161.92
-160.47
-158.09
-152.51
-140.72
-120.32
-91.05
-55.84
-20.24
9.62
29.6
39.5
43.05
46.0
53.34
67.13
86.06
106.66
125.35
140.09
150.88
159.15
166.57
174.17
181.84
188.53
192.64
192.63
187.63
177.93
164.93
150.78
137.59
126.62
117.79
109.86
101.05
89.94
75.96
59.37
40.81
20.73
-0.81
-23.88
-48.25
-73.05
-97.06
-119.48
-140.63
-161.98
-185.23
-210.7
-236.03
-255.92
-263.73
-254.24
-226.4
-184.42
-136.54
-92.0
-57.49
-35.1
-22.44
-14.67
-7.1
2.96
15.77
30.07
44.22
57.11
68.25
77.49
84.73
89.69
92.11
91.88
89.23
84.61
78.82
72.8
67.46
63.3
60.22
57.41
53.72
48.3
41.21
33.58
27.24
23.88
24.21
27.57
32.13
35.8
37.05
35.59
32.18
28.05
24.12
20.56
16.88
12.34
6.42
-0.83
-8.84
-16.72
-23.54
-28.56
-31.25
-31.31
-28.75
-23.74
-16.66
-7.9
2.13
13.09
24.54
35.84
46.15
54.53
60.31
63.35
64.14
63.67
62.98
62.82
63.44
64.63
65.96
67.08
67.83
68.14
67.98
67.26
65.92
64.01
61.78
59.59
57.61
55.69
53.24
49.54
44.19
37.41
30.09
23.47
18.52
15.52
13.84
12.26
9.49
4.67
-2.36
-11.25
-21.34
-32.02
-42.89
-53.78
-64.69
-75.67
-86.76
-97.86
-108.72
-118.82
-127.38
-133.41
-135.92
-134.11
-127.72
-117.06
-103.1
-87.25
-71.09
-56.0
-42.97
-32.52
-24.72
-19.4
-16.19
-14.71
-14.44
-14.8
-15.07
-14.49
-12.35
-8.16
-1.9
5.9
14.17
21.64
27.26
30.51
31.61
31.22
30.11
28.74
27.16
25.21
22.78
20.04
17.35
15.04
13.14
11.36
9.16
6.16
2.28
-2.14
-6.53
-10.29
-13.05
-14.82
-15.95
-17.05
-18.74
-21.47
-25.36
-30.09
-34.91
-38.74
-40.49
-39.31
-34.86
-27.43
-17.75
-6.85
4.32
15.0
24.74
33.33
40.69
46.83
51.75
55.46
58.06
59.64
60.36
60.34
59.74
58.72
57.51
56.43
55.89
56.29
57.91
60.74
64.4
68.15
71.21
72.95
73.23
72.39
71.04
69.81
68.97
68.49
68.14
67.83
67.77
68.41
70.06
72.6
75.29
76.9
76.06
71.59
62.79
49.56
32.47
12.7
-7.86
-26.81
-41.61
-50.18
-51.56
-46.25
-36.03
-23.31
-10.24
1.89
12.63
21.95
29.59
34.73
36.27
33.45
26.44
16.41
5.03
-6.31
-17.13
-27.89
-39.54
-52.79
-67.63
-83.31
-98.59
-112.21
-123.01
-130.03
-132.54
-130.17
-123.28
-113.13
-101.76
-91.36
-83.57
-78.79
-76.1
-73.71
-69.82
-63.46
-54.93
-45.65
-37.56
-32.39
-30.98
-33.05
-37.34
-42.13
-45.74
-47.0
-45.46
-41.33
-35.29
-28.2
-20.83
-13.75
-7.2
-1.09
4.86
10.97
17.36
23.84
29.88
34.78
37.92
39.01
38.14
35.78
32.66
29.54
27.11
25.87
25.94
27.08
28.68
29.91
29.97
28.42
25.31
21.25
17.1
13.64
11.27
9.85
8.82
7.47
5.23
1.84
-2.61
-7.84
-13.5
-19.33
-25.19
-31.08
-37.09
-43.4
-50.16
-57.41
-64.82
-71.6
-76.5
-78.1
-75.29
-67.76
-56.15
-41.96
-27.07
-13.17
-1.33
8.1
15.34
20.9
25.28
28.84
31.83
34.41
36.69
38.73
40.58
42.17
43.39
44.18
44.56
44.66
44.67
44.78
45.02
45.3
45.36
44.88
43.64
41.6
38.87
35.67
32.24
28.65
24.91
20.9
16.59
12.06
7.48
3.07
-1.01
-4.76
-8.38
-12.2
-16.6
-21.88
-28.16
-35.14
-42.09
-47.94
-51.44
-51.6
-47.97
-40.81
-30.99
-19.71
-8.25
2.37
11.41
18.54
23.71
27.15
29.27
30.56
31.44
32.17
32.88
33.59
34.32
35.12
36.06
37.18
38.48
39.92
41.45
42.96
44.27
45.12
45.17
44.19
42.1
39.08
35.49
31.7
27.98
24.41
20.96
17.58
14.29
11.09
8.01
4.99
1.97
-1.09
-4.18
-7.29
-10.52
-14.07
-18.12
-22.57
-26.93
-30.26
-31.42
-29.5
-24.14
-15.7
-5.11
6.43
17.8
28.18
37.13
44.5
50.33
54.79
58.07
60.42
62.15
63.61
65.14
67.05
69.49
72.48
75.88
79.58
83.51
87.77
92.52
97.85
103.62
109.32
114.05
116.7
116.27
112.05
103.85
92.03
77.4
61.06
44.31
28.52
14.93
4.47
-2.49
-6.33
-8.14
-9.47
-11.95
-16.86
-24.75
-35.44
-48.04
-61.23
-73.52
-83.59
-90.44
-93.5
-92.66
-88.17
-80.58
-70.7
-59.59
-48.4
-38.23
-29.91
-23.74
-19.5
-16.59
-14.28
-12.0
-9.53
-6.99
-4.72
-3.08
-2.21
-2.05
-2.29
-2.59
-2.64
-2.36
-1.83
-1.25
-0.72
-0.22
0.4
1.35
2.71
4.44
6.35
8.19
9.68
10.57
10.73
10.28
9.55
9.01
8.98
9.39
9.62
8.67
5.58
-0.13
-8.17
-17.49
-26.67
-34.37
-39.71
-42.44
-42.82
-41.41
-38.92
-36.0
-33.24
-31.01
-29.44
-28.43
-27.69
-26.93
-26.01
-25.0
-24.02
-23.13
-22.16
-20.7
-18.27
-14.54
-9.47
-3.23
3.87
11.6
19.78
28.3
36.89
45.11
52.42
58.4
62.93
66.32
69.14
72.02
75.38
79.31
83.6
87.9
91.96
95.6
98.73
101.16
102.62
102.88
101.93
100.18
98.17
96.21
94.05
90.82
85.5
77.62
67.73
57.23
47.72
40.12
34.26
29.14
23.8
18.01
12.52
8.49
6.66
6.71
7.3
6.76
3.77
-2.07
-10.33
-20.17
-30.79
-41.67
-52.58
-63.47
-74.24
-84.77
-94.92
-104.52
-113.43
-121.54
-128.84
-135.46
-141.54
-147.15
-152.02
-155.55
-157.01
-155.89
-152.31
-146.95
-140.79
-134.56
-128.45
-122.15
-115.29
-107.81
-100.14
-92.86
-86.26
-80.03
-73.51
-66.27
-58.57
-51.52
-46.44
-44.08
-44.02
-44.79
-44.51
-41.78
-36.17
-28.21
-18.8
-8.7
1.79
12.64
23.81
34.88
45.09
53.64
60.03
64.28
66.87
68.47
69.63
70.48
70.89
70.49
69.03
66.49
63.18
59.61
56.32
53.67
51.8
50.5
49.41
48.11
46.29
43.87
41.01
38.06
35.32
32.94
30.89
28.98
27.08
25.26
23.75
22.92
23.05
24.11
25.86
27.85
29.7
31.23
32.49
33.78
35.43
37.78
41.05
45.37
50.66
56.73
63.25
69.88
76.41
82.87
89.54
96.85
105.04
113.92
122.74
130.31
135.31
136.77
134.36
128.36
119.56
108.98
97.66
86.61
76.67
68.33
61.45
55.09
47.73
37.73
23.98
6.4
-14.01
-35.6
-56.61
-75.72
-92.24
-106.05
-117.46
-127.02
-135.27
-142.59
-148.84
-153.41
-155.53
-154.81
-151.72
-147.58
-144.23
-143.17
-145.03
-149.36
-154.99
-160.47
-164.45
-165.76
-163.46
-157.04
-146.8
-134.05
-120.88
-109.34
-100.36
-93.26
-86.1
-76.67
-63.82
-48.04
-31.32
-16.16
-4.6
2.3
4.49
2.49
-2.98
-11.08
-20.78
-30.7
-39.3
-45.21
-47.65
-46.69
-43.13
-38.23
-33.29
-29.3
-26.79
-25.83
-26.15
-27.33
-28.91
-30.6
-32.22
-33.69
-35.01
-36.15
-37.07
-37.78
-38.52
-39.68
-41.82
-45.31
-50.07
-55.43
-60.18
-62.87
-62.33
-58.0
-50.22
-40.05
-29.0
-18.49
-9.53
-2.48
2.88
7.11
10.77
14.2
17.4
20.1
21.98
22.8
22.63
21.8
20.89
20.57
21.56
24.55
30.08
38.42
49.26
61.56
73.59
83.42
89.61
91.93
91.46
90.19
89.97
91.6
94.48
97.09
97.93
96.36
92.87
88.54
84.12
79.54
73.93
66.34
56.38
44.62
32.32
20.85
11.2
3.82
-1.18
-3.76
-3.8
-1.28
3.52
9.87
16.71
22.92
27.72
30.81
32.36
32.89
33.09
33.58
34.79
36.8
39.37
42.02
44.31
46.02
47.29
48.42
49.58
50.57
50.84
49.74
46.87
42.34
36.66
30.49
24.29
18.31
12.67
7.48
2.87
-1.13
-4.87
-9.04
-14.41
-21.39
-29.74
-38.62
-46.83
-53.32
-57.34
-58.62
-57.18
-53.3
-47.46
-40.42
-33.14
-26.61
-21.55
-18.06
-15.59
-13.12
-9.66
-4.69
1.49
7.82
12.87
15.48
15.19
12.49
8.46
4.3
0.8
-1.93
-4.22
-6.46
-8.73
-10.68
-11.75
-11.55
-10.02
-7.44
-4.29
-0.94
2.4
5.62
8.62
11.03
12.32
11.9
9.35
4.57
-2.13
-10.1
-18.53
-26.63
-33.78
-39.65
-44.23
-47.81
-50.9
-54.07
-57.82
-62.39
-67.71
-73.26
-78.23
-81.62
-82.52
-80.4
-75.23
-67.51
-58.1
-47.96
-37.91
-28.51
-20.11
-12.89
-6.97
-2.33
1.17
3.87
6.23
8.66
11.42
14.53
17.82
21.04
23.97
26.51
28.57
30.17
31.37
32.42
33.7
35.64
38.57
42.41
46.65
50.4
52.74
53.11
51.53
48.59
45.1
41.76
38.89
36.39
33.89
31.04
27.56
23.35
18.42
12.87
7.03
1.49
-2.84
-4.88
-3.66
1.35
10.12
22.07
36.27
51.57
66.73
80.55
91.95
100.17
105.1
107.18
107.34
106.51
105.26
103.6
101.13
97.24
91.45
83.55
73.62
62.11
49.96
38.65
30.13
26.25
27.92
34.44
43.33
51.01
54.2
51.28
43.03
32.23
22.32
15.84
13.41
13.63
14.03
12.25
6.95
-1.97
-13.83
-27.76
-43.18
-59.88
-77.7
-96.29
-114.92
-132.5
-147.79
-159.62
-167.04
-169.53
-167.01
-159.96
-149.36
-136.54
-122.96
-109.87
-98.16
-88.23
-80.1
-73.53
-68.17
-63.63
-59.49
-55.25
-50.46
-44.79
-38.28
-31.32
-24.57
-18.72
-14.22
-11.08
-9.03
-7.59
-6.37
-5.2
-4.07
-3.13
-2.48
-2.11
-1.91
-1.69
-1.31
-0.65
0.32
1.6
3.11
4.75
6.37
7.79
8.9
9.57
9.71
9.2
7.9
5.81
3.11
0.25
-2.02
-2.89
-1.72
1.72
7.14
13.88
21.12
28.12
34.41
39.78
44.15
47.42
49.48
50.23
49.77
48.44
46.83
45.61
45.26
45.92
47.37
49.06
50.36
50.77
50.08
48.41
46.08
43.5
40.96
38.55
36.19
33.72
31.02
28.11
25.15
22.3
19.63
17.06
14.42
11.58
8.44
5.07
1.58
-1.98
-5.55
-9.02
-12.02
-13.96
-14.16
-12.18
-8.06
-2.38
3.97
10.26
16.1
21.58
26.86
31.82
35.94
38.47
38.82
36.83
32.94
27.88
22.32
16.76
11.45
6.6
2.4
-1.01
-3.75
-6.28
-9.25
-13.25
-18.45
-24.61
-31.17
-37.56
-43.39
-48.5
-52.91
-56.65
-59.81
-62.5
-64.94
-67.41
-70.15
-73.3
-76.8
-80.53
-84.35
-88.26
-92.32
-96.5
-100.56
-103.95
-105.89
-105.56
-102.42
-96.38
-87.91
-77.93
-67.51
-57.42
-47.95
-38.88
-29.71
-20.19
-10.44
-1.01
7.44
14.5
20.17
24.8
28.86
32.63
36.11
39.13
41.57
43.52
45.2
46.82
48.36
49.58
50.08
49.53
47.88
45.36
42.41
39.49
36.93
34.78
32.86
30.91
28.69
26.09
23.13
19.89
16.49
12.99
9.43
5.77
1.89
-2.4
-7.33
-12.95
-19.01
-24.8
-29.27
-31.33
-30.29
-26.07
-19.28
-10.98
-2.27
5.97
13.23
19.35
24.36
28.39
31.68
34.58
37.49
40.72
44.33
47.98
50.98
52.54
52.02
49.15
44.24
38.15
32.23
28.07
27.17
30.48
38.01
48.68
60.43
70.82
77.65
79.59
76.51
69.41
60.09
50.57
42.6
37.2
34.5
33.85
34.17
34.42
33.87
32.18
29.09
24.3
17.36
8.14
-2.82
-13.97
-23.1
-28.04
-27.52
-21.81
-12.51
-2.07
7.1
13.26
15.6
14.07
9.13
1.48
-7.97
-18.09
-27.53
-34.92
-39.08
-39.35
-35.63
-28.39
-18.62
-7.74
2.51
10.31
14.22
13.62
9.07
2.19
-4.85
-10.09
-12.46
-12.03
-9.82
-7.14
-4.99
-3.69
-2.91
-2.07
-0.76
0.96
2.57
3.42
3.05
1.56
-0.49
-2.3
-3.29
-3.45
-3.34
-3.96
-6.32
-11.01
-18.05
-26.77
-35.91
-43.89
-49.15
-50.56
-47.69
-41.0
-31.67
-21.27
-11.35
-3.1
2.82
6.22
7.2
6.03
3.01
-1.53
-7.19
-13.44
-19.64
-25.15
-29.46
-32.29
-33.71
-34.12
-34.06
-34.1
-34.59
-35.6
-36.91
-38.22
-39.3
-40.13
-40.95
-42.15
-44.11
-47.07
-51.02
-55.63
-60.32
-64.38
-67.07
-67.95
-66.91
-64.36
-61.08
-58.01
-56.02
-55.59
-56.69
-58.79
-60.94
-62.02
-61.11
-57.68
-51.72
-43.72
-34.41
-24.54
-14.68
-5.22
3.6
11.48
18.13
23.37
27.17
29.73
31.37
32.37
32.82
32.64
31.71
30.1
28.2
26.59
25.94
26.61
28.58
31.36
34.24
36.52
37.77
37.95
37.28
36.22
35.18
34.47
34.2
34.26
34.3
33.82
32.26
29.2
24.54
18.59
11.96
5.33
-0.78
-6.3
-11.57
-17.15
-23.53
-30.79
-38.44
-45.54
-50.92
-53.59
-53.04
-49.35
-43.12
-35.24
-26.65
-18.12
-10.22
-3.23
2.7
7.65
11.77
15.32
18.47
21.36
23.98
26.28
28.27
30.05
31.82
33.85
36.34
39.4
43.04
47.08
51.16
54.7
56.96
57.28
55.25
50.97
45.08
38.51
32.22
26.87
22.66
19.38
16.63
13.97
11.13
8.04
4.81
1.65
-1.17
-3.39
-4.87
-5.57
-5.73
-5.92
-7.03
-10.01
-15.59
-23.86
-34.1
-44.75
-53.87
-59.64
-60.92
-57.53
-50.25
-40.45
-29.61
-19.02
-9.45
-1.22
5.64
11.22
15.6
18.74
20.62
21.34
21.21
20.72
20.46
20.93
22.46
25.08
28.61
32.65
36.66
40.05
42.2
42.66
41.23
38.1
33.76
28.95
24.37
20.51
17.47
15.03
12.74
10.13
6.92
3.08
-1.17
-5.48
-9.54
-13.17
-16.36
-19.15
-21.61
-23.75
-25.64
-27.45
-29.45
-32.0
-35.26
-39.05
-42.74
-45.42
-46.11
-44.15
-39.45
-32.41
-23.95
-15.04
-6.54
0.94
7.1
11.85
15.17
17.15
17.93
17.74
16.94
15.92
15.06
14.61
14.69
15.25
16.19
17.36
18.69
20.15
21.72
23.28
24.65
25.54
25.73
25.16
23.98
22.5
21.01
19.65
18.32
16.76
14.71
12.12
9.19
6.35
4.02
2.41
1.41
0.56
-0.76
-3.1
-6.69
-11.31
-16.33
-20.89
-24.07
-25.17
-23.82
-20.04
-14.22
-6.93
1.11
9.3
17.2
24.63
31.61
38.21
44.37
49.67
53.45
54.88
53.46
49.29
43.23
36.69
31.11
27.53
26.22
26.74
28.21
29.68
30.46
30.18
28.81
26.46
23.34
19.66
15.67
11.59
7.67
4.15
1.25
-0.89
-2.29
-3.06
-3.41
-3.62
-3.99
-4.78
-6.22
-8.49
-11.63
-15.51
-19.85
-24.25
-28.44
-32.24
-35.75
-39.1
-42.41
-45.57
-48.25
-49.92
-50.07
-48.34
-44.65
-39.19
-32.34
-24.63
-16.61
-8.84
-1.78
4.22
8.98
12.46
14.71
15.86
16.05
15.49
14.44
13.24
12.26
11.76
11.85
12.45
13.38
14.43
15.51
16.63
17.79
18.96
19.94
20.45
20.18
18.98
16.91
14.26
11.39
8.63
6.14
3.89
1.75
-0.38
-2.55
-4.72
-6.81
-8.8
-10.77
-12.84
-15.12
-17.62
-20.28
-22.99
-25.78
-28.81
-32.36
-36.55
-41.18
-45.63
-48.92
-50.04
-48.32
-43.63
-36.47
-27.73
-18.43
-9.42
-1.25
5.91
12.11
17.55
22.47
27.07
31.46
35.59
39.17
41.7
42.58
41.37
38.08
33.31
28.11
23.72
21.02
20.27
21.05
22.52
23.79
24.29
23.85
22.61
20.8
18.59
16.05
13.24
10.3
7.43
4.88
2.76
1.05
-0.37
-1.62
-2.73
-3.65
-4.25
-4.53
-4.65
-4.97
-5.87
-7.64
-10.26
-13.37
-16.38
-18.53
-19.14
-17.69
-13.91
-7.82
0.28
9.82
20.0
29.93
38.83
46.22
52.02
56.58
60.39
63.94
67.51
71.14
74.74
78.25
81.72
85.31
89.28
93.97
99.84
107.38
117.13
129.31
143.54
158.55
172.37
182.73
187.8
186.75
180.05
169.19
156.05
142.26
128.76
115.84
103.48
91.83
81.46
73.27
68.11
66.29
67.28
69.74
71.86
71.96
69.02
63.08
55.16
46.84
39.58
34.14
30.24
26.78
22.36
15.84
6.76
-4.65
-17.83
-32.32
-48.08
