-45.21
-44.53
-40.71
-34.35
-26.61
-18.76
-11.69
-5.8
-1.02
3.0
6.73
10.57
14.81
19.56
24.71
30.0
35.02
39.47
43.12
45.98
48.14
49.75
50.86
51.44
51.43
50.8
49.63
47.93
45.7
42.8
39.04
34.37
28.92
23.1
17.49
12.56
8.49
5.14
2.1
-1.1
-4.84
-9.34
-14.67
-20.77
-27.42
-34.15
-40.17
-44.44
-45.93
-43.92
-38.26
-29.48
-18.59
-6.85
4.55
14.72
23.1
29.48
33.95
36.82
38.54
39.57
40.28
40.88
41.41
41.86
42.2
42.52
42.96
43.65
44.6
45.71
46.72
47.38
47.45
46.85
45.55
43.67
41.37
38.85
36.27
33.76
31.35
28.97
26.48
23.66
20.4
16.64
12.46
8.03
3.59
-0.67
-4.69
-8.6
-12.73
-17.48
-23.09
-29.4
-35.74
-40.94
-43.69
-42.92
-38.2
-29.93
-19.21
-7.52
3.75
13.57
21.45
27.44
31.9
35.34
38.21
40.79
43.14
45.23
46.96
48.38
49.62
50.92
52.51
54.42
56.54
58.61
60.36
61.62
62.3
62.37
61.79
60.5
58.42
55.61
52.22
48.54
44.91
41.58
38.63
35.95
33.22
30.12
26.43
22.15
17.46
12.69
8.17
4.09
0.43
-3.0
-6.56
-10.55
-15.21
-20.54
-26.17
-31.4
-35.26
-36.8
-35.34
-30.76
-23.52
-14.64
-5.25
3.59
11.26
17.52
22.52
26.56
29.91
32.76
35.19
37.26
39.06
40.78
42.63
44.78
47.29
50.07
52.99
55.9
58.79
61.78
65.03
68.65
72.59
76.61
80.35
83.51
86.01
88.06
90.13
92.76
96.38
101.07
106.57
112.37
117.95
123.07
127.88
132.94
139.08
147.08
157.4
169.85
183.49
196.69
207.41
213.69
214.09
208.05
195.91
178.67
157.64
133.98
108.52
81.59
53.17
23.3
-7.56
-38.24
-66.88
-91.39
-110.13
-122.61
-129.64
-133.09
-135.09
-137.29
-140.44
-144.41
-148.63
-152.57
-155.98
-158.92
-161.5
-163.71
-165.34
-166.11
-165.82
-164.5
-162.54
-160.52
-159.02
-158.47
-158.87
-159.89
-160.98
-161.67
-161.78
-161.5
-161.22
-161.24
-161.55
-161.79
-161.38
-159.87
-157.14
-153.48
-149.35
-145.09
-140.63
-135.43
-128.63
-119.39
-107.22
-92.21
-74.99
-56.66
-38.47
-21.62
-6.93
5.22
14.93
22.58
28.63
33.48
37.29
40.19
42.33
44.1
46.04
48.67
52.15
56.14
59.89
62.59
63.83
63.93
63.89
64.97
68.15
73.64
80.78
88.27
94.73
99.25
101.7
102.78
103.61
105.29
108.52
113.26
118.82
123.92
126.96
126.26
120.33
108.16
89.55
65.31
37.21
7.65
-20.92
-46.59
-68.38
-86.21
-100.49
-111.63
-119.58
-123.94
-124.33
-120.91
-114.67
-107.29
-100.52
-95.43
-91.95
-88.98
-84.98
-78.85
-70.47
-60.74
-51.02
-42.4
-35.14
-28.69
-22.17
-14.99
-7.32
-0.02
5.79
9.37
10.77
10.79
10.62
11.25
13.16
16.17
19.68
22.97
25.53
27.21
28.27
29.21
30.54
32.59
35.38
38.56
41.66
44.3
46.3
47.71
48.64
49.18
49.33
49.16
48.82
48.33
47.24
44.35
37.97
26.71
10.44
-9.17
-28.86
-44.95
-54.78
-57.59
-54.63
-48.29
-40.95
-34.24
-28.78
-24.51
-21.1
-18.28
-15.87
-13.66
-11.27
-8.25
-4.19
1.08
7.46
14.59
21.97
29.16
35.88
42.09
47.89
53.3
58.07
61.53
62.73
60.81
55.33
46.57
35.48
23.37
11.45
0.43
-9.61
-19.03
-28.23
-37.34
-45.91
-53.14
-58.16
-60.42
-59.93
-57.24
-53.15
-48.48
-43.78
-39.44
-35.67
-32.7
-30.77
-29.93
-29.94
-30.16
-29.69
-27.7
-23.72
-17.88
-10.93
-3.97
1.87
5.79
7.54
7.42
6.15
4.58
3.5
3.33
4.1
5.45
6.81
7.6
7.44
6.21
4.14
1.61
-0.98
-3.34
-5.34
-7.03
-8.52
-9.87
-11.06
-12.04
-12.7
-12.99
-12.94
-12.69
-12.46
-12.52
-13.06
-14.14
-15.61
-17.16
-18.4
-18.97
-18.57
-17.12
-14.75
-11.87
-9.16
-7.39
-7.11
-8.33
-10.36
-11.91
-11.56
-8.29
-1.97
6.6
15.89
24.23
30.3
33.56
34.33
33.51
32.23
31.41
31.55
32.61
34.26
35.98
37.32
37.88
37.34
35.62
33.05
30.65
29.95
32.36
38.33
46.74
55.02
60.0
59.31
52.42
40.84
27.31
14.52
4.07
-3.97
-10.55
-16.81
-23.43
-30.37
-37.17
-43.36
-48.71
-53.2
-56.79
-59.16
-59.79
-58.15
-54.16
-48.54
-42.62
-37.96
-35.63
-35.73
-37.24
-38.47
-37.77
-34.24
-28.05
-20.27
-12.27
-5.18
0.48
4.82
8.3
11.38
14.3
17.02
19.34
21.14
22.42
23.32
23.94
24.29
24.2
23.43
21.87
19.6
16.93
14.23
11.8
9.75
7.98
6.33
4.7
3.09
1.63
0.49
-0.17
-0.32
-0.08
0.27
0.33
-0.27
-1.75
-4.08
-6.96
-9.91
-12.54
-14.7
-16.48
-18.23
-20.25
-22.81
-26.03
-29.95
-34.55
-39.7
-44.99
-49.69
-52.86
-53.54
-51.23
-46.0
-38.56
-29.98
-21.31
-13.34
-6.37
-0.39
4.83
9.46
13.6
17.18
20.03
21.99
23.0
23.15
22.71
22.11
21.73
21.83
22.45
23.45
24.59
25.64
26.48
27.01
27.16
26.77
25.72
23.9
21.33
18.24
14.91
11.65
8.64
5.96
3.6
1.49
-0.45
-2.27
-4.06
-5.96
-8.08
-10.48
-13.12
-15.8
-18.31
-20.47
-22.28
-23.93
-25.77
-28.25
-31.73
-36.44
-42.34
-49.04
-55.86
-61.85
-66.03
-67.56
-65.97
-61.31
-54.06
-44.96
-34.77
-24.14
-13.51
-3.15
6.73
15.84
23.77
30.12
34.59
37.11
37.95
37.62
36.71
35.7
34.84
34.18
33.62
33.02
32.29
31.36
30.15
28.55
26.45
23.81
20.73
17.44
14.23
11.38
8.98
6.99
5.18
3.38
1.53
-0.23
-1.62
-2.38
-2.36
-1.69
-0.69
0.2
0.53
-0.09
-1.94
-5.11
-9.41
-14.29
-18.87
-22.13
-23.18
-21.54
-17.3
-11.07
-3.68
4.01
11.42
18.25
24.36
29.6
33.7
36.36
37.4
36.96
35.56
33.9
32.65
32.13
32.24
32.58
32.71
32.4
31.73
31.0
30.5
30.39
30.58
30.8
30.73
30.08
28.64
26.32
23.18
19.35
15.07
10.57
6.02
1.51
-2.92
-7.22
-11.25
-14.87
-17.98
-20.67
-23.24
-26.13
-29.79
-34.41
-39.8
-45.29
-49.91
-52.57
-52.46
-49.27
-43.36
-35.63
-27.25
-19.32
-12.57
-7.31
-3.47
-0.77
1.05
2.2
2.85
3.14
3.28
3.54
4.2
5.39
7.09
9.16
11.41
13.72
16.14
18.83
21.89
25.25
28.55
31.21
32.58
32.27
30.19
26.69
22.33
17.73
13.36
9.4
5.72
2.08
-1.82
-6.08
-10.59
-15.08
-19.22
-22.8
-25.83
-28.49
-31.15
-34.18
-37.83
-42.17
-46.95
-51.6
-55.31
-57.21
-56.56
-52.99
-46.67
-38.16
-28.34
-18.03
-7.94
1.5
10.06
17.59
24.01
29.23
33.35
36.58
39.42
42.37
45.88
50.07
54.62
58.98
62.44
64.53
65.09
64.34
62.67
60.49
58.09
55.61
53.1
50.53
47.85
45.03
42.04
38.99
36.11
33.61
31.52
29.61
27.38
24.32
20.14
14.94
9.03
2.79
-3.63
-10.27
-17.22
-24.42
-31.56
-38.21
-44.0
-48.72
-52.32
-54.7
-55.61
-54.61
-51.27
-45.48
-37.63
-28.61
-19.52
-11.31
-4.41
1.26
6.18
10.87
15.54
20.01
23.81
26.43
27.62
27.53
26.67
25.72
25.24
25.39
25.9
26.16
25.54
23.71
20.76
17.15
13.39
9.76
6.24
2.56
-1.47
-5.82
-10.22
-14.34
-18.04
-21.45
-24.88
-28.5
-32.23
-35.64
-38.18
-39.46
-39.44
-38.57
-37.62
-37.44
-38.64
-41.32
-44.97
-48.63
-51.07
-51.24
-48.47
-42.65
-34.17
-23.76
-12.38
-0.97
9.6
18.74
26.19
32.01
36.44
39.72
41.93
42.95
42.59
40.8
37.84
34.21
30.55
27.37
24.91
23.15
21.89
20.89
20.02
19.21
18.42
17.59
16.58
15.23
13.4
11.0
8.11
4.82
1.31
-2.28
-5.85
-9.35
-12.79
-16.21
-19.67
-23.31
-27.27
-31.73
-36.8
-42.45
-48.35
-53.88
-58.2
-60.42
-59.89
-56.4
-50.25
-42.16
-33.02
-23.75
-15.04
-7.36
-0.93
4.15
7.9
10.39
11.75
12.13
11.74
10.88
9.88
9.05
8.64
8.76
9.39
10.39
11.56
12.73
13.76
14.51
14.86
14.67
13.81
12.22
9.96
7.22
4.29
1.47
-1.05
-3.23
-5.23
-7.31
-9.74
-12.63
-15.86
-19.23
-22.54
-25.78
-29.2
-33.24
-38.23
-44.16
-50.49
-56.2
-60.09
-61.13
-58.81
-53.29
-45.28
-35.76
-25.73
-15.91
-6.75
1.57
9.0
15.44
20.74
24.65
26.99
27.69
26.92
25.09
22.77
20.57
18.96
18.23
18.46
19.51
21.1
22.88
24.47
25.5
25.7
24.98
23.45
21.36
19.0
16.58
14.18
11.74
9.09
5.94
2.07
-2.67
-8.24
-14.38
-20.64
-26.51
-31.55
-35.63
-38.91
-41.87
-45.13
-49.12
-53.94
-59.19
-63.93
-66.99
-67.27
-64.12
-57.61
-48.47
-37.89
-27.09
-16.93
-7.71
0.84
9.29
18.15
27.62
37.44
47.01
55.61
62.78
68.5
73.24
77.75
82.74
88.57
95.2
102.33
109.63
117.03
124.7
132.87
141.65
150.8
159.8
167.96
174.59
179.0
180.43
177.94
170.55
157.69
139.57
117.46
93.43
69.72
47.94
28.54
10.8
-6.71
-25.45
-46.27
-69.16
-93.27
-117.18
-139.23
-157.86
-171.83
-180.46
-183.61
-181.68
-175.41
-165.75
-153.7
-140.3
-126.49
-113.05
-100.48
-89.01
-78.63
-69.19
-60.61
-52.81
-45.69
-38.99
-32.3
-25.16
-17.24
-8.62
0.25
8.67
15.98
21.77
26.05
29.11
31.42
33.35
35.15
36.83
38.28
39.34
39.93
40.1
39.98
39.71
39.33
38.71
37.61
35.72
32.82
28.78
23.58
17.3
10.17
2.58
-4.86
-11.37
-16.16
-18.61
-18.44
-15.79
-11.21
-5.51
0.39
5.59
9.41
11.46
11.68
10.28
7.54
3.67
-1.22
-7.08
-13.72
-20.68
-27.27
-32.83
-36.85
-39.22
-40.12
-39.91
-38.91
-37.38
-35.58
-33.83
-32.65
-32.59
-33.99
-36.77
-40.35
-43.85
-46.44
-47.8
-48.25
-48.6
-49.82
-52.55
-56.88
-62.32
-68.07
-73.27
-77.22
-79.43
-79.57
-77.43
-72.95
-66.26
-57.76
-48.08
-37.96
-28.14
-19.17
-11.42
-5.12
-0.36
2.82
4.44
4.64
3.7
2.03
0.21
-1.22
-1.9
-1.67
-0.63
1.0
2.95
5.03
7.1
9.04
10.71
11.89
12.42
12.23
11.44
10.3
9.08
7.99
7.09
6.25
5.15
3.38
0.48
-3.81
-9.36
-15.44
-20.81
-23.99
-23.74
-19.49
-11.53
-0.86
11.23
23.53
35.11
45.31
53.64
59.71
63.34
64.73
64.49
63.54
62.76
62.63
63.04
63.36
62.66
60.13
55.37
48.59
40.55
32.39
25.26
20.03
17.06
16.15
16.61
17.57
18.21
17.89
16.31
13.4
9.28
4.17
-1.67
-8.0
-14.58
-21.32
-28.21
-35.4
-43.08
-51.35
-60.01
-68.41
-75.52
-80.12
-81.17
-78.2
-71.5
-62.07
-51.37
-40.86
-31.63
-24.24
-18.7
-14.65
-11.54
-8.83
-6.08
-2.93
0.87
5.56
11.3
18.14
25.95
34.36
42.86
50.95
58.24
64.51
69.76
74.04
77.42
79.91
81.45
82.0
81.56
80.18
77.86
74.6
70.33
64.98
58.64
51.47
43.79
35.8
27.6
19.07
9.97
0.16
-10.21
-20.52
-29.76
-36.81
-40.72
-41.04
-37.92
-31.94
-23.94
-14.77
-5.15
4.28
13.06
20.8
27.3
32.53
36.64
39.83
42.3
44.16
45.48
46.35
46.92
47.35
47.78
48.31
49.01
49.96
51.3
53.1
55.36
57.92
60.58
63.07
65.2
66.65
67.0
65.61
61.75
54.86
44.79
32.04
17.66
3.04
-10.48
-21.94
-30.91
-37.59
-42.62
-46.77
-50.69
-54.62
-58.31
-61.09
-62.1
-60.56
-55.95
-48.19
-37.67
-25.14
-11.57
2.04
14.93
26.64
36.96
45.79
53.02
58.42
61.73
62.82
61.81
59.06
55.03
50.12
44.58
38.47
31.85
24.81
17.56
10.41
3.65
-2.47
-7.83
-12.49
-16.59
-20.4
-24.18
-28.09
-32.14
-36.22
-40.11
-43.68
-46.84
-49.64
-52.17
-54.48
-56.53
-58.14
-58.97
-58.53
-56.27
-51.72
-44.63
-35.04
-23.45
-10.65
2.28
14.2
24.1
31.3
35.55
36.99
36.15
33.71
30.39
26.74
23.16
19.91
17.15
15.01
13.64
13.08
13.32
14.25
15.63
17.2
18.66
19.71
20.14
19.77
18.53
16.35
13.22
9.17
4.34
-0.95
-6.24
-11.03
-14.97
-17.96
-20.25
-22.31
-24.61
-27.45
-30.84
-34.55
-38.2
-41.34
-43.53
-44.31
-43.24
-40.06
-34.8
-27.9
-20.13
-12.41
-5.62
-0.39
2.99
4.5
4.36
2.92
0.61
-2.11
-4.8
-7.14
-8.89
-9.9
-10.13
-9.57
-8.3
-6.5
-4.47
-2.49
-0.77
0.6
1.69
2.53
3.12
3.31
2.95
2.0
0.6
-0.97
-2.48
-3.84
-5.21
-6.93
-9.29
-12.44
-16.21
-20.14
-23.6
-25.9
-26.46
-24.96
-21.39
-16.15
-9.96
-3.73
1.61
5.38
7.21
7.11
5.42
2.6
-0.76
-4.07
-6.87
-8.81
-9.79
-9.96
-9.62
-9.12
-8.63
-8.14
-7.46
-6.4
-4.87
-3.06
-1.32
-0.06
0.42
0.02
-1.16
-2.89
-4.9
-6.9
-8.65
-9.99
-10.86
-11.34
-11.62
-11.97
-12.65
-13.81
-15.34
-16.89
-17.85
-17.6
-15.73
-12.22
-7.54
-2.48
2.12
5.7
8.11
9.56
10.42
10.95
11.16
10.94
10.18
8.93
7.48
6.17
5.28
4.86
4.69
4.43
3.78
2.6
0.97
-0.9
-2.77
-4.44
-5.77
-6.67
-7.09
-7.04
-6.67
-6.22
-6.02
-6.31
-7.21
-8.66
-10.54
-12.73
-15.18
-17.81
-20.37
-22.43
-23.42
-22.78
-20.28
-16.09
-10.72
-4.84
0.9
6.01
10.2
13.28
15.19
15.91
15.56
14.31
12.42
10.22
8.07
6.31
5.18
4.76
4.9
5.32
5.72
5.86
5.64
5.06
4.13
2.86
1.21
-0.81
-3.1
-5.46
-7.59
-9.22
-10.13
-10.34
-10.07
-9.83
-10.23
-11.81
-14.84
-19.06
-23.76
-27.89
-30.36
-30.28
-27.15
-21.01
-12.4
-2.33
7.84
16.77
23.28
26.69
26.89
24.32
19.77
14.24
8.71
4.08
0.99
-0.21
0.46
2.58
5.45
8.28
10.47
11.75
12.21
12.14
11.89
11.62
11.27
10.64
9.46
7.55
4.87
1.52
-2.4
-6.77
-11.56
-16.69
-22.01
-27.21
-31.83
-35.32
-37.16
-36.9
-34.34
-29.57
-23.03
-15.52
-7.99
-1.27
4.11
8.03
10.65
12.22
12.82
12.4
10.84
8.23
4.88
1.31
-2.05
-4.93
-7.3
-9.17
-10.43
-10.81
-10.09
-8.32
-5.88
-3.43
-1.6
-0.85
-1.34
-3.13
-6.26
-10.77
-16.54
-23.22
-30.22
-36.94
-43.07
-48.68
-54.07
-59.5
-64.87
-69.65
-73.05
-74.37
-73.18
-69.43
-63.38
-55.47
-46.24
-36.25
-26.05
-16.12
-6.82
1.67
9.25
15.9
21.63
26.47
30.55
34.06
37.24
40.28
43.21
45.91
48.14
49.69
50.36
50.02
48.58
45.92
41.98
36.82
30.68
23.99
17.32
11.19
6.02
2.0
-0.92
-3.05
-4.91
-7.15
-10.34
-14.8
-20.32
-26.1
-30.93
-33.56
-33.11
-29.5
-23.37
-15.96
-8.55
-2.14
2.79
6.25
8.51
9.93
10.74
11.1
11.03
10.56
9.7
8.51
7.07
5.48
3.82
2.22
0.9
0.27
0.87
3.23
7.59
13.64
20.46
26.74
31.22
33.12
32.37
29.5
25.35
20.63
15.79
10.96
6.17
1.48
-3.02
-7.36
-11.81
-16.83
-22.83
-29.82
-37.15
-43.51
-47.41
-47.57
-43.53
-35.79
-25.66
-14.84
-4.96
2.88
8.18
10.95
11.54
10.35
7.73
4.04
-0.25
-4.4
-7.48
-8.61
-7.34
-3.95
0.6
4.99
8.17
9.69
9.89
9.52
9.28
9.44
9.76
9.77
9.08
7.59
5.5
3.14
0.73
-1.71
-4.31
-7.32
-10.92
-15.22
-20.25
-25.91
-31.94
-37.86
-42.98
-46.43
-47.42
-45.41
-40.36
-32.74
-23.42
-13.44
-3.75
5.07
12.82
19.53
25.37
30.41
34.55
37.55
39.17
39.29
38.02
35.72
32.95
30.26
28.01
26.24
24.72
22.99
20.66
17.49
13.47
8.81
3.9
-0.85
-4.94
-7.94
-9.58
-9.97
-9.49
-8.83
-8.7
-9.65
-12.05
-16.07
-21.73
-28.88
-37.05
-45.24
-51.96
-55.46
-54.32
-47.9
-36.69
-22.13
-6.26
9.03
22.47
33.62
42.73
50.37
57.03
62.94
68.0
72.07
75.11
77.26
78.75
79.75
80.34
80.57
80.57
80.66
81.21
82.52
84.55
86.94
89.08
90.36
90.42
89.11
86.49
82.64
77.57
71.21
63.41
54.02
42.87
29.83
14.94
-1.41
-18.44
-34.81
-48.86
-58.96
-64.01
-63.82
-59.21
-51.87
-43.79
-36.66
-31.5
-28.5
-27.29
-27.29
-28.04
-29.32
-31.02
-33.02
-34.97
-36.47
-37.15
-36.89
-35.9
-34.58
-33.39
-32.56
-32.01
-31.37
-30.15
-27.97
-24.75
-20.83
-16.92
-13.91
-12.6
-13.4
-16.15
-20.19
-24.68
-28.84
-32.3
-35.14
-37.83
-40.97
-45.05
-50.33
-56.62
-63.31
-69.31
-73.32
-74.08
-70.73
-63.14
-52.02
-38.69
-24.77
-11.7
-0.47
8.47
15.07
19.55
22.21
23.41
23.56
23.13
22.62
22.44
22.84
23.82
25.17
26.58
27.8
28.7
29.35
29.89
30.41
30.79
30.78
29.98
28.08
25.06
21.16
16.89
12.74
9.02
5.7
2.5
-0.96
-4.9
-9.28
-13.85
-18.23
-22.18
-25.69
-29.02
-32.63
-37.04
-42.59
-49.32
-56.77
-63.95
-69.52
-72.04
-70.45
-64.35
-54.21
-41.24
-27.06
-13.29
-1.12
8.81
16.5
22.3
26.72
30.12
32.7
34.5
35.55
36.0
36.14
