-47.77
-32.78
-19.25
-7.69
1.85
9.44
15.01
18.42
19.65
19.05
17.35
15.49
14.43
14.7
16.42
19.25
22.65
26.13
29.33
32.05
34.07
34.92
33.9
30.33
23.89
14.92
4.5
-5.89
-14.9
-21.88
-27.09
-31.58
-36.62
-43.14
-51.32
-60.69
-70.46
-80.14
-89.79
-100.06
-111.85
-125.74
-141.68
-158.75
-175.32
-189.35
-198.77
-201.75
-196.99
-184.11
-163.88
-138.25
-110.09
-82.43
-57.6
-36.62
-19.12
-3.89
10.31
23.97
36.62
47.15
54.48
58.29
59.26
58.97
59.23
61.44
66.08
72.7
80.27
87.78
94.64
100.68
105.87
109.83
111.74
110.66
106.04
98.27
88.66
79.01
70.85
64.86
60.61
56.77
51.62
43.6
31.71
15.79
-3.48
-24.53
-45.23
-63.34
-77.12
-85.76
-89.62
-89.98
-88.44
-86.3
-84.01
-81.12
-76.58
-69.28
-58.51
-44.27
-27.22
-8.55
10.28
27.78
42.53
53.47
60.04
62.31
61.0
57.24
52.35
47.45
43.21
39.79
36.9
34.04
30.74
26.78
22.25
17.58
13.27
9.74
7.1
5.13
3.3
1.02
-2.16
-6.43
-11.7
-17.58
-23.51
-28.82
-32.89
-35.37
-36.33
-36.39
-36.57
-37.9
-40.9
-45.28
-49.81
-52.78
-52.51
-48.02
-39.31
-27.27
-13.33
1.1
14.94
27.59
38.77
48.39
56.36
62.56
66.98
69.84
71.64
73.11
75.07
78.14
82.55
88.05
94.04
99.86
105.03
109.51
113.68
118.16
123.54
130.18
138.11
146.99
156.21
165.03
172.64
178.39
181.88
183.09
182.31
179.95
176.32
171.37
164.65
155.46
143.01
126.75
106.64
83.25
57.79
31.92
7.46
-13.95
-31.21
-43.94
-52.57
-58.24
-62.57
-67.27
-73.83
-83.15
-95.48
-110.43
-127.16
-144.7
-162.14
-178.89
-194.58
-208.92
-221.36
-230.86
-235.93
-234.99
-226.88
-211.3
-189.03
-161.79
-131.91
-101.89
-74.09
-50.4
-31.96
-19.02
-10.88
-6.2
-3.54
-1.81
-0.54
0.3
0.73
1.03
1.63
2.87
4.6
6.26
7.05
6.39
4.08
0.25
-4.82
-10.78
-17.14
-23.13
-27.68
-29.69
-28.44
-23.91
-16.87
-8.59
-0.4
6.71
12.3
16.41
19.4
21.72
23.77
25.8
27.85
29.76
31.18
31.75
31.29
29.98
28.29
26.88
26.31
26.83
28.33
30.47
32.76
34.8
36.24
36.8
36.2
34.3
31.11
26.96
22.4
18.12
14.7
12.52
11.57
11.57
12.01
12.33
12.04
10.93
9.13
7.03
5.0
3.13
1.04
-1.97
-6.53
-12.67
-19.56
-25.68
-29.37
-29.59
-26.28
-20.37
-13.23
-6.09
0.43
6.3
11.86
17.44
23.16
28.84
34.12
38.57
41.8
43.47
43.47
41.96
39.42
36.54
33.99
32.21
31.24
30.84
30.62
30.31
29.72
28.81
27.48
25.57
22.94
19.51
15.41
10.89
6.21
1.59
-2.86
-7.02
-10.67
-13.54
-15.35
-16.06
-15.94
-15.57
-15.66
-16.83
-19.45
-23.58
-29.0
-35.19
-41.38
-46.53
-49.58
-49.64
-46.33
-39.93
-31.33
-21.77
-12.5
-4.44
1.93
6.66
10.12
12.89
15.59
18.7
22.43
26.52
30.26
32.6
32.53
29.49
23.66
16.02
7.93
0.62
-5.33
-10.28
-15.29
-21.67
-30.26
-40.89
-52.18
-61.83
-67.34
-66.95
-60.29
-48.67
-34.61
-20.99
-10.11
-3.08
0.15
0.35
-1.55
-4.85
-9.08
-13.88
-18.9
-23.75
-28.14
-31.92
-34.98
-37.08
-37.84
-36.76
-33.47
-27.94
-20.6
-12.2
-3.63
4.5
11.84
18.37
24.15
29.14
33.08
35.53
36.02
34.29
30.39
24.8
18.32
11.87
6.3
2.19
-0.29
-1.4
-1.72
-1.92
-2.6
-3.98
-5.89
-7.81
-9.09
-9.19
-7.95
-5.63
-2.82
-0.25
1.56
2.4
2.43
2.06
1.77
1.94
2.81
4.45
6.71
9.24
11.44
12.6
12.06
9.52
5.28
0.28
-4.06
-6.24
-5.15
-0.37
7.7
18.01
29.15
39.77
48.87
56.05
61.43
65.53
68.93
72.05
74.79
76.69
77.04
75.31
71.38
65.67
58.92
51.89
45.11
38.79
32.93
27.45
22.25
17.22
12.17
6.82
0.93
-5.48
-12.13
-18.49
-24.1
-28.74
-32.61
-36.19
-40.0
-44.36
-49.14
-53.72
-57.16
-58.46
-56.95
-52.57
-46.09
-38.88
-32.57
-28.45
-27.07
-27.99
-29.96
-31.42
-30.96
-27.72
-21.47
-12.48
-1.25
11.67
25.71
40.21
54.47
67.68
79.18
88.56
95.76
100.99
104.58
106.8
107.79
107.5
105.86
102.84
98.54
93.24
87.25
80.87
74.28
67.57
60.75
53.85
46.92
40.0
33.07
25.97
18.47
10.28
1.25
-8.65
-19.26
-30.32
-41.49
-52.39
-62.56
-71.47
-78.61
-83.59
-86.23
-86.64
-85.12
-82.1
-77.89
-72.63
-66.25
-58.58
-49.6
-39.58
-29.18
-19.37
-11.17
-5.42
-2.5
-2.2
-3.81
-6.27
-8.48
-9.64
-9.35
-7.75
-5.3
-2.76
-0.8
0.03
-0.48
-2.23
-4.78
-7.44
-9.52
-10.38
-9.77
-7.87
-5.27
-2.86
-1.56
-2.17
-5.16
-10.59
-18.11
-26.96
-36.08
-44.29
-50.56
-54.24
-55.29
-54.26
-52.18
-50.26
-49.52
-50.38
-52.48
-54.7
-55.43
-53.15
-46.9
-36.76
-23.81
-9.92
2.83
12.65
18.45
19.94
17.58
12.34
5.52
-1.42
-7.2
-10.84
-11.98
-10.99
-8.75
-6.41
-4.87
-4.46
-4.92
-5.62
-5.95
-5.66
-4.92
-4.2
-3.95
-4.39
-5.44
-6.78
-8.08
-9.1
-9.75
-10.12
-10.42
-10.91
-11.91
-13.76
-16.73
-20.89
-25.88
-30.8
-34.24
-34.56
-30.41
-21.21
-7.48
9.32
27.22
44.38
59.57
72.32
82.73
91.04
97.34
101.5
103.45
103.39
102.0
100.23
98.84
97.94
96.81
94.19
88.88
80.33
69.01
56.03
42.63
29.6
16.97
4.28
-8.95
-22.78
-36.71
-49.96
-61.83
-72.01
-80.61
-88.02
-94.63
-100.72
-106.36
-111.56
-116.16
-119.9
-122.23
-122.38
-119.55
-113.3
-103.77
-91.78
-78.55
-65.41
-53.38
-43.09
-34.76
-28.42
-24.06
-21.56
-20.72
-21.07
-21.99
-22.82
-23.07
-22.54
-21.34
-19.85
-18.44
-17.42
-16.84
-16.51
-16.15
-15.49
-14.51
-13.51
-12.99
-13.41
-15.0
-17.54
-20.47
-23.1
-24.91
-25.78
-25.98
-26.1
-26.81
-28.67
-31.99
-36.7
-42.29
-47.79
-51.92
-53.4
-51.3
-45.39
-36.2
-24.83
-12.63
-0.79
9.85
18.82
25.89
30.9
33.85
34.86
34.27
32.63
30.57
28.64
27.16
26.21
25.67
25.3
24.91
24.39
23.78
23.17
22.72
22.44
22.22
21.78
20.82
19.05
16.41
13.06
9.32
5.58
2.07
-1.23
-4.56
-8.37
-13.01
-18.54
-24.58
-30.24
-34.34
-35.66
-33.4
-27.35
-17.99
-6.29
6.6
19.69
32.25
43.82
54.14
63.04
70.43
76.43
81.35
85.65
89.85
94.3
99.05
103.88
108.37
112.05
114.54
115.65
115.35
113.76
111.1
107.56
103.22
98.0
91.69
84.04
74.89
64.33
52.66
40.38
28.06
16.15
4.95
-5.48
-15.28
-24.76
-34.24
-43.82
-53.29
-61.95
-68.85
-73.03
-73.92
-71.56
-66.61
-60.14
-53.3
-47.03
-41.94
-38.25
-35.97
-34.89
-34.66
-34.81
-34.75
-33.9
-31.87
-28.62
-24.46
-19.97
-15.8
-12.36
-9.78
-7.8
-6.06
-4.27
-2.45
-0.88
-0.01
-0.17
-1.47
-3.71
-6.5
-9.45
-12.29
-14.99
-17.74
-20.92
-24.96
-30.12
-36.27
-42.72
-48.33
-51.77
-51.98
-48.57
-41.97
-33.27
-23.78
-14.63
-6.55
0.14
5.34
9.02
11.1
11.6
10.7
8.89
6.78
5.03
4.07
4.01
4.7
5.78
6.9
7.88
8.73
9.62
10.66
11.82
12.81
13.2
12.5
10.42
6.92
2.2
-3.32
-9.14
-14.79
-19.85
-23.99
-27.05
-29.07
-30.37
-31.37
-32.4
-33.45
-34.09
-33.5
-30.84
-25.61
-17.86
-8.26
2.2
12.49
21.78
29.58
35.61
39.7
41.67
41.48
39.26
35.47
30.87
26.34
22.64
20.16
18.81
18.12
17.43
16.14
13.93
10.81
7.05
3.08
-0.68
-3.92
-6.49
-8.38
-9.73
-10.78
-11.76
-12.87
-14.23
-15.88
-17.86
-20.23
-23.14
-26.77
-31.28
-36.66
-42.68
-48.83
-54.34
-58.35
-60.05
-58.91
-54.85
-48.19
-39.66
-30.13
-20.45
-11.33
-3.24
3.55
8.89
12.7
14.97
15.79
15.42
14.32
13.0
11.96
11.46
11.53
11.99
12.6
13.19
13.65
13.97
14.08
13.88
13.19
11.88
9.88
7.24
4.02
0.35
-3.63
-7.78
-11.9
-15.83
-19.53
-23.07
-26.65
-30.44
-34.46
-38.42
-41.8
-43.87
-43.97
-41.62
-36.71
-29.51
-20.62
-10.84
-0.96
8.27
16.27
22.63
27.08
29.53
30.07
29.1
27.32
25.57
24.7
25.23
27.16
29.98
32.88
35.09
36.17
36.15
35.44
34.54
33.75
33.12
32.38
31.23
29.42
26.97
24.0
20.69
17.17
13.45
9.49
5.28
0.86
-3.69
-8.35
-13.17
-18.25
-23.58
-28.9
-33.59
-36.76
-37.57
-35.43
-30.35
-22.85
-13.9
-4.58
4.15
11.57
17.26
21.04
22.91
23.12
22.11
20.54
19.09
18.3
18.36
19.1
20.06
20.7
20.68
20.0
19.06
18.57
19.27
21.68
25.73
30.76
35.58
38.81
39.43
37.07
32.2
25.75
18.79
12.02
5.6
-0.78
-7.57
-15.08
-23.23
-31.56
-39.36
-45.8
-50.13
-51.77
-50.36
-45.89
-38.69
-29.49
-19.33
-9.36
-0.61
6.19
10.75
13.25
14.11
13.92
13.28
12.64
12.33
12.5
13.18
14.26
15.56
16.9
18.13
19.17
19.94
20.37
20.4
20.01
19.22
18.15
16.95
15.81
14.9
14.39
14.37
14.75
15.24
15.37
14.65
12.79
9.84
6.29
2.96
0.7
0.26
2.01
5.83
11.22
17.38
23.41
28.57
32.43
34.96
36.43
37.22
37.62
37.65
37.13
35.78
33.5
30.43
27.04
23.91
21.54
20.17
19.77
20.1
20.88
21.89
23.07
24.43
25.97
27.61
29.16
30.4
31.16
31.38
31.09
30.44
29.48
28.16
26.27
23.46
19.46
14.1
7.38
-0.52
-9.31
-18.62
-27.93
-36.55
-43.65
-48.38
-50.07
-48.44
-43.72
-36.54
-27.85
-18.63
-9.78
-1.91
4.58
9.52
12.86
14.69
15.19
14.64
13.43
12.02
10.76
9.92
9.5
9.23
8.76
7.69
5.76
2.92
-0.72
-4.94
-9.49
-14.19
-18.91
-23.56
-28.05
-32.26
-35.99
-39.08
-41.47
-43.27
-44.66
-45.88
-47.06
-48.24
-49.46
-50.85
-52.64
-55.13
-58.43
-62.23
-65.79
-68.03
-67.84
-64.47
-57.75
-48.18
-36.78
-24.79
-13.36
-3.31
5.0
11.59
16.7
20.6
23.5
25.56
26.92
27.75
28.25
28.57
28.73
28.66
28.24
27.46
26.39
25.31
24.48
24.0
23.81
23.64
23.17
22.13
20.42
18.05
15.16
11.9
8.45
4.98
1.7
-1.21
-3.7
-5.86
-7.99
-10.44
-13.51
-17.3
-21.58
-25.85
-29.39
-31.41
-31.3
-28.71
-23.74
-16.86
-8.86
-0.52
7.48
14.66
20.79
25.69
29.22
31.3
31.93
31.3
29.73
27.67
25.47
23.43
21.7
20.33
19.33
18.65
18.22
17.99
17.91
17.91
17.89
17.6
16.74
14.99
12.17
8.29
3.59
-1.54
-6.73
-11.63
-16.12
-20.17
-23.94
-27.68
-31.74
-36.37
-41.61
-47.15
-52.23
-55.74
-56.45
-53.39
-46.17
-35.16
-21.47
-6.66
7.66
20.22
30.23
37.43
41.91
43.88
43.57
41.19
37.1
31.92
26.57
22.09
19.42
19.0
20.65
23.59
26.71
29.01
29.84
29.11
27.08
24.18
20.86
17.47
14.32
11.75
10.11
9.63
10.27
11.69
13.2
14.01
13.56
11.72
8.96
6.22
4.69
5.37
8.77
14.76
22.6
31.25
39.7
47.19
53.27
57.77
60.63
61.8
61.3
59.28
56.07
52.15
47.96
43.75
39.47
34.95
29.99
24.59
18.89
13.13
7.48
1.99
-3.31
-8.29
-12.6
-15.79
-17.46
-17.59
-16.54
-14.96
-13.47
-12.43
-11.87
-11.71
-11.95
-12.91
-15.03
-18.61
-23.5
-29.0
-34.05
-37.63
-39.18
-38.78
-37.01
-34.59
-32.13
-29.91
-27.96
-26.25
-24.81
-23.8
-23.35
-23.51
-24.12
-24.86
-25.35
-25.28
-24.47
-22.92
-20.71
-18.06
-15.23
-12.63
-10.69
-9.85
-10.34
-12.14
-14.94
-18.29
-21.73
-24.9
-27.61
-29.88
-31.79
-33.55
-35.41
-37.59
-40.23
-43.19
-46.08
-48.28
-49.2
-48.43
-45.93
-42.05
-37.26
-32.09
-26.88
-21.88
-17.27
-13.2
-9.82
-7.17
-5.11
-3.35
-1.56
0.47
2.79
5.21
7.49
9.45
11.01
12.18
13.01
13.49
13.55
13.11
12.12
10.66
8.91
7.15
5.64
4.55
3.95
3.74
3.72
3.58
3.02
1.75
-0.4
-3.4
-7.05
-10.88
-14.26
-16.49
-16.9
-15.05
-10.76
-4.18
4.24
13.82
23.77
33.32
41.85
48.98
54.58
58.77
61.8
63.98
65.53
66.53
66.84
66.15
64.11
60.46
55.19
48.62
41.36
34.18
27.69
22.15
17.19
11.92
5.18
-3.95
-15.59
-28.87
-42.06
-53.14
-60.54
-63.65
-62.87
-59.34
-54.28
-48.55
-42.51
-36.13
-29.34
-22.18
-14.82
-7.43
0.09
8.04
16.88
26.91
38.0
49.52
60.4
69.44
75.63
78.37
77.53
73.4
66.47
57.32
46.53
34.74
22.64
10.98
0.51
-8.05
-14.2
-17.76
-18.99
-18.66
-17.89
-17.99
-19.98
-24.27
-30.53
-37.79
-44.85
-50.73
-54.97
-57.75
-59.62
-61.23
-63.01
-65.09
-67.33
-69.44
-71.05
-71.78
-71.2
-68.91
-64.59
-58.14
-49.83
-40.36
-30.75
-22.07
-15.22
-10.56
-7.9
-6.53
-5.47
-3.7
-0.32
5.38
13.84
25.1
38.66
53.42
67.78
80.12
89.29
94.92
97.4
97.44
95.5
91.52
84.97
75.39
62.89
48.32
33.11
18.61
5.65
-5.69
-15.83
-25.24
-34.05
-42.0
-48.69
-53.82
-57.4
-59.65
-60.77
-60.75
-59.33
-56.34
-51.97
-46.95
-42.41
-39.39
-38.24
-38.36
-38.3
-36.38
-31.48
-23.6
-13.9
-4.23
3.61
8.57
10.55
10.26
8.74
7.03
5.89
5.84
7.12
9.7
13.24
17.07
20.35
22.34
22.63
21.25
18.63
15.33
11.84
8.37
4.79
0.81
-3.91
-9.46
-15.64
-21.84
-27.28
-31.18
-33.07
-32.89
-30.9
-27.6
-23.51
-19.12
-14.77
-10.77
-7.29
-4.39
-1.95
0.17
2.1
3.81
5.12
5.82
5.78
5.11
4.06
2.99
2.13
1.55
1.17
0.9
0.72
0.68
0.84
1.24
1.78
2.3
2.67
2.8
2.68
2.27
1.55
0.45
-1.04
-2.87
-4.89
-6.97
-9.09
-11.43
-14.24
-17.66
-21.51
-25.25
-28.16
-29.56
-29.19
-27.23
-24.19
-20.66
-16.96
-13.16
-9.17
-4.96
-0.78
2.87
5.41
6.49
6.13
4.8
3.23
2.1
1.89
2.69
4.3
6.34
8.43
10.3
11.8
12.91
13.7
14.26
14.67
15.0
15.26
15.39
15.23
14.53
13.11
10.83
7.75
4.08
0.15
-3.65
-7.01
-9.77
-12.0
-14.03
-16.27
-19.03
-22.38
-25.94
-28.98
-30.66
-30.32
-27.76
-23.29
-17.61
-11.45
-5.39
0.26
5.36
9.8
13.38
15.87
17.1
17.18
16.47
15.53
14.93
15.0
15.76
16.98
18.31
19.48
20.46
21.4
22.53
23.95
25.51
26.82
27.37
26.73
24.75
21.56
17.54
13.2
9.03
5.35
2.32
-0.1
-2.11
-3.96
-5.91
-8.17
-10.85
-14.0
-17.61
-21.56
-25.66
-29.57
-32.82
-34.89
-35.29
-33.72
-30.1
-24.69
-17.99
-10.7
-3.51
2.94
8.21
12.08
14.49
15.6
15.69
15.17
14.54
14.24
14.61
15.75
17.54
19.68
21.76
23.44
24.49
24.84
24.57
23.84
22.85
21.78
20.71
19.63
18.44
17.03
15.26
13.07
10.47
7.54
4.47
1.48
-1.21
-3.48
-5.37
-7.05
-8.88
-11.21
-14.26
-17.99
-22.07
-25.87
-28.68
-29.9
-29.25
-26.82
-23.06
-18.58
-13.95
-9.5
-5.32
-1.37
2.33
5.57
8.0
9.29
9.34
8.41
6.99
5.65
4.68
4.07
3.54
2.85
1.94
1.07
0.61
0.76
1.41
2.15
2.5
2.14
1.08
-0.41
-1.99
-3.47
-4.91
-6.54
-8.57
-11.05
-13.84
-16.66
-19.37
-21.91
-24.34
-26.71
-28.94
-30.83
-32.06
-32.35
-31.54
-29.61
-26.64
-22.79
-18.28
-13.33
-8.26
-3.4
0.95
4.52
7.11
8.64
9.09
8.64
7.61
6.55
5.98
6.33
7.69
9.84
12.32
14.65
16.49
17.7
18.31
18.37
17.87
16.76
15.02
12.74
10.1
7.34
4.61
1.92
-0.83
-3.76
-6.92
-10.27
-13.74
-17.31
-21.02
-24.87
-28.72
-32.22
-34.77
-35.78
-34.79
-31.67
-26.64
-20.19
-12.93
-5.51
1.51
7.7
12.68
16.26
18.36
19.14
18.94
18.22
17.44
16.92
16.77
16.89
17.12
17.32
17.43
17.46
17.41
17.2
16.67
15.65
14.07
11.98
9.53
6.86
4.06
1.17
-1.81
-4.86
-7.96
-11.07
-14.24
-17.58
-21.28
-25.49
-30.21
-35.14
-39.72
-43.19
-44.86
-44.29
-41.49
-36.83
-30.9
-24.35
-17.66
-11.18
-5.14
0.23
4.77
8.41
11.21
13.39
15.2
16.85
18.46
20.04
21.57
23.01
24.33
25.45
26.28
26.75
26.91
26.9
26.92
27.05
27.19
27.13
26.57
25.4
23.69
21.68
19.6
17.57
15.53
13.33
10.8
7.82
4.34
0.34
-4.2
-9.18
-14.36
-19.23
-23.07
-25.16
-24.99
-22.41
-17.74
-11.59
-4.72
2.22
8.79
14.68
19.74
23.86
26.99
29.16
30.54
31.41
32.03
32.54
32.95
33.2
33.3
33.38
33.67
34.35
35.43
36.66
37.64
37.96
37.38
35.89
33.64
30.9
27.94
24.98
22.18
19.61
17.28
15.05
12.73
10.08
6.95
3.29
-0.76
-4.86
-8.54
-11.25
-12.54
-12.14
-10.09
-6.66
-2.39
2.16
6.47
10.11
12.87
14.68
15.55
15.58
14.91
13.71
12.18
10.5
8.87
7.47
6.41
5.78
5.56
5.65
5.88
6.07
6.1
5.89
5.41
4.62
3.42
1.67
-0.75
-3.82
-7.4
-11.2
-14.93
-18.39
-21.6
-24.72
-27.96
-31.36
-34.71
-37.57
-39.39
-39.73
-38.37
-35.37
-30.99
-25.63
-19.68
-13.6
-7.89
-3.04
0.53
2.58
3.12
2.47
1.11
-0.38
-1.49
-1.89
-1.47
-0.37
1.15
2.77
4.24
