-198.79
-168.3
-133.59
-96.35
-58.89
-23.68
7.08
31.86
49.97
61.57
67.55
69.32
68.44
66.32
64.1
62.54
61.99
62.4
63.46
64.74
65.91
66.75
67.17
67.11
66.47
65.26
63.68
62.16
61.22
61.17
61.81
62.5
62.42
61.0
58.22
54.59
50.8
47.33
44.02
40.19
34.97
27.66
18.1
6.75
-5.46
-17.32
-27.54
-34.87
-38.25
-36.96
-30.76
-20.05
-5.79
10.61
27.59
43.7
57.85
69.29
77.77
83.37
86.51
87.82
88.08
88.03
88.23
88.92
90.01
91.18
92.07
92.49
92.48
92.28
92.13
92.13
92.17
91.9
90.89
88.72
85.13
80.04
73.67
66.43
58.87
51.52
44.73
38.55
32.62
26.41
19.32
11.02
1.65
-8.06
-16.87
-23.42
-26.52
-25.64
-21.0
-13.44
-4.16
5.74
15.37
24.22
31.93
38.26
43.03
46.16
47.84
48.45
48.51
48.46
48.6
49.08
49.94
51.21
52.91
55.02
57.36
59.64
61.46
62.42
62.22
60.74
58.02
54.22
49.59
44.38
38.9
33.49
28.42
23.9
19.95
16.37
12.77
8.76
4.17
-0.68
-4.89
-7.17
-6.22
-1.12
8.27
21.29
36.64
52.79
68.44
82.7
95.25
106.14
115.66
124.15
131.95
139.33
146.47
153.4
159.92
165.7
170.39
173.94
176.78
179.66
183.46
188.57
194.58
200.17
203.37
202.22
195.38
182.49
164.31
142.4
118.65
94.81
72.14
51.37
32.71
16.04
1.15
-12.13
-23.73
-33.34
-40.42
-44.36
-44.65
-41.12
-34.07
-24.32
-13.11
-1.81
8.38
16.64
22.65
26.55
28.7
29.52
29.42
28.71
27.65
26.5
25.49
24.75
24.23
23.7
22.9
21.67
20.08
18.37
16.77
15.21
13.23
10.04
4.8
-3.04
-13.49
-26.03
-39.86
-54.22
-68.72
-83.5
-99.04
-115.86
-134.2
-153.91
-174.54
-195.7
-217.34
-239.81
-263.51
-288.2
-312.35
-332.82
-345.32
-345.37
-329.67
-297.26
-250.12
-193.08
-132.88
-76.81
-31.17
0.12
16.32
19.84
15.45
8.85
5.03
6.87
14.62
26.17
38.15
47.22
51.2
49.55
43.22
34.0
23.84
14.31
6.36
0.45
-3.33
-5.25
-5.96
-6.53
-8.38
-12.76
-20.28
-30.36
-41.18
-50.1
-54.39
-52.1
-42.74
-27.59
-9.62
7.2
18.75
21.88
15.32
0.07
-20.78
-42.83
-61.49
-73.1
-75.58
-68.71
-53.95
-33.91
-11.75
9.39
26.97
39.46
46.52
48.88
47.86
45.01
41.61
38.46
35.84
33.54
31.15
28.17
24.26
19.33
13.58
7.47
1.52
-3.92
-8.83
-13.56
-18.6
-24.31
-30.57
-36.69
-41.51
-43.8
-42.7
-38.02
-30.27
-20.54
-10.06
0.1
9.17
16.76
22.71
27.02
29.77
31.17
31.61
31.62
31.76
32.38
33.49
34.7
35.35
34.76
32.52
28.57
23.19
16.8
9.72
2.05
-6.33
-15.61
-25.91
-37.12
-48.7
-59.77
-69.19
-75.91
-79.33
-79.47
-77.18
-73.76
-70.6
-68.64
-68.02
-68.07
-67.58
-65.23
-60.04
-51.58
-40.03
-26.06
-10.72
4.81
19.37
32.0
42.06
49.38
54.25
57.36
59.65
62.13
65.69
71.06
78.69
88.59
100.4
113.37
126.55
139.21
151.17
162.89
175.28
189.13
204.5
220.45
235.29
247.2
255.03
258.67
258.92
256.97
253.81
249.91
245.11
238.73
229.63
216.4
197.6
172.24
140.45
103.84
65.55
29.68
0.37
-19.13
-27.03
-23.07
-8.3
15.32
44.9
76.77
106.62
130.21
144.27
147.36
140.16
125.1
105.61
85.03
66.08
50.52
39.0
31.1
25.24
18.98
9.81
-3.79
-21.42
-40.55
-57.27
-67.69
-69.31
-61.81
-46.99
-28.22
-9.43
5.68
14.38
15.19
7.94
-6.53
-26.75
-51.1
-78.12
-106.87
-136.94
-168.34
-200.96
-233.96
-265.15
-290.98
-307.31
-310.86
-300.67
-278.72
-249.28
-217.28
-186.59
-159.24
-135.72
-115.98
-100.26
-88.98
-81.81
-76.73
-70.12
-58.17
-39.03
-14.54
9.79
26.55
29.3
14.97
-15.14
-56.31
-102.2
-146.52
-183.87
-209.63
-219.57
-209.83
-177.84
-123.88
-52.39
28.19
107.15
174.42
223.48
252.71
264.66
263.64
253.15
234.74
208.8
176.92
143.73
116.9
104.58
111.91
138.13
176.13
215.8
247.14
263.91
264.92
253.06
232.85
207.89
179.79
148.14
112.68
73.8
33.34
-5.81
-40.92
-70.69
-95.9
-119.22
-144.89
-175.23
-211.71
-253.59
-298.14
-341.41
-379.4
-409.33
-430.37
-445.65
-455.82
-464.07
-473.25
-485.36
-501.46
-521.52
-544.23
-566.64
-588.06
-599.09
-595.2
-573.77
-534.9
-481.07
-415.98
-343.7
-268.54
-201.87
-144.16
-103.86
-88.21
-99.96
-135.09
-182.96
-229.51
-262.32
-282.51
-282.08
-267.06
-244.65
-219.19
-190.59
-155.71
-112.14
-13.14
70.53
136.62
173.14
172.54
134.92
68.52
-12.36
-91.37
-154.43
-200.59
-219.03
-213.04
-188.93
-153.47
-112.12
-68.53
-25.04
16.54
48.47
75.88
98.03
115.83
131.62
148.4
168.64
193.23
221.23
246.5
270.3
290.42
306.38
319.94
334.49
353.38
377.71
404.98
427.51
440.29
438.08
419.33
386.07
341.92
289.71
230.65
165.62
96.76
30.47
-26.36
-69.35
-99.91
-125.43
-155.64
-197.12
-249.13
-303.57
-349.03
-376.34
-382.66
-371.67
-350.61
-326.0
-300.96
-275.2
-246.99
-215.55
-181.93
-148.44
-116.86
-87.3
-58.01
-26.45
8.99
47.81
87.39
123.96
154.2
176.65
192.21
203.62
214.08
225.94
239.82
254.81
269.23
281.75
292.25
301.87
312.78
327.46
347.9
374.79
406.7
439.68
467.76
484.38
484.51
466.57
433.22
390.46
345.52
304.36
269.98
242.18
218.64
196.57
173.97
150.29
126.11
102.59
80.93
62.09
46.77
35.71
29.86
30.27
37.61
51.33
69.22
87.77
103.23
113.11
116.88
115.67
110.97
103.39
92.25
76.6
56.62
34.6
14.66
1.16
-3.22
1.45
12.41
25.52
36.92
44.39
47.69
48.33
48.57
50.43
55.06
62.45
71.87
82.58
94.13
106.18
117.95
127.82
133.56
133.27
126.39
114.03
98.48
82.04
66.12
51.17
37.25
24.75
14.55
7.47
3.74
2.59
2.65
2.64
1.81
-0.09
-3.19
-7.8
-14.24
-22.48
-31.85
-41.1
-49.0
-54.96
-59.29
-62.89
-66.62
-70.88
-75.57
-80.4
-85.32
-90.7
-97.14
-105.17
-115.03
-126.68
-139.88
-154.24
-169.22
-184.13
-198.15
-210.64
-221.37
-230.65
-239.1
-247.26
-254.99
-261.15
-263.71
-260.3
-249.18
-229.99
-204.14
-174.55
-144.8
-118.05
-96.13
-79.19
-66.05
-55.01
-44.73
-34.69
-25.06
-16.19
-8.12
-0.39
7.73
16.73
26.52
36.37
45.14
51.82
55.87
57.47
57.28
56.12
54.67
53.22
51.69
49.71
46.82
42.73
37.45
31.4
25.29
19.92
15.9
13.48
12.53
12.77
13.93
15.91
18.73
22.38
26.59
30.88
34.58
37.03
37.82
36.85
34.37
30.89
27.07
23.52
20.69
18.66
17.18
15.87
14.37
12.6
10.74
9.16
8.19
8.0
8.54
9.51
10.3
10.11
8.08
3.65
-3.03
-10.95
-18.44
-23.86
-26.4
-26.58
-26.2
-27.54
-32.32
-40.93
-52.15
-63.62
-72.65
-77.14
-76.18
-70.2
-60.71
-49.86
-39.87
-32.24
-27.18
-23.44
-18.56
-9.76
5.03
26.33
52.92
82.08
110.28
134.0
150.54
158.7
159.19
154.39
147.75
142.68
141.38
144.34
150.67
159.22
169.46
181.65
196.03
211.86
227.0
238.57
244.16
243.0
236.13
225.64
213.47
200.7
187.5
173.64
159.14
144.32
129.45
114.31
98.11
79.86
58.99
35.72
10.94
-14.31
-39.07
-63.11
-86.89
-111.35
-137.79
-167.48
-201.07
-237.69
-274.45
-306.8
-330.0
-340.91
-339.58
-329.4
-316.05
-305.57
-302.34
-308.03
-321.43
-339.11
-356.38
-368.29
-370.68
-361.04
-339.26
-307.73
-270.74
-233.24
-199.39
-171.64
-150.46
-134.89
-122.9
-112.24
-100.88
-87.43
-71.36
-53.03
-33.55
-14.29
3.4
18.63
30.97
40.51
47.68
53.05
57.15
60.33
62.73
64.33
65.1
65.02
64.23
62.93
61.37
59.73
58.08
56.33
54.35
51.98
49.15
45.99
42.8
40.04
38.1
37.12
36.84
36.66
35.81
33.61
29.68
23.98
16.72
8.31
-0.52
-8.77
-15.17
-18.37
-17.39
-12.03
-3.06
7.93
19.02
28.56
35.5
39.53
40.91
40.13
37.75
34.26
30.18
25.99
22.16
19.05
16.86
15.59
15.1
15.23
15.83
16.8
18.0
19.23
20.16
20.45
19.74
17.79
14.53
10.14
5.01
-0.28
-5.13
-9.03
-11.78
-13.64
-15.23
-17.34
-20.59
-24.99
-29.84
-33.77
-35.16
-32.63
-25.49
-13.97
0.86
17.38
33.8
48.49
60.24
68.36
72.74
73.78
72.24
69.0
64.85
60.29
55.56
50.76
45.99
41.41
37.18
33.33
29.76
26.28
22.76
19.3
16.11
13.42
11.19
9.06
6.48
3.04
-1.27
-5.94
-10.09
-12.97
-14.29
-14.48
-14.54
-15.64
-18.49
-22.99
-28.19
-32.51
-34.38
-32.65
-26.93
-17.6
-5.57
8.02
21.99
35.25
46.81
55.85
61.79
64.38
63.73
60.27
54.63
47.52
39.67
31.82
24.72
19.02
15.21
13.47
13.66
15.25
17.51
19.47
20.2
18.84
14.96
8.67
0.76
-7.49
-14.71
-19.92
-22.86
-23.99
-24.31
-24.92
-26.77
-30.47
-36.09
-43.18
-50.72
-57.23
-61.11
-61.06
-56.4
-47.32
-34.7
-19.87
-4.23
10.98
24.76
36.34
45.09
50.37
51.57
48.06
39.37
25.55
7.53
-12.56
-31.64
-46.27
-53.59
-52.22
-42.71
-27.24
-8.9
9.19
24.64
36.02
42.7
44.66
42.24
36.09
27.2
16.81
6.17
-3.78
-12.6
-20.29
-27.13
-33.33
-38.84
-43.31
-46.13
-46.69
-44.49
-39.33
-31.46
-21.63
-10.93
-0.52
8.67
16.27
22.47
27.8
32.75
37.39
41.34
43.95
44.69
43.43
40.54
36.76
32.85
29.3
26.25
23.52
20.78
17.72
14.11
9.84
4.87
-0.76
-6.95
-13.6
-20.54
-27.72
-35.09
-42.65
-50.41
-58.29
-66.13
-73.53
-79.77
-83.78
-84.25
-79.95
-70.11
-54.84
-35.15
-12.78
10.32
32.46
52.59
70.22
85.27
97.65
107.12
113.39
116.38
116.57
115.12
113.56
113.3
115.17
119.1
124.36
130.07
135.77
141.6
148.14
155.83
164.51
173.14
180.07
183.58
182.54
176.69
166.58
153.3
138.01
121.67
105.0
88.39
71.84
54.89
36.69
16.45
-5.81
-28.7
-49.51
-65.14
-73.55
-74.93
-71.71
-67.26
-63.85
-61.06
-55.74
-43.61
-21.77
9.23
44.73
77.27
98.95
103.72
88.68
54.31
4.26
-54.9
-114.0
-162.48
-190.6
-192.69
-169.59
-128.86
-82.38
-42.17
-16.36
-7.43
-13.15
-29.46
-53.4
-84.07
-121.21
-163.04
-204.99
-240.56
-264.01
-272.9
-269.01
-257.04
-241.77
-225.45
-206.96
-182.94
-150.05
-106.75
-53.79
6.46
70.68
134.89
194.24
242.85
275.13
287.62
280.38
257.18
223.69
184.81
142.67
96.35
43.93
-14.63
-75.43
-131.02
-173.15
-196.49
-201.21
-193.07
-181.03
-173.74
-176.65
-190.97
-214.72
-244.56
-277.29
-310.26
-340.75
-365.32
-379.9
-380.73
-365.66
-335.07
-291.79
-240.27
-185.15
-130.04
-77.07
-27.19
19.1
61.22
98.65
131.45
160.62
187.86
214.56
240.56
263.71
280.48
287.67
284.04
271.2
252.94
233.79
217.46
205.87
199.25
196.74
196.97
198.51
200.08
200.66
199.64
196.81
192.19
185.79
177.36
166.4
152.48
135.73
117.2
98.68
82.16
69.03
59.66
53.37
49.04
45.69
42.91
40.58
38.53
36.04
31.99
25.47
16.36
5.64
-4.89
-13.44
-18.9
-21.11
-20.87
-19.52
-18.65
-19.82
-24.25
-32.67
-45.17
-61.32
-80.63
-103.2
-130.23
-163.78
-205.54
-255.05
-308.35
-357.9
-394.34
-409.53
-399.38
-365.33
-313.71
-253.26
-192.37
-137.03
-90.26
-52.8
-24.28
-3.97
9.2
16.86
21.24
24.96
30.26
38.48
49.68
62.66
75.26
85.06
90.18
90.29
87.37
85.47
89.33
102.45
125.3
154.76
185.25
210.29
224.36
224.34
209.98
183.71
150.08
114.87
83.9
61.67
50.12
48.39
53.47
61.84
71.1
80.68
91.33
103.85
118.11
132.66
145.11
152.81
153.27
144.54
125.67
97.26
62.11
25.43
-5.69
-23.87
-23.91
-5.04
28.38
67.81
103.25
126.5
133.55
125.07
104.97
77.94
47.23
14.11
-21.26
-57.98
-93.11
-121.98
-139.87
-144.01
-134.68
-114.78
-88.46
-59.76
-31.98
-7.59
11.48
23.85
28.83
26.32
16.41
-1.15
-26.79
-60.13
-98.7
-137.5
-170.19
-191.84
-201.45
-202.86
-202.99
-208.28
-221.45
-240.46
-260.15
-275.29
-283.03
-283.38
-277.76
-266.84
-249.7
-224.48
-190.51
-150.07
-108.62
-73.14
-49.54
-40.54
-45.1
-59.35
-78.14
-96.44
-109.65
-113.78
-105.7
-83.92
-49.43
-5.73
42.4
90.95
138.11
184.5
231.61
279.55
325.63
364.47
389.59
395.69
380.35
345.07
295.3
239.75
189.05
154.05
143.69
162.93
211.24
282.16
364.51
444.8
510.19
551.22
563.6
548.46
511.31
460.04
402.51
344.89
290.91
242.13
198.8
160.79
127.8
99.48
75.28
54.46
36.39
20.7
7.38
-3.24
-10.86
-15.41
-17.32
-17.59
-17.66
-19.15
-23.42
-31.17
-42.18
-55.39
-69.28
-82.5
-94.49
-105.9
-118.35
-133.79
-153.6
-177.74
-204.63
-231.56
-255.85
-275.91
-292.09
-306.38
-321.78
-341.2
-366.5
-398.25
-435.55
-475.71
-514.09
-544.37
-560.19
-557.97
-539.9
-514.78
-495.72
-494.64
-516.29
-555.07
-596.67
-624.12
-625.06
-596.61
-545.24
-482.48
-419.19
-361.38
-309.69
-261.56
-214.39
-166.83
-118.89
-70.79
-22.87
23.42
63.58
89.29
90.44
59.15
-5.38
-94.49
-191.58
-277.41
-336.71
-362.77
-358.31
-332.26
-295.02
-254.49
-214.72
-176.81
-140.87
-107.31
-76.91
-49.98
-25.65
-1.77
23.91
52.66
84.03
116.16
146.45
173.05
195.62
215.4
234.61
255.36
278.77
304.74
332.44
361.0
389.98
419.08
447.54
473.64
494.83
508.61
513.56
509.91
499.37
484.37
467.32
450.19
434.41
420.64
408.39
395.57
378.83
354.7
321.09
278.33
229.19
178.0
129.31
86.94
53.44
29.96
16.11
10.08
8.98
9.72
10.18
9.88
9.92
11.95
16.83
23.85
31.14
36.51
38.5
36.52
30.36
19.69
3.98
-16.8
-41.61
-67.96
-92.3
-111.22
-122.59
-126.34
-124.15
-118.69
-112.53
-107.27
-103.16
-99.24
-93.56
-83.55
-66.73
-41.51
-7.76
33.41
80.51
132.51
188.83
248.34
307.99
362.23
404.26
428.41
432.75
420.15
397.13
370.94
346.64
325.8
306.97
287.46
265.17
239.32
210.14
178.04
143.1
105.23
64.28
20.59
-24.84
-70.74
-116.08
-160.72
-205.59
-252.04
-300.59
-349.5
-394.05
-427.42
-443.05
-437.27
-411.11
-370.01
-321.57
-272.52
-226.57
-184.03
-143.08
-101.8
-59.46
-16.73
25.15
65.1
102.36
135.98
164.32
185.07
195.85
195.35
183.99
163.78
137.65
108.2
76.91
43.91
8.81
-28.08
-64.92
-98.39
-124.95
-142.69
-152.51
-157.68
-161.61
-165.15
-165.48
-157.63
-138.06
-107.84
-73.25
-43.06
-24.29
-18.95
-23.99
-34.17
-45.65
-57.86
-72.53
-91.11
-112.67
-133.68
-149.87
-158.77
-160.67
-157.72
-151.7
-142.58
-128.5
-107.22
-78.31
-44.34
-10.39
17.58
34.88
39.67
33.37
19.72
3.28
-12.19
-24.55
-33.1
-37.45
-36.59
-28.79
-12.65
10.82
36.89
57.39
63.26
48.51
13.08
-37.23
-93.99
-150.62
-205.32
-260.21
-317.44
-375.13
-426.1
-460.48
-470.74
-455.87
-422.24
-380.49
-340.62
-308.32
-284.04
-264.87
-247.77
-231.54
-217.07
-205.95
-199.03
-195.6
-193.74
-191.39
-187.16
-180.78
-172.66
-163.14
-151.82
-137.41
-118.09
-92.39
-59.82
-21.15
21.78
66.87
112.42
157.56
202.23
246.97
292.4
338.65
384.86
428.83
467.3
496.96
515.77
524.03
524.39
520.57
515.34
508.85
498.27
478.98
446.78
399.81
339.59
270.63
199.23
132.29
75.98
34.78
10.6
2.39
6.39
17.63
31.55
45.37
58.12
69.79
80.22
88.74
94.76
98.58
101.75
106.16
112.67
120.09
125.38
125.39
118.86
107.37
94.52
83.75
76.16
69.57
59.55
41.55
13.27
-24.3
-67.3
-110.68
-150.0
-182.59
-207.54
-224.71
-234.07
-235.39
-228.86
-215.78
-198.84
-181.6
-167.23
-157.43
-151.91
-148.79
-145.44
-139.63
-130.04
-116.45
-99.63
-81.05
-62.62
-46.42
-34.14
-26.69
-23.77
-24.03
-25.41
-25.87
-23.98
-19.36
-12.52
-4.69
2.79
8.8
12.73
14.58
15.03
15.32
17.02
21.48
29.15
39.06
48.81
55.35
56.19
50.59
40.03
27.77
17.5
12.01
12.36
17.87
26.89
37.53
48.27
57.92
65.49
70.13
71.24
68.74
63.25
55.96
48.31
41.51
36.22
32.47
29.83
27.7
25.53
23.02
20.16
17.19
14.47
12.28
10.57
9.01
7.05
4.22
0.43
-3.98
-8.26
-11.58
-13.27
-13.09
-11.12
-7.81
-3.68
0.75
5.08
9.07
12.59
15.57
17.98
19.8
21.01
21.63
21.69
21.35
20.81
20.29
20.03
20.06
20.3
20.52
20.48
20.09
19.44
18.75
18.28
18.1
18.03
17.7
16.75
15.03
12.72
10.32
8.5
7.85
8.7
11.0
14.42
18.65
23.49
29.02
35.44
42.85
51.05
59.55
67.67
74.71
80.13
83.61
85.01
84.4
82.11
78.88
75.88
74.41
75.29
78.22
81.45
82.27
78.0
67.16
50.21
29.44
8.1
-10.84
-25.69
-36.37
-44.0
-50.02
-55.41
-60.42
-64.89
-68.73
-72.14
-75.32
-77.85
-78.34
-74.67
-65.0
-48.94
-28.22
-6.21
13.49
28.67
39.34
47.34
54.97
63.58
73.0
82.04
89.51
95.05
99.25
103.06
107.19
111.74
116.44
121.06
125.7
130.59
135.67
140.13
142.23
139.68
130.42
113.26
88.39
57.22
21.91
-15.45
-53.38
-91.02
-127.71
-162.29
-192.68
-216.02
-229.37
-230.69
-219.7
-198.16
-169.39
-137.13
-104.19
-71.64
-38.77
-4.08
33.44
73.5
114.49
154.3
191.23
224.33
252.98
276.23
292.41
299.52
296.31
283.18
262.27
236.71
209.35
181.96
155.08
128.54
102.06
75.59
49.18
22.73
-4.15
-32.09
-61.9
-94.44
-130.45
-170.12
-212.52
-255.38
-295.28
-328.61
-352.76
-367.07
-372.81
-372.42
-368.13
-361.06
-351.09
-337.57
-320.28
-299.94
-278.05
-256.2
-235.29
-215.31
-195.64
-175.74
-155.63
-135.99
-117.94
-102.43
-89.74
-79.35
-70.13
-60.92
-51.08
-40.91
-31.46
-24.02
-19.32
-16.95
-15.32
-12.21
-5.5
6.08
22.67
43.51
67.23
92.22
116.67
138.81
157.04
170.33
178.43
181.93
181.96
179.84
176.89
174.34
173.24
173.93
175.61
175.75
170.42
155.27
126.86
83.55
25.53
-45.55
-126.71
-213.14
-297.71
-371.3
-424.57
-451.01
-449.44
-424.71
-385.77
-342.11
-300.38
-262.79
-227.99
-193.06
-155.55
-114.4
-69.9
-23.33
23.26
66.98
104.2
131.33
145.9
147.34
137.32
119.29
97.37
75.26
55.52
39.28
26.41
15.87
6.19
-4.07
-16.09
-30.52
-47.37
-65.99
-84.93
-102.12
-115.23
-122.35
-122.62
-116.52
-105.66
-92.12
-77.6
-62.93
-48.07
-32.62
-16.41
0.11
15.9
29.64
40.27
47.32
51.08
52.59
53.32
54.77
57.98
63.15
69.49
75.48
79.39
80.06
77.45
72.76
67.95
64.79
63.93
64.42
64.07
60.5
52.39
40.51
27.82
18.84
18.53
31.02
58.64
100.81
153.08
206.96
251.21
275.02
272.13
244.0
200.17
155.01
122.36
110.57
120.3
145.98
179.25
212.58
241.07
262.53
276.57
283.96
286.29
285.82
284.91
285.32
287.98
293.07
300.37
309.26
318.25
324.59
324.71
315.64
296.81
270.96
243.21
218.78
200.49
187.62
176.73
163.83
146.49
124.74
100.49
76.11
53.0
30.96
8.44
-16.57
-45.8
-80.06
-119.2
-162.11
-206.68
-250.02
-288.71
-319.53
-340.35
-350.86
-352.59
-348.26
-340.68
-331.79
-322.43
-312.64
-302.25
-291.34
-280.2
-269.02
-257.58
-245.27
-231.39
-215.55
-197.94
-179.29
-160.62
-142.95
-126.99
-113.03
-100.91
-90.24
-80.62
-71.82
-63.92
-57.15
-51.71
-47.59
-44.54
-42.17
-40.17
-38.43
-37.05
-36.2
-36.01
-36.38
-37.06
-37.65
-37.77
-37.12
-35.46
-32.65
-28.82
-24.37
-20.04
-16.75
-15.21
-15.5
-16.85
-17.74
-16.42
-11.51
-2.55
9.99
24.91
40.75
56.2
70.3
82.31
91.69
98.06
101.25
101.53
99.53
96.13
92.28
88.74
85.96
84.07
82.87
81.92
80.71
78.78
75.84
71.78
66.65
60.51
53.28
44.8
34.91
23.64
11.4
-0.98
-12.39
-21.58
-27.52
-29.61
-27.86
-22.88
-15.62
-7.15
1.68
10.27
18.19
25.01
30.18
33.14
33.57
31.65
28.07
23.83
19.88
16.69
14.23
12.02
9.51
6.34
2.52
-1.61
-5.69
-9.46
-13.0
-16.66
-20.95
-26.35
-33.18
-41.41
-50.54
-59.48
-66.74
-70.68
-70.01
-64.23
-53.75
-39.87
-24.36
-8.95
4.98
16.5
25.18
30.94
33.91
34.49
33.18
30.53
26.98
22.94
18.77
14.9
11.8
9.79
8.93
8.96
9.43
10.02
10.65
11.49
12.73
14.19
15.18
14.6
11.22
4.19
-6.46
-19.58
-32.89
-43.47
-48.52
-46.31
-36.71
-21.42
-3.25
14.75
30.24
42.08
50.19
55.08
57.35
57.42
55.71
52.76
49.39
46.46
44.65
44.17
44.76
45.8
46.63
46.71
45.74
43.69
40.68
36.95
32.76
28.27
23.48
18.13
11.71
3.55
-6.9
-19.81
-34.67
-50.13
-64.27
-74.99
-80.68
-80.72
-75.61
-66.7
-55.71
-44.2
-33.33
-23.88
-16.41
-11.4
-9.14
-9.6
-12.19
-15.86
-19.29
-21.22
-20.91
-18.24
-13.77
-8.52
-3.58
0.28
2.8
4.35
5.61
7.18
9.25
11.33
12.48
11.57
7.89
1.44
-6.89
-15.6
-23.0
-27.56
-28.36
-25.1
-18.1
-8.15
3.64
16.0
27.77
38.01
46.16
51.92
55.12
55.6
53.06
47.28
38.37
27.0
14.43
2.21
-8.37
-16.73
-23.11
-28.36
-33.32
-38.41
-43.38
-47.53
-50.14
-50.95
-50.26
-48.81
-47.42
-46.66
-46.75
-47.58
-48.9
-50.22
-50.8
-49.56
-45.25
-36.96
-24.59
-9.11
7.57
23.28
36.35
46.16
53.21
58.57
63.19
67.33
70.48
71.71
70.28
66.06
59.64
52.04
44.26
37.11
31.17
26.92
24.93
25.84
30.04
37.22
46.16
54.76
60.55
61.59
57.19
48.5
38.13
29.26
24.37
24.0
26.39
27.98
24.89
14.57
-2.75
-23.8
-43.04
-54.45
-53.52
-38.98
-13.49
16.81
43.96
60.57
62.05
48.18
23.04
-6.27
-31.96
-47.87
-51.09
-42.43
-25.62
-5.91
11.52
22.78
25.72
19.98
6.57
-12.51
-34.91
-58.5
-81.81
-104.15
-125.33
-145.15
-163.23
-179.19
-193.24
-206.53
-220.91
-237.91
-257.54
-277.69
-294.75
-305.21
-307.51
-302.71
-293.8
-284.02
-275.2
-267.17
-258.55
-247.98
-235.17
-220.89
-206.22
-191.45
-175.52
-156.28
-131.4
-99.56
-61.27
-19.03
23.17
60.93
90.74
110.92
121.98
126.21
126.65
126.11
126.45
128.4
131.92
136.65
142.18
148.15
154.08
159.35
163.3
165.48
165.66
163.99
160.75
156.25
150.7
144.2
136.67
127.84
117.2
104.1
88.04
69.12
48.24
26.9
6.6
-12.0
-29.25
-46.24
-63.84
-81.96
-99.46
-114.71
-126.39
-133.89
-137.07
-135.67
-128.96
-116.08
-96.88
-72.79
-46.82
-22.74
-3.61
9.44
17.46
22.89
28.37
35.47
44.24
53.38
60.97
65.42
66.2
64.09
60.84
58.46
58.37
60.9
65.34
70.35
74.75
77.99
80.38
82.79
86.14
90.85
96.5
101.89
105.42
105.72
102.19
95.27
86.22
76.53
67.34
59.03
51.41
44.09
36.96
30.38
24.88
20.64
17.16
13.28
7.65
-0.61
-11.42
-23.63
-35.4
-44.72
-49.94
-50.16
-45.24
-35.69
-22.46
-6.68
10.48
27.82
44.1
57.99
68.19
73.78
74.42
70.53
63.31
54.47
45.84
39.04
35.09
34.11
35.36
37.47
38.94
38.74
36.74
33.57
30.28
27.64
25.8
24.24
22.27
19.53
16.27
13.17
10.85
9.46
8.53
7.17
4.65
0.72
-4.14
-9.04
-13.03
-15.6
-16.95
-18.0
-20.02
-24.18
-31.06
-40.26
-50.38
-59.31
-64.9
-65.56
-60.8
-51.23
-38.36
-23.87
-9.22
4.69
17.43
28.8
38.62
46.67
52.77
56.95
59.47
60.75
61.33
61.62
61.91
62.37
63.01
63.78
64.61
65.46
66.36
67.37
68.53
69.69
70.52
70.51
69.2
66.3
61.84
56.17
49.76
43.08
36.37
29.69
22.96
16.07
8.97
1.7
-5.68
-13.15
-20.77
-28.6
-36.54
-44.14
-50.43
-54.08
-53.72
-48.53
-38.6
-25.03
-9.67
5.44
18.74
29.41
37.36
42.98
46.72
48.89
49.56
48.73
46.48
43.13
39.22
35.45
32.49
30.88
30.83
32.28
34.85
37.98
41.08
43.62
45.13
45.26
43.73
40.42
35.47
29.23
22.29
15.19
8.24
1.4
-5.65
-13.31
-21.82
-31.07
-40.63
-49.89
-58.29
-65.49
-71.48
-76.43
-80.67
-84.47
-87.87
-90.64
-92.2
-91.77
-88.55
-82.02
-72.21
-59.7
-45.56
-31.02
-17.14
-4.66
6.03
14.74
21.39
25.99
28.68
29.78
29.78
29.2
28.37
27.43
26.31
24.95
23.37
21.81
20.6
20.07
20.39
21.49
23.04
24.52
25.31
24.88
23.01
19.8
15.68
11.21
6.85
2.81
-1.0
-4.78
-8.74
-12.87
-16.9
-20.39
-22.93
-24.36
-24.96
-25.48
-26.94
-30.22
-35.69
-42.94
-50.79
-57.6
-61.81
-62.35
-58.96
-52.09
-42.71
-31.97
-20.98
-10.61
-1.48
6.03
11.75
15.69
17.97
18.85
18.66
17.79
16.63
15.56
14.8
14.44
14.44
14.66
14.99
15.41
16.0
16.78
17.63
18.24
18.19
17.09
14.78
11.4
7.36
3.15
-0.83
-4.42
-7.65
-10.72
