-64.95
-57.97
-49.58
-40.95
-33.07
-26.54
-21.46
-17.63
-14.93
-13.53
-13.85
-16.11
-19.87
-23.82
-26.11
-25.13
-20.31
-12.41
-3.17
5.51
12.34
17.1
20.36
22.9
25.21
27.3
28.85
29.6
29.63
29.31
29.05
29.08
29.25
29.21
28.68
27.7
26.66
26.2
26.9
29.06
32.53
36.74
40.85
43.97
45.33
44.38
40.9
35.07
27.45
18.93
10.51
3.03
-3.26
-8.75
-14.3
-20.85
-28.85
-38.03
-47.54
-56.4
-63.93
-70.12
-75.43
-80.42
-85.33
-89.9
-93.46
-95.24
-94.73
-91.87
-86.98
-80.68
-73.59
-66.23
-58.88
-51.73
-44.88
-38.54
-33.01
-28.72
-26.09
-25.4
-26.62
-29.24
-32.42
-35.04
-36.1
-34.87
-31.16
-25.28
-17.97
-10.2
-3.02
2.54
5.67
5.87
3.2
-1.59
-7.2
-11.95
-14.34
-13.44
-9.2
-2.44
5.37
12.62
18.08
21.23
22.41
22.54
22.7
23.69
25.63
28.13
30.43
31.95
32.5
32.38
32.04
31.9
32.05
32.36
32.62
32.77
32.94
33.28
33.93
34.82
35.68
36.2
36.1
35.23
33.57
31.22
28.36
25.18
21.9
18.61
15.37
12.17
8.97
5.77
2.61
-0.54
-3.86
-7.59
-11.96
-16.95
-22.16
-26.83
-30.0
-30.82
-28.84
-24.15
-17.32
-9.28
-1.01
6.68
13.33
18.86
23.43
27.26
30.53
33.26
35.38
36.76
37.35
37.16
36.3
34.92
33.23
31.45
29.81
28.51
27.67
27.22
26.96
26.51
25.46
23.48
20.47
16.56
12.12
7.6
3.41
-0.15
-2.93
-4.84
-5.87
-6.15
-5.97
-5.79
-6.14
-7.39
-9.6
-12.52
-15.76
-18.92
-21.73
-23.97
-25.44
-25.85
-24.99
-22.86
-19.74
-16.11
-12.36
-8.71
-5.02
-1.04
3.45
8.42
13.58
18.52
22.87
26.38
29.02
30.98
32.59
34.27
36.33
38.8
41.46
43.85
45.55
46.35
46.28
45.49
44.09
42.04
39.25
35.75
31.88
28.2
25.32
23.61
22.98
22.93
22.67
21.39
18.55
14.0
8.04
1.32
-5.41
-11.48
-16.51
-20.41
-23.33
-25.53
-27.26
-28.8
-30.36
-32.11
-33.99
-35.79
-37.12
-37.58
-36.97
-35.38
-33.23
-30.9
-28.62
-26.25
-23.42
-19.75
-15.14
-9.99
-5.08
-1.27
0.87
1.32
0.63
-0.3
-0.59
0.26
2.19
4.71
7.14
8.96
9.99
10.44
10.71
11.17
11.97
12.95
13.76
14.07
13.73
12.86
11.74
10.63
9.68
8.85
8.03
7.12
6.04
4.66
2.73
-0.03
-3.86
-8.72
-14.22
-19.79
-24.79
-28.76
-31.4
-32.5
-31.92
-29.57
-25.66
-20.78
-15.83
-11.73
-9.01
-7.63
-7.03
-6.49
-5.51
-4.0
-2.2
-0.49
0.82
1.67
2.14
2.48
2.94
3.71
4.85
6.26
7.67
8.79
9.45
9.7
9.78
9.94
10.3
10.75
11.02
10.9
10.39
9.68
9.13
9.08
9.69
10.98
12.78
14.87
16.9
18.54
19.46
19.54
18.95
18.31
18.47
20.31
24.35
30.53
38.19
46.42
54.38
61.67
68.38
74.86
81.35
87.66
93.1
96.76
97.87
96.18
92.16
86.77
81.19
76.33
72.64
70.0
67.88
65.55
62.27
57.46
50.95
43.12
35.03
28.22
24.3
24.38
28.66
36.41
46.35
57.32
68.65
80.3
92.48
105.18
117.92
129.96
140.81
150.61
160.18
170.63
182.67
196.21
210.28
223.31
233.57
239.57
240.3
235.27
224.36
207.79
185.94
159.35
128.66
94.66
58.28
20.49
-17.89
-56.43
-95.21
-134.8
-175.93
-219.49
-266.44
-317.54
-372.71
-429.97
-484.82
-530.8
-561.4
-572.56
-564.37
-540.89
-508.24
-472.03
-435.61
-400.31
-366.98
-337.49
-314.94
-302.15
-299.68
-304.62
-311.28
-313.44
-306.8
-290.4
-266.34
-238.34
-209.99
-183.57
-159.8
-138.41
-118.7
-100.04
-81.76
-62.97
-42.56
-19.4
7.0
35.94
65.34
92.17
113.29
126.47
131.02
127.89
119.27
107.98
96.78
87.95
83.15
83.28
88.51
98.25
111.23
125.63
139.44
150.78
158.21
160.93
158.91
152.77
143.65
132.92
121.87
111.52
102.46
94.78
88.18
82.05
75.58
67.99
58.66
47.44
34.84
22.05
10.62
1.98
-3.26
-5.69
-6.85
-8.57
-12.08
-17.35
-23.14
-27.6
-29.21
-27.54
-23.52
-19.27
-17.35
-19.98
-28.29
-41.86
-58.71
-75.79
-89.72
-97.63
-97.7
-89.41
-73.46
-51.65
-26.68
-1.72
20.18
36.91
47.91
54.18
57.71
60.46
63.57
67.13
70.63
73.55
75.75
77.43
78.72
79.41
78.89
76.55
72.08
65.76
58.33
50.71
43.65
37.43
31.9
26.66
21.48
16.61
12.84
11.25
12.76
17.76
25.88
36.21
47.61
59.07
69.9
79.78
88.63
96.43
102.98
107.68
109.5
107.22
99.95
87.77
71.98
54.95
39.32
27.09
18.99
14.45
12.11
10.62
9.18
7.66
6.28
5.26
4.61
4.1
3.58
2.99
2.5
2.2
1.9
0.88
-1.99
-8.02
-18.28
-33.21
-52.37
-74.57
-98.1
-121.1
-141.79
-158.64
-170.44
-176.3
-175.85
-169.45
-158.43
-144.97
-131.65
-120.52
-112.15
-105.23
-97.03
-84.48
-65.7
-40.84
-12.03
17.63
45.41
69.93
91.06
109.3
124.88
137.48
146.59
152.26
155.45
157.9
161.32
166.68
173.88
182.0
190.06
197.61
205.0
213.06
222.41
232.78
242.58
249.0
248.66
238.68
217.67
186.18
146.22
100.27
50.18
-3.11
-58.92
-115.45
-168.67
-212.8
-242.27
-254.22
-250.19
-235.39
-216.08
-196.31
-176.27
-153.52
-125.79
-93.35
-59.17
-26.71
2.77
31.04
61.36
95.39
131.01
162.72
184.44
192.93
189.38
178.56
166.08
155.81
148.84
144.14
140.21
136.26
132.32
128.76
125.72
122.86
119.42
114.58
107.81
99.16
89.41
79.83
71.74
65.98
62.49
60.32
58.11
54.78
50.12
44.99
40.94
39.51
41.5
46.65
53.75
61.32
68.17
73.86
78.69
83.35
88.63
95.26
103.94
115.38
130.04
147.56
166.35
183.63
196.09
201.12
197.89
187.66
173.26
157.89
143.97
132.53
123.37
115.74
108.94
102.72
97.08
92.0
87.22
82.22
76.37
69.24
60.61
50.68
39.86
28.7
17.71
7.21
-2.75
-12.43
-22.32
-32.92
-44.6
-57.43
-71.11
-85.21
-99.25
-112.93
-126.24
-139.48
-153.22
-168.39
-186.34
-208.41
-235.27
-265.9
-296.85
-322.59
-336.98
-335.47
-317.09
-285.01
-245.46
-205.33
-169.96
-141.97
-121.81
-109.14
-103.99
-107.03
-118.77
-138.67
-164.91
-195.14
-227.48
-260.98
-295.01
-328.07
-356.83
-376.51
-382.56
-372.87
-348.93
-315.31
-277.72
-240.77
-206.67
-175.51
-146.5
-119.3
-94.4
-72.71
-54.68
-39.87
-27.36
-16.38
-6.93
0.34
4.85
6.88
7.82
9.76
14.5
22.65
33.33
44.5
53.83
59.62
61.4
59.96
57.02
54.61
54.48
57.71
64.45
73.95
84.81
95.25
103.55
108.23
108.06
101.94
88.82
67.88
39.08
3.83
-34.79
-72.19
-103.18
-123.32
-129.98
-123.0
-104.62
-78.74
-49.92
-22.38
0.76
17.8
28.41
33.29
33.69
31.06
26.87
22.52
19.38
18.61
20.94
26.35
33.93
42.03
48.71
52.23
51.51
46.46
37.94
27.64
17.53
9.27
3.63
0.21
-2.33
-5.55
-10.5
-17.12
-24.3
-30.39
-34.04
-34.8
-33.44
-31.97
-33.35
-41.05
-58.25
-86.67
-125.35
-170.0
-213.53
-247.77
-266.07
-265.45
-247.38
-216.73
-179.48
-140.45
-102.12
-65.16
-29.89
2.46
29.59
49.17
60.35
64.63
65.4
66.54
70.71
78.4
88.18
97.79
105.47
110.61
113.67
115.44
116.36
116.2
114.06
108.69
98.97
84.25
64.8
42.04
18.56
-2.34
-17.44
-24.46
-22.72
-13.19
2.01
20.5
40.39
60.64
81.01
101.92
124.23
149.16
177.82
210.36
245.07
277.95
303.33
315.53
310.9
289.27
254.09
211.1
166.4
124.83
89.22
60.71
39.41
24.86
15.94
10.57
5.76
-1.72
-14.27
-32.51
-54.98
-78.52
-99.38
-114.56
-122.73
-124.56
-122.28
-118.74
-116.36
-116.44
-118.99
-123.07
-127.38
-130.79
-132.65
-132.9
-131.95
-130.41
-128.72
-126.77
-123.79
-118.49
-109.69
-97.07
-81.72
-66.1
-53.26
-45.57
-43.67
-46.1
-49.91
-51.93
-50.11
-44.18
-35.51
-26.2
-18.14
-12.35
-9.0
-7.83
-8.63
-11.37
-16.09
-22.59
-30.34
-38.59
-46.59
-53.74
-59.59
-63.71
-65.64
-65.0
-61.65
-55.98
-48.86
-41.4
-34.69
-29.37
-25.51
-22.62
-19.87
-16.32
-11.31
-4.67
3.19
11.47
19.4
26.72
33.96
42.21
52.95
67.41
86.05
108.07
131.05
151.13
163.84
165.41
154.11
130.99
99.67
65.04
31.75
2.84
-20.67
-39.27
-54.14
-66.34
-76.46
-84.96
-92.34
-99.27
-106.24
-113.05
-118.53
-120.75
-117.68
-108.01
-91.83
-70.68
-47.08
-23.72
-2.68
14.97
29.13
40.26
49.01
55.9
61.4
65.92
69.84
73.44
76.66
79.1
80.15
79.28
76.38
71.78
66.1
59.85
53.21
45.95
37.76
28.65
19.17
10.33
3.16
-1.84
-4.87
-6.79
-8.6
-10.95
-13.83
-16.67
-18.58
-18.82
-16.98
-13.07
-7.27
0.29
9.79
21.63
36.22
53.63
73.32
94.13
114.6
133.43
149.96
164.4
177.69
191.3
206.79
225.37
247.75
273.78
302.17
330.41
355.02
372.27
379.18
374.54
359.13
335.41
306.47
275.07
243.08
211.56
181.1
152.36
125.94
102.18
80.67
60.08
38.31
13.15
-16.97
-52.15
-90.39
-127.67
-158.68
-178.37
-183.75
-175.21
-156.77
-134.8
-115.95
-104.87
-103.06
-109.02
-119.63
-131.79
-143.57
-154.19
-163.22
-169.59
-171.41
-166.79
-155.35
-139.26
-123.01
-111.68
-108.35
-112.36
-119.29
-123.19
-119.49
-107.3
-89.78
-72.52
-61.17
-59.79
-70.35
-93.13
-126.83
-167.98
-210.14
-244.11
-260.01
-251.05
-217.17
-166.41
-112.84
-71.42
-52.34
-57.49
-80.74
-111.59
-140.11
-160.63
-172.56
-178.53
-181.49
-182.5
-180.45
-173.32
-159.93
-141.01
-118.92
-96.43
-75.52
-56.72
-39.39
-22.57
-5.81
10.42
24.91
36.36
44.05
48.36
50.77
53.38
58.18
66.24
77.3
89.86
101.81
111.29
117.27
119.76
119.42
116.89
112.3
105.15
94.71
80.71
63.73
45.2
26.92
10.33
-3.85
-15.68
-25.66
-34.23
-41.58
-47.69
-52.58
-56.61
-60.31
-64.22
-68.65
-73.6
-78.87
-84.31
-89.8
-95.19
-99.95
-103.15
-103.57
-100.11
-92.28
-80.45
-65.79
-49.82
-34.08
-19.66
-7.14
3.32
11.94
19.08
25.17
30.59
35.56
40.14
44.18
47.52
50.05
51.81
52.99
53.78
54.36
54.85
55.34
55.92
56.6
57.28
57.68
57.43
56.11
53.52
49.69
44.95
39.78
34.64
29.88
25.66
21.95
18.61
15.46
12.34
9.12
5.72
2.04
-2.04
-6.58
-11.49
-16.42
-20.67
-23.33
-23.57
-20.92
-15.53
-8.11
0.4
9.14
17.51
25.16
31.76
36.77
39.56
39.64
36.99
32.3
26.74
21.67
18.23
17.01
18.07
20.95
24.99
29.43
33.59
36.91
39.07
39.94
39.57
38.14
35.92
33.18
30.24
27.41
24.89
22.7
20.67
18.47
15.78
12.41
8.36
3.82
-0.89
-5.45
-9.52
-12.75
-14.72
-14.86
-12.6
-7.45
0.65
11.2
23.02
34.45
43.75
49.52
51.12
48.71
43.18
35.86
28.24
21.66
17.19
15.45
16.57
20.13
25.3
31.02
36.34
40.63
43.73
45.91
47.6
49.16
50.71
52.11
53.08
53.33
52.64
50.94
48.2
44.43
39.68
34.07
27.84
21.32
14.79
8.44
2.32
-3.56
-8.97
-13.33
-15.73
-15.26
-11.38
-4.25
5.25
15.8
26.1
35.31
43.05
49.37
54.36
57.97
59.99
60.2
58.59
55.48
51.48
47.3
43.49
40.38
37.97
36.03
34.29
32.56
30.76
28.95
27.19
25.4
23.39
20.81
17.39
13.01
7.82
2.23
-3.29
-8.24
-12.35
-15.54
-17.95
-19.89
-21.78
-24.1
-27.36
-31.9
-37.78
-44.56
-51.26
-56.51
-58.97
-57.69
-52.5
-44.01
-33.48
-22.39
-12.04
-3.31
3.47
8.42
11.86
14.21
15.75
16.62
16.88
16.61
16.0
15.36
15.0
15.11
15.62
16.31
16.9
17.26
17.49
17.85
18.56
19.6
20.65
21.19
20.68
18.87
15.81
11.85
7.5
3.23
-0.67
-4.08
-7.09
-9.93
-12.92
-16.33
-20.4
-25.14
-30.28
-35.22
-39.09
-40.9
-39.86
-35.6
-28.35
-18.9
-8.38
2.07
11.54
19.53
25.9
30.67
33.94
35.8
36.35
35.8
34.38
32.37
29.97
27.34
24.57
21.82
19.28
17.16
15.65
14.8
14.5
14.53
14.54
14.17
13.09
11.04
8.01
4.21
0.06
-3.93
-7.4
-10.24
-12.64
-15.04
-17.9
-21.54
-25.98
-30.88
-35.55
-39.05
-40.44
-39.01
-34.55
-27.49
-18.78
-9.59
-1.01
6.26
11.91
15.98
18.65
20.1
20.55
20.26
19.56
18.82
18.31
18.18
18.4
18.8
19.17
19.35
19.31
19.09
18.81
18.58
18.39
18.02
17.17
15.48
12.73
8.96
4.48
-0.2
-4.55
-8.21
-11.15
-13.62
-16.13
-19.24
-23.36
-28.53
-34.3
-39.74
-43.62
-44.8
-42.53
-36.72
-27.99
-17.46
-6.5
3.67
12.2
18.78
23.49
26.67
28.71
29.87
30.26
29.94
29.0
27.65
26.23
25.07
24.39
24.21
24.37
24.67
24.95
25.17
25.43
25.85
26.52
27.46
28.58
29.65
30.41
30.58
29.96
28.52
26.37
23.69
20.64
17.28
13.47
8.98
3.52
-3.08
-10.82
-19.43
-28.4
-37.05
-44.59
-50.35
-53.88
-55.12
-54.34
-52.13
-49.1
-45.73
-42.26
-38.62
-34.66
-30.22
-25.34
-20.26
-15.29
-10.74
-6.75
-3.32
-0.36
2.29
4.68
6.85
8.78
10.42
11.74
12.72
13.32
13.54
13.36
12.84
12.09
11.21
10.29
9.34
8.26
6.91
5.17
2.98
0.42
-2.31
-5.01
-7.52
-9.85
-12.15
-14.68
-17.73
-21.43
-25.7
-30.15
-34.08
-36.7
-37.28
-35.43
-31.21
-25.1
-17.93
-10.56
-3.78
1.9
6.24
9.26
11.17
12.26
12.83
13.13
13.3
13.37
13.33
13.16
12.91
12.7
12.65
12.84
13.27
13.9
14.59
15.21
15.56
15.52
15.04
14.14
12.95
11.6
10.16
8.6
6.81
4.69
2.18
-0.62
-3.52
-6.28
-8.74
-10.84
-12.66
-14.42
-16.37
-18.8
-21.83
-25.45
-29.37
-33.1
-36.0
-37.37
-36.75
-33.96
-29.23
-23.15
-16.54
-10.16
-4.57
-0.03
3.51
6.21
8.25
9.67
10.46
10.61
10.17
9.41
8.66
8.25
8.37
9.0
9.92
10.84
11.51
11.81
11.76
11.46
10.97
10.25
9.2
7.64
5.5
2.9
0.07
-2.68
-5.07
-6.97
-8.41
-9.56
-10.67
-11.99
-13.76
-16.12
-19.08
-22.44
-25.78
-28.45
-29.79
-29.24
-26.59
-22.04
-16.18
-9.82
-3.77
1.37
5.31
8.08
9.88
10.95
11.45
11.48
11.1
10.4
9.54
8.78
8.4
8.56
9.27
10.34
11.49
12.42
12.91
12.89
12.4
11.56
10.47
9.23
7.85
6.34
4.69
2.89
0.98
-1.04
-3.1
-5.16
-7.14
-9.0
-10.75
-12.38
-14.01
-15.75
-17.8
-20.32
-23.32
-26.57
-29.5
-31.36
-31.44
-29.3
-25.03
-19.18
-12.61
-6.2
-0.63
3.79
7.06
9.38
10.99
12.1
12.84
13.32
13.64
13.89
14.14
14.43
14.73
15.0
15.19
15.23
15.12
14.82
14.32
13.62
12.7
11.55
10.17
8.59
6.83
4.87
2.73
0.48
-1.78
-3.92
-5.82
-7.42
-8.77
-10.04
-11.49
-13.31
-15.71
-18.74
-22.34
-26.28
-30.22
-33.66
-36.0
-36.7
-35.36
-31.91
-26.59
-20.01
-12.95
-6.19
-0.35
4.25
7.53
9.65
10.87
11.45
11.63
11.6
11.47
11.35
11.28
11.27
11.33
11.45
11.62
11.86
12.16
12.49
12.78
12.88
12.66
12.02
10.93
9.44
7.68
5.77
3.78
1.7
-0.51
-2.92
-5.5
-8.14
-10.67
-12.92
-14.84
-16.48
-18.07
-19.85
-22.07
-24.79
-27.87
-30.89
-33.23
-34.25
-33.39
-30.43
-25.51
-19.17
-12.16
-5.28
0.88
5.93
9.8
12.59
14.49
15.7
16.37
16.61
16.55
16.31
16.09
16.07
16.38
17.03
17.94
18.93
19.82
20.49
20.91
21.1
21.11
20.94
20.54
19.81
18.64
17.01
14.98
12.72
10.41
8.23
6.26
4.46
2.73
0.94
-1.0
-3.17
-5.65
-8.5
-11.72
-15.15
-18.32
-20.63
-21.43
-20.32
-17.3
-12.77
-7.38
-1.83
3.32
7.73
11.25
13.85
15.59
16.55
16.86
16.7
16.23
15.6
15.0
14.6
14.49
14.73
15.22
15.79
16.25
16.45
16.36
16.01
15.4
14.5
13.24
11.53
9.38
6.97
4.49
2.16
0.02
-1.97
-3.98
-6.22
-8.83
-11.93
-15.5
-19.41
-23.3
-26.65
-28.84
-29.32
-27.78
-24.26
-19.18
-13.18
-7.04
-1.39
3.31
6.85
9.18
10.35
10.5
9.78
8.42
6.69
4.94
3.48
2.54
2.16
2.24
2.54
2.86
3.07
3.14
3.14
3.12
3.1
2.96
2.56
1.74
0.42
-1.36
-3.44
-5.6
-7.64
-9.4
-10.84
-12.04
-13.18
-14.53
-16.34
-18.75
-21.75
-25.05
-28.11
-30.26
-30.82
-29.35
-25.77
-20.43
-13.98
-7.2
-0.79
4.8
9.34
12.89
15.61
17.69
19.25
20.41
21.24
21.86
22.4
23.02
23.9
25.13
26.77
28.79
31.05
33.36
35.5
37.26
38.56
39.41
39.94
40.36
40.83
41.48
42.34
43.39
44.59
45.9
47.33
48.92
50.77
53.05
55.91
59.49
63.78
68.58
73.57
78.37
82.86
87.25
92.2
98.65
107.44
118.88
132.51
147.0
160.44
170.86
176.71
177.28
172.73
164.07
152.77
140.47
128.58
118.01
108.96
100.92
92.87
83.63
72.33
58.8
43.64
27.95
12.86
-0.93
-13.38
-24.88
-35.9
-46.55
-56.45
-64.98
-71.61
-76.3
-79.54
-82.21
-85.26
-89.43
-95.16
-102.52
-111.24
-120.75
-130.23
-138.73
-145.44
-149.98
-152.51
-153.76
-154.76
-156.36
-158.95
-162.17
-165.0
-166.13
-164.34
-158.91
-149.86
-137.9
-124.21
-110.04
-96.5
-84.29
-73.75
-64.9
-57.54
-51.4
-46.18
-41.61
-37.47
-33.59
-29.91
-26.42
-23.23
-20.48
-18.33
-16.9
-16.21
-16.19
-16.64
-17.29
-17.85
-18.04
-17.7
-16.79
-15.32
-13.33
-10.81
-7.75
-4.12
-0.05
4.24
8.47
12.41
15.97
19.17
22.16
25.07
28.04
31.2
34.66
38.52
42.72
47.07
51.19
54.64
57.1
58.56
59.42
60.33
62.0
64.93
69.2
74.54
80.45
86.5
92.44
98.26
104.12
110.2
116.59
123.26
130.0
136.43
142.13
146.66
149.74
151.16
150.63
147.54
140.82
129.02
110.69
84.87
51.5
11.81
-31.76
-75.75
-116.22
-149.38
-172.44
-184.21
-185.36
-178.25
-166.19
-152.58
-140.18
-130.72
-124.91
-122.66
-123.27
-125.66
-128.55
-130.68
-131.09
-129.39
-125.79
-121.0
-115.99
-111.53
-107.98
-105.08
-102.15
-98.3
-92.84
-85.6
-77.02
-68.06
-59.86
-53.35
-49.06
-46.93
-46.56
-47.34
-48.64
-49.85
-50.4
-49.77
-47.55
-43.54
-37.83
-30.69
-22.6
-14.05
-5.51
2.54
9.77
15.92
20.96
25.04
28.41
31.35
34.02
36.48
38.77
41.02
43.38
46.01
48.88
51.79
54.44
56.59
58.27
59.69
61.15
62.79
64.44
65.57
65.44
63.3
58.65
51.5
42.44
32.65
23.56
16.53
12.36
11.1
12.04
14.0
15.78
16.51
15.78
13.65
10.46
6.69
2.82
-0.7
-3.51
-5.39
-6.33
-6.5
-6.2
-5.76
-5.4
-5.21
-5.11
-5.03
-4.89
-4.74
-4.66
-4.72
-4.91
-5.09
-5.03
-4.51
-3.38
-1.64
0.51
2.66
4.26
4.72
3.62
0.73
-3.82
-9.67
-16.24
-23.02
-29.59
-35.7
-41.24
-46.13
-50.32
-53.83
-56.75
-59.41
-62.24
-65.7
-70.04
-75.15
-80.45
-84.98
-87.7
-87.78
-84.93
-79.51
-72.42
-64.82
-57.81
-52.1
-47.96
-45.26
-43.68
-42.86
-42.63
-42.89
-43.59
-44.65
-45.95
-47.29
-48.42
-49.08
-48.9
-47.48
-44.45
-39.62
-33.12
-25.43
-17.32
-9.58
-2.76
2.94
7.64
11.64
15.21
18.5
21.5
24.16
26.38
28.08
29.23
29.79
29.72
29.0
27.63
25.64
23.14
20.24
17.09
13.89
10.76
7.77
4.97
2.36
-0.14
-2.71
-5.63
-9.2
-13.59
-18.59
-23.55
-27.43
-29.17
-28.04
-23.92
-17.41
-9.6
-1.72
5.2
10.57
14.31
16.61
17.84
18.37
18.47
18.32
18.04
17.7
17.33
16.93
16.46
15.84
15.05
14.14
13.28
12.67
12.5
12.74
13.17
13.39
12.97
11.6
9.16
5.86
2.15
-1.36
-4.05
-5.48
-5.58
-4.69
-3.5
-2.73
-2.92
-4.19
-6.16
-8.18
-9.59
-10.0
-9.5
-8.56
-7.92
-8.25
-9.99
-13.15
-17.25
-21.5
-24.85
-26.37
-25.35
-21.54
-15.06
-6.45
3.5
13.88
23.81
32.64
40.03
45.93
50.56
54.19
57.0
59.04
60.21
60.4
59.65
58.2
56.52
55.1
54.34
54.34
54.89
55.61
56.04
55.85
54.87
53.11
50.64
47.55
43.93
39.91
35.66
31.4
27.31
23.48
19.93
16.63
13.57
10.75
8.2
5.91
3.78
1.6
-0.96
-4.26
-8.61
-14.14
-20.56
-27.1
-32.56
-35.64
-35.26
-31.03
-23.35
-13.35
-2.49
7.84
16.65
23.53
28.58
32.25
35.1
37.64
40.16
42.7
45.04
46.88
48.03
48.55
48.84
49.53
51.28
54.57
59.57
66.1
73.58
81.05
87.3
91.01
91.09
87.1
