-38.84
-42.53
-47.3
-53.23
-59.65
-65.28
-68.83
-69.68
-68.26
-66.07
-65.04
-66.76
-71.88
-79.96
-89.75
-99.89
-109.49
-118.26
-126.32
-133.74
-140.14
-144.68
-146.32
-144.33
-138.61
-129.76
-118.91
-107.39
-96.36
-86.58
-78.32
-71.33
-65.08
-58.89
-52.24
-44.93
-37.15
-29.23
-21.48
-13.96
-6.52
1.01
8.62
16.07
23.05
29.34
35.05
40.54
46.23
52.4
58.92
65.34
70.98
75.25
77.84
78.83
78.59
77.62
76.4
75.2
74.11
73.0
71.67
69.93
67.68
64.99
62.05
59.15
56.46
54.02
51.6
48.76
44.96
39.67
32.58
23.66
13.3
2.35
-7.97
-16.24
-21.15
-21.91
-18.42
-11.37
-1.99
8.18
17.73
25.57
31.08
34.16
35.12
34.61
33.35
32.05
31.18
30.94
31.3
32.04
32.92
33.75
34.51
35.31
36.33
37.78
39.67
41.91
44.14
45.95
46.91
46.7
45.16
42.36
38.51
33.98
29.23
24.7
20.72
17.4
14.59
11.97
9.14
5.83
2.03
-2.04
-6.04
-9.68
-12.92
-16.0
-19.39
-23.58
-28.79
-34.83
-40.88
-45.75
-48.11
-46.91
-41.74
-33.0
-21.81
-9.69
1.9
11.93
19.98
26.18
30.96
34.8
38.02
40.78
43.11
45.09
46.82
48.52
50.36
52.5
54.93
57.56
60.28
63.04
65.8
68.55
71.21
73.54
75.25
76.03
75.8
74.71
73.13
71.51
70.08
68.79
67.31
65.26
62.39
58.8
54.92
51.33
48.54
46.64
45.27
43.65
40.92
36.56
30.71
24.31
18.8
15.79
16.48
21.32
29.81
40.66
52.05
62.11
69.32
72.95
73.31
71.71
70.01
69.87
72.04
76.01
80.18
82.67
82.1
78.31
72.29
65.75
60.38
57.21
56.36
57.11
58.4
59.24
59.11
57.99
56.18
53.89
50.89
46.44
39.57
29.6
16.61
1.52
-14.23
-29.28
-42.82
-54.72
-65.15
-74.32
-82.12
-88.33
-92.9
-96.1
-98.54
-100.8
-103.1
-105.01
-105.66
-104.01
-99.36
-91.65
-81.46
-69.85
-57.97
-46.76
-36.86
-28.61
-22.15
-17.57
-14.8
-13.63
-13.56
-13.93
-14.1
-13.66
-12.6
-11.21
-9.88
-8.9
-8.26
-7.76
-7.14
-6.28
-5.3
-4.48
-4.14
-4.45
-5.4
-6.77
-8.21
-9.38
-10.05
-10.22
-10.1
-10.0
-10.24
-11.04
-12.43
-14.34
-16.56
-18.89
-21.1
-22.95
-24.33
-25.27
-26.08
-27.28
-29.44
-32.84
-37.22
-41.76
-45.26
-46.66
-45.3
-41.23
-34.99
-27.43
-19.4
-11.64
-4.69
1.05
5.35
8.2
9.81
10.59
11.01
11.5
12.32
13.56
15.14
16.87
18.5
19.77
20.52
20.79
20.84
21.1
22.04
23.92
26.68
29.84
32.72
34.62
35.15
34.28
32.42
30.07
27.69
25.59
23.82
22.41
21.39
20.83
20.66
20.64
20.32
19.25
17.21
14.37
11.21
8.33
6.14
4.78
4.04
3.5
2.7
1.17
-1.3
-4.66
-8.45
-11.81
-13.64
-12.99
-9.38
-3.09
4.9
13.2
20.41
25.58
28.31
28.77
27.53
25.26
22.53
19.75
17.09
14.5
11.8
8.74
5.06
0.57
-4.77
-10.83
-17.28
-23.58
-29.13
-33.48
-36.39
-38.09
-39.09
-40.0
-41.31
-43.19
-45.5
-47.89
-50.02
-51.62
-52.56
-52.8
-52.4
-51.39
-49.89
-48.03
-46.0
-44.01
-42.25
-40.84
-39.83
-39.1
-38.46
-37.65
-36.56
-35.24
-33.94
-32.98
-32.46
-32.15
-31.48
-29.73
-26.36
-21.17
-14.33
-6.28
2.45
11.19
19.13
25.34
28.95
29.4
26.65
21.14
13.53
4.46
-5.58
-16.17
-26.68
-36.11
-43.22
-46.85
-46.51
-42.59
-36.45
-30.0
-25.14
-23.12
-24.24
-27.85
-32.75
-37.69
-41.88
-45.19
-48.01
-50.83
-53.89
-56.93
-59.31
-60.27
-59.28
-56.28
-51.79
-46.7
-42.07
-38.67
-36.83
-36.33
-36.39
-36.07
-34.37
-30.63
-24.66
-16.68
-7.28
2.77
12.73
21.96
29.94
36.28
40.58
42.51
41.88
38.65
33.08
25.63
16.96
7.82
-1.02
-8.78
-14.8
-18.58
-19.9
-18.81
-15.62
-10.75
-4.71
2.01
8.93
15.53
21.37
26.09
29.53
31.79
33.18
34.15
35.1
36.25
37.57
38.76
39.42
39.2
37.94
35.67
32.63
29.17
25.62
22.2
18.93
15.63
11.86
7.17
1.23
-5.83
-13.36
-20.2
-25.03
-26.77
-25.0
-20.09
-13.0
-5.03
2.61
9.05
13.88
17.0
18.63
19.11
18.85
18.28
17.7
17.21
16.68
15.74
13.99
11.14
7.15
2.29
-2.95
-8.02
-12.45
-16.0
-18.63
-20.43
-21.57
-22.21
-22.53
-22.73
-23.03
-23.61
-24.47
-25.45
-26.25
-26.58
-26.33
-25.68
-25.02
-24.8
-25.24
-26.27
-27.54
-28.55
-28.92
-28.52
-27.55
-26.45
-25.79
-26.0
-27.31
-29.55
-32.07
-33.84
-33.62
-30.33
-23.43
-13.11
-0.42
13.07
25.69
36.11
43.66
48.35
50.68
51.3
50.76
49.45
47.53
45.02
41.91
38.08
33.31
27.36
20.04
11.48
2.23
-6.82
-14.7
-20.67
-24.6
-26.91
-28.39
-29.73
-31.22
-32.57
-33.12
-32.27
-29.82
-26.16
-22.11
-18.5
-15.85
-14.12
-12.74
-10.94
-8.0
-3.55
2.31
9.12
16.22
22.94
28.8
33.65
37.65
41.25
45.05
49.62
55.27
61.94
69.14
75.97
81.34
84.25
84.16
81.23
76.35
70.86
66.06
62.74
60.98
60.19
59.56
58.51
56.94
55.19
53.79
53.09
53.05
53.36
53.61
53.49
52.87
51.71
49.97
47.48
44.01
39.36
33.42
26.28
18.27
9.86
1.77
-5.3
-10.72
-14.2
-15.96
-16.61
-17.1
-18.29
-20.75
-24.51
-29.14
-33.88
-37.83
-40.14
-40.23
-37.92
-33.61
-28.17
-22.78
-18.52
-16.08
-15.49
-16.25
-17.59
-18.81
-19.49
-19.58
-19.15
-18.19
-16.48
-13.75
-9.82
-4.9
0.42
5.31
9.09
11.5
12.79
13.58
14.51
15.89
17.61
19.31
20.68
21.71
22.66
23.91
25.63
27.58
29.14
29.62
28.6
26.16
22.96
19.88
17.68
16.64
16.47
16.51
16.09
14.83
12.75
10.19
7.56
5.21
3.34
2.03
1.26
0.83
0.22
-1.43
-5.04
-11.14
-19.3
-27.96
-34.83
-37.65
-35.29
-28.21
-18.33
-8.23
-0.08
5.23
8.16
10.11
12.66
16.86
23.06
30.93
39.9
49.47
59.38
69.69
80.5
91.88
103.74
115.88
128.1
140.34
152.57
164.73
176.45
187.05
195.75
202.13
206.54
210.17
214.62
221.1
229.62
238.61
245.31
246.68
240.46
226.02
204.44
178.08
149.75
121.85
95.82
71.95
49.55
27.36
3.97
-21.74
-50.29
-81.58
-114.98
-149.58
-184.58
-219.62
-255.03
-292.11
-333.07
-380.46
-435.7
-497.53
-560.86
-617.4
-657.92
-675.54
-668.28
-639.69
-597.18
-548.95
-501.24
-456.93
-415.86
-376.41
-336.99
-296.99
-256.9
-218.11
-182.77
-153.57
-133.25
-123.66
-124.78
-134.3
-148.04
-161.18
-169.84
-172.14
-168.36
-160.28
-150.03
-139.28
-128.87
-119.11
-110.24
-102.56
-96.22
-90.73
-84.83
-76.62
-64.34
-46.94
-24.37
2.62
32.81
64.87
97.25
128.18
155.67
178.01
194.28
204.77
210.81
214.09
215.79
216.1
214.42
210.09
203.06
194.22
184.94
176.49
169.34
163.06
156.68
149.23
140.26
129.93
118.88
107.65
96.34
84.5
71.43
56.74
40.97
25.65
12.88
4.38
0.64
0.56
1.96
2.59
1.27
-1.66
-4.78
-6.61
-6.63
-5.6
-4.93
-5.49
-6.59
-5.87
-0.31
12.27
31.78
55.58
79.41
98.99
111.71
117.43
118.26
117.45
118.28
123.22
133.37
148.06
164.48
177.52
180.28
165.88
130.25
74.76
7.36
-59.06
-110.67
-137.51
-136.82
-113.29
-76.41
-36.36
-0.43
28.12
49.1
63.21
69.99
67.14
51.37
20.39
-24.97
-79.63
-134.9
-180.67
-208.54
-214.5
-199.59
-168.44
-126.48
-77.59
-23.67
33.96
92.44
146.37
188.96
214.9
223.08
217.58
205.99
196.1
192.65
195.8
201.87
205.65
203.37
194.44
181.61
169.41
162.28
162.32
168.37
176.22
179.87
173.02
150.64
110.38
53.7
-13.36
-81.02
-137.68
-173.12
-181.47
-162.81
-122.92
-70.87
-16.36
32.79
70.72
92.91
95.4
74.85
30.02
-36.48
-116.97
-199.21
-267.94
-310.11
-318.75
-294.82
-246.1
-183.41
-116.58
-51.73
9.13
68.73
129.36
190.66
249.29
301.03
343.3
376.36
402.6
424.93
448.82
477.44
510.89
546.57
580.71
609.78
630.84
640.99
637.43
622.73
600.18
573.08
543.7
513.54
484.1
457.09
434.07
387.97
304.76
185.82
49.11
-81.64
-189.89
-270.54
-326.16
-362.01
-383.04
-388.02
-378.26
-357.11
-330.64
-306.05
-288.92
-281.68
-284.0
-294.21
-307.65
-318.35
-324.68
-328.88
-334.93
-345.81
-362.01
-382.05
-403.47
-422.04
-435.45
-444.36
-452.09
-463.41
-482.93
-513.73
-556.36
-607.92
-660.58
-704.07
-728.66
-728.36
-702.9
-657.56
-600.81
-541.14
-484.29
-431.99
-383.4
-337.36
-293.7
-253.36
-217.37
-185.73
-157.16
-129.72
-101.95
-73.63
-45.85
-20.54
0.59
16.81
28.55
37.14
44.12
50.54
56.55
61.44
64.14
63.9
60.72
55.52
49.82
45.22
42.81
42.91
45.04
48.28
51.8
55.22
58.77
63.08
68.86
76.45
85.6
95.58
105.39
114.27
122.03
129.14
136.53
145.2
155.77
168.23
182.04
196.37
210.57
224.45
238.34
252.92
269.06
287.68
309.62
335.25
363.94
393.46
420.0
438.92
446.24
440.15
421.84
394.95
364.16
333.37
304.73
278.63
254.64
232.42
212.18
194.41
179.27
166.27
154.37
142.56
130.32
117.86
105.88
95.2
86.27
79.05
73.05
67.64
62.28
56.78
51.35
46.47
42.69
40.3
39.2
38.97
39.07
39.2
39.42
40.18
41.9
44.66
47.91
50.53
51.17
48.77
42.98
34.29
23.78
12.67
2.01
-7.65
-16.15
-23.71
-30.73
-37.69
-44.95
-52.68
-60.78
-68.95
-76.74
-83.7
-89.45
-93.59
-95.64
-95.03
-91.33
-84.57
-75.44
-65.36
-55.98
-48.73
-44.32
-42.57
-42.59
-43.22
-43.4
-42.52
-40.51
-37.79
-35.04
-33.07
-32.51
-33.67
-36.37
-39.87
-43.0
-44.45
-43.12
-38.61
-31.48
-23.18
-15.66
-10.68
-9.23
-11.25
-15.75
-21.31
-26.7
-31.12
-34.22
-35.82
-35.7
-33.6
-29.42
-23.55
-17.0
-11.22
-7.68
-7.4
-10.68
-17.0
-25.11
-33.27
-39.52
-42.22
-40.6
-35.36
-28.69
-23.75
-23.44
-29.1
-39.84
-52.89
-64.75
-72.72
-75.86
-75.0
-71.91
-68.27
-64.92
-61.82
-58.34
-53.65
-46.91
-37.44
-24.9
-9.61
7.23
23.63
37.48
47.23
52.54
54.2
53.57
51.8
49.41
46.38
42.67
38.74
35.54
34.13
34.89
37.13
39.19
39.18
35.84
29.21
20.7
12.58
7.22
6.15
9.54
15.89
22.05
23.7
16.35
-3.47
-36.77
-81.24
-131.23
-178.86
-216.02
-236.48
-237.41
-219.75
-187.61
-146.86
-103.62
-63.09
-28.81
-2.48
15.93
27.86
35.61
41.74
48.43
56.96
67.45
78.9
89.62
97.83
102.29
102.72
99.82
95.03
89.96
85.73
82.62
80.01
76.7
71.42
63.4
52.7
40.17
27.19
15.22
5.4
-1.8
-6.69
-10.24
-13.9
-19.2
-27.3
-38.66
-52.77
-68.14
-82.67
-94.18
-101.03
-102.66
-99.6
-93.24
-85.28
-77.11
-69.55
-62.76
-56.57
-50.78
-45.38
-40.5
-36.34
-32.92
-30.08
-27.51
-24.88
-21.85
-18.17
-13.52
-7.48
0.5
10.91
24.01
39.59
56.89
74.71
91.58
106.14
117.39
124.81
128.46
128.82
126.63
122.76
118.0
113.01
108.21
103.79
99.69
95.69
91.53
86.95
81.86
76.28
70.4
64.54
59.06
54.28
50.42
47.51
45.38
43.58
41.51
38.42
33.77
27.43
19.88
12.19
5.69
1.56
0.47
2.43
6.89
13.07
20.26
28.01
36.17
44.77
53.88
63.47
73.34
83.03
91.89
99.05
103.7
105.35
104.02
100.45
95.96
92.25
91.03
93.66
100.98
113.24
130.03
150.23
171.96
192.76
210.09
222.03
227.76
227.71
223.13
215.38
205.32
193.2
178.99
162.9
145.68
128.45
112.28
97.71
84.55
72.21
60.04
47.65
35.02
22.31
9.65
-2.98
-15.83
-29.21
-43.47
-58.92
-75.92
-94.79
-115.72
-138.46
-162.24
-185.75
-207.43
-225.94
-240.42
-250.66
-257.03
-260.22
-261.18
-260.91
-260.33
-260.19
-260.81
-261.96
-262.94
-262.89
-261.18
-257.67
-252.74
-247.05
-241.21
-235.55
-230.03
-224.23
-217.54
-209.25
-198.78
-185.82
-170.44
-153.13
-134.72
-116.25
-98.69
-82.87
-69.28
-58.11
-49.25
-42.42
-37.29
-33.54
-30.99
-29.56
-29.24
-30.06
-31.92
-34.58
-37.51
-40.03
-41.4
-41.11
-39.14
-36.01
-32.72
-30.34
-29.66
-30.9
-33.67
-37.34
-41.33
-45.33
-49.25
-53.06
-56.51
-59.16
-60.56
-60.51
-59.19
-57.01
-54.17
-50.28
-44.35
-35.14
-21.81
-4.48
15.56
36.29
55.72
72.62
87.03
99.96
112.76
126.32
140.46
153.94
164.89
171.52
172.75
168.59
160.06
148.91
137.1
126.31
117.69
111.62
107.67
104.63
100.7
93.96
82.94
67.3
48.04
27.38
7.98
-7.91
-19.15
-25.96
-29.59
-31.54
-32.97
-34.35
-35.51
-36.06
-35.73
-34.57
-32.91
-31.2
-29.74
-28.6
-27.66
-26.79
-25.89
-25.03
-24.18
-23.05
-20.97
-17.01
-10.34
-0.75
11.12
23.95
36.27
47.15
56.66
65.74
75.48
86.29
97.22
106.09
110.06
106.72
94.86
74.72
47.77
16.41
-16.27
-46.49
-70.14
-83.67
-85.33
-76.16
-60.04
-42.44
-28.54
-21.38
-21.13
-25.69
-32.11
-37.97
-42.13
-44.56
-45.76
-46.24
-46.24
-45.91
-45.44
-45.01
-44.82
-45.08
-45.88
-47.27
-49.24
-51.72
-54.67
-58.16
-62.45
-67.98
-75.11
-83.9
-93.91
-104.31
-113.97
-121.86
-127.13
-129.09
-127.22
-121.04
-110.24
-94.87
-75.58
-53.68
-31.12
-10.07
7.42
19.91
26.79
28.42
25.9
20.79
14.63
8.58
3.26
-1.25
-5.22
-9.11
-13.46
-18.7
-25.08
-32.5
-40.5
-48.17
-54.41
-58.21
-58.93
-56.53
-51.49
-44.61
-36.76
-28.64
-20.73
-13.28
-6.5
-0.54
4.44
8.27
10.89
12.33
12.81
12.71
12.5
12.64
13.39
14.75
16.47
18.17
19.47
20.22
20.48
20.49
20.46
20.52
20.55
20.29
19.49
17.99
15.8
13.11
10.15
7.08
3.97
0.7
-2.93
-7.1
-11.91
-17.27
-22.96
-28.6
-33.78
-38.08
-41.16
-42.78
-42.91
-41.68
-39.38
-36.34
-32.73
-28.53
-23.46
-17.1
-9.23
0.06
10.18
20.21
29.21
36.51
41.94
45.78
48.54
50.83
53.22
56.26
60.53
66.59
74.87
85.44
97.84
111.16
124.25
136.09
146.03
153.76
159.23
162.37
163.03
160.98
156.12
148.55
138.68
127.1
114.48
101.5
88.81
77.22
67.74
61.44
59.12
60.81
65.52
71.34
76.15
78.37
77.52
74.05
68.49
60.57
49.15
32.78
10.94
-15.16
-42.7
-68.44
-90.0
-106.39
-117.49
-123.18
-122.76
-115.5
-101.68
-83.49
-64.74
-49.57
-40.74
-38.63
-41.5
-46.84
-52.6
-57.84
-62.63
-67.21
-71.55
-75.31
-78.21
-80.41
-82.54
-85.29
-89.06
-93.76
-98.72
-103.03
-105.76
-106.13
-103.62
-98.04
-89.7
-79.51
-68.86
-59.27
-51.94
-47.25
-44.76
-43.42
-42.11
-40.1
-37.27
-33.94
-30.58
-27.44
-24.5
-21.49
-18.16
-14.4
-10.35
-6.36
-2.78
0.18
2.55
4.51
6.36
8.33
10.5
12.74
14.84
16.5
17.51
17.76
17.23
16.04
14.43
12.73
11.33
10.59
10.66
11.42
12.45
13.1
12.78
11.13
8.27
4.77
1.53
-0.53
-0.74
1.09
4.75
9.65
15.09
20.46
25.37
29.67
33.42
36.83
40.12
43.47
46.95
50.5
53.94
57.07
59.66
61.56
62.59
62.61
61.41
58.86
54.97
49.89
44.01
37.76
31.58
25.75
20.43
15.61
11.21
7.15
3.37
-0.18
-3.54
-6.72
-9.73
-12.59
-15.29
-17.85
-20.29
-22.63
-24.94
-27.33
-30.02
-33.22
-37.06
-41.38
-45.7
-49.16
-50.82
-49.89
-46.08
-39.77
-31.79
-23.25
-15.1
-7.9
-1.84
3.16
7.26
10.56
13.08
14.91
16.18
17.13
17.93
18.7
19.44
20.13
20.73
21.27
21.75
22.11
22.23
21.98
21.28
20.13
18.67
17.0
15.2
13.22
11.03
8.58
5.96
3.34
0.94
-1.18
-3.04
-4.8
-6.7
-8.95
-11.74
-15.13
-19.15
-23.64
-28.2
-32.21
-34.77
-34.98
-32.19
-26.24
-17.62
-7.34
3.38
13.39
21.99
28.96
34.52
39.05
42.91
46.28
49.13
51.34
52.78
53.45
53.35
52.53
51.03
49.03
46.77
44.64
43.02
42.05
41.6
41.24
40.47
38.94
36.57
33.56
30.21
26.72
23.15
19.48
15.65
11.71
7.77
3.87
-0.01
-3.96
-8.01
-12.06
-15.8
-18.82
-20.66
-21.01
-19.77
-17.08
-13.22
-8.64
-3.79
0.89
5.04
8.41
10.89
12.42
13.06
12.91
12.09
10.77
9.21
7.61
6.19
5.11
4.43
4.17
4.24
4.52
4.88
5.17
5.25
5.06
4.57
3.76
2.61
1.08
-0.82
-3.06
-5.49
-7.94
-10.29
-12.52
-14.73
-17.13
-19.95
-23.3
-27.11
-31.04
-34.46
-36.56
-36.52
-33.84
-28.46
-20.91
-12.17
-3.37
4.51
10.89
15.6
18.75
20.61
21.43
21.43
20.87
20.01
19.21
18.78
18.92
19.65
20.79
22.05
23.15
23.95
24.4
24.57
24.46
24.02
23.08
21.52
19.34
16.7
13.89
11.2
8.83
6.8
4.96
3.09
0.96
-1.58
-4.59
-8.01
-11.69
-15.5
-19.29
-23.02
-26.76
-30.67
-34.94
-39.61
-44.44
-48.84
-51.97
-52.96
-51.2
-46.54
-39.38
-30.54
-21.09
-12.02
-4.06
2.45
7.55
11.51
14.69
17.37
19.69
21.65
23.23
24.43
25.34
26.07
26.75
27.41
28.05
28.64
29.15
29.62
30.03
30.37
30.54
30.37
29.65
28.28
26.26
23.77
21.08
18.47
16.15
14.17
12.47
10.88
9.2
7.28
5.07
2.6
-0.01
-2.62
-5.16
-7.65
-10.22
-13.07
-16.38
-20.3
-24.89
-30.03
-35.42
-40.5
-44.52
-46.69
-46.37
-43.24
-37.45
-29.57
-20.5
-11.22
-2.62
4.68
10.39
14.57
17.51
19.62
21.26
22.7
24.06
25.45
26.98
28.77
30.93
33.51
36.4
39.49
42.59
45.61
48.53
51.33
54.0
56.46
58.58
60.21
61.28
61.86
62.11
62.29
62.65
63.35
64.33
65.28
65.75
65.17
63.15
59.56
54.59
48.67
42.31
35.99
29.97
24.35
19.11
14.14
9.28
4.26
-1.18
-7.26
-13.97
-20.98
-27.55
-32.72
-35.54
-35.29
-31.8
-25.54
-17.56
-9.28
-2.13
2.8
5.07
4.89
2.96
0.12
-2.95
-5.84
-8.44
-10.7
-12.54
-13.84
-14.52
-14.59
-14.22
-13.63
-12.95
-12.17
-11.22
-10.01
-8.55
-7.02
-5.61
-4.52
-3.88
-3.64
-3.73
