28.65
29.33
29.34
28.27
25.97
22.67
18.86
15.06
11.52
8.03
4.01
-1.27
-8.41
-17.61
-28.5
-40.19
-51.45
-61.02
-67.95
-71.91
-73.24
-72.82
-71.78
-71.12
-71.39
-72.63
-74.5
-76.55
-78.5
-80.34
-82.31
-84.71
-87.59
-90.56
-92.73
-92.79
-89.42
-81.66
-69.29
-52.95
-33.93
-13.89
5.62
23.43
38.83
51.51
61.47
68.8
73.72
76.53
77.6
77.43
76.58
75.63
75.12
75.37
76.39
77.82
79.03
79.29
78.01
74.8
69.59
62.54
54.0
44.45
34.53
24.89
16.15
8.75
2.86
-1.64
-5.08
-7.89
-10.53
-13.36
-16.65
-20.53
-25.01
-30.09
-35.75
-42.04
-48.96
-56.23
-63.21
-68.81
-71.69
-70.71
-65.27
-55.68
-43.05
-28.94
-14.92
-2.15
8.71
17.42
24.01
28.62
31.45
32.76
32.94
32.44
31.67
30.99
30.64
30.77
31.45
32.68
34.42
36.52
38.77
40.84
42.4
43.09
42.75
41.34
39.08
36.32
33.41
30.58
27.79
24.81
21.32
17.02
11.85
5.97
-0.3
-6.58
-12.58
-18.14
-23.28
-28.17
-33.06
-38.27
-44.03
-50.36
-57.0
-63.24
-67.98
-69.94
-68.0
-61.57
-50.84
-36.87
-21.28
-5.86
7.88
19.03
27.35
33.16
37.06
39.7
41.62
43.12
44.4
45.54
46.64
47.78
48.99
50.31
51.7
53.17
54.78
56.63
58.74
61.03
63.2
64.86
65.59
65.18
63.67
61.35
58.61
55.83
53.15
50.52
47.78
44.76
41.42
37.87
34.3
30.88
27.74
24.83
22.03
19.1
15.79
11.96
7.7
3.46
0.08
-1.35
0.2
5.29
13.7
24.34
35.45
45.11
51.75
54.59
53.71
49.82
43.95
36.98
29.52
21.82
13.96
6.11
-1.45
-8.29
-14.0
-18.34
-21.35
-23.36
-24.84
-26.27
-27.97
-30.1
-32.64
-35.5
-38.61
-41.89
-45.29
-48.65
-51.8
-54.54
-56.68
-58.15
-58.92
-59.04
-58.55
-57.46
-55.82
-53.77
-51.5
-49.36
-47.78
-47.17
-47.76
-49.39
-51.34
-52.37
-50.99
-45.9
-36.58
-23.47
-7.9
8.4
23.84
37.37
48.64
57.75
65.01
70.74
75.27
79.04
82.66
86.79
91.96
98.35
105.74
113.6
121.42
128.89
136.05
143.19
150.6
158.27
165.86
172.71
178.16
181.81
183.69
184.25
184.14
184.0
184.15
184.49
184.4
182.87
178.71
170.82
158.49
141.74
121.39
98.98
76.47
55.69
37.8
23.08
11.02
0.79
-8.15
-15.68
-20.93
-22.81
-20.76
-15.31
-8.23
-2.1
0.65
-1.5
-8.75
-20.41
-35.58
-53.85
-75.53
-101.24
-131.28
-165.13
-201.39
-238.09
-273.07
-304.14
-329.14
-345.92
-352.7
-348.51
-333.76
-310.41
-281.5
-250.39
-219.98
-192.14
-167.78
-147.02
-129.51
-114.5
-100.87
-87.28
-72.43
-55.54
-36.71
-16.99
1.9
18.15
30.42
38.15
41.58
41.43
38.48
33.35
26.38
17.89
8.43
-1.07
-9.34
-15.08
-17.41
-16.19
-12.09
-6.28
0.01
5.95
11.26
16.14
20.9
25.66
30.17
33.97
36.67
38.14
38.71
38.91
39.33
40.37
42.12
44.44
47.06
49.67
51.84
53.04
52.58
49.86
44.71
37.55
29.43
21.64
15.2
10.41
6.79
3.33
-0.96
-6.67
-13.8
-21.84
-30.09
-37.93
-45.03
-51.32
-56.97
-62.2
-67.09
-71.42
-74.62
-75.87
-74.39
-69.74
-62.03
-51.92
-40.33
-28.23
-16.42
-5.52
3.9
11.15
15.55
16.59
14.32
9.41
3.09
-3.35
-8.96
-13.43
-17.01
-20.2
-23.37
-26.49
-29.24
-31.28
-32.51
-33.15
-33.65
-34.38
-35.48
-36.83
-38.26
-39.73
-41.41
-43.53
-46.13
-48.93
-51.35
-52.81
-53.01
-52.12
-50.69
-49.44
-48.96
-49.54
-51.23
-53.69
-56.32
-58.15
-57.84
-53.95
-45.28
-31.28
-12.41
9.93
33.8
57.2
78.51
96.76
111.61
123.17
131.77
137.89
141.98
144.52
145.99
146.82
147.38
147.89
148.43
149.01
149.53
149.85
149.77
149.11
147.63
145.11
141.31
136.05
129.15
120.55
110.31
98.65
85.97
72.68
59.19
45.71
32.4
19.28
6.49
-5.76
-17.15
-27.46
-36.72
-45.3
-53.85
-63.01
-73.11
-83.82
-94.1
-102.35
-106.81
-106.03
-99.32
-86.99
-70.26
-51.0
-31.26
-12.84
2.98
15.54
24.67
30.49
33.3
33.52
31.66
28.4
24.47
20.51
16.96
13.94
11.38
9.08
6.78
4.26
1.32
-2.24
-6.55
-11.61
-17.29
-23.34
-29.49
-35.57
-41.5
-47.23
-52.67
-57.65
-62.04
-65.82
-69.17
-72.42
-75.85
-79.61
-83.57
-87.42
-90.89
-93.82
-96.35
-98.87
-101.94
-106.1
-111.61
-118.22
-124.91
-130.04
-131.78
-128.62
-119.9
-106.13
-88.73
-69.65
-50.8
-33.64
-18.98
-7.1
2.15
9.14
14.31
18.17
21.16
23.65
25.93
28.19
30.51
32.86
35.14
37.23
39.03
40.57
41.89
42.98
43.75
43.98
43.45
42.01
39.71
36.69
33.16
29.22
24.88
20.04
14.59
8.54
2.02
-4.64
-11.08
-17.04
-22.46
-27.57
-32.91
-39.09
-46.53
-55.16
-64.25
-72.5
-78.24
-79.96
-76.65
-68.19
-55.39
-39.78
-23.32
-7.87
5.16
14.97
21.35
24.53
25.01
23.36
20.2
16.04
11.41
6.68
2.07
-2.37
-6.75
-11.25
-16.04
-21.17
-26.55
-32.04
-37.51
-42.91
-48.28
-53.71
-59.2
-64.64
-69.74
-74.06
-77.25
-79.14
-79.85
-79.69
-78.98
-77.75
-75.77
-72.58
-67.88
-61.89
-55.37
-49.51
-45.5
-44.21
-45.97
-50.51
-56.98
-63.92
-69.28
-70.68
-65.92
-53.7
-34.14
-8.98
18.91
46.39
71.01
91.56
108.04
121.19
131.9
140.72
147.65
152.31
154.23
153.25
149.78
144.83
139.64
135.23
132.02
129.65
127.37
124.49
120.87
116.8
112.79
108.96
104.91
99.79
92.88
84.0
73.69
62.85
52.29
42.23
32.38
22.18
11.33
0.05
-11.0
-21.05
-29.63
-36.85
-43.32
-49.92
-57.44
-66.34
-76.63
-87.88
-99.12
-108.93
-115.56
-117.28
-112.89
-102.23
-86.31
-67.1
-46.95
-27.88
-11.17
2.74
13.98
22.9
29.87
35.16
39.07
41.9
44.0
45.68
47.17
48.63
50.13
51.68
53.1
54.06
54.11
52.84
50.08
46.02
41.17
36.06
31.09
26.31
21.56
16.58
11.26
5.62
-0.2
-6.03
-11.76
-17.28
-22.49
-27.28
-31.59
-35.52
-39.43
-43.88
-49.34
-55.87
-62.83
-68.77
-71.75
-69.94
-62.31
-49.04
-31.6
-12.24
6.75
23.68
37.77
48.99
57.68
64.17
68.61
70.97
71.36
70.04
67.63
64.86
62.47
60.94
60.47
60.98
62.17
63.69
65.2
66.41
67.02
66.66
64.89
61.39
56.04
49.14
41.31
33.25
25.5
18.24
11.27
4.21
-3.21
-11.0
-18.87
-26.39
-33.19
-39.19
-44.71
-50.46
-57.31
-66.02
-76.81
-89.04
-101.15
-110.96
-116.23
-115.33
-107.74
-94.24
-76.7
-57.5
-38.99
-22.94
-10.29
-1.17
4.9
8.63
10.75
11.75
11.97
11.62
10.91
10.17
9.79
10.13
11.44
13.83
17.25
21.55
26.47
31.68
36.74
41.1
44.18
45.54
44.93
42.51
38.77
34.4
30.14
26.47
23.54
21.04
18.38
14.93
10.26
4.32
-2.54
-9.76
-16.8
-23.38
-29.55
-35.7
-42.39
-50.2
-59.45
-70.05
-81.31
-91.83
-99.73
-103.03
-100.24
-90.92
-75.9
-57.07
-36.88
-17.6
-0.83
12.66
22.86
30.17
35.11
38.2
39.96
40.93
41.74
43.02
45.25
48.6
52.83
57.47
61.92
65.79
68.99
71.73
74.3
76.87
79.34
81.42
82.73
83.06
82.34
80.8
78.76
76.52
74.24
71.91
69.31
66.17
62.24
57.55
52.34
47.1
42.25
37.92
33.82
29.16
22.94
14.22
2.47
-12.1
-28.48
-44.84
-58.87
-68.32
-71.57
-68.13
-58.8
-45.4
-30.26
-15.57
-2.9
6.99
13.99
18.44
20.78
21.43
20.73
18.99
16.52
13.7
10.93
8.55
6.86
5.98
5.84
6.29
7.09
8.01
8.85
9.42
9.58
9.17
8.08
6.17
3.37
-0.34
-4.88
-10.0
-15.3
-20.32
-24.64
-28.06
-30.62
-32.61
-34.49
-36.7
-39.65
-43.62
-48.6
-54.19
-59.4
-62.76
-62.55
-57.4
-46.82
-31.53
-13.37
5.24
22.06
35.53
45.05
50.8
53.34
53.33
51.33
47.87
43.48
38.78
34.36
30.63
27.75
25.6
23.91
22.4
20.86
19.19
17.33
15.17
12.57
9.31
5.27
0.37
-5.32
-11.61
-18.19
-24.69
-30.73
-35.93
-40.02
-42.87
-44.5
-45.16
-45.31
-45.6
-46.72
-49.24
-53.48
-59.37
-66.57
-74.45
-82.16
-88.62
-92.51
-92.42
-87.17
-76.26
-60.22
-40.63
-19.78
-0.01
16.96
30.42
40.54
48.04
53.63
57.77
60.58
62.13
62.52
62.01
60.89
59.33
57.33
54.8
51.79
48.63
45.9
44.23
43.92
44.84
46.41
47.85
48.53
48.15
46.77
44.65
42.08
39.2
35.96
32.15
27.44
21.47
14.01
5.08
-4.97
-15.52
-25.85
-35.48
-44.37
-52.93
-61.78
-71.22
-80.88
-89.53
-95.39
-96.69
-92.3
-82.21
-67.51
-50.07
-32.01
-15.14
-0.68
10.75
19.09
24.59
27.71
28.99
29.06
28.55
28.03
27.94
28.54
29.88
31.8
33.99
36.15
38.07
39.69
41.09
42.34
43.41
43.95
43.49
41.55
37.9
32.73
26.59
20.12
13.9
8.15
2.82
-2.32
-7.49
-12.8
-18.18
-23.51
-28.61
-33.37
-37.74
-41.78
-45.73
-49.99
-55.08
-61.35
-68.72
-76.39
-82.91
-86.41
-85.25
-78.54
-66.54
-50.62
-32.81
-15.23
0.46
13.34
23.16
30.14
34.69
37.29
38.45
38.62
38.27
37.79
37.47
37.47
37.82
38.48
39.4
40.52
41.78
43.05
44.19
44.99
45.24
44.71
43.23
40.72
37.27
33.07
28.48
23.83
19.41
15.31
11.41
7.46
3.21
-1.4
-6.16
-10.68
-14.57
-17.72
-20.4
-23.23
-26.99
-32.21
-38.93
-46.51
-53.69
-58.82
-60.2
-56.69
-47.91
-34.61
-18.38
-1.37
14.34
27.18
36.38
41.94
44.44
44.68
43.5
41.6
39.54
37.75
36.54
36.02
36.12
36.61
37.21
37.75
38.19
38.71
39.51
40.63
41.77
42.39
41.85
39.79
36.31
32.0
27.77
24.43
22.43
21.63
21.45
21.13
20.06
18.06
15.42
12.75
10.64
9.43
8.93
8.55
7.33
4.26
-1.41
-9.88
-20.5
-31.77
-41.57
-47.75
-48.76
-44.28
-35.34
-24.01
-12.72
-3.5
2.51
5.15
4.9
2.55
-1.21
-5.82
-10.81
-15.72
-20.08
-23.54
-25.89
-27.18
-27.65
-27.59
-27.19
-26.46
-25.27
-23.48
-21.08
-18.28
-15.53
-13.37
-12.24
-12.29
-13.34
-14.92
-16.49
-17.71
-18.55
-19.34
-20.61
-22.81
-26.19
-30.6
-35.61
-40.63
-45.18
-48.96
-52.08
-54.94
-58.19
-62.58
-68.67
-76.52
-85.52
-94.28
-100.85
-103.21
-99.86
-90.31
-75.28
-56.49
-36.17
-16.4
1.29
16.06
27.73
36.5
42.77
46.98
49.58
51.05
51.87
52.48
53.27
54.45
56.08
58.08
60.31
62.7
65.19
67.75
70.24
72.36
73.67
73.67
72.01
68.46
63.09
56.22
48.37
40.15
32.11
24.62
17.72
11.19
4.62
-2.34
-9.84
-17.71
-25.6
-33.03
-39.66
-45.32
-50.21
-54.84
-60.02
-66.55
-74.92
-84.83
-95.07
-103.6
-108.16
-107.0
-99.52
-86.5
-69.76
-51.59
-34.05
-18.58
-5.89
3.91
11.02
15.76
18.51
19.61
19.41
18.32
16.81
15.44
14.78
15.44
17.79
21.88
27.35
33.47
39.4
44.35
47.82
49.62
49.83
48.65
46.32
43.04
38.95
34.19
28.88
23.2
17.37
11.62
6.18
1.2
-3.34
-7.63
-12.08
-17.23
-23.59
-31.45
-40.67
-50.48
-59.53
-66.08
-68.49
-65.66
-57.44
-44.69
-29.12
-12.79
2.42
15.15
24.8
31.35
35.23
37.03
37.37
36.77
35.68
34.48
33.47
32.88
32.8
33.19
33.94
34.87
35.9
36.99
38.1
39.1
39.74
39.7
38.71
36.64
33.61
29.91
25.92
21.94
18.16
14.6
11.2
7.87
4.49
1.01
-2.61
-6.35
-10.2
-14.18
-18.38
-23.03
-28.46
-34.92
-42.38
-50.3
-57.59
-62.8
-64.49
-61.7
-54.19
-42.5
-27.72
-11.19
5.74
21.88
36.25
48.1
57.02
62.91
66.03
66.91
66.21
64.64
62.81
61.17
59.88
58.79
57.42
55.25
51.92
47.54
42.68
38.18
34.72
32.63
31.83
32.06
33.17
35.17
38.1
41.77
45.55
48.48
49.55
48.04
43.77
37.07
28.56
18.99
9.12
-0.43
-9.22
-17.12
-24.41
-31.75
-39.89
-49.22
-59.45
-69.44
-77.37
-81.32
-79.76
-72.21
-59.37
-43.11
-26.02
-10.74
0.74
7.64
10.54
11.13
11.58
13.83
19.11
27.71
39.2
52.76
67.43
82.23
96.24
108.47
117.99
124.01
125.95
123.51
116.81
106.4
93.39
79.46
66.59
56.72
51.07
49.67
51.11
52.83
51.9
46.03
34.29
17.42
-2.65
-23.56
-43.4
-61.15
-76.65
-90.18
-102.12
-112.73
-122.26
-130.99
-139.12
-146.38
-151.76
-153.49
-149.68
-139.21
-122.46
-101.43
-79.24
-59.14
-43.62
-33.91
-30.01
-31.02
-35.59
-42.22
-49.4
-55.74
-60.15
-61.99
-61.17
-58.12
-53.49
-47.96
-41.95
-35.71
-29.38
-23.2
-17.56
-12.97
-9.91
-8.7
-9.43
-11.92
-15.82
-20.68
-26.0
-31.24
-35.91
-39.57
-41.87
-42.63
-41.94
-40.2
-38.11
-36.53
-36.17
-37.37
-39.91
-43.18
-46.37
-48.87
-50.23
-50.05
-47.85
-42.87
-34.38
-22.04
-6.31
11.47
29.39
45.46
58.19
66.91
71.8
73.59
73.26
71.8
69.97
68.32
67.16
66.59
66.53
66.67
66.47
65.17
61.8
55.49
45.75
32.8
17.7
2.05
-12.47
-24.73
-34.53
-42.5
-49.71
-56.93
-64.28
-71.2
-76.9
-80.93
-83.45
-85.16
-86.8
-88.72
-90.56
-91.56
-90.95
-88.47
-84.69
-80.84
-78.43
-78.58
-81.5
-86.29
-91.2
-94.07
-93.16
-87.55
-77.42
-63.78
-48.06
-31.65
-15.67
-0.89
12.23
23.39
32.45
39.45
44.59
48.17
50.59
52.21
53.46
54.74
56.4
58.61
61.38
64.54
67.77
70.74
73.23
75.05
76.06
76.14
75.11
72.83
69.23
64.42
58.67
52.39
46.0
39.83
34.06
28.69
23.74
19.28
15.52
12.67
10.81
9.68
8.64
6.85
3.54
-1.57
-8.11
-14.91
-20.38
-22.84
-21.13
-14.91
-4.82
7.72
20.95
33.21
43.41
51.15
56.61
60.25
62.45
63.35
62.88
60.94
57.73
53.74
49.82
46.83
45.43
45.89
48.08
51.58
55.92
60.66
65.46
70.02
73.93
76.68
77.68
76.45
72.83
67.11
59.86
51.82
43.56
35.26
26.74
17.54
7.08
-5.15
-19.55
-36.23
-54.88
-74.48
-93.28
-108.96
-119.21
-122.42
-118.21
-107.69
-93.03
-76.85
-61.39
-48.03
-37.25
-28.86
-22.47
-17.81
-14.91
-13.87
-14.82
-17.53
-21.47
-25.72
-29.18
-30.76
-29.58
-25.19
-17.65
-7.49
4.33
16.71
28.57
39.01
47.38
53.22
56.17
55.93
52.33
45.37
35.35
22.94
9.03
-5.34
-19.21
-31.87
-43.0
-52.59
-61.0
-68.69
-76.06
-83.18
-89.55
-94.15
-95.64
-92.81
-85.04
-72.58
-56.54
-38.52
-20.13
-2.64
13.18
27.02
38.76
48.28
55.5
60.36
62.92
63.45
62.4
60.29
57.69
55.12
52.93
51.31
50.32
49.99
50.32
51.35
52.92
54.47
54.89
52.58
45.89
33.69
15.84
-6.67
-31.91
-57.6
-81.7
-102.69
-119.74
-132.53
-141.14
-145.97
-147.71
-147.23
-145.33
-142.43
-138.35
-132.4
-123.69
-111.7
-96.6
-79.29
-61.15
-43.58
-27.64
-13.85
-2.36
6.95
14.14
19.27
22.41
23.81
23.95
23.57
23.45
24.21
26.17
29.23
32.97
36.81
40.12
42.38
43.23
42.47
40.04
35.99
30.48
23.81
16.31
8.37
0.41
-7.17
-14.07
-20.2
-25.71
-30.98
-36.49
-42.66
-49.63
-57.11
-64.26
-69.79
-72.23
-70.3
-63.34
-51.54
-36.01
-18.42
-0.59
16.02
30.52
42.62
52.4
60.07
65.79
69.73
72.2
73.71
74.92
76.48
78.73
81.62
84.66
87.12
88.38
88.11
86.45
83.85
80.8
77.61
74.24
70.41
65.84
60.47
54.58
48.68
43.2
38.36
34.02
29.82
25.43
20.61
15.24
9.16
2.14
-6.01
-15.1
-24.33
-32.24
-37.12
-37.49
-32.67
-23.03
-9.85
5.1
20.01
33.39
44.21
51.98
56.64
58.52
58.26
56.66
54.53
52.46
50.74
49.41
48.41
47.69
47.33
47.39
47.79
48.23
48.18
47.08
44.51
40.36
34.82
28.23
20.89
12.94
4.4
-4.73
-14.34
-24.04
-33.29
-41.45
-48.1
-53.2
-57.16
-60.73
-64.8
-70.0
-76.5
-83.83
-91.01
-96.69
-99.43
-98.09
-92.06
-81.5
-67.34
-51.1
-34.55
-19.23
-6.18
4.09
11.56
16.42
18.92
19.37
18.21
16.12
13.93
12.46
12.24
13.42
15.7
18.53
21.33
23.7
25.53
26.96
28.16
29.19
29.86
29.83
28.76
26.52
23.3
19.56
15.82
12.42
9.41
6.56
3.54
0.16
-3.48
-7.04
-10.04
-12.11
-13.18
-13.59
-14.08
-15.64
-19.3
-25.87
-35.63
-48.15
-62.17
-75.77
-86.68
-92.74
-92.51
-85.64
-73.01
-56.48
-38.34
-20.66
-4.91
8.25
18.76
26.89
32.99
37.37
40.36
42.38
43.82
45.07
46.34
47.57
48.57
49.17
49.31
49.15
48.97
49.03
49.47
50.22
51.07
51.78
52.1
51.86
50.89
49.05
46.26
42.6
38.39
34.19
30.66
28.3
27.23
27.17
27.47
27.28
25.78
22.28
16.33
7.87
-2.64
-14.18
-25.2
-33.99
-39.11
-39.86
-36.54
-30.25
-22.44
-14.44
-7.13
-0.94
3.91
7.28
9.06
9.28
8.22
6.44
4.57
3.12
2.3
2.08
2.3
2.91
3.93
5.39
7.2
8.97
10.02
9.61
7.09
2.17
-5.01
-13.82
-23.27
-32.13
-39.23
-43.69
-45.17
-43.98
-41.09
-37.8
-35.37
-34.56
-35.43
-37.43
-39.74
-41.75
-43.4
-45.18
-47.92
-52.25
-58.18
-64.94
-71.13
-75.23
-76.14
-73.59
-68.19
-61.18
-53.98
-47.73
-43.15
-40.46
-39.63
-40.54
-42.94
-46.38
-50.05
-52.82
-53.43
-50.82
-44.56
-34.99
-23.14
-10.38
2.03
13.31
23.23
32.0
39.92
47.16
53.65
59.13
63.38
66.37
68.26
69.39
70.07
70.47
70.58
70.27
69.44
68.12
66.52
64.95
63.74
63.04
62.79
62.73
62.48
61.61
59.71
56.4
51.26
43.92
34.14
22.07
8.45
-5.33
-17.44
-26.06
-29.85
-28.46
-22.58
-13.68
-3.59
6.07
14.23
20.44
24.74
27.38
28.67
28.83
28.09
26.72
25.12
23.72
22.9
22.91
23.74
25.23
27.12
29.17
31.21
33.17
34.97
36.53
37.65
38.1
37.62
35.96
32.96
28.69
23.51
18.07
13.16
9.38
6.87
5.16
3.34
0.47
-4.04
-10.15
-17.34
-24.96
-32.52
-39.82
-46.94
-54.05
-61.29
-68.8
-76.8
-85.46
-94.71
-103.94
-111.89
-116.91
-117.4
-112.48
-102.26
-87.84
-70.92
-53.31
-36.54
-21.67
-9.27
0.47
7.69
12.74
16.14
18.45
20.09
21.35
22.34
23.1
23.69
24.17
24.61
25.02
25.39
25.64
25.65
25.36
24.66
23.49
21.75
19.43
16.57
13.36
10.02
6.76
3.7
0.8
-2.07
-5.1
-8.44
-12.06
-15.84
-19.61
-23.24
-26.75
-30.36
-34.44
-39.34
-45.21
-51.78
-58.31
-63.64
-66.49
