-78.09
-82.6
-83.3
-81.32
-77.79
-73.71
-69.96
-67.24
-65.92
-65.74
-65.44
-62.89
-55.66
-41.92
-21.29
4.81
33.53
61.55
86.04
105.4
119.32
128.42
133.73
136.24
136.74
135.83
133.98
131.67
129.26
127.02
125.13
123.69
122.78
122.4
122.4
122.45
122.08
120.81
118.27
114.27
108.74
101.64
92.93
82.58
70.6
57.06
42.19
26.35
10.02
-6.27
-22.09
-37.34
-52.33
-67.83
-84.76
-103.76
-124.77
-146.87
-168.41
-187.45
-202.22
-211.5
-214.78
-212.26
-204.66
-193.17
-179.24
-164.38
-149.91
-136.79
-125.5
-116.09
-108.28
-101.66
-95.85
-90.58
-85.66
-80.88
-75.9
-70.39
-64.0
-56.72
-48.94
-41.46
-35.29
-31.28
-29.82
-30.8
-33.77
-38.22
-43.87
-50.65
-58.57
-67.48
-77.01
-86.62
-95.72
-103.8
-110.45
-115.21
-117.62
-117.23
-113.95
-108.2
-101.01
-93.77
-87.69
-83.35
-80.4
-77.67
-73.63
-67.01
-57.22
-44.57
-30.05
-14.99
-0.6
12.27
23.24
32.23
39.37
44.79
48.68
51.21
52.67
53.47
54.09
54.98
56.4
58.41
60.8
63.21
65.18
66.34
66.42
65.31
63.06
59.77
55.64
50.8
45.38
39.51
33.35
27.04
20.76
14.69
8.95
3.66
-1.16
-5.51
-9.54
-13.5
-17.74
-22.68
-28.6
-35.57
-43.16
-50.46
-56.09
-58.59
-56.7
-49.84
-38.29
-23.2
-6.28
10.63
26.05
39.19
49.9
58.58
65.77
71.92
77.26
81.84
85.75
89.23
92.65
96.42
100.84
105.96
111.57
117.42
123.21
128.71
133.72
137.98
141.24
143.28
144.12
144.05
143.57
143.18
143.13
143.21
142.8
141.0
137.1
130.79
122.33
112.43
101.9
91.22
80.33
68.69
55.51
40.21
22.7
3.61
-15.8
-33.9
-49.0
-59.77
-65.48
-66.2
-62.75
-56.47
-48.87
-41.32
-34.77
-29.66
-26.03
-23.68
-22.3
-21.62
-21.39
-21.44
-21.54
-21.52
-21.26
-20.7
-19.89
-18.9
-17.78
-16.48
-14.84
-12.73
-10.2
-7.6
-5.51
-4.65
-5.57
-8.54
-13.46
-19.91
-27.31
-35.0
-42.37
-48.93
-54.36
-58.56
-61.62
-63.85
-65.65
-67.38
-69.12
-70.49
-70.58
-68.06
-61.48
-49.76
-32.54
-10.39
15.29
42.62
69.77
95.31
118.43
138.98
157.21
173.59
188.48
201.99
213.96
224.01
231.71
236.8
239.23
239.21
237.15
233.6
229.09
224.15
219.13
214.21
209.42
204.68
199.85
194.71
188.89
181.82
172.75
160.99
146.05
127.89
106.76
83.1
57.29
29.63
0.5
-29.46
-59.14
-87.13
-111.88
-131.92
-146.0
-153.21
-153.08
-145.85
-132.69
-115.68
-97.59
-81.3
-69.06
-62.04
-60.24
-62.85
-68.96
-78.1
-90.66
-107.91
-131.54
-162.98
-202.45
-248.25
-296.55
-341.93
-378.61
-401.82
-409.14
-400.91
-380.03
-350.78
-317.68
-284.35
-252.92
-224.0
-196.91
-170.14
-141.92
-110.74
-76.02
-38.57
-0.71
33.9
61.03
77.13
80.77
73.55
59.63
44.26
31.29
21.34
11.72
-1.88
-22.26
-48.47
-75.57
-96.59
-105.82
-101.56
-86.67
-66.88
-47.99
-33.25
-22.6
-13.55
-3.28
9.5
23.76
36.63
44.95
46.95
43.16
36.23
29.76
26.85
29.09
36.36
47.43
60.84
75.47
90.71
106.15
121.32
135.58
148.22
158.78
167.19
173.78
179.24
184.42
189.96
195.93
201.55
205.07
204.17
196.43
180.06
154.07
118.34
73.33
20.05
-39.37
-100.95
-158.55
-204.81
-233.33
-241.26
-230.67
-208.16
-182.35
-160.75
-147.47
-142.54
-143.07
-145.19
-145.69
-142.64
-135.33
-123.77
-108.46
-90.36
-71.02
-52.4
-36.37
-24.29
-16.62
-13.05
-12.66
-14.22
-16.65
-19.32
-22.13
-25.44
-29.64
-34.81
-40.4
-45.31
-48.18
-47.92
-44.19
-37.57
-29.55
-22.02
-16.76
-14.82
-16.28
-20.19
-24.98
-28.92
-30.71
-29.81
-26.5
-21.61
-16.17
-11.06
-6.84
-3.82
-2.07
-1.45
-1.52
-1.47
-0.24
3.2
9.54
18.9
30.79
44.23
57.88
70.25
79.81
85.26
85.77
81.29
72.67
61.53
49.89
39.64
32.06
27.53
25.69
25.73
26.82
28.33
29.87
31.21
32.03
31.93
30.42
27.14
22.0
15.23
7.35
-0.91
-8.72
-15.23
-19.65
-21.29
-19.76
-15.05
-7.67
1.35
10.75
19.3
26.18
31.12
34.42
36.65
38.41
40.03
41.53
42.72
43.41
43.54
43.24
42.72
42.22
41.92
41.93
42.33
43.13
44.25
45.4
46.09
45.67
43.52
39.35
33.33
26.06
18.36
10.79
3.43
-4.14
-12.56
-22.23
-32.88
-43.49
-52.48
-58.17
-59.25
-55.2
-46.28
-33.45
-18.11
-1.74
14.25
28.77
41.04
50.6
57.29
61.25
62.91
63.01
62.47
62.24
62.99
64.89
67.54
70.24
72.26
73.14
72.89
71.87
70.57
69.26
67.91
66.25
63.9
60.67
56.61
52.01
47.26
42.71
38.61
35.03
31.9
29.04
26.1
22.72
18.62
13.82
8.74
4.12
0.9
-0.02
1.96
7.03
14.98
25.28
37.26
50.21
63.66
77.45
91.8
107.15
123.85
141.88
160.56
178.55
194.04
205.16
210.51
209.66
203.49
193.94
183.38
173.49
164.48
154.77
141.63
122.26
94.81
58.72
14.47
-36.77
-92.94
-150.62
-204.57
-248.44
-276.44
-285.62
-277.32
-256.9
-231.59
-207.7
-188.48
-173.75
-161.3
-148.66
-134.73
-119.94
-105.54
-92.6
-81.37
-71.34
-61.65
-51.49
-40.44
-28.29
-14.75
0.69
18.44
38.49
60.08
81.9
102.71
121.98
140.15
158.22
176.81
195.31
211.58
222.45
224.88
216.99
198.76
171.75
138.55
102.0
64.94
30.16
0.34
-22.19
-35.98
-40.96
-38.54
-31.28
-22.15
-13.54
-6.67
-1.47
3.08
8.16
14.46
21.9
29.64
36.46
41.32
43.63
43.39
41.01
37.06
31.95
25.95
19.4
13.07
8.32
6.81
10.0
18.34
30.87
45.41
59.34
70.77
79.3
86.0
92.28
98.69
104.1
106.05
101.93
90.32
71.65
47.71
20.57
-8.47
-38.94
-70.57
-102.4
-132.48
-158.48
-178.8
-193.44
-203.87
-212.04
-219.1
-224.7
-227.24
-224.92
-216.88
-203.81
-187.64
-170.69
-154.74
-140.69
-128.81
-119.34
-112.97
-110.73
-113.41
-120.96
-132.2
-145.29
-158.52
-170.94
-182.53
-193.58
-204.02
-212.98
-219.01
-220.72
-217.43
-209.27
-196.9
-180.89
-161.44
-138.57
-112.59
-84.66
-56.85
-31.65
-11.2
3.44
12.46
17.11
19.04
19.73
20.13
20.63
21.27
21.99
22.95
24.46
26.95
30.66
35.35
40.24
44.16
45.81
44.2
38.99
30.45
19.37
6.7
-6.72
-20.3
-33.57
-46.09
-57.47
-67.48
-76.26
-84.39
-92.56
-100.97
-108.73
-113.73
-113.32
-105.61
-90.57
-70.5
-49.28
-30.88
-17.95
-11.06
-9.11
-10.31
-13.18
-16.87
-20.83
-24.32
-26.15
-25.01
-20.05
-11.43
-0.34
11.44
22.18
30.69
36.59
40.24
42.34
43.65
44.7
45.68
46.48
46.88
46.83
46.53
46.49
47.28
49.29
52.61
56.95
61.81
66.71
71.21
75.0
77.72
78.89
78.02
74.73
68.99
61.24
52.2
42.7
33.38
24.64
16.69
9.79
4.37
1.02
0.3
2.38
6.87
12.76
18.75
23.65
26.81
28.25
28.45
28.02
27.36
26.49
25.24
23.44
21.18
18.8
16.75
15.37
14.72
14.65
14.89
15.22
15.52
15.79
16.1
16.42
16.69
16.7
16.25
15.16
13.36
10.96
8.16
5.14
2.02
-1.26
-4.73
-8.34
-11.76
-14.43
-15.7
-15.1
-12.48
-8.1
-2.54
3.5
9.34
14.53
18.8
22.04
24.2
25.33
25.48
24.83
23.6
22.12
20.71
19.64
19.07
18.98
19.28
19.78
20.31
20.73
20.92
20.78
20.24
19.29
17.96
16.37
14.67
12.96
11.27
9.44
7.22
4.36
0.76
-3.39
-7.6
-11.2
-13.55
-14.11
-12.69
-9.33
-4.36
1.71
8.27
14.68
20.37
24.98
28.39
30.73
32.24
33.18
33.74
34.06
34.27
34.54
35.06
36.06
37.67
39.88
42.54
45.32
47.87
49.87
51.21
52.04
52.71
53.67
55.25
57.5
60.11
62.57
64.36
65.22
65.29
65.12
65.53
67.33
71.14
77.18
85.39
95.41
106.68
118.44
129.79
139.77
147.62
152.88
155.3
154.57
149.86
139.75
122.7
97.99
66.62
31.51
-3.12
-33.16
-55.86
-70.5
-78.13
-80.56
-79.33
-75.23
-68.29
-58.42
-45.98
-32.18
-18.91
-8.19
-1.5
0.69
-1.05
-5.41
-10.99
-16.78
-22.27
-27.29
-31.54
-34.45
-35.25
-33.49
-29.34
-23.69
-17.8
-12.83
-9.46
-7.74
-7.3
-7.63
-8.23
-8.78
-9.16
-9.34
-9.35
-9.21
-8.85
-8.1
-6.66
-4.33
-1.08
2.84
6.99
10.86
14.16
16.76
18.72
20.09
20.78
20.56
19.17
16.51
12.73
8.17
3.19
-1.98
-7.28
-12.64
-17.76
-22.04
-24.71
-25.18
-23.34
-19.73
-15.16
-10.15
-4.59
2.23
11.06
22.0
34.23
46.31
56.82
65.32
72.73
81.14
92.39
107.27
125.41
145.96
168.33
192.07
216.67
240.61
261.21
274.67
277.58
268.55
249.25
223.8
196.74
171.59
149.88
131.71
115.52
99.42
81.99
62.87
42.35
19.64
-6.0
-34.72
-64.27
-93.41
-121.66
-149.67
-178.44
-209.39
-246.2
-291.04
-342.25
-390.81
-428.87
-451.7
-460.06
-458.61
-454.45
-458.01
-475.55
-505.8
-535.42
-553.19
-552.02
-530.59
-490.15
-434.39
-374.43
-322.98
-291.0
-278.46
-286.38
-313.67
-356.92
-407.87
-425.99
-383.56
-277.5
-171.73
-93.38
-52.38
-36.59
-39.93
-54.31
-69.95
-82.14
-88.03
-86.17
-69.68
-39.48
-0.55
40.36
80.48
119.94
156.11
186.71
211.19
236.35
264.94
296.13
325.25
347.8
360.3
358.98
342.9
314.58
282.14
250.78
222.65
197.13
173.84
152.99
134.01
116.39
99.86
86.11
75.68
68.59
64.44
63.15
64.56
67.58
70.71
72.58
73.04
72.15
70.45
68.63
67.6
68.04
70.02
72.98
75.93
77.81
77.91
76.07
72.78
68.85
65.1
62.01
59.57
57.34
54.8
51.59
47.73
43.53
39.46
35.94
33.06
30.64
28.31
25.68
22.58
19.14
15.76
12.91
11.0
10.21
10.44
11.41
12.74
14.1
15.24
15.98
16.17
15.77
14.74
13.16
11.17
8.94
6.62
4.36
2.31
0.6
-0.67
-1.44
-1.79
-1.89
-1.96
-2.18
-2.62
-3.22
-3.86
-4.46
-5.04
-5.73
-6.73
-8.16
-10.04
-12.25
-14.55
-16.65
-18.25
-19.08
-18.91
-17.61
-15.2
-11.88
-8.05
-4.27
-1.1
1.01
1.93
1.78
0.95
-0.13
-1.08
-1.72
-2.07
-2.29
-2.56
-2.93
-3.34
-3.67
-3.86
-3.92
-4.01
-4.29
-4.86
-5.7
-6.66
-7.53
-8.22
-8.74
-9.24
-9.85
-10.67
-11.64
-12.71
-13.86
-15.18
-16.77
-18.66
-20.61
-22.2
-22.86
-22.08
-19.68
-15.8
-10.87
-5.46
-0.1
4.77
8.82
11.85
13.71
14.42
14.11
13.06
11.65
10.29
9.38
9.13
9.66
10.86
12.49
14.22
15.71
16.73
17.16
17.06
16.52
15.64
14.51
13.22
11.82
10.39
9.02
7.72
6.4
4.88
2.99
0.65
-1.95
-4.41
-6.13
-6.58
-5.47
-2.89
0.65
4.45
7.83
10.34
11.86
12.52
12.54
12.12
11.37
10.29
8.91
7.29
5.51
3.67
1.87
0.17
-1.38
-2.68
-3.67
-4.33
-4.68
-4.88
-5.1
-5.56
-6.35
-7.47
-8.73
-9.89
-10.68
-10.98
-10.83
-10.48
-10.28
-10.58
-11.61
-13.42
-15.84
-18.5
-20.91
-22.5
-22.79
-21.45
-18.47
-14.22
-9.32
-4.54
-0.54
2.3
3.95
4.65
4.66
4.2
3.38
2.23
0.89
-0.37
-1.26
-1.57
-1.35
-0.9
-0.59
-0.74
-1.42
-2.47
-3.55
-4.37
-4.79
-4.86
-4.71
-4.52
-4.35
-4.18
-3.88
-3.29
-2.32
-0.92
0.8
2.66
4.36
5.66
6.39
6.61
6.6
6.84
7.88
10.1
13.62
18.2
23.28
28.16
32.2
34.9
36.1
35.88
34.58
32.6
30.32
28.01
25.8
23.74
21.87
20.26
19.0
18.09
17.48
16.99
16.45
15.74
14.89
14.06
13.43
13.05
12.79
12.34
11.36
9.6
7.07
4.01
0.78
-2.27
-4.84
-6.72
-7.82
-8.11
-7.77
-7.28
-7.27
-8.33
-10.66
-13.88
-17.04
-19.05
-19.15
-17.28
-14.09
-10.57
-7.56
-5.38
-3.77
-2.17
-0.09
2.57
5.41
7.83
9.23
9.48
9.03
8.83
9.97
13.29
18.91
26.16
33.76
40.27
44.69
46.93
47.9
49.18
52.35
58.23
66.47
75.66
83.97
90.15
94.16
97.35
101.72
108.83
118.84
130.08
139.57
143.88
140.21
127.16
105.15
76.84
47.41
24.27
15.52
27.1
59.66
106.8
155.93
191.95
202.42
182.02
134.45
70.82
5.63
-48.08
-82.23
-94.81
-88.46
-67.84
-37.14
0.81
43.89
89.08
131.59
165.47
185.72
190.64
182.78
167.77
151.42
137.07
124.46
110.79
93.01
69.72
41.83
11.43
-19.65
-50.78
-82.17
-113.8
-144.21
-170.3
-188.13
-194.53
-188.57
-172.02
-148.87
-123.93
-101.38
-83.81
-72.1
-65.84
-64.0
-65.38
-68.78
-73.03
-76.99
-79.68
-80.56
-79.58
-77.3
-74.72
-73.0
-73.2
-76.03
-81.76
-90.2
-100.72
-112.45
-124.4
-135.59
-145.18
-152.45
-156.87
-157.94
-155.26
-148.65
-138.31
-124.96
-109.77
-94.23
-79.77
-67.54
-58.11
-51.54
-47.43
-45.14
-43.97
-43.25
-42.36
-40.63
-37.37
-31.84
-23.54
-12.43
0.85
15.08
28.78
40.65
49.91
56.44
60.6
62.9
63.76
63.51
62.42
60.9
59.52
58.85
59.29
60.91
63.41
66.4
69.53
72.79
76.38
80.53
84.98
88.78
90.27
87.45
78.54
62.49
39.3
10.13
-22.85
-56.86
-88.93
-116.54
-138.05
-152.87
-161.34
-164.37
-162.96
-157.96
-150.07
-140.03
-128.81
-117.58
-107.52
-99.51
-93.88
-90.31
-87.92
-85.46
-81.56
-75.02
-65.15
-51.81
-35.57
-17.53
0.76
17.7
31.83
42.17
48.39
50.88
50.5
48.37
45.48
42.52
39.81
37.48
35.54
34.01
32.87
31.99
31.14
30.09
28.72
27.11
25.45
23.9
22.45
20.84
18.68
15.69
11.78
7.15
2.19
-2.76
-7.49
-12.0
-16.38
-20.58
-24.44
-27.68
-30.1
-31.66
-32.52
-33.0
-33.44
-34.13
-35.29
-37.1
-39.69
-43.03
-46.8
-50.26
-52.38
-52.11
-48.8
-42.48
-33.98
-24.64
-15.85
-8.64
-3.45
-0.1
1.81
2.75
2.98
2.6
1.72
0.48
-0.85
-2.03
-2.82
-3.15
-3.08
-2.73
-2.21
-1.54
-0.75
0.18
1.16
2.03
2.55
2.5
1.75
0.33
-1.57
-3.62
-5.5
-6.99
-8.02
-8.72
-9.28
-9.87
-10.55
-11.23
-11.77
-12.1
-12.26
-12.45
-13.01
-14.32
-16.57
-19.67
-23.11
-26.01
-27.3
-26.12
-22.06
-15.4
-6.95
2.15
10.87
18.52
24.84
29.88
33.78
36.61
38.34
38.93
38.48
37.27
35.81
34.63
34.12
34.33
35.02
35.65
35.74
35.05
33.64
32.0
30.86
31.0
33.15
37.72
44.79
54.0
64.61
75.53
85.47
93.13
97.39
97.5
93.19
84.78
72.95
58.75
43.3
27.57
12.27
-2.32
-16.32
-29.97
-43.4
-56.28
-67.76
-76.71
-82.07
-83.47
-81.39
-77.15
-72.5
-69.07
-67.97
-69.65
-73.83
-79.75
-86.35
-92.48
-97.1
-99.5
-99.37
-96.86
-92.44
-86.7
-80.11
-72.87
-64.95
-56.16
-46.4
-35.81
-24.84
-14.07
-4.04
5.0
13.19
20.95
28.65
36.37
43.77
50.27
55.33
58.68
60.51
61.19
61.18
60.72
59.88
58.68
57.22
55.71
54.28
52.79
50.68
47.19
41.64
33.91
24.69
15.39
7.72
3.15
2.39
5.26
10.83
17.8
24.93
31.36
36.66
40.78
43.93
46.31
48.11
49.4
50.18
50.41
50.1
49.27
47.97
46.23
44.07
41.43
38.28
34.51
30.01
24.67
18.43
11.38
3.79
-3.87
-11.04
-17.21
-22.08
-25.67
-28.23
-30.2
-31.94
-33.61
-35.18
-36.47
-37.33
-37.84
-38.28
-39.02
-40.27
-41.84
-43.09
-43.07
-40.74
-35.37
-26.78
-15.48
-2.49
10.75
22.81
32.43
38.82
41.68
41.26
38.15
33.11
26.96
20.45
14.27
9.05
5.28
3.21
2.77
3.58
4.99
6.39
7.29
7.44
6.79
5.41
3.39
0.79
-2.3
-5.74
-9.38
-13.07
-16.7
-20.19
-23.39
-26.12
-28.12
-29.18
-29.34
-28.92
-28.51
-28.82
-30.44
-33.68
-38.46
-44.29
-50.29
-55.32
-58.19
-57.92
-54.06
-46.79
-36.99
-25.97
-15.1
-5.49
2.21
7.78
11.28
12.83
12.6
10.72
7.45
3.31
-1.07
-4.95
-7.76
-9.3
-9.78
-9.74
-9.69
-9.95
-10.49
-10.97
-11.07
-10.66
-9.99
-9.57
-10.15
-12.6
-17.79
-26.4
-38.54
-53.34
-68.85
-82.32
-90.97
-92.87
-87.67
-76.58
-61.92
-46.27
-31.64
-19.13
-8.86
-0.24
7.66
15.86
25.21
36.28
49.13
63.41
78.31
92.76
105.64
115.96
123.05
126.65
126.97
124.52
120.15
114.76
109.32
104.64
101.35
99.67
99.29
99.34
98.55
95.63
89.68
80.58
69.01
56.28
43.8
32.63
23.17
15.13
7.84
0.54
-7.33
-15.95
-25.22
-34.85
-44.5
-53.84
-62.61
-70.56
-77.55
-83.63
-89.04
-94.14
-99.26
-104.38
-109.01
-112.15
-112.69
-109.86
-103.61
-94.8
-84.93
-75.63
-68.2
-63.24
-60.74
-60.26
-61.11
-62.54
-63.73
-63.8
-61.97
-57.85
-51.62
-44.01
-36.09
-28.73
-22.25
-16.36
-10.36
-3.78
3.27
9.97
15.11
17.61
17.0
13.58
8.21
1.98
-4.27
-10.06
-15.34
-20.24
-24.92
-29.49
-34.03
-38.56
-43.11
-47.7
-52.31
-56.92
-61.46
-65.76
-69.53
-72.33
-73.54
-72.49
-68.6
-61.57
-51.54
-39.17
-25.42
-11.44
1.8
13.65
23.84
32.34
39.12
44.05
46.97
47.8
46.79
44.61
42.17
40.31
39.54
39.83
40.69
41.45
41.53
40.77
39.36
37.88
36.99
37.24
38.9
41.85
45.63
49.55
52.9
55.1
55.88
55.28
53.66
51.53
49.41
47.69
46.5
45.72
44.99
43.97
42.67
41.62
42.03
45.42
53.27
66.3
84.16
105.41
127.92
149.41
167.96
182.31
191.74
196.04
195.28
189.82
180.35
167.84
153.42
138.21
123.08
108.63
95.16
82.74
71.28
60.58
50.37
40.4
30.53
20.82
11.46
2.61
-5.69
-13.74
-22.01
-31.0
-40.93
-51.62
-62.53
-73.01
-82.47
-90.66
-97.64
-103.74
-109.37
-114.85
-120.2
-124.98
-128.27
-128.79
-125.32
-117.1
-104.26
-87.9
-69.8
-51.89
-35.73
-22.13
-11.23
-2.72
3.85
8.82
12.39
14.78
16.33
17.56
19.05
21.28
24.47
28.54
33.12
37.71
41.8
44.99
47.02
47.81
47.37
45.78
43.14
39.56
35.21
30.39
25.48
20.93
17.07
14.04
11.74
9.84
7.87
5.33
1.81
-3.11
-9.77
-18.25
-28.28
-39.01
-49.04
-56.63
-60.14
-58.53
-51.77
-40.88
-27.64
-14.12
-2.08
7.34
13.77
17.46
19.06
19.39
19.22
19.11
19.34
19.88
20.44
20.71
20.44
19.57
18.21
16.53
14.64
12.55
10.22
7.66
4.98
2.37
-0.04
-2.22
-4.3
-6.56
-9.25
-12.51
-16.24
-20.19
-24.0
-27.36
-30.13
-32.41
-34.58
-37.32
-41.41
-47.58
-56.12
-66.64
-77.97
-88.19
-95.13
-96.91
-92.48
-81.95
-66.53
-48.26
-29.33
-11.69
3.31
15.0
23.26
28.31
30.58
30.65
29.18
26.95
24.67
22.93
21.99
21.81
22.07
22.33
22.18
21.37
19.85
17.71
15.16
12.44
9.65
6.78
3.62
-0.1
-4.58
-9.87
-15.69
-21.58
-26.96
-31.33
-34.39
-36.12
-36.81
-36.96
-37.3
-38.65
-41.69
-46.76
-53.6
-61.21
-68.03
-72.38
-73.02
-69.56
-62.57
-53.34
-43.39
-34.04
-26.16
-20.26
-16.68
-15.66
-17.32
-21.46
-27.4
-34.0
-39.84
-43.62
-44.53
-42.44
-37.79
-31.45
-24.33
-17.1
-10.19
-3.82
1.79
6.26
9.11
9.94
8.71
5.76
1.87
-2.1
-5.45
-7.94
-9.86
-11.82
-14.59
-18.78
-24.66
-32.08
-40.39
-48.59
-55.51
-59.97
-61.13
-58.57
-52.5
-43.6
-32.93
-21.56
-10.37
0.09
9.57
17.98
25.2
31.02
35.22
37.76
38.88
39.23
39.58
40.55
42.42
44.95
47.6
49.76
51.03
51.29
50.63
49.26
47.33
44.86
41.78
38.0
33.5
28.37
22.88
17.41
12.33
7.91
4.16
0.79
-2.69
-6.82
-12.0
-18.24
-25.12
-31.72
-36.82
-39.11
-37.59
-31.83
-22.15
-9.65
4.15
17.66
29.69
39.6
47.34
53.27
57.81
61.23
63.65
65.07
65.56
65.36
64.88
64.63
65.02
66.22
68.05
70.07
71.65
72.23
71.46
69.35
66.19
62.55
59.05
56.18
54.21
53.06
52.33
51.35
49.35
45.63
39.91
32.53
24.55
17.55
13.02
11.8
13.63
17.19
20.66
22.68
23.1
23.22
25.28
31.57
43.35
60.46
81.44
104.19
126.77
147.85
166.64
182.7
195.66
205.3
211.99
216.95
222.14
229.56
240.2
253.11
265.28
272.48
270.7
257.77
234.12
202.58
167.09
131.22
96.9
64.16
31.57
-2.92
-41.14
-84.17
-131.92
-182.89
-234.05
-281.25
-320.18
-347.78
-363.23
-368.04
-364.91
-356.01
-341.68
-320.33
-289.69
-248.54
-198.17
-142.6
-87.52
-38.7
-0.4
25.44
39.37
43.91
42.89
40.36
39.5
41.84
46.96
53.06
57.94
60.08
58.91
54.75
48.23
40.01
30.86
21.97
15.09
12.19
14.6
22.2
33.02
43.81
51.17
52.61
47.28
35.94
20.53
3.5
-12.72
-26.19
-35.93
-42.21
-46.86
-52.96
-64.1
-83.05
-110.65
-145.12
-182.39
-217.1
-243.98
-258.95
-259.77
-246.1
-219.41
-182.67
-140.03
-96.24
-55.89
-22.42
2.68
19.91
31.19
38.73
44.21
48.32
51.0
52.05
51.53
49.92
47.93
46.15
44.85
44.04
43.58
43.33
43.22
43.13
42.82
41.93
40.05
36.92
32.51
27.1
21.15
15.18
9.59
4.48
-0.3
-5.1
-10.31
-16.19
-22.84
-30.25
-38.28
-46.76
-55.34
-63.43
-70.27
-74.84
-76.13
-73.29
-65.88
-54.03
-38.57
-20.99
-3.15
13.13
26.53
36.56
43.52
48.2
51.49
53.93
55.77
57.11
58.12
59.16
60.51
62.16
63.65
64.23
63.23
60.43
56.25
51.43
46.62
41.99
37.21
31.71
25.17
17.73
10.0
2.64
-3.91
-9.65
-14.9
-20.0
-25.04
-29.79
-33.76
-36.5
-37.7
-37.26
-35.14
-31.34
-25.84
-18.74
-10.38
-1.27
7.97
16.79
24.93
32.41
39.39
45.91
51.81
56.6
59.67
60.47
58.71
54.38
47.72
39.22
29.49
19.18
8.93
-0.69
-9.27
-16.55
-22.45
-27.0
-30.45
-33.12
-35.48
-37.9
-40.52
-43.01
-44.6
-44.3
-41.37
-35.67
-27.88
-19.33
-11.52
-5.54
-1.78
0.01
0.46
0.22
-0.27
-0.65
-0.5
0.59
2.91
6.32
10.14
13.28
14.69
13.76
10.6
5.88
0.53
-4.67
-9.35
-13.51
-17.39
-21.23
-25.15
-29.1
-32.93
-36.38
-39.19
-41.03
-41.55
-40.4
-37.27
-32.04
-24.87
-16.28
-7.07
1.86
9.74
16.17
21.24
25.38
29.13
32.78
36.14
38.56
39.19
37.36
32.96
26.51
18.98
11.54
5.25
0.93
-0.97
-0.39
2.27
6.17
10.23
13.38
14.91
14.64
12.82
9.88
6.24
2.22
-1.83
-5.51
-8.42
-10.41
-11.73
-12.97
-14.7
-17.13
-19.98
-22.6
-24.47
-25.47
-25.99
-26.56
-27.46
-28.47
-28.91
-28.05
-25.41
-21.0
-15.25
-8.85
-2.49
3.16
7.63
10.65
12.28
12.82
12.61
11.74
9.84
6.27
0.51
-7.26
-15.96
-23.81
-29.05
-30.68
-28.85
-24.91
-20.71
-17.98
-17.6
-19.34
-21.89
-23.39
-22.17
-17.55
-10.34
-2.64
2.8
3.64
-1.32
-11.62
-25.23
-39.04
-49.76
-54.75
-52.93
-45.35
-35.25
-27.31
-26.23
-34.67
-51.48
-71.41
-86.68
-90.17
-78.67
-54.7
-25.79
-1.29
11.65
11.08
0.51
-13.48
-24.79
-30.58
-31.65
-30.71
-30.05
-29.86
-28.3
-22.89
-12.26
2.88
20.04
36.19
49.19
58.64
65.66
71.9
78.3
84.59
89.4
91.16
89.19
84.35
78.98
75.75
76.28
80.3
85.67
89.58
89.88
86.17
79.84
73.29
68.67
66.96
67.63
69.11
69.66
68.34
65.48
62.46
60.99
62.06
65.35
69.23
71.6
71.0
67.55
63.04
60.09
60.77
65.59
73.42
82.29
90.57
97.59
103.58
108.97
113.63
116.69
117.0
114.04
108.34
101.4
94.94
90.03
86.7
84.17
81.56
78.47
75.08
71.74
68.51
64.84
59.9
53.12
44.73
35.69
27.18
19.8
13.13
5.99
-2.92
-14.21
-27.45
-41.36
-54.49
-65.86
-75.43
-84.0
-92.78
-102.97
-115.2
-129.44
-144.95
-160.51
-174.7
-186.26
-194.37
-198.8
-199.84
-198.19
-194.57
-189.56
-183.51
-176.5
-168.56
-159.76
-150.35
-140.7
-131.17
-122.01
-113.31
-105.05
-97.22
-90.0
-83.73
-78.82
-75.45
-73.44
-72.13
-70.7
-68.49
-65.4
-61.92
-58.97
-57.38
-57.54
-59.24
-61.8
-64.47
-66.85
-69.03
-71.58
-75.09
-79.77
-85.16
-90.15
-93.36
-93.6
-90.32
-83.84
-75.17
-65.76
-57.07
-50.23
-45.96
-44.46
-45.48
-48.33
-51.95
-54.99
-55.85
-52.92
-44.59
-29.38
-6.12
25.79
65.85
111.75
159.16
202.04
234.06
250.41
249.46
233.59
208.62
182.09
160.85
149.03
147.07
152.24
160.12
166.57
169.01
166.99
161.73
155.2
149.08
144.26
140.74
138.15
136.19
134.92
134.61
135.43
137.29
139.93
143.16
147.07
152.04
158.36
165.86
173.61
180.14
183.96
184.26
181.39
176.84
172.77
171.19
173.16
178.24
184.38
188.5
187.48
179.14
163.05
140.45
113.53
84.31
53.79
21.64
-13.35
-52.33
-95.52
-141.49
-187.26
-228.88
-262.47
-285.26
-296.38
-296.93
-289.51
-277.38
-263.5
-249.95
-237.76
-227.14
-217.75
-209.06
-200.49
-191.7
-182.65
-173.61
-165.03
-157.25
-150.27
-143.85
-137.61
-131.21
-124.33
-116.72
-108.12
-98.39
-87.72
-76.79
-66.68
-58.58
-53.26
-50.65
-49.75
-48.97
-46.7
-42.06
-35.2
-27.31
-20.12
-15.3
-13.77
-15.4
-18.99
-22.66
-24.38
-22.52
-16.13
-4.98
10.55
29.58
50.93
73.13
94.53
113.42
128.29
138.08
142.4
141.38
135.64
125.92
113.05
97.97
81.92
66.47
53.25
43.41
37.15
33.48
30.58
26.49
19.99
10.95
0.15
-11.43
-23.22
-35.35
-48.3
-62.28
-76.74
-90.35
-101.5
-108.96
-112.39
-112.16
-108.96
-103.2
-94.79
-83.34
-68.71
-51.47
-32.97
-15.1
0.35
12.23
20.31
25.26
28.21
30.31
32.32
34.46
36.49
37.97
38.46
37.64
35.4
31.8
27.1
21.75
16.37
11.57
7.83
5.29
3.72
2.72
1.83
0.71
-0.83
-2.92
-5.69
-9.33
-13.94
-19.4
-25.25
-30.83
-35.38
-38.22
-39.0
-37.78
-34.97
-31.24
-27.27
-23.56
-20.25
-17.07
-13.59
-9.46
-4.6
0.65
5.72
10.03
13.25
15.38
16.62
17.3
17.64
17.71
17.52
17.09
16.54
16.02
15.71
15.62
15.66
15.56
15.01
13.79
11.92
9.61
7.22
5.0
3.04
1.06
-1.4
-4.89
-9.81
-16.34
-24.37
-33.59
-43.5
-53.5
-62.9
-71.02
-77.29
-81.3
-82.88
-82.08
-79.07
-74.09
-67.32
-58.81
-48.54
-36.6
-23.42
-9.95
2.34
11.91
17.59
19.11
17.2
13.34
9.1
5.65
3.45
2.34
1.93
1.95
2.37
3.31
4.88
7.01
9.45
11.88
14.04
15.86
17.37
18.73
20.03
21.31
22.5
23.46
24.03
24.05
23.49
22.38
20.88
19.29
18.0
17.47
18.03
19.84
22.79
26.55
30.67
34.76
38.52
41.83
44.59
46.75
48.28
49.13
49.37
49.13
48.59
47.92
47.21
46.45
45.6
44.61
43.52
42.39
41.29
40.16
38.78
36.74
33.48
28.54
21.69
13.03
3.05
-7.59
-18.12
-27.89
-36.27
-42.71
-46.78
-48.3
-47.46
-44.97
-41.93
-39.48
-38.4
-38.75
-39.86
-40.64
-40.04
-37.49
-33.05
-27.34
-21.18
-15.23
-9.83
-4.97
-0.43
3.95
8.1
11.74
14.43
15.7
15.22
12.77
8.25
1.75
-6.23
-14.66
-22.06
-26.82
-27.83
-24.97
-19.11
-11.77
-4.46
1.85
6.88
10.8
13.84
15.94
16.82
16.08
13.58
9.43
4.0
-2.19
-8.57
-14.61
-19.88
-24.11
-27.33
-29.72
-31.55
-33.05
-34.35
-35.43
-36.05
-35.82
-34.13
-30.22
-23.34
-13.05
0.53
16.44
33.02
48.27
60.33
68.11
71.44
70.97
67.75
62.71
56.47
49.28
41.28
32.71
23.96
15.59
8.19
2.35
-1.41
-2.7
-1.38
2.38
8.11
15.06
22.33
28.87
33.69
35.91
35.09
31.31
25.28
18.08
10.86
4.41
-1.06
-5.8
-10.23
-14.61
-18.97
-22.99
-26.17
-27.85
-27.26
-23.68
-16.61
-6.24
6.39
19.31
30.13
36.81
38.56
36.33
32.57
30.24
31.49
36.44
43.0
47.79
47.73
41.65
30.84
18.52
8.25
2.41
1.31
3.51
6.9
9.97
12.3
14.46
17.16
20.58
24.32
27.96
31.67
36.43
43.52
53.79
67.06
82.07
97.16
111.07
123.47
134.75
145.33
154.98
162.76
167.64
169.38
169.22
169.82
174.31
185.02
202.41
224.76
248.83
271.12
288.97
301.13
307.55
308.54
304.13
294.11
278.42
257.76
233.94
209.49
186.81
167.29
150.85
136.17
121.51
105.51
87.74
68.62
49.07
29.96
11.62
-6.28
-24.52
-44.03
-65.46
-89.08
-114.9
-142.83
-172.65
-203.7
-234.59
-263.25
-287.39
-305.37
-316.74
-322.24
-323.27
-321.1
-316.45
-309.61
-301.03
-291.61
-282.76
-275.81
-271.35
-268.86
-267.0
-264.16
-259.17
-251.65
-241.99
-231.09
-219.95
-209.4
-199.95
-191.78
-184.97
-179.64
-176.11
-174.78
-175.89
-179.29
-184.18
-189.22
-192.74
-193.08
-189.03
-180.14
-166.92
-150.82
-133.96
-118.59
-106.43
-98.21
-93.48
-90.93
-88.86
-85.79
-80.86
-73.89
-65.29
-55.81
-46.4
-38.04
-31.64
-27.82
-26.62
-27.34
-28.52
-28.19
-24.34
-15.66
-1.84
16.17
36.48
56.8
75.09
90.03
101.13
108.6
112.94
114.68
114.17
111.68
107.53
102.26
96.62
91.48
87.57
85.23
84.38
84.59
85.3
86.04
86.45
86.3
85.28
82.97
78.91
72.86
65.0
56.03
46.99
38.8
31.99
26.52
21.88
17.38
12.36
6.39
-0.74
-9.05
-18.28
-27.85
-36.82
-44.04
-48.36
-48.95
-45.55
-38.63
-29.26
-18.88
-8.94
-0.64
5.43
9.3
11.46
12.68
13.64
14.73
16.02
17.39
18.69
19.99
21.41
23.2
25.51
28.26
31.23
34.07
36.38
37.83
38.22
37.52
35.84
33.4
30.41
27.03
23.33
19.38
15.37
11.62
8.56
6.49
5.47
5.17
4.95
4.11
2.0
-1.73
-6.99
-13.29
-19.68
-24.92
-27.71
-27.01
-22.41
-14.34
-3.9
7.39
18.16
27.54
35.36
41.97
47.96
53.84
59.88
66.13
72.51
78.94
85.27
91.31
96.78
101.36
104.91
107.51
109.46
111.11
112.59
113.84
114.59
114.64
113.93
112.52
110.47
107.61
103.58
97.95
90.61
81.94
72.75
64.05
56.57
50.5
45.47
40.75
35.48
28.9
20.46
9.86
-2.93
-17.61
-33.34
-48.75
-62.07
-71.54
-75.81
-74.42
-67.9
-57.53
-44.98
-31.76
-19.0
-7.36
2.89
11.57
18.5
23.41
26.12
26.69
25.59
23.67
22.13
22.2
24.83
30.4
38.5
48.06
57.63
65.87
71.94
75.7
77.67
78.58
78.99
78.96
77.93
75.01
69.4
60.75
49.45
36.53
23.42
11.59
2.17
-4.38
-8.34
-10.72
-12.98
-16.6
-22.49
-30.61
-39.82
-48.29
-54.09
-55.93
-53.56
-47.78
-40.06
-31.93
-24.49
-18.34
-13.6
-10.35
-8.85
-9.6
-13.15
-19.82
-29.32
-40.68
-52.47
-63.17
-71.65
-77.44
-80.79
-82.42
-83.24
-84.01
-85.12
-86.53
-87.66
-87.69
-85.76
-81.35
-74.55
-66.1
-57.16
-48.86
-42.02
-36.85
-33.19
-30.75
-29.31
-28.87
-29.47
-31.0
-33.18
-35.68
-38.24
-40.83
-43.56
-46.54
-49.7
-52.75
-55.39
-57.5
-59.39
-61.82
-65.82
-72.16
-80.85
-90.66
-99.17
-103.28
-100.17
-88.38
-68.4
-42.73
-15.14
10.45
31.06
45.29
53.25
56.03
55.15
51.98
47.67
43.07
38.85
35.42
32.86
30.87
28.93
26.45
23.14
19.03
14.48
9.91
5.45
0.88
-4.28
-10.48
-17.85
-25.92
-33.75
-40.2
-44.41
-46.36
-47.01
-48.36
-52.89
-62.7
-78.67
-99.6
-122.12
-141.38
-152.37
-151.51
-137.82
-113.09
-81.16
-46.53
-13.13
16.43
40.86
59.68
72.76
80.09
81.9
78.96
72.59
64.51
56.36
49.35
43.93
39.85
36.39
32.79
28.56
23.73
18.78
14.41
11.26
9.62
9.39
10.22
11.76
13.82
16.35
19.27
22.29
24.89
26.48
26.62
25.28
22.81
19.8
16.76
14.0
11.61
9.49
7.39
4.96
1.77
-2.6
-8.23
-14.71
-21.02
-25.83
-28.04
-27.3
-24.22
-20.15
-16.65
-14.81
-14.88
-16.27
-17.94
-18.85
-18.39
-16.5
-13.54
-9.95
-5.95
-1.36
4.34
11.71
21.03
32.11
44.24
56.49
67.85
77.47
84.6
88.54
88.62
84.37
75.74
63.47
49.15
35.08
23.76
17.2
16.4
21.05
29.69
40.2
50.43
58.74
64.25
66.74
66.42
63.66
58.86
52.37
44.63
36.11
27.42
19.19
12.03
6.42
2.5
0.13
-1.06
-1.49
-1.31
-0.38
1.65
4.97
9.28
13.81
17.46
19.34
19.12
17.06
13.88
10.31
6.8
3.32
-0.56
-5.43
-11.78
-19.59
-28.09
-35.66
-40.09
-39.21
-31.61
-17.41
1.72
22.81
42.48
57.79
66.95
69.56
66.46
59.36
50.35
41.52
34.67
31.19
31.91
37.13
46.38
58.47
71.58
83.57
92.6
97.64
98.89
97.83
96.75
98.08
103.66
114.11
128.46
144.21
157.71
164.94
162.59
149.0
124.62
91.86
54.16
14.75
-24.32
-62.84
-102.38
-145.67
-195.32
-252.07
-313.36
-372.89
-421.82
-451.26
-455.33
-433.31
-389.82
-333.14
-272.36
-214.87
-165.19
-125.03
-94.21
-71.5
-55.14
-43.02
-33.12
-23.99
-15.36
-7.98
-3.2
-1.94
-4.06
-8.16
-12.04
-13.42
-10.69
-3.36
7.92
21.59
35.71
48.47
58.54
65.22
68.16
66.98
60.87
48.58
28.52
-0.6
-39.11
-85.7
-136.98
-187.76
-231.68
-262.74
-276.75
-272.63
-252.5
-220.83
-182.74
-142.21
-101.3
-60.62
-20.46
18.0
52.26
79.3
96.91
104.89
105.17
101.06
95.66
90.76
86.38
81.33
74.32
64.92
53.76
42.22
31.56
22.52
15.24
9.72
6.26
5.66
9.0
16.95
29.31
44.85
61.52
77.16
90.05
99.28
104.73
106.79
105.92
102.47
96.67
88.81
79.4
69.21
59.13
49.96
42.19
35.93
30.93
26.74
22.85
18.83
14.33
9.17
3.26
-3.45
-10.92
-18.98
-27.29
-35.31
-42.33
-47.75
-51.24
-52.97
-53.52
-53.76
-54.42
-55.81
-57.67
-59.29
-59.68
-57.92
-53.43
-46.13
-36.46
-25.27
-13.62
-2.55
7.08
14.69
19.96
22.82
23.43
22.14
19.51
16.19
12.86
10.07
8.13
7.1
6.86
7.21
8.0
9.12
10.48
11.92
13.24
14.23
14.77
14.84
14.53
13.96
13.18
12.15
10.76
9.0
6.92
4.64
2.34
0.12
-1.82
-3.19
-3.39
-1.59
3.15
11.55
23.84
39.53
57.47
76.09
93.71
109.0
121.22
130.34
137.08
142.63
148.38
155.46
164.47
175.29
187.07
198.39
207.46
212.44
211.84
204.87
191.73
173.69
152.74
131.08
110.58
92.53
77.9
67.85
64.07
68.49
82.36
105.01
133.12
160.99
181.95
190.38
183.14
160.25
124.29
79.26
29.42
-21.63
-71.48
-119.21
-165.23
-210.65
-256.01
-300.04
-339.06
-367.73
-380.8
-375.23
-351.38
-312.85
-265.22
-214.25
-164.8
-120.38
-83.36
-55.16
-36.15
-25.43
-20.88
-19.64
-18.92
-16.78
-12.61
-6.95
-1.03
3.85
6.86
7.94
7.79
7.52
8.18
10.27
13.5
16.98
19.64
20.66
19.86
17.66
14.82
12.05
9.68
7.59
5.3
2.17
-2.17
-7.78
-14.18
-20.54
-25.77
-28.84
-28.96
-25.79
-19.48
-10.64
-0.18
10.91
21.63
31.18
39.02
44.85
48.69
50.69
51.19
50.6
49.29
47.62
45.8
43.97
42.22
40.66
39.41
38.63
38.39
38.64
39.17
39.66
39.82
39.45
38.55
37.19
35.45
33.37
30.93
28.16
25.19
22.22
19.49
17.15
15.24
13.66
12.26
10.88
9.43
7.82
5.92
3.61
0.81
-2.31
-5.29
-7.4
-7.72
-5.52
-0.38
7.53
17.57
28.79
40.18
50.96
60.74
69.49
77.47
85.08
92.61
100.16
107.68
115.04
122.23
129.41
136.82
144.62
152.73
160.79
168.29
174.65
179.44
182.46
183.71
183.44
182.25
181.2
181.75
185.38
192.88
203.69
215.66
225.45
229.63
225.77
213.38
193.81
169.57
143.19
116.42
89.89
63.44
36.54
8.62
-20.93
-52.67
-86.9
-123.17
-159.86
-194.14
-222.56
-242.08
-251.09
-249.97
-240.88
-227.06
-211.93
-198.33
-188.06
-181.88
-179.57
-180.14
-182.19
-184.26
-185.2
-184.48
-182.27
-179.19
-175.87
-172.2
-166.85
-157.28
-140.46
-114.29
-79.04
-38.08
2.69
36.79
59.64
70.41
72.05
69.56
67.39
67.22
67.49
64.7
55.35
37.38
10.51
-24.06
-63.92
-105.32
-142.83
-169.89
-180.61
-172.27
-147.21
-112.52
-77.42
-49.46
-31.77
-22.71
-17.82
-12.79
-5.42
4.25
15.2
26.87
39.61
53.97
69.67
85.31
98.86
108.74
114.78
118.21
120.74
123.57
126.76
129.26
129.53
126.23
118.7
107.2
92.76
76.9
61.27
47.19
35.45
26.09
18.6
12.26
6.44
0.76
-4.9
-10.6
-16.32
-22.06
-27.81
-33.57
-39.45
-45.68
-52.52
-60.1
-68.22
-76.19
-83.04
-87.74
-89.57
-88.28
-84.14
-77.91
-70.71
-63.73
-58.1
-54.59
-53.42
-54.25
-56.29
-58.61
-60.4
-61.22
-60.99
-59.85
-57.98
-55.46
-52.29
-48.42
-43.87
-38.72
-33.16
-27.42
-21.76
-16.55
-12.26
-9.36
-8.24
-8.92
-11.0
-13.65
-15.87
-16.88
-16.37
-14.65
-12.36
-10.2
-8.61
-7.63
-6.99
-6.38
-5.57
-4.45
-3.02
-1.36
0.41
2.07
3.33
3.9
3.61
2.46
0.59
-1.74
-4.31
-6.88
-9.2
-11.04
-12.18
-12.65
-12.77
-13.15
-14.44
-16.98
-20.53
-24.23
-26.86
-27.35
-25.2
-20.62
-14.52
-8.07
-2.28
2.27
5.37
7.04
7.24
5.88
2.91
-1.49
-6.76
-12.06
-16.49
-19.4
-20.55
-20.08
-18.45
-16.2
-13.91
-12.12
-11.35
-12.0
-14.24
-17.88
-22.37
-26.84
-30.37
-32.3
-32.36
-30.78
-28.19
-25.36
-23.01
-21.67
-21.66
-23.13
-26.12
-30.47
-35.85
-41.63
-47.1
-51.64
-54.98
-57.32
-59.22
-61.36
-64.12
-67.39
-70.53
-72.58
-72.6
-69.93
-64.29
-55.88
-45.32
-33.47
-21.4
-10.18
-0.7
6.46
11.16
13.66
14.5
14.33
13.73
13.11
12.68
12.42
12.14
11.62
10.58
8.87
6.47
3.51
0.25
-2.93
-5.55
-7.16
-7.41
-6.19
-3.66
-0.18
3.82
8.05
12.38
16.77
21.17
25.32
28.79
31.08
31.83
30.97
28.7
25.44
21.58
17.36
12.84
7.98
2.75
-2.81
-8.52
-14.12
-19.29
-23.68
-26.85
-28.35
-27.74
-24.84
-19.9
-13.65
-7.19
-1.73
1.77
2.8
1.31
-2.3
-7.48
-13.53
-19.71
-25.25
-29.39
-31.41
-30.89
-27.73
-22.29
-15.24
-7.39
0.47
7.79
14.24
19.61
23.7
26.28
27.15
26.3
23.99
20.68
16.89
12.99
9.12
5.23
1.2
-3.0
-7.38
-11.89
-16.59
-21.54
-26.71
-31.94
-36.8
-40.8
-43.48
-44.7
-44.64
-43.71
-42.34
-40.72
-38.68
-35.75
-31.32
-24.91
-16.36
-5.84
6.14
18.88
31.59
43.48
53.82
62.03
67.7
70.68
71.05
69.08
65.1
59.57
53.04
46.16
39.71
34.45
31.0
29.66
30.33
32.51
35.44
38.27
40.26
40.93
40.16
38.2
35.53
32.77
30.42
28.73
27.65
26.92
26.29
25.66
25.13
24.83
24.79
24.73
24.17
22.63
19.78
15.6
10.21
3.75
-3.7
-12.04
-20.9
-29.57
-37.08
-42.47
-45.06
-44.6
-41.04
-34.37
-24.51
-11.5
4.23
21.71
39.42
55.54
68.28
76.15
78.3
74.76
66.55
55.71
44.81
36.18
31.23
29.77
30.31
30.69
29.08
24.6
17.61
9.19
0.59
-7.32
-14.27
-20.46
-26.21
-31.64
-36.57
-40.69
-43.76
-45.91
-47.57
-49.3
-51.45
-53.97
-56.51
-58.68
-60.21
-60.95
-60.75
-59.13
-55.36
-48.66
-38.74
-26.01
-11.62
2.97
16.42
27.95
37.33
44.74
50.5
54.86
57.79
58.96
57.84
53.82
46.65
36.69
25.12
13.67
4.21
-2.01
-4.65
-4.27
-1.98
1.21
4.63
7.99
11.15
13.8
15.41
15.42
13.53
9.9
5.17
0.19
-4.34
-8.02
-10.89
-13.22
-15.41
-17.85
-20.92
-24.92
-30.1
-36.33
-42.95
-48.73
-52.08
-51.47
-45.97
-35.61
-21.34
-4.86
11.92
27.26
39.99
49.58
56.09
60.02
62.07
62.97
63.23
63.13
62.69
61.75
60.14
57.77
54.79
51.45
48.03
44.7
41.4
37.84
33.71
28.79
23.07
16.78
10.25
3.83
-2.24
-7.87
-13.13
-18.18
-23.28
-28.69
-34.58
-40.93
-47.52
-53.86
-59.39
-63.54
-66.05
-66.96
-66.66
-65.62
-64.1
-61.9
-58.34
-52.52
-43.77
-32.11
-18.32
-3.81
9.95
21.86
31.43
38.73
44.06
47.74
49.91
50.59
49.83
47.85
45.03
41.87
38.98
36.87
35.81
35.78
36.38
36.99
36.94
35.81
33.54
30.34
26.48
22.09
16.98
10.8
3.35
-5.24
-14.45
-23.52
-31.75
-38.81
-44.76
-50.01
-55.03
-60.15
-65.53
-71.23
-77.36
-84.17
-91.85
-100.26
-108.69
-115.81
-120.05
-120.04
-115.28
-106.32
-94.66
-82.21
-70.73
-61.41
-54.72
-50.64
-48.97
-49.45
-51.84
-55.72
-60.2
-64.0
-65.61
-63.94
-58.7
-50.71
-41.66
-33.52
-27.8
-25.07
-24.9
-26.28
-28.14
-29.93
-31.61
-33.63
-36.44
-40.34
-45.31
-51.2
-57.81
-64.99
-72.7
-80.89
-89.47
-98.33
-107.28
-116.1
-124.55
-132.3
-138.91
-143.82
-146.37
-145.78
-141.23
-132.02
-117.77
-98.66
-75.56
-50.07
-24.18
0.13
21.4
38.92
52.73
63.38
71.47
77.46
81.57
83.93
84.83
84.77
84.39
84.16
84.18
84.15
83.51
81.83
79.09
75.72
72.46
70.02
68.66
68.08
67.57
66.37
64.14
61.12
58.23
56.65
57.38
60.78
66.4
73.03
79.11
83.28
84.91
84.48
83.48
84.04
88.24
97.3
111.23
128.87
148.44
168.42
188.22
208.56
231.14
257.78
289.31
324.48
359.56
389.07
407.32
410.51
398.09
373.01
340.39
305.39
271.17
238.11
204.11
165.79
119.92
64.67
0.68
-68.06
-134.21
-188.25
-221.15
-227.84
-209.67
-174.53
-133.94
-98.49
-73.83
-59.38
-50.19
-40.49
-26.75
-8.6
12.23
33.66
54.36
73.48
89.86
101.55
106.38
103.08
92.35
76.76
59.71
43.96
30.51
18.55
6.38
-7.49
-23.33
-39.93
-55.07
-66.39
-72.3
-72.55
-68.19
-60.87
-52.17
-42.93
-33.18
-22.62
-11.18
0.57
11.36
19.52
23.41
21.83
14.48
2.27
-12.73
-27.66
-39.81
-47.63
-51.41
-53.26
-56.14
-62.53
-73.18
-86.84
-100.92
-113.01
-122.12
-129.17
-136.32
-145.62
-157.8
-171.82
-185.47
-196.62
-204.32
-209.14
-212.38
-214.94
-216.23
-214.14
-206.12
-190.77
-169.07
-144.46
-121.57
-104.38
-94.64
-91.39
-91.7
-92.12
-90.02
-84.05
-74.03
-60.25
-43.09
-22.88
-0.03
24.82
50.9
77.51
104.16
130.26
154.71
175.59
190.18
195.63
189.78
171.99
143.43
106.68
64.96
21.63
-20.27
-58.23
-90.25
-115.12
-132.58
-143.08
-147.13
-144.74
-135.34
-118.68
-96.24
-72.24
-53.07
-45.24
-52.51
-73.99
-104.26
-135.6
-161.14
-177.41
-185.0
-187.39
-188.77
-192.18
-198.6
-207.11
-215.82
-222.73
-226.4
-226.04
-221.51
-212.94
-200.6
-184.98
-166.87
-147.5
-128.37
-110.96
-96.31
-84.64
-75.48
-67.87
-60.91
-54.08
-47.33
-41.0
-35.38
-30.33
-25.06
-18.3
-8.69
4.62
21.49
40.75
60.54
78.96
94.61
106.95
116.18
122.86
127.53
130.55
132.15
132.58
132.23
131.6
131.05
130.69
130.31
129.65
128.54
127.11
125.68
124.58
123.88
123.27
122.18
120.03
116.45
111.46
105.45
98.93
92.39
86.14
80.26
74.63
69.07
63.34
57.23
50.57
43.44
36.14
29.37
24.1
21.36
21.93
26.07
33.33
42.72
52.95
62.81
71.44
78.41
83.67
87.35
89.62
90.6
90.47
89.47
88.0
86.54
85.49
85.05
85.16
85.53
85.82
85.72
85.15
84.15
82.88
81.49
80.03
78.45
76.59
74.21
71.1
67.16
62.41
57.1
51.52
46.01
40.76
35.76
30.87
25.87
20.54
14.84
8.91
3.16
-1.79
-5.18
-6.32
-4.75
-0.46
6.13
14.25
22.96
31.35
38.72
44.59
48.74
51.16
51.99
51.55
50.3
48.77
47.38
46.44
46.06
46.16
46.53
46.93
47.17
47.13
46.82
46.29
45.62
44.82
43.84
42.58
40.94
38.85
36.34
33.5
30.49
27.43
24.41
21.39
18.29
14.94
11.21
7.06
2.72
-1.4
-4.66
-6.4
-6.1
-3.51
1.26
7.78
15.37
23.26
30.73
37.15
42.15
45.62
47.74
48.97
49.81
50.73
52.0
53.65
55.62
57.85
60.44
63.65
67.87
73.33
80.02
87.46
94.86
101.38
106.48
110.19
113.19
116.45
120.76
126.39
133.0
139.88
146.43
152.39
157.64
161.69
163.27
160.26
150.22
131.27
102.58
64.38
17.4
-37.31
-97.89
-160.79
-220.1
-268.3
-298.29
-306.13
-292.8
-263.96
-227.77
-191.8
-160.73
-135.88
-116.31
-100.56
-87.86
-78.18
-71.47
-66.94
-62.95
-57.7
-50.06
-40.12
-29.11
-18.86
-10.92
-5.95
-3.56
-2.56
-1.57
0.53
4.24
9.37
15.22
20.75
24.91
26.84
26.16
22.97
17.89
11.75
5.4
-0.54
-5.7
-9.97
-13.39
-16.19
-18.78
-21.64
-25.26
-29.84
-35.22
-40.9
-46.29
-50.93
-54.69
-57.63
-59.83
-61.21
-61.54
-60.48
-57.85
-53.76
-48.58
-42.84
-37.06
-31.58
-26.6
-22.19
-18.45
-15.57
-13.77
-13.26
-14.12
-16.16
-18.95
-22.0
-24.8
-26.99
-28.4
-28.95
-28.61
-27.28
-24.95
-21.67
-17.68
-13.35
-9.15
-5.42
-2.37
0.04
1.95
3.51
4.75
5.55
5.75
5.23
4.06
2.52
0.97
-0.23
-0.85
-0.85
-0.34
0.49
1.4
2.18
2.63
2.61
2.09
1.1
-0.17
-1.49
-2.67
-3.62
-4.41
-5.21
-6.25
-7.67
-9.44
-11.36
-13.1
-14.3
-14.69
-14.21
-12.96
-11.16
-9.07
-6.91
-4.84
-2.97
-1.37
-0.09
0.86
1.5
1.9
2.09
2.14
2.04
1.8
1.46
1.11
0.83
0.68
0.64
0.65
0.64
0.55
0.34
0.01
-0.47
-1.07
-1.77
-2.5
-3.23
-3.93
-4.64
-5.42
-6.35
-7.49
-8.88
-10.46
-12.08
-13.5
-14.38
-14.41
-13.39
-11.35
-8.55
-5.43
-2.43
0.13
2.1
3.47
4.25
4.5
4.22
3.5
2.5
1.45
0.56
-0.01
-0.21
-0.01
0.65
1.81
3.49
5.6
7.88
10.02
11.7
12.73
13.08
12.89
12.38
11.74
11.14
10.69
10.41
10.26
10.1
9.74
8.99
7.76
6.14
4.4
2.89
1.95
1.77
2.28
3.22
4.25
5.07
5.48
5.52
5.27
4.88
4.43
3.91
3.29
2.52
1.58
0.53
-0.57
-1.65
-2.67
-3.58
-4.3
-4.74
-4.83
-4.56
-4.07
-3.56
-3.3
-3.43
-3.96
-4.75
-5.62
-6.47
-7.26
-8.05
-8.94
-9.96
-11.06
-12.15
-13.15
-14.03
-14.82
-15.48
-15.92
-15.9
-15.15
-13.53
-11.09
-8.13
-5.11
-2.44
-0.39
1.02
1.87
2.28
2.32
1.99
1.28
0.29
-0.81
-1.8
-2.48
-2.75
-2.64
-2.28
-1.83
-1.46
-1.26
-1.27
-1.47
-1.83
-2.3
-2.82
-3.36
-3.85
-4.3
-4.72
-5.15
-5.64
-6.2
-6.86
-7.63
-8.53
-9.64
-11.02
-12.68
-14.46
-16.07
-17.12
-17.27
-16.36
-14.45
-11.85
-8.92
-5.99
-3.26
-0.78
1.43
3.36
4.94
6.06
6.67
6.79
6.55
6.12
5.68
5.35
5.18
5.17
5.28
5.47
5.68
5.86
6.01
6.13
6.27
6.45
6.67
6.92
7.12
7.19
7.05
6.6
5.8
4.59
3.02
1.12
-1.02
-3.3
-5.68
-8.11
-10.54
-12.9
-15.02
-16.67
-17.6
-17.61
-16.65
-14.89
-12.62
-10.23
-8.04
-6.17
-4.61
-3.26
-2.07
-1.07
-0.42
-0.22
-0.43
-0.81
-1.03
-0.83
-0.16
0.75
1.57
2.01
2.01
1.75
1.47
1.34
1.32
1.2
0.72
-0.24
-1.59
-3.05
-4.31
-5.13
-5.46
-5.39
-5.11
-4.88
-4.91
-5.35
-6.2
-7.27
-8.25
-8.69
-8.18
-6.55
-3.96
-0.91
2.0
4.36
6.17
7.8
9.76
12.4
15.85
20.1
25.15
31.07
37.77
44.88
51.67
57.28
61.19
63.41
64.39
64.53
63.68
61.07
55.72
47.13
35.92
23.63
12.18
2.92
-3.81
-8.67
-12.75
-16.91
-21.33
-25.57
-29.05
-31.47
-33.03
-34.32
-35.95
-38.29
-41.25
-44.38
-47.11
-48.97
-49.67
-49.11
-47.27
-44.11
-39.59
-33.76
-26.79
-19.08
-11.16
-3.62
3.01
8.31
12.06
14.14
14.61
13.7
11.83
9.51
7.31
5.64
4.66
4.31
4.4
4.74
5.25
5.98
6.98
8.26
9.65
10.92
11.82
12.24
12.25
12.12
12.18
12.65
13.6
14.78
15.89
16.66
17.0
17.12
17.4
18.23
19.78
22.03
24.69
27.46
30.12
32.7
35.43
38.73
42.98
48.48
55.25
62.94
70.87
78.03
83.36
85.97
85.51
82.28
77.02
70.68
64.0
57.27
50.41
43.12
35.17
26.56
17.63
8.9
0.94
-5.82
-11.28
-15.74
-19.94
-24.83
-31.2
-39.22
-48.24
-56.9
-63.61
-67.19
-67.32
-64.53
-59.92
-54.54
-48.92
-42.91
-35.96
-27.81
-18.96
-10.77
-4.94
-2.63
-3.74
-6.83
-9.67
-10.37
-8.22
-4.02
0.39
3.06
2.81
-0.4
-5.74
-12.04
-18.38
-24.31
-29.75
-34.68
-38.95
-42.2
-44.02
-44.24
-43.1
-41.2
-39.35
-38.14
-37.75
-38.0
-38.43
-38.65
-38.53
-38.15
-37.73
-37.46
-37.41
-37.55
-37.74
-37.79
-37.42
-36.41
-34.6
-32.03
-28.98
-25.86
-23.08
-20.91
-19.41
-18.45
-17.74
-16.97
-15.8
-13.92
-11.1
-7.33
-2.8
2.07
6.82
11.01
14.36
16.67
17.79
17.57
15.94
13.01
9.14
4.88
0.82
-2.59
-5.11
-6.7
-7.38
-7.23
-6.37
-4.93
-3.18
-1.37
0.29
1.76
3.12
4.46
5.63
6.24
5.77
3.87
0.65
-3.28
-6.96
-9.48
-10.33
-9.57
-7.69
-5.31
-2.88
-0.52
1.81
4.29
7.02
10.1
13.67
17.89
22.89
28.67
35.09
41.93
48.94
55.94
62.79
69.37
75.58
81.33
86.52
90.93
94.24
95.97
95.69
93.11
88.25
81.43
73.08
63.56
53.18
42.27
31.27
20.73
11.1
2.48
-5.49
-13.54
-22.35
-32.26
-43.03
-54.01
-64.38
-73.48
-81.05
-87.2
-92.35
-97.01
-101.6
-106.35
-111.17
-115.68
-119.22
-121.11
-120.81
-118.1
-113.2
-106.73
-99.55
-92.51
-86.28
-81.18
-77.18
-73.88
-70.75
-67.18
-62.72
-57.09
-50.31
-42.59
-34.32
-25.98
-17.97
-10.6
-4.02
1.77
6.91
11.51
15.65
19.27
22.21
24.24
25.24
25.25
24.54
23.52
22.58
21.96
21.67
21.5
21.18
20.49
19.31
17.62
15.46
12.91
10.09
7.27
4.74
2.87
1.88
1.78
2.34
3.2
3.97
4.37
4.26
3.59
2.44
0.87
-1.0
-3.02
-4.97
-6.56
-7.55
-7.75
-7.16
-5.94
-4.41
-2.9
-1.63
-0.67
0.1
0.86
1.75
2.77
3.78
4.6
5.12
5.39
5.57
5.88
6.4
7.1
7.74
8.04
7.77
6.89
5.54
4.07
2.9
2.42
2.92
4.5
7.02
10.2
13.64
16.9
19.62
21.64
22.94
23.61
23.81
23.65
23.24
22.66
22.07
21.61
21.4
21.48
21.73
21.93
21.84
21.39
20.64
19.81
19.14
18.71
18.42
18.04
17.29
16.03
14.29
12.24
10.12
8.12
6.32
4.65
3.0
1.24
-0.8
-3.15
-5.81
-8.69
-11.59
-14.18
-16.1
-17.0
-16.61
-14.89
-12.06
-8.5
-4.68
-1.02
2.23
5.0
7.34
9.33
11.03
12.44
13.57
14.48
15.3
16.23
17.45
19.06
20.97
23.02
24.91
26.42
27.44
27.99
28.22
28.28
28.2
27.9
27.23
26.04
24.31
22.17
19.83
17.49
15.29
13.22
11.24
9.27
7.25
5.19
3.05
0.78
-1.73
-4.61
-7.85
-11.28
-14.58
-17.33
-19.13
-19.8
-19.4
-18.23
-16.69
-15.17
-13.91
-12.96
-12.27
-11.74
-11.26
-10.78
-10.22
-9.53
-8.63
-7.54
-6.32
-5.14
-4.18
-3.57
-3.28
-3.19
-3.07
-2.77
-2.22
-1.49
-0.77
-0.24
-0.07
-0.34
-1.07
-2.23
-3.68
-5.27
-6.84
-8.23
-9.4
-10.38
-11.31
-12.37
-13.77
-15.62
-17.92
-20.44
-22.77
-24.4
-24.85
-23.91
-21.63
-18.39
-14.7
-11.06
-7.81
-5.04
-2.78
-1.0
0.27
1.0
1.17
0.85
0.23
-0.49
-1.14
-1.61
-1.86
-1.91
-1.78
-1.48
-1.02
-0.47
0.08
0.52
0.7
0.57
0.1
-0.66
-1.66
-2.83
-4.08
-5.34
-6.53
-7.54
-8.29
-8.77
-9.04
-9.17
-9.33
-9.63
-10.23
-11.21
-12.63
-14.45
-16.45
-18.26
-19.39
-19.41
-18.08
-15.52
-12.14
-8.54
-5.31
-2.83
-1.19
-0.3
0.03
-0.02
-0.36
-0.94
-1.71
-2.59
-3.38
-3.85
-3.8
-3.18
-2.03
-0.61
0.8
1.92
2.57
2.73
2.46
1.87
1.02
0.01
-1.13
-2.3
-3.44
-4.53
-5.63
-6.87
-8.36
-10.15
-12.12
-14.05
-15.77
-17.16
-18.31
-19.44
-20.74
-22.34
-24.1
-25.72
-26.75
-26.75
-25.45
-22.83
-19.11
-14.65
-9.87
-5.21
-0.99
2.53
5.22
7.06
8.18
8.8
9.12
9.3
9.44
9.57
9.78
10.17
10.9
11.99
13.36
14.83
16.17
17.22
17.94
18.38
18.61
18.66
18.5
18.06
17.27
16.07
14.47
12.55
10.47
8.38
6.43
4.72
3.21
1.83
0.45
-1.05
-2.74
-4.69
-6.93
-9.35
-11.74
-13.73
-14.86
-14.79
-13.39
-10.81
-7.43
-3.71
-0.05
3.28
6.12
8.38
10.01
10.99
11.37
11.3
11.03
10.77
10.68
10.78
11.0
11.24
11.39
11.44
11.44
11.45
11.5
11.56
11.54
11.36
10.97
10.37
9.64
8.83
7.98
7.11
6.23
5.4
4.64
4.02
3.57
3.18
2.72
1.97
0.72
-1.15
-3.65
-6.66
-9.87
-12.89
-15.26
-16.55
-16.51
-15.11
-12.56
-9.27
-5.76
-2.49
0.19
2.12
3.31
3.9
4.06
4.01
3.93
3.97
4.24
4.81
5.68
6.79
8.05
9.35
10.61
11.73
12.68
13.39
13.79
13.85
13.52
12.82
11.85
10.74
9.61
8.51
7.41
6.25
4.95
3.5
1.92
0.28
-1.37
-3.0
-4.58
-6.15
-7.71
-9.29
-10.96
-12.76
-14.66
-16.49
-17.92
-18.58
-18.16
-16.54
-13.85
-10.41
-6.62
-2.85
0.63
3.66
6.18
8.16
9.59
10.49
10.91
10.93
10.72
10.43
10.26
10.33
10.7
11.32
12.1
12.87
13.49
13.85
13.87
13.56
12.98
12.24
11.48
10.75
10.05
9.28
8.35
7.14
5.63
3.83
1.84
-0.23
-2.22
-4.02
-5.54
-6.76
-7.75
-8.68
-9.77
-11.2
-13.02
-15.05
-16.87
-17.97
-17.88
-16.36
-13.5
-9.64
-5.34
-1.11
2.66
5.76
8.18
9.95
11.14
11.77
11.86
11.46
10.72
9.87
9.19
8.94
9.24
10.04
11.11
12.19
13.08
13.67
13.97
14.02
13.81
13.28
12.37
11.08
9.55
7.95
6.44
5.05
3.69
2.23
0.62
-1.04
-2.55
-3.71
-4.48
-4.97
-5.44
-6.15
-7.29
-8.88
-10.84
-13.0
-15.09
-16.81
-17.77
-17.64
-16.25
-13.65
-10.18
-6.37
-2.81
0.06
1.97
2.94
3.16
2.88
2.37
1.76
1.15
0.59
0.14
-0.06
0.12
0.74
1.78
3.11
4.52
5.8
6.83
7.52
7.84
7.76
7.28
6.45
5.38
4.23
3.13
2.17
1.33
0.51
-0.4
-1.47
-2.68
-3.96
-5.23
-6.46
-7.73
-9.18
-10.97
-13.14
-15.56
-17.89
-19.71
-20.59
-20.26
-18.68
-16.01
-12.57
-8.76
-4.99
-1.6
1.18
3.23
4.58
5.32
5.59
5.58
5.45
5.38
5.53
5.97
6.64
7.36
7.88
8.05
7.85
7.48
7.17
7.13
7.35
7.72
8.05
8.23
8.22
8.08
7.82
7.47
6.98
6.32
5.5
4.6
3.71
2.9
2.16
1.44
0.59
-0.54
-2.13
-4.24
-6.79
-9.51
-11.97
-13.69
-14.26
-13.47
-11.33
-8.07
-4.01
0.46
4.96
9.22
13.0
16.15
18.62
20.47
21.81
22.86
23.82
24.85
26.08
27.53
29.23
31.19
33.43
35.99
38.89
42.09
45.4
48.57
51.27
53.14
53.85
53.15
50.87
46.99
41.64
35.07
27.62
19.66
11.54
3.54
-4.15
-11.44
-18.25
-24.47
-29.96
-34.53
-38.07
-40.6
-42.33
-43.61
-44.73
-45.81
-46.69
-46.98
-46.18
-43.9
-40.04
-34.84
-28.86
-22.81
-17.35
-12.95
-9.83
-7.92
-6.93
-6.48
-6.19
-5.79
-5.1
-4.13
-2.92
-1.63
-0.38
0.75
1.77
2.78
3.86
5.11
6.48
7.91
9.2
10.18
10.67
10.59
9.94
8.77
7.19
5.34
3.34
1.31
-0.65
-2.5
-4.18
-5.69
-7.04
-8.27
-9.45
-10.66
-12.03
-13.64
-15.57
-17.81
-20.27
-22.73
-24.84
-26.17
-26.29
-24.91
-22.0
-17.83
-12.94
-7.97
-3.48
0.17
2.86
4.7
5.85
6.47
6.68
6.59
6.29
5.93
5.65
5.56
5.76
6.25
6.98
7.85
8.73
9.48
10.02
10.3
10.31
10.12
9.85
9.64
9.55
9.57
9.55
9.26
8.46
7.02
5.0
2.62
0.18
-2.06
-4.0
-5.71
-7.38
-9.21
-11.33
-13.78
-16.52
-19.39
-22.13
-24.39
-25.76
-25.84
-24.41
-21.53
-17.53
-13.01
-8.56
-4.68
-1.63
0.6
2.16
3.27
4.12
4.89
5.75
6.83
8.22
9.9
11.75
13.56
15.15
16.45
17.5
18.45
19.41
20.42
21.44
22.35
23.02
23.38
23.45
23.29
23.03
22.72
22.39
22.0
21.52
20.94
20.37
19.89
19.64
19.58
19.58
19.39
18.75
17.46
15.42
12.66
9.31
5.56
1.74
-1.75
-4.45
-5.94
-6.0
-4.74
-2.6
-0.13
2.1
3.83
5.06
6.0
6.89
7.84
8.85
9.88
10.87
11.85
12.82
13.72
14.4
14.81
15.01
15.25
15.9
17.23
19.3
21.9
24.71
27.35
29.59
31.27
32.32
32.75
32.66
32.23
31.71
31.4
31.44
31.85
32.51
33.19
33.66
33.73
33.3
32.37
31.04
29.48
27.97
26.79
26.18
26.28
27.01
28.06
28.91
28.96
27.66
24.7
20.12
14.21
7.46
0.34
-6.74
-13.45
-19.56
-24.81
-28.99
-32.09
-34.28
-35.96
-37.54
-39.32
-41.36
-43.49
-45.49
-47.24
-48.72
-50.03
-51.25
-52.38
-53.33
-53.98
-54.22
-53.99
-53.22
-51.86
-49.9
-47.42
-44.63
-41.86
-39.5
-37.85
-37.05
-37.01
-37.49
-38.08
-38.37
-37.98
-36.62
-34.19
-30.83
-26.91
-22.87
-19.13
-15.92
-13.29
-11.14
-9.44
-8.23
-7.65
-7.78
-8.57
-9.77
-10.99
-11.9
-12.32
-12.31
-12.01
-11.51
-10.78
-9.63
-7.85
-5.42
-2.54
0.34
2.7
4.07
4.26
3.36
1.72
-0.26
-2.14
-3.64
-4.64
-5.24
-5.69
-6.36
-7.6
-9.65
-12.51
-15.95
-19.48
-22.53
-24.56
-25.23
-24.4
-22.23
-19.03
-15.26
-11.42
-7.92
-5.08
-2.96
-1.46
-0.39
0.42
0.98
1.16
0.75
-0.41
-2.26
-4.57
-6.93
-8.93
-10.24
-10.72
-10.4
-9.43
-8.09
-6.61
-5.27
-4.25
-3.71
-3.72
-4.26
-5.21
-6.39
-7.53
-8.44
-9.03
-9.41
-9.74
-10.24
-11.08
-12.26
-13.77
-15.56
-17.6
-19.83
-22.08
-23.99
-25.13
-25.07
-23.58
-20.77
-17.05
-12.97
-9.08
-5.79
-3.25
-1.49
-0.46
-0.09
-0.36
-1.23
-2.63
-4.49
-6.62
-8.84
-10.95
-12.79
-14.28
-15.48
-16.61
-17.96
-19.8
-22.25
-25.24
-28.52
-31.83
-35.01
-38.03
-40.98
-43.88
-46.64
-48.97
-50.5
-50.98
-50.31
-48.61
-46.08
-42.96
-39.51
-36.05
-33.0
-30.8
-29.7
-29.54
-29.72
-29.24
-27.19
-23.12
-17.29
-10.64
-4.38
0.41
3.2
4.08
3.62
2.46
1.09
-0.31
-1.8
-3.47
-5.29
-7.08
-8.65
-9.93
-11.09
-12.41
-14.15
-16.38
-18.96
-21.6
-24.08
-26.37
-28.57
-30.82
-33.19
-35.54
-37.58
-39.01
-39.57
-39.25
-38.19
-36.71
-35.2
-34.03
-33.58
-34.15
-35.99
-39.15
-43.45
-48.4
-53.22
-57.02
-58.98
-58.59
-55.87
-51.29
-45.67
-39.92
-34.75
-30.54
-27.28
-24.68
-22.3
-19.74
-16.73
-13.04
-8.59
-3.32
2.82
9.92
18.08
27.47
38.31
50.8
65.03
80.89
97.84
115.03
131.41
146.05
158.45
168.7
177.47
185.75
194.55
204.49
215.52
226.63
235.8
240.3
237.33
224.92
202.84
173.08
139.56
107.23
80.64
62.78
54.53
54.79
61.28
71.48
83.22
95.02
105.99
115.57
123.39
129.21
133.1
135.55
137.36
139.37
142.0
144.98
147.34
147.96
146.1
141.96
136.64
131.67
128.32
126.97
127.12
127.81
128.27
128.38
128.76
130.41
134.32
141.16
151.15
164.0
178.71
193.45
205.56
212.04
210.37
199.45
180.18
155.19
127.96
101.66
78.13
57.67
39.38
21.86
3.7
-16.13
-38.11
-61.93
-86.35
-109.2
-127.84
-140.03
-144.77
-142.81
-136.37
-128.29
-121.04
-116.03
-113.53
-113.16
-114.42
-117.03
-120.9
-125.86
-131.43
-136.77
-141.03
-143.61
-144.46
-143.94
-142.66
-140.93
-138.57
-134.95
-129.36
-121.62
-112.42
-103.36
-96.55
-93.85
-96.06
-102.49
-111.05
-118.96
-123.77
-124.3
-121.1
-116.23
-112.52
-112.39
-116.95
-125.59
-136.11
-145.52
-151.03
-150.83
-144.68
-134.03
-121.71
-110.85
-103.62
-99.74
-96.23
-88.45
-72.14
-45.22
-8.51
34.99
81.35
126.79
168.0
201.97
225.6
235.95
231.08
211.05
178.35
137.47
93.64
51.62
14.77
-15.17
-37.77
-53.72
-64.32
-71.14
-75.8
-79.72
-84.06
-89.85
-97.9
-108.49
-121.34
-135.63
-150.18
-163.74
-175.34
-184.63
-192.02
-198.4
-204.49
-209.93
-212.67
-209.38
-196.78
-173.49
-141.22
-104.51
-69.16
-40.01
-19.44
-7.04
-0.56
2.69
4.75
6.7
8.95
11.74
15.47
20.72
28.0
37.58
49.3
62.6
76.54
90.06
102.18
112.22
119.85
125.0
127.68
127.95
125.94
121.93
116.37
109.86
102.96
96.04
89.22
82.35
75.23
67.83
60.46
53.83
48.87
46.28
46.22
48.06
50.59
52.42
52.61
50.9
47.44
42.23
34.64
23.58
8.21
-11.13
-32.48
-52.75
-68.79
-78.56
-81.74
-79.36
-73.0
-64.07
-53.61
-42.68
-32.89
-26.43
-25.52
-31.53
-44.25
-61.86
-81.47
-99.95
-114.65
-123.77
-126.36
-122.28
-112.09
-97.04
-78.98
-60.18
-43.01
-29.42
-20.62
-16.69
-16.67
-18.91
-21.51
-22.86
-22.0
-18.66
-13.21
-6.51
0.3
5.97
9.34
9.57
6.31
-0.08
-8.66
-18.19
-27.4
-35.19
-40.68
-43.15
-42.12
-37.42
-29.46
-19.26
-8.23
2.28
11.55
19.61
27.1
34.76
42.77
50.47
56.46
59.2
57.52
51.31
41.78
31.42
23.42
20.75
25.02
35.79
50.62
65.86
78.01
84.8
85.93
82.83
77.91
73.52
71.24
71.54
73.86
76.87
78.53
76.22
67.2
49.67
24.0
-6.73
-37.7
-64.53
-85.86
-104.61
-126.98
-159.03
-202.75
-253.86
-302.61
-337.45
-349.58
-336.0
-299.93
-248.78
-191.4
-135.88
-88.49
-53.21
-31.46
-21.78
-19.92
-19.93
-16.04
-4.58
14.82
39.34
64.48
85.74
100.02
106.18
104.77
97.51
86.61
74.44
63.14
54.45
49.5
48.74
51.85
57.85
65.2
72.22
77.58
80.78
82.38
83.77
86.44
91.26
98.04
105.62
112.62
118.14
122.16
125.46
128.98
133.21
137.86
142.09
144.99
145.95
144.7
141.16
135.14
126.5
115.4
102.71
89.84
78.29
68.81
60.82
52.6
41.95
27.33
8.61
-12.91
-35.06
-55.91
-74.38
-90.5
-104.92
-118.17
-130.11
-139.84
-145.98
-147.4
-143.75
-135.64
-124.52
-112.14
-100.02
-89.12
-79.73
-71.58
-63.96
-55.87
-46.07
-33.3
-16.52
4.7
29.89
57.71
86.33
113.92
139.21
161.7
181.62
199.59
216.16
231.44
244.77
254.66
259.06
255.89
243.89
223.25
195.94
165.43
135.77
110.55
92.05
80.85
76.05
75.8
77.85
79.84
79.43
74.28
62.51
43.45
18.6
-7.97
-30.46
-43.32
-43.39
-31.63
-13.03
5.06
15.7
14.64
1.45
-21.07
-48.53
-76.71
-102.74
-125.21
-143.79
-158.55
-169.6
-176.94
-180.53
-180.38
-176.43
-168.38
-155.71
-137.85
-114.87
-88.09
-60.17
-34.64
-14.72
-2.18
3.11
2.95
-0.19
-4.21
-7.94
-10.98
-13.36
-15.05
-15.93
-16.05
-15.78
-15.92
-17.48
-21.32
-27.76
-36.46
-46.39
-56.08
-64.02
-69.02
-70.48
-68.57
-64.14
-58.79
-54.82
-55.12
-62.85
-80.49
-108.73
-145.55
-186.15
-224.16
-253.58
-270.69
-275.0
-268.73
-255.29
-237.57
-217.05
-193.84
-167.49
-137.88
-105.47
-70.89
-34.21
5.28
48.46
95.02
142.34
185.38
218.26
236.89
241.1
235.27
226.56
221.68
223.9
231.87
240.65
244.29
238.39
221.44
194.64
160.78
123.12
84.73
48.29
16.07
-10.32
-30.06
-43.37
-51.29
-55.39
-57.48
-59.13
-61.54
-65.07
-69.21
-72.62
-73.62
-70.98
-64.46
-55.03
-44.34
-34.03
-24.99
-17.09
-9.5
-1.53
6.79
14.56
20.32
22.88
21.96
18.28
13.2
7.95
3.1
-1.67
-7.15
-14.12
-22.86
-33.09
-44.2
-55.54
-66.73
-77.58
-87.93
-97.56
-106.18
-113.36
-118.68
-121.57
-121.4
-117.6
-109.99
-99.16
-86.58
-74.28
-64.15
-57.09
-52.61
-48.89
-43.65
-35.17
-23.09
-8.53
6.36
19.46
29.6
36.84
42.43
48.12
55.61
65.94
79.32
95.08
111.71
127.04
138.53
143.89
141.62
131.52
114.89
94.06
71.71
50.21
31.26
15.8
4.31
-3.26
-7.4
-9.11
-9.72
-10.42
-11.87
-14.05
-16.45
-18.5
-19.97
-21.02
-21.81
-22.25
-21.81
-19.83
-15.93
-10.4
-4.1
1.76
6.08
8.19
7.8
4.91
-0.43
-8.17
-18.22
-30.29
-43.85
-58.25
-72.82
-87.05
-100.52
-112.92
-123.98
-133.45
-141.17
-147.13
-151.38
-153.93
-154.7
-153.52
-150.41
-145.67
-140.05
-134.48
-129.83
-126.51
-124.35
-122.72
-120.74
-117.7
-113.27
-107.57
-101.05
-94.17
-87.08
-79.34
-69.98
-57.86
-42.25
-23.31
-2.12
19.52
39.83
57.54
72.14
83.78
92.88
99.78
104.64
107.41
108.13
107.04
104.68
101.86
99.41
98.04
98.07
99.35
101.32
103.18
104.2
103.91
102.18
99.08
94.76
89.29
82.66
74.92
66.24
56.86
47.05
36.89
26.31
15.27
3.92
-7.09
-16.65
-23.38
-26.1
-24.13
-17.59
-7.28
5.43
19.02
32.06
43.42
52.43
58.84
62.79
64.72
65.19
64.79
63.92
62.85
61.62
60.19
58.5
56.58
54.66
53.01
51.86
51.21
50.74
49.92
48.21
45.28
41.14
36.07
30.47
24.65
18.76
12.77
6.57
0.04
-6.91
-14.26
-21.77
-28.83
-34.43
-37.35
-36.53
-31.48
-22.5
-10.66
2.54
15.62
27.42
37.26
44.89
50.32
53.75
55.51
55.98
55.64
54.91
54.08
53.25
52.41
51.47
50.36
49.04
47.55
45.98
44.44
42.98
41.55
39.98
38.06
35.68
32.82
29.55
25.96
22.04
17.64
12.5
6.38
-0.83
-8.94
-17.43
-25.45
-31.87
-35.57
-35.65
-31.68
-23.91
-13.18
-0.78
11.93
23.71
33.7
41.41
46.7
49.67
50.65
50.1
48.56
46.54
44.48
42.66
41.17
39.94
38.82
37.63
36.24
34.64
32.89
31.07
29.23
27.28
25.06
22.36
18.95
14.83
10.07
4.93
-0.34
-5.56
-10.73
-16.04
-21.78
-28.12
-34.94
-41.67
-47.27
-50.47
-50.14
-45.72
-37.39
-26.09
-13.26
-0.44
11.1
20.53
27.55
32.26
35.01
36.22
36.33
35.69
34.61
33.41
32.37
31.74
31.61
31.88
32.25
32.34
31.91
30.86
29.3
27.41
25.26
22.8
19.87
16.29
12.02
7.2
2.12
-2.87
-7.49
-11.56
-15.11
-18.38
-21.75
-25.65
-30.38
-35.98
-42.0
-47.58
-51.49
-52.56
-49.95
-43.51
-33.82
-22.06
-9.64
2.13
12.35
20.53
26.63
30.81
33.31
34.41
34.37
33.5
32.12
30.51
28.89
27.39
26.02
24.74
23.48
22.22
21.0
19.87
18.81
17.66
16.1
13.74
10.21
5.41
-0.42
-6.7
-12.69
-17.72
-21.41
-23.8
-25.39
-26.94
-29.26
-32.91
-37.92
-43.69
-49.05
-52.58
-53.06
-49.82
-42.93
-33.2
-21.92
-10.52
-0.29
7.88
13.58
16.9
18.3
18.44
17.96
17.28
16.65
16.15
15.88
16.04
16.85
18.48
20.86
23.62
26.15
27.79
28.02
26.69
24.05
20.66
17.17
14.08
11.54
9.35
7.13
4.58
1.67
-1.32
-3.97
-5.99
-7.4
-8.53
-9.86
-11.75
-14.39
-17.72
-21.52
-25.45
-29.01
-31.49
-32.06
-29.94
-24.71
-16.56
-6.28
4.9
15.73
25.23
32.82
38.38
42.04
44.14
45.17
45.72
46.37
47.58
49.47
51.72
53.75
54.9
54.89
53.98
52.97
52.84
54.25
57.15
60.66
63.37
63.88
61.42
56.16
49.12
41.72
35.21
30.11
25.98
21.56
15.21
5.62
-7.54
-23.28
-39.39
-53.08
-61.87
-64.37
-60.73
-52.49
-41.96
-31.16
-20.75
-9.38
6.22
30.2
65.95
114.38
172.84
235.27
293.62
340.17
369.65
380.42
374.27
355.09
327.28
294.43
259.09
222.98
187.6
154.51
124.98
99.31
76.35
53.53
27.78
-3.25
-40.02
-80.82
-122.63
-162.3
-197.99
-229.89
-259.96
-291.07
-326.22
-367.86
-417.37
-474.33
-535.75
-595.69
-646.05
-678.66
-688.05
-673.39
-638.77
-591.23
-537.88
-483.43
-429.55
-375.89
-321.87
-267.91
-215.29
-165.08
-117.09
-69.68
-20.51
32.15
88.66
147.88
207.39
264.48
316.81
362.92
402.54
436.6
466.81
494.79
520.9
543.46
558.87
562.81
552.14
526.55
488.95
444.4
397.97
352.81
309.33
265.9
220.35
171.34
118.84
63.51
6.0
-53.08
-112.34
-168.66
-216.91
-250.94
-265.62
-258.72
-231.72
-188.95
-135.82
-77.21
-16.95
41.57
94.46
137.24
165.73
177.63
173.68
157.37
133.4
105.71
76.16
44.59
10.14
-27.18
-65.42
-100.87
-129.11
-146.71
-152.34
-147.22
-134.64
-118.81
-103.51
-91.12
-82.3
-76.27
-71.54
-66.69
-61.03
-54.77
-48.96
-45.04
-44.24
-47.15
-53.51
-62.21
-71.63
-80.3
-87.31
-92.5
-96.34
-99.51
-102.45
-105.28
-107.8
-109.67
-110.51
-109.8
-106.91
-101.19
-92.14
-79.73
-64.63
-48.13
-32.01
-18.09
-7.89
-2.28
-1.3
-4.23
-9.76
-16.39
-22.92
-28.6
-33.25
-37.03
-40.15
-42.66
-44.42
-45.29
-45.27
-44.55
-43.43
-42.17
-40.88
-39.64
-38.5
-37.61
-37.14
-37.16
-37.57
-38.16
-38.73
-39.23
-39.81
-40.78
-42.42
-44.77
-47.57
-50.34
-52.48
-53.47
-53.07
-51.36
-48.66
-45.29
-41.35
-36.68
-30.96
-23.93
-15.74
-6.96
1.63
9.3
15.71
20.91
25.25
28.97
32.15
34.62
36.14
36.54
35.79
34.0
31.32
27.98
24.35
20.91
18.18
16.56
16.06
16.27
16.49
16.02
14.5
11.98
8.76
5.17
1.31
-2.99
-7.92
-13.43
-19.04
-23.94
-27.35
-28.91
-28.82
-27.74
-26.45
-25.55
-25.31
-25.75
-26.79
-28.37
-30.4
-32.59
-34.41
-35.13
-34.07
-30.85
-25.59
-18.8
-11.28
-3.84
2.87
8.49
12.96
16.36
18.89
20.72
21.97
22.73
23.13
23.38
23.71
24.35
25.44
26.98
28.84
30.85
32.83
34.66
36.17
37.18
37.48
36.89
35.34
32.9
29.79
26.23
22.47
18.65
14.86
11.12
7.42
3.77
0.15
-3.45
-7.11
-10.97
-15.2
-19.89
-25.01
-30.26
-35.17
-39.04
-41.17
-40.95
-38.01
-32.36
-24.38
-14.84
-4.68
5.22
14.22
22.02
28.66
34.28
39.0
42.77
45.45
46.88
47.07
46.17
44.55
42.63
40.82
39.46
38.85
39.23
40.84
43.83
48.19
53.62
59.49
64.89
68.75
70.17
68.62
64.21
57.55
49.58
41.21
33.11
25.58
18.7
12.4
6.45
0.38
-6.54
-15.04
-25.47
-37.37
-49.39
-59.67
-66.53
-69.16
-67.84
-63.73
-58.32
-52.84
-47.97
-43.87
-40.46
-37.73
-36.01
-35.88
-37.87
-42.05
-47.53
-52.33
-53.88
-49.85
-39.18
-22.61
-2.5
18.09
36.43
50.9
61.05
67.11
69.36
67.81
62.38
53.27
41.33
28.02
15.0
3.64
-5.37
-12.0
-16.72
-20.07
-22.44
-23.99
-24.7
-24.54
-23.54
-21.76
-19.22
-15.9
-11.61
-6.08
0.94
9.61
19.81
31.02
42.36
52.63
60.55
65.04
65.49
61.97
55.27
46.71
37.81
29.83
23.45
18.65
14.91
11.58
8.29
5.13
2.46
0.63
-0.4
-1.12
-2.39
-5.07
-9.61
-15.82
-22.93
-29.86
-35.61
-39.61
-41.83
-42.74
-42.99
-43.15
-43.66
-44.76
-46.66
-49.51
-53.33
-57.75
-61.94
-64.76
-65.12
-62.41
-56.83
-49.26
-41.01
-33.29
-26.89
-22.07
-18.7
-16.49
-15.26
-14.96
-15.51
-16.73
-18.17
-19.26
-19.4
-18.1
-15.13
-10.41
-4.09
3.61
12.28
21.33
29.98
37.44
43.07
46.61
48.23
48.38
47.63
46.34
44.71
42.76
40.48
38.02
35.66
33.78
32.61
32.04
31.56
30.41
28.05
24.52
20.73
18.21
18.62
22.98
31.13
41.77
52.82
62.2
68.5
71.32
71.19
69.18
66.33
63.17
59.42
53.86
44.39
28.42
3.57
-31.44
-75.88
-126.46
-177.42
-221.62
-252.27
-264.89
-258.6
-236.37
-203.89
-167.7
-133.3
-103.94
-80.49
-62.19
-47.52
-35.01
-23.34
-11.38
1.86
17.05
34.22
52.6
70.89
87.89
103.09
116.87
130.25
144.08
158.51
172.68
185.08
194.22
199.26
200.29
198.21
194.39
189.97
185.31
179.61
171.14
158.16
140.07
118.17
95.46
75.36
59.81
47.85
35.54
17.51
-10.67
-50.36
-99.0
-151.04
-199.86
-239.92
-268.14
-284.23
-290.11
-288.88
-283.83
-277.58
-271.92
-267.62
-264.75
-262.7
-260.15
-255.29
-246.27
-232.0
-212.91
-190.9
-168.35
-146.71
-125.49
-102.59
-75.79
-44.46
-10.48
22.42
50.52
71.92
87.05
97.77
105.53
110.05
109.45
101.64
86.08
64.74
41.55
20.76
5.25
-4.57
-10.5
-15.32
-21.33
-29.29
-38.37
-46.98
-53.89
-58.96
-63.13
-67.71
-73.47
-80.08
-86.28
-90.49
-91.73
-90.09
-86.64
-82.97
-80.39
-79.46
-79.85
-80.66
-80.88
-79.95
-78.01
-75.8
-74.34
-74.4
-76.09
-78.66
-80.67
-80.48
-76.76
-68.89
-57.07
-42.2
-25.55
-8.43
8.02
22.97
35.91
46.58
54.94
61.12
65.46
68.46
70.79
73.15
76.09
79.89
84.41
89.27
93.93
97.95
101.2
103.81
106.13
108.46
110.94
113.45
115.67
117.22
117.86
117.52
116.41
114.87
113.31
112.01
111.03
110.18
109.21
107.89
106.21
104.36
102.57
101.0
99.47
97.55
94.81
91.18
87.21
84.22
84.09
88.8
99.9
117.97
142.28
170.54
199.03
223.13
238.22
240.86
229.88
206.8
175.46
140.84
107.56
78.66
55.04
35.85
19.4
4.11
-10.78
-25.16
-38.32
-49.44
-57.85
-63.12
-64.99
-63.25
-57.83
-48.94
-37.27
-24.04
-10.75
1.08
10.42
16.81
20.43
21.65
20.89
18.31
14.0
8.12
1.25
-5.63
-11.42
-15.23
-16.87
-16.91
-16.57
-17.14
-19.49
-23.54
-28.27
-32.03
-33.09
-30.27
-23.28
-12.78
-0.07
13.29
26.0
37.29
47.1
55.86
64.17
72.25
79.47
84.39
85.13
80.18
69.19
53.31
35.05
17.5
3.45
-5.17
-7.56
-3.86
4.97
17.4
31.26
43.98
53.2
57.77
58.53
58.38
61.15
69.77
84.77
103.68
121.96
134.52
137.57
129.73
112.42
89.53
66.5
49.1
41.67
45.38
57.31
70.85
77.73
70.96
47.4
8.97
-38.29
-86.43
-128.15
-158.67
-176.42
-182.75
-180.77
-173.95
-164.72
-153.57
-139.21
-119.27
-91.84
-56.77
-16.24
25.54
63.47
92.92
110.95
116.7
111.14
96.23
73.98
46.07
14.1
-19.87
-52.94
-81.81
-103.83
-118.04
-125.54
-128.52
-128.71
-126.02
-118.73
-104.87
-84.31
-59.88
-36.76
-20.36
-13.87
-16.73
-24.94
-32.87
-35.64
-30.82
-19.07
-3.53
11.3
20.93
22.02
13.17
-4.66
-28.37
-53.36
-74.82
-89.0
-94.19
-91.09
-82.33
-71.46
-61.77
-55.46
-53.31
-54.93
-59.19
-64.75
-70.35
-74.89
-77.4
-77.16
-73.82
-67.62
-59.54
-51.2
-44.44
-40.74
-40.71
-43.71
-48.11
-51.78
-52.82
-50.18
-43.91
-34.95
-24.74
-14.93
-7.08
-2.62
-2.36
-5.74
-10.07
-10.54
-1.61
20.56
55.79
99.16
142.47
177.49
199.08
206.69
203.56
194.33
182.84
171.08
159.83
149.61
141.33
135.83
132.96
131.08
127.46
119.62
106.61
89.6
71.41
55.4
44.28
39.2
39.64
43.75
49.11
53.67
56.44
57.71
58.53
59.7
60.82
60.09
54.89
43.01
23.81
-1.37
-29.71
-58.01
-83.75
-105.81
-124.16
-139.24
-151.33
-160.15
-165.03
-165.22
-160.43
-151.02
-138.03
-123.05
-107.83
-93.95
-82.43
-73.45
-66.14
-58.65
-48.65
-34.21
-14.78
8.31
32.17
53.47
69.82
80.66
87.22
91.46
94.69
96.73
96.11
91.11
81.16
67.45
52.73
40.33
32.75
30.9
33.9
39.49
44.51
45.44
39.0
23.05
-2.06
-32.27
-60.05
-76.44
-74.73
-53.83
-19.48
17.75
46.88
60.85
58.7
44.37
23.46
-0.08
-25.13
-52.4
-82.22
-112.84
-140.61
-161.42
-172.38
-172.72
-163.46
-146.39
-123.21
-95.34
-64.26
-32.01
-1.47
24.17
42.2
51.31
52.19
47.27
40.06
33.99
31.43
33.17
38.51
45.77
53.0
58.4
60.69
59.19
53.77
44.82
33.19
20.0
6.55
-5.84
-15.89
-22.43
-24.6
-22.18
-15.91
-7.64
-0.07
3.93
2.24
-5.84
-19.35
-35.99
-52.84
-67.22
-77.26
-82.14
-82.05
-77.91
-70.99
-62.65
-54.16
-46.59
-40.67
-36.67
-34.17
-32.17
-29.34
-24.62
-17.74
-9.51
-1.53
4.54
7.68
7.93
6.25
4.03
2.45
2.05
2.69
3.72
4.38
4.15
2.93
1.09
-0.7
-1.73
-1.59
-0.28
1.8
4.11
6.19
7.82
8.97
9.56
9.41
8.26
6.05
2.93
-0.69
-4.37
-7.89
-11.34
-15.07
-19.45
-24.47
-29.69
-34.2
-36.92
-36.94
-33.87
-27.97
-20.11
-11.44
-3.12
4.02
9.48
13.15
15.11
15.6
14.97
13.76
12.63
12.15
12.55
13.5
14.18
13.6
11.08
6.74
1.56
-2.89
-5.03
-3.85
0.75
8.01
16.66
25.42
33.29
39.64
44.06
46.22
45.85
42.76
36.95
28.68
18.36
6.57
-5.97
-18.42
-29.83
-39.34
-46.48
-51.36
-54.67
-57.39
-60.37
-63.91
-67.65
-70.7
-72.09
-71.05
-67.29
-60.85
-52.04
-41.19
-28.63
-14.66
0.33
15.72
30.61
43.81
54.06
60.35
62.29
60.31
55.59
49.69
44.03
39.5
36.27
34.06
32.44
31.1
29.94
28.9
27.76
26.0
22.91
17.92
10.83
1.98
-7.84
-17.66
-26.72
-34.55
-41.19
-46.99
-52.44
-57.99
-63.8
-69.83
-75.76
-81.28
-86.2
-90.56
-94.7
-99.04
-103.93
-109.35
-114.73
-118.94
-120.38
-117.41
-108.77
-94.14
-74.43
-51.72
-28.81
-8.39
7.75
19.26
27.12
33.11
38.92
45.37
52.05
57.59
60.38
59.32
54.31
46.17
36.09
25.01
13.35
1.13
-11.48
-23.88
-35.04
-43.98
-50.42
-55.01
-59.03
-63.61
-68.96
-74.12
-77.54
-77.93
-75.16
-70.34
-65.4
-62.13
-61.52
-63.58
-67.63
-73.05
-79.57
-87.31
-96.27
-105.9
-114.96
-121.79
-125.0
-123.92
-118.8
-110.52
-100.21
-88.82
-76.99
-65.24
-54.03
-43.82
-34.88
-27.11
-19.97
-12.63
-4.32
5.41
16.5
28.47
40.47
51.38
59.92
64.94
65.84
62.91
57.47
51.47
46.82
44.65
45.06
47.26
50.23
53.17
55.78
58.07
59.96
61.22
61.45
60.44
58.33
55.63
52.85
50.14
47.16
43.22
37.66
30.34
21.82
13.32
6.3
2.03
1.17
3.66
8.77
15.46
22.63
29.36
35.02
39.29
42.03
43.33
43.36
42.41
40.83
38.94
37.08
35.54
34.49
34.04
34.14
34.67
35.5
36.45
37.43
38.35
39.15
39.74
40.11
40.26
40.23
40.05
39.7
39.07
37.99
36.32
34.0
31.12
27.81
24.24
20.55
16.86
13.24
9.66
5.99
1.94
-2.83
-8.5
-14.89
-21.36
-26.95
-30.64
-31.68
-29.85
-25.43
-19.06
-11.5
-3.51
4.3
11.39
17.35
21.87
24.85
26.43
26.95
26.86
26.61
26.5
26.69
27.24
28.15
29.43
31.01
32.82
34.71
36.55
38.2
39.54
40.47
40.82
40.39
39.02
36.71
33.63
30.12
26.56
23.2
20.16
17.42
14.88
12.35
9.58
6.19
1.88
-3.43
-9.27
-14.59
-17.97
-18.06
-14.05
-6.0
5.23
18.24
31.51
43.78
54.2
62.36
68.19
71.85
73.62
73.87
73.0
71.4
69.48
67.63
66.31
65.89
66.69
68.86
72.31
76.71
81.44
85.73
88.77
89.9
88.76
85.44
80.39
74.23
67.6
60.88
54.32
47.93
41.66
35.47
29.3
23.02
16.45
9.35
1.44
-7.49
-17.52
-28.48
-39.82
-50.53
-59.27
-64.72
-65.89
-62.63
-55.64
-46.32
-36.29
-26.93
-19.04
-12.79
-7.9
-3.98
-0.75
1.87
3.83
5.16
6.1
7.12
8.8
11.52
15.35
19.95
24.6
28.39
30.32
29.52
25.4
17.88
7.54
-4.46
-16.6
-27.51
-36.41
-43.34
-49.05
-54.65
-61.15
-69.15
-78.7
-89.37
-100.41
-110.87
-119.72
-126.0
-129.12
-129.09
-126.57
-122.73
-118.78
-115.48
-112.81
-109.9
-105.48
-98.32
-87.81
-74.21
-58.52
-42.16
-26.52
-12.58
-0.81
8.85
16.8
23.57
29.67
35.43
41.02
46.44
51.59
56.33
60.46
63.86
66.39
68.04
68.92
69.24
69.28
69.26
69.28
69.22
68.84
67.78
65.83
63.03
59.7
56.46
54.02
52.89
53.21
54.63
56.43
57.75
57.91
56.62
53.97
50.36
46.27
42.06
37.96
34.04
30.3
26.66
22.9
18.78
14.1
8.94
3.78
-0.58
-3.33
-3.97
-2.54
0.36
3.92
7.47
10.69
13.67
16.66
19.82
23.08
26.23
29.03
31.5
33.89
36.66
40.23
44.72
49.82
54.73
58.44
60.06
59.12
55.8
50.83
45.26
40.07
35.85
32.77
30.51
28.59
26.51
23.98
20.81
16.89
11.95
5.59
-2.62
-12.82
-24.56
-36.82
-48.19
-57.34
-63.45
-66.26
-66.01
-63.06
-57.75
-50.36
-41.23
-31.0
-20.61
-11.07
-3.21
2.55
6.28
8.4
9.4
9.69
9.47
8.81
7.77
6.51
5.31
4.38
3.67
2.74
0.97
-2.11
-6.44
-11.34
-15.84
-19.22
-21.42
-23.08
-25.24
-28.7
-33.65
-39.68
-46.12
-52.39
-58.17
-63.28
-67.46
-70.29
-71.38
-70.71
-68.84
-66.78
-65.61
-66.0
-67.94
-70.7
-72.97
-73.2
-69.8
-61.53
-47.87
-29.43
-7.96
13.86
33.23
48.11
57.7
62.49
63.72
62.72
60.45
57.44
53.98
50.42
47.15
44.49
42.52
41.06
39.77
38.35
36.61
34.35
31.32
27.17
21.67
14.86
7.21
-0.51
-7.48
-13.12
-17.29
-20.15
-22.06
-23.35
-24.22
-24.85
-25.53
-26.71
-28.89
-32.32
-36.82
-41.71
-45.9
-48.32
-48.21
-45.28
-39.8
-32.37
-23.78
-14.88
-6.42
0.96
6.83
10.98
13.4
14.16
13.4
11.26
8.05
4.31
0.76
-1.88
-3.29
-3.8
-4.42
-6.5
-11.15
-18.72
-28.46
-38.87
-48.21
-55.3
-59.88
-62.62
-64.61
-66.77
-69.46
-72.33
-74.68
-75.87
-75.54
-73.65
-70.42
-66.14
-61.18
-56.01
-51.18
-47.07
-43.56
-39.87
-34.73
-26.88
-15.69
-1.54
14.17
29.62
43.15
53.84
61.55
66.6
69.44
70.39
69.68
67.67
64.85
61.83
59.07
56.74
54.73
52.89
51.29
50.23
50.08
50.98
52.53
53.85
53.86
51.73
47.16
40.45
32.26
23.43
14.76
6.9
0.38
-4.54
-7.91
-10.32
-12.73
-16.3
-21.93
-29.8
-39.25
-48.78
-56.44
-60.38
-59.41
-53.39
-43.36
-31.33
-19.68
-10.5
-4.99
-3.22
-4.39
-7.26
-10.93
-14.95
-19.39
-24.37
-29.7
-34.75
-38.69
-40.96
-41.56
-41.13
-40.61
-40.82
-41.98
-43.64
-44.86
-44.59
-42.1
-37.23
-30.42
-22.55
-14.73
-8.01
-3.22
-0.89
-1.18
-3.94
-8.75
-15.03
-22.17
-29.69
-37.36
-45.13
-52.99
-60.64
-67.39
-72.1
-73.52
-70.74
-63.58
-52.74
-39.62
-25.82
-12.82
-1.57
7.56
14.61
19.89
23.74
26.43
28.14
28.99
29.14
28.91
28.76
29.23
30.73
33.36
36.81
40.43
43.49
45.44
46.16
45.87
45.01
43.91
42.66
41.05
38.67
35.22
30.64
25.18
19.33
13.63
8.46
3.96
-0.03
-3.8
-7.73
-12.09
-16.97
-22.15
-27.08
-30.79
-32.12
-29.9
-23.33
-12.3
2.46
19.53
37.2
53.95
68.91
81.88
93.19
103.17
111.75
118.35
122.09
122.31
118.96
112.81
105.14
97.23
89.83
82.87
75.68
67.45
57.74
46.68
34.87
23.03
11.64
0.88
-9.29
-19.01
-28.38
-37.63
-47.27
-57.98
-70.31
-84.16
-98.42
-111.19
-120.49
-125.17
-125.47
-122.9
-119.29
-115.78
-112.06
-106.52
-97.11
-82.5
-62.82
-39.72
-15.64
7.06
26.86
43.28
56.61
67.43
76.16
83.0
88.02
91.36
93.44
94.76
95.79
96.7
97.25
96.9
95.08
91.44
86.11
79.66
72.96
66.83
61.81
57.99
55.02
52.28
49.11
45.03
39.87
33.76
26.97
19.68
11.88
3.4
-5.95
-16.2
-27.04
-37.98
-48.57
-58.46
-67.42
-75.07
-80.64
-83.01
-81.06
-74.21
-62.88
-48.52
-33.16
-18.83
-6.9
2.16
8.69
13.43
17.05
19.88
21.86
22.69
22.1
20.09
16.97
13.35
9.84
6.94
4.85
3.48
2.53
1.71
0.76
-0.42
-1.85
-3.53
-5.54
-8.1
-11.47
-15.84
-21.2
-27.24
-33.45
-39.28
-44.32
-48.43
-51.71
-54.34
-56.59
-58.66
-60.84
-63.41
-66.67
-70.62
-74.82
-78.24
-79.49
-77.17
-70.47
-59.51
-45.34
-29.66
-14.22
-0.38
11.19
20.43
27.53
32.67
35.89
37.12
36.47
34.35
31.52
28.81
26.87
25.99
26.03
26.58
27.22
27.64
27.7
27.32
26.37
24.65
21.92
18.02
12.93
6.85
0.11
-6.83
-13.56
-19.75
-25.23
-30.02
-34.28
-38.37
-42.69
