-85.11
-95.32
-109.78
-128.3
-149.5
-170.9
-189.54
-202.56
-207.95
-205.01
-194.34
-177.65
-157.16
-135.04
-113.02
-92.21
-73.07
-55.69
-39.84
-25.2
-11.44
1.73
14.46
26.74
38.42
49.33
59.36
68.57
77.12
85.22
92.96
100.24
106.81
112.28
116.25
118.4
118.61
116.99
113.89
109.84
105.32
100.53
95.36
89.41
82.29
73.91
64.7
55.42
46.84
39.26
32.25
24.87
15.94
4.77
-8.56
-22.97
-36.62
-47.39
-53.4
-53.57
-47.97
-37.99
-26.13
-15.56
-9.32
-9.49
-16.44
-28.68
-43.21
-56.46
-65.31
-67.98
-64.32
-55.59
-43.85
-31.11
-18.84
-7.72
2.25
11.42
20.24
29.04
37.98
47.11
56.34
65.45
73.94
81.09
85.89
87.37
84.88
78.45
68.8
57.19
44.87
32.7
20.89
9.11
-3.13
-16.18
-30.04
-44.46
-59.16
-73.93
-88.51
-102.39
-114.65
-124.03
-129.33
-129.9
-126.03
-118.86
-110.05
-101.3
-93.83
-88.22
-84.45
-81.97
-80.0
-77.73
-74.45
-69.62
-63.06
-54.87
-45.48
-35.51
-25.63
-16.32
-7.85
-0.21
6.75
13.11
18.79
23.51
26.98
29.05
29.9
29.9
29.48
28.89
28.07
26.76
24.64
21.55
17.63
13.19
8.6
4.11
-0.22
-4.5
-8.97
-13.89
-19.55
-26.17
-33.82
-42.23
-50.67
-57.91
-62.42
-62.84
-58.39
-49.2
-36.32
-21.46
-6.42
7.36
19.03
28.4
35.67
41.24
45.45
48.55
50.73
52.24
53.4
54.55
55.94
57.64
59.52
61.3
62.71
63.67
64.32
64.87
65.51
66.21
66.72
66.67
65.8
64.08
61.79
59.4
57.36
55.94
55.12
54.61
54.03
53.04
51.54
49.67
47.77
46.18
45.12
44.62
44.51
44.52
44.36
43.8
42.84
41.78
41.32
42.49
46.53
54.57
67.29
84.68
105.89
129.44
153.57
176.64
197.45
215.45
230.64
243.48
254.6
264.56
273.64
281.73
288.28
292.46
293.46
290.74
284.39
275.17
264.37
253.44
243.51
235.03
227.57
219.98
210.77
198.57
182.6
162.72
139.43
113.5
85.73
56.73
26.9
-3.46
-34.22
-65.28
-96.77
-129.07
-162.68
-198.16
-236.08
-276.97
-321.34
-369.24
-419.79
-470.77
-518.82
-560.08
-591.34
-610.78
-618.13
-614.24
-600.5
-578.53
-550.27
-518.12
-484.71
-452.21
-421.52
-391.81
-360.95
-326.48
-286.78
-241.97
-194.09
-146.79
-104.69
-72.38
-53.24
-48.33
-55.65
-70.47
-86.56
-98.18
-101.83
-96.99
-85.63
-70.85
-55.5
-41.25
-28.57
-17.07
-6.03
5.54
18.76
34.74
54.1
76.37
99.48
120.17
135.0
141.78
140.45
133.19
123.46
114.68
109.08
107.22
108.21
110.31
111.46
109.71
103.64
92.76
77.82
60.89
44.86
32.55
25.87
25.18
29.34
36.27
43.78
50.21
54.7
57.21
58.26
58.57
58.85
59.7
61.53
64.57
68.87
74.24
80.2
86.04
90.9
93.97
94.84
93.6
90.78
87.14
83.3
79.63
76.16
72.82
69.61
66.6
63.94
61.63
59.47
57.05
53.98
49.98
45.01
39.19
32.65
25.5
17.91
10.28
3.3
-2.03
-4.62
-3.58
1.58
10.71
23.01
37.06
51.09
63.27
72.08
76.63
76.79
73.13
66.68
58.6
49.98
41.68
34.29
28.18
23.45
19.99
17.6
16.06
15.25
15.15
15.78
17.1
18.94
21.15
23.57
26.13
28.77
31.29
33.33
34.36
33.88
31.7
28.01
23.44
18.72
14.46
10.92
7.97
5.28
2.52
-0.47
-3.55
-6.37
-8.43
-9.21
-8.28
-5.34
-0.4
6.28
14.17
22.57
30.75
38.12
44.26
48.87
51.69
52.45
51.02
47.5
42.36
36.44
30.79
26.4
23.87
23.28
24.3
26.37
29.05
32.12
35.49
39.08
42.64
45.73
47.91
48.86
48.53
47.05
44.66
41.54
37.79
33.5
28.84
24.11
19.69
15.96
13.19
11.46
10.6
10.17
9.52
7.97
5.01
0.51
-5.21
-11.36
-16.88
-20.71
-22.02
-20.5
-16.42
-10.65
-4.36
1.32
5.75
8.91
11.49
14.41
18.53
24.19
31.19
38.86
46.39
53.12
58.66
63.0
66.39
69.32
72.32
75.85
80.11
84.91
89.72
93.8
96.4
96.93
95.13
91.07
85.23
78.41
71.61
65.84
61.83
59.78
59.4
60.02
60.99
61.88
62.66
63.44
64.24
64.81
64.59
62.88
59.11
53.15
45.58
37.78
31.92
30.62
36.54
51.73
76.92
110.98
150.79
191.75
228.83
257.63
275.37
281.18
275.85
261.23
239.58
213.17
183.98
153.8
124.07
95.75
69.16
43.94
19.35
-5.16
-29.52
-52.89
-74.03
-91.94
-106.54
-118.99
-131.57
-146.85
-166.64
-191.13
-218.56
-245.48
-267.74
-281.65
-285.03
-277.81
-261.99
-241.04
-219.09
-199.94
-186.44
-180.1
-181.03
-188.05
-199.11
-211.69
-223.4
-232.39
-237.57
-238.57
-235.49
-228.57
-218.05
-204.19
-187.44
-168.6
-148.72
-128.86
-109.87
-92.22
-76.16
-61.85
-49.55
-39.59
-32.11
-26.83
-22.86
-18.96
-13.91
-7.11
1.17
9.91
17.8
23.81
27.57
29.36
29.75
29.23
27.98
26.01
23.42
20.69
18.66
18.22
19.93
23.74
29.06
35.02
40.9
46.35
51.29
55.7
59.33
61.69
62.18
60.41
56.35
50.36
43.02
34.98
26.81
19.04
12.12
6.47
2.32
-0.37
-1.84
-2.44
-2.4
-1.8
-0.54
1.45
4.07
6.92
9.49
11.26
11.9
11.35
9.77
7.45
4.64
1.54
-1.74
-5.1
-8.48
-11.76
-14.89
-17.82
-20.52
-23.03
-25.4
-27.76
-30.31
-33.31
-37.02
-41.58
-46.88
-52.5
-57.84
-62.2
-65.0
-65.93
-65.04
-62.74
-59.61
-56.22
-52.89
-49.49
-45.46
-39.93
-32.16
-21.84
-9.37
4.05
16.7
26.82
33.21
35.58
34.58
31.46
27.38
22.89
17.58
10.34
-0.04
-14.13
-31.35
-50.0
-67.72
-82.18
-91.81
-96.04
-95.32
-90.72
-83.5
-74.78
-65.41
-56.0
-47.07
-39.23
-33.1
-29.25
-28.15
-30.06
-35.04
-42.75
-52.35
-62.42
-70.96
-75.68
-74.53
-66.23
-50.79
-29.59
-5.04
20.04
43.2
62.96
79.06
92.21
103.69
114.7
126.0
137.79
149.85
161.88
173.7
185.47
197.65
211.02
226.5
244.68
265.19
286.2
304.38
315.72
317.08
307.7
290.06
269.15
250.48
237.57
230.4
225.43
217.42
201.79
176.63
143.16
104.94
66.29
30.95
1.54
-20.35
-33.9
-39.12
-37.35
-31.34
-24.85
-21.29
-22.29
-26.94
-32.34
-35.3
-34.12
-29.75
-25.46
-25.24
-32.06
-46.61
-67.28
-91.03
-114.65
-135.53
-151.83
-162.19
-165.57
-161.26
-149.47
-131.8
-111.41
-92.27
-77.94
-70.31
-68.84
-70.93
-73.13
-72.57
-68.04
-60.09
-50.4
-40.7
-32.0
-24.52
-18.04
-12.55
-8.71
-7.74
-10.89
-18.77
-30.88
-45.71
-61.11
-75.09
-86.27
-94.11
-98.7
-100.4
-99.6
-96.77
-92.54
-87.72
-83.23
-79.8
-77.75
-76.99
-77.1
-77.67
-78.45
-79.42
-80.72
-82.52
-84.85
-87.67
-90.71
-93.61
-95.85
-96.88
-96.21
-93.62
-89.22
-83.54
-77.24
-70.96
-65.11
-59.81
-54.98
-50.55
-46.56
-43.11
-40.26
-37.85
-35.5
-32.76
-29.24
-24.87
-19.83
-14.56
-9.55
-5.27
-2.06
-0.12
0.59
0.46
0.19
0.74
2.93
7.19
13.29
20.31
26.92
31.71
33.64
32.21
27.58
20.38
11.44
1.65
-8.27
-17.77
-26.45
-33.96
-40.07
-44.67
-47.92
-50.21
-51.99
-53.62
-55.1
-56.09
-56.15
-54.96
-52.52
-49.24
-45.75
-42.65
-40.33
-38.92
-38.39
-38.6
-39.39
-40.58
-41.93
-43.12
-43.9
-44.18
-44.04
-43.81
-43.92
-44.75
-46.52
-49.15
-52.19
-54.9
-56.4
-55.88
-52.88
-47.36
-39.71
-30.61
-20.78
-10.8
-1.06
8.22
16.94
25.03
32.49
39.34
45.57
51.13
55.89
59.73
62.55
64.37
65.36
65.8
65.94
66.0
66.13
66.38
66.73
67.12
67.45
67.6
67.42
66.76
65.5
63.57
61.04
58.16
55.34
53.04
51.64
51.23
51.52
51.89
51.46
49.36
44.86
37.57
27.6
15.62
2.91
-8.88
-18.01
-23.16
-23.74
-20.0
-12.84
-3.34
7.55
19.12
30.82
42.01
51.9
59.58
64.4
66.17
65.25
62.37
58.37
53.88
49.23
44.52
39.8
35.24
31.13
27.82
25.5
24.12
23.31
22.5
21.17
19.07
16.24
13.03
9.83
6.9
4.22
1.53
-1.54
-5.32
-9.95
-15.35
-21.24
-27.26
-33.07
-38.45
-43.39
-48.16
-53.33
-59.71
-68.15
-79.17
-92.6
-107.34
-121.39
-132.29
-137.82
-136.58
-128.5
-114.75
-97.44
-79.03
-61.72
-47.14
-36.12
-28.79
-24.65
-22.88
-22.41
-22.18
-21.32
-19.29
-15.91
-11.4
-6.24
-0.99
3.83
7.88
11.0
13.26
14.89
16.21
17.48
18.8
20.04
20.85
20.79
19.53
17.07
13.81
10.39
7.46
5.44
4.36
3.98
3.9
3.81
3.47
2.78
1.59
-0.24
-2.85
-6.31
-10.4
-14.58
-17.97
-19.54
-18.29
-13.62
-5.52
5.36
17.81
30.36
41.75
51.18
58.48
63.96
68.12
71.39
73.95
75.78
76.89
77.44
77.83
78.61
80.3
83.17
87.2
92.11
97.37
102.31
106.13
107.96
107.01
102.78
95.36
85.4
74.1
62.82
52.67
44.28
37.73
32.64
28.44
24.58
20.58
16.02
10.53
3.81
-4.2
-13.11
-22.02
-29.57
-34.28
-35.09
-31.76
-25.03
-16.4
-7.65
-0.19
5.2
8.49
9.98
10.01
8.65
5.81
1.45
-4.15
-10.39
-16.55
-22.14
-27.11
-31.87
-37.03
-43.01
-49.75
-56.69
-63.0
-67.94
-71.26
-73.3
-74.77
-76.51
-79.05
-82.46
-86.41
-90.34
-93.8
-96.6
-98.82
-100.73
-102.66
-104.91
-107.78
-111.49
-116.15
-121.46
-126.66
-130.37
-130.95
-126.9
-117.38
-102.57
-83.64
-62.49
-41.19
-21.5
-4.5
9.4
20.36
28.89
35.55
40.85
45.11
48.59
51.45
53.87
56.06
58.23
60.59
63.16
65.81
68.22
70.02
70.97
70.99
70.11
68.43
65.92
62.41
57.69
51.61
44.31
36.13
27.61
19.21
11.25
3.76
-3.45
-10.73
-18.49
-27.08
-36.68
-47.08
-57.66
-67.35
-74.83
-78.75
-78.14
-72.62
-62.64
-49.38
-34.47
-19.64
-6.26
4.89
13.69
20.55
26.0
30.48
34.16
36.99
38.91
40.08
40.85
41.64
42.62
43.65
44.32
44.24
43.33
41.92
40.56
39.74
39.55
39.59
39.15
37.5
34.28
29.58
23.89
17.85
11.99
6.58
1.63
-3.04
-7.67
-12.6
-18.13
-24.53
-31.9
-39.99
-48.07
-54.92
-59.11
-59.43
-55.24
-46.78
-35.03
-21.47
-7.63
5.21
16.27
25.24
32.15
37.26
40.87
43.31
44.87
45.84
46.48
47.03
47.72
48.71
50.03
51.62
53.28
54.78
55.86
56.41
56.41
55.99
55.27
54.31
53.05
51.34
49.03
46.0
42.23
37.73
32.58
26.9
20.88
14.81
8.94
3.44
-1.82
-7.16
-13.03
-19.65
-26.91
-34.12
-40.22
-44.03
-44.54
-41.34
-34.59
-25.09
-13.97
-2.43
8.52
18.17
26.16
32.33
36.73
39.51
40.92
41.27
40.92
40.22
39.46
38.8
38.36
38.17
38.2
38.39
38.58
38.65
38.45
37.91
36.98
35.67
33.98
31.95
29.59
26.91
23.95
20.79
17.47
14.08
10.63
7.16
3.71
0.38
-2.71
-5.46
-7.93
-10.31
-12.9
-15.9
-19.26
-22.56
-25.06
-25.97
-24.68
-21.04
-15.32
-8.17
-0.39
7.22
14.07
19.71
23.97
26.83
28.43
28.96
28.64
27.7
26.33
24.8
23.33
22.14
21.33
20.86
20.54
20.19
19.65
18.89
17.96
16.9
15.63
13.96
11.64
8.48
4.49
-0.14
-5.01
-9.71
-13.92
-17.5
-20.53
-23.28
-26.06
-29.18
-32.76
-36.72
-40.71
-44.16
-46.37
-46.68
-44.59
-39.9
-32.8
-23.8
-13.65
-3.2
6.74
15.54
22.78
28.32
32.23
34.72
36.1
36.73
36.91
36.9
36.87
36.87
36.86
36.7
36.26
35.4
34.1
32.47
30.68
28.93
27.36
26.04
24.9
23.8
22.59
21.16
19.54
17.82
16.18
14.78
13.66
12.77
11.93
11.0
9.8
8.23
6.31
4.22
2.32
1.21
1.6
4.16
9.19
16.48
25.23
34.26
42.29
48.38
52.07
53.35
52.58
50.17
46.5
41.83
36.4
30.48
24.35
18.29
12.52
7.23
2.63
-1.04
-3.6
-5.02
-5.57
-5.79
-6.35
-7.82
-10.48
-14.29
-18.96
-24.16
-29.64
-35.3
-41.1
-47.01
-53.01
-59.01
-64.95
-70.77
-76.4
-81.83
-87.1
-92.2
-97.02
-101.15
-103.85
-104.15
-101.18
-94.57
-84.64
-72.43
-59.36
-46.81
-35.7
-26.37
-18.76
-12.53
-7.33
-2.92
0.95
4.54
8.12
11.9
15.98
20.26
24.47
28.28
31.4
33.67
35.09
35.81
36.02
35.93
35.62
35.02
33.92
32.06
29.2
25.34
20.75
15.91
11.4
7.67
4.94
3.09
1.73
0.36
-1.49
-4.12
-7.54
-11.47
-15.33
-18.42
-20.06
-19.76
-17.39
-13.18
-7.69
-1.65
4.15
9.08
12.73
15.01
16.07
16.33
16.3
16.46
17.2
18.69
20.95
23.8
27.05
30.51
34.09
37.8
41.75
46.02
50.61
55.35
59.92
63.96
67.12
69.26
70.4
70.79
70.75
70.65
70.76
71.11
71.53
71.59
70.82
68.85
65.57
61.19
56.22
51.32
47.05
43.75
41.36
39.47
37.54
35.02
31.63
27.36
22.35
16.77
10.57
3.53
-4.63
-13.97
-24.25
-34.84
-45.0
-54.04
-61.51
-67.26
-71.37
-74.01
-75.44
-75.94
-75.86
-75.62
-75.7
-76.54
-78.43
-81.43
-85.36
-89.84
-94.43
-98.84
-103.01
-107.2
-111.79
-117.21
-123.73
-131.25
-139.27
-146.9
-152.94
-156.15
-155.42
-150.06
-139.91
-125.41
-107.52
-87.49
-66.65
-46.26
-27.31
-10.57
3.48
14.62
22.84
28.37
31.56
32.87
32.77
31.7
30.06
28.23
26.53
25.24
24.55
24.52
25.08
26.06
27.19
28.15
28.66
28.51
27.64
26.15
24.24
22.13
19.98
17.78
15.46
12.79
9.58
5.63
0.94
-4.26
-9.46
-13.92
-16.87
-17.74
-16.37
-13.04
-8.36
-3.07
2.16
6.87
10.85
13.99
16.3
17.84
18.68
18.98
18.94
18.75
18.55
18.44
18.41
18.4
18.29
18.02
17.54
16.92
16.22
15.51
14.85
14.18
13.47
12.64
11.61
10.29
8.59
6.44
3.78
0.65
-2.88
-6.67
-10.58
-14.54
-18.56
-22.79
-27.35
-32.23
-37.22
-41.83
-45.34
-47.0
-46.29
-43.03
-37.5
-30.32
-22.32
-14.31
-6.97
-0.75
4.11
7.64
10.08
11.79
13.19
14.68
16.5
18.72
21.21
23.67
25.76
27.21
27.88
27.83
27.27
26.51
25.83
25.38
25.14
24.95
24.54
23.69
22.24
20.19
17.67
14.89
12.06
9.3
6.62
3.93
1.09
-2.04
-5.51
-9.19
-12.79
-15.82
-17.69
-17.82
-15.79
-11.57
-5.54
1.56
8.82
15.41
20.78
24.77
27.47
29.16
30.11
30.58
30.74
30.71
30.6
30.5
30.52
30.73
31.25
32.14
33.47
35.2
37.23
39.38
41.37
43.0
44.13
44.8
45.22
45.71
46.57
48.01
50.01
52.38
54.88
57.27
59.52
61.73
64.18
67.24
71.34
76.95
84.47
94.24
106.38
120.77
137.13
154.94
173.6
192.24
209.72
224.58
235.16
239.92
237.88
228.89
213.76
194.08
171.77
148.53
125.55
103.31
81.7
60.26
38.44
15.83
-7.61
-31.55
-55.28
-77.83
-98.16
-115.33
-128.76
-138.24
-144.03
-146.73
-147.23
-146.54
-145.61
-145.07
-145.0
-144.83
-143.47
-139.68
-132.55
-121.94
-108.58
-93.82
-79.2
-65.93
-54.68
-45.58
-38.49
-33.27
-29.81
-28.05
-27.71
-28.34
-29.26
-29.88
-29.86
-29.24
-28.27
-27.23
-26.24
-25.14
-23.75
-21.9
-19.64
-17.1
-14.39
-11.52
-8.41
-5.08
-1.82
0.79
2.0
1.13
-2.23
-8.17
-16.38
-26.25
-36.9
-47.11
-55.54
-60.95
-62.6
-60.59
-55.85
-49.88
-44.16
-39.79
-37.16
-36.13
-36.32
-37.41
-39.35
-42.17
-45.86
-50.17
-54.58
-58.41
-61.1
-62.32
-62.12
-60.86
-59.08
-57.31
-55.95
-55.11
-54.7
-54.47
-54.19
-53.78
-53.33
-53.08
-53.22
-53.9
-55.09
-56.72
-58.67
-60.9
-63.23
-65.28
-66.34
-65.46
-61.73
-54.62
-44.32
-31.77
-18.39
-5.68
5.19
13.62
19.49
23.02
24.52
24.34
22.91
20.75
18.5
16.68
15.56
15.11
15.0
14.9
14.57
14.04
13.44
12.85
12.29
11.61
10.71
9.55
8.21
6.81
5.39
3.9
2.1
-0.2
-3.16
-6.76
-10.73
-14.59
-17.66
-19.15
-18.27
-14.5
-7.69
1.76
13.0
24.8
35.9
45.3
52.44
57.28
60.15
61.51
61.75
61.16
59.94
58.37
56.87
55.96
56.07
57.42
59.9
63.16
66.7
70.05
72.75
74.33
74.28
72.13
67.59
60.79
52.2
42.58
32.7
23.06
13.87
5.08
-3.48
-11.9
-20.1
-27.75
-34.28
-38.98
-41.11
-40.14
-35.97
-29.03
-20.27
-10.85
-1.89
5.82
11.97
16.53
19.7
21.64
22.49
22.29
21.19
19.43
17.28
15.02
12.74
10.35
7.68
4.58
1.09
-2.53
-5.97
-9.03
-11.78
-14.6
-17.96
-22.16
-27.15
-32.5
-37.56
-41.77
-44.91
-47.13
-48.87
-50.68
-52.92
-55.63
-58.6
-61.38
-63.44
-64.23
-63.23
-60.17
-54.95
-47.88
-39.53
-30.65
-22.0
-14.15
-7.47
-2.14
1.69
3.91
4.52
3.69
1.87
-0.23
-1.89
-2.49
-1.89
-0.43
1.09
1.76
0.88
-1.76
-5.77
-10.42
-14.88
-18.66
-21.78
-24.74
-28.24
-32.88
-38.87
-45.94
-53.43
-60.41
-66.01
-69.6
-71.01
-70.64
-69.33
-68.14
-67.9
-69.03
-71.37
-74.25
-76.73
-77.83
-76.68
-72.6
-65.03
-53.51
-37.66
-17.35
6.99
34.01
61.43
86.2
105.35
116.84
120.19
116.68
108.81
99.39
90.59
83.44
77.87
73.14
68.41
63.1
57.03
50.22
42.78
34.8
26.41
17.82
9.37
1.49
-5.51
-11.57
-16.96
-22.24
-28.02
-34.8
-42.83
-52.08
-62.28
-72.94
-83.23
-91.99
-97.81
-99.35
-95.82
-87.33
-74.95
-60.43
-45.64
-32.03
-20.34
-10.69
-2.84
3.46
8.36
11.94
14.35
15.88
16.98
18.05
19.3
20.69
21.98
22.89
23.31
23.38
23.48
24.07
25.48
27.65
30.21
32.49
33.83
33.78
32.3
29.66
26.34
22.77
19.25
15.79
12.21
8.22
3.52
-2.01
-8.17
-14.32
-19.46
-22.39
-22.14
-18.28
-11.18
-1.96
7.73
16.24
22.33
25.41
25.6
23.41
19.5
14.42
8.46
1.81
-5.29
-12.55
-19.56
-25.88
-31.15
-35.11
-37.57
-38.33
-37.27
-34.4
-29.99
-24.6
-19.07
-14.28
-10.97
-9.5
-9.79
-11.3
-13.28
-15.04
-16.22
-16.96
-17.86
-19.68
-22.93
-27.47
-32.36
-36.02
-36.7
-32.97
-24.23
-10.8
6.15
24.99
44.04
61.85
77.42
90.16
99.85
106.5
110.27
111.5
110.61
108.12
104.56
100.4
95.94
91.32
86.55
81.57
76.38
71.02
65.6
60.17
54.68
48.99
42.84
35.98
28.18
19.41
9.83
-0.13
-9.89
-18.76
-26.17
-31.87
-36.01
-39.11
-41.92
-45.17
-49.32
-54.36
-59.83
-64.84
-68.36
-69.37
-67.2
-61.68
-53.19
-42.56
-30.92
-19.43
-9.05
-0.47
5.98
10.28
12.7
13.64
13.63
13.11
12.36
11.54
10.67
9.83
9.13
8.77
8.94
9.74
11.17
13.08
15.28
17.49
19.39
20.65
20.98
20.2
18.33
15.63
12.47
9.24
6.18
3.38
0.75
-1.83
-4.39
-6.91
-9.24
-11.2
-12.69
-13.78
-14.74
-15.99
-17.95
-20.74
-24.09
-27.27
-29.33
-29.38
-26.88
-21.9
-15.03
-7.28
0.24
6.55
10.93
12.99
12.73
10.45
6.75
2.43
-1.66
-4.82
-6.65
-7.13
-6.59
-5.49
-4.16
-2.7
-1.0
1.2
4.0
7.25
10.61
13.64
16.07
17.85
19.04
19.78
20.07
19.78
18.68
16.65
13.72
10.09
6.1
2.1
