-67.63
-67.74
-68.59
-70.67
-74.49
-80.37
-88.15
-96.98
-105.28
-111.01
-112.25
-107.82
-97.65
-82.82
-65.19
-46.87
-29.63
-14.65
-2.37
7.36
15.02
21.2
26.35
30.68
34.2
36.81
38.49
39.39
39.92
40.57
41.75
43.57
45.81
47.96
49.37
49.54
48.17
45.31
41.33
36.79
32.36
28.69
26.21
25.02
24.85
25.15
25.25
24.57
22.81
19.97
16.24
11.94
7.36
2.73
-1.81
-6.19
-10.38
-14.33
-17.83
-20.48
-21.62
-20.59
-16.91
-10.59
-2.1
7.64
17.57
26.73
34.43
40.31
44.32
46.59
47.46
47.32
46.6
45.69
44.91
44.52
44.71
45.65
47.44
50.01
53.06
56.08
58.47
59.74
59.65
58.26
55.89
53.0
49.99
47.11
44.41
41.77
38.97
35.73
31.87
27.28
22.02
16.28
10.34
4.49
-1.12
-6.53
-12.0
-17.91
-24.59
-32.11
-40.1
-47.76
-53.9
-57.26
-56.79
-52.02
-43.22
-31.37
-17.94
-4.52
7.55
17.4
24.69
29.52
32.28
33.38
33.26
32.33
31.04
29.87
29.27
29.59
30.96
33.26
36.19
39.28
42.11
44.33
45.7
46.12
45.59
44.22
42.19
39.76
37.1
34.33
31.47
28.46
25.26
21.88
18.39
14.88
11.39
7.94
4.45
0.84
-2.98
-7.12
-11.71
-16.82
-22.28
-27.6
-31.93
-34.26
-33.73
-30.02
-23.48
-15.01
-5.81
3.04
10.76
16.97
21.58
24.62
26.19
26.46
25.69
24.29
22.68
21.24
20.19
19.55
19.2
19.0
18.85
18.78
18.85
19.06
19.3
19.38
19.08
18.32
17.14
15.75
14.34
12.97
11.57
9.95
7.95
5.56
2.89
0.11
-2.64
-5.32
-7.96
-10.64
-13.44
-16.49
-19.95
-24.07
-28.92
-34.33
-39.66
-43.97
-46.16
-45.45
-41.55
-34.81
-26.02
-16.19
-6.19
3.35
12.09
19.92
26.87
33.07
38.68
43.81
48.54
52.86
56.79
60.43
63.97
67.7
71.83
76.4
81.26
86.1
90.65
94.76
98.44
101.84
105.18
108.65
112.48
116.73
121.34
125.86
129.47
130.99
129.21
123.29
113.02
98.99
82.39
64.74
47.58
32.27
19.86
11.08
6.24
5.06
6.61
9.37
11.57
11.68
8.96
3.77
-2.47
-7.73
-9.99
-7.9
-1.2
9.24
21.7
34.1
44.54
51.63
54.69
53.66
49.09
41.9
33.28
24.45
16.44
9.91
5.04
1.56
-1.15
-3.73
-6.69
-10.16
-14.0
-17.86
-21.42
-24.62
-27.68
-31.07
-35.32
-40.89
-47.98
-56.41
-65.69
-75.05
-83.67
-90.82
-96.07
-99.44
-101.27
-102.12
-102.46
-102.46
-101.95
-100.56
-98.0
-94.29
-89.94
-85.8
-82.82
-81.78
-82.96
-85.98
-89.89
-93.22
-94.45
-92.3
-86.15
-76.26
-63.75
-50.41
-38.12
-28.38
-21.84
-18.3
-16.9
-16.61
-16.64
-16.62
-16.61
-16.8
-17.26
-17.83
-18.16
-17.95
-17.12
-15.85
-14.44
-13.16
-12.1
-11.21
-10.31
-9.27
-8.06
-6.84
-5.9
-5.58
-6.11
-7.56
-9.73
-12.18
-14.4
-15.96
-16.67
-16.59
-16.05
-15.44
-15.11
-15.35
-16.36
-18.19
-20.73
-23.6
-26.09
-27.23
-26.02
-21.68
-14.0
-3.39
9.19
22.46
35.23
46.64
56.28
64.11
70.22
74.68
77.41
78.33
77.57
75.53
72.92
70.51
68.86
68.05
67.65
66.9
65.09
61.89
57.5
52.53
47.71
43.57
40.16
37.13
33.8
29.5
23.72
16.33
7.49
-2.34
-12.58
-22.59
-31.8
-39.85
-46.65
-52.39
-57.51
-62.54
-67.88
-73.61
-79.39
-84.44
-87.73
-88.25
-85.32
-78.76
-69.01
-57.0
-43.96
-31.21
-19.84
-10.54
-3.61
1.13
4.1
5.8
6.62
6.71
6.02
4.39
1.74
-1.94
-6.49
-11.77
-17.57
-23.61
-29.41
-34.26
-37.32
-37.94
-35.84
-31.24
-24.79
-17.24
-9.23
-1.15
6.81
14.4
21.3
27.05
31.37
34.22
35.97
37.22
38.57
40.35
42.46
44.48
45.91
46.37
45.78
44.4
42.69
41.28
40.87
42.21
46.06
53.04
63.44
76.97
92.64
108.91
124.01
136.55
145.94
152.49
157.05
160.34
162.13
160.95
154.52
140.55
117.83
86.68
48.66
5.53
-41.41
-91.25
-142.61
-192.78
-237.82
-273.79
-298.67
-313.56
-322.42
-330.14
-340.15
-352.86
-365.98
-376.14
-380.85
-379.45
-372.73
-361.77
-346.91
-327.77
-304.01
-276.4
-247.2
-219.57
-196.33
-178.65
-165.46
-154.09
-141.76
-127.16
-111.23
-96.81
-87.28
-84.94
-90.0
-100.6
-113.87
-127.13
-138.71
-147.98
-154.82
-158.98
-159.92
-157.03
-150.17
-139.97
-127.75
-115.09
-103.22
-92.69
-83.27
-74.3
-65.06
-55.12
-44.45
-33.22
-21.58
-9.37
4.0
19.41
37.8
59.64
84.57
111.16
137.18
160.14
178.08
190.16
196.71
198.81
197.78
194.6
189.82
183.74
176.63
168.87
160.84
152.76
144.63
136.28
127.46
118.07
108.12
97.79
87.49
77.85
69.72
64.02
61.46
62.31
66.31
72.75
80.68
89.18
97.5
105.03
111.31
115.94
118.46
118.52
116.02
111.19
104.63
97.12
89.4
81.97
75.07
68.79
63.2
58.44
54.68
52.05
50.58
50.19
50.79
52.22
54.22
56.36
58.01
58.49
57.28
54.15
49.25
43.02
35.93
28.33
20.39
12.1
3.5
-5.18
-13.41
-20.34
-25.01
-26.6
-24.62
-19.04
-10.2
1.23
14.38
28.19
41.53
53.29
62.67
69.35
73.6
76.08
77.57
78.69
79.74
80.75
81.71
82.62
83.63
84.93
86.67
88.96
91.79
95.0
98.14
100.42
100.7
97.66
90.21
77.85
60.88
40.51
18.56
-2.88
-21.85
-36.82
-46.9
-51.83
-51.93
-48.08
-41.53
-33.72
-26.14
-19.95
-15.81
-13.74
-13.24
-13.48
-13.59
-12.84
-10.83
-7.42
-2.73
2.9
8.95
14.76
19.7
23.29
25.38
26.12
25.86
25.07
24.24
23.83
24.23
25.72
28.36
31.93
36.09
40.49
45.0
49.76
55.06
61.08
67.65
74.13
79.45
82.38
81.9
77.45
69.16
57.8
44.68
31.34
19.27
9.62
3.09
-0.22
-0.78
0.36
1.82
2.1
0.07
-4.77
-12.15
-21.16
-30.63
-39.47
-46.88
-52.44
-55.97
-57.51
-57.28
-55.79
-53.79
-52.1
-51.31
-51.5
-52.1
-52.16
-50.65
-46.85
-40.63
-32.4
-23.03
-13.56
-4.97
2.1
7.46
11.32
14.24
16.87
19.73
23.07
26.8
30.66
34.32
37.54
40.14
42.04
43.12
43.28
42.49
40.76
38.19
34.89
30.94
26.27
20.76
14.27
6.85
-1.16
-9.18
-16.53
-22.66
-27.38
-30.83
-33.33
-35.07
-35.93
-35.39
-32.83
-27.87
-20.69
-12.1
-3.26
4.67
10.97
15.49
18.57
20.74
22.43
23.87
25.07
25.95
26.49
26.77
26.94
27.15
27.55
28.17
28.9
29.46
29.46
28.53
26.47
23.34
19.45
15.36
11.65
8.77
6.85
5.57
4.23
1.9
-2.18
-8.29
-16.0
-24.13
-31.19
-35.83
-37.41
-36.29
-33.89
-32.43
-34.38
-41.65
-54.89
-72.96
-92.96
-110.88
-122.74
-125.85
-119.67
-105.81
-87.33
-67.6
-49.25
-33.69
-21.26
-11.7
-4.68
0.03
2.67
3.82
4.38
5.38
7.57
11.06
15.23
19.17
22.09
23.76
24.52
25.07
26.03
27.58
29.41
30.98
31.84
31.88
31.41
31.15
31.98
34.74
39.92
47.27
55.73
63.56
68.99
71.24
71.31
72.16
78.03
92.91
119.04
155.99
200.88
249.27
296.35
337.79
370.16
391.05
399.21
394.87
379.84
357.27
331.0
304.52
280.18
258.83
239.99
222.42
204.71
185.66
164.51
141.05
115.61
89.02
62.27
36.23
11.34
-12.46
-35.66
-58.82
-82.51
-107.26
-133.6
-161.86
-191.74
-221.88
-249.82
-272.54
-287.47
-293.42
-290.89
-281.68
-267.9
-251.21
-232.58
-212.68
-192.41
-173.05
-155.88
-141.39
-128.8
-116.22
-101.57
-83.68
-62.99
-41.49
-21.98
-6.82
3.02
8.21
10.83
13.54
18.68
27.6
40.29
55.51
71.16
85.11
95.88
103.11
107.43
109.78
110.67
109.61
105.24
95.97
80.74
59.42
32.7
1.73
-32.14
-67.15
-100.79
-129.53
-149.48
-157.55
-153.0
-138.33
-118.96
-101.53
-91.48
-90.83
-97.31
-105.38
-108.62
-102.63
-86.85
-64.82
-42.7
-27.07
-22.87
-32.22
-54.16
-84.94
-118.7
-148.52
-167.77
-171.83
-159.46
-133.36
-99.36
-64.53
-34.97
-14.1
-2.24
2.72
4.04
4.88
7.73
14.17
25.0
40.07
58.15
76.97
93.75
106.22
113.81
118.19
122.65
130.43
142.75
157.7
170.62
176.03
169.95
151.53
123.14
89.01
53.23
18.29
-15.34
-48.58
-82.75
-118.71
-156.83
-197.35
-240.6
-286.84
-335.59
-385.06
-432.22
-473.69
-506.84
-530.62
-545.4
-552.08
-550.95
-541.28
-521.89
-492.27
-453.58
-408.69
-361.29
-314.69
-270.73
-229.77
-191.16
-154.0
-117.54
-81.23
-44.77
-8.19
27.86
62.0
92.25
116.66
134.08
144.62
149.63
151.2
151.47
152.15
154.27
158.3
164.16
171.33
178.82
185.2
188.96
188.92
184.63
176.55
165.82
153.91
142.08
131.11
121.21
112.09
103.28
94.34
85.09
75.57
66.05
56.82
48.05
39.69
31.51
23.17
14.51
5.68
-2.75
-9.91
-14.94
-17.23
-16.7
-13.75
-9.17
-3.84
1.49
6.35
10.52
13.96
16.67
18.69
20.07
20.88
21.26
21.4
21.53
21.78
22.19
22.63
22.95
22.99
22.78
22.48
22.33
22.46
22.83
23.19
23.12
22.29
20.53
17.93
14.72
11.28
7.93
4.9
2.29
0.07
-1.96
-4.06
-6.55
-9.68
-13.53
-17.96
-22.56
-26.72
-29.76
-31.05
-30.13
-26.85
-21.46
-14.52
-6.78
0.96
8.08
14.23
19.29
23.34
26.43
28.63
29.92
30.33
29.92
28.92
27.63
26.39
25.49
25.09
25.17
25.62
26.26
26.89
27.4
27.76
28.02
28.26
28.52
28.76
28.87
28.67
28.0
26.72
24.84
22.45
19.76
16.97
14.24
11.59
8.95
6.17
3.11
-0.32
-4.08
-8.08
-12.05
-15.58
-18.18
-19.35
-18.76
-16.39
-12.51
-7.66
-2.37
2.92
7.95
12.64
16.95
20.8
24.09
26.75
28.75
30.18
31.21
31.99
32.65
33.29
33.96
34.7
35.53
36.42
37.36
38.37
39.39
40.35
41.09
41.43
41.19
40.27
38.7
36.6
34.13
31.43
28.58
25.54
22.26
18.74
15.01
11.21
7.49
3.96
0.63
-2.61
-5.91
-9.32
-12.8
-16.14
-19.04
-21.19
-22.37
-22.4
-21.17
-18.66
-14.98
-10.41
-5.36
-0.32
4.33
8.35
11.74
14.6
17.05
19.18
20.98
22.4
23.46
24.23
24.82
25.38
26.05
26.9
27.92
29.03
30.08
30.89
31.32
31.32
30.93
30.23
29.29
28.15
26.85
25.37
23.76
22.0
20.13
18.11
15.94
13.64
11.28
8.97
6.79
4.72
2.64
0.42
-2.09
-4.9
-7.88
-10.78
-13.27
-14.98
-15.64
-15.06
-13.23
-10.32
-6.65
-2.65
1.23
4.61
7.27
9.12
10.28
10.96
11.4
11.79
12.23
12.74
13.25
13.71
14.1
14.45
14.81
15.25
15.85
16.59
17.44
18.27
18.91
19.2
19.04
18.42
17.44
16.21
14.88
13.53
12.25
11.06
10.06
9.31
8.84
8.64
8.64
8.77
8.98
9.29
9.69
10.16
10.64
11.11
11.68
12.58
14.19
16.87
20.89
26.27
32.85
40.39
48.59
57.24
66.17
75.23
84.26
93.11
101.76
110.31
119.06
128.36
138.5
149.55
161.35
173.6
186.01
198.53
211.33
224.74
238.98
253.99
269.25
283.81
296.34
305.31
309.17
306.66
297.14
280.96
259.58
235.31
210.72
187.88
167.78
150.22
134.18
118.42
102.09
84.96
67.28
49.45
31.75
14.21
-3.33
-21.09
-39.25
-57.94
-77.29
-97.4
-118.32
-139.93
-162.01
-184.24
-206.35
-228.34
-250.62
-274.06
-299.55
-327.47
-356.97
-385.7
-410.12
-426.35
-431.31
-423.62
-403.93
-374.69
-339.39
-301.74
-264.92
-231.19
-201.7
-176.65
-155.59
-137.79
-122.55
-109.31
-97.66
-87.24
-77.65
-68.65
-60.3
-53.04
-47.64
-44.75
-44.41
-45.64
-46.41
-44.14
-36.5
-22.23
-1.51
24.14
52.46
80.92
107.04
128.49
143.14
149.46
147.03
137.05
122.08
105.27
89.17
74.85
61.77
48.64
34.55
19.7
5.42
-6.62
-15.2
-20.13
-22.09
-21.92
-20.01
-16.03
-9.11
1.56
15.93
32.73
49.69
64.2
74.36
79.45
79.94
76.97
71.91
66.22
61.68
60.74
66.21
80.31
103.13
131.55
159.35
178.82
183.34
169.75
139.55
98.35
53.89
13.65
-17.18
-36.69
-46.31
-49.83
-52.02
-57.3
-68.69
-87.24
-112.16
-141.29
-171.92
-201.71
-229.22
-254.17
-277.17
-299.15
-320.72
-341.68
-360.93
-376.8
-387.64
-392.41
-391.16
-385.07
-376.19
-366.85
-358.98
-353.58
-350.38
-347.96
-344.07
-336.25
-322.49
-301.74
-274.09
-240.58
-202.91
-162.88
-122.2
-82.11
-43.32
-5.72
31.61
70.14
111.1
154.47
198.36
238.96
271.48
291.54
296.42
285.42
259.55
220.93
172.62
118.87
65.33
18.73
-14.72
-31.38
-31.87
-21.29
-7.65
0.9
-1.25
-15.85
-41.0
-72.79
-107.09
-140.76
-171.71
-198.27
-218.56
-230.37
-231.76
-222.03
-202.37
-175.68
-145.61
-115.3
-86.62
-60.0
-35.09
-11.6
10.16
29.3
44.83
56.19
63.68
68.24
71.13
73.47
75.92
78.71
81.84
85.26
89.02
93.17
97.62
102.05
105.94
108.65
109.66
108.71
105.8
101.16
95.21
88.45
81.37
74.46
68.04
62.34
57.42
53.2
49.5
46.09
42.55
38.48
33.45
27.24
19.98
12.28
5.17
-0.19
-2.75
-1.96
2.11
8.84
17.24
26.34
35.29
43.53
50.73
56.66
61.16
64.18
65.82
66.4
66.41
66.37
66.75
67.75
69.27
71.0
72.55
73.61
74.1
74.12
73.84
73.39
72.74
71.75
70.21
68.06
65.34
62.23
58.87
55.33
51.6
47.61
43.4
39.07
34.85
30.89
27.31
24.04
20.87
17.52
13.63
9.01
3.75
-1.7
-6.48
-9.56
-10.04
-7.5
-2.09
5.48
14.24
23.18
31.51
38.7
44.49
48.77
51.62
53.25
53.97
54.14
54.07
54.02
54.13
54.48
55.1
55.99
57.09
58.31
59.54
60.65
61.53
62.08
62.13
61.51
60.07
57.74
54.63
50.96
47.05
43.14
39.38
35.76
32.22
28.69
25.16
21.66
18.23
14.95
11.86
9.04
6.49
4.18
1.9
-0.61
-3.68
-7.48
-11.95
-16.63
-20.83
-23.68
-24.38
-22.54
-18.19
-11.87
-4.43
3.18
10.2
16.14
20.84
24.41
27.04
28.94
30.28
31.12
31.54
31.63
31.54
31.49
31.64
32.08
32.8
33.65
34.49
35.22
35.78
36.2
36.43
36.4
35.97
35.03
33.58
31.65
29.41
27.0
24.55
22.14
19.83
17.65
15.61
13.68
11.82
9.99
8.13
6.23
4.31
2.4
0.51
-1.37
-3.24
-5.21
-7.38
-9.89
-12.84
-16.21
-19.77
-23.05
-25.46
-26.35
-25.32
-22.3
-17.59
-11.79
-5.64
0.2
5.23
9.21
12.1
14.03
15.16
15.72
15.92
15.97
16.02
16.21
16.59
17.16
17.82
18.43
18.87
19.05
19.0
18.84
18.72
18.73
18.89
19.08
19.1
18.77
17.93
16.6
14.89
13.02
11.22
9.63
8.28
7.08
5.86
4.49
2.9
1.15
-0.66
-2.41
-4.07
-5.69
-7.39
-9.25
-11.33
-13.59
-15.95
-18.32
-20.56
-22.48
-23.8
-24.2
-23.36
-21.1
-17.5
-12.9
-7.84
-2.96
1.21
4.39
6.53
7.8
8.48
8.8
8.89
8.78
8.48
8.02
7.51
7.12
6.99
7.17
7.6
8.14
8.62
8.95
9.08
9.03
8.8
8.39
7.77
6.92
5.89
4.72
3.52
2.34
1.22
0.12
-1.0
-2.17
-3.42
-4.76
-6.17
-7.66
-9.22
-10.85
-12.6
-14.53
-16.64
-18.82
-20.78
-22.09
-22.22
-20.88
-18.03
-13.98
-9.31
-4.65
-0.52
2.79
5.17
6.64
7.28
7.21
6.63
5.77
4.87
4.11
3.57
3.23
3.04
2.94
2.92
2.95
3.01
3.04
2.97
2.74
2.35
1.79
1.12
0.35
-0.51
-1.46
-2.5
-3.64
-4.88
-6.16
-7.39
-8.42
-9.16
-9.51
-9.49
-9.22
-8.9
-8.74
-8.9
-9.39
-10.01
-10.31
-9.71
-7.68
-3.96
1.29
7.54
14.07
20.19
25.57
30.19
34.34
38.37
42.5
46.7
50.77
54.53
57.95
61.35
65.25
70.28
76.81
84.78
93.73
102.93
111.78
120.11
128.27
137.0
147.0
158.64
171.77
185.79
199.98
213.67
226.18
236.64
243.86
246.56
243.98
236.34
224.92
211.5
197.55
183.64
169.35
153.78
136.17
116.26
94.12
69.78
43.1
13.94
-17.44
-50.09
-82.53
-113.47
-142.5
-170.46
-199.45
-232.4
-272.22
-320.51
-376.07
-433.99
-485.93
-522.14
-534.73
-520.56
-482.55
-428.37
-367.25
-306.56
-249.7
-196.25
-143.68
-89.5
-32.62
26.4
86.0
144.2
198.94
248.15
289.88
322.57
345.34
358.25
362.48
360.13
353.95
346.68
340.41
335.95
332.67
328.8
322.27
311.69
296.87
278.81
259.13
239.37
220.45
202.5
185.09
167.49
149.0
129.13
107.67
84.73
60.75
36.24
11.69
-12.63
-36.72
-60.83
-85.35
-110.71
-137.31
-165.46
-195.12
-225.7
-255.89
-283.95
-308.08
-327.03
-340.49
-348.99
-353.62
-355.4
-354.9
-352.19
-347.04
-339.21
-328.61
-315.35
-299.64
-281.85
-262.58
-242.69
-223.31
-205.51
-190.1
-177.43
-167.35
-159.31
-152.49
-146.01
-139.0
-130.82
-121.17
-110.2
-98.53
-87.14
-77.14
-69.51
-64.79
-62.88
-62.98
-63.76
-63.76
-61.87
-57.63
-51.38
-44.1
-37.07
-31.57
-28.64
-28.93
-32.62
-39.23
-47.49
-55.35
-60.34
-60.28
-54.04
-42.07
-26.26
-9.25
6.51
19.5
29.42
36.8
42.49
47.03
50.48
52.55
52.92
51.64
49.22
46.67
45.31
46.44
50.96
59.06
70.04
82.57
95.01
105.91
114.3
119.72
122.07
121.46
118.17
112.61
105.39
97.23
88.98
81.45
75.46
71.72
70.65
72.16
75.54
79.49
82.54
83.52
81.84
77.55
71.07
62.83
53.15
42.31
30.66
18.69
6.93
-4.21
-14.55
-24.03
-32.59
-40.1
-46.39
-51.37
-55.2
-58.21
-60.77
-63.15
-65.42
-67.54
-69.51
-71.43
-73.49
-75.91
-78.8
-82.09
-85.47
-88.47
-90.51
-91.12
-90.06
-87.51
-84.04
-80.47
-77.6
-76.01
-75.88
-76.87
-78.38
-79.49
-79.31
-77.04
-72.19
-64.67
-54.86
-43.5
-31.59
-20.1
-9.78
-1.06
5.87
11.0
14.33
15.92
15.9
14.62
12.74
11.05
10.34
11.11
13.41
16.85
20.79
24.6
27.9
30.61
32.88
34.9
36.72
38.23
39.21
39.52
39.14
38.19
36.88
35.37
33.67
31.66
29.18
26.14
22.63
18.95
15.56
12.92
11.33
10.79
10.97
11.28
11.07
9.84
7.53
4.5
1.6
-0.1
0.38
3.66
9.74
18.01
27.41
36.79
45.13
51.81
56.58
59.5
60.85
60.97
60.23
59.02
57.78
56.98
57.08
58.37
60.84
64.14
67.61
70.56
72.49
73.23
72.92
71.83
70.04
67.38
63.55
58.34
51.86
44.6
37.26
30.52
24.84
20.42
17.2
14.95
13.38
12.22
11.32
10.66
10.37
10.58
11.32
12.32
12.98
12.47
9.91
4.62
-3.7
-14.69
-27.34
-39.93
-50.36
-56.58
-57.22
-51.98
-41.82
-28.63
-14.79
-2.44
6.92
12.67
14.93
14.26
11.35
6.77
0.91
-5.92
-13.37
-21.02
-28.42
-35.24
-41.38
-46.85
-51.69
-55.74
-58.69
-60.13
-59.87
-58.08
-55.3
-52.24
-49.53
-47.45
-46.0
-44.89
-43.76
-42.43
-40.86
-39.2
-37.7
-36.58
-35.97
-35.89
-36.22
-36.8
-37.46
-38.0
-38.29
-38.3
-38.09
-37.85
-37.9
-38.64
-40.42
-43.44
-47.48
-51.83
-55.33
-56.6
-54.51
-48.58
-39.17
-27.44
-14.91
-3.04
7.27
15.6
22.04
26.85
30.27
32.56
33.96
34.73
35.15
35.36
35.45
35.39
35.2
35.03
35.12
35.72
36.91
38.58
40.45
42.18
43.49
44.23
44.3
43.57
41.85
38.96
34.77
29.29
22.69
15.23
7.17
-1.29
-10.0
-18.82
-27.55
-35.8
-43.18
-49.3
-53.95
-57.14
-59.1
-60.15
-60.56
-60.45
-59.81
-58.53
-56.59
-54.19
-51.8
-49.97
-49.15
-49.37
-50.08
-50.14
-48.12
-42.7
-33.07
-19.28
-2.31
16.17
34.2
49.89
61.97
69.9
73.91
74.71
73.23
70.29
66.54
62.47
58.5
55.02
52.39
50.78
50.15
50.15
50.23
49.68
47.78
43.94
37.8
29.43
19.31
8.3
-2.65
-12.66
-21.22
-28.25
-33.98
-38.82
-43.14
-47.12
-50.77
-53.95
-56.51
-58.37
-59.59
-60.35
-60.93
-61.71
-63.06
-65.33
-68.73
-73.21
-78.3
-83.09
-86.37
-87.0
-84.26
-78.09
-69.14
-58.56
-47.55
-37.11
-27.77
-19.75
-13.04
-7.61
-3.45
-0.51
1.36
2.53
3.52
4.89
7.04
10.08
13.84
17.93
21.96
25.63
28.81
31.44
33.46
34.7
35.01
34.24
32.39
29.67
26.41
22.99
19.73
16.8
14.17
11.71
9.14
6.28
3.0
-0.58
-4.2
-7.56
-10.41
-12.74
-14.75
-16.82
-19.32
-22.54
-26.59
-31.33
-36.3
-40.79
-43.89
-44.72
-42.66
-37.57
-29.91
-20.61
-10.81
-1.48
6.71
13.55
19.12
23.67
27.41
30.51
33.05
35.12
36.89
38.56
40.41
42.67
45.5
48.92
52.76
56.76
60.56
63.84
66.38
68.16
69.36
70.27
71.21
72.43
74.02
75.86
77.67
79.15
80.14
80.71
81.2
82.15
84.01
86.94
90.58
94.12
96.48
96.81
94.81
90.99
86.53
82.88
81.23
81.98
84.42
86.71
86.17
79.84
65.38
41.83
10.26
-26.14
-62.74
-94.52
-117.4
-129.2
-129.98
-121.73
-107.56
-90.93
-74.9
-61.73
-52.65
-47.82
-46.29
-46.41
-46.2
-43.97
-38.8
-30.77
-20.77
-10.18
-0.29
8.12
14.91
20.55
25.83
31.49
37.83
44.57
50.88
55.66
57.92
57.14
53.41
47.32
39.72
31.44
23.07
14.97
7.35
0.32
-6.01
-11.55
-16.33
-20.42
-24.02
-27.34
-30.57
-33.84
-37.2
-40.65
-44.18
-47.78
-51.49
-55.3
-59.17
-62.91
-66.29
-69.04
-70.89
-71.49
-70.4
-67.06
-60.89
-51.63
-39.57
-25.64
-11.21
2.33
14.0
23.46
30.88
36.69
41.2
44.53
46.63
47.55
47.5
46.85
45.99
45.12
44.25
43.21
41.87
40.25
38.57
37.09
35.92
34.91
33.65
31.63
28.44
24.03
18.74
13.1
7.67
2.82
-1.35
-5.03
-8.5
-12.04
-15.9
-20.19
-24.93
-30.08
-35.49
-40.92
-46.09
-50.74
-54.84
-58.56
-62.27
-66.26
-70.56
-74.75
-77.96
-79.13
-77.36
-72.29
-64.19
-53.92
-42.65
-31.59
-21.66
-13.44
-7.09
-2.51
0.52
2.3
3.09
3.16
2.82
2.41
2.24
2.58
3.54
5.08
7.01
9.1
11.11
12.92
14.44
15.66
16.56
17.12
17.27
16.93
16.04
14.62
12.71
10.46
8.03
5.6
3.3
1.23
-0.54
-2.01
-3.26
-4.41
-5.63
-7.06
-8.75
-10.69
-12.86
-15.27
-17.95
-21.02
-24.63
-28.91
-33.91
-39.48
-45.23
-50.43
-54.12
-55.31
-53.26
-47.72
-39.03
-28.09
-16.09
-4.26
6.41
15.29
22.19
27.28
30.94
33.6
35.62
37.27
38.67
39.97
41.28
42.77
44.53
46.54
48.7
50.86
52.92
54.85
56.61
58.13
59.24
59.67
59.21
57.78
55.47
52.56
49.41
46.31
43.42
40.76
38.15
35.35
32.22
28.73
25.02
21.34
17.94
14.93
12.21
9.59
6.78
3.62
0.09
-3.68
-7.47
-11.02
-14.09
-16.54
-18.38
-19.81
-21.24
-23.2
-26.03
-29.65
-33.3
-35.63
-35.05
-30.2
-20.56
-6.65
9.97
27.22
43.01
55.77
64.69
69.74
71.57
71.12
69.4
67.2
64.91
62.53
59.81
56.46
52.33
47.58
42.58
37.85
33.83
30.83
28.91
27.96
27.71
27.73
27.58
26.81
25.13
22.38
18.6
13.91
8.56
2.88
-2.64
-7.44
-10.97
-12.81
-12.87
-11.39
-8.93
-6.24
-4.11
-3.15
-3.69
-5.66
-8.64
-12.04
-15.32
-18.18
-20.71
-23.31
-26.54
-31.02
-37.25
-45.59
-56.05
-68.12
-80.57
-91.5
-98.74
-100.51
-96.09
-86.14
-72.5
-57.54
-43.36
-31.3
-21.78
-14.62
-9.42
-5.84
-3.59
-2.41
-1.93
-1.68
-1.2
-0.14
1.68
4.35
7.85
12.18
17.28
22.94
28.86
34.55
39.47
43.11
45.08
45.2
43.52
40.23
35.58
29.77
22.96
15.34
7.13
-1.38
-9.93
-18.37
-26.74
-35.16
-43.68
-52.23
-60.56
-68.49
-75.97
-83.32
-90.94
-99.18
-108.11
-117.37
-126.27
-133.92
-139.31
-141.39
-139.1
-131.57
-118.3
-99.52
-76.26
-50.35
-24.07
0.4
21.44
38.29
51.09
60.48
67.24
71.9
74.7
75.71
75.02
73.08
70.63
