59.9
61.46
62.65
63.88
65.36
67.05
68.69
70.0
70.82
71.21
71.33
71.38
71.42
71.34
70.94
69.92
68.06
65.27
61.64
57.47
53.2
49.28
46.05
43.53
41.46
39.42
36.94
33.75
29.82
25.37
20.68
16.04
11.59
7.28
2.9
-1.9
-7.45
-13.97
-21.35
-29.03
-35.99
-40.88
-42.43
-39.79
-32.88
-22.44
-9.87
3.16
15.1
24.88
32.03
36.55
38.86
39.48
38.96
37.79
36.34
34.88
33.64
32.77
32.42
32.69
33.64
35.25
37.34
39.64
41.82
43.6
44.79
45.31
45.16
44.34
42.84
40.72
38.07
35.07
31.91
28.76
25.68
22.63
19.55
16.4
13.18
9.88
6.43
2.68
-1.54
-6.33
-11.51
-16.65
-21.01
-23.77
-24.24
-22.04
-17.2
-10.19
-1.78
7.09
15.52
22.8
28.54
32.64
35.23
36.54
36.85
36.41
35.49
34.37
33.32
32.62
32.44
32.82
33.67
34.79
35.96
36.97
37.66
37.88
37.5
36.35
34.3
31.3
27.46
23.04
18.4
13.9
9.75
6.03
2.62
-0.66
-4.01
-7.45
-10.89
-14.04
-16.64
-18.54
-19.8
-20.81
-22.1
-24.19
-27.42
-31.76
-36.73
-41.51
-45.07
-46.42
-44.9
-40.33
-33.21
-24.53
-15.58
-7.55
-1.21
3.19
5.95
7.63
8.8
9.89
11.04
12.24
13.43
14.56
15.65
16.78
17.91
18.95
19.65
19.78
19.22
18.05
16.53
15.06
13.94
13.24
12.81
12.32
11.46
10.03
8.06
5.74
3.24
0.71
-1.79
-4.3
-6.83
-9.38
-11.9
-14.3
-16.53
-18.54
-20.29
-21.83
-23.26
-24.8
-26.77
-29.5
-33.23
-38.0
-43.55
-49.28
-54.36
-57.82
-58.85
-56.97
-52.15
-44.91
-36.15
-26.98
-18.42
-11.25
-5.84
-2.19
-0.03
1.13
1.76
2.27
2.94
3.95
5.39
7.29
9.61
12.23
14.91
17.35
19.25
20.42
20.86
20.77
20.42
20.02
19.63
19.12
18.34
17.15
15.57
13.73
11.85
10.06
8.41
6.87
5.34
3.78
2.21
0.71
-0.6
-1.68
-2.53
-3.34
-4.38
-5.97
-8.33
-11.46
-15.13
-18.9
-22.32
-25.02
-26.92
-28.19
-29.19
-30.38
-32.16
-34.7
-37.86
-41.12
-43.58
-44.23
-42.18
-37.01
-28.99
-19.0
-8.39
1.47
9.48
15.07
18.21
19.27
18.95
17.99
17.09
16.78
17.33
18.73
20.81
23.19
25.49
27.34
28.43
28.58
27.75
26.06
23.77
21.21
18.69
16.49
14.76
13.61
13.06
13.15
13.79
14.79
15.82
16.38
16.01
14.35
11.32
7.1
2.12
-3.04
-7.77
-11.57
-14.16
-15.5
-15.87
-15.73
-15.68
-16.15
-17.33
-19.03
-20.76
-21.91
-21.94
-20.56
-17.79
-13.89
-9.25
-4.27
0.75
5.53
9.8
13.28
15.72
17.06
17.48
17.41
17.45
18.07
19.57
21.9
24.77
27.81
30.69
33.17
35.11
36.4
36.94
36.73
35.88
34.65
33.32
32.17
31.36
30.95
31.0
31.55
32.58
33.93
35.19
35.73
34.84
32.07
27.46
21.62
15.61
10.61
7.51
6.64
7.7
9.86
12.06
13.33
13.06
11.23
8.45
5.86
4.91
7.01
13.15
23.58
37.74
54.33
71.63
87.88
101.74
112.43
119.86
124.47
127.05
128.49
129.65
131.13
133.05
135.03
136.12
135.12
130.84
122.59
110.3
94.44
75.81
55.2
33.33
10.82
-11.63
-33.18
-52.94
-70.2
-84.66
-96.42
-105.93
-113.68
-120.06
-125.24
-129.28
-132.24
-134.33
-135.93
-137.56
-139.67
-142.47
-145.81
-149.24
-152.13
-154.01
-154.72
-154.44
-153.62
-152.69
-151.9
-151.35
-150.99
-150.82
-150.81
-150.66
-149.72
-146.86
-140.79
-130.59
-116.09
-98.13
-78.3
-58.5
-40.37
-24.89
-12.32
-2.35
5.63
12.29
18.15
23.5
28.39
32.76
36.51
39.7
42.5
45.15
47.7
49.97
51.54
51.98
51.12
49.15
46.64
44.21
42.32
41.05
40.1
39.0
37.29
34.75
31.49
27.83
24.17
20.8
17.71
14.65
11.16
6.84
1.45
-4.91
-11.93
-19.15
-26.21
-32.89
-39.11
-44.95
-50.49
-55.9
-61.38
-67.11
-73.12
-79.06
-84.18
-87.35
-87.47
-83.78
-76.28
-65.7
-53.3
-40.43
-28.26
-17.53
-8.61
-1.63
3.43
6.63
8.17
8.33
7.53
6.24
4.98
4.2
4.23
5.28
7.34
10.21
13.6
17.1
20.32
22.91
24.55
25.04
24.26
22.26
19.25
15.62
11.83
8.29
5.3
2.9
0.94
-0.82
-2.68
-4.83
-7.36
-10.27
-13.49
-16.97
-20.77
-24.96
-29.6
-34.54
-39.27
-42.92
-44.42
-42.82
-37.67
-29.26
-18.56
-6.94
4.26
14.04
21.9
27.77
31.81
34.31
35.58
35.99
35.98
35.97
36.24
36.81
37.41
37.62
37.05
35.52
33.13
30.16
26.86
23.42
19.81
15.96
11.83
7.53
3.28
-0.65
-4.03
-6.76
-8.9
-10.65
-12.27
-14.08
-16.33
-19.15
-22.5
-26.17
-29.87
-33.29
-36.27
-38.86
-41.42
-44.48
-48.63
-54.12
-60.67
-67.32
-72.61
-74.95
-73.19
-66.99
-56.95
-44.41
-31.0
-18.23
-7.15
1.76
8.48
13.33
16.81
19.44
21.74
24.06
26.53
29.12
31.66
33.99
36.08
38.02
39.9
41.78
43.57
45.12
46.31
47.08
47.43
47.35
46.64
45.12
42.64
39.36
35.7
32.21
29.31
27.03
25.01
22.69
19.57
15.5
10.67
5.54
0.6
-3.93
-8.12
-12.38
-17.3
-23.41
-30.85
-39.2
-47.35
-53.75
-56.81
-55.33
-48.93
-38.19
-24.44
-9.44
5.06
17.78
28.04
35.84
41.66
46.23
50.26
54.23
58.35
62.6
66.88
71.15
75.45
79.91
84.62
89.57
94.64
99.64
104.41
108.93
113.19
117.18
120.76
123.68
125.67
126.57
126.45
125.54
124.09
122.22
119.82
116.54
111.99
105.96
98.48
89.84
80.43
70.47
60.0
48.77
36.41
22.54
6.91
-10.59
-29.85
-50.5
-71.84
-92.74
-111.8
-127.54
-138.86
-145.33
-147.34
-145.99
-142.64
-138.63
-134.87
-131.9
-129.88
-128.79
-128.47
-128.58
-128.6
-127.75
-125.16
-120.04
-111.89
-100.73
-87.11
-72.06
-56.8
-42.38
-29.44
-18.12
-8.12
1.01
9.64
17.87
25.55
32.43
38.27
43.02
46.76
49.66
51.93
53.72
55.2
56.46
57.54
58.33
58.66
58.34
57.29
55.57
53.31
50.62
47.54
43.96
39.67
34.46
28.21
21.04
13.4
6.05
0.05
-3.59
-4.16
-1.54
3.72
10.51
17.58
23.8
28.43
31.09
31.65
30.13
26.64
21.49
15.22
8.53
2.18
-3.26
-7.51
-10.59
-12.74
-14.26
-15.37
-16.21
-16.86
-17.42
-18.12
-19.19
-20.83
-23.1
-25.87
-28.86
-31.72
-34.23
-36.3
-38.06
-39.67
-41.28
-42.94
-44.53
-45.89
-46.9
-47.51
-47.79
-47.91
-48.09
-48.54
-49.46
-51.08
-53.67
-57.52
-62.76
-69.2
-76.15
-82.37
-86.35
-86.7
-82.58
-74.11
-62.26
-48.6
-34.79
-22.16
-11.47
-2.94
3.55
8.3
11.63
13.8
15.15
16.0
16.74
17.79
19.4
21.7
24.6
27.82
31.01
33.84
36.1
37.71
38.69
39.11
39.02
38.4
37.24
35.54
33.38
30.88
28.21
25.5
22.83
20.19
17.57
14.96
12.35
9.78
7.28
4.85
2.42
-0.11
-2.89
-6.0
-9.42
-12.97
-16.39
-19.45
-22.13
-24.59
-27.25
-30.62
-35.15
-41.04
-48.13
-55.82
-63.09
-68.7
-71.36
-70.13
-64.67
-55.44
-43.51
-30.33
-17.33
-5.6
4.22
11.97
17.82
22.13
25.35
27.93
30.18
32.31
34.36
36.27
37.93
39.23
40.14
40.69
40.97
41.1
41.22
41.44
41.81
42.32
42.87
43.25
43.2
42.47
40.87
38.33
34.92
30.86
26.48
22.13
18.1
14.57
11.57
8.95
6.49
3.94
1.09
-2.19
-5.85
-9.8
-13.86
-17.81
-21.47
-24.74
-27.63
-30.37
-33.34
-36.99
-41.71
-47.54
-54.02
-60.11
-64.39
-65.45
-62.36
-54.94
-43.92
-30.69
-16.92
-4.13
6.62
14.87
20.62
24.27
26.36
27.5
28.25
29.04
30.19
31.81
33.93
36.49
39.39
42.51
45.77
49.08
52.42
55.8
59.24
62.71
66.08
69.17
71.72
73.63
74.94
75.88
76.88
78.39
80.75
84.08
88.2
92.74
97.34
101.75
106.02
110.52
115.77
122.28
130.32
139.79
150.21
160.68
170.09
177.37
181.76
183.02
181.57
178.27
174.12
169.8
165.41
160.31
153.36
143.34
129.36
111.29
89.76
66.07
41.77
18.28
-3.42
-22.82
-39.85
-54.64
-67.36
-78.12
-87.02
-94.26
-100.2
-105.32
-110.2
-115.29
-120.78
-126.49
-132.07
-137.09
-141.32
-144.82
-147.84
-150.65
-153.31
-155.58
-156.98
-157.03
-155.38
-151.9
-146.74
-140.19
-132.7
-124.88
-117.42
-111.13
-106.64
-104.23
-103.52
-103.5
-102.66
-99.4
-92.44
-81.17
-65.74
-46.92
-25.87
-3.89
17.77
38.02
55.99
71.05
82.93
91.71
97.93
102.4
106.01
109.31
112.32
114.34
114.22
110.88
103.85
93.62
81.46
68.91
57.15
46.5
36.37
25.54
12.51
-4.1
-25.3
-51.37
-81.48
-113.31
-143.28
-167.52
-183.46
-191.33
-194.44
-198.18
-207.63
-225.3
-249.83
-276.44
-298.88
-311.73
-312.09
-299.97
-277.43
-247.29
-212.12
-173.89
-134.23
-94.82
-57.64
-24.75
2.26
22.82
37.59
48.13
56.24
63.04
68.75
72.82
74.69
74.29
72.22
69.3
65.93
61.61
55.15
45.32
31.71
15.19
-2.23
-18.07
-30.23
-37.53
-39.89
-38.1
-33.46
-27.31
-20.79
-14.65
-9.19
-4.29
0.38
5.14
10.1
15.05
19.71
23.9
27.72
31.55
35.78
40.54
45.48
49.88
52.88
53.8
52.46
49.27
45.12
41.12
38.33
37.45
38.78
42.19
47.28
53.54
60.52
68.0
75.87
84.1
92.41
100.1
106.02
108.68
106.76
99.48
87.08
70.88
52.98
35.63
20.63
8.9
0.44
-5.37
-9.42
-12.54
-15.41
-18.55
-22.4
-27.26
-33.15
-39.78
-46.53
-52.73
-57.92
-62.13
-66.02
-70.6
-76.91
-85.59
-96.69
-109.68
-123.71
-137.83
-151.12
-162.73
-171.75
-177.51
-179.86
-179.35
-176.94
-173.31
-168.09
-159.53
-145.03
-122.23
-90.35
-50.85
-7.2
36.31
75.74
108.36
132.76
148.5
155.79
155.41
148.98
138.84
127.7
117.78
110.24
105.0
101.05
97.16
92.19
85.16
75.08
60.84
41.51
16.92
-11.88
-42.68
-72.67
-99.25
-120.74
-136.51
-146.9
-152.78
-155.12
-154.62
-151.44
-145.25
-135.4
-121.48
-103.89
-83.98
-63.81
-45.3
-29.44
-15.99
-3.74
8.77
22.57
38.02
54.92
72.8
91.15
109.24
125.91
139.58
148.55
151.56
148.37
140.01
128.53
116.37
105.64
97.6
92.46
89.66
88.23
87.28
86.24
84.97
83.66
82.58
81.91
81.61
81.45
81.12
80.4
79.15
77.4
75.21
72.73
70.13
67.57
65.19
63.09
61.27
59.56
57.53
54.53
49.77
42.52
32.37
19.36
4.06
-12.57
-29.34
-45.07
-58.67
-69.22
-76.07
-78.89
-77.8
-73.4
-66.68
-58.78
-50.74
-43.27
-36.63
-30.71
-25.11
-19.33
-12.87
-5.4
3.11
12.39
21.84
30.68
38.23
44.09
48.29
51.24
53.5
55.5
57.44
59.14
60.26
60.46
59.69
58.13
56.17
54.21
52.48
50.97
49.56
48.14
46.78
45.7
45.27
45.71
47.01
48.79
50.41
51.12
50.21
47.21
41.9
34.3
24.66
13.37
0.92
-12.08
-24.98
-37.1
-47.87
-56.81
-63.64
-68.17
-70.34
-70.14
-67.57
-62.7
-55.7
-46.87
-36.8
-26.23
-16.01
-6.88
0.71
6.71
11.5
15.66
19.74
24.09
28.79
33.74
38.81
44.04
49.57
55.58
62.1
68.95
75.75
82.03
87.41
91.64
94.67
96.5
97.15
96.59
94.81
91.86
87.99
83.63
79.2
75.06
71.27
67.65
63.92
59.83
55.31
50.43
45.36
40.19
34.87
29.28
23.24
16.67
9.56
2.04
-5.71
-13.5
-21.05
-28.08
-34.21
-39.05
-42.29
-43.74
-43.53
-42.09
-40.1
-38.3
-37.24
-37.09
-37.65
-38.45
-39.03
-39.19
-39.04
-38.97
-39.39
-40.56
-42.39
-44.5
-46.3
-47.26
-47.14
-46.21
-45.2
-45.1
-46.73
-50.32
-55.21
-60.06
-63.25
-63.51
-60.36
-54.24
-46.2
-37.52
-29.28
-22.11
-16.18
-11.12
-6.15
-0.25
7.45
17.27
28.59
40.04
49.89
56.67
59.73
59.37
56.56
52.52
48.3
44.61
41.76
39.77
38.42
37.3
35.96
34.02
31.39
28.23
24.87
21.52
18.12
14.41
10.17
5.47
0.8
-3.1
-5.59
-6.43
-5.99
-5.1
-4.66
-5.27
-7.01
-9.5
-12.16
-14.44
-15.98
-16.6
-16.22
-14.86
-12.73
-10.37
-8.59
-8.31
-10.21
-14.39
-20.21
-26.52
-32.11
-36.2
-38.74
-40.36
-42.01
-44.5
-48.21
-52.98
-58.26
-63.23
-66.95
-68.42
-66.66
-60.9
-50.85
-36.95
-20.45
-3.2
12.83
25.87
34.69
38.62
37.59
32.15
23.44
13.13
3.11
-5.0
-10.22
-12.53
-12.66
-11.73
-10.8
-10.55
-11.29
-12.96
-15.23
-17.61
-19.65
-21.04
-21.77
-22.07
-22.13
-21.91
-21.02
-18.97
-15.53
-11.0
-6.17
-1.98
1.03
2.91
4.24
5.61
7.1
8.1
7.48
4.26
-1.79
-9.93
-18.55
-25.88
-30.72
-32.94
-33.46
-33.65
-34.62
-36.65
-39.2
-41.22
-41.7
-40.06
-36.16
-30.14
-22.28
-13.0
-2.92
7.09
16.01
22.96
27.53
29.89
30.75
31.1
31.88
33.71
36.73
40.53
44.29
47.06
48.13
47.34
45.12
42.24
39.35
36.61
33.57
29.53
24.04
17.27
10.09
3.66
-1.0
-3.37
-3.59
-2.19
0.07
2.45
4.28
4.94
3.96
1.16
-3.24
-8.55
-13.81
-18.1
-20.84
-21.94
-21.72
-20.63
-19.09
-17.29
-15.23
-12.83
-10.08
-7.09
-4.09
-1.4
0.74
2.29
3.38
4.33
5.41
6.71
8.05
9.05
9.28
8.51
6.77
4.38
1.82
-0.45
-2.07
-2.9
-2.98
-2.51
-1.83
-1.23
-0.83
-0.53
-0.06
0.84
2.22
3.84
5.22
5.84
5.41
3.93
1.73
-0.72
-2.99
-4.87
-6.37
-7.71
-9.22
-11.18
-13.74
-16.82
-20.17
-23.31
-25.62
-26.51
-25.58
-22.89
-19.2
-15.91
-14.78
-17.31
-24.1
-34.4
-46.29
-57.06
-64.17
-65.99
-62.16
-53.57
-41.88
-28.91
-16.12
-4.45
5.79
14.67
22.53
29.81
37.0
44.57
52.9
62.13
72.0
81.8
90.42
96.55
99.01
97.11
90.81
80.82
68.45
55.37
43.15
32.94
25.17
19.62
15.59
12.26
9.1
5.9
2.71
-0.46
-3.78
-7.65
-12.38
-17.93
-23.79
-29.1
-33.02
-35.08
-35.36
-34.38
-32.82
-31.15
-29.48
-27.66
-25.7
-24.09
-23.82
-25.97
-31.14
-39.0
-48.27
-57.38
-65.1
-71.02
-75.35
-78.28
-79.4
-77.63
-71.83
-61.61
-47.91
-32.78
-18.53
-6.74
2.27
9.29
15.47
21.62
27.77
33.31
37.51
39.89
40.5
39.85
38.63
37.46
36.77
36.73
37.31
38.42
39.81
40.95
40.83
37.98
30.91
18.88
2.59
-15.57
-32.02
-43.2
-46.78
-42.51
-32.11
-18.44
-4.33
8.2
18.2
25.45
30.01
31.89
31.11
27.87
22.73
16.61
10.55
5.49
2.12
0.77
1.45
4.08
8.61
15.05
23.34
33.03
42.99
51.39
56.06
55.12
47.76
34.63
17.76
-0.1
-16.32
-29.2
-38.23
-43.92
-47.36
-49.67
-51.62
-53.61
-55.68
-57.76
-59.75
-61.56
-63.09
-64.13
-64.31
-63.3
-60.88
-57.06
-52.01
-45.99
-39.13
-31.41
-22.72
-13.11
-2.95
6.96
15.46
21.4
24.01
23.36
20.47
17.14
15.4
16.68
21.3
28.32
35.99
42.51
46.62
47.88
46.45
42.73
37.05
29.74
21.35
12.78
5.17
-0.57
-4.17
-6.11
-7.36
-8.84
-11.02
-13.75
-16.63
-19.36
-21.92
-24.53
-27.33
-30.18
-32.87
-35.38
-38.2
-42.17
-47.97
-55.53
-63.71
-70.52
-73.76
-71.74
-63.76
-50.22
-32.46
-12.43
7.7
25.98
40.94
51.91
59.16
63.66
66.79
69.82
73.57
78.16
83.21
88.0
91.84
94.21
94.87
93.85
91.34
87.68
83.39
79.24
76.11
74.86
76.01
79.57
85.08
91.82
99.28
107.34
116.3
126.52
138.03
150.19
161.64
170.68
175.88
176.74
174.16
170.37
168.29
170.65
179.03
193.16
210.97
229.16
244.22
253.43
255.57
251.17
242.21
231.36
221.04
212.73
206.55
201.5
196.11
189.18
180.23
169.5
157.63
145.17
132.33
119.0
105.04
90.47
75.54
60.51
45.47
30.27
14.56
-1.88
-19.1
-36.88
-54.84
-72.65
-90.23
-107.83
-125.99
-145.22
-165.6
-186.49
-206.5
-224.04
-238.08
-248.88
-258.15
-268.48
-282.31
-300.89
-323.75
-348.93
-373.72
-395.52
-412.47
-423.73
-429.48
-430.7
-428.99
-426.09
-423.48
-421.86
-421.0
-419.77
-416.58
-409.82
-398.11
-380.57
-356.93
-327.6
-293.61
-256.35
-217.0
-175.99
-132.79
-86.31
-35.7
18.75
75.22
130.67
181.74
225.74
261.28
288.26
307.43
319.87
326.53
328.16
325.4
318.99
309.72
298.41
285.76
272.15
257.52
241.32
222.65
200.53
174.34
144.13
110.76
75.75
40.84
7.59
-22.97
-50.38
-74.56
-95.5
-113.12
-127.3
-138.06
-145.74
-151.01
-154.74
-157.76
-160.56
-163.35
-166.14
-168.96
-172.05
-175.78
-180.4
-185.73
-190.95
-194.69
-195.49
-192.26
-184.65
-173.1
-158.66
-142.55
-125.98
-109.94
-95.21
-82.42
-71.99
-64.06
-58.44
-54.66
-52.0
-49.53
-46.21
-40.9
-32.67
-21.12
-6.73
9.15
24.72
38.41
49.44
57.94
64.71
70.52
75.74
80.24
83.65
85.84
87.13
88.24
89.96
92.89
97.2
102.73
109.02
115.43
121.25
125.73
128.24
128.35
126.07
121.89
116.79
112.09
109.21
109.18
112.25
117.5
122.83
125.52
123.09
114.17
99.16
80.15
60.28
42.71
29.72
22.19
19.64
20.77
24.06
28.3
32.59
36.3
38.9
40.17
40.36
40.39
41.47
44.48
49.31
54.52
57.84
57.0
50.69
39.14
23.94
7.12
-9.72
-25.99
-41.91
-57.8
-73.41
-87.69
-99.1
-106.38
-109.02
-107.47
-102.67
-95.57
-86.65
-76.17
-64.66
-53.32
-43.95
-38.31
-37.22
-40.03
-44.82
-49.22
-51.45
-50.93
-48.32
-44.94
-42.01
-40.08
-38.95
-38.02
-36.7
-34.83
-32.63
-30.58
-29.07
-28.18
-27.63
-26.92
-25.6
-23.44
-20.61
-17.5
-14.64
-12.5
-11.34
-11.13
-11.67
-12.62
-13.65
-14.52
-15.08
-15.34
-15.36
-15.27
-15.2
-15.31
-15.67
-16.26
-16.89
-17.17
-16.56
-14.52
-10.7
-5.15
1.65
8.83
15.43
20.67
24.13
25.8
25.9
24.84
22.98
20.77
18.65
17.08
16.38
16.62
17.61
18.86
19.94
20.54
20.63
20.43
20.22
20.21
20.35
20.41
20.06
18.99
17.05
14.2
10.55
6.32
1.81
-2.65
-6.68
-10.03
-12.64
-14.68
-16.53
-18.61
-21.24
-24.51
-28.38
-32.68
-37.4
-42.59
-48.42
-54.9
-61.75
-68.3
-73.6
-76.57
-76.4
-72.71
-65.77
-56.39
-45.72
-34.96
-25.05
-16.51
-9.38
-3.35
2.03
7.09
11.98
16.58
20.63
23.94
26.44
28.31
29.83
31.32
32.99
34.89
36.94
39.0
40.9
42.54
43.8
44.6
44.81
44.28
42.93
40.72
37.78
34.34
30.72
27.22
24.03
21.22
18.72
16.41
14.15
11.8
9.26
6.5
3.54
0.45
-2.66
-5.75
-8.8
-11.93
-15.29
-19.12
-23.57
-28.71
-34.33
-39.9
-44.6
-47.42
-47.52
-44.41
-38.24
-29.68
-19.83
-9.87
-0.84
6.58
12.12
15.9
18.26
19.67
20.53
21.09
21.43
21.58
21.53
21.34
21.07
20.8
20.58
20.43
20.42
20.67
21.26
22.15
23.11
23.77
23.7
22.61
20.44
17.42
13.93
10.41
7.12
4.12
1.22
-1.84
-5.25
-9.0
-12.89
-16.65
-20.04
-23.07
-25.92
-28.9
-32.33
-36.43
-41.22
-46.47
-51.66
-56.05
-58.7
-58.75
-55.65
-49.42
-40.66
-30.43
-19.94
-10.26
-2.04
4.46
9.32
12.72
14.89
16.01
16.22
15.72
14.72
13.52
12.44
11.77
11.75
12.44
13.73
15.33
16.82
17.84
18.18
17.84
16.95
15.68
14.07
12.05
9.55
6.53
3.11
-0.48
-4.05
-7.43
-10.55
-13.34
-15.78
-17.84
-19.68
-21.69
-24.38
-28.15
-32.97
-38.17
-42.59
-44.87
-43.99
-39.55
-31.96
-22.19
-11.44
-0.81
8.88
17.13
23.69
28.5
31.64
33.3
33.76
33.32
32.28
30.94
29.53
28.3
27.48
27.19
27.49
28.27
29.35
30.5
31.5
32.12
32.15
31.39
29.7
27.03
23.53
19.43
15.04
10.64
6.34
2.11
-2.15
-6.48
-10.8
-14.96
-18.85
-22.52
-26.29
-30.54
-35.54
-41.14
-46.69
-51.12
-53.19
-51.95
-46.96
-38.51
-27.46
-15.07
-2.6
8.86
18.56
26.13
31.49
34.77
36.28
36.42
35.66
34.55
33.65
33.48
34.36
36.35
39.21
42.54
45.83
48.7
50.89
52.26
52.75
52.26
50.7
47.95
44.01
38.91
32.83
25.94
18.49
10.72
2.87
-4.87
-12.43
-19.86
-27.33
-35.05
-43.08
-51.24
-59.06
-65.72
-70.28
-71.77
-69.57
-63.43
-53.63
-40.92
-26.35
-11.16
3.39
16.15
26.29
33.4
37.56
39.27
39.32
38.5
37.47
36.64
36.23
36.36
37.18
38.81
41.23
44.23
47.39
50.2
52.24
53.3
53.38
52.62
51.13
48.93
45.98
42.28
38.02
33.56
29.25
25.25
21.31
16.79
10.94
3.19
-6.56
-17.88
-29.95
-41.74
-52.29
-60.75
-66.36
-68.5
-66.78
-61.27
-52.57
-41.84
-30.46
-19.74
-10.6
-3.39
2.0
5.93
8.87
11.1
12.72
13.69
13.93
13.5
12.65
11.79
11.37
11.69
12.85
14.65
16.73
18.68
20.15
20.87
20.68
19.51
17.31
14.15
10.16
5.6
0.8
-3.95
-8.45
-12.67
-16.72
-20.72
-24.72
-28.65
-32.37
-35.81
-39.04
-42.41
-46.34
-51.19
-56.88
-62.8
-67.78
-70.4
-69.4
-64.19
-54.97
-42.76
-28.99
-15.08
-2.19
8.97
18.02
24.85
29.57
32.51
34.19
35.26
36.3
37.7
39.59
41.87
44.36
46.87
49.28
51.51
53.46
55.0
56.07
56.6
56.58
55.96
54.71
52.77
50.12
46.81
42.9
38.41
33.32
27.52
21.03
14.01
6.86
0.07
-5.95
-11.02
-15.22
-18.82
-22.12
-25.41
-28.94
-33.01
-37.92
-43.88
-50.78
-58.01
-64.43
-68.71
-69.65
-66.61
-59.74
-49.86
-38.2
-26.06
-14.51
-4.28
4.19
10.75
15.46
18.56
20.4
21.44
22.13
22.84
23.85
25.2
26.82
28.44
29.77
30.54
30.62
30.1
29.24
28.33
27.5
26.64
25.44
23.51
20.6
16.76
12.3
7.67
3.31
-0.57
-3.94
-6.91
-9.6
-12.09
-14.41
-16.65
-18.98
-21.58
-24.55
-27.85
-31.29
-34.61
-37.68
-40.5
-43.3
-46.44
-50.26
-55.0
-60.62
-66.75
-72.62
-77.11
-78.96
-77.02
-70.65
-59.93
-45.8
-29.81
-13.72
0.91
13.16
22.74
29.97
35.43
39.7
43.16
46.02
48.36
50.32
52.1
53.96
56.09
58.59
61.45
64.59
67.94
71.37
74.64
77.4
79.2
79.59
78.3
75.36
71.05
65.8
59.94
53.58
46.59
38.75
29.94
20.3
10.23
0.26
-9.12
-17.64
-25.35
-32.51
-39.47
-46.51
-53.67
-60.61
-66.57
-70.5
-71.23
-67.9
-60.16
-48.39
-33.65
-17.51
-1.63
12.52
23.97
32.33
37.74
40.69
41.73
41.36
39.87
37.44
34.22
30.46
26.58
23.03
20.19
18.28
17.26
16.96
17.12
17.47
17.73
17.65
16.97
15.47
13.07
9.9
6.38
3.12
0.72
-0.41
-0.23
0.92
2.43
3.68
4.12
3.4
1.4
-1.85
-6.14
-11.09
-16.22
-20.89
-24.44
-26.33
-26.21
-24.02
-19.94
-14.36
-7.8
-0.8
6.12
12.5
17.97
22.26
25.21
26.78
27.08
26.32
24.81
22.86
20.81
19.0
17.69
17.03
17.03
17.47
18.03
18.35
18.21
17.6
16.63
15.48
14.15
12.43
9.95
6.26
1.09
-5.53
-13.34
-21.85
-30.55
-39.13
-47.45
-55.64
-63.91
-72.36
-80.92
-89.27
-96.9
-103.29
-108.02
-110.87
-111.84
-111.14
-109.18
-106.44
-103.31
-99.8
-95.32
-88.56
-77.7
-60.9
-37.01
-6.21
29.8
67.9
104.25
135.22
158.12
171.75
176.41
173.49
164.94
152.99
139.81
127.46
117.59
111.17
108.12
107.29
106.87
105.03
100.62
93.48
84.3
74.23
64.29
55.1
46.78
39.13
31.78
24.33
16.55
8.43
0.25
-7.5
-14.29
-19.82
-23.99
-26.9
-28.68
-29.47
-29.42
-28.77
-27.9
-27.23
-27.02
-27.34
-28.07
-29.15
-30.77
-33.42
-37.72
-44.01
-51.95
-60.3
-67.09
-70.27
-68.34
-60.99
-49.17
-34.8
-20.06
-6.69
4.38
13.04
19.81
25.35
30.24
34.82
39.28
43.73
48.28
53.07
58.12
63.38
68.69
73.78
78.36
82.14
84.84
86.21
86.01
83.99
79.86
73.28
63.9
51.59
36.59
19.67
2.11
-14.59
-29.17
-40.99
-50.3
-58.07
-65.69
-74.44
-85.16
-98.02
-112.6
-128.04
-143.24
-157.1
-168.69
-177.57
-183.87
-188.31
-191.7
-194.46
-196.17
-195.53
-190.92
-181.09
-165.93
-146.54
-124.99
-103.52
-83.9
-67.09
-53.18
-41.78
-32.26
-24.0
-16.49
-9.36
-2.33
4.91
12.8
21.89
32.67
45.34
59.61
74.84
90.36
105.74
120.88
135.69
149.63
161.67
170.48
175.17
175.73
173.1
168.63
163.24
157.05
149.51
140.02
128.62
116.16
103.87
92.66
82.51
72.43
60.98
47.04
30.31
11.49
-8.12
-27.01
-43.84
-57.53
-67.21
-72.26
-72.48
-68.3
-60.93
-52.11
-43.65
-36.89
-32.32
-29.63
-28.04
-26.84
-25.68
-24.64
-24.08
-24.26
-25.15
-26.48
-27.8
-28.75
-29.2
-29.2
-28.93
-28.56
-28.16
-27.78
-27.52
-27.59
-28.2
-29.49
-31.32
-33.31
-34.98
-35.97
-36.29
-36.29
-36.58
-37.74
-40.16
-43.81
-48.33
-53.16
-57.72
-61.58
-64.6
-67.02
-69.46
-72.76
-77.68
-84.61
-93.24
-102.43
-110.34
-114.7
-113.4
-104.94
-88.96
-66.39
-39.34
-10.66
16.77
40.65
59.78
74.1
84.42
91.9
97.64
102.17
105.47
106.9
105.48
100.26
90.89
77.97
63.22
49.13
38.26
32.42
31.99
35.87
42.0
48.11
52.49
54.42
53.98
51.8
48.64
45.23
42.2
40.06
38.98
38.59
37.95
35.67
30.43
21.49
9.1
-5.58
-20.81
-34.93
-46.89
-56.53
-64.5
-71.9
-79.8
-88.67
-98.08
-106.74
-112.83
-114.61
-111.08
-102.42
-89.83
-75.22
-60.6
-47.54
-36.91
-28.91
-23.27
-19.4
-16.7
-14.63
-12.77
-10.87
-8.87
-6.78
-4.67
-2.67
-0.83
0.87
2.6
4.56
6.9
9.49
11.85
13.21
12.81
10.23
5.67
-0.02
-5.66
-10.04
-12.33
-12.34
-10.48
-7.68
-5.06
-3.7
-4.26
-6.85
-10.95
-15.69
-20.1
-23.5
-25.65
-26.73
-27.27
-27.91
-29.29
-31.89
-35.84
-40.72
-45.57
-48.97
-49.47
-46.04
-38.46
-27.4
-14.18
-0.4
12.51
23.56
32.24
38.46
42.47
44.66
45.53
45.59
45.23
44.72
44.18
43.57
42.87
42.09
41.35
40.81
40.61
40.81
41.28
41.72
41.78
41.14
39.57
36.98
33.4
28.95
23.77
18.0
11.84
5.48
-0.88
-7.09
-13.0
-18.58
-23.88
-29.03
-34.24
-39.87
-46.33
-53.88
-62.48
-71.54
-79.93
-86.21
-89.02
-87.55
-81.81
-72.59
-61.15
-48.84
-36.68
-25.26
-14.69
-4.88
4.33
13.01
21.02
28.11
33.95
38.25
40.9
42.06
42.11
41.59
41.04
40.87
41.34
42.51
44.32
46.6
49.1
51.46
53.26
54.12
53.76
52.12
49.29
45.58
41.32
36.87
32.43
28.02
23.44
18.44
12.76
6.39
-0.47
-7.43
-14.08
-20.14
-25.6
-30.75
-36.05
-42.1
-49.43
-58.3
-68.41
-78.91
-88.37
-95.09
-97.56
-94.91
-87.2
-75.38
-60.98
-45.75
-31.18
-18.33
-7.71
0.62
6.94
11.63
15.13
17.88
20.31
22.85
25.95
29.91
34.83
40.46
46.29
51.7
56.18
59.52
61.9
63.73
65.43
67.12
68.56
69.2
68.48
66.0
61.76
56.07
49.47
42.48
35.54
28.86
22.54
16.61
11.03
5.72
0.52
-4.7
-10.09
-15.65
-21.26
-26.71
-31.77
-36.36
-40.63
-44.9
-49.54
-54.76
-60.35
-65.59
-69.34
-70.36
-67.67
-61.0
-50.82
-38.32
-25.03
-12.36
-1.36
7.5
14.17
18.9
22.0
23.75
24.33
23.85
22.46
20.36
17.88
15.48
13.71
13.07
13.97
16.47
20.36
25.17
30.32
35.22
39.38
42.43
44.07
44.17
42.72
39.98
36.38
32.5
28.81
25.63
22.91
20.36
17.53
14.12
10.07
5.66
1.35
-2.4
-5.37
-7.64
-9.65
-11.99
-15.34
-20.21
-26.72
-34.4
-42.2
-48.55
-51.85
-50.87
-45.24
-35.61
-23.44
-10.53
1.53
11.7
19.58
25.19
28.8
30.69
31.15
30.53
29.24
27.75
26.42
25.45
24.89
24.69
24.8
25.25
26.08
27.26
28.64
29.95
30.86
31.1
30.53
29.18
27.23
24.98
22.71
20.67
18.95
17.51
16.18
14.76
13.07
11.02
8.61
5.86
2.78
-0.6
-4.34
-8.58
-13.52
-19.28
-25.73
-32.35
-38.22
-42.2
-43.25
-40.76
-34.77
-26.0
-15.68
-5.16
4.36
12.08
17.69
21.28
23.17
23.77
23.4
22.34
20.77
18.94
17.15
15.76
15.02
15.09
16.0
17.68
20.01
22.91
26.22
29.75
33.21
36.24
38.47
39.58
39.4
37.93
35.36
32.04
28.42
24.91
21.79
19.09
16.58
13.9
10.66
6.59
1.64
-4.09
-10.44
-17.24
-24.34
-31.55
-38.62
-45.35
-51.75
-58.08
-64.83
-72.38
-80.65
-88.81
-95.34
-98.46
-96.71
-89.52
-77.41
-61.81
-44.57
-27.46
-11.82
1.55
12.31
20.49
26.32
30.2
32.66
34.3
35.61
36.97
38.6
40.61
43.06
45.95
49.21
52.64
55.98
58.86
60.93
61.88
61.55
59.89
57.0
53.14
48.6
43.7
38.64
33.57
28.59
23.73
19.05
14.51
10.03
5.43
0.47
-4.98
-10.9
-17.03
-22.99
-28.36
-32.92
-36.62
-39.69
-42.53
-45.61
-49.34
-53.83
-58.84
-63.64
-67.16
-68.25
-65.98
-60.04
-50.76
-39.09
-26.21
-13.25
-0.99
10.14
20.01
28.6
35.85
41.69
46.04
48.91
50.45
50.98
50.94
50.83
51.08
51.96
53.52
55.52
57.53
59.04
59.64
59.07
57.33
54.62
51.23
47.46
43.51
39.5
35.41
31.17
26.68
21.82
16.48
10.57
4.05
-3.02
-10.54
-18.26
-25.94
-33.26
-39.92
-45.65
-50.34
-54.01
-56.95
-59.56
-62.29
-65.39
-68.74
-71.85
-73.9
-73.99
-71.35
-65.62
-56.91
-45.83
-33.34
-20.56
-8.52
1.99
10.53
16.92
21.19
23.5
24.09
23.34
21.85
20.33
19.53
19.99
21.92
25.11
29.08
33.27
37.24
40.66
43.35
45.17
45.95
45.56
43.95
41.28
37.9
34.24
30.73
27.64
24.99
22.66
20.38
17.9
15.12
12.11
9.09
6.31
3.9
1.8
-0.27
-2.67
-5.71
-9.42
-13.47
-17.09
-19.19
-18.55
-14.2
-5.71
6.6
21.6
37.48
52.18
63.75
70.82
72.89
70.3
64.13
55.77
46.58
37.58
29.36
22.21
16.24
11.5
8.01
5.69
4.29
3.47
2.84
2.11
1.14
-0.11
-1.62
-3.47
-5.76
-8.63
-12.16
-16.27
-20.83
-25.63
-30.57
-35.61
-40.82
-46.25
-51.89
-57.55
-62.91
-67.56
-71.16
-73.6
-75.06
-76.01
-77.02
-78.55
-80.66
-82.83
-84.06
-83.15
-79.09
-71.49
-60.73
-47.9
-34.41
-21.66
-10.71
-2.11
4.09
8.18
10.7
12.25
13.36
14.47
15.8
17.36
19.03
20.57
21.79
22.55
22.84
22.77
22.51
22.24
22.04
21.87
21.55
20.89
19.76
18.21
16.45
14.73
13.25
12.09
11.25
10.67
10.27
9.91
9.36
8.3
6.36
3.29
-0.96
-6.14
-11.94
-18.07
-24.49
-31.35
-38.97
-47.59
-57.16
-67.19
-76.75
-84.57
-89.38
-90.18
-86.57
-78.99
-68.48
-56.48
-44.38
-33.2
-23.4
-14.94
-7.49
-0.62
6.07
12.87
19.95
27.36
34.97
42.5
49.56
55.76
60.83
64.69
67.47
69.31
70.27
70.3
69.22
66.84
63.08
58.06
52.03
45.41
38.5
31.56
24.69
17.9
11.18
4.57
-1.82
-7.84
-13.34
-18.28
-22.76
-26.98
-31.18
-35.65
-40.6
-46.16
-52.21
-58.38
-63.92
-67.77
-68.8
-66.08
-59.25
-48.58
-34.98
-19.71
-4.09
10.76
24.0
35.12
43.83
49.96
53.51
54.56
53.41
50.51
46.45
41.85
37.27
33.09
29.45
26.3
23.4
20.49
17.34
13.86
10.06
6.06
1.97
-2.08
-6.0
-9.76
-13.33
-16.63
-19.58
-22.04
-23.87
-24.99
-25.34
-24.88
-23.64
-21.7
-19.28
-16.88
-15.15
-14.69
-15.79
-18.19
-21.11
-23.44
-24.17
-22.75
-19.24
-14.23
-8.6
-3.16
1.47
4.99
7.32
8.55
8.8
8.23
6.97
5.2
3.15
1.15
-0.38
-0.98
-0.27
1.95
5.66
10.57
16.21
22.05
27.64
32.68
37.08
40.86
44.07
46.74
48.78
49.93
49.82
48.01
44.08
37.85
29.45
19.42
8.61
-2.05
-11.85
-20.53
-28.34
-35.94
-44.06
-53.22
-63.4
-73.93
-83.49
-90.41
-93.04
-90.31
-82.04
-69.0
-52.81
-35.35
-18.37
-3.1
9.84
20.38
28.82
35.63
41.4
46.68
51.83
56.87
61.47
65.05
67.02
67.13
65.56
62.9
59.95
57.35
55.54
54.68
54.75
55.77
57.74
60.69
64.55
69.16
74.24
79.4
83.97
86.91
86.88
82.56
73.19
59.12
41.85
23.65
6.77
-7.29
-18.25
-26.81
-34.18
-41.45
-49.33
-58.02
-67.33
-76.69
-85.15
-91.38
-93.89
-91.5
-83.81
-71.52
-56.33
-40.46
-26.0
-14.28
-5.62
0.54
5.18
9.25
13.31
17.57
21.91
26.23
30.51
34.82
39.27
43.83
48.34
52.6
56.31
59.23
61.16
61.9
61.27
59.18
55.65
50.91
45.33
39.34
33.38
27.73
22.51
17.63
12.85
7.85
2.35
-3.8
-10.57
-17.7
-24.76
-31.3
-36.95
-41.51
-45.13
-48.19
-51.27
-54.83
-59.01
-63.47
-67.37
-69.66
-69.37
-65.99
-59.64
-51.05
-41.44
-32.13
-24.28
-18.58
-15.16
-13.71
-13.68
-14.57
-16.1
-18.14
-20.58
-23.12
-25.26
-26.49
-26.49
-25.34
-23.44
-21.29
-19.25
-17.33
-15.31
-12.94
-10.17
-7.25
-4.61
-2.77
-2.11
-2.82
-4.92
-8.24
-12.45
-17.1
-21.66
-25.7
-29.05
-31.91
-34.81
-38.37
-43.04
-48.86
-55.39
-61.81
-67.12
-70.36
-70.78
-67.96
-61.84
-52.83
-41.69
-29.43
-17.13
-5.73
4.15
12.22
18.52
23.28
26.82
29.51
31.68
33.63
35.47
37.22
38.72
39.79
40.32
40.33
40.07
39.83
39.87
40.21
40.63
40.74
40.17
38.71
36.5
33.97
31.62
29.91
29.07
29.02
29.52
30.23
30.89
31.33
31.49
31.22
30.34
28.47
25.2
20.15
13.12
4.15
-6.43
-17.98
-29.61
-40.2
-48.59
-53.77
-55.13
