-80.96
-92.5
-103.47
-114.37
-124.92
-134.16
-141.13
-145.5
-147.96
-149.96
-152.96
-157.73
-163.89
-169.93
-173.73
-173.23
-167.11
-155.12
-138.12
-117.61
-95.28
-72.55
-50.47
-29.66
-10.58
6.35
20.76
32.43
41.46
48.27
53.56
58.03
62.19
66.29
70.28
74.0
77.28
80.17
82.86
85.6
88.51
91.44
93.97
95.55
95.73
94.28
91.29
87.11
82.25
77.24
72.43
68.02
63.89
59.67
54.88
48.98
41.72
33.21
23.95
14.76
6.41
-0.66
-6.48
-11.61
-16.89
-23.12
-30.58
-38.95
-47.25
-54.13
-58.24
-58.58
-54.76
-47.0
-35.96
-22.49
-7.42
8.47
24.51
39.97
54.1
66.18
75.65
82.27
86.14
87.62
87.13
85.04
81.58
76.86
71.04
64.33
57.07
49.68
42.5
35.69
29.08
22.26
14.67
5.86
-4.38
-15.83
-28.05
-40.44
-52.54
-64.07
-75.02
-85.49
-95.57
-105.32
-114.67
-123.54
-131.88
-139.66
-146.88
-153.46
-159.25
-163.93
-167.09
-168.32
-167.41
-164.48
-160.07
-155.0
-150.08
-145.68
-141.51
-136.69
-130.04
-120.58
-107.86
-92.1
-74.0
-54.46
-34.35
-14.5
4.2
20.82
34.43
44.4
50.69
53.87
55.0
55.28
55.63
56.53
57.94
59.55
61.02
62.16
62.97
63.49
63.71
63.49
62.63
61.04
58.75
55.95
52.84
49.45
45.7
41.41
36.57
31.43
26.49
22.26
19.11
17.01
15.61
14.34
12.69
10.4
7.49
4.32
1.4
-0.69
-1.51
-0.82
1.27
4.29
7.46
9.98
11.36
11.75
12.09
13.9
18.77
27.81
41.15
57.96
76.76
95.97
114.38
131.09
145.43
156.62
163.72
165.96
163.07
155.46
144.15
130.33
114.94
98.59
81.66
64.54
47.91
32.59
19.29
8.22
-0.92
-8.83
-16.21
-23.53
-30.88
-38.1
-44.98
-51.39
-57.28
-62.57
-67.1
-70.62
-72.88
-73.83
-73.59
-72.55
-71.2
-69.92
-68.93
-68.27
-67.87
-67.64
-67.58
-67.73
-68.25
-69.37
-71.34
-74.38
-78.49
-83.31
-87.97
-91.19
-91.6
-88.19
-80.73
-69.96
-57.41
-44.93
-34.21
-26.26
-21.44
-19.54
-20.16
-22.85
-27.21
-32.82
-39.13
-45.44
-51.03
-55.3
-57.82
-58.31
-56.64
-52.78
-46.82
-39.09
-30.21
-21.05
-12.49
-5.26
0.3
4.17
6.6
7.95
8.52
8.6
8.41
8.19
8.11
8.22
8.34
8.14
7.28
5.55
3.06
0.16
-2.72
-5.22
-7.26
-8.98
-10.66
-12.55
-14.81
-17.47
-20.42
-23.39
-25.88
-27.24
-26.74
-23.74
-17.98
-9.74
0.22
10.77
20.74
29.21
35.67
40.03
42.48
43.31
42.84
41.38
39.32
37.1
35.17
33.86
33.3
33.32
33.67
34.1
34.5
34.95
35.53
36.21
36.79
36.97
36.45
35.14
33.2
30.97
28.8
26.97
25.52
24.36
23.34
22.32
21.25
20.21
19.35
18.81
18.7
18.96
19.39
19.76
19.85
19.54
18.84
17.91
17.04
16.65
17.33
19.77
24.46
31.46
40.25
49.79
58.88
66.61
72.75
77.63
81.85
85.81
89.52
92.54
94.48
95.23
95.17
95.04
95.45
96.62
98.13
99.12
98.55
95.53
89.45
80.04
67.24
51.18
32.22
11.19
-10.64
-31.56
-49.88
-64.38
-74.74
-81.67
-86.6
-91.18
-96.61
-103.27
-110.61
-117.56
-122.96
-126.09
-126.85
-125.78
-123.72
-121.48
-119.63
-118.3
-117.27
-116.0
-113.75
-109.79
-103.58
-94.99
-84.45
-72.83
-61.22
-50.67
-41.89
-35.14
-30.27
-26.89
-24.49
-22.54
-20.5
-17.95
-14.64
-10.56
-5.97
-1.38
2.69
5.82
7.88
9.02
9.6
10.0
10.52
11.25
12.17
13.19
14.22
15.15
15.85
16.24
16.27
16.04
15.73
15.62
15.89
16.59
17.58
18.63
19.48
19.95
19.9
19.09
17.15
13.74
8.71
2.41
-4.21
-9.82
-13.09
-13.17
-9.94
-4.01
3.5
11.34
18.47
24.22
28.3
30.84
32.26
33.21
34.35
36.19
38.86
42.05
45.2
47.67
49.05
49.16
47.96
45.37
41.09
34.69
25.81
14.48
1.33
-12.27
-24.42
-33.07
-36.56
-34.25
-26.7
-15.73
-3.89
6.24
12.82
15.16
13.77
9.86
4.67
-1.13
-7.57
-15.2
-24.53
-35.58
-47.73
-59.82
-70.53
-78.8
-83.98
-85.85
-84.46
-80.0
-72.79
-63.36
-52.56
-41.49
-31.34
-23.13
-17.45
-14.41
-13.65
-14.53
-16.34
-18.47
-20.5
-22.18
-23.41
-24.14
-24.42
-24.35
-24.24
-24.59
-26.09
-29.43
-35.11
-43.23
-53.46
-65.08
-77.18
-88.93
-99.69
-109.19
-117.43
-124.67
-131.21
-137.32
-143.12
-148.59
-153.56
-157.68
-160.54
-161.63
-160.57
-157.26
-151.99
-145.36
-137.96
-129.97
-120.95
-109.88
-95.65
-77.69
-56.44
-33.36
-10.47
10.35
27.93
42.07
53.24
62.09
69.05
74.14
77.21
78.17
77.36
75.45
73.33
71.71
70.95
71.01
71.56
72.21
72.68
72.87
72.82
72.59
72.15
71.32
69.8
67.26
63.48
58.49
52.57
46.12
39.63
33.41
27.58
22.08
16.7
11.25
5.54
-0.47
-6.7
-12.82
-18.36
-22.6
-24.82
-24.32
-20.68
-13.89
-4.43
6.78
18.54
29.64
39.08
46.26
51.0
53.47
53.96
52.9
50.73
48.02
45.37
43.38
42.52
42.87
44.16
45.84
47.33
48.24
48.47
48.11
47.28
45.96
43.92
40.86
36.63
31.35
25.43
19.43
13.85
8.9
4.46
0.2
-4.32
-9.47
-15.36
-21.76
-28.08
-33.35
-36.41
-36.2
-32.06
-24.02
-12.82
0.25
13.74
26.41
37.45
46.52
53.59
58.74
62.05
63.69
63.92
63.15
61.93
60.82
60.26
60.49
61.52
63.21
65.4
67.98
70.87
74.0
77.24
80.34
82.98
84.83
85.69
85.54
84.61
83.31
82.18
81.77
82.51
84.65
88.2
92.87
98.06
103.03
107.13
110.11
112.36
114.89
119.17
126.61
138.09
153.6
172.17
192.12
211.38
227.97
240.43
247.93
250.44
248.51
243.03
234.85
224.64
212.77
199.43
184.78
169.11
152.93
137.26
123.78
114.73
112.24
117.23
128.36
141.86
152.31
154.6
145.77
126.06
98.33
66.68
34.48
3.32
-26.93
-57.33
-89.0
-122.82
-159.35
-198.8
-240.57
-282.7
-321.64
-352.91
-372.65
-379.2
-373.81
-360.37
-343.71
-328.08
-316.09
-308.74
-305.95
-307.06
-310.95
-315.8
-319.28
-318.94
-313.24
-302.15
-287.19
-270.63
-254.51
-239.86
-226.66
-214.37
-202.45
-190.56
-178.2
-164.22
-146.64
-123.33
-93.08
-56.75
-17.57
19.84
50.98
72.88
84.68
87.09
81.55
69.75
53.57
35.42
18.21
4.57
-4.42
-10.02
-15.51
-24.62
-39.52
-59.58
-81.58
-101.2
-114.85
-120.67
-118.58
-109.44
-94.37
-74.42
-51.0
-26.14
-2.55
17.0
30.63
37.95
40.17
39.46
38.19
38.38
41.42
47.97
57.95
70.47
83.9
96.23
105.74
111.54
113.75
113.17
110.75
107.17
102.83
98.09
93.47
89.59
86.95
85.73
85.86
87.32
90.28
94.96
101.08
107.33
111.42
110.76
103.55
89.54
70.2
48.06
25.85
5.92
-9.95
-20.35
-24.3
-21.6
-13.33
-2.02
8.9
16.34
18.78
16.84
12.78
9.19
7.6
7.87
8.57
8.15
5.92
2.45
-1.05
-3.61
-5.32
-7.35
-11.28
-18.13
-27.66
-38.36
-48.13
-55.28
-59.11
-60.03
-58.98
-56.7
-53.36
-48.57
-41.91
-33.45
-24.0
-14.9
-7.48
-2.44
0.37
1.89
3.36
5.86
9.87
15.18
21.02
26.43
30.51
32.82
33.51
33.42
33.82
36.03
40.95
48.65
58.26
68.26
76.92
82.9
85.5
84.81
81.38
76.05
69.58
62.47
54.97
47.1
38.84
30.29
21.89
14.35
8.53
5.2
4.7
6.98
11.6
17.99
25.44
33.21
40.4
45.97
49.06
49.21
46.6
42.0
36.43
30.69
25.13
19.71
14.29
8.92
3.97
-0.04
-2.78
-4.33
-5.19
-6.02
-7.32
-9.18
-11.28
-13.09
-14.1
-14.08
-13.13
-11.69
-10.45
-10.15
-11.51
-14.9
-20.27
-26.93
-33.57
-38.56
-40.32
-37.91
-31.43
-22.07
-11.75
-2.38
4.79
9.65
13.09
16.52
21.18
27.61
35.46
43.42
49.48
51.4
47.32
36.61
20.51
2.25
-13.64
-22.82
-22.83
-14.19
-0.27
14.01
24.09
27.51
24.52
17.58
10.03
4.61
2.54
3.27
5.1
5.98
4.44
0.08
-6.47
-13.93
-20.92
-26.42
-29.89
-31.22
-30.42
-27.61
-23.02
-17.18
-10.95
-5.41
-1.53
0.17
-0.18
-1.83
-3.67
-4.61
-3.93
-1.47
2.25
6.28
9.58
11.44
11.75
10.99
9.99
9.49
9.91
11.26
13.34
15.87
18.69
21.64
24.45
26.67
27.78
27.22
24.71
20.24
14.2
7.22
0.21
-5.85
-10.09
-11.9
-11.14
-8.13
-3.63
1.45
6.19
9.9
12.13
12.74
11.8
9.57
6.49
3.09
-0.11
-2.7
-4.47
-5.42
-5.72
-5.55
-4.98
-3.92
-2.18
0.4
3.85
8.05
12.71
17.51
22.12
26.21
29.51
31.78
32.96
33.21
32.92
32.5
32.22
32.09
31.79
31.01
29.58
27.62
25.41
23.1
20.61
17.58
13.57
8.39
2.23
-4.3
-10.5
-15.8
-19.99
-23.18
-25.65
-27.6
-29.04
-29.83
-29.81
-28.96
-27.51
-25.86
-24.42
-23.45
-22.96
-22.75
-22.53
-22.01
-21.05
-19.65
-17.86
-15.73
-13.35
-10.89
-8.67
-7.08
-6.47
-7.02
-8.61
-10.93
-13.58
-16.2
-18.59
-20.65
-22.3
-23.48
-24.18
-24.46
-24.45
-24.25
-23.84
-23.08
-21.84
-20.1
-18.04
-16.02
-14.29
-13.0
-12.12
-11.39
-10.46
-8.93
-6.43
-2.77
1.93
7.21
12.32
16.49
19.3
20.79
21.43
21.82
22.36
23.03
23.54
23.56
22.97
22.0
21.06
20.56
20.68
21.32
22.2
22.99
23.46
23.57
23.46
23.32
23.38
23.75
24.42
25.15
25.62
25.5
24.62
23.17
21.62
20.7
21.3
24.23
30.11
39.22
51.41
66.17
82.7
100.12
117.79
135.52
153.79
173.65
196.26
222.05
250.05
277.39
299.74
312.34
311.34
294.79
263.0
218.54
165.98
111.75
63.69
29.88
16.87
27.7
60.58
109.1
163.96
215.34
255.32
279.13
285.33
275.23
251.96
219.68
182.76
145.13
109.66
78.01
50.79
28.1
9.86
-4.13
-14.42
-22.08
-28.61
-35.51
-43.85
-53.85
-65.02
-76.43
-87.42
-98.06
-109.33
-122.84
-140.22
-162.27
-188.5
-217.15
-245.83
-272.33
-295.51
-315.72
-334.69
-355.15
-380.3
-412.87
-453.85
-501.21
-549.13
-588.75
-610.45
-607.2
-577.03
-523.99
-456.3
-383.05
-310.96
-242.59
-176.59
-109.4
-37.7
39.53
119.64
196.33
260.99
305.27
323.8
316.21
287.28
244.67
196.04
146.42
97.66
49.23
0.09
-50.47
-103.26
-159.61
-221.01
-287.47
-355.96
-420.2
-472.61
-507.39
-522.67
-520.98
-507.29
-486.54
-461.78
-434.23
-404.43
-373.47
-343.1
-314.95
-289.55
-266.11
-243.24
-220.03
-196.76
-174.58
-154.65
-137.55
-122.89
-109.64
-96.52
-82.75
-68.11
-52.99
-38.03
-23.86
-10.78
1.27
12.6
23.58
34.45
45.34
56.33
67.5
79.07
91.28
104.29
118.15
132.79
148.09
164.04
180.79
198.65
218.02
239.45
263.66
291.3
322.44
355.91
388.98
417.62
437.66
446.17
442.6
428.91
408.63
385.5
362.16
339.84
318.69
298.64
279.95
263.12
248.48
235.43
222.38
207.25
188.42
165.5
139.6
112.83
87.35
64.55
44.85
28.13
14.38
4.13
-1.84
-3.15
-0.48
4.45
9.6
13.44
15.53
16.44
17.03
17.85
18.85
19.48
19.14
17.47
14.4
10.02
4.35
-2.69
-11.2
-21.05
-31.83
-42.72
-52.75
-61.0
-67.0
-70.85
-73.11
-74.38
-74.81
-73.84
-70.41
-63.52
-52.87
-39.16
-23.88
-8.72
5.08
17.07
27.38
36.42
44.42
51.24
56.41
59.38
59.75
57.53
53.17
47.34
40.62
33.11
24.53
14.4
2.71
-9.78
-21.63
-31.19
-37.42
-40.27
-40.58
-39.47
-37.71
-35.41
-32.3
-28.17
-23.31
-18.41
-14.1
-10.54
-7.22
-3.17
2.6
10.58
20.58
31.74
42.94
53.21
61.99
69.22
75.09
79.68
82.59
83.07
80.22
73.47
62.91
49.39
34.26
19.15
5.6
-5.08
-12.01
-14.86
-13.92
-10.05
-4.36
2.26
9.49
17.58
26.91
37.46
48.42
58.15
64.94
67.8
67.07
64.36
61.94
61.57
63.5
66.02
65.79
58.84
41.88
13.32
-25.97
-72.61
-121.08
-164.47
-195.67
-208.82
-200.83
-172.57
-129.16
-78.91
-31.2
6.06
28.25
34.37
26.1
6.16
-22.85
-58.43
-97.18
-133.89
-161.75
-173.92
-166.09
-138.57
-96.6
-48.71
-3.67
32.25
56.65
70.6
76.91
78.37
76.74
72.82
67.16
60.74
55.03
51.42
50.53
51.78
53.62
54.25
52.42
47.9
41.44
34.4
28.01
23.0
19.33
16.41
13.46
9.96
6.01
2.27
-0.3
-1.01
0.1
2.14
3.7
3.46
0.8
-3.9
-9.61
-15.22
-20.12
-24.4
-28.71
-33.82
-40.28
-48.23
-57.33
-67.08
-76.99
-86.8
-96.68
-107.05
-118.3
-130.28
-141.97
-151.4
-156.13
-153.95
-143.68
-125.6
-101.4
-73.74
-45.51
-19.12
3.94
23.09
38.56
50.86
60.49
67.77
72.91
76.27
78.51
80.53
83.03
86.21
89.48
91.68
91.59
88.49
82.37
73.96
64.27
54.19
44.22
34.46
24.88
15.52
6.61
-1.53
-8.69
-14.97
-20.74
-26.33
-31.68
-36.1
-38.36
-37.09
-31.32
-20.92
-6.75
9.51
25.88
40.45
51.74
58.75
61.02
58.6
52.1
42.65
31.72
20.88
11.4
4.01
-1.13
-4.4
-6.33
-7.44
-8.01
-8.15
-7.9
-7.39
-6.9
-6.78
-7.28
-8.43
-10.03
-11.74
-13.24
-14.45
-15.47
-16.5
-17.68
-18.97
-20.22
-21.24
-22.0
-22.64
-23.42
-24.56
-26.15
-27.99
-29.72
-30.88
-31.12
-30.32
-28.56
-26.05
-23.05
-19.77
-16.31
-12.78
-9.28
-5.96
-2.98
-0.44
1.69
3.53
5.21
6.83
8.44
10.01
11.57
13.08
14.44
15.42
15.71
15.06
13.38
10.85
7.83
4.74
1.86
-0.81
-3.49
-6.49
-10.07
-14.26
-18.84
-23.47
-27.8
-31.67
-35.23
-38.89
-43.25
-48.81
-55.74
-63.63
-71.52
-78.04
-81.77
-81.69
-77.42
-69.38
-58.56
-46.16
-33.21
-20.36
-7.94
4.01
15.5
26.49
36.72
45.72
52.75
57.02
58.01
55.85
51.43
46.35
42.26
40.27
40.48
41.99
43.43
43.69
42.4
40.07
37.66
36.1
35.78
36.44
37.43
38.01
37.67
36.25
33.84
30.61
26.64
21.97
16.61
10.76
4.87
-0.47
-4.63
-7.26
-8.43
-8.64
-8.62
-8.96
-9.84
-10.94
-11.59
-11.18
-9.49
-6.82
-3.88
-1.42
0.1
0.63
0.44
-0.03
-0.41
-0.51
-0.27
0.24
0.91
1.63
2.28
2.82
3.26
3.71
4.26
4.9
5.44
5.61
5.1
3.69
1.33
-1.95
-5.99
-10.58
-15.32
-19.68
-23.08
-25.03
-25.43
-24.63
-23.34
-22.39
-22.36
-23.36
-25.02
-26.63
-27.46
-26.98
-24.94
-21.34
-16.32
-10.13
-3.1
4.36
11.87
19.08
25.8
31.94
37.45
42.19
45.91
48.28
48.96
47.82
44.95
40.73
35.79
30.73
26.0
21.75
17.86
13.93
9.59
4.63
-0.96
-7.04
-13.41
-19.9
-26.31
-32.36
-37.6
-41.35
-42.89
-41.67
-37.55
-31.03
-23.08
-14.91
-7.61
-1.78
2.49
5.47
7.47
8.61
8.93
8.61
8.31
9.15
12.36
18.62
27.5
37.61
47.09
54.44
59.16
61.89
63.97
66.86
71.56
78.46
87.39
97.67
107.96
116.31
120.54
119.06
111.88
100.99
90.06
83.11
83.07
90.9
105.67
125.59
148.96
174.68
201.94
229.64
255.96
278.58
295.33
304.85
307.0
302.64
293.3
280.76
266.64
252.2
238.12
224.48
210.9
196.95
182.56
168.23
154.89
143.27
133.34
123.99
113.37
99.57
81.5
59.5
35.21
10.99
-11.09
-30.1
-46.59
-62.31
-79.62
-100.68
-126.84
-157.98
-192.13
-225.18
-251.27
-263.93
-258.18
-232.79
-191.61
-143.1
-97.89
-65.23
-50.17
-52.51
-68.02
-91.11
-117.44
-145.17
-174.37
-205.39
-237.19
-266.93
-290.78
-305.67
-310.74
-307.66
-299.76
-290.53
-282.2
-275.35
-269.23
-262.82
-255.55
-247.52
-239.09
-230.36
-220.82
-209.58
-195.87
-179.62
-161.59
-143.22
-126.19
-111.88
-100.93
-93.12
-87.37
-81.91
-74.62
-63.3
-46.03
-21.49
10.74
49.95
94.19
140.44
185.05
224.42
255.78
277.65
289.96
293.66
289.97
279.68
262.89
239.31
208.93
172.65
132.38
90.63
49.58
10.26
-27.71
-65.94
-106.66
-151.91
-202.6
-257.51
-312.63
-361.29
-395.57
-408.56
-396.9
-362.31
-311.16
-252.3
-194.17
-142.35
-98.83
-62.77
-32.13
-5.15
19.09
40.88
60.42
78.17
94.8
110.57
124.9
136.09
141.91
140.62
132.23
118.97
104.82
94.0
89.31
90.95
96.66
103.15
107.88
110.36
111.94
114.41
118.29
121.82
121.46
113.47
95.73
68.55
34.15
-4.79
-46.48
-90.5
-137.12
-186.15
-236.05
-284.07
-326.9
-361.59
-386.1
-399.35
-401.23
-392.64
-375.79
-354.25
-332.43
-314.52
-303.13
-298.44
-298.0
-297.63
-292.7
-279.49
-256.01
-222.23
-179.81
-131.68
-81.51
-33.32
9.05
42.53
65.42
77.91
82.07
81.24
78.9
77.54
77.92
79.18
79.69
78.14
74.19
68.36
61.25
52.89
42.79
30.71
17.68
6.43
0.56
2.75
13.25
29.37
46.76
61.39
71.34
77.22
81.09
84.82
88.9
92.36
93.65
91.84
87.1
80.49
73.21
65.88
58.29
49.56
38.77
25.49
10.05
-6.42
-22.26
-35.76
-45.57
-50.93
-51.75
-48.42
-41.61
-32.14
-20.93
-8.95
2.77
13.26
21.8
28.06
32.12
34.44
35.65
36.35
36.92
37.52
38.08
38.43
38.4
37.86
36.73
34.99
32.53
29.21
24.88
19.53
13.43
7.24
1.92
-1.47
-2.14
0.21
5.3
12.37
20.45
28.69
36.44
43.42
49.55
54.86
59.4
63.21
66.39
69.03
71.28
73.29
75.16
76.95
78.67
80.3
81.84
83.27
84.59
85.82
86.91
87.76
88.12
87.75
86.39
83.96
80.58
76.56
72.32
68.17
64.25
60.49
56.66
52.56
48.05
43.13
37.87
32.37
26.66
20.75
14.67
8.46
2.33
-3.37
-8.09
-11.23
-12.23
-10.81
-7.07
-1.5
5.15
12.07
18.58
24.34
29.24
33.32
36.67
39.3
41.17
42.26
42.64
42.45
41.96
41.37
40.91
40.68
40.74
41.11
41.7
42.38
42.97
43.24
43.02
42.22
40.83
38.89
36.51
33.81
30.9
27.93
25.03
22.27
19.73
17.39
15.16
12.93
10.56
7.97
5.04
1.71
-2.07
-6.24
-10.54
-14.53
-17.54
-18.89
-18.13
-15.21
-10.54
-4.91
0.83
6.01
10.3
13.71
16.45
18.77
20.79
22.52
23.91
24.96
25.71
26.31
26.9
27.55
28.25
28.91
29.47
29.92
30.29
30.64
30.93
31.05
30.76
29.88
28.35
26.26
23.88
21.53
19.42
17.64
16.11
14.64
13.02
11.11
8.89
6.42
3.83
1.26
-1.15
-3.31
-5.15
-6.75
-8.28
-10.04
-12.31
-15.26
-18.81
-22.52
-25.69
-27.57
-27.62
-25.69
-22.05
-17.31
-12.12
-7.07
-2.49
1.48
4.75
7.3
9.11
10.23
10.86
11.29
11.82
12.63
13.7
14.83
15.81
16.49
16.85
17.0
17.09
17.16
17.19
17.08
16.77
16.24
15.56
14.8
13.98
13.03
11.84
10.36
8.61
6.77
5.04
3.6
2.47
1.56
0.72
-0.22
-1.34
-2.65
-4.08
-5.53
-6.92
-8.23
-9.51
-10.9
-12.59
-14.74
-17.38
-20.29
-22.99
-24.87
-25.39
-24.27
-21.61
-17.82
-13.47
-9.12
-5.2
-1.94
0.57
2.38
3.56
4.27
4.68
4.92
5.09
5.21
5.24
5.18
5.09
5.08
5.33
5.91
6.81
7.92
9.05
10.03
10.76
11.22
11.4
11.32
10.93
10.19
9.04
7.54
5.79
4.0
2.39
1.09
0.1
-0.73
-1.62
-2.75
-4.16
-5.76
-7.34
-8.7
-9.75
-10.5
-11.1
-11.72
-12.53
-13.65
-15.15
-17.03
-19.14
-21.19
-22.71
-23.22
-22.37
-20.16
-16.87
-13.07
-9.34
-6.15
-3.7
-1.98
-0.79
0.07
0.72
1.23
1.61
1.89
2.1
2.31
2.54
2.83
3.16
3.51
3.91
4.4
5.05
5.87
6.81
7.72
8.44
8.85
8.89
8.6
8.05
7.26
6.23
4.91
3.3
1.43
-0.61
-2.69
-4.7
-6.62
-8.44
-10.17
-11.83
-13.44
-15.0
-16.49
-17.84
-18.84
-19.17
-18.46
-16.45
-13.09
-8.67
-3.68
1.28
5.68
9.25
11.95
13.93
15.44
16.74
18.01
19.38
20.95
22.79
24.95
27.5
30.51
33.97
37.88
42.22
46.96
52.05
57.43
63.02
68.7
74.37
80.01
85.73
91.7
98.13
105.22
113.02
121.48
130.45
139.71
149.05
158.22
167.09
175.61
183.86
191.9
199.5
205.8
209.11
207.2
197.82
179.58
152.56
118.45
79.97
39.96
0.41
-37.96
-75.61
-113.57
-152.98
-194.78
-239.67
-287.98
-339.24
-391.66
-442.02
-486.04
-519.48
-539.27
-544.26
-535.13
-513.79
-482.62
-444.05
-400.59
-354.83
-309.33
-266.03
-225.65
-187.46
-149.58
-109.72
-65.94
-17.09
36.83
94.3
152.14
205.92
250.91
283.62
303.13
311.27
311.48
306.88
298.72
286.31
268.36
244.89
218.3
192.83
172.8
160.62
155.97
156.22
157.99
158.57
156.66
152.35
146.55
140.33
134.64
130.13
127.09
125.5
125.03
125.29
126.1
127.55
129.88
133.21
137.39
141.94
146.11
148.98
149.44
146.34
138.66
125.87
108.37
87.74
66.59
48.03
34.84
28.59
29.15
34.66
42.09
48.13
50.09
46.39
36.78
21.95
3.0
-19.06
-43.69
-71.02
-101.91
-137.55
-178.51
-223.59
-268.71
-307.08
-330.64
-332.64
-310.24
-265.72
-205.56
-138.04
-70.4
-7.19
49.71
99.84
142.78
177.64
203.59
220.75
230.74
236.18
239.57
242.13
243.36
241.29
233.72
219.38
198.6
173.23
145.97
119.31
94.65
72.01
50.15
27.26
1.78
-26.91
-58.11
-89.87
-119.64
-144.96
-164.28
-177.26
-184.6
-187.63
-187.71
-185.98
-183.22
-180.02
-176.82
-173.81
-170.91
-167.72
-163.95
-159.7
-155.63
-152.74
-151.85
-153.02
-155.48
-157.93
-159.11
-158.3
-155.49
-151.18
-145.96
-140.28
-134.4
-128.48
-122.8
-117.77
-113.76
-110.89
-108.85
-106.98
-104.54
-101.06
-96.51
-91.34
-86.18
-81.57
-77.73
-74.62
-72.1
-70.06
-68.53
-67.51
-66.78
-65.79
-63.77
-60.02
-54.19
-46.5
-37.6
-28.41
-19.71
-12.05
-5.61
-0.39
3.7
6.72
8.68
9.65
9.86
9.61
9.31
9.27
9.68
10.5
11.56
12.61
13.43
13.88
13.96
13.73
13.33
12.89
12.45
11.89
11.01
9.57
7.49
4.92
2.23
-0.2
-2.18
-3.83
-5.54
-7.73
-10.59
-13.88
-16.98
-19.13
-19.67
-18.4
-15.56
-11.76
-7.7
-3.96
-0.85
1.58
3.37
4.58
5.13
4.86
3.68
1.61
-1.1
-4.03
-6.75
-8.85
-10.08
-10.41
-9.93
-8.9
-7.63
-6.4
-5.4
-4.73
-4.4
-4.4
-4.8
-5.64
-6.94
-8.66
-10.58
-12.47
-14.1
-15.39
-16.34
-17.04
-17.5
-17.65
-17.32
-16.37
-14.81
-12.95
-11.28
-10.28
-10.21
-10.83
-11.47
-11.25
-9.48
-5.96
-1.04
4.6
10.21
15.32
19.76
23.54
26.74
29.29
31.07
32.0
32.11
31.69
31.15
30.93
31.32
32.4
34.0
35.75
37.17
37.85
37.57
36.34
34.39
32.12
29.87
27.81
25.82
23.49
20.21
15.47
8.99
0.94
-8.19
-17.7
-26.91
-35.36
-42.74
-48.76
-53.04
-55.12
-54.69
-51.74
-46.74
-40.49
-33.86
-27.5
-21.76
-16.65
-12.12
-8.11
-4.74
-2.15
-0.38
0.7
1.39
2.03
2.95
4.35
6.35
9.02
12.34
16.18
20.24
24.07
27.22
29.37
30.45
30.64
30.28
29.67
29.03
28.35
27.52
26.35
24.75
22.74
20.55
18.53
17.04
16.42
16.89
18.58
21.58
25.9
31.52
38.15
45.32
52.34
58.58
63.61
67.36
70.06
72.08
73.68
74.9
75.55
75.3
73.93
71.51
68.48
65.56
63.55
63.09
64.41
67.28
71.04
74.88
77.94
79.52
79.07
76.24
70.95
63.5
54.64
45.44
36.96
29.7
23.33
16.71
8.29
-3.05
-17.51
-34.14
-51.14
-66.51
-78.69
-86.87
-91.05
-91.79
-89.9
-86.19
-81.31
-75.69
-69.6
-63.18
-56.54
-49.81
-43.11
-36.5
-29.93
-23.31
-16.62
-10.08
-4.19
0.44
3.32
4.4
4.13
3.29
2.72
2.93
3.95
5.36
6.61
7.28
7.29
6.83
6.22
5.67
5.17
4.58
3.72
2.52
1.0
-0.81
-2.9
-5.26
-7.8
-10.19
-11.86
-12.09
-10.33
-6.37
-0.58
6.14
12.6
17.63
20.42
20.77
19.08
16.18
13.07
10.48
8.77
7.81
7.14
6.22
4.59
2.0
-1.59
-5.91
-10.47
-14.59
-17.52
-18.64
-17.69
-14.83
-10.68
-6.07
-1.84
1.4
3.3
3.89
3.41
2.26
0.93
-0.13
-0.66
-0.6
-0.15
0.36
0.62
0.5
0.08
-0.4
-0.74
-0.91
-1.05
-1.43
-2.35
-3.99
-6.34
-9.14
-11.9
-14.02
-14.85
-13.96
-11.24
-6.94
-1.66
3.91
9.15
13.72
17.52
20.67
23.3
25.49
27.21
28.41
29.08
29.36
29.48
29.76
30.42
31.5
32.88
34.32
35.64
36.75
37.71
38.71
39.92
41.48
43.36
45.41
47.39
49.04
50.2
50.97
51.64
52.64
54.31
56.7
59.47
62.0
63.59
63.8
62.66
60.72
58.84
57.79
57.89
58.74
59.28
58.16
54.23
47.11
37.46
26.97
17.97
12.77
12.76
17.66
25.1
30.86
29.82
17.46
-8.53
-47.13
-93.96
-142.33
-185.12
-216.73
-234.41
-238.4
-231.2
-216.19
-196.5
-174.32
-151.04
-127.67
-105.23
-84.8
-67.28
-52.93
-41.24
-31.24
-21.94
-12.86
-4.19
3.42
9.3
13.25
15.68
17.41
19.34
21.96
25.23
28.61
31.4
33.16
33.92
34.1
34.2
34.41
34.35
33.24
30.27
25.06
17.93
9.75
1.6
-5.68
-11.7
-16.45
-20.01
-22.35
-23.22
-22.35
-19.69
-15.56
-10.64
-5.69
-1.28
2.4
5.53
8.48
11.55
14.75
17.77
20.07
21.2
20.94
19.5
17.37
15.17
13.41
12.32
11.81
11.58
11.31
10.72
9.7
8.2
6.23
3.79
0.94
-2.21
-5.42
-8.48
-11.24
-13.66
-15.79
-17.67
-19.26
-20.47
-21.18
-21.35
-21.07
-20.5
-19.85
-19.27
-18.91
-18.9
-19.44
-20.76
-23.02
-26.13
-29.6
-32.64
-34.35
-33.97
-31.21
-26.25
-19.76
-12.58
-5.57
0.59
5.44
8.69
10.28
10.27
8.91
6.56
3.73
0.9
-1.51
-3.24
-4.18
-4.35
-3.82
-2.68
-0.98
1.25
3.93
6.91
9.92
12.62
14.66
15.74
15.71
14.54
12.36
9.4
5.94
2.22
-1.58
-5.39
-9.2
-12.92
-16.43
-19.5
-21.95
-23.66
-24.7
-25.3
-25.84
-26.71
-28.21
-30.45
-33.24
-36.11
-38.38
-39.35
-38.49
-35.58
-30.82
-24.68
-17.77
-10.63
-3.69
2.78
8.6
13.64
17.81
21.04
23.34
24.85
25.81
26.56
27.45
28.79
30.74
33.29
36.27
39.45
42.59
45.52
48.13
50.37
52.19
53.51
54.31
54.57
54.43
54.07
53.66
53.29
52.85
52.11
50.77
48.68
45.86
42.48
38.77
34.81
30.52
25.68
20.17
14.1
7.95
2.42
-1.71
-3.82
-3.64
-1.39
2.22
6.12
9.1
10.15
8.66
4.62
-1.53
-9.05
-17.18
-25.23
-32.64
-38.96
-43.85
-47.12
-48.8
-49.16
-48.5
-47.05
-44.77
-41.41
-36.67
-30.44
-23.03
-15.05
-7.27
-0.33
5.52
10.42
14.77
18.96
23.16
27.28
30.9
33.55
34.77
34.25
31.86
27.67
21.91
14.91
7.05
-1.26
-9.69
-17.96
-25.88
-33.25
-39.86
-45.35
-49.28
-51.22
-50.9
-48.4
-44.21
-39.14
-34.12
-29.91
-26.88
-25.07
-24.31
-24.43
-25.41
-27.3
-30.06
-33.38
-36.7
-39.29
-40.54
-40.14
-38.08
-34.65
-30.22
-25.17
-19.79
-14.4
-9.36
-5.03
-1.72
0.49
1.75
2.44
3.03
3.86
5.1
6.71
8.55
10.41
12.08
13.36
14.09
14.18
13.65
12.67
11.47
10.19
8.78
6.94
4.22
0.33
-4.66
-10.16
-15.16
-18.51
-19.3
-17.08
-12.03
-4.81
3.6
12.19
20.05
26.57
31.39
34.48
36.08
36.61
36.47
35.94
35.2
34.34
33.54
33.04
33.12
33.94
35.41
37.24
39.03
40.48
41.51
42.19
42.69
43.01
43.01
42.41
40.94
38.53
35.38
31.92
28.59
25.79
23.64
21.98
20.43
18.57
16.09
12.92
9.3
5.6
2.14
-1.0
-4.1
-7.68
-12.29
-18.2
-25.29
-32.95
-40.24
-46.08
-49.43
-49.53
-46.03
-39.09
-29.43
-18.12
-6.42
4.56
13.99
21.38
26.53
29.41
30.12
28.96
26.44
23.29
20.37
18.36
17.61
18.08
19.32
20.79
21.98
22.69
22.92
22.87
22.72
22.48
22.0
20.97
19.1
16.28
12.65
8.57
4.6
1.36
-0.62
-0.99
0.23
2.54
4.94
6.0
4.25
-1.34
-10.95
-23.7
-37.83
-51.17
-61.77
-68.39
-70.62
-68.8
-63.75
-56.44
-47.95
-39.31
-31.54
-25.46
-21.53
-19.71
-19.45
-19.85
-19.94
-19.06
-16.97
-13.9
-10.34
-6.72
-3.23
0.21
3.83
7.74
11.75
15.43
18.3
20.04
20.62
20.29
19.35
18.08
16.71
15.42
14.39
13.8
13.68
13.87
14.01
13.68
12.62
10.88
8.82
6.91
5.5
4.54
3.55
1.8
-1.37
-6.21
-12.38
-18.93
-24.52
-27.88
-28.15
