-208.3
-216.75
-213.18
-196.13
-166.39
-126.72
-81.09
-33.6
12.18
53.31
87.24
111.57
124.15
123.55
109.77
84.45
50.67
12.19
-27.47
-65.46
-99.64
-128.06
-148.7
-159.54
-159.27
-148.03
-127.85
-102.24
-75.09
-49.33
-26.25
-5.42
14.48
34.64
55.39
76.24
96.16
114.27
130.11
143.66
155.01
164.13
170.8
174.81
176.22
175.52
173.49
170.69
167.07
161.83
153.61
141.12
123.68
101.75
76.93
51.79
29.37
12.36
2.35
-0.72
1.35
5.61
9.05
9.78
7.74
4.57
2.7
4.05
9.08
16.58
24.29
30.01
32.56
32.1
29.84
27.43
26.23
27.02
30.14
35.66
43.62
54.02
66.68
81.19
96.91
113.23
129.72
145.99
161.31
174.05
181.47
180.22
167.58
142.91
108.57
69.47
31.43
-1.06
-26.53
-46.66
-64.83
-83.89
-104.3
-123.79
-138.34
-144.27
-139.89
-126.27
-106.61
-84.89
-64.43
-47.15
-33.59
-23.53
-16.79
-13.51
-14.0
-18.36
-25.97
-35.53
-45.4
-54.14
-60.9
-65.48
-67.98
-68.43
-66.57
-61.92
-54.18
-43.45
-30.44
-16.34
-2.56
9.62
19.39
26.43
31.0
33.65
35.05
35.73
36.06
36.27
36.5
36.86
37.46
38.34
39.47
40.79
42.18
43.57
44.83
45.79
46.2
45.72
44.05
41.03
36.78
31.64
26.1
20.64
15.54
10.82
6.29
1.69
-3.18
-8.44
-14.14
-20.36
-27.16
-34.45
-41.81
-48.39
-52.99
-54.37
-51.7
-44.83
-34.38
-21.61
-7.98
5.15
16.86
26.69
34.55
40.55
44.9
47.78
49.44
50.21
50.46
50.56
50.75
51.06
51.44
51.72
51.83
51.77
51.62
51.48
51.42
51.43
51.44
51.3
50.79
49.67
47.8
45.24
42.3
39.45
37.07
35.39
34.31
33.44
32.38
30.76
28.44
25.45
21.94
18.13
14.4
11.33
9.72
10.38
13.85
20.08
28.39
37.67
46.78
55.0
62.21
68.74
75.1
81.69
88.67
96.08
103.92
112.16
120.54
128.42
134.67
137.99
137.24
131.92
122.37
109.67
95.3
80.64
66.56
53.34
40.76
28.38
15.91
3.36
-8.98
-20.81
-31.95
-42.53
-52.89
-63.22
-73.42
-82.94
-90.99
-96.94
-100.59
-102.33
-103.01
-103.54
-104.5
-105.8
-106.73
-106.29
-103.7
-98.81
-92.13
-84.74
-77.74
-71.97
-67.7
-64.79
-62.78
-61.18
-59.42
-57.01
-53.44
-48.4
-41.9
-34.47
-27.07
-20.81
-16.44
-14.14
-13.42
-13.42
-13.37
-12.88
-12.03
-11.15
-10.55
-10.28
-10.26
-10.37
-10.7
-11.55
-13.25
-15.97
-19.48
-23.21
-26.47
-28.7
-29.78
-30.19
-30.91
-33.22
-38.14
-45.94
-55.96
-66.57
-75.65
-81.24
-82.08
-77.99
-69.69
-58.48
-45.68
-32.38
-19.28
-6.86
4.51
14.5
22.82
29.31
34.0
37.05
38.68
39.06
38.4
36.84
34.59
31.93
29.16
26.61
24.49
22.94
21.97
21.48
21.23
20.96
20.34
19.16
17.32
14.94
12.27
9.62
7.35
5.66
4.43
3.18
1.09
-2.86
-9.46
-18.99
-30.92
-43.91
-56.07
-65.46
-70.65
-71.17
-67.6
-61.42
-54.57
-49.05
-46.41
-47.44
-51.98
-58.87
-66.23
-71.96
-74.38
-72.8
-67.58
-59.82
-50.64
-40.6
-29.54
-17.01
-2.86
12.3
27.11
40.08
50.21
57.49
62.63
66.64
70.07
72.78
73.95
72.65
68.3
60.98
51.3
40.12
28.11
15.57
2.46
-11.33
-25.73
-40.31
-54.4
-67.32
-78.6
-88.14
-95.97
-102.08
-106.15
-107.54
-105.5
-99.49
-89.46
-75.97
-60.19
-43.58
-27.63
-13.52
-1.9
7.19
14.26
20.21
26.03
32.6
40.41
49.48
59.4
69.43
78.74
86.61
92.61
96.72
99.31
101.16
103.08
105.66
108.68
110.86
109.91
103.22
88.7
65.79
35.85
1.94
-32.14
-62.87
-88.04
-106.96
-120.21
-128.83
-133.65
-134.83
-132.12
-125.41
-115.28
-103.11
-90.62
-79.01
-68.34
-57.47
-44.67
-28.67
-9.46
11.56
32.19
50.35
64.95
76.06
84.59
91.49
97.14
101.17
102.77
101.18
96.17
88.04
77.32
64.43
49.48
32.54
14.09
-4.65
-21.87
-35.78
-45.24
-50.13
-51.2
-49.55
-46.08
-41.31
-35.48
-28.89
-22.11
-15.83
-10.62
-6.73
-3.97
-1.99
-0.55
0.26
-0.0
-1.87
-5.75
-11.69
-19.19
-27.29
-34.71
-40.18
-42.66
-41.65
-37.28
-30.26
-21.65
-12.58
-3.97
3.6
9.87
14.8
18.46
20.91
22.23
22.54
22.0
20.9
19.53
18.21
17.28
16.99
17.46
18.65
20.35
22.15
23.58
24.22
23.78
22.16
19.42
15.84
11.74
7.56
3.64
0.25
-2.62
-5.24
-8.01
-11.31
-15.32
-19.95
-24.9
-29.83
-34.52
-38.98
-43.45
-48.24
-53.66
-59.72
-66.02
-71.78
-75.86
-77.06
-74.49
-67.83
-57.49
-44.49
-30.22
-16.05
-3.0
8.33
17.77
25.45
31.54
36.22
39.65
41.97
43.34
43.96
44.01
43.68
43.13
42.59
42.32
42.5
43.25
44.45
45.78
46.81
47.14
46.55
44.99
42.51
39.28
35.47
31.24
26.79
22.33
17.99
13.88
9.93
6.06
2.15
-1.93
-6.2
-10.67
-15.34
-20.26
-25.52
-31.18
-37.17
-43.11
-48.32
-51.89
-52.87
-50.56
-44.84
-36.18
-25.59
-14.32
-3.46
6.21
14.32
20.82
25.77
29.28
31.49
32.58
32.84
32.65
32.38
32.36
32.78
33.74
35.24
37.23
39.61
42.2
44.75
46.97
48.6
49.45
49.48
48.78
47.51
45.83
43.8
41.37
38.4
34.76
30.39
25.37
19.93
14.3
8.74
3.37
-1.81
-6.93
-12.14
-17.54
-23.14
-28.79
-34.11
-38.54
-41.38
-41.93
-39.72
-34.7
-27.2
-18.03
-8.11
1.69
10.76
18.74
25.48
30.85
34.77
37.17
38.24
38.37
38.16
38.28
39.21
41.14
44.01
47.59
51.59
55.76
59.89
63.76
67.17
69.95
72.04
73.49
74.38
74.76
74.59
73.85
72.58
70.98
69.35
68.0
67.09
66.58
66.33
66.1
65.65
64.71
63.06
60.56
57.32
53.83
50.79
48.93
48.68
49.87
51.78
53.45
54.01
52.98
50.31
46.34
41.55
36.44
31.35
26.52
22.06
18.01
14.5
11.91
10.87
12.15
16.41
23.81
33.84
45.16
55.85
63.6
66.26
62.28
51.29
34.32
13.72
-7.49
-26.6
-42.03
-53.77
-62.96
-71.1
-79.09
-86.7
-92.77
-95.98
-95.72
-92.68
-88.69
-86.08
-86.89
-92.27
-102.24
-115.86
-131.43
-146.84
-159.76
-167.93
-169.46
-163.28
-149.45
-129.16
-104.59
-78.36
-52.94
-30.16
-10.99
4.45
16.65
26.27
33.9
39.85
44.23
47.06
48.5
48.8
48.26
47.13
45.45
43.21
40.51
37.66
35.19
33.56
32.86
32.53
31.51
28.47
22.21
11.92
-2.53
-20.58
-40.92
-61.54
-80.03
-94.03
-101.86
-103.02
-98.21
-88.93
-76.85
-63.43
-49.87
-37.67
-28.83
-25.61
-29.57
-40.53
-55.95
-71.39
-82.01
-84.28
-77.35
-63.26
-45.97
-29.88
-18.32
-12.69
-12.5
-16.18
-21.87
-28.11
-33.88
-38.31
-40.36
-38.85
-32.79
-22.07
-7.6
8.78
24.94
39.24
50.88
59.8
66.33
70.77
73.09
73.17
70.94
66.64
60.74
53.91
46.84
39.98
33.5
27.26
20.93
14.2
6.96
-0.66
-8.39
-16.11
-23.95
-32.35
-41.83
-52.78
-65.26
-78.88
-92.82
-105.91
-116.77
-123.95
-126.31
-123.33
-115.19
-102.77
-87.32
-70.09
-52.22
-34.69
-18.38
-4.15
7.29
15.65
21.11
24.36
26.34
28.04
30.3
33.78
38.83
45.43
52.97
60.34
66.12
68.98
68.14
63.58
55.99
46.38
35.71
24.66
13.63
2.95
-6.84
-14.94
-20.5
-22.87
-22.01
-18.55
-13.72
-9.15
-6.39
-6.75
-11.12
-19.94
-33.07
-49.75
-68.37
-86.57
-101.54
-110.61
-111.91
-104.8
-90.04
-69.53
-45.78
-21.3
1.86
22.4
39.81
54.11
65.57
74.38
80.54
83.8
83.91
80.78
74.78
66.76
58.02
50.05
44.23
41.38
41.5
43.74
46.6
48.48
48.2
45.33
40.19
33.62
26.51
19.47
12.72
6.09
-0.77
-8.31
-16.99
-27.24
-39.35
-53.33
-68.83
-85.05
-100.93
-115.43
-127.86
-138.02
-146.16
-152.51
-156.93
-158.64
-156.37
-148.92
-135.75
-117.34
-95.18
-71.31
-47.67
-25.6
-5.62
12.43
29.08
44.85
60.07
74.76
88.78
101.84
113.65
123.98
132.63
139.5
144.57
147.86
149.37
148.97
146.43
141.45
133.91
124.1
112.66
100.53
88.53
77.1
66.12
55.15
43.66
31.39
18.5
5.51
-6.87
-17.97
-27.42
-35.32
-42.26
-49.21
-57.24
-67.17
-79.31
-93.23
-107.92
-121.9
-133.5
-141.07
-143.31
-139.47
-129.61
-114.69
-96.41
-76.82
-57.75
-40.34
-24.9
-11.09
1.69
13.93
25.83
37.3
48.15
58.16
67.21
75.23
82.22
88.32
93.83
99.15
104.63
110.41
116.24
121.47
125.17
126.34
124.16
118.25
108.87
96.95
83.87
71.16
60.05
51.07
43.93
37.77
31.51
24.32
15.84
6.13
-4.67
-16.61
-30.08
-45.58
-63.28
-82.49
-101.56
-118.08
-129.54
-134.17
-131.4
-122.06
-107.94
-91.15
-73.54
-56.32
-40.09
-25.02
-11.2
1.31
12.35
21.8
29.64
36.08
41.43
46.09
50.25
53.83
56.46
57.64
56.98
54.55
50.84
46.72
43.05
40.35
38.5
36.83
34.4
30.41
24.49
16.75
7.68
-2.21
-12.62
-23.46
-34.87
-46.87
-59.36
-72.03
-84.49
-96.29
-106.81
-115.11
-119.8
-119.35
-112.59
-99.23
-80.2
-57.4
-33.07
-9.12
13.29
33.64
51.65
66.85
78.39
85.25
86.74
82.96
74.96
64.48
53.51
43.72
36.11
30.83
27.34
24.7
21.84
17.96
12.6
5.72
-2.32
-10.93
-19.37
-26.94
-33.04
-37.2
-39.14
-38.76
-36.12
-31.49
-25.37
-18.48
-11.59
-5.36
-0.22
3.59
5.8
5.89
3.02
-3.78
-14.98
-30.01
-46.92
-62.74
-74.31
-79.45
-77.78
-70.96
-62.03
-54.29
-50.14
-50.43
-54.29
-59.76
-64.54
-66.76
-65.45
-60.67
-53.11
-43.71
-33.16
-21.73
-9.24
4.57
19.76
35.98
52.45
68.27
82.61
94.94
105.0
112.69
117.86
120.32
119.83
116.18
109.35
99.58
87.39
73.52
58.83
43.95
29.26
14.79
0.33
-14.33
-29.23
-44.06
-58.15
-70.53
-80.05
-85.59
-86.24
-81.59
-71.91
-58.16
-41.75
-24.16
-6.71
9.64
24.22
36.64
46.68
54.41
60.19
64.54
67.93
70.56
72.28
72.81
71.97
69.98
67.43
65.06
63.41
62.65
62.46
62.23
61.25
58.88
54.66
48.4
40.12
30.11
18.91
7.14
-4.56
-15.75
-26.22
-36.11
-45.73
-55.37
-65.08
-74.44
-82.59
-88.37
-90.75
-89.13
-83.63
-74.92
-64.0
-51.77
-38.78
-25.26
-11.24
3.07
17.17
30.31
41.69
50.79
57.49
62.06
64.95
66.59
67.27
67.14
66.31
64.75
62.39
58.99
54.23
47.87
39.86
30.48
20.18
9.43
-1.48
-12.47
-23.52
-34.41
-44.68
-53.67
-60.78
-65.82
-69.15
-71.63
-74.31
-77.9
-82.41
-86.86
-89.55
-88.53
-82.21
-69.97
-52.28
-30.58
-6.84
16.95
39.14
58.71
75.33
89.35
101.46
112.31
122.03
130.06
135.27
136.51
133.21
125.75
115.27
103.29
91.07
79.3
68.16
57.6
47.65
38.38
29.69
21.11
11.8
0.98
-11.6
-25.4
-39.21
-51.61
-61.55
-68.69
-73.33
-76.11
-77.65
-78.32
-78.38
-78.04
-77.5
-76.81
-75.62
-73.04
-67.88
-59.16
-46.54
-30.69
-13.07
4.49
20.5
34.2
45.54
54.8
62.07
66.94
68.58
66.26
59.87
50.27
39.05
28.04
18.62
11.34
5.93
1.67
-2.23
-6.31
-10.87
-16.05
-22.08
-29.21
-37.62
-47.18
-57.33
-67.11
-75.38
-81.11
-83.68
-83.02
-79.63
-74.43
-68.47
-62.62
-57.28
-52.21
-46.55
-39.08
-28.75
-15.17
1.08
18.49
34.97
48.58
57.96
62.8
63.67
61.7
58.09
53.7
48.94
43.86
38.32
32.22
25.65
18.85
12.16
5.83
0.04
-5.16
-9.73
-13.56
-16.43
-18.08
-18.27
-16.81
-13.69
-9.1
-3.41
2.87
9.35
15.7
21.77
27.27
31.59
33.72
32.46
26.88
16.79
3.1
-12.25
-26.78
-38.08
-44.48
-45.35
-41.19
-33.36
-23.62
-13.63
-4.59
2.99
9.16
14.33
18.97
23.39
27.65
31.59
35.09
38.12
40.95
44.13
48.29
53.92
61.11
69.43
77.91
85.27
90.16
91.55
88.96
82.6
73.35
62.53
51.46
41.15
32.0
23.85
16.2
8.56
0.7
-7.29
-15.25
-23.22
-31.71
-41.71
-54.34
-70.35
-89.64
-111.01
-132.26
-150.72
-163.96
-170.43
-169.62
-162.01
-148.7
-130.96
-110.09
-87.37
-64.12
-41.57
-20.72
-2.19
13.7
26.72
36.64
43.11
46.05
45.86
43.6
40.74
38.74
38.41
39.75
42.02
44.11
45.05
44.28
41.72
37.62
32.39
26.36
19.65
12.12
3.49
-6.46
-17.63
-29.49
-41.18
-51.74
-60.54
-67.49
-72.99
-77.6
-81.69
-85.06
-87.08
-86.91
-83.89
-77.78
-68.67
-56.89
-42.88
-27.34
-11.37
3.49
15.54
23.54
27.22
27.45
25.86
24.16
23.42
23.81
24.77
25.55
25.65
25.11
24.25
23.45
22.89
22.43
21.76
20.59
18.87
16.8
14.78
13.29
12.63
12.87
13.87
15.43
17.4
19.76
22.54
25.75
29.27
32.88
36.29
39.17
41.16
41.8
40.47
36.46
29.14
18.28
4.3
-11.51
-27.12
-40.18
-48.63
-51.34
-48.51
-41.61
-32.89
-24.56
-18.14
-14.11
-12.15
-11.62
-12.13
-13.68
-16.5
-20.59
-25.42
-30.02
-33.3
-34.35
-32.73
-28.49
-21.93
-13.52
-3.79
6.62
17.06
26.91
35.71
43.15
49.04
53.01
54.51
52.94
47.94
39.76
29.37
18.22
7.82
-0.78
-7.25
-12.04
-16.14
-20.77
-27.02
-35.58
-46.48
-59.02
-71.82
-83.1
-90.96
-93.87
-91.0
-82.37
-68.85
-51.95
-33.4
-14.77
2.8
18.76
33.01
45.68
56.95
66.96
75.74
83.3
89.67
94.79
98.52
100.59
100.74
98.93
95.46
90.92
86.0
81.13
76.37
71.36
65.53
58.52
50.34
41.49
32.69
24.67
17.78
11.92
6.59
1.19
-4.75
-11.27
-18.15
-25.0
-31.61
-38.15
-45.18
-53.45
-63.54
-75.52
-88.71
-101.71
-112.67
-119.73
-121.44
-117.06
-106.61
-90.95
-71.51
-50.11
-28.62
-8.6
9.02
23.99
36.63
47.41
56.58
63.96
69.05
71.37
70.78
67.67
62.81
57.14
51.46
46.27
41.78
37.94
34.55
31.26
27.69
23.48
18.43
12.54
6.01
-0.83
-7.62
-14.0
-19.78
-24.89
-29.55
-34.17
-39.23
-45.01
-51.5
-58.26
-64.68
-70.28
-74.92
-78.94
-82.93
-87.35
-92.11
-96.5
-99.21
-98.84
-94.27
-85.15
-71.95
-55.86
-38.47
-21.33
-5.67
7.81
18.82
27.41
33.77
38.14
40.83
42.19
42.68
42.77
42.89
43.32
44.12
45.21
46.44
47.66
48.83
49.94
50.94
51.65
51.78
50.98
49.04
45.91
41.84
37.3
32.73
28.42
24.38
20.4
16.18
11.48
6.26
0.62
-5.26
-11.21
-17.18
-23.22
-29.5
-36.19
-43.34
-50.7
-57.61
-63.01
-65.66
-64.51
-59.1
-49.78
-37.64
-24.15
-10.75
1.55
12.28
21.33
28.81
34.78
39.3
42.44
44.41
45.62
46.53
47.53
48.83
50.4
52.09
53.73
55.27
56.73
58.09
59.27
60.12
60.53
60.5
60.16
59.61
58.73
57.1
54.09
49.09
41.79
32.37
21.4
9.64
-2.19
-13.59
-24.31
-34.3
-43.63
-52.45
-60.9
-68.98
-76.39
-82.37
-85.82
-85.59
-80.88
-71.69
-58.9
-44.05
-28.84
-14.69
-2.32
8.13
16.97
24.67
31.65
38.25
44.66
50.93
56.98
62.64
67.79
72.42
76.81
81.36
86.39
91.9
97.39
101.88
104.25
103.57
99.39
91.9
81.81
70.09
57.72
45.48
33.86
23.07
13.15
4.04
-4.32
-11.97
-18.94
-25.28
-31.14
-36.81
-42.7
-49.31
-57.1
-66.37
-77.1
-88.83
-100.7
-111.42
-119.59
-123.98
-123.88
-119.15
-110.27
-97.98
-83.08
-66.23
-47.97
-28.85
-9.56
9.12
26.48
42.1
55.94
68.23
79.21
88.93
97.17
103.6
108.11
111.03
113.22
115.75
119.45
124.3
129.23
132.34
131.56
125.5
113.96
97.9
78.99
58.81
38.5
18.69
-0.29
-18.06
-34.2
-48.51
-61.2
-72.98
-84.77
-97.31
-110.87
-125.19
-139.64
-153.4
-165.47
-174.62
-179.42
-178.58
-171.34
-157.91
-139.54
-118.13
-95.73
-74.0
-53.92
-35.86
-19.87
-5.89
6.04
15.74
22.97
27.47
29.11
27.98
24.43
19.09
12.74
6.1
-0.41
-6.72
-13.14
-20.1
-27.92
-36.58
-45.54
-53.88
-60.46
-64.36
-65.21
-63.36
-59.7
-55.33
-51.17
-47.7
-45.03
-43.15
-42.2
-42.47
-44.24
-47.36
-51.08
-54.12
-55.06
-52.79
-46.92
-37.75
-26.1
-12.9
0.97
14.89
28.36
40.98
52.33
61.95
69.34
74.06
75.89
74.94
71.77
67.3
62.62
58.61
55.72
53.84
52.48
51.14
49.51
47.58
45.5
43.42
41.39
39.38
37.32
35.22
33.05
30.84
28.69
26.82
25.65
25.63
27.0
29.55
32.63
35.29
36.73
36.49
34.62
31.64
28.29
25.45
23.99
24.57
27.38
31.94
37.01
40.96
42.31
40.33
35.32
28.48
21.37
15.21
10.47
6.75
3.12
-1.46
-7.61
-15.34
-24.03
-32.7
-40.31
-46.09
-49.67
-51.0
-50.22
-47.5
-42.91
-36.61
-28.86
-20.16
-11.22
-2.73
4.75
11.03
16.27
20.86
25.27
29.75
34.3
38.56
41.92
43.65
42.99
39.17
31.62
20.08
4.99
-12.4
-29.99
-45.27
-55.88
-60.44
-58.94
-52.75
-43.98
-34.7
-26.34
-19.35
-13.53
-8.4
-3.59
1.03
5.35
9.21
12.48
15.01
16.62
17.03
16.02
13.53
9.84
5.63
1.88
-0.39
-0.36
2.25
7.05
13.04
18.89
23.49
26.35
27.7
28.16
28.12
27.06
23.57
15.79
2.44
-16.27
-38.3
-60.24
-78.42
-90.06
-93.99
-90.67
-81.66
-68.98
-54.58
-40.18
-27.38
-17.63
-12.13
-11.49
-15.42
-22.69
-31.44
-39.74
-46.12
-49.86
-50.93
-49.64
-46.43
-41.64
-35.62
-28.86
-21.95
-15.53
-10.08
-5.78
-2.71
-0.8
-0.06
-0.51
-2.01
-4.15
-6.36
-8.07
-8.96
-9.12
-8.95
-9.0
-9.69
-11.08
-12.84
-14.28
-14.56
-12.86
-8.63
-1.72
7.57
18.57
30.41
42.25
53.44
63.49
72.02
78.61
82.81
84.22
82.7
78.47
72.23
65.0
57.96
52.11
48.0
45.6
44.38
43.49
42.05
39.52
35.8
31.2
26.26
21.47
16.99
12.66
8.04
2.66
-3.79
-11.46
-20.38
-30.48
-41.57
-53.19
-64.37
-73.7
-79.66
-81.06
-77.63
-70.19
-60.41
-50.25
-41.31
-34.33
-29.14
-24.96
-20.79
-15.88
-9.88
-2.92
4.56
11.97
18.76
24.52
29.1
32.65
35.6
38.51
41.92
46.08
50.94
56.07
60.95
65.14
68.54
71.21
73.24
74.32
73.66
69.95
61.91
48.76
30.66
8.88
-14.48
-36.99
-56.52
-71.59
-81.56
-86.45
-86.66
-82.81
-75.71
-66.48
-56.47
-47.13
-39.53
-33.93
-29.65
-25.42
-19.97
-12.69
-3.85
5.51
14.19
21.32
26.58
30.1
32.15
32.88
32.27
30.16
26.42
21.03
14.17
6.15
-2.56
-11.36
-19.68
-27.09
-33.45
-39.0
-44.21
-49.65
-55.7
-62.4
-69.23
-75.15
-78.76
-78.6
-73.56
-63.31
-48.49
-30.67
-11.93
5.65
20.48
31.74
39.3
43.53
44.95
44.18
41.8
38.44
34.75
31.41
29.01
28.02
28.66
30.88
34.3
38.32
42.24
45.49
47.73
48.92
49.16
48.53
47.0
44.45
40.78
35.97
30.16
23.57
16.47
9.16
2.08
-4.13
-8.67
-10.77
-9.94
-6.2
-0.13
7.33
15.07
22.08
27.61
31.11
32.26
30.84
26.83
20.43
12.14
2.76
-6.7
-15.2
-21.82
-25.99
-27.52
-26.68
-24.02
-20.32
-16.38
-12.87
-10.23
-8.62
-7.94
-7.92
-8.26
-8.73
-9.25
-9.98
-11.27
-13.6
-17.3
-22.23
-27.61
-32.03
-33.85
-31.79
-25.42
-15.41
-3.29
9.05
19.98
28.52
34.34
37.64
38.8
38.21
36.24
33.27
29.73
26.0
22.43
19.23
16.51
14.33
12.9
12.47
13.37
15.77
19.55
24.17
28.85
32.76
35.39
36.69
37.06
36.94
36.61
35.84
33.96
30.13
23.71
14.55
3.14
-9.43
-21.7
-32.14
-39.48
-42.95
-42.51
-38.75
-32.82
-25.98
-19.36
-13.66
-9.13
-5.78
-3.47
-2.05
-1.42
-1.44
-1.92
-2.6
-3.28
-3.79
-4.1
-4.2
-4.11
-3.81
-3.26
-2.51
-1.66
-0.96
-0.65
-0.92
-1.84
-3.29
-5.05
-6.85
-8.46
-9.82
-11.07
-12.5
-14.6
-17.83
-22.41
-28.12
-34.19
-39.32
-42.07
-41.18
-36.04
-26.93
-14.95
-1.72
11.05
21.94
30.08
35.12
37.1
36.39
33.52
29.23
24.32
19.65
15.93
13.63
12.88
13.51
15.15
17.38
19.89
22.52
25.18
27.81
30.25
32.16
33.11
32.62
30.42
26.5
21.25
15.31
9.37
3.9
-0.98
-5.53
-10.3
-15.87
-22.62
-30.5
-38.92
-46.83
-52.91
-55.93
-55.06
-50.18
-41.92
-31.4
-20.02
-9.01
0.73
8.74
14.9
19.25
21.9
22.98
22.64
21.11
18.74
16.0
13.41
11.44
10.35
10.19
10.75
11.68
12.69
13.6
14.42
15.22
16.03
16.67
16.8
16.07
14.31
11.64
8.47
5.27
2.37
-0.23
-2.87
-6.04
-10.22
-15.65
-22.23
-29.47
-36.54
-42.38
-45.91
-46.25
-43.0
-36.39
-27.31
-17.12
-7.3
0.85
6.51
9.39
9.72
8.13
5.4
2.31
-0.5
-2.59
-3.75
-3.87
-2.95
-1.04
1.72
5.13
8.91
12.67
16.0
18.47
19.73
19.57
17.94
15.0
11.03
6.41
1.42
-3.71
-8.88
-14.05
-19.2
-24.32
-29.43
-34.53
-39.51
-44.08
-47.64
-49.45
-48.72
-45.01
-38.34
-29.26
-18.65
-7.53
3.2
12.9
21.13
27.63
32.28
35.06
36.22
36.18
35.54
34.83
34.45
34.53
35.01
35.77
36.79
38.21
40.23
42.99
46.36
49.97
53.24
55.67
56.97
57.36
57.4
57.9
59.52
62.44
66.16
69.46
70.77
68.6
61.99
50.78
35.72
18.21
0.04
-17.02
-31.57
-42.86
-50.9
-56.33
-60.16
-63.26
-66.09
-68.56
-70.21
-70.63
-69.74
-67.86
-65.51
-63.1
-60.68
-57.96
-54.58
-50.36
-45.45
-40.32
-35.49
-31.27
-27.72
-24.67
-21.96
-19.59
-17.79
-16.91
-17.22
-18.79
-21.35
-24.41
-27.43
-29.96
-31.83
-33.16
-34.29
-35.71
-37.87
-41.06
-45.28
-50.19
-55.03
-58.77
-60.33
-58.76
-53.53
-44.66
-32.71
-18.71
-3.82
10.78
24.18
35.75
45.13
52.22
57.12
60.12
61.66
62.31
62.64
63.16
64.22
66.04
68.72
72.23
76.45
81.09
85.8
90.22
94.22
97.86
101.2
103.92
105.04
103.04
96.26
83.71
65.52
42.97
18.05
-7.35
-31.97
-55.22
-76.9
-96.71
-114.13
-128.6
-139.84
-148.03
-153.58
-156.65
-156.91
-153.54
-145.69
-133.1
-116.43
-97.17
-77.23
-58.35
-41.71
-27.8
-16.58
-7.71
-0.8
4.48
8.35
11.09
13.02
14.53
16.1
18.13
20.86
24.21
27.91
31.54
34.78
37.49
39.74
41.71
43.48
45.05
46.23
46.81
46.55
45.34
43.2
40.29
36.95
33.6
30.69
28.56
27.32
26.71
26.19
25.15
23.04
19.56
14.67
8.53
1.33
-6.68
-15.19
-23.78
-31.92
-39.08
-44.8
-48.86
-51.13
-51.62
-50.39
-47.63
-43.73
-39.31
-35.05
-31.48
-28.71
-26.43
-24.08
-21.13
-17.4
-13.08
-8.58
-4.3
-0.43
3.05
6.25
9.2
11.77
13.67
14.57
14.29
12.88
10.66
8.06
5.53
3.36
1.61
0.15
-1.26
-2.93
-5.14
-8.0
-11.47
-15.13
-18.19
-19.56
-18.11
-13.06
-4.23
7.8
21.91
36.78
51.12
63.9
74.24
81.42
84.85
84.2
79.57
71.5
60.87
48.64
35.66
22.64
10.19
-1.07
-10.57
-17.94
-23.11
-26.31
-27.9
-28.22
-27.49
-25.84
-23.52
-20.86
-18.29
-16.05
-14.08
-12.11
-9.83
-7.14
-4.26
-1.65
0.25
1.17
1.09
0.11
-1.71
-4.43
-8.17
-12.86
-18.13
-23.18
-27.0
-28.71
-27.92
-24.87
-20.41
-15.72
-11.93
-9.72
-9.2
-9.87
-10.87
-11.33
-10.64
-8.59
-5.39
-1.43
2.88
7.28
11.71
16.23
20.96
25.98
31.28
36.72
42.02
46.76
50.45
52.53
52.58
50.3
45.56
38.38
28.92
17.47
4.53
-9.26
-23.07
-36.05
-47.43
-56.52
-62.83
-66.13
-66.6
-64.94
-62.26
-59.79
-58.33
-57.85
-57.37
-55.34
-50.39
-41.94
-30.57
-17.73
-5.23
5.44
13.32
17.98
19.25
17.09
11.73
3.87
-5.29
-14.16
-21.29
-25.75
-27.37
-26.54
-23.79
-19.41
-13.38
-5.5
4.22
15.33
26.96
38.04
47.75
55.67
61.78
66.34
69.65
71.9
73.16
73.45
72.74
70.93
67.9
63.55
57.91
51.11
43.4
34.87
25.47
14.91
2.9
-10.69
-25.55
-40.88
-55.57
-68.34
-78.0
-83.67
-84.84
-81.49
-74.08
-63.55
-51.16
-38.36
-26.43
-16.32
-8.45
-2.79
1.03
3.5
5.04
5.97
6.57
7.15
8.02
9.51
11.8
14.83
18.3
21.8
24.91
27.35
28.98
29.78
29.76
28.9
27.17
24.54
21.06
16.88
12.27
7.54
2.96
-1.23
-4.98
-8.37
-11.6
-14.98
-18.84
-23.47
-29.07
-35.65
-42.81
-49.76
-55.34
-58.29
-57.62
-53.0
-44.8
-34.04
-22.02
-10.01
1.05
10.57
18.23
23.91
27.58
29.37
29.55
28.55
26.92
25.23
23.96
23.42
23.73
24.83
26.49
28.43
30.35
32.03
33.29
34.03
34.15
33.58
32.33
30.5
28.32
26.05
23.9
21.93
20.05
18.07
15.9
13.48
10.92
8.33
5.82
3.4
0.98
-1.56
-4.4
-7.75
-11.79
-16.5
-21.54
-26.12
-29.05
-29.09
-25.23
-17.17
-5.38
8.99
24.45
39.59
53.35
65.17
74.83
82.37
87.86
91.43
93.24
93.56
92.79
91.27
89.2
86.47
82.79
77.87
71.66
64.59
57.3
50.54
44.78
40.06
36.05
32.28
28.3
23.82
18.69
12.88
6.51
-0.16
-6.69
-12.66
-17.89
-22.62
-27.5
-33.46
-41.34
-51.6
-64.2
-78.67
-94.27
-110.23
-125.7
-139.7
-151.02
-158.34
-160.42
-156.54
-146.79
-132.13
-114.15
-94.73
-75.51
-57.66
-41.8
-28.12
-16.6
-7.2
-0.0
4.87
7.3
7.39
5.57
2.64
-0.42
-2.67
-3.51
-2.87
-1.08
1.26
3.7
6.06
8.39
10.8
13.21
15.21
16.27
15.87
13.8
10.14
5.19
-0.72
-7.25
-14.15
-21.11
-27.78
-33.86
-39.2
-43.95
-48.49
-53.35
-58.97
-65.41
-72.26
-78.58
-83.11
-84.53
-81.89
-74.9
-64.08
-50.56
-35.77
-21.08
-7.46
4.47
14.41
22.3
28.14
31.98
34.04
34.67
34.38
33.7
33.14
33.0
33.34
33.96
34.54
34.73
34.37
33.43
32.07
30.51
28.83
27.0
24.84
22.16
18.9
15.19
11.33
7.6
4.13
0.81
-2.75
-7.06
-12.55
-19.43
-27.61
-36.62
-45.64
-53.61
-59.41
-62.08
-61.05
-56.29
-48.33
-38.12
-26.83
-15.6
-5.38
3.15
9.61
13.85
15.98
16.27
15.19
13.27
11.04
8.9
7.01
5.36
3.79
2.13
0.35
-1.38
-2.83
-3.73
-3.99
-3.67
-3.02
-2.33
-1.89
-1.9
-2.46
-3.53
-4.97
-6.57
-8.09
-9.45
-10.75
-12.33
-14.61
-17.91
-22.17
-26.89
-31.07
-33.59
-33.51
-30.41
-24.53
-16.62
-7.64
1.6
10.55
18.89
26.42
32.87
37.96
41.52
43.67
44.8
45.52
46.39
47.77
49.69
51.84
53.8
55.12
55.58
55.19
54.27
53.24
52.53
52.37
52.73
53.33
53.78
53.66
52.64
50.59
47.5
43.56
39.07
34.33
29.5
24.54
19.07
12.56
4.63
-4.72
-14.85
-24.53
-32.38
-37.22
-38.56
-36.68
-32.55
-27.38
-22.37
-18.47
-16.33
-16.27
-18.31
-22.08
-26.88
-31.74
-35.74
-38.15
-38.55
-36.78
-32.84
-26.82
-18.92
-9.56
0.67
11.06
21.03
30.28
38.86
46.95
54.52
61.21
66.27
68.86
68.47
65.12
59.39
52.18
44.21
35.77
26.61
16.19
3.94
-10.35
-26.39
-43.4
-60.2
-75.33
-87.22
-94.38
-95.71
-90.73
-79.71
-63.65
-44.04
-22.46
-0.41
20.9
40.4
57.12
70.16
78.83
82.89
82.73
79.32
73.92
67.64
61.03
54.05
46.22
37.11
26.7
15.55
4.59
-5.26
-13.46
-19.96
-25.06
-29.19
-32.6
-35.35
-37.41
-38.81
-39.74
-40.52
-41.52
-42.99
-44.9
-46.83
-47.92
-47.02
-42.95
-34.85
-22.46
-6.32
12.35
31.86
50.4
66.42
78.81
87.03
91.04
91.13
87.73
81.28
72.15
60.8
47.78
33.77
19.52
5.7
-7.01
-17.93
-26.25
-31.12
-31.91
-28.56
-21.67
-12.4
-2.08
8.09
17.23
24.73
30.0
32.59
32.27
29.24
24.12
17.63
10.1
1.22
-9.81
-23.75
-40.62
-59.34
-77.82
-93.53
-104.21
-108.45
-105.87
-97.07
-83.27
-66.03
-46.97
-27.6
-9.24
7.16
20.99
32.11
40.78
47.6
53.23
58.22
62.7
66.38
68.67
69.1
67.57
64.45
60.41
56.04
51.6
46.88
41.38
34.54
26.06
15.93
4.49
-7.65
-19.54
-29.98
-37.71
-41.65
-41.3
-36.92
-29.53
-20.57
-11.61
-3.88
1.92
5.71
8.01
9.76
12.01
15.6
20.86
27.51
34.83
41.97
48.29
53.56
57.99
62.09
66.48
71.7
78.1
85.55
93.43
100.5
105.13
105.61
100.67
89.91
73.98
54.52
33.7
13.69
-3.89
-18.29
-29.58
-38.43
-45.62
-51.69
-56.72
-60.44
-62.47
-62.67
-61.18
-58.46
-55.07
-51.48
-47.94
-44.39
-40.62
-36.25
-30.95
-24.44
-16.62
-7.61
2.24
12.39
22.3
31.59
40.09
47.78
54.59
60.16
63.89
64.99
62.88
57.31
48.47
36.83
22.84
6.78
-11.26
-31.12
-52.37
-74.04
-94.78
-112.93
-126.87
-135.4
-137.99
-135.08
-127.95
-118.48
-108.65
-100.06
-93.49
-88.7
-84.5
-79.09
-70.67
-58.17
-41.73
-22.87
-3.99
12.42
24.63
32.2
35.72
36.13
33.85
28.48
19.17
5.3
-12.68
-33.01
-53.09
-70.14
-81.9
-86.88
-84.5
-74.92
-58.99
-38.3
-15.07
8.19
29.13
46.05
58.08
65.21
68.02
67.41
64.48
60.36
56.13
52.61
50.11
48.39
46.78
44.52
41.13
36.6
31.35
26.01
21.16
17.06
13.62
10.5
7.2
3.33
-1.29
-6.48
-11.69
-16.15
-19.18
-20.57
-20.94
-21.61
-24.32
-30.52
-40.75
-54.35
-69.65
-84.45
-96.51
-103.81
-104.78
-98.41
-84.57
-64.22
-39.53
-13.44
10.98
31.37
46.49
56.31
61.61
63.61
63.57
62.66
61.89
61.95
63.11
65.18
67.63
69.81
71.27
71.82
71.41
70.11
67.85
64.47
59.71
53.35
45.26
35.48
24.24
11.96
-0.8
-13.3
-24.72
-34.16
-40.68
-43.48
-41.97
-36.07
-26.29
-13.66
0.43
14.66
28.12
40.45
51.78
62.41
72.51
81.85
89.8
95.43
97.74
96.01
89.98
80.0
67.03
52.29
36.88
21.54
6.47
-8.42
-23.21
-37.74
-51.58
-64.2
-75.15
-84.11
-90.81
-94.84
-95.67
-92.83
-86.17
-76.18
-63.94
-50.97
-38.84
-28.8
-21.61
-17.55
-16.43
-17.84
-21.1
-25.32
-29.41
-32.17
-32.51
-29.79
-24.07
-16.15
-7.4
0.72
7.15
11.42
13.63
14.1
13.18
10.98
7.61
3.31
-1.4
-5.73
-8.88
-10.3
-9.89
-8.1
-5.71
-3.65
-2.68
-3.21
-5.29
-8.66
-12.98
-17.84
-22.9
-27.72
-31.85
-34.81
-36.25
-36.14
-34.86
-33.06
-31.53
-30.98
-31.82
-34.26
-38.22
-43.37
-48.92
-53.75
-56.51
-56.01
-51.63
-43.7
-33.36
-22.25
-11.89
-3.22
3.52
8.64
12.62
15.77
18.2
20.0
21.35
22.68
24.51
27.23
30.88
35.12
39.46
43.47
46.94
49.91
52.47
54.62
56.1
56.53
55.5
52.81
48.5
42.8
35.95
28.04
18.94
8.39
-3.89
-17.95
-33.6
-50.21
-66.78
-81.97
-94.16
-101.77
-103.63
-99.28
-89.19
-74.64
-57.35
-39.07
-21.2
-4.7
9.8
21.9
31.37
38.16
42.52
45.02
46.42
47.44
48.58
50.04
51.7
53.3
54.52
55.12
55.0
54.2
52.76
50.62
47.55
43.17
37.21
29.69
21.1
12.28
4.15
-2.6
-7.79
-11.77
-15.18
-18.68
-22.74
-27.46
-32.55
-37.38
-41.15
-43.0
-42.33
-38.99
-33.42
-26.62
-19.95
-14.74
-11.96
-11.88
-14.07
-17.52
-21.03
-23.49
-24.17
-22.85
-19.63
-14.83
-8.85
-2.02
5.35
13.05
20.94
29.0
37.34
46.09
55.36
65.12
75.13
84.9
93.63
100.37
104.08
104.05
100.03
92.25
81.14
67.0
49.75
29.05
4.68
-22.76
-51.59
-79.17
-102.38
-118.51
-125.83
-123.92
-113.55
-96.34
-74.35
-49.82
-24.91
-1.57
18.64
34.71
46.2
53.36
56.88
57.72
56.89
55.18
53.08
50.85
48.45
45.77
42.62
38.89
34.57
29.72
24.49
19.02
13.35
7.43
1.19
-5.4
-12.29
-19.32
-26.26
-32.92
-39.18
-45.11
-50.88
-56.79
-63.11
-69.97
-77.18
-84.15
-89.94
-93.44
-93.67
-90.08
-82.72
-72.3
-60.0
-47.18
-35.05
-24.51
-15.96
-9.47
-4.84
-1.77
0.05
0.88
0.93
0.44
-0.38
-1.3
-2.16
-2.81
-3.17
-3.23
-2.95
-2.35
-1.47
-0.43
0.63
1.54
2.19
2.54
2.63
2.54
2.32
1.92
1.19
-0.05
-1.88
-4.21
-6.72
-8.92
-10.23
-10.09
-8.02
-3.71
2.97
11.88
22.57
34.28
45.99
56.6
65.17
71.06
74.09
74.44
72.59
69.15
64.74
59.9
55.07
50.55
46.54
43.11
40.24
37.86
35.8
33.92
31.94
29.6
26.59
22.63
17.61
11.67
5.21
-1.18
-6.9
-11.62
-15.53
-19.27
-23.68
-29.43
-36.66
-44.84
-53.04
-60.1
-64.88
-66.33
-63.57
-56.02
-43.69
-27.35
-8.59
10.58
28.28
43.35
55.48
64.87
71.69
75.57
75.6
70.83
60.97
46.71
29.62
11.64
-5.7
-21.59
-35.93
-48.81
-59.89
-68.3
-72.85
-72.74
-68.14
-60.31
-51.24
-42.97
-36.91
-33.57
-32.59
-32.99
-33.4
-32.23
-27.86
-18.99
-5.09
13.27
34.29
55.3
73.27
85.49
89.96
85.65
72.74
52.58
27.55
0.58
-25.52
-48.62
-67.66
-82.35
-92.77
-98.9
-100.55
-97.54
-90.14
-79.28
-66.35
-52.85
-40.02
-28.61
-18.92
-11.01
-4.87
-0.49
2.11
2.89
1.75
-1.33
-6.25
-12.58
-19.6
-26.32
-31.73
-35.0
-35.63
-33.47
-28.64
-21.56
-12.81
-3.27
6.13
14.56
21.54
27.14
31.9
36.64
42.15
48.97
57.27
66.99
77.9
89.73
102.16
114.74
126.91
137.9
146.84
152.81
155.01
152.92
146.45
136.01
122.42
106.77
90.04
72.77
54.88
35.78
14.73
-8.61
-33.73
-59.28
-83.26
-103.5
-118.06
-125.48
-124.82
-115.76
-98.78
-75.27
-47.59
-18.71
8.42
31.48
49.26
61.64
