-116.55
-127.09
-131.76
-131.06
-125.93
-117.5
-106.83
-94.99
-83.06
-72.06
-62.79
-55.62
-50.28
-46.02
-41.93
-37.33
-32.04
-26.4
-20.94
-16.17
-12.29
-9.18
-6.53
-4.02
-1.51
0.92
3.09
4.8
6.02
6.9
7.68
8.62
9.89
11.58
13.71
16.35
19.6
23.62
28.57
34.54
41.46
49.09
57.02
64.78
71.95
78.38
84.29
90.23
96.99
105.3
115.52
127.53
140.82
154.77
168.91
182.91
196.22
207.76
215.68
217.81
212.4
198.83
177.77
150.71
119.12
83.8
45.04
3.34
-39.72
-81.14
-117.14
-144.38
-161.19
-168.09
-167.41
-162.26
-155.33
-148.34
-141.9
-136.02
-130.54
-125.46
-120.96
-117.19
-114.06
-111.17
-107.86
-103.54
-97.87
-90.97
-83.45
-76.24
-70.37
-66.7
-65.74
-67.51
-71.45
-76.42
-80.88
-83.15
-81.88
-76.43
-67.08
-54.92
-41.5
-28.16
-15.74
-4.38
6.19
16.32
26.11
35.39
43.84
51.29
57.84
63.69
68.86
72.95
75.07
74.17
69.49
60.93
49.16
35.45
21.13
7.31
-5.45
-17.06
-27.7
-37.51
-46.31
-53.6
-58.7
-61.04
-60.45
-57.32
-52.52
-47.06
-41.89
-37.53
-34.05
-31.24
-28.79
-26.54
-24.63
-23.34
-22.94
-23.47
-24.52
-25.29
-24.85
-22.45
-17.83
-11.34
-3.81
3.87
11.02
17.35
22.86
27.66
31.75
34.93
36.98
37.84
37.72
37.11
36.58
36.56
37.15
38.2
39.44
40.7
42.03
43.61
45.63
48.1
50.82
53.45
55.71
57.43
58.6
59.3
59.59
59.5
59.1
58.56
58.18
58.27
59.03
60.44
62.28
64.28
66.29
68.36
70.7
73.54
76.97
80.93
85.35
90.26
95.87
102.42
110.03
118.44
127.06
135.11
141.84
146.66
149.17
149.01
145.81
139.18
129.0
115.68
100.2
84.09
69.08
56.71
48.05
43.6
43.29
46.66
53.05
61.59
71.29
81.08
89.81
96.47
100.21
100.48
96.94
89.43
77.86
62.37
43.45
22.08
-0.34
-22.13
-41.75
-58.11
-70.81
-80.09
-86.68
-91.61
-96.05
-101.1
-107.67
-116.22
-126.64
-138.14
-149.48
-159.41
-167.12
-172.71
-177.09
-181.6
-187.32
-194.35
-201.68
-207.54
-210.06
-208.08
-201.53
-191.21
-178.34
-163.91
-148.49
-132.26
-115.38
-98.34
-81.92
-67.02
-54.26
-43.78
-35.34
-28.48
-22.89
-18.45
-15.2
-13.2
-12.37
-12.42
-12.94
-13.56
-14.06
-14.43
-14.81
-15.44
-16.52
-18.11
-20.15
-22.41
-24.73
-27.02
-29.42
-32.2
-35.56
-39.45
-43.42
-46.64
-48.19
-47.34
-43.79
-37.86
-30.28
-21.96
-13.65
-5.72
1.84
9.22
16.53
23.49
29.48
33.72
35.72
35.59
34.14
32.52
31.68
31.84
32.24
31.36
27.52
19.48
6.91
-9.5
-28.08
-46.39
-61.37
-69.63
-68.23
-55.59
-32.29
-1.39
32.28
63.48
88.3
105.19
115.06
120.13
122.41
122.45
119.23
111.03
96.82
77.21
54.43
31.48
10.87
-6.16
-19.68
-30.3
-38.4
-43.66
-45.25
-42.48
-35.39
-24.93
-12.76
-0.76
9.35
16.25
19.21
18.0
13.0
5.02
-4.8
-15.17
-24.81
-32.63
-37.74
-39.64
-38.25
-34.03
-28.02
-21.6
-16.18
-12.8
-11.95
-13.47
-16.8
-21.21
-26.12
-31.17
-36.21
-41.23
-46.21
-51.04
-55.5
-59.29
-62.1
-63.72
-64.11
-63.52
-62.37
-61.16
-60.25
-59.76
-59.52
-59.18
-58.33
-56.67
-53.98
-50.18
-45.22
-39.1
-31.91
-23.9
-15.54
-7.41
-0.06
6.12
11.1
15.18
18.82
22.51
26.58
31.16
36.22
41.62
47.17
52.62
57.69
62.04
65.37
67.51
68.45
68.31
67.26
65.43
62.97
60.08
57.09
54.39
52.28
50.81
49.62
48.05
45.39
41.21
35.44
28.48
20.99
13.65
7.0
1.29
-3.44
-7.2
-9.9
-11.2
-10.51
-7.22
-0.91
8.38
20.08
33.2
46.59
59.22
70.4
79.77
87.2
92.62
96.05
97.62
97.69
96.91
96.1
96.01
97.03
98.98
101.12
102.4
101.81
98.71
93.02
85.08
75.47
64.66
52.94
40.42
27.19
13.41
-0.63
-14.6
-28.28
-41.53
-54.27
-66.32
-77.35
-86.91
-94.74
-100.87
-105.71
-109.81
-113.56
-116.93
-119.4
-120.11
-118.23
-113.25
-105.1
-94.14
-80.94
-66.13
-50.25
-33.75
-17.08
-0.7
14.95
29.47
42.73
54.86
66.26
77.42
88.72
100.33
112.22
124.19
136.08
147.81
159.36
170.69
181.68
192.09
201.62
209.98
216.92
222.11
225.11
225.49
222.91
217.46
209.73
200.71
191.4
182.21
172.64
161.33
146.61
127.31
103.41
76.1
47.23
18.56
-9.08
-35.93
-63.05
-91.74
-123.05
-157.67
-195.94
-237.64
-281.67
-325.67
-366.09
-398.92
-420.73
-429.58
-425.32
-409.19
-383.09
-349.02
-308.96
-265.19
-220.57
-178.49
-142.26
-114.2
-94.91
-83.04
-75.81
-69.98
-63.12
-54.48
-45.19
-37.43
-33.15
-32.76
-34.74
-36.24
-34.6
-28.62
-19.21
-8.84
-0.37
4.25
4.62
1.91
-1.76
-4.09
-3.28
1.61
10.56
22.7
36.48
50.1
61.83
70.42
75.3
76.62
75.14
72.03
68.63
66.23
65.95
68.42
73.66
81.01
89.28
97.25
104.18
110.68
118.81
131.49
151.05
177.69
208.63
238.66
261.81
273.52
272.05
258.66
236.46
208.81
178.15
145.57
111.19
74.67
35.31
-8.09
-57.1
-112.92
-175.03
-240.09
-302.14
-354.17
-390.49
-408.91
-411.34
-402.68
-388.47
-372.57
-356.17
-338.36
-317.64
-293.37
-266.36
-238.43
-211.34
-186.1
-162.72
-140.8
-120.05
-100.71
-83.65
-70.04
-60.87
-56.44
-56.01
-57.68
-58.56
-55.38
-45.15
-25.87
3.19
41.44
86.98
136.67
186.28
231.01
266.44
289.6
299.82
298.7
289.15
273.92
254.53
231.06
203.05
170.65
135.45
100.19
67.54
38.7
12.75
-12.81
-40.4
-70.63
-101.39
-128.24
-146.19
-151.87
-144.86
-127.85
-105.43
-82.29
-61.87
-45.9
-34.72
-28.09
-25.55
-26.42
-29.5
-32.94
-34.72
-33.61
-30.01
-26.22
-25.79
-32.03
-46.38
-67.51
-91.58
-113.52
-128.89
-135.27
-132.63
-122.74
-108.06
-90.81
-72.54
-54.21
-36.4
-19.39
-3.06
13.14
30.0
48.31
68.63
91.46
117.76
149.19
187.54
233.3
283.99
333.54
373.32
394.99
393.61
369.46
327.63
275.52
219.84
164.5
110.23
55.54
-1.7
-62.82
-127.17
-191.56
-250.29
-296.06
-321.85
-323.11
-299.28
-253.58
-191.48
-118.81
-40.93
36.87
108.47
166.93
205.98
222.53
218.51
200.53
177.31
156.31
141.18
131.73
125.45
119.93
114.39
109.8
107.76
109.18
113.66
119.57
124.89
127.91
127.81
124.67
119.08
111.71
102.93
92.78
81.18
68.27
54.62
41.26
29.37
19.86
13.08
8.76
6.15
4.4
2.9
1.29
-0.46
-2.35
-4.46
-6.96
-10.09
-14.0
-18.67
-23.99
-29.69
-35.46
-40.84
-45.23
-47.92
-48.2
-45.65
-40.25
-32.47
-23.19
-13.39
-4.01
4.26
11.01
16.05
19.32
20.87
20.82
19.39
16.88
13.58
9.77
5.64
1.33
-3.09
-7.57
-12.07
-16.6
-21.12
-25.54
-29.65
-33.22
-36.06
-38.09
-39.43
-40.38
-41.34
-42.76
-45.02
-48.3
-52.48
-57.11
-61.36
-64.19
-64.58
-61.86
-55.92
-47.25
-36.84
-25.87
-15.48
-6.53
0.5
5.45
8.42
9.7
9.69
8.8
7.54
6.36
5.69
5.86
6.99
9.06
11.87
15.21
18.81
22.46
26.03
29.43
32.67
35.86
39.26
43.09
47.48
52.29
57.16
61.76
66.03
70.45
76.04
84.03
95.45
110.76
129.75
151.68
175.51
200.1
224.28
246.9
266.97
283.83
297.23
307.08
313.05
314.1
308.58
294.78
271.84
240.4
202.64
161.69
120.4
80.59
42.73
6.28
-29.77
-66.38
-104.08
-142.72
-181.28
-217.79
-249.59
-273.93
-288.9
-293.98
-290.1
-279.25
-263.58
-244.91
-224.52
-203.34
-182.03
-161.02
-140.32
-119.42
-97.57
-74.17
-49.33
-23.94
0.65
23.05
42.31
58.19
70.93
81.07
89.07
95.06
98.68
98.98
94.56
83.97
66.18
41.13
9.87
-25.58
-62.82
-99.77
-135.01
-168.09
-199.62
-231.1
-264.47
-301.07
-340.15
-377.86
-407.42
-420.83
-411.55
-377.12
-320.39
-248.96
-172.81
-101.5
-42.03
2.17
30.81
45.71
49.83
46.39
38.45
28.6
18.69
9.82
2.43
-3.39
-7.94
-11.56
-14.52
-16.91
-18.55
-19.09
-18.31
-16.28
-13.56
-11.15
-10.31
-12.12
-17.13
-25.14
-35.31
-46.39
-57.12
-66.48
-73.82
-78.81
-81.39
-81.73
-80.15
-77.04
-72.69
-67.29
-60.89
-53.61
-45.8
-38.02
-30.97
-25.2
-20.88
-17.72
-15.09
-12.33
-8.95
-4.76
0.05
5.14
10.01
14.25
17.47
19.4
19.86
18.78
16.18
12.24
7.29
1.71
-4.14
-10.05
-16.1
-22.52
-29.61
-37.38
-45.48
-53.02
-58.74
-61.35
-59.87
-54.03
-44.26
-31.7
-17.69
-3.63
9.4
20.62
29.55
35.91
39.6
40.72
39.56
36.6
32.32
27.23
21.71
16.07
10.58
5.5
1.07
-2.54
-5.32
-7.45
-9.23
-10.97
-12.81
-14.67
-16.19
-17.03
-16.99
-16.33
-15.82
-16.55
-19.53
-25.25
-33.31
-42.36
-50.46
-55.55
-55.99
-51.02
-40.82
-26.36
-9.11
9.35
27.6
44.54
59.56
72.45
83.4
92.79
100.9
107.81
113.26
116.84
118.14
117.0
113.65
108.51
102.1
94.74
86.45
77.04
66.29
54.07
40.44
25.64
9.95
-6.27
-22.66
-38.76
-54.08
-68.15
-80.59
-91.24
-100.05
-107.03
-112.05
-114.75
-114.54
-110.8
-103.12
-91.53
-76.66
-59.58
-41.61
-23.84
-6.98
8.74
23.37
37.02
49.72
61.55
72.69
83.55
94.65
106.31
118.48
130.67
142.21
152.61
161.75
169.79
176.9
182.94
187.42
189.62
188.95
185.13
178.19
168.37
155.93
141.21
124.75
107.37
90.11
74.04
59.9
47.85
37.39
27.56
17.34
6.19
-5.61
-16.93
-26.13
-31.67
-32.72
-29.47
-23.11
-15.41
-8.14
-2.69
0.17
0.28
-1.95
-5.65
-9.5
-11.95
-11.54
-7.37
0.59
11.31
22.94
33.3
40.51
43.5
42.32
38.03
32.25
26.57
22.06
18.94
16.7
14.44
11.38
7.2
2.15
-3.17
-8.1
-12.38
-16.27
-20.55
-26.1
-33.52
-42.7
-52.63
-61.59
-67.66
-69.27
-65.83
-57.93
-47.26
-36.18
-27.08
-21.7
-20.69
-23.42
-28.2
-32.76
-34.95
-33.41
-27.94
-19.41
-9.24
1.33
11.77
22.34
33.77
46.65
60.88
75.32
87.81
95.59
96.15
88.15
72.29
51.42
29.85
11.89
0.2
-5.27
-7.16
-9.59
-16.48
-30.11
-50.52
-75.8
-102.66
-127.37
-146.33
-156.67
-156.81
-146.77
-128.18
-103.89
-77.19
-51.11
-27.87
-8.76
5.79
16.0
22.65
26.85
29.85
32.61
35.49
38.19
40.01
40.39
39.4
37.86
37.04
38.08
41.48
46.85
53.15
59.12
63.81
66.74
67.96
67.68
66.16
63.53
59.85
55.23
49.9
44.21
38.55
33.18
28.12
23.09
17.52
10.85
2.72
-6.74
-16.71
-25.84
-32.57
-35.54
-34.04
-28.19
-18.89
-7.51
4.4
15.48
24.68
31.35
35.19
36.19
34.61
30.99
26.02
20.51
15.16
10.53
6.87
4.22
2.57
1.9
2.1
2.75
2.8
0.74
-5.15
-15.98
-31.78
-51.26
-72.16
-91.99
-108.6
-120.56
-127.13
-128.11
-123.85
-115.44
-104.8
-94.49
-86.94
-83.56
-84.02
-86.28
-87.3
-84.25
-75.43
-60.75
-41.5
-19.69
2.66
23.96
43.28
60.18
74.64
86.92
97.38
106.42
114.25
120.89
126.19
129.98
132.35
133.78
135.1
137.3
141.27
147.56
156.24
166.95
179.01
191.58
203.83
215.05
224.75
232.73
238.84
242.63
243.06
238.33
226.33
205.39
175.13
136.78
93.12
47.46
2.61
-40.05
-80.95
-122.2
-167.04
-218.71
-278.88
-345.97
-414.29
-474.78
-517.47
-534.79
-524.28
-489.22
-437.09
-376.87
-316.52
-261.55
-214.95
-177.48
-148.09
-124.22
-102.58
-80.42
-56.89
-33.5
-13.08
2.06
11.72
17.55
21.78
25.28
26.95
24.51
16.24
2.25
-15.67
-35.21
-54.99
-75.01
-95.87
-117.48
-138.14
-154.72
-163.79
-163.01
-151.85
-131.6
-104.78
-74.58
-44.49
-18.07
1.48
12.03
13.35
7.51
-1.66
-9.78
-13.57
-11.97
-6.11
1.75
9.61
16.71
23.55
31.08
39.74
48.93
57.28
63.43
66.81
67.8
67.39
66.51
65.46
63.84
60.95
56.49
50.92
45.61
42.42
43.07
48.58
58.89
72.9
88.84
104.71
118.92
130.54
139.32
145.43
148.97
149.66
146.85
139.83
128.35
112.9
94.81
76.09
58.98
45.52
37.0
33.68
34.54
37.43
39.69
39.09
34.59
26.84
17.82
10.03
5.28
4.05
5.29
6.93
6.55
2.12
-7.58
-22.78
-42.64
-65.39
-88.56
-109.3
-124.83
-132.88
-132.02
-121.95
-103.68
-79.44
-52.39
-25.95
-2.92
15.29
28.97
39.83
50.02
61.1
73.3
85.52
95.93
102.95
106.07
106.05
104.57
103.52
104.34
107.62
113.16
120.27
128.25
136.65
145.46
154.92
165.33
176.7
188.38
198.83
205.63
205.94
197.44
179.37
153.32
123.07
93.7
69.92
54.66
48.44
49.74
55.98
64.72
74.25
83.78
93.26
103.28
115.01
130.03
149.71
174.18
201.58
228.01
248.59
259.24
258.22
246.75
228.39
207.49
187.7
171.16
158.56
149.8
144.6
142.77
143.93
147.28
151.43
154.78
156.0
154.43
150.28
144.36
137.61
130.67
123.51
115.48
105.57
92.95
77.31
59.13
39.57
20.02
1.63
-15.13
-30.7
-46.14
-62.67
-81.1
-101.4
-122.64
-143.43
-162.48
-179.12
-193.62
-206.96
-220.47
-235.37
-252.65
-272.8
-295.62
-319.67
-342.05
-358.62
-364.96
-357.8
-336.24
-302.07
-259.17
-212.17
-165.25
-121.4
-82.52
-49.77
-23.97
-5.58
5.47
10.02
9.71
6.62
2.75
-0.57
-3.24
-6.48
-12.38
-23.08
-39.74
-62.09
-88.66
-117.66
-148.01
-180.0
-215.05
-254.83
-300.01
-349.32
-399.24
-444.88
-481.33
-505.34
-516.29
-516.21
-508.52
-496.25
-480.56
-460.48
-433.84
-398.95
-355.99
-307.21
-255.99
-205.28
-156.47
-109.02
-61.12
-10.78
43.12
99.9
156.9
209.73
253.26
283.08
296.77
294.75
280.01
257.1
230.6
204.07
179.75
158.89
142.31
130.58
123.81
121.11
120.51
119.26
114.69
105.12
90.27
71.4
50.64
30.33
12.19
-3.05
-15.72
-26.89
-37.73
-49.01
-60.78
-72.42
-82.92
-91.29
-96.82
-99.1
-98.03
-93.73
-86.54
-77.08
-66.27
-55.16
-44.77
-35.88
-28.9
-23.86
-20.48
-18.24
-16.45
-14.43
-11.65
-7.89
-3.33
1.59
6.31
10.52
14.18
17.5
20.67
23.67
26.17
27.73
28.02
27.1
25.36
23.41
21.85
21.05
21.1
21.83
22.92
23.92
24.31
23.61
21.53
18.24
14.46
11.34
10.12
11.67
16.08
22.77
30.73
39.02
47.21
55.37
63.84
72.8
82.04
90.96
98.75
104.78
108.82
111.06
111.99
112.15
111.98
111.68
111.23
110.45
109.05
106.72
103.24
98.54
92.79
86.33
79.64
73.09
66.91
61.0
55.05
48.69
41.79
34.63
27.93
22.66
19.7
19.49
21.82
25.9
30.57
34.78
37.77
39.34
39.79
39.79
40.23
41.96
45.72
52.02
61.14
73.02
87.3
103.23
119.78
135.75
150.03
161.81
170.74
176.84
180.29
181.15
179.2
173.98
164.89
151.49
133.6
111.46
85.85
58.14
30.28
4.46
-17.58
-35.27
-49.77
-63.74
-80.58
-103.09
-132.42
-167.56
-205.7
-243.08
-276.19
-302.66
-321.81
-334.87
-344.54
-354.36
-367.59
-385.89
-408.39
-431.47
-449.65
-457.23
-450.09
-426.82
-388.8
-339.35
-282.48
-221.93
-160.89
-102.24
-48.74
-2.96
33.29
59.61
77.23
88.64
96.6
103.15
109.08
114.08
117.34
118.41
117.57
115.81
114.36
114.15
115.38
117.55
119.72
120.95
120.64
118.56
114.82
109.7
103.42
96.16
88.04
79.27
70.12
60.91
51.94
43.4
35.35
27.7
20.22
12.64
4.72
-3.53
-11.7
-18.97
-24.28
-26.52
-25.04
-19.74
-11.22
-0.58
10.85
21.87
31.62
39.59
45.67
49.95
52.6
53.8
53.72
52.57
50.68
48.57
46.75
45.68
45.54
46.14
47.09
47.88
48.18
47.87
47.03
45.85
44.43
42.75
40.64
37.9
34.37
30.06
25.06
19.57
13.79
7.89
2.02
-3.75
-9.38
-14.89
-20.42
-26.17
-32.33
-38.92
-45.63
-51.76
-56.32
-58.23
-56.69
-51.4
-42.67
-31.37
-18.75
-6.04
5.69
15.74
23.83
29.97
34.39
37.35
39.14
39.98
40.11
39.74
39.12
38.42
37.78
37.28
36.94
36.8
36.82
36.86
36.71
36.09
34.84
32.93
30.51
27.81
24.98
22.01
18.76
15.02
10.69
5.83
0.68
-4.47
-9.42
-14.08
-18.51
-22.91
-27.48
-32.51
-38.18
-44.58
-51.45
-58.18
-63.76
-67.0
-66.81
-62.56
-54.34
-42.92
-29.57
-15.72
-2.61
8.94
18.52
26.09
31.81
35.93
38.72
40.45
41.42
41.92
42.24
42.54
42.92
43.34
43.72
43.96
44.03
43.9
43.55
42.9
41.82
40.18
37.92
35.11
31.9
28.42
24.74
20.82
16.54
11.83
6.74
1.45
-3.82
-8.84
-13.57
-18.1
-22.73
-27.78
-33.58
-40.3
-47.75
-55.32
-61.93
-66.28
-67.08
-63.6
-55.81
-44.52
-31.08
-17.03
-3.68
8.08
17.83
25.54
31.35
35.5
38.23
39.81
40.57
40.85
41.04
41.42
42.17
43.32
44.76
46.4
48.17
50.15
52.42
55.06
57.95
60.78
63.13
64.6
64.97
64.34
63.07
61.71
60.76
60.5
60.9
61.61
62.22
62.5
62.51
62.66
63.46
65.29
68.24
72.02
76.05
79.74
82.53
84.03
84.05
82.61
79.95
76.64
73.47
71.24
70.54
71.53
73.84
76.77
79.53
81.3
81.12
77.55
68.65
52.44
27.9
-3.93
-39.38
-72.8
-98.17
-111.23
-111.2
-101.32
-88.09
-79.38
-82.16
-100.36
-133.43
-176.42
-221.2
-259.13
-284.02
-294.39
-294.01
-290.45
-292.43
-306.83
-336.5
-379.37
-429.08
-476.8
-513.54
-532.6
-531.12
-510.52
-475.53
-432.28
-386.4
-341.72
-300.14
-262.28
-228.23
-197.82
-170.44
-144.8
-119.05
-91.43
-61.07
-28.38
5.3
38.29
69.41
98.26
124.99
149.78
172.34
191.78
206.91
216.72
220.84
219.74
214.63
207.18
199.13
191.95
186.59
183.26
181.46
180.12
178.03
174.21
168.24
160.38
151.34
142.0
133.06
124.84
117.17
109.6
101.56
92.73
83.16
73.33
63.96
55.6
48.35
41.66
34.54
25.93
15.3
2.96
-9.88
-21.44
-29.84
-33.7
-32.49
-26.56
-16.97
-5.1
7.68
20.39
32.43
43.53
53.48
61.84
67.9
70.67
69.28
63.36
53.46
41.22
29.04
19.52
14.64
15.14
20.27
28.12
36.33
42.85
46.55
47.23
45.43
41.9
37.27
32.02
26.6
21.53
17.41
14.63
13.11
12.1
10.29
6.36
-0.54
-10.37
-22.16
-34.53
-46.23
-56.75
-66.43
-76.26
-87.14
-99.37
-112.08
-123.29
-130.41
-130.86
-123.02
-106.57
-82.68
-53.63
-22.03
9.81
40.36
68.85
94.98
118.5
138.99
155.85
168.51
176.5
179.45
177.03
168.95
155.3
136.82
115.17
92.69
71.87
54.55
41.4
31.87
24.64
18.33
12.3
6.98
3.79
4.51
10.55
22.09
37.93
55.63
72.32
85.51
93.74
96.68
94.85
89.15
80.49
69.78
57.95
45.96
34.5
23.74
13.11
1.65
-11.45
-26.11
-41.11
-54.28
-63.31
-66.5
-63.41
-54.74
-42.02
-26.9
-10.81
5.24
20.52
34.48
46.67
56.81
64.91
71.31
76.56
81.38
86.39
92.18
99.21
107.82
118.09
129.75
141.9
153.05
161.2
164.32
160.83
150.19
133.06
111.13
86.57
61.41
36.95
13.66
-8.63
-30.39
-52.01
-73.54
-94.71
-114.9
-133.21
-148.53
-159.7
-165.67
-165.83
-160.23
-149.66
-135.56
-119.85
-104.68
-92.0
-83.21
-78.78
-77.99
-79.08
-79.69
-77.59
-71.36
-60.68
-46.36
-29.85
-12.77
3.48
17.96
30.1
39.68
46.64
51.11
53.33
53.61
52.34
49.89
46.77
43.54
40.86
39.35
39.47
41.36
44.74
48.95
53.09
56.27
57.9
57.83
56.34
53.9
50.96
47.66
43.8
38.95
32.59
24.4
14.44
3.18
-8.56
-19.88
-30.13
-39.09
-47.03
-54.43
-61.64
-68.56
-74.57
-78.84
-80.65
-79.85
-76.86
-72.5
-67.63
-62.87
-58.45
-54.15
-49.47
-43.59
-35.68
-25.06
-11.5
4.48
21.55
37.78
51.11
59.93
63.48
61.98
56.41
48.11
38.27
27.72
16.86
5.86
-5.11
-15.61
-24.97
-32.37
-37.03
-38.35
-35.98
-29.87
-20.3
-7.89
6.39
21.35
35.82
48.88
59.95
68.92
75.96
81.39
85.45
88.27
89.78
89.73
87.73
83.41
76.57
67.32
56.17
43.94
31.55
19.67
8.65
-1.6
-11.42
-21.2
-31.26
-41.71
-52.49
-63.39
-74.01
-83.81
-92.04
-97.88
-100.56
-99.59
-95.04
-87.46
-77.82
-67.27
-56.81
-47.11
-38.51
-31.11
-24.94
-20.05
-16.49
-14.26
-13.16
-12.8
-12.69
-12.37
-11.48
-9.94
-7.8
-5.23
-2.47
0.31
2.97
5.39
7.44
9.0
9.93
10.17
9.75
8.76
7.32
5.6
3.72
1.78
-0.15
-2.03
-3.83
-5.53
-7.08
-8.46
-9.68
-10.79
-11.98
-13.51
-15.79
-19.18
-23.83
-29.52
-35.46
-40.5
-43.31
-42.89
-38.83
-31.46
-21.68
-10.63
0.59
11.2
20.74
28.99
35.89
41.47
45.85
49.28
52.11
54.7
57.27
59.86
62.34
64.5
66.21
67.55
68.76
70.05
71.45
72.68
73.13
71.99
68.48
62.06
52.62
40.53
26.59
11.76
-3.03
-17.2
-30.59
-43.32
-55.48
-66.84
-76.74
-84.23
-88.5
-89.27
-87.02
-82.96
-78.65
-75.59
-74.85
-76.81
-80.97
-86.07
-90.26
-91.51
-88.13
-79.33
-65.48
-48.09
-29.3
-11.29
4.42
17.18
27.24
35.37
42.52
49.49
56.91
65.17
74.45
84.66
95.35
105.71
114.84
122.02
127.07
130.42
132.97
135.68
139.14
143.31
147.52
150.64
151.49
149.14
143.12
133.49
120.81
105.93
89.78
73.12
56.42
39.71
22.8
5.36
-12.83
-31.81
-51.29
-70.84
-89.87
-107.79
-124.14
-138.64
-151.35
-162.54
-172.5
-181.24
-188.21
-192.27
-191.97
-186.09
-174.21
-156.95
-135.91
-113.21
-90.88
-70.38
-52.44
-37.05
-23.83
-12.22
-1.74
7.95
17.03
25.56
33.53
40.87
47.44
53.08
57.71
61.33
64.1
66.26
67.96
69.22
69.81
69.44
67.91
65.26
61.76
57.85
53.89
50.07
46.35
42.61
38.77
34.84
30.93
27.15
23.44
19.67
15.67
11.34
6.78
2.23
-1.98
-5.59
-8.48
-10.81
-12.88
-15.12
-17.93
-21.57
-26.05
-31.09
-36.16
-40.49
-43.28
-43.87
-41.92
-37.56
-31.34
-24.14
-16.88
-10.34
-4.96
-0.9
1.88
3.51
4.21
4.16
3.61
2.78
1.81
0.74
-0.46
-1.85
-3.47
-5.27
-7.13
-8.88
-10.31
-11.26
-11.6
-11.35
-10.67
-9.87
-9.32
-9.32
-9.99
-11.19
-12.6
-13.79
-14.39
-14.23
-13.4
-12.19
-11.0
-10.19
-9.94
-10.27
-11.01
-11.91
-12.72
-13.23
-13.39
-13.33
-13.41
-14.15
-16.05
-19.34
-23.74
-28.39
-32.07
