-28.91
-24.52
-18.0
-10.02
-1.54
6.5
13.44
19.06
23.43
26.91
29.93
32.81
35.78
38.82
41.71
44.0
45.23
45.03
43.2
39.78
34.99
29.17
22.72
16.04
9.53
3.52
-1.74
-6.24
-10.03
-13.29
-16.13
-18.58
-20.51
-21.84
-22.45
-22.31
-21.42
-19.89
-17.92
-15.75
-13.67
-11.92
-10.6
-9.75
-9.3
-9.25
-9.54
-10.17
-11.07
-12.03
-12.77
-12.99
-12.43
-11.02
-8.67
-5.28
-0.56
5.91
14.54
25.45
38.23
51.96
65.3
76.96
86.13
92.75
97.45
101.19
104.81
108.66
112.61
116.35
119.81
123.5
128.64
136.9
150.19
170.22
198.15
233.96
275.79
319.6
359.54
389.21
403.64
400.99
383.14
354.91
322.27
290.27
261.85
237.84
217.76
200.88
186.76
175.13
165.52
156.95
148.18
138.17
126.6
113.92
101.14
89.29
78.91
69.84
61.38
52.7
43.26
33.04
22.48
12.18
2.5
-6.6
-15.6
-25.07
-35.43
-46.65
-58.33
-70.03
-81.55
-93.17
-105.63
-119.75
-136.01
-154.24
-173.61
-193.03
-211.66
-229.45
-247.19
-266.21
-287.74
-312.21
-339.03
-366.86
-394.12
-419.78
-443.81
-467.08
-491.15
-518.01
-549.83
-588.46
-634.43
-685.65
-736.61
-778.97
-803.86
-805.01
-781.27
-737.06
-680.56
-620.38
-562.68
-510.05
-462.23
-418.06
-376.92
-339.11
-305.03
-274.36
-245.71
-217.24
-187.68
-157.09
-126.84
-99.13
-75.93
-58.18
-45.55
-36.69
-29.96
-24.17
-18.98
-14.93
-12.9
-13.46
-16.44
-20.76
-24.83
-27.08
-26.6
-23.33
-18.02
-11.72
-5.19
1.46
8.86
17.99
29.7
44.23
61.01
78.87
96.58
113.41
129.47
145.67
163.27
183.27
205.87
230.41
255.64
280.21
303.32
325.01
346.06
367.86
392.12
420.62
454.59
493.64
534.98
573.12
600.98
612.13
603.2
575.35
533.96
486.6
440.19
399.03
364.24
334.76
308.89
285.54
264.42
245.63
229.12
214.56
201.63
190.34
181.07
174.24
169.91
167.36
165.09
161.31
154.38
143.46
128.69
111.09
92.19
73.39
55.49
38.39
21.28
3.02
-17.14
-39.13
-61.9
-83.71
-102.75
-117.66
-127.97
-134.13
-137.29
-138.94
-140.48
-142.87
-146.38
-150.48
-154.1
-155.95
-155.13
-151.44
-145.53
-138.62
-131.75
-125.22
-118.07
-108.29
-93.46
-71.71
-42.64
-7.7
30.14
67.16
99.97
126.21
144.85
156.15
161.22
161.62
158.72
153.23
144.88
132.49
114.62
90.45
60.56
27.02
-7.24
-39.46
-68.03
-92.67
-114.0
-132.67
-148.8
-162.07
-172.11
-179.0
-183.34
-185.86
-186.75
-185.5
-180.89
-171.83
-157.92
-139.97
-119.91
-100.06
-82.4
-67.93
-56.46
-46.99
-38.4
-29.91
-21.47
-13.46
-6.36
-0.35
4.86
9.85
15.17
21.01
27.08
32.82
37.6
41.07
43.19
44.23
44.54
44.43
44.04
43.4
42.62
41.89
41.49
41.63
42.24
43.07
43.72
43.95
43.74
43.41
43.34
43.82
44.89
46.37
48.01
49.54
50.72
51.25
50.73
48.66
44.7
38.86
31.61
23.74
16.07
9.11
2.99
-2.39
-7.23
-11.41
-14.54
-16.01
-15.27
-12.0
-6.36
1.1
9.47
17.73
24.95
30.48
34.05
35.82
36.19
35.67
34.76
33.75
32.74
31.56
29.88
27.4
24.05
20.12
16.34
13.61
12.68
13.82
16.62
20.01
22.56
22.94
20.29
14.44
5.86
-4.5
-15.56
-26.32
-36.04
-44.28
-50.79
-55.52
-58.48
-59.82
-59.88
-59.15
-58.21
-57.58
-57.57
-58.22
-59.33
-60.51
-61.38
-61.67
-61.28
-60.34
-59.13
-58.06
-57.54
-57.95
-59.54
-62.3
-65.85
-69.38
-71.68
-71.45
-67.67
-60.01
-49.05
-36.21
-23.32
-12.16
-3.85
1.3
3.76
4.48
4.39
4.2
4.25
4.62
5.29
6.33
7.88
10.11
13.05
16.58
20.46
24.38
28.14
31.65
34.98
38.22
41.44
44.55
47.39
49.75
51.53
52.74
53.55
54.11
54.47
54.47
53.81
52.3
50.04
47.52
45.46
44.58
45.25
47.26
49.89
52.1
52.9
51.56
47.81
41.84
34.18
25.51
16.59
8.03
0.28
-6.45
-12.16
-17.04
-21.34
-25.35
-29.22
-32.92
-36.25
-38.94
-40.77
-41.7
-41.92
-41.74
-41.49
-41.43
-41.6
-41.89
-42.09
-42.02
-41.61
-40.98
-40.38
-40.19
-40.69
-42.09
-44.35
-47.17
-50.08
-52.54
-53.97
-53.93
-52.08
-48.35
-42.92
-36.27
-29.1
-22.16
-16.11
-11.29
-7.79
-5.38
-3.72
-2.46
-1.36
-0.3
0.74
1.76
2.71
3.59
4.36
5.01
5.46
5.59
5.2
4.07
2.03
-0.94
-4.68
-8.84
-13.02
-16.78
-19.9
-22.35
-24.36
-26.37
-28.97
-32.73
-37.94
-44.46
-51.59
-58.2
-63.02
-65.11
-64.16
-60.61
-55.47
-49.93
-44.94
-41.03
-38.28
-36.61
-35.97
-36.51
-38.44
-41.78
-46.25
-51.27
-56.13
-60.19
-62.91
-63.75
-62.07
-57.32
-49.26
-38.29
-25.42
-11.98
0.8
12.26
22.22
30.78
37.89
43.16
45.98
45.95
43.04
37.65
30.28
21.33
11.01
-0.38
-12.14
-23.0
-31.29
-35.39
-34.29
-27.9
-17.15
-3.73
10.44
23.63
34.62
42.81
48.11
50.9
51.77
51.42
50.47
49.37
48.42
47.79
47.6
48.01
49.14
51.05
53.53
56.14
58.22
59.17
58.7
57.04
54.84
52.92
51.87
51.91
52.79
54.03
54.98
54.89
52.73
47.39
37.98
24.46
8.19
-8.23
-21.71
-29.81
-31.83
-28.98
-23.75
-18.71
-15.47
-14.17
-13.92
-13.46
-11.99
-9.37
-6.07
-2.75
-0.08
1.38
1.24
-0.64
-3.93
-7.64
-10.23
-10.09
-6.13
1.7
12.29
23.73
33.97
41.45
45.37
45.63
42.62
36.96
29.27
20.15
10.1
-0.5
-11.27
-21.7
-31.09
-38.56
-43.21
-44.52
-42.61
-38.34
-32.98
-27.83
-23.74
-21.0
-19.49
-18.9
-18.97
-19.52
-20.35
-21.14
-21.46
-20.96
-19.54
-17.44
-15.1
-12.92
-11.1
-9.52
-7.84
-5.69
-2.93
0.29
3.52
6.11
7.5
7.41
5.96
3.6
1.02
-1.2
-2.75
-3.71
-4.5
-5.65
-7.42
-9.73
-11.96
-13.19
-12.44
-8.97
-2.61
6.18
16.38
26.68
35.84
42.96
47.63
49.88
50.04
48.53
45.69
41.82
37.16
31.97
26.56
21.24
16.27
11.74
7.65
3.96
0.66
-2.17
-4.46
-6.17
-7.38
-8.33
-9.26
-10.33
-11.58
-12.93
-14.33
-15.83
-17.63
-20.05
-23.37
-27.79
-33.36
-39.97
-47.32
-54.92
-61.94
-67.34
-69.93
-68.8
-63.53
-54.48
-42.74
-29.86
-17.42
-6.68
1.68
7.6
11.47
13.86
15.31
16.17
16.59
16.62
16.28
15.72
15.15
14.79
14.79
15.18
15.85
16.71
17.65
18.6
19.47
20.13
20.31
19.73
18.17
15.59
12.22
8.52
5.03
2.21
0.31
-0.76
-1.36
-2.0
-3.15
-5.15
-8.21
-12.46
-17.83
-24.02
-30.27
-35.42
-38.05
-36.95
-31.61
-22.41
-10.57
2.32
14.78
25.86
35.12
42.59
48.45
52.87
56.05
58.24
59.71
60.81
61.77
62.73
63.64
64.33
64.6
64.28
63.28
61.65
59.54
57.15
54.59
51.89
48.91
45.37
40.98
35.56
29.07
21.74
13.88
5.82
-2.26
-10.34
-18.51
-26.83
-35.26
-43.6
-51.48
-58.6
-64.82
-70.3
-75.49
-80.96
-87.17
-94.27
-101.91
-109.34
-115.48
-119.08
-118.96
-114.21
-104.42
-89.94
-71.99
-52.51
-33.65
-17.31
-4.53
4.63
10.89
15.41
19.25
23.13
27.39
32.15
37.39
43.12
49.29
55.71
62.04
67.78
72.5
75.84
77.81
78.62
78.64
78.15
77.18
75.48
72.66
68.43
62.84
56.27
49.35
42.66
36.57
31.11
26.06
21.12
16.06
10.76
5.23
-0.48
-6.27
-11.96
-17.22
-21.52
-24.26
-24.91
-23.22
-19.35
-13.87
-7.58
-1.32
4.2
8.55
11.55
13.26
13.81
13.35
12.1
10.28
8.22
6.29
4.83
4.05
3.91
4.18
4.46
4.42
3.89
2.91
1.74
0.69
-0.05
-0.49
-0.8
-1.29
-2.24
-3.84
-6.13
-9.01
-12.28
-15.66
-18.93
-21.86
-24.33
-26.38
-28.21
-30.15
-32.53
-35.6
-39.37
-43.6
-47.81
-51.48
-54.12
-55.45
-55.45
-54.4
-52.86
-51.54
-51.22
-52.54
-55.89
-61.34
-68.61
-77.21
-86.65
-96.45
-106.13
-115.0
-121.99
-125.46
-123.46
-114.13
-96.48
-70.96
-39.75
-6.46
24.85
50.77
69.65
82.05
90.56
98.89
110.8
129.15
155.02
187.3
222.35
254.52
277.11
284.18
272.29
241.6
195.73
140.17
80.21
19.02
-42.93
-107.17
-175.29
-247.0
-318.97
-385.16
-438.59
-473.6
-487.91
-483.25
-464.56
-438.0
-408.77
-379.87
-352.04
-324.8
-297.54
-270.25
-243.3
-216.92
-190.65
-163.52
-134.54
-103.42
-70.79
-37.94
-6.08
24.35
53.99
84.02
115.15
146.65
176.04
199.75
214.52
218.72
213.07
200.26
183.82
166.78
150.83
136.26
122.55
109.08
95.66
82.65
70.8
61.0
54.01
50.35
50.15
53.03
58.32
64.99
72.04
78.59
84.05
88.12
90.78
92.15
92.51
92.27
91.88
91.78
92.28
93.53
95.45
97.81
100.25
102.43
104.11
105.14
105.57
105.53
105.14
104.44
103.31
101.52
98.88
95.33
91.1
86.66
82.6
79.48
77.81
77.85
79.61
82.78
86.84
91.12
95.23
99.2
103.61
109.44
117.58
128.37
141.39
155.54
169.39
181.76
192.03
200.19
206.56
211.44
214.79
216.25
215.54
212.77
208.77
204.92
202.7
203.17
206.72
213.08
221.51
230.83
239.36
244.86
244.93
237.75
223.0
202.2
178.18
153.8
130.79
109.19
87.74
64.95
40.35
15.04
-8.56
-27.67
-40.24
-45.91
-46.11
-43.59
-41.29
-41.15
-43.21
-45.67
-45.74
-41.01
-30.75
-16.34
-0.7
12.77
21.35
23.57
19.14
8.47
-7.86
-29.36
-55.45
-84.94
-115.79
-145.22
-170.41
-189.36
-201.7
-208.63
-212.48
-215.68
-219.77
-225.08
-230.83
-235.73
-238.69
-239.29
-237.84
-235.21
-232.4
-230.14
-228.67
-227.6
-226.14
-223.43
-218.93
-212.75
-205.65
-198.71
-192.73
-187.88
-183.5
-178.28
-170.77
-159.8
-144.77
-125.75
-103.29
-78.39
-52.42
-26.91
-3.19
18.0
36.8
54.07
70.63
86.43
99.84
107.86
106.97
94.43
69.43
33.73
-8.68
-52.64
-93.23
-127.18
-153.34
-172.19
-184.62
-190.81
-189.91
-180.7
-162.94
-138.32
-110.29
-82.79
-58.74
-39.12
-23.14
-9.41
3.01
14.17
23.7
31.5
38.14
44.53
51.31
58.34
64.67
69.0
70.29
68.23
63.33
56.85
50.37
45.39
42.85
42.91
44.92
47.76
50.23
51.5
51.29
49.85
47.74
45.66
44.3
44.26
45.93
49.47
54.5
60.14
65.0
67.58
66.76
62.2
54.45
44.65
33.94
22.97
11.8
0.28
-11.4
-22.4
-31.5
-37.82
-41.41
-43.39
-45.36
-48.68
-53.72
-59.87
-66.03
-71.25
-75.14
-77.68
-78.82
-78.18
-75.43
-71.38
-68.94
-73.03
-89.07
-120.26
-165.15
-216.92
-265.13
-299.3
-312.75
-304.56
-279.18
-243.77
-205.06
-167.16
-131.37
-97.0
-62.73
-27.47
9.48
48.68
90.75
135.97
183.49
230.37
270.93
297.54
302.88
283.47
242.46
190.07
140.73
107.76
98.42
111.74
140.24
174.27
206.28
232.63
252.71
266.52
273.18
271.37
261.07
244.7
226.58
210.67
198.07
185.92
168.75
141.27
101.12
50.28
-5.6
-59.43
-105.19
-139.57
-162.23
-174.86
-179.87
-179.48
-175.37
-169.05
-161.92
-155.19
-149.5
-144.94
-140.96
-136.77
-131.55
-124.53
-115.12
-102.95
-87.97
-70.8
-52.61
-34.84
-18.74
-4.84
7.36
19.06
31.55
45.61
61.02
76.77
91.53
104.35
115.03
124.03
132.02
139.07
144.4
146.68
145.01
139.77
132.56
125.44
119.73
115.31
110.82
104.61
95.71
84.32
71.49
58.44
45.93
34.05
22.54
11.29
0.6
-8.76
-15.93
-20.39
-22.3
-22.51
-22.29
-22.91
-25.28
-29.67
-35.78
-42.98
-50.52
-57.8
-64.49
-70.46
-75.79
-80.65
-85.3
-90.07
-95.43
-101.94
-110.03
-119.74
-130.4
-140.45
-147.78
-150.15
-146.01
-135.04
-118.44
-98.81
-79.45
-63.51
-53.13
-48.88
-49.65
-53.16
-56.67
-57.88
-55.52
-49.54
-40.9
-31.1
-21.65
-13.6
-7.24
-2.11
2.71
8.24
15.07
23.11
31.7
40.0
47.54
54.42
61.16
68.23
75.66
83.04
89.82
95.8
101.31
107.02
113.4
120.4
127.39
133.49
138.09
141.07
142.86
144.29
146.36
150.07
156.17
164.83
175.16
185.09
191.69
192.12
184.83
170.29
151.09
130.91
113.17
99.79
90.79
84.78
79.96
75.12
70.01
65.06
60.82
57.42
54.29
50.53
45.26
38.09
29.1
18.64
7.05
-5.58
-19.26
-33.92
-49.27
-65.02
-81.22
-98.45
-117.49
-138.63
-160.81
-181.37
-196.81
-204.14
-202.38
-193.09
-179.68
-165.75
-153.41
-142.51
-131.28
-117.74
-101.13
-82.44
-63.75
-46.98
-32.9
-20.86
-9.45
2.54
15.48
28.67
40.92
50.99
57.96
61.29
60.65
56.0
47.72
36.91
25.29
14.76
6.66
1.23
-2.48
-5.99
-10.62
-16.94
-24.67
-32.96
-40.87
-47.69
-53.02
-56.82
-59.4
-61.38
-63.61
-66.99
-72.06
-78.68
-85.75
-91.69
-95.34
-96.85
-98.23
-102.81
-114.0
-133.6
-160.81
-192.26
-223.38
-250.03
-270.01
-283.3
-291.2
-295.05
-295.14
-290.64
-280.48
-264.29
-243.11
-219.1
-194.65
-171.44
-149.84
-129.09
-108.12
-86.4
-64.54
-44.08
-26.89
-14.31
-6.64
-3.18
-2.67
-3.84
-5.74
-7.76
-9.37
-9.91
-8.56
-4.5
2.77
13.19
26.02
40.05
53.81
65.97
75.57
82.23
86.07
87.53
87.25
85.79
83.64
81.18
78.73
76.53
74.71
73.3
72.18
71.13
69.87
68.12
65.67
62.44
58.48
53.92
48.92
43.63
38.11
32.44
26.72
21.07
15.68
10.65
5.97
1.46
-3.18
-8.27
-14.05
-20.7
-28.25
-36.58
-45.34
-53.92
-61.43
-66.76
-68.78
-66.7
-60.26
-49.94
-36.75
-22.06
-7.21
6.67
18.85
28.93
36.77
42.46
46.25
48.57
50.02
51.22
52.68
54.65
57.07
59.62
61.94
63.75
65.0
65.88
66.59
67.27
67.81
67.86
67.01
65.04
61.99
58.28
54.45
50.94
47.87
45.01
41.9
38.02
32.99
26.65
19.13
10.87
2.66
-4.42
-9.1
-10.23
-7.08
0.4
11.48
24.91
39.16
52.87
64.95
74.67
81.57
85.44
86.37
84.79
81.48
77.52
73.97
71.63
70.77
71.05
71.71
71.83
70.62
67.67
63.01
57.05
50.49
44.07
38.44
33.95
30.68
28.41
26.81
25.55
24.43
23.37
22.41
21.48
20.37
18.64
15.8
11.48
5.69
-1.09
-7.94
-13.72
-17.35
-18.03
-15.45
-9.75
-1.4
8.89
20.29
31.93
42.94
52.48
59.89
64.78
67.1
67.15
65.48
62.8
59.83
57.15
55.15
53.96
53.49
53.42
53.4
53.12
52.38
51.12
49.33
46.97
43.91
40.03
35.31
29.95
24.34
18.95
14.16
10.14
6.77
3.73
0.69
-2.57
-6.07
-9.58
-12.71
-14.97
-15.86
-14.92
-11.84
-6.63
0.38
8.43
16.48
23.43
28.32
30.52
29.83
26.42
20.76
13.6
5.89
-1.26
-6.68
-9.44
-9.01
-5.49
0.42
7.62
14.94
21.4
26.38
29.55
30.71
29.71
26.41
20.82
13.2
4.15
-5.55
-15.06
-23.67
-30.94
-36.62
-40.63
-43.02
-43.94
-43.71
-42.72
-41.42
-40.07
-38.69
-36.98
-34.4
-30.27
-23.97
-15.04
-3.3
11.06
27.51
45.19
62.96
79.47
93.21
102.74
106.91
105.17
97.74
85.58
70.02
52.33
33.44
13.87
-5.96
-25.47
-43.78
-59.89
-73.0
-82.73
-89.12
-92.31
-92.26
-88.64
-81.11
-69.75
-55.45
-39.93
-25.37
-13.8
-6.6
-4.16
-5.95
-10.77
-17.1
-23.39
-28.31
-31.0
-31.13
-28.97
-25.21
-20.57
-15.46
-9.81
-3.32
4.06
11.64
17.94
21.18
20.04
14.21
4.54
-7.38
-19.88
-31.56
-41.33
-48.14
-50.83
-48.34
-40.14
-26.76
-9.82
8.37
25.56
40.2
51.72
60.12
65.46
67.33
64.68
56.18
40.86
18.71
-8.88
-39.39
-69.64
-96.62
-118.17
-133.19
-141.52
-143.48
-139.56
-130.28
-116.28
-98.54
-78.51
-57.93
-38.56
-21.79
-8.43
1.27
7.56
10.99
12.28
12.25
11.7
11.35
11.75
13.26
16.07
20.25
25.64
31.89
38.37
44.33
49.16
52.62
55.13
57.5
60.7
65.27
71.03
77.13
82.41
86.08
88.17
89.63
91.95
96.57
104.17
114.47
126.38
138.47
149.59
159.32
168.03
176.76
186.88
199.67
215.83
234.99
255.4
274.03
287.16
291.5
285.24
268.69
244.04
214.46
182.83
150.71
117.96
83.26
45.26
4.07
-37.76
-75.3
-102.57
-114.51
-108.94
-87.23
-53.86
-14.76
24.37
59.16
86.71
105.28
113.97
112.84
103.24
87.8
69.95
52.94
38.79
27.93
19.46
11.83
3.5
-6.56
-18.8
-33.1
-49.06
-66.2
-84.32
-103.6
-124.54
-147.53
-172.31
-197.7
-221.76
-242.46
-258.44
-269.4
-276.01
-279.43
-280.68
-280.42
-278.94
-276.55
-273.75
-271.08
-268.82
-266.67
-263.71
-258.75
-250.81
-239.53
-225.28
-208.99
-191.84
-174.89
-158.87
-144.06
-130.46
-117.9
-106.35
-95.89
-86.71
-78.9
-72.31
-66.5
-60.87
-54.91
-48.38
-41.48
-34.75
-28.89
-24.61
-22.43
-22.48
-24.43
-27.44
-30.27
-31.43
-29.73
-24.52
-15.98
-5.1
6.63
17.68
26.93
33.83
38.46
41.27
42.8
43.44
43.29
42.36
40.67
38.41
35.96
33.82
32.34
31.67
31.7
32.19
32.94
33.82
34.8
35.8
36.59
36.78
36.02
34.09
31.07
27.33
23.34
19.53
16.17
13.33
10.88
8.63
6.29
3.51
-0.04
-4.6
-10.13
-16.16
-21.87
-26.19
-28.13
-27.05
-22.86
-16.02
-7.42
1.8
10.54
17.91
23.42
27.03
29.11
30.24
30.96
31.49
31.58
30.66
28.2
24.13
19.06
14.16
10.73
9.61
10.69
12.91
14.64
14.5
12.01
7.93
3.92
1.75
2.52
5.97
10.71
14.72
16.28
14.7
10.57
5.46
1.47
0.71
4.92
15.02
30.49
48.86
65.63
75.27
73.09
57.51
31.52
2.31
-21.09
-31.37
-26.03
-8.42
13.81
31.82
39.1
33.22
15.63
-10.08
-39.99
-70.57
-98.26
-118.82
-127.55
-120.93
-99.09
-67.51
-36.23
-16.74
-17.44
-40.22
-79.62
-124.92
-164.35
-188.84
-194.4
-182.09
-156.51
-123.69
-89.43
-58.33
-33.37
-15.98
-6.17
-2.99
-4.85
-10.1
-17.3
-25.25
-32.98
-39.75
-45.14
-49.21
-52.45
-55.57
-59.15
-63.31
-67.57
-70.99
-72.38
-70.58
-64.65
-54.05
-38.88
-19.99
0.97
21.85
40.54
55.56
66.45
73.66
78.14
80.76
81.99
81.93
80.63
78.35
75.61
73.03
71.02
69.61
68.56
67.59
66.57
65.68
65.19
65.3
65.93
66.69
67.03
66.49
64.81
62.0
58.31
54.1
49.81
45.82
42.42
39.67
37.43
35.24
32.46
28.41
22.61
14.97
5.95
-3.52
-12.21
-18.92
-22.74
-23.29
-20.77
-15.79
-9.21
-1.88
5.48
12.41
18.64
24.06
28.61
32.21
34.68
35.85
35.66
34.27
32.12
29.81
27.99
27.11
27.32
28.5
30.4
32.8
35.54
38.53
41.57
44.4
46.78
48.59
49.91
50.98
52.03
53.14
54.19
54.97
55.29
55.1
54.45
53.51
52.41
51.15
49.56
47.26
43.8
38.9
32.69
25.98
20.2
17.05
18.07
24.03
34.64
48.57
63.69
77.64
88.25
94.15
94.97
91.36
84.73
76.58
67.88
58.51
47.22
31.93
10.58
-17.97
-53.31
-93.25
-134.2
-172.06
-203.34
-226.03
-240.0
-246.67
-248.24
-246.9
-244.29
-241.58
-239.71
-239.49
-241.46
-245.45
-250.36
-254.2
-254.75
-250.29
-240.28
-225.46
-207.55
-188.63
-170.53
-154.49
-140.96
-129.54
-119.23
-108.68
-96.66
-82.44
-65.89
-47.36
-27.39
-6.4
15.36
37.55
59.47
80.0
97.71
111.32
120.23
124.71
125.78
124.89
123.29
121.74
120.33
118.7
116.4
113.24
109.47
105.64
102.28
99.49
96.83
93.42
88.26
80.77
71.07
59.9
48.4
37.63
28.27
20.55
14.33
9.31
5.13
1.53
-1.75
-4.87
-7.93
-10.95
-13.98
-17.19
-21.04
-26.18
-33.06
-41.47
-50.23
-57.17
-59.73
-55.81
-44.51
-26.46
-3.65
21.31
45.82
67.94
86.54
101.22
111.98
118.9
121.85
120.51
114.34
103.0
86.58
65.9
42.51
18.44
-4.08
-23.12
-37.22
-45.59
-48.04
-44.97
-37.22
-26.04
-12.84
0.97
14.13
25.7
35.01
41.67
45.47
46.43
44.79
40.98
35.67
29.52
23.06
16.53
9.84
2.69
-5.2
-13.79
-22.54
-30.47
-36.33
-39.04
-38.07
-33.55
-26.2
-17.07
-7.22
2.41
11.1
18.29
23.67
27.17
29.05
29.8
30.02
30.21
30.64
31.42
32.49
33.77
35.21
36.69
38.01
38.97
39.35
39.13
38.42
37.44
36.32
35.04
33.33
30.86
27.4
23.03
18.15
13.44
9.56
7.0
5.97
6.4
8.02
10.42
13.03
15.13
15.88
14.49
10.61
4.58
-2.46
-8.78
-12.48
-12.14
-7.18
1.84
13.51
26.0
37.67
47.44
54.96
60.38
64.06
66.3
67.25
67.03
65.79
63.83
61.55
59.33
57.5
56.21
55.47
55.07
54.71
54.03
52.81
51.0
48.78
46.43
44.13
41.81
39.14
35.73
31.28
25.82
19.57
12.88
5.96
-1.1
-8.42
-16.18
-24.57
-33.63
-43.28
-53.16
-62.62
-70.66
-76.13
-77.91
-75.23
-67.94
-56.62
-42.41
-26.76
-11.06
3.63
16.67
27.81
37.07
44.51
50.21
54.19
56.41
56.89
55.82
53.61
50.98
48.75
47.68
48.18
50.12
52.95
55.88
58.29
60.05
61.48
63.16
65.48
68.37
71.23
73.19
73.46
71.56
67.41
61.24
53.52
44.9
36.07
27.62
19.83
12.61
5.57
-1.63
-8.84
-15.19
-19.34
-20.03
-16.58
-9.25
0.96
12.74
24.84
36.4
46.92
56.08
63.73
69.78
74.41
78.14
81.81
86.43
92.87
101.55
112.24
124.03
135.52
145.21
151.93
155.27
155.83
155.16
155.43
158.73
166.29
