76.36
68.82
60.97
52.79
44.03
34.42
23.8
12.34
0.58
-10.67
-20.62
-28.92
-35.97
-42.92
-51.31
-62.54
-77.19
-94.76
-113.67
-131.46
-145.27
-152.34
-150.65
-139.43
-119.64
-93.92
-66.11
-40.27
-19.63
-5.77
1.53
3.82
3.19
1.43
-0.42
-2.07
-3.62
-5.17
-6.52
-7.21
-6.66
-4.44
-0.48
5.0
11.48
18.31
24.73
29.92
33.11
33.79
31.93
28.08
23.28
18.76
15.6
14.54
15.87
19.51
25.06
31.79
38.6
44.19
47.37
47.47
44.69
40.1
35.23
31.45
29.36
28.57
27.95
26.26
22.84
17.98
12.86
9.01
7.65
9.25
13.45
19.28
25.54
31.03
34.82
36.32
35.42
32.69
29.39
27.24
27.9
32.39
40.66
51.61
63.46
74.33
82.78
88.07
90.14
89.4
86.44
81.85
76.22
70.14
64.28
59.29
55.6
53.22
51.68
50.3
48.47
46.01
43.22
40.57
38.34
36.29
33.77
30.11
25.19
19.6
14.42
10.61
8.5
7.64
7.16
6.4
5.44
5.25
7.38
13.21
23.33
37.27
53.64
70.72
87.07
101.92
115.17
127.04
137.64
146.65
153.4
157.08
157.14
153.41
146.12
135.64
122.38
106.66
88.92
69.77
50.01
30.43
11.66
-6.04
-22.69
-38.53
-53.73
-68.3
-82.07
-94.78
-106.23
-116.36
-125.24
-133.1
-140.14
-146.41
-151.75
-155.77
-158.01
-158.23
-156.66
-154.12
-151.82
-150.95
-152.2
-155.26
-158.92
-161.36
-160.8
-156.05
-146.87
-133.93
-118.48
-101.99
-85.79
-70.87
-57.93
-47.33
-39.24
-33.58
-30.06
-28.13
-27.16
-26.53
-25.77
-24.65
-23.17
-21.48
-19.76
-18.18
-16.8
-15.62
-14.56
-13.52
-12.36
-11.06
-9.68
-8.36
-7.23
-6.3
-5.46
-4.53
-3.4
-2.15
-1.0
-0.3
-0.33
-1.24
-2.95
-5.18
-7.5
-9.54
-11.14
-12.58
-14.55
-18.0
-23.75
-32.03
-42.12
-52.41
-60.7
-64.89
-63.64
-56.87
-45.82
-32.81
-20.69
-12.16
-9.11
-12.16
-20.4
-31.57
-42.62
-50.47
-52.81
-48.62
-38.25
-23.11
-5.14
13.58
31.07
45.53
55.37
59.4
57.13
49.08
36.8
22.55
8.66
-3.06
-11.85
-17.97
-22.52
-26.82
-31.95
-38.48
-46.31
-54.88
-63.5
-71.52
-78.56
-84.56
-89.71
-94.26
-98.44
-102.27
-105.63
-108.33
-110.29
-111.62
-112.66
-113.89
-115.75
-118.5
-122.2
-126.71
-131.65
-136.36
-139.84
-140.8
-137.98
-130.46
-118.05
-101.41
-81.88
-61.12
-40.72
-21.93
-5.56
8.03
18.82
27.09
33.32
38.03
41.69
44.61
46.85
48.29
48.75
48.11
46.46
44.14
41.77
40.11
39.87
41.37
44.34
47.91
50.82
51.76
49.87
44.99
37.7
29.13
20.58
13.1
7.24
2.93
-0.37
-3.35
-6.59
-10.22
-14.0
-17.4
-19.84
-20.99
-20.82
-19.72
-18.28
-17.29
-17.45
-19.33
-23.15
-28.66
-35.11
-41.27
-45.71
-47.06
-44.32
-37.07
-25.62
-10.94
5.5
21.98
36.92
49.21
58.4
64.71
68.86
71.6
73.58
75.08
76.13
76.64
76.57
76.04
75.28
74.65
74.46
74.94
76.2
78.22
80.86
83.87
86.8
89.02
89.75
88.25
84.16
77.7
69.71
61.39
53.78
47.38
42.04
37.26
32.58
27.92
23.53
19.79
16.69
13.79
10.33
5.66
-0.38
-7.27
-14.02
-19.43
-22.54
-22.74
-19.83
-13.93
-5.44
4.98
16.37
27.59
37.45
44.9
49.21
50.15
47.94
43.28
37.23
31.17
26.57
24.77
26.61
32.26
41.06
51.87
63.39
74.61
84.92
93.95
101.25
106.24
108.32
107.37
104.08
100.03
97.17
97.04
99.83
104.13
107.12
105.6
97.09
80.87
58.2
31.98
5.82
-17.11
-34.74
-46.42
-52.62
-54.43
-53.11
-49.83
-45.58
-41.2
-37.2
-33.61
-29.87
-25.02
-17.97
-7.91
5.42
21.68
40.16
59.95
80.11
99.66
117.58
132.9
144.95
153.69
159.89
165.12
171.2
179.47
190.03
201.44
211.16
216.55
216.03
209.72
199.23
186.62
173.2
158.78
141.85
120.37
92.69
57.94
15.88
-33.2
-87.92
-144.74
-197.4
-237.76
-258.45
-256.43
-235.03
-203.6
-174.01
-156.04
-153.73
-164.65
-182.05
-198.47
-208.8
-211.42
-207.32
-198.41
-186.15
-171.17
-153.79
-134.56
-114.58
-95.31
-77.94
-62.86
-49.45
-36.31
-22.0
-5.73
12.2
30.39
46.85
59.81
68.29
72.44
73.35
72.58
71.52
70.89
70.64
70.05
68.2
64.41
58.5
50.85
42.21
33.39
25.08
17.72
11.63
6.96
3.76
1.82
0.61
-0.57
-2.42
-5.38
-9.57
-14.83
-20.95
-27.87
-35.58
-43.96
-52.6
-60.79
-67.8
-73.25
-77.47
-81.43
-86.47
-93.66
-103.46
-115.4
-128.28
-140.43
-150.17
-156.2
-157.88
-155.45
-149.94
-142.85
-135.58
-128.81
-122.16
-114.1
-102.58
-85.82
-63.11
-35.32
-4.84
25.17
51.63
72.47
87.05
96.12
101.27
104.31
106.62
108.97
111.54
114.2
116.63
118.45
119.15
118.12
114.78
108.84
100.51
90.54
79.99
69.88
60.84
52.9
45.64
38.47
30.94
22.88
14.43
5.9
-2.44
-10.36
-17.67
-24.18
-29.72
-34.24
-37.81
-40.61
-42.79
-44.24
-44.5
-42.85
-38.66
-31.82
-22.91
-13.1
-3.75
4.06
9.9
13.94
16.83
19.27
21.83
24.8
28.22
32.02
36.0
39.91
43.39
46.06
47.65
48.14
47.86
47.36
47.25
47.9
49.25
50.72
51.45
50.57
47.57
42.48
35.76
28.05
19.93
11.73
3.6
-4.35
-12.0
-19.26
-26.14
-32.89
-39.9
-47.57
-56.04
-65.11
-74.31
-83.1
-91.1
-98.16
-104.28
-109.31
-112.79
-113.96
-111.97
-106.33
-97.15
-85.34
-72.35
-59.78
-48.92
-40.39
-34.15
-29.68
-26.31
-23.55
-21.14
-18.97
-16.91
-14.77
-12.26
-9.16
-5.44
-1.27
3.03
7.25
11.34
15.42
19.56
23.7
27.51
30.55
32.49
33.26
33.19
32.74
32.39
32.4
32.69
32.97
32.91
32.21
30.7
28.33
25.14
21.21
16.71
11.88
6.91
1.86
-3.39
-9.09
-15.37
-22.03
-28.34
-33.23
-35.55
-34.55
-30.11
-22.87
-13.94
-4.55
4.25
11.78
17.75
22.11
24.93
26.37
26.65
26.07
24.97
23.65
22.37
21.26
20.38
19.74
19.37
19.29
19.5
19.92
20.37
20.57
20.29
19.38
17.86
15.89
13.69
11.43
9.15
6.82
4.41
1.93
-0.53
-2.92
-5.2
-7.47
-9.87
-12.54
-15.58
-19.05
-23.04
-27.56
-32.53
-37.56
-41.88
-44.42
-44.11
-40.28
-32.94
-22.88
-11.47
-0.25
9.47
16.99
22.26
25.65
27.77
29.08
29.8
29.92
29.37
28.18
26.58
24.97
23.75
23.21
23.47
24.39
25.77
27.28
28.61
29.47
29.61
28.92
27.47
25.45
23.18
20.91
18.7
16.36
13.6
10.19
6.12
1.73
-2.41
-5.74
-7.91
-8.96
-9.32
-9.69
-10.86
-13.47
-17.68
-23.05
-28.46
-32.32
-33.12
-30.01
-23.15
-13.8
-3.75
5.36
12.63
18.03
22.08
25.33
27.97
29.73
30.16
29.05
26.68
23.77
21.19
19.62
19.26
19.82
20.71
21.34
21.39
20.83
19.94
19.0
18.18
17.42
16.47
15.06
12.99
10.28
7.12
3.78
0.5
-2.54
-5.28
-7.79
-10.18
-12.59
-15.15
-17.97
-21.12
-24.57
-28.18
-31.6
-34.27
-35.5
-34.63
-31.28
-25.46
-17.72
-8.92
-0.08
7.9
14.44
19.31
22.56
24.39
25.01
24.64
23.5
21.83
19.95
18.18
16.83
16.03
15.81
15.99
16.35
16.65
16.76
16.63
16.33
15.92
15.47
14.99
14.41
13.61
12.49
10.99
9.07
6.78
4.2
1.48
-1.23
-3.84
-6.35
-8.88
-11.56
-14.55
-17.84
-21.21
-24.21
-26.2
-26.56
-24.9
-21.16
-15.68
-9.11
-2.22
4.26
9.79
14.03
16.78
17.94
17.5
15.52
12.19
7.85
2.89
-2.19
-6.93
-10.9
-13.75
-15.28
-15.38
-14.11
-11.65
-8.29
-4.42
-0.48
3.13
6.03
7.95
8.82
8.64
7.61
5.97
3.98
1.82
-0.43
-2.88
-5.72
-9.15
-13.26
-17.93
-22.72
-26.98
-29.91
-30.83
-29.37
-25.65
-20.2
-13.87
-7.61
-2.16
2.04
4.91
6.56
7.21
7.04
6.16
4.69
2.78
0.7
-1.24
-2.71
-3.54
-3.7
-3.35
-2.73
-2.06
-1.45
-0.94
-0.54
-0.26
-0.17
-0.34
-0.81
-1.58
-2.64
-4.0
-5.68
-7.72
-10.13
-12.91
-16.0
-19.34
-22.75
-25.87
-28.17
-28.98
-27.81
-24.51
-19.35
-13.05
-6.4
-0.04
5.66
10.61
14.83
18.3
20.95
22.74
23.77
24.31
24.76
25.41
26.39
27.62
28.93
30.17
31.37
32.63
34.0
35.32
36.15
35.91
34.1
30.57
25.63
19.95
14.26
9.2
5.08
1.94
-0.39
-2.24
-4.02
-6.17
-9.04
-12.66
-16.59
-19.91
-21.49
-20.39
-16.32
-9.79
-2.02
5.53
11.54
15.23
16.38
15.16
11.96
7.19
1.29
-5.17
-11.44
-16.75
-20.47
-22.3
-22.41
-21.32
-19.67
-17.97
-16.46
-15.11
-13.67
-11.88
-9.59
-6.87
-4.02
-1.54
0.05
0.34
-0.8
-3.22
-6.53
-10.32
-14.31
-18.4
-22.73
-27.39
-32.3
-37.04
-40.84
-42.8
-42.13
-38.5
-32.2
-24.04
-15.08
-6.38
1.27
7.46
12.07
15.15
16.79
17.1
16.25
14.49
12.22
9.87
7.88
6.55
6.03
6.23
6.94
7.87
8.79
9.6
10.28
10.85
11.28
11.46
11.26
10.6
9.52
8.18
6.78
5.51
4.43
3.46
2.37
0.89
-1.21
-4.0
-7.23
-10.37
-12.63
-13.2
-11.55
-7.57
-1.68
5.31
12.51
19.16
24.8
29.18
32.16
33.56
33.23
31.05
27.1
21.74
15.49
8.97
2.73
-2.78
-7.35
-10.91
-13.5
-15.21
-16.06
-16.01
-14.91
-12.72
-9.6
-6.02
-2.73
-0.56
-0.17
-1.83
-5.4
-10.38
-16.09
-21.88
-27.15
-31.42
-34.33
-35.59
-35.03
-32.67
-28.62
-23.19
-16.74
-9.73
-2.63
4.06
9.89
14.43
17.41
18.69
18.36
16.65
13.97
10.87
7.95
5.79
4.84
5.33
7.13
9.77
12.45
14.18
14.11
11.8
7.48
2.15
-2.79
-5.93
-6.45
-4.5
-1.2
1.77
2.71
0.49
-5.17
-13.62
-23.54
-33.18
-40.75
-44.76
-44.42
-39.8
-31.85
-22.11
-12.23
-3.47
3.56
8.85
12.67
15.33
17.0
17.73
17.65
17.05
16.37
16.07
16.41
17.38
18.74
20.18
21.5
22.7
23.91
25.24
26.62
27.78
28.34
28.01
26.76
24.79
22.35
19.58
16.33
12.3
7.23
1.14
-5.59
-12.28
-18.08
-22.16
-23.87
-22.79
-18.9
-12.62
-4.82
3.23
10.2
14.96
16.96
16.32
13.73
10.17
6.55
3.47
1.13
-0.49
-1.48
-1.77
-1.15
0.6
3.52
7.3
11.34
14.9
17.32
18.23
17.63
15.82
13.25
10.47
7.95
6.0
4.66
3.71
2.67
0.96
-1.9
-6.06
-11.3
-17.04
-22.45
-26.61
-28.73
-28.26
-25.05
-19.36
-11.9
-3.66
4.24
10.83
15.36
17.48
17.14
14.6
10.37
5.13
-0.32
-5.19
-8.86
-11.0
-11.66
-11.23
-10.3
-9.51
-9.37
-10.2
-12.08
-14.82
-18.07
-21.3
-24.03
-25.9
-26.79
-26.88
-26.57
-26.31
-26.56
-27.64
-29.67
-32.48
-35.5
-37.79
-38.17
-35.6
-29.52
-20.12
-8.27
4.75
17.67
29.54
39.77
48.1
54.4
58.67
61.12
62.19
62.57
62.97
63.94
65.67
68.01
70.71
73.51
76.31
79.03
81.55
83.65
85.08
85.65
85.35
84.25
82.36
79.48
75.26
69.33
61.47
51.54
39.22
23.8
4.32
-19.77
-47.77
-77.08
-103.32
-121.4
-127.14
-118.71
-97.36
-67.19
-34.06
-4.17
17.28
27.14
24.95
12.92
-4.57
-22.27
-35.54
-41.74
-40.95
-35.73
-30.08
-28.09
-32.61
-44.49
-62.35
-83.24
-103.53
-120.17
-131.61
-138.07
-141.15
-142.83
-144.48
-146.26
-147.2
-145.82
-141.15
-133.41
-124.07
-115.16
-108.06
-102.24
-94.88
-81.6
-58.2
-22.78
22.97
74.04
123.84
166.53
198.64
219.29
229.03
228.5
217.68
196.37
165.38
127.38
86.74
48.18
15.2
-11.21
-32.33
-50.52
-67.5
-83.05
-94.95
-99.97
-95.49
-80.86
-57.88
-30.2
-2.04
23.09
43.12
57.44
66.42
70.79
71.36
68.98
64.7
59.8
55.56
52.93
52.3
53.49
55.94
59.01
62.27
65.52
68.74
71.9
74.79
76.88
77.46
75.81
71.55
64.74
55.95
46.01
35.75
25.77
16.43
7.89
0.23
-6.56
-12.61
-18.28
-23.94
-29.71
-35.24
-39.69
-42.1
-41.93
-39.43
-35.62
-31.76
-28.66
-26.2
-23.34
-18.68
-11.19
-0.82
11.41
23.78
34.47
42.26
46.73
48.28
47.79
46.18
44.07
41.59
38.41
33.95
27.57
18.82
7.55
-5.93
-20.87
-36.09
-50.14
-61.63
-69.6
-73.93
-75.42
-75.58
-76.17
-78.57
-83.33
-90.04
-97.45
-103.86
-107.54
-107.12
-101.81
-91.58
-77.27
-60.37
-42.87
-26.72
-13.44
-3.78
2.37
5.73
7.39
8.35
9.29
10.58
12.29
14.37
16.84
19.78
23.34
27.52
32.11
36.63
40.47
43.12
44.37
44.39
43.66
42.71
41.76
40.58
38.46
34.39
27.56
17.82
5.89
-6.6
-17.57
-25.1
-28.05
-26.34
-20.81
-12.84
-3.78
5.3
13.66
20.62
25.46
27.39
25.74
20.27
11.29
-0.37
-13.57
-27.03
-39.67
-50.73
-59.86
-67.1
-72.61
-76.44
-78.34
-77.83
-74.59
-68.93
-61.98
-55.49
-51.17
-50.06
-52.04
-56.07
-60.72
-64.78
-67.52
-68.53
-67.35
-63.35
-55.97
-45.15
-31.75
-17.53
-4.59
5.3
11.39
14.12
14.74
14.79
15.4
16.99
19.24
21.46
22.9
23.12
22.01
19.74
16.5
12.47
7.99
3.69
0.59
-0.26
1.86
6.75
13.23
19.43
23.52
24.36
21.82
16.67
10.05
2.97
-3.88
-10.15
-15.5
-19.45
-21.36
-20.69
-17.22
-11.3
-3.8
4.19
11.67
18.01
23.05
26.99
30.04
32.34
33.74
34.01
32.93
30.5
27.05
23.09
19.19
15.77
12.97
10.65
8.44
6.03
3.16
-0.2
-4.03
-8.26
-12.84
-17.76
-22.93
-28.2
-33.35
-38.18
-42.56
-46.52
-50.14
-53.6
-57.02
-60.5
-64.08
-67.7
-71.24
-74.55
-77.58
-80.46
-83.55
-87.35
-92.29
-98.56
-105.85
-113.36
-119.83
-123.9
-124.35
-120.45
-112.16
-100.18
-85.78
-70.52
-55.84
-42.74
-31.59
-22.26
-14.33
-7.38
-1.18
4.32
9.08
13.12
16.59
19.76
22.83
25.84
28.7
31.22
33.29
34.92
36.18
37.16
37.88
38.19
37.87
36.63
34.31
30.85
26.35
21.1
15.44
9.75
4.32
-0.65
-5.17
-9.33
-13.33
-17.42
-21.81
-26.63
-31.84
-37.18
-42.01
-45.4
-46.33
-43.92
-37.82
-28.33
-16.31
-3.01
10.36
22.87
34.05
43.85
52.46
60.14
66.99
72.99
78.01
81.95
84.84
86.89
88.44
89.85
91.45
93.42
95.75
98.31
100.82
102.93
104.2
104.24
102.83
100.05
96.43
92.88
90.59
90.64
93.64
99.51
107.38
115.86
123.4
128.72
131.07
130.35
126.87
121.2
113.83
105.15
95.4
84.85
73.84
62.84
52.27
42.32
32.8
23.3
13.4
3.09
-7.02
-15.77
-21.79
-24.02
-22.1
-16.54
-8.61
0.11
8.18
14.72
19.53
22.94
25.51
27.63
29.42
30.74
31.45
31.71
31.94
32.67
34.23
36.58
39.31
41.94
44.21
46.1
47.8
49.47
51.03
52.22
52.67
52.11
50.37
47.43
43.34
38.29
32.6
26.79
21.5
17.25
14.19
11.92
9.51
5.85
0.09
-7.91
-17.38
-26.81
-34.46
-38.95
-39.73
-37.25
-32.8
-28.03
-24.52
-23.32
-24.82
-28.73
-34.33
-40.76
-47.4
-54.05
-61.04
-68.98
-78.37
-89.2
-100.77
-111.82
-120.99
-127.31
-130.44
-130.64
-128.43
-124.24
-118.25
-110.43
-100.76
-89.36
-76.41
-61.98
-45.89
-27.88
-7.9
13.41
34.61
53.63
68.36
77.33
80.16
77.63
71.46
63.78
56.63
51.57
49.41
50.06
52.62
55.58
57.23
56.14
51.54
43.48
32.78
20.76
9.07
-0.41
-5.76
-5.34
1.78
15.22
33.1
52.33
69.43
81.56
87.15
85.96
78.58
65.83
48.44
27.21
3.37
-21.12
-43.78
-62.06
-74.01
-78.68
-76.26
-67.92
-55.49
-41.15
-27.04
-14.95
-6.15
-1.46
-1.53
-6.96
-18.19
-35.1
-56.4
-79.43
-100.49
-115.75
-122.34
-119.07
-106.53
-86.66
-61.98
-35.05
-8.16
16.66
37.68
53.38
62.67
64.93
60.18
49.17
33.36
14.77
-4.11
-20.74
-32.76
-38.35
-36.57
-27.51
-12.43
6.43
26.17
43.82
56.89
63.72
63.61
56.7
43.87
26.56
6.73
-13.23
-30.94
-44.48
-52.9
-56.36
-55.9
-52.79
-47.85
-41.09
-31.96
-19.98
-5.44
10.23
24.66
35.24
40.12
38.79
32.23
22.45
11.61
1.21
-8.39
-17.85
-28.44
-41.33
-56.91
-74.45
-92.03
-106.97
-116.49
-118.57
-112.64
-99.81
-82.68
-64.5
-48.42
-36.59
-29.87
-28.07
-30.36
-35.77
-43.39
-52.46
-62.22
-71.96
-81.07
-89.21
-96.2
-101.79
-105.2
-104.95
-99.18
-86.32
-66.14
-40.2
-11.71
15.43
37.83
53.77
63.43
68.49
71.13
73.03
74.91
76.52
77.17
76.28
73.66
69.49
64.03
57.46
49.77
40.98
31.38
21.64
12.8
5.82
1.33
-0.68
-0.81
0.06
1.02
1.53
1.42
0.79
-0.12
-1.12
-2.15
-3.18
-4.27
-5.53
-7.13
-9.27
-12.09
-15.56
-19.41
-23.11
-25.96
-27.24
-26.39
-23.11
-17.51
-10.11
-1.8
6.51
14.2
21.21
28.1
35.71
44.73
55.24
66.57
77.41
86.25
91.76
93.11
90.02
82.67
71.67
57.99
42.96
28.17
15.39
6.32
2.46
4.86
13.84
28.8
47.97
68.48
86.66
98.69
101.52
93.67
75.75
50.36
21.44
-6.7
-30.5
-47.86
-58.38
-63.14
-64.03
-63.08
-61.95
-61.53
-61.81
-62.04
-60.9
-57.0
-49.36
-37.94
-23.91
-9.45
2.66
9.8
10.1
2.81
-11.7
-32.16
-56.66
-82.97
-108.74
-131.94
-151.12
-165.62
-175.48
-180.89
-181.68
-177.09
-166.15
-148.52
-125.32
-99.23
-73.87
-52.41
-36.37
-25.27
-17.09
-9.52
-1.02
8.79
19.36
29.95
39.96
49.06
56.87
62.78
66.07
66.4
64.3
61.32
59.67
61.37
67.51
77.6
89.7
100.84
107.82
107.98
99.77
83.27
60.32
34.46
10.36
-7.35
-15.36
-12.77
-1.22
15.95
35.15
53.91
71.28
87.29
101.77
113.49
120.13
119.09
108.58
88.41
60.04
25.89
-11.35
-49.3
-85.94
-119.51
-148.08
-169.54
-181.75
-183.02
-172.7
-151.85
-123.37
-91.52
-60.86
-34.86
-14.91
-0.2
11.38
21.78
31.53
39.39
43.02
40.32
30.71
15.68
-1.76
-18.18
-30.78
-37.95
-39.09
-34.02
-22.57
-4.78
18.74
46.21
74.59
100.13
119.21
129.27
129.26
119.62
101.85
78.08
50.65
22.0
-5.57
-30.17
-50.51
-66.05
-76.91
-83.57
-86.63
-86.59
-83.79
-78.64
-71.7
-63.8
-55.91
-48.91
-43.32
-39.1
-35.82
-32.88
-30.03
-27.64
-26.79
-28.77
-34.44
-43.55
-54.48
-64.55
-70.79
-70.85
-63.75
-49.99
-31.3
-9.93
11.9
32.48
50.62
65.67
77.34
85.71
91.29
95.0
97.99
101.3
105.46
110.39
115.34
119.38
121.75
122.32
121.53
120.23
119.21
118.87
119.03
119.03
117.97
115.02
109.68
101.9
92.08
81.01
69.66
58.95
49.44
41.15
33.66
26.31
18.72
11.14
4.39
-0.44
-2.71
-2.62
-1.38
-0.87
-2.9
-8.56
-17.74
-29.19
-40.86
-50.57
-56.58
-58.04
-55.22
-49.31
-42.04
-35.13
-29.83
-26.66
-25.52
-25.89
-27.16
-28.81
-30.48
-31.87
-32.7
-32.68
-31.68
-29.77
-27.23
-24.51
-22.01
-19.9
-18.06
-16.15
-13.78
-10.66
-6.79
-2.38
2.25
6.83
11.22
15.46
19.73
24.28
29.35
35.02
41.16
47.36
52.98
57.26
59.6
59.83
58.46
56.63
55.86
57.61
62.75
71.32
82.64
95.6
108.99
121.78
132.95
141.51
146.34
146.47
141.19
130.37
114.44
94.16
70.45
44.15
16.09
-12.79
-41.39
-68.31
-92.04
-111.12
-124.48
-131.66
-133.01
-129.62
-123.12
-115.24
-107.41
-100.54
-94.91
-90.43
-86.76
-83.47
-80.21
-76.67
-72.72
-68.42
-63.96
-59.55
-55.3
-51.12
-46.85
-42.42
-38.07
-34.35
-32.01
-31.73
-33.86
-38.3
-44.44
-51.31
-57.7
-62.35
-64.11
-62.29
-56.9
-48.73
-39.24
-30.14
-22.87
-18.2
-16.1
-15.84
-16.5
-17.35
-18.05
-18.61
-19.22
-19.95
-20.77
-21.49
-21.93
-22.05
-21.94
-21.73
-21.53
-21.37
-21.18
-20.92
-20.55
-20.21
-20.1
-20.47
-21.44
-22.96
-24.79
-26.61
-28.16
-29.47
-30.82
-32.62
-35.14
-38.34
-41.92
-45.45
-48.64
-51.52
-54.42
-57.76
-61.91
-67.09
-73.27
-80.16
-87.16
-93.28
-97.25
-97.8
-94.08
-85.93
-74.02
-59.65
-44.34
-29.45
-15.92
-4.27
5.32
12.84
18.36
22.02
24.07
24.86
24.95
24.98
25.62
27.47
30.84
35.73
41.71
48.04
53.83
58.31
60.99
61.72
60.65
58.09
54.37
49.81
44.77
39.66
34.9
30.71
26.98
23.25
18.88
13.37
6.64
-0.8
-8.16
-14.61
-19.72
-23.65
-27.02
-30.63
-35.09
-40.45
-46.13
-51.04
-53.86
-53.48
-49.2
-40.98
-29.36
-15.29
0.04
15.4
29.74
42.3
52.69
60.87
67.03
71.47
74.38
75.91
76.16
75.39
74.04
72.69
71.84
71.81
72.59
73.96
75.61
77.28
78.82
80.1
81.01
81.46
81.39
80.85
79.92
78.55
76.49
73.23
68.11
60.69
50.98
39.6
27.59
16.09
5.97
-2.5
-9.61
-16.1
-22.87
-30.76
-40.32
-51.65
-64.25
-76.88
-87.79
-95.08
-97.27
-93.74
-84.93
-72.15
-57.17
-41.74
-27.34
-14.97
-5.2
1.86
6.48
9.31
11.23
13.11
15.59
18.9
22.9
27.24
31.53
35.49
38.98
41.96
44.46
46.49
48.05
49.12
49.67
49.71
49.33
48.65
47.81
46.81
45.5
43.58
40.78
36.99
32.43
27.62
23.14
19.37
16.3
13.63
10.98
8.1
5.01
1.81
-1.45
-4.79
-8.12
-10.96
-12.3
-10.91
-5.95
2.54
13.39
24.66
34.48
41.75
46.45
49.33
51.39
53.27
55.08
56.59
57.54
57.86
57.65
56.96
55.75
53.91
51.48
48.71
46.13
44.35
43.87
44.85
47.13
50.19
53.31
55.81
57.18
57.27
56.37
55.04
53.82
52.87
51.85
49.97
46.41
40.7
32.91
23.65
13.62
3.4
-6.77
-16.86
-26.91
-36.85
-46.45
-55.39
-63.26
-69.49
-73.36
-74.07
-71.01
-64.11
