-197.98
-176.38
-151.26
-127.51
-108.97
-97.58
-93.2
-94.14
-98.11
-103.08
-107.58
-110.69
-111.72
-109.9
-104.42
-94.66
-80.49
-62.55
-42.18
-21.25
-1.63
15.24
28.77
39.28
47.83
55.61
63.45
71.47
79.17
85.9
91.26
95.41
98.87
102.17
105.51
108.64
110.97
111.98
111.45
109.5
106.56
103.01
99.06
94.64
89.46
83.24
75.83
67.45
58.66
50.2
42.61
35.84
29.17
21.25
10.7
-3.53
-21.74
-43.68
-68.69
-95.87
-123.92
-150.86
-173.93
-189.89
-196.01
-190.94
-175.43
-152.16
-124.93
-97.6
-73.09
-53.05
-37.96
-27.6
-21.39
-18.64
-18.54
-20.13
-22.41
-24.43
-25.43
-24.92
-22.72
-19.02
-14.24
-8.94
-3.59
1.62
6.88
12.56
19.04
26.31
33.93
41.06
46.8
50.54
52.07
51.56
49.42
46.03
41.72
36.74
31.28
25.49
19.43
13.05
6.15
-1.5
-10.0
-19.14
-28.36
-36.75
-43.18
-46.58
-46.18
-41.76
-33.72
-23.01
-10.93
1.19
12.24
21.55
28.9
34.45
38.54
41.59
43.8
45.28
45.94
45.71
44.6
42.83
40.72
38.71
37.12
36.19
35.93
36.19
36.69
37.03
36.83
35.71
33.5
30.19
26.04
21.53
17.16
13.35
10.34
8.11
6.39
4.82
3.01
0.62
-2.54
-6.38
-10.52
-14.17
-16.36
-16.08
-12.67
-6.01
3.3
14.21
25.4
35.74
44.49
51.38
56.53
60.28
62.99
64.98
66.52
67.83
69.1
70.48
72.05
73.86
75.92
78.24
80.79
83.49
86.23
88.87
91.33
93.64
95.98
98.6
101.7
105.3
109.26
113.29
117.06
120.34
122.9
124.5
124.83
123.63
120.88
117.1
113.24
110.49
109.72
111.08
113.83
116.65
118.14
117.46
114.54
110.06
105.07
100.6
97.3
95.34
94.5
94.24
93.82
92.31
88.63
81.7
70.64
55.22
36.1
14.86
-6.41
-25.82
-42.34
-55.98
-67.55
-78.01
-87.83
-96.82
-104.37
-109.96
-113.59
-115.83
-117.49
-119.32
-121.72
-124.75
-128.28
-131.96
-135.33
-137.65
-138.05
-135.71
-130.16
-121.52
-110.63
-98.71
-87.02
-76.43
-67.29
-59.57
-53.13
-48.03
-44.58
-43.04
-43.42
-45.2
-47.52
-49.45
-50.37
-50.31
-49.81
-49.59
-50.24
-51.95
-54.49
-57.45
-60.5
-63.51
-66.6
-69.97
-73.69
-77.6
-81.26
-84.11
-85.66
-85.68
-84.2
-81.45
-77.73
-73.33
-68.46
-63.43
-58.57
-54.15
-50.26
-46.64
-42.73
-37.85
-31.62
-24.11
-15.95
-7.99
-0.96
4.78
9.31
12.91
15.79
17.97
19.26
19.53
18.79
17.31
15.51
13.78
12.35
11.27
10.46
9.75
9.01
8.13
7.08
5.86
4.57
3.25
1.86
0.29
-1.6
-3.84
-6.24
-8.4
-9.78
-9.91
-8.55
-5.76
-1.89
2.52
6.82
10.41
12.72
13.42
12.51
10.44
8.06
6.41
6.42
8.6
12.85
18.55
24.79
30.56
35.1
38.01
39.32
39.39
38.71
37.71
36.57
35.21
33.41
31.02
28.12
25.07
22.43
20.76
20.46
21.64
24.17
27.64
31.48
35.0
37.55
38.66
38.13
36.13
33.1
29.62
26.25
23.42
21.35
20.0
19.12
18.28
16.98
14.73
11.19
6.2
-0.25
-7.86
-16.11
-24.16
-30.93
-35.29
-36.44
-34.18
-29.13
-22.5
-15.8
-10.26
-6.53
-4.59
-4.03
-4.29
-4.93
-5.63
-6.17
-6.34
-6.06
-5.38
-4.52
-3.76
-3.33
-3.24
-3.32
-3.33
-3.04
-2.38
-1.36
-0.03
1.54
3.17
4.56
5.28
4.97
3.58
1.51
-0.42
-1.31
-0.53
1.94
5.46
8.97
11.29
11.55
9.41
5.17
-0.32
-5.89
-10.28
-12.39
-11.48
-7.35
-0.4
8.37
17.56
25.6
31.19
33.62
32.92
29.8
25.37
20.79
16.89
14.16
12.66
12.24
12.51
12.99
13.16
12.51
10.77
7.94
4.31
0.37
-3.35
-6.44
-8.65
-9.93
-10.41
-10.33
-9.99
-9.73
-9.8
-10.3
-11.24
-12.6
-14.39
-16.81
-20.01
-24.01
-28.5
-32.84
-36.15
-37.64
-36.84
-33.74
-28.76
-22.55
-15.73
-8.85
-2.34
3.35
7.75
10.38
10.97
9.57
6.75
3.31
0.11
-2.28
-3.71
-4.43
-4.81
-5.15
-5.52
-5.82
-5.93
-5.84
-5.67
-5.7
-6.21
-7.34
-9.06
-11.16
-13.33
-15.31
-16.95
-18.29
-19.48
-20.66
-21.9
-23.11
-24.2
-25.23
-26.51
-28.5
-31.51
-35.44
-39.58
-42.83
-44.06
-42.55
-38.3
-31.95
-24.48
-16.86
-9.74
-3.41
2.06
6.67
10.35
13.08
14.91
16.07
16.94
17.89
19.1
20.55
22.07
23.48
24.72
25.95
27.33
29.01
30.95
32.89
34.48
35.37
35.34
34.29
32.32
29.68
26.7
23.69
20.87
18.27
15.67
12.76
9.17
4.69
-0.74
-6.92
-13.44
-19.73
-25.07
-28.79
-30.42
-29.82
-27.26
-23.29
-18.52
-13.4
-8.17
-2.87
2.51
7.89
13.03
17.65
21.51
24.45
26.48
27.72
28.33
28.5
28.38
28.16
27.97
27.95
28.16
28.61
29.26
30.07
30.95
31.78
32.46
32.88
32.92
32.52
31.66
30.32
28.48
26.13
23.27
20.02
16.58
13.18
9.95
6.74
3.21
-1.02
-6.0
-11.26
-15.83
-18.58
-18.62
-15.68
-10.18
-2.98
4.94
12.74
19.81
25.7
29.92
32.03
31.7
28.96
24.28
18.47
12.41
6.79
1.95
-2.17
-5.82
-9.32
-12.84
-16.4
-19.91
-23.16
-25.93
-28.06
-29.48
-30.34
-30.89
-31.48
-32.29
-33.3
-34.27
-34.9
-35.03
-34.75
-34.4
-34.38
-35.0
-36.33
-38.29
-40.59
-42.93
-44.86
-45.9
-45.53
-43.32
-39.11
-33.08
-25.7
-17.63
-9.47
-1.73
5.26
11.28
16.14
19.72
22.0
23.11
23.34
23.04
22.52
22.0
21.6
21.37
21.31
21.38
21.51
21.54
21.33
20.73
19.71
18.32
16.68
14.9
13.09
11.34
9.72
8.35
7.24
6.4
5.69
4.91
3.83
2.27
0.2
-2.23
-4.72
-6.87
-8.3
-8.69
-7.89
-5.89
-2.82
1.04
5.33
9.64
13.59
16.87
19.23
20.54
20.78
20.03
18.5
16.48
14.31
12.32
10.73
9.6
8.81
8.15
7.37
6.29
4.88
3.25
1.54
-0.15
-1.88
-3.81
-6.21
-9.26
-12.98
-17.23
-21.71
-26.1
-30.1
-33.51
-36.24
-38.34
-39.97
-41.39
-42.82
-44.34
-45.8
-46.82
-46.87
-45.4
-42.02
-36.59
-29.24
-20.48
-11.05
-1.78
6.56
13.55
19.1
23.42
26.82
29.52
31.52
32.77
33.24
33.07
32.58
32.11
31.85
31.83
31.84
31.72
31.32
30.65
29.81
28.86
27.8
26.53
24.93
22.95
20.63
18.05
15.35
12.65
10.02
7.45
4.92
2.32
-0.46
-3.6
-7.3
-11.61
-16.41
-21.3
-25.69
-28.92
-30.53
-30.31
-28.41
-25.22
-21.17
-16.7
-12.09
-7.58
-3.34
0.46
3.63
6.03
7.59
8.31
8.3
7.72
6.79
5.74
4.76
3.95
3.37
3.05
3.02
3.28
3.88
4.8
6.04
7.53
9.19
10.84
12.23
13.08
13.18
12.47
11.13
9.49
7.9
6.55
5.36
4.05
2.31
-0.05
-3.04
-6.48
-10.13
-13.7
-16.88
-19.37
-20.84
-20.98
-19.65
-16.93
-13.22
-9.1
-5.21
-2.05
0.18
1.57
2.43
3.09
3.7
4.22
4.47
4.27
3.61
2.64
1.6
0.65
-0.15
-0.91
-1.73
-2.6
-3.43
-4.0
-4.17
-3.9
-3.42
-3.01
-3.0
-3.51
-4.48
-5.67
-6.78
-7.62
-8.18
-8.62
-9.16
-10.07
-11.55
-13.74
-16.72
-20.43
-24.63
-28.8
-32.26
-34.3
-34.4
-32.34
-28.34
-22.89
-16.61
-10.11
-3.87
1.76
6.55
10.36
13.13
14.89
15.82
16.11
16.02
15.82
15.7
15.83
16.27
17.07
18.14
19.32
20.4
21.16
21.43
21.13
20.39
19.48
18.69
18.27
18.31
18.72
19.28
19.81
20.22
20.51
20.77
21.06
21.35
21.54
21.44
20.84
19.58
17.59
15.03
12.3
9.95
8.57
8.5
9.7
11.72
13.86
15.51
16.31
16.25
15.58
14.6
13.43
12.05
10.36
8.37
6.24
4.35
3.04
2.45
2.43
2.64
2.67
2.3
1.56
0.69
-0.07
-0.62
-0.95
-0.99
-0.53
0.75
3.08
6.3
9.75
12.44
13.43
12.23
8.96
4.28
-0.97
-6.11
-10.94
-15.63
-20.48
-25.62
-30.78
-35.33
-38.45
-39.46
-38.04
-34.26
-28.53
-21.45
-13.6
-5.53
2.25
9.23
14.87
18.71
20.39
19.77
16.96
12.21
5.88
-1.55
-9.43
-16.81
-22.48
-25.13
-23.71
-17.88
-8.22
3.79
16.17
27.14
35.58
41.32
44.96
47.39
49.35
51.13
52.54
53.3
53.18
52.24
50.67
48.67
46.25
43.33
39.89
36.1
32.09
27.73
22.35
14.9
4.58
-8.53
-22.96
-36.34
-46.17
-51.0
-50.98
-47.76
-43.57
-40.2
-38.4
-37.96
-38.17
-38.55
-38.93
-39.39
-39.84
-39.89
-38.96
-36.79
-33.7
-30.52
-28.27
-27.6
-28.49
-30.24
-31.84
-32.44
-31.6
-29.38
-26.22
-22.7
-19.43
-16.89
-15.39
-14.92
-15.15
-15.64
-15.92
-15.73
-15.15
-14.46
-14.01
-13.99
-14.39
-15.01
-15.6
-15.93
-15.88
-15.4
-14.38
-12.59
-9.8
-5.8
-0.64
5.31
11.43
16.96
21.26
23.96
25.01
24.61
23.01
20.41
16.91
12.64
7.87
3.03
-1.33
-4.8
-7.3
-9.05
-10.46
-11.88
-13.36
-14.64
-15.35
-15.3
-14.65
-13.94
-13.8
-14.73
-16.85
-19.95
-23.64
-27.46
-31.08
-34.33
-37.2
-39.74
-42.11
-44.49
-47.06
-49.88
-52.83
-55.52
-57.32
-57.52
-55.5
-50.95
-44.03
-35.35
-25.81
-16.42
-8.03
-1.21
3.84
7.16
8.93
9.37
8.68
7.07
4.85
2.44
0.37
-0.85
-0.87
0.33
2.44
4.93
7.27
9.14
10.5
11.5
12.32
12.93
13.15
12.69
11.38
9.3
6.73
4.08
1.68
-0.37
-2.22
-4.19
-6.63
-9.77
-13.59
-17.84
-22.09
-25.74
-28.18
-28.86
-27.42
-23.76
-18.09
-11.02
-3.36
4.0
10.34
15.24
18.6
20.59
21.45
21.4
20.66
19.39
17.85
16.28
14.87
13.68
12.69
11.78
10.91
10.11
9.47
9.07
8.89
8.78
8.51
7.83
6.63
4.95
3.02
1.19
-0.2
-0.91
-0.89
-0.29
0.62
1.46
1.85
1.4
-0.19
-3.07
-7.14
-11.93
-16.68
-20.47
-22.5
-22.26
-19.69
-15.11
-9.1
-2.33
4.6
11.21
17.14
22.2
26.32
29.52
31.89
33.58
34.77
35.65
36.43
37.37
38.7
40.58
43.05
46.05
49.48
53.21
57.19
61.45
65.94
70.43
74.51
77.59
79.07
78.56
76.07
71.87
66.44
60.21
53.4
46.02
37.94
29.01
19.15
8.39
-3.16
-15.25
-27.48
-39.26
-49.85
-58.48
-64.54
-67.66
-67.82
-65.27
-60.49
-54.1
-46.83
-39.3
-32.02
-25.09
-18.28
-11.11
-3.11
5.88
15.61
25.5
34.92
43.49
51.16
58.17
64.86
71.51
78.23
84.92
91.1
95.76
97.34
94.01
84.15
67.15
43.9
16.78
-10.86
-35.62
-54.96
-67.62
-73.59
-73.72
-69.14
-60.94
-50.09
-37.54
-24.4
-11.94
-1.41
6.2
10.44
11.37
9.38
4.9
-1.84
-10.73
-21.62
-34.04
-47.01
-59.17
-69.01
-75.22
-76.87
-73.47
-64.99
-51.75
-34.48
-14.23
7.63
29.52
49.79
66.8
78.94
84.86
83.66
75.13
60.04
40.04
17.45
-5.28
-25.99
-43.05
-55.5
-62.83
-64.92
-61.89
-54.12
-42.21
-27.02
-9.69
8.31
25.2
39.1
48.22
51.27
47.72
37.98
23.27
5.32
-13.9
-32.57
-49.19
-62.85
-73.15
-80.24
-84.49
-86.21
-85.32
-81.4
-73.88
-62.54
-47.75
-30.5
-12.14
6.08
23.33
39.19
53.47
65.89
76.02
83.43
88.05
90.33
91.28
92.04
93.42
95.54
97.87
99.45
99.41
97.23
92.85
86.57
78.91
70.45
61.79
53.47
45.87
39.11
32.86
26.39
18.75
9.07
-3.05
-17.35
-32.92
-48.5
-62.81
-74.9
-84.29
-91.04
-95.61
-98.62
-100.7
-102.39
-103.98
-105.54
-106.8
-107.21
-106.04
-102.65
-96.69
-88.32
-78.17
-67.17
-56.13
-45.57
-35.54
-25.83
-16.23
-6.71
2.43
10.73
17.69
23.07
26.84
29.23
30.51
30.96
30.7
29.77
28.21
26.15
23.79
21.41
19.22
17.23
15.27
13.02
10.26
6.98
3.47
0.16
-2.59
-4.65
-6.19
-7.33
-8.02
-7.79
-5.94
-1.84
4.68
13.19
22.8
32.52
41.64
49.94
57.6
64.88
71.92
78.6
84.48
88.95
91.18
90.32
85.62
76.82
64.33
49.38
33.71
19.16
7.1
-1.83
-7.74
-11.22
-13.01
-13.7
-13.72
-13.27
-12.52
-11.53
-10.31
-8.81
-7.0
-4.89
-2.64
-0.48
1.4
2.94
4.35
6.03
8.44
11.75
15.57
18.85
20.01
17.43
10.06
-1.97
-17.24
-33.31
-47.44
-57.39
-62.05
-61.64
-57.26
-50.41
-42.36
-33.81
-24.81
-14.97
-3.85
8.82
22.81
37.34
51.09
62.44
69.79
71.98
68.65
60.45
48.95
36.28
24.53
15.17
8.7
4.55
1.46
-2.02
-7.08
-14.31
-23.66
-34.62
-46.32
-57.82
-68.07
-76.16
-81.35
-83.32
-82.21
-78.73
-73.91
-68.91
-64.68
-61.76
-60.22
-59.79
-60.05
-60.67
-61.39
-62.05
-62.39
-62.07
-60.62
-57.57
-52.65
-45.84
-37.47
-28.14
-18.65
-9.81
-2.34
3.24
6.74
8.22
8.04
6.65
4.57
2.32
0.37
-0.83
-0.96
0.13
2.31
5.18
8.13
10.53
11.9
11.95
10.62
7.93
3.96
-1.24
-7.53
-14.65
-22.14
-29.44
-36.07
-41.67
-46.09
-49.39
-51.69
-53.21
-54.19
-54.89
-55.56
-56.38
-57.3
-58.02
-58.04
-56.73
-53.57
-48.32
-41.14
-32.54
-23.28
-14.16
-5.88
1.08
6.48
10.27
12.56
13.57
13.62
13.08
12.34
11.79
11.7
12.24
13.4
15.05
16.9
18.67
20.11
21.08
21.58
21.72
21.65
21.49
21.26
20.8
19.89
18.27
15.82
12.62
8.98
5.3
2.01
-0.68
-2.84
-4.74
-6.85
-9.59
-13.21
-17.73
-22.83
-27.95
-32.33
-35.17
-35.77
-33.67
-28.81
-21.54
-12.67
-3.19
5.95
14.07
20.83
26.26
30.48
33.63
35.72
36.75
36.79
36.12
35.12
34.26
33.88
34.09
34.79
35.75
36.71
37.48
38.02
38.35
38.55
38.63
38.5
38.02
36.99
35.3
32.95
30.09
27.01
24.03
21.42
19.28
17.5
15.77
13.63
10.62
6.42
0.87
-5.89
-13.44
-21.16
-28.22
-33.76
-37.08
-37.76
-35.82
-31.75
-26.29
-20.27
-14.39
-9.03
-4.35
-0.29
3.24
6.32
9.01
11.35
13.41
15.27
17.01
18.66
20.24
21.74
23.15
24.44
25.6
26.58
27.3
27.71
27.75
27.4
26.63
25.34
23.43
20.77
17.32
13.17
8.57
3.8
-0.82
-5.02
-8.69
-11.84
-14.62
-17.3
-20.23
-23.64
-27.62
-31.99
-36.25
-39.7
-41.62
-41.45
-39.01
-34.52
-28.53
-21.8
-15.01
-8.67
-3.02
1.9
6.14
9.68
12.4
14.2
15.09
15.29
15.21
15.3
15.86
16.92
18.3
19.72
21.02
22.21
23.44
24.84
26.39
27.85
28.89
29.21
28.64
27.22
25.11
22.5
19.6
16.57
13.54
10.61
7.82
5.1
2.25
-1.0
-4.86
-9.36
-14.2
-18.8
-22.33
-23.98
-23.14
-19.66
-13.89
-6.66
0.95
7.88
13.4
17.23
19.53
20.71
21.2
21.3
21.12
20.69
20.01
19.22
18.48
17.99
17.79
17.82
17.85
17.66
17.14
16.28
15.23
14.18
13.28
12.57
11.93
11.13
9.93
8.16
5.84
3.14
0.33
-2.35
-4.79
-7.04
-9.29
-11.76
-14.67
-18.17
-22.33
-27.05
-32.06
-36.84
-40.73
-43.03
-43.21
-41.09
-36.95
-31.45
-25.46
-19.83
-15.19
-11.77
-9.5
-8.06
-7.11
-6.38
-5.79
-5.45
-5.52
-6.17
-7.45
-9.26
-11.32
-13.26
-14.67
-15.23
-14.72
-13.13
-10.63
-7.54
-4.22
-1.04
1.69
3.74
4.94
5.21
4.57
3.13
1.13
-1.14
-3.31
-5.05
-6.07
-6.22
-5.51
-4.15
-2.54
-1.19
-0.59
-1.03
-2.45
-4.44
-6.36
-7.49
-7.31
-5.59
-2.39
1.96
7.11
12.68
18.4
24.03
29.36
34.15
38.14
41.11
42.97
43.85
44.01
43.87
43.79
44.01
44.54
45.23
45.82
46.1
45.92
45.27
44.24
43.0
41.69
40.37
38.98
37.39
35.47
33.15
30.45
27.44
24.16
20.61
16.79
12.75
8.65
4.68
1.0
-2.34
-5.51
-8.76
-12.37
-16.41
-20.7
-24.8
-28.17
-30.27
-30.78
-29.74
-27.4
-24.19
-20.48
-16.55
-12.58
-8.75
-5.32
-2.65
-0.94
-0.17
0.06
0.36
1.27
3.09
5.7
8.7
11.6
14.06
16.01
17.52
18.7
19.59
20.08
19.98
19.16
17.59
15.39
12.76
9.88
6.85
3.74
0.56
-2.61
-5.64
-8.36
-10.72
-12.79
-14.84
-17.15
-19.93
-23.19
-26.65
-29.87
-32.4
-33.88
-34.14
-33.18
-31.12
-28.15
-24.47
-20.26
-15.76
-11.2
-6.84
-2.94
0.31
2.78
4.54
5.75
6.62
7.34
7.99
8.55
8.98
9.28
9.49
9.66
9.75
9.68
9.33
8.66
7.78
6.82
5.9
4.99
3.96
2.66
1.03
-0.84
-2.76
-4.59
-6.32
-8.06
-10.03
-12.35
-15.02
-17.91
-20.79
-23.44
-25.65
-27.3
-28.3
-28.59
-28.14
-26.98
-25.12
-22.59
-19.41
-15.6
-11.33
-6.88
-2.66
0.9
3.49
5.12
6.11
6.98
8.2
9.96
12.08
14.14
15.7
16.51
16.61
16.24
15.66
15.05
14.49
13.97
13.53
13.24
13.13
13.13
13.06
12.67
11.77
10.32
8.48
6.53
4.68
3.05
1.56
0.01
-1.81
-4.04
-6.68
-9.6
-12.55
-15.19
-17.21
-18.33
-18.38
-17.35
-15.37
-12.67
-9.53
-6.12
