24.4
15.46
5.88
-3.73
-12.45
-19.18
-23.01
-23.62
-21.54
-18.0
-14.55
-12.51
-12.67
-15.12
-19.42
-24.82
-30.5
-35.79
-40.29
-43.88
-46.64
-48.71
-50.05
-50.46
-49.7
-47.69
-44.71
-41.4
-38.55
-36.78
-36.24
-36.39
-36.23
-34.52
-30.28
-23.15
-13.54
-2.55
8.38
17.84
24.77
28.58
29.03
26.07
19.71
10.16
-1.99
-15.47
-28.42
-38.75
-44.73
-45.56
-41.56
-33.9
-24.06
-13.28
-2.25
8.8
19.74
30.23
39.67
47.31
52.65
55.7
56.98
57.33
57.6
58.36
59.78
61.62
63.41
64.59
64.78
63.85
62.0
59.55
56.83
53.96
50.89
47.48
43.65
39.45
35.04
30.5
25.79
20.68
14.94
8.53
1.71
-5.06
-11.26
-16.61
-21.14
-25.25
-29.41
-33.96
-38.87
-43.63
-47.33
-48.95
-47.73
-43.41
-36.37
-27.48
-17.88
-8.58
-0.27
6.7
12.24
16.35
19.05
20.38
20.51
19.78
18.69
17.76
17.42
17.85
19.01
20.66
22.54
24.38
26.02
27.34
28.26
28.7
28.58
27.91
26.77
25.43
24.16
23.28
22.98
23.31
24.07
24.85
25.08
24.12
21.45
16.87
10.67
3.64
-3.02
-8.04
-10.34
-9.41
-5.35
1.18
9.15
17.51
25.33
31.94
36.95
40.22
41.8
41.81
40.51
38.25
35.47
32.65
30.21
28.43
27.41
26.98
26.9
26.91
26.8
26.51
26.09
25.61
25.14
24.61
23.89
22.79
21.21
19.14
16.73
14.21
11.79
9.62
7.7
5.96
4.27
2.46
0.38
-2.02
-4.68
-7.27
-9.23
-9.86
-8.45
-4.55
1.85
10.33
20.1
30.24
39.9
48.45
55.61
61.41
66.12
70.16
73.97
77.89
82.09
86.44
90.59
93.89
95.57
94.88
91.37
85.04
76.53
66.97
57.67
49.69
43.42
38.41
33.57
27.55
19.32
8.5
-4.52
-18.7
-32.78
-45.59
-56.35
-64.82
-71.25
-76.24
-80.56
-84.85
-89.38
-93.86
-97.47
-99.13
-97.77
-92.78
-84.15
-72.52
-58.92
-44.54
-30.44
-17.44
-6.03
3.58
11.5
18.09
23.98
29.87
36.36
43.69
51.63
59.44
66.15
70.88
73.14
72.93
70.72
67.15
62.74
57.68
51.82
44.82
36.35
26.39
15.31
3.8
-7.22
-16.88
-24.56
-30.02
-33.47
-35.43
-36.59
-37.59
-38.84
-40.47
-42.35
-44.21
-45.75
-46.76
-47.17
-47.0
-46.32
-45.16
-43.49
-41.21
-38.23
-34.56
-30.34
-25.78
-21.12
-16.53
-12.08
-7.76
-3.66
0.02
2.98
4.99
6.01
6.32
6.46
7.04
8.5
10.88
13.89
16.96
19.49
21.14
21.87
22.04
22.14
22.66
23.85
25.65
27.76
29.79
31.45
32.67
33.62
34.58
35.83
37.54
39.76
42.44
45.49
48.82
52.3
55.78
59.18
62.49
65.91
69.75
74.27
79.31
84.11
87.26
87.11
82.44
72.97
59.57
43.96
28.22
14.12
2.78
-5.35
-10.33
-12.61
-12.94
-12.41
-12.4
-14.37
-19.38
-27.74
-38.79
-51.13
-63.13
-73.4
-81.24
-86.64
-90.13
-92.39
-93.94
-95.0
-95.56
-95.52
-94.83
-93.52
-91.69
-89.43
-86.76
-83.7
-80.33
-76.9
-73.76
-71.37
-70.02
-69.74
-70.13
-70.46
-69.86
-67.59
-63.29
-57.05
-49.41
-41.07
-32.77
-25.04
-18.18
-12.23
-7.12
-2.74
0.93
3.78
5.64
6.44
6.3
5.62
4.93
4.72
5.21
6.29
7.63
8.93
10.1
11.29
12.78
14.8
17.4
20.39
23.48
26.32
28.61
30.07
30.51
29.92
28.46
26.53
24.6
23.02
21.87
20.9
19.72
17.99
15.59
12.77
10.03
8.03
7.37
8.45
11.24
15.24
19.52
23.0
24.87
24.86
23.38
21.2
19.05
17.17
15.26
12.7
9.06
4.36
-0.82
-5.76
-9.99
-13.56
-16.93
-20.58
-24.57
-28.39
-31.25
-32.62
-32.57
-31.75
-31.06
-31.11
-31.96
-33.26
-34.78
-36.65
-39.36
-43.31
-48.23
-53.05
-56.16
-56.22
-52.85
-46.9
-40.14
-34.53
-31.45
-31.27
-33.39
-36.54
-39.37
-40.74
-40.02
-36.99
-31.8
-24.86
-16.68
-7.83
1.18
9.98
18.41
26.44
34.17
41.62
48.69
55.25
61.14
66.36
71.1
75.68
80.49
85.73
91.39
97.05
101.88
104.67
104.03
98.7
88.01
72.15
52.32
30.4
8.52
-11.46
-28.26
-41.18
-49.82
-53.84
-52.85
-46.71
-35.92
-21.99
-7.44
4.56
11.09
10.17
1.45
-13.74
-32.84
-52.75
-70.74
-84.94
-94.43
-98.89
-98.27
-92.42
-81.28
-65.24
-45.51
-24.2
-3.99
12.49
23.33
27.89
26.86
22.03
15.84
10.73
8.47
9.75
13.95
19.49
24.45
27.39
27.92
26.73
25.09
24.15
24.32
25.2
25.85
25.45
23.79
21.29
18.76
16.9
15.89
15.42
14.86
13.68
11.69
9.15
6.71
5.17
5.24
7.36
11.59
17.57
24.69
32.21
39.56
46.38
52.41
57.37
60.82
62.28
61.49
58.78
55.14
51.97
50.58
51.71
55.39
61.02
67.78
74.91
81.88
88.35
94.21
99.52
104.47
109.21
113.55
116.68
117.13
113.22
103.74
88.64
69.31
48.31
28.55
12.39
1.0
-5.85
-9.51
-11.92
-14.91
-19.68
-26.47
-34.45
-42.01
-47.27
-48.71
-45.67
-38.52
-28.39
-16.82
-5.17
5.61
14.87
22.08
26.68
28.15
26.31
21.63
15.18
8.34
2.22
-2.87
-7.49
-12.8
-19.91
-29.21
-40.17
-51.4
-61.21
-68.12
-71.19
-70.23
-65.64
-58.41
-49.99
-42.23
-36.99
-35.59
-38.22
-43.83
-50.36
-55.63
-58.34
-58.55
-57.47
-56.72
-57.26
-58.89
-60.46
-60.62
-58.68
-54.91
-50.2
-45.21
-39.88
-33.35
-24.62
-13.3
0.05
13.87
25.94
33.51
33.47
22.88
0.33
-32.49
-69.6
-101.65
-118.74
-114.35
-88.36
-47.45
-2.54
35.53
59.71
68.47
64.8
53.78
40.13
26.94
15.71
7.16
1.84
0.39
3.17
9.81
18.95
28.55
36.45
41.33
43.15
43.16
43.14
44.34
46.66
48.54
47.63
41.96
30.97
15.95
-0.4
-14.9
-25.01
-29.5
-28.63
-23.75
-16.62
-8.92
-1.85
3.91
8.15
11.01
12.83
14.05
15.02
15.89
16.46
16.34
15.14
12.8
9.75
6.77
4.65
3.71
3.63
3.55
2.49
-0.24
-4.84
-11.12
-18.83
-27.85
-38.19
-49.78
-62.21
-74.69
-86.28
-96.25
-104.4
-111.19
-117.46
-124.07
-131.49
-139.53
-147.4
-153.91
-157.9
-158.55
-155.71
-149.95
-142.38
-134.41
-127.24
-121.6
-117.6
-114.9
-112.96
-111.41
-110.16
-109.39
-109.32
-109.93
-110.89
-111.58
-111.33
-109.72
-106.74
-102.72
-97.94
-92.5
-86.0
-77.7
-66.82
-52.8
-35.45
-14.88
8.34
33.15
57.72
79.64
96.36
106.01
108.18
104.09
96.04
86.46
77.04
68.36
60.24
52.33
44.51
36.89
29.46
21.88
13.67
4.67
-4.41
-11.92
-15.79
-14.33
-6.92
5.61
21.27
37.53
52.11
63.51
71.24
75.78
78.39
80.73
84.56
91.27
101.32
113.78
126.21
135.14
137.11
129.95
113.77
91.09
66.03
42.73
23.99
10.55
1.36
-5.49
-11.67
-18.2
-25.54
-33.99
-43.84
-55.11
-67.07
-78.04
-85.86
-88.81
-86.55
-80.32
-72.41
-65.08
-59.65
-56.25
-54.27
-53.02
-52.28
-52.12
-52.59
-53.27
-53.24
-51.42
-46.99
-39.77
-30.07
-18.68
-6.53
5.56
17.02
27.71
37.88
47.94
58.11
68.11
77.17
84.32
88.95
91.09
91.56
91.58
92.26
94.28
97.84
102.84
109.03
116.05
123.37
130.2
135.57
138.5
138.19
134.12
126.09
114.37
99.78
83.61
67.4
52.49
39.57
28.51
18.62
9.2
-0.07
-9.01
-17.25
-24.71
-31.66
-38.37
-44.59
-49.13
-50.09
-45.71
-35.33
-19.94
-2.1
14.89
27.89
34.66
34.23
26.81
13.65
-3.1
-20.53
-35.4
-44.87
-47.32
-43.05
-34.3
-24.63
-17.79
-16.53
-21.77
-32.53
-46.47
-60.7
-72.75
-81.21
-86.0
-88.2
-89.62
-92.21
-97.41
-105.5
-115.12
-123.46
-126.91
-122.22
-107.9
-84.89
-56.48
-27.2
-1.28
18.63
31.8
38.95
41.15
39.15
33.48
25.25
16.73
11.25
12.18
21.48
38.72
61.18
84.86
105.88
121.6
130.94
134.03
131.61
124.65
114.09
100.89
85.86
69.64
52.72
35.74
19.72
5.95
-4.55
-11.82
-17.24
-23.29
-32.44
-46.0
-63.39
-82.27
-99.54
-112.54
-119.91
-122.03
-120.88
-119.68
-122.32
-132.41
-151.92
-179.75
-211.19
-238.85
-255.03
-254.78
-238.0
-209.45
-176.69
-146.86
-124.19
-109.08
-99.05
-90.57
-80.4
-66.14
-46.08
-19.06
15.14
55.22
97.81
137.94
170.36
191.33
199.97
198.5
191.23
182.78
176.4
173.15
172.1
171.35
169.17
164.76
158.28
150.48
142.16
133.92
126.15
119.08
112.72
106.69
100.12
91.94
81.49
68.97
55.48
42.65
31.89
23.78
17.94
13.32
8.83
3.89
-1.34
-6.03
-9.15
-10.17
-9.62
-9.42
-12.62
-22.47
-41.15
-68.61
-102.13
-136.86
-167.07
-187.68
-195.39
-189.11
-169.88
-140.34
-104.19
-65.67
-29.05
1.83
24.15
36.35
38.49
32.04
19.66
4.44
-10.7
-23.64
-33.27
-39.41
-42.48
-43.25
-42.62
-41.5
-40.81
-41.25
-43.18
-46.42
-50.38
-54.27
-57.39
-59.27
-59.56
-57.87
-53.71
-46.69
-36.85
-24.88
-12.17
-0.35
9.2
15.84
19.88
22.48
25.23
29.69
36.88
46.89
58.74
70.56
80.16
85.79
87.11
85.52
83.86
85.52
93.2
108.05
129.29
154.44
179.8
201.05
213.71
213.77
198.58
167.52
122.51
67.73
8.68
-48.85
-99.81
-140.33
-167.93
-181.7
-182.47
-173.07
-158.11
-143.0
-132.58
-129.62
-133.96
-142.74
-151.57
-156.23
-154.06
-144.67
-129.65
-111.78
-94.05
-78.82
-67.58
-61.1
-59.62
-63.05
-70.79
-81.56
-93.19
-102.9
-107.88
-106.0
-96.38
-79.59
-57.43
-32.32
-6.68
17.58
39.19
57.52
72.29
83.4
90.83
94.72
95.45
93.82
90.99
88.27
86.77
86.95
88.57
90.68
92.05
91.57
88.65
83.34
76.18
68.03
59.72
51.85
44.68
38.17
32.03
25.91
19.42
12.22
4.12
-4.9
-14.5
-23.92
-31.96
-37.19
-38.36
-34.72
-26.36
-14.16
0.41
15.8
30.71
44.28
55.99
65.48
72.34
76.12
76.58
73.88
68.71
62.2
55.52
49.6
44.78
40.91
37.54
34.28
31.04
28.12
26.01
25.17
25.79
27.64
30.13
32.27
32.78
30.37
23.85
12.62
-3.1
-22.16
-42.61
-62.17
-78.72
-90.74
-97.47
-98.82
-95.11
-86.91
-74.98
-60.28
-43.93
-27.13
-10.91
4.01
17.35
29.14
39.58
48.81
56.76
63.19
67.82
70.45
71.09
69.99
67.66
64.85
62.34
60.87
60.88
62.45
65.29
68.88
72.73
76.47
79.86
82.74
84.81
85.68
84.99
82.55
78.45
73.04
66.71
59.7
51.97
43.27
33.32
21.98
9.42
-3.81
-16.78
-28.32
-37.18
-42.3
-43.14
-39.79
-33.0
-23.95
-13.97
-4.38
3.55
8.65
9.84
6.43
-1.45
-12.59
-24.62
-34.55
-39.55
-37.85
-29.37
-15.82
-0.36
13.08
20.69
19.72
9.22
-9.46
-32.78
-55.77
-73.43
-82.16
-80.72
-70.4
-54.27
-36.05
-19.0
-5.44
3.36
6.91
5.29
-0.85
-10.25
-21.07
-31.09
-38.23
-40.96
-38.64
-31.64
-21.2
-9.03
3.16
14.09
23.07
30.0
35.0
38.08
38.96
37.21
32.52
25.05
15.53
5.06
-5.29
-14.72
-22.91
-29.77
-35.24
-38.95
-40.29
-38.6
-33.59
-25.55
-15.46
-4.74
5.17
13.17
18.7
21.73
22.53
21.47
18.83
14.8
9.62
3.81
-1.77
-5.97
-7.61
-5.87
-0.53
7.84
18.16
29.08
39.45
48.59
56.27
62.5
67.39
70.92
73.0
73.63
73.13
72.2
71.76
72.74
75.71
80.67
87.08
93.93
100.15
104.79
107.24
107.37
105.54
102.68
100.19
99.82
103.31
112.01
126.46
146.15
169.32
193.07
213.63
227.19
230.82
223.35
205.93
181.59
154.23
127.26
102.54
80.0
58.1
34.66
7.48
-25.25
-64.57
-110.07
-159.06
-206.18
-244.22
-266.21
-268.08
-250.59
-219.13
-181.72
-145.85
-116.09
-93.25
-75.43
-59.77
-43.95
-26.78
-7.81
13.01
35.58
59.36
83.17
105.28
123.89
137.57
145.71
148.64
147.31
143.09
137.38
131.34
125.59
120.11
114.38
107.85
100.54
93.3
87.54
84.44
83.97
84.42
82.9
76.54
63.75
44.84
21.67
-3.37
-28.4
-52.4
-75.09
-96.38
-116.17
-134.42
-151.38
-167.53
-183.08
-197.17
-207.58
-211.06
-204.61
-187.01
-160.08
-128.68
-99.62
-79.72
-73.86
-83.75
-107.72
-141.26
-177.92
-210.28
-231.31
-235.97
-222.91
-195.43
-160.9
-128.58
-106.26
-97.44
-100.28
-108.84
-115.99
-116.28
-107.37
-89.78
-65.4
-36.11
-3.46
30.89
64.53
94.51
118.34
135.13
145.98
153.22
158.76
162.61
162.6
155.65
139.82
115.77
86.82
57.46
31.2
9.29
-9.37
-27.24
-47.17
-71.72
-102.59
-139.65
-179.91
-217.04
-242.76
-249.9
-236.01
-205.28
-167.42
-133.42
-110.58
-99.52
-94.73
-88.21
-73.81
-49.99
-19.9
10.44
34.4
46.33
42.4
21.38
-14.68
-60.17
-106.47
-143.75
-163.58
-161.12
-136.27
-93.19
-38.85
18.91
72.96
118.03
151.41
173.04
185.02
190.6
192.97
194.26
195.15
195.08
192.95
187.57
178.34
165.34
149.51
132.5
116.37
102.81
92.22
83.11
72.37
56.38
32.71
1.43
-34.54
-70.26
-100.43
-121.04
-130.31
-128.8
-118.83
-103.7
-86.99
-72.01
-61.45
-56.86
-58.38
-64.6
-72.87
-80.07
-83.45
-81.43
-73.89
-62.25
-48.88
-36.36
-26.64
-20.54
-17.64
-16.55
-15.54
-13.2
-8.91
-2.87
3.92
10.09
14.25
15.47
13.69
10.05
6.81
6.79
12.32
23.93
39.62
54.95
64.44
63.53
50.55
27.58
-0.17
-26.08
-44.39
-52.1
-49.67
-40.55
-29.73
-21.93
-20.16
-24.99
-34.76
-46.32
-56.11
-61.18
-59.87
-52.1
-39.28
-23.9
-8.94
2.94
10.07
12.17
10.22
6.09
1.85
-0.92
-1.35
0.54
4.11
8.34
12.16
14.78
15.9
15.77
15.11
14.8
15.59
17.91
21.81
27.03
33.14
39.59
45.88
51.69
57.02
62.22
67.86
74.6
82.96
93.33
105.84
120.15
135.05
148.33
156.95
157.77
148.54
128.6
98.63
59.95
13.59
-39.55
-97.69
-156.85
-210.36
-250.18
-269.57
-265.95
-242.18
-205.49
-164.42
-125.62
-91.96
-62.85
-36.0
-9.73
15.71
38.22
54.82
62.67
59.62
44.33
16.72
-21.25
-64.95
-107.05
-138.88
-153.0
-145.8
-119.02
-79.26
-35.52
3.85
33.72
52.99
63.69
68.95
71.24
71.49
69.5
64.88
57.81
49.28
40.59
32.65
25.5
18.63
11.71
5.23
0.39
-1.68
-0.84
1.7
3.8
3.54
0.28
-4.98
-10.08
-12.67
-11.28
-5.91
2.08
10.38
16.55
18.92
17.14
12.3
6.47
1.85
-0.17
0.56
3.03
5.65
7.0
6.19
3.07
-2.0
-8.39
-15.34
-22.05
-27.85
-32.33
-35.54
-38.04
-40.78
-44.89
-51.3
-60.43
-72.0
-84.88
-97.3
-107.33
-113.58
-115.8
-115.05
-113.34
-112.81
-114.8
-119.38
-125.4
-131.02
-134.43
-134.31
-129.94
-121.06
-107.83
-90.83
-71.13
-50.27
-29.91
-11.38
4.69
18.41
30.37
41.19
51.15
60.15
67.9
74.24
79.16
82.87
85.54
87.3
88.21
88.39
88.01
87.44
87.04
87.14
87.83
88.93
89.94
90.18
88.93
85.74
80.58
73.89
66.47
59.15
52.57
47.0
42.41
38.57
35.15
31.78
28.06
23.62
18.23
11.91
4.99
-1.97
-8.42
-14.07
-19.04
-23.86
-29.25
-35.78
-43.57
-52.18
-60.59
-67.55
-71.76
-72.23
-68.44
-60.46
-48.96
-35.09
-20.27
-5.94
6.86
17.65
26.46
33.63
39.49
44.13
47.4
49.14
49.39
48.55
47.26
46.24
46.04
46.91
48.87
51.7
55.02
58.29
60.84
62.02
61.28
58.33
53.25
46.49
38.71
30.76
23.42
17.36
12.96
10.28
9.08
8.81
8.82
8.48
7.3
5.08
1.85
-2.15
-6.6
-11.2
-15.71
-20.02
-24.09
-28.01
-32.0
-36.39
-41.57
-47.74
-54.68
-61.6
-67.12
-69.67
-67.89
-61.22
-50.1
-35.84
-20.26
-5.09
8.37
19.49
28.24
34.92
40.01
43.96
47.16
49.86
52.24
54.35
56.17
57.62
58.7
59.44
60.01
60.65
61.6
63.0
64.83
66.82
68.57
69.62
69.65
68.59
66.58
63.9
60.85
57.71
54.77
52.26
50.44
49.49
49.42
50.0
50.88
51.7
52.19
52.22
51.8
50.93
49.62
47.92
45.87
43.66
41.42
39.01
35.99
31.58
25.07
16.23
5.65
-5.34
-14.94
-21.52
-24.08
-22.54
-17.63
-10.54
-2.53
5.42
12.69
18.97
24.0
27.49
29.08
28.46
25.53
20.59
14.29
7.57
1.44
-3.29
-6.11
-6.78
-5.4
-2.27
2.08
6.94
11.54
15.14
17.22
17.53
16.16
13.43
9.86
6.0
2.4
-0.6
-2.9
-4.69
-6.45
-8.73
-11.91
-16.01
-20.59
-25.0
-28.64
-31.37
-33.59
-36.11
-39.76
-44.92
-51.16
-57.28
-61.66
-62.85
-60.14
-53.79
-44.89
-34.9
-25.18
-16.56
-9.36
-3.51
1.14
4.68
7.09
8.34
8.46
7.62
5.98
3.72
1.0
-1.98
-4.92
-7.39
-8.96
-9.27
-8.17
-5.81
-2.57
0.99
4.28
6.83
8.46
9.33
9.82
10.39
11.31
12.56
13.79
14.49
14.13
12.43
9.4
5.37
0.91
-3.3
-6.61
-8.56
-9.02
-8.33
-7.21
-6.6
-7.22
-9.3
-12.39
-15.51
-17.48
-17.4
-14.89
-10.15
-3.82
3.39
10.87
18.16
24.96
31.07
36.34
40.68
44.04
46.34
47.43
47.1
45.22
41.93
37.73
33.39
29.6
26.73
24.62
22.68
20.17
16.44
11.23
4.68
-2.61
-9.62
-15.02
-17.46
-15.97
-10.3
-1.09
10.35
22.37
33.57
43.03
50.47
56.07
60.38
64.22
68.52
74.15
81.59
90.71
100.71
110.36
118.51
124.49
128.32
130.65
132.52
135.16
139.88
147.83
159.75
175.64
194.58
214.81
234.01
249.73
259.76
262.49
257.1
243.68
223.44
198.35
170.83
142.96
115.9
89.52
62.56
33.07
-0.99
-40.95
-86.61
-135.71
-183.88
-225.72
-256.45
-273.61
-277.9
-272.68
-262.32
-250.46
-238.82
-227.15
-214.13
-198.41
-179.44
-157.62
-134.12
-110.47
-88.15
-68.28
-51.3
-37.0
-24.68
-13.9
-4.76
2.01
5.53
5.41
2.02
-3.55
-10.01
-16.19
-21.17
-24.08
-24.0
-20.16
-12.37
-1.37
11.33
23.97
35.28
44.87
53.2
60.95
68.42
75.31
80.96
84.91
87.13
87.86
87.24
84.95
80.31
72.86
62.91
51.72
41.08
32.4
25.95
20.69
14.81
6.69
-4.47
-18.34
-34.13
-51.21
-69.58
-89.73
-111.9
-135.32
-157.83
-176.25
-187.26
-188.42
-178.96
-159.98
-134.1
-104.92
-76.22
-51.35
-32.66
-21.2
-16.65
-17.7
-22.58
-29.67
-37.78
-46.07
-53.68
-59.43
-61.79
-59.38
-51.41
-38.04
-20.27
0.49
22.8
45.25
66.15
83.43
94.73
98.09
92.72
79.58
61.18
40.71
20.85
2.89
-13.64
-30.54
-50.05
-73.82
-102.29
-134.4
-167.84
-199.73
-227.33
-248.57
-262.24
-268.06
-266.42
-258.36
-245.67
-230.87
-217.13
-207.54
-204.11
-206.76
-213.04
-218.86
-219.99
-213.51
-198.55
-176.0
-147.65
-115.32
-80.7
-45.56
-12.16
16.86
39.22
54.04
62.54
67.79
73.4
81.78
92.98
104.67
113.35
116.24
112.79
105.02
96.75
91.94
93.1
100.64
113.26
128.91
145.82
162.91
179.64
195.73
210.86
224.72
237.09
247.84
256.9
263.91
268.06
268.11
262.55
250.03
229.87
202.26
168.26
129.27
86.36
39.62
-11.54
-67.33
-125.99
-182.91
-230.95
-262.38
-271.66
-257.88
-225.64
-183.98
-143.74
-114.5
-101.94
-106.8
-125.32
-150.97
-176.61
-196.26
-206.08
-204.39
-191.09
-167.11
-134.09
-94.55
-52.0
-10.62
25.73
54.63
75.8
90.97
102.78
113.35
123.18
131.18
135.56
135.21
130.61
123.93
118.09
115.41
116.58
120.56
125.42
129.41
131.71
132.41
131.76
129.51
124.73
116.49
104.81
91.17
78.15
68.27
62.63
60.29
58.6
54.52
45.9
32.1
13.86
-7.44
-30.6
-54.72
-79.01
-102.41
-123.49
-140.87
-153.89
-163.07
-169.98
-176.54
-183.77
-190.65
-193.79
-188.15
-169.03
-134.32
-86.13
-30.87
22.33
64.32
88.42
91.79
75.51
43.73
2.94
-38.67
-72.0
-88.57
-82.85
-54.48
-9.15
42.91
90.15
123.38
138.02
134.25
115.32
85.36
48.01
6.27
-36.97
-78.56
-115.42
-145.55
-168.71
-186.54
-201.49
-215.52
-228.94
-240.32
-247.1
-246.8
-238.03
-220.94
-196.85
-167.75
-135.68
-102.4
-69.33
-37.52
-7.73
19.58
44.16
65.85
84.37
99.31
110.27
117.14
120.32
120.72
119.53
117.92
116.7
116.2
116.34
116.8
117.16
117.09
116.43
115.16
113.46
111.45
109.08
106.01
101.75
95.77
87.87
78.33
68.0
58.08
49.79
44.02
41.04
40.42
41.16
42.07
42.15
41.03
39.0
36.87
35.43
34.99
35.07
34.55
32.21
27.34
20.14
11.67
3.33
-3.98
-10.48
-17.63
-27.64
-42.35
-62.24
-85.82
-109.71
-129.59
-141.62
-143.7
-136.03
-121.37
-104.67
-92.29
-90.52
-103.45
-130.82
-166.85
-201.15
-222.13
-221.48
-198.01
-158.66
-115.87
-82.78
-68.26
-74.28
-96.44
-126.9
-157.74
-183.29
-200.59
-208.75
-208.1
-199.66
-185.19
-167.22
-148.92
-133.4
-122.63
-116.76
-113.89
-110.73
-103.72
-90.42
-70.44
-45.56
-19.0
5.92
26.9
43.42
56.45
67.71
78.63
89.61
100.0
108.6
114.29
116.66
116.18
114.01
111.56
110.12
110.53
112.97
116.96
121.52
125.45
127.68
127.6
125.13
120.71
115.01
108.74
102.44
96.52
91.27
86.85
83.28
80.34
77.66
74.92
72.05
69.28
67.07
65.84
65.62
66.0
66.25
65.7
64.21
62.4
61.59
63.35
69.01
79.11
93.22
110.03
127.74
144.4
158.3
168.14
173.1
172.99
168.29
160.28
150.76
141.62
134.3
129.3
126.1
123.66
121.01
117.77
114.19
110.82
107.93
105.07
101.17
94.98
85.74
73.59
59.59
45.28
32.01
20.45
10.55
1.72
-6.67
-14.95
-23.12
-31.02
-38.71
-46.51
-54.92
-64.31
-74.65
-85.57
-96.51
-107.13
-117.42
-127.58
-137.76
-147.76
-156.84
-163.84
-167.44
-166.41
-159.88
-147.57
-129.9
-107.99
-83.54
-58.49
-34.66
-13.33
4.8
19.56
31.04
39.35
44.57
46.86
46.7
44.97
42.82
41.28
40.99
41.95
43.56
45.04
45.72
45.37
44.2
42.68
41.3
40.32
39.77
39.56
39.62
40.03
41.06
43.01
46.06
50.11
54.78
59.46
63.49
66.4
68.08
68.71
68.67
68.3
67.71
66.67
64.64
60.98
55.13
46.91
36.71
25.5
14.69
5.81
0.11
-1.73
0.18
5.05
11.64
18.61
24.79
29.36
31.95
32.49
31.19
28.44
24.69
20.41
15.98
11.68
7.67
4.04
0.96
-1.34
-2.58
-2.55
-1.3
0.72
2.74
3.83
3.15
0.27
-4.79
-11.54
-19.26
-27.2
-34.83
-41.93
-48.59
-55.06
-61.61
-68.39
-75.36
-82.32
-89.07
-95.56
-102.02
-108.99
-117.15
-127.01
-138.59
-151.15
-163.37
-173.61
-180.51
-183.54
-183.19
-180.96
-179.05
-179.92
-185.55
-196.87
-213.03
-231.23
-247.15
-256.05
-254.29
-240.53
-216.08
-184.26
-148.92
-113.12
-78.27
-44.36
-10.88
22.2
54.06
83.17
108.11
128.09
143.2
154.04
161.16
164.78
164.82
161.35
155.05
147.29
139.75
133.73
129.67
127.01
124.59
121.12
115.65
107.73
97.29
84.53
69.72
53.25
35.49
16.81
-2.43
-21.83
-40.69
-57.86
-71.77
-80.78
-83.69
-80.19
-70.95
-57.31
-40.89
-23.09
-5.07
12.22
27.79
40.64
49.89
55.14
56.64
55.32
52.51
49.56
47.45
46.66
47.21
48.81
51.04
53.5
55.82
57.68
58.82
59.08
58.48
57.29
55.97
54.99
54.69
55.09
55.92
56.65
56.75
55.77
53.51
50.01
45.52
40.48
35.33
30.44
25.89
21.44
16.59
10.67
3.15
-6.2
-17.22
-29.33
-41.75
-53.71
-64.7
-74.54
-83.2
-90.46
-95.7
-97.78
-95.46
-87.86
-75.14
-58.56
-40.23
-22.43
-6.89
5.56
15.03
22.2
27.87
32.71
37.2
41.7
46.5
51.91
58.08
65.05
72.65
80.56
88.35
95.5
101.43
105.56
107.39
106.58
103.05
97.08
89.28
80.51
71.69
63.52
56.29
49.77
43.32
36.19
27.87
18.42
8.46
-1.21
-9.97
-17.81
-25.31
-33.39
-42.8
-53.72
-65.63
-77.51
-88.11
-96.32
-101.34
-102.76
-100.54
-94.95
-86.55
-76.06
-64.36
-52.35
-40.88
-30.66
-22.18
-15.62
-10.82
-7.35
-4.7
-2.39
-0.23
1.75
3.4
4.67
5.78
7.14
9.21
12.23
16.06
20.22
24.15
27.35
29.58
30.76
30.95
30.21
28.57
26.12
23.0
19.3
15.04
10.18
4.66
-1.41
-7.67
-13.59
-18.71
-22.86
-26.22
-29.2
-32.26
-35.68
-39.49
-43.53
-47.48
-50.9
-53.17
-53.56
-51.41
-46.34
-38.37
-28.08
-16.26
-3.83
8.46
20.09
30.67
39.88
47.39
52.9
56.28
57.66
57.4
56.08
54.32
52.71
51.69
51.46
52.02
53.19
54.64
56.02
56.94
57.05
56.01
53.59
49.75
44.73
39.01
33.18
27.64
22.47
17.41
11.95
5.74
-1.23
-8.59
-15.67
-21.87
-26.85
-30.69
-33.81
-36.77
-40.11
-44.23
-49.25
-55.08
-61.25
-67.07
-71.53
-73.62
-72.47
-67.74
-59.71
-49.3
-37.81
-26.51
-16.44
-8.17
-1.89
2.48
5.13
6.29
6.25
5.36
4.12
3.09
2.99
4.51
8.19
14.19
22.22
31.54
41.18
50.28
58.25
64.83
69.97
73.54
75.32
75.08
72.8
68.81
63.77
58.37
53.0
47.61
41.76
35.02
27.38
19.4
12.08
6.39
2.78
0.86
-0.46
-2.57
-6.63
-13.23
-22.21
-32.79
-43.74
-53.62
-61.05
-64.96
-64.93
-61.24
-54.79
-46.73
-38.04
-29.32
-20.72
-12.27
-4.06
3.63
10.41
15.85
19.6
21.33
20.82
17.97
13.09
6.95
0.6
-4.85
-8.68
-10.71
-11.24
-10.8
-9.9
-9.03
-8.69
-9.54
-12.3
-17.54
-25.38
-35.44
-46.91
-58.95
-70.91
-82.56
-93.92
-104.89
-114.98
-123.12
-127.91
-128.15
-123.37
-114.13
-101.87
-88.45
-75.47
-63.92
-54.19
-46.4
-40.66
-37.17
-35.9
-36.25
-36.84
-35.84
-31.59
-23.35
-11.63
1.94
15.27
26.53
34.84
40.34
43.95
46.7
49.29
51.8
53.91
55.25
55.74
55.8
56.1
57.17
59.12
61.58
63.93
65.61
66.36
66.2
65.3
63.8
61.66
58.79
55.12
50.71
45.76
40.52
35.26
30.19
25.5
21.33
17.78
14.84
12.43
10.35
8.36
6.22
3.71
0.63
-3.13
-7.48
-12.08
-16.3
-19.28
-20.21
-18.57
-14.38
-8.16
-0.78
6.9
14.23
20.9
26.75
31.65
35.35
37.53
38.01
36.94
34.93
32.87
31.74
32.23
34.58
38.51
43.36
48.31
52.67
56.03
58.33
59.83
60.81
61.44
61.7
61.4
60.33
58.42
55.82
52.88
50.1
47.95
46.74
46.53
47.07
47.86
48.22
47.54
45.52
42.24
38.12
33.7
29.5
25.85
22.98
21.15
20.65
21.76
24.57
28.81
33.88
38.99
43.38
46.52
48.09
47.94
45.87
41.63
35.0
26.01
15.19
3.59
-7.34
-16.32
-22.65
-26.57
-29.13
-31.76
-35.66
-41.33
-48.37
-55.75
-62.23
-67.0
-69.91
-71.39
-72.1
-72.34
-71.92
-70.31
-67.08
-62.41
-57.18
-52.74
-50.18
-49.8
-51.0
-52.64
-53.69
-53.75
-53.17
-52.76
-53.42
-55.89
-60.53
-67.35
-75.88
-85.15
-93.69
-99.91
-102.56
-101.15
-96.1
-88.49
-79.51
-70.03
-60.38
-50.5
-40.34
-30.14
-20.44
-11.9
-4.91
0.48
4.57
7.71
10.14
12.0
13.4
14.73
16.66
19.92
24.84
31.1
37.65
43.13
46.39
46.97
45.18
41.9
38.05
34.33
31.09
28.4
26.15
24.18
22.29
20.31
18.07
15.66
13.38
11.72
11.19
12.12
14.53
18.04
22.02
25.71
28.5
30.13
30.87
31.47
33.06
36.77
43.4
53.15
65.46
79.12
92.47
103.73
111.43
114.71
113.59
108.96
102.36
95.57
90.05
86.58
85.23
85.55
86.87
88.65
90.55
92.3
93.55
93.92
93.13
91.28
89.01
87.36
87.34
89.35
92.83
96.28
97.99
96.77
92.64
86.91
81.66
78.81
79.39
83.13
88.88
95.15
100.75
105.05
107.79
108.8
107.72
104.08
97.68
88.69
77.65
65.08
50.64
32.9
10.3
-17.07
-45.74
-68.89
-78.68
-70.32
-45.3
-11.69
19.07
37.22
38.55
25.28
3.26
-21.86
-47.15
-72.1
-96.48
-118.4
-134.58
-142.35
-142.04
-137.46
-134.07
-136.0
-143.96
-155.1
-164.73
-168.9
-166.25
-158.28
-148.37
-140.29
-136.74
-138.61
-144.99
-153.62
-161.7
-166.66
-166.9
-162.08
-152.87
-140.52
-126.23
-110.7
-94.04
-76.02
-56.43
-35.47
-13.78
7.59
27.57
45.34
60.57
73.34
83.94
92.48
98.71
102.08
102.07
98.61
92.18
83.67
73.87
63.15
51.33
38.04
23.21
7.61
-6.97
-18.22
-24.11
-23.88
-18.37
-9.86
-1.28
4.81
6.95
4.97
-0.33
-7.8
-16.67
-26.93
-39.5
-56.33
-80.04
-113.6
-158.95
-215.24
-277.48
-336.31
-379.78
-396.66
-380.28
-331.54
-259.55
-179.62
-109.39
-64.37
-54.34
-81.41
-140.06
-218.72
-302.52
-376.8
-430.25
-457.21
-458.2
-438.73
-406.81
-370.5
-336.07
-307.17
-285.2
-269.77
-259.36
-251.76
-244.12
-233.78
-218.97
-199.52
-176.86
-153.44
-131.6
-112.62
-96.18
-80.59
-63.58
-43.2
-18.68
9.14
37.79
63.68
83.16
93.67
94.74
88.25
77.88
67.88
61.68
61.0
65.68
74.21
84.69
95.48
105.46
113.98
120.56
124.76
126.19
124.75
120.79
115.13
109.03
103.88
100.88
100.74
103.51
108.63
115.15
122.1
128.68
134.41
139.04
142.43
144.37
144.68
143.25
140.2
135.9
130.92
125.85
121.15
117.01
113.38
109.97
106.34
102.0
96.56
89.68
81.28
71.51
60.85
50.09
40.31
32.67
28.26
27.83
31.57
39.05
49.23
60.75
72.17
82.3
90.35
95.95
99.1
100.03
99.1
96.78
93.61
90.21
87.28
85.42
85.05
86.21
88.57
91.51
94.38
96.65
98.11
98.77
98.76
98.19
97.02
95.09
92.19
88.16
82.92
76.58
69.4
61.86
54.53
47.94
42.29
37.29
32.22
26.19
18.68
9.84
0.68
-7.33
-12.77
-14.86
-13.7
-10.11
-5.32
-0.41
3.86
7.28
10.07
12.66
15.56
19.01
22.76
25.96
27.26
25.27
19.09
8.82
-4.3
-18.16
-30.38
-38.94
-42.66
-41.29
-35.32
-25.74
-13.74
-0.61
12.44
24.27
34.0
41.09
45.5
47.58
47.98
47.28
45.83
43.51
39.91
34.58
27.5
19.32
11.3
4.96
1.51
1.42
4.24
8.89
14.1
18.84
22.64
25.52
27.73
29.58
31.18
32.48
33.28
33.31
32.4
30.51
27.82
24.79
21.97
19.95
19.17
19.75
21.5
23.92
26.46
28.56
29.9
30.39
30.12
29.23
27.87
26.08
23.86
21.17
17.98
14.23
9.8
4.64
-1.18
-7.3
-13.04
-17.52
-19.87
-19.56
-16.54
-11.28
-4.63
2.42
8.96
14.35
18.23
20.52
21.34
20.9
19.45
17.25
14.57
11.73
9.03
6.73
5.0
3.87
3.26
2.98
2.82
2.56
2.03
1.13
-0.12
-1.61
-3.15
-4.59
-5.86
-7.09
-8.53
-10.46
-13.16
-16.71
-20.95
-25.45
-29.57
-32.51
-33.55
-32.28
-28.64
-23.03
-16.13
-8.74
-1.6
4.69
9.7
13.16
14.94
15.1
13.88
11.65
8.88
5.96
3.24
0.98
-0.71
-1.76
-2.27
-2.42
-2.49
-2.72
-3.25
-4.05
-4.99
-5.96
-6.92
-7.95
-9.17
-10.72
-12.65
-15.02
-17.89
-21.35
-25.4
-29.85
-34.19
-37.67
-39.52
-39.16
-36.46
-31.74
-25.7
-19.19
-12.98
-7.64
-3.48
-0.59
1.1
1.73
1.48
0.54
-0.89
-2.63
-4.49
-6.27
-7.8
-8.95
-9.61
-9.76
-9.48
-8.92
-8.28
-7.77
-7.54
-7.71
-8.32
-9.42
-10.98
-12.97
-15.31
-17.92
-20.74
-23.8
-27.1
-30.59
-34.04
-37.01
-38.89
-39.1
-37.18
-33.04
-26.94
-19.5
-11.55
-3.96
2.51
7.37
10.42
11.76
11.65
10.47
8.55
6.19
3.63
1.06
-1.3
-3.24
-4.57
-5.18
-5.05
-4.28
-3.07
-1.72
-0.56
0.1
0.03
-0.84
-2.42
-4.46
-6.65
-8.69
-10.43
-11.96
-13.54
-15.57
-18.31
-21.74
-25.42
-28.57
-30.24
-29.64
-26.44
-20.84
-13.58
-5.73
1.6
7.52
11.53
13.58
13.97
13.18
11.65
9.69
7.43
4.96
2.45
0.21
-1.34
-1.88
-1.3
0.24
2.35
4.54
6.37
7.54
7.88
7.41
6.3
4.85
3.48
2.52
2.1
2.03
1.81
0.77
-1.64
-5.63
-10.88
-16.61
-21.67
-25.03
-25.93
-24.13
-19.9
-13.87
-6.84
0.36
6.94
12.28
15.91
17.64
17.57
16.07
13.68
10.96
8.33
6.07
4.31
3.11
2.51
2.5
3.02
3.95
5.08
6.19
7.03
7.45
7.37
6.77
5.74
4.39
2.86
1.24
-0.44
-2.26
-4.35
-6.84
-9.75
-12.85
-15.66
-17.55
-17.85
-16.13
-12.34
-6.87
-0.44
6.15
12.16
17.1
20.75
23.04
24.04
23.86
22.67
20.72
18.37
16.0
14.0
12.65
12.11
12.38
13.32
14.71
16.21
17.47
18.17
18.15
17.41
16.15
14.69
13.29
12.08
10.98
9.75
8.1
5.83
2.91
-0.48
-3.94
-6.99
-9.04
-9.6
-8.33
-5.21
-0.55
5.05
10.83
16.1
20.34
23.29
24.88
25.16
24.28
22.51
20.16
17.65
15.32
13.43
12.09
11.29
10.96
11.0
11.31
11.8
12.35
12.84
13.2
13.45
13.64
13.84
14.05
14.15
14.01
13.44
12.35
10.77
8.81
6.7
4.73
3.18
2.35
2.55
4.04
7.02
11.51
17.31
23.91
30.53
36.33
40.67
43.31
44.6
45.26
46.19
48.03
50.92
54.42
57.79
60.38
62.05
63.33
65.29
69.1
75.47
84.28
94.61
105.08
114.41
121.86
127.43
131.83
136.51
143.67
156.16
176.68
206.53
244.27
285.34
323.05
350.84
364.67
364.44
353.54
336.95
318.89
301.44
284.62
267.5
249.5
230.98
212.91
196.08
180.63
166.0
151.51
136.86
122.31
108.57
96.3
85.72
76.38
67.37
57.6
46.28
33.07
18.14
1.95
-14.96
-32.21
-49.58
-66.93
-84.09
-100.87
-117.04
-132.47
-147.12
-161.23
-175.32
-190.28
-207.11
-226.46
-247.92
-269.57
-288.24
-300.4
-303.63
-297.64
-284.47
-267.58
-250.36
-234.92
-221.74
-210.4
-200.51
-192.39
-186.88
-184.7
-185.73
-188.81
-192.17
-194.05
-193.09
-188.36
-179.35
-165.93
-148.61
-128.77
-108.67
-91.13
-78.76
-73.3
-75.14
-83.26
-95.55
-109.27
-121.69
-130.53
-134.4
-132.82
-126.24
-115.78
-102.96
-89.48
-77.01
-66.95
-60.14
-56.65
-55.77
-56.25
-56.8
-56.55
-55.2
-52.83
-49.71
-45.9
-41.42
-36.36
-31.28
-27.11
-24.94
-25.44
-28.41
-32.84
-37.33
-40.7
-42.53
-43.2
-43.59
-44.53
-46.42
-49.14
-52.24
-55.2
-57.58
-58.97
-59.02
-57.4
-54.01
-49.21
-43.86
-39.16
-36.19
-35.47
-36.67
-38.59
-39.6
-38.23
-33.64
-25.96
-16.12
-5.53
4.33
12.25
17.41
19.45
18.46
15.03
10.16
5.15
1.25
-0.66
-0.35
1.75
4.79
7.82
10.15
11.47
11.88
11.75
11.53
11.5
11.64
11.59
10.78
8.72
5.29
0.93
-3.46
-6.73
-7.99
-6.87
-3.63
0.99
6.15
11.16
15.61
19.22
21.8
23.11
23.03
21.7
19.61
17.48
15.94
15.32
15.46
15.87
15.98
15.44
14.19
12.4
10.35
8.2
6.05
3.89
1.7
-0.5
-2.67
-4.78
-6.86
-8.98
-11.17
-13.39
-15.46
-17.16
-18.29
-18.77
-18.75
-18.55
-18.57
-19.15
-20.51
-22.68
-25.49
-28.57
-31.31
-32.93
-32.57
-29.49
-23.31
-14.19
-2.85
9.59
21.86
32.76
41.41
47.27
50.28
50.82
49.65
47.79
46.29
45.93
47.13
49.86
53.65
57.73
61.07
62.61
61.54
57.57
51.15
43.36
35.61
29.17
24.68
22.07
20.72
19.77
18.48
16.27
12.73
7.64
0.97
-6.92
-15.19
-22.65
-28.12
-30.97
-31.42
-30.63
-30.25
-31.81
-36.09
-42.84
-50.9
-58.6
-64.35
-67.05
-66.25
-62.11
-55.14
-46.02
-35.52
-24.47
-13.74
-4.1
3.83
9.79
13.81
16.13
17.07
16.96
16.11
14.97
14.09
13.94
14.65
15.73
16.16
14.75
10.9
5.01
-1.5
-6.75
-9.32
-8.8
-5.79
-1.34
3.82
9.68
16.68
24.99
33.99
42.18
47.76
49.57
47.66
43.23
38.0
33.43
30.17
27.94
25.85
22.85
18.01
10.82
1.4
-9.57
-20.81
-30.75
-37.84
-40.87
-39.2
-32.93
-22.81
-10.23
3.03
15.25
25.36
33.45
40.81
49.42
60.97
75.88
92.97
109.71
123.24
131.41
133.34
129.45
120.85
108.72
93.91
76.99
58.62
39.82
21.98
6.51
-5.61
-14.22
-20.02
-24.18
-27.74
-31.12
-34.08
-36.01
-36.47
-35.58
-34.05
-32.8
-32.49
-33.12
-34.0
-34.05
-32.29
-28.29
-22.31
-15.22
-8.18
-2.14
2.41
5.56
7.83
9.72
11.43
12.68
12.92
11.75
9.22
5.74
1.89
-1.99
-5.72
-9.05
-11.44
-12.14
-10.72
-7.77
-5.01
-4.64
-8.24
-15.66
-24.88
-32.81
-36.78
-35.75
-30.55
-23.23
-15.82
-9.48
-4.32
0.1
4.15
7.69
10.26
11.46
11.39
10.69
10.27
10.86
12.58
14.94
17.08
18.14
17.78
16.22
14.17
12.42
11.42
11.18
11.25
11.02
10.09
8.45
6.41
4.42
2.83
1.67
0.73
-0.37
-1.94
-4.04
-6.43
-8.71
-10.44
-11.43
-11.98
-12.83
-14.95
-19.21
-26.04
-35.15
-45.63
-56.11
-65.1
-71.25
-73.69
-72.09
-66.88
-59.14
-50.5
-42.73
-37.29
-34.89
-35.32
-37.54
-40.15
-41.94
-42.33
-41.48
-40.1
-38.97
-38.42
-38.04
-36.73
-33.06
-25.83
-14.5
0.65
18.68
38.23
57.79
75.78
90.66
101.1
106.29
106.26
102.07
95.51
88.61
83.01
79.49
78.04
78.2
79.45
81.53
84.59
88.96
94.85
102.02
109.56
115.96
119.37
118.12
111.2
98.58
81.17
60.44
37.99
15.29
-6.4
-25.99
-42.72
-56.37
-67.56
-77.63
-88.15
-100.03
-112.87
-124.92
-133.73
-137.27
-134.88
-127.67
-117.97
-108.28
-100.18
-93.87
-88.33
-82.11
-74.2
-64.58
-54.16
-44.26
-36.05
-30.03
-26.01
-23.3
-21.09
-18.7
-15.69
-11.9
-7.37
-2.27
3.22
8.92
14.72
20.55
26.34
31.87
36.8
40.67
42.99
43.38
41.72
38.24
33.47
28.2
23.16
18.73
14.76
10.69
5.84
-0.11
-6.83
-13.41
-18.71
-21.89
-22.8
-22.06
-20.81
-20.31
-21.62
-25.25
-31.11
-38.51
-46.23
-52.82
-56.9
-57.5
-54.35
-47.91
-39.18
-29.37
-19.48
-10.18
-1.74
5.76
12.32
17.89
22.49
26.24
29.41
32.31
35.12
37.76
39.88
40.96
40.58
38.62
35.43
31.81
28.83
27.52
28.53
31.89
37.01
42.94
48.7
53.51
56.91
58.57
58.05
54.85
48.56
39.17
27.32
14.29
1.62
-9.38
-17.98
-24.19
-28.58
-31.91
-34.85
-37.77
-40.75
-43.67
-46.41
-48.96
-51.57
-54.68
-58.79
-64.16
-70.44
-76.45
-80.34
-80.01
-73.85
-61.39
-43.5
-22.19
-0.01
20.7
38.29
52.0
61.9
68.59
72.9
75.6
77.22
77.97
77.81
76.61
74.32
71.09
67.21
62.97
58.5
53.67
48.27
42.16
35.47
28.69
22.42
17.21
13.28
10.44
8.15
5.72
2.56
-1.6
-6.69
-12.29
-17.78
-22.58
-26.3
-28.91
-30.76
-32.46
-34.76
-38.15
-42.71
-47.92
-52.73
-55.83
-55.96
-52.38
-45.25
-35.74
-25.89
-17.92
-13.47
-12.94
-15.33
-18.55
-20.34
-19.1
-14.41
-6.87
2.5
12.88
24.05
36.21
49.44
63.24
76.27
86.68
92.52
92.4
86.02
74.46
60.21
46.68
37.38
34.73
39.09
48.44
59.08
67.1
69.98
67.54
61.63
54.95
49.52
45.89
43.22
40.2
36.06
31.04
26.12
22.26
19.66
17.5
14.36
9.03
1.16
-8.42
-18.15
-26.5
-32.64
-36.72
-39.66
-42.5
-45.77
-49.31
-52.45
-54.55
-55.46
-55.6
-55.72
-56.43
-57.81
-59.26
-59.77
-58.27
-54.16
-47.59
-39.48
-31.18
-24.02
-18.76
-15.47
-13.63
-12.57
-11.98
-12.01
-13.14
-15.8
-19.96
-25.09
-30.31
-34.83
-38.29
-40.88
-43.06
-45.34
-47.84
-50.3
-52.12
-52.73
-51.91
-49.88
-47.29
-44.92
-43.37
-42.8
-42.82
-42.61
-41.15
-37.57
-31.26
-22.05
-10.29
3.14
16.9
29.28
38.55
43.43
43.46
39.32
32.65
25.66
20.53
18.83
21.15
27.14
35.73
45.48
54.98
63.17
69.43
73.56
75.63
75.83
74.41
71.66
68.06
64.26
61.01
58.95
58.46
59.48
61.57
64.17
66.79
69.12
71.06
72.57
73.66
74.27
74.44
74.21
73.68
72.64
70.65
66.96
60.76
51.52
39.25
24.65
8.86
-6.86
-21.51
-34.63
-46.3
-56.97
-67.09
-76.79
-85.6
-92.46
-95.99
-94.94
-88.65
-77.46
-62.65
-46.17
-30.14
-16.39
-6.14
-0.0
1.93
-0.26
-6.49
-16.75
-31.06
-49.3
-71.04
-95.39
-120.93
-145.77
-167.74
-184.83
-195.69
-200.01
-198.62
-193.24
-185.82
-177.92
-170.37
-163.29
-156.57
-150.28
-144.84
-140.78
-138.31
-137.07
-136.27
-135.0
-132.66
-129.1
-124.45
-118.89
-112.52
-105.43
-97.91
-90.46
-83.71
-77.94
-72.87
-67.58
-60.71
-51.03
-37.84
-21.22
-2.01
18.45
38.64
57.23
73.26
86.2
95.96
102.74
106.94
109.03
109.53
108.88
107.5
105.76
104.02
102.55
101.49
100.8
100.2
99.28
97.66
95.18
91.91
88.11
83.97
79.49
74.38
68.25
60.77
51.8
41.47
30.07
18.03
5.74
-6.35
-17.9
-28.7
-38.81
-48.47
-58.0
-67.53
-76.73
-84.78
-90.48
-92.55
-89.94
-82.2
-69.6
-53.2
-34.66
-15.93
1.15
15.26
25.79
32.82
36.86
38.62
38.84
38.17
37.24
36.67
37.02
38.57
41.26
44.7
48.29
51.42
53.69
54.93
55.17
54.52
53.08
50.91
48.05
44.61
40.86
37.17
33.95
31.51
29.94
29.07
28.56
28.07
27.27
25.94
23.82
20.66
16.18
10.32
3.35
-3.98
-10.59
-15.39
-17.51
-16.59
-12.78
-6.57
1.4
10.46
19.97
29.28
37.8
45.02
50.67
54.71
57.3
58.72
59.29
59.28
58.96
58.59
58.36
58.41
58.74
59.25
59.78
60.17
60.31
60.08
59.34
57.95
55.78
52.8
49.12
44.98
40.71
36.63
32.94
29.61
26.35
22.67
17.99
11.82
3.94
-5.42
-15.49
-25.04
-32.64
-37.01
-37.42
-33.85
-27.06
-18.23
-8.72
0.36
8.23
14.51
18.99
21.61
22.34
21.31
18.81
15.43
11.86
8.79
6.7
5.67
5.47
5.67
5.83
5.75
5.53
5.5
6.02
7.31
9.31
11.67
13.92
15.64
16.6
16.78
16.41
15.94
15.97
17.17
20.07
24.8
30.81
36.93
41.7
43.9
43.23
40.56
37.71
36.96
40.22
48.5
61.65
78.51
97.28
115.96
132.66
145.91
154.75
158.76
158.08
153.3
145.3
135.08
123.6
111.59
99.44
87.16
74.52
61.34
47.75
34.36
22.17
12.28
5.5
2.08
1.57
2.89
4.73
5.78
5.27
3.15
0.16
-2.49
-3.58
-2.54
0.23
3.35
4.92
3.15
-3.05
-13.62
-27.36
-42.12
-55.34
-64.67
-68.59
-66.83
-60.4
-51.13
-41.02
-31.54
-23.41
-16.56
-10.5
-4.65
1.46
8.04
14.99
21.86
28.02
32.88
36.19
38.19
39.5
40.64
41.8
42.59
42.28
40.25
36.36
31.05
25.2
19.67
15.09
11.63
9.03
6.62
3.5
-1.31
-8.57
-18.7
-31.64
-46.95
-64.01
-82.07
-100.22
-117.28
-131.71
-141.78
-145.93
-143.36
-134.34
-120.27
-103.35
-86.0
-70.29
-57.58
-48.38
-42.41
-38.84
-36.54
-34.34
-31.35
-27.03
-21.47
-15.22
-9.17
-4.19
-0.9
0.52
0.29
-1.14
-3.24
-5.62
-8.08
-10.63
-13.3
-16.08
-18.79
-21.12
-22.75
-23.52
-23.57
-23.33
-23.34
-24.0
-25.45
-27.4
-29.36
-30.83
-31.62
-31.88
-32.04
-32.6
-33.83
-35.6
-37.34
-38.13
-37.04
-33.27
-26.46
-16.72
-4.63
8.84
22.45
34.94
45.17
52.41
56.52
57.95
57.65
56.82
56.68
58.15
61.65
66.8
72.38
76.39
76.7
71.81
61.67
47.93
33.32
20.57
11.24
5.19
0.97
-3.15
-8.05
-13.32
-17.56
-19.3
-17.87
-13.76
-8.26
-2.85
1.46
4.36
6.17
7.5
9.03
11.33
14.83
19.8
26.23
33.72
41.31
47.59
50.93
50.15
45.06
36.77
27.49
19.77
15.6
15.75
19.78
26.55
35.08
45.06
56.89
71.06
87.46
104.9
121.15
133.37
138.72
135.09
121.71
99.66
71.99
43.27
18.39
1.06
-7.42
-8.52
-5.66
-2.71
-2.65
-6.87
-15.46
-27.78
-43.03
-60.31
-78.41
-95.71
-110.49
-121.45
-128.15
-131.13
-131.53
-130.53
-128.94
-127.09
-124.94
-122.33
-119.12
-115.13
-110.32
-104.69
-98.43
-91.83
-85.28
-79.14
-73.74
-69.22
-65.39
-61.68
-57.12
-50.66
-41.52
-29.61
-15.78
-1.6
11.09
20.68
26.25
27.82
26.28
23.18
20.42
19.89
22.9
29.85
39.93
51.34
61.78
69.23
72.44
71.12
65.68
56.78
45.07
31.15
15.75
-0.13
-15.36
-29.06
-40.96
-51.48
-61.43
-71.56
-82.08
-92.71
-102.73
-111.49
-118.49
-123.45
-126.29
-127.03
-125.73
-122.62
-118.02
-112.38
-106.23
-100.14
-94.7
-90.49
-87.95
-87.17
-87.81
-89.1
-90.03
-89.62
-87.18
-82.29
-74.89
-65.13
-53.38
-40.29
-26.75
-13.84
-2.61
6.24
12.49
16.47
18.91
20.62
22.24
24.13
26.35
28.81
31.44
34.27
37.39
40.85
44.56
48.24
51.49
53.93
55.38
55.91
55.8
55.39
54.92
54.48
54.01
53.38
52.52
51.43
50.24
49.15
48.44
48.37
49.07
50.47
52.26
53.88
54.75
54.52
53.25
51.5
50.18
50.06
51.46
53.97
56.48
57.73
56.73
53.24
47.82
41.5
35.49
30.72
27.78
26.72
26.98
27.23
25.38
19.12
6.76
-11.85
-34.84
-58.78
-79.91
-95.6
-105.14
-109.65
-111.07
-111.06
-110.42
-109.18
-107.17
-104.47
-101.41
-98.15
-94.31
-88.99
-81.3
-70.97
-58.76
-46.31
-35.5
-27.84
-23.98
-23.68
-26.05
-29.9
-34.11
-37.96
-41.37
-44.87
-49.37
-55.57
-63.35
-71.43
-77.59
-79.54
-75.86
-66.78
-54.11
-40.59
-28.9
-20.91
-17.36
-18.06
-22.24
-28.77
-36.23
-42.89
-46.96
-47.09
-42.87
-35.1
-25.52
-16.1
-8.24
-2.25
2.55
7.41
13.45
21.17
30.35
40.19
49.62
57.67
63.69
67.57
69.8
71.35
73.27
76.22
80.21
84.7
89.06
93.18
97.69
103.76
112.49
124.3
138.68
154.38
169.77
183.17
192.91
197.43
195.46
186.55
171.52
152.59
132.81
114.96
100.55
89.25
79.2
67.91
53.39
34.78
12.44
-12.46
-38.46
-64.26
-88.77
-111.13
-130.73
-147.25
-160.72
-171.52
-180.15
-186.97
-192.0
-194.97
-195.34
-192.59
-186.27
-176.12
-162.11
-144.61
-124.52
-103.2
-82.24
-62.99
-46.06
-31.19
-17.45
-3.82
10.26
24.54
38.22
50.44
60.87
69.98
78.86
88.57
99.53
111.26
122.61
132.41
140.15
146.28
152.06
158.9
167.81
178.98
191.77
204.89
216.59
224.88
227.87
224.16
213.31
196.15
174.63
151.23
128.13
106.52
86.49
67.38
48.58
30.14
12.92
-1.81
-13.16
-21.19
-26.96
-32.15
-38.24
-45.95
-55.16
-65.19
-75.32
-85.19
-94.85
-104.43
-113.98
-123.21
-131.62
-138.64
-143.83
-146.94
-147.94
-146.98
-144.41
-140.75
-136.6
-132.5
-128.92
-126.17
-124.49
-124.07
-125.05
-127.46
-131.1
-135.46
-139.67
-142.52
-142.71
-139.15
-131.4
-119.82
-105.62
-90.4
-75.6
-62.08
-49.92
-38.68
-27.86
-17.29
-7.33
1.28
7.81
11.87
13.59
13.49
12.34
10.85
9.59
8.93
9.14
10.53
13.37
17.91
24.25
32.18
41.22
50.61
59.55
67.3
73.29
77.16
78.83
78.43
76.38
73.39
70.35
68.18
67.51
68.47
70.6
73.06
74.95
75.72
75.32
74.1
72.56
71.02
69.54
68.07
66.69
65.73
65.71
67.13
70.2
74.76
80.26
85.97
91.15
95.32
98.35
100.66
103.15
106.91
112.64
120.07
127.66
133.0
133.71
128.48
117.76
103.65
89.07
76.63
67.79
62.59
60.07
58.97
58.28
57.53
56.61
55.44
53.7
50.83
46.35
40.16
32.79
25.38
19.18
15.07
13.1
12.36
11.4
8.8
3.69
-3.98
-13.58
-24.06
-34.34
-43.49
-50.86
-56.2
-59.83
-62.67
-66.19
-71.99
-81.32
-94.58
-111.22
-130.03
-149.79
-169.74
-189.76
-209.9
-229.8
-248.12
-262.68
-271.18
-272.31
-266.53
-256.14
-244.43
-234.35
-227.18
-221.94
-215.8
-205.24
-187.46
-161.57
-128.96
-92.84
-57.28
-26.02
-1.54
15.21
24.69
28.22
27.46
23.97
19.04
13.63
8.37
3.6
-0.6
-4.31
-7.7
-10.94
-14.04
-16.83
-18.81
-19.21
-17.07
-11.67
-2.8
8.97
22.44
36.13
48.9
60.25
70.39
79.82
88.93
97.74
105.85
112.6
117.34
119.52
118.81
115.05
108.43
99.49
89.23
79.09
70.8
66.01
65.87
70.56
78.98
88.81
96.96
100.46
97.47
88.02
74.21
59.82
49.4
47.29
56.8
79.76
116.15
163.91
218.78
274.61
324.23
361.05
380.74
382.51
369.13
345.76
318.06
290.2
263.95
238.86
213.37
186.15
156.89
126.22
94.96
63.23
29.99
-6.47
-47.38
-92.38
-139.05
-183.48
-221.53
-249.79
-266.02
-268.85
-257.77
-233.79
-200.54
-164.89
-136.03
-122.74
-130.04
-156.93
-196.65
-239.34
-275.73
-299.98
-310.35
-308.13
-295.84
-275.98
-250.83
-222.69
-194.0
-167.0
-143.14
-122.6
-104.51
-87.53
-70.48
-52.96
-35.44
-18.92
-4.56
6.84
15.13
20.86
25.02
28.65
32.5
36.78
41.34
45.8
49.89
53.52
56.69
59.31
61.04
61.3
59.49
55.23
48.63
40.45
31.97
24.56
19.26
16.3
14.98
13.93
11.63
6.96
-0.4
-9.87
-20.06
-29.23
-35.71
-38.33
-36.7
-31.31
-23.35
-14.35
-5.77
1.31
6.39
9.51
11.08
11.73
12.13
12.83
14.17
16.04
18.08
19.68
20.34
19.88
18.51
16.77
15.28
14.51
14.63
15.56
17.0
18.65
20.21
21.4
21.94
21.52
19.87
16.83
12.5
7.28
1.8
-3.29
-7.46
-10.56
-12.84
-14.86
-17.27
-20.59
-25.05
-30.47
-36.33
-41.86
-46.11
-48.13
-47.09
-42.53
-34.48
-23.52
-10.59
3.16
16.67
29.06
39.66
48.0
53.82
57.22
58.72
59.27
60.05
62.06
65.77
70.95
76.81
82.31
86.61
89.33
90.62
91.12
91.85
94.07
98.91
106.87
117.24
127.8
135.29
136.42
129.21
113.74
92.07
67.22
41.92
17.77
-4.84
-26.17
-46.38
-65.17
-81.87
-95.71
-106.06
-112.53
-114.87
-112.95
-106.89
-97.16
-84.61
-70.36
-55.65
-41.69
-29.61
-20.34
-14.36
-11.45
-10.72
-10.86
-10.67
-9.49
-7.45
-5.28
-3.85
-3.7
-4.7
-6.1
-6.68
-5.19
-0.69
7.06
17.41
28.83
39.25
46.53
48.99
45.73
36.62
22.27
3.88
-16.77
-37.54
-56.26
-71.23
-81.73
-88.16
-91.67
-93.49
-94.37
-94.38
-93.17
-90.43
-86.16
-80.66
-74.12
-66.39
-56.93
-45.11
-30.74
-14.27
3.26
20.52
36.37
50.23
62.04
72.12
80.83
88.25
94.21
98.33
100.21
99.6
96.49
91.1
83.99
75.98
68.15
61.57
56.89
54.11
52.42
50.49
47.0
41.17
33.02
23.28
13.1
3.66
-4.22
-10.33
-15.23
-20.14
-26.52
-35.52
-47.34
-61.1
-75.04
-87.33
-96.65
-102.62
-105.53
-105.84
-103.71
-99.01
-91.55
-81.38
-68.88
-54.58
-38.94
-22.25
-4.84
12.8
29.91
45.6
59.09
69.88
77.93
83.54
87.26
89.82
91.93
94.19
96.89
99.94
102.94
105.38
106.84
107.1
106.0
103.4
99.09
92.93
84.92
75.13
63.62
50.43
35.61
19.45
2.57
-14.09
-29.63
-43.45
-55.37
-65.5
-73.81
-79.9
-82.98
-82.23
-77.32
-68.85
-58.35
-47.94
-39.58
-34.36
-32.17
-31.88
-31.97
-31.24
-29.41
-27.08
-25.22
-24.59
-25.21
-26.49
-27.47
-27.4
-26.02
-23.55
-20.5
-17.38
-14.53
-12.12
-10.2
-8.83
-8.13
-8.35
-9.7
-12.36
-16.3
-21.27
-26.69
-31.88
-36.2
-39.25
-40.91
-41.37
-40.89
-39.62
-37.58
-34.62
-30.61
-25.61
-19.89
-13.88
-7.95
-2.25
3.29
8.76
14.07
18.75
22.05
23.25
22.02
18.75
14.46
10.5
7.99
7.44
8.65
10.91
13.42
15.59
17.14
18.01
18.06
17.02
14.58
10.57
5.19
-1.01
-7.34
-13.18
-18.24
-22.52
-26.26
-29.85
-33.77
-38.59
-44.88
-53.08
-63.14
-74.17
-84.31
-91.03
-91.79
-84.94
-70.52
-50.36
-27.69
-6.07
11.61
23.88
30.81
33.63
34.1
33.86
33.98
34.87
36.3
37.61
37.91
36.47
32.86
27.17
19.9
11.88
4.0
-3.08
-9.01
-13.93
-18.25
-22.63
-27.69
-33.86
-41.23
-49.54
-58.3
-66.89
-74.68
-81.11
-85.86
-88.86
-90.36
-90.93
-91.27
-91.97
-93.2
-94.52
-94.88
-92.92
-87.37
-77.55
-63.54
-46.19
-26.72
-6.45
13.6
32.63
50.07
65.3
77.76
87.04
93.23
97.01
99.5
101.67
103.93
105.84
106.34
104.39
99.57
92.34
83.94
75.82
69.1
64.32
61.43
60.07
59.71
59.76
59.51
58.17
55.16
50.25
43.87
36.89
30.46
25.51
22.5
21.32
21.37
21.7
21.25
19.12
14.72
8.01
-0.42
-9.41
-17.44
-23.01
-25.02
-23.1
-17.64
-9.77
-1.03
6.98
12.96
16.19
16.58
14.65
11.32
7.6
4.31
1.92
0.48
-0.28
-0.69
-0.98
-1.17
-1.1
-0.61
0.29
1.4
2.4
2.98
2.97
2.38
1.24
-0.46
-2.8
-5.84
-9.52
-13.59
-17.65
-21.28
-24.25
-26.44
-27.97
-29.11
-30.31
-32.14
-35.2
-39.92
-46.26
-53.53
-60.37
-65.1
-66.16
-62.54
-54.12
-41.6
-26.33
-9.95
5.93
19.99
31.3
39.38
44.09
45.76
44.99
42.65
39.76
37.24
35.67
35.25
35.68
36.45
37.07
37.28
37.14
36.94
36.93
37.15
37.33
37.07
35.95
33.81
30.8
27.28
23.66
20.2
16.9
13.53
9.79
5.47
0.58
-4.74
-10.25
-15.67
-20.78
-25.34
-29.04
-31.62
-33.02
-33.43
-33.39
-33.49
-34.07
-34.97
-35.47
-34.63
-31.7
-26.49
-19.36
-11.14
-2.71
5.24
12.26
18.1
22.53
25.29
26.16
25.15
22.55
18.92
15.05
11.6
9.08
7.62
7.06
7.02
7.12
7.09
6.87
6.56
6.31
6.16
6.03
5.77
5.31
4.72
4.15
3.81
3.68
3.54
2.99
1.68
-0.62
-3.84
-7.78
-12.15
-16.81
-21.69
-26.85
-32.35
-38.17
-44.25
-50.48
-56.75
-62.98
-69.02
-74.6
-79.28
-82.47
-83.54
-82.01
-77.64
-70.52
-61.03
-49.88
-38.0
-26.51
-16.53
-8.91
-4.06
-1.74
-1.08
-0.9
-0.06
2.2
6.05
11.13
16.81
22.45
27.61
32.05
35.77
38.8
41.14
42.77
43.69
43.99
43.9
43.73
43.85
44.54
45.93
47.98
50.42
52.79
54.53
55.06
53.89
50.65
45.18
37.5
27.98
17.29
6.47
-3.34
-11.27
-17.01
-20.93
-23.85
-26.61
-29.52
-32.19
-33.75
-33.21
-30.0
-24.1
-16.07
-6.66
3.39
13.45
22.88
31.0
37.04
40.48
41.27
40.08
38.13
36.78
36.95
38.83
41.8
44.83
47.04
48.04
48.12
48.08
48.9
51.37
55.84
61.97
68.73
74.57
77.72
76.84
71.56
62.83
52.75
43.97
38.85
38.78
43.79
52.7
63.69
74.99
85.52
95.11
104.47
114.63
126.25
138.97
151.14
160.12
163.18
158.58
146.44
128.79
108.85
89.74
73.22
59.09
45.68
31.01
14.16
-3.9
-20.69
-33.31
-39.79
-39.78
-34.34
-25.07
-13.35
0.1
14.82
30.13
44.83
57.49
67.03
73.31
77.17
79.95
82.57
84.97
85.82
83.16
75.1
60.76
40.79
17.1
-7.68
-31.24
-52.35
-71.04
-88.44
-106.53
-127.77
-154.56
-188.25
-227.74
-268.55
-303.46
-324.67
-327.03
-310.4
-279.82
-243.08
-207.21
-175.79
-148.42
-122.46
-95.56
-67.33
-39.13
-12.61
11.76
34.97
58.63
83.46
108.57
131.78
150.56
163.42
170.57
173.58
174.35
174.09
172.83
169.77
164.12
155.95
146.29
136.7
128.6
122.62
118.57
115.81
113.48
110.84
107.11
101.43
92.81
80.36
63.59
42.54
17.69
-10.32
-41.04
-74.36
-110.34
-148.86
-188.9
-228.3
-263.91
-292.63
-312.68
-324.43
-330.22
-333.11
-335.21
-336.3
-333.77
-323.67
-302.51
-268.89
-224.36
-173.08
-120.62
-72.38
-32.16
-1.29
21.16
37.47
49.8
59.19
65.26
66.95
63.53
55.44
44.2
31.91
20.59
11.95
7.7
9.62
19.3
37.1
61.09
86.67
107.39
117.04
112.01
92.82
64.13
33.02
6.38
-11.5
-20.31
-23.27
-25.58
-32.33
-46.76
-69.47
-98.67
-130.89
-162.07
-188.3
-206.55
-214.95
-213.02
-201.61
-182.7
-158.79
-132.35
-105.11
-77.88
-50.57
-22.69
6.05
35.26
63.72
89.77
111.82
129.0
141.38
149.79
155.46
159.5
162.67
165.2
166.58
165.41
159.38
145.69
122.03
87.83
45.21
-1.08
-44.75
-79.61
-101.45
-108.89
-103.43
-88.79
-69.88
-51.83
-38.83
-33.08
-34.13
-38.98
-43.45
-44.15
-40.25
-33.88
-28.93
-28.81
-34.66
-44.9
-56.2
-65.22
-69.87
-69.4
-64.0
-54.34
-42.03
-30.07
-22.83
-24.39
-36.01
-54.2
-71.23
-78.15
-69.29
-45.43
-13.75
15.61
34.43
39.85
34.82
25.46
17.41
13.53
13.78
16.93
22.32
30.38
41.59
55.18
68.45
77.67
79.84
74.34
63.38
50.9
40.76
34.93
32.65
30.98
26.32
15.98
-0.82
-22.73
-47.31
-72.15
-95.71
-117.62
-138.53
-159.88
-183.35
-210.09
-239.71
-269.59
-295.05
-310.64
-312.14
-298.26
-271.08
-234.89
-194.1
-151.21
-106.37
-58.38
-6.84
46.32
96.78
139.25
169.7
187.05
193.42
193.18
191.19
190.89
193.11
196.23
197.25
193.67
185.16
174.1
164.53
160.02
161.56
166.67
170.32
167.0
152.8
126.66
90.29
47.44
3.06
-37.38
-68.67
-86.99
-91.29
-84.11
-71.21
-59.88
-56.34
-63.9
-82.55
-109.84
-142.36
-176.64
-209.18
-236.23
-253.67
-257.7
-246.01
-218.82
-179.25
-132.67
-85.45
-43.2
-9.55
14.43
29.92
39.42
45.43
49.69
52.88
55.01
56.11
56.75
57.99
60.91
65.98
72.76
80.06
86.52
91.26
94.28
96.3
98.24
100.67
103.28
104.95
104.07
99.31
90.22
77.58
63.18
49.06
36.82
26.93
18.77
11.11
2.79
-6.8
-17.59
-29.13
-40.84
-52.21
-62.61
-71.19
-76.76
-78.14
-74.56
-66.16
-54.07
-40.12
-26.37
-14.59
-5.82
-0.26
2.62
3.83
4.43
5.29
6.81
8.96
11.45
13.89
16.07
18.02
19.94
22.09
24.63
27.48
30.38
32.96
34.76
35.35
34.38
31.62
26.97
20.65
13.21
5.59
-1.0
-5.45
-7.01
-5.63
-1.89
3.17
8.44
12.98
16.12
17.39
16.54
13.64
9.32
4.82
1.81
1.87
6.02
14.37
26.16
40.2
55.26
70.44
85.14
98.94
111.32
121.63
129.1
133.18
133.73
131.24
126.79
121.86
117.88
115.75
