16.27
15.25
13.77
11.96
10.03
8.24
6.78
5.73
5.0
4.33
3.52
2.46
1.19
-0.08
-1.17
-1.96
-2.5
-2.94
-3.47
-4.26
-5.39
-6.87
-8.56
-10.32
-11.99
-13.48
-14.86
-16.26
-17.94
-20.11
-22.87
-26.13
-29.53
-32.49
-34.32
-34.47
-32.6
-28.75
-23.29
-16.87
-10.2
-3.95
1.4
5.6
8.62
10.62
11.85
12.56
12.93
13.11
13.18
13.2
13.24
13.34
13.51
13.73
14.0
14.32
14.75
15.34
16.16
17.11
18.08
18.82
19.1
18.8
17.89
16.49
14.8
13.04
11.43
10.09
9.03
8.15
7.31
6.34
5.15
3.72
2.16
0.63
-0.69
-1.71
-2.47
-3.15
-3.95
-5.06
-6.55
-8.29
-10.12
-11.87
-13.48
-15.03
-16.66
-18.56
-20.84
-23.5
-26.42
-29.31
-31.73
-33.22
-33.3
-31.66
-28.27
-23.39
-17.54
-11.35
-5.43
-0.22
4.03
7.26
9.55
11.05
11.98
12.52
12.9
13.23
13.61
14.03
14.41
14.65
14.62
14.34
13.94
13.66
13.78
14.4
15.46
16.67
17.67
18.23
18.26
17.83
17.11
16.23
15.21
14.02
12.6
11.03
9.46
8.05
6.86
5.81
4.76
3.57
2.23
0.82
-0.52
-1.72
-2.81
-3.93
-5.22
-6.74
-8.41
-10.09
-11.63
-12.98
-14.14
-15.24
-16.35
-17.56
-18.98
-20.68
-22.69
-24.92
-27.15
-28.93
-29.77
-29.17
-26.88
-22.94
-17.72
-11.83
-5.9
-0.5
4.04
7.59
10.21
12.09
13.42
14.33
14.89
15.12
15.05
14.77
14.43
14.2
14.21
14.53
15.08
15.76
16.49
17.25
18.1
19.03
19.98
20.74
21.11
20.91
20.14
18.92
17.45
15.86
14.14
12.25
10.15
7.9
5.67
3.63
1.93
0.55
-0.61
-1.69
-2.79
-3.96
-5.18
-6.43
-7.77
-9.25
-10.95
-12.9
-15.12
-17.58
-20.28
-23.16
-26.02
-28.54
-30.27
-30.73
-29.63
-26.89
-22.78
-17.74
-12.28
-6.86
-1.83
2.57
6.2
8.98
10.95
12.19
12.89
13.2
13.25
13.12
12.85
12.51
12.19
12.02
12.08
12.43
12.99
13.67
14.33
14.86
15.19
15.32
15.27
15.09
14.79
14.38
13.82
13.13
12.33
11.51
10.74
10.06
9.38
8.59
7.49
6.02
4.26
2.45
0.84
-0.39
-1.27
-2.05
-3.05
-4.56
-6.61
-9.0
-11.38
-13.43
-14.95
-16.0
-16.82
-17.7
-18.94
-20.75
-23.22
-26.26
-29.59
-32.72
-35.01
-35.85
-34.81
-31.78
-27.0
-21.04
-14.58
-8.29
-2.7
1.88
5.34
7.78
9.44
10.6
11.51
12.32
13.09
13.78
14.34
14.72
14.94
15.08
15.2
15.4
15.71
16.16
16.69
17.21
17.61
17.84
17.85
17.63
17.07
16.06
14.5
12.41
9.98
7.58
5.61
4.34
3.83
3.91
4.35
4.92
5.58
6.34
7.31
8.53
9.97
11.47
12.82
13.83
14.4
14.57
14.5
14.47
14.67
15.11
15.44
15.12
13.51
10.21
5.18
-1.16
-8.17
-15.13
-21.52
-27.05
-31.72
-35.75
-39.34
-42.63
-45.45
-47.12
-46.44
-41.91
-32.31
-17.45
1.45
21.79
40.18
53.31
58.64
55.08
43.24
25.64
6.44
-9.28
-16.89
-13.73
-0.17
20.45
43.13
63.3
78.45
88.76
96.11
102.4
108.17
112.38
113.12
109.08
100.48
89.04
77.14
66.95
59.8
56.23
56.46
60.52
67.47
74.37
76.06
66.7
42.96
7.05
-32.36
-62.89
-73.84
-61.45
-31.23
4.27
30.9
38.79
25.51
-4.49
-43.2
-82.81
-117.87
-145.41
-164.01
-172.95
-172.36
-163.47
-148.8
-131.38
-113.89
-97.57
-82.09
-66.1
-48.26
-28.03
-6.06
16.0
35.98
51.79
61.85
65.42
62.64
54.61
43.14
30.44
18.6
9.07
2.36
-1.95
-4.89
-7.56
-10.62
-14.04
-17.24
-19.41
-20.04
-19.18
-17.47
-15.81
-15.03
-15.53
-17.16
-19.38
-21.51
-23.07
-23.91
-24.21
-24.36
-24.73
-25.56
-26.84
-28.37
-29.89
-31.23
-32.4
-33.59
-35.03
-36.89
-39.06
-41.15
-42.56
-42.59
-40.71
-36.73
-30.82
-23.59
-15.88
-8.55
-2.3
2.55
6.01
8.34
9.87
10.84
11.33
11.36
10.95
10.22
9.41
8.85
8.78
9.35
10.51
12.15
14.09
16.17
18.24
20.23
22.04
23.6
24.77
25.39
25.26
24.21
22.18
19.29
15.94
12.65
9.96
8.22
7.46
7.34
7.29
6.75
5.37
3.19
0.61
-1.72
-3.04
-2.8
-0.83
2.44
5.92
7.94
6.74
1.0
-9.5
-23.57
-38.86
-52.48
-61.85
-65.35
-62.71
-54.71
-42.83
-28.77
-14.14
-0.36
11.47
20.64
26.94
30.7
32.63
33.57
34.24
35.09
36.37
38.14
40.42
43.1
45.97
48.72
51.05
52.84
54.22
55.47
56.83
58.27
59.43
59.71
58.56
55.7
51.28
45.78
39.78
33.79
28.07
22.62
17.28
11.8
6.05
0.02
-6.12
-12.14
-17.84
-23.14
-28.12
-32.97
-37.82
-42.75
-47.65
-52.37
-56.69
-60.41
-63.38
-65.47
-66.59
-66.76
-66.07
-64.7
-62.74
-60.09
-56.43
-51.26
-44.19
-35.14
-24.4
-12.62
-0.59
10.99
21.66
31.15
39.36
46.29
52.0
56.62
60.4
63.64
66.55
69.17
71.28
72.42
72.04
69.79
65.69
60.28
54.49
49.39
45.84
44.12
43.83
44.0
43.47
41.2
36.68
30.01
21.81
13.08
4.85
-2.05
-7.17
-10.51
-12.49
-13.7
-14.75
-16.06
-17.77
-19.79
-21.9
-23.94
-25.87
-27.76
-29.74
-31.8
-33.83
-35.6
-36.86
-37.49
-37.53
-37.21
-36.84
-36.78
-37.36
-38.78
-41.05
-43.89
-46.74
-48.79
-49.26
-47.57
-43.65
-37.93
-31.2
-24.36
-18.11
-12.86
-8.71
-5.58
-3.3
-1.73
-0.75
-0.27
-0.14
-0.24
-0.46
-0.72
-0.96
-1.15
-1.24
-1.18
-0.98
-0.66
-0.31
-0.04
0.03
-0.17
-0.67
-1.45
-2.48
-3.72
-5.16
-6.76
-8.5
-10.26
-11.98
-13.59
-15.08
-16.5
-17.87
-19.24
-20.67
-22.15
-23.74
-25.49
-27.51
-29.84
-32.54
-35.59
-38.94
-42.53
-46.28
-50.1
-53.88
-57.46
-60.71
-63.53
-65.86
-67.71
-69.05
-69.86
-70.14
-69.95
-69.4
-68.49
-67.03
-64.53
-60.34
-53.91
-45.1
-34.24
-22.17
-9.86
1.83
12.33
21.41
28.97
34.97
39.39
42.2
43.49
43.39
42.17
40.14
37.68
35.24
33.25
32.05
31.8
32.43
33.65
35.0
35.97
36.14
35.27
33.38
30.68
27.51
24.21
21.0
17.97
15.08
12.24
9.42
6.68
4.07
1.64
-0.66
-2.92
-5.25
-7.63
-9.99
-12.24
-14.3
-16.19
-18.03
-19.96
-22.09
-24.5
-27.26
-30.43
-34.17
-38.51
-43.26
-47.93
-51.75
-53.82
-53.38
-50.06
-43.96
-35.63
-25.91
-15.66
-5.66
3.51
11.47
17.96
22.8
25.95
27.4
27.36
26.13
24.15
21.97
20.08
18.88
18.61
19.3
20.81
22.93
25.37
27.83
29.98
31.5
32.14
31.85
30.73
29.03
27.05
25.0
22.97
20.92
18.78
16.52
14.15
11.69
9.14
6.48
3.72
0.96
-1.61
-3.83
-5.67
-7.29
-9.03
-11.18
-13.86
-16.95
-20.18
-23.3
-26.29
-29.41
-33.02
-37.31
-42.13
-46.86
-50.63
-52.52
-51.84
-48.24
-41.74
-32.73
-21.89
-10.21
1.12
10.93
18.31
22.88
24.91
25.09
24.28
23.22
22.31
21.68
21.36
21.37
21.77
22.62
23.89
25.48
27.27
29.15
31.15
33.23
35.29
37.11
38.39
38.83
38.27
36.75
34.45
31.73
29.01
26.67
24.92
23.76
22.99
22.29
21.31
19.89
18.03
15.95
13.9
12.1
10.63
9.44
8.35
7.11
5.5
3.37
0.66
-2.49
-5.89
-9.27
-12.45
-15.48
-18.56
-21.97
-25.9
-30.25
-34.58
-38.18
-40.29
-40.25
-37.67
-32.52
-25.14
-16.18
-6.54
2.82
11.03
17.51
22.06
24.76
25.91
25.94
25.21
24.1
22.95
22.07
21.66
21.86
22.68
24.08
26.0
28.4
31.21
34.24
37.17
39.6
41.07
41.22
39.82
36.89
32.62
27.39
21.72
16.08
10.9
6.46
2.86
0.11
-1.84
-3.03
-3.49
-3.18
-2.17
-0.57
1.35
3.27
4.86
5.9
6.25
5.88
4.86
3.23
1.03
-1.71
-5.01
-8.88
-13.26
-18.03
-22.82
-27.04
-29.83
-30.25
-27.54
-21.45
-12.43
-1.66
9.28
18.81
25.8
29.81
31.16
30.72
29.62
28.8
28.78
29.53
30.58
31.27
31.13
30.07
28.35
26.46
24.84
23.67
22.91
22.39
21.9
21.31
20.48
19.24
17.37
14.73
11.27
7.11
2.55
-2.04
-6.22
-9.56
-11.72
-12.55
-12.16
-10.93
-9.39
-8.09
-7.37
-7.3
-7.7
-8.32
-8.95
-9.54
-10.22
-11.18
-12.59
-14.51
-16.82
-19.31
-21.72
-23.86
-25.7
-27.37
-29.12
-31.22
-33.88
-37.11
-40.76
-44.5
-47.8
-50.02
-50.48
-48.58
-43.98
-36.81
-27.73
-17.93
-8.89
-2.01
1.81
2.48
0.72
-2.2
-4.95
-6.55
-6.7
-5.75
-4.5
-3.94
-4.89
-7.8
-12.64
-18.78
-25.09
-30.05
-32.21
-30.61
-25.24
-17.22
-8.51
-1.45
2.07
1.12
-3.99
-11.85
-20.44
-27.74
-32.17
-32.93
-30.05
-24.38
-17.41
-10.96
-6.58
-4.96
-5.45
-6.22
-4.94
0.22
9.73
22.47
36.15
48.34
57.31
62.46
64.14
63.02
59.56
53.82
45.63
35.03
22.44
8.66
-5.47
-19.3
-32.6
-45.35
-57.44
-68.34
-77.0
-82.19
-82.96
-79.04
-70.98
-59.97
-47.44
-34.62
-22.26
-10.56
0.68
11.81
23.09
34.5
45.69
56.1
65.28
73.09
79.85
86.15
92.57
99.32
106.07
112.22
117.17
120.59
122.42
122.52
120.44
115.34
106.39
93.34
76.89
58.71
40.93
25.62
14.39
8.24
7.68
12.65
22.36
35.09
48.37
59.51
66.38
68.01
64.66
57.28
46.72
33.21
16.5
-3.65
-26.7
-51.11
-74.59
-94.76
-109.8
-118.86
-122.27
-121.41
-118.61
-116.69
-118.11
-124.02
-133.31
-142.36
-145.64
-137.39
-113.43
-72.79
-18.33
43.71
104.93
156.54
191.17
204.41
195.78
168.85
130.46
89.02
52.54
26.81
14.34
14.31
23.22
36.16
48.09
54.94
54.32
45.83
30.84
12.05
-7.24
-23.96
-35.95
-42.38
-43.82
-41.86
-38.56
-35.74
-34.51
-35.08
-36.91
-39.0
-40.25
-39.85
-37.45
-33.32
-28.32
-23.79
-21.12
-21.23
-24.23
-29.28
-34.99
-39.98
-43.41
-45.28
-46.18
-46.89
-48.01
-49.91
-52.86
-57.25
-63.47
-71.53
-80.61
-88.79
-93.44
-91.94
-82.71
-65.88
-43.29
-18.13
6.05
26.15
40.17
47.38
48.29
44.29
37.24
29.08
21.4
15.27
11.11
8.8
7.82
7.45
7.08
6.35
5.31
4.32
3.98
4.81
7.05
10.53
14.67
18.7
21.83
23.5
23.48
21.84
18.94
15.28
11.38
7.68
4.47
1.87
-0.1
-1.48
-2.32
-2.69
-2.67
-2.39
-1.97
-1.56
-1.33
-1.42
-1.93
-2.96
-4.57
-6.75
-9.46
-12.63
-16.14
-19.84
-23.44
-26.51
-28.46
-28.6
-26.31
-21.25
-13.51
-3.75
6.95
17.31
26.14
32.57
36.17
36.91
35.05
31.04
25.44
18.9
12.16
5.92
0.83
-2.67
-4.5
-4.81
-4.01
-2.59
-1.0
0.34
1.14
1.2
0.49
-0.9
-2.75
-4.79
-6.74
-8.45
-9.82
-10.85
-11.57
-12.11
-12.71
-13.75
-15.6
-18.43
-22.06
-25.9
-29.26
-31.63
-32.95
-33.62
-34.24
-35.32
-37.04
-39.31
-41.92
-44.73
-47.68
-50.67
-53.34
-55.02
-54.96
-52.53
-47.45
-39.98
-30.7
-20.41
-9.92
0.04
8.89
16.24
21.87
25.72
27.86
28.53
27.95
26.45
24.34
21.94
19.57
17.48
15.86
14.79
14.33
14.46
15.15
16.36
18.01
19.93
21.91
23.72
25.16
26.07
26.4
26.11
25.22
23.71
21.61
18.98
15.95
12.71
9.42
6.24
3.31
0.74
-1.43
-3.21
-4.71
-6.17
-7.9
-10.16
-13.05
-16.48
-20.21
-23.93
-27.49
-30.94
-34.58
-38.73
-43.51
-48.6
-53.23
-56.33
-56.86
-54.21
-48.32
-39.7
-29.24
-18.0
-6.9
3.31
12.15
19.36
24.82
28.59
30.79
31.6
31.28
30.14
28.53
26.8
25.21
23.93
22.96
22.32
22.02
22.14
22.71
23.69
24.9
26.07
26.96
27.43
27.45
27.16
26.64
25.89
24.83
23.36
21.43
19.12
16.66
14.3
12.25
10.54
9.08
7.74
6.33
4.74
2.88
0.62
-2.19
-5.68
-9.88
-14.7
-19.84
-24.9
-29.51
-33.46
-36.83
-39.98
-43.36
-47.27
-51.52
-55.43
-57.92
-57.95
-54.9
-48.8
-40.31
-30.37
-19.88
-9.58
0.1
8.77
16.11
21.78
25.56
27.5
27.93
27.37
26.34
25.22
24.18
23.26
22.44
21.84
21.63
22.08
23.44
25.79
29.03
32.78
36.59
39.89
42.2
43.2
42.83
41.23
38.72
35.67
32.34
28.87
25.33
21.75
18.23
14.92
11.93
9.26
6.85
4.5
2.11
-0.4
-3.01
-5.66
-8.28
-10.84
-13.33
-15.7
-17.9
-19.85
-21.6
-23.33
-25.41
-28.28
-32.27
-37.39
-43.12
-48.48
-52.24
-53.31
-51.09
-45.61
-37.52
-27.78
-17.43
-7.31
1.98
10.03
16.58
21.54
24.97
27.01
27.94
28.02
27.5
26.52
25.3
24.05
23.09
22.77
23.34
24.86
27.17
29.87
32.46
34.5
35.73
36.09
35.72
34.88
33.83
32.81
31.93
31.13
30.22
28.9
26.85
23.92
20.11
15.68
11.04
6.62
2.71
-0.64
-3.59
-6.45
-9.43
-12.66
-16.04
-19.33
-22.28
-24.76
-26.79
-28.59
-30.51
-32.97
-36.33
-40.78
-46.18
-51.97
-57.22
-60.79
-61.66
-59.2
-53.31
-44.41
-33.26
-20.9
-8.4
3.22
13.13
20.81
26.12
29.24
30.55
30.44
29.16
26.86
23.72
19.97
16.02
12.39
9.61
8.12
8.23
10.0
13.2
17.31
21.6
25.27
27.72
28.65
28.13
26.49
24.14
21.37
18.34
15.08
11.62
8.08
4.55
1.1
-2.31
-5.8
-9.45
-13.15
-16.59
-19.32
-20.95
-21.4
-20.99
-20.34
-20.19
-21.1
-23.33
-26.8
-31.21
-36.03
-40.56
-43.98
-45.39
-44.05
-39.55
-31.94
-21.85
-10.22
1.84
13.33
23.45
31.64
37.54
41.0
42.08
41.11
38.59
35.13
31.25
27.4
23.88
20.9
18.7
17.5
17.46
18.6
20.72
23.34
25.83
27.57
28.06
27.19
25.13
22.26
19.01
15.64
12.25
8.8
5.24
1.59
-2.06
-5.61
-9.04
-12.45
-15.94
-19.59
-23.34
-27.02
-30.5
-33.74
-36.92
-40.33
-44.26
-48.89
-54.07
-59.27
-63.61
-66.03
-65.52
-61.4
-53.54
-42.45
-29.21
-15.21
-1.83
9.83
19.11
25.85
30.23
32.64
33.53
33.34
32.44
31.11
29.54
27.86
26.17
24.6
23.34
22.61
22.63
23.55
25.34
27.78
30.44
32.8
34.35
34.7
33.76
31.73
28.96
25.87
22.71
19.56
16.42
13.21
9.97
6.83
3.86
1.07
-1.73
-4.77
-8.22
-12.15
-16.44
-20.84
-25.1
-29.07
-32.79
-36.58
-40.89
-46.15
-52.48
-59.44
-66.02
-70.83
-72.54
-70.26
-63.77
-53.61
-40.81
-26.68
-12.53
0.48
11.44
19.81
25.42
28.51
29.66
29.55
28.84
27.98
27.16
26.38
25.55
24.67
23.81
23.24
23.23
24.03
25.66
27.94
30.5
32.85
34.57
35.36
35.07
33.72
31.42
28.39
24.88
21.17
17.55
14.18
11.11
8.25
5.42
2.47
-0.64
-3.83
-6.92
-9.8
-12.41
-14.8
-17.05
-19.2
-21.27
-23.35
-25.61
-28.48
-32.47
-37.98
-45.04
-53.06
-60.87
-66.97
-69.89
-68.65
-62.92
-53.08
-40.08
-25.17
-9.66
5.25
18.58
29.59
37.89
43.34
46.11
46.6
45.38
43.09
40.36
37.73
35.51
33.89
32.92
32.67
33.19
34.57
36.72
39.35
41.98
44.03
44.97
44.56
42.88
40.24
37.07
33.75
30.51
27.41
24.39
21.35
18.2
14.94
11.61
8.31
5.12
2.09
-0.81
-3.69
-6.76
-10.19
-14.02
-18.17
-22.37
-26.38
-30.04
-33.37
-36.62
-40.12
-44.24
-49.17
-54.82
-60.72
-66.08
-69.77
-70.65
-67.76
-60.68
-49.69
-35.79
-20.46
-5.35
8.14
19.06
27.03
32.15
34.86
35.68
35.19
33.83
32.04
30.17
28.48
27.17
26.34
26.02
26.23
26.95
28.21
29.95
32.04
34.24
36.15
37.31
37.37
36.1
33.56
30.06
26.08
22.07
18.35
15.06
12.2
9.72
7.56
5.71
4.08
2.56
0.91
-1.1
-3.7
-6.93
-10.74
-14.9
-19.13
-23.17
-26.82
-30.03
-32.88
-35.64
-38.64
-42.23
-46.57
-51.47
-56.32
-60.13
-61.74
-60.18
-54.91
-46.08
-34.5
-21.42
-8.24
3.78
13.82
21.46
26.66
29.64
30.7
30.18
28.39
25.71
22.63
19.7
17.48
16.43
16.75
18.36
20.95
24.08
27.36
30.51
33.31
35.6
37.13
37.6
36.7
34.31
30.54
25.8
20.67
15.72
11.34
7.72
4.83
2.52
0.6
-1.15
-2.98
-5.11
-7.7
-10.8
-14.27
-17.89
-21.47
-24.96
-28.52
-32.37
-36.64
-41.14
-45.25
-48.04
-48.57
-46.18
-40.75
-32.68
-22.84
-12.21
-1.74
7.9
16.31
23.24
28.52
31.91
33.08
31.69
27.6
21.01
12.68
3.92
-3.64
-8.48
-9.66
-7.11
-1.62
5.48
12.79
19.22
24.19
27.46
29.0
28.79
26.8
23.18
18.3
12.89
7.75
3.55
0.53
-1.5
-3.08
-4.73
-6.69
-8.82
-10.78
-12.37
-13.77
-15.55
-18.29
-22.19
-26.92
-31.82
-36.33
-40.19
-43.48
-46.2
-47.89
-47.65
-44.49
-37.9
-28.33
-17.07
-5.69
4.62
13.47
21.23
28.51
35.62
42.24
47.39
49.84
48.72
44.05
36.91
29.13
22.61
18.6
17.25
17.66
18.52
18.75
17.99
16.55
15.02
13.69
12.37
10.52
7.69
3.8
-0.76
-5.46
-9.89
-14.06
-18.21
-22.58
-27.15
-31.51
-35.14
-37.61
-38.94
-39.47
-39.79
-40.42
-41.59
-43.25
-45.04
-46.5
-47.28
-47.27
-46.63
-45.85
-45.54
-46.2
-47.92
-50.22
-52.08
-52.19
-49.33
-42.75
-32.42
-19.11
-4.16
10.82
24.38
35.49
43.77
49.37
52.82
54.75
55.68
55.95
55.67
54.89
53.61
51.9
49.92
47.85
46.01
44.7
44.23
44.73
46.15
48.11
50.01
51.18
51.02
49.25
45.94
41.52
36.54
31.56
26.96
22.89
19.31
16.03
12.87
9.59
6.03
2.09
-2.24
-6.85
-11.52
-15.99
-19.99
-23.32
-25.84
-27.56
-28.67
-29.55
-30.72
-32.69
-35.83
-40.21
-45.64
-51.78
-58.13
-64.13
-69.09
-72.19
-72.6
-69.69
-63.33
-54.01
-42.78
-30.96
-19.76
-10.04
-2.16
3.89
8.33
11.46
13.53
14.76
15.33
15.44
15.29
15.12
15.16
15.6
16.53
17.96
19.81
22.01
24.42
26.85
29.02
30.57
31.17
30.63
29.01
26.63
24.03
21.7
19.92
18.67
17.67
16.49
14.82
12.53
9.77
6.92
4.44
2.72
1.96
2.09
2.69
3.13
2.7
0.87
-2.49
-7.11
-12.4
-17.72
-22.69
-27.29
-31.84
-36.79
-42.37
-48.43
-54.29
-58.9
-61.14
-60.09
-55.42
-47.43
-36.98
-25.32
-13.63
-2.9
6.31
13.83
19.71
24.15
27.33
29.42
30.58
30.97
30.77
30.17
29.32
28.43
27.69
27.29
27.39
28.06
29.29
30.9
32.65
34.23
35.32
35.65
35.08
33.58
31.29
28.46
25.44
22.53
19.92
17.64
15.55
13.41
11.05
8.41
5.64
2.98
0.67
-1.2
-2.77
-4.25
-5.93
-7.91
-10.12
-12.31
-14.26
-15.89
-17.34
-18.96
-21.16
-24.26
-28.35
-33.15
-38.0
-41.97
-44.07
-43.52
-39.95
-33.53
-24.94
-15.15
-5.22
3.96
11.81
18.03
22.62
25.75
27.65
28.52
28.5
27.68
26.11
23.93
21.43
19.04
17.25
16.47
16.91
18.5
20.91
23.63
26.09
27.86
28.66
28.42
27.23
25.29
22.77
19.87
16.75
13.58
10.56
7.83
5.44
3.34
1.37
-0.67
-2.95
-5.51
-8.27
-11.07
-13.79
-16.35
-18.76
-21.1
-23.49
-26.1
-29.07
-32.49
-36.32
-40.32
-44.0
-46.67
-47.58
-46.15
-42.12
-35.66
-27.34
-17.97
-8.46
0.42
8.05
14.07
18.34
20.91
22.01
21.94
21.05
19.7
18.22
16.89
15.93
15.49
15.61
16.21
17.13
18.22
19.4
20.64
21.97
23.32
24.46
25.05
24.74
23.33
20.91
17.81
14.52
11.41
8.74
6.51
4.58
2.77
0.97
-0.81
-2.48
-3.89
-4.95
-5.65
-6.12
-6.6
-7.36
-8.64
-10.55
-13.01
-15.82
-18.71
-21.47
-23.98
-26.22
-28.32
-30.48
-32.96
-35.95
-39.43
-43.11
-46.36
-48.35
-48.29
-45.64
-40.31
-32.7
-23.57
-13.82
-4.33
4.18
11.21
16.49
19.97
21.8
22.31
21.94
21.09
20.1
19.18
18.4
17.78
17.3
16.97
16.87
17.08
17.65
18.53
19.6
20.71
21.71
22.43
22.76
22.51
21.55
19.85
17.56
15.03
12.7
10.9
9.77
9.13
8.68
8.12
7.3
6.28
5.21
4.21
3.3
2.4
1.37
0.15
-1.32
-3.01
-4.96
-7.21
-9.83
-12.81
-15.99
-19.15
-21.99
-24.32
-26.16
-27.76
-29.52
-31.82
-34.74
-37.97
-40.88
-42.56
-42.18
-39.18
-33.4
-25.18
-15.3
-4.87
4.87
12.92
18.71
22.31
24.23
25.23
25.95
26.73
27.61
28.57
29.65
31.04
32.95
35.44
38.39
41.55
44.74
47.99
51.38
54.85
57.94
59.79
59.42
56.12
49.77
40.94
30.71
20.4
11.24
4.2
-0.05
-1.26
0.36
4.1
8.84
13.39
16.79
18.58
18.82
17.94
16.42
14.68
12.9
11.14
9.38
7.5
5.36
2.82
-0.24
-3.82
-7.83
-12.07
-16.42
-20.88
-25.61
-30.76
-36.36
-42.04
-47.07
-50.54
-51.69
-50.15
-46.1
-40.13
-32.9
-24.95
-16.69
-8.53
-1.14
4.62
7.89
8.23
5.85
1.61
-3.32
-7.89
-11.56
-14.33
-16.67
-19.23
-22.58
-26.91
-31.94
-36.95
-40.98
-43.25
-43.42
-41.76
-38.99
-35.97
-33.36
-31.38
-30.0
-29.0
-28.28
-27.82
-27.61
-27.46
-26.92
-25.4
-22.45
-18.03
-12.63
-7.2
-2.82
-0.25
0.28
-0.86
-2.99
-5.46
-7.91
-10.37
-13.01
-15.97
-19.19
-22.53
-25.81
-28.95
-31.85
-34.27
-35.79
-35.82
-33.93
-29.95
-24.18
-17.25
-9.95
-2.96
3.26
8.4
12.28
14.74
15.74
15.43
14.19
12.52
10.85
9.36
7.88
6.18
4.13
1.96
0.24
-0.4
0.39
2.45
5.21
7.92
10.02
11.25
11.67
11.47
10.71
9.32
7.19
4.31
0.9
-2.65
-5.86
-8.35
-9.94
-10.79
-11.29
-11.93
-13.13
-15.08
-17.63
-20.45
-23.17
-25.5
-27.44
-29.14
-30.91
-33.02
-35.71
-39.12
-43.24
-47.86
-52.45
-56.17
-58.01
-57.07
-52.85
-45.53
-35.93
-25.29
-14.86
-5.66
1.81
7.47
11.55
14.34
16.09
16.99
17.24
17.08
16.89
17.02
17.74
19.11
21.03
23.31
25.79
28.41
31.18
34.09
37.0
39.59
41.52
42.39
41.98
40.19
37.1
32.92
27.91
22.37
16.68
11.16
6.15
1.91
-1.42
-3.69
-4.89
-5.06
-4.45
-3.46
-2.69
-2.71
-3.95
-6.56
-10.31
-14.77
-19.45
-23.95
-28.04
-31.61
-34.73
-37.5
-40.2
-43.17
-46.7
-50.81
-55.1
-58.67
-60.32
-58.95
-53.94
-45.44
-34.35
-21.99
-9.73
1.4
10.83
18.41
24.16
28.21
30.63
31.6
31.43
30.6
29.71
29.23
29.37
30.06
31.05
32.11
33.17
34.32
35.77
37.64
39.82
41.97
43.59
44.2
43.53
41.6
38.69
35.27
31.8
28.58
25.73
23.21
20.88
18.57
16.19
13.72
11.22
8.87
6.9
5.53
4.8
4.41
3.74
2.06
-1.03
-5.35
-10.04
-14.03
-16.47
-17.24
-17.05
-17.06
-18.4
-21.71
-26.86
-33.15
-39.49
-44.64
-47.42
-46.84
-42.29
-33.79
-22.16
-9.0
3.62
13.69
19.97
22.33
21.8
20.16
19.11
19.63
21.63
24.15
25.95
26.18
24.81
22.48
20.09
18.28
17.17
16.5
16.01
15.66
15.67
16.32
17.64
19.26
20.49
20.72
19.66
17.59
15.15
13.11
11.95
11.75
12.14
12.53
12.34
11.27
9.39
7.05
4.8
3.09
2.1
1.71
1.55
1.18
0.28
-1.27
-3.33
-5.66
-7.96
-10.03
-11.87
-13.59
-15.44
-17.7
-20.56
-24.05
-28.0
-31.95
-35.29
-37.28
-37.22
-34.58
-29.2
-21.42
-12.1
-2.44
6.39
13.5
18.57
21.69
23.26
23.67
23.17
21.91
19.99
17.65
15.26
13.21
11.83
11.26
11.49
12.44
13.94
15.81
17.82
19.66
21.01
21.61
21.35
20.26
18.5
16.24
13.6
10.7
7.7
4.8
2.23
0.11
-1.64
-3.24
-5.01
-7.15
-9.6
-12.08
-14.21
-15.69
-16.44
-16.66
-16.7
-16.9
-17.56
-18.79
-20.59
-22.8
-25.15
-27.29
-28.8
-29.29
-28.46
-26.08
-22.09
-16.62
-9.98
-2.68
4.65
11.36
16.89
20.89
23.19
23.84
23.03
21.08
18.35
15.22
12.08
9.28
7.12
5.81
5.46
6.1
7.64
9.88
12.54
15.29
17.84
19.92
21.33
21.94
21.66
20.5
18.54
16.07
13.5
11.24
9.58
8.63
8.26
8.22
8.32
8.42
8.53
8.6
8.5
8.0
6.9
5.1
2.73
0.09
-2.52
-4.91
-7.12
-9.31
-11.71
-14.51
-17.8
-21.51
-25.38
-28.98
-31.7
-32.95
-32.33
-29.7
-25.36
-19.81
-13.71
-7.64
-2.05
2.8
6.87
10.19
12.88
15.04
16.76
18.09
19.01
19.52
19.62
19.34
18.73
17.84
16.77
15.6
14.41
13.29
12.35
11.75
11.71
12.4
13.89
15.96
18.2
20.06
21.1
21.17
20.49
19.43
18.33
17.28
16.1
14.47
12.25
9.54
6.72
4.24
2.41
1.27
0.61
0.1
-0.54
-1.49
-2.83
-4.58
-6.75
-9.34
-12.3
-15.5
-18.77
-21.94
-24.92
-27.66
-30.25
-32.83
-35.55
-38.42
-41.3
-43.75
-45.19
-44.97
-42.63
-38.09
-31.68
-24.11
-16.2
-8.74
-2.25
3.03
7.19
10.4
12.86
14.66
15.8
16.28
16.13
15.55
14.77
14.06
13.58
13.47
13.78
14.55
15.77
17.3
18.85
20.08
20.67
20.5
19.6
18.19
16.48
14.6
12.66
10.69
8.79
7.07
5.65
4.54
3.69
2.95
2.15
1.13
-0.17
-1.75
-3.48
-5.15
-6.55
-7.54
-8.08
-8.28
-8.34
-8.44
-8.78
-9.46
-10.52
-11.94
-13.6
-15.34
-17.03
-18.63
-20.27
-22.11
-24.21
-26.37
-28.11
-28.77
-27.74
-24.69
-19.69
-13.12
-5.55
2.44
10.28
17.46
23.56
28.26
31.4
32.99
33.27
32.51
30.99
28.91
26.35
23.38
20.1
16.68
13.29
10.07
7.1
4.41
2.11
0.37
-0.63
-0.78
-0.14
0.96
2.06
2.74
2.73
2.08
0.98
-0.29
-1.55
-2.7
-3.74
-4.68
-5.55
-6.3
-6.88
-7.25
-7.43
-7.58
-7.89
-8.54
-9.6
-10.93
-12.24
-13.19
-13.55
-13.32
-12.71
-12.12
-11.97
-12.57
-14.03
-16.26
-18.9
-21.51
-23.53
-24.45
-23.92
-21.79
-18.13
-13.25
-7.6
-1.73
3.81
8.57
12.26
14.84
16.44
17.3
17.63
17.51
16.9
15.73
14.04
12.05
10.18
8.9
8.56
9.25
10.78
12.75
14.71
16.24
17.11
17.24
16.66
15.45
13.76
11.76
9.7
7.83
6.37
5.4
4.81
4.4
3.92
3.16
2.1
0.87
-0.3
-1.15
-1.52
-1.4
-0.96
-0.52
-0.55
-1.57
-4.07
-8.32
-14.28
-21.32
-28.26
-33.52
-35.5
-33.15
-26.36
-16.02
-3.84
8.26
18.66
26.35
30.91
32.33
30.72
26.34
19.66
11.53
3.23
-3.75
-8.05
-8.86
-6.26
-1.13
4.99
10.36
13.42
13.23
9.5
2.56
-6.73
-17.22
-27.61
-36.57
-42.88
-45.69
-44.69
-40.24
-33.35
-25.31
-17.39
-10.45
-4.85
-0.49
2.9
5.6
7.81
9.61
11.14
12.52
13.83
15.0
15.88
16.24
15.9
14.87
13.35
11.64
9.97
8.37
6.67
4.55
1.77
-1.77
-5.87
-10.13
-14.03
-17.1
-19.0
-19.56
-18.85
-17.09
-14.64
-12.02
-9.74
-8.26
-7.89
-8.67
-10.46
-12.99
-15.86
-18.67
-21.01
-22.51
-22.9
-22.13
-20.4
-18.11
-15.78
-13.83
-12.48
-11.7
-11.31
-10.98
-10.4
-9.33
-7.61
-5.24
-2.41
0.59
3.36
5.57
7.04
7.76
7.87
7.61
7.22
6.88
6.73
6.79
7.03
7.35
7.64
7.82
7.89
7.85
7.73
7.45
6.91
5.93
4.43
2.35
-0.31
-3.43
-6.93
-10.64
-14.43
-18.14
-21.63
-24.84
-27.73
-30.35
-32.82
-35.36
-38.23
-41.72
-45.94
-50.77
-55.69
-59.86
-62.33
-62.31
-59.45
-53.94
-46.52
-38.24
-30.16
-23.07
-17.3
-12.8
-9.24
-6.27
-3.66
-1.36
0.57
2.06
3.12
3.88
4.52
5.3
6.51
8.37
11.1
14.7
18.97
23.48
27.69
31.13
33.49
34.67
34.73
33.74
31.75
28.81
25.04
20.75
16.4
12.49
9.35
7.08
5.51
4.3
3.16
1.88
0.37
-1.34
-3.21
-5.26
-7.49
-9.91
-12.52
-15.28
-18.22
-21.44
-25.09
-29.32
-34.07
-38.98
-43.41
-46.54
-47.6
-46.09
-41.95
-35.46
-27.25
-18.12
-8.85
-0.18
7.33
13.35
17.8
20.8
22.65
23.66
24.09
24.15
23.98
23.72
23.5
23.46
23.69
24.25
25.2
26.54
28.25
30.17
32.1
33.76
34.83
35.08
34.42
32.94
30.88
28.56
26.23
24.02
21.93
19.89
17.8
15.64
13.49
11.45
9.61
7.96
6.4
4.82
3.14
1.3
-0.68
-2.79
-5.01
-7.33
