30.08
33.49
35.72
36.34
35.29
32.89
29.64
26.06
22.51
19.13
15.89
12.74
9.69
6.88
4.46
2.55
1.13
0.04
-1.01
-2.33
-4.21
-6.78
-9.99
-13.62
-17.35
-20.91
-24.17
-27.19
-30.25
-33.8
-38.35
-44.2
-51.26
-58.85
-65.67
-70.19
-71.02
-67.43
-59.51
-48.18
-34.83
-20.96
-7.83
3.65
12.9
19.7
24.17
26.71
27.89
28.33
28.47
28.54
28.53
28.35
27.94
27.31
26.59
25.99
25.77
26.14
27.27
29.15
31.6
34.31
36.91
39.18
41.03
42.53
43.77
44.8
45.5
45.74
45.39
44.38
42.77
40.63
38.03
34.99
31.51
27.64
23.52
19.4
15.52
11.94
8.62
5.25
1.48
-2.93
-8.02
-13.51
-18.92
-23.77
-27.78
-31.01
-33.84
-36.82
-40.55
-45.45
-51.66
-58.93
-66.52
-73.26
-77.73
-78.66
-75.25
-67.5
-56.24
-42.81
-28.69
-15.16
-3.1
7.03
15.07
21.13
25.49
28.56
30.91
32.99
35.07
37.15
39.0
40.32
40.96
40.95
40.52
39.99
39.64
39.64
39.98
40.52
41.03
41.2
40.76
39.54
37.54
34.96
32.12
29.32
26.77
24.42
22.11
19.67
17.09
14.53
12.27
10.53
9.32
8.5
7.84
7.14
6.26
5.07
3.42
1.25
-1.21
-3.28
-3.97
-2.4
1.7
7.54
13.39
17.15
17.07
12.35
3.25
-9.2
-23.63
-38.58
-52.6
-64.11
-71.61
-73.92
-70.64
-62.41
-50.78
-37.82
-25.44
-14.95
-6.91
-1.24
2.44
4.5
5.25
4.91
3.61
1.58
-0.87
-3.33
-5.34
-6.43
-6.28
-4.82
-2.28
0.85
3.96
6.57
8.41
9.47
9.89
9.79
9.21
8.05
6.24
3.8
0.93
-2.03
-4.75
-6.99
-8.7
-10.08
-11.34
-12.68
-14.17
-15.71
-17.2
-18.54
-19.81
-21.18
-22.92
-25.25
-28.39
-32.46
-37.51
-43.34
-49.38
-54.71
-58.13
-58.5
-55.08
-47.79
-37.28
-24.7
-11.36
1.55
13.16
22.95
30.75
36.59
40.59
42.95
43.92
43.76
42.75
41.24
39.57
38.06
36.93
36.31
36.22
36.64
37.53
38.82
40.33
41.81
42.88
43.19
42.49
40.71
38.03
34.7
31.09
27.48
24.07
20.9
17.98
15.27
12.73
10.31
8.03
5.85
3.73
1.52
-0.96
-3.87
-7.29
-11.17
-15.32
-19.53
-23.58
-27.37
-30.89
-34.3
-37.8
-41.71
-46.36
-51.95
-58.4
-65.17
-71.3
-75.5
-76.56
-73.64
-66.61
-56.07
-43.15
-29.27
-15.7
-3.38
7.2
15.91
22.88
28.33
32.51
35.64
37.89
39.42
40.34
40.77
40.86
40.75
40.67
40.81
41.29
42.04
42.79
43.15
42.74
41.37
39.09
36.19
33.09
30.21
27.82
26.05
24.78
23.8
22.84
21.65
20.11
18.2
15.93
13.37
10.58
7.69
4.86
2.3
0.19
-1.4
-2.55
-3.53
-4.67
-6.3
-8.61
-11.67
-15.31
-19.24
-23.1
-26.56
-29.48
-31.93
-34.23
-36.78
-40.02
-44.2
-49.25
-54.71
-59.66
-62.91
-63.25
-59.81
-52.4
-41.59
-28.54
-14.71
-1.45
10.26
19.89
27.26
32.52
35.91
37.76
38.41
38.19
37.41
36.32
35.14
34.01
33.03
32.22
31.62
31.25
31.18
31.51
32.29
33.45
34.75
35.82
36.29
35.87
34.44
32.11
29.12
25.82
22.56
19.59
17.07
14.98
13.19
11.5
9.71
7.68
5.42
3.04
0.64
-1.68
-3.96
-6.28
-8.8
-11.62
-14.78
-18.16
-21.56
-24.77
-27.61
-30.07
-32.31
-34.67
-37.6
-41.48
-46.44
-52.13
-57.77
-62.14
-64.01
-62.46
-57.2
-48.69
-37.97
-26.35
-15.04
-4.92
3.52
10.1
14.78
17.63
18.82
18.62
17.39
15.5
13.3
11.13
9.31
8.09
7.65
8.0
9.02
10.47
12.11
13.7
15.11
16.23
16.88
16.87
15.99
14.19
11.55
8.4
5.13
2.1
-0.46
-2.53
-4.22
-5.78
-7.47
-9.5
-11.91
-14.56
-17.19
-19.5
-21.3
-22.61
-23.64
-24.75
-26.36
-28.79
-32.17
-36.42
-41.16
-45.68
-49.02
-50.18
-48.4
-43.39
-35.48
-25.5
-14.6
-3.84
5.96
14.31
20.99
25.98
29.41
31.52
32.62
33.05
33.08
32.87
32.48
32.01
31.66
31.7
32.46
34.07
36.39
39.02
41.45
43.24
44.19
44.42
44.21
44.0
44.11
44.61
45.25
45.46
44.59
42.14
38.0
32.49
26.17
19.5
12.53
4.83
-4.4
-15.89
-29.93
-46.12
-63.38
-80.32
-95.59
-108.26
-117.79
-124.3
-128.51
-131.82
-135.91
-142.08
-150.33
-158.89
-164.41
-163.19
-152.72
-132.8
-105.67
-74.97
-44.25
-15.76
9.8
32.55
52.4
68.61
80.04
85.88
86.46
83.27
78.46
73.95
70.74
68.57
66.4
63.16
58.33
52.31
46.14
40.87
37.01
34.24
31.53
27.66
21.68
13.31
2.97
-8.45
-20.07
-31.33
-42.26
-53.4
-65.45
-78.92
-93.87
-109.88
-126.22
-142.09
-156.45
-167.98
-174.99
-175.62
-168.42
-152.96
-130.02
-101.22
-68.31
-32.55
5.23
43.91
81.3
113.83
137.43
148.92
147.4
134.68
114.63
91.73
69.61
50.39
34.68
22.25
12.72
5.92
1.76
-0.0
0.06
1.23
3.1
5.73
9.78
16.22
25.78
38.56
53.77
69.84
84.88
97.17
105.5
109.45
109.28
105.87
100.42
94.2
88.17
82.75
77.85
72.97
67.5
60.98
53.11
43.72
32.75
20.27
6.63
-7.46
-20.97
-32.81
-42.14
-48.59
-52.37
-54.05
-54.36
-53.87
-52.86
-51.32
-49.09
-45.93
-41.66
-36.13
-29.18
-20.65
-10.41
1.47
14.54
27.9
40.23
50.19
56.8
59.92
60.21
58.97
57.45
56.45
56.03
55.64
54.55
52.25
48.66
44.07
38.82
33.12
26.98
20.34
13.24
5.98
-0.97
-7.06
-11.96
-15.65
-18.39
-20.62
-22.69
-24.8
-26.9
-28.77
-30.17
-30.92
-31.03
-30.67
-30.13
-29.83
-30.14
-31.33
-33.52
-36.49
-39.76
-42.61
-44.21
-43.89
-41.27
-36.37
-29.54
-21.35
-12.44
-3.49
4.93
12.31
18.26
22.52
25.03
25.86
25.32
23.76
21.59
19.17
16.84
14.9
13.63
13.25
13.9
15.57
18.1
21.17
24.41
27.46
30.02
31.92
33.11
33.64
33.58
33.04
32.09
30.83
29.3
27.5
25.41
22.96
20.12
16.92
13.48
10.01
6.73
3.75
1.03
-1.69
-4.8
-8.61
-13.22
-18.33
-23.27
-27.16
-29.19
-28.92
-26.39
-22.12
-16.87
-11.4
-6.25
-1.69
2.2
5.42
7.99
9.94
11.3
12.19
12.74
13.08
13.32
13.51
13.64
13.67
13.56
13.29
12.91
12.55
12.29
12.21
12.24
12.22
11.96
11.29
10.15
8.6
6.76
4.78
2.79
0.94
-0.66
-1.91
-2.8
-3.4
-3.86
-4.37
-5.02
-5.76
-6.47
-6.98
-7.24
-7.29
-7.33
-7.59
-8.31
-9.62
-11.56
-14.11
-17.19
-20.69
-24.43
-28.13
-31.33
-33.43
-33.82
-32.07
-28.12
-22.4
-15.69
-8.95
-2.94
1.92
5.6
8.28
10.18
11.37
11.83
11.59
10.81
9.77
8.83
8.22
7.96
7.88
7.71
7.33
6.76
6.22
5.98
6.25
7.09
8.42
10.04
11.76
13.36
14.73
15.79
16.61
17.33
18.12
19.11
20.28
21.47
22.34
22.6
22.09
20.87
19.21
17.49
15.94
14.69
13.66
12.67
11.55
10.19
8.54
6.59
4.34
1.78
-1.01
-3.92
-6.82
-9.65
-12.51
-15.63
-19.27
-23.47
-27.88
-31.78
-34.24
-34.5
-32.21
-27.66
-21.63
-15.11
-8.99
-3.81
0.28
3.37
5.67
7.35
8.52
9.26
9.61
9.66
9.49
9.17
8.79
8.38
7.99
7.61
7.24
6.93
6.7
6.67
6.91
7.4
8.07
8.74
9.25
9.46
9.35
8.96
8.35
7.61
6.79
5.94
5.09
4.27
3.49
2.75
2.0
1.24
0.47
-0.31
-1.09
-1.87
-2.66
-3.48
-4.29
-5.11
-5.93
-6.79
-7.76
-8.86
-10.07
-11.37
-12.69
-14.06
-15.53
-17.2
-19.16
-21.52
-24.3
-27.4
-30.57
-33.35
-35.13
-35.32
-33.57
-29.84
-24.57
-18.46
-12.32
-6.76
-2.14
1.53
4.37
6.58
8.24
9.38
9.96
9.99
9.58
8.93
8.23
7.62
7.12
6.69
6.29
5.92
5.69
5.72
6.08
6.71
7.44
8.07
8.45
8.56
8.5
8.41
8.41
8.56
8.86
9.28
9.77
10.22
10.49
10.4
9.79
8.5
6.51
3.93
0.92
-2.28
-5.46
-8.51
-11.34
-13.93
-16.26
-18.34
-20.18
-21.87
-23.54
-25.42
-27.69
-30.42
-33.51
-36.61
-39.2
-40.72
-40.72
-38.92
-35.4
-30.48
-24.71
-18.73
-13.12
-8.33
-4.6
-2.01
-0.43
0.29
0.33
-0.12
-0.89
-1.84
-2.78
-3.51
-3.9
-3.86
-3.38
-2.52
-1.36
0.01
1.57
3.28
5.14
7.12
9.1
10.93
12.44
13.5
14.0
13.83
12.95
11.37
9.17
6.59
3.88
1.33
-0.86
-2.65
-4.07
-5.23
-6.23
-7.18
-8.24
-9.56
-11.32
-13.56
-16.12
-18.72
-21.02
-22.81
-24.22
-25.52
-27.14
-29.39
-32.3
-35.59
-38.68
-40.87
-41.5
-40.18
-36.81
-31.67
-25.29
-18.32
-11.39
-5.08
0.22
4.32
7.17
8.94
9.86
10.23
10.28
10.17
9.99
9.76
9.47
9.14
8.84
8.65
8.71
9.16
10.11
11.63
13.73
16.24
18.93
21.47
23.5
24.74
25.04
24.48
23.3
21.82
20.28
18.82
17.39
15.91
14.31
12.58
10.82
9.15
7.66
6.37
5.25
4.28
3.44
2.73
2.16
1.67
1.14
0.41
-0.62
-1.94
-3.45
-5.02
-6.54
-8.05
-9.67
-11.54
-13.8
-16.6
-20.07
-24.37
-29.5
-35.13
-40.52
-44.58
-46.22
-44.69
-39.86
-32.38
-23.35
-14.07
-5.7
1.1
6.05
9.26
11.1
12.0
12.39
12.62
12.95
13.51
14.34
15.34
16.37
17.25
17.9
18.37
18.84
19.57
20.76
22.52
24.72
27.1
29.28
30.94
31.88
32.03
31.48
30.39
28.93
27.21
25.3
23.22
21.04
18.89
16.98
15.45
14.35
13.55
12.82
11.93
10.8
9.48
8.17
7.04
6.15
5.37
4.5
3.28
1.61
-0.48
-2.81
-5.19
-7.49
-9.69
-11.9
-14.24
-16.82
-19.67
-22.86
-26.43
-30.43
-34.81
-39.24
-43.06
-45.38
-45.3
-42.3
-36.44
-28.37
-19.11
-9.72
-1.06
6.38
12.38
16.89
19.97
21.74
22.43
22.32
21.77
21.05
20.32
19.6
18.87
18.1
17.33
16.7
16.39
16.57
17.33
18.64
20.34
22.19
23.93
25.33
26.28
26.75
26.75
26.33
25.49
24.27
22.71
20.92
19.07
17.3
15.7
14.29
13.03
11.85
10.67
9.46
8.15
6.7
5.09
3.35
1.56
-0.15
-1.66
-2.92
-3.96
-4.92
-6.01
-7.44
-9.35
-11.76
-14.58
-17.61
-20.61
-23.44
-26.13
-28.9
-31.96
-35.39
-38.98
-42.17
-44.27
-44.6
-42.77
-38.8
-33.05
-26.15
-18.8
-11.65
-5.23
0.13
4.26
7.19
9.04
10.07
10.48
10.45
10.11
9.57
8.96
8.38
7.98
7.83
8.02
8.53
9.34
10.35
11.46
12.56
13.59
14.53
15.4
16.23
16.95
17.47
17.62
17.26
16.39
15.13
13.71
12.38
11.25
10.28
9.26
7.99
6.4
4.58
2.76
1.16
-0.14
-1.24
-2.32
-3.56
-4.99
-6.56
-8.11
-9.5
-10.58
-11.35
-11.85
-12.19
-12.57
-13.19
-14.23
-15.78
-17.8
-20.05
-22.11
-23.44
-23.5
-21.9
-18.52
-13.63
-7.82
-1.87
3.48
7.73
10.73
12.62
13.61
13.89
13.57
12.7
11.42
9.93
8.53
7.47
6.91
6.79
7.03
7.47
8.03
8.73
9.63
10.74
11.97
13.11
13.91
14.19
13.89
13.12
12.04
10.76
9.34
7.74
5.95
4.02
2.14
0.46
-0.89
-1.97
-2.88
-3.78
-4.72
-5.68
-6.59
-7.42
-8.21
-9.05
-10.01
-11.14
-12.42
-13.88
-15.53
-17.44
-19.57
-21.78
-23.65
-24.67
-24.28
-22.1
-18.14
-12.76
-6.64
-0.5
5.05
9.71
13.4
16.17
18.11
19.27
19.73
19.57
18.97
18.08
17.01
15.79
14.41
12.9
11.38
10.07
9.17
8.84
9.02
9.52
10.11
10.53
10.68
10.49
10.02
9.29
8.34
7.22
6.04
4.89
3.85
2.9
1.89
0.64
-0.99
-2.96
-5.06
-6.99
-8.5
-9.5
-10.05
-10.38
-10.71
-11.25
-12.09
-13.24
-14.69
-16.38
-18.26
-20.24
-22.23
-24.14
-25.95
-27.75
-29.68
-31.93
-34.44
-36.94
-38.85
-39.43
-38.09
-34.58
-29.14
-22.43
-15.31
-8.59
-2.79
1.86
5.42
8.07
9.99
11.26
11.9
11.99
11.68
11.2
10.81
10.67
10.8
11.12
11.49
11.85
12.21
12.64
13.16
13.77
14.31
14.65
14.66
14.34
13.75
13.0
12.2
11.43
10.71
10.04
9.41
8.8
8.22
7.59
6.9
6.09
5.16
4.13
3.04
1.93
0.85
-0.22
-1.33
-2.49
-3.68
-4.87
-6.02
-7.14
-8.32
-9.61
-11.06
-12.71
-14.49
-16.35
-18.25
-20.18
-22.15
-24.25
-26.53
-28.99
-31.47
-33.66
-35.12
-35.35
-33.98
-30.89
-26.3
-20.65
-14.57
-8.64
-3.37
0.96
4.21
6.38
7.61
8.1
8.13
7.94
7.7
7.46
7.22
6.99
6.87
7.0
7.58
8.68
10.26
12.14
14.08
15.9
17.47
18.78
19.83
20.64
21.17
21.41
21.35
21.02
20.42
19.6
18.59
17.42
16.1
14.63
12.94
11.04
9.04
7.18
5.72
4.91
4.76
5.01
5.25
5.07
4.29
2.96
1.36
-0.16
-1.36
-2.14
-2.52
-2.6
-2.52
-2.5
-2.86
-4.02
-6.4
-10.23
-15.44
-21.51
-27.55
-32.48
-35.32
-35.38
-32.5
-26.97
-19.45
-10.82
-1.93
6.47
13.84
19.82
24.28
27.22
28.76
29.1
28.52
27.31
25.74
24.1
22.58
21.32
20.34
19.57
18.93
18.32
17.77
17.33
17.08
17.04
17.12
17.14
16.84
16.03
14.56
12.42
9.68
6.53
3.22
0.11
-2.48
-4.3
-5.26
-5.38
-4.83
-3.78
-2.43
-0.93
0.51
1.67
2.31
2.22
1.23
-0.7
-3.5
-6.97
-10.79
-14.55
-17.9
-20.6
-22.62
-24.15
-25.49
-26.88
-28.47
-30.26
-32.07
-33.66
-34.73
-34.94
-33.96
-31.52
-27.54
-22.19
-15.9
-9.29
-2.97
2.51
6.84
9.86
11.55
11.96
11.22
9.53
7.19
4.59
2.19
0.4
-0.5
-0.44
0.46
1.99
3.87
5.93
8.02
10.07
12.0
13.69
15.02
15.9
16.36
16.53
16.54
16.52
16.46
16.29
15.89
15.24
14.41
13.53
12.75
12.07
11.43
10.6
9.44
7.82
5.81
3.5
1.05
-1.45
-3.96
-6.47
-8.99
-11.53
-14.12
-16.87
-19.89
-23.24
-26.81
-30.23
-32.94
-34.32
-33.93
-31.67
-27.85
-23.06
-18.0
-13.3
-9.37
-6.35
-4.25
-2.96
-2.38
-2.43
-3.03
-4.07
-5.37
-6.69
-7.75
-8.31
-8.23
-7.45
-6.02
-4.08
-1.84
0.43
2.49
4.02
4.79
4.68
3.8
2.53
1.46
1.16
1.97
3.81
6.19
8.45
10.0
10.6
10.41
9.79
9.05
8.18
6.91
4.91
1.99
-1.68
-5.62
-9.32
-12.4
-14.8
-16.75
-18.65
-20.85
-23.57
-26.83
-30.41
-33.92
-36.85
-38.68
-39.01
-37.71
-34.94
-31.1
-26.74
-22.35
-18.3
-14.79
-11.9
-9.62
-7.85
-6.47
-5.27
-4.06
-2.76
-1.42
-0.18
0.77
1.28
1.39
1.33
1.4
1.93
3.08
4.8
6.82
8.79
10.32
11.11
11.06
10.21
8.75
6.99
5.27
3.88
3.01
2.74
2.96
3.47
4.06
4.53
4.8
4.81
4.57
4.02
3.1
1.74
-0.04
-2.11
-4.3
-6.41
-8.35
-10.14
-11.89
-13.72
-15.61
-17.53
-19.36
-21.1
-22.86
-24.76
-26.79
-28.63
-29.63
-29.01
-26.11
-20.53
-12.27
-1.58
11.04
24.8
38.53
50.58
59.07
62.27
59.26
50.38
37.18
22.09
7.64
-4.17
-12.14
-15.9
-15.63
-11.8
-5.09
3.62
13.16
22.25
29.59
34.31
36.11
35.35
32.92
29.86
27.09
25.09
23.94
23.37
22.97
22.41
21.44
19.96
17.89
15.14
11.75
7.95
4.16
0.93
-1.25
-2.25
-2.3
-1.94
-1.8
-2.42
-4.02
-6.61
-9.98
-13.82
-17.85
-21.82
-25.55
-28.95
-32.05
-34.97
-37.91
-41.01
-44.19
-47.01
-48.76
-48.6
-45.87
-40.43
-32.76
-23.87
-15.01
-7.27
-1.28
2.82
5.34
6.76
7.57
8.17
8.82
9.63
10.59
11.62
12.59
13.4
14.03
14.53
15.05
15.71
16.64
17.91
19.53
21.46
23.55
25.55
27.13
27.97
27.87
26.85
25.09
22.89
20.6
18.41
16.48
14.86
13.56
12.54
11.73
10.97
10.13
9.05
7.67
6.04
4.32
2.62
0.99
-0.62
-2.38
-4.39
-6.68
-9.15
-11.64
-13.98
-16.13
-18.1
-20.03
-22.13
-24.61
-27.67
-31.34
-35.43
-39.38
-42.4
-43.57
-42.17
-37.96
-31.26
-22.91
-14.0
-5.54
1.76
7.58
11.91
14.93
16.9
18.08
18.71
19.01
19.16
19.24
19.28
19.22
19.01
18.68
18.3
18.06
18.13
18.6
19.48
20.65
21.9
23.06
23.94
24.38
24.31
23.74
22.76
21.51
20.16
18.8
17.46
16.07
14.53
12.78
10.83
8.81
6.85
5.08
3.51
2.05
0.53
-1.21
-3.26
-5.57
-8.0
-10.33
-12.44
-14.32
-16.09
-18.01
-20.34
-23.25
-26.7
-30.37
-33.73
-36.07
-36.77
-35.4
-31.87
-26.45
-19.69
-12.27
-4.83
2.1
8.17
13.21
17.19
20.19
22.33
23.75
24.61
25.06
25.32
25.6
26.12
26.99
28.18
29.55
30.92
32.11
33.02
33.62
33.87
33.75
33.18
32.14
30.65
28.82
26.79
24.69
22.5
20.14
17.49
14.43
10.99
7.26
3.41
-0.37
-3.9
-7.05
-9.74
-11.94
-13.72
-15.2
-16.54
-17.9
-19.41
-21.15
-23.12
-25.35
-27.84
-30.67
-33.75
-36.89
-39.61
-41.29
-41.32
-39.26
-35.08
-29.13
-22.01
-14.48
-7.22
-0.84
4.2
7.58
9.24
9.37
8.45
7.09
5.89
5.22
5.16
5.5
5.96
6.25
6.19
5.83
5.37
5.19
5.78
7.56
10.73
15.14
20.19
25.1
29.09
31.81
33.39
34.38
35.48
37.19
39.61
42.4
44.89
46.39
46.32
44.38
40.51
34.92
27.99
20.21
12.24
4.77
