-47.03
-35.48
-22.2
-8.56
4.32
15.67
25.09
32.37
37.5
40.6
41.86
41.62
40.24
38.19
35.92
33.83
32.24
31.39
31.36
32.16
33.72
35.84
38.28
40.74
42.85
44.26
44.67
43.91
41.92
38.82
34.87
30.4
25.75
21.14
16.68
12.33
7.97
3.54
-1.01
-5.6
-10.12
-14.43
-18.44
-22.12
-25.51
-28.81
-32.36
-36.54
-41.65
-47.67
-54.09
-59.89
-63.73
-64.3
-60.74
-52.94
-41.55
-27.8
-13.16
0.99
13.56
23.9
31.75
37.16
40.44
42.02
42.35
41.8
40.6
39.0
37.22
35.59
34.46
34.13
34.7
36.04
37.88
39.84
41.6
42.95
43.73
43.86
43.28
41.96
39.92
37.25
34.09
30.59
26.97
23.39
20.02
16.92
14.09
11.38
8.64
5.7
2.45
-1.1
-4.87
-8.74
-12.57
-16.26
-19.78
-23.15
-26.52
-30.17
-34.42
-39.58
-45.69
-52.31
-58.46
-62.8
-63.97
-61.06
-54.01
-43.58
-31.16
-18.29
-6.24
4.24
12.89
19.74
24.94
28.6
30.86
31.93
32.12
31.79
31.26
30.73
30.24
29.76
29.31
29.01
29.08
29.72
31.01
32.86
34.96
36.94
38.41
39.08
38.79
37.55
35.49
32.88
29.98
27.05
24.23
21.54
18.89
16.19
13.41
10.64
8.03
5.71
3.72
1.95
0.15
-1.94
-4.51
-7.54
-10.87
-14.21
-17.33
-20.05
-22.38
-24.46
-26.58
-29.09
-32.39
-36.68
-41.91
-47.53
-52.51
-55.63
-55.73
-52.2
-45.23
-35.69
-24.88
-14.08
-4.28
4.01
10.6
15.57
19.04
21.2
22.28
22.62
22.53
22.32
22.11
21.89
21.6
21.14
20.55
19.97
19.6
19.69
20.33
21.54
23.09
24.62
25.73
26.07
25.51
24.1
22.1
19.82
17.54
15.41
13.51
11.82
10.31
8.94
7.63
6.29
4.82
3.2
1.47
-0.26
-1.91
-3.43
-4.87
-6.36
-8.05
-10.03
-12.32
-14.83
-17.42
-19.97
-22.4
-24.72
-27.1
-29.79
-32.96
-36.58
-40.27
-43.3
-44.76
-43.81
-40.02
-33.53
-25.04
-15.64
-6.39
1.8
8.46
13.43
16.83
18.84
19.72
19.68
18.97
17.87
16.65
15.56
14.74
14.25
14.02
13.97
14.07
14.34
14.88
15.78
17.05
18.54
19.96
20.91
21.07
20.3
18.67
16.48
14.13
11.94
10.08
8.52
7.1
5.64
4.03
2.23
0.33
-1.56
-3.3
-4.78
-5.99
-6.99
-7.95
-9.05
-10.48
-12.29
-14.35
-16.47
-18.38
-19.95
-21.23
-22.48
-24.1
-26.46
-29.69
-33.55
-37.45
-40.54
-41.96
-41.06
-37.62
-31.91
-24.6
-16.54
-8.63
-1.58
4.17
8.4
11.15
12.56
12.88
12.35
11.26
9.81
8.21
6.64
5.27
4.24
3.7
3.75
4.41
5.51
6.86
8.25
9.56
10.73
11.7
12.37
12.57
12.07
10.76
8.67
6.03
3.15
0.33
-2.23
-4.43
-6.3
-7.84
-9.11
-10.16
-11.08
-11.99
-13.03
-14.24
-15.61
-17.04
-18.45
-19.8
-21.21
-22.88
-25.07
-27.96
-31.56
-35.62
-39.58
-42.73
-44.27
-43.53
-40.22
-34.47
-26.9
-18.39
-9.96
-2.44
3.64
8.13
11.15
12.93
13.73
13.77
13.23
12.28
11.12
9.94
8.93
8.17
7.68
7.48
7.61
8.11
9.04
10.38
11.97
13.54
14.75
15.31
15.06
14.02
12.4
10.51
8.64
7.02
5.66
4.45
3.11
1.46
-0.61
-3.0
-5.5
-7.86
-9.91
-11.63
-13.1
-14.48
-15.93
-17.58
-19.52
-21.74
-24.18
-26.68
-29.06
-31.21
-33.16
-35.13
-37.42
-40.36
-44.02
-48.1
-51.9
-54.48
-54.9
-52.56
-47.38
-39.76
-30.54
-20.74
-11.3
-3.03
3.54
8.22
11.09
12.44
12.75
12.51
12.09
11.71
11.37
11.01
10.59
10.15
9.84
9.86
10.33
11.24
12.44
13.7
14.82
15.68
16.25
16.53
16.44
15.86
14.69
12.99
11.0
9.06
7.46
6.23
5.19
4.02
2.42
0.33
-2.01
-4.29
-6.16
-7.5
-8.42
-9.17
-10.11
-11.52
-13.52
-16.02
-18.82
-21.58
-24.05
-26.09
-27.71
-29.13
-30.66
-32.67
-35.46
-39.13
-43.51
-48.04
-51.83
-53.82
-53.02
-48.9
-41.57
-31.81
-20.84
-9.96
-0.16
7.99
14.39
19.2
22.62
24.75
25.6
25.16
23.59
21.28
18.79
16.66
15.29
14.8
15.05
15.87
17.12
18.77
20.87
23.35
26.0
28.36
30.01
30.61
30.08
28.63
26.6
24.38
22.27
20.42
18.85
17.44
15.98
14.31
12.34
10.1
7.74
5.48
3.47
1.73
0.13
-1.57
-3.63
-6.16
-9.13
-12.33
-15.42
-18.12
-20.32
-22.13
-23.9
-26.05
-28.99
-32.93
-37.75
-43.0
-47.89
-51.39
-52.5
-50.46
-45.0
-36.47
-25.79
-14.16
-2.85
7.14
15.19
21.1
25.02
27.3
28.4
28.74
28.64
28.26
27.64
26.79
25.75
24.71
23.91
23.59
23.9
24.84
26.29
28.07
29.95
31.71
33.08
33.76
33.49
32.13
29.77
26.68
23.33
20.11
17.28
14.94
13.06
11.59
10.51
9.76
9.22
8.62
7.67
6.15
4.01
1.38
-1.48
-4.33
-7.04
-9.58
-12.0
-14.41
-16.93
-19.74
-23.01
-26.81
-30.89
-34.68
-37.23
-37.57
-34.99
-29.35
-21.19
-11.49
-1.45
7.92
15.99
22.5
27.43
30.85
32.78
33.26
32.43
30.56
28.06
25.34
22.73
20.42
18.43
16.74
15.41
14.54
14.31
14.82
16.0
17.58
19.14
20.2
20.42
19.61
17.82
15.23
12.08
8.6
4.96
1.3
-2.26
-5.63
-8.74
-11.6
-14.28
-16.86
-19.33
-21.68
-23.85
-25.87
-27.94
-30.38
-33.57
-37.65
-42.44
-47.26
-51.17
-53.1
-52.27
-48.36
-41.65
-32.87
-23.05
-13.19
-4.12
3.66
9.95
14.7
17.93
19.7
20.05
19.12
17.18
14.6
11.88
9.48
7.73
6.8
6.71
7.37
8.61
10.24
12.0
13.62
14.82
15.4
15.25
14.48
13.22
11.65
9.85
7.83
5.49
2.78
-0.24
-3.39
-6.43
-9.21
-11.69
-14.01
-16.37
-18.95
-21.86
-25.09
-28.53
-31.89
-34.76
-36.5
-36.46
-34.08
-29.21
-22.18
-13.75
-4.92
3.43
10.67
16.51
20.85
23.59
24.62
23.84
21.33
17.48
13.04
8.92
5.95
4.62
4.95
6.54
8.7
10.77
12.27
13.03
13.16
12.84
12.21
11.26
9.87
7.89
5.34
2.38
-0.7
-3.64
-6.31
-8.73
-11.06
-13.45
-16.08
-19.11
-22.69
-26.88
-31.52
-36.13
-39.87
-41.74
-40.96
-37.14
-30.55
-21.91
-12.21
-2.4
6.72
14.58
20.85
25.34
28.01
28.97
28.46
26.88
24.67
22.31
20.23
18.72
17.96
17.92
18.49
19.54
20.97
22.71
24.68
26.68
28.43
29.57
29.85
29.16
27.62
25.49
23.07
20.64
18.27
15.95
13.56
10.98
8.2
5.28
2.43
-0.12
-2.2
-3.8
-5.07
-6.28
-7.71
-9.55
-11.78
-14.28
-16.87
-19.37
-21.73
-23.99
-26.29
-28.82
-31.8
-35.46
-39.96
-45.21
-50.77
-55.81
-59.27
-60.08
-57.57
-51.6
-42.67
-31.72
-19.89
-8.26
2.35
11.38
18.58
23.93
27.62
29.94
31.28
31.96
32.26
32.36
32.37
32.35
32.32
32.33
32.36
32.47
32.72
33.19
33.91
34.8
35.69
36.29
36.36
35.74
34.43
32.65
30.65
28.72
26.96
25.36
23.76
21.96
19.83
17.35
14.67
11.99
9.54
7.46
5.78
4.41
3.21
1.98
0.62
-0.94
-2.74
-4.76
-6.96
-9.31
-11.74
-14.22
-16.8
-19.65
-22.96
-26.95
-31.58
-36.42
-40.66
-43.29
-43.41
-40.57
-34.93
-27.18
-18.37
-9.53
-1.48
5.31
10.64
14.59
17.34
19.17
20.37
21.2
21.85
22.39
22.82
23.11
23.23
23.2
23.11
23.05
23.12
23.4
23.93
24.65
25.45
26.1
26.34
25.97
24.94
23.36
21.46
19.46
17.45
15.49
13.57
11.75
10.1
8.73
7.63
6.69
5.75
4.69
3.55
2.45
1.57
0.91
0.35
-0.31
-1.25
-2.51
-4.02
-5.64
-7.31
-9.06
-11.01
-13.24
-15.8
-18.57
-21.39
-24.16
-26.78
-29.23
-31.4
-32.96
-33.45
-32.39
-29.44
-24.64
-18.48
-11.66
-4.97
0.95
5.75
9.34
11.79
13.26
13.9
13.79
13.03
11.7
9.93
7.92
5.93
4.25
3.07
2.48
2.39
2.66
3.1
3.62
4.17
4.73
5.27
5.71
5.95
5.86
5.42
4.63
3.56
2.33
1.04
-0.2
-1.3
-2.18
-2.8
-3.18
-3.41
-3.59
-3.82
-4.16
-4.6
-5.08
-5.52
-5.91
-6.27
-6.65
-7.13
-7.75
-8.53
-9.44
-10.48
-11.63
-12.86
-14.14
-15.44
-16.71
-17.97
-19.24
-20.58
-22.06
-23.66
-25.26
-26.56
-27.14
-26.56
-24.51
-20.9
-15.96
-10.19
-4.25
1.18
5.59
8.73
10.59
11.34
11.26
10.58
9.47
8.07
6.48
4.87
3.39
2.17
1.3
0.86
0.89
1.39
2.23
3.28
4.29
5.04
5.42
5.39
4.98
4.22
3.11
1.71
0.13
-1.4
-2.62
-3.32
-3.48
-3.21
-2.71
-2.17
-1.68
-1.29
-1.04
-1.03
-1.36
-2.09
-3.17
-4.39
-5.5
-6.31
-6.79
-7.13
-7.59
-8.39
-9.66
-11.28
-12.96
-14.43
-15.48
-16.09
-16.44
-16.8
-17.43
-18.49
-19.96
-21.64
-23.16
-24.06
-23.92
-22.45
-19.56
-15.45
-10.51
-5.24
-0.15
4.29
7.77
10.13
11.35
11.63
11.2
10.31
9.13
7.72
6.09
4.31
2.51
0.93
-0.22
-0.8
-0.85
-0.52
-0.02
0.47
0.87
1.17
1.43
1.64
1.77
1.75
1.53
1.1
0.53
-0.06
-0.59
-1.01
-1.36
-1.66
-1.9
-2.11
-2.27
-2.46
-2.74
-3.2
-3.88
-4.76
-5.75
-6.76
-7.69
-8.5
-9.18
-9.77
-10.36
-11.08
-12.06
-13.35
-14.92
-16.62
-18.33
-19.93
-21.41
-22.87
-24.42
-26.24
-28.41
-30.94
-33.62
-36.03
-37.57
-37.65
-35.78
-31.86
-26.2
-19.44
-12.47
-6.13
-1.04
2.55
4.68
5.66
5.9
5.73
5.33
4.73
3.9
2.88
1.8
0.84
0.19
-0.07
0.12
0.76
1.89
3.5
5.49
7.6
9.47
10.75
11.24
10.97
10.16
9.05
7.85
6.69
5.63
4.7
3.9
3.19
2.47
1.65
0.65
-0.53
-1.8
-3.07
-4.32
-5.62
-7.06
-8.68
-10.43
-12.19
-13.89
-15.49
-17.05
-18.62
-20.26
-21.98
-23.76
-25.61
-27.51
-29.5
-31.55
-33.72
-36.04
-38.66
-41.67
-45.01
-48.37
-51.1
-52.43
-51.65
-48.38
-42.66
-34.95
-26.02
-16.73
-7.88
-0.11
6.18
10.84
13.97
15.83
16.74
17.01
16.84
16.33
15.6
14.82
14.21
14.0
14.35
15.26
16.63
18.31
20.1
21.89
23.55
24.95
25.99
26.61
26.81
26.63
26.16
25.4
24.32
22.89
21.17
19.32
17.57
16.0
14.54
12.98
11.03
8.58
5.76
2.89
0.33
-1.71
-3.24
-4.49
-5.73
-7.22
-9.07
-11.36
-14.09
-17.24
-20.7
-24.33
-27.94
-31.38
-34.63
-37.83
-41.26
-45.28
-50.12
-55.69
-61.48
-66.57
-69.82
-70.13
-66.73
-59.53
-49.03
-36.27
-22.56
-9.15
2.94
13.05
20.88
26.44
29.94
31.73
32.13
31.47
30.08
28.31
26.56
25.2
24.5
24.6
25.43
26.85
28.68
30.8
33.09
35.44
37.62
39.36
40.4
40.54
39.75
38.17
36.04
33.64
31.21
28.92
26.84
25.01
23.37
21.9
20.53
19.17
17.75
16.15
14.33
12.26
9.98
7.53
4.95
2.16
-0.94
-4.44
-8.37
-12.62
-17.03
-21.35
-25.42
-29.21
-32.87
-36.67
-40.97
-46.08
-52.06
-58.58
-64.78
-69.4
-71.09
-68.77
-62.08
-51.46
-38.01
-23.22
-8.55
4.82
16.14
25.03
31.47
35.66
37.95
38.75
38.48
37.47
36.0
34.32
32.66
31.35
30.69
30.94
32.24
34.56
37.68
41.22
44.74
47.69
49.61
50.19
49.37
47.38
44.63
41.56
38.57
35.83
33.36
31.09
28.96
26.92
24.96
23.03
21.06
18.96
16.75
14.55
12.54
10.86
9.39
7.84
5.75
2.74
-1.36
-6.35
-11.78
-17.09
-21.8
-25.68
-28.76
-31.31
-33.76
-36.68
-40.59
-45.85
-52.33
-59.3
-65.45
-69.15
-69.01
-64.26
-55.12
-42.62
-28.29
-13.67
-0.01
11.86
21.53
28.88
34.03
37.17
38.6
38.66
37.64
35.9
33.79
31.7
30.03
29.09
29.03
29.91
31.6
33.91
36.57
39.26
41.64
43.41
44.33
44.29
43.32
41.5
39.0
36.04
32.92
29.93
27.29
25.07
23.21
21.45
19.55
17.35
14.88
12.28
9.75
7.43
5.35
3.46
1.67
-0.15
-2.12
-4.38
-7.09
-10.31
-13.97
-17.82
-21.56
-24.91
-27.84
-30.56
-33.58
-37.43
-42.46
-48.54
-54.97
-60.55
-63.91
-63.88
-59.87
-52.03
-41.14
-28.42
-15.19
-2.58
8.53
17.58
24.34
28.83
31.29
32.12
31.8
30.76
29.39
27.94
26.61
25.57
25.0
25.02
25.71
27.01
28.79
30.83
32.89
34.74
36.22
37.16
37.43
36.93
35.63
33.6
31.0
28.1
25.16
22.4
19.95
17.85
15.99
14.24
12.42
10.38
8.07
5.57
3.05
0.71
-1.26
-2.84
-4.21
-5.66
-7.49
-9.84
-12.69
-15.83
-19.01
-22.06
-24.96
-27.89
-31.12
-34.96
-39.72
-45.43
-51.85
-58.2
-63.31
-65.83
-64.64
-59.25
-50.05
-38.18
-25.24
-12.76
-1.93
6.67
12.98
17.24
19.86
21.22
21.69
21.54
21.0
20.26
19.48
18.8
18.38
18.32
18.72
19.65
21.14
23.16
25.6
28.24
30.75
32.77
34.0
34.25
33.52
32.03
30.05
27.9
25.76
23.73
21.79
19.92
18.05
16.13
14.1
11.88
9.45
6.85
4.23
1.76
-0.41
-2.33
-4.2
-6.31
-8.93
-12.1
-15.69
-19.42
-23.01
-26.28
-29.17
-31.75
-34.2
-36.78
-39.81
-43.62
-48.29
-53.58
-58.71
-62.55
-63.8
-61.5
-55.33
-45.72
-33.8
-20.98
-8.65
2.17
10.88
17.31
21.55
23.9
24.79
24.73
24.22
23.67
23.24
22.89
22.5
22.0
21.5
21.25
21.56
22.53
24.09
25.95
27.69
29.01
29.75
29.9
29.56
28.79
27.61
25.98
23.94
21.55
19.0
16.53
14.3
12.34
10.54
8.7
6.69
4.57
2.53
0.9
-0.11
-0.53
-0.6
-0.77
-1.45
-2.91
-5.18
-8.14
-11.51
-15.04
-18.52
-21.83
-24.96
-28.01
-31.2
-34.85
-39.25
-44.55
-50.6
-56.77
-62.0
-65.02
-64.68
-60.4
-52.3
-41.26
-28.65
-15.96
-4.42
5.15
12.4
17.36
20.36
21.8
22.11
21.69
20.84
19.83
18.86
18.09
17.61
17.48
17.72
18.31
19.23
20.43
21.9
23.52
25.1
26.37
27.02
26.83
25.72
23.74
21.12
18.21
15.31
12.63
10.23
8.04
5.88
3.69
1.47
-0.69
-2.66
-4.41
-6.02
-7.62
-9.35
-11.29
-13.4
-15.57
-17.66
-19.57
-21.33
-23.04
-24.89
-27.14
-30.04
-33.82
-38.55
-44.14
-50.11
-55.67
-59.74
-61.18
-59.14
-53.36
-44.24
-32.87
-20.65
-8.9
1.42
9.82
16.25
20.86
23.86
25.48
25.93
25.48
24.48
23.32
22.34
21.8
21.83
22.43
23.57
25.16
27.08
29.18
31.22
32.96
34.14
34.52
34.0
32.55
30.29
27.46
24.36
21.28
18.46
15.96
13.71
11.57
9.41
7.15
4.82
2.52
0.27
-1.93
-4.15
-6.47
-8.96
-11.63
-14.51
-17.59
-20.9
-24.41
-28.07
-31.83
-35.68
-39.76
-44.29
-49.48
-55.31
-61.4
-66.88
-70.59
-71.37
-68.38
-61.46
-51.15
-38.58
-25.17
-12.25
-0.87
8.4
15.39
20.27
23.41
25.3
26.38
27.02
27.43
27.68
27.79
27.75
27.62
27.58
27.82
28.54
29.84
31.66
33.8
35.99
37.93
39.37
40.14
40.23
39.66
38.54
37.02
35.24
33.31
31.32
29.31
27.34
25.47
23.7
21.98
20.18
18.16
15.8
13.1
10.18
7.22
4.44
2.01
-0.06
-1.93
-3.87
-6.24
-9.27
-13.0
-17.23
-21.57
-25.58
-28.96
-31.69
-34.07
-36.64
-40.02
-44.73
-50.97
-58.42
-66.16
-72.79
-76.71
-76.61
-71.83
-62.57
-49.92
-35.43
-20.78
-7.35
4.01
12.97
19.6
24.28
27.49
29.71
31.3
32.51
33.39
33.93
34.13
34.05
33.83
33.73
33.99
34.84
36.39
38.62
41.34
44.26
46.98
49.05
50.12
50.0
48.74
46.61
44.01
41.28
38.66
36.16
33.73
31.26
28.85
26.65
24.85
23.53
22.56
21.65
20.46
18.78
16.57
14.02
11.36
8.81
6.44
4.12
1.65
-1.21
-4.54
-8.29
-12.24
-16.17
-19.92
-23.5
-27.04
-30.78
-35.0
-39.97
-45.81
-52.43
-59.27
-65.37
-69.4
-70.11
-66.7
-59.25
-48.67
-36.43
-24.11
-12.9
-3.48
3.96
9.48
13.28
15.53
16.47
16.41
15.73
14.83
14.07
13.63
13.56
13.81
14.28
14.92
15.75
16.83
18.21
19.85
21.61
23.22
24.39
24.88
24.57
23.51
21.84
19.78
17.56
15.39
13.44
11.75
10.26
8.87
7.4
5.76
3.88
1.82
-0.36
-2.57
-4.74
-6.82
-8.8
-10.71
-12.7
-14.88
-17.37
-20.21
-23.3
-26.54
-29.81
-33.13
-36.63
-40.54
-45.03
-50.08
-55.29
-59.9
-62.9
-63.3
-60.37
-53.93
-44.38
-32.67
-20.01
-7.63
3.51
12.78
19.94
25.04
28.29
29.97
30.36
29.71
28.29
26.38
24.32
22.45
21.08
20.38
20.4
21.08
22.24
23.69
25.27
26.83
28.21
29.23
29.63
29.2
27.81
25.52
22.56
19.34
16.27
13.66
11.63
10.17
9.13
8.35
7.69
7.01
6.23
5.3
4.23
3.08
1.94
0.78
-0.53
-2.21
-4.5
-7.52
-11.21
-15.3
-19.4
-23.22
-26.65
-29.83
-33.07
-36.8
-41.35
-46.82
-52.93
-58.94
-63.72
-66.03
-64.84
-59.72
-51.03
-39.83
-27.57
-15.66
-5.09
3.68
10.64
16.02
20.0
22.7
24.19
24.6
24.17
23.23
22.15
21.21
20.59
20.34
20.46
20.92
21.67
22.58
23.41
23.9
23.81
23.08
21.83
20.34
18.94
17.87
17.19
16.78
16.46
15.95
15.06
13.69
11.9
9.85
7.8
5.98
4.48
3.2
1.91
0.3
-1.77
-4.24
-6.86
-9.32
-11.39
-13.06
-14.5
-16.02
-17.89
-20.24
-23.03
-26.07
-29.13
-32.02
-34.74
-37.38
-40.2
-43.47
-47.44
-52.13
-57.17
-61.78
-64.87
-65.26
-62.05
-54.99
-44.57
-32.0
-18.79
-6.34
4.35
12.85
19.17
23.6
26.48
28.11
28.8
28.83
28.5
28.09
27.76
27.54
27.36
27.14
26.89
26.71
26.74
27.09
27.75
28.58
29.4
30.01
30.22
29.95
29.16
27.9
26.28
24.49
22.66
20.92
19.27
17.64
15.98
14.28
12.58
10.98
9.51
8.14
6.73
5.14
3.25
1.13
-1.07
-3.16
-5.08
-6.94
-9.0
-11.52
-14.64
-18.28
-22.2
-26.12
-29.84
-33.33
-36.7
-40.13
-43.8
-47.87
-52.42
-57.37
-62.26
-66.26
-68.19
-66.87
-61.57
-52.34
-40.1
-26.43
-13.03
-1.27
8.11
15.02
19.83
23.01
24.91
25.79
25.75
24.94
23.6
22.08
20.73
19.84
19.55
19.85
20.59
21.64
22.88
24.31
25.93
27.69
29.41
30.77
31.42
31.09
29.7
27.38
24.47
21.37
18.49
16.11
14.32
13.04
11.98
10.77
9.08
6.7
3.72
0.42
-2.79
-5.51
-7.52
-8.86
-9.86
-11.04
-12.99
-16.09
-20.33
-25.11
-29.22
-31.22
-29.99
-25.32
-18.16
-10.5
-4.74
-3.0
-6.3
-14.33
-25.51
-37.46
-47.56
-53.56
-54.04
-48.6
-38.0
-23.9
-8.49
5.98
17.79
25.95
30.41
31.79
31.15
29.61
28.02
26.84
26.08
25.45
24.55
23.06
20.88
18.21
15.53
13.46
12.59
13.16
15.01
17.56
20.03
21.65
21.97
20.85
18.49
15.26
11.52
7.57
3.66
-0.04
-3.39
-6.3
-8.76
-10.81
-12.49
-13.82
-14.69
-15.05
-14.91
-14.53
-14.36
-14.92
-16.62
-19.64
-23.86
-28.98
-34.67
-40.67
-46.74
-52.51
-57.37
-60.5
-61.06
-58.52
-52.81
-44.24
-33.39
-20.91
-7.44
6.2
19.0
29.85
37.76
42.24
43.44
42.11
39.22
35.69
32.25
29.38
27.45
26.76
27.38
29.14
31.59
34.1
36.17
37.52
38.16
38.24
37.96
37.36
36.38
34.92
32.95
30.58
28.03
25.48
23.09
20.84
18.65
16.34
13.76
10.89
7.78
4.59
1.43
-1.64
-4.69
-7.84
-11.24
-14.88
-18.68
-22.44
-26.0
-29.37
-32.74
-36.4
-40.64
-45.56
-51.04
-56.73
-62.02
-66.16
-68.29
-67.56
-63.32
-55.45
-44.46
-31.49
-18.1
-5.74
4.56
12.41
18.01
21.86
24.46
26.11
26.95
27.0
26.43
25.47
24.48
23.73
23.35
23.3
23.46
23.76
24.24
25.05
26.28
27.86
29.54
30.93
31.63
31.42
30.26
28.37
26.1
23.79
21.63
19.65
17.68
15.48
12.89
9.88
6.61
3.39
0.52
-1.83
-3.63
-5.08
-6.51
-8.21
-10.39
-13.06
-16.07
-19.17
-22.06
-24.58
-26.71
-28.65
-30.71
-33.3
-36.75
-41.19
-46.38
-51.64
-55.9
-57.93
-56.7
-51.71
-43.17
-32.0
-19.55
-7.21
3.87
12.96
19.81
24.49
27.26
28.46
28.51
27.79
26.66
25.4
24.18
23.11
22.26
21.7
21.51
21.85
22.81
24.43
26.57
28.92
31.1
32.73
33.6
33.63
32.95
31.72
30.11
28.2
26.07
23.81
21.51
19.26
17.12
15.04
12.9
10.55
7.88
4.86
1.59
-1.68
-4.66
-7.06
-8.75
-9.77
-10.42
-11.11
-12.26
-14.07
-16.45
-19.09
-21.65
-23.9
-25.88
-27.88
-30.28
-33.43
-37.48
-42.24
-47.08
-51.02
-52.9
-51.74
-47.06
-39.12
-28.86
-17.61
-6.67
2.98
10.84
16.75
20.78
23.09
23.92
23.56
22.37
20.73
18.9
17.05
15.26
13.67
12.43
11.75
11.78
12.56
14.04
15.98
18.13
20.17
21.83
22.88
23.19
22.73
21.56
19.85
17.73
15.41
13.0
10.62
8.37
6.24
4.19
2.12
-0.12
-2.55
-5.13
-7.71
-10.15
-12.32
-14.21
-15.86
-17.47
-19.23
-21.4
-24.24
-27.93
-32.39
-37.12
-41.2
-43.47
-42.94
-39.11
-32.21
-23.11
-13.01
-3.06
5.84
13.16
18.7
22.43
24.48
25.1
24.65
23.56
22.18
20.75
19.34
17.96
16.66
15.56
14.85
14.65
15.0
15.76
16.73
17.65
18.36
18.71
18.65
18.13
17.13
15.67
13.78
11.54
9.04
6.38
3.67
1.01
-1.53
-3.9
-6.06
-7.99
-9.74
-11.41
-13.11
-14.99
-17.13
-19.5
-21.97
-24.3
-26.31
-27.97
-29.51
-31.35
-34.0
-37.79
-42.65
-47.9
-52.42
-54.84
-54.02
-49.46
-41.49
-31.14
-19.82
-8.77
1.21
9.84
17.17
23.3
28.21
31.82
34.08
35.06
34.88
33.56
31.04
27.32
22.76
18.17
14.59
12.89
13.26
15.15
17.49
19.21
19.77
19.22
17.97
16.44
14.74
12.81
10.59
8.38
6.7
6.14
6.91
8.68
10.53
11.39
10.48
7.72
3.72
-0.4
-3.55
-5.05
-4.78
-3.18
-0.97
1.0
2.0
1.5
-0.63
-3.97
-7.58
-10.25
-10.94
-9.35
-6.05
-2.34
0.29
0.78
-1.12
-4.84
-9.21
-12.87
-14.63
-13.68
-9.7
-2.99
5.6
14.84
23.47
30.42
35.09
37.38
37.53
36.06
33.59
30.83
28.45
27.02
26.79
27.66
29.1
30.41
30.99
30.66
29.8
29.25
29.88
32.18
35.98
40.36
44.03
45.74
44.7
40.73
34.18
25.7
15.95
5.52
-5.1
-15.44
-25.05
-33.53
-40.52
-45.76
-49.08
-50.35
-49.65
-47.23
-43.63
-39.57
-35.85
-33.13
-31.93
-32.62
-35.45
-40.53
-47.74
-56.56
-66.11
-75.14
-82.41
-86.95
-88.36
-86.85
-83.04
-77.6
-70.94
-63.07
-53.75
-42.81
-30.5
-17.54
-5.03
5.96
14.74
21.21
25.71
28.84
31.09
32.71
33.66
33.7
32.57
30.09
26.29
21.42
15.95
10.54
5.83
2.43
0.68
0.7
2.3
5.04
8.26
11.27
13.49
14.7
15.16
15.53
16.77
19.73
24.84
31.9
40.03
47.79
53.63
56.18
54.74
49.41
41.04
31.03
20.87
11.82
4.58
-0.77
-4.69
-7.94
-11.37
-15.62
-20.94
-27.17
-33.8
-40.12
-45.47
-49.42
-51.99
-53.62
-55.08
-57.14
-60.22
-64.07
-67.7
-69.55
-68.06
-62.13
-51.57
-37.22
-20.68
-3.91
11.25
23.4
31.73
36.02
36.59
34.2
29.87
24.69
19.61
15.3
12.11
10.16
9.39
9.7
10.94
12.92
15.45
18.32
21.27
23.98
26.03
27.0
26.58
24.75
21.81
18.3
14.83
11.75
9.12
6.75
4.39
1.88
-0.81
-3.63
-6.64
-9.92
-13.56
-17.48
-21.39
-24.9
-27.71
-29.78
-31.38
-32.95
-35.01
-37.88
-41.73
-46.45
-51.65
-56.66
-60.52
-62.2
-60.8
-55.91
-47.74
-37.14
-25.35
-13.62
-2.89
6.35
13.99
20.21
25.19
29.04
31.83
33.59
34.48
34.72
34.57
34.17
33.54
32.59
31.24
29.55
27.76
26.26
25.35
25.15
25.49
26.0
26.22
25.8
24.61
22.74
20.48
18.17
16.03
14.16
12.39
10.48
8.14
5.24
1.83
-1.89
-5.66
-9.27
-12.54
-15.33
-17.56
-19.19
-20.29
-21.07
-21.78
-22.68
-23.87
-25.21
-26.47
-27.5
-28.43
-29.71
-31.89
-35.28
-39.56
-43.74
-46.27
-45.68
-41.08
-32.55
-21.16
-8.51
3.79
14.54
23.13
29.43
33.53
35.64
36.02
35.05
33.23
31.12
29.19
27.63
26.43
25.43
24.46
23.51
22.75
22.4
22.59
23.38
24.55
25.81
26.81
27.32
27.24
26.65
25.64
24.29
22.59
20.53
18.18
15.73
13.45
11.56
10.1
8.89
7.67
6.27
4.66
3.06
1.66
0.54
-0.4
-1.43
-2.78
-4.55
-6.62
-8.85
-11.04
-13.12
-15.15
-17.24
-19.49
-21.97
-24.69
-27.74
-31.27
-35.41
-40.2
-45.42
-50.41
-54.16
-55.51
-53.48
-47.66
-38.39
-26.67
-13.95
-1.72
8.88
17.19
23.11
26.9
29.0
29.91
30.01
29.61
28.91
28.1
27.27
26.49
25.79
25.13
24.55
24.15
24.08
24.5
25.47
26.84
28.31
29.52
30.16
30.05
29.23
27.86
26.14
24.27
22.37
20.48
18.59
16.69
14.75
12.8
10.86
8.96
7.11
5.26
3.38
1.49
-0.36
-2.1
-3.69
-5.15
-6.55
-8.04
-9.77
-11.88
-14.41
-17.29
-20.32
-23.19
-25.61
-27.46
-28.83
-30.09
-31.69
-34.07
-37.41
-41.51
-45.76
-49.28
-51.05
-50.21
-46.22
-39.08
-29.34
-17.98
-6.23
4.7
13.92
20.97
25.8
28.7
30.12
30.47
30.1
29.25
28.09
26.76
25.33
23.87
22.49
21.31
20.54
20.38
21.02
22.43
24.47
26.83
29.17
31.18
32.64
33.47
33.63
33.15
32.08
30.48
28.43
26.0
23.26
20.27
17.11
13.82
10.44
7.04
3.74
0.66
-2.12
-4.63
-7.05
-9.62
-12.54
-15.82
-19.26
-22.56
-25.42
-27.7
-29.39
-30.55
-31.25
-31.56
-31.61
-31.68
-32.23
-33.81
-36.82
-41.39
-47.17
-53.45
-59.15
-63.18
-64.52
-62.65
-57.56
-49.8
-40.39
-30.53
-21.3
-13.48
-7.52
-3.58
-1.57
-1.33
-2.57
-4.96
-8.08
-11.57
-15.18
-18.76
-22.23
-25.5
-28.42
-30.77
-32.37
-33.03
-32.65
-31.17
-28.58
-24.91
-20.31
-15.07
-9.52
-3.84
2.12
8.88
17.05
26.96
38.29
49.94
60.36
68.08
72.32
73.3
72.07
70.01
68.26
67.28
66.92
66.55
65.47
63.14
59.23
53.64
46.36
37.44
27.05
15.51
3.27
-9.14
-21.18
-32.31
-41.96
-49.5
-54.28
-55.75
-53.63
-48.09
-39.72
-29.46
-18.49
-7.95
1.24
8.41
13.28
15.86
16.35
15.11
12.55
9.09
5.15
1.18
-2.43
-5.41
-7.59
-8.95
-9.56
-9.47
-8.76
-7.43
-5.54
-3.24
-0.77
1.55
3.36
4.37
4.43
3.51
1.73
-0.67
-3.43
-6.27
-8.92
-11.16
-12.89
-14.09
-14.91
-15.63
-16.59
-18.05
-20.14
-22.79
-25.8
-28.94
-31.96
-34.75
-37.21
-39.37
-41.35
-43.39
-45.88
-49.25
-53.72
-59.08
-64.6
-69.06
-71.11
-69.72
-64.45
-55.61
-44.1
-31.13
-17.96
-5.65
5.07
13.84
20.63
25.66
29.21
31.57
32.89
33.25
32.74
31.57
30.06
28.66
27.72
27.53
28.15
29.56
31.65
34.25
37.12
39.92
42.27
43.79
44.23
43.51
41.71
39.07
35.91
32.56
29.29
26.33
23.71
21.4
19.22
17.06
14.82
12.52
10.26
8.1
6.01
3.82
1.22
-2.07
