66.15
74.42
80.99
85.48
87.4
86.33
82.06
74.81
65.22
54.28
43.08
32.65
23.6
16.16
10.15
5.14
0.79
-3.1
-6.5
-9.2
-10.95
-11.55
-10.93
-9.16
-6.53
-3.48
-0.56
1.75
3.21
3.91
4.22
4.63
5.45
6.71
8.01
8.67
7.83
4.7
-1.27
-10.16
-21.46
-34.0
-46.03
-55.59
-60.92
-61.0
-55.75
-46.11
-33.66
-20.24
-7.45
3.57
12.22
18.36
22.11
23.72
23.53
21.96
19.52
16.83
14.53
13.2
13.27
14.86
17.75
21.49
25.45
29.05
31.83
33.55
34.13
33.64
32.14
29.71
26.37
22.19
17.34
12.19
7.24
3.01
-0.09
-1.9
-2.64
-2.83
-3.16
-4.28
-6.56
-10.02
-14.41
-19.31
-24.39
-29.46
-34.58
-39.92
-45.57
-51.36
-56.74
-60.87
-62.82
-61.85
-57.69
-50.56
-41.09
-30.14
-18.54
-6.97
4.08
14.18
22.91
29.81
34.47
36.72
36.7
34.91
32.04
28.81
25.78
23.25
21.33
20.06
19.49
19.67
20.63
22.21
24.04
25.57
26.2
25.5
23.3
19.8
15.47
10.97
6.89
3.6
1.18
-0.63
-2.28
-4.21
-6.73
-9.99
-13.9
-18.28
-22.89
-27.5
-31.97
-36.32
-40.72
-45.46
-50.83
-56.83
-63.02
-68.5
-72.02
-72.4
-68.86
-61.37
-50.6
-37.76
-24.18
-11.07
0.76
10.9
19.22
25.79
30.82
34.58
37.42
39.63
41.43
42.85
43.83
44.29
44.31
44.12
44.11
44.62
45.82
47.54
49.28
50.4
50.24
48.33
44.57
39.26
32.99
26.49
20.48
15.44
11.61
8.95
7.17
5.91
4.76
3.42
1.73
-0.3
-2.58
-5.07
-7.93
-11.43
-15.91
-21.48
-27.83
-34.13
-39.1
-41.35
-39.75
-33.86
-24.13
-11.8
1.4
13.76
24.11
32.18
38.6
44.59
51.41
59.75
69.46
79.45
87.98
93.12
93.37
88.06
77.7
63.88
48.93
35.42
25.37
19.91
19.02
21.72
26.45
31.53
35.57
37.61
37.17
34.19
28.84
21.4
12.19
1.54
-10.11
-22.12
-33.62
-43.53
-50.72
-54.23
-53.48
-48.61
-40.64
-31.37
-23.05
-17.77
-16.72
-19.8
-25.63
-32.1
-37.13
-39.39
-38.48
-34.8
-29.11
-22.13
-14.5
-6.75
0.54
6.79
11.51
14.61
16.32
17.07
17.28
17.16
16.66
15.66
14.16
12.36
10.67
9.44
8.83
8.81
9.16
9.67
10.21
10.76
11.38
12.02
12.46
12.37
11.39
9.34
6.37
2.9
-0.51
-3.43
-5.7
-7.43
-8.86
-10.18
-11.37
-12.24
-12.63
-12.56
-12.28
-12.26
-12.9
-14.37
-16.55
-19.06
-21.49
-23.55
-25.27
-26.87
-28.6
-30.48
-32.15
-32.97
-32.2
-29.33
-24.33
-17.68
-10.2
-2.78
3.85
9.23
13.22
15.87
17.37
18.0
18.04
17.76
17.3
16.69
15.83
14.56
12.82
10.66
8.3
6.09
4.28
3.04
2.32
1.96
1.76
1.49
1.03
0.3
-0.76
-2.15
-3.86
-5.76
-7.67
-9.39
-10.73
-11.65
-12.23
-12.6
-12.88
-13.11
-13.23
-13.13
-12.78
-12.23
-11.66
-11.31
-11.41
-12.14
-13.48
-15.28
-17.31
-19.26
-20.91
-22.16
-23.05
-23.76
-24.54
-25.58
-26.95
-28.59
-30.28
-31.71
-32.44
-32.03
-30.09
-26.37
-20.9
-14.04
-6.44
1.09
7.76
13.05
16.8
19.13
20.39
20.87
20.77
20.14
18.94
17.21
15.09
12.89
10.97
9.65
9.11
9.34
10.17
11.35
12.63
13.79
14.64
14.97
14.63
13.57
11.82
9.65
7.43
5.52
4.16
3.36
2.92
2.5
1.84
0.78
-0.61
-2.11
-3.52
-4.69
-5.63
-6.42
-7.18
-8.0
-8.9
-9.9
-11.04
-12.36
-13.91
-15.66
-17.51
-19.33
-20.99
-22.52
-24.03
-25.67
-27.55
-29.53
-31.26
-32.18
-31.72
-29.46
-25.32
-19.64
-13.07
-6.4
-0.36
4.59
8.25
10.6
11.71
11.73
10.79
9.11
6.94
4.62
2.49
0.87
-0.05
-0.19
0.37
1.46
2.85
4.33
5.7
6.83
7.57
7.77
7.32
6.2
4.5
2.52
0.64
-0.78
-1.54
-1.73
-1.67
-1.78
-2.44
-3.84
-5.93
-8.48
-11.15
-13.59
-15.57
-16.98
-17.85
-18.38
-18.84
-19.51
-20.67
-22.44
-24.92
-28.0
-31.45
-34.86
-37.59
-38.98
-38.42
-35.59
-30.54
-23.75
-15.93
-7.86
-0.26
6.28
11.34
14.65
16.16
16.04
14.68
12.56
10.15
7.79
5.67
3.89
2.56
1.82
1.76
2.47
3.9
5.92
8.31
10.8
13.08
14.83
15.74
15.6
14.41
12.36
9.83
7.2
4.76
2.65
0.84
-0.81
-2.43
-4.08
-5.78
-7.47
-9.15
-10.82
-12.55
-14.36
-16.24
-18.15
-20.02
-21.85
-23.68
-25.59
-27.67
-30.01
-32.71
-35.86
-39.49
-43.42
-47.17
-49.98
-50.98
-49.49
-45.3
-38.71
-30.49
-21.57
-12.83
-4.92
1.75
6.97
10.69
12.96
13.93
13.87
13.07
11.86
10.47
9.08
7.8
6.72
5.92
5.45
5.42
5.85
6.78
8.14
9.76
11.45
13.0
14.23
14.99
15.22
14.87
13.93
12.43
10.42
8.03
5.42
2.79
0.25
-2.21
-4.68
-7.34
-10.3
-13.58
-17.08
-20.62
-24.04
-27.18
-29.96
-32.26
-33.95
-34.94
-35.19
-34.79
-34.04
-33.39
-33.39
-34.6
-37.46
-42.11
-48.3
-55.26
-61.83
-66.62
-68.38
-66.31
-60.29
-50.86
-39.08
-26.19
-13.39
-1.67
8.29
16.1
21.56
24.64
25.46
24.34
21.77
18.42
14.94
11.98
9.99
9.22
9.69
11.3
13.89
17.24
21.09
25.11
28.9
32.09
34.35
35.49
35.51
34.54
32.83
30.66
28.32
25.95
23.64
21.34
18.98
16.51
13.98
11.57
9.46
7.8
6.56
5.57
4.49
3.02
0.94
-1.76
-4.93
-8.29
-11.56
-14.55
-17.23
-19.71
-22.25
-25.21
-28.95
-33.66
-39.18
-44.87
-49.68
-52.28
-51.54
-46.87
-38.47
-27.25
-14.52
-1.65
10.35
20.82
29.48
36.18
40.86
43.5
44.24
43.41
41.54
39.18
36.77
34.67
33.05
32.04
31.79
32.44
34.0
36.36
39.2
42.09
44.54
46.11
46.51
45.66
43.71
40.96
37.78
34.51
31.35
28.33
25.37
22.34
19.13
15.67
11.9
7.79
3.37
-1.29
-5.96
-10.37
-14.28
-17.57
-20.38
-22.98
-25.76
-29.1
-33.25
-38.18
-43.52
-48.49
-52.03
-53.08
-50.84
-45.05
-36.1
-24.92
-12.68
-0.56
10.56
20.1
27.8
33.51
37.19
38.96
39.06
37.88
35.97
33.83
31.95
30.64
30.04
30.09
30.64
31.47
32.35
33.15
33.77
34.14
34.19
33.87
33.12
31.98
30.47
28.65
26.64
24.5
22.27
19.96
17.55
14.95
12.13
9.05
5.79
2.54
-0.49
-3.12
-5.28
-7.03
-8.52
-9.95
-11.48
-13.31
-15.57
-18.48
-22.2
-26.82
-32.22
-37.95
-43.19
-46.85
-47.84
-45.39
-39.29
-30.06
-18.87
-7.15
3.76
12.97
20.12
25.25
28.58
30.32
30.61
29.64
27.74
25.37
23.03
21.15
19.9
19.22
18.98
19.03
19.38
20.06
21.05
22.26
23.49
24.54
25.19
25.32
24.83
23.69
22.03
20.04
18.0
16.16
14.58
13.16
11.66
9.93
7.97
5.99
4.28
3.02
2.21
1.64
1.05
0.25
-0.75
-1.84
-2.91
-3.93
-5.02
-6.4
-8.36
-11.14
-14.89
-19.64
-25.3
-31.49
-37.62
-42.79
-45.97
-46.25
-43.1
-36.54
-27.27
-16.41
-5.27
4.99
13.61
20.22
24.82
27.62
28.89
28.87
27.8
25.93
23.51
20.84
18.21
15.93
14.25
13.36
13.35
14.16
15.57
17.2
18.68
19.68
20.02
19.67
18.8
17.67
16.57
15.75
15.28
15.11
14.99
14.59
13.59
11.78
9.12
5.75
1.95
-1.97
-5.7
-9.0
-11.75
-13.96
-15.81
-17.57
-19.53
-21.83
-24.41
-27.04
-29.43
-31.47
-33.25
-35.14
-37.62
-41.04
-45.35
-50.03
-54.16
-56.57
-56.27
-52.7
-45.89
-36.47
-25.5
-14.15
-3.48
5.71
12.95
18.07
21.16
22.48
22.43
21.46
19.98
18.28
16.54
14.86
13.34
12.1
11.35
11.22
11.75
12.77
13.98
15.04
15.66
15.73
15.29
14.47
13.37
12.09
10.69
9.23
7.83
6.59
5.53
4.59
3.6
2.39
0.86
-0.96
-2.95
-4.98
-6.94
-8.78
-10.49
-12.08
-13.51
-14.77
-15.86
-16.85
-17.92
-19.33
-21.36
-24.23
-27.99
-32.46
-37.19
-41.48
-44.4
-45.1
-42.94
-37.75
-29.89
-20.2
-9.84
0.07
8.68
15.49
20.37
23.41
24.82
24.81
23.65
21.6
19.02
16.27
13.68
11.51
9.91
8.94
8.58
8.83
9.64
10.92
12.48
14.07
15.33
15.96
15.73
14.59
12.63
10.08
7.21
4.27
1.48
-1.03
-3.15
-4.86
-6.19
-7.29
-8.37
-9.72
-11.5
-13.73
-16.2
-18.57
-20.54
-22.03
-23.26
-24.66
-26.67
-29.61
-33.5
-38.02
-42.52
-46.12
-47.86
-46.94
-42.95
-36.05
-26.94
-16.78
-6.82
1.94
8.94
14.12
17.7
20.0
21.23
21.5
20.84
19.31
17.12
14.63
12.3
10.61
9.91
10.28
11.64
13.71
16.13
18.58
20.79
22.55
23.72
24.17
23.81
22.66
20.82
18.5
15.94
13.32
10.74
8.19
5.61
2.92
0.09
-2.81
-5.69
-8.46
-11.09
-13.63
-16.11
-18.58
-20.98
-23.2
-25.2
-27.05
-28.96
-31.24
-34.24
-38.19
-43.09
-48.54
-53.72
-57.58
-58.99
-57.09
-51.58
-42.85
-31.91
-20.09
-8.73
1.19
9.16
15.09
19.18
21.73
23.08
23.51
23.34
22.84
22.28
21.83
21.58
21.56
21.81
22.42
23.55
25.28
27.55
30.09
32.45
34.16
34.88
34.5
33.12
30.99
28.45
25.73
23.09
20.63
18.37
16.29
14.32
12.4
10.54
8.78
7.19
5.82
4.61
3.39
1.96
0.11
-2.26
-5.11
-8.26
-11.45
-14.45
-17.13
-19.53
-21.82
-24.29
-27.33
-31.22
-36.06
-41.49
-46.68
-50.43
-51.51
-49.04
-42.9
-33.76
-22.85
-11.59
-1.12
7.81
14.95
20.29
23.97
26.17
27.08
26.96
26.13
24.92
23.64
22.51
21.68
21.26
21.3
21.81
22.79
24.15
25.78
27.54
29.24
30.7
31.71
32.05
31.6
30.38
28.55
26.41
24.34
22.55
21.06
19.71
18.28
16.55
14.48
12.13
9.72
7.43
5.35
3.49
1.76
0.05
-1.77
-3.78
-6.04
-8.52
-11.16
-13.84
-16.43
-18.85
-21.09
-23.31
-25.75
-28.75
-32.52
-36.99
-41.6
-45.36
-47.09
-45.83
-41.14
-33.31
-23.31
-12.44
-1.92
7.37
14.99
20.84
25.06
27.8
29.22
29.54
29.0
27.91
26.57
25.23
24.05
23.12
22.49
22.2
22.36
23.05
24.29
25.94
27.72
29.22
30.06
29.94
28.8
26.81
24.3
21.69
19.32
17.39
15.9
14.69
13.55
12.27
10.69
8.71
6.35
3.69
0.89
-1.82
-4.25
-6.25
-7.82
-9.11
-10.32
-11.64
-13.14
-14.74
-16.29
-17.65
-18.77
-19.72
-20.69
-21.88
-23.49
-25.7
-28.58
-32.08
-35.91
-39.44
-41.81
-42.11
-39.66
-34.31
-26.54
-17.36
-7.97
0.56
7.56
12.83
16.51
18.91
20.26
20.75
20.51
19.67
18.44
17.07
15.76
14.66
13.8
13.18
12.82
12.81
13.17
13.94
15.03
16.21
17.22
17.83
17.85
17.27
16.15
14.63
12.89
11.11
9.48
8.1
6.95
5.92
4.8
3.44
1.76
-0.12
-1.99
-3.67
-5.1
-6.42
-7.83
-9.54
-11.53
-13.66
-15.67
-17.36
-18.7
-19.86
-21.06
-22.57
-24.6
-27.25
-30.46
-33.9
-37.02
-39.03
-39.16
-36.84
-31.94
-24.9
-16.52
-7.81
0.28
7.08
12.23
15.66
17.47
17.81
16.92
15.1
12.73
10.22
7.98
6.29
5.31
5.0
5.28
6.05
7.26
8.92
10.94
13.12
15.13
16.55
17.11
16.65
15.29
13.31
11.03
8.71
6.52
4.49
2.58
0.75
-1.01
-2.68
-4.22
-5.62
-6.89
-8.1
-9.37
-10.84
-12.6
-14.69
-17.06
-19.56
-21.97
-24.11
-25.9
-27.48
-29.14
-31.31
-34.32
-38.21
-42.6
-46.71
-49.48
-49.94
-47.46
-41.97
-34.01
-24.54
-14.74
-5.69
1.82
7.44
11.21
13.42
14.49
14.78
14.58
14.12
13.56
13.03
12.59
12.22
11.84
11.42
11.08
11.1
11.78
13.34
15.65
18.3
20.7
22.28
22.75
22.22
21.0
19.5
18.0
16.59
15.2
13.76
12.23
10.66
9.1
7.56
6.01
4.37
2.63
0.84
-0.85
-2.31
-3.5
-4.52
-5.66
-7.16
-9.26
-11.98
-15.22
-18.71
-22.17
-25.34
-28.13
-30.63
-33.14
-36.09
-39.89
-44.73
-50.39
-56.11
-60.77
-63.15
-62.25
-57.65
-49.6
-38.91
-26.76
-14.4
-2.98
6.67
14.06
19.1
22.04
23.4
23.74
23.59
23.26
22.92
22.65
22.51
22.67
23.3
24.61
26.66
29.4
32.62
36.07
39.45
42.51
45.01
46.81
47.79
47.85
46.99
45.21
42.67
39.55
36.17
32.84
29.87
27.43
25.52
23.95
22.45
20.81
19.0
17.15
15.5
14.2
13.23
12.35
11.26
9.66
7.51
4.95
2.23
-0.35
-2.6
-4.46
-6.04
-7.53
-9.22
-11.43
-14.43
-18.33
-23.04
-28.09
-32.74
-36.01
-36.87
-34.54
-28.62
-19.3
-7.28
6.33
20.29
33.42
44.67
53.11
57.7
57.39
51.34
39.43
22.7
3.37
-15.54
-31.16
-41.52
-46.11
-45.72
-41.83
-35.96
-29.22
-22.29
-15.69
-10.05
-6.1
-4.46
-5.35
-8.36
-12.63
-17.18
-21.26
-24.71
-27.83
-31.24
-35.45
-40.69
-46.73
-53.13
-59.35
-65.01
-69.98
-74.31
-78.14
-81.59
-84.76
-87.62
-90.06
-91.74
-92.08
-90.32
-85.72
-77.77
-66.53
-52.64
-37.26
-21.81
-7.63
4.32
13.56
20.12
24.34
26.78
28.08
28.95
30.21
32.67
37.0
43.44
51.61
60.57
69.04
75.78
79.97
81.41
80.38
77.43
73.13
67.96
62.24
56.19
50.0
43.9
38.18
33.17
29.29
26.88
26.08
26.77
28.52
30.7
32.68
33.97
34.31
33.67
32.19
30.07
27.53
24.82
22.19
19.82
17.88
16.43
15.43
14.82
14.45
14.25
14.1
13.94
13.74
13.46
13.12
12.66
12.1
11.39
10.49
9.37
8.01
6.36
4.34
1.75
-1.59
-5.75
-10.48
-15.12
-18.67
-20.0
-18.21
-12.97
-4.67
5.71
16.96
27.87
37.57
45.58
51.66
55.78
57.99
58.41
57.32
55.1
52.21
49.11
46.18
43.66
41.68
40.2
39.15
38.44
37.99
37.77
37.72
37.68
37.39
36.47
34.53
31.34
26.9
21.5
15.54
9.47
3.59
-1.95
-7.1
-11.85
-16.19
-20.08
-23.52
-26.58
-29.4
-32.16
-35.06
-38.2
-41.63
-45.35
-49.35
-53.7
-58.47
-63.63
-69.04
-74.43
-79.48
-83.95
-87.83
-91.38
-95.05
-99.27
-104.17
-109.41
-114.17
-117.35
-117.95
-115.49
-110.17
-102.78
-94.48
-86.36
-79.18
-73.26
-68.59
-64.91
-61.92
-59.34
-56.94
-54.58
-52.2
-49.81
-47.42
-44.85
-41.76
-37.69
-32.21
-25.16
-16.74
-7.46
2.01
11.04
19.14
25.98
31.3
34.97
36.97
37.52
37.25
37.02
37.7
39.9
43.64
48.39
53.23
57.24
59.77
60.67
60.18
58.78
56.99
55.15
53.39
51.75
50.13
48.41
46.45
44.05
41.03
37.3
32.89
28.06
23.15
18.52
14.39
10.76
7.38
3.83
-0.3
-5.25
-10.83
-16.44
-21.03
-23.48
-22.86
-18.85
-11.83
-2.78
6.94
16.05
23.56
28.92
32.01
33.01
32.3
30.33
27.61
24.59
21.69
19.14
17.01
15.25
13.73
12.35
11.14
10.24
9.87
10.24
11.4
13.21
15.35
17.39
18.94
19.73
19.72
18.97
17.74
16.25
14.73
13.28
11.91
10.55
9.13
7.68
6.24
4.94
3.86
3.05
2.47
2.0
1.51
0.81
-0.22
-1.66
-3.46
-5.42
-7.24
-8.66
-9.61
-10.25
-11.01
-12.35
-14.59
-17.68
-21.1
-23.94
-25.19
-24.01
-20.02
-13.48
-5.15
3.81
12.3
19.48
24.92
28.52
30.38
30.67
29.54
27.24
24.06
20.41
16.71
13.32
10.49
8.37
7.04
6.51
6.74
7.57
8.7
9.78
10.46
10.49
9.86
8.73
7.37
6.06
4.97
4.13
3.42
2.7
1.74
0.35
-1.62
-4.22
-7.3
-10.6
-13.78
-16.53
-18.75
-20.54
-22.17
-23.86
-25.77
-27.82
-29.87
-31.82
-33.69
-35.64
-37.91
-40.71
-44.15
-48.19
-52.6
-56.9
-60.37
-62.18
-61.58
-58.15
-51.94
-43.52
-33.78
-23.64
-13.85
-4.9
2.82
8.9
12.91
14.48
13.47
10.11
5.06
-0.79
-6.56
-11.52
-15.24
-17.49
-18.21
-17.39
-15.13
-11.63
-7.31
-2.74
1.45
4.7
6.64
7.22
6.7
5.51
4.12
2.84
1.79
0.97
0.37
0.09
0.29
1.08
2.44
4.13
5.78
7.1
7.93
8.32
8.33
7.93
6.89
4.91
1.86
-2.1
-6.49
-10.71
-14.38
-17.41
-20.13
-23.05
-26.68
-31.31
-36.87
-42.83
-48.23
-51.84
-52.41
-49.02
-41.45
-30.26
-16.71
-2.39
11.22
23.04
32.5
39.5
44.19
46.82
47.77
47.44
46.29
44.74
43.18
41.82
40.8
40.19
40.05
40.42
41.37
42.93
45.06
47.69
50.66
53.73
56.61
59.03
60.79
61.84
62.24
62.15
61.7
61.01
60.16
59.2
58.18
57.19
56.31
55.55
54.83
54.03
53.02
51.77
50.26
48.46
46.22
43.28
39.34
34.22
27.98
21.0
13.87
7.13
1.1
-4.29
-9.39
-14.7
-20.7
-27.69
-35.76
-44.67
-53.75
-61.88
-67.61
-69.45
-66.39
-58.32
-46.22
-31.94
-17.66
-5.23
4.21
10.31
13.26
13.53
11.57
7.83
2.78
-3.03
-9.01
-14.64
-19.61
-23.7
-26.81
-28.85
-29.65
-29.13
-27.37
-24.66
-21.41
-18.08
-15.08
-12.73
-11.25
-10.81
-11.51
-13.26
-15.78
-18.65
-21.38
-23.57
-25.08
-26.04
-26.74
-27.55
-28.7
-30.26
-32.13
-34.15
-36.22
-38.31
-40.55
-43.14
-46.29
-50.14
-54.66
-59.76
-65.28
-71.0
-76.8
-82.55
-88.11
-93.38
-98.38
-103.12
-107.66
-111.9
-115.37
-117.25
-116.45
-112.01
-103.44
-91.0
-75.7
-58.97
-42.34
-27.02
-13.74
-2.79
5.88
12.47
17.27
20.64
23.05
24.96
26.82
28.95
31.44
34.2
36.98
39.56
41.75
43.39
44.39
44.63
44.02
42.55
40.37
37.75
35.12
32.9
31.39
30.64
30.44
30.36
29.87
28.65
26.76
24.69
23.24
23.11
24.55
27.14
29.94
31.88
32.21
30.8
28.02
24.49
20.66
16.62
12.19
7.04
1.04
-5.71
-12.79
-19.47
-24.88
-28.06
-28.16
-24.67
-17.66
-7.83
3.62
15.34
26.13
35.18
42.07
46.67
48.96
48.98
46.9
43.13
38.39
33.54
29.49
26.8
25.68
25.95
27.19
29.0
31.12
33.43
35.87
38.27
40.33
41.59
41.67
40.37
37.79
34.34
30.56
26.97
23.84
21.13
18.59
15.9
12.84
9.41
5.84
2.45
-0.47
-2.8
-4.61
-6.13
-7.66
-9.48
-11.75
-14.5
-17.54
-20.59
-23.34
-25.59
-27.38
-29.04
-31.04
-33.92
-38.0
-43.29
-49.28
-55.0
-59.12
-60.3
-57.54
-50.51
-39.64
-26.1
-11.48
2.65
15.06
25.07
32.59
37.91
41.51
43.9
45.43
46.32
46.7
46.66
46.33
45.86
45.43
45.21
45.28
45.68
46.5
47.81
49.68
52.11
54.91
57.68
59.87
60.92
60.47
58.44
55.09
50.89
46.35
41.88
37.68
33.81
30.22
26.84
23.62
20.49
17.3
13.88
10.11
6.0
1.75
-2.32
-6.0
-9.26
-12.43
-15.93
-20.09
-24.96
-30.2
-35.28
-39.75
-43.44
-46.54
-49.55
-53.08
-57.64
-63.5
-70.46
-77.89
-84.7
-89.48
-90.83
-87.79
-80.17
-68.65
-54.66
-39.95
-26.16
-14.48
-5.51
0.68
4.33
5.94
6.02
5.04
3.39
1.32
-1.04
-3.56
-6.09
-8.38
-10.12
-11.06
-11.11
-10.39
-9.22
-7.97
-6.97
-6.43
-6.51
