-36.88
-40.67
-44.99
-50.29
-56.8
-64.2
-71.63
-77.72
-81.04
-80.44
-75.48
-66.47
-54.37
-40.48
-26.14
-12.52
-0.49
9.32
16.64
21.46
24.03
24.79
24.24
22.91
21.21
19.5
18.04
16.97
16.34
16.13
16.21
16.46
16.82
17.27
17.8
18.44
19.14
19.78
20.17
20.12
19.55
18.51
17.2
15.84
14.63
13.65
12.82
11.99
10.95
9.57
7.84
5.88
3.87
1.97
0.23
-1.41
-3.1
-5.03
-7.28
-9.81
-12.45
-14.99
-17.3
-19.37
-21.34
-23.41
-25.79
-28.66
-32.2
-36.47
-41.33
-46.28
-50.45
-52.72
-52.03
-47.76
-39.94
-29.31
-17.09
-4.61
6.96
16.9
24.82
30.63
34.35
36.1
36.11
34.77
32.57
30.05
27.7
25.82
24.54
23.86
23.68
23.95
24.62
25.64
26.86
28.04
28.9
29.2
28.78
27.63
25.87
23.65
21.13
18.39
15.44
12.34
9.15
6.05
3.19
0.69
-1.48
-3.5
-5.6
-8.02
-10.81
-13.89
-17.01
-19.95
-22.56
-24.9
-27.15
-29.55
-32.35
-35.71
-39.6
-43.77
-47.68
-50.58
-51.62
-50.1
-45.67
-38.58
-29.58
-19.69
-10.0
-1.29
5.94
11.53
15.53
18.09
19.4
19.71
19.31
18.49
17.51
16.58
15.83
15.35
15.22
15.52
16.33
17.65
19.46
21.61
23.86
25.84
27.23
27.72
27.24
25.91
23.99
21.78
19.52
17.28
15.04
12.78
10.5
8.29
6.23
4.36
2.64
0.98
-0.74
-2.63
-4.74
-7.1
-9.73
-12.61
-15.68
-18.84
-21.92
-24.83
-27.59
-30.4
-33.55
-37.31
-41.72
-46.39
-50.53
-53.05
-52.96
-49.62
-43.02
-33.77
-22.94
-11.76
-1.34
7.59
14.67
19.9
23.46
25.65
26.74
26.95
26.42
25.28
23.67
21.83
20.03
18.59
17.73
17.55
18.04
19.01
20.27
21.6
22.86
23.92
24.7
25.09
25.0
24.32
23.07
21.32
19.23
17.02
14.86
12.9
11.21
9.74
8.37
6.95
5.36
3.53
1.49
-0.72
-3.03
-5.45
-8.08
-10.99
-14.21
-17.68
-21.17
-24.51
-27.53
-30.22
-32.69
-35.13
-37.78
-40.87
-44.62
-49.21
-54.67
-60.65
-66.43
-70.9
-72.87
-71.44
-66.37
-58.1
-47.66
-36.34
-25.32
-15.47
-7.28
-0.94
3.6
6.48
7.9
8.13
7.44
6.16
4.63
3.18
2.12
1.66
1.89
2.77
4.16
5.96
8.04
10.34
12.68
14.81
16.45
17.32
17.31
16.53
15.2
13.63
12.03
10.47
8.89
7.19
5.3
3.24
1.14
-0.87
-2.66
-4.25
-5.74
-7.29
-9.0
-10.86
-12.74
-14.45
-15.87
-17.06
-18.22
-19.63
-21.5
-23.86
-26.52
-29.18
-31.49
-33.24
-34.43
-35.29
-36.21
-37.68
-40.04
-43.33
-47.09
-50.39
-52.03
-50.88
-46.32
-38.44
-27.99
-16.21
-4.36
6.5
15.76
23.17
28.73
32.57
34.82
35.67
35.34
34.17
32.54
30.8
29.22
27.93
27.06
26.68
26.89
27.79
29.4
31.57
33.97
36.17
37.72
38.35
37.95
36.68
34.81
32.68
30.54
28.53
26.67
24.91
23.2
21.56
20.03
18.65
17.38
16.09
14.59
12.76
10.56
8.08
5.49
2.94
0.5
-1.81
-4.08
-6.39
-8.85
-11.54
-14.47
-17.59
-20.83
-24.16
-27.58
-31.16
-34.98
-39.11
-43.53
-48.08
-52.4
-55.86
-57.62
-56.71
-52.36
-44.32
-33.1
-19.87
-6.19
6.4
16.86
24.76
30.16
33.41
34.85
34.75
33.3
30.7
27.24
23.35
19.54
16.35
14.22
13.48
14.26
16.51
20.0
24.37
29.25
34.22
38.88
42.86
45.84
47.59
47.98
47.02
44.84
41.68
37.85
33.71
29.55
25.58
21.9
18.52
15.43
12.66
10.27
8.38
6.98
6.04
5.32
4.56
3.45
1.81
-0.48
-3.52
-7.46
-12.61
-19.31
-27.8
-38.08
-49.77
-62.13
-74.22
-84.91
-93.03
-97.41
-97.04
-91.25
-79.97
-63.93
-44.63
-24.05
-4.2
13.3
27.52
38.23
45.65
50.23
52.43
52.66
51.26
48.62
45.17
41.37
37.71
34.61
32.42
31.35
31.46
32.65
34.66
37.12
39.62
41.77
43.27
43.84
43.26
41.33
37.92
33.0
26.76
19.61
12.12
4.87
-1.71
-7.54
-12.91
-18.29
-24.18
-30.82
-38.14
-45.78
-53.33
-60.54
-67.42
-74.16
-81.08
-88.39
-96.24
-104.53
-112.95
-120.84
-127.17
-130.68
-130.16
-124.86
-114.75
-100.6
-83.75
-65.78
-48.15
-31.95
-17.92
-6.43
2.37
8.56
12.45
14.57
15.7
16.68
18.29
21.07
25.2
30.45
36.34
42.3
47.92
53.02
57.64
61.93
65.95
69.54
72.33
73.82
73.57
71.34
67.18
61.46
54.74
47.65
40.71
34.25
28.37
23.06
18.17
13.59
9.21
4.96
0.75
-3.55
-8.08
-12.93
-18.04
-23.23
-28.19
-32.6
-36.3
-39.34
-42.06
-44.94
-48.51
-52.99
-58.21
-63.45
-67.55
-69.2
-67.22
-61.0
-50.58
-36.72
-20.68
-4.01
11.76
25.28
35.56
42.13
45.03
44.79
42.34
38.71
34.83
31.26
28.17
25.48
23.0
20.68
18.65
17.19
16.72
17.58
19.98
23.85
28.85
34.42
39.83
44.35
47.49
49.04
49.08
47.94
46.06
43.86
41.7
39.83
38.37
37.35
36.64
36.04
35.29
34.2
32.75
31.05
29.28
27.55
25.8
23.77
21.15
17.63
13.06
7.41
0.73
-6.9
-15.5
-25.1
-35.67
-46.91
-58.04
-67.78
-74.53
-76.84
-73.85
-65.75
-53.75
-39.77
-25.84
-13.53
-3.71
3.5
8.37
11.34
12.75
12.91
12.12
10.76
9.17
7.65
6.35
5.36
4.71
4.53
4.96
6.15
8.14
10.79
13.8
16.83
19.5
21.53
22.67
22.76
21.84
20.08
17.8
15.39
13.11
11.11
9.32
7.62
5.94
4.41
3.23
2.6
2.47
2.5
2.07
0.52
-2.55
-7.15
-12.75
-18.54
-23.64
-27.4
-29.64
-30.6
-30.82
-31.03
-31.93
-34.09
-37.83
-43.04
-49.08
-54.73
-58.5
-59.02
-55.5
-48.05
-37.71
-26.02
-14.58
-4.58
3.36
9.23
13.31
16.01
17.64
18.43
18.51
18.03
17.18
16.21
15.34
14.77
14.62
14.94
15.79
17.18
19.19
21.79
24.78
27.81
30.43
32.21
32.89
32.5
31.27
29.52
27.51
25.4
23.19
20.89
18.52
16.22
14.12
12.33
10.82
9.5
8.27
7.15
6.24
5.74
5.77
6.32
7.23
8.28
9.25
10.01
10.4
10.17
8.96
6.34
2.03
-3.95
-11.01
-18.1
-23.88
-27.13
-27.06
-23.54
-17.17
-9.01
-0.35
7.63
14.02
18.34
20.47
20.61
19.24
16.93
14.25
11.67
9.43
7.59
6.11
4.98
4.27
4.11
4.62
5.84
7.65
9.82
12.05
13.99
15.28
15.61
14.8
12.92
10.34
7.6
5.23
3.55
2.58
2.07
1.71
1.27
0.69
0.06
-0.6
-1.3
-2.22
-3.57
-5.49
-8.01
-10.99
-14.14
-17.14
-19.72
-21.81
-23.54
-25.29
-27.54
-30.68
-34.78
-39.52
-44.1
-47.45
-48.49
-46.48
-41.23
-33.21
-23.36
-12.89
-2.91
5.72
12.53
17.4
20.44
21.94
22.25
21.75
20.83
19.83
19.02
18.58
18.61
19.06
19.8
20.66
21.48
22.16
22.75
23.37
24.18
25.27
26.55
27.79
28.74
29.2
29.07
28.46
27.6
26.79
26.23
26.0
25.97
25.89
25.46
24.47
22.93
21.03
19.14
17.54
16.42
15.69
15.06
14.2
12.83
10.85
8.29
5.31
2.09
-1.15
-4.31
-7.37
-10.52
-14.09
-18.53
-24.21
-31.13
-38.77
-46.06
-51.67
-54.38
-53.56
-49.43
-42.99
-35.65
-28.8
-23.41
-19.87
-18.04
-17.56
-18.06
-19.3
-21.17
-23.59
-26.45
-29.45
-32.21
-34.37
-35.64
-35.92
-35.31
-33.99
-32.22
-30.22
-28.25
-26.51
-25.29
-24.81
-25.19
-26.36
-28.07
-29.89
-31.37
-32.1
-31.86
-30.67
-28.8
-26.66
-24.7
-23.31
-22.72
-22.91
-23.65
-24.54
-25.2
-25.37
-25.09
-24.63
-24.39
-24.72
-25.71
-27.22
-28.91
-30.39
-31.37
-31.71
-31.5
-31.01
-30.74
-31.33
-33.48
-37.54
-43.28
-49.67
-55.06
-57.69
-56.25
-50.37
-40.75
-28.9
-16.55
-5.25
4.01
10.82
15.28
17.72
18.61
18.4
17.47
16.19
14.83
13.74
13.21
13.53
14.81
17.04
20.02
23.56
27.52
31.86
36.59
41.55
46.39
50.55
53.45
54.72
54.28
52.47
49.77
46.68
43.51
40.31
36.92
33.18
29.01
24.48
19.84
15.4
11.39
7.92
4.92
2.19
-0.54
-3.58
-7.16
-11.36
-16.03
-20.81
-25.26
-29.0
-31.93
-34.27
-36.47
-39.13
-42.66
-47.2
-52.45
-57.66
-61.72
-63.36
-61.44
-55.39
-45.37
-32.37
-17.91
-3.63
9.16
19.69
27.75
33.48
37.15
39.07
39.56
38.93
37.53
35.68
33.63
31.6
29.8
28.46
27.79
27.93
28.88
30.5
32.55
34.75
36.84
38.59
39.76
40.1
39.44
37.76
35.29
32.42
29.59
27.09
24.92
22.84
20.59
18.1
15.56
13.38
11.91
11.25
11.14
11.03
10.38
8.86
6.53
3.73
0.93
-1.47
-3.27
-4.59
-5.82
-7.59
-10.68
-15.69
-22.73
-31.12
-39.28
-45.12
-46.62
-42.51
-32.82
-18.9
-2.95
12.58
25.78
35.49
41.43
43.89
43.44
40.68
36.19
30.49
24.16
17.77
11.86
6.84
2.97
0.31
-1.21
-1.78
-1.66
-1.12
-0.37
0.4
1.1
1.59
1.76
1.41
0.4
-1.34
-3.7
-6.31
-8.8
-10.9
-12.58
-14.13
-15.96
-18.42
-21.73
-25.87
-30.66
-35.89
-41.23
-46.35
-50.93
-54.72
-57.68
-60.08
-62.46
-65.58
-70.17
-76.53
-84.29
-92.29
-98.77
-101.82
-100.01
-92.9
-81.17
-66.48
-50.83
-36.07
-23.44
-13.47
-6.13
-1.14
1.88
3.29
3.37
2.44
0.74
-1.49
-4.0
-6.51
-8.78
-10.61
-11.86
-12.4
-12.17
-11.1
-9.14
-6.35
-2.86
1.05
5.1
9.02
12.68
16.09
19.38
22.72
26.22
29.88
33.55
37.06
40.15
42.64
44.39
45.38
45.68
45.44
44.77
43.7
42.14
39.88
36.69
32.44
27.27
21.52
15.7
10.21
5.18
0.35
-4.84
-11.02
-18.55
-27.1
-35.58
-42.23
-45.2
-43.1
-35.56
-23.42
-8.39
7.46
22.32
35.02
45.07
52.56
57.81
61.2
63.1
63.83
63.7
62.98
61.88
60.49
58.87
57.06
55.16
53.38
51.98
51.23
51.26
52.0
53.23
54.55
55.56
55.9
55.36
53.93
51.75
49.1
46.26
43.52
41.04
38.91
37.05
35.29
33.52
31.64
29.67
27.73
26.04
24.73
23.9
23.48
23.25
22.88
22.1
20.72
18.77
16.4
13.86
11.38
9.06
6.8
4.29
1.06
-3.47
-9.8
-18.2
-28.44
-39.65
-50.38
-58.87
-63.53
-63.44
-58.65
-50.17
-39.69
-29.04
-19.72
-12.55
-7.69
-4.82
-3.37
-2.83
-2.78
-2.93
-3.07
-3.01
-2.56
-1.65
-0.29
1.38
3.18
4.99
6.79
8.64
10.64
12.81
15.06
17.21
19.05
20.38
21.04
21.01
20.32
19.13
17.67
16.15
14.73
13.49
12.37
11.25
9.98
8.39
6.41
4.06
1.44
-1.28
-3.9
-6.31
-8.56
-10.88
-13.61
-17.01
-21.2
-25.96
-30.93
-35.67
-39.87
-43.52
-46.86
-50.35
-54.46
-59.55
-65.67
-72.52
-79.35
-85.04
-88.2
-87.58
-82.46
-72.88
-59.86
-45.04
-30.38
-17.51
-7.49
-0.63
3.34
4.98
4.85
3.38
0.96
-2.06
-5.21
-7.85
-9.36
-9.29
-7.53
-4.35
-0.29
4.0
7.94
11.12
13.28
14.2
13.76
12.03
9.44
6.82
5.29
5.88
9.17
15.01
22.5
30.26
36.91
41.47
43.62
43.7
42.39
40.51
38.62
36.93
35.29
33.34
30.75
27.36
23.23
18.57
13.65
8.68
3.7
-1.36
-6.69
-12.52
-19.03
-26.22
-33.8
-41.02
-46.83
-50.01
-49.63
-45.3
-37.32
-26.61
-14.39
-1.89
9.91
20.38
29.24
36.46
42.16
46.5
49.71
51.95
53.33
53.95
53.9
53.37
52.65
52.0
51.62
51.6
51.89
52.31
52.67
52.8
52.57
51.9
50.69
48.76
45.94
42.12
37.36
31.95
26.31
20.83
15.74
11.0
6.4
1.78
-2.82
-7.1
-10.67
-13.26
-14.97
-16.23
-17.67
-19.84
-22.96
-26.89
-31.15
-35.22
-38.71
-41.51
-43.84
-46.04
-48.64
-52.08
-56.69
-62.45
-68.81
-74.62
-78.3
-78.23
-73.38
-63.74
-50.36
-35.11
-20.01
-6.65
4.12
12.15
17.76
21.37
23.37
24.11
23.91
23.11
22.03
20.92
19.87
18.9
17.95
17.03
16.23
15.72
15.68
16.18
17.12
18.23
19.13
19.47
19.01
17.74
15.83
13.56
11.21
8.99
6.99
5.2
3.6
2.12
0.74
-0.58
-1.93
-3.45
-5.25
-7.34
-9.6
-11.83
-13.82
-15.57
-17.2
-19.0
-21.26
-24.11
-27.54
-31.35
-35.3
-39.12
-42.62
-45.68
-48.39
-51.05
-54.11
-58.19
-63.73
-70.73
-78.52
-85.74
-90.57
-91.29
-86.89
-77.41
-63.97
-48.43
-32.8
-18.76
-7.4
0.85
6.01
8.42
8.62
7.28
5.09
2.73
0.64
-1.06
-2.49
-3.92
-5.52
-7.28
-8.95
-10.17
-10.56
-9.92
-8.31
-6.01
-3.45
-1.09
0.68
1.72
2.09
2.07
2.02
2.22
2.82
3.77
4.93
6.1
7.14
7.98
8.58
8.89
8.9
8.59
8.04
7.43
6.98
6.94
7.46
8.54
10.01
11.58
12.85
13.46
13.13
11.75
9.36
6.16
2.41
-1.64
-5.89
-10.41
-15.49
-21.56
-28.92
-37.46
-46.38
-54.21
-59.15
-59.6
-54.8
-45.08
-31.77
-16.78
-1.96
11.27
22.09
30.19
35.62
38.6
39.5
38.83
37.17
35.11
33.2
31.77
31.01
30.94
31.46
32.46
33.86
35.68
38.02
40.97
44.48
48.32
52.06
55.17
57.19
57.84
57.16
55.37
52.81
49.81
46.64
43.45
40.32
37.3
34.44
31.77
29.28
26.95
24.71
22.52
20.39
18.29
16.21
14.13
11.96
9.62
7.03
4.14
0.93
-2.6
-6.41
-10.41
-14.43
-18.29
-21.82
-24.97
-27.82
-30.65
-33.95
-38.2
-43.7
-50.18
-56.65
-61.46
-62.75
-59.08
-49.92
-35.95
-18.74
-0.32
17.39
32.9
45.19
53.68
58.15
58.84
56.41
51.95
46.67
41.6
37.41
34.28
32.05
30.38
29.04
27.94
27.19
27.02
27.63
29.11
31.26
33.61
35.49
36.24
35.42
33.05
29.52
25.46
21.45
17.86
14.76
12.05
9.59
7.32
5.23
3.34
1.5
-0.51
-2.91
-5.77
-8.96
-12.14
-15.03
-17.46
-19.52
-21.56
-24.0
