25.27
25.74
26.54
27.77
29.41
31.28
33.05
34.28
34.58
33.79
32.02
29.57
26.84
24.17
21.75
19.64
17.82
16.19
14.65
13.06
11.28
9.22
6.82
4.14
1.29
-1.58
-4.35
-6.98
-9.54
-12.19
-15.06
-18.25
-21.72
-25.31
-28.81
-31.98
-34.68
-36.94
-38.97
-41.12
-43.92
-47.84
-53.16
-59.63
-66.4
-72.01
-74.78
-73.36
-67.14
-56.57
-42.99
-28.2
-13.92
-1.36
8.87
16.66
22.17
25.6
27.17
27.16
25.85
23.65
20.95
18.13
15.52
13.41
12.07
11.71
12.47
14.32
17.02
20.16
23.22
25.69
27.22
27.62
26.93
25.33
23.09
20.47
17.7
14.95
12.33
9.88
7.64
5.56
3.6
1.66
-0.43
-2.86
-5.82
-9.39
-13.49
-17.87
-22.18
-26.1
-29.49
-32.41
-35.18
-38.28
-42.22
-47.31
-53.5
-60.21
-66.3
-70.32
-70.87
-67.11
-58.98
-47.31
-33.48
-19.06
-5.37
6.7
16.67
24.46
30.13
33.86
35.9
36.58
36.25
35.17
33.56
31.53
29.28
27.05
25.22
24.21
24.28
25.45
27.49
29.97
32.39
34.36
35.62
36.05
35.63
34.39
32.48
30.13
27.69
25.45
23.55
21.91
20.22
18.14
15.44
12.13
8.48
4.85
1.54
-1.32
-3.83
-6.26
-8.91
-12.08
-15.9
-20.35
-25.19
-30.06
-34.59
-38.54
-41.9
-44.97
-48.31
-52.53
-58.05
-64.78
-71.97
-78.22
-81.88
-81.43
-76.1
-66.1
-52.57
-37.25
-21.88
-7.81
4.15
13.77
21.11
26.42
29.98
32.16
33.35
33.96
34.29
34.5
34.63
34.63
34.54
34.46
34.59
35.13
36.16
37.63
39.34
41.01
42.38
43.24
43.42
42.85
41.48
39.36
36.69
33.75
30.89
28.41
26.48
25.01
23.76
22.43
20.71
18.48
15.75
12.66
9.42
6.23
3.23
0.49
-2.0
-4.37
-6.82
-9.66
-13.12
-17.31
-22.07
-27.06
-31.79
-35.86
-39.19
-42.06
-45.07
-48.9
-53.96
-60.04
-66.29
-71.31
-73.59
-71.93
-65.87
-55.77
-42.7
-28.09
-13.41
0.15
11.74
20.94
27.68
32.18
34.85
36.19
36.69
36.68
36.34
35.74
34.9
33.84
32.74
31.82
31.33
31.48
32.34
33.78
35.57
37.37
38.82
39.72
39.95
39.5
38.46
36.97
35.16
33.2
31.25
29.44
27.86
26.49
25.21
23.89
22.42
20.82
19.21
17.79
16.7
15.95
15.38
14.63
13.38
11.35
8.47
4.87
0.81
-3.39
-7.42
-11.06
-14.22
-16.96
-19.58
-22.51
-26.26
-31.25
-37.56
-44.73
-51.73
-57.12
-59.43
-57.67
-51.65
-42.04
-30.19
-17.7
-5.95
4.2
12.38
18.64
23.2
26.27
28.04
28.7
28.54
27.95
27.39
27.24
27.75
28.89
30.41
31.96
33.2
33.92
34.05
33.67
32.89
31.79
30.37
28.62
26.51
24.06
21.39
18.67
16.08
13.77
11.8
10.14
8.66
7.21
5.65
3.92
2.01
0.02
-1.97
-3.88
-5.7
-7.54
-9.56
-11.95
-14.84
-18.19
-21.8
-25.34
-28.48
-31.06
-33.17
-35.17
-37.59
-40.95
-45.54
-51.33
-57.74
-63.78
-68.21
-69.85
-67.96
-62.5
-54.11
-43.95
-33.36
-23.49
-15.07
-8.41
-3.52
-0.31
1.36
1.68
0.93
-0.49
-2.1
-3.44
-4.16
-4.11
-3.27
-1.75
0.35
2.91
5.81
8.83
11.71
14.14
15.83
16.61
16.39
15.26
13.41
11.13
8.73
6.48
4.53
2.93
1.59
0.29
-1.15
-2.95
-5.21
-7.88
-10.82
-13.75
-16.44
-18.74
-20.74
-22.71
-25.11
-28.34
-32.59
-37.67
-43.01
-47.68
-50.67
-51.05
-48.33
-42.47
-34.03
-23.93
-13.28
-3.08
5.97
13.5
19.49
24.11
27.51
29.81
31.07
31.36
30.88
29.92
28.85
27.94
27.33
26.96
26.73
26.58
26.54
26.72
27.13
27.66
28.04
27.93
27.06
25.33
22.88
20.0
17.03
14.22
11.76
9.65
7.81
6.12
4.49
2.87
1.28
-0.19
-1.5
-2.69
-3.93
-5.46
-7.57
-10.39
-13.89
-17.8
-21.66
-25.05
-27.67
-29.56
-31.1
-32.85
-35.47
-39.38
-44.57
-50.47
-55.88
-59.34
-59.49
-55.57
-47.69
-36.85
-24.56
-12.41
-1.57
7.3
14.09
19.01
22.38
24.6
26.01
26.91
27.52
27.94
28.16
28.14
27.82
27.26
26.57
25.88
25.32
24.97
24.91
25.13
25.52
25.86
25.87
25.31
24.08
22.26
20.11
17.92
15.98
14.43
13.31
12.54
12.0
11.57
11.17
10.72
10.18
9.53
8.74
7.82
6.74
5.46
3.97
2.24
0.22
-2.15
-4.96
-8.27
-12.09
-16.32
-20.76
-25.1
-29.0
-32.22
-34.64
-36.39
-37.82
-39.52
-42.11
-46.05
-51.28
-57.14
-62.32
-65.21
-64.43
-59.29
-50.08
-37.98
-24.66
-11.79
-0.61
8.23
14.64
18.89
21.4
22.74
23.43
23.95
24.57
25.35
26.14
26.71
26.88
26.69
26.32
26.06
26.16
26.76
27.85
29.3
30.84
32.16
32.89
32.77
31.69
29.85
27.57
25.23
23.12
21.26
19.58
17.93
16.23
14.5
12.8
11.19
9.64
8.12
6.56
4.94
3.25
1.53
-0.21
-1.91
-3.59
-5.23
-6.9
-8.72
-10.88
-13.51
-16.68
-20.25
-23.93
-27.31
-30.04
-31.92
-33.1
-34.02
-35.36
-37.77
-41.56
-46.41
-51.34
-54.88
-55.57
-52.45
-45.42
-35.26
-23.38
-11.31
-0.35
8.73
15.68
20.54
23.6
25.21
25.78
25.7
25.34
24.92
24.48
23.95
23.24
22.32
21.33
20.46
19.94
19.94
20.49
21.51
22.81
24.07
25.0
25.32
24.9
23.79
22.22
20.49
18.9
17.55
16.42
15.36
14.27
13.1
11.91
10.72
9.53
8.23
6.73
4.99
3.12
1.35
-0.16
-1.34
-2.32
-3.37
-4.77
-6.69
-9.12
-11.86
-14.62
-17.13
-19.26
-21.02
-22.66
-24.5
-26.97
-30.41
-34.98
-40.52
-46.36
-51.48
-54.55
-54.43
-50.46
-42.74
-32.14
-20.09
-8.13
2.49
10.94
16.97
20.74
22.66
23.28
23.2
22.92
22.77
22.85
23.04
23.12
22.88
22.27
21.46
20.67
20.19
20.16
20.6
21.33
22.11
22.66
22.72
22.16
20.96
19.24
17.22
15.13
13.12
11.24
9.45
7.63
5.72
3.72
1.69
-0.28
-2.15
-3.98
-5.91
-8.1
-10.62
-13.39
-16.21
-18.78
-20.86
-22.4
-23.64
-25.12
-27.56
-31.56
-37.26
-44.13
-50.92
-56.06
-58.25
-56.99
-52.96
-47.76
-43.31
-41.04
-41.25
-42.98
-44.51
-44.2
-41.18
-35.86
-29.67
-24.43
-21.66
-22.31
-26.69
-34.66
-45.46
-57.48
-68.24
-75.06
-76.25
-72.28
-65.86
-60.67
-59.43
-62.16
-66.17
-67.6
-63.58
-53.94
-40.93
-27.73
-16.47
-7.23
1.53
11.55
23.44
36.24
47.82
56.11
60.15
60.48
58.88
57.43
57.54
59.13
60.66
59.72
54.12
42.84
26.49
7.02
-13.08
-31.56
-47.09
-59.15
-67.85
-73.42
-76.07
-75.92
-73.22
-68.53
-62.67
-56.71
-51.53
-47.69
-45.21
-43.61
-42.13
-40.05
-37.0
-32.97
-28.12
-22.41
-15.39
-6.07
6.61
23.15
42.93
64.02
83.65
98.78
106.91
106.7
98.44
84.18
67.75
54.21
48.86
55.55
74.87
103.35
134.22
160.01
175.38
179.07
173.46
162.86
151.13
140.27
130.68
122.28
115.5
111.41
110.95
113.85
118.73
124.3
130.35
137.81
147.18
156.65
161.63
156.11
135.04
97.1
45.59
-12.87
-70.84
-122.29
-163.58
-192.51
-206.58
-203.95
-184.58
-151.52
-110.83
-69.83
-34.69
-8.89
6.9
15.13
17.67
15.47
8.7
-2.94
-19.52
-40.2
-62.87
-84.15
-100.36
-108.26
-106.31
-95.43
-78.62
-59.67
-41.73
-26.31
-13.38
-2.24
7.24
14.34
17.86
17.01
11.87
3.59
-6.18
-15.91
-24.61
-32.03
-38.27
-43.34
-46.97
-49.03
-49.74
-49.81
-50.2
-51.59
-54.06
-56.81
-58.26
-56.53
-50.38
-39.66
-25.37
-9.46
5.59
16.8
20.88
15.35
-0.21
-24.38
-54.23
-86.36
-117.66
-145.61
-168.3
-184.34
-194.23
-197.77
-195.2
-187.34
-175.38
-160.5
-143.5
-124.62
-103.58
-79.91
-52.95
-23.32
7.64
38.39
67.59
94.56
119.35
142.78
166.31
191.79
220.39
251.9
284.11
312.73
332.28
337.57
325.38
295.55
251.18
197.53
140.73
86.36
38.56
-0.27
-29.42
-49.55
-62.3
-69.81
-74.32
-77.62
-80.82
-84.3
-87.87
-91.17
-93.9
-96.14
-98.33
-101.2
-105.38
-111.09
-117.79
-124.11
-128.06
-127.63
-121.35
-108.95
-91.5
-71.26
-51.04
-33.35
-19.66
-10.0
-3.12
2.95
10.09
19.51
31.42
45.16
59.54
73.31
85.51
95.58
103.44
109.33
113.75
117.24
120.27
123.03
125.36
126.81
126.73
124.57
120.05
113.26
104.64
94.87
84.71
74.88
66.0
58.47
52.42
47.67
43.77
40.08
36.01
31.24
25.82
20.19
14.99
10.79
7.94
6.52
6.39
7.34
9.09
11.3
13.54
15.28
15.98
15.24
12.9
9.08
4.09
-1.72
-8.08
-14.77
-21.57
-28.12
-33.91
-38.29
-40.58
-40.26
-37.08
-31.24
-23.32
-14.21
-4.89
3.76
11.25
17.53
23.05
28.57
34.82
42.1
49.89
56.82
60.91
60.3
53.99
42.34
27.06
10.63
-4.53
-16.8
-25.57
-31.07
-33.85
-34.45
-33.26
-30.58
-26.94
-23.0
-19.48
-16.9
-15.4
-14.72
-14.35
-13.82
-12.86
-11.52
-10.06
-8.82
-8.07
-7.89
-8.17
-8.73
-9.45
-10.3
-11.37
-12.74
-14.37
-16.04
-17.44
-18.24
-18.28
-17.65
-16.65
-15.71
-15.2
-15.29
-15.89
-16.71
-17.37
-17.6
-17.36
-16.8
-16.27
-16.11
-16.55
-17.57
-18.85
-19.82
-19.86
-18.5
-15.54
-11.19
-6.01
-0.69
4.1
7.83
10.24
11.32
11.31
10.57
9.55
8.57
7.82
7.29
6.88
6.49
6.13
5.85
5.74
5.87
6.16
6.53
6.88
7.1
7.16
7.0
6.6
5.94
5.01
3.83
2.43
0.85
-0.85
-2.58
-4.25
-5.84
-7.31
-8.72
-10.1
-11.41
-12.55
-13.42
-13.94
-14.11
-14.1
-14.05
-14.1
-14.27
-14.51
-14.74
-14.97
-15.22
-15.56
-16.04
-16.57
-17.07
-17.43
-17.68
-17.91
-18.25
-18.78
-19.5
-20.29
-21.08
-21.78
-22.35
-22.66
-22.45
-21.39
-19.2
-15.85
-11.59
-6.97
-2.6
1.06
3.78
5.58
6.66
7.25
7.6
7.81
7.95
7.99
7.87
7.49
6.83
5.98
5.09
4.42
4.21
4.58
5.53
6.88
8.33
9.52
10.17
10.1
9.33
8.0
6.37
4.7
3.19
1.92
0.86
-0.12
-1.1
-2.1
-3.03
-3.8
-4.32
-4.62
-4.8
-5.01
-5.4
-6.1
-7.15
-8.46
-9.9
-11.22
-12.19
-12.67
-12.65
-12.31
-11.93
-11.76
-11.87
-12.22
-12.61
-12.86
-12.88
-12.73
-12.58
-12.62
-13.04
-13.94
-15.31
-17.02
-18.87
-20.6
-21.96
-22.76
-22.9
-22.36
-21.24
-19.68
-17.83
-15.88
-13.98
-12.28
-10.83
-9.68
-8.86
-8.36
-8.25
-8.53
-9.15
-9.95
-10.66
-10.97
-10.61
-9.45
-7.57
-5.2
-2.62
-0.14
1.99
3.61
4.65
5.11
5.11
4.85
4.55
4.44
4.65
5.18
5.95
6.76
7.45
7.93
8.23
8.46
8.74
9.15
9.62
10.03
10.21
9.98
9.28
8.1
6.54
4.7
2.71
0.65
-1.39
-3.41
-5.35
-7.18
-8.86
-10.37
-11.75
-13.17
-14.79
-16.74
-18.97
-21.2
-22.97
-23.77
-23.26
-21.35
-18.3
-14.52
-10.5
-6.64
-3.16
-0.16
2.33
4.31
5.77
6.69
7.07
6.98
6.47
5.61
4.48
3.16
1.82
0.66
-0.1
-0.3
0.07
0.92
2.02
3.1
3.97
4.47
4.57
4.28
3.69
2.92
2.05
1.15
0.23
-0.75
-1.79
-2.88
-3.96
-4.98
-5.9
-6.78
-7.65
-8.57
-9.55
-10.54
-11.46
-12.26
-12.92
-13.49
-14.04
-14.6
-15.2
-15.89
-16.77
-17.88
-19.23
-20.82
-22.52
-24.28
-26.06
-27.94
-30.05
-32.53
-35.44
-38.68
-41.9
-44.6
-46.2
-46.14
-44.11
-40.1
-34.41
-27.65
-20.55
-13.73
-7.67
-2.55
1.63
4.95
7.48
9.23
10.17
10.34
9.83
8.87
7.72
6.66
5.95
5.79
6.37
7.75
9.86
12.41
14.99
17.15
18.51
18.99
18.7
17.91
16.94
15.97
15.06
14.1
13.0
11.7
10.35
9.13
8.24
7.7
7.38
6.98
6.29
5.24
3.95
2.62
1.41
0.34
-0.72
-1.96
-3.54
-5.57
-8.03
-10.86
-13.91
-17.06
-20.16
-23.16
-26.14
-29.3
-32.91
-37.17
-42.12
-47.56
-53.05
-57.88
-61.23
-62.34
-60.69
-56.15
-49.05
-40.05
-30.0
-19.71
-9.83
-0.82
7.0
13.42
18.35
21.79
23.88
24.84
24.93
24.45
23.62
22.68
21.86
21.38
21.41
22.06
23.32
25.06
27.04
28.96
30.6
31.81
32.56
32.87
32.79
32.34
31.5
30.31
28.85
27.24
25.62
24.0
22.28
20.32
17.98
15.25
12.37
9.6
7.2
5.27
3.65
2.06
0.16
-2.25
-5.19
-8.49
-11.95
-15.35
-18.63
-21.81
-25.03
-28.45
-32.28
-36.73
-41.92
-47.8
-54.04
-59.96
-64.6
-66.93
-66.06
-61.56
-53.56
-42.78
-30.29
-17.3
-4.88
6.23
15.67
23.32
29.28
33.67
36.64
38.33
38.89
38.55
37.63
36.53
35.6
35.19
35.47
36.45
37.98
39.78
41.53
42.95
43.85
44.1
43.69
42.66
41.09
39.06
36.7
34.14
31.5
28.92
26.48
24.27
22.34
20.64
19.05
17.44
15.65
13.65
11.51
9.4
7.46
5.77
4.14
2.29
-0.1
-3.24
-7.09
-11.4
-15.83
-20.1
-24.13
-28.0
-31.93
-36.19
-40.94
-46.2
-51.75
-57.11
-61.48
-63.87
-63.37
-59.34
-51.74
-41.19
-28.77
-15.76
-3.32
7.78
17.15
24.68
30.44
34.53
37.06
38.19
38.14
37.2
35.74
34.19
32.94
32.35
32.62
33.75
35.56
37.71
39.82
41.57
42.75
43.26
43.11
42.39
41.18
39.6
37.73
35.67
33.53
31.43
29.5
27.81
26.3
24.8
23.06
20.9
18.27
15.32
12.29
9.44
6.86
4.47
2.1
-0.44
-3.28
-6.43
-9.81
-13.28
-16.73
-20.06
-23.26
-26.38
-29.56
-33.03
-37.0
-41.6
-46.72
-51.94
-56.48
-59.35
-59.49
-56.14
-49.18
-39.18
-27.28
-14.9
-3.29
6.76
14.99
21.56
26.71
30.6
33.28
34.73
35.01
34.35
33.09
31.61
30.24
29.24
28.78
29.0
29.96
31.56
33.54
35.52
37.07
37.84
37.74
36.81
35.24
33.2
30.81
28.17
25.41
22.69
20.19
18.05
16.23
14.61
12.98
11.21
9.26
7.23
5.26
3.4
1.66
-0.08
-1.95
-4.04
-6.43
-9.12
-12.07
-15.22
-18.44
-21.65
-24.78
-27.81
-30.84
-34.0
-37.47
-41.36
-45.6
-49.84
-53.44
-55.59
-55.43
-52.46
-46.62
-38.39
-28.67
-18.48
-8.77
-0.16
7.01
12.73
17.11
20.34
22.62
24.1
24.91
25.13
24.9
24.35
23.75
23.38
23.51
24.27
25.61
27.25
28.82
30.0
30.62
30.69
30.33
29.67
28.76
27.55
25.99
24.06
21.86
19.53
17.27
15.19
13.29
11.51
9.72
7.86
5.86
3.75
1.55
-0.68
-2.86
-4.95
-6.96
-8.94
-10.96
-13.08
-15.28
-17.51
-19.67
-21.74
-23.76
-25.89
-28.38
-31.41
-35.14
-39.56
-44.42
-49.29
-53.43
-56.02
-56.21
-53.47
-47.67
-39.27
-29.16
-18.5
-8.43
0.24
7.09
12.15
15.69
18.07
19.58
20.37
20.48
19.93
18.85
17.53
16.37
15.82
16.14
17.34
19.17
21.24
23.15
24.64
25.64
26.21
26.45
26.38
25.94
25.04
23.61
21.68
19.36
16.88
14.48
12.36
10.58
9.01
7.4
5.36
2.62
-0.92
-5.11
-9.54
-13.81
-17.6
-20.89
-23.89
-26.99
-30.58
-34.87
-39.85
-45.27
-50.77
-55.94
-60.54
-64.53
-68.23
-72.28
-77.48
-84.58
-93.8
-104.47
-114.83
-122.29
-123.89
-117.19
-101.0
-75.86
-43.9
-8.36
27.3
60.2
88.44
111.19
128.5
140.87
148.92
153.3
154.55
153.18
149.72
144.57
137.87
129.4
118.59
104.95
88.5
70.14
51.53
34.61
20.83
10.66
3.51
-1.69
-5.8
-9.06
-11.09
-11.43
-10.15
-8.06
-6.44
-6.54
-8.95
-13.44
-19.17
-25.1
-30.42
-34.59
-37.39
-38.72
-38.63
-37.35
-35.41
-33.58
-32.66
-33.12
-34.87
-37.29
-39.45
-40.49
-39.99
-38.09
-35.45
-32.91
-31.19
-30.6
-30.91
-31.45
-31.34
-29.93
-27.04
-23.16
-19.18
-15.95
-13.9
-12.67
-11.24
-8.33
-2.94
5.14
15.17
25.65
34.81
41.16
43.92
43.17
39.76
34.95
30.07
26.09
23.44
22.02
21.25
20.34
18.46
15.01
9.67
2.43
-6.43
-16.32
-26.41
-35.71
-43.22
-48.17
-50.16
-49.31
-46.17
-41.59
-36.49
-31.62
-27.5
-24.37
-22.32
-21.36
-21.51
-22.79
-25.16
-28.43
-32.31
-36.47
-40.69
-44.86
-48.91
-52.67
-55.73
-57.5
-57.29
-54.61
-49.37
-41.88
-32.79
-22.87
-12.88
-3.41
5.05
12.16
17.67
21.5
23.69
24.49
24.35
23.81
23.44
23.69
24.87
27.07
30.21
34.05
38.29
42.43
45.95
48.26
48.9
47.66
44.7
40.56
36.01
31.84
28.59
26.49
25.39
24.91
24.53
23.77
22.31
20.01
16.96
13.41
9.67
6.02
2.6
-0.62
-3.82
-7.18
-10.84
-14.78
-18.88
-22.92
-26.71
-30.15
-33.28
-36.36
-39.78
-43.94
-48.96
-54.44
-59.47
-62.76
-63.1
-59.83
-53.01
-43.49
-32.45
-21.14
-10.47
-1.03
6.91
13.25
18.01
21.37
23.65
25.28
26.64
27.94
29.18
30.18
30.71
30.71
30.3
29.83
29.7
30.21
31.42
33.16
35.11
36.84
38.05
38.54
38.26
37.2
35.44
33.11
30.45
27.71
25.18
23.01
21.21
19.6
17.94
16.07
13.95
