13.25
12.29
11.56
10.96
10.29
9.34
8.02
6.37
4.52
2.63
0.8
-0.99
-2.83
-4.87
-7.2
-9.81
-12.57
-15.25
-17.66
-19.69
-21.45
-23.18
-25.26
-28.06
-31.82
-36.53
-41.8
-46.86
-50.6
-51.89
-49.95
-44.67
-36.63
-27.01
-17.11
-8.02
-0.38
5.65
10.14
13.29
15.26
16.23
16.41
16.09
15.54
14.92
14.32
13.72
13.19
12.89
13.08
14.0
15.77
18.28
21.14
23.82
25.77
26.65
26.35
25.09
23.22
21.16
19.27
17.7
16.46
15.38
14.31
13.08
11.66
10.06
8.37
6.67
5.03
3.44
1.85
0.19
-1.63
-3.64
-5.86
-8.34
-11.03
-13.87
-16.72
-19.49
-22.13
-24.78
-27.66
-30.96
-34.65
-38.32
-41.24
-42.49
-41.3
-37.34
-30.82
-22.48
-13.32
-4.37
3.58
10.04
14.83
18.02
19.75
20.24
19.78
18.66
17.26
15.92
14.92
14.37
14.21
14.34
14.66
15.23
16.14
17.51
19.32
21.36
23.29
24.72
25.37
25.12
24.04
22.27
20.06
17.65
15.25
13.02
11.04
9.31
7.81
6.48
5.26
4.11
2.99
1.81
0.47
-1.2
-3.31
-5.96
-9.14
-12.74
-16.55
-20.29
-23.69
-26.58
-28.95
-31.03
-33.23
-35.99
-39.57
-43.93
-48.53
-52.46
-54.7
-54.36
-50.98
-44.68
-36.1
-26.22
-16.11
-6.74
1.24
7.49
11.97
14.95
16.77
17.87
18.58
19.14
19.62
20.0
20.22
20.24
20.12
20.01
20.13
20.69
21.8
23.39
25.2
26.85
27.93
28.17
27.53
26.18
24.41
22.5
20.65
18.91
17.28
15.68
14.08
12.51
11.02
9.7
8.59
7.7
6.93
6.11
5.02
3.48
1.4
-1.16
-3.99
-6.86
-9.58
-12.02
-14.14
-15.95
-17.52
-18.95
-20.4
-22.03
-24.01
-26.46
-29.41
-32.83
-36.67
-40.92
-45.59
-50.59
-55.64
-60.2
-63.54
-64.85
-63.45
-59.04
-51.74
-42.07
-30.91
-19.29
-8.28
1.2
8.49
13.37
16.0
16.94
16.9
16.54
16.33
16.43
16.8
17.28
17.76
18.26
18.89
19.78
21.04
22.71
24.69
26.82
28.86
30.53
31.61
31.97
31.59
30.56
29.0
27.01
24.67
22.07
19.3
16.6
14.25
12.57
11.78
11.89
12.65
13.58
14.09
13.66
12.02
9.17
5.47
1.43
-2.43
-5.72
-8.3
-10.22
-11.62
-12.74
-13.81
-15.08
-16.71
-18.85
-21.49
-24.55
-27.85
-31.29
-34.93
-38.92
-43.5
-48.63
-53.91
-58.51
-61.36
-61.45
-58.21
-51.69
-42.57
-31.94
-20.97
-10.7
-1.8
5.32
10.53
13.89
15.62
16.12
15.81
15.18
14.55
14.18
14.1
14.29
14.75
15.48
16.58
18.14
20.14
22.38
24.49
26.06
26.71
26.33
25.07
23.32
21.5
19.88
18.51
17.25
15.94
14.51
13.06
11.77
10.84
10.34
10.2
10.2
10.05
9.49
8.33
6.53
4.2
1.59
-1.03
-3.46
-5.62
-7.58
-9.48
-11.46
-13.57
-15.76
-17.94
-20.01
-21.98
-23.95
-26.11
-28.71
-31.98
-36.02
-40.71
-45.63
-49.95
-52.61
-52.53
-49.0
-41.92
-31.96
-20.29
-8.3
2.82
12.34
19.95
25.65
29.57
31.8
32.47
31.78
30.05
27.69
25.12
22.65
20.52
18.85
17.73
17.24
17.46
18.4
19.97
21.93
23.98
25.81
27.23
28.12
28.47
28.29
27.56
26.28
24.47
22.21
19.6
16.76
13.81
10.88
8.1
5.63
3.56
1.85
0.32
-1.39
-3.59
-6.46
-9.94
-13.75
-17.53
-20.98
-24.04
-26.89
-29.93
-33.58
-38.1
-43.37
-48.83
-53.57
-56.52
-56.77
-53.84
-47.78
-39.16
-28.91
-18.11
-7.74
1.35
8.66
13.99
17.49
19.57
20.82
21.75
22.7
23.76
24.78
25.59
26.06
26.24
26.33
26.6
27.22
28.27
29.65
31.16
32.54
33.51
33.84
33.39
32.13
30.16
27.72
25.09
22.55
20.32
18.47
16.96
15.71
14.6
13.52
12.45
11.31
10.09
8.74
7.19
5.36
3.18
0.54
-2.61
-6.23
-10.21
-14.37
-18.48
-22.35
-25.86
-29.02
-32.0
-35.15
-38.83
-43.34
-48.63
-54.22
-59.19
-62.45
-63.1
-60.75
-55.68
-48.66
-40.74
-32.82
-25.5
-19.02
-13.32
-8.21
-3.43
1.26
5.98
10.7
15.24
19.23
22.25
24.06
24.68
24.53
24.33
24.9
26.89
30.63
35.97
42.32
48.81
54.48
58.51
60.33
59.73
56.81
52.01
45.99
39.47
33.19
27.67
23.25
19.92
17.45
15.43
13.42
11.15
8.58
5.96
3.69
2.17
1.63
1.95
2.77
3.56
3.81
3.22
1.71
-0.59
-3.49
-6.8
-10.39
-14.23
-18.28
-22.58
-27.21
-32.29
-37.92
-44.02
-50.19
-55.62
-59.16
-59.67
-56.39
-49.32
-39.24
-27.59
-16.01
-5.88
1.97
7.37
10.65
12.44
13.38
13.97
14.53
15.21
16.03
16.93
17.86
18.78
19.69
20.66
21.79
23.19
24.93
26.97
29.18
31.38
33.35
34.94
36.02
36.53
36.41
35.63
34.19
32.07
29.28
25.81
21.63
16.8
11.58
6.32
1.53
-2.41
-5.27
-7.1
-8.06
-8.38
-8.17
-7.5
-6.41
-5.08
-3.83
-3.06
-3.08
-4.01
-5.76
-8.04
-10.55
-13.04
-15.43
-17.81
-20.34
-23.26
-26.77
-31.0
-35.87
-41.06
-45.92
-49.52
-50.87
-49.22
-44.26
-36.36
-26.44
-15.75
-5.54
3.21
9.94
14.43
16.71
16.98
15.54
12.83
9.32
5.51
1.81
-1.46
-4.1
-5.93
-6.81
-6.59
-5.21
-2.74
0.54
4.19
7.76
10.86
13.27
14.92
15.91
16.36
16.42
16.1
15.35
14.1
12.31
10.01
7.33
4.47
1.61
-1.06
-3.46
-5.51
-7.24
-8.68
-9.92
-11.01
-12.02
-12.9
-13.59
-14.07
-14.4
-14.76
-15.5
-16.96
-19.41
-22.86
-27.0
-31.19
-34.56
-36.29
-35.74
-32.7
-27.39
-20.36
-12.38
-4.21
3.44
10.03
15.16
18.71
20.69
21.34
21.02
20.05
18.74
17.34
16.06
15.18
14.89
15.27
16.2
17.4
18.54
19.38
19.93
20.41
21.09
22.15
23.5
24.81
25.69
25.76
24.9
23.2
20.96
18.55
16.37
14.76
13.94
13.93
14.48
15.15
15.36
14.6
12.65
9.62
5.9
2.05
-1.48
-4.4
-6.61
-8.14
-9.16
-9.85
-10.41
-11.09
-12.11
-13.72
-16.1
-19.42
-23.71
-28.84
-34.36
-39.59
-43.55
-45.28
-44.05
-39.64
-32.46
-23.45
-13.81
-4.69
3.11
9.2
13.62
16.65
18.67
20.03
21.03
21.81
22.35
22.56
22.27
21.41
20.04
18.55
17.4
17.07
17.77
19.37
21.46
23.47
24.94
25.6
25.41
24.45
22.84
20.68
18.13
15.47
13.03
11.1
9.81
9.05
8.51
7.87
6.98
5.85
4.68
3.59
2.6
1.54
0.22
-1.49
-3.53
-5.73
-7.87
-9.78
-11.4
-12.75
-13.92
-14.99
-16.03
-17.09
-18.23
-19.57
-21.25
-23.49
-26.5
-30.45
-35.28
-40.63
-45.75
-49.63
-51.26
-49.91
-45.45
-38.33
-29.5
-20.12
-11.22
-3.52
2.62
7.18
10.32
12.3
13.39
13.9
14.08
14.13
14.2
14.33
14.57
14.9
15.36
16.0
16.92
18.19
19.83
21.71
23.59
25.14
26.06
26.13
25.34
23.83
21.86
19.75
17.8
16.22
15.0
13.97
12.82
11.32
9.37
7.16
4.99
3.15
1.79
0.77
-0.16
-1.26
-2.65
-4.35
-6.25
-8.27
-10.38
-12.55
-14.76
-16.86
-18.68
-20.15
-21.33
-22.52
-24.1
-26.37
-29.47
-33.33
-37.74
-42.46
-47.25
-51.76
-55.46
-57.55
-57.17
-53.66
-46.91
-37.47
-26.41
-14.95
-4.15
5.39
13.46
20.03
25.1
28.54
30.2
30.01
28.16
25.06
21.25
17.29
13.67
10.74
8.76
7.87
8.15
9.5
11.72
14.49
17.41
20.1
22.2
23.46
23.75
23.07
21.61
19.67
17.56
15.53
13.63
11.8
9.88
7.79
5.57
3.34
1.23
-0.69
-2.41
-3.91
-5.2
-6.23
-7.0
-7.6
-8.23
-9.07
-10.27
-11.78
-13.45
-15.07
-16.57
-18.05
-19.79
-22.15
-25.45
-29.77
-34.95
-40.35
-45.06
-47.91
-47.87
-44.34
-37.45
-28.01
-17.34
-6.81
2.48
9.93
15.38
18.99
21.0
21.69
21.37
20.33
18.84
17.1
15.24
13.33
11.49
9.88
8.75
8.32
8.7
9.84
11.58
13.67
15.81
17.77
19.3
20.24
20.48
19.96
18.68
16.76
14.35
11.7
9.03
6.55
4.35
2.42
0.61
-1.23
-3.24
-5.46
-7.79
-10.06
-12.11
-13.87
-15.45
-17.12
-19.21
-22.03
-25.65
-29.96
-34.73
-39.74
-44.76
-49.55
-53.69
-56.51
-57.18
-54.94
-49.44
-40.94
-30.3
-18.77
-7.65
2.09
9.87
15.55
19.33
21.57
22.72
23.2
23.31
23.21
22.96
22.46
21.66
20.55
19.29
18.17
17.53
17.62
18.54
20.14
22.16
24.26
26.19
27.72
28.71
29.02
28.52
27.12
24.88
22.04
19.02
16.33
14.37
13.36
13.2
13.57
14.05
14.16
13.55
12.05
9.68
6.63
3.27
-0.01
-2.85
-5.05
-6.7
-8.07
-9.56
-11.53
-14.08
-17.1
-20.25
-23.19
-25.68
-27.81
-29.87
-32.31
-35.5
-39.53
-44.06
-48.35
-51.44
-52.42
-50.62
-45.85
-38.36
-28.84
-18.22
-7.58
2.06
9.93
15.65
19.29
21.28
22.27
22.79
23.17
23.47
23.59
23.4
22.9
22.2
21.57
21.3
21.68
22.89
24.91
27.52
30.33
32.85
34.6
35.24
34.63
32.81
30.01
26.65
23.15
19.94
17.28
15.19
13.53
12.04
10.52
8.96
7.48
6.26
5.38
4.74
4.11
3.2
1.85
0.06
-1.98
-4.08
-6.07
-7.94
-9.78
-11.73
-13.92
-16.44
-19.24
-22.26
-25.35
-28.4
-31.33
-34.21
-37.24
-40.68
-44.68
-49.09
-53.44
-56.89
-58.49
-57.4
-53.18
-45.95
-36.35
-25.38
-14.18
-3.87
4.74
11.16
15.38
17.72
18.74
19.06
19.21
19.5
20.02
20.73
21.5
22.2
22.74
23.08
23.31
23.55
24.0
24.76
25.83
26.99
27.92
28.34
28.07
27.16
25.76
24.07
22.22
20.3
18.36
16.45
14.68
13.09
11.67
10.34
8.96
7.43
5.75
3.94
2.12
0.41
-1.1
-2.32
-3.21
-3.89
-4.62
-5.75
-7.6
-10.3
-13.68
-17.34
-20.78
-23.62
-25.71
-27.14
-28.19
-29.22
-30.58
-32.61
-35.55
-39.36
-43.59
-47.37
-49.57
-49.19
-45.68
-39.22
-30.63
-21.09
-11.8
-3.68
2.74
7.41
10.56
12.6
13.98
15.11
16.27
17.59
19.01
20.3
21.17
21.41
20.97
20.07
19.12
18.63
19.0
20.36
22.55
25.12
27.56
29.42
30.39
30.3
29.13
26.99
24.13
20.93
17.79
15.09
12.99
11.48
10.32
9.18
7.79
6.01
3.92
1.74
-0.23
-1.74
-2.66
-3.07
-3.21
-3.34
-3.77
-4.6
-5.88
-7.53
-9.49
-11.69
-14.12
-16.84
-19.89
-23.34
-27.31
-31.83
-36.79
-41.79
-46.05
-48.54
-48.3
-44.72
-37.87
-28.45
-17.67
-6.89
2.71
10.39
15.82
19.05
20.4
20.29
19.25
17.78
16.35
15.29
14.68
14.47
14.5
14.61
14.7
14.77
14.95
15.43
16.4
17.92
19.88
21.99
23.81
24.92
25.07
24.24
22.64
20.63
18.46
16.26
13.93
11.31
8.29
4.95
1.55
-1.57
-4.08
-5.85
-6.93
-7.56
-8.11
-8.92
-10.29
-12.37
-15.17
-18.5
-22.07
-25.6
-28.9
-32.05
-35.34
-39.09
-43.48
-48.25
-52.69
-55.74
-56.36
-53.83
-48.08
-39.66
-29.61
-19.14
-9.35
-1.05
5.34
9.78
12.55
14.1
14.94
15.57
16.28
17.14
18.04
18.74
19.04
18.9
18.47
18.03
17.89
18.26
19.16
20.44
21.82
22.99
23.69
23.79
23.24
22.11
20.56
18.84
17.27
16.07
15.31
14.92
14.66
14.25
13.49
12.29
10.66
8.69
6.48
4.23
2.09
0.22
-1.36
-2.77
-4.37
-6.51
-9.44
-13.17
-17.42
-21.76
-25.81
-29.34
-32.39
-35.15
-37.86
-40.8
-44.2
-48.21
-52.86
-57.98
-63.04
-67.16
-69.24
-68.19
-63.34
-54.68
-42.95
-29.5
-15.95
-3.74
6.12
13.25
17.81
20.31
21.37
21.58
21.33
20.89
20.38
19.88
19.47
19.21
19.16
19.43
20.11
21.3
23.06
25.35
28.02
30.79
33.28
35.16
36.15
36.14
35.21
33.6
31.63
29.61
27.72
26.02
24.41
22.77
21.04
19.23
17.48
15.94
14.67
13.61
12.55
11.28
9.65
7.69
5.5
3.29
1.14
-0.95
-3.14
-5.61
-8.47
-11.77
-15.37
-19.12
-22.84
-26.41
-29.77
-32.97
-36.11
-39.37
-42.87
-46.54
-50.02
-52.63
-53.48
-51.71
-46.79
-38.7
-28.01
-15.8
-3.31
8.29
18.12
25.74
31.01
34.11
35.33
35.04
33.65
31.57
29.27
27.18
25.73
25.22
25.79
27.44
30.01
33.2
36.63
39.83
42.33
43.72
43.76
42.45
40.06
37.09
34.08
31.45
29.42
27.91
26.7
25.47
24.01
22.23
20.22
18.1
16.0
13.95
11.93
9.91
7.89
5.87
3.93
2.07
0.23
-1.7
-3.87
-6.35
-9.1
-11.94
-14.65
-17.06
-19.16
-21.11
-23.18
-25.77
-29.19
-33.67
-39.24
-45.62
-52.13
-57.81
-61.45
-61.92
-58.55
-51.33
-40.99
-28.78
-16.17
-4.47
5.44
13.08
18.42
21.65
23.14
23.28
22.45
21.01
19.28
17.51
15.96
14.88
14.47
14.93
16.36
18.65
21.54
24.52
27.03
28.56
28.91
28.19
26.91
25.67
24.88
24.56
24.31
23.42
21.29
17.67
12.84
7.49
2.47
-1.52
-4.16
-5.56
-6.1
-6.29
-6.54
-7.07
-7.98
-9.26
-11.0
-13.25
-16.11
-19.59
-23.58
-27.91
-32.36
-36.68
-40.55
-43.56
-45.11
-44.61
-41.6
-36.04
-28.3
-19.17
-9.62
-0.52
7.51
14.16
19.35
23.07
25.37
26.32
26.1
25.07
23.66
22.33
21.45
21.16
21.41
22.04
22.83
23.62
24.32
24.94
25.46
25.87
26.08
25.97
25.4
24.26
22.57
20.48
18.25
16.11
14.22
12.54
10.94
9.25
7.41
5.49
3.64
1.98
0.54
-0.8
-2.24
-3.98
-6.17
-8.83
-11.83
-14.93
-17.85
-20.37
-22.39
-24.04
-25.62
-27.56
-30.31
-34.19
-39.25
-45.17
-51.15
-55.98
-58.33
-57.11
-51.86
-43.03
-31.91
-20.19
-9.52
-0.97
5.19
9.34
12.28
14.75
17.23
19.76
22.03
23.59
24.04
23.23
21.28
18.65
16.01
14.06
13.37
14.21
16.49
19.8
23.57
27.15
30.0
31.73
32.1
31.08
28.77
25.5
21.75
18.06
14.85
12.36
10.54
9.14
7.91
6.66
5.29
3.8
2.24
0.67
-0.78
-1.99
-2.87
-3.41
-3.8
-4.38
-5.54
-7.57
-10.51
-14.13
-18.01
-21.66
-24.69
-26.89
-28.25
-29.05
-29.77
-31.02
-33.36
-37.01
-41.66
-46.41
-49.97
-51.02
-48.66
-42.7
-33.73
-22.92
-11.67
-1.27
7.4
13.9
18.2
20.54
21.36
21.14
20.37
19.47
18.71
18.23
18.0
17.96
18.0
18.14
18.48
19.23
20.55
22.42
24.58
26.56
27.83
27.96
26.74
24.37
21.27
18.1
15.51
14.01
13.77
14.55
15.67
16.26
15.58
13.27
9.59
5.32
1.48
-1.0
-1.69
-0.74
1.19
3.17
4.32
4.05
2.18
-1.09
-5.22
-9.55
-13.49
-16.63
-18.86
-20.34
-21.42
-22.53
-24.03
-26.16
-29.0
-32.53
-36.67
-41.23
-45.84
-49.89
-52.56
-53.01
-50.62
-45.23
-37.28
-27.65
-17.4
-7.53
1.17
8.23
13.35
16.41
17.5
16.91
15.2
13.06
11.18
10.01
9.66
9.93
10.42
10.73
10.66
10.21
9.59
9.17
9.37
10.51
12.78
16.14
20.28
24.68
28.75
31.97
33.99
34.77
34.5
33.45
31.91
30.03
27.82
25.28
22.37
19.15
15.77
12.44
9.39
6.83
4.86
3.46
2.45
1.54
0.35
-1.36
-3.64
-6.28
-8.87
-10.97
-12.38
-13.26
-14.16
-15.88
-19.16
-24.34
-31.12
-38.5
-44.91
-48.71
-48.62
-44.18
-35.96
-25.31
-14.03
-3.76
4.35
9.91
13.11
14.54
14.91
14.8
14.58
14.42
14.3
14.08
13.63
12.89
11.92
10.9
10.09
9.7
9.9
10.72
12.08
13.75
15.38
16.58
17.03
16.61
15.49
14.16
13.17
12.86
13.19
13.63
13.44
11.99
9.06
4.96
0.43
-3.71
-6.79
-8.52
-9.06
-8.86
-8.57
-8.74
-9.77
-11.71
-14.37
-17.39
-20.4
-23.16
-25.66
-28.12
-30.85
-34.15
-38.12
-42.54
-46.81
-50.07
-51.37
-49.99
-45.65
-38.63
-29.7
-19.92
-10.35
-1.83
5.11
10.25
13.63
15.43
15.94
15.47
14.34
12.83
11.18
9.67
8.62
8.37
9.18
11.07
13.72
16.46
18.48
19.13
18.21
16.07
13.52
11.46
10.56
11.08
12.8
15.2
17.58
19.27
19.74
18.7
16.17
12.53
8.47
4.76
2.09
0.76
0.67
1.34
2.15
2.57
2.31
1.24
-0.53
-2.86
-5.6
-8.61
-11.8
-15.05
-18.21
-21.08
-23.42
-25.08
-26.06
-26.68
-27.49
-29.2
-32.43
-37.35
-43.53
-49.91
-55.0
-57.31
-55.76
-50.05
-40.81
-29.39
-17.54
-6.85
1.55
7.26
10.5
11.92
12.31
12.37
12.6
13.23
14.29
15.65
17.09
18.39
19.42
20.17
20.75
21.38
22.31
23.67
25.39
27.22
28.75
29.58
29.51
28.56
27.05
25.41
24.0
23.0
22.3
21.61
20.56
18.89
16.59
13.92
11.34
9.43
8.6
8.97
10.19
11.47
11.84
10.53
7.3
2.57
-2.71
-7.45
-10.83
-12.63
-13.15
-13.03
-12.91
-13.21
-14.08
-15.51
-17.48
-19.99
-23.11
-26.87
-31.12
-35.51
-39.46
-42.28
-43.24
-41.84
-37.91
-31.64
-23.6
-14.54
-5.25
3.53
11.17
17.21
21.35
23.49
23.81
22.68
20.61
18.15
15.74
13.67
12.12
11.14
10.72
10.82
11.31
12.07
12.95
13.85
14.8
15.91
17.35
19.17
21.18
22.93
23.79
23.18
20.82
16.89
12.03
7.19
3.27
0.95
0.46
1.57
3.73
6.22
8.29
9.32
8.87
6.8
3.25
-1.33
-6.28
-10.88
-14.5
-16.81
-17.81
-17.84
-17.47
-17.33
-18.02
-19.92
-23.19
-27.65
-32.8
-37.85
-41.79
-43.67
-42.73
-38.71
-31.89
-23.13
-13.59
-4.5
3.17
8.85
12.43
14.21
14.73
14.59
14.36
14.44
14.99
15.89
16.78
17.17
16.61
14.87
12.14
9.02
6.35
4.93
5.25
7.33
10.64
14.38
17.71
19.95
20.72
20.03
18.1
15.38
12.36
9.46
6.94
4.91
3.35
2.13
1.12
0.17
-0.88
-2.18
-3.86
-6.0
-8.49
-11.11
-13.58
-15.65
-17.24
-18.46
-19.65
-21.16
-23.35
-26.41
-30.33
-34.83
-39.32
-42.95
-44.74
-43.87
-39.99
-33.43
-25.2
-16.63
-8.97
-2.98
1.28
4.29
6.76
9.27
12.07
15.08
18.01
20.5
22.24
22.99
22.66
21.37
19.47
17.47
16.02
15.63
16.51
18.46
20.97
23.31
24.91
25.43
24.9
23.62
21.97
20.25
18.6
17.07
15.58
14.09
12.53
10.86
9.07
7.28
5.71
4.73
4.64
5.55
7.22
9.02
10.12
9.86
7.94
4.61
0.51
-3.53
-6.85
-9.08
-10.19
-10.46
-10.26
-10.07
-10.36
-11.56
-13.97
-17.73
-22.68
-28.44
-34.43
-39.89
-44.03
-46.15
-45.75
-42.65
-37.1
-29.73
-21.39
-12.99
-5.24
1.42
6.83
11.06
14.23
16.43
17.72
18.07
17.51
16.16
14.26
12.18
10.38
9.23
9.05
9.95
11.86
14.56
17.72
20.94
23.76
25.8
26.8
26.69
25.63
23.91
21.85
19.67
17.44
15.1
12.57
9.86
7.14
4.7
2.83
1.72
1.33
1.39
1.56
1.55
1.26
0.79
0.32
-0.05
-0.46
-1.23
-2.72
-5.09
-8.18
-11.57
-14.77
-17.34
-19.18
-20.44
-21.49
-22.82
-24.83
-27.85
-32.01
-37.15
-42.76
-47.91
-51.44
-52.16
-49.3
-42.81
-33.48
-22.82
-12.55
-4.14
1.68
5.01
6.63
7.51
8.43
9.78
11.48
13.2
14.55
15.19
15.0
14.02
12.5
10.82
9.5
9.0
9.62
11.41
14.12
17.25
20.21
22.46
23.61
23.52
22.28
20.15
17.5
14.67
11.9
9.37
7.2
5.48
4.28
3.54
3.09
2.6
1.69
0.09
-2.22
-4.96
-7.57
-9.44
-10.16
-9.66
-8.25
-6.58
-5.43
-5.5
-7.2
-10.5
-14.95
-19.76
-24.1
-27.3
-29.13
-29.86
-30.15
-30.86
-32.73
-36.08
-40.63
-45.53
-49.52
-51.3
-49.86
-44.82
-36.57
-26.13
-14.89
-4.24
4.74
11.45
15.85
18.27
19.28
19.46
19.25
18.9
18.52
18.11
17.68
17.31
17.17
17.39
18.05
19.12
20.48
21.89
23.14
24.06
24.62
24.84
24.8
24.55
24.06
23.23
21.97
20.3
18.35
16.4
14.69
13.42
12.67
12.36
12.36
12.44
12.46
12.19
11.46
10.11
8.11
5.57
2.77
0.04
-2.32
-4.23
-5.8
-7.27
-8.89
-10.76
-12.91
-15.22
-17.63
-20.11
-22.71
-25.48
-28.47
-31.62
-34.77
-37.62
-39.72
-40.54
-39.54
-36.32
-30.79
-23.25
-14.35
-4.95
3.98
11.65
17.49
21.32
23.32
23.88
23.55
22.76
21.8
20.84
19.97
19.27
18.87
18.88
19.32
20.17
21.34
22.73
24.25
25.79
27.21
28.3
28.93
28.99
28.48
27.42
25.81
23.6
20.82
17.58
14.16
10.98
8.36
6.48
5.18
4.12
2.9
1.2
-1.06
-3.78
-6.74
-9.73
-12.55
-15.06
-17.19
-18.99
-20.67
-22.62
-25.27
-28.86
-33.27
-37.83
-41.43
-42.89
-41.37
-36.68
-29.36
-20.55
-11.53
-3.47
2.94
7.44
10.2
11.56
11.94
11.74
11.3
10.91
10.77
11.01
11.62
12.5
13.48
14.41
15.22
16.0
16.92
18.21
19.96
22.06
24.17
25.82
26.57
26.16
24.7
22.52
20.14
18.03
16.45
15.39
14.62
13.76
12.44
10.45
7.75
4.59
1.44
-1.16
-2.81
-3.43
-3.34
-3.27
-4.08
-6.4
-10.42
-15.73
-21.47
-26.63
-30.48
-32.86
-34.16
-35.24
-36.98
-39.98
-44.24
-49.16
-53.66
-56.49
