36.12
38.46
40.31
41.33
41.27
40.04
37.75
34.65
31.07
27.35
23.74
20.4
17.44
14.89
12.72
10.82
8.98
6.94
4.53
1.65
-1.6
-4.99
-8.27
-11.27
-13.95
-16.36
-18.64
-20.95
-23.43
-26.25
-29.51
-33.26
-37.54
-42.41
-47.89
-53.88
-59.92
-65.2
-68.61
-69.0
-65.55
-58.04
-46.96
-33.39
-18.82
-4.75
7.43
16.73
22.7
25.5
25.9
25.01
23.95
23.46
23.77
24.56
25.23
25.25
24.38
22.83
21.15
20.05
20.14
21.75
24.77
28.73
32.83
36.17
38.01
37.88
35.7
31.82
26.85
21.52
16.48
12.19
8.85
6.38
4.58
3.17
1.87
0.45
-1.28
-3.43
-6.08
-9.2
-12.71
-16.4
-20.06
-23.55
-26.94
-30.48
-34.53
-39.47
-45.52
-52.57
-60.12
-67.22
-72.62
-75.0
-73.32
-67.16
-56.89
-43.61
-28.83
-14.15
-0.86
10.22
18.74
24.77
28.63
30.81
31.82
32.13
32.08
31.83
31.46
31.05
30.73
30.71
31.23
32.4
34.25
36.6
39.2
41.71
43.81
45.2
45.68
45.14
43.6
41.17
38.1
34.69
31.26
28.08
25.3
22.92
20.77
18.65
16.31
13.68
10.79
7.83
5.03
2.48
0.14
-2.23
-4.89
-8.07
-11.79
-15.93
-20.25
-24.51
-28.59
-32.47
-36.23
-40.04
-44.14
-48.78
-54.16
-60.28
-66.71
-72.58
-76.62
-77.51
-74.29
-66.71
-55.33
-41.36
-26.33
-11.69
1.4
12.25
20.55
26.39
30.05
32.0
32.71
32.64
32.12
31.38
30.62
30.06
29.91
30.39
31.59
33.46
35.81
38.37
40.83
42.93
44.44
45.15
44.93
43.73
41.64
38.9
35.85
32.79
29.92
27.31
24.89
22.58
20.34
18.18
16.12
14.21
12.34
10.45
8.44
6.28
4.01
1.7
-0.6
-2.95
-5.45
-8.26
-11.49
-15.09
-18.95
-22.87
-26.67
-30.24
-33.62
-36.93
-40.37
-44.21
-48.7
-53.98
-59.85
-65.75
-70.63
-73.18
-72.14
-66.74
-57.04
-43.96
-29.1
-14.24
-0.87
10.03
18.14
23.6
26.78
28.19
28.29
27.61
26.61
25.71
25.12
24.89
24.93
25.16
25.66
26.64
28.26
30.55
33.26
35.95
38.14
39.48
39.86
39.36
38.2
36.57
34.62
32.45
30.13
27.72
25.3
22.9
20.6
18.41
16.38
14.52
12.83
11.25
9.73
8.2
6.56
4.77
2.79
0.6
-1.77
-4.4
-7.33
-10.64
-14.34
-18.32
-22.34
-26.12
-29.43
-32.2
-34.56
-36.82
-39.35
-42.54
-46.62
-51.62
-57.24
-62.78
-67.13
-69.0
-67.24
-61.21
-51.12
-37.98
-23.43
-9.21
3.21
12.96
19.79
23.98
26.06
26.61
26.17
25.17
23.93
22.67
21.58
20.78
20.35
20.37
20.93
22.08
23.86
26.2
28.85
31.42
33.44
34.56
34.65
33.79
32.23
30.27
28.07
25.72
23.27
20.78
18.36
16.14
14.21
12.51
10.96
9.5
8.08
6.72
5.36
3.94
2.36
0.57
-1.37
-3.38
-5.38
-7.4
-9.57
-12.04
-14.91
-18.1
-21.48
-24.85
-28.1
-31.21
-34.29
-37.51
-41.07
-45.2
-49.96
-55.22
-60.42
-64.55
-66.39
-64.83
-59.22
-49.76
-37.37
-23.53
-9.9
2.15
11.72
18.43
22.41
24.11
24.18
23.28
22.0
20.76
19.76
19.06
18.62
18.42
18.5
18.96
19.91
21.43
23.48
25.93
28.47
30.76
32.45
33.26
33.04
31.88
29.99
27.67
25.23
22.86
20.66
18.66
16.84
15.23
13.78
12.44
11.07
9.53
7.72
5.65
3.36
0.97
-1.46
-3.92
-6.44
-9.05
-11.71
-14.41
-17.08
-19.67
-22.13
-24.42
-26.51
-28.45
-30.36
-32.5
-35.19
-38.71
-43.19
-48.44
-53.9
-58.64
-61.54
-61.56
-58.03
-50.9
-40.75
-28.69
-16.09
-4.25
5.86
13.66
19.0
22.02
23.15
22.85
21.59
19.82
17.83
15.84
14.02
12.52
11.55
11.37
12.17
14.02
16.78
20.06
23.32
26.03
27.74
28.23
27.48
25.69
23.18
20.29
17.39
14.75
12.5
10.58
8.82
6.96
4.88
2.59
0.26
-1.89
-3.74
-5.3
-6.76
-8.34
-10.2
-12.39
-14.83
-17.37
-19.85
-22.2
-24.46
-26.83
-29.61
-33.14
-37.57
-42.71
-47.92
-52.13
-54.16
-53.06
-48.46
-40.64
-30.49
-19.14
-7.77
2.67
11.54
18.44
23.28
26.18
27.41
27.39
26.54
25.23
23.77
22.41
21.36
20.8
20.82
21.44
22.6
24.18
26.06
28.09
30.11
31.86
33.08
33.5
32.99
31.53
29.27
26.49
23.51
20.61
17.97
15.63
13.52
11.5
9.46
7.36
5.25
3.2
1.29
-0.5
-2.21
-3.9
-5.61
-7.37
-9.23
-11.29
-13.7
-16.58
-19.92
-23.54
-27.19
-30.61
-33.72
-36.63
-39.72
-43.45
-48.11
-53.66
-59.49
-64.53
-67.48
-67.13
-62.84
-54.66
-43.44
-30.51
-17.39
-5.34
4.75
12.47
17.86
21.22
23.03
23.81
23.99
23.87
23.63
23.3
22.92
22.55
22.31
22.36
22.83
23.81
25.24
27.0
28.87
30.61
31.98
32.78
32.87
32.23
30.88
28.94
26.58
24.0
21.41
19.01
16.9
15.09
13.47
11.87
10.15
8.26
6.18
4.01
1.84
-0.27
-2.32
-4.36
-6.47
-8.73
-11.17
-13.77
-16.49
-19.27
-22.1
-24.97
-27.88
-30.85
-33.9
-37.03
-40.36
-44.03
-48.25
-53.09
-58.29
-63.19
-66.71
-67.6
-64.83
-58.0
-47.51
-34.52
-20.62
-7.4
3.93
12.71
18.82
22.52
24.31
24.71
24.21
23.25
22.14
21.12
20.31
19.8
19.63
19.88
20.63
21.91
23.72
25.89
28.17
30.25
31.85
32.76
32.91
32.3
31.02
29.21
27.02
24.67
22.34
20.18
18.24
16.48
14.84
13.25
11.71
10.21
8.72
7.18
5.53
3.75
1.83
-0.16
-2.27
-4.59
-7.28
-10.46
-14.13
-18.1
-22.08
-25.79
-29.07
-32.01
-34.84
-37.95
-41.68
-46.23
-51.45
-56.77
-61.22
-63.58
-62.82
-58.34
-50.21
-39.23
-26.67
-13.97
-2.4
7.14
14.21
18.78
21.15
21.83
21.4
20.45
19.44
18.75
18.53
18.79
19.41
20.25
21.21
22.31
23.69
25.47
27.65
30.09
32.44
34.26
35.16
34.93
33.55
31.21
28.22
24.96
21.72
18.73
16.11
13.88
11.94
10.19
8.51
6.79
5.01
3.13
1.16
-0.86
-2.94
-5.07
-7.35
-9.86
-12.72
-16.0
-19.57
-23.22
-26.61
-29.52
-31.94
-34.2
-36.86
-40.52
-45.52
-51.64
-58.11
-63.7
-67.03
-66.97
-62.94
-55.03
-43.96
-30.96
-17.51
-5.01
5.44
13.29
18.52
21.57
23.07
23.6
23.58
23.19
22.54
21.76
21.05
20.61
20.59
21.06
22.02
23.47
25.39
27.68
30.16
32.49
34.25
35.07
34.75
33.29
30.97
28.15
25.21
22.4
19.84
17.5
15.29
13.09
10.86
8.61
6.41
4.31
2.34
0.45
-1.45
-3.48
-5.73
-8.31
-11.19
-14.28
-17.38
-20.29
-22.93
-25.42
-28.08
-31.35
-35.61
-40.94
-46.96
-52.83
-57.34
-59.31
-57.81
-52.5
-43.74
-32.53
-20.18
-8.08
2.71
11.53
18.19
22.78
25.53
26.67
26.41
25.01
22.81
20.24
17.83
16.02
15.23
15.58
17.04
19.34
22.14
25.06
27.75
29.97
31.54
32.34
32.27
31.28
29.4
26.75
23.58
20.17
16.81
13.67
10.85
8.27
5.77
3.17
0.31
-2.86
-6.3
-9.83
-13.21
-16.22
-18.72
-20.8
-22.76
-25.07
-28.22
-32.51
-37.82
-43.58
-48.76
-52.16
-52.66
-49.62
-43.02
-33.51
-22.16
-10.24
1.11
11.04
19.01
24.83
28.58
30.51
31.0
30.53
29.55
28.47
27.54
26.9
26.57
26.51
26.71
27.19
28.0
29.18
30.68
32.33
33.83
34.88
35.22
34.72
33.38
31.32
28.69
25.66
22.41
19.13
15.98
13.07
10.44
8.07
5.87
3.72
1.49
-0.91
-3.57
-6.52
-9.73
-13.14
-16.61
-20.08
-23.5
-27.01
-30.81
-35.2
-40.33
-46.08
-51.94
-56.96
-59.99
-59.98
-56.32
-48.98
-38.66
-26.51
-13.93
-2.21
7.71
15.33
20.64
23.95
25.76
26.59
26.88
26.91
26.81
26.62
26.34
25.99
25.67
25.55
25.83
26.65
28.01
29.77
31.63
33.26
34.3
34.55
33.92
32.51
30.48
28.1
25.58
23.1
20.7
18.33
15.91
13.32
10.61
7.86
5.22
2.82
0.66
-1.41
-3.6
-6.09
-9.0
-12.29
-15.83
-19.44
-22.97
-26.36
-29.7
-33.19
-37.11
-41.63
-46.62
-51.55
-55.47
-57.24
-55.9
-51.03
-42.92
-32.51
-21.08
-9.92
-0.06
7.9
13.83
17.9
20.57
22.3
23.5
24.45
25.2
25.7
25.81
25.52
24.91
24.17
23.59
23.42
23.79
24.73
26.06
27.52
28.75
29.43
29.33
28.38
26.64
24.31
21.61
18.77
15.95
13.21
10.53
7.86
5.18
2.57
0.12
-2.02
-3.76
-5.16
-6.38
-7.66
-9.16
-10.99
-13.1
-15.39
-17.79
-20.28
-22.94
-25.95
-29.47
-33.58
-38.2
-42.9
-46.95
-49.4
-49.31
-46.05
-39.6
-30.55
-20.01
-9.29
0.42
8.33
14.11
17.87
19.95
20.82
20.9
20.52
19.91
19.22
18.51
17.82
17.21
16.83
16.8
17.25
18.22
19.53
20.93
22.1
22.73
22.74
22.13
21.03
19.55
17.8
15.86
13.84
11.9
10.19
8.77
7.51
6.19
4.57
2.49
-0.03
-2.84
-5.74
-8.54
-11.07
-13.25
-14.98
-16.27
-17.2
-17.98
-18.94
-20.49
-23.0
-26.67
-31.41
-36.74
-41.85
-45.68
-47.24
-45.85
-41.41
-34.42
-25.85
-16.8
-8.24
-0.79
5.34
10.2
13.95
16.69
18.44
19.13
18.75
17.48
15.62
13.61
11.83
10.57
9.9
9.86
10.41
11.52
13.19
15.3
17.63
19.79
21.34
21.9
21.3
19.66
17.38
15.04
13.12
11.89
11.28
10.92
10.32
9.05
6.95
4.16
1.02
-2.04
-4.63
-6.56
-7.87
-8.74
-9.54
-10.61
-12.28
-14.71
-17.87
-21.52
-25.33
-28.96
-32.26
-35.3
-38.36
-41.64
-45.11
-48.27
-50.24
-49.97
-46.68
-40.14
-30.91
-20.14
-9.29
0.32
7.81
12.88
15.67
16.62
16.23
14.93
13.13
11.17
9.39
8.14
7.69
8.2
9.68
11.95
14.69
17.5
19.96
21.74
22.66
22.69
21.92
20.55
18.76
16.73
14.62
12.54
10.55
8.59
6.55
4.18
1.31
-2.05
-5.7
-9.19
-12.01
-13.8
-14.51
-14.5
-14.46
-15.12
-17.04
-20.39
-24.89
-29.89
-34.61
-38.28
-40.29
-40.25
-38.03
-33.73
-27.68
-20.39
-12.52
-4.77
2.26
8.17
12.8
16.2
18.52
19.97
20.68
20.7
20.03
18.71
16.88
14.8
12.84
11.44
10.89
11.32
12.58
14.31
16.04
17.34
17.89
17.59
16.51
14.89
13.02
11.11
9.33
7.71
6.18
4.59
2.79
0.62
-1.99
-5.02
-8.31
-11.6
-14.64
-17.23
-19.32
-21.07
-22.82
-24.95
-27.83
-31.56
-35.96
-40.44
-44.06
-45.76
-44.66
-40.39
-33.24
-24.14
-14.32
-5.02
2.9
8.99
13.23
15.89
17.34
17.96
18.08
17.94
17.73
17.54
17.39
17.27
17.18
17.12
17.16
17.37
17.79
18.41
19.13
19.78
20.13
19.97
19.17
17.68
15.63
13.21
10.66
8.19
5.97
4.01
2.19
0.33
-1.77
-4.22
-7.06
-10.13
-13.24
-16.17
-18.77
-21.04
-23.17
-25.5
-28.38
-32.07
-36.46
-41.04
-44.92
-47.07
-46.63
-43.16
-36.84
-28.31
-18.59
-8.74
0.22
7.53
12.81
16.05
17.65
18.22
18.41
18.68
19.15
19.68
20.01
19.97
19.58
19.02
18.52
18.24
18.24
18.52
19.01
19.61
20.12
20.3
19.91
18.8
17.01
14.68
12.08
9.4
6.73
4.04
1.29
-1.56
-4.44
-7.25
-9.91
-12.38
-14.71
-17.05
-19.59
-22.6
-26.29
-30.71
-35.59
-40.25
-43.75
-45.06
-43.45
-38.68
-31.18
-21.83
-11.79
-2.14
6.26
12.87
17.52
20.36
21.72
22.08
21.87
21.4
20.84
20.25
19.69
19.25
19.08
19.33
20.11
21.35
22.87
24.39
25.63
26.34
26.41
25.81
24.62
22.94
20.87
18.48
15.8
12.91
9.91
6.93
4.09
1.49
-0.88
-3.07
-5.2
-7.33
-9.51
-11.7
-13.85
-15.9
-17.91
-19.98
-22.35
-25.25
-28.86
-33.09
-37.53
-41.5
-44.09
-44.48
-42.11
-36.92
-29.34
-20.22
-10.61
-1.5
6.35
12.54
16.96
19.77
21.24
21.68
21.4
20.7
19.86
19.1
18.56
18.34
18.47
18.98
19.85
21.12
22.73
24.49
26.09
27.13
27.24
26.27
24.34
21.84
19.25
16.96
15.16
13.8
12.64
11.46
10.06
8.43
6.64
4.79
2.91
0.99
-1.04
-3.23
-5.58
-8.03
-10.45
-12.75
-14.89
-16.94
-19.02
-21.31
-23.96
-27.1
-30.83
-35.09
-39.56
-43.66
-46.5
-47.15
-44.96
-39.77
-32.09
-22.91
-13.42
-4.64
2.79
8.63
12.93
15.8
17.33
17.61
16.8
15.22
13.33
11.6
10.44
10.08
10.47
11.48
12.85
14.37
15.91
17.38
18.68
19.69
20.25
20.22
19.57
18.28
16.48
14.26
11.76
9.14
6.56
4.21
2.19
0.54
-0.88
-2.29
-3.91
-5.83
-7.98
-10.16
-12.15
-13.86
-15.35
-16.84
-18.64
-21.12
-24.52
-28.89
-33.9
-38.8
-42.57
-44.11
-42.66
-38.05
-30.79
-21.92
-12.64
-3.98
3.43
9.35
13.83
17.02
19.08
20.11
20.24
19.64
18.57
17.34
16.23
15.43
15.04
15.14
15.78
17.02
18.83
21.03
23.27
25.08
26.01
25.86
24.65
22.68
20.31
17.81
15.34
12.91
10.47
8.01
5.55
3.17
0.97
-1.0
-2.78
-4.49
-6.32
-8.39
-10.74
-13.31
-15.93
-18.47
-20.9
-23.39
-26.25
-29.81
-34.26
-39.49
-45.03
-50.1
-53.72
-54.97
-53.21
-48.26
-40.49
-30.72
-20.05
-9.6
-0.3
7.25
12.8
16.47
18.61
19.66
20.1
20.27
20.38
20.48
20.57
20.62
20.68
20.85
21.29
22.12
23.41
25.08
26.92
28.67
30.02
30.74
30.71
29.92
28.49
26.53
24.23
21.73
19.18
16.75
14.59
12.81
11.38
10.19
9.03
7.72
6.16
4.38
2.44
0.49
-1.37
-3.13
-4.83
-6.55
-8.47
-10.75
-13.56
-16.98
-20.93
-25.13
-29.24
-32.9
-36.04
-38.89
-42.01
-45.97
-51.02
-56.87
-62.6
-66.89
-68.4
-66.2
-60.08
-50.57
-38.81
-26.24
-14.32
-4.14
3.63
8.83
11.75
12.96
13.16
13.04
13.06
13.43
14.15
15.06
15.99
16.94
18.04
19.56
21.76
24.73
28.28
31.97
35.21
37.42
38.27
37.71
35.98
33.53
30.83
28.29
26.1
24.29
22.74
21.3
19.81
18.14
16.3
14.34
12.37
10.49
8.75
7.13
5.58
3.99
2.26
0.31
-1.96
-4.64
-7.81
-11.47
-15.52
-19.7
-23.75
-27.4
-30.56
-33.35
-36.03
-38.95
-42.5
-46.97
-52.45
-58.65
-64.84
-69.9
-72.51
-71.53
-66.35
-57.14
-44.84
-30.86
-16.78
-3.93
6.77
14.9
20.51
23.99
25.85
26.63
26.72
26.33
25.51
24.31
22.87
21.47
20.52
20.42
21.42
23.54
26.49
29.74
32.63
34.5
34.86
33.57
30.89
27.47
24.2
21.86
20.94
21.37
22.6
23.74
23.87
22.41
19.24
14.74
9.64
4.71
0.57
-2.45
-4.36
-5.39
-5.86
-6.17
-6.67
-7.68
-9.37
-11.81
-14.84
-18.15
-21.42
-24.42
-27.12
-29.72
-32.59
-36.15
-40.72
-46.32
-52.54
-58.47
-62.79
-64.16
-61.53
-54.64
-44.05
-31.06
-17.24
-4.06
7.47
16.87
23.99
28.91
31.67
32.4
31.31
28.82
25.57
22.28
19.66
18.21
18.15
19.43
21.84
25.09
28.87
32.86
36.65
39.75
41.68
42.06
40.82
38.23
34.78
31.0
27.37
24.12
21.34
18.95
16.87
15.02
13.31
11.59
9.69
7.45
4.72
1.45
-2.29
-6.37
-10.62
-14.9
-19.17
-23.43
-27.77
-32.29
-37.12
-42.38
-48.22
-54.61
-61.19
-67.14
-71.25
-72.2
-69.06
-61.56
-50.26
-36.4
-21.5
-6.99
5.94
16.54
24.47
29.7
32.6
33.75
33.84
33.47
33.05
32.72
32.49
32.38
32.49
33.05
34.25
36.18
38.74
41.66
44.55
47.01
48.73
49.51
49.3
48.16
46.14
43.34
39.9
36.03
32.04
28.29
25.11
22.66
20.83
19.33
17.75
15.73
13.15
10.1
6.88
3.79
0.98
-1.59
-4.15
-7.01
-10.45
-14.57
-19.24
-24.17
-29.05
-33.64
-37.87
-41.84
-45.79
-50.02
-54.87
-60.55
-67.01
-73.73
-79.7
-83.48
-83.62
-79.09
-69.66
-56.07
-39.85
-22.9
-7.05
6.34
16.58
23.58
27.78
29.9
30.72
30.94
31.0
31.1
31.25
31.37
31.45
31.58
31.92
32.67
33.95
35.75
37.95
40.33
42.62
44.53
45.77
46.07
45.31
43.5
40.88
37.83
34.79
32.09
29.91
28.15
26.63
25.08
23.35
21.4
19.28
17.07
14.86
12.69
10.58
8.53
6.47
4.3
1.88
-0.92
-4.14
-7.67
-11.34
-14.95
-18.34
-21.55
-24.76
-28.28
-32.39
-37.33
-43.2
-49.94
-57.33
-64.9
-71.92
-77.39
-80.24
-79.54
-74.82
-66.23
-54.54
-40.99
-26.94
-13.63
-1.95
7.62
14.94
20.16
23.58
25.59
26.61
27.0
27.07
27.0
26.93
26.89
27.0
27.4
28.29
29.86
32.19
35.15
38.4
41.35
43.4
44.08
43.28
41.27
38.65
36.09
34.07
32.65
31.47
29.97
27.7
24.56
20.83
17.1
13.95
11.78
10.61
10.2
10.1
9.89
9.19
7.87
5.91
3.47
0.74
-2.11
-5.02
-8.02
-11.18
-14.57
-18.13
-21.73
-25.18
-28.33
-31.18
-33.94
-37.03
-40.9
-45.89
-51.89
-58.33
-64.08
-67.73
-68.02
-64.15
-56.11
-44.68
-31.22
-17.33
-4.47
6.25
14.27
19.53
22.39
23.5
23.54
23.1
22.51
21.87
21.11
20.15
19.07
18.16
17.79
18.36
20.08
22.94
26.61
30.58
34.25
37.02
38.41
38.17
36.29
33.08
29.06
24.86
21.02
17.84
15.37
13.4
11.65
9.88
8.02
6.07
4.1
2.14
0.11
-2.08
-4.49
-7.1
-9.8
-12.48
-15.0
-17.27
-19.26
-21.05
-22.84
-24.97
-27.8
-31.62
-36.45
-41.9
-47.14
-51.01
-52.31
-50.12
-44.13
-34.76
-23.11
-10.61
1.3
11.55
19.6
25.37
29.11
31.12
31.68
30.98
29.26
26.84
24.17
21.74
20.0
19.19
19.34
20.29
21.81
23.62
25.52
27.34
28.93
30.16
30.82
30.72
29.69
27.69
24.89
21.67
18.51
15.87
13.92
12.58
11.49
10.27
8.63
6.53
4.09
1.51
-1.03
-3.4
-5.61
-7.69
-9.76
-11.96
-14.41
-17.14
-20.06
-22.98
-25.76
-28.35
-30.83
-33.39
-36.2
-39.44
-43.21
-47.52
-52.17
-56.65
-60.13
-61.53
-59.89
-54.68
-46.11
-35.07
-22.91
-11.06
-0.69
7.54
13.39
17.06
19.02
19.77
19.84
19.6
19.32
19.08
18.9
18.75
18.68
18.78
19.17
19.96
21.18
22.72
24.37
25.87
26.93
27.4
27.2
26.42
25.16
23.57
21.7
19.62
17.35
14.97
12.62
10.51
8.77
7.49
6.6
5.95
5.36
4.72
3.93
2.98
1.87
0.59
-0.84
-2.38
-4.05
-5.88
-7.97
-10.47
-13.47
-16.95
-20.76
-24.65
-28.4
-31.86
-35.05
-38.08
-41.21
-44.7
-48.71
-53.17
-57.67
-61.44
-63.44
-62.64
-58.33
-50.46
-39.68
-27.23
-14.68
-3.45
5.47
11.72
15.51
17.45
18.21
18.41
18.41
18.34
18.26
18.16
18.09
18.11
18.33
18.82
19.64
20.81
22.31
24.07
25.92
27.64
29.01
29.83
29.95
29.38
28.17
26.51
24.61
22.62
20.62
18.56
16.37
14.02
11.63
9.42
7.63
6.45
5.86
5.67
5.56
5.2
4.39
3.02
1.17
-1.03
-3.4
-5.77
-8.02
-10.15
-12.27
-14.51
-16.99
-19.75
-22.66
-25.57
-28.3
-30.8
-33.19
-35.67
-38.56
-42.1
-46.35
-51.06
-55.6
-59.04
-60.24
-58.3
-52.77
-43.92
-32.69
-20.46
-8.7
1.43
9.29
14.77
18.19
20.05
20.82
20.9
20.52
19.88
19.18
18.61
18.36
18.52
19.11
20.08
21.37
22.95
24.8
26.79
28.69
30.18
30.94
30.78
29.72
27.94
25.77
23.47
21.27
19.26
17.47
15.89
14.48
13.2
12.05
11.0
10.03
9.1
8.18
7.2
6.09
4.79
3.24
1.44
-0.57
-2.71
-4.92
-7.23
-9.7
-12.45
-15.49
-18.78
-22.15
-25.36
-28.27
-30.81
-33.15
-35.6
-38.58
-42.46
-47.25
-52.59
-57.57
-60.98
-61.63
-58.73
-52.18
-42.58
-31.02
-18.79
-7.1
3.11
11.22
16.96
20.36
21.79
21.78
20.93
19.76
18.65
17.79
17.22
16.97
16.97
17.25
17.85
18.82
20.2
21.91
23.8
25.59
27.03
27.84
27.89
27.14
25.56
23.24
20.3
17.02
13.77
10.94
8.78
7.36
6.51
5.91
5.26
4.36
3.17
1.86
0.63
-0.32
-0.88
-1.13
-1.32
-1.77
-2.86
-4.81
-7.66
-11.26
-15.32
-19.46
-23.36
-26.75
-29.54
-31.86
-34.05
-36.58
-39.83
-43.87
-48.21
-51.92
-53.8
-52.78
-48.3
-40.52
-30.26
-18.77
-7.42
2.6
10.49
15.92
18.97
20.05
19.76
18.74
17.49
16.37
15.49
14.85
14.3
13.78
13.29
12.99
13.17
14.07
15.79
18.19
20.92
23.53
25.57
26.74
26.89
26.06
24.36
21.94
18.96
15.56
11.84
7.93
4.02
0.37
-2.75
-5.17
-6.94
-8.39
-10.01
-12.34
-15.64
-19.9
-24.81
-29.88
-34.72
-39.11
-43.1
-47.04
-51.58
-57.59
-65.84
-76.57
-89.11
-101.68
-111.74
-116.77
-115.12
-106.5
-91.86
-72.74
-50.56
-26.42
-1.37
23.19
45.29
62.83
74.4
79.86
80.51
78.46
75.7
73.36
71.68
70.38
69.32
68.83
69.51
71.79
75.47
79.6
82.91
84.36
83.54
80.82
77.0
72.75
68.28
63.3
57.2
49.48
39.97
28.76
16.24
3.02
-9.95
-21.42
-30.03
-34.82
-35.68
-33.57
-30.29
-27.69
-26.94
-28.08
-30.13
-31.75
-31.88
-30.27
-27.41
-24.18
-21.31
-19.07
-17.26
-15.5
-13.46
-11.18
-8.94
-7.22
-6.42
-6.78
-8.33
-10.94
-14.34
-18.07
-21.48
-23.83
-24.45
-23.06
-19.88
-15.6
-11.14
-7.17
-3.92
-1.01
2.22
6.39
11.71
17.83
23.98
29.29
33.08
35.1
35.49
34.73
33.37
31.91
30.69
29.92
29.75
30.29
31.6
33.57
35.94
38.2
39.81
40.3
39.51
37.6
34.94
32.01
29.08
26.31
23.62
20.94
18.18
15.39
12.66
10.11
7.86
6.04
4.78
4.16
4.13
4.43
4.64
4.31
3.05
0.8
-2.25
-5.67
-9.02
-12.0
-14.61
-17.09
-19.8
-23.07
-27.12
-31.91
-37.06
-41.87
-45.4
-46.6
-44.69
-39.33
-30.87
-20.34
-9.18
1.19
9.77
16.22
20.82
24.11
26.6
28.47
29.61
29.81
28.93
27.07
24.61
22.09
20.09
19.22
19.9
22.34
26.31
31.07
35.39
37.9
37.59
34.3
28.87
22.87
17.93
15.12
14.63
15.78
17.58
19.12
19.81
19.24
17.15
13.3
7.77
1.12
-5.47
-10.57
-13.2
-13.27
-11.68
-9.95
-9.5
-11.08
-14.62
-19.51
-24.84
-29.77
-33.45
-34.92
-33.23
-27.69
-18.25
-5.74
8.27
21.99
33.99
43.59
50.93
56.65
61.5
65.96
70.24
74.31
78.09
81.51
84.52
87.08
89.12
90.66
91.87
93.14
94.95
97.77
101.76
106.66
111.75
115.97
118.25
117.77
114.36
108.55
101.43
94.32
88.37
84.3
82.25
81.88
82.47
83.03
82.46
79.75
74.26
65.83
54.95
42.56
29.78
17.47
6.04
-4.63
-15.05
-25.82
-37.42
-50.07
-63.68
-77.8
-91.77
-104.92
-116.75
-127.15
-136.35
-144.82
-153.0
-161.11
-169.17
-177.0
-184.44
-191.5
-198.31
-205.03
-211.68
-218.09
-223.95
-228.9
-232.68
-235.2
-236.45
-236.4
-235.0
-232.18
-227.99
-222.51
-215.77
-207.53
-197.14
-183.67
-166.3
-144.65
-119.08
-90.59
-60.62
-30.64
-1.93
24.57
48.18
68.43
85.06
97.97
107.31
113.37
116.55
117.29
115.98
112.92
108.31
102.24
94.79
86.17
76.79
67.25
58.16
50.07
43.19
37.38
32.26
27.36
22.32
17.0
11.47
5.97
0.71
-4.19
-8.87
-13.65
-19.05
-25.58
-33.47
-42.31
-51.02
-57.9
-61.09
-59.2
-51.91
-40.15
-25.86
-11.34
1.53
11.76
19.31
24.72
28.63
31.41
33.03
33.21
31.61
27.97
22.25
14.88
6.88
-0.22
-4.75
-5.57
-2.64
2.88
9.0
13.7
15.75
14.97
12.03
7.83
2.95
-2.43
-8.31
-14.55
-20.63
-25.9
-29.92
-32.65
-34.48
-36.04
-37.87
-40.21
-42.9
-45.56
-47.74
-49.21
-50.01
-50.41
-50.83
-51.53
-52.58
-53.74
-54.65
-54.94
-54.51
-53.45
-52.07
-50.61
-49.15
-47.66
-46.05
-44.44
-43.16
-42.71
-43.52
-45.82
-49.54
-54.26
-59.39
-64.09
-67.41
-68.37
-66.16
-60.33
-50.91
-38.49
-23.87
-7.97
8.51
25.18
41.82
58.25
74.32
89.9
105.08
120.32
136.3
153.68
172.45
191.53
208.6
220.58
224.47
218.38
202.29
178.12
149.14
118.98
90.57
65.67
44.84
27.9
14.43
4.02
-3.79
-9.64
-14.32
-18.58
-22.75
-26.5
-29.09
-29.69
-27.95
-24.31
-19.83
-15.74
-12.96
-11.78
-11.83
-12.31
-12.38
-11.38
-8.91
-4.85
0.64
7.12
13.97
20.44
25.91
30.02
32.67
34.07
34.45
34.08
33.15
31.89
30.64
30.01
30.78
33.68
39.01
46.26
54.0
60.2
62.95
61.26
55.61
47.85
40.43
35.41
33.61
34.35
36.03
36.93
35.91
32.76
27.88
21.88
15.25
8.32
1.42
-5.0
-10.5
-14.87
-18.42
-21.84
-25.87
-30.8
-36.32
-41.53
-45.47
-47.67
-48.33
-48.23
-48.33
-49.37
-51.67
-55.12
-59.37
-63.99
-68.66
-73.14
-77.36
-81.27
-84.96
-88.54
-92.22
-96.2
-100.58
-105.26
-109.87
-113.94
-117.19
-119.68
-121.98
-124.83
-128.73
-133.59
-138.76
-143.29
-146.35
-147.38
-145.88
-141.28
-133.02
-120.9
-105.61
-88.8
-72.68
-59.09
-48.74
-41.03
-34.46
-27.54
-19.53
-10.6
-1.42
7.35
15.41
22.68
28.97
33.8
36.71
37.76
38.06
39.77
45.49
57.15
75.08
97.83
122.64
146.47
166.72
181.53
189.49
189.46
180.74
163.67
140.24
114.05
89.33
69.53
56.09
48.1
43.06
38.29
32.1
24.27
15.61
7.11
-0.65
-7.68
-14.31
-20.8
-27.07
-32.88
-38.05
-42.69
-47.24
-52.28
-58.25
-65.24
-72.86
-80.34
-86.62
-90.59
-91.22
-87.85
-80.38
-69.34
-55.8
-41.07
-26.37
-12.58
-0.14
10.81
20.27
28.21
34.55
39.26
42.48
44.51
45.74
46.5
47.0
47.28
47.25
46.92
46.38
45.84
45.56
45.77
46.49
47.62
48.87
49.9
50.45
50.33
49.56
48.22
46.51
44.54
42.37
39.99
37.37
34.53
31.54
28.55
25.68
23.08
20.74
18.54
16.26
13.66
10.6
7.11
3.4
-0.21
-3.45
-6.22
-8.62
-10.95
-13.55
-16.74
-20.73
-25.58
-31.09
-36.81
-41.92
-45.46
-46.49
-44.44
-39.28
-31.49
-21.97
-11.74
-1.74
7.38
15.22
21.66
26.73
30.58
33.38
35.25
36.26
36.46
35.96
34.94
33.65
32.28
30.98
29.81
28.81
28.07
27.75
27.99
28.8
30.01
31.29
32.23
32.46
31.77
30.21
27.96
25.35
22.67
20.09
17.55
14.86
11.84
8.41
4.69
0.96
