29.78
27.78
25.7
23.99
23.0
22.94
23.83
25.54
27.79
30.28
32.73
34.91
36.64
37.77
38.16
37.66
36.18
33.76
30.59
27.05
23.59
20.6
18.23
16.39
14.76
13.03
10.98
8.62
6.19
3.92
1.91
0.04
-2.02
-4.62
-8.0
-12.19
-16.98
-21.99
-26.8
-31.11
-34.78
-37.92
-40.85
-44.04
-47.98
-52.94
-58.77
-64.82
-69.99
-72.93
-72.48
-68.0
-59.59
-48.06
-34.69
-20.89
-7.87
3.52
12.86
20.04
25.21
28.61
30.57
31.47
31.68
31.56
31.4
31.39
31.66
32.23
33.14
34.32
35.75
37.33
38.93
40.39
41.53
42.16
42.15
41.43
40.04
38.1
35.8
33.34
30.83
28.36
25.87
23.28
20.48
17.41
14.07
10.53
6.95
3.51
0.39
-2.28
-4.53
-6.49
-8.47
-10.84
-13.87
-17.71
-22.21
-27.05
-31.82
-36.17
-39.93
-43.21
-46.29
-49.54
-53.27
-57.43
-61.57
-64.78
-65.89
-63.78
-57.77
-47.91
-34.97
-20.36
-5.64
7.77
18.86
27.16
32.74
36.07
37.94
39.17
40.38
41.9
43.63
45.22
46.24
46.4
45.65
44.16
42.23
40.16
38.26
36.79
35.96
35.83
36.35
37.23
38.1
38.61
38.46
37.56
35.93
33.62
30.66
27.07
22.86
18.06
12.85
7.49
2.31
-2.39
-6.39
-9.58
-11.97
-13.69
-14.92
-15.9
-16.93
-18.24
-20.01
-22.28
-24.87
-27.53
-30.03
-32.31
-34.53
-37.1
-40.5
-45.08
-50.86
-57.41
-63.89
-69.13
-71.94
-71.36
-67.0
-59.04
-48.27
-35.89
-23.18
-11.28
-1.03
7.16
13.23
17.4
20.06
21.62
22.39
22.6
22.31
21.65
20.81
20.08
19.77
20.13
21.26
23.15
25.64
28.54
31.59
34.5
36.94
38.55
39.11
38.55
37.04
34.96
32.76
30.85
29.42
28.4
27.53
26.53
25.19
23.5
21.63
19.77
18.12
16.73
15.58
14.57
13.56
12.39
10.92
9.07
6.82
4.29
1.68
-0.89
-3.43
-6.09
-9.16
-12.91
-17.41
-22.46
-27.54
-31.85
-34.55
-34.93
-32.66
-27.89
-21.22
-13.47
-5.51
2.0
8.64
14.16
18.44
21.4
23.07
23.49
22.87
21.48
19.58
17.44
15.28
13.31
11.78
10.9
10.8
11.5
12.81
14.41
15.92
17.02
17.54
17.39
16.62
15.27
13.45
11.23
8.77
6.23
3.74
1.38
-0.91
-3.25
-5.75
-8.37
-10.95
-13.33
-15.38
-17.19
-18.96
-20.92
-23.21
-25.85
-28.78
-31.98
-35.52
-39.42
-43.52
-47.28
-49.82
-50.23
-47.84
-42.54
-34.89
-25.83
-16.4
-7.45
0.56
7.48
13.37
18.31
22.31
25.32
27.22
28.03
27.88
27.02
25.8
24.51
23.35
22.42
21.78
21.48
21.59
22.18
23.18
24.4
25.48
26.06
25.89
24.92
23.34
21.43
19.51
17.78
16.3
14.95
13.6
12.14
10.55
8.92
7.36
5.96
4.7
3.49
2.16
0.57
-1.33
-3.58
-6.19
-9.18
-12.57
-16.33
-20.27
-24.16
-27.74
-30.96
-34.02
-37.31
-41.19
-45.7
-50.3
-54.01
-55.62
-54.2
-49.43
-41.76
-32.23
-22.09
-12.45
-4.02
2.89
8.27
12.28
15.06
16.76
17.54
17.63
17.29
16.8
16.35
16.1
16.02
16.06
16.15
16.3
16.61
17.19
18.14
19.36
20.67
21.78
22.42
22.47
21.92
20.93
19.64
18.24
16.8
15.37
13.94
12.51
11.14
9.91
8.92
8.23
7.75
7.29
6.59
5.45
3.86
1.98
0.07
-1.62
-3.04
-4.27
-5.51
-6.98
-8.85
-11.14
-13.75
-16.55
-19.36
-22.03
-24.49
-26.8
-29.11
-31.65
-34.61
-38.01
-41.59
-44.75
-46.71
-46.71
-44.23
-39.18
-31.93
-23.2
-13.88
-4.87
3.12
9.62
14.46
17.68
19.5
20.22
20.12
19.45
18.36
16.98
15.43
13.86
12.46
11.4
10.83
10.82
11.36
12.39
13.77
15.35
16.92
18.25
19.14
19.41
19.03
18.07
16.77
15.42
14.26
13.39
12.72
12.0
11.06
9.87
8.57
7.39
6.49
5.86
5.36
4.79
3.99
2.95
1.7
0.27
-1.33
-3.09
-4.95
-6.74
-8.29
-9.48
-10.34
-11.06
-11.86
-12.92
-14.28
-15.91
-17.73
-19.79
-22.29
-25.45
-29.37
-33.83
-38.27
-41.84
-43.65
-43.03
-39.71
-33.91
-26.29
-17.75
-9.29
-1.74
4.28
8.58
11.27
12.73
13.41
13.69
13.8
13.8
13.66
13.35
12.85
12.22
11.59
11.15
11.08
11.5
12.4
13.65
14.97
16.08
16.74
16.8
16.19
14.86
12.86
10.35
7.61
5.04
3.01
1.69
0.99
0.6
0.17
-0.54
-1.53
-2.62
-3.58
-4.25
-4.62
-4.77
-4.82
-4.84
-4.83
-4.77
-4.71
-4.73
-4.97
-5.62
-6.8
-8.54
-10.77
-13.34
-16.01
-18.63
-21.07
-23.31
-25.43
-27.46
-29.49
-31.58
-33.85
-36.41
-39.25
-42.05
-44.17
-44.78
-43.16
-39.05
-32.8
-25.24
-17.4
-10.1
-3.79
1.48
5.84
9.46
12.41
14.71
16.43
17.66
18.55
19.18
19.54
19.57
19.26
18.73
18.25
18.19
18.85
20.29
22.28
24.4
26.23
27.49
27.99
27.67
26.47
24.37
21.59
18.54
15.8
13.87
12.93
12.71
12.57
11.91
10.35
7.95
5.04
2.01
-0.92
-3.76
-6.71
-9.96
-13.63
-17.67
-21.85
-25.82
-29.16
-31.6
-33.03
-33.67
-33.92
-34.35
-35.39
-37.25
-39.79
-42.51
-44.69
-45.57
-44.5
-41.17
-35.63
-28.31
-20.02
-11.67
-4.2
1.73
5.89
8.53
10.29
11.94
14.09
17.0
20.54
24.25
27.6
30.13
31.59
31.99
31.55
30.59
29.48
28.43
27.47
26.37
24.78
22.42
19.15
15.15
10.73
6.25
1.94
-2.14
-6.05
-9.81
-13.36
-16.53
-19.17
-21.26
-23.04
-24.87
-27.15
-30.18
-33.99
-38.4
-43.12
-47.82
-52.31
-56.57
-60.63
-64.55
-68.24
-71.44
-73.85
-75.23
-75.62
-75.34
-74.92
-74.94
-75.88
-77.97
-81.08
-84.73
-88.05
-89.97
-89.31
-85.18
-77.25
-65.89
-52.09
-37.1
-22.03
-7.66
5.64
17.58
27.77
35.64
40.57
42.25
40.98
37.71
33.78
30.46
28.45
27.65
27.24
26.06
23.15
18.12
11.4
4.0
-2.84
-8.14
-11.57
-13.53
-15.09
-17.63
-22.62
-31.18
-43.73
-59.44
-75.79
-88.58
-92.86
-84.62
-62.68
-29.69
8.34
44.07
71.43
87.53
93.03
90.89
84.45
75.94
66.21
55.5
44.38
34.13
26.26
21.63
19.79
19.08
17.42
13.38
6.84
-0.97
-8.12
-12.88
-14.39
-12.81
-9.14
-4.56
-0.05
4.04
7.85
11.92
16.77
22.69
29.55
36.85
43.9
50.01
54.58
57.29
58.02
56.89
54.2
50.45
46.33
42.58
39.84
38.5
38.59
39.8
41.6
43.38
44.66
45.15
44.84
43.83
42.37
40.66
38.89
37.13
35.37
33.49
31.3
28.64
25.37
21.48
17.09
12.43
7.86
3.71
0.32
-2.07
-3.41
-3.79
-3.45
-2.76
-2.05
-1.6
-1.55
-2.01
-3.08
-4.98
-8.0
-12.34
-17.92
-24.16
-30.09
-34.46
-36.23
-34.76
-30.09
-22.82
-13.88
-4.31
4.97
13.29
20.26
25.73
29.81
32.72
34.75
36.1
36.82
36.95
36.54
35.79
35.01
34.46
34.33
34.61
35.18
35.84
36.51
37.13
37.66
38.0
37.95
37.29
35.87
33.69
30.96
28.0
25.14
22.56
20.31
18.2
16.0
13.45
10.49
7.15
3.63
0.06
-3.56
-7.34
-11.43
-15.91
-20.61
-25.22
-29.44
-33.16
-36.49
-39.75
-43.06
-46.31
-49.04
-50.61
-50.47
-48.43
-44.59
-39.26
-32.81
-25.6
-17.98
-10.48
-3.72
1.72
5.56
8.04
9.92
12.29
16.16
22.09
29.95
39.02
48.26
56.73
64.03
70.29
76.12
82.17
88.71
95.42
101.49
105.92
107.89
107.0
103.36
97.45
90.0
81.88
73.84
66.3
58.97
50.7
39.79
24.55
4.41
-19.38
-43.57
-63.57
-74.85
-74.36
-61.58
-38.66
-9.9
19.45
44.35
60.88
66.8
61.7
46.91
25.19
0.28
-23.95
-44.2
-58.38
-65.86
-67.16
-63.46
-56.04
-45.97
-34.0
-20.87
-7.52
4.78
14.6
20.61
21.97
18.72
12.09
4.38
-1.46
-2.9
1.13
9.63
19.72
27.76
30.95
28.54
22.2
15.34
11.52
12.85
18.96
27.12
33.25
33.4
25.14
8.33
-14.67
-39.68
-61.81
-76.76
-81.97
-77.12
-64.06
-46.03
-26.69
-9.11
4.64
13.65
17.8
17.42
13.02
5.22
-5.23
-17.43
-30.4
-43.19
-54.93
-64.87
-72.45
-77.31
-79.32
-78.63
-75.69
-71.08
-65.49
-59.43
-53.07
-46.3
-38.79
-30.32
-21.1
-11.83
-3.53
2.92
7.16
9.63
11.4
13.85
18.2
25.08
34.33
44.76
54.27
60.13
59.63
51.03
34.37
11.82
-12.73
-34.73
-50.3
-57.21
-55.18
-45.56
-30.42
-11.83
8.41
28.7
47.36
62.6
72.91
77.63
77.4
74.08
70.01
66.94
65.34
64.16
61.45
55.38
45.12
31.11
14.77
-2.22
-18.53
-33.44
-46.65
-57.83
-66.41
-71.62
-72.78
-69.77
-63.28
-54.69
-45.67
-37.74
-31.85
-28.23
-26.49
-25.89
-25.68
-25.36
-24.81
-24.22
-23.89
-24.06
-24.69
-25.48
-26.03
-25.95
-25.08
-23.44
-21.2
-18.54
-15.64
-12.66
-9.77
-7.23
-5.28
-4.09
-3.67
-3.85
-4.37
-4.96
-5.45
-5.78
-6.05
-6.39
-6.91
-7.63
-8.49
-9.39
-10.22
-10.95
-11.6
-12.31
-13.21
-14.4
-15.96
-17.82
-19.9
-22.01
-23.97
-25.6
-26.81
-27.62
-28.23
-29.01
-30.36
-32.57
-35.6
-38.98
-41.89
-43.37
-42.69
-39.61
-34.45
-28.03
-21.3
-15.09
-9.86
-5.71
-2.5
0.0
1.95
3.39
4.3
4.67
4.54
4.02
3.23
2.34
1.47
0.72
0.2
0.06
0.39
1.26
2.6
4.18
5.68
6.76
7.14
6.69
5.52
3.83
1.88
-0.09
-1.93
-3.55
-4.93
-6.05
-6.9
-7.47
-7.78
-7.94
-8.09
-8.38
-8.93
-9.78
-10.87
-12.12
-13.42
-14.73
-16.1
-17.56
-19.2
-21.11
-23.43
-26.31
-29.87
-34.01
-38.35
-42.2
-44.63
-44.78
-42.11
-36.66
-29.01
-20.15
-11.15
-2.92
3.98
9.35
13.22
15.74
17.14
17.59
17.28
16.31
14.88
13.11
11.24
9.52
8.24
7.67
7.96
9.13
10.98
13.22
15.48
17.45
18.9
19.74
19.99
19.68
18.86
17.56
15.79
13.63
11.17
8.58
5.93
3.26
0.51
-2.43
-5.63
-9.1
-12.7
-16.25
-19.62
-22.82
-25.98
-29.37
-33.18
-37.5
-42.35
-47.62
-53.11
-58.4
-62.9
-65.82
-66.33
-63.8
-58.02
-49.36
-38.64
-26.94
-15.32
-4.66
4.45
11.72
17.08
20.7
22.86
23.92
24.19
23.91
23.19
22.12
20.77
19.3
17.92
16.95
16.66
17.24
18.69
20.82
23.25
25.54
27.32
28.34
28.56
28.03
26.87
25.18
23.11
20.79
18.37
15.95
13.56
11.1
8.47
5.62
2.66
-0.25
-2.96
-5.48
-8.0
-10.82
-14.15
-17.98
-22.0
-25.78
-28.97
-31.47
-33.51
-35.57
-38.24
-41.99
-47.02
-53.06
-59.33
-64.57
-67.28
-66.12
-60.26
-49.74
-35.49
-19.15
-2.63
12.35
24.55
33.44
39.09
41.99
42.82
42.24
40.85
39.17
37.62
36.52
36.0
35.98
36.2
36.38
36.48
36.67
37.3
38.68
40.77
43.21
45.29
46.31
45.87
44.0
41.12
37.78
34.46
31.35
28.42
25.4
22.07
18.36
14.42
10.5
6.87
3.62
0.71
-2.08
-4.96
-8.05
-11.34
-14.72
-18.03
-21.12
-23.97
-26.72
-29.62
-32.99
-37.16
-42.3
-48.34
-54.75
-60.62
-64.78
-66.05
-63.6
-57.19
-47.32
-35.07
-21.84
-8.98
2.49
12.01
19.44
24.96
28.89
31.53
33.15
33.9
33.91
33.29
32.26
31.08
30.03
29.38
29.34
30.0
31.33
33.21
35.4
37.54
39.26
40.15
39.95
38.59
36.31
33.49
30.56
27.79
25.22
22.69
19.93
16.85
13.54
10.25
7.2
4.43
1.74
-1.17
-4.55
-8.37
-12.35
-16.14
-19.38
-21.95
-24.01
-25.84
-27.74
-29.97
-32.77
-36.32
-40.67
-45.58
-50.35
-53.86
-54.85
-52.27
-45.76
-35.74
-23.38
-10.19
2.45
13.54
22.59
29.48
34.28
37.15
38.31
38.05
36.84
35.2
33.58
32.3
31.47
31.08
31.06
31.39
32.1
33.22
34.72
36.46
38.19
39.61
40.42
40.34
39.25
37.15
34.26
30.91
27.44
24.17
21.22
18.58
16.06
13.45
10.51
7.15
3.44
-0.41
-4.04
-7.22
-9.9
-12.33
-14.97
-18.33
-22.72
-28.05
-33.86
-39.26
-43.26
-44.85
-43.35
-38.55
-30.73
-20.72
-9.61
1.45
11.49
19.92
26.52
31.3
34.44
36.11
36.43
35.61
33.93
31.76
29.48
27.44
25.86
24.81
24.28
24.24
24.68
25.56
26.74
28.0
29.02
29.48
29.22
28.19
26.51
24.35
21.9
19.36
16.85
14.45
12.14
9.86
7.47
4.84
1.91
-1.28
-4.57
-7.71
-10.49
-12.78
-14.62
-16.19
-17.83
-19.83
-22.43
-25.73
-29.7
-34.06
-38.33
-41.76
-43.48
-42.68
-38.95
-32.38
-23.63
-13.78
-3.94
4.99
12.47
18.3
22.48
25.11
26.32
26.38
25.63
24.46
23.24
22.23
21.55
21.23
21.3
21.76
22.6
23.71
24.86
25.82
26.38
26.49
26.15
25.45
24.37
22.86
20.85
18.41
15.65
12.74
9.85
7.02
4.29
1.66
-0.81
-3.01
-4.86
-6.37
-7.64
-8.83
-10.11
-11.61
-13.36
-15.27
-17.17
-18.9
-20.34
-21.59
-22.91
-24.69
-27.3
-30.86
-35.16
-39.58
-43.2
-45.04
-44.32
-40.66
-34.25
-25.81
-16.41
-7.21
0.83
7.16
11.63
14.48
16.06
16.72
16.66
16.0
14.81
13.22
11.48
9.88
8.73
8.18
8.29
8.93
9.97
11.23
12.58
13.93
15.13
16.03
16.41
16.09
14.94
12.97
10.33
7.28
4.11
1.09
-1.59
-3.85
-5.74
-7.44
-9.14
-11.0
-13.05
-15.2
-17.34
-19.34
-21.18
-22.97
-24.85
-26.99
-29.55
-32.61
-36.17
-39.99
-43.59
-46.19
-46.91
-45.05
-40.33
-33.05
-24.0
-14.27
-4.93
3.19
9.61
14.16
16.98
18.42
18.89
18.83
18.54
18.19
17.78
17.29
16.73
16.14
15.67
15.48
15.72
16.44
17.62
19.08
20.49
21.51
21.79
21.17
19.72
17.7
15.48
13.35
11.44
9.7
7.98
6.12
4.07
1.86
-0.37
-2.46
-4.26
-5.75
-7.01
-8.25
-9.72
-11.63
-14.03
-16.77
-19.58
-22.21
-24.58
-26.83
-29.27
-32.27
-36.05
-40.56
-45.41
-49.88
-53.07
-54.1
-52.31
-47.45
-39.82
-30.18
-19.64
-9.31
-0.13
7.33
12.91
16.74
19.15
20.49
21.11
21.23
21.03
20.65
20.19
19.76
19.48
19.5
19.88
20.66
21.74
23.01
24.29
25.46
26.4
26.97
27.08
26.6
25.55
24.0
22.18
20.28
18.49
16.86
15.39
14.05
12.8
11.6
10.32
8.82
7.0
4.83
2.47
0.15
-1.94
-3.8
-5.6
-7.64
-10.2
-13.31
-16.83
-20.47
-23.98
-27.23
-30.3
-33.39
-36.75
-40.61
-45.1
-50.19
-55.67
-61.04
-65.52
-68.13
-67.91
-64.2
-56.95
-46.77
-34.81
-22.47
-11.01
-1.3
6.31
11.88
15.75
18.32
19.89
20.69
20.85
20.5
19.8
18.98
18.3
17.96
18.08
18.7
19.74
21.08
22.56
24.02
25.27
26.16
26.57
26.37
25.54
24.12
22.29
20.31
18.46
16.91
15.7
14.69
13.65
12.41
10.89
9.1
7.15
5.13
3.14
1.22
-0.57
-2.22
-3.8
-5.43
-7.31
-9.57
-12.2
-15.03
-17.85
-20.49
-22.91
-25.25
-27.73
-30.58
-34.05
-38.32
-43.45
-49.28
-55.25
-60.39
-63.51
-63.51
-59.76
-52.36
-42.08
-30.18
-18.02
-6.74
2.92
10.61
16.24
19.97
22.04
22.83
22.71
22.14
21.46
20.98
20.86
21.13
21.77
22.7
23.86
25.25
26.86
28.71
30.66
32.49
33.92
34.67
34.54
33.53
31.76
29.5
27.02
24.58
22.3
20.18
18.09
15.89
13.49
10.96
8.41
6.04
3.88
1.86
-0.2
-2.5
-5.11
-7.97
-10.89
-13.67
-16.14
-18.36
-20.45
-22.68
-25.34
-28.68
-32.83
-37.7
-42.92
-47.72
-51.11
-52.05
-49.78
-44.02
-35.16
-24.12
-12.19
-0.62
9.59
17.88
24.13
28.43
31.03
32.17
32.09
31.06
29.41
27.56
25.94
24.91
24.68
25.27
26.58
28.41
30.64
33.1
35.64
38.05
40.0
41.17
41.3
40.31
38.31
35.63
32.7
29.86
27.33
25.12
23.12
21.15
19.09
16.88
14.52
12.04
9.45
6.75
3.92
0.94
-2.24
-5.67
-9.35
-13.27
-17.32
-21.32
-25.15
-28.76
-32.21
-35.74
-39.63
-44.16
-49.4
-55.19
-60.96
-65.78
-68.52
-68.12
-63.9
-55.88
-44.78
-31.85
-18.56
-6.21
4.37
12.83
19.21
23.8
26.95
28.95
30.08
30.54
30.55
30.34
30.11
30.04
30.21
30.7
31.53
32.67
34.05
35.6
37.17
38.55
39.54
39.9
39.48
38.24
36.3
33.9
31.31
28.77
26.4
24.2
22.07
19.93
17.68
15.28
12.69
9.89
6.94
3.95
1.09
-1.53
-3.87
-6.05
-8.33
-10.98
-14.17
-17.89
-21.9
-25.84
-29.36
-32.31
-34.77
