-7.86
-8.72
-9.9
-11.58
-13.78
-16.41
-19.35
-22.45
-25.59
-28.66
-31.64
-34.58
-37.61
-40.86
-44.22
-47.3
-49.4
-49.62
-47.23
-41.97
-34.15
-24.58
-14.39
-4.66
3.77
10.39
15.08
17.98
19.38
19.63
19.12
18.17
17.12
16.23
15.73
15.74
16.26
17.21
18.46
19.9
21.42
22.89
24.09
24.75
24.64
23.64
21.84
19.54
17.07
14.72
12.7
11.12
10.11
9.81
10.32
11.59
13.31
14.92
15.73
15.16
12.92
9.13
4.3
-0.91
-5.79
-9.81
-12.69
-14.46
-15.34
-15.7
-15.95
-16.41
-17.3
-18.7
-20.62
-23.01
-25.81
-28.95
-32.42
-36.16
-40.14
-44.17
-47.92
-50.84
-52.17
-51.15
-47.22
-40.29
-30.82
-19.82
-8.59
1.64
9.95
15.97
19.76
21.73
22.37
22.15
21.45
20.63
19.99
19.78
20.12
20.95
22.08
23.21
24.13
24.72
25.06
25.31
25.64
26.19
26.94
27.77
28.47
28.75
28.37
27.18
25.26
22.85
20.27
17.83
15.69
13.84
12.17
10.61
9.09
7.66
6.4
5.37
4.54
3.86
3.22
2.43
1.33
-0.26
-2.45
-5.27
-8.58
-12.15
-15.72
-19.01
-21.92
-24.46
-26.79
-29.16
-31.79
-34.72
-37.75
-40.4
-41.96
-41.74
-39.22
-34.3
-27.3
-18.94
-10.11
-1.71
5.56
11.22
15.08
17.19
17.72
17.0
15.43
13.44
11.44
9.73
8.48
7.67
7.26
7.17
7.44
8.18
9.54
11.55
14.08
16.78
19.14
20.65
20.98
20.09
18.21
15.8
13.35
11.32
9.91
9.15
8.94
9.12
9.61
10.41
11.57
13.11
14.95
16.88
18.56
19.6
19.67
18.58
16.31
12.99
8.87
4.19
-0.8
-5.83
-10.61
-14.87
-18.54
-21.78
-25.01
-28.67
-32.94
-37.54
-41.76
-44.82
-46.19
-46.0
-44.99
-44.18
-44.37
-45.75
-47.99
-50.61
-53.37
-56.27
-59.32
-62.02
-63.33
-62.0
-57.3
-49.6
-40.31
-31.32
-24.05
-18.83
-14.95
-11.24
-6.93
-2.05
2.69
6.43
8.76
9.91
10.61
11.66
13.57
16.32
19.44
22.27
24.17
24.82
24.13
22.27
19.45
15.8
11.4
6.33
0.81
-4.82
-10.03
-14.31
-17.28
-18.75
-18.77
-17.59
-15.58
-13.2
-10.86
-8.85
-7.28
-6.05
-4.83
-3.15
-0.6
3.08
7.88
13.45
19.24
24.59
28.93
31.91
33.42
33.62
32.79
31.29
29.45
27.51
25.68
24.05
22.75
21.79
21.17
20.84
20.74
20.88
21.31
22.15
23.45
25.17
27.1
28.91
30.28
30.94
30.76
29.76
28.07
25.87
23.41
20.97
18.81
17.16
16.04
15.31
14.66
13.76
12.39
10.57
8.44
6.27
4.29
2.62
1.26
0.11
-0.98
-2.18
-3.59
-5.3
-7.25
-9.31
-11.33
-13.27
-15.22
-17.4
-20.1
-23.5
-27.53
-31.77
-35.59
-38.21
-38.9
-37.21
-33.06
-26.83
-19.25
-11.21
-3.57
3.02
8.22
12.05
14.72
16.55
17.82
18.67
19.14
19.26
19.11
18.86
18.79
19.12
19.92
21.14
22.6
24.12
25.59
26.94
28.1
28.98
29.39
29.16
28.19
26.5
24.28
21.78
19.27
16.9
14.72
12.68
10.7
8.77
6.89
5.12
3.46
1.82
0.08
-1.92
-4.23
-6.78
-9.4
-11.9
-14.17
-16.26
-18.36
-20.68
-23.32
-26.27
-29.4
-32.5
-35.47
-38.25
-40.87
-43.46
-46.13
-48.95
-51.87
-54.65
-56.79
-57.65
-56.56
-53.09
-47.18
-39.17
-29.68
-19.51
-9.39
0.08
8.44
15.45
21.07
25.41
28.72
31.28
33.27
34.74
35.7
36.18
36.34
36.42
36.66
37.19
37.91
38.65
39.17
39.34
39.13
38.58
37.71
36.46
34.75
32.48
29.69
26.52
23.16
19.81
16.56
13.47
10.53
7.75
5.18
2.86
0.82
-0.99
-2.61
-4.16
-5.72
-7.35
-9.07
-10.86
-12.67
-14.49
-16.26
-18.0
-19.73
-21.46
-23.16
-24.75
-26.1
-27.14
-27.97
-28.84
-30.05
-31.85
-34.21
-36.82
-39.11
-40.38
-40.05
-37.74
-33.41
-27.37
-20.18
-12.53
-5.12
1.47
6.89
11.01
13.87
15.63
16.44
16.48
15.9
14.91
13.72
12.53
11.54
10.92
10.82
11.27
12.22
13.49
14.87
16.12
17.05
17.55
17.57
17.12
16.22
14.91
13.32
11.63
10.03
8.65
7.53
6.6
5.75
4.94
4.21
3.69
3.52
3.81
4.51
5.5
6.57
7.54
8.39
9.13
9.84
10.54
11.14
11.49
11.44
10.92
9.9
8.36
6.27
3.57
0.29
-3.34
-6.88
-9.72
-11.32
-11.46
-10.25
-8.12
-5.59
-3.12
-1.0
0.59
1.59
1.94
1.62
0.68
-0.71
-2.28
-3.72
-4.82
-5.5
-5.79
-5.77
-5.47
-4.86
-3.87
-2.5
-0.85
0.85
2.38
3.56
4.37
4.94
5.37
5.69
5.77
5.46
4.65
3.37
1.86
0.35
-0.99
-2.14
-3.18
-4.25
-5.44
-6.74
-8.14
-9.6
-11.16
-12.88
-14.78
-16.8
-18.88
-20.95
-23.02
-25.21
-27.67
-30.53
-33.8
-37.36
-40.9
-43.99
-46.06
-46.58
-45.21
-41.87
-36.83
-30.65
-23.97
-17.37
-11.25
-5.79
-0.99
3.17
6.8
10.0
12.88
15.53
18.01
20.33
22.42
24.26
25.82
27.22
28.59
30.09
31.75
33.53
35.22
36.61
37.51
37.8
37.48
36.61
35.31
33.69
31.8
29.64
27.16
24.34
21.28
18.22
15.51
13.44
12.15
11.49
11.14
10.71
9.91
8.63
6.94
4.98
2.99
1.28
0.2
0.02
0.83
2.3
3.82
4.67
4.35
2.81
0.47
-2.12
-4.7
-7.48
-11.01
-15.81
-21.9
-28.64
-34.85
-39.21
-40.74
-39.06
-34.33
-27.16
-18.3
-8.5
1.49
11.01
19.37
25.98
30.38
32.35
31.94
29.45
25.37
20.33
14.99
9.96
5.78
2.84
1.36
1.33
2.45
4.26
6.12
7.41
7.69
6.72
4.65
1.94
-0.72
-2.59
-3.04
-1.78
1.06
4.99
9.33
13.38
16.69
19.02
20.39
20.96
20.92
20.49
19.86
19.2
18.63
18.17
17.7
16.9
15.38
12.69
8.49
2.73
-4.35
-12.29
-20.52
-28.55
-36.07
-42.92
-49.09
-54.56
-59.23
-62.92
-65.4
-66.42
-65.75
-63.26
-58.97
-53.09
-46.12
-38.76
-31.8
-25.95
-21.59
-18.79
-17.28
-16.67
-16.57
-16.66
-16.78
-16.78
-16.61
-16.22
-15.64
-14.94
-14.15
-13.26
-12.14
-10.66
-8.71
-6.37
-3.82
-1.36
0.71
2.19
2.98
3.15
2.88
2.42
2.04
1.91
2.05
2.32
2.51
2.41
1.94
1.16
0.24
-0.62
-1.31
-1.84
-2.33
-2.96
-3.84
-4.96
-6.23
-7.49
-8.65
-9.75
-10.95
-12.45
-14.37
-16.71
-19.35
-22.15
-24.93
-27.47
-29.49
-30.53
-30.13
-27.93
-23.91
-18.37
-12.0
-5.57
0.22
4.94
8.46
10.88
12.39
13.25
13.64
13.72
13.65
13.61
13.78
14.35
15.43
17.02
19.0
21.16
23.3
25.26
26.94
28.27
29.2
29.65
29.61
29.08
28.15
26.93
25.47
23.8
21.88
19.73
17.46
15.23
13.21
11.53
10.22
9.25
8.54
7.95
7.32
6.48
5.25
3.6
1.62
-0.5
-2.54
-4.41
-6.19
-8.14
-10.55
-13.67
-17.48
-21.69
-25.69
-28.72
-30.0
-28.95
-25.43
-19.71
-12.49
-4.72
2.64
8.84
13.4
16.18
17.31
17.09
15.97
14.37
12.69
11.19
9.98
9.01
8.17
7.38
6.67
6.18
6.12
6.65
7.79
9.44
11.3
13.05
14.36
14.98
14.76
13.66
11.79
9.39
6.79
4.35
2.38
1.08
0.45
0.34
0.47
0.52
0.23
-0.53
-1.7
-3.05
-4.3
-5.24
-5.81
-6.17
-6.55
-7.14
-8.03
-9.18
-10.47
-11.79
-13.12
-14.52
-16.09
-17.9
-19.92
-21.96
-23.7
-24.72
-24.58
-22.95
-19.69
-14.9
-8.99
-2.52
3.87
9.57
14.14
17.35
19.26
20.12
20.35
20.34
20.41
20.64
20.94
21.12
21.05
20.71
20.24
19.8
19.58
19.69
20.1
20.73
21.43
22.09
22.61
22.9
22.83
22.23
21.0
19.1
16.72
14.22
12.01
10.46
9.7
9.6
9.82
9.91
9.43
8.13
5.93
3.01
-0.23
-3.27
-5.5
-6.48
-6.06
-4.43
-2.09
0.26
1.96
2.49
1.61
-0.62
-3.96
-8.06
-12.58
-17.19
-21.65
-25.72
-29.16
-31.69
-33.04
-32.9
-31.06
-27.46
-22.26
-15.89
-9.03
-2.44
3.14
7.22
9.64
10.52
10.25
9.24
7.92
6.61
5.51
4.8
4.52
4.68
5.23
6.04
6.97
7.89
8.75
9.56
10.41
11.4
12.5
13.57
14.32
14.43
13.66
11.98
9.56
6.77
3.96
1.41
-0.77
-2.62
-4.19
-5.5
-6.54
-7.24
-7.64
-7.86
-8.12
-8.67
-9.65
-11.03
-12.63
-14.13
-15.24
-15.81
-15.91
-15.79
-15.79
-16.22
-17.27
-18.89
-20.86
-22.8
-24.3
-24.98
-24.5
-22.64
-19.34
-14.78
-9.33
-3.56
1.94
6.62
10.17
12.51
13.77
14.17
13.99
13.43
12.62
11.62
10.49
9.3
8.18
7.28
6.79
6.82
7.39
8.43
9.73
11.09
12.31
13.2
13.64
13.56
12.92
11.8
10.33
8.73
7.16
5.77
4.59
3.54
2.53
1.46
0.26
-1.03
-2.39
-3.75
-5.08
-6.39
-7.67
-8.97
-10.27
-11.5
-12.6
-13.58
-14.5
-15.55
-16.99
-19.04
-21.75
-24.9
-28.05
-30.6
-31.99
-31.81
-29.92
-26.42
-21.62
-15.95
-9.93
-4.14
0.85
4.54
6.74
7.54
7.32
6.59
5.78
5.13
4.69
4.41
4.3
4.49
5.12
6.27
7.86
9.72
11.59
13.28
14.61
15.45
15.68
15.22
14.07
12.39
10.42
8.45
6.64
5.08
3.81
2.84
2.27
2.14
2.41
2.82
2.97
2.44
0.96
-1.47
-4.56
-7.87
-10.91
-13.35
-15.02
-15.94
-16.31
-16.4
-16.48
-16.82
-17.59
-18.86
-20.64
-22.9
-25.58
-28.61
-31.81
-34.94
-37.63
-39.47
-40.07
-39.12
-36.47
-32.15
-26.41
-19.71
-12.7
-6.06
-0.39
3.94
6.92
8.76
9.87
10.59
11.13
11.5
11.65
11.56
11.3
11.05
11.04
11.46
12.41
13.91
15.89
18.16
20.47
22.54
24.08
24.9
24.9
24.09
22.61
20.62
18.29
15.84
13.44
11.31
9.56
8.22
7.23
6.41
5.62
4.79
3.94
3.13
2.42
1.82
1.27
0.67
-0.09
-1.09
-2.4
-4.01
-5.87
-7.9
-9.99
-12.06
-14.09
-16.18
-18.48
-21.15
-24.28
-27.8
-31.46
-34.85
-37.46
-38.75
-38.22
-35.58
-30.83
-24.3
-16.65
-8.69
-1.2
5.2
10.19
13.75
16.1
17.53
18.34
18.79
19.03
19.16
19.19
19.12
18.98
18.81
18.74
18.9
19.38
20.21
21.27
22.41
23.37
23.94
23.99
23.46
22.42
20.95
19.15
17.07
14.81
12.46
10.11
7.88
5.91
4.25
2.92
1.83
0.86
-0.12
-1.24
-2.54
-3.99
-5.51
-7.01
-8.41
-9.71
-10.95
-12.27
-13.81
-15.75
-18.19
-21.12
-24.4
-27.69
-30.47
-32.16
-32.18
-30.14
-25.98
-20.01
-12.86
-5.42
1.4
6.87
10.54
12.38
12.67
11.93
10.67
9.25
7.79
6.18
4.25
1.93
-0.61
-2.96
-4.59
-5.13
-4.54
-3.25
-2.03
-1.73
-3.01
-6.04
-10.51
-15.72
-20.98
-25.85
-30.37
-35.09
-40.7
-47.69
-55.98
-64.83
-73.21
-80.33
-86.01
-90.88
-95.91
-102.0
-109.47
-118.01
-126.92
-135.1
-140.85
-141.48
-133.64
-114.4
-83.06
-42.3
1.96
42.58
73.92
93.91
104.36
109.23
112.36
115.64
118.79
120.47
119.71
116.74
112.7
108.9
106.05
104.07
102.43
100.45
97.47
92.89
86.1
76.54
64.01
48.81
31.81
14.19
-2.81
-17.97
-29.87
-36.79
-36.94
-29.16
-13.87
6.52
28.05
46.61
59.46
66.26
68.67
69.18
69.61
70.36
70.63
69.45
66.56
62.81
59.58
57.97
58.13
59.21
59.83
58.89
56.09
52.1
48.2
45.58
44.83
45.65
47.12
48.07
47.62
45.42
41.71
37.09
32.42
28.65
26.68
27.34
31.07
37.79
46.78
56.84
66.65
75.1
81.6
86.08
88.82
90.24
90.75
90.7
90.38
89.92
89.25
88.04
85.8
82.0
76.3
68.68
59.43
49.08
38.23
27.46
17.21
7.78
-0.75
-8.49
-15.68
-22.58
-29.25
-35.52
-41.01
-45.32
-48.17
-49.57
-49.78
-49.26
-48.46
-47.77
-47.43
-47.52
-48.08
-49.12
-50.73
-53.03
-56.19
-60.3
-65.34
-71.16
-77.38
-83.49
-88.89
-92.91
-94.92
-94.47
-91.4
-85.96
-78.81
-70.83
-62.92
-55.72
-49.44
-43.99
-39.09
-34.59
-30.46
-26.83
-23.85
-21.56
-19.89
-18.77
-18.22
-18.39
-19.44
-21.38
-23.91
-26.54
-28.67
-29.92
-30.23
-29.95
-29.6
-29.67
-30.53
-32.26
-34.71
-37.52
-40.21
-42.26
-43.29
-43.18
-42.09
-40.51
-39.05
-38.22
-38.29
-39.26
-40.92
-43.08
-45.62
-48.55
-51.98
-56.01
-60.64
-65.78
-71.32
-77.1
-82.96
-88.69
-93.96
-98.22
-100.76
-100.85
-97.86
-91.63
-82.43
-70.92
-57.77
-43.21
-26.95
-8.41
12.81
36.53
61.98
88.22
114.39
139.83
163.59
184.01
198.61
204.74
200.69
186.75
165.39
140.53
116.15
94.99
78.01
64.81
54.43
46.13
39.63
34.98
32.15
30.83
30.49
30.48
30.23
29.32
27.45
24.47
20.42
15.6
10.59
6.05
2.44
-0.22
-2.48
-5.26
-9.59
-16.13
-24.9
-35.23
-45.82
-55.03
-61.34
-63.67
-61.62
-55.57
-46.56
-36.02
-25.51
-16.31
-9.19
-4.15
-0.56
2.45
5.36
7.82
8.49
5.5
-2.74
-16.72
-35.41
-56.52
-77.17
-94.66
-107.11
-113.56
-113.98
-109.0
-99.82
-88.0
-75.25
-63.17
-52.89
-44.92
-39.13
-34.96
-31.69
-28.62
-25.29
-21.43
-16.94
-11.89
-6.54
-1.31
3.26
6.64
8.47
8.64
7.32
4.9
1.87
-1.34
-4.34
-6.78
-8.35
-8.75
-8.01
-6.58
-5.42
-5.83
-9.0
-15.46
-24.66
-35.03
-44.24
-49.99
-50.67
-45.78
-36.1
-23.23
-9.06
4.8
17.31
28.08
37.16
44.75
51.07
56.19
60.1
62.77
64.17
64.32
63.25
61.06
57.95
54.2
50.22
46.42
43.09
40.36
38.14
36.21
34.34
32.35
30.12
27.6
24.79
21.75
18.64
15.68
13.06
10.94
9.33
8.11
7.14
6.23
5.23
4.04
2.58
0.82
-1.29
-3.79
-6.71
-10.05
-13.75
-17.67
-21.59
-25.33
-28.77
-32.0
-35.25
-38.92
-43.39
-49.05
-56.1
-64.45
-73.57
-82.46
-89.69
-93.77
-93.5
-88.49
-79.23
-66.97
-53.35
-39.97
-27.97
-17.9
-9.84
-3.53
1.37
5.2
8.17
10.52
12.38
13.93
15.32
16.66
18.04
19.48
21.01
22.62
24.3
26.03
27.76
29.4
30.77
31.63
31.74
30.94
29.22
26.76
23.92
21.11
18.7
16.91
15.78
15.16
14.8
14.44
13.82
12.79
11.33
9.49
7.42
5.18
2.88
0.51
-1.94
-4.56
-7.38
-10.42
-13.72
-17.26
-20.99
-24.8
-28.52
-31.98
-35.09
-37.9
-40.74
-44.0
-48.12
-53.33
-59.36
-65.46
-70.48
-73.14
-72.44
-67.99
-60.13
-49.81
-38.35
-27.09
-17.11
-9.09
-3.23
0.62
2.79
3.64
3.48
2.51
0.9
-1.07
-2.99
-4.35
-4.62
-3.5
-0.9
2.98
7.82
13.27
19.0
24.83
30.54
36.03
41.27
46.35
51.41
56.55
61.75
66.71
71.05
74.33
76.3
76.95
76.51
75.31
73.63
71.64
69.37
66.7
63.42
59.3
54.13
47.8
40.37
32.08
23.3
14.43
5.86
-2.22
-9.72
-16.81
-23.61
-30.2
-36.35
-41.51
-44.87
-45.57
-43.07
-37.33
-28.96
-18.95
-8.49
1.44
10.23
17.6
23.53
28.04
31.15
32.86
33.18
32.26
30.39
27.98
25.45
23.16
21.36
20.14
19.54
19.54
20.11
21.16
22.53
23.9
24.86
25.03
24.18
22.38
19.94
17.26
14.73
12.52
10.65
9.03
7.6
6.31
5.09
3.91
2.69
1.41
0.04
-1.33
-2.69
-4.06
-5.58
-7.44
-9.75
-12.5
-15.53
-18.59
-21.45
-23.92
-25.96
-27.57
-28.98
-30.49
-32.51
-35.34
-39.05
-43.32
-47.44
-50.46
-51.43
-49.7
-45.1
-38.04
-29.38
-20.17
-11.45
-3.94
2.08
6.69
10.21
12.96
15.16
16.85
18.03
18.7
18.96
19.02
19.05
19.16
19.35
19.6
19.87
20.22
20.7
21.38
22.22
23.06
23.73
24.0
23.77
23.04
21.94
20.64
19.31
18.01
16.72
15.35
13.76
11.95
9.94
7.88
5.97
4.38
3.12
2.08
1.05
-0.14
-1.57
-3.12
-4.64
-5.99
-7.2
-8.48
-10.05
-12.04
-14.41
-16.92
-19.32
-21.49
-23.47
-25.45
-27.65
-30.27
-33.42
-37.15
-41.34
-45.68
-49.56
-52.11
-52.43
-49.88
-44.32
-36.26
-26.75
-17.0
-8.07
-0.68
4.93
8.79
11.2
12.53
13.2
13.56
13.93
14.45
15.08
15.69
16.11
16.25
16.22
16.26
16.66
17.59
19.03
20.75
22.47
23.85
24.72
25.0
24.74
23.98
22.78
21.17
19.2
16.98
14.67
12.42
10.36
8.58
7.09
5.87
4.85
3.95
3.06
2.1
0.99
-0.3
-1.71
-3.19
-4.63
-6.03
-7.52
-9.32
-11.68
-14.75
-18.48
-22.65
-26.92
-30.98
-34.67
-38.01
-41.15
-44.4
-48.1
-52.52
-57.8
-63.71
-69.58
-74.39
-77.02
-76.64
-73.05
-66.81
-59.07
-51.19
-44.31
-39.1
-35.76
-34.14
-33.96
-34.95
-36.9
-39.69
-43.18
-47.26
-51.75
-56.46
-61.11
-65.4
-69.04
-71.76
-73.53
-74.39
-74.52
-74.04
-72.87
-70.6
-66.49
-59.53
-48.67
-33.07
-12.38
12.95
41.63
71.48
99.9
124.29
142.58
153.69
157.56
155.0
147.36
136.17
122.85
108.6
94.34
80.66
67.91
56.17
45.39
35.46
26.33
18.02
10.64
4.33
-0.81
-4.86
-8.19
-11.41
-15.13
-19.62
-24.51
-28.77
-31.04
-30.15
-25.68
-18.14
-8.79
0.83
9.4
16.2
21.03
24.14
25.83
26.45
26.24
25.41
24.19
22.82
21.59
20.75
20.46
20.62
20.96
21.01
20.3
18.57
15.79
12.22
8.28
4.45
1.2
-0.99
-1.63
-0.36
2.84
7.48
12.5
16.64
18.86
18.85
17.06
14.5
12.23
10.89
10.51
10.62
10.6
9.97
8.42
5.87
2.25
-2.45
-8.17
-14.59
-21.2
-27.39
