19.57
20.96
22.15
22.93
23.15
22.74
21.71
20.16
18.26
16.14
13.95
11.77
9.61
7.42
5.21
3.05
1.06
-0.65
-1.99
-3.02
-3.89
-4.82
-5.99
-7.42
-8.98
-10.49
-11.82
-12.94
-13.98
-15.15
-16.71
-18.93
-22.01
-25.96
-30.51
-34.98
-38.37
-39.58
-37.82
-32.88
-25.28
-16.07
-6.49
2.44
10.11
16.31
21.06
24.36
26.22
26.62
25.69
23.79
21.42
19.14
17.36
16.27
15.87
16.0
16.51
17.3
18.37
19.65
21.03
22.24
22.99
23.0
22.14
20.5
18.33
15.99
13.81
11.95
10.42
9.07
7.72
6.19
4.42
2.49
0.53
-1.31
-2.96
-4.49
-6.14
-8.13
-10.6
-13.48
-16.57
-19.57
-22.34
-24.86
-27.31
-29.94
-32.94
-36.47
-40.51
-44.85
-49.03
-52.29
-53.72
-52.45
-48.04
-40.66
-31.15
-20.72
-10.63
-1.82
5.28
10.65
14.49
17.06
18.61
19.33
19.47
19.29
19.01
18.81
18.71
18.75
18.91
19.27
19.84
20.66
21.68
22.79
23.89
24.88
25.68
26.22
26.38
26.02
25.03
23.35
21.04
18.31
15.46
12.81
10.59
8.92
7.66
6.59
5.39
3.89
2.1
0.18
-1.62
-3.14
-4.44
-5.74
-7.29
-9.29
-11.74
-14.49
-17.33
-20.08
-22.67
-25.13
-27.55
-30.07
-32.84
-36.06
-39.87
-44.26
-48.9
-53.1
-55.88
-56.21
-53.41
-47.37
-38.67
-28.4
-17.85
-8.12
0.05
6.42
11.1
14.38
16.6
18.0
18.77
19.06
19.01
18.74
18.41
18.13
18.05
18.26
18.84
19.83
21.2
22.83
24.55
26.14
27.38
28.08
28.15
27.56
26.36
24.7
22.77
20.81
19.0
17.42
16.05
14.84
13.68
12.55
11.46
10.44
9.47
8.45
7.23
5.69
3.81
1.74
-0.32
-2.17
-3.73
-5.16
-6.69
-8.63
-11.16
-14.24
-17.65
-21.04
-24.13
-26.79
-29.09
-31.24
-33.5
-36.11
-39.24
-42.94
-47.03
-51.01
-54.07
-55.21
-53.57
-48.76
-41.01
-31.18
-20.5
-10.15
-1.06
6.32
11.89
15.89
18.63
20.45
21.61
22.24
22.38
22.05
21.31
20.41
19.72
19.58
20.2
21.51
23.23
24.98
26.51
27.7
28.54
29.03
29.11
28.65
27.55
25.89
23.88
21.83
19.98
18.4
16.98
15.58
14.1
12.54
11.05
9.76
8.79
8.13
7.71
7.31
6.74
5.8
4.41
2.64
0.65
-1.38
-3.35
-5.31
-7.43
-9.84
-12.61
-15.65
-18.73
-21.62
-24.17
-26.38
-28.45
-30.71
-33.53
-37.18
-41.59
-46.34
-50.55
-53.17
-53.25
-50.28
-44.32
-35.99
-26.32
-16.4
-7.21
0.56
6.53
10.67
13.19
14.48
14.98
15.06
14.95
14.77
14.52
14.22
13.99
13.96
14.25
14.98
16.15
17.7
19.48
21.35
23.09
24.52
25.45
25.69
25.15
23.87
21.98
19.71
17.3
14.98
12.88
11.03
9.37
7.8
6.22
4.64
3.14
1.86
0.92
0.25
-0.38
-1.34
-2.92
-5.27
-8.26
-11.52
-14.67
-17.43
-19.77
-21.89
-24.15
-26.88
-30.27
-34.31
-38.71
-42.93
-46.21
-47.73
-46.78
-42.98
-36.42
-27.68
-17.72
-7.66
1.48
8.94
14.36
17.71
19.27
19.47
18.79
17.6
16.21
14.86
13.73
13.01
12.83
13.23
14.15
15.45
16.98
18.66
20.42
22.18
23.81
25.05
25.64
25.39
24.29
22.52
20.33
18.02
15.78
13.69
11.77
9.95
8.16
6.34
4.45
2.48
0.46
-1.52
-3.35
-4.93
-6.23
-7.31
-8.33
-9.49
-10.96
-12.82
-15.01
-17.35
-19.68
-21.84
-23.82
-25.74
-27.89
-30.57
-34.07
-38.49
-43.61
-48.77
-53.01
-55.24
-54.58
-50.67
-43.75
-34.62
-24.4
-14.17
-4.8
3.23
9.71
14.65
18.16
20.39
21.55
21.88
21.66
21.15
20.59
20.19
20.08
20.37
21.12
22.37
24.07
26.08
28.18
30.16
31.76
32.79
33.08
32.47
30.89
28.37
25.11
21.46
17.86
14.68
12.13
10.17
8.67
7.41
6.32
5.37
4.58
3.88
3.1
2.04
0.62
-1.13
-3.05
-4.96
-6.78
-8.6
-10.58
-12.94
-15.85
-19.38
-23.6
-28.44
-33.72
-38.96
-43.41
-46.16
-46.37
-43.57
-37.87
-29.9
-20.66
-11.2
-2.36
5.38
11.83
16.95
20.73
23.16
24.21
23.99
22.71
20.77
18.65
16.8
15.6
15.26
15.84
17.26
19.29
21.61
23.86
25.74
27.06
27.73
27.76
27.18
25.99
24.17
21.73
18.76
15.47
12.08
8.82
5.81
3.06
0.48
-2.01
-4.47
-6.89
-9.19
-11.31
-13.23
-15.05
-16.99
-19.38
-22.53
-26.59
-31.44
-36.6
-41.26
-44.5
-45.46
-43.63
-38.97
-31.82
-22.91
-13.09
-3.24
5.8
13.34
18.88
22.21
23.48
23.14
21.74
19.82
17.76
15.8
14.12
12.96
12.54
13.05
14.49
16.65
19.13
21.5
23.36
24.49
24.73
24.02
22.32
19.7
16.35
12.58
8.83
5.45
2.69
0.54
-1.18
-2.8
-4.65
-6.91
-9.64
-12.7
-15.9
-19.0
-21.86
-24.47
-26.96
-29.61
-32.77
-36.74
-41.64
-47.18
-52.66
-56.98
-58.95
-57.64
-52.68
-44.39
-33.73
-21.94
-10.23
0.54
9.91
17.76
24.15
29.18
32.96
35.57
37.16
37.84
37.8
37.21
36.29
35.26
34.31
33.6
33.27
33.39
34.04
35.23
36.92
38.9
40.81
42.21
42.7
42.08
40.51
38.39
36.2
34.28
32.69
31.25
29.67
27.72
25.33
22.58
19.61
16.51
13.31
9.96
6.48
2.97
-0.4
-3.43
-5.99
-8.09
-9.9
-11.68
-13.63
-15.9
-18.45
-21.18
-23.95
-26.7
-29.46
-32.35
-35.53
-39.18
-43.37
-48.07
-52.99
-57.53
-60.87
-62.05
-60.4
-55.67
-48.26
-39.08
-29.25
-19.75
-11.19
-3.77
2.55
7.84
12.12
15.35
17.53
18.81
19.46
19.82
20.1
20.38
20.62
20.71
20.69
20.67
20.87
21.45
22.46
23.75
25.07
26.13
26.69
26.68
26.2
25.5
24.82
24.34
24.05
23.76
23.25
22.37
21.14
19.76
18.48
17.48
16.78
16.25
15.68
14.9
13.82
12.42
10.7
8.7
6.48
4.14
1.82
-0.42
-2.54
-4.6
-6.7
-8.94
-11.35
-13.89
-16.51
-19.19
-21.98
-24.91
-28.02
-31.32
-34.82
-38.47
-42.17
-45.65
-48.41
-49.78
-49.12
-46.0
-40.49
-33.08
-24.66
-16.15
-8.32
-1.6
3.87
8.13
11.33
13.6
15.12
16.0
16.36
16.29
15.88
15.24
14.53
13.98
13.74
13.99
14.71
15.83
17.19
18.58
19.79
20.55
20.69
20.14
18.99
17.5
15.99
14.76
13.93
13.44
13.1
12.73
12.21
11.57
10.91
10.32
9.87
9.45
8.96
8.24
7.22
5.91
4.39
2.75
1.03
-0.7
-2.42
-4.04
-5.52
-6.86
-8.17
-9.66
-11.54
-13.91
-16.68
-19.59
-22.26
-24.43
-26.03
-27.24
-28.43
-30.01
-32.29
-35.32
-38.81
-42.14
-44.45
-44.91
-42.91
-38.31
-31.46
-23.17
-14.4
-6.06
1.18
6.98
11.27
14.09
15.59
15.99
15.54
14.64
13.66
12.9
12.49
12.37
12.38
12.39
12.43
12.64
13.18
14.14
15.37
16.62
17.62
18.1
17.96
17.19
15.88
14.16
12.19
10.15
8.27
6.76
5.8
5.47
5.73
6.35
7.05
7.5
7.47
6.91
5.93
4.75
3.54
2.35
1.09
-0.42
-2.32
-4.61
-7.17
-9.77
-12.12
-14.05
-15.51
-16.64
-17.65
-18.82
-20.32
-22.19
-24.35
-26.67
-29.05
-31.46
-33.95
-36.57
-39.38
-42.27
-44.96
-46.94
-47.49
-45.88
-41.53
-34.32
-24.73
-13.78
-2.76
7.11
15.03
20.8
24.63
27.01
28.42
29.17
29.4
29.15
28.52
27.67
26.79
26.05
25.52
25.18
24.96
24.76
24.52
24.18
23.66
22.83
21.53
19.69
17.36
14.7
11.93
9.27
6.79
4.52
2.44
0.58
-1.03
-2.3
-3.26
-4.03
-4.82
-5.8
-7.09
-8.65
-10.43
-12.39
-14.51
-16.81
-19.31
-21.95
-24.69
-27.46
-30.24
-32.99
-35.69
-38.32
-40.89
-43.37
-45.76
-48.04
-50.16
-52.06
-53.7
-55.14
-56.57
-58.24
-60.31
-62.71
-65.03
-66.53
-66.38
-63.92
-58.89
-51.51
-42.42
-32.44
-22.4
-12.93
-4.48
2.75
8.69
13.37
16.88
19.36
20.96
21.85
22.17
22.03
21.6
21.05
20.58
20.42
20.77
21.77
23.43
25.61
28.02
30.27
31.97
32.8
32.64
31.5
29.6
27.27
24.83
22.56
20.61
19.01
17.66
16.38
14.94
13.16
10.89
8.15
5.07
1.92
-1.07
-3.74
-6.1
-8.31
-10.63
-13.26
-16.34
-19.88
-23.77
-27.82
-31.77
-35.43
-38.72
-41.75
-44.8
-48.3
-52.59
-57.75
-63.41
-68.7
-72.48
-73.61
-71.35
-65.55
-56.74
-45.93
-34.31
-22.95
-12.6
-3.69
3.64
9.42
13.75
16.82
18.87
20.18
21.03
21.65
22.17
22.75
23.47
24.5
25.97
27.95
30.39
33.1
35.79
38.11
39.81
40.68
40.67
39.84
38.36
36.45
34.37
32.36
30.58
29.1
27.9
26.88
25.95
25.06
24.19
23.35
22.56
21.73
20.71
19.3
17.34
14.83
11.95
9.0
6.23
3.75
1.45
-0.95
-3.73
-7.08
-11.01
-15.4
-20.04
-24.73
-29.36
-33.86
-38.25
-42.63
-47.22
-52.25
-57.88
-63.96
-69.93
-74.82
-77.45
-76.79
-72.24
-63.9
-52.48
-39.08
-24.9
-10.97
2.01
13.62
23.59
31.75
37.92
41.97
43.87
43.82
42.28
39.88
37.36
35.35
34.21
34.01
34.62
35.81
37.43
39.36
41.51
43.77
45.85
47.42
48.16
47.91
46.75
44.92
42.82
40.79
39.05
37.63
36.42
35.23
33.92
32.43
30.82
29.17
27.58
26.07
24.57
22.98
21.17
19.02
16.51
13.66
10.61
7.5
4.49
1.57
-1.36
-4.48
-7.94
-11.77
-15.81
-19.78
-23.47
-26.79
-29.86
-32.91
-36.23
-40.06
-44.54
-49.61
-54.95
-59.87
-63.33
-64.19
-61.5
-54.91
-44.87
-32.51
-19.35
-6.89
3.76
12.06
18.02
22.03
24.63
26.39
27.73
28.87
29.92
30.9
31.84
32.78
33.7
34.5
35.05
35.29
35.33
35.47
36.02
37.1
38.57
39.98
40.8
40.7
39.67
38.01
36.13
34.36
32.8
31.32
29.63
27.56
25.04
22.25
19.48
17.02
15.04
13.49
12.19
10.92
9.5
7.85
5.99
4.02
2.01
-0.01
-2.08
-4.28
-6.75
-9.6
-12.86
-16.45
-20.1
-23.5
-26.36
-28.68
-30.74
-33.03
-36.11
-40.25
-45.33
-50.75
-55.58
-58.76
-59.35
-56.79
-50.93
-42.22
-31.5
-19.9
-8.57
1.55
9.91
16.33
20.95
24.03
25.85
26.63
26.61
26.04
25.25
24.57
24.24
24.34
24.84
25.59
26.45
27.36
28.28
29.19
30.03
30.71
31.11
31.12
30.67
29.75
28.4
26.69
24.7
22.55
20.37
18.23
16.24
14.4
12.73
11.2
9.8
8.51
7.31
6.12
4.84
3.39
1.69
-0.19
-2.14
-4.09
-5.99
-7.94
-10.09
-12.54
-15.25
-18.08
-20.8
-23.24
-25.41
-27.43
-29.54
-32.01
-35.04
-38.78
-43.22
-48.0
-52.47
-55.67
-56.58
-54.46
-49.12
-41.01
-31.1
-20.57
-10.51
-1.65
5.63
11.27
15.36
18.1
19.69
20.38
20.4
20.01
19.41
18.76
18.19
17.81
17.79
18.27
19.34
21.0
23.1
25.36
27.44
29.05
29.94
30.04
29.4
28.14
26.49
24.63
22.71
20.77
18.79
16.73
14.6
12.48
10.49
8.76
7.31
6.09
4.94
3.68
2.17
0.41
-1.51
-3.44
-5.2
-6.78
-8.19
-9.65
-11.33
-13.36
-15.76
-18.4
-21.13
-23.8
-26.38
-28.98
-31.83
-35.2
-39.31
-44.19
-49.62
-55.03
-59.52
-62.07
-61.79
-58.22
-51.46
-42.16
-31.4
-20.34
-10.03
-1.2
5.74
10.7
13.88
15.62
16.37
16.52
16.36
16.03
15.57
14.95
14.22
13.49
12.98
12.9
13.42
14.55
16.16
17.94
19.5
20.47
20.58
19.72
17.97
15.59
12.94
10.43
8.32
6.76
5.7
4.89
4.08
3.07
1.9
0.77
0.02
-0.15
0.29
1.11
1.95
2.42
2.21
1.26
-0.36
-2.5
-5.04
-7.88
-11.04
-14.6
-18.69
-23.46
-28.98
-35.05
-41.15
-46.44
-49.86
-50.52
-47.96
-42.3
-34.23
-24.77
-14.96
-5.66
2.52
9.22
14.22
17.42
18.89
18.86
17.73
16.0
14.14
12.55
11.47
11.02
11.24
12.17
13.78
15.97
18.54
21.24
23.76
25.83
27.27
27.95
27.84
26.99
25.55
23.77
21.94
20.28
18.87
17.58
16.2
14.56
12.6
10.43
8.22
6.12
4.17
2.29
0.36
-1.74
-4.12
-6.85
-10.01
-13.63
-17.69
-22.02
-26.36
-30.45
-34.13
-37.48
-40.84
-44.65
-49.36
-55.07
-61.44
-67.5
-71.97
-73.52
-71.22
-64.81
-54.81
-42.34
-28.84
-15.68
-3.92
5.82
13.38
18.91
22.75
25.28
26.82
27.6
27.77
27.51
27.09
26.79
26.9
27.6
28.92
30.74
32.91
35.26
37.63
39.84
41.64
42.78
43.03
42.26
40.5
37.92
34.83
31.55
28.41
25.64
23.38
21.64
20.31
19.23
18.16
16.96
15.56
13.97
12.24
10.4
8.43
6.28
3.92
1.32
-1.53
-4.67
-8.15
-11.99
-16.1
-20.31
-24.35
-27.96
-31.1
-33.93
-36.88
-40.47
-45.05
-50.66
-56.77
-62.37
-66.21
-67.08
-64.21
-57.51
-47.6
-35.6
-22.89
-10.73
-0.08
8.56
15.08
19.75
23.04
25.43
27.33
28.92
30.25
31.24
31.87
32.22
32.47
32.83
33.47
34.45
35.75
37.31
38.99
40.59
41.9
42.64
42.62
41.72
40.01
37.65
34.94
32.23
29.75
27.68
25.99
24.55
23.18
21.72
20.09
18.31
16.43
14.52
12.59
10.6
8.51
6.28
3.93
1.52
-0.91
-3.34
-5.82
-8.41
-11.22
-14.29
-17.6
-21.02
-24.47
-27.8
-31.06
-34.36
-37.93
-41.94
-46.34
-50.7
-54.23
-55.94
-54.88
-50.56
-43.05
-33.13
-21.96
-10.85
-0.82
7.56
14.12
19.03
22.56
24.91
26.23
26.69
26.5
25.94
25.34
24.94
24.89
25.19
25.73
26.42
27.14
27.88
28.59
29.26
29.8
30.12
30.12
29.69
28.81
27.46
25.73
23.75
21.66
19.61
17.7
15.97
14.44
13.12
11.97
11.0
10.13
9.25
8.2
6.82
5.06
2.98
0.8
-1.26
-3.07
-4.71
-6.35
-8.25
-10.55
-13.24
-16.11
-18.97
-21.64
-24.1
-26.42
-28.77
-31.32
-34.29
-37.82
-41.96
-46.45
-50.67
-53.68
-54.41
-52.06
-46.42
-37.99
-27.89
-17.47
-7.89
0.14
6.39
11.03
14.35
16.58
17.9
18.45
18.43
18.13
17.83
17.73
17.92
18.33
18.88
19.54
20.36
21.41
22.72
24.19
25.58
26.6
27.04
26.81
25.97
24.68
23.1
21.38
19.58
17.71
15.81
13.91
12.05
10.27
8.6
7.03
5.62
4.4
3.4
2.57
1.75
0.77
-0.48
-2.01
-3.69
-5.35
-6.9
-8.39
-9.96
-11.79
-13.97
-16.42
-19.02
-21.64
-24.18
-26.61
-28.88
-30.95
-32.85
-34.73
-36.86
-39.49
-42.63
-45.83
-48.16
-48.54
-46.12
-40.68
-32.8
-23.63
-14.51
-6.53
-0.24
4.33
7.47
9.52
10.77
11.32
11.25
10.71
9.96
9.3
8.97
9.09
9.6
10.35
11.18
11.97
12.64
13.11
13.38
13.46
13.49
13.65
14.16
15.14
16.64
18.61
21.03
23.84
26.92
29.94
32.39
33.68
33.3
31.05
27.06
21.8
15.86
9.85
4.31
-0.32
-3.78
-6.04
-7.34
-8.11
-8.88
-10.15
-12.16
-14.95
-18.26
-21.72
-24.92
-27.56
-29.48
-30.75
-31.58
-32.35
-33.42
-35.1
-37.56
-40.75
-44.36
-47.87
-50.57
-51.68
-50.58
-46.98
-41.08
-33.52
-25.18
-16.91
-9.38
-2.87
2.62
7.22
11.04
14.03
16.09
17.1
17.09
16.27
15.0
13.69
12.67
12.16
12.26
12.9
13.94
15.19
16.43
17.46
18.11
18.21
17.69
16.59
15.04
13.28
11.53
9.95
8.47
6.89
4.93
2.45
-0.51
-3.71
-6.8
-9.62
-12.22
-14.96
-18.24
-22.34
-27.25
-32.62
-37.98
-42.93
-47.43
-51.71
-56.28
-61.66
-68.24
-76.1
-84.95
-94.17
-102.92
-110.25
-115.29
-117.46
-116.59
-112.98
-107.28
-100.35
-93.04
-86.09
-80.1
-75.5
-72.59
-71.51
-72.14
-74.07
-76.31
-77.25
-74.68
-66.16
-49.61
-24.05
9.76
49.1
89.72
126.75
156.01
175.05
183.45
182.61
174.79
162.24
146.65
129.13
110.51
91.78
74.25
59.24
47.69
39.69
34.53
30.91
27.46
23.13
17.23
9.59
0.32
-10.13
-21.03
-31.34
-39.81
-45.22
-46.78
-44.47
-39.09
-32.05
-24.96
-19.12
-15.08
-12.34
-9.21
-3.15
8.35
26.76
51.56
80.1
108.24
131.72
147.57
154.9
154.92
149.99
142.55
134.21
125.47
116.12
105.8
94.59
83.31
73.61
67.5
66.6
71.36
80.57
91.78
102.31
110.62
116.94
122.91
130.29
139.59
149.47
157.34
160.73
158.48
151.05
139.82
125.93
109.6
90.34
67.78
42.54
16.46
-8.06
-29.04
-45.55
-57.87
-66.95
-73.73
-78.84
-82.46
-84.57
-85.17
-84.37
-82.32
-79.05
-74.54
-68.72
-61.86
-54.57
-47.83
-42.61
-39.57
-38.79
-39.87
-42.26
-45.64
-50.09
-55.92
-63.34
-72.18
-81.67
-90.57
-97.4
-100.57
-98.83
-91.71
-79.97
-65.92
-53.04
-45.03
-44.52
-51.98
-65.47
-81.33
-95.56
-105.18
-109.02
-107.61
-102.48
-95.35
-87.52
-79.76
-72.42
-65.75
-59.94
-55.12
-51.22
-47.82
-44.23
-39.65
-33.51
-25.8
-17.07
-8.29
-0.56
5.32
9.01
10.59
10.4
8.77
5.85
1.53
-4.38
-11.92
-20.79
-30.14
-38.65
-44.76
-47.16
-45.13
-38.95
-29.78
-19.36
-9.41
-1.15
4.99
9.3
12.42
15.0
17.42
19.77
22.0
23.98
25.67
27.07
28.15
28.92
29.35
29.52
29.54
29.64
29.98
30.69
31.77
33.1
34.47
35.63
36.33
36.4
35.83
34.73
33.3
31.74
30.18
28.64
27.07
25.38
23.55
21.61
19.64
17.7
15.84
14.04
12.28
10.5
8.65
6.72
4.73
2.74
0.78
-1.08
-2.89
-4.73
-6.73
-9.0
-11.57
-14.34
-17.16
-19.8
-22.11
-24.09
-25.89
-27.83
-30.31
-33.63
-37.84
-42.54
-46.95
-49.89
-50.25
-47.27
-40.85
-31.68
-21.03
-10.34
-0.78
6.98
12.85
17.1
20.12
22.27
23.75
24.7
25.28
25.61
25.86
26.12
26.38
26.55
26.55
26.33
25.94
25.54
25.32
25.42
25.88
26.52
27.06
27.23
26.84
25.92
24.66
23.3
22.01
20.82
19.65
18.34
16.88
15.32
13.79
12.37
11.04
9.73
8.34
6.87
5.41
4.13
3.12
2.35
1.6
0.67
-0.59
-2.13
-3.74
-5.21
-6.47
-7.64
-8.93
-10.53
-12.43
-14.45
-16.34
-17.92
-19.22
-20.44
-21.9
