22.47
23.43
24.2
24.64
24.62
24.09
23.06
21.67
20.09
18.45
16.77
15.0
13.02
10.78
8.4
6.04
3.91
2.02
0.25
-1.65
-3.85
-6.44
-9.31
-12.26
-15.11
-17.73
-20.13
-22.4
-24.7
-27.28
-30.41
-34.3
-38.97
-44.05
-48.74
-51.96
-52.59
-49.86
-43.73
-34.83
-24.41
-13.82
-4.24
3.72
9.89
14.49
17.84
20.12
21.43
21.75
21.18
19.89
18.27
16.71
15.59
15.17
15.5
16.46
17.8
19.24
20.5
21.42
21.91
21.97
21.58
20.72
19.37
17.48
15.03
12.11
8.87
5.57
2.53
0.03
-1.74
-2.83
-3.5
-4.16
-5.23
-6.93
-9.24
-11.91
-14.59
-17.04
-19.21
-21.28
-23.59
-26.53
-30.37
-35.15
-40.55
-45.82
-49.92
-51.75
-50.44
-45.71
-38.0
-28.33
-18.06
-8.45
-0.46
5.44
9.21
11.11
11.61
11.21
10.4
9.54
8.87
8.53
8.62
9.23
10.43
12.18
14.29
16.43
18.27
19.58
20.34
20.67
20.71
20.49
19.91
18.8
17.11
14.96
12.65
10.53
8.75
7.2
5.52
3.28
0.19
-3.74
-8.15
-12.51
-16.35
-19.36
-21.55
-23.22
-24.75
-26.58
-29.02
-32.35
-36.65
-41.79
-47.22
-51.98
-54.85
-54.68
-50.84
-43.47
-33.57
-22.57
-11.92
-2.64
4.81
10.5
14.72
17.76
19.84
21.07
21.54
21.39
20.76
19.79
18.67
17.59
16.77
16.38
16.51
17.12
18.04
19.09
20.1
20.97
21.57
21.73
21.26
20.0
17.98
15.4
12.64
10.09
7.96
6.24
4.72
3.15
1.38
-0.63
-2.82
-5.12
-7.52
-10.0
-12.54
-15.13
-17.71
-20.29
-22.95
-25.8
-29.06
-32.98
-37.76
-43.43
-49.71
-55.79
-60.51
-62.57
-60.96
-55.4
-46.45
-35.35
-23.62
-12.55
-2.97
4.79
10.81
15.29
18.44
20.42
21.39
21.52
21.07
20.32
19.55
18.99
18.77
18.92
19.43
20.26
21.37
22.79
24.49
26.38
28.25
29.75
30.54
30.34
29.05
26.84
24.07
21.24
18.73
16.75
15.18
13.72
12.02
9.86
7.28
4.57
2.04
-0.05
-1.67
-3.05
-4.58
-6.66
-9.55
-13.28
-17.58
-22.03
-26.22
-29.91
-33.13
-36.2
-39.6
-43.83
-49.24
-55.84
-63.14
-70.08
-75.2
-76.97
-74.29
-66.88
-55.45
-41.53
-26.93
-13.24
-1.48
7.98
15.29
20.82
24.99
28.1
30.4
32.05
33.17
33.85
34.18
34.23
34.07
33.82
33.61
33.63
34.06
35.05
36.65
38.73
40.96
42.87
44.0
44.0
42.86
40.84
38.37
35.91
33.67
31.59
29.36
26.7
23.5
19.94
16.45
13.5
11.41
10.22
9.62
9.12
8.13
6.17
2.95
-1.51
-6.88
-12.58
-17.99
-22.61
-26.22
-28.99
-31.36
-33.98
-37.4
-41.9
-47.2
-52.46
-56.44
-57.8
-55.58
-49.46
-39.92
-28.05
-15.19
-2.6
8.82
18.47
26.1
31.58
34.92
36.19
35.62
33.6
30.64
27.36
24.29
21.88
20.36
19.82
20.19
21.35
23.17
25.43
27.84
30.03
31.57
32.08
31.34
29.36
26.35
22.71
18.88
15.28
12.2
9.7
7.69
5.87
3.91
1.54
-1.35
-4.73
-8.36
-11.95
-15.21
-17.97
-20.24
-22.23
-24.36
-27.12
-30.89
-35.72
-41.17
-46.26
-49.69
-50.25
-47.14
-40.35
-30.62
-19.24
-7.63
3.02
11.98
18.97
24.04
27.34
29.1
29.52
28.86
27.44
25.64
23.81
22.22
21.02
20.31
20.13
20.57
21.69
23.44
25.63
27.85
29.6
30.43
30.1
28.61
26.19
23.19
19.88
16.52
13.24
10.2
7.48
5.17
3.24
1.56
-0.04
-1.75
-3.69
-5.89
-8.36
-11.05
-13.92
-16.88
-19.86
-22.79
-25.7
-28.73
-32.19
-36.39
-41.46
-47.1
-52.54
-56.62
-58.12
-56.19
-50.6
-41.86
-31.03
-19.44
-8.37
1.23
8.8
14.21
17.67
19.61
20.53
20.92
21.1
21.19
21.17
20.99
20.69
20.36
20.21
20.4
21.03
22.11
23.57
25.31
27.19
29.04
30.56
31.43
31.34
30.11
27.79
24.68
21.28
18.1
15.51
13.64
12.33
11.28
10.2
8.9
7.39
5.81
4.28
2.83
1.31
-0.49
-2.8
-5.69
-9.08
-12.78
-16.54
-20.22
-23.73
-27.07
-30.32
-33.56
-36.93
-40.57
-44.58
-48.84
-52.96
-56.12
-57.34
-55.72
-50.8
-42.81
-32.65
-21.66
-11.14
-2.06
5.17
10.63
14.67
17.66
19.84
21.32
22.15
22.4
22.17
21.6
20.81
19.93
19.08
18.44
18.19
18.42
19.15
20.24
21.44
22.52
23.24
23.49
23.17
22.22
20.63
18.48
15.93
13.27
10.77
8.64
6.96
5.65
4.55
3.5
2.41
1.24
-0.02
-1.3
-2.56
-3.78
-4.96
-6.16
-7.52
-9.22
-11.39
-14.06
-17.09
-20.2
-23.11
-25.64
-27.81
-29.81
-31.96
-34.56
-37.84
-41.81
-46.15
-50.16
-52.85
-53.16
-50.29
-44.03
-34.87
-23.94
-12.62
-2.11
6.79
13.83
19.06
22.75
25.16
26.45
26.76
26.19
24.88
23.04
20.86
18.61
16.54
14.92
13.96
13.78
14.4
15.65
17.28
18.94
20.26
20.91
20.63
19.34
17.11
14.19
10.93
7.72
4.87
2.5
0.53
-1.3
-3.27
-5.59
-8.28
-11.2
-14.12
-16.76
-18.96
-20.7
-22.13
-23.47
-25.07
-27.24
-30.19
-33.9
-37.98
-41.67
-43.96
-43.89
-40.85
-34.82
-26.43
-16.73
-6.87
2.18
9.82
15.82
20.19
23.07
24.61
24.91
24.08
22.29
19.85
17.2
14.89
13.35
12.83
13.25
14.31
15.65
16.99
18.24
19.4
20.42
21.16
21.26
20.41
18.4
15.37
11.66
7.77
4.09
0.79
-2.15
-4.86
-7.49
-10.04
-12.46
-14.68
-16.7
-18.65
-20.68
-22.87
-25.24
-27.75
-30.44
-33.53
-37.4
-42.31
-48.19
-54.34
-59.5
-62.14
-61.03
-55.68
-46.53
-34.81
-22.1
-9.87
0.83
9.47
15.94
20.36
22.92
23.95
23.86
23.13
22.23
21.52
21.16
21.18
21.46
21.92
22.49
23.17
23.94
24.78
25.68
26.65
27.7
28.82
29.85
30.5
30.46
29.52
27.73
25.38
22.89
20.62
18.72
17.04
15.31
13.25
10.71
7.79
4.73
1.82
-0.75
-2.94
-4.88
-6.84
-9.07
-11.8
-15.05
-18.66
-22.34
-25.76
-28.7
-31.16
-33.41
-35.86
-39.02
-43.27
-48.72
-55.07
-61.45
-66.57
-68.95
-67.36
-61.24
-50.94
-37.64
-23.01
-8.74
3.91
14.24
22.06
27.55
31.02
32.82
33.31
32.88
31.93
30.79
29.69
28.75
28.02
27.5
27.23
27.28
27.72
28.61
29.93
31.59
33.35
34.93
36.06
36.51
36.2
35.14
33.48
31.44
29.28
27.26
25.54
24.14
22.96
21.79
20.39
18.62
16.47
14.09
11.74
9.64
7.95
6.56
5.29
3.79
1.77
-0.93
-4.28
-8.05
-11.92
-15.59
-18.93
-21.99
-24.97
-28.19
-31.98
-36.59
-41.96
-47.66
-52.79
-56.1
-56.34
-52.65
-44.99
-34.13
-21.53
-8.81
2.7
12.16
19.29
24.15
27.02
28.21
28.15
27.3
26.12
24.93
23.92
23.08
22.4
21.9
21.65
21.79
22.37
23.38
24.69
26.14
27.56
28.76
29.55
29.77
29.3
28.15
26.49
24.55
22.59
20.77
19.15
17.68
16.27
14.83
13.26
11.46
9.33
6.83
4.05
1.18
-1.48
-3.67
-5.3
-6.5
-7.55
-8.75
-10.29
-12.16
-14.18
-16.12
-17.85
-19.4
-20.97
-22.84
-25.26
-28.39
-32.25
-36.69
-41.29
-45.37
-47.99
-48.15
-45.12
-38.71
-29.45
-18.5
-7.33
2.72
10.75
16.45
19.95
21.67
22.04
21.41
20.04
18.19
16.13
14.14
12.5
11.41
10.94
11.05
11.6
12.42
13.42
14.53
15.77
17.15
18.6
19.92
20.83
21.04
20.39
18.91
16.83
14.54
12.41
10.68
9.35
8.21
6.94
5.29
3.2
0.77
-1.7
-3.89
-5.58
-6.76
-7.6
-8.41
-9.56
-11.28
-13.64
-16.47
-19.47
-22.29
-24.71
-26.69
-28.38
-30.03
-31.92
-34.26
-37.16
-40.52
-44.02
-46.97
-48.48
-47.55
-43.48
-36.17
-26.28
-15.05
-4.02
5.51
12.77
17.61
20.4
21.77
22.35
22.67
23.07
23.69
24.47
25.26
25.88
26.25
26.51
27.02
28.22
30.46
33.78
37.87
42.07
45.6
47.86
48.62
48.23
47.46
47.36
48.9
52.67
58.63
66.03
73.54
79.57
82.74
82.34
78.59
72.56
65.77
59.65
54.97
51.57
48.43
44.04
37.01
26.52
12.71
-3.43
-20.35
-36.43
-50.47
-61.87
-70.67
-77.32
-82.38
-86.47
-90.19
-94.14
-98.77
-104.01
-108.97
-111.9
-110.64
-103.44
-89.83
-71.01
-49.57
-28.67
-10.93
2.24
10.85
15.87
18.58
19.98
20.6
20.54
19.84
18.66
17.3
16.09
15.3
15.05
15.35
16.19
17.61
19.7
22.49
25.83
29.34
32.49
34.74
35.74
35.45
34.12
32.09
29.65
26.85
23.53
19.45
14.5
8.78
2.6
-3.63
-9.6
-15.11
-20.11
-24.5
-28.14
-30.82
-32.41
-33.04
-33.14
-33.29
-34.09
-35.85
-38.54
-41.85
-45.28
-48.46
-51.26
-53.83
-56.56
-59.95
-64.45
-70.23
-77.07
-84.15
-90.15
-93.48
-92.66
-86.92
-76.47
-62.55
-47.08
-32.04
-18.96
-8.67
-1.33
3.37
5.79
6.29
5.2
2.91
-0.06
-3.12
-5.71
-7.42
-7.95
-7.27
-5.4
-2.54
1.07
5.08
9.13
12.79
15.73
17.71
18.64
18.57
17.61
15.9
13.59
10.81
7.78
4.74
1.95
-0.41
-2.29
-3.84
-5.39
-7.25
-9.66
-12.72
-16.33
-20.29
-24.35
-28.29
-31.97
-35.46
-39.0
-43.07
-48.2
-54.82
-62.96
-71.99
-80.56
-86.81
-88.83
-85.26
-75.86
-61.56
-44.31
-26.43
-9.95
3.84
14.47
22.12
27.24
30.26
31.49
31.22
29.82
27.83
25.87
24.51
24.15
24.88
26.6
29.04
31.89
34.89
37.8
40.37
42.31
43.38
43.32
42.05
39.64
36.33
32.48
28.47
24.61
21.01
17.65
14.32
10.82
7.0
2.86
-1.47
-5.85
-10.22
-14.72
-19.58
-25.02
-31.02
-37.27
-43.23
-48.33
-52.22
-54.86
-56.64
-58.16
-60.21
-63.51
-68.48
-74.98
-82.1
-88.2
-91.27
-89.54
-82.07
-69.13
-52.14
-33.14
-14.27
2.85
17.24
28.55
36.87
42.51
45.99
47.9
48.87
49.47
50.07
50.76
51.48
52.07
52.46
52.75
53.21
54.14
55.74
57.92
60.34
62.45
63.75
63.88
62.76
60.58
57.71
54.54
51.36
48.33
45.46
42.68
39.88
36.97
33.93
30.82
27.73
24.76
21.94
19.2
16.38
13.29
9.77
5.79
1.46
-2.98
-7.26
-11.23
-14.93
-18.7
-23.08
-28.65
-35.75
-44.15
-52.88
-60.33
-64.59
-64.06
-58.05
-46.96
-32.26
-15.96
-0.04
14.05
25.54
34.27
40.45
44.45
46.67
47.46
47.21
46.27
44.96
43.53
42.19
41.06
40.23
39.79
39.83
40.45
41.67
43.44
45.52
47.57
49.14
49.84
49.47
48.01
45.65
42.71
39.52
36.33
33.32
30.52
27.92
25.42
22.91
20.32
17.63
14.94
12.46
10.38
8.78
7.57
6.47
5.07
3.02
0.15
-3.48
-7.56
-11.68
-15.45
-18.67
-21.36
-23.78
-26.33
-29.5
-33.69
-39.09
-45.42
-51.92
-57.27
-59.98
-58.77
-53.01
-43.04
-30.05
-15.77
-1.97
10.0
19.4
26.11
30.4
32.75
33.67
33.61
32.94
31.94
30.8
29.64
28.54
27.56
26.75
26.2
25.99
26.18
26.81
27.84
29.13
30.47
31.52
31.95
31.47
30.02
27.74
24.97
22.19
19.75
17.86
16.49
15.44
14.43
13.21
11.65
9.8
7.81
5.87
4.11
2.53
0.97
-0.78
-2.93
-5.59
-8.65
-11.91
-15.09
-17.95
-20.35
-22.32
-24.02
-25.8
-28.09
-31.24
-35.3
-39.84
-43.95
-46.35
-45.9
-41.92
-34.61
-24.87
-14.16
-3.92
4.75
11.31
15.74
18.28
19.3
19.1
17.94
16.09
13.87
11.64
9.77
8.58
8.22
8.73
10.0
11.8
13.9
16.06
18.05
19.67
20.72
21.02
20.51
19.2
17.22
14.78
12.12
9.44
6.95
4.79
3.04
1.67
0.53
-0.6
-1.94
-3.68
-5.81
-8.24
-10.77
-13.21
-15.42
-17.33
-18.99
-20.51
-22.08
-23.97
-26.44
-29.7
-33.76
-38.36
-42.86
-46.31
-47.68
-46.09
-41.2
-33.36
-23.55
-13.08
-3.25
5.04
11.39
15.87
18.76
20.42
21.08
20.88
19.96
18.53
16.87
15.27
13.98
13.09
12.64
12.57
12.87
13.55
14.56
15.84
17.17
18.25
18.74
18.44
17.27
15.36
12.96
10.38
7.86
5.58
3.59
1.89
0.42
-0.91
-2.22
-3.6
-5.14
-6.85
-8.66
-10.5
-12.28
-14.0
-15.71
-17.52
-19.53
-21.79
-24.29
-27.0
-29.97
-33.33
-37.28
-41.95
-47.23
-52.57
-56.99
-59.28
-58.41
-53.85
-45.88
-35.48
-24.03
-12.86
-3.0
5.06
11.21
15.56
18.35
19.84
20.32
20.17
19.73
19.3
19.02
18.9
18.88
18.91
19.03
19.35
20.02
21.12
22.62
24.33
25.93
27.03
27.35
26.73
25.23
23.1
20.59
17.92
15.2
12.43
9.59
6.67
3.78
1.04
-1.41
-3.6
-5.68
-7.91
-10.55
-13.76
-17.52
-21.63
-25.84
-29.84
-33.53
-36.93
-40.27
-43.9
-48.21
-53.5
-59.89
-67.06
-74.26
-80.29
-83.74
-83.42
-78.79
-70.17
-58.7
-46.03
-33.75
-23.07
-14.52
-8.14
-3.57
-0.41
1.71
3.09
4.02
4.84
5.89
7.42
9.53
12.03
14.61
16.88
18.66
19.95
20.99
22.07
23.29
24.56
25.49
25.67
24.79
22.83
20.04
16.85
13.69
10.79
8.24
5.89
3.66
1.49
-0.56
-2.39
-3.96
-5.32
-6.69
-8.34
-10.52
-13.36
-16.81
-20.59
-24.23
-27.14
-28.79
-28.89
-27.57
-25.43
-23.4
-22.45
-23.22
-25.72
-29.23
-32.43
-33.72
-31.67
-25.42
-14.92
-0.95
15.03
31.21
45.84
57.56
65.71
70.3
71.87
71.21
69.03
65.76
61.61
56.64
51.02
45.1
39.37
34.27
30.13
27.01
24.87
23.61
23.15
23.37
24.07
24.96
25.7
26.0
25.71
24.86
23.61
22.14
20.53
18.67
16.38
13.42
9.7
5.33
0.71
-3.62
-7.2
-9.75
-11.31
-12.16
-12.68
-13.21
-14.02
-15.27
-17.03
-19.34
-22.14
-25.31
-28.7
-32.25
-36.0
-40.16
-44.96
-50.47
-56.32
-61.66
-65.26
-65.81
-62.34
-54.61
-43.22
-29.49
-15.07
-1.5
10.19
19.56
26.67
31.89
35.62
38.12
39.52
39.92
39.49
38.54
37.51
36.8
36.69
37.2
38.19
39.42
40.72
41.97
43.06
43.88
44.29
44.15
43.44
42.24
40.67
38.78
36.45
33.51
29.87
25.69
21.38
17.5
14.51
12.6
11.56
10.89
9.93
8.15
5.28
1.46
-2.74
-6.51
-9.02
-9.73
-8.66
-6.4
-4.0
-2.59
-2.96
-5.24
-8.87
-12.73
-15.57
-16.38
-14.74
-10.81
-5.22
1.15
7.5
13.15
17.66
20.79
22.4
22.53
21.33
19.14
16.38
13.46
10.74
8.43
6.64
5.44
4.82
4.77
5.2
5.99
7.0
8.06
9.02
9.74
10.06
9.84
9.0
7.58
5.74
3.71
1.7
-0.23
-2.07
-3.91
-5.73
-7.43
-8.81
-9.74
-10.24
-10.53
-10.93
-11.72
-13.02
-14.75
-16.66
-18.51
-20.17
-21.7
-23.3
-25.29
-27.98
-31.52
-35.79
-40.25
-43.94
-45.74
-44.57
-39.91
-31.97
-21.71
-10.52
0.13
9.17
16.05
20.73
23.47
24.67
24.64
23.63
21.89
19.68
17.29
15.02
13.09
11.61
10.6
10.04
9.89
10.16
10.84
11.8
12.81
13.56
13.76
13.27
12.15
10.61
8.91
7.26
5.69
4.18
2.65
1.08
-0.46
-1.86
-3.05
-3.99
-4.76
-5.46
-6.18
-6.98
-7.85
-8.82
-9.88
-11.08
-12.46
-14.01
-15.74
-17.63
-19.73
-22.19
-25.19
-28.82
-32.8
-36.46
-38.78
-38.68
-35.45
-29.07
-20.27
-10.29
-0.54
7.82
14.14
18.24
20.35
20.89
20.33
19.09
17.5
15.79
14.08
12.46
10.97
9.72
8.82
8.34
8.29
8.6
9.15
9.8
10.43
10.88
11.0
10.63
9.69
8.21
6.35
4.31
2.31
0.43
-1.31
-2.97
-4.53
-5.95
-7.17
-8.13
-8.87
-9.53
-10.25
-11.19
-12.4
-13.82
-15.33
-16.78
-18.03
-19.06
-20.0
-21.08
-22.65
-25.02
-28.32
-32.38
-36.62
-40.16
-41.97
-41.15
-37.23
-30.33
-21.23
-11.09
-1.22
7.33
13.91
18.34
20.82
21.68
21.31
19.98
17.92
15.35
12.54
9.8
7.48
5.81
4.92
4.75
5.19
6.03
7.07
8.15
9.15
9.98
10.47
10.5
9.9
8.66
6.86
4.72
2.51
0.41
-1.51
-3.32
-5.08
-6.84
-8.5
-9.97
-11.14
-12.11
-13.08
-14.31
-15.96
-18.0
-20.23
-22.38
-24.26
-25.8
-27.12
-28.45
-30.08
-32.27
-35.18
-38.79
-42.85
-46.76
-49.69
-50.64
-48.8
-43.77
-35.83
-25.93
-15.37
-5.53
2.54
8.33
11.82
13.37
13.44
12.47
10.87
8.98
7.16
5.74
4.98
4.97
5.67
6.87
8.32
9.79
11.12
12.22
13.05
13.61
13.85
13.73
13.17
12.09
10.46
8.3
5.69
2.81
-0.16
-3.06
-5.77
-8.18
-10.24
-11.92
-13.25
-14.36
-15.43
-16.63
-18.08
-19.78
-21.62
-23.41
-25.05
-26.64
-28.46
-30.98
-34.64
-39.7
-46.05
-53.06
-59.68
-64.54
-66.38
-64.34
-58.27
-48.77
-37.07
-24.64
-12.88
-2.79
5.13
10.82
14.5
16.52
17.16
16.69
15.36
13.47
11.43
9.67
8.56
8.35
8.98
10.27
11.91
13.66
15.34
16.81
17.95
18.54
18.4
17.4
15.53
12.88
9.63
5.97
2.02
-2.17
-6.55
-11.06
-15.59
-19.97
-24.01
-27.45
-30.02
-31.44
-31.51
-30.19
-27.69
-24.49
-21.22
-18.55
-17.05
-17.01
-18.38
-20.76
-23.34
-24.99
-24.52
-20.97
-13.96
-3.9
8.06
20.37
31.53
40.44
46.59
49.98
50.89
49.68
46.71
42.37
37.2
31.87
27.09
23.44
21.17
20.26
20.45
21.42
22.92
24.82
26.98
29.19
31.02
31.94
31.49
29.52
26.22
22.11
17.81
13.71
9.99
6.5
2.98
-0.8
-4.87
-9.12
-13.34
-17.38
-21.19
-24.79
-28.27
-31.72
-35.31
-39.26
-43.81
-49.02
-54.56
-59.54
-62.65
-62.44
-57.88
-48.79
-35.99
-21.0
-5.55
8.94
21.67
32.41
41.28
48.47
54.14
58.4
61.48
63.74
65.63
67.56
69.84
72.62
75.93
79.76
84.05
88.72
93.68
98.87
104.3
110.02
116.06
122.22
127.93
132.25
134.01
132.19
126.31
116.67
104.33
90.78
77.51
65.54
55.32
46.78
39.5
32.98
26.76
20.51
13.88
6.59
-1.57
-10.74
-20.94
-32.19
-44.5
-57.91
-72.35
-87.39
-102.1
-115.05
-124.57
-129.32
-128.69
-123.13
-114.02
-103.19
-92.47
-83.16
-75.92
-70.87
-67.74
-66.17
-65.73
-65.95
-66.27
-66.05
-64.64
-61.5
-56.33
-49.11
-40.11
-29.71
-18.32
-6.31
6.01
18.34
30.2
41.04
50.25
57.35
62.18
64.9
65.92
65.73
64.74
63.17
61.08
58.48
55.37
51.85
48.06
44.16
40.3
36.55
32.93
29.25
25.24
20.45
14.43
6.88
-2.23
-12.57
-23.56
-34.61
-45.23
-55.24
-64.73
-73.98
-83.21
-92.39
-100.98
-107.94
-111.87
-111.41
-105.73
-94.86
-79.8
-62.26
-44.14
-27.04
-11.89
1.05
11.95
21.19
29.04
35.64
41.01
45.12
47.99
49.69
50.38
50.27
49.57
48.52
47.33
46.22
45.39
44.95
44.9
45.07
45.17
44.86
43.84
42.03
39.49
36.45
33.2
30.02
27.13
24.58
22.3
20.09
17.75
15.19
12.5
9.92
7.77
6.19
5.13
4.3
3.34
1.97
0.16
-1.97
-4.14
-6.19
-8.06
-9.86
-11.78
-13.99
-16.66
-19.92
-23.89
-28.51
-33.41
-37.81
-40.64
-40.83
-37.74
-31.43
-22.75
-13.09
-3.85
3.89
9.72
13.75
16.47
18.35
19.7
20.58
20.97
20.85
20.32
19.59
18.91
18.45
18.28
18.36
18.62
19.07
19.71
20.55
21.55
22.57
23.37
23.71
23.47
22.66
21.41
19.9
18.27
16.56
14.8
12.93
10.98
9.01
7.08
5.3
3.67
2.18
0.69
-0.87
-2.55
-4.26
-5.86
-7.18
-8.12
-8.78
-9.45
-10.55
-12.49
-15.46
-19.27
-23.33
-26.78
-28.69
-28.38
-25.63
-20.73
-14.46
-7.82
-1.73
3.13
6.49
8.42
9.13
8.84
7.73
5.88
3.43
0.66
-2.0
-4.14
-5.4
-5.68
-5.09
-3.87
-2.27
-0.48
1.42
3.35
5.18
6.7
7.69
8.0
7.62
6.68
5.38
3.89
2.29
0.58
-1.26
-3.2
-5.12
-6.86
-8.25
-9.27
-9.99
-10.64
-11.45
-12.57
-14.02
-15.68
-17.39
-19.03
-20.54
-22.01
-23.62
-25.64
-28.25
-31.53
-35.36
-39.35
-42.83
-44.92
-44.77
-41.82
-36.0
-27.87
-18.41
-8.74
0.15
7.67
13.58
17.9
20.75
22.27
22.6
21.95
20.62
19.0
17.43
16.15
15.21
14.56
14.09
13.72
13.45
13.31
13.35
13.56
13.85
14.07
14.05
13.64
12.81
11.59
10.1
8.53
7.06
5.8
4.79
3.97
3.2
2.31
1.2
-0.14
-1.63
-3.11
-4.44
-5.57
-6.55
-7.55
-8.79
-10.49
-12.72
-15.46
-18.48
-21.52
-24.31
-26.71
-28.76
-30.65
-32.71
-35.26
-38.51
-42.45
-46.69
-50.48
-52.84
-52.81
-49.76
-43.67
-35.15
-25.3
-15.37
-6.34
1.17
7.04
11.42
14.62
16.93
18.58
19.74
20.54
21.09
21.49
21.83
22.16
22.59
23.2
24.11
25.37
26.93
28.64
30.36
31.97
33.46
34.87
36.28
37.61
38.65
39.17
39.04
38.4
37.63
37.24
37.62
38.85
40.68
42.69
44.45
45.75
46.64
47.31
47.94
48.59
49.22
49.69
49.79
48.97
46.34
40.65
30.69
15.8
-3.69
-26.38
-50.21
-73.14
-93.85
-112.01
-128.06
-142.62
-155.88
-167.3
-175.69
-179.69
-178.22
-171.04
-158.69
-142.39
-123.65
-103.8
-83.89
-64.61
-46.51
-30.01
-15.54
-3.39
6.42
14.16
20.31
25.34
29.6
33.15
35.97
37.98
39.18
39.81
40.22
40.79
41.86
43.53
45.64
47.81
49.57
50.5
50.33
49.05
46.87
44.1
41.04
37.93
34.84
31.77
28.74
25.76
22.93
20.37
18.1
16.11
14.26
12.38
10.4
8.31
6.15
3.95
1.68
-0.82
-3.66
-6.89
-10.35
-13.84
-17.08
-19.96
-22.5
-24.89
-27.41
-30.34
-33.94
-38.38
-43.69
-49.53
-55.19
-59.53
-61.28
-59.45
-53.71
-44.57
-33.26
-21.33
-10.15
-0.6
7.01
12.82
17.16
20.37
22.68
24.26
25.24
25.86
26.31
26.87
27.69
28.84
30.27
31.84
33.4
34.86
36.2
37.46
38.64
39.7
40.46
40.7
40.23
38.97
37.02
34.62
32.12
29.84
27.96
26.51
25.31
24.16
22.86
21.33
19.62
17.89
16.3
14.95
13.76
12.52
10.83
8.28
4.53
-0.58
-7.0
-14.48
-22.6
-30.84
-38.66
-45.6
-51.44
-56.25
-60.41
-64.39
-68.5
-72.55
-75.76
-76.94
-74.95
-69.13
-59.66
-47.48
-34.0
-20.58
-8.27
2.32
11.0
17.7
22.41
25.2
26.24
25.85
24.52
22.8
21.17
19.94
19.28
19.15
19.46
20.04
20.79
21.7
22.78
24.06
25.51
27.02
28.35
29.29
29.63
29.31
28.36
26.87
24.97
22.77
20.37
17.83
15.26
12.72
10.24
7.83
5.44
2.99
0.37
-2.45
-5.47
-8.57
-11.57
-14.32
-16.7
-18.78
-20.83
-23.25
-26.28
-29.82
-33.18
-35.21
-34.59
-30.29
-22.01
-10.26
3.84
18.91
33.79
47.69
60.28
71.46
81.24
89.58
96.35
101.33
104.3
104.98
103.23
99.09
92.89
85.22
76.87
68.69
61.37
55.3
50.57
47.0
44.2
41.64
38.75
35.0
29.95
23.41
15.46
6.52
-2.85
-12.02
-20.51
-28.17
-35.07
-41.43
-47.46
-53.21
-58.61
-63.62
-68.25
-72.66
-77.0
-81.29
-85.33
-88.77
-91.29
-92.77
-93.34
-93.39
-93.35
-93.69
-94.78
-96.89
-100.05
-103.85
-107.32
-108.97
-107.16
-100.72
-89.42
-74.14
-56.63
-38.91
-22.72
-9.09
1.6
9.52
15.06
18.74
21.07
22.59
23.75
24.87
26.08
27.33
28.52
29.54
30.36
31.0
31.52
31.93
32.21
32.36
32.36
32.22
31.85
31.15
29.96
28.14
25.64
22.57
19.2
15.82
12.71
9.97
7.58
5.41
3.33
1.37
-0.31
-1.47
-1.98
-1.87
-1.46
-1.19
-1.44
-2.43
-4.11
-6.27
-8.67
-11.13
-13.6
-16.17
-18.97
-22.2
-26.1
-30.91
-36.72
-43.3
-49.9
-55.3
-58.09
-57.07
-51.72
-42.41
-30.33
-17.13
-4.37
6.79
15.81
22.6
27.46
30.75
32.86
34.16
34.98
35.6
36.21
36.86
37.47
37.92
38.17
38.23
38.25
38.4
38.85
39.65
40.79
42.14
43.43
44.33
44.5
43.66
41.8
39.16
36.12
33.18
30.62
28.5
26.63
24.75
22.62
20.17
17.52
14.88
12.47
10.38
8.59
6.93
5.21
3.23
0.9
-1.82
-4.84
-8.02
-11.18
-14.18
-16.96
-19.6
-22.35
-25.54
-29.55
-34.57
-40.42
-46.42
-51.41
-54.02
-53.1
-48.11
-39.35
-27.96
-15.56
-3.71
6.42
14.29
19.97
23.82
26.29
27.8
28.66
29.07
29.23
29.24
29.14
28.91
28.58
28.19
27.9
27.92
28.42
29.49
31.08
33.01
34.99
36.61
37.51
37.42
36.24
34.12
31.36
28.37
25.53
23.09
21.12
19.53
18.17
16.83
15.37
13.7
11.87
9.99
8.21
6.62
5.14
3.6
1.79
-0.5
-3.26
-6.42
-9.8
-13.21
-16.52
-19.65
-22.57
-25.3
-27.97
-30.78
-34.02
-37.86
-42.09
-46.06
-48.76
-49.09
-46.34
-40.5
-32.28
-22.89
-13.59
-5.34
1.38
6.45
10.02
12.24
13.27
13.27
12.5
11.27
9.9
8.62
7.55
6.67
5.84
4.95
3.96
2.93
2.06
1.54
1.42
1.54
1.49
0.79
-0.98
-3.92
-7.73
-11.77
-15.22
-17.22
-17.13
-14.58
-9.58
-2.57
5.62
13.85
20.95
25.94
28.29
28.0
25.58
21.81
17.49
13.21
9.26
5.69
2.34
-1.01
-4.63
-8.74
-13.46
-18.67
-23.95
-28.46
-31.21
-31.26
-28.13
-21.99
-13.64
-4.29
4.81
12.74
18.99
23.43
26.13
27.25
26.94
25.45
23.14
20.48
17.92
15.81
14.29
13.34
12.86
12.8
13.09
13.74
14.62
15.52
16.18
16.37
16.0
15.13
13.88
12.36
10.59
8.58
6.32
3.87
1.38
-1.02
-3.23
-5.24
-7.1
-8.85
-10.49
-12.01
-13.46
-14.93
-16.57
-18.54
-20.86
-23.43
-26.04
-28.43
-30.5
-32.28
-33.99
-36.0
-38.7
-42.34
-46.87
-51.77
-56.13
-58.81
-58.74
-55.35
-48.8
-39.99
-30.26
-20.97
-13.1
-7.02
-2.56
0.81
3.66
6.36
8.93
11.03
12.08
11.46
8.85
4.46
-0.82
-5.55
-8.19
-7.61
-3.49
3.53
12.13
20.81
28.34
34.06
37.79
39.68
39.97
38.82
36.41
32.99
28.91
24.61
20.47
16.69
13.31
10.22
7.28
4.42
1.63
-1.05
-3.6
-5.99
-8.21
-10.27
-12.24
-14.23
-16.4
-18.88
-21.64
-24.56
-27.38
-29.89
-32.0
-33.77
-35.4
-37.04
-38.77
-40.62
-42.66
-45.07
-48.12
-51.94
-56.29
-60.43
-63.25
-63.57
-60.63
-54.32
-45.27
-34.61
-23.53
-13.01
-3.65
4.25
10.59
15.38
18.73
20.94
22.5
23.96
25.74
28.02
30.69
33.55
36.4
39.23
42.16
45.38
48.98
52.89
56.93
60.87
64.52
67.77
70.56
72.87
74.62
75.74
76.09
75.59
74.21
71.94
68.81
64.85
60.13
54.73
48.79
42.46
35.93
29.33
22.81
16.43
10.21
4.19
-1.63
-7.23
-12.57
-17.6
-22.27
-26.56
-30.49
-34.08
-37.31
-40.25
-42.91
-45.44
-48.04
-51.03
-54.67
-59.06
-63.94
-68.67
-72.3
-73.82
-72.53
-68.22
-61.29
-52.6
-43.19
-34.02
-25.86
-19.22
-14.37
-11.36
-10.06
-10.14
-11.15
-12.62
-14.2
-15.66
-16.93
-17.97
-18.74
-19.19
-19.28
-19.0
-18.31
-17.2
-15.57
-13.42
-10.8
-7.97
-5.3
-3.18
-1.93
-1.67
-2.31
-3.67
-5.5
-7.62
-9.95
-12.52
-15.35
-18.36
-21.33
-23.91
-25.78
-26.75
-26.88
-26.42
-25.71
-24.98
-24.23
-23.21
-21.59
-19.18
-16.09
-12.76
-9.78
-7.73
-6.95
-7.43
-8.88
-10.77
-12.46
-13.23
-12.49
-9.78
-4.97
1.69
9.59
17.89
25.72
32.42
37.63
41.31
43.65
44.95
45.52
45.61
45.42
45.1
44.77
44.61
44.82
45.6
47.11
49.43
52.49
56.13
60.06
63.88
67.18
69.51
70.35
69.26
66.01
60.78
54.07
46.57
39.04
32.35
27.38
24.85
25.31
29.03
35.79
44.8
54.89
64.75
73.78
81.83
89.06
95.52
101.05
105.44
108.65
111.02
113.1
115.85
119.9
125.1
130.5
134.75
136.75
136.2
133.83
126.78
113.83
95.49
73.78
51.53
31.25
14.36
1.0
-9.57
-16.73
-21.71
-26.11
-31.45
-38.97
-49.39
-62.55
-77.36
-92.24
-105.21
-114.44
-118.99
-119.12
-116.07
-111.28
-105.87
-100.27
-94.52
-88.63
-82.84
-77.54
-73.12
-69.82
-67.62
-66.27
-65.5
-65.14
-65.16
-65.62
-66.41
-67.23
-67.7
-67.46
-66.32
-64.32
-61.72
-58.91
-56.28
-54.14
-52.68
-52.03
-52.3
-53.43
-55.27
-57.47
-59.61
-61.37
-62.68
-63.67
-64.59
-65.64
-66.69
-67.26
-66.68
-64.2
-59.24
-51.48
-40.92
-27.84
-12.83
3.28
19.43
34.52
47.44
57.44
64.07
67.39
67.81
66.02
62.84
58.99
55.05
51.3
47.75
44.23
40.57
36.77
33.03
29.73
27.23
25.73
25.19
25.31
25.65
25.82
25.57
24.81
23.62
22.11
20.35
18.33
16.01
13.37
10.5
7.6
4.95
2.77
1.16
0.03
-0.85
-1.75
-2.83
-4.11
-5.51
-6.91
-8.27
-9.68
-11.3
-13.27
-15.62
-18.26
-21.0
-23.72
-26.4
-29.15
-32.11
-35.37
-38.9
-42.63
-46.55
-50.74
-55.3
-60.2
-65.01
-68.95
-71.02
-70.24
-66.04
-58.42
-47.86
-35.22
-21.48
-7.62
5.44
16.91
26.13
32.71
36.58
38.05
37.62
35.91
33.5
30.8
28.16
25.81
23.98
22.82
22.44
22.81
23.75
25.05
26.37
27.41
27.93
27.81
27.01
25.62
23.8
21.73
19.63
17.64
15.85
14.26
12.82
11.47
10.2
9.02
7.97
7.03
6.05
4.78
2.92
0.29
-3.09
-6.95
-10.88
-14.52
-17.71
-20.53
-23.33
-26.49
-30.41
-35.23
-40.81
-46.64
-51.82
-55.25
-55.87
-53.02
-46.63
-37.3
-26.13
-14.41
-3.33
6.26
13.84
19.28
22.62
24.09
23.99
22.75
20.82
18.72
16.83
15.43
14.6
14.25
14.24
14.47
14.96
15.79
17.02
18.62
20.41
22.1
23.35
23.91
23.67
22.64
20.98
18.95
16.86
14.96
13.41
12.11
10.84
9.32
7.39
5.08
2.61
0.21
-2.0
-4.07
-6.24
-8.76
-11.79
-15.31
-19.1
-22.89
-26.45
-29.68
-32.63
-35.5
-38.59
-42.25
-46.87
-52.67
-59.5
-66.69
-73.06
-77.06
-77.28
-72.89
-63.92
-51.3
-36.54
-21.27
-6.86
5.78
16.22
24.32
30.18
34.02
36.09
