57.45
59.15
59.84
59.28
57.47
54.69
51.33
47.86
44.59
41.68
39.11
36.71
34.35
31.95
29.59
27.4
25.52
23.95
22.58
21.17
19.44
17.19
14.36
11.02
7.34
3.52
-0.27
-3.97
-7.6
-11.35
-15.56
-20.68
-27.08
-34.81
-43.39
-51.65
-58.03
-61.01
-59.62
-53.82
-44.44
-32.9
-20.68
-8.99
1.42
10.17
17.12
22.27
25.7
27.64
28.45
28.52
28.21
27.72
27.17
26.62
26.15
25.86
25.88
26.35
27.34
28.84
30.75
32.82
34.68
35.92
36.24
35.5
33.82
31.48
28.85
26.23
23.81
21.63
19.66
17.79
15.9
13.86
11.61
9.16
6.64
4.25
2.13
0.31
-1.41
-3.36
-5.93
-9.35
-13.56
-18.25
-22.93
-27.2
-30.83
-33.93
-36.8
-39.87
-43.56
-48.19
-53.85
-60.22
-66.56
-71.63
-73.97
-72.31
-66.03
-55.43
-41.75
-26.77
-12.3
0.29
10.31
17.71
22.83
26.21
28.33
29.54
30.07
30.06
29.63
28.98
28.34
27.97
28.05
28.65
29.75
31.24
33.03
34.97
36.89
38.53
39.58
39.75
38.91
37.11
34.58
31.67
28.69
25.86
23.28
20.94
18.79
16.74
14.71
12.61
10.4
8.12
5.85
3.72
1.81
0.09
-1.6
-3.47
-5.73
-8.51
-11.79
-15.44
-19.26
-23.05
-26.64
-29.98
-33.08
-36.1
-39.27
-42.92
-47.33
-52.57
-58.29
-63.63
-67.33
-68.0
-64.6
-56.83
-45.34
-31.57
-17.3
-4.21
6.6
14.71
20.28
23.77
25.68
26.42
26.32
25.63
24.62
23.64
22.99
22.89
23.4
24.41
25.73
27.17
28.66
30.14
31.59
32.95
34.02
34.54
34.28
33.13
31.14
28.51
25.52
22.44
19.5
16.84
14.54
12.56
10.8
9.15
7.44
5.61
3.58
1.4
-0.82
-2.97
-4.99
-6.87
-8.71
-10.62
-12.75
-15.15
-17.81
-20.63
-23.44
-26.1
-28.52
-30.7
-32.78
-35.03
-37.79
-41.42
-46.06
-51.47
-56.9
-61.14
-62.78
-60.72
-54.52
-44.61
-32.17
-18.76
-5.86
5.46
14.59
21.38
25.92
28.42
29.2
28.59
27.02
24.9
22.61
20.44
18.6
17.23
16.4
16.14
16.4
17.12
18.18
19.45
20.78
21.94
22.68
22.76
22.04
20.51
18.33
15.77
13.13
10.58
8.2
5.95
3.8
1.76
-0.13
-1.86
-3.5
-5.25
-7.3
-9.77
-12.58
-15.54
-18.34
-20.79
-22.92
-24.91
-27.11
-29.88
-33.52
-38.16
-43.76
-49.93
-55.9
-60.52
-62.51
-60.8
-54.91
-45.19
-32.74
-19.08
-5.78
5.91
15.26
22.03
26.34
28.52
29.0
28.24
26.68
24.75
22.79
21.12
19.97
19.44
19.52
20.09
20.99
22.14
23.52
25.2
27.15
29.2
30.95
31.89
31.63
30.06
27.4
24.16
20.9
18.03
15.65
13.59
11.53
9.18
6.4
3.25
-0.06
-3.26
-6.15
-8.65
-10.86
-13.0
-15.36
-18.18
-21.56
-25.41
-29.45
-33.38
-36.93
-40.07
-43.02
-46.24
-50.26
-55.5
-61.98
-69.18
-76.01
-80.89
-82.32
-79.19
-71.29
-59.33
-44.8
-29.51
-15.07
-2.57
7.52
15.26
20.98
25.06
27.85
29.6
30.52
30.82
30.68
30.27
29.74
29.22
28.83
28.68
28.92
29.64
30.9
32.61
34.5
36.19
37.26
37.37
36.4
34.55
32.13
29.52
26.92
24.32
21.56
18.44
14.96
11.28
7.73
4.59
1.92
-0.45
-2.85
-5.54
-8.66
-12.08
-15.55
-18.82
-21.72
-24.21
-26.42
-28.56
-31.0
-34.17
-38.45
-43.94
-50.19
-56.07
-59.97
-60.18
-55.58
-46.06
-32.7
-17.5
-2.7
9.81
18.99
24.74
27.63
28.5
28.2
27.3
26.2
25.08
24.03
23.13
22.45
22.12
22.24
22.95
24.33
26.4
29.05
32.07
35.14
37.84
39.77
40.54
39.91
37.85
34.54
30.33
25.64
20.85
16.21
11.83
7.76
4.02
0.69
-2.14
-4.39
-6.11
-7.51
-8.91
-10.64
-12.89
-15.65
-18.67
-21.59
-24.09
-26.11
-27.8
-29.61
-32.04
-35.51
-40.22
-45.97
-52.08
-57.49
-60.96
-61.39
-58.12
-51.21
-41.41
-29.95
-18.17
-7.2
2.28
10.06
16.31
21.32
25.4
28.74
31.4
33.46
35.01
36.19
37.18
38.08
38.92
39.63
40.16
40.47
40.59
40.62
40.6
40.51
40.18
39.3
37.61
34.96
31.4
27.22
22.86
18.71
15.05
11.91
9.16
6.58
4.02
1.39
-1.22
-3.66
-5.74
-7.37
-8.61
-9.68
-10.98
-12.98
-16.12
-20.63
-26.35
-32.67
-38.54
-42.73
-44.08
-41.89
-36.11
-27.4
-16.9
-5.99
4.12
12.61
19.15
23.8
26.79
28.43
28.89
28.32
26.87
24.79
22.46
20.29
18.66
17.7
17.43
17.69
18.36
19.31
20.49
21.75
22.83
23.39
23.05
21.61
19.15
15.98
12.54
9.25
6.33
3.72
1.24
-1.37
-4.22
-7.3
-10.46
-13.5
-16.29
-18.81
-21.14
-23.51
-26.16
-29.41
-33.42
-38.11
-42.97
-47.11
-49.35
-48.68
-44.53
-37.09
-27.28
-16.47
-6.07
2.88
9.9
14.98
18.45
20.68
21.92
22.36
22.11
21.35
20.32
19.29
18.43
17.83
17.45
17.2
17.06
17.02
17.17
17.51
18.03
18.55
18.85
18.71
17.94
16.45
14.31
11.67
8.8
5.99
3.48
1.37
-0.34
-1.8
-3.21
-4.79
-6.66
-8.84
-11.23
-13.62
-15.81
-17.7
-19.33
-20.9
-22.73
-25.16
-28.4
-32.48
-37.14
-41.79
-45.57
-47.51
-46.77
-42.9
-36.04
-26.93
-16.72
-6.7
2.07
8.97
13.86
16.97
18.69
19.43
19.49
19.09
18.37
17.51
16.66
16.0
15.65
15.62
15.88
16.34
16.88
17.48
18.07
18.66
19.2
19.63
19.84
19.68
19.03
17.83
16.17
14.29
12.53
11.16
10.28
9.79
9.43
8.9
8.02
6.79
5.33
3.83
2.41
1.08
-0.25
-1.71
-3.4
-5.36
-7.54
-9.87
-12.3
-14.76
-17.25
-19.71
-22.16
-24.65
-27.35
-30.48
-34.2
-38.33
-42.2
-44.75
-44.83
-41.68
-35.29
-26.46
-16.51
-6.78
1.68
8.39
13.28
16.48
18.15
18.46
17.63
16.01
14.07
12.23
10.81
9.91
9.47
9.36
9.46
9.67
9.98
10.42
10.96
11.57
12.14
12.5
12.51
12.05
11.08
9.68
8.07
6.48
5.14
4.21
3.72
3.61
3.8
4.13
4.5
4.78
4.87
4.68
4.11
3.18
1.99
0.66
-0.71
-2.13
-3.74
-5.79
-8.46
-11.82
-15.7
-19.79
-23.71
-27.14
-29.93
-32.13
-34.04
-36.1
-38.78
-42.41
-46.94
-51.85
-56.08
-58.38
-57.67
-53.38
-45.72
-35.61
-24.4
-13.46
-3.86
3.79
9.39
13.15
15.42
16.48
16.44
15.33
13.18
10.11
6.49
2.86
-0.13
-1.85
-1.89
-0.11
3.3
7.85
12.89
17.75
21.81
24.66
26.14
26.38
25.76
24.82
24.14
24.11
24.91
26.37
28.09
29.57
30.39
30.37
29.45
27.75
25.38
22.38
18.74
14.39
9.34
3.67
-2.42
-8.65
-14.7
-20.23
-24.95
-28.67
-31.27
-32.77
-33.31
-33.06
-32.2
-30.9
-29.32
-27.69
-26.29
-25.45
-25.34
-25.85
-26.49
-26.48
-24.96
-21.33
-15.49
-7.87
0.72
9.31
17.07
23.42
28.1
31.09
32.48
32.4
30.99
28.45
25.04
21.14
17.18
13.55
10.6
8.55
7.44
7.22
7.78
8.96
10.55
12.34
14.03
15.34
16.0
15.8
14.7
12.76
10.14
7.06
3.73
0.29
-3.1
-6.3
-9.19
-11.74
-14.05
-16.35
-18.87
-21.73
-24.91
-28.21
-31.37
-34.17
-36.57
-38.73
-40.86
-43.21
-45.91
-48.95
-52.13
-55.04
-57.08
-57.53
-55.76
-51.4
-44.5
-35.51
-25.26
-14.71
-4.72
4.0
11.09
16.44
20.16
22.44
23.51
23.57
22.76
21.26
19.24
16.98
14.83
13.14
12.17
12.04
12.75
14.12
15.9
17.77
19.47
20.77
21.58
21.88
21.66
20.89
19.5
17.45
14.78
11.69
8.47
5.39
2.61
0.02
-2.62
-5.59
-9.04
-12.92
-16.98
-20.94
-24.58
-27.8
-30.71
-33.47
-36.33
-39.6
-43.61
-48.58
-54.47
-60.79
-66.52
-70.29
-70.81
-67.32
-59.89
-49.38
-37.16
-24.65
-12.89
-2.46
6.45
13.87
19.88
24.55
28.01
30.44
32.07
33.11
33.73
34.05
34.17
34.26
34.55
35.22
36.38
37.96
39.76
41.58
43.18
44.37
45.04
45.06
44.31
42.74
40.43
37.56
34.43
31.32
28.4
25.68
23.1
20.54
17.95
15.31
12.63
9.96
7.32
4.71
2.13
-0.47
-3.2
-6.18
-9.5
-13.1
-16.85
-20.56
-24.07
-27.38
-30.65
-34.17
-38.24
-43.19
-49.16
-55.97
-63.05
-69.32
-73.44
-74.1
-70.47
-62.46
-50.85
-37.02
-22.6
-9.04
2.63
11.89
18.67
23.25
26.09
27.71
28.58
29.1
29.52
30.01
30.67
31.58
32.81
34.39
36.3
38.45
40.72
42.94
44.96
46.64
47.85
48.48
48.48
47.8
46.5
44.67
42.44
39.98
37.44
34.94
32.57
30.41
28.53
26.96
25.69
24.58
23.5
22.29
20.9
19.4
17.95
16.69
15.61
14.53
13.16
11.22
8.57
5.28
1.6
-2.17
-5.73
-8.92
-11.71
-14.29
-16.96
-20.08
-23.99
-28.68
-33.76
-38.38
-41.37
-41.56
-38.18
-31.12
-21.06
-9.27
2.72
13.53
22.27
28.58
32.53
34.47
34.8
33.86
31.99
29.53
26.83
24.26
22.12
20.58
19.68
19.35
19.49
19.98
20.76
21.78
22.97
24.19
25.22
25.76
25.5
24.25
21.99
18.93
15.44
11.93
8.72
5.93
3.52
1.39
-0.52
-2.2
-3.54
-4.51
-5.11
-5.41
-5.53
-5.52
-5.41
-5.23
-5.1
-5.2
-5.73
-6.84
-8.53
-10.64
-12.97
-15.31
-17.57
-19.78
-22.09
-24.73
-27.93
-31.9
-36.63
-41.78
-46.58
-49.91
-50.64
-47.95
-41.7
-32.45
-21.33
-9.73
1.15
10.41
17.58
22.47
25.15
25.79
24.7
22.28
19.0
15.3
11.62
8.3
5.61
3.74
2.74
2.59
3.18
4.36
5.97
7.78
9.56
10.99
11.82
11.82
10.98
9.43
7.44
5.32
3.33
1.65
0.29
-0.79
-1.8
-2.89
-4.22
-5.85
-7.73
-9.74
-11.68
-13.35
-14.55
-15.19
-15.24
-14.82
-14.12
-13.38
-12.79
-12.44
-12.32
-12.38
-12.63
-13.15
-14.1
-15.64
-17.92
-21.0
-24.85
-29.27
-33.82
-37.76
-40.08
-39.8
-36.26
-29.38
-19.87
-8.96
1.86
11.34
18.68
23.62
26.35
27.19
26.6
24.91
22.42
19.44
16.28
13.3
10.82
9.08
8.15
7.93
8.21
8.79
9.57
10.47
11.51
12.64
13.66
14.32
14.39
13.78
12.56
10.98
9.26
7.54
5.88
4.22
2.5
0.69
-1.14
-2.89
-4.5
-5.94
-7.24
-8.4
-9.43
-10.29
-10.96
-11.47
-11.93
-12.56
-13.6
-15.19
-17.3
-19.79
-22.39
-24.92
-27.35
-29.84
-32.64
-36.07
-40.27
-45.14
-50.28
-54.9
-57.95
-58.37
-55.39
-48.78
-39.03
-27.23
-14.83
-3.23
6.5
13.77
18.48
20.88
21.37
20.47
18.63
16.26
13.71
11.26
9.16
7.52
6.43
5.9
5.96
6.56
7.62
9.01
10.54
11.96
13.04
13.59
13.5
12.79
11.55
9.9
7.93
5.73
3.38
0.96
-1.42
-3.64
-5.57
-7.21
-8.62
-10.02
-11.64
-13.67
-16.14
-18.86
-21.56
-23.95
-25.9
-27.52
-29.1
-31.09
-33.87
-37.74
-42.75
-48.71
-55.06
-60.95
-65.23
-66.79
-64.76
-58.9
-49.68
-38.17
-25.83
-14.03
-3.78
4.39
10.35
14.23
16.23
16.55
15.45
13.24
10.36
7.33
4.67
2.81
1.98
2.24
3.5
5.61
8.39
11.6
14.96
18.11
20.64
22.23
22.73
22.16
20.77
18.83
16.59
14.2
11.72
9.18
6.63
4.12
1.69
-0.66
-3.0
-5.39
-7.88
-10.52
-13.33
-16.32
-19.52
-22.89
-26.37
-29.88
-33.36
-36.92
-40.85
-45.61
-51.69
-59.33
-68.26
-77.58
-85.81
-91.21
-92.28
-88.23
-79.22
-66.28
-50.99
-35.08
-19.97
-6.64
4.42
13.06
19.4
23.73
26.46
28.09
29.07
29.78
30.4
30.99
31.56
32.15
32.88
33.95
35.59
37.95
41.0
44.49
47.98
50.92
52.82
53.36
52.49
50.45
47.59
44.41
41.25
38.33
35.64
33.06
30.33
27.29
23.91
20.29
16.65
13.24
10.18
7.46
4.91
2.25
-0.8
-4.42
-8.66
-13.39
-18.38
-23.34
-28.09
-32.65
-37.35
-42.73
-49.39
-57.69
-67.37
-77.4
-86.08
-91.41
-91.65
-85.96
-74.6
-58.93
-40.9
-22.55
-5.49
9.28
21.39
30.88
38.02
43.22
46.93
49.56
51.46
52.83
53.76
54.26
54.37
54.21
54.05
54.23
55.05
56.67
58.97
61.6
63.99
65.59
65.98
65.05
62.97
60.14
56.96
53.76
50.73
47.83
44.96
41.97
38.79
35.49
32.19
29.1
26.3
23.79
21.44
19.04
16.38
13.34
9.92
6.16
2.19
-1.9
-6.03
-10.2
-14.5
-19.04
-23.92
-29.16
-34.66
-40.17
-45.43
-50.24
-54.65
-58.95
-63.65
-69.25
-76.0
-83.63
-91.3
-97.72
-101.43
-101.26
-96.58
-87.55
-75.11
-60.72
-46.0
-32.25
-20.11
-9.52
0.09
9.42
19.02
29.15
39.91
51.35
63.43
75.92
88.08
98.75
106.5
110.26
109.73
105.51
98.86
91.17
83.43
76.12
69.31
62.96
57.09
51.9
47.6
44.28
41.84
40.05
38.57
37.16
35.68
34.05
32.3
30.4
28.36
26.11
23.59
20.74
17.55
14.05
10.23
6.13
1.72
-2.96
-7.84
-12.72
-17.48
-22.05
-26.55
-31.3
-36.58
-42.52
-48.8
-54.6
-58.76
-60.02
-57.5
-50.93
-40.8
-28.24
-14.64
-1.41
10.42
20.2
27.74
33.11
36.56
38.44
39.13
38.98
38.37
37.6
36.9
36.48
36.44
36.82
37.59
38.65
39.92
41.25
42.52
43.54
44.11
44.07
43.28
41.71
39.41
36.51
33.19
29.65
26.04
22.51
19.15
15.98
13.03
10.29
7.8
5.59
3.73
2.18
0.85
-0.38
-1.6
-2.82
-4.02
-5.2
-6.48
-8.03
-10.01
-12.48
-15.28
-18.16
-20.82
-23.13
-25.11
-26.96
-28.94
-31.31
-34.33
-38.11
-42.51
-47.0
-50.58
-52.06
-50.35
-44.9
-36.02
-24.78
-12.69
-1.25
8.47
15.96
21.2
24.45
26.11
26.5
25.89
24.51
22.55
20.25
17.9
15.81
14.24
13.34
13.17
13.66
14.7
16.18
17.99
19.97
21.81
23.09
23.39
22.5
20.49
17.74
14.74
11.88
9.35
7.07
4.84
2.49
-0.01
-2.58
-5.06
-7.27
-9.13
-10.65
-11.91
-13.08
-14.36
-15.94
-17.91
-20.24
-22.72
-25.13
-27.34
-29.38
-31.49
-34.09
-37.5
-41.9
-47.06
-52.3
-56.56
-58.69
-57.71
-53.12
-45.14
-34.61
-22.83
-11.17
-0.78
7.62
13.75
17.64
19.52
19.69
18.51
16.44
14.0
11.74
10.04
9.11
8.89
9.18
9.79
10.61
11.69
13.1
14.81
16.63
18.22
19.21
19.3
18.37
16.5
13.96
11.13
8.38
6.04
4.28
3.12
2.47
2.19
2.15
2.17
2.12
1.84
1.17
0.05
-1.49
-3.29
-5.09
-6.7
-8.04
-9.26
-10.67
-12.57
-15.17
-18.43
-22.09
-25.77
-29.16
-32.13
-34.74
-37.16
-39.64
-42.38
-45.6
-49.48
-53.99
-58.79
-63.1
-65.75
-65.55
-61.72
-54.18
-43.64
-31.34
-18.7
-6.96
3.07
10.99
16.78
20.64
22.96
24.17
24.75
25.01
25.15
25.22
25.23
25.21
25.23
25.37
25.66
26.07
26.52
26.97
27.38
27.75
28.03
28.11
27.82
26.99
25.6
23.74
21.7
19.73
18.03
16.62
15.41
14.26
13.06
11.77
10.46
9.21
8.1
7.19
6.5
6.0
5.58
5.05
4.22
2.95
1.23
-0.82
-3.02
-5.21
-7.35
-9.47
-11.69
-14.1
-16.76
-19.6
-22.5
-25.32
-27.93
-30.3
-32.5
-34.78
-37.5
-41.1
-45.86
-51.65
-57.83
-63.17
-66.2
-65.63
-60.76
-51.81
-39.9
-26.65
-13.69
-2.3
6.9
13.79
18.58
21.6
23.22
23.82
23.81
23.59
23.48
23.68
24.19
24.89
25.63
26.32
26.99
27.78
28.84
30.25
31.93
33.65
35.06
35.8
35.58
34.32
32.15
29.29
26.1
22.89
19.87
17.15
14.75
12.59
10.58
8.64
6.69
4.71
2.72
0.75
-1.17
-2.97
-4.61
-6.05
-7.32
-8.49
-9.67
-11.0
-12.58
-14.44
-16.46
-18.46
-20.31
-21.93
-23.35
-24.74
-26.3
-28.2
-30.59
-33.62
-37.44
-41.97
-46.81
-51.07
-53.56
-53.08
-48.92
-41.12
-30.56
-18.63
-6.79
3.81
12.49
19.0
23.4
25.91
26.8
26.41
25.1
23.25
21.21
19.25
17.62
16.53
16.13
16.47
17.48
19.0
20.82
22.74
24.61
26.31
27.71
28.63
28.89
28.34
26.95
24.85
22.34
19.8
17.55
15.74
14.31
13.02
11.59
9.82
7.69
5.37
3.11
1.1
-0.57
-1.98
-3.34
-4.82
-6.61
-8.78
-11.37
-14.39
-17.77
-21.36
-24.98
-28.4
-31.52
-34.43
-37.47
-41.06
-45.5
-50.77
-56.3
-61.06
-63.76
-63.24
-58.85
-50.67
-39.47
-26.57
-13.47
-1.46
8.54
16.15
21.42
24.68
26.42
27.03
26.9
26.33
25.57
24.88
24.43
24.26
24.25
24.24
24.13
23.99
23.99
24.37
25.17
26.23
27.21
27.72
27.5
26.53
24.96
23.07
21.05
19.05
17.13
15.29
13.51
11.82
10.21
8.71
7.35
6.12
5.0
3.91
2.81
1.61
0.23
-1.41
-3.35
-5.52
-7.81
-10.05
-12.08
-13.88
-15.6
-17.48
-19.74
-22.49
-25.63
-28.94
-32.11
-34.97
-37.47
-39.76
-42.1
-44.85
-48.31
-52.61
-57.53
-62.43
-66.21
-67.6
-65.52
-59.4
-49.46
-36.68
-22.55
-8.59
3.89
14.11
21.73
26.78
29.6
30.66
30.54
29.84
29.08
