35.8
36.07
35.45
34.08
32.22
30.13
27.98
25.83
23.7
21.61
19.63
17.84
16.29
14.9
13.57
12.17
10.61
8.81
6.74
4.45
2.01
-0.42
-2.76
-4.99
-7.23
-9.67
-12.53
-15.84
-19.5
-23.23
-26.73
-29.86
-32.6
-35.12
-37.7
-40.63
-44.24
-48.73
-54.11
-59.97
-65.45
-69.28
-70.09
-66.86
-59.36
-48.26
-35.04
-21.46
-9.09
1.12
8.9
14.47
18.3
20.83
22.38
23.16
23.36
23.18
22.87
22.62
22.57
22.77
23.19
23.8
24.54
25.36
26.2
27.03
27.77
28.35
28.64
28.49
27.78
26.51
24.81
22.95
21.19
19.67
18.36
17.14
15.82
14.33
12.73
11.16
9.74
8.52
7.4
6.21
4.83
3.17
1.26
-0.81
-2.93
-5.07
-7.27
-9.66
-12.39
-15.53
-19.04
-22.72
-26.35
-29.69
-32.62
-35.14
-37.4
-39.74
-42.6
-46.41
-51.38
-57.25
-63.12
-67.58
-69.12
-66.59
-59.74
-49.26
-36.61
-23.49
-11.39
-1.22
6.74
12.63
16.85
19.77
21.69
22.83
23.41
23.63
23.73
23.92
24.33
24.98
25.83
26.77
27.71
28.62
29.49
30.31
31.05
31.67
32.06
32.12
31.74
30.86
29.47
27.68
25.62
23.5
21.43
19.44
17.51
15.58
13.69
11.99
10.59
9.54
8.68
7.7
6.3
4.38
2.04
-0.38
-2.56
-4.38
-6.0
-7.84
-10.34
-13.75
-17.99
-22.68
-27.27
-31.34
-34.71
-37.52
-40.18
-43.21
-47.07
-52.03
-57.98
-64.38
-70.22
-74.2
-75.03
-71.77
-64.2
-52.92
-39.22
-24.75
-11.09
0.62
9.78
16.37
20.68
23.21
24.42
24.73
24.46
23.85
23.12
22.41
21.9
21.68
21.8
22.27
23.08
24.24
25.75
27.57
29.56
31.44
32.84
33.39
32.92
31.45
29.29
26.85
24.49
22.38
20.56
18.91
17.32
15.74
14.16
12.65
11.21
9.86
8.62
7.45
6.29
5.1
3.8
2.33
0.73
-0.94
-2.65
-4.44
-6.48
-8.97
-12.05
-15.73
-19.82
-24.02
-28.1
-31.92
-35.53
-39.14
-43.07
-47.66
-53.16
-59.53
-66.32
-72.5
-76.63
-77.28
-73.47
-65.09
-53.0
-38.8
-24.29
-11.02
0.1
8.75
15.08
19.39
21.98
23.12
23.11
22.33
21.21
20.19
19.58
19.47
19.79
20.4
21.21
22.23
23.56
25.23
27.16
29.04
30.53
31.3
31.2
30.24
28.57
26.39
23.89
21.21
18.47
15.71
12.94
10.12
7.24
4.33
1.49
-1.15
-3.5
-5.57
-7.5
-9.51
-11.83
-14.6
-17.76
-21.16
-24.56
-27.72
-30.52
-32.98
-35.38
-38.14
-41.79
-46.67
-52.76
-59.5
-65.77
-70.11
-71.1
-67.79
-60.08
-48.68
-34.98
-20.61
-7.03
4.75
14.27
21.52
26.77
30.33
32.48
33.42
33.33
32.43
31.07
29.62
28.45
27.84
27.89
28.58
29.8
31.42
33.29
35.28
37.2
38.77
39.67
39.62
38.47
36.26
33.23
29.77
26.34
23.26
20.65
18.42
16.3
14.0
11.35
8.37
5.3
2.44
0.0
-1.98
-3.73
-5.64
-8.09
-11.33
-15.31
-19.8
-24.46
-29.02
-33.31
-37.36
-41.32
-45.4
-49.9
-55.14
-61.39
-68.59
-76.16
-82.92
-87.21
-87.49
-82.74
-73.01
-59.4
-43.7
-27.82
-13.34
-1.15
8.52
15.79
20.99
24.47
26.56
27.62
28.06
28.28
28.59
29.12
29.84
30.6
31.27
31.87
32.57
33.62
35.22
37.37
39.83
42.13
43.83
44.54
44.1
42.59
40.21
37.3
34.14
31.0
28.06
25.41
23.04
20.89
18.83
16.72
14.48
12.1
9.65
7.25
4.98
2.82
0.6
-1.91
-4.95
-8.65
-12.96
-17.72
-22.6
-27.28
-31.52
-35.25
-38.57
-41.83
-45.46
-49.95
-55.59
-62.34
-69.55
-76.03
-80.26
-80.74
-76.53
-67.56
-54.78
-39.83
-24.61
-10.7
0.98
10.17
17.15
22.4
26.41
29.54
32.03
34.02
35.62
36.93
38.01
38.91
39.7
40.45
41.26
42.26
43.53
45.08
46.82
48.59
50.14
51.18
51.51
50.98
49.62
47.55
44.96
42.11
39.2
36.41
33.81
31.39
29.06
26.75
24.33
21.73
18.92
15.98
13.01
10.15
7.53
5.2
3.1
1.11
-0.99
-3.39
-6.28
-9.72
-13.66
-17.92
-22.22
-26.24
-29.83
-32.98
-35.91
-39.06
-42.94
-47.92
-54.07
-60.92
-67.43
-72.14
-73.55
-70.61
-63.07
-51.68
-37.88
-23.43
-9.9
1.65
10.8
17.63
22.56
26.1
28.74
30.83
32.55
33.94
34.92
35.46
35.63
35.62
35.7
36.07
36.83
37.89
39.12
40.32
41.34
42.06
42.35
42.09
41.19
39.63
37.54
35.18
32.89
30.87
29.19
27.7
26.15
24.37
22.29
20.0
17.68
15.48
13.45
11.54
9.64
7.7
5.75
3.87
2.19
0.74
-0.57
-1.95
-3.64
-5.79
-8.43
-11.36
-14.34
-17.16
-19.71
-22.08
-24.51
-27.34
-30.92
-35.51
-41.07
-47.12
-52.71
-56.56
-57.45
-54.66
-48.24
-39.01
-28.31
-17.52
-7.75
0.43
6.87
11.66
15.02
17.15
18.21
18.4
17.94
17.05
15.98
14.94
14.1
13.58
13.49
13.84
14.64
15.85
17.39
19.15
20.96
22.6
23.82
24.42
24.28
23.41
21.99
20.24
18.45
16.81
15.39
14.14
12.93
11.6
10.06
8.29
6.39
4.49
2.66
0.82
-1.25
-3.8
-7.0
-10.73
-14.68
-18.39
-21.53
-23.99
-26.01
-27.97
-30.32
-33.41
-37.42
-42.33
-47.83
-53.28
-57.69
-59.84
-58.66
-53.62
-44.95
-33.64
-21.19
-9.12
1.38
9.69
15.73
19.78
22.27
23.57
23.99
23.75
23.11
22.29
21.6
21.27
21.44
22.11
23.13
24.32
25.52
26.71
27.89
29.05
30.08
30.74
30.77
29.96
28.3
25.98
23.35
20.76
18.46
16.52
14.88
13.41
12.02
10.72
9.59
8.75
8.28
8.17
8.29
8.38
8.17
7.4
5.96
3.89
1.34
-1.43
-4.14
-6.68
-9.05
-11.45
-14.14
-17.38
-21.28
-25.7
-30.33
-34.76
-38.66
-41.9
-44.59
-47.12
-49.99
-53.68
-58.47
-64.26
-70.44
-75.9
-79.27
-79.21
-74.89
-66.29
-54.27
-40.33
-26.21
-13.41
-2.92
4.98
10.52
14.27
16.85
18.73
20.21
21.37
22.25
22.92
23.49
24.12
24.84
25.63
26.37
27.01
27.54
28.09
28.74
29.54
30.37
31.02
31.28
31.0
30.19
28.91
27.29
25.43
23.42
21.34
19.22
17.11
15.06
13.13
11.4
9.98
8.93
8.24
7.8
7.34
6.61
5.32
3.43
1.03
-1.6
-4.13
-6.32
-8.07
-9.57
-11.12
-13.13
-15.89
-19.53
-23.87
-28.54
-33.08
-37.12
-40.56
-43.59
-46.68
-50.39
-55.17
-61.17
-67.99
-74.71
-79.97
-82.28
-80.45
-74.01
-63.37
-49.79
-35.0
-20.72
-8.27
1.67
9.01
14.11
17.49
19.68
21.11
22.07
22.75
23.24
23.62
23.93
24.21
24.46
24.73
25.12
25.79
26.93
28.68
30.98
33.52
35.76
37.11
37.15
35.82
33.39
30.37
27.3
24.56
22.27
20.3
18.44
16.52
14.46
12.35
10.32
8.47
6.81
5.22
3.49
1.4
-1.21
-4.42
-8.16
-12.22
-16.3
-20.09
-23.36
-25.99
-27.99
-29.52
-30.82
-32.13
-33.63
-35.41
-37.39
-39.36
-41.11
-42.59
-44.04
-46.0
-49.11
-53.81
-59.95
-66.59
-72.16
-74.84
-73.21
-66.7
-55.84
-41.98
-26.87
-12.18
0.98
12.05
21.0
28.1
33.7
38.14
41.67
44.52
46.83
48.7
50.16
51.24
51.97
52.47
52.92
53.54
54.59
56.17
58.26
60.65
63.02
64.97
66.1
66.13
64.93
62.53
59.15
55.14
50.85
46.58
42.47
38.47
34.45
30.32
26.06
21.82
17.86
14.42
11.59
9.27
7.19
4.95
2.3
-0.84
-4.31
-7.78
-10.99
-13.83
-16.49
-19.28
-22.51
-26.33
-30.62
-35.07
-39.36
-43.31
-46.97
-50.6
-54.58
-59.3
-65.02
-71.73
-78.98
-85.81
-90.83
-92.54
-89.77
-82.13
-70.21
-55.48
-39.78
-24.81
-11.67
-0.82
7.76
14.25
18.85
21.7
22.97
23.03
22.37
21.48
20.72
20.3
20.2
20.36
20.76
21.47
22.62
24.32
26.58
29.24
31.95
34.25
35.69
35.92
34.86
32.71
29.82
26.63
23.47
20.45
17.52
14.56
11.51
8.41
5.4
2.62
0.17
-1.99
-3.99
-6.09
-8.5
-11.39
-14.82
-18.69
-22.82
-26.99
-31.07
-35.05
-39.17
-43.87
-49.62
-56.7
-64.89
-73.25
-80.23
-84.0
-83.04
-76.61
-65.09
-49.89
-32.97
-16.27
-1.29
11.17
20.9
28.08
33.09
36.32
38.18
39.03
39.21
38.96
38.52
37.99
37.5
37.19
37.19
37.7
38.81
40.5
42.63
44.92
46.99
48.46
49.05
48.61
47.2
45.02
42.32
39.4
36.45
33.6
30.9
28.32
25.85
23.43
21.02
18.57
16.05
13.39
10.54
7.5
4.33
1.15
-1.92
-4.87
-7.81
-10.94
-14.48
-18.53
-22.97
-27.58
-32.07
-36.32
-40.35
-44.32
-48.48
-53.1
-58.5
-64.97
-72.56
-80.88
-88.77
-94.48
-96.07
-92.1
-82.28
-67.58
-50.02
-31.92
-15.19
-0.96
10.43
19.19
25.7
30.36
33.52
35.55
36.84
37.75
38.53
39.25
39.88
40.33
40.63
40.9
41.37
42.28
43.76
45.75
47.97
50.03
51.48
51.97
51.36
49.7
47.23
44.3
41.25
38.33
35.64
33.19
30.87
28.6
26.39
24.28
22.4
20.78
19.39
18.03
16.47
14.51
12.08
9.22
6.14
3.04
0.05
-2.81
-5.69
-8.85
-12.51
-16.75
-21.46
-26.35
-31.09
-35.51
-39.62
-43.61
-47.82
-52.53
-58.0
-64.37
-71.55
-79.02
-85.75
-90.23
-90.86
-86.45
-76.72
-62.47
-45.42
-27.65
-11.04
3.15
14.34
22.53
28.11
31.63
33.77
35.09
36.05
36.86
37.48
37.75
37.55
36.91
35.99
35.14
34.71
34.94
35.87
37.33
39.01
40.52
41.53
41.75
41.13
39.75
37.81
35.62
33.49
31.66
30.21
29.1
28.09
26.92
25.37
23.41
21.2
19.01
17.16
15.73
14.61
13.5
12.05
10.06
7.55
4.82
2.16
-0.18
-2.22
-4.15
-6.33
-9.06
-12.44
-16.41
-20.68
-24.97
-29.06
-32.88
-36.56
-40.39
-44.78
-50.06
-56.41
-63.57
-70.74
-76.65
-79.72
-78.64
-72.72
-62.26
-48.45
-33.05
-17.88
-4.34
6.83
15.5
21.91
26.45
29.48
31.29
32.11
32.18
31.76
31.08
30.31
29.51
28.74
28.06
27.61
27.64
28.36
29.88
32.04
34.47
36.6
37.94
38.12
37.06
34.93
32.06
28.77
25.37
22.03
18.81
15.64
12.4
9.04
5.56
2.18
-0.82
-3.17
-4.81
-5.94
-6.99
-8.45
-10.64
-13.63
-17.18
-20.93
-24.5
-27.7
-30.62
-33.6
-37.16
-41.8
-47.67
-54.37
-60.81
-65.48
-66.79
-63.72
-56.14
-44.88
-31.44
-17.5
-4.45
6.8
15.87
22.73
27.56
30.63
32.27
32.81
32.52
31.63
30.31
28.75
27.19
25.89
25.07
24.79
24.99
25.47
26.08
26.73
27.43
28.17
28.83
29.15
28.83
27.67
25.71
23.24
20.65
18.32
16.4
14.82
13.4
11.93
10.27
8.39
6.32
4.08
1.72
-0.69
-3.06
-5.31
-7.48
-9.69
-12.23
-15.33
-19.1
-23.39
-27.86
-32.1
-35.84
-39.03
-41.94
-45.03
-48.85
-53.81
-60.01
-67.01
-73.8
-78.92
-80.73
-77.99
-70.25
-58.11
-43.1
-27.16
-12.15
0.65
10.66
17.91
22.79
25.84
27.6
28.51
28.94
29.13
29.2
29.18
29.02
28.64
28.03
27.25
26.48
25.98
26.0
26.67
27.97
29.68
31.34
32.54
32.86
32.14
30.46
28.17
25.7
23.5
21.78
20.49
19.38
18.06
16.32
14.17
11.88
9.79
8.12
6.84
5.65
4.21
2.26
-0.22
-3.04
-5.9
-8.6
-11.14
-13.68
-16.45
-19.6
-23.12
-26.86
-30.58
-34.15
-37.55
-40.83
-44.13
-47.55
-51.33
-55.75
-61.06
-67.24
-73.76
-79.42
-82.6
-81.72
-75.84
-65.1
-50.66
-34.36
-18.11
-3.38
9.0
18.8
26.12
31.19
34.36
35.99
36.56
36.56
36.39
36.29
36.29
36.25
36.01
35.5
34.84
34.27
34.09
34.47
35.42
36.71
37.98
38.79
38.84
38.03
36.46
34.32
31.87
29.32
26.81
24.38
22.0
19.57
17.01
14.32
11.59
9.03
6.8
4.99
3.47
1.99
0.3
-1.79
-4.24
-6.86
-9.46
-11.94
-14.39
-16.98
-19.91
-23.26
-26.96
-30.84
-34.67
-38.32
-41.78
-45.16
-48.68
-52.68
-57.52
-63.49
-70.63
-78.45
-85.82
-91.07
-92.46
-88.72
-79.55
-65.81
-49.26
-32.01
-15.95
-2.29
8.43
16.25
21.53
24.72
26.31
26.8
26.68
26.32
26.02
25.86
25.82
25.87
26.0
26.35
27.17
28.71
31.04
34.01
37.22
40.1
42.13
43.01
42.68
41.34
39.3
36.81
34.08
31.23
28.36
25.58
23.06
20.96
19.35
18.23
17.44
16.77
15.99
14.91
13.47
11.75
9.85
7.85
5.75
3.42
0.7
-2.56
-6.36
-10.6
-15.07
-19.58
-23.95
-28.12
-32.07
-35.9
-39.79
-44.1
-49.25
-55.58
-63.07
-71.06
-78.19
-82.75
-83.14
-78.47
-68.91
-55.59
-40.25
-24.7
-10.36
1.91
11.73
19.11
24.2
27.27
28.7
28.92
28.42
27.59
26.74
26.05
25.62
25.57
26.01
27.06
28.82
31.25
34.15
37.17
39.9
41.92
42.91
42.68
41.21
38.62
35.14
31.06
26.7
22.31
18.09
14.15
10.57
7.44
4.85
2.82
1.26
-0.12
-1.7
-3.8
-6.57
-9.91
-13.49
-16.94
-20.11
-23.07
-26.14
-29.83
-34.54
-40.46
-47.33
-54.38
-60.43
-64.07
-64.05
-59.66
-50.97
-38.85
-24.77
-10.35
3.0
14.4
23.47
30.24
34.93
37.75
38.93
38.7
37.39
35.42
33.24
31.26
29.73
28.76
28.34
28.47
29.17
30.48
32.36
34.56
36.69
38.26
38.82
38.19
36.45
33.9
30.91
27.78
24.63
21.46
18.23
14.88
11.44
7.99
4.66
1.57
-1.1
-3.29
-5.01
-6.49
-8.12
-10.35
-13.53
-17.73
-22.7
-27.94
-32.96
-37.42
-41.28
-44.87
-48.78
-53.7
-60.15
-68.2
-77.13
-85.43
-91.04
-91.92
-86.87
-75.97
-60.78
-43.84
-27.89
-14.99
-6.1
-1.0
1.35
2.17
2.46
2.61
2.51
1.63
-0.57
-4.38
-9.62
-15.61
-21.38
-25.91
-28.52
-29.01
-27.95
-26.73
-27.35
-31.81
-41.04
-54.06
-67.55
-76.72
-77.01
-66.04
-44.85
-17.55
10.15
33.2
48.68
56.32
57.73
55.4
51.97
49.91
51.37
57.65
68.51
81.69
93.38
99.45
97.2
86.43
69.46
50.02
31.76
17.05
6.65
0.17
-3.29
-4.68
-4.89
-4.91
-5.88
-8.87
-14.44
-22.38
-31.63
-40.47
-47.03
-49.86
-48.37
-42.93
-34.74
-25.32
-16.05
-7.83
-1.0
4.58
9.22
13.2
16.66
19.59
21.97
23.87
25.47
27.13
29.17
31.75
34.81
38.05
41.02
43.41
45.09
46.2
47.01
47.73
48.41
48.91
49.03
48.6
47.57
46.02
44.05
41.87
39.66
37.63
35.99
34.84
34.18
33.77
33.28
32.32
30.6
28.01
24.67
20.86
16.93
13.27
10.13
7.61
5.59
3.75
1.72
-0.84
-4.02
-7.72
-11.63
-15.47
-19.05
-22.32
-25.42
-28.53
-31.91
-35.74
-40.15
-44.98
-49.72
-53.47
-55.14
-53.79
-48.99
-40.98
-30.7
-19.39
-8.35
1.44
9.41
15.36
19.35
21.61
22.42
22.01
20.58
18.29
15.35
12.09
8.88
6.12
4.04
2.68
1.81
1.19
0.64
0.16
-0.14
-0.18
-0.09
-0.33
-1.51
-4.19
-8.49
-13.97
-19.58
-23.97
-25.82
-24.14
-18.39
-8.52
5.04
21.4
39.06
56.04
70.17
79.57
83.23
81.33
75.13
66.47
57.12
48.28
40.49
33.79
28.02
23.06
18.85
15.36
12.36
9.49
6.25
2.27
-2.66
-8.5
-15.04
-21.95
-28.81
-35.09
-40.12
-43.13
-43.45
-40.73
-35.13
-27.33
-18.4
-9.52
-1.73
4.32
8.42
10.71
11.59
11.54
10.99
10.22
9.41
8.6
7.86
7.25
6.83
6.59
6.49
6.43
6.32
6.23
6.35
6.89
7.94
9.38
10.82
11.83
12.11
11.61
10.58
9.45
8.58
8.14
8.08
8.11
7.96
7.37
6.29
4.8
3.17
1.68
0.52
-0.28
-0.89
-1.6
-2.69
-4.33
-6.49
-9.03
-11.72
-14.33
-16.73
-18.89
-20.92
-23.0
-25.35
-28.13
-31.38
-34.91
-38.24
-40.68
-41.47
-39.99
-35.91
-29.42
-21.11
-11.94
-2.92
5.05
11.41
15.91
18.58
19.66
19.4
18.07
15.97
13.42
10.83
8.65
7.27
6.86
7.4
8.61
10.12
11.63
12.94
14.03
14.98
15.84
16.51
16.8
16.45
15.31
13.42
10.98
8.29
5.58
2.94
0.35
-2.26
-4.86
-7.32
-9.42
-11.09
-12.39
-13.56
-14.88
-16.54
-18.58
-20.9
-23.31
-25.6
-27.66
-29.46
-31.11
-32.86
-35.06
-38.05
-41.98
-46.64
-51.31
-54.89
-56.16
-54.24
-48.89
-40.65
-30.72
-20.44
-11.02
-3.15
2.98
7.51
10.73
12.89
14.19
14.8
14.93
14.83
14.71
14.69
14.78
14.94
15.11
15.27
15.48
15.78
16.26
16.94
17.84
18.87
19.86
20.6
20.89
20.55
19.57
18.03
16.15
14.22
12.47
11.04
9.89
8.86
7.72
6.27
4.46
2.31
-0.01
-2.36
-4.63
-6.71
-8.61
-10.35
-12.07
-13.96
-16.3
-19.26
-22.87
-26.95
-31.14
-35.1
-38.66
-41.9
-45.07
-48.52
-52.48
-57.06
-62.16
-67.47
-72.41
-76.08
-77.42
-75.42
-69.55
-59.99
-47.68
-34.07
-20.7
-8.73
1.18
8.95
14.81
19.03
21.9
23.57
24.23
24.05
23.26
22.06
20.64
19.19
17.88
16.9
16.48
16.77
17.88
19.78
22.27
25.06
27.75
29.95
31.4
32.01
31.87
31.16
30.07
28.74
27.18
25.37
23.25
20.89
18.44
16.08
13.98
12.23
10.81
9.64
8.57
7.44
6.14
4.53
2.56
0.23
-2.38
-5.18
-8.1
-11.19
-14.55
-18.26
-22.27
-26.32
-30.06
-33.17
-35.64
-37.75
-40.08
-43.24
-47.68
-53.48
-60.19
-66.87
-72.23
-74.9
-73.78
-68.42
-59.16
-47.04
-33.55
-20.15
-7.99
2.26
10.38
16.46
20.78
23.64
25.44
26.54
27.26
27.81
28.27
28.69
29.11
29.58
30.15
30.94
32.01
33.42
35.19
37.18
39.19
40.86
41.81
41.71
40.46
38.19
35.26
32.12
29.15
26.6
24.52
22.82
21.38
20.1
18.94
17.89
16.98
16.23
15.61
15.0
14.24
13.2
11.74
9.85
7.59
5.1
2.47
-0.28
-3.28
-6.68
-10.57
-14.88
-19.39
-23.77
-27.73
-31.13
-34.02
-36.66
-39.47
-42.89
-47.4
-53.24
-60.25
-67.66
-74.13
-78.03
-77.93
-73.19
-64.14
-52.01
-38.45
-25.09
-13.08
-3.04
4.88
10.77
14.86
17.44
18.79
19.23
19.05
18.53
17.9
17.36
17.04
16.99
17.23
17.79
18.72
20.1
21.95
24.08
26.07
27.32
27.23
25.45
21.96
17.17
11.65
6.0
0.65
-4.2
-8.59
-12.7
-16.79
-21.01
-25.27
-29.11
-31.73
-32.07
-29.2
-22.63
-12.63
-0.23
13.03
25.55
36.03
43.71
48.37
50.14
49.24
45.87
40.2
32.44
22.88
11.92
0.07
-12.07
-23.76
-34.06
-41.92
-46.27
-46.38
-42.05
-33.9
-23.19
-11.51
-0.43
8.93
16.02
20.77
23.43
24.4
24.11
22.99
21.53
20.16
19.24
19.02
19.59
20.92
22.89
25.34
28.03
30.74
33.2
35.19
36.58
37.28
37.25
36.52
35.14
33.25
31.05
28.76
26.59
24.65
22.95
21.39
19.8
18.05
16.0
13.58
10.73
7.49
3.9
0.07
-3.92
-7.91
-11.79
-15.46
-18.88
-22.12
-25.39
-29.07
-33.58
-39.21
-45.82
-52.74
-58.79
-62.54
-62.74
-58.71
-50.59
-39.24
-26.02
-12.45
0.13
10.75
18.89
24.5
27.79
29.18
29.1
27.94
25.96
23.4
20.55
