17.97
14.15
10.56
7.24
4.1
1.04
-2.05
-5.27
-8.65
-12.13
-15.61
-18.97
-22.07
-24.87
-27.48
-30.24
-33.69
-38.36
-44.51
-51.77
-59.06
-64.74
-67.11
-64.9
-57.74
-46.26
-31.83
-16.17
-0.86
12.93
24.5
33.58
40.18
44.47
46.72
47.29
46.49
44.67
42.18
39.38
36.75
34.75
33.8
34.16
35.83
38.58
41.95
45.41
48.41
50.54
51.48
51.06
49.31
46.37
42.46
37.89
32.99
28.09
23.45
19.27
15.58
12.25
9.02
5.58
1.75
-2.55
-7.2
-12.01
-16.79
-21.4
-25.78
-29.93
-33.89
-37.82
-41.99
-46.86
-52.8
-59.87
-67.55
-74.63
-79.45
-80.4
-76.48
-67.64
-54.87
-39.76
-24.15
-9.56
3.04
13.24
21.06
26.75
30.65
33.13
34.56
35.27
35.55
35.63
35.66
35.8
36.18
36.88
37.97
39.46
41.31
43.47
45.8
48.06
49.91
50.95
50.86
49.51
47.06
43.89
40.48
37.23
34.28
31.56
28.82
25.75
22.19
18.14
13.83
9.64
5.96
3.02
0.78
-1.13
-3.22
-5.94
-9.48
-13.65
-18.13
-22.55
-26.77
-30.85
-35.0
-39.48
-44.52
-50.36
-57.13
-64.73
-72.51
-79.26
-83.36
-83.23
-78.03
-67.91
-54.12
-38.52
-22.95
-8.76
3.37
13.26
20.98
26.67
30.47
32.59
33.39
33.31
32.78
32.14
31.62
31.33
31.32
31.67
32.41
33.58
35.16
37.06
39.17
41.32
43.25
44.65
45.19
44.63
42.93
40.28
37.03
33.61
30.37
27.49
24.94
22.55
20.07
17.34
14.3
11.05
7.84
4.96
2.64
0.89
-0.53
-2.15
-4.5
-7.92
-12.42
-17.61
-22.95
-27.91
-32.28
-36.16
-39.94
-44.11
-49.11
-55.16
-62.14
-69.5
-76.2
-80.82
-81.93
-78.48
-70.27
-58.14
-43.69
-28.92
-15.58
-4.81
2.97
7.9
10.44
11.16
10.63
9.39
7.96
6.79
6.17
6.21
6.88
8.12
9.88
12.16
14.96
18.23
21.8
25.43
28.85
31.8
34.1
35.6
36.19
35.84
34.65
32.81
30.69
28.6
26.78
25.27
23.93
22.5
20.77
18.66
16.38
14.26
12.64
11.62
10.98
10.22
8.8
6.37
2.93
-1.19
-5.52
-9.66
-13.43
-16.88
-20.19
-23.6
-27.31
-31.55
-36.43
-41.88
-47.44
-52.16
-54.84
-54.29
-49.83
-41.57
-30.44
-17.88
-5.47
5.55
14.5
21.18
25.78
28.71
30.4
31.26
31.56
31.45
30.93
30.02
28.79
27.48
26.48
26.18
26.86
28.65
31.41
34.9
38.73
42.39
45.3
46.9
46.81
44.95
41.59
37.22
32.35
27.37
22.45
17.59
12.79
8.07
3.56
-0.53
-4.07
-7.0
-9.45
-11.61
-13.7
-15.88
-18.21
-20.64
-23.05
-25.38
-27.63
-29.93
-32.46
-35.46
-39.15
-43.57
-48.46
-53.14
-56.53
-57.46
-55.04
-49.04
-40.07
-29.39
-18.5
-8.7
-0.78
4.98
8.69
10.64
11.2
10.7
9.5
7.9
6.18
4.57
3.23
2.3
1.89
2.02
2.71
3.86
5.43
7.32
9.53
12.07
14.84
17.64
20.1
21.84
22.57
22.21
20.93
19.03
16.84
14.57
12.31
10.03
7.65
5.09
2.25
-0.89
-4.32
-7.91
-11.44
-14.67
-17.38
-19.55
-21.35
-23.17
-25.48
-28.75
-33.24
-38.87
-45.04
-50.69
-54.52
-55.3
-52.35
-45.72
-36.21
-25.1
-13.78
-3.38
5.44
12.48
17.89
21.96
24.98
27.09
28.38
28.9
28.77
28.2
27.45
26.76
26.22
25.82
25.46
25.08
24.7
24.35
24.05
23.67
23.02
21.97
20.5
18.73
16.84
14.98
13.23
11.63
10.2
8.94
7.89
6.96
6.01
4.88
3.39
1.54
-0.54
-2.64
-4.62
-6.44
-8.3
-10.52
-13.37
-17.04
-21.47
-26.36
-31.29
-35.86
-39.78
-43.03
-45.86
-48.72
-52.19
-56.75
-62.62
-69.47
-76.35
-81.85
-84.44
-83.01
-77.21
-67.63
-55.53
-42.43
-29.69
-18.19
-8.36
-0.31
6.02
10.79
14.26
16.83
18.94
20.88
22.75
24.46
25.82
26.79
27.45
28.1
29.04
30.46
32.34
34.49
36.66
38.59
40.11
41.11
41.47
41.18
40.21
38.66
36.72
34.58
32.43
30.36
28.37
26.4
24.39
22.32
20.21
18.12
16.05
13.98
11.86
9.67
7.45
5.26
3.12
0.94
-1.47
-4.35
-7.82
-11.89
-16.36
-20.92
-25.27
-29.2
-32.75
-36.12
-39.71
-44.01
-49.42
-56.11
-63.7
-71.24
-77.25
-80.16
-78.74
-72.59
-62.28
-49.22
-35.17
-21.7
-9.9
-0.13
7.69
13.87
18.7
22.36
24.99
26.71
27.75
28.39
28.87
29.36
29.9
30.46
31.05
31.8
32.88
34.45
36.52
38.88
41.11
42.78
43.56
43.32
42.19
40.44
38.35
36.15
33.95
31.76
29.52
27.2
24.76
22.26
19.79
17.43
15.23
13.15
11.05
8.82
6.37
3.78
1.21
-1.17
-3.3
-5.33
-7.54
-10.28
-13.75
-17.95
-22.63
-27.43
-31.98
-36.12
-39.82
-43.29
-46.89
-51.06
-56.12
-62.16
-68.69
-74.69
-78.7
-79.25
-75.34
-66.82
-54.54
-40.01
-24.95
-10.81
1.5
11.57
19.36
25.04
28.89
31.32
32.8
33.73
34.43
34.99
35.43
35.72
35.95
36.32
37.04
38.23
39.83
41.61
43.3
44.68
45.64
46.1
46.02
45.33
43.97
41.97
39.47
36.73
33.98
31.42
29.13
27.07
25.11
23.13
21.01
18.7
16.18
13.45
10.57
7.62
4.73
1.98
-0.53
-2.83
-5.05
-7.39
-10.05
-13.17
-16.72
-20.55
-24.43
-28.13
-31.54
-34.68
-37.74
-41.08
-45.14
-50.24
-56.39
-63.05
-69.1
-73.01
-73.31
-69.12
-60.45
-48.31
-34.29
-20.09
-7.03
4.13
13.1
19.91
24.73
27.72
29.17
29.4
28.84
27.9
26.89
25.98
25.23
24.7
24.48
24.67
25.38
26.66
28.39
30.36
32.23
33.63
34.23
33.88
32.57
30.5
27.98
25.33
22.79
20.45
18.26
16.11
13.93
11.69
9.49
7.4
5.46
3.63
1.8
-0.14
-2.26
-4.55
-6.92
-9.24
-11.44
-13.56
-15.77
-18.35
-21.67
-26.01
-31.45
-37.64
-43.71
-48.42
-50.47
-48.85
-43.31
-34.37
-23.28
-11.53
-0.5
8.9
16.31
21.75
25.47
27.71
28.68
28.47
27.27
25.3
22.9
20.52
18.57
17.4
17.16
17.82
19.25
21.18
23.32
25.38
27.04
28.06
28.21
27.41
25.65
23.11
20.08
16.94
14.04
11.64
9.8
8.43
7.24
5.97
4.37
2.39
0.14
-2.12
-4.11
-5.71
-7.0
-8.32
-10.12
-12.75
-16.19
-20.12
-23.96
-27.2
-29.66
-31.55
-33.36
-35.71
-39.12
-43.84
-49.79
-56.4
-62.64
-67.12
-68.35
-65.19
-57.39
-45.66
-31.58
-17.13
-4.03
6.64
14.57
20.05
23.58
25.64
26.59
26.64
26.01
24.93
23.66
22.46
21.49
20.83
20.44
20.27
20.28
20.46
20.84
21.41
22.14
22.91
23.54
23.8
23.56
22.75
21.42
19.7
17.73
15.65
13.55
11.55
9.73
8.12
6.71
5.45
4.28
3.12
1.94
0.68
-0.75
-2.4
-4.27
-6.28
-8.31
-10.31
-12.37
-14.67
-17.39
-20.6
-24.11
-27.55
-30.59
-33.01
-34.9
-36.63
-38.69
-41.62
-45.72
-50.96
-56.82
-62.27
-65.95
-66.48
-62.89
-55.0
-43.56
-30.05
-16.29
-3.88
6.14
13.44
18.25
21.11
22.61
23.21
23.24
22.92
22.43
21.93
21.52
21.29
21.25
21.42
21.79
22.41
23.28
24.36
25.52
26.59
27.33
27.59
27.25
26.3
24.82
22.89
20.64
18.2
15.74
13.42
11.39
9.7
8.36
7.3
6.42
5.59
4.66
3.5
2.04
0.29
-1.66
-3.61
-5.4
-6.95
-8.4
-9.99
-12.04
-14.72
-18.02
-21.7
-25.39
-28.78
-31.71
-34.23
-36.65
-39.41
-42.97
-47.67
-53.48
-59.88
-65.81
-69.85
-70.62
-67.16
-59.34
-47.92
-34.35
-20.31
-7.3
3.68
12.23
18.4
22.52
25.0
26.21
26.56
26.43
26.2
26.16
26.4
26.86
27.35
27.69
27.89
28.07
28.47
29.23
30.33
31.59
32.66
33.22
33.06
32.09
30.35
27.97
25.14
22.11
19.17
16.62
14.62
13.22
12.25
11.43
10.47
9.14
7.37
5.26
3.01
0.88
-1.01
-2.67
-4.28
-6.06
-8.22
-10.82
-13.79
-16.89
-19.86
-22.52
-24.85
-26.96
-29.05
-31.38
-34.22
-37.81
-42.32
-47.67
-53.36
-58.45
-61.59
-61.47
-57.26
-49.0
-37.66
-24.85
-12.32
-1.46
7.03
13.07
16.98
19.17
19.99
19.7
18.51
16.67
14.47
12.25
10.31
8.89
8.19
8.29
9.19
10.8
12.93
15.31
17.71
19.87
21.51
22.44
22.56
21.83
20.41
18.51
16.39
14.26
12.2
10.19
8.18
6.17
4.1
1.96
-0.33
-2.83
-5.6
-8.6
-11.71
-14.77
-17.68
-20.42
-23.06
-25.71
-28.58
-31.94
-36.07
-41.2
-47.25
-53.68
-59.39
-62.95
-63.06
-58.95
-50.77
-39.5
-26.66
-13.85
-2.29
7.32
14.79
20.21
23.88
26.04
26.99
27.0
26.34
25.28
24.03
22.79
21.72
20.99
20.73
21.09
22.11
23.74
25.74
27.77
29.38
30.1
29.64
27.92
25.18
21.85
18.39
15.12
12.08
9.08
5.87
2.25
-1.84
-6.26
-10.82
-15.35
-19.8
-24.27
-28.89
-33.86
-39.29
-45.17
-51.43
-57.82
-64.11
-70.2
-76.23
-82.72
-90.39
-99.81
-111.06
-123.38
-135.17
-144.43
-149.32
-148.81
-143.05
-133.33
-121.84
-111.21
-103.9
-101.43
-103.78
-108.92
-113.19
-112.21
-102.32
-81.77
-51.13
-12.94
29.3
71.97
111.93
146.45
173.24
190.73
198.35
197.11
189.26
177.69
164.94
152.43
140.44
128.46
116.0
103.03
90.15
78.26
68.13
60.09
53.96
49.18
45.11
41.28
37.56
34.08
31.16
29.08
28.0
27.84
28.39
29.35
30.33
30.94
30.79
29.49
26.78
22.51
16.79
9.91
2.25
-5.91
-14.52
-23.69
-33.45
-43.41
-52.6
-59.67
-63.27
-62.6
-57.66
-49.25
-38.57
-26.84
-15.03
-3.84
6.25
14.9
21.86
27.07
30.73
33.22
34.96
36.3
37.38
38.22
38.81
39.17
39.4
39.69
40.21
41.08
42.3
43.76
45.27
46.6
47.54
47.9
47.56
46.47
44.66
42.26
39.47
36.5
33.55
30.73
28.11
25.64
23.29
21.0
18.74
16.48
14.23
12.01
9.88
7.89
6.09
4.42
2.76
0.8
-1.72
-5.0
-8.98
-13.41
-17.87
-22.0
-25.63
-28.89
-32.17
-35.94
-40.62
-46.31
-52.76
-59.26
-64.77
-68.06
-68.03
-64.01
-56.09
-45.15
-32.69
-20.36
-9.52
-0.85
5.71
10.73
14.92
18.82
22.63
26.24
29.48
32.17
34.3
35.97
37.27
38.27
38.95
39.3
39.34
39.27
39.36
39.93
41.11
42.73
44.3
45.19
44.88
43.21
40.42
37.08
33.77
30.86
28.37
26.12
23.86
21.5
19.08
16.74
14.6
12.67
10.9
9.19
7.47
5.68
3.77
1.68
-0.72
-3.48
-6.61
-10.05
-13.68
-17.34
-20.87
-24.17
-27.25
-30.28
-33.52
-37.29
-41.78
-46.89
-52.14
-56.76
-59.8
-60.4
-58.03
-52.56
-44.35
-34.14
-22.9
-11.66
-1.39
7.23
13.81
18.33
21.07
22.47
22.99
22.98
22.66
22.07
21.18
19.95
18.39
16.64
14.94
13.58
12.89
13.04
13.98
15.42
16.93
18.09
18.67
18.62
18.04
17.05
15.69
13.98
11.98
9.84
7.78
5.89
4.06
2.02
-0.44
-3.24
-5.91
-7.76
-8.23
-7.23
-5.21
-2.99
-1.35
-0.78
-1.32
-2.73
-4.7
-7.03
-9.67
-12.58
-15.72
-18.9
-21.99
-24.95
-27.92
-31.15
-34.8
-38.73
-42.39
-44.87
-45.17
-42.56
-36.89
-28.69
-19.07
-9.34
-0.65
6.33
11.42
14.84
16.97
18.09
18.34
17.7
16.14
13.73
10.77
7.71
5.15
3.58
3.32
4.32
6.19
8.37
10.23
11.33
11.46
10.67
9.22
7.43
5.64
4.1
2.97
2.26
1.82
1.37
0.63
-0.63
-2.41
-4.52
-6.71
-8.77
-10.66
-12.46
-14.3
-16.22
-18.16
-20.02
-21.75
-23.39
-25.09
-27.01
-29.25
-31.88
-34.96
-38.6
-42.82
-47.47
-52.07
-55.78
-57.61
-56.66
-52.5
-45.32
-35.92
-25.43
-15.06
-5.74
1.89
7.59
11.36
13.37
13.88
13.19
11.6
9.5
7.27
5.36
4.2
4.11
5.24
7.48
10.46
13.72
16.79
19.34
21.21
22.38
22.78
22.35
21.06
18.97
16.32
13.54
11.06
9.21
8.05
7.39
6.89
6.17
5.02
3.39
1.4
-0.74
-2.83
-4.74
-6.42
-7.98
-9.61
-11.61
-14.21
-17.5
-21.42
-25.76
-30.27
-34.71
-38.9
-42.75
-46.25
-49.57
-53.01
-57.05
-62.13
-68.44
-75.65
-82.82
-88.56
-91.41
-90.19
-84.47
-74.62
-61.73
-47.35
-33.09
-20.3
-9.81
-1.84
3.91
8.05
11.18
13.69
15.65
16.98
17.59
17.65
17.54
17.76
18.71
20.58
23.29
26.53
30.0
33.41
36.56
39.28
41.42
42.79
43.3
42.92
41.7
39.82
37.49
34.96
32.41
29.99
27.77
25.8
24.04
22.45
20.93
19.39
17.68
15.63
13.09
10.05
6.57
2.81
-1.02
-4.78
-8.4
-11.97
-15.62
-19.54
-23.81
-28.48
-33.47
-38.65
-43.84
-48.95
-54.0
-59.17
-64.89
-71.56
-79.39
-88.03
-96.39
-102.86
-105.68
-103.5
-95.84
-83.26
-67.16
-49.37
-31.74
-15.75
-2.3
8.32
16.3
22.19
26.6
30.07
32.89
35.16
36.86
38.06
38.96
39.87
41.1
42.87
45.2
47.96
50.89
53.73
56.17
57.97
58.83
58.53
56.98
54.35
51.09
47.79
44.99
42.93
41.53
40.41
39.19
37.61
35.7
33.63
31.58
29.57
27.49
25.17
22.6
19.89
17.28
14.95
12.87
10.76
8.2
4.8
0.36
-5.02
-11.02
-17.21
-23.19
-28.72
-33.78
-38.6
-43.59
-49.27
-56.11
-64.35
-73.73
-83.36
-91.79
-97.21
-97.98
-93.12
-82.65
-67.66
-50.04
-31.91
-15.04
-0.49
11.47
21.16
29.08
35.61
40.8
44.52
46.63
47.24
46.72
45.67
44.67
44.11
44.16
44.78
45.86
47.43
49.55
52.31
55.56
58.85
61.5
62.82
62.35
60.05
56.4
52.14
48.05
44.59
41.83
39.42
36.88
33.85
30.18
26.04
21.73
17.53
13.63
10.06
6.74
3.54
0.33
-2.95
-6.3
-9.69
-13.08
-16.49
-20.12
-24.31
-29.57
-36.37
-44.93
-54.93
-65.29
-74.26
-79.77
-80.05
-74.22
-62.63
-46.8
-28.96
-11.32
4.46
17.53
27.78
35.45
40.83
44.13
45.48
45.11
43.49
41.21
38.96
37.25
36.4
36.42
37.17
38.49
40.28
42.55
45.24
48.18
50.96
53.02
53.81
52.94
50.38
46.48
41.88
37.3
33.33
30.22
27.85
25.83
23.67
21.02
17.77
14.1
10.34
6.83
3.79
1.18
-1.3
-4.0
-7.25
-11.2
-15.77
-20.69
-25.59
-30.13
-34.12
-37.58
-40.82
-44.43
-49.22
-55.95
-64.94
-75.67
-86.61
-95.45
-99.76
-97.81
-89.21
-75.04
-57.4
-38.75
-21.16
-5.93
6.45
16.04
23.17
28.21
31.52
33.53
34.69
35.53
36.47
37.73
39.29
40.92
42.33
43.31
43.94
44.46
45.25
46.51
48.18
49.97
51.4
52.04
51.65
50.18
47.8
44.79
41.48
38.14
35.04
32.3
29.93
27.83
25.86
23.81
21.53
18.91
15.83
12.23
8.09
3.51
-1.27
-5.96
-10.33
-14.26
-17.86
-21.38
-25.08
-29.09
-33.34
-37.67
-41.89
-46.03
-50.35
-55.31
-61.32
-68.44
-76.14
-83.2
-87.96
-88.79
-84.66
-75.49
-62.26
-46.66
-30.63
-15.8
-3.24
6.69
14.12
19.51
23.4
26.27
28.44
30.1
31.33
32.16
32.7
33.09
33.48
33.96
34.61
35.45
36.52
37.85
39.39
41.01
42.43
43.28
43.28
42.25
40.27
37.57
34.47
31.28
28.24
25.44
22.88
20.48
18.2
16.04
14.02
12.25
10.73
9.43
8.21
6.88
5.27
3.32
1.04
-1.46
-4.1
-6.85
-9.78
-13.01
-16.6
-20.53
-24.63
-28.65
-32.35
-35.63
-38.63
-41.7
-45.35
-50.07
-56.08
-63.11
-70.22
-75.96
-78.68
-77.06
-70.57
-59.72
-45.89
-30.89
-16.45
-3.76
6.64
14.75
20.86
25.33
28.44
30.41
31.45
31.77
31.56
31.0
30.25
29.45
28.72
28.18
27.93
28.01
28.43
29.07
29.76
30.25
30.3
29.75
28.46
26.46
23.79
20.58
17.03
13.34
9.73
6.45
3.68
1.55
0.04
-0.99
-1.75
-2.46
-3.35
-4.54
-6.08
-7.81
-9.41
-10.47
-10.72
-10.15
-9.1
-8.13
-7.81
-8.42
-9.87
-11.73
-13.52
-14.96
-16.07
-17.23
-18.96
-21.79
-26.08
-31.81
-38.51
-45.14
-50.33
-52.6
-50.93
-45.12
-35.9
-24.63
-12.94
-2.15
6.93
14.02
19.06
22.11
23.19
22.41
20.01
16.44
12.25
7.96
3.99
0.66
-1.86
-3.4
-3.76
-2.76
-0.3
3.45
8.1
12.97
17.3
20.48
22.14
22.38
21.59
20.26
18.81
17.42
16.11
14.77
13.41
12.1
10.96
10.1
9.5
9.09
8.64
7.93
6.72
4.84
2.25
-0.92
-4.39
-7.82
-10.95
-13.81
-16.71
-20.18
-24.81
-30.96
-38.52
-46.8
-54.62
-60.5
-63.07
-61.46
-55.6
-46.22
-34.7
-22.7
-11.61
-2.39
4.63
9.63
13.03
15.3
16.78
17.59
17.75
17.2
16.03
14.48
12.9
11.71
11.24
11.59
12.75
14.51
16.69
19.06
21.42
23.54
25.16
26.03
26.02
25.16
23.67
21.9
20.27
19.05
18.32
17.89
17.42
16.52
14.97
12.78
10.24
7.77
5.75
4.31
3.32
2.37
0.98
-1.31
-4.71
-9.23
-14.59
-20.38
-26.19
-31.7
-36.85
-41.82
-47.0
-52.88
-59.76
-67.57
-75.68
-82.84
-87.45
-87.99
-83.57
-74.25
-61.13
-46.04
-31.0
-17.65
-6.93
1.0
6.53
10.28
12.87
14.75
16.17
17.24
18.01
18.49
18.72
18.79
18.81
18.94
19.29
19.96
20.93
22.17
23.48
24.56
25.03
24.57
23.03
20.58
17.66
14.8
12.38
10.47
8.79
6.94
4.57
1.73
-1.25
-3.86
-5.71
-6.72
-7.18
-7.65
-8.68
-10.73
-14.0
-18.33
-23.06
-27.08
-28.97
-27.49
-22.18
-13.82
-4.53
2.78
5.33
1.52
-8.59
-23.25
-39.89
-56.04
-70.09
-81.51
-90.35
-96.74
-100.39
-100.71
-97.14
-89.69
-79.19
-67.09
-55.01
-44.11
-34.87
-27.11
-20.36
-14.27
-8.81
-4.32
-1.13
0.63
1.26
1.45
1.95
3.36
5.81
9.09
12.86
17.04
21.91
28.02
35.74
44.94
54.87
64.4
72.62
79.16
84.3
88.62
92.56
96.07
98.7
99.87
99.29
97.12
93.82
89.94
85.82
81.53
76.92
71.79
66.09
59.86
53.27
46.58
40.04
33.9
28.34
23.39
18.95
14.83
10.83
6.82
2.8
-1.2
-5.21
-9.43
-14.22
-20.04
-27.27
-36.05
-46.22
-57.2
-68.08
-77.63
-84.51
-87.48
-85.73
-79.12
-68.36
-54.78
-40.07
-25.79
-13.08
-2.45
6.07
12.78
18.01
22.03
24.97
26.86
27.77
27.83
27.32
26.57
25.92
25.62
25.76
26.29
27.09
28.0
28.9
29.67
30.2
30.33
29.96
29.08
27.83
26.45
25.18
24.21
23.53
23.05
22.55
21.88
20.92
19.64
18.07
16.28
14.34
12.37
10.51
8.87
7.47
6.24
5.0
3.53
1.69
-0.57
-3.1
-5.71
-8.18
-10.37
-12.28
-14.06
-15.98
-18.38
-21.66
-26.11
-31.81
-38.45
-45.22
-50.88
-54.04
-53.61
-49.19
-41.19
-30.79
-19.44
-8.46
1.32
9.53
16.14
21.19
24.64
26.43
26.53
25.12
22.63
19.63
16.77
14.55
13.33
13.19
14.08
15.77
18.02
20.55
23.13
25.55
27.54
28.85
29.2
28.46
26.65
23.99
20.87
17.68
14.71
12.03
9.54
7.0
4.21
1.08
-2.37
-5.95
-9.46
-12.72
-15.6
-18.12
-20.42
-22.74
-25.43
-28.86
-33.29
-38.74
-44.85
-50.83
-55.5
-57.63
-56.22
-50.92
-42.15
-31.02
-19.02
-7.55
2.46
10.6
16.93
21.77
25.43
28.02
29.58
30.08
29.62
28.5
27.11
25.88
25.12
24.91
25.21
25.95
27.08
28.62
30.56
32.76
34.84
36.3
36.64
35.55
33.0
29.3
24.96
20.51
16.4
12.79
9.63
6.64
3.54
0.1
-3.63
-7.53
-11.36
-15.0
-18.46
-21.89
-25.59
-29.88
-35.05
-41.32
-48.65
-56.63
-64.36
-70.47
-73.52
-72.39
-66.72
-57.09
-44.84
-31.64
-18.97
-7.82
1.46
8.93
14.9
19.66
23.41
26.3
28.44
29.93
30.91
31.47
31.64
31.41
30.8
29.9
28.96
28.29
28.21
28.83
29.99
31.21
31.89
31.48
29.68
26.58
22.54
18.12
13.83
10.0
6.71
3.87
1.34
-1.02
-3.19
-5.16
-6.89
-8.49
-10.13
-11.96
-14.19
-16.93
-20.35
-24.57
-29.57
-35.04
-40.17
-43.8
-44.7
-42.07
-35.83
-26.78
-16.23
-5.61
4.07
12.33
19.18
24.8
29.32
32.76
35.08
36.35
36.87
37.03
37.26
37.78
38.65
39.77
41.02
42.35
43.73
45.18
46.6
47.79
48.43
48.23
46.95
44.54
41.11
36.91
32.29
27.62
23.17
19.04
15.16
11.29
7.23
2.88
-1.64
-6.06
-10.07
-13.51
-16.46
-19.24
-22.27
-26.01
-30.7
-36.38
-42.67
-48.83
-53.84
-56.57
-56.13
-52.13
-44.91
-35.46
-25.1
-15.16
-6.62
0.07
4.85
7.99
9.82
10.7
10.91
10.74
10.38
9.99
9.64
9.31
9.02
8.78
8.71
8.91
9.46
10.34
11.45
12.58
13.46
13.83
13.48
12.36
10.5
8.08
5.33
2.51
-0.19
-2.66
-4.91
-7.01
-9.09
-11.29
-13.67
-16.13
-18.47
-20.42
-21.86
-22.92
-24.0
-25.67
-28.44
-32.41
-37.15
-41.67
-44.68
-44.98
-41.89
-35.48
-26.57
-16.49
-6.61
1.97
8.66
13.39
16.38
17.97
18.45
18.07
17.05
15.67
14.17
12.76
11.58
10.65
9.96
9.53
9.4
9.62
10.25
11.23
12.41
13.56
14.41
14.71
14.33
13.2
11.38
9.06
6.47
3.91
1.66
-0.11
-1.33
-2.14
-2.83
-3.69
-4.95
-6.64
-8.62
-10.6
-12.36
-13.85
-15.25
-16.92
-19.22
-22.34
-26.16
-30.26
-34.04
-37.0
-38.93
-40.12
-41.22
-43.05
-46.29
-51.18
-57.39
-64.11
-70.21
-74.64
-76.64
-75.96
-72.93
-68.36
-63.25
-58.48
-54.57
-51.63
-49.43
-47.79
-46.91
-47.6
-51.16
-58.68
-70.22
-84.01
-96.45
-102.82
-98.85
-82.1
-52.85
-13.96
30.0
74.0
113.56
145.31
167.14
178.15
178.67
170.19
155.02
135.77
114.83
93.97
74.39
56.86
41.92
29.91
20.85
14.32
9.58
5.8
2.39
-0.85
-3.71
-5.93
-7.39
-8.34
-9.31
-10.86
-13.38
-16.92
-21.2
-25.73
-30.05
-33.72
-36.43
-37.86
-37.7
-35.74
-31.99
-26.81
-20.86
-15.01
-10.02
-6.37
-4.21
-3.33
-3.47
-4.33
-5.72
-7.5
-9.57
-11.81
-13.99
-16.0
-17.67
-18.9
-19.51
-19.27
-17.94
-15.47
-12.11
-8.32
-4.58
-1.09
2.28
5.97
10.42
15.73
21.49
26.94
31.23
33.79
34.5
33.61
31.65
29.1
26.34
23.55
20.76
17.96
15.11
12.2
9.2
6.07
2.71
-0.99
-5.05
-9.37
-13.69
-17.77
-21.48
-24.99
-28.68
-33.01
-38.15
-43.85
-49.34
-53.54
-55.4
-54.23
-49.92
-42.93
-34.16
-24.68
-15.52
-7.5
-1.11
3.46
6.37
7.97
8.73
9.08
9.32
9.59
9.93
10.25
10.51
10.65
10.71
10.79
11.01
11.47
12.25
13.35
14.68
16.08
17.32
18.17
18.4
17.9
16.63
14.75
12.5
10.22
8.24
6.82
6.15
6.23
6.97
8.12
9.4
10.43
10.96
10.81
10.0
8.68
7.01
5.17
3.19
1.04
-1.37
-4.08
-7.05
-10.16
-13.28
-16.34
-19.37
-22.55
-26.11
-30.38
-35.56
-41.64
-48.26
-54.67
-59.83
-62.64
-62.29
-58.49
-51.61
-42.54
-32.48
-22.56
-13.64
-6.2
-0.34
4.1
7.4
9.91
11.87
13.45
14.69
15.61
16.2
16.56
16.82
17.09
17.54
18.21
19.12
20.27
21.63
23.15
24.74
26.22
27.39
28.09
28.19
27.67
26.61
25.11
23.34
21.46
19.61
17.92
16.47
15.24
14.16
13.1
11.91
10.51
8.88
7.05
5.12
3.21
1.4
-0.31
-2.0
-3.86
-6.11
-8.9
-12.23
-15.95
-19.74
-23.34
-26.62
-29.63
-32.67
-36.12
-40.39
-45.71
-52.02
-58.78
-65.02
-69.36
-70.48
-67.46
-60.17
-49.36
-36.41
-22.92
-10.3
0.52
9.11
15.41
19.58
21.9
22.75
22.62
21.94
21.12
20.4
19.89
19.58
19.47
19.59
19.99
20.74
21.91
23.53
25.53
27.73
29.77
31.21
31.66
30.91
29.05
26.39
23.34
20.22
17.21
14.39
11.92
10.06
9.19
9.53
10.97
13.01
14.79
15.48
14.52
11.8
7.62
2.48
-3.02
-8.38
-13.23
-17.33
-20.59
-23.07
-25.12
-27.2
-29.73
-32.81
-36.02
-38.44
-38.9
-36.47
-30.75
-22.11
-11.46
-0.02
11.05
20.85
28.83
34.74
38.54
40.35
40.43
39.17
37.09
34.69
32.48
30.81
29.97
30.0
30.83
32.31
34.22
36.36
38.53
40.5
41.99
42.7
42.46
41.2
39.06
36.27
33.11
29.8
26.48
23.16
19.88
16.67
13.59
10.68
7.96
5.35
2.75
0.04
-2.9
-6.1
-9.51
-13.06
-16.56
-19.87
-22.84
-25.4
-27.62
-29.76
-32.22
-35.45
-39.75
-45.03
-50.58
-55.2
-57.46
-56.16
-50.82
-41.89
-30.62
-18.63
-7.38
2.16
9.65
15.24
19.24
22.0
23.77
24.75
25.11
25.04
24.72
24.32
23.98
23.81
23.88
24.25
24.9
25.76
26.76
27.8
28.79
29.65
30.27
30.48
30.13
29.11
27.41
25.13
22.5
19.83
17.38
15.28
13.49
11.84
10.14
8.22
6.06
3.71
1.25
-1.2
-3.61
-5.94
-8.15
-10.2
-12.07
-13.82
-15.58
-17.49
-19.65
-22.06
-24.59
-27.11
-29.53
-31.82
-34.2
-37.0
-40.57
-45.01
-49.99
-54.62
-57.58
-57.56
-53.67
-45.81
-34.74
-21.9
-8.88
2.91
12.63
19.92
24.84
27.69
28.83
28.67
27.56
25.87
23.89
21.82
19.81
17.93
16.26
14.9
13.95
13.53
13.65
14.25
15.18
16.29
17.39
18.37
19.14
19.57
19.56
19.08
18.18
17.02
15.83
14.83
14.14
13.77
13.62
13.57
13.44
13.1
12.39
11.2
9.44
7.15
4.51
1.82
-0.61
-2.57
-4.04
-5.23
-6.44
-7.97
-10.01
-12.56
-15.5
-18.59
-21.62
-24.43
-26.99
-29.4
-31.92
-34.92
-38.74
-43.51
-48.94
-54.26
-58.28
-59.7
-57.53
-51.46
-42.0
-30.36
-18.12
-6.77
2.64
9.64
14.22
16.77
17.73
17.61
16.86
15.82
14.78
13.95
13.41
13.15
13.07
13.08
13.11
13.18
13.37
13.78
14.42
15.24
16.07
16.69
16.88
16.53
15.65
14.3
12.64
10.78
8.8
6.72
4.57
2.39
0.24
-1.74
-3.45
-4.81
-5.85
-6.71
-7.61
-8.8
-10.4
-12.42
-14.67
-16.91
-18.93
-20.67
-22.29
-24.14
-26.6
-29.93
-34.08
-38.67
-42.84
-45.49
-45.55
-42.28
-35.58
-26.03
-14.79
-3.29
7.19
15.76
22.0
25.95
27.91
28.29
27.49
25.84
23.7
21.33
19.04
17.08
15.67
14.92
14.84
15.35
16.26
17.44
18.75
20.11
21.4
22.46
23.07
22.97
22.02
20.25
17.9
15.36
13.01
11.05
9.5
8.17
6.77
5.13
3.2
1.11
-0.94
-2.77
-4.27
-5.46
-6.41
-7.3
-8.3
-9.58
-11.23
-13.25
-15.5
-17.79
-19.95
-21.88
-23.66
-25.47
-27.62
-30.43
-34.18
-38.92
-44.34
-49.66
-53.69
-55.15
-53.03
-47.0
-37.61
-26.1
-14.05
-2.91
6.4
13.49
18.46
21.65
23.38
23.94
23.59
22.6
21.29
19.99
18.95
18.26
17.88
17.68
17.59
17.63
17.94
18.68
19.89
21.44
23.0
24.16
24.58
24.09
22.75
20.72
18.31
15.79
13.42
11.39
9.85
8.83
8.27
7.95
7.61
6.99
5.89
4.33
2.43
0.43
-1.42
-2.96
-4.17
-5.19
-6.29
-7.79
-9.9
-12.66
-15.87
-19.23
-22.41
-25.2
-27.62
-29.87
-32.29
-35.3
-39.21
-44.12
-49.73
-55.26
-59.45
-60.9
-58.5
-51.82
-41.42
-28.65
-15.31
-3.02
7.11
14.7
19.89
23.1
24.78
25.32
25.08
24.35
23.45
22.63
22.06
21.8
21.81
22.06
22.47
23.09
23.9
24.95
26.24
27.69
29.13
30.31
30.98
30.89
29.98
28.28
25.96
23.26
20.43
17.71
15.27
13.25
11.68
10.52
9.58
8.64
7.49
5.98
4.11
2.01
-0.1
-2.03
-3.65
-4.99
-6.19
-7.47
-9.08
-11.17
-13.74
-16.67
-19.69
-22.53
-25.01
-27.13
-29.07
-31.22
-34.02
-37.74
-42.28
-47.04
-51.0
-52.95
-51.81
-46.98
-38.56
-27.38
-14.82
-2.46
8.32
16.65
22.27
25.47
26.84
27.0
26.42
25.4
24.14
22.83
21.71
20.98
20.78
21.07
21.71
22.52
23.41
24.37
25.46
26.65
27.83
28.74
29.06
28.56
27.14
24.92
22.17
19.21
16.36
13.86
11.78
10.13
8.83
7.77
6.82
5.82
4.64
3.2
1.51
-0.33
-2.17
-3.85
-5.32
-6.62
-7.94
-9.49
-11.42
-13.74
-16.25
-18.64
-20.57
-21.86
-22.56
-22.94
-23.45
-24.55
-26.55
-29.51
-33.16
-36.92
-39.93
-41.2
-39.95
-35.75
-28.79
-19.86
-10.14
-0.84
7.06
13.06
17.1
19.44
20.46
20.51
19.87
18.78
17.45
16.11
14.94
14.09
13.63
13.58
13.91
14.6
15.56
16.71
17.87
18.84
19.42
19.42
18.74
17.39
15.44
13.09
10.59
8.18
6.05
4.25
2.67
1.21
-0.23
-1.62
-2.83
-3.73
-4.3
-4.67
-5.06
-5.74
-6.83
-8.34
-10.11
-11.94
-13.65
-15.18
-16.63
-18.24
-20.31
-23.06
-26.5
-30.23
-33.47
-35.23
-34.56
-30.96
-24.55
-16.13
-6.84
2.1
9.78
15.78
20.05
22.78
24.27
24.71
24.24
22.99
21.11
18.85
16.5
14.35
12.66
11.56
11.13
11.28
11.86
12.69
13.59
14.41
15.04
15.33
15.1
14.18
12.49
10.11
7.32
4.56
2.23
0.56
-0.53
-1.36
-2.32
-3.71
-5.55
-7.6
-9.49
-10.89
-11.68
-12.02
-12.26
-12.78
-13.86
-15.55
-17.69
-20.08
-22.53
-24.98
-27.53
-30.36
-33.69
-37.71
-42.53
-48.02
-53.79
-59.08
-62.8
-63.82
-61.27
-54.92
-45.36
-33.86
-21.93
-11.01
-2.03
4.73
9.42
12.43
14.16
14.95
15.07
14.79
14.4
14.12
14.05
14.15
14.23
14.11
13.74
13.24
12.83
12.76
13.13
13.91
14.9
15.87
16.64
17.13
17.33
17.23
16.81
16.03
14.87
13.39
11.74
10.09
8.59
7.28
6.07
4.83
3.43
1.84
0.09
-1.66
-3.28
-4.74
-6.11
-7.58
-9.47
-12.05
-15.46
-19.63
-24.28
-29.02
-33.45
-37.28
-40.46
-43.15
-45.71
-48.64
-52.44
-57.43
-63.4
-69.59
-74.58
-76.75
-74.76
-68.1
-57.36
-43.97
-29.81
-16.56
-5.31
3.51
10.05
14.75
18.1
20.48
22.23
23.53
24.53
25.31
25.9
26.38
26.81
27.34
28.12
29.3
30.99
33.19
35.78
38.49
40.96
42.8
43.75
43.69
42.7
41.04
38.99
36.81
34.6
32.41
30.15
27.83
25.47
23.21
21.21
19.52
18.14
16.88
15.5
13.8
11.71
9.32
6.82
4.44
2.31
0.38
-1.55
-3.78
-6.55
-10.0
-14.05
-18.48
-22.99
-27.33
-31.36
-35.19
-39.13
-43.58
-48.89
-55.07
-61.63
-67.5
-71.29
-71.59
-67.52
-58.95
-46.64
-32.05
-16.85
-2.56
9.77
19.66
27.11
32.38
35.84
37.89
38.87
39.07
38.73
38.02
37.1
36.15
35.36
34.96
35.12
35.93
37.31
39.07
40.92
42.6
43.82
44.38
44.15
43.15
41.5
39.48
37.4
35.51
33.88
32.42
30.95
29.35
27.6
25.8
24.08
22.47
20.92
19.28
17.4
15.22
12.79
10.23
7.75
5.45
3.34
1.28
-0.97
-3.68
-7.0
-10.86
-14.98
-18.97
-22.45
-25.28
-27.58
-29.71
-32.22
-35.61
-40.19
-45.8
-51.76
-56.87
-59.75
-59.17
-54.48
-45.87
-34.28
-21.19
-8.14
3.61
13.29
20.68
25.95
29.54
31.89
33.39
34.21
34.43
34.12
33.42
32.55
31.77
31.27
31.14
31.37
31.89
32.68
33.74
35.04
36.44
37.62
38.21
37.92
36.6
34.38
31.52
28.38
25.25
22.37
19.86
17.75
15.96
14.36
12.71
10.84
8.7
6.42
4.28
2.56
1.37
0.55
-0.28
-1.5
-3.37
-5.89
-8.81
-11.77
-14.5
-16.83
-18.83
-20.68
-22.65
-25.06
-28.16
-32.01
-36.37
-40.56
-43.58
-44.33
-42.02
-36.42
-28.0
-17.79
-7.08
2.94
11.46
18.04
22.59
25.26
26.33
26.18
25.21
23.81
22.28
20.76
19.33
18.03
16.95
16.22
15.99
16.32
17.2
18.48
19.92
21.26
22.23
22.61
22.27
21.23
19.6
17.63
15.48
13.29
11.06
8.74
6.28
3.75
1.27
-1.0
-2.95
-4.62
-6.12
-7.6
-9.17
-10.84
-12.62
-14.52
-16.63
-19.06
-21.86
-25.0
-28.36
-31.88
-35.62
-39.78
-44.55
-49.81
-54.95
-58.81
-60.06
-57.64
-51.26
-41.52
-29.78
-17.61
-6.39
3.05
10.38
15.65
19.08
20.94
21.55
21.26
20.47
19.52
18.58
17.7
