-21.07
-22.59
-24.06
-25.36
-26.69
-28.51
-31.44
-36.0
-42.26
-49.71
-57.27
-63.5
-66.95
-66.59
-62.11
-54.02
-43.49
-32.06
-21.17
-11.81
-4.36
1.32
5.71
9.27
12.3
14.83
16.78
18.06
18.76
19.13
19.55
20.41
21.99
24.45
27.7
31.47
35.36
38.93
41.81
43.8
44.98
45.69
46.42
47.69
49.79
52.67
55.98
59.11
61.47
62.78
63.23
63.37
63.71
64.19
63.95
61.51
55.39
44.88
30.44
13.65
-3.27
-18.07
-28.97
-35.03
-36.05
-32.54
-25.58
-16.59
-7.13
1.45
8.28
13.08
16.05
17.63
18.35
18.67
18.99
19.51
20.22
20.8
20.71
19.33
16.25
11.45
5.39
-1.12
-7.26
-12.44
-16.64
-20.19
-23.67
-27.53
-31.8
-36.21
-40.38
-44.17
-47.91
-52.34
-58.15
-65.57
-74.04
-82.39
-89.35
-94.14
-96.76
-97.88
-98.37
-98.88
-99.61
-100.46
-101.35
-102.4
-103.8
-105.67
-107.76
-109.57
-110.6
-110.69
-110.17
-109.7
-109.96
-111.3
-113.44
-115.67
-117.02
-116.7
-114.55
-111.08
-107.39
-104.74
-104.25
-106.59
-111.88
-119.43
-127.49
-133.05
-132.05
-120.47
-95.82
-58.65
-12.99
34.68
77.47
110.39
131.61
142.25
145.06
142.8
137.29
129.52
120.15
110.22
101.18
94.39
90.53
89.21
89.17
88.79
86.82
82.74
76.91
70.23
63.71
58.01
53.16
48.62
43.64
37.64
30.55
22.83
15.32
8.73
3.4
-0.86
-4.59
-8.41
-12.75
-17.72
-23.1
-28.51
-33.58
-38.05
-41.84
-45.11
-48.22
-51.73
-56.18
-61.89
-68.5
-74.85
-79.1
-79.37
-74.38
-64.08
-49.64
-33.02
-16.22
-0.7
12.87
24.34
33.78
41.16
46.39
49.53
50.9
51.03
50.38
49.1
46.95
43.56
38.73
32.73
26.23
20.18
15.4
12.29
10.73
10.12
9.71
8.82
7.11
4.61
1.58
-1.63
-4.81
-7.92
-11.04
-14.28
-17.62
-20.88
-23.71
-25.81
-26.96
-27.2
-26.83
-26.28
-25.98
-26.19
-26.92
-27.96
-28.99
-29.73
-30.09
-30.23
-30.49
-31.28
-32.97
-35.65
-39.11
-42.78
-45.71
-46.82
-45.11
-39.98
-31.45
-20.15
-7.24
5.95
18.2
28.64
36.81
42.66
46.42
48.51
49.37
49.38
48.82
47.83
46.54
45.02
43.38
41.73
40.18
38.8
37.63
36.77
36.25
36.13
36.28
36.53
36.61
36.28
35.41
33.97
32.06
29.84
27.53
25.31
23.34
21.63
20.08
18.52
16.74
14.65
12.31
9.88
7.58
5.54
3.76
2.14
0.5
-1.35
-3.52
-6.07
-8.93
-11.97
-15.03
-17.97
-20.72
-23.31
-25.88
-28.61
-31.79
-35.65
-40.35
-45.79
-51.51
-56.61
-59.97
-60.5
-57.51
-51.01
-41.69
-30.7
-19.31
-8.55
0.92
8.82
15.1
19.89
23.32
25.6
26.98
27.71
28.01
27.95
27.55
26.75
25.52
23.96
22.31
20.88
19.95
19.71
20.11
20.96
21.93
22.7
22.98
22.59
21.5
19.78
17.63
15.3
13.02
10.91
8.93
6.93
4.76
2.33
-0.34
-3.09
-5.76
-8.18
-10.29
-12.12
-13.81
-15.6
-17.83
-20.8
-24.64
-29.16
-33.87
-38.09
-41.24
-43.06
-43.67
-43.47
-42.92
-42.43
-42.31
-42.89
-44.51
-47.53
-52.04
-57.66
-63.45
-68.06
-70.15
-68.82
-63.95
-56.15
-46.53
-36.3
-26.38
-17.22
-8.9
-1.34
5.48
11.45
16.35
20.06
22.66
24.42
25.72
26.86
28.05
29.39
31.08
33.47
36.99
41.9
48.04
54.68
60.75
65.15
67.21
66.96
64.98
62.2
59.43
57.16
55.48
54.2
52.95
51.22
48.43
44.12
38.16
31.12
24.2
19.03
17.07
19.15
25.16
34.2
44.85
55.63
65.21
72.51
76.8
77.71
75.26
69.78
61.75
51.56
39.47
25.83
11.29
-2.96
-15.33
-24.19
-28.3
-27.15
-21.14
-11.4
0.34
12.16
22.18
28.84
31.21
29.18
23.57
16.02
8.71
3.75
2.37
4.35
7.94
10.68
10.57
7.23
2.44
-0.55
1.7
11.31
28.25
50.38
74.33
96.61
114.44
126.11
130.85
128.61
119.83
105.39
86.57
64.96
42.26
20.01
-0.59
-18.91
-34.79
-48.41
-60.03
-69.86
-77.99
-84.42
-89.22
-92.54
-94.68
-96.04
-97.05
-98.08
-99.32
-100.7
-101.83
-102.17
-101.24
-98.93
-95.63
-92.12
-89.31
-87.79
-87.53
-87.77
-87.16
-84.16
-77.53
-66.75
-52.28
-35.42
-18.08
-2.18
10.81
20.2
26.09
29.25
30.7
31.34
31.81
32.38
33.04
33.69
34.15
34.2
33.64
32.26
30.0
27.06
23.88
21.03
19.01
17.95
17.62
17.48
16.87
15.35
12.68
8.93
4.39
-0.53
-5.44
-9.94
-13.81
-17.01
-19.69
-22.06
-24.41
-26.89
-29.51
-32.14
-34.6
-36.7
-38.34
-39.52
-40.43
-41.44
-43.02
-45.63
-49.46
-54.29
-59.35
-63.4
-65.06
-63.24
-57.5
-48.26
-36.63
-24.09
-12.0
-1.31
7.51
14.44
19.63
23.26
25.45
26.29
25.94
24.64
22.73
20.61
18.65
17.2
16.54
16.86
18.22
20.51
23.46
26.64
29.54
31.69
32.78
32.69
31.52
29.47
26.8
23.74
20.47
17.07
13.63
10.19
6.74
3.26
-0.28
-3.91
-7.66
-11.53
-15.53
-19.67
-23.98
-28.43
-32.9
-36.98
-39.96
-40.95
-39.14
-34.09
-26.03
-15.84
-4.83
5.61
14.38
20.84
24.81
26.5
26.33
24.8
22.52
20.0
17.64
15.58
13.79
12.21
10.87
9.95
9.68
10.22
11.46
12.98
14.14
14.34
13.21
10.83
7.63
4.42
2.16
1.93
4.65
10.82
20.18
31.48
42.65
51.31
55.51
54.34
48.13
38.13
26.0
13.19
0.78
-10.4
-19.61
-26.06
-29.13
-28.68
-25.18
-19.7
-13.54
-7.88
-3.48
-0.59
0.99
1.68
1.96
2.21
2.68
3.41
4.26
5.0
5.46
5.63
5.71
6.06
7.02
8.76
11.18
14.02
16.95
19.66
21.98
23.81
25.07
25.61
25.34
24.22
22.39
20.1
17.7
15.52
13.76
12.46
11.43
10.36
8.84
6.59
3.47
-0.37
-4.56
-8.73
-12.49
-15.72
-18.47
-20.98
-23.56
-26.6
-30.49
-35.53
-41.79
-48.92
-56.03
-61.86
-65.04
-64.55
-60.11
-52.19
-41.91
-30.69
-19.85
-10.43
-3.1
1.98
5.04
6.65
7.63
8.76
10.54
13.04
15.95
18.82
21.27
23.24
24.9
26.54
28.37
30.43
32.58
34.66
36.52
38.08
39.28
40.03
40.25
39.92
39.13
38.01
36.61
34.81
32.3
28.7
23.8
17.75
11.09
4.59
-1.09
-5.5
-8.6
-10.64
-11.97
-13.01
-14.09
-15.45
-17.21
-19.41
-22.0
-24.82
-27.73
-30.57
-33.32
-36.15
-39.34
-43.17
-47.68
-52.48
-56.63
-58.9
-58.05
-53.44
-45.24
-34.48
-22.71
-11.46
-1.86
5.53
10.66
13.76
15.18
15.34
14.66
13.61
12.55
11.64
10.83
9.9
8.66
7.14
5.65
4.7
4.81
6.3
9.08
12.66
16.28
19.12
20.57
20.34
18.59
15.8
12.56
9.43
6.72
4.47
2.48
0.48
-1.87
-4.84
-8.63
-13.26
-18.64
-24.46
-30.29
-35.67
-40.17
-43.6
-45.98
-47.54
-48.59
-49.33
-49.88
-50.14
-50.02
-49.45
-48.48
-47.21
-45.88
-44.72
-43.92
-43.69
-44.02
-44.7
-45.24
-44.95
-43.18
-39.6
-34.36
-28.06
-21.52
-15.43
-10.14
-5.6
-1.52
2.42
6.45
10.6
14.8
18.83
22.53
25.73
28.44
30.79
33.05
35.52
38.43
41.76
45.29
48.66
51.53
53.62
54.78
54.94
54.09
52.24
49.58
46.37
43.02
39.94
37.41
35.51
34.09
32.85
31.45
29.63
27.29
24.5
21.4
18.18
15.01
12.02
9.33
7.0
5.13
3.73
2.81
2.27
1.99
1.8
1.58
1.21
0.6
-0.27
-1.48
-3.02
-4.9
-7.11
-9.57
-12.17
-14.66
-16.66
-17.67
-17.31
-15.31
-11.79
-7.16
-2.04
2.9
7.19
10.55
13.0
14.64
15.69
16.36
16.81
17.18
17.48
17.65
17.45
16.72
15.35
13.44
11.33
9.47
8.32
8.09
8.79
10.1
11.56
12.65
13.0
12.38
10.76
8.34
5.4
2.35
-0.41
-2.56
-3.92
-4.51
-4.54
-4.29
-4.02
-3.91
-3.98
-4.1
-4.1
-3.86
-3.39
-2.84
-2.5
-2.65
-3.49
-5.03
-7.15
-9.62
-12.16
-14.57
-16.72
-18.54
-20.07
-21.39
-22.67
-24.15
-26.06
-28.58
-31.69
-35.12
-38.31
-40.52
-41.05
-39.44
-35.66
-30.13
-23.67
-17.19
-11.51
-7.19
-4.33
-2.74
-1.97
-1.54
-1.1
-0.48
0.26
0.93
1.3
1.17
0.57
-0.36
-1.35
-2.08
-2.25
-1.62
-0.09
2.33
5.4
8.7
11.68
13.8
14.64
14.04
12.06
8.92
4.97
0.55
-3.94
-8.05
-11.33
-13.41
-14.12
-13.58
-12.12
-10.19
-8.2
-6.45
-5.11
-4.25
-3.9
-4.03
-4.53
-5.22
-5.91
-6.44
-6.78
-7.0
-7.26
-7.68
-8.39
-9.45
-10.91
-12.85
-15.28
-18.19
-21.51
-25.08
-28.6
-31.61
-33.61
-33.99
-32.27
-28.21
-21.93
-13.97
-5.16
3.59
11.48
18.08
23.34
27.53
31.07
34.33
37.51
40.63
43.48
45.79
47.34
48.02
47.86
47.07
45.92
44.69
43.64
42.91
42.58
42.69
43.27
44.29
45.65
47.09
48.19
48.43
47.34
44.6
40.09
33.89
26.16
17.09
6.94
-3.88
-14.69
-24.64
-32.86
-38.78
-42.46
-44.61
-46.49
-49.52
-54.82
-62.91
-73.55
-85.95
-99.1
-112.1
-124.4
-135.77
-146.21
-155.68
-163.91
-170.4
-174.43
-175.34
-172.61
-166.09
-155.91
-142.46
-126.27
-107.88
-87.79
-66.49
-44.39
-21.98
0.21
21.6
41.67
59.99
76.11
89.51
99.47
105.21
106.17
102.36
94.62
84.56
74.21
65.42
59.39
56.46
56.24
57.88
60.56
63.56
66.44
68.86
70.58
71.35
71.04
69.7
67.71
65.72
64.37
64.05
64.62
65.44
65.64
64.52
61.86
57.97
53.46
48.81
44.12
39.02
32.96
25.63
17.18
8.23
-0.43
-8.16
-14.77
-20.45
-25.58
-30.49
-35.3
-39.94
-44.33
-48.47
-52.51
-56.77
-61.64
-67.48
-74.49
-82.5
-90.87
-98.45
-103.78
-105.41
-102.36
-94.42
-82.12
-66.64
-49.43
-32.0
-15.57
-1.03
11.12
20.68
27.63
32.08
34.2
34.23
32.54
29.73
26.59
23.95
22.53
22.75
24.63
27.91
32.22
37.15
42.39
47.56
52.22
55.87
58.04
58.47
57.21
54.67
51.46
48.21
45.38
43.16
41.51
40.19
38.9
37.33
35.24
32.48
29.06
25.09
20.83
16.56
12.52
8.75
5.13
1.4
-2.71
-7.33
-12.43
-17.87
-23.39
-28.81
-33.97
-38.85
-43.57
-48.39
-53.68
-59.89
-67.29
-75.7
-84.31
-91.77
-96.4
-96.75
-91.97
-82.09
-68.03
-51.27
-33.5
-16.24
-0.61
12.72
23.52
31.88
38.08
42.44
45.28
46.83
47.27
46.8
45.74
44.5
43.51
43.17
43.65
44.96
46.91
49.22
51.61
53.77
55.42
56.33
56.34
55.4
53.6
51.15
48.22
45.0
41.58
38.05
34.54
31.2
28.17
25.44
22.89
20.33
17.59
14.58
11.39
8.18
5.05
2.03
-0.97
-4.13
-7.66
-11.73
-16.42
-21.65
-27.14
-32.52
-37.36
-41.42
-44.78
-47.81
-51.14
-55.41
-61.08
-68.15
-76.14
-83.98
-90.21
-93.26
-91.78
-85.1
-73.41
-57.82
-40.04
-21.89
-4.95
9.75
21.73
30.91
37.39
41.39
43.2
43.25
42.09
40.33
38.57
37.32
36.96
37.69
39.54
42.35
45.81
49.43
52.77
55.44
57.25
58.17
58.22
57.46
55.96
53.72
50.83
47.5
43.98
40.5
37.24
34.21
31.3
28.38
25.33
22.08
18.69
15.28
12.03
9.08
6.52
4.23
2.0
-0.51
-3.56
-7.31
-11.75
-16.71
-21.95
-27.25
-32.48
-37.66
-42.89
-48.44
-54.61
-61.68
-69.61
-77.89
-85.43
-90.78
-92.42
-89.28
-81.14
-68.58
-52.86
-35.5
-17.95
-1.36
13.39
25.67
35.13
41.69
45.62
47.49
47.99
47.75
47.24
46.78
46.6
46.94
47.92
49.51
51.41
53.18
54.37
54.78
54.4
53.46
52.2
50.76
49.15
47.3
45.19
42.86
40.43
37.95
35.39
32.69
29.75
26.59
23.27
19.89
16.49
13.15
9.96
6.98
4.32
1.98
-0.16
-2.33
-4.89
-8.1
-12.06
-16.67
-21.68
-26.81
-31.83
-36.65
-41.24
-45.72
-50.3
-55.3
-61.06
-67.75
-75.13
-82.41
-88.26
-91.09
-89.56
-82.94
-71.47
-56.22
-38.89
-21.35
-5.2
8.47
19.17
26.93
32.17
35.44
37.28
38.09
38.13
37.56
36.56
35.41
34.43
33.93
34.16
35.21
36.99
39.26
41.75
44.16
46.28
47.9
48.91
49.2
48.76
47.56
45.64
43.09
40.05
36.7
33.22
29.8
26.57
23.61
20.87
18.29
15.77
13.26
10.79
8.45
6.3
4.28
2.18
-0.27
-3.33
-7.11
-11.57
-16.52
-21.71
-26.91
-31.93
-36.65
-41.01
-45.11
-49.22
-53.8
-59.41
-66.4
-74.59
-83.09
-90.36
-94.54
-94.0
-87.89
-76.46
-60.95
-43.25
-25.34
-8.81
5.33
16.69
25.3
31.43
35.45
37.79
38.88
39.12
38.85
38.31
37.7
37.19
36.93
37.1
37.81
39.1
40.85
42.86
44.9
46.7
48.06
48.78
48.72
47.79
45.95
43.26
39.87
36.01
31.98
28.01
24.3
20.89
17.74
14.74
11.77
8.79
5.8
2.9
0.11
-2.56
-5.26
-8.14
-11.39
-15.09
-19.25
-23.77
-28.49
-33.25
-37.85
-42.2
-46.24
-50.07
-53.93
-58.2
-63.23
-69.18
-75.83
-82.44
-87.83
-90.61
-89.6
-84.19
-74.54
-61.5
-46.41
-30.7
-15.61
-2.02
9.64
19.26
27.01
33.18
38.08
41.87
44.58
46.14
46.49
45.74
44.28
42.65
41.42
41.01
41.57
42.95
44.84
46.76
48.26
48.91
48.39
46.52
43.32
39.0
33.96
28.69
23.64
19.16
15.43
12.45
10.15
8.39
7.09
6.18
5.63
5.38
5.3
5.17
4.73
3.72
2.0
-0.5
-3.72
-7.52
-11.71
-16.03
-20.21
-23.98
-27.17
-29.8
-32.17
-34.78
-38.22
-43.03
-49.42
-57.23
-65.76
-73.88
-80.11
-83.01
-81.45
-75.03
-64.23
-50.3
-34.95
-19.88
-6.36
4.92
13.88
20.71
25.74
29.2
31.28
32.15
32.02
31.21
30.07
28.98
28.22
27.98
28.37
29.4
31.0
33.0
35.15
37.12
38.55
39.13
38.66
37.09
34.61
31.46
27.96
24.35
20.74
17.22
13.83
10.66
7.79
5.32
3.2
1.25
-0.78
-3.11
-5.83
-8.84
-11.98
-15.07
-18.0
-20.77
-23.46
-26.16
-29.09
-32.57
-36.95
-42.49
-49.11
-56.12
-62.25
-65.89
-65.6
-60.6
-51.07
-38.03
-23.01
-7.59
6.98
19.88
30.67
39.22
45.59
49.98
52.74
54.27
55.0
55.29
55.44
55.72
56.4
57.68
59.7
62.49
65.86
69.53
73.13
76.3
78.82
80.61
81.75
82.4
82.62
82.34
81.32
79.25
75.93
71.38
65.91
60.01
54.2
48.88
44.28
40.45
37.39
35.05
33.35
32.06
30.73
28.68
25.2
19.75
12.17
2.73
-8.03
-19.57
-31.53
-43.88
-56.74
-70.28
-84.51
-99.17
-113.7
-127.15
-138.34
-145.94
-148.86
-146.57
-139.41
-128.53
-115.64
-102.47
-90.3
-79.68
-70.47
-62.22
-54.36
-46.53
-38.51
-30.18
-21.52
-12.53
-3.38
5.62
14.07
21.69
28.43
34.53
40.38
46.32
52.43
58.43
63.77
67.83
70.15
70.56
69.13
66.19
62.09
57.23
51.98
46.71
41.81
37.7
34.78
33.27
33.13
33.95
35.06
35.68
35.19
33.32
30.26
26.52
22.75
19.51
17.06
15.41
14.29
13.29
11.97
9.92
6.82
2.57
-2.8
-9.07
-15.96
-23.28
-30.96
-39.15
-48.05
-57.72
-67.85
-77.62
-85.77
-90.98
-92.31
-89.54
-83.25
-74.66
-65.13
-55.71
-46.94
-38.91
-31.5
-24.66
-18.51
-13.21
-8.87
-5.38
-2.46
0.22
2.8
5.25
7.4
9.17
10.67
12.26
14.34
17.19
20.69
24.38
27.57
29.63
30.16
29.18
26.96
23.98
20.7
17.48
14.54
12.05
10.12
8.85
8.23
8.19
8.56
9.09
9.48
9.44
8.75
7.28
5.1
2.39
-0.6
-3.68
-6.76
-9.91
-13.25
-16.88
-20.8
-24.9
-28.95
-32.75
-36.21
-39.4
-42.62
-46.3
-50.91
-56.71
-63.58
-70.88
-77.49
-82.05
-83.37
-80.7
-73.94
-63.69
-50.99
-37.17
-23.5
-11.08
-0.63
7.58
13.65
17.98
21.0
23.01
24.08
24.16
23.27
21.6
19.57
17.67
16.28
15.65
15.83
16.76
18.34
20.38
22.59
24.52
25.65
25.53
23.99
21.15
17.38
13.14
8.83
4.68
0.82
-2.66
-5.61
-7.86
-9.26
-9.77
-9.49
-8.67
-7.6
-6.61
-6.06
-6.28
-7.53
-9.91
-13.24
-17.14
-21.14
-24.95
-28.57
-32.27
-36.41
-40.96
-45.43
-48.77
-49.77
-47.42
-41.33
-31.85
-19.95
-6.9
6.09
18.03
28.26
36.42
42.4
46.33
48.52
49.43
49.55
49.28
48.87
48.43
48.0
47.64
47.46
47.66
48.51
50.25
53.02
56.7
60.83
64.61
66.9
66.58
62.79
55.36
44.82
32.25
19.0
6.2
-5.41
-15.48
-23.94
-30.75
-35.74
-38.7
-39.54
-38.47
-36.06
-33.19
-30.77
-29.57
-29.95
-31.85
-34.83
-38.32
-41.77
-44.94
-47.86
-50.8
-54.11
-58.02
-62.61
-67.76
-73.13
-78.14
-82.0
-83.74
-82.48
-77.62
-69.12
-57.64
-44.34
-30.6
-17.61
-6.14
3.61
11.75
18.61
24.5
29.59
33.93
37.45
40.1
41.83
42.71
42.96
42.91
42.96
43.47
44.6
46.24
48.01
49.4
49.95
49.41
47.78
45.29
42.22
38.93
35.67
32.64
29.87
27.32
24.84
22.33
19.76
17.17
14.72
12.5
10.52
8.69
6.84
4.91
2.91
0.96
-0.86
-2.58
-4.4
-6.63
-9.56
-13.28
-17.7
-22.47
-27.18
-31.48
-35.22
-38.49
-41.62
-44.97
-48.98
-53.94
-59.89
-66.48
-72.89
-77.84
-79.87
-77.8
-71.08
-60.13
-46.16
-30.87
-15.95
-2.63
8.43
17.13
23.66
28.32
31.4
33.19
33.96
34.04
33.73
33.27
32.82
32.42
32.13
32.05
32.34
33.13
34.4
35.92
37.29
38.09
38.04
37.12
35.51
33.52
31.41
29.33
27.36
25.48
23.69
21.98
20.44
19.14
18.22
17.76
17.75
18.04
18.32
18.23
17.39
15.53
12.53
8.36
3.16
-2.84
-9.25
-15.64
-21.52
-26.46
-30.25
-32.9
-34.73
-36.25
-38.1
-40.84
-44.91
-50.52
-57.59
-65.6
-73.63
-80.39
-84.41
-84.41
-79.72
-70.52
-57.84
-43.29
-28.66
-15.4
-4.38
4.22
10.77
15.92
20.33
24.53
28.72
32.79
36.39
39.1
40.62
40.98
40.46
39.68
39.26
39.67
41.11
43.41
46.13
48.74
50.74
51.8
51.8
50.83
49.04
46.63
43.84
40.85
37.8
34.76
31.68
28.42
24.86
20.95
16.87
12.98
9.65
7.08
5.28
3.99
2.88
1.69
0.28
-1.35
-3.16
-5.18
-7.46
-10.05
-12.92
-15.96
-19.07
-22.23
-25.56
-29.33
-33.85
-39.38
-46.0
-53.58
-61.64
-69.36
-75.65
-79.32
-79.32
-75.09
-66.75
-55.13
-41.55
-27.54
-14.42
-3.12
5.93
12.72
17.47
20.46
21.96
22.22
21.56
20.4
19.19
18.37
18.2
18.7
19.67
20.79
21.84
22.7
23.39
23.99
24.51
24.8
24.62
23.73
21.93
19.23
15.78
11.9
7.97
4.38
1.43
-0.72
-2.09
-2.89
-3.46
-4.17
-5.31
-7.02
-9.32
-12.07
-15.08
-18.09
-20.82
-23.05
-24.65
-25.7
-26.53
-27.75
-30.04
-33.89
-39.37
-45.88
-52.26
-56.99
-58.67
-56.39
-50.02
-40.18
-28.06
-15.06
-2.47
8.79
18.18
25.52
30.88
34.41
36.32
36.78
35.96
34.15
31.69
29.02
26.59
24.81
23.85
23.75
24.34
25.36
26.5
27.55
28.36
28.86
29.08
29.05
28.72
28.02
26.87
25.32
23.59
22.01
20.86
20.21
19.78
19.1
17.68
15.22
11.83
7.84
3.65
-0.49
-4.55
-8.66
-12.91
-17.25
-21.48
-25.37
-28.75
-31.67
-34.29
-36.89
-39.84
-43.48
-48.16
-54.12
-61.27
-69.04
-76.33
-81.69
-83.66
-81.27
-74.34
-63.62
-50.43
-36.34
-22.74
-10.61
-0.47
7.5
13.4
17.53
20.32
22.3
23.95
25.63
27.5
29.66
32.14
35.05
38.52
42.55
47.0
51.44
55.3
57.95
58.91
57.96
55.18
50.95
45.86
40.59
35.77
31.85
28.95
26.88
25.15
23.13
20.3
16.36
11.38
5.79
0.13
-5.01
-9.28
-12.55
-14.92
-16.61
-17.87
-18.94
-20.1
-21.66
-23.95
-27.25
-31.69
-37.1
-43.02
-48.68
-53.13
-55.43
-54.91
-51.42
-45.36
-37.63
-29.26
-21.03
-13.18
-5.4
3.02
12.86
24.66
38.47
53.82
69.66
84.45
96.36
103.68
105.28
100.96
91.57
78.8
64.6
50.74
38.39
28.14
20.18
14.44
10.76
8.86
8.35
8.68
9.32
9.84
10.07
10.11
10.21
10.59
11.27
12.04
12.44
11.95
10.17
6.99
2.64
-2.36
-7.33
-11.6
-14.67
-16.31
-16.57
-15.68
-13.96
-11.69
-9.07
-6.28
-3.57
-1.35
-0.11
-0.27
-2.03
-5.28
-9.63
-14.52
-19.39
-23.87
-27.8
-31.25
-34.47
-37.84
-41.81
-46.74
-52.77
-59.59
-66.35
-71.78
-74.47
-73.21
-67.41
-57.28
-43.75
-28.25
-12.45
2.19
14.58
24.09
30.59
34.24
35.43
34.63
32.33
29.02
25.16
21.18
17.47
14.32
11.95
10.47
9.93
10.29
11.44
13.13
14.99
16.6
17.58
17.62
16.6
14.57
11.76
8.49
5.19
2.22
-0.12
-1.7
-2.68
-3.32
-4.0
-5.03
-6.53
-8.4
-10.37
-12.12
-13.42
-14.34
-15.13
-16.17
-17.73
-19.82
-22.28
-24.83
-27.33
-29.81
-32.53
-35.8
-39.93
-45.18
-51.65
-59.23
-67.46
-75.4
-81.71
-84.98
-84.12
-78.87
-69.87
-58.45
-46.25
-34.71
-24.87
-17.26
-12.05
-9.16
-8.24
-8.74
-9.86
-10.77
-10.82
-9.78
-7.85
-5.58
-3.54
-2.1
-1.18
-0.32
1.14
3.84
8.1
13.85
20.61
27.61
34.03
39.17
42.59
44.2
44.17
42.81
40.48
37.45
34.02
30.46
27.06
24.06
21.64
19.94
18.97
18.72
19.11
19.97
20.97
21.72
21.79
20.83
18.57
14.88
9.67
2.97
-4.89
-13.15
-20.57
-25.62
-26.88
-23.56
-15.74
-4.48
8.61
21.78
33.57
43.07
49.93
54.2
56.18
56.31
55.08
52.94
50.3
47.51
44.77
42.26
40.07
38.25
36.89
36.01
35.67
35.89
36.65
37.81
39.1
40.19
40.69
40.39
39.24
37.32
34.8
31.82
28.52
25.0
21.37
17.73
14.15
10.61
7.03
3.35
-0.42
-4.14
-7.63
-10.79
-13.68
-16.58
-19.84
-23.75
-28.25
-33.01
-37.43
-40.92
-43.23
-44.53
-45.35
-46.43
-48.45
-51.83
-56.68
-62.68
-69.11
-74.88
-78.65
-79.15
-75.52
-67.59
-56.02
-42.06
-27.28
-13.1
-0.58
9.74
17.76
23.67
27.82
30.62
32.44
33.56
34.19
34.38
34.15
33.49
32.41
31.04
29.63
28.47
27.85
27.93
28.69
29.99
31.58
33.13
34.32
34.84
34.4
32.86
30.28
26.95
23.37
20.08
17.47
15.69
14.62
13.88
13.09
11.93
10.24
8.06
5.52
2.76
-0.11
-3.06
-6.17
-9.53
-13.24
-17.33
-21.68
-26.08
-30.22
-33.89
-37.04
-39.83
-42.59
-45.67
-49.43
-54.0
-59.36
-65.1
-70.46
-74.35
-75.51
-72.87
-65.95
-55.14
-41.67
-27.28
-13.78
-2.58
5.6
10.69
13.08
13.4
12.27
10.22
7.61
4.73
1.87
-0.69
-2.58
-3.45
-3.04
-1.33
1.4
4.68
8.0
11.14
14.25
17.85
22.56
28.74
36.1
43.74
50.3
54.44
55.22
52.27
45.76
36.22
24.82
13.79
6.75
8.22
21.98
48.96
85.75
124.88
157.27
175.52
176.76
163.27
140.75
115.31
91.0
68.97
48.49
28.64
9.51
-7.94
-22.98
-35.97
-48.34
-61.48
-75.42
-88.12
-95.97
-95.33
-84.32
-63.91
-37.74
-10.87
11.94
27.57
35.18
35.81
31.57
24.68
16.71
8.42
-0.16
-9.27
-19.01
-29.1
-38.86
-47.34
-53.58
-56.54
-55.1
-48.21
-35.3
-16.89
5.02
27.23
46.3
59.75
66.95
69.17
68.63
67.34
66.16
64.72
61.94
57.01
49.97
41.76
33.79
27.24
22.58
19.54
17.33
15.15
12.45
8.98
4.63
-0.85
-7.95
-17.27
-29.13
-43.28
-58.73
-73.97
-87.6
-98.77
-107.49
-114.41
-120.26
-125.3
-129.1
-130.63
-128.87
-123.31
-114.28
-102.86
-90.46
-78.4
-67.48
-58.06
-50.2
-43.86
-39.04
-35.73
-33.85
-33.14
-33.14
-33.38
-33.42
-33.05
-32.31
-31.42
-30.68
-30.26
-30.17
-30.26
-30.31
-30.1
-29.54
-28.61
-27.21
-25.18
-22.33
-18.65
-14.34
-9.85
-5.52
-1.37
3.02
8.33
15.04
23.14
31.9
40.19
46.84
51.02
52.42
51.08
47.19
40.88
32.28
21.71
9.79
-2.57
-14.36
-24.67
-32.88
-38.67
-41.92
-42.6
-40.86
-37.1
-32.14
-27.22
-23.68
-22.6
-24.31
-28.16
-32.68
-36.03
-36.65
-33.65
-27.14
-18.01
-7.6
2.72
11.94
19.54
25.41
29.75
32.8
34.76
35.78
35.89
35.09
33.46
31.13
28.29
25.2
22.16
19.48
17.53
16.64
17.04
18.73
21.42
24.52
27.27
29.03
29.39
28.33
26.18
23.46
20.65
18.09
15.93
14.18
12.77
11.63
10.68
9.84
8.94
7.81
6.31
4.36
2.04
-0.43
-2.85
-5.05
-6.99
-8.78
-10.62
-12.68
-15.08
-17.83
-20.8
-23.79
-26.63
-29.27
-31.87
-34.72
-38.25
-42.84
-48.63
-55.4
-62.42
-68.55
-72.37
-72.59
-68.37
-59.68
-47.32
-32.76
-17.75
-3.89
7.73
16.61
22.79
26.64
28.65
29.3
28.98
28.0
26.63
25.12
23.74
22.65
21.98
21.78
22.07
22.85
24.1
25.75
27.67
29.69
31.49
32.71
32.99
32.02
29.76
26.42
22.47
18.51
14.98
12.09
9.65
7.36
4.87
2.06
-0.95
-3.97
-6.79
-9.42
-11.97
-14.57
-17.29
-20.11
-22.94
-25.75
-28.58
-31.55
-34.76
-38.35
-42.43
-47.16
-52.77
-59.39
-66.85
-74.51
-81.12
-85.14
-85.08
-80.08
-70.22
-56.53
-40.67
-24.45
-9.34
3.77
14.51
22.91
29.12
33.41
36.07
37.54
38.23
38.57
38.88
39.24
39.66
40.09
40.52
41.05
41.84
43.03
44.66
46.62
48.65
50.43
51.59
51.89
51.21
49.64
47.27
44.25
40.71
36.78
32.68
28.64
24.96
21.76
18.95
16.24
13.31
9.95
6.27
2.64
-0.57
-3.18
-5.36
-7.57
-10.35
-14.06
-18.74
-24.14
-29.86
-35.51
-40.81
-45.63
-50.0
-54.19
-58.61
-63.78
-70.06
-77.29
-84.61
-90.46
-92.99
-90.63
-82.75
-69.86
-53.47
-35.6
-18.16
-2.58
10.35
20.36
27.53
32.16
34.74
35.87
36.18
36.21
36.23
36.31
36.36
36.36
36.43
36.9
38.15
40.35
43.4
46.83
50.02
52.36
53.54
53.54
52.55
50.86
48.64
46.0
42.96
39.55
36.01
32.61
29.6
27.1
25.01
23.08
21.06
18.78
16.3
13.83
11.55
9.52
7.57
5.35
2.43
-1.46
-6.39
-12.13
-18.21
-24.13
-29.49
-34.11
-38.09
-41.8
-45.75
-50.51
-56.51
-63.83
-72.02
-79.99
-86.11
-88.64
-86.14
-78.07
-64.98
-48.4
-30.39
-12.96
2.34
14.71
23.91
30.25
34.22
36.42
37.43
37.75
37.79
37.79
37.91
38.18
38.62
39.27
40.14
41.3
42.76
44.48
46.38
48.37
50.32
52.06
53.38
54.04
53.81
52.53
50.23
47.14
43.65
40.15
36.91
34.0
31.33
28.75
26.17
23.6
21.11
18.81
16.71
14.76
12.84
10.79
8.48
5.76
2.49
-1.37
-5.83
-10.75
-15.9
-21.05
-26.07
-30.95
-35.81
-40.89
-46.46
-52.77
-59.85
-67.36
-74.47
-79.87
-82.0
-79.57
-72.02
-59.81
-44.34
-27.54
-11.29
2.99
14.52
23.12
28.98
32.5
34.21
34.6
34.18
33.39
32.52
31.74
31.14
30.75
30.62
30.84
31.49
32.63
34.21
36.1
38.0
39.58
40.52
40.62
39.88
38.47
36.64
34.58
32.4
30.09
27.56
24.8
21.86
18.91
16.18
13.89
12.14
10.92
10.06
9.27
8.28
6.84
4.83
2.3
-0.58
-3.61
-6.61
-9.61
-12.79
-16.49
-21.03
-26.43
-32.2
-37.32
-40.36
-39.85
-34.84
-25.16
-11.58
4.42
21.07
36.78
50.43
61.49
69.91
75.94
79.94
82.3
83.38
83.6
83.41
83.26
83.53
84.41
85.89
87.79
89.85
91.84
93.57
94.85
95.47
95.11
93.44
90.17
85.16
78.5
70.47
61.47
51.96
42.31
32.75
23.34
14.01
4.71
-4.57
-13.7
-22.5
-30.8
-38.57
-45.95
-53.16
-60.37
-67.58
-74.54
-80.88
-86.22
-90.38
-93.38
-95.44
-96.84
-97.94
-99.07
-100.67
-103.19
-106.9
-111.62
-116.44
-119.74
-119.55
-114.26
-103.26
-87.27
-68.17
-48.38
-30.17
-15.03
-3.56
4.49
9.77
13.07
15.03
16.13
16.69
16.91
16.91
16.8
16.62
16.38
16.1
15.88
15.9
16.38
17.54
19.41
21.79
24.26
26.24
27.21
26.84
25.11
22.27
18.82
15.29
12.17
9.66
7.67
5.83
3.74
1.14
-1.96
-5.26
-8.32
-10.79
-12.58
-13.95
-15.38
-17.34
-20.1
-23.64
-27.59
-31.48
-34.9
-37.7
-40.06
-42.36
-45.12
-48.81
-53.7
-59.7
-66.26
-72.26
-76.17
-76.38
-71.7
-61.84
-47.65
-30.97
-14.05
1.05
12.99
21.32
26.31
28.64
29.08
28.28
26.72
24.76
22.7
20.83
19.41
18.62
18.56
19.12
20.14
21.38
22.66
23.88
24.97
25.95
26.68
27.03
26.74
25.61
23.56
20.69
17.29
13.77
10.53
7.77
5.5
3.51
1.5
-0.76
-3.29
-5.9
-8.29
-10.22
-11.65
-12.81
-14.06
-15.81
-18.29
-21.47
-25.06
-28.66
-31.91
-34.69
-37.16
-39.82
-43.24
-47.94
-54.06
-61.25
-68.51
-74.33
-77.03
-75.22
-68.25
-56.59
-41.66
-25.52
-10.26
2.56
12.18
18.6
22.32
24.0
24.16
23.15
21.23
18.66
15.78
13.05
10.91
9.69
9.52
10.29
11.77
