36.05
36.83
37.71
38.39
38.49
37.7
35.93
33.35
30.37
27.43
24.82
22.58
20.5
18.27
15.63
12.46
8.8
4.8
0.64
-3.5
-7.48
-11.2
-14.64
-17.86
-20.98
-24.12
-27.31
-30.5
-33.61
-36.63
-39.73
-43.26
-47.66
-53.33
-60.4
-68.55
-76.95
-84.27
-88.92
-89.45
-84.95
-75.42
-61.81
-45.81
-29.35
-14.13
-1.21
9.09
16.99
23.02
27.69
31.33
34.08
35.99
37.08
37.5
37.45
37.21
37.05
37.18
37.71
38.68
40.04
41.75
43.71
45.76
47.64
48.97
49.34
48.4
46.0
42.28
37.66
32.75
28.17
24.36
21.52
19.53
18.05
16.7
15.16
13.32
11.23
9.0
6.69
4.18
1.22
-2.47
-6.99
-12.2
-17.67
-22.91
-27.47
-31.2
-34.24
-36.99
-40.0
-43.88
-49.03
-55.57
-63.05
-70.46
-76.36
-79.19
-77.77
-71.62
-61.25
-47.93
-33.37
-19.19
-6.6
3.81
11.93
17.96
22.12
24.59
25.57
25.29
24.2
22.77
21.5
20.7
20.49
20.81
21.6
22.84
24.51
26.59
28.85
30.91
32.33
32.79
32.17
30.59
28.31
25.56
22.5
19.25
15.88
12.49
9.17
5.94
2.73
-0.59
-4.17
-8.07
-12.23
-16.49
-20.68
-24.65
-28.35
-31.78
-35.04
-38.24
-41.58
-45.35
-49.79
-55.09
-61.08
-67.19
-72.41
-75.51
-75.39
-71.49
-63.95
-53.49
-41.22
-28.22
-15.32
-3.08
8.13
18.0
26.25
32.65
37.16
39.93
41.28
41.6
41.26
40.59
39.95
39.7
40.18
41.6
43.91
46.84
49.9
52.51
54.22
54.78
54.12
52.33
49.66
46.39
42.84
39.26
35.8
32.52
29.39
26.34
23.34
20.38
17.46
14.58
11.66
8.57
5.23
1.58
-2.36
-6.5
-10.72
-14.91
-19.01
-22.99
-26.89
-30.83
-35.02
-39.77
-45.27
-51.42
-57.65
-62.87
-65.71
-65.0
-60.08
-51.13
-39.15
-25.61
-12.04
0.4
11.08
19.85
26.85
32.26
36.18
38.66
39.75
39.69
38.81
37.53
36.22
35.08
34.16
33.45
32.92
32.62
32.61
32.87
33.27
33.46
33.09
31.81
29.44
26.0
21.7
16.92
12.05
7.48
3.42
-0.11
-3.3
-6.52
-10.24
-14.82
-20.31
-26.26
-31.7
-35.25
-35.59
-31.85
-24.06
-13.28
-1.38
9.55
17.73
22.12
22.54
19.49
13.78
6.23
-2.47
-11.86
-21.55
-31.02
-39.55
-46.09
-49.47
-48.71
-43.3
-33.47
-20.08
-4.55
11.53
26.61
39.42
49.02
54.99
57.45
57.09
54.97
52.2
49.48
46.82
43.61
38.94
32.2
23.5
13.79
4.64
-2.31
-5.93
-5.91
-2.76
2.49
8.79
15.44
22.16
28.88
35.5
41.65
46.73
50.15
51.58
50.95
48.36
43.81
37.12
28.07
16.72
3.72
-9.66
-21.88
-31.59
-38.11
-41.62
-43.02
-43.52
-44.24
-45.97
-48.99
-53.13
-57.94
-62.77
-66.96
-70.05
-71.89
-72.73
-73.16
-73.97
-75.86
-79.2
-83.83
-88.99
-93.53
-96.06
-95.47
-91.13
-83.15
-72.34
-59.96
-47.43
-35.95
-26.26
-18.61
-12.9
-8.79
-5.93
-4.0
-2.69
-1.72
-0.74
0.54
2.41
5.07
8.64
13.21
18.77
25.24
32.38
39.81
47.01
53.37
58.38
61.58
62.73
61.77
58.89
54.5
49.12
43.34
37.62
32.3
27.57
23.4
19.64
15.99
12.09
7.63
2.47
-3.41
-9.72
-16.11
-22.18
-27.65
-32.4
-36.49
-40.17
-43.74
-47.51
-51.61
-55.86
-59.77
-62.54
-63.3
-61.36
-56.44
-48.75
-38.88
-27.69
-16.06
-4.75
5.71
14.99
22.89
29.33
34.27
37.67
39.58
40.11
39.51
38.21
36.68
35.44
34.85
35.08
36.04
37.48
39.07
40.43
41.26
41.33
40.45
38.52
35.57
31.73
27.33
22.77
18.5
14.83
11.84
9.4
7.17
4.82
2.21
-0.6
-3.38
-5.86
-7.87
-9.37
-10.54
-11.58
-12.74
-14.21
-16.18
-18.68
-21.68
-24.98
-28.27
-31.23
-33.69
-35.73
-37.64
-39.87
-42.72
-46.19
-49.78
-52.64
-53.81
-52.55
-48.61
-42.31
-34.39
-25.75
-17.19
-9.28
-2.28
3.73
8.85
13.21
16.91
19.96
22.3
23.75
24.18
23.59
22.17
20.3
18.47
17.09
16.38
16.35
16.88
17.8
18.96
20.25
21.55
22.71
23.51
23.71
23.15
21.79
19.75
17.34
14.91
12.77
11.11
9.99
9.37
9.15
9.25
9.61
10.18
10.89
11.6
12.19
12.46
12.27
11.5
10.12
8.14
5.67
2.89
0.02
-2.74
-5.3
-7.74
-10.29
-13.33
-17.2
-22.07
-27.76
-33.7
-39.0
-42.63
-43.71
-41.78
-36.9
-29.69
-21.07
-12.03
-3.46
4.0
10.04
14.64
17.93
20.2
21.7
22.61
23.01
22.87
22.17
20.96
19.44
17.84
16.5
15.65
15.42
15.79
16.64
17.8
19.08
20.31
21.31
21.86
21.71
20.69
18.77
16.15
13.21
10.41
8.07
6.3
4.99
3.89
2.68
1.19
-0.66
-2.79
-5.0
-7.09
-8.96
-10.65
-12.37
-14.4
-16.93
-20.0
-23.45
-27.01
-30.47
-33.77
-36.94
-40.14
-43.51
-47.26
-51.55
-56.49
-61.92
-67.35
-71.95
-74.71
-74.79
-71.76
-65.8
-57.54
-47.8
-37.33
-26.58
-15.75
-4.88
5.96
16.56
26.61
35.68
43.33
49.25
53.29
55.46
55.93
54.95
52.82
49.91
46.68
43.56
40.93
39.01
37.72
36.83
35.97
34.8
33.15
30.98
28.38
25.49
22.39
19.16
15.94
12.84
10.07
7.8
6.08
4.78
3.59
2.08
-0.05
-2.9
-6.28
-9.81
-13.04
-15.75
-17.99
-20.15
-22.67
-25.94
-29.99
-34.48
-38.73
-41.94
-43.45
-42.8
-39.81
-34.53
-27.21
-18.27
-8.42
1.45
10.36
17.48
22.31
24.8
25.29
24.32
22.48
20.34
18.4
17.1
16.71
17.31
18.66
20.26
21.56
22.12
21.76
20.6
18.91
16.99
15.05
13.13
11.14
8.91
6.16
2.64
-1.76
-6.84
-12.09
-16.79
-20.24
-22.07
-22.37
-21.66
-20.65
-19.88
-19.62
-19.87
-20.54
-21.65
-23.33
-25.72
-28.83
-32.52
-36.56
-40.8
-45.18
-49.65
-53.95
-57.44
-59.17
-58.22
-53.99
-46.63
-36.99
-26.31
-15.91
-6.74
0.72
6.43
10.58
13.46
15.29
16.26
16.57
16.43
16.05
15.67
15.44
15.46
15.82
16.57
17.76
19.47
21.77
24.64
27.97
31.5
34.91
37.87
40.16
41.65
42.38
42.45
41.99
41.09
39.8
38.1
35.96
33.3
30.15
26.64
22.91
19.14
15.43
11.73
7.82
3.34
-2.11
-8.95
-17.41
-27.39
-38.47
-49.85
-60.51
-69.53
-76.29
-80.63
-82.88
-83.7
-83.8
-83.74
-83.7
-83.46
-82.45
-79.96
-75.4
-68.46
-59.24
-48.18
-35.87
-22.91
-9.77
3.15
15.4
26.45
35.67
42.52
46.76
48.6
48.63
47.61
46.25
45.0
43.99
43.15
42.34
41.53
40.81
40.39
40.38
40.8
41.48
42.15
42.53
42.47
41.97
41.09
39.9
38.38
36.46
34.04
31.2
28.14
25.12
22.35
19.83
17.42
14.88
12.04
8.89
5.58
2.32
-0.7
-3.45
-5.97
-8.4
-10.87
-13.48
-16.25
-19.21
-22.38
-25.85
-29.69
-33.93
-38.56
-43.53
-48.79
-54.23
-59.56
-64.27
-67.62
-68.76
-67.04
-62.21
-54.54
-44.75
-33.82
-22.71
-12.23
-2.9
4.97
11.32
16.25
20.02
22.88
25.07
26.71
27.83
28.52
28.89
29.15
29.53
30.15
30.95
31.8
32.51
32.93
33.06
32.94
32.63
32.12
31.28
29.94
27.98
25.4
22.37
19.19
16.13
13.4
11.06
9.04
7.26
5.67
4.27
3.12
2.25
1.61
1.08
0.48
-0.43
-1.8
-3.72
-6.2
-9.11
-12.26
-15.47
-18.58
-21.48
-24.17
-26.72
-29.34
-32.32
-35.96
-40.54
-46.19
-52.76
-59.72
-66.2
-71.05
-73.15
-71.67
-66.29
-57.37
-45.76
-32.61
-19.04
-5.94
6.06
16.55
25.2
31.82
36.29
38.67
39.19
38.24
36.23
33.64
30.89
28.43
26.68
25.92
26.32
27.78
29.99
32.51
34.84
36.54
37.25
36.77
35.06
32.31
28.85
25.12
21.55
18.43
15.89
13.84
12.13
10.56
9.03
7.49
5.99
4.57
3.25
2.06
0.96
-0.03
-0.81
-1.26
-1.26
-0.75
0.21
1.33
2.25
2.5
1.74
-0.13
-2.84
-5.72
-7.74
-7.67
-4.3
3.25
15.21
31.01
49.14
67.45
83.55
95.47
102.02
102.97
98.84
90.56
78.97
64.76
48.52
31.02
13.38
-3.0
-16.74
-26.82
-32.84
-35.09
-34.26
-31.19
-26.65
-21.31
-15.91
-11.25
-8.22
-7.57
-9.6
-14.03
-19.99
-26.34
-32.0
-36.28
-38.99
-40.4
-41.08
-41.61
-42.52
-44.11
-46.46
-49.47
-52.86
-56.29
-59.4
-61.85
-63.37
-63.74
-62.95
-61.16
-58.86
-56.75
-55.64
-56.18
-58.58
-62.38
-66.47
-69.25
-69.04
-64.6
-55.45
-42.03
-25.53
-7.54
10.45
27.3
42.34
55.24
65.81
73.87
79.08
81.13
79.87
75.52
68.8
60.79
52.85
46.27
42.03
40.62
41.96
45.44
50.05
54.63
58.12
59.78
59.34
56.96
53.12
48.47
43.62
39.16
35.62
33.41
32.74
33.47
35.03
36.6
37.37
36.79
34.81
31.78
28.19
24.34
20.17
15.31
9.36
2.21
-5.85
-14.15
-21.94
-28.67
-34.27
-39.1
-43.85
-49.28
-55.96
-63.99
-72.99
-82.07
-89.96
-95.3
-96.96
-94.29
-87.4
-77.02
-64.39
-50.89
-37.78
-26.05
-16.32
-8.91
-3.85
-0.91
0.36
0.52
0.17
-0.23
-0.45
-0.45
-0.34
-0.25
-0.25
-0.25
-0.05
0.58
1.85
3.81
6.33
9.06
11.57
13.4
14.2
13.85
12.37
9.95
6.86
3.4
-0.16
-3.59
-6.74
-9.55
-12.06
-14.33
-16.43
-18.41
-20.28
-22.04
-23.7
-25.36
-27.17
-29.33
-32.05
-35.45
-39.56
-44.32
-49.51
-54.89
-60.21
-65.38
-70.44
-75.59
-81.05
-86.78
-92.41
-97.11
-99.78
-99.29
-94.84
-86.2
-73.79
-58.53
-41.66
-24.41
-7.84
7.34
20.7
32.09
41.57
49.3
55.51
60.4
64.07
66.51
67.69
67.62
66.49
64.69
62.76
61.18
60.32
60.19
60.53
60.88
60.73
59.7
57.64
54.67
51.07
47.19
43.25
39.35
35.42
31.4
27.27
23.15
19.17
15.45
12.02
8.83
5.76
2.77
-0.13
-2.85
-5.25
-7.24
-8.79
-10.01
-11.11
-12.38
-14.23
-17.04
-21.16
-26.8
-33.86
-41.85
-49.81
-56.44
-60.33
-60.31
-55.83
-47.1
-35.15
-21.5
-7.86
4.31
14.05
20.94
25.07
26.84
26.81
25.6
23.74
21.66
19.64
17.82
16.26
14.98
14.04
13.54
13.62
14.37
15.77
17.71
19.96
22.19
24.03
25.12
25.15
23.97
21.6
18.22
14.1
9.54
4.8
0.15
-4.18
-7.9
-10.71
-12.36
-12.76
-12.02
-10.49
-8.73
-7.32
-6.76
-7.28
-8.89
-11.36
-14.45
-18.04
-22.14
-26.95
-32.66
-39.31
-46.7
-54.3
-61.21
-66.29
-68.41
-66.7
-60.9
-51.49
-39.62
-26.81
-14.58
-4.04
4.33
10.72
15.75
20.16
24.58
29.29
34.25
39.16
43.67
47.46
50.32
52.14
52.93
52.86
52.26
51.55
51.06
50.81
50.44
49.36
47.03
43.24
38.26
32.72
27.32
22.66
18.99
16.32
14.48
13.25
12.4
11.68
10.86
9.78
8.48
7.2
6.29
6.02
6.33
6.78
6.7
5.42
2.6
-1.56
-6.47
-11.38
-15.71
-19.32
-22.52
-25.93
-30.24
-35.88
-42.86
-50.69
-58.43
-64.88
-68.83
-69.42
-66.25
-59.6
-50.24
-39.27
-27.8
-16.78
-6.77
2.0
9.55
16.03
21.57
26.21
29.95
32.71
34.58
35.77
36.66
37.67
39.14
41.14
43.51
45.89
47.89
49.28
50.0
50.12
49.71
48.74
47.13
44.81
41.81
38.4
34.98
31.93
29.48
27.59
26.01
24.43
22.57
20.4
18.0
15.56
13.26
11.17
9.29
7.55
5.85
4.1
2.22
0.16
-2.15
-4.68
-7.43
-10.3
-13.16
-15.83
-18.15
-20.09
-21.71
-23.28
-25.06
-27.14
-29.21
-30.56
-30.3
-27.66
-22.41
-14.87
-5.93
3.43
12.36
20.37
27.3
33.11
37.75
41.1
43.01
43.46
42.58
40.67
38.05
35.03
31.83
28.54
25.17
21.79
18.53
15.64
13.47
12.32
12.33
13.38
15.07
16.85
18.14
18.5
17.67
15.63
12.53
8.67
4.4
-0.01
-4.34
-8.55
-12.75
-17.06
-21.55
-26.11
-30.48
-34.29
-37.17
-38.92
-39.53
-39.24
-38.5
-37.83
-37.76
-38.69
-40.69
-43.46
-46.36
-48.46
-48.85
-46.91
-42.47
-35.89
-27.89
-19.36
-11.13
-3.83
2.22
6.91
10.32
12.66
14.2
15.18
15.77
15.98
15.79
15.19
14.3
13.33
12.55
12.13
12.13
12.42
12.79
13.09
13.21
13.15
12.96
12.64
12.14
11.43
10.45
9.19
7.67
5.94
4.03
1.95
-0.3
-2.74
-5.37
-8.16
-11.06
-14.02
-16.99
-19.93
-22.82
-25.6
-28.2
-30.52
-32.49
-34.18
-35.88
-38.0
-40.97
-45.02
-49.93
-54.92
-58.83
-60.34
-58.43
-52.71
-43.54
-31.97
-19.47
-7.53
2.69
10.56
16.04
19.5
21.55
22.79
23.65
24.31
24.76
24.88
24.62
24.04
23.31
22.65
22.25
22.22
22.56
23.2
23.98
24.73
25.24
25.33
24.86
23.79
22.22
20.33
18.35
16.49
14.91
13.62
12.56
11.47
10.11
8.25
5.82
2.96
-0.06
-2.95
-5.46
-7.56
-9.38
-11.15
-13.07
-15.31
-17.89
-20.75
-23.83
-27.01
-30.15
-33.14
-35.85
-38.36
-40.88
-43.79
-47.48
-52.08
-57.22
-61.94
-64.97
-64.98
-61.13
-53.36
-42.38
-29.48
-16.13
-3.62
7.14
15.68
21.94
26.09
28.48
29.55
29.74
29.44
28.92
28.32
27.76
27.28
27.03
27.14
27.86
29.31
31.52
34.3
37.25
39.88
41.68
42.3
41.45
39.06
35.16
30.02
24.08
18.01
12.5
8.1
5.11
3.55
3.21
3.68
4.47
5.03
4.69
2.91
-0.62
-5.75
-11.88
-18.14
-23.69
-28.03
-31.13
-33.33
-35.09
-36.8
-38.65
-40.64
-42.67
-44.66
-46.71
-49.02
-51.92
-55.7
-60.3
-65.24
-69.59
-72.15
-71.89
-68.24
-61.28
-51.7
-40.48
-28.67
-17.12
-6.45
2.91
10.7
16.76
21.12
23.98
25.69
26.72
27.54
28.49
29.68
31.04
32.38
33.56
34.51
35.3
36.11
37.06
38.23
39.53
40.83
41.94
42.69
42.96
42.61
41.6
39.91
37.63
34.91
31.93
28.86
25.82
22.87
20.03
17.33
14.78
12.41
10.22
8.2
6.28
4.42
2.61
0.87
-0.79
-2.39
-4.05
-5.98
-8.48
-11.85
-16.34
-21.93
-28.3
-34.71
-40.04
-43.08
-42.82
-38.82
-31.37
-21.4
-10.22
0.96
11.19
19.96
27.09
32.51
36.21
38.1
38.19
36.64
33.84
30.37
26.81
23.72
21.44
20.18
19.92
20.54
21.8
23.41
25.07
26.48
27.41
27.69
27.25
26.05
24.13
21.57
18.53
15.3
12.18
9.46
7.16
5.13
3.0
0.4
-2.87
-6.79
-11.05
-15.31
-19.23
-22.68
-25.69
-28.43
-31.09
-33.87
-36.96
-40.51
-44.65
-49.31
-54.07
-58.13
-60.42
-59.91
-55.99
-48.69
-38.76
-27.34
-15.7
-4.84
4.64
12.5
18.7
23.3
26.38
28.1
28.72
28.57
27.95
27.05
25.94
24.62
23.14
21.65
20.44
19.81
19.96
20.9
22.39
23.98
25.2
25.66
25.18
23.87
21.99
19.86
17.7
15.54
13.28
10.81
8.06
5.15
2.31
-0.24
-2.36
-4.09
-5.62
-7.22
-9.12
-11.44
-14.17
-17.19
-20.42
-23.72
-26.99
-30.19
-33.29
-36.4
-39.74
-43.55
-47.86
-52.4
-56.39
-58.8
-58.6
-55.18
-48.52
-39.28
-28.46
-17.17
-6.26
3.65
12.22
19.22
24.52
28.1
30.12
30.87
30.79
30.25
29.53
28.7
27.72
26.56
25.24
23.96
22.97
22.52
22.73
23.52
24.7
26.01
27.25
28.21
28.77
28.84
28.36
27.33
25.87
24.1
22.16
20.05
17.72
15.06
12.02
8.69
5.29
2.13
-0.55
-2.68
-4.35
-5.79
-7.28
-9.04
-11.16
-13.67
-16.49
-19.5
-22.51
-25.38
-27.97
-30.38
-32.84
-35.77
-39.53
-44.16
-49.18
-53.54
-55.91
-55.14
-50.71
-42.83
-32.44
-20.81
-9.15
1.63
10.98
18.65
24.6
28.88
31.66
33.2
33.77
33.64
33.0
32.0
30.71
29.25
27.74
26.33
25.18
24.42
24.22
24.61
25.53
26.75
27.97
28.88
29.27
29.05
28.22
26.82
24.9
22.55
19.91
17.22
14.73
12.62
10.93
9.52
8.18
6.74
5.14
3.49
1.95
0.62
-0.52
-1.65
-3.0
-4.8
-7.12
-9.87
-12.83
-15.76
-18.48
-20.93
-23.22
-25.52
-28.11
-31.21
-34.98
-39.41
-44.18
-48.62
-51.78
-52.63
-50.37
-44.74
-36.12
-25.41
-13.75
-2.2
8.42
17.58
24.86
29.98
32.82
33.45
32.23
29.75
26.69
23.66
21.05
19.05
17.7
16.96
16.83
17.35
18.47
20.11
22.03
23.89
25.35
26.13
26.09
25.24
23.7
21.65
19.28
16.81
14.45
12.35
10.58
9.07
7.65
6.16
4.53
2.8
1.09
-0.49
-1.94
-3.38
-5.02
-7.05
-9.55
-12.5
-15.76
-19.11
-22.27
-24.98
-27.07
-28.51
-29.53
-30.55
-32.09
-34.56
-38.08
-42.29
-46.32
-49.09
-49.63
-47.35
-42.31
-35.06
-26.51
-17.59
-9.13
-1.67
4.43
9.06
12.26
14.19
15.12
15.34
15.11
14.58
13.85
12.97
12.06
11.22
10.56
10.2
10.2
10.69
11.71
13.26
15.12
16.96
18.36
19.01
18.75
17.72
16.17
14.44
12.76
11.27
9.96
8.78
7.66
6.57
5.46
4.32
3.04
1.44
-0.66
-3.36
-6.52
-9.83
-12.9
-15.5
-17.72
-19.88
-22.39
-25.4
-28.74
-32.0
-34.79
-36.99
-38.73
-40.2
-41.3
-41.59
-40.33
-36.91
-31.13
-23.41
-14.61
-5.67
2.61
9.78
15.7
20.38
23.83
25.95
26.66
25.96
24.1
21.57
18.97
16.9
15.76
15.66
16.46
17.82
19.4
20.91
22.24
23.34
24.2
24.72
24.69
23.87
22.14
19.54
16.39
13.14
10.18
7.67
5.47
3.27
0.79
-2.0
-4.9
-7.55
-9.69
-11.32
-12.72
-14.29
-16.4
-19.19
-22.63
-26.6
-30.96
-35.58
-40.17
-44.17
-46.81
-47.27
-44.96
-39.76
-32.12
-22.86
-12.97
-3.32
5.46
12.99
19.05
23.55
26.5
27.97
28.17
27.37
25.84
23.82
21.5
19.11
16.87
15.07
13.93
13.6
14.04
15.04
16.29
17.45
18.3
18.65
18.41
17.51
15.93
13.71
11.01
8.03
5.05
2.3
-0.08
-2.09
-3.85
-5.56
-7.42
-9.57
-12.07
-14.89
-17.95
-21.23
-24.72
-28.47
-32.49
-36.7
-40.96
-45.17
-49.43
-53.96
-58.94
-64.29
-69.47
-73.48
-75.12
-73.45
-68.07
-59.36
-48.29
-36.1
-23.99
-12.79
-2.92
5.48
12.43
17.96
22.08
24.86
26.48
27.23
27.45
27.37
27.09
26.62
26.03
25.52
25.45
26.1
27.58
29.65
31.84
33.64
34.75
35.08
34.74
33.84
32.42
30.39
27.69
24.34
20.49
16.41
12.35
8.47
4.85
1.4
-2.01
-5.56
-9.38
-13.51
-17.9
-22.43
-26.95
-31.35
-35.6
-39.74
-43.91
-48.35
-53.33
-59.13
-65.84
-73.21
-80.47
-86.49
-89.9
-89.59
-84.95
-76.08
-63.77
-49.21
-33.77
-18.72
-5.07
6.57
15.92
23.06
28.31
32.05
34.62
36.25
37.07
37.15
36.59
35.59
34.39
33.25
32.45
32.2
32.66
33.87
35.71
37.94
40.18
42.02
43.11
43.26
42.38
40.54
37.9
34.65
31.03
27.25
23.48
19.82
16.25
12.69
9.0
5.12
1.01
-3.23
-7.49
-11.63
-15.63
-19.53
-23.49
-27.73
-32.45
-37.86
-44.16
-51.39
-59.34
-67.4
-74.46
-79.15
-80.11
-76.45
-68.04
-55.55
-40.35
-24.03
-8.03
6.55
19.08
29.32
37.22
42.85
46.36
47.96
47.99
46.87
45.07
43.01
41.0
39.21
37.74
36.64
36.06
36.14
37.0
38.54
40.47
42.19
43.08
42.64
40.72
37.5
33.5
29.26
25.18
21.34
17.54
13.42
8.72
3.37
-2.48
-8.5
-14.37
-19.87
-24.88
-29.4
-33.61
-37.82
-42.48
-47.95
-54.25
-60.9
-66.76
-70.41
-70.48
-66.16
-57.48
-45.23
-30.71
-15.32
-0.24
13.61
25.63
35.5
43.1
48.51
51.96
53.82
54.44
54.11
53.06
51.51
49.68
47.77
45.98
44.4
43.06
41.92
40.93
40.06
39.24
38.32
37.11
35.38
33.02
30.04
26.59
22.91
19.24
15.69
12.2
8.59
4.64
0.26
-4.53
-9.48
-14.3
-18.72
-22.65
-26.29
-30.08
-34.62
-40.36
-47.33
-54.97
-62.11
-67.27
-69.04
-66.51
-59.55
-48.79
-35.38
-20.64
-5.82
8.1
20.36
30.44
38.08
43.24
46.18
47.33
47.17
46.1
44.41
42.32
40.07
37.99
36.43
35.64
35.73
36.61
38.08
39.9
41.83
43.62
45.01
45.63
45.15
43.29
40.03
35.63
30.52
25.24
20.26
15.81
11.9
8.36
4.91
1.35
-2.45
-6.48
-10.63
-14.7
-18.51
-21.9
-24.89
-27.7
-30.75
-34.52
-39.36
-45.22
-51.59
-57.46
-61.57
-62.73
-60.2
-53.8
-43.99
-31.76
-18.31
-4.93
7.29
17.59
25.58
31.22
34.75
36.51
36.84
36.01
34.29
32.01
29.61
27.54
26.19
25.74
26.14
27.2
28.69
30.46
32.4
34.34
36.03
37.13
37.34
36.55
34.89
32.72
30.46
28.38
26.47
24.42
21.8
18.22
13.49
7.79
1.56
-4.58
-10.01
-14.34
-17.46
-19.64
-21.43
-23.51
-26.39
-30.27
-34.79
-39.12
-42.17
-42.82
-40.3
-34.35
-25.31
-14.02
-1.67
10.44
21.12
29.48
35.09
37.92
38.29
36.74
33.84
30.13
26.09
22.13
18.51
15.41
12.81
10.67
8.94
7.69
7.06
7.14
7.87
8.88
9.66
9.69
8.67
6.6
3.76
0.54
-2.71
-5.77
-8.52
-10.96
-13.11
-15.06
-16.97
-19.04
-21.44
-24.24
-27.3
-30.38
-33.23
-35.72
-38.0
-40.41
-43.34
-47.0
-51.25
-55.5
-58.77
-59.95
-58.14
-52.91
-44.47
-33.65
-21.67
-9.81
0.85
9.66
16.39
21.14
24.18
25.87
26.54
26.5
26.01
25.27
24.35
23.25
21.91
20.33
18.63
17.1
16.07
15.78
16.24
17.16
18.07
18.46
18.05
16.8
14.96
12.85
10.74
8.68
6.58
4.29
1.75
-0.93
-3.54
-5.89
-7.95
-9.86
-11.85
-14.11
-16.61
-19.19
-21.62
-23.74
-25.6
-27.39
-29.37
-31.76
-34.69
-38.17
-42.09
-46.11
-49.68
-52.01
-52.21
-49.55
-43.75
-35.11
-24.52
-13.26
-2.61
6.46
13.46
18.41
21.67
23.71
24.95
25.64
25.91
25.84
25.52
25.07
24.58
24.13
23.73
23.46
23.45
23.88
24.88
26.43
28.3
30.1
31.36
31.7
30.92
29.06
26.34
23.08
19.6
16.21
13.14
10.51
8.27
6.27
4.27
2.07
-0.42
-3.14
-5.86
-8.3
-10.26
-11.75
-12.93
-14.09
-15.48
-17.18
-19.13
-21.17
-23.12
-24.95
-26.73
-28.6
-30.69
-33.14
-36.09
-39.58
-43.54
-47.52
-50.77
-52.32
-51.3
-47.32
-40.65
-32.16
-22.98
-14.15
-6.36
0.15
5.39
9.43
12.3
13.95
14.37
13.65
12.06
10.01
8.09
6.9
6.93
8.38
11.05
14.39
17.74
20.54
22.61
24.19
25.7
27.49
29.57
31.58
32.93
33.04
31.56
28.6
24.63
20.36
16.54
13.62
11.57
9.8
7.32
3.06
-3.71
-13.07
-24.37
-36.44
-48.06
-58.44
-67.37
-75.32
-83.19
-91.96
-102.31
-114.03
-125.64
-134.32
-136.36
-128.05
-106.99
-73.17
-29.38
19.27
66.62
107.14
137.17
155.47
163.0
161.99
155.15
144.96
133.32
121.64
110.89
101.67
94.27
88.6
84.19
80.31
76.2
71.34
65.53
58.93
51.83
44.54
37.1
29.37
21.27
13.08
5.58
-0.13
-3.1
-3.06
-0.71
2.55
5.13
6.0
5.09
3.11
1.01
-0.7
-2.28
-4.54
-8.3
-13.75
-20.23
-26.39
-30.74
-32.21
-30.53
-26.29
-20.74
-15.5
-12.02
-11.12
-12.46
-14.3
-13.88
-8.44
3.27
19.88
37.14
48.98
49.48
35.15
6.44
-32.15
-73.37
-109.43
-134.18
-144.54
-140.76
-125.81
-104.03
-79.96
-57.48
-39.39
-27.33
-21.8
-22.19
-26.91
-33.66
-40.09
-44.49
-46.34
-46.31
-45.77
-45.88
-46.89
-47.74
-46.29
-40.04
-26.97
-6.53
19.99
49.45
77.53
99.87
113.29
116.61
110.77
98.29
82.15
64.97
48.38
33.17
19.62
8.02
-1.23
-7.78
-11.56
-13.05
-13.22
-13.27
-14.31
-17.02
-21.5
-27.19
-33.1
-38.16
-41.63
-43.46
-44.33
-45.31
-47.39
-51.0
-55.88
-61.46
-67.15
-72.73
-78.25
-83.65
-88.36
-91.22
-90.84
-86.16
-77.11
-64.72
-50.88
-37.68
-26.81
-19.06
-14.29
-11.54
-9.41
-6.54
-1.95
4.65
12.87
21.79
30.28
37.33
42.29
45.01
45.72
44.95
43.3
41.3
39.3
37.41
35.52
33.43
31.09
28.69
26.58
25.06
23.99
22.79
20.62
16.82
11.35
4.9
-1.36
-6.34
-9.5
-10.99
-11.44
-11.53
-11.71
-12.13
-12.8
-13.9
-15.74
-18.69
-22.94
-28.27
-34.07
-39.56
-44.08
-47.4
-49.81
-52.03
-54.91
-59.07
-64.45
-70.28
-75.11
-77.29
-75.51
-69.22
-58.74
-45.18
-30.0
-14.69
-0.45
11.89
21.83
29.19
34.03
36.62
37.4
36.86
35.42
33.4
31.04
28.53
26.1
24.06
22.67
22.15
22.55
23.75
25.54
27.61
29.64
31.27
32.2
32.17
31.01
28.74
25.53
21.7
17.63
13.65
9.91
6.4
2.94
-0.67
-4.66
-9.14
-14.11
-19.45
-24.93
-30.26
-35.14
-39.45
-43.25
-46.83
-50.78
-55.71
-62.02
-69.57
-77.51
-84.36
-88.35
-87.91
-82.23
-71.43
-56.58
-39.34
-21.56
-4.82
9.71
21.42
30.2
36.26
40.0
41.9
42.38
41.81
40.48
38.66
36.66
34.85
33.6
33.22
33.98
35.87
38.71
42.07
45.41
48.18
49.92
50.42
49.7
47.97
45.57
42.88
40.18
37.67
35.33
33.06
30.63
27.91
24.9
21.75
18.68
15.86
13.25
10.69
7.94
4.86
1.44
-2.22
-5.97
-9.76
-13.6
-17.61
-21.97
-26.9
-32.64
-39.3
-46.73
-54.29
-60.83
-64.83
-64.91
-60.28
-51.05
-38.24
-23.37
-8.05
6.38
18.98
29.1
36.33
40.49
41.73
40.52
37.68
34.09
30.46
27.21
24.39
21.96
19.84
18.09
16.86
16.29
16.41
17.24
18.8
21.26
24.98
30.21
36.76
43.67
49.29
51.69
49.49
42.49
31.78
19.29
7.08
-3.17
-10.19
-12.85
-10.08
-1.25
13.1
30.72
47.89
60.59
66.06
63.95
56.39
46.81
38.41
32.84
29.84
27.79
24.58
18.47
8.45
-5.58
-22.83
-41.64
-59.68
-74.33
-83.32
-85.41
-80.92
-71.65
-60.22
-49.19
-40.21
-33.63
-28.67
-24.02
-18.5
-11.55
-3.49
4.76
12.02
17.34
20.38
21.51
21.69
22.08
23.67
26.95
31.86
37.91
44.38
50.41
55.05
57.39
56.74
53.06
47.19
40.8
35.83
33.73
34.75
37.85
41.22
43.07
42.39
39.17
34.06
27.87
21.13
14.05
6.86
0.04
-5.57
-9.17
-10.43
-9.86
-8.76
-8.69
-10.9
-15.83
-22.95
-31.0
-38.45
-44.0
-46.94
-47.37
-46.03
-44.11
-42.64
-42.21
-42.73
-43.56
-43.92
-43.33
-41.85
-40.03
-38.58
-37.97
-38.24
-38.92
-39.37
-38.99
-37.29
-33.99
-28.92
-21.91
-12.91
-2.09
10.06
22.65
34.58
44.77
52.4
57.18
59.29
59.31
57.96
55.82
53.27
50.43
47.28
43.77
39.89
35.71
31.38
27.07
23.06
19.58
16.81
14.73
13.1
11.5
9.38
6.31
2.1
-3.09
-8.81
-14.41
-19.09
-22.1
-22.75
-20.62
-15.69
-8.4
0.35
9.45
17.75
24.45
29.2
32.15
33.77
34.58
34.85
34.52
33.27
30.71
26.67
21.29
15.04
8.59
2.63
-2.23
-5.49
-6.75
-5.84
-2.79
1.94
7.56
13.03
17.35
19.79
20.07
18.47
15.59
12.19
8.95
6.3
4.35
2.83
1.28
-0.91
-4.29
-9.16
-15.54
-23.11
-31.35
-39.68
-47.57
-54.71
-60.96
-66.34
-71.0
-75.23
-79.47
-84.18
-89.65
-95.72
-101.58
-105.93
-107.29
-104.54
-97.36
-86.37
-72.98
-58.83
-45.35
-33.48
-23.57
-15.58
-9.3
-4.52
-1.01
1.42
3.06
4.27
5.47
7.03
9.18
11.93
15.07
18.27
21.25
23.89
26.31
28.75
31.46
34.54
37.82
40.93
43.51
45.34
46.4
46.89
47.07
47.11
46.98
46.43
45.1
42.72
39.2
34.77
29.83
24.82
20.04
15.55
11.2
6.78
2.16
-2.62
-7.39
-11.98
-16.32
-20.57
-25.0
-30.02
-35.89
-42.7
-50.2
-57.75
-64.35
-68.85
-70.18
-67.74
-61.56
-52.4
-41.43
-29.97
-19.08
-9.45
-1.41
4.99
9.77
12.99
14.77
15.37
15.1
14.28
13.12
11.73
10.2
8.68
7.42
6.81
7.14
8.53
10.82
13.61
16.33
18.46
19.57
19.47
18.21
16.01
13.25
10.34
7.64
5.35
3.51
2.08
0.88
-0.19
-1.25
-2.28
-3.19
-3.82
-4.04
-3.75
-3.08
-2.27
-1.66
-1.59
-2.19
-3.37
-4.86
-6.34
-7.59
-8.65
-9.77
-11.35
-13.79
-17.27
-21.66
-26.39
-30.54
-32.99
-32.72
-29.11
-22.19
-12.7
-1.94
8.58
17.58
24.23
28.35
30.26
30.55
29.86
28.69
27.37
26.07
24.93
24.05
23.5
23.32
23.42
23.67
23.96
24.22
24.45
24.66
24.8
24.71
24.2
23.1
21.4
19.28
16.98
14.76
12.72
10.8
8.86
6.86
4.84
2.98
1.51
0.54
0.04
-0.2
-0.49
-1.14
-2.36
-4.17
-6.43
-8.83
-11.05
-12.88
-14.28
-15.4
-16.5
-17.87
-19.7
-22.1
-24.98
-28.08
-30.79
-32.37
-32.01
-29.15
-23.81
-16.6
-8.65
-1.17
4.91
9.24
11.98
13.57
14.44
14.76
14.48
13.5
11.87
9.85
7.88
6.39
5.62
5.54
5.89
6.39
6.81
7.07
7.22
7.36
7.57
7.89
8.3
8.71
9.0
9.0
8.54
7.46
5.69
3.3
0.47
-2.56
-5.6
