-4.8
-7.35
-10.16
-13.36
-16.88
-20.54
-24.18
-27.76
-31.41
-35.38
-39.92
-45.17
-51.06
-57.21
-62.93
-67.25
-69.09
-67.56
-62.28
-53.54
-42.26
-29.81
-17.56
-6.53
2.72
10.13
15.85
20.1
22.94
24.37
24.31
22.82
20.13
16.66
12.92
9.49
6.91
5.61
5.89
7.89
11.47
16.28
21.66
26.88
31.12
33.75
34.43
33.1
30.04
25.7
20.77
15.9
11.73
8.69
6.9
6.15
5.9
5.41
3.99
1.24
-2.89
-8.02
-13.54
-18.84
-23.49
-27.38
-30.7
-33.88
-37.39
-41.67
-46.9
-52.84
-58.79
-63.62
-66.0
-64.81
-59.49
-50.27
-38.15
-24.59
-11.08
1.16
11.41
19.37
25.05
28.64
30.38
30.59
29.7
28.17
26.48
24.97
23.84
23.11
22.7
22.49
22.39
22.34
22.25
21.92
21.12
19.61
17.28
14.22
10.65
6.85
2.95
-1.09
-5.49
-10.43
-16.0
-22.0
-28.1
-33.92
-39.24
-44.06
-48.59
-53.12
-57.93
-63.14
-68.68
-74.3
-79.65
-84.36
-88.11
-90.73
-92.26
-92.95
-93.19
-93.26
-92.97
-91.47
-87.25
-78.52
-63.97
-43.35
-17.84
10.17
37.88
62.77
83.34
99.07
110.15
117.05
120.22
120.13
117.38
112.85
107.61
102.68
98.74
96.07
94.58
94.0
94.03
94.32
94.44
93.87
92.09
88.8
84.07
78.34
72.22
66.28
60.78
55.74
50.99
46.38
41.87
37.49
33.2
28.87
24.32
19.5
14.6
9.93
5.78
2.2
-1.08
-4.53
-8.6
-13.48
-19.0
-24.76
-30.24
-35.05
-38.99
-42.08
-44.48
-46.46
-48.37
-50.6
-53.53
-57.35
-61.91
-66.59
-70.35
-71.94
-70.26
-64.69
-55.29
-42.81
-28.56
-14.16
-1.19
9.06
15.81
18.94
19.02
17.09
14.39
12.05
10.71
10.49
11.12
12.2
13.53
15.33
18.14
22.62
29.15
37.57
47.06
56.29
63.63
67.59
67.1
61.84
52.46
40.61
28.59
18.84
13.11
11.88
14.12
17.7
20.21
19.8
15.76
8.59
-0.42
-9.77
-18.2
-24.9
-29.55
-32.14
-32.97
-32.55
-31.56
-30.71
-30.67
-31.89
-34.55
-38.56
-43.59
-49.07
-54.27
-58.3
-60.29
-59.53
-55.68
-48.72
-39.05
-27.3
-14.26
-0.78
12.23
23.85
33.28
39.95
43.67
44.62
43.24
40.19
36.1
31.59
27.18
23.24
20.01
17.53
15.7
14.39
13.58
13.42
14.18
16.06
19.09
22.97
27.15
30.94
33.69
34.93
34.43
32.21
28.51
23.75
18.48
13.26
8.53
4.48
1.02
-2.17
-5.43
-9.02
-12.97
-17.1
-21.1
-24.74
-27.91
-30.68
-33.29
-36.03
-39.14
-42.8
-46.91
-51.05
-54.44
-56.03
-54.82
-50.16
-42.06
-31.25
-19.0
-6.72
4.32
13.4
20.28
25.11
28.31
30.28
31.33
31.7
31.47
30.68
29.41
27.84
26.21
24.86
24.08
24.04
24.75
26.04
27.67
29.34
30.79
31.72
31.89
31.16
29.51
27.11
24.27
21.29
18.41
15.68
13.04
10.37
7.6
4.75
1.9
-0.88
-3.64
-6.46
-9.42
-12.55
-15.69
-18.67
-21.34
-23.67
-25.84
-28.18
-31.05
-34.74
-39.31
-44.47
-49.57
-53.68
-55.73
-54.85
-50.61
-43.2
-33.43
-22.51
-11.67
-1.86
6.35
12.82
17.61
20.9
22.9
23.84
23.98
23.63
23.06
22.44
21.87
21.3
20.7
20.13
19.74
19.75
20.32
21.45
22.94
24.46
25.56
25.95
25.44
24.07
22.02
19.46
16.65
13.8
11.17
8.94
7.22
5.89
4.73
3.46
1.87
-0.01
-1.99
-3.84
-5.38
-6.63
-7.77
-9.09
-10.8
-13.0
-15.58
-18.39
-21.23
-23.99
-26.62
-29.23
-32.0
-35.17
-38.93
-43.28
-47.92
-52.16
-55.11
-55.84
-53.7
-48.48
-40.5
-30.55
-19.69
-9.02
0.51
8.25
13.94
17.69
19.87
20.94
21.32
21.29
20.99
20.42
19.72
19.05
18.64
18.64
19.07
19.79
20.56
21.2
21.55
21.62
21.43
21.03
20.34
19.27
17.74
15.77
13.55
11.36
9.48
8.1
7.19
6.57
5.98
5.17
4.05
2.68
1.23
-0.09
-1.15
-1.95
-2.6
-3.26
-4.11
-5.32
-6.89
-8.8
-10.89
-13.03
-15.13
-17.14
-19.12
-21.24
-23.63
-26.44
-29.72
-33.37
-37.09
-40.34
-42.44
-42.74
-40.78
-36.48
-30.13
-22.4
-14.12
-6.07
1.1
6.96
11.32
14.19
15.78
16.43
16.49
16.25
15.86
15.33
14.62
13.78
12.97
12.39
12.28
12.7
13.57
14.68
15.74
16.53
16.95
17.0
16.73
16.28
15.71
15.08
14.4
13.71
13.07
12.55
12.13
11.73
11.17
10.32
9.09
7.63
6.17
5.01
4.27
3.91
3.69
3.32
2.49
1.07
-0.91
-3.32
-5.94
-8.56
-11.05
-13.36
-15.52
-17.67
-19.96
-22.54
-25.5
-28.84
-32.35
-35.59
-37.94
-38.72
-37.39
-33.75
-28.08
-21.03
-13.45
-6.11
0.4
5.81
10.06
13.19
15.23
16.2
16.17
15.27
13.75
11.88
9.92
8.05
6.36
4.86
3.61
2.7
2.27
2.47
3.27
4.5
5.82
6.85
7.32
7.12
6.3
5.01
3.46
1.84
0.29
-1.08
-2.2
-3.06
-3.67
-4.1
-4.46
-4.87
-5.49
-6.51
-8.05
-10.15
-12.69
-15.44
-18.09
-20.42
-22.37
-24.03
-25.7
-27.69
-30.24
-33.39
-36.87
-40.13
-42.42
-42.99
-41.3
-37.19
-30.93
-23.2
-14.87
-6.85
0.14
5.68
9.7
12.37
13.99
14.82
15.0
14.51
13.36
11.62
9.53
7.45
5.75
4.69
4.38
4.8
5.83
7.31
9.05
10.78
12.19
13.01
13.07
12.4
11.18
9.69
8.21
6.86
5.67
4.54
3.32
1.87
0.16
-1.8
-3.88
-5.91
-7.78
-9.43
-10.89
-12.28
-13.72
-15.29
-17.03
-18.93
-21.0
-23.27
-25.78
-28.54
-31.59
-34.98
-38.83
-43.26
-48.29
-53.68
-58.79
-62.7
-64.42
-63.26
-59.03
-52.13
-43.36
-33.69
-24.0
-14.97
-7.03
-0.45
4.72
8.57
11.32
13.3
14.76
15.84
16.54
16.87
16.94
16.96
17.3
18.16
19.62
21.52
23.59
25.59
27.4
28.98
30.32
31.36
31.93
31.86
31.01
29.42
27.27
24.82
22.4
20.2
18.31
16.66
15.08
13.36
11.35
9.01
6.41
3.67
0.93
-1.76
-4.43
-7.21
-10.24
-13.62
-17.34
-21.26
-25.16
-28.81
-32.09
-35.07
-37.99
-41.19
-45.05
-49.83
-55.54
-61.84
-68.05
-73.14
-75.99
-75.58
-71.3
-63.15
-51.8
-38.44
-24.53
-11.42
-0.11
8.98
15.89
21.01
24.84
27.7
29.77
31.05
31.55
31.38
30.82
30.18
29.78
29.77
30.2
31.05
32.3
33.93
35.86
37.92
39.81
41.22
41.92
41.84
41.05
39.7
37.92
35.82
33.46
30.95
28.41
25.91
23.48
21.03
18.48
15.74
12.85
9.9
7.02
4.28
1.66
-0.91
-3.55
-6.27
-9.06
-11.91
-14.9
-18.19
-22.01
-26.54
-31.83
-37.76
-44.13
-50.77
-57.62
-64.61
-71.41
-77.23
-80.81
-80.63
-75.48
-64.91
-49.41
-30.41
-9.85
10.29
28.35
43.19
54.21
61.32
64.87
65.53
64.09
61.3
57.7
53.65
49.41
45.24
41.45
38.38
36.27
35.14
34.87
35.18
35.79
36.46
37.02
37.35
37.28
36.66
35.42
33.59
31.34
28.88
26.45
24.15
21.95
19.71
17.26
14.48
11.36
7.99
4.5
1.05
-2.27
-5.44
-8.49
-11.43
-14.29
-17.04
-19.7
-22.31
-25.03
-28.1
-31.81
-36.3
-41.4
-46.58
-50.92
-53.36
-53.01
-49.36
-42.5
-33.03
-21.93
-10.35
0.71
10.48
18.48
24.5
28.54
30.78
31.47
30.93
29.45
27.37
25.06
22.9
21.23
20.25
19.95
20.22
20.85
21.67
22.63
23.69
24.8
25.83
26.61
26.93
26.63
25.62
23.91
21.59
18.86
15.95
13.15
10.6
8.27
5.99
3.5
0.55
-2.91
-6.76
-10.78
-14.73
-18.4
-21.7
-24.63
-27.29
-29.89
-32.68
-35.92
-39.65
-43.6
-47.2
-49.63
-50.05
-47.86
-42.86
-35.35
-26.04
-15.9
-5.88
3.2
10.82
16.73
20.98
23.74
25.31
26.02
26.17
26.0
25.64
25.12
24.39
23.47
22.46
21.59
21.16
21.38
22.31
23.75
25.38
26.8
27.67
27.81
27.26
26.16
24.73
23.16
21.48
19.63
17.5
14.96
12.03
8.84
5.63
2.62
-0.02
-2.2
-3.98
-5.43
-6.68
-7.92
-9.31
-10.98
-12.97
-15.19
-17.49
-19.76
-22.03
-24.54
-27.63
-31.56
-36.32
-41.49
-46.22
-49.48
-50.25
-47.88
-42.27
-33.92
-23.79
-13.04
-2.81
6.02
12.97
17.91
20.98
22.49
22.86
22.48
21.71
20.77
19.78
18.83
17.95
17.18
16.6
16.25
16.18
16.43
16.99
17.83
18.87
19.94
20.88
21.51
21.65
21.23
20.21
18.68
16.78
14.69
12.61
10.64
8.84
7.14
5.44
3.63
1.69
-0.31
-2.28
-4.11
-5.75
-7.29
-8.85
-10.62
-12.75
-15.26
-18.01
-20.77
-23.25
-25.33
-27.08
-28.83
-31.01
-33.94
-37.62
-41.56
-44.89
-46.54
-45.68
-41.9
-35.42
-26.97
-17.6
-8.38
-0.13
6.64
11.75
15.28
17.41
18.41
18.55
18.1
17.33
16.47
15.68
15.03
14.55
14.23
14.09
14.18
14.56
15.25
16.19
17.21
18.13
18.76
19.01
18.82
18.24
17.37
16.28
15.13
14.0
12.99
12.18
11.54
11.01
10.46
9.73
8.68
7.22
5.38
3.32
1.26
-0.55
-2.0
-3.14
-4.23
-5.66
-7.68
-10.35
-13.44
-16.53
-19.27
-21.48
-23.29
-25.05
-27.18
-29.96
-33.46
-37.42
-41.34
-44.5
-46.12
-45.49
-42.22
-36.37
-28.47
-19.47
-10.42
-2.23
4.44
9.34
12.5
14.18
14.69
14.37
13.54
12.44
11.21
9.9
8.57
7.28
6.18
5.42
5.16
5.44
6.15
7.08
7.93
8.44
8.45
7.91
6.88
5.48
3.81
1.98
0.04
-2.03
-4.28
-6.79
-9.55
-12.39
-15.07
-17.21
-18.48
-18.7
-17.88
-16.18
-13.89
-11.32
-8.82
-6.78
-5.66
-5.94
-7.91
-11.65
-16.92
-23.29
-30.19
-36.99
-42.98
-47.38
-49.35
-48.24
-43.77
-36.24
-26.57
-15.95
-5.6
3.62
11.26
17.25
21.71
24.81
26.71
27.5
27.37
26.56
25.33
23.92
22.47
21.04
19.64
18.27
17.02
16.07
15.67
16.05
17.27
19.16
21.26
22.92
23.52
22.66
20.28
16.71
12.54
8.41
4.84
2.09
0.2
-1.05
-1.89
-2.59
-3.34
-4.32
-5.66
-7.52
-9.99
-13.15
-16.91
-21.07
-25.32
-29.33
-32.91
-36.1
-39.22
-42.7
-46.94
-52.01
-57.47
-62.45
-65.79
-66.42
-63.71
-57.67
-48.92
-38.49
-27.5
-16.84
-7.1
1.52
9.0
15.45
20.88
25.17
28.11
29.55
29.44
28.02
25.79
23.43
21.62
20.89
21.51
23.5
26.61
30.4
34.24
37.42
39.3
39.48
37.91
34.94
31.22
27.43
24.08
21.36
19.18
17.27
15.37
13.38
11.41
9.62
8.16
7.0
5.94
4.63
2.72
0.04
-3.36
-7.22
-11.18
-14.98
-18.49
-21.77
-25.04
-28.59
-32.68
-37.41
-42.55
-47.44
-51.01
-52.04
-49.55
-43.16
-33.31
-21.13
-8.07
4.42
15.33
24.05
30.45
34.66
37.06
38.11
38.35
38.28
38.29
38.66
39.48
40.68
41.99
43.04
43.45
42.99
41.73
40.03
38.37
37.13
36.42
36.0
35.46
34.43
32.8
30.69
28.39
26.09
23.91
21.72
19.37
16.74
13.91
11.07
8.46
6.27
4.51
3.03
1.66
0.24
-1.25
-2.8
-4.33
-5.93
-7.78
-10.11
-13.21
-17.19
-21.95
-27.06
-31.78
-35.1
-35.99
-33.74
-28.23
-20.08
-10.49
-0.82
7.81
14.75
19.94
23.58
25.99
27.38
27.85
27.52
26.61
25.43
24.31
23.54
23.22
23.37
23.85
24.56
25.35
26.13
26.81
27.32
27.58
27.53
27.05
26.11
24.7
23.01
21.28
19.8
18.75
18.14
17.69
17.03
15.78
13.68
10.69
6.94
2.72
-1.62
-5.65
-9.05
-11.57
-13.16
-13.97
-14.36
-14.8
-15.74
-17.55
-20.34
-23.96
-27.99
-31.75
-34.46
-35.37
-33.99
-30.22
-24.37
-17.14
-9.36
-1.91
4.52
9.46
12.8
14.62
15.23
14.98
14.25
13.28
12.29
11.35
10.5
9.75
9.12
8.63
8.31
8.18
8.28
8.63
9.22
9.93
10.58
10.89
10.52
9.19
6.81
3.55
-0.22
-4.02
-7.42
-10.12
-12.04
-13.25
-13.88
-14.1
-14.08
-14.04
-14.17
-14.69
-15.66
-17.11
-18.98
-21.18
-23.64
-26.25
-28.78
-30.83
-31.93
-31.62
-29.68
-26.17
-21.46
-16.06
-10.51
-5.21
-0.45
3.56
6.7
8.92
10.32
11.13
11.63
12.06
12.52
12.98
13.36
13.56
13.53
13.28
12.79
12.06
11.16
10.19
9.32
8.7
8.34
8.07
7.66
6.88
5.65
4.01
2.1
0.04
-2.1
-4.34
-6.68
-9.03
-11.25
-13.18
-14.72
-15.9
-16.89
-17.89
-19.06
-20.47
-22.13
-24.04
-26.15
-28.38
-30.51
-32.15
-32.8
-32.04
-29.65
-25.67
-20.48
-14.64
-8.76
-3.42
1.0
4.33
6.61
8.11
9.11
9.86
10.41
10.67
10.47
9.71
8.53
7.15
5.86
4.87
4.23
3.88
3.73
3.7
3.74
3.84
3.93
3.94
3.74
3.26
2.46
1.34
-0.06
-1.67
-3.36
-5.01
-6.46
-7.63
-8.48
-9.1
-9.66
-10.37
-11.37
-12.67
-14.15
-15.62
-16.9
-17.99
-19.01
-20.26
-21.98
-24.34
-27.22
-30.31
-33.08
-34.94
-35.37
-34.0
-30.76
-25.82
-19.64
-12.89
-6.26
-0.41
4.23
7.55
9.68
10.95
11.75
12.32
12.72
12.84
12.56
11.78
10.63
9.35
8.25
7.58
7.44
7.79
8.49
9.36
10.2
10.83
11.13
10.98
10.33
9.18
7.63
5.86
4.09
2.48
1.1
-0.1
-1.22
-2.36
-3.54
-4.72
-5.84
-6.91
-8.04
-9.35
-10.99
-12.95
-15.1
-17.24
-19.2
-20.9
-22.4
-23.91
-25.69
-27.95
-30.73
-33.8
-36.68
-38.71
-39.21
-37.72
-34.21
-29.03
-22.88
-16.57
-10.71
-5.65
-1.45
2.04
4.95
7.34
9.18
10.37
10.89
10.79
10.22
9.41
8.57
7.97
7.86
8.47
9.83
11.78
13.9
15.64
16.48
16.16
14.71
12.45
9.83
7.26
5.06
3.38
2.32
1.94
2.19
2.9
3.75
4.32
4.22
3.26
1.51
-0.71
-3.0
-5.08
-6.83
-8.34
-9.76
-11.14
-12.4
-13.45
-14.32
-15.3
-17.04
-20.21
-25.19
-31.73
-38.89
-45.28
-49.48
-50.5
-48.09
-42.74
-35.52
-27.81
-21.01
-16.24
-14.05
-14.28
-15.93
-17.5
-17.4
-14.49
-8.39
0.38
10.75
21.42
31.2
39.17
44.68
47.34
47.08
44.06
38.78
32.02
24.79
18.17
13.2
10.65
10.81
13.46
17.81
22.78
27.22
30.3
31.57
31.07
29.11
26.14
22.64
19.07
15.9
13.5
12.14
11.81
12.24
12.95
13.36
12.96
11.43
8.59
4.49
-0.72
-6.74
-13.17
-19.48
-25.03
-29.12
-31.07
-30.39
-26.91
-20.85
-12.9
-4.07
4.5
11.79
17.09
20.21
21.39
21.11
19.98
18.5
17.04
15.8
14.94
14.56
14.78
15.66
17.15
19.14
21.39
23.73
26.03
28.22
30.26
32.06
33.46
34.22
34.17
33.27
31.61
29.45
27.08
24.81
22.85
21.18
19.6
17.58
14.51
9.89
3.58
-4.07
-12.36
-20.48
-27.79
-34.01
-39.17
-43.46
-47.1
-50.27
-53.2
-56.14
-59.23
-62.39
-65.08
-66.5
-65.76
-62.31
-56.15
-47.87
-38.37
-28.57
-19.12
-10.34
-2.36
4.7
10.57
14.82
17.07
17.19
15.56
13.1
11.1
10.85
13.31
18.75
26.72
36.24
46.15
55.51
63.82
70.98
77.09
82.13
85.86
87.92
87.96
85.9
81.86
76.12
68.98
60.67
51.47
41.79
32.17
23.24
15.5
9.2
4.35
0.83
-1.51
-2.85
-3.5
-3.92
-4.62
-6.05
-8.31
-11.11
-13.82
-15.76
-16.4
-15.54
-13.31
-10.05
-6.22
-2.28
1.29
4.07
5.83
6.55
6.59
6.52
6.84
7.71
8.79
9.26
8.32
5.54
1.22
-3.71
-8.05
-10.89
-11.87
-11.34
-10.07
-8.88
-8.39
-8.85
-10.22
-12.31
-14.86
-17.63
-20.47
-23.32
-26.11
-28.8
-31.23
-33.24
-34.75
-35.88
-37.06
-38.92
-42.02
-46.44
-51.59
-56.14
-58.46
-57.28
-52.3
-44.63
-36.52
-30.7
-29.43
-33.62
-42.38
-52.97
-61.27
-62.8
-53.82
-32.64
-0.63
37.66
75.26
104.67
120.1
119.31
104.29
80.39
54.31
31.9
16.54
8.67
6.52
7.24
8.18
7.65
5.1
0.91
-4.09
-9.05
-13.28
-16.46
-18.58
-19.91
-20.97
-22.53
-25.47
-30.64
-38.57
-49.17
-61.66
-74.69
-86.74
-96.7
-104.33
-110.37
-116.34
-124.0
-134.48
-147.77
-162.27
-175.2
-183.29
-184.07
-176.65
-162.13
-143.28
-123.55
-105.9
-92.15
-82.6
-76.35
-71.82
-66.96
-59.17
-45.21
-21.69
13.39
58.97
110.07
158.72
196.5
217.59
220.59
208.44
186.64
160.99
136.11
115.14
100.24
92.81
93.24
100.21
110.47
119.84
124.63
123.08
115.84
105.17
93.68
83.45
75.45
69.68
65.6
62.36
59.05
54.84
48.98
41.01
30.96
19.43
7.52
-3.36
-12.01
-17.82
-20.9
