-33.02
-23.99
-14.95
-6.42
1.42
8.65
15.51
22.31
29.24
36.27
43.22
49.76
55.53
60.24
63.74
65.96
66.97
66.97
66.26
65.2
64.1
63.09
62.03
60.59
58.41
55.19
50.86
45.46
39.09
31.9
24.07
15.94
7.98
0.73
-5.38
-10.18
-13.87
-16.88
-19.75
-22.98
-26.89
-31.67
-37.18
-42.89
-47.88
-50.93
-50.88
-47.0
-39.36
-28.73
-16.41
-3.74
8.17
18.67
27.47
34.53
39.92
43.72
46.09
47.19
47.17
46.15
44.23
41.52
38.24
34.77
31.56
29.07
27.56
27.06
27.32
27.88
28.29
28.19
27.38
25.83
23.6
20.83
17.65
14.19
10.52
6.65
2.55
-1.82
-6.38
-10.97
-15.34
-19.26
-22.56
-25.23
-27.28
-28.79
-29.73
-30.13
-30.07
-29.78
-29.64
-30.01
-31.13
-33.03
-35.57
-38.48
-41.57
-44.72
-47.91
-51.17
-54.55
-58.11
-61.95
-66.14
-70.63
-75.06
-78.74
-80.64
-79.75
-75.4
-67.53
-56.77
-44.33
-31.58
-19.75
-9.62
-1.52
4.6
9.08
12.27
14.46
15.86
16.58
16.71
16.36
15.72
14.95
14.24
13.66
13.32
13.32
13.77
14.8
16.38
18.38
20.44
22.21
23.38
23.85
23.7
23.11
22.25
21.22
20.03
18.68
17.14
15.44
13.64
11.85
10.15
8.6
7.2
5.9
4.59
3.15
1.56
-0.12
-1.76
-3.27
-4.62
-5.93
-7.4
-9.18
-11.35
-13.86
-16.61
-19.46
-22.35
-25.21
-28.03
-30.88
-33.9
-37.36
-41.56
-46.61
-52.25
-57.72
-61.78
-63.11
-60.72
-54.33
-44.51
-32.52
-19.87
-7.9
2.47
10.85
17.21
21.7
24.6
26.22
26.85
26.8
26.31
25.56
24.64
23.63
22.61
21.75
21.21
21.13
21.6
22.6
24.04
25.76
27.54
29.06
30.01
30.14
29.35
27.72
25.52
23.01
20.46
17.98
15.61
13.38
11.32
9.53
8.06
6.86
5.77
4.56
3.09
1.31
-0.63
-2.61
-4.52
-6.37
-8.27
-10.29
-12.46
-14.75
-17.05
-19.26
-21.33
-23.27
-25.14
-27.04
-29.18
-31.8
-35.2
-39.47
-44.38
-49.24
-52.98
-54.47
-52.84
-47.85
-40.0
-30.35
-20.14
-10.46
-2.01
4.89
10.15
13.75
15.74
16.15
15.21
13.26
10.75
8.15
5.84
4.07
2.91
2.35
2.29
2.69
3.47
4.57
5.92
7.3
8.4
8.83
8.24
6.41
3.4
-0.44
-4.59
-8.59
-12.18
-15.42
-18.6
-22.07
-26.08
-30.62
-35.45
-40.22
-44.68
-48.86
-53.15
-58.09
-64.24
-71.81
-80.64
-90.1
-99.47
-108.2
-116.27
-124.24
-132.93
-143.17
-155.33
-169.24
-184.13
-198.7
-211.15
-219.44
-221.7
-216.8
-204.87
-187.23
-166.13
-143.9
-122.27
-101.99
-83.06
-65.15
-48.11
-31.96
-16.72
-2.11
12.62
28.43
46.41
67.51
92.32
120.63
150.93
180.27
204.7
220.61
226.29
222.82
213.76
203.52
195.37
190.15
186.37
181.48
173.36
161.16
144.98
125.17
101.94
75.74
48.16
22.38
2.67
-7.12
-5.2
7.16
25.9
45.54
61.02
69.13
69.13
62.5
52.12
41.04
31.47
24.17
18.43
12.66
5.41
-3.8
-14.02
-23.21
-29.05
-29.91
-25.49
-16.9
-6.17
4.66
14.1
21.71
27.92
33.7
40.04
47.57
56.18
64.82
71.41
73.17
67.53
53.2
31.31
5.6
-18.4
-35.05
-40.66
-34.45
-18.57
3.19
26.89
49.48
69.0
84.26
94.43
99.08
98.4
93.38
85.66
76.9
68.17
59.61
50.62
40.34
28.2
14.34
-0.49
-15.15
-28.39
-39.22
-47.01
-51.64
-53.46
-53.21
-51.73
-49.75
-47.62
-45.36
-42.74
-39.65
-36.25
-33.16
-31.16
-30.86
-32.21
-34.3
-35.65
-34.79
-30.91
-24.27
-16.0
-7.46
0.34
7.12
13.18
18.98
24.6
29.67
33.51
35.57
35.76
34.61
33.06
32.18
32.7
34.93
38.59
43.08
47.71
52.02
55.97
59.78
63.75
67.87
71.77
74.82
76.41
76.2
74.21
70.71
66.05
60.37
53.7
45.94
37.0
26.99
16.32
5.74
-3.88
-11.89
-18.21
-23.42
-28.52
-34.39
-41.26
-48.47
-54.65
-58.35
-58.61
-55.27
-48.88
-40.36
-30.71
-20.98
-12.32
-5.99
-3.29
-5.15
-11.78
-22.48
-35.89
-50.24
-63.57
-74.16
-80.48
-81.47
-76.79
-67.0
-53.6
-38.75
-24.69
-13.15
-4.94
0.07
2.61
3.55
3.54
2.94
1.88
0.52
-0.91
-2.15
-2.97
-3.32
-3.25
-2.91
-2.38
-1.66
-0.75
0.33
1.4
2.19
2.48
2.2
1.5
0.74
0.23
0.11
0.34
0.71
1.11
1.59
2.4
3.77
5.71
7.96
10.02
11.39
11.76
11.22
10.07
8.65
7.17
5.6
3.67
1.09
-2.4
-6.81
-11.86
-17.03
-21.61
-24.86
-26.18
-25.3
-22.32
-17.7
-12.14
-6.42
-1.28
2.71
5.18
5.98
5.17
3.02
-0.08
-3.67
-7.36
-10.79
-13.66
-15.76
-16.92
-17.08
-16.21
-14.36
-11.52
-7.68
-2.93
2.53
8.31
13.92
18.89
22.94
26.06
28.5
30.55
32.4
34.04
35.29
35.94
35.92
35.31
34.35
33.21
31.94
30.38
28.29
25.48
21.96
17.89
13.57
9.25
5.07
1.03
-2.92
-6.9
-11.06
-15.53
-20.42
-25.65
-30.82
-35.21
-37.89
-37.93
-34.86
-28.83
-20.67
-11.66
-3.09
4.16
9.75
13.84
16.85
19.16
20.96
22.27
23.05
23.35
23.24
22.85
22.27
21.55
20.69
19.77
18.89
18.16
17.65
17.34
17.13
16.85
16.31
15.33
13.82
11.81
9.44
6.9
4.41
2.1
-0.03
-2.03
-4.08
-6.25
-8.59
-11.03
-13.4
-15.56
-17.41
-18.97
-20.39
-21.86
-23.55
-25.51
-27.72
-30.08
-32.53
-35.05
-37.73
-40.69
-44.05
-47.91
-52.24
-56.87
-61.38
-65.08
-67.08
-66.51
-62.86
-56.23
-47.35
-37.45
-27.9
-19.78
-13.69
-9.69
-7.42
-6.39
-6.18
-6.6
-7.58
-9.15
-11.29
-13.88
-16.7
-19.48
-22.0
-24.04
-25.41
-25.96
-25.58
-24.16
-21.75
-18.53
-14.82
-11.1
-7.81
-5.28
-3.61
-2.63
-1.97
-1.19
-0.01
1.64
3.47
5.07
5.99
5.98
5.01
3.32
1.17
-1.2
-3.69
-6.31
-9.13
-12.13
-15.23
-18.32
-21.32
-24.21
-27.02
-29.67
-31.92
-33.34
-33.43
-31.85
-28.52
-23.68
-17.64
-10.79
-3.35
4.32
11.74
18.2
22.93
25.35
25.23
22.78
18.42
12.63
5.79
-1.75
-9.55
-16.98
-23.34
-27.97
-30.43
-30.68
-29.02
-26.11
-22.76
-19.85
-18.05
-17.67
-18.58
-20.37
-22.53
-24.71
-26.88
-29.13
-31.53
-33.97
-36.11
-37.65
-38.64
-39.59
-41.32
-44.58
-49.66
-56.12
-62.92
-68.65
-72.08
-72.46
-69.71
-64.3
-57.1
-49.2
-41.66
-35.3
-30.46
-26.85
-23.51
-19.1
-12.45
-3.08
8.54
21.09
32.93
42.61
49.3
52.78
53.26
51.06
46.44
39.5
30.28
18.8
5.18
-10.18
-26.37
-41.87
-54.57
-62.13
-62.58
-54.94
-39.54
-18.16
6.35
30.59
51.33
66.1
73.56
73.76
67.88
57.92
46.22
34.99
25.95
20.15
17.83
18.52
21.22
24.71
28.0
30.58
32.55
34.36
36.51
39.1
41.77
43.86
44.72
44.07
42.08
39.29
36.25
33.32
30.47
27.29
23.23
17.77
10.72
2.33
-6.64
-15.04
-21.61
-25.26
-25.41
-22.06
-15.86
-7.83
0.81
8.9
15.49
20.01
22.31
22.72
21.88
20.55
19.35
18.55
18.11
17.79
17.44
17.08
16.98
17.45
18.72
20.82
23.58
26.65
29.61
31.99
33.3
33.18
31.46
28.31
24.25
20.06
16.48
13.99
12.62
11.94
11.29
10.05
7.85
4.68
0.71
-3.78
-8.61
-13.71
-19.02
-24.46
-29.75
-34.63
-38.91
-42.66
-46.32
-50.51
-55.77
-62.29
-69.68
-77.02
-83.15
-87.1
-88.43
-87.32
-84.33
-80.04
-74.66
-67.99
-59.64
-49.38
-37.47
-24.69
-12.11
-0.76
8.64
15.86
21.3
26.0
31.82
41.22
56.52
78.94
107.59
139.07
168.06
188.87
197.21
191.56
173.59
147.36
117.88
89.6
65.41
46.46
32.42
22.23
14.67
8.85
4.31
0.93
-1.41
-3.08
-4.72
-7.04
-10.47
-15.08
-20.6
-26.72
-33.29
-40.22
-47.38
-54.13
-59.41
-61.98
-60.9
-56.01
-48.08
-38.48
-28.62
-19.47
-11.38
-4.14
2.6
9.11
15.38
21.27
26.54
31.14
35.16
38.84
42.3
45.49
48.07
49.63
49.9
48.93
47.22
45.52
44.62
44.97
46.56
48.8
50.77
51.51
50.34
47.1
42.09
35.96
29.4
22.91
16.73
10.95
5.6
0.83
-3.15
-6.18
-8.28
-9.74
-10.98
-12.39
-14.14
-16.17
-18.2
-19.95
-21.24
-22.1
-22.69
-23.26
-24.0
-25.12
-26.73
-28.89
-31.58
-34.65
-37.67
-40.06
-41.14
-40.41
-37.69
-33.21
-27.47
-21.11
-14.62
-8.31
-2.33
3.25
8.28
12.54
15.79
17.86
18.85
19.1
19.13
19.42
20.19
21.26
22.14
22.29
21.43
19.83
18.24
17.58
18.52
21.0
24.22
26.91
27.95
26.91
24.3
21.37
19.52
19.61
21.65
24.68
27.31
28.22
26.61
22.44
16.34
9.52
3.67
0.76
2.59
9.96
21.81
34.77
43.91
44.45
33.94
13.66
-11.58
-35.37
-52.44
-60.8
-61.98
-59.68
-57.51
-57.27
-58.62
-59.99
-60.08
-58.64
-56.59
-55.1
-54.66
-54.72
-53.83
-50.52
-44.0
-34.73
-24.46
-15.75
-11.26
-12.59
-19.46
-29.37
-38.15
-41.44
-36.27
-22.03
-0.4
25.83
53.93
81.89
107.98
129.87
144.1
146.88
135.67
110.82
76.05
37.34
0.85
-29.09
-50.85
-64.92
-72.66
-75.23
-73.34
-67.65
-59.36
-50.33
-42.63
-37.64
-35.6
-35.54
-35.98
-35.84
-34.85
-33.46
-32.26
-31.26
-29.74
-26.56
-20.92
-12.92
-3.67
5.29
12.68
18.04
21.85
25.07
28.62
32.92
37.75
42.48
46.39
49.02
50.24
50.26
49.42
47.94
45.85
42.98
39.19
34.52
29.26
23.87
18.76
14.12
9.87
5.76
1.52
-2.93
-7.43
-11.69
-15.37
-18.29
-20.46
-22.08
-23.42
-24.69
-25.93
-27.01
-27.74
-27.94
-27.57
-26.76
-25.73
-24.8
-24.24
-24.2
-24.66
-25.44
-26.11
-26.15
-25.07
-22.55
-18.57
-13.4
-7.46
-1.2
5.0
10.87
16.16
20.71
24.41
27.31
29.62
31.64
33.6
35.56
37.33
38.65
39.25
39.14
38.48
37.59
36.74
36.03
35.42
34.58
32.97
29.79
24.25
15.84
4.81
-7.65
-19.54
-28.48
-32.52
-30.8
-23.87
-13.46
-1.9
8.6
16.52
21.14
22.42
20.67
16.35
9.88
1.69
-7.81
-18.17
-28.89
-39.45
-49.24
-57.68
-64.18
-68.34
-69.96
-69.13
-66.14
-61.41
-55.42
-48.65
-41.68
-35.12
-29.55
-25.35
-22.68
-21.39
-21.13
-21.52
-22.13
-22.66
-22.85
-22.47
-21.42
-19.65
-17.25
-14.41
-11.48
-8.78
-6.64
-5.21
-4.41
-4.0
-3.66
-3.15
-2.43
-1.63
-0.96
-0.59
-0.54
-0.72
-1.06
-1.63
-2.57
-4.09
-6.31
-9.26
-12.83
-16.82
-20.99
-24.98
-28.34
-30.55
-31.11
-29.7
-26.27
-21.13
-14.8
-7.91
-1.03
5.45
11.26
16.29
20.49
23.91
26.62
28.7
30.17
31.03
31.3
31.05
30.45
29.71
29.04
28.53
28.23
28.1
28.11
28.23
28.45
28.67
28.74
28.45
27.65
26.3
24.46
22.37
20.28
18.38
16.79
15.45
14.13
12.56
10.49
7.71
4.13
-0.32
-5.78
-12.3
-19.75
-27.7
-35.32
-41.58
-45.54
-46.69
-45.11
-41.38
-36.33
-30.7
-24.97
-19.34
-13.89
-8.76
-4.19
-0.48
2.09
3.46
3.79
3.4
2.68
2.04
1.74
1.98
2.84
4.29
6.28
8.66
11.26
13.84
16.18
18.03
19.24
19.71
19.42
18.44
16.9
14.99
12.88
10.69
8.52
6.37
4.22
2.01
-0.3
-2.75
-5.43
-8.43
-11.78
-15.41
-19.02
-22.08
-23.93
-23.94
-21.79
-17.61
-11.9
-5.48
0.83
6.4
10.94
14.47
17.19
19.32
21.03
22.37
23.3
23.76
23.72
23.23
22.41
21.45
20.53
19.78
19.21
18.77
18.38
18.01
17.63
17.26
16.87
16.37
15.66
14.62
13.19
11.36
9.21
6.86
4.48
2.24
0.3
-1.23
-2.41
-3.4
-4.47
-5.92
-7.93
-10.5
-13.43
-16.22
-18.32
-19.17
-18.48
-16.27
-12.92
-8.94
-4.87
-1.07
2.25
5.0
7.14
8.62
9.5
9.92
10.09
10.25
10.51
10.8
10.99
10.9
10.45
9.68
8.77
7.92
7.36
7.21
7.49
8.1
8.82
9.42
9.72
9.62
9.16
8.41
7.49
6.46
5.43
4.54
3.95
3.78
3.96
4.22
4.14
3.37
1.77
-0.5
-3.13
-5.77
-8.18
-10.26
-11.88
-12.79
-12.63
-11.13
-8.26
-4.37
-0.07
4.01
7.38
9.91
11.64
12.65
12.92
12.4
11.11
9.28
7.39
5.95
5.37
5.71
6.75
8.01
8.91
8.81
7.1
3.33
-2.56
-10.06
-17.98
-24.63
-28.36
-28.14
-23.96
-16.93
-8.85
-1.46
4.22
8.31
12.04
17.25
25.64
37.95
53.53
70.15
84.55
93.38
94.26
86.67
72.23
54.28
37.03
24.33
18.67
20.68
29.09
41.12
53.13
61.36
62.95
56.82
44.25
28.5
13.69
2.91
-3.31
-7.33
-13.28
-24.88
-43.41
-66.8
-90.47
-109.28
-119.59
-120.33
-112.79
-99.51
-83.05
-65.43
-48.16
-32.65
-20.37
-12.7
-10.4
-13.11
-19.21
-26.19
-31.55
-33.62
-32.2
-28.54
-24.81
-23.17
-25.02
-30.6
-39.0
-48.6
-57.52
-64.06
-66.93
-65.48
-59.85
-51.01
-40.49
-29.97
-20.65
-12.77
-5.72
1.6
10.18
20.46
32.28
45.08
58.16
70.68
81.6
89.64
93.56
92.68
87.38
79.12
69.95
61.76
55.61
51.54
48.86
46.84
45.14
43.94
43.62
44.34
45.74
47.1
47.61
46.75
44.57
41.5
38.22
35.32
33.05
31.18
28.96
25.2
18.48
7.47
-8.81
-30.73
-57.76
-88.5
-120.73
-151.89
-179.51
-201.72
-217.42
-226.2
-228.05
-223.0
-211.17
-193.02
-169.73
-143.24
-116.03
-90.35
-67.59
-48.07
-31.27
-16.54
-3.57
7.29
15.51
20.73
23.25
23.98
24.11
24.67
26.13
28.39
30.97
33.35
35.24
36.62
37.68
38.67
39.68
40.64
41.31
41.42
40.8
39.45
37.51
35.23
32.71
29.87
26.44
22.06
16.55
10.07
3.1
-3.69
-9.7
-14.68
-18.81
-22.62
-26.75
-31.64
-37.38
-43.57
-49.45
-54.12
-56.73
-56.67
-53.62
-47.56
-38.82
-27.94
-15.68
-2.93
9.45
20.61
29.96
37.18
42.38
46.14
49.4
53.1
57.85
63.6
69.61
74.84
78.52
80.6
81.8
83.23
85.78
89.67
94.35
98.83
102.17
103.77
103.55
101.64
98.24
93.56
87.75
81.08
73.98
67.09
61.01
56.12
52.41
49.38
46.28
42.53
38.11
33.5
29.34
25.83
22.51
18.69
14.19
9.9
7.52
8.61
13.37
20.05
25.57
26.99
23.11
15.1
5.92
-1.21
-4.29
-3.48
-0.78
0.95
-0.85
-7.56
-19.05
-33.85
-49.8
-64.72
-76.89
-85.28
-89.4
-89.14
-84.64
-76.45
-65.61
-53.7
-42.57
-33.94
-28.88
-27.68
-30.0
-35.1
-42.22
-50.65
-59.74
-68.86
-77.32
-84.46
-89.8
-93.05
-94.14
-93.14
-90.27
-85.97
-80.85
-75.73
-71.49
-68.88
-68.28
-69.54
-71.9
-74.2
-75.05
-73.31
-68.35
-60.32
-49.96
-38.39
-26.67
-15.6
-5.56
3.36
11.19
17.96
23.6
28.01
31.16
33.14
34.19
34.73
35.23
36.18
37.87
40.37
43.51
46.99
50.53
53.97
57.29
60.4
63.12
65.04
65.67
64.64
61.86
57.67
52.72
47.78
43.47
40.06
37.47
35.35
33.21
30.55
26.87
21.71
14.75
6.02
-3.83
-13.59
-21.67
-26.67
-27.89
-25.62
-20.94
-15.28
-9.81
-5.09
-1.05
2.77
6.82
11.21
15.71
19.82
23.01
24.94
25.64
25.43
24.87
24.56
25.08
26.85
30.03
34.41
39.21
43.22
44.97
43.3
37.94
29.65
20.02
10.78
3.15
-2.55
-6.72
-10.01
-12.83
-15.15
-16.73
-17.45
-17.51
-17.41
-17.71
-18.81
-20.89
-23.89
-27.65
-31.72
-35.45
-37.93
-38.31
-36.06
-31.22
-24.39
-16.5
-8.57
-1.43
4.35
8.42
10.71
11.37
10.91
10.01
9.34
9.24
9.54
9.61
8.77
6.69
3.82
1.36
0.85
3.48
9.42
17.54
25.62
31.08
31.91
27.42
18.54
7.53
-2.8
-9.97
-12.56
-10.59
-5.44
0.59
4.86
5.17
0.37
-9.15
-21.29
-32.75
-39.93
-40.4
-33.95
-22.88
-11.17
-2.76
0.03
-2.69
-8.96
-16.28
-22.97
-28.61
-33.46
-37.41
-39.32
-37.25
-29.7
-16.74
-0.45
15.69
28.15
34.79
35.47
31.77
26.1
20.58
16.34
13.46
11.37
9.42
7.41
5.63
4.68
4.99
6.51
8.59
10.2
10.39
8.64
5.06
0.32
-4.69
-9.1
-12.41
-14.48
-15.54
-16.01
-16.35
-16.89
-17.82
-19.13
-20.66
-22.26
-23.81
-25.27
-26.64
-27.99
-29.34
-30.72
-32.18
-33.7
-35.16
-36.32
-36.86
-36.48
-35.08
-32.72
-29.54
-25.62
-20.87
-15.24
-8.88
-2.43
3.04
6.48
7.44
6.46
5.06
5.16
8.32
14.97
24.05
33.13
39.06
38.96
31.27
16.54
-2.38
-20.94
-34.05
-37.65
-30.06
-12.71
10.06
32.18
47.68
52.6
46.51
32.9
18.01
8.69
9.73
22.0
42.42
65.59
86.25
101.32
110.5
115.2
116.78
115.28
109.28
97.05
77.86
52.77
24.49
-3.75
-29.43
-51.47
-70.21
-86.96
-102.97
-118.79
-133.62
-145.27
-150.45
-145.74
-128.63
-98.6
-57.92
-11.37
34.66
73.81
101.37
115.37
116.7
108.29
93.82
76.44
58.24
40.29
23.24
7.98
-4.19
-11.86
-14.15
-11.42
-5.34
1.59
6.98
9.3
8.5
5.65
2.35
-0.19
-1.63
-2.63
-4.25
-7.42
-12.42
-18.75
-25.37
-31.15
-35.22
-37.33
-37.96
-38.17
-39.19
-41.97
-46.64
-52.48
-58.11
-62.13
-63.62
-62.45
-59.05
-54.08
-48.01
-40.98
-33.1
-24.67
-16.38
-9.13
-3.76
-0.65
0.37
-0.01
-0.94
-1.64
-1.73
-1.19
-0.29
0.64
1.41
2.08
2.81
3.87
5.41
7.41
9.67
11.85
13.59
14.62
14.84
14.33
13.28
11.9
10.33
8.65
6.82
4.83
2.67
0.42
-1.78
-3.77
-5.47
-6.92
-8.29
-9.8
-11.65
-13.85
-16.31
-18.79
-21.09
-23.1
-24.86
-26.6
-28.62
-31.22
-34.54
-38.54
-42.94
-47.19
-50.59
-52.42
-52.1
-49.39
-44.4
-37.64
-29.88
-21.93
-14.55
-8.25
-3.28
0.34
2.8
4.37
5.34
5.93
6.27
6.33
6.03
5.29
4.12
2.59
0.9
-0.68
-1.9
-2.53
-2.39
-1.44
0.31
2.9
6.52
11.59
18.69
28.25
40.22
53.83
67.54
79.27
86.93
88.92
84.69
74.82
60.95
45.32
30.13
17.06
6.91
-0.4
-5.58
-9.47
-12.83
-16.08
-19.36
-22.75
-26.37
-30.38
-35.02
-40.42
-46.53
-53.07
-59.51
-65.11
-69.08
-70.7
-69.44
-65.13
-57.98
-48.53
-37.6
-26.13
-15.03
-5.13
3.01
9.09
13.12
15.41
16.46
16.82
16.97
17.14
17.38
17.62
17.82
18.03
18.41
19.16
20.37
22.0
23.77
25.33
26.37
26.74
26.47
25.7
24.63
23.33
21.85
20.16
18.2
15.96
13.44
10.71
7.85
5.03
2.37
0.03
-1.93
-3.64
-5.36
-7.42
-10.11
-13.49
-17.4
-21.46
-25.34
-28.85
-32.09
-35.39
-39.17
-43.79
-49.27
-55.25
-60.94
-65.29
-67.2
-65.81
-60.74
-52.22
-41.08
-28.52
-15.85
-4.18
5.84
13.97
20.37
25.27
28.94
31.48
32.94
33.37
32.9
31.86
30.65
29.68
29.27
29.6
30.71
32.53
34.9
37.56
40.23
42.52
44.09
44.67
44.14
42.58
40.21
37.39
34.42
31.5
28.69
25.87
22.92
19.74
16.4
13.08
9.98
7.13
4.43
1.65
-1.46
-5.02
-8.99
-13.19
-17.41
-21.48
-25.37
-29.08
-32.76
-36.65
-41.05
-46.15
-51.93
-57.9
-63.1
-66.26
-66.13
-61.96
-53.8
-42.59
-29.82
-17.08
-5.59
4.04
11.78
17.97
22.96
26.93
29.87
31.66
32.26
31.82
30.69
29.32
28.18
27.62
27.87
28.95
30.79
33.19
35.93
38.7
41.17
42.97
43.74
43.27
41.6
38.99
35.89
32.72
29.77
27.07
24.47
21.75
18.76
15.51
12.02
8.37
4.61
0.76
-3.14
-7.03
-10.84
-14.54
-18.16
-21.83
-25.73
-30.06
-34.93
-40.16
-45.25
-49.24
-51.02
-49.55
-44.31
-35.54
-24.15
-11.52
1.0
12.39
22.11
30.0
36.1
40.44
42.97
43.67
42.68
40.37
37.29
34.03
31.09
28.82
27.4
26.9
27.36
28.74
30.9
33.52
36.08
37.97
38.59
37.52
34.68
30.34
25.03
19.42
14.09
9.39
5.36
1.79
-1.61
-5.08
-8.71
-12.46
-16.25
-19.98
-23.55
-26.88
-29.95
-32.79
-35.57
-38.63
-42.24
-46.52
-51.16
-55.39
-58.15
-58.35
-55.26
-48.75
-39.3
-27.83
-15.44
-3.15
8.28
18.3
26.68
33.35
38.4
41.99
44.18
44.82
43.61
40.27
34.78
27.67
19.91
12.79
7.48
4.74
4.69
6.9
10.63
15.08
19.55
23.56
26.84
29.23
30.68
31.23
30.99
30.18
29.05
27.8
26.51
25.01
23.06
20.37
16.86
12.68
8.16
3.66
-0.62
-4.67
-8.59
-12.45
-16.21
-19.69
-22.82
-25.69
-28.63
-32.16
-36.71
-42.38
-48.73
-54.83
-59.42
-61.28
-59.57
-54.02
-45.04
-33.57
-20.85
-8.15
3.45
13.21
20.84
26.37
30.17
32.69
34.39
35.6
36.45
36.96
37.1
36.87
36.29
35.42
34.36
33.25
32.31
31.77
31.83
32.52
33.69
34.92
35.77
35.83
34.92
33.15
30.76
28.07
25.28
22.48
19.61
16.61
13.48
10.32
7.29
4.59
2.28
0.35
-1.37
-3.17
-5.33
-8.06
-11.41
-15.19
-19.12
-22.85
-26.11
-28.85
-31.29
-33.87
-37.1
-41.29
-46.31
-51.53
-55.86
-58.05
-57.11
-52.64
-44.94
-34.92
-23.76
-12.62
-2.37
6.45
13.61
19.15
23.19
25.95
27.61
28.38
28.41
27.92
27.11
26.21
25.42
24.9
24.73
24.97
25.67
26.84
28.45
30.3
32.11
33.51
34.17
33.88
32.5
29.98
26.38
21.86
16.76
11.6
6.93
3.27
0.93
-0.08
-0.02
0.71
1.66
2.4
2.55
1.74
-0.34
-3.86
-8.71
-14.5
-20.54
-26.02
-30.3
-33.03
-34.33
-34.72
-34.96
-35.91
-38.25
-42.23
-47.52
-53.17
-57.81
-59.98
-58.62
-53.39
-44.73
-33.68
-21.52
-9.4
1.82
11.63
19.74
