-0.75
0.91
2.37
3.78
5.14
6.33
7.21
7.62
7.6
7.29
6.88
6.54
6.35
6.28
6.3
6.37
6.53
6.78
7.17
7.64
8.14
8.59
8.9
9.06
9.12
9.15
9.26
9.53
9.98
10.6
11.37
12.19
12.96
13.5
13.59
13.06
11.8
9.81
7.25
4.27
1.04
-2.28
-5.56
-8.63
-11.31
-13.46
-15.03
-16.04
-16.58
-16.69
-16.34
-15.49
-14.17
-12.5
-10.7
-9.01
-7.57
-6.36
-5.26
-4.16
-3.03
-2.02
-1.32
-1.04
-1.2
-1.65
-2.18
-2.66
-3.04
-3.4
-3.83
-4.42
-5.14
-5.91
-6.58
-7.05
-7.26
-7.26
-7.22
-7.33
-7.79
-8.67
-9.87
-11.15
-12.25
-12.99
-13.38
-13.54
-13.61
-13.64
-13.57
-13.3
-12.8
-12.16
-11.58
-11.28
-11.33
-11.72
-12.38
-13.3
-14.55
-16.19
-18.14
-20.1
-21.59
-22.14
-21.48
-19.69
-17.16
-14.39
-11.8
-9.53
-7.48
-5.38
-2.93
0.01
3.39
6.91
10.14
12.7
14.41
15.44
16.09
16.76
17.6
18.56
19.43
20.07
20.49
20.86
21.31
21.8
22.12
21.98
21.28
20.17
19.12
18.67
19.31
21.29
24.67
29.29
34.75
40.38
45.15
47.67
46.41
40.0
27.65
9.61
-12.76
-37.2
-61.06
-82.03
-98.69
-110.74
-118.86
-124.19
-127.79
-130.31
-131.92
-132.69
-132.91
-133.17
-134.11
-135.96
-138.12
-139.18
-137.48
-131.89
-122.33
-109.97
-96.67
-84.25
-73.88
-65.85
-59.86
-55.53
-52.72
-51.55
-52.24
-54.8
-58.91
-63.97
-69.19
-73.82
-77.22
-78.78
-77.89
-73.84
-65.83
-53.26
-36.13
-15.45
6.65
27.26
43.56
53.8
57.8
56.88
53.09
48.33
43.59
38.95
34.01
28.48
22.57
16.79
11.64
7.16
2.87
-2.0
-8.15
-15.79
-24.52
-33.27
-40.6
-45.05
-45.57
-41.76
-33.98
-23.18
-10.7
2.02
13.65
23.17
30.12
34.61
37.42
39.7
42.58
46.66
51.85
57.46
62.66
66.86
69.98
72.22
73.79
74.64
74.52
73.22
70.9
68.16
65.81
64.55
64.61
65.65
67.0
67.96
68.0
66.87
64.4
60.5
55.15
48.66
41.71
35.32
30.58
28.23
28.27
29.8
31.13
30.34
25.95
17.67
6.78
-4.05
-11.54
-13.06
-7.68
3.29
16.86
29.55
38.95
44.45
47.15
48.89
51.09
54.11
57.39
60.05
61.55
62.0
61.9
61.62
61.05
59.57
56.48
51.48
44.91
37.68
30.88
25.34
21.41
18.84
17.06
15.34
13.07
10.09
6.54
2.76
-0.85
-4.01
-6.56
-8.66
-10.67
-13.19
-16.44
-20.38
-24.61
-28.5
-31.49
-33.3
-34.17
-34.75
-35.97
-38.14
-41.28
-45.09
-49.07
-52.5
-54.26
-52.98
-47.37
-36.95
-21.1
-0.68
22.05
44.23
63.57
79.39
92.67
104.91
116.71
130.11
145.84
163.47
181.78
199.55
216.09
231.17
244.62
255.55
267.72
284.53
307.71
336.17
366.46
394.6
417.69
434.64
445.19
456.27
473.97
500.93
535.19
571.51
604.41
630.45
648.83
628.81
553.27
420.56
248.24
64.83
-104.4
-245.52
-355.11
-429.66
-479.22
-506.52
-512.69
-499.99
-473.55
-440.5
-407.39
-378.23
-354.0
-334.34
-312.23
-281.57
-240.01
-190.38
-139.61
-95.45
-63.45
-45.42
-40.56
-42.61
-45.85
-47.36
-47.58
-48.91
-53.53
-61.9
-72.87
-85.09
-95.73
-103.21
-107.49
-109.74
-111.51
-114.01
-117.88
-123.3
-130.51
-138.76
-147.15
-154.95
-161.98
-168.7
-175.82
-183.45
-190.18
-192.73
-186.43
-167.04
-132.8
-85.74
-31.33
23.29
71.61
109.28
134.4
146.75
146.75
135.17
113.43
84.33
52.09
21.53
-3.31
-20.33
-29.79
-33.64
-34.42
-34.18
-33.95
-33.72
-32.88
-30.68
-26.64
-20.92
-14.3
-7.8
-2.27
2.13
6.0
10.42
16.32
23.89
32.31
40.11
45.74
48.16
47.19
43.53
38.33
32.82
27.97
24.35
22.11
21.08
20.87
21.02
21.09
20.71
19.6
17.52
14.23
9.5
3.22
-4.55
-13.43
-22.77
-31.68
-39.27
-44.9
-48.38
-50.03
-50.57
-50.84
-51.49
-52.86
-54.97
-57.6
-60.44
-63.19
-65.56
-67.22
-67.86
-67.24
-65.32
-62.32
-58.74
-55.21
-52.31
-50.37
-49.39
-49.07
-48.95
-48.61
-47.82
-46.62
-45.21
-43.84
-42.73
-41.95
-41.55
-41.57
-42.05
-43.04
-44.49
-46.27
-48.16
-49.89
-51.21
-51.89
-51.82
-51.03
-49.75
-48.38
-47.3
-46.64
-46.2
-45.35
-43.34
-39.56
-33.79
-26.34
-17.91
-9.45
-1.81
4.37
8.77
11.47
12.8
13.21
13.12
12.69
11.88
10.47
8.35
5.63
2.64
-0.17
-2.5
-4.33
-5.99
-8.0
-10.73
-14.16
-17.56
-19.48
-18.16
-12.2
-1.27
13.43
29.21
42.65
50.44
50.24
41.33
24.67
3.0
-19.44
-37.47
-46.07
-41.95
-24.94
1.42
30.68
55.63
70.75
73.89
66.41
51.94
34.43
16.76
0.3
-14.47
-27.21
-37.27
-43.89
-46.76
-46.44
-44.3
-41.93
-40.37
-39.7
-39.14
-37.56
-34.29
-29.48
-24.23
-20.11
-18.51
-20.23
-25.11
-32.17
-39.81
-46.27
-49.95
-49.87
-45.93
-38.94
-30.47
-22.36
-16.12
-12.5
-11.36
-11.86
-12.97
-13.82
-13.94
-13.21
-11.67
-9.33
-6.1
-2.02
2.58
6.93
9.88
10.13
6.51
-1.76
-14.77
-31.77
-51.09
-70.34
-86.81
-98.11
-102.81
-100.88
-93.66
-83.28
-71.78
-60.43
-49.39
-37.93
-25.03
-10.16
6.15
22.11
35.6
45.03
49.93
51.03
49.56
46.53
42.22
36.16
27.18
14.76
-0.42
-16.96
-33.51
-49.58
-65.65
-82.52
-100.6
-120.18
-140.14
-158.17
-171.48
-177.9
-176.69
-168.75
-156.22
-141.65
-128.21
-117.27
-107.75
-97.0
-82.31
-62.33
-37.39
-8.91
28.44
75.23
127.49
177.58
217.09
240.57
246.97
239.29
222.98
203.95
186.34
171.56
159.84
150.8
143.59
137.03
129.91
121.36
111.35
99.81
87.11
75.07
65.89
61.13
61.03
64.57
69.76
74.2
75.06
70.22
59.11
42.69
23.09
2.89
-15.63
-31.21
-43.74
-54.18
-63.58
-72.22
-79.45
-84.07
-84.96
-81.53
-74.12
-63.77
-51.96
-40.07
-28.84
-18.52
-9.04
-0.22
8.02
15.68
22.76
29.29
35.28
40.67
45.19
48.46
50.16
50.22
48.96
47.0
45.08
43.74
43.26
43.56
44.33
45.24
46.01
46.49
46.63
46.41
45.81
44.79
43.29
41.3
38.81
35.91
32.7
29.35
26.01
22.77
19.61
16.39
12.98
9.32
5.49
1.69
-1.87
-5.07
-7.99
-10.84
-13.9
-17.35
-21.31
-25.79
-30.78
-36.19
-41.8
-47.04
-51.09
-52.96
-51.87
-47.59
-40.54
-31.69
-22.26
-13.3
-5.39
1.38
7.28
12.65
17.76
22.74
27.57
32.18
36.44
40.22
43.34
45.6
46.9
47.26
46.91
46.21
45.57
45.23
45.26
45.45
45.48
45.02
43.88
42.02
39.56
36.7
33.66
30.62
27.77
25.22
22.99
21.02
19.11
17.06
14.69
11.99
9.03
5.95
2.87
-0.16
-3.18
-6.21
-9.26
-12.34
-15.49
-18.85
-22.59
-26.8
-31.32
-35.69
-39.18
-40.97
-40.41
-37.28
-31.86
-24.83
-17.09
-9.44
-2.44
3.7
9.03
13.76
18.02
21.89
25.3
28.1
30.16
31.38
31.82
31.69
31.25
30.83
30.63
30.72
31.01
31.27
31.28
30.9
30.06
28.83
27.26
25.43
23.38
21.14
18.73
16.23
13.72
11.31
9.08
7.07
5.23
3.45
1.61
-0.41
-2.7
-5.3
-8.22
-11.41
-14.75
-18.08
-21.25
-24.18
-26.93
-29.71
-32.78
-36.32
-40.28
-44.3
-47.71
-49.72
-49.69
-47.26
-42.54
-36.02
-28.47
-20.7
-13.42
-7.06
-1.77
2.59
6.29
9.61
12.76
15.78
18.59
20.99
22.83
24.04
24.65
24.8
24.64
24.3
23.83
23.23
22.49
21.61
20.6
19.51
18.3
16.93
15.32
13.45
11.4
9.31
7.36
5.63
4.07
2.54
0.85
-1.08
-3.22
-5.42
-7.5
-9.4
-11.13
-12.76
-14.29
-15.68
-16.88
-17.89
-18.83
-19.92
-21.35
-23.26
-25.63
-28.31
-31.04
-33.45
-35.07
-35.39
-33.97
-30.64
-25.58
-19.42
-12.97
-7.03
-2.1
1.74
4.77
7.45
10.18
13.15
16.28
19.28
21.78
23.42
23.96
23.39
21.81
19.53
16.94
14.46
12.49
11.31
11.06
11.69
12.97
14.52
15.85
16.54
16.34
15.28
13.67
11.94
10.49
9.48
8.77
8.04
6.91
5.2
2.89
0.15
-2.8
-5.83
-8.91
-12.1
-15.46
-19.05
-22.8
-26.51
-29.91
-32.57
-34.06
-34.01
-32.26
-28.92
-24.39
-19.3
-14.32
-10.02
-6.73
-4.5
-3.14
-2.33
-1.74
-1.14
-0.4
0.47
1.38
2.28
3.14
4.01
4.91
5.83
6.68
7.27
7.48
7.26
6.77
6.25
5.96
6.02
6.34
6.68
6.74
6.3
5.29
3.76
1.86
-0.28
-2.53
-4.8
-7.02
-9.19
-11.35
-13.63
-16.15
-19.01
-22.17
-25.47
-28.55
-30.93
-32.1
-31.63
-29.38
-25.5
-20.51
-15.12
-10.0
-5.65
-2.24
0.32
2.3
4.02
5.77
7.76
10.02
12.4
14.66
16.49
17.65
18.1
17.93
17.36
16.63
15.88
15.19
14.58
14.05
13.58
13.12
12.56
11.75
10.58
9.05
7.31
5.62
4.17
3.05
2.13
1.15
-0.18
-1.98
-4.16
-6.48
-8.64
-10.52
-12.14
-13.73
-15.57
-17.89
-20.78
-24.16
-27.72
-30.96
-33.21
-33.82
-32.41
-28.97
-23.98
-18.18
-12.4
-7.24
-2.96
0.48
3.29
5.74
8.03
10.3
12.58
14.81
16.87
18.56
19.74
20.3
20.32
19.89
19.17
18.32
17.47
16.72
16.19
15.97
16.03
16.27
16.43
16.24
15.48
14.08
12.16
9.96
7.76
5.73
3.93
2.28
0.59
-1.3
-3.49
-5.92
-8.44
-10.8
-12.83
-14.48
-15.88
-17.34
-19.23
-21.83
-25.14
-28.85
-32.35
-34.86
-35.71
-34.56
-31.48
-26.96
-21.7
-16.4
-11.53
-7.26
-3.5
-0.04
3.31
6.63
9.88
12.94
15.68
17.99
19.76
20.94
21.47
21.4
20.86
20.06
19.24
18.56
18.07
17.74
17.49
17.24
16.91
16.45
15.73
14.65
13.14
11.28
9.29
7.48
6.07
5.14
4.53
3.94
3.07
1.73
-0.09
-2.25
-4.54
-6.8
-8.91
-10.85
-12.68
-14.54
-16.56
-18.9
-21.61
-24.63
-27.74
-30.53
-32.5
-33.15
-32.18
-29.58
-25.62
-20.86
-15.88
-11.13
-6.89
-3.2
0.06
3.01
5.8
8.49
11.13
13.66
16.0
18.01
19.56
20.54
20.97
20.9
20.43
19.7
18.82
17.91
17.12
16.57
16.34
16.4
16.59
16.71
16.53
15.87
14.68
13.03
11.07
9.05
7.18
5.6
4.3
3.14
1.92
0.44
-1.37
-3.44
-5.66
-7.84
-9.86
-11.68
-13.31
-14.87
-16.51
-18.44
-20.81
-23.68
-26.85
-29.88
-32.16
-33.07
-32.22
-29.57
-25.46
-20.49
-15.35
-10.57
-6.48
-3.1
-0.31
2.11
4.39
6.65
8.94
11.22
13.4
15.31
16.78
17.69
17.99
17.8
17.26
16.6
15.95
15.42
15.0
14.65
14.33
14.02
13.7
13.34
12.87
12.21
11.26
9.97
8.36
6.54
4.75
3.21
2.04
1.21
0.49
-0.38
-1.59
-3.17
-4.94
-6.66
-8.16
-9.45
-10.67
-12.05
-13.78
-15.92
-18.45
-21.19
-23.96
-26.46
-28.31
-29.03
-28.2
-25.64
-21.51
-16.36
-10.95
-6.02
-2.03
0.96
3.22
5.12
6.98
8.92
10.84
12.59
14.01
15.06
15.74
16.11
16.17
15.94
15.43
14.71
13.93
13.26
12.77
12.39
11.92
11.14
9.96
8.45
6.89
5.55
4.56
3.81
3.04
2.0
0.54
-1.23
-3.07
-4.75
-6.21
-7.54
-8.98
-10.69
-12.64
-14.6
-16.27
-17.44
-18.12
-18.54
-19.04
-19.91
-21.29
-23.14
-25.23
-27.28
-28.91
-29.76
-29.53
-28.03
-25.3
-21.62
-17.48
-13.39
-9.75
-6.68
-4.08
-1.65
0.86
3.61
6.54
9.42
11.99
14.02
15.43
16.23
16.53
16.44
16.04
15.4
14.61
13.83
13.25
12.95
12.88
12.86
12.67
12.15
11.3
10.26
9.18
8.15
7.15
6.11
4.96
3.69
2.37
1.04
-0.29
-1.65
-3.07
-4.5
-5.86
-7.11
-8.23
-9.33
-10.54
-11.98
-13.64
-15.49
-17.46
-19.57
-21.89
-24.47
-27.2
-29.76
-31.61
-32.15
-31.02
-28.19
-24.02
-19.18
-14.31
-9.93
-6.22
-3.12
-0.43
2.06
4.45
6.76
8.92
10.85
12.46
13.73
14.64
15.21
15.46
15.43
15.14
14.64
14.03
13.44
13.05
12.98
13.19
13.47
13.53
13.1
12.06
10.57
8.88
7.29
5.95
4.82
3.76
2.6
1.27
-0.21
-1.79
-3.44
-5.14
-6.86
-8.55
-10.16
-11.66
-13.17
-14.9
-17.12
-19.98
-23.38
-27.0
-30.31
-32.74
-33.78
-33.13
-30.7
-26.74
-21.74
-16.34
-11.21
-6.81
-3.29
-0.49
1.91
4.26
6.73
9.29
11.76
13.99
15.88
17.4
18.58
19.42
19.87
19.95
19.71
19.3
18.91
18.7
18.71
18.86
18.97
18.82
18.2
17.01
15.31
13.3
11.26
9.42
7.89
6.63
5.45
4.19
2.69
0.94
-1.01
-3.07
-5.18
-7.31
-9.44
-11.52
-13.54
-15.53
-17.58
-19.89
-22.67
-26.0
-29.73
-33.39
-36.28
-37.67
-37.04
-34.23
-29.58
-23.82
-17.81
-12.33
-7.79
-4.21
-1.29
1.39
4.19
7.27
10.58
13.92
17.04
19.7
21.75
23.12
23.83
24.0
23.77
23.31
22.76
22.23
21.81
21.53
21.39
21.3
21.12
20.69
19.88
18.65
17.06
15.24
13.36
11.6
10.05
8.74
7.58
6.41
5.05
3.36
1.3
-1.04
-3.51
-5.97
-8.35
-10.69
-13.08
-15.62
-18.41
-21.54
-25.03
-28.84
-32.71
-36.13
-38.45
-38.98
-37.29
-33.41
-27.87
-21.53
-15.32
-9.9
-5.51
-2.0
1.02
3.91
6.9
10.05
13.28
16.43
19.31
21.72
23.48
24.51
24.83
24.62
24.14
23.67
23.4
23.41
23.66
24.0
24.24
24.2
23.75
22.86
21.6
20.11
18.52
16.91
15.26
13.54
11.67
9.65
7.52
5.35
3.17
1.02
-1.14
-3.33
-5.55
-7.75
-9.9
-11.98
-14.03
-16.19
-18.64
-21.54
-24.97
-28.77
-32.61
-35.95
-38.16
-38.7
-37.26
-33.87
-28.92
-23.06
-17.0
-11.38
-6.54
-2.56
0.77
3.75
6.71
9.85
13.19
16.59
19.74
22.34
24.09
24.9
24.86
24.28
23.53
22.99
22.83
23.06
23.51
23.95
24.17
24.05
23.57
22.71
21.48
19.85
17.86
15.63
13.38
11.31
9.6
8.2
6.98
5.69
4.17
2.3
0.13
-2.22
-4.63
-6.97
-9.2
-11.33
-13.41
-15.53
-17.8
-20.33
-23.21
-26.43
-29.89
-33.23
-35.91
-37.32
-36.95
-34.58
-30.42
-25.06
-19.25
-13.71
-8.87
-4.85
-1.51
1.41
4.2
7.04
10.0
13.03
15.96
18.56
20.58
21.9
22.51
22.55
22.28
21.94
21.71
21.67
21.81
22.02
22.15
22.04
21.57
20.72
19.58
18.31
17.1
16.03
15.07
14.12
13.02
11.68
10.07
8.28
6.39
4.48
2.6
0.74
-1.07
-2.83
-4.52
-6.16
-7.83
-9.57
-11.46
-13.55
-15.83
-18.35
-21.12
-24.14
-27.31
-30.36
-32.86
-34.31
-34.24
-32.4
-28.89
-24.07
-18.59
-13.12
-8.23
-4.24
-1.19
1.19
3.29
5.46
7.89
10.53
13.12
15.36
17.03
18.03
18.43
18.36
17.96
17.37
16.71
16.16
15.89
15.98
16.37
16.83
17.03
16.76
15.98
14.87
13.73
12.82
12.18
11.71
11.17
10.37
9.29
8.02
6.66
5.25
3.72
1.96
-0.09
-2.38
-4.81
-7.22
-9.5
-11.65
-13.7
-15.78
-18.01
-20.58
-23.55
-26.89
-30.32
-33.37
-35.45
-36.0
-34.76
-31.77
-27.41
-22.24
-16.82
-11.63
-7.0
-3.11
0.01
2.48
4.59
6.65
8.89
11.31
13.72
15.75
17.08
17.6
17.41
16.8
16.06
15.39
14.87
14.48
14.2
14.03
13.97
13.98
13.95
13.77
13.31
12.54
11.52
10.35
9.15
7.95
6.79
5.64
4.53
3.42
2.3
1.1
-0.22
-1.72
-3.38
-5.14
-6.92
-8.66
-10.36
-12.04
-13.87
-15.99
-18.56
-21.66
-25.17
-28.78
-31.95
-34.1
-34.72
-33.53
-30.58
-26.23
-21.04
-15.6
-10.46
-5.99
-2.32
0.61
3.06
5.31
7.6
9.99
12.37
14.55
16.3
17.46
18.02
18.03
17.6
16.9
16.13
15.46
15.09
15.08
15.39
15.85
16.23
16.33
16.04
15.35
14.34
13.11
11.75
10.33
8.86
7.36
5.87
4.41
2.99
1.63
0.32
-0.99
-2.39
-4.02
-5.93
-8.12
-10.43
-12.67
-14.63
-16.25
-17.68
-19.24
-21.31
-24.16
-27.74
-31.62
-35.12
-37.42
-37.9
-36.27
-32.73
-27.81
-22.26
-16.79
-11.87
-7.68
-4.16
-1.1
1.73
4.52
7.39
10.31
13.2
15.85
18.02
19.49
20.12
19.91
19.06
17.87
16.68
15.82
15.43
15.53
15.97
16.52
16.95
17.07
16.8
16.13
15.16
13.97
12.68
11.37
10.1
8.83
7.54
6.15
4.65
3.05
1.39
-0.25
-1.85
-3.41
-4.99
-6.65
-8.42
-10.27
-12.18
-14.09
-16.08
-18.27
-20.85
-24.0
-27.76
-31.93
-36.04
-39.46
-41.46
-41.5
-39.36
-35.24
-29.71
-23.57
-17.58
-12.3
-7.95
-4.45
-1.5
1.21
3.94
6.79
9.73
12.65
15.34
17.56
19.15
20.03
20.32
20.27
20.17
20.27
20.63
21.15
21.59
21.77
21.59
21.08
20.33
19.42
18.38
17.18
15.81
14.25
12.57
10.83
9.11
7.44
5.82
4.19
2.49
0.64
-1.42
-3.66
-6.01
-8.33
-10.48
-12.4
-14.13
-15.86
-17.86
-20.43
-23.75
-27.81
-32.33
-36.77
-40.43
-42.56
-42.6
-40.28
-35.81
-29.82
-23.19
-16.84
-11.41
-7.13
-3.8
-1.01
1.74
4.75
8.08
11.56
14.91
17.81
20.04
21.49
22.23
22.46
22.42
22.37
22.44
22.63
22.84
22.94
22.88
22.62
22.22
21.64
20.83
19.69
18.14
16.22
14.03
11.79
9.66
7.77
6.12
4.62
3.13
1.5
-0.32
-2.35
-4.48
-6.63
-8.7
-10.7
-12.66
-14.72
-17.01
-19.69
-22.89
-26.68
-30.96
-35.44
-39.57
-42.59
-43.75
-42.57
-38.97
-33.44
-26.8
-20.04
-13.93
-8.86
-4.77
-1.28
2.07
5.59
9.37
13.2
16.75
19.64
21.68
22.87
23.36
23.47
23.47
23.56
23.82
24.24
24.77
25.37
25.94
26.39
26.55
26.26
25.41
23.97
22.07
19.92
17.75
15.73
13.93
12.29
10.75
9.22
7.64
5.97
4.12
2.07
-0.22
-2.72
-5.33
-7.91
-10.33
-12.57
-14.72
-17.03
-19.81
-23.33
-27.75
-32.89
-38.23
-42.96
-46.17
-47.1
-45.43
-41.33
-35.45
-28.65
-21.78
-15.52
-10.21
-5.89
-2.38
0.64
3.55
6.64
10.02
13.63
17.12
20.11
22.26
23.47
23.86
23.74
23.49
23.39
23.59
24.02
24.57
25.02
25.23
25.09
24.56
23.68
22.47
20.98
19.28
17.45
15.62
13.93
12.45
11.14
9.8
8.19
6.07
3.37
0.24
-3.0
-6.04
-8.64
-10.81
-12.78
-14.9
-17.55
-20.99
-25.28
-30.2
-35.21
-39.51
-42.19
-42.49
-40.07
-35.19
-28.61
-21.39
-14.48
-8.45
-3.45
0.73
4.4
7.8
11.03
14.09
16.93
19.52
21.81
23.71
25.12
25.95
26.21
26.01
25.56
25.03
24.6
24.31
24.2
24.17
24.1
23.82
23.15
21.98
20.28
18.25
16.11
14.09
12.32
10.72
9.13
7.36
5.3
2.95
0.44
-2.1
-4.52
-6.75
-8.79
-10.7
-12.66
-14.91
-17.72
-21.29
-25.6
-30.29
-34.67
-37.83
-38.91
-37.39
-33.31
-27.25
-20.18
-13.12
-6.76
-1.41
3.08
7.07
10.88
14.71
18.58
22.41
26.14
29.73
33.15
36.33
39.12
41.4
43.09
44.22
44.96
45.56
46.29
47.38
48.92
50.83
52.7
53.95
53.95
52.28
49.05
44.92
41.07
38.75
38.94
41.84
46.81
52.42
56.91
58.67
56.77
51.22
42.83
32.91
22.75
13.32
5.13
-1.78
-7.81
-13.69
-20.07
-27.42
-35.73
-44.45
-52.71
-59.8
-65.59
-70.77
-76.6
-83.84
-92.48
-101.58
-109.77
-115.85
-119.26
-120.16
-119.19
-117.12
-113.9
-109.1
-102.26
-93.32
-82.64
-70.83
-58.32
-45.18
-31.35
-15.81
2.33
23.31
46.51
70.66
94.39
116.92
138.08
154.62
163.55
162.58
151.37
131.9
107.45
81.33
56.21
35.32
18.26
4.89
-4.77
-10.66
-13.04
-12.58
-10.37
-7.59
-5.48
-5.4
-7.49
-11.33
-16.03
-20.58
-24.11
-25.94
-25.7
-23.35
-19.36
-13.88
-7.09
0.71
9.16
17.74
25.84
32.81
38.01
40.83
41.2
39.33
35.58
30.36
24.04
17.09
10.14
3.96
-0.73
-3.25
-3.39
-1.51
1.53
4.71
7.22
8.69
9.21
9.06
8.49
7.55
6.09
3.98
1.23
-1.95
-5.18
-8.17
-10.78
-13.13
-15.43
-17.85
-20.36
-22.8
-24.94
-26.66
-28.08
-29.43
-31.02
-33.01
-35.26
-37.28
-38.41
-37.88
-35.16
-30.1
-23.02
-14.68
-6.05
2.01
9.0
14.97
20.33
25.66
31.26
37.0
42.25
46.19
48.14
47.87
45.67
42.18
38.12
33.95
29.76
25.28
20.15
14.21
7.63
1.02
-4.87
-9.31
-11.96
-12.85
-12.39
-11.04
-9.21
-7.09
-4.86
-2.72
-1.03
-0.25
-0.69
-2.38
-5.0
-7.94
-10.57
-12.46
-13.52
-14.06
-14.56
-15.49
-17.06
-19.17
-21.42
-23.31
-24.5
-24.91
-24.65
-23.95
-22.94
-21.57
-19.7
-17.23
-14.18
-10.68
-6.89
-2.88
1.27
5.54
9.76
13.66
16.91
19.18
20.23
19.98
18.44
15.75
12.16
8.02
3.78
-0.21
-3.66
-6.51
-8.91
-11.2
-13.78
-16.97
-20.91
-25.48
-30.39
-35.24
-39.71
-43.69
-47.31
-50.76
-54.15
-57.43
-60.38
-62.73
-64.37
-65.45
-66.34
-67.47
-69.1
-71.05
-72.71
-73.08
-71.2
-66.48
-59.04
-49.64
-39.49
-29.74
-21.13
-13.81
-7.51
-1.83
3.48
8.39
12.71
16.23
18.87
20.74
22.04
22.96
23.57
23.89
23.87
23.55
23.08
22.67
22.56
22.86
23.54
24.38
25.03
25.19
24.62
23.34
21.53
19.52
17.67
16.23
15.26
14.59
13.87
12.76
11.06
8.83
6.35
4.03
2.2
0.88
-0.19
-1.51
-3.56
-6.58
-10.39
-14.45
-18.0
-20.24
-20.62
-18.94
-15.39
-10.48
-4.89
0.7
5.73
9.88
13.08
15.51
17.48
19.21
20.83
22.23
23.26
23.75
23.7
23.25
22.63
22.02
21.48
20.95
20.33
19.62
18.95
18.51
18.39
18.51
18.55
18.13
16.95
14.91
12.24
9.32
6.6
4.33
2.51
0.92
-0.8
-2.95
-5.64
-8.7
-11.79
-14.51
-16.58
-18.03
-19.16
-20.46
-22.45
-25.48
-29.59
-34.45
-39.39
-43.52
-45.91
-45.81
-42.9
-37.38
-30.01
-21.89
-14.1
-7.39
-2.0
2.28
5.86
9.14
12.24
15.09
17.5
19.34
20.59
21.3
21.55
21.38
20.79
19.84
18.62
17.32
16.14
15.23
14.62
14.27
14.01
13.65
13.02
12.01
10.64
9.05
7.37
5.72
4.06
2.31
0.38
-1.71
-3.79
-5.67
-7.18
-8.31
-9.21
-10.18
-11.57
-13.7
-16.73
-20.54
-24.64
-28.26
-30.47
-30.52
-28.12
-23.51
-17.42
-10.78
-4.45
1.09
5.7
9.5
12.77
15.68
18.3
20.55
22.23
23.12
23.05
21.96
19.93
17.21
14.11
10.96
8.14
6.02
4.92
4.9
5.79
7.09
8.25
8.78
8.36
6.98
4.94
2.71
0.63
-1.12
-2.6
-3.94
-5.19
-6.52
-7.9
-9.16
-10.08
-10.6
-10.85
-11.04
-11.3
-11.49
-12.07
-13.27
-14.96
-16.72
-18.11
-18.93
-19.26
-19.3
-19.15
-20.3
-23.63
-28.86
-34.63
-39.31
-42.05
-43.07
-43.37
-43.99
-48.29
-58.22
-73.31
-90.8
-107.25
-120.34
-129.87
-137.49
-145.6
-160.07
-184.76
-219.65
-260.7
-301.77
-337.22
-363.42
-379.12
-366.67
-319.26
-242.35
-152.21
-66.99
1.83
51.45
85.41
107.52
127.32
148.46
171.18
193.21
211.07
221.18
221.11
209.32
187.87
162.52
137.74
118.06
106.98
105.69
111.65
118.61
118.7
106.28
81.11
47.03
12.47
-12.83
-21.89
-13.34
8.73
37.41
66.47
92.37
112.91
127.09
134.22
133.59
124.8
108.01
84.18
55.12
23.75
-6.31
-30.55
-44.86
-47.19
-39.04
-25.39
-12.63
-5.54
-5.08
-8.84
-13.28
-16.35
-19.07
-24.59
-35.82
-52.85
-71.9
-86.6
-90.57
-80.48
-57.77
-28.57
-1.74
14.59
16.13
4.31
-14.29
-30.82
-37.92
-32.79
-17.83
1.41
19.4
33.18
42.98
50.67
57.74
63.83
67.02
65.42
58.95
49.87
41.79
37.93
39.44
45.05
51.85
56.88
58.42
56.3
51.57
45.61
39.36
33.08
26.52
19.34
11.46
3.25
-4.6
-11.23
-15.98
-18.53
-19.08
-18.35
-17.36
-17.13
-18.31
-20.97
-24.51
-27.84
-29.75
-29.26
-25.94
-20.02
-12.27
-3.78
4.43
11.64
17.58
22.38
26.45
30.21
33.94
37.67
41.23
44.42
47.12
49.37
51.24
52.78
53.9
54.45
54.25
53.22
51.42
48.94
45.92
42.49
38.82
35.1
31.6
28.53
25.98
23.85
21.91
19.88
17.55
14.91
12.12
9.41
7.02
5.06
3.44
1.84
-0.14
-2.89
-6.58
-10.95
-15.39
-19.04
-21.04
-20.87
-18.48
-14.26
-8.88
-3.02
2.83
8.41
13.61
18.36
22.61
26.23
29.13
31.22
32.43
32.74
32.16
30.79
28.85
26.66
24.56
22.78
21.42
20.38
19.53
18.73
17.88
16.97
15.94
14.67
13.0
10.81
8.09
4.97
1.75
-1.25
-3.78
-5.74
-7.2
-8.42
-9.68
-11.31
-13.51
-16.42
-19.93
-23.73
-27.26
-29.82
-30.7
-29.44
-26.05
-21.08
-15.51
-10.43
-6.56
-4.08
-2.5
-0.99
1.36
5.16
10.62
17.48
25.07
32.42
38.49
42.39
43.6
42.12
38.42
33.3
27.64
22.18
17.45
13.76
11.25
9.91
9.55
9.83
10.37
10.84
11.04
10.9
10.42
9.59
8.34
6.6
4.33
1.61
-1.41
-4.51
-7.4
-9.9
-11.98
-13.8
-15.69
-18.06
-21.14
-24.96
-29.17
-33.17
-36.19
-37.54
-36.83
-34.06
-29.68
-24.41
-19.01
-14.1
-9.99
-6.66
-3.92
-1.47
0.9
3.3
5.75
8.17
10.38
12.2
13.47
14.1
14.1
13.58
12.72
11.69
10.66
9.77
9.1
8.67
8.39
8.13
7.72
6.99
5.85
4.3
2.37
0.11
-2.42
-5.13
-7.9
-10.58
-13.04
-15.2
-17.1
-18.92
-20.93
-23.43
-26.61
-30.43
-34.5
-38.18
-40.73
-41.54
-40.37
-37.42
-33.18
-28.29
-23.27
-18.42
-13.81
-9.42
-5.24
-1.3
2.29
5.44
8.12
10.31
12.01
13.21
13.91
14.09
13.82
13.18
12.35
11.48
10.71
10.13
9.75
9.52
9.31
8.96
8.28
7.13
5.49
3.44
1.13
-1.18
-3.31
-5.14
-6.72
-8.23
-9.94
-12.14
-14.97
-18.4
-22.2
-25.96
-29.19
-31.4
-32.21
-31.41
-29.03
-25.36
-20.85
-16.04
-11.38
-7.14
-3.29
0.35
3.99
7.7
11.36
14.7
17.43
19.39
20.59
21.2
21.4
21.32
21.01
20.49
19.78
18.9
17.92
16.87
15.79
14.68
13.57
12.44
11.22
9.79
7.99
5.67
2.82
-0.38
-3.66
-6.7
-9.35
-11.58
-13.6
-15.68
-18.09
-21.04
-24.59
-28.64
-32.95
-37.1
-40.5
-42.58
-42.88
-41.25
-37.92
-33.4
-28.32
-23.18
-18.23
-13.45
-8.72
-3.91
0.91
5.53
9.66
13.07
15.7
17.63
19.01
19.97
20.58
20.78
20.5
19.83
18.95
18.17
17.7
17.54
17.46
17.13
16.23
14.66
12.52
10.07
7.54
5.03
2.55
0.11
-2.27
-4.55
-6.75
-8.89
-11.02
-13.13
-15.21
-17.23
-19.14
-21.01
-23.24
-26.29
-30.45
-35.48
-40.53
-44.45
-46.2
-44.85
-40.25
-33.21
-25.19
-17.78
-11.98
-7.95
-5.12
-2.74
0.43
5.13
11.13
17.48
22.86
26.38
27.97
28.37
28.93
32.39
41.53
58.11
82.15
111.48
142.43
170.99
193.99
203.87
196.52
172.96
139.44
104.34
73.54
48.64
28.34
10.47
-6.84
-23.66
-38.52
-51.65
-63.27
-73.28
-80.93
-85.09
-85.09
-81.54
-75.39
-68.18
-61.96
-58.03
-57.56
-60.59
-66.04
-72.3
-78.19
-82.48
-84.3
-83.27
-79.12
-72.02
-62.29
-50.54
-36.23
-20.27
-3.95
11.65
25.48
37.42
46.36
50.55
48.19
38.9
23.99
6.57
-9.78
-22.33
-29.95
-33.3
-33.89
-33.21
-32.1
-31.0
-29.86
-28.59
-27.26
-26.17
-25.85
-26.64
-28.34
-30.29
-31.73
-31.94
-30.63
-28.04
-24.9
-22.3
-21.26
-22.55
-26.49
-33.05
-41.64
-51.24
-60.54
-68.02
-72.33
-72.31
-67.29
-57.3
-43.33
-27.21
-11.39
1.79
10.74
15.2
16.2
15.61
15.36
16.68
19.88
24.55
30.08
36.1
42.69
50.19
58.88
68.67
79.12
89.67
100.0
110.04
119.84
129.07
136.61
140.57
138.75
129.54
112.66
89.56
63.12
36.88
13.95
-3.82
-16.2
-24.47
-30.74
-37.24
-45.62
-56.57
-69.53
-82.89
-94.2
-100.69
-100.08
-91.35
-75.31
-54.65
-33.15
-14.38
-0.46
8.67
14.8
20.4
27.2
35.41
43.68
49.81
51.77
48.56
40.7
30.18
20.16
14.04
14.51
22.52
36.76
53.87
69.54
79.95
82.98
78.69
68.87
56.0
42.21
28.73
15.86
3.33
-9.22
-22.09
-35.47
-49.5
-64.13
-78.91
-92.75
-104.08
-111.47
-114.37
-113.72
-111.87
-111.91
-116.31
-125.91
-139.32
-153.34
-164.14
-168.63
-165.45
-155.3
-140.47
-123.84
-107.92
-94.2
-83.03
-73.99
-66.3
-59.36
-52.84
-46.65
-40.85
-35.58
-31.01
-27.4
-24.98
-23.82
-23.65
-23.91
-23.9
-23.04
-21.08
-18.09
-14.31
-9.95
-4.96
0.92
8.03
16.63
26.68
37.82
49.37
60.46
70.24
78.05
83.66
87.36
89.96
92.56
96.2
101.59
108.82
117.35
126.15
133.95
139.59
142.32
141.87
138.52
133.0
126.37
119.7
113.84
109.24
105.94
103.79
102.47
101.65
101.21
101.2
101.82
103.03
104.59
105.91
106.52
105.85
103.45
99.26
93.73
87.71
81.97
77.02
72.88
69.64
66.89
64.04
60.6
56.48
51.9
46.98
41.83
36.3
30.77
25.3
19.61
13.23
5.7
-3.27
-13.83
-25.38
-40.84
-59.35
-77.7
-92.38
-101.86
-107.09
-108.9
-109.31
-109.22
-108.77
-107.25
-104.65
-101.65
-98.96
-96.64
-93.58
-88.06
-78.41
-64.66
-48.68
-34.11
-24.43
-20.98
-21.73
-23.03
-21.45
-15.03
-4.33
8.36
19.86
27.73
30.99
30.49
28.45
26.97
27.12
28.32
28.93
27.07
21.6
12.64
1.53
-9.64
-18.76
-24.09
-24.94
-21.57
-15.22
-7.72
-1.07
3.06
3.58
0.3
-5.96
-13.4
-19.53
-21.87
-18.98
-11.22
-0.97
8.16
12.66
10.66
2.54
-9.32
-21.72
-31.92
-38.5
-41.32
-41.09
-38.79
-35.32
-31.39
-27.55
-24.16
-21.3
-18.8
-16.39
-13.96
-11.65
-9.8
-8.7
-8.39
-8.74
-9.52
-10.56
-11.78
-13.02
-14.06
-14.59
-14.5
-14.03
-13.76
-14.32
-15.96
-18.33
-20.54
-21.55
-20.66
-17.81
-13.6
-8.88
-4.47
-0.81
2.04
4.37
6.6
9.19
12.46
16.49
21.1
25.86
30.31
34.16
37.44
40.42
43.44
46.6
49.65
52.19
53.94
55.01
55.87
57.08
59.01
61.51
64.07
65.98
66.49
64.87
60.36
52.36
40.77
26.47
11.4
-1.85
-10.98
-14.91
-14.29
-11.22
-8.3
-7.59
-9.92
-14.86
-21.19
-27.56
-32.98
-36.92
-39.33
-40.33
-40.2
-39.29
-37.94
-36.49
-35.21
-34.24
-33.58
-33.08
-32.45
-31.42
-29.8
-27.64
-25.28
-23.4
-22.76
-23.9
-26.88
-31.02
-35.09
-37.74
-38.08
-36.17
-32.99
-30.07
-28.78
-29.73
-32.66
-36.63
-40.63
-43.97
-46.39
-47.84
-48.19
-47.11
-44.23
-39.45
-33.11
-26.04
-19.14
-13.1
-8.15
-4.09
-0.55
2.74
5.85
8.64
10.91
12.55
13.58
14.18
14.62
15.17
16.05
17.35
18.98
20.62
21.83
22.18
21.42
19.68
17.44
15.43
14.34
14.51
15.71
17.17
17.82
16.69
13.42
8.33
2.43
-3.04
-7.15
-9.69
-11.22
-12.86
-15.68
-20.27
-26.4
-33.3
-39.89
-45.37
-49.36
-51.99
-53.71
-55.14
-56.84
-59.28
-62.67
-66.89
-71.43
-75.59
-78.6
-79.99
-79.65
-77.68
-74.05
-68.12
-58.53
-43.58
-22.1
5.44
36.38
66.02
88.95
100.62
99.09
85.56
63.94
39.4
16.7
-0.93
-12.2
-17.33
-17.38
-13.77
-8.05
-1.91
3.16
6.22
7.23
6.96
6.11
4.29
-0.3
-10.19
-26.78
-48.72
-71.55
-89.2
-96.73
-92.7
-79.71
-62.97
-47.53
-36.25
-29.18
-24.82
-21.82
-20.04
-20.26
-23.04
-27.57
-31.53
-31.76
-25.53
-11.72
8.65
32.77
56.89
77.37
91.91
100.03
103.09
103.52
103.79
105.39
108.49
112.2
115.31
116.85
116.49
114.39
111.02
106.99
103.05
100.08
98.78
99.31
100.99
102.42
101.99
98.55
91.85
82.48
71.37
59.35
46.79
33.83
20.65
7.71
-4.28
-14.62
-22.98
-29.47
-34.58
-38.92
-43.0
-47.08
-51.24
-55.49
-59.86
-64.36
-69.01
-73.66
-78.0
-81.6
-84.04
-85.01
-84.46
-82.49
-79.31
-75.1
-69.96
-63.89
-56.9
-48.95
-40.03
-30.2
-19.69
-9.02
0.97
9.22
14.82
17.35
17.07
14.84
11.77
8.81
6.43
4.68
3.36
2.38
1.84
2.0
2.98
4.58
6.32
7.6
8.0
7.51
6.47
5.37
4.55
4.02
3.46
2.43
0.64
-1.95
-5.16
-8.88
-13.12
-18.02
-23.51
-29.04
-33.51
-35.54
-34.04
-28.68
-20.05
-9.38
1.99
13.07
23.38
32.82
41.36
48.89
55.13
59.71
62.32
62.7
60.71
56.44
50.33
43.16
35.96
29.71
24.96
21.65
19.19
16.78
13.76
9.94
5.56
1.13
-2.89
-6.32
-9.32
-12.28
-15.6
-19.47
-23.76
-28.06
-31.79
-34.46
-35.83
-36.03
-35.42
-34.55
-33.82
-33.51
-33.74
-34.5
-35.69
-37.19
-38.73
-39.95
-40.4
-39.71
-37.61
-34.06
-29.25
-23.5
-17.2
-10.73
-4.35
1.74
7.5
12.97
18.35
23.84
29.62
35.67
41.84
47.82
53.4
58.52
63.31
67.99
72.65
77.13
81.08
84.23
86.56
88.27
89.52
89.94
88.57
84.03
75.13
61.38
43.23
21.91
-0.95
-23.6
-44.24
-61.11
-72.61
-77.71
-76.5
-70.44
-62.18
-54.92
-51.59
-54.01
-62.36
-74.77
-87.31
-94.77
-92.38
-77.96
-53.39
-24.34
2.12
20.91
31.23
36.57
42.07
51.03
62.72
72.92
76.9
72.57
61.92
49.83
41.23
38.62
41.43
47.18
53.34
58.5
62.25
64.35
64.01
60.02
51.56
39.08
24.58
10.97
0.87
-4.53
-5.98
-5.82
-6.95
-11.64
-20.61
-32.73
-45.56
-56.36
-63.18
-65.54
-64.41
-61.63
-59.06
-58.03
-59.15
-62.52
-68.0
-75.25
-83.49
-91.33
-96.79
-97.77
-92.75
-81.51
-65.4
-46.9
-28.79
-13.24
-1.15
7.97
15.44
22.83
31.31
41.17
51.55
60.68
66.4
67.02
62.06
52.51
40.33
27.63
15.84
5.55
-3.17
-10.02
-14.15
-14.53
-10.62
-3.07
6.38
15.53
22.57
26.68
27.87
26.43
22.41
15.5
5.41
-7.61
-22.51
-37.45
-50.37
-59.48
-63.82
-63.42
-59.24
-52.92
-46.35
-41.26
-38.9
-39.91
-44.27
-51.41
-60.27
-69.31
-76.86
-81.46
-82.22
-79.1
-72.95
-65.17
-57.15
-49.82
-43.42
-37.62
-31.94
-26.11
-20.21
-14.64
-9.83
-5.95
-2.88
-0.18
2.7
6.26
10.82
16.48
23.12
30.44
38.05
45.44
52.07
57.35
60.74
61.89
60.69
57.41
52.56
46.85
41.01
35.58
30.81
26.59
22.6
18.45
13.92
9.06
4.18
-0.27
-3.96
-6.83
-9.15
-11.47
-14.46
-18.7
-24.52
-31.82
-40.01
-48.08
-54.8
-58.95
-59.75
-57.0
-51.23
-43.4
-34.63
-25.79
-17.33
-9.29
-1.49
6.31
14.14
21.88
29.24
35.85
41.29
45.24
47.49
48.09
47.35
45.84
44.21
43.0
42.52
42.75
43.38
43.98
44.09
43.35
41.61
38.91
35.45
31.61
27.83
24.49
21.79
19.65
17.72
15.54
12.61
8.71
3.91
-1.39
-6.6
-11.15
-14.72
-17.36
-19.51
-21.9
-25.33
-30.39
-37.19
-45.18
-53.29
-60.08
-64.2
-64.76
-61.58
-55.17
-46.59
-37.03
-27.5
-18.63
-10.62
-3.39
3.31
9.71
15.95
22.05
27.9
33.27
37.9
41.58
44.23
45.94
46.94
47.5
47.79
47.9
47.81
47.51
47.03
46.44
45.71
44.69
43.19
41.07
38.36
35.35
32.41
29.82
27.64
25.64
23.43
20.65
17.15
13.03
8.64
4.37
0.54
-2.72
-5.46
-7.92
-10.45
-13.5
-17.46
-22.65
-29.02
-36.11
-42.97
-48.33
-50.96
-50.17
-46.01
-39.33
-31.45
-23.62
-16.58
-10.44
-4.82
0.76
6.56
12.47
18.15
23.16
27.26
30.38
32.64
34.24
35.38
36.19
36.76
37.16
37.41
37.57
37.68
37.76
37.76
37.55
36.91
35.68
33.8
31.38
28.69
26.07
23.78
21.88
20.24
18.59
16.66
14.22
11.25
7.81
4.1
0.33
-3.35
-6.8
-9.99
-12.99
-16.01
-19.35
-23.38
-28.28
-33.95
-39.83
-45.03
-48.48
-49.32
-47.12
-42.08
-34.91
-26.64
-18.3
-10.64
-3.96
1.82
7.04
12.06
17.08
22.0
26.53
30.31
33.08
34.86
35.87
36.5
37.02
37.53
37.91
38.01
37.73
37.18
36.59
36.22
36.17
36.24
36.08
35.3
33.72
31.42
28.75
26.05
23.56
21.28
19.03
16.52
13.53
9.98
5.92
1.52
-2.96
-7.27
-11.23
-14.73
-17.85
-20.8
-23.89
-27.43
-31.66
-36.63
-42.1
-47.54
-52.07
-54.78
-54.88
-52.06
-46.62
-39.37
-31.42
-23.76
-16.98
-11.28
-6.47
-2.29
1.45
4.85
7.92
10.68
13.17
15.43
17.43
19.07
20.2
20.69
20.57
20.02
19.31
18.72
18.42
18.39
18.42
18.24
17.57
16.32
14.54
12.47
10.37
8.45
6.72
5.04
3.23
1.16
-1.19
-3.72
-6.31
-8.92
-11.63
-14.62
-18.03
-21.91
-26.24
-30.83
-35.45
-39.69
-42.95
-44.53
-43.8
-40.49
-34.86
-27.68
-20.0
-12.77
-6.54
-1.33
3.14
7.29
11.39
15.43
19.18
22.28
24.37
25.21
24.77
23.31
21.31
19.35
17.96
17.35
17.35
17.49
17.21
16.14
14.23
11.81
9.42
7.52
6.31
5.63
4.99
3.87
1.85
-1.33
-5.75
-11.2
-17.04
-22.05
-24.76
-23.82
-18.65
-9.77
1.3
12.67
22.77
30.86
37.01
41.66
45.09
47.19
47.55
45.83
42.18
37.46
33.17
31.11
32.78
38.75
48.14
58.66
67.43
72.14
72.05
68.24
62.97
58.46
55.82
54.74
53.98
52.39
49.63
46.25
43.31
41.56
41.04
41.04
40.59
38.94
35.88
31.82
27.41
23.32
19.83
16.63
12.86
7.33
-0.89
-12.16
-26.07
-41.76
-58.24
-74.67
-90.1
-103.06
-111.43
-113.02
-106.75
-93.7
-77.26
-61.85
-50.94
-45.45
-43.48
-41.89
-38.35
-32.73
-26.9
-23.09
-22.07
-22.4
-21.21
-15.96
-5.94
7.33
20.92
31.91
38.53
40.52
38.81
34.82
29.82
24.79
20.44
17.27
15.5
14.98
15.11
15.12
14.29
12.36
9.53
6.34
3.31
0.68
-1.6
-3.74
-5.8
-7.6
-8.8
-9.21
-8.98
-8.55
-8.52
-9.32
-11.13
-13.87
-17.36
-21.34
-25.5
-29.27
-31.76
-31.93
-28.99
-23.0
-15.02
-6.96
-0.9
1.76
0.79
-2.87
-7.66
-12.12
-15.46
-17.58
-18.84
-19.61
-20.04
-20.05
-19.61
-18.87
-18.16
-17.81
-17.97
-18.47
-18.88
-18.84
-18.19
-17.13
-16.06
-15.36
-15.09
-15.01
-14.67
-13.81
-12.5
-11.17
-10.33
-10.27
-10.82
-11.48
-11.74
-11.38
-10.66
-10.17
-10.57
-12.22
-15.13
-18.95
-23.11
-26.88
-29.36
-29.57
-26.65
-20.33
-11.25
-1.0
8.36
15.06
18.38
18.79
17.63
16.33
15.81
16.21
17.2
18.37
19.55
20.83
22.32
23.97
25.61
27.01
28.07
28.84
29.46
30.03
30.63
31.37
32.41
33.9
35.87
38.21
40.69
43.23
46.01
49.46
53.93
59.26
64.57
68.36
69.05
65.61
58.0
47.04
34.11
20.7
8.04
-2.88
-11.3
-16.78
-19.48
-20.46
-21.58
-25.06
-32.6
-44.47
-59.21
-74.14
-86.31
-93.69
-95.83
-93.85
-89.93
-86.62
-86.05
-89.52
-97.0
-107.04
-117.05
-124.05
-125.75
-121.52
-112.52
-101.03
-89.35
-78.87
-69.8
-61.76
-54.56
-48.54
-44.35
-42.2
-41.4
-40.63
-38.83
-36.0
-33.38
-32.8
-35.6
-42.02
-50.88
-60.24
-68.28
-73.95
-77.17
-78.56
-78.99
-79.1
-79.58
-80.71
-82.47
-84.66
-86.95
-89.08
-91.04
-93.19
-95.75
-99.69
-105.24
-112.01
-119.06
-125.11
-128.87
-129.35
-125.99
-118.08
-106.51
-91.92
-75.24
-57.56
-39.92
-22.83
-6.03
11.48
31.69
54.44
79.19
104.25
127.48
147.23
162.98
175.29
180.12
184.01
186.35
186.99
186.02
184.11
182.37
181.73
182.33
183.36
184.25
183.05
179.42
173.9
167.46
160.59
152.81
142.81
129.3
112.46
92.68
72.34
54.59
42.27
36.53
36.25
38.22
38.6
35.08
27.02
16.57
6.97
0.66
-2.13
-3.38
-5.98
-11.94
-21.01
-31.36
-40.2
-45.48
-46.61
-44.39
-40.18
-35.07
-29.65
-23.89
-17.47
-9.94
-1.04
9.12
19.92
30.32
39.19
45.74
49.88
52.4
54.66
58.13
63.82
71.83
81.29
90.67
98.38
103.36
105.24
104.23
100.9
95.95
90.17
84.46
79.62
75.96
73.05
69.62
64.11
55.45
43.56
29.38
14.33
-0.48
-14.61
-28.05
-40.51
-50.91
-57.6
-59.18
-55.82
-49.97
-46.05
-49.2
-63.58
-90.76
-128.79
-172.34
-213.64
-244.14
-256.66
-247.66
-218.69
-176.43
-130.75
-91.43
-64.6
-50.7
-44.78
-39.17
-27.13
-5.74
23.37
55.39
84.83
107.89
123.27
131.53
133.82
130.91
123.23
111.6
98.07
85.93
78.79
79.06
86.64
98.78
111.15
119.55
121.58
117.21
108.32
97.49
86.9
77.78
70.5
64.76
59.85
54.58
47.17
35.6
18.25
-5.25
-33.19
-61.74
-85.68
-99.96
-101.33
-89.59
-67.69
-40.66
-14.02
7.85
22.54
29.51
29.54
23.91
14.0
1.24
-12.76
-26.03
-36.44
-42.16
-42.31
-37.59
-30.4
-24.29
-22.85
-28.3
-40.51
-56.95
-73.82
-87.72
-96.92
-101.84
-104.16
-105.61
-106.98
-107.94
-107.71
-105.91
-102.94
-99.69
-97.07
-95.38
-94.13
-92.41
-89.33
-84.49
-78.19
-71.22
-64.57
-59.08
-55.15
-52.81
-51.74
-51.47
-51.5
-51.45
-51.08
-50.33
-49.37
-48.55
-48.37
-49.42
-52.16
-56.85
-63.3
-70.78
-78.06
-83.7
-86.42
-85.47
-80.87
-73.37
-64.17
-54.56
-45.54
-37.68
-31.23
-26.24
-22.91
-21.8
-23.91
-30.5
-42.54
-60.02
-81.31
-103.17
-121.28
-131.28
-129.68
-114.45
-85.24
-43.35
8.19
64.65
119.9
167.23
200.82
217.25
216.65
202.65
181.36
159.58
143.01
135.04
136.2
144.42
155.92
166.46
172.65
172.82
167.18
157.19
144.56
130.63
115.99
100.89
85.53
70.17
54.95
39.77
24.56
9.87
-2.92
-11.77
-15.15
-13.14
-7.77
-2.27
0.46
-0.68
-4.79
-9.82
-14.08
-17.25
-20.21
-23.99
-28.69
-32.98
-34.86
-32.79
-26.65
-17.79
-8.29
0.11
6.64
11.49
15.35
18.74
21.74
24.13
25.69
26.54
27.04
27.58
28.23
28.69
28.47
27.18
24.87
21.91
18.86
16.15
13.94
12.2
10.81
9.7
8.88
8.4
8.25
8.42
8.72
8.97
8.99
8.73
8.27
7.64
6.75
5.26
2.77
-0.93
-5.62
-10.6
-14.95
-17.95
-19.4
-19.64
-19.3
-18.93
-18.7
-18.49
-18.11
-17.48
-16.72
-16.02
-15.41
-14.8
-13.94
-12.66
-10.92
-8.83
-6.61
-4.44
-2.41
-0.5
1.42
3.49
5.78
8.16
10.3
11.69
11.92
10.74
8.24
4.76
0.7
-3.57
-7.81
-11.89
-15.67
-19.01
-21.79
-24.02
-25.88
-27.64
-29.64
-32.04
-34.83
-37.76
-40.44
-42.44
-43.42
-43.25
-42.13
-40.54
-39.08
-38.28
-38.42
-39.43
-40.97
-42.59
-43.84
-44.37
-44.0
-42.69
-40.56
-37.9
-35.08
-32.52
-30.48
-28.98
-27.72
-26.21
-23.89
-20.34
-15.43
-9.44
-2.88
3.7
9.91
15.68
21.17
26.65
32.35
38.28
44.26
49.98
55.03
58.99
61.56
62.64
62.43
61.35
59.82
58.05
55.86
52.72
47.97
41.1
31.93
20.63
7.61
-6.51
-20.85
-34.27
-45.67
-54.35
-60.33
-64.46
-68.05
-72.48
-78.9
-88.14
-100.77
-116.94
-135.94
-155.99
-174.27
-187.78
-194.52
-194.37
-189.13
-181.69
-174.6
-169.07
-164.66
-159.73
-152.25
-140.42
-123.1
-100.1
-72.36
-41.95
-11.6
15.99
38.96
56.48
68.29
74.36
74.85
70.63
63.75
57.23
54.05
55.88
62.26
71.04
79.61
86.27
90.74
93.65
95.46
95.83
93.87
88.94
81.37
72.4
63.39
54.95
46.66
37.54
26.85
14.55
1.55
-10.84
-21.52
-29.9
-36.12
-40.61
-43.91
-46.45
-48.69
-51.16
-54.32
-58.37
-62.97
-67.17
-69.77
-69.73
-66.66
-60.82
-52.92
-43.65
-33.37
-22.14
-9.97
2.93
15.95
28.18
38.73
46.92
52.55
55.81
57.26
57.56
57.36
57.14
57.12
57.29
57.56
57.85
58.12
58.42
58.73
58.89
58.64
57.62
55.59
52.52
48.63
44.26
39.76
35.29
30.79
26.15
21.26
16.27
11.45
7.17
3.61
0.65
-2.18
-5.57
-10.2
-16.56
-24.77
-34.5
-44.92
-54.82
-62.65
-66.99
-66.9
-62.25
-53.9
-43.37
-32.36
-22.21
-13.5
-6.04
0.76
7.5
14.46
21.51
28.23
34.13
38.9
42.43
44.9
46.63
48.05
49.58
51.54
54.04
56.96
59.9
62.36
63.8
63.87
62.58
60.25
57.42
54.68
52.42
50.79
49.71
48.96
48.29
47.48
46.32
44.62
42.21
38.98
34.93
30.21
25.04
19.71
14.45
9.43
4.69
0.12
-4.55
-9.69
-15.64
-22.63
-30.47
-38.54
-45.76
-50.82
-52.63
-50.6
-44.96
-36.6
-26.81
-16.83
-7.49
0.89
8.45
15.5
22.3
28.93
35.29
41.16
46.31
50.53
53.66
55.58
56.27
55.83
54.51
52.72
50.85
49.27
48.15
47.51
47.16
46.79
46.02
44.52
42.03
38.57
34.4
29.99
25.81
22.16
18.99
15.95
12.57
8.52
3.75
-1.38
-6.35
-10.69
-14.18
-17.01
-19.62
-22.63
-26.61
-31.95
-38.65
-46.32
-54.13
-60.89
-65.32
-66.37
-63.53
-57.04
-47.75
-36.95
-25.89
-15.52
-6.26
1.93
9.34
16.33
23.07
29.5
35.3
40.12
43.62
45.73
46.65
46.75
46.48
46.16
45.95
45.87
45.85
45.83
45.71
45.35
44.53
42.95
40.36
36.7
32.19
27.33
22.67
18.64
15.37
12.61
9.89
6.76
3.0
-1.35
-5.98
-10.53
-14.7
-18.35
-21.6
-24.68
-28.02
-32.06
-37.17
-43.46
-50.58
-57.7
-63.59
-66.98
-66.92
-63.09
-55.91
-46.42
-35.92
-25.61
-16.25
-8.11
-1.03
5.39
11.48
17.43
23.25
28.74
33.63
37.64
40.55
42.26
42.81
42.45
41.55
40.5
39.65
39.15
39.0
39.05
39.06
38.85
38.2
36.99
35.2
32.87
30.2
27.43
24.82
22.51
20.47
18.57
16.63
14.57
12.43
10.4
8.68
7.41
6.53
5.76
4.65
2.75
-0.17
-3.98
-8.14
-11.79
-14.1
-14.57
-13.31
-10.98
-8.58
-7.01
-6.72
-7.63
-9.18
-10.63
-11.3
-10.63
-8.27
-4.22
1.07
6.49
10.35
10.9
6.88
-1.82
-14.11
-28.03
-41.51
-53.04
-61.77
-67.3
-69.16
-66.63
-59.03
-46.25
-29.2
-9.72
9.97
28.03
43.52
56.54
67.99
79.22
91.7
106.67
124.8
145.67
167.38
186.7
199.81
203.53
196.46
179.63
156.2
130.56
107.08
88.99
77.63
72.28
70.51
69.07
64.95
56.47
43.87
29.18
15.32
4.79
-1.5
-4.67
-7.44
-12.95
-23.3
-38.34
-55.3
-69.62
-76.8
-74.58
-64.24
-50.39
-38.93
-34.39
-37.75
-46.22
-54.89
-59.52
-58.74
-54.6
-51.1
-51.89
-58.21
-68.55
-79.7
-88.58
-93.67
-95.33
-95.13
-94.74
-95.04
-95.94
-96.98
-98.08
-99.93
-103.75
-110.45
-119.84
-130.12
-138.45
-141.86
-138.52
-128.44
-113.45
-96.53
-80.79
-68.7
-61.63
-59.86
-62.69
-68.61
-75.55
-81.27
-83.89
-82.46
-77.17
-69.16
-59.86
-50.5
-41.63
-33.31
-25.37
-17.83
-11.05
-5.51
-1.54
0.99
2.73
4.66
7.68
12.27
18.26
24.91
31.25
36.42
40.06
42.33
43.69
44.63
45.29
45.47
44.73
42.73
39.48
35.34
30.91
26.73
23.07
19.86
16.84
13.69
10.23
6.42
2.41
-1.68
-5.79
-9.91
-14.14
-18.54
-23.21
-28.17
-33.44
-39.02
-44.8
-50.51
-55.64
-59.47
-61.25
-60.47
-56.99
-51.24
-43.97
-36.06
-28.23
-20.87
-14.06
-7.75
-1.86
3.63
8.66
13.21
17.28
20.88
23.91
26.19
27.52
27.79
27.18
26.05
24.9
24.18
24.08
24.54
25.31
26.07
26.54
26.5
25.83
24.47
22.49
20.04
17.35
14.68
12.17
9.85
7.59
5.21
2.57
-0.36
-3.5
-6.68
-9.78
-12.79
-15.82
-19.12
-23.02
-27.8
-33.5
-39.84
-46.11
-51.32
-54.45
-54.74
-51.95
-46.44
-39.0
-30.61
-22.16
-14.25
-7.1
-0.67
5.29
10.99
16.62
22.18
27.56
32.5
36.65
39.67
41.36
41.71
41.0
39.71
38.47
37.85
38.2
39.48
41.27
42.89
43.63
43.05
41.21
38.65
36.22
34.64
34.14
34.34
34.31
33.06
30.01
25.34
20.03
15.58
13.39
14.33
18.21
23.75
28.7
30.37
26.4
15.48
-2.0
-23.74
-45.83
-63.59
-72.79
-70.87
-57.8
-36.08
-10.12
15.13
35.53
48.81
54.91
55.58
53.66
52.09
53.2
58.32
67.79
81.03
96.75
113.17
128.26
140.21
148.01
152.04
154.24
157.69
165.34
178.59
196.22
214.63
229.13
235.95
233.62
223.25
207.39
188.4
167.34
143.89
117.31
87.54
55.79
24.13
-5.24
-30.95
-52.88
-72.14
-91.03
-112.66
-140.39
-176.55
-221.02
-270.17
-317.23
-354.28
-375.08
-377.43
-363.68
-339.2
-309.65
-278.53
-246.53
-212.68
-176.47
-139.42
-105.15
-77.79
-59.94
-51.24
-48.49
-47.16
-43.46
-35.8
-25.12
-13.88
-4.41
2.54
8.17
15.08
25.88
41.71
61.25
80.73
95.04
99.6
92.24
74.17
49.45
23.4
0.54
-16.82
-28.74
-36.63
-41.89
-45.06
-45.85
-43.92
-39.69
-34.58
-30.49
-28.89
-30.16
-33.46
-37.21
-39.83
-40.36
-38.8
-36.03
-33.37
-32.14
-33.1
-36.27
-40.88
-45.56
-48.87
-49.74
-47.86
-43.64
-38.0
-31.86
-25.83
-20.12
-14.76
-9.84
-5.65
-2.54
-0.59
0.55
1.67
3.62
6.94
11.6
16.87
21.68
24.98
26.17
25.25
22.83
19.8
17.02
14.95
13.53
12.26
10.56
8.08
4.93
1.67
-1.04
-2.79
-3.72
-4.47
-5.85
-8.32
-11.7
-15.31
-18.33
-20.16
-20.52
-19.17
-15.64
-9.24
0.52
13.39
28.06
42.54
54.84
63.82
69.37
71.99
71.99
69.06
62.49
51.98
38.48
24.46
13.21
7.61
8.98
16.51
27.72
39.53
49.52
56.69
61.48
65.08
68.59
72.39
75.96
78.41
78.99
77.63
74.97
71.95
69.24
66.89
64.53
61.81
58.86
56.27
54.67
54.19
54.2
53.68
51.79
48.43
44.18
39.97
36.42
33.61
31.13
28.59
25.91
23.3
21.01
19.0
16.94
14.39
11.13
7.32
3.34
-0.35
-3.48
-6.06
-8.29
-10.5
-12.96
-15.78
-18.95
-22.31
-25.7
-28.97
-32.04
-34.83
-37.22
-38.97
-39.84
-39.68
-38.52
-36.59
-34.19
-31.56
-28.77
-25.7
-22.15
-17.98
-13.22
-8.13
-3.09
1.49
5.35
8.37
10.6
12.16
13.18
13.74
13.98
14.02
14.04
14.21
14.55
14.97
15.25
15.15
14.59
13.62
12.44
11.27
10.26
9.49
8.88
8.32
7.63
6.64
5.25
3.53
1.7
0.16
-0.73
-0.7
0.33
2.18
4.43
6.38
7.1
5.63
1.38
-5.56
-14.37
-23.68
-32.19
-39.03
-44.11
-47.81
-50.65
-52.87
-54.33
-54.82
-54.27
-52.97
-51.34
-49.71
-47.99
-45.76
-42.52
-37.97
-32.26
-25.95
-19.77
-14.3
-9.73
-5.84
-2.18
1.65
5.73
9.75
13.2
15.56
16.64
16.63
16.02
15.38
15.15
15.52
16.49
17.88
19.37
20.45
20.43
18.68
14.83
9.16
2.52
-3.91
-9.1
-12.63
-14.78
-16.24
-17.72
-19.6
-21.81
-24.12
-26.34
-28.51
-30.82
-33.47
-36.47
-39.68
-42.87
-45.89
-48.68
-51.27
-53.57
-55.41
-56.52
-56.62
-55.53
-53.15
-49.42
-44.28
-37.75
-30.0
-21.45
-12.73
-4.51
2.76
8.91
14.02
18.18
21.36
23.45
24.44
24.55
24.29
24.15
24.39
24.85
25.07
24.64
23.48
21.97
20.72
20.31
20.94
22.39
24.1
25.4
25.79
24.98
23.01
20.12
16.67
13.0
9.34
5.78
2.37
-0.83
-3.71
-6.17
-8.2
-9.91
-11.46
-12.98
-14.52
-16.05
-17.67
-19.56
-21.91
-24.74
-27.73
-30.25
-31.68
-31.63
-30.15
-27.63
-24.56
-21.19
-17.6
-13.77
-9.82
-6.08
-2.93
-0.54
1.22
2.77
4.56
6.84
9.55
12.41
15.15
17.62
19.91
22.21
24.68
27.36
30.11
32.69
34.87
36.46
37.4
37.8
37.85
37.8
37.82
37.98
38.17
38.21
37.85
36.9
35.28
32.97
30.09
26.79
23.22
19.47
15.59
11.56
7.39
3.05
-1.45
-6.12
-10.9
-15.65
-20.06
-23.77
-26.38
-27.63
-27.54
-26.4
-24.68
-22.82
-21.05
-19.38
-17.67
-15.71
-13.34
-10.53
-7.4
-4.14
-1.0
1.79
4.06
5.73
6.82
7.39
7.56
7.45
7.23
7.06
7.05
7.21
7.45
7.6
7.44
6.83
5.75
4.3
2.69
1.09
-0.34
-1.55
-2.62
-3.66
-4.81
-6.07
-7.34
-8.38
-9.0
-9.13
-8.97
-8.9
-9.36
-10.6
-12.6
-15.03
-17.42
-19.28
-20.26
-20.22
-19.28
-17.83
-16.51
-16.16
-17.47
-20.63
-25.18
-29.97
-33.59
-34.95
-33.69
-30.34
-26.01
-21.84
-18.55
-16.25
-14.67
-13.47
-12.47
-11.75
-11.42
-11.49
-11.72
-11.73
-11.14
-9.76
-7.67
-5.2
-2.71
-0.51
1.32
2.82
4.13
5.34
6.46
7.47
8.33
9.05
9.6
9.95
9.98
9.58
8.76
7.67
6.53
5.52
4.74
4.13
3.56
3.02
2.56
2.32
2.33
2.55
2.83
3.11
3.42
3.85
4.39
4.86
4.88
4.21
2.87
1.25
-0.04
-0.49
0.08
1.5
3.42
5.58
7.92
10.45
13.06
15.33
16.62
16.3
14.09
10.16
5.16
-0.11
-4.93
-8.88
-11.76
-13.61
-14.51
-14.57
-13.92
-12.67
-11.05
-9.27
-7.58
-6.15
-5.02
-4.04
-2.92
-1.36
0.81
3.55
6.54
9.35
11.64
13.22
14.23
14.92
15.56
16.33
17.25
18.25
19.22
19.98
20.25
19.63
17.84
14.86
11.22
7.87
5.93
6.13
8.43
11.99
15.54
17.93
18.75
18.39
17.78
17.78
18.73
20.31
21.83
22.76
23.02
22.98
23.16
23.69
24.16
23.82
21.99
18.58
14.19
9.88
6.66
5.07
4.94
5.64
6.51
7.19
7.74
8.44
9.55
11.06
12.58
13.59
13.62
12.48
10.37
7.76
5.18
3.02
1.44
0.34
-0.52
-1.47
-2.76
-4.51
-6.68
-9.07
-11.34
-13.18
-14.31
-14.63
-14.21
-13.23
-11.86
-10.23
-8.38
-6.29
-3.9
-1.08
2.29
6.21
10.32
13.87
15.81
15.22
11.82
6.29
0.1
-5.12
-8.28
-9.33
-9.1
-8.81
-9.27
-10.48
-11.79
-12.39
-11.85
-10.45
-8.98
-8.25
-8.62
-9.78
-10.9
-11.03
-9.55
-6.45
-2.29
2.0
5.55
7.89
9.08
9.71
10.52
12.08
14.56
17.7
21.03
24.21
27.01
29.37
31.09
31.79
30.98
28.35
24.14
18.94
13.33
7.15
-0.66
-11.53
-26.21
-43.85
-61.91
-77.2
-87.42
-92.24
-93.24
-92.64
-91.84
-90.54
-87.15
-80.12
-69.18
-55.76
-42.24
-30.92
-22.8
-17.32
-12.58
-6.36
2.83
15.13
29.27
43.4
56.03
66.58
75.21
82.14
87.08
89.01
86.76
79.75
68.53
54.78
40.65
27.81
16.81
6.99
-3.09
-14.92
-29.38
-46.28
-64.18
-80.67
-93.13
-99.69
-99.95
-95.23
-87.97
-80.97
-76.59
-76.3
-80.51
-88.44
-98.12
-106.52
-110.2
-106.45
-94.24
-74.87
-51.43
-27.65
-6.48
10.82
24.57
35.8
45.25
52.74
57.4
58.44
55.75
50.08
42.7
34.92
27.69
21.62
17.12
14.49
13.94
15.43
18.54
22.53
26.48
29.46
30.85
30.43
28.42
25.34
21.87
18.66
16.13
14.4
13.33
12.52
11.45
9.62
6.61
2.07
-4.24
-12.49
-22.73
-34.84
-48.39
-62.65
-76.74
-89.85
-101.34
-110.71
-117.4
-120.71
-119.92
-114.68
-105.26
-92.72
-78.49
-63.93
-49.8
-36.21
-22.85
-9.43
3.94
16.69
28.04
37.34
44.29
49.15
52.51
55.07
57.45
59.93
62.47
64.82
66.67
67.75
67.94
67.26
65.74
63.38
60.09
55.76
50.36
44.07
37.2
30.18
23.36
16.83
10.54
4.32
-1.93
-8.16
-14.25
-20.2
-26.2
-32.69
-40.06
-48.41
-57.29
-65.75
-72.57
-76.69
-77.47
-74.87
-69.37
-61.69
-52.58
-42.61
-32.18
-21.56
-10.94
-0.53
9.52
19.03
27.83
35.7
42.42
47.8
51.83
54.64
56.56
57.94
59.05
60.04
60.88
61.51
61.91
62.05
61.95
61.56
60.8
59.58
57.89
55.8
53.44
50.84
47.93
44.51
40.33
35.29
29.47
23.16
16.7
10.36
4.19
-1.96
-8.35
-15.21
-22.63
-30.47
-38.33
-45.58
-51.41
-55.01
-55.85
-53.81
-49.31
-43.13
-36.13
-28.91
-21.63
-14.07
-5.94
2.84
11.97
20.84
28.72
35.1
39.75
42.75
44.27
44.5
43.56
41.69
39.25
36.82
35.02
34.24
34.47
35.32
36.2
36.62
36.43
35.77
34.99
34.39
34.06
33.86
33.55
32.83
31.46
29.33
26.41
22.81
18.76
14.52
10.32
6.2
2.03
-2.49
-7.64
-13.59
-20.17
-26.82
-32.57
-36.25
-36.72
-33.33
-26.06
-15.62
-3.11
10.3
23.78
36.92
49.54
61.53
72.64
82.49
90.71
97.11
101.7
104.62
106.05
106.09
104.76
102.12
98.33
93.68
88.57
83.42
78.49
73.92
69.63
65.49
61.39
57.35
53.56
50.16
47.21
44.63
42.19
39.72
37.16
34.5
31.8
28.95
25.8
22.22
18.22
14.04
10.0
6.37
3.14
0.11
-3.05
-6.6
-10.51
-14.51
-18.18
-21.13
-23.12
-24.14
-24.42
-24.25
-23.99
-23.87
-24.11
-24.72
-25.61
-26.62
-27.55
-28.21
-28.54
-28.57
-28.47
-28.46
-28.73
-29.3
-29.98
-30.46
-30.43
-29.77
-28.61
-27.25
-26.02
-25.16
-24.7
-24.57
-24.64
-24.87
-25.2
-25.61
-26.01
-26.29
-26.39
-26.39
-26.45
-26.78
-27.52
-28.62
-29.94
-31.2
-32.21
-32.84
-33.1
-33.15
-33.18
-33.42
-33.97
-34.84
-35.92
-36.99
-37.8
-38.11
-37.76
-36.63
-34.76
-32.27
-29.43
-26.51
-23.75
-21.24
-18.92
-16.69
-14.52
-12.5
-10.81
-9.6
-8.83
-8.24
-7.45
-6.17
-4.36
-2.27
-0.25
1.46
2.86
4.19
5.69
7.45
9.32
10.97
12.16
12.86
13.27
13.7
14.31
14.98
15.4
15.2
14.17
12.41
10.19
7.88
5.7
3.72
1.79
-0.3
-2.77
-5.76
-9.33
-13.49
-18.11
-22.91
-27.46
-31.27
-33.89
-35.11
-35.02
-33.89
-32.08
-29.85
-27.27
-24.22
-20.58
-16.28
-11.48
-6.51
-1.77
2.38
5.84
8.7
11.21
13.57
15.83
17.84
19.45
20.6
21.44
22.27
23.35
24.76
26.38
27.91
29.04
29.49
28.99
27.25
24.01
19.16
12.85
5.68
-1.51
-7.78
-12.4
-15.08
-16.02
-15.76
-15.0
-14.27
-13.75
-13.23
-12.28
-10.35
-7.1
-2.44
3.4
9.87
16.04
20.64
22.22
19.59
12.42
1.58
-10.92
-22.51
-30.98
-35.2
-35.37
-32.65
-28.49
-24.02
-19.89
-16.36
-13.59
-11.76
-10.96
-11.01
-11.42
-11.53
-10.76
-8.89
-6.14
-3.04
-0.27
1.69
2.57
2.48
1.78
0.97
0.59
0.97
2.16
3.88
5.63
6.86
7.25
6.78
5.73
4.53
3.57
3.08
3.06
3.39
3.75
3.61
2.19
-1.42
-7.88
-17.22
-28.53
-40.18
-50.3
-57.52
-61.38
-62.34
-61.33
-59.16
-56.17
-52.25
-47.24
-41.28
-34.95
-29.05
-24.23
-20.73
-18.38
-16.74
-15.39
-14.14
-13.01
-12.13
-11.65
-11.59
-11.92
-12.54
-13.36
-14.32
-15.4
-16.56
-17.77
-18.96
-19.99
-20.73
-20.99
-20.69
-19.85
-18.7
-17.63
-17.02
-17.16
-18.08
-19.57
-21.25
-22.85
-24.29
-25.74
-27.5
-29.84
-32.87
-36.47
-40.35
-44.14
-47.42
-49.75
-50.67
-49.72
-46.57
-41.15
-33.65
-24.53
-14.34
-3.65
7.06
17.4
27.02
35.59
42.81
48.53
52.75
55.65
57.53
58.71
59.46
59.91
60.06
59.88
59.29
58.34
57.11
55.75
54.33
52.81
50.96
48.5
45.2
41.05
36.27
31.28
26.66
22.92
20.48
19.41
19.41
19.67
19.09
16.49
10.94
2.15
-9.52
-23.0
-36.73
-48.99
-58.21
-63.27
-63.63
-59.49
-51.7
-41.49
-30.17
-18.76
-7.69
3.13
14.09
25.53
37.43
49.32
60.42
69.79
76.52
79.9
79.45
75.08
67.15
56.56
44.64
32.81
22.14
12.92
4.72
-3.3
-11.76
-20.63
-29.24
-36.56
-41.84
-44.87
-46.0
-45.76
-44.54
-42.33
-38.94
-34.36
-28.96
-23.57
-19.19
-16.56
-15.98
-17.23
-19.87
-23.41
-27.61
-32.4
-37.76
-43.57
-49.44
-54.74
-58.74
-60.8
-60.49
-57.78
-52.98
-46.68
-39.43
-31.64
-23.42
-14.75
-5.62
3.72
12.69
20.54
26.63
30.69
32.9
33.8
34.04
34.15
34.43
34.96
35.73
36.61
37.48
38.12
38.26
37.71
36.42
34.67
32.85
31.4
30.48
29.86
29.02
27.39
24.57
20.6
15.84
10.8
5.97
1.58
-2.33
-5.93
-9.52
-13.46
-18.15
-23.87
-30.62
-37.87
-44.59
-49.49
-51.37
-49.6
-44.36
-36.53
-27.38
-18.11
-9.51
-1.82
5.1
11.59
17.87
24.0
29.79
34.96
39.21
42.36
44.44
45.57
46.01
45.96
45.57
44.94
44.13
43.28
42.55
42.01
41.63
41.14
40.2
38.5
35.92
32.62
28.97
25.39
22.21
19.49
17.03
14.53
11.68
8.29
4.42
0.25
-3.99
-8.07
-11.94
-15.65
-19.39
-23.44
-28.08
-33.55
-39.89
-46.8
-53.56
-59.13
-62.35
-62.31
-58.76
-52.19
-43.73
-34.72
-26.22
-18.64
-11.79
-5.12
1.88
9.28
16.7
23.5
29.08
33.18
35.89
37.54
38.43
38.74
38.51
37.84
36.9
36.06
35.65
35.9
36.69
37.68
38.34
38.14
36.79
34.25
30.81
26.9
23.01
19.47
16.38
13.59
10.79
7.63
3.92
-0.34
-4.92
-9.53
-13.96
-18.17
-22.34
-26.78
-31.78
-37.53
-44.05
-51.15
-58.35
-64.85
-69.64
-71.64
-70.14
-64.98
-56.78
-46.7
-36.05
-25.87
-16.57
-8.04
0.1
8.12
15.92
23.11
29.17
33.7
36.7
38.42
39.28
39.66
39.79
39.73
39.46
38.99
38.42
37.91
37.57
37.38
37.12
36.44
35.02
32.7
29.56
25.91
22.14
18.61
15.47
12.64
9.83
6.72
3.06
-1.16
-5.66
-10.01
-13.82
-16.87
-19.31
-21.64
-24.46
-28.42
-33.88
-40.82
-48.73
-56.61
-63.07
-66.68
-66.32
-61.63
-53.17
-42.27
-30.58
-19.48
-9.7
-1.21
6.5
13.97
21.45
28.78
35.52
41.25
45.76
49.15
51.72
53.75
55.44
56.79
57.76
58.33
58.62
58.84
59.26
60.08
61.39
63.16
65.16
66.95
67.88
67.12
63.8
57.35
47.77
35.76
22.56
9.61
-1.99
-11.79
-20.03
-27.41
-34.58
-41.87
-49.1
-55.79
-61.47
-65.95
-69.42
-72.36
-75.36
-78.86
-83.11
-87.97
-93.0
-97.4
-100.1
-100.11
-96.68
-89.67
-79.62
-67.58
-54.86
-42.58
-31.42
-21.52
-12.63
-4.35
3.59
11.24
18.41
24.78
30.09
34.16
36.97
38.62
39.26
39.07
38.22
36.99
35.72
34.72
34.25
34.32
34.71
35.05
34.95
34.14
32.58
30.42
27.89
25.27
22.76
20.44
18.27
16.09
13.67
10.79
7.38
3.55
-0.39
-4.05
-7.13
-9.61
-11.72
-13.94
-16.78
-20.63
-25.71
-31.93
-38.97
-46.22
-52.8
-57.74
-60.14
-59.5
-55.87
-49.88
-42.52
-34.83
-27.5
-20.8
-14.55
-8.35
-1.86
5.01
12.04
18.77
24.67
29.32
32.56
34.52
35.51
35.88
35.88
35.66
35.32
34.94
34.65
34.57
34.73
35.0
35.1
34.72
33.67
31.92
29.63
27.05
24.44
21.96
19.66
17.46
15.2
12.71
9.86
6.56
2.87
-1.03
-4.92
-8.57
-11.87
-14.84
-17.65
-20.54
-23.82
-27.74
-32.49
-38.1
-44.25
-50.29
-55.18
-57.81
-57.29
-53.33
-46.36
-37.44
-27.92
-18.97
-11.22
-4.74
0.89
6.22
11.63
17.18
22.59
27.45
31.38
34.21
35.99
36.88
37.09
36.79
36.12
35.24
34.37
33.72
33.41
33.38
33.4
33.17
32.39
30.88
28.62
25.75
22.52
19.28
16.33
13.86
11.86
10.16
8.42
6.35
3.75
0.66
-2.75
-6.21
-9.48
-12.46
-15.21
-17.92
-20.87
-24.39
-28.75
-34.07
-40.2
-46.61
-52.47
-56.73
-58.4
-56.87
-52.1
-44.71
-35.76
-26.49
-17.89
-10.53
-4.46
0.63
5.25
9.81
14.49
19.21
23.68
27.58
30.63
32.74
34.01
34.62
34.83
34.87
34.91
35.05
35.31
35.63
35.91
36.02
35.86
35.36
34.45
33.03
31.06
28.54
25.61
22.49
19.47
16.72
14.26
11.92
9.45
6.65
3.46
-0.0
-3.53
-6.92
-10.13
-13.19
-16.3
-19.66
-23.49
-27.91
-33.0
-38.72
-44.86
-50.96
-56.26
-59.82
-60.76
-58.51
-53.15
-45.45
-36.62
-27.94
-20.29
-13.95
-8.61
-3.66
1.41
6.76
12.19
17.28
21.67
25.18
27.86
29.85
31.27
32.17
32.52
32.38
31.87
31.2
30.61
30.22
30.06
30.02
29.96
29.65
28.94
27.69
25.9
23.63
21.05
18.41
15.91
13.68
11.71
9.88
7.95
5.72
3.02
-0.18
-3.74
-7.43
-10.99
-14.23
-17.11
-19.78
-22.57
-25.82
-29.84
-34.7
-40.15
-45.54
-49.94
-52.3
-51.82
-48.21
-41.82
-33.6
-24.78
-16.49
-9.52
-4.06
0.13
3.61
6.98
10.7
14.97
19.69
24.48
28.81
32.22
34.37
35.16
34.74
33.39
31.47
29.33
27.29
25.56
24.23
23.21
22.31
21.22
19.75
17.86
15.61
13.23
10.92
8.95
7.52
6.76
6.62
6.84
6.97
6.55
5.27
3.1
0.29
-2.8
-5.88
-8.89
-11.94
-15.21
-18.91
-23.16
-27.95
-33.14
-38.33
-42.87
-45.99
-47.01
-45.6
-41.96
-36.77
-30.96
-25.36
-20.4
-16.04
-11.88
-7.45
-2.48
2.99
8.53
13.55
17.52
20.21
21.71
22.4
22.69
22.9
23.16
23.41
23.56
23.58
23.52
23.44
23.37
23.22
22.77
21.83
20.28
18.18
15.73
13.22
10.85
8.68
6.65
4.6
2.35
-0.19
-2.99
-6.0
-9.09
-12.18
-15.19
-18.08
-20.83
-23.49
-26.22
-29.31
-33.11
-37.9
-43.66
-49.93
-55.77
-59.98
-61.45
-59.53
-54.34
-46.73
-37.93
-29.18
-21.29
-14.5
-8.59
-3.14
2.2
7.51
12.69
17.49
21.68
25.08
27.59
29.16
29.84
29.72
28.99
27.86
26.6
25.44
24.57
24.11
24.05
24.24
24.37
24.11
23.21
21.58
19.35
16.83
14.37
12.22
10.42
8.85
7.22
5.25
2.71
-0.43
-4.09
-8.02
-11.93
-15.55
-18.75
-21.62
-24.44
-27.66
-31.69
-36.78
-42.83
-49.33
-55.36
-59.84
-61.71
-60.38
-55.85
-48.81
-40.39
-31.81
-24.0
-17.35
-11.78
-6.88
-2.28
2.22
6.53
10.41
13.64
16.04
17.62
18.43
18.65
18.44
18.05
17.76
17.8
18.33
19.32
20.57
21.76
22.55
22.63
21.8
20.02
17.39
14.16
10.72
7.49
4.82
2.86
1.56
0.65
-0.22
-1.29
-2.66
-4.24
-5.82
-7.24
-8.4
-9.34
-10.29
-11.56
-13.58
-16.72
-21.18
-26.79
-32.91
-38.52
-42.42
-43.66
-41.84
-37.26
-30.77
-23.44
-16.21
-9.66
-3.89
1.26
6.04
10.61
15.01
19.17
22.96
26.28
28.98
30.92
32.01
32.21
31.64
30.48
29.02
27.52
26.18
25.13
24.41
23.98
23.69
23.3
22.47
20.95
18.63
15.67
12.39
9.18
6.31
3.78
1.4
-1.14
-4.02
-7.25
-10.67
-14.04
-17.15
-19.9
-22.37
-24.69
-27.16
-30.09
-33.86
-38.7
-44.61
-51.13
-57.4
-62.22
-64.5
-63.57
-59.37
-52.55
-44.18
-35.38
-27.05
-19.64
-13.19
-7.48
-2.15
3.11
8.5
14.08
19.71
25.1
29.82
33.47
35.84
36.93
37.01
36.51
35.84
35.28
34.94
34.82
34.85
34.95
35.04
34.96
34.51
33.48
31.81
29.57
27.0
24.4
22.02
19.99
18.25
16.6
14.74
12.4
9.42
5.77
1.68
-2.54
-6.55
-10.14
-13.32
-16.3
-19.45
-23.14
-27.67
-33.1
-39.21
-45.41
-50.76
-54.18
-54.74
-52.0
-46.22
-38.37
-29.77
-21.66
-14.79
-9.24
-4.59
-0.23
4.27
9.04
13.89
18.52
22.64
26.06
28.7
30.52
31.52
31.78
31.53
31.05
30.67
30.59
30.8
31.03
30.86
29.91
28.0
25.23
21.95
18.63
15.71
13.45
11.85
10.76
9.93
9.13
8.12
6.78
4.98
2.7
0.01
-2.93
-5.97
-9.04
-12.3
-16.04
-20.6
-26.12
-32.44
-38.97
-44.78
-48.85
-50.3
-48.65
-43.98
-36.95
-28.53
-19.78
-11.47
-3.94
2.93
9.53
16.27
23.33
30.61
37.8
44.57
50.64
55.84
60.1
63.39
65.75
67.39
68.76
70.5
73.29
77.54
83.2
89.64
95.78
100.21
101.56
98.69
91.02
78.7
62.75
44.83
26.88
10.52
-3.36
-14.75
-24.28
-32.79
-40.93
-48.99
-56.94
-64.63
-71.92
-78.69
-84.8
-90.01
-94.09
-96.97
-98.78
-99.87
-100.62
-101.16
-101.25
-100.27
-97.45
-92.24
-84.61
-75.2
-65.18
-55.85
-48.13
-42.18
-37.35
-32.45
-26.26
-18.05
-7.84
3.61
15.18
25.79
34.79
42.06
47.94
52.87
57.17
60.8
63.42
64.6
64.05
61.79
58.14
53.55
48.47
43.23
38.03
33.01
28.33
24.14
20.62
17.79
15.5
13.47
11.33
8.8
5.78
2.33
-1.3
-4.89
-8.24
-11.32
-14.18
-16.96
-19.75
-22.62
-25.65
-28.97
-32.81
-37.31
-42.43
-47.68
-52.16
-54.75
-54.49
-50.96
-44.47
-35.98
-26.72
-17.82
-9.95
-3.32
2.22
6.95
11.07
14.72
17.94
20.77
23.25
25.44
27.36
29.03
30.43
31.57
32.49
33.22
33.91
34.7
35.76
37.13
38.65
39.92
40.37
39.46
36.91
32.92
28.16
23.58
20.16
18.56
19.02
21.23
24.38
27.33
28.83
27.86
23.94
17.31
8.83
-0.27
-8.96
-16.7
-23.62
-30.22
-37.01
-44.1
-51.12
-57.38
-62.1
-64.71
-64.95
-62.83
-58.59
-52.59
-45.3
-37.21
-28.83
-20.57
-12.76
-5.55
0.96
6.72
11.68
15.8
19.14
21.82
24.06
26.06
27.93
29.67
31.23
32.53
33.6
34.58
35.67
37.0
38.52
39.97
41.0
41.25
