18.17
18.15
17.69
16.72
15.33
13.75
12.2
10.78
9.46
8.09
6.53
4.72
2.72
0.62
-1.48
-3.56
-5.62
-7.68
-9.74
-11.74
-13.66
-15.61
-17.77
-20.4
-23.65
-27.41
-31.18
-34.2
-35.62
-34.8
-31.59
-26.36
-19.89
-13.13
-6.87
-1.62
2.46
5.49
7.75
9.6
11.34
13.18
15.13
16.92
18.07
17.98
16.24
12.8
8.09
2.92
-1.8
-5.32
-7.31
-7.91
-7.62
-7.06
-6.71
-6.74
-7.03
-7.17
-6.7
-5.28
-2.83
0.37
3.7
6.37
7.61
6.91
4.14
-0.42
-6.19
-12.45
-18.57
-24.08
-28.75
-32.63
-35.97
-39.19
-42.78
-47.17
-52.59
-58.83
-65.23
-70.77
-74.28
-74.83
-72.04
-66.18
-58.14
-49.05
-40.06
-31.98
-25.25
-19.99
-16.16
-13.55
-11.73
-10.02
-7.47
-3.11
3.73
13.05
24.14
35.68
46.21
54.52
59.98
62.57
62.73
61.08
58.22
54.65
50.68
46.56
42.44
38.36
34.32
30.29
26.26
22.26
18.39
14.75
11.4
8.33
5.4
2.47
-0.61
-3.9
-7.4
-11.02
-14.59
-17.95
-20.98
-23.64
-26.05
-28.54
-31.54
-35.51
-40.67
-46.82
-53.14
-58.38
-61.23
-60.74
-56.73
-49.87
-41.38
-32.61
-24.55
-17.69
-11.98
-7.16
-2.88
1.09
4.83
8.34
11.5
14.22
16.34
17.8
18.57
18.71
18.32
17.58
16.68
15.85
15.35
15.36
15.97
17.06
18.36
19.51
20.21
20.31
19.84
18.94
17.81
16.6
15.39
14.18
12.98
11.77
10.59
9.47
8.43
7.45
6.59
5.92
5.64
5.94
6.85
8.15
9.29
9.58
8.26
4.89
-0.53
-7.5
-15.04
-21.93
-26.97
-29.32
-28.71
-25.46
-20.35
-14.34
-8.27
-2.64
2.38
6.83
10.75
14.14
16.89
18.9
20.21
20.95
21.4
21.8
22.25
22.74
23.14
23.35
23.34
23.25
23.28
23.57
24.05
24.44
24.35
23.4
21.43
18.59
15.21
11.74
8.55
5.83
3.61
1.76
0.07
-1.73
-3.84
-6.38
-9.27
-12.31
-15.22
-17.81
-20.04
-22.04
-24.12
-26.57
-29.64
-33.41
-37.81
-42.54
-47.0
-50.39
-51.86
-50.82
-47.13
-41.21
-33.85
-25.99
-18.34
-11.32
-4.98
0.81
6.22
11.38
16.34
21.07
25.43
29.25
32.27
34.31
35.31
35.37
34.71
33.63
32.39
31.2
30.18
29.39
28.82
28.42
28.04
27.48
26.54
25.08
23.06
20.61
17.95
15.32
12.89
10.7
8.69
6.77
4.87
2.99
1.13
-0.76
-2.78
-5.09
-7.76
-10.74
-13.82
-16.75
-19.41
-21.89
-24.54
-27.8
-31.94
-36.84
-41.89
-46.12
-48.51
-48.3
-45.27
-39.77
-32.55
-24.49
-16.33
-8.56
-1.44
4.97
10.68
15.75
20.25
24.34
28.11
31.6
34.75
37.42
39.42
40.69
41.28
41.35
41.11
40.65
39.96
38.97
37.59
35.79
33.65
31.3
28.88
26.52
24.33
22.4
20.81
19.59
18.71
18.08
17.59
17.09
16.48
15.74
14.88
13.94
12.87
11.51
9.66
7.08
3.67
-0.48
-5.06
-9.69
-14.0
-17.81
-21.25
-24.59
-28.11
-31.91
-35.69
-38.86
-40.68
-40.58
-38.33
-34.15
-28.62
-22.36
-15.94
-9.78
-4.12
0.84
4.97
8.24
10.73
12.64
14.15
15.39
16.31
16.83
16.84
16.39
15.59
14.69
13.9
13.41
13.31
13.63
14.29
15.13
15.94
16.49
16.61
16.22
15.33
14.05
12.53
10.96
9.44
7.98
6.47
4.72
2.57
0.02
-2.71
-5.24
-7.18
-8.32
-8.72
-8.74
-8.89
-9.72
-11.67
-14.94
-19.46
-24.81
-30.26
-34.88
-37.75
-38.21
-36.1
-31.83
-26.23
-20.3
-14.88
-10.46
-7.06
-4.33
-1.71
1.4
5.39
10.36
16.0
21.71
26.75
30.5
32.65
33.3
32.82
31.66
30.23
28.72
27.2
25.71
24.37
23.38
22.9
22.95
23.35
23.78
23.91
23.54
22.66
21.38
19.86
18.18
16.32
14.27
12.01
9.64
7.3
5.1
3.01
0.82
-1.77
-5.07
-9.25
-14.31
-20.06
-26.23
-32.57
-38.87
-44.95
-50.58
-55.38
-58.85
-60.56
-60.26
-58.09
-54.49
-50.11
-45.54
-41.21
-37.27
-33.72
-30.49
-27.5
-24.71
-22.01
-19.25
-16.22
-12.74
-8.72
-4.25
0.35
4.73
8.47
11.32
13.19
14.24
14.77
15.11
15.53
16.15
16.91
17.62
18.01
17.84
16.92
15.25
13.01
10.51
8.09
6.04
4.42
3.15
1.99
0.7
-0.8
-2.5
-4.25
-5.91
-7.41
-8.77
-10.09
-11.43
-12.89
-14.52
-16.42
-18.75
-21.66
-25.14
-28.91
-32.38
-34.79
-35.39
-33.77
-29.94
-24.31
-17.47
-10.05
-2.49
4.87
11.79
18.02
23.33
27.57
30.73
33.01
34.71
36.16
37.61
39.17
40.83
42.51
44.08
45.44
46.6
47.7
48.98
50.64
52.62
54.5
55.55
54.93
52.09
46.92
39.84
31.63
23.17
15.21
8.29
2.69
-1.51
-4.39
-6.22
-7.39
-8.38
-9.66
-11.64
-14.49
-18.2
-22.47
-26.85
-30.82
-33.93
-35.95
-36.89
-36.95
-36.38
-35.38
-34.1
-32.62
-31.01
-29.34
-27.61
-25.77
-23.73
-21.43
-18.91
-16.35
-13.96
-11.88
-10.19
-8.78
-7.56
-6.43
-5.38
-4.42
-3.55
-2.72
-1.84
-0.88
0.13
1.07
1.76
2.05
1.89
1.27
0.27
-1.02
-2.43
-3.8
-5.0
-5.94
-6.67
-7.3
-7.99
-8.86
-9.91
-11.16
-12.68
-14.73
-17.65
-21.82
-27.45
-34.42
-42.24
-50.05
-56.79
-61.38
-63.03
-61.43
-56.87
-50.2
-42.54
-34.94
-28.1
-22.24
-17.16
-12.55
-8.13
-3.83
0.23
3.9
7.05
9.62
11.63
13.14
14.17
14.76
14.96
14.87
14.7
14.67
14.97
15.65
16.54
17.29
17.51
16.96
15.63
13.77
11.73
9.81
8.07
6.38
4.49
2.23
-0.42
-3.34
-6.27
-9.01
-11.49
-13.78
-16.08
-18.6
-21.56
-25.11
-29.3
-34.05
-39.02
-43.62
-47.04
-48.42
-47.19
-43.26
-37.19
-29.92
-22.55
-15.81
-10.02
-5.03
-0.49
3.91
8.25
12.43
16.28
19.65
22.46
24.66
26.27
27.29
27.79
27.89
27.81
27.78
27.97
28.47
29.24
30.11
30.84
31.18
30.88
29.85
28.14
25.9
23.4
20.89
18.58
16.49
14.49
12.32
9.71
6.48
2.63
-1.7
-6.29
-10.98
-15.71
-20.51
-25.5
-30.76
-36.36
-42.34
-48.65
-55.11
-61.2
-66.17
-69.14
-69.44
-66.83
-61.58
-54.21
-45.29
-35.22
-24.29
-12.8
-1.3
9.5
18.92
26.56
32.44
36.91
40.37
43.07
45.05
46.29
46.83
46.89
46.81
46.87
47.17
47.6
47.98
48.13
48.01
47.61
46.97
46.03
44.65
42.7
40.15
37.13
33.9
30.79
28.04
25.74
23.77
21.94
20.12
18.27
16.54
15.15
14.23
13.71
13.29
12.44
10.58
7.2
1.98
-5.08
-13.57
-22.66
-31.21
-37.94
-41.84
-42.4
-39.79
-34.75
-28.27
-21.23
-14.2
-7.38
-0.82
5.48
11.37
16.66
21.16
24.76
27.42
29.07
29.61
28.94
27.09
24.29
20.96
17.62
14.71
12.47
10.93
10.01
9.57
9.49
9.66
9.91
10.0
9.59
8.38
6.22
3.2
-0.38
-4.11
-7.67
-10.91
-13.95
-17.07
-20.48
-24.22
-28.03
-31.46
-34.01
-35.45
-35.84
-35.58
-35.17
-35.1
-35.7
-37.19
-39.57
-42.67
-46.03
-48.89
-50.29
-49.36
-45.58
-39.0
-30.25
-20.28
-10.1
-0.55
7.86
14.88
20.48
24.75
27.91
30.24
32.12
33.92
35.9
38.14
40.52
42.68
44.15
44.46
43.31
40.76
37.21
33.39
30.1
28.05
27.62
28.81
31.25
34.33
37.33
39.57
40.46
39.65
37.04
32.76
27.21
20.9
14.41
8.22
2.66
-2.09
-6.01
-9.18
-11.79
-14.13
-16.63
-19.75
-23.91
-29.2
-35.27
-41.2
-45.76
-47.77
-46.57
-42.26
-35.72
-28.15
-20.68
-13.96
-8.11
-2.83
2.26
7.4
12.53
17.46
21.93
25.76
28.92
31.49
33.58
35.3
36.65
37.6
38.1
38.13
37.71
36.9
35.75
34.27
32.44
30.17
27.38
23.99
20.01
15.58
10.95
6.44
2.38
-1.08
-3.89
-6.21
-8.28
-10.32
-12.47
-14.74
-17.1
-19.46
-21.75
-23.92
-25.97
-27.91
-29.86
-32.01
-34.68
-38.24
-42.91
-48.56
-54.58
-59.94
-63.41
-64.01
-61.36
-55.82
-48.39
-40.32
-32.69
-26.19
-20.96
-16.78
-13.27
-10.04
-6.78
-3.31
0.46
4.41
8.34
11.95
14.94
17.11
18.45
19.13
19.44
19.68
20.06
20.72
21.62
22.65
23.61
24.28
24.41
23.86
22.62
20.79
18.6
16.3
14.13
12.23
10.59
9.09
7.49
5.57
3.18
0.37
-2.67
-5.68
-8.43
-10.85
-13.06
-15.27
-17.74
-20.67
-24.18
-28.33
-33.05
-38.06
-42.79
-46.4
-47.93
-46.62
-42.26
-35.27
-26.7
-17.81
-9.73
-3.13
1.88
5.58
8.41
10.77
12.87
14.79
16.51
17.98
19.19
20.13
20.79
21.19
21.36
21.31
21.1
20.77
20.4
20.06
19.82
19.66
19.53
19.23
18.56
17.34
15.6
13.55
11.56
9.93
8.78
7.95
7.04
5.7
3.75
1.33
-1.18
-3.35
-4.94
-5.95
-6.63
-7.34
-8.42
-10.05
-12.28
-14.92
-17.61
-19.76
-20.61
-19.42
-15.76
-9.69
-1.89
6.52
14.32
20.55
24.9
27.62
29.41
30.95
32.65
34.45
35.97
36.76
36.53
35.24
33.12
30.4
27.28
23.84
20.22
16.61
13.31
10.63
8.74
7.55
6.74
5.85
4.41
2.12
-1.1
-5.04
-9.28
-13.38
-16.94
-19.81
-22.18
-24.41
-26.86
-29.7
-32.8
-35.84
-38.47
-40.55
-42.25
-44.0
-46.27
-49.4
-53.33
-57.54
-61.16
-63.22
-62.9
-59.89
-54.45
-47.37
-39.67
-32.3
-25.73
-19.97
-14.66
-9.38
-3.92
1.63
6.91
11.5
15.15
17.84
19.77
21.3
22.85
24.8
27.45
30.87
34.86
38.95
42.5
44.94
45.95
45.55
43.98
41.6
38.68
35.37
31.71
27.75
23.63
19.52
15.52
11.62
7.61
3.21
-1.79
-7.37
-13.21
-18.78
-23.49
-27.02
-29.4
-31.08
-32.8
-35.26
-38.91
-43.69
-49.02
-53.91
-57.2
-57.94
-55.67
-50.57
-43.45
-35.45
-27.68
-20.82
-15.12
-10.37
-6.16
-2.11
2.02
6.28
10.61
14.83
18.65
21.78
23.97
25.18
25.6
25.61
25.63
25.91
26.5
27.27
27.96
28.4
28.5
28.21
27.55
26.47
24.93
22.9
20.49
17.89
15.34
13.06
11.14
9.51
7.97
6.25
4.15
1.55
-1.48
-4.8
-8.22
-11.54
-14.62
-17.44
-20.13
-22.98
-26.4
-30.75
-36.14
-42.23
-48.23
-53.0
-55.35
-54.47
-50.19
-43.09
-34.31
-25.16
-16.78
-9.75
-4.12
0.54
4.76
8.97
13.35
17.79
21.98
25.62
28.44
30.34
31.31
31.48
31.03
30.23
29.35
28.66
28.35
28.48
28.98
29.66
30.3
30.6
30.33
29.31
27.51
25.05
22.22
19.36
16.72
14.34
12.07
9.59
6.62
3.11
-0.79
-4.71
-8.25
-11.13
-13.3
-14.97
-16.5
-18.39
-21.04
-24.72
-29.37
-34.54
-39.4
-42.89
-43.99
-42.04
-36.91
-29.14
-19.71
-9.79
-0.39
7.86
14.76
20.42
25.1
29.0
32.26
34.96
37.25
39.29
41.17
42.87
44.17
44.75
44.28
42.66
40.07
37.02
34.25
32.48
32.16
33.32
35.5
37.91
39.73
40.38
39.71
38.1
36.23
34.83
34.37
34.76
35.32
35.0
32.71
27.8
20.37
11.34
2.19
-5.64
-11.29
-14.82
-17.14
-19.55
-23.11
-28.12
-33.9
-39.01
-41.71
-40.54
-34.81
-24.7
-11.27
3.75
18.33
30.41
38.4
41.39
39.46
33.6
25.46
17.01
9.96
5.54
4.21
5.81
9.63
14.6
19.48
23.03
24.27
22.67
18.34
11.92
4.48
-2.8
-8.81
-12.77
-14.26
-13.28
-10.21
-5.78
-0.94
3.25
5.86
6.21
4.02
-0.54
-6.96
-14.41
-21.95
-28.64
-33.73
-36.77
-37.66
-36.62
-34.06
-30.48
-26.38
-22.34
-19.04
-17.27
-17.81
-21.23
-27.65
-36.63
-47.15
-57.77
-66.8
-72.56
-73.62
-69.17
-59.21
-44.64
-27.2
-9.12
7.44
20.83
30.2
35.52
37.27
36.17
32.93
28.31
23.17
18.56
15.62
15.3
17.9
22.89
28.93
34.31
37.53
37.76
35.02
30.0
23.66
16.91
10.4
4.58
-0.16
-3.37
-4.62
-3.67
-0.78
3.28
7.28
9.97
10.43
8.32
3.9
-2.18
-9.18
-16.49
-23.6
-30.03
-35.2
-38.51
-39.55
-38.45
-36.0
-33.55
-32.52
-33.96
-38.19
-44.63
-52.11
-59.18
-64.51
-67.16
-66.76
-63.49
-58.0
-51.22
-44.14
-37.54
-31.8
-26.86
-22.41
-18.05
-13.53
-8.82
-4.08
0.46
4.6
8.22
11.3
13.85
15.94
17.61
18.94
20.03
20.99
21.88
22.77
23.58
24.17
24.28
23.71
22.41
20.6
18.64
16.96
15.85
15.35
15.34
15.54
15.63
15.18
13.71
10.74
6.04
-0.18
-7.19
-13.98
-19.58
-23.56
-26.1
-27.88
-29.64
-31.77
-34.17
-36.37
-37.83
-38.23
-37.55
-35.96
-33.64
-30.7
-27.15
-23.0
-18.38
-13.53
-8.73
-4.18
0.07
4.0
7.65
10.97
13.9
16.35
18.31
19.76
20.75
21.25
21.28
20.88
20.22
19.53
19.01
18.74
18.65
18.5
18.06
17.21
15.99
14.59
13.17
11.87
10.67
9.52
8.35
7.13
5.89
4.65
3.4
2.0
0.26
-1.96
-4.72
-7.87
-11.19
-14.39
-17.28
-19.82
-22.13
-24.4
-26.84
-29.59
-32.76
-36.4
-40.47
-44.7
-48.6
-51.36
-52.15
-50.31
-45.69
-38.72
-30.32
-21.58
-13.42
-6.32
-0.3
4.93
9.73
14.39
19.02
23.62
28.1
32.33
36.15
39.23
41.09
41.22
39.32
35.63
30.99
26.72
24.15
24.09
26.5
30.51
34.8
38.17
40.01
40.37
39.71
38.5
36.91
34.79
31.9
28.22
24.06
19.99
16.56
14.07
12.46
11.37
10.4
9.23
7.69
5.76
3.48
0.92
-1.75
-4.32
-6.54
-8.27
-9.58
-10.82
-12.49
-15.06
-18.61
-22.67
-26.18
-27.79
-26.28
-21.14
-12.79
-2.54
7.87
16.89
23.67
28.16
30.95
32.76
34.1
35.08
35.55
35.29
34.25
32.59
30.59
28.46
26.28
23.95
21.41
18.61
15.7
12.87
10.38
8.36
6.89
5.86
5.03
4.09
2.69
0.58
-2.3
-5.79
-9.54
-13.13
-16.3
-19.02
-21.55
-24.25
-27.37
-30.91
-34.58
-37.96
-40.66
-42.58
-43.91
-45.01
-46.32
-48.17
-50.81
-54.33
-58.65
-63.38
-67.73
-70.51
-70.45
-66.61
-58.93
-48.24
-36.12
-24.3
-14.08
-5.99
0.2
5.09
9.3
13.15
16.58
19.34
21.24
22.25
22.56
22.49
22.32
22.21
22.21
22.35
22.64
23.18
24.07
25.35
26.88
28.43
29.73
30.56
30.88
30.74
30.26
29.58
28.87
28.27
27.92
27.95
28.4
29.17
30.04
30.7
30.77
29.94
28.05
25.14
21.46
17.35
13.15
9.03
4.96
0.65
-4.34
-10.41
-17.73
-26.08
-34.69
-42.36
-47.7
-49.57
-47.4
-41.52
-32.95
-23.22
-13.85
-5.95
-0.0
4.18
7.18
9.74
12.41
15.4
18.59
21.62
24.1
25.79
26.64
26.71
26.15
25.09
23.65
22.02
20.49
19.37
18.87
19.02
19.54
20.01
20.0
19.29
17.88
16.01
13.99
12.08
10.38
8.88
7.51
6.22
5.05
4.08
3.34
2.72
1.97
0.71
-1.37
-4.42
-8.32
-12.74
-17.25
-21.49
-25.34
-28.9
-32.47
-36.37
-40.78
-45.58
-50.3
-54.11
-56.02
-55.1
-50.89
-43.57
-34.04
-23.62
-13.67
-5.16
1.57
6.72
10.79
14.25
17.31
19.92
21.87
23.01
23.35
23.11
22.63
22.22
22.05
22.14
22.35
22.56
22.69
22.84
23.14
23.72
24.5
25.13
25.16
24.18
22.09
19.13
15.81
12.58
9.65
6.92
3.98
0.52
-3.6
-8.16
-12.75
-16.9
-20.35
-23.04
-25.11
-26.79
-28.37
-30.15
-32.47
-35.59
-39.49
-43.71
-47.3
-48.93
-47.41
-42.08
-33.2
-21.89
-9.77
1.62
11.28
18.97
25.04
30.05
34.42
38.27
41.44
43.76
45.19
45.83
45.86
45.39
44.42
42.9
40.9
38.65
36.58
35.14
34.55
34.73
35.25
35.56
35.16
33.79
31.42
28.2
24.3
19.91
15.18
10.26
5.39
0.84
-3.16
-6.5
-9.21
-11.56
-13.91
-16.63
-19.94
-23.83
-28.03
-32.12
-35.69
-38.5
-40.6
-42.32
-44.19
-46.72
-50.26
-54.87
-60.17
-65.35
-69.29
-70.72
-68.57
-62.39
-52.52
-40.19
-27.13
-15.1
-5.29
1.91
6.91
10.57
13.75
16.93
20.06
22.76
24.51
25.0
24.24
22.55
20.45
18.49
17.06
16.34
16.25
16.51
16.79
16.79
16.34
15.38
13.98
12.25
10.3
8.2
5.97
3.64
1.32
-0.89
-2.91
-4.76
-6.63
-8.77
-11.39
-14.63
-18.43
-22.63
-27.06
-31.53
-35.92
-40.13
-44.03
-47.5
-50.56
-53.4
-56.52
-60.46
-65.52
-71.43
-77.18
-81.14
-81.6
-77.36
-68.3
-55.47
-40.77
-26.35
-13.81
-3.87
3.8
10.08
15.94
21.88
27.8
33.08
36.99
39.08
39.43
38.53
37.09
35.68
34.61
33.91
33.53
33.5
33.88
34.75
36.01
37.35
38.28
38.33
37.24
35.1
32.37
29.64
27.44
25.9
24.62
22.83
19.69
14.83
8.54
1.76
-4.35
-8.94
-11.81
-13.42
-14.65
-16.3
-18.92
-22.7
-27.62
-33.48
-39.83
-45.84
-50.37
-52.14
-50.3
-44.79
-36.48
-26.85
-17.46
-9.42
-3.06
1.93
6.15
10.15
14.15
18.12
21.82
25.06
27.73
29.81
31.37
32.44
33.07
33.29
33.13
32.68
32.04
31.36
30.77
30.33
29.99
29.62
29.09
28.3
27.27
26.13
25.03
24.02
23.03
21.85
20.26
18.15
15.58
12.82
10.17
7.88
6.02
4.5
2.99
1.09
-1.69
-5.69
-10.99
-17.31
-24.05
-30.44
-35.79
-39.69
-42.03
-42.86
-42.24
-40.12
-36.5
-31.55
-25.75
-19.88
-14.69
-10.63
-7.65
-5.2
-2.56
0.84
5.17
10.18
15.34
20.18
24.48
28.34
32.14
36.24
40.77
45.5
49.77
52.69
53.41
51.45
46.87
40.32
32.83
25.49
19.13
14.15
10.5
7.87
5.88
4.31
3.13
2.49
2.55
3.44
5.06
7.17
9.32
11.03
11.86
11.58
10.3
8.41
6.49
5.04
4.35
4.32
4.5
4.26
3.04
0.47
-3.45
-8.26
-13.16
-17.04
-18.7
-17.16
-12.03
-3.77
6.3
16.34
24.57
29.82
31.9
31.38
29.3
26.6
23.77
20.9
17.89
14.67
11.35
8.09
4.98
1.96
-1.09
-4.17
-6.92
-8.74
-8.97
-7.23
-3.56
1.58
7.48
13.33
18.34
21.75
22.91
21.43
17.28
10.96
3.34
-4.62
-12.16
-18.95
-25.02
-30.56
-35.73
-40.61
-45.25
-49.83
-54.69
-60.32
-67.09
-75.06
-83.76
-92.16
-98.78
-102.02
-100.59
-94.0
-82.78
-68.39
-52.84
-38.04
-25.3
-15.08
-7.19
-1.18
3.33
6.43
8.13
8.54
8.05
7.24
6.69
6.72
7.28
8.01
8.49
8.41
7.7
6.47
4.9
3.15
1.34
-0.51
-2.43
-4.52
-6.96
-9.85
-13.2
-16.75
-20.01
-22.41
-23.47
-23.03
-21.28
-18.69
-15.75
-12.82
-10.02
-7.28
-4.54
-1.89
0.37
1.75
1.63
-0.55
-5.16
-12.17
-20.99
-30.44
-38.93
-44.85
-47.06
-45.22
-39.84
-32.0
-22.92
-13.53
-4.32
4.53
12.91
20.63
27.38
32.88
36.98
39.76
41.42
42.16
42.12
41.34
39.86
37.83
35.51
33.28
31.48
30.4
30.11
30.46
31.1
31.46
30.93
29.03
25.61
20.94
15.68
10.54
6.03
2.21
-1.27
-4.91
-9.07
-13.78
-18.72
-23.44
-27.59
-31.12
-34.31
-37.71
-41.93
-47.45
-54.32
-61.96
-69.17
-74.38
-76.1
-73.43
-66.35
-55.75
-43.12
-30.02
-17.72
-6.9
2.24
9.87
16.26
21.68
26.33
30.33
33.72
36.5
38.61
40.02
40.72
40.78
40.36
39.64
38.85
38.19
37.79
37.71
37.88
38.13
38.2
37.86
36.93
35.34
33.1
30.3
27.0
23.25
19.08
14.56
9.8
4.98
0.25
-4.31
-8.72
-13.18
-18.01
-23.62
-30.28
-37.92
-45.98
-53.33
-58.56
-60.38
-58.03
-51.58
-41.93
-30.48
-18.72
-7.82
1.59
9.39
15.8
21.17
25.78
29.76
33.13
35.8
37.65
38.64
38.82
38.4
37.67
36.98
36.59
36.59
36.91
37.35
37.65
37.58
36.99
35.8
34.03
31.76
29.04
25.94
22.48
18.69
14.59
10.26
5.85
1.51
-2.64
-6.54
-10.28
-14.05
-18.11
-22.78
-28.3
-34.74
-41.81
-48.79
-54.55
-57.77
-57.42
-53.09
-45.15
-34.7
-23.13
-11.72
-1.3
7.78
15.58
22.3
28.13
33.17
37.47
41.07
43.99
46.21
47.68
48.36
48.26
47.53
46.48
45.43
44.7
44.44
44.58
44.93
45.16
44.96
44.07
42.37
39.91
36.87
33.51
30.0
26.4
22.62
18.5
14.0
9.18
4.27
-0.49
-4.91
-8.95
-12.76
-16.62
-20.91
-25.99
-32.08
-39.01
-46.08
-52.07
-55.52
-55.25
-50.83
-42.81
-32.52
-21.64
-11.54
-2.95
4.14
10.23
15.89
21.52
27.22
32.81
38.01
42.5
46.05
48.5
49.74
49.78
48.76
46.92
44.62
42.3
40.31
38.89
38.04
37.56
37.11
36.29
34.86
32.76
30.17
27.36
24.66
22.26
20.15
18.13
15.86
13.04
9.52
5.33
0.75
-3.89
-8.28
-12.28
-15.94
-19.47
-23.22
-27.54
-32.74
-38.85
-45.53
-51.98
-57.06
-59.54
-58.56
-53.97
-46.36
-36.98
-27.2
-18.13
-10.33
-3.79
1.86
7.06
12.09
17.03
21.77
26.11
29.86
32.87
34.99
36.09
36.11
35.13
33.41
31.41
29.6
28.41
27.94
28.04
28.3
28.28
27.63
26.25
24.25
21.86
19.29
16.71
14.13
11.51
8.75
5.73
2.38
-1.28
-5.14
-9.01
-12.66
-15.91
-18.77
-21.46
-24.36
-27.86
-32.2
-37.22
-42.3
-46.47
-48.7
-48.23
-44.86
-39.0
-31.51
-23.4
-15.5
-8.3
-1.98
3.53
8.33
12.53
16.18
19.3
21.9
23.93
25.38
26.24
26.56
26.45
26.07
25.6
25.14
24.77
24.55
24.47
24.49
24.52
24.34
23.72
22.42
20.3
17.41
13.96
10.31
6.82
3.73
1.04
-1.44
-4.04
-7.05
-10.56
-14.48
-18.54
-22.45
-25.95
-28.94
-31.5
-33.76
-35.95
-38.31
-41.06
-44.36
-48.22
-52.43
-56.52
-59.76
-61.39
-60.88
-58.12
-53.56
-47.91
-41.91
-35.95
-30.01
-23.81
-17.02
-9.66
-2.05
5.3
11.9
17.49
22.09
25.91
29.16
32.05
34.59
36.74
38.38
39.36
39.57
38.98
37.66
35.76
33.52
31.19
29.0
27.15
25.73
24.7
23.84
22.84
21.35
19.12
16.12
12.5
8.63
4.93
1.83
-0.44
-1.88
-2.76
-3.56
-4.78
-6.82
-9.74
-13.32
-17.11
-20.63
-23.59
-25.93
-27.81
-29.52
-31.36
-33.56
-36.24
-39.26
-42.19
-44.33
-44.86
-43.18
-39.17
-33.27
-26.36
-19.38
-13.09
-7.77
-3.38
0.35
3.69
6.81
9.73
12.43
14.83
16.84
18.36
19.34
19.77
19.74
19.36
18.76
18.08
17.39
16.78
16.29
15.96
15.77
15.64
15.46
15.1
14.47
13.51
12.27
10.84
9.39
8.11
7.12
6.39
5.75
4.93
3.64
1.78
-0.58
-3.14
-5.55
-7.54
-9.07
-10.34
-11.66
-13.28
-15.34
-17.87
-20.81
-24.12
-27.72
-31.35
-34.5
-36.45
-36.46
-34.11
-29.53
-23.35
-16.55
-10.08
-4.52
-0.05
3.6
6.8
9.89
13.02
16.16
19.16
21.77
23.82
25.15
25.76
25.71
25.18
24.37
23.5
22.77
22.26
22.01
21.89
21.76
21.46
20.86
19.95
18.78
17.46
16.09
14.73
13.35
11.93
10.4
8.73
6.9
4.96
2.97
1.0
-0.88
-2.66
-4.37
-6.11
-7.98
-10.06
-12.37
-14.82
-17.3
-19.67
-21.9
-24.0
-26.11
-28.47
-31.31
-34.76
-38.69
-42.65
-45.85
-47.42
-46.65
-43.31
-37.75
-30.8
-23.48
-16.65
-10.83
-6.13
-2.38
0.7
3.4
5.97
8.54
11.14
13.69
15.99
17.78
18.88
19.2
18.86
18.1
17.21
16.46
15.99
15.81
15.85
15.95
16.0
15.86
15.44
14.67
13.55
12.14
10.6
9.08
7.7
6.5
5.38
4.23
2.94
1.52
0.02
-1.46
-2.9
-4.34
-5.85
-7.55
-9.46
-11.51
-13.57
-15.5
-17.28
-19.02
-20.96
-23.42
-26.6
-30.49
-34.71
-38.61
-41.35
-42.21
-40.78
-37.14
-31.8
-25.5
-19.01
-12.94
-7.61
-3.07
0.75
4.05
6.99
9.67
12.11
14.28
16.06
17.37
18.18
18.58
18.7
18.72
18.72
18.7
18.64
18.5
18.32
18.12
17.9
17.6
17.14
16.46
15.55
14.46
13.29
12.11
10.99
9.94
8.95
7.98
6.99
5.93
4.71
3.23
1.42
-0.82
-3.5
-6.58
-9.89
-13.22
-16.29
-18.9
-21.02
-22.77
-24.52
-26.67
-29.63
-33.48
-37.94
-42.35
-45.77
-47.34
-46.5
-43.22
-37.99
-31.57
-24.8
-18.35
-12.56
-7.53
-3.17
0.69
4.25
7.67
11.01
14.27
17.34
20.03
22.18
23.65
24.38
24.45
24.01
23.3
22.56
22.01
21.74
21.73
21.84
21.9
21.77
21.37
20.73
19.87
18.81
17.52
15.98
14.19
12.29
10.48
8.97
7.9
7.18
6.58
5.75
4.43
2.55
0.29
-2.0
-3.98
-5.48
-6.57
-7.56
-8.82
-10.62
-13.06
-16.03
-19.22
-22.19
-24.33
-24.95
-23.37
-19.21
-12.8
-5.3
1.48
5.63
5.91
2.28
-4.1
-11.33
-17.51
-21.43
-22.72
-21.7
-18.9
-14.83
-9.85
-4.29
1.34
6.47
10.58
13.45
15.33
16.78
18.48
20.87
24.03
27.56
30.9
33.45
34.93
35.4
35.2
34.76
34.41
34.27
34.2
33.94
33.17
31.71
29.49
26.68
23.59
20.56
17.89
15.7
13.88
12.19
10.35
8.13
5.49
2.52
-0.62
-3.76
-6.82
-9.82
-12.84
-15.95
-19.29
-23.04
-27.31
-32.15
-37.31
-42.22
-46.07
-47.96
-47.31
-44.01
-38.54
-31.79
-24.77
-18.31
-12.84
-8.45
-4.9
-1.87
0.97
3.78
6.57
9.18
11.37
12.88
13.57
13.5
12.9
12.15
11.63
11.59
12.07
12.97
14.07
15.11
15.95
16.52
16.87
17.15
17.57
18.31
19.47
20.88
22.06
22.32
20.97
17.67
12.6
6.48
0.3
-5.09
-9.25
-12.24
-14.56
-16.78
-19.37
-22.56
-26.39
-30.79
-35.69
-41.03
-46.72
-52.52
-57.98
-62.39
-64.94
-64.98
-62.24
-57.08
-50.46
-43.61
-37.63
-33.14
-30.11
-27.99
-26.07
-23.79
-20.95
-17.69
-14.31
-11.16
-8.47
-6.37
-4.87
-3.86
-3.09
-2.21
-0.86
1.22
4.07
7.51
11.16
14.59
17.45
19.57
20.94
21.74
22.18
22.49
22.82
23.27
23.78
24.29
24.64
24.68
24.22
23.08
21.11
18.21
14.49
10.14
5.45
0.67
-4.07
-8.72
-13.3
-17.8
-22.15
-26.22
-29.8
-32.67
-34.47
-34.84
-33.39
-29.96
-24.75
-18.42
-11.95
-6.4
-2.56
-0.71
-0.62
-1.68
-3.18
-4.51
-5.23
-5.15
-4.17
-2.34
0.17
3.1
6.09
8.82
11.07
12.84
14.24
15.55
17.03
18.83
20.97
23.26
25.43
27.23
28.53
29.35
29.84
30.14
30.3
30.2
29.61
28.3
26.15
23.23
19.82
16.31
13.06
10.23
7.76
5.34
2.58
-0.85
-5.07
-10.0
-15.4
-20.98
-26.39
-31.22
-35.1
-37.75
-39.18
-39.75
-39.95
-40.11
-40.08
-39.17
-36.56
-31.82
-25.3
-18.16
-11.81
-7.3
-4.8
-3.64
-2.7
-1.07
1.66
5.35
9.53
13.72
17.52
20.64
22.82
23.85
23.73
22.67
21.11
19.59
18.46
17.83
17.57
17.44
17.33
17.26
17.38
17.73
18.08
17.95
16.66
13.61
8.51
1.55
-6.62
-15.16
-23.22
-30.21
-35.84
-40.05
-42.92
-44.61
-45.31
-45.31
-44.99
-44.79
-45.05
-45.95
-47.5
-49.69
-52.59
-56.34
-60.99
-66.27
-71.41
-75.24
-76.53
-74.41
-68.69
-59.98
-49.42
-38.33
-27.82
-18.55
-10.76
-4.33
1.07
5.8
10.21
14.49
18.69
22.73
26.41
29.52
31.87
33.38
34.06
34.1
33.77
33.38
33.23
33.45
34.03
34.76
35.35
35.48
34.94
33.62
31.59
29.06
26.3
23.6
21.16
19.03
17.12
15.24
13.15
10.65
7.69
4.32
0.75
-2.73
-5.92
-8.8
-11.59
-14.72
-18.71
-23.83
-29.95
-36.41
-42.13
-45.92
-46.81
-44.35
-38.77
-30.84
-21.65
-12.28
-3.59
3.93
10.16
15.26
19.5
23.19
26.54
29.64
32.41
34.71
36.33
37.16
37.22
36.66
35.71
34.67
33.78
33.22
33.12
33.5
34.29
35.27
36.11
36.46
35.99
34.57
32.21
29.13
25.67
22.17
18.95
16.15
13.72
11.44
8.95
5.97
2.35
-1.76
-6.02
-10.03
-13.52
-16.5
-19.24
-22.2
-25.85
-30.53
-36.27
-42.7
-49.08
-54.34
-57.36
-57.24
-53.62
-46.77
-37.52
-27.02
-16.46
-6.75
1.55
8.31
13.72
18.17
22.09
25.84
29.55
33.17
36.48
39.18
41.08
42.11
42.36
42.02
41.34
40.57
39.95
39.6
39.57
39.75
39.96
39.93
39.42
38.26
36.41
33.98
31.16
28.22
25.38
22.77
20.45
18.33
16.3
14.2
11.87
9.2
6.1
2.56
-1.3
-5.31
-9.23
-12.85
-16.06
-18.9
-21.59
-24.46
-27.94
-32.36
-37.83
-44.07
-50.32
-55.48
-58.33
-57.95
-54.08
-47.18
-38.26
-28.57
-19.15
-10.66
-3.27
3.1
8.69
13.69
18.27
22.55
26.59
30.39
33.85
36.75
38.82
39.87
39.88
39.03
37.66
36.17
34.86
33.92
33.35
33.04
32.83
32.54
32.05
31.29
30.22
28.83
27.13
25.14
22.92
20.54
18.09
15.66
13.31
11.01
8.74
6.42
3.98
1.36
-1.43
-4.39
-7.5
-10.64
-13.72
-16.61
-19.29
-21.89
-24.79
-28.46
-33.29
-39.29
-45.92
-52.06
-56.26
-57.23
-54.25
-47.46
-37.82
-26.78
-15.87
-6.23
1.49
7.17
11.06
13.6
15.33
16.8
18.52
20.82
23.77
27.1
30.32
32.85
34.23
34.3
33.18
31.3
29.14
27.19
25.78
24.99
24.7
24.62
24.41
23.79
22.61
20.81
18.48
15.79
12.95
10.15
7.58
5.34
3.39
1.55
-0.46
-2.9
-5.9
-9.35
-12.98
-16.44
-19.49
-22.1
-24.45
-26.93
-29.94
-33.83
-38.65
-44.1
-49.46
-53.67
-55.67
-54.65
-50.41
-43.45
-34.8
-25.72
-17.26
-10.06
-4.19
0.56
4.6
8.25
11.69
14.95
17.96
20.6
22.76
24.35
25.34
25.78
25.8
25.57
25.31
25.21
25.32
25.58
25.82
25.88
25.66
25.13
24.35
23.35
22.13
20.68
18.99
17.11
15.08
12.96
10.74
8.41
5.94
3.37
0.81
-1.64
-3.95
-6.17
-8.48
-11.0
-13.79
-16.76
-19.77
-22.65
-25.4
-28.13
-31.08
-34.38
-37.94
-41.37
-44.02
-45.16
-44.21
-40.98
-35.74
-29.11
-21.87
-14.66
-7.93
-1.82
3.69
8.69
13.28
17.53
21.45
25.08
28.38
31.25
33.5
34.92
35.38
34.91
33.73
32.22
30.81
29.8
29.28
29.1
28.98
28.58
27.67
26.21
24.32
22.2
20.04
17.96
15.99
14.1
12.23
10.35
8.45
6.49
4.48
2.35
0.1
-2.34
-4.99
-7.81
-10.72
-13.57
-16.23
-18.6
-20.74
-22.79
-24.97
-27.54
-30.7
-34.56
-39.11
-44.1
-48.96
-52.88
-54.94
-54.41
-51.04
-45.25
-37.94
-30.19
-22.88
-16.42
-10.79
-5.75
-1.13
3.08
6.72
9.68
11.98
13.74
15.17
16.31
17.09
17.34
16.99
16.21
15.32
14.7
14.58
14.92
15.48
15.96
16.12
15.89
15.32
14.46
13.29
11.77
9.87
7.64
5.28
3.04
1.16
-0.21
-1.09
-1.64
-2.13
-2.83
-3.95
-5.56
-7.52
-9.62
-11.62
-13.41
-15.03
-16.71
-18.77
-21.5
-25.01
-29.17
-33.54
-37.4
-39.87
-40.14
-37.72
-32.7
-25.71
-17.79
-10.05
-3.31
2.11
6.33
9.76
12.83
15.8
18.68
21.32
23.55
25.27
26.55
27.56
28.56
29.81
31.49
33.67
36.28
39.15
41.98
44.42
46.07
46.66
46.16
44.98
43.88
43.8
45.35
48.46
52.22
55.16
55.82
53.27
47.45
38.94
28.6
17.17
5.12
-7.19
-19.41
-31.05
-41.72
-51.24
-59.73
-67.51
-74.75
-81.29
-86.53
-89.65
-89.88
-86.82
-80.59
-71.9
-61.87
-51.82
-42.92
-35.98
-31.25
-28.46
-26.94
-25.89
-24.54
-22.33
-19.03
-14.66
-9.52
-4.01
1.44
6.48
10.92
14.72
17.94
20.66
22.9
24.66
25.96
26.87
27.54
28.15
28.84
29.64
30.45
31.16
31.67
32.01
32.24
32.43
32.52
32.26
31.37
29.62
27.05
23.99
20.96
18.41
16.55
15.16
13.72
11.64
8.51
4.29
-0.74
-6.11
-11.39
-16.27
-20.62
-24.44
-27.81
-30.89
-33.94
-37.24
-40.95
-44.97
-48.83
-51.77
-52.92
-51.69
-47.93
-42.08
-34.99
-27.59
-20.65
-14.53
-9.27
-4.71
-0.67
2.93
6.08
8.73
10.89
12.65
14.08
15.26
16.17
16.77
17.09
17.2
17.19
17.2
17.29
17.52
17.85
18.23
18.51
18.57
18.26
17.47
16.17
14.39
12.23
9.87
7.53
5.38
3.55
2.01
0.63
-0.84
-2.65
-4.93
-7.66
-10.68
-13.76
-16.66
-19.24
-21.49
-23.48
-25.44
-27.63
-30.3
-33.47
-36.87
-39.81
-41.39
-40.8
-37.61
-32.01
-24.76
-16.89
-9.37
-2.83
2.57
6.93
10.53
13.59
16.24
18.53
20.5
22.2
23.67
24.93
25.92
26.55
26.74
26.53
26.07
25.54
25.15
24.99
25.08
25.27
25.4
25.24
24.62
23.45
21.72
19.55
17.1
14.57
12.1
9.8
7.68
5.67
3.72
1.7
-0.42
-2.67
-5.04
-7.48
-9.89
-12.2
-14.37
-16.46
-18.59
-20.97
-23.8
-27.27
-31.44
-36.16
-41.02
-45.32
-48.21
-48.94
-47.06
-42.62
-36.2
-28.66
-20.91
-13.68
-7.35
-2.01
2.43
6.17
9.43
12.42
15.35
18.3
21.21
23.83
25.87
27.06
27.28
26.7
25.63
24.49
23.6
23.08
22.9
22.84
22.74
22.52
22.2
21.87
21.56
21.19
20.59
19.62
18.21
16.42
14.38
12.19
9.91
7.53
5.01
2.36
-0.38
-3.1
-5.69
-8.1
-10.33
-12.42
-14.48
-16.58
-18.84
-21.38
-24.35
-27.89
-32.03
-36.58
-41.06
-44.72
-46.67
-46.21
-43.02
-37.35
-29.92
-21.74
-13.79
-6.77
-1.03
3.45
6.91
9.67
12.0
14.1
16.04
17.75
19.12
19.93
20.07
19.49
18.33
16.81
15.25
13.88
12.79
11.99
11.39
10.93
10.6
10.43
10.44
10.59
10.74
10.75
10.48
9.84
8.8
7.35
5.55
3.5
1.36
-0.69
-2.51
-4.03
-5.32
-6.52
-7.76
-9.09
-10.44
-11.67
-12.62
-13.27
-13.71
-14.14
-14.8
-15.81
-17.15
-18.69
-20.15
-21.16
-21.37
-20.46
-18.24
-14.72
-10.14
-4.91
0.43
5.47
9.9
13.65
16.76
19.37
21.6
23.53
25.16
26.43
27.24
27.45
26.99
25.93
24.47
22.93
21.63
20.72
20.17
19.79
19.34
18.65
17.69
16.52
15.27
14.04
12.89
11.83
10.83
9.86
8.93
8.05
7.27
6.57
5.89
5.06
3.88
2.12
-0.27
-3.23
-6.52
-9.82
-12.82
-15.26
-16.94
-17.77
-17.74
-17.02
-15.97
-15.13
-15.0
-15.87
-17.54
-19.43
-20.76
-20.85
-19.44
-16.72
-13.19
-9.36
-5.56
-1.85
1.83
5.61
9.52
13.48
17.35
20.97
24.21
26.97
29.15
30.68
31.47
31.4
30.34
28.2
25.04
21.08
16.76
12.62
9.14
6.61
5.08
4.35
4.13
4.1
4.0
3.65
2.93
1.82
0.42
-1.11
-2.55
-3.75
-4.69
-5.49
-6.36
-7.51
-9.08
-11.01
-13.17
-15.37
-17.42
-19.23
-20.82
-22.38
-24.16
-26.45
-29.36
-32.77
-36.21
-38.99
-40.38
-39.88
-37.39
-33.22
-28.0
-22.41
-17.06
-12.29
-8.2
-4.78
-1.91
0.51
2.53
4.24
5.73
7.09
8.42
9.71
10.88
11.81
12.32
12.34
11.88
11.06
10.04
9.03
8.17
7.53
7.12
6.84
6.61
6.28
5.75
4.98
4.01
2.92
1.81
0.75
-0.25
-1.25
-2.28
-3.35
-4.44
-5.52
-6.6
-7.76
-9.09
-10.61
-12.26
-13.9
-15.46
-16.98
-18.73
-21.07
-24.2
-27.95
-31.67
-34.42
-35.27
-33.72
-29.83
-24.18
-17.65
-11.01
-4.79
0.77
5.63
9.9
13.74
17.38
21.09
25.1
29.38
33.58
37.08
39.19
39.53
38.18
35.71
32.88
30.46
28.88
28.23
28.4
29.17
30.35
31.8
33.36
34.79
35.8
36.11
35.56
34.22
32.29
30.11
27.97
26.06
24.4
22.87
21.27
19.4
17.2
14.75
12.23
9.89
7.91
6.29
4.88
3.38
1.46
-1.14
-4.54
-8.61
-13.04
-17.26
-20.56
-22.14
-21.32
-17.75
-11.61
-3.65
4.91
12.68
18.52
21.79
22.53
21.35
19.14
16.79
14.98
14.05
14.08
14.93
16.41
18.25
20.18
21.97
23.46
24.58
25.5
26.51
28.0
30.31
33.63
37.77
42.19
45.99
48.18
47.95
44.96
39.46
32.25
24.32
16.59
9.63
3.64
-1.43
-5.73
-9.35
-12.38
-14.92
-17.18
-19.38
-21.69
-24.08
-26.4
-28.53
-30.46
-32.46
-35.01
-38.59
-43.52
-49.76
-56.85
-63.91
-69.82
-73.44
-74.01
-71.31
-65.89
-58.88
-51.59
-45.1
-39.98
-36.17
-33.23
-30.65
-28.12
-25.6
-23.31
-21.5
-20.36
-19.93
-20.12
-20.73
-21.54
-22.34
-22.97
-23.36
-23.47
-23.36
-23.09
-22.77
-22.48
-22.33
-22.42
-22.83
-23.65
-24.93
-26.61
-28.52
-30.46
-32.29
-33.96
-35.62
-37.48
-39.72
-42.29
-44.85
-46.83
-47.56
-46.58
-43.76
-39.43
-34.2
-28.84
-24.05
-20.39
-18.3
-18.09
-19.79
-23.03
-26.94
-30.29
-31.89
-30.95
-27.47
-22.21
-16.29
-10.76
-6.09
-2.17
1.51
5.46
9.9
14.69
19.49
23.95
27.87
31.25
34.17
36.64
38.56
39.73
39.98
39.38
38.19
36.86
35.76
35.08
34.72
34.41
33.85
32.89
31.58
30.1
28.63
27.17
25.52
23.37
20.44
16.72
12.47
8.12
4.13
0.7
-2.29
-5.19
-8.44
-12.33
-16.84
-21.7
-26.57
-31.19
-35.55
-39.89
-44.56
-49.86
-55.82
-62.09
-67.89
-72.22
-74.08
-72.83
-68.43
-61.43
-52.87
-43.88
-35.34
-27.59
-20.47
-13.46
-6.02
2.2
11.2
20.77
30.6
40.32
49.52
57.67
64.18
68.7
71.38
72.91
74.24
76.01
78.02
79.15
77.85
72.98
64.51
53.59
42.09
31.7
23.27
16.69
11.3
6.51
2.12
