-7.8
-11.23
-14.19
-16.54
-18.31
-19.72
-21.16
-23.18
-26.29
-30.71
-36.14
-41.68
-45.93
-47.52
-45.48
-39.7
-31.01
-20.85
-10.74
-1.86
5.29
10.8
15.05
18.49
21.4
23.91
26.11
28.04
29.74
31.17
32.22
32.8
32.85
32.46
31.82
31.17
30.69
30.5
30.6
30.93
31.37
31.68
31.61
30.91
29.49
27.43
24.96
22.4
19.97
17.77
15.79
13.93
12.17
10.6
9.31
8.35
7.57
6.59
4.89
1.96
-2.46
-8.3
-15.11
-22.18
-28.84
-34.58
-39.28
-43.09
-46.33
-49.31
-52.18
-54.92
-57.4
-59.37
-60.48
-60.39
-58.69
-55.08
-49.5
-42.23
-33.9
-25.43
-17.74
-11.55
-7.24
-4.8
-3.92
-4.12
-4.9
-5.86
-6.82
-7.76
-8.74
-9.78
-10.84
-11.78
-12.49
-12.94
-13.3
-13.79
-14.63
-15.83
-17.2
-18.35
-18.8
-18.16
-16.21
-13.01
-8.8
-3.99
0.91
5.48
9.32
12.17
13.84
14.22
13.27
11.0
7.46
2.64
-3.55
-11.23
-20.33
-30.36
-40.23
-48.35
-53.09
-53.31
-48.86
-40.61
-30.18
-19.34
-9.43
-1.04
5.88
11.78
17.11
22.08
26.64
30.57
33.63
35.66
36.63
36.63
35.81
34.37
32.52
30.57
28.85
27.66
27.22
27.55
28.43
29.49
30.32
30.5
29.8
28.15
25.66
22.65
19.51
16.62
14.19
12.23
10.46
8.48
5.9
2.53
-1.57
-6.1
-10.69
-15.01
-18.94
-22.58
-26.19
-30.18
-34.9
-40.52
-46.93
-53.52
-59.36
-63.32
-64.48
-62.36
-57.21
-49.82
-41.24
-32.4
-23.88
-15.81
-8.06
-0.48
6.96
14.09
20.63
26.33
31.02
34.65
37.28
38.99
39.92
40.16
39.94
39.49
39.19
39.34
40.16
41.54
43.12
44.35
44.71
43.91
42.02
39.42
36.64
34.06
31.81
29.67
27.27
24.24
20.44
16.07
11.54
7.35
3.87
1.1
-1.29
-3.9
-7.37
-12.17
-18.37
-25.49
-32.47
-37.83
-40.03
-37.91
-31.2
-20.69
-8.11
4.4
15.0
22.72
27.6
30.56
32.81
35.37
38.71
42.72
46.9
50.6
53.3
54.65
54.53
53.02
50.31
46.69
42.48
38.03
33.7
29.8
26.54
23.93
21.75
19.6
17.01
13.7
9.64
5.13
0.67
-3.31
-6.6
-9.33
-11.91
-14.77
-18.14
-21.93
-25.79
-29.28
-32.17
-34.49
-36.5
-38.61
-41.18
-44.47
-48.56
-53.3
-58.22
-62.53
-65.18
-65.19
-61.98
-55.62
-46.86
-36.83
-26.59
-16.83
-7.75
0.81
9.04
17.01
24.63
31.75
38.26
44.05
49.04
53.1
56.05
57.8
58.37
57.99
56.95
55.6
54.22
52.98
52.0
51.25
50.63
49.87
48.68
46.82
44.19
40.9
37.22
33.46
29.83
26.41
23.11
19.8
16.29
12.55
8.59
4.54
0.55
-3.24
-6.81
-10.23
-13.67
-17.38
-21.59
-26.51
-32.22
-38.54
-44.99
-50.75
-54.82
-56.35
-54.83
-50.37
-43.59
-35.45
-26.94
-18.76
-11.33
-4.71
1.15
6.41
11.25
15.79
20.06
24.03
27.55
30.4
32.42
33.5
33.71
33.2
32.22
31.02
29.84
28.84
28.15
27.76
27.58
27.45
27.14
26.46
25.26
23.5
21.28
18.8
16.31
13.96
11.76
9.53
7.03
4.07
0.66
-2.97
-6.47
-9.53
-12.01
-14.04
-15.9
-17.96
-20.52
-23.73
-27.67
-32.29
-37.48
-42.88
-47.91
-51.74
-53.51
-52.55
-48.7
-42.39
-34.52
-26.22
-18.43
-11.69
-6.09
-1.39
2.74
6.56
10.18
13.58
16.63
19.21
21.24
22.73
23.73
24.33
24.61
24.63
24.46
24.16
23.87
23.75
23.96
24.53
25.29
25.9
25.97
25.19
23.49
21.04
18.18
15.22
12.32
9.49
6.57
3.47
0.12
-3.43
-7.11
-10.77
-14.3
-17.59
-20.53
-23.05
-25.23
-27.3
-29.7
-32.87
-37.08
-42.16
-47.45
-51.88
-54.36
-54.08
-50.89
-45.27
-38.13
-30.45
-22.94
-15.93
-9.44
-3.4
2.26
7.49
12.19
16.26
19.64
22.27
24.15
25.32
25.9
26.08
26.03
25.91
25.77
25.58
25.32
24.98
24.59
24.16
23.69
23.08
22.21
21.02
19.53
17.88
16.23
14.75
13.54
12.63
12.02
11.71
11.72
12.06
12.65
13.3
13.75
13.66
12.78
11.01
8.45
5.43
2.42
-0.04
-1.47
-1.51
-0.03
2.87
6.88
11.55
16.48
21.36
26.06
30.65
35.32
40.33
45.82
51.8
58.03
64.13
69.59
73.9
76.68
77.71
77.02
74.8
71.33
66.86
61.53
55.37
48.35
40.55
32.24
23.93
16.28
9.92
5.28
2.47
1.28
1.24
1.69
1.97
1.51
0.06
-2.34
-5.36
-8.5
-11.35
-13.74
-15.78
-17.78
-20.05
-22.74
-25.83
-29.15
-32.58
-36.03
-39.52
-43.06
-46.59
-50.04
-53.28
-56.25
-58.97
-61.48
-63.68
-65.3
-65.88
-64.85
-61.86
-56.93
-50.54
-43.55
-36.89
-31.25
-26.9
-23.71
-21.31
-19.41
-17.88
-16.83
-16.39
-16.62
-17.42
-18.56
-19.74
-20.65
-21.0
-20.57
-19.36
-17.52
-15.4
-13.44
-11.92
-10.96
-10.44
-10.21
-10.2
-10.49
-11.26
-12.61
-14.49
-16.74
-19.15
-21.63
-24.26
-27.2
-30.59
-34.42
-38.52
-42.68
-46.78
-50.79
-54.72
-58.43
-61.44
-62.99
-62.18
-58.41
-51.67
-42.62
-32.46
-22.44
-13.5
-5.95
0.34
5.78
10.69
15.17
19.13
22.43
25.08
27.23
29.1
30.86
32.57
34.13
35.48
36.5
37.21
37.63
37.78
37.66
37.24
36.51
35.4
33.82
31.57
28.47
24.42
19.52
14.11
8.72
3.87
-0.15
-3.39
-6.22
-9.16
-12.6
-16.62
-20.98
-25.2
-28.89
-31.87
-34.26
-36.42
-38.74
-41.62
-45.32
-50.02
-55.68
-61.98
-68.13
-72.99
-75.3
-74.16
-69.41
-61.79
-52.65
-43.45
-35.18
-28.1
-21.91
-16.04
-10.07
-3.95
2.1
7.78
12.89
17.35
21.21
24.53
27.32
29.55
31.24
32.4
33.11
33.56
33.9
34.3
34.77
35.21
35.31
34.8
33.47
31.36
28.71
25.86
23.08
20.48
17.98
15.44
12.78
9.98
7.09
4.19
1.28
-1.64
-4.57
-7.46
-10.28
-13.03
-15.86
-18.99
-22.63
-26.81
-31.4
-36.03
-40.23
-43.54
-45.5
-45.76
-44.08
-40.41
-34.95
-28.15
-20.63
-13.02
-5.81
0.76
6.63
11.88
16.56
20.68
24.2
27.08
29.29
30.85
31.81
32.23
32.2
31.8
31.14
30.32
29.47
28.68
28.02
27.57
27.4
27.58
28.11
28.87
29.61
29.97
29.71
28.79
27.57
26.59
26.48
27.51
29.5
31.72
33.25
33.37
31.97
29.72
27.77
27.31
28.96
32.42
36.57
39.89
41.13
39.9
36.99
34.22
34.03
38.98
50.93
70.34
95.59
122.83
146.55
160.88
161.42
146.77
119.05
83.22
45.23
10.06
-19.57
-43.33
-62.27
-77.47
-89.15
-96.77
-99.67
-98.0
-92.98
-86.54
-80.47
-75.69
-72.02
-68.62
-64.81
-60.63
-56.95
-55.03
-55.85
-59.58
-65.46
-72.12
-78.1
-82.25
-84.0
-83.34
-80.55
-76.17
-70.79
-64.99
-59.16
-53.33
-47.03
-39.45
-29.85
-17.98
-4.27
10.22
24.22
36.6
46.52
53.17
55.68
53.13
45.02
31.95
15.96
0.28
-11.64
-17.18
-15.47
-7.45
4.69
18.45
31.78
43.47
52.95
59.96
64.27
65.65
64.12
60.14
54.65
48.82
43.7
39.85
37.27
35.54
34.04
32.19
29.51
25.75
20.82
14.94
8.57
2.43
-2.85
-6.91
-9.82
-12.01
-14.0
-16.11
-18.37
-20.61
-22.63
-24.43
-26.15
-27.94
-29.93
-32.2
-34.93
-38.43
-43.03
-48.84
-55.67
-62.97
-70.1
-76.54
-82.04
-86.51
-89.83
-91.8
-92.29
-91.42
-89.56
-87.2
-84.56
-81.49
-77.57
-72.49
-66.33
-59.67
-53.16
-47.18
-41.5
-35.49
-28.45
-20.18
-11.15
-2.31
5.36
11.3
15.57
18.8
21.8
25.25
29.48
34.42
39.75
45.11
50.16
54.67
58.5
61.49
63.53
64.58
64.68
63.91
62.34
60.09
57.18
53.72
49.87
45.79
41.61
37.39
33.09
28.7
24.19
19.64
15.16
10.88
6.86
3.11
-0.4
-3.77
-7.1
-10.56
-14.35
-18.6
-23.29
-28.14
-32.54
-35.61
-36.47
-34.5
-29.65
-22.47
-14.03
-5.52
2.13
8.51
13.69
18.06
21.97
25.58
28.76
31.24
32.84
33.56
33.66
33.5
33.4
33.46
33.6
33.51
32.89
31.51
29.28
26.31
22.75
18.75
14.44
9.88
5.14
0.34
-4.32
-8.67
-12.59
-16.02
-19.01
-21.63
-23.96
-26.0
-27.74
-29.14
-30.23
-31.13
-32.04
-33.16
-34.55
-36.11
-37.59
-38.73
-39.42
-39.73
-40.01
-40.68
-42.14
-44.58
-47.84
-51.34
-54.13
-55.05
-53.05
-47.56
-38.73
-27.44
-15.07
-3.04
7.62
16.44
23.5
29.12
33.62
37.19
39.92
41.92
43.34
44.38
45.18
45.74
45.94
45.64
44.75
43.34
41.59
39.71
37.93
36.4
35.22
34.41
33.9
33.42
32.61
31.09
28.61
25.18
21.07
16.63
12.16
7.76
3.34
-1.21
-5.91
-10.63
-15.15
-19.31
-23.08
-26.55
-29.82
-32.9
-35.68
-38.01
-39.84
-41.28
-42.63
-44.3
-46.75
-50.32
-55.08
-60.6
-65.85
-69.35
-69.58
-65.53
-57.21
-45.72
-32.88
-20.62
-10.32
-2.49
3.19
7.42
10.94
14.2
17.31
20.15
22.51
24.21
25.2
25.53
25.31
24.67
23.76
22.71
21.65
20.76
20.18
19.99
20.15
20.49
20.73
20.53
19.66
17.99
15.6
12.73
9.69
6.81
4.32
2.29
0.63
-0.85
-2.44
-4.39
-6.9
-10.02
-13.66
-17.61
-21.62
-25.45
-28.96
-32.11
-35.04
-37.99
-41.3
-45.31
-50.13
-55.44
-60.34
-63.49
-63.53
-59.58
-51.64
-40.67
-28.33
-16.34
-6.01
2.13
8.19
12.76
16.46
19.75
22.86
25.79
28.5
30.84
32.7
33.94
34.48
34.31
33.53
32.36
31.14
30.16
29.6
29.46
29.57
29.67
29.52
28.93
27.81
26.18
24.14
21.84
19.44
17.01
14.56
12.03
9.38
6.62
3.86
1.24
-1.18
-3.5
-5.97
-8.81
-12.1
-15.7
-19.31
-22.67
-25.67
-28.49
-31.54
-35.31
-40.23
-46.38
-53.4
-60.37
-65.91
-68.51
-67.02
-61.07
-51.27
-39.02
-26.04
-13.85
-3.33
5.32
12.36
18.24
23.35
27.97
32.39
36.81
41.43
46.29
51.18
55.62
59.1
61.22
61.94
61.63
61.01
60.85
61.74
63.91
67.24
71.33
75.67
79.6
82.39
83.19
81.32
76.47
68.94
59.66
49.83
40.51
32.17
24.69
17.62
10.49
3.15
-4.25
-11.45
-18.25
-24.58
-30.38
-35.48
-39.58
-42.46
-44.14
-45.06
-46.08
-48.29
-52.67
-59.65
-68.81
-78.7
-87.09
-91.56
-90.27
-82.68
-69.74
-53.59
-36.78
-21.45
-8.71
1.38
9.57
16.85
24.07
31.62
39.37
46.76
52.96
57.22
59.14
58.74
56.49
53.08
49.18
45.28
41.71
38.66
36.22
34.29
32.56
30.47
27.46
23.13
17.52
11.06
4.47
-1.52
-6.42
-9.98
-12.26
-13.44
-13.81
-13.69
-13.39
-13.09
-12.78
-12.28
-11.28
-9.52
-6.94
-3.8
-0.73
1.42
1.7
-0.7
-6.12
-14.23
-23.83
-33.07
-39.83
-42.47
-40.36
-34.18
-25.64
-16.85
-9.55
-4.57
-1.7
-0.0
1.67
4.26
8.29
13.8
20.48
27.81
35.08
41.5
46.35
49.11
49.71
48.51
46.28
43.91
42.09
41.08
40.68
40.33
39.42
37.45
34.22
29.75
24.27
18.09
11.64
5.43
0.03
-4.03
-6.43
-7.09
-6.26
-4.49
-2.41
-0.69
0.15
-0.21
-1.76
-4.29
-7.33
-10.36
-12.92
-14.72
-15.82
-16.62
-17.94
-20.71
-25.64
-32.81
-41.3
-49.41
-55.14
-56.99
-54.55
-48.72
-41.21
-33.87
-27.96
-23.89
-21.35
-19.69
-18.26
-16.57
-14.29
-11.2
-7.18
-2.32
2.96
8.05
12.24
14.97
15.97
15.27
13.18
10.16
6.74
3.44
0.71
-1.22
-2.23
-2.4
-1.87
-0.81
0.67
2.43
4.35
6.26
7.96
9.24
9.96
10.07
9.69
9.08
8.52
8.3
8.61
9.47
10.79
12.41
14.07
15.53
16.64
17.36
17.88
18.56
19.76
21.43
22.97
23.19
20.81
15.11
6.46
-3.71
-13.46
-21.17
-26.19
-29.02
-30.76
-32.42
-34.32
-36.01
-36.62
-35.43
-32.29
-27.62
-22.22
-16.82
-11.85
-7.37
-3.2
0.84
4.75
8.28
11.01
12.58
12.78
11.73
9.69
7.02
3.97
0.55
-3.44
-8.21
-13.82
-20.0
-26.14
-31.51
-35.46
-37.68
-38.3
-37.79
-36.74
-35.68
-34.95
-34.71
-35.02
-35.83
-37.05
-38.51
-39.98
-41.31
-42.46
-43.7
-45.35
-47.62
-50.27
-52.47
-53.05
-50.91
-45.49
-37.11
-26.87
-16.19
-6.35
1.93
8.57
13.93
18.44
22.34
25.64
28.17
29.74
30.24
29.69
28.16
25.81
22.83
19.4
15.78
12.16
8.76
5.81
3.54
2.27
2.26
3.67
6.3
9.61
12.82
15.2
16.45
16.85
17.17
18.25
20.6
24.0
27.55
30.02
30.49
28.8
25.66
22.34
20.03
19.25
19.66
20.21
19.69
17.11
11.95
4.08
-6.37
-19.01
-33.03
-47.06
-59.22
-67.62
-70.99
-69.22
-63.51
-55.84
-48.25
-42.05
-37.44
-33.65
-29.42
-23.64
-15.79
-6.05
4.82
15.84
26.08
34.88
41.84
46.77
49.57
50.22
48.83
45.73
41.53
37.0
32.88
29.66
27.44
25.93
24.62
22.99
20.76
17.95
14.9
12.14
10.14
9.16
9.08
9.42
9.42
8.29
5.41
0.57
-5.98
-13.61
-21.46
-28.72
-34.82
-39.59
-43.34
-46.75
-50.63
-55.61
-61.82
-68.67
-74.94
-79.04
-79.52
-75.54
-67.23
-55.61
-42.34
-29.17
-17.51
-8.09
-1.03
4.01
7.54
10.07
12.03
13.73
15.44
17.28
19.27
21.25
22.91
24.01
24.38
24.17
23.72
23.45
23.7
24.56
25.86
27.19
28.08
28.12
27.17
25.32
22.88
20.2
17.5
14.8
11.94
8.71
4.98
0.82
-3.53
-7.8
-11.73
-15.25
-18.43
-21.48
-24.71
-28.49
-33.14
-38.84
-45.41
-52.24
-58.24
-62.1
-62.66
-59.28
-52.1
-42.03
-30.41
-18.66
-7.87
1.41
9.13
15.61
21.25
26.36
31.06
35.28
38.88
41.72
43.73
44.98
45.54
45.54
45.12
44.42
43.63
43.01
42.82
43.18
44.04
45.1
45.86
45.84
44.69
42.39
39.22
35.64
32.07
28.78
25.75
22.79
19.7
16.42
13.08
9.91
7.11
4.72
2.61
0.44
-2.17
-5.63
-10.26
-16.15
-23.06
-30.33
-36.9
-41.55
-43.25
-41.54
-36.57
-29.1
-20.1
-10.52
-1.07
7.76
15.62
22.26
27.54
31.47
34.27
36.25
37.72
38.81
39.53
39.79
39.51
38.75
37.72
36.7
35.96
35.71
35.98
36.65
37.49
38.17
38.41
38.01
36.93
35.24
33.1
30.67
28.06
25.35
22.54
19.61
16.48
13.06
9.29
5.2
0.94
-3.24
-7.1
-10.51
-13.6
-16.75
-20.5
-25.24
-31.03
-37.36
-43.18
-47.25
-48.43
-46.12
-40.44
-32.16
-22.43
-12.45
-3.17
4.89
11.56
16.95
21.32
24.96
28.17
31.12
33.9
36.37
38.28
39.33
39.32
38.31
36.59
34.62
32.85
31.56
30.82
30.51
30.4
30.29
29.98
29.37
28.36
26.89
24.94
22.51
19.69
16.61
13.42
10.27
7.29
4.46
1.71
-1.18
-4.5
-8.51
-13.41
-19.24
-25.81
-32.63
-38.85
-43.34
-44.91
-42.74
-36.79
-28.12
-18.68
-10.73
-6.01
-5.05
-7.0
-10.07
-12.29
-12.21
-9.26
-3.57
4.37
14.06
25.08
36.96
49.06
60.55
70.58
78.62
84.5
88.42
90.66
91.42
90.72
88.48
84.72
79.64
73.61
67.05
60.28
53.46
46.55
39.4
31.91
24.05
16.04
8.27
1.3
-4.37
-8.44
-10.98
-12.45
-13.54
-14.91
-16.99
-19.88
-23.42
-27.33
-31.39
-35.46
-39.5
-43.51
-47.61
-51.92
-56.62
-61.67
-66.76
-71.18
-73.97
-74.19
-71.34
-65.54
-57.58
-48.62
-39.82
-32.03
-25.63
-20.59
-16.6
-13.32
-10.48
-7.9
-5.51
-3.3
-1.27
0.6
2.33
3.94
5.51
7.07
8.69
10.34
11.99
13.57
15.03
16.31
17.34
18.03
18.25
17.91
17.04
15.85
14.66
13.76
13.27
13.06
12.84
12.25
11.04
9.08
6.4
3.07
-0.81
-5.13
-9.74
-14.57
-19.57
-24.83
-30.55
-36.89
-43.79
-50.8
-57.09
-61.64
-63.61
-62.63
-58.97
-53.43
-47.03
-40.64
-34.77
-29.5
-24.69
-20.17
-15.84
-11.78
-8.06
-4.7
-1.59
1.41
4.36
7.26
9.99
12.44
14.57
16.41
18.03
19.56
21.15
23.0
25.39
28.53
32.54
37.31
42.5
47.67
52.33
56.15
58.94
60.68
61.33
60.81
58.94
55.51
50.42
43.8
36.07
27.89
19.95
12.78
6.61
1.31
-3.48
-8.28
-13.6
-19.82
-27.05
-34.96
-42.72
-49.1
-52.81
-52.95
-49.4
-42.96
-35.17
-27.8
-22.34
-19.59
-19.53
-21.47
-24.31
-26.93
-28.45
-28.43
-26.91
-24.27
-21.05
-17.75
-14.71
-12.15
-10.16
-8.82
-8.13
-7.93
-7.96
-7.86
-7.37
-6.5
-5.54
-4.95
-5.16
-6.3
-8.14
-10.17
-11.79
-12.56
-12.37
-11.46
-10.29
-9.36
-9.07
-9.56
-10.71
-12.24
-13.86
-15.37
-16.72
-18.04
-19.53
-21.45
-24.06
-27.56
-31.97
-36.99
-41.89
-45.63
-47.08
-45.41
-40.46
-32.81
-23.58
-14.09
-5.35
2.08
8.13
13.02
17.13
20.76
24.12
27.3
30.22
32.67
34.4
35.25
35.21
34.5
33.44
32.35
31.43
30.75
30.32
30.14
30.18
30.38
30.58
30.56
30.13
29.26
28.03
26.65
25.35
24.23
23.25
22.21
20.85
18.96
16.46
13.44
10.13
6.78
3.6
0.65
-2.23
-5.33
-9.06
-13.74
-19.48
-25.92
-32.22
-37.17
-39.53
-38.46
-33.9
-26.68
-18.23
-10.12
-3.52
1.09
3.81
5.17
5.69
5.78
5.69
5.57
5.57
5.81
6.36
7.12
7.93
8.57
8.89
8.84
8.51
8.07
7.7
7.55
7.65
7.95
8.25
8.32
7.98
7.15
5.99
4.8
4.01
3.94
4.61
5.73
6.75
7.07
6.33
4.56
2.17
-0.21
-2.04
-3.06
-3.47
-3.83
-4.87
-7.22
-11.28
-17.11
-24.33
-32.15
-39.49
-45.08
-47.76
-46.81
-42.11
-34.24
-24.34
-13.75
-3.7
5.03
12.27
18.37
23.98
29.86
36.51
44.16
52.72
61.79
70.74
78.61
84.11
85.84
82.64
74.11
60.86
44.43
26.8
9.59
-6.4
-21.25
-35.54
-49.69
-63.48
-76.0
-86.02
-92.53
-95.16
-94.26
-90.72
-85.59
-79.77
-73.88
-68.31
-63.25
-58.86
-55.22
-52.37
-50.25
-48.76
-47.78
-47.24
-47.19
-47.75
-49.03
-50.94
-53.04
-54.58
-54.61
-52.28
-47.21
-39.7
-30.68
-21.42
-13.14
-6.6
-1.96
1.1
3.17
4.8
6.36
8.01
9.7
11.26
12.42
12.95
12.67
11.61
9.97
8.13
6.47
5.36
5.01
5.45
6.53
7.98
9.36
10.27
10.4
9.73
8.45
6.97
5.64
4.6
3.7
2.58
0.87
-1.58
-4.68
-8.1
-11.45
-14.47
-17.1
-19.54
-22.11
-25.2
-29.2
-34.36
-40.7
-47.81
-54.84
-60.53
-63.52
-62.77
-57.89
-49.4
-38.55
-26.92
-15.98
-6.61
0.96
7.07
12.35
17.31
22.2
26.94
31.29
34.97
37.86
40.02
41.67
43.09
44.49
45.97
47.46
48.79
49.77
50.28
50.26
49.72
48.61
46.86
44.39
41.12
37.12
32.63
27.99
23.58
19.62
16.14
12.96
9.78
6.31
2.45
-1.72
-5.91
-9.78
-13.03
-15.57
-17.54
-19.28
-21.2
-23.72
-27.13
-31.48
-36.53
-41.63
-45.77
-47.76
-46.58
-41.7
-33.35
-22.55
-10.67
0.91
11.27
20.14
27.75
34.58
40.99
47.09
52.68
57.42
60.97
63.08
63.65
62.69
60.37
56.96
52.85
48.41
44.03
39.95
36.31
33.16
30.47
28.15
26.11
24.15
22.08
19.74
17.07
14.19
11.38
8.9
6.95
5.48
4.28
3.01
1.35
-0.84
-3.5
-6.41
-9.31
-12.02
-14.5
-16.84
-19.29
-22.11
-25.63
-30.12
-35.8
-42.71
-50.49
-58.32
-64.92
-68.86
-68.99
-64.9
-57.15
-47.02
-36.17
-25.99
-17.23
-9.97
-3.82
1.74
7.12
12.44
17.68
22.74
27.53
31.94
35.79
38.87
40.95
41.94
41.94
41.22
40.2
39.27
38.71
38.62
38.83
39.0
38.65
37.35
34.88
31.39
27.32
23.27
19.76
16.97
14.71
12.51
9.89
6.56
2.53
-1.91
-6.37
-10.48
-14.1
-17.28
-20.34
-23.75
-28.01
-33.51
-40.25
-47.72
-54.9
-60.39
-62.85
-61.4
-55.93
-47.17
-36.48
-25.38
-15.16
-6.53
0.4
5.97
10.66
14.88
18.81
22.41
25.54
28.08
29.94
31.16
31.81
32.0
31.83
31.43
30.94
30.51
30.28
30.3
30.48
30.61
30.38
29.54
27.98
25.75
23.08
20.22
17.44
14.89
12.61
10.53
8.47
6.21
3.53
0.29
-3.48
-7.59
-11.69
-15.45
-18.67
-21.34
-23.72
-26.23
-29.34
-33.43
-38.66
-44.89
-51.57
-57.81
-62.44
-64.3
-62.58
-57.07
-48.3
-37.39
-25.67
-14.34
-4.15
4.67
12.24
18.79
24.5
29.35
33.26
36.12
37.93
38.74
38.66
37.79
36.22
34.03
31.4
28.59
25.89
23.59
21.83
20.59
19.67
18.8
17.75
16.39
14.76
12.99
11.29
9.84
8.83
8.36
8.49
9.16
10.2
11.31
12.19
12.6
12.46
11.86
11.04
10.18
9.36
8.48
7.3
5.56
3.05
-0.3
-4.4
-8.93
-13.34
-16.87
-18.68
-18.06
-14.73
-8.97
-1.64
6.06
12.95
18.2
21.57
23.4
24.39
25.29
26.71
28.84
31.55
34.42
37.02
38.99
40.25
40.88
41.13
41.3
41.7
42.66
44.49
47.28
50.81
54.35
56.8
57.0
54.18
48.29
40.08
30.8
21.8
14.08
8.08
3.72
0.62
-1.73
-3.8
-5.99
-8.71
-12.33
-17.11
-23.1
-30.1
-37.75
-45.64
-53.5
-61.14
-68.33
-74.47
-78.53
-79.21
-75.35
-66.54
-53.45
-37.75
-21.55
-6.73
5.55
15.02
21.94
26.74
29.73
31.03
30.8
29.35
27.19
24.83
22.65
20.7
18.82
16.72
14.22
11.34
8.32
5.53
3.33
1.93
1.33
1.29
1.4
1.21
0.4
-1.11
-3.13
-5.32
-7.31
-8.89
-10.1
-11.14
-12.25
-13.53
-14.9
-16.13
-16.96
-17.27
-17.15
-16.84
-16.63
-16.76
-17.39
-18.58
-20.39
-22.83
-25.82
-29.04
-31.96
-33.89
-34.37
-33.38
-31.47
-29.6
-28.65
-29.0
-30.25
-31.46
-31.54
-29.83
-26.32
-21.59
-16.36
-11.23
-6.44
-1.99
2.17
5.97
9.21
11.72
13.45
14.6
15.49
16.49
17.81
19.49
21.41
23.34
25.05
26.35
27.06
27.12
26.53
25.4
23.94
22.37
20.87
19.56
18.42
17.39
16.35
15.19
13.86
12.37
10.87
9.57
8.72
8.42
8.6
8.9
8.72
7.32
4.1
-1.23
-8.45
-16.74
-24.77
-31.02
-34.26
-34.0
-30.73
-25.76
-20.8
-17.3
-15.95
-16.52
-18.12
-19.63
-20.18
-19.38
-17.31
-14.4
-11.17
-8.13
-5.67
-4.07
-3.5
-3.98
-5.46
-7.74
-10.49
-13.34
-15.87
-17.78
-18.99
-19.66
-20.15
-20.87
-22.05
-23.56
-25.01
-25.85
-25.66
-24.39
-22.31
-20.02
-18.13
-17.07
-16.97
-17.64
-18.68
-19.72
-20.53
-21.16
-21.93
-23.28
-25.69
-29.42
-34.46
-40.34
-46.23
-50.96
-53.35
-52.5
-48.18
-40.94
-31.99
-22.87
-14.88
-8.7
-4.34
-1.28
1.17
3.51
5.99
8.59
11.21
13.75
16.1
18.11
19.63
20.48
20.63
20.23
19.55
18.94
18.64
18.83
19.51
20.58
21.79
22.86
23.44
23.29
22.35
20.78
18.91
17.02
15.3
13.6
11.7
9.3
6.27
2.74
-1.01
-4.67
-8.04
-11.15
-14.21
-17.51
-21.32
-25.89
-31.36
-37.7
-44.64
-51.52
-57.31
-60.78
-60.87
-57.11
-49.82
-40.11
-29.41
-19.09
-9.96
-2.28
4.13
9.61
14.47
18.91
23.08
27.1
31.02
34.74
38.03
40.57
42.11
42.6
42.27
41.53
40.85
40.53
40.65
41.06
41.42
41.41
40.74
39.31
37.18
34.52
31.61
28.72
25.98
23.36
20.7
17.75
14.34
10.47
6.35
2.32
-1.3
-4.4
-7.15
-9.95
-13.22
-17.19
-21.76
-26.53
-30.95
-34.56
-37.21
-39.15
-41.02
-43.61
-47.5
-52.75
-58.62
-63.71
-66.27
-64.79
-58.59
-48.08
-34.74
-20.75
-8.37
0.64
5.56
6.94
6.48
6.51
9.2
15.85
26.38
39.47
53.01
64.96
73.96
79.6
82.21
82.51
81.18
78.78
75.79
72.76
70.28
68.8
68.49
69.11
70.18
71.21
71.95
72.46
72.87
73.07
72.52
70.37
65.84
58.68
49.31
38.66
27.69
17.02
6.74
-3.38
-13.52
-23.5
-32.83
-40.88
-47.32
-52.32
-56.54
-60.84
-65.98
-72.32
-79.76
-87.82
-95.66
-102.21
-106.28
-106.74
-102.85
-94.5
-82.43
-68.05
-53.15
-39.36
-27.73
-18.63
-11.76
-6.49
-2.12
1.87
5.74
9.5
13.03
16.08
18.44
19.93
20.46
20.05
18.87
17.25
15.61
14.36
13.76
13.77
14.07
14.15
13.51
11.86
9.2
5.82
2.16
-1.34
-4.36
-6.73
-8.49
-9.8
-10.92
-12.16
-13.82
-16.04
-18.8
-21.88
-24.97
-27.74
-30.06
-32.0
-33.9
-36.16
-39.17
-43.09
-47.72
-52.47
-56.4
-58.44
-57.68
-53.71
-46.73
-37.59
-27.52
-17.69
-8.93
-1.53
4.66
10.08
15.12
20.05
24.91
29.65
34.09
38.06
41.34
43.77
45.22
45.72
45.41
44.59
43.59
42.71
42.11
41.78
41.55
41.2
40.53
39.44
37.94
36.16
34.18
32.01
29.56
26.7
23.41
19.8
16.12
12.68
9.69
7.17
4.91
2.57
-0.12
-3.28
-6.76
-10.31
-13.61
-16.51
-19.07
-21.55
-24.25
-27.45
-31.29
-35.75
-40.65
-45.57
-49.88
-52.71
-53.12
-50.4
-44.37
-35.54
-25.04
-14.23
-4.29
4.19
11.22
17.27
22.91
28.53
34.25
39.97
45.49
50.67
55.36
59.43
62.67
64.85
65.75
65.3
63.6
60.9
57.56
53.91
50.19
46.56
43.02
39.49
35.75
31.59
26.86
21.57
15.96
10.45
5.53
1.56
-1.27
-2.99
-3.8
-3.99
-3.84
-3.63
-3.51
-3.6
-3.93
-4.55
-5.61
-7.34
-10.0
-13.85
-19.03
-25.57
-33.3
-41.91
-50.78
-58.98
-65.34
-68.69
-68.22
-63.85
-56.23
-46.69
-36.68
-27.4
-19.44
-12.79
-7.04
-1.73
3.44
8.46
13.16
17.33
20.81
23.58
25.67
27.05
27.68
27.55
26.73
25.48
24.2
23.2
22.66
22.43
22.12
21.27
19.56
16.91
13.56
9.92
6.4
3.29
0.65
-1.63
-3.81
-6.19
-8.96
-12.22
-15.84
-19.63
-23.32
-26.67
-29.62
-32.26
-34.91
-38.0
-41.96
-46.94
-52.65
-58.21
-62.34
-63.72
-61.48
-55.58
-46.87
-36.79
-26.85
-18.17
-11.18
-5.73
-1.35
2.47
