19.32
16.67
14.23
12.2
10.58
9.22
7.82
6.08
3.75
0.79
-2.65
-6.23
-9.57
-12.39
-14.63
-16.49
-18.34
-20.68
-23.95
-28.43
-34.04
-40.3
-46.28
-50.8
-52.71
-51.3
-46.51
-39.04
-29.99
-20.56
-11.59
-3.44
3.99
10.98
17.73
24.18
30.01
34.81
38.23
40.15
40.67
40.12
38.9
37.42
36.07
35.17
34.96
35.58
37.03
39.1
41.44
43.56
44.98
45.27
44.2
41.75
38.09
33.6
28.71
23.87
19.43
15.61
12.49
10.02
8.11
6.53
4.99
3.12
0.59
-2.78
-6.9
-11.33
-15.47
-18.75
-20.89
-22.07
-22.9
-24.18
-26.64
-30.68
-36.24
-42.83
-49.64
-55.7
-60.04
-61.83
-60.6
-56.32
-49.51
-41.07
-32.12
-23.63
-16.18
-9.88
-4.43
0.62
5.69
10.94
16.23
21.21
25.42
28.44
30.04
30.25
29.35
27.83
26.21
24.93
24.21
24.05
24.23
24.46
24.47
24.1
23.28
22.03
20.42
18.53
16.48
14.43
12.56
11.01
9.78
8.74
7.61
6.05
3.81
0.88
-2.54
-6.06
-9.27
-11.9
-13.83
-15.22
-16.37
-17.68
-19.57
-22.39
-26.32
-31.21
-36.48
-41.15
-44.06
-44.29
-41.47
-35.99
-28.83
-21.23
-14.18
-8.14
-3.1
1.31
5.41
9.35
13.07
16.4
19.16
21.25
22.69
23.52
23.86
23.86
23.73
23.68
23.87
24.37
25.13
26.04
26.94
27.69
28.1
28.07
27.48
26.3
24.59
22.5
20.25
18.08
16.15
14.52
13.12
11.86
10.62
9.31
7.89
6.3
4.5
2.43
0.1
-2.41
-4.94
-7.29
-9.33
-11.12
-12.85
-14.87
-17.52
-21.0
-25.23
-29.8
-33.96
-36.76
-37.29
-34.96
-29.73
-22.21
-13.49
-4.83
2.65
8.18
11.54
12.96
13.01
12.48
12.25
13.04
15.28
19.0
23.74
28.8
33.4
37.01
39.44
40.79
41.32
41.25
40.73
39.86
38.73
37.53
36.54
36.02
36.2
37.2
39.04
41.59
44.59
47.66
50.33
52.23
53.18
53.24
52.68
51.81
50.83
49.64
47.85
44.91
40.32
33.83
25.57
16.02
5.88
-4.12
-13.44
-21.78
-29.12
-35.61
-41.56
-47.33
-53.28
-59.62
-66.24
-72.59
-77.65
-80.18
-79.17
-74.18
-65.66
-54.78
-43.15
-32.26
-23.04
-15.65
-9.5
-3.56
3.31
11.97
22.7
35.08
48.0
59.85
68.9
73.8
73.97
69.76
62.36
53.38
44.33
36.22
29.42
23.75
18.67
13.61
8.07
1.72
-5.58
-13.67
-22.23
-30.79
-38.87
-46.12
-52.37
-57.6
-61.85
-65.11
-67.31
-68.37
-68.23
-66.92
-64.52
-61.26
-57.43
-53.45
-49.67
-46.35
-43.55
-41.19
-39.15
-37.46
-36.3
-35.94
-36.63
-38.36
-40.87
-43.62
-45.93
-47.03
-46.24
-43.15
-37.73
-30.44
-22.15
-13.83
-6.21
0.45
6.42
12.27
18.52
25.33
32.4
39.09
44.64
48.43
50.2
50.12
48.69
46.6
44.5
42.84
41.82
41.36
41.31
41.52
41.97
42.68
43.65
44.73
45.55
45.58
44.29
41.31
36.63
30.6
23.81
16.87
10.17
3.77
-2.57
-9.12
-16.0
-23.05
-29.85
-35.92
-40.9
-44.68
-47.44
-49.56
-51.52
-53.8
-56.79
-60.69
-65.37
-70.33
-74.73
-77.47
-77.62
-74.61
-68.54
-60.21
-50.85
-41.77
-33.96
-27.83
-23.21
-19.54
-16.21
-12.8
-9.22
-5.65
-2.36
0.41
2.58
4.16
5.23
5.81
5.95
5.66
5.07
4.34
3.68
3.21
2.94
2.67
2.11
1.01
-0.75
-3.06
-5.61
-8.1
-10.29
-12.16
-13.82
-15.49
-17.29
-19.26
-21.29
-23.26
-25.08
-26.71
-28.18
-29.52
-30.69
-31.57
-31.97
-31.72
-30.7
-28.96
-26.74
-24.4
-22.33
-20.94
-20.55
-21.37
-23.43
-26.47
-29.86
-32.62
-33.7
-32.32
-28.3
-22.22
-15.12
-8.15
-2.03
3.04
7.38
11.44
15.56
19.78
23.95
27.89
31.47
34.67
37.42
39.64
41.14
41.78
41.55
40.64
39.38
38.11
37.04
36.25
35.62
34.93
33.96
32.62
30.94
29.05
27.14
25.35
23.79
22.44
21.18
19.78
18.06
15.86
13.23
10.32
7.4
4.71
2.32
0.13
-2.09
-4.57
-7.44
-10.66
-14.04
-17.34
-20.38
-23.09
-25.61
-28.25
-31.41
-35.4
-40.3
-45.78
-51.06
-55.08
-56.77
-55.41
-50.91
-43.89
-35.42
-26.75
-18.81
-12.09
-6.5
-1.67
2.89
7.5
12.26
17.08
21.77
26.1
29.88
32.98
35.34
37.0
38.1
38.95
39.94
41.5
44.02
47.67
52.4
57.95
63.94
69.87
75.16
79.12
80.96
80.07
76.15
69.49
60.92
51.55
42.41
34.14
26.91
20.62
15.09
10.34
6.44
3.42
1.05
-1.18
-3.87
-7.47
-12.15
-17.78
-24.06
-30.61
-37.01
-42.65
-46.74
-48.4
-46.95
-42.19
-34.55
-25.0
-14.8
-5.01
3.6
10.65
16.05
19.81
22.04
22.91
22.69
21.65
20.03
17.91
15.35
12.44
9.42
6.66
4.56
3.43
3.33
4.08
5.31
6.59
7.56
8.05
8.07
7.86
7.72
7.96
8.65
9.65
10.64
11.27
11.39
11.13
10.81
10.74
11.08
11.7
12.34
12.64
12.26
10.85
8.14
3.95
-1.61
-8.07
-14.64
-20.51
-25.19
-28.74
-31.69
-34.75
-38.36
-42.47
-46.48
-49.52
-50.79
-49.83
-46.64
-41.65
-35.52
-29.0
-22.7
-17.01
-12.08
-7.77
-3.82
0.09
4.19
8.56
13.11
17.61
21.66
24.85
26.83
27.41
26.6
24.62
21.88
18.85
16.01
13.72
12.17
11.3
10.92
10.66
10.22
9.4
8.19
6.78
5.39
4.28
3.5
2.97
2.48
1.81
0.84
-0.4
-1.75
-2.98
-4.0
-4.87
-5.82
-7.13
-8.95
-11.23
-13.74
-16.2
-18.44
-20.48
-22.47
-24.66
-27.26
-30.36
-33.96
-37.89
-41.79
-45.1
-47.13
-47.22
-45.07
-40.82
-35.09
-28.8
-22.72
-17.32
-12.55
-8.09
-3.55
1.25
6.2
10.98
15.21
18.61
21.1
22.77
23.84
24.59
25.23
25.88
26.49
26.92
27.02
26.76
26.3
25.92
25.86
26.19
26.72
27.04
26.75
25.59
23.62
21.17
18.67
16.46
14.61
12.98
11.28
9.27
6.88
4.27
1.74
-0.41
-1.94
-2.81
-3.12
-3.2
-3.49
-4.54
-6.81
-10.54
-15.46
-20.77
-25.29
-27.8
-27.47
-24.24
-18.77
-12.19
-5.63
0.14
4.9
8.85
12.36
15.66
18.75
21.5
23.68
25.22
26.13
26.48
26.31
25.63
24.48
23.0
21.45
20.14
19.27
18.86
18.69
18.41
17.69
16.32
14.27
11.64
8.61
5.39
2.12
-1.05
-4.04
-6.76
-9.16
-11.2
-12.82
-14.02
-14.83
-15.35
-15.78
-16.28
-16.99
-17.95
-19.12
-20.4
-21.74
-23.1
-24.52
-26.11
-28.03
-30.45
-33.52
-37.26
-41.49
-45.78
-49.49
-51.87
-52.29
-50.39
-46.26
-40.41
-33.64
-26.76
-20.39
-14.81
-9.89
-5.35
-0.82
3.94
8.97
14.12
19.15
23.75
27.59
30.44
32.18
32.9
32.85
32.46
32.15
32.26
32.94
34.15
35.7
37.36
38.89
40.08
40.74
40.73
40.03
38.73
37.0
35.01
32.84
30.43
27.69
24.53
21.04
17.46
14.04
10.97
8.18
5.54
2.83
0.0
-2.86
-5.6
-8.09
-10.33
-12.51
-14.87
-17.63
-20.85
-24.32
-27.67
-30.41
-32.16
-32.74
-32.24
-30.92
-29.12
-27.12
-25.1
-23.08
-21.06
-18.97
-16.7
-14.14
-11.2
-7.91
-4.48
-1.22
1.53
3.58
4.92
5.73
6.25
6.59
6.78
6.73
6.38
5.81
5.17
4.7
4.51
4.61
4.86
5.08
5.12
4.91
4.53
4.07
3.65
3.32
3.11
2.98
2.85
2.64
2.21
1.56
0.7
-0.17
-0.86
-1.2
-1.2
-1.05
-1.09
-1.68
-3.13
-5.59
-8.96
-12.88
-16.7
-19.56
-20.66
-19.54
-16.44
-12.3
-8.41
-5.86
-5.1
-5.7
-6.7
-7.12
-6.44
-4.84
-2.98
-1.6
-1.14
-1.59
-2.55
-3.5
-3.97
-3.72
-2.74
-1.2
0.61
2.39
3.82
4.73
5.08
5.07
5.1
5.68
7.33
10.38
14.83
20.36
26.39
32.22
37.21
40.89
42.99
43.51
42.62
40.56
37.59
33.83
29.26
23.82
17.49
10.39
2.82
-4.91
-12.64
-20.44
-28.62
-37.52
-47.19
-57.12
-66.25
-73.16
-76.65
-76.24
-72.45
-66.66
-60.61
-55.71
-52.56
-50.86
-49.72
-48.13
-45.34
-40.98
-34.98
-27.43
-18.52
-8.64
1.64
11.53
20.12
26.66
30.71
32.3
31.92
30.36
28.43
26.7
25.38
24.28
22.98
21.11
18.45
15.12
11.41
7.58
3.83
0.12
-3.69
-7.82
-12.41
-17.52
-23.08
-28.81
-34.33
-39.23
-43.24
-46.44
-49.28
-52.45
-56.61
-62.09
-68.75
-75.97
-82.88
-88.53
-92.04
-92.71
-90.12
-84.26
-75.57
-64.94
-53.48
-42.28
-32.06
-23.11
-15.28
-8.29
-1.83
4.23
9.89
15.05
19.65
23.71
27.33
30.8
34.45
38.68
43.77
49.89
56.92
64.49
72.01
78.77
84.05
87.28
88.17
86.74
83.35
78.57
72.99
67.17
61.41
55.84
50.42
45.09
39.88
34.95
30.56
26.9
23.92
21.27
18.32
14.36
8.87
1.57
-7.41
-17.69
-28.63
-39.36
-48.88
-56.2
-60.58
-61.85
-60.5
-57.51
-53.94
-50.51
-47.39
-44.31
-40.84
-36.7
-31.98
-27.05
-22.36
-18.29
-15.01
-12.48
-10.44
-8.41
-5.76
-1.87
3.72
11.04
19.56
28.36
36.35
42.59
46.5
47.89
46.84
43.65
38.73
32.66
26.18
20.07
15.05
11.58
9.7
9.05
8.97
8.67
7.48
4.99
1.08
-3.99
-9.8
-15.86
-21.84
-27.63
-33.38
-39.35
-45.71
-52.31
-58.64
-63.79
-66.73
-66.61
-63.01
-56.12
-46.68
-35.77
-24.56
-14.07
-5.02
2.18
7.61
11.77
15.56
19.94
25.55
32.31
39.43
45.68
50.01
52.05
52.3
51.94
52.4
54.91
60.14
68.12
78.07
88.49
97.27
102.25
101.82
95.58
84.49
70.63
56.33
43.37
32.43
23.2
14.83
6.56
-1.86
-10.16
-17.85
-24.53
-30.18
-35.03
-39.46
-43.78
-48.08
-52.17
-55.55
-57.41
-56.75
-52.6
-44.38
-32.24
-17.29
-1.36
13.39
25.15
32.95
36.82
37.58
36.4
34.37
32.15
30.01
27.88
25.6
22.98
19.88
16.21
12.03
7.53
3.1
-0.65
-3.04
-3.5
-1.78
1.9
6.79
11.87
16.11
18.76
19.6
18.85
17.05
14.67
12.04
9.2
6.03
2.46
-1.43
-5.32
-8.81
-11.57
-13.5
-14.75
-15.69
-16.79
-18.46
-20.97
-24.33
-28.18
-31.87
-34.55
-35.49
-34.35
-31.38
-27.43
-23.63
-20.99
-20.11
-20.9
-22.76
-24.76
-25.97
-25.64
-23.25
-18.59
-11.75
-3.15
6.52
16.36
25.54
33.47
40.0
45.38
50.14
54.75
59.34
63.49
66.21
66.31
62.84
55.64
45.54
34.27
23.9
16.15
11.86
10.79
11.93
14.05
16.16
17.8
18.92
19.59
19.77
19.15
17.33
13.96
8.97
2.63
-4.48
-11.54
-17.66
-22.01
-24.04
-23.62
-21.15
-17.48
-13.58
-10.25
-7.81
-6.12
-4.77
-3.36
-1.74
-0.01
1.57
2.82
3.73
4.43
5.18
6.2
7.59
9.35
11.27
12.95
13.9
13.63
11.97
9.18
5.97
3.26
1.84
2.11
3.95
6.94
10.5
14.07
17.09
18.95
18.98
16.6
11.54
4.02
-5.34
-15.71
-26.37
-36.96
-47.43
-57.85
-68.06
-77.42
-84.88
-89.16
-89.22
-84.61
-75.7
-63.55
-49.64
-35.45
-22.05
-10.02
0.54
9.8
17.99
25.24
31.49
36.53
40.06
41.82
41.72
39.91
36.78
32.91
28.92
25.29
22.37
20.28
18.98
18.28
17.91
17.6
17.14
16.39
15.26
13.7
11.63
9.0
5.84
2.37
-1.07
-4.03
-6.22
-7.59
-8.35
-8.86
-9.52
-10.64
-12.33
-14.56
-17.09
-19.5
-21.14
-21.29
-19.41
-15.3
-9.34
-2.36
4.59
10.64
15.4
19.05
22.19
25.52
29.5
34.15
38.92
42.83
44.77
43.81
39.5
32.1
22.35
11.31
-0.04
-10.99
-21.14
-30.2
-37.84
-43.56
-46.76
-46.99
-44.18
-38.74
-31.46
-23.26
-14.95
-7.07
0.1
6.41
11.69
15.6
17.77
17.9
16.04
12.55
8.05
3.15
-1.73
-6.43
-10.89
-14.91
-18.06
-19.72
-19.37
-16.89
-12.61
-7.2
-1.33
4.63
10.76
17.42
24.85
32.82
40.37
46.08
48.5
46.76
40.92
31.98
21.48
11.0
1.81
-5.29
-9.78
-11.36
-9.92
-5.77
0.22
6.68
12.08
15.26
15.77
14.0
10.9
7.55
4.75
2.88
1.93
1.63
1.67
1.83
2.06
2.44
3.07
3.86
4.42
4.02
1.82
-2.85
-10.24
-20.02
-31.44
-43.52
-55.18
-65.34
-72.84
-76.54
-75.57
-69.7
-59.66
-47.14
-34.27
-23.04
-14.58
-8.96
-5.41
-2.8
-0.21
2.84
6.38
10.2
14.08
17.82
21.28
24.26
26.51
27.77
27.93
27.01
25.2
22.81
20.12
17.37
14.71
12.24
9.98
7.92
6.03
4.25
2.58
0.97
-0.64
-2.36
-4.31
-6.56
-9.14
-11.9
-14.59
-16.91
-18.68
-19.87
-20.69
-21.49
-22.62
-24.43
-27.1
-30.7
-35.11
-40.0
-44.69
-48.32
-49.91
-48.75
-44.7
-38.27
-30.53
-22.7
-15.75
-10.11
-5.67
-2.02
1.2
4.19
6.87
9.08
10.72
11.83
12.55
12.98
13.14
12.95
12.31
11.26
9.99
8.86
8.24
8.41
9.47
11.31
13.66
16.13
18.34
19.91
20.54
20.05
18.42
15.79
12.45
8.72
4.91
1.25
-2.15
-5.26
-8.15
-10.9
-13.66
-16.54
-19.68
-23.2
-27.15
-31.44
-35.71
-39.31
-41.36
-41.03
-37.82
-31.8
-23.68
-14.57
-5.6
2.43
9.27
15.09
20.24
24.96
29.24
32.85
35.53
37.22
38.09
38.59
39.15
40.15
41.68
43.61
45.74
47.83
49.76
51.43
52.79
53.71
54.01
53.49
52.04
49.69
46.64
43.14
39.47
35.76
32.04
28.2
24.15
19.86
15.45
11.1
6.95
3.07
-0.61
-4.18
-7.69
-11.11
-14.39
-17.51
-20.64
-23.99
-27.7
-31.55
-34.94
-37.02
-37.06
-34.73
-30.3
-24.55
-18.38
-12.51
-7.28
-2.69
1.46
5.33
9.02
12.56
16.04
19.59
23.35
27.39
31.63
35.92
40.02
43.72
46.83
49.13
50.42
50.55
49.55
47.73
45.7
44.26
44.07
45.44
48.21
51.8
55.5
58.74
61.14
62.49
62.6
61.24
58.16
53.24
46.65
38.84
30.44
21.99
13.93
6.42
-0.44
-6.65
-12.2
-17.15
-21.66
-26.04
-30.68
-35.93
-41.94
-48.46
-54.75
-59.61
-61.74
-60.17
-54.68
-46.02
-35.61
-25.18
-16.16
-9.31
-4.78
-2.25
-1.27
-1.51
-2.74
-4.76
-7.28
-9.88
-12.2
-14.01
-15.36
-16.47
-17.66
-19.07
-20.59
-21.87
-22.45
-21.97
-20.37
-17.95
-15.27
-12.93
-11.31
-10.5
-10.31
-10.5
-10.98
-11.93
-13.77
-16.94
-21.7
-28.0
-35.48
-43.61
-51.85
-59.92
-67.72
-75.43
-83.37
-91.85
-101.03
-110.75
-120.37
-128.73
-134.3
-135.64
-131.78
-122.76
-109.62
-94.15
-78.25
-63.42
-50.42
-39.37
-30.05
-22.26
-15.98
-11.31
-8.26
-6.62
-6.0
-5.95
-6.1
-6.28
-6.4
-6.39
-6.08
-5.2
-3.5
-0.84
2.68
6.77
10.92
14.68
17.68
19.83
21.26
22.25
23.11
24.03
25.17
26.59
28.39
30.58
33.07
35.58
37.69
38.99
39.24
38.49
37.04
35.3
33.51
31.71
29.64
26.89
23.14
18.26
12.57
6.77
1.84
-1.24
-1.85
0.05
3.89
8.71
13.51
17.6
20.72
22.95
24.62
26.03
27.48
29.09
30.88
32.72
34.35
35.46
35.77
35.19
33.78
31.81
29.59
27.44
25.63
24.35
23.7
23.64
23.95
24.23
24.05
23.03
21.1
18.45
15.51
12.73
10.44
8.69
7.27
5.87
4.2
2.14
-0.19
-2.51
-4.43
-5.68
-6.18
-6.16
-6.07
-6.6
-8.42
-12.04
-17.7
-25.15
-33.68
-42.04
-48.79
-52.48
-52.27
-48.12
-40.88
-32.01
-23.05
-15.04
-8.3
-2.42
3.36
9.67
16.76
24.37
31.95
38.94
45.0
49.99
53.89
56.56
57.53
56.23
52.19
45.39
36.51
26.75
17.43
9.66
3.97
0.44
-1.12
-0.97
0.65
3.43
6.81
10.08
12.49
13.54
13.09
11.2
7.86
2.89
-4.0
-12.87
-23.24
-34.06
-44.05
-52.1
-57.74
-61.19
-63.09
-64.08
-64.55
-64.62
-64.35
-63.81
-63.11
-62.14
-60.53
-57.74
-53.42
-47.77
-41.53
-35.65
-30.82
-27.11
-23.92
-20.36
-15.7
-9.71
-2.68
4.76
11.85
17.88
22.26
24.69
25.13
23.96
21.75
19.13
16.5
13.98
11.51
8.98
6.5
4.31
2.68
1.72
1.31
1.15
0.87
0.26
-0.65
-1.6
-2.2
-2.13
-1.24
0.24
1.78
2.69
2.37
0.6
-2.41
-6.15
-10.01
-13.52
-16.53
-19.18
-21.82
-24.83
-28.41
-32.42
-36.29
-39.09
-39.82
-37.86
-33.32
-27.23
-21.15
-16.61
-14.47
-14.56
-15.89
-17.13
-17.32
-16.12
-13.79
-10.78
-7.27
-2.99
2.59
9.97
19.17
29.66
40.48
50.69
59.72
67.55
74.59
81.28
87.72
93.56
98.04
100.33
99.76
95.87
88.42
77.38
63.09
46.35
28.38
10.63
-5.73
-20.14
-32.77
-44.23
-55.14
-65.75
-75.87
-85.08
-92.99
-99.47
-104.53
-108.24
-110.5
-111.06
-109.72
-106.46
-101.68
-96.06
-90.38
-85.11
-80.17
-75.0
-68.74
-60.74
-50.8
-39.25
-26.73
-13.88
-1.12
11.27
23.07
33.88
43.18
50.5
55.58
58.6
59.97
60.27
59.92
59.17
58.07
56.59
54.78
52.71
50.48
48.11
45.52
42.53
38.98
34.79
30.07
25.13
20.4
16.28
13.1
10.99
9.78
9.09
8.36
6.95
4.23
-0.24
-6.63
-14.76
-23.97
-33.18
-41.0
-46.05
-47.28
-44.31
-37.49
-27.81
-16.65
-5.45
4.56
12.52
18.12
21.52
23.37
24.5
25.76
27.68
30.29
33.22
35.8
37.48
38.0
37.48
36.33
35.05
34.04
33.51
33.4
33.48
33.45
33.09
32.33
31.21
29.91
28.56
27.13
25.51
23.53
21.13
18.39
15.57
12.93
10.63
8.59
6.63
4.46
1.95
-0.91
-3.99
-7.08
-9.96
-12.49
-14.46
-15.69
-15.99
-15.29
-13.8
-12.04
-10.78
-10.8
-12.58
-16.01
-20.37
-24.56
-27.44
-28.22
-26.7
-23.22
-18.49
-13.33
-8.42
-4.22
-0.96
1.37
2.89
3.87
4.66
5.64
7.13
9.3
12.03
14.92
17.34
18.71
18.64
17.1
14.38
10.91
7.12
3.29
-0.37
-3.61
-6.06
-7.26
-6.89
-4.88
-1.53
2.64
7.13
11.6
15.96
20.22
24.32
28.0
30.82
32.23
31.64
28.6
22.96
15.02
5.69
-3.56
-11.0
-15.11
-15.09
-11.16
-4.5
3.18
10.09
14.99
17.36
17.38
15.64
12.78
9.24
5.18
0.68
-3.98
-8.1
-10.6
-10.24
-6.12
2.06
13.84
28.15
43.51
58.25
70.65
79.24
82.96
81.57
75.78
67.11
57.47
48.56
41.33
35.8
31.23
26.6
21.11
14.47
6.96
-0.79
-8.1
-14.48
-19.72
-23.87
-27.1
-29.59
-31.58
-33.37
-35.28
-37.62
-40.41
-43.27
-45.43
-45.98
-44.26
-40.18
-34.31
-27.68
-21.43
-16.44
-13.2
-11.7
-11.6
-12.35
-13.39
-14.3
-14.89
-15.24
-15.56
-16.05
-16.78
-17.6
-18.15
-18.01
-16.78
-14.26
-10.51
-5.86
-0.88
3.75
7.41
9.68
10.54
10.25
9.36
8.42
7.86
7.88
8.43
9.33
10.29
10.95
10.98
10.2
8.72
6.98
5.65
5.35
6.3
8.15
10.03
10.88
9.87
6.66
1.51
-4.9
-11.59
-17.54
-21.72
-23.3
-21.78
-17.23
-10.32
-2.25
5.65
12.31
17.18
20.32
22.25
23.62
24.97
26.57
28.42
30.35
32.07
33.35
34.03
34.04
33.37
32.09
30.26
28.0
25.46
22.89
20.59
18.83
17.74
17.23
16.99
16.57
15.58
13.86
11.51
8.86
6.3
4.05
2.12
0.34
-1.52
-3.57
-5.77
-8.02
-10.18
-12.22
-14.21
-16.28
-18.59
-21.18
-24.06
-27.15
-30.35
-33.55
-36.58
-39.18
-40.95
-41.44
-40.29
-37.41
-33.06
-27.81
-22.38
-17.32
-12.95
-9.3
-6.22
-3.58
-1.38
0.28
1.29
1.68
1.63
1.41
1.27
1.3
1.4
1.39
1.1
0.48
-0.34
-1.12
-1.61
-1.72
-1.5
-1.25
-1.29
-1.96
-3.39
-5.5
-8.01
-10.55
-12.81
-14.65
-16.15
-17.62
-19.39
-21.71
-24.61
-27.84
-30.92
-33.25
-34.13
-32.95
-29.3
-23.18
-15.11
-6.14
2.42
9.44
14.38
17.5
19.73
22.26
26.11
31.78
39.3
48.36
58.5
69.26
80.08
90.25
98.97
105.47
109.31
110.52
109.58
107.31
104.52
101.72
98.98
95.87
91.79
86.21
78.95
70.25
60.68
50.88
41.42
32.63
24.64
17.46
11.04
5.34
0.31
-4.03
-7.72
-10.81
-13.42
-15.78
-18.15
-20.76
-23.63
-26.56
-29.17
-31.11
-32.2
-32.54
-32.48
-32.49
-33.01
-34.3
-36.37
-38.95
-41.58
-43.54
-44.06
-42.51
-38.6
-32.6
-25.31
-17.91
-11.57
-7.12
-4.79
-4.18
-4.5
-4.86
-4.63
-3.56
-1.83
0.19
2.16
3.98
5.77
7.81
10.28
13.06
15.81
18.06
19.52
20.16
20.15
19.7
18.78
17.16
14.51
10.64
5.7
0.16
-5.47
-10.84
-15.96
-21.11
-26.58
-32.45
-38.5
-44.28
-49.36
-53.45
-56.52
-58.71
-60.24
-61.32
-62.21
-63.19
-64.66
-66.94
-70.13
-73.88
-77.33
-79.33
-78.78
-75.07
-68.32
-59.39
-49.57
-40.14
-31.93
-25.25
-19.91
-15.49
-11.62
-8.06
-4.73
-1.56
1.51
4.51
7.38
9.9
11.7
12.49
12.21
11.16
9.92
9.1
9.11
9.93
11.24
12.53
13.42
13.76
13.58
12.99
12.02
10.63
8.71
6.29
3.55
0.75
-1.84
-4.07
-5.95
-7.68
-9.45
-11.51
-13.98
-16.96
-20.52
-24.63
-29.16
-33.71
-37.64
-40.18
-40.63
-38.69
-34.62
-29.23
-23.61
-18.73
-15.12
-12.72
-10.99
-9.24
-6.95
-3.91
-0.28
3.56
7.19
10.26
12.52
13.83
14.13
13.53
12.27
10.78
9.57
9.09
9.56
10.86
12.57
14.08
14.8
14.45
13.09
11.05
8.85
6.86
5.26
3.94
2.67
1.13
-0.86
-3.39
-6.41
-9.78
-13.38
-17.11
-20.88
-24.64
-28.36
-32.07
-35.94
-40.19
-45.03
-50.49
-56.13
-61.11
-64.3
-64.62
-61.49
-55.09
-46.34
-36.58
-27.15
-18.94
-12.27
-6.87
-2.26
2.11
6.55
11.13
15.65
19.81
23.28
25.82
27.38
28.09
28.21
28.02
27.72
27.44
27.23
27.14
27.25
27.62
28.22
