-25.92
-13.32
-3.33
4.11
9.7
14.32
18.59
22.78
26.85
30.63
33.96
36.68
38.62
39.58
39.46
38.31
36.43
34.3
32.45
31.27
30.87
31.0
31.22
30.98
29.85
27.67
24.57
20.85
16.93
13.11
9.51
6.03
2.44
-1.57
-6.18
-11.34
-16.74
-21.94
-26.48
-30.15
-33.05
-35.66
-38.57
-42.26
-46.86
-51.96
-56.63
-59.63
-59.68
-55.92
-48.19
-37.13
-24.12
-10.8
1.35
11.48
19.52
26.01
31.74
37.32
42.95
48.41
53.24
57.07
59.73
61.37
62.28
62.77
63.02
63.06
62.87
62.51
62.15
62.02
62.2
62.46
62.27
60.95
58.0
53.31
47.25
40.54
33.94
27.98
22.77
18.03
13.25
7.93
1.82
-4.96
-11.96
-18.6
-24.44
-29.29
-33.46
-37.53
-42.23
-48.18
-55.65
-64.41
-73.58
-81.71
-86.95
-87.55
-82.51
-72.02
-57.61
-41.67
-26.67
-14.34
-5.16
1.49
6.82
11.93
17.38
23.0
28.18
32.24
34.77
35.71
35.37
34.21
32.73
31.34
30.3
29.73
29.76
30.48
31.92
33.94
36.17
38.03
38.85
38.12
35.73
32.04
27.83
23.99
21.24
19.83
19.47
19.46
18.95
17.34
14.45
10.59
6.36
2.37
-1.1
-4.25
-7.63
-12.05
-18.29
-26.87
-37.87
-50.73
-64.19
-76.34
-85.02
-88.41
-85.7
-77.48
-65.65
-52.77
-41.21
-32.44
-26.65
-23.17
-20.83
-18.64
-15.98
-12.68
-8.81
-4.51
0.07
4.73
9.22
13.17
16.33
18.57
20.11
21.4
23.03
25.44
28.69
32.27
35.25
36.55
35.34
31.36
25.06
17.4
9.52
2.29
-3.91
-9.19
-13.9
-18.39
-22.65
-26.35
-29.02
-30.28
-30.12
-28.91
-27.42
-26.63
-27.6
-31.26
-38.04
-47.63
-58.65
-68.73
-75.07
-75.36
-68.66
-55.9
-39.56
-22.84
-8.46
2.09
8.71
12.35
14.25
15.36
16.14
16.67
16.88
16.73
16.29
15.62
14.79
13.79
12.73
11.93
11.9
13.24
16.25
20.84
26.26
31.37
34.95
36.13
34.69
31.03
26.1
20.97
16.59
13.53
11.88
11.31
11.12
10.51
8.81
5.79
1.63
-3.1
-7.86
-12.35
-16.73
-21.59
-27.65
-35.38
-44.6
-54.27
-62.57
-67.27
-66.43
-59.14
-45.85
-28.4
-9.33
8.89
24.64
37.39
47.49
55.64
62.37
67.92
72.19
75.05
76.45
76.41
75.02
72.32
68.35
63.26
57.4
51.31
45.6
40.82
37.27
35.0
33.77
33.15
32.64
31.83
30.52
28.74
26.64
24.4
22.11
19.72
17.09
14.08
10.63
6.76
2.6
-1.68
-5.85
-9.74
-13.23
-16.4
-19.53
-23.02
-27.23
-32.29
-38.05
-44.09
-49.96
-55.28
-59.8
-63.36
-65.77
-66.83
-66.4
-64.56
-61.65
-58.2
-54.71
-51.48
-48.49
-45.52
-42.33
-38.78
-34.98
-31.17
-27.69
-24.8
-22.68
-21.41
-21.0
-21.39
-22.53
-24.26
-26.33
-28.36
-29.86
-30.37
-29.61
-27.65
-24.89
-22.03
-19.78
-18.66
-18.78
-19.89
-21.5
-23.15
-24.56
-25.75
-26.95
-28.46
-30.5
-33.13
-36.25
-39.64
-43.15
-46.71
-50.35
-54.24
-58.56
-63.55
-69.41
-76.2
-83.55
-90.58
-95.85
-97.69
-94.72
-86.47
-73.63
-57.93
-41.54
-26.38
-13.55
-3.25
4.96
11.76
17.7
23.1
28.1
32.74
37.06
40.99
44.35
46.9
48.37
48.75
48.23
47.34
46.66
46.7
47.72
49.61
51.95
54.1
55.34
55.11
53.18
49.7
45.23
40.48
36.1
32.36
29.12
25.87
22.05
17.32
11.73
5.7
-0.23
-5.61
-10.33
-14.65
-19.11
-24.36
-30.96
-39.16
-48.62
-58.32
-66.65
-71.75
-72.12
-67.18
-57.5
-44.7
-30.84
-17.79
-6.63
2.39
9.74
16.09
22.0
27.7
33.14
38.13
42.48
46.06
48.79
50.59
51.4
51.25
50.24
48.64
46.81
45.19
44.18
43.96
44.44
45.17
45.52
44.83
42.76
39.38
35.24
31.07
27.52
24.83
22.75
20.74
18.13
14.54
9.98
4.79
-0.44
-5.19
-9.16
-12.31
-14.96
-17.62
-20.95
-25.58
-31.93
-39.95
-48.98
-57.7
-64.33
-67.11
-64.89
-57.55
-46.08
-32.28
-18.13
-5.21
5.68
14.53
21.84
28.29
34.37
40.33
46.1
51.46
56.13
59.82
62.32
63.58
63.67
62.82
61.37
59.71
58.18
57.04
56.4
56.2
56.18
55.96
55.17
53.56
51.05
47.78
44.01
40.01
35.99
32.07
28.25
24.48
20.69
16.76
12.57
8.02
3.11
-2.04
-7.19
-12.07
-16.53
-20.53
-24.23
-27.86
-31.71
-36.01
-40.91
-46.4
-52.13
-57.4
-61.17
-62.32
-59.99
-53.95
-44.7
-33.37
-21.35
-9.9
0.15
8.53
15.37
21.0
25.8
30.01
33.7
36.73
38.93
40.11
40.25
39.45
37.95
35.97
33.72
31.36
29.01
26.83
24.97
23.55
22.57
21.88
21.3
20.67
19.98
19.32
18.8
18.47
18.2
17.78
16.97
15.58
13.57
11.05
8.23
5.39
2.82
0.68
-1.05
-2.62
-4.52
-7.31
-11.47
-17.19
-24.17
-31.62
-38.36
-43.05
-44.59
-42.43
-36.78
-28.58
-19.2
-9.97
-1.83
4.88
10.3
14.77
18.46
21.31
23.08
23.62
23.07
21.91
20.72
20.03
20.03
20.65
21.67
22.84
23.98
24.98
25.67
25.85
25.33
23.99
21.85
19.0
15.63
11.91
8.02
4.14
0.45
-2.93
-6.01
-8.97
-12.04
-15.36
-18.93
-22.53
-25.84
-28.57
-30.63
-32.1
-33.27
-34.5
-36.2
-38.75
-42.37
-47.0
-52.15
-56.9
-59.96
-60.0
-56.08
-47.95
-36.19
-22.16
-7.64
5.51
15.86
22.64
25.93
26.54
25.76
24.95
25.14
26.82
29.88
33.84
38.1
42.2
45.85
48.94
51.43
53.18
54.05
53.91
52.8
50.97
48.9
47.09
45.82
44.98
44.09
42.48
39.59
35.25
29.73
23.63
17.56
11.94
6.94
2.46
-1.65
-5.63
-9.63
-13.75
-17.98
-22.14
-25.96
-29.14
-31.58
-33.46
-35.19
-37.25
-39.95
-43.29
-46.99
-50.52
-53.35
-55.0
-55.13
-53.56
-50.29
-45.48
-39.53
-32.95
-26.35
-20.21
-14.87
-10.43
-6.84
-3.97
-1.68
0.17
1.65
2.84
3.81
4.56
5.05
5.24
5.14
4.89
4.71
4.93
5.88
7.77
10.73
14.67
19.25
23.79
27.44
29.32
28.97
26.46
22.46
17.95
13.85
10.74
8.74
7.71
7.4
7.6
8.13
8.76
9.17
9.02
8.06
6.05
2.8
-1.83
-7.81
-14.62
-21.16
-25.85
-27.17
-24.29
-17.51
-8.27
1.32
9.24
14.16
15.78
14.78
12.34
9.73
7.88
7.18
7.56
8.71
10.29
12.06
13.92
15.72
17.17
17.87
17.53
16.15
14.21
12.42
11.4
11.39
12.07
12.81
12.98
12.27
10.81
8.96
7.07
5.24
3.32
1.0
-1.93
-5.5
-9.5
-13.63
-17.6
-21.19
-24.29
-26.89
-29.03
-30.8
-32.45
-34.36
-37.01
-40.83
-45.91
-51.77
-57.37
-61.29
-62.25
-59.6
-53.6
-45.31
-36.26
-27.75
-20.56
-14.78
-10.04
-5.87
-1.95
1.8
5.31
8.49
11.26
13.51
15.09
15.81
15.51
14.25
12.31
10.14
8.24
6.96
6.4
6.4
6.66
6.87
6.88
6.71
6.51
6.43
6.47
6.52
6.32
5.71
4.69
3.47
2.39
1.74
1.63
1.94
2.35
2.46
1.95
0.66
-1.34
-3.79
-6.36
-8.76
-10.88
-12.81
-14.87
-17.4
-20.72
-24.91
-29.8
-34.82
-39.13
-41.7
-41.63
-38.5
-32.52
-24.59
-15.94
-7.75
-0.72
5.03
9.87
14.29
18.65
22.99
27.08
30.61
33.34
35.19
36.2
36.47
36.14
35.28
34.0
32.4
30.67
29.04
27.71
26.84
26.37
26.13
25.83
25.17
23.98
22.2
19.91
17.25
14.4
11.5
8.67
6.01
3.63
1.55
-0.24
-1.85
-3.41
-5.06
-6.94
-9.11
-11.56
-14.23
-17.0
-19.75
-22.45
-25.19
-28.21
-31.87
-36.42
-41.85
-47.61
-52.71
-55.87
-55.96
-52.42
-45.52
-36.25
-26.02
-16.23
-7.81
-1.08
4.19
8.45
12.13
15.45
18.4
20.83
22.65
23.84
24.5
24.76
24.72
24.42
23.87
23.11
22.22
21.36
20.65
20.18
19.88
19.66
19.37
18.85
17.98
16.67
14.89
12.65
10.08
7.36
4.71
2.31
0.21
-1.67
-3.56
-5.71
-8.28
-11.3
-14.59
-17.84
-20.79
-23.26
-25.3
-27.17
-29.25
-31.91
-35.43
-39.86
-44.87
-49.8
-53.67
-55.39
-54.08
-49.35
-41.51
-31.48
-20.48
-9.72
-0.02
8.18
14.86
20.13
24.19
27.23
29.46
31.1
32.37
33.4
34.18
34.73
35.06
35.25
35.39
35.54
35.61
35.46
34.93
33.94
32.53
30.72
28.5
25.77
22.42
18.44
14.04
9.63
5.71
2.7
0.79
-0.06
-0.12
0.29
0.84
1.23
1.24
0.68
-0.6
-2.63
-5.39
-8.71
-12.37
-16.13
-19.76
-23.12
-26.17
-29.01
-31.93
-35.28
-39.34
-44.09
-49.02
-53.19
-55.43
-54.74
-50.63
-43.39
-33.96
-23.69
-13.83
-5.23
1.83
7.64
12.74
17.63
22.61
27.58
32.2
35.99
38.62
40.04
40.51
40.61
41.08
42.68
46.04
51.45
58.63
66.64
73.96
78.8
79.53
75.26
66.05
52.99
37.84
22.58
8.94
-1.93
-9.52
-13.94
-15.73
-15.67
-14.61
-13.3
-12.28
-11.86
-12.18
-13.31
-15.33
-18.4
-22.74
-28.7
-36.62
-46.7
-58.61
-71.2
-82.46
-89.79
-90.89
-84.6
-71.52
-53.89
-34.9
-17.62
-4.14
4.75
9.34
10.54
9.38
6.78
3.6
0.64
-1.33
-1.69
-0.09
3.48
8.7
15.08
21.98
28.9
35.49
41.59
47.09
51.74
55.1
56.58
55.77
52.72
48.1
42.98
38.39
34.93
32.48
30.37
27.83
24.31
19.73
14.47
9.04
3.88
-0.79
-4.96
-8.69
-12.0
-14.91
-17.37
-19.35
-20.88
-22.05
-23.06
-24.22
-25.83
-28.15
-31.15
-34.37
-36.91
-37.6
-35.37
-29.63
-20.62
-9.3
2.89
14.51
24.6
32.82
39.41
44.9
49.76
54.22
58.25
61.65
64.24
65.91
66.72
66.72
65.95
64.39
62.02
58.91
55.25
51.36
47.5
43.76
40.04
36.18
32.05
27.56
22.71
17.59
12.41
7.37
2.57
-1.97
-6.28
-10.42
-14.52
-18.64
-22.81
-26.95
-30.93
-34.89
-38.99
-43.28
-47.67
-51.99
-56.1
-59.91
-63.24
-66.02
-68.92
-72.51
-76.99
-82.07
-87.33
-92.43
-97.12
-100.84
-102.92
-103.9
-103.72
-101.52
-95.86
-85.62
-71.13
-54.33
-37.92
-25.39
-22.02
-31.02
-52.27
-82.26
-115.77
-148.11
-176.43
-199.16
-217.06
-234.86
-256.74
-284.82
-318.35
-354.47
-389.72
-420.64
-443.51
-436.08
-386.23
-296.3
-183.49
-69.84
29.08
107.32
160.86
196.37
218.28
225.68
218.12
197.91
170.44
142.74
119.88
104.06
95.78
93.2
92.06
89.29
83.79
76.28
68.25
60.65
53.95
49.12
46.55
45.39
45.32
46.67
50.42
57.52
67.99
80.75
94.35
106.62
115.23
119.13
118.83
116.05
112.85
110.46
109.05
108.13
106.75
104.04
99.95
95.15
90.81
88.15
87.88
89.9
93.33
96.57
97.84
95.81
90.02
80.99
70.07
58.92
49.15
42.12
38.77
39.35
42.99
47.49
49.65
46.31
35.8
18.92
-1.07
-19.68
-33.03
-39.4
-39.73
-36.95
-34.64
-35.64
-41.24
-51.03
-63.39
-76.09
-86.99
-94.58
-98.12
-97.67
-93.79
-87.24
-78.81
-69.2
-59.16
-49.41
-40.58
-33.0
-26.57
-20.88
-15.44
-10.04
-4.83
-0.31
2.94
4.61
4.89
4.42
4.05
4.6
6.48
9.62
13.51
17.39
20.51
22.36
22.78
21.99
20.43
18.6
16.89
15.44
14.15
12.74
10.83
8.18
4.65
0.35
-4.46
-9.39
-14.04
-18.14
-21.64
-24.8
-28.12
-32.23
-37.68
-44.62
-52.62
-60.57
-66.92
-70.01
-68.63
-62.39
-51.88
-38.5
-24.01
-10.06
2.21
12.35
20.49
27.07
32.66
37.7
42.46
46.96
51.04
54.46
56.94
58.3
58.49
57.68
56.13
54.28
52.62
51.6
51.41
51.97
52.95
53.84
54.11
53.43
51.71
49.17
46.23
43.29
40.67
38.45
36.53
34.61
32.34
29.41
25.93
22.14
18.36
14.92
11.98
9.55
7.3
4.79
1.44
-2.7
-7.47
-12.48
-17.09
-20.29
-20.76
-17.57
-10.03
1.43
16.71
34.8
54.18
73.24
90.77
106.27
119.21
130.07
139.1
148.3
159.05
171.83
186.14
200.77
214.65
226.33
236.46
246.26
259.7
279.46
305.85
336.36
366.4
391.27
406.57
411.98
391.03
335.15
245.09
132.77
16.2
-88.85
-166.03
-218.97
-254.04
-277.14
-290.62
-297.01
-299.8
-302.05
-305.99
-311.77
-318.46
-322.21
-319.8
-306.79
-283.57
-255.1
-228.18
-207.46
-193.16
-183.2
-174.98
-166.95
-158.41
-149.94
-141.8
-133.34
-123.47
-110.69
-95.53
-78.99
-62.61
-47.61
-34.63
-23.21
-11.96
0.68
15.79
33.07
51.65
70.23
87.42
100.61
107.81
108.0
101.45
89.46
73.63
55.86
39.45
25.46
14.73
7.99
5.32
6.03
8.9
12.7
16.47
19.71
21.92
22.7
21.62
18.24
12.42
4.47
-4.91
-14.79
-24.2
-32.34
-38.28
-41.0
-39.76
-34.33
-25.23
-13.74
-1.49
10.09
20.01
28.13
34.92
40.99
46.74
52.19
57.04
60.84
63.27
64.19
63.87
62.78
61.47
60.32
59.47
58.75
57.86
56.49
54.45
51.74
48.49
44.79
40.69
36.16
31.15
25.74
20.13
14.61
9.44
4.65
0.01
-4.98
-10.78
-17.62
-25.28
-33.09
-40.16
-45.76
-49.58
-51.88
-53.35
-54.78
-56.75
-59.41
-62.43
-65.06
-66.32
-65.24
-61.11
-53.64
-43.16
-30.59
-17.3
-4.74
5.95
14.27
20.47
25.38
30.04
35.29
41.4
48.12
54.77
60.59
64.91
67.29
67.45
65.29
60.85
54.37
46.2
36.84
26.84
16.72
6.94
-2.15
-10.32
-17.47
-23.61
-28.89
-33.45
-37.4
-40.83
-43.84
-46.75
-50.03
-54.25
-59.73
-66.35
-73.54
-80.52
-86.61
-91.56
-95.59
-99.16
-102.61
-105.88
-108.38
-109.15
-107.13
-101.52
-92.12
-79.39
-64.46
-48.77
-33.76
-20.44
-9.21
0.12
8.07
15.16
21.64
27.5
32.54
36.57
39.54
41.48
42.46
42.55
41.8
40.38
38.54
36.53
34.53
32.52
30.23
27.35
23.62
18.97
13.52
7.57
1.49
-4.35
-9.62
-14.17
-17.97
-21.15
-23.95
-26.55
-29.05
-31.4
-33.5
-35.32
-36.99
-38.73
-40.78
-43.15
-45.54
-47.25
-47.39
-45.06
-39.76
-31.58
-21.26
-9.95
1.06
10.78
18.65
24.52
28.52
30.82
31.56
30.91
29.09
26.42
23.23
19.83
16.35
12.87
9.39
6.02
2.94
0.43
-1.25
-1.96
-1.72
-0.73
0.63
1.94
2.8
2.99
2.47
1.4
0.06
-1.26
-2.33
-3.03
-3.38
-3.45
-3.39
-3.38
-3.63
-4.31
-5.57
-7.53
-10.25
-13.79
-18.16
-23.26
-28.77
-34.12
-38.5
-41.09
-41.19
-38.54
-33.3
-26.04
-17.59
-8.8
-0.37
7.25
13.87
19.56
24.46
28.67
32.18
34.88
36.76
37.92
38.69
39.54
40.84
42.74
45.17
47.84
50.44
52.71
54.41
55.34
55.27
54.11
51.83
48.59
44.59
39.94
34.67
28.73
22.19
15.3
8.44
1.98
-3.85
-9.05
-13.8
-18.23
-22.35
-26.02
-29.1
-31.56
-33.64
-35.69
-38.19
-41.5
-45.71
-50.58
-55.6
-60.09
-63.45
-65.3
-65.53
-64.26
-61.74
-58.22
-53.94
-49.1
-43.86
-38.44
-33.06
-27.97
-23.41
-19.49
-16.2
-13.34
-10.64
-7.86
-4.97
-2.24
-0.18
0.49
-0.88
-4.8
-11.43
-20.34
-30.5
-40.35
-48.22
-52.93
-54.25
-52.93
-50.27
-47.46
-45.06
-42.96
-40.8
-38.5
-36.5
-35.66
-36.69
-39.75
-44.25
-49.12
-53.29
-56.1
-57.49
-57.97
-58.36
-59.54
-62.26
-66.93
-73.43
-80.91
-87.78
-91.98
-91.53
-85.26
-73.29
-57.09
-39.05
-21.63
-6.71
4.93
13.39
19.32
23.46
26.37
28.4
29.76
30.65
31.2
31.51
31.54
31.16
30.23
28.7
26.73
24.65
22.87
21.74
21.34
21.51
21.85
21.92
21.49
20.6
19.57
18.82
18.61
18.87
19.19
18.87
17.21
13.8
8.57
1.92
-5.48
-12.9
-19.73
-25.63
-30.61
-34.95
-39.18
-43.85
-49.29
-55.28
-60.89
-64.55
-64.44
-59.1
-47.96
-31.66
-11.81
9.48
30.05
48.25
62.96
73.68
80.41
83.54
83.78
82.05
79.33
76.5
74.22
72.82
72.33
72.49
72.79
72.7
71.81
70.0
67.46
64.57
61.57
58.4
54.66
49.82
43.57
36.02
27.77
19.62
12.32
6.19
1.1
-3.47
-8.21
-13.66
-20.03
-27.08
-34.22
-40.68
-45.83
-49.43
-51.72
-53.41
-55.4
-58.51
-63.17
-69.21
-75.73
-81.21
-83.76
-81.63
-73.75
-60.18
-42.17
-21.88
-1.74
16.29
31.14
42.7
51.44
57.94
62.55
65.29
66.03
64.73
61.64
57.31
52.44
47.74
43.64
40.3
37.56
35.13
32.69
30.09
27.39
24.79
22.54
20.78
19.48
18.59
18.07
17.99
18.52
19.83
21.9
24.46
27.0
28.93
29.78
29.37
27.81
25.39
22.49
19.31
15.9
12.14
7.83
2.72
-3.44
-10.89
-19.66
-29.39
-39.08
-47.09
-51.52
-50.84
-44.53
-33.38
-19.27
-4.52
8.91
19.99
28.64
35.48
41.2
46.32
50.96
55.05
58.46
61.13
63.04
64.16
64.45
63.81
62.21
59.77
56.73
53.44
50.25
47.47
45.27
43.74
42.75
42.03
41.21
39.92
37.97
35.39
32.45
29.55
27.01
24.93
23.13
21.31
19.14
16.45
13.24
9.66
5.93
2.23
-1.35
-4.89
-8.63
-12.94
-18.22
-24.75
-32.5
-41.0
-49.31
-56.15
-60.18
-60.34
-56.18
-48.05
-37.06
-24.73
-12.6
-1.76
7.28
14.58
20.5
25.47
29.75
33.42
36.46
38.79
40.4
41.28
41.49
41.12
40.33
39.33
38.34
37.54
37.0
36.71
36.57
36.44
36.17
35.59
34.58
33.01
30.78
27.8
24.07
19.67
14.82
9.9
5.32
1.46
-1.53
-3.78
-5.68
-7.68
-10.13
-13.08
-16.3
-19.42
-22.16
-24.51
-26.68
-29.05
-31.94
-35.54
-39.89
-44.92
-50.34
-55.53
-59.49
-61.08
-59.31
-53.85
-45.27
-34.91
-24.43
-15.24
-8.01
-2.69
1.33
4.74
7.93
10.95
13.53
15.39
16.4
16.69
16.6
16.54
16.76
17.23
17.71
17.88
17.56
16.82
15.96
15.35
15.23
15.56
16.07
16.3
15.78
14.24
11.68
8.35
4.67
1.06
-2.25
-5.3
-8.28
-11.49
-15.13
-19.27
-23.93
-29.03
-34.46
-40.0
-45.36
-50.25
-54.6
-58.72
-63.16
-68.59
-75.22
-82.58
-89.36
-93.77
-94.14
-89.53
-80.06
-66.91
-51.84
-36.62
-22.54
-10.17
0.51
9.87
18.34
26.17
33.41
39.93
45.59
50.23
53.78
56.18
57.42
57.49
56.43
54.33
51.4
47.92
44.24
40.72
37.59
34.91
32.58
30.36
27.95
25.18
22.03
18.67
15.39
12.46
10.0
7.94
6.0
3.86
1.28
-1.86
-5.52
-9.57
-13.84
-18.17
-22.42
-26.5
-30.45
-34.41
-38.65
-43.48
-49.04
-55.13
-61.12
-66.02
-68.67
-68.13
-63.98
-56.54
-46.78
-36.01
-25.5
-16.12
-8.14
-1.3
4.93
11.05
17.32
23.59
29.51
34.6
38.46
40.9
41.96
41.84
40.88
39.48
38.0
36.81
36.13
36.13
36.82
38.08
39.66
41.22
42.42
43.0
42.82
41.83
40.11
37.77
34.97
31.86
28.66
25.51
22.51
19.64
16.73
13.55
9.88
5.63
0.9
-4.12
-9.19
-14.14
-18.86
-23.33
-27.59
-31.74
-35.95
-40.44
-45.34
-50.53
-55.54
-59.54
-61.55
-60.69
-56.57
-49.47
-40.34
-30.52
-21.34
-13.73
-7.97
-3.7
-0.16
3.41
7.46
11.95
16.46
20.4
23.3
25.01
25.72
25.88
26.07
26.87
28.79
32.11
36.72
41.87
46.2
48.11
46.29
40.44
31.53
21.52
12.69
6.67
3.91
3.69
4.66
5.51
5.49
4.46
2.68
0.46
-2.07
-4.94
-8.18
-11.76
-15.5
-19.15
-22.55
-25.6
-28.35
-30.92
-33.48
-36.16
-39.07
-42.34
-46.1
-50.5
-55.57
-61.1
-66.52
-70.93
-73.32
-72.9
-69.41
-63.3
-55.54
-47.33
-39.6
-32.83
-27.02
-21.84
-16.94
-12.14
-7.44
-2.97
1.08
4.55
7.39
9.67
11.59
13.47
15.64
18.33
21.55
25.13
28.75
32.14
35.15
37.77
40.12
42.28
44.23
45.77
46.64
46.52
45.14
42.46
38.58
33.84
28.62
23.37
18.38
13.8
9.63
5.76
2.12
-1.32
-4.57
-7.63
-10.56
-13.56
-16.87
-20.73
-25.28
-30.49
-36.04
-41.35
-45.65
-48.1
-48.08
-45.33
-40.05
-32.84
-24.5
-15.82
-7.41
0.32
7.16
13.1
18.35
23.39
28.9
35.42
43.03
51.17
58.75
64.66
68.33
69.83
69.76
68.54
66.08
61.64
54.45
44.35
32.27
19.98
9.39
1.68
-3.09
-5.8
-7.75
-9.96
-12.91
-16.51
-20.35
-23.96
-26.96
-29.07
-30.15
-30.18
-29.26
-27.47
-24.89
-21.53
-17.4
-12.61
-7.49
-2.56
1.58
4.51
6.2
7.02
7.72
9.11
11.84
16.2
22.12
29.3
37.37
46.01
55.07
64.6
74.98
86.94
101.4
118.88
138.75
158.63
174.49
181.67
176.33
156.94
125.05
84.93
42.27
2.64
-29.93
-53.61
-68.59
-76.41
-78.98
-77.85
-73.9
-67.63
-59.68
-51.31
-44.42
-40.99
-42.15
-47.41
-54.59
-60.53
-62.34
-58.66
-50.27
-39.86
-30.88
-26.15
-26.68
-31.36
-37.48
-41.85
-41.96
-36.83
-27.03
-14.22
-0.51
12.17
22.29
28.69
30.58
27.45
19.2
6.24
-10.29
-28.65
-46.63
-62.04
-73.13
-79.1
-80.22
-77.65
-73.02
-67.73
-62.54
-57.37
-51.51
-44.13
-34.88
-24.19
-13.22
-3.52
3.71
8.0
9.82
10.27
10.53
11.37
12.92
14.84
16.66
18.07
19.06
19.75
20.26
20.53
20.43
19.78
18.48
16.58
14.22
11.6
8.94
6.44
4.22
2.25
0.32
-1.88
-4.74
-8.46
-12.95
-17.76
-22.19
-25.63
-27.83
-29.07
-30.11
-31.91
-35.16
-40.06
-46.06
-52.12
-57.04
-59.89
-60.3
-58.58
-55.58
-52.51
-50.62
-50.92
-53.75
-58.43
-63.21
-65.48
-62.64
-53.1
-37.18
-17.32
2.8
19.63
31.13
37.44
40.38
42.2
44.38
47.1
49.58
50.88
50.61
48.93
46.14
42.22
36.8
29.67
21.28
12.85
5.79
0.91
-2.08
-4.36
-7.36
-11.95
-18.19
-25.49
-33.15
-40.64
-47.69
-54.12
-59.62
-63.88
-66.81
-68.82
-70.72
-73.47
-77.6
-82.86
-88.04
-91.32
-90.82
-85.35
-74.88
-60.58
-44.43
-28.41
-13.87
-1.17
10.04
20.36
30.12
39.27
47.53
54.75
61.09
67.09
73.33
80.11
87.18
93.69
98.51
100.67
99.9
96.81
92.74
89.21
87.25
86.93
87.3
86.77
83.66
76.82
65.95
51.62
35.03
17.69
0.97
-14.18
-27.38
-38.73
-48.59
-57.25
-64.82
-71.16
-76.07
-79.52
-81.74
-83.2
-84.47
-86.0
-88.13
-90.99
-94.59
-98.79
-103.29
-107.55
-110.73
-111.78
-109.64
-103.58
-93.43
-79.73
-63.57
-46.26
-28.99
-12.5
2.9
17.25
30.67
43.24
54.94
65.65
75.2
83.33
89.77
94.25
96.64
97.07
95.98
94.04
91.92
90.2
89.22
89.17
90.07
91.76
93.74
95.1
94.65
91.31
84.6
74.97
63.72
52.47
42.54
34.47
28.0
22.4
16.95
11.27
5.3
-0.83
-7.02
-13.24
-19.43
-25.37
-30.73
-35.21
-38.78
-41.74
-44.68
-48.14
-52.33
-56.8
-60.48
-61.91
-59.72
-53.08
-42.05
-27.55
-11.17
5.25
20.13
32.5
42.31
50.29
57.66
65.54
74.27
83.18
90.54
94.25
92.63
85.16
72.75
57.37
41.33
26.59
14.37
5.22
-0.73
-3.54
-3.47
-1.11
2.55
6.18
8.6
9.05
7.49
4.46
0.77
-2.91
-6.26
-9.3
-12.26
-15.35
-18.64
-22.05
-25.35
-28.25
-30.5
-31.99
-32.86
-33.59
-34.85
-37.36
-41.59
-47.48
-54.37
-61.08
-66.24
-68.63
-67.53
-62.87
-55.22
-45.5
-34.76
-23.93
-13.62
-4.14
4.48
12.36
19.66
26.44
32.65
38.11
42.64
46.14
48.62
50.24
51.15
51.48
51.26
50.54
49.46
48.28
47.3
46.71
46.46
46.31
45.94
45.13
43.87
42.22
40.27
37.93
35.13
31.85
28.19
24.36
20.42
16.13
11.03
4.57
-3.51
-13.02
-23.25
-33.25
-42.15
-49.41
-54.99
-59.24
-62.77
-66.33
-70.69
-76.5
-84.06
-92.98
-102.03
-109.08
-111.64
-107.66
-96.33
-78.61
-57.0
-34.75
-14.72
1.46
13.64
22.77
30.11
36.63
42.68
48.12
52.69
56.19
58.63
60.16
60.93
61.06
60.63
59.72
58.47
57.07
55.72
54.55
53.59
52.68
51.53
49.83
47.35
44.08
40.24
36.19
32.27
28.68
25.31
21.9
18.17
13.95
9.32
4.53
-0.2
-4.76
-9.27
-13.92
-18.83
-23.86
-28.66
-32.89
-36.4
-39.43
-42.55
-46.49
-51.88
-58.98
-67.51
-76.56
-84.62
-89.73
-90.1
-84.54
-73.15
-57.35
-39.56
-22.44
-8.01
2.92
10.7
16.38
21.09
25.5
29.72
33.43
36.22
37.8
38.17
37.54
36.27
34.75
33.29
32.12
31.36
31.02
31.03
31.27
31.55
31.68
31.42
30.54
28.8
26.11
22.51
18.24
13.66
9.11
4.84
0.86
-2.96
-6.77
-10.68
-14.64
-18.55
-22.38
-26.2
-30.22
-34.65
-39.49
-44.44
-48.86
-51.9
-52.77
-50.9
-46.25
-39.29
-30.97
-22.38
-14.48
-7.78
-2.3
2.32
6.62
10.94
15.37
19.61
23.26
25.91
27.37
27.69
27.1
26.03
24.92
24.14
23.78
23.61
23.0
21.21
17.68
12.35
5.79
-0.88
-6.43
-9.89
-11.03
-10.38
-9.04
-8.27
-9.0
-11.55
-15.6
-20.41
-25.22
-29.53
-33.22
-36.53
-39.79
-43.29
-47.2
-51.68
-56.86
-62.78
-69.18
-75.32
-80.03
-81.94
-80.02
-73.94
-64.3
-52.43
-39.93
-28.11
-17.67
-8.64
-0.61
6.96
14.45
21.9
29.09
35.63
41.1
45.18
47.65
48.47
47.78
45.92
43.41
40.87
38.92
38.01
38.26
39.33
40.61
41.28
40.74
38.79
35.79
32.44
29.53
27.62
26.77
26.58
26.26
24.93
21.89
16.77
9.74
1.47
-7.09
-14.97
-21.65
-27.31
-32.7
-38.86
-46.45
-55.22
-63.92
-70.65
-73.65
-72.03
-66.14
-57.35
-47.41
-37.75
-28.98
-21.03
-13.39
-5.72
1.99
9.38
16.08
21.9
26.96
31.57
35.94
39.99
43.39
45.75
46.93
47.22
47.22
47.62
48.78
50.61
52.56
53.97
54.29
53.36
51.31
48.5
45.36
42.35
39.88
38.23
37.35
36.69
35.28
32.04
26.31
18.24
8.87
-0.34
-8.15
-14.07
-18.63
-22.99
-28.34
-35.35
-43.85
-52.98
-61.51
-68.29
-72.57
-74.07
-72.93
-69.59
-64.53
-58.22
-50.98
-43.0
-34.38
-25.2
-15.59
-5.81
3.79
12.73
20.54
26.76
31.11
33.59
34.46
34.2
33.38
32.52
31.94
31.78
32.0
32.45
32.94
33.23
33.13
32.42
31.01
28.91
26.27
23.3
20.23
17.24
14.4
11.69
8.98
6.08
2.75
-1.22
-5.88
-11.06
-16.37
-21.29
-25.4
-28.59
-31.14
-33.6
-36.68
-40.95
-46.7
-53.66
-60.95
-67.13
-70.47
-69.35
-62.9
-51.32
-35.98
-18.99
-2.56
11.68
23.06
31.83
38.77
44.79
50.54
56.37
62.28
68.05
73.3
77.46
79.96
80.36
78.55
74.81
69.78
64.27
58.94
54.22
50.18
46.75
43.71
40.94
38.31
35.72
33.03
30.14
26.97
23.58
20.12
16.78
13.71
10.97
8.48
6.16
3.91
1.63
-0.82
-3.71
-7.41
-12.31
-18.68
-26.49
-35.42
-45.04
-54.91
-64.77
-74.43
-83.56
-91.47
-97.06
-99.12
-96.77
-89.96
-79.63
-67.41
-55.07
-43.92
-34.45
-26.37
-19.08
-12.07
-5.21
1.25
6.92
11.53
15.1
17.9
20.32
22.72
25.23
27.84
30.33
32.48
34.11
35.19
35.78
36.0
35.89
35.34
34.15
32.05
28.89
24.71
19.8
14.6
9.65
5.43
2.3
0.42
-0.34
-0.4
-0.39
-0.99
-2.71
-5.71
-9.73
-14.32
-19.03
-23.64
-28.18
-32.94
-38.27
-44.6
-52.28
-61.42
-71.59
-81.6
-89.49
-93.06
-90.65
-81.86
-67.88
-51.05
-33.99
-18.71
-6.13
3.87
11.99
18.93
25.23
31.12
36.75
42.2
47.48
52.41
56.6
59.61
61.07
60.88
59.33
56.99
54.55
52.65
51.66
51.62
52.27
53.15
53.69
53.34
51.66
48.4
43.55
37.41
30.51
23.37
16.4
9.79
3.51
-2.52
-8.32
-13.83
-19.0
-23.93
-28.89
-34.23
-40.2
-46.71
-53.38
-59.61
-64.91
-69.09
-72.42
-75.54
-79.27
-84.38
-91.25
-99.58
-108.11
-114.7
-116.76
-112.18
-100.17
-81.83
-59.92
-37.99
-19.13
-4.99
4.45
10.48
14.73
18.41
22.1
25.78
29.31
32.61
35.7
38.58
41.04
42.73
43.24
42.37
40.23
37.31
34.29
31.89
30.6
30.58
31.65
33.47
35.59
37.66
39.43
40.79
41.67
41.97
41.56
40.29
38.12
35.16
31.63
27.86
24.12
20.59
17.27
14.04
10.71
7.08
3.05
-1.41
-6.18
-11.06
-15.83
-20.35
-24.72
-29.2
-34.24
-40.2
-47.23
-55.04
-62.8
-69.2
-72.68
-71.86
-66.08
-55.72
-42.23
-27.72
-14.26
-3.23
5.03
11.06
15.81
20.13
24.44
28.75
32.86
36.62
39.98
42.97
45.54
47.5
48.59
48.55
47.37
45.28
42.78
40.39
38.55
37.42
36.94
36.88
36.99
37.1
37.13
37.04
36.8
36.34
35.65
34.74
33.72
32.72
31.86
31.2
30.67
30.18
29.6
28.94
28.29
27.79
27.63
27.84
28.37
28.98
29.38
29.25
28.31
26.43
23.7
20.44
17.22
14.68
13.37
13.53
14.97
17.14
19.44
21.42
23.08
24.73
26.84
29.7
33.12
36.55
39.18
40.34
39.68
37.33
33.71
29.41
24.94
20.71
17.02
14.12
12.26
11.57
11.97
13.14
14.54
15.53
15.65
14.74
13.02
10.96
9.04
7.54
6.42
5.49
4.49
3.37
2.32
1.63
1.57
2.16
3.1
3.98
4.39
4.18
3.52
2.82
2.63
3.39
5.31
8.3
12.0
15.85
19.18
21.17
20.94
17.67
10.96
1.09
-10.88
-23.36
-34.77
-44.11
-51.25
-56.75
-61.37
-65.54
-69.11
-71.61
-72.71
-72.51
-71.61
-70.77
-70.54
-71.03
-72.02
-73.22
-74.51
-76.02
-77.86
-80.0
-82.09
-83.6
-84.1
-83.6
-82.65
-82.28
-83.49
-86.88
-92.24
-98.56
-104.38
-108.38
-109.92
-109.27
-107.36
-105.2
-103.48
-102.39
-101.82
-101.55
-101.32
-100.71
-99.01
-95.42
-89.55
-81.9
-73.91
-67.38
-63.59
-62.6
-63.23
-63.92
-63.78
-63.14
-63.13
-64.6
-66.98
-67.99
-64.51
-54.15
-36.54
-13.82
10.16
31.34
46.98
56.47
61.18
63.54
65.89
69.62
74.92
81.0
86.65
90.77
92.7
92.27
89.72
85.47
80.0
73.73
67.11
60.66
55.01
50.71
47.88
46.17
44.79
42.78
39.43
34.6
28.86
23.2
18.56
15.28
13.0
10.91
8.28
4.85
1.17
-1.66
-2.42
-0.45
3.65
8.41
12.08
13.28
11.46
7.06
1.54
-2.78
-3.39
1.01
10.57
23.89
38.04
49.03
52.86
46.93
31.33
8.59
-18.16
-45.2
-69.23
-88.03
-100.78
-108.14
-111.42
-111.74
-110.27
-109.59
-111.9
-118.53
-129.4
-143.06
-157.32
-169.53
-176.92
-168.36
-138.68
-90.5
-34.03
18.21
57.27
79.82
85.44
79.76
68.39
54.55
40.73
28.9
20.52
17.48
19.39
24.34
30.18
34.6
34.96
30.06
20.47
8.43
-3.02
-11.52
-16.02
-16.86
-16.09
-16.93
-21.78
-31.16
-43.5
-56.05
-66.35
-72.96
-75.49
-74.57
-71.18
-65.77
-57.98
-46.91
-31.91
-13.28
7.47
28.12
46.26
60.26
70.06
77.11
83.64
91.51
101.22
111.73
120.98
126.77
127.52
122.68
112.63
98.39
81.55
64.2
48.83
37.89
32.97
34.13
39.67
46.66
51.96
53.32
49.98
42.55
32.42
21.08
9.7
-0.96
-10.36
-18.14
-24.14
-28.62
-32.28
-36.19
-41.37
-48.31
-56.56
-64.74
-70.82
-72.84
-69.54
-60.89
-48.06
-33.02
-17.83
-4.05
7.66
17.43
25.86
33.51
40.67
47.22
52.8
57.06
59.82
61.2
61.54
61.27
60.78
60.27
59.82
59.4
58.97
58.54
58.2
57.97
57.78
57.4
56.48
54.66
51.72
47.68
42.85
37.77
32.96
28.82
25.39
22.44
19.53
16.26
12.5
8.37
4.21
0.36
-3.0
-5.94
-8.76
-11.83
-15.55
-20.17
-25.77
-32.04
-38.24
-43.25
-45.77
-44.74
-39.73
-31.18
-20.25
-8.49
2.71
12.47
20.55
27.18
32.82
37.86
42.5
46.74
50.46
53.48
55.64
56.83
57.03
56.31
54.86
52.91
50.74
48.6
46.68
45.07
43.74
42.62
41.57
40.42
39.02
37.23
34.96
32.21
29.1
25.85
22.64
19.6
16.75
13.98
11.14
8.14
4.95
1.66
-1.63
-4.85
-7.97
-11.01
-13.92
-16.69
-19.33
-21.97
-24.92
-28.52
-32.99
-38.14
-43.26
-47.15
-48.48
-46.22
-40.07
-30.66
-19.39
-7.95
2.24
10.46
16.89
22.33
27.8
34.0
41.01
48.3
55.02
60.44
64.25
66.74
68.58
70.6
73.59
78.17
84.99
94.54
106.91
121.44
136.43
149.4
157.8
159.88
155.33
145.29
131.62
116.1
99.82
83.29
67.21
53.05
43.0
38.95
41.2
47.56
53.83
55.48
49.64
36.44
18.93
1.53
-12.0
-20.06
-23.63
-25.3
-27.76
-32.62
-39.88
-48.37
-56.52
-63.16
-67.85
-70.82
-72.54
-73.27
-72.94
-71.16
-67.66
-62.58
-56.64
-50.9
-46.48
-44.01
-43.47
-44.15
-44.99
-45.0
-43.65
-41.05
-37.84
-34.8
-32.5
-31.02
-30.06
-29.14
-27.97
-26.58
-25.26
-24.44
-24.43
-25.28
-26.81
-28.68
-30.53
-32.11
-33.36
-34.31
-35.12
-35.96
-36.98
-38.29
-39.99
-42.23
-45.14
-48.75
-52.86
-56.97
-60.34
-62.14
-61.7
-58.78
-53.65
-46.98
-39.66
-32.54
-26.19
-20.84
-16.44
-12.77
-9.54
-6.54
-3.66
-0.89
1.67
3.87
5.53
6.54
6.88
6.65
6.04
5.32
4.73
4.44
4.51
4.87
5.33
5.66
5.64
5.12
4.1
2.63
0.85
-1.07
-3.0
-4.82
-6.47
-7.94
-9.31
-10.71
-12.28
-14.12
-16.2
-18.44
-20.66
-22.78
-24.82
-26.98
-29.55
-32.78
-36.67
-40.87
-44.63
-47.06
-47.38
-45.21
-40.72
-34.55
-27.66
-20.91
-14.9
-9.8
-5.46
-1.57
2.15
5.87
9.6
13.25
16.68
19.72
22.18
23.91
24.78
24.8
24.12
23.04
21.93
21.11
20.74
20.75
20.9
20.9
20.5
19.59
18.18
16.35
14.2
11.87
9.44
7.04
4.77
2.65
0.66
-1.3
-3.41
-5.74
-8.3
-11.0
-13.64
-16.08
-18.26
-20.31
-22.51
-25.2
-28.63
-32.81
-37.4
-41.76
-45.05
-46.5
-45.64
-42.42
-37.27
-30.88
-24.1
-17.61
-11.82
-6.87
-2.69
0.93
4.25
7.4
10.46
13.35
15.89
17.88
19.14
19.6
19.36
18.63
17.7
16.86
16.32
16.16
16.34
16.72
17.07
17.15
16.72
15.61
13.83
11.51
8.95
6.46
4.24
2.37
0.71
-0.95
-2.85
-5.08
-7.65
-10.39
-13.12
-15.69
-18.1
-20.47
-23.06
-26.19
-30.07
-34.67
-39.65
-44.3
-47.78
-49.28
-48.35
-44.98
-39.66
-33.21
-26.44
-20.02
-14.28
-9.27
-4.87
-0.93
2.68
6.06
9.24
12.23
14.94
17.21
18.89
19.93
20.43
20.67
20.95
21.52
22.41
23.49
24.51
25.22
25.46
25.13
24.19
22.59
20.36
17.61
14.57
11.56
8.85
6.54
4.53
2.52
0.21
-2.56
-5.73
-9.04
-12.2
-15.01
-17.45
-19.69
-21.98
-24.67
-28.0
-32.11
-36.84
-41.65
-45.7
-48.0
-47.75
-44.63
-38.96
-31.57
-23.51
-15.68
-8.64
-2.52
2.78
7.49
11.81
15.83
19.57
22.94
25.81
28.05
29.56
30.38
30.7
30.77
30.83
31.06
31.48
32.04
32.62
33.15
33.56
33.79
33.77
33.34
32.39
30.86
28.81
26.38
23.83
21.33
18.98
16.74
14.44
11.88
8.84
5.24
1.14
-3.2
-7.47
-11.35
-14.69
-17.58
-20.28
-23.19
-26.67
-30.89
-35.77
-40.93
-45.7
-49.27
-50.87
-50.02
-46.66
-41.23
-34.49
-27.33
-20.46
-14.3
-8.92
-4.22
-0.06
3.71
7.16
10.36
13.33
16.08
18.51
20.47
21.79
22.42
22.49
22.27
22.1
22.2
22.58
23.13
23.62
23.89
23.89
23.64
23.17
22.41
21.26
19.63
17.53
15.15
12.78
10.65
8.89
7.4
5.95
4.27
2.2
-0.32
-3.19
-6.27
-9.41
-12.47
-15.31
-17.89
-20.2
-22.39
-24.7
-27.49
-31.05
-35.43
-40.35
-45.14
-48.83
-50.52
-49.56
-45.85
-39.88
-32.57
-24.94
-17.84
-11.71
-6.57
-2.18
1.8
5.56
9.15
12.44
15.28
17.53
19.15
20.14
20.6
20.67
20.53
20.42
20.59
21.22
22.37
23.88
25.43
26.56
26.88
26.13
24.31
21.68
18.7
15.83
13.45
11.72
10.54
9.62
8.57
6.99
4.61
1.39
-2.47
-6.55
-10.33
-13.36
-15.47
-16.83
-17.94
-19.45
-21.91
-25.61
-30.35
-35.44
-39.84
-42.4
-42.22
-38.91
-32.73
-24.51
-15.38
-6.47
1.36
7.62
12.23
15.36
17.39
18.78
19.92
21.13
22.46
23.76
24.77
25.25
25.12
24.53
23.78
23.15
22.81
22.76
22.88
23.02
23.06
22.95
22.64
22.06
21.17
19.91
18.26
16.29
14.1
11.84
9.64
7.63
5.84
4.23
2.64
0.87
-1.29
-3.91
-6.96
-10.23
-13.45
-16.38
-18.93
-21.17
-23.32
-25.67
-28.5
-31.98
-36.12
-40.72
-45.28
-49.12
-51.44
-51.64
-49.41
-44.9
-38.66
-31.49
-24.23
-17.62
-12.22
-8.31
-6.0
-5.08
-5.04
-5.17
-4.76
-3.37
-1.07
1.59
3.76
4.72
4.27
2.94
1.91
2.62
6.33
13.59
23.99
36.17
48.07
57.46
62.47
62.18
56.92
48.3
38.88
31.44
28.32
30.63
37.95
48.36
59.02
67.03
70.42
68.89
63.83
57.59
52.39
49.24
47.67
46.23
43.68
39.72
35.08
30.78
27.07
22.82
16.03
5.1
-9.84
-26.63
-42.01
-53.28
-59.66
-62.64
-65.02
-69.34
-76.51
-85.64
-94.59
-101.37
-104.98
-105.7
-104.49
-102.28
-99.35
-95.4
-89.96
-82.93
-74.83
-66.66
-59.43
-53.81
-49.75
-46.54
-43.28
-39.23
-34.12
-28.27
-22.34
-17.07
-12.93
-10.01
-7.99
-6.32
-4.57
-2.6
-0.68
0.69
1.02
0.17
-1.64
-3.88
-6.04
-7.85
-9.43
-11.07
-13.01
-15.31
-17.74
-20.0
-21.88
-23.47
-25.06
-27.16
-30.16
-34.27
-39.24
-44.4
-48.73
-51.15
-50.85
-47.62
-41.89
-34.58
-26.78
-19.36
-12.76
-6.96
-1.68
3.45
8.65
13.92
19.07
23.77
27.7
30.63
32.54
33.62
34.14
34.36
34.46
34.55
34.71
35.04
35.67
36.63
37.77
38.77
39.2
38.7
37.17
34.76
31.88
28.98
26.41
24.31
22.6
21.03
19.32
17.26
14.81
12.05
9.18
6.42
3.95
1.89
0.25
-1.04
-2.19
-3.54
-5.47
-8.32
-12.14
-16.54
-20.64
-23.26
-23.29
-20.08
-13.67
-4.75
5.59
16.25
26.38
35.56
43.77
51.19
58.16
64.99
71.94
79.17
86.71
94.46
102.22
109.72
116.63
122.68
127.7
131.73
135.12
138.47
142.49
147.65
153.95
160.8
167.17
171.84
173.76
172.17
166.69
157.23
144.0
127.48
108.41
87.77
66.57
45.63
25.51
6.48
-11.18
-27.07
-40.56
-50.92
-57.67
-60.92
-61.45
-60.52
-59.45
-59.22
-60.18
-62.18
-64.86
-68.01
-71.77
-76.48
-82.33
-89.0
-95.44
-100.13
-101.56
-98.82
-92.0
-82.2
-71.07
-60.29
-51.06
-43.78
-38.25
-33.92
-30.23
-26.79
-23.38
-19.85
-16.11
-12.1
-7.89
-3.75
-0.05
2.84
4.66
5.43
5.39
5.02
4.81
5.16
6.23
7.89
9.78
11.46
12.51
12.76
12.27
11.24
9.93
8.52
7.07
5.55
3.91
2.17
0.4
-1.3
-2.86
-4.34
-5.88
-7.7
-9.98
-12.86
-16.27
-20.04
-23.87
-27.49
-30.7
-33.53
-36.13
-38.78
-41.85
-45.59
-50.13
-55.25
-60.39
-64.62
-66.9
-66.29
-62.37
-55.38
-46.17
-36.0
-26.1
-17.32
-9.98
-3.94
1.18
5.77
10.02
13.98
17.58
20.7
23.24
25.16
26.4
26.93
26.8
26.07
24.98
23.8
22.83
22.25
22.11
22.27
22.49
22.48
21.99
20.9
19.26
17.23
15.0
12.74
10.54
8.37
6.14
3.7
0.93
-2.19
-5.6
-9.14
-12.55
-15.63
-18.27
-20.55
-22.75
-25.24
-28.41
-32.52
-37.54
-43.07
-48.37
-52.43
-54.26
-53.11
-48.78
-41.67
-32.74
-23.2
-14.19
-6.48
-0.33
4.42
8.21
11.54
14.78
18.05
21.29
24.29
26.78
28.57
29.55
29.74
29.21
28.12
26.64
24.98
23.39
22.09
21.2
20.69
20.36
19.9
19.02
17.55
15.46
12.93
10.23
7.64
5.35
3.43
1.78
0.19
-1.61
-3.84
-6.58
-9.7
-12.95
-16.05
-18.74
-20.98
-22.92
-24.9
-27.29
-30.45
-34.49
-39.21
-44.02
-48.02
-50.19
-49.76
-46.38
-40.36
-32.54
-24.01
-15.8
-8.59
-2.57
2.37
6.52
10.16
13.47
16.51
19.34
21.96
24.36
26.46
28.1
29.1
29.37
29.0
28.21
27.32
26.57
26.05
25.68
25.32
24.79
23.98
22.89
21.55
20.04
18.38
16.62
14.79
12.93
11.03
9.13
7.22
5.31
3.4
1.45
-0.63
-2.94
-5.56
-8.48
-11.57
-14.64
-17.46
-19.93
-22.05
-24.0
-26.07
-28.58
-31.79
-35.81
-40.45
-45.15
-49.04
-51.15
-50.67
-47.25
-41.17
-33.24
-24.6
-16.3
-9.07
-3.17
1.57
5.52
9.07
12.48
15.85
19.12
22.17
24.85
27.05
28.64
29.47
29.48
28.7
27.28
25.57
23.94
22.71
21.99
21.65
21.43
20.96
19.96
18.3
16.03
13.38
10.59
7.94
5.53
3.33
1.16
-1.2
-3.91
-7.01
-10.32
-13.6
-16.64
-19.34
-21.74
-23.98
-26.26
-28.71
-31.43
-34.53
-38.09
-42.15
-46.57
-50.9
-54.38
-56.05
-55.06
-51.02
-44.18
-35.45
-26.14
-17.49
-10.36
-4.99
-1.17
1.59
3.73
5.63
7.63
10.14
13.49
17.74
22.37
26.36
28.55
28.26
25.74
22.08
18.77
16.97
16.92
17.96
18.98
19.06
17.89
15.75
13.29
11.09
9.45
8.43
7.92
7.84
8.16
8.79
9.55
10.11
10.05
9.03
6.91
3.84
0.18
-3.6
-7.16
-10.36
-13.41
-16.76
-20.95
-26.39
-33.09
-40.55
-47.76
-53.43
-56.32
-55.66
-51.41
-44.26
-35.41
-26.2
-17.71
-10.51
-4.66
0.19
4.48
8.59
12.72
16.84
20.81
24.45
27.57
30.0
31.64
32.49
32.63
32.26
31.63
30.98
30.45
30.05
29.7
29.29
28.76
28.08
27.24
26.2
24.86
23.15
21.09
18.8
16.52
14.46
12.75
11.34
10.03
8.58
6.74
4.38
1.46
-1.94
-5.66
-9.46
-13.06
-16.25
-18.93
-21.24
-23.52
-26.23
-29.8
-34.33
-39.46
-44.36
-47.88
-48.91
-46.77
-41.42
-33.5
-24.11
-14.45
-5.46
2.32
8.76
13.95
18.11
21.47
24.3
26.85
29.34
31.84
34.22
36.22
37.53
37.93
37.38
36.04
34.18
32.09
30.04
28.21
26.72
25.52
24.48
23.32
21.77
19.62
16.85
13.63
10.31
7.2
4.52
2.25
0.2
-1.94
-4.39
-7.18
-10.16
-13.06
-15.67
-17.94
-20.04
-22.27
-24.94
-28.27
-32.36
-37.11
-42.18
-46.93
-50.51
-51.95
-50.52
-45.92
-38.52
-29.26
-19.29
-9.7
-1.16
6.12
12.28
17.54
22.12
26.1
29.49
32.25
34.33
35.73
36.42
36.43
35.83
34.73
33.29
31.7
30.15
28.83
27.9
27.39
27.26
27.26
27.11
26.52
25.27
23.33
20.79
17.84
14.71
11.56
8.51
5.61
2.86
0.21
-2.4
-5.03
-7.74
-10.57
-13.48
-16.46
-19.42
-22.3
-25.01
-27.58
-30.17
-33.1
-36.72
-41.21
-46.39
-51.58
-55.69
-57.57
-56.34
-51.75
-44.23
-34.74
-24.46
-14.48
-5.54
1.97
8.04
12.91
16.95
20.56
24.01
27.41
30.63
33.42
35.5
36.72
37.1
36.83
36.1
35.11
33.99
32.8
31.63
30.57
29.63
28.78
27.85
26.66
25.05
22.99
20.56
17.88
15.09
12.27
9.5
6.87
4.47
2.37
0.54
-1.15
-2.86
-4.77
-6.96
-9.38
-11.87
-14.25
-16.41
-18.31
-20.11
-22.08
-24.58
-27.94
-32.32
-37.57
-43.15
-48.15
-51.48
-52.15
-49.61
-43.9
-35.68
-26.04
-16.19
-7.1
0.6
6.71
11.34
14.82
17.55
19.92
22.21
24.51
26.73
28.6
29.82
30.22
29.79
28.72
27.28
25.75
24.29
22.98
21.8
20.75
19.82
18.99
18.23
17.44
16.44
15.02
13.04
10.48
7.48
4.35
1.37
-1.24
-3.45
-5.41
-7.4
-9.69
-12.41
-15.52
-18.75
-21.69
-23.99
-25.55
-26.59
-27.7
-29.65
-33.03
-37.91
-43.68
-49.01
-52.39
-52.54
-49.01
-42.31
-33.73
-24.76
-16.46
-9.1
-2.2
4.99
12.87
21.1
28.63
34.19
36.99
37.19
35.97
35.09
36.36
41.05
49.73
62.05
76.56
90.54
100.19
101.48
91.84
71.64
44.81
17.75
-3.13
-14.05
-15.31
-10.73
-5.51
-3.8
-7.22
-15.02
-25.28
-36.27
-47.08
-57.36
-66.67
-74.14
-78.8
-80.07
-78.4
-74.99
-71.54
-69.49
-69.34
-70.42
-71.1
-69.34
-63.44
-52.76
-37.84
-20.37
-2.52
14.08
29.08
43.56
58.81
75.3
91.92
106.26
115.21
116.36
109.12
95.1
77.62
60.6
48.18
41.41
40.03
42.73
47.6
52.71
56.57
58.43
58.22
56.3
52.91
48.82
44.79
41.41
39.06
37.95
37.92
38.39
38.33
36.47
32.04
24.92
15.78
5.98
-3.0
-10.09
-15.08
-18.5
-21.32
-24.26
-27.62
-31.3
-35.0
-38.56
-42.06
-45.72
-49.59
-53.4
-56.51
-58.33
-58.7
-58.1
-57.42
-57.6
-59.17
-62.06
-65.83
-69.81
-73.43
-76.11
-77.21
-75.89
-71.47
-63.81
-53.63
-42.4
-31.77
-22.97
-16.28
-11.1
-6.4
-1.26
4.7
11.32
17.97
24.0
28.79
31.92
33.16
32.43
29.97
26.25
22.02
18.06
15.15
13.81
14.27
16.31
19.27
22.06
23.44
22.44
18.63
12.41
4.8
-2.91
-9.69
-15.07
-19.21
-22.65
-25.94
-29.34
-32.78
-36.0
-38.83
-41.26
-43.5
-45.83
-48.46
-51.38
-54.43
-57.26
-59.38
-60.26
-59.32
-56.08
-50.35
-42.31
-32.62
-22.27
-12.3
-3.57
3.42
8.61
12.26
14.8
16.76
18.64
20.8
23.44
26.56
29.96
33.31
36.2
38.21
39.09
38.69
37.14
34.69
31.72
28.58
25.49
22.53
19.67
16.86
14.07
11.32
8.6
5.84
2.91
-0.34
-3.99
-7.99
-12.18
-16.37
-20.34
-23.94
-27.1
-29.88
-32.46
-35.17
-38.48
-42.86
-48.58
-55.39
-62.45
-68.45
-71.94
-71.83
-67.78
-60.29
-50.51
-39.78
-29.25
-19.58
-11.0
-3.44
3.28
9.28
14.62
19.32
23.43
26.99
29.98
32.32
33.84
34.35
33.77
32.21
30.0
27.64
25.66
24.43
24.09
24.51
25.32
26.12
26.54
26.35
25.48
23.94
21.8
19.15
16.13
12.9
9.66
6.55
3.65
0.9
-1.84
-4.76
-7.99
-11.56
-15.4
-19.38
-23.43
-27.56
-31.93
-36.82
-42.46
-48.89
-55.76
-62.31
-67.44
-70.0
-69.15
-64.61
-56.79
-46.63
-35.3
-23.86
-12.97
-2.84
6.61
15.55
24.01
31.84
38.74
44.4
48.69
51.77
54.06
56.12
58.59
61.86
66.02
70.74
75.41
79.21
81.4
81.4
78.91
73.89
66.57
57.48
47.39
37.17
27.5
18.72
10.72
3.15
-4.34
-11.79
-18.93
-25.32
-30.65
-34.89
-38.27
-41.0
-43.11
-44.34
-44.34
-43.01
-40.65
-38.08
-36.29
-36.2
-38.19
-41.98
-46.74
-51.23
-54.27
-55.0
-53.11
-48.84
-42.75
-35.62
-28.13
-20.84
-14.08
-8.0
-2.62
2.25
6.97
11.94
17.55
23.87
30.61
37.13
42.61
46.4
48.17
48.08
46.64
44.62
42.76
41.63
41.58
42.65
44.59
46.99
49.28
50.91
51.38
50.42
48.04
44.6
40.87
37.84
36.38
36.86
38.8
40.96
41.62
39.32
33.34
24.01
12.46
0.06
-12.04
-23.27
-33.49
-42.7
-50.67
-56.86
-60.65
-61.62
-59.9
-56.11
-51.09
-45.57
-39.88
-33.94
-27.5
-20.37
-12.63
-4.61
3.25
10.6
17.25
23.16
28.44
33.23
37.72
42.09
46.39
50.47
53.87
55.96
56.17
54.33
50.82
46.51
42.46
39.4
37.49
36.31
35.11
33.16
30.09
25.9
20.86
15.29
9.43
3.44
-2.54
-8.27
-13.5
-18.01
-21.66
-24.46
-26.45
-27.67
-28.12
-27.87
-27.25
-26.91
-27.76
-30.77
-36.55
-44.9
-54.71
-64.04
-70.7
-72.91
-69.9
-62.12
-51.0
-38.38
-25.92
