-26.79
-31.23
-35.32
-39.11
-43.0
-47.45
-52.62
-58.27
-63.83
-68.57
-71.72
-72.71
-71.21
-67.25
-61.23
-53.81
-45.76
-37.7
-29.93
-22.41
-14.96
-7.4
0.26
7.79
14.87
21.16
26.41
30.5
33.43
35.34
36.46
37.12
37.69
38.44
39.49
40.75
41.95
42.78
43.01
42.56
41.48
39.9
37.96
35.73
33.34
30.86
28.4
26.04
23.79
21.6
19.37
17.04
14.57
11.98
9.25
6.29
2.96
-0.9
-5.38
-10.43
-15.83
-21.3
-26.62
-31.71
-36.7
-41.95
-47.84
-54.61
-62.04
-69.41
-75.46
-78.83
-78.46
-74.05
-66.28
-56.53
-46.46
-37.41
-29.99
-24.07
-19.03
-14.14
-8.95
-3.36
2.38
7.83
12.6
16.45
19.39
21.6
23.44
25.28
27.42
30.02
33.04
36.29
39.49
42.37
44.8
46.75
48.38
49.85
51.3
52.68
53.82
54.44
54.3
53.33
51.64
49.54
47.37
45.41
43.76
42.34
40.88
39.0
36.2
32.05
26.22
18.58
9.3
-1.21
-12.41
-23.83
-35.31
-47.1
-59.73
-73.7
-89.05
-105.08
-120.46
-133.51
-142.78
-147.55
-147.98
-145.05
-139.99
-133.67
-126.29
-117.51
-106.76
-93.63
-78.07
-60.3
-40.76
-20.0
1.24
21.98
41.01
57.28
70.09
79.3
85.34
88.79
90.12
89.5
86.8
81.88
74.81
65.89
55.69
45.0
34.84
26.2
19.76
15.52
12.84
10.93
9.66
10.05
14.16
24.0
40.24
61.38
83.89
103.43
116.4
121.13
118.04
108.94
96.03
81.12
65.4
49.53
33.99
19.15
5.33
-7.16
-18.06
-27.05
-33.87
-38.32
-40.4
-40.37
-38.79
-36.5
-34.51
-33.73
-34.54
-36.6
-38.77
-39.63
-38.09
-33.86
-27.52
-20.14
-12.73
-5.9
0.1
5.17
9.09
11.54
12.33
11.74
10.61
10.09
11.23
14.47
19.37
24.73
29.1
31.31
30.99
28.7
25.65
23.07
21.63
21.17
20.81
19.49
16.5
11.83
6.12
0.29
-4.87
-9.06
-12.4
-15.39
-18.58
-22.41
-27.12
-32.67
-38.72
-44.69
-49.81
-53.22
-54.2
-52.33
-47.7
-40.79
-32.43
-23.46
-14.52
-5.96
2.14
9.86
17.24
24.21
30.59
36.09
40.44
43.49
45.23
45.83
45.55
44.63
43.31
41.73
40.04
38.4
37.02
36.04
35.49
35.2
34.82
33.98
32.4
30.0
27.0
23.69
20.41
17.3
14.34
11.33
8.07
4.41
0.37
-3.93
-8.3
-12.62
-16.87
-21.16
-25.7
-30.71
-36.37
-42.71
-49.53
-56.37
-62.51
-67.1
-69.32
-68.68
-65.08
-58.96
-51.1
-42.39
-33.59
-25.09
-16.93
-8.93
-0.9
7.23
15.3
23.01
30.0
35.97
40.76
44.33
46.73
48.05
48.45
48.13
47.33
46.34
45.39
44.62
44.05
43.56
42.94
41.94
40.34
38.01
35.0
31.5
27.85
24.39
21.33
18.62
16.01
13.09
9.55
5.3
0.54
-4.37
-9.07
-13.35
-17.2
-20.83
-24.49
-28.5
-33.14
-38.62
-44.9
-51.57
-57.86
-62.7
-65.07
-64.3
-60.36
-53.83
-45.66
-36.86
-28.2
-20.05
-12.43
-5.19
1.83
8.73
15.44
21.81
27.61
32.63
36.65
39.63
41.56
42.56
42.79
42.45
41.74
40.91
40.18
39.7
39.49
39.38
39.07
38.21
36.5
33.92
30.65
27.09
23.61
20.49
17.73
15.13
12.38
9.25
5.68
1.85
-1.97
-5.56
-8.89
-12.11
-15.5
-19.28
-23.63
-28.56
-34.05
-39.96
-46.01
-51.67
-56.2
-58.74
-58.65
-55.72
-50.3
-43.23
-35.47
-27.82
-20.69
-14.12
-7.92
-1.83
4.29
10.44
16.45
22.08
27.0
30.93
33.67
35.2
35.64
35.26
34.35
33.22
32.1
31.13
30.44
30.06
29.94
29.91
29.73
29.16
28.03
26.34
24.18
21.76
19.3
16.93
14.67
12.43
10.03
7.32
4.2
0.69
-3.12
-7.08
-11.05
-14.91
-18.64
-22.28
-25.89
-29.59
-33.49
-37.72
-42.33
-47.18
-51.82
-55.53
-57.48
-57.0
-53.91
-48.61
-41.95
-34.92
-28.22
-22.12
-16.51
-11.07
-5.58
-0.03
5.43
10.61
15.37
19.61
23.25
26.18
28.26
29.39
29.6
29.08
28.12
27.1
26.32
25.98
26.08
26.47
26.87
26.97
26.55
25.55
24.01
22.1
19.97
17.71
15.42
13.14
10.9
8.69
6.4
3.89
1.05
-2.13
-5.53
-8.92
-12.08
-14.89
-17.37
-19.67
-22.01
-24.66
-27.86
-31.76
-36.36
-41.39
-46.26
-50.13
-52.15
-51.69
-48.55
-43.08
-36.0
-28.2
-20.45
-13.25
-6.73
-0.73
5.06
10.97
17.19
23.7
30.25
36.43
41.79
45.96
48.82
50.56
51.57
52.34
53.2
54.28
55.45
56.48
57.13
57.33
57.08
56.41
55.28
53.56
51.13
48.01
44.39
40.51
36.6
32.82
29.25
26.1
23.59
21.89
20.88
20.05
18.66
16.05
11.99
6.88
1.56
-3.09
-6.53
-8.79
-10.43
-12.21
-14.8
-18.52
-23.3
-28.79
-34.55
-40.3
-45.89
-51.33
-56.53
-61.22
-64.89
-67.06
-67.61
-67.04
-66.47
-67.32
-70.66
-76.78
-84.86
-93.3
-100.23
-104.19
-104.52
-101.43
-95.75
-88.58
-81.02
-74.07
-68.49
-64.67
-62.36
-60.59
-57.89
-52.98
-45.29
-35.39
-24.64
-14.67
-6.72
-1.48
0.76
-0.2
-4.67
-12.84
-24.4
-38.19
-52.07
-63.34
-69.32
-68.11
-59.18
-43.69
-24.31
-4.63
11.82
22.55
26.62
24.64
18.29
9.49
-0.01
-8.9
-16.18
-21.01
-22.71
-20.87
-15.57
-7.48
2.08
11.46
19.11
24.1
26.36
26.67
26.21
25.93
26.15
26.58
26.68
26.19
25.41
25.06
25.85
28.14
31.74
36.14
40.8
45.36
49.67
53.61
57.05
59.81
61.81
63.11
63.92
64.46
64.81
64.92
64.62
63.77
62.34
60.45
58.3
56.14
54.25
52.91
52.22
52.04
51.74
50.29
46.42
38.9
27.06
10.91
-8.61
-29.9
-50.9
-69.47
-83.78
-92.5
-95.15
-92.19
-85.05
-75.95
-67.39
-61.66
-60.2
-63.2
-69.55
-77.07
-83.11
-85.16
-81.45
-71.4
-55.68
-36.0
-14.71
5.87
23.89
38.34
48.92
55.89
59.61
60.3
58.09
53.41
47.31
41.68
38.67
39.85
45.24
53.13
60.61
64.97
64.87
60.88
54.97
49.35
45.2
42.23
39.13
34.59
28.09
20.17
11.89
4.02
-3.43
-11.16
-20.04
-30.47
-41.98
-53.44
-63.56
-71.46
-76.97
-80.5
-82.65
-83.77
-83.85
-82.58
-79.7
-75.21
-69.41
-62.79
-55.81
-48.77
-41.75
-34.71
-27.58
-20.32
-12.98
-5.7
1.31
7.77
13.39
17.96
21.44
24.01
25.97
27.61
29.1
30.36
31.18
31.35
30.8
29.6
28.01
26.29
24.67
23.27
22.07
20.94
19.71
18.14
16.06
13.39
10.17
6.54
2.72
-1.14
-4.98
-8.89
-13.05
-17.68
-22.92
-28.8
-35.24
-41.92
-48.37
-53.94
-57.92
-59.74
-59.06
-55.9
-50.63
-43.82
-36.09
-27.94
-19.61
-11.17
-2.64
5.94
14.32
22.14
28.94
34.39
38.41
41.19
43.12
44.64
46.05
47.41
48.63
49.55
50.12
50.33
50.25
49.85
48.98
47.45
45.11
41.99
38.34
34.54
30.95
27.8
25.08
22.57
19.94
16.88
13.24
9.07
4.59
0.08
-4.27
-8.44
-12.57
-16.9
-21.68
-27.09
-33.21
-39.94
-46.91
-53.44
-58.6
-61.41
-61.15
-57.67
-51.45
-43.43
-34.72
-26.17
-18.19
-10.78
-3.66
3.44
10.67
17.97
25.15
31.89
37.88
42.84
46.58
49.08
50.42
50.82
50.58
50.0
49.35
48.82
48.48
48.3
48.15
47.81
47.04
45.69
43.7
41.17
38.28
35.22
32.17
29.21
26.31
23.39
20.3
16.89
13.07
8.84
4.31
-0.31
-4.78
-8.98
-12.87
-16.62
-20.5
-24.79
-29.79
-35.61
-42.16
-49.01
-55.38
-60.27
-62.7
-62.07
-58.38
-52.26
-44.69
-36.63
-28.7
-21.07
-13.61
-6.13
1.47
9.07
16.47
23.4
29.67
35.1
39.55
42.93
45.21
46.46
46.94
46.94
46.75
46.54
46.33
46.04
45.51
44.63
43.36
41.71
39.72
37.41
34.78
31.82
28.59
25.24
21.97
18.95
16.24
13.77
11.33
8.72
5.75
2.35
-1.42
-5.38
-9.31
-13.01
-16.43
-19.67
-22.98
-26.71
-31.15
-36.38
-42.23
-48.14
-53.31
-56.82
-57.89
-56.13
-51.65
-45.09
-37.32
-29.27
-21.56
-14.48
-7.94
-1.72
4.38
10.41
16.24
21.67
26.48
30.52
33.7
35.96
37.27
37.65
37.22
36.29
35.24
34.49
34.25
34.48
34.84
34.89
34.21
32.61
30.17
27.18
24.0
20.89
18.02
15.38
12.84
10.2
7.26
3.87
0.04
-4.1
-8.32
-12.36
-16.05
-19.36
-22.43
-25.56
-29.11
-33.4
-38.51
-44.18
-49.73
-54.19
-56.61
-56.35
-53.3
-47.94
-41.15
-33.81
-26.57
-19.7
-13.17
-6.87
-0.69
5.28
10.85
15.79
19.92
23.13
25.4
26.8
27.46
27.53
27.22
26.72
26.23
25.9
25.81
25.97
26.31
26.64
26.72
26.29
25.14
23.23
20.7
17.8
14.78
11.79
8.82
5.72
2.31
-1.5
-5.61
-9.78
-13.69
-17.13
-20.05
-22.64
-25.25
-28.33
-32.25
-37.17
-42.91
-48.84
-54.02
-57.4
-58.17
-56.04
-51.31
-44.8
-37.51
-30.28
-23.58
-17.47
-11.72
-6.02
-0.16
5.92
12.04
17.94
23.26
27.7
31.01
33.11
34.13
34.34
34.11
33.81
33.66
33.72
33.87
33.9
33.64
32.97
31.87
30.37
28.46
26.14
23.44
20.45
17.39
14.48
11.89
9.63
7.47
5.11
2.29
-1.07
-4.84
-8.71
-12.39
-15.72
-18.73
-21.58
-24.5
-27.73
-31.48
-35.86
-40.85
-46.19
-51.32
-55.44
-57.72
-57.58
-54.89
-50.01
-43.64
-36.6
-29.52
-22.78
-16.41
-10.34
-4.44
1.37
7.11
12.69
17.98
22.76
26.74
29.68
31.5
32.32
32.45
32.31
32.22
32.32
32.57
32.79
32.8
32.49
31.86
30.92
29.69
28.14
26.25
24.05
21.63
19.13
16.69
14.41
12.31
10.29
8.19
5.8
2.98
-0.29
-3.89
-7.58
-11.15
-14.45
-17.54
-20.6
-23.86
-27.54
-31.73
-36.43
-41.5
-46.61
-51.24
-54.68
-56.19
-55.28
-51.84
-46.32
-39.58
-32.54
-25.95
-20.08
-14.81
-9.75
-4.51
1.09
6.95
12.75
18.13
22.74
26.34
28.88
30.38
31.06
31.17
31.02
30.86
30.84
30.96
31.09
31.08
30.77
30.1
29.13
27.92
26.5
24.87
22.99
20.87
18.56
16.2
13.92
11.81
9.81
7.76
5.44
2.71
-0.45
-3.91
-7.45
-10.84
-13.96
-16.82
-19.53
-22.25
-25.2
-28.56
-32.45
-36.9
-41.72
-46.42
-50.28
-52.51
-52.5
-50.04
-45.44
-39.39
-32.77
-26.3
-20.38
-15.04
-10.02
-5.02
0.15
5.46
10.68
15.44
19.41
22.36
24.31
25.44
26.01
26.29
26.46
26.59
26.7
26.8
26.91
27.02
27.06
26.89
26.29
25.11
23.31
21.06
18.62
16.3
14.29
12.59
11.05
9.39
7.37
4.87
1.94
-1.21
-4.32
-7.14
-9.58
-11.73
-13.79
-16.06
-18.83
-22.29
-26.46
-31.19
-36.09
-40.54
-43.79
-45.14
-44.16
-40.84
-35.68
-29.52
-23.32
-17.75
-13.07
-9.09
-5.36
-1.43
2.87
7.43
11.88
15.84
19.02
21.41
23.15
24.42
25.34
25.96
26.27
26.32
26.24
26.23
26.41
26.74
27.05
27.06
26.51
25.3
23.5
21.33
19.01
16.73
14.52
12.38
10.25
8.09
5.83
3.45
0.88
-1.91
-4.91
-8.05
-11.2
-14.26
-17.17
-19.95
-22.77
-25.81
-29.3
-33.33
-37.81
-42.42
-46.59
-49.63
-50.93
-50.14
-47.32
-42.89
-37.49
-31.75
-26.14
-20.91
-16.16
-11.82
-7.8
-3.94
-0.08
3.94
8.19
12.66
17.15
21.36
24.9
27.44
28.83
29.17
28.79
28.16
27.7
27.67
28.05
28.65
29.15
29.25
28.68
27.28
25.1
22.33
19.38
16.71
14.69
13.44
12.74
12.13
11.11
9.38
6.9
3.86
0.57
-2.72
-5.9
-8.92
-11.76
-14.39
-16.79
-19.02
-21.29
-23.94
-27.3
-31.53
-36.41
-41.28
-45.2
-47.17
-46.62
-43.54
-38.53
-32.55
-26.49
-20.92
-15.93
-11.32
-6.79
-2.22
2.31
6.61
10.52
13.92
16.8
19.15
20.94
22.13
22.7
22.75
22.41
21.88
21.33
20.84
20.44
20.07
19.68
19.18
18.48
17.45
15.97
13.98
11.54
8.83
6.11
3.61
1.4
-0.63
-2.75
-5.29
-8.46
-12.25
-16.44
-20.69
-24.69
-28.31
-31.6
-34.84
-38.34
-42.35
-46.98
-52.14
-57.56
-62.86
-67.48
-70.73
-71.85
-70.32
-66.13
-59.94
-52.89
-46.1
-40.21
-35.03
-29.75
-23.5
-15.98
-7.66
0.39
7.09
11.92
15.16
17.59
20.12
23.3
27.32
32.01
37.1
42.3
47.33
51.94
55.89
59.07
61.51
63.21
64.05
63.76
62.16
59.53
56.83
55.33
55.99
58.73
62.28
64.72
64.47
61.1
55.53
49.38
44.03
40.01
36.91
33.93
30.4
26.02
20.69
14.18
6.17
-3.53
-14.48
-25.36
-34.25
-39.22
-39.17
-34.36
-26.59
-18.66
-13.42
-12.6
-15.98
-21.41
-25.67
-26.08
-21.79
-14.28
-6.55
-1.41
0.05
-0.97
-1.75
0.3
6.07
14.24
21.68
24.67
20.08
6.28
-16.15
-44.02
-71.58
-91.48
-96.85
-83.97
-54.28
-14.58
24.91
54.12
66.5
60.76
40.44
11.77
-18.8
-46.2
-67.27
-80.43
-85.23
-82.26
-73.26
-61.02
-48.83
-39.65
-35.03
-34.73
-36.92
-38.96
-38.53
-34.42
-26.75
-16.76
-6.11
3.7
11.72
17.58
21.41
23.62
24.72
25.24
25.58
25.87
25.97
25.59
24.52
22.88
21.18
20.18
20.54
22.38
25.19
28.04
30.05
30.84
30.74
30.52
30.96
32.38
34.57
37.02
39.28
41.25
43.15
45.16
47.1
48.2
47.21
42.88
34.43
22.04
6.94
-8.83
-22.88
-33.24
-39.03
-40.81
-40.39
-40.12
-41.82
-45.94
-51.17
-54.73
-53.28
-44.13
-26.4
-1.65
26.19
51.74
69.72
76.5
71.12
55.41
33.3
9.42
-12.18
-28.85
-39.48
-44.21
-43.95
-39.91
-33.42
-25.66
-17.61
-10.03
-3.38
2.09
6.36
9.59
12.01
13.79
14.8
14.63
12.78
9.14
4.3
-0.36
-3.2
-3.09
0.0
4.94
9.95
13.5
14.87
14.3
12.61
10.65
8.95
7.67
6.84
6.58
7.14
8.86
12.04
16.92
23.67
32.25
42.24
52.56
61.45
66.84
67.02
61.41
51.07
38.4
26.42
17.57
12.77
11.13
10.39
8.0
2.23
-7.03
-18.33
-29.3
-37.83
-42.99
-45.4
-46.94
-49.89
-55.85
-64.98
-75.62
-84.44
-87.12
-79.52
-59.11
-26.45
14.04
54.61
86.14
101.05
96.05
73.42
40.13
5.13
-24.01
-43.46
-53.54
-57.21
-57.75
-56.87
-54.39
-49.1
-40.25
-28.45
-15.47
-3.17
7.55
17.31
27.63
39.65
53.1
66.17
76.29
81.44
81.11
76.39
69.29
61.76
55.02
49.35
44.42
39.63
34.46
28.58
22.05
15.39
9.53
5.5
4.01
4.96
7.4
9.82
10.87
9.99
7.61
4.9
3.11
2.96
4.22
5.77
5.98
3.38
-2.77
-12.08
-23.18
-34.17
-43.32
-49.55
-52.56
-52.57
-50.01
-45.29
-38.82
-31.11
-22.85
-14.71
-7.12
-0.09
6.7
13.6
20.65
27.48
33.42
37.83
40.42
41.32
41.03
40.11
39.01
37.92
36.86
35.64
34.16
32.42
30.59
29.01
27.99
27.69
27.86
27.9
26.92
24.05
18.76
11.07
1.64
-8.44
-17.93
-25.86
-31.83
-36.1
-39.29
-42.03
-44.67
-47.21
-49.55
-51.72
-53.95
-56.46
-59.25
-62.05
-64.48
-66.29
-67.5
-68.25
-68.58
-68.2
-66.73
-63.98
-60.24
-56.27
-52.81
-50.07
-47.5
-44.06
-38.81
-31.53
-22.92
-14.14
-6.34
-0.09
4.73
8.72
12.5
16.33
20.04
23.17
25.38
26.63
27.17
27.38
27.48
27.39
26.84
25.55
23.42
20.57
17.27
13.91
10.81
8.25
6.38
5.16
4.31
3.31
1.63
-1.08
-4.77
-9.0
-13.15
-16.67
-19.29
-21.07
-22.19
-22.91
-23.44
-24.03
-25.0
-26.76
-29.6
-33.6
-38.44
-43.46
-47.78
-50.51
-51.11
-49.44
-45.89
-41.18
-36.08
-31.22
-26.83
-22.87
-19.16
-15.62
-12.28
-9.23
-6.44
-3.77
-1.04
1.78
4.54
6.88
8.54
9.48
9.92
10.28
10.85
11.74
12.84
13.96
14.95
15.76
16.37
16.67
16.53
15.89
14.84
13.61
12.51
11.68
10.99
10.13
8.73
6.7
4.16
1.5
-0.94
-3.03
-5.02
-7.3
-10.31
-14.21
-18.76
-23.3
-26.91
-28.72
-28.14
-25.05
-19.87
-13.41
-6.62
-0.29
5.09
9.43
12.89
15.74
18.11
20.04
21.5
22.5
23.14
23.58
23.95
24.31
24.63
24.88
25.08
25.35
25.83
26.59
27.55
28.47
29.0
28.76
27.48
25.03
21.55
17.41
13.16
9.37
6.46
4.52
3.32
2.45
1.43
-0.03
-1.96
-4.18
-6.39
-8.29
-9.7
-10.65
-11.35
-12.17
-13.5
-15.63
-18.63
-22.27
-25.97
-28.84
-29.86
-28.15
-23.28
-15.54
-5.93
4.15
13.33
20.76
26.3
30.33
33.36
35.66
37.07
37.11
35.43
32.17
28.09
24.4
22.34
22.74
25.75
30.79
36.74
42.16
45.61
45.94
42.54
35.51
25.74
14.72
4.14
-4.59
-10.69
-14.13
-15.48
-15.52
-15.07
-14.85
-15.52
-17.66
-21.58
-27.12
-33.52
-39.53
-43.86
-45.74
-45.37
-43.86
-42.79
-43.57
-46.88
-52.44
-59.17
-65.64
-70.6
-73.34
-73.79
-72.39
-69.8
-66.52
-62.79
-58.48
-53.26
-46.81
-38.97
-29.84
-19.7
-8.99
1.8
12.09
21.25
28.67
33.92
36.87
37.86
37.56
36.81
36.32
36.49
37.25
38.22
38.96
39.13
38.69
37.83
36.82
35.81
34.74
33.46
31.77
29.66
27.36
25.25
23.77
23.15
23.41
24.28
25.32
26.1
26.22
25.45
23.69
20.96
17.36
13.02
8.15
2.96
-2.37
-7.73
-13.02
-18.06
-22.58
-26.28
-28.96
-30.71
-31.93
-33.08
-34.4
-35.71
-36.49
-36.16
-34.45
-31.58
-28.19
-24.94
-22.28
-20.19
-18.41
-16.65
-14.82
-13.08
-11.76
-11.15
-11.29
-11.87
-12.27
-11.76
-9.75
-6.1
-1.24
3.96
8.47
11.57
13.12
13.66
14.11
15.32
17.73
21.09
24.65
27.49
28.97
28.97
27.98
26.91
26.62
27.58
29.53
31.56
32.47
31.38
28.22
24.03
20.74
20.48
24.81
34.06
47.14
61.78
74.97
83.54
84.79
77.16
60.81
37.98
12.42
-11.7
-31.44
-46.06
-56.74
-65.29
-72.47
-77.25
-77.4
-71.24
-59.24
-44.35
-30.94
-22.9
-22.23
-28.78
-40.7
-54.97
-67.75
-74.78
-72.3
-58.69
-35.55
-7.57
19.34
40.59
54.79
63.6
70.03
75.95
80.61
81.23
75.14
61.89
44.0
25.76
10.98
1.24
-4.63
-9.4
-15.62
-24.16
-33.81
-42.05
-46.55
-46.38
-42.49
-37.18
-33.05
-31.81
-33.63
-37.35
-40.74
-41.46
-37.79
-29.18
-16.25
-0.55
16.12
31.98
45.44
55.09
59.69
58.44
51.45
40.09
26.89
14.92
6.99
4.92
9.15
18.65
30.94
42.67
50.36
51.31
44.14
29.16
8.17
-16.02
-40.25
-61.62
-77.83
-87.48
-90.29
-87.36
-80.97
-74.11
-69.47
-68.63
-71.52
-76.66
-82.02
-85.99
-88.0
-88.57
-89.06
-90.9
-95.02
-101.46
-109.38
-117.39
-124.03
-128.24
-129.74
-129.03
-127.12
-125.06
-123.55
-122.67
-121.88
-120.16
-116.14
-108.44
-96.13
-79.24
-59.12
-38.28
-19.71
-5.71
3.04
7.54
9.6
10.41
9.83
6.62
-0.09
-9.45
-18.51
-23.18
-19.96
-7.4
13.5
39.86
68.07
94.64
116.63
131.75
138.45
136.3
126.22
110.45
92.0
73.79
57.92
45.37
36.2
29.82
25.45
22.22
19.33
16.08
11.98
6.87
0.92
-5.35
-11.14
-15.56
-17.93
-18.03
-16.11
-12.82
-8.75
-4.18
0.99
7.0
13.94
21.54
29.26
36.48
42.85
48.38
53.43
58.53
64.13
70.32
76.65
82.15
85.52
85.62
82.07
75.67
68.26
62.1
58.86
58.97
61.38
64.33
66.13
65.95
63.87
60.47
56.26
51.36
45.55
38.71
31.08
23.29
16.05
9.82
4.59
-0.01
-4.48
-9.15
-14.21
-19.67
-25.52
-31.78
-38.43
-45.4
-52.44
-59.11
-64.81
-68.8
-70.45
-69.31
-65.38
-59.06
-51.04
-42.17
-33.2
-24.65
-16.77
-9.64
-3.17
2.69
8.02
12.86
17.2
21.01
24.21
26.69
28.31
28.99
28.77
27.88
26.73
25.86
25.76
26.58
28.05
29.43
29.79
28.42
25.27
21.21
17.79
16.72
19.0
24.37
31.16
36.92
39.39
37.54
32.1
25.35
20.07
18.3
20.24
23.93
25.93
22.73
12.35
-4.46
-24.13
-41.45
-51.12
-49.23
-34.16
-6.85
29.15
67.55
99.9
117.44
114.46
91.58
56.72
22.53
1.17
-1.4
12.19
32.75
50.14
58.84
60.33
61.0
67.38
82.06
102.58
123.62
140.53
151.5
157.31
159.19
156.68
147.54
129.56
102.79
70.89
40.34
17.64
6.37
5.75
11.4
17.76
20.58
18.45
12.56
5.25
-1.46
-6.87
-11.5
-16.63
-23.52
-32.89
-44.65
-57.9
-71.18
-83.04
-92.46
-99.01
-102.72
-103.62
-101.47
-95.74
-86.01
-72.58
-56.75
-40.65
-26.63
-16.53
-11.18
-10.43
-13.38
-18.77
-25.41
-32.19
-38.1
-42.24
-43.91
-42.84
-39.28
-34.01
-27.97
-22.06
-16.79
-12.34
-8.61
-5.47
-2.84
-0.69
1.09
2.75
4.63
7.06
10.17
13.8
17.58
21.1
24.0
26.09
27.41
28.26
29.22
30.91
33.76
37.65
41.77
45.11
47.04
47.88
49.01
52.03
57.71
65.26
72.6
77.3
77.62
72.84
62.73
46.97
25.22
-1.85
-31.38
-58.16
-76.09
-80.61
-70.78
-49.77
-23.24
3.01
25.21
42.06
53.95
61.57
65.18
64.81
60.99
55.32
50.17
47.93
49.92
55.8
63.7
70.94
75.01
74.25
68.28
57.87
44.74
31.14
19.3
10.72
5.48
2.05
-2.08
-9.02
-19.23
-31.14
-41.99
-49.6
-53.82
-56.62
-60.73
-67.74
-76.82
-85.09
-89.45
-88.53
-83.71
-78.51
-76.77
-80.73
-90.03
-101.82
-112.0
-116.89
-114.44
-104.61
-89.13
-70.5
-51.28
-33.75
-20.07
-12.16
-11.29
-17.34
-28.76
-43.42
-60.01
-79.13
-102.82
-132.48
-166.58
-199.58
-223.31
-230.16
-216.4
-183.63
-137.8
-86.52
-36.45
7.87
43.66
69.31
84.11
88.87
86.56
81.85
79.59
83.14
93.02
106.94
121.08
131.69
136.22
133.76
124.63
109.73
90.06
66.61
40.49
13.19
-13.56
-38.19
-59.82
-78.5
-94.91
-109.46
-121.59
-129.63
-131.5
-126.1
-114.31
-99.19
-85.08
-75.99
-74.18
-79.49
-89.61
-100.79
-108.88
-110.21
-102.41
-85.04
-59.96
-30.96
-2.71
20.71
37.05
46.19
49.54
48.93
45.62
40.01
32.12
22.22
11.25
0.73
-7.8
-13.26
-15.39
-14.64
-11.83
-7.82
-3.4
0.81
4.28
6.58
7.38
6.61
4.51
1.63
-1.2
-3.08
-3.28
-1.55
1.73
5.53
8.46
9.25
7.22
2.62
-3.44
-9.21
-12.92
-13.22
-9.63
-2.59
6.67
16.56
25.63
33.04
38.73
43.32
47.65
52.33
57.45
62.66
67.43
71.5
74.9
77.79
80.06
81.1
80.08
76.48
70.7
64.15
58.74
56.06
56.61
59.7
63.92
68.03
71.61
75.07
79.1
83.79
88.14
90.33
88.63
82.25
71.82
59.09
46.15
34.5
24.69
16.43
9.1
2.4
-3.48
-7.93
-10.43
-10.87
-9.67
-7.6
-5.44
-3.57
-1.77
0.69
4.71
10.92
19.17
28.6
37.76
45.15
49.57
50.41
47.68
41.89
33.94
25.01
16.33
9.04
3.89
1.06
0.19
0.58
1.52
2.53
3.47
4.45
5.71
7.44
9.67
12.14
14.3
15.24
13.95
9.56
1.79
-8.86
-21.2
-33.75
-45.23
-54.96
-62.84
-69.12
-74.05
-77.7
-79.95
-80.59
-79.53
-76.84
-72.78
-67.71
-62.05
-56.15
-50.16
-43.88
-36.83
-28.55
-18.98
-8.74
0.98
8.86
14.02
16.4
16.63
15.75
14.67
14.02
14.02
14.73
16.14
18.13
20.47
22.72
24.4
25.13
24.8
23.55
21.68
19.57
17.6
16.06
15.03
14.39
13.75
12.59
10.53
7.46
3.64
-0.4
-4.19
-7.57
-10.75
-14.24
-18.53
-23.71
-29.38
-34.56
-38.06
-38.8
-36.2
-30.4
-22.16
-12.69
-3.21
5.37
12.57
18.37
23.0
26.78
29.88
32.36
34.09
34.9
34.59
33.05
30.3
26.52
22.01
17.16
12.43
8.28
5.08
2.99
1.87
1.27
0.55
-0.83
-3.15
-6.21
-9.53
-12.55
-14.92
-16.67
-18.05
-19.43
-20.98
-22.75
-24.69
-26.79
-29.19
-31.94
-35.02
-38.18
-41.18
-43.94
-46.77
-50.21
-54.8
-60.69
-67.44
-74.01
-79.06
-81.44
-80.52
-76.35
-69.62
-61.36
-52.62
-44.13
-36.2
-28.68
-21.25
-13.59
-5.58
2.65
10.75
18.32
25.01
30.57
34.82
37.68
39.15
39.42
38.79
37.74
36.76
36.25
36.29
36.72
37.12
37.06
36.23
34.57
32.22
29.38
26.31
23.16
20.05
17.01
14.05
11.05
7.88
4.38
0.51
-3.66
-7.93
-12.04
-15.86
-19.4
-22.83
-26.52
-30.88
-36.25
-42.76
-50.18
-57.82
-64.58
-69.23
-70.78
-68.82
-63.72
-56.45
-48.22
-40.03
-32.36
-25.12
-17.9
-10.27
-2.06
6.58
15.23
23.41
30.65
36.62
41.12
44.09
45.6
45.9
45.35
44.37
43.35
42.54
42.02
41.74
41.54
41.21
40.52
39.29
37.44
35.02
32.21
29.23
26.29
23.49
20.78
18.0
14.95
11.48
7.55
3.27
-1.13
-5.38
-9.21
-12.56
-15.59
-18.68
-22.31
-26.87
-32.54
-39.14
-46.11
-52.54
-57.37
-59.58
-58.56
-54.27
-47.33
-38.8
-29.83
-21.26
-13.41
-6.1
1.06
8.41
16.06
23.78
31.16
37.79
43.34
47.65
50.67
52.49
53.26
53.22
52.64
51.76
50.82
49.91
49.05
48.11
46.92
45.28
43.08
40.34
37.2
33.92
30.72
27.78
25.09
22.54
19.95
17.18
14.21
11.14
8.18
5.55
3.38
1.68
0.35
-0.85
-2.16
-3.82
-5.99
-8.71
-11.84
-15.07
-17.93
-19.89
-20.54
-19.67
-17.37
-13.98
-9.95
-5.7
-1.4
2.93
7.49
12.4
17.62
22.86
27.65
31.46
33.88
34.72
34.05
32.07
29.02
25.14
20.64
15.79
11.0
6.79
3.73
2.15
2.09
3.17
4.65
5.73
5.74
4.38
1.79
-1.58
-5.11
-8.23
-10.62
-12.22
-13.17
-13.81
-14.45
-15.35
-16.65
-18.33
-20.27
-22.29
-24.2
-25.86
-27.29
-28.6
-30.09
-32.06
-34.82
-38.52
-43.05
-47.97
-52.52
-55.73
-56.62
-54.51
-49.26
-41.42
-32.09
-22.53
-13.78
-6.31
0.03
5.76
11.45
17.32
23.21
28.67
33.26
36.69
38.99
40.3
40.79
40.54
39.64
38.26
36.79
35.68
35.3
35.67
36.51
37.3
37.59
37.19
36.19
34.83
33.3
31.65
29.86
27.93
25.99
24.27
22.95
21.96
20.99
19.58
17.33
14.21
10.63
7.36
5.23
4.71
5.6
7.05
7.88
7.1
4.38
0.12
-4.69
-8.84
-11.21
-10.88
-7.23
-0.12
9.82
20.94
30.7
36.5
36.76
31.72
23.49
15.02
8.75
5.47
4.22
3.13
0.63
-3.75
-9.28
-14.68
-18.9
-21.57
-22.94
-23.5
-23.6
-23.41
-22.97
-22.37
-21.83
-21.57
-21.62
-21.76
-21.61
-20.75
-18.92
-16.12
-12.65
-8.97
-5.68
-3.24
-2.0
-2.06
-3.36
-5.65
-8.62
-11.88
-15.05
-17.85
-20.2
-22.26
-24.49
-27.46
-31.59
-37.02
-43.53
-50.59
-57.49
-63.48
-67.76
-69.61
-68.53
-64.56
-58.34
-51.04
-43.97
-38.05
-33.45
-29.5
-25.09
-19.21
-11.54
-2.58
6.55
14.55
20.45
23.86
25.03
24.56
23.1
21.15
18.88
16.34
13.59
10.84
8.44
6.73
5.79
5.48
5.38
5.09
4.34
3.19
1.89
0.8
0.13
-0.16
-0.29
-0.61
-1.42
-2.86
-4.88
-7.32
-9.94
-12.5
-14.82
-16.8
-18.48
-20.0
-21.6
-23.59
-26.22
-29.6
-33.7
-38.22
-42.63
-46.19
-48.09
-47.74
-44.96
-40.09
-33.97
-27.58
-21.73
-16.74
-12.43
-8.28
-3.75
1.49
7.38
13.55
19.48
24.68
28.84
31.9
33.97
35.23
35.85
35.98
35.76
35.34
34.95
34.72
34.68
34.67
34.38
33.48
31.81
29.42
26.63
23.86
21.51
19.84
18.92
18.58
18.39
17.78
16.11
12.85
7.78
1.02
-6.95
-15.42
-23.6
-30.88
-36.86
-41.41
-44.67
-46.92
