1.61
6.49
11.77
17.32
22.78
27.76
31.86
34.81
36.51
37.14
37.04
36.67
36.46
36.65
37.32
38.34
39.48
40.46
41.02
40.93
39.98
38.09
35.35
31.98
28.32
24.71
21.32
18.11
14.88
11.34
7.32
2.85
-1.81
-6.3
-10.37
-13.95
-17.23
-20.53
-24.21
-28.52
-33.53
-39.12
-44.9
-50.22
-54.18
-55.87
-54.65
-50.42
-43.76
-35.72
-27.52
-20.1
-13.91
-8.87
-4.58
-0.53
3.66
8.16
12.92
17.68
22.11
25.89
28.82
30.94
32.43
33.58
34.6
35.53
36.35
36.98
37.42
37.71
37.84
37.73
37.16
35.94
33.99
31.45
28.68
26.12
24.08
22.64
21.57
20.47
18.93
16.66
13.65
10.1
6.33
2.68
-0.6
-3.5
-6.22
-9.08
-12.46
-16.64
-21.67
-27.32
-33.04
-38.01
-41.34
-42.26
-40.37
-35.8
-29.21
-21.65
-14.22
-7.72
-2.44
1.84
5.65
9.54
13.86
18.58
23.4
27.88
31.56
34.15
35.56
35.95
35.69
35.22
34.93
35.05
35.57
36.28
36.9
37.16
36.84
35.86
34.16
31.78
28.9
25.73
22.59
19.77
17.37
15.33
13.46
11.54
9.42
7.11
4.75
2.47
0.39
-1.51
-3.33
-5.22
-7.34
-9.83
-12.77
-16.2
-20.04
-24.02
-27.58
-29.95
-30.37
-28.38
-24.06
-18.12
-11.62
-5.59
-0.64
3.14
6.17
8.94
11.83
14.87
17.85
20.49
22.58
24.04
24.89
25.17
24.99
24.43
23.66
22.88
22.29
21.98
21.95
22.04
21.99
21.56
20.55
18.91
16.74
14.25
11.73
9.43
7.46
5.76
4.19
2.55
0.76
-1.17
-3.1
-4.96
-6.74
-8.62
-10.84
-13.64
-17.11
-21.11
-25.2
-28.7
-30.86
-31.06
-29.03
-25.01
-19.69
-14.0
-8.82
-4.71
-1.74
0.4
2.22
4.18
6.57
9.36
12.37
15.28
17.82
19.76
20.98
21.44
21.15
20.24
18.91
17.45
16.21
15.43
15.19
15.34
15.54
15.38
14.54
12.96
10.79
8.39
6.1
4.12
2.46
0.97
-0.55
-2.23
-4.06
-5.95
-7.8
-9.54
-11.17
-12.72
-14.26
-15.96
-18.02
-20.66
-23.96
-27.63
-31.08
-33.46
-33.97
-32.26
-28.53
-23.5
-18.08
-13.06
-8.85
-5.5
-2.82
-0.5
1.74
4.07
6.59
9.25
11.91
14.34
16.34
17.8
18.71
19.13
19.12
18.67
17.75
16.47
15.04
13.77
12.93
12.6
12.6
12.58
12.21
11.3
9.92
8.38
6.98
5.9
5.13
4.47
3.66
2.54
1.04
-0.78
-2.73
-4.67
-6.47
-8.08
-9.51
-10.87
-12.34
-14.11
-16.39
-19.21
-22.45
-25.72
-28.49
-30.1
-30.07
-28.18
-24.69
-20.2
-15.5
-11.33
-8.08
-5.72
-3.96
-2.36
-0.57
1.54
3.9
6.32
8.59
10.52
11.98
12.9
13.24
13.03
12.36
11.41
10.39
9.53
9.02
8.88
9.01
9.19
9.14
8.71
7.84
6.64
5.33
4.1
3.09
2.32
1.74
1.2
0.59
-0.18
-1.2
-2.52
-4.16
-6.09
-8.25
-10.57
-12.94
-15.23
-17.32
-19.08
-20.51
-21.73
-23.02
-24.74
-27.17
-30.29
-33.67
-36.55
-38.03
-37.47
-34.66
-30.01
-24.33
-18.54
-13.37
-9.17
-5.88
-3.24
-0.91
1.34
3.61
5.92
8.22
10.48
12.64
14.58
16.16
17.2
17.68
17.69
17.52
17.52
18.02
19.12
20.77
22.71
24.62
26.17
27.05
27.1
26.32
25.05
23.9
23.7
25.14
28.49
33.29
38.32
41.87
42.23
38.27
29.79
17.58
3.17
-11.68
-25.41
-37.02
-46.09
-52.73
-57.29
-60.19
-61.75
-62.14
-61.38
-59.42
-56.2
-51.72
-46.09
-39.58
-32.61
-25.74
-19.47
-14.13
-9.85
-6.54
-4.03
-2.12
-0.66
0.45
1.42
2.49
3.97
6.01
8.57
11.32
13.8
15.63
16.61
16.86
16.62
16.18
15.69
15.14
14.39
13.24
11.6
9.55
7.29
5.08
3.11
1.46
0.07
-1.26
-2.67
-4.31
-6.27
-8.56
-11.1
-13.74
-16.26
-18.49
-20.33
-21.86
-23.29
-24.91
-26.92
-29.44
-32.45
-35.82
-39.26
-42.35
-44.5
-45.07
-43.58
-39.88
-34.32
-27.63
-20.75
-14.52
-9.43
-5.51
-2.46
0.2
2.9
5.93
9.33
12.95
16.5
19.69
22.26
24.05
25.08
25.44
25.32
24.99
24.7
24.69
25.09
25.87
26.84
27.63
27.92
27.46
26.23
24.43
22.36
20.35
18.59
17.22
16.19
15.48
14.95
14.46
13.79
12.71
11.1
8.99
6.6
4.26
2.31
0.95
0.16
-0.31
-0.81
-1.69
-3.22
-5.47
-8.36
-11.6
-14.77
-17.34
-18.87
-19.2
-18.58
-17.66
-17.23
-17.82
-19.42
-21.42
-22.77
-22.41
-19.64
-14.24
-6.41
3.45
14.83
27.15
39.62
51.26
61.07
68.24
72.46
73.99
73.57
72.13
70.57
69.4
68.87
68.86
69.11
69.26
68.92
67.7
65.17
61.09
55.42
48.41
40.59
32.58
24.9
17.79
11.25
5.15
-0.58
-5.94
-10.89
-15.56
-20.26
-25.36
-31.17
-37.69
-44.77
-52.1
-59.46
-66.65
-73.35
-79.0
-82.86
-84.2
-82.68
-78.58
-72.73
-66.24
-60.03
-54.51
-49.56
-44.72
-39.54
-33.82
-27.72
-21.62
-15.94
-10.96
-6.77
-3.34
-0.63
1.39
2.73
3.49
3.91
4.32
5.1
6.46
8.34
10.43
12.27
13.43
13.71
13.23
12.35
11.51
11.03
10.93
10.99
10.81
10.07
8.65
6.67
4.41
2.14
0.08
-1.74
-3.41
-5.1
-7.04
-9.46
-12.5
-16.13
-20.02
-23.53
-25.81
-26.06
-23.87
-19.49
-13.83
-8.18
-3.77
-1.3
-0.8
-1.68
-3.11
-4.43
-5.32
-5.85
-6.34
-7.06
-8.22
-9.81
-11.74
-13.83
-15.84
-17.55
-18.73
-19.22
-18.96
-18.01
-16.56
-14.88
-13.29
-12.12
-11.56
-11.68
-12.38
-13.37
-14.29
-14.83
-14.87
-14.52
-14.05
-13.71
-13.68
-13.88
-14.11
-14.11
-13.8
-13.24
-12.73
-12.69
-13.55
-15.61
-18.9
-23.1
-27.5
-31.15
-33.02
-32.44
-29.23
-23.83
-17.14
-10.18
-3.8
1.61
6.05
9.8
13.22
16.57
19.95
23.26
26.28
28.74
30.36
30.96
30.46
28.94
26.61
23.77
20.78
17.93
15.46
13.52
12.11
11.15
10.46
9.86
9.16
8.27
7.14
5.79
4.31
2.77
1.31
-0.03
-1.24
-2.4
-3.66
-5.2
-7.12
-9.37
-11.8
-14.2
-16.45
-18.56
-20.72
-23.18
-26.2
-29.96
-34.46
-39.55
-44.8
-49.5
-52.77
-53.75
-51.9
-47.33
-40.75
-33.32
-26.15
-19.91
-14.69
-10.1
-5.6
-0.81
4.35
9.63
14.71
19.27
23.15
26.3
28.72
30.5
31.7
32.47
32.94
33.27
33.57
33.89
34.21
34.43
34.42
34.09
33.36
32.21
30.64
28.72
26.57
24.38
22.38
20.68
19.27
17.94
16.33
14.08
11.02
7.24
3.1
-0.94
-4.49
-7.36
-9.65
-11.68
-13.86
-16.62
-20.23
-24.75
-29.98
-35.4
-40.24
-43.6
-44.68
-43.02
-38.69
-32.35
-25.03
-17.81
-11.44
-6.17
-1.79
2.17
6.12
10.24
14.43
18.43
21.95
24.82
26.98
28.49
29.45
29.95
30.1
30.0
29.76
29.51
29.35
29.31
29.32
29.24
28.88
28.06
26.67
24.7
22.3
19.7
17.2
15.04
13.3
11.85
10.39
8.59
6.19
3.25
0.02
-3.02
-5.5
-7.16
-8.07
-8.45
-8.68
-9.1
-9.97
-11.49
-13.75
-16.68
-20.0
-23.16
-25.47
-26.27
-25.16
-22.17
-17.69
-12.28
-6.52
-0.79
4.71
9.87
14.55
18.59
21.84
24.21
25.76
26.65
27.08
27.26
27.35
27.57
28.04
28.91
30.16
31.71
33.36
34.82
35.84
36.15
35.58
34.05
31.63
28.53
25.06
21.62
18.53
16.01
14.05
12.46
10.92
9.07
6.71
3.82
0.59
-2.67
-5.64
-8.16
-10.24
-12.1
-14.1
-16.64
-20.03
-24.38
-29.45
-34.63
-39.01
-41.61
-41.71
-39.15
-34.37
-28.3
-21.99
-16.3
-11.62
-7.84
-4.61
-1.46
1.86
5.4
9.0
12.4
15.36
17.73
19.45
20.57
21.19
21.43
21.39
21.11
20.65
20.06
19.44
18.92
18.57
18.35
18.04
17.4
16.23
14.53
12.54
10.59
9.0
7.85
7.01
6.15
4.99
3.4
1.41
-0.84
-3.23
-5.69
-8.18
-10.63
-12.95
-15.01
-16.8
-18.46
-20.3
-22.67
-25.83
-29.72
-33.93
-37.72
-40.18
-40.54
-38.43
-34.08
-28.2
-21.75
-15.63
-10.4
-6.13
-2.61
0.54
3.57
6.62
9.72
12.81
15.82
18.62
20.99
22.65
23.41
23.24
22.35
21.1
19.87
18.96
18.47
18.38
18.54
18.77
18.88
18.71
18.15
17.17
15.82
14.23
12.57
10.94
9.4
7.93
6.5
5.03
3.45
1.67
-0.33
-2.53
-4.79
-6.96
-8.93
-10.72
-12.48
-14.52
-17.08
-20.3
-24.08
-28.09
-31.78
-34.49
-35.62
-34.8
-32.0
-27.54
-22.05
-16.27
-10.82
-6.1
-2.2
1.02
3.81
6.44
9.02
11.53
13.83
15.74
17.17
18.12
18.67
18.95
19.05
18.96
18.61
17.96
17.08
16.11
15.23
14.53
13.94
13.25
12.25
10.77
8.84
6.64
4.46
2.54
1.01
-0.2
-1.32
-2.64
-4.39
-6.61
-9.19
-11.87
-14.37
-16.54
-18.37
-20.04
-21.8
-23.94
-26.64
-30.0
-33.89
-38.01
-41.82
-44.6
-45.67
-44.6
-41.44
-36.74
-31.38
-26.22
-21.7
-17.68
-13.55
-8.57
-2.28
5.2
13.21
20.82
27.22
31.95
34.96
36.48
36.83
36.29
35.1
33.54
31.94
30.68
30.02
30.02
30.46
30.9
30.84
29.97
28.22
25.85
23.29
21.0
19.28
18.28
17.92
18.01
18.3
18.53
18.45
17.86
16.64
14.84
12.59
10.02
7.14
3.81
-0.21
-5.13
-10.95
-17.47
-24.22
-30.62
-36.01
-39.81
-41.58
-41.22
-38.93
-35.27
-30.98
-26.73
-22.93
-19.64
-16.63
-13.57
-10.21
-6.51
-2.65
1.03
4.18
6.57
8.12
8.94
9.3
9.46
9.63
9.85
10.06
10.19
10.16
10.01
9.81
9.59
9.33
8.92
8.24
7.19
5.78
4.1
2.32
0.62
-0.83
-2.01
-2.97
-3.95
-5.22
-6.98
-9.27
-11.96
-14.73
-17.22
-19.21
-20.68
-21.85
-23.18
-25.13
-28.04
-31.91
-36.3
-40.4
-43.2
-43.82
-41.8
-37.34
-31.2
-24.49
-18.23
-13.03
-8.89
-5.22
-1.09
4.42
11.86
21.21
31.62
41.63
49.49
53.78
53.88
50.25
44.2
37.36
31.03
25.84
21.69
18.14
14.78
11.43
8.15
5.04
2.08
-0.9
-3.98
-7.03
-9.74
-11.65
-12.51
-12.35
-11.54
-10.53
-9.69
-9.03
-8.3
-7.03
-4.93
-2.0
1.37
4.45
6.41
6.56
4.56
0.56
-4.79
-10.44
-15.23
-18.2
-18.98
-17.77
-15.34
-12.6
-10.24
-8.46
-6.93
-4.9
-1.65
3.22
9.56
16.64
23.35
28.57
31.49
31.86
30.02
26.71
22.78
18.95
15.65
13.11
11.41
10.52
10.3
10.43
10.43
9.77
8.09
5.35
1.94
-1.4
-3.74
-4.3
-2.66
0.98
5.75
10.31
13.17
13.12
9.68
3.14
-5.46
-14.81
-23.65
-31.07
-36.54
-39.84
-40.99
-40.24
-38.1
-35.27
-32.48
-30.2
-28.43
-26.78
-24.72
-21.89
-18.33
-14.44
-10.71
-7.47
-4.69
-2.05
0.82
4.17
8.01
12.19
16.41
20.43
24.03
27.07
29.53
31.47
33.04
34.4
35.65
36.71
37.36
37.28
36.24
34.23
31.39
28.05
24.47
20.83
17.1
13.2
9.08
4.82
0.7
-2.94
-5.86
-7.95
-9.37
-10.39
-11.4
-12.68
-14.38
-16.41
-18.57
-20.58
-22.3
-23.81
-25.42
-27.6
-30.79
-35.21
-40.74
-46.92
-52.94
-57.91
-60.92
-61.33
-58.92
-53.94
-47.04
-39.07
-30.75
-22.47
-14.16
-5.48
3.88
13.94
24.25
33.97
42.07
47.6
50.0
49.16
45.55
40.0
33.59
27.42
22.42
19.14
17.7
17.8
18.83
20.05
20.8
20.59
19.23
16.8
13.58
10.04
6.66
3.83
1.75
0.38
-0.49
-1.13
-1.81
-2.62
-3.57
-4.55
-5.45
-6.16
-6.75
-7.38
-8.39
-10.21
-13.14
-17.2
-21.93
-26.46
-29.71
-30.8
-29.36
-25.7
-20.71
-15.47
-10.86
-7.26
-4.57
-2.4
-0.32
1.89
4.23
6.53
8.67
10.68
12.69
14.92
17.43
20.14
22.77
24.97
26.43
26.96
26.55
25.26
23.31
20.91
18.32
15.82
13.64
12.01
11.07
10.89
11.39
12.36
13.5
14.46
14.94
14.8
14.16
13.39
12.96
13.22
14.15
15.22
15.44
13.68
8.95
0.83
-10.44
-23.96
-38.41
-52.22
-63.91
-72.18
-76.2
-75.7
-71.08
-63.31
-53.62
-43.22
-32.84
-22.75
-12.78
-2.66
7.58
17.5
26.3
33.09
37.22
38.56
37.54
34.96
31.81
28.85
26.55
24.98
23.98
23.32
22.86
22.56
22.43
22.44
22.53
22.54
22.28
21.66
20.59
19.05
16.96
14.2
10.71
6.41
1.38
-4.2
-10.0
-15.62
-20.66
-24.78
-27.82
-29.84
-31.16
-32.27
-33.69
-35.8
-38.73
-42.35
-46.33
-50.2
-53.36
-55.15
-54.96
-52.4
-47.49
-40.73
-32.99
-25.25
-18.21
-12.08
-6.62
-1.25
4.5
10.8
17.43
23.85
29.47
33.85
36.79
38.36
38.79
38.35
37.27
35.79
34.12
32.55
31.32
30.5
29.99
29.43
28.44
26.67
24.02
20.65
16.87
13.14
9.82
7.11
4.98
3.2
1.39
-0.78
-3.48
-6.61
-9.81
-12.71
-15.01
-16.69
-17.97
-19.25
-20.92
-23.24
-26.29
-29.93
-33.77
-37.23
-39.58
-40.19
-38.68
-35.13
-30.09
-24.4
-18.91
-14.21
-10.48
-7.52
-4.88
-2.16
0.89
4.27
7.76
11.02
13.67
15.47
16.36
16.47
16.08
15.5
14.98
14.62
14.43
14.32
14.25
14.14
13.89
13.33
12.27
10.6
8.34
5.82
3.4
1.46
0.11
-0.83
-1.73
-2.97
-4.68
-6.71
-8.72
-10.35
-11.46
-12.17
-12.82
-13.81
-15.44
-17.85
-20.88
-24.12
-26.93
-28.55
-28.34
-25.93
-21.4
-15.28
-8.36
-1.48
4.8
10.23
14.91
19.06
22.81
26.17
28.92
30.79
31.54
31.06
29.41
26.78
23.49
19.88
16.32
13.08
10.36
8.26
6.72
5.55
4.55
3.47
2.13
0.46
-1.51
-3.65
-5.76
-7.66
-9.17
-10.21
-10.69
-10.59
-9.93
-8.76
-7.23
-5.55
-3.96
-2.66
-1.77
-1.32
-1.28
-1.64
-2.43
-3.75
-5.72
-8.47
-12.04
-16.35
-21.02
-25.4
-28.61
-29.74
-28.25
-24.15
-18.12
-11.27
-4.71
0.77
4.99
8.18
10.73
12.96
14.94
16.65
18.08
19.31
20.43
21.44
22.12
22.18
21.37
19.7
17.49
15.15
13.07
11.39
10.05
8.85
7.67
6.53
5.53
4.77
4.26
3.92
3.62
3.3
2.96
2.66
2.43
2.24
2.01
1.65
1.22
0.88
0.86
1.33
2.25
3.41
4.41
4.9
4.59
3.39
1.35
-1.39
-4.52
-7.58
-10.0
-11.25
-11.04
-9.51
-7.23
-4.97
-3.37
-2.63
-2.46
-2.29
-1.56
-0.02
2.19
4.66
6.96
8.77
9.92
10.39
10.18
9.31
7.79
5.72
3.28
0.73
-1.66
-3.65
-5.15
-6.17
-6.84
-7.36
-7.94
-8.72
-9.7
-10.71
-11.47
-11.69
-11.26
-10.29
-9.17
-8.29
-7.95
-8.12
-8.51
-8.69
-8.37
-7.52
-6.43
-5.6
-5.54
-6.56
-8.66
-11.46
-14.29
-16.38
-17.03
-15.89
-13.03
-8.95
-4.44
-0.22
3.25
5.91
8.06
10.1
12.37
14.91
17.53
19.95
21.89
23.23
23.97
24.19
23.92
23.19
22.02
20.53
18.94
17.51
16.46
15.85
15.53
15.26
14.74
13.74
12.22
10.31
8.27
6.42
4.94
3.82
2.88
1.78
0.22
-1.97
-4.74
-7.88
-11.04
-13.93
-16.35
-18.3
-19.93
-21.54
-23.49
-26.06
-29.36
-33.21
-37.12
-40.34
-42.1
-41.79
-39.22
-34.69
-28.89
-22.67
-16.76
-11.61
-7.25
-3.49
-0.01
3.41
6.85
10.18
13.18
15.65
17.44
18.58
19.17
19.41
19.5
19.53
19.53
19.45
19.21
18.82
18.31
17.77
17.24
16.67
15.95
14.95
13.61
12.0
10.31
8.73
7.45
6.48
5.7
4.87
3.76
2.21
0.25
-1.97
-4.19
-6.16
-7.76
-9.03
-10.15
-11.38
-13.02
-15.25
-18.17
-21.73
-25.64
-29.4
-32.28
-33.52
-32.6
-29.45
-24.57
-18.85
-13.25
-8.43
-4.52
-1.25
1.82
5.02
8.38
11.75
14.89
17.63
19.89
21.7
23.04
23.91
24.3
24.29
24.01
23.64
23.35
23.2
23.23
23.37
23.53
23.58
23.34
22.64
21.37
19.54
17.33
14.92
12.51
10.25
8.12
6.09
4.08
2.0
-0.18
-2.5
-4.93
-7.43
-9.91
-12.31
-14.54
-16.66
-18.79
-21.13
-23.88
-27.13
-30.79
-34.51
-37.69
-39.63
-39.69
-37.56
-33.37
-27.65
-21.24
-14.91
-9.17
-4.2
0.19
4.24
8.15
11.94
15.45
18.5
20.96
22.81
24.11
24.92
25.28
25.19
24.69
23.92
23.13
22.56
22.43
22.74
23.32
23.89
24.16
23.94
23.17
21.93
20.34
18.55
16.64
14.67
12.61
10.38
7.87
5.0
1.78
-1.67
-5.13
-8.39
-11.35
-14.06
-16.71
-19.58
-22.91
-26.72
-30.75
-34.46
-37.1
-37.98
-36.68
-33.29
-28.39
-22.88
-17.64
-13.29
-10.01
-7.64
-5.85
-4.25
-2.56
-0.67
1.41
3.51
5.36
6.63
7.07
6.56
5.21
3.39
1.62
0.57
0.78
2.6
5.98
10.4
14.98
18.74
20.97
21.42
20.43
18.64
16.68
14.86
13.13
11.16
8.71
5.76
2.58
-0.38
-2.75
-4.39
-5.47
-6.34
-7.44
-9.1
-11.53
-14.74
-18.48
-22.24
-25.25
-26.65
-25.76
-22.3
-16.59
-9.5
-2.17
4.38
9.52
13.16
15.59
17.33
18.76
20.09
21.32
22.28
22.83
22.82
22.22
21.1
19.56
17.74
15.77
13.77
11.9
10.31
9.15
8.48
8.23
8.19
8.05
7.53
6.46
4.88
2.99
1.06
-0.66
-2.11
-3.35
-4.52
-5.79
-7.28
-8.99
-10.81
-12.58
-14.17
-15.5
-16.58
-17.55
-18.61
-19.99
-21.89
-24.43
-27.67
-31.43
-35.32
-38.69
-40.79
-40.94
-38.88
-34.85
-29.57
-23.95
-18.76
-14.36
-10.69
-7.39
-4.1
-0.62
3.05
6.76
10.3
13.5
16.21
18.31
19.74
20.49
20.69
20.53
20.24
19.98
19.78
19.6
19.35
19.02
18.64
18.23
17.79
17.24
16.45
15.34
13.91
12.24
10.44
8.65
6.93
5.34
3.89
2.59
1.41
0.25
-1.03
-2.54
-4.39
-6.54
-8.88
-11.21
-13.36
-15.27
-17.03
-18.92
-21.35
-24.68
-29.0
-33.89
-38.43
-41.29
-41.14
-37.16
-29.38
-18.76
-6.92
4.34
13.54
19.92
23.47
24.77
24.65
23.88
22.97
22.06
21.03
19.6
17.55
14.8
11.44
7.79
4.19
1.05
-1.36
-2.87
-3.47
-3.24
-2.35
-0.98
0.72
2.67
4.81
7.13
9.67
12.46
15.55
18.95
22.48
25.73
28.07
28.91
27.84
24.95
20.74
16.0
11.4
7.29
3.61
-0.03
-4.08
-8.8
-14.23
-20.14
-26.1
-31.58
-35.93
-38.55
-38.98
-37.12
-33.32
-28.33
-23.07
-18.33
-14.54
-11.67
-9.34
-7.08
-4.56
-1.69
1.36
4.28
6.77
8.62
9.76
10.24
10.18
9.8
9.3
8.9
8.75
8.89
9.28
9.76
10.16
10.31
10.09
9.4
8.23
6.64
4.78
2.91
1.3
0.09
-0.75
-1.49
-2.43
-3.82
-5.69
-7.82
-9.93
-11.76
-13.25
-14.54
-15.92
-17.7
-20.1
-23.21
-26.99
-31.18
-35.27
-38.57
-40.32
-39.93
-37.18
-32.41
-26.39
-20.08
-14.34
-9.65
-5.98
-3.0
-0.17
2.9
6.4
10.18
13.94
17.28
19.89
21.62
22.5
22.69
22.34
21.62
20.66
19.62
18.7
18.09
17.92
18.13
18.48
18.61
18.28
17.4
16.12
14.72
13.43
12.32
11.27
10.13
8.78
7.28
5.74
4.3
2.94
1.5
-0.25
-2.45
-5.08
-7.97
-10.82
-13.42
-15.72
-17.8
-19.85
-22.07
-24.68
-27.79
-31.44
-35.43
-39.24
-42.1
-43.18
-41.94
-38.39
-33.1
-27.06
-21.21
-16.12
-11.89
-8.17
-4.54
-0.7
3.41
7.62
11.71
15.46
18.7
21.32
23.21
24.3
24.66
24.44
23.92
23.37
22.95
22.68
22.47
22.19
21.77
21.21
20.57
19.83
18.92
17.69
15.98
13.79
11.29
8.76
6.5
4.7
3.25
1.93
0.43
-1.45
-3.7
-6.17
-8.63
-10.92
-13.03
-15.05
-17.16
-19.48
-22.01
-24.66
-27.22
-29.48
-31.17
-32.0
-31.63
-29.77
-26.35
-21.66
-16.36
-11.27
-7.06
-4.0
-1.8
0.1
2.23
4.84
7.81
10.82
13.58
15.99
18.05
19.81
21.24
22.23
22.78
22.97
23.01
23.09
23.28
23.47
23.48
23.17
22.53
21.73
20.96
20.38
19.97
19.54
18.85
17.69
16.06
14.12
12.18
10.52
9.19
8.02
6.66
4.79
2.26
-0.83
-4.16
-7.44
-10.48
-13.33
-16.18
-19.28
-22.82
-26.83
-31.16
-35.43
-39.1
-41.53
-42.16
-40.66
-37.13
-31.94
-25.77
-19.31
-13.07
-7.35
-2.2
2.48
6.88
11.12
15.33
19.47
23.39
26.82
29.42
30.91
31.18
30.35
28.71
26.71
24.67
22.82
21.23
19.86
18.61
17.42
16.23
14.96
13.51
11.78
9.75
7.51
5.29
3.32
1.71
0.39
-0.95
-2.61
-4.79
-7.46
-10.38
-13.23
-15.71
-17.73
-19.36
-20.81
-22.36
-24.3
-26.9
-30.26
-34.23
-38.32
-41.73
-43.53
-43.01
-39.95
-34.73
-28.24
-21.53
-15.43
-10.31
-6.09
-2.41
1.13
4.73
8.39
11.96
15.27
18.19
20.64
22.58
23.96
24.74
24.97
24.8
24.42
24.07
23.94
24.09
24.48
24.96
25.34
25.4
24.95
23.86
22.14
19.93
17.45
15.0
12.8
11.0
9.54
8.25
6.9
5.29
3.3
0.97
-1.52
-3.9
-5.99
-7.72
-9.27
-10.99
-13.32
-16.58
-20.79
-25.58
-30.24
-33.87
-35.62
-34.94
-31.78
-26.56
-20.05
-13.11
-6.44
-0.4
5.04
10.14
15.23
20.47
25.84
31.19
36.31
41.07
45.39
49.23
52.57
55.35
57.59
59.36
60.78
61.96
62.88
63.46
63.59
63.3
62.84
62.56
62.71
63.29
63.96
64.21
63.53
61.59
58.35
53.86
48.17
41.18
32.73
22.74
11.43
-0.64
-12.65
-23.72
-33.26
-41.11
-47.55
-53.22
-58.79
-64.71
-71.08
-77.63
-83.82
-89.01
-92.61
-94.08
-93.07
-89.5
-83.58
-75.87
-67.24
-58.61
-50.71
-43.89
-38.01
-32.62
-27.21
-21.46
-15.35
-9.13
-3.16
2.23
6.85
10.64
13.64
15.95
17.72
19.15
20.48
21.96
23.73
25.85
28.19
30.56
32.67
34.2
34.88
34.52
33.13
30.93
28.3
25.65
23.26
21.22
19.39
17.57
15.62
13.57
11.63
9.99
8.72
7.69
6.56
4.92
2.46
-0.92
-5.06
-9.49
-13.47
-16.18
-16.93
-15.38
-11.69
-6.5
-0.69
4.85
9.57
13.33
16.29
18.79
21.06
23.22
25.23
26.97
28.35
29.3
29.86
30.14
30.38
30.87
31.84
33.3
35.05
36.72
37.99
38.71
39.04
39.25
39.62
40.21
40.85
41.21
41.04
40.24
38.92
37.32
35.67
34.09
32.56
30.99
29.27
27.35
25.12
22.43
18.99
14.45
8.5
0.93
-8.15
-18.42
-29.41
-40.63
-51.56
-61.67
-70.3
-76.62
-79.85
-79.5
-75.65
-68.99
-60.68
-51.89
-43.46
-35.73
-28.61
-21.89
-15.46
-9.51
-4.38
-0.42
2.17
3.46
3.7
3.28
2.61
1.99
1.65
1.65
1.94
2.44
3.04
3.64
4.12
4.31
3.99
3.0
1.33
-0.87
-3.25
-5.44
-7.24
-8.62
-9.8
-11.11
-12.86
-15.18
-17.96
-20.9
-23.62
-25.83
-27.53
-29.0
-30.66
-32.96
-36.1
-39.96
-44.07
-47.67
-49.91
-50.04
-47.64
-42.73
-35.79
-27.71
-19.51
-12.11
-6.07
-1.57
1.59
3.74
5.23
6.24
6.85
7.09
7.06
6.86
6.63
6.48
6.41
6.42
6.5
6.76
7.36
8.44
9.94
11.61
13.07
13.98
14.15
13.63
12.58
11.2
9.6
7.85
5.99
4.13
2.35
0.72
-0.78
-2.23
-3.76
-5.48
-7.55
-10.08
-13.17
-16.81
-20.79
-24.68
-27.93
-29.99
-30.54
-29.57
-27.34
-24.28
-20.79
-17.15
-13.47
-9.73
-5.87
-1.9
2.07
5.78
8.87
11.01
12.0
11.85
10.79
9.17
7.33
5.42
3.39
0.96
-2.27
-6.73
-12.69
-20.14
-28.8
-38.09
-47.28
-55.64
-62.64
-68.01
-71.76
-74.05
-75.11
-75.17
-74.51
-73.43
-72.32
-71.51
-71.22
-71.38
-71.73
-71.99
-72.09
-72.41
-73.59
-76.34
-80.92
-86.9
-93.08
-97.92
-100.09
-98.97
-94.89
-88.97
-82.55
-76.61
-71.39
-66.24
-60.0
-51.39
-39.68
-24.93
-8.1
9.22
25.28
38.59
48.29
54.17
56.56
56.08
53.48
49.6
45.29
41.42
38.69
37.5
37.74
38.9
40.25
41.16
41.37
41.02
40.5
40.15
40.11
40.19
39.96
38.91
36.62
32.85
27.62
21.24
14.3
7.47
1.41
-3.53
-7.4
-10.63
-13.93
-17.95
-23.05
-29.05
-35.29
-40.72
-44.29
-45.22
-43.26
-38.76
-32.54
-25.53
-18.52
-11.98
-6.01
-0.45
4.88
10.11
15.16
19.85
23.96
27.31
29.84
31.6
32.73
33.37
33.65
33.71
33.68
33.72
33.99
34.58
35.41
36.23
36.66
36.37
35.16
33.11
30.52
27.77
25.18
22.83
20.65
18.39
15.84
12.91
9.72
6.47
3.34
0.39
-2.47
-5.44
-8.8
-12.79
-17.58
-23.18
-29.32
-35.34
-40.29
-43.13
-43.11
-40.01
-34.31
-26.94
-18.96
-11.2
-4.04
2.48
8.49
14.09
19.27
23.99
28.19
31.86
35.04
37.71
39.82
41.26
41.99
42.08
41.68
41.06
40.45
40.05
39.87
39.78
39.51
38.78
37.4
35.32
32.7
29.84
27.08
24.62
22.45
20.32
17.89
14.89
11.29
7.29
3.28
-0.39
-3.54
-6.25
-8.81
-11.59
-14.96
-19.19
-24.31
-30.01
-35.58
-39.97
-42.05
-41.08
-36.97
-30.45
-22.74
-15.1
-8.36
-2.71
2.21
6.93
11.85
17.05
22.31
27.3
31.69
35.23
37.83
39.44
40.19
40.29
40.05
39.73
39.49
39.37
39.3
39.21
39.04
38.81
38.53
38.12
37.47
36.41
34.86
32.85
30.55
28.18
25.93
23.88
21.94
19.93
17.66
15.0
11.96
8.61
5.11
1.61
-1.76
-4.94
-7.92
-10.86
-14.0
-17.66
-22.14
-27.54
-33.64
-39.76
-44.95
-48.11
-48.45
-45.66
-40.1
-32.65
-24.4
-16.31
-9.0
-2.63
2.91
7.85
12.41
16.71
20.78
24.63
28.17
31.29
33.83
35.59
36.45
36.44
35.74
34.72
33.74
33.12
32.95
33.18
33.55
33.8
33.68
33.1
32.04
30.54
28.67
26.48
24.07
21.55
19.09
16.81
14.79
12.97
11.14
9.14
6.79
4.1
1.23
-1.56
-4.07
-6.18
-7.97
-9.65
-11.48
-13.7
-16.47
-19.9
-23.97
-28.53
-33.17
-37.2
-39.81
-40.26
-38.22
-33.88
-27.93
-21.3
-14.87
-9.18
-4.42
-0.51
2.82
5.78
8.6
11.39
14.23
17.06
19.75
22.09
23.88
24.91
25.13
24.61
23.56
22.3
21.17
20.48
20.36
20.73
21.25
21.48
20.98
19.58
17.36
14.73
12.13
9.89
8.07
6.49
4.84
2.88
0.58
-1.88
-4.22
-6.21
-7.77
-9.02
-10.22
-11.69
-13.71
-16.42
-19.84
-23.78
-27.83
-31.39
-33.8
-34.47
-33.09
-29.74
-24.86
-19.13
-13.28
-7.88
-3.22
0.68
4.04
7.11
10.1
13.06
15.93
18.55
20.72
22.3
23.19
23.36
22.87
21.86
20.56
19.25
18.2
17.61
17.5
17.75
18.12
18.31
18.09
17.34
16.03
14.28
12.2
10.02
7.86
5.8
3.82
1.81
-0.35
-2.73
-5.29
-7.88
-10.3
-12.42
-14.26
-15.96
-17.81
-20.06
-22.88
-26.32
-30.26
-34.39
-38.23
-41.13
-42.42
-41.6
-38.51
-33.44
-27.12
-20.43
-14.13
-8.65
-4.06
-0.1
3.53
7.04
10.49
13.75
16.64
19.0
20.73
21.85
22.48
22.79
22.96
23.09
23.21
23.35
23.55
23.92
24.53
25.38
26.37
27.29
27.93
28.15
27.93
27.36
26.57
25.66
24.76
23.97
23.38
23.0
22.82
22.73
22.65
22.45
22.1
21.54
20.72
19.58
18.12
16.46
14.95
14.07
14.28
15.78
18.31
21.12
23.18
23.45
21.29
16.6
9.81
1.64
-7.08
-15.54
-23.06
-28.95
-32.59
-33.5
-31.56
-27.11
-20.99
-14.3
-8.19
-3.49
-0.61
0.53
0.34
-0.6
-1.78
-2.84
-3.66
-4.26
-4.77
-5.33
-6.05
-6.93
-7.86
-8.61
-8.9
-8.49
-7.3
-5.41
-3.15
-1.02
0.39
0.53
-0.93
-3.96
-8.11
-12.51
-15.99
-17.36
-15.78
-11.03
-3.66
5.09
13.57
20.01
22.92
21.33
15.01
4.57
-8.64
-22.73
-35.75
-46.08
-52.76
-55.56
-54.82
-51.13
-45.17
-37.58
-28.99
-20.09
-11.63
-4.29
1.4
5.18
7.06
7.33
6.48
5.13
3.89
3.27
3.59
4.93
7.19
10.14
13.52
17.03
20.47
23.68
26.59
29.2
31.55
33.63
35.33
36.48
36.91
36.47
35.11
32.71
29.13
24.17
17.7
9.8
0.88
-8.42
-17.33
-25.21
-31.69
-36.75
-40.61
-43.57
-45.75
-47.0
-46.88
-44.86
-40.62
-34.34
-26.73
-18.9
-12.02
-6.86
-3.64
-1.96
-1.16
-0.59
0.18
1.23
2.36
3.29
3.76
3.58
2.69
1.15
-0.9
-3.25
-5.64
-7.8
-9.56
-10.87
-11.8
-12.56
-13.36
-14.35
-15.56
-16.98
-18.59
-20.44
-22.59
-25.01
-27.53
-29.84
-31.55
-32.39
-32.35
-31.75
-31.16
-31.23
-32.43
-34.95
-38.57
-42.76
-46.8
-49.99
-51.78
-51.88
-50.31
-47.38
-43.54
-39.2
-34.51
-29.28
-23.03
-15.25
-5.73
5.18
16.55
27.1
35.59
41.18
43.55
42.87
39.65
34.54
28.23
21.45
14.87
8.99
4.08
0.11
-3.16
-5.94
-8.29
-10.01
-10.76
-10.25
-8.44
-5.59
-2.18
1.29
4.41
7.07
9.38
11.6
14.06
17.01
20.6
24.78
29.24
33.39
36.43
37.54
36.15
32.09
25.69
17.61
8.53
-1.02
-10.73
-20.36
-29.47
-37.31
-42.95
-45.58
-44.98
-41.66
-36.71
-31.36
-26.46
-22.26
-18.43
-14.39
-9.71
-4.31
1.55
7.4
12.78
17.33
20.83
23.15
24.29
24.37
23.66
22.52
21.34
20.42
19.92
19.85
20.11
20.52
20.86
20.93
20.52
19.5
17.86
15.74
13.28
10.6
7.66
4.25
0.22
-4.46
-9.51
-14.38
-18.49
-21.45
-23.26
-24.37
-25.5
-27.33
-30.24
-34.1
-38.26
-41.74
-43.54
-42.99
-39.93
-34.81
-28.43
-21.67
-15.23
-9.45
-4.4
-0.03
3.72
6.83
9.31
11.23
12.68
13.78
14.52
14.77
14.33
13.01
10.76
7.72
4.28
1.03
-1.4
-2.42
-1.73
0.61
4.11
7.97
11.35
13.63
14.62
14.56
13.9
13.01
12.0
10.6
8.39
5.03
0.51
-4.76
-10.04
-14.56
-17.65
-19.0
-18.71
-17.24
-15.37
-13.93
-13.57
-14.48
-16.3
-18.2
-19.27
-18.85
-16.83
-13.57
-9.68
-5.68
-1.73
2.29
6.6
11.28
16.06
20.47
23.91
25.94
26.44
25.58
23.77
21.47
19.02
16.6
14.28
12.07
10.02
8.19
6.65
5.41
4.36
3.36
2.24
0.87
-0.84
-2.87
-5.11
-7.33
-9.18
-10.35
-10.69
-10.36
-9.77
-9.46
-9.93
-11.41
-13.95
-17.43
-21.69
-26.44
-31.22
-35.26
-37.62
-37.47
-34.46
-28.96
-21.92
-14.55
-7.83
-2.25
2.25
6.04
9.53
12.95
16.28
19.39
22.03
24.04
25.32
25.88
25.86
25.47
24.92
24.35
23.84
23.33
22.8
22.27
21.82
21.57
21.5
21.43
21.05
20.05
18.27
15.77
12.75
9.49
6.14
2.68
-0.94
-4.81
-8.9
-13.14
-17.48
-21.99
-26.8
-31.87
-36.86
-41.04
-43.51
-43.49
-40.7
-35.47
-28.61
-21.13
-13.88
-7.34
-1.61
3.44
8.02
12.26
16.19
19.74
22.83
25.37
27.29
28.53
29.07
28.96
28.39
27.56
26.68
25.91
25.26
24.68
24.05
23.32
22.47
21.5
20.36
18.92
17.01
14.52
11.49
8.1
4.64
1.34
-1.73
-4.59
-7.39
-10.19
-13.07
-16.08
-19.41
-23.29
-27.84
-32.9
-37.83
-41.64
-43.27
-42.04
-37.92
-31.57
-24.08
-16.51
-9.6
-3.57
1.7
6.51
11.07
15.43
19.49
23.1
26.14
28.53
30.26
31.33
31.77
31.66
31.13
30.37
29.6
28.99
28.64
28.55
28.56
28.48
28.16
27.55
26.72
25.76
24.75
23.65
22.33
20.68
18.65
16.31
13.86
11.5
9.43
7.75
6.51
5.63
4.9
3.99
2.5
0.19
-2.77
-5.62
-7.15
-6.0
-1.26
7.1
18.06
29.82
40.43
48.39
53.03
54.51
53.45
50.56
46.36
41.17
35.26
28.96
22.66
16.69
11.21
6.21
1.62
-2.5
-5.9
-8.24
-9.29
-9.07
-7.95
-6.44
-5.06
-4.2
-4.06
-4.63
-5.84
-7.47
-9.28
-10.99
-12.46
-13.67
-14.79
-16.1
-17.78
-19.81
-21.97
-23.94
-25.46
-26.53
-27.39
-28.46
-30.11
-32.54
-35.7
-39.17
-42.26
-44.11
-43.9
-41.12
-35.8
-28.5
-20.13
-11.68
-3.89
2.93
8.84
14.13
19.03
23.6
27.7
31.07
33.52
34.93
35.41
35.23
34.73
34.3
34.17
34.48
35.18
36.18
37.34
38.54
39.71
40.78
41.58
41.91
41.48
40.07
37.65
34.38
30.67
26.91
23.41
20.17
16.92
13.36
9.26
4.7
-0.05
-4.57
-8.54
-11.89
-14.76
-17.46
-20.39
-23.89
-28.15
-33.07
-38.15
-42.57
-45.42
-46.02
-44.26
-40.62
-36.0
-31.32
-27.15
-23.63
-20.53
-17.52
-14.35
-10.99
-7.51
-4.07
-0.79
2.22
4.82
6.94
8.51
9.54
10.16
10.54
10.9
11.42
12.18
13.12
14.03
14.55
14.37
13.29
11.31
8.59
5.23
1.25
-3.49
-9.09
-15.45
-22.13
-28.5
-33.94
-38.15
-41.26
-43.73
-46.15
-48.96
-52.34
-56.23
-60.33
-64.12
-66.88
-67.79
-66.13
-61.62
-54.57
-45.9
-36.86
-28.62
-21.88
-16.73
-12.73
-9.25
-5.73
-1.96
1.96
5.66
8.74
10.89
12.05
12.29
11.84
10.95
9.87
8.84
8.06
7.65
7.6
7.7
7.59
6.94
5.55
3.51
1.13
-1.25
-3.36
-5.18
-6.83
-8.49
-10.31
-12.3
-14.47
-16.8
-19.39
-22.32
-25.67
-29.5
-33.82
-38.66
-44.0
-49.61
-54.93
-59.12
-61.15
-60.27
-56.3
-49.76
-41.72
-33.42
-25.81
-19.28
-13.75
-8.82
-4.09
0.64
5.32
9.77
13.78
17.17
19.86
21.79
22.99
23.51
23.52
23.24
22.93
22.85
23.13
23.8
24.68
25.53
26.02
25.93
25.11
23.56
21.46
19.04
16.56
14.13
11.7
9.06
5.96
2.26
-1.96
-6.37
-10.55
-14.18
-17.24
-20.06
-23.19
-27.25
-32.59
-39.13
-46.23
-52.81
-57.54
-59.22
-57.19
-51.56
-43.22
-33.59
-24.07
-15.69
-8.81
-3.21
1.64
6.26
10.93
15.69
20.35
24.68
28.48
31.61
33.99
35.58
36.41
36.56
36.16
35.42
34.63
34.04
33.86
34.13
34.71
35.24
35.32
34.61
33.0
30.65
27.88
25.05
22.44
20.08
17.85
15.49
12.74
9.43
5.6
1.44
-2.78
-6.76
-10.34
-13.59
-16.75
-20.24
-24.48
-29.78
-36.18
-43.33
-50.46
-56.43
-59.98
-60.08
-56.35
-49.19
-39.77
-29.62
-20.1
-11.97
-5.3
0.39
5.74
11.18
16.79
22.35
27.55
32.12
35.87
38.67
40.35
40.84
40.19
38.65
36.74
35.01
33.95
33.76
34.34
35.3
36.13
36.34
35.62
33.88
31.33
28.34
25.36
22.66
20.32
18.09
15.61
12.58
8.89
4.73
0.47
-3.53
-7.07
-10.21
-13.25
-16.55
-20.52
-25.44
-31.35
-37.99
-44.69
-50.43
-54.0
-54.36
-51.05
-44.34
-35.24
-25.17
-15.48
-7.04
-0.16
5.44
10.26
14.84
19.42
23.96
28.18
31.78
34.51
36.27
37.16
37.34
37.05
36.5
35.9
35.44
35.25
35.37
35.67
35.9
35.68
34.71
32.79
29.93
26.35
22.46
18.7
15.4
12.71
10.48
8.38
6.02
3.17
-0.16
-3.77
-7.32
-10.62
-13.67
-16.69
-20.02
-23.97
-28.75
-34.39
-40.68
-47.05
-52.6
-56.17
-56.73
-53.69
-47.27
-38.46
-28.65
-19.18
-10.88
-3.92
2.05
7.53
12.88
18.16
23.23
27.83
31.74
34.81
36.97
38.23
38.66
38.46
37.86
37.12
36.46
36.01
35.86
35.97
36.25
36.52
36.57
36.16
35.14
33.42
31.1
28.35
25.39
22.47
19.73
17.27
14.98
12.64
9.99
6.78
2.92
-1.42
-5.94
-10.27
-14.17
-17.59
-20.68
-23.73
-27.03
-30.85
-35.43
-40.81
-46.82
-52.86
-57.99
-61.03
-61.0
-57.46
-50.69
-41.7
-31.79
-22.22
-13.81
-6.86
-1.22
3.51
7.81
12.06
16.49
21.1
25.66
29.8
33.08
35.22
36.14
35.99
35.11
33.9
32.75
31.9
31.48
31.44
31.62
31.75
31.58
30.87
29.53
27.52
24.95
22.01
18.98
16.12
13.63
11.61
9.93
8.33
6.46
4.04
0.92
-2.79
-6.8
-10.76
-14.35
-17.43
-20.13
-22.78
-25.84
-29.74
-34.7
-40.59
-46.81
-52.42
-56.26
-57.36
-55.18
-49.83
-42.09
-33.12
-24.13
-16.04
-9.26
-3.75
0.86
5.01
9.05
13.1
17.08
20.75
23.81
26.05
27.39
27.93
27.9
27.56
27.18
26.94
26.91
27.1
27.47
27.92
28.33
28.52
28.27
27.34
25.64
23.24
20.38
17.43
14.75
12.54
10.77
9.16
7.33
4.96
1.9
-1.74
-5.65
-9.43
-12.79
-15.63
-18.1
-20.49
-23.2
-26.61
-30.95
-36.31
-42.41
-48.61
-53.84
-56.87
-56.65
-52.64
-45.2
-35.39
-24.73
-14.6
-5.95
0.93
6.33
10.75
14.7
18.49
22.2
25.72
28.89
31.5
33.39
34.44
34.64
34.13
33.18
32.12
31.28
30.83
30.77
30.92
31.0
30.77
30.09
28.95
27.42
25.59
23.5
21.2
18.71
16.08
13.39
10.72
8.12
5.6
3.16
0.73
-1.78
-4.5
-7.53
-10.88
-14.5
-18.18
-21.71
-24.95
-27.88
-30.69
-33.73
-37.4
-42.01
-47.6
-53.76
-59.69
-64.22
-66.2
-64.81
-59.92
-52.15
-42.67
-32.84
-23.74
-15.97
-9.54
-4.12
0.8
5.64
10.62
15.78
20.9
25.63
29.59
32.46
34.1
34.61
34.26
33.49
32.68
32.15
32.08
32.49
33.24
34.07
34.65
34.64
33.85
32.3
30.2
27.9
25.68
23.69
21.93
20.25
18.47
16.5
14.33
12.06
9.83
7.69
5.57
3.32
0.71
-2.35
-5.78
-9.35
-12.73
-15.7
-18.24
-20.55
-23.05
-26.19
