-0.08
-2.14
-4.19
-6.48
-9.24
-12.64
-16.62
-20.98
-25.48
-29.91
-34.2
-38.35
-42.41
-46.45
-50.56
-54.94
-59.82
-65.38
-71.58
-78.01
-84.01
-88.79
-91.7
-92.44
-91.05
-87.78
-82.96
-76.78
-69.3
-60.5
-50.43
-39.24
-27.22
-14.73
-2.19
9.91
21.02
30.57
38.08
43.3
46.32
47.62
47.87
47.78
47.87
48.34
49.05
49.72
49.99
49.66
48.68
47.17
45.28
43.21
41.11
39.04
36.92
34.58
31.85
28.62
24.94
21.0
17.05
13.27
9.68
6.15
2.49
-1.41
-5.49
-9.53
-13.31
-16.73
-19.97
-23.44
-27.72
-33.38
-40.81
-50.08
-60.76
-71.84
-81.69
-88.38
-90.12
-85.96
-76.21
-62.47
-47.06
-32.22
-19.31
-8.55
0.75
9.58
18.49
27.41
35.75
42.78
48.05
51.54
53.54
54.49
54.76
54.55
53.99
53.18
52.33
51.69
51.5
51.86
52.63
53.39
53.6
52.79
50.69
47.42
43.33
38.96
34.74
30.91
27.41
24.0
20.34
16.2
11.49
6.32
0.94
-4.36
-9.33
-13.92
-18.26
-22.65
-27.55
-33.45
-40.76
-49.58
-59.55
-69.66
-78.35
-83.83
-84.59
-79.92
-70.25
-57.01
-42.25
-27.94
-15.43
-5.19
3.1
10.18
16.83
23.56
30.51
37.46
43.99
49.63
53.96
56.72
57.89
57.7
56.58
55.09
53.76
52.99
52.95
53.58
54.63
55.71
56.35
56.15
54.82
52.29
48.69
44.35
39.74
35.31
31.38
28.05
25.13
22.22
18.83
14.61
9.47
3.65
-2.37
-8.07
-13.15
-17.64
-21.91
-26.51
-32.02
-38.82
-47.06
-56.44
-66.18
-74.97
-81.15
-83.15
-79.98
-71.68
-59.43
-45.1
-30.72
-17.78
-6.92
2.02
9.67
16.72
23.62
30.52
37.35
43.91
49.97
55.2
59.28
61.92
62.99
62.62
61.2
59.32
57.55
56.29
55.63
55.44
55.39
55.17
54.5
53.22
51.24
48.52
45.1
41.16
36.97
32.83
29.02
25.59
22.42
19.25
15.82
11.97
7.72
3.18
-1.45
-6.03
-10.46
-14.72
-18.89
-23.18
-27.96
-33.68
-40.72
-49.12
-58.35
-67.24
-74.19
-77.57
-76.31
-70.25
-60.21
-47.78
-34.77
-22.63
-12.14
-3.34
4.22
11.11
17.75
24.26
30.51
36.29
41.37
45.62
48.96
51.35
52.79
53.28
52.99
52.13
51.03
49.98
49.19
48.7
48.41
48.08
47.46
46.33
44.64
42.41
39.78
36.89
33.84
30.7
27.55
24.45
21.46
18.65
16.03
13.53
10.94
8.04
4.65
0.7
-3.65
-8.17
-12.59
-16.78
-20.74
-24.66
-28.86
-33.67
-39.39
-46.13
-53.63
-61.16
-67.53
-71.37
-71.52
-67.53
-59.87
-49.72
-38.62
-27.92
-18.42
-10.33
-3.42
2.72
8.45
14.06
19.68
25.3
30.73
35.62
39.56
42.21
43.43
43.36
42.39
40.93
39.4
38.07
37.1
36.51
36.27
36.2
36.09
35.65
34.65
32.95
30.58
27.73
24.69
21.74
19.04
16.55
14.02
11.19
7.83
3.97
-0.19
-4.31
-8.1
-11.4
-14.28
-17.01
-19.92
-23.38
-27.68
-32.99
-39.18
-45.76
-51.85
-56.26
-57.85
-55.91
-50.48
-42.33
-32.74
-23.08
-14.38
-7.12
-1.25
3.62
7.95
12.09
16.24
20.42
24.5
28.25
31.37
33.62
34.9
35.34
35.24
35.01
35.03
35.52
36.48
37.71
38.88
39.63
39.64
38.78
37.12
34.96
32.73
30.9
29.74
29.29
29.28
29.23
28.67
27.24
24.84
21.53
17.55
13.15
8.56
4.01
-0.31
-4.08
-7.05
-9.0
-9.99
-10.41
-10.92
-12.22
-14.74
-18.36
-22.35
-25.63
-27.2
-26.5
-23.68
-19.34
-14.25
-9.03
-4.03
0.62
4.77
8.18
10.63
12.03
12.63
12.96
13.67
15.16
17.49
20.29
23.06
25.39
27.13
28.31
29.03
29.23
28.72
27.33
25.07
22.23
19.28
16.62
14.41
12.42
10.28
7.62
4.3
0.38
-3.97
-8.57
-13.3
-18.14
-23.07
-28.12
-33.29
-38.59
-43.98
-49.38
-54.7
-59.76
-64.48
-68.8
-72.76
-76.5
-80.2
-84.02
-87.99
-91.86
-95.04
-96.7
-95.99
-92.37
-85.78
-76.73
-66.11
-54.9
-44.0
-34.05
-25.46
-18.43
-12.94
-8.67
-4.94
-0.76
4.93
12.84
22.87
33.92
43.91
50.37
51.22
45.57
34.19
19.55
5.11
-5.67
-10.42
-8.58
-1.53
8.07
17.3
23.96
27.16
27.2
25.02
21.53
17.18
12.01
6.03
-0.44
-6.74
-12.11
-16.18
-19.15
-21.75
-24.8
-28.68
-33.14
-37.45
-40.84
-42.91
-43.78
-43.91
-43.6
-42.74
-40.67
-36.57
-29.86
-20.63
-9.72
1.56
11.84
20.06
25.72
28.86
29.89
29.41
28.04
26.27
24.48
22.95
21.94
21.64
22.19
23.6
25.67
28.07
30.37
32.21
33.38
33.84
33.68
32.99
31.86
30.31
28.35
25.96
23.12
19.79
15.93
11.46
6.35
0.63
-5.54
-11.89
-18.09
-23.74
-28.61
-32.56
-35.75
-38.55
-41.49
-45.13
-49.81
-55.47
-61.49
-66.84
-70.35
-71.03
-68.48
-62.97
-55.37
-46.77
-38.23
-30.46
-23.76
-18.09
-13.22
-8.85
-4.73
-0.72
3.17
6.82
10.0
12.53
14.3
15.35
15.8
15.77
15.33
14.49
13.35
12.12
11.13
10.69
10.94
11.73
12.64
13.19
13.01
11.99
10.31
8.32
6.35
4.61
3.18
1.96
0.85
-0.29
-1.55
-3.03
-4.73
-6.58
-8.46
-10.25
-11.93
-13.64
-15.63
-18.18
-21.44
-25.32
-29.38
-32.91
-35.03
-34.92
-32.08
-26.55
-18.99
-10.47
-2.21
4.86
10.28
14.11
16.74
18.57
19.88
20.81
21.42
21.86
22.31
22.96
23.85
24.88
25.88
26.76
27.61
28.67
30.21
32.33
34.86
37.34
39.21
40.03
39.59
38.04
35.75
33.18
30.66
28.28
25.89
23.2
19.93
15.94
11.33
6.36
1.38
-3.33
-7.63
-11.58
-15.44
-19.55
-24.26
-29.76
-35.94
-42.2
-47.6
-51.02
-51.56
-48.91
-43.45
-36.19
-28.35
-20.98
-14.69
-9.57
-5.39
-1.74
1.72
5.15
8.54
11.74
14.51
16.63
17.94
18.45
18.33
17.86
17.29
16.76
16.31
15.93
15.6
15.32
15.09
14.8
14.27
13.33
11.86
9.91
7.71
5.5
3.51
1.76
0.13
-1.63
-3.71
-6.26
-9.33
-12.98
-17.23
-22.16
-27.68
-33.53
-39.23
-44.19
-47.93
-50.21
-51.07
-50.7
-49.21
-46.52
-42.44
-36.83
-29.89
-22.16
-14.44
-7.43
-1.5
3.42
7.72
11.89
16.28
20.94
25.67
30.11
33.87
36.69
38.42
39.06
38.7
37.55
35.88
34.0
32.21
30.76
29.75
29.19
28.92
28.69
28.24
27.3
25.72
23.51
20.83
17.98
15.29
12.96
10.98
9.09
6.91
4.09
0.46
-3.81
-8.35
-12.67
-16.38
-19.33
-21.65
-23.73
-26.03
-29.01
-32.95
-37.83
-43.26
-48.5
-52.57
-54.53
-53.75
-50.18
-44.31
-37.11
-29.57
-22.47
-16.12
-10.46
-5.22
-0.21
4.59
8.99
12.73
15.56
17.34
18.06
17.86
17.0
15.77
14.47
13.27
12.24
11.3
10.28
9.09
7.69
6.17
4.68
3.33
2.15
1.08
0.02
-1.18
-2.55
-4.13
-5.84
-7.61
-9.35
-11.05
-12.76
-14.69
-17.13
-20.4
-24.74
-30.09
-36.03
-41.76
-46.2
-48.32
-47.35
-43.1
-35.99
-26.99
-17.3
-8.12
-0.32
5.76
10.26
13.73
16.83
20.09
23.7
27.46
30.88
33.43
34.75
34.82
33.91
32.52
31.14
30.13
29.63
29.57
29.76
29.94
29.88
29.43
28.5
27.07
25.18
22.83
20.0
16.62
12.66
8.15
3.24
-1.83
-6.76
-11.33
-15.38
-18.94
-22.13
-25.15
-28.29
-31.8
-35.79
-40.13
-44.28
-47.43
-48.68
-47.35
-43.27
-36.84
-28.88
-20.36
-12.07
-4.44
2.34
8.36
13.73
18.59
23.06
27.25
31.24
34.96
38.22
40.69
42.11
42.36
41.58
40.14
38.5
37.09
36.13
35.6
35.23
34.7
33.7
32.11
30.04
27.7
25.33
23.05
20.8
18.42
15.7
12.54
9.0
5.3
1.7
-1.64
-4.71
-7.67
-10.77
-14.3
-18.46
-23.36
-28.9
-34.71
-40.16
-44.36
-46.4
-45.63
-41.92
-35.74
-28.09
-20.12
-12.78
-6.54
-1.38
3.08
7.31
11.71
16.4
21.25
25.96
30.15
33.44
35.63
36.69
36.78
36.16
35.17
34.08
33.18
32.63
32.48
32.62
32.78
32.57
31.69
30.0
27.6
24.81
21.96
19.28
16.83
14.47
12.02
9.25
6.05
2.38
-1.62
-5.68
-9.5
-12.82
-15.57
-18.02
-20.66
-24.08
-28.63
-34.2
-40.11
-45.25
-48.43
-48.79
-46.13
-40.92
-34.12
-26.77
-19.65
-13.11
-7.06
-1.18
4.86
11.28
18.06
24.97
31.56
37.26
41.45
43.7
43.87
42.18
39.15
35.44
31.63
28.17
25.34
23.3
22.12
21.77
22.08
22.72
23.3
23.44
22.89
21.62
19.78
17.69
15.7
14.12
13.07
12.42
11.82
10.82
9.12
6.71
3.92
1.33
-0.51
-1.34
-1.29
-0.84
-0.62
-1.22
-2.96
-5.77
-9.22
-12.49
-14.63
-14.81
-12.67
-8.51
-3.29
1.74
5.48
7.44
7.82
7.35
6.88
7.02
7.92
9.38
10.97
12.28
13.05
13.12
12.45
11.1
9.23
7.14
5.21
3.83
3.28
3.72
5.16
7.43
10.28
13.28
15.93
17.69
18.24
17.54
15.92
13.94
12.19
11.0
10.33
9.78
8.86
7.19
4.67
1.56
-1.74
-4.87
-7.68
-10.27
-12.97
-16.17
-20.17
-25.05
-30.57
-36.17
-41.07
-44.37
-45.34
-43.62
-39.33
-33.04
-25.6
-17.93
-10.83
-4.88
-0.29
3.02
5.41
7.33
9.15
11.04
12.87
14.38
15.31
15.59
15.34
14.76
14.0
13.05
11.84
10.35
8.73
7.26
6.22
5.77
5.81
6.07
6.28
6.24
5.93
5.46
4.98
4.55
4.17
3.69
3.01
2.02
0.71
-0.84
-2.56
-4.35
-6.19
-8.15
-10.36
-13.0
-16.21
-20.07
-24.55
-29.52
-34.71
-39.72
-44.05
-47.1
-48.26
-47.2
-43.93
-38.93
-33.04
-27.17
-22.02
-17.84
-14.46
-11.45
-8.37
-5.04
-1.52
1.86
4.76
6.91
8.25
8.92
9.1
8.97
8.61
8.04
7.25
6.31
5.41
4.78
4.62
4.92
5.49
6.0
6.15
5.77
4.88
3.61
2.16
0.62
-0.92
-2.43
-3.87
-5.22
-6.51
-7.84
-9.34
-11.13
-13.18
-15.34
-17.38
-19.13
-20.57
-21.85
-23.23
-25.03
-27.48
-30.65
-34.41
-38.36
-41.88
-44.18
-44.54
-42.54
-38.25
-32.25
-25.42
-18.69
-12.71
-7.78
-3.79
-0.43
2.64
5.65
8.68
11.68
14.52
17.0
18.93
20.12
20.44
19.85
18.48
16.66
14.84
13.55
13.19
13.96
15.8
18.41
21.38
24.27
26.66
28.2
28.65
27.93
26.23
23.97
21.74
20.06
19.23
19.15
19.41
19.49
18.97
17.72
15.87
13.71
11.48
9.35
7.31
5.32
3.26
0.98
-1.64
-4.75
-8.3
-12.02
-15.39
-17.76
-18.54
-17.47
-14.71
-10.85
-6.62
-2.72
0.42
2.67
4.19
5.26
6.16
7.07
8.0
8.79
9.22
9.1
8.42
7.37
6.24
5.27
4.54
3.97
3.39
2.76
2.15
1.73
1.6
1.64
1.55
0.99
-0.22
-1.95
-3.88
-5.61
-6.93
-7.83
-8.55
-9.42
-10.67
-12.4
-14.54
-16.9
-19.23
-21.33
-23.06
-24.43
-25.59
-26.83
-28.52
-31.01
-34.44
-38.62
-42.94
-46.48
-48.28
-47.65
-44.42
-38.98
-32.17
-24.94
-18.11
-12.25
-7.64
-4.37
-2.44
-1.67
-1.81
-2.48
-3.25
-3.74
-3.8
-3.46
-2.89
-2.28
-1.7
-1.03
-0.01
1.58
3.8
6.51
9.42
12.17
14.46
16.18
17.29
17.87
17.96
17.61
16.91
16.01
15.13
14.48
14.16
14.08
14.03
13.69
12.84
11.45
9.63
7.64
5.72
4.03
2.55
1.2
-0.24
-1.96
-4.19
-7.08
-10.67
-14.77
-18.88
-22.29
-24.2
-23.94
-21.21
-16.14
-9.29
-1.48
6.5
14.01
20.63
26.19
30.6
33.78
35.6
35.97
34.89
32.62
29.6
26.4
23.54
21.38
20.02
19.36
19.22
19.42
19.81
20.28
20.72
21.05
21.24
21.32
21.38
21.48
21.62
21.69
21.54
21.09
20.4
19.65
19.11
18.94
19.12
19.46
19.61
19.28
18.29
16.58
14.25
11.51
8.6
5.84
3.42
1.47
-0.05
-1.38
-2.84
-4.78
-7.34
-10.39
-13.49
-15.98
-17.17
-16.56
-13.96
-9.54
-3.81
2.54
8.8
14.37
18.9
22.26
24.58
26.12
27.15
27.96
28.65
29.21
29.47
29.21
28.25
26.52
24.1
21.26
18.31
15.58
13.3
11.54
10.26
9.29
8.42
7.43
6.17
4.48
2.26
-0.55
-3.88
-7.62
-11.54
-15.38
-19.0
-22.33
-25.53
-28.84
-32.56
-36.84
-41.65
-46.76
-51.71
-55.92
-58.73
-59.47
-57.68
-53.24
-46.51
-38.31
-29.79
-22.06
-15.94
-11.74
-9.16
-7.58
-6.26
-4.71
-2.85
-1.0
0.29
0.46
-0.77
-3.32
-6.8
-10.68
-14.41
-17.57
-19.95
-21.52
-22.43
-22.85
-22.97
-22.94
-22.88
-22.87
-22.99
-23.32
-23.9
-24.65
-25.42
-26.09
-26.65
-27.26
-28.16
-29.52
-31.27
-33.09
-34.53
-35.22
-35.03
-34.15
-32.96
-31.89
-31.31
-31.43
-32.26
-33.61
-35.06
-35.98
-35.73
-33.85
-30.22
-25.13
-19.16
-12.94
-6.92
-1.22
4.31
9.91
15.69
21.55
27.14
31.99
35.65
37.87
38.62
38.1
36.69
34.77
32.69
30.69
28.9
27.4
26.24
25.49
25.14
25.13
25.28
25.32
25.0
24.16
22.77
20.96
18.91
16.83
14.81
12.8
10.7
8.34
5.65
2.67
-0.42
-3.39
-6.07
-8.41
-10.52
-12.64
-15.06
-18.02
-21.63
-25.84
-30.42
-34.92
-38.71
-41.18
-41.79
-40.32
-36.94
-32.13
-26.53
-20.74
-15.17
-9.98
-5.15
-0.59
3.78
7.96
11.91
15.51
18.69
21.35
23.44
24.93
25.87
26.33
26.42
26.26
25.94
25.59
25.29
25.11
25.03
24.96
24.76
24.26
23.38
22.18
20.78
19.38
18.1
16.95
15.87
14.74
13.47
11.99
10.24
8.16
5.73
2.98
0.05
-2.89
-5.67
-8.24
-10.68
-13.16
-15.82
-18.75
-21.91
-25.32
-28.97
-32.83
-36.63
-39.86
-41.77
-41.65
-39.14
-34.44
-28.22
-21.36
-14.66
-8.58
-3.25
1.43
5.65
9.53
13.13
16.41
19.32
21.74
23.56
24.73
25.28
25.35
25.13
24.79
24.45
24.16
23.9
23.67
23.45
23.26
23.09
22.9
22.6
22.05
21.13
19.74
17.87
15.66
13.32
11.1
9.22
7.72
6.47
5.25
3.83
2.11
0.1
-2.07
-4.25
-6.35
-8.28
-10.04
-11.64
-13.16
-14.77
-16.76
-19.41
-22.86
-26.94
-31.08
-34.44
-36.18
-35.71
-32.96
-28.33
-22.52
-16.3
-10.28
-4.86
-0.2
3.67
6.83
9.35
11.4
13.12
14.64
15.98
17.1
17.92
18.37
18.44
18.18
17.7
17.08
16.47
15.98
15.78
15.93
16.39
17.03
17.59
17.84
17.59
16.78
15.44
13.72
11.76
9.73
7.78
5.95
4.25
2.52
0.66
-1.41
-3.63
-5.84
-7.89
-9.65
-11.2
-12.71
-14.47
-16.66
-19.35
-22.34
-25.19
-27.3
-28.08
-27.15
-24.48
-20.41
-15.53
-10.46
-5.68
-1.44
2.23
5.38
8.03
10.19
11.85
13.02
13.78
14.18
14.25
13.94
13.17
11.94
10.32
8.56
6.98
5.94
5.71
6.4
7.87
9.83
11.88
13.59
14.6
14.7
13.84
12.16
9.95
7.55
5.23
3.12
1.21
-0.61
-2.46
-4.35
-6.17
-7.77
-9.06
-10.06
-11.02
-12.2
-13.91
-16.28
-19.28
-22.65
-25.92
-28.5
-29.75
-29.26
-26.86
-22.8
-17.62
-12.05
-6.78
-2.23
1.45
4.36
6.73
8.79
10.6
12.17
13.39
14.19
14.58
14.64
14.52
14.38
14.31
14.29
14.28
14.24
14.17
14.13
14.16
14.25
14.29
14.1
13.46
12.28
10.61
8.61
6.54
4.61
2.94
1.52
0.24
-1.06
-2.5
-4.18
-6.17
-8.4
-10.79
-13.19
-15.46
-17.49
-19.3
-21.04
-22.96
-25.33
-28.27
-31.61
-34.88
-37.41
-38.5
-37.71
-35.01
-30.72
-25.5
-20.0
-14.81
-10.27
-6.46
-3.26
-0.48
2.1
4.65
7.22
9.72
12.01
13.9
15.25
16.03
16.32
16.26
16.01
15.73
15.51
15.4
15.44
15.63
15.89
16.12
16.16
15.87
15.14
13.96
12.44
10.76
9.1
7.54
6.09
4.64
3.06
1.24
-0.86
-3.24
-5.85
-8.66
-11.57
-14.46
-17.15
-19.51
-21.53
-23.37
-25.37
-27.89
-31.23
-35.4
-40.01
-44.37
-47.64
-49.0
-47.98
-44.57
-39.22
-32.69
-25.86
-19.45
-13.88
-9.23
-5.3
-1.72
1.85
5.61
9.51
13.33
16.74
19.46
21.36
22.5
23.03
23.17
23.1
22.94
22.75
22.57
22.41
22.28
22.13
21.97
21.8
21.67
21.56
21.39
21.02
20.24
18.98
17.26
15.28
13.27
11.37
9.58
7.74
5.63
3.06
0.01
-3.42
-7.02
-10.59
-13.91
-16.91
-19.61
-22.15
-24.81
-27.94
-31.79
-36.38
-41.36
-46.04
-49.5
-50.88
-49.67
-45.9
-40.12
-33.19
-26.01
-19.26
-13.25
-7.97
-3.21
1.26
5.63
9.95
14.14
18.08
21.6
24.58
26.96
28.71
29.89
30.52
30.65
30.38
29.84
29.25
28.81
28.64
28.67
28.67
28.36
27.49
25.97
23.95
21.65
19.35
17.25
15.39
13.66
11.89
9.91
7.6
4.96
2.08
-0.88
-3.8
-6.56
-9.11
-11.47
-13.74
-16.11
-18.83
-22.18
-26.3
-31.07
-35.98
-40.22
-42.84
-43.09
-40.67
-35.85
-29.34
-22.07
-14.87
-8.31
-2.57
2.42
6.87
10.97
14.8
18.31
21.36
23.83
25.66
26.88
27.58
27.96
28.14
28.28
28.44
28.68
29.01
29.43
29.91
30.34
30.6
30.51
29.91
28.69
26.82
24.34
21.44
18.36
15.36
12.65
10.31
8.23
6.18
3.9
1.23
-1.83
-5.12
-8.39
-11.41
-14.09
-16.47
-18.75
-21.21
-24.13
-27.75
-32.12
-37.01
-41.87
-45.85
-47.98
-47.5
-44.1
-38.12
-30.38
-21.94
-13.78
-6.52
-0.36
4.81
9.25
13.22
16.84
20.18
23.18
25.76
27.86
29.4
30.37
30.77
30.71
30.36
29.93
29.64
29.62
29.9
30.38
30.83
31.0
30.7
29.86
28.53
26.9
25.12
23.29
21.43
19.46
17.28
14.81
12.05
9.12
6.22
3.54
1.22
-0.76
-2.56
-4.42
-6.55
-9.02
-11.75
-14.54
-17.23
-19.72
-22.12
-24.69
-27.75
-31.5
-35.91
-40.57
-44.73
-47.45
-47.93
-45.71
-40.95
-34.28
-26.65
-19.03
-12.1
-6.16
-1.11
3.36
7.62
11.93
16.3
20.5
24.17
26.95
28.67
29.37
29.3
28.76
28.02
27.28
26.65
26.26
26.22
26.53
27.06
27.55
27.68
27.24
26.25
24.87
23.35
21.85
20.36
18.8
17.06
15.13
13.1
11.07
9.11
7.21
5.29
3.25
1.02
-1.39
-3.97
-6.66
-9.41
-12.16
-14.87
-17.54
-20.21
-23.0
-26.14
-29.84
-34.18
-38.98
-43.66
-47.31
-48.97
-47.94
-44.05
-37.78
-30.09
-22.11
-14.74
-8.47
-3.37
0.82
4.45
7.81
11.1
14.38
17.59
20.59
23.18
25.17
26.46
27.07
27.14
26.89
26.54
26.26
26.12
26.15
26.31
26.51
26.61
26.42
25.78
24.61
22.98
21.08
19.15
17.4
15.87
14.47
13.05
11.45
9.6
7.52
5.29
2.98
0.65
-1.71
-4.16
-6.72
-9.43
-12.24
-15.04
-17.72
-20.23
-22.6
-25.01
-27.74
-30.99
-34.78
-38.86
-42.68
-45.47
-46.5
-45.25
-41.63
-36.02
-29.15
-21.94
-15.22
-9.49
-4.86
-1.11
2.14
5.2
8.24
11.22
14.01
16.52
18.65
20.39
21.7
22.59
23.05
23.16
23.11
23.06
23.21
23.61
24.24
25.01
25.81
26.52
27.04
27.3
27.23
26.87
26.3
25.73
25.37
25.46
26.19
27.75
30.27
33.86
38.54
44.17
50.37
56.47
61.58
64.63
64.59
60.68
52.64
40.83
26.25
10.41
-4.94
-18.14
-27.92
-33.59
-35.19
-33.38
-29.2
-23.92
-18.63
-14.13
-10.8
-8.7
-7.68
-7.46
-7.77
-8.33
-8.88
-9.2
-9.13
-8.66
-7.87
-6.92
-5.99
-5.23
-4.69
-4.42
-4.39
-4.58
-4.94
-5.44
-5.99
-6.56
-7.11
-7.63
-8.17
-8.72
-9.28
-9.78
-10.21
-10.61
-11.06
-11.63
-12.38
-13.28
-14.23
-15.14
-15.92
-16.56
-17.03
-17.33
-17.47
-17.51
-17.56
-17.78
-18.34
-19.28
-20.59
-22.13
-23.71
-25.16
-26.23
-26.69
-26.35
-25.15
-23.19
-20.73
-18.1
-15.57
-13.3
-11.28
-9.43
-7.64
-5.85
-4.04
-2.2
-0.34
1.46
3.09
4.37
5.13
5.32
5.0
4.38
3.68
3.11
2.69
2.38
2.06
1.65
1.14
0.57
-0.02
-0.69
-1.5
-2.54
-3.78
-5.11
-6.37
-7.47
-8.5
-9.63
-11.1
-12.94
-15.03
-17.06
-18.67
-19.68
-20.11
-20.24
-20.45
-21.11
-22.46
-24.65
-27.68
-31.44
-35.74
-40.15
-44.08
-46.81
-47.75
-46.64
-43.67
-39.37
-34.28
-28.72
-22.57
-15.5
-7.2
2.27
12.37
22.27
31.12
38.35
43.72
47.33
49.45
50.39
50.51
50.15
49.68
49.39
49.44
49.8
50.25
50.43
49.96
48.5
45.91
42.26
37.82
33.02
28.29
23.98
20.19
16.85
13.8
10.86
7.9
4.88
1.75
-1.56
-5.12
-8.95
-12.97
-17.04
-20.97
-24.73
-28.45
-32.4
-36.81
-41.75
-46.96
-51.94
-56.03
-58.69
-59.67
-59.06
-57.33
-55.17
-53.3
-52.34
-52.54
-53.75
-55.37
-56.45
-55.88
-52.66
-46.18
-36.38
-23.85
-9.7
4.71
18.07
29.37
38.11
44.26
48.11
50.16
50.89
50.7
49.88
48.68
47.34
46.16
45.53
45.89
47.59
50.7
54.91
59.49
63.47
65.84
65.88
63.31
58.25
51.19
42.78
33.66
24.43
15.6
7.54
0.4
-5.86
-11.54
-17.09
-22.9
-29.07
-35.19
-40.32
-43.26
-42.99
-39.15
-32.27
-23.58
-14.6
-6.57
-0.11
4.79
8.59
11.77
14.69
17.44
20.01
22.32
24.27
25.79
26.87
27.58
28.08
28.56
29.15
29.8
30.32
30.44
29.92
28.67
26.76
24.33
21.54
18.51
15.32
11.95
8.35
4.43
0.13
-4.5
-9.23
-13.7
-17.51
-20.41
-22.37
-23.67
-24.83
-26.41
-28.83
-32.15
-36.15
-40.35
-44.28
-47.69
-50.63
-53.44
-56.5
-60.06
-64.0
-67.79
-70.55
-71.26
-69.08
-63.64
-55.24
-44.81
-33.66
-23.01
-13.69
-5.97
0.33
5.56
9.99
13.67
16.6
18.78
20.41
21.73
22.93
23.99
24.73
