-7.49
-9.11
-10.15
-10.77
-11.14
-11.38
-11.56
-11.7
-11.87
-12.14
-12.56
-13.07
-13.55
-13.82
-13.84
-13.65
-13.44
-13.49
-13.96
-14.97
-16.45
-18.28
-20.25
-22.13
-23.6
-24.35
-24.12
-22.81
-20.57
-17.74
-14.69
-11.71
-8.85
-5.94
-2.7
1.08
5.43
10.21
15.03
19.46
23.05
25.48
26.56
26.3
24.86
22.58
19.84
17.02
14.36
11.97
9.83
7.88
6.08
4.48
3.16
2.24
1.77
1.69
1.86
2.07
2.12
1.85
1.17
0.12
-1.14
-2.37
-3.32
-3.87
-4.04
-4.06
-4.2
-4.69
-5.58
-6.72
-7.88
-8.92
-9.81
-10.74
-12.0
-13.87
-16.53
-19.99
-24.14
-28.65
-33.02
-36.48
-38.16
-37.27
-33.41
-26.79
-18.26
-9.03
-0.33
7.05
12.86
17.35
21.0
24.17
27.0
29.36
31.05
31.92
31.98
31.42
30.49
29.45
28.47
27.59
26.75
25.92
25.07
24.22
23.41
22.62
21.79
20.78
19.43
17.67
15.49
12.95
10.15
7.24
4.34
1.57
-1.02
-3.41
-5.75
-8.22
-11.07
-14.41
-18.21
-22.23
-26.11
-29.51
-32.26
-34.46
-36.39
-38.44
-40.92
-44.04
-47.85
-52.13
-56.44
-60.01
-61.91
-61.23
-57.45
-50.69
-41.76
-31.91
-22.39
-14.09
-7.29
-1.7
3.28
8.2
13.39
18.83
24.24
29.23
33.47
36.72
38.93
40.22
40.75
40.71
40.25
39.49
38.55
37.54
36.61
35.83
35.19
34.55
33.69
32.44
30.71
28.59
26.31
24.09
22.05
20.22
18.47
16.66
14.69
12.5
10.1
7.45
4.5
1.24
-2.33
-6.05
-9.74
-13.21
-16.38
-19.32
-22.26
-25.56
-29.56
-34.48
-40.23
-46.24
-51.5
-54.71
-54.74
-51.06
-44.0
-34.73
-24.77
-15.45
-7.5
-0.88
4.91
10.48
16.13
21.77
27.02
31.48
34.89
37.22
38.65
39.39
39.65
39.56
39.32
39.06
38.97
39.11
39.44
39.79
39.89
39.53
38.6
37.09
35.04
32.46
29.38
25.84
21.95
17.94
14.08
10.6
7.59
5.02
2.7
0.37
-2.19
-5.11
-8.39
-11.91
-15.44
-18.75
-21.69
-24.28
-26.72
-29.35
-32.55
-36.67
-41.83
-47.91
-54.27
-59.94
-63.65
-64.29
-61.2
-54.52
-45.2
-34.64
-24.31
-15.2
-7.65
-1.43
3.98
9.07
14.05
18.86
23.3
27.15
30.29
32.73
34.55
35.84
36.66
37.05
37.06
36.81
36.47
36.21
36.12
36.14
36.07
35.71
34.9
33.61
31.95
30.06
28.07
26.0
23.81
21.41
18.79
16.01
13.15
10.27
7.42
4.57
1.75
-1.0
-3.6
-5.92
-7.84
-9.28
-10.23
-10.79
-11.13
-11.54
-12.29
-13.65
-15.75
-18.58
-21.95
-25.46
-28.6
-30.72
-31.27
-29.94
-26.81
-22.32
-17.14
-11.85
-6.75
-1.81
3.17
8.37
13.71
18.88
23.53
27.38
30.44
32.89
34.97
36.81
38.42
39.71
40.66
41.32
41.82
42.35
43.03
43.9
44.89
45.86
46.54
46.7
46.07
44.52
42.02
38.68
34.7
30.24
25.36
20.0
14.01
7.28
-0.19
-8.22
-16.52
-24.81
-32.88
-40.6
-47.93
-54.82
-61.24
-67.11
-72.37
-76.84
-80.18
-81.75
-80.79
-76.53
-68.65
-57.51
-44.18
-30.14
-16.82
-5.13
4.68
12.91
19.96
26.05
31.01
34.48
36.13
35.93
34.19
31.44
28.22
24.9
21.68
18.63
15.8
13.21
10.86
8.7
6.6
4.48
2.29
0.09
-1.97
-3.78
-5.29
-6.58
-7.77
-8.97
-10.21
-11.48
-12.73
-13.97
-15.25
-16.63
-18.1
-19.56
-20.77
-21.49
-21.6
-21.14
-20.4
-19.78
-19.7
-20.45
-22.14
-24.68
-27.83
-31.2
-34.32
-36.62
-37.53
-36.5
-33.28
-27.97
-21.06
-13.35
-5.66
1.46
7.83
13.66
19.26
24.82
30.19
34.92
38.48
40.5
41.02
40.44
39.34
38.31
37.66
37.43
37.45
37.43
37.2
36.62
35.63
34.15
32.08
29.33
25.84
21.67
17.0
12.09
7.18
2.45
-1.99
-6.1
-9.88
-13.36
-16.53
-19.34
-21.63
-23.18
-23.71
-23.05
-21.26
-18.75
-16.22
-14.51
-14.37
-16.18
-19.89
-25.04
-30.97
-36.94
-42.22
-46.19
-48.27
-48.08
-45.46
-40.62
-34.09
-26.54
-18.64
-10.85
-3.48
3.29
9.34
14.46
18.48
21.35
23.18
24.29
25.1
25.99
27.2
28.73
30.4
31.92
32.99
33.48
33.38
32.86
32.07
31.09
29.83
28.11
25.78
22.81
19.34
15.66
12.05
8.8
6.03
3.69
1.59
-0.58
-3.08
-6.06
-9.45
-13.01
-16.44
-19.56
-22.39
-25.18
-28.25
-31.8
-35.88
-40.31
-44.68
-48.43
-50.78
-50.88
-48.01
-41.9
-32.96
-22.29
-11.34
-1.4
6.81
13.34
18.82
23.98
29.25
34.55
39.33
43.02
45.25
46.05
45.74
44.76
43.46
42.02
40.55
39.22
38.33
38.17
38.93
40.45
42.25
43.65
44.03
42.98
40.46
36.67
31.91
26.58
20.98
15.36
9.91
4.72
-0.19
-4.87
-9.45
-14.07
-18.84
-23.78
-28.87
-34.01
-39.1
-44.05
-48.81
-53.32
-57.52
-61.26
-64.38
-66.65
-67.83
-67.72
-66.2
-63.25
-58.96
-53.57
-47.34
-40.53
-33.34
-25.89
-18.3
-10.78
-3.6
2.92
8.42
12.66
15.48
16.97
17.35
17.03
16.47
16.1
16.15
16.63
17.34
18.02
18.42
18.45
18.13
17.58
16.87
16.1
15.29
14.5
13.78
13.21
12.89
12.88
13.19
13.73
14.31
14.7
14.78
14.51
14.01
13.44
12.89
12.29
11.39
9.88
7.47
4.0
-0.57
-6.23
-12.95
-20.59
-28.74
-36.58
-42.96
-46.71
-47.03
-43.93
-38.2
-31.14
-24.05
-17.64
-11.94
-6.32
-0.05
7.36
15.82
24.74
33.25
40.52
45.99
49.43
50.95
50.85
49.49
47.22
44.43
41.48
38.81
36.8
35.71
35.5
35.88
36.3
36.14
34.92
32.44
28.82
24.47
19.92
15.62
11.8
8.42
5.22
1.88
-1.74
-5.54
-9.2
-12.33
-14.67
-16.24
-17.3
-18.2
-19.22
-20.48
-21.9
-23.34
-24.65
-25.68
-26.27
-26.23
-25.36
-23.5
-20.6
-16.79
-12.33
-7.49
-2.5
2.44
7.12
11.31
14.68
17.04
18.39
19.1
19.72
20.84
22.74
25.26
27.85
29.79
30.55
29.95
28.25
25.91
23.45
21.2
19.24
17.49
15.84
14.24
12.77
11.64
11.1
11.28
12.15
13.37
14.44
14.78
13.99
11.93
8.75
4.83
0.58
-3.65
-7.62
-11.2
-14.33
-17.04
-19.46
-21.82
-24.34
-27.04
-29.67
-31.74
-32.74
-32.34
-30.6
-27.89
-24.68
-21.38
-18.18
-15.1
-12.01
-8.84
-5.55
-2.13
1.42
5.03
8.57
11.81
14.48
16.4
17.52
17.94
17.84
17.44
16.9
16.35
15.86
15.54
15.49
15.8
16.51
17.59
18.83
19.77
19.72
17.88
13.57
6.4
-3.44
-15.23
-27.93
-40.56
-52.48
-63.45
-73.4
-82.16
-89.28
-94.17
-96.46
-96.28
-94.48
-92.31
-91.01
-91.43
-93.77
-97.63
-102.24
-106.62
-109.68
-110.32
-107.59
-100.98
-90.63
-77.44
-62.76
-48.05
-34.29
-21.77
-10.13
1.29
13.04
25.15
37.12
48.08
57.19
63.88
68.1
70.18
70.7
70.2
69.1
67.64
65.95
64.15
62.38
60.73
59.22
57.73
56.11
54.23
52.03
49.56
46.92
44.19
41.41
38.56
35.56
32.34
28.8
24.87
20.52
15.79
10.83
5.86
1.14
-3.12
-6.9
-10.36
-13.82
-17.62
-22.04
-27.17
-32.88
-38.82
-44.46
-49.12
-52.08
-52.68
-50.55
-45.78
-38.96
-31.07
-23.16
-16.05
-10.14
-5.34
-1.28
2.45
6.1
9.69
13.04
15.89
17.98
19.15
19.4
18.9
17.96
16.94
16.13
15.64
15.33
14.86
13.87
12.07
9.43
6.17
2.71
-0.5
-3.13
-5.09
-6.49
-7.63
-8.75
-9.94
-11.09
-12.04
-12.7
-13.18
-13.74
-14.65
-16.03
-17.72
-19.38
-20.67
-21.44
-21.74
-21.82
-21.89
-22.03
-22.24
-22.61
-23.4
-24.92
-27.26
-29.93
-31.81
-31.49
-27.87
-20.73
-10.86
0.21
10.87
20.03
27.35
33.03
37.39
40.5
42.24
42.45
41.33
39.57
38.12
37.81
38.94
41.12
43.5
45.24
45.92
45.72
45.23
45.05
45.46
46.31
47.14
47.56
47.39
46.74
45.88
44.98
44.17
43.51
43.22
43.64
45.13
47.68
50.83
53.6
54.98
54.37
51.84
47.96
43.39
38.34
32.49
25.17
15.93
4.95
-6.85
-18.16
-27.72
-34.74
-38.92
-40.38
-39.37
-36.29
-31.65
-26.07
-20.31
-15.0
-10.58
-7.21
-4.89
-3.55
-3.17
-3.83
-5.55
-8.28
-11.73
-15.4
-18.72
-21.21
-22.63
-23.08
-22.94
-22.7
-22.81
-23.43
-24.47
-25.5
-25.99
-25.49
-23.77
-20.92
-17.31
-13.46
-9.84
-6.78
-4.42
-2.78
-1.82
-1.5
-1.8
-2.69
-4.09
-5.87
-7.91
-10.14
-12.61
-15.48
-18.95
-23.16
-28.03
-33.24
-38.24
-42.37
-45.04
-45.89
-44.87
-42.22
-38.39
-33.88
-29.12
-24.35
-19.63
-14.88
-10.0
-4.95
0.13
4.98
9.29
12.86
15.68
17.98
20.05
22.18
24.51
26.98
29.35
31.34
32.68
33.15
32.66
31.12
28.55
25.04
20.77
16.01
11.08
6.32
1.97
-1.84
-5.15
-8.1
-10.88
-13.65
-16.45
-19.21
-21.77
-23.91
-25.49
-26.42
-26.72
-26.5
-25.94
-25.24
-24.57
-24.05
-23.62
-23.12
-22.32
-20.96
-18.91
-16.17
-12.8
-8.97
-4.9
-0.79
3.1
6.55
9.4
11.56
13.07
14.01
14.5
14.65
14.52
14.16
13.63
13.0
12.3
11.55
10.7
9.76
8.69
7.55
6.42
5.35
4.4
3.55
2.79
2.08
1.4
0.77
0.25
-0.17
-0.48
-0.78
-1.18
-1.78
-2.58
-3.52
-4.46
-5.33
-6.1
-6.9
-7.87
-9.2
-11.03
-13.43
-16.41
-19.89
-23.69
-27.53
-31.03
-33.78
-35.41
-35.68
-34.56
-32.22
-28.97
-25.17
-21.13
-17.05
-12.95
-8.69
-4.14
0.87
6.28
11.93
17.45
22.47
26.65
29.75
31.74
32.76
33.09
33.07
33.02
33.2
33.69
34.44
35.26
35.91
36.12
35.72
34.6
32.84
30.64
28.28
26.02
24.0
22.22
20.46
18.46
16.04
13.21
10.15
7.09
4.22
1.58
-0.9
-3.38
-5.96
-8.71
-11.69
-14.95
-18.57
-22.53
-26.65
-30.51
-33.55
-35.22
-35.17
-33.38
-30.14
-25.98
-21.45
-16.98
-12.82
-8.99
-5.44
-2.07
1.23
4.52
7.8
11.0
13.96
16.47
18.34
19.44
19.82
19.65
19.2
18.72
18.42
18.39
18.66
19.17
19.85
20.58
21.19
21.51
21.4
20.77
19.67
18.16
16.36
14.35
12.2
9.96
7.64
5.24
2.65
-0.21
-3.42
-6.97
-10.72
-14.51
-18.22
-21.77
-25.18
-28.47
-31.64
-34.65
-37.39
-39.76
-41.61
-42.76
-43.0
-42.19
-40.28
-37.38
-33.76
-29.71
-25.49
-21.26
-17.06
-12.87
-8.69
-4.59
-0.67
2.97
6.23
9.1
11.59
13.75
15.63
17.29
18.75
20.0
21.0
21.71
22.15
22.35
22.44
22.58
22.89
23.4
24.03
24.63
25.03
25.08
24.74
23.99
22.8
21.13
18.93
16.22
13.09
9.74
6.42
3.32
0.54
-1.92
-4.19
-6.47
-8.94
-11.79
-15.06
-18.62
-22.1
-24.91
-26.39
-26.03
-23.65
-19.51
-14.21
-8.54
-3.22
1.23
4.59
6.87
8.24
8.94
9.25
9.46
9.83
10.55
11.67
13.03
14.31
15.11
15.07
14.05
12.17
9.75
7.22
4.92
3.02
1.55
0.35
-0.74
-1.89
-3.2
-4.71
-6.35
-8.06
-9.78
-11.51
-13.29
-15.16
-17.12
-19.06
-20.81
-22.25
-23.42
-24.5
-25.79
-27.47
-29.63
-32.14
-34.83
-37.51
-40.03
-42.17
-43.63
-44.01
-42.95
-40.32
-36.28
-31.29
-25.94
-20.78
-16.1
-12.04
-8.47
-5.22
-2.04
1.22
4.6
8.01
11.27
14.18
16.6
18.51
19.98
21.11
21.99
22.63
23.05
23.24
23.23
23.05
22.67
22.09
21.23
20.05
18.49
16.59
14.46
12.25
10.18
8.4
6.91
5.53
3.96
1.89
-0.79
-3.94
-7.22
-10.23
-12.74
-14.8
-16.73
-19.02
-22.06
-26.03
-30.77
-35.75
-40.29
-43.68
-45.33
-45.02
-42.8
-38.98
-33.91
-27.81
-20.71
-12.44
-2.88
7.96
19.85
32.32
44.83
56.79
67.5
76.32
82.64
86.1
86.82
85.4
82.71
79.55
76.29
72.82
68.71
63.67
57.8
51.63
45.86
40.9
36.75
32.94
28.89
24.27
19.2
14.19
9.87
6.69
4.66
3.39
2.3
0.84
-1.21
-3.76
-6.49
-9.06
-11.33
-13.44
-15.68
-18.35
-21.54
-25.08
-28.49
-31.19
-32.6
-32.41
-30.65
-27.66
-23.97
-20.12
-16.49
-13.23
-10.25
-7.39
-4.54
-1.74
0.94
3.35
5.47
7.33
8.94
10.26
11.21
11.69
11.66
11.27
10.71
10.3
10.34
11.02
12.34
14.07
15.76
16.9
17.15
16.47
15.2
13.89
13.09
13.14
14.04
15.49
17.0
18.12
18.49
17.95
16.48
14.17
11.12
7.43
3.14
-1.71
-7.03
-12.64
-18.22
-23.4
-27.8
-31.18
-33.38
-34.39
-34.28
-33.24
-31.55
-29.55
-27.52
-25.55
-23.5
-21.12
-18.27
-15.01
-11.72
-8.87
-6.82
-5.68
-5.18
-4.88
-4.36
-3.39
-1.98
-0.32
1.27
2.47
3.03
2.78
1.7
-0.06
-2.21
-4.37
-6.25
-7.8
-9.15
-10.61
-12.41
-14.5
-16.49
-17.83
-18.02
-16.91
-14.79
-12.27
-10.08
-8.83
-8.86
-10.3
-13.12
-17.22
-22.47
-28.75
-35.95
-43.94
-52.47
-61.1
-69.13
-75.75
-80.21
-82.04
-81.12
-77.67
-72.06
-64.7
-55.95
-46.2
-35.82
-25.22
-14.83
-4.96
4.12
12.26
19.42
25.58
30.72
34.76
37.5
38.64
37.88
35.15
30.61
24.7
17.97
11.05
4.41
-1.53
-6.44
-10.14
-12.53
-13.69
-13.78
-13.06
-11.82
-10.42
-9.28
-8.91
-9.73
-11.98
-15.6
-20.16
-25.06
-29.69
-33.7
-37.02
-39.93
-42.85
-46.2
-50.21
-54.56
-58.37
-60.21
-58.5
-52.03
-40.42
-24.35
-5.35
14.68
34.04
51.64
67.04
80.3
91.74
101.69
110.52
118.49
125.77
132.24
137.42
140.39
140.14
135.82
127.21
114.84
99.94
84.12
68.94
55.48
44.14
34.65
26.33
18.3
9.82
0.42
-10.1
-21.58
-33.59
-45.52
-56.63
-66.21
-73.71
-78.91
-82.07
-84.02
-85.96
-89.16
-94.57
-102.48
-112.51
-123.64
-134.64
-144.4
-152.11
-157.24
-159.41
-158.24
-153.43
-144.96
-133.43
-119.96
-105.9
-92.39
-79.83
-68.03
-56.35
-44.31
-31.97
-19.9
-8.85
0.74
9.0
16.6
24.24
32.32
40.71
48.88
56.24
62.39
67.23
70.83
73.31
74.77
75.39
75.47
75.5
75.97
77.07
78.48
79.33
78.44
74.67
67.4
56.68
43.19
27.99
12.18
-3.34
-17.94
-31.25
-42.95
-52.71
-60.12
-64.77
-66.32
-64.59
-59.7
-52.03
-42.24
-31.16
-19.68
-8.62
1.36
9.83
16.6
21.69
25.22
27.35
28.22
28.0
26.93
25.46
24.19
23.64
24.17
25.69
27.75
29.72
31.04
31.5
31.28
30.79
30.43
30.38
30.54
30.54
29.98
28.55
26.15
22.92
19.15
15.27
11.69
8.68
6.27
4.15
1.73
-1.75
-7.0
-14.38
-23.64
-33.84
-43.48
-50.79
-54.23
-52.96
-47.03
-37.29
-25.13
-12.0
0.85
12.53
22.47
30.39
36.25
40.19
42.55
43.75
44.18
44.14
43.82
43.41
43.14
43.22
43.78
44.75
45.81
46.51
46.5
45.59
43.91
41.75
39.47
37.28
35.16
32.87
30.11
26.65
22.48
17.79
12.92
8.17
3.71
-0.45
-4.43
-8.37
-12.46
-16.87
-21.68
-26.78
-31.72
-35.69
-37.66
-36.76
-32.63
-25.59
-16.55
-6.65
3.08
12.02
19.95
26.87
32.87
37.93
42.0
45.01
46.94
47.85
47.89
47.25
46.13
44.76
43.26
41.67
40.01
38.26
36.54
34.96
33.66
32.6
31.62
30.39
28.58
25.96
22.5
18.31
13.69
8.92
4.26
-0.17
-4.43
-8.71
-13.33
-18.57
-24.53
-31.03
-37.53
-43.22
-47.13
-48.43
-46.56
-41.52
-33.85
-24.54
-14.73
-5.44
2.73
9.66
15.57
20.84
25.72
30.28
34.36
37.78
40.38
42.15
43.25
43.79
43.86
43.44
42.51
41.13
39.51
37.95
36.72
35.85
35.08
33.95
31.96
28.86
24.76
20.1
15.52
11.62
8.8
7.11
6.33
6.02
5.63
4.58
2.4
-1.22
-6.26
-12.34
-18.66
-24.15
-27.8
-28.89
-27.26
-23.36
-18.04
-12.21
-6.55
-1.36
3.44
8.07
12.73
17.39
21.88
25.87
29.06
31.26
32.44
32.67
32.12
30.95
29.36
27.49
25.52
23.65
22.05
20.85
20.06
19.54
18.99
18.12
16.67
14.52
11.76
8.61
5.35
2.27
-0.39
-2.49
-3.99
-5.03
-5.94
-7.31
-9.8
-13.94
-19.8
-26.87
-34.15
-40.35
-44.38
-45.65
-44.15
-40.37
-35.0
-28.71
-21.98
-15.11
-8.33
-1.86
4.04
9.16
13.38
16.68
19.2
21.13
22.6
23.61
24.01
23.62
22.31
20.12
17.23
13.9
10.38
6.88
3.52
0.38
-2.46
-5.04
-7.43
-9.84
-12.53
-15.66
-19.23
-23.0
-26.6
-29.71
-32.16
-34.07
-35.75
-37.57
-39.85
-42.73
-46.04
-49.33
-51.88
-52.89
-51.67
-47.88
-41.66
-33.64
-24.75
-15.94
-7.98
-1.2
4.42
9.19
13.5
17.66
21.79
25.85
29.61
32.83
35.3
36.94
37.83
38.14
38.02
37.59
36.87
35.87
34.59
33.07
31.38
29.54
27.55
25.37
23.04
20.64
18.26
15.98
13.72
11.3
8.47
5.07
1.06
-3.41
-8.04
-12.54
-16.7
-20.48
-24.04
-27.69
-31.77
-36.49
-41.73
-46.95
-51.32
-53.84
-53.79
-50.91
-45.55
-38.53
-30.84
-23.31
-16.43
-10.3
-4.8
0.26
4.99
9.47
13.68
17.57
21.04
23.91
25.99
27.13
27.38
27.03
26.55
26.42
26.87
27.78
28.74
29.15
28.51
26.59
23.45
19.4
14.84
10.15
5.67
1.66
-1.69
-4.25
-6.01
-7.14
-7.9
-8.59
-9.47
-10.67
-12.16
-13.75
-15.18
-16.14
-16.39
-15.77
-14.28
-12.13
-9.67
-7.37
-5.71
-5.03
-5.46
-6.82
-8.59
-10.14
-10.82
-10.29
-8.56
-5.95
-2.92
0.13
2.98
5.59
7.96
10.04
11.68
12.66
12.82
12.17
10.87
9.2
7.52
6.1
5.08
4.45
4.06
3.72
3.23
2.52
1.6
0.49
-0.78
-2.24
-3.86
-5.6
-7.29
-8.74
-9.77
-10.35
-10.54
-10.5
-10.37
-10.23
-10.1
-9.95
-9.79
-9.73
-9.94
-10.62
-11.96
-14.05
-16.89
-20.3
-23.88
-27.09
-29.27
-29.9
-28.67
-25.62
-21.13
-15.78
-10.24
-5.09
-0.79
2.4
4.37
5.17
5.02
4.22
3.13
2.0
0.97
0.14
-0.48
-0.78
-0.61
0.18
1.62
3.64
6.01
8.46
10.78
12.79
14.44
15.65
16.33
16.38
15.79
14.63
13.08
11.36
9.64
8.04
6.52
5.03
3.47
1.78
-0.11
-2.2
-4.49
-6.91
-9.37
-11.79
-14.12
-16.43
-18.92
-21.81
-25.25
-29.19
-33.32
-37.09
-39.91
-41.27
-40.9
-38.84
-35.39
-30.95
-25.96
-20.79
-15.69
-10.78
-6.15
-1.84
2.12
5.67
8.78
11.4
13.57
15.33
16.79
17.98
18.92
19.57
19.9
19.95
19.81
19.66
19.66
19.85
20.16
20.42
20.43
20.09
19.44
18.59
17.69
16.79
15.87
14.86
13.69
12.41
11.08
9.78
8.47
7.07
5.42
3.45
1.17
-1.24
-3.54
-5.56
-7.2
-8.58
-9.94
-11.6
-13.88
-16.95
-20.8
-25.21
-29.73
-33.81
-36.84
-38.3
-37.89
-35.63
-31.85
-27.11
-21.99
-16.93
-12.15
-7.63
-3.26
1.02
5.21
9.22
12.9
16.13
18.79
20.84
22.3
23.26
23.91
24.43
24.92
25.22
25.03
23.96
21.81
18.73
15.25
12.08
9.96
9.39
10.58
13.39
17.3
21.36
24.3
24.74
21.68
14.89
5.08
-6.16
-17.0
-25.88
-31.94
-35.09
-35.76
-34.63
-32.41
-29.83
-27.75
-27.06
-28.47
-32.08
-37.24
-42.48
-46.04
-46.46
-43.1
-36.36
-27.5
-18.06
-9.27
-1.72
4.6
10.07
14.96
19.34
23.05
25.94
28.02
29.38
30.11
30.12
29.14
26.89
23.32
18.78
13.95
9.63
6.43
4.56
3.82
3.81
4.01
4.1
3.92
3.56
3.19
2.97
2.99
3.18
3.38
3.35
2.9
1.85
0.17
-2.05
-4.63
-7.37
-10.11
-12.78
-15.46
-18.29
-21.45
-25.13
-29.4
-34.23
