6.1
1.27
-2.47
-5.49
-8.06
-10.27
-12.21
-14.04
-15.99
-18.28
-20.94
-23.78
-26.38
-28.27
-29.1
-28.77
-27.43
-25.41
-23.2
-21.21
-19.63
-18.38
-17.06
-15.12
-12.05
-7.62
-1.9
4.69
11.51
17.77
22.72
25.69
26.33
24.69
21.34
17.17
13.2
10.17
8.34
7.53
7.31
7.29
7.39
7.69
8.27
9.03
9.58
9.38
7.93
5.02
0.9
-3.7
-7.73
-10.05
-9.84
-6.95
-2.14
3.01
6.61
7.08
3.91
-2.22
-9.77
-16.98
-22.69
-26.55
-28.99
-30.71
-32.33
-34.08
-35.96
-37.79
-39.31
-40.29
-40.49
-39.62
-37.45
-33.81
-28.63
-22.03
-14.38
-6.26
1.5
8.11
13.06
16.4
18.63
20.54
22.75
25.45
28.41
31.24
33.64
35.59
37.29
39.04
41.08
43.53
46.4
49.52
52.45
54.47
54.7
52.38
47.28
39.96
31.66
23.94
18.05
14.53
13.08
12.92
13.15
13.22
12.94
12.31
11.26
9.67
7.41
4.57
1.52
-1.34
-3.8
-5.99
-8.42
-11.69
-16.25
-22.18
-29.11
-36.19
-42.23
-45.95
-46.44
-43.59
-38.27
-32.05
-26.56
-22.74
-20.5
-18.96
-17.06
-14.32
-11.03
-8.01
-6.06
-5.48
-5.95
-6.83
-7.56
-7.75
-7.29
-6.13
-4.23
-1.56
1.74
5.27
8.5
10.88
12.1
12.18
11.37
10.02
8.37
6.55
4.61
2.69
1.02
-0.05
-0.27
0.3
1.23
1.89
1.65
0.15
-2.62
-6.48
-11.18
-16.53
-22.4
-28.59
-34.82
-40.8
-46.37
-51.61
-56.82
-62.33
-68.28
-74.41
-80.02
-84.1
-85.59
-83.74
-78.36
-69.94
-59.61
-48.75
-38.61
-29.97
-22.97
-17.31
-12.53
-8.34
-4.74
-1.86
0.17
1.45
2.29
3.1
4.22
5.7
7.42
9.2
10.96
12.88
15.25
18.29
21.88
25.45
28.21
29.47
28.95
26.96
24.24
21.58
19.45
17.84
16.34
14.41
11.73
8.28
4.34
0.29
-3.61
-7.31
-10.95
-14.86
-19.38
-24.85
-31.51
-39.35
-47.99
-56.59
-63.93
-68.62
-69.54
-66.18
-58.82
-48.49
-36.63
-24.64
-13.51
-3.65
5.07
12.99
20.43
27.47
33.96
39.65
44.43
48.37
51.77
54.95
58.18
61.51
64.78
67.72
70.0
71.35
71.63
70.76
68.77
65.69
61.6
56.66
51.05
45.03
38.89
32.91
27.27
22.12
17.51
13.4
9.66
6.07
2.38
-1.58
-5.84
-10.24
-14.52
-18.41
-21.77
-24.63
-27.16
-29.61
-32.24
-35.32
-39.16
-43.94
-49.62
-55.67
-61.06
-64.4
-64.37
-60.25
-52.19
-41.23
-28.88
-16.6
-5.36
4.62
13.64
22.28
31.06
40.22
49.74
59.43
68.94
77.92
85.95
92.67
97.77
101.1
102.74
103.07
102.71
102.38
102.65
103.75
105.38
106.83
107.22
105.83
102.34
96.91
90.04
82.33
74.2
65.84
57.33
48.65
39.92
31.34
23.18
15.64
8.76
2.4
-3.68
-9.68
-15.64
-21.35
-26.44
-30.49
-33.28
-34.95
-36.01
-37.24
-39.43
-43.15
-48.63
-55.61
-63.33
-70.59
-75.96
-78.03
-75.87
-69.34
-59.19
-46.88
-34.05
-22.1
-11.72
-2.97
4.55
11.33
17.71
23.79
29.5
34.67
39.11
42.62
45.13
46.66
47.44
47.77
48.02
48.39
48.93
49.45
49.62
49.07
47.53
44.89
41.26
36.91
32.21
27.44
22.77
18.2
13.62
8.96
4.25
-0.39
-4.85
-9.08
-13.11
-17.01
-20.83
-24.52
-28.03
-31.39
-34.67
-38.0
-41.44
-44.94
-48.33
-51.46
-54.35
-57.2
-60.22
-63.43
-66.54
-68.94
-69.97
-69.22
-66.7
-62.81
-58.08
-52.98
-47.7
-42.21
-36.39
-30.21
-23.82
-17.51
-11.56
-6.22
-1.59
2.36
5.7
8.5
10.77
12.51
13.71
14.45
14.88
15.17
15.47
15.8
16.1
16.23
16.04
15.44
14.38
12.9
11.08
9.01
6.81
4.62
2.56
0.74
-0.81
-2.12
-3.32
-4.64
-6.27
-8.28
-10.6
-12.98
-15.17
-17.06
-18.82
-20.84
-23.62
-27.55
-32.69
-38.72
-44.84
-49.97
-52.92
-52.78
-49.23
-42.74
-34.48
-25.84
-17.99
-11.4
-5.88
-0.79
4.42
9.91
15.46
20.6
24.97
28.45
31.07
32.91
33.94
34.08
33.33
31.86
29.98
28.05
26.29
24.74
23.34
21.98
20.66
19.43
18.37
17.48
16.72
15.94
15.02
13.91
12.65
11.34
10.11
9.06
8.25
7.61
7.01
6.24
5.08
3.44
1.4
-0.73
-2.57
-3.74
-4.05
-3.59
-2.74
-2.13
-2.5
-4.5
-8.53
-14.45
-21.58
-28.68
-34.24
-36.86
-35.74
-31.0
-23.7
-15.5
-8.09
-2.58
0.76
2.48
3.54
4.84
6.9
9.77
13.13
16.61
19.91
22.91
25.51
27.61
29.13
30.03
30.45
30.64
30.93
31.49
32.21
32.74
32.55
31.21
28.55
24.74
20.2
15.47
10.98
7.0
3.68
1.02
-1.07
-2.78
-4.44
-6.45
-9.12
-12.57
-16.63
-20.9
-24.94
-28.41
-31.17
-33.27
-34.9
-36.3
-37.69
-39.3
-41.38
-44.13
-47.57
-51.53
-55.57
-59.02
-61.15
-61.27
-58.99
-54.35
-47.81
-40.18
-32.34
-25.0
-18.47
-12.71
-7.44
-2.51
2.02
5.81
8.44
9.68
9.66
8.95
8.26
8.2
9.08
10.78
12.91
15.05
16.86
18.18
18.99
19.28
19.03
18.19
16.7
14.62
12.12
9.48
6.96
4.78
2.99
1.47
-0.06
-1.99
-4.61
-8.06
-12.2
-16.67
-20.97
-24.73
-27.79
-30.34
-32.76
-35.53
-39.05
-43.59
-49.14
-55.42
-61.77
-67.19
-70.45
-70.54
-66.93
-59.98
-50.8
-40.89
-31.57
-23.61
-17.04
-11.37
-6.0
-0.48
5.29
11.17
16.81
21.9
26.15
29.37
31.49
32.57
32.82
32.55
32.13
31.87
31.95
32.38
33.03
33.71
34.16
34.17
33.59
32.34
30.46
28.05
25.31
22.52
19.89
17.62
15.77
14.25
12.86
11.29
9.21
6.43
2.96
-0.96
-4.9
-8.4
-11.21
-13.37
-15.18
-17.12
-19.65
-23.07
-27.48
-32.78
-38.63
-44.43
-49.31
-52.34
-52.76
-50.38
-45.65
-39.48
-32.78
-25.95
-18.66
-10.05
0.67
13.68
28.26
43.0
56.36
67.19
75.03
79.97
82.42
82.76
81.41
78.87
75.81
73.03
71.19
70.63
71.28
72.72
74.39
75.81
76.61
76.56
75.51
73.44
70.41
66.59
62.25
57.62
52.84
48.02
43.25
38.66
34.45
30.78
27.63
24.8
21.97
18.82
15.18
11.16
7.09
3.43
0.52
-1.57
-3.16
-4.87
-7.4
-11.24
-16.43
-22.56
-28.77
-34.04
-37.48
-38.54
-37.18
-33.85
-29.33
-24.43
-19.81
-15.77
-12.29
-9.1
-5.93
-2.6
0.85
4.26
7.41
10.18
12.54
14.6
16.54
18.5
20.61
22.89
25.34
27.91
30.52
33.0
35.08
36.41
36.66
35.69
33.6
30.72
27.44
23.96
20.25
16.06
11.08
5.17
-1.6
-8.94
-16.37
-23.39
-29.47
-34.18
-37.28
-38.83
-39.2
-39.03
-38.97
-39.53
-40.89
-42.89
-45.09
-46.93
-47.9
-47.67
-46.1
-43.32
-39.62
-35.4
-31.06
-26.88
-23.03
-19.54
-16.41
-13.61
-11.15
-8.98
-6.99
-5.07
-3.12
-1.18
0.54
1.71
2.0
1.22
-0.53
-2.9
-5.38
-7.49
-8.97
-9.88
-10.58
-11.63
-13.52
-16.56
-20.67
-25.47
-30.35
-34.79
-38.48
-41.51
-44.24
-47.17
-50.63
-54.61
-58.82
-62.68
-65.73
-67.83
-69.23
-70.56
-72.57
-75.86
-80.62
-86.53
-92.75
-97.89
-100.34
-98.58
-91.67
-79.68
-63.71
-45.72
-27.82
-11.68
2.02
13.43
23.26
32.14
40.38
47.84
54.26
59.52
63.83
67.66
71.53
75.83
80.63
85.67
90.53
94.73
97.83
99.49
99.49
97.77
94.5
90.06
85.0
79.84
74.88
70.07
65.01
59.15
52.01
43.37
33.38
22.48
11.39
0.95
-7.97
-14.6
-18.42
-19.32
-17.8
-14.84
-11.94
-10.82
-13.01
-19.35
-29.6
-42.29
-55.09
-65.51
-71.77
-73.26
-70.51
-64.76
-57.34
-49.38
-41.57
-34.25
-27.37
-20.55
-13.13
-4.54
5.32
15.81
25.67
33.49
38.4
40.39
40.17
38.66
36.55
34.06
31.1
27.53
23.35
18.74
14.07
9.81
6.38
3.98
2.47
1.3
-0.3
-2.95
-6.84
-11.52
-16.12
-19.85
-22.26
-23.43
-23.73
-23.54
-23.04
-22.22
-21.15
-19.94
-18.87
-18.23
-18.29
-19.16
-20.83
-23.18
-25.96
-28.85
-31.36
-32.95
-33.07
-31.26
-27.3
-21.3
-13.75
-5.41
2.83
10.27
16.56
21.8
26.32
30.44
34.23
37.45
39.65
40.5
39.91
38.16
35.63
32.76
29.81
26.93
24.21
21.79
19.87
18.65
18.18
18.31
18.65
18.68
17.92
16.07
13.09
9.23
4.86
0.37
-4.05
-8.45
-13.09
-18.22
-23.95
-30.1
-36.25
-41.89
-46.62
-50.37
-53.4
-56.26
-59.56
-63.77
-68.98
-74.78
-80.22
-83.95
-84.59
-81.2
-73.59
-62.52
-49.42
-35.94
-23.41
-12.53
-3.32
4.59
11.64
18.04
23.77
28.65
32.56
35.47
37.48
38.74
39.37
39.43
38.99
38.1
36.89
35.53
34.26
33.16
32.24
31.31
30.15
28.58
26.58
24.26
21.84
19.47
17.23
15.03
12.73
10.22
7.51
4.74
2.13
-0.1
-1.85
-3.25
-4.6
-6.34
-8.91
-12.59
-17.43
-23.15
-29.11
-34.36
-37.84
-38.68
-36.51
-31.64
-25.03
-17.95
-11.5
-6.27
-2.19
1.28
4.74
8.47
12.37
16.05
19.09
21.23
22.45
22.86
22.64
21.97
20.99
19.85
18.69
17.59
16.56
15.54
14.41
13.02
11.25
9.02
6.3
3.16
-0.13
-3.2
-5.57
-6.88
-7.05
-6.35
-5.35
-4.69
-4.91
-6.18
-8.38
-11.14
-14.1
-17.08
-20.19
-23.76
-28.22
-33.94
-41.06
-49.41
-58.4
-66.98
-73.73
-77.14
-75.98
-69.8
-59.14
-45.52
-30.95
-17.38
-6.15
2.27
8.12
12.08
14.81
16.77
18.18
19.09
19.52
19.5
19.05
18.16
16.81
15.07
13.1
11.28
10.03
9.74
10.6
12.52
15.18
18.14
20.93
23.21
24.82
25.71
25.91
25.47
24.44
22.91
21.01
19.0
17.11
15.53
14.26
13.06
11.56
9.45
6.61
3.24
-0.23
-3.29
-5.62
-7.25
-8.55
-10.12
-12.57
-16.29
-21.25
-26.99
-32.6
-36.94
-38.87
-37.64
-33.11
-25.97
-17.52
-9.34
-2.76
1.53
3.63
4.27
4.43
4.9
6.02
7.75
9.81
11.88
13.78
15.44
16.84
17.93
18.64
18.97
19.05
19.14
19.49
20.27
21.46
22.87
24.23
25.29
25.85
25.75
24.95
23.44
21.4
19.11
16.96
15.21
13.92
12.87
11.62
9.73
6.91
3.21
-1.11
-5.62
-9.95
-13.89
-17.42
-20.66
-23.88
-27.41
-31.61
-36.82
-43.15
-50.32
-57.49
-63.34
-66.42
-65.65
-60.8
-52.53
-42.23
-31.51
-21.6
-13.1
-5.99
0.19
5.91
11.48
16.92
22.05
26.62
30.38
33.22
35.11
36.17
36.55
36.49
36.21
35.92
35.74
35.72
35.81
35.89
35.83
35.49
34.77
33.61
32.01
30.06
27.9
25.72
23.64
21.67
19.7
17.5
14.86
11.67
8.03
4.23
0.62
-2.52
-5.09
-7.24
-9.27
-11.58
-14.59
-18.56
-23.56
-29.35
-35.27
-40.3
-43.26
-43.14
-39.5
-32.69
-23.8
-14.3
-5.57
1.54
6.77
10.37
12.82
14.59
16.05
17.47
19.01
20.69
22.39
23.84
24.76
24.97
24.53
23.74
22.99
22.59
22.7
23.27
24.16
25.26
26.49
27.8
29.08
30.14
30.72
30.64
29.87
28.62
27.19
25.9
24.9
24.12
23.37
22.43
21.2
19.73
18.2
16.8
15.68
14.83
14.11
13.24
11.87
9.66
6.35
1.75
-4.15
-11.13
-18.63
-25.65
-30.9
-33.08
-31.38
-25.87
-17.51
-8.0
0.91
7.96
12.72
15.61
17.48
19.21
21.43
24.3
27.75
31.45
35.05
38.22
40.7
42.36
43.14
43.09
42.35
41.16
39.82
38.7
38.08
38.06
38.48
38.92
38.81
37.64
35.14
31.4
26.8
21.95
17.42
13.68
10.91
8.99
7.56
6.18
4.46
2.24
-0.38
-3.1
-5.55
-7.49
-8.83
-9.76
-10.67
-12.04
-14.3
-17.59
-21.64
-25.69
-28.57
-28.98
-25.97
-19.3
-9.63
1.57
12.39
21.03
26.18
27.38
24.91
19.71
12.93
5.7
-1.23
-7.44
-12.81
-17.37
-21.16
-24.15
-26.27
-27.45
-27.66
-26.93
-25.28
-22.7
-19.16
-14.63
-9.21
-3.15
3.07
8.75
13.05
15.2
14.65
11.26
5.37
-2.38
-11.3
-20.85
-30.7
-40.73
-50.76
-60.46
-69.34
-76.81
-82.39
-85.77
-86.94
-86.2
-84.15
-81.59
-79.25
-77.44
-75.86
-73.54
-69.26
-62.1
-51.9
-39.47
-26.21
-13.6
-2.64
6.41
13.85
20.19
25.84
31.01
35.67
39.81
43.44
46.59
49.28
51.47
53.1
54.05
54.3
53.86
52.76
51.0
48.63
45.66
42.21
38.43
34.49
30.53
26.59
22.6
18.46
14.07
9.42
4.58
-0.28
-5.01
-9.53
-13.82
-17.92
-21.82
-25.56
-29.13
-32.58
-35.94
-39.23
-42.37
-45.24
-47.7
-49.64
-51.17
-52.54
-54.19
-56.44
-59.33
-62.31
-64.27
-63.88
-60.08
-52.6
-42.13
-30.11
-18.17
-7.52
1.35
8.61
14.74
20.1
24.76
28.61
31.52
33.56
35.04
36.31
37.59
38.86
39.87
40.26
39.75
38.32
36.28
34.19
32.64
32.01
32.27
32.98
33.52
33.33
32.16
30.13
27.54
24.66
21.53
18.0
13.8
8.8
3.14
-2.8
-8.52
-13.61
-17.92
-21.63
-25.15
-28.94
-33.43
-38.79
-44.96
-51.52
-57.72
-62.52
-64.77
-63.61
-58.78
-50.82
-40.97
-30.73
-21.44
-13.8
-7.84
-3.1
0.97
4.7
8.11
10.98
13.12
14.46
15.16
15.46
15.59
15.68
15.8
15.95
16.14
16.44
16.91
17.54
18.2
18.65
18.59
17.82
16.31
14.27
12.01
9.84
7.88
6.02
3.93
1.26
-2.18
-6.32
-10.83
-15.29
-19.36
-22.92
-26.08
-29.12
-32.38
-36.21
-40.83
-46.27
-52.16
-57.7
-61.72
-62.95
-60.56
-54.46
-45.44
-34.96
-24.55
-15.29
-7.56
-1.08
4.74
10.42
16.13
21.71
26.83
31.24
34.85
37.85
40.44
42.8
44.96
46.9
48.64
50.36
52.36
54.97
58.27
62.0
65.7
68.9
71.44
73.42
75.18
76.94
78.62
79.85
80.16
79.28
77.23
74.34
70.91
67.05
62.53
56.96
50.16
42.34
34.18
26.53
20.0
14.69
10.11
5.45
-0.01
-6.55
-13.83
-21.1
-27.58
-32.78
-36.8
-40.24
-43.91
-48.47
-54.13
-60.55
-66.97
-72.47
-76.24
-77.85
-77.27
-74.81
-71.0
-66.4
-61.46
-56.5
-51.66
-46.96
-42.37
-37.88
-33.5
-29.27
-25.21
-21.26
-17.36
-13.48
-9.7
-6.21
-3.31
-1.27
-0.25
-0.22
-0.96
-2.11
-3.3
-4.27
-4.94
-5.45
-6.09
-7.16
-8.89
-11.27
-14.12
-17.09
-19.83
-22.16
-24.13
-26.04
-28.3
-31.32
-35.4
-40.57
-46.59
-52.83
-58.32
-61.9
-62.46
-59.32
-52.51
-42.8
-31.5
-20.06
-9.63
-0.87
6.12
11.68
16.35
20.71
25.2
30.01
34.96
39.64
43.46
45.93
46.89
46.62
45.71
44.89
44.73
45.41
46.75
48.32
49.67
50.51
50.75
50.5
49.93
49.18
48.37
47.61
47.05
46.72
46.42
45.62
43.52
39.35
32.81
24.3
14.9
5.87
-1.89
-8.18
-13.48
-18.55
-23.85
-29.4
-34.77
-39.47
-43.33
-46.54
-49.38
-51.77
-53.06
-52.17
-48.12
-40.51
-29.88
-17.52
-5.06
6.19
15.6
23.25
29.64
35.26
40.33
44.79
48.38
50.86
52.12
52.23
51.43
49.93
47.93
45.56
42.95
40.22
37.2
33.64
29.19
23.61
16.74
8.83
0.52
-7.06
-12.59
-15.35
-15.23
-13.03
-10.31
-9.49
-13.3
-24.01
-42.38
-66.88
-94.06
-118.74
-135.83
-141.75
-136.36
-122.9
-106.97
-94.24
-86.26
-83.65
-84.99
-90.4
-98.23
-107.39
-115.66
-121.54
-123.69
-121.1
-113.9
-103.03
-90.26
-77.18
-65.17
-54.65
-45.33
-36.28
-26.51
-15.85
-4.68
6.14
15.83
23.72
29.55
33.43
35.97
37.98
39.98
42.28
44.87
47.6
50.11
52.05
53.1
53.21
52.55
51.33
49.88
48.41
47.09
45.8
44.3
42.27
39.61
36.43
32.99
29.63
26.51
23.67
20.89
17.9
14.47
10.51
6.12
1.53
-3.01
-7.3
-11.3
-15.13
-19.05
-23.42
-28.52
-34.44
-40.91
-47.26
-52.55
-55.67
-55.74
-52.31
-45.54
-36.22
-25.51
-14.67
-4.64
4.06
11.41
17.73
23.48
29.01
34.54
40.08
45.44
50.34
54.45
57.45
59.2
59.68
59.09
57.79
56.18
54.63
53.44
52.73
52.42
52.3
52.09
51.52
50.44
48.85
46.86
44.66
42.4
40.17
37.97
35.8
33.68
31.6
29.58
27.56
25.43
23.07
20.37
17.36
14.12
10.84
7.62
4.52
1.45
-1.78
-5.41
-9.62
-14.54
-20.2
-26.43
-32.83
-38.72
-43.17
-45.25
-44.29
-40.11
-33.14
-24.32
-14.77
-5.5
2.85
10.02
16.12
21.41
26.17
30.63
34.81
38.6
41.81
44.22
45.71
46.32
46.16
45.47
44.43
43.23
41.99
40.78
39.69
38.73
37.95
37.26
36.58
35.73
34.54
32.84
30.57
27.76
24.59
21.27
18.05
15.06
12.31
9.72
7.13
4.41
1.47
-1.71
-5.07
-8.53
-12.01
-15.39
-18.66
-21.85
-25.03
-28.38
-32.09
-36.32
-41.04
-45.94
-50.35
-53.34
-54.02
-51.83
-46.76
-39.41
-30.74
-21.78
-13.32
-5.74
0.9
6.71
11.84
16.45
20.6
24.33
27.63
30.44
32.65
34.15
34.89
34.9
34.3
33.27
32.02
30.72
29.49
28.45
27.62
27.04
26.64
26.34
25.99
25.41
24.43
22.93
20.92
18.48
15.79
13.05
10.42
7.97
5.72
3.61
1.5
-0.71
-3.18
-6.0
-9.19
-12.66
-16.21
-19.63
-22.8
-25.73
-28.61
-31.75
-35.44
-39.78
-44.55
-49.25
-53.07
-55.2
-54.95
-52.04
-46.65
-39.37
-31.03
-22.51
-14.51
-7.43
-1.36
3.85
8.46
12.69
16.65
20.3
23.53
26.22
28.31
29.8
30.73
31.12
31.04
30.56
29.86
29.14
28.58
28.26
28.09
27.89
27.46
26.66
25.52
24.09
22.47
20.72
18.83
16.82
14.71
12.54
10.37
8.21
6.07
3.95
1.87
-0.17
-2.21
-4.34
-6.66
-9.22
-12.02
-14.96
-17.88
-20.68
-23.3
-25.81
-28.36
-31.15
-34.36
-38.14
-42.41
-46.84
-50.82
-53.53
-54.21
-52.36
-48.0
-41.6
-33.99
-26.02
-18.37
-11.39
-5.14
0.52
5.72
10.56
15.04
19.11
22.73
25.88
28.53
30.66
32.22
33.15
33.48
33.35
33.01
32.72
32.69
32.94
33.35
33.72
33.86
33.7
33.31
32.83
32.38
32.0
31.61
31.1
30.34
29.22
27.68
25.72
23.44
21.04
18.82
17.12
16.23
16.24
17.0
18.1
18.99
19.17
18.28
16.21
13.06
9.05
4.37
-0.89
-6.75
-13.31
-20.61
-28.55
-36.67
-44.3
-50.53
-54.57
-55.95
-54.65
-51.13
-46.08
-40.18
-33.9
-27.44
-20.82
-14.12
-7.45
-0.98
5.23
11.32
17.46
23.75
29.92
35.43
39.57
41.86
42.3
41.3
39.55
37.68
35.99
34.51
33.11
31.71
30.39
29.34
28.62
28.08
27.34
25.92
23.48
20.03
15.91
11.68
7.91
4.95
2.83
1.29
-0.1
-1.74
-3.91
-6.73
-10.14
-13.97
-18.05
-22.17
-26.25
-30.29
-34.34
-38.43
-42.48
-46.14
-48.94
-50.28
-49.78
-47.29
-43.06
-37.56
-31.34
-24.89
-18.59
-12.72
-7.48
-3.11
0.24
2.53
3.85
4.46
4.68
4.79
4.94
5.16
5.35
5.41
5.31
5.11
4.96
5.05
5.45
6.08
6.76
7.25
7.35
7.01
6.22
5.06
3.61
1.99
0.3
-1.32
-2.75
-3.97
-5.06
-6.21
-7.58
-9.28
-11.27
-13.39
-15.49
-17.42
-19.12
-20.6
-21.94
-23.29
-24.88
-26.97
-29.74
-33.16
-36.9
-40.33
-42.72
-43.4
-42.01
-38.62
-33.68
-27.83
-21.76
-15.99
-10.81
-6.31
-2.41
0.98
3.96
6.6
8.92
10.91
12.5
13.62
14.2
14.22
13.75
12.97
12.11
11.44
11.08
11.09
11.32
11.58
11.65
11.4
10.83
10.08
9.34
8.75
8.35
8.06
7.69
7.08
6.17
5.03
3.83
2.69
1.7
0.74
-0.37
-1.8
-3.55
-5.4
-7.03
-8.16
-8.73
-8.98
-9.35
-10.31
-12.17
-15.02
-18.8
-23.4
-28.67
-34.36
-39.94
-44.6
-47.4
-47.56
-44.78
-39.31
