37.41
36.53
35.4
34.46
34.04
34.28
35.11
36.23
37.26
37.79
37.55
36.43
34.51
31.94
28.91
25.57
22.0
18.26
14.4
10.49
6.61
2.78
-1.02
-4.79
-8.54
-12.2
-15.65
-18.85
-21.87
-25.03
-28.8
-33.61
-39.55
-46.1
-52.17
-56.24
-56.84
-53.08
-44.96
-33.4
-19.99
-6.48
5.68
15.67
23.25
28.65
32.26
34.39
35.23
34.95
33.81
32.22
30.72
29.79
29.69
30.34
31.45
32.57
33.33
33.52
33.05
31.98
30.37
28.31
25.83
22.91
19.56
15.74
11.53
7.13
2.81
-1.16
-4.62
-7.62
-10.4
-13.31
-16.68
-20.76
-25.71
-31.51
-37.96
-44.52
-50.26
-53.99
-54.53
-51.07
-43.53
-32.6
-19.62
-6.21
6.19
16.57
24.48
29.92
33.18
34.63
34.68
33.67
32.0
30.12
28.5
27.57
27.53
28.28
29.46
30.58
31.22
31.19
30.58
29.58
28.38
26.97
25.14
22.61
19.18
14.86
9.91
4.76
-0.19
-4.62
-8.48
-11.9
-15.15
-18.52
-22.3
-26.72
-31.91
-37.83
-44.1
-49.92
-54.06
-55.24
-52.47
-45.54
-35.15
-22.71
-9.95
1.71
11.37
18.82
24.19
27.77
29.78
30.36
29.76
28.32
26.56
25.01
24.04
23.77
24.0
24.39
24.58
24.33
23.6
22.54
21.36
20.21
19.07
17.76
15.93
13.24
9.51
4.8
-0.55
-6.04
-11.15
-15.54
-19.16
-22.27
-25.28
-28.68
-32.92
-38.23
-44.6
-51.64
-58.48
-63.91
-66.58
-65.37
-59.81
-50.27
-37.94
-24.49
-11.55
-0.4
8.34
14.62
18.73
21.13
22.23
22.38
21.9
21.14
20.48
20.24
20.61
21.56
22.84
24.14
25.22
25.98
26.5
26.89
27.13
27.0
26.17
24.28
21.21
17.14
12.52
7.95
3.93
0.69
-1.83
-3.93
-6.09
-8.81
-12.5
-17.29
-22.97
-28.8
-33.65
-36.21
-35.37
-30.6
-22.14
-10.95
1.61
14.17
25.61
35.15
42.29
46.7
48.23
47.04
43.59
38.68
33.3
28.41
24.66
22.34
21.25
20.88
20.59
19.82
18.27
15.96
13.16
10.14
7.04
3.68
-0.25
-5.06
-10.76
-17.06
-23.38
-29.14
-33.94
-37.71
-40.67
-43.28
-46.04
-49.46
-53.93
-59.67
-66.47
-73.66
-79.99
-83.89
-83.86
-79.03
-69.49
-56.37
-41.5
-26.87
-14.01
-3.78
3.76
8.99
12.44
14.54
15.54
15.66
15.18
14.51
14.12
14.44
15.62
17.51
19.69
21.63
22.92
23.45
23.37
22.98
22.52
22.04
21.41
20.34
18.55
15.93
12.54
8.66
4.65
0.85
-2.52
-5.44
-8.08
-10.71
-13.64
-17.17
-21.53
-26.87
-33.08
-39.66
-45.62
-49.6
-50.21
-46.55
-38.63
-27.38
-14.44
-1.56
9.89
19.21
26.25
31.21
34.32
35.74
35.63
34.31
32.3
30.31
29.0
28.74
29.53
30.94
32.34
33.18
33.14
32.29
30.91
29.33
27.7
25.83
23.4
20.01
15.56
10.29
4.74
-0.48
-4.92
-8.47
-11.44
-14.31
-17.66
-21.89
-27.22
-33.57
-40.59
-47.5
-53.23
-56.48
-56.12
-51.57
-43.06
-31.71
-19.16
-7.09
3.27
11.4
17.35
21.48
24.15
25.59
25.91
25.31
24.15
22.92
22.08
21.89
22.32
23.1
23.9
24.47
24.65
24.42
23.76
22.69
21.22
19.43
17.39
15.11
12.51
9.42
5.71
1.45
-3.04
-7.35
-11.09
-14.14
-16.69
-19.18
-22.07
-25.75
-30.43
-36.06
-42.32
-48.52
-53.64
-56.43
-55.76
-51.0
-42.31
-30.66
-17.61
-4.8
6.38
15.19
21.42
25.35
27.4
28.05
27.67
26.6
25.18
23.78
22.75
22.36
22.66
23.57
24.82
26.13
27.18
27.74
27.66
26.91
25.56
23.75
21.62
19.27
16.71
13.85
10.61
7.0
3.17
-0.65
-4.22
-7.41
-10.26
-12.97
-15.78
-18.96
-22.74
-27.3
-32.73
-38.88
-45.19
-50.63
-53.88
-53.67
-49.26
-40.81
-29.38
-16.66
-4.36
6.25
14.61
20.77
25.03
27.68
28.78
28.34
26.53
23.84
21.06
19.06
18.4
19.15
20.83
22.64
23.81
23.91
22.93
21.22
19.21
17.17
15.15
12.98
10.4
7.22
3.42
-0.85
-5.31
-9.64
-13.59
-17.06
-20.13
-23.04
-26.15
-29.87
-34.47
-39.97
-45.96
-51.56
-55.55
-56.67
-53.95
-47.16
-36.89
-24.46
-11.53
0.37
10.2
17.57
22.65
25.88
27.72
28.52
28.42
27.57
26.18
24.6
23.31
22.69
22.93
23.89
25.16
26.28
26.89
26.85
26.22
25.15
23.77
22.12
20.12
17.68
14.69
11.09
6.96
2.44
-2.22
-6.7
-10.75
-14.24
-17.23
-20.0
-22.95
-26.55
-31.17
-36.9
-43.43
-49.91
-55.07
-57.46
-55.92
-50.03
-40.28
-28.01
-14.98
-2.83
7.36
15.18
20.74
24.39
26.44
27.11
26.6
25.22
23.41
21.74
20.68
20.52
21.22
22.48
23.86
24.92
25.36
25.1
24.27
23.08
21.74
20.29
18.6
16.38
13.36
9.48
4.97
0.32
-3.94
-7.4
-10.03
-12.12
-14.14
-16.6
-19.84
-24.0
-29.02
-34.6
-40.18
-44.9
-47.67
-47.52
-43.82
-36.64
-26.79
-15.54
-4.26
5.91
14.32
20.72
25.14
27.67
28.5
27.84
26.04
23.59
21.08
19.03
17.86
17.73
18.55
20.01
21.69
23.11
23.92
23.89
23.02
21.45
19.4
17.05
14.47
11.61
8.33
4.57
0.4
-3.96
-8.2
-12.06
-15.41
-18.33
-21.04
-23.85
-27.12
-31.15
-36.14
-42.04
-48.36
-54.14
-58.06
-58.76
-55.33
-47.6
-36.34
-23.07
-9.57
2.61
12.47
19.7
24.48
27.24
28.46
28.53
27.78
26.54
25.14
23.91
23.1
22.81
23.06
23.7
24.56
25.42
26.01
26.09
25.48
24.08
21.96
19.32
16.43
13.53
10.71
7.92
5.03
1.82
-1.74
-5.58
-9.45
-13.07
-16.23
-18.94
-21.46
-24.16
-27.56
-32.01
-37.59
-43.96
-50.28
-55.34
-57.81
-56.63
-51.34
-42.33
-30.68
-17.94
-5.61
5.14
13.71
19.93
23.96
26.09
26.62
25.9
24.31
22.37
20.64
19.62
19.57
20.41
21.81
23.23
24.24
24.55
24.16
23.25
22.03
20.63
19.02
17.02
14.43
11.1
7.05
2.49
-2.19
-6.56
-10.3
-13.32
-15.84
-18.35
-21.45
-25.64
-31.14
-37.7
-44.58
-50.66
-54.65
-55.44
-52.43
-45.7
-35.98
-24.47
-12.5
-1.25
8.48
16.27
21.97
25.61
27.32
27.32
25.96
23.73
21.24
19.08
17.74
17.41
18.05
19.33
20.8
22.01
22.61
22.48
21.64
20.23
18.43
16.35
13.99
11.27
8.13
4.53
0.59
-3.47
-7.42
-11.04
-14.24
-17.1
-19.82
-22.71
-26.12
-30.36
-35.61
-41.72
-48.14
-53.89
-57.69
-58.3
-54.93
-47.53
-36.84
-24.22
-11.2
0.84
10.95
18.71
24.08
27.29
28.67
28.6
27.51
25.84
24.04
22.5
21.5
21.16
21.45
22.2
23.14
24.0
24.54
24.64
24.26
23.42
22.22
20.68
18.77
16.41
13.5
9.96
5.89
1.45
-3.03
-7.21
-10.87
-13.99
-16.74
-19.48
-22.65
-26.57
-31.46
-37.27
-43.59
-49.68
-54.45
-56.69
-55.32
-49.86
-40.63
-28.79
-16.04
-4.01
6.11
13.83
19.27
22.8
24.82
25.51
24.97
23.36
21.07
18.71
16.92
16.15
16.5
17.65
19.05
20.16
20.62
20.4
19.64
18.6
17.37
15.89
13.93
11.25
7.77
3.63
-0.84
-5.2
-9.08
-12.29
-14.95
-17.36
-20.0
-23.38
-27.88
-33.63
-40.33
-47.18
-52.93
-56.14
-55.63
-50.85
-42.14
-30.69
-18.13
-6.02
4.54
13.07
19.6
24.37
27.62
29.5
30.14
29.74
28.71
27.5
26.59
26.26
26.51
27.12
27.77
28.17
28.2
27.9
27.37
26.66
25.71
24.31
22.23
19.29
15.47
10.98
6.19
1.55
-2.62
-6.14
-9.11
-11.76
-14.43
-17.46
-21.22
-26.0
-31.93
-38.82
-46.03
-52.4
-56.55
-57.15
-53.42
-45.45
-34.19
-21.26
-8.39
2.99
12.09
18.76
23.29
26.08
27.45
27.59
26.66
24.97
22.99
21.33
20.49
20.71
21.92
23.75
25.73
27.41
28.48
28.78
28.31
27.17
25.52
23.51
21.2
18.58
15.58
12.18
8.43
4.52
0.73
-2.69
-5.53
-7.8
-9.71
-11.66
-14.16
-17.71
-22.63
-28.91
-36.01
-42.92
-48.27
-50.63
-48.97
-42.98
-33.25
-21.09
-8.23
3.74
13.68
21.13
26.17
29.18
30.6
30.72
29.85
28.28
26.44
24.84
23.95
24.02
25.01
26.56
28.12
29.22
29.53
28.98
27.72
26.01
24.09
22.01
19.67
16.8
13.18
8.75
3.69
-1.57
-6.51
-10.79
-14.31
-17.28
-20.11
-23.29
-27.22
-32.2
-38.26
-45.1
-51.99
-57.77
-61.08
-60.7
-56.02
-47.25
-35.48
-22.28
-9.29
2.23
11.56
18.58
23.54
26.79
28.7
29.53
29.53
29.01
28.25
27.61
27.34
27.57
28.23
29.14
30.02
30.63
30.81
30.49
29.72
28.52
26.9
24.82
22.24
19.19
15.73
11.99
8.09
4.12
0.17
-3.7
-7.37
-10.8
-14.0
-17.17
-20.64
-24.82
-30.05
-36.39
-43.51
-50.57
-56.39
-59.63
-59.21
-54.6
-46.07
-34.6
-21.68
-8.87
2.57
11.87
18.85
23.66
26.66
28.18
28.45
27.71
26.25
24.51
23.03
22.36
22.78
24.2
26.22
28.19
29.52
29.85
29.14
27.62
25.65
23.55
21.46
19.32
16.93
14.03
10.49
6.39
1.96
-2.44
-6.51
-10.05
-13.08
-15.78
-18.43
-21.37
-24.91
-29.32
-34.56
-40.29
-45.66
-49.5
-50.57
-48.0
-41.55
-31.77
-19.87
-7.35
4.39
14.3
21.88
27.01
29.87
30.75
30.05
28.24
25.92
23.72
22.16
21.56
21.86
22.74
23.71
24.36
24.47
24.09
23.39
22.52
21.48
20.09
18.07
15.13
11.19
6.39
1.11
-4.11
-8.77
-12.54
-15.44
-17.79
-20.22
-23.4
-27.85
-33.64
-40.32
-46.88
-51.95
-54.18
-52.64
-47.1
-38.13
-26.94
-15.0
-3.63
6.27
14.32
20.49
24.92
27.77
29.14
29.15
28.07
26.36
24.59
23.34
22.96
23.45
24.49
25.5
25.96
25.57
24.36
22.65
20.83
19.15
17.55
15.7
13.16
9.66
5.22
0.18
-4.9
-9.51
-13.39
-16.56
-19.32
-22.09
-25.32
-29.32
-34.24
-39.91
-45.73
-50.72
-53.62
-53.28
-49.05
-41.12
-30.42
-18.38
-6.52
4.03
12.64
19.22
23.9
26.91
28.44
28.66
27.81
26.26
24.51
23.1
22.47
22.75
23.76
25.06
26.11
26.5
26.04
24.89
23.33
21.63
19.91
18.05
15.74
12.72
8.84
4.29
-0.54
-5.13
-9.09
-12.28
-14.86
-17.21
-19.77
-22.94
-27.01
-32.06
-37.93
-44.05
-49.48
-53.02
-53.5
-50.17
-42.99
-32.73
-20.73
-8.58
2.38
11.29
17.87
22.22
24.72
25.68
25.42
24.21
22.41
20.51
19.04
18.38
18.68
19.73
21.06
22.22
22.91
23.09
22.92
22.55
21.94
20.87
18.99
16.04
12.0
7.17
2.01
-2.95
-7.36
-11.14
-14.49
-17.78
-21.45
-25.93
-31.4
-37.73
-44.34
-50.2
-54.03
-54.6
-51.14
-43.67
-33.05
-20.75
-8.43
2.53
11.35
17.86
22.32
25.09
26.48
26.71
25.98
24.64
23.16
22.08
21.81
22.43
23.67
25.04
26.03
26.3
25.81
24.75
23.42
22.04
20.66
19.07
16.97
14.06
10.27
5.79
1.05
-3.42
-7.21
-10.19
-12.58
-14.87
-17.66
-21.47
-26.56
-32.75
-39.38
-45.34
-49.31
-50.11
-47.03
-40.17
-30.38
-19.05
-7.66
2.57
10.96
17.35
21.86
24.77
26.29
26.63
26.01
24.78
23.39
22.29
21.84
22.12
22.96
23.99
24.83
25.2
24.99
24.3
23.29
22.06
20.6
18.82
16.6
13.87
10.62
6.93
2.94
-1.16
-5.15
-8.79
-11.91
-14.51
-16.74
-18.94
-21.56
-25.02
-29.57
-35.15
-41.22
-46.82
-50.7
-51.65
-48.93
-42.5
-33.1
-22.03
-10.75
-0.45
8.18
14.9
19.79
23.06
24.86
25.33
24.7
23.33
21.73
20.4
19.75
19.92
20.77
21.96
23.07
23.74
23.8
23.27
22.24
20.82
19.02
16.77
13.94
10.51
6.53
2.26
-2.01
-5.98
-9.46
-12.41
-14.97
-17.45
-20.24
-23.75
-28.25
-33.73
-39.75
-45.43
-49.56
-50.91
-48.63
-42.57
-33.34
-22.17
-10.52
0.34
9.57
16.83
22.12
25.56
27.32
27.54
26.48
24.56
22.39
20.59
19.64
19.75
20.76
22.27
23.78
24.85
25.25
24.91
23.95
22.56
20.9
19.06
16.99
14.54
11.57
8.0
3.96
-0.34
-4.56
-8.45
-11.85
-14.79
-17.42
-20.0
-22.85
-26.31
-30.62
-35.85
-41.68
-47.35
-51.74
-53.61
-51.99
-46.51
-37.58
-26.34
-14.27
-2.86
6.85
14.35
19.65
23.07
24.98
25.68
25.4
24.39
23.01
21.7
20.88
20.78
21.33
22.26
23.23
23.98
24.38
24.39
23.97
22.99
21.3
18.84
15.73
12.21
8.64
5.29
2.29
-0.41
-2.95
-5.49
-8.09
-10.72
-13.26
-15.61
-17.73
-19.77
-21.99
-24.79
-28.55
-33.41
-39.11
-44.89
-49.57
-51.84
-50.67
-45.65
-37.19
-26.42
-14.83
-3.83
5.52
12.71
17.68
20.65
22.01
22.15
21.48
20.4
19.26
18.37
18.0
18.27
19.21
20.63
22.2
23.57
24.39
24.54
24.06
23.1
21.81
20.25
18.35
16.0
13.11
9.71
6.0
2.27
-1.21
-4.26
-6.83
-9.04
-11.15
-13.45
-16.22
-19.71
-24.07
-29.29
-35.11
-40.92
-45.76
-48.49
-48.11
-44.1
-36.64
-26.66
-15.48
-4.52
5.15
12.98
18.84
22.87
25.29
26.21
25.79
24.26
22.06
19.82
18.15
17.5
17.96
19.25
20.88
22.33
23.25
23.49
23.05
22.01
20.4
18.25
15.64
12.66
9.52
6.38
3.28
0.2
-3.0
-6.37
-9.87
-13.34
-16.58
-19.52
-22.3
-25.27
-28.82
-33.23
-38.41
-43.84
-48.56
-51.42
-51.31
-47.58
-40.27
-30.13
-18.46
-6.75
3.71
12.14
18.26
22.22
24.39
25.1
24.67
23.35
21.46
19.41
17.65
16.59
16.44
17.14
18.41
19.87
21.19
22.15
22.72
22.91
22.73
22.18
21.2
19.79
17.95
15.74
13.19
10.41
7.48
4.57
1.84
-0.61
-2.81
-4.93
-7.28
-10.21
-14.02
-18.99
-25.2
-32.52
-40.5
-48.27
-54.7
-58.5
-58.68
-54.83
-47.29
-37.14
-25.81
-14.77
-5.15
2.4
7.67
10.75
11.85
11.28
9.43
6.8
4.02
1.71
0.39
0.3
1.32
3.08
5.07
6.82
8.06
8.76
9.09
9.18
9.07
8.53
7.28
5.1
2.0
-1.62
-5.23
-8.34
-10.76
-12.65
-14.4
-16.5
-19.29
-22.95
-27.36
-32.17
-36.72
-40.06
-41.15
-39.07
-33.43
-24.49
-13.24
-1.09
10.49
20.3
27.66
32.35
34.55
34.61
32.94
30.0
26.29
22.36
18.75
15.9
14.11
13.41
13.6
14.36
15.28
15.96
16.02
15.15
13.15
10.0
5.91
1.25
-3.52
-8.03
-12.13
-15.89
-19.59
-23.58
-28.2
-33.54
-39.42
-45.21
-49.97
-52.56
-52.0
-47.79
-40.1
-29.82
-18.32
-7.03
2.89
10.79
16.56
20.43
22.77
23.88
23.98
23.23
21.81
19.98
18.08
16.49
15.44
15.01
15.05
15.32
15.47
15.24
14.4
12.85
10.55
7.54
3.9
-0.19
-4.5
-8.79
-12.87
-16.71
-20.53
-24.71
-29.62
-35.32
-41.44
-47.04
-50.83
-51.55
-48.38
-41.24
-30.86
-18.58
-5.99
5.54
15.11
22.37
27.46
30.67
32.34
32.74
32.14
30.86
29.34
28.06
27.38
27.4
27.93
28.59
29.04
29.05
28.66
28.02
27.25
26.29
24.88
22.66
19.32
14.85
9.53
3.91
-1.43
-6.06
-9.86
-13.05
-16.1
-19.58
-24.0
-29.67
-36.52
-43.96
-50.84
-55.7
-57.13
-54.23
-47.03
-36.48
-24.2
-11.9
-0.9
8.12
15.16
20.53
24.54
27.35
28.96
29.4
28.88
27.86
26.9
26.5
26.87
27.94
29.34
30.64
31.48
31.66
31.19
30.19
28.79
27.01
24.8
22.05
18.68
14.73
10.39
5.97
1.82
-1.82
-4.85
-7.39
-9.7
-12.11
-14.9
-18.31
-22.5
-27.48
-32.99
-38.46
-42.95
-45.33
-44.59
-40.21
-32.42
-22.13
-10.73
0.42
10.3
18.44
24.78
29.42
32.45
33.86
33.74
32.38
30.34
28.38
27.13
26.92
27.58
28.64
29.49
29.75
29.35
28.53
27.6
26.79
26.06
25.15
23.66
21.22
17.65
12.99
7.57
1.84
-3.69
-8.63
-12.84
-16.44
-19.75
-23.2
-27.22
-32.11
-37.92
-44.41
-50.84
-56.07
-58.71
-57.56
-52.03
-42.49
-30.18
-16.8
-4.02
7.04
15.92
22.63
27.39
30.38
31.72
31.57
30.33
28.57
26.96
25.98
25.84
26.41
27.35
28.26
28.83
28.88
28.38
27.43
26.12
24.52
22.62
20.36
17.69
14.6
11.16
7.5
3.75
0.01
-3.61
-7.01
-10.05
-12.62
-14.75
-16.62
-18.59
-21.09
-24.5
-29.02
-34.44
-40.15
-45.1
-48.05
-47.92
-44.13
-36.88
-27.09
-16.18
-5.53
3.81
11.4
17.2
21.43
24.3
25.92
26.41
25.95
24.92
23.8
23.01
22.79
23.13
23.86
24.73
25.57
26.27
26.76
26.98
26.8
26.09
24.72
22.73
20.26
17.56
14.89
12.49
10.42
8.64
7.0
5.31
3.41
1.24
-1.1
-3.48
-5.76
-7.89
-9.97
-12.25
-15.05
-18.65
-23.15
-28.28
-33.38
-37.47
-39.51
-38.66
-34.59
-27.63
-18.67
-8.91
0.45
8.51
14.73
19.01
21.47
22.42
22.15
21.0
19.29
17.33
15.45
13.98
13.15
13.04
13.57
14.44
15.3
15.81
15.77
15.15
14.07
12.64
10.96
9.07
6.91
4.46
1.71
-1.26
-4.36
-7.44
-10.33
-12.94
-15.21
-17.18
-18.96
-20.7
-22.59
-24.86
-27.72
-31.34
-35.72
-40.49
-44.88
-47.81
-48.25
-45.49
-39.55
-31.08
-21.29
-11.45
-2.67
4.42
9.62
13.04
14.97
15.76
15.73
15.16
14.34
13.5
12.85
12.58
12.78
13.45
14.45
15.52
16.4
16.86
16.82
16.34
15.57
14.66
13.72
12.79
11.82
10.77
9.59
8.29
6.88
5.39
3.83
2.28
0.8
-0.49
-1.51
-2.28
-3.01
-4.1
-6.1
-9.5
-14.48
-20.71
-27.26
-32.82
-36.06
-36.07
-32.67
-26.42
-18.42
-9.92
-2.0
4.64
9.7
13.11
14.96
15.41
14.68
13.11
11.15
9.27
7.88
7.23
7.33
8.01
9.01
10.05
10.96
11.65
12.13
12.35
12.25
11.67
10.49
8.68
6.43
4.0
1.68
-0.33
-2.05
-3.66
-5.42
-7.53
-9.99
-12.67
-15.29
-17.62
-19.53
-21.07
-22.43
-23.94
-25.9
-28.62
-32.17
-36.36
-40.61
-44.0
-45.48
-44.12
-39.55
-32.05
-22.56
-12.4
-2.86
5.12
11.15
15.27
17.76
18.97
19.13
18.43
17.11
15.5
14.0
13.02
12.79
13.32
14.38
15.62
16.66
17.26
17.3
16.79
15.8
14.39
12.6
10.48
8.1
5.51
2.74
-0.12
-3.04
-5.91
-8.63
-11.08
-13.2
-15.07
-16.87
-18.82
-21.17
-24.07
-27.59
-31.73
-36.4
-41.34
-46.04
-49.71
-51.4
-50.3
-46.04
-38.9
-29.82
-20.04
-10.81
-3.02
2.93
7.05
9.58
10.79
10.97
10.39
9.41
8.48
7.99
8.26
9.32
11.04
13.15
15.37
17.49
19.38
20.98
22.17
22.82
22.75
21.87
20.22
17.99
15.48
12.99
10.72
8.66
6.64
4.4
1.77
-1.26
-4.49
-7.61
-10.38
-12.67
-14.62
-16.56
-18.95
-22.2
-26.55
-31.89
-37.65
-42.81
-46.12
-46.45
-43.16
-36.38
-26.93
-16.11
-5.25
4.59
12.79
19.12
23.64
26.53
28.04
28.5
28.29
27.82
27.43
27.33
27.58
28.07
28.65
29.1
29.34
29.36
29.27
29.16
29.04
28.76
28.12
26.89
24.97
22.45
19.59
16.68
13.91
11.29
8.69
5.88
2.77
-0.67
-4.28
-7.85
-11.17
-14.17
-16.92
-19.64
-22.7
-26.45
-31.21
-36.99
-43.42
-49.68
-54.63
-57.12
-56.36
-52.18
-45.06
-35.98
-26.06
-16.3
-7.41
0.09
5.89
9.78
11.74
11.99
11.03
9.58
8.31
7.74
8.1
9.33
11.14
13.19
15.14
16.74
17.81
18.31
18.3
17.89
17.27
16.51
15.61
14.41
12.75
10.5
7.67
4.39
0.89
-2.58
-5.85
-8.87
-11.72
-14.68
-18.1
-22.31
-27.43
-33.15
-38.69
-42.92
-44.67
-43.14
-38.18
-30.35
-20.69
-10.38
-0.41
8.52
16.02
21.87
25.96
28.24
28.83
28.02
26.27
24.09
21.99
20.36
19.46
19.31
19.82
20.7
21.57
22.08
21.97
21.17
19.8
18.05
16.08
13.92
11.41
8.39
4.79
0.7
-3.6
-7.79
-11.62
-15.06
-18.23
-21.4
-24.77
-28.56
-32.86
-37.62
-42.64
-47.4
-51.08
-52.67
-51.27
-46.39
-38.22
-27.67
-16.06
-4.77
5.17
13.27
19.48
23.97
26.92
28.45
28.64
27.67
25.98
24.17
22.87
22.52
23.26
24.85
26.81
28.6
29.83
30.31
30.07
29.29
28.14
26.7
24.95
22.78
20.05
16.7
12.8
8.55
4.29
0.39
-2.88
-5.43
-7.47
-9.42
-11.82
-15.13
-19.53
-24.86
-30.57
-35.81
-39.58
-40.98
-39.35
-34.52
-26.88
-17.33
-7.12
2.5
10.58
16.63
20.63
22.87
23.73
23.53
22.57
21.15
19.71
18.73
18.69
19.74
21.65
23.81
25.5
26.18
25.75
24.51
22.97
21.53
20.25
18.82
16.79
13.86
10.1
5.91
1.85
-1.65
-4.48
-6.81
-9.01
-11.43
-14.39
-18.1
-22.67
-27.99
-33.65
-38.84
-42.51
-43.57
-41.33
-35.71
-27.27
-17.11
-6.5
3.47
12.01
18.75
23.61
26.67
28.08
28.04
26.84
24.98
23.01
21.53
20.93
21.32
22.46
23.87
25.05
25.67
25.63
25.1
24.28
23.32
22.21
20.81
18.94
16.52
13.59
10.31
6.91
3.56
0.36
-2.67
-5.61
-8.58
-11.75
-15.34
-19.58
-24.6
-30.32
-36.28
-41.66
-45.41
-46.48
-44.19
-38.46
-29.91
-19.73
-9.3
0.17
7.9
13.66
17.62
20.13
21.52
22.03
21.81
21.04
19.96
18.92
18.26
18.22
18.84
19.93
21.14
22.1
22.55
22.43
21.82
20.93
19.89
18.69
17.2
15.22
12.68
9.66
6.4
3.21
0.32
-2.22
-4.49
-6.66
-8.9
-11.35
-14.19
-17.59
-21.74
-26.64
-31.99
-37.07
-40.86
-42.27
-40.53
-35.46
-27.48
-17.59
-6.98
3.22
12.19
19.47
24.91
28.52
30.41
30.79
29.97
28.4
26.59
25.05
24.07
23.72
23.81
24.02
24.08
23.77
23.04
21.89
20.39
18.65
16.79
14.93
13.15
11.44
9.68
7.69
5.37
2.68
-0.27
-3.35
-6.42
-9.39
-12.28
-15.14
-18.06
-21.18
-24.67
-28.69
-33.33
-38.38
-43.31
-47.23
-49.07
-47.96
-43.51
-36.08
-26.68
-16.62
-7.17
0.87
7.2
11.89
15.17
17.22
18.14
18.07
17.33
16.4
15.84
16.06
17.15
18.85
20.68
22.16
22.97
23.07
22.59
21.75
20.72
19.56
18.24
16.71
14.89
12.73
10.24
7.48
4.59
1.75
-0.9
-3.26
-5.4
-7.52
-9.91
-12.86
-16.57
-21.02
-25.92
-30.66
-34.39
-36.18
-35.24
-31.27
-24.58
-16.1
-7.06
1.34
8.25
13.37
16.8
18.89
19.96
20.27
19.94
19.13
18.07
17.12
16.66
16.97
18.08
19.77
21.61
23.14
24.04
24.21
23.81
23.08
22.23
21.28
20.07
18.31
15.79
12.43
8.42
4.1
-0.02
-3.56
-6.32
-8.38
-10.14
-12.12
-14.87
-18.71
-23.73
-29.65
-35.9
-41.59
-45.66
-47.06
-45.06
-39.55
-31.13
-21.06
-10.83
-1.75
5.45
10.69
14.29
16.77
18.47
19.51
19.87
19.57
18.74
17.66
16.65
15.99
15.82
16.1
16.68
17.31
17.81
18.01
17.85
17.26
16.2
14.66
12.66
10.27
7.62
4.84
2.03
-0.81
-3.64
-6.46
-9.18
-11.66
-13.81
-15.61
-17.22
-18.92
-21.09
-24.02
-27.83
-32.27
-36.73
-40.25
-41.79
-40.57
-36.3
-29.36
-20.64
-11.35
-2.63
4.67
10.16
13.83
15.87
16.59
16.33
15.45
14.34
13.34
12.76
12.73
13.26
14.19
15.28
16.29
17.03
17.37
17.32
16.94
16.32
15.52
14.52
13.21
11.45
9.12
6.25
3.01
-0.31
-3.37
-5.96
-7.98
-9.51
-10.76
-12.01
-13.56
-15.66
-18.48
-22.09
-26.37
-30.99
-35.31
-38.46
-39.51
-37.72
-32.87
-25.39
-16.26
-6.76
1.92
9.01
14.22
17.66
19.62
20.46
20.45
19.85
18.96
18.09
17.55
17.55
18.13
19.19
20.5
21.8
22.9
23.64
23.97
23.87
23.36
22.47
21.27
19.82
18.2
16.49
14.78
13.16
11.62
10.18
8.77
7.36
5.96
4.62
3.49
2.62
1.99
1.32
0.26
-1.5
-3.89
-6.34
-7.79
-7.06
-3.23
3.86
13.61
24.82
36.15
46.59
55.57
62.88
68.44
72.11
73.73
73.33
71.2
67.87
63.94
59.82
55.58
51.09
46.17
40.78
35.01
29.0
22.8
16.31
9.43
2.14
-5.34
-12.56
-19.07
-24.55
-28.95
-32.45
-35.36
-37.99
-40.55
-43.1
-45.61
-47.97
-50.06
-51.82
-53.27
-54.53
-55.82
-57.48
-59.76
-62.76
-66.2
-69.38
-71.25
-70.65
-66.68
-59.04
-48.17
-35.22
-21.69
-9.05
1.68
10.09
16.32
20.81
24.12
26.66
28.75
30.62
32.49
34.64
37.36
40.86
45.21
50.24
55.65
61.08
66.25
71.04
75.47
79.62
83.54
87.21
90.52
93.37
95.67
97.47
98.85
99.99
101.03
102.11
103.25
104.33
104.91
104.26
101.44
95.48
85.7
71.91
54.56
34.7
13.85
-6.15
-23.5
-36.73
-45.11
-48.85
-49.04
-47.29
-45.17
-43.77
-43.53
-44.39
-46.2
-49.02
-53.14
-58.91
-66.4
-75.24
-84.58
-93.28
-100.14
-104.04
-104.12
-99.88
-91.25
-78.8
-63.65
-47.38
-31.69
-18.03
-7.26
0.45
5.47
8.47
9.99
10.36
9.55
7.41
3.74
-1.54
-8.33
-16.4
-25.35
-34.63
-43.59
-51.56
-58.06
-62.81
-65.72
-66.65
-65.19
-60.7
-52.68
-41.26
-27.61
-13.79
-2.11
5.78
9.6
10.59
10.86
12.5
16.63
23.13
30.99
39.11
46.99
55.02
64.09
74.92
87.42
100.68
113.38
124.6
134.35
143.45
152.99
163.54
174.9
186.41
197.56
208.22
218.44
227.7
234.54
236.73
232.13
219.73
200.12
175.24
147.4
118.44
89.35
60.49
32.14
4.81
-20.93
-44.83
-67.35
-89.69
-113.46
-140.2
-170.54
-203.65
-236.94
-266.46
-287.99
-298.46
-297.1
-285.76
-268.18
-248.66
-230.67
-216.19
-205.9
-199.79
-197.85
-200.14
-206.53
-216.24
-227.61
-238.29
-245.73
-247.79
-243.26
-232.15
-215.64
-195.74
-174.71
-154.47
-136.18
-120.23
-106.43
-94.44
-84.08
-75.39
-68.5
-63.45
-60.01
-57.78
-56.31
-55.31
-54.64
-54.24
-53.97
-53.47
-52.26
-49.92
-46.28
-41.6
-36.28
-30.59
-24.36
-16.99
-7.77
3.68
16.96
30.95
44.21
55.46
64.05
70.02
73.9
76.34
77.8
78.44
78.28
77.38
76.0
74.5
73.24
72.34
71.59
70.53
68.66
65.68
61.61
56.66
51.16
45.35
39.39
33.39
27.47
21.8
16.5
11.55
6.76
1.9
-3.18
-8.5
-13.93
-19.35
-24.78
-30.35
-36.31
-42.91
-50.31
-58.52
-67.25
-75.76
-82.86
-86.96
-86.55
-80.66
-69.33
-53.61
-35.33
-16.48
1.25
16.68
29.12
38.06
43.08
43.94
40.81
34.37
25.85
16.62
7.84
0.25
-5.84
-10.13
-12.13
-11.11
-6.47
1.81
12.78
24.71
35.63
44.09
49.59
52.63
54.11
54.77
54.7
53.42
50.2
44.6
36.65
26.73
15.25
2.32
-12.28
-28.86
-47.48
-67.81
-89.22
-110.98
-132.33
-152.4
-169.93
-183.06
-189.58
-187.6
-176.34
-156.62
-130.8
-102.07
-73.44
-46.95
-23.42
-2.66
15.95
32.92
48.25
61.46
71.87
79.1
83.46
86.13
88.75
92.87
99.24
107.49
116.27
123.93
129.25
131.85
132.03
130.26
126.61
120.82
112.55
102.04
90.21
78.39
67.54
57.76
48.28
38.03
26.44
13.97
1.87
-8.5
-16.44
-22.3
-27.08
-31.77
-36.56
-40.67
-42.62
-40.87
-34.51
-23.58
-9.08
7.31
23.65
38.16
49.34
56.19
58.19
55.31
47.95
36.82
22.83
6.84
-10.31
-27.86
-45.04
-61.06
-75.14
-86.59
-94.93
-99.89
-101.39
-99.54
-94.63
-87.23
-78.2
-68.66
-59.81
-52.62
-47.66
-44.96
-44.05
-44.19
-44.57
-44.56
-43.88
-42.68
-41.55
-41.37
-43.07
-47.31
-54.17
-62.98
-72.18
-79.64
-83.14
-80.99
-72.56
-58.49
-40.52
-20.91
-1.83
15.14
29.26
40.41
48.83
54.84
58.67
60.62
61.07
60.69
60.25
60.43
61.62
63.82
66.7
69.82
72.75
75.22
77.08
78.21
78.51
77.79
75.9
72.79
68.53
63.37
57.64
51.69
45.76
39.98
34.33
28.78
23.28
17.84
12.44
6.95
1.07
-5.67
-13.67
-23.04
-33.34
-43.48
-51.85
-56.7
-56.58
-50.83
-39.78
-24.75
-7.7
9.27
24.42
36.75
46.0
52.51
56.86
59.62
61.15
61.65
61.3
60.43
59.49
58.99
59.27
60.36
62.01
63.75
65.1
65.7
65.39
64.14
61.98
59.02
55.34
51.08
46.44
41.63
36.83
32.16
27.6
23.04
18.4
13.6
8.71
3.84
-0.94
-5.71
-10.73
-16.48
-23.4
-31.69
-41.07
-50.52
-58.43
-62.9
-62.33
-55.94
-44.19
-28.66
-11.54
4.96
19.25
30.57
38.89
44.55
47.95
49.43
49.34
48.13
46.37
44.71
43.68
43.6
44.48
46.13
48.23
50.42
52.31
53.53
53.79
52.89
50.8
47.65
43.68
39.17
34.34
29.32
24.16
18.85
13.39
7.88
2.42
-2.85
-7.86
-12.66
-17.41
-22.38
-27.88
-34.27
-41.83
-50.61
-60.3
-69.96
-78.13
-83.04
-83.12
-77.57
-66.74
-52.04
-35.57
-19.45
-5.24
6.27
15.01
21.31
25.59
28.15
29.26
29.23
28.45
27.37
26.45
25.99
26.09
26.72
27.77
29.19
30.93
32.96
35.11
37.06
38.42
38.79
38.02
36.22
33.81
31.28
29.01
27.12
25.42
23.57
21.25
18.32
14.84
11.08
7.31
3.71
0.23
-3.43
-7.8
-13.41
-20.66
-29.46
-39.11
-48.24
-55.08
-57.86
-55.41
-47.52
-35.09
-19.85
-3.87
10.98
23.42
32.9
39.43
43.4
45.29
45.6
44.83
43.49
42.11
41.14
40.9
41.46
42.62
44.03
45.36
46.36
46.96
47.21
47.1
46.55
45.37
43.37
40.44
36.67
32.31
27.72
23.22
18.94
14.85
10.8
6.62
2.26
-2.22
-6.63
-10.83
-14.76
-18.58
-22.63
-27.37
-33.23
-40.41
-48.69
-57.25
-64.72
-69.41
-69.8
-65.05
-55.31
-41.79
-26.35
-10.99
2.73
13.91
22.35
28.3
32.21
34.47
35.4
35.28
34.43
33.24
32.18
31.65
31.92
33.02
34.71
36.6
38.21
39.18
39.29
38.51
36.95
34.73
31.97
28.71
24.97
20.76
16.12
11.18
6.13
1.18
-3.51
-7.88
-11.93
-15.74
-19.41
-23.07
-26.93
-31.28
-36.44
-42.63
-49.61
-56.54
-62.03
-64.38
-62.25
-55.09
-43.48
-28.9
-13.32
1.47
14.23
24.39
31.91
37.01
40.02
41.35
41.52
41.14
40.82
40.97
41.69
42.77
