17.63
14.54
10.51
5.68
0.46
-4.65
-9.25
-13.13
-16.35
-19.07
-21.54
-24.12
-27.19
-31.11
-36.08
-41.89
-47.78
-52.63
-55.1
-54.2
-49.58
-41.66
-31.49
-20.4
-9.61
0.06
8.17
14.63
19.46
22.76
24.62
25.24
24.92
24.09
23.22
22.7
22.75
23.39
24.43
25.56
26.47
26.89
26.74
26.04
24.92
23.52
21.91
20.09
17.98
15.46
12.44
8.93
5.09
1.18
-2.46
-5.59
-8.11
-10.17
-12.15
-14.56
-17.9
-22.48
-28.28
-34.86
-41.35
-46.56
-49.25
-48.43
-43.72
-35.46
-24.75
-13.14
-2.19
6.97
13.83
18.52
21.47
23.15
23.79
23.45
22.16
20.17
17.98
16.27
15.54
15.92
17.06
18.33
19.11
19.09
18.35
17.21
15.95
14.62
12.95
10.52
7.03
2.53
-2.54
-7.53
-11.84
-15.18
-17.72
-19.91
-22.34
-25.53
-29.74
-34.98
-40.92
-46.95
-52.14
-55.39
-55.71
-52.45
-45.68
-36.18
-25.23
-14.3
-4.53
3.43
9.48
13.81
16.71
18.35
18.84
18.39
17.38
16.34
15.84
16.2
17.4
19.02
20.47
21.25
21.13
20.22
18.86
17.38
15.99
14.58
12.9
10.69
7.79
4.32
0.61
-2.89
-5.82
-8.09
-9.91
-11.74
-14.16
-17.64
-22.37
-28.16
-34.36
-40.01
-43.95
-45.13
-42.87
-37.12
-28.49
-18.11
-7.34
2.6
10.88
17.16
21.51
24.19
25.5
25.72
25.12
24.0
22.75
21.81
21.52
22.04
23.2
24.63
25.84
26.42
26.21
25.32
24.03
22.62
21.17
19.53
17.36
14.38
10.52
6.05
1.45
-2.76
-6.25
-9.01
-11.31
-13.59
-16.31
-19.81
-24.27
-29.55
-35.25
-40.58
-44.5
-45.9
-43.98
-38.51
-29.94
-19.36
-8.11
2.52
11.65
18.81
23.94
27.17
28.68
28.75
27.72
26.07
24.35
23.07
22.58
22.98
24.06
25.44
26.69
27.45
27.54
26.97
25.87
24.39
22.59
20.4
17.67
14.3
10.31
5.99
1.74
-2.01
-5.07
-7.62
-10.14
-13.3
-17.67
-23.4
-30.07
-36.71
-41.99
-44.66
-43.82
-39.29
-31.6
-21.85
-11.39
-1.42
7.17
13.91
18.64
21.4
22.39
21.9
20.38
18.34
16.38
14.98
14.47
14.87
15.99
17.41
18.69
19.49
19.62
19.15
18.2
16.95
15.4
13.37
10.61
6.93
2.39
-2.7
-7.79
-12.36
-16.05
-18.89
-21.23
-23.71
-27.01
-31.54
-37.31
-43.7
-49.57
-53.56
-54.44
-51.53
-44.96
-35.57
-24.67
-13.65
-3.59
4.83
11.41
16.15
19.21
20.74
20.94
20.07
18.57
16.98
15.85
15.6
16.36
17.94
19.92
21.81
23.23
24.02
24.21
23.94
23.31
22.32
20.85
18.74
15.84
12.13
7.76
3.05
-1.56
-5.7
-9.16
-12.03
-14.68
-17.66
-21.45
-26.32
-32.08
-38.08
-43.3
-46.55
-46.84
-43.62
-37.01
-27.79
-17.19
-6.56
2.99
10.8
16.65
20.63
22.92
23.73
23.24
21.74
19.66
17.57
16.03
15.4
15.67
16.56
17.58
18.33
18.61
18.45
17.94
17.14
15.93
14.07
11.35
7.75
3.51
-0.92
-5.04
-8.58
-11.54
-14.25
-17.18
-20.81
-25.43
-31.06
-37.43
-43.96
-49.78
-53.87
-55.2
-53.07
-47.35
-38.56
-27.78
-16.4
-5.67
3.55
10.87
16.25
19.86
21.83
22.37
21.75
20.41
18.92
17.89
17.72
18.57
20.2
22.15
23.86
24.88
24.99
24.26
22.93
21.26
19.43
17.45
15.15
12.33
8.91
4.99
0.91
-2.97
-6.33
-9.11
-11.51
-13.96
-16.98
-21.0
-26.2
-32.31
-38.62
-43.97
-47.07
-46.81
-42.62
-34.61
-23.62
-10.96
1.93
13.77
23.74
31.43
36.87
40.32
42.19
42.92
42.95
42.74
42.7
43.19
44.45
46.49
49.08
51.82
54.24
55.98
56.92
57.1
56.69
55.8
54.28
51.84
48.13
43.0
36.65
29.73
23.1
17.59
13.71
11.42
10.16
8.95
6.75
2.7
-3.51
-11.52
-20.28
-28.29
-33.94
-35.91
-33.53
-26.95
-17.13
-5.58
5.89
15.63
22.44
25.71
25.55
22.59
17.84
12.35
7.1
2.8
-0.12
-1.52
-1.58
-0.71
0.5
1.45
1.74
1.27
0.22
-1.07
-2.32
-3.49
-4.76
-6.43
-8.77
-11.86
-15.55
-19.51
-23.31
-26.58
-29.09
-30.85
-32.06
-33.22
-34.96
-37.88
-42.32
-48.06
-54.26
-59.55
-62.41
-61.63
-56.78
-48.29
-37.39
-25.6
-14.36
-4.67
2.98
8.5
12.06
13.91
14.34
13.65
12.22
10.44
8.75
7.53
7.08
7.53
8.74
10.38
11.94
12.92
13.03
12.2
10.65
8.71
6.64
4.57
2.45
0.13
-2.45
-5.27
-8.14
-10.83
-13.18
-15.06
-16.47
-17.51
-18.39
-19.41
-20.92
-23.28
-26.66
-30.91
-35.4
-39.11
-40.84
-39.54
-34.73
-26.61
-16.08
-4.44
6.93
16.96
25.03
31.01
35.05
37.4
38.27
37.86
36.41
34.27
31.94
29.92
28.6
28.11
28.23
28.48
28.31
27.33
25.44
22.85
19.98
17.2
14.72
12.49
10.32
8.02
5.61
3.29
1.43
0.31
-0.06
0.02
0.05
-0.54
-2.16
-4.98
-8.92
-13.69
-18.75
-23.33
-26.4
-26.86
-23.81
-16.97
-6.95
4.72
16.04
25.05
30.49
32.11
30.58
27.05
22.66
18.2
14.06
10.47
7.62
5.74
4.98
5.21
5.98
6.61
6.47
5.25
3.05
0.24
-2.78
-5.74
-8.57
-11.29
-13.84
-16.05
-17.73
-18.78
-19.27
-19.44
-19.62
-20.07
-20.99
-22.46
-24.49
-27.02
-29.98
-33.25
-36.75
-40.46
-44.41
-48.62
-52.87
-56.58
-58.84
-58.63
-55.21
-48.45
-39.0
-28.05
-17.05
-7.17
0.89
6.99
11.27
13.97
15.3
15.4
14.51
13.03
11.48
10.36
9.96
10.25
10.94
11.67
12.15
12.29
12.07
11.47
10.38
8.72
6.45
3.72
0.81
-2.0
-4.52
-6.8
-8.99
-11.32
-13.92
-16.84
-20.02
-23.41
-26.95
-30.55
-34.07
-37.4
-40.5
-43.52
-46.84
-50.92
-55.99
-61.84
-67.58
-71.84
-73.08
-70.16
-62.75
-51.52
-37.96
-23.85
-10.76
0.37
9.33
16.48
22.39
27.55
32.25
36.53
40.37
43.83
47.04
50.23
53.57
57.09
60.67
64.04
66.98
69.34
71.12
72.41
73.29
73.69
73.42
72.22
69.81
66.09
61.11
55.16
48.61
41.91
35.45
29.48
24.14
19.33
14.86
10.39
5.63
0.31
-5.62
-11.95
-18.1
-23.21
-26.29
-26.53
-23.66
-18.03
-10.62
-2.66
4.69
10.62
14.74
16.91
17.09
15.21
11.25
5.41
-1.78
-9.41
-16.39
-21.72
-24.76
-25.33
-23.77
-20.73
-17.0
-13.27
-10.01
-7.38
-5.41
-4.06
-3.35
-3.43
-4.49
-6.68
-10.01
-14.34
-19.39
-24.87
-30.51
-36.09
-41.4
-46.31
-50.74
-54.81
-58.85
-63.21
-68.15
-73.49
-78.49
-81.96
-82.56
-79.32
-71.93
-60.95
-47.63
-33.49
-19.96
-8.06
1.74
9.34
14.88
18.57
20.6
21.22
20.75
19.68
18.58
17.99
18.27
19.48
21.39
23.59
25.59
27.01
27.64
27.49
26.7
25.52
24.16
22.71
21.07
19.01
16.28
12.75
8.55
4.07
-0.2
-3.84
-6.75
-9.12
-11.38
-14.02
-17.44
-21.84
-27.23
-33.34
-39.61
-45.17
-48.97
-50.06
-47.9
-42.63
-35.03
-26.28
-17.57
-9.81
-3.5
1.15
3.98
4.78
3.36
-0.31
-5.88
-12.58
-19.28
-24.79
-28.07
-28.55
-26.3
-22.08
-17.09
-12.59
-9.48
-7.93
-7.47
-7.32
-6.86
-6.03
-5.29
-5.31
-6.51
-8.81
-11.69
-14.46
-16.73
-18.56
-20.39
-22.83
-26.33
-31.16
-37.32
-44.66
-52.75
-60.85
-67.81
-72.21
-72.68
-68.37
-59.22
-46.09
-30.53
-14.25
1.19
14.76
25.96
34.66
40.95
45.01
47.08
47.49
46.74
45.38
43.98
42.96
42.51
42.6
43.0
43.46
43.74
43.67
43.13
41.98
40.13
37.48
34.01
29.74
24.81
19.38
13.66
7.86
2.21
-3.11
-7.99
-12.45
-16.6
-20.69
-25.03
-29.95
-35.81
-42.81
-50.84
-59.34
-67.12
-72.64
-74.35
-71.23
-63.19
-51.12
-36.62
-21.47
-7.26
4.97
14.69
21.73
26.2
28.36
28.64
27.64
26.05
24.58
23.8
24.06
25.43
27.67
30.35
32.95
35.02
36.28
36.72
36.5
35.83
34.77
33.22
30.92
27.68
23.48
18.59
13.51
8.81
4.88
1.85
-0.51
-2.7
-5.32
-8.99
-14.15
-20.91
-28.93
-37.3
-44.61
-49.23
-49.78
-45.56
-36.84
-24.84
-11.25
2.22
14.31
24.33
32.05
37.47
40.65
41.69
40.91
38.86
36.37
34.29
33.24
33.48
34.8
36.76
38.84
40.65
42.01
42.84
43.13
42.77
41.61
39.4
35.99
31.37
25.81
19.72
13.69
8.16
3.39
-0.73
-4.63
-8.96
-14.36
-21.15
-29.08
-37.29
-44.43
-49.03
-49.89
-46.45
-38.92
-28.24
-15.73
-2.81
9.34
19.9
28.42
34.72
38.79
40.79
40.99
39.9
38.21
36.67
35.97
36.45
38.0
40.16
42.27
43.78
44.44
44.3
43.57
42.41
40.81
38.56
35.45
31.34
26.31
20.62
14.62
8.67
3.01
-2.22
-7.04
-11.68
-16.5
-21.99
-28.57
-36.34
-44.88
-53.13
-59.59
-62.69
-61.28
-55.01
-44.54
-31.28
-16.97
-3.25
8.79
18.6
26.07
31.35
34.68
36.27
36.4
35.42
33.84
32.23
31.16
31.04
31.97
33.71
35.75
37.46
38.37
38.29
37.39
35.99
34.43
32.78
30.86
28.26
24.64
19.9
14.24
8.18
2.27
-3.0
-7.47
-11.26
-14.75
-18.46
-22.9
-28.51
-35.43
-43.42
-51.7
-58.97
-63.6
-64.13
-59.71
-50.45
-37.43
-22.34
-7.03
7.01
18.85
28.12
34.8
39.07
41.16
41.4
40.25
38.29
36.18
34.54
33.83
34.26
35.74
37.88
40.11
41.83
42.68
42.54
41.6
40.17
38.43
36.38
33.77
30.3
25.81
20.46
14.61
8.81
3.48
-1.19
-5.26
-9.07
-13.08
-17.77
-23.54
-30.52
-38.47
-46.66
-53.94
-58.91
-60.32
-57.38
-50.09
-39.28
-26.36
-12.98
-0.59
9.84
17.89
23.54
27.02
28.61
28.59
27.34
25.35
23.25
21.66
21.07
21.63
23.14
25.06
26.81
27.89
28.09
27.46
26.23
24.66
22.88
20.86
18.45
15.49
11.92
7.82
3.4
-1.06
-5.31
-9.2
-12.74
-16.1
-19.56
-23.49
-28.26
-34.14
-41.18
-48.98
-56.73
-63.16
-66.83
-66.51
-61.57
-52.25
-39.64
-25.42
-11.35
1.13
11.17
18.57
23.57
26.66
28.3
28.91
28.82
28.28
27.59
27.06
26.97
27.5
28.67
30.33
32.16
33.8
34.92
35.28
34.8
33.5
31.49
28.92
25.93
22.58
18.92
14.96
10.75
6.43
2.17
-1.85
-5.51
-8.87
-12.08
-15.46
-19.32
-23.98
-29.61
-36.22
-43.49
-50.76
-56.96
-60.87
-61.34
-57.68
-49.91
-38.88
-25.98
-12.83
-0.85
9.03
16.45
21.5
24.51
25.82
25.77
24.7
23.03
21.29
20.05
19.8
20.68
22.5
24.75
26.78
28.04
28.24
27.41
25.77
23.65
21.27
18.72
15.94
12.83
9.32
5.43
1.31
-2.8
-6.71
-10.25
-13.41
-16.3
-19.14
-22.24
-25.95
-30.57
-36.23
-42.73
-49.41
-55.19
-58.73
-58.84
-54.89
-47.04
-36.26
-24.04
-11.93
-1.18
7.51
13.94
18.27
20.81
21.88
21.79
20.87
19.51
18.12
17.09
16.74
17.23
18.53
20.38
22.4
24.16
25.28
25.57
25.03
23.83
22.21
20.38
18.45
16.35
13.93
11.04
7.6
3.69
-0.48
-4.59
-8.41
-11.83
-14.93
-17.95
-21.25
-25.15
-29.94
-35.73
-42.32
-49.12
-55.09
-58.9
-59.27
-55.39
-47.27
-35.77
-22.42
-8.95
3.17
13.0
20.23
25.02
27.7
28.68
28.34
27.05
25.23
23.38
21.97
21.35
21.65
22.73
24.28
25.9
27.29
28.21
28.56
28.31
27.41
25.87
23.73
21.07
18.06
14.81
11.42
7.91
4.3
0.59
-3.15
-6.85
-10.41
-13.8
-17.09
-20.45
-24.14
-28.46
-33.63
-39.64
-46.14
-52.28
-56.87
-58.64
-56.63
-50.57
-41.03
-29.29
-16.96
-5.49
4.12
11.48
16.66
19.98
21.7
22.08
21.32
19.74
17.8
16.04
14.98
14.93
15.9
17.64
19.66
21.48
22.68
23.07
22.68
21.65
20.16
18.29
16.07
13.41
10.27
6.74
3.06
-0.46
-3.57
-6.16
-8.38
-10.5
-12.84
-15.66
-19.13
-23.4
-28.56
-34.55
-40.99
-47.08
-51.62
-53.35
-51.31
-45.27
-35.86
-24.36
-12.36
-1.22
8.17
15.53
20.93
24.65
26.92
27.9
27.71
26.56
24.83
23.02
21.71
21.29
21.9
23.34
25.15
26.79
27.87
28.19
27.82
26.93
25.69
24.18
22.3
19.92
16.88
13.16
8.86
4.2
-0.52
-5.05
-9.22
-13.01
-16.53
-20.03
-23.81
-28.22
-33.51
-39.69
-46.4
-52.84
-57.83
-60.1
-58.61
-52.99
-43.68
-31.87
-19.15
-7.02
3.36
11.43
17.07
20.47
22.0
22.1
21.23
19.88
18.52
17.52
17.14
17.48
18.49
20.01
21.77
23.48
24.85
25.65
25.77
25.18
23.93
22.09
19.77
17.05
14.03
10.8
7.42
3.91
0.31
-3.31
-6.87
-10.24
-13.38
-16.38
-19.39
-22.71
-26.64
-31.45
-37.23
-43.77
-50.42
-56.02
-59.19
-58.59
-53.51
-44.17
-31.78
-18.16
-5.18
5.82
14.28
20.33
24.42
27.0
28.34
28.63
28.1
27.13
26.16
25.5
25.1
24.69
23.83
22.31
20.2
17.87
15.79
14.29
13.41
12.96
12.66
12.19
11.34
9.98
8.07
5.61
2.73
-0.36
-3.41
-6.14
-8.38
-10.05
-11.23
-12.19
-13.37
-15.34
-18.69
-23.77
-30.46
-38.09
-45.43
-51.07
-53.73
-52.75
-48.25
-41.07
-32.52
-23.86
-16.05
-9.49
-4.06
0.61
4.89
8.96
12.75
16.01
18.5
20.09
20.81
20.79
20.14
18.92
17.19
15.15
13.21
11.96
12.03
13.8
17.14
21.43
25.62
28.54
29.24
27.24
22.66
16.15
8.68
1.31
-5.12
-10.15
-13.8
-16.47
-18.84
-21.64
-25.42
-30.38
-36.17
-41.88
-46.16
-47.63
-45.21
-38.67
-28.65
-16.57
-4.16
7.09
16.22
22.92
27.26
29.54
30.08
29.2
27.35
25.16
23.36
22.59
23.2
25.06
27.65
30.22
32.07
32.77
32.22
30.62
28.34
25.74
23.1
20.51
17.94
15.22
12.2
8.75
4.88
0.69
-3.66
-8.03
-12.34
-16.62
-21.03
-25.78
-31.16
-37.39
-44.49
-52.06
-59.16
-64.46
-66.54
-64.4
-57.88
-47.72
-35.41
-22.66
-10.87
-0.92
6.94
12.8
16.86
19.28
20.22
19.9
18.74
17.3
16.16
15.78
16.32
17.61
19.29
20.88
22.03
22.55
22.44
21.83
20.93
19.95
18.95
17.89
16.59
14.78
12.26
9.03
5.3
1.51
-1.89
-4.61
-6.65
-8.27
-9.99
-12.32
-15.63
-20.12
-25.65
-31.75
-37.6
-42.1
-44.07
-42.63
-37.45
-28.98
-18.38
-7.17
3.23
11.83
18.27
22.7
25.47
26.98
27.47
27.19
26.44
25.68
25.37
25.83
27.03
28.62
30.05
30.86
30.84
30.08
28.86
27.47
25.99
24.31
22.13
19.11
15.11
10.2
4.73
-0.8
-5.88
-10.2
-13.71
-16.73
-19.75
-23.35
-27.89
-33.46
-39.66
-45.67
-50.38
-52.63
-51.58
-46.9
-38.98
-28.74
-17.49
-6.45
3.4
11.5
17.64
21.84
24.21
24.95
24.36
22.88
21.05
19.41
18.42
18.31
19.02
20.26
21.58
22.58
23.0
22.77
22.01
20.91
19.52
17.78
15.47
12.42
8.63
4.36
0.02
-3.88
-7.06
-9.44
-11.28
-13.01
-15.15
-18.18
-22.36
-27.68
-33.71
-39.59
-44.21
-46.43
-45.44
-41.01
-33.63
-24.29
-14.24
-4.61
3.79
10.57
15.68
19.27
21.48
22.44
22.24
21.12
19.44
17.76
16.62
16.44
17.25
18.78
20.51
21.92
22.66
22.63
21.92
20.72
19.2
17.43
15.46
13.26
10.81
8.08
5.08
1.87
-1.45
-4.74
-7.85
-10.73
-13.43
-16.12
-19.08
-22.54
-26.67
-31.4
-36.38
-40.94
-44.19
-45.19
-43.23
-38.11
-30.24
-20.63
-10.54
-1.19
6.58
12.39
16.27
18.41
19.07
18.51
17.09
15.29
13.69
12.81
12.91
13.96
15.61
17.41
18.9
19.76
19.91
19.4
18.42
17.19
15.88
14.54
13.09
11.36
9.25
6.75
4.07
1.47
-0.8
-2.69
-4.32
-5.94
-7.85
-10.32
-13.53
-17.52
-22.13
-26.96
-31.28
-34.19
-34.8
-32.55
-27.41
-19.93
-11.11
-2.06
6.21
13.08
18.3
21.9
24.1
25.07
24.94
23.86
22.03
19.78
17.6
15.97
15.2
15.34
16.08
16.96
17.5
17.39
16.58
15.2
13.43
11.43
9.21
6.73
3.92
0.8
-2.53
-5.88
-9.08
-11.97
-14.54
-16.86
-19.1
-21.47
-24.22
-27.56
-31.6
-36.31
-41.33
-45.99
-49.32
-50.35
-48.33
-43.11
-35.19
-25.59
-15.6
-6.39
1.22
6.84
10.51
12.51
13.3
13.3
12.91
12.38
11.88
11.51
11.35
11.5
12.0
12.8
13.71
14.44
14.76
14.53
13.8
12.72
11.48
10.19
8.86
7.36
5.56
3.38
0.82
-1.96
-4.78
-7.4
-9.66
-11.53
-13.13
-14.74
-16.66
-19.21
-22.53
-26.65
-31.32
-36.05
-40.07
-42.46
-42.37
-39.26
-33.15
-24.68
-14.99
-5.36
3.14
9.87
14.69
17.79
19.53
20.22
20.06
19.22
17.91
16.44
15.19
14.47
14.44
15.04
16.0
16.94
17.53
17.56
17.06
16.16
15.05
13.81
12.42
10.74
8.62
6.04
3.14
0.18
-2.55
-4.86
-6.74
-8.37
-9.99
-11.84
-14.07
-16.77
-19.99
-23.8
-28.22
-33.02
-37.69
-41.36
-43.02
-41.87
-37.59
-30.6
-21.87
-12.69
-4.26
2.64
7.71
11.06
13.01
13.88
13.9
13.34
12.44
11.54
10.95
10.86
11.3
12.13
13.13
14.11
14.96
15.64
16.07
16.19
15.91
15.15
13.92
12.25
10.26
7.99
5.48
2.7
-0.36
-3.67
-7.11
-10.5
-13.58
-16.2
-18.36
-20.27
-22.33
-24.93
-28.35
-32.62
-37.5
-42.5
-46.9
-49.9
-50.69
-48.64
-43.59
-35.91
-26.52
-16.67
-7.59
-0.13
5.38
9.11
11.45
12.84
13.55
13.73
13.47
12.95
12.45
12.3
12.77
13.95
15.71
17.69
19.45
20.63
21.03
20.67
19.73
18.45
17.05
15.65
14.21
12.62
10.75
8.55
6.06
3.38
0.65
-2.01
-4.54
-6.98
-9.41
-11.97
-14.83
-18.17
-22.17
-26.93
-32.27
-37.68
-42.26
-44.92
-44.66
-40.99
-34.11
-24.93
-14.75
-4.88
3.69
10.52
15.55
19.03
21.25
22.46
22.84
22.59
21.97
21.31
21.0
21.37
22.58
24.54
26.92
29.26
31.11
32.22
32.61
32.51
32.25
32.06
31.99
31.89
31.57
30.84
29.7
28.27
26.76
25.31
24.01
22.82
21.63
20.27
18.47
15.9
12.21
7.19
1.03
-5.6
-11.56
-15.57
-16.57
-14.11
-8.45
-0.44
8.77
18.06
26.52
33.58
39.01
42.82
45.19
46.39
46.66
46.21
45.22
43.92
42.62
41.67
41.29
41.39
41.57
41.26
39.99
37.67
34.64
31.51
28.84
26.82
25.22
23.51
21.05
17.42
12.4
6.02
-1.6
-10.33
-19.99
-30.29
-40.87
-51.25
-61.02
-70.0
-78.28
-86.13
-93.75
-100.97
-107.09
-110.97
-111.44
-107.73
-99.88
-88.76
-75.84
-62.67
-50.47
-39.87
-30.98
-23.68
-17.78
-13.18
-9.76
-7.34
-5.54
-3.88
-1.89
0.69
3.9
7.55
11.36
15.07
18.49
21.51
24.03
25.99
27.4
28.33
28.92
29.29
29.46
29.36
28.91
28.1
27.09
26.14
25.5
25.27
25.39
25.67
25.93
25.97
25.53
24.38
22.34
19.55
16.64
14.59
14.46
16.94
21.97
28.71
35.83
41.83
45.52
46.17
43.64
38.25
30.69
21.81
12.44
3.28
-5.23
-12.82
-19.31
-24.56
-28.44
-30.93
-32.16
-32.46
-32.27
-32.0
-31.91
-32.1
-32.5
-33.02
-33.56
-34.07
-34.62
-35.28
-36.17
-37.31
-38.69
-40.2
-41.69
-43.06
-44.35
-45.73
-47.5
-50.06
-53.66
-58.21
-63.14
-67.38
-69.6
-68.6
-63.73
-55.17
-43.91
-31.41
-19.2
-8.35
0.6
7.65
13.08
17.13
19.9
21.36
21.45
20.29
18.26
15.92
13.88
12.56
12.07
12.19
12.49
12.52
12.05
11.03
9.63
8.03
6.29
4.34
1.95
-1.07
-4.84
-9.27
-14.17
-19.31
-24.46
-29.43
-34.0
-37.84
-40.6
-42.02
-42.16
-41.42
-40.52
-40.07
-40.26
-40.65
-40.21
-37.75
-32.39
-23.97
-13.08
-0.82
11.59
23.17
33.23
41.25
46.79
49.45
49.0
45.68
40.34
34.36
29.35
26.63
26.97
30.31
35.93
42.66
49.26
54.72
58.47
60.41
60.83
60.26
59.19
57.97
56.64
55.01
52.86
50.0
46.52
42.73
39.2
36.5
35.05
34.88
35.54
36.08
35.24
31.8
24.95
14.75
2.2
-10.85
-22.22
-30.05
-33.39
-32.45
-28.42
-22.98
-17.7
-13.62
-11.2
-10.45
-11.18
-13.2
-16.27
-20.1
-24.15
-27.75
-30.2
-31.01
-30.12
-27.9
-25.09
-22.52
-20.81
-20.15
-20.29
-20.72
-20.94
-20.73
-20.25
-19.91
-20.2
-21.45
-23.69
-26.64
-29.89
-32.9
-35.34
-37.09
-38.31
-39.44
-41.13
-44.01
-48.49
-54.53
-61.46
-67.98
-72.53
-73.67
-70.66
-63.73
-54.11
-43.62
-34.12
-27.01
-22.83
-21.29
-21.38
-21.89
-21.74
-20.3
-17.51
-13.71
-9.4
-5.02
-0.84
3.08
6.63
9.68
12.0
13.37
13.82
13.57
13.04
12.57
12.35
12.26
11.93
10.89
8.74
5.28
0.64
-4.78
-10.38
-15.58
-19.93
-23.32
-25.97
-28.37
-31.18
-35.01
-40.25
-46.86
-54.21
-61.13
-66.06
-67.5
-64.39
-56.51
-44.54
-29.92
-14.38
0.49
13.6
24.37
32.73
38.76
42.62
44.4
44.23
42.37
39.33
35.82
32.63
30.39
29.39
29.54
30.41
31.43
32.13
32.25
31.74
30.67
29.13
27.14
24.61
21.43
17.51
12.83
7.52
1.79
-4.04
-9.64
-14.75
-19.26
-23.32
-27.33
-31.88
-37.6
-44.94
-53.91
-63.85
-73.49
-81.11
-84.94
-83.68
-76.87
-65.01
-49.47
-32.03
-14.48
1.83
16.03
27.7
36.75
43.21
47.25
49.23
49.72
49.51
49.33
49.69
50.65
51.88
52.9
53.33
53.15
52.58
51.97
51.5
51.06
50.25
48.58
45.68
41.48
36.26
30.54
24.91
19.87
15.58
11.84
8.11
3.67
-2.07
-9.37
-17.95
-26.95
-35.05
-40.74
-42.67
-40.0
-32.67
-21.38
-7.47
7.42
21.75
34.35
44.53
52.02
56.82
59.12
59.27
57.78
55.37
52.83
50.9
50.01
50.23
51.22
52.43
53.29
53.38
52.59
50.97
48.71
45.95
42.68
38.75
33.91
28.05
21.22
13.79
6.26
-0.85
-7.22
-12.82
-17.9
-22.96
-28.59
-35.36
-43.62
-53.22
-63.37
-72.61
-79.03
-80.79
-76.77
-66.97
-52.56
-35.57
-18.21
-2.27
11.24
22.04
30.27
36.12
39.68
40.95
40.19
37.99
35.35
33.35
32.79
33.93
36.4
39.45
42.26
44.24
45.16
45.1
44.32
43.06
41.38
39.23
36.41
32.72
28.11
22.74
16.95
11.17
5.77
0.95
-3.3
-7.15
-10.85
-14.7
-19.07
-24.37
-30.95
-38.9
-47.69
-56.11
-62.37
-64.62
-61.55
-52.95
-39.83
-24.12
-8.05
6.48
18.36
27.27
33.41
37.18
38.9
38.85
37.34
34.88
32.23
30.25
29.67
30.8
33.38
36.67
39.71
41.65
42.1
41.18
39.38
37.23
35.04
32.72
29.94
26.35
21.82
16.61
11.18
6.0
1.37
-2.69
-6.39
-9.98
-13.77
-18.05
-23.17
-29.39
-36.78
-44.94
-52.83
-58.89
-61.41
-59.11
-51.6
-39.6
-24.72
-8.98
5.8
18.34
28.09
34.98
39.27
41.25
41.24
39.62
36.94
33.94
31.47
30.18
30.41
31.96
34.22
36.42
37.87
38.2
37.43
35.78
33.54
30.86
27.73
24.04
19.74
14.87
9.59
4.14
-1.22
-6.26
-10.82
-14.84
-18.41
-21.74
-25.2
-29.26
-34.32
-40.6
-47.91
-55.52
-62.17
-66.33
-66.52
-61.91
-52.56
-39.53
-24.55
-9.53
3.94
14.96
23.23
28.93
32.42
34.04
34.15
33.13
31.52
29.91
28.93
28.97
30.18
32.34
34.99
37.55
39.48
40.41
40.18
38.78
36.4
33.27
29.61
25.64
21.51
17.31
13.03
8.7
4.31
-0.06
-4.32
-8.4
-12.29
-16.08
-19.91
-24.01
-28.59
-33.89
-40.1
-47.21
-54.85
-62.16
-67.83
-70.36
-68.54
-61.91
-51.03
-37.35
-22.8
-9.19
2.27
11.11
17.45
21.69
24.2
25.25
25.0
23.73
21.84
19.86
18.31
17.49
17.49
18.12
19.05
19.94
20.49
20.48
19.79
18.4
16.32
13.59
10.28
6.49
2.36
-1.95
-6.23
-10.27
-13.94
-17.19
-20.06
-22.68
-25.2
-27.77
-30.55
-33.79
-37.75
-42.63
-48.4
-54.58
-60.16
-63.81
-64.15
-60.28
-52.06
-40.3
-26.48
-12.33
0.7
11.66
20.17
26.31
30.28
32.33
32.73
31.84
30.17
28.4
27.15
26.82
27.42
28.56
29.7
30.29
30.08
29.12
27.75
26.29
24.89
23.42
21.51
18.75
14.91
10.07
4.62
-0.9
-5.99
-10.36
-14.06
-17.4
-20.89
-25.08
-30.38
-36.94
-44.43
-52.04
-58.52
-62.47
-62.65
-58.4
-49.9
-38.11
-24.6
-11.05
1.17
11.2
18.84
24.26
27.85
29.93
30.75
30.52
29.59
28.48
27.81
28.07
29.39
31.5
33.77
35.49
36.2
35.81
34.6
32.99
31.34
29.7
27.88
25.53
22.37
18.33
13.56
8.4
3.2
-1.75
-6.33
-10.51
-14.43
-18.31
-22.5
-27.43
-33.44
-40.51
-48.05
-54.86
-59.41
-60.24
-56.55
-48.45
-36.96
-23.67
-10.25
1.97
12.21
20.16
25.86
29.49
31.29
31.55
30.61
29.0
27.29
26.1
25.88
26.73
28.41
30.38
32.05
32.99
33.07
32.47
31.49
30.35
29.04
27.34
24.93
21.57
17.24
12.17
6.79
1.55
-3.21
-7.39
-11.11
-14.68
-18.49
-22.95
-28.39
-34.93
-42.41
-50.21
-57.26
-62.14
-63.54
-60.61
-53.36
-42.71
-30.18
-17.44
-5.88
3.69
10.98
16.05
19.07
20.2
19.67
17.87
15.46
13.24
11.94
11.94
13.14
15.04
16.91
18.19
18.59
18.18
17.26
16.12
14.85
13.28
11.11
8.02
3.91
-1.05
-6.44
-11.7
-16.35
-20.18
-23.3
-26.14
-29.29
-33.31
-38.52
-44.82
-51.62
-57.83
-62.06
-63.0
-59.79
-52.42
-41.74
-29.24
-16.58
-5.05
4.61
12.28
18.15
22.46
25.32
26.77
26.95
26.18
25.01
24.02
23.67
24.09
25.12
26.35
27.34
27.81
27.67
27.08
26.25
25.39
24.47
23.3
21.52
18.87
15.28
10.97
6.37
1.96
-1.87
-5.02
-7.62
-10.02
-12.7
-16.1
-20.6
-26.36
-33.14
-40.23
-46.41
-50.26
-50.48
-46.4
-38.29
-27.29
-15.12
-3.44
6.52
14.3
20.0
24.0
26.61
27.94
28.02
26.93
25.04
22.89
21.11
20.16
20.14
20.79
21.64
22.23
22.26
21.71
20.67
19.29
17.64
15.57
12.86
9.29
4.83
-0.27
-5.5
-10.28
-14.14
-16.95
-18.95
-20.69
-22.86
-26.07
-30.65
-36.54
-43.21
-49.73
-54.92
-57.6
-56.9
-52.46
-44.61
-34.25
-22.68
-11.22
-0.96
7.47
13.88
18.35
21.05
22.18
21.96
20.69
18.85
17.03
15.8
15.51
16.15
17.35
18.61
19.5
19.82
19.64
19.11
18.37
17.37
15.89
13.71
