4.6
1.82
-1.4
-5.05
-8.95
-12.73
-16.05
-18.77
-21.04
-23.19
-25.63
-28.75
-32.74
-37.68
-43.43
-49.59
-55.39
-59.72
-61.36
-59.32
-53.3
-43.83
-32.23
-20.16
-9.12
-0.06
6.76
11.52
14.6
16.34
16.93
16.51
15.33
13.78
12.35
11.44
11.21
11.53
12.01
12.25
11.95
11.06
9.75
8.27
6.85
5.55
4.31
2.91
1.08
-1.37
-4.52
-8.3
-12.41
-16.47
-20.17
-23.28
-25.83
-28.03
-30.24
-32.83
-36.14
-40.37
-45.51
-51.24
-56.86
-61.33
-63.37
-61.86
-56.18
-46.53
-33.96
-20.12
-6.83
4.48
13.05
18.84
22.27
23.94
24.35
23.87
22.76
21.32
19.97
19.05
18.79
19.08
19.58
19.9
19.84
19.47
19.14
19.17
19.58
20.02
19.86
18.48
15.56
11.29
6.23
1.07
-3.63
-7.63
-11.0
-14.02
-17.05
-20.43
-24.49
-29.39
-35.02
-40.84
-45.84
-48.71
-48.29
-43.96
-36.01
-25.54
-14.19
-3.5
5.45
12.27
17.1
20.38
22.49
23.68
24.14
24.04
23.7
23.5
23.75
24.55
25.77
27.04
27.96
28.26
27.89
27.0
25.84
24.61
23.31
21.74
19.53
16.35
12.07
6.88
1.27
-4.13
-8.83
-12.68
-15.96
-19.24
-23.22
-28.4
-34.88
-42.21
-49.4
-55.17
-58.18
-57.47
-52.75
-44.51
-33.89
-22.37
-11.32
-1.73
5.98
11.8
15.96
18.78
20.46
21.2
21.15
20.55
19.66
18.8
18.22
18.11
18.49
19.26
20.16
20.88
21.1
20.6
19.29
17.21
14.51
11.34
7.82
4.02
0.02
-4.05
-7.94
-11.41
-14.3
-16.63
-18.68
-20.87
-23.65
-27.34
-32.08
-37.73
-43.87
-49.72
-54.24
-56.28
-54.88
-49.62
-40.8
-29.48
-17.12
-5.2
5.21
13.6
19.95
24.51
27.51
29.1
29.45
28.83
27.68
26.56
25.9
25.86
26.27
26.78
27.04
26.89
26.41
25.78
25.1
24.3
23.12
21.24
18.41
14.58
9.94
4.89
-0.1
-4.6
-8.38
-11.47
-14.21
-17.12
-20.75
-25.44
-31.14
-37.3
-42.87
-46.51
-46.98
-43.53
-36.19
-25.81
-13.81
-1.77
9.02
17.8
24.36
28.88
31.64
32.91
32.91
31.9
30.26
28.46
26.98
26.11
25.92
26.18
26.59
26.85
26.85
26.57
26.05
25.22
23.89
21.79
18.74
14.74
10.01
4.92
-0.13
-4.82
-9.08
-13.04
-17.03
-21.47
-26.76
-33.04
-40.07
-47.09
-52.96
-56.38
-56.3
-52.24
-44.52
-34.16
-22.55
-11.09
-0.82
7.71
14.34
19.2
22.42
24.17
24.59
23.95
22.69
21.32
20.35
20.07
20.51
21.38
22.28
22.83
22.91
22.61
22.26
22.11
22.26
22.5
22.48
21.77
20.15
17.69
14.75
11.82
9.31
7.39
5.9
4.39
2.32
-0.83
-5.39
-11.3
-18.01
-24.54
-29.62
-31.99
-30.82
-25.95
-17.93
-7.89
2.87
13.17
22.23
29.65
35.36
39.44
42.05
43.37
43.64
43.19
42.39
41.66
41.37
41.72
42.67
44.01
45.46
46.74
47.58
47.69
46.63
43.88
38.96
31.69
22.39
11.85
1.12
-8.88
-17.67
-25.28
-32.21
-39.01
-46.18
-53.87
-61.95
-69.9
-76.93
-81.92
-83.75
-81.56
-75.05
-64.69
-51.71
-37.67
-24.14
-12.22
-2.52
4.93
10.35
14.05
16.32
17.42
17.67
17.41
17.07
16.99
17.36
18.16
19.18
20.12
20.73
20.89
20.65
20.08
19.24
18.03
16.22
13.58
9.99
5.59
0.74
-4.08
-8.39
-11.97
-14.93
-17.71
-20.92
-25.15
-30.67
-37.25
-44.08
-49.9
-53.35
-53.37
-49.54
-42.25
-32.52
-21.72
-11.12
-1.61
6.29
12.44
16.79
19.35
20.22
19.7
18.3
16.71
15.61
15.43
16.21
17.66
19.27
20.54
21.16
21.07
20.42
19.41
18.18
16.78
15.11
13.05
10.48
7.34
3.63
-0.59
-5.17
-9.9
-14.54
-18.91
-22.99
-26.98
-31.26
-36.11
-41.52
-46.93
-51.35
-53.55
-52.58
-48.05
-40.3
-30.31
-19.31
-8.52
1.1
9.01
14.97
18.95
21.08
21.61
20.88
19.38
17.61
16.07
15.1
14.79
14.99
15.41
15.72
15.73
15.39
14.76
13.92
12.88
11.53
9.74
7.43
4.61
1.46
-1.81
-4.96
-7.87
-10.54
-13.16
-16.07
-19.65
-24.2
-29.65
-35.46
-40.59
-43.76
-43.86
-40.36
-33.52
-24.32
-14.13
-4.23
4.47
11.57
17.06
21.06
23.65
24.87
24.86
23.89
22.52
21.42
21.21
22.18
24.17
26.65
28.92
30.42
30.87
30.43
29.4
28.11
26.72
25.1
23.04
20.27
16.76
12.59
8.06
3.49
-0.84
-4.79
-8.36
-11.66
-14.94
-18.53
-22.76
-27.77
-33.32
-38.72
-42.83
-44.48
-42.77
-37.51
-29.27
-19.26
-8.83
0.83
9.01
15.47
20.25
23.45
25.15
25.39
24.28
22.16
19.6
17.24
15.67
15.15
15.57
16.48
17.31
17.59
17.1
15.95
14.38
12.67
10.93
9.06
6.89
4.24
1.12
-2.3
-5.71
-8.79
-11.37
-13.45
-15.26
-17.17
-19.62
-22.99
-27.45
-32.87
-38.64
-43.76
-46.96
-47.12
-43.59
-36.51
-26.76
-15.69
-4.73
5.05
13.13
19.38
23.94
26.89
28.29
28.23
27.0
25.15
23.37
22.28
22.2
23.04
24.39
25.72
26.63
26.95
26.77
26.22
25.42
24.37
22.93
20.97
18.36
15.06
11.12
6.68
1.95
-2.82
-7.37
-11.48
-15.05
-18.17
-21.08
-24.13
-27.59
-31.48
-35.45
-38.76
-40.45
-39.64
-35.87
-29.25
-20.49
-10.69
-1.07
7.39
14.1
18.89
21.89
23.42
23.79
23.31
22.24
20.89
19.62
18.81
18.71
19.35
20.45
21.55
22.18
22.05
21.2
19.86
18.34
16.78
15.14
13.2
10.72
7.6
3.94
0.03
-3.78
-7.16
-9.96
-12.17
-13.97
-15.65
-17.63
-20.35
-24.12
-28.95
-34.43
-39.63
-43.34
-44.38
-42.0
-36.21
-27.75
-17.89
-7.98
0.88
8.06
13.34
16.78
18.57
18.95
18.2
16.68
14.81
13.02
11.68
10.98
10.94
11.39
12.06
12.68
13.05
13.14
13.05
12.9
12.66
12.19
11.18
9.38
6.71
3.41
-0.13
-3.42
-6.18
-8.36
-10.16
-11.95
-14.09
-16.88
-20.5
-24.94
-29.94
-34.91
-38.92
-40.93
-40.03
-35.83
-28.63
-19.41
-9.51
-0.21
7.6
13.57
17.77
20.43
21.77
21.9
20.94
19.13
16.89
14.83
13.51
13.31
14.27
16.09
18.26
20.2
21.48
21.91
21.51
20.45
18.96
17.17
15.08
12.66
9.8
6.54
3.0
-0.57
-3.96
-6.99
-9.64
-12.02
-14.28
-16.65
-19.37
-22.7
-26.84
-31.77
-37.13
-42.11
-45.58
-46.38
-43.79
-37.81
-29.21
-19.31
-9.53
-0.98
5.8
10.77
14.18
16.3
17.29
17.24
16.29
14.72
12.98
11.59
10.93
11.15
12.09
13.38
14.6
15.4
15.6
15.17
14.18
12.73
10.93
8.84
6.54
4.07
1.44
-1.34
-4.26
-7.2
-10.0
-12.43
-14.38
-15.95
-17.37
-19.04
-21.35
-24.53
-28.57
-33.21
-37.86
-41.71
-43.75
-43.11
-39.25
-32.23
-22.77
-12.13
-1.68
7.41
14.44
19.23
21.96
22.97
22.61
21.19
19.02
16.49
14.06
12.24
11.46
11.85
13.24
15.15
16.96
18.1
18.29
17.57
16.22
14.55
12.79
10.91
8.8
6.3
3.36
0.09
-3.26
-6.46
-9.34
-11.86
-14.12
-16.23
-18.4
-20.81
-23.71
-27.3
-31.64
-36.47
-41.05
-44.33
-45.11
-42.54
-36.43
-27.43
-16.8
-6.04
3.57
11.28
16.94
20.79
23.21
24.49
24.79
24.22
22.95
21.32
19.77
18.75
18.59
19.33
20.74
22.39
23.82
24.66
24.74
24.08
22.82
21.13
19.13
16.82
14.17
11.13
7.74
4.12
0.42
-3.17
-6.53
-9.59
-12.4
-15.1
-17.86
-20.94
-24.59
-28.95
-33.98
-39.28
-44.1
-47.4
-48.15
-45.61
-39.67
-30.91
-20.44
-9.6
0.39
8.67
14.85
18.91
21.08
21.73
21.28
20.16
18.82
17.64
16.9
16.73
17.06
17.7
18.36
18.77
18.74
18.25
17.44
16.47
15.42
14.2
12.57
10.26
7.15
3.3
-0.96
-5.23
-9.09
-12.29
-14.76
-16.64
-18.22
-19.92
-22.2
-25.45
-29.84
-35.13
-40.64
-45.32
-48.0
-47.72
-44.05
-37.2
-28.0
-17.62
-7.26
2.15
10.07
16.31
20.86
23.75
25.03
24.8
23.36
21.26
19.2
17.87
17.72
18.74
20.53
22.45
23.88
24.45
24.15
23.19
21.87
20.39
18.77
16.93
14.63
11.77
8.25
4.18
-0.24
-4.72
-8.93
-12.65
-15.83
-18.68
-21.63
-25.23
-29.93
-35.9
-42.85
-50.03
-56.27
-60.28
-60.93
-57.64
-50.55
-40.54
-28.96
-17.22
-6.47
2.64
9.87
15.23
18.85
20.87
21.53
21.21
20.45
19.86
19.91
20.83
22.57
24.79
27.02
28.84
29.96
30.31
30.08
29.5
28.83
28.16
27.38
26.18
24.26
21.43
17.76
13.56
9.26
5.27
1.8
-1.16
-3.89
-6.78
-10.22
-14.51
-19.72
-25.69
-31.94
-37.68
-41.89
-43.52
-41.81
-36.58
-28.34
-18.14
-7.34
2.82
11.5
18.32
23.21
26.31
27.72
27.62
26.26
24.09
21.73
19.79
18.72
18.64
19.32
20.36
21.28
21.74
21.61
20.93
19.85
18.52
17.03
15.36
13.4
11.03
8.2
4.98
1.58
-1.74
-4.78
-7.49
-9.99
-12.57
-15.58
-19.33
-24.01
-29.58
-35.66
-41.56
-46.27
-48.66
-47.78
-43.25
-35.33
-25.04
-13.78
-2.95
6.4
13.79
19.21
22.92
25.18
26.16
25.95
24.71
22.78
20.72
19.16
18.56
19.1
20.52
22.35
24.05
25.24
25.82
25.87
25.53
24.85
23.77
22.17
19.97
17.16
13.84
10.15
6.26
2.34
-1.45
-4.99
-8.21
-11.2
-14.18
-17.46
-21.36
-26.08
-31.52
-37.27
-42.51
-46.18
-47.23
-44.89
-39.02
-30.14
-19.36
-7.98
2.76
12.02
19.37
24.72
28.1
29.65
29.6
28.34
26.48
24.71
23.67
23.69
24.69
26.24
27.76
28.78
29.07
28.7
27.87
26.78
25.49
23.93
21.98
19.46
16.32
12.56
8.36
3.97
-0.21
-3.83
-6.67
-8.76
-10.42
-12.19
-14.68
-18.35
-23.29
-29.07
-34.77
-39.1
-40.74
-38.71
-32.69
-23.13
-11.16
1.72
14.02
24.58
32.78
38.55
42.17
44.19
45.12
45.39
45.36
45.32
45.52
46.22
47.56
49.54
52.0
54.7
57.4
59.94
62.15
63.71
64.07
62.42
57.88
49.84
38.23
23.69
7.53
-8.59
-23.05
-34.71
-43.16
-48.73
-52.24
-54.72
-57.04
-59.76
-63.1
-66.92
-70.84
-74.17
-75.97
-75.26
-71.29
-63.88
-53.6
-41.71
-29.73
-19.07
-10.55
-4.32
-0.08
2.7
4.47
5.49
5.87
5.78
5.49
5.4
5.87
7.12
9.05
11.37
13.63
15.45
16.56
16.9
16.49
15.45
13.9
11.96
9.72
7.25
4.54
1.54
-1.77
-5.34
-9.01
-12.55
-15.72
-18.44
-20.8
-23.05
-25.55
-28.62
-32.53
-37.27
-42.51
-47.55
-51.29
-52.57
-50.43
-44.62
-35.63
-24.71
-13.36
-2.96
5.66
12.18
16.7
19.44
20.6
20.35
18.94
16.8
14.5
12.66
11.67
11.63
12.32
13.32
14.23
14.74
14.75
14.3
13.5
12.43
11.07
9.3
6.98
4.04
0.55
-3.19
-6.75
-9.67
-11.68
-12.85
-13.57
-14.51
-16.38
-19.69
-24.52
-30.37
-36.25
-40.83
-42.83
-41.39
-36.31
-28.14
-18.05
-7.44
2.44
10.7
16.92
21.1
23.44
24.21
23.71
22.26
20.21
17.97
15.9
14.26
13.11
12.31
11.61
10.78
9.71
8.44
7.1
5.85
4.68
3.51
2.21
0.68
-1.0
-2.62
-3.9
-4.54
-4.4
-3.48
-1.95
-0.2
1.32
2.06
1.56
-0.37
-3.47
-6.9
-9.38
-9.53
-6.29
0.68
10.92
23.35
36.69
49.91
62.4
74.02
84.85
94.94
104.08
111.79
117.27
119.56
117.79
111.56
101.33
88.54
75.31
63.87
55.77
51.4
49.94
49.93
49.94
49.15
47.51
45.43
43.24
40.94
38.11
34.14
28.56
21.23
12.31
2.18
-8.73
-20.01
-31.26
-42.06
-52.11
-61.28
-69.68
-77.58
-85.16
-92.25
-98.19
-102.01
-102.74
-99.88
-93.61
-84.77
-74.57
-64.21
-54.55
-46.07
-38.91
-33.14
-28.85
-26.13
-24.97
-25.1
-25.92
-26.71
-26.8
-25.9
-24.13
-21.96
-19.94
-18.42
-17.43
-16.71
-15.95
-15.0
-13.99
-13.29
-13.35
-14.52
-16.85
-20.09
-23.72
-27.13
-29.81
-31.54
-32.41
-32.89
-33.61
-35.22
-38.15
-42.43
-47.57
-52.63
-56.36
-57.48
-55.06
-48.75
-38.92
-26.6
-13.27
-0.36
10.95
20.05
26.8
31.42
34.2
35.39
35.18
33.83
31.74
29.47
27.65
26.66
26.54
26.94
27.27
26.98
25.79
23.82
21.45
19.14
17.11
15.28
13.25
10.55
6.86
2.16
-3.21
-8.73
-13.85
-18.25
-21.93
-25.17
-28.52
-32.61
-38.02
-45.0
-53.28
-61.82
-68.96
-72.68
-71.26
-63.86
-50.9
-33.99
-15.43
2.53
18.4
31.64
42.6
52.0
60.4
67.93
74.23
78.75
81.02
80.99
79.19
76.73
74.99
75.22
78.02
82.85
88.14
91.69
91.7
87.58
80.37
72.35
66.04
63.22
64.28
68.28
73.51
78.21
80.98
80.9
77.5
70.66
60.83
49.02
36.57
24.67
13.78
3.3
-8.02
-21.24
-36.33
-51.84
-65.34
-74.4
-77.68
-75.4
-69.02
-60.46
-51.19
-41.93
-32.77
-23.77
-15.4
-8.48
-3.96
-2.36
-3.6
-6.97
-11.59
-16.67
-21.85
-27.15
-32.8
-38.96
-45.48
-51.82
-57.21
-60.96
-62.77
-62.92
-62.23
-61.64
-61.83
-62.89
-64.33
-65.33
-65.22
-63.84
-61.59
-59.22
-57.58
-57.28
-58.58
-61.33
-64.9
-68.3
-70.27
-69.53
-65.13
-56.8
-45.14
-31.47
-17.46
-4.69
5.76
13.47
18.54
21.39
22.53
22.48
21.68
20.57
19.46
18.56
17.93
17.5
17.18
16.94
16.82
16.9
17.17
17.45
17.36
16.52
14.62
11.65
7.81
3.55
-0.69
-4.51
-7.74
-10.44
-12.95
-15.81
-19.63
-24.82
-31.36
-38.59
-45.25
-49.81
-50.87
-47.67
-40.35
-29.84
-17.63
-5.31
5.79
14.77
21.19
25.01
26.48
26.02
24.22
21.73
19.21
17.17
15.87
15.34
15.41
15.77
16.1
16.21
16.06
15.78
15.54
15.48
15.55
15.48
14.86
13.38
10.9
7.58
3.84
0.13
-3.21
-6.12
-8.83
-11.74
-15.25
-19.71
-25.17
-31.31
-37.36
-42.19
-44.49
-43.2
-37.88
-28.9
-17.42
-5.0
6.84
17.03
25.05
30.83
34.54
36.34
36.39
34.95
32.45
29.5
26.79
24.85
23.91
23.81
24.18
24.59
24.75
24.56
24.13
23.55
22.85
21.91
20.45
18.15
14.8
10.41
5.26
-0.14
-5.21
-9.5
-12.85
-15.47
-17.86
-20.64
-24.37
-29.33
-35.33
-41.68
-47.23
-50.6
-50.58
-46.48
-38.42
-27.32
-14.71
-2.24
8.71
17.34
23.46
27.25
29.08
29.28
28.11
25.87
23.0
20.12
17.88
16.75
16.83
17.75
18.86
19.52
19.38
18.51
17.25
15.96
14.78
13.51
11.73
9.04
5.29
0.68
-4.31
-9.12
-13.34
-16.8
-19.65
-22.24
-25.04
-28.53
-33.02
-38.59
-44.91
-51.13
-55.96
-57.96
-55.96
-49.52
-39.15
-26.22
-12.47
0.51
11.66
20.59
27.36
32.2
35.3
36.75
36.74
35.59
33.82
32.05
30.76
30.22
30.4
31.05
31.81
32.34
32.4
31.91
30.86
29.34
27.42
25.12
22.35
19.0
15.01
10.46
5.62
0.87
-3.47
-7.25
-10.54
-13.56
-16.63
-20.04
-24.05
-28.93
-34.78
-41.47
-48.34
-54.22
-57.57
-57.01
-51.81
-42.27
-29.67
-15.82
-2.53
8.95
18.08
24.94
29.88
33.24
35.22
35.88
35.35
33.94
32.13
30.49
29.52
29.42
30.08
31.16
32.19
32.82
32.84
32.26
31.18
29.7
27.83
25.43
22.37
18.52
13.94
8.87
3.7
-1.14
-5.32
-8.73
-11.46
-13.77
-15.98
-18.39
-21.27
-24.87
-29.42
-35.04
-41.53
-48.21
-53.83
-56.87
-55.95
-50.4
-40.52
-27.61
-13.51
-0.04
11.49
20.49
26.97
31.3
33.86
34.96
34.83
33.7
31.95
30.09
28.65
28.1
28.64
30.16
32.24
34.29
35.7
36.09
35.35
33.7
31.5
29.11
26.7
24.18
21.37
18.07
14.23
10.0
5.66
1.49
-2.31
-5.69
-8.78
-11.79
-15.05
-18.93
-23.83
-30.08
-37.86
-46.98
-56.72
-65.85
-72.75
-75.81
-73.95
-66.98
-55.72
-41.85
-27.32
-13.88
-2.62
6.07
12.31
16.48
18.9
19.8
19.46
18.23
16.65
15.34
14.79
15.27
16.74
18.93
21.47
24.04
26.39
28.3
29.59
30.02
29.42
27.73
25.11
21.91
18.48
15.14
11.97
8.92
5.84
2.62
-0.74
-4.17
-7.52
-10.72
-13.77
-16.79
-20.06
-23.93
-28.72
-34.59
-41.37
-48.35
-54.41
-58.19
-58.41
-54.37
-46.14
-34.6
-21.27
-7.8
4.32
14.08
21.06
25.27
27.09
27.05
25.77
23.87
21.9
20.36
19.62
19.95
21.4
23.82
26.85
30.01
32.83
34.94
36.14
36.38
35.7
34.14
31.81
28.85
25.48
21.93
18.37
14.87
11.34
7.7
3.88
-0.03
-3.87
-7.47
-10.75
-13.84
-17.03
-20.74
-25.39
-31.26
-38.27
-45.83
-52.84
-57.89
-59.56
-56.9
-49.78
-38.94
-25.89
-12.39
-0.05
10.07
17.55
22.51
25.35
26.49
26.3
25.09
23.26
21.32
19.88
19.45
20.29
22.3
25.02
27.87
30.28
31.88
32.5
32.17
30.98
29.03
26.45
23.33
19.75
15.82
11.6
7.23
2.84
-1.38
-5.24
-8.62
-11.54
-14.11
-16.61
-19.3
-22.52
-26.56
-31.67
-37.9
-44.92
-51.94
-57.65
-60.53
-59.29
-53.29
-42.86
-29.19
-14.06
0.72
13.71
24.12
31.75
36.82
39.76
41.03
41.04
40.23
39.03
37.96
37.48
37.89
39.17
40.87
42.26
42.57
41.25
38.19
33.74
28.47
23.01
17.78
12.97
8.65
4.8
1.37
-1.71
-4.58
-7.45
-10.49
-13.78
-17.25
-20.76
-24.15
-27.39
-30.58
-33.98
-37.92
-42.71
-48.44
-54.79
-60.89
-65.41
-66.86
-64.09
-56.71
-45.37
-31.5
-16.97
-3.43
7.99
16.89
23.4
27.87
30.65
31.99
32.09
31.23
29.83
28.42
27.53
27.47
28.29
29.69
31.19
32.28
32.6
32.04
30.71
28.82
26.53
23.86
20.7
16.89
12.37
7.31
2.02
-3.07
-7.66
-11.64
-15.09
-18.23
-21.35
-24.72
-28.62
-33.34
-39.11
-45.87
-53.08
-59.69
-64.22
-65.18
-61.64
-53.5
-41.68
-27.81
-13.69
-0.87
9.75
17.84
23.53
27.09
28.77
28.83
27.64
25.7
23.69
22.27
21.86
22.53
23.99
25.71
27.19
28.09
28.35
28.04
27.32
26.26
24.79
22.77
20.04
16.53
12.3
7.57
2.62
-2.24
-6.76
-10.81
-14.4
-17.66
-20.87
-24.35
-28.49
-33.62
-39.88
-47.1
-54.6
-61.25
-65.66
-66.48
-62.88
-54.74
-42.84
-28.57
-13.69
0.19
11.88
20.81
26.99
30.82
32.83
33.53
33.29
32.42
31.19
29.97
29.15
29.08
29.79
31.09
32.51
33.52
33.75
33.02
31.44
29.25
26.7
23.91
20.87
17.47
13.61
9.29
4.66
-0.04
-4.57
-8.74
-12.54
-16.06
-19.45
-22.87
-26.52
-30.68
-35.65
-41.7
-48.79
-56.35
-63.22
-67.8
-68.56
-64.52
-55.71
