23.26
21.88
20.23
18.68
17.6
17.25
17.64
18.56
19.58
20.29
20.4
19.79
18.6
17.03
15.34
13.66
12.0
10.23
8.16
5.69
2.8
-0.36
-3.55
-6.52
-9.16
-11.53
-13.83
-16.36
-19.37
-23.07
-27.47
-32.4
-37.41
-41.83
-44.8
-45.44
-43.1
-37.58
-29.27
-19.1
-8.35
1.71
10.1
16.34
20.41
22.62
23.39
23.08
22.0
20.37
18.47
16.61
15.13
14.26
14.06
14.34
14.8
15.1
15.02
14.54
13.78
12.88
11.89
10.65
8.91
6.41
3.09
-0.81
-4.85
-8.53
-11.47
-13.62
-15.26
-16.89
-19.06
-22.21
-26.52
-31.79
-37.37
-42.28
-45.34
-45.51
-42.25
-35.71
-26.71
-16.49
-6.32
2.81
10.34
16.11
20.16
22.63
23.7
23.6
22.66
21.31
19.93
18.85
18.23
18.1
18.35
18.83
19.33
19.66
19.65
19.22
18.35
17.09
15.51
13.63
11.43
8.87
5.89
2.53
-1.09
-4.72
-8.1
-11.04
-13.52
-15.75
-18.04
-20.81
-24.39
-28.92
-34.2
-39.61
-44.19
-46.78
-46.42
-42.56
-35.41
-25.84
-15.16
-4.74
4.35
11.5
16.59
19.83
21.55
22.07
21.7
20.72
19.43
18.2
17.4
17.29
17.91
19.02
20.13
20.76
20.65
19.85
18.72
17.69
16.99
16.47
15.68
14.11
11.45
7.8
3.61
-0.48
-3.97
-6.62
-8.61
-10.37
-12.45
-15.28
-19.15
-24.06
-29.69
-35.38
-40.19
-43.01
-42.88
-39.27
-32.31
-22.88
-12.31
-2.09
6.58
13.04
17.18
19.3
19.86
19.29
17.97
16.21
14.35
12.71
11.56
11.03
11.09
11.48
11.95
12.24
12.21
11.82
11.11
10.04
8.57
6.57
3.95
0.71
-3.02
-7.01
-10.95
-14.53
-17.62
-20.24
-22.69
-25.42
-28.94
-33.52
-38.93
-44.35
-48.5
-49.98
-47.81
-41.77
-32.57
-21.58
-10.35
-0.19
8.16
14.47
18.92
21.77
23.27
23.62
23.05
21.89
20.51
19.28
18.44
18.05
17.99
18.07
18.11
18.01
17.77
17.43
16.98
16.31
15.21
13.39
10.64
6.94
2.54
-2.1
-6.43
-10.08
-12.94
-15.28
-17.58
-20.44
-24.33
-29.42
-35.47
-41.74
-47.12
-50.31
-50.22
-46.34
-38.93
-29.0
-17.96
-7.24
2.14
9.73
15.51
19.67
22.39
23.79
23.95
23.09
21.65
20.17
19.2
19.08
19.86
21.24
22.79
24.06
24.75
24.78
24.26
23.34
22.09
20.46
18.29
15.42
11.88
7.93
3.98
0.46
-2.41
-4.7
-6.73
-8.94
-11.68
-15.2
-19.52
-24.44
-29.51
-34.05
-37.18
-38.03
-36.05
-31.15
-23.84
-15.07
-5.94
2.55
9.71
15.17
18.88
21.0
21.8
21.64
20.88
19.9
18.98
18.28
17.86
17.65
17.52
17.37
17.15
16.85
16.5
16.04
15.33
14.2
12.44
9.92
6.68
2.88
-1.17
-5.14
-8.78
-12.0
-14.95
-17.98
-21.55
-26.01
-31.4
-37.32
-42.83
-46.71
-47.73
-45.12
-38.81
-29.54
-18.63
-7.58
2.33
10.35
16.27
20.23
22.54
23.51
23.43
22.56
21.23
19.81
18.65
18.03
17.99
18.44
19.14
19.81
20.23
20.29
19.95
19.19
17.94
16.06
13.46
10.11
6.17
1.94
-2.24
-6.08
-9.48
-12.59
-15.76
-19.45
-24.01
-29.5
-35.49
-41.08
-44.97
-45.93
-43.18
-36.68
-27.24
-16.25
-5.23
4.58
12.49
18.31
22.18
24.33
24.98
24.41
22.98
21.23
19.74
18.97
19.08
19.89
20.96
21.83
22.19
22.0
21.43
20.74
19.99
19.09
17.72
15.55
12.42
8.45
4.07
-0.18
-3.87
-6.85
-9.29
-11.66
-14.48
-18.21
-23.03
-28.82
-35.0
-40.64
-44.55
-45.61
-43.1
-37.03
-28.11
-17.64
-7.06
2.45
10.19
16.02
20.09
22.7
24.09
24.48
24.09
23.22
22.22
21.41
21.01
21.05
21.41
21.86
22.22
22.37
22.27
21.91
21.25
20.22
18.72
16.72
14.26
11.52
8.66
5.88
3.3
0.96
-1.12
-3.08
-5.15
-7.65
-10.77
-14.41
-17.92
-20.24
-20.09
-16.54
-9.34
0.95
13.06
25.47
36.88
46.48
54.02
59.68
63.83
66.89
69.21
71.1
72.88
74.8
77.07
79.63
82.19
84.19
85.03
84.35
82.06
78.38
73.56
67.68
60.55
51.92
41.77
30.45
18.72
7.45
-2.73
-11.63
-19.51
-26.88
-34.27
-42.0
-50.03
-57.95
-64.99
-70.09
-72.19
-70.49
-64.82
-55.73
-44.42
-32.46
-21.39
-12.37
-5.96
-2.19
-0.58
-0.39
-0.82
-1.1
-0.61
1.08
4.09
8.16
12.7
16.93
20.17
22.2
23.44
24.79
27.31
31.68
37.8
44.77
51.21
55.75
57.58
56.64
53.6
49.42
44.83
39.88
33.91
25.71
14.14
-1.29
-19.9
-39.9
-58.78
-73.99
-83.69
-87.29
-85.56
-80.3
-73.77
-67.96
-64.04
-62.18
-61.77
-61.98
-62.24
-62.54
-63.36
-65.23
-68.4
-72.62
-77.23
-81.38
-84.29
-85.38
-84.38
-81.32
-76.59
-70.88
-65.04
-59.8
-55.57
-52.38
-50.01
-48.25
-47.0
-46.23
-45.73
-45.01
-43.42
-40.52
-36.27
-31.03
-25.37
-19.66
-13.89
-7.76
-0.89
6.93
15.68
25.08
34.62
43.45
50.5
54.66
55.31
52.75
48.28
43.69
40.43
38.84
38.08
36.76
33.91
29.7
25.39
22.54
22.06
23.56
25.55
26.31
24.75
20.95
15.98
11.16
7.34
4.59
2.28
-0.31
-3.6
-7.53
-11.76
-16.05
-20.45
-25.16
-30.16
-34.86
-38.13
-38.62
-35.47
-28.74
-19.45
-9.23
0.31
8.11
13.76
17.41
19.46
20.31
20.27
19.58
18.47
17.17
15.92
14.9
14.18
13.69
13.18
12.33
10.89
8.81
6.34
3.86
1.63
-0.35
-2.38
-4.8
-7.76
-11.08
-14.38
-17.33
-19.87
-22.17
-24.52
-27.13
-30.07
-33.27
-36.54
-39.53
-41.58
-41.83
-39.41
-33.87
-25.5
-15.35
-4.88
4.59
12.31
18.2
22.6
25.9
28.26
29.56
29.63
28.43
26.19
23.37
20.52
18.08
16.31
15.2
14.52
13.92
13.12
11.99
10.61
9.19
7.87
6.62
5.22
3.41
1.0
-1.9
-5.03
-8.04
-10.75
-13.21
-15.71
-18.59
-22.15
-26.55
-31.69
-37.19
-42.29
-45.93
-46.9
-44.26
-37.71
-27.81
-15.92
-3.79
7.01
15.52
21.49
25.23
27.23
27.95
27.66
26.59
24.99
23.2
21.58
20.35
19.52
18.91
18.3
17.55
16.72
15.91
15.25
14.69
14.01
12.89
11.05
8.45
5.31
2.04
-0.95
-3.43
-5.49
-7.52
-10.02
-13.46
-17.98
-23.32
-28.75
-33.21
-35.57
-34.91
-30.87
-23.76
-14.53
-4.52
4.99
13.04
19.19
23.46
26.1
27.41
27.56
26.7
24.96
22.55
19.75
16.84
14.03
11.44
9.14
7.15
5.5
4.17
3.01
1.79
0.19
-2.05
-5.01
-8.56
-12.37
-16.07
-19.42
-22.37
-25.1
-27.95
-31.25
-35.25
-39.92
-44.85
-49.18
-51.76
-51.35
-47.11
-38.87
-27.41
-14.19
-0.96
10.71
19.85
26.19
29.97
31.7
31.93
31.11
29.59
27.63
25.47
23.25
21.11
19.17
17.46
16.01
14.76
13.63
12.48
11.21
9.69
7.89
5.75
3.3
0.56
-2.38
-5.39
-8.37
-11.32
-14.35
-17.76
-21.92
-27.08
-33.14
-39.47
-44.91
-48.0
-47.48
-42.71
-33.97
-22.37
-9.52
3.01
14.04
22.95
29.55
33.88
36.13
36.51
35.4
33.26
30.61
27.94
25.52
23.48
21.76
20.28
18.96
17.79
16.71
15.66
14.53
13.14
11.33
8.97
6.03
2.57
-1.21
-5.03
-8.61
-11.79
-14.61
-17.34
-20.48
-24.51
-29.67
-35.81
-42.18
-47.62
-50.71
-50.27
-45.67
-37.11
-25.59
-12.6
0.28
11.75
20.98
27.69
31.96
34.08
34.34
33.12
30.79
27.79
24.6
21.6
19.1
17.21
15.93
15.15
14.74
14.52
14.29
13.83
12.89
11.26
8.81
5.55
1.68
-2.52
-6.69
-10.63
-14.29
-17.88
-21.79
-26.42
-31.91
-37.92
-43.57
-47.59
-48.64
-45.73
-38.61
-27.8
-14.53
-0.39
13.05
24.55
33.38
39.32
42.55
43.49
42.63
40.41
37.25
33.55
29.7
26.09
23.04
20.71
19.12
18.11
17.4
16.7
15.72
14.23
12.11
9.37
6.15
2.71
-0.66
-3.74
-6.49
-9.06
-11.86
-15.39
-20.06
-25.91
-32.37
-38.3
-42.21
-42.72
-39.05
-31.33
-20.54
-8.18
4.16
15.27
24.38
31.11
35.37
37.18
36.74
34.47
31.0
27.07
23.36
20.28
17.96
16.3
15.13
14.34
13.91
13.76
13.72
13.51
12.78
11.31
9.09
6.29
3.16
-0.04
-3.2
-6.29
-9.4
-12.71
-16.5
-21.06
-26.53
-32.65
-38.62
-43.19
-44.94
-42.83
-36.59
-26.88
-15.08
-2.88
8.18
17.14
23.57
27.54
29.37
29.43
28.08
25.66
22.51
19.01
15.5
12.33
9.72
7.8
6.62
6.08
6.0
6.14
6.15
5.77
4.84
3.38
1.58
-0.22
-1.72
-2.73
-3.26
-3.53
-3.96
-5.02
-7.16
-10.49
-14.62
-18.57
-20.97
-20.44
-16.21
-8.4
1.91
13.03
23.22
31.24
36.5
39.05
39.32
37.78
34.89
31.04
26.63
22.14
18.06
14.82
12.64
11.54
11.28
11.44
11.53
11.15
10.1
8.39
6.22
3.8
1.27
-1.37
-4.22
-7.37
-10.87
-14.69
-18.83
-23.33
-28.13
-32.96
-37.12
-39.61
-39.39
-35.82
-28.96
-19.63
-9.13
1.13
10.09
17.14
22.08
24.91
25.79
24.94
22.69
19.52
16.03
12.75
10.06
8.17
7.06
6.58
6.47
6.5
6.38
5.91
4.97
3.56
1.8
-0.06
-1.84
-3.42
-4.9
-6.53
-8.65
-11.49
-15.18
-19.62
-24.48
-29.22
-33.07
-35.17
-34.69
-31.13
-24.51
-15.5
-5.27
4.8
13.47
19.98
24.1
26.1
26.42
25.52
23.77
21.43
18.79
16.17
13.95
12.39
11.55
11.24
11.1
10.82
10.19
9.23
8.04
6.69
5.16
3.34
1.14
-1.43
-4.2
-7.0
-9.73
-12.52
-15.61
-19.32
-23.68
-28.3
-32.36
-34.77
-34.58
-31.27
-25.02
-16.63
-7.32
1.7
9.43
15.29
19.12
21.0
21.22
20.09
17.94
15.08
11.92
8.84
6.26
4.52
3.76
3.88
4.52
5.15
5.26
4.54
2.95
0.73
-1.71
-3.96
-5.77
-7.19
-8.49
-10.05
-12.23
-15.22
-19.0
-23.27
-27.52
-31.07
-33.12
-32.93
-30.06
-24.52
-16.87
-8.08
0.67
8.34
14.26
18.16
20.14
20.48
19.57
17.76
15.41
12.88
10.48
8.49
7.12
6.48
6.46
6.85
7.26
7.31
6.69
5.31
3.31
0.94
-1.48
-3.83
-6.11
-8.47
-11.08
-14.11
-17.6
-21.6
-26.0
-30.48
-34.4
-36.83
-36.77
-33.52
-27.03
-18.01
-7.73
2.32
10.96
17.52
21.86
24.18
24.76
23.91
21.92
19.2
16.22
13.47
11.38
10.12
9.61
9.59
9.65
9.51
8.99
8.1
6.93
5.59
4.11
2.46
0.53
-1.73
-4.29
-7.08
-10.09
-13.44
-17.33
-21.93
-27.06
-32.08
-35.91
-37.4
-35.75
-30.86
-23.37
-14.52
-5.61
2.32
8.72
13.49
16.74
18.58
19.09
18.39
16.68
14.37
11.87
9.6
7.75
6.35
5.27
4.31
3.37
2.35
1.22
-0.13
-1.83
-3.99
-6.66
-9.72
-12.9
-15.81
-18.07
-19.44
-19.99
-20.07
-20.26
-21.05
-22.57
-24.39
-25.6
-25.09
-22.07
-16.4
-8.63
0.12
8.66
16.06
21.84
25.96
28.53
29.72
29.64
28.37
26.13
23.3
20.37
17.84
16.05
15.12
14.88
14.98
15.03
14.66
13.69
12.07
9.95
7.54
5.08
2.74
0.54
-1.63
-4.02
-6.9
-10.47
-14.84
-19.91
-25.37
-30.65
-34.96
-37.36
-37.01
-33.48
-26.9
-18.09
-8.3
1.15
9.22
15.35
19.47
21.84
22.83
22.81
22.11
21.02
19.8
18.67
17.77
17.16
16.81
16.64
16.58
16.48
16.21
15.65
14.71
13.38
11.68
9.63
7.26
4.62
1.8
-1.04
-3.77
-6.42
-9.2
-12.51
-16.64
-21.65
-27.04
-31.87
-34.93
-35.22
-32.24
-26.24
-18.06
-8.91
0.04
7.88
14.1
18.56
21.35
22.7
22.9
22.28
21.19
19.99
18.95
18.23
17.8
17.53
17.28
17.0
16.76
16.71
16.9
17.21
17.3
16.75
15.24
12.69
9.34
5.59
1.86
-1.55
-4.53
-7.14
-9.61
-12.27
-15.46
-19.5
-24.43
-29.87
-34.96
-38.55
-39.44
-36.92
-31.04
-22.63
-13.07
-3.79
4.12
10.2
14.43
17.1
18.49
18.78
18.15
16.81
15.16
13.65
12.67
12.37
12.59
13.01
13.27
13.18
12.76
12.2
11.69
11.28
10.84
10.07
8.69
6.52
3.6
0.23
-3.21
-6.35
-8.96
-11.05
-12.82
-14.6
-16.77
-19.67
-23.45
-28.01
-32.85
-37.11
-39.72
-39.69
-36.44
-30.09
-21.38
-11.54
-1.84
6.77
13.8
19.16
22.92
25.19
26.03
25.55
24.02
21.97
20.0
18.64
18.17
18.51
19.29
20.04
20.35
20.04
19.19
18.04
16.85
15.71
14.52
13.0
10.87
8.01
4.54
0.8
-2.81
-5.92
-8.41
-10.34
-11.99
-13.77
-16.15
-19.53
-24.1
-29.63
-35.39
-40.23
-42.91
-42.45
-38.51
-31.48
-22.38
-12.51
-3.06
5.16
11.82
16.91
20.57
22.94
24.12
24.2
23.41
22.1
20.76
19.79
19.44
19.68
20.22
20.74
20.89
20.54
19.7
18.49
17.12
15.73
14.41
13.13
11.77
10.1
7.97
5.29
2.1
-1.43
-5.1
-8.69
-12.03
-15.03
-17.69
-20.19
-22.85
-26.06
-30.13
-35.01
-40.12
-44.41
-46.62
-45.68
-41.22
-33.63
-24.04
-13.83
-4.25
3.94
10.49
15.48
19.05
21.27
22.12
21.67
20.23
18.35
16.65
15.62
15.42
15.86
16.5
16.94
16.89
16.32
15.33
14.08
12.66
11.1
9.31
7.17
4.61
1.59
-1.82
-5.49
-9.2
-12.76
-16.05
-19.05
-21.87
-24.68
-27.73
-31.26
-35.44
-40.25
-45.36
-50.09
-53.42
-54.27
-51.83
-45.83
-36.76
-25.71
-14.08
-3.19
6.04
13.25
18.49
22.0
24.09
25.02
25.02
24.35
23.37
22.48
22.01
22.13
22.76
23.6
24.28
24.51
24.16
23.33
22.25
21.12
20.01
18.82
17.37
15.47
13.06
10.17
6.95
3.56
0.09
-3.32
-6.6
-9.68
-12.56
-15.34
-18.25
-21.65
-25.87
-31.07
-37.05
-43.14
-48.21
-50.98
-50.34
-45.79
-37.64
-26.92
-15.06
-3.52
6.64
14.84
20.95
25.15
27.72
28.98
29.22
28.75
27.84
26.79
25.87
25.34
25.33
25.87
26.79
27.81
28.65
29.05
28.9
28.19
26.98
25.29
23.13
20.42
17.15
13.34
9.13
4.73
0.4
-3.66
-7.34
-10.61
-13.6
-16.5
-19.56
-23.06
-27.26
-32.32
-38.13
-44.19
-49.57
-53.03
-53.38
-49.88
-42.62
-32.46
-20.91
-9.56
0.37
8.32
14.3
18.65
21.69
23.54
24.23
23.79
22.53
20.95
19.61
18.9
18.9
19.35
19.83
20.03
19.82
19.29
18.66
18.06
17.46
16.66
15.36
13.28
10.32
6.6
2.4
-1.82
-5.7
-9.04
-11.88
-14.46
-17.12
-20.17
-23.86
-28.32
-33.53
-39.25
-44.84
-49.29
-51.35
-49.93
-44.5
-35.38
-23.72
-11.09
0.92
11.27
19.52
25.71
30.1
32.85
34.05
33.76
32.24
29.97
27.63
25.82
24.9
24.89
25.48
26.27
26.83
26.92
26.45
25.5
24.19
22.63
20.85
18.74
16.12
12.81
8.78
4.24
-0.42
-4.78
-8.54
-11.69
-14.47
-17.27
-20.5
-24.48
-29.42
-35.23
-41.54
-47.58
-52.21
-54.17
-52.43
-46.59
-37.07
-25.04
-12.12
0.17
10.73
19.07
25.24
29.54
32.32
33.82
34.17
33.52
32.17
30.59
29.28
28.66
28.8
29.46
30.22
30.64
30.51
29.84
28.87
27.78
26.65
25.34
23.59
21.16
17.93
13.93
9.34
4.42
-0.54
-5.29
-9.63
-13.46
-16.83
-19.93
-23.19
-27.09
-32.03
-38.05
-44.6
-50.6
-54.56
-55.12
-51.44
-43.55
-32.35
-19.36
-6.23
5.66
15.5
23.0
28.27
31.59
33.2
33.32
32.2
30.17
27.66
25.22
23.33
22.29
22.15
22.71
23.6
24.43
24.86
24.69
23.88
22.54
20.85
18.96
16.94
14.68
11.99
8.68
4.73
0.34
-4.18
-8.48
-12.37
-15.87
-19.17
-22.51
-26.16
-30.37
-35.25
-40.72
-46.32
-51.19
-54.16
-54.03
-50.02
-42.07
-30.92
-17.96
-4.77
7.26
17.21
24.69
29.76
32.71
33.9
33.69
32.39
30.39
28.12
26.1
24.79
24.48
25.16
26.51
27.98
29.05
29.35
28.83
27.67
26.2
24.68
23.19
21.61
19.61
16.9
13.31
8.88
3.9
-1.22
-6.07
-10.36
-14.03
-17.27
-20.45
-24.01
-28.33
-33.61
-39.73
-46.19
-52.11
-56.25
-57.41
-54.66
-47.78
-37.4
-24.85
-11.78
0.26
10.23
17.71
22.78
25.78
27.11
27.14
26.18
24.57
22.68
20.9
19.56
18.89
18.93
19.56
20.51
21.41
21.91
21.85
21.22
20.24
19.13
18.07
17.01
15.72
13.87
11.24
7.84
3.9
-0.17
-3.98
-7.31
-10.15
-12.66
-15.12
-17.83
-21.07
-25.08
-29.95
-35.46
-40.95
-45.32
-47.26
-45.7
-40.12
-30.91
-19.24
-6.77
4.92
14.63
21.8
26.43
28.81
29.36
28.45
26.47
23.85
21.07
18.65
16.96
16.13
15.95
16.0
15.84
15.2
14.07
12.68
11.32
10.16
9.14
7.99
6.3
3.7
0.05
-4.52
-9.59
-14.61
-18.97
-22.3
-24.52
-25.93
-27.11
-28.76
-31.56
-35.87
-41.6
-48.05
-53.99
-57.9
-58.43
-54.76
-46.96
-35.94
-23.2
-10.37
1.21
10.69
17.76
22.48
25.11
25.95
25.38
23.86
21.89
19.98
18.55
17.86
17.93
18.59
19.53
20.39
20.89
20.89
20.43
19.66
18.77
17.8
16.69
15.2
13.1
10.24
6.68
2.66
-1.46
-5.32
-8.67
-11.46
-13.83
-16.14
-18.84
-22.39
-27.07
-32.77
-38.87
-44.28
-47.62
-47.6
-43.47
-35.26
-23.84
-10.68
2.55
14.44
24.08
31.12
35.66
38.03
38.64
37.91
36.29
34.25
32.26
30.68
29.68
29.21
29.0
28.75
28.21
27.36
26.39
25.6
25.25
25.38
25.67
25.53
24.27
21.43
16.98
11.41
5.59
0.39
-3.57
-6.22
-7.97
-9.57
-11.74
-15.02
-19.59
-25.2
-31.22
-36.69
-40.49
-41.6
-39.4
-33.91
-25.84
-16.44
-7.09
1.02
7.17
11.13
13.0
13.07
11.67
9.14
5.93
2.55
-0.41
-2.48
-3.44
-3.41
-2.76
-2.02
-1.58
-1.63
-2.07
-2.67
-3.19
-3.6
-4.07
-4.87
-6.31
-8.53
-11.48
-14.91
-18.52
-22.04
-25.31
-28.35
-31.31
-34.45
-38.03
-42.25
-47.05
-52.02
-56.28
-58.62
-57.86
-53.2
-44.63
-33.01
-19.83
-6.76
4.89
14.41
21.66
26.89
30.39
32.36
32.9
32.22
30.67
28.79
27.14
26.16
25.95
26.32
26.9
27.28
27.26
26.81
26.1
25.25
24.25
22.92
20.93
17.98
13.95
9.02
3.64
-1.6
-6.2
-9.95
-12.92
-15.51
-18.25
-21.7
-26.23
-31.92
-38.32
-44.48
-49.02
-50.43
-47.55
-39.99
-28.4
-14.33
0.2
13.31
23.79
31.28
36.09
38.91
40.36
40.83
40.6
39.88
39.06
38.57
38.85
40.05
42.0
44.23
46.22
47.6
48.36
48.76
49.18
49.89
50.96
52.09
52.92
53.15
52.56
51.05
48.47
44.6
39.12
31.84
22.77
12.17
0.44
-11.99
-24.75
-37.31
-48.83
-58.12
-63.78
-64.77
-60.76
-52.49
-41.55
-29.93
-19.38
-11.02
-5.2
-1.74
-0.23
-0.28
-1.63
-4.0
-7.0
-10.07
-12.59
-14.08
-14.38
-13.75
-12.77
-12.07
-12.12
-12.95
-14.3
-15.75
-17.05
-18.23
-19.62
-21.65
-24.58
-28.4
-32.76
-37.19
-41.25
-44.81
-48.05
-51.43
-55.47
-60.53
-66.53
-72.83
-78.27
-81.32
-80.6
-75.3
-65.48
-52.13
-36.86
-21.46
-7.38
4.51
13.95
21.06
26.09
29.23
30.6
30.42
29.05
27.09
25.23
24.08
23.93
24.66
25.82
26.86
27.38
27.24
26.62
25.81
25.05
24.32
23.38
21.81
19.23
15.48
10.73
5.42
0.14
-4.58
-8.43
-11.5
-14.21
-17.2
-21.14
-26.48
-33.24
-40.86
-48.28
-54.03
-56.61
-54.92
-48.64
-38.39
-25.57
-11.95
0.81
11.65
20.13
26.3
30.45
32.76
33.36
32.4
30.25
27.51
24.93
23.14
22.49
22.87
23.9
25.02
25.79
25.95
25.5
24.62
23.54
22.42
21.25
19.85
17.9
15.11
11.33
6.74
1.72
-3.18
-7.54
-11.21
-14.36
-17.37
-20.68
-24.68
-29.58
-35.34
-41.56
-47.44
-51.77
-53.22
-50.68
-43.7
-32.74
-19.09
-4.48
9.36
21.14
30.17
36.28
39.64
40.57
39.42
36.66
32.8
28.5
24.45
21.26
19.36
18.8
19.3
20.3
21.14
21.28
20.45
18.73
16.41
13.8
11.07
8.16
4.9
1.14
-3.07
-7.54
-11.97
-16.14
-19.99
-23.61
-27.17
-30.82
-34.69
-38.95
-43.85
-49.56
-55.92
-62.15
-66.88
-68.41
-65.39
-57.38
-45.06
-30.11
-14.62
-0.4
11.39
20.4
26.8
30.99
33.32
34.02
33.33
31.62
29.43
27.33
25.82
25.09
25.08
25.48
25.94
26.23
26.2
25.9
25.38
24.69
23.8
22.68
21.26
19.5
17.35
14.72
11.55
7.84
3.65
-0.88
-5.54
-10.15
-14.59
-18.77
-22.75
-26.7
-30.97
-35.97
-41.92
-48.55
-54.89
-59.38
-60.29
-56.38
-47.4
-34.29
-18.84
-3.12
11.13
22.81
31.49
37.21
40.2
40.72
39.14
35.98
31.92
27.75
24.22
21.88
20.98
21.38
22.62
24.09
25.21
25.61
25.22
24.22
22.86
21.34
19.67
17.65
14.99
11.45
6.98
1.82
-3.6
-8.76
-13.27
-17.03
-20.26
-23.44
-27.16
-31.92
-37.97
-45.12
-52.69
-59.54
-64.2
-65.25
-61.74
-53.54
-41.45
-27.05
-12.2
1.49
12.96
21.82
28.12
32.11
34.03
34.1
32.61
30.09
27.19
24.66
23.06
22.63
23.24
24.46
25.73
26.53
26.57
25.84
24.51
22.87
21.09
19.16
16.93
14.15
10.7
6.63
2.2
-2.27
-6.47
-10.21
-13.46
-16.31
-19.02
-21.94
-25.55
-30.25
-36.24
-43.2
-50.25
-55.96
-58.81
-57.56
-51.71
-41.76
-28.98
-15.1
-1.81
9.69
18.81
25.55
30.23
33.2
34.8
35.21
34.69
33.49
31.96
30.46
29.29
28.6
28.38
28.54
28.89
29.25
29.44
29.33
28.82
27.85
26.37
24.34
21.76
18.68
15.22
11.5
7.69
3.9
0.18
-3.46
-7.01
-10.47
-13.81
-17.08
-20.38
-23.96
-28.15
-33.24
-39.33
-46.09
-52.65
-57.65
-59.58
-57.24
-50.2
-39.12
-25.54
-11.45
1.36
11.75
19.41
24.66
28.04
29.98
30.66
30.14
28.6
26.4
24.16
22.49
21.81
22.16
23.26
24.61
25.73
26.31
26.21
25.49
24.28
22.71
20.86
18.75
16.36
13.6
10.38
6.68
2.59
-1.68
-5.84
-9.66
-13.08
-16.25
-19.49
-23.14
-27.53
-32.77
-38.8
-45.21
-51.19
-55.59
-57.09
-54.58
-47.62
-36.75
-23.37
-9.36
3.46
13.91
21.55
26.61
29.67
31.28
31.79
31.41
30.29
28.66
26.86
25.3
24.26
23.85
23.91
24.19
24.4
24.36
24.06
23.56
22.95
22.27
21.45
20.34
18.76
16.51
13.5
9.75
5.49
1.06
-3.16
-6.91
-10.14
-13.01
-15.8
-18.9
-22.61
-27.21
-32.8
-39.23
-45.88
-51.69
-55.3
-55.42
-51.3
-43.08
-31.78
-18.94
-6.25
5.01
14.12
20.91
25.58
28.37
29.55
29.36
28.12
26.25
24.26
22.6
21.6
21.35
21.73
22.47
23.24
23.7
23.61
22.85
21.44
19.54
17.34
15.05
12.68
10.11
7.09
3.44
-0.81
-5.43
-10.01
-14.2
-17.82
-20.95
-23.83
-26.77
-30.05
-33.89
-38.47
-43.78
-49.5
-54.91
-58.86
-60.05
-57.5
-50.87
-40.68
-28.2
-14.97
-2.46
8.34
17.0
23.44
27.76
30.1
30.62
29.6
27.5
24.97
22.72
21.36
21.17
22.08
23.68
25.46
26.93
27.76
27.85
27.27
26.2
24.77
23.08
21.05
18.52
15.36
11.51
7.15
2.59
-1.83
-5.92
-9.71
-13.43
-17.41
-21.93
-27.15
-33.1
-39.56
-46.0
-51.54
-54.98
-55.1
-51.13
-43.07
-31.89
-19.22
-6.88
3.75
12.0
17.95
22.07
24.85
26.54
27.14
26.65
25.26
23.47
21.9
21.06
21.15
21.91
22.82
23.39
23.31
22.62
21.61
20.61
19.81
19.17
18.44
17.21
15.13
12.04
8.06
3.55
-0.99
-5.23
-8.99
-12.39
-15.7
-19.24
-23.3
-28.09
-33.7
-39.96
-46.28
-51.64
-54.73
-54.35
-49.85
-41.45
-30.24
-17.78
-5.62
5.09
13.78
20.33
24.84
27.45
28.31
27.62
25.8
23.45
21.22
19.7
19.16
19.52
20.36
21.19
21.58
21.41
20.79
19.99
19.22
18.5
17.6
16.17
13.89
10.64
6.6
2.17
-2.13
-5.88
-8.89
-11.31
-13.55
-16.11
-19.49
-24.01
-29.67
-36.1
-42.46
-47.57
-50.12
-49.03
-43.81
-34.83
-23.19
-10.52
1.61
12.05
20.25
26.24
30.28
32.7
33.66
33.31
31.87
29.76
27.57
25.91
25.15
25.33
26.11
26.95
27.38
27.16
26.34
25.15
23.85
22.52
21.04
19.15
16.56
13.15
9.02
4.48
-0.02
-4.09
-7.53
-10.42
-13.06
-15.89
-19.37
-23.82
-29.29
-35.48
-41.72
-46.92
-49.83
-49.35
-44.83
-36.4
-25.0
-12.12
0.58
11.77
20.62
26.94
30.89
32.88
33.29
32.47
30.79
28.62
26.37
24.42
23.04
22.31
22.15
22.34
22.62
22.75
22.56
22.01
21.11
19.93
18.53
16.89
14.94
12.53
9.56
6.01
1.97
-2.33
-6.57
-10.45
-13.77
-16.46
-18.71
-20.83
-23.26
-26.44
-30.61
-35.75
-41.36
-46.55
-50.08
-50.74
-47.68
-40.77
-30.67
-18.69
-6.4
4.82
14.15
21.34
26.53
30.01
31.97
32.47
31.64
29.76
27.36
25.08
23.47
22.76
22.84
23.35
23.83
23.89
23.38
22.3
20.81
19.15
17.44
15.75
13.96
11.83
9.15
5.84
2.04
-1.92
-5.61
-8.82
-11.54
-14.05
-16.7
-19.8
-23.52
-27.86
-32.67
-37.66
-42.36
-46.06
-47.87
-46.96
-42.86
-35.77
-26.54
-16.46
-6.88
1.19
7.3
11.56
14.36
16.19
17.34
17.93
17.97
17.53
16.83
16.29
16.36
17.41
19.47
22.31
25.48
28.52
31.11
33.15
34.75
36.06
37.19
38.15
38.83
39.13
38.94
38.27
37.19
35.81
34.25
32.52
30.44
27.65
23.66
17.99
10.31
0.67
-10.57
-22.75
-34.9
-45.88
-54.48
-59.57
-60.44
-57.01
-49.98
-40.65
-30.53
-20.96
-12.71
-6.02
-0.73
3.46
6.68
8.94
10.13
10.24
9.42
8.04
6.57
5.42
4.84
4.82
5.19
5.67
6.08
6.33
6.42
6.29
5.87
5.05
3.77
2.15
0.35
-1.48
-3.32
-5.33
-7.7
-10.54
-13.78
-17.18
-20.44
-23.34
-25.82
-27.99
-30.1
-32.5
-35.55
-39.45
-44.05
-48.69
-52.24
-53.33
-50.89
-44.53
-34.79
-22.97
-10.77
0.32
9.23
15.49
19.06
20.18
19.31
17.12
14.55
12.75
12.79
15.39
20.58
27.72
35.67
43.26
49.67
54.77
59.04
63.31
68.39
74.67
81.93
89.39
95.83
99.92
100.52
96.99
89.36
78.46
65.77
53.1
42.16
34.06
28.97
26.19
24.42
22.44
19.76
16.87
15.1
15.98
20.36
27.81
36.68
44.63
49.52
50.09
46.2
38.56
28.14
15.82
2.18
-12.35
-27.27
-41.91
-55.51
-67.45
-77.36
-85.17
-91.08
-95.34
-98.21
-99.88
-100.52
-100.25
-99.24
-97.67
-95.81
-93.87
-92.06
-90.52
-89.3
-88.39
-87.66
-86.93
-85.93
-84.44
-82.34
-79.63
-76.5
-73.26
-70.3
-68.03
-66.8
-66.81
-67.92
-69.52
-70.39
-69.05
-64.13
-54.94
-41.85
-26.21
-9.94
5.07
17.57
27.07
33.69
37.9
40.07
40.49
39.36
36.97
33.78
30.4
27.45
25.42
24.46
24.45
24.98
25.49
25.5
24.76
23.24
21.14
18.7
16.03
13.09
9.66
5.55
0.65
-4.94
-11.01
-17.29
-23.54
-29.56
-35.2
-40.22
-44.42
-47.64
-49.96
-51.72
-53.5
-55.76
-58.57
-61.43
-63.29
-62.91
-59.28
-52.08
-41.74
-29.36
-16.3
-3.87
6.96
15.64
21.99
26.09
28.17
28.51
27.46
25.4
22.77
20.08
17.77
16.14
15.26
14.91
14.75
14.46
13.93
13.27
12.76
12.62
12.9
13.38
13.63
13.16
11.56
8.67
4.61
-0.18
-5.14
-9.71
-13.55
-16.63
-19.22
-21.83
-25.04
-29.37
-35.06
-41.93
-49.28
-55.85
-60.15
-60.8
-57.01
-48.9
-37.42
-24.06
-10.41
2.21
13.0
21.61
27.97
32.24
34.62
35.4
34.92
33.61
31.91
30.35
29.33
29.12
29.72
30.84
32.02
32.83
33.0
32.51
31.55
30.34
29.0
27.42
25.35
22.48
18.62
13.84
8.45
2.96
-2.23
-6.84
-10.92
-14.78
-18.87
-23.59
-29.2
-35.78
-43.13
-50.75
-57.8
-63.07
-65.29
-63.36
-56.84
-46.17
-32.57
-17.71
-3.19
9.83
20.81
29.65
36.44
41.2
43.96
44.81
44.07
42.33
40.33
38.76
38.07
38.41
39.63
41.31
42.87
43.7
43.33
41.58
38.63
34.97
31.16
27.6
24.37
21.23
17.81
13.84
9.29
4.37
-0.62
-5.47
-10.09
-14.52
-18.82
-23.06
-27.32
-31.85
-37.0
-43.18
-50.51
-58.57
-66.16
-71.57
-72.98
-69.15
-59.92
-46.29
-30.16
-13.68
1.37
13.94
23.75
30.96
35.88
38.75
39.76
39.16
37.45
35.28
33.38
32.3
32.28
33.18
34.62
36.09
37.19
37.66
37.48
36.8
35.8
34.58
33.09
31.11
28.38
24.71
20.14
14.98
9.66
4.67
0.3
-3.37
-6.52
-9.49
-12.74
-16.73
-21.84
-28.26
-35.78
-43.7
-50.81
-55.54
-56.44
-52.64
-44.19
-32.04
-17.85
-3.38
9.92
21.13
29.88
36.15
40.05
41.74
41.47
39.69
37.04
34.26
32.02
30.74
30.5
31.06
31.96
32.7
32.96
32.63
31.85
30.86
29.83
28.75
27.37
25.28
22.15
17.81
12.44
6.43
0.31
-5.45
-10.61
-15.15
-19.31
-23.5
-28.21
-33.84
-40.58
-48.13
-55.62
-61.68
-64.72
-63.41
-57.22
-46.53
-32.65
-17.39
-2.54
10.53
21.09
29.0
34.52
38.04
39.91
40.44
39.87
38.55
36.93
35.55
34.89
35.18
36.31
37.81
39.07
39.61
39.23
38.07
36.45
34.64
32.74
30.67
28.28
25.43
22.11
18.35
14.24
9.86
5.36
0.92
-3.23
-6.98
-10.37
-13.72
-17.51
-22.27
-28.3
-35.55
-43.39
-50.73
-56.12
-58.11
-55.67
-48.52
-37.32
-23.55
-9.09
4.31
15.42
23.77
29.52
33.16
35.19
35.97
35.67
34.47
32.73
30.96
29.82
29.81
31.16
33.64
36.72
39.65
41.75
42.44
41.35
38.26
33.16
26.22
17.85
8.65
-0.67
-9.42
-17.04
-23.18
-27.75
-30.91
-33.0
-34.54
-36.12
-38.33
-41.59
-46.1
-51.62
-57.45
-62.48
-65.38
-64.96
-60.61
-52.45
-41.34
-28.62
-15.71
-3.75
6.56
14.94
21.32
25.69
28.06
28.49
27.24
24.88
22.17
19.94
18.87
19.2
20.8
23.1
25.42
27.23
28.25
28.57
28.44
28.02
27.22
25.69
23.03
19.0
13.74
7.77
1.81
-3.52
-7.92
-11.51
-14.76
-18.28
-22.62
-28.14
-34.79
-42.13
-49.2
-54.7
-57.26
-55.8
-50.0
-40.36
-28.17
-15.06
-2.56
8.28
16.95
23.43
27.92
30.65
31.8
31.58
30.29
28.37
26.38
24.83
24.09
24.24
25.07
26.18
27.1
27.5
27.22
26.33
25.03
23.49
21.83
19.94
17.61
14.62
10.85
6.4
1.6
-3.08
-7.25
-10.74
-13.7
-16.53
-19.7
-23.65
-28.7
-34.93
-42.18
-49.83
-56.82
-61.71
-62.99
-59.61
-51.42
-39.32
-25.0
-10.46
2.6
13.19
21.04
26.34
29.47
30.73
30.39
28.79
26.45
24.09
22.37
21.72
22.13
23.23
24.44
25.25
25.42
24.98
24.2
23.28
22.31
21.16
19.64
17.54
14.8
11.51
7.85
4.08
0.43
-2.92
-5.91
-8.63
-11.35
-14.46
-18.46
-23.71
-30.22
-37.47
-44.37
-49.4
-51.07
-48.36
-41.15
-30.29
-17.35
-4.17
7.73
17.41
24.56
29.29
31.88
32.58
31.69
29.59
26.96
24.57
23.09
22.84
23.68
25.06
26.3
26.95
26.89
26.28
25.44
24.52
23.45
21.89
19.47
16.0
11.53
6.41
1.13
-3.87
-8.33
-12.22
-15.74
-19.24
-23.17
-27.94
-33.87
-40.91
-48.49
-55.39
-60.03
-60.87
-56.96
-48.38
-36.24
-22.32
-8.52
3.69
13.55
20.92
26.02
29.18
30.68
30.74
29.69
27.94
26.04
24.49
23.67
23.68
24.41
25.52
26.57
27.16
27.01
26.1
24.57
22.72
20.78
18.86
16.79
14.31
11.12
7.14
2.52
-2.34
-6.97
-10.97
-14.22
-16.87
-19.34
-22.1
-25.65
-30.29
-36.12
-42.87
-49.87
-56.03
-59.97
-60.38
-56.42
-48.12
-36.4
-22.9
-9.43
2.54
12.15
19.21
23.95
26.74
27.91
27.74
26.51
24.65
22.68
21.13
20.41
20.67
21.81
23.53
25.43
27.07
28.07
28.21
27.4
25.73
23.38
20.62
17.65
14.6
11.48
8.28
5.0
1.67
-1.6
-4.75
-7.73
-10.58
-13.39
-16.29
-19.46
-23.13
-27.58
-32.99
-39.33
-46.13
-52.43
-56.86
-58.02
-54.94
-47.45
-36.33
-23.08
-9.51
2.83
12.93
20.44
25.44
28.22
29.07
28.26
26.15
23.26
20.26
17.85
16.54
16.5
17.53
19.12
20.65
21.64
21.85
21.3
20.22
18.9
17.52
16.09
14.41
12.2
9.2
5.36
0.85
-3.93
-8.56
-12.72
-16.33
-19.57
-22.79
-26.38
-30.61
-35.67
-41.49
-47.73
-53.67
-58.25
-60.17
-58.33
-52.21
-42.16
-29.37
-15.53
-2.32
9.04
18.03
24.64
29.15
31.85
32.94
32.59
31.05
28.81
26.47
24.68
23.83
24.03
24.99
26.19
27.08
27.26
26.59
25.21
23.4
21.44
19.5
17.55
15.43
12.94
9.94
6.4
2.44
-1.71
-5.79
-9.58
-12.97
-16.06
-19.07
-22.34
-26.18
-30.79
-36.18
-42.05
-47.74
-52.32
-54.66
-53.76
-49.01
-40.52
-29.11
-16.17
-3.29
8.18
17.41
24.15
28.58
31.08
32.06
31.86
30.83
29.33
27.77
26.54
25.89
25.8
26.11
26.49
26.65
26.43
25.78
24.77
23.49
21.99
20.29
18.35
16.15
13.64
10.76
7.45
3.71
-0.37
-4.59
-8.72
-12.5
-15.86
-18.89
-21.84
-25.02
-28.8
-33.38
-38.8
-44.77
-50.58
-55.11
-57.09
-55.37
-49.43
-39.6
-27.06
-13.49
-0.58
10.43
18.95
24.97
28.76
30.62
30.8
29.52
27.14
24.29
21.72
20.17
20.02
21.18
23.12
25.08
26.41
26.79
26.26
25.12
23.72
22.24
20.6
18.56
15.86
12.33
8.07
3.31
-1.58
-6.28
-10.6
-14.48
-18.0
-21.31
-24.63
-28.28
-32.6
-37.78
-43.67
-49.6
-54.39
-56.57
-54.97
-49.06
-39.31
-27.0
-13.84
-1.41
9.2
17.56
23.7
27.9
30.37
31.23
30.55
28.54
25.61
22.47
19.88
18.42
18.34
19.43
21.15
22.86
24.03
24.36
23.85
22.67
21.0
18.99
16.67
14.01
10.96
7.48
3.66
-0.39
-4.47
-8.4
-12.04
-15.36
-18.44
-21.45
-24.63
-28.25
-32.58
-37.81
-43.88
-50.34
-56.23
-60.27
-61.12
-57.82
-50.24
-39.12
-25.92
-12.37
0.02
10.24
17.91
23.13
26.23
27.63
