-57.11
-46.77
-33.74
-19.86
-6.86
4.07
12.4
18.24
21.97
23.99
24.62
24.13
22.85
21.31
20.11
19.8
20.64
22.48
24.82
27.01
28.54
29.18
29.04
28.35
27.37
26.16
24.62
22.51
19.63
15.91
11.46
6.56
1.59
-3.07
-7.18
-10.7
-13.76
-16.68
-19.91
-23.88
-28.97
-35.29
-42.53
-49.89
-56.03
-59.44
-58.8
-53.49
-43.87
-31.19
-17.26
-3.86
7.72
16.84
23.47
27.87
30.35
31.16
30.5
28.69
26.24
23.81
22.11
21.68
22.66
24.79
27.45
29.88
31.42
31.8
31.08
29.61
27.76
25.72
23.47
20.83
17.64
13.89
9.77
5.58
1.55
-2.17
-5.59
-8.79
-11.9
-15.07
-18.54
-22.62
-27.65
-33.76
-40.73
-47.72
-53.43
-56.34
-55.22
-49.6
-40.02
-27.82
-14.79
-2.53
7.92
16.17
22.31
26.57
29.12
29.99
29.3
27.38
24.84
22.5
21.05
20.91
21.99
23.86
25.83
27.31
27.92
27.6
26.54
24.96
23.06
20.79
17.95
14.29
9.72
4.45
-1.01
-6.07
-10.26
-13.49
-16.13
-18.8
-22.18
-26.78
-32.73
-39.8
-47.3
-54.21
-59.32
-61.38
-59.47
-53.33
-43.48
-31.13
-17.91
-5.33
5.51
14.13
20.53
24.93
27.55
28.55
28.08
26.44
24.18
22.01
20.63
20.48
21.56
23.47
25.59
27.29
28.18
28.15
27.31
25.89
24.04
21.75
18.9
15.33
10.97
5.93
0.57
-4.66
-9.34
-13.29
-16.68
-19.95
-23.68
-28.42
-34.43
-41.57
-49.25
-56.45
-61.93
-64.45
-63.11
-57.63
-48.46
-36.76
-24.02
-11.73
-1.01
7.57
13.96
18.41
21.23
22.69
22.99
22.36
21.19
20.06
19.57
20.11
21.72
24.0
26.3
27.98
28.66
28.32
27.21
25.63
23.71
21.37
18.39
14.59
10.0
4.91
-0.21
-4.88
-8.78
-11.87
-14.42
-16.93
-20.02
-24.21
-29.76
-36.46
-43.54
-49.75
-53.59
-53.8
-49.7
-41.5
-30.21
-17.37
-4.58
6.85
16.16
23.05
27.61
30.05
30.64
29.69
27.65
25.09
22.63
20.82
19.92
19.83
20.21
20.61
20.77
20.65
20.38
20.11
19.72
18.88
17.12
14.08
9.72
4.38
-1.35
-6.87
-11.74
-15.86
-19.46
-23.03
-27.14
-32.33
-38.79
-46.24
-53.82
-60.15
-63.66
-63.04
-57.73
-48.11
-35.47
-21.6
-8.19
3.51
12.93
20.04
25.06
28.25
29.78
29.89
28.91
27.44
26.12
25.48
25.74
26.71
27.96
28.99
29.44
29.25
28.6
27.7
26.65
25.34
23.43
20.56
16.56
11.53
5.92
0.31
-4.77
-9.04
-12.58
-15.78
-19.21
-23.42
-28.78
-35.34
-42.65
-49.83
-55.62
-58.61
-57.65
-52.23
-42.67
-30.15
-16.32
-2.87
8.9
18.39
25.52
30.51
33.68
35.22
35.29
34.2
32.43
30.68
29.64
29.7
30.81
32.53
34.17
35.13
35.15
34.35
33.04
31.53
29.93
28.06
25.64
22.4
18.26
13.41
8.2
3.0
-1.83
-6.09
-9.72
-12.85
-15.79
-19.0
-23.06
-28.41
-35.11
-42.64
-49.87
-55.27
-57.32
-54.99
-48.12
-37.5
-24.62
-11.21
1.21
11.69
19.87
25.83
29.84
32.11
32.89
32.47
31.32
30.02
29.16
29.07
29.71
30.74
31.66
32.08
31.9
31.24
30.3
29.16
27.7
25.67
22.81
19.0
14.38
9.22
3.92
-1.18
-5.79
-9.75
-13.05
-15.88
-18.61
-21.76
-25.91
-31.41
-38.23
-45.7
-52.6
-57.34
-58.49
-55.16
-47.4
-36.19
-23.11
-9.9
2.08
12.02
19.73
25.33
29.06
31.1
31.61
30.86
29.34
27.7
26.6
26.51
27.47
29.11
30.85
32.06
32.41
31.88
30.7
29.14
27.39
25.44
23.18
20.53
17.41
13.91
10.13
6.2
2.24
-1.64
-5.37
-8.94
-12.39
-15.88
-19.67
-24.06
-29.27
-35.31
-41.84
-48.11
-52.99
-55.27
-53.99
-48.8
-40.09
-28.99
-16.99
-5.55
4.28
12.06
17.78
21.7
24.07
25.1
25.02
24.12
22.87
21.8
21.36
21.77
23.01
24.76
26.62
28.15
29.03
29.11
28.37
26.97
25.13
23.07
20.84
18.33
15.34
11.69
7.45
2.85
-1.7
-5.85
-9.44
-12.49
-15.23
-17.91
-20.8
-24.19
-28.3
-33.31
-39.12
-45.22
-50.63
-54.09
-54.37
-50.81
-43.47
-33.27
-21.63
-10.04
0.37
8.94
15.46
20.03
22.77
23.83
23.38
21.78
19.62
17.67
16.67
17.01
18.66
21.07
23.42
24.99
25.4
24.73
23.44
22.04
20.82
19.73
18.41
16.42
13.53
9.78
5.49
1.12
-2.94
-6.48
-9.54
-12.34
-15.23
-18.61
-22.88
-28.24
-34.54
-41.14
-46.92
-50.51
-50.74
-47.03
-39.64
-29.6
-18.35
-7.3
2.52
10.56
16.68
20.97
23.57
24.6
24.3
23.02
21.28
19.66
18.63
18.44
19.05
20.15
21.34
22.22
22.59
22.37
21.67
20.65
19.39
17.91
16.09
13.77
10.8
7.13
2.91
-1.54
-5.82
-9.57
-12.63
-15.14
-17.43
-20.01
-23.33
-27.68
-33.09
-39.21
-45.31
-50.32
-53.05
-52.51
-48.22
-40.44
-30.13
-18.66
-7.41
2.59
10.79
17.03
21.37
23.91
24.76
24.14
22.44
20.25
18.25
16.99
16.79
17.61
19.15
20.96
22.58
23.68
24.08
23.78
22.89
21.49
19.64
17.3
14.4
10.92
6.95
2.7
-1.53
-5.48
-8.96
-12.0
-14.71
-17.38
-20.33
-23.91
-28.39
-33.77
-39.74
-45.55
-50.07
-52.1
-50.7
-45.52
-37.02
-26.34
-14.96
-4.22
4.92
12.01
17.03
20.09
21.41
21.21
19.88
18.0
16.25
15.24
15.26
16.21
17.67
19.06
19.95
20.16
19.79
19.09
18.25
17.3
15.98
13.96
10.96
6.96
2.25
-2.63
-7.09
-10.78
-13.68
-16.1
-18.58
-21.66
-25.77
-31.06
-37.33
-43.93
-49.79
-53.61
-54.13
-50.58
-43.0
-32.3
-20.06
-7.94
2.7
11.17
17.4
21.71
24.52
26.06
26.44
25.7
24.06
21.97
20.04
18.88
18.81
19.72
21.13
22.42
23.12
23.11
22.6
21.9
21.19
20.33
18.93
16.59
13.13
8.76
3.95
-0.72
-4.84
-8.25
-11.06
-13.6
-16.27
-19.51
-23.68
-28.99
-35.33
-42.13
-48.31
-52.54
-53.55
-50.59
-43.74
-33.91
-22.58
-11.3
-1.24
6.98
13.22
17.63
20.38
21.61
21.49
20.32
18.63
17.01
16.01
15.87
16.48
17.45
18.33
18.79
18.81
18.59
18.37
18.24
18.0
17.24
15.46
12.42
8.23
3.35
-1.55
-5.89
-9.33
-11.87
-13.86
-15.85
-18.5
-22.32
-27.53
-33.87
-40.5
-46.2
-49.57
-49.52
-45.56
-38.0
-27.8
-16.3
-4.87
5.44
13.98
20.46
24.87
27.31
27.95
27.08
25.18
22.91
20.99
19.98
20.11
21.16
22.58
23.74
24.23
23.97
23.25
22.42
21.64
20.77
19.34
16.89
13.18
8.37
3.0
-2.29
-6.94
-10.73
-13.75
-16.37
-19.1
-22.45
-26.81
-32.37
-38.86
-45.52
-51.08
-54.13
-53.49
-48.67
-40.1
-28.96
-16.81
-5.13
5.09
13.4
19.78
24.41
27.43
28.96
29.14
28.23
26.67
25.03
23.87
23.61
24.31
25.74
27.39
28.7
29.25
28.91
27.85
26.36
24.75
23.07
21.18
18.75
15.55
11.51
6.9
2.17
-2.24
-6.04
-9.25
-12.15
-15.11
-18.47
-22.41
-27.01
-32.32
-38.3
-44.65
-50.7
-55.35
-57.27
-55.35
-49.18
-39.29
-27.07
-14.29
-2.51
7.29
14.83
20.31
24.05
26.31
27.23
26.95
25.8
24.34
23.21
22.92
23.67
25.26
27.19
28.87
29.87
30.03
29.45
28.38
27.05
25.57
23.84
21.64
18.73
15.03
10.65
5.93
1.31
-2.84
-6.32
-9.2
-11.78
-14.45
-17.63
-21.63
-26.64
-32.55
-38.87
-44.73
-48.87
-50.02
-47.31
-40.59
-30.66
-18.95
-7.16
3.38
11.91
18.32
22.84
25.71
27.06
26.97
25.66
23.62
21.59
20.26
20.1
21.08
22.76
24.52
25.81
26.33
26.0
24.95
23.36
21.34
18.98
16.29
13.27
9.88
6.1
1.96
-2.39
-6.73
-10.75
-14.27
-17.29
-20.08
-23.08
-26.76
-31.47
-37.25
-43.78
-50.29
-55.69
-58.77
-58.44
-54.15
-46.06
-35.09
-22.71
-10.47
0.38
9.16
15.75
20.38
23.38
25.02
25.52
25.12
24.14
23.03
22.21
21.99
22.47
23.52
24.85
26.12
27.01
27.26
26.76
25.57
23.84
21.78
19.58
17.33
14.98
12.38
9.43
6.08
2.44
-1.28
-4.88
-8.19
-11.2
-14.01
-16.82
-19.85
-23.34
-27.56
-32.65
-38.55
-44.8
-50.46
-54.26
-54.94
-51.67
-44.41
-33.96
-21.82
-9.65
1.16
9.75
15.91
19.85
21.95
22.59
22.07
20.74
18.98
17.3
16.2
16.01
16.79
18.3
20.08
21.69
22.79
23.29
23.28
22.86
22.1
20.96
19.33
17.12
14.33
11.05
7.43
3.66
-0.05
-3.58
-6.85
-9.91
-12.86
-15.93
-19.34
-23.38
-28.27
-34.13
-40.77
-47.63
-53.71
-57.75
-58.55
-55.36
-48.25
-38.12
-26.43
-14.75
-4.3
4.25
10.77
15.42
18.48
20.15
20.66
20.32
19.58
18.99
19.0
19.85
21.49
23.63
25.86
27.83
29.24
29.97
29.97
29.34
28.18
26.61
24.69
22.42
19.73
16.53
12.83
8.69
4.32
-0.03
-4.12
-7.81
-11.16
-14.34
-17.72
-21.68
-26.54
-32.39
-38.88
-45.21
-50.17
-52.45
-51.02
-45.47
-36.25
-24.54
-11.9
0.12
10.4
18.42
24.18
27.96
30.14
31.01
30.8
29.8
28.36
26.94
25.92
25.61
26.05
27.06
28.32
29.46
30.15
30.18
29.47
28.09
26.18
23.88
21.24
18.28
14.92
11.15
6.99
2.6
-1.85
-6.12
-10.06
-13.56
-16.64
-19.45
-22.3
-25.62
-29.85
-35.24
-41.63
-48.24
-53.81
-56.84
-56.11
-51.09
-42.17
-30.57
-17.95
-5.89
4.5
12.7
18.71
22.77
25.07
25.76
24.96
23.0
20.44
18.05
16.56
16.4
17.5
19.36
21.32
22.78
23.42
23.24
22.42
21.18
19.65
17.85
15.68
13.01
9.78
6.0
1.85
-2.36
-6.31
-9.79
-12.8
-15.57
-18.49
-21.99
-26.39
-31.83
-38.19
-44.97
-51.3
-55.97
-57.76
-55.73
-49.67
-40.17
-28.48
-16.11
-4.37
5.87
14.22
20.58
25.0
27.53
28.33
27.73
26.29
24.72
23.72
23.75
24.91
26.93
29.26
31.3
32.61
33.05
32.73
31.96
31.03
30.05
28.9
27.26
24.84
21.52
17.47
13.07
8.82
5.07
1.92
-0.83
-3.63
-7.01
-11.5
-17.46
-24.91
-33.48
-42.33
-50.2
-55.68
-57.58
-55.32
-49.13
-39.97
-29.24
-18.35
-8.34
0.21
7.1
12.34
15.95
18.01
18.69
18.3
17.34
16.36
15.8
15.93
16.74
18.01
19.38
20.47
21.05
21.06
20.64
19.94
19.1
18.01
16.4
13.91
10.34
5.82
0.74
-4.3
-8.78
-12.4
-15.21
-17.51
-19.8
-22.58
-26.27
-31.06
-36.8
-42.89
-48.29
-51.74
-52.08
-48.62
-41.38
-31.18
-19.38
-7.5
3.15
11.76
18.01
22.03
24.11
24.63
23.98
22.59
20.92
19.43
18.56
18.53
19.3
20.58
21.93
22.98
23.51
23.49
23.01
22.09
20.66
18.49
15.37
11.21
6.2
0.79
-4.5
-9.22
-13.22
-16.68
-20.05
-23.93
-28.75
-34.58
-40.97
-46.95
-51.29
-52.78
-50.68
-44.89
-36.06
-25.36
-14.11
-3.45
5.84
13.38
19.1
22.99
25.11
25.6
24.75
23.08
21.24
19.86
19.37
19.83
20.94
22.16
23.02
23.21
22.75
21.8
20.57
19.11
17.29
14.89
11.7
7.75
3.29
-1.26
-5.49
-9.18
-12.36
-15.37
-18.67
-22.72
-27.81
-33.93
-40.64
-47.04
-51.93
-54.02
-52.38
-46.68
-37.45
-25.89
-13.57
-1.96
7.95
15.73
21.43
25.3
27.6
28.53
28.28
27.17
25.65
24.24
23.37
23.25
23.78
24.65
25.43
25.8
25.57
24.79
23.57
22.07
20.38
18.45
16.11
13.19
9.61
5.51
1.21
-2.82
-6.27
-8.99
-11.18
-13.28
-15.84
-19.37
-24.19
-30.23
-36.98
-43.48
-48.42
-50.56
-49.0
-43.56
-34.83
-24.05
-12.69
-2.06
6.96
14.01
19.1
22.38
24.06
24.31
23.35
21.57
19.53
17.84
16.96
17.04
17.91
19.14
20.3
21.13
21.59
21.8
21.84
21.58
20.74
18.97
16.11
12.23
7.73
3.14
-1.04
-4.52
-7.31
-9.71
-12.17
-15.23
-19.31
-24.57
-30.69
-36.85
-41.81
-44.25
-43.2
-38.39
-30.38
-20.38
-9.84
0.03
8.47
15.22
20.3
23.79
25.78
26.37
25.77
24.41
22.89
21.74
21.33
21.68
22.53
23.42
23.98
24.02
23.61
22.91
22.07
21.03
19.49
17.08
13.56
9.01
3.87
-1.19
-5.55
-8.92
-11.41
-13.51
-15.83
-18.9
-22.99
-28.07
-33.74
-39.3
-43.82
-46.23
-45.65
-41.63
-34.36
-24.73
-14.06
-3.65
5.52
13.06
19.05
23.71
27.25
29.65
30.84
30.86
30.04
28.99
28.37
28.65
29.96
32.03
34.32
36.3
37.58
38.03
37.75
36.95
35.86
34.64
33.33
31.9
30.29
28.44
26.35
24.08
21.71
19.31
16.87
14.34
11.66
8.81
5.82
2.66
-0.69
-4.22
-7.77
-10.97
-13.29
-14.29
-13.9
-12.56
-11.02
-10.04
-10.01
-10.77
-11.81
-12.66
-13.26
-14.01
-15.44
-17.85
-21.02
-24.2
-26.48
-27.22
-26.31
-24.23
-21.72
-19.51
-18.01
-17.2
-16.76
-16.29
-15.51
-14.49
-13.55
-13.2
-13.84
-15.56
-18.08
-20.83
-23.27
-25.07
-26.27
-27.2
-28.32
-30.04
-32.61
-35.99
-39.9
-43.77
-46.76
-47.89
-46.26
-41.38
-33.41
-23.13
-11.84
-0.89
8.66
16.21
21.67
25.23
27.23
27.96
27.69
26.74
25.48
24.32
23.6
23.48
23.88
24.58
25.29
25.79
25.96
25.7
24.94
23.6
21.59
18.93
15.74
12.28
8.81
5.55
2.55
-0.28
-3.19
-6.47
-10.29
-14.62
-19.1
-23.06
-25.59
-25.89
-23.46
-18.39
-11.32
-3.31
4.53
11.31
16.49
19.96
21.81
22.23
21.39
19.5
16.82
13.75
10.75
8.31
6.74
6.11
6.25
6.83
7.48
7.92
8.03
7.81
7.34
6.66
5.73
4.43
2.56
-0.06
-3.6
-8.13
-13.55
-19.45
-25.09
-29.45
-31.51
-30.52
-26.37
-19.62
-11.37
-2.88
4.76
10.94
15.44
18.34
19.78
19.87
18.71
16.44
13.39
10.06
7.03
4.77
3.56
3.36
3.85
4.59
5.09
5.02
4.23
2.75
0.69
-1.86
-4.81
-8.17
-11.93
-16.09
-20.67
-25.71
-31.27
-37.28
-43.35
-48.72
-52.34
-53.16
-50.52
-44.43
-35.63
-25.36
-14.95
-5.48
2.43
8.62
13.23
16.52
18.72
19.97
20.33
19.88
18.76
17.24
15.66
14.37
13.56
13.21
13.13
12.99
12.44
11.27
9.42
6.98
4.12
1.08
-1.95
-4.93
-7.89
-10.97
-14.38
-18.3
-22.93
-28.35
-34.39
-40.49
-45.65
-48.61
-48.23
-43.97
-36.17
-25.99
-15.04
-4.81
3.76
10.43
15.42
19.06
21.52
22.79
22.82
21.76
20.04
18.25
16.97
16.44
16.54
16.85
16.87
16.32
15.16
13.63
12.02
10.45
8.78
6.65
3.69
-0.3
-5.23
-10.69
-16.1
-20.92
-24.8
-27.67
-29.75
-31.38
-32.99
-34.94
-37.49
-40.71
-44.34
-47.75
-49.95
-49.77
-46.25
-39.0
-28.41
-15.65
-2.28
10.17
20.66
28.76
34.58
38.52
41.02
42.37
42.81
42.52
41.81
41.02
40.52
40.53
41.05
41.87
42.7
43.2
43.14
42.46
41.24
39.63
37.77
35.77
33.6
31.21
28.52
25.49
22.11
18.45
14.63
10.8
7.09
3.61
0.36
-2.71
-5.79
-9.12
-12.96
-17.53
-22.88
-28.82
-34.76
-39.75
-42.65
-42.41
-38.48
-31.06
-21.1
-10.06
0.58
9.65
16.61
21.46
24.53
26.23
26.94
26.93
26.44
25.71
24.98
24.5
24.46
24.91
25.78
26.88
27.94
28.69
28.89
28.43
27.31
25.64
23.58
21.22
18.65
15.88
12.9
9.79
6.6
3.48
0.51
-2.29
-4.94
-7.51
-10.05
-12.59
-15.1
-17.66
-20.46
-23.81
-27.99
-33.02
-38.47
-43.38
-46.47
-46.54
-42.94
-35.82
-26.09
-15.15
-4.47
4.86
12.14
17.18
20.06
21.05
20.55
19.04
17.08
15.23
13.92
13.41
13.76
14.8
16.24
17.74
18.97
19.72
19.88
19.45
18.54
17.25
15.66
13.78
11.57
8.98
6.02
2.8
-0.51
-3.69
-6.59
-9.18
-11.49
-13.61
-15.63
-17.63
-19.74
-22.16
-25.17
-28.92
-33.32
-37.81
-41.48
-43.26
-42.28
-38.18
-31.28
-22.42
-12.78
-3.46
4.71
11.27
16.04
19.05
20.43
20.37
19.2
17.35
15.37
13.73
12.83
12.81
13.6
14.92
16.41
17.68
18.43
18.5
17.87
16.71
15.19
13.51
11.73
9.83
7.75
5.43
2.89
0.21
-2.51
-5.14
-7.6
-9.86
-11.88
-13.7
-15.4
-17.14
-19.17
-21.8
-25.29
-29.68
-34.62
-39.31
-42.64
-43.53
-41.28
-35.84
-27.9
-18.6
-9.18
-0.7
6.2
11.27
14.54
16.17
16.38
15.47
13.8
11.81
9.94
8.6
8.05
8.36
9.39
10.85
12.4
13.7
14.5
14.7
14.27
13.32
11.97
10.4
8.73
7.02
5.2
3.2
0.95
-1.56
-4.21
-6.84
-9.27
-11.45
-13.4
-15.23
-17.1
-19.16
-21.6
-24.56
-28.12
-32.09
-35.96
-38.86
-39.78
-37.95
-33.11
-25.71
-16.79
-7.65
0.57
7.13
11.78
14.61
15.83
15.69
14.41
12.26
9.64
7.07
5.1
4.14
4.29
5.34
6.82
8.17
8.97
9.09
8.64
7.92
7.13
6.35
5.43
4.14
2.31
-0.08
-2.85
-5.71
-8.39
-10.7
-12.63
-14.31
-15.96
-17.9
-20.4
-23.69
-27.83
-32.6
-37.44
-41.46
-43.65
