26.42
25.78
24.59
23.41
22.75
22.89
23.84
25.35
27.03
28.47
29.34
29.44
28.72
27.29
25.37
23.21
20.94
18.58
15.99
13.0
9.52
5.63
1.55
-2.46
-6.15
-9.44
-12.41
-15.29
-18.42
-22.14
-26.75
-32.31
-38.57
-44.85
-50.08
-53.03
-52.64
-48.39
-40.53
-30.02
-18.35
-7.01
2.82
10.52
16.01
19.6
21.72
22.77
23.04
22.72
22.01
21.19
20.6
20.59
21.39
22.95
25.0
27.04
28.58
29.26
28.95
27.79
26.07
24.05
21.95
19.8
17.54
15.07
12.32
9.28
6.02
2.64
-0.71
-3.93
-6.98
-9.87
-12.76
-15.85
-19.45
-23.84
-29.11
-35.01
-40.86
-45.56
-47.89
-46.88
-42.15
-34.11
-23.87
-12.86
-2.44
6.46
13.44
18.55
22.05
24.19
25.12
24.92
23.77
22.04
20.24
18.93
18.52
19.1
20.42
22.01
23.36
24.14
24.17
23.49
22.2
20.45
18.37
16.03
13.54
10.92
8.15
5.19
1.99
-1.43
-4.96
-8.38
-11.54
-14.35
-16.9
-19.41
-22.22
-25.68
-30.03
-35.26
-40.98
-46.35
-50.21
-51.41
-49.15
-43.31
-34.54
-24.01
-13.09
-2.94
5.7
12.55
17.64
21.13
23.25
24.18
24.2
23.63
22.82
22.07
21.62
21.55
21.85
22.41
23.05
23.61
23.92
23.84
23.28
22.24
20.8
19.12
17.34
15.51
13.54
11.23
8.44
5.14
1.53
-2.07
-5.32
-8.0
-10.16
-12.03
-13.99
-16.4
-19.55
-23.6
-28.54
-34.08
-39.61
-44.17
-46.61
-45.96
-41.73
-34.25
-24.51
-13.96
-4.02
4.34
10.7
15.2
18.23
20.18
21.3
21.69
21.44
20.72
19.82
19.12
18.98
19.49
20.59
22.0
23.39
24.51
25.21
25.46
25.24
24.52
23.23
21.33
18.89
16.11
13.27
10.6
8.22
6.05
3.89
1.49
-1.28
-4.39
-7.69
-10.91
-13.87
-16.49
-18.94
-21.51
-24.63
-28.66
-33.72
-39.59
-45.57
-50.52
-53.14
-52.37
-47.77
-39.72
-29.38
-18.28
-7.87
0.88
7.6
12.38
15.58
17.5
18.38
18.36
17.68
16.64
15.66
15.13
15.33
16.3
17.87
19.67
21.24
22.2
22.37
21.79
20.7
19.34
17.85
16.2
14.2
11.61
8.32
4.45
0.34
-3.55
-6.84
-9.44
-11.52
-13.53
-15.95
-19.14
-23.27
-28.25
-33.78
-39.41
-44.45
-48.01
-49.16
-47.1
-41.58
-33.05
-22.66
-11.88
-2.08
5.88
11.76
15.77
18.28
19.58
19.82
19.12
17.72
16.02
14.5
13.54
13.33
13.74
14.48
15.18
15.54
15.39
14.7
13.56
12.13
10.53
8.87
7.14
5.33
3.36
1.23
-1.0
-3.18
-5.17
-6.89
-8.41
-9.86
-11.47
-13.4
-15.81
-18.84
-22.55
-26.92
-31.66
-36.14
-39.37
-40.32
-38.2
-32.86
-24.85
-15.3
-5.45
3.63
11.35
17.49
22.11
25.3
27.13
27.72
27.28
26.17
24.89
23.91
23.59
24.06
25.27
26.89
28.54
29.78
30.31
29.98
28.82
27.0
24.67
21.96
18.87
15.33
11.31
6.86
2.19
-2.4
-6.59
-10.17
-13.11
-15.61
-17.99
-20.54
-23.53
-27.05
-31.13
-35.66
-40.37
-44.67
-47.73
-48.51
-46.2
-40.52
-31.95
-21.64
-11.07
-1.57
6.05
11.52
15.02
16.88
17.41
16.91
15.67
14.1
12.68
11.79
11.67
12.32
13.46
14.73
15.73
16.24
16.24
15.94
15.51
15.05
14.4
13.18
11.04
7.81
3.66
-0.93
-5.34
-9.07
-11.93
-14.05
-15.81
-17.68
-20.11
-23.44
-27.78
-32.93
-38.24
-42.72
-45.21
-44.72
-40.86
-33.93
-24.89
-15.06
-5.62
2.58
9.22
14.33
18.02
20.39
21.42
21.15
19.82
17.91
16.14
15.12
15.25
16.41
18.08
19.54
20.23
19.92
18.84
17.44
16.09
14.94
13.79
12.29
10.15
7.27
3.82
0.11
-3.55
-6.95
-10.0
-12.72
-15.2
-17.62
-20.25
-23.43
-27.46
-32.38
-37.79
-42.81
-46.25
-46.94
-44.17
-37.99
-29.2
-19.09
-8.99
0.04
7.48
13.19
17.31
20.0
21.41
21.64
20.91
19.56
18.03
16.84
16.36
16.75
17.88
19.35
20.68
21.45
21.5
20.91
19.95
18.87
17.8
16.66
15.17
13.04
10.12
6.51
2.51
-1.44
-4.92
-7.72
-9.9
-11.78
-13.78
-16.32
-19.67
-23.87
-28.73
-33.81
-38.46
-41.81
-42.99
-41.31
-36.53
-28.98
-19.58
-9.52
-0.02
8.04
14.19
18.4
20.86
21.84
21.66
20.61
19.09
17.54
16.39
15.99
16.43
17.54
18.94
20.2
20.99
21.18
20.82
20.04
18.89
17.36
15.31
12.6
9.19
5.22
1.01
-3.03
-6.53
-9.31
-11.47
-13.37
-15.55
-18.46
-22.42
-27.4
-33.02
-38.5
-42.86
-45.03
-44.19
-40.02
-32.82
-23.54
-13.42
-3.72
4.67
11.31
16.19
19.5
21.46
22.23
21.97
20.93
19.48
18.11
17.28
17.25
17.96
19.08
20.16
20.81
20.88
20.45
19.73
18.92
18.0
16.82
15.13
12.76
9.72
6.18
2.44
-1.23
-4.61
-7.59
-10.16
-12.44
-14.66
-17.13
-20.19
-24.11
-28.94
-34.4
-39.81
-44.15
-46.29
-45.3
-40.82
-33.18
-23.39
-12.8
-2.69
6.02
12.93
18.03
21.52
23.56
24.28
23.8
22.38
20.45
18.56
17.22
16.77
17.19
18.22
19.4
20.31
20.66
20.4
19.68
18.7
17.61
16.38
14.81
12.64
9.68
6.0
1.9
-2.15
-5.73
-8.61
-10.86
-12.79
-14.8
-17.25
-20.38
-24.35
-29.11
-34.43
-39.72
-44.05
-46.32
-45.54
-41.24
-33.68
-23.86
-13.17
-3.01
5.56
12.05
16.44
18.99
20.05
19.97
19.08
17.76
16.4
15.37
14.9
15.01
15.48
15.98
16.22
16.07
15.63
15.11
14.7
14.37
13.86
12.77
10.72
7.64
3.73
-0.55
-4.64
-8.19
-11.12
-13.66
-16.21
-19.18
-22.88
-27.41
-32.51
-37.58
-41.65
-43.66
-42.71
-38.41
-31.07
-21.65
-11.48
-1.83
6.44
12.94
17.71
20.93
22.79
23.42
22.93
21.58
19.8
18.12
16.98
16.65
17.06
17.92
18.79
19.34
19.43
19.13
18.6
17.98
17.26
16.26
14.72
12.41
9.28
5.51
1.41
-2.64
-6.32
-9.47
-12.1
-14.39
-16.68
-19.41
-22.95
-27.48
-32.71
-37.79
-41.49
-42.54
-40.07
-33.96
-24.93
-14.25
-3.38
6.52
14.77
21.22
26.0
29.36
31.45
32.4
32.37
31.66
30.7
29.94
29.69
30.0
30.62
31.13
31.13
30.4
29.01
27.25
25.48
23.95
22.69
21.5
20.08
18.14
15.54
12.35
8.8
5.23
1.95
-0.82
-3.1
-5.09
-7.24
-10.07
-14.07
-19.49
-26.16
-33.4
-40.12
-45.04
-47.07
-45.58
-40.69
-33.16
-24.17
-14.99
-6.72
-0.03
4.81
7.81
9.15
9.05
7.79
5.76
3.45
1.44
0.23
0.08
0.92
2.4
4.03
5.4
6.3
6.8
7.06
7.21
7.18
6.72
5.49
3.28
0.06
-3.86
-8.01
-11.84
-15.0
-17.43
-19.39
-21.37
-23.92
-27.45
-32.03
-37.29
-42.43
-46.31
-47.72
-45.73
-39.98
-30.88
-19.48
-7.19
4.69
15.28
24.19
31.43
37.09
41.23
43.81
44.91
44.86
44.31
44.09
44.9
47.03
50.26
53.99
57.57
60.59
62.95
64.8
66.2
66.86
66.09
63.07
57.18
48.3
36.9
23.87
10.21
-3.21
-15.73
-26.94
-36.64
-44.89
-52.04
-58.81
-65.98
-74.1
-83.09
-92.03
-99.36
-103.32
-102.7
-97.26
-87.89
-76.27
-64.31
-53.51
-44.65
-37.86
-32.84
-29.26
-26.86
-25.47
-24.85
-24.61
-24.2
-23.06
-20.84
-17.53
-13.5
-9.34
-5.69
-2.92
-1.05
0.33
1.8
3.76
6.24
8.78
10.68
11.35
10.62
8.84
6.62
4.55
2.93
1.66
0.38
-1.31
-3.71
-7.01
-11.31
-16.56
-22.47
-28.42
-33.4
-36.27
-36.17
-32.81
-26.72
-19.03
-11.1
-4.11
1.36
5.26
7.93
9.77
11.02
11.72
11.8
11.28
10.37
9.44
8.95
9.23
10.34
12.1
14.15
16.19
17.96
19.41
20.49
21.15
21.3
20.81
19.62
17.78
15.48
12.91
10.17
7.24
3.85
-0.31
-5.44
-11.4
-17.58
-22.99
-26.49
-27.15
-24.62
-19.21
-11.79
-3.55
4.4
11.22
16.44
19.95
21.86
22.45
21.99
20.75
18.96
16.83
14.58
12.47
10.83
9.9
9.83
10.53
11.76
13.14
14.29
14.95
14.95
14.27
12.91
10.95
8.46
5.53
2.24
-1.34
-5.19
-9.22
-13.22
-16.72
-19.12
-19.78
-18.25
-14.51
-8.97
-2.34
4.57
11.1
16.79
21.35
24.52
26.1
26.0
24.35
21.6
18.43
15.56
13.5
12.43
12.18
12.39
12.71
12.91
12.91
12.75
12.45
11.97
11.15
9.76
7.62
4.59
0.7
-3.89
-8.9
-13.88
-18.26
-21.4
-22.72
-21.79
-18.59
-13.48
-7.16
-0.53
5.68
10.99
15.18
18.2
20.01
20.46
19.43
17.0
13.51
9.62
6.13
3.72
2.69
2.99
4.11
5.38
6.1
5.82
4.41
2.12
-0.59
-3.25
-5.61
-7.78
-10.11
-13.07
-16.97
-21.73
-26.83
-31.36
-34.31
-34.8
-32.37
-27.08
-19.51
-10.62
-1.45
7.07
14.31
20.0
24.05
26.5
27.46
27.04
25.48
23.17
20.64
18.43
16.98
16.42
16.56
16.96
17.1
16.61
15.42
13.7
11.7
9.64
7.58
5.39
2.87
-0.21
-4.05
-8.74
-14.24
-20.22
-25.99
-30.57
-32.85
-31.97
-27.63
-20.24
-10.85
-0.82
8.59
16.52
22.59
26.84
29.48
30.73
30.77
29.7
27.71
25.09
22.24
19.61
17.59
16.36
15.8
15.58
15.23
14.34
12.7
10.39
7.68
4.87
2.16
-0.47
-3.19
-6.2
-9.63
-13.51
-17.82
-22.49
-27.35
-31.99
-35.74
-37.69
-36.98
-33.1
-26.2
-17.05
-6.86
3.12
11.9
18.98
24.27
27.88
29.99
30.77
30.38
29.1
27.36
25.64
24.41
23.9
24.11
24.84
25.76
26.57
26.97
26.75
25.76
23.96
21.45
18.49
15.38
12.44
9.78
7.38
5.12
2.79
0.2
-2.86
-6.57
-11.01
-15.96
-20.79
-24.5
-25.94
-24.25
-19.23
-11.46
-2.09
7.46
16.02
22.9
27.83
30.89
32.3
32.3
31.14
29.15
26.77
24.47
22.68
21.62
21.29
21.46
21.78
21.98
21.89
21.54
21.04
20.43
19.64
18.49
16.79
14.46
11.62
8.52
5.46
2.7
0.35
-1.63
-3.4
-5.24
-7.48
-10.4
-14.1
-18.34
-22.5
-25.7
-26.99
-25.75
-21.84
-15.74
-8.35
-0.74
6.22
11.98
16.36
19.38
21.07
21.53
20.85
19.26
17.15
15.0
13.28
12.23
11.88
11.98
12.2
12.23
11.89
11.19
10.23
9.24
8.35
7.58
6.79
5.77
4.31
2.38
0.09
-2.33
-4.65
-6.74
-8.63
-10.41
-12.18
-14.02
-15.99
-18.14
-20.46
-22.78
-24.72
-25.69
-25.06
-22.39
-17.67
-11.36
-4.25
2.75
8.89
13.68
16.92
18.6
18.83
17.8
15.83
13.37
10.95
9.06
8.01
7.79
8.15
8.68
9.04
9.04
8.73
8.26
7.77
7.24
6.51
5.35
3.62
1.37
-1.18
-3.72
-5.99
-7.91
-9.54
-11.06
-12.71
-14.65
-17.0
-19.69
-22.51
-24.99
-26.5
-26.37
-24.16
-19.84
-13.88
-7.17
-0.68
4.79
8.84
11.45
12.8
13.11
12.54
11.21
9.31
7.17
5.15
3.61
2.75
2.56
2.85
3.31
3.69
3.84
3.77
3.56
3.32
3.05
2.63
1.84
0.47
-1.51
-3.91
-6.36
-8.46
-10.0
-11.04
-11.87
-12.89
-14.41
-16.51
-19.1
-21.91
-24.51
-26.41
-27.11
-26.13
-23.24
-18.6
-12.72
-6.42
-0.54
4.26
7.71
9.84
10.88
11.07
10.6
9.61
8.24
6.74
5.41
4.5
4.14
4.24
4.57
4.84
4.81
4.39
3.65
2.76
1.9
1.16
0.46
-0.4
-1.62
-3.34
-5.47
-7.75
-9.85
-11.54
-12.72
-13.55
-14.26
-15.16
-16.48
-18.38
-20.83
-23.58
-26.1
-27.64
-27.52
-25.31
-21.13
-15.56
-9.46
-3.7
1.16
4.88
7.44
8.92
9.36
8.81
7.47
5.64
3.83
2.45
1.76
1.73
2.1
2.55
2.82
2.82
2.64
2.44
2.31
2.23
2.01
1.46
0.38
-1.24
-3.3
-5.54
-7.71
-9.58
-11.06
-12.19
-13.11
-14.08
-15.33
-17.09
-19.39
-22.08
-24.74
-26.78
-27.57
-26.68
-23.95
-19.61
-14.19
-8.37
-2.82
1.88
5.39
7.52
8.32
7.99
6.84
5.3
3.72
2.42
1.55
1.15
1.13
1.33
1.59
1.77
1.79
1.66
1.39
1.01
0.44
-0.44
-1.75
-3.57
-5.82
-8.35
-10.88
-13.18
-15.13
-16.74
-18.21
-19.85
-21.96
-24.68
-27.82
-30.87
-33.01
-33.41
-31.54
-27.36
-21.39
-14.53
-7.72
-1.74
2.98
6.29
8.23
8.89
8.47
7.22
5.53
3.83
2.48
1.66
1.34
1.36
1.52
1.73
1.93
2.15
2.35
2.42
2.17
1.43
0.11
-1.75
-3.99
-6.4
-8.75
-10.9
-12.77
-14.42
-16.0
-17.78
-20.05
-22.99
-26.57
-30.37
-33.69
-35.63
-35.44
-32.71
-27.64
-20.89
-13.45
-6.29
-0.12
4.68
7.99
9.91
10.64
10.44
9.63
8.54
7.51
6.76
6.4
6.47
6.91
7.62
8.44
9.19
9.67
9.75
9.36
8.54
7.34
5.8
3.91
1.66
-0.86
-3.49
-6.02
-8.32
-10.48
-12.75
-15.5
-18.99
-23.16
-27.59
-31.48
-33.88
-33.99
-31.39
-26.23
-19.14
-11.09
-3.09
4.05
9.82
14.01
16.67
17.92
17.97
17.07
15.55
13.82
12.26
11.16
10.63
10.64
11.04
11.67
12.38
13.05
13.54
13.63
13.13
11.85
9.8
7.11
4.07
0.95
-2.04
-4.86
-7.6
-10.46
-13.75
-17.71
-22.41
-27.58
-32.48
-36.14
-37.5
-35.89
-31.22
-24.06
-15.46
-6.58
1.64
8.59
14.02
17.87
20.18
21.07
20.74
19.56
18.01
16.58
15.64
15.33
15.61
16.32
17.23
18.21
19.07
19.65
19.72
19.1
17.64
15.37
12.45
9.1
5.61
2.19
-0.98
-3.84
-6.47
-9.08
-12.06
-15.77
-20.33
-25.45
-30.33
-33.87
-34.93
-32.81
-27.42
-19.41
-9.91
-0.27
8.31
15.04
19.59
22.11
22.97
22.63
21.52
19.96
18.26
16.72
15.59
15.07
15.23
15.99
17.13
18.39
19.48
20.19
20.3
19.73
18.44
16.55
14.23
11.67
9.01
6.3
3.53
0.7
-2.21
-5.22
-8.45
-12.03
-16.07
-20.41
-24.5
-27.46
-28.31
-26.37
-21.54
-14.34
-5.82
2.86
10.69
17.06
21.72
24.68
26.1
26.23
25.41
24.08
22.66
21.55
20.97
20.97
21.42
22.11
22.78
23.22
23.25
22.81
21.85
20.4
18.48
16.11
13.29
10.08
6.55
2.84
-0.88
-4.52
-8.1
-11.78
-15.8
-20.3
-25.19
-29.97
-33.8
-35.64
-34.67
-30.54
-23.6
-14.81
-5.39
3.51
11.13
17.16
21.57
24.5
26.07
26.41
25.75
24.49
23.12
22.15
21.83
22.15
22.85
23.53
23.88
23.8
23.34
22.64
21.78
20.72
19.3
17.37
14.91
12.03
8.99
6.04
3.32
0.78
-1.75
-4.54
-7.83
-11.76
-16.29
-21.18
-25.96
-29.92
-32.21
-32.06
-29.03
-23.28
-15.58
-7.11
0.91
7.6
12.64
16.19
18.63
20.26
21.19
21.36
20.82
19.81
18.8
18.28
18.51
19.39
20.53
21.43
21.75
21.42
20.65
19.7
18.78
17.87
16.78
15.25
13.13
10.43
7.35
4.17
1.18
-1.45
-3.73
-5.79
-7.88
-10.26
-13.18
-16.7
-20.62
-24.42
-27.33
-28.54
-27.42
-23.83
-18.11
-11.03
-3.54
3.52
9.57
14.35
17.81
20.01
21.05
21.09
20.37
19.24
18.11
17.3
17.03
17.21
17.64
18.0
18.01
17.63
16.96
16.19
15.48
14.84
14.06
12.89
11.1
8.64
5.68
2.54
-0.42
-2.94
-4.96
-6.63
-8.27
-10.22
-12.83
-16.22
-20.3
-24.66
-28.61
-31.32
-32.02
-30.21
-25.87
-19.52
-12.09
-4.66
1.87
7.0
10.69
13.22
14.91
15.99
16.5
16.41
15.78
14.83
13.91
13.36
13.35
13.78
14.4
14.82
14.8
14.27
13.35
12.28
11.25
10.3
9.33
8.09
6.36
4.05
1.3
-1.59
-4.26
-6.43
-8.06
-9.27
-10.38
-11.69
-13.45
-15.81
-18.8
-22.3
-25.98
-29.32
-31.6
-32.08
-30.24
-26.02
-19.88
-12.71
-5.53
0.84
5.98
9.87
12.68
14.64
15.84
16.28
15.95
15.03
13.8
12.67
12.04
12.08
12.73
13.71
14.63
15.19
15.25
14.83
14.09
13.19
12.17
10.98
9.48
7.54
5.13
2.38
-0.49
-3.22
-5.59
-7.5
-8.97
-10.19
-11.45
-13.06
-15.31
-18.29
-21.87
-25.66
-29.02
-31.18
-31.51
-29.62
-25.57
-19.83
-13.18
-6.45
-0.32
4.79
8.74
11.58
13.42
14.38
14.53
14.01
13.01
11.84
10.82
10.25
10.25
10.74
11.47
12.14
12.48
12.38
11.89
11.13
10.22
9.19
7.99
6.51
4.67
2.48
0.0
-2.6
-5.14
-7.44
-9.39
-10.97
-12.31
-13.61
-15.15
-17.2
-19.97
-23.43
-27.37
-31.29
-34.49
-36.21
-35.86
-33.19
-28.43
-22.22
-15.46
-9.03
-3.55
0.69
3.71
5.69
6.78
7.1
6.74
5.83
4.63
3.51
2.84
2.88
3.72
5.26
7.21
9.22
10.95
12.14
12.68
12.6
12.01
11.07
9.88
8.54
7.04
5.42
3.72
1.97
0.18
-1.67
-3.61
-5.62
-7.6
-9.4
-10.94
-12.25
-13.52
-15.09
-17.27
-20.17
-23.61
-26.99
-29.52
-30.31
-28.81
-24.92
-19.1
-12.2
-5.16
1.21
6.46
10.48
13.35
15.24
16.22
16.38
15.79
14.69
13.42
12.37
11.87
12.04
12.72
13.57
14.17
14.23
13.76
12.93
12.05
11.29
10.62
9.84
8.68
7.0
4.79
2.22
-0.49
-3.16
-5.64
-7.87
-9.81
-11.49
-13.06
-14.75
-16.84
-19.54
-22.84
-26.4
-29.62
-31.75
-32.09
-30.19
-26.07
-20.2
-13.41
-6.64
-0.69
4.02
7.42
9.72
11.13
11.78
11.73
11.06
9.98
8.86
8.1
7.98
8.5
9.45
10.47
11.28
11.73
11.83
11.64
11.23
10.61
9.79
8.77
7.51
5.99
4.15
1.95
-0.58
-3.31
-6.02
-8.51
-10.6
-12.29
-13.76
-15.27
-17.13
-19.55
-22.63
-26.21
-29.91
-33.11
-35.08
-35.12
-32.79
-28.09
-21.54
-14.05
-6.58
0.02
5.32
9.19
11.74
13.15
13.6
13.27
12.43
11.42
10.63
10.37
10.8
11.83
13.24
14.73
16.0
16.83
17.09
16.8
16.01
14.87
13.49
11.96
10.24
8.29
6.03
3.45
0.67
-2.08
-4.56
-6.59
-8.21
-9.65
-11.31
-13.57
-16.63
-20.42
-24.51
-28.21
-30.79
-31.58
-30.24
-26.76
-21.51
-15.1
-8.28
-1.76
3.85
8.23
11.26
13.01
13.69
13.55
12.83
11.77
10.61
9.54
8.78
8.43
8.51
8.9
9.38
9.73
9.85
9.73
9.45
9.06
8.51
7.66
6.29
4.31
1.78
-1.06
-3.88
-6.4
-8.51
-10.26
-11.87
-13.6
-15.72
-18.44
-21.82
-25.75
-29.84
-33.44
-35.74
-35.99
-33.71
-28.96
-22.28
-14.55
-6.72
0.45
6.52
11.34
14.91
17.24
18.34
18.27
17.24
15.66
14.08
12.96
12.63
13.06
14.0
15.04
15.81
16.11
15.91
15.33
14.56
13.71
12.77
11.55
9.82
7.41
4.38
1.02
-2.2
-4.87
-6.82
-8.19
-9.4
-10.91
-13.06
-16.04
-19.78
-24.07
-28.49
-32.44
-35.16
-35.87
-34.02
-29.49
-22.73
-14.63
-6.28
1.35
7.61
12.25
15.29
16.91
17.33
16.78
15.6
14.19
13.0
12.43
12.65
13.51
14.66
15.67
16.25
16.33
16.08
15.72
15.35
14.88
14.05
12.59
10.37
7.5
4.32
1.22
-1.45
-3.63
-5.44
-7.23
-9.34
-12.02
-15.36
-19.27
-23.45
-27.42
-30.52
-32.01
-31.27
-27.97
-22.31
-14.95
-6.85
1.01
7.86
13.33
17.3
19.8
20.9
20.7
19.44
17.55
15.63
14.22
13.67
13.96
14.77
15.62
16.13
16.15
15.8
15.27
14.68
14.0
13.01
11.46
9.24
6.38
3.11
-0.24
-3.38
-6.12
-8.43
-10.46
-12.5
-14.88
-17.9
-21.68
-25.98
-30.25
-33.62
-35.2
-34.3
-30.7
-24.69
-17.03
-8.71
-0.72
6.19
11.61
15.44
17.79
18.88
18.98
18.33
17.23
16.02
15.01
14.48
14.53
15.1
15.93
16.73
17.25
17.36
17.06
16.44
15.59
14.52
13.18
11.48
9.31
6.65
3.62
0.39
-2.74
-5.51
-7.79
-9.58
-11.11
-12.74
-14.88
-17.86
-21.69
-25.97
-29.92
-32.51
-32.85
-30.43
-25.36
-18.32
-10.35
-2.5
4.42
10.0
14.15
16.98
18.62
19.18
18.78
17.63
16.12
14.73
13.92
13.95
14.75
15.96
17.07
17.67
17.62
17.05
16.2
15.32
14.45
13.41
11.96
9.9
7.22
4.11
0.91
-2.04
-4.48
-6.35
-7.79
-9.08
-10.58
-12.62
-15.43
-19.05
-23.28
-27.64
-31.43
-33.79
-33.95
-31.48
-26.48
-19.58
-11.78
-4.13
2.57
7.9
11.85
14.6
16.37
17.31
17.51
17.09
16.24
15.26
14.49
14.2
14.51
15.39
16.62
17.88
18.84
19.17
18.73
17.53
15.79
13.84
11.97
10.3
8.79
7.27
5.55
3.54
1.26
-1.17
-3.58
-5.85
-7.91
-9.78
-11.53
-13.37
-15.55
-18.34
-21.84
-25.88
-29.9
-33.06
-34.43
-33.35
-29.6
-23.57
-16.12
-8.31
-1.11
4.83
9.28
12.32
14.2
15.16
15.38
14.98
14.15
13.15
12.3
11.91
12.12
12.84
13.81
14.68
15.15
15.14
14.73
14.12
13.51
12.91
12.22
11.22
9.69
7.56
4.94
2.06
-0.76
-3.28
-5.39
-7.09
-8.5
-9.8
-11.19
-12.89
-15.09
-17.96
-21.51
-25.52
-29.43
-32.46
-33.72
-32.54
-28.68
-22.49
-14.81
-6.73
0.74
6.92
11.56
14.72
16.65
17.62
17.83
17.49
16.79
15.95
15.24
14.81
14.78
15.1
15.66
16.31
16.95
17.44
17.68
17.54
16.91
15.78
14.19
12.34
10.38
8.46
6.6
4.74
2.8
0.74
-1.39
-3.5
-5.54
-7.48
-9.35
-11.22
-13.14
-15.21
-17.53
-20.22
-23.34
-26.7
-29.85
-32.08
-32.6
-30.82
-26.57
-20.27
-12.77
-5.13
1.73
7.23
11.23
13.89
15.49
16.31
16.53
16.29
15.74
15.1
14.57
14.31
14.34
14.59
14.91
15.15
15.23
15.13
14.88
14.48
13.92
13.15
12.15
10.91
9.43
7.78
5.97
4.04
2.01
-0.09
-2.23
-4.32
-6.31
-8.09
-9.62
-10.89
-11.96
-13.02
-14.31
-16.15
-18.77
-22.14
-25.92
-29.37
-31.58
-31.67
-29.17
-24.2
-17.48
-10.06
-3.01
2.95
7.53
10.82
13.05
14.43
15.05
14.99
14.4
13.58
12.93
12.73
13.1
13.92
14.89
15.71
16.15
16.14
15.74
15.05
14.16
13.1
11.88
10.5
8.98
7.34
5.6
3.74
1.75
-0.37
-2.54
-4.65
-6.59
-8.25
-9.66
-10.92
-12.24
-13.89
-16.06
-18.93
-22.49
-26.48
-30.36
-33.31
-34.43
-33.02
-28.91
-22.57
-15.02
-7.45
-0.84
4.29
8.01
10.65
12.57
13.94
14.75
14.91
14.45
13.61
12.74
12.14
11.93
12.06
12.34
12.61
12.78
12.85
12.87
12.82
12.67
12.26
11.49
10.29
8.69
6.83
4.91
3.12
1.52
0.05
-1.44
-3.16
-5.18
-7.46
-9.86
-12.19
-14.38
-16.44
-18.54
-20.9
-23.74
-27.13
-30.89
-34.51
-37.24
-38.25
-36.93
-33.14
-27.26
-20.14
-12.77
-5.99
-0.32
4.1
7.34
9.6
11.04
11.84
12.14
12.11
11.92
11.72
11.64
11.77
12.18
12.85
