1.35
-1.75
-4.38
-6.49
-8.1
-9.36
-10.5
-11.84
-13.69
-16.32
-19.78
-23.87
-28.05
-31.58
-33.66
-33.71
-31.42
-26.91
-20.67
-13.44
-6.09
0.59
6.09
10.18
12.95
14.65
15.52
15.73
15.43
14.83
14.26
14.05
14.46
15.47
16.83
18.13
19.03
19.39
19.3
18.94
18.42
17.73
16.76
15.37
13.51
11.25
8.74
6.16
3.66
1.36
-0.7
-2.5
-4.06
-5.45
-6.79
-8.24
-9.98
-12.19
-14.96
-18.23
-21.71
-24.89
-27.04
-27.46
-25.65
-21.5
-15.45
-8.28
-0.95
5.71
11.15
15.17
17.79
19.18
19.55
19.1
18.14
16.98
15.99
15.41
15.32
15.63
16.1
16.47
16.57
16.32
15.74
14.9
13.85
12.59
11.06
9.15
6.84
4.21
1.46
-1.11
-3.24
-4.8
-5.83
-6.6
-7.45
-8.71
-10.65
-13.36
-16.76
-20.56
-24.27
-27.18
-28.61
-27.98
-25.11
-20.25
-14.06
-7.39
-1.06
4.36
8.62
11.7
13.75
14.89
15.24
14.88
13.99
12.84
11.76
11.07
10.99
11.49
12.38
13.3
13.91
13.98
13.48
12.58
11.46
10.24
8.94
7.44
5.61
3.43
0.98
-1.55
-3.93
-6.01
-7.73
-9.17
-10.45
-11.79
-13.43
-15.61
-18.48
-21.96
-25.67
-28.92
-30.84
-30.71
-28.17
-23.4
-17.09
-10.16
-3.52
2.21
6.73
10.08
12.37
13.76
14.36
14.26
13.64
12.77
11.95
11.45
11.41
11.82
12.48
13.18
13.72
13.98
13.94
13.63
13.09
12.37
11.43
10.25
8.73
6.87
4.7
2.38
0.09
-1.96
-3.67
-5.1
-6.44
-7.93
-9.82
-12.2
-15.03
-18.14
-21.18
-23.7
-25.18
-25.17
-23.38
-19.8
-14.71
-8.72
-2.53
3.18
7.89
11.34
13.49
14.44
14.42
13.67
12.51
11.29
10.36
9.96
10.18
10.87
11.72
12.37
12.58
12.32
11.74
11.04
10.35
9.61
8.62
7.17
5.18
2.78
0.27
-2.03
-3.9
-5.33
-6.47
-7.63
-9.12
-11.18
-13.95
-17.34
-21.07
-24.55
-27.1
-28.04
-26.93
-23.78
-19.03
-13.37
-7.6
-2.28
2.24
5.87
8.62
10.54
11.69
12.14
12.05
11.61
11.07
10.67
10.58
10.85
11.44
12.17
12.83
13.21
13.22
12.93
12.45
11.92
11.37
10.67
9.61
7.99
5.78
3.14
0.42
-2.05
-4.03
-5.52
-6.68
-7.8
-9.16
-10.93
-13.2
-15.97
-19.17
-22.61
-25.91
-28.51
-29.71
-28.95
-25.98
-21.06
-14.92
-8.49
-2.65
2.07
5.58
8.1
9.93
11.25
12.08
12.36
12.07
11.36
10.58
10.08
10.14
10.82
11.95
13.2
14.23
14.8
14.83
14.41
13.74
12.99
12.23
11.38
10.23
8.61
6.46
3.95
1.39
-0.89
-2.64
-3.86
-4.7
-5.45
-6.39
-7.75
-9.7
-12.31
-15.57
-19.25
-22.96
-26.0
-27.62
-27.18
-24.41
-19.56
-13.32
-6.64
-0.42
4.7
8.49
11.02
12.55
13.33
13.57
13.43
13.06
12.63
12.31
12.25
12.5
13.0
13.6
14.11
14.31
14.09
13.45
12.49
11.37
10.22
9.1
7.9
6.44
4.59
2.34
-0.14
-2.55
-4.6
-6.14
-7.22
-8.09
-9.08
-10.45
-12.34
-14.77
-17.68
-20.98
-24.5
-27.9
-30.63
-32.0
-31.38
-28.49
-23.53
-17.21
-10.46
-4.21
0.98
4.95
7.87
10.01
11.63
12.79
13.5
13.77
13.77
13.71
13.88
14.42
15.31
16.36
17.28
17.85
18.01
17.8
17.35
16.74
15.94
14.89
13.55
11.94
10.2
8.46
6.88
5.47
4.13
2.73
1.17
-0.57
-2.4
-4.17
-5.79
-7.25
-8.69
-10.27
-12.19
-14.63
-17.69
-21.3
-25.17
-28.74
-31.23
-31.84
-30.06
-25.91
-19.97
-13.19
-6.61
-0.96
3.46
6.7
9.03
10.73
11.98
12.86
13.41
13.73
13.93
14.19
14.62
15.23
15.93
16.57
17.0
17.19
17.21
17.18
17.19
17.22
17.12
16.68
15.74
14.31
12.55
10.7
9.01
7.57
6.37
5.3
4.23
3.05
1.68
0.12
-1.61
-3.42
-5.27
-7.1
-8.96
-10.97
-13.31
-16.11
-19.35
-22.75
-25.83
-27.97
-28.58
-27.27
-24.0
-19.12
-13.23
-7.09
-1.42
3.28
6.77
9.09
10.44
11.14
11.45
11.61
11.75
11.97
12.33
12.85
13.49
14.16
14.7
14.98
14.94
14.65
14.26
13.93
13.69
13.44
12.98
12.1
10.74
9.0
7.13
5.36
3.87
2.68
1.66
0.65
-0.48
-1.73
-3.06
-4.4
-5.73
-7.06
-8.41
-9.85
-11.41
-13.19
-15.31
-17.89
-20.89
-24.05
-26.84
-28.6
-28.72
-26.9
-23.25
-18.25
-12.63
-7.1
-2.23
1.68
4.59
6.63
8.02
8.95
9.57
9.96
10.18
10.32
10.49
10.81
11.35
12.07
12.86
13.61
14.22
14.67
14.93
15.04
14.97
14.65
13.99
12.94
11.53
9.87
8.11
6.43
4.99
3.83
2.96
2.26
1.58
0.72
-0.49
-2.11
-4.09
-6.26
-8.41
-10.35
-12.03
-13.54
-15.08
-16.89
-19.11
-21.8
-24.84
-27.96
-30.7
-32.5
-32.81
-31.23
-27.73
-22.69
-16.78
-10.82
-5.47
-1.1
2.23
4.65
6.34
7.45
8.08
8.31
8.28
8.17
8.2
8.51
9.16
10.12
11.26
12.4
13.4
14.12
14.49
14.49
14.17
13.54
12.67
11.63
10.45
9.22
7.94
6.66
5.42
4.26
3.22
2.27
1.29
0.12
-1.39
-3.24
-5.23
-7.09
-8.53
-9.52
-10.25
-11.14
-12.6
-14.92
-18.06
-21.69
-25.23
-27.96
-29.22
-28.53
-25.8
-21.26
-15.54
-9.41
-3.65
1.16
4.74
7.1
8.44
9.04
9.2
9.15
9.01
8.89
8.84
8.88
9.04
9.35
9.79
10.36
11.02
11.78
12.59
13.38
14.0
14.27
14.0
13.06
11.47
9.38
7.08
4.87
3.03
1.73
0.95
0.49
0.04
-0.71
-1.96
-3.68
-5.65
-7.55
-9.16
-10.43
-11.56
-12.88
-14.74
-17.38
-20.74
-24.52
-28.09
-30.73
-31.71
-30.57
-27.28
-22.27
-16.4
-10.58
-5.61
-1.9
0.54
1.98
2.77
3.18
3.32
3.2
2.85
2.36
1.95
1.91
2.43
3.52
4.98
6.45
7.63
8.32
8.58
8.58
8.53
8.54
8.54
8.37
7.86
6.99
5.85
4.67
3.66
2.94
2.47
2.13
1.71
1.08
0.15
-1.04
-2.41
-3.84
-5.2
-6.48
-7.73
-9.11
-10.86
-13.11
-15.95
-19.22
-22.61
-25.61
-27.64
-28.16
-26.79
-23.48
-18.51
-12.5
-6.23
-0.45
4.3
7.82
10.18
11.6
12.31
12.51
12.34
11.95
11.5
11.15
11.02
11.12
11.42
11.82
12.22
12.54
12.75
12.86
12.84
12.67
12.22
11.38
10.07
8.33
6.31
4.27
2.42
0.85
-0.47
-1.66
-2.83
-4.06
-5.38
-6.82
-8.42
-10.22
-12.18
-14.21
-16.23
-18.23
-20.33
-22.68
-25.33
-28.05
-30.31
-31.42
-30.79
-28.22
-24.02
-18.92
-13.77
-9.22
-5.56
-2.72
-0.44
1.52
3.24
4.67
5.74
6.46
6.98
7.52
8.22
9.07
9.94
10.65
11.06
11.15
10.96
10.6
10.16
9.69
9.24
8.83
8.46
8.1
7.62
6.84
5.58
3.75
1.41
-1.23
-3.89
-6.25
-8.17
-9.65
-10.86
-12.06
-13.59
-15.69
-18.5
-21.88
-25.45
-28.55
-30.46
-30.51
-28.33
-23.97
-17.91
-10.9
-3.82
2.57
7.76
11.56
14.02
15.39
15.99
16.11
15.99
15.78
15.57
15.43
15.43
15.63
16.05
16.66
17.37
18.05
18.61
18.97
19.08
18.89
18.34
17.38
15.99
14.2
12.1
9.8
7.39
4.91
2.45
0.08
-2.03
-3.74
-4.97
-5.87
-6.71
-7.92
-9.89
-12.82
-16.62
-20.92
-25.06
-28.25
-29.75
-29.02
-25.93
-20.74
-14.11
-6.89
0.03
5.94
10.41
13.31
14.78
15.1
14.65
13.8
12.89
12.18
11.79
11.78
12.11
12.68
13.4
14.11
14.65
14.87
14.67
14.03
13.01
11.62
9.9
7.77
5.23
2.37
-0.59
-3.39
-5.81
-7.85
-9.71
-11.74
-14.3
-17.52
-21.27
-25.08
-28.32
-30.28
-30.37
-28.28
-24.07
-18.2
-11.39
-4.45
1.91
7.22
11.25
14.0
15.6
16.25
16.18
15.68
15.02
14.42
14.03
13.94
14.16
14.65
15.3
15.95
16.34
16.25
15.53
14.11
12.08
9.65
7.06
4.53
2.18
0.05
-1.93
-3.95
-6.25
-9.05
-12.44
-16.25
-20.1
-23.34
-25.25
-25.29
-23.17
-19.02
-13.33
-6.82
-0.32
5.48
10.09
13.35
15.31
16.22
16.31
15.83
14.93
13.77
12.55
11.51
10.9
10.85
11.36
12.19
13.0
13.41
13.17
12.26
10.79
8.97
6.98
4.92
2.8
0.56
-1.87
-4.59
-7.63
-10.96
-14.42
-17.64
-20.04
-20.97
-19.86
-16.45
-10.92
-3.97
3.49
10.55
16.63
21.58
25.64
29.16
32.4
35.37
37.91
39.86
41.24
42.34
43.65
45.68
48.67
52.58
57.07
61.71
66.08
69.96
73.35
76.41
79.42
82.62
86.17
90.02
93.93
97.58
100.47
102.12
102.02
99.84
95.61
89.78
83.27
77.11
71.98
67.77
63.56
57.92
49.7
38.62
25.57
12.24
0.42
-8.74
-15.08
-19.18
-21.91
-23.85
-25.11
-25.53
-25.04
-23.91
-22.72
-22.01
-22.04
-22.65
-23.45
-24.12
-24.71
-25.57
-27.19
-29.87
-33.58
-37.95
-42.51
-46.86
-50.74
-54.09
-56.98
-59.58
-62.02
-64.22
-65.71
-65.65
-62.94
-56.71
-46.71
-33.49
-18.27
-2.5
12.57
26.16
37.91
47.54
54.64
58.72
59.5
57.29
53.13
48.68
45.64
45.31
48.22
54.21
62.67
72.83
84.01
95.61
107.24
118.71
130.19
141.97
154.19
166.47
177.67
186.09
189.94
188.02
180.07
166.76
149.29
128.83
106.11
81.27
54.14
24.54
-7.17
-39.84
-71.56
-100.11
-123.55
-140.92
-152.42
-159.18
-162.72
-164.3
-164.61
-163.85
-162.03
-159.31
-156.06
-152.66
-149.26
-145.64
-141.36
-136.07
-129.77
-122.92
-116.19
-110.25
-105.4
-101.54
-98.3
-95.26
-92.2
-89.17
-86.38
-84.02
-82.17
-80.68
-79.35
-77.97
-76.44
-74.77
-73.11
-71.66
-70.76
-70.72
-71.78
-73.81
-76.24
-78.04
-78.03
-75.28
-69.54
-61.3
-51.67
-41.91
-33.04
-25.56
-19.54
-14.8
-11.15
-8.54
-6.97
-6.32
-6.26
-6.3
-5.88
-4.64
-2.52
0.21
3.05
5.46
7.07
7.76
7.68
7.05
6.16
5.15
4.04
2.78
1.25
-0.64
-2.91
-5.43
-8.03
-10.41
-12.34
-13.67
-14.45
-14.93
-15.51
-16.6
-18.56
-21.53
-25.31
-29.39
-32.94
-34.98
-34.68
-31.57
-25.76
-17.91
-9.01
-0.12
7.9
14.53
19.5
22.7
24.1
23.79
22.07
19.51
16.82
14.77
13.89
14.41
16.17
18.73
21.5
23.9
25.47
26.0
25.51
24.24
22.5
20.61
18.71
16.78
14.65
12.15
9.21
5.91
2.44
-0.98
-4.15
-7.06
-9.83
-12.73
-16.14
-20.41
-25.65
-31.67
-37.87
-43.31
-47.02
-48.22
-46.66
-42.62
-36.88
-30.42
-24.12
-18.65
-14.38
-11.47
-10.01
-10.03
-11.47
-14.07
-17.32
-20.48
-22.76
-23.5
-22.36
-19.33
-14.72
-8.99
-2.73
3.51
9.21
14.08
18.12
21.7
25.48
29.99
35.5
41.75
48.24
54.5
60.42
66.27
72.19
77.84
82.09
83.46
80.7
73.54
62.8
50.07
36.92
24.31
12.42
1.12
-9.37
-18.16
-23.76
-24.81
-20.83
-12.64
-2.13
8.44
17.33
23.85
28.33
31.53
34.03
35.71
35.87
33.81
29.36
23.25
16.79
11.34
7.63
5.51
4.12
2.47
-0.11
-3.73
-8.13
-12.97
-18.03
-23.32
-28.97
-35.03
-41.43
-47.98
-54.37
-60.26
-65.32
-69.26
-71.92
-73.36
-73.88
-73.95
-74.02
-74.43
-75.31
-76.63
-78.28
-80.11
-81.82
-82.88
-82.46
-79.68
-73.82
-64.72
-52.84
-39.24
-25.21
-11.8
0.25
10.67
19.41
26.4
31.54
34.72
35.98
35.63
34.12
31.93
29.48
27.1
25.09
23.76
23.33
23.81
24.86
25.82
25.94
24.66
21.81
17.62
12.57
7.18
1.84
-3.18
-7.75
-11.84
-15.54
-19.16
-23.18
-28.07
-34.04
-40.77
-47.32
-52.33
-54.4
-52.62
-46.82
-37.75
-26.74
-15.27
-4.58
4.63
12.13
18.01
22.39
25.34
26.87
27.12
26.42
25.3
24.36
24.01
24.34
25.12
25.98
26.56
26.75
26.68
26.59
26.64
26.74
26.51
25.46
23.25
19.82
15.5
10.84
6.37
2.43
-1.02
-4.25
-7.69
-11.73
-16.62
-22.47
-29.13
-36.14
-42.63
-47.41
-49.19
-47.02
-40.66
-30.79
-18.81
-6.48
4.67
13.74
20.51
25.27
28.46
30.43
31.3
31.15
30.12
28.59
27.08
26.09
25.96
26.66
27.89
29.17
30.15
30.65
30.73
30.57
30.31
29.97
29.37
28.22
26.26
23.38
19.72
15.58
11.42
7.66
4.56
2.16
0.23
-1.66
-4.05
-7.47
-12.2
-18.15
-24.65
-30.6
-34.68
-35.67
-32.95
-26.59
-17.42
-6.68
4.3
14.4
22.92
29.54
34.23
37.13
38.4
38.27
37.05
35.14
33.09
31.51
30.86
31.31
32.64
34.23
35.39
35.65
34.96
33.7
32.39
31.43
30.78
30.05
28.58
25.88
21.81
16.71
11.25
6.22
2.21
-0.58
-2.37
-3.78
-5.66
-8.92
-14.27
-21.98
-31.69
-42.26
-52.06
-59.21
-62.2
-60.33
-53.9
-44.09
-32.47
-20.49
-9.11
1.25
10.51
18.62
25.39
30.51
33.74
35.18
35.31
34.92
34.78
35.37
36.64
38.23
39.59
40.37
40.53
40.31
39.97
39.66
39.26
38.47
36.93
34.39
30.79
26.28
21.17
15.87
10.81
6.3
2.44
-0.87
-3.94
-7.12
-10.77
-15.1
-20.15
-25.7
-31.21
-35.76
-38.26
-37.73
-33.61
-26.11
-16.15
-5.1
5.67
15.18
22.96
28.98
33.39
36.33
37.92
38.31
37.87
37.06
36.41
36.28
36.72
37.44
37.97
37.84
36.82
34.91
32.36
29.48
26.51
23.59
20.77
18.06
15.47
13.06
10.84
8.78
6.78
4.67
2.34
-0.29
-3.17
-6.2
-9.32
-12.47
-15.72
-19.22
-23.15
-27.63
-32.63
-37.77
-42.32
-45.3
-45.76
-43.08
-37.32
-29.18
-19.87
-10.67
-2.54
4.02
9.03
12.74
15.45
17.33
18.45
18.87
18.83
18.69
18.89
19.8
21.54
24.0
26.85
29.69
32.2
34.18
35.59
36.42
36.65
36.24
35.17
33.47
31.22
28.55
25.6
22.49
19.33
16.22
13.23
10.43
7.79
5.24
2.65
-0.17
-3.37
-6.98
-10.85
-14.57
-17.56
-19.12
-18.72
-16.16
-11.64
-5.75
0.75
7.08
12.71
17.31
20.82
23.3
24.87
25.7
26.01
26.06
26.15
26.54
27.4
28.69
30.18
31.54
32.47
32.82
32.69
32.37
32.16
32.29
32.74
33.34
33.89
34.32
34.77
35.58
37.09
39.52
42.84
46.77
50.86
54.64
57.73
59.9
61.21
61.94
62.69
64.34
67.95
74.55
84.82
98.76
115.54
133.65
151.26
166.68
178.81
187.19
191.78
192.51
189.03
180.66
166.81
147.48
123.55
96.68
68.82
41.56
15.73
-8.72
-32.36
-56.04
-80.59
-106.77
-135.22
-166.18
-198.99
-231.76
-261.4
-284.26
-297.29
-299.03
-290.04
-272.63
-249.86
-224.55
-198.73
-173.61
-150.04
-128.71
-110.07
-93.97
-79.34
-64.45
-47.67
-28.36
-7.4
13.06
30.42
42.87
50.1
53.42
55.28
58.37
64.86
75.93
91.57
110.47
130.09
146.96
157.23
157.58
146.13
123.03
90.41
51.74
10.81
-29.22
-66.34
-99.65
-128.94
-154.14
-174.92
-190.62
-200.45
-203.89
-201.04
-192.89
-181.2
-168.14
-155.76
-145.5
-137.99
-133.08
-130.11
-128.12
-126.02
-122.61
-116.7
-107.37
-94.27
-77.91
-59.68
-41.47
-25.15
-11.93
-2.14
4.78
9.79
13.79
17.27
20.24
22.4
23.54
23.71
23.26
22.74
22.59
22.95
23.64
24.26
24.41
23.82
22.42
20.25
17.45
14.16
10.54
6.75
2.96
-0.7
-4.09
-7.23
-10.24
-13.39
-17.03
-21.43
-26.51
-31.7
-35.99
-38.09
-36.96
-32.2
-24.24
-14.31
-3.91
5.54
13.16
18.69
22.29
24.39
25.36
25.52
25.12
24.42
23.74
23.36
23.5
24.23
25.4
26.71
27.82
28.49
28.69
28.61
28.49
28.47
28.49
28.24
27.43
25.9
23.79
21.51
19.56
18.4
18.21
18.87
20.02
21.14
21.71
21.42
20.27
18.81
18.09
19.51
24.33
33.27
46.08
61.61
78.05
93.62
107.01
117.79
126.21
132.97
138.74
143.95
148.69
152.94
156.62
159.76
162.41
164.64
166.38
167.33
166.94
164.36
158.56
148.65
134.25
115.86
94.87
73.34
53.49
37.06
24.93
16.92
11.92
8.18
3.75
-3.11
-13.66
-28.52
-47.68
-70.52
-95.92
-122.35
-147.94
-170.58
-188.13
-198.68
-200.95
-194.65
-180.69
-161.16
-139.0
-117.43
-99.11
-85.62
-77.09
-72.54
-70.36
-69.04
-67.66
-66.03
-64.4
-63.25
-62.94
-63.6
-65.12
-67.2
-69.4
-71.28
-72.49
-72.81
-72.24
-70.95
-69.18
-67.13
-64.91
-62.59
-60.27
-58.11
-56.34
-55.15
-54.52
-54.26
-54.1
-53.91
-53.87
-54.5
-56.47
-60.34
-66.26
-73.77
-81.81
-88.92
-93.48
-94.08
-89.82
-80.63
-67.22
-51.02
-33.79
-17.2
-2.4
10.06
20.2
28.26
34.52
39.17
42.32
44.22
45.26
45.93
46.6
47.35
47.92
47.87
46.87
44.91
42.31
39.58
37.13
35.03
33.03
30.7
27.69
23.92
19.58
15.09
10.88
7.25
4.26
1.75
-0.6
-3.17
-6.38
-10.6
-16.02
-22.5
-29.41
-35.63
-39.78
-40.6
-37.36
-30.23
-20.18
-8.72
2.56
12.43
20.23
25.85
29.48
31.42
31.87
30.93
28.69
25.4
21.52
17.72
14.6
12.55
11.54
11.17
10.83
9.97
8.26
5.64
2.29
-1.52
-5.54
-9.68
-13.96
-18.46
-23.25
-28.24
-33.22
-37.81
-41.63
-44.42
-46.13
-46.99
-47.42
-47.99
-49.36
-52.07
-56.39
-62.08
-68.28
-73.45
-75.88
-74.06
-67.3
-55.93
-41.22
-24.96
-8.98
5.33
17.15
26.19
32.48
36.2
37.68
37.34
35.76
33.67
31.77
30.61
30.48
31.32
32.81
34.47
35.8
36.44
36.22
35.15
33.39
31.14
28.54
25.63
22.32
18.44
13.76
8.17
1.79
-5.07
-11.99
-18.63
-24.85
-30.74
-36.54
-42.48
-48.77
-55.66
-63.43
-72.34
-82.24
-92.34
-101.1
-106.74
-107.88
-104.21
-96.61
-86.58
-75.4
-63.46
-50.26
-35.01
-17.48
1.56
20.57
37.99
52.94
65.39
75.92
85.16
93.43
100.72
107.02
112.42
117.06
120.82
123.12
123.09
120.0
113.75
105.07
95.26
85.57
76.66
68.48
60.47
52.04
42.93
33.32
23.57
13.89
4.05
-6.59
-18.77
-32.88
-48.58
-64.63
-79.21
-90.22
-95.96
-95.51
-88.98
-77.4
-62.47
-46.07
-29.85
-15.03
-2.33
7.95
15.66
20.73
23.16
23.04
20.78
17.06
12.82
9.05
6.54
5.7
6.52
8.59
11.34
14.17
16.58
18.17
18.57
17.48
14.71
10.27
4.51
-1.96
-8.36
-14.03
-18.71
-22.67
-26.66
-31.59
-38.06
-45.9
-53.97
-60.33
-62.83
-59.82
-50.8
-36.58
-19.04
-0.49
16.95
31.87
43.64
52.21
57.94
61.23
62.5
62.17
60.74
58.74
56.64
54.76
53.18
51.8
50.48
49.13
47.77
46.45
45.06
43.33
40.79
36.97
31.63
24.92
17.35
9.63
2.36
-4.15
-10.01
-15.7
-21.85
-28.99
-37.2
-45.85
-53.69
-58.98
-60.09
-55.97
-46.59
-32.95
-16.79
-0.02
15.74
29.47
40.76
49.49
55.7
59.39
60.7
60.02
58.05
55.72
53.94
53.3
53.91
55.48
57.49
59.46
61.1
62.32
63.1
63.31
62.72
60.98
57.87
53.38
47.77
41.55
35.26
29.33
23.92
18.85
13.63
7.53
-0.25
-10.31
-22.69
-36.59
-50.31
-61.5
-67.82
-67.67
-60.7
-48.07
-31.96
-14.9
0.98
14.4
24.85
32.36
37.11
39.24
39.0
36.87
33.72
30.63
28.6
28.18
29.29
31.27
33.17
34.17
33.87
32.38
30.19
27.89
25.78
23.77
21.42
18.22
13.92
8.76
3.4
-1.33
-4.88
-7.23
-8.96
-11.05
-14.59
-20.28
-28.23
-37.7
-47.22
-54.9
-58.92
-57.99
-51.79
-41.0
-27.07
-11.84
2.96
15.92
26.16
33.31
37.39
38.8
38.24
36.53
34.46
32.68
31.62
31.45
32.1
33.35
34.82
36.12
36.9
36.99
36.38
35.19
33.47
31.16
28.07
23.99
18.9
13.05
6.89
0.9
-4.63
-9.67
-14.48
-19.47
-25.13
-31.83
-39.63
-48.11
-56.26
-62.61
-65.56
-63.89
-57.28
-46.41
-32.82
-18.38
-4.76
6.97
16.38
23.55
28.71
32.15
34.08
34.77
34.56
33.97
33.56
33.79
34.87
36.66
38.73
40.47
41.36
41.12
39.82
37.79
35.43
32.98
30.42
27.47
23.72
18.9
13.09
6.73
0.49
-4.95
-9.26
-12.49
-15.1
-17.74
-21.06
-25.53
-31.39
-38.49
-46.22
-53.49
-58.79
-60.59
-57.76
-50.05
-38.28
-24.1
-9.5
3.84
14.9
23.45
29.73
34.17
37.1
38.74
39.28
39.0
38.32
37.68
37.42
37.66
38.26
38.93
39.37
39.37
38.86
37.84
36.39
34.57
32.42
30.01
27.38
24.57
21.6
18.45
15.1
11.57
7.96
4.38
0.94
-2.31
-5.4
-8.46
-11.7
-15.38
-19.84
-25.36
-32.06
-39.64
-47.28
-53.61
-57.13
-56.56
-51.39
-42.1
-30.08
-17.18
-5.15
4.79
12.17
17.18
20.32
22.1
22.87
22.83
22.14
21.08
20.05
19.45
19.56
20.39
21.67
22.97
23.86
24.09
23.63
22.62
21.21
19.5
17.47
15.04
12.14
8.79
5.15
1.4
-2.24
-5.61
-8.66
-11.4
-13.92
-16.38
-18.91
-21.67
-24.79
-28.46
-32.85
-38.06
-43.88
-49.73
-54.57
-57.14
-56.34
-51.67
-43.47
-32.85
-21.34
-10.45
-1.21
5.96
11.15
14.69
16.92
18.09
18.34
17.85
16.87
15.75
14.89
14.61
15.05
16.13
17.6
19.08
20.22
20.79
20.72
20.09
19.04
17.68
16.0
13.95
11.45
8.47
5.1
1.5
-2.16
-5.75
-9.23
-12.57
-15.77
-18.85
-21.77
-24.61
-27.5
-30.75
-34.69
-39.61
-45.44
-51.56
-56.83
-59.78
-59.11
-54.19
-45.39
-34.02
-21.87
-10.64
-1.46
5.32
9.98
13.04
15.0
16.16
16.69
16.68
16.35
15.96
15.83
16.2
17.13
18.56
20.32
22.22
24.09
25.8
27.2
28.11
28.3
27.53
25.66
22.74
19.09
15.15
11.39
8.13
5.38
2.9
0.36
-2.55
-5.94
-9.7
-13.55
-17.19
-20.48
-23.47
-26.44
-29.84
-34.09
-39.45
-45.72
-52.16
-57.52
-60.41
-59.76
-55.16
-47.11
-36.79
-25.68
-15.14
-6.05
1.2
6.56
10.19
12.27
13.01
12.67
11.6
10.26
9.11
8.55
8.81
9.88
11.53
13.42
15.19
16.63
17.6
18.11
18.14
17.71
16.78
15.4
13.66
11.73
9.71
7.65
5.49
3.13
0.53
-2.25
-5.07
-7.81
-10.38
-12.78
-15.09
-17.44
-20.01
-23.03
-26.76
-31.36
-36.7
-42.17
-46.68
-48.93
-47.79
-42.77
-34.25
-23.36
-11.66
-0.64
8.64
15.69
20.49
23.31
24.55
24.64
23.96
22.88
21.72
20.76
20.19
20.14
20.62
21.5
22.56
23.45
23.84
23.52
22.47
20.86
18.95
17.01
15.14
13.27
11.17
8.66
5.65
2.27
-1.27
-4.71
-7.88
-10.74
-13.4
-16.0
-18.71
-21.71
-25.24
-29.58
-34.96
-41.34
-48.24
-54.62
-59.1
-60.35
-57.52
-50.66
-40.69
-29.13
-17.6
-7.37
0.89
7.08
11.45
14.32
15.92
16.44
16.1
15.21
14.19
13.42
13.15
13.39
13.99
14.73
15.42
15.99
16.43
16.8
17.08
17.18
16.95
16.27
15.08
13.44
11.44
9.22
6.83
4.3
1.61
-1.23
-4.14
-7.04
-9.82
-12.49
-15.11
-17.86
-20.99
-24.81
-29.57
-35.39
-42.0
-48.6
-53.96
-56.66
-55.6
-50.41
-41.62
-30.55
-18.83
-7.91
1.33
8.61
14.14
18.26
21.26
23.35
24.61
25.21
25.38
25.4
25.57
26.03
26.83
27.9
29.13
30.36
31.48
32.33
32.78
32.67
31.93
30.54
28.59
26.19
23.49
20.62
17.71
14.85
12.04
9.22
6.26
3.04
-0.49
-4.2
-7.86
-11.28
-14.41
-17.54
-21.19
-26.01
-32.33
-39.95
-47.86
-54.52
-58.21
-57.66
-52.51
-43.44
-31.97
-19.91
-8.8
0.45
7.57
12.74
16.27
18.42
19.39
19.37
18.75
17.98
17.61
18.03
19.37
21.46
23.92
26.25
28.09
29.19
29.47
29.0
27.83
26.04
23.68
20.8
17.55
14.16
10.86
7.81
5.03
2.35
-0.44
-3.51
-6.88
-10.4
-13.87
-17.12
-20.16
-23.18
-26.53
-30.59
-35.6
-41.53
-47.88
-53.7
-57.8
-58.98
-56.43
-50.04
-40.45
-28.9
-16.9
-5.82
3.42
10.49
15.51
18.91
21.15
22.57
23.36
23.63
23.56
23.44
23.62
24.4
25.87
27.84
29.97
31.85
33.19
33.83
33.76
32.99
31.56
29.46
26.77
23.64
20.31
17.04
13.98
11.14
8.36
5.48
2.38
-0.92
-4.29
-7.56
-10.69
-13.79
-17.16
-21.1
-25.89
-31.55
-37.8
-44.0
-49.2
-52.25
-52.15
-48.32
-40.89
-30.75
-19.3
-8.06
1.8
9.66
15.53
19.76
22.74
24.73
25.83
26.09
25.65
24.86
24.11
23.79
24.06
24.8
25.71
26.4
26.58
26.13
25.11
23.61
21.76
19.62
17.19
14.44
11.36
7.95
4.22
0.29
-3.68
-7.46
-10.81
-13.61
-15.89
-17.84
-19.79
-22.03
-24.84
-28.37
-32.65
-37.51
-42.53
-46.97
-49.82
-50.08
-47.02
-40.54
-31.24
-20.36
-9.33
0.58
8.61
14.56
18.65
21.2
22.54
22.89
22.42
21.42
20.24
19.31
19.01
19.55
20.88
22.75
24.81
26.64
27.9
28.36
27.95
26.78
25.05
23.0
20.79
18.46
15.9
12.97
9.61
5.86
1.86
-2.16
-6.06
-9.75
-13.26
-16.66
-20.08
-23.64
-27.56
-32.04
-37.24
-43.03
-48.89
-53.82
-56.61
-56.12
-51.77
-43.78
-33.14
-21.35
-9.94
-0.11
7.62
13.23
17.09
19.67
21.36
22.38
22.86
22.94
22.84
22.84
23.22
24.12
25.51
27.2
28.86
30.2
30.98
31.04
30.34
28.89
26.74
24.0
20.79
17.28
13.62
9.91
6.22
2.57
-1.01
-4.47
-7.71
-10.64
-13.22
-15.52
-17.74
-20.3
-23.61
-28.07
-33.74
-40.23
-46.65
-51.71
-54.1
-52.83
-47.61
-38.98
-28.13
-16.57
-5.71
3.5
10.65
15.86
19.48
21.91
23.46
24.26
24.38
23.89
22.93
21.83
20.95
20.68
21.19
22.44
24.09
25.64
26.57
26.58
25.62
23.93
21.91
19.89
18.06
16.38
14.67
12.68
10.29
7.54
4.6
1.69
-1.02
-3.53
-5.97
-8.52
-11.41
-14.81
-18.9
-23.78
-29.35
-35.17
-40.38
-43.86
-44.51
-41.68
-35.44
-26.59
-16.44
-6.41
2.43
9.46
14.53
17.85
19.66
20.24
19.82
18.67
17.19
15.84
15.09
15.2
16.12
17.49
18.78
19.5
19.46
18.79
17.8
16.78
15.79
14.61
12.86
10.28
6.79
2.67
-1.63
-5.65
-9.05
-11.76
-13.95
-16.01
-18.39
-21.57
-25.85
-31.26
-37.42
-43.49
-48.36
-50.89
-50.27
-46.27
-39.33
-30.39
-20.68
-11.31
-3.07
3.71
8.99
12.96
15.81
17.69
18.72
19.07
18.96
18.69
18.57
18.82
19.55
20.71
22.11
23.46
24.45
24.85
24.55
23.6
22.14
20.33
18.26
15.91
13.2
10.1
6.67
3.07
-0.48
-3.77
-6.72
-9.36
-11.85
-14.44
-17.43
-21.11
-25.74
-31.35
-37.65
-43.93
-49.12
-52.01
-51.65
-47.67
-40.45
-31.05
-20.8
-10.99
-2.41
4.62
10.22
14.64
18.09
20.62
22.25
23.06
23.25
23.2
23.26
23.68
24.51
25.64
26.87
27.99
28.87
29.41
29.49
28.98
27.78
25.88
23.44
20.7
17.89
15.14
12.39
9.51
6.35
2.9
-0.66
-4.11
-7.2
-9.91
-12.4
-15.08
-18.43
-22.82
-28.34
-34.67
-41.04
-46.41
-49.69
-50.02
-47.03
-41.0
-32.7
-23.31
-14.01
-5.72
1.07
6.31
10.26
13.22
15.32
16.57
16.9
16.43
15.53
14.74
14.58
15.3
16.74
18.41
19.7
20.2
19.8
18.67
17.17
15.61
14.14
12.72
11.17
9.26
6.81
3.81
0.43
-3.04
-6.26
-8.98
-11.12
-12.87
-14.61
-16.78
-19.84
-24.01
-29.22
-35.03
-40.62
-44.95
-46.96
-45.88
-41.49
-34.19
-24.92
-14.91
-5.33
2.92
9.43
14.19
17.44
19.55
20.83
21.51
21.73
21.64
21.42
21.3
21.49
22.12
23.14
24.35
25.4
25.96
25.81
24.93
23.46
21.67
19.75
17.76
15.63
13.23
10.46
7.37
4.1
0.84
-2.29
-5.24
-8.08
-10.92
-13.87
-17.1
-20.8
-25.16
-30.28
-35.99
-41.79
-46.8
-49.98
-50.4
-47.53
-41.43
-32.79
-22.73
-12.5
-3.18
4.53
10.38
14.53
17.32
19.15
20.28
20.88
21.02
20.8
20.44
20.17
20.26
20.84
21.9
23.26
24.69
25.94
26.86
27.35
27.38
26.95
26.04
24.66
22.87
20.74
18.33
15.68
12.78
9.59
6.12
2.45
-1.26
-4.77
-7.94
-10.7
-13.13
-15.49
-18.17
-21.57
-26.03
-31.61
-37.88
-43.89
-48.3
-49.79
-47.47
-41.31
-32.16
-21.49
-10.93
-1.73
5.45
10.65
14.28
16.87
18.78
20.18
21.07
21.49
21.58
21.62
21.89
22.57
23.62
24.82
25.89
26.62
26.94
26.9
26.53
25.84
24.71
23.06
20.88
18.29
15.48
12.64
9.83
7.01
4.03
0.77
-2.75
-6.39
-9.93
-13.16
-16.02
-18.68
-21.51
-24.95
-29.37
-34.82
-40.93
-46.87
-51.48
-53.6
-52.39
-47.57
-39.61
-29.56
-18.81
-8.71
-0.26
6.15
10.61
13.56
15.52
16.85
17.76
18.27
18.44
18.43
18.46
18.76
19.48
20.57
21.82
23.0
23.87
24.3
24.24
23.67
22.55
20.8
18.39
15.37
11.92
8.33
4.87
1.67
-1.23
-3.98
-6.66
-9.31
-11.84
-14.15
-16.27
-18.41
-20.93
-24.26
-28.66
-34.11
-40.19
-46.08
-50.71
-52.97
-51.97
-47.36
-39.49
-29.32
-18.24
-7.6
1.56
8.79
14.09
17.81
20.34
22.02
23.09
23.77
24.25
24.73
25.29
25.92
26.47
26.8
26.86
26.73
26.55
26.41
26.25
25.89
25.06
23.58
21.39
18.63
15.52
12.3
9.11
6.0
2.93
-0.17
-3.36
-6.65
-9.99
-13.25
-16.29
-19.04
-21.54
-24.09
-27.13
-31.07
-36.13
-42.02
-47.95
-52.66
-54.87
-53.62
-48.62
-40.36
-29.96
-18.82
-8.26
0.81
7.95
13.19
16.83
19.24
20.75
21.57
21.85
21.68
21.13
20.34
19.46
18.69
18.19
18.02
18.13
18.4
18.62
18.59
18.13
17.1
15.39
12.94
9.78
6.02
1.87
-2.41
-6.6
-10.55
-14.18
-17.49
-20.46
-23.1
-25.4
-27.44
-29.4
-31.58
-34.34
-37.95
-42.41
-47.37
-52.05
-55.35
-56.15
-53.62
-47.54
-38.44
-27.48
-16.09
-5.59
3.18
9.94
14.85
18.29
20.52
21.77
22.14
21.82
21.09
20.29
19.75
19.66
20.0
20.65
21.39
22.01
22.33
22.23
21.68
20.7
19.38
17.87
16.18
14.3
12.15
9.63
6.79
3.79
0.8
-1.99
-4.61
-7.22
-10.09
-13.48
-17.55
-22.33
-27.71
-33.44
-39.13
-44.15
-47.68
-48.86
-46.99
-41.88
-33.92
-24.1
-13.68
-3.86
4.51
11.08
15.91
19.26
21.42
22.62
23.03
22.83
22.32
21.85
21.79
22.33
23.47
24.98
26.51
27.73
28.46
28.7
28.61
28.36
28.03
27.54
26.66
25.12
22.72
19.46
15.62
11.63
7.92
4.8
2.29
0.13
-2.07
-4.76
-8.3
-12.88
-18.54
-25.07
-31.99
-38.47
-43.38
-45.56
-44.16
-38.98
-30.64
-20.4
-9.79
-0.14
7.76
13.73
18.01
20.91
22.67
23.39
23.15
22.17
20.84
19.69
19.16
19.48
20.55
22.02
23.46
24.49
24.96
24.89
24.4
23.6
22.45
20.79
18.44
15.29
11.4
7.05
2.64
-1.47
-5.04
-8.05
-10.67
-13.21
-16.02
-19.49
-23.93
-29.47
-35.85
-42.35
-47.8
-50.91
-50.62
-46.5
-38.94
-28.99
-18.08
-7.54
1.68
9.16
14.94
19.29
22.55
24.95
26.61
27.57
27.89
27.71
27.29
26.96
26.99
27.46
28.27
29.13
29.77
30.02
29.91
29.57
29.13
28.58
27.71
26.16
23.6
19.83
14.93
9.19
3.12
-2.8
-8.18
-12.8
-16.7
-20.06
-23.19
-26.44
-30.15
-34.49
-39.4
-44.4
-48.63
-50.97
-50.37
-46.21
-38.61
-28.36
-16.8
-5.36
4.85
13.16
19.5
24.06
27.15
28.94
29.52
28.98
27.61
25.94
24.63
24.27
25.12
26.96
29.2
31.14
32.21
32.27
31.46
30.09
28.43
26.52
24.26
21.5
18.18
14.39
10.32
6.27
2.51
-0.78
-3.55
-5.9
-8.08
-10.43
-13.35
-17.19
-22.08
-27.91
-34.19
-40.09
-44.53
-46.45
-45.09
-40.28
-32.54
-22.94
-12.86
-3.54
4.22
10.14
14.31
16.99
18.44
18.83
18.38
17.4
16.33
15.62
15.58
16.25
17.38
18.58
19.44
19.75
19.54
18.98
18.26
17.43
16.34
14.71
12.21
8.75
4.45
-0.29
-4.91
-8.95
-12.15
-14.6
-16.74
-19.22
-22.67
-27.44
-33.33
-39.53
-44.79
-47.79
-47.55
-43.75
-36.85
-27.88
-18.12
-8.74
-0.54
6.1
11.16
14.78
17.16
18.47
18.88
18.61
17.96
17.31
17.0
17.22
17.96
18.99
19.98
20.65
20.89
20.73
20.33
19.78
19.08
18.04
16.41
13.96
10.66
6.73
2.55
-1.43
-4.91
-7.79
-10.2
-12.41
-14.81
-17.73
-21.46
-26.13
-31.48
-36.87
-41.23
-43.34
-42.2
-37.45
-29.56
-19.71
-9.38
0.09
7.9
13.82
18.09
21.05
22.98
23.99
24.13
23.53
22.5
21.49
20.96
21.19
22.15
23.54
24.88
25.77
25.95
25.42
24.33
22.93
21.41
19.84
18.16
16.17
13.68
10.58
6.94
3.01
-0.88
-4.42
-7.51
-10.23
-12.82
-15.63
-18.95
-22.99
-27.78
-33.12
-38.47
-42.96
-45.55
-45.27
-41.6
-34.73
-25.51
-15.25
-5.3
3.31
10.12
15.12
18.55
20.68
21.66
21.61
20.71
19.31
17.93
17.04
16.91
17.47
18.32
18.93
18.93
18.2
16.91
15.43
14.05
12.87
11.74
10.35
8.36
5.63
2.21
-1.63
-5.55
-9.21
-12.41
-15.07
-17.33
-19.43
-21.72
-24.58
-28.25
-32.66
-37.32
-41.3
-43.44
-42.75
-38.76
-31.7
-22.5
-12.49
-2.94
5.24
11.7
16.56
20.11
22.62
24.17
24.73
24.35
23.29
22.07
21.23
21.17
21.9
23.05
24.09
24.53
24.14
23.06
21.61
20.13
18.8
17.59
16.24
14.42
11.88
8.55
4.64
0.6
-3.09
-6.08
-8.31
-10.08
-11.85
-14.11
-17.12
-20.97
-25.54
-30.58
-35.73
-40.38
-43.72
-44.78
-42.79
-37.46
-29.27
-19.34
-9.08
0.2
7.67
13.08
16.62
18.64
19.52
19.55
18.99
18.1
17.18
16.51
16.34
16.75
17.65
18.84
20.05
21.0
21.49
21.42
20.82
19.76
18.35
16.67
14.74
12.54
10.03
7.2
4.07
0.74
-2.68
-6.02
-9.13
-11.9
-14.32
-16.53
-18.76
-21.38
-24.71
-28.93
-33.88
-39.0
-43.37
-45.9
-45.7
-42.29
-35.89
-27.34
-17.87
-8.72
-0.84
5.32
9.78
12.82
14.76
15.79
16.01
15.48
14.39
13.09
12.05
11.64
11.97
12.85
13.83
14.47
14.48
13.9
12.96
11.96
11.05
10.21
9.21
7.77
5.71
3.04
-0.03
-3.2
-6.16
-8.73
-10.86
-12.69
-14.4
-16.28
-18.61
-21.71
-25.74
-30.58
-35.7
-40.13
-42.69
-42.37
-38.69
-31.95
-23.08
-13.38
-4.06
3.98
10.33
14.94
17.95
19.6
20.19
20.03
19.45
18.76
18.19
17.84
17.76
17.92
18.27
18.73
19.23
19.6
19.68
19.34
18.5
17.17
15.48
13.58
11.57
9.49
7.27
4.84
2.17
-0.68
-3.55
-6.28
-8.75
-11.0
-13.13
-15.31
-17.71
-20.47
-23.73
-27.58
-31.95
-36.5
-40.54
-43.05
-43.05
-39.89
-33.62
-25.04
-15.43
-6.2
1.57
7.42
11.44
14.06
15.78
16.96
17.73
18.16
18.25
18.13
17.99
18.05
18.46
19.2
20.12
20.97
21.5
21.56
21.12
20.19
18.86
17.17
15.17
12.94
10.53
8.0
5.41
2.8
0.2
-2.38
-4.85
-7.16
-9.27
-11.18
-12.95
-14.68
-16.55
-18.78
-21.68
-25.52
-30.38
-35.97
-41.46
-45.67
-47.34
-45.6
-40.28
-32.08
-22.28
-12.36
-3.55
3.5
8.68
12.22
14.46
15.65
15.91
15.33
14.15
12.73
11.6
11.19
11.7
13.0
14.71
16.36
17.6
18.25
18.38
18.11
17.57
16.74
15.55
13.88
11.72
9.13
6.29
3.34
0.41
-2.43
-5.18
-7.83
-10.36
-12.79
-15.14
-17.53
-20.16
-23.27
-27.05
-31.54
-36.45
-41.14
-44.7
-46.14
-44.71
-40.19
-32.95
-23.9
-14.25
-5.13
2.67
8.75
13.13
16.08
17.9
18.81
18.99
18.55
17.71
16.77
16.09
15.97
16.53
17.68
19.13
20.52
21.5
21.82
21.38
20.17
18.31
15.95
13.35
10.71
8.2
5.87
3.62
1.33
-1.16
-3.89
-6.83
-9.85
-12.81
-15.68
-18.53
-21.55
-24.95
-28.95
-33.6
-38.71
-43.77
-47.96
-50.31
-49.96
-46.42
-39.8
-30.8
-20.59
-10.44
-1.4
5.89
11.26
14.88
17.11
18.27
18.66
18.53
18.11
17.62
17.27
17.2
17.51
18.16
19.07
20.05
20.93
21.51
21.58
21.03
19.83
18.09
15.98
13.68
11.29
8.81
6.13
3.16
-0.12
-3.62
-7.15
-10.52
-13.61
-16.42
-19.1
-21.9
-25.1
-28.94
-33.51
-38.74
-44.23
-49.32
-53.01
-54.27
-52.32
-46.88
-38.47
-28.21
-17.58
-7.91
0.01
6.01
10.34
13.43
15.57
16.85
17.29
17.03
16.38
15.82
15.81
16.57
17.99
19.73
21.34
22.47
22.96
22.87
22.36
21.57
20.55
19.19
17.34
14.81
11.58
7.76
3.63
-0.45
-4.19
-7.39
-10.09
-12.46
-14.78
-17.36
-20.48
-24.39
-29.22
-34.87
-40.85
-46.29
-50.02
-50.94
-48.34
-42.26
-33.43
-23.11
-12.69
-3.22
4.7
10.99
15.82
19.48
22.11
23.83
24.71
24.94
24.8
24.63
24.68
25.08
25.78
26.63
27.5
28.24
28.76
28.94
28.67
27.87
26.49
24.6
22.34
19.89
17.36
14.81
12.2
9.43
6.45
3.24
-0.11
-3.48
-6.75
-9.92
-13.1
-16.55
-20.58
-25.46
-31.23
-37.6
-43.83
-48.82
-51.38
-50.55
-45.97
-38.0
-27.72
-16.54
-5.82
3.43
10.77
16.24
20.14
22.85
24.65
25.69
26.07
25.97
25.6
25.3
25.35
25.89
26.89
28.12
29.32
30.25
30.75
30.82
30.48
29.76
28.71
27.31
25.52
23.27
20.53
17.3
13.68
9.86
6.09
2.59
-0.54
-3.39
-6.13
-9.04
-12.37
-16.33
-21.08
-26.66
-32.88
-39.17
-44.65
-48.17
-48.67
-45.53
-38.86
-29.5
-18.78
-8.18
1.16
8.64
14.2
18.13
20.76
22.34
22.94
22.61
21.48
19.9
18.38
17.45
17.39
18.15
19.44
20.76
21.74
22.2
22.16
21.76
21.11
20.15
18.71
16.58
13.67
10.1
6.15
2.23
-1.35
-4.42
-7.04
-9.45
-12.05
-15.26
-19.45
-24.75
-31.05
-37.83
-44.22
-49.15
-51.52
-50.57
-46.04
-38.33
-28.42
-17.61
-7.12
2.12
9.7
15.6
20.0
23.07
24.88
25.47
24.94
23.59
21.97
20.67
20.18
20.74
22.23
24.26
26.28
27.75
28.35
27.97
26.75
24.93
22.76
20.32
17.52
14.21
10.33
6.01
1.61
-2.42
-5.77
-8.43
-10.69
-13.08
-16.14
-20.25
-25.49
-31.6
-38.01
-43.82
-48.01
-49.58
-47.83
-42.59
-34.35
-24.14
-13.27
-2.96
5.95
13.12
18.6
22.63
25.45
27.21
28.01
28.02
27.52
26.91
26.63
27.0
28.05
29.53
30.97
31.92
32.02
31.25
29.83
28.11
26.36
24.7
22.95
20.81
18.03
14.59
10.71
6.78
3.06
-0.36
-3.64
-7.07
-10.85
-15.05
-19.69
-24.8
-30.44
-36.58
-42.9
-48.57
-52.42
-53.17
-50.03
-43.03
-33.04
-21.52
-10.07
0.18
8.6
15.08
19.81
23.01
24.84
25.43
25.03
24.0
22.85
22.08
22.05
22.86
24.25
25.73
26.72
26.84
25.97
24.35
22.38
20.4
18.52
16.55
14.21
11.22
7.54
3.38
-0.9
-4.98
-8.61
-11.71
-14.34
-16.67
-18.97
-21.59
-24.91
-29.15
-34.31
-39.95
-45.2
-48.92
-49.96
-47.57
-41.66
-32.86
-22.36
-11.52
-1.49
7.04
13.85
19.03
22.77
25.14
26.21
26.06
24.98
23.44
21.98
21.05
20.88
21.4
22.33
23.26
23.79
23.7
22.9
21.55
19.83
17.94
15.93
13.68
11.01
7.77
4.01
-0.05
-4.08
-7.8
-11.06
-13.99
-16.81
-19.89
-23.56
-28.08
-33.47
-39.43
-45.21
-49.72
-51.81
-50.58
-45.77
-37.89
-28.04
-17.56
-7.62
1.03
8.12
13.7
17.95
21.08
23.2
24.47
25.09
25.32
25.5
25.9
26.67
27.81
29.13
30.37
31.22
31.45
30.99
29.92
28.43
26.76
24.99
23.11
20.93
18.27
15.02
11.28
7.28
3.3
-0.43
-3.79
-6.8
-9.59
-12.33
-15.29
-18.79
-23.2
-28.68
-35.09
-41.79
-47.74
-51.66
-52.44
-49.49
-42.91
-33.49
-22.48
-11.21
-0.87
7.8
14.5
19.29
22.41
24.18
24.88
24.84
24.39
23.92
23.78
24.17
25.06
26.13
26.98
27.26
26.8
25.73
24.37
23.06
22.06
21.34
20.65
19.56
17.63
14.63
10.59
5.86
0.97
-3.58
-7.47
-10.66
-13.35
-15.82
-18.41
-21.36
-24.92
-29.25
-34.3
-39.7
-44.64
-47.97
-48.55
-45.6
-39.12
-29.94
-19.5
-9.33
-0.65
6.05
10.84
14.15
16.44
17.92
18.58
18.38
17.42
16.07
14.8
14.1
14.2
15.01
16.19
17.34
18.11
18.35
18.06
17.34
16.28
14.88
13.12
10.94
8.33
5.36
2.13
-1.22
-4.53
-7.63
-10.43
-12.88
-15.11
-17.39
-20.13
-23.8
-28.7
-34.82
-41.66
-48.21
-53.13
-55.09
-53.15
-47.12
-37.71
-26.28
-14.49
-3.7
5.28
12.32
17.75
21.98
25.29
27.72
29.21
29.79
29.68
29.28
29.02
29.21
29.9
30.97
32.1
33.04
33.59
33.69
33.37
32.74
31.86
30.72
29.26
27.38
24.99
22.06
18.65
14.86
10.84
6.77
2.83
-0.87
-4.32
-7.71
-11.43
-15.94
-21.67
-28.7
-36.65
-44.62
-51.31
-55.32
-55.6
-51.79
-44.42
-34.76
-24.41
-14.81
-6.81
-0.56
4.29
8.19
11.4
13.81
15.17
15.35
14.62
13.62
13.12
13.68
15.34
17.64
19.87
21.43
22.1
22.09
21.8
21.56
21.36
20.9
19.7
17.4
13.91
9.51
4.64
-0.18
-4.6
-8.43
-11.68
-14.47
-16.97
-19.41
-22.08
-25.34
-29.45
-34.4
-39.71
-44.45
-47.43
-47.65
-44.68
-38.8
-30.94
-22.37
-14.25
-7.4
-2.21
1.33
3.44
4.46
4.67
4.36
3.81
3.29
3.11
3.52
4.66
6.49
8.72
10.94
12.71
13.76
14.0
13.52
12.45
10.85
8.68
5.86
2.36
-1.72
-6.04
-10.24
-13.94
-16.95
-19.33
-21.32
-23.32
-25.7
-28.78
-32.73
-37.5
-42.78
-47.84
-51.68
-53.19
-51.5
-46.35
-38.25
-28.32
-17.9
-8.15
0.33
7.41
13.31
18.31
22.56
26.08
28.91
31.18
33.15
35.17
37.46
40.06
42.74
45.15
46.92
47.85
48.04
47.76
47.36
47.04
46.69
45.98
44.49
41.91
38.26
33.84
29.18
24.77
20.87
17.49
14.38
11.12
7.28
2.52
-3.42
-10.55
-18.68
-27.24
-35.37
-41.98
-46.03
-46.8
-44.16
-38.61
-31.12
-22.84
-14.77
-7.6
-1.65
2.93
6.12
7.88
8.25
7.42
5.74
3.75
1.98
0.88
0.62
1.1
2.02
2.96
3.57
3.64
3.18
2.36
1.36
0.29
-0.88
-2.32
-4.23
-6.65
-9.46
-12.28
-14.78
-16.74
-18.23
-19.56
-21.15
-23.35
-26.39
-30.28
-34.84
-39.62
-43.84
-46.41
-46.23
-42.57
-35.39
-25.54
-14.47
-3.7
5.65
13.12
18.8
23.0
25.93
27.64
28.09
27.49
26.28
25.14
24.69
25.21
26.57
28.29
29.77
30.59
30.6
29.97
28.99
27.87
26.6
24.95
22.63
19.45
15.5
11.11
6.73
2.76
-0.72
-3.87
-7.12
-10.95
-15.73
-21.65
-28.61
-36.2
-43.65
-49.86
-53.57
-53.72
-49.83
-42.21
-32.0
-20.77
-10.04
-0.88
6.36
11.83
15.94
19.0
21.11
22.24
22.44
21.97
21.28
20.91
21.23
22.27
23.75
25.16
26.04
26.12
25.46
24.3
22.92
21.45
19.81
17.76
15.03
11.5
7.26
2.64
-1.93
-6.07
-9.56
-12.44
-14.92
-17.37
-20.17
-23.72
-28.3
-33.97
-40.48
-47.09
-52.65
-55.81
-55.42
-50.89
-42.54
-31.48
-19.32
-7.67
2.24
9.89
15.3
18.86
21.0
22.07
22.24
21.67
20.64
19.56
18.94
19.16
20.29
22.08
23.97
25.35
25.81
25.24
23.92
22.27
20.71
19.39
18.17
16.65
14.42
11.26
7.24
2.82
-1.5
-5.25
-8.33
-10.91
-13.37
-16.17
-19.64
-23.93
-29.06
-34.87
-41.0
-46.77
-51.22
-53.22
-51.88
-46.8
-38.41
-27.79
-16.44
-5.76
3.27
10.25
15.2
18.41
20.17
20.75
20.4
19.47
18.4
17.63
17.46
17.97
18.96
20.11
21.05
21.53
21.52
21.12
20.51
19.79
18.89
17.55
15.44
12.35
8.3
3.62
-1.17
-5.52
-9.13
-11.96
-14.3
-16.61
-19.4
-23.07
-27.79
-33.33
-39.02
-43.78
-46.35
-45.63
-41.11
-33.1
-22.66
-11.26
-0.37
9.0
16.4
21.9
25.81
28.45
30.02
30.63
30.43
29.64
28.6
27.69
27.22
27.33
27.96
28.91
29.88
30.59
30.84
30.57
29.82
28.68
27.16
25.21
22.69
19.45
15.45
10.82
5.87
0.99
-3.47
-7.34
-10.61
-13.51
-16.38
-19.67
-23.84
-29.18
-35.66
-42.71
-49.21
-53.71
-54.85
-51.86
-44.9
-34.99
-23.67
-12.48
-2.51
5.8
12.44
17.59
21.37
23.79
24.85
24.72
23.81
22.64
21.74
21.46
21.88
22.89
24.19
25.47
26.48
27.01
26.98
26.37
25.21
23.59
21.58
19.27
16.69
13.89
10.86
7.6
4.16
0.64
-2.84
-6.16
-9.27
-12.24
-15.23
-18.51
-22.38
-27.05
-32.57
-38.6
-44.38
-48.77
-50.51
-48.62
-42.82
-33.65
-22.41
-10.65
0.26
9.49
16.73
22.08
25.73
27.79
28.33
27.48
25.54
23.08
20.74
19.06
18.29
18.29
18.63
18.85
18.63
17.93
16.96
16.0
15.16
14.34
13.21
11.38
8.64
5.04
0.89
-3.35
-7.26
-10.61
-13.41
-15.91
-18.5
-21.64
-25.71
-30.91
-37.11
-43.67
-49.56
-53.42
-54.04
-50.74
-43.64
-33.69
-22.32
-11.06
-1.04
7.16
13.45
18.06
21.26
23.21
24.01
23.74
22.66
21.18
19.85
19.12
19.27
20.19
21.46
22.47
22.78
22.23
21.07
19.75
18.65
17.85
17.04
15.74
13.55
10.32
6.27
1.83
-2.59
-6.72
-10.56
-14.29
-18.13
-22.35
-27.17
-32.7
-38.97
-45.68
-52.14
-57.28
-59.84
-58.76
-53.58
-44.7
-33.3
-21.0
-9.35
0.55
8.28
13.9
17.73
20.13
21.29
21.42
20.75
19.66
18.66
18.22
18.63
19.87
21.64
23.44
24.82
25.42
25.18
24.23
22.86
21.35
19.89
18.43
16.76
14.6
11.74
8.14
4.02
-0.28
-4.4
-8.17
-11.58
-14.86
-18.32
-22.29
-27.06
-32.77
-39.29
-46.15
-52.45
-56.96
-58.45
-56.1
-49.83
-40.38
-29.11
-17.55
-6.97
1.85
8.66
13.56
16.8
18.59
19.14
18.72
17.64
16.34
15.25
14.62
14.54
14.86
15.28
15.5
15.32
14.72
13.79
12.73
11.62
10.49
9.16
7.41
5.03
1.94
-1.73
-5.7
-9.62
-13.16
-16.19
-18.76
-21.11
-23.65
-26.81
-30.94
-36.12
-41.95
-47.49
-51.39
-52.25
-49.11
-41.87
-31.3
-18.86
-6.21
5.27
14.75
21.93
26.82
29.65
30.62
30.06
28.4
26.2
24.11
22.67
22.21
22.77
24.06
25.61
26.91
27.56
27.44
26.68
25.59
24.44
23.29
21.95
20.03
17.14
13.11
8.05
2.39
-3.28
-8.43
-12.74
-16.22
-19.2
-22.32
-26.28
-31.64
-38.55
-46.5
-54.4
-60.7
-63.94
-63.1
-57.95
-49.03
-37.5
-24.71
-11.95
-0.19
9.95
18.15
24.33
28.52
30.93
31.77
31.38
30.2
28.74
27.58
27.21
27.86
29.4
31.37
33.11
34.08
34.03
33.04
31.46
29.62
27.66
25.49
22.88
19.68
15.9
11.79
7.66
3.82
0.47
-2.35
-4.73
-6.82
-8.92
-11.38
-14.59
-18.92
-24.43
-30.75
-36.94
-41.64
-43.43
-41.25
-34.87
-24.97
-13.04
-0.91
9.78
17.95
23.29
26.06
26.81
26.13
24.46
22.19
19.66
17.33
15.61
14.81
14.99
15.88
16.99
17.82
17.99
17.45
16.31
14.8
13.05
11.05
8.65
5.7
2.12
-1.97
-6.32
-10.54
-14.3
-17.37
-19.7
-21.45
-22.94
-24.61
-26.92
-30.27
-34.81
-40.27
-45.9
-50.48
-52.66
-51.36
-46.15
-37.44
-26.4
-14.5
-3.17
6.62
14.35
19.92
23.38
24.9
24.72
23.26
21.13
19.01
17.51
16.99
17.46
18.61
19.97
21.12
21.79
21.94
21.62
20.87
19.59
17.58
14.67
10.79
6.11
1.03
-4.01
-8.61
-12.6
-16.08
-19.36
-22.97
-27.41
-32.94
-39.38
-45.95
-51.35
-54.07
-52.9
-47.38
-37.98
-26.03
-13.21
-1.12
9.2
17.32
23.32
27.47
30.04
31.23
31.23
30.39
29.19
28.18
27.77
28.09
28.98
30.06
30.97
31.49
31.56
31.22
30.5
29.3
27.43
24.63
20.69
15.57
9.4
2.51
-4.7
-11.8
-18.49
-24.55
-29.87
-34.4
-38.21
-41.5
-44.55
-47.59
-50.44
-52.36
-52.1
-48.37
-40.44
-28.67
-14.47
0.15
13.33
23.98
31.94
37.63
41.55
43.86
44.41
42.96
39.65
35.04
30.04
25.54
22.02
19.45
17.4
15.41
13.32
11.29
9.64
8.61
8.09
7.65
6.81
5.26
3.07
0.54
-1.96
-4.2
-6.18
-7.97
-9.63
-11.08
-12.27
-13.32
-14.67
-17.02
-21.11
-27.36
-35.56
-44.68
-53.15
-59.21
-61.49
-59.37
-53.06
-43.41
-31.57
-18.65
-5.58
6.84
17.87
26.86
33.36
37.28
38.99
39.16
38.59
37.99
37.83
38.33
39.55
41.37
43.57
45.87
47.98
49.7
50.96
51.83
52.4
52.69
52.64
52.12
51.09
49.71
48.37
47.59
47.82
49.12
51.09
52.81
53.17
51.09
45.84
37.3
26.08
13.43
1.09
-9.12
-15.71
-17.77
-15.15
-8.56
0.67
10.78
20.01
26.94
30.94
32.26
31.97
31.46
31.9
33.85
37.11
41.05
45.05
48.74
52.01
54.85
57.18
58.76
59.33
58.6
56.31
52.25
46.34
38.82
30.46
22.49
16.36
13.34
14.02
18.17
24.68
31.8
37.32
39.08
35.26
24.99
8.67
-11.94
-34.17
-55.24
-73.08
-86.92
-97.2
-105.11
-111.88
-118.23
-124.19
-129.29
-132.84
-134.19
-132.89
-128.72
-121.73
-112.22
-100.84
-88.38
-75.65
-63.16
-50.94
-38.54
-25.27
-10.56
5.58
22.21
37.32
48.08
51.51
45.37
29.11
4.24
-25.87
-57.04
-85.43
-108.64
-126.02
-138.34
-147.09
-153.81
-159.64
-165.13
-170.19
-174.08
-175.46
-172.79
-164.88
-151.5
-133.78
-113.94
-94.65
-77.97
-64.79
-54.65
-46.25
-38.19
-29.49
-19.88
-9.49
1.41
12.66
24.13
35.56
46.38
55.87
63.4
68.84
72.57
75.38
78.03
80.96
84.09
87.0
89.15
90.17
89.91
88.44
85.98
82.87
79.54
76.46
73.97
72.19
70.86
69.36
66.93
62.8
56.41
47.42
35.76
21.82
6.52
-8.6
-21.68
-30.97
-35.44
-35.23
-31.52
-26.05
-20.43
-15.54
-11.45
-7.69
-3.82
0.27
4.21
7.48
9.68
10.85
11.4
11.97
13.12
15.19
18.18
21.81
25.6
28.93
31.18
31.75
30.26
26.72
21.61
15.92
10.89
7.68
6.87
8.21
10.71
13.14
14.66
15.34
16.1
18.25
22.59
28.87
35.67
40.89
42.48
39.19
30.91
18.74
4.66
-8.82
-19.16
-24.37
-23.47
-16.81
-5.87
7.2
20.28
31.76
40.69
46.71
49.7
49.75
47.07
41.99
34.9
26.18
16.01
4.5
-8.24
-21.87
-35.72
-48.88
-60.34
-69.2
-74.9
-77.31
-76.89
-74.54
-71.51
-68.97
-67.76
-68.13
-69.78
-72.03
-74.17
-75.7
-76.41
-76.43
-76.11
-75.91
-76.28
-77.51
-79.55
-81.93
-83.64
-83.38
-79.85
-72.27
-60.69
-46.11
-30.19
-14.7
-1.01
10.3
19.36
26.65
32.54
37.13
40.21
41.58
41.34
40.02
38.43
37.4
37.45
38.61
40.43
42.23
43.36
43.43
42.47
40.77
38.73
36.58
34.27
31.53
28.06
23.68
18.48
12.78
6.98
1.48
-3.53
-8.04
-12.18
-16.21
-20.44
-25.26
-31.02
-37.93
-45.8
-53.81
-60.61
-64.51
-64.09
-58.68
-48.63
-35.24
-20.31
-5.62
7.58
18.58
27.22
33.57
37.82
40.13
40.78
40.22
39.05
38.02
37.78
38.71
40.76
43.39
45.77
47.07
46.74
44.77
41.65
38.15
35.0
32.62
30.92
29.5
27.75
25.2
21.67
17.32
12.53
7.71
3.14
-1.13
-5.14
-9.0
-12.87
-16.92
-21.45
-26.86
-33.39
-40.86
-48.43
-54.61
-57.67
-56.23
-49.84
-39.14
-25.67
-11.34
2.2
13.86
23.21
30.23
35.05
37.83
38.73
38.11
36.51
34.69
33.38
33.08
33.87
35.42
37.14
38.44
38.96
38.64
37.69
36.39
34.93
33.26
31.1
28.13
24.06
18.86
12.7
6.02
-0.7
-6.97
-12.47
-17.09
-20.95
-24.45
-28.14
-32.63
-38.31
-45.14
-52.45
-58.98
-63.09
-63.26
-58.62
-49.29
-36.41
-21.79
-7.33
5.55
16.14
24.44
30.8
35.57
38.92
40.85
41.38
40.75
39.46
38.14
37.38
37.52
38.49
39.97
41.46
42.54
42.91
42.5
41.38
39.7
37.58
35.08
32.16
28.74
24.72
20.11
15.03
9.77
4.66
-0.01
-4.13
-7.77
-11.19
-14.74
-18.77
-23.59
-29.32
-35.8
-42.49
-48.37
-52.14
-52.5
-48.61
-40.44
-28.85
-15.39
-1.79
10.53
20.73
28.56
34.18
37.87
39.83
40.22
39.31
37.54
35.56
34.03
33.44
33.93
35.29
37.0
38.48
39.26
39.1
38.05
36.36
34.32
32.17
29.98
27.62
24.88
21.52
17.46
12.86
8.03
3.37
-0.83
-4.44
-7.64
-10.72
-14.07
-18.04
-22.91
-28.77
-35.51
-42.67
-49.29
-54.05
-55.51
-52.65
-45.29
-34.32
-21.43
-8.52
2.89
12.05
18.92
23.88
27.31
29.37
30.09
29.59
28.17
26.48
25.22
24.93
25.76
27.41
29.3
30.8
31.46
31.2
30.26
29.0
27.7
26.42
24.92
22.79
19.72
15.61
10.68
5.44
0.44
-3.87
-7.31
-10.03
-12.41
-14.97
-18.19
-22.5
-28.03
-34.53
-41.28
-47.07
-50.43
-50.06
-45.28
-36.32
-24.31
-10.94
2.05
13.38
22.44
29.25
34.16
37.58
39.8
40.96
41.23
40.93
40.53
40.62
41.66
43.83
46.97
50.58
54.11
57.13
59.53
61.4
63.01
64.53
65.95
67.05
67.52
67.16
66.0
64.33
62.56
61.03
59.87
58.88
57.67
55.73
52.62
48.02
41.78
34.01
25.17
16.18
8.36
3.17
1.85
4.9
11.87
21.39
31.59
40.57
46.95
50.0
49.59
46.02
39.68
31.09
20.77
9.42
-2.13
-13.1
-22.87
-31.24
-38.4
-44.88
-51.19
-57.68
-64.37
-70.95
-76.99
-82.09
-86.03
-88.76
-90.47
-91.39
-91.81
-91.98
-92.03
-91.97
-91.61
-90.75
-89.19
-86.93
-84.23
-81.64
-79.86
-79.5
-80.82
-83.5
-86.52
-88.43
-87.69
-83.18
-74.58
-62.43
-48.01
-32.82
-18.27
-5.35
5.38
13.66
19.42
22.73
23.85
23.33
21.96
20.64
20.06
20.56
22.02
23.98
25.84
27.17
27.76
27.74
27.4
27.01
26.62
26.01
24.75
22.33
18.53
13.45
7.64
1.85
-3.21
-7.16
-10.1
-12.52
-15.11
-18.51
-23.06
-28.72
-35.03
-41.12
-45.82
-47.9
-46.38
-40.88
-31.8
-20.33
-8.05
3.49
13.23
20.72
26.03
29.47
31.37
31.94
31.4
30.07
28.42
26.96
26.06
25.86
26.15
26.57
26.75
26.49
25.79
24.81
23.77
22.74
21.65
20.21
18.14
15.2
11.38
6.93
2.25
-2.21
-6.1
-9.3
-11.98
-14.53
-17.51
-21.44
-26.64
-33.01
-39.89
-46.15
-50.37
-51.3
-48.23
-41.27
-31.31
-19.76
-8.12
2.42
11.16
17.85
22.59
25.56
26.94
26.93
25.83
24.09
22.25
20.84
20.24
20.51
21.44
22.63
23.62
24.11
23.96
23.25
22.16
20.86
19.41
17.75
15.68
13.01
9.61
5.59
1.27
-2.92
-6.58
-9.52
-11.87
-13.99
-16.35
-19.37
-23.36
-28.45
-34.54
-41.17
-47.51
-52.36
-54.44
-52.78
-47.12
-38.05
-26.86
-15.08
-4.09
5.3
12.76
18.32
22.12
24.25
24.82
24.05
22.4
20.51
19.06
18.59
19.22
20.68
22.39
23.73
24.26
23.9
22.83
21.36
19.71
17.87
15.66
12.82
9.24
5.02
0.51
-3.86
-7.69
-10.8
-13.24
-15.3
-17.4
-20.02
-23.59
-28.36
-34.24
-40.75
-46.91
-51.45
-53.12
-51.07
-45.2
-36.17
-25.29
-14.02
-3.62
5.08
11.76
16.44
19.31
20.65
20.69
19.83
18.49
17.2
16.45
16.52
17.42
18.88
20.43
21.6
22.13
22.01
21.46
20.7
19.83
18.74
17.18
14.89
11.77
7.94
3.72
-0.48
-4.29
-7.48
-10.07
-12.29
-14.55
-17.31
-21.0
-25.77
-31.47
-37.51
-42.92
-46.57
-47.43
-44.9
-38.99
-30.36
-20.14
-9.62
0.12
8.37
14.91
19.77
23.16
25.23
26.11
25.9
24.83
23.27
21.71
20.63
20.36
20.94
22.11
23.42
24.4
24.76
24.43
23.53
22.27
20.82
19.21
17.33
14.97
11.94
8.2
3.92
-0.55
-4.81
-8.52
-11.62
-14.26
-16.85
-19.86
-23.67
-28.43
-33.97
-39.75
-44.91
-48.41
-49.28
-46.9
-41.19
-32.72
-22.51
-11.84
-1.82
6.74
13.45
18.24
21.24
22.7
22.94
22.29
21.18
20.02
19.2
19.01
19.56
20.71
22.14
23.43
24.2
24.24
23.56
22.35
20.87
19.33
17.74
15.97
13.79
11.04
7.73
4.05
0.34
-3.07
-5.94
-8.29
-10.35
-12.56
-15.41
-19.26
-24.22
-29.98
-35.81
-40.62
-43.25
-42.76
-38.74
-31.51
-22.01
-11.58
-1.55
7.07
13.72
18.34
21.13
22.44
22.55
21.74
20.25
18.43
16.67
15.39
14.87
15.15
15.96
16.83
17.27
17.03
16.15
14.92
13.71
12.72
11.87
10.82
9.15
6.57
3.1
-0.97
-5.18
-9.09
-12.43
-15.17
-17.44
-19.53
-21.74
-24.42
-27.88
-32.29
-37.53
-43.0
-47.64
-50.18
-49.55
-45.24
-37.59
-27.62
-16.77
-6.39
2.57
9.66
14.84
18.25
20.08
20.55
19.98
18.84
17.73
17.2
17.61
18.97
20.98
23.19
25.12
26.47
27.15
27.21
26.75
25.83
24.5
22.73
20.56
18.01
15.13
11.96
8.61
5.19
1.82
-1.37
-4.3
-6.93
-9.33
-11.71
-14.39
-17.71
-21.99
-27.21
-32.96
-38.36
-42.22
-43.36
-41.0
-35.06
-26.22
-15.72
-4.98
4.82
12.98
19.22
23.55
26.03
26.75
25.86
23.72
20.91
18.18
16.19
15.37
15.75
17.05
18.83
20.61
22.01
22.75
22.74
21.96
20.57
18.77
16.72
14.51
12.08
9.3
6.06
2.37
-1.58
-5.47
-8.98
-11.88
-14.18
-16.13
-18.14
-20.69
-24.14
-28.64
-34.0
-39.61
-44.53
-47.65
-47.97
-44.96
-38.7
-29.96
-19.94
-9.92
-0.93
6.45
12.07
16.06
18.59
19.82
19.87
18.95
17.41
15.75
14.52
14.11
14.59
15.75
17.11
18.2
18.7
18.59
18.04
17.31
16.54
15.67
14.45
12.55
9.77
6.15
1.98
-2.3
-6.28
-9.71
-12.58
-15.09
-17.51
-20.15
-23.31
-27.21
-31.96
-37.38
-42.92
-47.64
-50.36
-50.08
-46.29
-39.24
-29.83
-19.36
-9.05
0.17
7.87
13.95
18.5
21.63
23.41
23.97
23.5
22.4
21.21
20.45
20.5
21.43
22.98
24.63
25.82
26.17
25.61
24.38
22.86
21.34
19.92
18.41
16.5
13.92
10.56
6.59
2.34
-1.83
-5.61
-8.87
-11.68
-14.25
-16.83
-19.73
-23.2
-27.43
-32.44
-37.97
-43.34
-47.55
-49.45
-48.11
-43.2
-35.16
-25.11
-14.46
-4.51
3.92
10.58
15.58
19.14
21.43
22.53
22.54
21.72
20.52
19.49
19.07
19.44
20.46
21.76
22.94
23.69
23.89
23.6
22.92
21.98
20.8
19.32
17.45
15.08
12.14
8.69
4.89
1.06
-2.44
-5.36
-7.64
-9.5
-11.38
-13.8
-17.17
-21.66
-27.1
-32.95
-38.34
-42.19
-43.49
-41.54
-36.26
-28.23
-18.56
-8.54
0.71
8.53
14.73
19.35
22.55
24.41
24.96
24.32
22.8
20.92
19.25
18.32
18.4
19.38
20.85
22.21
22.93
22.72
21.63
20.01
18.29
16.69
15.17
13.45
11.14
8.05
4.22
0.01
-4.18
-7.96
-11.21
-14.0
-16.55
-19.14
-22.03
-25.44
-29.51
-34.26
-39.39
-44.27
-47.91
-49.24
-47.42
-42.24
-34.21
-24.49
-14.43
-5.21
2.51
8.6
13.25
16.71
19.14
20.53
20.92
20.5
19.67
18.97
18.81
19.4
20.56
21.89
22.89
23.23
22.84
21.89
20.7
19.51
18.44
17.32
15.85
13.71
10.73
7.04
2.99
-0.96
-4.44
-7.28
-9.64
-11.87
-14.36
-17.43
-21.28
-25.96
-31.36
-37.14
-42.63
-46.87
-48.76
-47.41
-42.52
-34.56
-24.62
-14.1
-4.29
3.98
10.44
15.24
18.72
21.21
22.86
23.68
23.69
23.0
21.92
20.9
20.35
20.47
21.16
22.06
22.76
23.0
22.74
22.12
21.3
20.26
18.77
16.57
13.46
9.52
5.12
0.76
-3.1
-6.23
-8.72
-10.82
-12.92
-15.33
-18.31
-21.97
-26.31
-31.09
-35.77
-39.57
-41.57
-40.96
-37.35
-30.96
-22.55
-13.24
-4.17
3.84
10.31
15.18
18.58
20.65
21.5
21.26
20.16
18.63
17.17
16.26
16.1
16.63
17.49
18.3
18.79
18.88
18.64
18.12
17.31
16.03
14.06
11.23
7.61
3.49
-0.72
-4.57
-7.81
-10.46
-12.79
-15.27
-18.38
-22.46
-27.57
-33.36
-39.04
-43.52
-45.65
-44.56
-40.01
-32.47
-23.02
-12.96
-3.47
4.71
11.22
16.06
19.27
20.93
21.19
20.32
18.81
17.24
16.15
15.84
16.29
17.19
18.15
18.8
18.97
18.71
18.19
17.54
16.8
15.83
14.34
12.08
8.94
5.11
1.01
-2.87
-6.13
-8.72
-10.89
-13.16
-16.04
-19.89
-24.77
-30.41
-36.15
-41.09
-44.19
-44.55
-41.67
-35.68
-27.33
-17.83
-8.45
-0.16
6.54
11.64
15.33
17.85
19.31
19.8
19.43
18.54
17.55
16.9
16.87
17.41
18.26
19.05
19.5
19.52
19.19
18.66
18.01
17.2
16.05
14.32
11.86
8.62
4.81
0.8
-2.99
-6.2
-8.72
-10.72
-12.62
-14.97
-18.25
-22.75
-28.28
-34.26
-39.68
-43.34
-44.22
-41.75
-36.05
-27.85
-18.31
-8.68
0.04
7.2
12.54
16.1
18.04
18.67
18.33
17.42
16.36
15.5
15.08
15.19
15.74
16.52
17.22
17.62
17.62
17.3
16.81
16.21
15.43
14.22
12.33
9.61
6.17
2.36
-1.33
-4.54
-7.1
-9.17
-11.13
-13.54
-16.94
-21.61
-27.45
-33.8
-39.56
-43.38
-44.14
-41.27
-35.01
-26.34
-16.63
-7.22
0.95
7.51
12.51
16.21
18.83
20.5
21.3
21.36
20.95
20.47
20.27
20.57
21.31
22.18
22.77
22.74
22.02
20.76
19.29
17.91
16.67
15.35
13.54
10.9
7.41
3.38
-0.66
-4.22
-7.08
-9.38
-11.5
-13.96
-17.16
-21.36
-26.55
-32.46
-38.46
-43.64
-46.89
-47.26
-44.27
-38.12
-29.66
-20.11
-10.64
-2.1
5.13
10.99
15.59
19.0
21.26
22.44
22.74
22.51
22.17
22.1
22.51
23.37
24.51
25.63
26.46
26.8
26.53
25.66
24.28
22.53
20.59
18.56
16.42
14.08
11.38
8.24
4.71
1.05
-2.41
-5.42
-7.93
-10.12
-12.36
-15.04
-18.47
-22.78
-27.82
-33.16
-38.1
-41.69
-42.98
-41.31
-36.51
-29.11
-20.14
-10.85
-2.29
4.9
10.56
14.87
18.06
20.27
21.52
21.82
21.3
20.28
19.24
18.61
18.66
19.36
20.4
21.31
21.71
21.39
20.42
19.05
17.53
15.98
14.25
12.13
9.4
6.05
2.28
-1.51
-4.94
-7.78
-10.05
-12.0
-14.04
-16.61
-20.07
-24.56
-29.9
-35.53
-40.54
-43.87
-44.53
-41.97
-36.24
-28.02
-18.49
-8.9
-0.33
6.62
11.85
15.61
18.3
20.22
21.5
22.13
22.12
21.58
20.83
20.26
20.17
20.65
21.54
22.53
23.28
23.6
23.43
22.85
21.99
20.9
19.59
17.99
16.02
13.64
10.94
8.02
5.1
2.32
-0.21
-2.53
-4.76
-7.08
-9.7
-12.78
-16.46
-20.84
-25.92
-31.53
-37.13
-41.81
-44.5
-44.26
-40.67
-34.13
-25.63
-16.54
-8.03
-0.8
5.0
9.6
13.28
16.16
18.18
19.26
19.44
19.0
18.39
18.02
18.16
18.78
19.66
20.47
20.93
20.93
20.49
19.76
18.84
17.8
16.61
15.18
13.47
11.46
9.18
6.71
4.13
1.5
-1.14
-3.8
-6.45
-9.1
-11.74
-14.41
-17.23
-20.38
-24.05
-28.35
-33.11
-37.79
-41.53
-43.34
-42.43
-38.53
-32.04
-23.88
-15.16
-6.9
0.3
6.2
10.88
14.42
16.86
18.2
18.51
18.02
17.18
16.49
16.31
16.77
17.73
18.87
19.87
20.47
20.58
20.17
19.33
18.15
16.75
15.16
13.38
11.31
8.85
5.92
2.57
-0.98
-4.48
-7.63
-10.29
-12.53
-14.59
-16.88
-19.78
-23.59
-28.28
-33.46
-38.37
-42.06
-43.6
-42.33
-38.16
-31.55
-23.39
-14.75
-6.55
0.61
6.49
11.11
14.54
16.84
18.0
18.12
17.47
16.47
15.62
15.31
15.64
16.47
17.47
18.29
18.72
18.72
18.41
17.92
17.36
16.76
16.04
15.04
13.59
11.6
9.07
6.13
3.02
-0.03
-2.84
-5.35
-7.61
-9.74
-11.95
-14.48
-17.62
-21.6
-26.36
-31.46
-36.03
-38.93
-39.16
-36.21
-30.31
-22.33
-13.49
-4.97
2.47
8.5
13.18
16.69
19.17
20.66
21.2
20.85
19.86
18.57
17.36
16.58
16.37
16.72
17.37
18.01
18.31
18.06
17.26
16.04
14.65
13.2
11.7
10.01
7.96
5.45
2.55
-0.57
-3.69
-6.63
-9.31
-11.76
-14.03
-16.23
-18.48
-21.02
-24.13
-28.07
-32.86
-38.14
-43.1
-46.65
-47.75
-45.71
-40.54
-32.87
-23.83
-14.62
-6.23
0.79
6.27
10.32
13.16
14.98
15.92
16.14
15.83
15.26
14.72
14.49
14.67
15.25
16.04
16.8
17.27
17.3
16.89
16.1
15.06
13.87
12.49
10.81
8.67
5.94
2.71
-0.81
-4.25
-7.29
-9.75
-11.7
-13.41
-15.3
-17.77
-21.16
