-48.48
-45.92
-40.04
-31.54
-21.59
-11.47
-2.21
5.52
11.55
15.96
19.03
21.02
22.17
22.66
22.71
22.54
22.38
22.42
22.72
23.28
24.03
24.82
25.55
26.08
26.28
26.0
25.13
23.64
21.55
19.01
16.22
13.34
10.47
7.65
4.83
1.95
-1.0
-4.0
-6.94
-9.76
-12.39
-14.83
-17.17
-19.61
-22.45
-26.03
-30.57
-35.94
-41.5
-46.21
-48.78
-48.21
-44.1
-36.88
-27.61
-17.7
-8.36
-0.37
6.01
10.87
14.41
16.82
18.19
18.63
18.35
17.68
17.03
16.71
16.91
17.59
18.52
19.43
20.05
20.24
19.98
19.32
18.39
17.29
16.07
14.66
12.98
10.86
8.22
5.06
1.55
-2.02
-5.35
-8.18
-10.46
-12.27
-13.93
-15.79
-18.26
-21.65
-26.06
-31.29
-36.73
-41.39
-44.14
-43.97
-40.39
-33.59
-24.43
-14.21
-4.22
4.58
11.68
17.03
20.82
23.31
24.71
25.2
25.01
24.46
23.95
23.81
24.22
25.14
26.3
27.34
27.91
27.81
27.0
25.62
23.88
21.99
20.07
18.09
15.91
13.32
10.14
6.36
2.13
-2.22
-6.33
-9.91
-12.9
-15.44
-17.88
-20.66
-24.13
-28.47
-33.55
-38.88
-43.67
-46.94
-47.78
-45.55
-40.14
-32.1
-22.45
-12.44
-3.2
4.59
10.69
15.22
18.39
20.4
21.34
21.35
20.68
19.75
19.03
18.87
19.34
20.26
21.28
22.03
22.32
22.12
21.54
20.68
19.62
18.29
16.56
14.32
11.51
8.2
4.58
0.93
-2.48
-5.43
-7.85
-9.85
-11.66
-13.64
-16.17
-19.58
-23.98
-29.2
-34.69
-39.56
-42.76
-43.33
-40.72
-34.98
-26.83
-17.39
-7.89
0.66
7.66
12.95
16.61
18.83
19.82
19.8
19.11
18.16
17.41
17.22
17.69
18.63
19.68
20.41
20.54
20.05
19.12
18.04
17.04
16.1
15.0
13.37
10.89
7.45
3.26
-1.26
-5.59
-9.33
-12.29
-14.57
-16.53
-18.67
-21.51
-25.41
-30.34
-35.78
-40.72
-43.95
-44.42
-41.56
-35.55
-27.21
-17.73
-8.3
0.19
7.26
12.79
16.87
19.66
21.27
21.85
21.59
20.79
19.84
19.15
19.01
19.45
20.29
21.18
21.8
21.91
21.53
20.8
19.89
18.93
17.86
16.51
14.64
12.07
8.84
5.19
1.51
-1.8
-4.54
-6.83
-9.03
-11.67
-15.11
-19.59
-24.96
-30.79
-36.38
-40.83
-43.23
-42.85
-39.34
-32.9
-24.31
-14.71
-5.28
3.05
9.8
14.9
18.53
20.93
22.33
22.9
22.88
22.55
22.27
22.37
23.01
24.12
25.44
26.65
27.47
27.8
27.7
27.31
26.76
26.12
25.3
24.18
22.62
20.54
18.01
15.17
12.26
9.52
7.1
5.1
3.5
2.19
0.98
-0.45
-2.38
-4.96
-8.0
-10.78
-12.22
-11.11
-6.62
1.36
12.15
24.55
37.26
49.29
60.04
69.25
76.81
82.72
87.1
90.26
92.73
95.06
97.62
100.47
103.26
105.47
106.53
106.02
103.7
99.61
93.91
86.95
79.16
70.97
62.76
54.76
47.08
39.7
32.59
25.73
19.14
12.9
7.08
1.76
-3.06
-7.38
-11.28
-14.85
-18.26
-21.78
-25.82
-30.82
-37.26
-45.4
-55.18
-66.14
-77.45
-88.12
-97.25
-104.2
-108.73
-110.9
-110.99
-109.24
-105.84
-100.95
-94.74
-87.5
-79.61
-71.52
-63.62
-56.21
-49.42
-43.29
-37.68
-32.27
-26.56
-19.87
-11.57
-1.43
10.08
21.63
31.24
36.85
36.82
30.47
18.19
1.24
-18.56
-39.18
-58.67
-75.26
-87.66
-95.28
-98.4
-98.1
-95.98
-93.53
-91.7
-90.73
-90.2
-89.46
-88.03
-85.74
-82.78
-79.57
-76.49
-73.77
-71.41
-69.22
-66.92
-64.25
-61.12
-57.56
-53.76
-49.93
-46.24
-42.79
-39.61
-36.67
-33.93
-31.37
-28.98
-26.83
-25.09
-23.97
-23.68
-24.18
-25.07
-25.59
-24.76
-21.7
-15.98
-7.78
2.02
12.22
21.61
29.36
35.21
39.28
41.94
43.46
43.97
43.46
41.99
39.78
37.29
35.01
33.35
32.42
32.02
31.76
31.25
30.23
28.69
26.79
24.77
22.81
20.89
18.86
16.51
13.63
10.14
6.01
1.24
-4.1
-9.82
-15.42
-20.1
-22.86
-22.82
-19.6
-13.47
-5.36
3.5
11.94
19.16
24.75
28.68
31.11
32.25
32.36
31.78
30.83
29.83
28.97
28.3
27.76
27.23
26.58
25.75
24.75
23.56
22.2
20.63
18.8
16.69
14.25
11.46
8.36
5.03
1.68
-1.48
-4.27
-6.68
-8.95
-11.56
-15.03
-19.66
-25.27
-31.13
-36.02
-38.64
-38.03
-33.91
-26.78
-17.74
-8.09
1.02
8.92
15.4
20.6
24.72
27.9
30.08
31.2
31.28
30.57
29.53
28.66
28.35
28.65
29.33
29.98
30.21
29.83
28.9
27.66
26.34
25.01
23.58
21.81
19.5
16.58
13.16
9.52
5.96
2.67
-0.3
-3.09
-5.95
-9.12
-12.82
-17.23
-22.33
-27.88
-33.37
-37.92
-40.54
-40.37
-37.01
-30.73
-22.35
-13.09
-4.05
3.95
10.53
15.62
19.29
21.61
22.6
22.33
21.06
19.31
17.74
16.99
17.42
18.97
21.14
23.24
24.6
24.9
24.19
22.84
21.29
19.83
18.45
16.95
15.04
12.56
9.56
6.3
3.09
0.2
-2.3
-4.46
-6.5
-8.66
-11.22
-14.41
-18.38
-23.04
-28.03
-32.64
-35.93
-36.98
-35.17
-30.46
-23.33
-14.75
-5.8
2.58
9.73
15.33
19.35
21.85
22.96
22.84
21.72
19.98
18.08
16.52
15.62
15.48
15.85
16.35
16.56
16.3
15.62
14.79
14.1
13.65
13.32
12.76
11.6
9.67
7.09
4.22
1.51
-0.68
-2.27
-3.45
-4.63
-6.3
-8.82
-12.37
-16.82
-21.77
-26.45
-29.91
-31.22
-29.7
-25.22
-18.29
-9.9
-1.21
6.78
13.44
18.57
22.2
24.48
25.51
25.41
24.39
22.8
21.11
19.77
19.12
19.21
19.91
20.91
21.88
22.55
22.82
22.69
22.24
21.58
20.72
19.61
18.09
16.03
13.4
10.32
7.03
3.86
1.06
-1.26
-3.17
-4.89
-6.73
-9.01
-11.98
-15.77
-20.27
-25.1
-29.54
-32.7
-33.69
-31.92
-27.33
-20.49
-12.4
-4.17
3.27
9.41
14.16
17.65
20.01
21.29
21.5
20.75
19.36
17.8
16.61
16.13
16.44
17.32
18.39
19.28
19.7
19.56
18.87
17.77
16.41
14.93
13.39
11.78
10.01
7.98
5.66
3.12
0.57
-1.8
-3.85
-5.56
-7.05
-8.51
-10.18
-12.26
-14.9
-18.12
-21.69
-25.12
-27.64
-28.41
-26.79
-22.6
-16.25
-8.62
-0.78
6.33
12.14
16.45
19.28
20.78
21.04
20.21
18.52
16.33
14.14
12.37
11.27
10.82
10.76
10.75
10.53
10.0
9.27
8.5
7.83
7.25
6.56
5.5
3.78
1.25
-2.03
-5.8
-9.65
-13.16
-16.02
-18.15
-19.72
-21.07
-22.64
-24.76
-27.55
-30.85
-34.13
-36.68
-37.73
-36.69
-33.36
-27.96
-21.07
-13.48
-5.96
0.85
6.51
10.77
13.54
14.85
14.86
13.88
12.34
10.75
9.51
8.91
8.96
9.52
10.29
10.96
11.27
11.11
10.5
9.55
8.42
7.19
5.86
4.33
2.49
0.27
-2.24
-4.76
-6.94
-8.53
-9.46
-10.0
-10.61
-11.78
-13.93
-17.14
-21.19
-25.48
-29.21
-31.52
-31.72
-29.45
-24.86
-18.5
-11.25
-4.04
2.43
7.73
11.77
14.67
16.54
17.48
17.52
16.73
15.32
13.65
12.15
11.22
11.05
11.54
12.38
13.17
13.56
13.44
12.86
11.95
10.86
9.59
8.07
6.15
3.75
0.87
-2.29
-5.46
-8.3
-10.59
-12.29
-13.63
-14.99
-16.84
-19.46
-22.89
-26.88
-30.84
-34.06
-35.8
-35.49
-32.89
-28.1
-21.64
-14.27
-6.85
-0.14
5.35
9.4
11.98
13.17
13.17
12.24
10.79
9.32
8.32
8.06
8.53
9.46
10.4
11.02
11.19
11.0
10.67
10.33
9.91
9.2
7.98
6.11
3.67
0.89
-1.97
-4.72
-7.24
-9.52
-11.59
-13.57
-15.62
-17.97
-20.88
-24.41
-28.32
-32.01
-34.6
-35.26
-33.48
-29.3
-23.24
-16.15
-8.92
-2.25
3.4
7.83
11.0
12.95
13.84
13.87
13.38
12.64
11.96
11.54
11.49
11.81
12.41
13.07
13.57
13.69
13.37
12.7
11.83
10.88
9.81
8.43
6.52
3.99
0.93
-2.35
-5.47
-8.15
-10.3
-12.08
-13.82
-15.87
-18.55
-21.99
-26.09
-30.44
-34.37
-37.0
-37.53
-35.4
-30.61
-23.71
-15.68
-7.62
-0.42
5.43
9.87
13.06
15.2
16.41
16.74
16.3
15.33
14.22
13.37
13.03
13.24
13.82
14.47
14.97
15.17
15.04
14.62
13.97
13.15
12.18
11.03
9.62
7.81
5.47
2.61
-0.6
-3.83
-6.73
-9.04
-10.79
-12.24
-13.82
-15.99
-19.03
-22.99
-27.54
-32.04
-35.62
-37.41
-36.71
-33.28
-27.42
-19.86
-11.58
-3.49
3.7
9.57
13.91
16.65
17.81
17.54
16.22
14.4
12.71
11.65
11.48
12.08
13.1
14.1
14.75
14.98
14.88
14.61
14.23
13.64
12.62
10.95
8.57
5.58
2.24
-1.16
-4.39
-7.35
-10.02
-12.48
-14.93
-17.67
-21.04
-25.22
-30.11
-35.06
-39.06
-40.91
-39.8
-35.48
-28.51
-19.95
-11.0
-2.65
4.57
10.47
15.11
18.48
20.55
21.3
20.86
19.6
18.07
16.88
16.46
16.92
18.04
19.38
20.46
20.98
20.85
20.21
19.26
18.1
16.69
14.85
12.41
9.34
5.79
2.09
-1.4
-4.42
-6.94
-9.14
-11.39
-14.07
-17.52
-21.9
-27.07
-32.51
-37.37
-40.61
-41.29
-38.88
-33.47
-25.75
-16.82
-7.81
0.41
7.32
12.76
16.72
19.26
20.5
20.65
20.04
19.13
18.35
17.99
18.15
18.66
19.28
19.8
20.07
20.15
20.13
20.11
20.03
19.74
18.95
17.39
14.96
11.75
8.04
4.23
0.67
-2.41
-4.98
-7.21
-9.41
-12.0
-15.35
-19.67
-24.8
-30.2
-34.95
-37.98
-38.41
-35.84
-30.47
-23.03
-14.53
-5.96
1.91
8.65
14.01
17.92
20.32
21.27
20.94
19.71
18.09
16.65
15.82
15.77
16.33
17.15
17.82
18.06
17.85
17.36
16.8
16.28
15.68
14.69
12.97
10.34
6.9
3.0
-0.86
-4.31
-7.17
-9.59
-11.95
-14.74
-18.36
-22.95
-28.32
-33.86
-38.57
-41.32
-41.1
-37.42
-30.48
-21.22
-10.94
-0.99
7.72
14.79
20.22
24.22
26.92
28.35
28.62
28.03
27.09
26.36
26.21
26.63
27.26
27.56
27.16
25.99
24.3
22.52
20.98
19.76
18.69
17.46
15.77
13.46
10.55
7.22
3.72
0.29
-2.89
-5.77
-8.43
-11.05
-13.9
-17.31
-21.57
-26.77
-32.68
-38.62
-43.57
-46.32
-45.96
-42.13
-35.21
-26.23
-16.49
-7.17
0.98
7.73
13.2
17.55
20.9
23.2
24.41
24.61
24.13
23.43
23.04
23.28
24.14
25.36
26.5
27.14
27.1
26.43
25.34
24.04
22.64
21.1
19.27
16.98
14.18
10.93
7.42
3.9
0.6
-2.34
-4.94
-7.33
-9.76
-12.54
-15.96
-20.18
-25.13
-30.42
-35.32
-38.91
-40.23
-38.62
-33.96
-26.7
-17.82
-8.47
0.3
7.83
13.89
18.49
21.75
23.72
24.42
23.9
22.48
20.71
19.24
18.64
19.12
20.48
22.16
23.54
24.15
23.85
22.83
21.41
19.93
18.5
17.03
15.28
13.02
10.11
6.65
2.9
-0.78
-4.06
-6.78
-9.01
-11.03
-13.26
-16.16
-20.03
-24.9
-30.42
-35.85
-40.18
-42.34
-41.57
-37.63
-30.93
-22.37
-13.1
-4.19
3.65
10.06
14.96
18.44
20.64
21.72
21.92
21.57
21.01
20.57
20.47
20.78
21.43
22.25
23.04
23.58
23.7
23.34
22.5
21.3
19.88
18.38
16.8
15.1
13.08
10.59
7.58
4.14
0.53
-2.94
-6.05
-8.74
-11.17
-13.58
-16.28
-19.49
-23.35
-27.85
-32.78
-37.67
-41.8
-44.28
-44.29
-41.34
-35.52
-27.47
-18.27
-9.07
-0.83
5.94
11.13
14.89
17.47
19.05
19.77
19.76
19.24
18.53
17.99
17.88
18.27
18.95
19.6
19.9
19.7
19.04
18.15
17.23
16.39
15.53
14.42
12.78
10.48
7.57
4.28
0.95
-2.1
-4.7
-6.93
-8.96
-11.07
-13.49
-16.37
-19.83
-23.85
-28.34
-32.9
-36.85
-39.3
-39.36
-36.54
-30.98
-23.37
-14.83
-6.46
0.97
7.14
12.06
15.86
18.59
20.25
20.81
20.39
19.29
17.97
16.87
16.28
16.29
16.78
17.5
18.16
18.5
18.37
17.74
16.68
15.34
13.85
12.22
10.38
8.2
5.59
2.57
-0.67
-3.84
-6.71
-9.14
-11.19
-13.04
-14.94
-17.11
-19.79
-23.14
-27.22
-31.89
-36.62
-40.58
-42.73
-42.2
-38.6
-32.24
-24.05
-15.24
-6.95
0.1
5.66
9.84
12.89
15.08
16.52
17.31
17.59
17.54
17.42
17.45
17.78
18.41
19.17
19.88
20.36
20.55
20.4
19.91
19.03
17.74
16.03
14.0
11.83
9.7
7.72
5.87
4.01
2.01
-0.18
-2.52
-4.9
-7.25
-9.52
-11.77
-14.11
-16.69
-19.72
-23.39
-27.77
-32.66
-37.45
-41.21
-42.9
-41.72
-37.42
-30.49
-21.94
-13.03
-4.87
1.88
7.04
10.76
13.34
15.04
16.0
16.32
16.12
15.62
15.07
14.75
14.8
15.23
15.9
16.62
17.16
17.38
17.2
16.63
15.75
14.62
13.28
11.71
9.81
7.47
4.63
1.4
-1.99
-5.18
-7.89
-9.99
-11.59
-12.98
-14.56
-16.65
-19.48
-23.04
-27.2
-31.54
-35.46
-38.14
-38.75
-36.71
-31.89
-24.76
-16.24
-7.45
0.61
7.29
12.33
15.84
18.09
19.41
20.02
20.11
19.77
19.13
18.38
17.76
17.57
17.93
18.78
19.82
20.63
20.84
20.26
19.0
17.29
15.38
13.42
11.37
9.12
6.54
3.67
0.7
-2.12
-4.58
-6.6
-8.3
-9.9
-11.66
-13.81
-16.5
-19.8
-23.67
-27.93
-32.16
-35.67
-37.65
-37.32
-34.31
-28.73
-21.29
-13.02
-5.01
1.95
7.46
11.55
14.44
16.4
17.57
18.0
17.75
16.98
16.04
15.32
15.18
15.73
16.82
18.12
19.22
19.79
19.72
19.03
17.88
16.43
14.81
13.02
11.01
8.71
6.09
3.22
0.22
-2.74
-5.56
-8.18
-10.63
-12.94
-15.17
-17.43
-19.84
-22.62
-25.95
-29.83
-33.91
-37.47
-39.53
-39.25
-36.17
-30.48
-22.94
-14.65
-6.67
0.3
5.93
10.26
13.44
15.63
16.94
17.44
17.26
16.62
15.81
15.1
14.73
14.83
15.37
16.21
17.06
17.66
17.79
17.34
16.35
14.96
13.31
11.54
9.63
7.52
5.14
2.49
-0.35
-3.2
-5.88
-8.29
-10.43
-12.39
-14.32
-16.38
-18.76
-21.62
-25.06
-29.01
-33.18
-36.95
-39.53
-40.1
-38.14
-33.62
-26.99
-19.09
-10.86
-3.13
3.54
8.85
12.74
15.24
16.48
16.66
16.06
15.05
14.07
13.51
13.6
14.35
15.49
16.61
17.31
17.37
16.81
15.86
14.77
13.69
12.57
11.17
9.23
6.62
3.47
0.08
-3.15
-5.94
-8.22
-10.17
-12.1
-14.31
-17.06
-20.47
-24.53
-29.09
-33.8
-38.07
-41.11
-42.11
-40.45
-35.99
-29.16
-20.79
-11.98
-3.67
3.49
9.27
13.71
16.94
19.11
20.28
20.52
20.01
19.04
18.03
17.38
17.34
17.96
19.02
20.15
20.99
21.34
21.15
20.53
19.6
18.42
16.93
15.02
12.58
9.63
6.29
2.79
-0.66
-3.86
-6.76
-9.41
-11.9
-14.4
-17.09
-20.15
-23.8
-28.09
-32.84
-37.48
-41.13
-42.72
-41.44
-37.03
-29.9
-21.08
-11.81
-3.18
4.16
10.03
14.54
17.89
20.23
21.61
22.13
21.93
21.3
20.6
20.13
20.08
20.44
21.06
21.7
22.14
22.19
21.76
20.83
19.48
17.82
15.97
14.03
12.0
9.84
7.48
4.84
1.97
-1.02
-3.95
-6.67
-9.14
-11.4
-13.59
-15.89
-18.48
-21.55
-25.23
-29.46
-33.91
-37.9
-40.54
-40.95
-38.56
-33.37
-25.97
-17.32
-8.49
-0.36
6.57
12.12
16.34
19.3
21.09
21.76
21.45
20.47
19.28
18.38
18.13
18.65
19.71
20.88
21.72
21.93
21.52
20.65
19.56
18.38
17.13
15.66
13.86
11.67
9.1
6.25
3.23
0.17
-2.81
-5.6
-8.13
-10.42
-12.61
-14.93
-17.66
-21.05
-25.19
-29.9
-34.71
-38.79
-41.19
-41.06
-37.93
-31.91
-23.72
-14.48
-5.41
2.55
8.85
13.42
16.51
18.46
19.53
19.91
19.7
19.03
18.12
17.28
16.82
16.92
17.56
18.55
19.59
20.4
20.81
20.75
20.26
19.38
18.12
16.5
14.55
12.31
9.88
7.31
4.68
2.0
-0.71
-3.39
-5.99
-8.4
-10.6
-12.64
-14.7
-17.05
-19.97
-23.61
-27.88
-32.39
-36.43
-39.13
-39.63
-37.37
-32.27
-24.75
-15.71
