-27.45
-32.42
-37.98
-43.45
-47.77
-49.81
-48.7
-44.17
-36.64
-27.11
-16.79
-6.82
2.01
9.3
14.95
19.02
21.63
22.9
23.0
22.21
20.85
19.32
18.04
17.3
17.26
17.89
18.92
20.0
20.76
20.96
20.58
19.8
18.86
17.9
16.92
15.72
14.02
11.64
8.56
4.95
1.11
-2.66
-6.13
-9.2
-11.88
-14.28
-16.58
-19.04
-21.97
-25.62
-30.03
-34.89
-39.49
-42.76
-43.67
-41.44
-35.95
-27.71
-17.78
-7.44
2.18
10.28
16.45
20.65
23.07
23.99
23.78
22.83
21.51
20.21
19.22
18.79
19.02
19.85
21.06
22.28
23.13
23.3
22.73
21.57
20.06
18.46
16.83
15.09
13.01
10.41
7.23
3.59
-0.27
-4.08
-7.63
-10.78
-13.53
-15.96
-18.26
-20.71
-23.63
-27.29
-31.78
-36.82
-41.73
-45.56
-47.23
-45.96
-41.5
-34.24
-25.12
-15.38
-6.16
1.7
7.81
12.11
14.81
16.14
16.39
15.84
14.81
13.73
13.01
12.98
13.69
14.96
16.39
17.57
18.26
18.46
18.37
18.21
18.07
17.81
17.15
15.77
13.5
10.39
6.69
2.78
-1.02
-4.43
-7.38
-9.93
-12.27
-14.73
-17.7
-21.55
-26.42
-32.05
-37.64
-42.02
-43.87
-42.27
-37.01
-28.76
-18.79
-8.55
0.74
8.42
14.34
18.66
21.66
23.5
24.32
24.25
23.56
22.62
21.85
21.58
21.89
22.61
23.4
23.95
24.07
23.74
23.11
22.32
21.41
20.35
18.97
17.12
14.68
11.64
8.07
4.17
0.25
-3.38
-6.48
-8.99
-11.08
-13.15
-15.68
-19.08
-23.55
-28.91
-34.58
-39.59
-42.76
-43.07
-39.93
-33.42
-24.3
-13.81
-3.27
6.25
14.13
20.2
24.58
27.48
29.09
29.54
28.99
27.7
26.05
24.52
23.53
23.34
23.93
25.09
26.44
27.57
28.2
28.22
27.66
26.67
25.43
24.04
22.46
20.54
18.09
14.96
11.2
7.01
2.73
-1.31
-4.92
-8.06
-10.86
-13.55
-16.41
-19.74
-23.83
-28.81
-34.52
-40.27
-44.98
-47.35
-46.36
-41.7
-33.92
-24.3
-14.37
-5.45
1.68
6.82
10.21
12.24
13.24
13.46
13.07
12.28
11.37
10.7
10.54
11.03
12.07
13.37
14.58
15.4
15.75
15.73
15.47
15.12
14.68
14.02
12.99
11.47
9.43
6.89
3.97
0.85
-2.26
-5.14
-7.67
-9.84
-11.81
-13.87
-16.35
-19.55
-23.64
-28.49
-33.7
-38.46
-41.77
-42.59
-40.22
-34.62
-26.41
-16.81
-7.15
1.46
8.39
13.53
17.09
19.37
20.59
20.88
20.38
19.32
18.07
17.03
16.5
16.58
17.14
17.92
18.61
18.98
18.94
18.51
17.79
16.89
15.8
14.45
12.67
10.29
7.25
3.64
-0.28
-4.14
-7.63
-10.52
-12.83
-14.73
-16.55
-18.69
-21.54
-25.32
-30.03
-35.28
-40.26
-43.91
-45.14
-43.2
-37.97
-29.99
-20.37
-10.39
-1.19
6.49
12.37
16.54
19.27
20.87
21.58
21.58
21.07
20.24
19.36
18.67
18.35
18.49
19.03
19.76
20.38
20.65
20.4
19.65
18.52
17.15
15.65
14.01
12.1
9.77
6.95
3.7
0.25
-3.06
-5.96
-8.31
-10.17
-11.77
-13.39
-15.23
-17.42
-20.06
-23.25
-27.15
-31.73
-36.64
-41.05
-43.78
-43.67
-40.1
-33.23
-24.06
-14.07
-4.66
3.22
9.25
13.56
16.52
18.36
19.23
19.16
18.29
16.89
15.42
14.31
13.87
14.16
14.99
15.99
16.84
17.28
17.25
16.83
16.16
15.39
14.55
13.57
12.31
10.64
8.49
5.93
3.16
0.39
-2.18
-4.48
-6.5
-8.33
-10.08
-11.9
-14.01
-16.69
-20.17
-24.48
-29.27
-33.68
-36.56
-36.8
-33.73
-27.43
-18.68
-8.72
1.13
9.86
16.92
22.25
26.0
28.44
29.73
30.01
29.46
28.4
27.28
26.53
26.45
27.0
27.79
28.27
27.92
26.53
24.25
21.52
18.82
16.48
14.52
12.76
10.91
8.74
6.15
3.19
0.02
-3.23
-6.39
-9.39
-12.16
-14.72
-17.21
-19.85
-22.94
-26.74
-31.27
-36.21
-40.86
-44.21
-45.24
-43.21
-37.94
-29.92
-20.2
-10.06
-0.67
7.17
13.16
17.38
20.12
21.68
22.27
22.05
21.17
19.9
18.59
17.61
17.26
17.6
18.46
19.5
20.34
20.72
20.56
19.98
19.16
18.25
17.27
16.1
14.52
12.39
9.67
6.52
3.25
0.16
-2.52
-4.73
-6.6
-8.32
-10.15
-12.27
-14.83
-17.93
-21.68
-26.0
-30.59
-34.77
-37.57
-38.01
-35.45
-29.92
-22.18
-13.46
-5.03
2.18
7.82
11.97
14.91
16.85
17.87
17.97
17.24
16.01
14.74
13.92
13.83
14.46
15.5
16.53
17.19
17.31
16.93
16.22
15.32
14.34
13.23
11.86
10.1
7.87
5.23
2.34
-0.58
-3.3
-5.69
-7.73
-9.52
-11.22
-13.07
-15.3
-18.12
-21.68
-25.94
-30.49
-34.62
-37.38
-37.82
-35.4
-30.15
-22.78
-14.38
-6.13
1.11
6.92
11.28
14.38
16.42
17.51
17.72
17.19
16.15
14.96
13.98
13.48
13.51
13.98
14.66
15.28
15.69
15.79
15.58
15.08
14.33
13.3
12.01
10.46
8.68
6.72
4.61
2.36
-0.05
-2.56
-5.1
-7.55
-9.8
-11.8
-13.59
-15.3
-17.17
-19.5
-22.54
-26.38
-30.75
-35.0
-38.15
-39.17
-37.32
-32.53
-25.4
-17.06
-8.76
-1.49
4.28
8.52
11.54
13.68
15.19
16.15
16.63
16.72
16.59
16.4
16.3
16.3
16.38
16.46
16.53
16.63
16.77
16.89
16.82
16.36
15.34
13.8
11.89
9.85
7.9
6.09
4.36
2.6
0.67
-1.45
-3.74
-6.1
-8.44
-10.72
-12.91
-15.05
-17.21
-19.51
-22.12
-25.18
-28.75
-32.63
-36.32
-39.05
-39.91
-38.19
-33.6
-26.5
-17.84
-8.88
-0.85
5.43
9.68
12.12
13.22
13.49
13.27
12.74
11.99
11.17
10.45
10.05
10.09
10.54
11.2
11.84
12.31
12.53
12.55
12.37
11.96
11.24
10.18
8.82
7.3
5.73
4.16
2.53
0.73
-1.29
-3.43
-5.57
-7.52
-9.26
-10.88
-12.61
-14.66
-17.2
-20.28
-23.86
-27.77
-31.66
-35.02
-37.15
-37.34
-35.14
-30.49
-23.86
-16.06
-8.09
-0.79
5.33
10.07
13.49
15.73
16.96
17.29
16.86
15.85
14.56
13.37
12.59
12.44
12.91
13.79
14.75
15.46
15.73
15.5
14.84
13.89
12.75
11.47
10.05
8.44
6.63
4.63
2.52
0.36
-1.75
-3.8
-5.82
-7.85
-9.93
-12.01
-13.99
-15.84
-17.66
-19.75
-22.48
-26.06
-30.35
-34.71
-38.17
-39.67
-38.48
-34.39
-27.84
-19.74
-11.09
-2.84
4.34
10.12
14.4
17.3
19.02
19.82
19.97
19.71
19.2
18.61
18.07
17.7
17.62
17.85
18.31
18.84
19.26
19.45
19.34
18.91
18.19
17.14
15.75
14.03
12.04
9.9
7.7
5.52
3.32
1.03
-1.38
-3.85
-6.24
-8.39
-10.18
-11.65
-13.0
-14.55
-16.65
-19.59
-23.46
-28.05
-32.77
-36.7
-38.83
-38.31
-34.76
-28.44
-20.21
-11.2
-2.56
4.87
10.69
14.83
17.46
18.81
19.16
18.76
17.89
16.85
15.89
15.23
14.96
15.13
15.68
16.49
17.41
18.27
18.94
19.3
19.26
18.77
17.8
16.33
14.4
12.09
9.54
6.88
4.21
1.59
-0.93
-3.27
-5.41
-7.32
-9.08
-10.83
-12.69
-14.8
-17.21
-20.03
-23.28
-26.89
-30.53
-33.53
-34.98
-34.03
-30.26
-23.92
-15.89
-7.41
0.42
6.89
11.83
15.38
17.8
19.26
19.84
19.63
18.78
17.6
16.41
15.54
15.2
15.44
16.16
17.11
17.99
18.54
18.58
18.04
17.01
15.6
13.92
12.04
9.99
7.81
5.54
3.23
0.94
-1.32
-3.54
-5.72
-7.82
-9.8
-11.59
-13.2
-14.71
-16.3
-18.16
-20.48
-23.35
-26.69
-30.14
-33.04
-34.59
-34.01
-30.85
-25.22
-17.74
-9.46
-1.42
5.58
11.11
15.15
17.91
19.61
20.43
20.53
20.02
19.08
17.9
16.69
15.61
14.77
14.18
13.78
13.51
13.29
13.1
12.93
12.77
12.56
12.16
11.42
10.22
8.57
6.63
4.62
2.76
1.15
-0.28
-1.72
-3.39
-5.4
-7.7
-10.08
-12.28
-14.14
-15.64
-17.02
-18.65
-20.88
-23.9
-27.58
-31.36
-34.38
-35.69
-34.56
-30.76
-24.63
-17.03
-9.03
-1.58
4.68
9.51
12.94
15.14
16.24
16.36
15.64
14.33
12.83
11.55
10.8
10.67
11.02
11.58
12.14
12.6
12.97
13.32
13.63
13.71
13.36
12.37
10.76
8.7
6.52
4.48
2.75
1.29
-0.09
-1.59
-3.39
-5.47
-7.67
-9.76
-11.49
-12.81
-13.86
-15.04
-16.82
-19.57
-23.31
-27.66
-31.82
-34.85
-35.91
-34.55
-30.74
-24.92
-17.79
-10.17
-2.8
3.66
8.82
12.54
14.87
16.08
16.49
16.39
15.98
15.37
14.64
13.95
13.45
13.33
13.65
14.39
15.4
16.47
17.35
17.8
17.63
16.76
15.24
13.24
11.0
8.77
6.74
4.95
3.37
1.9
0.42
-1.19
-2.98
-4.94
-6.96
-8.88
-10.65
-12.3
-14.04
-16.14
-18.83
-22.2
-26.1
-30.15
-33.72
-36.08
-36.53
-34.57
-30.1
-23.53
-15.68
-7.56
-0.13
5.94
10.39
13.27
14.88
15.51
15.43
14.87
13.99
12.98
12.02
11.28
10.89
10.89
11.23
11.82
12.48
13.08
13.53
13.76
13.71
13.37
12.68
11.63
10.27
8.67
6.99
5.36
3.84
2.43
1.0
-0.57
-2.37
-4.37
-6.45
-8.45
-10.28
-11.94
-13.65
-15.69
-18.37
-21.79
-25.74
-29.64
-32.64
-33.88
-32.72
-28.95
-22.95
-15.55
-7.8
-0.72
5.02
9.15
11.78
13.27
13.98
14.22
14.11
13.72
13.06
12.25
11.48
10.98
10.93
11.38
12.22
13.24
14.2
14.91
15.27
15.23
14.77
13.9
12.6
10.91
8.93
6.82
4.77
2.87
1.12
-0.59
-2.39
-4.35
-6.43
-8.49
-10.46
-12.33
-14.25
-16.45
-19.14
-22.39
-26.08
-29.83
-32.99
-34.76
-34.38
-31.42
-25.92
-18.52
-10.26
-2.27
4.53
9.66
13.1
15.14
16.15
16.43
16.21
15.62
14.76
13.79
12.89
12.23
11.92
12.03
12.49
13.19
13.93
14.53
14.83
14.74
14.26
13.39
12.2
10.74
9.13
7.43
5.69
3.91
2.05
0.06
-2.08
-4.3
-6.46
-8.45
-10.22
-11.85
-13.56
-15.69
-18.53
-22.2
-26.51
-30.89
-34.46
-36.32
-35.75
-32.51
-26.9
-19.69
-11.86
-4.36
2.13
7.27
11.03
13.57
15.14
15.9
15.97
15.47
14.56
13.5
12.65
12.28
12.52
13.28
14.31
15.32
16.06
16.44
16.44
16.07
15.33
14.23
12.78
11.05
9.15
7.18
5.22
3.24
1.21
-0.89
-3.01
-5.07
-7.0
-8.77
-10.45
-12.18
-14.15
-16.52
-19.38
-22.66
-26.09
-29.18
-31.22
-31.52
-29.57
-25.26
-19.04
-11.78
-4.5
1.94
7.08
10.83
13.4
15.06
15.99
16.29
16.03
15.33
14.4
13.5
12.88
12.67
12.91
13.49
14.2
14.84
15.2
15.19
14.78
14.05
13.1
12.04
10.9
9.61
8.04
6.11
3.79
1.18
-1.55
-4.19
-6.63
-8.83
-10.87
-12.92
-15.16
-17.76
-20.79
-24.24
-27.89
-31.28
-33.75
-34.59
-33.2
-29.37
-23.33
-15.79
-7.68
0.02
6.59
11.6
14.97
16.88
17.61
17.51
16.88
16.05
15.26
14.73
14.58
14.77
15.2
15.66
16.0
16.18
16.25
16.34
16.49
16.64
16.62
16.23
15.33
13.93
12.14
10.11
7.96
5.72
3.39
0.95
-1.56
-4.08
-6.47
-8.67
-10.66
-12.55
-14.53
-16.87
-19.82
-23.44
-27.5
-31.4
-34.31
-35.38
-34.0
-30.08
-24.04
-16.7
-9.05
-1.94
4.04
8.65
11.89
13.9
14.9
15.1
14.74
14.07
13.37
12.87
12.68
12.81
13.19
13.73
14.38
15.11
15.87
16.59
17.14
17.36
17.17
16.54
15.56
14.31
12.85
11.26
9.54
7.72
5.84
3.93
1.97
-0.05
-2.16
-4.33
-6.48
-8.53
-10.45
-12.35
-14.43
-16.98
-20.22
-24.1
-28.25
-31.9
-34.1
-34.02
-31.2
-25.81
-18.53
-10.41
-2.52
4.35
9.79
13.72
16.3
17.75
18.26
18.03
17.25
16.18
15.09
14.25
13.84
13.88
14.27
14.84
15.41
15.87
16.17
16.27
16.12
15.64
14.73
13.43
11.88
10.3
8.85
7.55
6.23
4.67
2.65
0.16
-2.66
-5.53
-8.21
-10.6
-12.72
-14.69
-16.68
-18.88
-21.48
-24.58
-28.14
-31.77
-34.79
-36.34
-35.67
-32.42
-26.8
-19.52
-11.57
-3.9
2.77
8.06
11.86
14.23
15.31
15.33
14.58
13.42
12.23
11.29
10.79
10.7
10.86
11.06
11.17
11.18
11.22
11.48
12.06
12.88
13.64
13.97
13.51
12.13
9.97
7.43
5.0
3.03
1.65
0.66
-0.3
-1.61
-3.43
-5.64
-7.96
-10.11
-11.94
-13.57
-15.27
-17.39
-20.18
-23.69
-27.76
-31.96
-35.64
-38.01
-38.33
-36.1
-31.3
-24.45
-16.41
-8.21
-0.74
5.4
9.98
13.04
14.82
15.67
15.92
15.88
15.75
15.66
15.66
15.77
16.06
16.56
17.29
18.23
19.3
20.46
21.64
22.78
23.73
24.27
24.17
23.24
21.45
19.03
16.31
13.68
11.33
9.28
7.33
5.25
2.89
0.27
-2.49
-5.18
-7.69
-9.98
-12.17
-14.42
-16.99
-20.14
-24.06
-28.73
-33.77
-38.4
-41.55
-42.21
-39.78
-34.33
-26.6
-17.71
-8.88
-1.05
5.28
9.99
13.14
14.91
15.5
15.13
14.13
12.86
11.7
10.96
10.79
11.18
11.98
12.98
14.0
14.89
15.58
16.01
16.1
15.75
14.9
13.54
11.82
9.96
8.18
6.62
5.21
3.81
2.18
0.16
-2.22
-4.84
-7.49
-9.93
-12.06
-13.87
-15.52
-17.29
-19.56
-22.68
-26.86
-31.91
-37.23
-41.84
-44.63
-44.7
-41.67
-35.8
-27.88
-19.0
-10.22
-2.35
4.16
9.14
12.65
14.85
15.95
16.23
16.01
15.63
15.41
15.58
16.21
17.22
18.4
19.53
20.47
21.18
21.73
22.17
22.48
22.54
22.18
21.2
19.56
17.36
14.85
12.35
10.14
8.29
6.71
5.15
3.29
0.96
-1.85
-4.98
-8.18
-11.27
-14.19
-17.02
-20.01
-23.43
-27.53
-32.33
-37.54
-42.43
-46.0
-47.24
-45.45
-40.52
-32.98
-23.86
-14.32
-5.44
2.13
8.11
12.59
15.79
17.99
19.42
20.26
20.61
20.66
20.58
20.57
20.76
21.18
21.76
22.37
22.95
23.49
24.01
24.52
24.84
24.73
23.88
22.1
19.43
16.15
12.72
9.6
7.08
5.2
3.68
2.15
0.24
-2.19
-5.02
-7.95
-10.7
-13.11
-15.32
-17.61
-20.37
-23.9
-28.32
-33.43
-38.72
-43.36
-46.36
-46.77
-44.01
-38.06
-29.58
-19.72
-9.8
-0.93
6.25
11.62
15.41
17.96
19.51
20.22
20.18
19.59
18.78
18.1
17.88
18.22
19.06
20.19
21.38
22.44
23.26
23.7
23.67
23.08
21.9
20.15
17.97
15.45
12.72
9.82
6.78
3.63
0.45
-2.67
-5.62
-8.33
-10.85
-13.28
-15.78
-18.58
-21.91
-25.99
-30.88
-36.34
-41.73
-46.06
-48.21
-47.28
-42.95
-35.58
-26.11
-15.81
-5.87
2.83
9.84
15.08
18.73
21.03
22.25
22.62
22.37
21.77
21.1
20.65
20.62
21.06
21.86
22.79
23.63
24.21
24.45
24.36
23.95
23.18
22.07
20.58
18.74
16.54
14.01
11.15
7.96
4.56
1.08
-2.27
-5.31
-7.9
-10.07
-11.97
-13.95
-16.41
-19.77
-24.28
-29.87
-36.03
-41.78
-45.94
-47.36
-45.35
-39.89
-31.65
-21.8
-11.65
-2.32
5.51
11.61
16.1
19.26
21.38
22.73
23.48
23.82
23.95
24.02
24.19
24.57
25.16
25.95
26.82
27.64
28.22
28.41
28.07
27.16
25.69
23.76
21.46
18.92
16.24
13.51
10.78
8.1
5.47
2.9
0.41
-1.99
-4.27
-6.47
-8.68
-11.09
-13.98
-17.64
-22.22
-27.66
-33.47
-38.83
-42.66
-43.97
-42.15
-37.15
-29.57
-20.46
-11.0
-2.19
5.35
11.4
16.01
19.35
21.56
22.78
23.1
22.66
21.71
20.56
19.59
19.09
19.2
19.87
20.9
21.97
22.78
23.11
22.89
22.18
21.1
19.79
18.29
16.56
14.53
12.19
9.59
6.85
4.12
1.54
-0.83
-2.98
-4.95
-6.82
-8.79
-11.13
-14.19
-18.18
-23.06
-28.35
-33.22
-36.63
-37.69
-35.91
-31.35
-24.61
-16.61
-8.39
-0.84
5.46
10.25
13.54
15.54
16.54
16.83
16.66
16.26
15.88
15.7
15.88
16.46
17.39
18.5
19.63
20.63
21.33
21.65
21.48
20.73
19.4
17.53
15.22
12.63
9.95
7.29
4.77
2.46
0.43
-1.29
-2.67
-3.78
-4.76
-5.82
-7.2
-9.15
-11.8
-15.24
-19.38
-24.01
-28.74
-32.92
-35.77
-36.52
-34.63
-30.02
-23.16
-14.97
-6.56
1.1
7.37
12.05
15.28
17.3
18.4
18.79
18.66
18.16
17.51
16.95
16.68
16.83
17.42
18.3
19.26
20.1
20.64
20.81
20.64
20.15
19.33
18.14
16.59
14.75
12.75
10.82
9.06
7.46
5.88
4.11
2.03
-0.33
-2.8
-5.17
-7.33
-9.28
-11.2
-13.29
-15.79
-18.85
-22.48
-26.51
-30.5
-33.81
-35.61
-35.16
-32.01
-26.26
-18.58
-10.1
-2.05
4.57
9.31
12.23
13.81
14.6
14.99
15.13
15.01
14.61
14.05
13.59
13.48
13.81
14.5
15.3
15.98
16.42
16.65
16.72
16.61
16.21
15.33
13.88
11.92
9.67
7.43
5.38
3.55
1.81
-0.04
-2.13
-4.43
-6.8
-9.06
-11.09
-12.89
-14.63
-16.57
-18.97
-22.04
-25.79
-30.02
-34.25
-37.72
-39.6
-39.16
-36.04
-30.43
-23.05
-14.91
-7.06
-0.26
5.15
9.22
12.16
14.21
15.56
16.28
16.48
16.33
16.06
15.86
15.89
16.17
16.63
17.17
17.7
18.14
18.46
18.59
18.45
17.92
16.89
15.34
13.32
10.98
8.54
6.25
4.27
2.68
1.41
0.27
-0.96
-2.46
-4.29
-6.39
-8.62
-10.84
-12.97
-15.03
-17.18
-19.62
-22.59
-26.25
-30.54
-35.07
-39.14
-41.86
-42.34
-40.1
-35.17
-28.15
-20.02
-11.88
-4.59
1.33
5.77
8.89
10.95
12.2
12.78
12.81
12.39
11.75
11.17
10.92
11.12
11.73
12.54
13.28
13.82
14.16
14.42
14.73
15.04
15.13
14.74
13.63
11.83
9.56
7.19
5.04
3.31
1.98
0.92
-0.07
-1.17
-2.5
-4.11
-6.0
-8.11
-10.36
-12.6
-14.75
-16.79
-18.82
-21.1
-23.92
-27.47
-31.59
-35.73
-38.92
-40.12
-38.57
-34.09
-27.22
-19.02
-10.68
-3.16
3.04
7.83
11.35
13.76
15.22
15.84
15.84
15.53
15.2
15.09
15.26
15.63
16.05
16.41
16.71
17.01
17.37
17.78
18.15
18.29
18.04
17.24
15.86
13.95
11.68
9.27
6.92
4.79
2.86
1.04
-0.88
-3.05
-5.52
-8.14
-10.71
-13.0
-14.94
-16.68
-18.52
-20.86
-24.04
-28.13
-32.88
-37.65
-41.54
-43.59
-43.06
-39.64
-33.6
-25.71
-17.02
-8.56
-1.11
4.91
9.41
12.49
14.33
15.16
15.24
14.87
14.38
14.03
14.02
14.37
15.04
15.88
16.75
17.55
18.22
18.74
19.09
19.26
19.18
18.76
17.87
16.45
14.52
12.2
9.68
7.21
4.93
2.95
1.22
-0.43
-2.18
-4.19
-6.47
-8.92
-11.36
-13.62
-15.67
-17.64
-19.82
-22.58
-26.18
-30.66
-35.7
-40.65
-44.56
-46.46
-45.6
-41.68
-34.98
-26.33
-16.79
-7.47
0.76
7.37
12.2
15.35
17.08
17.76
17.76
17.45
17.12
16.98
17.12
17.55
18.23
19.02
19.85
20.68
21.46
22.15
22.7
23.0
22.91
22.31
21.14
19.41
17.23
14.82
12.36
10.06
8.01
6.21
4.49
2.64
0.44
-2.17
-5.08
-8.01
-10.7
-12.97
-14.87
-16.73
-18.99
-22.08
-26.22
-31.2
-36.39
-40.8
-43.35
-43.17
-39.87
-33.7
-25.47
-16.32
-7.35
0.59
7.04
11.88
15.18
17.09
17.8
17.51
16.53
15.22
13.99
13.15
12.87
13.14
13.84
14.81
15.92
17.02
17.97
18.6
18.73
18.23
17.07
15.34
13.2
10.82
8.32
5.77
3.17
0.56
-2.01
-4.5
-6.87
-9.11
-11.24
-13.29
-15.3
-17.33
-19.6
-22.36
-25.86
-30.18
-35.02
-39.66
-43.08
-44.25
-42.47
-37.64
-30.33
-21.59
-12.64
-4.5
2.22
7.34
11.05
13.66
15.42
16.49
16.93
16.85
16.43
15.95
15.66
15.74
16.19
16.91
17.76
18.65
19.51
20.27
20.8
20.86
20.24
18.83
16.7
14.1
11.33
8.67
6.21
3.93
1.67
-0.7
-3.22
-5.84
-8.41
-10.81
-13.04
-15.21
-17.52
-20.28
-23.72
-27.95
-32.87
-38.07
-42.83
-46.19
-47.17
-45.09
-39.85
-32.0
-22.64
-13.05
-4.31
2.94
8.53
12.61
15.39
17.11
17.96
18.12
17.85
17.38
16.95
16.7
16.74
17.1
17.81
18.82
19.96
20.98
21.61
21.66
21.11
20.03
18.57
16.8
14.71
12.28
9.48
6.38
3.14
-0.04
-3.02
-5.72
-8.17
-10.51
-12.91
-15.57
-18.69
-22.43
-26.91
-32.1
-37.71
-43.17
-47.61
-49.98
-49.45
-45.63
-38.81
-29.87
-20.04
-10.55
-2.28
4.3
9.15
12.41
14.32
15.08
14.89
13.98
12.62
11.18
10.01
9.44
9.67
10.68
12.3
14.23
16.12
17.68
18.72
19.16
19.0
18.35
17.33
16.06
14.6
12.94
11.05
8.94
6.71
4.51
2.41
0.37
-1.83
-4.44
-7.64
-11.5
-15.93
-20.81
-26.0
-31.33
-36.42
-40.66
-43.19
-43.17
-40.09
-34.02
-25.66
-16.15
-6.69
1.78
8.73
14.06
17.95
20.6
22.25
23.03
23.14
22.83
22.42
22.23
22.5
23.27
24.4
25.67
26.83
27.71
28.21
28.35
28.12
27.52
26.48
24.94
22.88
20.34
17.45
14.39
11.32
8.34
5.49
2.73
0.06
-2.55
-5.1
-7.63
-10.22
-13.08
-16.47
-20.63
-25.61
-31.09
-36.32
-40.21
-41.65
-39.89
-34.82
-27.05
-17.7
-8.08
0.73
8.08
13.8
18.04
21.09
23.17
24.41
24.87
24.61
23.81
22.75
21.79
21.28
21.41
22.16
23.28
24.42
25.23
25.48
25.13
24.29
23.12
21.73
20.12
18.25
16.05
13.51
10.72
7.86
5.1
2.57
0.28
-1.89
-4.12
-6.62
-9.53
-12.95
-16.92
-21.41
-26.21
-30.89
-34.7
-36.71
-36.07
-32.36
-25.78
-17.17
-7.78
1.16
8.78
14.75
19.16
22.29
24.45
25.75
26.3
26.18
25.65
25.02
24.61
24.61
25.02
25.66
26.26
26.6
26.6
26.3
25.8
25.17
24.4
23.38
22.05
20.36
18.38
16.22
14.02
11.84
9.7
7.61
5.52
3.47
1.48
-0.44
-2.33
-4.32
-6.67
-9.71
-13.68
-18.67
-24.38
-30.16
-35.03
-37.95
-38.11
-35.17
-29.4
-21.59
-12.85
-4.25
3.39
9.68
14.59
18.33
21.17
23.27
24.73
25.6
26.0
26.16
26.38
26.94
27.93
29.3
30.85
32.34
33.54
34.35
34.76
34.83
34.65
34.32
33.96
33.63
33.33
32.93
32.15
30.54
27.64
23.16
17.11
9.93
2.31
-4.93
-11.16
-16.07
-19.76
-22.54
-24.83
-27.03
-29.35
-31.89
-34.55
-36.99
-38.7
-39.03
-37.42
-33.63
-27.9
-20.94
-13.7
-7.11
-1.79
2.09
4.7
6.37
7.34
7.73
7.53
6.82
5.83
4.88
4.35
4.45
5.16
6.26
7.42
8.36
8.91
9.01
8.74
8.2
7.49
6.67
5.77
4.71
3.4
1.71
-0.36
-2.73
-5.24
-7.67
-9.89
-11.84
-13.56
-15.17
-16.81
-18.64
-20.85
-23.56
-26.78
-30.27
-33.47
-35.61
-35.96
-34.04
-29.88
-23.99
-17.23
-10.51
-4.53
0.37
4.14
6.94
8.98
10.38
11.21
11.56
11.52
11.27
11.05
11.04
11.36
11.96
12.69
13.36
13.82
13.99
13.86
13.41
12.59
11.33
9.65
7.64
5.53
3.52
1.76
0.22
-1.23
-2.78
-4.56
-6.53
-8.57
-10.51
-12.26
-13.83
-15.37
-17.11
-19.27
-22.04
-25.4
-29.08
-32.57
-35.2
-36.28
-35.36
-32.3
-27.38
-21.21
-14.56
-8.13
-2.5
2.04
5.4
7.62
8.85
9.27
9.11
8.6
8.0
7.49
7.19
7.15
7.32
7.66
8.1
8.61
9.16
9.73
10.21
10.48
10.36
9.75
8.65
7.16
5.47
3.75
2.1
0.54
-1.01
-2.66
-4.43
-6.27
-8.05
-9.65
-10.96
-12.06
-13.09
-14.33
-16.01
-18.33
-21.28
-24.63
-27.87
-30.32
-31.24
-30.07
-26.65
-21.26
-14.68
-7.89
-1.83
2.92
6.21
8.24
9.4
10.02
10.26
10.15
9.69
8.98
8.24
7.76
7.79
8.39
9.42
10.56
11.47
11.94
11.96
11.66
11.26
10.86
10.41
9.73
8.57
6.76
4.35
1.54
-1.32
-3.92
-6.07
-7.79
-9.27
-10.76
-12.44
-14.36
-16.51
-18.82
-21.32
-24.01
-26.77
-29.21
-30.69
-30.48
-28.06
-23.41
-17.1
-10.09
-3.38
2.25
6.48
9.41
11.33
12.57
13.31
13.62
13.49
12.96
12.23
11.6
11.32
11.53
12.15
12.93
13.59
13.92
13.91
13.68
13.37
13.0
12.49
11.67
10.45
8.84
6.95
4.96
2.98
1.1
-0.7
-2.41
-4.02
-5.49
-6.8
-7.95
-9.0
-10.07
-11.28
-12.84
-14.91
-17.61
-20.82
-24.13
-26.83
-28.06
-27.09
-23.56
-17.65
-10.0
-1.54
6.78
14.25
20.42
25.11
28.37
30.37
31.44
32.01
32.61
33.75
35.79
38.69
41.97
44.72
45.82
44.4
40.13
33.46
25.45
17.41
10.39
4.89
0.81
-2.33
-5.01
-7.51
-9.86
-12.03
-14.04
-16.09
-18.4
-21.05
-23.86
-26.49
-28.59
-29.98
-30.8
-31.46
-32.46
-34.24
-36.97
-40.5
-44.28
-47.48
-49.15
-48.46
-44.98
-38.84
-30.79
-21.91
-13.35
-5.94
-0.07
4.25
7.29
9.29
10.39
10.67
10.25
9.39
8.49
7.93
7.9
8.39
9.17
9.99
10.68
11.19
11.55
11.74
11.68
11.23
10.36
9.16
7.8
6.47
5.23
4.04
2.74
1.22
-0.49
-2.29
-4.05
-5.71
-7.33
-9.11
-11.3
-14.12
-17.73
-22.13
-27.11
-32.19
-36.65
-39.65
-40.44
-38.55
-34.01
-27.39
-19.57
-11.55
-4.18
2.04
6.94
10.61
13.23
14.97
15.96
16.32
16.18
15.74
15.22
14.8
14.63
14.75
15.18
15.87
16.7
17.5
18.04
18.08
17.51
16.3
14.58
12.56
10.44
8.39
6.51
4.75
3.06
1.27
-0.73
-3.0
-5.49
-8.04
-10.49
-12.73
-14.81
-16.96
-19.49
-22.69
-26.7
-31.34
-36.02
-39.89
-42.02
-41.62
-38.38
-32.56
-24.91
-16.49
-8.32
-1.11
4.77
9.28
12.57
14.77
16.0
16.31
15.84
14.81
13.61
12.69
12.39
12.9
14.11
15.69
17.19
18.24
18.62
18.37
17.63
16.62
15.48
14.21
12.75
10.98
8.85
6.38
3.68
0.87
-1.91
-4.56
-7.0
-9.19
-11.17
-13.06
-15.08
-17.52
-20.62
-24.49
-28.87
-33.17
-36.55
-38.11
-37.22
-33.68
-27.82
-20.38
-12.28
-4.41
2.57
8.33
12.77
15.96
18.05
19.2
19.58
19.38
18.88
18.36
18.09
18.25
18.87
19.83
20.92
21.92
22.65
23.01
22.91
22.35
21.34
19.98
18.38
16.65
14.87
13.0
11.0
8.74
6.19
3.35
0.34
-2.69
-5.59
-8.28
-10.79
-13.24
-15.92
-19.12
-23.01
-27.51
-32.16
-36.12
-38.36
-38.04
-34.78
-28.87
-21.16
-12.78
-4.77
2.19
7.81
12.14
15.32
17.5
18.81
19.38
19.44
19.24
19.01
18.87
18.83
18.84
18.86
18.92
19.04
19.26
19.53
19.72
19.65
19.17
18.21
16.78
15.02
13.08
11.1
9.16
7.25
5.34
3.39
1.4
-0.6
-2.6
-4.58
-6.62
-8.8
-11.27
-14.11
-17.41
-21.12
-25.14
-29.18
-32.73
-35.15
-35.75
-34.03
-29.85
-23.6
-16.0
-8.05
-0.59
5.74
10.7
14.28
16.63
17.94
18.4
18.18
17.47
16.52
15.61
15.03
14.99
15.52
16.46
17.48
18.25
18.52
18.26
17.59
16.7
15.73
14.63
13.27
11.49
9.22
6.54
3.65
0.78
-1.9
-4.3
-6.38
-8.18
-9.75
-11.24
-12.87
-14.97
-17.83
-21.58
-26.01
-30.53
-34.24
-36.18
-35.64
-32.39
-26.74
-19.44
-11.44
-3.61
3.33
9.0
13.24
16.12
17.82
18.61
18.78
18.62
18.39
18.27
18.37
18.72
19.27
19.95
20.62
21.16
21.48
21.51
21.23
20.66
19.81
18.7
17.36
15.84
14.16
12.35
10.36
8.17
5.77
3.2
0.6
-1.85
-4.03
-5.9
-7.57
-9.29
-11.36
-14.09
-17.67
-22.07
-26.94
-31.58
-35.03
-36.36
-34.93
-30.68
-24.13
-16.28
-8.22
-0.82
5.36
10.17
13.66
15.97
17.24
17.68
17.53
17.11
16.72
16.57
16.7
17.08
17.59
18.15
18.71
19.25
19.69
19.92
19.81
19.25
18.24
16.86
15.23
13.47
11.63
9.71
7.68
5.55
3.33
1.12
-1.03
-3.06
-4.96
-6.82
-8.72
-10.83
-13.27
-16.2
-19.64
-23.51
-27.52
-31.2
-33.9
-34.96
-33.84
-30.35
-24.69
-17.55
-9.84
-2.51
3.74
8.58
12.0
14.19
15.36
15.67
15.31
14.46
13.41
12.47
11.89
11.81
12.19
12.92
13.8
14.63
15.19
15.37
15.08
14.34
13.28
12.02
10.66
9.17
7.46
5.44
3.08
0.5
-2.1
-4.51
-6.59
-8.32
-9.85
-11.36
-13.11
-15.37
-18.35
-22.12
-26.45
-30.79
-34.3
-36.07
-35.4
-32.08
-26.47
-19.41
-11.93
-4.92
1.02
5.68
9.14
11.58
13.27
14.43
15.26
15.91
16.48
17.0
17.5
17.93
18.32
18.69
19.07
19.47
19.83
20.0
19.8
19.07
17.75
15.89
13.66
11.27
8.89
6.64
4.52
2.51
0.55
-1.39
-3.32
-5.25
-7.19
-9.15
-11.12
-13.15
-15.31
-17.77
-20.71
-24.23
-28.22
-32.25
-35.58
-37.32
-36.76
-33.59
-28.09
-21.0
-13.29
-5.83
0.72
6.07
10.16
13.07
14.92
15.88
16.13
15.89
15.42
14.96
14.74
14.89
15.42
16.2
17.01
17.65
17.98
17.95
17.6
16.97
16.08
14.87
13.28
11.3
9.02
6.6
4.2
1.92
-0.2
-2.18
-4.02
-5.71
-7.19
-8.44
-9.52
-10.6
-11.92
-13.75
-16.32
-19.7
-23.73
-27.99
-31.8
-34.36
-34.93
-33.06
-28.75
-22.49
-15.15
-7.69
-0.95
4.56
8.71
11.67
13.69
14.99
15.68
15.82
15.49
14.91
14.39
14.22
14.57
15.35
16.34
17.24
17.83
18.03
17.83
17.29
16.42
15.23
13.77
12.11
10.32
8.47
6.52
4.36
1.97
-0.6
-3.23
-5.69
-7.87
-9.77
-11.49
-13.21
-15.1
-17.31
-19.95
-23.12
-26.77
-30.64
-34.21
-36.71
-37.31
-35.46
-31.04
-24.5
-16.69
-8.59
-1.08
5.27
10.26
13.9
16.38
17.87
18.51
18.47
17.94
17.19
16.51
16.15
16.27
16.83
17.61
18.32
18.7
18.58
18.01
17.09
15.99
14.81
13.52
12.08
10.45
8.62
6.69
4.74
2.87
1.06
-0.73
-2.59
-4.5
-6.41
-8.21
-9.81
-11.22
-12.59
-14.19
-16.36
-19.36
-23.2
-27.47
-31.39
-33.97
