20.17
19.24
19.64
21.29
23.64
25.93
27.47
27.92
27.39
26.33
25.29
24.64
24.42
24.32
23.9
22.73
20.6
17.61
14.1
10.51
7.29
4.72
2.86
1.46
-0.1
-2.66
-7.09
-13.95
-23.12
-33.72
-44.15
-52.63
-57.67
-58.56
-55.49
-49.39
-41.59
-33.36
-25.66
-19.06
-13.79
-9.85
-7.13
-5.46
-4.59
-4.23
-3.99
-3.5
-2.45
-0.66
1.84
4.87
8.12
11.31
14.18
16.6
18.55
20.08
21.27
22.16
22.69
22.71
21.96
20.19
17.31
13.45
9.01
4.5
0.41
-3.03
-5.91
-8.56
-11.42
-14.88
-19.17
-24.37
-30.31
-36.46
-41.95
-45.59
-46.2
-43.0
-35.96
-25.95
-14.47
-3.13
6.81
14.74
20.66
24.87
27.74
29.45
30.1
29.82
28.82
27.5
26.27
25.41
25.03
25.07
25.37
25.79
26.22
26.63
26.91
26.86
26.3
25.03
23.03
20.45
17.55
14.56
11.55
8.45
5.11
1.5
-2.29
-5.96
-9.27
-12.1
-14.58
-17.06
-19.95
-23.6
-28.19
-33.65
-39.68
-45.58
-50.41
-53.03
-52.45
-48.17
-40.39
-30.07
-18.58
-7.31
2.66
10.78
16.88
21.06
23.45
24.22
23.62
22.06
20.12
18.45
17.6
17.79
18.92
20.58
22.24
23.37
23.7
23.2
22.08
20.65
19.13
17.57
15.81
13.58
10.59
6.8
2.39
-2.19
-6.43
-9.96
-12.72
-14.98
-17.31
-20.28
-24.36
-29.68
-35.93
-42.36
-47.89
-51.3
-51.56
-48.11
-41.08
-31.26
-19.94
-8.5
1.89
10.53
17.19
22.0
25.21
27.05
27.68
27.3
26.16
24.66
23.3
22.5
22.47
23.18
24.31
25.41
26.04
25.93
25.03
23.5
21.61
19.6
17.56
15.38
12.88
9.84
6.23
2.22
-1.88
-5.74
-9.16
-12.14
-14.9
-17.79
-21.14
-25.25
-30.29
-36.26
-42.78
-49.11
-54.13
-56.53
-55.28
-49.95
-40.97
-29.54
-17.29
-5.75
4.04
11.65
17.15
20.85
23.01
23.81
23.42
22.13
20.42
18.88
18.04
18.23
19.35
21.06
22.8
24.07
24.56
24.26
23.31
21.99
20.51
18.92
17.13
14.99
12.39
9.37
6.1
2.85
-0.16
-2.82
-5.17
-7.42
-9.8
-12.58
-16.03
-20.35
-25.63
-31.73
-38.14
-43.98
-48.14
-49.54
-47.46
-41.79
-33.14
-22.65
-11.64
-1.38
7.31
13.99
18.63
21.4
22.52
22.33
21.16
19.43
17.61
16.19
15.51
15.63
16.38
17.36
18.16
18.51
18.35
17.81
17.05
16.16
14.99
13.27
10.72
7.24
3.03
-1.48
-5.8
-9.55
-12.66
-15.38
-18.17
-21.53
-25.82
-31.18
-37.37
-43.78
-49.45
-53.2
-53.87
-50.71
-43.66
-33.45
-21.4
-9.11
2.13
11.52
18.84
24.19
27.79
29.81
30.41
29.86
28.61
27.29
26.45
26.39
27.04
27.95
28.57
28.45
27.51
25.96
24.21
22.63
21.32
20.06
18.41
15.93
12.42
8.03
3.2
-1.51
-5.67
-9.11
-12.01
-14.73
-17.73
-21.41
-26.01
-31.59
-37.87
-44.23
-49.62
-52.83
-52.72
-48.7
-40.96
-30.48
-18.77
-7.36
2.6
10.56
16.5
20.73
23.57
25.28
26.0
25.9
25.27
24.5
24.03
24.22
25.21
26.8
28.59
30.02
30.67
30.38
29.29
27.76
26.11
24.48
22.74
20.52
17.49
13.52
8.84
3.92
-0.66
-4.5
-7.48
-9.78
-11.82
-14.09
-17.07
-21.06
-26.15
-32.05
-38.07
-43.05
-45.7
-44.9
-40.15
-31.92
-21.55
-10.92
-1.81
4.6
8.04
8.98
8.34
6.93
5.32
3.75
2.32
1.21
0.72
1.19
2.79
5.38
8.53
11.66
14.29
16.18
17.38
18.08
18.47
18.53
18.06
16.79
14.53
11.29
7.32
3.07
-1.0
-4.53
-7.38
-9.69
-11.82
-14.32
-17.79
-22.59
-28.68
-35.45
-41.74
-46.16
-47.4
-44.76
-38.3
-28.88
-17.86
-6.71
3.4
11.81
18.33
23.1
26.32
28.2
28.84
28.43
27.25
25.72
24.36
23.58
23.53
24.11
24.95
25.64
25.88
25.55
24.76
23.67
22.4
20.95
19.23
17.02
14.17
10.61
6.48
2.03
-2.32
-6.22
-9.46
-12.09
-14.43
-16.95
-20.19
-24.53
-30.04
-36.42
-42.87
-48.28
-51.39
-51.16
-47.11
-39.49
-29.26
-17.79
-6.44
3.73
12.19
18.79
23.59
26.68
28.15
28.16
27.03
25.29
23.54
22.34
21.99
22.49
23.57
24.8
25.72
26.03
25.57
24.45
22.88
21.13
19.4
17.68
15.74
13.22
9.89
5.82
1.39
-2.79
-6.21
-8.71
-10.55
-12.32
-14.65
-18.0
-22.52
-28.01
-34.04
-39.92
-44.81
-47.75
-47.86
-44.6
-38.01
-28.75
-17.98
-7.04
2.9
11.04
17.03
20.9
22.88
23.29
22.47
20.8
18.71
16.71
15.25
14.69
15.04
16.08
17.35
18.39
18.92
18.86
18.37
17.61
16.65
15.37
13.54
10.95
7.58
3.64
-0.43
-4.16
-7.28
-9.76
-11.88
-14.13
-17.02
-20.91
-25.95
-31.88
-38.1
-43.62
-47.21
-47.73
-44.49
-37.57
-27.89
-16.88
-6.08
3.42
11.14
17.12
21.58
24.66
26.37
26.69
25.87
24.43
23.11
22.5
22.84
23.88
25.07
25.81
25.71
24.72
23.15
21.39
19.8
18.47
17.24
15.73
13.57
10.56
6.77
2.49
-1.83
-5.8
-9.22
-12.17
-14.92
-17.89
-21.52
-26.1
-31.67
-37.91
-44.04
-48.94
-51.37
-50.33
-45.41
-36.97
-26.12
-14.34
-3.12
6.47
13.92
19.19
22.58
24.42
25.01
24.58
23.38
21.77
20.2
19.08
18.73
19.19
20.19
21.32
22.06
22.12
21.48
20.36
19.11
17.95
16.87
15.62
13.85
11.32
8.06
4.31
0.45
-3.17
-6.37
-9.18
-11.77
-14.39
-17.38
-21.04
-25.53
-30.77
-36.28
-41.19
-44.43
-45.0
-42.28
-36.29
-27.69
-17.63
-7.38
1.98
9.71
15.5
19.36
21.46
22.03
21.35
19.82
17.97
16.36
15.43
15.33
15.9
16.75
17.47
17.8
17.73
17.4
16.99
16.5
15.77
14.47
12.32
9.21
5.25
0.8
-3.69
-7.76
-11.15
-13.84
-16.1
-18.45
-21.46
-25.58
-30.8
-36.65
-42.11
-45.93
-46.94
-44.48
-38.58
-29.94
-19.75
-9.3
0.3
8.33
14.47
18.72
21.26
22.34
22.27
21.4
20.13
18.89
18.04
17.79
18.14
18.93
19.85
20.61
20.96
20.81
20.18
19.14
17.76
16.0
13.75
10.87
7.31
3.19
-1.17
-5.3
-8.83
-11.63
-13.85
-15.95
-18.42
-21.73
-26.05
-31.26
-36.84
-41.93
-45.46
-46.4
-44.02
-38.22
-29.61
-19.37
-8.88
0.66
8.57
14.63
19.01
21.92
23.52
23.91
23.24
21.84
20.23
18.97
18.48
18.87
19.91
21.15
22.09
22.39
22.0
21.07
19.85
18.55
17.23
15.71
13.74
11.11
7.78
3.96
0.0
-3.69
-6.83
-9.33
-11.3
-13.04
-14.93
-17.39
-20.77
-25.21
-30.49
-35.96
-40.6
-43.24
-42.92
-39.23
-32.47
-23.56
-13.74
-4.2
4.17
10.93
15.97
19.36
21.23
21.69
20.95
19.36
17.43
15.7
14.61
14.39
14.93
15.94
17.0
17.75
18.03
17.88
17.44
16.9
16.26
15.35
13.89
11.62
8.5
4.72
0.72
-3.04
-6.24
-8.83
-11.02
-13.23
-15.89
-19.34
-23.72
-28.91
-34.4
-39.37
-42.75
-43.51
-40.99
-35.14
-26.63
-16.62
-6.42
2.83
10.45
16.18
20.07
22.28
22.99
22.43
20.92
18.97
17.13
15.86
15.4
15.65
16.27
16.87
17.15
17.02
16.56
15.91
15.17
14.33
13.28
11.88
10.0
7.6
4.69
1.36
-2.23
-5.9
-9.38
-12.48
-15.09
-17.33
-19.51
-22.1
-25.51
-29.87
-34.89
-39.82
-43.58
-45.1
-43.6
-38.85
-31.29
-21.89
-11.87
-2.43
5.62
11.89
16.4
19.36
21.03
21.66
21.47
20.71
19.7
18.79
18.3
18.34
18.86
19.65
20.43
20.99
21.22
21.1
20.67
19.97
19.0
17.7
16.0
13.83
11.18
8.13
4.84
1.51
-1.65
-4.56
-7.21
-9.7
-12.2
-14.92
-18.08
-21.93
-26.6
-31.91
-37.27
-41.67
-43.87
-42.84
-38.18
-30.32
-20.45
-10.14
-0.78
6.74
12.15
15.68
17.67
18.4
18.07
16.86
15.09
13.26
11.88
11.31
11.61
12.55
13.74
14.79
15.48
15.77
15.69
15.3
14.62
13.57
12.03
9.9
7.15
3.85
0.22
-3.48
-6.95
-9.98
-12.53
-14.75
-16.91
-19.42
-22.66
-26.87
-32.01
-37.62
-42.83
-46.46
-47.4
-44.9
-38.92
-30.17
-19.89
-9.49
-0.15
7.4
13.0
16.81
19.17
20.35
20.54
19.87
18.58
17.03
15.7
15.0
15.16
16.11
17.48
18.78
19.62
19.79
19.38
18.64
17.83
17.09
16.32
15.31
13.81
11.67
8.92
5.71
2.29
-1.15
-4.49
-7.69
-10.75
-13.72
-16.71
-19.91
-23.6
-27.99
-33.08
-38.46
-43.29
-46.44
-46.81
-43.74
-37.27
-28.16
-17.63
-7.07
2.43
10.22
16.12
20.21
22.75
23.91
23.86
22.79
21.04
19.09
17.47
16.6
16.65
17.47
18.68
19.81
20.51
20.6
20.11
19.19
17.99
16.62
15.13
13.5
11.66
9.55
7.09
4.3
1.31
-1.68
-4.47
-6.91
-9.04
-11.02
-13.09
-15.53
-18.6
-22.5
-27.31
-32.81
-38.42
-43.17
-45.85
-45.41
-41.31
-33.81
-23.93
-13.14
-2.91
5.71
12.22
16.63
19.2
20.25
20.02
18.71
16.65
14.31
12.32
11.26
11.41
12.63
14.41
16.09
17.09
17.24
16.69
15.8
14.87
13.98
12.96
11.5
9.32
6.37
2.86
-0.84
-4.37
-7.45
-10.04
-12.31
-14.52
-16.97
-19.96
-23.69
-28.19
-33.2
-38.1
-41.99
-43.82
-42.78
-38.53
-31.4
-22.26
-12.27
-2.57
6.04
13.1
18.48
22.23
24.46
25.36
25.15
24.19
22.9
21.72
20.99
20.86
21.27
21.9
22.42
22.5
22.0
21.01
19.76
18.51
17.34
16.13
14.55
12.25
9.04
5.03
0.6
-3.71
-7.47
-10.53
-12.99
-15.26
-17.79
-21.01
-25.13
-30.14
-35.62
-40.82
-44.72
-46.27
-44.7
-39.75
-31.88
-22.09
-11.7
-1.89
6.48
13.06
17.85
21.02
22.77
23.24
22.6
21.18
19.47
18.07
17.48
17.9
19.13
20.66
21.95
22.59
22.5
21.92
21.13
20.37
19.62
18.68
17.26
15.09
12.1
8.37
4.19
-0.04
-3.9
-7.07
-9.43
-11.17
-12.74
-14.73
-17.7
-21.94
-27.37
-33.44
-39.2
-43.5
-45.28
-43.85
-39.07
-31.44
-21.94
-11.8
-2.16
6.12
12.59
17.13
19.85
20.95
20.68
19.35
17.34
15.12
13.22
12.08
11.98
12.9
14.57
16.54
18.34
19.64
20.31
20.34
19.81
18.74
17.05
14.63
11.45
7.59
3.35
-0.88
-4.77
-8.08
-10.85
-13.32
-15.92
-19.07
-23.11
-28.06
-33.58
-38.85
-42.76
-44.14
-42.18
-36.71
-28.35
-18.29
-7.94
1.53
9.45
15.62
20.14
23.22
24.98
25.51
24.96
23.66
22.05
20.64
19.76
19.52
19.77
20.17
20.39
20.18
19.52
18.54
17.45
16.31
15.04
13.4
11.14
8.15
4.58
0.76
-2.87
-6.0
-8.55
-10.67
-12.68
-14.97
-17.94
-21.84
-26.71
-32.24
-37.66
-41.88
-43.72
-42.31
-37.38
-29.39
-19.37
-8.63
1.59
10.4
17.32
22.21
25.16
26.39
26.18
24.93
23.03
20.97
19.19
18.09
17.88
18.52
19.73
21.02
21.9
22.02
21.33
20.05
18.51
17.02
15.64
14.16
12.25
9.62
6.22
2.28
-1.78
-5.5
-8.64
-11.2
-13.47
-15.83
-18.67
-22.32
-26.92
-32.34
-38.11
-43.37
-47.02
-47.95
-45.47
-39.53
-30.81
-20.49
-9.94
-0.29
7.71
13.75
17.8
19.99
20.56
19.87
18.36
16.58
15.03
14.06
13.8
14.18
14.95
15.87
16.71
17.32
17.64
17.67
17.39
16.77
15.7
14.04
11.67
8.57
4.89
0.92
-2.96
-6.42
-9.33
-11.79
-14.11
-16.71
-20.04
-24.35
-29.64
-35.48
-41.04
-45.22
-46.9
-45.31
-40.28
-32.36
-22.6
-12.3
-2.59
5.79
12.5
17.54
21.0
22.98
23.62
23.1
21.81
20.27
19.02
18.44
18.62
19.35
20.21
20.79
20.84
20.32
19.38
18.2
16.97
15.72
14.37
12.72
10.57
7.77
4.37
0.54
-3.4
-7.15
-10.52
-13.54
-16.43
-19.59
-23.43
-28.24
-34.04
-40.36
-46.29
-50.55
-51.89
-49.49
-43.27
-33.91
-22.71
-11.08
-0.25
8.99
16.29
21.56
24.87
26.4
26.45
25.45
23.95
22.47
21.44
21.08
21.45
22.36
23.53
24.63
25.33
25.43
24.92
23.92
22.62
21.17
19.54
17.52
14.9
11.55
7.56
3.29
-0.86
-4.6
-7.84
-10.74
-13.61
-16.74
-20.43
-24.82
-29.94
-35.58
-41.17
-45.8
-48.39
-47.98
-44.09
-36.97
-27.53
-17.08
-6.9
2.07
9.37
14.96
18.94
21.42
22.46
22.16
20.8
18.9
17.1
15.99
15.87
16.69
18.03
19.39
20.34
20.7
20.51
19.97
19.22
18.29
17.06
15.35
13.0
9.96
6.35
2.46
-1.39
-4.89
-7.91
-10.52
-13.03
-15.87
-19.5
-24.19
-29.91
-36.16
-42.03
-46.31
-47.84
-45.83
-40.22
-31.66
-21.34
-10.61
-0.63
7.93
14.79
19.98
23.56
25.58
26.09
25.34
23.76
22.0
20.64
20.08
20.32
21.09
21.96
22.59
22.8
22.64
22.21
21.67
20.98
20.01
18.51
16.24
13.08
9.1
4.54
-0.17
-4.64
-8.55
-11.77
-14.42
-16.81
-19.39
-22.68
-27.09
-32.71
-39.13
-45.36
-50.0
-51.6
-49.21
-42.73
-32.98
-21.48
-9.85
0.62
9.24
15.89
20.78
24.16
26.16
26.88
26.47
25.28
23.8
22.58
22.05
22.35
23.34
24.65
25.84
26.53
26.53
25.89
24.81
23.55
22.24
20.83
19.06
16.64
13.38
9.31
4.75
0.14
-4.12
-7.81
-10.98
-13.85
-16.7
-19.85
-23.54
-27.99
-33.34
-39.42
-45.65
-51.03
-54.24
-54.11
-50.0
-42.1
-31.42
-19.43
-7.63
2.87
11.51
18.2
23.08
26.29
27.95
28.19
27.26
25.64
23.92
22.68
22.37
23.11
24.79
27.09
29.64
32.12
34.27
35.88
36.78
36.79
35.77
33.68
30.61
26.77
22.53
18.3
14.51
11.43
9.18
7.65
6.57
5.59
4.31
2.46
-0.06
-3.11
-6.35
-9.28
-11.34
-12.1
-11.27
-8.79
-4.82
0.3
6.05
11.79
16.88
20.79
23.22
24.1
23.58
21.92
19.39
16.33
13.14
10.37
8.55
8.04
8.84
10.49
12.23
13.25
13.05
11.56
9.1
6.16
3.07
-0.0
-3.2
-6.67
-10.47
-14.43
-18.19
-21.38
-23.77
-25.34
-26.3
-26.98
-27.8
-29.21
-31.64
-35.3
-40.06
-45.3
-49.9
-52.53
-52.02
-47.78
-39.98
-29.54
-17.81
-6.2
4.13
12.44
18.39
21.89
23.02
21.92
18.85
14.32
9.12
4.21
0.58
-1.14
-0.8
1.21
4.16
7.28
9.99
12.04
13.35
13.9
13.61
12.27
9.69
5.81
0.81
-4.91
-10.79
-16.25
-20.82
-24.27
-26.62
-28.17
-29.36
-30.76
-32.84
-35.97
-40.25
-45.39
-50.67
-54.99
-57.1
-55.99
-51.2
-43.08
-32.66
-21.35
-10.48
-0.99
6.65
12.32
16.07
17.94
18.05
16.67
14.29
11.63
9.47
8.46
8.92
10.78
13.6
16.71
19.49
21.47
22.48
22.6
22.06
21.06
19.65
17.73
15.13
11.79
7.8
3.52
-0.63
-4.27
-7.27
-9.75
-12.12
-14.87
-18.45
-23.13
-28.86
-35.17
-41.17
-45.7
-47.54
-45.8
-40.24
-31.37
-20.29
-8.41
2.94
12.84
20.77
26.63
30.47
32.44
32.74
31.68
29.71
27.4
25.35
24.04
23.72
24.31
25.48
26.73
27.6
27.79
27.28
26.21
24.83
23.28
21.6
19.6
17.07
13.85
9.97
5.73
1.55
-2.19
-5.33
-8.01
-10.62
-13.65
-17.52
-22.49
-28.54
-35.36
-42.25
-48.17
-51.88
-52.27
-48.7
-41.3
-30.98
-19.16
-7.39
3.15
11.75
18.28
22.87
25.79
27.23
27.41
26.58
25.16
23.69
22.74
22.69
23.59
25.16
26.88
28.21
28.86
28.8
28.2
27.27
26.1
24.58
22.49
19.65
16.06
11.91
7.53
3.28
-0.6
-4.01
-6.98
-9.69
-12.39
-15.42
-19.12
-23.76
-29.38
-35.61
-41.63
-46.25
-48.24
-46.67
-41.34
-32.75
-22.05
-10.64
0.23
9.7
17.36
23.12
27.02
29.09
29.37
28.1
25.72
22.97
20.7
19.54
19.74
21.03
22.77
24.24
24.94
24.74
23.87
22.67
21.34
19.82
17.82
15.04
11.34
6.88
2.09
-2.52
-6.56
-9.96
-12.9
-15.79
-19.07
-23.12
-28.13
-34.04
-40.42
-46.4
-50.8
-52.38
-50.19
-44.02
-34.49
-22.97
-11.12
-0.39
8.4
15.07
19.88
23.18
25.19
25.94
25.52
24.19
22.46
20.99
20.31
20.59
21.65
23.07
24.4
25.32
25.68
25.48
24.74
23.48
21.67
19.3
16.32
12.73
8.61
4.16
-0.25
-4.27
-7.59
-10.18
-12.32
-14.57
-17.58
-21.86
-27.57
-34.39
-41.5
-47.68
-51.6
-52.13
-48.72
-41.53
-31.52
-20.09
-8.75
1.31
9.44
15.49
19.64
22.22
23.47
23.65
22.99
21.83
20.61
19.76
19.64
20.37
21.78
23.47
24.96
25.85
25.98
25.48
24.64
23.7
22.71
21.41
19.39
16.34
12.25
7.49
2.68
-1.57
-4.93
-7.49
-9.66
-12.01
-15.07
-19.14
-24.22
-29.98
-35.73
-40.53
-43.35
-43.32
-39.98
-33.45
-24.43
-14.0
-3.32
6.62
15.12
21.81
26.56
29.37
30.38
29.85
28.17
25.89
23.59
21.82
20.95
21.03
21.79
22.75
23.39
23.35
22.52
21.06
19.22
17.18
14.95
12.39
9.34
5.74
1.76
-2.34
-6.24
-9.77
-12.92
-15.92
-19.12
-22.9
-27.52
-32.96
-38.84
-44.33
-48.4
-49.97
-48.27
-43.13
-35.02
-24.93
-14.09
-3.6
5.78
13.64
19.84
24.34
27.09
28.12
27.58
25.93
23.79
21.87
20.72
20.49
21.01
21.82
22.45
22.58
22.13
21.21
19.99
18.58
16.98
15.11
12.84
10.08
6.84
3.3
-0.3
-3.63
-6.54
-9.03
-11.33
-13.83
-16.95
-21.0
-26.09
-32.01
-38.2
-43.73
-47.51
-48.45
-45.89
-39.79
-30.88
-20.47
-9.98
-0.6
7.07
12.92
17.19
20.11
21.81
22.34
21.8
20.51
18.98
17.73
17.14
17.25
17.83
18.53
19.0
19.08
18.76
18.17
17.42
16.59
15.62
14.34
12.54
10.03
6.76
2.93
-1.08
-4.83
-7.97
-10.42
-12.4
-14.28
-16.5
-19.36
-22.97
-27.2
-31.69
-35.81
-38.71
-39.45
-37.31
-31.99
-23.88
-13.98
-3.65
5.76
13.27
18.47
21.43
22.51
22.17
20.84
18.88
16.67
14.63
13.22
12.73
13.18
14.26
15.44
16.19
16.23
15.56
14.47
13.28
12.15
10.99
9.48
7.33
4.36
0.73
-3.22
-7.04
-10.38
-13.12
-15.41
-17.54
-19.88
-22.81
-26.56
-31.17
-36.35
-41.46
-45.51
-47.35
-46.08
-41.33
-33.5
-23.66
-13.22
-3.51
4.59
10.73
15.0
17.66
18.96
19.07
18.15
16.47
14.5
12.81
11.88
11.95
12.86
14.19
15.4
16.07
16.06
15.51
14.67
13.77
12.85
11.77
10.28
8.18
5.39
2.01
-1.69
-5.42
-8.86
-11.82
-14.29
-16.44
-18.6
-21.26
-24.85
-29.62
-35.4
-41.52
-46.83
-50.0
-49.92
-46.11
-38.88
-29.26
-18.62
-8.27
0.87
8.33
14.01
17.97
20.32
21.18
20.75
19.41
17.65
16.03
15.0
14.78
15.28
16.21
17.22
18.01
18.46
18.59
18.49
18.21
17.68
16.73
15.15
12.82
9.73
6.08
2.2
-1.49
-4.69
-7.27
-9.4
-11.43
-13.88
-17.15
-21.44
-26.58
-32.04
-36.94
-40.25
-41.03
-38.69
-33.23
-25.25
-15.86
-6.28
2.42
9.61
15.07
18.89
21.24
22.26
22.03
20.71
18.68
16.45
14.64
13.66
13.61
14.28
15.24
16.07
16.58
16.75
16.65
16.26
15.39
13.77
11.17
7.61
3.39
-1.01
-5.13
-8.68
-11.66
-14.3
-16.99
-20.12
-24.05
-28.84
-34.26
-39.6
-43.81
-45.68
-44.32
-39.41
-31.44
-21.54
-11.13
-1.51
6.48
12.54
16.77
19.41
20.71
20.84
20.02
18.56
16.88
15.47
14.71
14.75
15.43
16.41
17.25
17.66
17.55
17.06
16.41
15.71
14.85
13.56
11.5
8.49
4.62
0.24
-4.18
-8.21
-11.65
-14.57
-17.31
-20.32
-24.02
-28.64
-34.04
-39.66
-44.57
-47.6
-47.74
-44.39
-37.67
-28.38
-17.79
-7.27
2.11
9.71
15.34
19.1
21.14
21.68
20.99
19.48
17.75
16.36
15.71
15.89
16.63
17.5
18.15
18.43
18.41
18.31
18.22
18.06
17.55
16.33
14.13
10.86
6.73
2.15
-2.31
-6.18
-9.2
-11.43
-13.26
-15.32
-18.26
-22.47
-27.93
-34.03
-39.71
-43.68
-44.77
-42.3
-36.31
-27.5
-17.06
-6.32
3.55
11.76
17.94
22.01
24.12
24.55
23.7
22.07
20.23
18.68
17.8
17.67
18.14
18.88
19.55
19.93
19.97
19.7
19.18
18.36
17.07
15.11
12.37
8.91
4.96
0.88
-3.0
-6.44
-9.42
-12.13
-14.94
-18.32
-22.68
-28.15
-34.38
-40.56
-45.43
-47.64
-46.18
-40.79
-32.04
-21.19
-9.78
0.85
9.86
16.97
22.25
25.93
28.15
29.03
28.75
27.65
26.22
25.01
24.41
24.56
25.3
26.25
27.04
27.44
27.4
27.0
26.31
25.29
23.69
21.17
17.49
12.66
7.02
1.18
-4.19
-8.58
-11.84
-14.13
-15.9
-17.76
-20.27
-23.87
-28.67
-34.35
-40.11
-44.75
-46.97
-45.8
-40.93
-32.81
-22.59
-11.68
-1.38
7.46
14.5
19.75
23.42
25.69
26.73
26.7
25.87
24.63
23.45
22.75
22.79
23.54
24.73
25.94
26.74
26.91
26.43
25.5
24.35
23.11
21.72
19.91
17.46
14.21
10.32
6.14
2.12
-1.35
-4.15
-6.41
-8.44
-10.67
-13.48
-17.17
-21.86
-27.38
-33.19
-38.39
-41.82
-42.47
-39.68
-33.52
-24.75
-14.59
-4.43
4.63
11.96
17.43
21.21
23.55
24.65
24.65
23.71
22.17
20.54
19.36
19.04
19.61
20.74
21.84
22.41
22.18
21.26
19.97
18.61
17.28
15.83
13.97
11.43
8.14
4.27
0.17
-3.77
-7.25
-10.14
-12.52
-14.66
-16.93
-19.75
-23.45
-28.17
-33.62
-39.05
-43.36
-45.34
-44.07
-39.26
-31.35
-21.45
-10.97
-1.15
7.19
13.76
18.64
22.1
24.32
25.37
25.33
24.39
22.97
21.62
20.85
20.87
21.56
22.49
23.15
23.21
22.61
21.54
20.32
19.14
18.02
16.76
15.07
12.72
9.64
5.95
1.96
-2.02
-5.7
-8.89
-11.55
-13.78
-15.78
-17.89
-20.54
-24.08
-28.6
-33.77
-38.79
-42.49
-43.69
-41.63
-36.22
-28.17
-18.68
-9.11
-0.5
6.59
12.03
15.99
18.61
20.02
20.25
19.46
17.97
16.3
15.01
14.57
15.16
16.62
18.49
20.19
21.26
21.42
20.74
19.46
17.88
16.2
14.45
12.55
10.33
7.73
4.75
1.51
-1.78
-4.92
-7.7
-10.03
-11.98
-13.75
-15.68
-18.16
-21.48
-25.71
-30.58
-35.48
-39.46
-41.49
-40.73
-36.78
-29.92
-21.01
-11.28
-1.98
5.94
11.97
16.04
18.32
19.12
18.75
17.53
15.86
14.21
13.01
12.51
12.77
13.51
14.34
14.83
14.76
14.11
13.05
11.84
10.62
9.38
7.88
5.81
2.95
-0.72
-4.93
-9.22
-13.15
-16.43
-19.06
-21.34
-23.64
-26.36
-29.75
-33.83
-38.32
-42.56
-45.65
-46.6
-44.63
-39.52
-31.71
-22.23
-12.28
-2.95
5.09
11.56
16.44
19.74
21.45
21.6
20.4
18.3
15.94
13.91
12.7
12.45
13.03
14.07
15.12
15.8
15.88
15.33
14.28
12.93
11.47
9.98
8.43
6.73
4.79
2.56
0.1
-2.47
-5.01
-7.39
-9.57
-11.63
-13.8
-16.41
-19.77
-24.02
-28.96
-33.94
-37.99
-39.98
-38.99
-34.65
-27.3
-17.88
-7.68
2.06
10.47
17.18
22.19
25.67
27.8
28.69
28.48
27.43
26.01
24.77
24.17
24.34
25.09
25.93
26.31
25.95
24.81
23.17
21.38
19.72
18.23
16.78
15.1
12.98
10.31
7.15
3.68
0.1
-3.35
-6.56
-9.47
-12.19
-14.97
-18.12
-21.96
-26.65
-32.11
-37.84
-43.06
-46.76
-48.04
-46.33
-41.59
-34.37
-25.61
-16.36
-7.58
0.1
6.29
10.86
13.81
15.23
15.34
14.5
13.15
11.77
10.77
10.38
10.65
11.46
12.51
13.49
14.13
14.31
14.03
13.43
12.65
11.72
10.55
8.95
6.77
4.02
0.91
-2.21
-5.06
-7.52
-9.73
-12.04
-14.8
-18.33
-22.74
-27.91
-33.38
-38.4
-42.01
-43.22
-41.34
-36.24
-28.46
-19.08
-9.34
-0.28
7.47
13.72
18.46
21.73
23.5
23.8
22.83
21.03
19.0
17.35
16.52
16.66
17.61
19.03
20.45
21.42
21.69
21.18
20.06
18.61
17.04
15.41
13.54
11.17
8.1
4.34
0.17
-4.01
-7.84
-11.15
-13.98
-16.62
-19.45
-22.86
-27.1
-32.18
-37.73
-42.99
-46.87
-48.21
-46.16
-40.51
-31.79
-21.16
-10.06
0.23
8.85
15.42
19.97
22.69
23.86
23.78
22.81
21.41
20.08
19.26
19.17
19.76
20.75
21.74
22.39
22.5
22.08
21.29
20.32
19.3
18.15
16.68
14.56
11.57
7.71
3.25
-1.3
-5.43
-8.81
-11.43
-13.54
-15.6
-18.03
-21.17
-25.22
-30.18
-35.74
-41.22
-45.58
-47.66
-46.48
-41.69
-33.71
-23.65
-12.93
-2.85
5.74
12.46
17.3
20.39
21.89
21.97
20.92
19.17
17.3
15.86
15.18
15.36
16.16
17.2
18.12
18.68
18.81
18.56
17.98
17.11
15.84
14.02
11.5
8.26
4.41
0.25
-3.87
-7.63
-10.86
-13.67
-16.39
-19.51
-23.45
-28.44
-34.27
-40.24
-45.28
-48.15
-47.85
-43.95
-36.7
-27.02
-16.15
-5.38
4.32
12.36
18.52
22.78
25.29
26.21
25.82
24.48
22.69
21.01
19.91
19.7
20.35
21.54
22.81
23.69
23.93
23.53
22.73
21.75
20.74
19.58
18.04
15.86
12.88
9.21
5.15
1.13
-2.47
-5.47
-7.99
-10.41
-13.26
-17.05
-22.08
-28.26
-35.06
-41.5
-46.39
-48.56
-47.22
-42.18
-33.95
-23.56
-12.31
-1.44
8.11
15.8
21.46
25.13
27.07
27.57
27.04
25.95
24.74
23.87
23.61
24.06
25.11
26.5
27.89
28.98
29.59
29.69
29.41
28.89
28.2
27.29
25.95
23.97
21.24
17.84
14.1
10.46
7.24
4.49
1.91
-1.08
-5.12
-10.66
-17.78
-26.21
-35.32
-44.18
-51.7
-56.69
-58.14
-55.48
-48.84
-39.12
-27.8
-16.49
-6.53
1.33
6.94
10.54
12.45
12.96
12.29
10.82
9.09
7.75
7.33
8.06
9.69
11.69
13.44
14.47
14.73
14.38
13.73
12.92
11.93
10.53
8.51
5.76
2.4
-1.29
-4.96
-8.35
-11.35
-14.03
-16.61
-19.39
-22.67
-26.76
-31.79
-37.64
-43.71
-48.98
-52.14
-51.99
-47.88
-39.96
-29.3
-17.43
-5.95
4.03
12.06
18.22
22.86
26.25
28.48
29.53
29.49
28.65
27.54
26.66
26.37
26.68
27.35
27.98
28.25
28.02
27.29
26.18
24.78
23.09
21.04
18.47
15.29
11.44
7.05
2.33
-2.39
-6.8
-10.7
-14.08
-17.15
-20.31
-24.01
-28.66
-34.37
-40.88
-47.43
-52.91
-56.05
-55.8
-51.7
-44.02
-33.73
-22.23
-10.93
-0.9
7.28
13.54
18.08
21.18
23.02
23.79
23.7
23.12
22.55
22.44
23.05
24.29
25.79
27.06
27.73
27.69
27.07
26.12
25.09
24.05
22.84
21.19
18.82
15.57
11.51
6.89
2.08
-2.54
-6.71
-10.39
-13.74
-17.07
-20.78
-25.2
-30.5
-36.46
-42.46
-47.49
-50.36
-50.04
-45.99
-38.37
-28.02
-16.23
-4.38
6.38
15.29
22.01
26.49
28.88
29.44
28.58
26.86
24.93
23.43
22.77
23.02
23.89
24.91
25.6
25.66
25.09
24.09
22.95
21.85
20.8
19.55
17.77
15.18
11.67
7.4
2.71
-1.9
-6.05
-9.5
-12.29
-14.73
-17.33
-20.68
-25.22
-31.0
-37.5
-43.65
-48.02
-49.25
-46.49
-39.65
-29.47
-17.21
-4.27
8.14
19.23
28.57
36.01
41.49
45.06
46.87
47.26
46.84
46.3
46.34
47.42
49.63
52.7
56.17
59.46
62.06
63.69
64.22
63.71
62.34
60.28
57.62
54.36
50.27
45.08
38.55
30.72
21.97
12.94
4.41
-3.06
-9.24
-14.36
-18.97
-23.75
-29.24
-35.58
-42.41
-48.87
-53.79
-55.96
-54.45
-48.91
-39.69
-27.78
-14.61
-1.77
9.43
18.19
24.31
28.08
30.08
30.87
30.88
30.35
29.48
28.36
27.07
25.49
23.31
20.08
15.43
9.27
1.89
-6.25
-14.71
-23.34
-32.28
-41.81
-52.01
-62.57
-72.74
-81.41
-87.58
-90.6
-90.45
-87.64
-82.98
-77.25
-70.98
-64.45
-57.85
-51.26
-44.68
-37.88
-30.29
-21.13
-9.65
4.37
20.4
37.12
52.86
66.19
76.3
83.22
87.5
89.88
90.84
90.53
88.78
85.42
80.52
74.59
68.56
63.54
60.49
59.85
61.24
63.54
65.23
64.98
62.03
56.54
49.26
41.17
33.09
25.49
18.63
12.85
8.57
6.16
5.6
6.39
7.55
7.95
6.68
3.28
-2.25
-9.53
-17.84
-26.14
-33.19
-37.76
-38.98
-36.7
-31.6
-24.98
-18.34
-12.85
-9.11
-7.07
-6.27
-6.11
-5.98
-5.48
-4.35
-2.54
-0.17
2.59
5.52
8.48
11.37
14.11
16.56
18.6
20.1
21.02
21.44
21.45
21.08
20.23
18.66
16.13
12.53
7.98
2.83
-2.44
-7.32
-11.48
-14.86
-17.69
-20.45
-23.69
-27.84
-32.96
-38.64
-44.02
-47.88
-49.0
-46.48
-40.15
-30.67
-19.5
-8.41
0.93
7.48
10.91
11.45
9.63
5.99
1.0
-4.8
-10.83
-16.42
-21.02
-24.4
-26.74
-28.49
-30.16
-31.98
-33.9
-35.6
-36.82
-37.51
-37.89
-38.39
-39.39
-41.12
-43.54
-46.43
-49.47
-52.35
-54.83
-56.76
-58.19
-59.32
-60.53
-62.26
-64.73
-67.79
-70.67
-72.2
-71.06
-66.37
-57.96
-46.56
-33.59
-20.64
-9.1
0.24
7.14
11.81
14.57
15.72
15.48
14.08
11.95
9.63
7.72
6.63
6.44
6.87
7.47
7.82
7.72
7.25
6.59
5.87
5.02
3.81
1.91
-0.86
-4.48
-8.68
-13.05
-17.18
-20.73
-23.55
-25.71
-27.46
-29.26
-31.6
-34.78
-38.68
-42.61
-45.34
-45.5
-42.14
-35.01
-24.84
-13.02
-1.14
9.45
17.94
24.08
27.99
29.96
30.31
29.33
27.31
24.63
21.75
19.25
17.6
17.1
17.64
18.78
19.84
20.21
19.65
18.25
16.46
14.67
13.05
11.44
9.51
6.95
3.74
0.06
-3.78
-7.5
-11.01
-14.34
-17.56
-20.73
-23.86
-27.09
-30.68
-34.95
-40.05
-45.66
-50.9
-54.43
-54.87
-51.33
-43.77
-33.11
-20.92
-8.89
1.64
9.94
15.92
19.84
22.05
22.81
22.24
20.58
18.21
15.76
13.86
12.97
13.22
14.32
15.79
17.09
17.85
17.92
17.37
16.34
14.98
13.41
11.64
9.64
7.3
4.53
1.28
-2.36
-6.15
-9.77
-12.97
-15.65
-17.99
-20.32
-23.1
-26.72
-31.42
-37.11
-43.39
-49.43
-54.1
-56.16
-54.59
-48.97
-39.68
-27.85
-15.05
-2.79
7.81
16.26
22.56
26.98
29.77
31.04
30.9
29.57
27.46
25.2
23.36
22.36
22.28
22.87
23.72
24.4
24.57
24.07
22.87
21.01
18.64
15.96
13.24
10.7
8.5
6.57
4.69
2.51
-0.25
-3.66
-7.56
-11.58
-15.4
-18.8
-21.91
-25.09
-28.87
-33.69
-39.65
-46.25
-52.4
-56.55
-57.19
-53.36
-45.03
-33.2
-19.53
-5.79
6.59
16.89
24.94
30.89
34.95
37.2
37.73
36.74
34.7
32.21
29.92
28.24
27.39
27.28
27.72
28.47
29.29
29.91
30.1
29.65
28.45
26.58
24.23
21.64
18.98
16.25
13.34
10.12
6.53
2.7
-1.14
-4.71
-7.84
-10.49
-12.81
-15.06
-17.67
-21.07
-25.63
-31.5
-38.3
-45.1
-50.35
-52.34
-49.71
-42.09
-30.27
-16.05
-1.55
11.41
21.86
29.66
35.21
38.94
41.09
41.72
40.91
38.99
36.5
34.13
32.37
31.43
31.21
31.4
31.63
31.61
31.13
30.04
28.22
25.61
22.17
18.0
13.23
8.07
2.66
-2.87
-8.46
-14.02
-19.38
-24.31
-28.62
-32.28
-35.52
-38.79
-42.65
-47.56
-53.59
-60.39
-67.09
-72.43
-75.04
-73.67
-67.71
-57.26
-43.31
-27.45
-11.44
3.23
15.63
25.46
32.8
37.9
41.0
42.31
42.08
40.73
38.76
36.72
35.08
34.08
33.81
34.15
34.85
35.62
36.18
36.36
36.07
35.34
34.22
32.69
30.69
28.09
24.8
20.82
16.25
11.31
6.23
1.24
-3.51
-7.91
-11.99
-15.87
-19.81
-24.22
-29.49
-35.83
-43.02
-50.23
-56.05
-58.86
-57.3
-50.79
-39.86
-26.0
-11.18
2.74
14.55
23.84
30.76
35.75
39.13
41.03
41.5
40.69
39.0
37.04
35.46
34.7
34.85
35.69
36.76
37.65
38.09
37.98
37.3
36.1
34.42
32.31
29.83
27.05
23.95
20.49
16.56
12.18
7.45
2.67
-1.86
-5.9
-9.39
-12.52
-15.64
-19.27
-23.93
-30.02
-37.64
-46.38
-55.2
-62.54
-66.68
-66.25
-60.72
-50.63
-37.39
-22.88
-8.87
3.36
13.18
20.45
25.35
28.06
28.79
27.8
25.54
22.68
20.03
18.3
17.87
18.64
20.09
21.53
22.38
22.43
21.8
20.79
19.68
18.49
17.04
15.0
12.13
8.37
3.94
-0.78
-5.36
-9.45
-12.87
-15.64
-18.04
-20.53
-23.67
-27.99
-33.76
-40.76
-48.2
-54.77
-58.91
-59.23
-54.95
-46.22
-34.01
-19.95
-5.72
7.27
18.21
26.83
33.2
37.52
39.97
40.76
40.23
38.92
37.5
36.66
36.8
37.98
39.89
41.98
43.76
44.97
45.62
45.93
46.13
46.27
46.17
45.52
44.08
41.84
39.1
36.35
34.08
32.54
31.7
31.27
30.86
30.15
29.01
27.45
25.59
23.72
22.24
21.7
22.57
24.97
28.4
31.84
34.11
34.37
32.56
29.26
25.38
21.48
17.59
13.18
7.71
1.01
-6.58
-14.31
-21.47
-27.57
-32.39
-35.87
-37.97
-38.68
-38.06
-36.36
-33.94
-31.33
-28.96
-27.21
-26.26
-26.09
-26.57
-27.45
-28.54
-29.75
-31.18
-33.0
-35.3
-37.99
-40.75
-43.22
-45.2
-46.74
-48.21
-50.15
-53.05
-57.1
-62.05
-67.07
-70.89
-72.04
-69.27
-62.0
-50.57
-36.22
-20.75
-6.01
6.61
16.39
23.25
27.55
29.72
30.18
29.26
27.3
24.82
22.42
20.66
19.89
20.07
20.81
21.54
21.74
21.19
20.03
18.6
17.24
16.09
14.92
13.29
10.71
6.9
1.95
-3.73
-9.51
-14.84
-19.39
-23.16
-26.44
-29.66
-33.32
-37.83
-43.46
-50.21
-57.6
-64.63
-69.8
-71.52
-68.67
-60.99
-49.3
-35.21
-20.55
-6.88
4.93
14.62
22.34
28.31
32.67
35.48
36.83
36.97
36.3
35.33
34.46
33.95
33.78
33.76
33.6
33.04
32.01
30.58
29.03
27.56
26.29
25.1
23.64
21.45
18.18
13.74
8.45
2.93
-2.14
-6.31
-9.53
-12.17
-14.83
-18.12
-22.48
-28.08
-34.86
-42.5
-50.28
-57.06
-61.36
-61.71
-57.17
-47.76
-34.54
-19.37
-4.29
8.97
19.51
27.17
32.36
35.67
37.66
38.73
39.12
39.03
38.68
38.35
38.3
38.71
39.63
40.93
42.33
43.55
44.32
44.45
43.81
42.32
39.89
36.44
31.9
26.27
19.65
12.26
4.48
-3.2
-10.26
-16.28
-21.08
-24.77
-27.73
-30.5
-33.64
-37.62
-42.63
-48.5
-54.52
-59.51
-62.03
-60.78
-55.02
-44.91
-31.54
-16.66
-2.18
10.36
20.06
26.73
30.69
32.43
32.45
31.16
28.98
26.42
24.11
22.65
22.43
23.42
25.19
27.06
28.36
28.71
28.05
26.59
24.63
22.35
19.8
16.88
13.47
9.48
4.94
-0.06
-5.27
-10.35
-14.96
-18.79
-21.81
-24.27
-26.74
-29.93
-34.47
-40.61
-48.04
-55.82
-62.57
-66.68
-66.77
-62.04
-52.54
-39.26
-23.89
-8.43
5.38
16.44
24.38
29.46
32.27
33.43
33.37
32.41
30.83
28.93
27.12
25.79
25.22
25.48
26.39
27.61
28.69
29.26
29.09
28.15
26.59
24.64
22.51
20.21
17.63
14.56
10.86
6.52
1.77
-3.06
-7.63
-11.72
-15.3
-18.42
-21.29
-24.1
-27.16
-30.91
-35.79
-42.13
-49.72
-57.71
-64.54
-68.34
-67.51
-61.34
-50.31
-35.96
-20.41
-5.67
6.81
16.41
23.21
27.67
30.36
31.8
32.36
32.34
31.97
31.46
30.99
30.74
30.88
31.47
32.48
33.72
34.91
35.71
35.79
34.99
33.3
30.87
27.92
24.68
21.31
17.85
14.32
10.7
6.99
3.22
-0.57
-4.31
-7.92
-11.32
-14.52
-17.63
-20.91
-24.8
-29.72
-35.87
-42.93
-49.89
-55.13
-56.84
-53.56
-44.75
-31.12
-14.47
2.81
18.47
30.94
39.6
44.64
46.68
46.43
44.44
41.16
37.0
32.43
28.05
24.43
21.98
20.84
20.87
21.67
22.77
23.69
24.08
23.74
22.6
20.67
18.05
14.85
11.21
7.28
3.17
-1.04
-5.33
-9.63
-13.89
-18.07
-22.13
-26.07
-29.88
-33.56
-37.13
-40.73
-44.63
-49.25
-54.79
-61.03
-67.09
-71.46
-72.48
-68.92
-60.46
-47.93
-33.0
-17.7
-3.74
7.79
16.54
22.65
26.53
28.6
29.22
28.8
27.73
26.52
25.58
25.21
25.52
26.42
27.69
29.04
30.18
30.94
31.22
30.97
30.26
29.1
27.5
25.4
22.77
19.62
16.05
12.18
8.14
4.0
-0.24
-4.51
-8.67
-12.4
-15.41
-17.59
-19.13
-20.59
-22.76
-26.41
-32.01
-39.44
-47.88
-55.87
-61.6
-63.38
-60.13
-51.72
-39.12
-24.12
-8.83
4.89
15.84
23.63
28.55
31.22
32.34
32.41
31.77
30.64
29.28
27.94
26.9
26.33
26.26
26.59
27.15
27.73
28.16
28.27
27.9
26.92
25.28
23.05
20.4
17.46
14.28
10.76
6.8
2.37
-2.37
-7.13
-11.6
-15.58
-19.07
-22.3
-25.57
-29.28
-33.75
-39.24
-45.75
-52.93
-59.92
-65.4
-67.84
-65.99
-59.28
-48.13
-33.9
-18.49
-3.77
8.84
18.66
25.61
29.99
32.21
32.59
31.47
29.25
26.46
23.74
21.64
20.48
20.26
20.69
21.31
21.67
21.4
20.35
18.45
15.81
12.56
8.89
4.95
0.82
-3.58
-8.4
-13.83
-19.87
-26.34
-32.84
-38.93
-44.28
-48.84
-52.83
-56.72
-61.08
-66.47
-73.33
-81.73
-91.15
-100.34
-107.38
-110.17
-107.03
-97.38
-82.05
-63.12
-43.24
-24.88
-9.6
2.18
10.88
17.33
22.2
25.78
28.04
28.93
28.72
28.07
27.85
28.8
31.24
34.9
39.09
43.0
45.95
47.6
47.92
47.08
45.29
42.75
39.63
36.07
32.24
28.35
24.58
21.04
17.81
14.92
12.38
10.21
8.41
6.89
5.42
3.6
0.86
-3.38
-9.53
-17.59
-26.88
-36.05
-43.28
-46.72
-45.11
-38.15
-26.72
-12.5
2.47
16.41
28.17
37.23
43.59
47.47
49.19
49.09
47.52
44.92
41.87
38.99
36.88
35.95
36.33
37.78
39.74
41.6
42.9
43.43
43.29
42.66
41.6
39.99
37.54
34.06
29.58
24.44
19.15
14.21
9.84
5.98
2.4
-1.23
-5.23
-9.9
-15.53
-22.39
-30.52
-39.46
-48.17
-55.12
-58.63
-57.51
-51.37
-40.9
-27.58
-13.26
0.39
12.26
21.83
29.07
34.12
37.18
38.42
38.09
36.62
34.63
32.87
31.94
32.17
33.47
35.4
37.39
38.93
39.78
39.95
39.65
39.07
38.23
36.97
35.01
32.13
28.29
23.75
18.94
14.32
10.24
6.78
3.85
1.18
-1.6
-4.89
-9.1
-14.5
-21.09
-28.47
-35.78
-41.82
-45.31
-45.23
-41.2
-33.54
-23.31
-11.96
-1.0
8.35
15.32
19.58
21.11
20.2
17.27
13.01
8.26
3.91
0.74
-0.8
-0.65
0.9
3.32
5.99
8.3
9.75
10.06
9.22
7.56
5.53
3.56
1.78
0.04
-1.99
-4.6
-7.81
-11.4
-15.03
-18.4
-21.34
-23.92
-26.26
-28.63
-31.37
-34.93
-39.71
-45.89
-53.16
-60.52
-66.44
-69.23
-67.59
-61.07
-50.31
-36.79
-22.43
-8.99
2.43
11.39
18.03
22.61
25.33
26.2
25.26
22.8
19.47
16.18
13.76
12.71
13.06
14.39
16.16
17.87
19.21
20.06
20.38
20.18
19.44
18.17
16.36
14.04
11.19
7.84
3.99
-0.26
-4.76
-9.25
-13.55
-17.56
-21.36
-25.26
-29.69
-35.05
-41.49
-48.66
-55.64
-61.13
-63.72
-62.39
-56.81
-47.43
-35.35
-21.96
-8.59
3.67
14.1
22.28
28.02
31.38
32.65
32.32
31.05
29.54
28.42
28.06
28.57
29.83
31.47
32.99
33.88
33.77
32.55
30.39
27.68
24.82
22.03
19.25
16.18
12.54
8.2
3.35
-1.6
-6.24
-10.36
-14.04
-17.5
-21.03
-24.82
-29.07
-34.01
-39.96
-47.03
-54.93
-62.65
-68.56
-70.85
-68.16
-60.16
-47.73
-32.73
-17.33
-3.33
8.28
17.34
24.18
29.17
32.46
33.98
33.65
31.74
28.9
26.03
23.94
23.03
23.19
23.91
24.61
24.93
24.76
24.26
23.6
22.87
22.04
21.01
19.71
18.11
16.21
14.03
11.51
8.67
5.55
2.37
-0.64
-3.31
-5.6
-7.71
-10.0
-12.88
-16.75
-21.85
-28.23
-35.57
-43.06
-49.38
-52.95
-52.31
-46.74
-36.6
-23.37
-9.15
3.99
14.67
22.45
27.67
31.04
33.14
34.28
34.5
33.84
32.5
30.85
29.35
28.35
27.96
28.11
28.55
29.05
29.42
29.54
29.31
28.69
27.59
25.9
23.49
20.22
16.06
11.19
5.97
0.92
-3.48
-6.98
-9.63
-11.84
-14.15
-17.1
-21.13
-26.48
-33.11
-40.66
-48.35
-55.02
-59.31
-59.98
-56.34
-48.53
-37.52
-24.88
-12.32
-1.25
7.46
13.6
17.45
19.47
20.15
19.84
18.8
17.28
15.64
14.32
13.73
14.07
15.26
16.96
18.64
19.84
20.33
20.1
19.41
18.58
17.89
17.49
17.4
17.61
18.17
19.32
21.4
24.81
29.73
36.01
43.04
49.88
55.29
58.07
57.14
51.82
41.95
28.2
12.1
-4.07
-17.76
-26.82
-30.19
-28.24
-22.58
-15.42
-8.81
-3.99
-1.3
-0.38
-0.64
-1.61
-3.07
-4.83
-6.71
-8.35
-9.29
-9.07
-7.31
-3.84
1.29
7.69
14.59
21.0
25.93
28.76
29.47
28.58
26.88
24.88
22.54
19.25
14.21
7.04
-1.82
-11.11
-19.3
-25.26
-28.76
-30.52
-31.76
-33.5
-36.2
-39.71
-43.65
-47.72
-51.79
-55.62
-58.57
-59.59
-57.69
-52.68
-45.49
-37.88
-31.49
-26.94
-23.5
-19.74
-14.5
-7.82
-0.92
4.5
7.33
7.62
6.48
5.38
5.26
6.27
7.91
9.62
11.17
12.74
14.72
17.26
20.14
22.7
24.19
24.04
22.19
19.04
15.35
11.86
9.0
6.71
4.45
1.48
-2.86
-8.89
-16.44
-24.8
-32.87
-39.3
-42.78
-42.36
-37.8
-29.64
-19.1
-7.78
2.86
11.86
18.82
23.84
27.2
29.14
29.83
29.43
28.22
26.7
25.36
24.64
24.64
25.23
26.06
26.84
27.36
27.53
27.36
26.74
25.49
23.34
20.12
15.82
10.75
5.41
0.3
-4.21
-8.09
-11.62
-15.31
-19.66
-24.93
-30.95
-37.07
-42.24
-45.23
-45.03
-41.1
-33.64
-23.5
-12.0
-0.5
9.88
18.41
24.83
29.15
31.57
32.36
31.84
30.39
28.46
26.48
24.83
23.79
23.44
23.74
24.43
25.18
25.64
25.54
24.79
23.44
21.6
19.29
16.42
12.81
8.37
3.21
-2.32
-7.71
-12.54
-16.71
-20.45
-24.3
-28.87
-34.65
-41.77
-49.86
-57.98
-64.73
-68.61
-68.4
-63.62
-54.75
-43.06
-30.24
-17.86
-6.95
2.01
9.01
14.18
17.63
19.45
19.8
19.01
17.6
16.18
15.27
15.18
15.97
17.46
19.27
21.02
22.34
22.99
22.89
22.12
20.84
19.16
17.08
14.49
11.22
7.21
2.58
-2.31
-7.02
-11.18
-14.65
-17.54
-20.15
-22.84
-25.9
-29.6
-34.14
-39.64
-45.97
-52.57
-58.34
-61.82
-61.62
-56.97
-48.05
-36.0
-22.57
-9.49
1.94
11.1
17.92
22.6
25.39
26.48
26.05
24.46
22.24
20.06
18.53
17.98
18.37
19.33
20.27
20.72
20.43
19.47
18.12
16.7
15.34
13.91
12.07
9.45
5.85
1.36
-3.64
-8.61
-13.04
-16.63
-19.34
-21.39
-23.2
-25.25
-28.08
-32.06
-37.24
-43.17
-48.82
-52.75
-53.49
-50.11
-42.55
-31.72
-19.17
-6.58
4.74
14.09
21.34
26.67
30.32
32.47
33.27
32.92
31.83
30.48
29.36
28.8
28.86
29.36
29.98
30.4
30.37
29.79
28.66
27.09
25.16
22.96
20.46
17.62
14.37
10.73
6.77
2.69
-1.27
-4.95
-8.3
-11.38
-14.28
-17.1
-19.92
-22.87
-26.22
-30.34
-35.61
-42.12
-49.4
-56.39
-61.51
-63.24
-60.58
-53.44
-42.73
-30.0
-16.95
-4.92
5.24
13.25
19.15
23.08
25.29
26.06
25.82
25.06
24.26
23.72
23.6
23.82
24.28
24.86
25.49
26.18
26.87
27.44
27.67
27.33
26.2
24.24
21.58
18.52
15.37
12.35
9.51
6.75
3.9
0.88
-2.37
-5.75
-9.18
-12.57
-15.85
-18.97
-22.02
-25.21
-28.94
-33.68
-39.69
-46.69
-53.78
-59.47
-62.16
-60.63
-54.54
-44.49
-31.93
-18.62
-6.17
4.34
12.49
18.35
22.25
24.54
25.5
25.32
24.27
22.72
21.13
19.93
19.41
19.63
20.41
21.49
22.54
23.32
23.72
23.65
23.1
22.1
20.68
18.94
16.96
14.78
12.39
9.79
6.98
4.08
1.34
-1.02
-2.85
-4.22
-5.41
-6.81
-8.82
-11.69
-15.5
-20.12
-25.24
-30.23
-34.22
-36.19
-35.18
-30.68
-22.82
-12.39
-0.69
10.82
20.91
28.67
33.73
36.02
35.78
33.41
29.47
24.63
19.66
15.4
12.53
11.43
11.97
13.44
14.75
14.81
13.01
9.51
5.17
1.12
-1.79
-3.37
-4.12
-4.87
-6.32
-8.65
-11.46
-13.94
-15.25
-14.9
-12.84
-9.56
-5.85
-2.66
-0.82
-0.94
-3.26
-7.57
-13.16
-18.84
-23.14
-24.53
-21.93
-15.06
-4.66
7.67
20.01
30.68
38.78
44.24
47.6
49.48
50.35
50.3
49.15
46.69
42.76
37.34
30.52
22.55
13.8
4.8
-3.87
-11.6
-17.86
-22.26
-24.56
-24.65
-22.64
-18.86
-13.97
-8.79
-4.11
-0.33
2.72
5.78
9.92
16.09
24.89
36.39
50.17
65.42
80.75
94.19
103.24
105.35
98.87
83.72
61.86
36.75
12.25
-8.65
-24.56
-35.75
-43.45
-48.98
-53.09
-55.86
-56.87
-55.64
-51.84
-45.43
-36.61
-25.8
-13.6
-0.91
11.06
20.85
27.17
29.33
27.68
23.71
19.55
17.25
17.93
21.46
26.68
32.2
37.15
41.46
45.72
50.52
55.87
60.93
64.06
63.25
56.65
43.1
22.51
-3.96
-34.03
-64.78
-93.36
-117.62
-136.52
-150.16
-159.42
-165.57
-169.82
-173.06
-175.71
-177.66
-178.32
-176.79
-172.29
-164.4
-153.34
-139.89
-125.19
-110.4
-96.45
-83.91
-73.05
-63.92
-56.51
-50.79
-46.71
-44.22
-43.24
-43.67
-45.41
-48.4
-52.58
-57.93
-64.38
-71.8
-79.97
-88.63
-97.29
-105.22
-111.34
-114.31
-112.85
-106.2
-94.56
-79.16
-61.92
-44.85
-29.42
-16.26
-5.25
4.09
12.16
19.07
24.7
28.9
31.77
33.64
35.0
36.3
37.72
39.22
40.64
41.87
43.04
44.42
46.32
48.79
51.49
53.72
54.68
53.87
51.28
47.5
43.42
39.96
37.6
36.26
35.26
33.61
30.45
25.55
19.65
14.51
12.44
15.57
25.09
40.79
61.16
83.98
107.02
128.7
148.19
165.24
179.92
192.49
203.36
213.1
222.04
229.71
234.49
233.88
225.38
207.65
181.22
148.25
111.7
74.16
37.2
1.48
-32.55
-64.17
-92.26
-115.79
-134.42
-148.76
-159.97
-169.1
-176.55
-182.01
-184.88
-184.83
-182.25
-178.43
-175.26
-174.73
-178.29
-186.22
-197.27
-208.83
-217.36
-219.49
-212.97
-197.43
-174.42
-146.81
-117.81
-89.96
-64.69
-42.32
-22.56
-5.06
10.29
23.28
33.66
41.36
46.7
50.34
53.13
55.79
58.77
62.07
65.36
68.2
70.24
71.36
71.68
71.42
70.69
69.4
67.27
63.97
59.32
53.46
46.82
40.06
33.83
28.54
24.3
20.89
17.94
15.09
11.93
8.03
2.8
-4.36
-13.82
-25.21
-37.22
-47.69
-54.21
-54.93
-49.21
-37.88
-22.85
-6.44
9.31
23.06
34.25
42.82
48.98
52.98
55.09
55.68
55.2
54.27
53.45
53.18
53.64
54.75
56.16
57.47
58.31
58.48
57.95
56.84
55.34
53.57
51.56
49.18
46.14
42.15
37.01
30.83
24.02
17.19
10.9
5.48
0.8
-3.59
-8.36
-14.07
-21.09
-29.49
-38.95
-48.79
-57.86
-64.65
-67.54
-65.28
-57.46
-44.71
-28.65
-11.35
5.23
19.71
31.48
40.5
47.09
51.64
54.5
55.97
56.41
56.22
55.82
55.59
55.79
56.52
57.69
59.11
60.55
61.76
62.57
62.85
62.45
61.27
59.25
56.45
53.03
49.21
45.19
41.01
36.58
31.71
26.31
20.42
14.3
8.26
2.57
-2.66
-7.53
-12.26
-17.21
-22.74
-29.21
-36.76
-45.16
-53.54
-60.48
-64.31
-63.6
-57.73
-47.15
-33.32
-18.2
-3.69
8.93
19.08
26.81
32.49
36.54
39.3
41.07
42.12
42.72
43.2
43.79
44.64
45.74
46.95
48.09
49.0
49.62
49.94
49.99
49.7
48.85
47.2
44.55
40.92
36.58
31.97
27.54
23.56
20.0
16.6
13.04
9.12
4.91
0.62
-3.44
-7.05
-10.21
-13.12
-16.14
-19.74
-24.32
-30.12
-36.99
-44.31
-50.97
-55.57
-56.76
-53.68
-46.31
-35.47
-22.6
-9.35
2.9
13.27
21.44
27.55
31.91
34.85
36.57
37.14
36.64
35.24
33.29
31.31
29.79
29.13
29.39
30.36
31.61
32.7
33.31
33.32
32.78
31.74
30.27
28.33
25.85
22.83
19.33
15.53
11.62
7.76
4.03
0.44
-3.07
-6.52
-9.92
-13.32
-16.85
-20.83
-25.6
-31.42
-38.1
-44.92
-50.63
-53.82
-53.38
-48.89
-40.75
-30.08
-18.32
-6.83
3.41
11.86
18.41
23.18
26.4
28.29
29.06
28.95
28.2
27.12
26.06
25.32
25.1
25.43
26.16
27.06
27.85
28.33
28.39
27.96
27.01
25.53
23.52
21.02
18.09
14.85
11.41
7.87
4.34
0.87
-2.45
-5.61
-8.57
-11.39
-14.16
-17.11
-20.52
-24.73
-29.88
-35.83
-41.9
-47.0
-49.84
-49.3
-44.9
-36.98
-26.68
-15.53
-5.0
3.92
10.89
16.04
19.75
22.33
23.92
24.54
24.23
23.22
21.89
20.72
20.1
20.27
21.21
22.7
24.38
25.83
26.69
26.75
26.01
24.63
22.91
21.12
19.37
17.63
15.69
13.35
10.48
7.21
3.84
0.8
-1.58
-3.22
-4.33
-5.39
-6.9
-9.17
-12.26
-15.93
-19.83
-23.51
-26.45
-28.05
-27.65
-24.68
-18.92
-10.61
-0.49
10.48
21.48
32.07
42.16
51.8
60.71
68.2
73.32
75.27
73.99
70.27
65.52
61.2
58.13
56.16
54.34
51.43
46.55
39.49
30.71
20.98
10.97
1.04
-8.76
-18.36
-27.62
-36.16
-43.58
-49.63
-54.38
-58.08
-61.06
-63.49
-65.28
-66.18
-66.0
-64.81
-63.02
-61.28
-60.19
-59.96
-60.24
-60.09
-58.35
-53.97
-46.5
-36.24
-24.2
-11.82
-0.55
8.53
14.89
18.56
19.97
19.76
18.59
17.09
15.87
15.44
16.19
18.28
21.54
25.59
29.88
33.96
37.62
40.94
44.16
47.37
50.17
51.63
50.55
45.98
37.76
26.77
14.77
3.72
-4.83
-10.27
-12.87
-13.53
-13.4
-13.65
-15.33
-19.23
-25.65
-34.21
-43.69
-52.37
-58.59
-61.35
-60.65
-57.3
-52.42
-46.87
-40.93
-34.51
-27.57
-20.52
-14.28
-9.99
-8.41
-9.51
-12.4
-15.56
-17.54
-17.54
-15.71
-12.93
-10.31
-8.63
-8.03
-8.1
-8.29
-8.19
-7.79
-7.35
-7.18
-7.48
-8.22
-9.28
-10.55
-11.98
-13.59
-15.38
-17.26
-19.17
-21.18
-23.53
-26.63
-30.9
-36.47
-43.09
-49.98
-55.97
-59.8
-60.41
-57.38
-50.95
-42.02
-31.86
-21.77
-12.77
-5.49
-0.18
3.18
4.76
4.86
3.91
2.47
1.12
0.39
0.5
1.45
2.94
4.61
6.15
7.41
8.37
9.14
9.76
10.21
10.31
9.82
8.46
6.08
2.73
-1.35
-5.74
-9.98
-13.75
-16.92
-19.64
-22.22
-25.07
-28.56
-32.86
-37.84
-42.99
-47.47
-50.24
-50.41
-47.5
-41.61
-33.47
-24.14
-14.77
-6.24
0.92
6.5
10.5
13.0
14.1
14.03
13.15
11.96
10.98
10.64
11.08
12.21
13.67
15.12
16.31
17.15
17.72
18.09
18.23
17.97
17.01
15.11
12.19
8.39
4.05
-0.37
-4.48
-8.04
-11.04
-13.72
-16.48
-19.77
-23.97
-29.16
-34.97
-40.55
-44.67
-46.1
-44.0
-38.23
-29.46
-18.93
-8.1
1.81
10.02
16.26
20.59
23.2
24.31
24.16
23.05
21.41
19.76
18.58
18.18
18.61
19.64
20.87
21.96
22.7
23.06
23.2
23.17
22.88
22.04
20.31
17.51
13.72
9.32
4.87
0.86
-2.49
-5.27
-7.83
-10.68
-14.26
-18.87
-24.48
-30.71
-36.81
-41.72
-44.34
-43.79
-39.72
-32.41
-22.76
-12.02
-1.48
7.87
15.47
21.18
25.12
27.49
28.47
28.28
27.22
25.72
24.31
23.44
23.36
24.01
25.08
26.12
26.75
26.76
26.19
25.19
23.9
22.38
20.53
18.16
15.1
11.3
6.92
2.31
-2.11
-6.01
-9.26
-12.03
-14.72
-17.83
-21.75
-26.66
-32.38
-38.38
-43.83
-47.73
-49.13
-47.41
-42.42
-34.68
-25.19
-15.2
-5.83
2.2
8.6
13.41
16.83
19.05
20.22
20.49
20.12
19.48
18.98
18.93
19.44
20.4
21.52
22.47
23.02
23.08
22.76
22.19
21.45
20.5
19.09
16.96
13.95
10.18
6.01
1.99
-1.44
-4.07
-6.08
-7.91
-10.07
-13.03
-16.94
-21.66
-26.67
-31.21
-34.34
-35.18
-33.12
-28.03
-20.37
-11.05
-1.27
7.87
15.61
21.64
25.99
28.87
30.5
31.01
30.57
29.44
28.04
26.87
26.31
26.46
27.13
27.92
28.43
28.47
28.1
27.5
26.82
26.02
24.9
23.17
20.62
17.24
13.27
9.06
5.03
1.48
-1.49
-3.99
-6.3
-8.8
-11.84
-15.67
-20.35
-25.61
-30.82
-35.08
-37.37
-36.9
-33.39
-27.18
-19.16
-10.49
-2.24
4.87
10.56
14.89
18.06
20.29
21.73
22.45
22.54
22.16
21.52
20.93
20.6
20.67
21.05
21.53
21.79
21.58
20.81
19.6
18.17
16.74
15.38
13.96
12.24
10.0
7.21
4.05
0.84
-2.07
-4.47
-6.4
-8.08
-9.86
-12.11
-15.14
-19.07
-23.79
-28.84
-33.5
-36.87
-38.12
-36.71
-32.54
-26.04
-18.0
-9.44
-1.29
5.71
11.15
14.97
17.32
18.46
18.63
18.08
17.04
15.82
14.78
14.25
14.38
