14.93
15.77
16.34
16.36
15.77
14.69
13.32
11.89
10.46
9.03
7.53
5.88
4.06
2.1
0.03
-2.08
-4.16
-6.15
-8.0
-9.72
-11.34
-12.96
-14.75
-16.93
-19.71
-23.2
-27.28
-31.44
-34.88
-36.7
-36.18
-33.06
-27.65
-20.73
-13.26
-6.15
-0.01
4.87
8.46
10.91
12.41
13.14
13.27
12.98
12.45
11.89
11.53
11.52
11.95
12.77
13.84
14.96
15.94
16.65
16.99
16.95
16.52
15.75
14.68
13.36
11.78
9.95
7.84
5.5
3.04
0.62
-1.59
-3.53
-5.22
-6.86
-8.7
-10.97
-13.85
-17.4
-21.49
-25.79
-29.71
-32.5
-33.47
-32.12
-28.38
-22.64
-15.66
-8.34
-1.51
4.25
8.61
11.51
13.0
13.31
12.72
11.57
10.22
8.99
8.08
7.58
7.48
7.67
8.04
8.44
8.73
8.83
8.69
8.37
7.97
7.52
7.0
6.24
5.04
3.22
0.8
-2.01
-4.86
-7.41
-9.48
-11.11
-12.57
-14.23
-16.43
-19.35
-22.94
-26.89
-30.62
-33.43
-34.59
-33.58
-30.22
-24.79
-17.92
-10.47
-3.28
3.0
8.06
11.86
14.53
16.26
17.18
17.37
16.92
16.05
15.07
14.36
14.2
14.65
15.49
16.36
16.88
16.89
16.43
15.71
14.93
14.13
13.17
11.85
10.0
7.64
4.93
2.1
-0.65
-3.19
-5.49
-7.6
-9.64
-11.78
-14.28
-17.38
-21.25
-25.84
-30.72
-35.15
-38.22
-39.05
-37.16
-32.59
-25.94
-18.19
-10.35
-3.24
2.73
7.47
11.11
13.79
15.58
16.54
16.76
16.46
15.97
15.67
15.78
16.39
17.31
18.29
19.04
19.44
19.47
19.25
18.85
18.25
17.31
15.81
13.64
10.83
7.62
4.32
1.23
-1.47
-3.8
-5.92
-8.06
-10.44
-13.22
-16.45
-20.07
-23.82
-27.29
-29.89
-31.01
-30.16
-27.13
-22.11
-15.68
-8.65
-1.87
3.98
8.55
11.79
13.88
15.02
15.37
15.05
14.18
12.96
11.7
10.7
10.16
10.09
10.36
10.79
11.26
11.72
12.14
12.43
12.36
11.67
10.13
7.72
4.64
1.28
-1.96
-4.79
-7.12
-9.16
-11.26
-13.85
-17.22
-21.38
-25.95
-30.24
-33.35
-34.47
-33.1
-29.18
-23.12
-15.68
-7.78
-0.26
6.24
11.36
14.98
17.22
18.29
18.46
18.02
17.29
16.6
16.17
16.15
16.48
16.98
17.41
17.59
17.46
17.1
16.64
16.11
15.38
14.25
12.44
9.88
6.71
3.27
-0.06
-2.97
-5.36
-7.39
-9.37
-11.71
-14.71
-18.48
-22.83
-27.21
-30.82
-32.74
-32.26
-29.1
-23.55
-16.45
-8.88
-1.88
3.89
8.2
11.23
13.29
14.7
15.6
16.02
16.0
15.69
15.36
15.28
15.63
16.34
17.2
17.91
18.22
18.08
17.6
16.98
16.37
15.76
14.98
13.76
11.86
9.22
6.05
2.68
-0.48
-3.15
-5.29
-7.05
-8.71
-10.6
-12.96
-15.96
-19.55
-23.51
-27.34
-30.37
-31.87
-31.25
-28.3
-23.27
-16.79
-9.73
-2.89
3.16
8.15
12.03
14.87
16.75
17.71
17.83
17.29
16.38
15.49
14.96
14.95
15.42
16.12
16.73
17.03
16.96
16.6
16.08
15.49
14.74
13.67
12.08
9.87
7.11
4.05
1.01
-1.74
-4.09
-6.08
-7.94
-9.96
-12.4
-15.39
-18.9
-22.64
-26.06
-28.44
-29.06
-27.44
-23.54
-17.81
-11.04
-4.11
2.31
7.84
12.36
15.88
18.39
19.84
20.23
19.72
18.61
17.35
16.32
15.78
15.78
16.27
17.06
17.95
18.72
19.15
19.1
18.51
17.44
16.02
14.39
12.6
10.65
8.48
6.06
3.47
0.85
-1.6
-3.76
-5.58
-7.15
-8.67
-10.38
-12.52
-15.23
-18.53
-22.21
-25.85
-28.76
-30.15
-29.38
-26.15
-20.74
-13.93
-6.71
-0.03
5.56
9.89
13.12
15.46
17.02
17.81
17.86
17.34
16.59
16.02
15.9
16.3
17.03
17.79
18.32
18.52
18.4
18.03
17.46
16.65
15.53
14.11
12.47
10.74
9.05
7.41
5.77
4.04
2.24
0.43
-1.31
-2.93
-4.46
-6.03
-7.81
-9.93
-12.47
-15.44
-18.8
-22.36
-25.77
-28.54
-30.03
-29.72
-27.3
-22.92
-17.13
-10.75
-4.64
0.59
4.7
7.76
10.01
11.68
12.86
13.52
13.66
13.35
12.82
12.36
12.17
12.33
12.74
13.2
13.48
13.45
13.06
12.4
11.6
10.8
10.03
9.21
8.13
6.57
4.43
1.82
-0.95
-3.48
-5.49
-6.9
-7.89
-8.8
-9.99
-11.74
-14.14
-17.11
-20.43
-23.7
-26.4
-27.92
-27.73
-25.54
-21.45
-15.97
-9.86
-3.91
1.27
5.37
8.36
10.35
11.52
12.01
12.0
11.65
11.13
10.63
10.25
10.06
10.09
10.35
10.85
11.56
12.39
13.16
13.68
13.75
13.31
12.4
11.13
9.57
7.78
5.72
3.42
0.96
-1.45
-3.59
-5.34
-6.69
-7.82
-8.98
-10.38
-12.18
-14.43
-17.15
-20.24
-23.49
-26.5
-28.71
-29.52
-28.51
-25.59
-21.06
-15.53
-9.72
-4.27
0.41
4.13
6.83
8.57
9.44
9.61
9.33
8.93
8.67
8.71
9.05
9.57
10.11
10.57
10.92
11.17
11.3
11.26
10.94
10.27
9.26
8.03
6.72
5.4
4.1
2.74
1.24
-0.46
-2.29
-4.09
-5.72
-7.06
-8.15
-9.12
-10.21
-11.62
-13.49
-15.83
-18.53
-21.32
-23.82
-25.52
-25.92
-24.66
-21.65
-17.19
-11.88
-6.49
-1.67
2.15
4.9
6.71
7.81
8.34
8.39
8.01
7.3
6.45
5.69
5.25
5.22
5.52
5.99
6.45
6.77
6.9
6.89
6.8
6.64
6.32
5.7
4.62
2.98
0.82
-1.65
-4.11
-6.24
-7.83
-8.92
-9.75
-10.68
-12.07
-14.12
-16.83
-19.95
-23.08
-25.71
-27.27
-27.34
-25.65
-22.3
-17.67
-12.39
-7.12
-2.41
1.45
4.43
6.61
8.11
9.02
9.34
9.15
8.58
7.9
7.36
7.17
7.37
7.89
8.53
9.1
9.46
9.53
9.3
8.84
8.26
7.66
7.06
6.41
5.56
4.35
2.72
0.72
-1.47
-3.62
-5.59
-7.33
-8.91
-10.41
-11.96
-13.66
-15.61
-17.88
-20.42
-23.01
-25.2
-26.38
-25.99
-23.69
-19.51
-13.97
-7.86
-2.07
2.72
6.18
8.36
9.55
10.08
10.21
10.05
9.64
9.04
8.41
7.97
7.92
8.34
9.13
10.09
10.95
11.55
11.82
11.79
11.54
11.09
10.42
9.44
8.08
6.38
4.45
2.45
0.51
-1.32
-3.11
-4.93
-6.83
-8.69
-10.38
-11.77
-12.94
-14.14
-15.74
-18.05
-21.03
-24.25
-26.96
-28.33
-27.73
-24.99
-20.44
-14.75
-8.74
-3.11
1.68
5.44
8.18
9.96
10.85
10.94
10.32
9.24
8.09
7.28
7.1
7.62
8.68
9.9
10.94
11.56
11.71
11.51
11.09
10.56
9.89
8.97
7.67
5.9
3.67
1.13
-1.46
-3.84
-5.81
-7.39
-8.75
-10.12
-11.77
-13.87
-16.48
-19.57
-22.96
-26.32
-29.12
-30.7
-30.44
-27.98
-23.39
-17.21
-10.33
-3.67
2.04
6.49
9.74
12.07
13.76
14.97
15.68
15.83
15.44
14.7
13.91
13.4
13.35
13.73
14.3
14.75
14.86
14.6
14.12
13.61
13.21
12.89
12.43
11.52
9.97
7.72
4.97
2.03
-0.75
-3.15
-5.1
-6.7
-8.16
-9.66
-11.4
-13.51
-16.09
-19.18
-22.66
-26.17
-29.05
-30.51
-29.84
-26.71
-21.35
-14.52
-7.25
-0.52
5.03
9.21
12.13
14.11
15.38
16.12
16.37
16.19
15.71
15.11
14.59
14.32
14.41
14.8
15.41
16.1
16.72
17.16
17.3
17.05
16.39
15.32
13.88
12.14
10.12
7.91
5.58
3.26
1.07
-0.88
-2.61
-4.22
-5.85
-7.67
-9.8
-12.34
-15.3
-18.61
-22.02
-25.07
-27.14
-27.58
-25.98
-22.31
-17.0
-10.77
-4.43
1.39
6.33
10.26
13.21
15.19
16.21
16.35
15.76
14.71
13.54
12.54
11.91
11.71
11.87
12.26
12.7
13.01
13.07
12.81
12.26
11.44
10.41
9.11
7.48
5.44
3.0
0.32
-2.38
-4.86
-7.0
-8.9
-10.82
-13.07
-15.88
-19.25
-22.84
-26.07
-28.23
-28.73
-27.21
-23.7
-18.59
-12.47
-6.05
0.05
5.34
9.54
12.58
14.51
15.55
15.93
15.86
15.57
15.2
14.87
14.65
14.56
14.56
14.58
14.54
14.43
14.25
14.04
13.81
13.53
13.1
12.35
11.14
9.38
7.09
4.4
1.51
-1.34
-3.94
-6.2
-8.19
-10.07
-12.12
-14.57
-17.56
-20.97
-24.41
-27.25
-28.76
-28.35
-25.74
-21.14
-15.13
-8.52
-2.08
3.63
8.31
11.89
14.45
16.05
16.77
16.72
16.08
15.16
14.32
13.87
13.99
14.64
15.61
16.6
17.36
17.73
17.67
17.21
16.43
15.41
14.18
12.79
11.24
9.49
7.5
5.25
2.8
0.25
-2.2
-4.41
-6.32
-7.98
-9.59
-11.41
-13.72
-16.7
-20.35
-24.34
-28.06
-30.66
-31.33
-29.58
-25.45
-19.52
-12.67
-5.83
0.3
5.37
9.29
12.07
13.77
14.46
14.3
13.56
12.63
11.88
11.56
11.76
12.36
13.15
13.86
14.28
14.35
14.14
13.78
13.42
13.04
12.49
11.48
9.79
7.33
4.3
1.04
-2.01
-4.53
-6.38
-7.69
-8.72
-9.89
-11.56
-13.99
-17.19
-20.93
-24.62
-27.51
-28.86
-28.11
-25.12
-20.18
-13.94
-7.24
-0.86
4.62
8.88
11.87
13.66
14.42
14.29
13.48
12.29
11.05
10.11
9.74
10.01
10.78
11.75
12.52
12.81
12.52
11.81
10.96
10.22
9.66
9.09
8.14
6.5
4.1
1.16
-1.86
-4.46
-6.39
-7.7
-8.75
-9.97
-11.74
-14.27
-17.54
-21.38
-25.38
-28.97
-31.45
-32.04
-30.24
-25.99
-19.78
-12.57
-5.45
0.73
5.58
9.18
11.85
13.9
15.42
16.35
16.58
16.18
15.42
14.7
14.33
14.41
14.76
15.12
15.24
15.06
14.65
14.14
13.57
12.89
11.93
10.52
8.6
6.26
3.66
1.04
-1.45
-3.71
-5.7
-7.45
-9.02
-10.52
-12.08
-13.89
-16.15
-18.98
-22.29
-25.68
-28.5
-29.99
-29.51
-26.8
-22.09
-15.99
-9.29
-2.77
3.01
7.77
11.37
13.83
15.23
15.66
15.31
14.4
13.19
11.99
11.09
10.69
10.81
11.34
12.06
12.7
13.08
13.16
12.95
12.53
11.84
10.8
9.25
7.15
4.57
1.71
-1.12
-3.7
-5.92
-7.81
-9.51
-11.25
-13.26
-15.74
-18.75
-22.14
-25.46
-27.97
-28.88
-27.55
-23.8
-18.03
-11.08
-3.99
2.34
7.42
11.14
13.7
15.34
16.22
16.43
15.99
15.02
13.77
12.61
11.88
11.77
12.24
13.03
13.75
14.08
13.84
13.08
12.01
10.86
9.76
8.67
7.44
5.85
3.8
1.34
-1.32
-3.92
-6.27
-8.36
-10.37
-12.55
-15.17
-18.36
-22.03
-25.89
-29.41
-31.95
-32.86
-31.71
-28.38
-23.16
-16.64
-9.6
-2.8
3.15
7.89
11.3
13.48
14.62
15.0
14.86
14.39
13.76
13.11
12.6
12.43
12.72
13.49
14.56
15.64
16.4
16.59
16.17
15.19
13.88
12.42
10.95
9.51
8.05
6.46
4.65
2.6
0.36
-1.94
-4.15
-6.18
-7.99
-9.72
-11.57
-13.77
-16.51
-19.87
-23.68
-27.53
-30.74
-32.54
-32.27
-29.56
-24.55
-17.84
-10.35
-3.05
3.31
8.32
11.94
14.33
15.76
16.43
16.48
16.09
15.43
14.74
14.26
14.14
14.41
14.98
15.62
16.15
16.38
16.28
15.89
15.32
14.64
13.87
12.95
11.77
10.2
8.19
5.75
3.0
0.09
-2.78
-5.46
-7.83
-9.86
-11.69
-13.54
-15.7
-18.38
-21.63
-25.13
-28.31
-30.45
-30.87
-29.2
-25.48
-20.14
-13.84
-7.3
-1.09
4.35
8.74
11.89
13.71
14.23
13.67
12.45
11.1
10.09
9.73
10.07
10.94
12.01
12.95
13.5
13.56
13.22
12.65
12.03
11.44
10.78
9.8
8.28
6.11
3.42
0.52
-2.22
-4.55
-6.39
-7.91
-9.38
-11.08
-13.25
-16.04
-19.45
-23.27
-27.06
-30.18
-31.88
-31.58
-29.05
-24.5
-18.52
-11.92
-5.44
0.39
5.3
9.19
12.08
14.01
15.06
15.34
15.05
14.39
13.63
13.01
12.73
12.88
13.41
14.13
14.78
15.08
14.91
14.33
13.52
12.7
11.98
11.25
10.33
9.01
7.2
4.96
2.47
-0.08
-2.53
-4.78
-6.78
-8.57
-10.23
-11.94
-13.98
-16.59
-19.87
-23.66
-27.45
-30.48
-31.93
-31.18
-28.04
-22.85
-16.31
-9.35
-2.8
2.78
7.13
10.26
12.3
13.39
13.71
13.44
12.82
12.09
11.5
11.2
11.27
11.71
12.42
13.24
14.0
14.51
14.67
14.46
13.95
13.23
12.34
11.22
9.73
7.8
5.45
2.87
0.36
-1.78
-3.45
-4.71
-5.84
-7.16
-9.0
-11.51
-14.71
-18.4
-22.22
-25.61
-27.92
-28.51
-27.02
-23.43
-18.16
-11.95
-5.66
0.0
4.64
8.16
10.67
12.31
13.17
13.26
12.67
11.58
10.34
9.4
9.06
9.4
10.27
11.27
12.03
12.29
12.03
11.42
10.69
10.02
9.41
8.73
7.74
6.23
4.15
1.63
-1.02
-3.45
-5.37
-6.71
-7.65
-8.51
-9.65
-11.38
-13.85
-17.05
-20.72
-24.43
-27.5
-29.16
-28.8
-26.1
-21.3
-15.08
-8.39
-2.14
3.07
7.05
9.9
11.85
13.08
13.68
13.69
13.23
12.51
11.84
11.5
11.63
12.24
13.18
14.23
15.2
15.92
16.26
16.12
15.45
14.25
12.63
10.76
8.86
7.03
5.27
3.46
1.53
-0.5
-2.47
-4.18
-5.54
-6.63
-7.72
-9.13
-11.12
-13.81
-17.13
-20.86
-24.61
-27.84
-29.89
-30.17
-28.26
-24.16
-18.32
-11.51
-4.63
1.59
6.67
10.45
12.99
14.45
14.97
14.74
13.95
12.88
11.87
11.22
11.14
11.65
12.57
13.6
14.48
15.0
15.11
14.87
14.36
13.61
12.64
11.47
10.12
8.6
6.94
5.17
3.3
1.38
-0.55
-2.4
-4.14
-5.79
-7.42
-9.14
-11.04
-13.25
-15.86
-18.87
-22.12
-25.18
-27.39
-28.03
-26.6
-23.01
-17.67
-11.35
-4.91
0.93
5.75
9.43
12.02
13.64
14.43
14.5
14.0
13.14
12.14
11.27
10.78
10.82
11.38
12.27
13.2
13.86
14.05
13.72
12.96
11.91
10.65
9.24
7.68
5.96
4.12
2.19
0.25
-1.67
-3.5
-5.24
-6.84
-8.36
-9.89
-11.62
-13.73
-16.33
-19.44
-22.86
-26.24
-29.06
-30.75
-30.78
-28.79
-24.78
-19.11
-12.48
-5.74
0.34
5.26
8.79
11.05
12.26
12.71
12.64
12.27
11.76
11.29
10.99
10.92
11.09
11.44
11.87
12.28
12.59
12.76
12.74
12.51
12.04
11.32
10.35
9.17
7.84
6.4
4.9
3.32
1.65
-0.09
-1.88
-3.66
-5.38
-7.04
-8.68
-10.4
-12.28
-14.44
-16.97
-19.89
-23.09
-26.25
-28.82
-30.14
-29.61
-26.91
-22.21
-16.06
-9.33
-2.9
2.57
6.71
9.51
11.2
12.11
12.54
12.73
12.79
12.77
12.69
12.61
12.59
12.74
13.1
13.66
14.32
14.97
15.5
15.78
15.75
15.31
14.44
13.13
11.43
9.43
7.26
5.04
2.9
0.9
-0.95
-2.71
-4.42
-6.15
-7.89
-9.63
-11.41
-13.32
-15.55
-18.26
-21.43
-24.77
-27.69
-29.44
-29.37
-27.16
-22.95
-17.27
-10.91
-4.62
1.02
5.69
9.29
11.86
13.48
14.22
14.18
13.52
12.49
11.38
10.45
9.91
9.84
10.19
10.8
11.46
11.93
12.05
11.69
10.88
9.75
8.45
7.14
5.86
4.52
2.99
1.18
-0.92
-3.15
-5.25
-7.07
-8.55
-9.79
-11.03
-12.53
-14.48
-17.0
-20.04
-23.42
-26.74
-29.48
-31.03
-30.86
-28.7
-24.64
-19.11
-12.79
-6.43
-0.67
4.08
7.64
10.1
11.65
12.52
12.94
13.04
12.95
12.76
12.55
12.42
12.42
12.56
12.82
13.09
13.32
13.45
13.46
13.34
13.04
12.52
11.7
10.55
9.06
7.27
5.26
3.11
0.88
-1.34
-3.49
-5.51
-7.34
-8.97
-10.46
-11.97
-13.74
-16.0
-18.88
-22.3
-25.86
-28.95
-30.83
-30.86
-28.71
-24.43
-18.52
-11.7
-4.82
1.43
6.58
10.47
13.13
14.71
15.41
15.42
14.92
14.11
13.19
12.39
11.86
11.71
11.96
12.57
13.41
14.31
15.04
15.39
15.26
14.66
13.75
12.73
11.75
10.74
9.53
7.87
5.66
3.01
0.26
-2.23
-4.21
-5.69
-6.96
-8.41
-10.4
-13.07
-16.35
-19.94
-23.45
-26.42
-28.37
-28.81
-27.38
-24.0
-18.94
-12.83
-6.5
-0.69
4.11
7.78
10.41
12.15
13.08
13.22
12.6
11.42
10.03
8.84
8.17
8.16
8.73
9.65
10.67
11.58
12.25
12.61
12.63
12.25
11.45
10.19
8.5
6.45
4.15
1.77
-0.52
-2.56
-4.3
-5.81
-7.26
-8.9
-10.96
-13.61
-16.86
-20.57
-24.42
-27.91
-30.41
-31.33
-30.25
-27.06
-22.07
-15.92
-9.39
-3.27
1.92
5.91
8.7
10.47
11.43
11.8
11.75
11.44
11.05
10.75
10.73
11.09
11.82
12.78
13.67
14.25
14.32
13.9
13.16
12.31
11.49
10.67
9.68
8.26
6.29
3.8
1.02
-1.73
-4.17
-6.18
-7.81
-9.24
-10.71
-12.46
-14.65
-17.36
-20.5
-23.8
-26.73
-28.65
-28.91
-27.09
-23.18
-17.59
-11.06
-4.39
1.71
6.76
10.56
13.05
14.35
14.63
14.19
13.39
12.6
12.16
12.21
12.72
13.49
14.26
14.79
14.96
14.77
14.32
13.74
13.11
12.38
11.45
10.18
8.51
6.46
4.21
1.98
-0.01
-1.62
-2.91
-4.04
-5.32
-7.06
-9.51
-12.7
-16.39
-20.07
-23.03
-24.57
-24.17
-21.68
-17.33
-11.67
-5.43
0.69
6.16
10.64
13.97
16.14
17.17
17.12
16.12
14.43
12.37
10.36
8.72
7.68
7.26
7.34
7.71
8.11
8.37
8.37
8.12
7.64
6.97
6.11
5.0
3.59
1.88
-0.07
-2.07
-3.95
-5.6
-7.06
-8.5
-10.21
-12.41
-15.18
-18.4
-21.7
-24.54
-26.29
-26.43
-24.65
-21.01
-15.91
-9.99
-3.97
1.57
6.25
9.96
12.72
14.62
15.7
15.98
15.57
14.66
13.59
12.74
12.41
12.68
13.38
14.17
14.66
14.66
14.19
13.44
12.66
11.95
11.23
10.23
8.68
6.49
3.8
0.94
-1.73
-3.91
-5.56
-6.83
-8.01
-9.41
-11.26
-13.73
-16.78
-20.18
-23.48
-26.03
-27.09
-26.1
-22.88
-17.71
-11.3
-4.59
1.57
6.63
10.38
12.93
14.51
15.33
15.57
15.33
14.75
14.05
13.46
13.23
13.48
14.18
15.12
15.95
16.41
16.31
15.68
14.74
13.8
13.01
12.38
11.71
10.69
9.14
7.03
4.6
2.17
0.02
-1.71
-3.1
-4.34
-5.67
-7.28
-9.25
-11.62
-14.37
-17.35
-20.26
-22.6
-23.81
-23.38
-21.1
-17.17
-12.19
-6.94
-2.11
1.86
4.88
7.07
8.61
9.57
9.99
9.88
9.33
8.56
7.86
7.44
7.42
7.79
8.4
9.06
9.63
9.99
10.15
10.11
9.92
9.55
8.95
8.01
6.67
4.95
2.96
0.84
-1.24
-3.17
-4.95
-6.67
-8.46
-10.47
-12.83
-15.61
-18.74
-21.98
-24.89
-26.88
-27.41
-26.1
-22.94
-18.29
-12.76
-7.09
-1.91
2.42
5.79
8.28
10.04
11.23
11.91
12.16
12.08
11.79
11.46
11.22
11.13
11.19
11.33
11.45
11.43
11.17
10.62
9.8
8.81
7.79
6.82
5.85
4.74
3.33
1.56
-0.48
-2.59
-4.52
-6.1
-7.33
-8.35
-9.37
-10.63
-12.29
-14.47
-17.17
-20.26
-23.48
-26.34
-28.25
-28.62
-27.08
-23.65
-18.68
-12.89
-7.05
-1.86
2.28
5.3
7.37
8.76
9.69
10.25
10.43
10.21
9.67
9.05
8.66
8.78
9.46
10.54
11.69
12.57
12.97
12.89
12.5
11.97
11.39
10.71
9.81
8.58
6.96
5.04
2.98
0.97
-0.84
-2.37
-3.67
-4.88
-6.13
-7.59
-9.32
-11.38
-13.73
-16.31
-18.91
-21.16
