-29.26
-34.04
-37.77
-39.88
-39.82
-37.27
-32.32
-25.5
-17.7
-9.87
-2.89
2.72
6.78
9.38
10.8
11.38
11.41
11.15
10.82
10.58
10.53
10.74
11.17
11.78
12.52
13.34
14.18
14.91
15.39
15.46
15.01
14.05
12.64
10.96
9.12
7.25
5.41
3.66
2.01
0.47
-0.97
-2.35
-3.7
-5.06
-6.46
-7.95
-9.59
-11.46
-13.67
-16.3
-19.4
-22.91
-26.53
-29.71
-31.71
-31.8
-29.47
-24.71
-18.05
-10.43
-2.92
3.62
8.71
12.3
14.59
15.9
16.45
16.37
15.75
14.74
13.61
12.7
12.32
12.58
13.38
14.41
15.3
15.72
15.55
14.85
13.8
12.6
11.36
10.09
8.64
6.87
4.67
2.04
-0.87
-3.84
-6.59
-8.93
-10.78
-12.2
-13.38
-14.58
-16.05
-18.04
-20.66
-23.87
-27.34
-30.47
-32.46
-32.54
-30.27
-25.61
-19.1
-11.63
-4.2
2.38
7.58
11.3
13.67
14.99
15.54
15.54
15.16
14.55
13.87
13.31
13.07
13.27
13.9
14.76
15.6
16.16
16.3
16.01
15.43
14.72
13.96
13.17
12.25
11.06
9.53
7.64
5.46
3.15
0.84
-1.34
-3.34
-5.22
-7.13
-9.21
-11.61
-14.4
-17.57
-21.04
-24.57
-27.79
-30.19
-31.2
-30.39
-27.63
-23.25
-17.95
-12.6
-7.9
-4.22
-1.56
0.35
1.74
2.72
3.3
3.46
3.29
3.01
2.89
3.16
3.92
5.14
6.63
8.14
9.43
10.29
10.67
10.65
10.39
10.09
9.79
9.4
8.67
7.41
5.59
3.36
1.05
-1.06
-2.83
-4.32
-5.69
-7.1
-8.63
-10.31
-12.21
-14.44
-17.2
-20.51
-24.16
-27.56
-29.85
-30.19
-28.04
-23.39
-16.84
-9.37
-2.05
4.26
9.09
12.44
14.54
15.77
16.4
16.58
16.43
16.06
15.67
15.49
15.66
16.19
16.85
17.34
17.38
16.86
15.9
14.77
13.74
12.97
12.39
11.74
10.72
9.1
6.84
4.14
1.31
-1.28
-3.43
-5.13
-6.61
-8.2
-10.26
-13.06
-16.69
-21.05
-25.79
-30.3
-33.8
-35.5
-34.81
-31.58
-26.19
-19.44
-12.29
-5.61
0.05
4.51
7.82
10.1
11.43
11.85
11.42
10.35
8.99
7.78
7.15
7.28
8.13
9.38
10.6
11.45
11.75
11.59
11.14
10.58
9.96
9.19
8.11
6.66
4.86
2.88
0.92
-0.92
-2.63
-4.3
-6.0
-7.8
-9.7
-11.75
-14.05
-16.79
-20.1
-23.89
-27.81
-31.13
-33.01
-32.69
-29.77
-24.4
-17.25
-9.26
-1.44
5.44
10.91
14.78
17.03
17.73
17.01
15.14
12.55
9.8
7.49
6.06
5.69
6.28
7.51
8.96
10.27
11.23
11.78
11.94
11.84
11.52
10.99
10.19
9.09
7.7
6.09
4.34
2.49
0.56
-1.52
-3.72
-5.93
-8.01
-9.8
-11.29
-12.69
-14.37
-16.74
-19.97
-23.84
-27.7
-30.58
-31.52
-29.93
-25.77
-19.61
-12.38
-5.08
1.53
7.05
11.4
14.63
16.82
17.99
18.22
17.67
16.67
15.62
14.89
14.71
15.06
15.72
16.43
16.96
17.18
17.02
16.55
15.78
14.74
13.42
11.79
9.82
7.48
4.82
1.92
-1.02
-3.79
-6.23
-8.29
-10.07
-11.8
-13.77
-16.3
-19.55
-23.45
-27.62
-31.38
-33.89
-34.38
-32.44
-28.09
-21.87
-14.6
-7.17
-0.29
5.62
10.39
14.02
16.57
18.14
18.8
18.75
18.24
17.58
17.1
17.02
17.37
18.0
18.62
18.93
18.75
18.07
17.05
15.88
14.69
13.48
12.13
10.44
8.26
5.59
2.58
-0.47
-3.21
-5.4
-7.0
-8.25
-9.54
-11.33
-13.96
-17.53
-21.92
-26.76
-31.44
-35.26
-37.45
-37.4
-34.79
-29.79
-22.99
-15.29
-7.66
-0.83
4.75
9.03
12.15
14.37
15.94
17.0
17.62
17.84
17.74
17.48
17.31
17.45
17.99
18.8
19.58
19.98
19.73
18.77
17.23
15.33
13.24
11.05
8.75
6.34
3.86
1.43
-0.77
-2.62
-4.08
-5.2
-6.09
-6.93
-7.9
-9.23
-11.14
-13.76
-17.12
-21.04
-25.1
-28.66
-31.0
-31.48
-29.69
-25.62
-19.68
-12.56
-5.12
1.87
7.84
12.52
15.85
17.93
18.92
19.01
18.43
17.48
16.46
15.67
15.27
15.31
15.71
16.31
16.87
17.2
17.13
16.64
15.8
14.79
13.78
12.79
11.68
10.17
8.05
5.25
2.02
-1.2
-4.01
-6.17
-7.77
-9.14
-10.7
-12.77
-15.52
-18.9
-22.64
-26.29
-29.19
-30.67
-30.14
-27.36
-22.51
-16.22
-9.35
-2.75
3.01
7.66
11.24
13.91
15.83
17.08
17.73
17.85
17.62
17.25
16.97
16.92
17.12
17.5
17.9
18.17
18.22
18.0
17.54
16.87
15.98
14.84
13.38
11.56
9.39
6.91
4.23
1.45
-1.34
-4.01
-6.51
-8.79
-10.91
-13.01
-15.36
-18.22
-21.68
-25.61
-29.52
-32.72
-34.42
-34.02
-31.31
-26.52
-20.23
-13.24
-6.3
0.02
5.35
9.59
12.74
14.91
16.25
16.94
17.18
17.12
16.93
16.71
16.61
16.73
17.11
17.7
18.31
18.72
18.73
18.3
17.51
16.49
15.34
14.06
12.58
10.86
8.94
6.93
4.93
2.92
0.83
-1.46
-3.95
-6.5
-8.91
-11.03
-12.87
-14.66
-16.75
-19.43
-22.83
-26.76
-30.72
-33.99
-35.77
-35.44
-32.7
-27.76
-21.22
-13.92
-6.73
-0.33
4.89
8.83
11.59
13.35
14.33
14.75
14.81
14.7
14.6
14.69
15.07
15.8
16.8
17.96
19.09
20.01
20.59
20.74
20.41
19.59
18.34
16.75
14.94
13.06
11.16
9.23
7.21
5.05
2.78
0.47
-1.72
-3.71
-5.47
-7.09
-8.72
-10.55
-12.75
-15.45
-18.63
-22.17
-25.65
-28.51
-30.05
-29.64
-26.99
-22.26
-16.05
-9.24
-2.72
2.86
7.19
10.26
12.26
13.38
13.78
13.57
12.86
11.83
10.76
9.91
9.51
9.62
10.14
10.85
11.51
11.94
12.04
11.8
11.25
10.42
9.29
7.85
6.07
3.95
1.56
-0.98
-3.49
-5.79
-7.71
-9.16
-10.21
-11.01
-11.88
-13.13
-15.06
-17.78
-21.22
-25.08
-28.79
-31.68
-33.03
-32.31
-29.35
-24.34
-17.9
-10.82
-3.94
2.12
6.99
10.61
13.07
14.51
15.14
15.13
14.69
14.03
13.38
12.87
12.6
12.57
12.74
13.06
13.43
13.72
13.82
13.57
12.9
11.81
10.36
8.69
6.92
5.13
3.39
1.68
-0.0
-1.68
-3.34
-4.97
-6.53
-8.02
-9.45
-10.92
-12.57
-14.59
-17.14
-20.32
-24.01
-27.87
-31.32
-33.68
-34.3
-32.76
-29.0
-23.35
-16.5
-9.3
-2.55
3.17
7.61
10.78
12.89
14.15
14.75
14.81
14.47
13.91
13.34
12.99
12.99
13.31
13.83
14.37
14.76
14.93
14.85
14.57
14.13
13.57
12.88
12.04
10.99
9.74
8.28
6.61
4.75
2.71
0.51
-1.78
-4.03
-6.13
-7.98
-9.6
-11.13
-12.81
-14.92
-17.69
-21.16
-25.05
-28.8
-31.61
-32.64
-31.35
-27.62
-21.91
-15.05
-8.0
-1.56
3.78
7.86
10.75
12.58
13.48
13.58
13.06
12.18
11.28
10.68
10.58
11.01
11.82
12.77
13.56
14.0
14.0
13.62
12.97
12.14
11.21
10.14
8.92
7.53
5.98
4.29
2.48
0.56
-1.48
-3.6
-5.74
-7.83
-9.86
-11.83
-13.85
-16.07
-18.64
-21.69
-25.19
-28.93
-32.43
-35.05
-36.04
-34.87
-31.39
-25.94
-19.25
-12.19
-5.51
0.31
5.07
8.75
11.42
13.15
14.02
14.19
13.84
13.24
12.62
12.22
12.17
12.56
13.39
14.57
15.87
17.02
17.72
17.75
17.07
15.82
14.25
12.62
11.06
9.55
8.0
6.27
4.31
2.17
-0.02
-2.14
-4.14
-6.04
-7.93
-9.96
-12.2
-14.76
-17.68
-20.99
-24.65
-28.48
-32.09
-34.86
-36.08
-35.14
-31.79
-26.25
-19.23
-11.69
-4.56
1.54
6.37
10.0
12.67
14.55
15.78
16.38
16.43
16.02
15.37
14.72
14.32
14.33
14.8
15.66
16.71
17.77
18.63
19.14
19.14
18.57
17.4
15.73
13.77
11.77
9.9
8.21
6.63
5.01
3.27
1.38
-0.58
-2.53
-4.43
-6.34
-8.34
-10.53
-13.04
-15.97
-19.39
-23.22
-27.19
-30.73
-33.06
-33.43
-31.42
-27.09
-21.0
-14.04
-7.16
-1.06
3.92
7.71
10.42
12.23
13.22
13.52
13.24
12.6
11.89
11.38
11.32
11.77
12.68
13.87
15.07
15.99
16.42
16.24
15.43
14.15
12.58
10.89
9.23
7.57
5.84
3.92
1.77
-0.56
-2.93
-5.19
-7.27
-9.17
-11.0
-12.93
-15.11
-17.69
-20.75
-24.25
-27.89
-31.14
-33.27
-33.59
-31.65
-27.49
-21.6
-14.77
-7.89
-1.64
3.61
7.78
10.96
13.28
14.84
15.66
15.81
15.43
14.77
14.09
13.71
13.78
14.33
15.22
16.21
17.04
17.5
17.48
16.96
15.99
14.71
13.21
11.62
9.94
8.17
6.26
4.19
1.95
-0.38
-2.69
-4.87
-6.86
-8.71
-10.56
-12.62
-15.12
-18.2
-21.84
-25.81
-29.59
-32.52
-33.92
-33.26
-30.33
-25.36
-18.95
-11.91
-5.05
1.03
6.05
9.94
12.8
14.75
15.89
16.33
16.22
15.78
15.23
14.87
14.86
15.29
16.05
16.93
17.68
18.03
17.89
17.3
16.45
15.52
14.61
13.63
12.43
10.81
8.7
6.2
3.51
0.87
-1.62
-3.95
-6.18
-8.39
-10.56
-12.66
-14.7
-16.83
-19.28
-22.2
-25.45
-28.46
-30.37
-30.31
-27.79
-22.93
-16.46
-9.39
-2.7
3.01
7.56
11.03
13.59
15.28
16.08
15.96
15.07
13.73
12.42
11.62
11.62
12.4
13.71
15.12
16.22
16.78
16.79
16.42
15.88
15.29
14.61
13.68
12.31
10.37
7.91
5.12
2.26
-0.42
-2.78
-4.83
-6.71
-8.64
-10.87
-13.57
-16.81
-20.52
-24.44
-28.1
-30.85
-31.98
-30.94
-27.52
-22.01
-15.16
-7.9
-1.12
4.62
9.16
12.57
15.01
16.59
17.36
17.38
16.84
16.06
15.35
14.95
14.95
15.23
15.59
15.87
15.97
15.91
15.68
15.3
14.72
13.9
12.79
11.4
9.77
7.98
6.1
4.14
2.14
0.09
-1.95
-3.93
-5.85
-7.72
-9.68
-11.89
-14.57
-17.79
-21.48
-25.36
-28.93
-31.57
-32.66
-31.76
-28.68
-23.65
-17.23
-10.24
-3.53
2.21
6.64
9.81
11.97
13.45
14.46
15.05
15.15
14.75
14.0
13.19
12.68
12.72
13.36
14.41
15.57
16.54
17.07
17.03
16.42
15.3
13.8
12.08
10.28
8.54
6.91
5.39
3.96
2.63
1.36
0.12
-1.17
-2.6
-4.26
-6.23
-8.53
-11.17
-14.13
-17.33
-20.57
-23.49
-25.57
-26.26
-25.17
-22.17
-17.55
-11.87
-5.83
-0.1
4.84
8.75
11.56
13.33
14.17
14.22
13.67
12.77
11.82
11.11
10.83
10.98
11.4
11.85
12.06
11.94
11.52
10.96
10.39
9.88
9.34
8.64
7.62
6.21
4.48
2.56
0.65
-1.14
-2.77
-4.29
-5.76
-7.27
-8.87
-10.65
-12.72
-15.22
-18.22
-21.55
-24.8
-27.29
-28.29
-27.25
-24.03
-18.96
-12.77
-6.34
-0.45
4.4
8.05
10.59
12.19
13.07
13.39
13.28
12.92
12.47
12.14
12.06
12.27
12.69
13.17
13.56
13.74
13.68
13.36
12.78
11.98
10.96
9.76
8.4
6.87
5.16
3.25
1.14
-1.08
-3.3
-5.39
-7.27
-8.91
-10.44
-11.97
-13.64
-15.61
-17.98
-20.79
-23.96
-27.15
-29.82
-31.28
-30.88
-28.3
-23.65
-17.54
-10.86
-4.53
0.78
4.78
7.5
9.2
10.19
10.69
10.88
10.9
10.86
10.89
11.05
11.38
11.82
12.32
12.8
13.22
13.56
13.76
13.77
13.53
13.02
12.28
11.38
10.36
9.23
7.92
6.34
4.48
2.43
0.38
-1.46
-2.96
-4.14
-5.2
-6.43
-8.13
-10.47
-13.48
-17.02
-20.81
-24.44
-27.4
-29.07
-28.95
-26.76
-22.6
-17.02
-10.83
-4.87
0.19
4.1
6.91
8.87
10.23
11.13
11.58
11.59
11.21
10.63
10.1
9.86
10.06
10.65
11.45
12.18
12.61
12.59
12.13
11.33
10.35
9.29
8.16
6.89
5.38
3.6
1.61
-0.43
-2.34
-4.0
-5.42
-6.71
-8.04
-9.57
-11.35
-13.38
-15.67
-18.24
-21.11
-24.17
-27.07
-29.17
-29.79
-28.37
-24.79
-19.47
-13.24
-7.07
-1.72
2.48
5.59
7.86
9.59
10.9
11.82
12.33
12.49
12.44
12.36
12.42
12.71
13.17
13.7
14.18
14.48
14.53
14.27
13.69
12.83
11.75
10.5
9.1
7.54
5.79
3.86
1.81
-0.27
-2.26
-4.09
-5.78
-7.38
-9.01
-10.7
-12.51
-14.43
-16.5
-18.82
-21.46
-24.33
-27.17
-29.45
-30.55
-29.95
-27.39
-23.05
-17.43
-11.25
-5.21
0.16
4.56
7.92
10.29
11.79
12.56
12.77
12.62
12.34
12.13
12.12
12.34
12.7
13.1
13.43
13.69
13.92
14.14
14.32
14.32
14.02
13.31
12.2
10.77
9.16
7.5
5.84
4.24
2.7
1.18
-0.34
-1.89
-3.52
-5.23
-6.98
-8.74
-10.51
-12.36
-14.43
-16.92
-19.93
-23.37
-26.87
-29.8
-31.44
-31.17
-28.77
-24.43
-18.76
-12.54
-6.51
-1.22
3.13
6.51
9.02
10.79
11.87
12.32
12.2
11.68
11.01
10.51
10.44
10.91
11.82
12.94
13.94
14.58
14.76
14.52
13.93
13.12
12.1
10.87
9.41
7.73
5.9
3.96
1.99
0.01
-2.01
-4.08
-6.21
-8.32
-10.34
-12.22
-13.99
-15.86
-18.09
-20.93
-24.4
-28.18
-31.62
-33.88
-34.22
-32.25
-28.08
-22.25
-15.48
-8.56
-2.06
3.63
8.3
11.86
14.3
15.68
16.13
15.91
15.29
14.61
14.15
14.09
14.52
15.37
16.44
17.52
18.39
18.92
19.01
18.65
17.85
16.66
15.11
13.3
11.33
9.29
7.23
5.17
3.09
0.97
-1.19
-3.4
-5.67
-7.99
-10.34
-12.72
-15.13
-17.63
-20.33
-23.34
-26.69
-30.1
-33.05
-34.81
-34.68
-32.25
-27.57
-21.23
-14.07
-7.02
-0.78
4.32
8.24
11.09
13.04
14.17
14.52
14.23
13.5
12.66
12.1
12.07
12.68
13.78
15.09
16.31
17.22
17.76
17.97
17.96
17.74
17.3
16.56
15.5
14.12
12.48
10.67
8.75
6.76
4.7
2.54
0.31
-1.93
-4.13
-6.26
-8.39
-10.65
-13.26
-16.37
-20.03
-24.06
-28.03
-31.23
-32.91
-32.42
-29.5
-24.33
-17.61
-10.27
-3.27
2.71
7.38
10.77
13.07
14.5
15.19
15.29
15.01
14.63
14.47
14.74
15.47
16.46
17.44
18.17
18.53
18.57
18.38
18.03
17.5
16.7
15.56
14.05
12.22
10.14
7.82
5.29
2.52
-0.47
-3.57
-6.63
-9.51
-12.09
-14.4
-16.55
-18.76
-21.27
-24.21
-27.58
-31.09
-34.22
-36.3
-36.66
-34.89
-30.9
-25.07
-18.04
-10.65
-3.65
2.39
7.14
10.56
12.75
13.93
14.32
14.15
13.65
13.07
12.69
12.75
13.37
14.48
15.85
17.15
18.12
18.58
18.51
18.02
17.24
16.29
15.24
14.1
12.78
11.14
9.04
6.42
3.41
0.27
-2.71
-5.3
-7.5
-9.46
-11.44
-13.64
-16.25
-19.34
-22.91
-26.88
-30.92
-34.43
-36.62
-36.72
-34.27
-29.31
-22.42
-14.49
-6.53
0.67
6.63
11.17
14.37
16.4
17.5
17.87
17.72
17.24
16.63
16.1
15.82
15.91
16.35
17.03
17.76
18.37
18.74
18.83
18.61
18.04
17.05
15.57
13.6
11.2
8.54
5.79
3.1
0.55
-1.81
-3.97
-5.93
-7.72
-9.44
-11.25
-13.37
-15.99
-19.23
-23.03
-27.07
-30.79
-33.46
-34.35
-32.92
-29.07
-23.09
-15.74
-7.92
-0.52
5.8
10.73
14.21
16.34
17.29
17.24
16.41
15.08
13.62
12.41
11.75
11.77
12.35
13.22
14.02
14.51
14.61
14.38
13.96
13.41
12.68
11.62
10.06
7.91
5.24
2.3
-0.62
-3.29
-5.59
-7.63
-9.64
-11.95
-14.91
-18.69
-23.25
-28.24
-32.95
-36.53
-38.05
-36.85
-32.72
-26.03
-17.65
-8.76
-0.49
6.33
11.37
14.7
16.66
17.63
17.88
17.56
16.76
15.66
14.52
13.69
13.41
13.78
14.62
15.6
16.38
16.73
16.63
16.19
15.55
14.76
13.78
12.47
10.72
8.54
6.06
3.49
1.01
-1.26
-3.39
-5.52
-7.85
-10.55
-13.76
-17.54
-21.8
-26.29
-30.51
-33.78
-35.41
-34.8
-31.71
-26.36
-19.42
-11.8
-4.39
2.11
7.42
11.52
14.57
16.72
18.06
18.58
18.3
17.37
16.11
14.99
14.43
14.66
15.65
17.04
18.36
19.2
19.35
18.9
18.1
17.22
16.39
15.49
14.26
12.44
9.94
6.93
3.77
0.89
-1.39
-3.0
-4.13
-5.2
-6.63
-8.8
-11.85
-15.64
-19.74
-23.5
-26.11
-26.79
-25.0
-20.64
-14.17
-6.59
0.88
7.07
11.23
13.22
13.37
12.28
10.47
8.26
5.79
3.19
0.72
-1.22
-2.23
-2.13
-0.99
0.82
2.84
4.68
6.11
7.07
7.63
7.82
7.61
6.89
5.55
3.53
0.9
-2.12
-5.19
-8.02
-10.37
-12.25
-13.85
-15.49
-17.56
-20.34
-23.89
-27.96
-31.96
-35.04
-36.35
-35.2
-31.43
-25.38
-17.83
-9.75
-2.06
4.62
9.97
13.9
16.47
17.82
18.13
17.64
16.7
15.68
14.91
14.61
14.83
15.44
16.21
16.9
17.31
17.37
17.08
16.49
15.63
14.49
13.0
11.08
8.71
5.93
2.93
-0.07
-2.85
-5.29
-7.46
-9.57
-11.95
-14.93
-18.73
-23.27
-28.17
-32.68
-35.84
-36.77
-34.88
-30.18
-23.27
-15.22
-7.15
0.05
5.94
10.49
13.93
16.53
18.39
19.56
20.05
19.95
19.45
18.85
18.4
18.24
18.37
18.66
18.96
19.11
19.01
18.65
18.05
17.23
16.2
14.9
13.26
11.18
8.65
5.76
2.71
-0.28
-3.0
-5.38
-7.48
-9.53
-11.74
-14.35
-17.51
-21.26
-25.48
-29.81
-33.64
-36.16
-36.59
-34.4
-29.6
-22.73
-14.78
-6.82
0.29
6.06
10.44
13.61
15.8
17.17
17.76
17.64
16.95
15.99
15.16
14.83
15.17
16.14
17.45
18.72
19.63
19.98
19.75
19.08
18.15
17.05
15.82
14.36
12.55
10.33
7.74
4.99
2.33
0.0
-1.89
-3.47
-5.01
-6.88
-9.36
-12.58
-16.5
-20.84
-25.18
-28.93
-31.44
-32.1
-30.5
-26.6
-20.78
-13.71
-6.25
0.85
7.04
12.05
15.77
18.24
19.54
19.8
19.2
18.03
16.67
15.52
14.92
15.0
15.69
16.73
17.75
18.46
18.73
18.55
18.04
17.3
16.34
15.07
13.38
11.14
8.36
5.15
1.75
-1.56
-4.56
-7.15
-9.36
-11.32
-13.23
-15.36
-17.95
-21.2
-25.18
-29.65
-34.09
-37.67
-39.46
-38.7
-35.13
-29.03
-21.2
-12.69
-4.52
2.58
8.26
12.49
15.43
17.31
18.35
18.7
18.53
18.01
17.36
16.8
16.5
16.58
17.05
17.82
18.69
19.48
19.96
19.99
19.48
18.46
17.0
15.22
13.22
11.05
8.73
6.29
3.78
1.27
-1.17
-3.5
-5.7
-7.83
-9.94
-12.12
-14.5
-17.25
-20.54
-24.44
-28.81
-33.21
-36.9
-39.04
-38.84
-35.96
-30.51
-23.16
-14.91
-6.81
0.31
6.02
10.28
13.27
15.28
16.53
17.11
17.12
16.7
16.06
15.49
15.26
15.48
16.14
17.06
18.0
18.72
19.08
19.04
18.62
17.87
16.8
15.37
13.55
11.27
8.62
5.73
2.83
0.11
-2.32
-4.43
-6.28
-7.98
-9.64
-11.4
-13.45
-16.03
-19.3
-23.24
-27.54
-31.58
-34.52
-35.6
-34.3
-30.56
-24.75
-17.58
-9.85
-2.34
4.37
9.9
14.07
16.84
18.27
18.54
17.96
16.9
15.76
14.93
14.63
14.92
15.66
16.6
17.5
18.19
18.57
18.64
18.38
17.76
16.77
15.4
13.73
11.85
9.86
7.81
5.65
3.33
0.79
-1.89
-4.59
-7.16
-9.47
-11.55
-13.5
-15.52
-17.78
-20.44
-23.59
-27.21
-31.12
-34.9
-37.89
-39.31
-38.52
-35.2
-29.59
-22.36
-14.51
-6.97
-0.41
4.91
9.05
12.18
14.44
15.84
16.35
16.05
15.18
14.18
13.53
13.53
14.24
15.4
16.63
17.62
18.24
18.52
18.6
18.48
18.07
17.19
15.74
13.78
11.55
9.36
7.43
5.77
4.22
2.52
0.52
-1.81
-4.3
-6.73
-8.92
-10.85
-12.63
-14.48
-16.65
-19.36
-22.74
-26.71
-30.91
-34.61
-36.93
-37.02
-34.43
-29.28
-22.24
-14.34
-6.57
0.33
5.99
10.31
13.35
15.26
16.2
16.4
16.11
15.56
14.97
14.5
14.26
14.34
14.76
15.48
16.34
17.16
17.77
18.05
17.96
17.5
16.63
15.34
13.63
11.55
9.22
6.79
4.36
1.97
-0.37
-2.66
-4.89
-7.04
-9.09
-11.09
-13.17
-15.5
-18.27
-21.57
-25.37
-29.41
-33.18
-35.99
-37.06
-35.81
-32.01
-25.94
-18.38
-10.38
-2.98
3.13
7.7
10.9
13.12
14.71
15.84
16.51
16.65
16.27
15.53
14.72
14.16
14.03
14.36
15.0
15.73
16.29
16.52
16.33
15.71
14.72
13.44
11.95
10.32
8.56
6.67
4.64
2.47
0.21
-2.06
-4.27
-6.38
-8.39
-10.34
-12.3
-14.43
-16.9
-19.93
-23.59
-27.76
-32.02
-35.73
-38.08
-38.36
-36.12
-31.4
-24.72
-16.94
-9.07
-1.95
3.95
8.49
11.83
14.2
15.72
16.43
16.35
15.62
14.58
13.64
13.18
13.35
14.05
15.03
15.98
16.74
17.24
17.48
17.46
17.1
16.3
15.0
13.25
11.22
9.15
7.23
5.52
3.91
2.17
0.12
-2.34
-5.06
-7.79
-10.25
-12.27
-13.91
-15.42
-17.2
-19.63
-22.86
-26.74
-30.71
-33.92
-35.43
-34.55
-31.05
-25.29
-18.08
-10.42
-3.24
2.9
7.74
11.29
13.64
14.91
15.19
14.66
13.58
12.32
11.25
10.66
10.69
11.32
12.37
13.61
14.77
15.64
16.05
15.94
15.33
14.32
13.01
11.53
9.9
8.11
6.08
3.79
1.3
-1.27
-3.73
-5.96
-7.94
-9.83
-11.87
-14.32
-17.39
-21.1
-25.32
-29.6
-33.33
-35.76
-36.2
-34.22
-29.85
-23.56
-16.13
-8.52
-1.51
4.37
8.89
12.07
14.03
14.93
15.0
14.49
13.73
13.04
12.7
12.85
13.45
14.34
15.29
16.09
16.61
16.77
16.59
16.12
15.4
14.47
13.3
11.85
10.04
7.79
5.14
2.17
-0.9
-3.85
-6.44
-8.56
-10.2
-11.53
-12.89
-14.65
-17.16
-20.6
-24.84
-29.4
-33.5
-36.22
-36.8
-34.81
-30.36
-24.0
-16.59
-9.03
-2.04
3.94
8.76
12.48
15.18
16.97
17.9
18.07
17.63
16.79
15.86
15.14
14.82
15.01
15.62
16.49
17.39
18.09
18.4
18.2
17.45
16.18
14.55
12.73
10.85
8.97
7.05
5.0
2.76
0.4
-1.96
-4.12
-5.99
-7.63
-9.18
-10.9
-13.03
-15.73
-19.03
-22.87
-26.96
-30.83
-33.81
-35.15
-34.23
-30.81
-25.14
-17.94
-10.2
-2.89
3.32
8.13
11.59
13.92
15.32
15.95
15.9
15.3
14.38
13.45
12.82
12.75
13.3
14.34
15.59
16.71
17.43
17.58
17.22
16.46
15.46
14.28
12.88
11.13
8.9
6.2
3.16
0.07
-2.78
-5.18
-7.08
-8.62
-10.1
-11.84
-14.16
-17.28
-21.21
-25.69
-30.19
-33.92
-36.0
-35.8
-33.06
-28.02
-21.35
-13.92
-6.54
0.14
5.73
10.09
13.19
15.13
16.06
16.17
15.7
14.9
14.06
13.44
13.31
13.8
14.85
16.24
17.59
18.59
19.03
18.88
18.21
17.14
15.78
14.19
12.44
10.59
8.71
6.79
4.78
2.61
0.25
-2.24
-4.72
-7.03
-9.16
-11.21
-13.45
-16.19
-19.65
-23.81
-28.32
-32.55
-35.64
-36.76
-35.33
-31.23
-24.85
-17.07
-8.95
-1.52
4.55
9.01
11.99
13.83
14.9
15.47
15.7
15.69
15.52
15.28
15.09
15.06
15.24
15.65
16.25
16.93
17.5
17.79
17.67
17.1
16.16
14.99
13.63
12.03
10.07
7.66
4.89
1.98
-0.75
-3.03
-4.79
-6.15
-7.39
-8.77
-10.54
-12.82
-15.69
-19.09
-22.84
-26.48
-29.33
-30.64
-29.77
-26.49
-21.09
-14.31
-7.09
-0.31
5.44
9.9
13.09
15.15
16.26
16.55
16.19
15.4
14.44
13.61
13.14
13.15
13.58
14.28
14.98
15.47
15.6
15.34
14.78
13.99
13.05
11.91
10.43
8.46
5.95
2.96
-0.26
-3.41
-6.23
-8.61
-10.6
-12.39
-14.24
-16.4
-19.07
-22.32
-26.03
-29.81
-32.99
-34.74
-34.31
-31.36
-26.08
-19.18
-11.66
-4.45
1.83
6.89
10.77
13.58
15.44
16.45
16.77
16.6
16.21
15.8
15.49
15.32
15.29
15.37
15.58
15.9
16.23
16.44
16.37
15.93
15.1
13.95
12.53
10.85
8.85
6.51
3.84
0.95
-1.96
-4.68
-7.02
-8.95
-10.57
-12.07
-13.75
-15.88
-18.69
-22.23
-26.33
-30.57
-34.27
-36.67
-37.04
-34.96
-30.39
-23.79
-15.96
-7.87
-0.42
5.78
10.43
13.59
15.5
16.45
16.71
16.47
15.9
15.19
14.61
14.42
14.81
15.73
16.93
18.01
18.59
18.52
17.89
17.0
16.14
15.44
14.81
13.96
12.67
10.82
8.5
5.9
3.25
0.73
-1.58
-3.64
-5.47
-7.1
-8.62
-10.2
-12.05
-14.38
-17.35
-20.92
-24.82
-28.46
-31.11
-31.98
-30.56
-26.75
-21.01
-14.17
-7.18
-0.79
4.58
8.87
12.13
14.47
15.86
16.3
15.86
14.77
13.43
12.24
11.55
11.46
11.85
12.5
13.13
13.55
13.69
13.58
13.28
12.79
12.08
11.04
9.56
7.61
5.23
2.56
-0.18
-2.81
-5.15
-7.11
-8.73
-10.18
-11.74
-13.7
-16.33
-19.7
-23.63
-27.74
-31.42
-33.96
-34.71
-33.2
-29.31
-23.34
-15.97
-8.1
-0.64
5.72
10.61
14.03
16.18
17.34
17.81
17.78
17.45
16.97
16.5
16.17
16.08
16.24
16.59
16.99
17.29
17.34
17.1
16.59
15.87
14.98
13.87
12.44
10.55
8.13
5.28
2.23
-0.7
-3.23
-5.27
-6.88
-8.32
-9.81
-11.53
-13.59
-16.06
-19.02
-22.53
-26.45
-30.35
-33.51
-35.04
-34.23
-30.86
-25.28
-18.34
-11.04
-4.26
1.51
6.12
9.63
12.15
13.77
14.56
14.61
14.1
13.35
12.66
12.3
12.37
12.8
13.37
13.85
14.06
13.97
13.68
13.3
12.93
12.54
12.08
11.41
10.47
9.28
7.85
6.2
4.32
2.21
-0.11
-2.53
-4.86
-6.96
-8.76
-10.38
-12.09
-14.25
-17.11
-20.75
-24.9
-28.97
-32.14
-33.59
-32.74
-29.46
-24.11
-17.47
-10.45
-3.85
1.84
6.38
9.76
12.06
13.36
13.73
13.39
12.59
11.71
11.09
10.97
11.43
12.38
13.58
14.71
15.52
15.87
15.77
15.36
14.79
14.1
13.22
11.99
10.25
7.99
5.34
2.56
-0.11
-2.5
-4.6
-6.47
-8.24
-10.02
-11.92
-14.06
-16.58
-19.58
-23.04
-26.66
-29.85
-31.8
-31.73
-29.19
-24.24
-17.52
-10.02
-2.77
3.45
8.26
11.66
13.83
14.98
15.28
14.88
13.98
12.85
11.86
11.28
11.28
11.81
12.68
13.63
14.44
14.94
15.06
14.76
14.07
13.04
11.73
10.2
8.48
6.58
4.49
2.22
-0.13
-2.46
-4.62
-6.54
-8.25
-9.88
-11.62
-13.66
-16.18
-19.31
-23.06
-27.21
-31.35
-34.78
-36.73
-36.53
-33.86
-28.88
-22.18
-14.66
-7.23
-0.6
4.83
8.94
11.82
13.65
14.65
15.04
15.03
14.8
14.54
14.41
14.56
15.08
15.99
17.18
18.43
19.39
19.76
19.34
18.15
16.4
14.45
12.61
11.07
9.81
8.65
7.34
5.68
3.6
1.19
-1.34
-3.8
-6.04
-8.09
-10.07
-12.11
-14.37
-16.93
-19.9
-23.27
-26.93
-30.51
-33.36
-34.69
-33.8
-30.35
-24.56
-17.2
-9.29
-1.86
4.39
9.17
12.51
14.65
15.85
16.31
16.22
15.75
15.06
14.36
13.84
13.65
13.88
14.51
15.4
16.39
17.25
17.78
17.85
17.45
16.61
15.43
14.03
12.48
10.8
8.99
7.02
4.93
2.76
0.59
-1.51
-3.54
-5.52
-7.51
-9.57
-11.75
-14.15
-16.85
-19.97
-23.46
-27.01
-30.03
-31.76
-31.48
-28.84
-23.96
-17.45
-10.2
-3.09
3.18
8.26
12.0
14.46
15.73
15.99
15.49
14.5
13.36
12.36
11.73
11.59
11.98
12.78
13.81
14.79
15.46
15.61
15.24
14.46
13.49
12.46
11.39
10.16
8.58
6.53
4.02
1.17
-1.75
-4.49
-6.85
-8.75
-10.26
-11.59
-13.07
-15.03
-17.74
-21.26
-25.35
-29.48
-32.93
-34.93
-34.89
-32.5
-27.9
-21.59
-14.36
-7.1
-0.55
4.79
8.75
11.41
12.99
13.75
13.92
13.67
13.16
12.56
12.03
11.75
11.85
12.37
13.25
14.28
15.25
15.91
16.15
15.92
15.29
14.35
13.18
11.83
10.29
8.56
6.64
4.57
2.38
0.1
-2.22
-4.56
-6.87
-9.11
-11.27
-13.41
-15.67
-18.24
-21.29
-24.82
-28.57
-31.95
-34.16
-34.43
-32.23
-27.55
-20.92
-13.23
-5.51
1.38
6.91
10.89
13.42
14.75
15.16
14.9
14.19
13.24
12.31
11.65
11.48
11.9
12.87
14.14
15.4
16.33
16.72
16.58
16.02
15.22
14.27
13.16
11.75
9.91
7.63
5.04
2.42
0.06
-1.86
-3.32
-4.51
-5.73
-7.25
-9.24
-11.75
-14.71
-18.0
-21.49
-24.93
-27.93
-29.92
-30.3
-28.61
-24.79
-19.21
-12.65
-6.02
-0.09
4.71
8.28
10.76
12.32
13.09
13.18
12.67
11.76
10.74
9.91
9.52
9.65
10.22
10.98
11.65
12.03
12.02
11.7
11.18
10.59
9.92
9.06
7.84
6.14
3.96
1.45
-1.1
-3.44
-5.4
-7.01
-8.5
-10.17
-12.31
-15.08
-18.49
-22.36
-26.32
-29.9
-32.48
-33.43
-32.23
-28.72
-23.17
-16.31
-9.07
-2.37
3.24
7.59
10.83
13.19
14.8
15.65
15.7
15.01
13.84
12.6
11.7
11.43
11.85
12.79
13.92
14.9
15.47
15.5
15.05
14.26
13.29
12.18
10.89
9.3
7.31
4.94
2.32
-0.31
-2.71
-4.75
-6.5
-8.15
-9.98
-12.22
-15.01
-18.36
-22.15
-26.12
-29.87
-32.87
-34.49
-34.19
-31.65
-26.98
-20.67
-13.52
-6.36
0.13
5.57
9.84
12.99
15.13
16.33
16.72
16.45
15.73
14.86
14.13
13.79
13.97
14.64
15.64
16.69
17.48
17.82
17.63
16.99
16.08
15.01
13.85
12.53
10.94
8.99
6.71
4.22
1.73
-0.58
-2.63
-4.46
-6.22
-8.1
-10.3
-12.95
-16.09
-19.63
-23.28
-26.55
-28.78
-29.33
-27.75
-23.96
-18.34
-11.6
-4.59
1.91
7.42
11.74
14.89
16.96
18.06
18.27
17.71
16.6
15.24
14.01
13.22
13.07
13.55
14.4
15.26
15.75
15.64
14.91
13.7
12.26
10.78
9.31
7.79
6.08
4.09
1.79
-0.67
-3.1
-5.3
-7.2
-8.88
-10.52
-12.38
-14.69
-17.62
-21.21
-25.25
-29.28
-32.63
-34.51
-34.26
-31.62
-26.79
-20.4
-13.32
-6.38
-0.2
4.89
8.81
11.68
13.67
14.97
15.75
16.16
16.26
16.15
15.95
15.82
15.93
16.37
17.09
17.92
18.63
19.02
19.0
18.58
17.82
16.76
15.4
13.73
11.74
9.47
7.03
4.54
2.12
-0.19
-2.33
-4.31
-6.15
-7.91
-9.66
-11.6
-13.92
-16.86
-20.48
-24.59
-28.7
-32.05
-33.86
-33.5
-30.74
-25.78
-19.25
-11.97
-4.8
1.6
6.77
10.59
13.1
14.54
15.17
15.28
15.08
14.74
14.37
14.11
14.06
14.3
14.87
15.71
16.66
17.46
17.9
17.82
17.22
16.18
14.86
13.38
11.78
10.02
8.02
5.76
3.29
0.74
-1.69
-3.83
-5.63
-7.14
-8.53
-10.08
-12.05
-14.66
-17.98
-21.79
-25.6
-28.72
-30.4
-30.04
-27.35
-22.48
-16.03
-8.85
-1.84
4.29
9.14
12.62
14.85
16.03
16.37
15.99
15.08
13.84
12.59
11.65
11.29
11.61
12.51
13.73
14.91
15.71
15.9
15.48
14.57
13.38
12.06
10.64
9.01
7.04
4.7
2.13
-0.46
-2.82
-4.82
-6.52
-8.1
-9.76
-11.7
-13.99
-16.71
-19.88
-23.43
-27.17
-30.69
-33.35
-34.44
-33.42
-30.07
-24.64
-17.78
-10.38
-3.31
2.82
7.68
11.26
13.68
15.13
15.78
15.8
15.4
14.83
14.35
14.12
14.18
14.47
14.86
15.27
15.66
16.0
16.24
16.25
15.85
14.96
13.57
11.87
10.06
8.32
6.67
5.0
3.17
1.06
-1.29
-3.73
-6.06
-8.15
-9.96
-11.59
-13.24
-15.12
-17.47
-20.45
-24.07
-28.07
-31.87
-34.71
-35.75
-34.38
-30.44
-24.32
-16.87
-9.13
-2.03
3.84
8.3
11.47
13.63
15.02
15.76
15.95
15.67
15.09
14.44
13.95
13.8
14.02
14.54
15.23
15.94
16.56
16.96
17.05
16.73
15.93
14.68
13.09
11.29
9.44
7.59
5.72
3.73
1.54
-0.86
-3.35
-5.76
-7.93
-9.81
-11.5
-13.28
-15.45
-18.28
-21.8
-25.78
-29.67
-32.74
-34.24
-33.62
-30.7
-25.69
-19.19
-11.97
-4.8
1.65
7.0
11.06
13.79
15.3
15.76
15.41
14.58
13.65
12.95
12.72
13.02
13.73
14.6
15.35
15.78
15.79
15.44
14.82
14.03
13.11
12.02
10.7
9.05
6.97
4.46
1.62
-1.35
-4.18
-6.64
-8.65
-10.27
-11.73
-13.34
-15.39
-18.08
-21.46
-25.43
-29.62
-33.43
-36.11
-36.92
-35.34
-31.3
-25.2
-17.82
-10.09
-2.87
3.28
8.1
11.6
13.98
15.45
16.22
16.43
16.2
15.69
15.12
14.76
14.83
15.4
16.34
17.31
18.0
18.19
17.91
17.33
16.64
15.9
15.04
13.86
12.21
10.07
7.59
4.96
2.36
-0.15
-2.55
-4.87
-7.08
-9.14
-11.03
-12.87
-14.92
-17.52
-20.93
-25.15
-29.75
-33.93
-36.69
-37.13
-34.79
-29.8
-22.83
-14.92
-7.1
-0.16
5.47
9.74
12.79
14.81
15.98
16.47
16.44
16.07
15.6
15.25
15.19
15.46
16.03
16.78
17.58
18.29
18.82
19.09
19.01
18.54
17.62
16.24
14.43
12.3
9.97
7.59
5.25
2.97
0.72
-1.53
-3.8
-6.05
-8.26
-10.4
-12.53
-14.77
-17.36
-20.48
-24.16
-28.14
-31.87
-34.55
-35.45
-34.03
-30.19
-24.27
-16.96
-9.11
-1.55
5.08
10.39
14.21
16.56
17.58
17.49
16.58
15.19
13.74
12.64
12.24
12.67
13.85
15.41
16.87
17.81
18.0
17.49
16.51
15.37
14.23
13.11
11.86
10.25
8.16
5.6
2.76
