11.61
10.99
10.02
8.73
7.29
5.9
4.71
3.73
2.79
1.71
0.31
-1.44
-3.43
-5.53
-7.64
-9.79
-11.99
-14.17
-16.07
-17.3
-17.5
-16.53
-14.53
-11.9
-9.1
-6.46
-4.14
-2.13
-0.41
1.01
2.1
2.81
3.23
3.51
3.84
4.37
5.13
6.05
7.03
7.98
8.78
9.37
9.64
9.56
9.15
8.58
8.01
7.63
7.44
7.33
7.07
6.44
5.36
3.87
2.21
0.61
-0.77
-1.91
-2.97
-4.2
-5.81
-7.85
-10.09
-12.13
-13.43
-13.62
-12.54
-10.4
-7.62
-4.69
-2.03
0.19
1.95
3.33
4.42
5.25
5.82
6.14
6.32
6.47
6.76
7.24
7.9
8.57
9.06
9.22
8.98
8.41
7.61
6.73
5.84
5.01
4.21
3.36
2.39
1.24
-0.13
-1.64
-3.15
-4.49
-5.47
-6.0
-6.14
-6.05
-6.01
-6.26
-6.88
-7.72
-8.48
-8.75
-8.25
-6.98
-5.24
-3.49
-2.22
-1.66
-1.72
-2.03
-2.06
-1.39
0.15
2.48
5.26
8.04
10.38
11.95
12.57
12.23
11.06
9.28
7.1
4.65
2.04
-0.62
-3.15
-5.28
-6.72
-7.22
-6.72
-5.37
-3.45
-1.35
0.61
2.22
3.33
3.84
3.59
2.42
0.28
-2.72
-6.24
-9.72
-12.56
-14.24
-14.43
-13.06
-10.26
-6.37
-1.86
2.71
6.82
10.05
12.2
13.35
13.78
13.84
13.86
14.04
14.45
15.15
16.21
17.74
19.81
22.35
25.11
27.64
29.42
30.01
29.15
26.84
23.26
18.76
13.72
8.46
3.17
-2.05
-7.17
-12.14
-16.87
-21.19
-25.01
-28.34
-31.33
-34.21
-37.19
-40.41
-43.78
-47.07
-49.96
-52.11
-53.25
-53.27
-52.23
-50.42
-48.25
-46.15
-44.48
-43.45
-43.14
-43.56
-44.67
-46.42
-48.72
-51.43
-54.42
-57.59
-61.0
-64.81
-69.27
-74.63
-81.03
-88.46
-96.82
-106.01
-116.01
-126.86
-138.57
-151.08
-164.13
-177.3
-190.02
-201.71
-211.87
-220.19
-226.75
-232.09
-237.27
-243.52
-251.71
-261.63
-271.73
-279.28
-281.3
-275.63
-261.94
-241.83
-218.23
-194.27
-172.17
-152.63
-134.98
-117.93
-100.4
-82.13
-63.71
-46.11
-30.05
-15.51
-1.52
13.47
31.21
53.26
80.87
114.83
155.02
199.79
245.53
287.03
318.73
336.64
339.95
331.5
316.88
302.29
292.39
288.78
289.97
292.67
293.52
290.63
283.9
274.45
263.41
251.17
237.32
221.43
203.87
186.41
171.49
161.13
155.78
153.96
153.17
151.2
147.29
142.09
136.7
131.13
123.49
110.29
88.0
54.86
12.19
-35.52
-81.73
-119.45
-143.03
-149.53
-139.61
-117.53
-90.35
-66.13
-51.67
-50.38
-61.34
-80.09
-100.85
-119.06
-132.92
-143.14
-151.08
-156.52
-156.94
-148.78
-129.92
-101.71
-69.08
-38.58
-15.47
-1.85
3.28
2.23
-3.06
-11.48
-21.31
-28.71
-27.91
-13.79
14.3
50.23
82.22
97.62
88.65
56.25
9.85
-36.63
-70.16
-82.91
-74.0
-48.32
-13.8
21.46
51.25
72.2
83.71
87.13
84.84
79.29
72.42
65.59
59.86
56.22
55.42
57.65
62.25
67.78
72.47
75.01
75.14
73.63
71.86
71.07
71.74
73.3
74.49
73.94
70.89
65.55
59.04
52.88
48.35
45.9
45.03
44.49
42.86
39.08
32.96
25.14
16.84
9.39
3.63
-0.28
-2.93
-5.38
-8.64
-13.29
-19.25
-25.84
-32.15
-37.54
-41.89
-45.71
-49.93
-55.27
-62.23
-70.98
-81.08
-91.3
-99.54
-103.17
-99.71
-87.88
-67.94
-41.91
-12.78
16.72
45.09
72.18
98.36
123.73
147.31
167.82
183.61
193.29
196.31
193.24
185.52
174.59
161.67
146.92
131.31
114.66
95.93
73.85
48.47
22.05
-1.95
-18.66
-24.08
-12.29
19.17
67.78
126.06
184.07
232.83
265.7
282.37
286.44
289.3
299.91
320.5
346.04
368.1
380.37
379.87
371.25
361.27
363.03
383.8
421.87
468.41
513.0
549.54
575.27
594.48
563.44
459.63
289.77
88.57
-103.68
-261.9
-364.87
-428.35
-467.33
-493.39
-507.1
-507.88
-499.61
-486.54
-473.06
-461.53
-454.54
-450.12
-446.61
-437.44
-418.59
-390.7
-358.49
-328.28
-304.11
-288.16
-277.02
-266.49
-250.26
-225.79
-195.78
-166.49
-144.4
-132.34
-129.54
-130.43
-129.47
-121.93
-106.95
-87.39
-67.72
-51.87
-41.55
-36.93
-36.54
-39.27
-44.18
-50.87
-59.07
-68.48
-78.89
-90.07
-101.56
-112.26
-120.86
-126.45
-129.11
-129.75
-129.17
-126.78
-120.12
-105.92
-82.54
-52.05
-20.35
5.28
19.89
23.51
20.82
17.86
18.14
20.51
20.32
12.97
-2.79
-23.43
-42.21
-52.26
-49.68
-34.84
-11.59
14.77
39.55
59.93
75.14
85.65
92.15
95.02
94.32
90.39
84.24
77.57
72.23
69.42
69.06
69.87
70.04
68.24
64.3
59.4
55.55
54.76
58.17
65.59
75.54
85.76
94.07
99.07
100.66
99.9
98.57
98.44
100.59
105.16
111.53
118.8
126.35
134.15
142.67
152.39
163.16
173.71
181.66
184.13
178.66
164.19
141.41
112.55
80.47
47.7
15.72
-15.08
-44.94
-73.95
-101.52
-126.09
-145.53
-157.85
-161.97
-158.38
-149.13
-137.46
-126.9
-120.33
-119.32
-123.95
-133.17
-145.36
-158.89
-172.53
-185.35
-196.6
-205.38
-210.57
-210.91
-205.35
-193.46
-175.78
-153.87
-130.0
-106.55
-85.37
-67.41
-52.76
-40.97
-31.46
-23.9
-18.15
-14.17
-11.8
-10.68
-10.24
-9.82
-8.76
-6.52
-2.78
2.48
8.94
16.05
23.15
29.75
35.66
40.97
45.86
50.31
54.03
56.44
56.9
54.98
50.73
44.67
37.76
31.04
25.43
21.42
19.01
17.82
17.25
16.78
16.12
15.16
13.93
12.46
10.76
8.83
6.75
4.61
2.41
0.04
-2.75
-6.1
-9.83
-13.29
-15.45
-15.25
-11.97
-5.49
3.7
14.66
26.37
37.93
48.63
57.87
65.07
69.6
70.85
68.42
62.28
52.84
40.94
27.6
13.82
0.51
-11.65
-22.13
-30.56
-36.68
-40.45
-42.04
-41.81
-40.2
-37.71
-34.79
-31.91
-29.52
-28.08
-27.99
-29.44
-32.28
-35.96
-39.58
-42.07
-42.48
-40.22
-35.23
-28.01
-19.36
-10.23
-1.43
6.53
13.44
19.3
24.21
28.26
31.48
33.89
35.54
36.56
37.19
37.7
38.41
39.5
40.99
42.71
44.36
45.68
46.54
47.01
47.25
47.37
47.27
46.69
45.23
42.68
39.1
34.96
30.89
27.51
25.13
23.7
22.8
21.89
20.47
18.32
15.6
12.88
10.97
10.7
12.6
16.72
22.53
29.08
35.39
40.66
44.46
46.7
47.48
46.89
44.94
41.62
37.04
31.51
25.51
19.62
14.29
9.74
5.84
2.23
-1.54
-5.76
-10.4
-15.08
-19.23
-22.28
-23.92
-24.21
-23.54
-22.43
-21.32
-20.45
-19.83
-19.34
-18.82
-18.22
-17.59
-17.18
-17.42
-18.84
-22.0
-27.22
-34.37
-42.78
-51.24
-58.29
-62.56
-63.23
-60.26
-54.36
-46.75
-38.76
-31.46
-25.45
-20.95
-17.91
-16.33
-16.18
-17.43
-19.82
-22.75
-25.38
-26.81
-26.28
-23.33
-17.74
-9.55
0.92
12.97
25.45
36.94
46.05
51.85
54.17
53.6
51.12
47.74
44.14
40.61
37.21
33.96
30.91
28.06
25.24
22.0
17.75
12.04
4.8
-3.48
-11.72
-18.54
-22.66
-23.23
-20.15
-14.04
-6.07
2.39
10.16
16.43
20.87
23.46
24.33
23.61
21.35
17.64
12.72
7.09
1.5
-3.16
-6.18
-7.19
-6.33
-4.13
-1.32
1.49
3.99
6.14
8.08
9.87
11.36
12.23
12.12
10.89
8.68
5.91
3.11
0.65
-1.42
-3.32
-5.44
-8.18
-11.78
-16.33
-21.79
-28.03
-34.75
-41.45
-47.41
-51.75
-53.6
-52.42
-48.1
-41.01
-31.84
-21.44
-10.63
-0.11
9.47
17.48
23.37
26.83
27.85
26.81
24.35
21.17
17.83
14.67
11.79
9.22
6.98
5.22
4.11
3.76
4.12
4.96
5.87
6.39
6.13
4.88
2.63
-0.43
-3.95
-7.55
-10.92
-13.88
-16.42
-18.72
-21.11
-23.98
-27.67
-32.22
-37.34
-42.28
-46.06
-47.69
-46.49
-42.28
-35.39
-26.57
-16.69
-6.69
2.61
10.49
16.39
20.01
21.37
20.84
19.02
16.53
13.82
11.15
8.48
5.73
2.85
-0.08
-2.8
-5.0
-6.36
-6.67
-5.9
-4.15
-1.68
1.17
4.13
7.13
10.47
14.83
21.05
29.67
40.31
51.22
59.3
60.78
52.36
32.51
2.32
-34.59
-72.88
-106.84
-131.63
-144.06
-142.76
-128.03
-101.63
-66.47
-26.37
14.53
52.41
84.41
108.79
124.64
131.25
127.77
113.46
88.4
54.33
14.98
-24.4
-58.34
-82.43
-94.32
-93.88
-82.82
-63.81
-39.9
-13.88
11.77
35.11
54.65
69.32
78.38
81.34
77.89
67.97
51.98
30.99
6.86
-18.0
-40.93
-59.55
-72.24
-78.37
-78.37
-73.37
-64.91
-54.55
-43.66
-33.25
-24.01
-16.36
-10.48
-6.37
-3.9
-2.76
-2.51
-2.63
-2.62
-2.14
-1.15
0.18
1.53
2.63
3.44
4.1
4.89
6.03
7.6
9.54
11.72
14.05
16.57
19.34
22.42
25.74
29.06
32.03
34.2
35.2
34.73
32.66
29.08
24.22
18.49
12.32
6.17
0.34
-4.99
-9.78
-14.13
-18.14
-21.88
-25.29
-28.12
-30.01
-30.54
-29.39
-26.49
-22.03
-16.46
-10.36
-4.35
1.03
5.33
8.11
8.96
7.55
3.81
-1.91
-8.78
-15.59
-21.07
-24.18
-24.42
-21.86
-17.09
-10.98
-4.42
1.84
7.25
11.45
14.23
15.5
15.23
13.43
10.24
5.87
0.68
-4.85
-10.22
-15.02
-19.04
-22.33
-25.14
-27.87
-30.97
-34.76
-39.33
-44.47
-49.58
-53.66
-55.62
-54.46
-49.73
-41.66
-31.12
-19.42
-7.9
2.36
10.68
16.74
20.44
21.89
21.33
19.25
16.36
13.54
11.57
10.99
11.94
14.15
17.12
20.3
23.32
25.96
28.19
29.96
31.18
31.66
31.22
29.71
27.15
23.66
19.47
14.78
9.63
3.9
-2.67
-10.39
-19.29
-29.06
-38.84
-47.44
-53.46
-55.78
-53.8
-47.67
-38.22
-26.71
-14.56
-3.01
7.01
14.92
20.46
23.58
24.52
23.72
21.81
19.49
17.4
15.96
15.3
15.32
15.82
16.57
17.35
17.96
18.22
17.96
17.04
15.46
13.24
10.47
7.25
3.69
-0.03
-3.79
-7.44
-11.07
-14.88
-19.27
-24.54
-30.69
-37.18
-42.93
-46.61
-46.92
-43.11
-35.17
-23.94
-10.79
2.66
14.9
24.88
32.0
36.18
37.66
36.92
34.53
31.07
27.09
23.04
19.3
16.16
13.81
12.34
11.74
11.88
12.56
13.51
14.45
15.08
15.17
14.53
13.0
10.51
7.08
2.76
-2.29
-7.94
-14.12
-20.86
-28.11
-35.63
-42.73
-48.27
-50.91
-49.5
-43.61
-33.73
-21.21
-7.83
4.71
15.19
23.01
28.06
30.55
30.85
29.4
26.77
23.57
20.5
18.11
16.77
16.56
17.26
18.49
19.69
20.39
20.2
18.89
16.51
13.26
9.5
5.59
1.84
-1.6
-4.77
-7.87
-11.21
-15.15
-19.99
-25.8
-32.27
-38.61
-43.61
-45.85
-44.19
-38.16
-28.17
-15.52
-1.98
10.69
21.17
28.83
33.62
35.85
35.9
34.2
31.21
27.53
23.89
21.02
19.43
19.2
19.96
21.01
21.61
21.25
19.76
17.33
14.32
11.11
7.95
4.95
2.06
-0.88
-4.11
-7.91
-12.55
-18.12
-24.41
-30.78
-36.17
-39.38
-39.36
-35.62
-28.38
-18.54
-7.45
3.51
13.2
20.83
25.97
28.49
28.47
26.23
22.41
17.83
13.49
10.23
8.54
8.46
9.53
11.03
12.25
12.65
12.05
10.54
8.39
5.88
3.19
0.43
-2.47
-5.64
-9.28
-13.6
-18.71
-24.49
-30.45
-35.68
-39.05
-39.51
-36.43
-29.81
-20.41
-9.42
1.77
12.0
20.46
26.75
30.7
32.33
31.73
29.21
25.31
20.83
16.67
13.64
12.2
12.35
13.68
15.45
16.83
17.07
15.67
12.48
7.67
1.72
-4.71
-10.95
-16.41
-20.75
-23.82
-25.69
-26.45
-26.13
-24.6
-21.53
-16.56
-9.38
-0.01
11.08
22.96
34.41
44.16
51.17
54.82
54.92
51.59
45.15
36.01
24.82
12.42
-0.06
-11.34
-20.22
-25.8
-27.64
-25.91
-21.23
-14.52
-6.74
1.24
8.76
15.36
20.78
24.88
27.48
28.33
27.15
23.67
17.72
9.3
-1.35
-13.59
-26.5
-38.93
-49.69
-57.66
-62.0
-62.28
-58.62
-51.62
-41.93
-30.46
-18.28
-6.57
3.61
11.6
17.19
20.43
21.62
21.6
20.98
19.82
17.7
14.01
8.44
1.11
-7.8
-17.93
-28.13
-37.42
-45.2
-51.23
-55.03
-55.37
-50.21
-37.8
-17.24
11.8
47.71
87.22
126.37
161.65
190.91
213.39
228.72
228.78
207.93
166.02
109.91
49.45
-8.06
-59.59
-102.72
-137.71
-162.24
-171.36
-161.74
-133.93
-92.88
-46.05
-2.8
29.23
45.94
47.76
39.05
24.75
8.46
-8.3
-25.47
-43.1
-60.1
-74.59
-85.01
-89.54
-88.56
-85.48
-84.11
-85.8
-88.38
-86.86
-75.75
-51.63
-15.18
27.96
69.08
99.79
115.01
114.73
103.54
88.25
74.84
66.35
62.33
60.43
58.59
56.27
54.36
54.14
56.22
59.94
63.64
65.45
64.15
59.82
53.66
47.37
42.59
40.25
40.44
42.35
44.59
45.8
45.12
42.16
36.54
27.68
15.12
-0.49
-16.56
-28.83
-32.98
-26.99
-12.78
4.09
16.86
20.76
15.17
3.51
-9.07
-18.48
-23.5
-25.45
-26.64
-28.41
-30.55
-31.77
-30.99
-28.28
-24.71
-21.92
-20.95
-21.67
-22.83
-22.61
-19.77
-14.3
-7.66
-2.22
-0.24
-2.82
-9.37
-17.87
-25.76
-31.02
-32.97
-32.31
-30.7
-29.84
-30.82
-33.76
-38.02
-42.66
-46.96
-50.62
-53.74
-56.48
-58.77
-60.03
-59.3
-55.52
-47.99
-36.7
-22.46
-6.82
8.21
20.62
28.8
31.91
30.11
24.59
17.27
10.14
4.73
1.52
-0.04
-1.18
-3.19
-6.91
-12.47
-19.44
-27.04
-34.41
-40.66
-44.95
-46.58
-45.2
-41.06
-35.1
-28.68
-23.24
-19.73
-18.36
-18.58
-19.37
-19.68
-18.78
-16.46
-13.08
-9.43
-6.41
-4.74
-4.61
-5.68
-7.17
-8.2
-8.19
-6.99
-4.86
-2.21
0.65
3.61
6.71
9.96
13.22
16.2
18.68
20.6
22.19
23.9
26.28
29.83
34.87
41.33
48.56
55.34
60.05
61.21
58.03
50.79
40.82
29.88
19.53
10.54
2.89
-3.82
-9.83
-14.94
-18.59
-20.39
-20.5
-19.77
-19.33
-20.05
-22.05
-24.62
-26.52
-26.57
-24.15
-19.35
-12.85
-5.58
1.56
7.78
12.42
14.94
15.0
12.68
8.51
3.46
-1.35
-4.96
-6.79
-6.76
-5.17
-2.53
0.54
3.37
5.38
6.12
5.47
3.73
1.46
-0.65
-2.12
-2.76
-2.73
-2.29
-1.66
-0.85
0.32
2.02
4.33
7.05
9.77
11.97
13.21
13.15
11.58
8.44
3.79
-2.13
-8.95
-16.19
-23.55
-30.97
-38.69
-47.09
-56.27
-65.86
-74.88
-82.0
-86.03
-86.26
-82.68
-75.82
-66.47
-55.35
-43.06
-30.11
-17.08
-4.67
6.4
15.57
22.63
27.7
31.21
33.69
35.55
37.04
38.24
39.1
39.65
39.92
40.05
40.1
40.05
39.76
39.02
37.66
35.62
32.96
29.86
26.52
23.12
19.77
16.46
13.05
9.33
5.17
0.58
-4.21
-8.76
-12.61
-15.48
-17.44
-18.96
-20.71
-23.41
-27.54
-33.21
-40.01
-47.13
-53.38
-57.47
-58.34
-55.44
-48.88
-39.43
-28.23
-16.39
-4.65
6.68
17.69
28.45
38.85
48.4
56.41
62.25
65.67
66.91
66.58
65.42
63.99
62.44
60.57
58.0
54.37
49.6
43.89
37.71
31.65
26.28
22.0
18.87
16.55
14.4
11.68
7.85
2.81
-3.05
-8.97
-14.09
-17.66
-19.2
-18.53
-15.64
-10.76
-4.29
3.19
10.88
18.05
24.11
28.95
32.9
36.58
40.66
45.66
51.79
59.15
67.91
78.5
91.56
107.85
127.96
152.12
180.04
210.91
243.26
275.02
303.59
326.07
339.81
342.95
335.04
317.45
293.36
267.23
243.67
226.0
215.04
208.77
203.09
193.54
177.07
153.1
123.39
90.87
58.14
26.54
-3.9
-33.96
-64.32
-95.14
-125.96
-155.88
-183.74
-208.28
-228.23
-242.57
-250.87
-253.42
-251.3
-246.1
-239.5
-232.87
-227.16
-222.75
-219.6
-217.32
-215.26
-212.61
-208.65
-202.91
-195.38
-186.48
-176.89
-167.3
-158.13
-149.47
-141.16
-133.03
-124.97
-116.91
-108.76
-100.45
-91.96
-83.61
-76.06
-70.19
-66.81
-66.35
-68.84
-74.0
-81.57
-91.4
-103.39
-117.24
-132.24
-147.38
-161.5
-173.8
-183.95
-192.19
-198.89
-204.23
-207.83
-208.76
-205.96
-198.87
-187.92
-174.74
-161.69
-151.09
-144.39
-141.62
-141.41
-141.36
-138.62
-130.44
-114.52
-89.4
-54.85
-12.34
34.84
81.98
124.09
157.31
180.0
193.08
199.35
202.16
204.13
206.4
208.71
209.88
208.72
204.44
196.86
186.2
172.97
157.92
141.93
126.01
111.04
97.63
85.97
75.94
67.25
59.65
52.99
47.16
42.01
37.36
33.04
29.08
25.67
23.11
21.64
21.26
21.69
22.46
23.17
23.52
23.48
23.05
22.3
21.18
19.62
17.63
15.32
12.87
10.45
8.07
5.49
2.38
-1.65
-6.79
-12.95
-19.81
-26.9
-33.79
-40.26
-46.27
-51.92
-57.28
-62.2
-66.33
-69.14
-70.14
-69.01
-65.78
-60.83
-54.67
-47.87
-40.79
-33.6
-26.3
-18.87
-11.36
-4.0
2.86
8.91
13.89
17.72
20.51
22.53
24.07
25.45
26.87
28.37
29.94
31.41
32.58
33.29
33.41
32.94
32.01
30.77
29.37
27.91
26.32
24.47
22.22
19.46
16.18
12.48
8.5
4.41
0.31
-3.71
-7.65
-11.52
-15.42
-19.55
-24.12
-29.34
-35.13
-41.07
-46.39
-50.12
-51.44
-49.95
-45.79
-39.62
-32.29
-24.56
-16.93
-9.57
-2.41
4.6
11.39
17.75
23.36
27.91
31.27
33.54
34.98
35.96
36.76
37.56
38.41
39.28
40.09
40.72
41.06
40.89
40.09
38.61
36.47
33.79
30.67
27.16
23.31
19.24
15.1
11.05
7.12
3.09
-1.4
-6.68
-12.88
-19.73
-26.75
-33.41
-39.43
-44.99
-50.54
-56.5
-62.91
-69.21
-74.39
-77.27
-77.01
-73.43
-67.09
-59.07
-50.58
-42.44
-34.9
-27.61
-19.9
-11.15
-1.08
9.97
21.01
30.52
36.77
38.1
33.19
21.3
2.53
-21.89
-49.43
-76.5
-99.1
-113.74
-118.25
-111.91
-94.74
-66.73
-27.36
23.29
82.87
145.26
200.76
238.43
249.65
231.35
187.25
126.8
61.93
3.44
-41.63
-70.92
-85.78
-89.03
-82.9
-68.04
-43.85
-10.09
31.49
76.57
119.08
153.4
176.66
189.45
194.96
196.94
197.75
197.7
195.7
190.32
180.7
166.6
147.87
123.98
94.03
57.26
13.7
-35.44
-88.07
-141.74
-194.29
-243.94
-289.0
-327.19
-355.61
-371.29
-372.4
-359.32
-334.98
-304.04
-271.26
-239.9
-210.89
-182.9
-153.41
-119.81
-80.53
-35.85
11.54
56.72
93.72
117.58
126.49
122.96
113.26
105.02
104.67
115.51
137.42
167.87
203.31
239.94
273.99
301.84
320.41
327.97
324.71
312.77
295.39
275.75
255.87
236.18
215.59
191.95
162.98
127.23
85.11
39.16
-6.5
-47.43
-80.47
-104.63
-121.19
-132.69
-141.69
-150.15
-159.28
-169.96
-183.03
-199.37
-219.43
-242.83
-268.05
-292.43
-312.61
-325.57
-329.93
-327.02
-321.16
-318.3
-323.55
-338.7
-360.82
-383.13
-397.55
-397.85
-381.71
-350.94
-309.85
-263.28
-215.04
-167.59
-122.62
-81.36
-44.67
-12.41
17.18
47.5
82.64
125.53
175.7
228.06
273.58
302.0
305.8
283.62
241.72
192.4
150.0
126.08
125.65
146.09
178.89
213.34
240.28
254.59
255.64
246.02
229.65
210.13
190.07
171.14
154.57
141.35
131.89
125.66
120.96
115.49
107.13
94.83
78.97
61.22
43.84
29.03
18.25
11.93
9.47
9.57
10.68
11.57
11.64
11.08
10.66
11.31
13.62
17.59
22.62
27.84
32.51
36.31
39.37
42.01
44.45
46.57
47.95
48.13
46.81
44.1
40.48
36.52
32.65
28.96
25.17
20.78
15.33
8.6
0.75
-7.59
-15.42
-21.65
-25.28
-25.75
-23.02
-17.7
-10.85
-3.81
2.07
5.65
6.17
3.26
-3.06
-12.43
-24.09
-36.78
-48.77
-58.11
-63.07
-62.69
-57.13
-47.66
-36.15
-24.48
-13.92
-5.02
2.22
7.9
11.98
14.2
14.38
12.71
9.85
6.84
4.68
4.01
4.84
6.64
8.63
10.11
10.77
10.74
10.41
10.19
10.26
10.55
10.75
10.59
9.89
8.6
6.74
4.29
1.17
-2.64
-7.11
-12.06
-17.26
-22.51
-27.7
-32.7
-37.28
-41.01
-43.27
-43.46
-41.17
-36.41
-29.66
-21.77
-13.69
-6.25
0.1
5.34
9.72
13.56
17.01
19.93
21.98
22.85
22.5
21.14
19.26
17.37
15.75
14.42
13.22
12.02
10.85
9.87
9.22
8.79
8.24
7.01
4.67
1.07
-3.48
-8.35
-12.77
-16.06
-17.8
-17.78
-16.03
-12.67
-7.97
-2.3
3.83
9.86
15.24
19.6
22.8
24.9
26.06
26.52
26.46
26.08
25.59
25.26
25.34
26.0
27.19
28.63
29.95
30.78
30.93
30.39
29.32
27.89
26.18
24.12
21.57
18.38
14.62
10.55
6.57
3.09
0.32
-1.85
-3.77
-5.87
-8.51
-11.82
-15.68
-19.83
-24.02
-28.04
-31.84
-35.42
-38.9
-42.4
-46.13
-50.26
-54.85
-59.67
-64.1
-67.24
-68.06
-65.82
-60.28
-51.86
-41.56
-30.64
-20.26
-11.23
-3.86
1.95
6.5
10.12
13.07
15.43
17.26
18.55
19.3
19.52
19.23
18.47
17.33
15.97
14.58
13.29
12.16
11.09
9.93
8.49
6.67
4.53
2.21
-0.09
-2.21
-4.14
-5.99
-7.99
-10.37
-13.43
-17.32
-22.06
-27.36
-32.65
-37.04
-39.6
-39.61
-36.79
-31.47
-24.43
-16.65
-9.09
-2.41
3.04
7.19
10.1
11.93
12.86
13.09
12.8
12.1
11.11
9.87
8.51
7.18
6.08
5.39
5.13
5.19
5.32
5.17
4.48
3.11
1.08
-1.44
-4.25
-7.19
-10.16
-13.21
-16.4
-19.87
-23.7
-27.91
-32.36
-36.69
-40.3
-42.41
-42.25
-39.34
-33.64
-25.74
-16.61
-7.43
0.83
7.57
12.7
16.44
19.1
20.93
21.97
22.18
21.57
20.3
18.67
17.01
15.55
14.3
13.16
11.98
10.62
9.01
7.11
4.89
2.31
-0.6
-3.72
-6.83
-9.77
-12.45
-14.96
-17.55
-20.52
-24.17
-28.6
-33.65
-38.81
-43.23
-45.88
-45.91
-42.84
-36.84
-28.67
-19.42
-10.18
-1.75
5.43
11.28
15.84
19.22
21.49
22.74
23.1
22.76
21.96
20.89
19.77
18.73
17.85
17.14
16.51
15.79
14.77
13.27
11.13
8.36
5.04
1.35
-2.46
-6.18
-9.63
-12.79
-15.78
-18.89
-22.46
-26.79
-31.89
-37.38
-42.45
-46.05
-47.19
-45.27
-40.26
-32.77
-23.79
-14.4
-5.47
2.43
9.1
14.58
18.96
22.38
24.92
26.67
27.73
28.24
28.34
28.13
27.64
26.85
25.73
24.3
22.64
20.89
19.13
17.33
15.33
12.91
9.86
6.14
1.93
-2.45
-6.6
-10.21
-13.24
-15.89
-18.61
-21.91
-26.19
-31.54
-37.66
-43.77
-48.78
-51.56
-51.18
-47.29
-40.18
-30.78
-20.35
-10.1
-0.91
6.82
13.09
18.14
22.17
25.34
27.67
29.18
29.91
29.99
29.6
28.9
28.05
27.1
26.07
24.92
23.62
22.13
20.46
18.64
16.67
14.55
12.22
9.62
6.68
3.41
-0.13
-3.83
-7.65
-11.63
-15.96
-20.87
-26.37
-32.14
-37.37
-40.94
-41.74
-39.1
-33.05
-24.36
-14.27
-4.16
4.92
12.39
18.12
22.31
25.2
26.98
27.76
27.67
26.87
25.67
24.41
23.41
22.83
22.67
22.76
22.81
22.56
21.78
20.36
18.22
15.42
12.09
8.49
4.88
1.51
-1.57
-4.5
-7.57
-11.16
-15.56
-20.83
-26.74
-32.77
-38.1
-41.78
-42.94
-41.09
-36.22
-28.92
-20.19
-11.19
-2.93
3.91
9.06
12.49
14.31
14.76
14.15
12.91
11.53
10.44
9.86
9.75
9.74
9.33
8.07
5.78
2.66
-0.82
-4.06
-6.5
-7.87
-8.36
-8.59
-9.43
-11.78
-16.12
-22.19
-28.86
-34.18
-36.15
-33.85
-28.01
-21.05
-16.29
-16.58
-23.15
-35.14
-49.78
-63.44
-73.01
-76.49
-73.18
-63.71
-49.9
-34.46
-20.49
-10.27
-4.42
-1.96
-0.5
2.66
9.31
19.53
32.66
46.1
57.36
67.1
77.12
89.76
107.14
130.51
159.59
192.18
223.84
248.76
260.98
255.86
232.02
192.28
143.02
92.24
47.16
12.13
-11.89
-27.04
-37.46
-47.43
-60.09
-76.72
-96.65
-117.81
-137.51
-153.12
-162.74
-165.78
-162.74
-154.93
-144.0
-131.52
-118.78
-106.52
-94.9
-83.56
-71.86
-59.06
-44.79
-29.38
-13.9
0.04
10.81
17.43
19.87
18.94
15.88
11.83
7.51
3.26
-0.66
-3.85
-5.73
-5.87
-4.26
-1.4
1.9
4.83
6.87
7.77
7.33
5.36
1.71
-3.53
-9.73
-15.78
-20.27
-21.94
-20.12
-14.92
-7.14
1.98
11.14
19.32
25.9
30.68
33.81
35.54
36.14
35.82
34.73
33.04
30.96
28.72
26.51
24.48
22.7
21.14
19.7
18.22
16.42
14.08
11.02
7.27
3.09
-1.12
-4.93
-8.11
-10.73
-13.19
-16.09
-20.0
-25.26
-31.8
-39.02
-45.78
-50.63
-52.15
-49.36
-42.13
-31.23
-18.18
-4.75
7.58
17.89
25.92
31.82
35.88
38.41
39.69
40.02
39.8
39.4
39.09
38.91
38.72
38.29
37.43
36.07
34.27
32.17
29.91
27.54
25.05
22.33
19.25
15.7
11.64
7.22
2.71
-1.63
-5.58
-9.18
-12.69
-16.55
-21.16
-26.69
-32.91
-39.15
-44.38
-47.48
-47.59
-44.38
-38.16
-29.79
-20.41
-11.13
-2.66
4.73
11.1
16.59
21.2
24.77
27.09
28.15
28.16
27.57
26.84
26.23
25.78
25.32
24.71
24.0
23.37
23.06
23.07
23.13
22.68
21.14
18.13
13.65
8.13
2.24
-3.32
-8.09
-11.97
-15.26
-18.51
-22.32
-27.04
-32.57
-38.31
-43.26
-46.29
-46.54
-43.68
-37.95
-30.08
-20.97
-11.52
-2.4
5.9
13.05
18.85
23.21
26.22
28.05
29.02
29.43
29.54
29.49
29.35
29.11
28.73
28.12
27.22
26.07
24.75
23.45
22.28
21.18
19.89
18.04
15.34
11.66
7.22
2.4
-2.31
-6.54
-10.15
-13.25
-16.12
-19.2
-22.89
-27.43
-32.74
-38.26
-43.0
-45.79
-45.63
-42.1
-35.5
-26.79
-17.2
-7.85
0.53
7.57
13.2
17.45
20.35
21.98
22.56
22.47
22.19
22.14
22.56
23.39
24.36
25.11
25.36
24.99
24.09
22.84
21.41
19.87
18.12
15.96
13.19
9.72
5.67
1.37
-2.79
-6.49
-9.64
-12.37
-15.03
-18.08
-21.9
-26.71
-32.37
-38.31
-43.56
-46.9
-47.28
-44.17
-37.81
-29.16
-19.53
-10.13
-1.73
5.41
11.34
16.17
19.87
22.31
23.41
23.34
22.54
21.57
20.9
20.68
20.72
20.67
20.18
19.13
17.68
16.17
14.88
13.84
12.78
11.24
8.85
5.49
1.43
-2.78
-6.58
-9.65
-11.99
-13.95
-16.03
-18.73
-22.38
-27.02
-32.31
-37.53
-41.67
-43.65
-42.63
-38.41
-31.45
-22.81
-13.76
-5.35
1.89
7.88
12.84
16.99
20.31
22.67
23.91
24.08
23.42
22.37
21.3
20.49
19.99
19.69
19.39
18.92
18.15
17.03
15.51
13.54
11.05
8.06
4.64
0.98
-2.68
-6.11
-9.23
-12.14
-15.1
-18.5
-22.66
-27.72
-33.42
-39.06
-43.59
-45.89
-45.08
-40.92
-33.85
-24.87
-15.19
-5.81
2.65
9.93
16.0
20.8
24.24
26.28
27.05
26.93
26.45
26.07
26.04
26.3
26.59
26.6
26.16
25.27
24.06
22.72
21.3
19.7
17.7
15.08
11.75
7.83
3.58
-0.67
-4.7
-8.45
-12.02
-15.64
-19.57
-24.05
-29.21
-34.93
-40.75
-45.79
-48.93
-49.07
-45.6
-38.63
-29.02
-18.09
-7.15
2.84
11.39
18.34
23.71
27.53
29.83
30.8
30.76
30.17
29.49
29.04
28.91
28.96
28.93
28.56
27.67
26.28
24.54
22.65
20.76
18.85
16.73
14.12
10.82
6.85
2.44
-1.98
-6.03
-9.5
-12.46
-15.19
-18.14
-21.7
-26.16
-31.56
-37.55
-43.4
-48.06
-50.38
-49.5
-45.17
-37.85
-28.59
-18.63
-9.05
-0.42
7.15
13.79
19.64
24.64
28.56
31.19
32.48
32.7
32.31
31.79
31.48
31.41
31.37
31.04
30.16
28.72
26.91
25.1
23.55
22.33
21.19
19.73
17.56
14.45
10.52
6.09
1.56
-2.77
-6.78
-10.51
-14.09
-17.66
-21.39
-25.51
-30.25
-35.75
-41.73
-47.36
-51.37
-52.37
-49.42
-42.47
-32.43
-20.92
-9.69
-0.03
7.51
13.09
17.25
20.56
23.32
25.61
27.32
28.34
28.61
28.07
26.6
24.1
20.72
16.95
13.67
11.77
11.75
13.39
15.76
17.71
18.38
17.57
15.71
13.47
11.28
9.13
6.72
3.74
0.17
-3.69
-7.43
-10.79
-13.79
-16.79
-20.28
-24.68
-30.11
-36.22
-42.09
-46.43
-47.97
-45.89
-40.21
-31.78
-22.02
-12.36
-3.75
3.5
9.55
14.75
19.31
23.15
26.05
27.81
28.43
28.17
27.46
26.78
26.51
26.76
27.37
27.99
28.23
27.83
26.82
25.45
24.05
22.84
21.77
20.55
18.8
16.26
12.94
9.09
5.09
1.24
-2.33
-5.75
-9.22
-12.96
-17.1
-21.62
-26.48
-31.52
-36.45
-40.74
-43.66
-44.39
-42.36
-37.45
-30.11
-21.32
-12.18
-3.64
3.71
9.66
14.27
17.65
19.91
21.15
21.56
21.4
20.98
20.57
20.31
20.21
20.13
19.93
19.5
18.79
17.85
16.72
15.39
13.76
11.7
9.12
6.08
2.76
-0.57
-3.65
-6.39
-8.84
-11.23
-13.86
-16.97
-20.73
-25.11
-29.81
-34.27
-37.62
-38.94
-37.53
-33.18
-26.37
-18.11
-9.65
-2.04
4.13
8.81
12.31
14.98
17.01
18.43
19.15
19.16
18.6
17.7
16.69
15.72
14.82
13.94
13.11
12.4
11.96
11.82
11.83
11.67
10.94
9.29
6.64
3.14
-0.83
-4.84
-8.53
-11.68
-14.28
-16.53
-18.82
-21.65
-25.4
-30.07
-35.12
-39.48
-41.85
-41.22
-37.25
-30.48
-22.13
-13.62
-6.02
0.12
4.88
8.63
11.7
14.27
16.34
17.84
18.76
19.21
19.27
19.04
18.53
17.75
16.73
15.57
14.4
13.34
12.46
11.7
10.93
9.9
8.38
6.17
3.27
-0.2
-3.99
-7.76
-11.29
-14.45
-17.25
-19.82
-22.28
-24.84
-27.67
-30.9
-34.42
-37.82
-40.27
-40.8
-38.62
-33.47
-25.85
-16.85
-7.8
0.29
6.94
12.25
16.57
20.24
23.29
25.56
26.82
27.05
26.49
25.56
24.65
24.0
23.55
23.07
22.33
21.25
19.99
18.82
17.95
17.36
16.74
15.62
13.6
10.55
6.67
2.43
-1.62
-5.08
-7.82
-10.01
-12.06
-14.44
-17.56
-21.58
-26.38
-31.5
-36.17
-39.52
-40.75
-39.39
-35.4
-29.26
-21.82
-14.03
-6.72
-0.31
5.12
9.81
13.99
17.76
21.04
23.62
25.37
26.31
26.68
26.72
26.59
26.31
25.74
24.71
23.19
21.27
19.17
17.09
15.14
13.3
11.41
9.27
6.73
3.75
0.4
-3.11
-6.5
-9.57
-12.17
-14.34
-16.26
-18.23
-20.61
-23.65
-27.36
-31.39
-35.06
-37.43
-37.69
-35.35
-30.47
-23.63
-15.76
-7.78
-0.47
5.74
10.7
14.47
17.16
18.89
19.78
20.04
19.89
19.61
19.41
19.35
19.32
19.13
18.59
17.64
16.39
15.01
13.66
12.33
10.92
9.22
7.12
4.61
1.83
-1.03
-3.78
-6.31
-8.58
-10.64
-12.62
-14.7
-17.11
-20.04
-23.6
-27.65
-31.76
-35.17
-37.02
-36.56
-33.46
-27.98
-20.88
-13.16
-5.72
0.81
6.21
10.49
13.73
15.96
17.15
17.36
16.81
15.83
14.79
13.95
13.36
12.93
12.51
11.97
11.29
10.5
9.62
8.62
7.42
5.9
3.96
1.62
-1.04
-3.85
-6.61
-9.18
-11.46
-13.51
-15.5
-17.75
-20.56
-24.05
-27.95
-31.57
-33.93
-34.09
-31.56
-26.46
-19.53
-11.87
-4.53
1.79
6.79
10.54
13.22
14.97
15.92
16.15
15.76
14.93
13.79
12.5
11.18
9.92
8.84
8.02
7.48
7.1
6.67
5.9
4.6
2.7
0.37
-2.12
-4.53
-6.69
-8.64
-10.52
-12.56
-14.98
-17.97
-21.61
-25.8
-30.14
-33.93
-36.27
-36.33
-33.66
-28.4
-21.27
-13.33
-5.63
1.09
6.54
10.77
13.97
16.28
17.75
18.39
18.31
17.74
16.96
16.22
15.59
14.99
14.28
13.37
12.28
11.16
10.13
9.22
8.3
7.15
5.56
3.45
0.87
-1.97
-4.9
-7.75
-10.45
-13.03
-15.61
-18.38
-21.6
-25.48
-29.99
-34.75
-38.96
-41.58
-41.68
-38.87
-33.37
-26.04
-17.94
-10.02
-2.8
3.57
9.1
13.81
17.58
20.26
21.82
22.4
22.33
21.96
21.55
21.19
20.83
20.35
19.62
18.62
17.4
16.06
14.73
13.51
12.37
11.2
9.78
7.9
5.43
2.37
-1.15
-4.9
-8.6
-12.03
-15.14
-18.06
-21.08
-24.59
-28.78
-33.51
-38.19
-41.87
-43.52
-42.43
-38.49
-32.27
-24.72
-16.88
-9.53
-3.03
2.53
7.2
10.91
13.53
14.92
15.15
14.49
13.36
12.15
11.05
9.98
8.73
7.08
4.97
2.5
-0.06
-2.45
-4.54
-6.42
-8.3
-10.52
-13.31
-16.66
-20.24
-23.39
-25.29
-25.13
-22.41
-17.04
-9.5
-0.76
7.93
15.27
20.31
22.67
22.62
20.9
18.35
15.48
12.22
7.98
2.11
-5.64
-14.71
-23.72
-30.82
-34.31
-33.09
-26.94
-16.43
-2.55
13.6
31.03
48.83
66.08
81.89
95.55
106.85
116.29
124.91
134.0
144.65
157.39
172.03
187.72
202.91
215.46
222.77
222.23
211.75
190.28
158.35
118.19
73.63
29.59
-8.81
-37.4
-54.09
-59.55
-57.02
-51.19
-46.58
-46.11
-50.42
-58.28
-67.55
-76.24
-82.92
-86.78
-87.32
-84.28
-77.75
-68.37
-57.37
-46.24
-36.42
-28.87
-23.99
-21.65
-21.47
-22.95
-25.51
-28.56
-31.47
-33.69
-34.93
-35.2
-34.78
-34.1
-33.51
-33.21
-33.29
-33.75
-34.67
-36.13
-38.15
-40.57
-43.06
-45.2
-46.64
-47.23
-47.1
-46.48
-45.71
-45.02
-44.57
-44.46
-44.79
-45.65
-47.13
-49.13
-51.31
-53.1
-53.87
-53.06
-50.46
-46.26
-40.91
-35.07
-29.31
-23.98
-19.21
-15.0
-11.27
-8.0
-5.2
-2.87
-0.92
0.83
2.62
4.62
6.8
8.98
10.84
12.11
12.64
12.47
11.79
10.8
9.63
8.27
6.65
4.65
2.2
-0.66
-3.78
-6.89
-9.65
-11.78
-13.15
-13.94
-14.59
-15.66
-17.55
-20.32
-23.48
-26.22
-27.65
-27.12
-24.49
-20.05
-14.36
-8.05
-1.63
4.58
10.31
15.27
19.1
21.51
22.35
21.77
20.19
18.21
16.37
14.96
14.02
13.33
12.65
11.84
10.92
10.05
9.37
8.86
8.34
7.52
6.16
4.21
1.77
-0.88
-3.47
-5.78
-7.84
-9.8
-11.99
-14.74
-18.26
-22.59
-27.42
-32.25
-36.35
-38.98
-39.54
-37.71
-33.57
-27.52
-20.29
-12.65
-5.33
1.21
6.74
11.22
14.71
17.27
19.06
20.27
21.23
22.28
23.66
25.39
27.24
28.86
29.87
30.1
29.6
28.58
27.26
25.77
24.08
22.07
19.64
16.78
13.66
10.48
7.44
4.56
1.69
-1.39
-4.96
-9.17
-14.04
-19.39
-24.86
-29.83
-33.55
-35.22
-34.24
-30.44
-24.17
-16.27
-7.81
0.24
7.19
12.79
17.12
20.4
22.89
24.76
26.12
27.05
27.65
28.08
28.5
29.08
29.95
31.12
32.53
34.06
35.53
36.77
37.64
38.02
37.84
37.02
35.52
33.33
30.47
27.02
23.06
18.63
13.71
8.24
2.12
-4.72
-12.22
-20.15
-28.03
-35.22
-41.1
-45.24
-47.56
-48.39
-48.24
-47.67
-47.03
-46.43
-45.72
-44.66
-43.04
-40.7
-37.71
-34.32
-31.09
-28.84
-28.47
-30.66
-35.55
-42.59
-50.56
-58.03
-63.69
-66.6
-66.24
-62.42
-55.44
-46.24
-36.46
-28.06
-22.62
-20.64
-21.21
-22.47
-22.49
-20.27
-16.19
-11.76
-8.67
-8.02
-9.81
-13.07
-16.28
-17.86
-16.48
-11.16
-1.37
12.79
30.54
50.33
70.11
87.59
100.78
108.46
110.4
107.29
100.53
91.72
82.32
73.42
65.65
59.28
54.38
50.86
48.6
47.48
47.44
48.36
50.02
51.87
53.06
52.6
49.74
44.32
37.02
29.19
22.34
17.54
14.89
13.46
11.54
7.29
-0.59
-12.25
-26.57
-41.41
-54.24
-63.01
-66.71
-65.6
-60.86
-54.03
-46.34
-38.42
-30.5
-22.89
-16.4
-12.35
-12.08
-16.08
-23.43
-31.77
-38.14
-40.11
-36.91
-29.94
-22.2
-17.34
-18.06
-25.05
-36.39
-47.81
-53.43
-47.15
-24.56
15.17
67.87
124.46
172.89
201.73
204.03
179.93
136.59
85.42
37.83
1.57
-20.91
-31.54
-34.14
-32.06
-27.0
-19.49
-10.09
-0.2
7.95
12.37
12.41
9.18
5.17
2.94
3.81
7.3
11.48
14.06
13.53
9.9
4.62
-0.2
-2.8
-2.5
0.09
3.42
5.83
6.22
4.44
1.2
-2.4
-5.35
-7.18
-8.07
-8.61
-9.56
-11.38
-14.16
-17.67
-21.55
-25.54
-29.54
-33.51
-37.25
-40.25
-41.79
-41.12
-37.81
-31.96
-24.21
-15.56
-7.08
0.33
6.16
10.22
12.62
13.64
13.68
13.13
12.33
11.52
10.82
10.29
9.94
9.71
9.52
9.28
8.87
8.24
7.42
6.43
5.31
4.0
2.4
0.37
-2.09
-4.87
-7.76
-10.53
-13.1
-15.59
-18.31
-21.6
-25.68
-30.39
-35.23
-39.34
-41.76
-41.76
-38.95
-33.52
-26.07
-17.49
-8.71
-0.53
6.44
11.83
15.46
17.39
17.85
17.23
16.01
14.61
13.32
12.28
11.53
11.03
10.73
10.57
10.49
10.33
9.95
9.2
7.97
6.21
3.97
1.31
-1.65
-4.77
-7.9
-10.9
-13.7
-16.37
-19.14
-22.35
-26.31
-31.06
-36.3
-41.32
-45.12
-46.76
-45.57
-41.41
-34.67
-26.19
-17.0
-8.12
-0.34
5.86
10.31
13.13
14.6
15.11
14.98
14.5
13.81
12.99
12.15
11.41
10.92
10.8
11.06
11.56
12.06
12.26
11.89
10.79
8.87
6.17
2.82
-0.97
-4.92
-8.81
-12.5
-16.07
-19.75
-23.87
-28.68
-34.15
-39.86
-44.99
-48.51
-49.42
-47.08
-41.41
-32.95
-22.73
-11.99
-1.9
6.71
13.34
17.87
20.45
21.45
21.32
20.56
19.6
18.71
17.99
17.43
16.99
16.64
16.41
16.29
16.19
15.89
15.15
13.73
11.52
8.57
5.05
1.2
-2.75
-6.62
-10.31
-13.86
-17.46
-21.42
-26.05
-31.53
-37.67
-43.78
-48.76
-51.33
-50.47
-45.76
-37.56
-26.92
-15.28
-3.99
5.94
13.98
20.03
24.21
26.73
27.79
27.61
26.48
24.73
22.81
21.15
20.08
19.78
20.17
20.96
21.78
22.19
21.92
20.8
18.8
15.97
12.42
8.24
3.64
-1.18
-6.04
-10.86
-15.72
-20.88
-26.65
-33.12
-40.01
-46.5
-51.39
-53.4
-51.58
-45.65
-36.12
-24.16
-11.27
1.08
11.76
20.11
25.89
29.21
30.45
30.11
28.78
27.08
25.48
24.33
23.75
23.71
24.05
24.58
25.11
25.47
25.48
24.95
23.71
21.62
18.64
14.85
10.45
5.74
0.98
-3.67
-8.28
-13.11
-18.57
-24.94
-32.17
-39.66
-46.31
-50.8
-51.89
-48.86
-41.77
-31.41
-19.09
-6.32
5.58
15.73
23.71
29.53
33.42
35.72
36.72
36.57
35.35
33.1
30.0
26.44
23.02
20.36
18.88
18.63
19.19
19.83
19.79
18.56
16.02
12.43
8.27
4.02
0.02
-3.63
-7.05
-10.56
-14.57
-19.45
-25.37
-32.13
-39.04
-44.97
-48.59
-48.73
-44.74
-36.72
-25.56
-12.7
0.23
11.76
20.88
27.1
30.5
31.55
30.94
29.4
27.56
25.84
24.49
23.64
23.32
23.54
24.18
25.04
25.78
26.03
25.52
24.12
21.88
18.94
15.48
11.63
7.5
3.19
-1.27
-5.9
-10.84
-16.37
-22.65
-29.62
-36.75
-43.03
-47.18
-48.0
-44.84
-37.8
-27.73
-15.97
-3.99
6.99
16.15
23.08
27.68
30.11
30.62
29.59
27.5
24.85
22.15
19.87
18.33
17.69
17.87
18.59
19.39
19.77
19.27
17.64
14.89
11.26
7.14
2.92
-1.14
-4.98
-8.73
-12.57
-16.73
-21.35
-26.49
-32.1
-37.89
-43.28
-47.34
-48.92
-47.01
-41.09
-31.41
-19.06
-5.54
7.64
19.42
29.33
37.31
43.4
47.55
49.61
49.49
47.45
44.07
40.15
36.35
33.03
30.07
27.07
23.66
19.7
15.4
11.28
7.77
5.05
2.86
0.51
-2.84
-7.91
-14.92
-23.49
-32.66
-41.24
-48.3
-53.68
-58.14
-63.23
-70.58
-81.14
-94.31
-107.96
-118.9
-124.22
-122.42
-114.22
-102.42
-90.77
-82.68
-80.0
-82.63
-88.86
-96.15
-101.97
-104.28
-102.04
-95.62
-87.23
-80.58
-79.6
-86.36
-99.35
-113.08
-119.49
-111.04
-83.78
-39.27
15.83
72.2
120.92
156.06
175.46
180.13
172.95
157.32
136.41
112.78
88.49
65.19
44.46
27.85
16.71
11.79
12.93
18.95
28.02
38.21
48.17
57.34
65.88
74.06
81.72
88.18
92.52
94.3
94.08
93.54
94.91
99.97
109.02
120.37
130.7
136.3
134.47
124.66
108.52
89.11
69.44
51.45
35.65
21.66
9.02
-2.3
-11.91
-19.45
-24.98
-29.0
-32.09
-34.45
-35.59
-34.56
-30.28
-22.25
-10.83
2.65
16.21
27.82
36.03
40.45
41.82
41.65
41.61
42.79
45.27
48.15
50.06
49.8
46.94
41.98
36.05
30.33
25.48
21.41
17.58
13.43
8.85
4.25
0.25
-2.8
-5.05
-7.1
-9.59
-12.86
-16.71
-20.66
-24.18
-27.03
-29.31
-31.27
-33.14
-34.95
-36.58
-37.83
-38.61
-39.05
-39.54
-40.7
-43.15
-47.25
-52.87
-59.35
-65.55
-70.28
-72.54
-71.75
-67.8
-60.92
-51.58
-40.54
-28.76
-17.37
-7.42
0.39
5.83
9.17
11.05
12.22
13.38
15.09
17.71
21.39
25.92
30.79
35.2
38.31
39.48
38.46
35.41
30.83
25.32
19.39
13.29
6.99
0.38
-6.54
-13.45
-19.76
-24.88
-28.57
-31.17
-33.57
-36.86
-41.72
-48.06
-54.98
-61.04
-64.81
-65.22
-61.71
-54.17
-42.87
-28.52
-12.31
4.15
19.07
30.89
38.73
42.48
42.77
40.63
37.19
33.39
30.0
27.53
26.25
26.12
26.79
27.62
27.92
27.12
24.97
21.6
17.38
12.75
8.13
3.79
-0.14
-3.7
-6.99
-10.21
-13.65
-17.62
-22.39
-28.0
-34.17
-40.22
-45.17
-48.01
-47.96
-44.7
-38.48
-30.04
-20.35
-10.38
-0.88
7.67
15.07
21.21
26.0
29.37
31.33
32.01
31.72
30.84
29.76
28.73
27.82
26.92
25.91
24.72
23.36
21.89
20.29
18.45
16.16
13.25
9.65
5.52
1.1
-3.29
-7.44
-11.27
-14.87
-18.41
-22.16
-26.37
-31.18
-36.51
-41.93
-46.67
-49.72
-50.16
-47.44
-41.67
-33.47
-23.84
-13.76
-3.94
5.22
13.55
20.93
27.18
32.01
35.16
36.58
36.52
35.46
34.0
32.63
31.63
30.99
30.53
30.02
29.31
28.4
27.38
26.33
25.24
23.94
22.15
19.59
16.11
11.77
6.85
1.78
-2.99
-7.17
-10.7
-13.78
-16.83
-20.28
-24.47
-29.51
-35.26
-41.25
-46.76
-50.91
-52.8
-51.74
-47.42
-40.05
-30.31
-19.22
-7.89
2.76
12.11
19.89
26.09
30.77
33.99
35.8
36.29
35.71
34.48
33.13
32.1
31.57
31.41
31.25
30.67
29.41
27.51
25.24
22.95
20.84
18.84
16.61
13.71
9.92
5.31
0.28
-4.57
-8.81
-12.28
-15.21
-18.01
-21.05
-24.49
-28.27
-32.23
-36.2
-40.08
-43.69
-46.64
-48.3
-48.01
-45.3
-40.17
-33.08
-24.6
-15.12
-4.71
6.58
18.33
29.42
38.29
43.48
44.36
41.43
36.14
30.2
24.98
21.19
19.03
18.45
19.32
21.35
24.0
26.4
27.64
27.07
24.58
20.5
15.56
10.52
6.08
2.73
0.59
-0.62
-1.58
-3.17
-6.1
-10.64
-16.59
-23.39
-30.42
-37.11
-42.84
-46.95
-48.67
-47.43
-43.2
-36.69
-29.22
-22.26
-16.85
-13.19
-10.71
-8.31
-5.04
-0.45
5.18
11.02
16.12
19.71
21.57
21.93
21.32
20.25
19.04
17.8
16.55
15.36
14.4
13.78
13.49
13.32
12.91
11.87
9.98
7.23
3.86
0.2
-3.42
-6.78
-9.85
-12.73
-15.63
-18.77
-22.35
-26.48
-31.23
-36.59
-42.48
-48.63
-54.48
-59.21
-61.89
-61.8
-58.63
-52.73
-44.96
-36.42
-28.07
-20.53
-13.99
-8.4
-3.67
0.27
3.44
5.93
7.98
9.89
11.95
14.26
16.74
19.15
21.32
23.22
25.07
27.3
30.55
35.57
43.05
53.2
65.54
78.72
90.69
99.34
103.11
101.45
94.83
84.44
71.82
58.58
46.41
36.91
31.19
29.28
29.69
29.7
26.3
17.55
3.48
-13.89
-31.42
-46.08
-55.86
-60.02
-58.81
-53.03
-43.88
-32.92
-21.98
-12.85
-6.77
-4.08
-4.23
-6.19
-8.91
-11.56
-13.51
-14.1
-12.76
-9.13
-3.41
3.51
10.26
15.43
18.04
17.75
14.81
9.92
4.01
-1.88
-6.76
-9.77
-10.52
-9.19
-6.52
-3.59
-1.46
-0.84
-2.07
-5.09
-9.6
-15.09
-21.0
-26.86
-32.42
-37.76
-43.21
-48.9
-54.37
-58.3
-58.93
-54.73
-45.42
-32.4
-18.48
-6.73
0.89
4.55
6.46
9.66
16.37
26.6
37.97
46.91
50.48
47.97
41.09
33.02
26.6
23.03
21.57
20.52
18.57
15.63
12.75
11.1
11.07
11.87
12.06
10.4
6.62
1.58
-3.31
-6.81
-8.46
-8.7
-8.53
-9.06
-11.0
-14.51
-19.3
-24.85
-30.56
-35.89
-40.34
-43.4
-44.55
-43.35
-39.68
-33.76
-26.23
-17.93
-9.72
-2.27
4.06
9.12
12.95
15.62
17.22
17.88
17.8
17.26
16.56
15.94
15.52
15.28
15.09
14.76
14.2
13.42
12.56
11.77
11.12
10.54
9.84
8.83
7.42
5.63
3.59
1.5
-0.53
-2.5
-4.55
-6.86
-9.57
-12.74
-16.35
-20.36
-24.72
-29.34
-33.99
-38.24
-41.47
-42.95
-42.12
-38.77
-33.15
-25.92
-17.96
-10.09
-2.93
3.17
8.07
11.78
14.38
16.0
16.9
17.34
17.53
17.56
17.4
17.0
16.36
15.64
15.11
15.0
15.36
16.0
16.54
16.6
15.89
14.26
11.67
8.09
3.62
-1.39
-6.23
-9.96
-11.72
-11.27
-9.28
-7.19
-6.7
-8.97
-14.15
-21.3
-28.89
-35.5
-40.27
-43.02
-43.88
-42.94
-40.07
-35.11
-28.15
-19.77
-11.01
-2.97
3.62
8.64
12.53
15.91
19.2
22.36
25.04
26.76
27.29
26.75
25.56
24.23
23.12
22.39
21.97
21.64
21.18
20.39
19.13
17.4
15.34
13.16
11.07
9.21
7.53
5.86
3.98
1.74
-0.9
-3.88
-7.06
-10.31
-13.51
-16.6
-19.59
-22.58
-25.75
-29.23
-33.0
-36.7
-39.68
-41.13
-40.34
-37.0
-31.34
-24.05
-16.06
-8.24
-1.18
4.91
10.06
14.39
17.96
20.71
22.6
23.62
23.92
23.77
23.46
23.18
23.01
22.88
22.66
22.32
21.87
21.42
21.04
20.7
20.23
19.38
17.93
15.77
13.01
9.88
6.71
3.71
0.99
-1.5
-3.84
-6.11
-8.36
-10.62
-13.01
-15.72
-18.94
-22.77
-27.03
-31.26
-34.73
-36.67
-36.54
-34.13
-29.69
-23.77
-17.07
-10.3
-3.97
1.56
6.14
9.75
12.5
14.5
15.87
16.69
17.0
16.85
16.37
15.72
15.09
14.56
14.12
13.63
12.93
11.89
10.5
8.82
6.96
5.02
3.07
1.14
-0.81
-2.89
-5.25
-8.01
-11.13
-14.35
-17.17
-19.16
-20.19
-20.69
-21.58
-23.94
-28.47
-35.1
-42.83
-49.98
-54.64
-55.19
-50.8
-41.63
-28.78
-13.96
0.97
14.39
25.2
32.73
36.76
37.39
35.09
30.69
25.16
19.29
13.53
8.01
3.01
-0.63
-1.57
1.45
8.63
18.44
27.88
33.62
33.43
27.3
17.41
7.08
-0.68
-4.38
-4.48
-2.79
-1.5
-2.07
-4.75
-8.67
-12.54
-15.49
-17.62
-19.89
-23.39
-28.44
-34.02
-38.09
-38.57
-34.51
-26.76
-17.77
-10.25
-5.84
-4.26
-3.48
-1.08
4.34
12.24
20.42
26.31
28.39
27.04
24.02
21.36
20.04
19.66
19.06
17.49
15.36
14.19
15.48
19.53
24.87
28.78
28.66
23.53
14.63
4.85
-2.65
-5.99
-5.24
-2.13
1.05
2.73
2.65
1.57
0.44
-0.46
-1.78
-4.54
-9.25
-15.23
-20.65
-23.33
-21.8
-16.02
-7.37
2.13
10.73
17.64
23.04
27.49
31.28
34.02
34.81
32.79
27.87
21.02
14.21
9.71
9.29
13.44
21.13
30.13
37.75
41.82
41.29
36.44
28.47
18.99
9.42
0.63
-7.06
-13.68
-19.36
-24.08
-27.61
-29.54
-29.54
-27.62
-24.39
-21.06
-19.08
-19.61
-22.94
-28.32
-34.14
-38.58
-40.23
-38.54
-33.82
-26.99
-19.08
-10.93
-3.03
4.4
11.19
17.07
21.72
24.84
26.4
26.62
25.94
24.8
23.47
22.04
20.56
19.22
18.4
18.55
19.98
22.52
25.6
28.33
29.87
29.65
27.45
23.41
17.98
11.86
5.97
1.19
-2.03
-3.89
-5.33
-7.57
-11.52
-17.26
-24.0
-30.42
-35.36
-38.24
-39.12
-38.46
-36.7
-34.07
-30.61
-26.25
-21.12
-15.64
-10.58
-6.92
-5.65
-7.42
-12.21
-19.27
-27.33
-35.14
-41.83
-46.97
-50.3
-51.26
-49.03
-42.82
-32.58
-19.47
-5.72
6.08
13.86
16.66
14.48
7.8
-2.75
-16.45
-32.04
-47.48
-60.09
-67.35
-67.92
-62.2
-52.22
-40.75
-30.25
-21.99
-15.87
-10.95
-6.14
-0.71
5.44
11.96
18.3
23.93
28.41
31.43
32.67
31.92
29.12
24.5
18.65
12.34
6.41
1.4
-2.53
-5.66
-8.52
-11.68
-15.45
-19.65
-23.67
-26.59
-27.57
-26.24
-22.88
-18.3
-13.56
-9.43
-6.08
-3.11
0.2
4.4
9.59
15.22
20.26
23.46
23.77
20.68
14.46
6.19
-2.48
-9.75
-14.25
-15.42
-13.55
-9.62
-4.75
0.13
4.55
8.44
11.9
14.92
17.33
18.89
19.44
19.17
18.51
18.11
18.45
19.71
21.63
23.57
24.78
24.71
23.24
20.8
18.17
16.17
15.33
15.68
16.86
18.34
19.7
20.85
21.91
23.04
24.13
24.82
24.59
22.98
19.81
15.21
9.57
3.44
-2.54
-7.66
-11.22
-12.62
-11.47
-7.75
-1.82
5.64
13.85
22.0
29.4
35.48
39.72
41.61
40.77
37.12
31.01
23.34
15.36
8.26
2.74
-1.25
-4.51
-8.15
-13.03
-19.35
-26.47
-33.16
-38.07
-40.36
-39.93
-37.48
-34.11
-30.87
-28.39
-26.78
-25.81
-25.3
-25.37
-26.49
-29.21
-33.8
-40.05
-47.21
-54.12
-59.54
-62.29
-61.49
-56.77
-48.46
-37.57
-25.6
-14.11
-4.18
3.86
10.34
15.88
20.93
25.49
29.21
31.71
32.79
32.57
31.37
29.49
27.18
24.64
22.1
19.81
17.95
16.51
15.24
13.71
11.56
8.64
5.05
1.16
-2.65
-6.01
-8.72
-10.6
-11.63
-11.77
-11.08
-9.72
-7.96
-6.08
-4.27
-2.49
-0.38
2.54
6.76
12.43
19.21
26.39
33.02
38.36
42.04
44.19
45.22
45.59
45.56
45.12
44.11
42.42
40.11
37.49
34.99
32.99
31.66
30.94
30.57
30.22
29.6
28.53
26.86
24.58
21.74
18.46
14.98
11.53
8.33
5.48
2.91
0.44
-2.15
-4.94
-7.77
-10.17
-11.43
-10.83
-7.86
-2.46
4.91
13.47
22.34
30.83
38.56
45.39
51.21
55.82
58.84
59.89
58.73
55.41
50.19
43.43
35.5
26.79
17.71
8.71
0.11
-7.9
-15.29
-22.06
-28.02
-32.7
-35.52
-36.22
-35.16
-33.47
-32.78
-34.63
-39.89
-48.41
-59.07
-70.13
-79.69
-86.08
-88.08
-85.12
-77.32
-65.58
-51.34
-36.34
-22.23
-10.2
-0.82
5.87
10.2
12.58
13.35
12.74
10.94
8.17
4.84
1.46
-1.42
-3.31
-3.96
-3.41
-2.02
-0.33
1.09
1.81
1.63
0.57
-1.18
-3.36
-5.67
-7.83
-9.59
-10.82
-11.6
-12.2
-12.94
-13.96
-15.06
-15.56
-14.54
-11.16
-5.04
3.48
13.26
22.62
29.73
33.14
32.14
27.04
18.98
9.62
0.54
-7.23
-13.38
-18.14
-21.99
-25.22
-27.86
-29.76
-30.87
-31.38
-31.72
-32.27
-33.21
-34.38
-35.41
-35.95
-35.85
-35.23
-34.31
-33.34
-32.45
-31.68
-31.07
-30.75
-30.85
-31.35
-31.92
-31.86
-30.35
-26.8
-21.1
-13.76
-5.7
2.13
9.04
14.76
19.3
22.8
25.37
26.99
27.7
27.62
26.99
26.14
25.3
24.57
23.93
23.27
22.51
21.61
20.59
19.49
18.32
17.0
15.44
13.5
11.11
8.28
5.13
1.89
-1.2
-3.98
-6.5
-9.03
-12.02
-15.86
-20.62
-25.84
-30.58
-33.66
-34.06
-31.36
-25.9
-18.59
-10.6
-2.94
3.8
9.47
14.1
17.81
20.54
22.24
22.88
22.66
21.94
21.14
20.58
20.33
20.28
20.18
19.83
19.18
18.37
17.63
17.17
17.02
17.0
16.77
15.96
14.4
12.13
9.44
6.68
4.15
1.88
-0.3
-2.65
-5.47
-8.94
-13.22
-18.31
-24.08
-30.05
-35.4
-39.07
-40.02
-37.74
-32.42
-24.98
-16.76
-9.0
-2.41
2.94
7.43
11.53
15.41
18.85
21.35
22.48
22.08
20.48
18.3
16.21
14.66
13.74
13.21
12.71
11.98
11.02
10.0
9.18
8.58
7.95
6.75
4.44
0.78
-3.91
-8.85
-13.11
-16.07
-17.76
-18.8
-20.09
-22.33
-25.82
-30.38
-35.59
-41.07
-46.45
-51.3
-54.91
-56.34
-54.59
-49.07
-39.97
-28.38
-16.06
-4.87
3.82
9.44
12.32
13.38
13.69
14.09
15.0
16.44
18.27
20.38
22.75
25.44
28.51
31.89
35.33
38.46
40.87
42.16
42.07
40.46
37.35
32.97
27.69
22.15
17.1
13.36
11.64
12.4
15.59
20.57
26.16
30.9
33.53
33.49
31.04
27.17
23.03
19.42
16.5
13.9
11.19
8.32
5.79
4.46
5.09
7.91
12.51
17.96
23.17
27.25
29.68
30.41
29.72
28.05
25.74
22.92
19.46
15.22
10.27
5.06
0.37
-2.94
-4.39
-4.02
-2.47
-0.63
0.79
1.44
1.47
1.25
1.04
0.85
0.4
-0.73
-2.88
-6.23
-10.78
-16.49
-23.26
-30.79
-38.53
-45.55
-50.7
-52.95
-51.78
-47.35
-40.5
-32.41
-24.22
-16.71
-10.27
-4.96
-0.73
2.54
4.98
6.77
8.15
9.31
10.32
11.07
11.26
10.51
8.6
5.54
1.67
-2.43
-6.14
-9.01
-10.83
-11.68
-11.77
-11.36
-10.65
-9.77
-8.84
-7.97
-7.24
-6.69
-6.35
-6.27
-6.58
-7.53
-9.31
-11.87
-14.76
-17.14
-17.99
-16.52
-12.48
-6.19
1.57
9.89
18.0
25.42
31.82
36.91
40.19
41.13
39.22
34.36
26.96
17.95
8.56
-0.01
-6.83
-11.46
-13.92
-14.6
-14.1
-13.04
-12.05
-11.62
-12.08
-13.56
-15.93
-18.86
-21.87
-24.52
-26.54
-27.86
-28.63
-29.14
-29.7
-30.53
-31.63
-32.81
-33.61
-33.52
-32.02
-28.88
-24.21
-18.44
-12.26
-6.33
-1.13
3.03
6.05
7.93
8.69
8.59
8.1
7.95
8.88
11.29
14.97
19.03
22.24
23.51
22.45
19.61
16.28
13.92
13.44
14.7
16.55
17.35
15.71
11.25
4.91
-1.44
-5.4
-4.82
1.76
14.74
33.37
55.49
77.74
96.22
107.94
112.5
112.88
114.52
122.84
140.18
164.0
187.51
202.45
202.56
185.79
154.36
113.03
67.02
20.71
-22.39
-59.28
-87.42
-105.41
-113.86
-115.65
-114.97
-115.67
-119.86
-127.39
-136.4
-144.41
-149.35
-150.04
-146.26
-138.61
-128.33
-117.14
-106.75
-98.36
-92.32
-88.08
-84.54
-80.76
-76.41
-71.79
-67.43
-63.58
-59.83
-55.23
-48.65
-39.22
-26.6
-11.01
6.83
25.79
44.32
60.66
73.09
80.36
82.15
79.23
73.24
66.18
59.79
55.02
51.87
49.56
46.99
43.16
37.55
30.22
21.72
12.83
4.24
-3.61
-10.66
-17.15
-23.51
-30.09
-37.03
-44.16
-51.01
-56.93
-61.21
-63.25
-62.66
-59.37
-53.7
-46.3
-38.07
-29.98
-22.78
-16.89
-12.36
-8.96
-6.41
-4.51
-3.18
-2.39
-2.09
-2.09
-2.16
-2.02
-1.56
-0.8
-0.01
0.5
0.45
-0.28
-1.56
-3.07
-4.41
-5.28
-5.59
-5.54
-5.51
-5.99
-7.32
-9.78
-13.39
-18.03
-23.29
-28.54
-32.86
-35.21
-34.81
-31.29
-25.06
-17.06
-8.57
-0.74
5.75
10.81
14.74
17.92
20.67
23.04
24.99
26.47
27.57
28.48
29.39
30.44
31.57
32.64
33.46
33.83
33.63
32.79
31.3
29.17
26.47
23.32
19.91
16.42
13.03
9.83
6.78
3.71
0.29
-3.82
-8.81
-14.59
-20.64
-26.03
-29.7
-30.72
-28.63
-23.61
-16.47
-8.36
-0.4
6.63
12.44
17.12
20.93
24.05
26.49
28.13
28.89
28.86
28.33
27.65
27.11
26.77
26.53
26.22
25.69
24.95
24.15
23.42
22.8
22.11
21.1
19.46
17.04
13.93
10.44
6.98
3.92
1.39
-0.73
-2.79
-5.24
-8.51
-12.78
-17.93
-23.48
-28.64
-32.44
-34.0
-32.78
-28.72
-22.31
-14.43
-6.07
1.87
8.79
14.43
18.74
21.77
23.62
24.4
24.29
23.6
22.69
21.93
21.52
21.47
21.59
21.63
21.41
20.9
20.18
19.4
18.63
17.85
16.92
15.68
13.93
11.61
8.76
5.54
2.21
-1.02
-4.0
-6.82
-9.71
-13.02
-17.01
-21.74
-26.88
-31.8
-35.6
-37.43
-36.68
-33.21
-27.37
-19.91
-11.77
-3.78
3.46
9.61
14.51
18.1
20.35
21.32
21.21
20.37
19.29
18.44
18.14
18.48
19.3
20.34
21.31
21.99
22.25
22.09
21.6
20.83
19.82
18.52
16.8
14.53
11.6
8.08
4.17
0.23
-3.45
-6.69
-9.52
-12.12
-14.82
-17.96
-21.78
-26.35
-31.43
-36.47
-40.62
-42.94
-42.63
-39.34
-33.27
-25.15
-16.05
-7.05
1.03
7.72
12.92
16.73
19.34
20.95
21.74
21.88
21.54
20.99
20.49
20.31
20.57
21.28
22.24
23.19
23.79
23.82
23.16
21.84
20.01
17.84
15.48
13.02
10.46
7.77
4.91
1.86
-1.32
-4.52
-7.56
-10.32
-12.71
-14.77
-16.62
-18.54
-20.78
-23.58
-26.96
-30.69
-34.2
-36.66
-37.2
-35.12
-30.2
-22.81
-13.84
-4.47
4.19
11.33
16.62
20.15
22.25
23.27
23.46
22.98
21.93
20.5
18.93
17.55
16.65
16.35
16.62
17.23
17.88
18.29
18.27
17.74
16.72
15.26
13.47
11.39
9.08
6.62
4.05
1.46
-1.04
-3.38
-5.49
-7.39
-9.14
-10.88
-12.74
-14.81
-17.2
-19.98
-23.22
-26.88
-30.73
-34.26
-36.79
-37.5
-35.83
-31.58
-25.07
-17.03
-8.41
-0.15
7.04
12.68
16.62
18.93
19.86
19.82
19.21
18.4
17.63
17.06
16.72
16.63
16.83
17.33
18.03
18.76
19.27
19.29
18.7
17.51
15.87
13.98
11.95
9.82
7.52
5.03
2.35
-0.39
-3.04
-5.45
-7.56
-9.39
-11.02
-12.53
-14.04
-15.71
-17.77
-20.56
-24.32
-29.16
-34.75
-40.28
-44.57
-46.38
-44.79
-39.62
-31.42
-21.39
-10.93
-1.33
6.49
12.04
15.19
16.1
15.15
12.89
10.0
7.19
5.1
4.19
4.68
6.56
9.59
13.26
16.91
19.85
21.5
21.57
20.18
17.72
14.72
11.67
8.91
6.57
4.72
3.35
2.44
1.88
1.47
0.9
-0.12
-1.83
-4.29
-7.36
-10.85
-14.53
-18.26
-22.01
-25.76
-29.41
-32.64
-34.88
-35.43
