-10.32
-10.73
-13.09
-17.45
-23.09
-28.71
-32.8
-34.19
-32.38
-27.67
-21.0
-13.59
-6.52
-0.48
4.27
7.83
10.41
12.22
13.44
14.28
15.0
15.96
17.39
19.25
21.25
22.94
24.05
24.6
24.95
25.51
26.48
27.65
28.55
28.67
27.74
25.82
23.23
20.29
17.25
14.17
11.07
7.93
4.77
1.58
-1.69
-5.12
-8.73
-12.45
-16.15
-19.72
-23.21
-26.83
-30.9
-35.54
-40.53
-45.17
-48.51
-49.56
-47.71
-42.95
-35.82
-27.3
-18.44
-10.17
-3.15
2.3
6.15
8.57
9.87
10.46
10.73
11.01
11.49
12.22
13.16
14.18
15.19
16.08
16.82
17.35
17.62
17.58
17.18
16.5
15.64
14.78
14.01
13.29
12.32
10.7
8.09
4.45
0.11
-4.28
-8.1
-11.0
-13.1
-14.85
-16.72
-19.03
-21.87
-25.14
-28.77
-32.73
-36.85
-40.67
-43.36
-43.91
-41.5
-35.93
-27.71
-17.99
-8.1
0.8
8.02
13.38
17.08
19.53
21.14
22.25
23.04
23.58
23.89
24.02
24.04
24.09
24.24
24.5
24.74
24.8
24.57
24.04
23.31
22.51
21.69
20.74
19.44
17.52
14.86
11.55
7.94
4.53
1.77
-0.18
-1.45
-2.54
-4.04
-6.48
-10.1
-14.73
-19.75
-24.19
-27.02
-27.35
-24.84
-19.77
-13.06
-6.05
-0.04
4.11
6.17
6.58
6.15
5.77
6.06
7.2
8.87
10.44
11.29
11.1
10.14
9.2
9.46
11.98
17.31
25.13
34.29
43.06
49.73
53.11
52.94
49.89
45.25
40.41
36.36
33.43
31.23
28.86
25.21
19.37
10.91
0.03
-12.48
-25.4
-37.54
-48.0
-56.46
-63.09
-68.26
-72.18
-74.72
-75.48
-74.0
-70.15
-64.15
-56.52
-47.92
-38.92
-29.95
-21.29
-13.23
-6.08
-0.13
4.38
7.44
9.23
10.21
10.88
11.7
12.93
14.54
16.3
17.89
19.05
19.66
19.76
19.43
18.81
17.97
16.91
15.65
14.18
12.48
10.56
8.41
6.06
3.58
1.1
-1.27
-3.44
-5.4
-7.23
-9.04
-11.01
-13.37
-16.32
-19.98
-24.3
-28.94
-33.32
-36.67
-38.27
-37.64
-34.68
-29.73
-23.46
-16.64
-9.95
-3.86
1.38
5.73
9.17
11.77
13.57
14.66
15.2
15.37
15.4
15.46
15.69
16.15
16.85
17.75
18.67
19.43
19.85
19.81
19.32
18.51
17.5
16.41
15.2
13.81
12.13
10.09
7.69
4.96
1.97
-1.21
-4.44
-7.61
-10.65
-13.57
-16.5
-19.63
-23.17
-27.16
-31.44
-35.56
-38.9
-40.79
-40.64
-38.17
-33.43
-26.88
-19.23
-11.33
-3.94
2.4
7.41
11.08
13.55
15.06
15.85
16.18
16.24
16.22
16.27
16.49
16.89
17.4
17.9
18.26
18.38
18.21
17.72
16.94
15.84
14.42
12.62
10.47
7.99
5.29
2.5
-0.25
-2.91
-5.47
-7.98
-10.53
-13.25
-16.32
-19.89
-24.07
-28.72
-33.42
-37.49
-40.04
-40.35
-38.05
-33.33
-26.88
-19.64
-12.57
-6.35
-1.29
2.61
5.53
7.69
9.19
10.08
10.4
10.24
9.87
9.73
10.29
11.94
14.77
18.54
22.67
26.52
29.49
31.26
31.73
30.94
28.96
25.88
21.86
17.16
12.21
7.47
3.29
-0.2
-3.15
-5.88
-8.74
-12.0
-15.79
-20.14
-24.99
-30.16
-35.32
-39.94
-43.33
-44.76
-43.73
-40.08
-34.17
-26.77
-18.85
-11.31
-4.78
0.54
4.72
8.01
10.6
12.62
14.15
15.23
15.99
16.6
17.22
17.91
18.62
19.23
19.61
19.73
19.61
19.34
18.94
18.34
17.4
15.98
13.99
11.42
8.43
5.23
2.03
-1.02
-3.85
-6.47
-8.93
-11.34
-13.86
-16.7
-20.12
-24.23
-28.94
-33.75
-37.86
-40.36
-40.52
-38.06
-33.2
-26.64
-19.22
-11.78
-4.91
1.06
6.02
10.07
13.31
15.87
17.78
19.04
19.7
19.9
19.95
20.14
20.66
21.48
22.38
23.05
23.33
23.2
22.8
22.26
21.62
20.75
19.47
17.61
15.07
11.97
8.47
4.82
1.27
-1.95
-4.72
-7.05
-9.12
-11.3
-13.96
-17.39
-21.67
-26.53
-31.46
-35.7
-38.47
-39.15
-37.44
-33.46
-27.69
-20.89
-13.86
-7.29
-1.54
3.28
7.27
10.55
13.17
15.08
16.25
16.78
16.9
16.98
17.28
17.93
18.83
19.74
20.42
20.8
20.95
21.0
21.02
20.9
20.38
19.14
16.96
13.86
10.12
6.15
2.34
-1.09
-4.16
-7.1
-10.22
-13.8
-18.0
-22.81
-28.01
-33.08
-37.3
-39.85
-40.06
-37.62
-32.72
-26.0
-18.34
-10.63
-3.5
2.67
7.76
11.78
14.8
16.91
18.25
19.04
19.58
20.13
20.85
21.73
22.61
23.3
23.66
23.67
23.42
23.0
22.48
21.81
20.88
19.59
17.85
15.62
12.89
9.64
5.9
1.77
-2.56
-6.92
-11.21
-15.51
-20.0
-24.88
-30.15
-35.56
-40.56
-44.47
-46.63
-46.58
-44.18
-39.59
-33.24
-25.72
-17.66
-9.65
-2.14
4.53
10.11
14.46
17.48
19.19
19.79
19.62
19.16
18.83
18.94
19.62
20.75
22.06
23.24
24.02
24.23
23.81
22.8
21.24
19.14
16.49
13.32
9.73
5.95
2.34
-0.84
-3.49
-5.82
-8.25
-11.27
-15.27
-20.37
-26.41
-32.96
-39.42
-45.03
-48.99
-50.57
-49.31
-45.23
-38.78
-30.8
-22.2
-13.75
-5.91
1.09
7.17
12.2
16.09
18.74
20.26
20.96
21.3
21.71
22.45
23.52
24.72
25.76
26.41
26.58
26.29
25.67
24.86
23.94
22.9
21.62
19.94
17.72
14.88
11.48
7.68
3.71
-0.2
-3.93
-7.52
-11.13
-15.04
-19.49
-24.57
-30.13
-35.72
-40.62
-44.04
-45.28
-43.99
-40.15
-34.13
-26.55
-18.11
-9.5
-1.29
6.07
12.29
17.21
20.9
23.5
25.31
26.61
27.62
28.46
29.18
29.78
30.28
30.69
30.99
31.1
30.88
30.26
29.28
28.11
27.04
26.3
25.87
25.5
24.74
23.18
20.66
17.3
13.42
9.43
5.57
1.98
-1.38
-4.64
-7.93
-11.41
-15.24
-19.47
-23.99
-28.4
-32.04
-34.12
-33.95
-31.17
-25.88
-18.68
-10.47
-2.26
5.14
11.23
15.94
19.45
22.06
23.98
25.29
25.99
26.19
26.17
26.33
27.0
28.25
29.82
31.24
32.05
32.04
31.3
30.1
28.72
27.28
25.7
23.84
21.55
18.86
15.93
12.94
10.06
7.32
4.65
1.93
-1.04
-4.4
-8.26
-12.63
-17.34
-22.03
-26.14
-29.02
-30.13
-29.16
-26.2
-21.74
-16.56
-11.45
-7.14
-3.99
-2.06
-1.17
-1.0
-1.31
-1.91
-2.71
-3.67
-4.69
-5.66
-6.43
-6.86
-6.9
-6.61
-6.12
-5.64
-5.32
-5.23
-5.38
-5.71
-6.25
-7.11
-8.46
-10.5
-13.26
-16.56
-19.99
-23.13
-25.66
-27.57
-29.2
-31.08
-33.7
-37.32
-41.82
-46.65
-50.99
-53.97
-54.83
-53.11
-48.73
-42.03
-33.66
-24.48
-15.36
-6.98
0.29
6.36
11.3
15.21
18.13
20.08
21.12
21.5
21.59
21.79
22.34
23.28
24.33
25.17
25.52
25.27
24.56
23.63
22.65
21.67
20.52
18.9
16.59
13.48
9.67
5.36
0.86
-3.58
-7.77
-11.63
-15.24
-18.77
-22.58
-27.02
-32.33
-38.42
-44.79
-50.52
-54.5
-55.78
-53.82
-48.73
-41.14
-32.06
-22.54
-13.51
-5.57
1.01
6.18
10.06
12.85
14.74
15.94
16.61
16.92
17.0
17.05
17.18
17.48
17.94
18.47
19.03
19.59
20.24
21.06
22.08
23.12
23.9
24.02
23.2
21.39
18.78
15.77
12.75
9.92
7.29
4.67
1.89
-1.14
-4.42
-7.95
-11.93
-16.58
-22.03
-28.04
-33.84
-38.24
-40.03
-38.4
-33.3
-25.46
-16.12
-6.61
2.04
9.27
15.02
19.42
22.67
24.9
26.13
26.44
26.02
25.26
24.57
24.29
24.48
24.92
25.24
25.1
24.43
23.4
22.33
21.48
20.88
20.3
19.36
17.69
15.01
11.25
6.54
1.25
-4.07
-8.71
-11.91
-13.1
-12.05
-9.01
-4.73
-0.32
3.05
4.41
3.43
0.36
-3.98
-8.51
-12.27
-14.66
-15.42
-14.55
-12.1
-8.2
-3.0
3.05
9.26
14.75
18.78
20.93
21.35
20.53
19.24
18.11
17.51
17.5
17.83
18.2
18.32
18.12
17.68
17.19
16.75
16.34
15.72
14.57
12.65
9.92
6.58
2.99
-0.53
-3.76
-6.69
-9.43
-12.26
-15.46
-19.27
-23.8
-28.88
-33.96
-38.25
-40.82
-40.98
-38.44
-33.44
-26.65
-18.93
-11.12
-3.86
2.45
7.64
11.7
14.69
16.66
17.7
17.93
17.56
16.9
16.31
16.06
16.23
16.7
17.21
17.51
17.5
17.19
16.65
15.9
14.79
13.09
10.59
7.26
3.32
-0.86
-4.86
-8.4
-11.47
-14.28
-17.2
-20.58
-24.68
-29.5
-34.72
-39.74
-43.71
-45.71
-45.04
-41.4
-35.09
-26.92
-17.95
-9.25
-1.61
4.57
9.22
12.43
14.41
15.38
15.62
15.46
15.2
15.03
14.97
14.85
14.46
13.67
12.6
11.64
11.27
11.79
13.19
15.02
16.54
17.08
16.22
13.99
10.78
7.08
3.36
-0.22
-3.71
-7.37
-11.47
-16.21
-21.68
-27.76
-34.1
-40.03
-44.69
-47.16
-46.8
-43.4
-37.37
-29.54
-20.96
-12.57
-5.0
1.5
6.91
11.39
15.13
18.26
20.91
23.13
24.94
26.3
27.16
27.54
27.52
27.26
26.89
26.5
26.07
25.54
24.82
23.85
22.52
20.73
18.36
15.29
11.55
7.38
3.08
-1.01
-4.7
-8.07
-11.37
-15.01
-19.38
-24.69
-30.88
-37.53
-43.82
-48.65
-50.89
-49.65
-44.67
-36.4
-25.96
-14.81
-4.31
4.63
11.67
17.0
21.02
24.12
26.51
28.23
29.25
29.64
29.64
29.52
29.49
29.58
29.63
29.4
28.74
27.68
26.42
25.14
23.95
22.78
21.45
19.74
17.5
14.74
11.52
7.97
4.27
0.52
-3.19
-6.86
-10.55
-14.4
-18.57
-23.23
-28.39
-33.91
-39.39
-44.28
-47.86
-49.42
-48.41
-44.54
-37.97
-29.24
-19.3
-9.18
0.17
8.19
14.76
20.09
24.52
28.29
31.41
33.72
35.12
35.69
35.76
35.72
35.92
36.43
37.1
37.65
37.85
37.63
36.99
35.99
34.64
32.91
30.73
28.13
25.21
22.12
18.99
15.9
12.89
9.92
6.93
3.87
0.73
-2.46
-5.68
-8.93
-12.33
-16.07
-20.39
-25.4
-30.88
-36.25
-40.57
-42.86
-42.41
-38.99
-32.96
-25.15
-16.55
-8.08
-0.44
5.97
10.97
14.56
16.83
17.96
18.22
17.95
17.48
17.05
16.81
16.77
16.86
16.93
16.89
16.69
16.32
15.79
15.09
14.17
13.0
11.56
9.86
7.89
5.63
3.03
0.13
-2.99
-6.11
-9.05
-11.69
-14.09
-16.44
-18.95
-21.79
-25.02
-28.61
-32.48
-36.46
-40.18
-43.09
-44.43
-43.57
-40.15
-34.33
-26.76
-18.45
-10.35
-3.14
2.83
7.51
11.05
13.69
15.67
17.24
18.63
20.0
21.45
22.99
24.58
26.2
27.81
29.34
30.7
31.8
32.54
32.88
32.75
31.99
30.25
27.03
21.91
14.74
5.88
-3.9
-13.62
-22.51
-30.17
-36.64
-42.17
-47.01
-51.22
-54.74
-57.55
-59.78
-61.69
-63.48
-65.03
-65.81
-65.02
-61.89
-56.08
-47.83
-37.98
-27.61
-17.72
-8.94
-1.44
4.87
10.18
14.57
18.01
20.4
21.78
22.36
22.52
22.64
23.05
23.83
24.91
26.08
27.14
27.93
28.35
28.36
27.97
27.19
26.06
24.64
22.95
21.01
18.75
16.13
13.13
9.82
6.37
2.97
-0.25
-3.24
-6.13
-9.07
-12.31
-16.0
-20.19
-24.74
-29.27
-33.22
-35.93
-36.79
-35.4
-31.65
-25.74
-18.2
-9.71
-1.04
7.07
14.01
19.44
23.3
25.77
27.23
28.05
28.55
28.93
29.33
29.84
30.5
31.29
32.08
32.65
32.84
32.56
31.86
30.94
29.88
28.67
27.11
24.96
22.02
18.28
13.93
9.29
4.66
0.25
-3.82
-7.54
-10.94
-14.06
-16.98
-19.9
-23.14
-27.07
-31.88
-37.39
-42.94
-47.47
-49.88
-49.39
-45.81
-39.66
-31.85
-23.39
-15.1
-7.46
-0.71
4.96
9.27
11.91
12.66
11.59
9.11
5.94
2.9
0.65
-0.51
-0.7
-0.31
0.13
0.27
0.02
-0.47
-0.99
-1.42
-1.87
-2.57
-3.81
-5.73
-8.25
-11.13
-13.99
-16.51
-18.54
-20.14
-21.61
-23.41
-26.02
-29.75
-34.55
-39.92
-44.99
-48.71
-50.16
-48.78
-44.52
-37.81
-29.47
-20.44
-11.65
-3.79
2.79
7.97
11.78
14.31
15.62
15.77
14.92
13.42
11.81
10.62
10.17
10.38
10.84
11.07
10.69
9.59
8.0
6.28
4.78
3.71
2.97
2.39
1.83
1.18
0.22
-1.22
-3.18
-5.53
-7.92
-10.17
-12.13
-13.79
-15.49
-17.86
-21.49
-26.48
-32.17
-37.26
-40.55
-40.91
-37.73
-31.34
-23.04
-14.79
-8.5
-5.71
-7.26
-13.61
-23.93
-36.1
-47.22
-54.63
-56.69
-53.27
-45.98
-34.45
-21.41
-11.03
-6.53
-8.39
-15.02
-24.1
-33.46
-41.5
-47.12
-50.21
-50.85
-49.21
-45.51
-40.27
-34.42
-27.71
-19.65
-9.65
2.4
16.47
32.07
47.98
61.71
70.24
71.53
65.48
54.58
42.98
35.47
33.57
38.12
47.75
59.67
71.1
80.24
86.59
90.28
91.52
90.25
86.55
80.61
73.12
65.28
58.3
52.89
48.87
45.38
41.35
36.28
30.16
23.64
17.71
13.19
10.32
8.69
7.31
5.15
1.62
-3.42
-9.73
-16.78
-24.06
-31.04
-37.28
-42.32
-45.82
-47.67
-48.3
-48.6
-49.59
-51.94
-55.52
-59.3
-61.68
-61.13
-56.81
-48.93
-38.64
-27.46
-16.72
-7.15
1.1
8.2
14.27
19.22
22.8
24.95
25.87
26.1
26.19
26.47
26.91
27.22
27.07
26.34
25.18
23.87
22.65
21.56
20.45
19.05
17.15
14.64
11.59
8.16
4.56
0.91
-2.72
-6.46
-10.54
-15.19
-20.52
-26.3
-31.94
-36.52
-39.04
-38.73
-35.26
-28.88
-20.29
-10.47
-0.43
9.04
17.36
24.22
29.44
32.99
34.91
35.37
34.68
33.21
31.4
29.63
28.15
27.06
26.35
25.92
25.65
25.42
25.07
24.48
23.46
21.84
19.5
16.42
12.72
8.68
4.65
0.89
-2.5
-5.73
-9.22
-13.45
-18.75
-25.07
-31.85
-38.09
-42.58
-44.18
-42.24
-36.74
-28.36
-18.24
-7.67
2.24
10.74
17.54
22.67
26.37
28.93
30.62
31.7
32.43
33.05
33.64
34.23
34.72
34.94
34.76
34.15
33.19
32.0
30.67
29.17
27.41
25.22
22.46
19.05
15.05
10.64
6.04
1.52
-2.74
-6.72
-10.59
-14.7
-19.4
-24.86
-30.87
-36.78
-41.62
-44.33
-44.13
-40.71
-34.39
-25.92
-16.27
-6.4
2.98
11.4
18.6
24.47
28.98
32.19
34.23
35.32
35.7
35.63
35.3
34.82
34.2
33.41
32.38
31.09
29.62
28.07
26.55
25.03
23.27
20.95
17.79
13.73
8.97
3.97
-0.8
-5.06
-8.81
-12.34
-16.04
-20.3
-25.32
-31.01
-36.97
-42.46
-46.5
-48.12
-46.59
-41.75
-34.05
-24.5
-14.36
-4.75
3.59
10.38
15.69
19.74
22.7
24.69
25.75
25.93
25.38
24.29
22.87
21.35
19.84
18.41
17.01
15.57
13.97
12.12
10.03
7.69
5.15
2.42
-0.53
-3.73
-7.18
-10.84
-14.55
-18.18
-21.68
-25.13
-28.77
-32.84
-37.42
-42.17
-46.41
-49.21
-49.71
-47.41
-42.4
-35.26
-26.92
-18.29
-10.1
-2.75
3.55
8.73
12.71
15.47
17.05
17.63
17.46
16.84
16.03
15.18
14.33
13.43
12.44
11.33
10.1
8.8
7.46
6.05
4.52
2.78
0.71
-1.75
-4.56
-7.62
-10.7
-13.6
-16.27
-18.84
-21.63
-25.0
-29.15
-33.94
-38.79
-42.83
-45.12
-44.95
-42.13
-36.91
-29.98
-22.16
-14.2
-6.67
0.11
5.91
10.64
14.22
16.64
17.99
18.45
18.27
17.73
17.06
16.43
15.92
15.54
15.19
14.75
14.07
13.02
11.5
9.51
7.11
4.39
1.53
-1.35
-4.17
-6.94
-9.76
-12.8
-16.26
-20.23
-24.64
-29.12
-33.04
-35.63
-36.13
-34.1
-29.56
-23.02
-15.29
-7.32
0.16
6.69
12.06
16.26
19.36
21.39
22.45
22.63
22.09
21.05
19.73
18.32
17.02
15.89
14.94
14.09
13.17
11.98
10.39
8.38
6.03
3.51
0.93
-1.67
-4.35
-7.2
-10.31
-13.75
-17.62
-21.98
-26.76
-31.67
-36.15
-39.36
-40.47
-38.93
-34.62
-28.01
-19.93
-11.3
-2.91
4.75
11.37
16.87
21.19
24.36
26.41
27.5
27.81
27.6
27.1
26.46
25.74
24.9
23.9
22.78
21.67
20.7
19.96
19.27
18.3
16.64
14.07
10.66
6.83
3.11
-0.1
-2.69
-4.91
-7.18
-9.92
-13.39
-17.62
-22.43
-27.44
-32.07
-35.6
-37.29
-36.57
-33.2
-27.45
-19.99
-11.67
-3.29
4.65
11.92
18.52
24.45
29.64
33.86
36.87
38.56
39.02
38.55
37.55
36.38
35.23
34.05
32.64
30.77
28.26
25.07
21.27
16.94
12.13
6.86
1.09
-5.23
-12.19
-19.86
-28.32
-37.55
-47.37
-57.41
-67.19
-76.23
-84.07
-90.36
-94.79
-97.03
-96.76
-93.68
-87.6
-78.55
-66.87
-53.17
-38.28
-23.08
-8.44
4.89
16.21
24.87
30.43
32.8
32.49
30.67
28.93
28.92
31.72
37.56
45.82
55.35
64.97
73.71
80.73
85.01
85.28
80.33
69.84
55.06
38.98
25.48
17.98
17.99
24.6
35.05
46.01
55.05
61.12
64.41
65.44
64.47
61.27
55.56
47.51
38.01
28.44
20.16
13.9
9.61
6.53
3.64
0.06
-4.57
-10.07
-15.91
-21.48
-26.35
-30.38
-33.51
-35.62
-36.36
-35.31
-32.21
-27.18
-20.77
-13.7
-6.61
0.08
6.09
11.0
14.12
14.72
12.5
7.93
2.39
-2.38
-4.96
-4.87
-2.58
0.86
4.5
7.88
11.02
13.97
16.51
18.09
18.17
16.69
14.28
12.01
10.86
11.17
12.52
13.94
14.39
13.24
10.36
6.06
0.85
-4.76
-10.34
-15.5
-19.9
-23.42
-26.21
-28.72
-31.55
-35.12
-39.36
-43.63
-46.92
-48.22
-46.95
-43.11
-37.24
-30.06
-22.21
-14.08
-5.92
1.96
9.1
14.91
18.89
20.81
20.84
19.41
17.08
14.38
11.81
9.81
8.77
8.97
10.44
12.93
15.93
18.86
21.17
22.47
22.55
21.36
18.96
15.55
11.42
6.96
2.52
-1.64
-5.48
-9.08
-12.59
-16.12
-19.68
-23.21
-26.66
-30.08
-33.68
-37.74
-42.58
-48.39
-55.05
-62.03
-68.43
-73.13
-75.08
-73.66
-68.83
-61.2
-51.76
-41.6
-31.55
-22.09
-13.33
-5.18
2.41
9.35
15.44
20.39
24.03
26.38
27.62
28.15
28.33
28.45
28.66
28.95
29.3
29.67
30.1
30.6
31.14
31.54
31.56
30.93
29.5
27.28
24.45
21.32
18.15
15.12
12.24
9.35
6.19
2.53
-1.74
-6.55
-11.67
-16.83
-21.79
-26.51
-31.07
-35.7
-40.64
-46.11
-52.2
-58.75
-65.22
-70.71
-74.1
-74.4
-71.14
-64.62
-55.81
-46.01
-36.29
-27.25
-18.91
-11.03
-3.38
3.99
10.77
16.54
21.03
24.24
26.37
27.73
28.57
28.99
28.97
28.46
27.49
26.21
24.79
23.36
21.9
20.24
18.09
15.14
11.14
6.11
0.3
-5.62
-10.77
-14.19
-15.23
-13.82
-10.52
-6.4
-2.62
-0.03
1.02
0.7
-0.54
-2.34
-4.57
-7.39
-11.18
-16.34
-23.17
-31.69
-41.57
-51.99
-61.69
-69.11
-72.87
-72.28
-67.83
-61.29
-55.08
-51.29
-50.51
-51.37
-51.13
-46.85
-36.83
-21.25
-2.03
18.21
37.11
53.04
64.99
72.28
74.51
72.0
66.3
60.15
56.56
57.46
62.74
70.16
76.61
79.61
78.42
74.0
68.0
61.58
54.77
46.94
37.73
27.88
19.21
13.75
12.68
15.75
21.62
28.71
36.12
43.95
52.77
62.88
73.73
83.96
92.1
97.36
99.99
101.04
101.62
102.2
102.42
101.4
98.53
93.89
88.42
83.4
79.86
78.11
77.68
77.65
77.07
75.34
72.33
68.24
63.43
58.23
52.85
47.33
41.54
35.23
28.14
20.14
11.32
2.08
-6.95
-14.93
-20.92
-24.24
-24.83
-23.67
-22.8
-24.91
-32.44
-46.61
-66.93
-91.5
-117.95
-144.24
-169.03
-191.26
-209.51
-221.78
-226.16
-221.98
-210.83
-196.5
-183.85
-176.98
-177.75
-185.34
-197.07
-209.73
-220.81
-228.96
-233.69
-234.79
-232.03
-225.12
-213.97
-198.85
-180.19
-158.42
-133.68
-105.97
-75.67
-44.0
-13.14
14.16
35.46
49.36
55.89
56.24
52.18
45.48
37.68
30.15
24.19
21.03
21.49
25.62
32.6
40.92
49.02
55.78
60.94
64.99
68.72
72.64
76.72
80.38
82.84
83.49
82.21
79.3
75.25
70.52
65.3
59.52
52.98
45.47
37.01
27.93
18.93
11.04
5.34
2.69
3.37
6.93
12.34
18.3
23.69
27.86
30.72
32.58
33.91
35.07
36.19
37.21
37.98
38.42
38.57
38.58
38.62
38.83
39.21
39.69
40.13
40.4
40.38
40.02
39.25
38.01
36.24
33.93
31.07
27.72
23.9
19.68
15.13
10.37
5.57
0.93
-3.36
-7.23
-10.75
-14.14
-17.77
-22.07
-27.4
-33.96
-41.59
-49.67
-57.1
-62.56
-64.8
-63.04
-57.27
-48.21
-37.16
-25.49
-14.39
-4.52
3.93
11.14
17.39
22.87
27.61
31.5
34.38
36.19
37.02
37.08
36.69
36.09
35.47
34.94
34.56
34.38
34.42
34.62
34.82
34.72
34.02
32.45
29.92
26.61
22.84
18.99
15.29
11.68
7.81
3.28
-2.23
-8.69
-15.76
-22.91
-29.69
-35.93
-41.87
-48.01
-54.99
-63.34
-73.22
-84.24
-95.47
-105.47
-112.63
-115.59
-113.64
-106.99
-96.8
-84.8
-72.81
-62.32
-54.09
-48.22
-44.32
-41.86
-40.46
-40.05
-40.75
-42.74
-45.97
-50.09
-54.52
-58.63
-62.02
-64.61
-66.5
-67.72
-67.91
-66.29
-61.9
-54.14
-43.12
-29.82
-15.8
-2.7
8.22
16.32
21.59
24.66
26.71
29.35
34.15
42.13
53.12
65.62
77.08
84.71
86.33
81.03
69.59
54.29
38.48
25.66
18.58
18.38
24.34
34.22
45.25
55.08
62.38
66.78
68.5
67.88
65.44
62.12
59.35
58.67
61.08
66.32
72.93
78.94
82.81
84.14
83.84
83.47
84.41
87.22
91.44
95.93
99.4
100.98
100.4
97.96
94.28
90.11
86.09
82.65
79.91
77.72
75.64
73.12
69.62
64.8
58.51
50.75
41.61
31.21
19.83
8.03
-3.38
-13.57
-21.99
-28.58
-33.72
-37.88
-41.16
-43.09
-42.86
-39.76
-33.75
-25.63
-16.81
-8.77
-2.48
1.88
4.77
7.01
9.29
11.93
14.92
18.03
21.02
23.72
26.04
27.92
29.3
30.12
30.36
30.09
29.48
28.78
28.3
28.29
28.92
30.16
31.73
33.14
33.83
33.37
31.64
28.88
25.6
22.41
19.69
17.57
15.81
14.01
11.76
8.81
5.22
1.42
-1.86
-3.68
-3.23
-0.18
5.11
11.41
16.97
20.05
19.58
15.63
9.4
2.78
-2.34
-4.7
-3.92
-0.3
5.59
13.28
22.55
33.2
44.82
56.59
67.53
76.82
84.23
90.18
95.53
101.03
106.9
112.75
117.98
122.11
125.16
127.3
128.34
127.33
122.55
111.98
93.98
68.02
35.05
-2.43
-40.81
-76.09
-104.72
-124.49
-134.9
-136.98
-132.75
-124.71
-115.44
-107.56
-103.44
-104.64
-111.04
-120.31
-128.36
-130.82
-125.05
-111.38
-93.09
-74.91
-60.86
-52.81
-50.4
-52.25
-57.22
-64.92
-75.17
-87.21
-99.28
-109.15
-115.11
-116.68
-114.54
-109.86
-103.33
-94.88
-83.98
-70.43
-54.75
-38.12
-21.75
-6.44
7.5
19.62
28.85
33.37
31.14
20.81
2.37
-22.28
-49.54
-74.93
-94.18
-104.54
-105.56
-99.15
-88.64
-77.4
-67.61
-59.7
-52.81
-45.75
-37.95
-29.71
-21.87
-15.07
-9.33
-4.02
1.65
8.09
15.04
21.72
27.22
31.02
33.19
34.32
35.2
36.49
38.36
40.56
42.57
43.88
44.21
43.66
42.56
41.32
40.23
39.33
38.46
37.33
35.68
33.35
30.22
26.3
21.62
16.32
10.61
4.84
-0.62
-5.44
-9.41
-12.54
-15.05
-17.3
-19.7
-22.51
-25.71
-28.95
-31.54
-32.64
-31.56
-27.95
-21.99
-14.31
-5.83
2.54
10.11
16.46
21.39
24.84
26.82
27.47
27.12
26.27
25.52
25.43
26.31
28.24
30.98
34.08
36.92
38.81
39.09
37.37
33.69
28.54
22.82
17.48
13.23
10.27
8.37
7.01
5.67
4.08
2.15
0.01
-2.23
-4.5
-6.78
-9.06
-11.34
-13.64
-16.13
-19.11
-23.01
-28.23
-34.86
-42.57
-50.56
-57.61
-62.43
-64.02
-61.92
-56.4
-48.32
-38.85
-29.14
-20.0
-11.88
-4.89
1.06
6.15
10.61
14.71
18.68
22.71
26.82
30.9
34.72
38.05
40.71
42.57
43.51
43.4
42.19
39.91
36.76
33.09
29.3
25.71
22.48
19.62
17.01
14.46
11.79
8.86
5.58
1.96
-1.9
-5.84
-9.66
-13.23
-16.45
-19.37
-22.09
-24.87
-27.97
-31.64
-35.96
-40.75
-45.49
-49.38
-51.49
-51.1
-47.87
-42.06
-34.38
-25.85
-17.49
-10.09
-4.08
0.48
3.74
5.96
7.4
8.28
8.77
9.0
9.05
8.98
8.85
8.71
8.62
8.63
8.73
8.85
8.91
8.85
8.64
8.31
7.9
7.42
6.83
6.05
4.99
3.54
1.72
-0.44
-2.88
-5.51
-8.22
-10.9
-13.36
-15.48
-17.24
-18.76
-20.34
-22.35
-25.13
-28.83
-33.27
-37.94
-42.01
-44.55
-44.74
-42.13
-36.77
-29.25
-20.48
-11.48
-3.11
4.14
10.08
14.72
18.17
20.57
22.07
22.86
23.18
23.22
23.11
22.89
22.57
22.12
21.61
21.09
20.63
20.24
19.86
19.41
18.83
18.04
16.97
15.47
13.36
10.53
7.01
3.01
-1.08
-4.85
-8.02
-10.58
-12.79
-15.1
-17.96
-21.73
-26.49
-32.02
-37.76
-42.87
-46.38
-47.38
-45.29
-40.1
-32.39
-23.19
-13.68
-4.89
2.59
8.63
13.4
17.22
20.32
22.8
24.61
25.77
26.35
26.55
26.62
26.78
27.1
27.51
27.84
27.86
27.44
26.53
25.21
23.64
21.99
20.41
18.9
17.4
15.67
13.49
10.66
7.14
3.09
-1.18
-5.33
-9.1
-12.44
-15.48
-18.51
-21.9
-25.95
-30.81
-36.33
-41.97
-46.88
-50.0
-50.37
-47.45
-41.3
-32.63
-22.58
-12.36
-2.97
5.03
11.49
16.57
20.47
23.4
25.49
26.81
27.45
27.55
27.27
26.78
26.24
25.7
25.19
24.7
24.22
23.73
23.21
22.6
21.77
20.56
18.85
16.59
13.89
10.92
7.98
5.2
2.6
0.01
-2.73
-5.75
-8.95
-12.12
-15.06
-17.72
-20.3
-23.18
-26.76
-31.33
-36.83
-42.82
-48.44
-52.61
-54.25
-52.64
-47.61
-39.69
-29.92
-19.52
-9.52
-0.59
7.04
13.4
18.62
22.79
26.01
28.36
30.02
31.2
32.1
32.83
33.42
33.84
34.05
34.02
33.78
33.39
32.92
32.43
31.95
31.4
30.68
29.58
27.99
25.88
23.37
20.67
17.96
15.33
12.7
9.91
6.81
3.38
-0.28
-3.99
-7.58
-10.93
-14.06
