-56.82
-59.72
-60.1
-57.33
-51.45
-43.04
-33.09
-22.54
-12.02
-1.64
8.82
19.63
30.77
41.59
50.88
57.16
59.18
56.49
49.64
40.11
29.85
20.62
13.56
9.03
6.81
6.36
7.1
8.55
10.28
11.96
13.29
14.06
14.15
13.52
12.22
10.36
8.16
5.94
3.99
2.49
1.31
0.09
-1.66
-4.36
-8.18
-13.01
-18.51
-24.16
-29.31
-33.22
-35.15
-34.55
-31.23
-25.45
-17.95
-9.69
-1.56
5.74
11.83
16.54
19.89
22.03
23.19
23.77
24.16
24.71
25.63
26.88
28.29
29.61
30.58
30.98
30.62
29.42
27.36
24.62
21.48
18.26
15.23
12.48
9.88
7.21
4.21
0.71
-3.27
-7.56
-11.94
-16.24
-20.37
-24.34
-28.28
-32.32
-36.58
-41.09
-45.75
-50.23
-53.97
-56.25
-56.35
-53.84
-48.72
-41.47
-32.89
-23.83
-14.93
-6.56
1.08
7.84
13.54
17.92
20.84
22.38
22.84
22.68
22.39
22.29
22.48
22.92
23.44
23.91
24.31
24.69
25.17
25.83
26.59
27.16
27.17
26.24
24.19
21.14
17.52
13.86
10.62
7.99
5.83
3.73
1.24
-2.02
-6.16
-11.01
-16.08
-20.62
-23.75
-24.61
-22.62
-17.71
-10.32
-1.33
8.27
17.62
26.15
33.58
39.82
44.77
48.31
50.38
51.04
50.54
49.37
48.03
47.01
46.57
46.7
47.21
47.74
47.95
47.65
46.79
45.48
43.85
41.96
39.73
37.0
33.66
29.66
25.17
20.45
15.83
11.61
7.95
4.83
2.07
-0.63
-3.59
-7.09
-11.3
-16.2
-21.43
-26.28
-29.76
-30.79
-28.62
-23.1
-14.84
-5.03
4.94
13.92
21.33
27.1
31.47
34.68
36.73
37.48
36.79
34.77
31.88
28.77
26.11
24.33
23.49
23.34
23.46
23.47
23.06
22.08
20.4
17.91
14.48
10.1
4.92
-0.69
-6.21
-11.21
-15.47
-19.05
-22.18
-25.17
-28.16
-31.17
-34.1
-36.86
-39.49
-42.11
-44.94
-48.21
-52.05
-56.39
-60.9
-64.82
-67.16
-66.88
-63.29
-56.32
-46.65
-35.49
-24.11
-13.53
-4.25
3.66
10.31
15.82
20.19
23.43
25.58
26.82
27.4
27.55
27.42
27.09
26.64
26.14
25.76
25.59
25.68
25.92
26.1
25.96
25.24
23.79
21.58
18.77
15.6
12.43
9.54
7.09
5.03
3.15
1.12
-1.33
-4.33
-7.74
-11.29
-14.64
-17.58
-20.09
-22.35
-24.68
-27.46
-30.96
-35.28
-40.2
-45.12
-49.1
-51.03
-49.98
-45.55
-38.07
-28.53
-18.2
-8.27
0.55
7.99
14.18
19.26
23.33
26.37
28.37
29.41
29.72
29.59
29.32
29.06
28.86
28.68
28.41
28.0
27.52
27.1
26.92
27.06
27.43
27.79
27.8
27.2
25.9
24.04
21.89
19.75
17.8
16.07
14.43
12.64
10.51
7.92
4.94
1.73
-1.41
-4.26
-6.77
-9.07
-11.49
-14.41
-18.17
-22.95
-28.73
-35.22
-41.81
-47.58
-51.47
-52.48
-50.1
-44.53
-36.64
-27.69
-18.83
-10.75
-3.58
2.92
9.02
14.75
19.85
23.98
26.84
28.43
28.96
28.76
28.15
27.34
26.47
25.62
24.87
24.32
24.0
23.88
23.81
23.59
22.96
21.74
19.83
17.25
14.14
10.64
6.89
3.02
-0.85
-4.62
-8.16
-11.39
-14.34
-17.14
-20.05
-23.31
-27.12
-31.56
-36.53
-41.75
-46.75
-50.86
-53.26
-53.23
-50.35
-44.69
-36.9
-28.02
-19.15
-11.15
-4.4
1.06
5.46
8.96
11.62
13.38
14.21
14.22
13.68
12.94
12.29
11.94
11.93
12.21
12.72
13.4
14.2
14.96
15.52
15.58
14.97
13.66
11.84
9.85
8.02
6.5
5.18
3.73
1.77
-0.94
-4.35
-8.17
-11.92
-15.22
-17.88
-20.0
-21.91
-24.12
-27.1
-31.17
-36.28
-41.93
-47.2
-50.85
-51.78
-49.25
-43.25
-34.47
-24.11
-13.51
-3.73
4.55
11.13
16.11
19.71
22.17
23.71
24.51
24.74
24.52
23.94
23.06
21.99
20.81
19.65
18.66
17.93
17.56
17.52
17.72
17.97
18.02
17.62
16.62
15.0
12.92
10.62
8.35
6.23
4.27
2.29
0.1
-2.46
-5.4
-8.61
-11.87
-14.97
-17.79
-20.37
-22.88
-25.62
-28.9
-32.94
-37.79
-43.1
-48.12
-51.78
-52.94
-50.82
-45.27
-36.9
-26.9
-16.64
-7.21
0.8
7.29
12.47
16.57
19.74
21.97
23.24
23.56
23.11
22.14
21.01
20.0
19.34
19.08
19.11
19.29
19.44
19.53
19.59
19.71
19.9
20.04
19.84
19.06
17.54
15.34
12.71
9.93
7.22
4.64
2.13
-0.43
-3.11
-5.92
-8.81
-11.72
-14.65
-17.66
-20.92
-24.62
-28.86
-33.48
-37.93
-41.34
-42.72
-41.28
-36.82
-29.78
-21.15
-12.08
-3.53
3.92
10.08
15.01
18.76
21.36
22.83
23.24
22.78
21.73
20.39
19.05
17.91
17.13
16.77
16.79
17.07
17.4
17.57
17.41
16.87
15.95
14.73
13.22
11.42
9.25
6.67
3.68
0.38
-3.08
-6.52
-9.82
-12.88
-15.74
-18.52
-21.43
-24.75
-28.78
-33.63
-39.1
-44.5
-48.78
-50.78
-49.6
-45.01
-37.5
-28.15
-18.29
-9.04
-1.12
5.18
9.91
13.25
15.38
16.5
16.83
16.58
16.0
15.28
14.6
14.05
13.73
13.67
13.87
14.27
14.75
15.17
15.34
15.14
14.48
13.34
11.77
9.86
7.73
5.45
3.06
0.57
-2.07
-4.87
-7.77
-10.67
-13.44
-15.99
-18.35
-20.68
-23.27
-26.48
-30.58
-35.57
-41.03
-46.06
-49.49
-50.25
-47.69
-41.86
-33.48
-23.69
-13.62
-4.15
4.29
11.55
17.61
22.42
25.88
27.94
28.71
28.51
27.84
27.19
26.9
27.07
27.63
28.38
29.11
29.67
29.94
29.86
29.4
28.56
27.4
25.97
24.26
22.19
19.56
16.2
12.1
7.46
2.63
-2.03
-6.27
-10.01
-13.36
-16.53
-19.73
-23.22
-27.2
-31.82
-37.08
-42.66
-47.88
-51.74
-53.19
-51.48
-46.39
-38.41
-28.57
-18.11
-8.18
0.49
7.64
13.33
17.79
21.18
23.54
24.78
24.89
24.04
22.6
21.08
19.9
19.32
19.28
19.57
19.88
20.03
19.95
19.69
19.33
18.81
18.02
16.74
14.83
12.22
8.99
5.32
1.43
-2.45
-6.15
-9.58
-12.69
-15.54
-18.23
-20.94
-23.91
-27.4
-31.59
-36.48
-41.72
-46.56
-50.02
-51.08
-49.13
-44.12
-36.64
-27.69
-18.27
-9.2
-0.91
6.39
12.6
17.54
21.07
23.1
23.82
23.58
22.89
22.18
21.72
21.55
21.58
21.69
21.76
21.82
21.96
22.32
22.95
23.78
24.57
24.92
24.42
22.81
20.14
16.75
13.17
9.87
7.09
4.73
2.49
-0.04
-3.2
-7.18
-11.98
-17.38
-22.84
-27.57
-30.59
-30.95
-28.15
-22.3
-14.15
-4.86
4.43
12.88
20.09
25.93
30.37
33.37
34.85
34.82
33.49
31.35
29.03
27.1
25.92
25.52
25.63
25.81
25.66
24.94
23.59
21.67
19.28
16.44
13.09
9.15
4.62
-0.39
-5.64
-10.82
-15.64
-19.89
-23.47
-26.41
-28.91
-31.28
-33.91
-37.18
-41.22
-45.75
-49.97
-52.76
-52.97
-49.89
-43.52
-34.57
-24.22
-13.67
-3.84
4.76
11.91
17.51
21.46
23.65
24.08
23.03
20.97
18.6
16.55
15.24
14.77
14.91
15.27
15.41
15.11
14.42
13.55
12.74
12.06
11.32
10.16
8.21
5.33
1.67
-2.39
-6.44
-10.18
-13.53
-16.65
-19.8
-23.2
-27.02
-31.31
-36.08
-41.1
-45.89
-49.59
-51.16
-49.69
-44.74
-36.64
-26.4
-15.35
-4.78
4.48
12.11
18.19
22.93
26.46
28.78
29.86
29.77
28.71
27.09
25.37
24.0
23.24
23.14
23.46
23.88
24.04
23.72
22.9
21.73
20.39
19.04
17.62
15.95
13.78
10.96
7.53
3.75
-0.02
-3.5
-6.6
-9.45
-12.34
-15.54
-19.22
-23.49
-28.37
-33.79
-39.49
-44.89
-49.05
-50.89
-49.51
-44.56
-36.46
-26.24
-15.27
-4.82
4.26
11.63
17.3
21.49
24.39
26.14
26.85
26.66
25.78
24.53
23.24
22.2
21.56
21.34
21.42
21.62
21.78
21.79
21.58
21.11
20.35
19.26
17.83
16.03
13.87
11.37
8.57
5.51
2.23
-1.21
-4.75
-8.34
-11.93
-15.5
-19.08
-22.7
-26.49
-30.65
-35.35
-40.66
-46.3
-51.6
-55.52
-56.93
-55.04
-49.67
-41.42
-31.45
-21.11
-11.51
-3.36
3.09
7.85
11.05
12.85
13.46
13.26
12.83
12.75
13.5
15.24
17.75
20.56
23.12
25.03
26.12
26.46
26.27
25.77
25.09
24.23
23.14
21.69
19.79
17.36
14.35
10.88
7.12
3.39
0.01
-2.81
-4.99
-6.67
-8.21
-10.01
-12.51
-15.88
-19.98
-24.18
-27.52
-28.96
-27.74
-23.67
-17.19
-9.17
-0.6
7.71
15.24
21.66
26.74
30.23
31.94
31.89
30.38
27.98
25.36
23.05
21.35
20.32
19.82
19.63
19.62
19.74
20.02
20.51
21.17
21.79
21.99
21.35
19.51
16.4
12.29
7.67
3.11
-0.99
-4.52
-7.65
-10.67
-13.89
-17.53
-21.73
-26.44
-31.41
-36.07
-39.53
-40.81
-39.15
-34.38
-26.96
-17.95
-8.56
0.19
7.73
13.84
18.55
21.88
23.8
24.31
23.56
21.92
19.96
18.2
16.99
16.31
15.92
15.44
14.62
13.48
12.23
11.22
10.67
10.61
10.76
10.68
9.9
8.13
5.29
1.56
-2.68
-7.03
-11.14
-14.83
-18.11
-21.14
-24.19
-27.55
-31.51
-36.22
-41.55
-46.98
-51.56
-54.13
-53.69
-49.75
-42.55
-33.0
-22.39
-11.94
-2.54
5.33
11.55
16.11
19.06
20.38
20.18
18.72
16.48
14.07
12.08
10.92
10.7
11.25
12.23
13.26
14.07
14.53
14.6
14.31
13.7
12.78
11.56
10.0
8.05
5.67
2.83
-0.35
-3.72
-7.04
-10.17
-13.09
-15.89
-18.77
-21.97
-25.69
-30.09
-35.22
-40.9
-46.57
-51.33
-54.05
-53.71
-49.81
-42.56
-32.82
-21.84
-10.79
-0.52
8.51
16.13
22.26
26.84
29.85
31.41
31.82
31.54
31.01
30.59
30.43
30.53
30.72
30.81
30.58
29.89
28.69
27.0
24.92
22.6
20.14
17.57
14.85
11.82
8.29
4.2
-0.31
-4.73
-8.28
-10.11
-9.57
-6.53
-1.36
5.12
11.98
18.42
23.85
27.93
30.46
31.33
30.59
28.48
25.48
22.23
19.39
17.43
16.54
16.61
17.33
18.3
19.16
19.76
20.07
20.18
20.19
20.11
19.84
19.19
18.1
16.55
14.7
12.75
10.87
9.11
7.43
5.74
3.97
2.15
0.29
-1.55
-3.4
-5.33
-7.43
-9.77
-12.41
-15.34
-18.54
-21.94
-25.4
-28.77
-31.92
-34.83
-37.6
-40.47
-43.72
-47.6
-52.17
-57.25
-62.3
-66.44
-68.69
-68.12
-64.23
-57.06
-47.27
-35.92
-24.21
-13.18
-3.54
4.42
10.68
15.37
18.67
20.72
21.65
21.63
20.92
19.91
19.01
18.53
18.58
19.06
19.7
20.21
20.45
20.4
20.19
19.88
19.45
18.7
17.38
15.3
12.45
9.04
5.43
1.97
-1.11
-3.75
-6.09
-8.33
-10.73
-13.5
-16.84
-20.88
-25.54
-30.47
-34.96
-38.13
-39.13
-37.46
-33.2
-26.88
-19.37
-11.5
-3.91
3.0
9.04
14.02
17.71
19.94
20.66
20.08
18.66
16.93
15.33
14.09
13.22
12.61
12.19
11.99
12.09
12.54
13.24
13.93
14.29
14.03
12.96
11.1
8.58
5.6
2.4
-0.8
-3.85
-6.77
-9.69
-12.92
-16.74
-21.25
-26.17
-30.77
-34.05
-35.04
-33.14
-28.35
-21.28
-12.84
-4.01
4.48
12.22
18.96
24.56
28.78
31.37
32.19
31.34
29.21
26.32
23.27
20.51
18.26
16.51
15.15
14.03
13.09
12.33
11.74
11.22
10.52
9.36
7.5
4.89
1.68
-1.83
-5.34
-8.66
-11.78
-14.81
-17.97
-21.51
-25.66
-30.58
-36.12
-41.79
-46.68
-49.64
-49.7
-46.36
-39.81
-30.89
-20.78
-10.64
-1.33
6.71
13.28
18.34
21.88
23.88
24.42
23.73
22.21
20.34
18.58
17.21
16.28
15.66
15.14
14.59
13.93
13.25
12.59
11.97
11.26
10.23
8.61
6.27
3.24
-0.26
-3.89
-7.33
-10.4
-13.13
-15.74
-18.55
-21.87
-25.95
-30.86
-36.33
-41.71
-46.01
-48.12
-47.15
-42.8
-35.46
-26.08
-15.82
-5.69
3.63
11.78
18.57
23.87
27.52
29.51
29.97
29.19
27.64
25.81
24.14
22.91
22.21
21.9
21.7
21.35
20.67
19.73
18.72
17.79
16.99
16.14
14.93
13.07
10.43
7.12
3.42
-0.33
-3.84
-6.96
-9.72
-12.22
-14.65
-17.2
-20.07
-23.48
-27.66
-32.77
-38.68
-44.85
-50.25
-53.63
-53.82
-50.28
-43.25
-33.71
-23.1
-12.76
-3.62
3.89
9.81
14.33
17.61
19.75
20.78
20.8
20.09
19.04
18.07
17.48
17.35
17.57
17.86
18.03
18.03
17.94
17.94
18.05
18.16
17.94
17.06
15.35
12.93
10.18
7.51
5.24
3.37
1.66
-0.22
-2.47
-5.1
-7.9
-10.6
-13.05
-15.28
-17.49
-19.96
-22.93
-26.52
-30.7
-35.15
-39.24
-42.03
-42.5
-39.85
-33.8
-24.84
-14.02
-2.68
8.01
17.28
24.84
30.72
35.04
37.92
39.45
39.78
39.22
38.15
36.99
36.05
35.48
35.26
35.29
35.43
35.55
35.6
35.55
35.37
35.03
34.38
33.25
31.5
29.08
26.13
22.94
19.85
17.14
14.84
12.78
10.59
7.95
4.67
0.84
-3.23
-7.13
-10.58
-13.47
-15.99
-18.51
-21.49
-25.29
-30.03
-35.48
-40.97
-45.52
-48.04
-47.64
-43.95
-37.23
-28.38
-18.55
-8.89
-0.2
7.08
12.92
17.43
20.79
23.16
24.65
25.36
25.43
25.02
24.33
23.61
23.06
22.8
22.84
23.09
23.39
23.61
23.66
23.51
23.11
22.4
21.24
19.55
17.31
14.66
11.82
9.06
6.58
4.41
2.48
0.64
-1.26
-3.29
-5.44
-7.7
-10.1
-12.78
-15.98
-19.91
-24.56
-29.57
-34.22
-37.53
-38.62
-36.96
-32.61
-26.17
-18.52
-10.51
-2.76
4.37
10.71
16.11
20.35
23.27
24.79
25.07
24.44
23.32
22.11
21.08
20.35
19.92
19.7
19.56
19.41
19.16
18.76
18.15
17.28
16.09
14.56
12.7
10.57
8.24
5.75
3.04
0.07
-3.22
-6.73
-10.31
-13.74
-16.83
-19.48
-21.72
-23.72
-25.72
-28.07
-31.1
-35.02
-39.75
-44.74
-49.02
-51.39
-50.86
-47.0
-40.19
-31.41
-21.95
-12.92
-4.94
1.78
7.33
11.85
15.39
17.95
19.58
20.44
20.79
20.89
20.92
20.93
20.89
20.81
20.7
20.61
20.64
20.8
21.07
21.36
21.52
21.36
20.69
19.4
17.5
15.13
12.53
9.96
7.62
5.49
3.42
1.16
-1.54
-4.76
-8.36
-12.06
-15.5
-18.46
-20.87
-22.89
-24.86
-27.2
-30.29
-34.32
-39.09
-43.95
-47.85
-49.61
-48.29
-43.58
-35.9
-26.35
-16.24
-6.76
1.4
8.02
13.21
17.17
20.06
21.95
22.91
23.06
22.65
22.0
21.43
21.1
21.08
21.24
21.4
21.43
21.32
21.18
21.2
21.43
21.75
21.87
21.4
20.1
17.93
15.16
12.19
9.44
7.17
5.37
3.85
2.3
0.41
-1.98
-4.86
-8.03
-11.2
-14.07
-16.49
-18.52
-20.44
-22.69
-25.69
-29.66
-34.52
-39.75
-44.46
-47.61
-48.25
-45.85
-40.46
-32.72
-23.7
-14.54
-6.19
0.85
6.42
10.64
13.67
15.63
16.58
16.59
15.83
14.56
13.15
11.95
11.2
10.98
11.23
11.74
12.36
12.93
13.42
13.8
14.03
14.04
13.7
12.89
11.51
9.54
7.04
4.21
1.35
-1.09
-2.67
-2.98
-1.84
0.64
4.12
8.11
12.08
15.65
18.52
20.51
21.48
21.38
20.28
18.43
16.18
13.97
12.25
11.31
11.26
11.98
13.12
14.24
14.92
14.92
14.25
13.09
11.74
10.44
9.33
8.44
7.79
7.32
7.0
6.72
6.34
5.75
4.93
3.97
3.03
2.26
1.74
1.38
1.01
0.4
-0.63
-2.16
-4.06
-6.14
-8.12
-9.84
-11.29
-12.68
-14.3
-16.43
-19.12
-22.2
-25.29
-28.05
-30.26
-31.96
-33.39
-34.93
-36.97
-39.82
-43.54
-47.84
-52.0
-54.98
-55.67
-53.28
-47.68
-39.45
-29.72
-19.77
-10.62
-2.88
3.28
7.9
11.08
12.92
13.55
13.16
12.1
10.71
9.3
8.1
7.23
6.76
6.68
6.96
7.49
8.08
8.53
8.68
8.46
7.84
6.94
5.79
4.44
2.85
0.96
-1.28
-3.91
-6.87
-10.06
-13.31
-16.37
-18.83
-20.2
-19.93
-17.61
-13.16
-6.93
0.28
7.46
13.66
18.24
21.01
22.18
22.11
21.21
19.75
17.93
15.96
14.11
12.64
11.79
11.61
11.96
12.59
13.26
13.81
14.14
14.2
13.91
13.18
12.03
10.56
9.03
7.65
6.52
5.53
4.44
2.97
1.01
-1.37
-3.93
-6.44
-8.76
-10.92
-13.05
-15.27
-17.61
-19.98
-22.24
-24.29
-26.16
-27.97
-29.9
-32.1
-34.73
-37.91
-41.73
-46.18
-50.91
-55.19
-57.97
-58.17
-55.14
-48.93
-40.34
-30.6
-20.9
-12.13
-4.64
1.54
6.49
10.23
12.69
13.85
13.81
12.9
11.57
10.29
9.44
9.16
9.38
9.87
10.39
10.79
11.1
11.45
11.95
12.54
13.01
12.96
12.06
10.14
7.35
4.06
0.74
-2.19
-4.56
-6.44
-8.2
-10.29
-13.19
-17.09
-21.8
-26.73
-30.96
-33.56
-33.82
-31.5
-26.85
-20.47
-13.12
-5.52
1.73
8.17
13.45
17.3
19.63
20.45
19.99
18.62
16.8
14.98
13.48
12.47
11.92
11.7
11.62
11.58
11.54
11.52
11.47
11.22
10.55
9.23
7.15
4.4
1.22
-2.12
-5.37
-8.4
-11.25
-14.07
-17.12
-20.69
-25.02
-30.09
-35.52
-40.53
-44.11
-45.27
-43.46
-38.71
-31.64
-23.21
-14.45
-6.13
1.28
7.55
12.58
16.33
18.81
20.08
20.36
19.98
19.3
18.64
18.19
18.07
18.21
18.51
18.76
18.79
18.5
17.94
17.24
16.51
15.74
14.75
13.26
11.01
7.9
4.14
0.11
-3.73
-7.06
-9.81
-12.22
-14.8
-18.09
-22.49
-28.03
-34.21
-40.07
-44.41
-46.13
-44.6
-39.85
-32.54
-23.71
-14.47
-5.67
2.17
8.84
14.3
18.55
21.61
23.56
24.53
24.78
24.56
24.11
23.58
23.05
22.56
22.12
21.76
21.48
21.27
21.06
20.74
20.15
19.14
17.62
15.56
13.0
10.0
6.68
3.14
-0.56
-4.38
-8.28
-12.34
-16.63
-21.19
-25.85
-30.25
-33.88
-36.24
-37.11
-36.64
-35.16
-33.01
-30.22
-26.59
-21.81
-15.75
-8.7
-1.28
5.82
12.11
17.45
21.91
25.7
28.84
31.22
32.63
32.96
32.3
30.99
29.49
28.27
27.62
27.61
28.08
28.75
29.3
29.52
29.35
28.8
27.94
26.91
25.76
24.58
23.32
21.92
20.22
18.12
15.55
12.62
9.58
6.66
4.05
1.71
-0.55
-3.04
-6.0
-9.58
-13.79
-18.51
-23.47
-28.2
-32.01
-34.09
-33.7
-30.46
-24.55
-16.73
-8.11
0.21
7.44
13.27
17.79
21.2
23.72
25.41
26.26
26.36
25.94
25.38
25.03
25.06
25.4
25.78
25.92
25.73
25.31
24.92
24.68
24.53
24.15
23.16
21.36
18.81
15.84
12.87
10.13
7.63
5.15
2.47
-0.57
-3.87
-7.17
-10.21
-12.79
-14.99
-17.05
-19.38
-22.35
-26.23
-31.06
-36.46
-41.7
-45.7
-47.37
-45.91
-41.19
-33.77
-24.78
-15.46
-6.83
0.56
6.67
11.67
15.8
19.12
21.6
23.19
23.93
23.98
23.63
23.16
22.79
22.6
22.55
22.56
22.54
22.51
22.54
22.69
22.94
23.09
22.89
22.08
20.55
18.36
15.75
13.07
10.59
8.47
6.67
4.97
3.11
0.81
-2.0
-5.23
-8.59
-11.75
-14.49
-16.76
-18.72
-20.66
-22.93
-25.83
-29.54
-34.04
-38.95
-43.56
-46.87
-47.9
-45.98
-41.01
-33.58
-24.72
-15.6
-7.2
-0.06
5.71
10.31
14.01
16.97
19.24
20.8
21.64
21.93
21.87
21.74
