-54.61
-55.22
-52.53
-46.55
-37.91
-27.64
-16.9
-6.62
2.58
10.4
16.78
21.76
25.43
27.91
29.32
29.85
29.7
29.12
28.41
27.86
27.67
27.88
28.39
29.0
29.52
29.89
30.15
30.36
30.53
30.52
30.14
29.19
27.54
25.18
22.18
18.69
14.93
11.16
7.62
4.49
1.74
-0.79
-3.44
-6.58
-10.42
-14.98
-19.96
-24.75
-28.54
-30.46
-29.89
-26.6
-20.83
-13.21
-4.52
4.47
13.16
21.05
27.68
32.54
35.07
34.78
31.43
25.14
16.68
7.41
-0.83
-6.15
-7.27
-4.04
2.34
9.72
15.74
18.67
18.0
14.39
9.2
3.83
-0.77
-4.21
-6.52
-7.95
-8.79
-9.34
-9.97
-11.1
-13.06
-15.97
-19.65
-23.63
-27.34
-30.34
-32.56
-34.36
-36.4
-39.25
-43.05
-47.26
-50.66
-51.82
-49.56
-43.51
-34.16
-22.74
-10.71
0.67
10.6
18.75
25.12
29.84
33.07
34.92
35.62
35.4
34.63
33.6
32.6
31.79
31.26
31.01
30.98
31.02
30.95
30.58
29.8
28.57
26.96
25.06
22.96
20.65
18.13
15.32
12.17
8.7
4.96
1.07
-2.82
-6.58
-10.12
-13.43
-16.63
-19.93
-23.62
-27.95
-32.9
-38.08
-42.69
-45.58
-45.63
-42.09
-34.88
-24.71
-12.95
-1.29
8.73
16.03
20.21
21.47
20.49
18.11
15.12
12.12
9.55
7.68
6.7
6.72
7.69
9.36
11.32
13.08
14.29
14.79
14.71
14.28
13.74
13.18
12.49
11.5
10.0
7.89
5.18
1.98
-1.53
-5.13
-8.58
-11.7
-14.39
-16.62
-18.52
-20.3
-22.21
-24.56
-27.6
-31.46
-36.0
-40.72
-44.72
-46.88
-46.23
-42.26
-35.22
-26.01
-15.87
-6.01
2.77
10.11
15.95
20.33
23.19
24.46
24.17
22.57
20.2
17.62
15.33
13.56
12.28
11.34
10.63
10.14
9.99
10.3
11.08
12.14
13.16
13.71
13.43
12.13
9.82
6.78
3.46
0.36
-2.17
-4.0
-5.3
-6.41
-7.69
-9.51
-12.08
-15.5
-19.65
-24.08
-28.0
-30.39
-30.28
-27.09
-20.94
-12.6
-3.26
5.87
13.93
20.47
25.42
28.81
30.68
31.08
30.14
28.17
25.65
23.08
20.87
19.19
18.0
17.15
16.46
15.9
15.53
15.47
15.76
16.22
16.51
16.15
14.78
12.26
8.79
4.81
0.78
-2.9
-6.1
-8.88
-11.5
-14.25
-17.43
-21.27
-25.7
-30.32
-34.31
-36.65
-36.44
-33.25
-27.26
-19.26
-10.29
-1.38
6.71
13.5
18.68
22.08
23.61
23.38
21.76
19.31
16.64
14.25
12.35
10.9
9.73
8.71
7.8
7.09
6.62
6.34
6.04
5.41
4.17
2.16
-0.56
-3.79
-7.22
-10.62
-13.87
-16.99
-20.19
-23.86
-28.45
-34.28
-41.32
-48.94
-55.91
-60.6
-61.51
-57.77
-49.53
-37.91
-24.68
-11.67
-0.25
8.85
15.57
20.19
23.08
24.6
25.04
24.77
24.22
23.83
23.92
24.53
25.42
26.13
26.24
25.51
24.05
22.21
20.44
19.04
18.08
17.32
16.4
14.95
12.7
9.55
5.55
0.92
-3.95
-8.43
-11.78
-13.29
-12.47
-9.29
-4.15
2.2
8.94
15.3
20.74
24.95
27.7
28.93
28.64
26.99
24.3
21.03
17.79
15.12
13.43
12.84
13.17
14.0
14.85
15.34
15.29
14.76
13.89
12.77
11.45
9.88
8.06
6.01
3.87
1.75
-0.23
-2.01
-3.53
-4.79
-5.82
-6.77
-7.88
-9.39
-11.45
-14.01
-16.87
-19.79
-22.59
-25.25
-27.82
-30.42
-33.17
-36.23
-39.77
-43.91
-48.45
-52.75
-55.74
-56.21
-53.33
-46.96
-37.8
-27.15
-16.33
-6.36
2.3
9.58
15.53
20.14
23.23
24.67
24.53
23.17
21.15
19.13
17.58
16.66
16.24
16.01
15.62
14.93
13.99
13.04
12.29
11.79
11.38
10.74
9.57
7.7
5.18
2.22
-0.92
-4.01
-6.88
-9.45
-11.71
-13.77
-15.8
-18.09
-20.89
-24.33
-28.27
-32.19
-35.3
-36.69
-35.6
-31.74
-25.33
-17.05
-7.82
1.4
9.85
17.02
22.59
26.43
28.45
28.73
27.53
25.29
22.55
19.87
17.63
15.99
14.93
14.29
13.94
13.79
13.85
14.06
14.32
14.4
14.04
13.04
11.31
8.96
6.18
3.18
0.14
-2.83
-5.7
-8.49
-11.32
-14.38
-17.9
-21.98
-26.48
-30.85
-34.24
-35.73
-34.67
-30.92
-24.92
-17.51
-9.65
-2.11
4.64
10.33
14.85
18.07
19.91
20.41
19.82
18.52
16.98
15.56
14.43
13.55
12.73
11.81
10.72
9.52
8.43
7.6
7.1
6.75
6.21
5.1
3.19
0.46
-2.81
-6.24
-9.47
-12.32
-14.81
-17.16
-19.67
-22.68
-26.44
-30.95
-35.88
-40.51
-43.82
-44.8
-42.74
-37.61
-29.95
-20.82
-11.39
-2.55
5.09
11.31
16.02
19.19
20.82
21.04
20.19
18.77
17.3
16.16
15.45
15.04
14.65
14.09
13.33
12.47
11.7
11.13
10.74
10.34
9.63
8.35
6.33
3.57
0.25
-3.31
-6.76
-9.9
-12.7
-15.36
-18.21
-21.65
-25.93
-31.01
-36.47
-41.5
-45.07
-46.17
-44.14
-38.93
-31.15
-21.88
-12.32
-3.47
4.1
10.2
14.92
18.31
20.4
21.17
20.74
19.47
17.88
16.56
15.86
15.84
16.2
16.5
16.41
15.89
15.16
14.53
14.22
14.11
13.87
13.05
11.36
8.75
5.47
1.87
-1.7
-5.04
-8.12
-10.99
-13.8
-16.73
-19.96
-23.7
-28.03
-32.72
-37.15
-40.36
-41.31
-39.31
-34.26
-26.79
-17.98
-9.0
-0.68
6.62
12.88
18.18
22.46
25.48
27.0
27.07
26.04
24.57
23.3
22.61
22.53
22.76
22.91
22.75
22.3
21.74
21.32
21.09
20.87
20.3
19.04
16.92
14.05
10.77
7.5
4.55
2.01
-0.29
-2.63
-5.37
-8.78
-13.03
-18.1
-23.68
-29.14
-33.58
-36.01
-35.69
-32.34
-26.36
-18.59
-10.14
-1.97
5.31
11.4
16.21
19.71
21.79
22.42
21.68
19.92
17.65
15.49
13.95
13.24
13.27
13.74
14.24
14.49
14.39
14.01
13.51
12.93
12.18
11.04
9.26
6.72
3.54
0.01
-3.46
-6.51
-8.99
-10.96
-12.68
-14.52
-16.84
-19.9
-23.83
-28.46
-33.31
-37.55
-40.15
-40.14
-36.96
-30.67
-22.0
-12.07
-2.04
7.15
14.97
21.26
26.02
29.29
31.09
31.43
30.44
28.44
25.91
23.42
21.49
20.43
20.21
20.51
20.83
20.7
19.84
18.3
16.33
14.24
12.28
10.45
8.62
6.57
4.1
1.15
-2.23
-5.85
-9.53
-13.06
-16.33
-19.3
-22.05
-24.77
-27.8
-31.51
-36.18
-41.76
-47.74
-53.09
-56.54
-56.98
-53.86
-47.42
-38.59
-28.67
-18.82
-9.84
-1.99
4.78
10.61
15.59
19.64
22.61
24.39
25.01
24.69
23.76
22.56
21.33
20.17
19.07
18.05
17.19
16.65
16.54
16.84
17.31
17.64
17.49
16.75
15.5
13.99
12.41
10.82
9.11
7.09
4.64
1.79
-1.26
-4.23
-6.87
-9.16
-11.19
-13.21
-15.49
-18.26
-21.65
-25.67
-30.1
-34.41
-37.78
-39.25
-38.05
-33.84
-26.96
-18.29
-9.01
-0.18
7.5
13.79
18.81
22.79
25.92
28.25
29.7
30.19
29.74
28.52
26.93
25.46
24.51
24.28
24.67
25.38
26.03
26.35
26.26
25.78
24.97
23.83
22.27
20.16
17.49
14.36
10.98
7.54
4.2
1.02
-2.02
-4.96
-7.8
-10.56
-13.26
-16.0
-18.98
-22.43
-26.47
-30.89
-35.05
-38.02
-38.79
-36.72
-31.79
-24.68
-16.53
-8.52
-1.55
4.0
8.18
11.26
13.5
15.06
15.96
16.21
15.83
14.98
13.91
12.87
12.09
11.7
11.73
12.12
12.7
13.27
13.61
13.55
13.0
11.99
10.61
8.97
7.2
5.32
3.34
1.23
-1.0
-3.31
-5.67
-8.06
-10.49
-13.0
-15.6
-18.33
-21.3
-24.67
-28.65
-33.26
-38.17
-42.68
-45.8
-46.59
-44.48
-39.48
-32.17
-23.49
-14.4
-5.71
2.01
8.42
13.38
16.88
19.03
20.09
20.37
20.18
19.79
19.34
18.92
18.56
18.3
18.19
18.27
18.58
19.06
19.51
19.72
19.46
18.64
17.29
15.57
13.65
11.67
9.66
7.61
5.5
3.29
0.97
-1.51
-4.18
-7.07
-10.12
-13.24
-16.32
-19.34
-22.4
-25.71
-29.49
-33.86
-38.56
-42.95
-46.05
-46.85
-44.7
-39.49
-31.88
-22.89
-13.68
-5.1
2.43
8.84
14.22
18.61
21.97
24.21
25.37
25.62
25.25
24.56
23.78
23.03
22.4
21.92
21.66
21.66
21.91
22.32
22.72
22.9
22.63
21.78
20.31
18.31
15.95
13.45
11.01
8.7
6.48
4.2
1.69
-1.15
-4.29
-7.6
-10.91
-14.08
-17.1
-20.07
-23.16
-26.57
-30.45
-34.76
-39.23
-43.28
-46.1
-46.83
-44.82
-39.91
-32.52
-23.5
-13.96
-4.89
3.0
9.33
14.07
17.39
19.5
20.61
20.91
20.52
19.65
18.55
17.57
17.02
17.11
17.83
18.95
20.11
20.96
21.3
21.11
20.48
19.56
18.47
17.23
15.81
14.16
12.25
10.08
7.7
5.15
2.52
-0.15
-2.81
-5.43
-7.97
-10.42
-12.78
-15.14
-17.71
-20.68
-24.18
-28.05
-31.78
-34.51
-35.38
-33.76
-29.56
-23.24
-15.64
-7.69
-0.15
6.52
12.13
16.58
19.84
21.83
22.56
22.21
21.11
19.7
18.36
17.33
16.66
16.21
15.85
15.48
15.13
14.92
14.96
15.23
15.59
15.73
15.31
14.09
11.97
9.08
5.64
1.97
-1.66
-5.03
-8.02
-10.57
-12.73
-14.63
-16.45
-18.47
-20.96
-24.17
-28.14
-32.65
-37.12
-40.7
-42.44
-41.6
-37.89
-31.57
-23.41
-14.47
-5.78
1.84
7.98
12.58
15.84
18.01
19.31
19.92
19.9
19.39
18.55
17.67
16.99
16.66
16.7
16.98
17.35
17.65
17.83
17.86
17.72
17.36
16.74
15.82
14.6
13.12
11.35
9.29
6.88
4.13
1.11
-2.03
-5.15
-8.1
-10.83
-13.38
-15.85
-18.49
-21.55
-25.31
-29.85
-34.94
-39.92
-43.8
-45.54
-44.4
-40.24
-33.5
-25.11
-16.12
-7.43
0.36
6.89
11.99
15.62
17.86
18.9
19.07
18.73
18.19
17.67
17.31
17.16
17.24
17.52
17.87
18.15
18.19
17.9
17.33
16.63
15.95
15.36
14.76
13.94
12.65
10.72
8.11
4.93
1.38
-2.34
-6.04
-9.57
-12.84
-15.81
-18.54
-21.2
-24.08
-27.51
-31.73
-36.77
-42.2
-47.22
-50.77
-51.93
-50.13
-45.45
-38.5
-30.2
-21.52
-13.19
-5.69
0.7
5.84
9.64
12.13
13.42
13.76
13.46
12.86
12.26
11.88
11.85
12.21
12.88
13.71
14.56
15.3
15.9
16.31
16.45
16.19
15.42
14.09
12.25
10.07
7.73
5.38
3.1
0.9
-1.17
-3.1
-4.88
-6.58
-8.37
-10.51
-13.26
-16.74
-20.73
-24.69
-27.79
-29.15
-28.11
-24.48
-18.62
-11.28
-3.38
4.31
11.31
17.4
22.53
26.62
29.56
31.22
31.59
30.86
29.41
27.71
26.15
24.94
24.09
23.41
22.69
21.75
20.59
19.31
18.05
16.9
15.81
14.62
13.19
11.43
9.32
6.94
4.37
1.69
-1.02
-3.73
-6.38
-9.02
-11.77
-14.89
-18.65
-23.16
-28.22
-33.18
-37.11
-38.99
-38.12
-34.31
-27.99
-20.04
-11.51
-3.34
3.87
9.85
14.57
18.09
20.44
21.66
21.81
21.07
19.79
18.37
17.17
16.4
16.08
16.06
16.12
16.09
15.86
15.4
14.71
13.75
12.56
11.15
9.59
7.94
6.19
4.28
2.1
-0.37
-3.02
-5.66
-8.11
-10.28
-12.25
-14.24
-16.52
-19.41
-23.12
-27.66
-32.77
-37.84
-41.94
-44.05
-43.35
-39.5
-32.81
-24.15
-14.65
-5.41
2.84
9.76
15.31
19.59
22.72
24.72
25.61
25.49
24.55
23.1
21.53
20.19
19.34
19.03
19.16
19.55
19.93
20.1
19.95
19.45
18.65
17.61
16.33
14.75
12.81
10.41
7.62
4.56
1.48
-1.39
-3.93
-6.13
-8.15
-10.18
-12.38
-14.93
-17.94
-21.59
-25.96
-30.89
-35.92
-40.17
-42.58
-42.22
-38.68
-32.22
-23.75
-14.49
-5.57
2.18
8.41
13.08
16.31
18.26
19.11
19.03
18.23
16.99
15.67
14.57
13.95
13.87
14.22
14.78
15.32
15.7
15.85
15.76
15.43
14.82
13.87
12.61
11.11
9.49
7.8
6.04
4.14
2.05
-0.19
-2.48
-4.72
-6.91
-9.1
-11.39
-13.87
-16.64
-19.74
-23.16
-26.72
-29.98
-32.25
-32.74
-30.8
-26.22
-19.34
-10.98
-2.18
6.13
13.36
19.21
23.62
26.6
28.12
28.22
27.02
24.85
22.24
19.72
17.76
16.57
16.06
15.97
15.99
15.95
15.85
15.76
15.72
15.64
15.27
14.28
12.46
9.79
6.46
2.79
-0.87
-4.25
-7.23
-9.81
-12.17
-14.58
-17.41
-20.94
-25.33
-30.36
-35.46
-39.76
-42.24
-42.1
-38.98
-33.19
-25.56
-17.18
-9.12
-2.06
3.66
8.08
11.32
13.48
14.57
14.64
13.88
12.66
11.44
10.64
10.43
10.68
11.03
11.06
10.48
9.28
7.68
6.06
4.74
3.87
3.33
2.84
2.03
0.58
-1.59
-4.42
-7.63
-10.91
-13.98
-16.67
-18.95
-20.86
-22.55
-24.21
-26.09
-28.43
-31.31
-34.46
-37.19
-38.52
-37.5
-33.66
-27.17
-18.89
-9.99
-1.55
5.73
11.62
16.21
19.66
22.06
23.4
23.7
23.11
21.9
20.5
19.3
18.62
18.54
18.92
19.47
19.82
19.73
19.16
18.27
17.25
16.22
15.11
13.65
11.58
8.77
5.36
1.72
-1.71
-4.63
-6.95
-8.86
-10.67
-12.68
-15.14
-18.18
-21.84
-26.0
-30.24
-33.87
-35.93
-35.53
-32.15
-25.9
-17.5
-8.06
1.3
9.72
16.75
22.28
26.32
28.89
30.01
29.71
28.14
25.67
22.81
20.13
18.07
16.85
16.37
16.32
16.31
16.04
15.39
14.43
13.33
12.22
11.16
10.06
8.78
7.13
4.99
2.36
-0.66
-3.89
-7.09
-10.09
-12.79
-15.23
-17.56
-19.96
-22.67
-25.91
-29.67
-33.69
-37.35
-39.76
-40.05
-37.66
-32.54
-25.23
-16.62
-7.67
0.78
8.17
14.16
18.57
21.33
22.51
22.29
20.99
19.05
16.93
15.03
13.65
12.94
12.84
13.22
13.9
14.72
15.61
16.48
17.27
17.8
17.82
17.04
15.31
12.63
9.28
5.67
2.2
-0.83
-3.41
-5.73
-8.16
-11.11
-14.87
-19.47
-24.59
-29.53
-33.36
-35.17
-34.26
-30.44
-24.07
-15.92
-7.01
1.73
9.57
16.05
20.82
23.69
24.59
23.68
21.43
18.56
15.88
13.98
13.08
12.98
13.24
13.44
13.33
12.96
12.52
12.22
12.06
11.84
11.25
9.98
7.91
5.15
1.97
-1.28
-4.35
-7.12
-9.56
-11.78
-13.89
-16.14
-18.78
-22.02
-25.8
-29.68
-32.77
-34.02
-32.57
-28.11
-21.03
-12.2
-2.66
6.74
15.39
22.91
28.97
33.2
35.34
35.3
33.38
30.15
26.41
22.9
20.16
18.45
17.71
17.72
18.15
18.68
19.08
19.26
19.22
19.03
18.67
18.06
17.05
15.56
13.59
11.23
8.69
6.16
3.78
1.62
-0.31
-2.03
-3.58
-5.03
-6.43
-7.81
-8.98
-9.6
-9.18
-7.28
-3.68
1.47
7.64
14.1
20.02
24.71
27.68
28.77
28.06
25.9
22.79
19.23
15.66
12.39
9.6
7.42
5.94
5.17
4.94
4.95
4.84
4.32
3.33
2.07
0.89
0.12
-0.1
0.11
0.39
0.33
-0.34
-1.67
-3.41
-5.11
-6.28
-6.63
-6.18
-5.22
-4.26
-3.75
-3.95
-4.8
-5.86
-6.41
-5.5
-2.19
4.27
14.07
26.81
41.47
56.66
71.08
83.74
94.17
102.35
108.55
113.16
116.61
119.31
121.63
123.81
125.91
127.73
128.84
128.73
127.01
123.65
119.11
114.3
110.23
107.56
106.19
104.96
101.99
95.1
82.57
63.59
38.39
8.2
-24.87
-58.08
-88.35
-112.74
-129.23
-137.33
-138.43
-135.28
-130.95
-127.63
-125.94
-124.96
-123.09
-119.11
-112.88
-105.28
-97.73
-91.4
-86.77
-83.61
-81.36
-79.49
-77.8
-76.33
-75.07
-73.8
-72.04
-69.33
-65.49
-60.85
-56.15
-52.33
-50.07
-49.59
-50.5
-52.03
-53.29
-53.55
-52.51
-50.37
-47.66
-45.07
-43.12
-41.99
-41.45
-40.89
-39.63
-37.16
-33.37
-28.61
-23.57
-19.1
-15.86
-14.16
-13.85
-14.44
-15.28
-15.88
-16.03
-15.79
-15.34
-14.82
-14.21
-13.41
-12.42
-11.48
-11.03
-11.59
-13.46
-16.65
-20.86
-25.57
-30.29
-34.64
-38.41
-41.5
-43.87
-45.48
-46.29
-46.31
-45.64
-44.57
-43.59
-43.32
-44.32
-46.87
-50.76
-55.33
-59.68
-62.96
-64.7
-64.98
-64.36
-63.7
-63.9
-65.65
-69.12
-73.83
-78.55
-81.46
-80.57
-74.3
-62.11
-44.75
-24.14
-2.76
17.02
33.6
46.29
55.16
60.73
63.59
64.31
63.42
61.45
58.95
56.41
54.11
52.1
50.21
48.18
45.85
43.21
40.49
38.05
36.17
34.91
34.01
33.0
31.33
28.65
24.94
20.57
16.11
12.14
9.05
6.82
5.06
3.04
-0.0
-4.58
-10.62
-17.4
-23.67
-28.04
-29.45
-27.51
-22.57
-15.55
-7.66
0.05
6.78
12.09
15.88
18.25
19.4
19.64
19.25
18.48
17.46
16.27
14.92
13.46
12.03
10.88
10.26
10.34
11.12
12.34
13.58
14.39
14.46
13.63
11.99
9.74
7.07
4.18
1.2
-1.83
-4.99
-8.53
-12.74
-17.73
-23.28
-28.64
-32.69
-34.25
-32.52
-27.36
-19.38
-9.73
0.3
9.55
17.34
23.37
27.67
30.4
31.72
31.77
30.71
28.74
26.24
23.64
21.35
19.64
18.6
18.09
17.9
17.78
17.5
16.85
15.65
13.78
11.24
8.09
4.54
0.79
-2.96
-6.67
-10.43
-14.47
-19.11
-24.55
-30.68
-36.92
-42.22
-45.29
-45.0
-40.8
-32.91
-22.32
-10.4
1.44
12.09
20.81
27.27
31.37
33.26
33.28
31.97
29.99
27.96
26.33
25.3
24.81
24.68
24.72
24.77
24.69
24.37
23.65
22.43
20.65
18.38
15.7
12.77
9.68
6.43
2.97
-0.88
-5.31
-10.53
-16.65
-23.53
-30.63
-37.06
-41.68
-43.4
-41.56
-36.13
-27.75
-17.5
-6.58
3.93
13.32
21.18
27.37
31.86
34.7
36.05
36.15
35.38
34.14
32.8
31.64
30.77
30.17
29.76
29.41
29.0
28.42
27.55
26.27
24.47
22.05
18.97
15.28
11.13
6.7
2.2
-2.18
-6.42
-10.64
-15.17
-20.39
-26.5
-33.22
-39.73
-44.68
-46.71
-44.85
-39.0
-29.94
-19.06
-7.91
2.28
10.77
17.37
22.16
25.35
27.14
27.77
27.55
26.84
26.02
25.34
24.93
24.7
24.51
24.24
23.86
23.48
23.2
23.08
23.02
22.76
21.93
20.22
17.5
13.87
9.64
5.27
1.17
-2.41
-5.53
-8.52
-11.9
-16.13
-21.41
-27.43
-33.39
-38.11
-40.38
-39.32
-34.7
-26.99
-17.19
-6.59
3.63
12.6
19.86
25.29
28.96
31.01
31.62
31.04
29.62
27.82
26.06
24.66
23.69
23.06
22.58
22.18
21.87
21.71
21.73
21.77
21.5
20.57
18.72
15.91
12.34
8.38
4.42
0.73
-2.6
-5.7
-8.88
-12.53
-16.93
-22.12
-27.7
-32.9
-36.66
-37.96
-36.13
-31.08
-23.4
-14.16
-4.66
3.98
11.02
16.18
19.51
21.25
21.65
20.96
19.48
17.55
15.55
13.86
12.72
12.22
12.33
12.87
13.66
14.46
15.11
15.4
15.22
14.44
13.01
10.9
8.19
5.02
1.6
-1.89
-5.3
-8.61
-11.98
-15.64
-19.83
-24.6
-29.65
-34.26
-37.41
-38.05
-35.48
-29.68
-21.38
-11.86
-2.53
5.5
11.72
16.12
19.01
20.66
21.18
20.54
18.8
16.22
13.3
10.65
8.78
7.85
7.71
7.96
8.18
8.08
7.56
6.67
5.52
4.13
2.47
0.45
-1.95
-4.67
-7.59
-10.57
-13.65
-17.0
-20.89
-25.47
-30.54
-35.39
-38.95
-40.08
-37.95
-32.41
-24.09
-14.19
-4.13
4.86
12.0
17.03
20.08
21.47
21.51
20.44
18.51
15.97
13.21
10.69
8.87
