-31.9
-23.03
-13.5
-4.51
3.15
9.17
13.59
16.56
18.22
18.66
18.05
16.68
15.03
13.57
12.68
12.51
12.97
13.82
14.83
15.82
16.65
17.24
17.39
16.86
15.42
12.98
9.63
5.7
1.65
-2.1
-5.26
-7.83
-10.13
-12.63
-15.85
-20.05
-25.08
-30.27
-34.57
-36.8
-36.05
-32.0
-24.97
-15.89
-5.93
3.8
12.48
19.6
24.97
28.54
30.42
30.79
29.97
28.45
26.77
25.47
24.88
25.05
25.74
26.53
27.04
27.08
26.72
26.16
25.57
24.95
24.08
22.65
20.42
17.4
13.87
10.24
6.83
3.81
1.06
-1.71
-4.87
-8.68
-13.28
-18.54
-24.07
-29.16
-32.84
-34.13
-32.26
-26.96
-18.65
-8.33
2.64
12.97
21.66
28.27
32.73
35.26
36.19
35.87
34.67
33.04
31.39
30.07
29.26
28.87
28.67
28.32
27.53
26.14
24.2
21.86
19.26
16.48
13.41
9.87
5.65
0.75
-4.64
-10.14
-15.35
-20.02
-24.14
-27.96
-31.87
-36.22
-41.18
-46.66
-52.24
-57.24
-60.79
-62.0
-60.25
-55.35
-47.7
-38.2
-28.1
-18.6
-10.63
-4.64
-0.58
1.95
3.54
4.77
6.08
7.74
9.9
12.64
15.98
19.84
24.01
28.1
31.64
34.21
35.5
35.46
34.16
31.75
28.41
24.34
19.85
15.33
11.21
7.72
4.86
2.28
-0.58
-4.3
-9.27
-15.5
-22.57
-29.56
-35.3
-38.57
-38.52
-34.93
-28.36
-19.93
-11.02
-2.83
3.91
8.93
12.3
14.19
14.79
14.32
13.09
11.54
10.13
9.23
8.99
9.36
10.15
11.15
12.21
13.15
13.86
14.12
13.77
12.61
10.64
8.0
4.94
1.77
-1.26
-4.0
-6.48
-8.86
-11.38
-14.31
-17.81
-21.87
-26.22
-30.28
-33.25
-34.28
-32.73
-28.41
-21.69
-13.45
-4.83
3.12
9.68
14.53
17.72
19.51
20.15
19.88
18.87
17.36
15.63
14.04
12.84
12.18
12.01
12.09
12.2
12.11
11.72
11.05
10.1
8.84
7.17
5.0
2.36
-0.58
-3.51
-6.14
-8.36
-10.22
-12.01
-14.08
-16.73
-20.15
-24.25
-28.6
-32.39
-34.68
-34.55
-31.53
-25.77
-18.05
-9.51
-1.3
5.74
11.18
14.89
16.93
17.4
16.5
14.55
12.07
9.57
7.55
6.21
5.47
5.07
4.75
4.35
3.89
3.49
3.3
3.36
3.59
3.79
3.71
3.09
1.8
-0.19
-2.73
-5.59
-8.53
-11.45
-14.39
-17.52
-20.94
-24.45
-27.44
-29.07
-28.55
-25.53
-20.26
-13.56
-6.47
0.13
5.76
10.3
13.88
16.65
18.62
19.72
19.92
19.27
17.99
16.32
14.59
13.03
11.84
11.06
10.59
10.22
9.67
8.69
7.19
5.21
2.89
0.36
-2.29
-5.05
-7.94
-10.97
-14.15
-17.57
-21.32
-25.55
-30.25
-35.12
-39.52
-42.57
-43.34
-41.22
-36.17
-28.75
-19.99
-11.03
-2.81
4.12
9.57
13.61
16.32
17.81
18.14
17.44
15.99
14.19
12.43
10.99
10.03
9.52
9.33
9.29
9.22
8.93
8.25
7.05
5.29
3.04
0.5
-2.11
-4.64
-7.0
-9.3
-11.74
-14.59
-18.15
-22.56
-27.77
-33.33
-38.47
-42.1
-43.19
-41.06
-35.66
-27.64
-18.17
-8.59
-0.01
6.9
11.99
15.46
17.68
18.96
19.51
19.41
18.71
17.51
15.99
14.41
13.02
12.01
11.48
11.41
11.71
12.21
12.7
12.92
12.62
11.57
9.63
6.87
3.55
0.07
-3.16
-5.89
-8.18
-10.36
-12.95
-16.44
-21.02
-26.44
-31.94
-36.45
-38.89
-38.46
-34.91
-28.64
-20.54
-11.71
-3.14
4.51
10.91
15.96
19.63
21.91
22.8
22.5
21.38
19.99
18.83
18.22
18.17
18.44
18.69
18.67
18.28
17.62
16.83
15.99
15.06
13.85
12.19
9.95
7.19
4.1
0.97
-1.94
-4.5
-6.75
-8.9
-11.29
-14.28
-18.08
-22.65
-27.51
-31.82
-34.51
-34.66
-31.8
-26.15
-18.5
-9.97
-1.63
5.77
11.83
16.46
19.67
21.5
22.03
21.45
20.09
18.39
16.8
15.62
15.02
14.91
15.12
15.45
15.74
15.9
15.89
15.67
15.17
14.24
12.68
10.37
7.3
3.66
-0.23
-4.02
-7.47
-10.59
-13.63
-16.96
-20.88
-25.38
-29.96
-33.8
-35.88
-35.4
-32.03
-26.08
-18.34
-9.84
-1.55
5.8
11.8
16.27
19.17
20.53
20.49
19.29
17.34
15.1
12.98
11.3
10.17
9.59
9.45
9.6
9.91
10.22
10.33
10.04
9.15
7.49
5.04
1.92
-1.59
-5.2
-8.62
-11.76
-14.67
-17.64
-21.02
-25.12
-29.97
-35.19
-39.94
-43.16
-43.8
-41.26
-35.6
-27.54
-18.27
-9.02
-0.8
5.79
10.56
13.59
15.03
15.15
14.26
12.8
11.25
10.09
9.59
9.83
10.58
11.49
12.24
12.64
12.67
12.45
12.07
11.53
10.66
9.22
7.01
4.01
0.39
-3.5
-7.35
-10.96
-14.35
-17.71
-21.39
-25.73
-30.88
-36.65
-42.42
-47.21
-49.92
-49.64
-45.96
-39.13
-29.95
-19.54
-9.08
0.47
8.51
14.76
19.18
21.97
23.38
23.78
23.57
23.14
22.81
22.83
23.25
24.01
24.88
25.58
25.92
25.78
25.22
24.35
23.25
21.89
20.11
17.73
14.61
10.78
6.4
1.81
-2.65
-6.73
-10.44
-14.01
-17.88
-22.45
-27.84
-33.71
-39.21
-43.15
-44.41
-42.28
-36.77
-28.57
-18.82
-8.71
0.8
9.13
15.99
21.25
24.84
26.77
27.16
26.37
24.95
23.5
22.49
22.15
22.41
23.02
23.68
24.21
24.53
24.68
24.7
24.54
24.03
22.94
21.1
18.44
15.11
11.35
7.45
3.59
-0.13
-3.78
-7.5
-11.49
-15.98
-21.1
-26.77
-32.58
-37.74
-41.2
-41.92
-39.28
-33.32
-24.77
-14.84
-4.85
4.17
11.61
17.27
21.21
23.56
24.48
24.18
23.01
21.47
20.1
19.29
19.21
19.75
20.58
21.37
21.87
22.0
21.74
21.07
19.96
18.31
16.09
13.32
10.1
6.63
3.07
-0.48
-4.02
-7.67
-11.67
-16.28
-21.59
-27.39
-33.09
-37.7
-40.06
-39.28
-35.03
-27.72
-18.37
-8.26
1.45
10.01
17.02
22.36
26.01
27.94
28.21
27.07
25.02
22.7
20.74
19.52
19.14
19.37
19.85
20.25
20.35
20.08
19.43
18.35
16.7
14.33
11.13
7.2
2.78
-1.74
-6.05
-9.98
-13.57
-17.03
-20.73
-25.02
-30.12
-35.91
-41.81
-46.74
-49.47
-48.94
-44.71
-37.1
-27.15
-16.19
-5.44
4.22
12.32
18.65
23.13
25.71
26.52
25.88
24.35
22.54
20.98
19.97
19.56
19.62
19.94
20.31
20.59
20.68
20.52
20.06
19.23
17.92
16.03
13.46
10.18
6.34
2.18
-2.0
-6.0
-9.78
-13.6
-17.87
-22.98
-29.04
-35.62
-41.79
-46.28
-47.91
-45.96
-40.44
-32.07
-22.03
-11.61
-1.86
6.53
13.27
18.29
21.64
23.48
24.04
23.68
22.8
21.82
21.07
20.75
20.88
21.36
21.95
22.43
22.61
22.42
21.85
20.9
19.54
17.66
15.16
12.02
8.32
4.26
0.11
-3.95
-7.85
-11.69
-15.76
-20.36
-25.67
-31.55
-37.42
-42.33
-45.12
-44.81
-40.93
-33.75
-24.22
-13.72
-3.63
5.0
11.64
16.24
19.08
20.5
20.8
20.23
19.02
17.44
15.84
14.55
13.82
13.7
14.05
14.58
14.95
14.87
14.2
12.89
11.02
8.72
6.12
3.32
0.37
-2.69
-5.84
-9.08
-12.49
-16.21
-20.47
-25.34
-30.64
-35.74
-39.67
-41.32
-39.83
-34.96
-27.2
-17.67
-7.78
1.27
8.7
14.26
18.07
20.38
21.4
21.26
20.08
18.13
15.87
13.87
12.6
12.32
12.92
14.04
15.16
15.83
15.73
14.81
13.15
10.94
8.37
5.55
2.53
-0.67
-4.02
-7.53
-11.26
-15.37
-20.04
-25.3
-30.83
-35.87
-39.36
-40.17
-37.62
-31.72
-23.24
-13.41
-3.61
5.07
12.05
17.14
20.5
22.35
22.9
22.39
21.07
19.28
17.42
15.86
14.85
14.45
14.56
14.94
15.3
15.36
14.87
13.63
11.58
8.8
5.52
2.02
-1.46
-4.77
-7.96
-11.15
-14.53
-18.31
-22.69
-27.68
-33.05
-38.16
-41.98
-43.36
-41.44
-35.97
-27.56
-17.41
-6.99
2.45
10.17
15.94
19.89
22.27
23.4
23.55
23.05
22.22
21.37
20.72
20.37
20.27
20.24
20.1
19.71
19.02
18.02
16.75
15.21
13.27
10.85
7.9
4.5
0.86
-2.77
-6.22
-9.51
-12.77
-16.32
-20.46
-25.37
-31.01
-36.92
-42.23
-45.81
-46.55
-43.76
-37.48
-28.54
-18.27
-8.08
0.95
8.3
13.94
18.05
20.86
22.47
23.04
22.8
22.13
21.52
21.27
21.46
21.92
22.35
22.47
22.26
21.84
21.39
21.04
20.72
20.22
19.22
17.46
14.84
11.5
7.75
3.98
0.49
-2.6
-5.44
-8.37
-11.8
-16.09
-21.32
-27.22
-33.07
-37.84
-40.39
-39.84
-35.88
-28.94
-20.06
-10.56
-1.65
5.87
11.73
16.01
18.91
20.66
21.38
21.24
20.5
19.49
18.62
18.17
18.24
18.72
19.37
19.95
20.27
20.3
20.07
19.59
18.77
17.46
15.48
12.74
9.37
5.71
2.16
-0.94
-3.45
-5.49
-7.4
-9.58
-12.42
-16.12
-20.57
-25.33
-29.62
-32.46
-32.94
-30.49
-25.08
-17.35
-8.35
0.69
8.71
15.0
19.33
21.77
22.63
22.29
21.12
19.5
17.75
16.13
14.82
13.89
13.28
12.91
12.71
12.62
12.59
12.49
12.12
11.24
9.7
7.46
4.67
1.58
-1.58
-4.68
-7.71
-10.74
-13.88
-17.27
-21.05
-25.33
-30.04
-34.77
-38.73
-40.94
-40.49
-36.96
-30.59
-22.23
-13.08
-4.29
3.3
9.29
13.65
16.59
18.39
19.32
19.6
19.42
18.92
18.26
17.58
17.02
16.72
16.7
16.91
17.2
17.34
17.09
16.22
14.6
12.22
9.18
5.7
2.02
-1.68
-5.26
-8.74
-12.23
-15.93
-20.08
-24.88
-30.34
-36.12
-41.49
-45.42
-46.85
-45.02
-39.84
-31.9
-22.39
-12.68
-3.89
3.32
8.8
12.75
15.42
17.0
17.65
17.57
17.06
16.53
16.29
16.45
16.8
17.01
16.82
16.23
15.48
14.89
14.65
14.64
14.46
13.61
11.73
8.82
5.18
1.31
-2.31
-5.41
-8.0
-10.36
-12.91
-16.11
-20.25
-25.32
-30.93
-36.31
-40.39
-42.13
-40.77
-36.13
-28.68
-19.35
-9.36
0.19
8.52
15.23
20.2
23.54
25.4
25.99
25.58
24.53
23.26
22.14
21.45
21.26
21.42
21.65
21.67
21.26
20.42
19.3
18.12
17.1
16.28
15.48
14.43
12.82
10.46
7.44
4.03
0.62
-2.45
-5.07
-7.36
-9.67
-12.42
-15.99
-20.54
-25.93
-31.66
-36.92
-40.74
-42.2
-40.71
-36.21
-29.17
-20.49
-11.24
-2.38
5.41
11.75
16.48
19.63
21.29
21.66
21.06
19.91
18.74
17.96
17.81
18.28
19.1
19.85
20.16
19.83
18.87
17.54
16.16
14.96
13.97
13.0
11.76
9.96
7.49
4.43
1.09
-2.18
-5.12
-7.63
-9.85
-12.05
-14.6
-17.81
-21.84
-26.53
-31.34
-35.38
-37.66
-37.32
-34.04
-28.13
-20.41
-11.96
-3.82
3.32
9.09
13.4
16.21
17.58
17.58
16.49
14.77
12.97
11.62
11.02
11.2
11.93
12.83
13.54
13.8
13.58
13.0
12.23
11.37
10.35
9.0
7.04
4.33
0.94
-2.89
-6.74
-10.22
-13.08
-15.35
-17.22
-19.08
-21.37
-24.39
-28.22
-32.55
-36.69
-39.7
-40.6
-38.72
-33.95
-26.76
-18.11
-9.06
-0.53
6.92
13.05
17.77
21.06
22.85
23.21
22.36
20.72
18.86
17.3
16.37
16.15
16.44
16.93
17.24
17.12
16.47
15.37
14.03
12.64
11.28
9.86
8.13
5.87
2.97
-0.48
-4.18
-7.79
-11.01
-13.69
-15.9
-17.9
-20.04
-22.73
-26.31
-30.85
-36.02
-41.07
-44.89
-46.35
-44.69
-39.79
-32.24
-23.12
-13.65
-4.81
2.8
8.99
13.73
17.04
18.96
19.61
19.24
18.31
17.32
16.74
16.85
17.65
18.93
20.32
21.42
21.95
21.79
21.01
19.83
18.45
17.01
15.47
13.7
11.55
8.94
5.99
2.85
-0.25
-3.17
-5.89
-8.45
-11.0
-13.64
-16.55
-19.88
-23.78
-28.26
-33.05
-37.55
-40.87
-42.03
-40.35
-35.66
-28.45
-19.71
-10.62
-2.16
5.04
10.76
14.97
17.75
19.15
19.24
18.27
16.68
14.98
13.63
12.91
12.76
12.91
13.04
12.89
12.38
11.59
10.68
9.69
8.59
7.25
5.52
3.36
0.86
-1.78
-4.33
-6.64
-8.69
-10.62
-12.67
-15.08
-18.08
-21.73
-25.91
-30.21
-33.95
-36.27
-36.41
-33.91
-28.87
-21.89
-13.92
-5.98
1.16
7.03
11.49
14.54
16.25
16.7
16.05
14.59
12.72
10.85
9.29
8.18
7.51
7.18
7.09
7.13
7.15
6.95
6.31
5.05
3.19
0.87
-1.64
-4.15
-6.55
-8.86
-11.19
-13.6
-16.2
-19.11
-22.51
-26.48
-30.88
-35.18
-38.51
-39.9
-38.59
-34.39
-27.76
-19.64
-11.15
-3.24
3.55
8.99
13.08
15.86
17.35
17.61
16.76
15.17
13.31
11.7
10.72
10.52
10.92
11.57
12.06
12.09
11.52
10.37
8.75
6.73
4.35
1.6
-1.44
-4.66
-7.86
-10.84
-13.55
-16.12
-18.89
-22.27
-26.55
-31.59
-36.82
-41.17
-43.47
-42.77
-38.7
-31.69
-22.76
-13.24
-4.34
3.18
9.03
13.32
16.27
18.11
18.99
19.02
18.39
17.39
16.37
15.63
15.35
15.53
16.03
16.61
17.05
17.13
16.67
15.51
13.55
10.81
7.39
3.52
-0.53
-4.47
-8.09
-11.31
-14.26
-17.19
-20.48
-24.47
-29.29
-34.63
-39.8
-43.75
-45.43
-44.1
-39.59
-32.35
-23.34
-13.65
-4.28
4.09
11.11
16.67
20.79
23.56
25.07
25.55
25.3
24.67
24.03
23.62
23.56
23.8
24.22
24.67
25.01
25.07
24.71
23.72
21.93
19.27
15.83
11.88
7.79
3.93
0.5
-2.48
-5.17
-7.84
-10.82
-14.39
-18.76
-23.91
-29.45
-34.58
-38.15
-39.07
-36.62
-30.79
-22.34
-12.54
-2.75
5.99
13.12
18.55
22.45
25.05
26.51
26.99
26.72
26.01
25.27
24.8
24.79
25.19
25.8
26.35
26.63
26.56
26.12
25.34
24.17
22.51
20.18
17.15
13.47
9.41
5.32
1.51
-1.84
-4.71
-7.24
-9.66
-12.24
-15.27
-19.0
-23.56
-28.71
-33.85
-37.95
-39.9
-38.83
-34.54
-27.54
-18.93
-9.95
-1.59
5.58
11.37
15.81
18.89
20.57
20.92
20.16
18.82
17.5
16.74
16.75
17.41
18.39
19.31
19.99
20.36
20.54
20.56
20.36
19.77
18.58
16.72
14.24
11.41
8.51
5.83
3.45
1.27
-0.99
-3.73
-7.31
-11.82
-17.02
-22.21
-26.38
-28.47
-27.67
-23.77
-17.24
-9.11
-0.64
7.07
13.28
17.76
20.6
22.06
22.4
21.83
20.58
18.93
17.23
15.8
14.83
14.32
14.06
13.78
13.24
12.35
11.14
9.65
7.91
5.82
3.29
0.24
-3.21
-6.82
-10.3
-13.47
-16.31
-19.01
-21.92
-25.37
-29.62
-34.68
-40.23
-45.59
-49.78
-51.71
-50.52
-45.89
-38.23
-28.59
-18.31
-8.64
-0.36
6.24
11.33
15.19
18.07
20.08
21.26
21.71
21.62
21.31
21.08
21.08
21.3
21.56
21.68
21.55
21.18
20.66
20.05
19.28
18.12
16.28
13.55
9.91
5.63
1.21
-2.88
-6.29
-9.03
-11.41
-13.97
-17.23
-21.52
-26.73
-32.31
-37.31
-40.58
-41.15
-38.47
-32.71
-24.64
-15.51
-6.53
1.39
7.87
12.97
16.9
19.84
21.84
22.89
23.07
22.69
22.1
21.68
21.58
21.75
21.98
22.01
21.71
21.06
20.17
19.16
18.08
16.86
15.32
13.27
10.61
7.42
3.99
0.68
-2.19
-4.53
-6.49
-8.5
-11.02
-14.45
-18.88
-24.04
-29.27
-33.7
-36.37
-36.55
-33.93
-28.71
-21.52
-13.31
-5.03
2.52
8.88
13.85
17.49
19.95
21.39
21.98
21.87
21.31
20.59
20.02
19.78
19.89
20.18
20.4
20.39
20.13
19.69
19.11
18.34
17.2
15.51
13.19
10.36
7.24
4.11
1.12
-1.65
-4.28
-6.91
-9.77
-13.11
-17.13
-21.79
-26.71
-31.18
-34.27
-35.13
-33.33
-28.9
-22.4
-14.63
-6.47
1.36
8.34
14.14
18.52
21.38
22.72
22.67
21.59
19.99
18.43
17.38
17.07
17.46
18.25
19.08
19.67
19.88
19.74
19.34
18.73
17.9
16.76
15.18
13.09
10.44
7.28
3.81
0.33
-2.71
-4.77
-5.42
-4.42
-1.82
2.0
6.48
10.98
14.87
17.72
19.24
19.37
18.25
16.17
13.54
10.84
8.5
6.79
5.83
5.51
5.58
5.72
5.62
5.13
4.2
2.95
1.51
0.04
-1.46
-3.04
-4.89
-7.14
-9.86
-12.92
-16.05
-18.88
-21.08
-22.47
-23.14
-23.4
-23.72
-24.63
-26.56
-29.76
-34.24
-39.67
-45.41
-50.5
-53.86
-54.51
-51.85
-45.9
-37.27
-27.02
-16.33
-6.19
2.69
9.97
15.52
19.33
21.52
22.32
22.09
21.29
20.38
19.66
19.24
19.07
18.96
18.77
18.41
17.85
17.13
16.28
15.32
14.19
12.84
11.15
9.05
6.53
3.64
0.54
-2.64
-5.87
-9.22
-12.89
-17.08
-21.83
-26.91
-31.74
-35.46
-37.18
-36.21
-32.34
-25.95
-17.91
-9.34
-1.28
5.57
10.93
14.82
17.44
18.99
19.63
19.49
18.75
17.63
16.36
15.16
14.14
13.34
12.71
12.14
11.5
10.66
9.51
8.02
6.17
4.05
1.74
-0.65
-3.01
-5.29
-7.47
-9.6
-11.82
-14.36
-17.51
-21.47
-26.27
-31.54
-36.5
-40.06
-41.16
-39.13
-33.93
-26.28
-17.35
-8.42
-0.46
6.0
10.91
14.48
16.95
18.52
19.31
19.41
18.96
18.16
17.25
16.47
15.97
15.75
15.73
15.69
15.39
14.66
13.43
11.73
9.71
7.49
5.18
2.84
0.5
-1.82
-4.1
-6.34
-8.62
-11.11
-14.14
-17.98
-22.66
-27.8
-32.59
-35.92
-36.76
-34.54
-29.37
-22.02
-13.63
-5.34
2.04
8.11
12.79
16.18
18.33
19.3
19.18
18.12
16.44
14.51
12.72
11.35
10.55
10.31
10.49
10.85
11.1
10.99
10.34
9.11
7.34
5.14
2.69
0.15
-2.39
-4.91
-7.5
-10.37
-13.79
-17.97
-22.89
-28.14
-32.93
-36.26
-37.17
-35.1
-30.13
-22.89
-14.44
-5.9
1.82
8.2
13.05
16.42
18.39
19.05
18.49
16.95
14.83
12.66
10.93
9.97
9.82
10.26
10.88
11.32
11.3
10.72
9.59
7.97
5.97
3.66
1.12
-1.6
-4.49
-7.62
-11.09
-15.08
-19.68
-24.89
-30.41
-35.67
-39.78
-41.83
-41.08
-37.3
-30.87
-22.66
-13.82
-5.39
1.95
7.9
12.45
15.71
17.77
18.7
18.66
17.96
16.99
16.16
15.74
15.75
16.06
16.43
16.62
16.45
15.79
14.62
12.95
10.89
8.56
6.08
3.54
0.93
-1.83
-4.9
-8.45
-12.64
-17.52
-23.0
-28.71
-33.98
-37.94
-39.64
-38.43
-34.13
-27.17
-18.46
-9.12
-0.2
7.56
13.81
18.47
21.66
23.57
24.4
24.4
23.87
23.09
22.37
21.9
21.76
21.88
22.11
22.23
22.0
21.29
19.99
18.09
15.65
12.78
9.63
6.37
3.13
0.01
-3.02
-6.08
-9.4
-13.24
-17.78
-23.04
-28.68
-34.05
-38.14
-39.93
-38.64
-34.04
-26.62
-17.38
-7.57
1.66
9.55
15.76
20.27
23.24
24.88
25.46
25.28
24.72
24.15
23.85
23.97
24.43
24.99
25.4
25.43
24.97
24.03
22.66
20.91
18.69
15.92
12.5
8.52
4.22
-0.03
-3.91
-7.28
-10.29
-13.31
-16.77
-20.98
-25.92
-31.19
-36.0
-39.36
-40.32
-38.23
-33.01
-25.2
-15.83
-6.15
2.73
10.08
15.65
19.51
21.95
23.2
23.49
23.0
21.99
20.75
19.61
18.86
18.6
18.76
19.13
19.4
19.24
18.45
16.96
14.91
12.49
9.95
7.39
4.8
2.05
-1.01
-4.46
-8.31
-12.53
-17.01
-21.54
-25.67
-28.75
-30.04
-28.93
-25.22
-19.26
-11.87
-4.06
3.24
9.41
14.21
17.66
19.9
21.07
21.3
20.73
19.6
18.23
16.98
16.18
15.95
16.2
16.6
16.73
16.24
14.99
13.06
10.72
8.26
5.87
3.57
1.27
-1.19
-3.93
-7.11
-10.84
-15.17
-19.97
-24.85
-29.11
-31.85
-32.22
-29.78
-24.61
-17.39
-9.17
-1.01
6.25
12.15
16.54
19.45
20.97
21.18
20.23
18.43
16.24
14.21
12.77
12.13
12.18
12.57
12.88
12.79
12.16
11.05
9.63
8.03
6.36
4.6
2.69
0.56
-1.87
-4.65
-7.81
-11.39
-15.43
-19.84
-24.31
-28.25
-30.85
-31.3
-29.04
-24.04
-16.87
-8.53
-0.17
7.19
12.95
16.92
19.26
20.23
20.15
19.22
17.68
15.78
13.82
12.13
10.96
10.39
10.36
10.63
10.89
10.86
10.38
9.36
7.86
5.94
3.7
1.24
-1.36
-4.05
-6.77
-9.53
-12.45
-15.7
-19.48
-23.78
-28.27
-32.21
-34.66
-34.76
-32.02
-26.63
-19.27
-11.0
-2.87
4.32
10.06
14.15
16.57
17.43
16.93
15.43
13.34
11.1
9.13
7.77
7.2
7.38
8.06
8.8
9.15
8.77
7.6
5.85
3.87
1.96
0.2
-1.52
-3.47
-5.92
-9.06
-12.95
-17.47
-22.34
-27.03
-30.77
-32.73
-32.24
-29.04
-23.38
-16.03
-7.98
-0.19
6.61
12.07
16.05
18.55
19.57
19.15
17.48
14.93
12.04
9.41
7.52
6.57
6.43
6.75
7.1
7.15
6.72
5.82
4.55
2.98
1.13
-1.01
-3.48
-6.33
-9.62
-13.43
-17.82
-22.71
-27.75
-32.28
-35.37
-36.13
-33.95
-28.81
-21.31
-12.52
-3.65
4.3
10.72
15.39
18.36
19.76
19.75
18.51
16.35
13.75
11.27
9.43
8.51
8.46
8.91
9.32
9.24
8.47
7.04
5.17
3.06
0.84
-1.47
-3.98
-6.82
-10.17
-14.15
-18.8
-24.0
-29.33
-34.11
-37.45
-38.47
-36.63
-31.91
-24.91
-16.64
-8.25
-0.65
5.66
10.59
14.26
16.82
18.32
18.71
18.04
16.53
14.6
12.79
11.46
10.75
10.51
10.39
10.06
9.32
8.15
6.66
5.02
3.3
1.47
-0.6
-3.11
-6.23
-10.09
-14.74
-20.09
-25.85
-31.49
-36.21
-39.09
-39.33
-36.49
-30.71
-22.73
-13.65
-4.63
3.46
10.13
15.27
18.98
21.37
22.52
22.55
21.63
20.03
18.16
16.42
15.13
14.45
14.31
14.47
14.57
14.26
13.31
11.7
9.59
7.27
4.95
2.68
0.29
-2.47
-5.83
-9.88
-14.51
-19.52
-24.55
-29.22
-32.95
-35.1
-35.01
-32.24
-26.79
-19.2
-10.45
-1.71
6.04
12.19
16.6
19.45
21.07
21.75
21.7
21.11
20.2
19.22
18.39
17.91
17.82
18.02
18.26
18.29
17.88
16.89
15.3
13.17
10.56
7.6
4.42
1.18
-1.95
-4.83
-7.46
-10.03
-12.86
-16.3
-20.54
-25.41
-30.39
-34.53
-36.84
-36.49
-33.13
-27.01
-18.91
-9.91
-1.06
6.84
13.35
18.35
21.88
24.08
25.14
25.27
24.79
24.07
23.44
23.13
23.18
23.43
23.64
23.6
23.2
22.47
21.54
20.55
19.53
18.39
16.95
15.04
12.58
9.69
6.57
3.51
0.71
-1.75
-4.01
-6.37
-9.19
-12.83
-17.41
-22.73
-28.21
-32.93
-35.81
-35.96
-32.95
-27.02
-19.01
-10.06
-1.28
6.55
13.0
17.9
21.2
22.84
22.91
21.71
19.79
17.87
16.57
16.18
16.58
17.33
17.96
18.12
17.75
17.0
16.04
15.01
13.86
12.45
10.59
8.2
5.34
2.27
-0.71
-3.35
-5.6
-7.56
-9.5
-11.71
-14.42
-17.74
-21.59
-25.72
-29.66
-32.73
-34.21
-33.47
-30.21
-24.58
-17.17
-8.89
-0.75
6.4
12.0
15.81
17.91
18.55
18.06
16.81
15.13
13.34
11.76
10.61
10.06
10.1
10.62
11.33
11.93
12.13
11.7
10.57
8.8
6.58
4.18
1.84
-0.34
-2.35
-4.31
-6.35
-8.64
-11.28
-14.35
-17.83
-21.51
-24.96
-27.49
-28.32
-26.81
-22.77
-16.51
-8.89
-0.96
6.27
12.13
16.33
18.91
20.09
20.11
19.22
17.66
15.7
13.68
11.93
10.69
10.06
9.97
10.21
10.49
10.53
10.15
9.2
7.69
5.61
3.04
0.08
-3.1
-6.28
-9.28
-11.98
-14.4
-16.76
-19.42
-22.7
-26.71
-31.15
-35.3
-38.13
-38.67
-36.32
-31.09
-23.63
-14.96
-6.23
1.67
8.18
13.12
16.5
18.49
19.26
19.07
18.22
17.06
15.92
15.06
14.58
14.42
14.38
14.27
13.92
13.26
12.28
11.04
9.55
7.81
5.8
3.48
0.88
-1.93
-4.85
-7.75
-10.57
-13.35
-16.28
-19.64
-23.66
-28.39
-33.43
-37.97
-40.96
-41.44
-38.9
-33.47
-25.89
-17.24
-8.62
-0.85
5.57
10.49
13.94
16.06
17.05
17.19
16.8
16.22
15.76
15.58
15.67
15.92
16.12
16.12
15.84
15.36
14.77
14.16
13.48
12.57
11.19
9.14
6.36
3.01
-0.63
-4.2
-7.44
-10.24
-12.73
-15.2
-18.04
-21.55
-25.85
-30.72
-35.62
-39.69
-42.01
-41.77
-38.54
-32.47
-24.25
-14.92
-5.65
2.65
9.43
14.57
18.2
20.59
21.97
22.55
22.48
21.98
21.36
20.9
20.86
21.28
21.98
22.63
22.88
22.52
21.55
20.18
18.7
17.34
16.14
14.96
13.56
11.75
9.45
6.71
3.69
0.56
-2.5
-5.36
