-50.59
-54.82
-56.61
-55.23
-50.56
-43.15
-34.09
-24.57
-15.57
-7.56
-0.57
5.58
11.03
15.77
19.65
22.53
24.43
25.56
26.23
26.75
27.27
27.74
28.03
27.96
27.47
26.64
25.66
24.76
24.05
23.47
22.84
21.86
20.28
17.96
14.93
11.38
7.62
3.96
0.6
-2.43
-5.34
-8.5
-12.3
-17.05
-22.76
-29.09
-35.33
-40.51
-43.67
-44.05
-41.37
-35.91
-28.46
-20.09
-11.78
-4.28
2.1
7.29
11.33
14.23
15.92
16.32
15.51
13.81
11.72
9.78
8.46
7.87
7.91
8.27
8.64
8.91
9.17
9.6
10.37
11.36
12.2
12.38
11.48
9.36
6.27
2.68
-0.87
-4.04
-6.78
-9.32
-12.07
-15.43
-19.71
-25.0
-31.12
-37.56
-43.49
-47.86
-49.67
-48.26
-43.55
-36.11
-26.99
-17.41
-8.36
-0.4
6.38
12.15
17.12
21.35
24.73
27.1
28.43
28.95
29.07
29.17
29.45
29.8
29.93
29.53
28.44
26.8
24.86
22.86
20.78
18.4
15.4
11.58
6.96
1.81
-3.45
-8.43
-12.89
-16.78
-20.28
-23.71
-27.47
-31.88
-37.09
-42.91
-48.84
-54.06
-57.64
-58.73
-56.8
-51.78
-44.12
-34.65
-24.41
-14.33
-5.09
2.98
9.78
15.38
19.84
23.21
25.56
27.03
27.83
28.2
28.33
28.29
28.07
27.59
26.86
25.91
24.88
23.9
23.05
22.26
21.3
19.84
17.56
14.34
10.31
5.84
1.42
-2.56
-6.03
-9.22
-12.6
-16.67
-21.76
-27.87
-34.56
-41.04
-46.26
-49.13
-48.84
-45.12
-38.36
-29.5
-19.77
-10.23
-1.64
5.72
11.9
17.01
21.15
24.32
26.5
27.8
28.43
28.69
28.85
29.05
29.25
29.31
29.08
28.48
27.57
26.52
25.51
24.58
23.6
22.26
20.22
17.3
13.55
9.27
4.9
0.79
-2.88
-6.23
-9.5
-13.0
-16.98
-21.59
-26.88
-32.76
-38.89
-44.61
-48.98
-50.95
-49.7
-45.01
-37.35
-27.83
-17.8
-8.45
-0.49
5.87
10.81
14.63
17.6
19.86
21.5
22.58
23.19
23.43
23.38
23.1
22.62
22.0
21.34
20.78
20.37
20.08
19.69
18.94
17.56
15.45
12.65
9.42
6.04
2.7
-0.53
-3.73
-7.04
-10.7
-14.91
-19.86
-25.56
-31.65
-37.36
-41.6
-43.25
-41.57
-36.48
-28.67
-19.3
-9.63
-0.65
7.08
13.37
18.26
21.83
24.15
25.31
25.47
24.91
23.96
22.93
22.04
21.37
20.84
20.32
19.67
18.81
17.79
16.63
15.35
13.87
12.01
9.58
6.53
3.0
-0.7
-4.21
-7.28
-9.97
-12.6
-15.71
-19.81
-25.19
-31.73
-38.84
-45.48
-50.39
-52.39
-50.75
-45.43
-37.16
-27.2
-16.92
-7.4
0.79
7.57
13.1
17.51
20.83
23.0
24.02
24.03
23.39
22.47
21.55
20.74
19.97
19.17
18.31
17.52
16.98
16.83
17.08
17.53
17.84
17.61
16.55
14.55
11.72
8.25
4.4
0.39
-3.66
-7.71
-11.87
-16.3
-21.16
-26.48
-31.98
-37.07
-40.84
-42.34
-40.9
-36.41
-29.42
-20.98
-12.28
-4.24
2.72
8.71
14.09
19.1
23.76
27.77
30.78
32.64
33.5
33.75
33.8
33.86
33.84
33.46
32.46
30.8
28.65
26.33
24.1
22.03
19.96
17.56
14.57
10.9
6.73
2.4
-1.65
-5.19
-8.16
-10.76
-13.31
-16.19
-19.68
-23.98
-29.14
-34.97
-41.01
-46.46
-50.4
-51.91
-50.51
-46.22
-39.63
-31.58
-22.91
-14.25
-5.93
1.85
8.94
15.08
20.04
23.68
26.06
27.41
28.08
28.38
28.49
28.46
28.3
28.01
27.59
27.11
26.57
25.95
25.14
24.02
22.45
20.36
17.74
14.68
11.33
7.87
4.45
1.15
-2.06
-5.32
-8.84
-12.82
-17.43
-22.64
-28.12
-33.19
-36.88
-38.27
-36.73
-32.21
-25.3
-17.0
-8.42
-0.43
6.53
12.33
17.08
20.9
23.89
26.05
27.44
28.16
28.37
28.26
27.96
27.51
26.86
25.92
24.69
23.26
21.83
20.58
19.55
18.58
17.37
15.66
13.36
10.68
7.94
5.42
3.2
1.08
-1.36
-4.54
-8.7
-13.77
-19.3
-24.52
-28.52
-30.45
-29.74
-26.27
-20.44
-13.04
-5.07
2.5
8.95
13.94
17.46
19.77
21.22
22.15
22.77
23.2
23.53
23.82
24.23
24.85
25.75
26.86
28.0
28.9
29.31
29.1
28.3
27.11
25.78
24.45
23.02
21.19
18.56
14.74
9.54
2.88
-5.2
-14.61
-25.09
-36.04
-46.4
-54.76
-59.73
-60.5
-57.19
-50.9
-43.28
-35.95
-29.89
-25.27
-21.67
-18.57
-15.75
-13.52
-12.54
-13.63
-17.49
-24.56
-34.97
-48.4
-63.94
-80.02
-94.65
-105.77
-111.78
-111.79
-105.76
-94.25
-78.32
-59.44
-39.45
-20.35
-3.94
8.66
17.19
21.9
23.08
20.7
14.57
4.98
-6.69
-18.03
-26.39
-29.99
-28.74
-24.12
-18.31
-12.98
-8.73
-5.09
-1.3
3.01
7.62
11.96
15.66
18.84
21.99
25.53
29.47
33.33
36.48
38.49
39.42
39.66
39.67
39.61
39.26
38.15
35.92
32.52
28.26
23.65
19.12
14.84
10.71
6.51
1.96
-3.23
-9.27
-16.21
-23.78
-31.21
-37.34
-40.79
-40.48
-36.05
-28.02
-17.62
-6.41
4.3
13.74
21.72
28.36
33.81
38.02
40.77
41.88
41.38
39.61
37.12
34.49
32.15
30.28
28.84
27.61
26.34
24.76
22.72
20.17
17.16
13.84
10.37
6.78
3.0
-1.18
-6.08
-11.96
-18.94
-26.87
-35.26
-43.16
-49.37
-52.61
-51.97
-47.22
-38.93
-28.34
-16.86
-5.74
4.33
13.12
20.71
27.13
32.25
35.79
37.55
37.52
36.04
33.78
31.41
29.52
28.28
27.55
26.9
25.83
23.96
21.16
17.54
13.39
8.98
4.51
-0.02
-4.72
-9.79
-15.45
-21.9
-29.23
-37.26
-45.44
-52.79
-58.04
-60.01
-57.95
-51.91
-42.73
-31.75
-20.41
-9.75
-0.27
7.98
15.14
21.23
26.1
29.54
31.45
32.0
31.62
30.8
29.97
29.28
28.64
27.81
26.53
24.65
22.21
19.3
16.09
12.74
9.3
5.76
2.02
-2.05
-6.62
-11.83
-17.8
-24.57
-32.02
-39.75
-47.02
-52.76
-55.83
-55.32
-50.88
-42.95
-32.58
-21.15
-9.98
0.07
8.64
15.75
21.6
26.3
29.86
32.22
33.36
33.4
32.57
31.18
29.57
27.98
26.6
25.48
24.54
23.6
22.38
20.58
17.96
14.43
10.06
5.14
0.04
-4.87
-9.4
-13.63
-17.92
-22.76
-28.64
-35.69
-43.54
-51.24
-57.47
-60.85
-60.37
-55.74
-47.4
-36.46
-24.34
-12.33
-1.35
8.21
16.37
23.32
29.2
34.01
37.62
39.93
41.04
41.2
40.74
39.93
38.9
37.64
36.16
34.5
32.84
31.32
29.95
28.52
26.63
23.86
19.96
15.02
9.39
3.61
-1.86
-6.76
-11.21
-15.63
-20.66
-26.86
-34.51
-43.33
-52.4
-60.36
-65.69
-67.21
-64.4
-57.62
-47.9
-36.65
-25.15
-14.23
-4.21
4.92
13.27
20.82
27.36
32.63
36.49
39.02
40.47
41.2
41.44
41.28
40.65
39.48
37.87
36.04
34.29
32.86
31.71
30.54
28.9
26.4
22.85
18.43
13.59
8.85
4.65
1.06
-2.17
-5.63
-9.99
-15.8
-23.24
-31.98
-41.2
-49.68
-56.05
-59.12
-58.18
-53.17
-44.76
-34.16
-22.82
-11.98
-2.39
5.73
12.57
18.42
23.45
27.58
30.65
32.53
33.28
33.15
32.49
31.61
30.66
29.69
28.69
27.65
26.55
25.33
23.84
21.92
19.38
16.15
12.27
7.92
3.31
-1.34
-5.91
-10.42
-15.1
-20.28
-26.3
-33.27
-40.84
-48.14
-53.86
-56.62
-55.46
-50.15
-41.32
-30.26
-18.43
-7.08
3.06
11.73
18.95
24.79
29.23
32.25
33.89
34.4
34.11
33.4
32.52
31.55
30.47
29.32
28.15
27.05
26.03
24.96
23.55
21.51
18.61
14.88
10.54
5.91
1.33
-3.04
-7.22
-11.41
-15.99
-21.38
-27.91
-35.63
-44.08
-52.28
-58.81
-62.26
-61.61
-56.62
-47.93
-36.81
-24.74
-13.0
-2.41
6.71
14.35
20.63
25.66
29.52
32.26
33.99
34.84
34.97
34.51
33.6
32.37
30.95
29.51
28.19
27.04
25.98
24.78
23.1
20.63
17.23
13.0
8.23
3.32
-1.38
-5.75
-9.87
-14.05
-18.73
-24.35
-31.13
-38.91
-47.0
-54.24
-59.2
-60.62
-57.82
-50.94
-40.88
-29.06
-16.91
-5.59
4.26
12.45
19.11
24.43
28.55
31.6
33.64
34.8
35.27
35.26
34.93
34.34
33.51
32.37
30.92
29.27
27.57
25.97
24.47
22.89
20.89
18.07
14.22
9.44
4.07
-1.37
-6.41
-10.87
-14.91
-19.0
-23.72
-29.58
-36.73
-44.83
-52.98
-59.82
-63.93
-64.15
-60.02
-51.95
-41.08
-28.86
-16.65
-5.39
4.51
12.95
20.03
25.79
30.2
33.25
35.02
35.75
35.82
35.56
35.17
34.68
33.96
32.87
31.37
29.64
27.95
26.54
25.43
24.3
22.67
20.06
16.25
11.4
5.95
0.51
-4.43
-8.66
-12.3
-15.73
-19.47
-24.02
-29.69
-36.44
-43.82
-50.91
-56.5
-59.34
-58.49
-53.63
-45.2
-34.28
-22.27
-10.52
0.06
9.01
16.35
22.25
26.89
30.34
32.62
33.81
34.18
34.08
33.86
33.72
33.64
33.41
32.81
31.74
30.32
28.79
27.36
26.09
24.77
23.03
20.5
16.98
12.53
7.45
2.17
-2.91
-7.54
-11.7
-15.63
-19.7
-24.39
-30.06
-36.78
-44.18
-51.4
-57.16
-60.12
-59.27
-54.29
-45.68
-34.6
-22.54
-10.87
-0.54
8.04
14.85
20.09
23.95
26.6
28.11
28.58
28.18
27.09
25.57
23.85
22.17
20.72
19.6
18.79
18.16
17.44
16.24
14.29
11.41
7.69
3.38
-1.17
-5.67
-10.0
-14.24
-18.67
-23.6
-29.29
-35.85
-43.13
-50.7
-57.86
-63.77
-67.66
-69.02
-67.71
-63.95
-58.17
-50.94
-42.87
-34.7
-27.37
-21.97
-19.47
-20.34
-24.25
-30.05
-36.09
-40.88
-43.68
-44.79
-45.3
-46.46
-48.94
-52.38
-55.39
-56.1
-53.0
-45.63
-35.14
-24.28
-17.04
-17.8
-30.07
-55.11
-90.8
-131.54
-169.14
-194.97
-202.42
-189.17
-157.95
-115.73
-71.27
-32.11
-2.27
18.39
33.09
45.93
59.79
75.36
91.54
106.73
119.96
131.25
140.97
149.05
154.49
155.8
152.02
143.57
132.47
121.47
113.06
108.31
106.59
105.89
103.84
98.69
90.16
79.59
69.32
61.7
57.98
57.67
58.67
58.1
53.47
43.69
29.42
12.69
-4.09
-19.04
-31.4
-41.3
-49.07
-54.57
-56.96
-55.15
-48.53
-37.74
-24.72
-12.13
-2.34
3.47
5.58
5.37
4.52
4.22
4.91
6.4
8.27
10.22
12.17
14.12
16.02
17.61
18.5
18.33
16.99
14.61
11.62
8.46
5.44
2.69
0.13
-2.35
-4.83
-7.29
-9.72
-12.15
-14.78
-17.81
-21.29
-24.91
-27.99
-29.62
-29.03
-25.85
-20.32
-13.15
-5.27
2.51
9.71
16.25
22.29
27.93
33.09
37.37
40.26
41.35
40.53
38.1
34.63
30.79
27.09
23.82
20.94
18.28
15.65
12.96
10.28
7.78
5.62
3.81
2.19
0.38
-2.02
-5.39
-9.91
-15.54
-22.02
-28.8
-35.1
-39.97
-42.46
-41.97
-38.36
-32.08
-23.98
-15.07
-6.22
1.95
9.1
15.0
19.47
22.43
23.84
23.91
23.02
21.66
20.3
19.28
18.74
18.61
18.66
18.6
18.22
17.38
16.06
14.36
12.37
10.15
7.66
4.83
1.51
-2.51
-7.4
-13.31
-20.18
-27.69
-35.13
-41.51
-45.72
-46.84
-44.44
-38.72
-30.46
-20.73
-10.67
-1.13
7.32
14.44
20.13
24.33
27.04
28.34
28.46
27.75
26.65
25.5
24.52
23.68
22.83
21.73
20.22
18.22
15.8
13.14
10.43
7.84
5.41
3.01
0.41
-2.7
-6.6
-11.46
-17.24
-23.65
-30.07
-35.66
-39.46
-40.61
-38.64
-33.63
-26.23
-17.45
-8.38
0.07
7.4
13.46
18.39
22.32
25.3
27.24
28.07
27.77
26.55
24.78
22.88
21.17
19.71
18.36
16.87
15.04
12.83
10.36
7.79
5.28
2.82
0.35
-2.32
-5.36
-8.96
-13.27
-18.34
-24.03
-29.9
-35.14
-38.74
-39.74
-37.57
-32.27
-24.55
-15.57
-6.52
1.64
8.45
13.87
18.14
21.47
23.94
25.53
26.12
25.72
24.55
22.93
21.29
19.89
18.77
17.75
16.52
14.8
12.56
9.97
7.34
4.91
2.75
0.66
-1.67
-4.59
-8.29
-12.85
-18.16
-23.97
-29.84
-35.09
-38.92
-40.52
-39.36
-35.38
-29.01
-21.06
-12.45
-3.99
3.81
10.65
16.45
21.13
24.65
26.96
28.06
28.04
27.09
25.48
23.56
21.69
20.11
18.89
17.91
16.92
15.65
13.92
11.77
9.33
6.79
4.28
1.74
-1.01
-4.21
-8.06
-12.63
-17.87
-23.56
-29.35
-34.64
-38.67
-40.6
-39.75
-35.83
-29.17
-20.62
-11.35
-2.47
5.25
11.58
16.66
20.77
24.1
26.6
28.12
28.51
27.82
26.38
24.64
23.01
21.7
20.64
19.59
18.33
16.77
14.91
12.85
10.61
8.08
5.19
1.89
-1.68
-5.31
-8.84
-12.27
-15.8
-19.75
-24.37
-29.61
-35.05
-39.89
-43.2
-44.15
-42.25
-37.57
-30.7
-22.54
-14.06
-6.02
1.15
7.33
12.62
17.06
20.65
23.3
24.96
25.67
25.61
24.96
23.92
22.56
20.93
19.09
17.16
15.35
13.85
12.75
11.92
11.08
9.85
7.93
5.21
1.8
-2.0
-5.85
-9.49
-12.79
-15.89
-19.0
-22.46
-26.45
-30.98
-35.74
-40.13
-43.31
-44.45
-42.96
-38.73
-32.19
-24.16
-15.61
-7.37
0.1
6.61
12.25
17.09
21.08
24.13
26.12
27.08
27.2
26.78
26.15
25.5
24.86
24.12
23.16
21.94
20.54
19.18
18.02
17.12
16.37
15.46
14.04
11.84
8.79
5.05
0.95
-3.1
-6.83
-10.11
-13.04
-15.79
-18.6
-21.68
-25.19
-29.17
-33.52
-37.91
-41.73
-44.21
-44.57
-42.34
-37.56
-30.76
-22.83
-14.73
-7.15
-0.47
5.23
10.01
13.86
16.71
18.43
19.03
18.6
17.43
15.89
14.26
12.69
11.16
9.61
7.97
6.26
4.59
3.07
1.76
0.62
-0.48
-1.75
-3.36
-5.47
-8.1
-11.14
-14.21
-16.77
-18.16
-17.82
-15.47
-11.24
-5.6
0.68
6.8
12.03
15.85
18.0
18.49
17.57
15.66
13.27
10.89
8.84
7.31
6.36
5.98
6.13
6.69
7.51
8.37
9.11
9.59
9.8
9.78
9.56
9.13
8.37
7.17
5.48
3.37
1.07
-1.16
-3.11
-4.72
-6.11
-7.51
-9.19
-11.34
-14.0
-17.01
-20.11
-23.01
-25.54
-27.67
-29.6
-31.66
-34.19
-37.46
-41.48
-45.95
-50.22
-53.36
-54.4
-52.58
-47.65
-39.91
-30.26
-19.88
-9.93
-1.29
5.58
10.59
13.9
15.76
16.47
16.28
15.45
14.22
12.81
11.44
10.28
9.42
8.88
8.56
8.29
7.92
7.32
6.41
5.16
3.55
1.57
-0.75
-3.35
-6.11
-8.88
-11.56
-14.14
-16.79
-19.8
-23.45
-27.87
-32.78
-37.48
-40.97
-42.21
-40.53
-35.83
-28.71
-20.15
-11.3
-3.09
3.93
9.57
13.85
16.9
18.89
19.98
20.35
20.15
19.5
18.43
17.01
15.32
13.51
11.77
10.24
8.93
7.68
6.3
4.58
2.5
0.1
-2.46
-5.1
-7.83
-10.78
-14.13
-18.02
-22.55
-27.67
-33.22
-38.92
-44.35
-48.95
-52.09
-53.15
-51.68
-47.55
-41.04
-32.81
-23.83
-15.03
-7.16
-0.54
4.89
9.45
13.43
16.96
19.94
22.16
23.47
23.88
23.59
22.84
21.87
20.77
19.58
18.31
17.01
15.72
14.4
12.89
10.95
8.36
5.06
1.22
-2.91
-7.09
-11.21
-15.37
-19.81
-24.84
-30.64
-37.19
-44.08
-50.56
-55.6
-58.11
-57.36
-53.13
-45.88
-36.58
-26.39
-16.36
-7.13
1.02
8.11
14.27
19.57
24.02
27.58
30.19
31.85
32.59
32.52
31.79
30.55
29.0
27.29
25.58
23.97
22.58
21.44
20.5
19.53
18.17
15.99
12.68
8.19
2.89
-2.44
-6.8
-9.16
-8.88
-5.81
-0.35
6.7
14.43
21.96
28.6
33.85
37.41
39.17
39.2
37.85
35.63
33.13
30.92
29.37
28.63
28.61
29.02
29.48
29.61
29.13
27.99
26.35
24.52
22.76
21.14
19.53
17.68
15.42
12.73
9.88
7.18
4.86
2.88
0.96
-1.33
-4.29
-7.97
-12.19
-16.58
-20.82
-24.75
-28.4
-31.93
-35.58
-39.58
-44.22
-49.73
-56.18
-63.24
-70.01
-75.15
-77.17
-75.03
-68.5
-58.3
-45.83
-32.74
-20.39
-9.58
-0.55
6.8
12.72
17.4
20.95
23.44
24.97
25.68
25.77
25.46
24.93
24.31
23.67
23.01
22.3
21.51
20.55
19.32
17.7
15.59
12.99
9.93
6.54
2.95
-0.71
-4.38
-8.06
-11.95
-16.32
-21.46
-27.5
-34.11
-40.47
-45.39
-47.63
-46.4
-41.6
-33.94
-24.59
-14.84
-5.7
2.31
9.06
14.61
19.04
22.36
24.5
25.49
25.47
24.7
23.54
22.29
21.17
20.25
19.48
18.7
17.72
16.35
14.48
12.12
9.36
6.33
3.09
-0.34
-4.01
-8.01
-12.42
-17.29
-22.71
-28.66
-34.96
-41.09
-46.15
-49.08
-48.88
-45.14
-38.15
-28.9
-18.77
-8.98
-0.3
7.07
13.35
18.82
23.58
27.46
30.12
31.32
31.08
29.75
27.84
25.88
24.19
22.82
21.63
20.34
18.73
16.66
14.14
11.28
8.24
5.15
2.03
-1.2
-4.79
-8.98
-14.04
-20.1
-27.04
-34.42
-41.47
-47.17
-50.45
-50.49
-47.05
-40.56
-32.04
-22.75
-13.74
-5.59
1.64
8.18
14.22
19.73
24.47
28.13
30.56
31.83
32.23
32.03
31.43
30.47
29.13
27.47
25.64
23.9
22.46
21.45
20.75
20.02
18.78
16.54
12.97
8.09
2.38
-3.31
-7.81
-10.04
-9.22
-5.18
1.64
10.26
19.48
28.14
