27.09
36.45
43.42
48.08
50.56
51.15
50.4
49.01
47.62
46.67
46.3
46.45
46.94
47.59
48.21
48.55
48.28
46.95
44.16
39.64
33.39
25.69
17.13
8.42
0.22
-6.97
-13.03
-18.23
-23.23
-28.88
-36.03
-45.18
-56.17
-67.95
-78.66
-86.02
-87.9
-83.1
-71.78
-55.5
-36.8
-18.37
-2.32
10.26
19.34
25.59
29.93
33.19
36.06
39.03
42.55
46.92
52.23
58.26
64.53
70.41
75.45
79.44
82.58
85.25
87.77
90.19
92.14
92.91
91.68
87.89
81.34
72.4
61.79
50.44
39.24
28.91
19.8
11.86
4.6
-2.84
-11.49
-22.17
-35.16
-49.89
-64.92
-78.25
-87.8
-92.0
-90.24
-82.95
-71.5
-57.69
-43.33
-29.86
-18.16
-8.62
-1.24
4.13
7.76
9.93
11.0
11.33
11.3
11.26
11.44
11.96
12.78
13.76
14.73
15.53
16.04
16.19
15.85
14.8
12.67
9.12
4.02
-2.45
-9.72
-17.06
-23.84
-29.79
-35.1
-40.3
-46.14
-53.27
-62.06
-72.35
-83.35
-93.62
-101.34
-104.71
-102.44
-94.25
-80.92
-64.08
-45.8
-27.97
-12.02
1.22
11.39
18.53
22.86
24.88
25.29
24.92
24.63
25.05
26.43
28.65
31.29
33.84
35.89
37.21
37.75
37.49
36.36
34.16
30.69
25.81
19.67
12.71
5.63
-0.87
-6.3
-10.59
-14.13
-17.65
-22.08
-28.17
-36.33
-46.27
-56.86
-66.21
-72.06
-72.41
-66.2
-53.72
-36.58
-17.22
1.79
18.41
31.49
40.72
46.44
49.26
49.84
48.82
46.77
44.27
41.87
39.99
38.9
38.6
38.83
39.19
39.3
38.88
37.9
36.45
34.67
32.63
30.28
27.44
23.87
19.43
14.1
8.08
1.75
-4.42
-10.0
-14.85
-19.18
-23.55
-28.72
-35.42
-43.98
-54.06
-64.6
-73.9
-80.03
-81.39
-77.16
-67.54
-53.7
-37.42
-20.62
-4.93
8.59
19.48
27.73
33.65
37.65
40.08
41.29
41.55
41.17
40.48
39.76
39.24
39.0
38.96
38.94
38.72
38.09
36.9
35.11
32.72
29.88
26.78
23.6
20.44
17.25
13.86
10.08
5.81
1.17
-3.57
-8.12
-12.33
-16.27
-20.23
-24.64
-29.93
-36.45
-44.3
-53.16
-62.2
-70.03
-74.98
-75.59
-71.15
-62.07
-49.85
-36.66
-24.58
-15.01
-8.3
-3.86
-0.59
2.61
6.42
10.88
15.54
19.69
22.69
24.19
24.3
23.42
22.08
20.76
19.82
19.45
19.77
20.8
22.48
24.54
26.5
27.69
27.49
25.44
21.45
15.79
9.08
2.04
-4.64
-10.47
-15.24
-19.01
-22.09
-24.96
-28.19
-32.38
-38.07
-45.47
-54.28
-63.51
-71.52
-76.38
-76.41
-70.77
-59.78
-44.91
-28.25
-11.96
2.3
13.7
22.1
27.86
31.47
33.36
33.95
33.6
32.75
31.83
31.23
31.12
31.45
31.98
32.41
32.55
32.39
32.13
31.98
32.03
32.08
31.71
30.39
27.73
23.68
18.53
12.87
7.31
2.26
-2.2
-6.38
-10.81
-16.11
-22.7
-30.77
-40.0
-49.56
-58.15
-64.2
-66.27
-63.48
-55.85
-44.29
-30.39
-15.9
-2.33
9.35
18.67
25.53
30.01
32.28
32.6
31.44
29.39
27.09
25.06
23.57
22.67
22.25
22.14
22.15
22.11
21.86
21.28
20.27
18.79
16.78
14.19
10.93
6.98
2.44
-2.42
-7.23
-11.64
-15.54
-19.12
-22.79
-27.08
-32.44
-39.12
-47.03
-55.72
-64.29
-71.46
-75.7
-75.67
-70.62
-60.72
-47.12
-31.55
-15.85
-1.48
10.72
20.44
27.68
32.53
35.15
35.8
34.99
33.36
31.59
30.16
29.13
28.26
27.14
25.44
23.19
20.72
18.55
17.18
16.7
16.8
16.73
15.62
12.72
7.74
0.98
-6.77
-14.43
-20.95
-25.62
-28.28
-29.36
-29.75
-30.55
-32.78
-37.0
-43.11
-50.17
-56.63
-60.59
-60.41
-55.14
-44.91
-30.89
-14.94
0.91
15.0
26.28
34.36
39.28
41.36
41.07
39.04
36.02
32.81
30.09
28.21
27.15
26.53
25.92
24.98
23.61
21.96
20.28
18.7
17.21
15.54
13.33
10.25
6.16
1.16
-4.37
-9.95
-15.1
-19.52
-23.19
-26.46
-29.94
-34.39
-40.48
-48.47
-57.91
-67.57
-75.57
-79.89
-78.97
-72.25
-60.34
-44.9
-28.05
-11.88
2.04
12.84
20.29
24.65
26.43
26.22
24.7
22.5
20.21
18.26
16.94
16.31
16.31
16.76
17.46
18.23
18.88
19.17
18.78
17.46
15.09
11.79
7.94
4.02
0.4
-2.82
-5.88
-9.22
-13.36
-18.67
-25.27
-32.9
-40.85
-47.94
-52.72
-53.73
-49.96
-41.3
-28.61
-13.58
1.72
15.45
26.35
33.95
38.44
40.34
40.24
38.63
35.82
32.02
27.44
22.44
17.55
13.39
10.54
9.23
9.3
10.13
10.8
10.48
8.67
5.33
0.86
-4.12
-9.08
-13.74
-18.15
-22.59
-27.54
-33.42
-40.51
-48.68
-57.26
-64.98
-70.16
-71.18
-67.0
-57.59
-44.07
-28.41
-12.9
0.48
10.5
16.83
19.84
20.35
19.27
17.35
15.11
12.9
10.97
9.66
9.33
10.33
12.8
16.58
21.14
25.7
29.41
31.6
31.9
30.28
27.03
22.61
17.56
12.3
7.1
1.93
-3.45
-9.45
-16.34
-24.05
-31.85
-38.44
-42.16
-41.49
-35.71
-25.23
-11.64
2.75
15.65
25.48
31.67
34.64
35.34
34.75
33.51
31.87
29.89
27.56
24.95
22.26
19.72
17.49
15.65
14.26
13.3
12.67
12.16
11.44
10.09
7.78
4.4
0.11
-4.73
-9.72
-14.59
-19.35
-24.26
-29.79
-36.29
-43.88
-52.1
-59.86
-65.6
-67.67
-64.86
-56.83
-44.42
-29.27
-13.47
1.17
13.46
22.98
29.89
34.61
37.62
39.28
39.83
39.49
38.47
36.99
35.28
33.59
32.13
31.05
30.37
29.99
29.69
29.11
27.91
25.77
22.52
18.21
13.05
7.4
1.57
-4.25
-10.11
-16.28
-23.08
-30.67
-38.82
-46.8
-53.41
-57.26
-57.18
-52.6
-43.79
-31.9
-18.55
-5.45
6.18
15.73
23.18
28.84
32.99
35.76
37.16
37.23
36.14
34.32
32.27
30.49
29.3
28.78
28.77
28.95
28.87
28.07
26.24
23.27
19.31
14.76
10.08
5.68
1.71
-1.9
-5.49
-9.54
-14.58
-20.92
-28.48
-36.54
-43.72
-48.26
-48.54
-43.7
-34.11
-21.24
-7.23
5.87
16.7
24.81
30.41
33.98
35.87
36.22
35.09
32.71
29.61
26.48
23.97
22.43
21.83
21.8
21.85
21.57
20.7
19.19
17.05
14.3
10.95
6.94
2.26
-3.03
-8.77
-14.8
-21.0
-27.45
-34.37
-42.0
-50.24
-58.48
-65.4
-69.32
-68.69
-62.76
-51.91
-37.68
-22.26
-7.8
4.26
13.39
19.84
24.18
26.89
28.23
28.32
27.34
25.73
24.12
23.09
22.98
23.73
24.94
26.06
26.62
26.34
25.11
22.95
19.93
16.15
11.73
6.86
1.75
-3.43
-8.61
-13.89
-19.53
-25.95
-33.51
-42.31
-51.85
-60.99
-68.03
-71.21
-69.31
-62.12
-50.6
-36.5
-21.84
-8.31
3.09
11.99
18.57
23.19
26.27
28.25
29.49
30.32
30.96
31.5
31.93
32.26
32.52
32.78
33.07
33.31
33.29
32.71
31.23
28.6
24.71
19.61
13.53
6.83
-0.0
-6.43
-12.03
-16.63
-20.52
-24.49
-29.62
-36.86
-46.48
-57.69
-68.57
-76.6
-79.4
-75.58
-65.19
-49.71
-31.47
-12.9
4.12
18.57
30.19
39.14
45.72
50.16
52.65
53.5
53.23
52.53
52.06
52.21
52.95
53.86
54.35
53.94
52.38
49.82
46.55
42.93
39.19
35.37
31.38
27.04
22.19
16.75
10.73
4.29
-2.31
-8.78
-14.94
-20.76
-26.47
-32.49
-39.31
-47.36
-56.74
-67.06
-77.28
-85.87
-91.04
-91.27
-85.81
-75.01
-60.25
-43.5
-26.76
-11.44
1.78
12.86
22.0
29.37
34.94
38.63
40.51
40.89
40.4
39.73
39.48
39.96
41.23
43.13
45.41
47.75
49.79
51.11
51.28
49.94
46.98
42.53
36.94
30.7
24.28
18.09
12.52
8.04
5.17
4.5
6.43
11.01
17.82
26.0
34.45
42.04
47.86
51.31
52.1
50.27
46.21
40.57
34.22
28.14
23.25
20.19
19.23
20.22
22.58
25.5
28.13
29.76
30.04
28.97
26.92
24.4
21.86
19.55
17.38
15.06
12.27
8.87
4.97
0.96
-2.69
-5.73
-8.21
-10.52
-13.25
-16.84
-21.49
-27.02
-33.02
-39.05
-44.74
-49.94
-54.71
-59.3
-64.22
-70.08
-77.43
-86.42
-96.41
-105.87
-112.6
-114.35
-109.56
-98.06
-81.0
-60.65
-39.61
-20.12
-3.63
9.31
18.81
25.29
29.21
31.03
31.22
30.36
29.18
28.42
28.59
29.82
31.77
33.83
35.34
35.92
35.59
34.64
33.46
32.21
30.75
28.7
25.63
21.3
15.79
9.54
3.12
-2.87
-8.11
-12.59
-16.68
-21.02
-26.27
-32.99
-41.27
-50.62
-59.87
-67.37
-71.35
-70.44
-64.1
-52.86
-38.11
-21.8
-5.79
8.47
20.24
29.25
35.62
39.57
41.38
41.42
40.21
38.39
36.64
35.5
35.23
35.71
36.55
37.22
37.27
36.45
34.79
32.56
30.05
27.43
24.58
21.17
16.79
11.25
4.68
-2.44
-9.43
-15.72
-21.09
-25.73
-30.22
-35.28
-41.61
-49.64
-59.31
-69.91
-80.07
-87.94
-91.61
-89.69
-81.74
-68.48
-51.66
-33.45
-15.93
-0.58
11.92
21.52
28.52
33.32
36.27
37.67
37.91
37.48
36.97
36.88
37.46
38.58
39.81
40.62
40.61
39.66
37.94
35.82
33.6
31.39
29.01
26.06
22.09
16.82
10.31
2.95
-4.6
-11.66
-17.83
-23.07
-27.76
-32.53
-38.05
-44.82
-52.95
-62.04
-71.12
-78.73
-83.17
-83.0
-77.43
-66.69
-51.97
-35.12
-18.13
-2.68
10.15
19.92
26.65
30.65
32.43
32.65
32.03
31.29
30.98
31.37
32.41
33.74
34.84
35.24
34.63
33.03
30.75
28.29
26.09
24.36
22.87
21.05
18.23
13.93
8.13
1.32
-5.75
-12.29
-17.86
-22.42
-26.4
-30.46
-35.34
-41.59
-49.39
-58.31
-67.26
-74.58
-78.42
-77.3
-70.62
-58.88
-43.61
-26.83
-10.53
3.84
15.53
24.34
30.43
34.12
35.82
36.0
35.25
34.12
33.14
32.55
32.42
32.6
32.89
33.16
33.33
33.38
33.27
32.9
32.07
30.51
27.91
24.11
19.1
13.17
6.78
0.5
-5.29
-10.52
-15.51
-20.89
-27.39
-35.46
-44.96
-54.93
-63.72
-69.37
-70.16
-65.2
-54.78
-40.36
-24.01
-7.89
6.4
18.05
26.88
33.05
36.74
38.1
37.39
35.12
32.16
29.48
27.9
27.72
28.68
30.1
31.23
31.6
31.07
29.81
28.03
25.75
22.76
18.72
13.41
6.91
-0.32
-7.61
-14.31
-20.12
-25.14
-29.89
-35.08
-41.41
-49.34
-58.85
-69.39
-79.7
-88.04
-92.5
-91.53
-84.51
-72.0
-55.7
-37.87
-20.72
-5.71
6.55
16.23
23.87
29.91
34.56
37.8
39.62
40.19
39.94
39.42
39.12
39.26
39.77
40.36
40.68
40.55
39.94
38.96
37.72
36.18
34.08
31.04
26.69
20.88
13.84
6.1
-1.65
-8.82
-15.1
-20.61
-25.88
-31.65
-38.65
-47.31
-57.5
-68.34
-78.23
-85.17
-87.25
-83.31
-73.3
-58.47
-40.91
-22.94
-6.49
7.3
18.15
26.28
32.13
36.04
38.3
39.19
39.15
38.77
38.65
39.2
40.48
42.13
43.54
44.12
43.54
41.9
39.62
37.25
35.09
33.06
30.67
27.33
22.65
16.68
9.9
2.99
-3.41
-9.02
-13.88
-18.4
-23.17
-28.84
-36.06
-45.17
-55.94
-67.37
-77.66
-84.57
-86.06
-81.04
-69.73
-53.63
-35.05
-16.41
0.41
14.3
24.92
32.41
37.15
39.65
40.52
40.49
40.35
40.66
41.65
43.15
44.7
45.8
46.16
45.8
44.95
43.88
42.68
41.13
38.87
35.5
30.85
25.1
18.78
12.54
6.96
2.25
-1.87
-6.14
-11.46
-18.59
-27.77
-38.58
-49.82
-59.76
-66.52
-68.48
-64.82
-55.71
-42.36
-26.62
-10.52
4.22
16.49
25.82
32.25
36.11
37.88
38.1
37.37
36.24
35.21
34.59
34.47
34.72
35.09
35.35
35.35
35.05
34.49
33.66
32.43
30.52
27.61
23.46
18.06
11.72
4.97
-1.62
-7.68
-13.2
-18.6
-24.59
-31.89
-40.86
-51.21
-61.84
-70.93
-76.45
-76.67
-70.83
-59.38
-43.86
-26.5
-9.49
5.5
17.59
26.6
32.8
36.61
38.45
38.79
38.16
37.16
36.37
36.12
36.41
36.91
37.19
36.92
36.08
34.85
33.49
32.08
30.37
27.89
24.18
19.05
12.7
5.75
-1.08
-7.23
-12.5
-17.14
-21.68
-26.81
-33.12
-40.92
-50.05
-59.74
-68.63
-74.96
-77.0
-73.53
-64.37
-50.42
-33.49
-15.73
0.97
15.33
26.85
35.58
41.89
46.19
48.85
50.16
50.42
49.9
48.86
47.57
46.21
44.92
43.79
42.86
42.08
41.28
40.2
38.49
35.81
31.91
26.75
20.54
13.66
6.56
-0.37
-6.92
-13.15
-19.38
-26.1
-33.79
-42.63
-52.27
-61.64
-69.08
-72.78
-71.31
-64.13
-51.92
-36.32
-19.53
-3.66
9.74
19.91
26.8
30.81
32.61
32.89
32.36
31.64
31.18
31.26
31.88
32.81
33.68
34.15
34.03
33.31
32.08
30.47
28.55
26.25
23.49
20.15
16.2
11.7
6.76
1.54
-3.89
-9.59
-15.75
-22.65
-30.5
-39.16
-47.99
-55.77
-60.95
-62.0
-57.97
-48.84
-35.65
-20.21
-4.63
9.31
20.43
28.34
33.19
35.46
35.7
34.46
32.3
29.79
27.52
25.93
25.26
25.47
26.28
27.26
27.97
28.02
27.11
25.14
22.18
18.49
14.4
10.23
6.12
2.0
-2.32
-7.1
-12.59
-18.97
-26.32
-34.49
-42.97
-50.77
-56.54
-58.86
-56.67
-49.73
-38.75
-25.25
-11.09
2.06
13.05
21.43
27.22
30.75
32.33
32.29
30.9
28.56
25.74
23.04
20.96
19.82
19.59
19.94
20.35
20.32
19.46
17.66
15.05
11.94
8.63
5.3
1.92
-1.68
-5.77
-10.7
-16.75
-24.1
-32.56
-41.48
-49.66
-55.55
-57.64
-54.94
-47.41
-36.03
-22.5
-8.75
3.61
13.64
20.99
25.8
28.34
28.89
27.76
25.39
22.42
19.62
17.72
17.13
17.81
19.27
20.76
21.52
21.06
19.32
16.57
13.24
9.77
6.36
2.98
-0.61
-4.76
-9.79
-15.91
-23.15
-31.3
-39.84
-47.88
-54.2
-57.47
-56.6
-51.2
-41.76
-29.63
-16.6
-4.32
6.03
13.99
19.61
23.11
24.75
24.67
23.07
20.35
17.14
14.21
12.19
11.37
11.56
12.24
12.72
12.47
11.28
9.26
6.76
4.13
1.48
-1.32
-4.62
-8.82
-14.26
-21.06
-29.05
-37.64
-45.87
-52.42
-55.96
-55.47
-50.57
-41.73
-30.1
-17.19
-4.42
7.16
16.89
24.43
29.56
32.06
31.86
29.18
24.7
19.5
14.81
11.63
10.4
10.93
12.46
14.01
14.7
14.04
11.95
8.74
4.88
0.79
-3.3
-7.44
-11.94
-17.31
-23.97
-32.07
-41.21
-50.32
-57.84
-62.11
-61.84
-56.59
-46.95
-34.38
-20.71
-7.68
3.59
12.6
19.32
23.95
26.59
27.32
26.31
23.98
21.07
18.42
16.74
16.32
16.93
17.92
18.55
18.2
16.65
13.99
10.59
6.81
2.87
-1.19
-5.49
-10.28
-15.85
-22.47
-30.34
-39.36
-48.95
-57.98
-64.84
-67.88
-65.95
-58.83
-47.42
-33.45
-18.92
-5.5
5.82
14.77
21.51
26.36
29.53
31.18
31.45
30.69
29.42
28.25
27.7
27.98
28.97
30.22
31.16
31.24
30.08
27.59
23.91
19.39
14.45
9.43
4.54
-0.24
-5.14
-10.51
-16.79
-24.35
-33.29
-43.27
-53.36
-62.06
-67.59
-68.42
-63.75
-53.94
-40.35
-25.03
-10.01
3.17
13.72
21.55
27.03
30.71
33.17
34.91
36.36
37.8
39.28
40.62
41.51
41.64
40.88
39.38
37.49
35.61
34.05
32.82
31.61
29.9
27.11
22.82
16.97
9.88
2.2
-5.34
-12.13
-17.94
-23.03
-28.08
-33.99
-41.46
-50.6
-60.64
-69.95
-76.46
-78.29
-74.4
-64.93
-51.18
-35.08
-18.66
-3.43
9.76
20.68
29.45
36.27
41.26
44.5
46.12
46.46
46.0
45.33
44.95
45.05
45.52
45.93
45.83
44.94
43.27
41.11
38.84
36.66
34.5
32.04
28.82
24.43
18.71
11.77
4.01
-3.87
-10.98
-16.32
-18.92
-18.08
-13.59
-5.85
4.19
15.21
25.78
34.66
40.96
44.24
44.48
42.05
37.68
32.35
27.15
23.11
20.93
20.82
22.43
25.01
27.65
29.55
30.23
29.63
28.01
25.76
23.23
20.58
17.79
14.74
11.39
7.85
4.33
1.1
-1.75
-4.28
-6.8
-9.62
-13.0
-16.97
-21.38
-25.93
-30.36
-34.5
-38.32
-41.95
-45.64
-49.73
-54.61
-60.63
-67.86
-75.84
-83.53
-89.32
-91.52
-88.77
-80.68
-67.92
-52.08
-35.17
-19.05
-5.04
6.19
14.43
19.79
22.51
23.02
22.0
20.3
18.84
18.29
18.94
20.61
22.79
24.88
26.46
27.34
27.61
27.46
27.0
26.16
24.66
22.18
18.48
13.62
7.93
2.04
-3.46
-8.21
-12.17
-15.76
-19.63
-24.43
-30.57
-37.96
-45.9
-53.15
-58.17
-59.53
-56.34
-48.58
-37.08
-23.41
-9.31
3.67
14.49
22.67
28.16
31.23
32.28
31.84
30.5
28.87
27.46
26.55
26.12
25.98
25.84
25.48
24.87
24.07
23.18
22.19
20.92
19.09
16.38
12.57
7.65
1.91
-4.16
-9.98
-15.11
-19.49
-23.4
-27.53
-32.65
-39.38
-47.86
-57.47
-66.92
-74.36
-77.91
-76.22
-68.89
-56.71
-41.41
-25.11
-9.76
3.35
13.68
21.26
26.44
29.56
31.01
31.2
30.6
29.73
29.04
28.74
28.8
28.99
29.08
28.88
28.4
27.7
26.9
26.04
25.04
23.71
21.75
18.84
14.7
9.32
2.98
-3.75
-10.19
-15.79
-20.44
-24.5
-28.73
-33.94
-40.7
-49.0
-58.1
-66.68
-73.07
-75.67
-73.4
-66.02
-54.26
-39.62
-23.94
-8.95
4.14
14.8
23.0
29.01
33.14
35.64
36.75
36.77
36.14
35.34
34.8
34.73
35.06
35.51
35.72
35.44
34.62
33.48
32.29
31.27
30.36
29.18
27.1
23.44
17.8
10.2
1.28
-7.79
-15.51
-20.39
-21.32
-17.86
-10.4
-0.07
11.47
22.43
31.28
37.02
39.33
38.52
35.36
30.75
25.53
20.28
15.28
10.63
6.4
2.68
-0.29
-2.27
-3.08
-2.64
-1.03
1.6
4.99
8.76
12.46
15.52
17.36
17.43
15.34
10.96
4.35
-4.17
-14.21
-25.26
-36.9
-48.79
-60.78
-72.95
-85.65
-99.3
-114.19
-130.21
-146.64
-162.38
-176.28
-187.6
-196.28
-202.69
-207.37
-210.66
-212.75
-214.02
-215.43
-218.42
-224.12
-232.32
-240.66
-244.76
-239.48
-220.61
-186.19
-136.89
-75.58
-6.64
64.53
131.69
188.16
227.81
246.77
244.93
226.67
199.83
173.5
155.23
148.97
154.43
167.77
183.35
195.57
200.41
196.25
183.85
165.63
144.61
123.4
103.79
86.86
73.21
63.08
56.17
51.19
45.96
38.09
25.97
9.79
-8.38
-25.48
-38.68
-46.52
-48.99
-46.96
-41.41
-33.0
-22.32
-10.25
1.95
13.21
23.39
33.53
44.97
57.91
70.32
78.47
78.98
71.29
58.83
47.82
44.12
50.08
63.22
77.69
87.54
89.75
85.15
77.23
69.41
63.18
57.76
51.44
43.23
33.66
24.33
16.78
11.43
7.34
2.75
-3.92
-13.29
-24.78
-36.88
-47.66
-55.33
-58.74
-57.63
-52.69
-45.23
-36.8
-28.73
-21.76
-16.02
-11.2
-6.95
-3.14
0.1
2.49
3.85
4.25
4.0
3.54
3.25
3.24
3.42
3.56
3.46
3.06
2.45
1.81
1.23
0.64
-0.19
-1.61
-3.89
-7.09
-10.99
-15.16
-19.18
-22.75
-25.9
-28.92
-32.31
-36.55
-41.99
-48.56
-55.79
-62.66
-67.86
-70.06
-68.38
-62.74
-53.88
-43.2
-32.23
-22.16
-13.59
-6.52
-0.67
4.19
8.1
11.01
12.92
14.07
14.88
15.74
16.85
18.07
19.05
19.46
19.19
18.42
17.56
16.89
16.42
15.84
14.64
12.44
9.15
5.05
0.63
-3.66
-7.61
-11.3
-15.09
-19.39
-24.56
-30.65
-37.39
-44.04
-49.57
-52.87
-53.03
-49.63
-42.88
-33.62
-23.01
-12.26
-2.33
6.15
12.98
18.19
22.01
24.71
26.62
28.02
29.18
30.25
31.29
32.22
33.0
33.62
34.29
35.3
36.95
39.31
42.07
44.56
45.98
45.65
43.29
39.1
33.68
27.82
22.18
17.16
12.69
8.3
3.27
-3.19
-11.54
-21.62
-32.53
-42.72
-50.39
-54.09
-53.15
-47.98
-39.92
-30.75
-22.13
-15.13
-10.06
-6.57
-4.05
