-27.38
-34.15
-40.66
-45.95
-48.78
-48.12
-43.57
-35.58
-25.39
-14.54
-4.39
4.33
11.47
17.36
22.38
26.71
30.27
32.82
34.15
34.28
33.42
31.92
30.14
28.28
26.39
24.49
22.56
20.63
18.71
16.75
14.55
11.88
8.54
4.54
0.09
-4.45
-8.77
-12.69
-16.29
-19.87
-23.83
-28.6
-34.43
-41.16
-48.1
-54.06
-57.58
-57.44
-53.15
-45.13
-34.65
-23.28
-12.32
-2.47
6.25
14.1
21.25
27.55
32.59
36.02
37.79
38.22
37.94
37.57
37.46
37.64
37.9
37.94
37.52
36.57
35.12
33.29
31.2
28.9
26.42
23.68
20.56
16.93
12.72
8.01
3.01
-1.91
-6.45
-10.5
-14.23
-18.06
-22.48
-27.89
-34.43
-41.94
-49.91
-57.55
-63.85
-67.71
-68.22
-64.9
-57.94
-48.2
-36.94
-25.41
-14.53
-4.71
4.03
11.8
18.6
24.26
28.62
31.6
33.37
34.29
34.79
35.18
35.62
36.14
36.64
37.1
37.45
37.69
37.75
37.52
36.86
35.63
33.76
31.3
28.35
25.02
21.37
17.43
13.18
8.63
3.84
-1.03
-5.78
-10.25
-14.4
-18.32
-22.29
-26.74
-32.11
-38.73
-46.6
-55.25
-63.7
-70.57
-74.44
-74.22
-69.55
-60.97
-49.74
-37.49
-25.67
-15.16
-6.19
1.56
8.52
14.97
20.85
25.86
29.65
32.11
33.39
33.9
34.08
34.28
34.63
35.13
35.69
36.24
36.69
36.97
36.92
36.37
35.15
33.21
30.6
27.46
23.96
20.25
16.43
12.61
8.84
5.17
1.61
-1.92
-5.52
-9.36
-13.6
-18.42
-23.97
-30.37
-37.58
-45.22
-52.48
-58.16
-60.89
-59.6
-53.89
-44.28
-32.11
-19.04
-6.56
4.43
13.72
21.56
28.3
34.11
38.9
42.42
44.54
45.32
45.08
44.24
43.22
42.3
41.64
41.25
41.09
41.06
41.04
40.87
40.35
39.27
37.34
34.35
30.26
25.26
19.78
14.4
9.63
5.65
2.3
-0.96
-4.7
-9.25
-14.62
-20.42
-26.17
-31.49
-36.37
-41.1
-46.17
-51.97
-58.59
-65.62
-72.21
-77.15
-79.17
-77.36
-71.35
-61.58
-49.14
-35.45
-21.93
-9.55
1.26
10.55
18.62
25.69
31.83
36.95
40.94
43.83
45.77
47.03
47.87
48.42
48.72
48.75
48.49
48.01
47.37
46.63
45.73
44.5
42.72
40.2
36.85
32.79
28.28
23.71
19.43
15.68
12.48
9.62
6.71
3.35
-0.73
-5.53
-10.75
-16.0
-20.86
-25.16
-28.99
-32.78
-37.08
-42.43
-49.09
-56.84
-64.89
-71.96
-76.51
-77.15
-73.15
-64.68
-52.82
-39.21
-25.5
-12.9
-1.94
7.45
15.61
22.89
29.35
34.89
39.25
42.28
44.03
44.76
44.8
44.44
43.85
43.07
42.07
40.88
39.59
38.32
37.15
36.0
34.67
32.81
30.17
26.65
22.4
17.79
13.28
9.23
5.84
3.01
0.41
-2.38
-5.73
-9.77
-14.32
-18.94
-23.1
-26.45
-28.97
-31.0
-33.13
-36.0
-40.09
-45.57
-52.21
-59.36
-65.99
-70.86
-72.76
-70.81
-64.78
-55.2
-43.32
-30.69
-18.77
-8.53
-0.28
6.19
11.4
15.8
19.68
23.07
25.88
27.99
29.4
30.21
30.62
30.84
31.02
31.26
31.58
31.95
32.35
32.68
32.89
32.85
32.35
31.19
29.21
26.4
22.98
19.33
15.87
12.82
10.1
7.36
4.1
0.01
-4.93
-10.38
-15.76
-20.6
-24.73
-28.36
-32.02
-36.34
-41.77
-48.31
-55.5
-62.37
-67.69
-70.26
-69.2
-64.29
-55.96
-45.27
-33.55
-22.1
-11.84
-3.2
3.88
9.7
14.65
18.98
22.75
25.89
28.34
30.1
31.3
32.12
32.74
33.28
33.75
34.14
34.39
34.44
34.28
33.87
33.19
32.16
30.71
28.71
26.08
22.83
19.13
15.29
11.68
8.53
5.83
3.29
0.51
-2.85
-6.85
-11.29
-15.73
-19.8
-23.32
-26.43
-29.5
-33.0
-37.33
-42.71
-49.13
-56.23
-63.34
-69.46
-73.42
-74.12
-70.91
-63.86
-53.8
-42.15
-30.43
-19.82
-10.89
-3.55
2.61
8.05
13.02
17.52
21.43
24.66
27.25
29.32
31.0
32.39
33.49
34.36
35.03
35.57
36.01
36.38
36.59
36.6
36.34
35.77
34.81
33.36
31.34
28.73
25.67
22.4
19.21
16.31
13.72
11.32
8.88
6.18
3.05
-0.59
-4.69
-9.12
-13.61
-17.87
-21.7
-25.04
-28.16
-31.51
-35.65
-40.99
-47.58
-54.99
-62.29
-68.29
-71.77
-71.84
-68.13
-60.95
-51.13
-39.85
-28.33
-17.49
-7.89
0.28
7.11
12.75
17.34
21.0
23.84
26.01
27.69
29.09
30.34
31.46
32.44
33.23
33.81
34.22
34.52
34.74
34.84
34.69
34.09
32.9
31.0
28.36
25.11
21.51
17.95
14.78
12.17
10.04
8.02
5.68
2.69
-0.97
-5.05
-9.12
-12.84
-16.13
-19.2
-22.43
-26.24
-30.92
-36.49
-42.63
-48.67
-53.64
-56.41
-55.98
-51.8
-43.98
-33.31
-21.09
-8.79
2.4
11.75
19.12
24.71
28.91
32.09
34.45
36.07
36.97
37.2
36.86
36.05
34.9
33.47
31.81
29.99
28.11
26.3
24.69
23.33
22.17
21.03
19.65
17.75
15.18
11.97
8.37
4.74
1.41
-1.47
-3.97
-6.39
-9.02
-12.02
-15.33
-18.71
-21.8
-24.4
-26.46
-28.22
-30.13
-32.71
-36.44
-41.51
-47.7
-54.27
-60.02
-63.58
-63.76
-59.96
-52.36
-41.97
-30.25
-18.74
-8.55
-0.2
6.39
11.56
15.72
19.14
21.89
23.99
25.48
26.52
27.29
27.92
28.43
28.73
28.72
28.36
27.76
27.1
26.54
26.19
25.97
25.64
24.94
23.64
21.6
18.93
15.86
12.71
9.73
7.03
4.5
1.92
-0.98
-4.33
-8.11
-12.12
-16.08
-19.76
-23.12
-26.33
-29.73
-33.76
-38.73
-44.72
-51.35
-57.82
-62.99
-65.64
-64.88
-60.37
-52.45
-42.07
-30.46
-18.87
-8.27
0.78
8.14
13.98
18.62
22.39
25.57
28.26
30.51
32.3
33.64
34.59
35.22
35.59
35.76
35.75
35.65
35.57
35.64
35.9
36.23
36.36
35.93
34.63
32.35
29.29
25.87
22.6
19.84
17.58
15.53
13.19
10.19
6.37
1.9
-2.86
-7.58
-12.1
-16.42
-20.67
-24.97
-29.31
-33.53
-37.3
-40.1
-41.22
-39.82
-35.21
-27.14
-16.06
-3.17
9.85
21.3
29.97
35.53
38.48
39.9
40.93
42.39
44.51
47.03
49.29
50.54
50.08
47.47
42.6
35.73
27.47
18.71
10.41
3.37
-1.95
-5.47
-7.46
-8.37
-8.73
-9.01
-9.64
-10.97
-13.25
-16.5
-20.53
-24.92
-29.18
-32.93
-35.96
-38.29
-40.14
-41.75
-43.39
-45.36
-47.99
-51.53
-55.98
-60.9
-65.32
-68.01
-67.87
-64.34
-57.65
-48.76
-38.92
-29.33
-20.73
-13.43
-7.38
-2.39
1.75
5.22
8.17
10.69
12.84
14.58
15.82
16.54
16.82
16.89
17.03
17.5
18.36
19.46
20.42
20.83
20.31
18.72
16.12
12.75
8.94
4.97
1.04
-2.84
-6.71
-10.69
-14.91
-19.43
-24.21
-29.07
-33.65
-37.54
-40.46
-42.51
-44.31
-46.87
-51.23
-57.82
-66.09
-74.39
-80.51
-82.54
-79.72
-72.86
-64.03
-55.77
-49.99
-47.29
-46.91
-47.32
-47.05
-45.4
-42.59
-39.51
-37.22
-36.63
-38.29
-42.07
-46.7
-49.45
-46.29
-32.98
-7.02
30.59
74.68
117.25
150.32
168.95
172.9
166.09
154.22
142.06
131.81
123.23
115.02
106.36
97.58
89.66
83.26
77.89
71.97
63.59
51.64
36.5
20.06
5.01
-6.17
-12.06
-12.75
-9.59
-4.56
0.52
4.56
7.39
9.49
11.54
13.99
16.83
19.62
21.8
23.0
23.26
22.95
22.62
22.64
23.04
23.45
23.32
22.18
19.92
16.89
13.74
11.24
9.91
9.86
10.76
11.93
12.59
12.12
10.31
7.47
4.41
2.14
1.51
2.81
5.62
8.93
11.49
12.37
11.31
8.98
6.77
6.42
9.53
17.1
29.32
45.52
64.38
84.2
103.26
120.18
134.26
145.72
155.64
165.45
176.1
187.24
197.17
203.43
204.23
199.41
190.49
179.56
167.69
153.8
134.9
107.65
70.5
24.87
-24.9
-73.09
-114.54
-146.13
-167.14
-178.76
-183.18
-182.73
-179.47
-175.03
-170.56
-166.76
-163.83
-161.49
-159.23
-156.53
-153.15
-149.28
-145.49
-142.5
-140.9
-141.0
-142.6
-144.91
-146.64
-146.16
-141.86
-132.6
-118.07
-98.88
-76.31
-51.91
-27.1
-3.07
19.05
37.95
52.09
60.03
60.83
54.48
42.05
25.44
7.09
-10.4
-24.59
-33.49
-35.88
-31.62
-21.76
-8.37
5.98
18.8
28.32
33.84
35.71
34.99
32.97
30.72
28.75
27.0
25.01
22.24
18.34
13.28
7.27
0.66
-6.18
-12.99
-19.53
-25.67
-31.37
-36.56
-41.03
-44.24
-45.28
-43.05
-36.65
-25.88
-11.44
5.15
22.03
37.61
50.9
61.54
69.36
74.07
75.08
71.9
64.55
53.99
41.83
29.87
19.2
9.81
0.67
-9.64
-22.07
-36.65
-52.44
-68.06
-82.36
-94.79
-105.5
-114.96
-123.59
-131.44
-138.27
-143.78
-147.93
-151.13
-154.13
-157.62
-161.72
-165.59
-167.37
-164.41
-153.94
-133.7
-102.62
-61.45
-13.03
37.94
85.71
124.88
152.0
166.53
170.9
169.34
166.11
163.83
162.61
160.45
154.46
142.46
124.02
100.81
75.9
52.66
33.46
19.02
8.41
-0.16
-8.32
-16.74
-25.05
-32.37
-38.25
-43.13
-48.32
-55.17
-64.29
-75.08
-86.07
-95.81
-103.71
-110.54
-118.09
-128.28
-142.2
-159.44
-178.09
-195.24
-207.7
-212.93
-209.64
-198.14
-180.16
-158.3
-135.1
-112.13
-89.45
-65.77
-39.28
-8.8
25.4
61.44
96.44
127.51
152.59
170.81
182.35
187.98
188.71
185.5
179.26
170.89
161.21
150.87
140.22
129.29
117.86
105.74
92.86
79.42
65.9
52.91
41.08
30.84
22.37
15.56
10.11
5.6
1.57
-2.41
-6.6
-11.15
-16.04
-21.15
-26.29
-31.16
-35.3
-37.95
-38.2
-35.11
-28.16
-17.47
-3.87
11.37
26.89
41.63
54.9
66.28
75.37
81.72
84.85
84.58
81.25
75.81
69.69
64.34
60.88
59.76
60.81
63.41
66.86
70.6
74.31
77.78
80.83
83.2
84.6
84.85
83.87
81.78
78.79
75.2
71.35
67.67
64.56
62.29
60.83
59.75
58.33
55.78
51.53
45.33
37.33
27.94
17.73
7.24
-3.0
-12.57
-21.18
-28.66
-35.02
-40.4
-45.01
-49.09
-52.77
-56.01
-58.6
-60.25
-60.63
-59.6
-57.26
-54.02
-50.5
-47.33
-44.87
-43.14
-41.81
-40.42
-38.66
-36.53
-34.29
-32.37
-31.07
-30.47
-30.46
-30.8
-31.25
-31.64
-31.91
-31.99
-31.9
-31.67
-31.43
-31.28
-31.29
-31.35
-31.17
-30.35
-28.52
-25.5
-21.47
-16.83
-12.09
-7.63
-3.53
0.38
4.48
9.09
14.29
19.84
25.18
29.56
32.18
32.3
29.51
23.86
15.96
6.99
-1.73
-9.13
-14.76
-18.86
-22.13
-25.27
-28.63
-32.24
-35.99
-39.82
-43.81
-47.93
-51.77
-54.39
-54.57
-51.37
-44.6
-35.02
-24.15
-13.7
-5.03
1.16
4.82
6.29
5.99
4.22
1.19
-2.88
-7.6
-12.35
-16.43
-19.13
-19.99
-18.87
-16.03
-11.92
-7.1
-2.01
3.11
8.19
13.25
18.24
23.08
27.51
31.33
34.45
36.96
39.16
41.38
43.83
46.53
49.35
52.11
54.67
56.88
58.4
58.77
57.35
53.71
47.7
39.62
30.06
19.6
8.65
-2.58
-13.89
-24.94
-35.21
-44.11
-51.24
-56.49
-60.03
-62.12
-62.99
-62.77
-61.61
-59.71
-57.39
-55.0
-52.92
-51.48
-50.95
-51.47
-53.02
-55.33
-57.86
-60.04
-61.42
-61.82
-61.46
-60.72
-60.09
-59.9
-60.29
-61.28
-62.79
-64.81
-67.22
-69.79
-72.02
-73.24
-72.7
-69.86
-64.51
-56.99
-47.96
-38.25
-28.64
-19.6
-11.31
-3.81
2.85
8.52
12.87
15.62
16.64
16.03
14.23
11.86
9.68
8.42
8.67
10.82
14.96
20.88
28.14
36.15
44.22
51.73
58.15
63.1
66.35
67.9
67.93
66.78
64.91
62.71
60.49
58.32
56.14
53.78
51.07
47.91
44.34
40.54
36.72
33.14
29.93
27.07
24.4
21.56
18.13
13.71
8.08
1.28
-6.33
-14.25
-21.95
-29.02
-35.28
-40.69
-45.32
-49.05
-51.63
-52.56
-51.3
-47.38
-40.7
-31.56
-20.64
-8.88
2.73
13.34
22.37
29.48
34.59
37.74
39.19
39.28
38.46
37.08
35.39
33.44
31.14
28.3
24.82
20.69
16.06
11.19
6.4
1.86
-2.39
-6.51
-10.8
-15.5
-20.69
-26.2
-31.73
-37.02
-42.0
-46.91
-52.21
-58.4
-65.77
-74.18
-83.0
-91.09
-97.02
-99.48
-97.59
-91.19
-80.99
-68.26
-54.61
-41.51
-30.04
-20.81
-13.98
-9.39
-6.66
-5.23
-4.45
-3.67
-2.38
-0.3
2.59
6.09
9.88
13.63
17.07
20.02
22.34
23.94
24.74
24.62
23.47
21.24
17.97
13.88
9.3
4.67
0.28
-3.79
-7.75
-12.08
-17.36
-24.03
-32.14
-41.07
-49.6
-56.04
-58.72
-56.47
-49.01
-37.16
-22.6
-7.36
6.72
18.4
27.19
33.16
36.79
38.56
38.96
38.4
37.32
36.15
35.29
34.99
35.29
36.05
37.01
37.95
38.72
39.23
39.4
39.11
38.15
36.27
33.31
29.25
24.28
18.78
13.22
7.89
2.82
-2.36
-8.27
-15.5
-24.2
-33.77
-42.86
-49.62
-52.35
-49.95
-42.34
-30.5
-16.05
-0.84
13.55
26.03
36.09
43.57
48.52
51.09
51.46
49.98
47.17
43.68
40.17
37.16
34.95
33.52
32.68
32.14
31.62
30.9
29.77
28.06
25.63
22.39
18.32
13.45
7.89
1.69
-5.15
-12.72
-21.17
-30.54
-40.64
-50.84
-60.1
-67.12
-70.68
-69.87
-64.42
-54.7
-41.69
-26.73
-11.32
3.15
15.59
25.25
31.88
35.54
36.64
35.75
33.54
30.68
27.85
25.62
24.42
24.4
25.37
26.88
28.3
29.0
28.57
26.84
23.93
20.06
15.52
10.53
5.2
-0.5
-6.81
-14.12
-22.78
-32.87
-43.73
-53.93
-61.41
-64.07
-60.46
-50.26
-34.3
-14.27
7.91
30.5
52.09
71.53
87.73
99.59
106.22
107.18
102.72
93.77
81.7
67.74
52.53
35.93
17.41
-3.34
-25.78
-48.33
-68.79
-84.86
-94.56
-96.38
-89.18
-72.46
-46.93
-15.12
18.51
48.43
69.75
80.04
80.24
74.21
67.06
63.22
65.16
73.17
85.99
101.66
118.21
133.95
147.63
158.51
166.44
171.89
175.8
179.3
183.33
188.36
194.23
200.08
204.46
205.58
201.68
191.56
175.02
153.06
127.64
100.91
74.48
48.95
24.16
-0.12
-23.57
-45.22
-64.01
-79.71
-93.34
-106.82
-121.79
-138.34
-154.35
-166.09
-169.71
-163.04
-146.94
-125.45
-104.6
-90.26
-85.88
-91.15
-102.3
-113.94
-121.81
-124.73
-125.01
-127.0
-134.93
-150.92
-174.31
-202.14
-230.26
-254.47
-271.2
-277.79
-272.85
-256.57
-230.77
-198.62
-163.7
-129.26
-97.72
-70.76
-49.43
-34.39
-25.68
-22.4
-22.8
-24.7
-26.39
-27.2
-27.6
-28.65
-31.13
-34.7
-37.8
-38.1
-33.52
-23.22
-7.87
10.52
29.48
47.0
62.05
74.66
85.49
95.17
103.85
111.07
116.04
118.05
116.95
113.28
108.11
102.61
97.73
93.92
91.09
88.79
86.38
83.3
79.18
73.96
67.8
61.06
54.09
47.16
40.4
33.91
27.73
21.79
15.79
9.12
0.97
-9.29
-21.74
-35.6
-49.32
-60.96
-68.8
-71.77
-69.66
-63.0
-52.77
-40.13
-26.17
-11.84
2.07
14.89
26.09
35.29
42.23
46.78
48.94
48.95
47.2
44.28
40.91
37.79
35.54
34.47
34.53
35.34
36.25
36.46
35.3
32.29
27.32
20.72
13.13
5.43
-1.53
-7.16
-11.4
-14.83
-18.62
-24.17
-32.57
-44.13
-57.9
-71.75
-82.79
-88.27
-86.47
-77.39
-62.81
-45.7
-29.24
-15.82
-6.49
-0.97
1.77
2.94
3.25
2.94
1.92
0.08
-2.58
-5.9
-9.59
-13.23
-16.09
-17.29
-16.04
-12.21
-6.68
-1.26
1.93
1.42
-2.97
-9.98
-17.69
-24.53
-30.11
-35.48
-42.64
-53.59
-69.35
-89.18
-110.54
-129.6
-142.39
-146.18
-140.42
-126.69
-107.72
-85.87
-61.82
-34.31
-1.07
39.32
85.82
134.37
178.85
213.24
233.94
240.93
237.51
228.76
219.85
214.72
215.15
220.47
227.6
231.64
227.57
212.35
186.89
156.16
127.2
105.61
92.84
85.72
78.85
68.2
53.52
38.06
26.0
19.33
16.6
14.13
8.64
-0.63
-11.49
-20.35
-24.37
-23.03
-18.25
-13.25
-11.05
-13.2
-19.43
-27.9
-36.08
-41.72
-43.53
-41.48
-36.51
-30.04
-23.3
-16.92
-10.87
-4.68
2.05
9.36
16.7
23.18
27.92
30.47
31.0
30.25
29.17
28.55
28.67
29.27
29.74
29.42
27.96
25.47
22.44
19.41
16.77
14.44
11.97
8.7
4.1
-1.91
-8.89
-16.05
-22.49
-27.64
-31.47
-34.48
-37.6
-41.85
-48.02
-56.47
-66.97
-78.73
-90.57
-101.17
-109.37
-114.49
-116.48
-115.85
-113.55
-110.62
-107.89
-105.77
-104.03
-101.88
-98.2
-91.92
-82.55
-70.47
-56.95
-43.73
-32.41
-23.77
-17.69
-13.34
-9.82
-6.61
-3.59
-0.59
2.94
8.1
16.05
27.29
41.08
55.51
68.2
77.26
82.1
83.49
83.17
82.9
83.87
86.3
89.65
92.95
95.14
95.4
93.18
88.38
81.28
72.59
63.31
54.58
47.46
42.72
40.79
41.59
44.65
49.12
53.97
58.14
60.86
61.77
60.98
59.02
56.53
54.1
52.06
50.44
49.05
47.62
45.95
43.89
41.42
38.59
35.49
32.3
29.16
26.29
23.82
21.84
20.29
19.04
17.9
16.72
15.44
14.06
12.65
11.24
9.81
8.26
6.5
4.42
2.0
-0.74
-3.7
-6.76
-9.78
-12.68
-15.41
-17.99
-20.46
-22.92
-25.39
-27.86
-30.2
-32.16
-33.46
-33.85
-33.23
-31.64
-29.33
-26.6
-23.74
-20.93
-18.21
-15.58
-13.0
-10.5
-8.18
-6.16
-4.49
-3.13
-1.91
-0.68
0.65
2.03
3.31
4.27
4.79
4.91
4.84
4.89
5.31
6.19
7.44
8.76
9.79
10.2
9.89
8.96
7.74
6.56
5.7
5.16
4.76
4.29
3.55
2.51
1.27
-0.07
-1.45
-2.92
-4.56
-6.42
-8.55
-10.91
-13.47
-16.17
-18.89
-21.48
-23.76
-25.55
-26.76
-27.37
-27.43
-27.04
-26.3
-25.32
-24.22
-23.1
-22.07
-21.14
-20.26
-19.31
-18.19
-16.89
-15.5
-14.13
-12.93
-11.92
-11.06
-10.26
-9.45
-8.62
-7.84
-7.17
-6.7
-6.47
-6.51
-6.84
-7.5
-8.47
-9.71
-11.06
-12.34
-13.43
-14.26
-14.89
-15.45
-16.07
-16.78
-17.57
-18.36
-19.13
-19.92
-20.78
-21.75
-22.77
-23.71
-24.41
-24.86
-25.16
-25.55
-26.25
-27.24
-28.3
-28.98
-28.93
-27.96
-26.2
-23.99
-21.69
-19.54
-17.58
-15.74
-13.92
-12.12
-10.39
-8.88
-7.7
-6.87
-6.31
-5.94
-5.62
-5.26
-4.77
-4.11
-3.27
-2.33
-1.34
-0.45
0.26
0.64
0.61
0.12
-0.82
-2.09
-3.51
-4.84
-5.9
-6.63
-7.12
-7.52
-7.99
-8.61
-9.36
-10.14
-10.83
-11.39
-11.82
-12.19
-12.64
-13.31
-14.3
-15.65
-17.2
-18.7
-19.77
-20.11
-19.62
-18.41
-16.77
-15.04
-13.5
-12.24
-11.22
-10.33
-9.48
-8.61
-7.76
-6.97
-6.34
-5.92
-5.73
-5.74
-5.89
-6.04
-6.06
-5.85
-5.38
-4.67
-3.77
-2.75
-1.61
-0.37
0.98
2.38
3.69
4.73
5.26
5.1
4.19
2.61
0.59
-1.56
-3.54
-5.1
-6.09
-6.36
-5.88
-4.64
-2.81
-0.75
1.0
1.82
1.25
-0.78
-3.85
-7.16
-9.82
-11.22
-11.25
-10.26
-8.84
-7.5
-6.48
-5.77
-5.21
-4.6
-3.85
-2.9
-1.7
-0.21
1.55
3.49
5.45
7.25
8.78
9.95
10.68
10.87
10.41
9.37
7.96
6.61
5.7
5.44
5.72
6.21
6.49
6.33
5.71
4.8
3.81
2.83
1.77
0.5
-1.11
-3.01
-5.02
-6.92
-8.56
-9.95
-11.3
-12.86
-14.88
-17.38
-20.16
-22.87
-25.1
-26.46
-26.76
-26.02
-24.4
-22.19
-19.68
-17.11
-14.62
-12.31
-10.19
-8.3
-6.69
-5.36
-4.23
-3.18
-2.09
-0.87
0.41
1.61
2.54
3.11
3.31
3.26
3.17
3.18
3.37
3.67
3.91
3.83
3.2
1.87
-0.16
-2.76
-5.67
-8.6
-11.3
-13.64
-15.59
-17.23
-18.68
-20.06
-21.44
-22.83
-24.13
-25.19
-25.8
-25.72
-24.76
-22.78
-19.74
-15.75
-11.04
-5.95
-0.75
4.33
9.19
13.76
17.95
21.63
24.65
26.96
28.66
29.97
30.92
31.26
30.34
27.41
22.05
14.49
5.74
-2.73
-9.48
-13.52
-14.56
-13.03
-9.78
-5.8
-1.92
1.34
3.8
5.56
6.83
7.78
8.4
8.53
7.97
6.66
4.79
2.75
0.98
-0.18
-0.6
-0.32
0.5
1.67
3.01
4.41
5.78
7.01
8.02
8.66
8.85
8.57
7.92
7.12
6.38
5.84
5.55
5.46
5.47
5.52
5.58
5.69
5.83
5.93
5.88
5.54
4.86
3.85
2.65
1.43
0.36
-0.5
-1.18
-1.77
-2.42
-3.23
-4.22
-5.37
-6.6
-7.84
-8.97
-9.89
-10.44
-10.53
-10.14
-9.42
-8.6
-7.87
-7.36
-6.98
-6.57
-6.01
-5.29
-4.55
-4.06
-3.98
-4.35
-5.02
-5.69
-6.12
-6.18
-5.93
-5.52
-5.11
-4.74
-4.38
-3.99
-3.57
-3.24
-3.2
-3.57
-4.33
-5.37
-6.45
-7.38
-8.05
-8.47
-8.7
-8.84
-9.02
-9.38
-10.1
-11.32
-13.03
-15.03
-16.94
-18.3
-18.73
-18.12
-16.62
-14.6
-12.39
-10.25
-8.24
-6.37
-4.67
-3.25
-2.24
-1.71
-1.56
-1.61
-1.64
-1.53
-1.26
-0.92
-0.52
-0.05
0.53
1.16
1.67
1.83
1.46
0.6
-0.5
-1.49
-2.06
-2.11
-1.74
-1.19
-0.7
-0.42
-0.4
-0.63
-1.18
-2.12
-3.52
-5.3
-7.23
-8.9
-9.89
-9.88
-8.84
-7.05
-4.99
-3.18
-1.93
-1.32
-1.1
-0.95
-0.57
0.15
1.06
1.92
2.48
2.6
2.34
1.9
1.58
1.59
2.06
2.88
3.86
4.71
5.16
5.09
4.5
3.52
2.35
1.19
0.2
-0.54
-1.05
-1.48
-2.04
-2.93
-4.26
-5.99
-7.87
-9.52
-10.57
-10.73
-9.87
-8.06
-5.52
-2.59
0.34
2.93
4.88
6.05
6.44
6.19
5.57
4.82
4.12
3.57
3.18
2.94
2.86
2.96
3.22
3.6
3.98
4.24
4.29
4.06
3.51
2.62
1.4
-0.1
-1.74
-3.36
-4.77
-5.92
-6.8
-7.54
-8.3
-9.22
-10.42
-11.88
-13.48
-14.94
-15.88
-15.98
-15.09
-13.28
-10.88
-8.27
-5.76
-3.53
-1.61
0.02
1.37
2.36
2.94
3.18
3.26
3.51
4.2
5.46
7.15
8.96
10.53
11.52
11.86
11.64
11.06
10.35
9.61
8.88
8.12
7.3
6.45
5.64
4.92
4.37
3.99
3.71
3.36
2.7
1.44
-0.6
-3.4
-6.64
-9.74
-12.07
-13.07
-12.56
-10.7
-7.97
-4.97
-2.2
0.05
1.73
2.95
3.85
4.55
5.14
5.69
6.29
6.99
7.84
8.75
9.63
10.33
10.81
11.11
11.34
11.62
11.99
12.43
12.87
13.29
13.71
14.22
14.89
15.66
16.33
16.62
16.37
15.58
14.49
13.51
13.02
13.28
14.29
15.86
17.66
19.3
20.35
20.41
19.26
16.98
14.19
12.0
11.75
14.49
20.43
28.67
37.47
44.8
49.07
49.67
47.05
42.25
36.41
30.29
24.24
18.4
12.99
8.32
4.53
1.43
-1.46
-4.48
-7.38
-9.25
-8.98
-6.03
-0.93
4.8
9.4
11.75
11.81
10.34
8.06
5.04
0.58
-6.15
-15.35
-26.05
-36.48
-44.79
-49.98
-52.28
-52.9
-53.36
-54.72
-57.11
-59.81
-61.67
-61.71
-59.58
-55.67
-50.71
-45.43
-40.17
-34.85
-29.27
-23.44
-17.71
-12.76
-9.12
-6.96
-5.88
-5.07
-3.78
-1.6
1.29
4.33
6.84
8.38
8.88
8.54
7.64
6.38
4.82
2.94
0.75
-1.61
-3.96
-6.14
-8.1
-9.9
-11.72
-13.71
-16.04
-18.81
-22.07
-25.8
-29.91
-34.15
-38.2
-41.6
-43.85
-44.51
-43.25
-39.99
-34.93
-28.52
-21.41
-14.23
-7.51
-1.6
3.33
7.21
9.98
11.62
12.2
11.91
11.18
10.58
10.58
11.4
12.94
14.79
16.39
17.36
17.57
17.19
16.48
15.66
14.76
13.61
11.99
9.75
6.96
3.86
0.85
-1.78
-3.91
-5.65
-7.28
-9.13
-11.47
-14.38
-17.85
-21.74
-25.77
-29.55
-32.49
-33.91
-33.22
-30.15
-24.88
-18.09
-10.73
-3.73
2.3
7.15
10.93
13.85
16.08
17.68
18.62
18.94
18.83
18.69
18.91
19.78
21.32
23.21
24.98
26.19
26.6
26.29
25.56
24.72
23.96
23.33
22.82
22.53
22.62
23.18
24.03
24.56
23.91
21.31
16.45
9.54
1.25
-7.65
-16.56
-25.11
-33.04
-40.02
-45.51
-48.95
-49.9
-48.26
-44.34
-38.66
-31.89
-24.71
-17.68
-11.25
-5.69
-1.08
2.64
5.63
8.0
9.83
11.11
11.93
12.43
12.89
13.58
14.63
15.96
17.31
18.35
18.87
18.87
18.52
18.04
17.61
17.2
16.66
15.76
14.28
12.12
9.35
6.2
2.96
-0.09
-2.77
-5.07
-7.16
-9.28
-11.7
-14.68
-18.39
-22.88
-28.0
-33.29
-38.02
-41.24
-42.07
-40.04
-35.19
-28.18
-20.1
-12.03
-4.81
1.16
5.97
9.98
13.55
16.92
20.07
22.82
25.02
26.6
27.71
28.52
29.22
29.79
30.14
30.12
29.67
28.91
28.0
27.08
26.16
25.14
23.84
22.15
20.11
17.81
15.4
12.9
10.25
7.33
4.08
0.56
-3.0
-6.34
-9.3
-11.89
-14.34
-17.02
-20.24
-24.11
-28.37
-32.35
-35.1
-35.7
-33.56
-28.66
-21.56
-13.27
-4.9
2.63
8.8
13.48
16.78
18.94
20.23
20.9
21.23
21.46
21.75
22.1
22.4
22.45
22.13
21.42
20.41
19.28
18.18
17.18
16.32
15.57
14.89
14.2
13.36
12.24
10.68
8.61
6.08
