-4.99
0.43
4.74
7.6
9.02
9.29
8.79
7.85
6.74
5.66
4.75
4.17
3.97
4.14
4.55
5.01
5.3
5.33
5.14
4.86
4.64
4.55
4.55
4.46
4.04
3.12
1.69
-0.07
-1.91
-3.65
-5.27
-6.94
-8.96
-11.54
-14.73
-18.25
-21.63
-24.3
-25.73
-25.61
-23.85
-20.63
-16.32
-11.47
-6.62
-2.24
1.4
4.23
6.34
7.86
8.9
9.57
9.96
10.19
10.41
10.72
11.05
11.25
11.11
10.52
9.59
8.53
7.64
7.07
6.84
6.72
6.47
5.9
4.99
3.76
2.32
0.69
-1.17
-3.29
-5.73
-8.51
-11.61
-15.04
-18.78
-22.68
-26.4
-29.38
-30.99
-30.73
-28.47
-24.45
-19.27
-13.64
-8.18
-3.33
0.69
3.77
5.88
7.14
7.74
8.02
8.32
8.87
9.74
10.82
11.92
12.92
13.75
14.43
15.04
15.57
16.02
16.3
16.35
16.11
15.52
14.52
13.08
11.23
9.11
6.96
5.02
3.43
2.06
0.64
-1.28
-4.01
-7.61
-11.79
-15.98
-19.53
-21.83
-22.5
-21.42
-18.69
-14.61
-9.58
-4.16
1.11
5.72
9.39
12.02
13.72
14.57
14.64
13.86
12.27
10.13
7.92
6.27
5.67
6.26
7.78
9.77
11.82
13.66
15.2
16.31
16.67
15.89
13.65
10.06
5.69
1.4
-2.01
-4.16
-5.23
-5.81
-6.55
-8.02
-10.44
-13.92
-18.55
-24.5
-31.86
-40.46
-49.6
-58.21
-65.03
-69.17
-70.36
-69.02
-65.93
-61.79
-56.83
-50.91
-43.71
-35.2
-25.75
-16.02
-6.55
2.49
11.47
20.97
31.34
42.51
53.84
64.41
73.36
80.18
84.7
87.1
87.67
86.68
84.35
80.8
76.08
70.28
63.5
55.9
47.57
38.53
28.71
17.95
6.15
-6.66
-20.06
-33.33
-45.5
-55.57
-62.74
-66.66
-67.41
-65.41
-61.28
-55.58
-48.86
-41.59
-34.28
-27.44
-21.53
-16.86
-13.44
-11.02
-9.2
-7.62
-6.05
-4.43
-2.8
-1.24
0.17
1.47
2.75
4.14
5.76
7.59
9.5
11.19
12.32
12.6
11.86
10.1
7.47
4.21
0.57
-3.2
-6.97
-10.66
-14.31
-18.05
-22.17
-26.96
-32.63
-39.11
-45.91
-52.17
-56.75
-58.67
-57.29
-52.62
-45.27
-36.31
-26.96
-18.26
-10.93
-5.25
-1.24
1.36
2.91
3.75
4.24
4.68
5.28
6.16
7.37
8.83
10.42
12.01
13.46
14.77
15.96
17.0
17.78
18.09
17.63
16.2
13.81
10.66
7.14
3.63
0.38
-2.57
-5.4
-8.38
-11.82
-15.97
-20.93
-26.5
-32.09
-36.74
-39.24
-38.56
-34.19
-26.39
-16.16
-4.87
6.16
16.02
24.33
31.1
36.46
40.49
43.19
44.66
45.15
45.15
45.18
45.65
46.6
47.75
48.61
48.69
47.74
45.85
43.34
40.64
38.05
35.6
33.06
30.11
26.49
22.13
17.22
12.08
7.02
2.19
-2.48
-7.25
-12.52
-18.67
-25.98
-34.42
-43.62
-52.7
-60.48
-65.63
-67.14
-64.6
-58.43
-49.67
-39.72
-29.82
-20.77
-12.86
-5.99
0.08
5.47
10.18
14.04
16.84
18.52
19.19
19.14
18.82
18.64
18.87
19.62
20.79
22.25
23.81
25.42
27.0
28.45
29.49
29.72
28.72
26.21
22.29
17.36
12.09
7.12
2.85
-0.68
-3.83
-7.14
-11.19
-16.33
-22.61
-29.7
-36.96
-43.52
-48.36
-50.58
-49.56
-45.25
-38.14
-29.24
-19.76
-10.69
-2.68
4.08
9.66
14.19
17.76
20.39
22.13
23.14
23.71
24.19
24.88
25.92
27.26
28.72
30.02
30.9
31.19
30.88
30.06
28.94
27.73
26.51
25.21
23.61
21.49
18.74
15.42
11.73
7.95
4.3
0.84
-2.5
-5.89
-9.55
-13.67
-18.43
-23.93
-30.07
-36.47
-42.33
-46.57
-48.07
-46.12
-40.66
-32.44
-22.79
-13.12
-4.53
2.5
8.03
12.4
15.92
18.7
20.66
21.79
22.23
22.35
22.58
23.23
24.34
25.73
27.07
28.11
28.74
28.95
28.8
28.26
27.3
25.88
24.0
21.73
19.11
16.18
12.93
9.39
5.66
1.94
-1.54
-4.68
-7.56
-10.44
-13.7
-17.68
-22.61
-28.48
-34.99
-41.55
-47.3
-51.24
-52.48
-50.53
-45.46
-37.98
-29.23
-20.41
-12.46
-5.86
-0.63
3.43
6.58
8.93
10.53
11.46
11.93
12.29
12.9
13.97
15.42
16.96
18.21
18.92
19.07
18.85
18.45
18.0
17.41
16.45
14.87
12.51
9.34
5.52
1.28
-3.04
-7.17
-10.94
-14.38
-17.75
-21.45
-25.82
-30.84
-36.03
-40.47
-43.09
-43.04
-39.97
-34.11
-26.23
-17.35
-8.43
-0.25
6.76
12.42
16.8
20.01
22.22
23.62
24.39
24.76
24.98
25.33
25.94
26.84
27.86
28.78
29.42
29.65
29.53
29.12
28.46
27.51
26.1
24.05
21.26
17.75
13.73
9.51
5.39
1.54
-2.06
-5.68
-9.74
-14.64
-20.57
-27.38
-34.4
-40.65
-44.99
-46.49
-44.76
-40.0
-33.06
-25.04
-17.07
-9.94
-4.09
0.45
3.84
6.31
8.11
9.45
10.55
11.6
12.77
14.11
15.54
16.88
17.98
18.77
19.38
20.01
20.84
21.9
23.0
23.78
23.86
23.0
21.17
18.59
15.59
12.53
9.64
7.01
4.57
2.09
-0.69
-4.02
-7.98
-12.37
-16.72
-20.33
-22.45
-22.59
-20.63
-16.87
-11.95
-6.53
-1.2
3.74
8.21
12.17
15.62
18.48
20.71
22.37
23.63
24.72
25.8
26.81
27.52
27.72
27.3
26.41
25.39
24.55
24.0
23.6
23.01
21.88
20.03
17.43
14.19
10.44
6.35
2.07
-2.2
-6.28
-10.08
-13.68
-17.38
-21.58
-26.63
-32.68
-39.51
-46.49
-52.61
-56.72
-57.82
-55.37
-49.56
-41.25
-31.78
-22.53
-14.49
-8.04
-2.94
1.37
5.46
9.56
13.62
17.33
20.44
22.86
24.68
26.07
27.07
27.61
27.53
26.79
25.56
24.24
23.28
22.95
23.27
23.94
24.59
24.9
24.72
24.0
22.75
20.91
18.33
14.94
10.76
5.97
0.81
-4.59
-10.24
-16.25
-22.64
-29.09
-34.89
-39.07
-40.72
-39.35
-35.1
-28.69
-21.22
-13.74
-7.06
-1.54
2.8
6.14
8.69
10.64
12.11
13.24
14.18
15.09
16.09
17.2
18.32
19.25
19.8
19.86
19.44
18.64
17.59
16.36
14.92
13.18
10.99
8.27
5.0
1.27
-2.73
-6.71
-10.39
-13.59
-16.34
-18.93
-21.86
-25.61
-30.48
-36.28
-42.37
-47.72
-51.23
-52.08
-49.97
-45.2
-38.49
-30.78
-22.9
-15.53
-9.04
-3.69
0.39
3.19
4.85
5.59
5.74
5.62
5.46
5.38
5.39
5.5
5.7
6.05
6.6
7.44
8.61
10.1
11.75
13.26
14.26
14.38
13.39
11.3
8.32
4.8
1.11
-2.51
-6.02
-9.57
-13.48
-18.06
-23.4
-29.24
-34.88
-39.36
-41.66
-41.07
-37.47
-31.34
-23.61
-15.36
-7.49
-0.61
5.08
9.62
13.18
15.99
18.24
20.05
21.51
22.62
23.38
23.79
23.95
24.0
24.15
24.55
25.19
25.88
26.28
26.09
25.09
23.26
20.71
17.67
14.38
11.13
8.2
5.79
3.88
2.15
-0.03
-3.38
-8.37
-15.04
-22.78
-30.53
-37.1
-41.37
-42.69
-40.85
-36.09
-29.05
-20.52
-11.42
-2.49
5.68
12.75
18.52
22.82
25.51
26.51
26.0
24.41
22.41
20.62
19.39
18.7
18.22
17.6
16.67
15.6
14.66
14.1
13.85
13.53
12.64
10.74
7.74
3.87
-0.36
-4.49
-8.23
-11.6
-14.81
-18.2
-22.06
-26.58
-31.77
-37.49
-43.37
-48.8
-52.94
-54.89
-53.95
-49.86
-42.97
-34.08
-24.25
-14.46
-5.34
2.78
9.81
15.79
20.74
24.7
27.77
30.12
31.99
33.6
35.09
36.47
37.68
38.56
39.03
39.09
38.84
38.5
38.27
38.22
38.19
37.87
36.84
34.83
31.84
28.18
24.37
20.94
18.18
16.06
14.19
11.95
8.67
3.9
-2.48
-10.06
-18.01
-25.22
-30.5
-32.95
-32.11
-28.11
-21.57
-13.41
-4.64
3.93
11.72
18.48
24.16
28.8
32.45
35.16
36.98
38.06
38.6
38.85
39.0
39.09
39.07
38.79
38.15
37.18
36.0
34.79
33.61
32.37
30.74
28.31
24.76
20.04
14.45
8.57
3.06
-1.59
-5.25
-8.19
-10.95
-14.09
-18.08
-23.17
-29.34
-36.31
-43.43
-49.71
-53.95
-55.05
-52.39
-46.23
-37.69
-28.42
-20.0
-13.38
-8.66
-5.26
-2.36
0.61
3.8
7.0
9.93
12.41
14.44
16.03
17.17
17.71
17.56
16.77
15.65
14.66
14.16
14.31
14.9
15.48
15.49
14.57
12.63
9.91
6.86
3.91
1.36
-0.79
-2.77
-4.95
-7.72
-11.31
-15.77
-20.83
-25.97
-30.44
-33.41
-34.2
-32.49
-28.45
-22.7
-16.14
-9.67
-3.96
0.68
4.21
6.77
8.51
9.51
9.84
9.6
9.0
8.34
7.85
7.7
7.84
8.14
8.47
8.79
9.11
9.41
9.55
9.27
8.28
6.42
3.79
0.66
-2.59
-5.71
-8.59
-11.33
-14.09
-17.07
-20.44
-24.31
-28.65
-33.23
-37.55
-40.93
-42.65
-42.18
-39.35
-34.47
-28.2
-21.3
-14.47
-8.11
-2.4
2.69
7.2
11.09
14.21
16.41
17.66
18.12
18.15
18.1
18.25
18.65
19.13
19.41
19.28
18.72
17.88
16.99
16.22
15.55
14.73
13.46
11.49
8.82
5.68
2.41
-0.65
-3.36
-5.74
-8.0
-10.4
-13.22
-16.69
-20.95
-25.93
-31.27
-36.32
-40.25
-42.23
-41.75
-38.77
-33.72
-27.34
-20.47
-13.86
-8.01
-3.17
0.66
3.62
5.88
7.66
9.07
10.22
11.23
12.25
13.42
14.84
16.44
17.99
19.2
19.84
19.85
19.38
18.68
17.96
17.34
16.76
16.03
14.97
13.42
11.37
8.86
6.02
3.02
0.0
-2.89
-5.52
-7.8
-9.73
-11.42
-13.12
-15.19
-17.97
-21.59
-25.84
-30.12
-33.56
-35.3
-34.72
-31.72
-26.7
-20.44
-13.77
-7.37
-1.6
3.55
8.24
12.64
16.82
20.68
23.97
26.42
27.86
28.22
27.62
26.32
24.66
22.89
21.13
19.34
17.34
14.92
11.97
8.51
4.68
0.73
-3.15
-6.73
-9.9
-12.6
-14.86
-16.83
-18.64
-20.43
-22.21
-23.9
-25.44
-26.83
-28.27
-30.13
-32.79
-36.5
-41.22
-46.5
-51.52
-55.24
-56.61
-54.86
-49.79
-41.91
-32.4
-22.75
-14.34
-7.97
-3.65
-0.82
1.32
3.37
5.54
7.68
9.54
11.05
12.36
13.76
15.39
17.15
18.68
19.6
19.74
19.3
18.79
18.77
19.54
20.94
22.35
22.91
21.98
19.45
15.88
12.23
9.52
8.31
8.48
9.3
9.69
8.65
5.5
-0.0
-7.67
-16.99
-27.11
-36.89
-44.91
-49.75
-50.32
-46.2
-37.9
-26.78
-14.75
-3.71
4.95
10.64
13.63
14.72
14.92
15.04
15.56
16.64
18.21
20.11
22.11
23.97
25.41
26.22
26.32
25.85
25.09
24.4
24.05
24.07
24.26
24.27
23.71
22.3
19.98
16.94
13.49
10.01
6.77
3.91
1.34
-1.19
-3.99
-7.38
-11.49
-16.26
-21.35
-26.16
-29.92
-31.94
-31.68
-29.05
-24.35
-18.22
-11.37
-4.47
1.99
7.7
12.5
16.35
19.31
21.56
23.42
25.2
27.14
29.28
31.51
33.6
35.33
36.6
37.39
37.75
37.77
37.51
37.03
36.34
35.39
34.11
32.44
30.31
27.75
24.86
21.78
18.72
15.82
13.15
10.74
8.54
6.36
4.03
1.36
-1.76
-5.32
-9.14
-12.95
-16.4
-19.09
-20.57
-20.43
-18.33
-14.26
-8.52
-1.87
4.74
10.38
14.45
16.84
17.84
17.98
17.78
17.58
17.56
17.75
18.15
18.71
19.36
19.89
20.06
19.65
18.59
16.99
15.13
13.31
11.69
10.25
8.77
6.99
4.72
1.92
-1.26
-4.65
-8.04
-11.34
-14.51
-17.58
-20.59
-23.55
-26.48
-29.44
-32.54
-35.98
-39.96
-44.56
-49.58
-54.51
-58.55
-60.85
-60.79
-58.16
-53.32
-47.0
-40.1
-33.41
-27.44
-22.42
-18.36
-15.14
-12.64
-10.73
-9.27
-8.13
-7.18
-6.36
-5.62
-4.96
-4.35
-3.76
-3.16
-2.55
-1.94
-1.4
-1.0
-0.81
-0.9
-1.31
-2.1
-3.29
-4.89
-6.86
-9.11
-11.48
-13.77
-15.84
-17.66
-19.36
-21.23
-23.56
-26.51
-30.03
-33.77
-37.15
-39.45
-40.09
-38.68
-35.21
-29.91
-23.26
-15.8
-8.06
-0.52
6.44
12.51
17.51
21.39
24.26
26.33
27.86
29.11
30.22
31.27
32.21
32.89
33.14
32.84
32.0
30.79
29.48
28.31
27.32
26.35
25.03
22.99
20.11
16.5
12.5
8.5
4.73
1.26
-2.05
-5.32
-8.64
-12.0
-15.31
-18.47
-21.37
-23.83
-25.58
-26.23
-25.39
-22.86
-18.75
-13.55
-8.01
-2.89
1.31
4.51
7.0
9.26
11.69
14.38
17.15
19.63
21.52
22.73
23.43
23.86
24.25
24.64
24.97
25.12
25.05
24.81
24.47
24.09
23.53
22.54
20.81
18.15
14.55
10.27
5.78
1.55
-2.05
-4.9
-7.13
-9.06
-11.02
-13.31
-16.06
-19.35
-23.09
-27.06
-30.87
-33.98
-35.78
-35.77
-33.74
-29.77
-24.29
-17.92
-11.28
-4.92
0.83
5.77
9.84
13.04
15.4
17.01
17.91
18.21
18.0
17.42
16.58
15.58
14.5
13.35
12.17
10.97
9.78
8.62
7.47
6.28
4.98
3.44
1.6
-0.55
-3.0
-5.66
-8.45
-11.26
-13.99
-16.56
-18.93
-21.16
-23.34
-25.59
-28.01
-30.68
-33.7
-37.05
-40.59
-43.88
-46.29
-47.08
-45.66
-41.86
-36.0
-28.77
-20.99
-13.36
-6.31
-0.02
5.46
10.12
13.88
16.7
18.57
19.57
19.9
19.81
19.57
19.41
19.48
19.77
20.19
20.56
20.7
20.48
19.84
18.8
17.41
15.71
13.76
11.57
9.12
6.39
3.37
0.11
-3.27
-6.64
-9.87
-12.92
-15.81
-18.65
-21.58
-24.73
-28.18
-31.99
-36.11
-40.35
-44.35
-47.54
-49.26
-48.92
-46.28
-41.48
-35.1
-27.92
-20.69
-13.91
-7.73
-2.14
2.93
7.5
11.48
14.8
17.5
19.72
21.67
23.51
25.27
26.84
28.03
28.66
28.72
28.34
27.73
27.05
26.35
25.44
24.05
21.95
19.09
15.62
11.87
8.2
4.9
2.09
-0.31
-2.48
-4.75
-7.43
-10.81
-15.04
-20.03
-25.41
-30.55
-34.7
-37.19
-37.55
-35.73
-31.96
-26.8
-20.89
-14.84
-9.14
-4.12
0.04
3.24
5.47
6.79
7.35
7.33
6.94
6.39
5.82
5.31
4.86
4.44
4.05
3.73
3.6
3.82
4.49
5.59
6.9
8.06
8.68
8.51
7.5
5.85
3.93
2.09
0.58
-0.56
-1.5
-2.58
-4.16
-6.58
-10.04
-14.51
-19.64
-24.79
-29.1
-31.68
-31.83
-29.3
-24.28
-17.41
-9.55
-1.5
6.12
12.87
18.57
23.08
26.39
28.52
29.69
30.2
30.45
30.72
31.13
31.56
31.75
31.44
30.5
29.0
27.22
25.52
24.16
23.24
22.57
21.73
20.25
17.76
14.21
9.85
5.16
0.69
-3.18
-6.29
-8.75
-10.88
-13.11
-15.94
-19.75
-24.75
-30.77
-37.25
-43.27
-47.73
-49.67
-48.48
-44.1
-37.03
-28.24
-18.86
-9.95
-2.2
4.11
9.08
13.0
16.21
18.97
21.5
23.98
26.58
29.37
32.23
34.8
36.55
37.04
36.14
34.14
31.65
29.32
27.59
26.51
25.78
24.94
23.6
21.6
19.05
16.2
13.31
10.52
7.86
5.22
2.42
-0.72
-4.43
-8.96
-14.46
-20.88
-27.87
-34.67
-40.23
-43.5
-43.81
-41.04
-35.74
-28.88
-21.53
-14.56
-8.46
-3.41
0.65
3.82
6.2
7.88
8.95
9.56
9.82
9.86
9.74
9.51
9.17
8.73
8.19
7.56
6.89
6.25
5.76
5.52
5.53
5.64
5.55
4.93
3.56
1.45
-1.2
-4.03
-6.74
-9.18
-11.44
-13.75
-16.42
-19.73
-23.79
-28.53
-33.63
-38.55
-42.54
-44.75
-44.53
-41.54
-35.93
-28.36
-19.76
-11.13
-3.27
3.38
8.7
12.74
15.65
17.54
18.58
19.01
19.17
19.43
20.0
20.87
21.81
22.48
22.66
22.39
21.91
21.5
21.29
21.12
20.62
19.36
17.15
14.1
10.56
6.95
3.59
0.56
-2.28
-5.13
-8.23
-11.75
-15.83
-20.51
-25.73
-31.15
-36.17
-39.95
-41.64
-40.69
-37.06
-31.22
-24.03
-16.4
-9.06
-2.46
3.23
8.04
11.97
15.02
17.14
18.32
18.7
18.52
18.14
17.89
17.98
18.47
19.25
20.08
20.74
21.05
20.94
20.43
19.54
18.28
16.64
14.59
12.12
9.3
6.26
3.15
0.12
-2.74
-5.49
-8.27
-11.3
-14.87
-19.14
-24.19
-29.85
-35.71
-41.14
-45.38
-47.66
-47.45
-44.57
-39.27
-32.19
-24.17
-16.03
-8.42
-1.71
4.0
8.77
12.7
15.84
18.19
19.76
20.63
21.01
21.15
21.31
21.63
22.1
22.58
22.86
22.79
22.33
21.52
20.49
19.35
18.15
16.82
15.25
13.34
11.0
8.25
5.21
2.01
-1.16
-4.2
-7.13
-10.05
-13.17
-16.75
-20.93
-25.74
-30.97
-36.16
-40.65
-43.66
-44.5
-42.75
-38.38
-31.82
-23.88
-15.53
-7.64
-0.78
4.88
9.48
13.3
16.58
19.42
21.75
23.47
24.6
25.23
25.58
25.9
26.29
26.77
27.26
27.61
27.7
27.48
26.97
26.17
25.11
23.74
21.99
19.8
17.13
14.05
10.69
7.22
3.79
0.5
-2.64
-5.7
-8.83
-12.17
-15.89
-20.13
-24.92
-30.17
-35.57
-40.49
-44.09
-45.53
-44.22
-40.1
-33.72
-26.01
-18.05
-10.62
-4.1
1.5
6.38
10.64
14.24
17.08
19.04
20.18
20.65
20.67
20.44
20.11
19.79
19.52
19.37
19.34
19.44
19.63
19.81
19.81
19.39
18.33
16.5
13.93
10.82
7.54
4.4
1.59
-0.9
-3.28
-5.8
-8.71
-12.14
-16.12
-20.61
-25.44
-30.26
-34.52
-37.46
-38.32
-36.6
-32.26
-25.8
-18.12
-10.24
-2.92
3.4
8.62
12.8
16.0
18.22
19.49
19.95
19.89
19.71
19.72
20.07
20.68
21.31
21.72
21.75
21.44
20.92
20.36
19.83
19.26
18.43
17.11
15.16
12.58
9.56
6.3
3.02
-0.15
-3.21
-6.25
-9.41
-12.9
-16.96
-21.74
-27.15
-32.77
-37.82
-41.32
-42.39
-40.54
-35.92
-29.2
-21.39
-13.43
-6.03
0.51
6.15
10.97
14.99
18.15
20.35
21.6
22.05
21.98
21.69
21.41
21.23
21.11
20.97
20.75
20.44
20.11
19.81
19.64
19.55
19.43
18.99
17.89
15.82
12.66
8.58
4.02
-0.44
-4.32
-7.45
-10.06
-12.68
-15.88
-20.07
-25.28
-31.19
-37.12
-42.21
-45.62
-46.68
-45.07
-40.85
-34.48
-26.72
-18.43
-10.4
-3.18
2.97
8.05
12.2
15.64
18.5
20.88
22.78
24.19
25.09
25.57
25.75
25.82
25.89
26.0
26.06
25.92
25.47
24.71
23.7
22.6
21.45
20.19
18.66
16.64
14.0
10.76
7.13
3.38
-0.17
-3.35
-6.11
-8.6
-11.12
-14.03
-17.68
-22.25
-27.68
-33.57
-39.17
-43.54
-45.8
-45.34
-42.1
-36.49
-29.35
-21.57
-13.92
-6.87
-0.61
4.84
9.49
13.3
16.25
18.34
19.73
20.65
21.34
21.98
22.58
23.08
23.38
23.45
23.36
23.2
23.04
22.87
22.55
21.91
20.86
19.39
17.6
15.6
13.46
11.19
8.72
6.02
3.08
-0.04
-3.23
-6.4
-9.47
-12.43
-15.34
-18.37
-21.76
-25.75
-30.45
-35.72
-41.1
-45.82
-49.0
-49.84
-47.89
-43.19
-36.24
-27.91
-19.14
-10.73
-3.14
3.47
9.17
14.11
18.33
21.87
24.7
26.85
28.46
29.7
30.75
31.74
32.69
33.57
34.35
34.98
35.47
35.81
35.97
35.84
35.29
34.2
32.52
30.31
27.67
24.71
21.47
17.92
14.01
9.74
5.26
0.8
-3.44
-7.32
-10.89
-14.31
-17.76
-21.43
-25.46
-29.93
-34.82
-39.85
-44.57
-48.22
-50.03
-49.33
-45.86
-39.85
-32.01
-23.31
-14.76
-7.16
-0.92
3.93
7.6
10.45
12.81
14.87
16.68
18.15
19.18
19.7
19.77
19.51
19.13
18.76
18.49
18.3
18.15
17.94
17.62
17.1
16.31
15.21
13.84
12.29
10.69
9.13
7.61
6.05
4.35
2.43
0.29
-1.99
-4.32
-6.63
-8.96
-11.45
-14.32
-17.82
-22.06
-26.87
-31.75
-35.91
-38.5
-38.86
-36.77
-32.5
-26.7
-20.2
-13.73
-7.84
-2.84
1.18
4.2
6.27
7.5
8.06
8.15
8.03
7.87
7.83
7.95
8.28
8.77
9.41
10.13
10.87
11.5
11.94
12.08
11.85
11.14
9.92
8.19
6.06
3.75
1.49
-0.54
-2.29
-3.93
-5.71
-7.93
-10.82
-14.44
-18.63
-23.02
-27.03
-29.99
-31.27
-30.52
-27.81
-23.54
-18.42
-13.17
-8.31
-4.1
-0.52
2.5
5.02
6.97
8.19
8.53
8.01
6.82
5.23
3.55
1.95
0.51
-0.79
-1.86
-2.5
-2.43
-1.43
0.48
2.95
5.32
6.85
6.96
5.43
2.43
-1.59
-6.11
-10.69
-15.08
-19.2
-23.11
-26.91
-30.68
-34.4
-37.88
-40.65
-42.09
-41.6
-38.83
-33.88
-27.34
-20.11
-13.08
-6.9
-1.83
2.17
5.27
7.63
9.31
10.32
10.69
10.57
10.2
9.81
9.55
9.44
9.32
9.06
8.56
7.9
7.2
6.6
6.08
5.47
4.55
3.17
1.35
-0.68
-2.64
-4.31
-5.71
-7.09
-8.8
-11.18
-14.43
-18.51
-23.15
-27.8
-31.74
-34.14
-34.31
-31.89
-27.05
-20.41
-12.92
-5.5
1.23
7.05
12.08
16.6
20.75
24.52
27.72
30.15
31.75
32.62
32.97
33.01
32.85
32.49
31.89
31.07
30.15
29.29
28.6
27.97
27.1
25.55
23.01
19.42
15.08
10.49
6.15
2.4
-0.77
-3.63
-6.58
-10.06
-14.36
-19.58
-25.49
-31.58
-37.08
-41.14
-43.05
-42.47
-39.56
-34.92
-29.36
-23.6
-18.1
-12.97
-8.05
-3.15
1.79
6.64
11.06
14.64
17.08
18.35
18.67
18.45
18.09
17.88
17.91
18.12
18.43
18.8
19.26
19.81
20.33
20.56
20.13
18.74
16.28
12.93
9.08
5.2
1.67
-1.28
-3.66
-5.64
-7.47
-9.5
-12.05
-15.42
-19.75
-24.98
-30.66
-35.99
-40.01
-41.85
-40.97
-37.35
-31.44
-23.99
-15.83
-7.7
-0.21
6.17
11.13
14.6
16.76
18.03
18.98
20.1
21.67
23.68
25.85
27.83
29.28
29.98
29.87
29.0
27.59
25.88
24.11
22.42
20.72
18.78
16.27
12.99
8.98
4.53
0.1
-3.94
-7.46
-10.64
-13.9
-17.64
-22.15
-27.35
-32.85
-37.96
-41.84
-43.75
-43.2
-40.11
-34.88
-28.28
-21.17
-14.28
-8.01
-2.34
2.93
8.06
13.1
17.87
22.07
25.41
27.79
29.33
30.3
30.97
31.48
31.86
32.03
31.95
31.64
31.21
30.72
30.17
29.44
28.34
26.73
24.53
21.81
18.66
15.2
11.59
8.0
4.61
1.55
-1.13
-3.57
-6.02
-8.84
-12.31
-16.57
-21.51
-26.78
-31.82
-35.93
-38.41
-38.7
-36.56
-32.17
-26.11
-19.14
-12.08
-5.5
0.35
5.41
9.78
13.52
16.58
18.86
20.38
21.26
21.79
22.26
22.82
23.49
24.13
24.63
24.98
25.23
25.48
25.69
25.71
25.25
24.09
22.18
19.72
17.03
14.44
12.13
10.09
8.15
6.12
3.9
1.5
-1.01
-3.53
-6.03
