-43.77
-45.35
-44.13
-40.06
-33.6
-25.62
-17.15
-9.08
-1.91
4.25
9.56
14.24
18.37
21.85
24.51
26.21
26.96
27.01
26.66
26.26
26.0
25.95
26.02
26.05
25.88
25.39
24.54
23.37
21.97
20.42
18.76
16.97
14.98
12.71
10.09
7.09
3.74
0.1
-3.69
-7.5
-11.17
-14.61
-17.86
-21.11
-24.69
-28.97
-34.15
-40.1
-46.27
-51.75
-55.46
-56.5
-54.42
-49.36
-42.06
-33.6
-25.07
-17.28
-10.58
-4.88
0.17
4.93
9.58
14.01
17.89
20.88
22.75
23.56
23.59
23.2
22.73
22.34
21.98
21.55
20.98
20.24
19.39
18.49
17.5
16.32
14.78
12.8
10.32
7.4
4.13
0.65
-2.9
-6.3
-9.31
-11.69
-13.32
-14.27
-14.92
-15.8
-17.47
-20.4
-24.69
-30.13
-36.09
-41.65
-45.77
-47.45
-46.03
-41.33
-33.87
-24.65
-14.95
-5.87
1.89
8.14
13.11
17.11
20.35
22.89
24.7
25.84
26.47
26.87
27.27
27.73
28.16
28.42
28.37
28.03
27.46
26.76
26.0
25.19
24.3
23.28
22.04
20.45
18.36
15.63
12.23
8.31
4.14
0.12
-3.48
-6.54
-9.2
-11.8
-14.72
-18.32
-22.73
-27.83
-33.18
-38.12
-41.84
-43.58
-42.82
-39.42
-33.7
-26.34
-18.25
-10.27
-3.03
3.14
8.19
12.2
15.26
17.44
18.76
19.31
19.27
18.92
18.56
18.35
18.32
18.37
18.33
18.13
17.8
17.47
17.27
17.2
17.07
16.55
15.26
13.01
9.81
5.98
1.96
-1.77
-4.94
-7.5
-9.7
-11.91
-14.55
-17.88
-22.0
-26.76
-31.8
-36.54
-40.26
-42.29
-42.07
-39.39
-34.43
-27.74
-20.14
-12.5
-5.52
0.41
5.21
9.02
12.07
14.52
16.48
17.95
18.92
19.33
19.21
18.62
17.69
16.61
15.6
14.83
14.4
14.26
14.24
14.15
13.75
12.93
11.64
9.93
7.92
5.77
3.63
1.66
-0.0
-1.33
-2.37
-3.31
-4.41
-6.03
-8.51
-12.09
-16.83
-22.54
-28.74
-34.69
-39.54
-42.46
-42.85
-40.5
-35.63
-28.86
-21.0
-12.87
-5.15
1.7
7.46
12.12
15.77
18.59
20.79
22.5
23.8
24.68
25.11
25.11
24.84
24.48
24.24
24.25
24.46
24.72
24.84
24.63
24.02
22.98
21.54
19.75
17.59
15.05
12.09
8.75
5.12
1.36
-2.32
-5.71
-8.69
-11.23
-13.45
-15.62
-18.08
-21.19
-25.24
-30.33
-36.26
-42.41
-47.85
-51.46
-52.3
-49.88
-44.34
-36.42
-27.17
-17.74
-9.01
-1.55
4.47
9.17
12.83
15.82
18.45
20.91
23.24
25.29
26.84
27.64
27.55
26.58
24.91
22.89
20.93
19.46
18.71
18.64
19.01
19.39
19.41
18.81
17.56
15.76
13.57
11.12
8.51
5.81
3.07
0.35
-2.27
-4.78
-7.17
-9.46
-11.72
-14.07
-16.73
-19.95
-23.95
-28.83
-34.39
-40.14
-45.26
-48.8
-49.93
-48.14
-43.51
-36.59
-28.31
-19.69
-11.57
-4.47
1.4
6.08
9.67
12.32
14.17
15.4
16.16
16.55
16.6
16.3
15.67
14.81
13.94
13.29
12.98
12.98
13.08
13.01
12.55
11.61
10.2
8.36
6.14
3.58
0.76
-2.14
-4.9
-7.32
-9.28
-10.83
-12.15
-13.5
-15.12
-17.18
-19.68
-22.48
-25.22
-27.38
-28.38
-27.72
-25.13
-20.68
-14.71
-7.75
-0.32
7.12
14.21
20.69
26.3
30.82
34.01
35.75
36.05
35.11
33.29
31.08
28.93
27.17
25.91
25.13
24.7
24.51
24.49
24.56
24.61
24.42
23.78
22.51
20.61
18.16
15.29
12.11
8.67
5.02
1.29
-2.3
-5.53
-8.23
-10.44
-12.48
-14.83
-18.01
-22.32
-27.66
-33.44
-38.65
-42.09
-42.7
-39.96
-34.04
-25.82
-16.58
-7.64
0.05
6.11
10.69
14.27
17.39
20.33
23.12
25.53
27.24
28.04
27.86
26.79
24.95
22.54
19.75
16.79
13.96
11.6
10.0
9.32
9.42
9.92
10.29
9.96
8.63
6.26
3.07
-0.53
-4.15
-7.49
-10.41
-12.92
-15.2
-17.53
-20.22
-23.58
-27.77
-32.72
-38.06
-43.19
-47.29
-49.58
-49.41
-46.53
-41.14
-33.83
-25.52
-17.1
-9.29
-2.47
3.28
8.07
12.06
15.34
17.97
20.0
21.51
22.6
23.3
23.61
23.47
22.81
21.67
20.17
18.55
17.06
15.93
15.24
14.89
14.66
14.18
13.09
11.09
8.12
4.32
0.15
-3.85
-7.09
-9.07
-9.53
-8.36
-5.61
-1.45
3.8
9.7
15.63
20.97
25.17
27.88
29.01
28.73
27.35
25.27
22.9
20.63
18.84
17.82
17.64
18.18
19.08
19.91
20.23
19.88
18.87
17.42
15.76
14.08
12.48
10.98
9.56
8.21
6.89
5.49
3.88
1.94
-0.43
-3.16
-6.04
-8.83
-11.26
-13.19
-14.66
-15.83
-16.99
-18.38
-20.19
-22.45
-25.13
-28.13
-31.37
-34.8
-38.34
-41.9
-45.31
-48.45
-51.15
-53.27
-54.58
-54.75
-53.36
-50.08
-44.76
-37.56
-28.87
-19.12
-8.69
2.06
12.74
22.75
31.3
37.62
41.32
42.54
42.04
40.85
39.93
39.77
40.35
41.19
41.7
41.37
39.99
37.63
34.51
30.92
27.08
23.14
19.21
15.44
11.97
8.88
6.14
3.57
0.94
-1.92
-5.06
-8.4
-11.82
-15.3
-18.9
-22.8
-27.13
-31.84
-36.62
-40.9
-43.92
-44.98
-43.58
-39.66
-33.63
-26.34
-18.77
-11.8
-6.0
-1.6
1.47
3.39
4.41
4.74
4.66
4.5
4.53
4.88
5.49
6.07
6.3
5.99
5.18
4.14
3.15
2.42
1.9
1.39
0.65
-0.48
-2.05
-4.01
-6.31
-8.91
-11.77
-14.77
-17.75
-20.59
-23.32
-26.19
-29.62
-33.92
-39.05
-44.47
-49.22
-52.16
-52.46
-49.73
-44.25
-36.75
-28.24
-19.69
-11.84
-5.14
0.28
4.45
7.54
9.73
11.22
12.17
12.73
13.04
13.17
13.14
12.91
12.44
11.73
10.94
10.24
9.82
9.73
9.84
9.87
9.42
8.21
6.11
3.2
-0.26
-3.97
-7.63
-11.08
-14.29
-17.43
-20.82
-24.87
-29.88
-35.85
-42.35
-48.45
-53.0
-54.9
-53.47
-48.7
-41.18
-31.9
-22.05
-12.64
-4.43
2.18
7.13
10.67
13.14
14.95
16.33
17.4
18.14
18.55
18.66
18.54
18.22
17.67
16.84
15.74
14.51
13.39
12.58
12.09
11.64
10.74
8.94
6.07
2.31
-1.77
-5.56
-8.63
-10.96
-12.96
-15.27
-18.5
-22.98
-28.62
-34.8
-40.56
-44.78
-46.5
-45.14
-40.66
-33.54
-24.59
-14.76
-4.93
4.23
12.28
19.01
24.35
28.34
31.14
32.99
34.15
34.87
35.29
35.45
35.21
34.45
33.08
31.22
29.12
27.16
25.56
24.36
23.31
22.02
20.1
17.31
13.63
9.18
4.18
-1.2
-6.84
-12.7
-18.84
-25.34
-32.21
-39.21
-45.8
-51.06
-53.96
-53.61
-49.6
-42.19
-32.26
-21.13
-10.14
-0.37
7.61
13.76
18.4
21.96
24.79
27.06
28.8
30.01
30.74
31.17
31.52
32.01
32.74
33.69
34.64
35.26
35.08
33.61
30.45
25.47
18.94
11.49
3.91
-3.09
-9.13
-14.26
-18.85
-23.47
-28.64
-34.66
-41.5
-48.65
-55.21
-59.98
-61.78
-59.81
-53.93
-44.77
-33.51
-21.57
-10.12
0.03
8.6
15.64
21.32
25.89
29.56
32.6
35.27
37.78
40.19
42.31
43.82
44.35
43.78
42.3
40.43
38.81
37.92
37.85
38.26
38.44
37.68
35.43
31.61
26.5
20.7
14.86
9.49
4.79
0.64
-3.37
-7.75
-13.01
-19.35
-26.58
-34.02
-40.65
-45.27
-46.93
-45.16
-40.09
-32.4
-23.08
-13.13
-3.41
5.53
13.39
20.04
25.43
29.61
32.65
34.66
35.81
36.31
36.39
36.32
36.3
36.5
36.91
37.42
37.82
37.85
37.32
36.16
34.42
32.24
29.74
26.99
23.97
20.6
16.87
12.8
8.47
4.03
-0.42
-4.79
-9.04
-13.15
-17.14
-21.13
-25.31
-29.92
-35.18
-41.11
-47.39
-53.36
-58.07
-60.51
-59.87
-55.87
-48.8
-39.51
-29.13
-18.76
-9.22
-0.89
6.22
12.32
17.65
22.35
26.44
29.84
32.44
34.21
35.17
35.43
35.21
34.75
34.33
34.14
34.29
34.78
35.44
36.03
36.24
35.82
34.59
32.57
29.92
26.88
23.73
20.6
17.56
14.54
11.42
8.15
4.7
1.15
-2.43
-5.97
-9.46
-13.0
-16.76
-20.99
-25.92
-31.69
-38.15
-44.79
-50.78
-55.1
-56.86
-55.49
-50.94
-43.68
-34.58
-24.59
-14.6
-5.25
3.13
10.39
16.49
21.4
25.13
27.68
29.18
29.87
30.05
30.01
29.98
30.03
30.14
30.21
30.16
29.93
29.57
29.15
28.7
28.18
27.38
26.07
24.08
21.39
18.18
14.74
11.33
8.06
4.9
1.71
-1.57
-4.97
-8.39
-11.85
-15.48
-19.56
-24.35
-29.89
-35.79
-41.28
-45.3
-46.93
-45.59
-41.31
-34.64
-26.45
-17.71
-9.16
-1.28
5.74
11.88
17.17
21.6
25.11
27.65
29.22
29.91
29.92
29.5
28.86
28.18
27.56
27.09
26.85
26.91
27.24
27.66
27.88
27.56
26.48
24.6
22.1
19.3
16.49
13.84
11.32
8.8
6.13
3.21
0.08
-3.13
-6.26
-9.16
-11.85
-14.5
-17.45
-21.07
-25.65
-31.15
-37.09
-42.6
-46.62
-48.21
-46.77
-42.21
-34.91
-25.54
-14.93
-3.95
6.6
16.05
23.92
30.04
34.55
37.79
40.18
42.07
43.61
44.79
45.54
45.73
45.26
44.07
42.07
39.25
35.69
31.68
27.62
23.98
21.07
18.93
17.27
15.6
13.44
10.55
7.02
3.2
-0.53
-3.99
-7.29
-10.76
-14.71
-19.28
-24.32
-29.46
-34.34
-38.74
-42.71
-46.53
-50.61
-55.33
-60.86
-66.98
-73.02
-77.95
-80.63
-80.15
-76.17
-69.03
-59.62
-49.11
-38.53
-28.56
-19.45
-11.19
-3.7
3.06
9.01
14.06
18.16
21.37
23.85
25.79
27.41
28.82
30.05
31.07
31.79
32.17
32.25
32.11
31.89
31.66
31.32
30.64
29.3
27.1
24.1
20.62
17.19
14.23
11.9
10.01
8.08
5.68
2.57
-1.15
-5.11
-8.91
-12.33
-15.42
-18.43
-21.68
-25.42
-29.78
-34.67
-39.8
-44.65
-48.49
-50.49
-49.98
-46.63
-40.68
-32.91
-24.34
-16.03
-8.68
-2.59
2.32
6.32
9.66
12.48
14.83
16.69
18.05
18.94
19.39
19.5
19.37
19.14
18.95
18.93
19.13
19.51
19.99
20.39
20.53
20.24
19.43
18.09
16.27
14.09
11.67
9.12
6.5
3.81
1.05
-1.84
-4.87
-8.01
-11.19
-14.34
-17.49
-20.79
-24.44
-28.63
-33.39
-38.49
-43.42
-47.44
-49.73
-49.66
-46.92
-41.71
-34.71
-26.86
-19.1
-12.05
-5.98
-0.81
3.63
7.41
10.5
12.77
14.23
15.02
15.39
15.53
15.53
15.36
14.94
14.3
13.55
12.84
12.28
11.83
11.39
10.81
9.98
8.76
7.06
4.72
1.66
-2.11
-6.32
-10.51
-14.06
-16.32
-16.81
-15.29
-11.79
-6.6
-0.21
6.74
13.58
19.65
24.38
27.4
28.6
28.17
26.53
24.28
21.99
20.14
18.97
18.54
18.76
19.44
20.36
21.28
21.98
22.26
22.02
21.27
20.12
18.77
17.4
16.15
15.06
14.09
13.15
12.2
11.19
10.15
9.11
8.09
7.04
5.88
4.53
2.94
1.17
-0.69
-2.52
-4.27
-5.93
-7.54
-9.17
-10.86
-12.68
-14.68
-16.93
-19.49
-22.27
-25.15
-27.95
-30.51
-32.74
-34.74
-36.66
-38.82
-41.56
-45.16
-49.63
-54.55
-59.08
-62.13
-62.64
-60.04
-54.39
-46.4
-37.11
-27.58
-18.6
-10.57
-3.59
2.37
7.37
11.38
14.42
16.54
17.89
18.72
19.29
19.78
20.26
20.7
21.02
21.17
21.17
21.13
21.19
21.43
21.8
22.15
22.28
22.05
21.38
20.29
18.87
17.22
15.43
13.54
11.53
9.33
6.84
4.0
0.8
-2.67
-6.22
-9.68
-12.9
-15.89
-18.83
-22.0
-25.76
-30.35
-35.77
-41.67
-47.39
-52.06
-54.79
-54.93
-52.22
-46.89
-39.6
-31.29
-23.03
-15.7
-9.9
-5.82
-3.31
-2.01
-1.51
-1.4
-1.29
-0.8
0.5
2.91
6.41
10.57
14.56
17.48
18.74
18.38
17.04
15.66
15.02
15.41
16.56
17.88
18.77
18.94
18.41
17.33
15.77
13.67
10.88
7.41
3.5
-0.38
-3.83
-6.71
-9.35
-12.39
-16.5
-21.97
-28.54
-35.32
-41.05
-44.47
-44.72
-41.57
-35.47
-27.35
-18.38
-9.63
-1.9
4.44
9.4
13.17
16.03
18.15
19.59
20.34
20.46
20.1
19.55
19.14
19.09
19.42
19.96
20.44
20.63
20.45
20.01
19.44
18.84
18.17
17.23
15.75
13.51
10.46
6.77
2.8
-0.99
-4.23
-6.75
-8.73
-10.58
-12.86
-16.11
-20.68
-26.65
-33.77
-41.42
-48.6
-54.12
-56.83
-55.99
-51.48
-43.96
-34.6
-24.75
-15.5
-7.46
-0.72
4.92
9.76
13.93
17.43
20.15
22.05
23.22
23.9
24.37
24.87
25.49
26.14
26.71
27.05
27.15
27.06
26.9
26.71
26.45
25.96
25.04
23.51
21.25
18.3
14.74
10.71
6.39
1.96
-2.39
-6.49
-10.26
-13.75
-17.16
-20.91
-25.47
-31.17
-38.03
-45.5
-52.63
-58.2
-61.17
-60.92
-57.49
-51.44
-43.6
-34.88
-25.98
-17.42
-9.49
-2.39
3.81
9.11
13.58
17.34
20.47
23.05
25.07
26.51
27.37
27.76
27.87
28.02
28.52
29.54
31.0
32.57
33.77
34.18
33.63
32.24
30.34
28.26
26.14
23.93
21.41
18.34
14.65
10.45
5.98
1.53
-2.66
-6.52
-10.15
-13.77
-17.74
-22.38
-27.91
-34.29
-41.08
-47.44
-52.27
-54.52
-53.51
-49.18
-42.15
-33.47
-24.32
-15.59
-7.79
-0.97
5.01
10.36
15.15
19.32
22.72
25.22
26.79
27.53
27.7
27.59
27.47
27.52
27.76
28.08
28.2
27.82
26.63
24.45
21.36
17.69
13.97
10.67
8.05
5.99
4.06
1.82
-0.9
-3.89
-6.71
-9.09
-11.26
-14.06
-18.73
-26.37
-37.54
-51.85
-67.95
-83.74
-96.66
-104.1
-103.86
-94.75
-77.05
-52.69
-25.03
1.84
24.27
39.95
48.45
51.0
49.54
45.69
40.11
32.46
22.08
8.97
-5.73
-19.77
-30.72
-36.95
-38.42
-36.64
-33.88
-32.01
-31.56
-31.45
-29.76
-24.88
-16.62
-6.53
2.76
8.87
10.81
9.37
6.33
3.26
0.47
-3.13
-9.3
-19.25
-32.75
-47.99
-62.16
-72.44
-76.86
-74.64
-66.19
-52.92
-36.9
-20.43
-5.45
7.07
17.52
27.5
38.98
53.14
69.33
84.96
96.17
99.29
92.31
75.76
52.64
27.65
5.91
-8.31
-12.76
-7.79
3.86
17.93
30.22
38.06
41.12
41.23
41.17
43.25
48.27
55.43
63.0
69.33
73.43
75.01
74.08
70.53
64.13
54.82
43.18
30.58
18.86
9.73
4.05
1.49
0.64
-0.26
-2.69
-7.31
-13.9
-21.63
-29.44
-36.36
-41.63
-44.74
-45.44
-43.73
-39.87
-34.27
-27.42
-19.77
-11.73
-3.68
3.96
10.8
16.54
21.1
24.61
27.33
29.55
31.43
33.05
34.41
35.57
36.63
37.68
38.78
39.8
40.56
40.81
40.42
39.4
37.86
35.98
33.86
31.53
28.87
25.77
22.16
18.09
13.73
9.28
4.95
0.86
-2.95
-6.56
-10.08
-13.71
-17.68
-22.21
-27.42
-33.23
-39.31
-44.98
-49.4
-51.69
-51.21
-47.8
-41.79
-33.95
-25.24
-16.49
-8.28
-0.87
5.71
11.47
16.36
20.24
22.99
24.64
25.38
25.57
25.59
25.73
26.08
26.55
26.94
27.07
26.82
26.23
25.4
24.47
23.49
22.44
21.19
19.54
17.35
14.52
11.12
7.31
3.31
-0.64
-4.35
-7.72
-10.78
-13.71
-16.81
-20.45
-24.94
-30.36
-36.44
-42.48
-47.53
-50.58
-50.84
-47.98
-42.18
-34.04
-24.4
-14.16
-4.09
5.26
13.53
20.63
26.62
31.65
35.88
39.38
42.13
44.04
45.04
45.14
44.45
43.22
41.76
40.42
39.51
39.24
39.62
40.49
41.51
42.28
42.48
41.99
40.92
39.6
38.32
37.27
36.39
35.42
34.01
31.93
29.21
26.07
22.89
19.99
17.46
15.1
12.48
9.14
4.92
0.13
-4.4
-7.43
-7.71
-4.45
2.41
12.11
23.37
34.9
45.83
56.01
65.94
76.47
88.28
101.45
115.19
127.84
137.23
141.25
138.57
129.16
114.46
97.12
80.26
66.7
58.13
54.67
54.77
55.59
53.77
46.58
32.8
13.11
-10.36
-35.07
-59.12
-81.79
-103.15
-123.31
-141.71
-157.02
-167.79
-173.31
-174.04
-171.36
-166.86
-161.58
-155.76
-149.13
-141.54
-133.33
-125.26
-118.12
-112.2
-107.06
-101.57
-94.45
-84.77
-72.35
-57.85
-42.49
-27.56
-13.97
-2.01
8.57
18.22
27.26
35.59
42.74
48.16
51.53
52.99
53.18
53.04
53.4
54.72
56.98
59.78
62.63
65.2
67.51
69.85
72.66
76.29
80.95
86.6
92.92
99.38
105.26
109.87
112.86
114.57
116.17
119.4
125.92
136.29
149.19
161.19
167.65
163.97
147.12
116.69
75.13
27.33
-20.39
-61.65
-91.63
-108.37
-113.59
-112.26
-111.15
-116.62
-132.61
-159.56
-194.65
-233.02
-269.3
-298.77
-317.91
-324.63
-318.42
-300.39
-273.29
-241.04
-207.87
-177.37
-151.81
-131.85
-116.8
-105.19
-95.22
-85.32
-74.42
-62.12
-48.72
-35.08
-22.34
-11.54
-3.31
2.32
5.89
8.23
10.07
11.69
12.86
12.91
11.09
6.98
0.73
-6.97
-15.07
-22.46
-28.18
-31.49
-31.92
-29.3
-23.76
-15.81
-6.23
3.92
13.62
22.12
28.98
34.23
38.13
41.1
43.44
45.3
46.61
47.22
47.01
46.0
44.37
42.43
40.43
38.55
36.83
35.21
33.65
32.12
30.61
29.08
27.41
25.4
22.85
19.64
15.75
11.34
6.65
1.94
-2.57
-6.78
-10.71
-14.58
-18.74
-23.57
-29.39
-36.19
-43.62
-50.86
-56.86
-60.45
-60.77
-57.42
-50.66
-41.3
-30.45
-19.26
-8.55
1.22
9.97
17.76
24.59
30.38
34.93
38.15
40.12
41.17
41.74
42.24
42.89
43.65
44.28
44.47
44.05
43.05
41.76
40.61
39.93
39.82
40.03
40.02
39.2
37.11
33.71
29.36
24.75
20.66
17.57
15.47
13.73
11.33
7.18
0.63
-8.23
-18.48
-28.57
-36.83
-42.02
-43.72
-42.5
-39.56
-36.27
-33.52
-31.3
-28.74
-24.56
-17.9
-9.03
0.21
6.82
7.52
0.08
-15.53
-36.6
-58.3
-74.97
