22.11
21.25
19.29
16.72
13.99
11.4
9.19
7.54
6.58
6.36
6.83
7.88
9.33
11.01
12.73
14.25
15.29
15.49
14.56
12.34
8.9
4.51
-0.46
-5.63
-10.69
-15.42
-19.61
-22.97
-25.11
-25.63
-24.26
-20.97
-16.15
-10.5
-4.89
-0.11
3.36
5.37
6.14
6.04
5.49
4.77
3.97
3.04
1.84
0.36
-1.29
-2.82
-3.89
-4.28
-3.98
-3.22
-2.37
-1.76
-1.57
-1.85
-2.52
-3.57
-5.03
-7.0
-9.47
-12.28
-15.07
-17.5
-19.42
-21.01
-22.74
-25.02
-27.96
-31.04
-33.24
-33.43
-30.85
-25.54
-18.28
-10.39
-3.15
2.55
6.33
8.28
8.74
8.19
7.16
6.23
5.94
6.65
8.36
10.67
12.89
14.32
14.53
13.48
11.51
9.16
6.93
5.18
4.01
3.35
2.97
2.6
1.89
0.59
-1.47
-4.28
-7.7
-11.49
-15.51
-19.77
-24.3
-29.05
-33.67
-37.41
-39.31
-38.55
-34.8
-28.45
-20.48
-12.11
-4.39
1.93
6.45
8.96
9.29
7.45
3.74
-1.11
-6.06
-10.04
-12.33
-12.73
-11.51
-9.12
-5.9
-1.88
3.12
9.26
16.32
23.58
29.87
33.84
34.41
31.19
24.64
15.98
6.83
-1.29
-7.39
-11.2
-13.18
-14.37
-16.04
-19.28
-24.65
-31.78
-39.27
-45.0
-46.66
-42.64
-32.8
-18.69
-3.2
10.43
19.78
23.99
23.79
20.92
17.26
14.18
12.35
11.91
12.71
14.5
16.81
19.0
20.37
20.47
19.39
17.84
16.8
17.08
18.95
22.02
25.43
28.22
29.62
29.29
27.26
23.91
19.73
15.24
10.75
6.38
2.06
-2.25
-6.45
-10.15
-12.73
-13.57
-12.21
-8.69
-3.48
2.57
8.51
13.57
17.3
19.59
20.53
20.29
19.04
16.95
14.3
11.52
9.04
7.2
6.09
5.48
4.98
4.26
3.21
2.02
1.0
0.37
0.03
-0.41
-1.41
-3.31
-6.06
-9.33
-12.66
-15.64
-18.15
-20.23
-22.09
-24.01
-26.27
-29.1
-32.55
-36.36
-39.89
-42.1
-41.92
-38.62
-32.1
-23.02
-12.61
-2.32
6.54
13.09
16.93
18.12
17.08
14.49
11.17
7.92
5.44
4.11
3.99
4.8
6.09
7.34
8.18
8.45
8.19
7.62
6.94
6.23
5.4
4.23
2.48
0.08
-2.82
-5.87
-8.65
-10.83
-12.33
-13.34
-14.33
-15.85
-18.35
-21.99
-26.44
-30.9
-34.26
-35.42
-33.64
-28.87
-21.77
-13.43
-5.07
2.33
8.2
12.33
14.77
15.66
15.22
13.77
11.75
9.66
7.98
6.95
6.55
6.54
6.55
6.35
5.89
5.34
4.95
4.91
5.19
5.5
5.41
4.51
2.6
-0.17
-3.42
-6.62
-9.33
-11.38
-12.86
-14.07
-15.43
-17.31
-19.96
-23.42
-27.43
-31.46
-34.69
-36.21
-35.27
-31.48
-25.02
-16.63
-7.44
1.38
8.87
14.48
18.06
19.8
20.06
19.25
17.82
16.2
14.79
13.92
13.75
14.26
15.19
16.21
16.99
17.34
17.29
16.98
16.59
16.12
15.39
14.05
11.79
8.53
4.55
0.34
-3.53
-6.74
-9.31
-11.62
-14.17
-17.37
-21.38
-26.03
-30.85
-35.17
-38.28
-39.5
-38.37
-34.78
-28.97
-21.55
-13.33
-5.19
2.14
8.06
12.18
14.3
14.43
12.88
10.31
7.62
5.75
5.32
6.44
8.65
11.15
13.15
14.22
14.4
14.07
13.63
13.25
12.81
11.96
10.43
8.18
5.51
2.85
0.63
-0.94
-1.95
-2.71
-3.71
-5.43
-8.24
-12.33
-17.62
-23.7
-29.77
-34.77
-37.56
-37.33
-33.81
-27.44
-19.21
-10.37
-2.02
5.08
10.57
14.38
16.58
17.26
16.62
15.03
13.08
11.46
10.8
11.36
12.95
15.0
16.77
17.71
17.66
16.85
15.79
14.91
14.38
14.01
13.39
12.1
9.89
6.79
3.06
-0.93
-4.77
-8.11
-10.8
-12.88
-14.68
-16.78
-19.78
-24.09
-29.64
-35.73
-41.08
-44.16
-43.55
-38.51
-29.25
-17.0
-3.76
8.29
17.32
22.39
23.54
21.65
17.97
13.63
9.47
5.95
3.3
1.73
1.44
2.55
4.91
8.09
11.4
14.17
16.02
16.96
17.39
17.76
18.26
18.67
18.45
17.02
14.14
10.08
5.57
1.47
-1.61
-3.53
-4.64
-5.65
-7.25
-9.9
-13.6
-17.9
-22.02
-24.99
-25.93
-24.24
-19.71
-12.61
-3.66
6.1
15.41
23.09
28.27
30.56
30.15
27.69
24.13
20.49
17.62
16.1
16.1
17.38
19.34
21.21
22.33
22.36
21.41
19.86
18.19
16.69
15.33
13.83
11.88
9.24
5.9
2.06
-1.93
-5.66
-8.87
-11.43
-13.54
-15.59
-18.1
-21.47
-25.73
-30.49
-34.89
-37.87
-38.44
-36.0
-30.55
-22.68
-13.38
-3.87
4.75
11.68
16.52
19.18
19.83
18.81
16.58
13.73
10.93
8.84
7.96
8.43
9.98
12.02
13.84
14.93
15.15
14.73
14.08
13.51
13.02
12.28
10.86
8.46
5.16
1.36
-2.39
-5.67
-8.32
-10.54
-12.64
-14.97
-17.72
-21.03
-24.89
-29.14
-33.34
-36.74
-38.4
-37.49
-33.55
-26.78
-17.95
-8.22
1.18
9.26
15.36
19.24
20.95
20.8
19.3
17.03
14.6
12.55
11.26
10.95
11.66
13.19
15.21
17.28
19.0
20.17
20.74
20.79
20.4
19.52
18.04
15.86
13.1
10.06
7.14
4.62
2.55
0.69
-1.37
-4.0
-7.39
-11.56
-16.4
-21.67
-27.0
-31.79
-35.23
-36.45
-34.79
-30.1
-22.87
-14.16
-5.27
2.62
8.74
12.83
14.98
15.49
14.61
12.55
9.54
5.96
2.37
-0.47
-1.87
-1.43
0.82
4.32
8.23
11.67
14.03
15.14
15.16
14.44
13.28
11.81
10.05
8.06
5.99
4.1
2.62
1.5
0.39
-1.35
-4.32
-8.8
-14.59
-20.97
-26.9
-31.26
-33.11
-31.92
-27.72
-21.03
-12.77
-4.03
4.21
11.26
16.81
20.89
23.71
25.56
26.68
27.21
27.21
26.71
25.68
24.18
22.35
20.45
18.75
17.43
16.52
15.86
15.18
14.28
13.03
11.44
9.52
7.28
4.67
1.64
-1.78
-5.53
-9.45
-13.4
-17.29
-21.12
-24.96
-28.92
-33.07
-37.39
-41.65
-45.4
-47.98
-48.67
-46.9
-42.48
-35.68
-27.27
-18.26
-9.68
-2.31
3.4
7.35
9.62
10.44
10.07
8.81
7.05
5.29
4.11
4.03
5.33
7.91
11.33
14.85
17.79
19.69
20.44
20.19
19.16
17.46
15.1
12.04
8.31
4.19
0.09
-3.56
-6.52
-8.85
-10.9
-13.21
-16.26
-20.32
-25.22
-30.35
-34.76
-37.33
-37.19
-33.93
-27.75
-19.42
-10.04
-0.78
7.4
13.81
18.12
20.25
20.35
18.76
16.02
12.85
10.01
8.18
7.78
8.83
10.99
13.61
16.02
17.62
18.14
17.59
16.22
14.39
12.38
10.28
8.0
5.39
2.32
-1.08
-4.57
-7.78
-10.5
-12.79
-14.99
-17.57
-20.91
-25.11
-29.92
-34.81
-39.02
-41.73
-42.23
-40.07
-35.18
-27.96
-19.21
-9.97
-1.3
5.95
11.29
14.55
15.86
15.53
13.99
11.82
9.67
8.2
7.93
9.11
11.59
14.86
18.21
21.0
22.77
23.42
23.04
21.88
20.11
17.89
15.28
12.4
9.5
6.82
4.54
2.62
0.82
-1.27
-4.05
-7.72
-12.26
-17.3
-22.24
-26.27
-28.55
-28.34
-25.24
-19.37
-11.37
-2.35
6.45
14.02
19.74
23.45
25.3
25.57
24.57
22.59
20.03
17.35
15.07
13.59
13.08
13.46
14.42
15.61
16.74
17.63
18.17
18.23
17.58
15.99
13.33
9.75
5.66
1.63
-1.87
-4.6
-6.67
-8.48
-10.51
-13.21
-16.86
-21.48
-26.77
-32.09
-36.47
-38.86
-38.35
-34.57
-27.78
-18.88
-9.13
0.25
8.27
14.4
18.46
20.57
21.02
20.17
18.46
16.33
14.25
12.62
11.75
11.82
12.78
14.39
16.26
17.94
19.1
19.54
19.2
18.11
16.25
13.68
10.48
6.89
3.25
-0.1
-2.94
-5.24
-7.18
-9.03
-11.08
-13.59
-16.74
-20.58
-24.98
-29.45
-33.19
-35.19
-34.52
-30.69
-23.97
-15.27
-5.98
2.55
9.36
14.03
16.62
17.41
16.71
14.83
12.14
9.14
6.44
4.65
4.12
4.87
6.57
8.69
10.69
12.2
13.04
13.2
12.76
11.75
10.17
8.0
5.28
2.19
-0.98
-3.87
-6.23
-7.97
-9.25
-10.44
-12.0
-14.34
-17.69
-21.96
-26.8
-31.52
-35.26
-37.07
-36.22
-32.39
-25.85
-17.4
-8.2
0.56
7.91
13.35
16.77
18.39
18.56
17.64
16.01
14.07
12.27
11.05
10.72
11.36
12.77
14.59
16.42
17.95
18.97
19.39
19.16
18.18
16.42
13.88
10.69
7.13
3.57
0.35
-2.31
-4.39
-6.09
-7.74
-9.77
-12.55
-16.24
-20.71
-25.42
-29.5
-31.93
-31.86
-28.85
-23.05
-15.18
-6.28
2.49
10.15
16.03
19.81
21.48
21.25
19.58
17.05
14.35
12.08
10.7
10.39
11.05
12.37
13.94
15.37
16.37
16.84
16.79
16.34
15.59
14.56
13.23
11.47
9.22
6.49
3.44
0.33
-2.58
-5.18
-7.54
-9.93
-12.76
-16.35
-20.84
-26.09
-31.62
-36.63
-40.24
-41.53
-39.86
-35.07
-27.61
-18.49
-9.05
-0.57
6.08
10.57
13.08
14.08
14.03
13.31
12.2
10.99
10.07
9.85
10.59
12.31
14.66
17.04
18.89
19.87
20.03
19.64
19.06
18.43
17.59
16.18
13.88
10.54
6.42
2.03
-2.08
-5.52
-8.22
-10.41
-12.49
-14.89
-17.92
-21.76
-26.31
-31.22
-35.84
-39.28
-40.58
-39.01
-34.3
-26.84
-17.6
-7.86
1.07
8.24
13.17
15.88
16.72
16.22
14.91
13.2
11.45
9.95
8.99
8.83
9.55
11.07
13.02
14.94
16.34
16.92
16.64
15.64
14.12
12.27
10.12
7.69
4.98
2.1
-0.74
-3.3
-5.39
-6.96
-8.21
-9.49
-11.24
-13.81
-17.38
-21.82
-26.63
-31.02
-34.1
-35.01
-33.21
-28.6
-21.57
-12.95
-3.81
4.81
12.09
17.52
20.93
22.41
22.21
20.7
18.4
15.9
13.81
12.65
12.66
13.76
15.62
17.72
19.6
20.95
21.64
21.73
21.28
20.39
19.07
17.29
15.01
12.22
8.99
5.48
1.97
-1.3
-4.24
-7.0
-9.9
-13.35
-17.6
-22.5
-27.47
-31.63
-34.0
-33.82
-30.8
-25.17
-17.61
-9.07
-0.54
7.14
13.37
17.81
20.33
20.94
19.87
17.55
14.65
11.92
10.05
9.44
10.06
11.53
13.25
14.7
15.57
15.83
15.57
14.89
13.77
12.08
9.67
6.54
2.87
-1.0
-4.71
-7.99
-10.78
-13.23
-15.6
-18.2
-21.26
-24.91
-29.14
-33.72
-38.2
-41.8
-43.57
-42.64
-38.54
-31.43
-22.15
-12.03
-2.4
5.71
11.74
15.63
17.57
17.85
16.8
14.8
12.42
10.3
9.03
8.98
10.1
12.0
14.09
15.86
16.99
17.38
17.12
16.33
15.06
13.33
11.13
8.52
5.61
2.6
-0.33
-3.04
-5.49
-7.79
-10.2
-13.06
-16.7
-21.25
-26.53
-31.95
-36.58
-39.33
-39.3
-36.06
-29.83
-21.39
-11.91
-2.57
5.71
12.35
17.14
20.07
21.26
20.88
19.27
16.93
14.49
12.61
11.72
11.92
13.01
14.53
16.06
17.31
18.16
18.64
18.77
18.51
17.71
16.22
13.93
10.9
7.36
3.61
0.05
-2.99
-5.32
-7.02
-8.42
-10.07
-12.53
-16.23
-21.21
-27.05
-32.88
-37.58
-40.03
-39.44
-35.56
-28.75
-19.93
-10.27
-0.96
7.1
13.37
17.67
20.09
20.87
20.31
18.8
16.78
14.83
13.46
13.04
13.66
15.11
16.96
18.73
20.12
21.0
21.44
21.53
21.23
20.39
18.77
16.24
12.94
9.18
5.5
2.39
0.14
-1.26
-2.15
-3.12
-4.86
-7.86
-12.23
-17.54
-22.82
-26.79
-28.23
-26.42
-21.34
-13.78
-5.01
3.57
10.82
16.05
19.09
20.08
19.36
17.32
14.4
11.09
7.96
5.52
4.12
3.84
4.48
5.64
6.89
7.93
8.64
8.98
8.94
8.44
7.29
5.35
2.57
-0.85
-4.56
-8.17
-11.36
-14.04
-16.33
-18.5
-20.91
-23.86
-27.52
-31.79
-36.23
-40.06
-42.27
-41.87
-38.27
-31.54
-22.44
-12.28
-2.5
5.68
11.56
15.05
16.46
16.38
15.39
14.01
12.62
11.49
10.85
10.8
11.34
12.34
13.58
14.88
16.06
17.07
17.87
18.37
18.31
17.4
15.39
12.26
8.26
3.91
-0.22
-3.68
-6.36
-8.47
-10.48
-12.96
-16.3
-20.58
-25.39
-29.91
-33.04
-33.76
-31.45
-26.09
-18.37
-9.52
-0.92
6.19
11.09
13.6
14.05
13.08
11.36
9.5
7.95
7.04
6.94
7.63
8.94
10.52
12.01
13.1
13.66
13.73
13.4
12.74
11.72
10.24
8.22
5.69
2.85
-0.06
-2.77
-5.13
-7.16
-9.0
-10.95
-13.38
-16.57
-20.62
-25.31
-30.02
-33.84
-35.76
-34.98
-31.17
-24.62
-16.15
-6.93
1.85
9.24
14.67
17.97
19.36
19.28
18.28
16.92
15.61
14.57
13.9
13.62
13.75
14.3
15.23
16.39
17.51
18.32
18.61
18.28
17.37
15.92
13.96
11.48
8.58
5.52
2.61
0.16
-1.82
-3.58
-5.62
-8.38
-12.06
-16.44
-20.9
-24.59
-26.6
-26.24
-23.23
-17.76
-10.52
-2.48
5.26
11.77
16.48
19.2
20.11
19.52
17.87
15.58
13.05
10.73
9.0
8.14
8.25
9.21
10.65
12.11
13.17
13.5
13.04
11.91
10.33
8.51
6.53
4.41
2.1
-0.36
-2.84
-5.27
-7.68
-10.29
-13.45
-17.36
-21.89
-26.42
-29.92
-31.3
-29.82
-25.35
-18.45
-10.21
-1.85
5.52
11.17
14.84
16.58
16.74
15.74
14.06
12.08
10.17
8.54
7.38
6.73
6.6
6.95
7.65
8.56
9.46
10.12
10.24
9.62
8.12
5.74
2.66
-0.84
-4.4
-7.7
-10.56
-12.99
-15.19
-17.53
-20.37
-23.9
-28.03
-32.29
-35.89
-37.95
-37.69
-34.68
-29.01
-21.29
-12.45
-3.66
4.05
9.96
13.76
15.56
15.78
14.97
13.65
12.21
10.92
9.98
9.5
9.53
10.03
10.82
11.66
12.28
12.52
12.39
11.98
11.4
10.69
9.78
8.55
6.91
4.89
2.64
0.31
-1.93
-4.1
-6.33
-8.86
-11.93
-15.69
-20.06
-24.6
-28.52
-30.84
-30.65
-27.44
-21.29
-12.96
-3.61
5.48
13.27
19.16
22.96
24.81
25.0
23.93
22.04
19.81
17.68
16.03
15.07
14.8
15.01
15.44
15.81
15.91
15.76
15.48
15.22
15.0
14.63
13.73
11.89
8.96
5.13
1.05
-2.52
-4.92
-5.9
-5.78
-5.27
-5.3
-6.69
-9.9
-14.94
-21.38
-28.33
-34.65
-39.12
-40.68
-38.71
-33.25
-25.08
-15.59
-6.41
1.03
5.95
8.34
8.84
8.34
7.6
6.97
6.4
5.68
4.69
3.47
2.18
0.98
-0.15
-1.28
-2.43
-3.46
-3.99
-3.7
-2.54
-0.86
0.63
1.21
0.45
-1.58
-4.33
-7.01
-8.9
-9.6
-9.16
-8.01
-6.87
-6.54
-7.63
-10.3
-14.09
-17.86
-20.14
-19.57
-15.35
-7.61
2.68
14.0
24.69
33.28
38.77
40.68
39.07
34.48
27.91
20.59
13.72
8.2
4.33
1.83
-0.01
-1.97
-4.51
-7.61
-10.82
-13.51
-15.19
-15.75
-15.43
-14.7
-13.98
-13.49
-13.21
-13.05
-12.96
-12.99
-13.33
-14.15
-15.58
-17.67
-20.45
-23.95
-28.08
-32.55
-36.78
-39.97
-41.22
-39.9
-35.89
-29.65
-22.23
-14.88
-8.76
-4.63
-2.68
-2.69
-4.19
-6.72
-9.93
-13.53
-17.25
-20.84
-24.06
-26.85
-29.31
-31.73
-34.5
-38.01
-42.5
-48.1
-54.8
-62.47
-70.98
-80.11
-89.56
-98.76
-106.78
-112.38
-114.27
-111.62
-104.52
-94.1
-82.33
-71.25
-62.29
-55.82
-51.2
-47.2
-42.49
-35.91
-26.61
-14.03
2.02
21.18
42.34
63.71
83.19
98.95
109.94
116.15
118.48
118.25
116.73
114.73
112.49
109.86
106.67
102.98
99.27
96.28
94.67
94.75
96.22
98.32
100.04
100.37
98.58
94.25
87.39
78.33
67.79
56.71
46.09
36.69
28.82
22.25
16.34
10.29
3.53
-4.0
-11.8
-18.93
-24.27
-26.98
-26.71
-23.77
-18.97
-13.32
-7.72
-2.81
1.05
3.65
4.92
4.85
3.65
1.82
0.03
-1.11
-1.22
-0.35
1.13
2.74
4.11
5.1
5.74
6.12
6.21
5.89
5.04
3.65
1.9
0.09
-1.48
-2.65
-3.41
-3.88
-4.18
-4.43
-4.68
-5.02
-5.58
-6.44
-7.63
-9.07
-10.59
-11.98
-13.06
-13.71
-13.73
-12.97
-11.2
-8.34
-4.46
0.08
4.76
9.01
12.4
14.72
15.97
16.28
15.78
14.62
12.95
10.99
9.08
7.59
6.89
7.16
8.36
10.14
11.96
13.25
13.55
12.69
10.81
8.35
5.84
3.78
2.47
1.93
1.87
1.84
1.24
-0.35
-3.11
-6.87
-11.11
-15.17
-18.34
-20.08
-20.11
-18.45
-15.4
-11.44
-7.08
-2.73
1.36
5.11
8.47
11.4
13.74
15.36
16.18
16.33
16.11
15.92
16.07
16.73
17.89
19.38
21.02
22.55
23.7
24.14
23.5
21.47
17.97
13.25
7.91
2.75
-1.5
-4.49
-6.28
-7.36
-8.41
-10.01
-12.56
-16.19
-20.79
-26.07
-31.55
-36.53
-40.16
-41.58
-40.23
-35.98
-29.31
-21.14
-12.58
-4.65
1.92
6.78
9.87
11.34
11.36
10.19
8.16
5.72
3.45
1.89
1.47
2.26
3.97
6.06
7.88
8.9
8.84
7.7
5.69
3.15
0.37
-2.44
-5.13
-7.64
-9.98
-12.19
-14.37
-16.65
-19.14
-21.88
-24.78
-27.56
-29.86
-31.23
-31.23
-29.59
-26.3
-21.65
-16.23
-10.73
-5.74
-1.57
1.8
4.56
6.94
8.98
10.58
11.59
11.95
11.81
11.39
10.88
10.31
9.62
8.8
8.0
7.52
7.59
8.14
8.74
8.78
7.76
5.6
2.64
-0.47
-3.1
-4.87
-5.83
-6.32
-6.81
-7.71
-9.32
-11.63
-14.42
-17.14
-19.12
-19.69
-18.38
-15.16
-10.39
-4.76
0.96
6.05
10.08
12.84
14.36
14.8
14.36
13.27
11.71
9.88
8.03
6.42
5.26
4.7
4.68
5.03
5.48
5.82
5.91
5.69
5.12
4.15
2.67
0.6
-2.01
-4.92
-7.82
-10.39
-12.48
-14.19
-15.82
-17.68
-19.96
-22.49
-24.77
-26.12
-25.91
-23.83
-19.99
-14.89
-9.23
-3.66
1.38
5.65
9.07
11.57
13.05
13.46
12.9
11.66
10.21
8.99
8.31
8.24
8.62
9.21
9.71
9.93
9.77
9.2
