43.31
44.69
44.63
43.65
42.15
40.45
38.68
36.8
34.65
32.06
28.97
25.55
22.15
19.14
16.71
14.8
13.05
11.03
8.33
4.78
0.33
-5.02
-11.4
-18.94
-27.59
-36.85
-45.54
-52.09
-54.9
-53.02
-46.49
-36.38
-24.36
-12.15
-1.08
8.17
15.37
20.51
23.64
24.79
24.17
22.27
19.86
17.9
17.2
18.2
20.75
24.19
27.5
29.7
30.08
28.45
25.09
20.6
15.64
10.71
6.03
1.55
-2.98
-7.87
-13.44
-19.78
-26.75
-33.83
-40.12
-44.49
-45.82
-43.41
-37.16
-27.75
-16.39
-4.56
6.46
15.78
22.98
28.0
31.0
32.2
31.84
30.23
27.72
24.73
21.72
19.1
17.16
16.04
15.65
15.71
15.85
15.74
15.15
14.04
12.5
10.62
8.45
5.98
3.17
0.01
-3.43
-7.14
-11.18
-15.75
-20.98
-26.7
-32.27
-36.54
-38.23
-36.36
-30.77
-22.22
-12.12
-2.01
7.03
14.65
21.17
27.19
33.15
39.08
44.63
49.23
52.39
53.9
53.85
52.54
50.45
48.08
45.97
44.6
44.32
45.17
46.9
48.87
50.28
50.34
48.57
44.89
39.62
33.36
26.76
20.27
14.04
7.88
1.37
-5.98
-14.43
-23.83
-33.48
-42.23
-48.74
-51.93
-51.37
-47.42
-41.15
-33.87
-26.71
-20.35
-14.89
-10.11
-5.75
-1.77
1.68
4.32
6.01
6.87
7.27
7.72
8.62
10.1
11.93
13.59
14.41
13.85
11.68
8.04
3.35
-1.8
-6.87
-11.45
-15.27
-18.18
-20.16
-21.35
-22.06
-22.88
-24.55
-27.84
-33.33
-41.18
-51.05
-61.97
-72.54
-81.09
-86.01
-86.2
-81.31
-71.95
-59.5
-45.76
-32.48
-20.93
-11.73
-4.88
0.04
3.62
6.44
9.04
11.85
15.2
19.23
23.84
28.72
33.36
37.19
39.72
40.65
40.01
38.04
35.23
32.19
29.46
27.34
25.87
24.73
23.44
21.52
18.67
14.91
10.55
6.02
1.73
-2.1
-5.5
-8.72
-12.14
-16.09
-20.64
-25.55
-30.18
-33.58
-34.74
-32.95
-28.01
-20.36
-10.98
-1.03
8.39
16.5
22.92
27.5
30.28
31.39
31.05
29.59
27.54
25.43
23.69
22.47
21.65
20.93
20.05
18.91
17.68
16.69
16.17
16.15
16.26
15.95
14.64
12.02
8.17
3.57
-1.11
-5.21
-8.33
-10.35
-11.42
-11.91
-12.31
-13.16
-14.94
-17.95
-22.13
-26.9
-31.26
-33.98
-34.04
-30.93
-24.86
-16.7
-7.61
1.23
8.97
15.1
19.45
22.01
22.88
22.29
20.59
18.3
16.01
14.28
13.5
13.71
14.66
15.88
16.86
17.3
17.14
16.58
15.94
15.47
15.15
14.75
13.86
12.11
9.29
5.48
1.0
-3.71
-8.15
-12.03
-15.24
-17.98
-20.63
-23.69
-27.59
-32.54
-38.41
-44.63
-50.19
-53.84
-54.41
-51.18
-44.21
-34.37
-23.12
-12.05
-2.43
5.12
10.59
14.38
16.94
18.64
19.63
19.92
19.46
18.17
16.05
13.15
9.71
6.12
3.0
1.04
0.78
2.5
5.99
10.63
15.45
19.42
21.65
21.57
19.04
14.33
8.08
1.19
-5.33
-10.6
-14.08
-15.7
-15.97
-15.73
-15.94
-17.42
-20.6
-25.48
-31.62
-38.23
-44.24
-48.46
-49.85
-47.73
-42.11
-33.65
-23.51
-13.01
-3.25
5.09
11.79
16.9
20.57
22.92
24.07
24.16
23.46
22.29
21.01
19.91
19.13
18.71
18.57
18.68
18.96
19.35
19.74
19.94
19.68
18.73
16.99
14.53
11.62
8.6
5.71
3.01
0.36
-2.49
-5.7
-9.27
-12.95
-16.42
-19.44
-21.97
-24.27
-26.77
-29.95
-34.12
-39.26
-44.94
-50.32
-54.29
-55.74
-53.89
-48.57
-40.3
-30.15
-19.43
-9.37
-0.81
5.82
10.5
13.39
14.79
14.97
14.3
13.2
12.18
11.74
12.17
13.5
15.38
17.27
18.6
19.01
18.47
17.21
15.64
14.1
12.81
11.78
10.95
10.15
9.25
8.13
6.71
4.91
2.7
0.15
-2.62
-5.38
-7.93
-10.1
-11.89
-13.51
-15.33
-17.82
-21.43
-26.37
-32.41
-38.81
-44.35
-47.54
-47.04
-42.16
-33.11
-21.04
-7.69
5.09
15.98
24.35
30.24
34.02
36.11
36.8
36.27
34.7
32.45
29.97
27.74
26.09
25.17
24.95
25.28
26.0
26.98
28.1
29.14
29.83
29.79
28.72
26.44
23.09
19.04
14.81
10.91
7.65
5.09
3.09
1.36
-0.4
-2.47
-5.0
-8.08
-11.68
-15.74
-20.17
-24.94
-30.11
-35.69
-41.5
-46.93
-51.05
-52.72
-51.05
-45.73
-37.19
-26.48
-14.93
-3.7
6.4
14.96
21.81
26.84
29.94
31.06
30.34
28.16
25.1
21.87
19.11
17.32
16.74
17.41
19.1
21.43
23.91
26.04
27.34
27.4
25.98
23.0
18.69
13.59
8.41
3.88
0.44
-1.87
-3.46
-4.97
-7.03
-10.03
-14.05
-18.91
-24.31
-29.97
-35.62
-41.08
-46.24
-51.05
-55.43
-59.22
-62.08
-63.46
-62.74
-59.48
-53.62
-45.58
-36.19
-26.41
-17.05
-8.67
-1.51
4.33
8.8
11.85
13.5
13.94
13.55
12.9
12.46
12.66
13.62
15.29
17.43
19.75
21.99
23.92
25.44
26.52
27.19
27.48
27.31
26.52
24.91
22.27
18.58
14.02
8.98
4.01
-0.4
-3.92
-6.48
-8.27
-9.71
-11.3
-13.56
-16.84
-21.14
-26.07
-30.72
-33.87
-34.27
-31.1
-24.28
-14.54
-3.27
7.88
17.53
24.8
29.48
31.87
32.57
32.27
31.65
31.22
31.31
32.03
33.24
34.6
35.71
36.23
35.94
34.81
32.96
30.64
28.07
25.42
22.68
19.76
16.49
12.82
8.89
5.06
1.78
-0.63
-2.14
-3.09
-4.08
-5.74
-8.53
-12.62
-17.8
-23.47
-28.81
-32.82
-34.58
-33.51
-29.52
-23.12
-15.22
-6.93
0.83
7.43
12.65
16.52
19.12
20.53
20.8
20.05
18.55
16.79
15.27
14.38
14.18
14.37
14.44
13.95
12.69
10.77
8.5
6.15
3.84
1.5
-1.05
-3.85
-6.76
-9.5
-11.77
-13.43
-14.6
-15.66
-17.13
-19.53
-23.19
-28.03
-33.5
-38.55
-41.84
-42.07
-38.48
-31.12
-20.95
-9.53
1.41
10.48
16.91
20.62
21.99
21.64
20.18
18.19
16.13
14.42
13.38
13.14
13.65
14.69
15.91
16.98
17.66
17.83
17.46
16.53
15.01
12.8
9.8
5.97
1.5
-3.27
-7.93
-12.05
-15.42
-18.07
-20.27
-22.45
-25.11
-28.65
-33.21
-38.54
-43.89
-48.14
-49.95
-48.29
-42.73
-33.7
-22.35
-10.17
1.44
11.53
19.62
25.63
29.65
31.83
32.37
31.63
30.09
28.3
26.77
25.73
25.2
24.96
24.79
24.54
24.22
23.96
23.87
23.97
24.0
23.59
22.26
19.66
15.75
10.8
5.35
0.0
-4.76
-8.77
-12.21
-15.52
-19.21
-23.73
-29.21
-35.4
-41.59
-46.74
-49.69
-49.47
-45.62
-38.33
-28.44
-17.19
-5.9
4.35
12.9
19.49
24.19
27.16
28.63
28.78
27.9
26.37
24.68
23.3
22.56
22.53
23.06
23.81
24.52
25.02
25.29
25.37
25.24
24.75
23.63
21.6
18.52
14.48
9.81
5.0
0.56
-3.21
-6.28
-8.95
-11.7
-15.07
-19.44
-24.89
-31.14
-37.5
-43.02
-46.59
-47.24
-44.4
-38.12
-29.07
-18.36
-7.28
3.03
11.72
18.38
22.87
25.3
25.89
24.98
23.0
20.44
17.81
15.58
14.12
13.62
14.04
15.12
16.47
17.68
18.43
18.55
18.05
16.99
15.44
13.39
10.78
7.56
3.83
-0.2
-4.18
-7.8
-10.89
-13.52
-16.03
-18.89
-22.48
-27.02
-32.35
-37.96
-43.06
-46.67
-47.89
-46.09
-41.12
-33.41
-23.85
-13.61
-3.8
4.73
11.59
16.68
20.12
22.0
22.43
21.53
19.57
16.99
14.35
12.17
10.83
10.44
10.88
11.84
12.96
13.93
14.56
14.74
14.36
13.32
11.48
8.75
5.16
0.93
-3.55
-7.88
-11.73
-15.0
-17.83
-20.46
-23.16
-26.12
-29.42
-33.05
-36.84
-40.33
-42.78
-43.27
-40.99
-35.56
-27.32
-17.19
-6.53
3.41
11.78
18.21
22.69
25.37
26.41
25.93
24.18
21.61
18.82
16.43
14.88
14.28
14.48
15.13
15.96
16.82
17.7
18.58
19.38
19.88
19.81
18.98
17.37
15.09
12.42
9.65
7.03
4.64
2.42
0.15
-2.44
-5.65
-9.61
-14.17
-18.84
-22.79
-25.01
-24.64
-21.23
-14.96
-6.61
2.65
11.65
19.59
26.13
31.34
35.42
38.46
40.34
40.79
39.63
36.9
32.97
28.43
23.94
20.08
17.21
15.41
14.56
14.31
14.28
14.05
13.34
12.01
10.06
7.57
4.73
1.69
-1.36
-4.3
-7.04
-9.58
-12.08
-14.83
-18.2
-22.51
-27.74
-33.37
-38.36
-41.45
-41.53
-38.12
-31.56
-22.95
-13.75
-5.3
1.48
6.25
9.07
10.22
10.03
8.79
6.76
4.28
1.65
-0.79
-2.82
-4.31
-5.29
-5.85
-6.1
-6.2
-6.28
-6.45
-6.85
-7.66
-9.04
-11.11
-13.86
-17.11
-20.53
-23.73
-26.44
-28.62
-30.49
-32.47
-34.95
-38.19
-42.04
-45.96
-49.0
-50.08
-48.19
-42.77
-33.91
-22.39
-9.52
3.25
14.66
23.94
30.83
35.5
38.3
39.66
39.9
39.32
38.21
36.83
35.43
34.17
33.1
32.14
31.19
30.17
29.06
27.88
26.62
25.18
23.31
20.7
17.16
12.74
7.78
2.84
-1.56
-5.05
-7.66
-9.75
-11.89
-14.73
-18.75
-24.07
-30.35
-36.72
-41.94
-44.73
-44.17
-40.09
-33.15
-24.64
-15.96
-8.18
-1.77
3.33
7.41
10.64
13.03
14.41
14.75
14.22
13.25
12.25
11.51
11.02
10.62
10.11
9.48
8.92
8.74
9.11
9.94
10.79
11.06
10.2
7.93
4.39
0.09
-4.28
-8.11
-10.99
-12.9
-14.14
-15.26
-16.88
-19.55
-23.57
-28.83
-34.79
-40.41
-44.44
-45.66
-43.29
-37.25
-28.25
-17.52
-6.53
3.45
11.65
17.78
21.96
24.49
25.67
25.74
24.93
23.5
21.82
20.31
19.33
19.16
19.79
21.06
22.62
24.12
25.25
25.84
25.81
25.1
23.63
21.22
17.77
13.26
7.89
2.04
-3.76
-8.97
-13.26
-16.56
-19.17
-21.58
-24.38
-28.02
-32.67
-38.15
-43.96
-49.33
-53.34
-55.09
-53.87
-49.43
-42.05
-32.57
-22.18
-12.07
-3.11
4.29
10.11
14.48
17.51
19.16
19.42
18.43
16.65
14.79
13.56
13.46
14.55
16.54
18.91
21.19
23.15
24.79
26.23
27.55
28.66
29.3
29.19
28.14
26.18
23.57
20.7
17.93
15.48
13.34
11.33
9.04
6.02
1.86
-3.66
-10.34
-17.57
-24.25
-29.1
-30.96
-29.18
-23.89
-15.93
-6.63
2.63
10.79
17.23
21.85
24.78
26.26
26.48
25.64
23.97
21.84
19.72
18.07
17.19
17.16
17.77
18.7
19.63
20.3
20.61
20.52
20.02
19.0
17.35
14.92
11.66
7.59
2.93
-2.0
-6.69
-10.56
-12.94
-13.34
-11.48
-7.49
-1.88
4.55
10.9
16.31
20.17
22.13
22.18
20.59
17.84
14.52
11.22
8.47
6.6
5.74
5.85
6.66
7.84
8.98
9.74
9.85
9.27
8.04
6.3
4.19
1.8
-0.83
-3.64
-6.52
-9.34
-11.98
-14.36
-16.5
-18.5
-20.51
-22.68
-25.05
-27.58
-30.15
-32.6
-34.84
-36.88
-38.85
-41.01
-43.68
-47.14
-51.52
-56.62
-61.75
-65.78
-67.37
-65.36
-59.22
-49.25
-36.61
-22.94
-9.86
1.42
10.34
16.82
21.11
23.52
24.31
23.79
22.36
20.5
18.77
17.55
17.0
17.03
17.39
17.81
18.14
18.36
18.48
18.53
18.42
17.93
16.77
14.66
11.44
7.19
2.24
-2.88
-7.64
-11.64
-14.81
-17.4
-19.87
-22.68
-26.16
-30.34
-34.91
-39.2
-42.33
-43.36
-41.57
-36.68
-29.02
-19.41
-9.04
0.92
9.55
16.28
20.91
23.48
24.17
23.27
21.2
18.5
15.7
13.26
11.46
10.35
9.85
9.81
10.18
10.93
11.99
13.13
13.98
14.02
12.84
10.25
6.42
1.74
-3.23
-8.05
-12.47
-16.48
-20.25
-24.06
-28.11
-32.54
-37.24
-41.8
-45.56
-47.63
-47.19
-43.68
-37.09
-27.96
-17.28
-6.28
3.91
12.48
18.98
23.3
25.56
26.01
24.98
22.91
20.26
17.55
15.27
13.74
13.19
13.6
14.79
16.48
18.31
19.96
21.12
21.49
20.86
19.13
16.38
12.9
9.16
5.67
2.76
0.53
-1.24
-3.08
-5.54
-9.03
-13.6
-18.77
-23.63
-26.97
-27.66
-25.01
-19.03
-10.45
-0.53
9.31
17.9
24.52
28.92
31.26
31.83
31.01
29.2
26.76
24.09
21.56
19.5
18.17
17.71
18.06
18.99
20.13
20.99
21.16
20.36
18.58
15.96
12.8
9.37
5.87
2.38
-1.1
-4.63
-8.32
-12.33
-16.83
-21.93
-27.54
-33.17
-37.91
-40.61
-40.2
-36.1
-28.53
-18.49
-7.45
3.04
11.9
18.73
23.73
27.53
30.79
33.93
37.04
39.94
42.32
43.92
44.63
44.53
43.84
42.88
41.93
41.21
40.81
40.7
40.69
40.57
40.11
39.15
37.77
36.17
34.74
33.86
33.76
34.31
34.96
34.77
32.56
27.21
17.96
4.78
-11.43
-28.86
-45.13
-57.83
-65.24
-66.8
-63.23
-56.21
-47.79
-39.66
-32.78
-27.28
-22.74
-18.62
-14.5
-10.27
-5.99
-1.79
2.23
6.01
9.42
12.21
14.04
14.59
13.74
11.65
8.77
5.67
2.76
0.22
-2.11
-4.58
-7.5
-11.06
-15.17
-19.49
-23.55
-26.95
-29.45
-31.12
-32.32
-33.61
-35.55
-38.55
-42.66
-47.52
-52.41
-56.33
-58.26
-57.38
-53.35
-46.39
-37.32
-27.32
-17.63
-9.21
-2.54
2.37
5.84
8.33
10.24
11.78
13.04
13.98
14.53
14.66
14.43
14.06
13.82
13.89
14.33
14.99
15.6
15.85
15.54
14.57
12.95
10.73
7.99
4.84
1.45
-1.95
-5.11
-7.85
-10.11
-11.96
-13.61
-15.28
-17.18
-19.45
-22.15
-25.38
-29.21
-33.73
-38.9
-44.38
-49.41
-52.9
-53.65
-50.79
-44.11
-34.22
-22.39
-10.2
0.97
10.22
17.27
22.29
25.71
27.96
29.36
30.17
30.55
30.65
30.61
30.55
30.54
30.6
30.72
30.89
31.14
31.48
31.89
32.24
32.27
31.71
30.29
27.94
24.75
20.97
16.89
12.85
9.15
6.07
3.97
3.17
3.88
6.11
9.55
13.68
17.82
21.37
23.84
24.96
24.7
23.22
20.9
18.32
16.13
14.9
14.99
16.39
18.72
21.37
23.68
25.1
25.33
24.36
22.4
19.75
16.82
13.93
11.37
9.25
7.54
6.04
4.45
2.54
0.2
-2.42
-5.03
-7.28
-9.01
-10.33
-11.61
-13.29
-15.73
-18.97
-22.73
-26.53
-29.93
-32.75
-35.13
-37.56
-40.62
-44.82
-50.3
-56.68
-63.05
-68.07
-70.34
-68.82
-63.21
-54.04
-42.55
-30.29
-18.65
-8.53
-0.26
6.22
11.16
14.8
17.3
18.84
19.61
19.9
19.96
19.96
19.91
19.73
19.34
18.71
17.93
17.19
16.65
16.35
16.23
16.06
15.58
14.53
12.76
10.27
7.22
3.91
0.64
-2.35
-5.0
-7.42
-9.9
-12.72
-16.12
-20.24
-25.13
-30.72
-36.8
-42.9
-48.23
-51.8
-52.62
-50.07
-44.14
-35.52
-25.39
-15.1
-5.69
2.28
8.78
14.05
18.38
21.88
24.48
26.06
26.62
26.39
25.81
25.28
25.08
25.2
25.46
25.61
25.47
25.03
24.36
23.56
22.65
21.53
20.03
17.95
15.13
11.53
7.2
2.42
-2.42
-6.87
-10.58
-13.49
-15.85
-18.15
-20.96
-24.74
-29.7
-35.7
-42.24
-48.51
-53.41
-55.82
-54.8
-50.0
-41.73
-31.02
-19.3
-7.94
2.06
10.26
16.66
21.46
24.9
27.1
28.19
28.33
27.8
26.96
26.12
25.47
25.07
24.87
24.78
24.66
24.38
23.8
22.85
21.49
19.74
17.66
15.3
12.68
9.77
6.55
3.03
-0.72
-4.53
-8.2
-11.57
-14.58
-17.34
-20.14
-23.39
-27.45
-32.55
-38.59
-45.12
-51.35
-56.23
-58.71
-57.9
-53.4
-45.42
-34.82
-22.87
-10.92
-0.12
8.88
15.87
21.01
24.52
26.69
27.67
27.64
26.86
25.63
24.34
23.3
22.74
22.67
22.97
23.38
23.65
23.58
23.05
21.96
20.29
17.98
15.02
11.41
7.24
2.65
-2.12
-6.76
-10.84
-13.88
-15.3
-14.67
-11.78
-6.82
-0.37
6.66
13.3
18.69
22.21
23.56
22.74
20.0
15.88
11.14
6.67
3.37
1.84
2.32
4.54
7.9
11.63
15.02
17.56
18.97
19.21
18.41
16.85
14.88
12.88
11.13
9.74
8.67
7.78
6.93
6.06
5.2
4.41
3.68
2.87
1.75
0.13
-2.09
-4.85
-7.91
-10.95
-13.69
-15.95
-17.75
-19.3
-20.98
-23.31
-26.78
-31.7
-38.01
-45.13
-51.92
-56.93
-58.68
-56.21
-49.31
-38.69
-25.76
-12.22
0.37
10.87
18.72
23.79
26.29
26.54
25.04
22.39
19.35
16.67
14.97
14.55
15.35
16.89
18.57
19.83
20.36
20.17
19.45
18.39
16.99
15.07
12.37
8.74
4.32
-0.48
-5.19
-9.38
-12.87
-15.73
-18.24
-20.74
-23.59
-27.08
-31.34
-36.24
-41.29
-45.66
-48.27
-48.13
-44.63
-37.82
-28.39
-17.5
-6.44
3.65
12.05
18.42
22.73
25.14
25.9
25.33
23.81
21.73
19.46
17.28
15.3
13.59
12.15
11.05
10.33
9.98
9.85
9.64
8.93
7.38
4.77
1.14
-3.23
-7.93
-12.53
-16.7
-20.36
-23.67
-26.98
-30.79
-35.54
-41.38
-48.06
-54.77
-60.28
-63.15
-62.21
-56.95
-47.77
-35.87
-22.91
-10.48
0.31
8.95
15.46
20.17
23.4
25.38
26.29
26.26
25.52
24.33
22.99
21.8
20.92
20.4
20.08
19.71
19.01
17.74
15.81
13.23
10.13
6.67
2.99
-0.75
-4.45
-8.09
-11.77
-15.73
-20.31
-25.78
-32.12
-38.85
-44.98
-49.24
-50.36
-47.58
-40.93
-31.24
-19.97
-8.68
1.36
9.48
15.67
20.3
23.81
26.46
28.3
29.23
29.2
28.3
26.9
25.47
24.41
23.91
23.86
23.94
23.69
22.77
21.03
18.54
15.47
12.04
8.4
4.65
0.86
-2.89
-6.58
-10.31
-14.32
-18.97
-24.44
-30.53
-36.45
-41.0
-42.89
-41.23
-35.94
-27.8
-18.16
-8.49
0.1
7.03
12.29
16.18
19.05
21.11
22.42
22.92
22.55
21.31
19.35
16.97
14.53
12.38
10.69
9.43
8.36
7.13
5.41
3.0
-0.08
-3.64
-7.37
-10.92
-14.05
-16.64
-18.84
-20.98
-23.55
-27.0
-31.5
-36.73
-41.82
-45.51
-46.52
-43.95
-37.65
-28.27
-17.02
-5.31
5.72
15.35
23.33
29.71
34.64
38.22
40.51
41.56
41.5
40.57
39.14
37.66
36.5
35.89
35.79
35.91
35.85
35.23
33.89
31.92
29.59
27.18
24.83
22.46
19.91
16.99
13.61
9.76
5.47
0.72
-4.48
-9.98
-15.3
-19.65
-22.07
-21.71
-18.2
-11.76
-3.22
6.32
15.76
24.26
31.39
36.98
41.03
43.61
44.77
44.63
43.39
41.42
39.09
36.79
34.79
33.16
31.83
30.61
29.23
27.44
25.07
22.0
18.3
14.14
9.78
5.47
1.39
-2.46
-6.24
-10.26
-14.89
-20.49
-27.28
-35.23
-43.88
-52.37
-59.47
-63.95
-64.87
-61.94
-55.61
-46.98
-37.43
-28.3
-20.6
-14.8
-10.92
-8.59
-7.23
-6.24
-5.13
-3.62
-1.64
0.66
3.05
5.28
7.16
8.58
9.54
10.09
10.31
10.22
9.77
8.82
7.22
4.89
1.98
-1.17
-4.04
-6.13
-7.15
-7.09
-6.19
-4.92
-3.73
-3.06
-3.28
-4.65
-7.23
-10.77
-14.6
-17.64
-18.67
-16.7
-11.42
-3.3
6.51
16.61
25.88
33.78
40.4
46.18
51.54
56.57
61.02
64.38
66.26
66.53
65.36
63.16
60.36
57.29
54.14
51.05
48.11
45.43
43.06
40.94
38.89
36.66
34.0
30.83
27.22
23.35
19.42
15.55
11.76
7.93
3.94
-0.3
-4.81
-9.57
-14.53
-19.6
-24.72
-29.85
-34.96
-40.11
-45.4
-50.87
-56.34
-61.31
-64.94
-66.26
-64.46
-59.26
-51.06
-40.84
-29.93
-19.5
-10.35
-2.77
3.36
8.3
12.29
15.39
17.57
18.83
19.31
19.35
19.37
19.71
20.47
21.53
22.57
23.34
23.69
23.66
23.34
22.76
21.87
20.53
18.67
16.39
13.99
11.86
10.27
9.27
8.64
7.96
6.8
4.92
2.36
-0.6
-3.53
-6.08
-8.09
-9.69
-11.22
-13.18
-16.09
-20.31
-25.97
-32.8
-40.05
-46.58
-51.1
-52.5
-50.32
-44.81
-36.93
-27.96
-19.09
-11.14
-4.45
0.97
5.27
8.58
10.97
12.48
13.2
13.27
12.9
12.31
11.61
10.83
