12.36
9.5
6.8
4.39
2.28
0.39
-1.35
-2.95
-4.32
-5.36
-5.96
-6.17
-6.17
-6.31
-6.95
-8.31
-10.36
-12.73
-14.95
-16.58
-17.51
-18.03
-18.81
-20.53
-23.74
-28.49
-34.34
-40.36
-45.41
-48.31
-48.21
-44.65
-37.75
-28.16
-16.89
-5.13
6.09
16.06
24.5
31.51
37.35
42.35
46.75
50.68
54.19
57.27
59.9
62.11
63.93
65.43
66.61
67.38
67.52
66.82
65.22
62.93
60.39
58.11
56.39
55.18
54.12
52.81
50.95
48.54
45.76
42.78
39.65
36.21
32.29
27.81
22.9
17.88
13.12
8.9
5.29
2.08
-1.11
-4.76
-9.27
-14.8
-21.3
-28.46
-35.91
-43.28
-50.26
-56.64
-62.27
-67.1
-71.13
-74.47
-77.36
-80.05
-82.71
-85.24
-87.31
-88.36
-87.8
-85.2
-80.47
-73.87
-65.94
-57.4
-48.92
-40.94
-33.65
-26.95
-20.64
-14.53
-8.58
-2.9
2.34
7.05
11.24
14.98
18.23
20.77
22.28
22.49
21.47
19.63
17.64
16.11
15.36
15.31
15.55
15.57
14.95
13.44
10.97
7.61
3.57
-0.76
-4.72
-7.48
-8.17
-6.15
-1.22
6.26
15.43
25.09
33.98
41.11
45.89
48.16
48.2
46.55
43.9
40.93
38.26
36.34
35.41
35.44
36.21
37.31
38.32
38.89
38.85
38.21
37.14
35.85
34.47
32.99
31.32
29.35
27.03
24.4
21.61
18.84
16.23
13.84
11.68
9.69
7.81
5.97
4.14
2.26
0.29
-1.84
-4.22
-6.95
-10.08
-13.52
-17.11
-20.64
-23.99
-27.16
-30.35
-33.78
-37.54
-41.53
-45.46
-48.99
-51.97
-54.51
-57.01
-59.99
-63.91
-69.01
-75.18
-81.91
-88.3
-93.16
-95.28
-93.67
-87.87
-78.2
-65.65
-51.68
-37.75
-24.99
-13.95
-4.67
3.09
9.62
15.11
19.64
23.32
26.36
29.05
31.61
34.16
36.54
38.52
39.88
40.55
40.71
40.61
40.48
40.36
40.03
39.15
37.42
34.75
31.3
27.47
23.67
20.18
17.03
13.99
10.72
7.0
2.77
-1.81
-6.47
-10.92
-15.02
-18.78
-22.41
-26.28
-30.87
-36.6
-43.61
-51.5
-59.29
-65.47
-68.43
-66.93
-60.58
-49.95
-36.48
-22.03
-8.28
3.61
13.16
20.49
26.04
30.25
33.47
35.9
37.66
38.94
39.89
40.66
41.27
41.63
41.56
40.99
39.98
38.75
37.6
36.77
36.24
35.8
35.07
33.65
31.37
28.25
24.58
20.74
17.01
13.46
9.93
6.07
1.62
-3.51
-9.11
-14.81
-20.19
-25.0
-29.27
-33.28
-37.54
-42.6
-48.82
-56.19
-64.21
-71.8
-77.53
-79.99
-78.16
-71.83
-61.65
-48.95
-35.34
-22.32
-10.88
-1.46
5.96
11.67
16.03
19.36
21.86
23.71
25.06
26.12
27.08
28.13
29.39
30.87
32.58
34.41
36.25
37.89
39.16
39.84
39.76
38.87
37.22
34.95
32.23
29.19
25.92
22.35
18.39
13.88
8.76
3.12
-2.81
-8.62
-13.95
-18.54
-22.39
-25.79
-29.28
-33.47
-38.85
-45.59
-53.26
-60.87
-66.93
-69.88
-68.56
-62.63
-52.69
-40.13
-26.7
-13.96
-2.98
5.83
12.61
17.78
21.76
24.87
27.25
29.0
30.2
31.06
31.82
32.69
33.74
34.85
35.72
36.08
35.74
34.67
33.05
31.1
28.93
26.56
23.82
20.47
16.34
11.35
5.64
-0.51
-6.71
-12.62
-17.93
-22.55
-26.6
-30.34
-34.25
-38.83
-44.5
-51.47
-59.52
-67.94
-75.54
-80.95
-82.92
-80.78
-74.64
-65.4
-54.46
-43.35
-33.27
-24.87
-18.22
-12.97
-8.63
-4.79
-1.27
1.96
4.81
7.18
9.01
10.26
10.89
10.85
10.13
8.8
7.06
5.15
3.26
1.43
-0.51
-2.8
-5.65
-9.0
-12.47
-15.33
-16.64
-15.44
-11.06
-3.34
7.25
19.6
32.25
43.69
52.78
59.02
62.63
64.35
65.06
65.54
66.15
66.87
67.4
67.36
66.48
64.6
61.68
57.63
52.33
45.63
37.43
27.82
17.12
5.89
-5.17
-15.33
-23.98
-30.81
-35.83
-39.42
-42.19
-44.77
-47.55
-50.55
-53.42
-55.57
-56.43
-55.57
-52.73
-47.85
-40.91
-32.09
-21.8
-10.74
0.28
10.49
19.44
27.11
33.77
39.76
45.25
50.19
54.34
57.49
59.56
60.57
60.64
59.85
58.33
56.29
54.04
51.94
50.29
49.19
48.56
48.12
47.5
46.4
44.6
42.03
38.69
34.68
30.18
25.43
20.65
16.03
11.64
7.47
3.47
-0.42
-4.18
-7.75
-11.04
-14.01
-16.69
-19.13
-21.51
-24.04
-26.98
-30.59
-35.03
-40.25
-45.83
-51.05
-55.03
-56.92
-56.22
-52.9
-47.35
-40.31
-32.6
-24.98
-17.99
-11.98
-6.99
-2.89
0.58
3.72
6.76
9.81
12.85
15.75
18.34
20.42
21.87
22.65
22.82
22.58
22.16
21.77
21.47
21.13
20.5
19.28
17.29
14.54
11.26
7.76
4.39
1.32
-1.41
-3.99
-6.72
-9.98
-14.04
-18.88
-24.14
-29.1
-32.85
-34.67
-34.21
-31.65
-27.58
-22.7
-17.58
-12.5
-7.49
-2.54
2.23
6.63
10.43
13.53
16.04
18.16
20.12
22.05
23.86
25.41
26.49
26.97
26.82
26.13
25.1
23.98
23.01
22.34
21.95
21.69
21.31
20.54
19.24
17.42
15.26
13.03
10.9
8.93
7.01
4.93
2.48
-0.5
-4.06
-8.21
-12.84
-17.7
-22.34
-26.1
-28.3
-28.39
-26.21
-22.06
-16.58
-10.53
-4.51
1.12
6.26
10.96
15.26
19.1
22.38
24.94
26.69
27.6
27.74
27.31
26.55
25.71
25.01
24.57
24.4
24.4
24.37
24.15
23.61
22.65
21.31
19.65
17.77
15.74
13.62
11.44
9.24
7.05
4.87
2.68
0.38
-2.15
-4.99
-8.09
-11.36
-14.69
-18.11
-21.78
-25.91
-30.6
-35.62
-40.4
-44.14
-46.09
-45.79
-43.24
-38.82
-33.19
-27.01
-20.8
-14.86
-9.33
-4.27
0.28
4.26
7.63
10.42
12.72
14.64
16.25
17.55
18.49
18.94
18.84
18.23
17.23
16.04
14.83
13.7
12.66
11.61
10.46
9.07
7.39
5.42
3.26
1.1
-0.88
-2.51
-3.8
-4.87
-5.95
-7.31
-9.18
-11.66
-14.8
-18.53
-22.67
-26.9
-30.72
-33.55
-34.79
-34.11
-31.5
-27.29
-22.08
-16.51
-11.12
-6.22
-1.93
1.8
5.06
7.94
10.46
12.61
14.36
15.74
16.87
17.85
18.77
19.71
20.63
21.46
22.15
22.62
22.81
22.67
22.16
21.26
20.07
18.67
17.16
15.5
13.58
11.27
8.47
5.24
1.77
-1.69
-4.86
-7.57
-9.78
-11.64
-13.42
-15.48
-18.17
-21.64
-25.85
-30.39
-34.7
-38.14
-40.2
-40.55
-39.1
-35.99
-31.55
-26.28
-20.73
-15.41
-10.68
-6.63
-3.13
0.08
3.18
6.26
9.24
11.96
14.3
16.25
17.84
19.08
19.95
20.41
20.46
20.19
19.73
19.18
18.58
17.82
16.72
15.17
13.18
10.92
8.59
6.41
4.52
2.88
1.39
-0.11
-1.73
-3.55
-5.5
-7.43
-9.2
-10.72
-12.11
-13.68
-15.78
-18.75
-22.69
-27.44
-32.59
-37.57
-41.8
-44.71
-45.88
-45.08
-42.38
-38.11
-32.82
-27.12
-21.54
-16.39
-11.74
-7.49
-3.5
0.29
3.81
6.91
9.45
11.33
12.58
13.32
13.74
14.01
14.24
14.46
14.57
14.49
14.15
13.54
12.73
11.77
10.68
9.4
7.82
5.89
3.63
1.16
-1.32
-3.62
-5.56
-6.97
-7.68
-7.51
-6.32
-4.01
-0.71
3.32
7.64
11.77
15.32
18.02
19.77
20.55
20.47
19.69
18.46
17.08
15.92
15.25
15.21
15.77
16.74
17.91
19.09
20.15
20.94
21.34
21.23
20.56
19.47
18.2
17.01
16.07
15.36
14.77
14.08
13.2
12.08
10.8
9.4
7.92
6.41
4.9
3.44
2.04
0.64
-0.82
-2.42
-4.17
-5.97
-7.67
-9.15
-10.41
-11.54
-12.72
-14.07
-15.66
-17.42
-19.25
-21.03
-22.67
-24.2
-25.68
-27.24
-29.05
-31.32
-34.27
-38.03
-42.52
-47.36
-51.86
-55.17
-56.48
-55.32
-51.67
-45.99
-39.03
-31.66
-24.6
-18.29
-12.9
-8.34
-4.48
-1.23
1.45
3.58
5.23
6.62
8.02
9.66
11.59
13.64
15.53
16.93
17.72
17.91
17.64
17.06
16.22
15.08
13.59
11.76
9.68
7.47
5.24
3.03
0.77
-1.57
-3.94
-6.12
-7.73
-8.36
-7.68
-5.61
-2.36
1.62
5.78
9.62
12.78
15.11
16.56
17.24
17.25
16.76
15.91
14.94
14.08
13.55
13.49
13.89
14.58
15.3
15.83
16.02
15.9
15.58
15.17
14.74
14.26
13.63
12.75
11.59
10.2
8.66
7.06
5.47
3.89
2.35
0.87
-0.51
-1.77
-2.9
-3.93
-4.92
-5.95
-7.08
-8.37
-9.88
-11.65
-13.68
-15.89
-18.13
-20.19
-21.88
-23.16
-24.1
-24.96
-26.03
-27.6
-29.87
-32.91
-36.56
-40.4
-43.77
-45.84
-45.91
-43.61
-39.07
-32.89
-25.9
-18.9
-12.47
-6.88
-2.18
1.68
4.77
7.15
8.95
10.34
11.51
12.6
13.66
14.68
15.58
16.34
16.95
17.44
17.8
18.06
18.16
18.05
17.62
16.84
15.69
14.27
12.67
11.0
9.3
7.56
5.68
3.6
1.28
-1.23
-3.84
-6.38
-8.72
-10.77
-12.58
-14.32
-16.3
-18.82
-22.12
-26.17
-30.65
-34.96
-38.3
-39.87
-39.1
-35.76
-30.11
-22.81
-14.79
-6.98
-0.15
5.34
9.49
12.56
14.86
16.59
17.85
18.63
19.01
19.14
19.27
19.62
20.26
21.1
21.91
22.46
22.61
22.35
21.78
20.96
19.92
18.65
17.12
15.39
13.53
11.69
9.95
8.29
6.59
4.73
2.62
0.29
-2.09
-4.42
-6.67
-9.0
-11.78
-15.36
-19.93
-25.36
-31.06
-36.15
-39.62
-40.7
-39.02
-34.76
-28.52
-21.15
-13.5
-6.29
0.02
5.22
9.27
12.31
14.55
16.26
17.59
18.63
19.42
19.96
20.32
20.62
20.96
21.36
21.75
21.99
22.02
21.83
21.48
21.01
20.38
19.49
18.23
16.63
14.76
12.76
10.73
8.69
6.58
4.41
2.17
-0.09
-2.33
-4.59
-6.91
-9.38
-12.08
-15.13
-18.68
-22.89
-27.7
-32.78
-37.43
-40.71
-41.79
-40.26
-36.21
-30.26
-23.3
-16.18
-9.57
-3.86
0.83
4.44
7.07
8.8
9.8
10.27
10.41
10.44
10.53
10.77
11.15
11.58
11.9
12.02
11.9
11.61
11.25
10.94
10.69
10.42
9.95
9.11
7.75
5.81
3.28
0.26
-3.04
-6.28
-9.02
-10.77
-11.09
-9.75
-6.79
-2.51
2.52
7.67
12.35
16.14
18.82
20.33
20.76
20.27
19.1
17.55
15.95
14.64
13.87
13.75
14.2
14.99
15.82
16.41
16.58
16.35
15.76
14.92
13.93
12.82
11.58
10.24
8.8
7.25
5.57
3.75
1.79
-0.27
-2.32
-4.32
-6.21
-8.04
-9.9
-11.83
-13.86
-15.93
-17.96
-19.89
-21.71
-23.42
-25.09
-26.78
-28.65
-30.84
-33.47
-36.45
-39.5
-42.08
-43.54
-43.28
-41.0
-36.73
-30.88
-24.09
-17.11
-10.59
-4.94
-0.3
3.4
6.37
8.82
10.85
12.45
13.58
14.27
14.67
15.04
15.59
16.38
17.29
18.04
18.35
18.07
17.28
16.19
15.02
13.86
12.64
11.16
9.2
6.68
3.71
0.57
-2.44
-5.04
-7.13
-8.77
-10.13
-11.46
-13.0
-14.93
-17.43
-20.59
-24.39
-28.55
-32.53
-35.61
-36.99
-36.12
-32.82
-27.41
-20.6
-13.28
-6.28
-0.23
4.59
8.18
10.75
12.6
14.04
15.23
16.3
17.3
18.31
19.4
20.61
21.81
22.81
23.35
23.3
22.73
21.86
20.96
20.14
19.29
18.19
16.65
14.64
12.3
9.84
7.36
4.82
2.07
-0.97
-4.21
-7.41
-10.31
-12.85
-15.17
-17.65
-20.71
-24.62
-29.38
-34.6
-39.59
-43.46
-45.38
-44.73
-41.37
-35.69
-28.49
-20.8
-13.54
-7.3
-2.25
1.8
5.19
8.18
10.92
13.4
15.55
17.32
18.75
19.88
20.77
21.46
21.91
22.16
22.26
22.32
22.45
22.65
22.81
22.7
22.12
20.97
19.32
17.38
15.38
13.45
11.55
9.51
7.11
4.28
1.05
-2.3
-5.51
-8.39
-10.93
-13.39
-16.16
-19.62
-24.01
-29.2
-34.69
-39.68
-43.29
-44.77
-43.72
-40.19
-34.63
-27.75
-20.36
-13.14
-6.62
-1.03
3.6
7.43
10.67
13.53
16.12
18.45
20.46
22.07
23.25
24.03
24.48
24.75
24.92
25.09
25.25
25.32
25.22
24.87
24.2
23.21
21.92
20.37
18.64
16.77
14.79
12.67
10.37
7.84
5.06
2.15
-0.74
-3.39
-5.7
-7.67
-9.54
-11.64
-14.31
-17.77
-22.0
-26.73
-31.4
-35.28
-37.64
-37.88
-35.76
-31.41
-25.35
-18.32
-11.13
-4.43
1.36
6.14
10.0
13.19
15.95
18.41
20.55
22.25
23.36
23.89
23.96
23.83
23.77
23.88
24.11
24.3
24.27
23.91
23.25
22.35
21.3
20.06
18.52
16.5
13.92
10.79
7.33
3.82
0.54
-2.35
-4.86
-7.13
-9.37
-11.74
-14.36
-17.26
-20.44
-23.84
-27.27
-30.36
-32.54
-33.21
-31.88
-28.42
-23.09
-16.51
-9.46
-2.67
3.38
8.46
12.56
15.74
18.04
19.49
20.11
20.02
19.44
18.68
18.04
17.78
18.0
18.66
19.64
20.81
22.11
23.49
24.91
26.3
27.48
28.26
28.48
28.12
27.37
26.61
26.2
26.38
27.08
27.97
28.63
28.75
28.27
27.33
26.24
25.32
24.85
25.13
26.5
29.3
33.81
40.11
47.96
56.92
66.27
75.09
82.23
86.31
85.94
80.09
68.48
51.91
32.2
11.78
-6.78
-21.42
-30.91
-34.98
-34.3
-30.22
-24.54
-19.11
-15.57
-14.99
-17.86
-24.08
-33.21
-44.58
-57.4
-70.75
-83.58
-94.86
-103.64
-109.38
-111.98
-111.81
-109.54
-105.97
-101.8
-97.63
-93.93
-90.97
-88.91
-87.65
-86.78
-85.63
-83.4
-79.36
-73.2
-65.0
-55.31
-44.88
-34.44
-24.52
-15.33
-6.89
0.92
8.22
14.98
21.17
26.65
31.27
34.94
37.64
39.45
40.53
41.13
41.53
41.95
42.54
43.23
43.83
44.12
43.93
43.17
41.89
40.11
37.86
35.15
32.02
28.57
25.0
21.49
18.12
14.79
11.23
7.1
2.18
-3.61
-10.1
-16.82
-23.11
-28.1
-30.97
-31.13
-28.46
-23.38
-16.79
-9.71
-3.03
2.77
7.64
11.78
15.41
18.66
21.52
23.94
25.93
27.63
29.17
30.63
31.99
33.16
34.06
34.68
35.06
35.33
35.58
35.86
36.19
36.54
36.79
36.79
36.25
34.91
32.54
29.05
24.63
19.74
15.0
11.08
8.53
7.62
8.3
10.28
13.08
16.17
19.05
21.27
22.46
22.38
20.97
18.41
15.09
11.55
8.33
5.82
4.17
3.35
3.21
3.47
3.84
4.06
3.89
3.26
2.25
1.07
-0.07
-1.03
-1.89
-2.8
-3.91
-5.26
-6.73
-8.15
-9.39
-10.53
-11.73
-13.23
-15.21
-17.7
-20.63
-23.81
-26.99
-30.0
-32.71
-35.12
-37.45
-40.0
-43.14
-47.1
-51.93
-57.31
-62.66
-67.18
-70.04
-70.59
-68.55
-64.16
-58.11
-51.36
-44.76
-38.86
-33.84
-29.67
-26.36
-23.99
-22.78
-22.7
-23.35
-23.87
-23.13
-20.14
-14.35
-5.9
4.51
15.63
25.86
33.35
36.37
33.8
25.78
13.85
0.76
-10.43
-17.45
-19.57
-17.78
-14.22
-11.18
-10.24
-11.89
-15.69
-20.82
-26.49
-32.17
-37.42
-41.7
-44.29
-44.43
-41.65
-36.05
-28.44
-20.07
-12.15
-5.44
-0.02
4.52
8.77
13.06
17.27
20.91
23.4
24.39
23.95
22.6
21.04
19.91
19.5
19.68
19.97
19.76
18.54
16.14
12.67
8.46
3.85
-0.9
-5.69
-10.5
-15.34
-20.23
-25.24
-30.42
-35.72
-40.88
-45.34
-48.34
-49.14
-47.36
-43.07
-36.9
-29.77
-22.55
-15.85
-9.82
-4.34
0.83
5.78
10.4
14.44
17.67
19.98
21.47
22.45
23.22
24.0
24.88
25.74
26.35
26.46
25.8
24.22
21.67
18.23
14.12
9.68
5.22
1.02
-2.91
-6.72
-10.71
-15.04
-19.61
-23.85
-26.88
-27.79
-26.02
-21.58
-15.06
-7.4
0.41
7.58
13.57
18.23
21.57
23.81
25.19
25.89
26.0
25.48
24.31
22.62
20.71
18.93
17.57
16.61
15.81
14.87
13.57
11.96
10.24
8.6
7.1
5.6
3.85
1.61
-1.31
-5.08
-9.82
-15.53
-21.98
-28.62
-34.58
-38.89
-40.78
-39.94
-36.63
-31.5
-25.4
-19.04
-12.89
-7.15
-1.86
2.98
7.34
11.19
14.51
17.31
19.69
21.75
23.58
25.25
26.78
28.14
29.28
30.13
30.65
30.84
30.71
30.25
29.45
28.22
26.49
24.25
21.53
18.46
15.24
12.05
9.0
6.04
3.03
-0.3
-4.24
-8.99
-14.55
-20.65
-26.67
-31.82
-35.22
-36.22
-34.56
-30.43
-24.41
-17.24
-9.63
-2.04
5.31
12.37
19.14
25.52
31.33
36.29
40.23
43.1
44.96
46.05
46.62
46.94
47.24
47.67
48.3
49.05
49.72
50.03
49.63
48.31
46.02
42.89
39.25
35.46
31.83
28.52
25.52
22.67
19.73
16.48
12.81
8.82
4.73
0.79
-2.85
-6.25
-9.72
-13.69
-18.55
-24.38
-30.89
-37.34
-42.79
-46.32
-47.27
-45.49
-41.27
-35.24
-28.17
-20.7
-13.32
-6.31
0.18
6.09
11.32
15.85
19.67
22.88
25.58
27.85
29.68
30.98
31.68
31.74
31.32
30.68
30.06
29.55
29.05
28.32
27.14
25.43
23.24
20.73
18.06
15.33
12.64
10.08
7.8
5.87
4.26
2.79
1.23
-0.59
-2.7
-4.96
-7.2
-9.4
-11.73
-14.51
-18.05
-22.42
-27.37
-32.36
-36.68
-39.67
-40.9
-40.19
-37.69
-33.7
-28.62
-22.8
-16.5
-9.91
-3.21
3.36
9.47
14.72
18.81
21.57
23.05
23.54
23.41
23.06
22.76
22.62
22.59
22.56
22.39
22.0
21.43
20.76
20.07
19.4
18.7
17.79
16.43
14.44
11.68
8.22
4.19
-0.14
-4.48
-8.53
-12.01
-14.77
-16.88
-18.65
-20.64
-23.49
-27.65
-33.15
-39.52
-45.89
-51.21
-54.6
-55.56
-54.07
-50.51
-45.49
-39.63
-33.39
-27.04
-20.75
-14.7
-9.24
-4.75
-1.59
0.21
1.02
1.53
2.6
4.94
8.95
14.61
21.57
29.21
36.78
43.5
48.73
52.1
53.61
53.63
52.72
51.4
49.86
47.9
45.07
40.87
35.13
28.12
20.52
13.13
6.53
0.9
-4.08
-9.02
-14.57
-21.11
-28.64
-36.61
-44.14
-50.09
-53.39
-53.31
-49.73
-43.13
-34.5
-24.96
-15.45
-6.48
1.74
9.23
16.03
22.09
27.27
31.41
34.41
36.27
37.1
37.12
36.59
35.74
34.77
33.79
32.88
32.09
31.47
31.03
30.75
30.48
29.99
28.96
27.12
24.37
20.78
16.7
12.52
8.67
5.38
2.63
0.12
-2.57
-5.85
-9.89
-14.52
-19.31
-23.71
-27.32
-30.06
-32.27
-34.58
-37.69
-42.15
-48.08
-55.1
-62.32
-68.55
-72.5
-73.15
-70.0
-63.23
-53.66
-42.53
-31.09
-20.3
-10.6
-1.92
6.01
13.45
20.4
26.62
31.74
35.51
37.86
38.95
39.13
38.74
38.08
37.31
36.55
35.86
35.33
34.96
34.74
34.54
34.11
33.15
31.37
28.61
24.96
20.72
16.38
12.4
9.12
6.58
4.59
2.77
0.69
-1.98
-5.4
-9.52
-14.08
-18.73
-23.16
-27.15
-30.73
-34.1
-37.63
-41.71
-46.67
-52.65
-59.52
-66.75
-73.44
-78.39
-80.38
-78.55
-72.68
-63.35
-51.8
-39.48
-27.61
-16.83
-7.21
1.57
9.82
17.63
24.79
30.9
35.65
38.9
40.81
41.72
42.06
42.2
42.41
42.82
43.4
44.01
44.45
44.49
43.98
42.87
41.22
39.13
36.7
33.99
31.02
27.85
24.62
21.45
18.47
15.73
13.18
10.72
8.2
5.47
2.46
-0.9
-4.57
-8.47
-12.45
-16.36
-20.1
-23.72
-27.43
-31.61
-36.66
-42.87
-50.22
-58.21
-65.84
-71.73
-74.5
-73.15
-67.42
-57.96
-46.03
-33.23
-20.88
-9.78
-0.15
8.24
15.68
22.36
28.27
33.21
37.06
39.8
41.62
42.79
43.54
44.0
44.15
43.93
43.37
42.58
41.77
41.13
40.71
40.34
39.68
38.38
36.23
33.29
29.84
26.3
23.06
20.25
17.8
15.44
12.88
9.91
6.52
2.82
-0.94
-4.51
-7.75
-10.67
-13.57
-16.89
-21.17
-26.78
-33.75
-41.63
-49.5
-56.11
-60.21
-60.84
-57.64
-50.92
-41.62
-30.97
-20.14
-9.96
-0.78
7.42
14.84
21.59
27.63
32.76
36.81
39.73
41.62
42.7
43.21
43.29
43.02
42.42
41.52
40.4
39.21
38.09
37.11
36.17
35.06
33.45
31.05
27.73
23.64
19.11
14.64
10.62
7.24
4.36
1.64
-1.4
-5.09
-9.54
-14.57
-19.81
-24.88
-29.52
-33.74
-37.78
-42.11
-47.21
-53.36
-60.52
-68.08
-75.01
-79.95
-81.7
-79.5
-73.43
-64.29
-53.39
-42.09
-31.36
-21.6
-12.72
-4.46
3.38
10.68
17.14
22.43
26.31
28.87
30.35
31.1
31.35
31.2
30.63
29.64
28.3
26.83
25.46
24.31
23.3
22.14
20.44
17.89
14.37
9.96
4.86
-0.72
-6.54
-12.3
-17.47
-21.3
-22.92
-21.68
-17.38
-10.45
-1.84
7.26
15.77
22.97
28.51
32.32
34.46
35.03
34.21
32.34
29.94
27.69
26.18
25.82
26.63
28.32
30.35
32.16
33.33
33.71
33.35
32.47
31.25
29.81
28.16
26.28
24.16
21.87
19.58
17.41
15.45
13.69
12.06
10.51
8.98
7.49
6.03
4.61
3.2
1.78
0.4
-0.85
-1.87
-2.61
-3.15
-3.74
-4.65
-6.11
-8.12
-10.47
-12.76
-14.57
-15.67
-16.1
-16.17
-16.24
-16.6
-17.28
-18.05
-18.53
-18.34
-17.09
-14.3
-9.25
-1.0
11.14
26.94
44.76
61.49
73.29
76.93
70.92
56.01
34.73
10.26
-14.6
-37.92
-58.35
-74.67
-85.67
-90.71
-90.37
-86.66
-82.39
-79.83
-79.43
-79.23
-75.71
-65.47
-47.14
-22.21
5.39
30.83
50.13
61.3
64.38
60.73
52.12
40.11
26.08
11.41
-2.27
-13.24
-20.12
-22.35
-20.51
-16.05
-10.82
-6.47
-3.95
-3.38
-4.02
-4.74
-4.72
-3.85
-2.89
-3.21
-6.0
-11.65
-19.4
-27.65
-34.73
-39.64
-42.55
-44.62
-47.42
-52.12
-58.84
-66.48
-73.03
-76.29
-74.76
-68.16
-57.54
-44.89
-32.33
-21.41
-12.75
-6.11
-0.83
3.69
7.65
10.89
13.14
14.24
14.35
13.85
13.22
12.81
12.77
13.04
13.48
13.93
14.26
14.39
14.24
13.65
12.45
10.49
7.66
3.97
-0.42
-5.27
-10.28
-15.21
-19.94
-24.43
-28.68
-32.56
-35.81
-38.03
-38.95
-38.58
-37.3
-35.92
-35.48
-37.0
-41.24
-48.48
-58.25
-69.32
-79.73
-87.2
-89.68
-85.95
-75.99
-60.95
-42.74
-23.49
-5.0
11.48
25.24
35.98
43.64
48.34
50.38
50.25
48.59
46.13
43.55
41.41
40.09
39.73
40.26
41.44
42.91
44.3
45.22
45.39
44.59
42.73
39.9
36.26
32.14
27.88
23.78
20.01
16.5
13.1
9.53
5.62
1.35
-3.14
-7.68
-12.16
-16.73
-21.81
-27.97
-35.77
-45.33
-56.16
-67.02
-76.18
-81.9
-82.95
-79.04
-70.86
-59.82
-47.52
-35.27
-23.83
-13.38
-3.8
5.1
13.39
21.04
27.89
33.79
38.61
42.23
44.54
45.48
45.12
43.66
41.44
38.91
36.49
34.52
33.12
32.18
31.41
30.43
28.93
26.78
24.08
21.13
18.22
15.56
13.12
10.72
8.14
5.32
2.35
-0.56
-3.21
-5.6
-7.95
-10.72
-14.43
-19.6
-26.47
-34.92
-44.28
-53.33
-60.53
-64.37
-63.84
-58.72
-49.72
-38.15
-25.62
-13.47
-2.59
6.72
14.53
21.16
26.87
31.79
35.84
38.87
40.74
41.48
41.29
40.46
39.31
37.99
36.6
35.17
33.87
32.96
32.69
33.11
33.91
34.43
34.01
32.17
28.89
24.62
19.99
15.6
11.76
8.35
4.98
1.2
-3.25
-8.35
-13.7
-18.82
-23.24
-26.78
-29.62
-32.21
-35.21
-39.26
-44.78
-51.78
-59.69
-67.33
-73.12
-75.5
-73.4
-66.66
-56.15
-43.39
-30.12
-17.73
-6.93
2.19
9.99
16.94
23.38
29.45
35.15
40.45
45.42
50.24
55.13
60.21
65.33
70.1
74.05
76.87
78.59
79.61
80.49
81.67
83.29
85.12
86.74
87.81
88.19
87.96
87.3
86.33
84.98
83.07
80.38
76.85
72.6
67.87
62.94
57.97
52.9
47.47
41.24
33.73
24.57
13.6
1.03
-12.49
-25.91
-37.9
-47.11
-52.46
-53.41
-50.07
-43.2
-34.03
-23.9
-14.06
-5.37
1.79
7.45
11.82
15.09
17.2
17.8
16.45
12.8
6.88
-0.9
-9.83
-19.09
-27.98
-36.02
-42.99
-48.83
-53.61
-57.55
-61.0
-64.33
-67.88
-71.82
-76.03
-80.14
-83.59
-85.8
-86.41
-85.32
-82.8
-79.35
-75.55
-71.83
-68.4
-65.23
-62.18
-59.11
-56.07
-53.28
-51.06
-49.68
-49.28
-49.76
-50.76
-51.75
-52.06
-51.12
-48.55
-44.37
-38.94
-32.96
-27.19
-22.21
-18.2
-14.92
-11.71
-7.86
-2.9
3.16
9.76
15.99
20.96
24.12
25.45
25.45
24.87
24.37
24.31
24.7
25.24
25.6
25.45
24.57
22.86
20.39
17.34
14.14
11.27
9.14
7.9
7.35
7.01
6.33
4.93
2.76
0.07
-2.8
-5.5
-7.81
-9.68
-11.16
-12.42
-13.6
-14.86
-16.26
-17.68
-18.8
-19.14
-18.23
-15.82
-11.95
-7.0
-1.6
3.69
8.42
12.42
15.83
18.83
21.6
24.2
26.54
28.44
29.74
30.36
30.36
29.86
29.08
28.21
27.32
26.45
25.52
24.47
23.24
21.76
20.06
18.14
16.09
14.04
12.14
10.47
9.03
7.66
6.13
4.22
1.79
-1.14
-4.47
-7.96
-11.43
-14.74
-17.84
-20.77
-23.68
-26.71
-29.98
-33.41
-36.68
-39.24
-40.42
-39.62
-36.54
-31.27
-24.32
-16.41
-8.36
-0.77
5.97
11.71
16.55
20.58
23.9
26.59
28.69
30.27
31.44
32.3
32.96
33.46
33.74
33.72
33.32
32.51
31.35
29.91
28.32
26.65
24.94
23.17
21.31
19.28
17.03
14.52
11.8
8.95
6.06
3.2
0.39
-2.44
-5.32
-8.21
-11.01
-13.6
-15.95
-18.15
-20.47
-23.24
-26.7
-30.82
-35.28
-39.42
-42.41
-43.44
-41.93
-37.7
-31.09
-22.82
-13.91
-5.36
2.1
8.11
12.72
16.24
19.03
21.33
23.17
24.5
25.18
25.21
24.7
23.9
23.04
22.3
21.74
21.34
21.0
20.61
20.08
19.28
18.18
16.75
15.03
13.11
11.1
9.06
6.98
4.86
