-48.23
-41.69
-34.56
-27.66
-21.41
-15.87
-10.97
-6.56
-2.59
0.95
3.95
6.2
7.47
7.66
6.88
5.53
4.23
3.51
3.66
4.55
5.78
6.83
7.32
7.06
6.09
4.52
2.48
0.09
-2.55
-5.32
-8.12
-10.88
-13.54
-16.07
-18.37
-20.4
-22.18
-23.88
-25.79
-28.3
-31.75
-36.33
-41.96
-48.22
-54.32
-59.14
-61.5
-60.44
-55.59
-47.34
-36.75
-25.19
-13.83
-3.34
6.14
14.76
22.56
29.28
34.42
37.5
38.34
37.27
35.03
32.68
31.5
32.88
37.88
46.6
57.66
68.11
74.34
73.48
64.81
50.1
32.94
17.0
4.62
-3.91
-9.75
-14.24
-17.97
-20.46
-20.86
-18.78
-14.85
-10.58
-7.68
-7.52
-10.91
-18.28
-29.78
-45.17
-63.58
-83.2
-101.3
-114.88
-121.6
-120.53
-112.46
-99.49
-84.18
-68.62
-53.86
-39.78
-25.57
-10.44
5.78
22.31
37.65
50.13
58.6
62.89
63.9
63.07
61.78
60.87
60.4
59.9
58.72
56.38
52.86
48.52
44.05
40.23
37.61
36.26
35.59
34.61
32.28
28.04
22.1
15.33
8.98
4.05
0.98
-0.51
-1.27
-2.38
-4.76
-8.94
-14.96
-22.33
-30.12
-37.05
-41.62
-42.37
-38.17
-28.61
-14.28
3.22
21.65
38.65
52.49
62.48
68.99
73.0
75.47
76.84
76.97
75.38
71.73
66.17
59.42
52.48
46.27
41.38
37.86
35.41
33.55
31.76
29.69
27.06
23.75
19.62
14.61
8.65
1.75
-5.93
-14.06
-22.17
-29.56
-35.48
-39.22
-40.24
-38.27
-33.39
-26.04
-16.92
-6.9
3.08
12.17
19.65
25.0
27.95
28.51
26.97
23.89
20.03
16.2
13.08
11.09
10.29
10.46
11.24
12.24
13.22
14.05
14.69
15.08
15.1
14.61
13.52
11.9
9.99
8.13
6.55
5.28
4.09
2.52
0.1
-3.48
-8.21
-13.82
-19.81
-25.66
-30.99
-35.63
-39.66
-43.38
-47.17
-51.36
-56.01
-60.81
-65.02
-67.62
-67.58
-64.2
-57.32
-47.43
-35.53
-22.95
-10.97
-0.61
7.57
13.4
17.13
19.22
20.21
20.58
20.7
20.75
20.8
20.78
20.65
20.32
19.79
19.07
18.27
17.44
16.63
15.79
14.81
13.55
11.89
9.79
7.21
4.18
0.71
-3.08
-7.09
-11.21
-15.42
-19.88
-24.86
-30.54
-36.83
-43.16
-48.57
-51.97
-52.52
-49.94
-44.56
-37.18
-28.8
-20.35
-12.57
-5.84
-0.35
3.96
7.26
9.77
11.67
13.04
13.84
14.03
13.59
12.66
11.49
10.37
9.45
8.78
8.27
7.77
7.14
6.25
4.94
3.05
0.51
-2.58
-5.95
-9.22
-12.14
-14.78
-17.62
-21.35
-26.47
-32.95
-39.99
-46.14
-49.81
-49.77
-45.73
-38.46
-29.6
-21.12
-14.55
-10.44
-8.21
-6.42
-3.57
1.09
7.05
12.73
16.15
15.98
12.37
7.09
2.82
1.98
5.59
12.64
20.45
25.87
26.5
21.76
13.22
4.24
-0.75
2.93
19.46
51.5
98.9
157.69
219.97
275.64
315.67
335.53
336.93
326.6
312.69
300.63
290.93
279.97
263.1
237.93
205.61
169.72
133.58
97.98
60.86
18.92
-29.73
-83.78
-138.49
-187.19
-223.75
-244.77
-250.65
-245.16
-233.68
-221.0
-209.69
-199.7
-189.35
-177.05
-162.68
-147.92
-135.36
-127.03
-123.13
-121.87
-120.37
-116.02
-107.85
-96.87
-85.56
-76.56
-71.39
-69.83
-70.16
-70.06
-67.73
-62.53
-54.96
-46.13
-37.0
-27.93
-18.77
-9.19
0.86
10.92
20.17
27.68
32.8
35.33
35.52
33.9
31.12
27.71
24.0
20.05
15.73
10.86
5.4
-0.46
-6.25
-11.4
-15.48
-18.38
-20.42
-22.16
-24.2
-26.88
-30.22
-33.97
-37.77
-41.42
-44.86
-48.21
-51.66
-55.37
-59.48
-64.13
-69.34
-74.97
-80.46
-84.79
-86.67
-84.93
-79.02
-69.26
-56.83
-43.35
-30.33
-18.79
-9.08
-1.04
5.69
11.55
16.84
21.84
26.78
31.87
37.19
42.65
47.99
52.78
56.6
59.09
60.07
59.59
57.95
55.68
53.35
51.42
50.08
49.17
48.23
46.74
44.27
40.66
35.98
30.55
24.84
19.33
14.48
10.49
7.3
4.49
1.45
-2.38
-7.33
-13.44
-20.43
-27.78
-34.87
-40.98
-45.34
-47.27
-46.34
-42.54
-36.33
-28.57
-20.19
-11.98
-4.39
2.38
8.3
13.28
17.22
20.0
21.6
22.21
22.12
21.62
20.85
19.8
18.37
16.52
14.38
12.23
10.41
9.11
8.31
7.79
7.26
6.4
5.0
2.94
0.16
-3.24
-7.02
-10.75
-13.85
-15.72
-15.84
-14.02
-10.39
-5.45
0.07
5.41
10.01
13.52
15.9
17.29
17.83
17.67
16.95
15.82
14.49
13.27
12.45
12.2
12.46
13.04
13.65
14.01
14.0
13.64
13.01
12.18
11.21
10.09
8.85
7.56
6.35
5.36
4.68
4.24
3.85
3.25
2.21
0.66
-1.34
-3.53
-5.64
-7.46
-9.0
-10.43
-12.05
-14.12
-16.75
-19.78
-22.89
-25.72
-28.07
-29.91
-31.45
-32.99
-34.84
-37.26
-40.34
-43.96
-47.72
-50.85
-52.4
-51.4
-47.26
-40.01
-30.37
-19.54
-8.84
0.66
8.37
14.23
18.51
21.57
23.73
25.18
26.03
26.37
26.33
26.04
25.62
25.1
24.45
23.57
22.4
20.98
19.36
17.69
16.02
14.32
12.5
10.47
8.18
5.7
3.09
0.37
-2.5
-5.67
-9.2
-13.1
-17.23
-21.35
-25.21
-28.61
-31.54
-34.08
-36.5
-39.14
-42.32
-46.21
-50.75
-55.56
-59.83
-62.58
-62.83
-59.96
-53.91
-45.28
-35.09
-24.54
-14.65
-6.03
1.06
6.62
10.79
13.71
15.47
16.2
16.04
15.19
13.85
12.18
10.28
8.19
5.98
3.67
1.34
-0.99
-3.41
-6.02
-9.0
-12.48
-16.5
-21.03
-25.94
-31.04
-36.21
-41.36
-46.45
-51.53
-56.67
-61.85
-66.92
-71.65
-75.83
-79.48
-82.86
-86.48
-90.7
-95.56
-100.56
-104.66
-106.68
-105.51
-100.44
-91.2
-78.12
-62.01
-44.12
-25.99
-9.04
5.64
17.58
26.91
34.1
39.58
43.62
46.21
47.31
46.99
45.55
43.43
40.98
38.38
35.57
32.45
28.93
25.09
21.18
17.54
14.4
11.87
9.81
8.01
6.24
4.43
2.66
1.26
0.55
0.77
1.95
3.83
5.92
7.6
8.25
7.43
5.03
1.41
-2.57
-5.64
-6.37
-3.56
3.44
14.45
28.56
44.35
60.34
75.37
88.76
100.21
109.63
116.91
121.83
124.18
123.94
121.37
117.0
111.42
105.02
97.93
90.11
81.46
72.1
62.33
52.61
43.27
34.44
25.96
17.49
8.67
-0.69
-10.51
-20.41
-29.71
-37.5
-42.67
-44.14
-41.07
-33.14
-20.89
-5.74
10.2
24.68
35.92
43.14
46.55
47.17
46.17
44.49
42.65
40.92
39.6
39.14
40.08
42.83
47.27
52.75
58.16
62.28
64.21
63.63
60.83
56.65
52.09
48.01
44.94
42.93
41.79
41.2
41.04
41.37
42.4
44.23
46.61
48.89
50.08
49.16
45.41
38.74
29.76
19.64
9.73
1.15
-5.55
-10.43
-14.03
-17.05
-20.01
-23.16
-26.51
-29.96
-33.58
-37.6
-42.39
-48.3
-55.49
-63.75
-72.43
-80.51
-86.68
-89.62
-88.34
-82.6
-72.93
-60.62
-47.31
-34.48
-23.14
-13.71
-6.18
-0.4
3.89
6.96
9.19
11.15
13.38
16.24
19.7
23.28
26.27
28.02
28.21
26.99
24.93
22.75
21.05
20.15
19.91
19.91
19.55
18.4
16.25
13.24
9.72
6.1
2.62
-0.71
-4.07
-7.7
-11.74
-16.1
-20.48
-24.51
-27.91
-30.61
-32.79
-34.82
-37.15
-40.19
-44.11
-48.79
-53.69
-57.93
-60.38
-60.07
-56.43
-49.53
-40.1
-29.3
-18.32
-8.12
0.79
8.26
14.34
19.16
22.83
25.51
27.42
28.86
30.09
31.24
32.27
32.95
33.11
32.69
31.87
30.93
30.16
29.7
29.45
29.16
28.56
27.48
25.94
24.11
22.18
20.32
18.52
16.66
14.52
11.85
8.5
4.47
-0.08
-4.81
-9.33
-13.34
-16.71
-19.6
-22.44
-25.7
-29.76
-34.59
-39.78
-44.5
-47.81
-48.78
-46.86
-42.01
-34.67
-25.74
-16.34
-7.51
0.09
6.2
11.01
14.83
17.98
20.57
22.56
23.88
24.55
24.75
24.74
24.75
24.85
24.98
25.01
24.81
24.34
23.67
22.86
21.94
20.9
19.66
18.14
16.27
13.94
11.15
7.9
4.31
0.59
-2.99
-6.26
-9.21
-12.02
-15.06
-18.7
-23.21
-28.66
-34.85
-41.27
-47.21
-51.78
-54.18
-53.82
-50.55
-44.71
-37.06
-28.54
-20.07
-12.31
-5.63
-0.15
4.22
7.58
10.06
11.79
12.88
13.48
13.77
13.97
14.23
14.6
15.01
15.32
15.35
15.03
14.37
13.45
12.38
11.11
9.52
7.41
4.59
1.01
-3.18
-7.55
-11.47
-14.24
-15.19
-13.88
-10.2
-4.41
2.93
11.07
19.15
26.38
32.1
35.88
37.58
37.36
35.68
33.2
30.65
28.66
27.64
27.67
28.54
29.85
31.11
31.92
32.03
31.41
30.21
28.7
27.11
25.61
24.21
22.78
21.17
19.27
17.17
15.05
13.17
11.67
10.55
9.6
8.58
7.24
5.46
3.26
0.66
-2.24
-5.42
-8.84
-12.44
-16.19
-20.02
-23.9
-27.77
-31.55
-35.11
-38.33
-41.14
-43.61
-45.99
-48.6
-51.8
-55.86
-60.81
-66.34
-71.85
-76.43
-79.04
-78.76
-75.08
-68.03
-58.23
-46.71
-34.61
-23.02
-12.67
-3.93
3.09
8.56
12.72
15.87
18.26
20.05
21.32
22.13
22.58
22.85
23.12
23.58
24.25
25.02
25.67
25.97
25.75
25.0
23.79
22.28
20.63
18.96
17.25
15.4
13.21
10.51
7.17
3.27
-1.0
-5.29
-9.32
-12.94
-16.21
-19.43
-22.98
-27.27
-32.54
-38.76
-45.52
-52.11
-57.58
-60.91
-61.26
-58.2
-51.84
-42.89
-32.43
-21.68
-11.68
-3.09
3.87
9.31
13.47
16.54
18.63
19.79
20.06
19.59
18.64
17.52
16.46
15.62
14.96
14.36
13.67
12.8
11.78
10.68
9.58
8.39
6.86
4.71
1.75
-1.97
-6.17
-10.42
-14.37
-17.84
-20.89
-23.79
-26.92
-30.69
-35.43
-41.31
-48.16
-55.44
-62.15
-67.07
-69.02
-67.29
-61.79
-53.08
-42.27
-30.56
-19.07
-8.66
0.12
6.98
11.82
14.67
15.74
15.39
14.14
12.64
11.55
11.49
12.76
15.35
18.82
22.51
25.72
27.98
29.23
29.72
29.94
30.36
31.29
32.77
34.51
35.95
36.36
35.0
31.41
25.45
17.36
7.51
-3.81
-16.53
-30.73
-46.47
-63.65
-81.89
-100.61
-119.14
-136.68
-152.34
-165.01
-173.53
-177.03
-175.24
-168.69
-158.53
-146.01
-132.0
-116.67
-99.61
-80.3
-58.59
-35.18
-11.43
10.86
30.12
45.44
56.88
65.23
71.76
77.63
83.56
89.65
95.51
100.54
104.22
106.3
106.79
105.79
103.42
99.68
94.54
88.01
80.28
71.7
62.74
53.83
45.3
37.24
29.59
22.14
14.64
6.9
-1.31
-10.19
-20.03
-30.96
-42.74
-54.47
-64.58
-71.16
-72.48
-67.7
-57.26
-42.78
-26.57
-10.8
3.01
14.35
23.45
30.93
37.4
43.14
48.12
52.16
55.06
56.8
57.59
57.76
57.66
57.55
57.5
57.45
57.27
56.92
56.45
55.96
55.42
54.62
53.15
50.62
46.78
41.72
35.79
29.47
23.18
17.2
11.59
6.31
1.24
-3.83
-9.21
-15.38
-22.77
-31.63
-41.72
-52.13
-61.33
-67.51
-69.08
-65.22
-56.16
-43.1
-27.83
-12.22
2.32
15.08
25.86
34.81
42.15
47.94
52.21
54.99
56.47
57.0
57.0
56.81
56.63
56.55
56.59
56.76
57.04
57.35
57.49
57.13
55.97
53.85
50.74
46.86
42.43
37.65
32.64
27.39
21.9
16.18
10.31
4.37
-1.55
-7.35
-13.0
-18.55
-24.21
-30.34
-37.43
-45.79
-55.33
-65.27
-74.2
-80.33
-82.05
-78.41
-69.45
-56.25
-40.51
-24.13
-8.62
5.12
16.81
26.54
34.52
40.9
45.73
49.09
51.22
52.52
53.4
54.13
54.76
55.12
55.04
54.51
53.76
53.21
53.16
53.66
54.39
54.71
53.99
51.79
48.1
43.33
38.12
33.1
28.63
24.67
20.86
16.73
11.94
6.41
0.35
-5.86
-11.89
-17.53
-22.84
-27.99
-33.34
-39.33
-46.37
-54.66
-63.95
-73.32
-81.24
-85.88
-85.71
-80.04
-69.4
-55.3
-39.78
-24.72
-11.33
0.03
9.58
17.8
25.03
31.35
36.65
40.79
43.76
45.82
47.33
48.71
50.27
52.17
54.49
57.29
60.63
64.56
68.98
73.58
77.84
81.14
82.93
82.91
81.12
77.9
73.74
69.06
64.09
58.72
52.62
45.4
36.86
27.16
16.88
6.81
-2.33
-10.12
-16.63
-22.29
-27.77
-33.66
-40.38
-48.01
-56.28
-64.55
-71.88
-77.2
-79.55
-78.35
-73.59
-65.86
-56.17
-45.66
-35.35
-25.95
-17.78
-10.88
-5.09
-0.18
4.08
7.79
10.96
13.56
15.52
16.89
17.79
18.45
19.08
19.82
20.7
21.63
22.46
22.99
23.05
22.49
21.21
19.25
16.69
13.71
10.49
7.16
3.8
0.39
-3.1
-6.64
-10.17
-13.6
-16.87
-20.02
-23.16
-26.53
-30.39
-34.98
-40.34
-46.2
-51.94
-56.57
-58.98
-58.31
-54.2
-46.96
-37.49
-26.98
-16.55
-6.99
1.33
8.35
14.23
19.12
23.17
26.48
29.11
31.11
32.46
33.19
33.32
32.96
32.3
31.55
30.9
30.41
30.02
29.6
28.96
27.98
26.59
24.8
22.65
20.23
17.61
14.86
12.03
9.16
6.2
3.06
-0.38
-4.18
-8.33
-12.68
-17.0
-21.15
-25.15
-29.25
-33.84
-39.29
-45.65
-52.52
-58.98
-63.81
-65.85
-64.4
-59.46
-51.73
-42.33
-32.44
-22.98
-14.49
-7.09
-0.7
4.77
9.44
13.38
16.67
19.47
21.89
23.98
25.68
26.88
27.49
27.57
27.32
27.05
26.99
27.27
27.81
28.39
28.74
28.62
27.9
26.52
24.53
22.05
19.25
16.3
13.34
10.4
7.44
4.34
1.03
-2.49
-6.18
-9.93
-13.73
-17.63
-21.8
-26.44
-31.7
-37.57
-43.74
-49.59
-54.21
-56.66
-56.21
-52.62
-46.26
-37.99
-28.92
-20.1
-12.23
-5.59
-0.1
4.53
8.58
12.22
15.49
18.3
20.52
22.08
22.99
23.31
23.18
22.74
22.08
21.29
20.46
19.63
18.8
17.92
16.91
15.69
14.21
12.43
10.34
7.89
5.0
1.66
-2.09
-6.09
-10.11
-13.89
-17.26
-20.21
-22.89
-25.57
-28.6
-32.29
-36.8
-41.99
-47.38
-52.13
-55.23
-55.8
-53.32
-47.85
-40.09
-31.09
-21.97
-13.59
-6.37
-0.33
4.71
8.99
12.58
15.47
17.63
19.12
20.1
20.79
21.35
21.81
22.11
22.12
21.82
21.23
20.51
19.81
19.22
18.67
17.96
16.81
14.98
12.39
9.18
5.57
1.88
-1.71
-5.14
-8.44
-11.7
-14.96
-18.29
-21.8
-25.7
-30.19
-35.34
-40.85
-45.99
-49.74
-51.13
-49.58
-45.13
-38.43
-30.49
-22.3
-14.59
-7.72
-1.71
3.53
8.09
12.01
15.3
17.92
19.88
21.25
22.12
22.64
22.98
23.25
23.49
23.63
23.58
23.25
22.65
21.86
20.98
20.02
18.88
17.37
15.27
12.45
8.95
4.99
0.88
-3.06
-6.63
-9.8
-12.74
-15.7
-19.03
-23.02
-27.86
-33.53
-39.69
-45.63
-50.34
-52.76
-52.11
-48.19
-41.49
-33.09
-24.18
-15.72
-8.2
-1.61
4.31
9.79
14.84
19.32
22.97
25.65
27.41
28.43
28.99
29.34
29.63
29.91
30.16
30.32
30.38
30.31
30.14
29.86
29.39
28.6
27.34
25.49
23.04
20.07
16.75
13.24
9.7
6.2
2.8
-0.49
-3.72
-6.99
-10.45
-14.29
-18.68
-23.72
-29.32
-35.19
-40.75
-45.23
-47.79
-47.78
-44.95
-39.6
-32.46
-24.48
-16.54
-9.21
-2.71
2.95
7.89
12.13
15.63
18.29
20.06
21.02
21.36
21.35
21.2
21.06
20.88
20.54
19.94
19.08
18.04
17.0
16.06
15.16
14.12
12.67
10.6
7.83
4.42
0.59
-3.39
-7.18
-10.4
-12.56
-13.21
-12.02
-8.87
-3.97
2.21
8.98
15.59
21.33
25.66
28.2
28.86
27.82
25.55
22.65
19.82
17.61
16.38
16.18
16.83
17.97
19.16
20.05
20.45
20.36
19.89
19.2
18.38
17.37
16.1
14.5
12.66
10.79
9.13
7.84
6.87
6.03
5.05
3.72
2.03
0.09
-1.89
-3.73
-5.41
-7.06
-8.86
-10.99
-13.47
-16.18
-18.89
-21.4
-23.57
-25.44
-27.14
-28.9
-30.98
-33.63
-37.04
-41.21
-45.86
-50.38
-53.86
-55.32
-54.02
-49.68
-42.66
-33.83
-24.36
-15.4
-7.73
-1.69
2.76
5.85
7.84
8.9
9.16
8.77
8.03
7.28
6.87
6.94
7.45
8.17
8.86
9.33
9.54
9.56
9.42
9.12
8.58
7.7
6.38
4.62
2.46
0.01
-2.61
-5.26
-7.84
-10.35
-12.84
-15.46
-18.4
-21.81
-25.75
-30.02
-34.17
-37.51
-39.33
-39.04
-36.4
-31.61
-25.22
-18.01
-10.71
-3.93
1.93
6.63
10.06
12.21
13.15
13.11
12.44
11.55
10.74
10.18
9.83
9.53
9.14
8.67
8.21
7.92
7.88
8.01
8.03
7.58
6.34
4.16
1.17
-2.31
-5.86
-9.08
-11.82
-14.15
-16.39
-18.95
-22.2
-26.35
-31.31
-36.65
-41.64
-45.38
-47.0
-45.91
-42.04
-35.83
-28.19
-20.19
-12.71
-6.32
-1.14
2.99
6.32
9.07
11.34
13.16
14.56
15.61
16.4
16.99
17.39
17.52
17.32
16.77
15.97
15.1
14.34
13.77
13.31
12.73
11.7
9.94
7.32
3.96
0.14
-3.78
-7.49
-10.87
-14.04
-17.24
-20.83
-25.07
-30.1
-35.77
-41.64
-46.94
-50.75
-52.2
-50.82
-46.67
-40.38
-32.89
-25.21
-18.05
-11.7
-6.1
-1.03
3.7
8.08
12.02
15.37
18.07
20.19
21.88
23.28
24.43
25.28
25.72
25.68
25.18
24.36
23.45
22.61
21.93
21.34
20.64
19.55
17.84
15.35
12.12
8.4
4.55
0.95
-2.19
-4.94
-7.61
-10.64
-14.43
-19.16
-24.73
-30.67
-36.24
-40.55
-42.75
-42.27
-39.02
-33.44
-26.43
-19.01
-11.99
-5.72
-0.14
5.08
10.19
15.21
19.9
23.94
27.12
29.41
30.96
31.97
32.63
32.97
33.0
32.68
32.06
31.24
30.33
29.42
28.53
27.64
26.67
25.54
24.15
22.42
20.3
17.73
14.74
11.42
7.91
4.38
1.01
-2.11
-5.0
-7.82
-10.87
-14.5
-18.99
-24.4
-30.49
-36.65
-41.99
-45.57
-46.6
-44.71
-40.07
-33.37
-25.59
-17.71
-10.45
-4.13
1.33
6.21
10.78
15.11
19.1
22.54
25.22
27.04
28.08
28.48
28.46
28.21
27.83
27.42
27.0
26.55
26.02
25.37
24.53
23.46
22.14
20.52
18.61
16.37
13.82
11.02
8.08
5.12
2.23
-0.56
-3.32
-6.16
-9.23
-12.65
-16.53
-20.95
-25.97
-31.44
-37.0
-41.96
-45.44
-46.64
-45.12
-40.98
-34.85
-27.64
-20.25
-13.27
-6.95
-1.25
3.96
8.77
13.14
16.99
20.19
22.68
24.48
25.68
26.42
26.87
27.16
27.35
27.5
27.61
27.66
27.62
27.41
26.88
25.92
24.49
22.68
20.63
18.52
16.38
14.13
11.57
8.56
5.07
1.28
-2.55
-6.16
-9.42
-12.42
-15.38
-18.58
-22.31
-26.72
-31.86
-37.6
-43.57
-49.17
-53.58
-55.93
-55.56
-52.25
-46.36
-38.73
-30.43
-22.36
-15.03
-8.47
-2.43
3.36
9.02
14.39
19.22
23.28
26.45
28.76
30.33
31.28
31.75
31.83
31.68
31.48
31.43
31.59
31.91
32.2
32.17
31.58
30.33
28.46
26.13
23.59
21.05
18.65
16.38
14.14
11.73
8.95
5.67
1.93
-2.11
-6.18
-10.01
-13.47
-16.61
-19.69
-23.05
-27.06
-31.93
-37.57
-43.56
-49.11
-53.29
-55.19
-54.32
-50.65
-44.7
-37.3
-29.34
-21.52
-14.23
-7.54
-1.33
4.53
10.03
15.02
19.28
22.59
24.86
26.16
26.69
26.76
26.6
26.39
26.17
25.89
25.5
24.99
24.39
23.67
22.79
21.64
20.05
17.9
15.18
11.98
8.42
4.69
0.91
-2.72
-5.93
-8.31
-9.37
-8.67
-6.04
-1.67
3.91
10.0
15.89
21.0
24.98
27.62
28.87
28.82
27.75
26.12
24.44
23.22
22.72
22.94
23.67
24.54
25.22
25.52
25.37
24.82
23.95
22.83
21.55
20.21
18.93
17.85
16.99
16.33
15.71
15.0
14.1
12.99
11.79
10.61
9.56
8.65
7.79
6.89
5.85
4.61
3.17
1.54
-0.22
-2.03
-3.84
-5.63
-7.44
-9.4
-11.63
-14.2
-17.07
-20.07
-22.98
-25.64
-28.06
-30.38
-32.85
-35.69
-39.07
-43.01
-47.39
-51.92
-56.05
-59.11
-60.35
-59.19
-55.39
-49.22
-41.35
-32.71
-24.18
-16.4
-9.67
-3.97
0.83
4.92
8.36
11.17
13.33
14.85
15.88
16.64
17.31
18.0
18.71
19.4
20.08
20.79
21.62
22.54
23.4
23.88
23.65
22.55
20.68
18.35
15.94
13.75
11.89
10.29
8.73
6.99
4.86
2.27
-0.8
-4.21
-7.75
-11.17
-14.24
-16.92
-19.35
-21.87
-24.91
-28.8
-33.57
-38.88
-43.99
-47.99
-49.96
-49.34
-46.06
-40.51
-33.48
-25.84
-18.34
-11.45
-5.36
-0.06
4.57
8.64
12.18
15.23
17.75
19.75
21.23
22.23
22.8
23.02
23.0
22.89
22.84
22.94
23.23
23.62
23.89
23.79
23.07
21.6
19.42
16.71
13.76
10.82
8.02
5.33
2.6
-0.38
-3.68
-7.27
-10.96
-14.54
-17.89
-21.05
-24.23
-27.73
-31.73
-36.25
-41.02
-45.55
-49.21
-51.31
-51.34
-49.0
-44.36
-37.8
-30.01
-21.78
-13.88
-6.85
-0.93
3.9
7.86
11.25
14.3
17.11
19.66
21.83
23.52
24.68
25.33
25.59
25.6
25.51
25.42
25.36
25.29
25.11
24.72
23.97
22.85
21.38
19.67
17.79
15.76
13.46
10.78
7.66
4.17
0.52
-3.03
-6.28
-9.17
-11.85
-14.62
-17.83
-21.76
-26.52
-31.94
-37.55
-42.64
-46.37
-48.01
-47.08
-43.54
-37.82
-30.68
-23.01
-15.62
-9.03
-3.42
1.31
5.36
8.87
11.89
14.34
16.21
17.55
18.54
19.37
20.1
20.67
20.88
20.57
19.7
18.47
17.16
16.03
15.16
14.41
13.48
12.08
10.01
7.27
4.07
0.78
-2.12
-4.12
-4.79
-3.84
-1.23
2.83
7.92
13.48
18.92
23.7
27.37
29.62
30.38
29.8
28.26
26.26
24.24
22.53
21.31
20.61
20.41
20.61
21.07
21.61
22.0
22.05
21.6
20.6
19.13
17.31
15.32
13.33
11.48
9.81
8.31
6.88
5.41
3.79
1.98
0.0
-2.05
-4.09
-6.05
-7.94
-9.87
-12.01
-14.55
-17.51
-20.79
-24.15
-27.3
-30.12
-32.69
-35.33
-38.41
-42.25
-46.94
-52.32
-57.87
-62.87
-66.43
-67.68
-66.01
-61.23
-53.69
-44.27
-34.1
-24.27
-15.56
-8.32
-2.48
2.16
5.91
8.96
11.41
13.33
14.8
15.98
17.04
18.1
19.25
20.44
21.53
22.39
22.87
22.98
22.78
22.41
21.98
21.5
20.82
19.7
17.89
15.22
11.74
7.7
3.48
-0.58
-4.2
-7.36
-10.25
-13.18
-16.53
-20.56
-25.32
-30.53
-35.65
-39.87
-42.36
-42.43
-39.74
-34.48
-27.26
-18.98
-10.61
-2.92
3.62
8.8
12.69
15.44
17.24
18.3
18.82
18.97
18.87
18.61
18.2
17.62
16.88
15.99
15.05
14.22
13.63
13.34
13.26
13.14
12.66
11.52
9.57
6.83
3.53
-0.05
-3.58
-6.93
-10.1
-13.3
-16.88
-21.12
-26.09
-31.44
-36.41
-39.99
-41.21
-39.47
-34.82
-27.89
-19.7
-11.34
-3.61
3.01
8.44
12.76
16.1
18.52
20.11
20.96
21.21
21.05
20.67
20.15
19.57
18.92
18.21
17.46
16.73
16.02
15.31
14.5
13.45
11.95
9.86
7.09
3.71
-0.06
-3.9
-7.51
-10.74
-13.7
-16.74
-20.35
-24.9
-30.49
-36.8
-43.07
-48.31
-51.47
-51.81
-49.06
-43.55
-36.08
-27.66
-19.25
-11.47
-4.58
1.44
6.71
11.28
15.15
18.25
20.58
22.22
23.33
24.1
24.68
25.14
25.48
25.61
25.47
25.02
24.3
23.36
22.25
20.93
19.32
17.27
14.67
11.53
7.97
4.21
0.53
-2.88
-5.95
-8.76
-11.57
-14.75
-18.67
-23.59
-29.52
-36.1
-42.59
-48.01
-51.39
-51.94
-49.38
-43.98
-36.48
-27.87
-19.09
-10.84
-3.42
3.13
8.94
14.08
