-29.64
-20.8
-10.12
0.74
10.28
17.56
22.25
24.58
25.0
23.96
21.82
18.88
15.57
12.38
9.86
8.4
8.08
8.6
9.38
9.83
9.57
8.51
6.89
5.01
3.1
1.14
-1.05
-3.6
-6.48
-9.43
-12.11
-14.28
-15.99
-17.57
-19.51
-22.25
-25.94
-30.39
-35.01
-38.93
-41.13
-40.69
-37.04
-30.21
-20.92
-10.36
0.07
9.17
16.22
20.98
23.63
24.52
24.07
22.68
20.8
18.92
17.47
16.79
16.94
17.69
18.64
19.33
19.41
18.77
17.48
15.82
14.06
12.34
10.68
8.9
6.8
4.29
1.41
-1.6
-4.45
-6.9
-8.93
-10.77
-12.82
-15.56
-19.33
-24.16
-29.68
-35.0
-38.95
-40.29
-38.1
-32.1
-22.87
-11.65
0.0
10.63
19.27
25.46
29.31
31.12
31.31
30.22
28.18
25.5
22.55
19.73
17.45
16.02
15.5
15.78
16.57
17.54
18.48
19.3
20.05
20.78
21.43
21.75
21.34
19.73
16.68
12.24
6.9
1.44
-3.33
-6.86
-9.04
-10.15
-10.66
-11.01
-11.34
-11.57
-11.47
-10.64
-8.48
-4.32
2.43
12.05
24.48
39.18
55.27
71.48
86.47
99.02
108.12
113.07
113.55
109.74
102.42
92.86
82.32
72.13
63.44
56.98
52.74
49.95
47.46
44.14
39.35
32.29
23.08
12.75
2.74
-5.93
-13.07
-19.1
-24.6
-29.92
-36.7
-45.6
-56.08
-66.86
-77.17
-87.35
-98.45
-111.59
-127.31
-148.06
-174.38
-204.29
-234.09
-260.44
-281.64
-297.46
-308.67
-316.31
-324.74
-336.4
-350.42
-363.09
-370.61
-370.93
-364.08
-351.93
-315.31
-248.24
-159.47
-67.66
11.31
70.8
111.46
137.31
152.88
162.61
167.16
168.13
168.05
171.94
182.94
200.69
221.78
240.94
253.17
253.01
239.36
215.95
189.57
166.11
147.03
131.96
119.02
106.75
93.68
80.89
71.28
67.74
70.67
77.63
84.91
89.25
89.22
84.44
75.72
64.21
50.9
36.34
21.02
5.97
-7.53
-18.45
-26.78
-33.08
-37.82
-40.59
-40.09
-34.71
-23.38
-6.73
12.85
31.79
46.59
54.9
56.18
51.59
43.4
34.16
25.91
19.84
16.27
14.63
13.7
11.91
7.88
0.92
-8.68
-19.99
-31.98
-44.14
-56.46
-68.98
-81.08
-91.17
-97.14
-97.34
-91.53
-81.2
-68.94
-57.29
-47.75
-40.46
-34.69
-29.58
-24.74
-20.24
-16.21
-12.35
-7.76
-1.24
8.13
20.5
35.11
50.53
65.11
77.45
86.62
92.14
93.92
92.1
86.92
78.54
67.09
52.52
34.86
14.39
-8.06
-31.05
-52.82
-71.64
-86.32
-96.45
-102.38
-105.02
-105.37
-104.25
-102.01
-98.53
-93.3
-85.77
-75.62
-63.05
-48.78
-33.9
-19.54
-6.55
4.57
13.64
20.62
25.47
28.17
28.86
27.99
26.26
24.46
23.15
22.49
22.22
21.79
20.66
18.54
15.48
11.78
7.82
3.93
0.21
-3.45
-7.26
-11.39
-15.81
-20.29
-24.44
-27.9
-30.44
-32.1
-33.13
-34.0
-35.25
-37.37
-40.62
-44.84
-49.38
-53.18
-55.0
-53.94
-49.65
-42.52
-33.5
-23.72
-14.21
-5.65
1.54
7.09
10.86
12.94
13.72
14.08
15.11
17.83
22.88
30.33
39.84
50.86
62.83
75.14
87.07
97.71
106.07
111.36
113.17
111.56
106.85
99.25
88.75
75.17
58.56
39.55
19.55
0.47
-15.85
-28.3
-36.84
-42.31
-45.94
-48.59
-50.34
-50.47
-47.97
-42.19
-33.38
-22.68
-11.75
-2.13
5.24
10.22
13.17
14.66
15.08
14.6
13.28
11.34
9.18
7.37
6.4
6.55
7.67
9.35
11.02
12.25
12.85
12.96
12.91
12.97
13.18
13.2
12.48
10.52
7.13
2.66
-2.2
-6.63
-10.08
-12.48
-14.23
-16.0
-18.47
-22.05
-26.76
-32.14
-37.29
-41.01
-42.09
-39.67
-33.58
-24.46
-13.55
-2.31
8.0
16.7
23.6
28.9
32.85
35.59
37.12
37.43
36.64
35.01
32.92
30.68
28.42
26.05
23.31
19.95
15.91
11.38
6.64
1.96
-2.56
-7.1
-11.91
-17.18
-22.86
-28.59
-33.81
-38.0
-40.88
-42.52
-43.3
-43.84
-44.77
-46.58
-49.52
-53.42
-57.58
-60.91
-62.11
-60.06
-54.2
-44.85
-33.03
-20.28
-8.03
2.66
11.34
18.02
22.91
26.21
28.11
28.81
28.7
28.32
28.29
29.02
30.62
32.78
34.99
36.76
37.81
38.17
38.1
37.82
37.39
36.62
35.16
32.68
29.1
24.56
19.47
14.3
9.5
5.29
1.68
-1.54
-4.77
-8.5
-13.19
-19.04
-25.81
-32.68
-38.38
-41.5
-40.97
-36.41
-28.39
-18.23
-7.53
2.28
10.34
16.31
20.34
22.68
23.6
23.32
22.13
20.46
18.87
17.85
17.68
18.31
19.38
20.39
20.93
20.81
20.09
19.0
17.75
16.45
15.04
13.3
11.04
8.15
4.66
0.77
-3.19
-6.93
-10.24
-13.13
-15.85
-18.81
-22.49
-27.16
-32.71
-38.45
-43.26
-45.79
-44.96
-40.36
-32.44
-22.37
-11.66
-1.69
6.67
13.02
17.37
19.88
20.75
20.24
18.74
16.77
14.93
13.7
13.31
13.71
14.57
15.54
16.3
16.65
16.54
15.94
14.85
13.18
10.89
7.97
4.51
0.72
-3.15
-6.89
-10.39
-13.72
-17.1
-20.86
-25.29
-30.46
-36.08
-41.36
-45.16
-46.32
-44.02
-38.18
-29.5
-19.23
-8.8
0.67
8.52
14.58
18.87
21.52
22.64
22.42
21.21
19.53
17.94
16.86
16.47
16.72
17.35
18.09
18.71
19.01
18.82
17.98
16.35
13.8
10.34
6.11
1.36
-3.55
-8.29
-12.64
-16.53
-20.16
-23.96
-28.47
-34.12
-40.99
-48.5
-55.45
-60.28
-61.59
-58.69
-51.94
-42.63
-32.55
-23.27
-15.7
-10.04
-5.99
-3.24
-1.77
-1.8
-3.58
-7.05
-11.68
-16.65
-21.2
-24.91
-27.82
-30.25
-32.52
-34.64
-36.47
-37.74
-38.29
-37.86
-35.76
-30.66
-20.9
-5.38
15.33
38.38
59.21
73.06
76.82
70.38
56.57
39.89
24.7
13.74
7.56
5.14
4.99
6.06
8.0
10.88
14.84
20.29
28.62
42.8
66.97
104.66
156.24
217.1
277.94
327.52
356.78
362.23
346.87
318.23
284.58
251.77
221.82
193.85
166.01
137.02
106.47
74.07
38.94
-0.25
-44.13
-91.36
-138.23
-179.53
-210.44
-228.49
-234.53
-232.13
-226.07
-220.38
-217.04
-215.73
-214.42
-210.6
-202.3
-188.73
-170.42
-148.84
-125.86
-103.19
-81.99
-62.79
-45.68
-30.56
-17.24
-5.61
4.42
12.8
19.27
23.37
24.52
22.42
17.41
10.59
3.67
-1.58
-3.9
-3.04
0.09
3.71
5.8
4.82
0.24
-7.42
-16.99
-27.14
-36.75
-44.93
-50.95
-54.06
-53.76
-50.17
-44.33
-38.12
-33.63
-32.27
-34.09
-37.65
-40.49
-40.09
-34.69
-23.82
-8.23
10.4
30.06
48.8
65.01
77.7
86.4
91.19
92.57
91.28
88.26
84.5
80.93
78.24
76.7
76.03
75.54
74.32
71.57
66.87
60.34
52.56
44.26
36.08
28.35
21.11
14.22
7.5
0.87
-5.69
-12.18
-18.68
-25.26
-31.85
-38.02
-42.95
-45.57
-44.9
-40.64
-33.28
-24.06
-14.63
-6.39
-0.19
3.86
6.24
7.59
8.42
8.94
9.06
8.68
7.85
6.82
6.0
5.74
6.11
6.85
7.51
7.63
7.01
5.73
4.08
2.34
0.59
-1.33
-3.63
-6.45
-9.69
-13.07
-16.34
-19.5
-22.83
-26.64
-30.94
-35.11
-37.91
-37.9
-34.01
-26.16
-15.31
-3.09
8.79
19.22
27.9
35.19
41.68
47.79
53.58
58.85
63.41
67.19
70.37
73.25
76.14
79.24
82.61
86.13
89.52
92.39
94.19
94.32
92.13
87.05
78.71
67.15
52.8
36.58
19.63
3.02
-12.52
-26.76
-39.77
-51.65
-62.11
-70.36
-75.37
-76.29
-73.0
-66.27
-57.54
-48.43
-40.19
-33.43
-28.18
-24.19
-21.22
-19.23
-18.29
-18.4
-19.35
-20.68
-21.77
-22.1
-21.39
-19.76
-17.65
-15.71
-14.56
-14.56
-15.71
-17.7
-20.06
-22.32
-24.2
-25.67
-26.82
-27.85
-28.98
-30.45
-32.54
-35.39
-38.91
-42.49
-45.11
-45.49
-42.59
-36.1
-26.64
-15.63
-4.78
4.44
11.29
15.78
18.36
19.59
19.87
19.37
18.19
16.51
14.7
13.2
12.37
12.36
13.02
13.96
14.68
14.74
13.91
12.17
9.74
6.9
3.92
0.93
-2.1
-5.33
-8.98
-13.28
-18.42
-24.48
-31.44
-38.97
-46.41
-52.76
-56.83
-57.61
-54.63
-48.16
-39.17
-29.05
-19.15
-10.47
-3.5
1.73
5.41
7.84
9.21
9.73
9.56
8.88
7.88
6.73
5.55
4.39
3.3
2.3
1.39
0.48
-0.63
-2.22
-4.54
-7.7
-11.62
-15.98
-20.44
-24.68
-28.57
-32.15
-35.55
-39.0
-42.76
-47.1
-52.11
-57.51
-62.49
-65.73
-65.73
-61.36
-52.37
-39.57
-24.71
-9.83
3.32
13.76
21.34
26.51
29.95
32.25
33.79
34.87
35.77
36.84
38.4
40.66
43.5
46.53
49.23
51.13
52.03
52.05
51.56
50.95
50.39
49.71
48.4
45.78
41.27
34.63
26.11
16.4
6.45
-2.82
-10.72
-17.01
-21.83
-25.58
-28.76
-31.81
-34.99
-38.27
-41.33
-43.56
-44.18
-42.54
-38.35
-31.92
-24.07
-15.89
-8.38
-2.06
3.05
7.36
11.34
15.38
19.5
23.54
27.22
30.34
32.84
34.67
35.81
36.19
35.74
34.4
32.26
29.45
26.17
22.63
19.03
15.59
12.56
10.11
8.32
7.07
6.05
4.84
3.1
0.63
-2.44
-5.76
-8.74
-10.83
-11.57
-10.85
-8.97
-6.57
-4.57
-3.88
-5.19
-8.76
-14.35
-21.16
-28.08
-33.87
-37.45
-38.14
-35.76
-30.56
-23.09
-13.95
-3.73
6.97
17.5
26.99
34.45
38.93
39.84
37.22
31.78
24.81
17.76
11.84
7.71
5.36
4.33
3.98
3.83
3.68
3.52
3.38
3.15
2.56
1.31
-0.78
-3.65
-7.02
-10.48
-13.66
-16.25
-17.97
-18.56
-17.75
-15.33
-11.35
-6.22
-0.67
4.36
8.02
9.76
9.45
7.45
4.44
1.24
-1.41
-2.96
-3.21
-2.25
-0.43
1.8
3.98
5.72
6.75
6.91
6.17
4.61
2.45
-0.01
-2.42
-4.48
-6.01
-6.96
-7.4
-7.44
-7.28
-7.13
-7.19
-7.65
-8.61
-10.03
-11.73
-13.44
-14.97
-16.27
-17.51
-19.0
-21.06
-23.8
-27.11
-30.69
-34.13
-37.15
-39.64
-41.75
-43.8
-46.26
-49.51
-53.71
-58.61
-63.44
-67.0
-67.93
-65.16
-58.32
-47.92
-35.28
-22.11
-10.01
-0.12
7.08
11.65
13.96
14.55
13.95
12.65
11.12
9.75
8.81
8.39
8.38
8.5
8.42
7.9
6.89
5.59
4.35
3.52
3.23
3.27
3.17
2.33
0.3
-3.04
-7.39
-12.2
-16.84
-20.92
-24.37
-27.45
-30.68
-34.61
-39.56
-45.48
-51.87
-57.77
-62.03
-63.59
-61.77
-56.54
-48.51
-38.75
-28.48
-18.78
-10.4
-3.72
1.19
4.46
6.38
7.35
7.73
7.85
7.87
7.85
7.73
7.45
7.01
6.42
5.77
5.1
4.41
3.66
2.82
1.89
0.79
-0.51
-2.09
-4.04
-6.38
-9.11
-12.2
-15.66
-19.51
-23.89
-29.03
-35.18
-42.51
-50.88
-59.6
-67.47
-72.92
-74.49
-71.34
-63.58
-52.27
-39.1
-25.8
-13.64
-3.19
5.58
13.04
19.51
25.14
29.9
33.72
36.63
38.75
40.33
41.55
42.44
42.97
43.02
42.63
41.94
41.19
40.52
39.83
38.8
36.93
33.84
29.46
24.05
18.16
12.34
6.95
1.96
-3.0
-8.52
-15.14
-23.17
-32.47
-42.31
-51.41
-58.16
-60.98
-58.83
-51.57
-40.07
-25.97
-11.13
2.88
15.14
25.43
34.0
41.23
47.36
52.46
56.5
59.47
61.51
62.85
63.7
64.19
64.33
64.02
63.23
62.02
60.56
59.02
57.44
55.64
53.26
49.9
45.36
39.76
33.54
27.31
21.58
16.52
11.89
7.08
1.35
-5.93
-14.9
-25.04
-35.12
-43.37
-47.99
-47.75
-42.44
-33.06
-21.49
-9.89
-0.03
7.19
11.75
14.29
15.69
16.68
17.71
18.92
20.32
21.89
23.69
25.85
28.55
31.89
35.79
39.89
43.56
46.0
46.5
44.65
40.49
34.52
27.55
20.43
13.9
8.42
4.15
0.93
-1.71
-4.55
-8.49
-14.29
-22.16
-31.43
-40.49
-47.3
-49.94
-47.43
-40.1
-29.44
-17.51
-6.23
3.28
10.81
16.89
22.16
27.08
31.63
35.53
38.49
40.45
41.61
42.33
42.86
43.25
43.3
42.74
41.47
39.59
37.48
35.53
33.91
32.44
30.61
27.75
23.44
17.65
10.91
4.1
-1.93
-6.69
-10.21
-13.02
-15.88
-19.52
-24.38
-30.53
-37.64
-44.98
-51.46
-55.8
-56.81
-53.76
-46.68
-36.47
-24.61
-12.73
-2.04
6.95
14.41
20.86
26.74
32.13
36.75
40.18
42.16
42.82
42.63
42.18
41.91
41.92
42.01
41.79
40.99
39.55
37.68
35.66
33.71
31.84
29.83
27.36
24.19
20.24
15.73
11.06
6.81
3.51
1.67
1.63
3.55
7.36
12.7
18.98
25.39
31.08
35.25
37.39
37.35
35.36
31.96
27.92
23.98
20.78
18.66
17.66
17.55
17.92
18.34
18.47
18.11
17.26
16.0
14.47
12.79
11.05
9.29
7.54
5.8
4.07
2.38
0.73
-0.86
-2.41
-3.97
-5.62
-7.4
-9.26
-11.14
-12.9
-14.53
-16.13
-17.91
-20.07
-22.72
-25.8
-29.09
-32.42
-35.65
-38.78
-41.96
-45.37
-49.31
-54.0
-59.6
-65.93
-72.34
-77.65
-80.39
-79.2
-73.41
-63.37
-50.36
-36.28
-23.01
-11.91
-3.49
2.43
6.47
9.28
11.28
12.65
13.44
13.74
13.75
13.79
14.1
14.74
15.57
16.24
16.48
16.09
15.13
13.78
12.28
10.78
9.33
7.89
6.31
4.48
2.26
-0.38
-3.36
-6.48
-9.48
-12.16
-14.43
-16.41
-18.39
-20.75
-23.83
-27.82
-32.71
-38.17
-43.52
-47.86
-50.11
-49.41
-45.38
-38.38
-29.42
-19.87
-11.04
-3.76
1.7
5.57
8.27
10.15
11.37
11.96
11.9
11.28
10.28
9.04
7.65
6.07
4.25
2.17
-0.13
-2.59
-5.15
-7.88
-10.95
-14.55
-18.75
-23.49
-28.53
-33.52
-38.14
-42.25
-45.89
-49.36
-53.05
-57.37
-62.62
-68.85
-75.78
-82.77
-88.93
-93.27
-94.96
-93.54
-89.07
-82.11
-73.63
-64.7
-56.25
-48.85
-42.62
-37.33
-32.64
-28.27
-24.17
-20.54
-17.68
-15.85
-15.15
-15.59
-17.14
-19.78
-23.42
-27.76
-32.16
-35.64
-37.16
-36.08
-32.45
-27.16
-21.59
-16.97
-13.82
-11.7
-9.51
-6.17
-1.25
4.71
10.29
13.87
14.3
11.47
6.39
0.85
-3.25
-4.53
-2.72
1.46
6.62
11.49
15.54
19.16
23.45
29.44
37.45
46.83
56.15
63.93
69.29
72.19
73.31
73.62
73.94
74.69
75.99
77.74
79.78
81.84
83.45
83.94
82.5
78.43
71.39
61.56
49.6
36.54
23.51
11.55
1.47
-6.15
-11.03
-13.18
-12.91
-10.81
-7.71
-4.46
-1.73
0.11
1.02
1.16
0.72
-0.36
-2.34
-5.61
-10.33
-16.17
-22.21
-27.12
-29.59
-28.8
-24.73
-18.08
-9.94
-1.37
6.98
14.83
22.21
29.11
35.43
40.91
45.29
48.31
49.88
49.87
48.23
44.84
39.64
32.67
24.18
14.63
4.67
-4.95
-13.5
-20.47
-25.66
-29.28
-31.83
-33.9
-35.86
-37.6
-38.53
-37.77
-34.56
-28.73
-20.82
-11.99
-3.55
3.54
9.02
13.23
16.92
20.74
25.05
29.81
34.78
39.52
43.62
46.7
48.47
48.86
48.08
46.6
45.04
44.0
43.83
44.57
46.02
47.74
49.22
49.94
49.44
47.43
43.89
39.15
33.84
28.73
24.49
21.46
19.61
18.51
17.48
15.74
12.66
7.95
1.84
-4.77
-10.45
-13.53
-12.55
-6.76
3.65
17.53
33.09
48.36
61.65
71.81
78.39
81.51
81.73
79.81
76.46
72.23
67.46
62.38
57.06
51.56
45.87
39.93
33.69
27.2
20.69
14.52
9.04
4.36
0.21
-4.02
-9.02
-15.3
-22.97
-31.65
-40.63
-48.93
-55.57
-59.64
-60.48
-57.84
-51.98
-43.7
-34.23
-24.85
-16.67
-10.39
-6.22
-4.0
-3.32
-3.64
-4.38
-5.01
-5.1
-4.48
-3.22
-1.62
-0.06
1.19
2.03
2.49
2.69
2.65
2.32
1.57
0.39
-1.15
-2.83
-4.4
-5.65
-6.54
-7.17
-7.78
-8.67
-10.15
-12.4
-15.5
-19.35
-23.73
-28.36
-32.96
-37.32
-41.36
-45.13
-48.84
-52.84
-57.45
-62.77
-68.53
-73.95
-77.84
-78.97
-76.4
-69.85
-59.82
-47.4
-34.01
-20.98
-9.31
0.48
8.22
13.97
17.84
19.95
20.54
20.04
19.14
18.59
18.99
20.57
23.01
25.71
27.96
29.35
29.81
29.61
29.07
28.4
27.57
26.36
24.5
21.87
18.57
14.93
11.29
7.9
4.73
1.52
-2.12
-6.47
-11.62
-17.42
-23.5
-29.3
-34.13
-37.18
-37.63
-34.93
-28.93
-20.12
-9.48
1.72
12.19
20.92
27.27
31.05
32.43
31.85
29.97
27.5
25.11
23.26
22.16
21.78
21.95
22.32
22.6
22.53
21.98
20.93
19.45
17.63
15.48
12.85
9.57
5.45
0.46
-5.22
-11.23
-17.14
-22.59
-27.46
-31.9
-36.25
-40.89
-45.86
-50.76
-54.68
-56.5
-55.22
-50.41
-42.44
-32.4
-21.79
-12.05
-4.2
1.35
4.67
6.1
6.0
4.63
2.28
-0.67
-3.63
-5.92
-6.98
-6.54
-4.77
-2.14
0.71
3.24
5.09
6.08
6.15
5.28
3.46
0.79
-2.54
-6.17
-9.71
-12.84
-15.4
-17.55
-19.65
-22.16
-25.33
-28.95
-32.3
-34.21
-33.52
-29.48
-22.15
-12.4
-1.64
8.62
17.21
23.53
27.53
29.51
29.86
28.95
27.08
24.59
21.91
19.51
17.81
17.03
17.1
17.68
18.31
18.54
18.07
16.82
14.86
12.35
9.45
6.29
2.91
-0.73
-4.78
-9.42
-14.89
-21.33
-28.6
-36.13
-42.89
-47.59
-49.02
-46.53
-40.31
-31.4
-21.31
-11.48
-2.86
4.19
9.75
13.89
16.53
17.41
16.34
13.51
9.62
5.65
2.57
0.97
0.86
1.81
3.07
3.96
4.0
3.1
1.45
-0.57
-2.57
-4.38
-6.07
-7.96
-10.46
-13.93
-18.54
-24.18
-30.48
-36.77
-42.18
-45.75
-46.55
-43.99
-38.01
-29.21
-18.76
-8.09
1.49
9.12
14.49
17.7
19.04
18.81
17.26
14.67
11.51
8.34
5.82
4.4
4.22
5.03
6.27
7.31
7.62
7.0
5.55
3.54
1.32
-0.93
-3.27
-6.01
-9.53
-14.06
-19.58
-25.64
-31.43
