4.19
1.77
-0.51
-2.49
-4.26
-6.1
-8.33
-11.26
-14.97
-19.35
-24.0
-28.39
-31.93
-34.11
-34.58
-33.25
-30.21
-25.66
-19.87
-13.17
-5.98
1.19
7.76
13.17
17.07
19.33
20.01
19.31
17.42
14.52
10.82
6.6
2.29
-1.55
-4.41
-5.94
-6.14
-5.4
-4.45
-4.28
-5.8
-9.66
-16.05
-24.59
-34.42
-44.33
-53.0
-59.12
-61.57
-59.69
-53.35
-43.12
-30.24
-16.44
-3.59
6.63
13.13
15.48
13.91
9.19
2.51
-4.7
-10.91
-14.69
-15.07
-11.81
-5.55
2.25
9.82
15.59
18.84
19.75
19.28
18.59
18.52
19.33
20.73
22.28
23.71
25.07
26.67
28.76
31.32
33.99
36.16
37.21
36.7
34.53
30.93
26.44
21.7
17.22
13.2
9.43
5.45
0.81
-4.66
-10.72
-16.85
-22.42
-27.07
-30.76
-33.77
-36.45
-39.04
-41.48
-43.42
-44.35
-43.7
-41.02
-36.08
-29.06
-20.48
-11.27
-2.47
4.94
10.33
13.6
15.12
15.54
15.54
15.62
16.03
16.81
17.83
18.89
19.79
20.35
20.49
20.26
19.83
19.43
19.23
19.33
19.7
20.17
20.54
20.52
19.85
18.31
15.81
12.43
8.49
4.38
0.47
-3.11
-6.4
-9.62
-13.01
-16.64
-20.41
-24.18
-27.79
-31.14
-34.11
-36.41
-37.58
-37.02
-34.27
-29.27
-22.49
-14.8
-7.18
-0.42
5.14
9.54
13.04
15.89
18.14
19.7
20.44
20.32
19.54
18.45
17.52
17.16
17.52
18.49
19.72
20.8
21.39
21.38
20.87
20.07
19.12
18.0
16.58
14.71
12.38
9.75
7.07
4.52
2.12
-0.37
-3.24
-6.69
-10.74
-15.2
-19.82
-24.39
-28.87
-33.22
-37.31
-40.69
-42.68
-42.5
-39.58
-33.84
-25.77
-16.36
-6.74
2.06
9.39
15.06
19.27
22.31
24.44
25.67
25.85
24.86
22.84
20.35
18.21
17.17
17.55
19.04
20.84
22.09
22.29
21.5
20.19
18.86
17.75
16.68
15.33
13.5
11.31
9.11
7.25
5.74
4.28
2.37
-0.39
-4.0
-8.12
-12.19
-15.7
-18.5
-20.82
-23.05
-25.53
-28.24
-30.65
-31.85
-30.91
-27.21
-20.83
-12.58
-3.68
4.63
11.52
16.75
20.53
23.19
24.97
25.9
25.86
24.86
23.09
20.93
18.8
17.01
15.65
14.66
13.89
13.25
12.69
12.24
11.87
11.5
11.01
10.31
9.35
8.2
6.87
5.34
3.47
1.14
-1.69
-4.89
-8.22
-11.43
-14.36
-17.01
-19.47
-21.87
-24.3
-26.84
-29.56
-32.5
-35.6
-38.5
-40.56
-40.96
-39.07
-34.7
-28.3
-20.8
-13.31
-6.68
-1.38
2.53
5.2
6.79
7.37
7.04
6.09
4.94
4.11
4.0
4.72
6.0
7.45
8.68
9.51
10.03
10.49
11.08
11.87
12.61
12.93
12.42
10.87
8.34
5.17
1.87
-1.12
-3.53
-5.32
-6.7
-7.97
-9.5
-11.53
-14.16
-17.19
-20.1
-22.14
-22.54
-20.8
-16.89
-11.29
-4.83
1.64
7.47
12.38
16.28
19.11
20.72
20.91
19.64
17.18
14.1
11.14
8.88
7.52
6.86
6.46
5.93
5.11
4.17
3.42
3.11
3.24
3.5
3.42
2.58
0.8
-1.82
-4.87
-7.92
-10.6
-12.82
-14.71
-16.63
-18.96
-22.0
-25.85
-30.3
-34.85
-38.76
-41.16
-41.28
-38.71
-33.54
-26.38
-18.2
-10.02
-2.67
3.4
8.1
11.46
13.51
14.23
13.63
11.96
9.71
7.59
6.27
6.08
6.91
8.25
9.51
10.29
10.54
10.53
10.57
10.75
10.85
10.44
9.18
6.96
4.04
0.8
-2.34
-5.21
-7.87
-10.53
-13.42
-16.69
-20.42
-24.62
-29.12
-33.49
-37.01
-38.78
-38.05
-34.55
-28.67
-21.38
-13.87
-7.03
-1.27
3.49
7.55
11.02
13.72
15.26
15.41
14.29
12.49
10.75
9.68
9.45
9.87
10.49
10.95
11.13
11.16
11.23
11.4
11.52
11.27
10.37
8.63
6.12
3.08
-0.17
-3.29
-6.12
-8.57
-10.73
-12.77
-14.92
-17.44
-20.56
-24.38
-28.68
-32.88
-36.05
-37.2
-35.58
-31.1
-24.31
-16.32
-8.31
-1.16
4.75
9.48
13.21
16.0
17.67
18.0
16.94
14.85
12.47
10.64
9.95
10.55
12.07
13.89
15.38
16.18
16.25
15.83
15.18
14.46
13.58
12.32
10.4
7.72
4.42
0.87
-2.48
-5.27
-7.37
-8.98
-10.45
-12.18
-14.48
-17.47
-21.12
-25.23
-29.42
-33.08
-35.4
-35.55
-32.98
-27.69
-20.3
-11.82
-3.35
4.28
10.61
15.5
18.91
20.82
21.26
20.39
18.6
16.49
14.66
13.57
13.37
13.97
15.05
16.25
17.22
17.71
17.67
17.22
16.54
15.84
15.15
14.34
13.16
11.42
9.03
6.12
2.95
-0.16
-2.99
-5.48
-7.67
-9.7
-11.76
-14.05
-16.74
-19.95
-23.66
-27.53
-30.95
-33.07
-33.04
-30.34
-24.99
-17.59
-9.14
-0.73
6.76
12.76
16.98
19.36
19.99
19.12
17.2
14.88
12.86
11.74
11.85
13.17
15.39
17.98
20.35
22.03
22.76
22.54
21.6
20.31
18.99
17.75
16.49
14.9
12.67
9.68
6.03
2.12
-1.59
-4.72
-7.14
-9.06
-10.84
-12.92
-15.62
-19.09
-23.25
-27.79
-32.15
-35.58
-37.26
-36.54
-33.21
-27.57
-20.39
-12.67
-5.33
1.0
6.08
9.86
12.41
13.84
14.26
13.88
13.0
12.02
11.3
11.13
11.55
12.45
13.5
14.34
14.72
14.62
14.23
13.88
13.75
13.73
13.48
12.53
10.64
7.88
4.69
1.64
-0.88
-2.77
-4.24
-5.62
-7.21
-9.11
-11.35
-13.92
-16.8
-19.87
-22.78
-24.88
-25.35
-23.53
-19.25
-12.94
-5.48
2.07
8.83
14.33
18.44
21.16
22.5
22.43
21.08
18.83
16.39
14.57
14.0
14.84
16.7
18.85
20.58
21.47
21.54
21.07
20.39
19.59
18.53
16.92
14.53
11.34
7.59
3.62
-0.2
-3.68
-6.73
-9.44
-11.93
-14.43
-17.14
-20.24
-23.68
-27.1
-29.83
-31.04
-30.05
-26.65
-21.23
-14.61
-7.8
-1.6
3.57
7.66
10.8
13.01
14.2
14.25
13.19
11.37
9.39
7.9
7.29
7.57
8.37
9.14
9.48
9.26
8.68
8.04
7.62
7.43
7.28
6.82
5.73
3.85
1.21
-2.0
-5.47
-8.86
-11.91
-14.43
-16.41
-18.03
-19.61
-21.54
-24.13
-27.47
-31.26
-34.81
-37.15
-37.3
-34.62
-29.09
-21.39
-12.65
-4.13
3.27
9.12
13.54
16.83
19.24
20.8
21.35
20.81
19.32
17.34
15.47
14.28
14.02
14.57
15.49
16.28
16.61
16.36
15.68
14.75
13.69
12.49
11.05
9.24
7.03
4.5
1.83
-0.79
-3.17
-5.23
-6.99
-8.61
-10.35
-12.46
-15.14
-18.47
-22.44
-26.9
-31.49
-35.62
-38.47
-39.12
-36.9
-31.64
-23.91
-14.86
-5.82
2.09
8.36
13.01
16.41
18.91
20.63
21.46
21.27
20.13
18.43
16.76
15.66
15.44
15.96
16.75
17.27
17.11
16.24
14.94
13.7
12.92
12.72
12.9
13.0
12.49
11.01
8.49
5.2
1.62
-1.76
-4.59
-6.83
-8.66
-10.44
-12.49
-15.07
-18.27
-22.15
-26.65
-31.51
-36.18
-39.78
-41.3
-39.95
-35.52
-28.55
-20.18
-11.69
-4.1
2.1
6.95
10.74
13.7
15.88
17.18
17.52
17.03
16.05
15.07
14.54
14.7
15.54
16.82
18.18
19.24
19.74
19.56
18.78
17.56
16.07
14.47
12.79
10.99
9.02
6.83
4.39
1.73
-1.08
-3.97
-6.8
-9.48
-11.95
-14.24
-16.48
-18.91
-21.75
-25.12
-28.91
-32.65
-35.6
-36.88
-35.78
-32.04
-25.94
-18.23
-9.89
-1.85
5.28
11.21
15.84
19.13
21.03
21.5
20.64
18.81
16.6
14.72
13.71
13.86
15.04
16.81
18.61
19.97
20.64
20.7
20.43
20.16
20.03
20.02
19.86
19.16
17.55
14.83
11.09
6.67
2.07
-2.21
-5.83
-8.63
-10.71
-12.27
-13.64
-15.18
-17.24
-20.02
-23.33
-26.57
-28.78
-28.95
-26.42
-21.17
-13.89
-5.69
2.28
9.15
14.51
18.31
20.64
21.64
21.4
20.07
17.92
15.42
13.09
11.4
10.57
10.53
10.91
11.34
11.53
11.5
11.46
11.66
12.16
12.69
12.77
11.98
10.13
7.45
4.45
1.65
-0.6
-2.28
-3.57
-4.77
-6.16
-8.04
-10.67
-14.24
-18.72
-23.61
-27.96
-30.57
-30.41
-27.03
-20.79
-12.69
-4.01
4.12
10.96
16.21
19.82
21.88
22.47
21.74
19.94
17.5
14.98
12.96
11.83
11.67
12.25
13.09
13.74
13.92
13.7
13.32
13.01
12.74
12.14
10.66
7.81
3.45
-2.12
-8.23
-14.14
-19.21
-23.17
-26.1
-28.31
-30.2
-32.15
-34.39
-36.99
-39.77
-42.26
-43.81
-43.63
-41.11
-36.02
-28.65
-19.79
-10.47
-1.68
5.85
11.72
15.8
18.15
18.93
18.44
17.12
15.51
14.14
13.37
13.3
13.78
14.45
14.98
15.15
14.94
14.47
13.89
13.28
12.56
11.48
9.78
7.29
4.07
0.47
-2.95
-5.6
-7.09
-7.4
-6.86
-6.03
-5.58
-6.03
-7.71
-10.77
-15.17
-20.55
-26.23
-31.12
-34.03
-33.97
-30.59
-24.33
-16.27
-7.7
0.36
7.33
13.13
17.87
21.63
24.3
25.76
25.99
25.23
24.0
22.91
22.41
22.71
23.6
24.7
25.51
25.71
25.25
24.32
23.19
22.11
21.09
19.93
18.32
16.05
13.15
9.85
6.52
3.47
0.85
-1.4
-3.5
-5.64
-7.97
-10.62
-13.71
-17.36
-21.61
-26.26
-30.75
-34.15
-35.44
-33.85
-29.17
-21.91
-13.14
-4.13
4.06
10.82
16.04
19.95
22.82
24.83
26.03
26.47
26.33
26.01
26.0
26.64
27.95
29.59
31.0
31.74
31.66
31.08
30.54
30.52
31.28
32.71
34.51
36.28
37.69
38.54
38.81
38.64
38.31
38.17
38.42
38.95
39.27
38.69
36.67
33.09
28.39
23.37
18.94
15.92
14.93
16.45
20.74
27.7
36.73
46.79
56.66
65.3
72.11
76.97
80.11
81.81
82.43
82.42
82.5
83.59
86.5
91.63
98.72
106.96
115.41
123.27
130.13
135.97
140.97
145.41
149.6
153.82
158.21
162.64
166.49
168.71
168.02
163.32
154.03
140.36
123.15
103.66
83.22
62.87
43.31
24.79
7.12
-10.27
-28.22
-47.8
-70.03
-95.61
-124.39
-155.17
-185.66
-213.07
-234.93
-249.94
-258.45
-262.29
-263.96
-265.64
-268.31
-271.48
-273.45
-272.07
-265.64
-253.4
-235.75
-213.85
-189.11
-162.85
-136.19
-110.24
-86.36
-66.1
-50.74
-40.74
-35.2
-32.02
-28.47
-22.1
-11.63
2.58
18.6
33.44
43.83
47.22
42.48
30.3
12.87
-6.81
-26.02
-43.05
-57.46
-69.75
-80.64
-90.5
-99.13
-105.82
-109.8
-110.53
-107.87
-102.02
-93.43
-82.67
-70.41
-57.41
-44.49
-32.47
-22.06
-13.67
-7.28
-2.46
1.58
5.75
10.73
16.63
22.86
28.27
31.67
32.51
31.35
29.79
29.82
32.9
39.19
47.29
54.71
58.7
57.18
49.27
35.34
16.72
-4.64
-26.41
-46.21
-61.79
-71.45
-74.54
-71.61
-64.38
-55.18
-46.06
-38.23
-31.66
-25.44
-18.37
-9.68
0.63
11.88
23.12
33.43
42.16
48.96
53.92
57.65
61.33
66.38
73.87
83.75
94.52
103.4
107.3
103.92
92.5
73.9
50.21
23.85
-2.91
-28.21
-50.61
-68.97
-82.61
-91.44
-95.99
-97.37
-96.87
-95.72
-94.8
-94.64
-95.27
-96.31
-96.86
-95.54
-90.78
-81.26
-66.4
-46.75
-23.88
-0.05
22.46
41.91
57.48
69.24
77.95
84.72
90.61
96.38
102.29
108.12
113.25
116.88
118.15
116.33
110.87
101.42
88.01
71.21
52.2
32.78
14.9
0.24
-10.41
-17.26
-21.4
-24.19
-26.78
-29.67
-32.77
-35.67
-37.95
-39.52
-40.54
-41.36
-42.27
-43.47
-45.1
-47.26
-49.99
-53.12
-56.11
-58.03
-57.78
-54.44
-47.69
-38.0
-26.53
-14.77
-4.07
4.71
11.29
15.88
18.85
20.55
21.27
21.25
20.79
20.29
20.12
20.54
21.51
22.79
23.97
24.71
24.87
24.56
24.05
23.6
23.3
22.97
22.24
20.75
18.29
15.01
11.27
7.64
4.54
2.18
0.46
-0.93
-2.41
-4.32
-6.94
-10.35
-14.42
-18.63
-22.2
-24.09
-23.4
-19.68
-13.13
-4.64
4.57
13.31
20.77
26.6
30.75
33.3
34.31
33.88
32.18
29.69
26.97
24.64
23.0
22.07
21.51
20.86
19.79
18.17
16.11
13.82
11.49
9.15
6.71
4.0
0.88
-2.62
-6.33
-9.93
-13.1
-15.62
-17.48
-18.93
-20.37
-22.28
-25.05
-28.8
-33.26
-37.73
-41.2
-42.55
-40.96
-36.14
-28.5
-19.02
-8.95
0.6
8.85
15.48
20.44
23.79
25.55
25.8
24.71
22.64
20.18
17.91
16.31
15.58
15.64
16.17
16.82
17.22
17.22
16.76
16.0
15.1
14.24
13.47
12.66
11.58
9.96
7.67
4.71
1.3
-2.32
-5.98
-9.69
-13.65
-18.17
-23.45
-29.37
-35.36
-40.46
-43.51
-43.54
-40.11
-33.5
-24.57
-14.52
-4.5
4.65
12.49
18.81
23.54
26.6
27.93
27.61
25.94
23.43
20.73
18.46
17.03
16.58
16.91
17.65
18.34
18.68
18.52
18.03
17.39
16.78
16.12
15.16
13.55
11.07
7.75
3.95
0.16
-3.17
-5.83
-7.94
-9.84
-11.95
-14.68
-18.25
-22.63
-27.53
-32.34
-36.18
-38.09
-37.27
-33.38
-26.71
-18.1
-8.75
0.18
7.86
13.88
18.19
20.93
22.27
22.35
21.34
19.5
17.21
14.94
13.17
12.22
12.21
12.97
14.16
15.32
16.08
16.23
15.8
14.98
13.99
12.92
11.68
10.03
7.74
4.84
1.51
-1.83
-4.82
-7.3
-9.38
-11.3
-13.37
-15.77
-18.58
-21.8
-25.46
-29.5
-33.6
-37.11
-39.06
-38.48
-34.8
-28.08
-19.07
-8.98
0.93
9.66
16.61
21.6
24.64
25.88
25.51
23.84
21.33
18.54
16.09
14.49
14.02
14.62
15.92
17.37
18.42
18.76
18.35
17.36
16.07
14.68
13.18
11.46
9.33
6.67
3.48
-0.09
-3.86
-7.63
-11.25
-14.61
-17.65
-20.33
-22.68
-24.81
-26.9
-29.19
-31.96
-35.3
-39.04
-42.6
-45.09
-45.49
-43.02
-37.42
-29.13
-19.14
-8.69
1.07
9.4
15.96
20.72
23.78
25.28
25.41
24.46
22.9
21.29
20.14
19.83
20.45
21.84
23.68
25.58
27.22
28.37
28.91
28.8
28.05
26.71
24.82
22.44
19.66
16.56
13.26
9.88
6.54
3.31
0.25
-2.65
-5.43
-8.13
-10.84
-13.65
-16.73
-20.28
-24.48
-29.31
-34.35
-38.8
-41.52
-41.46
-37.99
-31.25
-22.14
-12.02
-2.26
6.16
12.82
17.72
21.03
22.86
23.25
22.24
20.05
17.2
14.35
12.23
11.29
11.63
12.97
14.78
16.53
17.82
18.5
18.67
18.51
18.14
17.47
16.23
14.1
10.91
6.81
2.28
-2.08
-5.72
-8.36
-10.11
-11.35
-12.57
-14.23
-16.61
-19.77
-23.55
-27.57
-31.2
-33.67
-34.16
-32.14
-27.49
-20.66
-12.49
-4.0
3.93
10.71
16.02
19.72
21.76
22.13
20.99
18.71
15.94
13.4
11.67
11.03
11.36
12.3
13.42
14.39
15.03
15.27
15.11
14.47
13.27
11.43
8.94
5.92
2.58
-0.89
-4.31
-7.64
-10.89
-14.07
-17.24
-20.47
-23.94
-27.86
-32.35
-37.24
-41.91
-45.41
-46.64
-44.76
-39.48
-31.28
-21.23
-10.69
-0.93
7.16
13.17
17.12
19.3
20.1
19.92
19.16
18.18
17.35
16.92
17.02
17.6
18.44
19.24
19.85
20.4
21.22
22.65
24.75
27.08
28.74
28.73
26.43
21.92
16.02
9.94
4.76
1.07
-1.21
-2.64
-3.89
-5.5
-7.82
-11.01
-15.14
-20.11
-25.42
-30.24
-33.43
-33.96
-31.34
-25.85
-18.45
-10.43
-2.88
3.59
8.85
13.04
16.33
18.72
20.09
20.44
19.96
19.08
18.27
17.9
18.04
18.54
19.15
19.59
19.75
19.63
19.28
18.76
18.02
16.93
15.31
13.02
10.04
6.54
2.8
-0.82
-4.05
-6.82
-9.27
-11.69
-14.43
-17.74
-21.69
-26.08
-30.41
-33.97
-35.95
-35.69
-32.85
-27.57
-20.49
-12.49
-4.46
2.92
9.27
14.41
18.29
20.86
22.11
22.14
21.31
20.11
19.08
18.59
18.76
19.4
20.17
20.74
20.93
20.73
20.31
19.8
19.24
18.51
17.38
15.66
13.29
10.36
7.14
3.9
0.79
-2.13
-4.98
-7.94
-11.2
-14.94
-19.26
-24.14
-29.31
-34.24
-38.09
-39.98
-39.2
-35.54
-29.34
-21.43
-12.83
-4.45
3.06
9.39
14.44
18.18
20.59
21.7
21.67
20.82
19.61
18.57
18.07
18.27
19.01
19.92
20.61
20.8
20.42
19.64
18.7
17.72
16.63
15.17
13.07
10.23
6.8
3.17
-0.22
-3.04
-5.23
-6.98
-8.64
-10.62
-13.26
-16.79
-21.31
-26.62
-32.23
-37.26
-40.66
-41.45
-39.07
-33.61
-25.8
-16.77
-7.69
0.53
7.42
12.85
16.89
19.63
21.17
21.62
21.17
20.18
19.07
18.22
17.83
17.87
18.12
18.3
18.19
17.76
17.1
16.38
15.69
14.97
14.02
12.56
10.42
7.55
4.11
0.37
-3.4
-7.0
-10.33
-13.4
-16.34
-19.37
-22.81
-26.94
-31.82
-37.18
-42.29
-46.09
-47.57
-45.99
-41.24
-33.85
-24.81
-15.26
-6.24
1.55
7.68
11.99
14.52
15.5
15.28
14.33
13.15
12.12
11.42
11.06
10.9
10.75
10.52
10.19
9.85
9.57
9.34
9.04
8.46
7.37
5.62
3.18
0.11
-3.4
-7.12
-10.84
-14.37
-17.56
-20.36
-22.84
-25.2
-27.82
-31.1
-35.32
-40.4
-45.76
-50.38
-53.03
-52.66
-48.77
-41.66
-32.32
-22.12
-12.38
-4.0
2.61
7.46
10.79
12.84
13.86
14.09
13.82
13.36
13.03
12.98
13.25
13.71
14.21
14.61
14.86
14.97
14.94
14.68
14.02
12.7
10.55
7.53
3.85
-0.08
-3.82
-7.0
-9.56
-11.71
-13.94
-16.79
-20.68
-25.68
-31.35
-36.82
-40.93
-42.58
-41.05
-36.23
-28.7
-19.5
-9.84
-0.73
7.11
13.31
17.78
20.58
21.9
22.0
21.28
20.18
19.13
18.44
18.23
18.42
18.87
19.43
20.02
20.5
20.69
20.35
19.17
16.99
13.87
10.11
6.16
2.43
-0.84
-3.63
-6.18
-8.82
-11.94
-15.85
-20.78
-26.76
-33.48
-40.18
-45.73
-48.85
-48.5
-44.23
-36.37
-25.99
-14.55
-3.46
6.26
14.12
20.08
24.37
27.27
29.03
29.85
29.97
29.68
29.32
29.19
29.44
30.02
30.65
30.99
30.77
29.9
28.49
26.8
24.99
23.05
20.77
17.77
13.83
8.98
3.55
-1.87
-6.74
-10.74
-13.94
-16.73
-19.72
-23.52
-28.5
-34.68
-41.63
-48.43
-53.86
-56.64
-55.79
-50.96
-42.57
-31.74
-19.99
-8.74
1.01
8.91
15.12
20.11
24.23
27.69
30.41
32.33
33.5
34.19
34.77
35.5
36.43
37.3
37.73
37.5
36.57
35.21
33.69
32.2
30.74
29.11
27.13
24.75
22.03
19.2
16.4
13.69
10.98
8.17
5.2
2.09
-1.15
-4.48
-7.97
-11.73
-15.93
-20.75
-26.31
-32.66
-39.57
-46.49
-52.42
-56.18
-56.62
-53.12
-45.83
-35.67
-24.03
-12.34
-1.68
7.41
14.87
20.89
25.67
29.38
32.1
33.96
35.16
35.99
36.75
37.61
38.6
39.55
40.28
40.62
40.55
40.16
39.59
38.92
38.09
36.93
35.19
32.72
29.55
25.9
22.14
18.64
15.63
13.09
10.78
8.33
5.44
2.01
-1.79
-5.61
-9.13
-12.21
-14.96
-17.74
-20.97
-25.03
-30.12
-36.19
-42.89
-49.54
-55.16
-58.63
-58.97
-55.67
-48.86
-39.39
-28.49
-17.47
-7.31
1.49
8.87
15.0
20.05
24.12
27.24
29.45
30.93
31.95
32.82
33.78
34.87
35.99
36.92
37.46
37.56
37.27
36.7
35.97
35.09
33.91
32.26
29.98
27.12
23.87
20.59
17.66
15.28
13.38
11.68
9.79
7.4
4.4
0.89
-2.87
-6.62
-10.2
-13.54
-16.71
-19.87
-23.26
-27.15
-31.77
-37.17
-43.01
-48.45
-52.35
-53.54
-51.24
-45.38
-36.66
-26.33
-15.71
-5.86
2.69
9.85
15.72
20.4
23.86
26.07
27.08
27.18
26.84
26.54
26.61
27.13
27.94
28.81
29.52
29.97
30.17
30.12
29.76
28.94
27.51
25.39
22.71
19.77
16.95
14.6
12.83
11.49
10.23
8.65
6.53
3.86
0.8
-2.36
-5.43
-8.33
-11.09
-13.84
-16.77
-20.12
-24.08
-28.79
-34.07
-39.38
-43.8
-46.2
-45.62
-41.69
-34.71
-25.68
-15.87
-6.47
1.71
8.33
13.38
16.99
19.28
20.36
20.38
19.63
18.53
17.51
16.89
16.75
17.01
17.45
17.96
18.47
19.01
19.58
20.09
20.3
19.96
18.82
16.78
13.94
10.59
7.15
4.05
1.56
-0.33
-1.94
-3.81
-6.44
-10.04
-14.35
-18.79
-22.64
-25.44
-27.27
-28.83
-31.21
-35.5
-42.15
-50.65
-59.41
-66.29
-69.27
-67.31
-60.69
-50.88
-40.01
-30.18
-22.89
-18.65
-16.85
-15.79
-12.99
-5.81
7.54
26.73
48.98
69.73
84.37
90.05
86.69
76.65
63.41
50.34
39.32
30.62
23.59
17.63
12.75
9.5
8.43
9.5
12.64
16.93
20.82
22.85
22.53
20.7
18.92
18.31
18.68
19.78
20.2
17.66
9.85
-4.49
-24.9
-49.5
-75.49
-99.61
-116.28
-121.07
-112.33
-91.45
-61.51
-25.68
13.36
53.41
92.56
132.23
173.49
215.64
256.23
292.39
322.08
344.07
357.57
343.49
292.7
210.7
115.47
25.68
-48.09
-103.68
-143.6
-171.96
-192.59
-205.64
-210.84
-209.12
-202.7
-193.63
-182.38
-167.94
-149.1
-126.11
-99.9
-73.34
-51.97
-41.58
-44.56
-57.99
-74.85
-87.24
-89.29
-79.11
-59.72
-36.89
-15.89
0.71
13.08
22.51
29.75
34.46
36.53
36.26
34.34
31.62
29.03
26.94
25.19
22.99
19.29
13.39
5.32
-4.8
-16.33
-28.35
-39.97
-50.48
-59.59
-67.37
-74.22
-80.63
-87.03
-93.65
-100.68
-108.33
-116.8
-125.93
-134.73
-141.4
-143.64
-139.78
-129.73
-115.52
-100.78
-89.29
-83.4
-82.93
-85.38
-87.35
-86.13
-80.68
-71.51
-59.66
-45.46
-28.86
-9.45
13.27
39.42
68.61
99.84
131.78
162.9
191.54
216.05
235.17
248.26
255.33
257.0
254.19
248.0
239.81
231.58
225.8
224.91
230.36
241.81
257.14
273.21
287.09
297.02
302.6
304.26
302.73
298.45
291.44
281.45
268.2
251.46
230.98
206.5
177.87
145.25
109.12
70.21
29.16
-13.65
-58.06
-104.16
-151.83
-200.42
-248.2
-292.46
-329.8
-356.98
-371.94
-374.42
-366.15
-350.22
-330.17
-309.02
-288.81
-270.41
-253.91
-238.93
-224.94
-211.48
-198.16
-184.64
-170.68
-156.14
-141.14
-126.05
-111.57
-98.49
-87.4
-78.47
-71.32
-65.26
-59.56
-53.77
-47.87
-42.15
-37.0
-32.67
-29.16
-26.19
-23.36
-20.31
-16.93
-13.35
-10.06
-7.62
-6.49
-6.81
-8.18
-9.76
-10.5
-9.46
-6.14
-0.67
6.3
13.89
21.25
27.83
33.39
37.81
41.06
42.96
43.4
42.42
40.35
37.77
35.35
33.56
32.5
31.93
31.45
30.73
29.7
28.52
27.44
26.64
26.05
25.38
24.22
22.23
19.29
15.55
11.38
7.24
3.62
0.93
-0.5
-0.4
1.33
4.57
8.93
13.73
18.17
21.53
23.34
23.53
22.33
20.18
17.54
14.8
12.25
10.09
8.46
7.44
7.02
7.03
7.21
7.22
6.71
5.45
3.47
0.96
-1.71
-4.19
-6.32
-8.19
-10.11
-12.38
-15.15
-18.3
-21.55
-24.6
-27.25
-29.49
-31.44
-33.23
-34.96
-36.84
-39.09
-42.05
-45.95
-50.67
-55.57
-59.46
-60.97
-58.97
-53.02
-43.61
-31.97
-19.67
-8.11
1.75
9.54
15.32
19.37
22.01
23.55
24.3
24.56
24.63
24.73
24.96
25.26
25.5
25.55
25.36
24.98
24.5
23.96
23.33
22.46
21.12
19.16
16.57
13.51
10.26
7.07
4.12
1.39
-1.32
-4.31
-7.91
-12.32
-17.49
-22.98
-28.02
-31.66
-33.0
-31.51
-27.19
-20.65
-12.86
-4.93
2.23
8.1
12.53
15.67
17.77
19.11
19.91
20.31
20.42
20.37
20.25
20.14
20.06
20.0
19.93
19.79
19.53
19.05
18.23
16.95
15.14
12.81
10.03
6.92
3.57
0.1
-3.41
-6.93
-10.51
-14.3
-18.44
-23.02
-27.78
-32.08
-34.97
-35.46
-32.96
-27.51
-19.8
-10.96
-2.17
5.68
12.09
16.95
20.38
22.61
23.9
24.47
24.57
24.42
24.23
24.13
24.17
24.31
24.47
24.55
24.44
24.1
23.49
22.6
21.4
19.81
17.72
15.08
11.97
8.6
5.25
2.2
-0.51
-3.1
-6.01
-9.69
-14.41
-19.92
-25.52
-30.15
-32.68
-32.28
-28.73
-22.42
-14.32
-5.59
2.7
9.83
15.46
19.56
22.32
23.94
24.66
24.73
24.41
24.0
23.75
23.85
24.34
25.15
26.07
26.89
27.37
27.38
26.91
26.03
24.85
23.4
21.69
19.58
17.01
13.93
10.43
6.66
2.88
-0.57
-3.29
-4.87
-4.93
-3.3
-0.08
4.31
9.19
13.83
17.65
20.3
21.73
22.02
21.34
19.88
17.88
15.66
13.68
12.39
12.13
12.91
14.42
16.09
17.3
17.57
16.73
14.93
12.53
9.96
7.59
5.6
3.98
2.54
1.01
-0.83
-3.05
-5.58
-8.19
-10.66
-12.85
-14.79
-16.68
-18.78
-21.43
-24.92
-29.4
-34.74
-40.44
-45.57
-48.92
-49.34
-46.17
-39.5
-30.22
-19.73
-9.47
-0.52
6.59
11.88
15.6
18.07
19.48
20.0
19.74
18.97
18.02
17.22
16.79
16.72
16.79
16.71
16.25
15.43
14.41
13.46
12.64
11.8
10.58
8.67
5.97
2.75
-0.52
-3.38
-5.61
-7.37
-9.11
-11.32
-14.4
-18.49
-23.37
-28.52
-33.14
-36.29
-37.08
-34.96
-29.92
-22.59
-14.12
-5.74
1.54
7.26
11.48
14.6
17.02
18.98
20.44
21.27
21.39
20.89
20.04
19.2
18.66
18.52
18.69
18.93
18.96
18.58
17.77
16.61
15.26
13.78
12.13
10.19
7.92
5.35
2.69
0.14
-2.12
-4.11
-5.94
-7.76
-9.68
-11.75
-14.02
-16.6
-19.71
-23.62
-28.34
-33.56
-38.45
-41.89
-42.8
-40.57
-35.23
-27.56
-18.71
-9.88
-1.91
4.78
10.19
14.48
17.82
20.29
21.94
22.79
22.97
22.64
22.02
21.31
20.63
20.06
19.63
19.33
19.13
18.95
18.69
18.2
17.31
15.91
13.96
11.54
8.83
6.05
3.4
0.97
-1.23
-3.31
-5.38
-7.58
-9.94
-12.43
-14.93
-17.34
-19.61
-21.88
-24.39
-27.47
-31.3
-35.77
-40.27
-43.83
-45.33
-43.92
-39.35
-32.13
-23.39
-14.48
-6.5
-0.09
4.64
7.94
10.12
11.37
11.81
11.48
10.54
9.28
8.08
7.3
7.15
7.67
8.61
9.62
10.35
10.54
10.08
9.04
7.53
5.69
3.55
1.11
-1.7
-4.91
-8.49
-12.3
-16.14
-19.7
-22.62
-24.49
-24.95
-23.79
-21.0
-16.83
-11.78
-6.45
-1.48
2.58
5.35
6.72
6.8
5.98
4.81
3.88
3.66
4.33
5.81
7.78
9.82
11.59
12.91
13.8
14.33
14.64
14.83
15.0
15.23
15.53
15.92
16.29
16.51
16.41
15.87
14.84
13.42
11.73
9.98
8.24
6.56
4.81
2.82
0.38
-2.65
-6.3
-10.5
-15.04
-19.62
-24.0
-28.02
-31.7
-35.23
-38.96
-43.27
-48.39
-54.15
-59.95
-64.68
-67.1
-66.12
-61.27
-52.89
-42.02
-30.11
-18.6
-8.51
-0.35
5.87
10.43
13.68
15.96
17.52
18.55
19.2
19.59
19.84
20.11
20.55
21.32
22.47
23.92
25.43
26.71
27.45
27.49
26.77
25.36
23.37
20.87
17.97
14.72
11.24
7.66
4.1
0.62
-2.74
-6.03
-9.29
-12.54
-15.76
-18.95
-22.19
-25.64
-29.6
-34.3
-39.78
-45.67
-51.11
-54.91
-55.87
-53.17
-46.79
-37.48
-26.57
-15.46
-5.24
3.57
10.88
16.8
21.45
24.83
26.94
27.92
28.09
27.93
27.83
28.06
28.62
29.37
30.13
30.75
31.2
31.45
31.47
31.21
30.57
29.48
27.94
26.05
23.93
21.7
19.37
16.87
14.11
11.01
7.62
4.08
0.53
-2.9
-6.19
-9.47
-12.97
-16.97
-21.79
-27.59
-34.28
-41.38
-47.94
-52.7
-54.46
-52.44
-46.62
-37.77
-27.22
-16.42
-6.47
2.02
8.95
14.44
18.68
21.75
23.69
24.6
24.69
24.34
23.95
23.86
24.21
24.93
25.76
26.35
26.43
25.9
24.83
23.4
21.78
19.97
17.78
14.93
11.18
6.57
1.42
-3.72
-8.31
-11.99
-14.76
-16.99
-19.27
-22.3
-26.58
-32.37
-39.42
-47.0
-53.95
-58.84
-60.42
-57.9
-51.33
-41.56
-30.02
-18.25
-7.46
1.7
9.1
14.92
19.33
22.47
24.36
25.19
25.26
25.06
25.06
25.58
26.59
27.86
29.01
29.7
29.77
29.25
28.38
27.44
26.66
26.05
25.41
24.32
22.34
19.19
14.9
9.79
4.42
-0.7
-5.23
-9.13
-12.62
-16.09
-19.94
-24.56
-30.17
-36.74
-43.87
-50.68
-55.92
-58.25
-56.67
-50.94
-41.67
-30.19
-18.09
-6.76
2.97
10.86
17.11
22.12
26.22
29.56
32.18
34.04
35.17
35.74
35.97
36.16
36.53
37.15
37.96
38.79
39.46
39.79
39.68
39.04
37.8
35.93
33.47
30.48
27.11
23.43
19.47
15.22
10.71
6.0
1.29
-3.22
-7.37
-11.17
-14.74
-18.39
-22.47
-27.33
-33.18
-39.91
-46.94
-53.25
-57.51
-58.49
-55.46
-48.51
-38.6
-27.15
-15.66
-5.21
3.62
10.74
16.25
20.28
22.92
24.28
24.59
24.26
23.81
23.72
24.3
25.61
27.5
29.67
31.77
33.47
34.54
34.84
34.34
33.17
31.48
29.41
27.01
24.2
20.88
17.0
12.69
8.22
3.96
0.19
-3.0
-5.73
-8.32
-11.12
-14.52
-18.82
-24.17
-30.44
-37.01
-42.82
-46.45
-46.65
-42.75
-34.97
-24.4
-12.65
-1.24
8.78
17.01
23.53
28.6
32.42
35.04
36.5
36.89
36.49
35.74
35.04
34.68
34.71
34.9
34.92
34.43
33.2
31.21
28.65
25.81
22.93
20.11
17.28
14.26
10.88
7.12
3.1
-0.93
-4.71
-8.08
-11.1
-13.9
-16.75
-19.95
-23.81
-28.59
-34.41
-41.05
-47.77
-53.39
-56.44
-55.74
-50.72
-41.74
-29.98
-17.08
-4.58
6.4
15.37
22.29
27.38
30.91
33.1
34.18
34.48
34.48
34.68
35.5
37.11
39.35
41.82
44.07
45.78
46.87
47.45
47.7
47.69
47.37
46.51
44.83
42.12
38.39
33.83
28.85
23.99
19.73
16.39
13.94
12.07
10.26
8.03
5.13
1.63
-2.07
-5.35
-7.44
-7.6
-5.18
0.21
8.58
19.5
32.13
45.38
58.13
69.32
78.04
83.36
84.24
79.62
68.65
51.23
28.32
1.97
-25.08
-50.14
-71.31
-87.89
-100.23
-109.29
-115.99
-120.81
-123.74
-124.6
-123.34
-120.26
-115.93
-110.84
-105.18
-98.72
-91.09
-82.14
-72.15
-61.76
-51.71
-42.37
-33.59
-24.9
-15.8
-6.32
3.0
11.26
17.62
21.68
23.59
23.89
23.18
22.02
20.74
19.64
18.99
19.05
19.96
21.64
23.71
25.55
26.62
26.58
25.5
23.77
21.88
20.19
18.76
17.41
15.83
13.81
11.28
8.37
5.27
2.15
-0.89
-3.87
-6.84
-9.92
-13.19
-16.63
-20.13
-23.45
-26.33
-28.61
-30.38
-31.99
-33.94
-36.77
-40.78
-45.89
-51.54
-56.76
-60.35
-61.1
-58.11
-51.15
-40.67
-27.85
-14.29
-1.57
9.09
17.1
22.45
25.49
26.73
26.61
25.49
23.71
21.63
19.72
18.36
17.77
17.9
18.43
18.95
19.12
18.82
18.15
17.29
16.37
15.35
14.0
11.97
9.05
5.27
0.93
-3.42
-7.21
-10.07
-11.99
-13.35
-14.82
-17.07
-20.51
-25.07
-30.12
-34.65
-37.51
-37.72
-34.78
-28.74
-20.27
-10.46
-0.55
8.4
15.67
20.99
24.47
26.38
27.0
26.58
25.32
23.49
21.43
19.51
18.02
17.08
16.59
16.31
16.01
15.53
14.84
13.93
12.75
11.18
9.05
6.23
2.74
-1.26
-5.48
-9.64
-13.55
-17.13
-20.51
-23.93
-27.72
-32.16
-37.33
-42.88
-48.01
-51.58
-52.43
-49.83
-43.73
-34.9
-24.68
-14.51
-5.56
1.57
6.85
10.62
13.24
14.99
15.99
16.34
16.22
15.95
15.87
16.21
16.96
17.89
18.69
19.16
19.34
19.4
19.51
19.64
19.53
18.75
16.95
14.05
10.34
6.33
2.59
-0.54
-3.07
-5.36
-8.03
-11.67
-16.62
-22.8
-29.61
-36.0
-40.68
-42.51
-40.75
-35.37
-27.01
-16.86
-6.3
3.47
11.66
17.92
22.3
25.01
26.32
26.5
25.84
24.68
23.4
22.36
21.81
21.81
22.23
22.76
23.16
23.21
22.89
22.27
21.42
20.36
18.96
17.02
14.39
11.09
7.3
3.4
-0.24
-3.39
-6.01
-8.32
-10.73
-13.69
-17.61
-22.64
-28.59
-34.71
-39.91
-42.87
-42.62
-38.75
-31.72
-22.64
-12.96
-3.97
3.54
9.3
13.48
16.34
18.11
18.96
19.06
18.7
18.25
18.04
18.25
18.84
19.55
20.13
20.4
20.38
20.19
19.97
19.71
19.21
18.19
16.33
13.48
9.76
5.48
1.13
-2.87
-6.29
-9.17
-11.83
-14.74
-18.38
-23.0
-28.5
-34.29
-39.36
-42.53
-42.72
-39.39
-32.73
-23.62
-13.4
-3.4
5.42
12.55
17.93
21.71
24.04
25.05
24.92
23.98
22.71
21.67
21.27
21.59
22.38
23.19
23.57
23.33
22.5
21.36
20.18
19.13
18.17
17.07
15.57
13.42
10.54
7.05
3.22
-0.59
-4.08
-7.08
-9.68
-12.16
-14.98
-18.65
-23.5
-29.54
-36.33
-42.92
-48.05
-50.46
-49.28
-44.28
-35.98
-25.54
-14.37
-3.83
5.08
11.85
16.45
19.19
20.55
21.07
21.18
21.2
21.33
21.65
22.19
22.87
23.57
24.1
24.27
23.94
23.11
21.91
20.59
19.29
18.03
16.62
14.75
12.14
8.69
4.58
0.19
-4.03
-7.72
-10.76
-13.32
-15.75
-18.51
-22.02
-26.53
-32.06
-38.28
-44.45
-49.56
-52.5
-52.38
-48.81
-42.1
-33.13
-23.14
-13.29
-4.43
3.08
9.21
14.07
17.78
20.39
21.93
22.6
22.71
22.67
22.85
23.44
24.37
25.39
26.2
26.54
26.31
25.57
24.43
23.09
21.63
20.06
18.3
16.21
13.66
10.6
7.11
3.44
-0.12
-3.3
-5.95
-8.18
-10.26
-12.58
-15.5
-19.3
-24.07
-29.69
-35.69
-41.27
-45.34
-46.79
-44.83
-39.35
-31.0
-21.01
-10.75
-1.39
6.44
12.59
17.2
20.42
22.38
23.13
22.86
21.94
20.87
20.2
20.27
21.13
22.54
24.04
25.22
25.87
25.98
25.71
25.24
24.55
23.45
21.63
18.83
15.03
10.47
5.63
1.02
-2.97
-6.19
-8.77
-11.04
-13.44
-16.42
-20.33
-25.26
-30.93
-36.63
-41.28
-43.73
-43.09
-39.05
-32.01
-22.95
-13.07
-3.55
4.8
11.53
16.54
19.91
21.8
22.49
22.29
21.6
20.8
20.23
20.05
20.33
20.92
21.61
22.13
22.25
21.85
20.97
19.75
18.35
16.79
14.98
12.73
9.84
6.29
2.32
-1.63
-5.07
-7.73
-9.7
-11.39
-13.44
-16.43
-20.66
-26.02
-31.95
-37.57
-41.79
-43.62
-42.3
-37.59
-29.86
-20.07
-9.49
0.59
9.22
15.97
20.86
24.2
26.39
27.64
28.13
27.98
27.45
26.88
26.63
26.88
27.59
28.46
29.12
29.25
28.73
27.67
26.35
25.03
23.88
22.85
21.71
20.11
17.76
14.54
10.54
6.08
1.59
-2.56
-6.12
-9.1
-11.73
-14.4
-17.54
-21.52
-26.49
-32.27
-38.27
-43.56
-47.03
-47.7
-45.01
-39.01
-30.43
-20.44
-10.32
-1.15
6.46
12.35
16.72
19.84
21.99
23.32
23.95
24.04
23.8
23.53
23.46
23.71
24.24
24.89
25.44
25.71
25.59
25.01
23.97
22.48
20.59
18.37
15.88
13.15
10.17
6.96
3.54
0.05
-3.38
-6.59
-9.5
-12.12
-14.54
-16.94
-19.48
-22.37
-25.82
-29.95
-34.69
-39.64
-44.06
-46.95
-47.32
-44.51
-38.48
-29.82
-19.64
-9.2
0.37
8.35
14.46
18.81
21.64
23.29
24.02
24.04
23.53
22.7
21.81
21.14
20.89
21.17
21.88
22.73
