-10.13
-1.33
5.85
11.18
14.77
16.85
17.65
17.39
16.37
15.05
13.94
13.49
13.88
14.96
16.34
17.55
18.23
18.3
17.87
17.16
16.28
15.24
13.86
11.92
9.29
6.04
2.42
-1.2
-4.46
-7.17
-9.4
-11.36
-13.42
-15.9
-19.04
-22.91
-27.32
-31.83
-35.68
-37.96
-37.83
-34.76
-28.82
-20.68
-11.4
-2.18
6.0
12.58
17.32
20.28
21.63
21.6
20.57
19.04
17.58
16.71
16.71
17.51
18.76
19.95
20.63
20.59
19.89
18.84
17.7
16.65
15.59
14.25
12.33
9.67
6.37
2.79
-0.6
-3.44
-5.55
-7.1
-8.42
-10.0
-12.24
-15.41
-19.51
-24.24
-29.02
-33.01
-35.27
-35.04
-31.9
-26.01
-18.05
-9.08
-0.24
7.49
13.5
17.59
19.9
20.73
20.45
19.4
17.94
16.4
15.11
14.34
14.22
14.68
15.5
16.35
16.95
17.09
16.72
15.85
14.52
12.72
10.46
7.78
4.81
1.79
-1.06
-3.57
-5.76
-7.82
-10.05
-12.8
-16.36
-20.71
-25.5
-29.9
-32.91
-33.57
-31.35
-26.37
-19.46
-11.85
-4.77
0.91
4.91
7.43
8.89
9.69
10.03
9.88
9.24
8.23
7.15
6.34
6.1
6.48
7.24
8.05
8.56
8.6
8.21
7.51
6.59
5.42
3.83
1.63
-1.23
-4.61
-8.16
-11.5
-14.4
-16.88
-19.22
-21.86
-25.1
-28.87
-32.66
-35.53
-36.52
-34.94
-30.62
-24.0
-15.98
-7.6
0.24
6.94
12.2
15.97
18.27
19.22
18.97
17.81
16.15
14.47
13.22
12.7
12.95
13.75
14.75
15.59
16.01
15.89
15.2
13.9
11.99
9.45
6.44
3.17
-0.04
-2.93
-5.42
-7.65
-9.95
-12.72
-16.27
-20.66
-25.57
-30.34
-34.0
-35.58
-34.34
-30.09
-23.29
-14.92
-6.17
1.85
8.43
13.29
16.5
18.3
18.96
18.77
18.01
17.0
16.12
15.66
15.82
16.63
17.94
19.47
20.93
22.03
22.61
22.6
22.01
20.89
19.3
17.23
14.68
11.7
8.44
5.11
1.93
-0.96
-3.7
-6.62
-10.14
-14.57
-19.83
-25.39
-30.31
-33.49
-34.01
-31.47
-26.1
-18.67
-10.25
-1.93
5.48
11.5
15.9
18.65
19.8
19.55
18.24
16.38
14.52
13.11
12.34
12.09
12.05
11.83
11.16
9.97
8.36
6.55
4.73
3.03
1.48
0.04
-1.37
-2.74
-4.03
-5.14
-5.97
-6.53
-6.95
-7.53
-8.56
-10.32
-12.92
-16.27
-19.97
-23.34
-25.52
-25.59
-22.9
-17.3
-9.23
0.26
9.89
18.46
25.16
29.77
32.48
33.76
34.14
34.06
33.83
33.64
33.62
33.81
34.23
34.85
35.62
36.48
37.36
38.13
38.64
38.7
38.17
36.97
35.06
32.4
28.94
24.62
19.41
13.31
6.35
-1.41
-9.96
-19.24
-29.07
-38.97
-48.16
-55.59
-60.27
-61.61
-59.69
-55.32
-49.82
-44.57
-40.62
-38.47
-38.02
-38.73
-39.94
-41.01
-41.49
-41.14
-39.87
-37.71
-34.79
-31.34
-27.64
-24.03
-20.85
-18.36
-16.72
-15.91
-15.72
-15.88
-16.05
-16.04
-15.81
-15.51
-15.38
-15.7
-16.74
-18.6
-21.25
-24.46
-27.79
-30.7
-32.57
-32.8
-30.94
-26.76
-20.4
-12.39
-3.59
4.99
12.49
18.32
22.26
24.39
24.92
24.16
22.46
20.33
18.37
17.17
17.13
18.26
20.16
22.18
23.68
24.23
23.73
22.34
20.36
18.06
15.66
13.23
10.74
8.05
4.94
1.23
-3.14
-8.02
-12.93
-17.17
-19.95
-20.58
-18.73
-14.49
-8.45
-1.42
5.67
12.06
17.27
21.09
23.53
24.63
24.53
23.4
21.53
19.29
17.12
15.38
14.23
13.6
13.24
12.81
12.0
10.59
8.46
5.64
2.27
-1.46
-5.35
-9.22
-13.0
-16.73
-20.53
-24.58
-28.99
-33.68
-38.34
-42.26
-44.55
-44.3
-40.94
-34.53
-25.77
-15.88
-6.19
2.25
8.88
13.64
16.74
18.44
18.94
18.37
16.92
14.91
12.8
11.03
9.91
9.49
9.61
9.94
10.14
9.94
9.23
8.02
6.43
4.61
2.68
0.72
-1.27
-3.33
-5.54
-7.99
-10.8
-14.16
-18.17
-22.85
-27.89
-32.63
-36.07
-37.08
-34.83
-29.11
-20.46
-10.11
0.43
9.86
17.42
22.98
26.86
29.5
31.21
32.08
32.17
31.59
30.67
29.79
29.27
29.2
29.35
29.38
28.99
28.1
26.82
25.37
23.89
22.33
20.46
17.97
14.68
10.63
6.14
1.67
-2.26
-5.37
-7.69
-9.51
-11.37
-13.78
-17.1
-21.32
-25.95
-30.12
-32.74
-32.8
-29.74
-23.62
-15.16
-5.54
4.01
12.48
19.3
24.34
27.69
29.55
30.14
29.63
28.3
26.5
24.65
23.11
22.1
21.64
21.5
21.34
20.83
19.83
18.44
16.92
15.52
14.31
13.14
11.69
9.65
6.96
3.79
0.51
-2.47
-4.88
-6.7
-8.13
-9.55
-11.34
-13.82
-17.07
-20.9
-24.81
-28.04
-29.73
-29.16
-25.96
-20.33
-12.92
-4.79
2.95
9.45
14.26
17.4
19.22
20.09
20.3
19.97
19.1
17.78
16.21
14.69
13.53
12.86
12.6
12.51
12.28
11.67
10.65
9.38
8.11
7.06
6.34
5.79
5.13
4.02
2.26
-0.13
-2.87
-5.55
-7.84
-9.57
-10.82
-11.86
-12.99
-14.55
-16.72
-19.56
-22.84
-26.07
-28.51
-29.34
-27.94
-24.15
-18.33
-11.33
-4.17
2.26
7.4
11.01
13.14
13.93
13.59
12.41
10.74
8.99
7.56
6.71
6.51
6.83
7.45
8.08
8.52
8.66
8.47
7.99
7.27
6.39
5.39
4.24
2.87
1.19
-0.86
-3.26
-5.84
-8.35
-10.55
-12.25
-13.46
-14.33
-15.12
-16.14
-17.65
-19.78
-22.47
-25.46
-28.24
-30.13
-30.47
-28.81
-25.08
-19.67
-13.3
-6.89
-1.2
3.22
6.24
7.94
8.62
8.63
8.27
7.77
7.27
6.86
6.6
6.55
6.75
7.19
7.8
8.38
8.78
8.88
8.67
8.26
7.79
7.35
6.89
6.33
5.52
4.4
2.99
1.45
-0.08
-1.47
-2.64
-3.63
-4.55
-5.57
-6.89
-8.65
-10.92
-13.57
-16.29
-18.53
-19.71
-19.25
-16.87
-12.63
-7.04
-0.89
4.92
9.67
12.96
14.75
15.27
14.82
13.69
12.09
10.2
8.24
6.46
5.15
4.47
4.44
4.87
5.41
5.72
5.58
4.96
4.0
2.93
1.96
1.19
0.55
-0.16
-1.15
-2.55
-4.35
-6.36
-8.33
-10.01
-11.27
-12.13
-12.75
-13.38
-14.3
-15.73
-17.84
-20.61
-23.76
-26.77
-28.89
-29.36
-27.69
-23.84
-18.27
-11.82
-5.44
0.11
4.42
7.46
9.37
10.38
10.65
10.31
9.54
8.6
7.82
7.47
7.63
8.15
8.69
8.89
8.53
7.62
6.36
5.03
3.85
2.89
2.06
1.21
0.16
-1.22
-2.95
-4.93
-7.03
-9.07
-10.88
-12.41
-13.66
-14.75
-15.92
-17.42
-19.51
-22.24
-25.4
-28.52
-30.9
-31.82
-30.76
-27.6
-22.67
-16.68
-10.45
-4.73
0.0
3.54
5.87
7.06
7.22
6.55
5.33
3.98
2.98
2.67
3.16
4.29
5.65
6.88
7.73
8.18
8.37
8.46
8.51
8.42
7.98
6.99
5.36
3.2
0.76
-1.62
-3.68
-5.31
-6.6
-7.78
-9.18
-11.09
-13.69
-16.94
-20.57
-24.04
-26.64
-27.62
-26.46
-23.03
-17.74
-11.42
-5.08
0.41
4.5
7.1
8.43
8.81
8.5
7.68
6.5
5.14
3.83
2.81
2.23
2.06
2.16
2.33
2.46
2.54
2.58
2.59
2.45
1.98
0.94
-0.73
-2.97
-5.53
-8.13
-10.51
-12.61
-14.48
-16.35
-18.48
-21.12
-24.45
-28.41
-32.72
-36.76
-39.66
-40.53
-38.75
-34.19
-27.33
-19.04
-10.41
-2.36
4.5
9.85
13.62
15.91
16.86
16.76
15.98
14.94
14.07
13.63
13.74
14.36
15.36
16.53
17.63
18.38
18.54
17.91
16.41
14.08
11.1
7.68
4.04
0.4
-3.08
-6.31
-9.26
-12.04
-14.91
-18.24
-22.36
-27.39
-33.0
-38.38
-42.39
-43.86
-42.01
-36.7
-28.51
-18.62
-8.39
0.97
8.7
14.5
18.47
20.94
22.25
22.7
22.55
22.05
21.48
21.07
20.99
21.24
21.73
22.3
22.8
23.2
23.49
23.64
23.52
22.91
21.54
19.24
15.99
12.04
7.76
3.59
-0.18
-3.51
-6.67
-10.1
-14.34
-19.71
-26.15
-33.03
-39.3
-43.68
-44.99
-42.55
-36.4
-27.29
-16.51
-5.46
4.66
13.12
19.66
24.35
27.4
29.04
29.53
29.18
28.38
27.55
27.02
26.91
27.11
27.35
27.39
27.12
26.63
26.06
25.46
24.68
23.43
21.43
18.55
14.96
10.99
7.03
3.36
0.05
-3.0
-6.03
-9.39
-13.46
-18.57
-24.79
-31.76
-38.58
-43.98
-46.58
-45.42
-40.24
-31.63
-20.84
-9.34
1.52
10.85
18.2
23.51
26.93
28.69
29.09
28.5
27.36
26.15
25.32
25.1
25.52
26.37
27.31
27.98
28.16
27.79
26.96
25.77
24.28
22.41
19.95
16.79
12.9
8.5
3.96
-0.33
-4.06
-7.21
-10.03
-13.06
-16.91
-22.02
-28.3
-35.08
-41.11
-44.89
-45.2
-41.47
-34.07
-24.06
-12.95
-2.15
7.3
14.87
20.41
24.02
25.91
26.36
25.79
24.68
23.56
22.89
22.92
23.62
24.74
25.91
26.75
27.09
26.93
26.37
25.53
24.35
22.69
20.3
17.08
13.07
8.58
3.99
-0.31
-4.1
-7.37
-10.35
-13.43
-17.07
-21.66
-27.33
-33.77
-40.17
-45.29
-47.83
-46.83
-41.95
-33.69
-23.2
-11.93
-1.31
7.66
14.45
18.99
21.52
22.4
22.07
20.94
19.45
18.01
16.96
16.52
16.75
17.49
18.51
19.46
20.11
20.27
19.9
18.95
17.4
15.18
12.28
8.76
4.78
0.67
-3.25
-6.7
-9.56
-11.95
-14.22
-16.91
-20.56
-25.48
-31.48
-37.77
-43.08
-45.96
-45.3
-40.73
-32.76
-22.66
-11.98
-2.09
6.14
12.38
16.71
19.33
20.42
20.11
18.66
16.46
14.11
12.23
11.29
11.42
12.43
13.92
15.44
16.62
17.28
17.34
16.79
15.57
13.64
10.98
7.69
4.03
0.31
-3.17
-6.31
-9.22
-12.29
-16.02
-20.8
-26.66
-33.14
-39.17
-43.4
-44.46
-41.49
-34.39
-23.93
-11.56
1.06
12.46
21.74
28.58
33.12
35.72
36.81
36.78
35.97
34.75
33.49
32.49
31.94
31.84
32.01
32.07
31.63
30.34
28.08
24.93
21.24
17.42
13.87
10.82
8.36
6.4
4.76
3.21
1.48
-0.74
-3.75
-7.67
-12.28
-16.97
-20.73
-22.41
-21.17
-16.76
-9.71
-1.14
7.58
15.31
21.37
25.6
28.13
29.2
28.97
27.59
25.32
22.59
20.06
18.36
17.95
18.93
21.0
23.53
25.81
27.19
27.3
26.05
23.63
20.39
16.68
12.71
8.57
4.19
-0.56
-5.84
-11.78
-18.37
-25.4
-32.32
-38.21
-42.0
-42.68
-39.79
-33.57
-25.05
-15.67
-6.91
0.17
5.08
7.9
8.99
8.71
7.4
5.29
2.68
0.01
-2.17
-3.36
-3.31
-2.18
-0.48
1.03
1.65
0.96
-1.0
-3.84
-7.01
-10.03
-12.68
-15.03
-17.35
-19.99
-23.24
-27.29
-32.2
-37.75
-43.39
-48.15
-50.92
-50.61
-46.65
-39.2
-29.15
-17.89
-6.87
2.77
10.37
15.77
19.07
20.55
20.47
19.18
17.12
14.81
12.85
11.68
11.53
12.29
13.56
14.77
15.35
14.9
13.26
10.58
7.24
3.74
0.48
-2.38
-4.92
-7.48
-10.44
-14.13
-18.68
-23.97
-29.63
-35.03
-39.3
-41.46
-40.69
-36.58
-29.41
-20.06
-9.87
-0.19
7.93
13.95
17.83
19.83
20.25
19.37
17.46
14.88
12.09
9.66
8.11
7.78
8.59
10.21
12.04
13.49
14.13
13.79
12.56
10.68
8.44
6.06
3.61
1.01
-1.94
-5.52
-9.98
-15.44
-21.75
-28.4
-34.5
-38.93
-40.57
-38.7
-33.23
-24.84
-14.8
-4.56
4.64
12.08
17.55
21.21
23.32
24.07
23.57
21.99
19.67
17.13
14.98
13.68
13.38
13.85
14.57
14.96
14.59
13.29
11.2
8.6
5.74
2.77
-0.29
-3.54
-7.06
-10.92
-15.2
-20.03
-25.54
-31.68
-38.03
-43.69
-47.4
-47.97
-44.7
-37.72
-28.02
-17.08
-6.4
2.91
10.33
15.81
19.52
21.64
22.34
21.8
20.36
18.48
16.73
15.57
15.22
15.64
16.54
17.54
18.29
18.53
18.09
16.9
14.96
12.36
9.25
5.84
2.31
-1.22
-4.76
-8.45
-12.49
-17.06
-22.21
-27.77
-33.2
-37.63
-40.01
-39.34
-35.07
-27.35
-17.04
-5.52
5.73
15.49
23.06
28.25
31.27
32.51
32.46
31.59
30.34
29.1
28.12
27.53
27.31
27.37
27.55
27.72
27.74
27.44
26.68
25.32
23.3
20.61
17.33
13.6
9.61
5.56
1.58
-2.26
-6.08
-10.11
-14.71
-20.17
-26.56
-33.56
-40.33
-45.64
-48.15
-46.77
-41.07
-31.56
-19.5
-6.61
5.43
15.44
22.83
27.61
30.12
30.86
30.33
29.04
27.46
26.06
25.17
24.93
25.24
25.78
26.17
26.1
25.41
24.15
22.49
20.61
18.55
16.25
13.51
10.2
6.32
2.08
-2.18
-6.15
-9.62
-12.59
-15.27
-18.05
-21.39
-25.73
-31.23
-37.55
-43.77
-48.52
-50.34
-48.21
-41.96
-32.42
-21.13
-9.8
0.18
8.09
13.87
17.82
20.3
21.58
21.81
21.16
19.98
18.77
18.04
18.13
19.06
20.47
21.91
22.9
23.26
23.03
22.4
21.53
20.45
18.94
16.71
13.54
9.4
4.6
-0.41
-5.06
-8.95
-11.97
-14.37
-16.67
-19.52
-23.44
-28.67
-35.0
-41.73
-47.77
-51.88
-52.97
-50.41
-44.28
-35.34
-24.84
-14.19
-4.57
3.25
9.04
12.87
15.06
15.97
15.98
15.51
14.99
14.84
15.35
16.58
18.35
20.31
22.05
23.26
23.81
23.72
23.07
21.98
20.53
18.71
16.55
14.1
11.51
9.01
6.84
5.24
4.29
3.89
3.75
3.42
2.39
0.28
-3.03
-7.22
-11.53
-14.94
-16.4
-15.22
-11.33
-5.32
1.77
8.78
14.79
19.28
22.1
23.36
23.23
21.89
19.6
16.7
13.65
10.95
8.98
7.89
7.61
7.86
8.4
9.03
9.7
10.4
11.06
11.5
11.44
10.61
8.84
6.25
3.14
-0.02
-2.85
-5.16
-7.05
-8.88
-11.13
-14.29
-18.62
-24.03
-29.97
-35.43
-39.21
-40.18
-37.67
-31.78
-23.34
-13.67
-4.19
3.99
10.31
14.73
17.53
19.05
19.58
19.33
18.52
17.45
16.47
15.91
15.94
16.44
17.06
17.33
16.93
15.77
14.07
12.2
10.41
8.75
6.94
4.62
1.58
-2.08
-5.96
-9.52
-12.34
-14.34
-15.79
-17.19
-19.13
-22.07
-26.26
-31.55
-37.42
-42.91
-46.83
-48.06
-45.85
-40.17
-31.67
-21.57
-11.2
-1.68
6.27
12.41
16.77
19.49
20.77
20.83
19.98
18.71
17.57
17.01
17.21
17.99
18.88
19.37
19.09
18.03
16.45
14.78
13.39
12.41
11.68
10.87
9.61
7.69
5.13
2.16
-0.89
-3.74
-6.32
-8.77
-11.44
-14.74
-18.99
-24.19
-29.98
-35.63
-40.08
-42.28
-41.43
-37.33
-30.41
-21.7
-12.45
-3.8
3.5
9.17
13.26
16.0
17.62
18.32
18.28
17.76
17.04
16.38
15.98
15.85
15.9
15.99
15.99
15.88
15.64
15.27
14.68
13.73
12.27
10.2
7.51
4.39
1.05
-2.24
-5.3
-8.1
-10.8
-13.68
-17.06
-21.12
-25.7
-30.26
-33.9
-35.58
-34.42
-30.11
-22.97
-13.98
-4.48
4.26
11.3
16.22
19.05
20.13
19.87
18.7
17.01
15.13
13.36
11.93
10.95
10.41
10.21
10.25
10.44
10.73
11.06
11.34
11.38
10.97
9.9
8.07
5.5
2.37
-1.03
-4.36
-7.39
-10.0
-12.33
-14.74
-17.69
-21.53
-26.25
-31.29
-35.62
-38.0
-37.44
-33.6
-26.93
-18.51
-9.67
-1.55
5.11
10.08
13.43
15.36
16.1
15.91
15.07
13.98
12.98
12.35
12.21
12.51
13.1
13.79
14.39
14.72
14.65
14.11
13.07
11.57
9.64
7.28
4.52
1.43
-1.84
-5.06
-8.04
-10.68
-13.12
-15.67
-18.72
-22.5
-27.02
-31.85
-36.27
-39.33
-40.11
-37.93
-32.66
-24.74
-15.18
-5.28
3.74
10.97
16.05
19.04
20.29
20.25
19.32
17.9
16.33
14.96
14.06
13.76
14.04
14.66
15.29
15.6
15.39
14.63
13.45
11.99
10.3
8.37
6.08
3.36
0.27
-2.92
-5.9
-8.39
-10.39
-12.15
-14.15
-16.9
-20.75
-25.69
-31.26
-36.6
-40.61
-42.2
-40.64
-35.79
-28.19
-18.94
-9.36
-0.59
6.62
12.03
15.8
18.21
19.55
19.98
19.63
18.7
17.51
16.44
15.81
15.78
16.28
17.05
17.78
18.23
18.25
17.81
16.86
15.37
13.25
10.44
6.98
3.03
-1.1
-5.07
-8.59
-11.51
-13.91
-16.13
-18.64
-21.91
-26.2
-31.38
-36.8
-41.4
-43.98
-43.59
-39.86
-33.13
-24.41
-15.0
-6.15
1.28
6.91
10.79
13.14
14.23
14.37
13.82
12.97
12.22
11.91
12.24
13.16
14.44
15.76
16.82
17.46
17.64
17.41
16.79
15.77
14.27
12.18
9.41
6.03
2.27
-1.47
-4.79
-7.42
-9.39
-11.01
-12.86
-15.46
-19.15
-23.79
-28.8
-33.18
-35.82
-35.81
-32.71
-26.74
-18.7
-9.77
-1.09
6.43
12.33
16.48
19.0
20.09
20.01
19.08
17.7
16.24
15.06
14.38
14.24
14.61
15.33
16.21
17.03
17.52
17.49
16.8
15.44
13.5
11.2
8.74
6.23
3.69
1.05
-1.83
-5.03
-8.57
-12.42
-16.53
-20.77
-24.94
-28.59
-31.04
-31.48
-29.27
-24.18
-16.65
-7.66
1.52
9.76
16.34
21.01
23.95
25.48
25.95
25.65
24.83
23.75
22.73
22.05
21.91
22.31
23.12
24.04
24.74
24.98
24.64
23.74
22.38
20.7
18.78
16.68
14.4
11.93
9.29
6.43
3.34
-0.04
-3.73
-7.73
-11.95
-16.28
-20.45
-24.16
-27.01
-28.62
-28.67
-27.03
-23.81
-19.33
-14.16
-8.97
-4.47
-1.3
0.11
-0.4
-2.54
-5.72
-9.13
-12.05
-14.2
-15.99
-18.54
-23.49
-32.61
-47.19
-67.56
-92.5
-118.99
-142.61
-158.52
-163.02
-154.93
-136.13
-110.91
-84.52
-61.25
-43.25
-30.18
-19.95
-9.94
1.88
16.37
33.27
51.62
70.28
88.2
104.42
117.96
127.75
132.9
133.03
128.73
121.46
113.12
105.14
97.82
90.27
81.05
69.13
54.68
39.1
24.42
12.41
3.96
-1.02
-3.23
-3.56
-2.67
-1.02
1.05
3.17
4.9
5.9
5.99
5.21
3.74
1.79
-0.53
-3.15
-5.99
-8.88
-11.54
-13.76
-15.49
-17.0
-18.78
-21.37
-24.95
-29.23
-33.46
-36.62
-37.96
-37.24
-34.87
-31.7
-28.57
-25.98
-23.91
-22.0
-19.89
-17.61
-15.71
-15.03
-16.27
-19.46
-23.81
-27.92
-30.52
-31.05
-29.98
-28.62
-28.41
-30.15
-33.82
-38.82
-44.54
-50.43
-55.6
-58.31
-56.06
-46.74
-30.19
-9.09
11.79
27.71
36.33
38.74
38.38
38.56
40.27
41.79
40.23
34.08
24.63
15.61
11.03
12.84
19.95
28.99
36.25
39.49
38.74
35.76
32.77
31.22
31.2
31.65
31.19
28.92
24.88
19.96
15.41
12.19
10.58
10.12
10.0
9.45
8.19
6.37
4.46
2.89
1.73
0.71
-0.64
-2.67
-5.46
-8.79
-12.23
-15.37
-18.01
-20.31
-22.64
-25.45
-29.04
-33.31
-37.71
-41.29
-43.0
-42.01
-38.05
-31.49
-23.28
-14.63
-6.67
-0.12
4.81
8.3
10.8
12.73
14.35
15.76
16.97
18.04
19.1
20.32
21.8
23.44
24.99
26.12
26.57
26.3
25.46
24.3
23.02
21.66
20.1
18.17
15.73
12.78
9.46
5.98
2.57
-0.6
-3.52
-6.34
-9.39
-13.05
-17.54
-22.75
-28.1
-32.63
-35.29
-35.3
-32.5
-27.35
-20.8
-13.88
-7.4
-1.78
2.87
6.61
9.47
11.44
12.5
12.72
12.4
11.9
11.58
11.64
12.07
12.71
13.31
13.64
13.56
13.0
12.0
10.62
8.98
7.19
5.28
3.21
0.89
-1.71
-4.45
-7.07
-9.24
-10.75
-11.71
-12.5
-13.69
-15.78
-18.94
-23.01
-27.46
-31.61
-34.71
-36.08
-35.16
-31.69
-25.76
-17.92
-9.12
-0.48
7.0
12.78
16.84
19.58
21.53
23.11
24.48
25.6
26.45
27.13
27.94
29.22
31.16
33.64
36.3
38.64
40.29
41.11
41.29
41.19
41.21
41.64
42.56
43.86
45.33
46.71
47.82
48.52
48.86
49.07
49.46
50.41
52.13
54.56
57.36
60.03
62.17
63.78
65.32
67.69
72.01
79.38
90.72
106.49
126.24
148.18
169.03
184.43
190.06
182.92
162.37
130.24
90.19
46.53
3.24
-36.72
-71.35
-99.6
-121.17
-136.48
-146.65
-153.24
-157.77
-161.35
-164.46
-167.07
-169.03
-170.23
-170.74
-170.57
-169.35
-166.27
-160.08
-149.36
-132.86
-110.06
-81.5
-49.08
-15.92
14.08
37.14
50.57
53.73
48.21
37.43
25.57
16.23
11.52
11.76
15.76
21.62
27.46
31.82
33.93
33.69
31.52
28.21
24.65
21.63
19.65
18.8
18.79
19.2
19.66
20.11
20.89
22.6
25.83
30.72
36.56
41.7
43.8
40.49
30.23
12.97
-9.56
-34.2
-57.1
-74.7
-84.62
-86.05
-79.8
-67.89
-52.9
-37.4
-23.42
-12.23
-4.27
0.63
3.15
4.17
4.68
5.5
7.28
10.26
14.33
19.12
24.19
29.4
34.97
41.43
49.22
58.36
68.18
77.61
85.42
90.46
91.66
87.91
78.28
62.45
41.35
17.44
-5.68
-24.34
-36.03
-40.2
-38.27
-32.81
-26.62
-22.14
-21.5
-26.68
-39.35
-60.21
-88.18
-120.12
-151.38
-177.22
-194.19
-201.02
-198.58
-189.08
-175.07
-158.65
-141.34
-124.19
-108.14
-94.05
-82.66
-74.38
-69.18
-66.68
-66.23
-66.98
-68.04
-68.62
-68.16
-66.52
-64.07
-61.55
-59.72
-59.01
-59.11
-58.9
-56.74
-51.08
-41.03
-26.82
-9.76
8.05
24.26
36.85
44.74
48.1
48.7
49.71
54.82
66.91
86.47
110.85
134.69
151.88
157.93
151.81
136.23
116.28
97.21
82.47
72.92
67.46
64.23
61.89
60.02
58.79
58.2
57.75
56.41
53.21
47.72
40.46
32.68
25.81
20.87
18.07
16.82
16.17
15.36
14.23
13.21
13.0
14.1
16.41
19.19
21.22
21.27
18.49
12.72
4.59
-4.65
-13.47
-20.61
-25.39
-27.95
-29.14
-30.13
-31.84
-34.57
-37.8
-40.44
-41.35
-39.85
-36.11
-31.14
-26.55
-24.25
-26.18
-34.15
-49.52
-72.69
-102.27
-134.55
-163.82
-183.78
-189.6
-179.7
-156.36
-124.73
-90.89
-59.82
-34.34
-15.23
-2.01
6.11
9.92
10.35
8.6
6.1
4.02
2.74
1.68
-0.38
-4.63
-11.62
-21.01
-31.58
-41.72
-50.01
-55.6
-58.38
-58.84
-57.81
-56.15
-54.48
-53.06
-51.53
-48.74
-42.88
-32.3
-16.55
2.59
21.24
34.66
39.33
34.67
23.45
10.52
0.69
-3.36
-1.79
3.17
8.87
13.7
17.57
21.31
25.72
30.7
35.27
38.21
38.75
37.0
34.01
31.11
29.26
28.51
27.99
26.3
22.19
15.19
5.87
-4.29
-13.43
-19.92
-22.86
-22.25
-18.76
-13.36
-6.89
0.08
7.23
14.39
21.31
27.78
33.63
38.88
43.6
47.86
51.54
54.46
56.46
57.58
58.08
58.3
58.46
58.55
58.35
57.59
56.14
54.01
51.32
48.2
44.69
40.8
36.57
32.14
27.75
23.57
19.65
15.85
11.9
7.51
2.43
-3.48
-10.18
-17.44
-24.7
-31.07
-35.5
-37.03
-35.14
-30.03
-22.5
-13.78
-5.0
3.11
10.32
16.72
22.44
27.44
31.51
34.49
36.4
37.51
38.27
39.04
40.0
41.04
41.94
42.54
42.82
42.88
42.85
42.73
42.34
41.41
39.65
36.92
33.24
28.79
23.9
18.89
14.05
9.56
5.38
1.34
-2.89
-7.66
-13.13
-19.12
-24.99
-29.72
-32.14
-31.36
-27.09
-19.78
-10.52
-0.64
8.76
16.97
23.78
29.24
33.46
36.43
38.09
38.47
37.86
36.73
35.64
35.02
35.02
35.47
35.98
36.21
35.94
35.2
34.18
33.08
31.98
30.78
29.23
27.07
24.2
20.68
16.81
12.91
9.21
5.76
2.49
-0.77
-4.17
-7.81
-11.78
-16.26
-21.45
-27.44
-34.01
-40.46
-45.69
-48.48
-47.9
-43.69
-36.35
-26.93
-16.69
-6.67
2.44
10.35
16.96
22.22
26.03
28.33
29.23
29.07
28.37
27.71
27.56
28.12
29.28
30.68
31.92
32.73
33.0
32.81
32.23
31.3
29.91
27.91
25.19
21.74
17.75
13.51
9.44
6.05
3.79
3.07
4.05
6.63
10.39
14.71
18.92
22.45
24.95
26.25
26.37
25.46
23.75
21.59
19.4
17.57
16.38
15.91
16.08
16.65
17.41
18.16
18.79
19.23
19.37
19.09
18.32
17.04
15.37
13.52
11.7
10.05
8.58
7.2
5.73
4.06
2.1
-0.06
-2.3
-4.43
-6.37
-8.09
-9.68
-11.3
