18.32
16.93
15.44
14.21
13.36
12.75
12.0
10.46
7.34
2.03
-5.5
-14.38
-22.79
-28.37
-29.13
-24.18
-14.22
-1.3
11.89
23.0
30.58
34.31
34.54
31.93
27.03
20.31
12.28
3.7
-4.37
-10.72
-14.23
-14.2
-10.62
-4.17
3.86
12.02
19.11
24.48
28.16
30.57
32.14
33.02
32.99
31.73
29.14
25.58
21.78
18.57
16.53
15.7
15.67
15.78
15.49
14.47
12.74
10.45
7.78
4.86
1.71
-1.68
-5.31
-9.1
-12.94
-16.66
-20.16
-23.47
-26.74
-30.15
-33.72
-37.05
-39.33
-39.53
-36.81
-30.96
-22.53
-12.75
-3.0
5.58
12.36
17.23
20.32
21.82
21.83
20.48
18.09
15.18
12.38
10.23
9.0
8.59
8.68
8.86
8.85
8.52
7.85
6.81
5.33
3.28
0.53
-2.89
-6.82
-10.97
-15.0
-18.7
-22.02
-25.08
-28.16
-31.49
-35.07
-38.61
-41.45
-42.72
-41.63
-37.77
-31.3
-22.96
-13.78
-4.86
2.97
9.29
13.95
16.99
18.44
18.37
16.94
14.51
11.73
9.28
7.78
7.53
8.42
10.09
12.06
13.86
15.22
15.98
16.14
15.78
15.08
14.22
13.36
12.56
11.71
10.65
9.2
7.34
5.11
2.6
-0.1
-2.91
-5.53
-7.36
-7.51
-5.01
0.75
9.71
21.03
33.27
44.84
54.36
61.09
64.95
66.49
66.63
66.35
66.48
67.44
69.28
71.74
74.48
77.3
80.33
83.98
88.88
95.69
104.76
115.85
127.89
139.03
146.95
149.58
145.93
136.53
123.28
108.76
95.17
83.51
73.23
62.58
49.43
32.37
11.48
-11.36
-32.99
-50.06
-60.31
-63.54
-61.66
-57.89
-55.49
-56.48
-61.11
-68.07
-75.37
-81.28
-84.99
-86.63
-86.94
-86.79
-86.72
-86.74
-86.32
-84.74
-81.38
-76.15
-69.48
-62.27
-55.56
-50.27
-47.08
-46.31
-48.02
-51.91
-57.37
-63.49
-69.29
-73.93
-76.99
-78.54
-79.0
-78.94
-78.82
-78.78
-78.64
-78.01
-76.5
-73.9
-70.33
-66.22
-62.21
-58.99
-57.09
-56.72
-57.78
-59.77
-61.98
-63.58
-63.8
-62.14
-58.45
-52.99
-46.4
-39.52
-33.18
-27.99
-24.27
-21.96
-20.74
-20.11
-19.56
-18.73
-17.5
-16.0
-14.53
-13.47
-13.16
-13.79
-15.45
-18.05
-21.32
-24.77
-27.69
-29.18
-28.4
-24.81
-18.41
-9.78
0.02
9.78
18.45
25.38
30.38
33.57
35.27
35.77
35.36
34.27
32.75
31.05
29.44
28.06
26.95
26.0
25.05
23.92
22.55
21.0
19.36
17.72
16.06
14.25
12.07
9.39
6.16
2.6
-0.97
-4.15
-6.71
-8.64
-10.17
-11.7
-13.68
-16.45
-20.12
-24.48
-28.98
-32.83
-35.1
-35.05
-32.3
-27.01
-19.85
-11.79
-3.84
3.24
9.06
13.55
16.83
19.01
20.18
20.35
19.65
18.36
16.89
15.62
14.79
14.38
14.14
13.8
13.16
12.25
11.24
10.31
9.5
8.66
7.51
5.77
3.28
0.17
-3.23
-6.45
-8.95
-10.35
-10.35
-8.84
-5.8
-1.3
4.5
11.26
18.52
25.64
31.9
36.66
39.43
40.01
38.51
35.34
31.13
26.56
22.29
18.79
16.3
14.8
14.08
13.78
13.56
13.16
12.47
11.58
10.66
9.88
9.39
9.17
9.07
8.88
8.4
7.49
6.14
4.45
2.56
0.62
-1.31
-3.25
-5.33
-7.68
-10.37
-13.36
-16.49
-19.59
-22.53
-25.25
-27.85
-30.5
-33.47
-37.07
-41.43
-46.38
-51.35
-55.37
-57.34
-56.31
-51.9
-44.4
-34.68
-23.99
-13.55
-4.31
3.19
8.75
12.43
14.44
15.1
14.78
13.92
12.96
12.23
11.91
11.98
12.3
12.66
12.93
13.1
13.22
13.36
13.49
13.49
13.14
12.23
10.64
8.33
5.41
2.1
-1.31
-4.55
-7.47
-10.11
-12.72
-15.72
-19.46
-24.08
-29.28
-34.33
-38.19
-39.81
-38.49
-34.11
-27.14
-18.53
-9.41
-0.79
6.65
12.58
16.91
19.7
21.08
21.19
20.24
18.51
16.37
14.24
12.49
11.39
11.03
11.32
12.02
12.88
13.62
14.02
13.92
13.13
11.56
9.18
6.13
2.68
-0.89
-4.37
-7.7
-11.04
-14.66
-18.85
-23.78
-29.38
-35.24
-40.61
-44.51
-45.96
-44.25
-39.27
-31.53
-22.09
-12.18
-2.88
5.07
11.37
15.93
18.83
20.19
20.22
19.23
17.66
15.98
14.57
13.64
13.17
13.0
12.97
12.95
12.96
12.99
13.01
12.92
12.52
11.63
10.14
8.06
5.5
2.61
-0.48
-3.66
-6.97
-10.55
-14.62
-19.4
-24.91
-30.8
-36.26
-40.18
-41.48
-39.46
-34.1
-26.06
-16.47
-6.52
2.83
10.9
17.4
22.23
25.46
27.29
28.06
28.13
27.88
27.56
27.32
27.17
27.03
26.85
26.52
26.02
25.35
24.57
23.76
22.89
21.9
20.55
18.59
15.74
11.87
7.09
1.81
-3.31
-7.41
-9.64
-9.42
-6.61
-1.59
4.84
11.71
18.08
23.24
26.78
28.6
28.8
27.73
25.86
23.72
21.78
20.37
19.53
19.18
19.12
19.16
19.19
19.18
19.09
18.84
18.34
17.47
16.18
14.51
12.51
10.3
7.97
5.52
2.95
0.2
-2.72
-5.79
-8.97
-12.19
-15.4
-18.57
-21.68
-24.72
-27.77
-30.99
-34.6
-38.89
-44.05
-50.04
-56.43
-62.37
-66.7
-68.27
-66.27
-60.58
-51.79
-41.11
-29.92
-19.42
-10.34
-2.88
3.02
7.53
10.75
12.69
13.51
13.55
13.34
13.46
14.26
15.76
17.61
19.33
20.54
21.12
21.22
21.12
21.01
20.83
20.35
19.26
17.4
14.78
11.68
8.43
5.35
2.64
0.3
-1.87
-4.17
-6.99
-10.65
-15.24
-20.48
-25.66
-29.82
-31.96
-31.37
-27.87
-21.82
-13.98
-5.27
3.47
11.52
18.35
23.58
27.01
28.62
28.66
27.62
26.09
24.64
23.63
23.18
23.21
23.5
23.83
24.02
23.95
23.53
22.71
21.4
19.54
17.12
14.23
11.07
7.9
4.93
2.28
-0.14
-2.47
-4.94
-7.73
-11.05
-15.06
-19.79
-25.0
-30.03
-33.81
-35.18
-33.32
-28.14
-20.38
-11.36
-2.5
5.15
11.12
15.42
18.28
19.92
20.47
19.99
18.71
16.95
15.15
13.73
12.93
12.79
13.17
13.78
14.29
14.44
14.02
12.92
11.11
8.62
5.52
1.99
-1.79
-5.62
-9.34
-12.93
-16.46
-20.17
-24.34
-29.14
-34.5
-39.97
-44.71
-47.68
-47.98
-45.15
-39.39
-31.53
-22.72
-14.06
-6.31
0.17
5.32
9.2
11.85
13.28
13.56
12.91
11.75
10.59
9.89
9.89
10.58
11.7
12.91
13.84
14.26
14.03
13.14
11.58
9.39
6.59
3.29
-0.36
-4.14
-7.87
-11.48
-15.03
-18.75
-22.92
-27.78
-33.36
-39.31
-44.83
-48.79
-50.07
-47.88
-42.16
-33.59
-23.42
-13.04
-3.58
4.38
10.78
15.88
19.94
23.08
25.26
26.43
26.69
26.33
25.77
25.35
25.22
25.32
25.43
25.38
25.11
24.72
24.32
23.92
23.28
22.02
19.75
16.28
11.78
6.69
1.61
-2.96
-6.85
-10.22
-13.58
-17.53
-22.5
-28.53
-35.2
-41.62
-46.64
-49.13
-48.28
-43.85
-36.27
-26.45
-15.61
-4.87
4.95
13.48
20.71
26.8
31.89
35.97
38.91
40.59
41.06
40.6
39.69
38.77
38.13
37.83
37.67
37.37
36.71
35.66
34.35
32.97
31.59
30.12
28.29
25.76
22.26
17.81
12.69
7.38
2.35
-2.1
-5.99
-9.6
-13.34
-17.62
-22.69
-28.58
-35.1
-41.87
-48.27
-53.46
-56.5
-56.54
-53.08
-46.22
-36.68
-25.66
-14.47
-4.12
4.84
12.44
18.96
24.68
29.66
33.69
36.47
37.83
37.92
37.22
36.3
35.7
35.62
35.94
36.35
36.49
36.18
35.4
34.28
32.93
31.35
29.45
27.18
24.67
22.17
19.94
18.1
16.47
14.65
12.18
8.82
4.75
0.45
-3.54
-6.84
-9.53
-12.08
-15.15
-19.33
-24.88
-31.58
-38.71
-45.18
-49.76
-51.37
-49.42
-43.94
-35.55
-25.34
-14.5
-4.05
5.29
13.14
19.37
23.99
27.08
28.82
29.46
29.4
29.04
28.8
28.9
29.4
30.11
30.76
31.11
31.1
30.81
30.42
30.07
29.72
29.2
28.26
26.67
24.32
21.26
17.67
13.88
10.35
7.58
6.09
6.18
7.92
11.03
14.96
19.06
22.66
25.25
26.51
26.37
24.96
22.61
19.74
16.85
14.3
12.41
11.31
10.98
11.27
11.9
12.52
12.77
12.41
11.41
9.92
8.27
6.78
5.66
4.96
4.54
4.18
3.59
2.61
1.14
-0.78
-2.98
-5.25
-7.41
-9.41
-11.38
-13.56
-16.18
-19.35
-22.89
-26.52
-29.87
-32.75
-35.21
-37.47
-39.86
-42.66
-46.06
-50.17
-54.9
-59.91
-64.49
-67.64
-68.31
-65.72
-59.75
-50.98
-40.52
-29.62
-19.27
-10.06
-2.14
4.5
9.9
14.03
16.85
18.44
19.04
19.04
18.9
18.99
19.54
20.48
21.58
22.48
22.88
22.64
21.8
20.59
19.24
17.92
16.61
15.09
13.13
10.56
7.42
3.89
0.3
-3.1
-6.14
-8.88
-11.51
-14.3
-17.54
-21.44
-26.07
-31.28
-36.62
-41.33
-44.51
-45.31
-43.23
-38.29
-30.98
-22.13
-12.69
-3.49
4.83
11.86
17.4
21.41
23.93
25.09
25.12
24.37
23.27
22.22
21.58
21.49
21.87
22.43
22.84
22.86
22.4
21.54
20.4
19.06
17.47
15.47
12.9
9.69
5.86
1.62
-2.77
-7.01
-10.9
-14.35
-17.46
-20.38
-23.35
-26.58
-30.23
-34.42
-39.08
-43.89
-48.2
-51.07
-51.51
-48.82
-42.9
-34.35
-24.27
-13.91
-4.29
3.98
10.72
15.95
19.74
22.1
23.11
23.01
22.2
21.22
20.55
20.39
20.7
21.17
21.45
21.3
20.67
19.67
18.49
17.3
16.15
14.93
13.44
11.47
8.92
5.83
2.42
-1.05
-4.35
-7.39
-10.23
-13.08
-16.16
-19.69
-23.76
-28.41
-33.54
-38.85
-43.76
-47.44
-48.93
-47.47
-42.81
-35.28
-25.84
-15.71
-6.06
2.33
9.14
14.42
18.38
21.19
22.94
23.68
23.55
22.87
22.04
21.44
21.26
21.48
21.91
22.35
22.66
22.82
22.82
22.65
22.17
21.24
19.72
17.58
14.82
11.55
7.97
4.33
1.06
-1.39
-2.57
-2.23
-0.35
2.84
6.94
11.5
16.05
20.15
23.41
25.51
26.25
25.62
23.85
21.32
18.55
16.01
14.09
12.98
12.68
13.02
13.71
14.41
14.83
14.77
14.17
13.12
11.73
10.15
8.46
6.71
4.91
3.07
1.21
-0.63
-2.41
-4.1
-5.73
-7.38
-9.16
-11.2
-13.53
-16.09
-18.7
-21.15
-23.29
-25.16
-27.03
-29.29
-32.36
-36.48
-41.62
-47.32
-52.83
-57.13
-59.17
-58.22
-54.03
-46.94
-37.82
-27.79
-17.86
-8.79
-1.0
5.32
10.07
13.12
14.44
14.19
12.81
10.99
9.46
8.76
9.07
10.16
11.54
12.73
13.42
13.58
13.35
12.92
12.35
11.54
10.31
8.51
6.11
3.23
0.1
-3.01
-5.89
-8.47
-10.77
-12.99
-15.38
-18.22
-21.73
-25.93
-30.53
-34.91
-38.19
-39.42
-37.94
-33.57
-26.76
-18.45
-9.71
-1.48
5.67
11.52
16.09
19.42
21.48
22.28
21.92
20.76
19.3
18.04
17.3
17.1
17.23
17.33
17.1
16.42
15.35
14.02
12.54
10.91
9.03
6.75
3.95
0.65
-3.03
-6.88
-10.69
-14.34
-17.85
-21.33
-25.01
-29.06
-33.63
-38.69
-44.02
-49.07
-53.07
-55.08
-54.33
-50.46
-43.73
-34.9
-25.06
-15.23
-6.14
1.84
8.56
13.98
18.03
20.66
21.94
22.15
21.7
21.09
20.69
20.65
20.89
21.17
21.25
21.0
20.49
19.91
19.43
19.0
18.4
17.22
15.13
12.05
8.21
4.06
0.07
-3.49
-6.61
-9.46
-12.36
-15.62
-19.48
-24.11
-29.53
-35.44
-41.23
-45.93
-48.46
-47.96
-44.08
-37.16
-28.18
-18.32
-8.72
-0.13
7.1
12.96
17.55
20.99
23.33
24.63
25.05
24.84
24.38
24.07
24.2
24.84
25.78
26.66
27.09
26.86
26.03
24.86
23.65
22.55
21.5
20.29
18.64
16.41
13.54
10.21
6.7
3.48
1.13
0.22
1.17
4.08
8.59
14.01
19.49
24.24
27.73
29.66
30.0
28.9
26.68
23.79
20.79
18.22
16.47
15.7
15.8
16.48
17.39
18.27
18.92
19.21
19.1
18.56
17.63
16.4
15.05
13.71
12.45
11.23
9.92
8.38
6.59
4.61
2.61
0.79
-0.78
-2.13
-3.44
-4.95
-6.84
-9.14
-11.72
-14.35
-16.77
-18.9
-20.75
-22.52
-24.41
-26.66
-29.49
-33.09
-37.55
-42.77
-48.22
-53.01
-55.96
-56.06
-52.76
-46.23
-37.32
-27.24
-17.18
-7.98
-0.08
6.4
11.45
15.04
17.1
17.7
17.12
15.87
14.58
13.77
13.74
14.44
15.59
16.8
17.76
18.27
18.24
17.74
16.8
15.49
13.84
11.8
9.34
6.42
3.11
-0.42
-3.96
-7.34
-10.49
-13.46
-16.4
-19.49
-22.91
-26.84
-31.43
-36.67
-42.27
-47.51
-51.31
-52.5
-50.23
-44.43
-35.88
-25.98
-16.32
-8.06
-1.69
2.95
6.36
8.98
10.96
12.16
12.41
11.69
10.3
8.75
7.54
6.95
6.99
7.48
8.15
8.85
9.6
10.52
11.74
13.24
14.81
16.04
16.51
15.89
14.13
11.42
8.14
4.64
1.16
-2.26
-5.81
-9.68
-14.07
-19.06
-24.55
-30.33
-35.91
-40.62
-43.64
-44.2
-41.77
-36.34
-28.42
-18.94
-8.99
0.48
8.88
15.99
21.84
26.52
30.03
32.32
33.32
33.12
31.99
30.36
28.73
27.48
26.84
26.72
26.85
26.86
26.46
25.55
24.19
22.58
20.86
19.01
16.86
14.16
10.77
6.78
2.46
-1.81
-5.71
-9.11
-12.06
-14.8
-17.64
-20.86
-24.67
-29.19
-34.3
-39.59
-44.32
-47.51
-48.14
-45.54
-39.64
-31.11
-21.14
-11.08
-1.98
5.62
11.69
16.44
20.04
22.49
23.74
23.81
22.99
21.84
20.98
20.83
21.51
22.82
24.34
25.66
26.49
26.68
26.24
25.22
23.76
21.96
19.95
17.76
15.38
12.75
9.8
6.55
3.13
-0.25
-3.39
-6.2
-8.73
-11.13
-13.64
-16.49
-19.9
-24.04
-28.89
-34.2
-39.28
-43.16
-44.69
-43.03
-37.96
-29.99
-20.32
-10.3
-1.09
6.68
12.85
17.59
21.02
23.16
23.96
23.48
22.03
20.2
18.62
17.77
17.81
18.53
19.52
20.39
20.87
20.9
20.56
19.92
19.01
17.8
16.21
14.2
11.73
8.89
5.82
2.76
-0.12
-2.65
-4.86
-6.9
-9.03
-11.5
-14.47
-18.02
-22.13
-26.68
-31.37
-35.63
-38.66
-39.56
-37.63
-32.68
-25.15
-15.98
-6.31
2.86
10.9
17.55
22.8
26.64
29.05
29.96
29.46
27.87
25.73
23.71
22.37
22.0
22.54
23.64
24.78
25.54
25.66
25.14
24.11
22.74
21.12
19.2
16.88
14.05
10.67
6.89
3.0
-0.68
-3.91
-6.65
-9.06
-11.45
-14.13
-17.3
-21.08
-25.49
-30.48
-35.82
-41.01
-45.21
-47.37
-46.62
-42.6
-35.68
-26.87
-17.46
-8.56
-0.78
5.8
11.34
15.99
19.71
22.25
23.43
23.31
22.26
20.89
19.8
19.37
19.64
20.37
21.19
21.77
21.92
21.62
20.97
20.06
18.97
17.71
16.26
14.56
12.53
10.12
7.32
4.2
0.9
-2.38
-5.46
-8.32
-11.03
-13.72
-16.59
-19.79
-23.45
-27.6
-32.13
-36.63
-40.38
-42.43
-41.87
-38.18
-31.44
-22.38
-12.12
-1.86
7.48
15.41
21.77
26.64
30.14
32.44
33.67
34.07
33.94
33.61
33.34
33.27
33.42
33.65
33.76
33.53
32.83
31.55
29.77
27.62
25.26
22.83
20.34
17.65
14.59
11.04
7.03
2.74
-1.54
-5.59
-9.3
-12.72
-15.98
-19.23
-22.54
-25.94
-29.53
-33.48
-37.98
-43.09
-48.44
-53.23
-56.37
-56.75
-53.71
-47.31
-38.31
-27.92
-17.45
-7.9
0.14
6.53
11.37
14.85
17.13
18.38
18.75
18.47
17.82
17.13
16.68
16.62
16.98
17.63
18.39
19.09
19.6
19.83
19.72
19.22
18.31
16.98
15.29
13.3
11.05
8.59
5.91
3.05
0.03
-3.07
-6.17
-9.13
-11.88
-14.37
-16.67
-18.89
-21.28
-24.15
-27.78
-32.26
-37.32
-42.27
-46.05
-47.56
-45.97
-41.06
-33.29
-23.67
-13.49
-3.89
4.34
10.86
15.67
18.98
21.03
22.07
22.32
22.01
21.38
20.71
20.27
20.21
20.57
21.27
22.11
22.9
23.49
23.8
23.82
23.53
22.9
21.84
20.28
18.17
15.57
12.61
9.47
6.32
3.32
0.55
-1.93
-4.16
-6.21
-8.2
-10.29
-12.62
-15.32
-18.5
-22.26
-26.63
-31.38
-35.99
-39.58
-41.16
-39.9
-35.54
-28.45
-19.63
-10.25
-1.41
6.21
12.37
17.04
20.24
21.92
22.01
20.58
18.0
14.91
12.08
10.14
9.42
9.82
10.97
12.43
13.85
15.12
16.24
17.24
18.04
18.37
17.91
16.37
13.64
9.9
5.55
1.12
-2.87
-6.1
-8.5
-10.27
-11.77
-13.44
-15.66
-18.72
-22.7
-27.37
-32.11
-35.99
-37.98
-37.25
-33.55
-27.29
-19.38
-10.92
-2.87
4.16
9.91
14.29
17.26
18.77
18.9
17.9
16.29
14.7
13.7
13.61
14.4
15.74
17.19
18.38
19.14
19.46
19.48
19.34
19.09
18.71
18.05
16.92
15.09
12.34
8.59
3.99
-1.1
-6.13
-10.61
-14.26
-17.16
-19.63
-22.1
-25.0
-28.55
-32.82
-37.54
-42.15
-45.73
-47.23
-45.76
-40.98
-33.25
-23.63
-13.46
-4.02
3.9
10.03
14.5
17.52
19.27
19.78
19.15
17.62
15.64
13.77
12.55
12.26
12.88
14.12
15.53
16.72
17.39
17.44
16.89
15.87
14.54
12.99
11.29
9.37
7.15
4.55
1.6
-1.51
-4.51
-7.13
-9.23
-10.87
-12.32
-13.9
-15.99
-18.83
-22.52
-26.97
-31.77
-36.2
-39.27
-39.95
-37.55
-32.01
-23.97
-14.62
-5.32
2.87
9.38
14.14
17.33
19.16
19.78
19.28
17.88
15.94
13.99
12.51
11.81
11.94
12.68
13.62
14.36
14.6
14.25
13.43
12.39
11.33
10.3
9.17
7.7
5.66
2.99
-0.17
-3.55
-6.85
-9.91
-12.68
-15.3
-17.89
-20.56
-23.34
-26.3
-29.5
-32.98
-36.65
-40.1
-42.63
-43.36
-41.56
-36.94
-29.86
-21.15
-11.91
-3.08
4.72
11.22
16.35
20.05
22.24
22.85
21.99
20.05
17.59
15.29
13.71
13.15
13.55
14.56
15.7
16.55
16.86
16.65
16.06
15.22
14.17
12.78
10.93
8.56
5.79
2.9
0.19
-2.17
-4.18
-6.02
-7.91
-9.99
-12.29
-14.77
-17.47
-20.54
-24.15
-28.33
-32.71
-36.48
-38.61
-38.2
-34.85
-28.83
-20.97
-12.32
-3.89
3.67
9.96
14.79
18.05
19.67
19.71
18.4
16.22
13.83
11.85
10.75
10.59
11.16
12.02
12.76
13.19
13.31
13.31
13.32
13.3
12.98
12.02
10.2
7.54
4.36
1.09
-1.86
-4.34
-6.39
-8.28
-10.35
-12.95
-16.29
-20.42
-25.1
-29.76
-33.56
-35.55
-34.97
-31.52
-25.48
-17.62
-8.98
-0.56
6.86
12.78
16.98
19.41
20.19
19.59
18.05
16.11
14.31
13.12
12.77
13.26
14.37
15.73
16.97
17.85
18.25
18.18
17.68
16.71
15.16
12.89
9.88
6.28
2.41
-1.37
-4.77
-7.66
-10.13
-12.41
-14.78
-17.57
-21.04
-25.29
-30.18
-35.17
-39.41
-41.85
-41.64
-38.42
-32.47
-24.65
-15.99
-7.42
0.48
7.48
13.44
18.16
21.31
22.62
22.1
20.16
17.63
15.39
14.12
14.07
14.99
16.33
17.52
18.19
18.31
18.03
17.56
16.99
16.17
14.81
12.66
9.64
5.96
2.05
-1.68
-4.92
-7.7
-10.22
-12.8
-15.71
-19.12
-23.12
-27.74
-32.78
-37.79
-41.94
-44.18
-43.55
-39.58
-32.51
-23.31
-13.29
-3.69
4.68
11.48
16.7
20.4
22.64
23.44
22.98
21.66
20.04
18.69
18.0
18.06
18.68
19.52
20.19
20.47
20.32
19.84
19.17
18.37
17.37
15.93
13.85
11.04
7.62
3.89
0.21
-3.18
-6.19
-8.93
-11.58
-14.42
-17.7
-21.67
-26.43
-31.73
-36.91
-40.93
-42.69
-41.38
-36.86
-29.65
-20.78
-11.39
-2.42
5.5
12.0
16.86
19.89
21.06
20.55
18.89
16.75
14.84
13.67
13.4
13.96
15.08
16.48
17.94
19.27
20.31
20.93
20.92
20.15
18.48
15.9
12.49
8.49
4.23
0.07
-3.7
-6.93
-9.65
-12.04
-14.39
-17.07
-20.4
-24.53
-29.24
-33.92
-37.58
-39.16
-37.84
-33.38
-26.23
-17.36
-7.93
1.01
8.76
14.93
19.37
22.02
22.92
22.26
20.43
18.01
15.67
13.94
13.14
13.22
13.87
14.66
15.22
15.35
15.09
14.59
14.0
13.33
12.43
11.04
8.97
6.22
2.98
-0.36
-3.46
-6.13
-8.42
-10.6
-13.06
-16.13
-19.93
-24.26
-28.52
-31.89
-33.43
-32.42
-28.57
-22.13
-13.89
-4.88
3.84
11.41
17.29
21.23
23.24
23.5
22.42
20.51
18.32
16.37
14.98
14.2
13.93
13.93
14.05
14.17
14.29
14.39
14.38
14.1
13.32
11.88
9.72
6.9
3.64
0.2
-3.14
-6.19
-8.88
-11.3
-13.67
-16.31
-19.58
-23.69
-28.58
-33.79
-38.46
-41.49
-41.88
-39.04
-33.08
-24.75
-15.27
-5.82
2.66
9.68
15.06
18.81
20.98
21.66
21.04
19.55
17.77
16.36
15.79
16.27
17.61
19.41
21.13
22.35
22.85
22.65
21.94
20.9
19.67
18.2
16.36
14.02
11.11
7.75
4.19
0.71
-2.48
-5.29
-7.83
-10.37
-13.28
-16.89
-21.34
-26.38
-31.34
-35.21
-36.99
-36.01
-32.17
-26.0
-18.43
-10.47
-2.93
3.69
9.17
13.41
16.35
17.9
18.1
17.16
15.52
13.83
12.68
12.46
13.2
14.54
15.96
16.98
17.36
17.18
16.71
16.21
15.8
15.31
14.49
13.07
10.94
8.17
4.95
1.52
-1.9
-5.17
-8.22
-11.06
-13.76
-16.51
-19.58
-23.19
-27.34
-31.7
-35.49
-37.75
-37.59
-34.53
-28.76
-21.02
-12.37
-3.86
3.78
10.2
15.33
19.17
21.68
22.78
22.48
21.08
19.15
17.37
16.36
16.39
17.29
18.61
19.77
20.36
20.29
19.75
19.02
18.31
17.61
16.62
15.03
12.59
9.36
5.65
1.95
-1.36
-4.12
-6.46
-8.68
-11.09
-13.92
-17.28
-21.21
-25.67
-30.49
-35.19
-39.0
-40.93
-40.09
-36.08
-29.18
-20.29
-10.67
-1.5
6.41
12.72
17.41
20.55
22.19
22.38
21.29
19.3
17.0
15.03
13.86
13.66
14.27
15.29
16.27
16.89
17.0
16.66
16.03
15.24
14.3
13.01
11.14
8.51
5.23
1.63
-1.81
-4.71
-6.96
-8.75
-10.5
-12.66
-15.59
-19.38
-23.81
-28.29
-32.01
-34.04
-33.67
-30.55
-24.88
-17.33
-8.86
-0.46
7.1
13.28
17.79
20.47
21.36
20.65
18.78
16.34
13.99
12.29
11.51
11.6
12.27
13.13
13.85
14.26
14.36
14.21
13.82
13.13
11.97
10.23
7.87
4.99
1.8
-1.44
-4.53
-7.29
-9.72
-11.91
-14.12
-16.7
-20.02
-24.3
-29.42
-34.87
-39.71
-42.82
-43.23
-40.44
-34.62
-26.58
-17.47
-8.45
-0.44
6.08
10.94
14.19
15.93
16.32
15.64
14.3
12.8
11.65
11.19
11.48
12.35
