4.57
2.38
0.08
-2.21
-4.38
-6.38
-8.28
-10.26
-12.47
-15.0
-17.84
-20.87
-23.94
-26.93
-29.84
-32.75
-35.81
-39.22
-43.19
-47.9
-53.41
-59.56
-65.79
-71.22
-74.73
-75.28
-72.33
-66.01
-57.16
-47.02
-36.74
-27.11
-18.36
-10.33
-2.75
4.42
10.94
16.3
20.07
22.11
22.79
22.85
23.16
24.38
26.76
30.09
33.87
37.61
40.93
43.71
45.86
47.25
47.63
46.73
44.46
41.02
36.9
32.65
28.69
25.17
21.94
18.71
15.27
11.54
7.61
3.58
-0.58
-5.06
-10.16
-16.12
-22.84
-29.83
-36.21
-40.85
-42.73
-41.23
-36.36
-28.81
-19.79
-10.8
-3.19
2.1
4.77
5.12
3.91
2.04
0.3
-0.87
-1.36
-1.37
-1.23
-1.24
-1.6
-2.36
-3.49
-4.91
-6.47
-7.99
-9.21
-9.89
-9.92
-9.43
-8.81
-8.63
-9.34
-10.97
-13.0
-14.51
-14.61
-12.91
-9.82
-6.45
-4.13
-3.87
-5.99
-10.08
-15.29
-20.63
-25.23
-28.4
-29.61
-28.48
-24.83
-18.82
-11.0
-2.24
6.44
14.12
20.23
24.53
27.15
28.37
28.58
28.15
27.41
26.6
25.9
25.38
25.0
24.65
24.23
23.67
22.97
22.2
21.38
20.49
19.41
17.98
16.04
13.45
10.19
6.36
2.19
-2.05
-6.07
-9.69
-12.88
-15.84
-18.89
-22.42
-26.77
-32.12
-38.31
-44.79
-50.61
-54.59
-55.64
-53.1
-47.02
-38.18
-27.77
-17.11
-7.17
1.45
8.6
14.34
18.77
21.94
23.9
24.73
24.63
23.98
23.23
22.86
23.1
23.93
25.05
25.99
26.44
26.31
25.77
25.13
24.58
24.02
23.14
21.51
18.86
15.17
10.71
6.02
1.76
-1.39
-2.79
-2.01
1.06
6.14
12.58
19.54
26.14
31.66
35.66
37.91
38.4
37.24
34.69
31.16
27.26
23.62
20.78
19.07
18.47
18.73
19.51
20.43
21.15
21.38
20.9
19.58
17.47
14.88
12.27
10.05
8.38
7.06
5.68
3.77
1.13
-2.1
-5.45
-8.43
-10.71
-12.25
-13.3
-14.21
-15.34
-16.86
-18.77
-21.01
-23.48
-26.09
-28.82
-31.66
-34.63
-37.82
-41.4
-45.61
-50.57
-56.11
-61.59
-65.99
-68.09
-66.94
-62.23
-54.4
-44.56
-34.06
-24.11
-15.44
-8.34
-2.73
1.57
4.7
6.72
7.71
7.83
7.4
6.85
6.6
6.97
8.07
9.72
11.63
13.44
14.94
16.06
16.88
17.52
17.98
18.07
17.49
16.0
13.52
10.33
6.89
3.71
1.11
-0.91
-2.62
-4.4
-6.56
-9.29
-12.66
-16.64
-21.15
-25.88
-30.3
-33.58
-34.81
-33.3
-28.87
-22.01
-13.66
-4.97
3.12
10.02
15.55
19.76
22.73
24.51
25.1
24.56
23.12
21.14
19.11
17.5
16.61
16.49
16.97
17.69
18.29
18.5
18.28
17.7
16.91
15.97
14.79
13.21
11.08
8.37
5.22
1.91
-1.3
-4.25
-7.03
-9.84
-12.99
-16.76
-21.29
-26.58
-32.38
-38.18
-43.22
-46.57
-47.39
-45.19
-40.02
-32.47
-23.54
-14.28
-5.6
1.95
8.11
12.8
15.99
17.65
17.87
16.87
15.08
13.09
11.53
10.81
11.06
12.01
13.16
14.01
14.22
13.78
12.91
11.88
10.83
9.64
8.07
5.84
2.86
-0.69
-4.46
-8.05
-11.19
-13.86
-16.27
-18.77
-21.75
-25.48
-30.04
-35.19
-40.43
-44.96
-47.84
-48.27
-45.75
-40.32
-32.53
-23.26
-13.47
-4.01
4.54
11.78
17.39
21.11
22.81
22.55
20.77
18.18
15.68
14.01
13.59
14.33
15.8
17.38
18.54
19.06
18.98
18.54
17.93
17.22
16.26
14.81
12.71
9.95
6.73
3.36
0.2
-2.57
-4.95
-7.15
-9.48
-12.31
-15.9
-20.36
-25.57
-31.13
-36.34
-40.28
-41.99
-40.77
-36.37
-29.2
-20.16
-10.44
-1.11
7.07
13.75
18.86
22.43
24.54
25.26
24.84
23.69
22.35
21.4
21.19
21.76
22.84
23.98
24.8
25.07
24.83
24.22
23.39
22.41
21.17
19.52
17.31
14.53
11.34
7.97
4.71
1.72
-0.95
-3.46
-6.05
-9.03
-12.63
-16.98
-21.98
-27.24
-32.07
-35.55
-36.78
-35.09
-30.33
-22.91
-13.75
-3.99
5.28
13.22
19.37
23.57
25.89
26.54
25.84
24.19
22.05
19.89
18.1
16.98
16.55
16.64
16.93
17.08
16.86
16.22
15.26
14.12
12.84
11.3
9.29
6.68
3.51
0.03
-3.41
-6.52
-9.21
-11.65
-14.14
-17.06
-20.75
-25.29
-30.48
-35.7
-40.02
-42.39
-41.98
-38.47
-32.1
-23.68
-14.17
-4.54
4.5
12.46
18.94
23.65
26.37
27.13
26.23
24.25
21.89
19.8
18.41
17.89
18.09
18.71
19.36
19.73
19.69
19.3
18.72
18.08
17.38
16.44
15.03
12.96
10.2
6.92
3.4
-0.03
-3.18
-6.0
-8.68
-11.53
-14.96
-19.3
-24.68
-30.82
-37.01
-42.15
-45.06
-44.85
-41.21
-34.54
-25.78
-16.1
-6.53
2.2
9.7
15.72
20.14
22.82
23.78
23.24
21.69
19.78
18.14
17.2
17.07
17.57
18.33
18.96
19.24
19.12
18.73
18.19
17.56
16.71
15.36
13.18
10.01
5.93
1.27
-3.47
-7.8
-11.45
-14.47
-17.13
-19.86
-23.1
-27.17
-32.18
-38.0
-44.16
-49.8
-53.8
-55.05
-52.78
-46.9
-38.06
-27.51
-16.59
-6.43
2.31
9.43
14.97
19.03
21.66
22.94
23.06
22.43
21.55
20.95
20.95
21.6
22.7
23.89
24.78
25.17
25.02
24.43
23.57
22.56
21.37
19.89
17.86
15.06
11.39
6.95
2.08
-2.74
-7.1
-10.78
-13.87
-16.74
-19.84
-23.55
-28.12
-33.55
-39.64
-45.91
-51.6
-55.74
-57.24
-55.27
-49.53
-40.48
-29.21
-17.23
-5.93
3.7
11.32
17.03
21.22
24.22
26.2
27.2
27.29
26.7
25.88
25.33
25.41
26.17
27.35
28.52
29.27
29.42
29.0
28.21
27.2
26.02
24.52
22.5
19.78
16.3
12.22
7.85
3.56
-0.32
-3.63
-6.42
-8.9
-11.42
-14.3
-17.82
-22.22
-27.6
-33.84
-40.48
-46.62
-51.08
-52.67
-50.63
-44.88
-36.11
-25.49
-14.35
-3.77
5.56
13.37
19.52
24.02
26.86
28.11
27.98
26.86
25.31
23.91
23.16
23.32
24.37
26.01
27.78
29.2
29.96
30.02
29.52
28.72
27.75
26.58
24.97
22.68
19.57
15.73
11.5
7.26
3.31
-0.26
-3.55
-6.79
-10.25
-14.14
-18.62
-23.74
-29.4
-35.26
-40.73
-44.97
-47.09
-46.43
-42.74
-36.32
-27.93
-18.54
-9.03
-0.08
7.93
14.76
20.22
24.08
26.16
26.51
25.46
23.64
21.81
20.63
20.45
21.15
22.35
23.54
24.33
24.58
24.35
23.8
23.03
21.98
20.42
18.17
15.14
11.47
7.47
3.53
-0.1
-3.32
-6.3
-9.29
-12.56
-16.34
-20.72
-25.65
-30.92
-36.03
-40.28
-42.83
-42.95
-40.22
-34.73
-27.0
-17.89
-8.34
0.86
9.09
15.93
21.12
24.52
26.15
26.25
25.26
23.72
22.18
21.02
20.38
20.16
20.14
20.07
19.8
19.35
18.85
18.46
18.2
17.92
17.3
15.99
13.75
10.67
7.02
3.27
-0.25
-3.38
-6.23
-9.13
-12.48
-16.61
-21.67
-27.5
-33.58
-39.05
-42.85
-44.04
-42.09
-37.06
-29.6
-20.71
-11.48
-2.78
4.84
11.08
15.8
18.94
20.47
20.51
19.35
17.49
15.52
13.93
13.0
12.69
12.74
12.84
12.78
12.56
12.35
12.31
12.44
12.5
12.1
10.91
8.83
6.02
2.82
-0.45
-3.59
-6.56
-9.4
-12.13
-14.77
-17.47
-20.46
-24.04
-28.32
-32.97
-37.11
-39.57
-39.3
-35.81
-29.35
-20.81
-11.33
-1.96
6.59
13.98
20.07
24.72
27.87
29.46
29.61
28.67
27.14
25.59
24.44
23.87
23.79
23.98
24.14
24.13
23.92
23.62
23.32
23.02
22.57
21.68
20.05
17.5
14.03
9.9
5.5
1.26
-2.56
-5.92
-9.0
-12.16
-15.84
-20.36
-25.81
-31.88
-37.87
-42.76
-45.44
-45.04
-41.25
-34.45
-25.57
-15.83
-6.36
2.01
8.86
14.06
17.68
19.87
20.85
20.89
20.34
19.59
19.03
18.89
19.24
19.93
20.64
21.07
20.99
20.38
19.38
18.2
16.95
15.58
13.87
11.59
8.66
5.2
1.52
-2.06
-5.33
-8.25
-10.99
-13.79
-16.9
-20.54
-24.84
-29.76
-34.99
-39.87
-43.46
-44.79
-43.21
-38.68
-31.77
-23.49
-14.84
-6.57
0.91
7.4
12.69
16.55
18.77
19.38
18.76
17.52
16.36
15.74
15.79
16.32
17.06
17.8
18.48
19.18
19.94
20.68
21.14
21.02
20.09
18.36
16.07
13.61
11.27
9.22
7.39
5.59
3.64
1.41
-1.2
-4.21
-7.61
-11.17
-14.42
-16.6
-16.89
-14.64
-9.71
-2.54
6.01
14.98
23.6
31.45
38.38
44.31
49.01
52.12
53.28
52.38
49.71
45.88
41.66
37.62
33.96
30.53
27.03
23.28
19.36
15.46
11.73
8.0
3.69
-1.9
-9.36
-18.71
-29.34
-40.18
-50.04
-58.02
-63.79
-67.58
-70.01
-71.74
-73.18
-74.33
-74.8
-73.98
-71.28
-66.34
-59.2
-50.29
-40.34
-30.2
-20.62
-12.17
-5.14
0.36
4.37
7.03
8.52
9.1
9.12
8.97
9.09
9.81
11.29
13.47
16.01
18.5
20.5
21.72
22.0
21.3
19.67
17.16
13.9
10.11
6.04
1.96
-1.92
-5.59
-9.2
-13.02
-17.36
-22.35
-27.87
-33.36
-37.95
-40.58
-40.32
-36.72
-30.0
-21.03
-11.1
-1.54
6.68
13.03
17.44
20.08
21.22
21.15
20.15
18.61
16.93
15.5
14.61
14.32
14.5
14.88
15.23
15.36
15.23
14.85
14.22
13.27
11.9
9.96
7.43
4.38
1.03
-2.33
-5.48
-8.26
-10.79
-13.3
-16.18
-19.71
-23.97
-28.64
-33.01
-36.15
-37.12
-35.25
-30.45
-23.15
-14.21
-4.69
4.44
12.46
18.97
23.76
26.79
28.17
28.09
26.92
25.2
23.45
22.11
21.38
21.2
21.3
21.36
21.09
20.38
19.23
17.75
16.03
14.07
11.82
9.21
6.2
2.89
-0.56
-3.94
-7.08
-9.95
-12.65
-15.4
-18.42
-21.92
-25.95
-30.36
-34.76
-38.44
-40.55
-40.3
-37.23
-31.44
-23.62
-14.79
-6.04
1.77
8.15
12.9
16.02
17.55
17.61
16.47
14.53
12.39
10.61
9.58
9.42
9.93
10.81
11.65
12.2
12.32
12.01
11.34
10.38
9.17
7.72
6.03
4.07
1.86
-0.58
-3.15
-5.82
-8.58
-11.51
-14.8
-18.61
-22.94
-27.44
-31.43
-33.94
-34.06
-31.23
-25.51
-17.63
-8.76
-0.15
7.23
12.87
16.73
19.04
20.12
20.21
19.45
18.03
16.21
14.33
12.77
11.77
11.42
11.59
12.01
12.37
12.46
12.14
11.4
10.27
8.81
7.06
5.07
2.88
0.52
-2.02
-4.79
-7.84
-11.3
-15.23
-19.68
-24.46
-29.19
-33.16
-35.48
-35.32
-32.23
-26.32
-18.32
-9.4
-0.75
6.69
12.46
16.51
19.04
20.29
20.48
19.75
18.31
16.4
14.36
12.49
11.08
10.26
10.02
10.26
10.78
11.31
11.55
11.21
10.09
8.12
5.44
2.32
-0.94
-4.09
-7.08
-9.94
-12.84
-15.91
-19.3
-23.1
-27.28
-31.64
-35.61
-38.32
-38.78
-36.25
-30.59
-22.46
-13.11
-3.95
3.89
9.91
14.11
16.81
18.3
18.71
18.14
16.75
14.95
13.27
12.17
11.87
12.23
12.9
13.46
13.66
13.44
12.89
12.1
11.05
9.6
7.58
4.91
1.71
-1.77
-5.18
-8.27
-10.93
-13.32
-15.73
-18.55
-22.13
-26.63
-31.85
-37.19
-41.59
-43.85
-42.9
-38.34
-30.59
-20.8
-10.52
-1.09
6.65
12.51
16.67
19.48
21.14
21.68
21.2
19.9
18.22
16.64
15.58
15.15
15.22
15.44
15.51
15.27
14.74
13.99
13.12
12.05
10.65
8.77
6.39
3.68
0.94
-1.54
-3.6
-5.3
-6.85
-8.52
-10.54
-13.09
-16.32
-20.27
-24.75
-29.23
-32.81
-34.38
-33.02
-28.41
-21.03
-12.01
-2.76
5.6
12.45
17.75
21.73
24.64
26.53
27.35
27.12
26.05
24.58
23.24
22.48
22.45
22.97
23.65
24.06
23.9
23.18
22.05
20.77
19.5
18.19
16.65
14.65
12.09
9.01
5.65
2.32
-0.76
-3.49
-5.98
-8.45
-11.2
-14.47
-18.33
-22.6
-26.79
-30.17
-31.93
-31.39
-28.29
-22.8
-15.56
-7.47
0.55
7.72
13.54
17.78
20.4
21.53
21.39
20.31
18.67
16.85
15.16
13.77
12.72
11.93
11.31
10.8
10.41
10.14
9.94
9.69
9.16
8.16
6.59
4.5
2.05
-0.5
-3.02
-5.46
-7.87
-10.41
-13.21
-16.43
-20.14
-24.3
-28.6
-32.47
-35.07
-35.51
-33.2
-28.06
-20.66
-12.03
-3.34
4.48
10.88
15.76
19.25
21.5
22.61
22.68
21.89
20.6
19.3
18.46
18.36
19.06
20.29
21.72
23.01
24.0
24.63
24.92
24.92
24.65
24.16
23.57
23.04
22.66
22.39
22.02
21.35
20.32
19.12
18.16
17.74
18.01
18.76
19.8
21.16
23.33
27.14
33.41
42.57
54.54
68.85
84.79
101.42
117.2
129.64
135.66
132.49
119.06
96.95
70.12
43.66
21.86
6.83
-1.63
-5.28
-6.12
-5.6
-4.64
-4.05
-5.07
-9.17
-17.52
-30.3
-46.48
-64.29
-81.94
-98.28
-112.88
-125.89
-137.37
-146.92
-153.7
-156.7
-155.25
-149.28
-139.4
-126.55
-111.72
-95.74
-79.22
-62.67
-46.51
-31.05
-16.42
-2.64
10.22
21.97
32.24
40.66
47.05
51.58
54.72
56.99
58.77
60.24
61.44
62.47
63.58
65.09
67.24
70.0
73.12
76.22
79.06
81.58
83.97
86.47
89.26
92.36
95.67
99.19
103.0
107.38
112.5
118.18
123.62
127.37
127.44
121.75
108.63
87.39
58.77
24.92
-10.85
-44.92
-74.21
-96.84
-112.37
-121.63
-126.32
-128.62
-130.86
-134.99
-142.11
-151.87
-162.33
-170.51
-173.5
-169.64
-159.14
-143.87
-126.37
-108.77
-92.11
-76.47
-61.51
-47.07
-33.48
-21.43
-11.54
-4.1
1.02
4.32
6.39
7.87
9.3
11.23
14.27
19.13
26.33
35.83
46.64
56.93
64.54
67.77
66.04
59.86
50.36
38.56
25.05
10.21
-5.21
-19.6
-30.7
-36.3
-35.19
-27.63
-15.34
-0.83
13.23
24.44
30.75
30.54
22.92
8.26
-11.64
-33.7
-54.6
-71.97
-85.2
-95.36
-104.16
-112.69
-120.9
-128.04
-133.7
-138.55
-144.04
-151.34
-160.25
-168.95
-174.89
-176.16
-172.36
-164.27
-152.93
-138.7
-121.29
-100.62
-77.59
-54.26
-33.01
-15.37
-1.3
10.41
21.12
31.46
41.0
48.75
53.85
56.16
56.17
54.78
52.91
51.35
50.86
52.33
56.75
64.82
76.39
90.02
103.1
112.48
115.54
111.24
100.48
85.77
70.22
56.32
45.27
36.84
29.87
23.09
15.63
7.22
-1.82
-10.78
-18.69
-24.5
-27.23
-26.29
-21.71
-14.11
-4.71
5.0
13.7
20.48
24.97
27.36
28.2
28.24
28.23
28.78
30.23
32.64
35.8
39.38
43.05
46.61
50.07
53.52
56.98
60.26
62.97
64.58
64.63
62.83
59.12
53.66
46.71
38.61
29.73
20.53
11.51
3.17
-4.12
-10.17
-14.94
-18.45
-20.62
-21.21
-19.92
-16.51
-11.05
-4.02
3.82
11.54
18.39
23.91
28.0
30.87
32.82
34.24
35.54
37.14
39.49
42.98
47.89
54.25
61.77
69.67
76.7
81.23
81.53
76.27
64.95
48.22
27.81
6.09
-14.59
-32.54
-46.97
-57.98
-66.18
-72.44
-77.68
-82.76
-88.46
-95.3
-103.35
-111.99
-120.03
-125.85
-127.91
-125.12
-117.22
-104.82
-89.2
-72.03
-54.91
-39.14
-25.38
-13.79
-4.2
3.71
10.11
15.08
18.69
21.12
22.74
24.0
25.3
26.84
28.69
30.7
32.73
34.66
36.41
37.9
39.06
39.82
40.18
40.2
40.02
39.78
39.52
39.19
38.61
37.55
35.88
33.67
31.31
29.49
29.03
30.69
34.85
41.43
49.81
59.16
68.63
77.64
85.93
93.49
100.35
106.42
111.38
114.69
115.69
113.62
107.76
97.57
82.9
64.28
42.87
20.34
-1.52
-21.29
-38.2
-52.17
-63.54
-72.78
-80.16
-85.71
-89.4
-91.27
-91.6
-90.95
-89.97
-89.41
-89.98
-92.31
-96.78
-103.38
-111.51
-119.86
-126.65
-129.98
-128.44
-121.52
-109.86
-94.96
-78.83
-63.39
-50.1
-39.65
-32.04
-26.66
-22.6
-18.86
-14.63
-9.47
-3.26
3.85
11.52
19.37
26.95
33.81
39.54
43.82
46.53
47.71
47.43
45.7
42.29
36.89
29.27
19.5
8.08
-4.09
-15.99
-26.88
-36.44
-44.87
-52.57
-59.79
-66.36
-71.62
-74.64
-74.58
-71.06
-64.26
-54.87
-43.84
-32.12
-20.49
-9.48
0.62
9.66
17.59
24.33
29.8
33.9
36.57
37.86
38.06
37.6
37.14
37.28
38.54
41.12
44.84
49.1
53.01
55.63
56.17
54.29
50.05
43.87
36.4
28.35
20.34
12.86
6.23
0.46
-4.69
-9.56
-14.29
-18.56
-21.54
-22.13
-19.38
-13.01
-3.63
7.47
18.71
28.68
36.5
41.78
44.53
44.92
43.2
39.67
34.84
29.35
23.93
19.2
15.53
12.97
11.28
10.06
8.91
7.5
5.67
3.35
0.57
-2.64
-6.26
-10.26
-14.53
-18.9
-23.12
-26.99
-30.43
-33.51
-36.5
-39.77
-43.68
-48.41
-53.82
-59.35
-64.0
-66.52
-65.76
-61.04
-52.43
-40.83
-27.74
-14.83
-3.49
5.51
11.92
15.99
18.1
18.68
18.11
16.79
15.16
13.64
12.5
11.77
11.3
10.81
10.11
9.18
8.18
7.27
6.51
5.69
4.42
2.33
-0.81
-4.92
-9.61
-14.32
-18.53
-21.88
-24.33
-26.16
-27.87
-30.03
-33.09
-37.06
-41.43
-45.16
-46.94
-45.62
-40.66
-32.3
-21.52
-9.68
1.85
12.05
20.36
26.61
30.84
33.25
34.1
33.71
32.44
30.72
28.96
27.54
26.78
26.87
27.83
29.43
31.3
32.94
33.85
33.72
32.37
29.87
26.38
22.19
17.6
12.9
8.28
3.86
-0.42
-4.72
-9.35
-14.58
-20.49
-26.8
-32.7
-37.0
-38.48
-36.26
-30.26
-21.21
-10.45
0.49
10.3
18.21
23.93
27.47
29.04
28.86
27.27
24.73
21.81
19.09
17.04
15.9
15.67
16.18
17.15
18.27
19.2
19.62
19.21
17.76
15.25
11.9
8.06
4.15
0.4
-3.14
-6.61
-10.32
-14.51
-19.36
-24.93
-31.05
-37.24
-42.72
-46.4
-47.15
-44.15
-37.22
-27.02
