17.82
16.5
15.25
14.07
12.73
10.87
8.19
4.61
0.37
-4.09
-8.25
-11.78
-14.61
-17.01
-19.56
-22.9
-27.56
-33.69
-40.95
-48.35
-54.45
-57.64
-56.62
-50.88
-40.92
-28.12
-14.38
-1.51
9.25
17.44
23.27
27.26
29.87
31.27
31.38
30.03
27.26
23.42
19.14
15.22
12.33
10.8
10.45
10.74
10.95
10.51
9.18
7.12
4.72
2.4
0.34
-1.56
-3.65
-6.31
-9.85
-14.44
-20.13
-26.77
-33.92
-40.72
-45.87
-47.93
-45.71
-38.8
-27.86
-14.42
-0.49
12.16
22.31
29.47
33.64
35.07
34.05
30.89
26.05
20.22
14.34
9.34
5.92
4.29
4.08
4.57
4.92
4.51
3.16
1.11
-1.16
-3.19
-4.86
-6.45
-8.52
-11.76
-16.62
-23.23
-31.25
-39.89
-47.97
-54.19
-57.35
-56.56
-51.58
-42.77
-31.09
-17.83
-4.3
8.33
19.16
27.55
33.13
35.77
35.66
33.25
29.25
24.5
19.81
15.83
12.9
11.03
9.93
9.13
8.16
6.67
4.61
2.15
-0.39
-2.77
-4.98
-7.3
-10.19
-14.23
-19.84
-27.19
-35.92
-45.1
-53.3
-58.78
-60.01
-56.16
-47.38
-34.86
-20.42
-5.95
7.12
18.01
26.53
32.7
36.56
38.1
37.33
34.5
30.27
25.54
21.27
18.1
16.21
15.24
14.56
13.52
11.75
9.31
6.62
4.09
1.97
0.13
-1.91
-4.74
-8.81
-14.31
-21.17
-29.15
-37.8
-46.41
-53.89
-58.82
-59.67
-55.35
-45.76
-31.99
-16.06
-0.35
13.2
23.56
30.68
35.14
37.61
38.51
38.0
36.08
32.99
29.22
25.52
22.6
20.77
19.9
19.38
18.52
16.86
14.42
11.66
9.21
7.4
5.99
4.28
1.39
-3.2
-9.5
-17.04
-25.18
-33.49
-41.67
-49.34
-55.72
-59.51
-59.16
-53.58
-42.69
-27.72
-10.85
5.47
19.22
29.36
35.82
39.26
40.52
40.29
39.0
36.81
33.92
30.58
27.24
24.36
22.33
21.26
20.97
21.06
21.06
20.62
19.55
17.83
15.47
12.49
8.84
4.54
-0.31
-5.53
-10.89
-16.41
-22.36
-29.21
-37.19
-45.85
-53.78
-58.85
-58.99
-52.94
-40.98
-24.94
-7.58
8.41
21.23
30.38
36.36
40.09
42.32
43.27
42.74
40.52
36.63
31.65
26.53
22.36
19.87
19.23
19.92
21.0
21.49
20.71
18.53
15.34
11.76
8.27
5.05
1.93
-1.45
-5.44
-10.26
-15.96
-22.55
-30.04
-38.35
-47.1
-55.38
-61.77
-64.58
-62.41
-54.71
-42.05
-26.11
-9.14
6.59
19.46
28.75
34.59
37.58
38.33
37.31
34.77
30.96
26.36
21.74
17.97
15.67
14.87
14.99
15.18
14.71
13.41
11.58
9.77
8.28
6.91
5.06
2.12
-2.19
-7.59
-13.48
-19.32
-25.07
-31.16
-38.07
-45.76
-53.29
-58.8
-60.18
-55.83
-45.52
-30.55
-13.42
3.1
16.78
26.54
32.51
35.56
36.7
36.6
35.44
33.14
29.71
25.48
21.13
17.47
15.01
13.88
13.75
14.07
14.3
14.1
13.29
11.81
9.59
6.47
2.32
-2.93
-9.27
-16.72
-25.34
-35.27
-46.56
-58.72
-70.54
-80.01
-84.72
-82.56
-72.53
-55.22
-32.82
-8.56
14.1
32.41
44.8
51.03
51.98
49.16
44.2
38.53
33.12
28.54
25.05
22.79
21.8
21.93
22.89
24.08
24.81
24.47
22.8
19.97
16.48
12.85
9.35
6.0
2.46
-1.65
-6.64
-12.74
-20.01
-28.54
-38.18
-48.42
-58.19
-65.8
-69.43
-67.62
-59.99
-47.4
-31.82
-15.62
-0.81
11.46
21.08
28.47
34.17
38.33
40.8
41.32
39.92
37.1
33.8
31.0
29.38
29.03
29.48
29.98
29.86
28.7
26.45
23.18
19.15
14.44
9.14
3.33
-2.74
-8.79
-14.51
-19.72
-24.59
-29.53
-35.11
-41.67
-48.94
-55.83
-60.59
-61.32
-56.64
-46.42
-31.78
-14.81
2.21
17.46
30.01
39.72
46.81
51.53
53.88
53.87
51.63
47.71
42.86
37.92
33.5
29.85
27.02
24.88
23.41
22.63
22.48
22.68
22.65
21.73
19.36
15.45
10.34
4.72
-0.74
-5.64
-10.03
-14.36
-19.26
-25.3
-32.72
-41.34
-50.3
-58.15
-63.06
-63.29
-57.8
-46.7
-31.3
-13.83
3.27
18.01
29.3
36.94
41.34
43.15
43.0
41.41
38.87
35.78
32.48
29.2
26.07
23.17
20.64
18.73
17.65
17.46
17.86
18.25
17.92
16.3
13.24
9.01
4.14
-0.82
-5.52
-9.88
-14.09
-18.46
-23.4
-29.27
-36.3
-44.37
-52.77
-60.14
-64.66
-64.61
-58.89
-47.66
-32.27
-15.06
1.54
15.63
26.25
33.41
37.68
39.74
40.02
38.65
35.66
31.21
25.83
20.27
15.32
11.34
8.13
4.94
0.98
-4.18
-10.15
-15.79
-19.72
-20.85
-19.01
-14.99
-10.25
-6.42
-4.82
-6.14
-10.5
-17.57
-26.72
-37.0
-47.1
-55.38
-60.1
-59.81
-53.88
-42.75
-27.98
-11.75
3.68
16.64
26.4
33.03
37.03
38.89
38.79
36.7
32.7
27.32
21.53
16.57
13.35
12.07
12.1
12.35
11.86
10.22
7.76
5.17
3.06
1.49
0.01
-2.16
-5.54
-10.26
-16.02
-22.38
-29.06
-35.9
-42.65
-48.68
-52.86
-53.76
-50.21
-41.84
-29.4
-14.71
-0.04
12.47
21.45
26.51
28.22
27.72
26.29
24.93
24.21
24.26
24.87
25.64
26.07
25.64
23.9
20.64
16.02
10.56
5.13
0.58
-2.54
-4.19
-4.93
-5.63
-7.11
-9.91
-14.23
-19.98
-26.96
-34.84
-43.04
-50.63
-56.2
-58.16
-55.16
-46.7
-33.43
-17.12
-0.2
14.95
26.67
34.39
38.61
40.39
40.84
40.6
39.73
37.94
34.95
30.86
26.28
22.14
19.26
17.99
18.02
18.6
18.74
17.72
15.16
11.21
6.36
1.23
-3.57
-7.77
-11.43
-15.01
-19.22
-24.76
-31.98
-40.6
-49.51
-56.94
-60.87
-59.73
-52.91
-41.06
-25.93
-9.76
5.35
18.01
27.77
34.84
39.71
42.76
44.09
43.61
41.32
37.52
32.88
28.33
24.7
22.51
21.78
22.0
22.42
22.34
21.4
19.67
17.56
15.48
13.59
11.65
9.12
5.41
0.27
-6.11
-13.16
-20.25
-27.17
-34.11
-41.46
-49.22
-56.61
-62.02
-63.43
-59.27
-49.15
-34.12
-16.36
1.59
17.61
30.4
39.53
45.15
47.57
47.21
44.56
40.28
35.24
30.33
26.3
23.52
21.96
21.24
20.94
20.69
20.32
19.74
18.82
17.37
15.09
11.77
7.39
2.19
-3.35
-8.8
-13.95
-19.02
-24.6
-31.49
-40.22
-50.63
-61.63
-71.28
-77.32
-77.87
-72.21
-60.97
-46.02
-29.77
-14.44
-1.47
8.68
16.19
21.54
25.0
26.63
26.31
24.17
20.68
16.66
13.11
10.78
9.99
10.52
11.77
13.05
13.8
13.83
13.22
12.24
11.14
10.06
8.9
7.36
5.1
1.81
-2.73
-8.59
-15.63
-23.53
-31.62
-38.9
-44.05
-45.79
-43.34
-36.69
-26.81
-15.3
-3.96
5.88
13.58
19.17
23.04
25.47
26.52
26.05
24.09
20.95
17.4
14.36
12.61
12.42
13.49
15.1
16.48
17.1
16.78
15.66
13.95
11.8
9.16
5.84
1.72
-3.28
-9.17
-15.97
-23.73
-32.28
-41.06
-48.95
-54.36
-55.72
-52.04
-43.4
-31.01
-16.84
-2.92
9.28
19.09
26.54
31.88
35.23
36.46
35.43
32.21
27.4
22.07
17.37
14.2
12.74
12.56
12.76
12.48
11.17
8.78
5.73
2.61
-0.19
-2.6
-4.96
-7.79
-11.65
-16.9
-23.73
-31.9
-40.8
-49.31
-55.93
-59.03
-57.38
-50.54
-39.15
-24.79
-9.5
4.81
16.87
26.15
32.69
36.86
39.04
39.5
38.41
36.01
32.64
28.82
25.15
22.15
20.15
19.16
18.84
18.6
17.84
16.14
13.45
10.04
6.38
2.81
-0.62
-4.2
-8.51
-14.15
-21.55
-30.61
-40.6
-50.17
-57.62
-61.28
-59.97
-53.46
-42.52
-28.68
-13.86
0.23
12.41
22.18
29.54
34.74
38.04
39.63
39.65
38.23
35.66
32.34
28.84
25.72
23.48
22.34
22.19
22.48
22.47
21.5
19.21
15.76
11.69
7.65
4.09
0.9
-2.46
-6.7
-12.46
-19.95
-28.92
-38.65
-48.06
-55.84
-60.6
-61.14
-56.78
-47.65
-34.75
-19.74
-4.48
9.37
20.82
29.52
35.63
39.54
41.54
41.85
40.59
38.04
34.63
31.01
27.86
25.65
24.49
24.12
24.1
24.0
23.58
22.79
21.66
20.13
18.09
15.37
11.86
7.55
2.59
-2.87
-8.66
-14.71
-21.1
-27.92
-35.22
-42.77
-49.83
-55.22
-57.37
-54.89
-47.13
-34.58
-18.91
-2.45
12.4
23.96
31.57
35.57
36.91
36.66
35.56
33.94
31.83
29.17
26.08
22.87
20.08
18.17
17.39
17.66
18.55
19.48
19.8
19.03
16.86
13.34
8.73
3.58
-1.53
-6.19
-10.26
-14.06
-18.24
-23.61
-30.8
-39.73
-49.49
-58.27
-63.87
-64.29
-58.6
-47.24
-32.0
-15.41
0.14
13.05
22.83
29.71
34.21
36.63
36.92
34.95
30.87
25.42
19.78
15.28
12.75
12.32
13.3
14.64
15.3
14.69
12.84
10.22
7.51
5.12
3.13
1.26
-0.99
-4.06
-8.33
-13.84
-20.54
-28.15
-36.21
-43.96
-50.33
-54.09
-54.14
-49.91
-41.51
-29.87
-16.41
-2.69
9.91
20.46
28.47
33.8
36.48
36.69
34.73
31.08
26.49
21.79
17.84
15.22
14.03
13.85
13.97
13.67
12.6
10.92
9.02
7.34
5.91
4.35
2.01
-1.6
-6.6
-12.67
-19.29
-26.09
-33.04
-40.19
-47.38
-53.79
-57.99
-58.34
-53.67
-43.88
-30.16
-14.6
0.47
13.21
22.73
29.05
32.88
35.06
36.18
36.38
35.48
33.28
29.81
25.55
21.24
17.74
15.54
14.65
14.59
14.66
14.24
12.97
10.88
8.15
4.98
1.47
-2.45
-6.94
-12.3
-18.84
-26.85
-36.37
-47.03
-57.64
-66.27
-70.56
-68.35
-58.6
-42.0
-21.1
0.34
18.46
30.62
36.1
36.08
32.9
28.84
25.26
22.34
19.56
16.42
13.05
10.33
9.39
11.01
15.01
20.38
25.64
29.51
31.3
31.01
29.07
26.04
22.35
18.13
13.38
7.99
1.87
-5.01
-12.71
-21.17
-30.22
-39.41
-47.92
-54.59
-58.07
-57.22
-51.52
-41.37
-28.05
-13.45
0.52
12.48
21.81
28.6
33.23
35.91
36.53
34.83
30.74
24.77
18.07
12.09
8.06
6.52
7.16
9.07
11.24
12.98
14.07
14.65
14.87
14.7
13.89
12.15
9.33
5.63
1.5
-2.54
-6.15
-9.44
-12.84
-16.91
-21.8
-27.0
-31.26
-32.99
-30.9
-24.61
-14.84
-3.18
8.58
19.05
27.58
34.2
39.21
42.76
44.67
44.5
41.86
36.76
29.73
21.69
13.67
6.59
1.06
-2.59
-4.31
-4.2
-2.59
-0.11
2.41
4.04
4.14
2.63
-0.05
-3.06
-5.7
-7.78
-9.78
-12.67
-17.52
-24.94
-34.72
-45.68
-55.86
-63.03
-65.3
-61.67
-52.41
-38.95
-23.46
-8.15
5.25
15.9
23.7
28.96
32.07
33.28
32.68
30.39
26.73
22.3
17.87
14.21
11.84
10.91
11.16
11.96
12.51
12.15
10.57
8.0
4.99
2.18
-0.09
-1.97
-4.08
-7.13
-11.7
-17.92
-25.43
-33.6
-41.62
-48.63
-53.72
-55.97
-54.54
-48.97
-39.4
-26.63
-12.18
2.19
14.8
24.5
30.82
33.88
34.21
32.44
29.18
24.95
20.29
15.79
12.04
9.42
7.92
7.12
6.36
5.07
3.01
0.47
-2.02
-4.0
-5.36
-6.58
-8.42
-11.66
-16.64
-23.2
-30.78
-38.58
-45.83
-51.82
-55.87
-57.33
-55.5
-49.94
-40.65
-28.23
-13.85
0.96
14.65
25.96
34.09
38.76
40.13
38.71
35.25
30.6
25.63
21.12
17.6
15.29
14.05
13.44
12.97
12.22
10.97
9.26
7.22
4.96
2.45
-0.45
-3.97
-8.33
-13.76
-20.4
-28.31
-37.28
-46.61
-55.09
-61.12
-63.11
-60.04
-51.81
-39.38
-24.49
-9.16
4.84
16.31
24.77
30.29
33.26
34.21
33.66
32.09
29.87
27.37
24.83
22.43
20.3
18.45
16.86
15.48
14.17
12.8
11.2
9.24
6.88
4.2
1.3
-1.78
-5.22
-9.41
-14.87
-22.06
-31.0
-40.97
-50.49
-57.59
-60.36
-57.65
-49.48
-37.08
-22.42
-7.56
6.02
17.65
27.26
35.03
40.92
44.63
45.79
44.31
40.63
35.7
30.72
26.78
24.41
23.49
23.41
23.33
22.64
21.09
18.86
16.32
13.73
11.13
8.28
4.86
0.66
-4.34
-10.06
-16.56
-23.95
-32.39
-41.63
-50.73
-58.07
-61.67
-59.98
-52.51
-40.14
-24.78
-8.71
6.18
18.85
28.95
36.58
41.87
44.81
45.38
43.75
40.45
36.28
32.14
28.67
26.24
24.84
24.29
24.31
24.57
24.74
24.43
23.21
20.77
17.06
12.34
7.15
2.1
-2.41
-6.35
-10.13
-14.46
-20.15
-27.69
-36.98
-47.05
-56.09
-61.91
-62.58
-57.1
-45.93
-30.79
-14.11
1.85
15.62
26.67
35.12
41.24
45.15
46.8
46.21
43.76
40.19
36.46
33.36
31.28
30.16
29.68
29.45
29.21
28.89
28.46
27.79
26.52
24.19
20.42
15.14
8.76
2.06
-4.14
-9.31
-13.48
-17.23
-21.41
-26.85
-33.9
-42.34
-51.25
-59.24
-64.69
-66.16
-62.74
-54.39
-41.99
-27.16
-11.84
2.25
13.91
22.67
28.59
32.04
33.42
33.09
31.4
28.76
25.74
22.86
20.58
19.1
18.37
18.16
18.19
18.21
18.03
17.52
16.46
14.7
12.14
8.81
4.9
0.66
-3.66
-7.99
-12.43
-17.26
-22.84
-29.45
-37.04
-44.95
-51.92
-56.24
-56.33
-51.24
-41.17
-27.52
-12.44
1.79
13.46
21.79
26.89
29.32
29.78
28.78
26.62
23.55
19.86
16.04
12.67
10.28
9.24
9.57
10.92
12.63
13.96
14.27
13.2
10.78
7.35
3.43
-0.55
-4.4
-8.22
-12.41
-17.55
-24.18
-32.47
-41.97
-51.38
-58.78
-62.09
-59.83
-51.65
-38.64
-22.95
-7.09
6.81
17.64
25.36
30.58
34.07
36.24
37.04
36.13
33.28
28.73
23.33
18.29
14.76
13.29
13.58
14.68
15.4
14.84
12.72
9.45
5.81
2.47
-0.33
-2.87
-5.81
-9.95
-15.86
-23.75
-33.24
-43.38
-52.67
-59.29
-61.62
-58.66
-50.45
-38.17
-23.77
-9.38
3.35
13.62
21.48
27.33
31.57
34.23
35.04
33.76
30.5
25.93
21.1
17.19
14.89
14.33
14.93
15.75
15.86
14.76
12.48
9.56
6.74
4.5
2.9
1.46
-0.61
-4.09
-9.48
-16.82
-25.68
-35.18
-44.12
-51.1
-54.82
-54.28
-49.13
-39.82
-27.49
-13.68
0.11
12.68
23.32
31.68
37.59
40.97
41.79
40.2
36.71
32.13
27.45
23.65
21.29
20.46
20.67
21.12
21.01
19.88
17.68
14.79
11.75
8.96
6.51
4.16
1.38
-2.3
-7.21
-13.5
-21.02
-29.45
-38.18
-46.26
-52.39
-55.22
-53.6
-47.14
-36.4
-22.68
-7.84
6.32
18.45
27.82
34.21
37.83
39.01
38.18
35.83
32.49
28.72
25.02
21.84
19.4
17.86
17.17
17.17
17.56
17.84
17.53
16.13
13.44
9.55
4.92
0.12
-4.37
-8.39
-12.27
-16.56
-21.95
-28.81
-37.02
-45.73
-53.45
-58.38
-58.84
-53.96
-43.92
-30.07
-14.48
0.63
13.55
23.38
30.0
33.91
35.72
35.97
34.93
32.76
29.61
25.8
21.81
18.24
15.74
14.6
14.76
15.7
16.63
16.76
15.62
13.18
9.82
6.11
2.51
-0.83
-4.06
-7.6
-11.97
-17.61
-24.73
-33.14
-42.09
-50.25
-55.96
-57.59
-54.12
-45.58
-33.08
-18.54
-4.06
8.66
18.67
25.79
30.34
32.72
33.26
32.07
29.31
25.25
20.46
15.74
11.9
9.53
8.71
9.06
9.79
10.09
9.45
7.79
5.46
3.03
0.95
-0.77
-2.5
-4.98
-8.92
-14.76
-22.48
-31.47
-40.59
-48.33
-53.16
-53.84
-49.88
-41.63
-30.22
-17.23
-4.23
7.62
17.63
25.51
31.17
34.47
35.36
33.88
30.41
25.7
20.71
16.4
13.45
12.03
11.85
12.3
12.73
12.65
11.9
10.5
8.66
6.49
3.97
0.91
-2.85
-7.48
-13.12
-19.83
-27.67
-36.46
-45.62
-53.99
-60.01
-62.01
-58.85
-50.42
-37.75
-22.77
-7.6
6.09
17.48
26.39
33.02
37.47
39.66
39.56
37.38
33.83
29.92
26.57
24.23
22.77
21.71
20.48
18.8
16.68
14.34
12.0
9.69
7.26
4.44
1.04
-3.05
-7.81
-13.17
-19.18
-25.93
-33.55
-41.91
-50.39
-57.77
-62.39
-62.65
-57.59
-47.37
-33.3
-17.45
-2.02
11.3
21.73
29.29
34.52
38.04
40.2
41.1
40.64
38.79
35.82
32.22
28.69
25.8
23.82
22.57
21.68
20.72
19.46
17.94
16.29
14.63
12.85
10.62
7.54
3.36
-1.91
-8.08
-14.88
-22.29
-30.39
-39.15
-48.05
-55.87
-60.84
-61.28
-56.25
-46.05
-32.26
-17.08
-2.63
9.7
19.49
26.93
32.38
35.99
37.64
37.11
34.49
30.37
25.73
21.64
18.84
17.5
17.22
17.3
17.09
16.3
15.0
13.45
11.86
10.17
8.09
5.28
1.55
-3.04
-8.31
-14.12
-20.56
-27.78
-35.81
-44.11
-51.54
-56.47
-57.3
-53.05
-43.84
-30.84
-15.9
-1.09
11.97
22.33
29.63
34.01
35.84
35.55
33.59
30.51
26.92
23.43
20.51
18.39
16.95
15.91
14.98
14.01
13.07
12.29
11.71
11.06
9.86
7.57
3.94
-0.88
-6.43
-12.26
-18.2
-24.5
-31.57
-39.57
-47.97
-55.4
-59.91
-59.66
-53.68
-42.33
-27.3
-10.96
4.31
16.9
26.22
32.56
36.55
38.76
39.39
38.4
35.76
31.77
27.11
22.65
19.16
17.07
16.3
16.41
16.75
16.71
15.86
14.0
11.09
7.31
2.96
-1.62
-6.14
-10.53
-15.01
-20.1
-26.44
-34.44
-43.81
-53.39
-61.24
-65.13
-63.35
-55.45
-42.43
-26.48
-10.15
4.5
16.42
25.59
32.6
38.01
42.04
44.4
44.69
42.7
38.73
33.63
28.55
24.55
22.28
21.75
22.45
23.58
24.26
23.9
22.22
19.26
15.29
10.69
5.88
1.14
-3.37
-7.75
-12.33
-17.64
-24.25
-32.43
-41.82
-51.23
-58.79
-62.38
-60.4
-52.28
-38.83
-21.95
-4.07
12.48
26.02
35.7
41.38
43.44
42.66
39.97
36.39
32.85
29.92
27.82
26.43
25.43
24.53
23.58
22.57
21.52
20.48
19.39
18.16
16.69
14.83
12.49
9.58
6.06
1.96
-2.68
-7.89
-13.82
-20.68
-28.48
-36.76
-44.42
-49.8
-51.24
-47.71
-39.35
-27.46
-14.14
-1.52
8.84
16.27
20.9
23.21
23.71
22.7
20.34
16.91
12.89
9.02
6.09
4.64
4.82
6.25
8.26
10.09
11.2
11.37
10.68
9.34
7.56
5.45
3.01
0.12
-3.43
-7.87
-13.5
-20.53
-28.91
-38.12
-47.02
-54.01
-57.42
-56.09
-49.73
-39.05
-25.49
-10.87
3.2
15.58
25.59
32.93
37.38
38.82
37.25
33.08
27.17
20.78
15.25
11.51
9.73
9.29
9.06
7.93
5.38
1.62
-2.63
-6.47
-9.35
-11.22
-12.5
-13.86
-15.97
-19.32
-24.18
-30.53
-37.87
-45.18
-50.95
-53.48
-51.48
-44.56
-33.46
-19.81
-5.57
7.57
18.64
27.35
33.79
37.98
39.76
38.93
35.55
30.27
24.22
18.76
14.94
13.17
13.03
13.57
13.73
12.8
10.7
7.82
4.81
2.2
0.06
-1.98
-4.67
-8.81
-14.96
-23.2
-32.97
-43.07
-51.87
-57.61
-58.86
-54.95
-46.17
-33.74
-19.44
-5.17
7.59
18.03
25.96
31.57
35.09
36.63
36.15
33.66
29.46
24.25
19.06
14.93
12.53
11.86
12.27
12.73
12.3
10.57
7.75
4.5
1.52
-0.87
-2.93
-5.51
-9.6
-15.91
-24.52
-34.65
-44.75
-52.88
-57.18
-56.46
-50.49
-40.16
-27.09
-13.17
-0.02
11.41
20.76
28.06
33.38
36.63
37.61
36.23
32.82
28.13
23.29
19.29
16.76
15.75
15.74
15.95
15.65
14.44
12.3
9.57
6.7
4.08
1.8
-0.42
-3.19
-7.29
-13.37
-21.61
-31.45
-41.51
-49.88
-54.6
-54.32
-48.74
-38.74
-26.02
-12.51
0.25
11.47
21.0
29.05
35.67
40.57
43.14
42.74
39.19
33.02
25.57
18.57
13.55
11.28
11.49
13.01
14.3
14.15
12.18
8.85
5.1
1.8
-0.7
-2.77
-5.19
-8.9
-14.53
-22.21
-31.39
-40.91
-49.18
-54.49
-55.44
-51.4
-42.67
-30.51
-16.73
-3.09
9.1
19.14
26.94
32.52
35.87
36.77
34.95
30.51
24.15
17.15
11.04
7.07
5.64
6.21
7.48
8.05
7.06
4.55
1.4
-1.3
-2.79
-3.15
-3.29
-4.53
-8.08
-14.46
-23.31
-33.35
-42.72
-49.41
-51.84
-49.22
-41.72
-30.5
-17.29
-3.88
8.36
18.74
27.12
33.62
38.27
40.85
41.01
38.62
34.05
28.26
22.61
18.29
15.89
15.21
15.39
15.35
14.3
12.0
8.77
5.27
2.12
-0.46
-2.71
-5.27
-8.99
-14.64
-22.61
-32.58
-43.37
-53.07
-59.45
-60.72
-56.16
-46.42
-33.34
-19.19
-5.87
5.62
15.21
23.29
30.11
35.42
38.59
39.02
36.67
32.3
27.3
23.11
20.72
20.12
20.5
20.54
19.18
16.04
11.58
6.92
3.15
0.85
-0.28
-1.24
-3.32
-7.59
-14.5
-23.8
-34.5
-45.17
-54.11
-59.67
-60.59
-56.32
-47.25
-34.6
-20.22
-5.93
6.93
17.74
26.48
33.41
38.63
41.97
43.05
41.6
37.89
32.73
27.42
23.19
20.75
20.04
20.26
20.25
19.06
16.38
12.63
8.68
5.41
3.16
1.59
-0.22
-3.44
-8.97
-17.12
-27.5
-38.92
-49.66
-57.83
-61.69
-60.15
-53.09
-41.43
-26.85
-11.32
3.46
16.37
26.88
34.9
40.4
43.38
43.88
42.12
38.68
34.37
30.1
26.56
24.14
22.93
22.67
23.0
23.38
23.23
22.09
19.74
16.33
12.37
8.51
5.17
2.33
-0.6
-4.48
-10.13
-17.87
-27.38
-37.64
-47.19
-54.38
-57.79
-56.58
-50.62
-40.59
-27.81
-13.89
-0.33
11.68
21.37
28.32
32.35
33.52
32.16
28.88
24.61
20.36
16.96
14.87
14.09
14.26
14.89
15.57
16.04
16.18
15.93
15.24
14.04
12.3
10.03
7.32
4.27
0.82
-3.23
-8.26
-14.61
-22.43
-31.35
-40.48
-48.32
-53.21
-53.69
-48.97
-39.31
-25.92
-10.66
4.43
17.68
28.1
35.41
39.78
41.6
41.26
39.1
35.48
30.88
25.82
20.94
16.77
13.68
11.8
11.01
11.01
11.37
11.61
11.28
10.1
8.04
5.27
2.16
-1.05
-4.26
-7.7
-11.8
-17.07
-23.87
-32.13
-41.21
-49.84
-56.31
-58.97
-56.65
-49.17
-37.39
-23.07
-8.22
5.46
16.93
25.84
32.23
36.24
37.92
37.32
34.63
30.39
25.44
20.77
17.17
15.03
14.2
14.2
14.45
14.46
14.0
13.05
11.74
10.19
8.42
6.39
3.98
0.99
-2.84
-7.86
-14.41
-22.51
-31.69
-40.92
-48.74
-53.67
-54.73
-51.73
-45.29
-36.61
-26.91
-17.14
-7.79
1.0
9.11
16.25
21.95
25.68
27.15
26.51
24.32
21.39
18.31
15.26
12.03
8.3
3.97
-0.61
-4.7
-7.51
-8.63
-8.3
-7.31
-6.7
-7.4
-9.94
-14.55
-21.11
-29.22
-38.09
-46.38
-52.41
-54.52
-51.65
-43.75
-31.92
-18.01
-4.03
8.59
19.12
27.44
33.68
37.8
39.54
38.66
35.24
29.87
23.68
18.04
14.03
12.09
11.79
12.16
12.07
10.78
8.2
4.86
1.58
-1.05
-3.02
-4.93
-7.7
-12.13
-18.61
-26.88
-36.2
-45.33
-52.84
-57.33
-57.68
-53.39
-44.74
-32.75
-18.95
-4.92
8.01
18.94
27.44
33.3
36.48
37.09
35.48
32.24
28.14
23.93
20.21
17.34
15.44
14.29
13.55
12.78
11.6
9.86
7.66
5.27
2.96
0.78
-1.56
-4.66
-9.17
-15.58
-23.9
-33.63
-43.69
-52.54
-58.49
-60.12
-56.68
-48.35
-36.24
-21.99
-7.36
6.2
17.82
27.13
34.05
38.55
40.59
40.25
37.81
33.91
29.45
25.38
22.41
20.8
20.23
20.05
19.52
18.2
16.08
13.52
10.95
8.61
6.47
4.23
1.5
-2.06
-6.68
-12.61
-20.0
-28.83
-38.59
-48.05
-55.36
-58.59
-56.4
-48.59
-36.24
-21.31
-6.01
7.89
19.38
28.16
34.37
38.26
40.02
39.84
38.02
35.0
31.34
27.64
24.46
22.16
20.86
20.39
20.33
20.19
19.47
17.91
15.48
12.41
8.99
5.5
2.04
-1.43
-5.09
-9.15
-13.96
-19.97
-27.46
-36.3
-45.62
-53.75
-58.58
-58.28
-52.08
-40.59
-25.74
-9.96
4.64
16.86
26.4
33.51
38.47
41.33
41.99
40.46
37.13
32.78
28.43
24.94
22.78
21.94
22.06
22.66
23.26
23.54
23.32
22.44
20.84
18.39
14.98
10.64
5.49
-0.15
-5.92
-11.63
-17.33
-23.36
-30.18
-37.94
-46.18
-53.66
-58.62
-59.37
-55.05
-45.95
-33.47
-19.63
-6.33
5.24
14.66
22.12
27.88
31.95
34.16
34.27
32.33
28.83
24.61
20.54
17.28
15.11
13.88
13.29
12.95
12.63
12.18
11.49
10.38
8.65
6.11
2.68
-1.51
-6.15
-11.01
-15.99
-21.33
-27.47
-34.62
-42.38
-49.54
-54.29
-54.86
-50.19
-40.44
-26.99
-11.98
2.47
14.81
24.32
30.9
34.74
36.11
35.23
32.41
28.19
23.31
18.63
14.8
12.17
10.69
10.05
9.8
9.54
8.95
7.95
6.48
4.61
2.45
0.03
-2.69
-5.87
-9.79
-14.83
-21.3
-29.26
-38.26
-47.18
-54.36
-58.01
-56.73
-50.07
-38.76
-24.52
-9.49
4.4
15.9
24.58
30.55
34.15
35.66
35.22
32.93
29.09
24.26
19.27
15.0
12.12
10.83
10.8
11.29
11.44
10.63
8.72
6.02
3.06
0.29
-2.22
-4.81
-8.09
-12.67
-18.96
-26.9
-35.97
-45.11
-52.93
-57.82
-58.33
-53.65
-43.87
-30.14
-14.44
1.02
14.35
24.49
31.29
35.27
37.18
37.63
36.92
35.16
32.49
29.13
25.56
22.22
19.47
17.4
15.89
14.72
13.59
12.22
10.4
7.95
4.8
1.07
-3.03
-7.22
-11.39
-15.74
-20.79
-27.19
-35.25
-44.47
-53.41
-59.93
-61.89
-57.98
-48.29
-34.37
-18.58
-3.32
9.75
19.94
27.49
32.94
36.76
39.12
39.94
39.11
36.7
33.11
28.98
25.04
21.97
20.12
19.46
19.59
19.94
19.9
19.08
17.26
14.47
10.89
6.75
2.3
-2.27
-6.93
-11.83
-17.33
-23.86
-31.72
-40.66
-49.69
-57.12
-60.98
-59.6
-52.34
-39.89
-24.18
-7.72
7.18
19.1
27.74
33.6
37.51
40.07
41.47
41.53
40.05
37.07
33.03
28.69
24.87
22.17
20.86
20.75
21.39
22.06
22.05
20.84
18.27
14.63
10.41
6.17
2.23
-1.4
-4.98
-8.87
-13.41
-18.79
-25.13
-32.47
-40.65
-48.99
-56.22
-60.66
-60.69
-55.38
-44.97
-30.78
-14.87
0.69
14.31
25.23
33.3
38.66
41.59
42.25
40.92
38.08
34.39
30.62
27.46
25.29
24.17
23.78
23.68
23.42
22.82
21.94
20.88
19.74
18.41
16.55
13.79
9.84
4.71
-1.23
-7.4
-13.24
-18.46
-23.19
-28.04
-33.74
-40.76
-48.88
-56.84
-62.63
-64.02
-59.49
-48.89
-33.63
-16.29
0.32
14.01
23.78
29.86
33.17
34.73
35.13
34.48
32.59
29.32
24.9
19.98
15.52
12.41
11.14
11.57
13.0
14.49
15.17
14.53
12.52
9.5
5.91
2.22
-1.34
-4.74
-8.1
-11.74
-16.12
-21.77
-29.04
-37.78
-46.99
-54.97
-59.62
-59.23
-53.06
-41.73
-27.07
-11.47
2.81
14.38
22.83
28.5
32.05
34.0
34.56
33.63
31.09
26.99
21.9
16.76
12.6
10.25
9.89
11.01
12.57
13.4
12.67
10.24
6.62
2.71
-0.72
-3.35
-5.47
-7.84
-11.3
-16.44
-23.49
-32.14
-41.64
-50.83
-58.34
-62.68
-62.66
-57.69
-48.03
-34.82
-19.8
-4.85
8.56
19.54
27.86
33.66
37.16
38.46
37.66
34.98
30.95
26.39
22.19
19.07
17.33
16.76
16.78
16.73
16.03
14.4
11.89
8.84
5.71
2.95
0.85
-0.65
-1.98
-3.91
-7.3
-12.76
-20.42
-29.75
-39.55
-48.21
-54.01
-55.67
-52.68
-45.37
-34.78
-22.24
-9.04
3.88
15.89
26.49
35.18
41.35
44.54
44.62
41.98
37.55
32.47
27.83
24.39
22.38
21.62
21.51
21.41
20.8
19.46
17.47
15.07
12.52
9.83
6.79
3.03
-1.75
-7.56
-14.19
-21.32
-28.67
-36.18
-43.76
-51.02
-57.05
-60.51
-59.98
-54.6
-44.49
-30.83
-15.53
-0.57
12.53
23.04
30.77
35.91
38.68
39.29
38.0
35.25
31.67
27.99
24.84
22.46
20.83
19.6
18.43
17.07
15.44
13.63
11.72
9.68
7.35
4.48
0.98
-3.09
-7.43
-11.65
-15.56
-19.36
-23.67
-29.17
-36.2
-44.23
-51.73
-56.54
-56.66
-51.12
-40.35
-26.15
-10.95
3.1
14.7
23.58
30.17
34.93
38.1
39.58
39.13
36.78
32.89
28.12
23.26
18.93
15.45
12.88
11.08
9.8
8.81
7.92
7.04
6.18
5.26
4.22
2.86
0.88
-1.97
-5.96
-11.24
-17.93
-26.05
-35.36
-45.09
-53.83
-59.69
-60.74
-55.82
-45.11
-30.17
-13.53
2.18
15.11
24.49
30.57
34.1
35.8
36.01
34.75
31.94
27.69
22.46
16.98
12.04
8.3
6.06
5.15
5.03
5.07
4.75
3.88
2.68
1.45
0.35
-0.8
-2.47
-5.3
-9.8
-16.22
-24.38
-33.66
-42.99
-50.91
-55.79
-56.19
-51.37
-41.65
-28.35
-13.48
0.96
13.48
23.3
30.27
34.53
36.25
35.56
32.71
28.17
22.71
17.18
12.41
8.94
6.93
6.27
6.48
6.99
7.21
6.76
5.52
3.74
1.79
-0.02
-1.7
-3.69
-6.73
-11.57
-18.59
-27.5
-37.18
-45.92
-51.78
-53.09
-49.04
-39.9
-27.04
-12.47
1.77
14.13
23.88
30.98
35.85
38.76
39.78
38.72
35.47
30.39
24.41
18.85
14.89
13.11
13.13
13.84
13.87
12.31
9.08
4.94
0.96
-2.08
-4.17
-6.03
-8.66
-12.95
-19.18
-27.08
-35.91
-44.62
-52.0
-56.76
-57.64
-53.78
-45.09
-32.45
-17.57
-2.48
11.08
22.09
30.27
35.85
39.15
40.38
39.64
37.12
33.28
28.82
24.59
21.27
19.19
18.22
17.94
17.71
16.98
15.41
12.96
9.86
6.48
3.12
-0.12
-3.38
-7.05
-11.66
-17.68
-25.31
-34.27
-43.72
-52.26
-58.18
-59.85
-56.31
-47.6
-34.85
-19.86
-4.61
9.36
21.13
30.42
37.25
41.75
43.95
43.92
41.88
38.34
34.08
29.88
26.41
23.98
22.63
22.14
22.18
22.36
22.34
21.78
20.42
18.09
14.76
10.59
5.85
0.85
-4.25
-9.46
-15.05
-21.46
-29.08
-37.95
-47.48
-56.36
-62.74
-64.8
-61.32
-52.25
-38.75
-22.88
-6.93
7.25
18.66
27.13
32.99
36.69
38.57
38.87
37.8
35.69
33.06
30.51
28.57
27.54
27.32
27.6
27.93
27.91
27.32
26.1
24.31
22.01
19.17
15.76
11.76
7.35
2.86
-1.36
-5.22
-8.99
-13.4
-19.27
-27.08
-36.48
-46.07
-53.68
-57.01
-54.52
-46.01
-32.78
-17.12
-1.52
12.02
22.54
30.0
34.91
37.78
38.86
38.08
35.38
30.97
25.54
20.11
15.77
13.22
12.52
13.17
14.27
14.96
14.71
13.46
11.45
9.06
6.52
3.87
0.92
-2.58
-6.82
-11.93
-17.99
-25.0
-32.89
-41.28
-49.28
-55.56
-58.57
-57.07
-50.57
-39.66
-25.82
-11.03
2.9
14.71
23.82
30.16
33.89
35.22
34.31
31.4
26.92
21.55
16.17
11.62
8.51
6.98
6.68
6.81
6.59
5.46
3.39
0.83
-1.6
-3.48
-4.87
-6.4
-8.94
-13.23
-19.61
-27.81
-37.01
-46.02
-53.48
-58.08
-58.81
-55.12
-47.12
-35.6
-21.91
-7.59
5.94
17.62
26.88
33.47
37.39
38.75
37.83
35.08
31.22
27.09
23.47
20.86
19.41
18.84
18.63
18.23
17.26
15.59
13.33
10.7
7.88
4.92
1.71
-1.98
-6.43
-11.9
-18.66
-26.8
-36.04
-45.54
-53.86
-59.17
-59.79
-54.87
-44.77
-31.12
-16.14
-1.96
10.12
19.65
26.9
32.19
35.65
37.06
36.23
33.27
28.84
24.0
19.86
17.11
15.84
15.5
15.26
14.43
12.72
10.38
7.95
5.93
4.45
3.1
1.13
-2.25
-7.52
-14.79
-23.67
-33.5
-43.27
-51.8
-57.78
-59.99
-57.65
-50.68
-39.85
-26.56
-12.46
1.02
12.89
22.7
30.27
35.44
38.07
38.1
35.73
31.61
26.69
22.03
18.47
16.42
15.76
16.02
16.59
16.9
16.57
15.43
13.52
11.05
8.28
5.43
2.49
-0.84
-5.11
-10.91
-18.52
-27.66
-37.31
-45.9
-51.64
-53.06
-49.47
-41.18
-29.32
-15.55
-1.58
11.27
22.19
30.89
37.31
41.43
43.23
42.71
40.13
36.01
31.2
26.63
23.08
20.85
19.67
18.88
17.69
15.6
12.56
9.04
5.7
3.04
1.09
-0.65
-2.96
-6.59
-11.91
-18.82
-26.86
-35.41
-43.75
-51.0
-56.19
-58.28
-56.38
-50.12
-39.83
-26.64
-12.15
1.94
14.31
24.1
31.06
35.27
36.98
36.53
34.24
30.54
26.02
21.47
17.6
14.89
13.31
12.31
11.12
9.16
6.37
3.24
0.51
-1.3
-2.28
-3.11
-4.79
-8.12
-13.41
-20.41
-28.53
-36.92
-44.61
-50.51
-53.45
-52.5
-47.21
-37.88
-25.55
-11.71
2.08
14.61
25.04
32.83
37.61
39.15
37.52
33.31
27.58
21.72
16.95
13.86
12.32
11.53
10.51
8.66
6.0
3.17
1.0
0.04
0.22
0.79
0.64
-1.23
-5.45
-12.0
-20.34
-29.6
-38.67
-46.32
-51.31
-52.6
-49.64
-42.52
-32.07
-19.56
-6.44
6.07
17.07
26.06
32.69
36.71
37.98
36.61
33.09
28.27
23.18
18.8
15.74
14.07
13.44
13.15
12.53
11.2
9.17
6.79
4.48
2.44
0.53
-1.71
-4.96
-9.84
-16.66
-25.32
-35.17
-45.04
-53.32
-58.34
-58.78
-54.15
-44.95
-32.53
-18.59
-4.65
8.24
19.58
29.18
36.77
41.89
44.04
43.01
39.2
33.72
28.04
23.52
20.92
20.12
20.31
20.41
19.54
17.47
14.6
11.63
9.21
7.53
6.25
4.62
1.78
-3.01
-10.06
-19.18
-29.68
-40.4
-49.86
-56.47
-58.84
-56.17
-48.47
-36.67
-22.4
-7.56
6.18
17.76
26.8
33.44
38.04
40.82
41.8
40.89
38.13
33.97
29.17
24.75
21.61
20.16
20.1
20.59
20.56
19.3
16.79
13.59
10.52
8.17
6.49
4.78
2.1
-2.35
-8.81
-16.92
-25.88
-34.81
-42.79
-48.98
-52.57
-52.79
-49.09
-41.38
-30.14
-16.43
-1.72
12.43
24.72
34.19
40.44
43.42
43.44
41.09
37.22
32.82
28.77
25.76
24.07
23.58
23.82
24.23
24.34
23.91
22.96
21.58
19.88
17.9
15.63
12.97
9.85
6.07
1.41
-4.37
-11.49
-19.96
-29.5
-39.43
-48.67
-55.89
-59.74
-59.25
-54.12
-44.83
-32.58
-19.02
-5.75
5.93
15.14
21.46
24.79
25.31
23.53
20.18
16.2
12.58
9.99
8.67
8.34
8.41
8.26
7.58
6.4
5.04
3.82
2.87
2.01
0.84
-1.1
-4.11
-8.27
-13.54
-19.84
-26.97
-34.48
-41.46
-46.61
-48.48
-46.04
-38.99
-28.06
-14.7
-0.68
12.39
23.41
31.8
37.28
39.75
39.19
35.86
30.36
23.72
17.23
12.08
9.02
8.11
8.67
9.67
10.12
9.5
7.86
5.72
3.7
2.13
0.83
-0.86
-3.84
-8.8
-15.95
-24.82
-34.35
-43.08
-49.52
-52.49
-51.36
-46.2
-37.63
-26.62
-14.22
-1.46
10.72
21.48
29.96
35.45
37.52
36.27
32.44
27.24
21.93
17.53
14.44
12.46
11.01
9.47
7.46
4.99
2.38
0.0
-1.91
-3.35
-4.64
-6.24
-8.73
-12.63
-18.32
-25.83
-34.64
-43.68
-51.33
-55.84
-55.88
-50.94
-41.64
-29.4
-16.0
-2.94
8.83
18.9
27.14
33.31
36.99
37.74
35.45
30.66
24.53
18.57
14.04
11.55
10.81
10.85
10.48
8.9
6.06
2.63
-0.43
-2.4
-3.21
-3.59
-4.77
-7.93
-13.82
-22.32
-32.47
-42.59
-50.75
-55.18
-54.77
-49.34
-39.64
-27.19
-13.66
-0.55
11.15
20.95
28.64
34.1
37.12
37.5
35.33
31.15
25.93
20.89
17.01
14.71
13.77
13.52
13.16
12.21
10.57
8.53
6.5
4.73
3.17
1.55
-0.54
-3.62
-8.19
-14.69
-23.18
-33.06
-42.81
-50.34
-53.48
-50.89
-42.64
-30.23
-16.04
-2.34
9.43
18.91
26.45
32.51
37.1
39.75
39.9
37.39
32.76
27.21
22.16
18.71
17.17
17.1
17.57
17.59
16.57
14.41
11.46
8.22
5.07
2.02
-1.16
-4.83
-9.34
-14.92
-21.66
