-58.9
-68.45
-80.18
-93.49
-106.84
-117.91
-124.14
-123.29
-114.15
-96.89
-73.18
-45.75
-17.82
7.72
28.86
44.63
55.1
60.96
63.12
62.41
59.47
54.91
49.51
44.34
40.58
39.15
40.31
43.48
47.52
51.17
53.58
54.54
54.32
53.29
51.55
48.69
44.06
37.15
27.93
17.0
5.45
-5.64
-15.56
-24.18
-32.01
-39.78
-48.22
-57.83
-68.79
-80.83
-93.14
-104.28
-112.25
-114.8
-110.13
-97.42
-77.36
-52.05
-24.52
2.01
24.88
42.45
54.27
60.79
63.07
62.34
59.65
55.81
51.48
47.23
43.68
41.4
40.75
41.67
43.66
46.03
48.05
49.29
49.58
48.85
47.02
43.84
38.96
32.09
23.28
12.92
1.81
-9.19
-19.43
-28.65
-37.06
-45.2
-53.77
-63.31
-74.15
-86.04
-98.05
-108.52
-115.2
-115.83
-108.73
-93.54
-71.44
-44.98
-17.33
8.47
30.18
46.69
57.79
64.02
66.33
65.82
63.58
60.51
57.3
54.34
51.96
50.37
49.82
50.47
52.16
54.4
56.37
57.26
56.5
53.91
49.74
44.33
38.01
30.84
22.74
13.63
3.62
-6.82
-17.04
-26.43
-34.82
-42.53
-50.41
-59.41
-70.31
-83.2
-97.28
-110.91
-121.84
-127.76
-126.73
-117.75
-100.98
-77.9
-51.0
-23.24
2.54
24.24
40.77
52.07
58.8
62.0
62.75
61.93
60.19
58.03
55.9
54.23
53.34
53.33
54.12
55.42
56.84
58.03
58.71
58.64
57.6
55.24
51.28
45.44
37.63
28.06
17.21
5.79
-5.43
-15.77
-24.93
-33.03
-40.65
-48.6
-57.71
-68.4
-80.62
-93.69
-106.26
-116.56
-122.53
-122.3
-114.65
-99.43
-77.77
-51.94
-24.83
0.64
22.24
38.8
50.21
57.13
60.59
61.62
61.07
59.57
57.59
55.63
54.07
53.21
53.14
53.79
54.89
56.15
57.3
58.03
58.12
57.23
55.05
51.31
45.78
38.36
29.13
18.42
6.8
-4.9
-15.91
-25.6
-33.81
-40.91
-47.73
-55.23
-64.3
-75.38
-88.13
-101.28
-112.71
-119.86
-120.29
-112.51
-96.43
-73.55
-46.65
-19.01
6.32
27.24
42.8
53.12
58.94
61.26
61.03
59.1
56.14
52.83
49.85
47.82
47.12
47.76
49.27
50.95
52.12
52.34
51.57
50.03
47.92
45.18
41.44
36.1
28.71
19.31
8.47
-2.8
-13.48
-22.87
-30.88
-37.99
-45.21
-53.63
-64.07
-76.7
-90.67
-104.08
-114.21
-118.27
-114.22
-101.58
-81.6
-56.92
-30.74
-5.9
15.56
32.68
45.19
53.27
57.32
57.89
55.83
52.12
47.9
44.01
41.04
39.21
38.46
38.61
39.36
40.4
41.36
41.94
41.83
40.79
38.65
35.15
30.09
23.29
14.75
4.83
-5.79
-16.26
-25.87
-34.41
-42.41
-51.0
-61.4
-74.17
-88.49
-102.01
-111.4
-113.41
-106.06
-89.49
-65.94
-38.94
-12.23
11.39
30.49
44.88
55.04
61.55
64.74
64.79
62.02
57.14
51.26
45.74
41.76
39.86
39.92
41.22
42.86
44.11
44.65
44.53
43.87
42.61
40.32
36.33
30.11
21.58
11.25
0.06
-10.99
-21.22
-30.4
-38.74
-46.8
-55.24
-64.75
-75.83
-88.52
-101.86
-113.86
-121.6
-122.14
-113.58
-95.94
-71.26
-43.08
-15.26
9.2
28.64
42.84
52.5
58.53
61.71
62.53
61.34
58.61
55.02
51.49
48.92
47.93
48.57
50.28
52.19
53.44
53.68
53.01
51.89
50.66
49.22
46.94
42.93
36.49
27.44
16.38
4.44
-7.16
-17.52
-26.47
-34.42
-42.21
-50.71
-60.51
-71.77
-84.19
-97.02
-108.98
-118.34
-123.11
-121.39
-111.98
-94.9
-71.54
-44.46
-16.7
8.89
30.25
46.3
56.89
62.54
64.13
62.77
59.69
56.09
53.02
51.21
50.89
51.75
53.11
54.16
54.38
53.7
52.52
51.47
51.02
51.05
50.81
49.08
44.68
37.0
26.33
13.82
1.09
-10.42
-19.96
-27.73
-34.63
-41.74
-49.9
-59.48
-70.39
-82.24
-94.39
-105.77
-114.71
-119.05
-116.61
-106.04
-87.48
-62.83
-35.28
-8.36
15.09
33.54
46.85
55.75
61.24
64.06
64.65
63.29
60.45
56.91
53.64
51.56
51.07
52.06
53.88
55.73
56.98
57.37
56.98
55.97
54.4
52.01
48.32
42.87
35.45
26.23
15.8
4.95
-5.63
-15.49
-24.53
-32.94
-41.06
-49.2
-57.67
-66.79
-76.88
-87.97
-99.55
-110.25
-117.89
-119.95
-114.38
-100.33
-78.76
-52.19
-24.04
2.34
24.46
41.09
52.22
58.48
60.87
60.36
57.83
54.17
50.36
47.36
45.92
46.31
48.11
50.43
52.3
53.09
52.79
51.97
51.26
50.97
50.67
49.27
45.6
38.9
29.3
17.76
5.72
-5.47
-15.06
-23.08
-30.17
-37.25
-45.1
-54.22
-64.72
-76.48
-88.95
-101.11
-111.27
-117.23
-116.75
-108.3
-91.82
-68.91
-42.56
-16.2
7.22
25.89
39.2
47.5
51.5
52.04
50.01
46.29
41.81
37.54
34.16
31.97
30.86
30.41
30.28
30.34
30.72
31.58
32.87
34.04
34.1
31.94
26.87
18.92
8.98
-1.52
-11.29
-19.71
-27.15
-34.82
-44.17
-56.14
-70.46
-85.37
-97.95
-104.88
-103.61
-93.17
-74.58
-50.5
-24.46
0.24
21.24
37.42
48.76
55.79
59.19
59.58
57.45
53.32
47.85
41.82
36.12
31.58
28.81
28.06
29.11
31.26
33.51
34.83
34.47
32.15
28.06
22.67
16.38
9.39
1.61
-7.11
-16.71
-26.92
-37.46
-48.29
-59.72
-72.09
-85.27
-98.09
-108.21
-112.79
-109.4
-97.05
-76.72
-51.15
-23.94
1.4
22.4
37.97
48.2
53.96
56.36
56.33
54.53
51.47
47.58
43.45
39.76
37.16
36.02
36.3
37.55
39.01
39.92
39.68
37.99
34.8
30.22
24.41
17.51
9.61
0.85
-8.62
-18.66
-29.18
-40.34
-52.46
-65.77
-80.0
-93.94
-105.41
-111.76
-110.57
-100.63
-82.51
-58.45
-31.64
-5.4
17.75
36.35
49.94
58.71
63.24
64.31
62.91
60.15
57.14
54.73
53.33
52.85
52.83
52.76
52.29
51.4
50.35
49.47
48.89
48.22
46.64
43.14
36.97
28.12
17.38
6.01
-4.74
-14.27
-22.76
-31.07
-40.33
-51.42
-64.61
-79.24
-93.75
-105.82
-112.76
-112.21
-102.91
-85.25
-61.29
-34.25
-7.57
16.01
34.93
48.9
58.46
64.45
67.65
68.61
67.71
65.39
62.25
59.1
56.72
55.69
56.1
57.53
59.18
60.31
60.41
59.43
57.62
55.15
51.97
47.68
41.67
33.51
23.25
11.5
-0.67
-12.15
-22.13
-30.5
-37.81
-45.09
-53.51
-63.98
-76.68
-90.85
-104.71
-115.63
-120.85
-118.22
-106.88
-87.68
-63.05
-36.27
-10.55
11.71
29.36
42.33
51.16
56.56
59.13
59.28
57.47
54.23
50.27
46.42
43.49
42.02
42.19
43.73
46.01
48.26
49.72
49.84
48.4
45.4
40.99
35.28
28.31
20.1
10.77
0.63
-9.84
-20.07
-29.7
-38.68
-47.45
-56.77
-67.26
-78.97
-90.91
-101.03
-106.68
-105.39
-95.81
-78.3
-54.98
-29.08
-4.03
17.47
33.92
45.03
51.37
53.87
53.58
51.35
47.98
44.17
40.49
37.39
35.11
33.7
33.16
33.46
34.48
35.92
37.23
37.62
36.28
32.64
26.65
18.79
9.93
0.95
-7.58
-15.61
-23.51
-31.97
-41.71
-53.18
-66.33
-80.28
-93.28
-102.91
-106.6
-102.42
-89.82
-69.96
-45.43
-19.6
4.31
24.09
38.79
48.61
54.44
57.33
58.12
57.29
55.06
51.62
47.4
43.03
39.32
36.88
36.0
36.53
37.92
39.36
40.0
39.14
36.31
31.45
24.76
16.72
7.85
-1.33
-10.49
-19.47
-28.33
-37.4
-47.29
-58.66
-71.88
-86.5
-100.77
-111.88
-116.6
-112.47
-98.9
-77.45
-51.35
-24.43
0.1
20.42
36.09
47.53
55.37
60.05
61.82
61.02
58.32
54.62
50.9
47.9
45.86
44.65
43.91
43.36
42.89
42.58
42.41
42.1
41.05
38.51
33.84
26.84
17.86
7.69
-2.75
-12.76
-22.08
-31.01
-40.3
-50.75
-62.96
-76.87
-91.46
-104.7
-113.99
-116.66
-110.95
-96.58
-74.94
-48.81
-21.55
3.72
24.77
40.58
51.21
57.47
60.43
61.17
60.51
59.01
57.07
54.93
52.82
50.96
49.58
48.83
48.76
49.23
49.93
50.39
50.09
48.58
45.46
40.53
33.67
25.04
15.03
4.38
-6.08
-15.65
-24.16
-32.1
-40.48
-50.45
-62.73
-77.05
-91.97
-105.08
-113.6
-115.2
-108.69
-94.34
-73.75
-49.41
-23.97
0.25
21.48
38.57
50.88
58.23
61.02
60.19
57.17
53.54
50.61
49.09
48.97
49.67
50.4
50.58
50.08
49.22
48.56
48.38
48.55
48.31
46.56
42.3
35.09
25.31
14.04
2.63
-7.77
-16.63
-24.1
-30.92
-38.07
-46.54
-56.98
-69.52
-83.47
-97.32
-108.76
-115.19
-114.46
-105.47
-88.75
-66.31
-41.03
-15.97
6.44
24.68
38.18
46.97
51.55
52.57
50.86
47.37
43.04
38.69
34.88
31.89
29.77
28.49
28.02
28.32
29.39
30.99
32.62
33.48
32.71
29.56
23.8
15.77
6.37
-3.28
-12.32
-20.45
-28.14
-36.4
-46.37
-58.69
-72.96
-87.54
-99.74
-106.68
-106.03
-96.89
-80.08
-57.86
-33.26
-9.23
11.95
28.86
40.86
47.92
50.43
49.1
44.93
39.08
32.74
26.99
22.69
20.39
20.3
22.25
25.66
29.66
33.17
35.24
35.21
32.88
28.46
22.44
15.41
7.81
-0.09
-8.32
-17.03
-26.57
-37.32
-49.65
-63.68
-78.96
-94.23
-107.35
-115.62
-116.55
-108.66
-92.12
-68.88
-42.13
-15.43
8.22
26.98
40.27
48.46
52.48
53.39
52.18
49.59
46.23
42.51
38.81
35.47
32.79
30.99
30.16
30.21
30.83
31.63
32.14
31.9
30.5
27.59
22.85
16.25
8.02
-1.25
-10.84
-20.27
-29.61
-39.5
-50.85
-64.05
-78.22
-91.0
-98.98
-98.88
-88.86
-69.34
-43.06
-14.22
12.85
34.97
50.78
60.64
65.98
68.4
69.11
68.57
66.8
63.7
59.44
54.71
50.44
47.52
46.34
46.72
47.95
49.12
49.41
48.24
45.35
40.67
34.31
26.5
17.6
8.06
-1.69
-11.4
-21.12
-31.17
-42.05
-54.21
-67.74
-82.04
-95.68
-106.5
-112.03
-110.28
-100.26
-82.52
-59.02
-32.58
-6.24
17.5
36.96
51.34
60.58
65.16
65.94
64.08
60.96
57.75
55.31
53.88
53.12
52.49
51.46
49.95
48.34
47.25
47.01
47.48
47.8
46.77
43.31
36.92
27.92
17.35
6.46
-3.77
-12.84
-20.95
-28.78
-37.21
-47.22
-59.37
-73.6
-88.86
-103.05
-113.25
-116.5
-110.77
-95.79
-73.31
-46.6
-19.39
5.22
25.47
40.95
52.14
59.7
64.09
65.47
64.03
60.41
55.7
51.33
48.49
47.79
49.06
51.42
53.73
55.07
55.03
53.83
52.08
50.3
48.59
46.42
42.78
36.6
27.38
15.54
2.4
-10.22
-20.89
-29.12
-35.53
-41.56
-48.81
-58.34
-70.35
-84.08
-97.97
-109.96
-117.83
-119.57
-113.88
-100.58
-80.73
-56.47
-30.57
-5.74
15.95
33.22
45.67
53.44
57.03
57.15
54.65
50.59
46.12
42.34
40.06
39.64
40.87
43.13
45.55
47.41
48.32
48.24
47.31
45.64
43.05
39.11
33.33
25.4
15.45
4.18
-7.35
-18.06
-27.27
-35.01
-42.1
-49.88
-59.65
-71.97
-86.05
-99.69
-109.75
-113.06
-107.58
-93.13
-71.54
-46.11
-20.41
2.58
21.24
35.2
44.93
51.05
54.07
54.23
51.74
47.12
41.18
35.01
29.73
26.16
24.71
25.31
27.41
30.13
32.43
33.28
31.96
28.29
22.65
15.85
8.72
1.76
-5.1
-12.39
-20.79
-30.74
-42.31
-55.22
-68.89
-82.46
-94.72
-104.0
-108.26
-105.56
-94.81
-76.28
-51.92
-24.84
1.42
23.92
40.95
52.16
58.27
60.46
59.89
57.43
53.73
49.29
44.62
40.33
36.89
34.64
33.57
33.48
33.94
34.49
34.59
33.78
31.58
27.65
21.89
14.43
5.67
-3.83
-13.54
-23.14
-32.69
-42.68
-53.93
-66.97
-81.51
-95.95
-107.39
-112.47
-108.56
-94.87
-72.94
-46.23
-18.83
5.75
25.5
40.09
50.16
56.72
60.45
61.64
60.42
57.1
52.38
47.25
42.83
39.93
38.85
39.3
40.52
41.65
42.0
41.18
39.13
36.01
31.91
26.88
20.89
14.0
6.42
-1.47
-9.28
-16.91
-24.6
-33.01
-42.74
-53.88
-65.46
-75.49
-81.32
-80.63
-72.24
-56.61
-35.76
-12.56
10.1
29.98
45.78
57.1
64.13
67.39
67.54
65.35
61.66
57.32
53.01
49.16
45.98
43.44
41.47
40.03
39.18
38.95
39.18
39.36
38.71
36.41
31.92
25.21
16.78
7.4
-2.22
-11.63
-20.75
-29.75
-38.91
-48.64
-59.36
-71.42
-84.77
-98.55
-110.9
-119.13
-120.49
-113.09
-96.82
-73.59
-46.79
-20.21
3.13
21.64
35.2
44.54
50.62
54.01
54.93
53.49
50.09
45.55
40.92
37.17
34.74
33.5
32.84
32.01
30.4
27.71
23.96
19.27
13.78
7.42
0.05
-8.47
-18.06
-28.28
-38.44
-47.75
-55.76
-62.59
-69.05
-76.24
-84.94
-95.0
-104.99
-112.56
-115.04
-110.5
-98.41
-79.86
-57.21
-33.32
-10.86
8.3
23.13
33.39
39.34
41.47
40.39
36.8
31.55
25.53
19.7
14.86
11.61
10.27
10.78
12.67
15.08
17.05
17.67
16.58
13.99
10.62
7.38
4.84
3.05
1.39
-1.03
-5.16
-11.67
-20.68
-31.66
-43.2
-53.09
-58.61
-57.3
-47.72
-30.16
-6.66
19.6
45.2
67.57
85.32
98.27
106.85
111.68
113.27
111.97
108.26
102.73
96.26
89.67
83.67
78.59
74.41
70.86
67.52
64.0
59.91
54.96
48.95
41.79
33.48
24.13
13.88
2.81
-9.18
-22.46
-37.39
-54.22
-72.52
-90.91
-107.06
-118.02
-121.17
-115.02
-99.99
-78.35
-53.63
-29.53
-8.88
6.89
17.69
24.22
27.32
27.61
25.41
21.02
15.04
8.39
2.18
-2.7
-5.84
-7.43
-8.17
-8.93
-10.37
-12.79
-16.09
-19.81
-23.56
-27.08
-30.39
-33.79
-37.73
-42.69
-49.18
-57.76
-68.71
-81.85
-96.03
-109.1
-118.12
-120.19
-113.34
-97.35
-73.96
-46.26
-17.86
8.23
30.21
47.44
60.11
68.7
73.62
75.18
73.84
70.21
65.11
59.16
52.58
45.25
37.15
28.84
21.63
17.22
16.78
20.28
26.25
32.33
36.24
36.69
33.6
27.74
20.01
10.8
-0.16
-13.42
-29.36
-47.53
-66.4
-83.47
-95.69
-100.29
-95.54
-81.42
-59.71
-33.54
-6.53
18.14
38.41
53.52
63.7
69.8
72.82
73.68
73.1
71.58
69.43
66.83
63.91
60.8
57.73
55.02
52.93
51.56
50.62
49.51
47.42
43.73
38.19
31.11
23.17
15.18
7.68
0.79
-5.65
-12.12
-19.19
-27.53
-37.65
-49.73
-63.07
-75.9
-85.51
-88.91
-83.94
-70.07
-48.76
-23.05
3.36
27.23
46.41
60.06
68.37
72.08
72.14
69.48
64.92
59.28
53.31
47.8
43.44
40.81
40.1
40.99
42.78
44.47
45.14
44.16
41.38
36.89
30.97
23.7
15.09
5.14
-5.97
-17.77
-29.73
-41.56
-53.43
-65.97
-79.78
-94.73
-109.55
-121.8
-128.46
-127.09
-116.77
-98.6
-75.36
-50.65
-27.68
-8.57
5.9
16.05
22.68
26.55
28.24
28.14
26.67
24.39
21.93
19.88
18.68
18.54
19.47
21.3
23.73
26.32
28.46
29.43
28.52
25.23
19.61
12.22
4.04
-3.97
-11.23
-17.89
-24.81
-33.21
-44.05
-57.35
-71.72
-84.43
-92.1
-91.76
-81.99
-63.49
-38.95
-12.14
13.29
34.81
51.42
63.23
70.8
74.46
74.24
70.07
62.43
52.51
42.16
33.39
27.72
25.73
26.89
29.91
33.17
35.32
35.59
33.76
30.07
24.9
18.55
11.2
2.94
-6.18
-16.17
-27.17
-39.51
-53.43
-68.86
-84.81
-99.33
-109.66
-113.01
-107.49
-92.88
-70.82
-44.2
-16.48
9.36
31.22
47.98
59.3
65.35
66.68
64.09
58.72
51.83
44.61
38.03
32.59
28.42
25.35
23.05
21.12
19.2
16.93
14.19
11.05
7.72
4.43
1.21
-2.19
-6.29
-11.69
-19.04
-28.79
-41.16
-55.83
-71.71
-86.82
-98.46
-103.9
-101.22
-90.13
-72.17
-50.25
-27.84
-7.96
7.41
17.43
22.21
22.55
19.66
15.05
10.28
6.68
5.0
5.3
7.11
9.68
12.42
14.9
16.92
18.26
18.61
17.65
15.25
11.72
7.72
4.04
1.08
-1.33
-4.07
-8.4
-15.44
-25.87
-39.5
-55.31
-71.47
-85.6
-95.17
-97.96
-92.57
-78.82
-57.96
-32.42
-5.23
20.61
42.81
60.15
72.36
79.94
83.75
84.7
83.69
81.53
79.03
76.92
75.79
76.01
77.62
80.31
83.4
85.93
86.81
85.08
80.09
71.71
60.36
46.85
32.14
17.05
2.13
-12.49
-26.87
-41.25
-55.93
-71.13
-86.69
-101.75
-114.61
-122.81
-123.88
-116.11
-99.4
-75.57
-47.95
-20.43
3.68
22.45
35.55
43.81
48.45
50.56
50.77
49.29
46.24
41.85
36.66
31.5
27.25
24.63
23.92
24.91
26.9
28.87
29.81
28.9
25.76
20.46
13.36
5.01
-4.15
-13.71
-23.44
-33.14
-42.78
-52.54
-62.86
-74.22
-86.58
-98.93
-109.01
-113.79
-110.38
-97.31
-75.11
-46.32
-14.69
15.9
42.42
63.05
77.07
84.53
85.84
81.74
73.24
61.57
48.06
33.85
19.81
6.59
-5.2
-14.86
-21.55
-24.59
-23.86
-20.01
-14.64
-9.84
-7.61
-9.05
-14.16
-21.71
-29.87
-36.82
-41.31
-43.25
-43.65
-44.46
-47.86
-55.39
-67.02
-80.64
-92.44
-97.98
-93.85
-78.97
-55.16
-26.34
2.93
29.04
50.2
66.33
78.33
86.99
92.63
95.09
94.27
90.54
84.88
78.61
72.95
68.66
65.89
64.31
63.28
62.14
60.29
57.31
52.97
47.22
40.15
31.98
22.94
13.21
2.84
-8.29
-20.49
-34.08
-49.22
-65.52
-81.81
-95.98
-105.4
-107.61
-101.14
-86.08
-64.2
-38.58
-12.66
10.44
28.77
41.62
49.39
53.1
53.95
52.86
50.43
46.93
42.5
37.45
32.4
28.2
25.63
25.11
26.33
28.3
29.64
29.08
25.97
20.55
13.7
6.5
-0.37
-6.89
-13.7
-21.71
-31.73
-44.15
-58.81
-74.89
-90.9
-104.68
-113.64
-115.29
-108.02
-91.8
-68.37
-40.94
-13.16
11.82
32.05
47.0
57.15
63.44
66.75
67.67
66.58
63.83
59.98
55.71
51.8
48.86
47.23
46.8
47.13
47.6
47.55
46.49
44.07
40.2
34.88
28.22
20.39
11.57
2.04
-7.91
-18.02
-28.25
-38.87
-50.43
-63.4
-77.56
-91.62
-103.12
-109.05
-106.76
-95.13
-75.03
-49.26
-21.66
4.21
25.79
42.03
53.15
60.0
63.52
64.47
63.32
60.53
56.72
52.66
49.14
46.69
45.32
44.67
44.23
43.62
42.75
41.79
40.75
39.3
36.71
32.07
24.78
15.0
3.62
-8.02
-18.73
-28.08
-36.67
-45.83
-57.04
-70.96
-86.7
-101.79
-112.65
-115.86
-109.39
-93.37
-70.11
-43.31
-16.86
6.24
24.4
37.44
46.09
51.33
54.03
54.69
53.57
50.87
46.99
42.54
38.38
35.38
34.06
34.51
36.22
38.31
39.81
40.0
38.53
35.47
31.06
25.55
19.07
11.59
3.04
-6.58
-17.23
-28.76
-41.11
-54.22
-67.92
-81.61
-94.0
-103.12
-106.76
-103.03
-91.23
-72.11
-47.87
-21.62
3.45
24.76
40.87
51.44
56.96
58.41
56.81
53.09
48.08
42.5
37.08
32.55
29.46
27.98
27.94
28.76
29.74
30.26
29.88
28.37
25.67
21.73
16.55
10.19
2.82
-5.31
-13.94
-22.97
-32.57
-43.2
-55.32
-69.0
-83.27
-96.07
-104.43
-105.42
-97.2
-79.91
-55.89
-28.94
-3.08
18.66
34.91
45.88
52.55
55.88
56.33
53.88
48.62
41.14
32.77
25.24
20.11
18.15
19.09
21.82
24.81
26.68
26.65
24.58
20.86
16.06
10.64
4.81
-1.47
-8.38
-16.17
-25.17
-35.71
-48.04
-61.99
-76.68
-90.23
-100.01
-103.24
-98.01
-84.02
-62.87
-37.65
-11.92
11.28
30.06
43.89
53.06
58.24
60.0
58.83
55.25
50.02
44.13
38.62
34.31
31.54
30.22
29.83
29.83
29.76
29.29
28.2
26.17
22.89
18.04
11.59
3.79
-4.78
-13.54
-22.23
-31.15
-41.18
-53.25
-67.7
-83.57
-98.44
-108.97
-111.87
-105.29
-89.34
-66.3
-39.7
-13.23
10.28
29.32
43.59
53.5
59.67
62.59
62.58
60.05
55.57
49.99
44.34
39.59
36.46
35.16
35.41
36.5
37.56
37.77
36.56
33.76
29.43
23.84
17.35
10.24
2.66
-5.4
-14.23
-24.32
-36.16
-50.01
-65.52
-81.45
-95.6
-105.22
-107.78
-101.67
-86.95
-65.36
-39.86
-13.79
10.02
29.85
45.08
55.9
62.84
66.46
67.17
65.43
61.86
57.27
52.53
48.42
45.42
43.64
42.85
42.61
42.41
41.79
40.33
37.75
33.9
28.73
22.33
14.92
6.75
-1.89
-10.86
-20.11
-29.91
-40.67
-52.78
-66.23
-80.21
-92.98
-102.08
-105.05
-100.08
-86.78
-66.35
-41.29
-14.69
10.53
32.15
48.87
60.22
66.47
68.39
67.07
63.8
59.81
56.07
53.07
50.77
48.84
46.9
44.89
43.18
42.32
42.62
43.87
45.18
45.2
42.67
36.9
28.1
17.3
6.0
-4.57
-13.81
-21.97
-29.98
-39.08
-50.31
-63.97
-79.31
-94.44
-106.69
-113.15
-111.54
-100.94
-82.17
-57.73
-31.03
-5.52
16.24
33.03
44.9
52.6
57.0
58.72
58.0
55.04
50.21
44.32
38.51
33.91
31.33
30.97
32.41
34.73
36.81
37.74
36.89
34.12
29.62
23.82
17.18
10.05
2.61
-5.16
-13.42
-22.51
-32.82
-44.72
-58.19
-72.53
-86.12
-96.55
-101.16
-97.92
-86.16
-66.97
-42.96
-17.41
6.45
26.36
41.22
50.98
56.21
57.69
56.08
51.92
45.79
38.5
31.12
24.87
20.74
19.2
19.97
22.13
24.41
25.68
25.31
23.17
19.55
14.89
9.5
3.51
-3.23
-10.98
-20.1
-30.85
-43.31
-57.18
-71.57
-84.92
-95.12
-99.95
-97.62
-87.4
-69.96
-47.24
-22.1
2.43
23.83
40.47
51.76
57.98
59.86
58.35
54.3
48.55
41.89
35.21
29.4
25.2
23.0
22.55
23.17
23.95
24.02
22.87
20.33
16.56
11.82
6.3
0.06
-6.99
-15.01
-24.29
-35.22
-48.13
-62.95
-78.73
-93.39
-104.09
-107.86
-102.75
-88.61
-67.24
-41.86
-16.02
7.44
26.95
42.14
53.31
60.78
64.66
64.94
61.76
55.83
48.42
41.16
35.52
32.32
31.49
32.12
32.96
32.92
31.42
28.55
24.73
20.38
15.64
10.33
4.11
-3.27
-11.86
-21.64
-32.62
-44.98
-58.9
-74.09
-89.48
-102.92
-111.69
-113.15
-105.77
-89.78
-67.1
-40.81
-14.2
10.01
30.09
45.29
55.6
61.42
63.49
62.71
60.17
56.89
53.64
50.86
48.57
46.62
44.91
43.52
42.66
42.48
42.88
43.31
42.86
40.54
35.59
27.94
18.18
7.48
-2.97
-12.4
-20.94
-29.49
-39.44
-51.91
-67.06
-83.61
-98.85
-109.34
-111.94
-104.91
-88.51
-64.95
-37.77
-10.73
13.15
32.25
46.29
55.92
62.05
65.44
66.53
65.54
62.8
58.82
54.39
50.39
47.51
46.1
46.05
46.83
47.71
47.94
46.9
44.2
39.73
33.64
26.21
17.85
9.03
0.13
-8.64
-17.38
-26.6
-37.04
-49.4
-63.78
-79.33
-94.01
-105.04
-109.57
-105.73
-93.2
-73.42
-49.05
-23.14
1.52
23.02
40.31
53.05
61.36
65.58
66.25
64.1
60.11
55.35
50.82
47.28
45.18
44.53
44.94
45.92
46.91
47.46
47.26
46.08
43.78
40.3
35.68
30.06
23.68
16.74
9.28
1.19
-7.79
-18.02
-29.73
-42.73
-56.17
-68.3
-76.75
-79.04
-73.48
-59.85
-39.7
-16.02
7.65
28.09
43.2
52.23
55.64
54.55
50.28
44.02
36.54
28.37
19.8
11.22
3.18
-3.64
-8.51
-11.0
-11.14
-9.53
-7.19
-5.31
-4.8
-6.17
-9.4
-13.99
-19.24
-24.49
-29.35
-33.81
-38.26
-43.28
-49.42
-56.77
-64.72
-71.93
-76.56
-76.75
-71.23
-59.78
-43.32
-23.63
-2.97
16.6
33.47
46.75
56.14
61.67
63.56
62.1
57.75
51.27
43.76
36.49
30.6
26.82
25.18
25.14
25.78
26.22
25.79
24.12
21.14
16.86
11.4
4.92
-2.43
-10.48
-19.21
-28.75
-39.38
-51.44
-65.03
-79.62
-93.79
-105.19
-111.09
-109.14
-98.32
-79.49
-55.21
-29.12
-4.67
15.77
31.3
42.31
49.71
54.38
56.66
56.58
54.13
49.7
44.18
38.76
34.61
32.39
32.15
33.26
34.73
35.49
34.71
31.98
27.35
21.19
14.03
6.37
-1.46
-9.4
-17.66
-26.67
-37.05
-49.32
-63.55
-79.06
-94.08
-105.98
-111.83
-109.39
-97.9
-78.52
-54.01
-27.85
-3.25
17.61
33.85
45.52
53.21
57.56
59.13
58.43
56.05
52.62
48.79
45.12
42.02
39.81
38.62
38.45
38.98
39.59
39.49
37.9
34.4
29.03
22.3
14.82
7.11
-0.62
-8.51
-16.94
-26.39
-37.4
-50.33
-65.07
-80.71
-95.32
-106.16
-110.4
-106.08
-92.89
-72.4
-47.56
-21.71
2.33
22.8
39.07
51.1
59.1
63.24
63.89
61.75
57.93
53.74
50.32
48.16
47.05
46.31
45.25
43.64
41.85
40.48
39.95
40.01
39.72
37.81
33.24
25.68
15.67
4.46
-6.59
-16.5
-25.01
-32.7
-40.72
-50.36
-62.44
-76.71
-91.5
-103.96
-110.75
-109.2
-98.28
-79.05
-54.46
-28.25
-3.89
16.38
31.81
42.8
50.19
54.76
56.91
56.75
54.41
50.2
44.79
39.19
34.45
31.45
30.57
31.63
33.87
36.23
37.6
37.24
34.88
30.74
25.29
18.94
11.96
4.34
-4.02
-13.21
-23.25
-34.09
-45.77
-58.32
-71.61
-84.82
-96.32
-103.75
-104.67
-97.53
-82.35
-60.93
-36.3
-11.86
9.71
26.92
39.45
47.76
52.42
53.94
52.69
49.04
43.65
37.46
31.57
27.02
24.5
24.11
25.4
27.49
29.35
30.12
29.36
27.06
23.56
19.24
14.37
8.94
2.73
-4.51
-12.93
-22.54
-33.25
-44.85
-56.83
-68.26
-77.55
-82.6
-81.31
-72.31
-55.68
-33.12
-7.63
17.23
38.41
53.99
63.43
67.31
66.79
63.13
57.3
50.0
41.77
33.13
24.74
17.39
11.84
8.59
7.68
8.51
10.04
11.03
10.4
7.61
2.77
-3.54
-10.47
-17.42
-24.31
-31.62
-40.26
-51.12
-64.57
-79.99
-95.55
-108.51
-115.76
-114.83
-104.73
-86.31
-62.1
-35.6
-10.24
11.43
28.18
40.09
48.02
52.99
55.73
56.51
55.25
51.9
46.76
40.71
35.01
30.95
29.27
29.85
31.69
33.26
33.16
30.64
25.79
19.42
12.52
5.81
-0.63
-7.31
-15.05
-24.67
-36.64
-50.95
-66.81
-82.71
-96.36
-105.17
-106.86
-100.17
-85.39
-64.32
-39.81
-14.92
7.87
27.03
42.0
52.89
60.12
64.13
65.35
64.24
61.33
57.24
52.67
48.31
44.78
42.5
41.59
41.75
42.4
42.64
41.64
38.81
34.05
27.71
20.4
12.67
4.76
-3.47
-12.43
-22.68
-34.64
-48.41
-63.6
-79.13
-93.06
-102.94
-106.27
-101.35
-87.92
-67.41
-42.52
-16.49
7.78
28.34
44.27
55.48
62.38
65.52
65.65
63.61
60.36
56.8
53.59
51.09
49.29
48.03
47.09
46.36
45.84
45.47
44.97
43.79
41.27
36.8
30.22
21.87
12.44
2.74
-6.7
-15.77
-24.81
-34.55
-45.76
-58.9
-73.62
-88.49
-101.02
-108.2
-107.37
-97.26
-78.61
-54.03
-27.26
-1.96
19.27
35.33
46.38
53.38
57.3
58.8
58.23
55.81
51.87
47.03
42.19
38.27
36.03
35.76
37.06
39.11
40.74
40.93
39.09
35.2
29.66
23.15
16.21
9.11
1.77
-6.11
-14.98
-25.24
-37.2
-50.88
-65.73
-80.5
-93.19
-101.43
-103.04
-96.75
-82.7
-62.47
-38.71
-14.35
8.01
26.6
40.54
49.68
54.32
55.02
52.48
47.61
41.39
34.87
29.02
24.62
22.11
21.61
22.75
24.88
27.03
28.23
27.79
25.46
21.47
16.28
10.38
3.98
-3.05
-11.11
-20.7
-32.21
-45.67
-60.48
-75.26
-87.8
-95.5
-96.05
-88.22
-72.44
-50.71
-26.08
-1.72
19.9
37.42
50.47
59.27
64.2
65.48
63.35
58.28
51.21
43.43
36.4
31.23
28.42
27.64
28.01
28.48
28.2
26.71
24.01
20.26
15.69
10.36
4.2
-2.87
-10.98
-20.27
-31.0
-43.44
-57.77
-73.44
-88.9
-101.61
-108.54
-107.28
-96.88
-78.35
-54.38
-28.4
-3.54
18.06
35.45
48.54
57.52
62.68
64.26
62.62
58.45
52.8
46.91
41.92
38.53
36.79
36.19
35.9
35.1
33.31
30.48
26.8
22.53
17.82
12.56
6.5
-0.58
-8.94
-18.84
-30.6
-44.45
-60.11
-76.46
-91.33
-101.8
-104.96
-98.97
-83.78
-61.41
-35.29
-9.2
13.86
32.33
46.07
55.81
62.37
66.24
67.47
65.99
62.07
56.48
50.41
45.1
41.32
39.18
38.16
37.43
36.32
34.57
32.32
29.86
27.33
24.44
20.65
15.33
8.12
-1.07
-12.03
-24.59
-38.68
-54.14
-70.35
-85.76
-97.97
-104.21
-102.3
-91.49
-72.93
-49.35
-24.24
-0.82
18.74
33.55
43.78
50.05
53.01
53.1
50.67
46.12
40.21
34.02
28.7
25.18
23.71
23.81
24.51
24.74
23.76
21.4
17.95
13.84
9.32
4.27
-1.73
-9.15
-18.31
-29.34
-42.13
-56.31
-71.12
-85.07
-96.02
-101.49
-99.32
-88.61
-70.23
-46.67
-21.43
2.22
22.06
37.29
48.22
55.67
60.23
62.07
60.98
56.91
50.38
42.67
35.54
30.66
28.92
30.07
32.72
35.01
35.34
33.1
28.7
23.28
17.92
13.07
8.25
2.35
-5.93
-17.41
-32.09
-48.97
-66.17
-81.21
-91.54
-95.08
-90.83
-79.13
-61.71
-41.16
-20.2
-0.96
15.31
28.17
37.67
43.86
46.68
46.01
42.03
35.43
27.44
19.52
12.92
8.29
5.55
4.01
2.67
0.61
-2.83
-7.9
-14.47
-22.16
-30.44
-38.66
-46.33
-53.21
-59.43
-65.6
-72.56
-80.99
-90.92
-101.35
-110.16
-114.66
-112.32
-101.83
-83.56
-59.6
-33.0
-6.9
16.31
35.45
50.36
61.51
69.45
74.53
76.92
76.81
74.66
71.2
67.51
64.61
63.25
63.61
65.19
66.94
67.6
66.11
61.96
55.35
47.05
38.05
29.14
20.6
12.2
3.33
-6.67
-18.25
-31.53
-46.23
-61.56
-76.17
-88.16
-95.39
-95.94
-88.75
-74.04
-53.27
-28.83
-3.33
20.88
42.03
58.96
71.1
78.38
81.25
80.73
78.17
74.96
72.16
70.17
68.86
67.7
66.26
64.47
62.64
61.25
60.61
60.54
60.25
58.58
54.42
47.23
37.28
25.56
13.38
1.91
-8.26
-17.26
-25.79
-34.89
-45.54
-58.34
-73.12
-88.65
-102.67
-112.27
-114.74
-108.46
-93.52
-71.84
-46.52
-20.91
2.45
22.13
37.84
49.85
58.52
63.99
66.27
65.58
62.61
