36.1
33.68
29.53
23.74
16.62
8.65
0.26
-8.2
-16.66
-25.33
-34.69
-45.32
-57.62
-71.31
-85.07
-96.57
-102.89
-101.53
-91.28
-72.8
-48.46
-21.68
4.11
26.33
43.66
55.96
63.78
67.93
69.15
67.98
64.88
60.35
55.08
49.89
45.58
42.68
41.25
40.96
41.14
41.14
40.37
38.51
35.41
31.12
25.78
19.59
12.79
5.55
-2.07
-10.24
-19.21
-29.39
-41.18
-54.85
-70.34
-86.83
-102.58
-114.84
-120.55
-117.27
-104.22
-82.78
-56.25
-28.84
-4.33
14.85
28.08
36.1
40.25
41.85
41.64
39.93
36.85
32.66
27.93
23.55
20.43
19.23
20.02
22.24
24.91
26.89
27.38
25.96
22.71
17.97
12.21
5.87
-0.74
-7.44
-14.34
-21.83
-30.57
-41.12
-53.48
-66.56
-78.15
-85.27
-85.07
-75.9
-57.97
-33.43
-5.8
21.03
43.8
60.54
70.62
74.54
73.31
68.1
59.91
49.69
38.39
27.18
17.36
10.13
6.23
5.62
7.47
10.46
13.12
14.39
13.85
11.74
8.68
5.34
2.08
-1.28
-5.39
-11.19
-19.47
-30.64
-44.36
-59.62
-74.6
-87.07
-94.69
-95.5
-88.43
-73.59
-52.28
-26.56
1.24
29.04
55.27
78.79
98.71
114.17
124.43
129.16
128.79
124.49
118.12
111.66
106.75
104.27
104.16
105.58
107.23
107.87
106.66
103.35
98.24
91.77
84.27
75.57
65.11
52.08
35.95
16.78
-4.74
-27.56
-50.66
-73.07
-93.86
-111.8
-125.05
-131.47
-129.26
-117.89
-98.68
-74.72
-50.03
-28.48
-12.75
-3.99
-1.95
-5.52
-13.3
-23.77
-35.49
-46.95
-56.71
-63.54
-66.68
-66.03
-62.16
-56.08
-49.03
-42.22
-36.63
-32.98
-31.79
-33.38
-37.77
-44.58
-53.0
-62.08
-71.17
-80.37
-90.55
-102.74
-117.18
-132.38
-145.05
-150.91
-146.29
-129.68
-102.49
-68.67
-33.22
-0.6
26.46
47.22
62.3
72.87
79.87
83.81
84.94
83.67
80.68
77.02
73.76
71.87
71.83
73.59
76.58
79.85
82.35
83.16
81.7
77.88
72.17
65.32
58.18
51.41
45.14
39.02
32.18
23.45
11.61
-4.17
-23.87
-46.14
-68.2
-86.35
-97.08
-98.33
-90.38
-75.77
-58.24
-41.26
-26.81
-15.13
-5.48
2.78
9.46
13.53
13.94
10.55
4.57
-1.77
-6.1
-6.91
-4.05
1.31
7.24
11.86
13.94
13.11
9.76
4.66
-1.51
-8.34
-15.87
-24.35
-33.97
-44.77
-56.56
-69.17
-82.7
-97.63
-114.41
-132.83
-151.38
-167.02
-175.82
-174.26
-160.48
-135.27
-101.96
-65.28
-29.94
0.63
24.92
42.93
55.56
63.88
68.72
70.8
70.84
69.8
68.67
68.24
68.77
69.93
71.06
71.45
70.76
69.03
66.64
63.97
61.32
58.87
56.72
54.99
53.65
52.31
50.0
45.22
36.19
21.63
1.43
-22.82
-47.71
-68.84
-81.94
-84.35
-75.86
-58.83
-37.36
-15.79
2.51
15.97
24.62
29.31
30.9
29.72
25.72
18.85
9.62
-0.76
-10.6
-18.29
-22.72
-23.68
-21.71
-17.86
-13.32
-9.02
-5.54
-3.07
-1.65
-1.22
-1.82
-3.66
-6.97
-12.04
-19.05
-28.19
-39.54
-52.95
-67.74
-82.43
-94.81
-102.31
-102.73
-95.01
-79.63
-58.5
-34.35
-9.97
12.5
31.76
47.23
58.64
65.87
68.93
68.19
64.61
59.7
55.27
52.84
53.07
55.5
58.79
61.27
61.69
59.7
55.93
51.47
47.34
43.86
40.58
36.52
30.56
21.89
10.19
-4.33
-20.89
-38.09
-53.82
-65.48
-70.41
-66.7
-53.91
-33.39
-8.05
18.52
43.06
63.31
78.33
88.16
93.3
94.25
91.39
85.04
75.93
65.26
54.7
45.98
40.32
37.9
37.76
38.06
36.74
32.45
24.97
15.23
4.73
-5.23
-14.03
-22.02
-30.11
-39.36
-50.47
-63.58
-78.04
-92.41
-104.62
-112.25
-113.04
-105.52
-89.6
-66.6
-39.01
-9.81
18.19
42.74
62.41
76.5
84.93
88.06
86.63
81.61
74.14
65.41
56.52
48.58
42.42
38.43
36.4
35.36
33.99
30.91
25.33
17.23
7.43
-2.97
-12.96
-22.13
-30.87
-39.99
-50.49
-63.06
-77.79
-93.89
-109.68
-122.74
-130.36
-130.23
-121.12
-103.35
-78.81
-50.41
-21.43
5.35
28.03
45.67
57.94
64.96
67.12
65.17
60.28
53.91
47.68
42.9
40.24
39.59
40.21
41.0
40.94
39.48
36.47
32.17
26.95
21.03
14.45
7.06
-1.28
-10.7
-21.31
-33.31
-47.07
-62.74
-79.88
-96.95
-111.24
-119.4
-118.49
-106.99
-85.62
-57.27
-26.03
3.95
29.65
49.69
64.13
73.84
79.72
82.18
81.23
76.91
69.71
60.86
52.14
45.27
41.17
39.7
39.79
39.99
39.18
36.88
33.27
28.77
23.58
17.54
10.27
1.47
-8.8
-20.13
-32.14
-44.72
-58.18
-72.93
-88.7
-103.99
-116.04
-121.42
-117.31
-102.64
-78.77
-49.1
-18.02
10.38
33.41
50.02
60.51
65.9
67.11
64.82
59.46
51.57
42.02
32.06
23.16
16.57
13.03
12.53
14.54
18.31
23.17
28.77
34.93
41.51
48.07
53.95
58.38
60.74
60.83
58.71
54.47
47.93
38.5
25.66
9.58
-8.34
-25.3
-37.77
-42.78
-39.04
-27.58
-11.3
6.22
22.06
34.75
44.21
51.06
55.58
57.48
56.07
51.16
43.67
35.67
29.76
27.95
30.93
37.71
46.23
54.2
60.08
63.45
64.86
65.37
65.88
66.75
67.66
67.76
65.88
60.82
51.73
38.44
21.81
3.88
-12.45
-23.94
-27.78
-22.38
-7.71
14.79
42.6
72.68
101.97
128.0
149.02
164.14
173.18
176.38
174.14
166.81
154.88
139.14
120.93
102.11
84.75
70.64
60.83
55.37
53.47
53.76
54.68
54.54
51.79
45.02
33.2
15.87
-6.76
-33.92
-64.6
-97.91
-133.05
-168.92
-203.6
-234.18
-257.13
-269.2
-268.44
-254.8
-230.06
-197.27
-159.85
-121.08
-83.87
-50.66
-23.36
-3.12
9.9
16.6
18.54
17.51
14.91
11.57
7.78
3.46
-1.58
-7.46
-14.22
-21.95
-30.73
-40.66
-51.76
-63.81
-76.44
-89.15
-101.48
-113.22
-124.65
-136.48
-149.78
-165.39
-183.24
-201.64
-217.36
-226.13
-224.31
-210.16
-184.81
-151.93
-116.44
-82.73
-53.35
-28.77
-8.02
10.08
25.93
38.98
48.17
52.77
52.91
49.76
44.96
40.21
36.59
34.46
33.56
33.22
32.8
31.72
29.64
26.42
22.13
16.92
11.0
4.52
-2.7
-11.12
-21.52
-34.6
-50.59
-68.59
-86.25
-100.03
-106.05
-101.41
-85.15
-58.8
-25.93
8.92
41.68
69.67
91.98
108.97
121.42
129.87
134.34
134.55
130.52
123.03
113.77
104.94
98.59
95.87
96.69
99.68
102.8
104.03
102.11
96.81
88.92
79.8
70.77
62.71
55.8
49.64
43.32
35.62
25.26
11.15
-6.96
-27.96
-49.12
-66.52
-76.25
-75.81
-65.09
-46.57
-24.3
-2.43
16.17
30.51
41.03
48.71
54.06
56.87
56.4
52.15
44.39
34.17
22.9
11.66
0.82
-9.97
-21.17
-32.78
-44.11
-54.03
-61.72
-67.23
-71.56
-76.18
-82.36
-90.39
-99.59
-108.69
-116.6
-123.14
-129.13
-135.94
-144.52
-154.49
-163.7
-168.7
-165.91
-152.87
-129.29
-97.11
-59.96
-21.87
13.62
44.22
68.76
86.79
98.4
103.81
103.66
99.02
91.44
82.71
74.53
68.03
63.58
60.86
59.02
57.12
54.4
50.53
45.41
39.24
32.22
24.54
16.33
7.51
-2.2
-13.37
-26.8
-43.18
-62.53
-83.64
-103.81
-119.24
-126.06
-121.6
-105.53
-79.98
-48.91
-16.72
12.99
38.16
58.2
73.33
83.81
89.63
90.64
86.96
79.44
69.7
59.74
51.34
45.54
42.42
41.12
40.42
39.06
36.22
31.66
25.59
18.39
10.4
1.76
-7.58
-17.77
-29.09
-41.84
-56.36
-72.93
-91.22
-110.01
-126.9
-138.57
-141.64
-133.77
-114.63
-86.27
-52.63
-18.33
12.56
37.66
56.44
69.72
78.81
84.64
87.45
87.03
83.26
76.6
68.3
60.07
53.5
49.39
47.53
46.86
45.99
43.81
39.81
34.04
26.92
18.78
9.81
-0.05
-10.84
-22.55
-35.17
-48.89
-64.13
-81.42
-100.7
-120.62
-138.4
-150.05
-151.63
-140.76
-117.56
-84.95
-47.76
-11.13
20.88
46.24
64.82
77.67
86.08
90.92
92.55
91.27
87.65
82.79
78.06
74.6
72.78
72.07
71.4
69.75
66.78
62.88
58.98
55.78
53.31
50.66
46.44
39.47
29.3
16.57
2.71
-10.75
-22.71
-32.93
-42.09
-51.44
-62.36
-75.92
-92.38
-110.98
-129.72
-145.52
-154.69
-153.89
-141.23
-117.01
-83.91
-46.33
-9.12
23.66
49.69
68.58
81.36
89.61
94.7
97.34
97.68
95.6
91.24
85.23
78.73
73.06
69.25
67.66
67.88
68.85
69.28
68.13
64.85
59.52
52.6
44.62
35.95
26.54
16.16
4.64
-7.91
-20.98
-33.81
-45.66
-56.13
-65.45
-74.47
-84.28
-95.95
-109.85
-125.4
-140.84
-153.47
-160.26
-158.64
-147.32
-126.69
-98.77
-66.62
-33.55
-2.35
25.09
47.85
65.73
78.91
87.67
92.42
93.71
92.36
89.41
86.04
83.36
82.17
82.73
84.65
87.06
88.92
89.34
87.87
84.65
80.18
75.01
69.49
63.5
56.53
47.88
36.97
23.71
8.64
-7.19
-22.49
-36.27
-48.18
-58.76
-69.23
-81.11
-95.63
-113.08
-132.44
-151.3
-166.2
-173.53
-170.51
-156.05
-131.21
-98.87
-62.87
-27.02
5.69
33.41
55.26
71.01
80.85
85.37
85.57
82.81
78.63
74.33
70.81
68.43
67.11
66.52
66.28
66.09
65.74
65.01
63.67
61.43
57.89
52.75
45.73
36.78
26.04
13.91
0.95
-12.14
-24.71
-36.37
-47.03
-57.14
-67.55
-79.44
-93.56
-109.76
-126.38
-140.36
-148.01
-146.09
-132.96
-109.35
-78.12
-43.33
-9.1
21.41
46.47
65.42
78.34
85.52
87.35
84.45
77.91
69.31
60.5
53.11
48.09
45.46
44.46
44.07
43.6
42.86
42.1
41.54
40.97
39.51
35.99
29.34
19.23
6.27
-8.21
-22.61
-35.73
-47.21
-57.69
-68.49
-81.11
-96.52
-114.43
-133.07
-149.24
-159.13
-159.36
-148.09
-125.61
-94.4
-58.36
-21.8
11.71
39.92
61.98
78.07
88.84
94.9
96.77
94.86
89.83
82.64
74.56
66.89
60.7
56.61
54.63
54.29
54.72
54.84
53.6
50.19
44.25
35.93
25.84
14.69
3.12
-8.64
-20.72
-33.47
-47.18
-62.08
-78.28
-95.73
-113.95
-131.7
-146.82
-156.36
-157.36
-147.74
-127.14
-97.23
-61.33
-23.58
12.06
42.52
66.02
82.13
91.45
95.37
95.6
93.68
90.65
87.0
82.76
77.89
72.59
67.4
63.05
60.14
58.75
58.25
57.54
55.32
50.66
43.19
33.22
21.51
8.89
-3.99
-16.86
-29.77
-43.09
-57.38
-73.28
-91.13
-110.51
-129.77
-145.94
-155.28
-154.44
-141.58
-117.28
-84.44
-47.46
-10.83
21.86
48.66
69.04
83.45
92.73
97.75
99.24
97.74
93.86
88.24
81.7
75.17
69.56
65.47
63.08
62.01
61.42
60.36
57.93
53.53
46.94
38.31
28.01
16.48
4.21
-8.46
-21.25
-34.1
-47.2
-61.04
-76.32
-93.59
-112.62
-131.86
-148.33
-158.19
-157.82
-145.21
-120.75
-87.27
-49.18
-11.14
23.2
51.66
73.6
89.34
99.6
105.07
106.38
104.18
99.28
92.73
85.57
78.82
73.16
68.89
66.0
64.2
63.03
61.93
60.19
57.05
51.94
44.56
35.04
23.92
11.85
-0.61
-13.14
-25.85
-39.2
-53.89
-70.57
-89.33
-109.12
-127.48
-140.81
-145.26
-138.03
-118.55
-88.88
-53.18
-16.36
17.37
45.35
66.66
81.62
90.93
95.21
94.78
90.12
82.04
71.98
61.73
53.03
47.0
43.76
42.52
41.8
40.21
36.92
31.85
25.53
18.7
11.69
4.3
-4.1
-14.25
-26.65
-41.41
-58.36
-76.96
-96.19
-114.38
-129.0
-137.04
-135.75
-123.57
-100.87
-70.06
-35.03
-0.09
31.08
56.11
74.09
85.16
90.06
89.72
85.03
77.06
67.01
56.33
46.43
38.34
32.39
28.27
25.13
22.07
18.53
14.36
9.66
4.53
-1.21
-8.05
-16.48
-26.92
-39.62
-54.66
-71.96
-90.94
-110.23
-127.41
-139.31
-142.64
-135.13
-116.38
-88.11
-53.83
-17.69
16.46
45.93
69.18
85.75
95.7
99.41
97.54
91.05
81.37
70.25
59.45
50.29
43.46
38.78
35.5
32.66
29.41
25.32
20.27
14.37
7.71
0.24
-8.2
-17.9
-29.17
-42.53
-58.46
-77.16
-97.9
-118.62
-135.87
-145.49
-143.9
-129.33
-102.82
-67.9
-29.54
7.36
39.27
64.67
83.58
96.9
105.4
109.39
108.84
103.94
95.5
85.12
74.84
66.45
60.81
57.64
55.68
53.35
49.45
43.56
35.96
27.3
18.08
8.3
-2.41
-14.67
-29.0
-45.78
-65.06
-86.53
-109.18
-131.08
-149.3
-160.31
-160.91
-149.25
-125.66
-92.69
-54.5
-15.63
20.05
50.08
73.42
90.19
101.11
107.01
108.71
106.96
102.55
96.3
89.16
81.99
75.5
70.16
66.08
62.93
60.0
56.39
51.2
43.83
34.21
22.73
10.09
-2.99
-16.12
-29.39
-43.29
-58.64
-76.22
-96.28
-118.23
-140.11
-158.72
-170.02
-170.41
-157.75
-132.33
-96.93
-55.96
-14.3
24.05
56.59
82.41
101.57
114.61
122.09
124.64
123.14
118.79
113.13
107.66
103.44
100.65
98.72
96.62
93.46
88.94
83.37
77.41
71.49
65.36
58.12
48.57
35.88
20.08
2.17
-16.37
-33.99
-49.81
-63.67
-76.2
-88.45
-101.61
-116.64
-133.81
-152.45
-170.59
-185.22
-192.78
-190.16
-175.63
-149.46
-113.99
-72.99
-30.77
8.8
42.95
70.15
90.1
103.29
110.69
113.49
112.93
110.23
106.63
103.24
100.8
99.58
99.29
99.24
98.69
97.21
94.76
91.57
87.79
83.21
77.28
69.34
59.0
46.37
32.03
16.75
1.22
-14.15
-29.15
-43.7
-57.59
-70.61
-82.68
-94.17
-105.99
-119.3
-134.77
-151.82
-168.13
-179.86
-182.72
-173.5
-151.38
-118.38
-78.75
-37.53
0.85
33.62
59.76
79.54
93.69
102.85
107.35
107.58
104.2
98.43
91.85
86.0
81.97
80.06
79.84
80.35
80.61
79.96
78.12
75.17
71.19
66.07
59.36
50.51
39.1
25.23
9.63
-6.52
-21.94
-35.78
-47.91
-58.92
-69.85
-81.79
-95.59
-111.52
-128.99
-146.4
-161.14
-169.95
-169.64
-158.13
-135.21
-102.89
-64.88
-25.57
11.07
42.27
66.7
84.19
95.23
100.63
101.33
98.44
93.27
87.23
81.58
77.19
74.34
72.75
71.83
70.99
69.84
68.27
66.28
63.7
60.02
54.45
46.17
34.8
20.61
4.62
-11.72
-27.04
-40.53
-52.25
-63.04
-74.17
-86.88
-101.99
-119.44
-138.13
-155.78
-169.34
-175.55
-171.77
-156.78
-131.22
-97.5
-59.21
-20.46
15.04
44.58
66.64
81.0
88.33
89.93
87.34
81.98
75.14
67.85
60.93
55.01
50.5
47.5
45.92
45.46
45.65
45.83
45.16
42.77
37.91
30.23
19.91
7.68
-5.52
-18.95
-32.31
-45.97
-60.78
-77.73
-97.25
-118.66
-139.76
-157.12
-166.86
-165.78
-152.53
-128.16
-95.8
-59.86
-24.71
6.22
31.02
49.08
60.73
66.65
67.64
64.56
58.35
50.32
41.99
34.9
30.3
28.77
29.97
32.8
35.75
37.36
36.72
33.6
28.43
21.92
14.74
7.17
-0.91
-9.98
-20.71
-33.72
-49.45
-67.88
-88.17
-108.45
-125.86
-137.08
-139.2
-130.74
-112.26
-86.29
-56.5
-26.59
0.65
23.75
42.32
56.48
66.32
71.8
72.96
70.2
64.6
57.78
51.45
47.02
45.09
45.31
46.69
47.89
47.71
45.31
40.33
32.82
23.02
11.3
-1.98
-16.36
-31.31
-46.39
-61.37
-76.46
-92.29
-109.52
-128.2
-147.15
-163.63
-173.85
-174.06
-161.84
-137.24
-102.9
-63.3
-23.35
12.95
43.35
67.42
85.82
99.59
109.37
115.37
117.67
116.67
113.37
109.26
106.03
104.93
106.39
109.85
113.87
116.64
116.54
112.56
104.48
92.85
78.6
62.66
45.75
28.4
11.0
-6.06
-22.4
-37.89
-52.56
-66.42
-79.01
-88.92
-93.85
-91.07
-78.36
-54.88
-21.69
18.47
61.86
104.59
143.47
176.31
202.0
220.23
231.37
236.23
235.98
232.08
226.01
219.05
211.89
204.54
196.33
186.42
174.18
159.71
143.69
127.08
110.6
94.39
78.06
61.06
43.18
24.67
6.29
-11.3
-27.8
-43.52
-59.36
-76.34
-95.23
-116.05
-137.79
-158.38
-174.99
-184.67
-185.14
-175.54
-156.84
-131.59
-103.33
-75.64
-51.31
-31.96
-18.08
-9.45
-5.54
-5.83
-9.77
-16.55
-25.01
-33.56
-40.57
-44.9
-46.19
-44.99
-42.3
-39.13
-36.0
-32.96
-29.83
-26.63
-23.88
-22.62
-24.01
-28.93
-37.63
-49.61
-63.77
-78.68
-92.92
-105.4
-115.59
-123.68
-130.54
-137.49
-145.81
-156.06
-167.58
-178.23
-184.75
-183.7
-172.65
-151.08
-120.68
-84.86
-47.69
-12.79
17.43
41.88
60.51
73.67
81.84
85.57
85.6
83.07
79.43
76.14
74.27
74.2
75.54
77.44
78.96
79.48
78.81
77.03
74.18
70.06
64.21
56.18
45.9
33.75
20.61
7.49
-4.83
-15.99
-26.23
-36.23
-46.93
-59.27
-73.86
-90.54
-108.05
-124.04
-135.37
-138.93
-132.58
-115.86
-90.2
-58.57
-24.69
7.95
36.6
59.75
76.92
88.39
94.9
97.27
96.37
93.01
88.14
82.71
77.67
73.77
71.29
70.07
69.55
69.04
67.96
65.99
62.96
58.84
53.46
46.62
38.07
27.73
15.77
2.61
-11.07
-24.56
-37.13
-48.29
-57.89
-66.23
-74.08
-82.48
-92.44
-104.53
-118.36
-132.29
-143.59
-149.1
-146.13
-133.52
-112.05
-84.31
-53.91
-24.39
1.72
23.23
39.99
52.35
60.44
64.11
63.15
57.87
49.33
39.42
30.29
23.62
20.06
19.1
19.47
19.88
19.69
19.03
18.63
19.17
20.76
22.7
23.73
22.54
18.42
11.5
2.73
-6.64
-15.47
-23.18
-29.84
-36.11
-42.9
-51.16
-61.6
-74.52
-89.59
-105.64
-120.69
-132.21
-137.75
-135.64
-125.53
-108.49
-86.64
-62.52
-38.43
-16.07
3.52
19.74
32.21
40.56
44.52
44.07
39.69
32.41
23.72
15.34
8.81
5.17
4.84
7.62
13.03
20.43
29.35
39.37
50.1
61.09
71.65
81.01
88.5
93.69
96.64
97.96
98.69
99.81
101.95
104.92
107.79
109.17
107.75
102.85
94.82
85.07
75.79
69.47
68.23
73.27
84.46
100.26
118.04
134.71
147.55
154.71
155.64
150.95
142.0
130.35
117.27
103.59
89.81
76.4
63.9
52.93
43.77
36.12
29.01
21.22
11.93
1.2
-9.94
-20.08
-28.24
-34.47
-39.75
-45.35
-52.01
-59.45
-66.53
-71.74
-74.0
-73.06
-69.67
-65.45
-62.61
-63.57
-70.39
-83.99
-103.31
-125.1
-144.38
-155.82
-155.47
-141.97
-116.98
-84.45
-49.27
-15.89
12.45
34.04
48.38
55.65
56.53
51.88
42.79
30.48
16.31
1.62
-12.37
-24.72
-34.91
-42.88
-48.94
-53.67
-57.77
-61.94
-66.8
-72.82
-80.23
-89.03
-99.0
-109.82
-121.11
-132.61
-144.18
-155.99
-168.46
-182.2
-197.73
-214.86
-232.32
-247.51
-256.87
-256.92
-245.4
-222.16
-189.4
-151.01
-111.4
-74.35
-42.41
-16.69
2.66
15.99
23.84
26.84
25.85
22.03
16.73
11.14
6.05
1.67
-2.19
-5.83
-9.28
-12.27
-14.37
-15.34
-15.49
-15.56
-16.46
-18.72
-22.28
-26.5
-30.56
-33.99
-36.91
-40.16
-44.95
-52.35
-62.76
-75.57
-89.01
-100.36
-106.57
-104.99
-94.29
-75.01
-49.55
-21.58
4.98
26.97
42.6
51.45
54.16
51.83
45.79
37.52
28.78
21.53
17.65
18.4
23.96
33.4
45.03
57.08
68.2
77.77
85.58
91.43
94.82
94.99
91.32
83.77
73.15
60.95
48.82
38.09
29.29
22.12
15.5
8.11
-1.03
-11.85
-22.82
-31.12
-33.44
-27.2
-11.56
12.1
40.72
70.56
98.3
121.69
139.62
151.83
158.56
160.43
158.28
153.11
145.83
137.07
127.18
116.5
105.77
96.19
89.17
85.87
86.6
90.8
97.17
104.09
109.92
113.28
112.98
108.17
98.5
84.35
66.81
47.4
27.5
7.83
-11.71
-31.68
-52.36
-72.93
-91.29
-104.53
-109.8
-105.43
-91.57
-70.19
-44.4
-17.58
7.5
29.09
46.45
59.52
68.52
73.73
75.4
73.99
70.32
65.46
60.59
56.7
54.35
53.56
53.96
54.9
55.74
55.99
55.26
53.36
50.14
45.52
39.43
31.9
23.08
13.21
2.6
-8.46
-19.84
-31.6
-43.93
-56.82
-69.67
-81.11
-89.05
-91.15
-85.63
-71.89
-50.98
-25.43
1.46
26.41
47.0
62.1
71.78
76.98
78.91
78.64
76.96
74.4
71.35
68.23
65.43
63.26
61.86
61.23
61.27
61.79
62.49
62.79
61.85
58.68
52.57
43.32
31.58
18.59
5.8
-5.67
-15.41
-23.74
-31.54
-39.89
-49.64
-61.06
-73.57
-85.67
-95.08
-99.3
-96.3
-85.27
-66.94
-43.52
-18.0
6.63
28.19
45.52
58.43
67.34
72.82
75.41
75.6
73.9
70.92
67.38
64.04
61.47
60.0
59.56
59.86
60.5
61.15
61.64
61.91
61.95
61.5
60.09
57.15
52.29
45.57
37.48
28.89
20.64
13.37
7.23
1.96
-3.07
-8.74
-15.97
-25.4
-36.98
-49.63
-61.12
-68.54
-69.17
-61.57
-46.26
-25.67
-3.34
17.23
33.52
44.39
49.88
50.6
47.22
40.19
29.88
16.82
1.98
-13.33
-27.63
-39.69
-48.79
-54.9
-58.61
-60.73
-62.1
-63.29
-64.48
-65.63
-66.61
-67.44
-68.29
-69.46
-71.1
-73.08
-74.97
-76.11
-75.81
-73.68
-69.69
-64.3
-58.31
-52.64
-48.07
-44.96
-42.89
-40.66
-36.38
-28.02
-14.05
5.91
30.99
59.22
88.19
115.71
140.17
160.66
176.71
188.14
194.79
196.7
194.16
187.88
178.94
168.56
157.87
147.62
138.13
129.18
120.3
110.82
100.11
87.72
73.49
57.54
40.23
21.98
3.13
-16.19
-36.09
-56.71
-77.97
-99.43
-120.19
-139.25
-155.76
-169.32
-179.94
-187.84
-193.32
-196.64
-198.07
-197.85
-196.09
-192.4
-185.75
-174.4
-156.47
-130.79
-97.66
-59.22
-18.93
19.4
52.81
79.82
100.57
116.18
127.99
136.88
143.18
146.83
147.83
146.56
143.79
140.49
137.57
135.59
134.74
134.82
135.38
135.88
135.88
135.11
133.7
131.98
130.46
129.53
129.27
129.34
129.05
127.45
123.64
116.99
107.35
95.14
81.33
67.13
53.62
41.32
29.9
18.27
5.23
-9.72
-25.81
-40.96
-52.42
-57.9
-56.53
-49.38
-39.14
-29.27
-22.96
-22.27
-27.77
-38.67
-53.29
-69.58
-85.65
-99.97
-111.55
-119.73
-124.18
-124.78
-121.7
-115.56
-107.32
-98.23
-89.48
-82.04
-76.37
-72.45
-69.9
-68.22
-67.05
-66.29
-66.16
-67.13
-69.67
-74.03
-79.97
-86.88
-93.91
-100.29
-105.59
-109.8
-113.21
-116.32
-119.67
-123.81
-129.33
-136.67
-145.89
-156.18
-165.73
-171.89
-171.85
-163.64
-146.76
-122.62
-94.03
-64.37
-36.65
-12.82
6.35
21.06
31.91
39.51
44.31
46.59
46.74
45.31
43.16
41.15
40.02
40.09
41.22
42.93
44.66
45.94
46.52
46.35
45.36
43.46
40.47
36.14
30.29
22.85
14.01
4.15
-6.22
-16.56
-26.54
-36.07
-45.19
-54.01
-62.52
-70.71
-78.73
-86.95
-95.98
-106.34
-117.94
-129.68
-139.44
-144.57
-142.69
-132.52
-114.43
-90.29
-63.04
-35.77
-11.01
9.68
25.75
37.34
44.84
48.67
49.2
46.97
42.75
37.73
33.19
30.21
29.34
30.4
32.58
34.93
36.76
37.77
38.16
38.19
37.83
36.6
33.62
28.05
19.58
8.66
-3.61
-15.82
-26.8
-35.97
-43.45
-50.03
-56.75
-64.67
-74.58
-86.81
-100.85
-115.32
-127.93
-135.96
-136.99
-129.61
-113.96
-91.66
-65.38
-37.98
-12.02
10.79
29.5
43.7
53.41
58.79
60.22
58.39
54.3
49.19
44.31
40.66
38.69
38.31
38.91
39.76
40.42
40.83
41.28
41.97
42.75
42.94
41.58
37.68
30.68
20.71
8.47
-4.91
-18.28
-30.72
-41.87
-51.89
-61.6
-72.1
-84.52
-99.45
-116.3
-133.18
-147.01
-154.36
-152.53
-140.46
-119.13
-91.16
-60.04
-29.05
-0.68
23.59
43.08
57.63
67.4
72.75
74.25
72.72
69.18
64.77
60.53
57.29
55.45
54.89
55.14
55.52
55.53
55.0
53.95
52.44
50.22
46.74
41.28
33.32
22.91
10.72
-2.14
-14.52
-25.73
-35.91
-46.03
-57.59
-71.86
-89.02
-107.66
-124.68
-136.13
-138.34
-129.28
-109.3
-81.07
-48.74
-16.61
11.93
35.13
52.76
65.59
74.59
80.53
83.75
84.36
82.62
79.06
74.64
70.4
67.16
65.28
64.59
64.6
64.75
64.63
63.95
62.47
59.87
55.73
49.66
41.49
31.42
19.99
7.91
-4.24
-16.22
-28.25
-41.02
-55.31
-71.64
-89.69
-107.87
-123.4
-132.84
-133.09
-122.48
-101.39
-72.2
-38.67
-4.81
26.02
51.65
71.15
84.67
92.88
96.77
97.41
95.78
92.74
88.98
85.09
81.44
78.27
75.65
73.6
72.14
71.25
70.84
70.6
69.87
67.72
63.23
55.92
45.87
33.88
21.04
8.34
-3.85
-15.84
-28.59
-43.3
-60.8
-81.06
-102.65
-122.81
-137.84
-144.21
-139.59
-123.72
-98.68
-68.21
-36.63
-7.54
16.93
36.29
51.04
62.04
69.84
74.49
75.83
73.84
69.07
62.6
55.87
50.24
46.57
45.04
45.23
46.4
47.64
48.13
47.18
44.27
39.07
31.54
21.95
10.84
-1.09
-13.25
-25.32
-37.5
-50.37
-64.6
-80.48
-97.32
-113.18
-124.99
-129.35
-123.63
-107.13
-81.4
-49.97
-17.13
13.27
38.77
58.6
73.11
83.06
89.04
91.32
90.08
85.81
79.44
72.28
65.68
60.6
57.46
56.04
55.71
55.65
55.08
53.37
50.07
44.96
37.96
29.26
19.19
8.23
-3.25
-15.1
-27.58
-41.43
-57.46
-76.0
-96.23
-115.81
-131.21
-138.63
-135.21
-120.16
-95.16
-63.83
-30.61
0.51
26.96
47.8
63.29
74.2
81.19
84.57
84.47
81.21
75.54
68.66
61.92
56.49
52.93
51.08
50.27
49.54
48.04
45.22
40.93
35.33
28.71
21.18
12.77
3.26
-7.5
-19.59
-32.93
-47.44
-63.23
-80.38
-98.51
-116.18
-130.71
-138.53
-136.26
-122.16
-96.95
-63.92
-27.96
6.01
34.37
55.58
70.0
79.14
84.75
88.09
89.72
89.65
87.75
84.07
79.11
73.71
68.94
65.58
63.94
63.63
63.76
63.12
60.63
55.58
47.85
37.84
26.28
13.98
1.58
-10.58
-22.58
-34.91
-48.31
-63.63
-81.22
-100.46
-119.41
-134.93
-143.34
-141.59
-128.36
-104.68
-73.82
-40.15
-7.89
20.05
42.5
59.72
72.62
82.03
88.26
91.34
91.4
89.05
85.45
81.9
79.34
77.99
77.42
76.88
75.75
73.91
71.57
69.0
66.2
62.63
57.44
49.86
39.62
27.09
13.31
-0.54
-13.47
-25.09
-35.82
-46.77
-59.28
-74.27
-91.49
-109.11
-123.75
-131.43
-128.76
-114.28
-89.14
-56.76
-21.67
11.84
40.87
64.16
81.75
94.22
102.03
105.41
104.47
99.61
91.7
82.0
71.82
62.15
53.39
45.4
37.93
30.81
24.19
18.4
13.66
9.58
5.2
-0.77
-9.27
-20.4
-33.15
-45.86
-56.83
-65.04
-70.67
-75.0
-79.87
-87.19
-98.08
-112.41
-128.59
-143.7
-154.07
-156.21
-147.84
-128.65
-100.55
-67.09
-32.41
-0.13
27.47
49.53
66.2
78.07
85.66
89.34
89.55
87.04
82.92
78.42
74.6
72.01
70.66
70.08
69.7
69.1
67.98
66.21
63.6
59.84
54.49
47.2
37.87
26.75
14.39
1.49
-11.29
-23.51
-35.07
-46.25
-57.74
-70.42
-85.07
-101.84
-119.7
-136.26
-148.08
-151.5
-144.02
-125.18
-96.91
-63.03
-27.99
4.27
31.26
52.0
66.78
76.55
82.32
85.0
85.24
83.55
80.42
76.37
71.87
67.49
63.75
61.0
59.42
58.83
58.76
58.41
56.88
53.22
46.77
37.39
25.53
12.15
-1.6
-14.71
-26.72
-37.8
-48.78
-60.82
-75.01
-91.85
-110.71
-129.61
-145.36
-154.28
-153.25
-140.84
-117.87
-87.32
-53.34
-20.02
9.55
33.88
52.71
66.5
75.75
80.94
82.46
81.04
77.8
74.0
70.78
68.69
67.67
67.12
66.37
64.99
63.01
60.81
58.72
56.72
54.2
50.09
43.22
