22.37
19.75
16.78
13.42
9.43
4.51
-1.55
-8.79
-17.14
-26.53
-36.92
-48.02
-59.13
-68.88
-75.46
-77.06
-72.53
-61.9
-46.47
-28.46
-10.25
6.18
19.72
30.11
37.58
42.42
44.77
44.66
42.25
38.08
33.04
28.29
24.76
22.87
22.39
22.63
22.78
22.25
20.94
19.01
16.74
14.23
11.31
7.59
2.79
-3.18
-10.14
-17.8
-26.04
-34.99
-44.88
-55.66
-66.54
-75.8
-81.19
-80.58
-72.89
-58.65
-39.96
-19.77
-0.97
14.53
26.13
34.29
39.92
43.74
45.98
46.46
44.94
41.6
37.04
32.27
28.31
25.79
24.79
24.85
25.29
25.43
24.81
23.24
20.73
17.33
13.08
8.09
2.42
-3.74
-10.3
-17.32
-25.11
-34.1
-44.54
-56.01
-67.22
-76.06
-80.22
-77.96
-68.81
-53.91
-35.55
-16.49
0.92
15.35
26.47
34.64
40.34
43.85
45.19
44.31
41.46
37.28
32.73
28.77
26.07
24.76
24.49
24.7
24.76
24.3
23.12
21.17
18.5
15.13
11.09
6.41
1.08
-4.95
-11.73
-19.33
-27.8
-37.13
-47.21
-57.63
-67.58
-75.72
-80.42
-80.05
-73.64
-61.26
-44.24
-24.81
-5.51
11.51
24.96
34.47
40.39
43.28
43.74
42.26
39.31
35.46
31.43
27.94
25.57
24.59
24.79
25.67
26.6
27.01
26.58
25.16
22.78
19.55
15.56
10.96
5.87
0.44
-5.29
-11.44
-18.39
-26.59
-36.42
-47.67
-59.31
-69.5
-75.94
-76.59
-70.38
-57.63
-40.05
-20.25
-0.94
15.81
28.94
38.41
44.76
48.67
50.55
50.5
48.47
44.6
39.45
33.96
29.26
26.27
25.32
26.03
27.46
28.44
28.09
26.02
22.44
17.94
13.09
8.21
3.26
-2.09
-8.2
-15.26
-23.36
-32.53
-42.79
-54.01
-65.5
-75.88
-83.12
-85.15
-80.59
-69.43
-53.07
-33.89
-14.48
3.15
17.83
29.17
37.22
42.14
44.09
43.29
40.21
35.55
30.27
25.39
21.79
19.98
19.96
21.15
22.63
23.42
22.86
20.83
17.72
14.12
10.51
6.92
3.01
-1.75
-7.83
-15.44
-24.58
-34.98
-46.19
-57.38
-67.29
-74.21
-76.4
-72.59
-62.55
-47.35
-29.07
-10.3
6.66
20.32
30.22
36.66
40.29
41.67
41.15
38.87
35.08
30.34
25.47
21.4
18.8
17.8
17.98
18.5
18.55
17.67
15.83
13.34
10.55
7.57
4.18
-0.04
-5.58
-12.78
-21.79
-32.43
-44.13
-55.74
-65.57
-71.67
-72.26
-66.45
-54.56
-38.23
-19.87
-1.95
13.64
25.98
34.98
41.02
44.53
45.76
44.75
41.6
36.66
30.7
24.74
19.81
16.62
15.25
15.2
15.59
15.48
14.27
11.77
8.25
4.17
-0.06
-4.33
-8.88
-14.2
-20.93
-29.61
-40.35
-52.54
-64.75
-74.87
-80.62
-80.23
-73.1
-60.02
-42.93
-24.3
-6.32
9.59
22.81
33.3
41.1
46.1
48.09
47.07
43.43
38.2
32.69
28.2
25.53
24.77
25.35
26.34
26.8
26.07
23.91
20.49
16.18
11.43
6.57
1.68
-3.38
-9.02
-15.86
-24.47
-35.17
-47.75
-61.15
-73.54
-82.61
-86.19
-82.93
-72.86
-57.32
-38.59
-19.15
-0.96
14.79
27.66
37.57
44.5
48.41
49.35
47.71
44.3
40.19
36.43
33.73
32.28
31.83
31.84
31.81
31.38
30.36
28.7
26.31
23.09
18.93
13.82
7.91
1.45
-5.26
-12.14
-19.4
-27.54
-37.08
-48.19
-60.27
-71.81
-80.67
-84.57
-81.9
-72.21
-56.47
-36.78
-15.73
4.15
21.02
33.91
42.71
47.92
50.37
50.83
49.9
47.96
45.26
42.08
38.86
36.16
34.44
33.97
34.54
35.59
36.34
35.99
34.09
30.51
25.51
19.56
13.18
6.73
0.32
-6.25
-13.44
-21.82
-31.88
-43.64
-56.43
-68.76
-78.54
-83.57
-82.23
-74.02
-59.73
-41.24
-20.99
-1.36
15.87
29.71
39.92
46.77
50.76
52.41
52.1
50.17
47.0
43.15
39.36
36.39
34.79
34.64
35.56
36.74
37.32
36.7
34.67
31.43
27.35
22.74
17.76
12.33
6.3
-0.5
-8.08
-16.43
-25.63
-35.8
-46.99
-58.78
-69.99
-78.71
-82.77
-80.42
-71.05
-55.6
-36.22
-15.7
3.47
19.63
32.12
41.03
46.82
49.97
50.88
49.88
47.4
44.01
40.43
37.34
35.3
34.47
34.64
35.33
35.92
35.85
34.76
32.51
29.15
24.78
19.48
13.34
6.49
-0.83
-8.38
-16.04
-24.01
-32.84
-43.08
-54.92
-67.53
-79.05
-86.85
-88.44
-82.44
-69.14
-50.51
-29.53
-9.22
8.23
21.9
31.87
38.76
43.13
45.23
45.12
42.93
39.11
34.43
29.87
26.3
24.18
23.53
23.92
24.74
25.35
25.21
23.97
21.47
17.78
13.16
7.9
2.29
-3.52
-9.66
-16.47
-24.49
-34.17
-45.59
-58.09
-70.12
-79.48
-83.85
-81.68
-72.64
-57.96
-39.89
-20.95
-3.23
12.11
24.66
34.38
41.25
45.09
45.76
43.48
38.97
33.39
28.02
23.84
21.32
20.36
20.47
20.93
21.08
20.47
18.93
16.55
13.56
10.14
6.36
2.08
-2.92
-8.9
-16.07
-24.65
-34.68
-45.96
-57.7
-68.43
-76.16
-78.91
-75.34
-65.34
-50.1
-31.8
-12.84
4.74
19.64
31.3
39.61
44.71
46.77
46.09
43.19
38.8
33.87
29.29
25.75
23.55
22.53
22.18
21.86
21.03
19.4
16.96
13.91
10.43
6.61
2.34
-2.6
-8.46
-15.52
-24.01
-34.09
-45.64
-58.01
-69.88
-79.32
-84.2
-82.87
-74.75
-60.63
-42.47
-22.8
-3.95
12.48
25.72
35.71
42.59
46.55
47.75
46.43
43.09
38.57
33.83
29.8
27.1
25.91
25.95
26.62
27.18
26.98
25.61
23.02
19.39
15.08
10.4
5.47
0.21
-5.64
-12.47
-20.69
-30.63
-42.36
-55.39
-68.49
-79.68
-86.59
-87.17
-80.43
-66.88
-48.45
-27.87
-7.84
9.69
23.87
34.76
42.8
48.4
51.69
52.61
51.22
47.89
43.41
38.79
35.01
32.65
31.8
32.06
32.75
33.19
32.84
31.34
28.58
24.6
19.59
13.86
7.71
1.42
-4.97
-11.68
-19.16
-27.91
-38.24
-49.95
-62.13
-73.13
-80.95
-83.67
-80.1
-70.11
-54.76
-36.01
-16.16
2.65
18.91
31.81
41.18
47.17
50.18
50.7
49.34
46.77
43.73
40.9
38.74
37.45
36.92
36.88
37.02
37.07
36.86
36.23
34.96
32.76
29.34
24.49
18.33
11.19
3.58
-4.03
-11.42
-18.81
-26.74
-35.89
-46.6
-58.52
-70.37
-80.06
-85.22
-83.96
-75.52
-60.67
-41.5
-20.91
-1.61
14.5
26.71
35.37
41.23
45.04
47.07
47.26
45.48
41.99
37.56
33.3
30.26
29.0
29.36
30.64
31.93
32.45
31.84
30.06
27.26
23.64
19.27
14.19
8.5
2.3
-4.3
-11.3
-18.83
-27.25
-36.91
-48.01
-60.17
-72.2
-82.22
-87.99
-87.57
-80.12
-66.2
-47.66
-27.17
-7.33
9.93
23.62
33.56
40.09
43.68
44.75
43.69
40.91
36.98
32.58
28.43
25.19
23.29
22.85
23.6
25.03
26.44
27.21
26.86
25.14
21.99
17.5
11.91
5.55
-1.21
-8.11
-15.11
-22.59
-31.16
-41.35
-53.07
-65.22
-75.7
-81.92
-81.72
-74.15
-59.89
-41.09
-20.57
-1.06
15.58
28.51
37.75
43.73
46.96
47.84
46.68
43.89
39.99
35.68
31.66
28.48
26.41
25.44
25.32
25.64
25.92
25.67
24.44
21.9
17.96
12.85
7.01
0.93
-5.07
-11.06
-17.47
-24.93
-34.0
-44.91
-57.23
-69.9
-81.21
-89.13
-91.81
-88.02
-77.56
-61.41
-41.55
-20.4
-0.38
16.74
29.95
39.11
44.6
47.05
47.13
45.44
42.53
38.96
35.28
32.06
29.69
28.42
28.17
28.66
29.39
29.81
29.39
27.77
24.83
20.62
15.38
9.36
2.79
-4.26
-11.76
-19.8
-28.53
-38.16
-48.88
-60.49
-72.25
-82.61
-89.48
-90.77
-85.1
-72.41
-54.08
-32.65
-11.03
8.28
23.74
34.91
42.2
46.46
48.46
48.74
47.58
45.19
41.87
38.14
34.68
32.11
30.81
30.75
31.48
32.26
32.31
31.05
28.22
23.98
18.73
12.95
7.03
1.11
-4.89
-11.22
-18.32
-26.63
-36.55
-48.1
-60.65
-72.76
-82.3
-86.96
-85.02
-75.93
-60.63
-41.26
-20.55
-0.99
15.69
28.74
38.24
44.65
48.51
50.13
49.71
47.48
43.88
39.7
35.85
33.15
31.95
32.08
32.96
33.9
34.32
33.99
32.87
30.95
28.16
24.29
19.18
12.81
5.39
-2.69
-11.11
-19.75
-28.87
-38.89
-50.07
-61.99
-73.39
-82.19
-86.09
-83.32
-73.3
-56.97
-36.51
-14.74
5.67
22.79
35.66
44.25
49.09
51.0
50.81
49.23
46.78
43.87
40.85
38.01
35.66
34.07
33.43
33.66
34.48
35.34
35.55
34.52
31.87
27.56
21.91
15.47
8.74
2.13
-4.24
-10.59
-17.35
-25.14
-34.5
-45.66
-58.2
-70.83
-81.52
-87.87
-87.89
-80.66
-66.78
-48.17
-27.55
-7.57
9.78
23.5
33.48
40.12
43.94
45.32
44.48
41.7
37.46
32.55
27.95
24.54
22.79
22.65
23.52
24.61
25.25
25.06
24.03
22.22
19.66
16.28
11.95
6.67
0.58
-6.02
-12.92
-20.18
-28.16
-37.42
-48.19
-60.08
-71.72
-80.98
-85.47
-83.32
-73.93
-58.26
-38.62
-17.95
1.06
16.67
28.2
35.96
40.55
42.58
42.39
40.25
36.51
31.83
27.08
23.19
20.8
20.05
20.59
21.72
22.62
22.66
21.54
19.23
15.86
11.67
6.84
1.5
-4.28
-10.55
-17.53
-25.62
-35.26
-46.54
-58.88
-70.71
-79.74
-83.51
-80.3
-69.75
-53.17
-33.11
-12.52
6.13
21.42
33.02
41.27
46.6
49.24
49.18
46.49
41.65
35.62
29.7
25.09
22.5
21.9
22.63
23.71
24.15
23.27
20.81
16.95
12.15
6.96
1.82
-3.14
-8.12
-13.63
-20.37
-29.03
-39.88
-52.53
-65.73
-77.41
-85.2
-87.0
-81.78
-69.91
-53.1
-33.83
-14.61
2.71
17.2
28.64
37.27
43.27
46.71
47.59
46.06
42.66
38.22
33.74
30.06
27.7
26.66
26.57
26.84
26.86
26.15
24.48
21.82
18.24
13.91
8.93
3.37
-2.79
-9.65
-17.32
-26.02
-35.91
-46.95
-58.64
-69.82
-78.68
-83.21
-81.78
-73.73
-59.69
-41.4
-21.26
-1.6
15.73
29.7
39.97
46.68
50.27
51.25
50.22
47.77
44.53
41.07
37.9
35.44
33.91
33.4
33.76
34.66
35.6
36.01
35.28
32.95
28.81
22.97
15.88
8.18
0.5
-6.78
-13.65
-20.47
-27.88
-36.56
-46.94
-58.83
-71.17
-82.11
-89.33
-90.65
-84.78
-71.86
-53.48
-32.27
-11.05
7.93
23.42
35.23
43.72
49.44
52.76
53.9
53.04
50.68
47.54
44.54
42.41
41.52
41.69
42.41
43.04
43.14
42.59
41.5
40.0
38.03
35.22
31.05
25.11
17.43
8.53
-0.69
-9.22
-16.52
-22.65
-28.44
-35.14
-43.86
-54.99
-67.73
-80.03
-89.11
-92.34
-88.08
-76.35
-58.79
-38.05
-16.95
2.33
18.55
31.37
40.96
47.62
51.55
52.95
52.2
49.88
46.83
43.85
41.57
40.21
39.67
39.55
39.47
39.2
38.71
38.09
37.29
36.13
34.15
30.84
25.86
19.21
11.31
2.81
-5.62
-13.56
-20.91
-27.95
-35.22
-43.32
-52.74
-63.43
-74.63
-84.66
-91.27
-92.21
-86.05
-72.84
-54.21
-32.94
-12.07
5.95
19.87
29.55
35.68
39.16
40.68
40.63
39.15
36.39
32.71
28.73
25.16
22.63
21.45
21.51
22.41
23.56
24.4
24.54
23.67
21.61
18.3
13.84
8.49
2.67
-3.28
-9.2
-15.35
-22.29
-30.74
-41.04
-52.78
-64.57
-74.19
-79.19
-77.66
-68.94
-53.93
-34.87
-14.62
4.24
19.98
32.03
40.55
46.03
48.88
49.29
47.41
43.61
38.61
33.4
28.89
25.71
24.02
23.54
23.78
24.2
24.33
23.86
22.6
20.41
17.25
13.11
8.08
2.27
-4.19
-11.26
-18.99
-27.58
-37.31
-48.29
-60.24
-72.18
-82.45
-88.99
-89.94
-84.2
-71.89
-54.39
-33.95
-13.13
5.85
21.44
32.95
40.39
44.29
45.37
44.42
42.15
39.13
35.83
32.6
29.78
27.59
26.22
25.68
25.78
26.19
26.41
25.92
24.23
21.03
16.19
9.84
2.31
-5.99
-14.59
-23.23
-31.85
-40.74
-50.4
-61.36
-73.74
-86.87
-99.13
-108.21
-111.76
-108.19
-97.37
-80.67
-60.67
-40.26
-21.98
-7.41
2.94
9.35
12.58
13.4
12.52
10.39
7.36
3.71
-0.27
-4.09
-7.21
-9.07
-9.23
-7.51
-4.03
0.83
6.39
11.88
16.62
20.11
22.12
22.71
22.21
21.08
19.66
18.07
16.08
13.42
9.59
4.08
-3.28
-11.85
-20.03
-25.58
-26.23
-20.54
-7.87
10.83
33.25
56.45
77.81
95.59
108.85
117.17
120.25
118.68
113.11
104.28
93.23
81.37
70.36
61.37
54.59
49.19
44.79
40.79
36.69
32.45
28.95
27.88
30.84
38.54
43.76
40.89
28.28
8.81
-13.02
-33.53
-50.36
-62.61
-70.43
-74.7
-75.41
-72.67
-67.43
-61.53
-57.17
-55.46
-56.74
-60.04
-63.7
-65.44
-64.18
-60.52
-56.01
-52.03
-48.99
-46.52
-44.07
-41.6
-39.07
-36.62
-34.89
-33.72
-32.34
-29.73
-25.36
-19.49
-13.0
-6.7
-1.04
4.04
9.12
14.85
21.69
29.43
37.27
43.94
48.32
49.75
48.18
44.23
38.77
32.69
26.67
21.28
17.1
14.72
14.6
16.69
20.36
24.34
27.23
27.98
26.4
23.1
19.19
15.7
13.16
11.46
10.13
8.8
7.63
7.38
9.12
13.61
20.83
29.73
38.6
45.63
49.59
50.25
48.32
44.96
41.2
37.45
33.47
28.7
22.73
15.62
7.91
0.18
-7.31
-14.84
-22.93
-31.79
-40.83
-48.53
-52.95
-52.5
-46.57
-35.72
-21.28
-4.73
12.66
30.0
46.39
60.82
71.96
78.53
79.86
76.22
68.92
59.84
50.69
42.4
34.86
27.33
19.13
10.36
2.03
-4.31
-7.46
-7.31
-5.03
-2.58
-1.76
-3.39
-7.11
-11.82
-16.37
-20.26
-23.58
-26.59
-29.09
-30.04
-27.99
-21.76
-11.26
2.33
16.91
30.35
41.33
49.7
56.06
61.0
64.37
65.04
61.5
52.63
38.51
20.81
2.16
-14.64
-27.68
-36.42
-41.45
-43.82
-44.33
-43.25
-40.49
-36.16
-30.89
-25.81
-22.11
-20.49
-20.83
-22.38
-24.27
-25.97
-27.49
-29.18
-31.34
-33.76
-35.87
-36.79
-35.88
-32.96
-28.31
-22.6
-16.47
-10.43
-4.82
0.13
4.22
7.3
9.34
10.56
11.25
11.68
11.95
11.88
11.15
9.56
7.2
4.54
2.24
0.79
0.33
0.46
0.43
-0.52
-2.87
-6.56
-11.06
-15.66
-19.85
-23.38
-26.42
-29.22
-31.85
-34.1
-35.35
-34.88
-32.14
-27.11
-20.27
-12.58
-5.15
1.07
5.48
8.01
8.98
8.9
8.28
7.52
6.81
6.21
5.71
5.15
4.41
3.3
1.75
-0.16
-2.25
-4.21
-5.85
-7.17
-8.51
-10.27
-12.8
-16.13
-19.92
-23.7
-26.98
-29.53
-31.33
-32.52
-33.11
-32.89
-31.44
-28.29
-23.29
-16.77
-9.59
-2.87
2.4
5.76
7.43
8.14
8.77
9.8
11.17
12.26
12.37
11.11
8.74
5.99
3.74
2.62
2.59
3.08
3.25
2.44
0.38
-2.64
-6.07
-9.34
-12.11
-14.39
-16.41
-18.45
-20.73
-23.34
-26.2
-29.05
-31.49
-32.94
-32.78
-30.57
-26.19
-19.98
-12.68
-5.23
1.49
6.92
10.95
13.75
15.65
16.84
17.3
16.85
15.36
12.97
10.21
7.81
6.39
6.17
6.75
7.37
7.3
6.22
4.36
2.35
0.74
-0.25
-0.89
-1.71
-3.18
-5.55
-8.68
-12.28
-15.99
-19.56
-22.72
-25.14
-26.42
-26.15
-24.11
-20.33
-15.16
-9.16
-2.94
2.97
8.2
12.5
15.79
18.02
19.2
19.37
18.61
17.06
14.92
12.55
10.36
8.74
7.82
7.43
7.1
6.31
4.81
2.66
0.37
-1.53
-2.69
-3.27
-3.76
-4.8
-6.77
-9.61
-12.95
-16.28
-19.22
-21.69
-23.71
-25.28
-26.15
-25.87
-23.95
-20.17
-14.73
-8.36
-2.05
3.32
7.25
9.77
11.37
12.59
13.83
14.95
15.42
14.66
12.45
9.13
5.56
2.64
0.94
0.3
0.04
-0.63
-2.18
-4.46
-6.84
-8.65
-9.56
-9.82
-10.08
-11.07
-13.24
-16.6
-20.69
-24.85
-28.39
-30.8
-31.73
-31.0
-28.55
-24.49
-19.11
-12.83
-6.18
0.26
5.98
10.6
13.92
15.86
16.53
16.09
14.85
13.11
11.18
9.28
7.55
6.07
4.82
3.81
2.96
2.1
0.99
-0.64
-2.83
-5.44
-8.05
-10.25
-11.83
-13.0
-14.29
-16.26
-19.17
-22.67
-25.97
-28.04
-28.1
-25.83
-21.55
-15.96
-9.79
-3.64
2.17
7.52
12.33
16.53
19.93
22.2
23.14
22.71
21.06
18.7
16.25
14.32
13.2
12.77
12.54
11.92
10.5
8.26
5.58
3.02
0.97
-0.58
-2.07
-4.05
-6.93
-10.75
-15.11
-19.47
-23.33
-26.52
-29.0
-30.72
-31.42
-30.55
-27.58
-22.29
-15.02
-6.66
1.54
8.6
13.99
17.75
20.31
22.13
23.44
24.22
24.19
23.15
21.12
18.41
15.57
13.25
11.92
11.67
12.13
12.57
12.22
10.62
7.84
4.38
1.05
-1.61
-3.61
-5.46
-8.02
-11.91
-17.21
-23.22
-28.82
-32.75
-34.23
-33.08
-29.69
-24.71
-18.72
-12.17
-5.26
1.78
8.67
14.96
20.28
24.36
27.12
28.64
29.1
28.75
27.8
26.47
24.95
23.38
21.88
20.44
19.08
17.71
16.3
14.74
12.95
10.89
8.58
6.15
3.72
1.37
-1.05
-3.8
-7.24
-11.48
-16.35
-21.34
-25.77
-29.05
-30.89
-31.27
-30.33
-28.14
-24.58
-19.51
-12.98
-5.29
2.85
10.61
17.19
22.1
25.18
26.68
27.05
26.8
26.44
26.21
26.03
25.56
24.41
22.4
19.79
17.2
15.36
14.7
15.02
15.58
15.38
13.67
10.32
5.92
1.45
-2.2
-4.71
-6.44
-8.23
-10.98
-15.17
-20.57
-26.37
-31.47
-34.93
-36.23
-35.36
-32.62
-28.38
-22.97
-16.57
-9.39
-1.77
5.74
12.53
18.01
21.83
23.96
24.63
24.32
23.57
22.85
22.51
22.59
22.92
23.16
22.93
22.06
20.65
18.99
17.43
16.22
15.3
14.39
13.16
11.36
8.88
5.73
2.05
-2.0
-6.15
-10.17
-13.78
-16.96
-19.9
-23.04
-26.75
-31.03
-35.28
-38.33
-38.9
-36.15
-30.01
-21.46
-12.08
-3.53
3.12
7.68
10.82
13.49
16.45
19.7
22.55
24.02
23.47
21.02
17.62
14.64
13.2
13.56
15.03
16.4
16.5
14.88
11.96
8.72
6.24
4.99
4.72
4.58
3.68
1.47
-2.02
-6.28
-10.69
-14.9
-18.87
-22.74
-26.55
-30.0
-32.47
-33.27
-31.86
-28.24
-22.85
-16.4
-9.63
-3.09
2.87
7.97
12.05
14.85
16.21
16.18
15.07
13.45
11.94
10.97
10.62
10.57
10.36
9.64
8.39
6.91
5.67
5.07
5.12
5.41
5.38
4.51
2.6
-0.18
-3.45
-6.82
-10.17
-13.6
-17.37
-21.56
-25.97
-30.08
-33.05
-34.07
-32.55
-28.37
-21.93
-14.15
-6.15
1.1
6.99
11.55
15.17
18.43
21.65
24.83
27.56
29.38
30.0
29.47
28.19
26.65
25.2
23.92
22.71
21.33
19.66
17.72
15.63
13.55
11.47
9.3
6.87
4.07
0.9
-2.55
-6.23
-10.13
-14.39
-19.05
-23.93
-28.45
-31.77
-32.96
-31.4
-27.06
-20.59
-13.14
-5.9
0.28
5.15
8.95
12.17
15.22
18.16
20.69
22.37
22.84
21.99
20.05
17.47
14.84
12.62
11.06
10.13
9.58
8.96
7.91
6.24
4.02
1.51
-1.03
-3.46
-5.89
-8.6
-11.9
-16.0
-20.74
-25.83
-30.64
-34.52
-36.85
-37.12
-35.13
-30.96
-25.01
-17.87
-10.31
-3.03
3.43
8.78
13.0
16.2
18.57
20.2
21.07
21.08
20.21
18.64
16.77
15.1
13.96
13.43
13.18
12.73
11.68
9.96
7.85
5.8
4.24
3.21
2.39
1.14
-1.24
-5.12
-10.46
-16.73
-23.03
-28.35
-31.87
-33.14
-32.26
-29.69
-26.0
-21.63
-16.72
-11.18
-4.87
2.01
8.86
14.72
18.78
20.66
20.67
19.61
18.41
17.74
17.7
17.93
17.89
17.16
15.68
13.69
11.65
9.93
8.74
7.94
7.19
6.03
4.09
1.29
-2.13
-5.73
-9.17
-12.42
-15.75
-19.54
-23.88
-28.36
-31.99
-33.67
-32.57
-28.68
-22.69
-15.77
-9.03
-3.08
1.95
6.36
10.42
14.16
17.32
19.53
20.57
20.48
19.61
18.38
17.21
16.21
15.29
14.25
12.88
11.18
9.24
7.28
5.38
3.53
1.6
-0.59
-3.13
-6.06
-9.36
-13.02
-17.0
-21.27
-25.57
-29.34
-31.82
-32.15
-29.86
-24.97
-18.12
-10.33
-2.73
3.89
9.21
13.29
16.42
18.82
20.6
21.67
21.81
20.92
19.13
16.79
14.46
12.73
11.83
11.6
11.41
10.5
8.37
5.07
1.24
-2.15
-4.38
-5.39
-5.93
-7.18
-10.19
-15.25
-21.65
-27.92
-32.34
-33.6
-31.38
-26.22
-19.29
-11.9
-4.98
1.06
6.3
11.07
15.64
19.94
23.62
26.13
26.95
25.97
23.55
20.54
17.85
16.06
15.19
14.83
14.32
13.22
11.46
9.35
7.31
5.6
4.22
2.91
1.3
-0.94
-4.04
-8.18
-13.4
-19.46
-25.76
-31.33
-35.02
-35.87
-33.54
-28.35
-21.27
-13.52
-6.14
0.25
5.56
10.03
13.94
17.42
20.37
22.44
23.25
22.68
20.95
18.68
16.68
15.6
15.63
16.33
16.87
16.4
14.52
11.46
7.99
4.97
2.97
1.96
1.36
0.25
-2.12
-5.97
-10.96
-16.23
-20.78
-23.87
-25.26
-25.19
-24.17
-22.58
-20.44
-17.42
-13.05
-7.1
0.05
7.5
14.12
18.89
21.42
21.89
21.01
19.64
18.47
17.85
17.68
17.64
17.26
16.22
14.47
12.33
10.37
9.07
8.56
8.52
8.29
7.21
4.96
1.68
-2.13
-6.0
-9.75
-13.49
-17.44
-21.62
-25.7
-28.98
-30.74
-30.42
-27.87
-23.39
-17.52
-10.97
-4.36
1.74
6.95
11.05
13.93
15.62
16.26
16.05
15.25
14.1
12.82
11.55
10.36
9.19
7.98
6.67
5.33
4.11
3.18
2.55
2.04
1.21
-0.36
-2.92
-6.42
-10.48
-14.68
-18.71
-22.49
-26.07
-29.41
-32.18
-33.73
-33.3
-30.31
-24.74
-17.2
-8.82
-0.88
5.7
10.56
13.97
16.46
18.47
20.14
21.28
21.57
20.9
19.45
17.61
15.84
14.38
13.24
12.26
11.2
9.92
8.33
6.42
4.17
1.64
-1.02
-3.7
-6.45
-9.52
-13.26
-17.95
-23.42
-28.97
-33.45
-35.66
-34.92
-31.2
-25.21
-17.98
-10.4
-3.02
3.94
10.45
16.31
21.12
24.44
25.98
25.85
24.53
22.69
20.91
19.45
18.24
17.05
15.72
14.25
12.74
11.35
10.12
8.85
7.31
5.33
2.92
0.21
-2.7
-5.88
-9.49
-13.64
-18.31
-23.11
-27.45
-30.76
-32.55
-32.6
-30.87
-27.43
-22.5
-16.39
-9.55
-2.49
4.27
10.4
15.77
20.25
23.66
25.68
26.01
24.64
22.03
19.09
16.82
15.83
15.98
16.5
16.45
15.23
12.92
10.19
7.84
6.39
5.73
5.22
4.06
1.7
-1.97
-6.58
-11.52
-16.21
-20.42
-24.28
-28.08
-31.97
-35.61
-38.21
-38.65
-36.03
-30.13
-21.64
-11.94
-2.62
5.19
11.05
15.3
18.59
21.43
23.91
25.7
26.35
25.65
23.76
21.25
18.82
17.03
16.13
15.96
16.11
16.19
15.85
14.96
13.53
11.68
9.56
7.2
4.63
1.77
-1.4
-4.85
-8.47
-12.15
-15.9
-19.84
-24.1
-28.63
-33.02
-36.45
-37.99
-36.9
-32.98
-26.73
-19.17
-11.4
-4.25
1.92
7.31
12.16
16.66
20.61
23.49
24.81
24.42
22.65
20.31
18.3
17.23
17.23
17.86
18.41
18.33
17.4
15.91
14.36
13.14
12.25
11.35
9.9
7.51
4.2
0.32
-3.6
-7.12
-10.23
-13.28
-16.73
-20.85
-25.44
-29.75
-32.83
-33.75
-31.98
-27.54
-21.04
-13.31
-5.31
2.21
8.73
13.92
17.68
19.99
20.87
20.46
19.01
16.87
14.54
12.54
11.21
10.6
10.39
10.13
9.46
8.34
7.05
6.0
5.42
5.11
4.56
3.11
0.37
-3.52
-8.06
-12.59
-16.69
-20.22
-23.5
-26.78
-30.12
-33.23
-35.47
-36.1
-34.49
-30.43
-24.17
-16.52
-8.5
-1.14
4.79
9.04
11.8
13.59
14.85
15.75
16.13
15.7
14.29
12.03
9.45
7.17
5.69
5.07
5.0
4.91
4.34
3.13
1.5
-0.16
-1.58
-2.82
-4.25
-6.35
-9.48
-13.65
-18.42
-23.15
-27.2
-30.13
-31.69
-31.79
-30.31
-27.19
-22.41
-16.14
-8.83
-1.21
5.91
11.82
16.1
18.65
19.66
19.41
18.31
16.69
14.81
12.89
11.05
9.38
7.94
6.71
5.66
4.7
3.67
2.42
0.86
-1.03
-3.17
-5.42
-7.74
-10.25
-13.25
-17.07
-21.75
-26.85
-31.53
-34.68
-35.4
-33.29
-28.6
-22.13
-14.81
-7.46
-0.47
6.0
11.95
17.29
21.74
24.9
26.4
26.19
24.57
22.17
19.71
17.81
16.7
16.14
15.58
14.38
12.23
9.31
6.2
3.56
1.86
0.92
0.16
-1.28
-4.08
-8.44
-13.93
-19.8
-25.15
-29.34
-32.06
-33.28
-33.02
-31.3
-28.02
-23.06
-16.47
-8.63
-0.34
7.48
13.95
18.58
21.37
22.72
23.27
23.58
23.95
24.38
24.64
24.42
23.51
21.87
19.73
17.42
15.26
13.5
12.18
11.14
10.11
8.79
6.92
4.38
1.09
-2.93
-7.54
-12.52
-17.64
-22.58
-27.05
-30.66
-33.04
-33.73
-32.35
-28.64
-22.65
-14.81
-5.93
3.01
10.97
17.15
21.3
23.59
24.58
24.94
25.11
25.23
25.1
24.42
22.97
20.88
18.49
16.33
14.79
14.06
13.91
13.75
12.88
10.64
6.91
2.1
-2.94
-7.29
-10.47
-12.71
-14.94
-18.18
-23.1
-29.35
-35.66
-40.29
-41.72
-39.32
-33.51
-25.51
-16.77
-8.52
-1.32
4.83
10.33
15.57
20.63
25.24
28.83
30.8
30.84
29.2
26.66
24.25
22.83
22.64
23.27
23.84
23.53
21.92
19.27
16.21
13.31
10.95
8.98
7.1
4.95
2.32
-0.92
-4.81
-9.44
-14.88
-20.9
-27.04
-32.55
-36.55
-38.34
-37.61
-34.5
-29.52
-23.34
-16.5
-9.34
-2.02
5.27
12.15
17.89
21.72
23.19
22.49
20.48
18.35
17.1
17.08
17.93
18.88
19.18
18.57
17.26
15.73
14.36
13.23
12.1
10.58
8.4
5.41
1.74
-2.43
-6.82
-11.16
-15.32
-19.28
-23.2
-27.22
-31.3
-35.03
-37.57
-37.94
-35.4
-29.92
-22.24
-13.64
-5.5
1.29
6.49
10.42
13.57
16.18
18.13
19.1
18.79
17.29
15.05
12.71
10.84
9.65
9.04
8.7
8.36
7.88
7.27
6.56
5.68
4.43
2.59
0.03
-3.13
-6.6
-10.12
-13.62
-17.22
-21.3
-26.01
-31.03
-35.51
-38.17
-37.82
-33.85
-26.57
-17.23
-7.46
1.23
8.04
12.98
16.57
19.46
22.0
24.03
25.14
24.98
23.54
21.25
18.79
16.79
15.59
15.1
14.96
14.68
13.91
12.49
10.47
8.03
5.39
2.65
-0.24
-3.39
-7.0
-11.19
-15.98
-21.19
-26.38
-30.99
-34.42
-36.24
-36.15
-34.06
-30.06
-24.33
-17.19
-9.12
-0.84
6.85
13.23
17.94
21.02
22.85
23.86
24.33
24.26
23.51
22.03
19.93
17.66
15.7
14.42
13.85
13.56
12.95
11.51
9.04
5.77
2.3
-0.79
-3.2
-5.2
-7.46
-10.78
-15.63
-21.81
-28.53
-34.61
-38.83
-40.42
-39.1
-35.18
-29.31
-22.25
-14.65
-6.95
0.57
7.64
13.97
19.32
23.43
26.26
27.92
28.61
28.54
27.73
26.14
23.84
21.14
18.51
16.53
15.46
15.18
15.08
14.47
12.81
10.06
6.65
3.23
0.29
-2.08
-4.34
-7.22
-11.36
-16.93
-23.57
-30.35
-36.16
-40.03
-41.42
-40.3
-36.97
-31.86
-25.37
-17.79
-9.36
-0.41
8.58
16.91
23.84
28.76
31.38
31.86
30.8
29.08
27.52
26.61
26.41
26.54
26.46
25.73
24.32
22.55
20.88
19.53
18.42
17.11
15.08
12.05
8.16
3.88
-0.21
-3.84
-7.16
-10.67
-14.93
-20.15
-26.02
-31.75
-36.28
-38.79
-38.78
-36.27
-31.57
-25.18
-17.61
-9.47
-1.34
6.07
12.18
16.62
19.38
20.72
21.13
21.02
20.61
19.89
18.77
17.3
15.67
14.25
13.34
13.01
13.06
12.98
12.27
10.57
7.95
4.79
1.65
-1.05
-3.28
-5.47
-8.33
-12.48
-18.11
-24.85
-31.69
-37.41
-40.99
-41.85
-40.03
-35.94
-30.12
-23.03
-15.11
-6.7
1.72
9.51
15.93
20.35
22.45
22.38
20.74
18.3
15.92
14.19
13.29
13.03
12.96
12.58
11.61
10.12
8.38
6.84
5.73
5.03
4.43
3.46
1.71
-1.05
-4.8
-9.27
-14.28
-19.58
-24.97
-30.08
-34.43
-37.36
-38.24
-36.68
-32.71
-26.74
-19.43
-11.51
-3.53
4.12
11.13
17.26
22.07
25.12
26.14
25.12
22.57
19.33
16.33
14.22
13.1
12.54
11.86
10.54
8.5
6.17
4.14
2.85
2.16
1.5
0.09
-2.6
-6.6
-11.48
-16.62
-21.52
-25.94
-29.88
-33.25
-35.78
-36.9
-36.02
-32.8
-27.23
-19.75
-11.09
-2.09
6.53
14.12
20.22
24.62
27.27
28.4
28.43
27.81
26.88
25.84
24.69
23.39
21.92
20.28
18.44
16.37
14.04
11.45
8.78
6.27
4.16
2.51
1.04
-0.8
-3.62
-7.8
-13.34
-19.8
-26.39
-32.23
-36.65
-39.27
-39.99
-38.82
-35.73
-30.64
-23.6
-14.9
-5.25
4.35
12.8
19.22
23.22
25.01
25.27
24.83
24.3
23.93
23.56
22.92
21.83
20.34
18.72
17.25
16.05
14.92
13.58
11.8
9.6
7.16
4.63
1.96
-1.14
-5.02
-9.78
-15.18
-20.68
-25.7
-29.94
-33.28
-35.77
-37.21
-37.07
-34.63
-29.39
-21.36
-11.28
-0.39
9.9
18.37
24.34
27.75
29.02
28.87
28.16
27.56
27.42
27.55
27.41
26.43
24.32
21.38
18.38
16.15
15.16
15.2
15.55
15.28
13.72
10.83
7.08
3.18
-0.37
-3.61
-7.01
-11.25
-16.73
-23.31
-30.23
-36.31
-40.34
-41.51
-39.55
-34.78
-27.94
-19.93
-11.64
-3.68
3.59
10.07
15.76
20.6
24.39
26.8
27.54
26.64
24.5
21.8
19.25
17.25
15.82
14.67
13.48
12.08
10.61
9.22
7.96
6.68
5.07
2.86
-0.01
-3.28
-6.63
-9.86
-13.16
-16.96
-21.65
-27.23
-33.19
-38.43
-41.77
-42.31
-39.83
-34.72
-27.81
-19.92
-11.73
-3.65
4.02
10.96
16.75
20.95
23.26
23.61
22.25
19.63
16.45
13.37
10.94
9.45
8.83
8.73
8.66
8.21
7.21
5.76
4.05
2.11
-0.14
-2.9
-6.33
-10.37
-14.71
-18.96
-22.85
-26.43
-29.94
-33.45
-36.58
-38.46
-37.88
-33.96
-26.58
-16.62
-5.62
4.61
12.79
18.45
21.91
23.94
25.23
26.11
26.5
26.13
24.86
22.84
20.52
18.4
16.84
15.72
14.56
12.85
10.29
7.08
3.79
0.96
-1.23
-3.12
-5.48
-9.14
-14.41
-21.01
-28.09
-34.55
-39.49
-42.36
-42.97
-41.34
-37.58
-31.85
-24.48
-15.97
-7.03
1.54
9.02
14.97
19.2
21.87
23.19
23.42
22.71
21.22
19.15
16.86
14.71
13.04
11.98
11.44
11.05
10.42
9.26
7.49
5.3
2.91
0.44
-2.27
-5.59
-9.99
-15.69
-22.43
-29.42
-35.49
-39.46
-40.58
-38.78
-34.56
-28.79
-22.17
-15.06
-7.46
0.63
8.87
16.56
22.66
26.33
27.34
26.19
23.94
21.79
20.44
19.94
19.72
19.02
17.27
14.47
11.08
7.83
5.27
3.57
2.4
1.13
-0.86
-3.97
-8.29
-13.64
-19.69
-25.99
-31.87
-36.48
-38.86
-38.24
-34.32
-27.56
-18.97
-9.84
-1.19
6.48
13.2
19.15
24.3
28.31
30.55
30.62
28.62
25.32
21.83
19.21
17.94
17.77
17.88
17.3
15.44
12.32
8.6
5.17
2.7
1.2
-0.02
-2.06
-5.86
-11.74
-19.09
-26.62
-32.74
-36.26
-36.56
-33.78
-28.47
-21.27
-12.75
-3.36
6.35
15.7
23.91
30.3
34.57
36.87
37.68
37.54
36.75
35.37
33.39
30.93
28.41
26.34
25.13
24.73
24.66
24.22
22.84
20.42
17.32
14.06
11.01
8.02
4.56
-0.07
-6.34
-14.2
-22.99
-31.56
-38.59
-42.93
-44.01
-41.83
-36.94
-30.22
-22.57
-14.78
-7.45
-1.06
3.96
7.22
8.52
8.02
6.2
3.91
1.99
1.05
1.29
2.43
3.94
5.21
5.8
5.59
4.65
3.15
1.24
-1.03
-3.59
-6.36
-9.29
-12.36
-15.74
-19.76
-24.67
-30.38
-36.14
-40.64
-42.37
-40.26
-34.13
-24.83
-13.9
-2.99
6.72
14.74
21.21
26.48
30.72
33.81
35.42
35.32
33.64
30.87
27.64
24.52
21.76
19.33
17.03
14.75
12.55
10.65
9.17
7.98
6.59
4.41
0.98
-3.78
-9.53
-15.7
-21.74
-27.39
-32.53
-37.01
-40.36
-41.72
-40.08
-34.77
-25.87
-14.4
-2.04
9.45
18.8
25.41
29.51
31.7
32.57
32.47
31.44
29.47
26.68
23.43
20.24
17.65
15.95
15.08
14.66
14.11
12.99
11.08
8.45
5.32
1.81
-2.14
-6.74
-12.19
-18.43
-25.14
-31.8
-37.91
-43.15
-47.28
-49.94
-50.52
-48.17
-42.23
-32.6
-20.08
-6.29
6.82
17.69
25.54
30.58
33.66
35.68
37.2
38.14
37.96
36.12
32.47
27.49
22.25
17.97
15.57
15.2
16.22
17.42
17.5
15.66
11.8
6.58
1.02
-4.06
-8.31
-11.99
-15.75
-20.27
-25.89
-32.47
-39.42
-45.82
-50.63
-52.88
-51.77
-46.91
-38.43
-27.07
-14.09
-1.01
10.82
20.53
27.85
33.04
36.65
39.16
40.74
41.26
40.46
38.22
34.85
31.12
27.9
25.85
25.06
25.05
25.03
24.31
22.63
20.16
17.29
14.35
11.34
8.09
4.34
-0.05
-4.99
-10.3
-15.69
-20.98
-26.05
-31.05
-36.15
-41.47
-46.85
-51.67
-54.91
-55.4
-52.32
-45.52
-35.72
-24.18
-12.25
-0.95
9.25
18.13
25.56
31.21
34.7
35.8
34.82
32.55
30.07
28.3
27.62
27.71
27.78
27.08
25.31
22.77
20.24
18.49
17.87
18.0
17.89
16.47
13.09
7.83
1.57
-4.54
-9.58
-13.24
-16.03
-18.91
-22.82
-28.23
-34.87
-41.77
-47.54
-50.92
-51.1
-47.97
-42.0
-34.01
-24.81
-15.02
-5.01
4.85
14.08
22.08
28.17
31.93
33.3
32.61
30.46
27.52
24.38
21.47
19.12
17.45
16.45
15.91
15.53
15.07
14.44
13.64
12.79
11.92
10.84
9.27
6.89
3.57
-0.63
-5.48
-10.65
-15.9
-21.09
-26.24
-31.37
-36.5
-41.56
-46.26
-50.01
-51.91
-50.95
-46.31
-37.8
-26.14
-12.83
0.11
10.85
18.3
22.39
23.91
24.02
23.64
23.14
22.34
20.84
18.41
15.24
11.88
9.02
7.16
6.39
6.32
6.27
5.57
3.79
0.96
-2.49
-5.92
-8.77
-10.94
-12.81
-15.25
-19.12
-24.92
-32.34
-40.3
-47.23
-51.59
-52.37
-49.3
-42.85
-33.94
-23.6
-12.71
-1.91
8.38
17.78
25.9
32.35
36.78
38.99
39.12
37.59
35.08
32.3
29.64
27.17
24.62
21.66
18.08
14.05
10.02
6.46
3.66
1.54
-0.28
-2.28
-4.81
-8.08
-12.07
-16.77
-22.14
-28.14
-34.58
-40.99
-46.55
-50.28
-51.29
-49.04
-43.57
-35.45
-25.54
-14.78
-4.05
5.98
14.84
22.16
27.63
31.0
32.13
31.23
28.71
25.35
21.98
19.35
17.78
17.04
16.54
15.57
13.74
11.12
8.2
5.55
3.49
1.9
0.32
-1.9
-5.29
-10.03
-16.05
-22.96
-30.26
-37.45
-43.89
-48.86
-51.57
-51.33
-47.66
-40.67
-30.94
-19.67
-8.18
2.38
11.36
18.69
24.64
29.49
33.31
35.93
36.97
36.22
33.87
30.5
26.93
23.9
21.82
20.6
19.73
18.56
16.56
13.61
10.0
6.24
2.8
-0.18
-2.99
-6.14
-10.16
-15.38
-21.73
-28.81
-35.92
-42.3
-47.17
-49.87
-49.94
-47.15
-41.54
-33.44
-23.35
-11.94
-0.0
11.5
21.59
29.41
34.51
36.94
37.27
36.39
35.07
33.74
32.32
30.52
28.15
25.38
22.68
20.65
19.55
19.16
18.86
17.92
15.86
12.68
8.66
4.22
-0.3
-4.93
-9.82
-15.17
-21.12
-27.66
-34.49
-41.15
-46.89
-50.82
-52.08
-50.02
-44.44
-35.71
-24.67
-12.51
-0.39
10.67
20.01
27.34
32.67
36.23
38.39
39.44
39.62
38.94
37.4
35.02
31.95
28.57
25.41
22.94
21.42
20.7
20.26
19.51
18.0
15.58
12.45
8.99
5.49
1.97
-1.85
-6.38
-11.94
-18.57
-25.95
-33.49
-40.4
-45.93
-49.52
-50.73
-49.27
-44.98
-37.82
-28.03
-16.19
-3.41
8.93
19.45
27.13
31.7
33.55
33.57
32.67
31.44
29.96
28.0
25.31
21.95
18.38
15.31
13.32
12.62
12.86
13.3
13.13
11.79
9.1
5.39
1.22
-2.89
-6.66
-10.27
-14.25
-19.2
-25.47
-32.92
-40.69
-47.49
-51.91
-52.87
-50.0
-43.63
-34.64
-24.12
-13.1
-2.26
7.84
16.8
24.22
29.63
32.71
33.3
31.65
28.28
24.06
19.85
16.37
14.11
13.05
12.89
13.06
12.97
12.22
10.74
8.67
6.33
3.99
1.68
-0.78
-3.74
-7.57
-12.55
-18.76
-25.98
-33.66
-40.92
-46.73
-50.0
-49.94
-46.19
-39.04
-29.31
-18.15
-6.7
4.14
13.88
22.28
29.19
34.29
37.17
37.51
35.42
31.56
27.07
23.16
20.62
19.51
19.25
18.91
17.75
15.5
12.47
9.26
6.46
4.2
2.17
-0.32
-3.97
-9.17
-15.78
-23.19
-30.68
-37.69
-44.02
-49.59
-54.22
-57.34
-58.04
-55.34
-48.63
-38.09
-24.72
-10.08
4.17
16.6
26.4
33.31
37.61
39.86
40.63
40.34
39.16
37.14
34.33
31.03
27.78
25.14
23.42
22.52
21.93
20.98
19.23
16.55
13.27
9.76
6.21
2.51
-1.69
-6.63
-12.41
-18.81
-25.56
-32.52
-39.69
-47.08
-54.22
-60.03
-62.98
-61.62
-55.2
-44.2
-30.15
-15.18
-1.27
10.39
19.48
26.4
31.77
36.03
39.27
41.24
41.67
40.42
37.76
34.3
30.88
28.28
26.9
26.58
26.76
26.59
25.4
22.92
19.37
15.26
11.12
7.1
3.0
-1.55
-6.87
-12.93
-19.42
-25.98
-32.35
-38.56
-44.74
-50.75
-55.94
-59.12
-58.93
-54.43
-45.56
-33.32
-19.36
-5.47
7.03
17.53
26.08
32.94
38.29
42.07
44.11
44.4
43.24
41.17
38.83
36.69
34.94
33.54
32.25
30.87
29.29
27.55
25.79
24.13
22.59
20.86
18.42
14.69
9.34
2.57
-4.88
-12.01
-17.99
-22.61
-26.44
-30.53
-35.86
-42.74
-50.56
-57.85
-62.82
-63.92
-60.38
-52.38
-40.9
-27.38
-13.36
-0.16
11.34
20.68
27.78
32.8
36.03
37.76
38.22
37.65
36.3
34.53
32.66
30.92
29.39
28.02
26.76
25.58
24.55
23.71
22.97
21.94
20.19
17.36
13.28
8.23
2.65
-2.95
-8.26
-13.36
-18.6
-24.4
-31.02
-38.34
-45.86
-52.76
-58.03
-60.76
-60.27
-56.26
-48.8
-38.44
-26.13
-12.99
-0.17
11.38
21.01
28.36
33.29
35.83
36.17
34.69
32.0
28.74
25.47
22.52
19.95
17.67
15.65
14.05
13.08
12.82
12.93
12.74
11.45
8.51
3.99
-1.51
-7.09
-12.08
-16.42
-20.73
-25.85
-32.41
-40.35
-48.7
-55.92
-60.32
-60.75
-56.82
-49.0
-38.3
-25.88
-12.82
0.03
11.91
22.19
30.29
35.84
38.74
39.22
37.86
35.32
32.34
29.45
26.92
24.86
23.21
21.77
20.35
18.84
17.22
15.55
13.76
11.76
9.25
5.99
1.82
-3.28
-9.09
-15.37
-21.99
-28.96
-36.36
-44.09
-51.64
-58.01
-61.92
-62.2
-58.26
-50.28
-39.11
-26.02
-12.25
1.17
13.49
24.11
32.49
38.26
41.28
41.9
40.76
38.67
36.32
34.05
31.84
29.57
27.17
24.81
22.83
21.47
20.75
20.26
19.34
17.24
13.57
8.37
2.16
-4.19
-9.96
-14.82
-19.14
-23.8
-29.81
-37.67
-46.93
-56.17
-63.3
-66.39
-64.26
-57.01
-45.86
-32.62
-19.04
-6.19
5.51
16.15
25.8
34.18
40.64
44.49
45.43
43.79
40.54
36.94
34.01
32.19
31.35
30.94
30.37
29.24
27.4
25.0
22.33
19.66
17.14
14.77
12.34
9.51
5.91
1.24
-4.45
-10.88
-17.66
-24.43
-31.07
-37.61
-44.15
-50.53
-56.24
-60.33
-61.72
-59.47
-53.11
-42.95
-29.92
-15.47
-1.14
11.67
22.05
29.61
34.48
37.24
38.59
39.14
39.26
38.99
38.08
36.35
33.83
30.95
28.39
26.72
26.2
26.54
27.05
26.85
25.31
22.18
17.67
12.38
6.91
1.76
-2.97
-7.56
-12.56
-18.51
-25.66
-33.82
-42.31
-50.24
-56.75
-61.24
-63.36
-62.84
-59.38
-52.7
-42.74
-29.93
-15.37
-0.65
12.58
23.08
30.35
34.65
36.67
37.18
36.7
35.4
33.31
30.48
27.14
23.67
20.49
17.93
16.17
15.23
14.97
15.1
15.18
14.63
12.9
9.73
5.23
-0.15
-5.84
-11.45
-16.96
-22.65
-28.92
-35.92
-43.3
-50.25
-55.71
-58.59
-58.1
-53.89
-46.11
-35.35
-22.55
-8.91
4.27
15.79
24.76
30.73
33.7
34.13
32.7
30.18
27.23
24.3
21.68
19.54
17.88
16.67
15.72
14.82
13.69
12.11
9.96
7.28
4.27
1.14
-1.96
-5.08
-8.53
-12.75
-18.19
-25.08
-33.1
-41.42
-48.79
-53.85
-55.48
-53.16
-47.01
-37.72
-26.37
-14.07
-1.84
9.55
19.57
27.84
34.09
38.13
39.86
39.35
36.93
33.18
28.89
24.83
21.43
18.73
16.42
14.1
11.5
8.73
6.19
4.2
2.81
1.53
-0.44
-3.79
-8.86
-15.4
-22.76
-30.22
-37.23
-43.53
-48.98
-53.29
-55.96
-56.2
-53.28
-46.8
-36.98
-24.66
-11.14
2.14
14.03
23.81
31.29
36.61
40.03
41.69
41.62
39.91
36.81
32.86
28.8
25.25
22.59
20.71
19.16
17.41
15.1
12.19
8.96
5.75
2.73
-0.27
-3.78
-8.36
-14.4
-21.85
-30.22
-38.61
-46.04
-51.62
-54.64
-54.66
-51.46
-45.08
-35.8
-24.2
-11.14
2.32
14.99
25.79
33.95
39.18
41.73
42.23
41.46
40.06
38.29
36.1
33.31
29.83
25.91
22.04
18.75
16.33
14.67
13.3
11.67
9.37
6.26
2.48
-1.73
-6.24
-11.21
-16.99
-23.94
-32.11
-41.03
-49.71
-56.75
-60.75
-60.68
-56.24
-47.9
-36.69
-23.9
-10.73
1.87
13.28
22.99
30.62
35.85
38.58
38.98
37.53
34.91
31.79
28.68
25.85
23.37
21.25
19.45
17.95
16.7
15.63
14.54
13.14
11.14
8.27
4.42
-0.41
-6.08
-12.47
-19.47
-27.11
-35.38
-43.98
-52.15
-58.57
-61.64
-60.01
-53.11
-41.53
-26.91
-11.43
2.92
14.89
24.13
30.99
35.94
39.31
41.07
40.99
38.96
35.28
30.61
25.98
22.3
20.14
19.46
19.6
19.62
18.6
16.12
12.35
8.0
3.91
0.58
-2.1
-4.87
-8.7
-14.41
-22.26
-31.85
-42.11
-51.55
-58.63
-61.94
-60.6
-54.4
-43.94
-30.48
-15.66
-1.03
12.26
23.52
32.51
39.15
43.37
45.13
44.6
42.22
38.72
34.91
31.43
28.67
26.69
25.33
24.33
23.42
22.35
20.83
18.7
15.79
12.19
8.13
3.88
-0.4
-4.74
-9.5
-15.12
-21.99
-30.29
-39.69
-49.43
-58.3
-64.92
-68.06
-66.9
-61.22
-51.43
-38.47
-23.51
-7.81
7.5
21.32
32.75
41.13
46.21
48.25
48.06
46.71
45.18
43.95
42.94
41.68
