13.64
7.38
0.52
-6.8
-14.43
-22.13
-29.69
-37.11
-44.73
-53.11
-62.58
-72.74
-82.2
-88.8
-90.32
-85.37
-73.98
-57.62
-38.59
-19.31
-1.58
13.61
25.96
35.49
42.25
46.28
47.72
47.0
44.81
41.97
39.21
36.93
35.23
33.85
32.56
31.22
29.87
28.69
27.74
26.84
25.47
22.99
18.86
12.98
5.73
-2.15
-9.9
-17.05
-23.63
-30.07
-37.01
-45.03
-54.35
-64.68
-75.16
-84.36
-90.59
-92.21
-88.21
-78.52
-64.12
-46.75
-28.36
-10.56
5.63
19.68
31.33
40.3
46.35
49.45
49.95
48.67
46.69
44.94
43.86
43.38
43.06
42.48
41.5
40.38
39.52
39.22
39.35
39.33
38.36
35.66
30.9
24.27
16.39
8.16
0.34
-6.65
-12.84
-18.62
-24.61
-31.26
-38.86
-47.42
-56.64
-65.94
-74.4
-80.7
-83.36
-81.1
-73.25
-60.14
-43.16
-24.36
-5.88
10.59
24.15
34.6
42.17
47.22
50.08
50.99
50.25
48.32
45.73
43.02
40.58
38.47
36.64
34.95
33.34
31.98
31.06
30.57
30.22
29.35
27.19
23.17
17.17
9.61
1.3
-6.88
-14.32
-20.85
-26.82
-32.97
-40.08
-48.68
-58.71
-69.35
-79.09
-86.02
-88.32
-84.86
-75.6
-61.55
-44.52
-26.58
-9.42
5.89
18.97
29.82
38.51
45.01
49.21
51.14
51.09
49.7
47.79
46.14
45.22
45.07
45.35
45.63
45.57
45.1
44.35
43.42
42.22
40.33
37.22
32.46
26.04
18.34
10.1
2.01
-5.59
-12.88
-20.52
-29.35
-40.01
-52.41
-65.51
-77.37
-85.59
-88.16
-84.06
-73.68
-58.66
-41.38
-24.13
-8.59
4.4
14.69
22.45
27.95
31.36
32.75
32.25
30.17
26.99
23.32
19.8
16.93
14.94
13.82
13.37
13.21
13.02
12.53
11.54
9.96
7.7
4.7
0.91
-3.64
-8.87
-14.68
-21.11
-28.33
-36.6
-45.97
-56.01
-65.54
-72.79
-75.83
-73.26
-64.71
-51.09
-34.22
-16.34
0.56
15.13
26.72
35.24
40.85
43.78
44.33
42.87
39.86
35.9
31.59
27.5
24.06
21.5
19.85
18.88
18.3
17.73
16.89
15.56
13.59
10.82
7.18
2.63
-2.75
-8.72
-15.13
-21.97
-29.54
-38.23
-48.16
-58.61
-67.99
-74.1
-74.81
-68.98
-56.88
-40.25
-21.62
-3.54
12.19
24.78
34.31
41.36
46.41
49.64
50.97
50.16
47.24
42.68
37.42
32.56
29.06
27.32
27.05
27.43
27.46
26.36
23.87
20.22
15.87
11.24
6.47
1.47
-3.98
-10.06
-16.85
-24.37
-32.77
-42.16
-52.53
-63.33
-73.21
-80.24
-82.41
-78.34
-67.91
-52.43
-34.15
-15.56
1.36
15.62
27.1
36.16
43.23
48.46
51.75
52.95
52.13
49.65
46.17
42.45
39.1
36.38
34.24
32.47
30.86
29.35
27.95
26.58
24.9
22.34
18.28
12.32
4.55
-4.43
-13.75
-22.63
-30.68
-38.13
-45.68
-54.22
-64.27
-75.53
-86.63
-95.31
-99.17
-96.47
-86.89
-71.66
-53.2
-34.16
-16.55
-1.3
11.74
23.16
33.51
42.85
50.8
56.85
60.7
62.53
62.87
62.56
62.32
62.64
63.52
64.63
65.49
65.66
64.98
63.52
61.5
59.03
55.97
51.93
46.48
39.38
30.74
21.09
11.21
1.85
-6.52
-13.83
-20.42
-26.94
-34.1
-42.52
-52.31
-62.9
-72.94
-80.49
-83.49
-80.41
-70.87
-55.79
-37.19
-17.51
1.1
17.19
30.22
40.2
47.45
52.22
54.72
55.11
53.69
50.87
47.27
43.51
40.18
37.66
36.03
35.08
34.4
33.64
32.57
31.22
29.65
27.81
25.4
21.95
17.06
10.68
3.1
-5.03
-13.1
-20.66
-27.67
-34.38
-41.22
-48.72
-57.29
-66.98
-77.2
-86.62
-93.29
-95.19
-90.92
-80.37
-64.76
-46.39
-27.69
-10.62
3.81
15.38
24.28
30.73
34.85
36.68
36.39
34.44
31.51
28.38
25.75
24.03
23.33
23.44
23.98
24.47
24.61
24.21
23.23
21.67
19.41
16.26
12.0
6.66
0.45
-6.15
-12.75
-19.13
-25.5
-32.4
-40.34
-49.38
-58.74
-66.81
-71.48
-70.85
-63.98
-51.3
-34.63
-16.55
0.35
14.3
24.66
31.84
36.74
40.14
42.34
43.08
41.96
38.79
34.0
28.49
23.46
19.84
18.02
17.75
18.25
18.64
18.11
16.29
13.18
9.14
4.58
-0.16
-4.95
-9.95
-15.48
-21.95
-29.68
-38.82
-49.13
-59.97
-70.15
-78.03
-81.86
-80.23
-72.57
-59.48
-42.62
-24.27
-6.69
8.47
20.45
29.34
35.68
40.07
42.9
44.3
44.31
43.04
40.87
38.41
36.3
35.04
34.79
35.31
36.04
36.35
35.78
34.15
31.58
28.25
24.24
19.23
12.69
4.1
-6.55
-18.69
-31.28
-43.31
-54.25
-64.16
-73.42
-82.0
-89.03
-92.73
-91.04
-82.52
-67.13
-46.52
-23.55
-1.34
17.65
32.23
42.58
49.73
54.98
59.24
62.75
65.23
66.2
65.46
63.22
60.14
56.97
54.29
52.18
50.29
48.09
45.05
40.88
35.56
29.21
22.12
14.49
6.55
-1.5
-9.43
-17.05
-24.25
-31.13
-38.08
-45.69
-54.56
-64.84
-75.87
-86.05
-93.17
-95.09
-90.56
-79.75
-64.15
-46.1
-27.9
-11.26
3.01
14.71
23.85
30.42
34.3
35.58
34.72
32.63
30.39
28.85
28.28
28.31
28.21
27.25
25.23
22.64
20.42
19.57
20.52
22.9
25.59
27.13
26.34
22.91
17.44
11.25
5.7
1.61
-1.06
-3.2
-6.05
-10.74
-17.79
-26.86
-36.85
-46.09
-52.71
-55.04
-52.09
-43.79
-31.23
-16.3
-1.23
12.09
22.63
30.29
35.67
39.46
42.05
43.3
42.79
40.17
35.56
29.63
23.32
17.61
13.08
9.79
7.37
5.22
2.79
-0.28
-4.13
-8.78
-14.21
-20.37
-27.2
-34.58
-42.23
-49.73
-56.56
-62.24
-66.54
-69.57
-71.63
-72.88
-73.08
-71.43
-66.82
-58.4
-46.01
-30.55
-13.74
2.43
16.36
27.28
35.26
40.93
44.92
47.62
49.0
48.86
47.11
43.98
39.98
35.84
32.23
29.57
27.93
27.09
26.65
26.17
25.26
23.56
20.89
17.14
12.4
6.91
1.03
-4.97
-10.99
-17.25
-24.21
-32.43
-42.15
-52.92
-63.36
-71.4
-74.74
-71.77
-62.11
-46.91
-28.47
-9.43
8.02
22.62
34.06
42.59
48.61
52.25
53.46
52.13
48.41
42.85
36.38
30.18
25.32
22.39
21.34
21.48
21.83
21.47
19.94
17.35
14.11
10.64
7.05
3.13
-1.46
-6.97
-13.33
-20.35
-27.89
-36.05
-45.09
-54.93
-64.78
-72.97
-77.37
-76.05
-68.18
-54.51
-37.1
-18.66
-1.56
12.84
24.23
33.02
39.76
44.54
47.13
47.25
45.03
41.27
37.25
34.28
33.16
33.88
35.7
37.58
38.63
38.38
36.85
34.3
31.0
26.98
22.2
16.55
10.08
3.0
-4.36
-11.73
-19.1
-26.82
-35.35
-44.89
-54.89
-63.85
-69.6
-70.1
-64.23
-52.42
-36.52
-19.17
-2.78
11.19
22.52
31.77
39.61
46.27
51.37
54.2
54.28
51.7
47.22
42.01
37.22
33.59
31.26
29.86
28.79
27.48
25.59
23.07
19.96
16.33
12.19
7.41
1.94
-4.23
-10.93
-17.96
-25.22
-32.84
-41.13
-50.3
-60.14
-69.61
-77.05
-80.5
-78.47
-70.49
-57.39
-41.02
-23.63
-7.16
7.18
18.97
28.24
35.16
39.83
42.24
42.53
41.09
38.53
35.56
32.65
30.04
27.75
25.73
24.04
22.79
22.03
21.54
20.86
19.34
16.48
12.13
6.57
0.37
-5.88
-11.81
-17.46
-23.24
-29.75
-37.5
-46.58
-56.23
-64.92
-70.61
-71.41
-66.28
-55.47
-40.47
-23.52
-6.87
7.85
19.85
29.01
35.59
39.82
41.84
41.74
39.76
36.31
31.99
27.54
23.68
21.0
19.76
19.86
20.79
21.83
22.19
21.32
19.07
15.68
11.67
7.52
3.46
-0.66
-5.31
-11.14
-18.63
-27.92
-38.57
-49.52
-59.14
-65.58
-67.29
-63.39
-54.09
-40.58
-24.72
-8.44
6.66
19.67
30.17
38.09
43.43
46.19
46.47
44.55
41.01
36.6
32.15
28.33
25.51
23.77
22.89
22.5
22.13
21.33
19.82
17.48
14.4
10.76
6.78
2.5
-2.24
-7.7
-14.17
-21.79
-30.51
-40.06
-49.97
-59.45
-67.41
-72.46
-73.22
-68.79
-59.11
-45.16
-28.75
-11.96
3.41
16.18
25.91
32.7
36.87
38.82
38.98
37.81
35.79
33.35
30.77
28.15
25.54
22.98
20.68
18.91
17.99
17.97
18.61
19.34
19.39
18.09
15.0
10.1
3.74
-3.61
-11.42
-19.4
-27.54
-36.05
-45.09
-54.56
-63.76
-71.45
-75.99
-75.9
-70.29
-59.29
-44.08
-26.56
-8.9
6.99
19.9
29.39
35.71
39.54
41.62
42.52
42.51
41.54
39.44
36.12
31.78
26.99
22.55
19.31
17.85
18.31
20.34
23.24
26.17
28.39
29.39
28.96
27.12
23.97
19.63
14.19
7.66
0.03
-8.74
-18.66
-29.64
-41.29
-52.8
-62.8
-69.53
-71.36
-67.28
-57.5
-43.39
-27.09
-10.8
3.89
16.3
26.47
34.7
41.15
45.58
47.68
47.34
44.95
41.35
37.53
34.33
32.09
30.68
29.65
28.57
27.22
25.64
24.0
22.29
20.32
17.65
13.85
8.79
2.71
-3.84
-10.23
-16.11
-21.55
-27.12
-33.63
-41.72
-51.55
-62.46
-72.99
-81.15
-84.91
-82.97
-75.02
-61.94
-45.46
-27.67
-10.47
4.75
17.24
26.74
33.34
37.37
39.26
39.48
38.48
36.59
34.07
31.14
28.03
25.04
22.52
20.66
19.39
18.33
16.8
14.03
9.45
2.99
-4.82
-12.98
-20.33
-26.03
-29.88
-32.58
-35.47
-40.1
-47.55
-57.92
-70.01
-81.51
-89.63
-91.92
-87.16
-75.79
-59.67
-41.4
-23.22
-6.41
8.99
23.7
38.98
56.11
76.18
99.88
126.92
155.58
182.68
204.33
217.36
220.51
214.94
203.47
189.37
175.16
162.16
151.0
142.26
136.81
135.51
138.67
145.7
155.37
166.29
177.26
187.43
195.96
201.79
203.61
200.4
191.96
179.35
164.89
151.6
142.35
138.76
140.64
145.98
151.7
154.71
152.89
145.47
132.94
116.37
96.91
75.54
53.19
30.75
9.1
-11.28
-30.51
-49.37
-68.89
-89.74
-111.78
-134.1
-155.59
-175.46
-193.68
-210.74
-227.16
-242.99
-257.59
-270.03
-279.54
-285.98
-289.84
-291.89
-292.6
-291.85
-288.96
-283.02
-273.29
-259.16
-240.09
-215.56
-185.25
-149.58
-110.17
-70.08
-33.3
-3.67
16.16
25.46
25.41
18.4
7.19
-5.67
-18.27
-29.23
-37.75
-43.58
-46.96
-48.48
-48.93
-49.07
-49.62
-51.23
-54.5
-59.96
-67.86
-78.05
-89.96
-102.76
-115.85
-128.85
-141.58
-153.55
-163.71
-170.35
-171.55
-165.96
-153.39
-135.03
-113.04
-89.89
-67.59
-47.36
-29.64
-14.44
-1.81
8.09
14.97
18.72
19.66
18.7
17.16
16.39
17.3
19.94
23.51
26.75
28.58
28.53
26.86
24.25
21.15
17.47
12.6
5.78
-3.33
-14.46
-26.96
-40.17
-53.67
-67.3
-80.58
-92.45
-101.21
-104.95
-102.33
-93.22
-78.76
-60.96
-42.11
-23.96
-7.58
6.5
18.06
26.77
32.31
34.58
34.01
31.64
28.85
26.89
26.3
26.81
27.48
27.26
25.69
23.0
20.05
17.88
17.05
17.47
18.4
18.85
17.95
15.2
10.36
3.34
-5.98
-17.6
-31.07
-45.23
-58.03
-67.03
-70.04
-65.98
-55.29
-39.8
-22.13
-4.78
10.51
23.03
32.82
40.23
45.48
48.52
49.25
47.68
44.27
39.83
35.37
31.63
28.95
27.11
25.53
23.66
21.21
18.25
15.08
11.79
8.2
3.89
-1.59
-8.47
-16.58
-25.57
-35.04
-44.7
-54.2
-62.77
-69.06
-71.22
-67.55
-57.2
-40.71
-20.06
1.98
22.7
40.29
54.12
64.56
72.39
78.19
82.05
83.71
82.91
79.79
75.07
69.88
65.42
62.47
61.11
60.75
60.47
59.42
57.11
53.52
48.87
43.51
37.6
31.05
23.54
14.68
4.2
-7.81
-20.66
-32.99
-42.99
-48.73
-48.78
-42.66
-30.91
-14.96
3.29
21.95
39.4
54.55
66.84
76.09
82.4
85.99
87.09
85.9
82.62
77.65
71.66
65.57
60.26
56.38
53.99
52.64
51.6
50.08
47.59
43.97
39.42
34.19
28.47
22.06
14.43
4.94
-6.81
-20.43
-34.49
-46.64
-54.2
-55.11
-48.66
-35.77
-18.67
-0.14
17.49
32.75
45.3
55.37
63.33
69.23
72.76
73.48
71.16
66.24
59.65
52.75
46.82
42.62
40.24
39.08
38.25
36.83
34.33
30.59
25.82
20.47
14.89
9.31
3.61
-2.63
-10.09
-19.49
-31.06
-44.24
-57.34
-67.86
-73.07
-71.09
-61.47
-45.69
-26.42
-6.75
10.89
25.35
36.64
45.4
52.09
56.59
58.34
56.87
52.32
45.67
38.61
32.73
29.06
27.44
26.83
25.83
23.45
19.54
14.79
10.28
6.84
4.52
2.54
-0.36
-5.41
-13.34
-24.14
-37.04
-50.66
-63.29
-73.02
-78.08
-77.28
-70.27
-57.79
-41.48
-23.45
-5.76
10.02
23.07
33.16
40.33
44.66
46.13
44.79
40.79
34.79
27.88
21.37
16.43
13.63
12.63
12.47
11.83
9.75
6.08
1.48
-2.93
-6.22
-8.31
-10.1
-13.26
-19.41
-29.31
-42.44
-56.95
-70.17
-79.46
-82.88
-79.68
-70.35
-56.23
-39.08
-20.82
-3.02
13.1
26.87
37.96
46.28
51.72
54.2
53.71
50.52
45.34
39.19
33.23
28.34
24.89
22.62
20.96
19.22
16.92
13.89
10.16
5.91
1.33
-3.54
-8.85
-15.0
-22.55
-32.07
-43.68
-56.78
-69.79
-80.37
-86.05
-84.98
-76.56
-61.72
-42.57
-21.67
-1.39
16.68
31.84
43.94
53.18
59.63
63.27
64.05
62.15
58.21
53.23
48.39
44.71
42.54
41.55
40.89
39.63
37.21
33.67
29.6
25.71
22.43
19.68
16.92
13.35
8.22
1.05
-8.21
-19.06
-30.42
-40.69
-48.01
-50.6
-47.33
-38.04
-23.67
-5.97
12.92
31.04
47.03
60.23
70.65
78.52
84.11
87.48
88.44
86.76
82.42
75.79
67.56
58.62
49.6
40.68
31.52
21.56
10.48
-1.45
-13.42
-24.46
-33.96
-42.12
-50.04
-59.27
-71.3
-86.85
-105.49
-125.6
-144.59
-159.33
-166.89
-165.19
-153.47
-132.49
-104.21
-71.23
-36.25
-1.49
31.32
60.82
85.81
105.22
118.23
124.54
124.67
119.87
111.86
102.39
92.77
83.61
74.76
65.63
55.64
44.57
32.78
21.04
10.2
0.67
-7.83
-16.33
-26.31
-39.17
-55.63
-75.15
-95.78
-114.45
-127.73
-132.82
-128.48
-115.33
-95.61
-72.33
-48.39
-25.92
-6.1
10.62
24.09
34.18
40.78
43.98
44.29
42.67
40.36
38.42
37.54
37.8
38.79
39.8
40.15
39.3
36.94
32.95
27.35
20.26
11.84
2.22
-8.67
-21.06
-35.21
-50.99
-67.43
-82.66
-94.11
-99.34
-96.99
-87.31
-72.25
-54.77
-37.83
-23.59
-13.02
-5.98
-1.8
0.24
0.72
0.13
-0.84
-1.27
-0.23
2.77
7.55
13.19
18.52
22.7
25.57
27.8
30.32
33.81
38.18
42.55
45.59
46.06
43.2
36.82
27.25
15.3
2.29
-9.94
-19.11
-23.09
-20.51
-11.4
2.56
18.54
33.33
44.38
50.34
51.2
47.8
41.32
32.81
22.94
12.16
0.92
-10.11
-20.15
-28.3
-34.0
-37.18
-38.33
-38.4
-38.47
-39.47
-41.94
-46.04
-51.65
-58.6
-66.8
-76.27
-87.14
-99.32
-112.2
-124.33
-133.38
-136.59
-131.51
-116.99
-93.62
-63.69
-30.42
2.98
34.02
61.19
83.62
100.68
111.79
116.69
115.83
110.64
103.28
95.93
90.12
86.16
83.31
80.17
75.6
69.15
61.29
53.06
45.51
39.22
33.99
28.91
22.75
14.33
2.96
-11.35
-27.7
-44.37
-58.98
-69.1
-72.82
-69.4
-59.49
-44.9
-28.0
-10.94
4.64
17.78
27.8
34.18
36.54
34.77
29.48
21.96
13.94
7.02
2.13
-0.64
-1.95
-2.68
-3.48
-4.43
-5.15
-5.12
-4.12
-2.51
-1.19
-1.26
-3.65
-8.87
-16.89
-27.24
-38.94
-50.66
-60.54
-66.49
-66.62
-59.84
-46.49
-28.36
-8.42
10.09
24.5
33.26
36.12
33.77
27.31
17.9
6.69
-5.16
-16.46
-26.02
-33.07
-37.47
-39.84
-41.29
-42.98
-45.59
-49.1
-52.95
-56.35
-58.83
-60.37
-61.48
-62.97
-65.75
-70.52
-77.55
-86.47
-96.13
-104.75
-110.22
-110.68
-105.11
-93.64
-77.66
-59.25
-40.58
-23.32
-8.39
3.95
13.73
20.86
25.05
25.94
23.59
18.74
12.75
7.23
3.43
1.78
1.92
3.02
4.38
5.77
7.48
9.91
13.14
16.67
19.46
20.16
17.54
10.8
-0.19
-14.64
-30.77
-45.94
-57.11
-61.55
-57.65
-45.49
-26.77
-4.35
18.77
40.28
58.96
74.52
87.08
96.66
102.95
105.52
104.23
99.64
93.07
86.19
80.39
76.29
73.55
71.01
67.39
61.77
54.01
44.7
34.78
25.06
15.72
6.43
-3.51
-14.75
-27.62
-42.15
-58.06
-74.82
-91.36
-106.04
-116.52
-120.33
-115.58
-101.77
-80.34
-54.25
-27.14
-2.18
18.73
35.21
47.98
58.03
65.98
71.77
75.08
75.72
74.07
71.19
68.38
66.7
66.5
67.38
68.47
68.83
67.85
65.28
61.17
55.66
48.89
40.98
32.16
22.68
12.78
2.59
-8.05
-19.56
-32.3
-46.33
-60.92
-74.39
-84.35
-88.24
-84.13
-71.45
-51.31
-26.25
0.46
25.72
47.37
64.43
76.91
85.51
