24.59
36.03
43.95
49.39
52.86
54.3
53.5
50.51
45.92
40.79
36.25
33.26
32.17
32.77
34.35
36.02
36.91
36.36
34.06
29.99
24.43
17.86
10.82
3.77
-3.06
-9.77
-16.78
-24.77
-34.42
-46.08
-59.45
-73.37
-85.87
-94.48
-97.02
-92.13
-79.82
-61.49
-39.52
-16.61
4.83
23.14
37.44
47.48
53.44
55.75
54.95
51.79
47.15
41.88
36.78
32.44
29.16
27.03
26.0
25.83
26.25
26.8
26.98
26.24
24.09
20.25
14.74
7.91
0.28
-7.64
-15.6
-23.76
-32.71
-43.14
-55.39
-68.85
-81.82
-91.66
-95.59
-91.66
-79.46
-60.42
-37.31
-13.42
8.36
26.12
39.13
47.63
52.41
54.38
54.32
52.73
49.85
45.85
41.05
36.04
31.62
28.56
27.25
27.5
28.51
29.23
28.69
26.33
22.18
16.63
10.2
3.34
-3.81
-11.39
-19.82
-29.63
-41.3
-54.83
-69.47
-83.53
-94.54
-99.96
-97.9
-87.91
-71.22
-50.3
-28.02
-6.78
11.93
27.66
40.48
50.6
58.02
62.6
64.31
63.41
60.57
56.71
52.78
49.57
47.52
46.64
46.58
46.64
46.13
44.4
41.06
36.02
29.39
21.34
11.94
1.21
-10.84
-23.98
-37.77
-51.65
-65.15
-78.05
-90.33
-101.7
-111.29
-117.43
-118.03
-111.31
-96.79
-75.64
-50.6
-25.12
-2.33
15.85
28.94
37.6
42.97
46.07
47.5
47.46
46.03
43.45
40.2
37.01
34.62
33.56
34.04
35.83
38.34
40.8
42.37
42.32
40.24
36.09
30.23
23.35
16.21
9.37
3.05
-3.03
-9.51
-16.92
-25.31
-33.73
-40.26
-42.39
-37.87
-25.57
-6.07
18.25
43.92
67.25
85.41
97.02
102.23
102.2
98.38
91.94
83.41
72.83
60.14
45.56
29.9
14.3
-0.02
-12.2
-21.9
-29.22
-34.57
-38.51
-41.64
-44.57
-47.87
-51.89
-56.76
-62.27
-68.11
-74.07
-80.29
-87.33
-95.96
-106.87
-120.16
-134.94
-149.18
-159.96
-164.2
-159.72
-146.01
-124.5
-98.16
-70.39
-44.09
-20.97
-1.58
14.18
26.58
35.68
41.57
44.48
45.01
44.06
42.53
41.07
40.03
39.5
39.48
40.01
41.09
42.52
43.74
43.73
41.4
35.92
27.22
16.2
4.53
-5.93
-13.83
-18.91
-22.19
-25.5
-30.76
-39.06
-50.08
-62.0
-71.98
-77.11
-75.37
-66.28
-50.89
-31.35
-10.22
10.33
28.71
44.05
55.95
64.34
69.39
71.56
71.56
70.16
67.99
65.25
61.92
57.91
53.44
49.15
45.9
44.48
45.07
47.15
49.46
50.51
49.09
44.66
37.48
28.45
18.73
9.28
0.53
-7.79
-16.53
-26.81
-39.41
-54.33
-70.47
-85.63
-97.05
-102.12
-99.32
-88.68
-71.78
-51.35
-30.48
-11.86
2.75
12.68
18.21
20.2
19.74
17.81
14.99
11.54
7.64
3.78
0.96
0.64
4.13
11.93
23.16
35.75
46.96
54.52
57.33
55.82
51.46
46.08
40.97
36.57
32.51
28.1
22.78
16.27
8.52
-0.57
-11.21
-23.49
-36.88
-49.77
-59.69
-63.86
-60.26
-48.48
-30.02
-7.88
14.48
34.1
49.32
59.8
66.26
69.8
71.4
71.63
70.68
68.55
65.4
61.75
58.46
56.5
56.54
58.67
62.34
66.55
70.23
72.63
73.5
72.99
71.39
68.8
65.09
60.06
53.7
46.31
38.39
30.31
22.0
13.04
2.96
-8.15
-19.33
-29.01
-35.6
-38.3
-37.57
-34.97
-32.33
-31.02
-31.51
-33.32
-35.76
-38.45
-41.76
-46.49
-53.3
-62.09
-71.74
-80.39
-86.09
-87.55
-84.63
-78.29
-70.13
-61.79
-54.33
-48.08
-42.74
-37.72
-32.63
-27.49
-22.91
-19.76
-19.06
-21.48
-27.1
-35.2
-44.27
-52.24
-56.86
-56.27
-49.56
-36.97
-19.84
-0.16
19.97
38.92
55.68
69.82
81.19
89.52
94.4
95.27
91.81
84.18
73.28
60.54
47.69
36.19
26.83
19.58
13.69
8.26
2.74
-2.8
-7.8
-11.67
-14.38
-16.8
-20.47
-27.05
-37.6
-52.12
-69.51
-87.8
-104.61
-117.62
-124.95
-125.45
-118.87
-106.03
-88.54
-68.55
-48.18
-29.15
-12.54
1.07
11.38
18.23
21.51
21.34
18.24
13.19
7.44
2.22
-1.6
-3.78
-4.62
-4.85
-5.14
-5.85
-7.01
-8.35
-9.71
-11.2
-13.34
-16.81
-22.21
-29.91
-39.96
-52.14
-65.85
-80.01
-92.9
-102.33
-106.05
-102.46
-91.33
-73.82
-52.29
-29.39
-7.38
12.39
29.29
43.13
53.66
60.43
63.08
61.59
56.71
49.81
42.62
36.73
33.07
31.74
32.05
33.01
33.62
33.34
32.13
30.32
28.21
25.78
22.64
18.09
11.49
2.44
-9.07
-22.67
-37.8
-53.48
-68.29
-80.24
-87.07
-86.76
-78.36
-62.4
-40.96
-17.09
6.2
26.64
43.16
55.69
64.67
70.62
73.81
74.44
72.72
69.21
64.73
60.21
56.44
53.74
52.0
50.68
49.18
47.02
44.1
40.57
36.74
32.8
28.63
23.85
17.95
10.54
1.41
-9.34
-21.47
-34.58
-48.06
-60.89
-71.54
-78.05
-78.47
-71.56
-57.32
-37.22
-14.0
9.14
29.37
44.97
55.5
61.64
64.51
65.13
64.13
61.74
58.16
53.79
49.34
45.67
43.45
42.87
43.52
44.66
45.41
45.18
43.69
41.05
37.54
33.45
28.98
24.15
18.89
13.04
6.39
-1.39
-10.69
-21.71
-34.13
-46.76
-57.43
-63.44
-62.44
-53.29
-36.67
-14.97
8.48
30.46
48.81
62.77
72.68
79.36
83.53
85.45
85.01
82.15
77.15
70.76
64.16
58.38
54.0
50.81
47.88
44.03
38.36
30.64
21.51
12.18
3.84
-2.68
-7.37
-10.93
-14.48
-19.26
-26.16
-35.53
-47.02
-59.49
-71.09
-79.58
-82.8
-79.36
-69.14
-53.35
-34.26
-14.4
4.12
19.98
32.72
42.28
48.69
51.82
51.63
48.35
42.72
35.91
29.15
23.47
19.45
17.16
16.33
16.46
16.96
17.38
17.47
17.24
16.9
16.63
16.39
15.78
14.09
10.49
4.38
-4.43
-15.67
-28.58
-42.03
-54.57
-64.57
-70.5
-71.23
-66.23
-55.85
-41.18
-23.82
-5.54
12.1
27.8
40.57
49.71
54.89
56.22
54.39
50.59
46.25
42.59
40.28
39.26
38.82
38.16
36.79
34.82
32.78
31.18
30.14
29.15
27.3
23.61
17.6
9.33
-0.7
-11.9
-23.83
-36.1
-48.08
-58.64
-66.19
-69.11
-66.39
-58.17
-45.75
-31.25
-16.86
-4.22
5.88
13.43
18.77
22.28
24.19
24.7
24.08
22.83
21.59
20.89
20.89
21.23
21.21
20.07
17.37
13.11
7.66
1.51
-5.14
-12.32
-20.37
-29.47
-39.61
-50.5
-61.9
-73.77
-86.25
-99.31
-112.17
-123.2
-129.93
-129.91
-121.7
-105.49
-83.37
-58.55
-34.45
-13.64
2.56
14.14
21.9
26.82
29.67
30.82
30.39
28.49
25.42
21.71
18.06
15.16
13.33
12.52
12.27
11.93
10.88
8.78
5.55
1.32
-3.71
-9.41
-15.63
-22.37
-29.65
-37.67
-46.81
-57.42
-69.53
-82.31
-93.89
-101.6
-102.79
-95.86
-80.94
-60.11
-36.72
-14.23
4.91
19.8
31.01
39.74
46.91
52.69
56.44
57.29
54.83
49.61
43.12
37.33
33.85
33.27
34.94
37.33
38.65
37.73
34.39
29.44
24.11
19.41
15.55
11.94
7.46
1.03
-7.87
-19.21
-32.37
-46.35
-59.91
-71.55
-79.59
-82.44
-79.08
-69.41
-54.5
-36.24
-16.88
1.58
17.75
30.94
40.93
47.72
51.36
51.92
49.69
45.34
39.83
34.39
30.08
27.58
26.88
27.4
28.21
28.39
27.42
25.24
22.23
18.85
15.36
11.63
7.17
1.43
-5.89
-14.68
-24.58
-35.16
-46.27
-57.85
-69.6
-80.49
-88.64
-91.79
-88.01
-76.69
-58.9
-37.17
-14.67
5.81
22.49
34.78
42.87
47.38
48.88
47.79
44.58
39.84
34.41
29.21
25.08
22.43
21.22
20.94
20.91
20.49
19.38
17.62
15.43
13.03
10.33
6.96
2.47
-3.59
-11.38
-20.89
-31.76
-43.38
-54.75
-64.42
-70.57
-71.36
-65.51
-52.79
-34.35
-12.37
10.4
31.42
48.94
62.12
70.95
75.81
77.22
75.63
71.52
65.51
58.41
51.14
44.53
39.1
34.93
31.71
28.85
25.87
22.48
18.7
14.74
10.78
6.85
2.69
-2.16
-8.26
-16.14
-26.07
-37.91
-50.99
-64.01
-75.12
-82.22
-83.49
-78.02
-66.27
-49.9
-31.48
-13.57
1.85
13.74
21.9
26.59
28.22
27.03
23.34
17.62
10.58
3.11
-3.97
-10.05
-14.83
-18.32
-20.73
-22.34
-23.5
-24.62
-26.02
-28.01
-30.64
-33.76
-37.1
-40.49
-44.12
-48.6
-54.79
-63.32
-74.01
-85.48
-95.22
-100.24
-98.04
-87.48
-69.18
-45.17
-18.18
9.24
35.31
59.08
80.08
98.14
113.02
124.62
133.07
138.79
142.47
144.84
146.49
147.75
148.8
149.55
149.84
149.43
148.03
145.28
140.82
134.49
126.41
117.09
107.22
97.43
87.97
78.49
67.99
55.26
39.46
20.74
0.67
-18.02
-32.12
-38.98
-37.58
-28.9
-15.61
-1.1
11.73
21.31
27.54
31.28
33.52
34.61
34.18
31.43
25.85
17.67
7.99
-1.56
-9.55
-15.22
-18.83
-21.39
-24.19
-28.26
-33.96
-40.95
-48.6
-56.35
-64.09
-72.13
-80.93
-90.83
-101.83
-113.7
-126.08
-138.81
-151.94
-165.55
-179.33
-192.21
-202.13
-206.3
-201.93
-187.19
-162.1
-128.85
-91.44
-54.57
-22.35
2.69
19.9
30.2
35.37
37.31
37.57
37.28
37.05
37.18
37.68
38.24
38.54
38.35
37.66
36.74
35.9
35.22
34.36
32.54
28.81
22.44
13.34
2.11
-10.07
-22.01
-33.0
-43.2
-53.55
-65.38
-79.74
-96.74
-115.28
-133.09
-147.29
-155.19
-155.2
-147.22
-132.75
-114.54
-95.55
-78.25
-63.9
-52.54
-43.32
-35.18
-27.51
-20.32
-14.1
-9.22
-5.48
-1.95
2.77
9.93
20.14
33.0
47.4
61.91
75.46
87.49
97.85
106.57
113.54
118.52
121.35
122.2
121.58
120.1
118.0
114.71
108.95
99.03
83.73
62.93
38.02
11.54
-13.35
-33.75
-47.65
-54.21
-53.77
-47.52
-37.28
-25.12
-13.0
-2.41
5.85
11.69
15.46
17.53
18.12
17.24
14.91
11.41
7.41
3.7
0.89
-0.85
-1.97
-3.22
-5.51
-9.49
-15.45
-23.36
-32.87
-43.58
-55.13
-67.41
-80.61
-95.14
-111.22
-128.53
-145.83
-160.94
-171.23
-174.28
-168.7
-154.52
-133.17
-106.98
-78.5
-49.99
-23.11
0.94
21.25
37.12
48.12
54.33
56.49
55.95
54.35
53.25
53.67
55.99
59.83
64.36
68.58
71.59
72.7
71.62
68.41
63.34
56.89
49.48
41.36
32.5
22.56
10.92
-3.07
-19.66
-38.27
-57.22
-73.85
-85.15
-88.64
-83.2
-69.51
-49.75
-26.85
-3.61
17.96
36.76
52.37
64.62
73.34
78.31
79.53
77.4
72.87
67.3
62.09
58.29
56.32
55.86
56.13
56.22
55.45
53.53
50.48
46.51
41.74
36.1
29.49
21.77
12.96
3.08
-7.88
-20.07
-33.71
-48.62
-64.01
-78.08
-88.38
-92.37
-88.37
-76.16
-57.11
-33.91
-9.61
13.08
32.36
47.49
58.61
66.3
71.22
73.86
74.47
73.18
70.17
65.85
60.84
55.93
51.84
48.94
47.27
46.43
45.82
44.76
42.74
39.41
34.73
28.84
21.93
14.21
5.79
-3.3
-13.24
-24.32
-36.9
-51.09
-66.38
-81.29
-93.42
-99.93
-98.47
-88.01
-69.42
-45.29
-19.13
5.76
27.09
43.98
56.72
66.09
72.75
76.87
78.22
76.58
72.21
66.03
59.53
54.22
51.14
50.42
51.36
52.76
53.41
52.57
50.05
46.13
41.21
35.56
29.21
22.03
13.91
4.86
-4.92
-15.26
-26.16
-37.99
-51.13
-65.5
-80.05
-92.61
-100.27
-100.37
-91.54
-74.34
-51.2
-25.59
-0.95
20.31
37.06
49.31
57.63
62.63
64.73
64.26
61.63
57.49
52.68
48.05
44.23
41.53
39.94
39.21
38.97
38.83
38.4
37.29
35.09
31.53
26.46
20.03
12.62
4.7
-3.3
-11.27
-19.44
-28.54
-39.35
-52.4
-67.23
-82.12
-94.14
-99.98
-97.09
-84.77
-64.62
-40.01
-14.95
7.33
25.13
38.42
48.04
54.85
59.15
60.59
58.74
53.64
46.23
38.12
31.16
26.68
25.05
25.65
27.18
28.29
28.07
26.23
23.08
19.07
14.61
9.8
4.56
-1.34
-8.03
-15.68
-24.5
-34.76
-46.62
-59.66
-72.68
-83.47
-89.45
-88.36
-79.18
-62.73
-41.33
-18.17
3.82
22.72
37.77
49.05
56.89
61.41
62.49
60.13
54.77
47.55
40.08
33.92
30.07
28.59
28.68
29.01
28.42
26.22
22.54
17.99
13.33
9.02
5.04
1.0
-3.74
-9.77
-17.52
-27.23
-38.87
-52.0
-65.53
-77.63
-85.96
-88.23
-82.96
-70.08
-51.07
-28.54
-5.5
15.43
32.65
45.59
54.45
59.78
62.08
61.67
58.85
54.09
48.12
41.96
36.58
32.63
30.25
29.03
28.2
27.01
25.0
22.02
18.33
14.25
10.01
5.59
0.64
-5.37
-12.93
-22.35
-33.68
-46.59
-60.45
-74.17
-86.18
-94.6
-97.5
-93.44
-82.03
-64.2
-42.03
-18.34
4.15
23.38
38.2
48.47
54.65
57.48
57.71
55.96
52.7
48.38
43.51
38.66
34.43
31.29
29.39
28.5
28.08
27.44
25.97
23.3
19.34
14.28
8.4
1.97
-4.85
-12.08
-19.91
-28.69
-38.85
-50.73
-64.11
-78.01
-90.47
-98.87
-100.64
-94.14
-79.39
-58.16
-33.53
-8.92
12.83
30.08
42.54
50.86
56.05
58.96
60.05
59.38
56.97
53.02
48.15
43.33
39.58
37.68
37.82
39.65
42.28
44.73
46.14
45.98
44.16
41.01
37.06
32.84
28.59
24.12
18.9
12.19
3.33
-7.93
-21.26
-35.69
-49.61
-61.09
-68.12
-69.0
-62.83
-49.93
-31.79
-10.68
10.84
30.53
46.79
58.83
66.55
70.25
70.29
67.13
61.37
53.98
46.29
39.48
34.57
32.13
32.07
33.73
36.26
39.06
41.96
45.24
48.65
52.15
55.79
59.29
61.54
60.71
54.77
42.16
22.49
-4.17
-35.44
-66.8
-93.17
-110.95
-118.88
-118.1
-111.58
-103.3
-98.95
-102.15
-113.3
-130.5
-151.14
-172.62
-192.35
-208.08
-218.32
-224.98
-229.48
-231.46
-229.59
-222.75
-210.47
-192.81
-170.57
-131.64
-76.91
-19.58
25.6
53.35
67.43
74.44
79.78
85.91
92.34
94.26
87.72
72.59
50.9
25.94
1.61
-17.87
-29.0
-30.13
-23.7
-12.72
0.94
16.46
33.59
51.11
67.33
80.92
91.15
96.81
98.17
97.16
96.36
97.64
101.38
106.72
112.13
116.0
116.84
114.39
109.69
104.03
98.05
91.5
83.76
74.43
63.56
51.33
38.12
24.31
10.05
-4.59
-19.47
-34.24
-48.34
-61.19
-72.2
-80.74
-86.06
-87.49
-84.46
-76.98
-65.91
-52.92
-40.11
-29.34
-22.16
-19.22
-20.76
-26.23
-34.38
-43.43
-51.12
-55.4
-54.98
-50.64
-44.56
-40.23
-40.27
-45.33
-54.0
-63.62
-71.66
-76.65
-79.12
-79.56
-78.52
-75.03
-67.16
-53.54
-33.96
-9.8
17.54
46.62
78.28
107.06
125.42
128.31
116.78
96.38
72.44
54.53
41.37
31.43
23.32
17.03
14.02
12.49
12.55
14.07
16.76
19.22
21.11
22.01
22.34
22.92
24.32
26.88
30.16
33.56
36.0
37.61
38.61
39.55
40.97
42.93
45.31
47.45
48.76
48.7
47.88
47.35
48.38
51.93
58.2
66.75
76.41
85.82
93.57
98.75
100.58
98.43
91.86
80.79
65.74
47.66
27.82
7.4
-12.52
-31.16
-47.99
-62.65
-74.83
-84.25
-90.78
-94.41
-95.35
-93.95
-90.69
-86.03
-80.43
-74.23
-67.71
-61.11
-54.76
-49.09
-44.59
-41.66
-40.46
-40.75
-41.88
-42.86
-42.44
-39.52
-33.35
-23.89
-11.89
1.24
13.72
23.92
30.67
33.5
32.71
29.17
24.1
18.76
14.06
10.32
7.26
4.29
1.02
-2.32
-4.9
-5.6
-3.59
1.38
9.03
18.77
29.95
41.77
53.18
62.74
68.92
70.52
67.25
59.77
49.4
37.48
24.99
12.51
0.5
-10.46
-19.73
-26.83
-31.83
-35.26
-37.82
-39.9
-41.33
-41.54
-39.93
-36.37
-31.31
-25.62
-20.2
-15.68
-12.37
-10.4
-9.86
-10.84
-13.27
-16.87
-21.09
-25.33
-29.14
-32.44
-35.46
-38.56
-41.98
-45.65
-49.26
-52.38
-54.69
-56.15
-57.09
-58.01
-59.37
-61.32
-63.54
-65.28
-65.57
-63.58
-58.77
-51.03
-40.65
-28.22
-14.5
-0.38
13.22
25.49
35.75
43.62
48.99
51.97
52.84
52.05
50.16
47.88
45.92
44.82
44.8
45.64
46.81
47.72
47.98
47.52
46.55
45.38
44.15
42.68
40.64
37.68
33.75
29.1
24.27
19.71
15.62
11.97
8.79
6.55
6.35
9.68
17.78
30.85
47.69
65.74
81.85
93.1
97.62
95.13
86.98
76.01
66.01
60.93
63.99
76.85
99.04
127.96
159.4
188.58
211.28
225.1
229.83
227.29
220.32
211.46
201.79
190.65
176.31
157.4
134.28
109.46
86.9
70.23
61.06
58.18
58.03
56.31
49.7
36.95
18.9
-2.29
-24.32
-45.43
-64.49
-80.74
-93.39
-101.71
-105.28
-104.55
-100.9
-96.44
-93.34
-93.08
-96.08
-101.72
-108.86
-116.33
-123.41
-129.69
-134.86
-138.28
-138.81
-135.23
-126.73
-113.42
-96.4
-77.45
-58.34
-40.49
-24.83
-12.01
-2.82
1.73
0.47
-7.37
-21.69
-41.11
-63.06
-84.2
-100.94
-110.29
-110.25
-100.37
-81.79
-57.1
-29.75
-3.41
18.85
35.01
44.16
46.09
40.79
28.23
8.48
-17.66
-48.26
-80.27
-110.1
-134.94
-153.59
-166.79
-176.65
-185.34
-194.03
-202.39
-209.11
-212.82
-213.26
-211.55
-209.93
-210.93
-216.34
-226.52
-240.25
-255.03
-267.53
-274.41
-272.83
-261.15
-239.34
-208.95
-172.73
-133.92
-95.6
-60.12
-29.06
-3.15
17.37
32.76
43.55
50.62
55.06
57.96
60.19
62.2
64.07
65.62
66.71
67.31
67.61
67.82
68.04
68.07
67.49
65.88
62.96
58.7
53.24
46.67
38.88
29.55
18.35
5.32
-8.81
-22.48
-33.5
-39.66
-39.35
-32.1
-18.82
-1.45
17.64
36.25
52.81
66.48
76.91
84.06
88.09
89.39
88.7
87.0
85.33
84.59
85.3
87.6
91.42
96.48
102.38
108.53
113.97
117.53
118.17
115.33
109.13
100.43
90.31
79.67
68.84
57.5
45.1
31.37
16.78
2.74
-8.62
-15.06
-14.84
-7.26
7.11
26.7
49.23
72.36
94.1
113.05
128.45
140.12
148.28
153.34
155.79
155.99
154.1
150.11
144.06
136.21
127.23
118.11
109.73
102.56
96.41
90.53
84.03
76.3
67.22
57.06
46.11
34.35
21.24
5.98
-12.07
-33.09
-56.56
-81.44
-106.42
-130.02
-150.54
-166.1
-174.73
-174.97
-166.41
-150.23
-129.05
-106.29
-85.14
-67.73
-54.81
-46.01
-40.51
-37.58
-36.81
-38.06
-41.18
-45.79
-51.33
-57.1
-62.49
-67.03
-70.45
-72.66
-73.61
-73.21
-71.14
-67.01
-60.52
-51.8
-41.68
-31.56
-23.14
-17.81
-16.14
-17.84
-22.04
-27.85
-34.77
-42.75
-51.67
-60.75
-68.3
-71.9
-69.31
-59.55
-43.36
-23.17
-2.22
16.62
31.68
42.67
50.35
55.75
59.45
61.41
61.12
58.06
52.23
44.3
35.63
27.81
22.12
19.09
18.26
18.41
18.04
16.05
12.05
6.37
-0.33
-7.52
-15.02
-23.02
-31.85
-41.74
-52.76
-64.98
-78.44
-92.93
-107.6
-120.66
-129.61
-131.93
-126.09
-112.23
-92.26
-69.17
-45.97
-24.84
-6.75
8.15
20.02
28.84
34.36
36.37
35.07
31.31
26.45
22.0
19.15
18.39
19.35
21.11
22.61
23.18
22.76
21.84
21.07
20.78
20.67
19.78
16.88
10.94
1.49
-11.11
-25.71
-40.46
-53.14
-61.47
-63.68
-58.97
-47.82
-31.88
-13.5
4.97
21.77
35.94
47.22
55.61
61.11
63.66
63.31
60.56
56.24
51.48
47.22
44.02
41.89
40.46
39.26
38.0
36.64
35.26
33.95
32.61
30.87
28.15
23.86
17.38
8.28
-3.58
-17.82
-33.33
-48.19
-59.96
-66.2
-65.17
-56.48
-41.26
-21.86
-1.13
18.44
35.18
48.47
58.32
65.05
68.88
69.87
68.13
64.03
58.36
52.2
46.54
41.99
38.53
35.67
32.73
29.27
25.22
20.97
16.98
13.45
10.14
6.36
1.27
-5.92
-15.64
-27.86
-41.91
-56.45
-69.55
-78.92
-82.44
-78.71
-67.52
-49.98
-28.34
-5.29
16.67
35.78
51.2
62.78
70.7
75.24
76.65
75.24
71.52
66.33
60.63
55.34
51.03
47.84
45.42
43.27
40.87
37.9
34.3
30.18
25.68
20.8
15.35
9.0
1.24
-8.42
-20.33
-34.37
-49.77
-64.95
-77.67
-85.52
-86.53
-79.77
-65.72
-46.15
-23.6
-0.74
20.28
38.08
52.07
62.27
68.99
72.6
73.5
72.09
68.93
64.7
60.29
56.43
53.52
51.5
49.88
48.07
45.68
42.77
39.75
37.2
35.47
34.61
34.38
34.49
34.63
34.41
33.3
30.42
24.86
16.03
4.23
-9.13
-21.7
-30.86
-34.57
-31.88
-23.19
-9.92
5.93
22.36
37.67
50.55
60.18
66.07
68.15
66.78
62.76
57.26
51.62
47.09
44.55
44.39
46.46
50.19
54.78
59.32
62.78
63.9
61.45
54.4
42.42
26.26
7.62
-11.27
-28.39
-42.59
-53.91
-63.33
-72.43
-82.72
-95.13
-109.58
-124.81
-138.5
-147.63
-149.44
-142.19
-125.94
-102.46
-74.79
-46.21
-19.41
4.1
23.95
40.47
54.2
65.39
73.9
79.22
80.82
78.4
72.24
63.23
52.73
42.21
32.88
25.39
19.73
15.27
11.15
6.48
0.68
-6.4
-14.55
-23.34
-32.41
-41.55
-50.8
-60.17
-69.66
-79.15
-88.55
-97.97
-107.6
-117.34
-126.36
-132.86
-134.36
-128.47
-113.92
-91.23
-62.83
-32.39
-3.7
20.28
38.08
49.71
56.25
59.24
60.08
59.74
58.58
56.65
53.89
50.47
46.93
44.07
42.58
42.75
44.27
46.28
47.69
47.47
45.02
40.26
33.63
25.85
17.67
9.71
2.23
-4.84
-11.97
-19.86
-29.34
-40.95
-54.55
-69.03
-82.24
-91.43
-94.02
-88.53
-75.15
-55.88
-33.67
-11.57
8.16
24.45
37.18
46.67
53.2
56.72
57.0
54.07
48.49
41.45
34.5
29.07
25.98
25.15
25.73
26.46
26.33
24.88
22.33
19.33
16.4
13.67
10.78
7.12
2.15
-4.31
-12.09
-20.91
-30.64
-41.44
-53.45
-66.28
-78.69
-88.53
-93.28
-90.91
-80.67
-63.45
-41.6
-18.19
3.86
22.37
36.22
45.27
50.02
51.3
49.96
46.7
42.12
36.71
31.06
25.84
21.69
19.07
17.99
18.05
18.52
18.69
18.08
16.51
14.05
10.71
6.46
1.15
-5.4
-13.25
-22.47
-33.08
-45.07
-58.17
-71.52
-83.41
-91.5
-93.34
-87.33
-73.35
-53.2
-29.93
-6.97
12.94
28.41
39.4
46.67
51.06
52.99
52.5
49.53
44.4
37.96
31.47
26.08
22.45
20.44
19.33
18.23
16.49
13.88
10.61
7.06
3.5
-0.14
-4.27
-9.47
-16.3
-25.17
-36.17
-49.07
-63.05
-76.85
-88.62
-96.32
-98.1
-92.83
-80.45
-62.19
-40.22
-17.27
4.12
22.14
35.99
45.72
51.94
55.27
56.1
54.53
50.67
44.99
38.51
32.5
28.13
25.88
25.42
25.75
25.67
24.35
21.66
17.99
13.97
9.96
5.89
1.25
-4.7
-12.54
-22.66
-34.99
-48.99
-63.65
-77.42
-88.4
-94.49
-94.0
-86.05
-71.1
-50.82
-27.85
-5.0
15.37
31.85
44.06
52.39
57.51
60.03
60.35
58.72
55.47
51.17
46.55
42.42
39.3
37.36
36.28
35.49
34.42
32.67
30.18
27.03
23.32
18.94
13.63
7.11
-0.69
-9.49
-18.9
-28.66
-38.99
-50.37
-62.99
-76.08
-87.55
-94.35
-93.56
-83.66
-65.28
-41.25
-15.52
8.16
27.32
41.22
50.5
56.4
59.99
61.87
62.05
60.45
57.18
52.71
47.89
43.65
40.69
39.25
39.05
39.46
39.73
39.21
37.52
34.53
30.28
24.92
18.65
11.69
4.22
-3.69
-12.2
-21.74
-32.88
-45.89
-60.32
-74.66
-86.39
-92.64
-91.07
-80.85
-63.11
-40.72
-17.25
4.16
21.72
35.09
44.89
51.86
56.31
57.99
56.59
52.3
46.03
39.37
33.89
30.59
29.62
30.3
31.62
32.57
32.57
31.34
28.94
25.55
21.3
16.29
10.56
4.09
-3.19
-11.34
-20.5
-30.88
-42.68
-55.86
-69.85
-83.25
-93.97
-99.61
-98.22
-89.06
-72.94
-51.96
-28.95
-6.57
13.2
29.29
41.34
49.4
53.65
