28.89
27.67
27.11
27.14
27.58
28.24
28.76
28.76
27.86
25.77
22.39
17.8
12.18
5.8
-1.02
-7.99
-14.89
-21.72
-28.71
-36.28
-44.87
-54.46
-64.38
-73.14
-78.79
-79.5
-74.23
-63.18
-47.84
-30.56
-13.82
0.37
10.96
17.91
21.82
23.49
23.51
22.19
19.66
16.14
12.14
8.4
5.65
4.31
4.36
5.43
6.97
8.53
9.77
10.45
10.32
9.05
6.36
2.16
-3.33
-9.61
-16.06
-22.2
-27.93
-33.7
-40.19
-48.0
-57.09
-66.39
-73.97
-77.54
-75.27
-66.54
-52.23
-34.35
-15.43
2.23
17.15
28.65
36.7
41.6
43.71
43.43
41.17
37.43
32.82
27.99
23.58
20.12
17.93
17.08
17.42
18.5
19.68
20.24
19.5
17.07
13.0
7.71
1.87
-3.85
-9.16
-14.27
-19.9
-27.02
-36.37
-48.01
-61.06
-73.74
-83.76
-89.04
-88.21
-81.05
-68.4
-51.84
-33.26
-14.42
3.23
18.53
30.65
39.1
43.66
44.49
42.14
37.48
31.63
25.72
20.68
17.11
15.16
14.61
15.02
15.82
16.48
16.59
15.85
14.07
11.18
7.26
2.45
-3.14
-9.46
-16.68
-25.03
-34.66
-45.56
-57.32
-69.08
-79.53
-87.09
-90.24
-87.85
-79.53
-65.71
-47.65
-27.14
-6.22
13.2
29.58
41.89
49.7
53.13
52.85
49.87
45.32
40.17
35.17
30.78
27.24
24.68
23.13
22.52
22.63
23.07
23.25
22.62
20.85
17.86
13.79
8.88
3.21
-3.34
-10.98
-19.96
-30.35
-41.98
-54.38
-66.74
-77.88
-86.38
-90.69
-89.49
-82.06
-68.61
-50.32
-29.13
-7.32
13.08
30.63
44.7
55.38
63.26
69.13
73.76
77.83
81.92
86.43
91.43
96.56
100.89
103.18
102.2
97.22
88.27
76.22
62.37
48.01
34.11
21.12
9.14
-1.84
-11.89
-21.15
-29.94
-38.85
-48.69
-60.13
-73.31
-87.27
-99.94
-108.4
-109.76
-102.14
-85.45
-61.69
-34.32
-7.32
16.11
34.22
46.9
55.07
59.92
62.35
62.7
61.07
57.68
53.19
48.64
45.21
43.81
44.72
47.53
51.35
55.05
57.6
58.29
56.83
53.26
47.94
41.23
33.5
25.04
15.97
6.31
-4.07
-15.41
-28.07
-42.29
-58.08
-74.78
-90.97
-104.5
-112.94
-114.29
-107.62
-93.42
-73.38
-49.96
-25.69
-2.78
17.12
32.92
43.98
50.17
51.86
49.94
45.75
40.66
35.83
31.98
29.42
28.14
28.03
28.94
30.63
32.72
34.67
35.79
35.49
33.47
29.72
24.55
18.33
11.39
3.86
-4.26
-13.02
-22.52
-32.8
-43.79
-55.08
-65.75
-74.31
-78.92
-77.83
-69.98
-55.44
-35.53
-12.51
10.91
32.18
49.38
61.5
68.45
70.97
70.23
67.49
63.79
59.78
55.77
51.93
48.48
45.71
43.96
43.4
43.88
44.83
45.42
44.69
41.88
36.57
28.72
18.69
7.09
-5.31
-17.79
-29.68
-40.62
-50.63
-60.02
-69.12
-77.76
-84.95
-88.89
-87.52
-79.35
-64.22
-43.53
-19.88
3.81
25.2
43.14
57.65
69.49
79.44
87.74
93.91
96.93
95.76
89.94
79.97
67.44
54.52
43.29
35.05
29.97
27.16
25.13
22.49
18.34
12.47
5.21
-2.97
-11.75
-21.04
-30.95
-41.54
-52.73
-64.32
-76.13
-88.19
-100.72
-113.8
-126.89
-138.48
-146.12
-147.05
-139.11
-121.64
-95.88
-64.73
-31.92
-1.11
24.9
44.59
57.66
64.65
66.7
65.17
61.43
56.71
52.0
47.93
44.89
42.92
41.85
41.41
41.38
41.68
42.39
43.51
44.78
45.5
44.67
41.36
35.16
26.42
16.2
5.82
-3.65
-11.83
-19.11
-26.46
-35.04
-45.69
-58.5
-72.56
-85.88
-95.9
-100.01
-96.44
-84.81
-66.33
-43.42
-19.09
3.87
23.38
38.31
48.44
54.24
56.56
56.42
54.7
52.01
48.71
44.89
40.73
36.56
32.89
30.33
29.32
29.92
31.6
33.48
34.45
33.6
30.48
25.21
18.4
10.87
3.28
-4.11
-11.41
-19.02
-27.41
-36.88
-47.57
-59.28
-71.42
-82.92
-92.18
-97.29
-96.49
-88.7
-74.01
-53.76
-30.32
-6.46
15.25
32.95
45.71
53.37
56.51
56.08
53.22
49.1
44.7
40.71
37.53
35.28
33.84
33.04
32.71
32.72
33.07
33.61
34.04
33.81
32.24
28.82
23.34
16.11
7.79
-0.83
-9.16
-16.99
-24.58
-32.5
-41.5
-52.18
-64.59
-77.97
-90.49
-99.67
-102.87
-98.34
-85.9
-67.16
-45.1
-23.1
-3.87
11.16
21.89
29.19
34.22
37.94
41.03
43.97
47.28
51.66
57.77
66.0
76.09
87.0
97.09
104.48
107.67
105.84
99.18
88.63
75.54
61.17
46.42
31.78
17.45
3.62
-9.4
-21.32
-32.06
-42.03
-52.14
-63.56
-77.07
-92.55
-108.63
-122.89
-132.52
-135.23
-130.01
-117.44
-99.49
-78.76
-57.76
-38.42
-21.83
-8.55
1.32
7.87
11.41
12.51
12.1
11.32
11.35
13.01
16.69
22.21
29.04
36.54
44.31
52.31
60.84
70.31
80.95
92.55
104.32
114.82
122.03
123.82
118.38
104.85
83.69
56.5
25.59
-6.68
-38.24
-67.21
-91.7
-109.66
-119.17
-119.08
-109.7
-93.07
-72.48
-51.52
-33.02
-18.47
-8.08
-1.22
3.0
5.28
5.94
5.12
3.0
-0.09
-3.54
-6.63
-8.67
-9.26
-8.4
-6.53
-4.39
-2.81
-2.48
-3.75
-6.58
-10.58
-15.23
-20.12
-25.14
-30.65
-37.46
-46.51
-58.39
-72.79
-88.2
-102.08
-111.56
-114.25
-109.2
-97.19
-80.32
-61.27
-42.35
-24.93
-9.44
4.26
16.3
26.58
34.78
40.7
44.44
46.54
47.8
48.92
50.29
51.86
53.36
54.35
54.52
53.78
52.25
50.18
47.8
45.09
41.8
37.43
31.41
23.3
12.83
-0.04
-15.21
-32.39
-50.88
-69.36
-85.77
-97.55
-102.39
-99.0
-87.79
-70.79
-51.06
-31.64
-14.7
-1.15
9.22
17.12
23.16
27.5
30.06
30.76
29.9
28.25
26.83
26.55
27.89
30.66
34.16
37.5
39.88
40.91
40.54
39.01
36.52
33.17
28.92
23.6
17.08
9.22
-0.14
-11.17
-23.9
-37.94
-52.02
-63.97
-71.12
-71.19
-63.16
-47.84
-27.63
-5.8
14.57
31.43
44.08
52.8
58.26
61.02
61.31
59.23
55.04
49.38
43.24
37.76
33.86
31.9
31.59
32.09
32.37
31.56
29.25
25.58
20.98
15.94
10.69
5.21
-0.85
-7.83
-16.03
-25.58
-36.5
-48.68
-61.71
-74.73
-86.22
-94.22
-96.78
-92.58
-81.49
-64.71
-44.45
-23.31
-3.62
13.09
26.17
35.81
42.66
47.61
51.37
54.35
56.63
58.09
58.58
58.2
57.32
56.47
56.18
56.79
58.26
60.21
62.05
63.12
62.82
60.72
56.52
50.05
41.31
30.44
17.7
3.5
-11.76
-27.66
-43.78
-59.51
-73.81
-85.16
-91.76
-92.05
-85.27
-71.91
-53.68
-33.04
-12.52
5.82
20.79
32.02
39.71
44.3
46.23
45.91
43.7
40.07
35.6
30.98
26.99
24.3
23.28
23.86
25.52
27.35
28.37
27.81
25.3
20.98
15.34
8.95
2.21
-4.78
-12.24
-20.5
-29.82
-40.23
-51.55
-63.24
-74.37
-83.61
-89.3
-89.83
-84.17
-72.23
-55.14
-34.93
-14.05
5.36
21.81
34.59
43.54
48.76
50.44
48.88
44.71
38.89
32.67
27.29
23.63
21.95
22.0
23.02
24.13
24.6
24.0
22.23
19.52
16.2
12.55
8.63
4.2
-1.16
-7.9
-16.31
-26.44
-38.04
-50.61
-63.25
-74.69
-83.3
-87.33
-85.39
-76.94
-62.59
-44.06
-23.84
-4.58
11.52
23.13
29.96
32.61
32.19
29.93
26.69
22.76
17.9
11.76
4.31
-3.76
-11.02
-15.75
-16.5
-12.8
-5.28
4.47
14.63
23.76
31.33
37.74
43.98
51.06
59.45
68.76
77.66
84.01
85.33
79.5
65.56
44.48
19.26
-5.63
-25.5
-36.94
-38.78
-32.24
-20.24
-6.1
7.42
18.64
26.81
31.77
33.55
32.45
29.21
25.04
21.35
19.33
19.48
21.41
24.1
26.25
26.84
25.32
21.68
16.29
9.73
2.5
-4.96
-12.33
-19.45
-26.24
-32.8
-39.43
-46.62
-54.97
-64.82
-75.79
-86.55
-94.83
-98.07
-94.33
-83.04
-65.26
-43.44
-20.55
0.72
18.53
32.16
41.64
47.51
50.44
51.05
49.82
47.12
43.23
38.46
33.25
28.23
24.09
21.38
20.33
20.69
21.86
22.95
23.04
21.46
17.96
12.75
6.46
-0.15
-6.49
-12.35
-18.1
-24.51
-32.5
-42.71
-55.08
-68.68
-81.7
-91.82
-96.79
-95.01
-86.02
-70.76
-51.21
-29.89
-9.14
9.27
24.36
35.79
43.57
47.87
48.99
47.48
44.26
40.55
37.47
35.74
35.48
36.16
36.98
37.31
36.91
36.0
34.97
33.96
32.74
30.67
27.08
21.58
14.22
5.44
-4.13
-13.95
-23.67
-33.2
-42.65
-52.27
-62.45
-73.55
-85.7
-98.53
-110.87
-120.81
-126.14
-124.99
-116.44
-100.81
-79.63
-55.16
-29.85
-5.76
15.71
33.98
49.13
61.82
72.93
83.36
93.75
104.32
114.72
124.08
131.14
134.5
133.01
126.12
114.22
98.57
81.05
63.59
47.62
33.84
22.3
12.57
4.22
-3.16
-9.86
-16.29
-22.94
-30.48
-39.44
-50.06
-62.25
-75.42
-88.48
-99.88
-107.78
-110.41
-106.55
-96.03
-79.89
-60.08
-39.02
-18.89
-1.28
12.94
23.47
30.27
33.45
33.34
30.61
26.29
21.6
17.67
15.24
14.39
14.69
15.47
16.15
16.5
16.63
16.75
16.89
16.74
15.73
13.23
8.88
2.73
-4.75
-12.83
-20.9
-28.71
-36.6
-45.23
-55.17
-66.31
-77.41
-86.16
-89.81
-86.19
-74.65
-56.49
-34.44
-11.81
8.62
25.29
37.79
46.54
52.1
54.84
54.9
52.43
47.85
41.97
35.8
30.28
26.04
23.26
21.78
21.19
20.99
20.73
20.04
18.57
15.97
11.98
6.49
-0.33
-7.98
-15.89
-23.63
-31.22
-39.26
-48.57
-59.69
-72.19
-84.34
-93.37
-96.4
-91.47
-78.42
-59.07
-36.63
-14.67
3.97
17.84
26.98
32.43
35.52
37.29
38.21
38.21
37.09
34.79
31.73
28.71
26.62
26.11
27.23
29.36
31.41
32.25
31.01
27.43
21.72
14.46
6.33
-2.12
-10.53
-18.81
-27.11
-35.82
-45.49
-56.5
-68.74
-81.2
-91.86
-98.14
-97.66
-89.2
-73.32
-52.33
-29.48
-7.88
10.42
24.78
35.68
43.94
50.11
54.14
55.63
54.3
50.46
45.16
39.84
35.86
33.98
34.09
35.4
36.77
37.21
36.26
33.96
30.75
27.01
22.92
18.32
12.93
6.54
-0.89
-9.31
-18.8
-29.61
-42.02
-55.8
-69.86
-82.06
-89.7
-90.34
-82.91
-68.11
-48.26
-26.42
-5.39
13.03
28.12
39.95
48.75
54.58
57.36
57.08
54.18
49.64
44.76
40.78
38.49
37.98
38.74
39.85
40.5
40.1
38.5
35.87
32.43
28.39
23.84
18.74
13.03
6.57
-0.8
-9.26
-19.02
-30.22
-42.79
-56.18
-69.28
-80.32
-87.25
-88.19
-82.09
-69.13
-50.75
-29.28
-7.3
12.97
30.03
43.13
52.08
57.05
58.54
57.22
53.99
49.77
45.34
41.24
37.72
34.82
32.52
30.78
29.62
28.98
28.67
28.27
27.21
24.88
20.93
15.32
8.42
0.84
-6.88
-14.54
-22.49
-31.47
-42.16
-54.63
-67.92
-79.97
-88.22
-90.28
-84.81
-72.04
-53.63
-32.25
-10.78
8.42
23.9
35.19
42.63
46.86
48.59
48.31
46.32
42.94
38.59
33.95
29.8
26.81
25.32
25.2
25.95
26.83
27.15
26.37
24.22
20.66
15.86
10.15
3.89
-2.65
-9.43
-16.78
-25.23
-35.33
-47.22
-60.25
-72.79
-82.52
-86.97
-84.36
-74.24
-57.7
-37.07
-15.26
5.06
22.06
34.92
43.76
49.18
51.88
52.43
51.2
48.52
44.78
40.55
36.48
33.2
31.14
30.33
30.46
30.93
31.04
30.1
27.7
23.69
18.26
11.86
5.05
-1.78
-8.62
-15.9
-24.42
-34.96
-47.77
-62.14
-76.3
-87.62
-93.41
-91.79
-82.35
-66.3
-46.1
-24.58
-4.2
13.45
27.69
38.57
46.38
51.44
53.99
54.21
52.37
48.95
44.6
40.16
36.45
34.05
33.14
33.39
34.07
34.25
33.13
30.31
25.86
20.27
14.17
8.09
2.21
-3.6
-9.79
-16.94
-25.59
-36.01
-48.07
-61.0
-73.33
-83.09
-88.13
-86.78
-78.4
-63.63
-44.27
-22.78
-1.69
16.94
31.81
42.49
49.24
52.72
53.74
53.01
51.02
48.1
44.59
40.98
37.87
35.84
35.17
35.66
36.59
37.08
36.37
34.1
30.4
25.64
20.19
14.26
7.88
0.9
-6.79
-15.24
-24.52
-34.7
-45.91
-58.08
-70.59
-82.07
-90.52
-93.75
-90.13
-79.25
-62.13
-40.95
-18.47
2.73
20.87
35.08
45.27
51.84
55.3
56.17
54.94
52.18
48.57
44.88
41.81
39.83
39.08
39.34
40.17
41.13
41.91
42.33
42.16
41.03
38.35
33.61
26.65
17.9
8.29
-1.03
-9.23
-16.17
-22.52
-29.54
-38.53
-50.23
-64.24
-78.81
-91.16
-98.18
-97.47
-88.22
-71.54
-50.12
-27.36
-6.25
11.36
24.91
34.74
41.52
45.72
47.55
47.16
44.92
41.52
37.85
34.73
32.59
31.45
31.07
31.13
31.41
31.73
31.85
31.38
29.75
26.51
21.48
14.98
7.6
-0.01
-7.51
-14.93
-22.58
-30.94
-40.37
-51.01
-62.53
-74.06
-84.09
-90.65
-91.76
-86.09
-73.51
-55.36
-34.17
-12.82
6.19
21.36
32.36
39.62
43.9
45.78
45.58
43.41
39.48
34.29
28.67
23.65
20.18
18.7
19.12
20.68
22.36
23.14
22.45
20.23
16.86
12.83
8.4
3.53
-2.14
-8.97
-17.13
-26.62
-37.27
-48.85
-60.87
-72.45
-82.09
-87.77
-87.56
-80.24
-65.98
-46.49
-24.59
-3.34
14.78
28.39
37.3
42.04
43.49
42.4
39.32
34.7
29.05
23.03
17.3
12.42
8.67
6.0
4.1
2.5
0.66
-1.93
-5.73
-11.07
-18.11
-26.74
-36.5
-46.59
-55.93
-63.41
-68.23
-70.21
-69.83
-67.87
-64.87
-60.49
-53.45
-41.97
-24.69
-1.75
24.85
51.63
74.72
91.3
100.38
102.91
101.03
96.91
91.96
86.48
80.08
72.29
63.15
53.39
44.13
36.4
30.63
26.61
23.63
20.91
17.95
14.63
11.01
7.16
2.95
-1.9
-7.68
-14.45
-22.04
-30.17
-38.8
-48.21
-58.91
-71.04
-83.82
-95.3
-102.73
-103.48
-96.09
-80.92
-60.13
-36.95
-14.48
5.05
20.72
32.59
41.12
46.74
49.62
49.88
47.82
44.05
39.46
35.0
31.43
29.25
28.57
29.12
30.31
31.34
31.35
29.75
26.38
21.56
15.9
9.98
4.1
-1.83
-8.26
-15.79
-24.97
-36.17
-49.25
-63.31
-76.57
-86.56
-90.69
-87.17
-75.72
-57.79
-36.14
-13.89
6.37
23.2
36.22
45.79
52.29
55.91
56.64
54.57
50.2
44.54
38.87
34.36
31.72
30.93
31.3
31.87
31.69
30.27
27.59
24.06
20.17
16.28
12.45
8.39
3.6
-2.47
-10.21
-19.86
-31.36
-44.32
-57.88
-70.65
-80.76
-86.24
-85.53
-78.14
-64.78
-47.32
-28.15
-9.49
7.06
20.67
31.04
38.0
41.38
41.13
37.54
31.56
24.63
18.31
13.8
11.65
11.62
12.95
14.7
16.06
16.59
16.2
15.02
13.27
11.02
8.21
4.63
0.01
-5.92
-13.42
-22.74
-33.97
-46.83
-60.38
-72.8
-81.72
-84.82
-80.62
-69.13
-51.92
-31.55
-10.76
8.31
24.47
37.34
46.89
53.08
55.71
54.66
50.25
43.46
35.9
29.29
24.91
23.13
23.35
24.35
24.84
24.12
22.1
19.26
16.14
13.07
9.9
6.23
1.49
-4.87
-13.2
-23.75
-36.47
-50.76
-65.36
-78.19
-86.76
-88.84
-83.24
-70.33
-51.98
-30.97
-10.04
8.78
24.49
37.0
46.48
52.96
56.21
55.95
52.38
46.33
39.3
32.97
28.64
26.7
26.58
27.03
26.75
24.94
21.66
17.59
13.64
10.32
7.43
4.12
-0.74
-7.94
-17.73
-29.73
-43.18
-57.14
-70.54
-82.01
-89.9
-92.45
-88.36
-77.3
-60.3
-39.48
-17.51
3.21
21.07
35.31
45.86
52.88
56.64
57.39
55.51
51.56
46.34
40.83
35.93
32.35
30.31
29.57
29.5
29.32
28.45
26.57
23.79
20.27
16.1
11.23
5.4
-1.55
-9.64
-18.82
-29.02
-40.22
-52.25
-64.41
-75.22
-82.58
-84.18
-78.43
-65.15
-45.82
-23.19
-0.36
20.1
36.79
49.46
58.59
64.78
68.36
69.36
67.82
64.16
59.32
54.59
51.18
49.64
49.73
50.52
50.93
50.15
48.03
44.95
41.43
37.76
33.74
28.83
22.45
14.3
4.34
-7.32
-20.65
-35.77
-52.61
-70.47
-87.6
-101.37
-108.92
-108.17
-98.71
-82.02
-61.04
-39.17
-19.25
-2.92
9.42
18.12
23.85
27.04
27.88
26.59
23.66
19.9
16.35
13.87
12.85
13.07
13.84
14.39
14.28
13.5
12.3
10.95
9.4
7.26
3.94
-1.04
-7.99
-16.9
-27.52
-39.34
-51.48
-62.54
-70.73
-74.1
-71.11
-61.22
-45.17
-24.96
-3.35
16.92
33.69
45.92
53.59
57.41
58.34
57.15
54.37
50.33
45.36
40.01
34.98
30.97
28.36
27.08
26.51
25.8
24.2
21.35
17.34
12.63
7.71
2.77
-2.44
-8.61
-16.59
-26.95
-39.61
-53.53
-66.88
-77.3
-82.54
-81.07
-72.58
-58.01
-39.32
-18.94
0.86
18.35
32.53
43.01
49.81
53.1
53.26
50.77
46.39
41.06
35.8
31.35
28.13
26.09
24.89
24.02
23.02
21.58
19.51
16.74
13.22
8.99
4.05
-1.66
-8.43
-16.73
-26.98
-39.24
-52.77
-65.89
-76.29
-81.64
-80.32
-71.99
-57.7
-39.45
-19.6
-0.18
17.37
32.19
43.77
51.66
55.52
55.26
51.4
45.11
38.05
31.86
27.61
25.47
24.76
24.34
23.25
21.17
18.45
15.84
13.9
12.54
10.97
7.98
2.43
-6.25
-17.95
-31.82
-46.49
-60.21
-71.04
-77.17
-77.2
-70.6
-57.85
-40.49
