12.11
4.48
-3.49
-11.17
-17.82
-22.68
-25.2
-25.02
-22.16
-17.02
-10.28
-2.86
4.31
10.48
15.19
18.24
19.69
19.69
18.41
16.06
12.85
9.11
5.23
1.62
-1.41
-3.76
-5.5
-6.81
-7.88
-8.87
-9.88
-10.94
-12.09
-13.32
-14.63
-15.99
-17.43
-19.02
-20.89
-23.16
-25.75
-28.43
-30.86
-32.73
-34.05
-35.15
-36.55
-38.8
-42.25
-46.96
-52.76
-59.31
-66.1
-72.37
-77.11
-79.15
-77.42
-71.34
-61.03
-47.33
-31.56
-15.14
0.78
15.37
28.2
39.15
48.21
55.54
61.35
65.82
69.09
71.23
72.35
72.62
72.46
72.43
73.12
74.98
78.18
82.57
87.78
93.31
98.58
102.91
105.46
105.27
101.39
93.07
79.94
62.06
39.9
14.22
-14.05
-43.82
-73.81
-102.55
-128.49
-150.31
-167.12
-178.75
-185.8
-189.43
-191.02
-191.74
-192.19
-192.24
-191.15
-187.81
-181.23
-170.85
-156.74
-139.67
-120.89
-101.78
-83.54
-66.92
-52.23
-39.45
-28.42
-19.08
-11.46
-5.59
-1.4
1.43
3.44
5.27
7.44
10.24
13.65
17.44
21.29
24.86
27.84
29.98
31.1
31.13
30.13
28.3
25.9
23.17
20.28
17.24
14.03
10.55
6.76
2.65
-1.79
-6.54
-11.55
-16.74
-22.07
-27.55
-33.37
-39.85
-47.26
-55.53
-64.02
-71.51
-76.57
-78.01
-75.36
-69.04
-60.13
-49.9
-39.36
-29.0
-18.87
-8.77
1.41
11.59
21.45
30.57
38.51
45.0
49.99
53.66
56.45
58.91
61.62
65.09
69.59
75.18
81.72
88.86
96.16
103.11
109.23
114.04
117.15
118.24
117.17
113.99
109.03
102.89
96.38
90.32
85.29
81.55
78.87
76.7
74.3
70.94
66.13
59.76
52.23
44.43
37.57
32.86
31.23
33.05
38.03
45.37
53.92
62.46
69.8
75.04
77.6
77.36
74.69
70.3
65.04
59.56
54.2
48.99
43.85
38.78
33.95
29.66
26.1
23.32
21.2
19.52
18.07
16.69
15.12
13.05
10.15
6.21
1.29
-4.32
-10.19
-16.01
-21.73
-27.57
-33.81
-40.58
-47.77
-55.08
-62.23
-69.16
-76.1
-83.45
-91.57
-100.53
-110.0
-119.13
-126.71
-131.33
-131.77
-127.26
-117.76
-103.98
-87.26
-69.17
-51.24
-34.63
-20.06
-7.86
1.92
9.36
14.65
18.09
20.04
20.95
21.3
21.48
21.79
22.35
23.18
24.24
25.46
26.83
28.36
29.98
31.52
32.7
33.19
32.72
31.2
28.76
25.72
22.41
19.12
15.91
12.67
9.18
5.24
0.71
-4.38
-9.89
-15.55
-21.12
-26.49
-31.75
-37.26
-43.52
-50.9
-59.36
-68.28
-76.45
-82.35
-84.52
-82.02
-74.57
-62.62
-47.11
-29.29
-10.56
7.65
24.05
37.61
47.77
54.55
58.46
60.31
60.85
60.6
59.78
58.4
56.47
54.13
51.64
49.37
47.63
46.61
46.35
46.64
47.13
47.31
46.72
45.0
42.09
38.17
33.67
29.08
24.76
20.8
17.07
13.27
9.09
4.35
-0.96
-6.66
-12.49
-18.22
-23.69
-28.96
-34.22
-39.79
-46.01
-53.17
-61.24
-69.82
-78.01
-84.48
-87.78
-86.73
-80.74
-70.12
-55.96
-39.92
-23.71
-8.79
3.9
13.92
21.28
26.19
28.93
29.81
29.16
27.37
24.92
22.41
20.39
19.33
19.39
20.5
22.35
24.54
26.66
28.36
29.37
29.42
28.38
26.26
23.28
19.81
16.23
12.72
9.2
5.38
0.96
-4.22
-10.09
-16.35
-22.66
-28.76
-34.5
-39.95
-45.31
-50.93
-57.19
-64.38
-72.53
-81.14
-89.21
-95.25
-97.7
-95.32
-87.59
-74.86
-58.31
-39.66
-20.76
-3.22
11.84
23.89
32.9
39.15
43.11
45.23
45.91
45.52
44.43
43.01
41.61
40.51
39.88
39.77
40.14
40.89
41.94
43.17
44.43
45.59
46.43
46.71
46.18
44.62
41.95
38.27
33.88
29.23
24.72
20.58
16.75
12.88
8.56
3.44
-2.51
-9.07
-15.86
-22.48
-28.75
-34.76
-40.89
-47.62
-55.42
-64.44
-74.43
-84.56
-93.54
-99.71
-101.44
-97.54
-87.59
-72.26
-53.15
-32.44
-12.4
5.24
19.54
30.41
38.31
43.84
47.46
49.45
50.02
49.48
48.36
47.23
46.51
46.32
46.47
46.69
46.84
47.05
47.62
48.8
50.54
52.37
53.59
53.52
51.76
48.39
43.84
38.74
33.65
28.83
24.26
19.72
14.92
9.71
4.08
-1.87
-7.95
-14.02
-19.94
-25.63
-31.1
-36.51
-42.2
-48.62
-56.08
-64.54
-73.31
-81.07
-86.19
-87.13
-82.96
-73.7
-60.28
-44.31
-27.58
-11.63
2.47
14.24
23.59
30.64
35.58
38.6
39.93
39.89
38.84
37.17
35.18
33.11
31.16
29.53
28.48
28.24
28.94
30.42
32.24
33.79
34.47
33.93
32.13
29.34
25.91
22.12
18.09
13.76
9.05
3.92
-1.48
-6.9
-12.11
-17.06
-21.89
-26.96
-32.64
-39.21
-46.71
-54.88
-63.18
-70.79
-76.62
-79.51
-78.3
-72.29
-61.42
-46.51
-29.13
-11.19
5.48
19.55
30.36
37.82
42.19
43.9
43.5
41.58
38.83
35.89
33.25
31.15
29.61
28.46
27.59
26.98
26.73
26.98
27.71
28.74
29.7
30.1
29.58
27.92
25.19
21.64
17.64
13.52
9.5
5.61
1.73
-2.33
-6.72
-11.46
-16.42
-21.4
-26.27
-31.05
-35.99
-41.48
-47.91
-55.59
-64.47
-74.1
-83.51
-91.31
-95.84
-95.64
-89.84
-78.54
-62.89
-44.74
-26.14
-8.78
6.31
18.82
28.85
36.65
42.43
46.34
48.6
49.52
49.54
49.11
48.55
48.0
47.45
46.89
46.39
46.17
46.5
47.57
49.3
51.29
52.93
53.53
52.58
49.94
45.9
41.04
36.08
31.58
27.73
24.36
20.98
17.02
12.08
6.05
-0.82
-8.08
-15.28
-22.19
-28.86
-35.62
-42.92
-51.14
-60.32
-70.05
-79.36
-86.84
-90.93
-90.33
-84.37
-73.27
-58.09
-40.44
-22.14
-4.74
10.62
23.28
33.02
39.92
44.25
46.45
47.05
46.65
45.76
44.75
43.79
42.86
41.88
40.8
39.75
38.98
38.82
39.46
40.82
42.51
43.93
44.45
43.67
41.54
38.34
34.53
30.56
26.68
22.89
18.98
14.68
9.77
4.22
-1.8
-8.01
-14.05
-19.66
-24.77
-29.56
-34.49
-40.13
-46.98
-55.15
-64.17
-72.94
-79.92
-83.51
-82.5
-76.37
-65.45
-50.83
-34.13
-17.13
-1.43
11.84
22.14
29.5
34.31
37.08
38.25
38.08
36.76
34.47
31.54
28.42
25.54
23.26
21.75
21.0
20.89
21.24
21.86
22.55
23.1
23.26
22.87
21.76
19.91
17.4
14.37
11.0
7.44
3.79
0.03
-3.88
-7.96
-12.16
-16.43
-20.79
-25.45
-30.75
-37.07
-44.54
-52.77
-60.72
-66.88
-69.55
-67.47
-60.26
-48.54
-33.82
-18.0
-2.81
10.52
21.4
29.76
35.77
39.68
41.72
42.13
41.24
39.44
37.17
34.82
32.68
30.94
29.73
29.11
29.08
29.55
30.27
30.96
31.25
30.85
29.62
27.53
24.75
21.45
17.81
13.87
9.57
4.82
-0.42
-6.1
-12.06
-18.08
-23.97
-29.62
-35.07
-40.54
-46.41
-53.12
-61.01
-69.98
-79.36
-87.74
-93.31
-94.31
-89.62
-79.17
-64.03
-46.0
-27.17
-9.41
5.96
18.28
27.42
33.63
37.39
39.23
39.66
39.15
38.11
36.88
35.75
34.91
34.42
34.17
33.97
33.67
33.23
32.73
32.3
31.9
31.33
30.23
28.24
25.21
21.28
16.79
12.13
7.53
2.98
-1.7
-6.75
-12.24
-18.04
-23.83
-29.28
-34.27
-38.94
-43.72
-49.17
-55.77
-63.65
-72.48
-81.34
-88.87
-93.49
-93.81
-88.96
-78.93
-64.59
-47.47
-29.43
-12.19
2.99
15.41
24.95
31.78
36.26
38.78
39.72
39.44
38.33
36.8
35.23
33.88
32.92
32.42
32.39
32.81
33.61
34.64
35.65
36.28
36.16
34.97
32.54
28.89
24.16
18.58
12.37
5.73
-1.2
-8.23
-15.19
-21.97
-28.51
-34.9
-41.32
-47.95
-54.86
-62.01
-69.18
-76.02
-82.05
-86.61
-88.8
-87.63
-82.21
-72.19
-57.95
-40.68
-22.15
-4.16
11.81
24.95
35.01
42.22
46.98
49.71
50.82
50.69
49.72
48.31
46.87
45.71
45.08
45.1
45.77
46.95
48.41
49.8
50.81
51.18
50.7
49.3
46.98
43.81
39.86
35.21
29.89
23.98
17.59
10.89
4.17
-2.31
-8.36
-13.98
-19.4
-25.04
-31.38
-38.87
-47.72
-57.77
-68.32
-78.2
-85.84
-89.68
-88.57
-82.21
-71.27
-57.16
-41.65
-26.37
-12.42
-0.37
9.62
17.6
23.69
28.09
31.07
32.98
34.19
34.95
35.36
35.42
35.15
34.66
34.27
34.33
35.12
36.69
38.8
40.97
42.59
43.08
42.1
39.64
36.01
31.79
27.58
23.87
20.79
18.21
15.69
12.78
9.13
4.66
-0.49
-6.01
-11.55
-16.93
-22.16
-27.46
-33.24
-39.88
-47.58
-56.08
-64.57
-71.72
-75.94
-75.81
-70.57
-60.4
-46.42
-30.37
-14.09
0.94
13.91
24.58
33.14
39.82
44.8
48.16
49.98
50.46
49.96
48.98
47.99
47.36
47.26
47.68
48.5
49.54
50.6
51.47
51.91
51.7
50.69
48.87
46.39
43.51
40.4
36.93
32.59
26.6
18.22
7.14
-6.23
-20.77
-34.97
-47.42
-57.12
-63.7
-67.35
-68.65
-68.41
-67.51
-66.67
-66.28
-66.13
-65.35
-62.64
-56.69
-46.74
-32.89
-16.07
2.24
20.5
37.49
52.45
65.04
75.23
83.13
88.94
92.91
95.3
96.33
96.27
95.43
94.22
93.15
92.84
93.82
96.4
100.37
104.91
108.67
110.11
107.98
101.72
91.73
79.17
65.53
52.12
39.66
28.24
17.51
6.98
-3.68
-14.46
-25.14
-35.3
-44.54
-52.61
-59.44
-65.28
-70.56
-75.83
-81.55
-87.96
-94.94
-101.94
-108.05
-112.1
-112.94
-109.72
-102.19
-90.79
-76.68
-61.38
-46.45
-33.11
-22.05
-13.44
-7.13
-2.8
-0.13
1.18
1.44
1.05
0.41
-0.05
-0.06
0.5
1.62
3.2
5.13
7.34
9.7
12.0
13.97
15.27
15.63
14.9
13.09
10.4
7.12
3.58
0.02
-3.46
-6.95
-10.61
-14.65
-19.16
-24.04
-28.99
-33.67
-37.83
-41.45
-44.85
-48.47
-52.88
-58.46
-65.32
-73.13
-81.21
-88.59
-94.18
-97.05
-96.54
-92.46
-85.1
-75.1
-63.29
-50.5
-37.42
-24.5
-12.04
-0.25
10.6
20.11
27.8
33.22
36.08
36.48
34.85
31.91
28.47
25.11
22.12
19.41
16.7
13.69
10.18
6.15
1.75
-2.74
-6.97
-10.52
-12.99
-14.12
-13.9
-12.67
-10.99
-9.45
-8.47
-8.19
-8.51
-9.29
-10.57
-12.58
-15.76
-20.48
-26.81
-34.36
-42.2
-48.98
-53.19
-53.51
-49.21
-40.34
-27.78
-13.03
2.18
16.3
28.25
37.52
44.07
48.18
50.18
50.41
49.14
46.72
43.54
40.13
37.04
34.76
33.57
33.48
34.25
35.47
36.63
37.3
37.15
36.01
33.91
31.05
27.68
24.05
20.3
16.48
12.52
8.34
3.91
-0.81
-5.81
-11.04
-16.42
-21.8
-27.01
-31.98
-36.84
-41.96
-47.83
-54.82
-62.81
-70.99
-77.91
-81.83
-81.23
-75.34
-64.38
-49.57
-32.75
-15.83
-0.37
12.73
23.15
31.04
36.68
40.31
42.23
42.73
42.25
41.27
40.25
39.5
39.11
39.0
39.08
39.3
39.74
40.49
41.62
42.98
44.2
44.8
44.28
42.34
39.05
34.8
30.22
25.87
22.09
18.82
15.68
12.2
7.98
2.95
-2.72
-8.63
-14.41
-19.87
-25.07
-30.27
-35.83
-42.06
-49.1
-56.74
-64.39
-71.09
-75.57
-76.59
-73.26
-65.35
-53.44
-38.81
-23.11
-7.9
5.62
16.82
25.56
32.05
36.6
39.51
41.04
41.41
40.82
39.51
37.71
35.73
33.86
32.44
31.71
31.83
32.74
34.13
35.52
36.39
36.35
35.28
33.3
30.67
27.61
24.14
20.18
15.61
10.46
5.02
-0.3
-5.15
-9.41
-13.27
-17.13
-21.45
-26.57
-32.63
-39.5
-46.87
-54.19
-60.61
-65.08
-66.5
-63.97
-57.18
-46.57
-33.33
-19.06
-5.34
6.65
16.27
23.44
28.35
31.3
32.56
32.41
31.14
29.12
26.77
24.52
22.8
21.93
22.09
23.28
25.29
27.73
30.14
32.06
33.19
33.37
32.6
30.95
28.53
25.5
22.03
18.29
14.43
10.51
6.54
2.46
-1.8
-6.26
-10.95
-15.87
-21.02
-26.49
-32.42
-38.99
-46.31
-54.29
-62.43
-69.82
-75.16
-77.09
-74.62
-67.45
-56.18
-42.15
-27.06
-12.48
0.47
11.24
19.78
26.27
30.97
34.12
35.96
36.78
36.88
36.55
36.04
35.5
35.04
34.78
34.83
35.34
36.37
37.94
39.94
42.19
44.39
46.19
47.21
47.18
46.05
44.07
41.7
39.48
37.8
36.75
36.12
35.48
34.41
32.69
30.3
27.53
24.75
22.39
20.74
19.89
19.69
19.8
19.8
19.42
18.76
18.47
19.71
23.94
32.47
46.0
64.32
86.31
110.23
134.29
157.13
178.05
196.99
214.28
230.31
245.41
259.68
273.02
284.95
294.55
300.5
301.37
296.17
284.83
268.35
248.54
227.34
206.13
185.4
164.8
143.72
121.78
99.16
76.53
54.76
34.53
16.14
-0.42
-15.23
-28.41
-40.23
-51.25
-62.42
-74.77
-89.06
-105.25
-122.55
-139.66
-155.36
-168.87
-179.93
-188.49
-194.37
-197.14
-196.35
-191.96
-184.56
-175.3
-165.51
-156.26
-148.06
-140.92
-134.56
-128.65
-123.01
-117.68
-112.81
-108.58
-105.04
-102.11
-99.61
-97.31
-95.04
-92.67
-90.09
-87.08
-83.49
-79.27
-74.75
-70.59
-67.6
-66.41
-67.12
-69.27
-72.03
-74.54
-76.23
-76.9
-76.67
-75.8
-74.54
-73.13
-71.68
-70.35
-69.18
-68.25
-67.77
-68.11
-69.81
-73.44
-79.31
-87.02
-95.33
-102.2
-105.09
-101.65
-90.44
-71.5
-46.5
-18.42
9.28
33.63
52.76
66.2
74.45
78.45
79.15
77.31
73.63
68.83
63.52
58.02
52.06
45.02
36.31
25.95
14.71
3.8
-5.8
-13.96
-21.49
-29.7
-39.67
-51.73
-65.23
-78.98
-91.67
-102.18
-109.73
-113.78
-113.96
-110.16
-102.72
-92.52
-80.79
-68.86
-57.67
-47.65
-38.79
-30.8
-23.44
-16.59
-10.1
-3.69
3.16
11.04
20.31
30.83
41.94
52.64
62.03
69.6
75.3
79.43
82.34
84.27
85.26
85.31
84.37
82.53
79.92
76.77
73.26
69.61
65.94
62.38
59.01
55.87
53.0
50.33
47.71
44.92
41.74
37.91
33.31
27.93
21.87
15.4
8.89
2.77
-2.59
-7.12
-11.16
-15.51
-21.19
-29.13
-39.72
-52.68
-66.98
-81.23
-93.89
-103.63
-109.43
-110.8
-107.82
-101.18
-92.14
-82.25
-73.0
-65.36
-59.62
-55.48
-52.37
-49.89
-48.0
-46.97
-47.02
-48.11
-49.8
-51.44
-52.42
-52.41
-51.28
-49.02
-45.48
-40.43
-33.64
-25.16
-15.38
-5.01
5.22
14.79
23.53
31.53
38.94
45.73
51.7
56.59
60.32
63.02
64.95
66.18
66.29
64.43
59.62
51.37
40.04
26.92
13.89
2.82
-4.89
-8.54
-8.0
-3.58
4.09
14.08
25.11
35.79
44.97
52.02
56.99
60.39
62.75
64.28
64.75
63.68
60.62
55.41
48.22
39.52
29.94
20.17
10.96
2.96
-3.37
-8.05
-11.65
-15.07
-19.26
-24.73
-31.39
-38.58
-45.47
-51.4
-56.27
-60.4
-64.33
-68.46
-72.9
-77.51
-82.05
-86.34
-90.34
-94.01
-97.22
-99.76
-101.38
-101.98
-101.62
-100.45
-98.57
-95.89
-92.14
-87.05
-80.57
-73.08
-65.29
-58.07
-52.04
-47.36
-43.68
-40.36
-36.81
-32.71
-28.18
-23.61
-19.41
-15.82
-12.76
-9.85
-6.61
-2.66
2.15
7.63
13.26
18.33
22.12
24.18
24.45
23.25
21.18
18.93
17.03
15.84
15.48
15.92
16.94
18.24
19.5
20.42
20.76
20.37
19.13
16.91
13.56
9.09
3.69
-2.12
-7.55
-11.72
-13.92
-13.72
-11.12
-6.53
-0.66
5.66
11.6
16.54
20.22
22.77
24.64
26.43
28.5
30.93
33.45
35.67
37.31
38.38
39.07
39.61
40.04
40.19
39.81
38.79
37.25
35.56
34.06
32.89
31.87
30.61
28.78
26.32
23.49
20.69
18.2
16.04
13.9
11.4
8.25
4.4
0.04
-4.63
-9.49
-14.55
-19.88
-25.45
-31.04
-36.32
-40.97
-44.73
-47.49
-49.21
-49.82
-49.24
-47.47
-44.7
-41.32
-37.91
-35.04
-33.05
-31.9
-31.15
-30.14
-28.29
-25.39
-21.76
-18.02
-14.91
-12.85
-11.82
-11.41
-11.16
-10.73
-10.17
-9.81
-10.04
-11.04
-12.74
-14.77
-16.73
-18.24
-19.17
-19.58
-19.73
-19.91
-20.28
-20.73
-20.89
-20.32
-18.74
-16.28
-13.47
-11.07
-9.74
-9.75
-10.91
-12.65
-14.21
-14.85
-13.95
-11.12
-6.1
1.19
10.61
21.82
34.31
47.45
60.58
73.09
84.44
94.23
102.28
108.63
113.52
117.26
120.16
122.42
124.11
125.16
125.32
124.19
121.24
115.94
107.99
97.6
85.57
73.18
61.74
52.15
44.61
38.63
33.37
28.06
22.32
16.18
9.88
3.59
-2.66
-8.94
-15.27
-21.53
-27.53
-33.13
-38.38
-43.54
-48.81
-54.25
-59.59
-64.26
-67.57
-68.91
-67.89
-64.47
-58.97
-52.03
-44.5
-37.2
-30.83
-25.73
-22.04
-19.65
-18.4
-18.12
-18.63
-19.71
-21.02
-22.13
-22.64
-22.26
-20.95
-18.81
-16.05
-12.76
-8.91
-4.35
0.84
6.17
10.6
12.78
11.54
6.45
-1.93
-12.03
-21.79
-29.22
-32.88
-32.17
-27.25
-18.98
-8.67
2.17
12.1
19.97
25.2
27.7
27.85
26.26
23.69
20.91
18.71
17.86
19.0
22.39
27.8
34.51
41.54
47.9
52.94
56.49
58.76
60.21
61.2
61.81
61.84
60.87
58.52
54.72
49.76
44.23
38.87
34.18
30.42
27.46
25.02
22.81
20.66
18.55
16.5
14.47
12.31
9.76
6.54
2.52
-2.25
-7.49
-12.77
-17.67
-21.89
-25.31
-28.07
-30.35
-32.37
-34.2
-35.84
-37.28
-38.65
-40.25
-42.54
-45.89
-50.4
-55.75
-61.19
-65.81
-68.73
-69.46
-67.94
-64.45
-59.44
-53.33
-46.43
-39.04
-31.5
-24.19
-17.47
-11.45
-6.0
-0.72
4.84
10.95
17.56
24.33
30.78
36.48
41.28
45.21
48.48
51.29
53.67
55.46
56.36
56.06
54.39
51.38
47.2
42.15
36.54
30.78
25.35
20.75
17.37
15.37
14.49
14.16
13.64
12.28
9.57
5.33
-0.46
-7.67
-16.09
-25.34
-34.86
-43.86
-51.35
-56.33
-57.91
-55.69
-49.77
-40.92
-30.4
-19.7
-10.11
-2.41
3.2
7.13
10.08
12.72
15.48
18.45
21.42
24.15
26.44
28.33
30.02
31.78
33.74
35.79
37.66
38.88
39.14
38.34
36.69
34.62
32.56
30.8
29.38
28.12
26.77
25.12
23.01
20.3
16.83
12.33
6.61
-0.41
-8.58
-17.5
-26.72
-35.83
-44.61
-53.01
-60.99
-68.4
-74.85
-79.72
-82.37
-82.3
-79.32
-73.55
-65.34
-55.17
-43.55
-30.99
-18.07
-5.48
6.09
16.07
24.14
30.29
34.75
37.86
39.97
41.32
42.13
42.65
43.14
43.86
44.99
46.53
48.33
50.02
51.2
51.42
50.35
47.86
44.14
39.63
34.99
30.82
27.5
24.96
22.73
20.13
16.48
11.46
5.18
-1.89
-9.16
-16.13
-22.63
-28.72
-34.65
-40.65
-46.86
-53.25
-59.63
-65.55
-70.26
-72.7
-71.66
-66.2
-56.03
-41.9
-25.5
-9.07
5.29
16.2
23.33
27.24
28.91
29.3
29.0
28.25
27.06
25.45
23.61
21.78
20.27
19.32
19.14
19.94
21.89
25.05
29.2
33.78
37.91
40.59
41.06
39.02
34.83
29.35
23.62
18.46
14.17
10.51
6.9
2.79
-2.04
-7.42
-12.94
-18.27
-23.37
-28.56
-34.27
-40.82
-48.09
-55.56
-62.41
-67.82
-71.03
-71.36
-68.18
-60.96
-49.52
-34.35
-16.84
0.85
16.39
27.89
34.56
36.77
35.77
33.0
29.63
26.21
22.89
19.66
16.71
14.43
13.21
13.24
14.38
16.22
18.41
20.8
23.57
26.96
31.05
35.44
39.36
41.88
42.26
40.19
35.87
29.82
22.65
14.92
7.04
-0.76
-8.3
-15.52
-22.39
-28.94
-35.18
-41.17
-46.84
-52.0
-56.2
-58.86
-59.34
-57.16
-52.19
-44.7
-35.31
-24.86
-14.24
-4.23
4.53
11.66
17.0
20.65
22.92
24.17
24.76
24.93
24.76
24.27
23.44
22.28
20.82
19.19
17.61
16.47
16.19
17.19
19.68
23.5
28.09
32.57
36.0
37.55
36.75
33.62
28.55
22.22
15.4
8.71
2.51
-3.11
-8.24
-13.04
-17.58
-21.88
-25.91
-29.75
-33.57
-37.54
-41.79
-46.26
-50.73
-54.93
-58.6
-61.55
-63.56
-64.34
-63.4
-60.22
-54.44
-46.05
-35.57
-23.93
-12.18
-1.28
8.18
16.03
22.34
27.34
31.2
33.98
35.73
36.53
36.65
36.46
36.42
36.88
38.0
39.69
41.72
43.77
45.6
47.04
48.01
48.49
48.44
47.81
46.55
44.59
41.97
38.69
34.87
30.63
26.15
21.6
17.11
12.75
8.51
4.24
-0.26
-5.27
-11.13
-18.19
-26.69
-36.61
-47.53
-58.54
-68.34
-75.46
-78.61
-77.01
-70.61
-60.08
-46.65
-31.74
-16.69
-2.57
9.93
20.39
28.63
34.6
38.44
40.41
40.98
40.7
40.1
39.59
39.41
39.57
40.0
40.6
41.27
41.88
42.31
42.33
41.67
40.03
37.19
33.09
27.87
21.85
15.45
9.08
3.03
-2.59
-7.76
-12.57
-17.1
-21.39
-25.45
-29.28
-32.86
-36.18
-39.25
-42.12
-44.92
-47.86
-51.15
-54.91
-59.04
-63.12
-66.48
-68.31
-67.86
-64.59
-58.38
-49.52
-38.71
-26.94
-15.28
-4.66
4.25
11.19
16.19
19.52
21.56
22.64
23.03
22.9
22.38
21.56
20.54
19.46
18.5
17.83
17.64
17.97
18.71
19.6
20.26
20.33
19.55
17.84
15.3
12.15
8.65
5.04
1.53
-1.76
-4.78
-7.51
-9.96
-12.11
-13.95
-15.45
-16.65
-17.63
-18.61
-19.85
-21.6
-24.0
-26.95
-30.08
-32.78
-34.29
-33.85
-30.95
-25.42
-17.48
-7.7
3.18
14.38
25.21
35.11
43.74
50.95
56.77
61.38
65.0
67.85
70.11
71.9
73.37
74.66
75.94
77.36
79.09
81.2
83.67
86.35
88.95
91.13
92.58
93.12
92.76
91.73
90.31
88.83
87.47
86.37
85.56
85.02
84.71
84.5
84.23
83.63
82.46
80.45
77.38
73.1
67.6
61.07
53.94
46.82
40.35
35.11
31.43
29.34
28.67
29.13
30.32
31.8
33.02
33.31
32.03
28.67
23.0
15.19
5.71
-4.82
-15.88
-27.22
-38.95
-51.46
-65.24
-80.66
-97.76
-116.16
-135.06
-153.3
-169.52
-182.45
-191.21
-195.64
-196.4
-194.83
-192.5
-190.66
-189.75
-189.36
-188.45
-185.83
-180.62
-172.43
-161.27
-147.36
-130.97
-112.46
-92.34
-71.25
-49.92
-29.03
-9.16
9.23
25.78
40.1
51.84
60.66
66.36
68.87
68.3
64.99
59.47
52.51
45.01
37.91
31.93
27.29
23.63
20.04
15.38
8.65
-0.55
-11.87
-24.14
-35.82
-45.36
-51.61
-54.1
-52.93
-48.61
-41.78
-33.11
-23.23
-12.84
-2.85
5.68
11.63
14.1
12.68
7.65
-0.03
-8.95
-17.61
-24.83
-29.98
-32.95
-34.0
-33.57
-32.17
-30.29
-28.43
-27.12
-26.78
-27.53
-29.09
-30.75
-31.57
-30.57
-27.08
-20.81
-11.93
-0.94
11.38
24.14
36.44
47.46
56.61
63.54
68.16
70.56
70.91
69.4
66.22
61.6
55.87
49.41
42.62
35.83
29.26
22.96
16.95
11.14
5.4
-0.48
-6.76
-13.68
-21.29
-29.5
-37.95
-46.16
-53.55
-59.62
-64.0
-66.59
-67.63
-67.62
-67.2
-66.89
-66.92
-67.15
-67.29
-67.16
-66.9
-67.0
-68.09
-70.5
-73.94
-77.42
-79.48
-78.61
-73.77
-64.66
-51.74
-36.06
-18.91
-1.48
15.29
30.78
44.68
56.81
67.11
75.48
81.86
86.2
88.61
89.41
89.21
88.8
88.97
90.21
92.57
95.59
98.47
100.25
99.97
96.81
90.18
79.87
66.22
50.17
33.02
16.17
0.58
-13.5
-26.43
-38.94
-51.53
-64.22
-76.49
-87.46
-96.32
-102.56
-106.03
-106.76
-104.77
-100.1
-93.0
-84.16
-74.78
-66.24
-59.61
-55.04
-51.53
-47.29
-40.4
-29.54
-14.49
3.95
24.37
45.23
65.28
83.51
99.07
111.15
118.91
121.74
119.44
112.47
102.04
89.83
77.69
67.16
59.1
53.61
50.09
47.59
45.15
42.0
37.63
31.76
24.27
15.18
4.77
-6.54
-18.23
-29.91
-41.46
-53.11
-65.24
-78.13
-91.67
-105.29
-118.03
-128.96
-137.48
-143.53
-147.41
-149.47
-149.57
-147.0
-140.54
-128.97
-111.71
-89.15
-62.66
-34.22
-5.82
20.92
44.92
65.57
82.61
95.99
105.96
113.04
117.88
121.07
123.01
123.8
123.53
122.39
120.78
119.19
117.94
116.91
115.57
113.05
108.54
101.59
92.3
81.36
69.92
59.22
50.26
43.5
38.76
35.3
32.15
28.43
23.66
17.87
11.4
4.76
-1.68
-7.81
-13.78
-19.94
-26.64
-34.12
-42.37
-51.12
-59.87
-67.85
-74.15
-77.78
-77.81
-73.67
-65.34
-53.48
-39.31
-24.4
-10.25
2.03
11.82
19.09
24.16
27.5
29.53
30.53
30.64
29.94
28.58
26.84
25.06
23.54
22.48
21.91
21.75
21.86
22.12
22.37
22.5
22.39
21.95
21.1
19.86
18.25
16.29
13.92
11.05
7.59
3.54
-1.02
-5.88
-10.89
-15.93
-21.06
-26.47
-32.39
-39.04
-46.49
-54.53
-62.62
-69.88
-75.18
-77.38
-75.6
-69.54
-59.55
-46.59
-32.0
-17.16
-3.31
8.67
18.26
25.25
29.73
32.05
32.76
32.58
32.19
32.15
32.81
34.26
36.47
39.31
42.65
46.26
49.79
52.81
54.81
55.41
54.52
52.34
49.32
45.98
42.69
39.56
36.5
33.28
29.72
25.71
21.29
16.59
11.76
6.94
2.14
-2.72
-7.89
-13.68
-20.4
-28.18
-36.74
-45.39
-52.99
-58.27
-60.1
-57.92
-51.88
-42.81
-31.96
-20.61
-9.81
-0.23
7.84
14.28
19.08
22.33
24.23
25.18
25.72
26.43
27.71
29.69
32.22
34.94
37.47
39.58
41.29
42.77
44.24
45.84
47.49
48.85
49.45
48.81
46.58
42.68
37.3
30.87
23.94
17.11
10.91
5.68
1.54
-1.6
-4.01
-6.0
-7.87
-9.81
-11.95
-14.48
-17.74
-22.19
-28.32
-36.37
-46.1
-56.66
-66.6
-74.27
-78.23
-77.69
-72.77
-64.41
-54.09
-43.42
-33.82
-26.32
-21.43
-19.18
-19.19
-20.76
-23.08
-25.34
-26.95
-27.55
-27.05
-25.52
-23.14
-20.09
-16.54
-12.62
-8.4
-3.9
0.93
6.09
11.48
16.85
21.84
26.02
29.04
30.72
31.1
30.46
29.2
27.77
26.47
25.44
24.6
23.7
22.46
20.68
18.32
15.48
12.37
9.16
5.89
2.51
-1.09
-4.89
-8.63
-11.8
-13.77
-13.9
-11.75
-7.17
-0.4
8.01
17.21
26.14
33.71
38.99
41.42
40.95
38.04
33.45
28.0
22.37
16.91
11.78
6.97
2.45
-1.83
-5.87
-9.69
-13.3
-16.74
-20.07
-23.33
-26.56
-29.73
-32.72
-35.37
-37.48
-38.98
-39.99
-40.88
-42.17
-44.34
-47.64
-51.96
-56.91
-62.0
-66.88
-71.49
-76.03
-80.88
-86.31
-92.38
-98.85
-105.1
-110.21
-113.0
-112.24
-106.97
-96.83
-82.26
-64.36
-44.64
-24.6
-5.36
12.33
27.99
41.28
51.84
59.54
64.64
67.77
69.86
71.81
74.15
76.97
80.0
82.96
85.83
88.91
92.82
98.25
105.68
115.2
126.48
138.76
151.0
162.12
171.18
177.64
181.46
183.06
183.1
182.19
180.59
178.12
174.33
168.75
161.12
151.48
140.06
126.98
112.18
95.35
76.18
54.7
31.58
8.06
-14.2
-33.65
-49.22
-60.73
-68.92
-75.19
-81.21
-88.48
-97.95
-109.94
-124.24
-140.28
-157.32
-174.57
-191.28
-206.71
-220.2
-231.25
-239.46
-244.55
-246.3
-244.52
-239.05
-229.76
-216.64
-199.76
-179.33
-155.58
-128.84
-99.57
-68.43
-36.35
-4.48
25.97
53.86
78.27
98.6
114.52
125.9
132.82
135.44
134.03
128.88
120.29
108.56
94.16
77.72
60.15
42.6
26.28
12.3
1.37
-6.25
-10.85
-13.1
-13.88
-14.11
-14.56
-15.83
-18.29
-22.14
-27.37
-33.8
-40.98
-48.36
-55.36
-61.49
-66.54
-70.53
-73.6
-75.82
-77.14
-77.31
-75.99
-72.88
-67.77
-60.52
-51.08
-39.41
-25.61
-9.96
7.07
24.83
42.66
59.97
76.31
91.31
104.65
115.97
124.81
130.68
133.06
131.51
125.8
115.89
101.96
84.36
63.52
40.0
14.54
-11.94
-38.32
-63.34
-85.85
-104.89
-119.92
-130.78
-137.66
-140.92
-141.05
-138.55
-133.93
-127.68
-120.31
-112.25
-103.9
-95.55
-87.31
-79.11
-70.79
-62.14
-53.04
-43.45
-33.38
-22.88
-12.08
-1.25
9.16
18.54
26.29
32.05
35.82
37.95
39.02
39.59
40.06
40.58
41.08
41.37
41.22
40.41
38.81
36.44
33.42
30.0
26.38
22.66
18.72
14.29
9.06
2.95
-3.78
-10.35
-15.66
-18.39
-17.38
-11.91
-1.81
12.36
29.41
47.71
65.47
81.01
93.12
101.12
104.92
104.73
100.97
94.04
84.37
72.47
59.01
44.86
31.02
18.42
7.79
-0.43
-6.17
-9.63
-11.24
-11.48
-10.8
-9.6
-8.14
-6.62
-5.21
-4.01
-3.05
-2.26
-1.47
-0.5
0.73
2.19
3.68
4.91
5.57
5.39
4.13
1.61
-2.1
-6.62
-11.12
-14.36
-14.9
-11.43
-3.17
9.96
27.23
47.27
68.3
88.44
105.98
119.55
128.23
131.5
129.22
121.55
108.98
92.29
72.61
51.19
29.32
8.18
-11.27
-28.15
-41.65
-50.95
-55.44
-54.9
-49.61
-40.44
-28.58
-15.21
-1.31
12.5
25.9
38.82
51.29
63.41
75.16
86.36
96.54
104.96
110.83
113.49
112.76
108.97
102.81
95.0
86.05
76.04
64.68
51.44
35.85
17.72
-2.78
-25.0
-47.98
-70.47
-91.27
-109.42
-124.33
-135.89
-144.32
-150.16
-154.03
-156.5
-158.07
-159.02
-159.41
-159.09
-157.86
-155.62
-152.47
-148.69
-144.58
-140.21
-135.28
-129.09
-120.75
-109.44
-94.68
-76.41
-55.05
-31.36
-6.37
18.75
42.83
64.83
84.04
100.08
113.0
123.13
130.88
136.6
140.5
142.74
143.46
143.03
141.95
140.82
139.99
139.38
138.35
135.82
130.65
122.09
110.09
95.33
79.0
62.41
46.63
32.37
20.01
9.63
1.18
-5.61
-11.18
-16.16
-21.21
-26.86
-33.28
-40.27
-47.3
-53.7
-58.88
-62.46
-64.37
-64.71
-63.65
-61.28
-57.56
-52.33
-45.46
-37.01
-27.38
-17.33
-7.91
-0.17
5.15
7.76
7.9
6.13
3.09
-0.67
-4.92
-9.6
-14.79
-20.57
-26.91
-33.68
-40.65
-47.64
-54.54
-61.36
-68.18
-75.09
-82.05
-88.82
-95.02
-100.19
-103.95
-106.03
-106.32
-104.61
-100.61
-93.82
-83.82
-70.45
-54.05
-35.52
-16.05
3.18
21.37
38.23
53.83
68.38
81.88
94.05
104.33
112.16
117.18
119.33
118.91
116.44
112.61
108.08
103.53
99.45
96.11
93.51
91.4
89.33
86.82
83.49
79.08
73.5
66.81
59.15
50.76
42.02
33.4
25.41
18.4
12.47
7.3
2.22
-3.6
-10.86
-19.82
-30.14
-40.98
-51.31
-60.38
-67.94
-74.37
-80.48
-87.08
-94.69
-103.29
-112.29
-120.69
-127.35
-131.22
-131.64
-128.49
-122.19
-113.61
-103.68
-93.1
-82.07
-70.45
-58.01
-44.84
-31.52
-19.02
-8.29
0.11
6.28
10.88
14.76
18.58
22.6
26.69
30.53
33.84
36.48
38.44
39.77
40.43
40.41
39.69
38.36
36.53
34.26
31.51
28.09
23.79
18.42
11.94
4.44
-3.93
-12.91
-22.16
-31.23
-39.52
-46.35
-51.15
-53.49
-53.09
-49.73
-43.08
-32.73
-18.23
0.7
23.99
51.0
80.54
110.89
140.02
165.9
186.85
201.84
210.59
213.51
211.48
205.48
196.49
185.34
172.69
159.04
144.71
129.86
114.55
98.92
83.25
67.94
53.39
39.79
26.96
14.36
1.25
-13.0
-28.67
-45.5
-62.72
-79.19
-93.64
-104.97
-112.49
-116.02
-115.84
-112.47
-106.44
-98.2
-88.15
-76.79
-64.93
-53.62
-44.09
-37.45
-34.44
-35.31
-39.71
-46.72
-54.99
-62.86
-68.75
-71.45
-70.43
-66.0
-59.1
-50.97
-42.72
-35.01
-28.03
-21.72
-15.97
-10.82
-6.46
-3.05
-0.61
1.0
2.03
2.64
2.81
2.32
1.0
-1.19
-3.96
-6.84
-9.35
-11.2
-12.47
-13.49
-14.73
-16.61
-19.42
-23.15
-27.64
-32.53
-37.47
-42.1
-46.24
-49.82
-52.83
-55.29
-57.07
-58.01
-57.94
-56.88
-55.14
-53.31
-52.1
-52.13
-53.73
-56.76
-60.61
-64.3
-66.73
-66.9
-64.19
-58.49
-50.15
-39.91
-28.61
-17.11
-6.11
3.78
12.08
18.46
22.8
25.28
26.35
26.6
26.54
26.49
26.53
26.56
26.52
26.41
26.36
26.53
27.0
27.68
28.3
28.57
28.16
26.96
24.94
22.28
19.18
15.78
12.2
8.48
4.67
0.84
-2.87
-6.37
-9.62
-12.66
-15.61
-18.56
-21.56
-24.65
-27.92
-31.58
-35.93
-41.17
-47.19
-53.44
-58.88
-62.26
-62.47
-58.84
-51.42
-40.91
-28.45
-15.3
-2.58
8.84
18.42
25.88
31.17
34.42
35.97
36.26
35.74
34.82
33.82
32.85
32.01
31.36
31.0
31.06
31.63
32.75
34.38
36.34
38.36
40.19
41.53
42.14
41.89
40.77
38.93
36.65
34.24
31.89
29.58
27.01
23.76
19.38
13.63
6.51
-1.74
-10.85
-20.63
-31.05
-42.3
-54.63
-68.22
-83.1
-99.01
-115.44
-131.67
-146.9
-160.39
-171.52
-179.89
-185.28
-187.56
-186.61
-182.32
-174.48
-162.89
-147.35
-127.84
-104.61
-78.35
-50.07
-20.98
7.82
35.55
61.76
86.24
108.72
128.78
145.87
159.48
169.39
175.7
178.79
179.09
176.93
172.48
165.85
157.16
146.68
134.8
121.91
108.38
94.35
79.82
64.69
48.87
32.48
16.0
0.15
-14.23
-26.53
-36.67
-45.13
-52.74
-60.33
-68.21
-75.99
-82.58
-86.55
-86.55
-81.78
-72.18
-58.45
-41.87
-24.02
-6.5
9.3
22.33
32.01
38.18
41.1
41.35
39.74
37.19
34.63
32.9
32.73
34.68
39.08
46.04
55.32
66.47
78.77
91.43
103.64
114.59
123.5
129.63
132.36
131.24
126.26
117.82
106.74
94.0
80.55
67.01
53.62
40.3
26.83
13.09
-0.87
-14.91
-28.87
-42.83
-57.15
-72.28
-88.63
-106.18
-124.35
-142.06
-157.92
-170.66
-179.39
-183.85
-184.32
-181.36
-175.49
-167.0
-155.91
-142.13
-125.77
-107.26
-87.39
-67.05
-47.03
-27.84
-9.67
7.32
22.97
37.03
49.28
59.77
68.84
77.06
85.02
93.06
101.25
109.41
117.33
124.85
131.85
138.19
143.56
147.58
149.9
150.39
149.08
146.18
141.75
135.7
127.77
117.78
105.86
92.53
78.62
64.95
52.02
39.86
28.07
16.18
3.85
-8.94
-21.87
-34.53
-46.49
-57.4
-66.93
-74.66
-80.2
-83.22
-83.78
-82.34
-79.74
-76.89
-74.54
-73.02
-72.23
-71.68
-70.75
-68.72
-64.96
-59.06
-50.9
-40.71
-29.1
-16.89
-4.87
6.38
16.63
25.95
34.58
42.73
50.43
57.42
63.19
67.11
68.62
67.52
64.08
58.97
53.1
47.2
41.64
36.32
30.86
24.83
18.03
10.55
2.65
-5.41
-13.57
-21.97
-30.84
-40.33
-50.25
-60.09
-69.04
-76.27
-81.09
-83.16
-82.49
-79.34
-74.14
-67.36
-59.48
-51.04
-42.57
-34.68
-27.86
-22.41
-18.32
-15.35
-13.1
-11.2
-9.41
-7.67
-5.95
-4.25
-2.47
-0.46
1.88
4.56
7.43
10.27
12.84
15.01
16.72
17.95
18.69
18.86
18.36
17.15
15.31
13.02
10.52
8.01
5.55
3.14
0.71
-1.81
-4.45
-7.26
-10.3
-13.7
-17.59
-21.94
-26.6
-31.22
-35.26
-38.04
-38.92
-37.35
-33.13
-26.47
-17.97
-8.54
0.89
9.54
16.89
22.67
26.81
29.32
30.29
29.97
28.67
26.8
24.78
22.93
21.46
20.47
19.93
19.7
19.65
19.65
19.68
19.79
20.02
20.32
20.53
20.33
19.47
17.85
15.62
13.07
10.52
8.12
5.77
3.22
0.18
-3.46
-7.59
-11.85
-15.83
-19.21
-21.95
-24.27
-26.68
-29.65
-33.53
-38.37
-43.81
-49.18
-53.54
-55.91
-55.47
-51.78
-44.94
-35.56
-24.68
-13.34
-2.46
7.4
15.95
23.07
28.7
32.81
35.44
36.74
36.99
36.5
35.57
34.42
33.25
32.29
31.8
32.0
32.92
34.35
35.81
36.72
36.57
35.06
32.19
28.21
23.45
18.23
12.8
7.25
1.62
-4.08
-9.86
-15.8
-22.02
-28.72
-36.16
-44.53
-53.97
-64.44
-75.76
-87.52
-98.98
-109.13
-116.74
-120.61
-119.87
-114.24
-104.13
-90.56
-74.86
-58.42
-42.46
-27.86
-15.23
-4.87
3.23
9.31
13.77
17.04
19.5
21.36
22.7
23.57
23.98
24.07
24.05
24.27
25.05
26.63
29.03
31.96
34.91
37.25
38.45
38.24
36.69
34.12
31.01
27.77
24.61
21.53
18.36
14.83
10.77
6.15
1.07
-4.25
-9.59
-14.8
-19.83
-24.73
-29.68
-34.86
-40.4
-46.19
-51.79
-56.46
-59.21
-59.15
-55.72
-48.88
-39.17
-27.52
-15.01
-2.68
8.68
18.49
26.38
32.2
35.99
37.96
38.52
38.1
37.15
35.99
34.83
33.76
32.86
32.23
31.95
32.09
32.58
33.24
33.81
33.99
33.57
32.42
30.52
27.93
24.75
21.15
17.28
13.29
9.31
5.38
1.49
-2.4
-6.38
-10.54
-15.03
-20.06
-25.83
-32.48
-39.86
-47.45
-54.35
-59.37
-61.39
-59.63
-53.93
-44.8
-33.27
-20.61
-8.06
3.43
13.28
21.21
27.16
31.17
33.35
33.86
32.97
31.07
28.68
26.37
24.62
23.72
23.69
24.36
25.44
26.66
27.81
28.74
29.31
29.34
28.65
27.15
24.87
22.01
18.83
15.57
12.31
8.97
5.42
1.57
-2.53
-6.71
-10.79
-14.7
-18.55
-22.62
-27.27
-32.78
-39.23
-46.33
-53.45
-59.64
-63.82
-65.06
-62.71
-56.68
-47.35
-35.54
-22.33
-8.79
4.05
15.37
24.63
31.57
36.23
38.91
40.08
40.21
39.73
38.93
38.0
37.06
36.2
35.54
35.19
35.26
35.74
36.52
37.3
37.72
37.38
36.0
33.52
30.11
26.18
22.11
18.24
14.73
11.55
8.54
5.54
2.4
-1.0
-4.67
-8.6
-12.69
-16.82
-20.85
-24.75
-28.66
-32.87
-37.73
-43.43
-49.8
-56.16
-61.44
-64.38
-63.87
-59.28
-50.68
-38.84
-25.03
-10.77
2.52
13.77
22.48
28.65
32.67
35.05
36.25
36.55
36.08
34.98
33.42
31.66
29.99
28.68
27.89
27.66
27.96
28.65
29.51
30.25
30.54
30.17
29.01
27.11
24.57
21.47
17.83
13.69
9.12
4.29
-0.52
-5.07
-9.2
-12.95
-16.5
-20.16
-24.24
-29.03
-34.67
-41.03
-47.69
-53.87
-58.55
-60.7
-59.47
-54.53
-46.12
-35.08
-22.59
-10.0
1.54
11.17
18.5
23.5
26.45
27.8
28.04
27.62
26.85
25.93
24.99
24.1
23.39
22.96
22.89
23.18
23.7
24.29
24.74
24.88
24.58
23.71
22.16
19.86
16.81
13.14
9.06
4.78
0.4
-4.15
-9.05
-14.45
-20.36
-26.59
-32.82
-38.82
-44.49
-50.07
-55.93
-62.41
-69.55
-76.98
-83.86
-89.05
-91.31
-89.65
-83.49
-72.92
-58.74
-42.25
-25.08
-8.77
5.56
17.34
26.59
33.67
39.09
43.24
46.34
48.44
49.53
49.73
49.25
48.45
47.69
47.31
47.52
48.37
49.74
51.34
52.69
53.24
52.56
50.48
47.23
43.38
39.64
36.64
34.7
33.81
33.66
33.81
33.76
33.13
31.64
29.19
25.86
21.85
17.44
12.85
8.19
3.4
-1.65
-7.06
-12.81
-18.58
-23.68
-27.16
-27.91
-24.9
-17.57
-6.12
8.41
24.27
39.38
51.95
60.85
65.81
67.28
66.09
63.04
58.7
53.36
47.25
40.66
34.02
27.81
22.46
18.2
15.17
13.46
13.22
14.62
17.69
22.15
27.37
32.45
36.52
38.99
39.75
39.17
37.86
36.39
35.05
33.84
32.49
30.71
28.25
25.09
21.23
16.7
11.43
5.29
-1.74
-9.49
-17.43
-24.75
-30.54
-34.05
-34.96
-33.44
-30.14
-25.89
-21.5
-17.48
-14.07
-11.3
-9.14
-7.67
-7.0
-7.24
-8.35
-10.14
-12.36
-14.81
-17.54
-20.8
-25.0
-30.45
-37.21
-44.95
-52.96
-60.32
-66.08
-69.52
-70.31
-68.5
-64.45
-58.67
-51.66
-43.91
-35.94
-28.35
-21.83
-17.05
-14.46
-14.14
-15.79
-18.84
-22.65
-26.74
-30.87
-35.1
-39.65
-44.79
-50.79
-57.73
-65.42
-73.36
-80.74
-86.59
-90.02
-90.48
-87.91
-82.73
-75.75
-67.82
-59.61
-51.44
-43.24
-34.81
-25.98
-16.81
-7.58
1.27
9.42
16.83
23.71
30.43
37.26
44.18
50.85
56.69
61.16
63.95
65.04
64.69
63.25
60.97
57.91
53.93
48.84
42.58
35.31
27.4
19.29
11.46
4.28
-2.03
-7.31
-11.57
-14.86
-17.34
-19.23
-20.73
-21.97
-23.03
-24.01
-25.08
-26.5
-28.6
-31.66
-35.83
-41.0
-46.8
-52.51
-57.18
-59.68
-59.03
-54.63
-46.48
-35.28
-22.21
-8.62
4.28
15.68
25.14
32.53
37.85
41.15
42.55
42.35
40.96
38.94
36.81
34.96
33.58
32.75
32.41
32.58
33.24
34.33
35.66
36.88
37.57
37.35
36.09
33.89
31.1
28.13
25.33
22.84
20.66
18.59
16.42
13.9
10.8
6.93
2.2
-3.33
-9.41
-15.73
-22.05
-28.33
-34.84
-41.94
-49.76
-58.02
-65.82
-71.89
-75.01
-74.33
-69.75
-61.85
-51.67
-40.44
-29.27
-19.02
-10.31
-3.47
1.42
4.5
6.08
6.53
6.19
5.28
4.0
2.62
1.54
1.27
2.31
5.03
9.51
15.53
22.58
30.01
37.04
42.96
47.14
49.18
48.93
46.58
42.56
37.52
32.13
26.9
22.05
17.46
12.62
6.94
-0.07
-8.57
-18.29
-28.58
-38.7
-47.98
-56.02
-62.72
-68.3
-73.2
-77.87
-82.67
-87.6
-92.21
-95.58
-96.55
-94.0
-87.18
-76.01
-61.07
-43.55
-24.93
-6.8
9.52
23.15
33.76
41.55
47.04
50.9
53.69
55.84
57.62
59.15
60.44
61.47
62.15
62.44
62.45
62.43
62.74
63.63
65.11
66.77
67.97
67.98
66.33
63.0
58.33
52.89
47.26
41.75
36.49
31.36
26.18
20.83
15.3
9.74
4.34
-0.68
-5.25
-9.48
-13.7
-18.41
-24.09
-30.99
-38.99
-47.43
-55.22
-61.08
-63.81
-62.71
-57.77
-49.69
-39.69
-29.15
-19.29
-10.92
-4.43
0.21
3.21
4.87
5.49
5.39
4.9
4.39
4.21
4.58
5.59
7.17
9.21
11.58
14.23
17.19
20.41
23.63
26.42
28.2
28.53
27.24
24.57
21.0
17.08
13.2
9.49
5.83
2.0
-2.2
-6.86
-11.99
-17.58
-23.57
-29.92
-36.61
-43.7
-51.39
-60.08
-70.23
-82.25
-96.24
-111.79
-127.95
-143.35
-156.52
-166.23
-171.83
-173.4
-171.68
-167.8
-162.93
-157.92
-153.14
-148.54
-143.8
-138.53
-132.4
-125.07
-116.04
-104.65
-90.13
-71.9
-49.82
-24.37
3.37
32.06
60.45
87.65
113.28
137.17
159.06
178.35
194.07
205.21
211.2
212.23
209.18
203.31
195.71
186.95
177.08
165.95
153.47
139.81
125.36
110.45
95.23
79.58
63.36
46.58
29.59
12.95
-2.83
-17.55
-31.44
-44.86
-57.95
-70.11
-79.94
-85.57
-85.4
-78.86
-66.8
-51.28
-34.83
-19.69
-7.13
2.54
9.67
14.72
18.02
19.7
19.89
18.88
17.26
15.64
14.52
14.06
14.19
14.79
15.96
18.17
22.06
28.1
36.19
45.37
54.09
60.63
63.73
63.03
59.08
53.09
46.42
40.17
34.92
30.74
27.36
24.36
21.28
17.65
13.03
7.05
-0.5
-9.52
-19.45
-29.33
-37.89
-43.92
-46.67
-46.06
-42.78
-38.04
-33.16
-29.14
-26.34
-24.48
-22.87
-20.71
-17.45
-12.92
-7.47
-1.76
3.41
7.33
9.65
10.46
10.36
10.35
11.55
14.86
20.64
28.61
37.88
47.28
55.67
62.23
66.6
68.75
68.84
67.05
63.38
57.69
49.82
39.7
27.52
13.78
-0.81
-15.42
-29.31
-41.88
-52.79
-61.92
-69.44
-75.72
-81.16
-86.01
-90.06
-92.57
-92.38
-88.22
-79.26
-65.42
-47.55
-27.21
-6.33
13.26
30.23
43.85
54.08
61.26
65.92
68.49
69.23
68.25
65.62
61.52
56.29
50.39
44.36
38.7
33.81
30.02
27.54
26.49
26.69
27.72
28.85
29.27
28.36
25.86
22.0
17.4
12.73
8.5
4.91
1.82
-1.09
-4.19
-7.71
-11.8
-16.47
-21.62
-27.07
-32.61
-38.13
-43.72
-49.73
-56.65
-64.93
-74.55
-84.96
-94.95
-103.0
-107.77
-108.49
-105.22
-98.79
-90.44
-81.45
-72.74
-64.74
-57.35
-50.05
-42.04
-32.47
-20.62
-6.16
10.55
28.46
45.97
61.34
73.26
81.21
85.59
87.57
88.58
89.83
91.92
94.7
97.49
99.24
98.99
96.03
90.06
81.2
69.9
56.87
42.98
29.15
16.24
4.86
-4.79
-12.98
-20.42
-27.98
-36.44
-46.29
-57.6
-70.15
-83.5
-96.97
-109.63
-120.24
-127.42
-129.9
-126.89
-118.28
-104.62
-86.8
-65.77
-42.34
-17.28
8.38
33.16
55.28
73.06
85.47
92.6
95.56
96.06
95.82
95.94
96.71
97.71
98.14
97.32
94.78
90.41
84.31
76.73
68.08
58.85
49.65
41.0
33.26
26.43
20.29
14.43
8.5
2.36
-3.98
-10.33
-16.46
-22.19
-27.43
-32.19
-36.6
-40.96
-45.77
-51.68
-59.42
-69.41
-81.44
-94.36
-106.11
-114.17
-116.38
-111.81
-101.16
-86.55
-70.66
-55.67
-42.64
-31.38
-21.11
-11.2
-1.63
7.08
14.32
19.86
24.04
27.52
30.95
34.64
38.64
42.99
48.0
54.39
63.08
74.85
89.87
107.62
126.85
145.96
163.4
178.06
189.48
197.83
203.69
207.62
209.75
209.55
205.89
197.44
183.25
163.27
138.5
110.81
82.23
54.35
27.81
2.38
-22.69
-48.12
-74.12
-100.3
-125.68
-148.73
-167.38
-179.03
-180.88
-170.58
-147.21
-111.91
-68.04
-20.53
25.33
65.06
95.7
115.89
125.71
126.15
118.98
106.49
91.29
75.86
62.04
50.66
41.41
33.32
25.14
15.96
5.39
-6.47
-19.26
-32.58
-46.03
-59.25
-71.79
-83.14
-92.77
-100.31
-105.62
-108.74
-109.8
-108.82
-105.72
-100.39
-92.94
-83.85
-73.99
-64.53
-56.7
-51.45
-49.28
-50.08
-53.21
-57.59
-61.96
-65.05
-65.89
-63.86
-58.84
-51.19
-41.71
-31.46
-21.5
-12.7
-5.57
-0.19
3.58
6.0
7.31
7.7
7.36
6.53
5.49
4.49
3.67
3.11
2.83
2.87
3.26
3.94
4.71
5.24
5.17
4.25
2.44
-0.06
-2.94
-5.88
-8.63
-11.03
-13.06
-14.82
-16.51
-18.41
-20.76
-23.62
-26.8
-29.88
-32.43
-34.08
-34.77
-34.76
-34.57
-34.84
-36.05
-38.29
-41.14
-43.63
-44.57
-42.97
-38.27
-30.68
-20.97
-10.23
0.46
10.26
18.54
24.96
29.23
31.26
31.09
28.98
25.33
20.58
15.1
9.13
2.83
-3.7
-10.25
-16.45
-21.8
-25.8
-28.1
-28.73
-28.14
-27.08
-26.44
-26.91
-28.86
-32.26
-36.71
-41.69
-46.62
-51.11
-54.93
-58.11
-60.88
-63.58
-66.56
-70.01
-73.97
-78.23
-82.44
-86.2
-89.19
-91.22
-92.41
-93.13
-93.96
-95.56
-98.48
-102.83
-108.24
-113.88
-118.63
-121.51
-122.02
-120.26
-117.02
-113.38
-110.46
-109.12
-109.89
-112.89
-117.87
-124.05
-130.05
-133.92
-133.39
-126.28
-111.1
-87.39
-55.96
-18.69
21.87
62.94
102.0
137.08
166.91
190.99
209.5
223.1
232.66
239.03
242.8
244.3
243.59
240.67
235.5
228.14
218.72
207.49
194.81
181.13
166.99
152.94
139.26
125.83
112.08
97.22
80.58
62.0
42.03
21.81
2.8
-13.63
-26.37
-34.74
-38.46
-37.69
-33.0
-25.42
-16.29
-7.06
1.0
6.93
10.11
10.12
6.72
-0.13
-10.07
-22.23
-35.29
-47.78
-58.38
-66.19
-70.82
-72.27
-70.83
-66.9
-61.04
-53.92
-46.28
-38.75
-31.64
-24.89
-18.1
-10.81
-2.83
5.65
14.07
21.74
28.2
33.42
37.77
41.78
45.69
49.23
51.59
51.77
49.12
43.83
37.01
30.38
25.58
23.59
24.42
27.25
30.9
34.26
36.6
37.61
37.34
36.06
34.25
32.49
31.34
31.16
31.92
33.19
34.33
34.84
34.53
33.5
31.94
29.86
27.05
23.23
18.32
12.65
6.94
1.99
-1.6
-3.69
-4.67
-5.26
-6.16
-7.85
-10.45
-13.76
-17.5
-21.39
-25.34
-29.34
-33.43
-37.55
-41.58
-45.41
-48.99
-52.41
-55.77
-59.06
-61.94
-63.81
-64.02
-62.16
-58.45
-53.72
-49.22
-46.14
-45.11
-45.89
-47.52
-48.63
-48.05
-45.2
-40.18
-33.66
-26.48
-19.35
-12.72
-6.79
-1.69
2.51
5.78
8.21
10.04
11.6
13.15
14.77
16.28
17.46
18.18
18.68
19.57
21.6
25.39
31.12
38.41
46.33
53.66
59.13
61.7
60.77
56.38
49.15
40.19
30.84
22.3
15.29
9.88
5.56
1.4
-3.54
-9.92
-17.88
-26.99
-36.4
-45.1
-52.24
-57.46
-60.96
-63.37
-65.45
-67.67
-69.97
-71.71
-71.92
-69.68
-64.38
-55.95
-44.81
-31.79
-17.93
-4.41
7.68
17.43
24.32
28.3
29.79
29.49
28.17
26.4
24.48
22.51
20.49
18.49
16.69
15.29
14.4
13.95
13.72
13.38
12.67
11.49
9.89
8.0
5.93
3.65
1.0
-2.23
-6.28
-11.3
-17.38
-24.56
-32.84
-42.13
-52.31
-63.24
-74.7
-86.41
-97.88
-108.36
-116.87
-122.38
-124.0
-121.23
-114.01
-102.61
-87.57
-69.48
-48.99
-26.82
-3.84
18.88
40.06
58.31
72.36
81.28
84.77
83.27
77.9
70.24
62.07
55.11
50.72
49.68
52.08
57.23
63.8
70.19
74.99
77.43
77.38
75.31
71.8
67.26
61.81
55.42
48.18
40.41
32.65
25.36
18.68
12.36
5.83
-1.54
-10.15
-20.04
-31.01
-42.87
-55.65
-69.58
-84.93
-101.7
-119.47
-137.35
-154.29
-169.31
-181.63
-190.58
-195.43
-195.23
-188.89
-175.51
-154.81
-127.51
-95.4
-61.17
-27.72
2.42
27.68
47.71
63.14
75.19
85.06
93.6
101.18
107.76
113.24
117.53
120.73
123.1
125.04
127.12
130.0
134.31
140.38
148.06
156.61
164.89
171.69
176.13
178.02
177.93
177.19
177.52
180.56
187.35
197.84
210.75
223.67
233.64
237.8
234.16
222.03
202.13
176.21
146.4
114.63
82.19
49.81
18.0
-12.57
-40.87
-65.67
-85.93
-101.24
-111.91
-118.78
-122.79
-124.67
-124.86
-123.71
-121.68
-119.39
-117.45
-116.2
-115.44
-114.52
-112.55
-108.83
-103.12
-95.82
-87.82
-80.13
-73.45
-67.91
-62.96
-57.65
-51.02
-42.52
-32.29
-21.22
-10.63
-1.89
4.08
6.99
7.34
6.12
4.54
3.64
3.81
4.62
4.76
2.2
-5.25
-19.32
-40.54
-67.65
-97.63
-126.28
-149.29
-163.46
-167.45
-161.81
-148.29
-128.93
-105.36
-78.98
-51.43
-25.34
-4.28
8.02
9.19
-0.57
-18.07
-37.97
-54.49
-63.37
-62.96
-54.24
-39.86
-22.74
-5.09
11.85
27.37
40.63
50.34
54.95
53.39
45.78
33.7
19.8
6.81
-3.34
-10.15
-14.41
-17.56
-20.9
-24.93
-29.29
-33.08
-35.51
-36.34
-36.12
-35.92
-36.83
-39.44
-43.52
-48.05
-51.56
-52.68
-50.57
-45.15
-37.03
-27.21
-16.73
-6.37
3.43
12.47
20.67
27.95
34.2
39.33
43.27
46.06
47.81
48.67
48.89
48.7
48.39
48.17
48.25
48.74
49.68
51.02
52.66
54.39
55.93
56.96
57.21
56.52
54.93
52.62
49.87
46.95
44.01
41.05
37.94
34.47
30.51
25.98
20.94
15.57
10.02
4.43
-1.22
-7.12
-13.55
-20.77
-28.78
-37.2
-45.24
-51.83
-55.9
-56.7
-53.99
-48.07
-39.68
-29.77
-19.25
-8.9
0.75
9.3
16.55
22.41
26.9
30.19
32.54
34.32
35.87
37.46
39.29
41.41
43.85
46.61
49.69
53.05
56.53
59.79
62.43
64.0
64.33
63.55
62.21
61.06
60.79
61.7
63.67
66.05
68.05
69.01
68.74
67.57
66.32
65.99
67.4
70.88
76.16
82.41
88.57
93.72
97.41
99.95
102.49
106.9
115.38
129.75
150.45
175.82
201.9
223.38
235.34
235.0
222.82
202.08
177.45
152.98
130.88
111.18
92.71
74.14
54.79
34.72
14.44
-5.46
-24.45
-41.92
-57.04
-68.92
-76.92
-81.0
-81.87
-80.9
-79.66
-79.54
-81.32
-85.05
-90.17
-95.71
-100.69
-104.41
-106.64
-107.63
-107.93
-108.15
-108.71
-109.76
-111.2
-112.81
-114.37
-115.79
-116.99
-117.9
-118.3
-117.81
-115.99
-112.42
-106.86
-99.4
-90.4
-80.47
-70.31
-60.56
-51.75
-44.23
-38.19
-33.69
-30.7
-29.05
-28.5
-28.69
-29.22
-29.72
-29.91
-29.61
-28.84
-27.75
-26.6
-25.67
-25.13
-25.01
-25.2
-25.56
-25.98
-26.53
-27.44
-29.0
-31.45
-34.9
-39.22
-44.17
-49.4
-54.67
-59.77
-64.68
-69.53
-74.54
-79.91
-85.73
-91.88
-97.95
-103.32
-107.33
-109.44
-109.43
-107.54
-104.35
-100.64
-97.01
-93.58
-89.99
-85.52
-79.46
-71.46
-61.79
-51.23
-40.92
-31.95
-25.05
-20.4
-17.64
-16.08
-15.02
-13.89
-12.45
-10.52
-7.83
-3.87
1.98
10.04
19.96
30.7
40.83
49.03
54.39
56.38
54.59
48.55
37.96
23.26
5.85
-12.03
-28.24
-41.71
-52.9
-63.17
-73.54
-83.24
-89.45
-88.12
-75.6
-49.95
-11.37
38.35
96.65
160.54
226.29
288.91
342.14
379.38
395.5
388.52
360.61
317.47
266.8
216.19
171.42
135.73
109.93
93.05
83.31
78.76
77.72
78.87
81.25
84.1
86.8
89.06
90.82
92.22
93.37
94.04
93.5
90.63
84.25
73.57
58.62
40.25
19.9
-0.87
-20.86
-39.48
-56.72
-72.79
-87.73
-101.24
-112.59
-120.91
-125.52
-126.27
-123.64
-118.64
-112.49
-106.29
-100.77
-96.23
-92.61
-89.53
-86.45
-82.71
-77.7
-70.93
-62.27
-51.93
-40.46
-28.63
-17.24
-7.14
0.87
6.07
7.9
6.08
0.64
-8.13
-19.76
-33.51
-48.2
-62.11
-73.21
-79.76
-81.05
-78.03
-73.05
-69.0
-68.04
-70.75
-76.09
-82.21
-87.44
-90.98
-92.83
-93.22
-92.02
-88.61
-82.26
-72.76
-60.83
-48.03
-36.22
-26.86
-20.59
-17.13
-15.5
-14.42
-12.73
-9.54
-4.44
2.53
10.88
19.83
28.48
35.95
41.64
45.27
46.95
46.97
45.7
43.38
40.09
35.81
30.56
24.5
17.98
11.45
5.31
-0.18
-4.98
-9.23
-13.14
-16.94
-20.83
-24.89
-29.08
-33.2
-36.93
-39.94
-41.97
-42.97
-43.12
-42.74
-42.13
-41.53
-41.05
-40.64
-40.23
-39.75
-39.14
-38.4
-37.59
-36.91
-36.63
-36.98
-38.04
-39.46
-40.44
-39.85
-36.47
-29.39
-18.31
-3.67
13.37
31.22
48.23
63.02
74.79
83.46
89.49
93.65
96.72
99.2
101.29
103.02
104.41
105.73
107.4
109.92
113.55
118.12
123.0
127.26
129.89
130.14
127.58
122.32
114.76
105.61
95.64
85.54
75.61
65.52
54.25
40.44
23.05
2.07
-21.08
-43.92
-63.72
-78.61
-88.19
-93.46
-96.06
-97.4
-98.19
-98.5
-98.34
-98.14
-98.84
-101.4
-106.11
-112.07
-117.31
-119.29
-115.86
-105.95
-89.89
-69.14
-45.99
-23.19
-3.88
8.71
11.84
4.21
-13.25
-37.19
-62.81
-85.41
-102.0
-112.05
-116.99
-119.03
-119.84
-120.03
-119.39
-117.51
-114.3
-109.97
-104.61
-97.96
-89.43
-78.53
-65.24
-50.14
-34.28
-18.82
-4.64
7.77
18.28
26.98
34.06
39.75
44.35
48.24
51.81
55.41
59.1
62.6
65.27
66.18
64.32
58.78
49.04
35.05
17.35
-3.0
-24.57
-45.75
-65.01
-81.13
-93.32
-101.16
-104.54
-103.4
-97.67
-87.21
-71.95
-52.1
-28.33
-1.85
25.73
52.65
77.42
99.11
117.48
132.89
146.03
157.54
167.88
177.28
185.79
193.37
199.69
204.03
205.12
201.26
190.88
173.21
148.77
119.41
87.82
56.77
28.42
4.09
-15.54
-30.01
-38.87
-41.81
-39.09
-32.01
-22.95
-14.8
-10.1
-10.12
-14.57
-21.84
-29.9
-37.13
-42.71
-46.53
-48.66
-48.83
-46.42
-40.82
-32.07
-21.13
-9.67
0.6
8.6
14.16
17.94
20.76
23.21
25.47
27.44
29.12
30.82
33.06
36.38
40.98
46.76
53.33
60.3
67.47
74.78
82.22
89.63
96.54
102.18
105.46
105.11
99.89
88.88
71.86
49.47
23.19
-4.96
-32.89
-58.88
-81.73
-100.78
-115.78
-126.69
-133.59
-136.69
-136.19
-132.42
-125.84
-117.09
-106.98
-96.34
-85.79
-75.44
-65.03
-54.15
-42.72
-31.28
-20.93
-12.79
-7.45
-4.66
-3.45
-2.64
-1.54
-0.19
0.79
0.66
-0.97
-3.94
-7.65
-11.42
-14.76
-17.56
-19.91
-21.91
-23.58
-24.78
-25.31
-25.11
-24.22
-22.82
-21.15
-19.48
-17.99
-16.8
-15.95
-15.4
-15.09
-15.04
-15.38
-16.31
-18.04
-20.57
-23.67
-26.88
-29.63
-31.55
-32.64
-33.33
-34.31
-36.27
-39.62
-44.26
-49.58
-54.64
-58.33
-59.64
-57.83
-52.52
-43.86
-32.48
-19.43
-6.04
6.42
16.98
25.11
30.84
34.54
36.77
38.03
38.72
38.99
38.91
38.48
37.74
36.81
35.9
35.25
35.09
35.58
36.67
38.12
39.53
40.41
40.34
39.16
36.92
33.93
30.55
27.03
23.49
19.84
15.95
11.71
7.13
2.3
-2.62
-7.57
-12.57
-17.75
-23.36
-29.63
-36.64
-44.27
-51.99
-58.95
-64.07
-66.28
-64.79
-59.33
-50.17
-38.12
-24.27
-9.85
3.98
16.3
26.45
34.14
39.41
42.62
44.31
45.0
45.1
44.82
44.26
43.45
42.47
41.49
40.73
40.41
40.62
41.32
42.31
43.24
43.72
43.45
42.28
40.31
37.74
34.78
31.51
27.85
23.66
18.8
13.3
7.24
0.77
-6.05
-13.18
-20.59
-28.18
-35.83
-43.44
-51.04
-58.79
-66.82
-75.06
-83.0
-89.73
-94.05
-94.77
-91.08
-82.7
-69.98
-53.93
-36.0
-17.82
-0.9
13.67
25.43
34.43
41.09
45.89
49.18
51.21
52.18
52.41
52.31
52.28
52.54
53.14
54.01
55.15
56.6
58.42
60.48
62.35
63.43
63.14
61.27
58.02
53.92
49.58
45.43
41.55
37.82
33.97
29.8
25.17
20.01
14.35
8.22
1.74
-4.91
-11.6
-18.29
-25.16
-32.51
-40.72
-49.88
-59.72
-69.38
-77.58
-82.84
-83.88
-79.87
-70.77
-57.25
-40.62
-22.44
-4.28
12.56
27.19
39.15
48.35
55.02
59.56
62.49
64.26
65.17
65.29
64.57
62.9
60.4
57.32
54.13
51.29
49.16
47.85
47.24
47.07
46.97
46.61
45.73
44.19
42.02
39.38
36.52
33.67
31.0
28.52
26.12
23.62
20.77
17.35
13.16
8.12
2.28
-4.17
-10.95
-17.79
-24.64
-31.69
-39.19
-47.33
-55.93
-64.31
-71.34
-75.68
-76.11
-71.89
-62.9
-49.67
-33.26
-15.05
3.32
20.13
33.7
42.7
46.47
45.36
40.76
34.76
29.53
26.6
26.39
28.17
30.47
31.84
31.35
28.86
24.83
19.83
14.13
7.4
-1.08
-12.17
-26.43
-43.79
-63.54
-84.39
-104.86
-123.49
-139.08
-150.87
-158.53
-162.18
-162.35
-159.84
-155.51
-150.09
-143.94
-137.08
-129.43
-121.07
-112.46
-104.35
-97.47
-92.03
-87.42
-82.3
-75.01
-64.3
-49.85
-32.47
-13.85
3.94
19.15
30.78
38.66
43.43
46.12
47.82
49.29
50.9
52.62
54.27
55.7
56.89
57.96
58.93
59.58
59.52
58.47
56.59
54.72
54.14
55.98
60.55
67.01
73.48
77.8
78.27
74.21
65.99
54.6
41.2
26.74
11.87
-2.89
-17.07
-30.23
-42.07
-52.57
-61.98
-70.78
-79.37
-87.91
-96.04
-102.86
-107.13
-107.5
-103.04
-93.49
-79.41
-62.08
-43.1
-24.04
-6.12
9.92
23.78
35.41
44.92
52.48
58.26
62.43
65.21
66.91
67.88
68.51
69.15
70.1
71.54
73.55
76.15
79.2
82.51
85.69
88.33
89.93
90.12
88.69
85.63
81.14
75.53
69.16
62.34
55.29
48.1
40.75
33.13
25.19
16.96
8.57
0.17
-8.14
-16.45
-25.04
-34.24
-44.28
-55.04
-65.99
-76.16
-84.32
-89.23
-89.87
-85.79
-77.16
-64.83
-50.12
-34.52
-19.41
-5.77
5.83
15.25
22.57
28.04
31.98
34.77
36.82
38.56
40.32
42.3
44.5
46.81
49.16
51.62
54.41
57.79
61.84
66.4
70.97
74.92
77.78
79.45
80.23
80.67
81.25
82.09
82.91
83.28
82.96
82.2
81.73
82.42
84.87
88.99
93.99
98.72
102.14
103.76
103.81
103.22
103.29
105.46
111.08
120.94
134.88
151.43
167.84
180.68
186.84
184.65
174.49
158.81
141.25
125.44
113.75
106.59
102.53
99.05
93.64
84.73
72.18
57.07
41.14
26.11
13.26
3.34
-3.32
-6.58
-6.58
-3.83
0.65
5.56
9.68
12.32
13.51
13.85
14.2
15.25
17.31
20.3
23.86
27.42
30.31
31.82
31.3
28.27
22.52
13.99
2.64
-11.6
-28.75
-48.46
-69.64
-90.47
-108.59
-121.79
-128.71
-129.17
-124.22
-115.7
-105.68
-95.97
-87.91
-82.27
-79.37
-79.09
-80.95
-84.23
-88.06
-91.65
-94.45
-96.25
-97.11
-97.27
-96.88
-95.98
-94.5
-92.35
-89.62
-86.53
-83.46
-80.69
-78.27
-75.94
-73.26
-69.72
-65.01
-59.02
-51.93
-44.15
-36.25
-28.97
-23.05
-19.1
-17.43
-17.93
-20.08
-23.25
-27.03
-31.49
-37.2
-44.96
-55.31
-68.25
-83.06
-98.58
-113.59
-127.14
-138.63
-147.69
-153.98
-157.04
-156.46
-152.09
-144.3
-133.91
-122.06
-109.76
-97.64
-85.82
-73.96
-61.68
-48.84
-35.76
-23.2
-12.15
-3.43
2.53
5.79
6.84
6.25
4.57
2.18
-0.68
-3.72
-6.53
-8.61
-9.46
-8.81
-6.83
-4.19
-2.0
-1.51
-3.68
-8.71
-15.93
-24.01
-31.42
-36.97
-40.11
-40.82
-39.47
-36.43
-32.1
-26.9
-21.46
-16.53
-12.94
-11.32
-11.97
-14.79
-19.18
-24.16
-28.37
-30.29
-28.55
-22.37
-11.87
1.92
17.33
32.61
46.25
57.36
65.57
71.14
74.77
77.56
80.7
85.14
91.11
98.02
104.54
109.3
111.45
111.15
109.49
107.89
107.4
108.11
109.22
109.5
107.95
104.27
98.93
92.79
86.7
81.12
76.13
71.63
67.67
64.53
62.63
62.31
63.53
65.96
69.06
72.35
75.42
77.88
79.16
78.41
74.67
67.21
55.87
41.25
24.64
7.61
-8.48
-22.77
-35.1
-45.74
-55.17
-63.8
-71.78
-79.04
-85.44
-90.96
-95.73
-99.95
-103.7
-106.82
-108.93
-109.69
-109.05
-107.39
-105.45
-104.05
-103.67
-104.24
-105.05
-105.05
-103.25
-99.2
-93.25
-86.52
-80.56
-76.89
-76.48
-79.38
-84.56
-89.89
-92.43
-88.91
-76.53
-53.87
-21.58
17.57
59.29
99.1
133.53
160.71
180.22
192.24
196.81
193.56
182.12
162.99
137.99
110.15
82.83
58.82
39.5
24.91
14.17
6.27
0.57
-3.1
-4.63
-4.13
-2.16
0.29
2.1
2.42
1.03
-1.7
-4.94
-7.84
-9.82
-10.75
-10.89
-10.7
-10.64
-10.95
-11.66
-12.64
-13.74
-14.84
-15.9
-16.96
-18.14
-19.66
-21.78
-24.7
-28.35
-32.3
-35.7
-37.53
-36.93
-33.55
-27.68
-20.22
-12.53
-6.09
-2.2
-1.63
-4.25
-8.93
-13.71
-16.32
-14.89
-8.59
2.04
15.22
28.35
38.6
43.55
41.62
32.51
17.25
-1.99
-22.51
-41.79
-58.22
-71.34
-81.7
-90.44
-98.64
-106.62
-113.43
-116.59
-112.54
-97.76
-70.15
-30.19
18.87
71.85
123.33
169.04
206.4
233.99
250.62
254.89
245.64
223.03
189.53
149.88
109.98
75.12
48.56
31.01
21.14
16.54
14.58
12.76
8.75
0.42
-13.7
-33.79
-58.27
-84.06
-107.53
-125.62
-136.77
-140.93
-138.96
-131.8
-119.99
-103.87
-84.14
-62.29
-40.48
-20.89
-5.0
6.9
15.59
22.33
28.29
34.08
39.73
44.94
49.35
52.85
55.69
58.44
61.85
66.63
73.42
82.65
94.42
108.32
123.27
137.52
148.89
155.3
155.36
148.84
136.7
120.68
102.73
84.43
66.82
50.47
35.73
22.84
11.88
2.66
-5.38
-13.07
-21.28
-30.67
-41.54
-53.77
-66.9
-80.2
-92.75
-103.48
-111.41
-115.85
-116.81
-115.02
-111.71
-108.03
-104.36
-100.01
-93.37
-82.72
-67.09
-46.88
-23.87
-0.63
20.41
37.67
50.75
60.25
67.19
72.54
76.75
79.8
81.41
81.45
80.2
78.41
77.11
77.12
78.85
81.98
85.71
88.87
90.24
88.52
82.39
70.39
51.26
24.37
-9.55
-48.17
-87.67
-123.63
-152.11
-170.77
-179.17
-178.7
-171.82
-161.32
-149.66
-138.73
-129.6
-122.61
-117.36
-112.96
-108.34
-102.71
-95.85
-88.24
-80.77
-74.33
-69.42
-66.06
-63.83
-62.29
-61.08
-60.15
-59.62
-59.59
-59.95
-60.32
-60.11
-58.7
-55.68
-51.01
-44.96
-38.2
-31.65
-26.34
-23.12
-22.15
-22.53
-22.36
-19.34
-11.82
0.2
14.7
28.12
36.52
37.0
28.48
11.85
-10.54
-35.63
-60.43
-82.44
-99.93
-112.03
-118.67
-120.38
-118.02
-112.57
-105.12
-96.92
-89.28
-83.24
-79.24
-76.8
-74.62
-71.06
-64.71
-54.79
-41.19
-24.41
-5.28
15.07
35.29
54.0
70.05
82.74
91.97
98.03
101.3
102.08
100.47
96.58
90.73
83.55
75.85
68.43
61.88
56.4
51.86
47.89
44.04
39.96
35.5
30.75
25.95
21.34
17.06
13.12
9.44
5.94
2.44
-1.48
-6.47
-13.24
-22.09
-32.5
-43.16
-52.39
-59.04
-62.87
-64.74
-65.95
-67.46
-69.31
-70.5
-69.61
-65.54
-58.15
-48.38
-37.97
-28.96
-23.19
-21.9
-25.5
-33.5
-44.51
-56.67
-68.09
-77.4
-84.07
-88.34
-91.08
-93.25
-95.58
-98.31
-101.16
-103.5
-104.49
-103.26
-99.08
-91.78
-81.95
-70.86
-60.01
-50.32
-41.55
-32.25
-20.37
-4.22
16.83
42.23
70.78
101.11
131.92
161.58
187.7
207.12
216.76
214.73
201.33
178.96
151.19
121.36
91.54
62.5
34.32
7.22
-18.14
-40.84
-60.28
-76.32
-88.98
-97.67
-100.7
-95.29
-78.4
-47.84
-3.52
51.85
112.83
171.87
220.82
252.73
263.57
253.34
225.97
188.06
146.89
108.57
76.97
53.65
38.54
30.72
28.9
31.51
36.76
42.81
48.16
52.02
54.33
55.64
56.51
57.19
57.53
57.09
55.51
52.83
49.47
46.14
43.52
41.93
41.24
40.86
40.03
38.13
34.95
30.88
26.91
24.47
25.02
29.6
38.38
50.47
64.08
77.06
87.51
94.22
96.84
95.62
91.09
83.9
74.74
64.41
53.78
43.64
34.33
25.65
16.81
6.89
-4.75
-18.11
-32.49
-46.62
-59.13
-68.9
-75.49
-79.32
-81.75
-84.84
-90.73
-100.83
-115.04
-131.47
-146.83
-157.54
-161.06
-156.8
-146.27
-132.38
-118.26
-106.2
-97.28
-91.48
-88.32
-87.28
-88.04
-90.32
-93.67
-97.41
-100.74
-102.98
-103.64
-102.52
-99.44
-94.12
-86.16
-75.15
-61.03
-44.29
-26.03
-7.74
9.1
23.33
34.42
42.43
47.83
51.29
53.5
55.0
56.14
57.17
58.31
59.81
61.89
64.61
67.77
70.71
72.55
72.44
69.9
65.0
58.33
50.59
42.39
34.02
25.55
17.07
8.8
1.04
-5.93
-12.17
-18.04
-24.06
-30.71
-38.09
-45.92
-53.62
-60.63
-66.54
-71.23
-74.67
-76.73
-76.96
-74.61
-68.84
-59.14
-45.67
-29.33
-11.58
6.01
22.19
36.28
48.06
57.6
64.96
70.13
73.21
74.48
74.52
74.06
73.71
73.72
73.9
73.83
73.16
71.8
69.98
68.17
66.77
65.96
65.52
64.98
63.75
61.29
57.27
51.65
44.63
36.58
27.83
18.63
9.05
-0.96
-11.38
-22.07
-32.64
-42.62
-51.58
-59.34
-65.99
-71.82
-77.13
-82.16
-87.11
-92.09
-97.18
-102.28
-106.93
-110.27
-111.16
-108.52
-101.72
-90.88
-76.81
-60.8
-44.16
-27.93
-12.74
1.15
13.63
24.64
34.0
41.55
47.09
50.43
51.44
49.97
46.04
39.88
32.14
23.84
16.32
10.91
8.63
9.88
14.39
21.39
29.99
39.62
50.16
61.96
75.36
90.34
106.17
121.48
134.69
144.5
150.22
151.66
148.93
142.02
130.82
115.24
95.51
72.33
46.72
19.78
-7.73
-35.36
-62.79
-89.41
-113.93
-134.35
-148.37
-153.99
-150.23
-137.55
-117.9
-94.19
-69.58
-46.63
-26.85
-10.64
2.31
12.5
20.11
25.04
27.09
26.31
23.25
18.88
14.34
10.46
7.61
5.65
4.2
2.98
1.91
1.1
0.67
0.48
0.16
-0.81
-2.8
-5.83
-9.59
-13.54
-17.15
-20.09
-22.31
-23.93
-25.17
-26.24
-27.29
-28.47
-30.01
-32.24
-35.54
-40.24
-46.38
-53.49
-60.53
-66.0
-68.37
-66.59
-60.4
-50.49
-38.24
-25.3
-13.07
-2.55
5.76
11.7
15.33
16.81
16.49
14.78
12.2
9.29
6.48
4.11
2.31
1.17
0.64
0.65
1.11
1.99
3.26
4.93
6.96
9.18
11.43
13.48
15.18
16.55
17.71
18.89
20.29
21.97
23.81
25.51
26.68
27.13
26.88
26.27
25.84
26.02
27.08
28.89
31.07
33.03
34.32
34.75
34.76
35.33
37.97
44.17
54.86
69.89
87.83
106.3
122.72
135.01
142.09
143.91
141.09
134.41
124.6
112.21
97.75
81.74
64.72
47.17
29.54
12.26
-4.06
-18.57
-30.21
-37.91
-40.99
-39.28
-33.35
-24.3
-13.65
-3.08
5.85
11.72
13.52
10.76
3.64
-6.94
-19.54
-32.61
-44.86
-55.61
-64.84
-72.93
-80.31
-87.15
-93.29
-98.39
-102.25
-104.98
-107.06
-109.19
-112.03
-115.91
-120.68
-125.7
-129.84
-131.66
-129.61
-122.44
-109.63
-91.72
-70.36
-47.94
-26.96
-9.32
4.09
13.33
19.12
22.4
23.96
24.38
24.15
23.68
23.4
23.57
24.3
25.48
26.83
28.02
28.73
28.66
27.71
25.92
23.48
20.72
17.89
15.02
11.88
7.89
2.44
-5.02
-14.65
-26.15
-38.75
-51.44
-63.17
-73.0
-80.17
-84.06
-84.17
-80.2
-72.25
-60.9
-47.22
-32.59
-18.43
-5.92
4.01
10.62
13.39
12.17
7.42
0.46
-6.62
-11.39
-11.79
-6.72
3.58
17.71
33.55
48.83
61.68
70.91
76.03
77.14
74.73
69.5
62.16
53.47
44.1
34.65
25.58
17.22
9.71
3.09
-2.62
-7.44
-11.46
-14.85
-17.94
-21.2
-25.09
-29.84
-35.38
-41.27
-46.84
-51.38
-54.29
-55.22
-54.07
-51.01
-46.43
-40.91
-35.18
-30.05
-26.17
-23.95
-23.43
-24.38
-26.41
-29.13
-32.13
-35.0
-37.3
-38.61
-38.62
-37.28
-34.79
-31.39
-26.95
-20.72
-11.4
2.16
19.98
40.27
59.37
72.63
75.95
67.24
47.2
19.01
-12.92
-44.44
-72.86
-97.27
-118.14
-136.47
-152.99
-167.67
-179.73
-187.99
-191.26
-188.81
-180.53
-167.01
-149.44
-129.44
-108.45
-87.21
-65.16
-40.5
-10.79
25.73
68.78
115.14
159.01
193.67
213.9
218.08
208.95
192.62
176.21
165.31
162.09
165.08
170.34
173.58
172.26
166.47
158.82
152.95
151.96
157.1
167.36
180.16
192.46
202.12
208.58
212.75
216.32
220.81
226.87
234.12
241.42
247.26
250.07
248.4
240.83
226.01
202.97
171.68
133.59
91.69
49.97
12.26
-19.0
-43.45
-62.76
-79.6
-96.41
-114.29
-132.63
-149.51
-162.53
-169.62
-169.65
-162.85
-151.09
-137.83
-127.5
-124.17
-129.77
-142.96
-159.3
-173.0
-179.39
-176.99
-167.91
-156.5
-147.0
-141.64
-140.12
-140.48
-140.61
-139.32
-136.5
-132.47
-127.34
-120.76
-112.17
-101.36
-88.65
-74.79
-60.49
-45.91
-30.63
-13.94
4.57
24.4
43.95
60.91
73.01
78.89
78.6
73.52
65.77
57.38
49.71
43.22
37.67
32.48
27.11
21.29
15.07
8.85
3.34
-0.45
-1.57
0.7
6.58
15.89
28.33
43.7
61.91
82.71
105.27
128.22
150.01
169.51
186.32
200.47
211.65
218.48
218.68
210.03
191.73
165.31
134.22
102.46
72.83
45.91
20.38
-5.58
-32.81
-60.2
-84.94
-103.66
-113.75
-114.15
-105.53
-90.08
-71.08
-52.49
-38.21
-31.11
-32.12
-39.73
-50.39
-59.95
-65.23
-65.11
-60.61
-53.92
-47.26
-42.02
-38.76
-37.68
-38.95
-42.66
-48.46
-55.21
-61.33
-65.4
-67.05
-67.2
-67.85
-71.2
-78.62
-89.78
-102.5
-113.21
-118.05
-114.13
-100.52
-78.7
-52.08
-24.97
-1.31
16.22
26.79
31.33
32.02
31.5
32.11
35.16
40.65
47.51
54.18
59.35
62.46
63.75
63.85
63.27
62.11
60.19
57.33
53.7
49.71
45.8
42.03
37.96
32.8
25.72
16.18
4.08
-10.29
-26.48
-43.9
-61.89
-79.56
-95.81
-109.35
-118.89
-123.37
-122.06
-114.6
-100.97
-81.53
-57.19
-29.57
-0.99
25.9
48.68
65.78
76.8
82.38
83.74
82.09
78.29
72.84
66.09
58.58
50.97
44.0
38.21
33.78
30.49
27.9
25.47
22.7
19.28
15.18
10.65
6.06
1.75
-2.17
-5.9
-9.88
-14.44
-19.63
-25.1
-30.28
-34.72
-38.34
-41.49
-44.77
-48.73
-53.64
-59.38
-65.45
-71.13
-75.49
-77.55
-76.43
-71.58
-63.05
-51.51
-38.21
-24.6
-12.02
-1.42
6.71
12.23
15.28
16.13
15.17
12.91
9.93
6.79
3.95
1.7
0.09
-0.99
-1.72
-2.23
-2.52
-2.41
-1.63
-0.01
2.46
5.46
8.45
10.81
12.1
12.18
11.28
9.84
8.32
6.99
5.82
4.52
2.64
-0.14
-3.88
-8.4
-13.33
-18.46
-23.86
-29.9
-37.09
-45.74
-55.67
-66.08
-75.71
-83.19
-87.42
-87.87
-84.68
-78.45
-69.96
-59.82
-48.36
-35.78
-22.41
-8.95
3.53
13.84
21.08
24.85
25.38
23.36
19.96
16.82
15.93
19.26
28.06
42.06
59.28
76.45
90.1
97.76
98.61
93.36
83.42
70.08
54.1
35.89
16.04
-4.31
-23.49
-39.76
-51.75
-58.86
-61.25
-59.6
-54.76
-47.47
-38.2
-27.19
-14.73
-1.29
12.27
24.72
34.71
41.06
43.15
41.19
36.36
30.66
26.55
26.35
31.68
43.04
59.76
80.26
102.46
124.32
144.12
160.78
173.81
183.32
189.8
193.99
196.63
198.25
199.03
198.75
196.92
193.0
186.65
177.74
166.3
152.4
136.05
117.34
96.71
75.22
54.51
36.42
22.23
12.08
4.74
-1.92
-9.86
-20.06
-32.07
-44.29
-54.95
-62.92
-68.25
-71.95
-75.32
-79.29
-83.96
-88.74
-92.8
-95.66
-97.48
-99.1
-101.67
-106.25
-113.39
-123.0
-134.31
-145.92
-156.02
-162.81
-164.85
-161.62
-153.73
-142.79
-130.94
-120.02
-110.93
-103.23
-95.36
-85.25
-71.11
-52.14
-28.86
-3.12
22.38
44.77
61.91
73.05
79.09
82.06
84.05
86.03
87.12
84.79
76.0
58.64
32.69
0.3
-34.79
-68.35
-96.44
-115.87
-124.43
-121.27
-107.39
-85.9
-61.56
-39.53
-23.71
-15.59
-14.1
-16.55
-20.09
-22.83
-24.13
-24.23
-23.63
-22.75
-22.04
-22.24
-24.33
-29.2
-37.15
-47.49
-58.76
-69.22
-77.59
-83.54
-87.68
-91.19
-95.43
-101.5
-110.05
-121.03
-133.31
-144.37
-150.4
-147.02
-130.71
-100.19
-57.18
-5.94
47.89
98.66
141.62
173.33
191.62
195.86
187.17
168.54
144.41
119.46
97.3
79.54
65.9
54.98
45.39
36.42
28.03
20.47
13.83
7.92
2.37
-3.08
-8.58
-14.12
-19.59
-24.8
-29.51
-33.48
-36.6
-39.11
-41.55
-44.69
-49.11
-54.76
-60.8
-65.65
-67.56
-65.3
-58.75
-49.05
-38.33
-29.05
-23.24
-21.88
-24.3
-27.95
-28.73
-22.0
-4.25
25.28
63.76
105.3
142.8
170.41
185.33
188.31
182.64
172.41
160.89
149.66
138.88
127.87
115.97
102.89
88.76
73.94
58.66
42.94
26.55
9.43
-8.05
-24.89
-39.76
-51.56
-60.03
-66.0
-71.13
-77.13
-85.08
-95.03
-106.08
-116.9
-126.36
-133.92
-139.93
-145.33
-151.37
-159.06
-168.76
-179.81
-190.55
-198.59
-201.32
-196.54
-183.16
-161.53
-133.5
-101.99
-70.15
-40.48
-14.3
8.06
26.74
41.55
51.77
56.62
56.1
51.65
45.92
41.7
40.65
42.38
44.75
45.04
41.47
34.02
24.62
16.25
11.76
12.88
19.64
30.37
42.19
51.74
56.02
53.11
42.82
27.2
10.44
-1.93
-4.71
4.95
26.1
53.8
80.69
99.72
106.73
101.85
88.83
72.99
58.76
48.24
41.28
36.54
32.77
29.37
26.3
23.32
19.81
14.96
8.45
1.21
-4.43
-5.23
1.69
17.66
41.6
70.15
98.67
122.76
139.64
148.94
152.4
152.7
152.03
150.83
147.56
139.35
123.35
98.17
64.51
25.03
-16.61
-56.88
-93.25
-124.31
-149.41
-168.14
-180.03
-184.65
-182.05
-173.22
-160.05
-145.01
-130.45
-117.99
-108.14
-100.42
-93.87
-87.6
-81.28
-75.13
-69.73
-65.58
-62.78
-61.04
-59.81
-58.69
-57.65
-57.1
-57.74
-60.32
-65.34
-72.89
-82.6
-93.65
-104.77
-114.37
-120.7
-122.08
-117.27
-105.83
-88.23
-65.87
-40.75
-15.16
8.79
29.45
45.8
57.53
64.91
68.64
69.65
68.95
67.51
66.19
65.66
66.34
68.31
71.34
74.97
78.8
82.64
86.53
90.57
94.64
98.26
100.65
101.02
98.93
94.41
87.86
79.74
70.25
59.36
46.96
33.12
18.32
3.4
-10.63
-22.91
-32.93
-40.63
-46.4
-50.96
-55.33
-60.55
-67.46
-76.35
-86.78
-97.47
-106.53
-111.93
-112.01
-105.96
-94.08
-77.66
-58.63
-39.1
-20.82
-5.02
7.66
17.01
23.01
25.81
25.68
23.19
19.16
14.52
10.1
6.37
3.37
0.9
-1.3
-3.32
-5.01
-6.18
-6.75
-6.98
-7.35
-8.47
-10.79
-14.4
-18.97
-23.81
-28.16
-31.36
-33.1
-33.46
-32.93
-32.17
-31.93
-32.78
-35.0
-38.48
-42.82
-47.49
-52.04
-56.39
-60.91
-66.36
-73.54
-82.87
-93.97
-105.6
-115.83
-122.56
-123.99
-119.01
-107.4
-89.75
-67.4
-42.22
-16.31
8.29
29.99
47.92
62.0
72.73
80.82
86.9
91.38
94.53
96.65
98.16
99.57
101.33
103.69
106.68
110.15
113.93
117.84
121.74
125.41
128.57
130.78
131.61
130.75
128.09
123.84
118.45
112.47
106.4
100.51
94.89
89.36
83.72
77.82
71.58
65.07
58.33
51.42
44.24
36.62
28.29
18.96
8.48
-3.12
-15.4
-27.49
-38.15
-45.93
-49.47
-47.88
-41.03
-29.58
-14.91
1.28
17.34
32.03
44.68
55.14
63.6
70.33
75.5
79.07
80.95
81.08
79.66
77.22
74.5
72.3
71.18
71.38
72.8
75.13
78.05
81.28
84.59
87.67
90.15
91.62
91.86
90.87
88.98
86.69
84.5
82.68
81.2
79.81
78.21
76.21
73.85
71.32
68.85
66.49
64.02
61.0
57.01
51.92
46.11
40.51
36.43
35.22
37.8
44.33
54.0
65.08
75.18
81.73
82.51
76.05
61.97
41.0
14.85
-14.15
-43.45
-70.74
-94.21
-112.69
-125.38
-131.63
-130.71
-122.07
-105.86
-83.4
-57.46
-31.72
-9.8
5.71
13.93
15.57
12.23
5.55
-3.34
-13.89
-25.84
-38.85
-52.36
-65.58
-77.74
-88.16
-96.27
-101.56
-103.56
-101.96
-96.78
-88.51
-78.14
-66.99
-56.45
-47.64
-41.28
-37.59
-36.39
-37.18
-39.28
-41.91
-44.35
-46.01
-46.47
-45.41
-42.55
-37.66
-30.65
-21.66
-11.17
0.05
11.13
21.3
30.12
37.41
43.26
47.78
51.09
53.31
54.57
55.07
54.96
54.35
53.21
51.48
49.08
46.07
42.55
38.58
34.22
29.41
24.06
18.16
11.79
5.12
-1.7
-8.63
-15.77
-23.29
-31.28
-39.62
-47.87
-55.25
-60.79
-63.51
-62.61
-57.8
-49.37
-38.2
-25.61
-13.0
-1.58
7.94
15.37
21.04
25.54
29.5
33.37
37.25
40.93
44.03
46.19
47.27
47.45
47.21
47.06
47.42
48.44
50.0
51.81
53.66
55.46
57.21
58.89
60.37
61.33
61.45
60.53
58.69
56.31
53.92
51.94
50.5
49.45
48.48
47.3
45.72
43.63
40.86
37.17
32.29
26.09
18.74
10.66
2.41
-5.54
-12.82
-19.14
-24.04
-26.8
-26.55
-22.58
-14.76
-3.75
9.0
21.69
