34.44
33.41
32.87
32.98
33.41
33.58
32.99
31.38
28.91
25.93
22.76
19.53
16.17
12.57
8.7
4.65
0.52
-3.72
-8.34
-13.74
-20.16
-27.41
-34.75
-41.0
-44.81
-45.13
-41.45
-33.95
-23.37
-10.82
2.51
15.51
27.28
37.12
44.58
49.47
51.89
52.23
51.19
49.67
48.53
48.37
49.36
51.16
53.09
54.39
54.5
53.1
50.08
45.24
38.3
29.01
17.43
4.27
-9.05
-20.7
-28.96
-32.74
-31.87
-27.1
-19.71
-11.18
-2.8
4.43
9.86
13.22
14.72
15.0
15.05
15.98
18.65
23.37
29.81
37.1
44.18
50.16
54.56
57.4
58.98
59.66
59.53
58.38
55.68
50.85
43.5
33.64
21.74
8.6
-4.74
-17.26
-28.11
-36.66
-42.62
-46.01
-47.24
-46.89
-45.62
-43.96
-42.2
-40.39
-38.41
-36.1
-33.34
-30.11
-26.44
-22.47
-18.43
-14.68
-11.7
-9.96
-9.81
-11.36
-14.49
-18.96
-24.43
-30.58
-36.9
-42.58
-46.37
-46.66
-41.89
-31.22
-15.01
4.94
25.78
44.38
58.16
65.63
66.44
61.05
50.34
35.31
17.19
-2.43
-21.54
-38.04
-50.26
-57.49
-60.18
-59.61
-57.33
-54.45
-51.26
-47.42
-42.26
-35.37
-27.0
-18.02
-9.62
-2.89
1.62
3.92
4.48
3.76
2.02
-0.85
-5.14
-11.05
-18.43
-26.66
-34.88
-42.16
-47.76
-51.17
-52.07
-50.15
-45.03
-36.31
-23.8
-7.75
10.98
30.98
50.62
68.37
83.15
94.33
101.61
104.81
103.75
98.32
88.68
75.41
59.56
42.53
25.85
10.96
-0.93
-9.01
-13.03
-13.41
-11.21
-7.85
-4.67
-2.48
-1.35
-0.83
-0.31
0.56
1.67
2.54
2.6
1.51
-0.76
-4.02
-8.18
-13.39
-19.97
-28.15
-37.72
-47.88
-57.33
-64.73
-69.12
-70.11
-67.87
-62.84
-55.4
-45.87
-34.54
-21.9
-8.69
4.23
16.13
26.59
35.5
42.98
49.21
54.37
58.76
62.83
67.21
72.46
78.79
85.81
92.45
97.26
98.85
96.34
89.66
79.56
67.39
54.79
43.26
33.92
27.3
23.3
21.25
20.19
19.16
17.63
15.68
13.98
13.59
15.61
20.88
29.73
41.82
55.99
70.27
82.17
89.34
90.31
85.14
75.37
63.38
51.36
40.43
30.34
19.96
8.12
-5.59
-20.6
-35.66
-49.38
-60.69
-68.97
-73.9
-75.32
-73.27
-68.09
-60.59
-52.05
-43.99
-37.87
-34.83
-35.42
-39.6
-46.68
-55.4
-64.2
-71.61
-76.71
-79.58
-81.24
-83.17
-86.55
-91.66
-97.68
-103.1
-106.42
-106.79
-104.25
-99.59
-94.05
-88.94
-85.5
-84.54
-86.28
-89.98
-94.07
-96.61
-96.09
-92.24
-86.16
-79.95
-75.7
-74.67
-76.91
-81.62
-87.75
-94.59
-101.9
-109.62
-117.53
-124.94
-130.98
-134.84
-136.21
-135.22
-132.17
-127.11
-119.61
-108.89
-94.31
-75.9
-54.75
-32.84
-12.66
3.61
14.6
19.98
20.32
16.62
9.89
0.98
-9.43
-20.53
-31.25
-40.33
-46.67
-49.71
-49.64
-47.19
-43.11
-37.71
-30.7
-21.52
-10.07
2.82
15.23
24.71
29.15
27.54
20.43
9.77
-1.64
-10.93
-15.85
-15.36
-9.82
-0.9
8.88
16.86
21.01
20.57
16.22
9.8
3.67
-0.04
0.04
4.39
12.74
24.43
38.66
54.6
71.34
87.82
102.8
115.04
123.55
127.82
127.92
124.4
118.09
109.74
99.87
88.81
76.89
64.68
53.16
43.53
36.84
33.47
32.86
33.61
33.99
32.59
28.93
23.53
17.6
12.48
8.97
7.02
5.99
4.99
3.54
1.85
0.78
1.51
4.94
11.27
19.88
29.49
38.68
46.24
51.57
54.63
55.85
55.8
54.99
53.7
51.91
49.37
45.68
40.5
33.59
24.89
14.52
2.75
-9.92
-22.76
-34.88
-45.44
-53.9
-60.26
-65.03
-68.98
-72.71
-76.36
-79.58
-81.91
-83.1
-83.27
-82.64
-80.98
-77.31
-70.07
-57.9
-40.59
-19.62
1.97
20.65
33.57
39.58
39.37
34.8
27.83
19.56
9.91
-1.96
-16.89
-34.93
-55.04
-75.38
-93.87
-108.82
-119.4
-125.65
-128.3
-128.31
-126.46
-122.93
-117.24
-108.3
-94.97
-76.53
-53.27
-26.58
1.26
27.9
51.59
71.66
88.44
102.73
115.22
126.03
134.77
140.76
143.42
142.52
138.12
130.43
119.59
105.69
89.02
70.32
50.9
32.58
17.26
6.32
0.16
-2.02
-1.91
-1.53
-2.44
-5.22
-9.49
-14.3
-18.77
-22.55
-26.02
-30.02
-35.42
-42.69
-51.66
-61.49
-70.82
-78.09
-81.76
-80.65
-74.11
-62.22
-45.73
-25.94
-4.52
16.74
36.17
52.47
64.78
72.81
76.77
77.27
75.18
71.46
67.06
62.81
59.28
56.7
54.9
53.4
51.65
49.17
45.72
41.2
35.54
28.55
20.01
9.88
-1.48
-13.29
-24.41
-33.84
-41.05
-46.15
-49.86
-53.22
-57.28
-62.82
-70.12
-78.82
-87.85
-95.46
-99.54
-98.19
-90.36
-76.31
-57.72
-37.12
-17.19
0.04
13.47
22.92
28.66
30.99
30.16
26.5
20.7
13.87
7.35
2.27
-0.73
-1.65
-0.91
0.96
3.56
6.58
9.78
12.77
15.12
16.37
16.29
14.92
12.51
9.45
6.04
2.43
-1.4
-5.69
-10.79
-17.15
-25.18
-35.04
-46.51
-58.87
-70.82
-80.68
-86.7
-87.44
-82.22
-71.36
-56.14
-38.44
-20.3
-3.42
11.0
22.31
30.19
34.58
35.59
33.6
29.33
23.83
18.27
13.58
10.19
7.95
6.32
4.72
2.85
0.84
-0.9
-2.03
-2.64
-3.33
-4.96
-8.29
-13.58
-20.49
-28.26
-36.11
-43.6
-50.7
-57.75
-65.2
-73.38
-82.38
-91.95
-101.52
-110.11
-116.35
-118.77
-116.1
-107.76
-94.09
-76.36
-56.4
-36.12
-17.04
-0.09
14.28
25.95
34.86
41.03
44.59
45.9
45.55
44.26
42.69
41.22
39.9
38.55
36.96
35.06
33.01
31.14
29.71
28.75
27.98
26.85
24.86
21.72
17.52
12.69
7.84
3.51
-0.04
-2.84
-5.16
-7.48
-10.31
-13.97
-18.42
-23.01
-26.43
-26.97
-23.02
-13.71
0.56
18.19
36.78
53.89
67.72
77.49
83.37
86.12
86.64
85.75
84.02
81.9
79.77
78.0
76.96
77.0
78.39
81.33
85.82
91.71
98.64
106.03
113.16
119.23
123.49
125.39
124.73
121.7
116.88
111.07
105.12
99.59
94.51
89.33
83.05
74.51
62.88
48.0
30.59
12.13
-5.44
-20.18
-30.62
-36.01
-36.41
-32.57
-25.7
-17.22
-8.54
-0.88
4.78
7.82
8.0
5.52
1.0
-4.63
-10.3
-15.09
-18.35
-19.9
-19.9
-18.7
-16.63
-13.88
-10.46
-6.25
-1.2
4.52
10.46
15.76
19.37
20.34
18.26
13.56
7.57
2.06
-1.44
-2.26
-0.9
1.24
2.58
2.02
-0.54
-4.27
-7.69
-9.23
-7.59
-2.06
7.4
20.1
34.75
49.7
63.3
74.21
81.57
84.99
84.37
79.86
71.84
60.99
48.35
35.22
22.88
12.22
3.61
-3.08
-8.28
-12.37
-15.56
-17.9
-19.45
-20.44
-21.32
-22.65
-24.88
-28.07
-31.86
-35.53
-38.31
-39.69
-39.63
-38.55
-37.28
-36.64
-37.33
-39.63
-43.36
-47.84
-51.91
-54.17
-53.22
-48.09
-38.54
-25.22
-9.52
6.81
22.09
35.08
45.14
52.08
56.03
57.31
56.34
53.66
49.91
45.77
41.85
38.57
36.14
34.54
33.65
33.33
33.48
33.98
34.67
35.31
35.61
35.26
34.0
31.65
28.19
23.73
18.53
12.91
7.19
1.52
-4.18
-10.21
-16.93
-24.53
-32.77
-40.93
-47.87
-52.34
-53.28
-50.2
-43.28
-33.28
-21.37
-8.78
3.41
14.42
23.72
31.0
36.12
39.04
39.87
38.8
36.2
32.57
28.6
25.05
22.73
22.23
23.74
26.94
30.95
34.53
36.27
34.84
29.26
19.13
4.83
-12.48
-31.02
-48.8
-64.09
-75.76
-83.53
-87.87
-89.75
-90.33
-90.61
-91.16
-91.93
-92.26
-90.97
-86.79
-78.77
-66.68
-51.17
-33.53
-15.34
1.91
17.12
29.55
38.77
44.47
46.55
45.17
40.94
34.91
28.37
22.49
18.04
15.18
13.55
12.55
11.62
10.43
8.83
6.71
3.89
0.0
-5.35
-12.45
-21.27
-31.37
-41.94
-51.98
-60.55
-66.99
-71.17
-73.51
-74.95
-76.68
-79.81
-84.9
-91.74
-99.21
-105.51
-108.69
-107.23
-100.54
-89.15
-74.53
-58.53
-42.85
-28.72
-16.8
-7.37
-0.58
3.5
4.91
4.02
1.57
-1.38
-3.81
-5.05
-4.92
-3.72
-1.97
-0.09
1.77
3.69
5.89
8.48
11.36
14.18
16.41
17.54
17.19
15.26
11.97
7.79
3.31
-0.94
-4.7
-8.07
-11.5
-15.69
-21.29
-28.71
-37.87
-48.11
-58.14
-66.3
-70.9
-70.62
-64.93
-54.3
-40.03
-24.0
-8.03
6.4
18.41
27.65
34.07
37.77
38.91
37.8
34.97
31.19
27.37
24.29
22.46
21.97
22.56
23.83
25.36
26.94
28.44
29.81
30.9
31.37
30.8
28.84
25.43
20.88
15.83
11.01
6.92
3.69
0.98
-1.86
-5.54
-10.6
-17.09
-24.55
-31.91
-37.76
-40.59
-39.24
-33.22
-22.89
-9.34
5.9
21.29
35.61
48.06
58.18
65.76
70.74
73.23
73.56
72.29
70.14
67.79
65.69
64.06
62.93
62.19
61.75
61.54
61.54
61.68
61.83
61.78
61.31
60.2
58.31
55.63
52.29
48.51
44.66
41.16
38.34
36.33
34.97
33.75
32.06
29.45
26.0
22.58
20.8
22.67
30.08
44.16
65.06
91.83
122.78
155.82
188.83
219.99
247.75
270.92
288.63
300.38
306.03
305.83
300.29
289.92
275.1
256.03
232.85
205.93
175.98
144.05
111.34
79.03
48.06
19.21
-6.94
-29.94
-49.67
-66.47
-81.31
-95.68
-111.14
-128.78
-148.67
-169.74
-190.19
-208.14
-222.49
-233.24
-241.41
-248.45
-255.4
-262.34
-268.3
-271.71
-271.07
-265.52
-254.96
-239.89
-221.01
-199.05
-174.82
-149.38
-124.18
-100.84
-80.8
-64.81
-52.77
-43.84
-36.86
-30.82
-25.07
-19.36
-13.63
-7.84
-1.92
4.16
10.4
16.65
22.72
28.4
33.41
37.35
39.75
40.13
38.21
34.03
27.93
20.45
12.03
2.91
-6.95
-17.7
-29.39
-41.79
-54.29
-65.93
-75.47
-81.64
-83.36
-80.08
-71.9
-59.72
-44.97
-29.28
-14.09
-0.37
11.47
21.41
29.63
36.27
41.36
44.89
46.86
47.5
47.25
46.72
46.57
47.27
49.02
51.65
54.75
57.7
59.86
60.66
59.77
57.14
53.14
48.4
43.78
40.02
37.52
36.24
35.72
35.29
34.28
32.15
28.52
23.2
16.22
7.96
-0.68
-8.38
-13.6
-15.23
-13.04
-8.03
-2.22
1.93
2.35
-2.05
-11.16
-23.95
-39.14
-55.59
-72.7
-90.16
-107.76
-125.06
-141.44
-156.29
-169.27
-180.4
-189.89
-197.86
-204.15
-208.28
-209.66
-207.9
-202.94
-195.11
-184.98
-173.2
-160.4
-147.11
-133.81
-121.02
-109.4
-99.72
-92.81
-89.44
-90.09
-94.88
-103.43
-114.87
-127.81
-140.3
-150.03
-154.57
-151.9
-140.79
-121.13
-93.85
-60.71
-23.99
13.71
49.56
80.65
104.36
119.01
124.49
122.48
116.06
108.61
102.56
98.59
95.67
91.87
85.59
76.48
65.63
55.03
46.6
41.34
39.1
38.89
39.5
40.03
40.14
39.82
39.14
37.98
36.02
32.94
28.53
22.83
16.21
9.26
2.69
-2.69
-5.96
-6.14
-2.17
6.85
21.37
41.16
65.13
91.46
117.97
142.59
163.81
180.89
193.84
203.21
209.81
214.45
217.77
220.22
222.05
223.32
223.95
223.8
222.63
220.18
216.16
210.33
202.67
193.42
183.08
172.29
161.53
150.97
140.45
129.46
117.35
103.44
87.08
67.82
45.73
21.71
-2.27
-23.3
-38.26
-44.81
-42.2
-31.72
-16.27
0.52
15.36
26.07
31.89
33.17
30.89
26.1
19.6
11.92
3.46
-5.29
-13.65
-20.8
-25.98
-28.74
-28.97
-26.84
-22.63
-16.64
-9.26
-1.22
6.25
11.51
12.87
9.16
0.09
-13.65
-30.69
-49.55
-69.05
-88.57
-107.87
-126.78
-144.87
-161.31
-175.03
-184.94
-190.31
-190.98
-187.39
-180.53
-171.7
-162.36
-153.95
-147.78
-144.88
-145.8
-150.47
-158.04
-166.91
-175.05
-180.28
-180.88
-175.92
-165.56
-150.98
-134.04
-116.91
-101.52
-89.39
-81.33
-77.58
-77.67
-80.57
-84.8
-88.7
-90.81
-90.15
-86.48
-80.18
-72.1
-63.21
-54.38
-46.08
-38.3
-30.52
-21.82
-11.19
2.07
17.97
35.65
53.57
70.02
83.62
93.71
100.39
104.19
105.6
104.82
101.64
95.81
87.31
76.7
64.99
53.45
43.11
34.48
27.48
21.72
16.76
12.42
8.83
6.34
5.3
5.88
8.03
11.56
16.18
21.57
27.45
33.34
38.75
43.12
46.07
47.56
48.04
48.36
49.48
52.2
56.9
63.55
71.74
80.92
90.44
99.54
107.36
113.06
116.0
115.97
113.39
109.19
104.65
101.04
99.4
100.27
103.63
108.79
114.37
118.52
119.16
114.54
103.72
86.88
65.4
41.49
17.57
-4.41
-23.53
-40.13
-55.56
-71.51
-89.23
-108.81
-128.91
-146.99
-159.82
-164.24
-157.82
-139.51
-110.05
-72.24
-30.75
8.57
39.92
58.89
63.56
54.88
36.02
11.26
-15.43
-41.17
-64.42
-84.51
-101.03
-113.41
-120.93
-123.0
-119.56
-111.19
-99.08
-84.64
-69.27
-54.24
-40.64
-29.51
-21.69
-17.67
-17.45
-20.47
-25.88
-32.85
-40.8
-49.33
-58.03
-66.11
-72.28
-74.92
-72.56
-64.28
-50.07
-30.87
-8.35
15.39
38.2
58.07
73.44
83.37
87.57
86.46
81.0
72.58
62.68
52.64
43.47
35.65
29.25
23.99
19.54
15.64
12.27
9.66
8.28
8.73
11.54
16.88
24.41
33.11
41.42
47.7
50.63
49.63
44.94
37.44
28.26
18.58
9.48
1.88
-3.41
-5.86
-5.28
-1.98
3.32
9.69
16.2
22.16
27.17
31.09
33.97
35.92
37.08
37.61
37.66
37.31
36.62
35.65
34.42
33.06
31.74
30.67
30.0
29.78
29.82
29.73
28.88
26.6
22.3
15.66
6.78
-3.8
-15.06
-25.66
-34.17
-39.43
-40.9
-38.95
-34.79
-30.02
-25.98
-23.11
-20.74
-17.38
-11.39
-1.82
11.23
26.59
42.49
57.16
69.14
77.45
81.48
80.85
75.51
65.81
52.62
37.34
21.69
7.28
-4.6
-13.32
-18.86
-21.74
-22.72
-22.63
-22.21
-22.07
-22.72
-24.5
-27.57
-31.84
-36.93
-42.36
-47.62
-52.53
-57.21
-62.13
-67.85
-74.83
-83.02
-91.84
-100.09
-106.17
-108.44
-105.56
-96.89
-82.71
-64.2
-43.22
-21.86
-2.06
14.74
27.71
36.61
41.59
43.09
41.75
38.38
33.94
29.4
25.65
23.29
22.55
23.3
25.07
27.3
29.43
31.07
32.09
32.54
32.54
32.13
31.12
29.11
25.58
20.04
12.25
2.29
-9.45
-22.4
-35.87
-49.06
-61.03
-70.6
-76.53
-77.73
-73.57
-64.08
-49.99
-32.44
-12.78
7.76
28.13
47.47
65.02
80.12
92.13
100.54
105.05
105.62
102.57
96.59
88.63
79.74
70.86
62.61
55.31
48.99
43.55
38.87
34.87
31.4
28.22
25.02
21.35
16.83
11.23
4.55
-2.97
-10.89
-18.71
-26.05
-32.79
-39.12
-45.54
-52.72
-61.25
-71.38
-82.82
-94.59
-105.04
-112.23
-114.41
-110.58
-100.94
-86.84
-70.45
-54.08
-39.44
-27.33
-17.54
-9.28
-1.68
5.74
12.97
19.66
25.33
29.72
32.84
34.98
36.57
38.06
39.77
41.78
43.91
45.7
46.53
45.82
43.23
38.79
32.86
26.03
18.88
11.83
5.12
-1.2
-7.15
-12.76
-18.11
-23.34
-28.64
-34.31
-40.64
-47.86
-56.07
-65.07
-74.32
-82.83
-89.15
-91.5
-88.05
-77.27
-58.41
-31.79
1.08
37.68
74.9
109.52
138.71
160.42
173.73
178.91
177.43
171.61
164.04
156.9
151.35
147.27
143.36
137.8
128.89
115.69
98.2
77.2
53.76
28.92
3.28
-22.92
-49.62
-76.62
-103.29
-128.49
-150.61
-167.89
-178.85
-182.77
-180.05
-172.23
-161.63
-150.68
-141.1
-133.24
-126.01
-117.23
-104.58
-86.56
-63.29
-36.74
-10.22
12.66
29.01
37.49
38.42
33.25
23.91
12.18
-0.46
-12.57
-22.52
-28.48
-28.95
-23.42
-12.89
0.26
12.99
22.6
27.61
28.01
24.84
19.46
12.82
5.1
-4.12
-15.38
-28.84
-43.93
-59.43
-73.77
-85.46
-93.49
-97.55
-98.01
-95.79
-92.0
-87.61
-83.18
-78.85
-74.36
-69.21
-62.89
-54.97
-45.16
-33.42
-20.02
-5.55
9.01
22.5
34.02
43.17
50.37
56.7
63.54
72.03
82.74
95.6
109.97
125.0
139.72
152.95
163.29
169.18
169.17
162.46
149.16
130.33
107.6
82.61
56.73
30.84
5.67
-18.02
-39.24
-56.98
-70.49
-79.56
-84.64
-86.69
-86.87
-86.24
-85.54
-85.23
-85.59
-86.95
-89.64
-93.93
-99.78
-106.61
-113.43
-119.16
-123.04
-124.93
-125.27
-124.81
-124.14
-123.47
-122.56
-120.85
-117.69
-112.47
-104.66
-93.74
-79.31
-61.15
-39.41
-14.72
11.79
38.7
64.56
88.24
109.15
127.35
143.24
157.22
169.27
178.88
185.36
188.22
187.65
184.56
180.28
176.13
173.0
171.26
170.9
171.54
172.42
172.22
169.05
160.8
145.82
123.63
95.32
63.37
30.86
0.62
-25.46
-46.67
-63.24
-75.97
-85.96
-94.35
-102.13
-109.79
-116.97
-122.23
-123.26
-117.72
-104.32
-83.78
-58.98
-34.33
-14.34
-2.22
0.89
-4.09
-15.03
-29.59
-45.95
-62.99
-80.13
-96.83
-112.34
-125.54
-134.98
-138.98
-135.72
-123.6
-101.67
-70.25
-31.4
11.04
52.08
86.73
111.28
124.28
126.67
121.3
111.83
101.74
93.52
88.53
87.06
88.52
91.81
95.37
97.6
97.19
93.47
86.71
77.91
68.45
59.55
51.9
45.56
40.17
35.27
30.6
26.25
22.53
19.73
18.01
17.29
17.24
17.48
17.66
17.66
17.59
17.83
18.81
20.71
23.1
24.8
23.93
18.48
6.96
-10.94
-34.18
-60.68
-87.95
-113.79
-136.81
-156.35
-172.34
-184.87
-194.09
-200.2
-203.55
-204.76
-204.59
-203.68
-202.27
-200.05
-196.21
-189.65
-179.42
-165.03
-146.7
-125.39
-102.71
-80.48
-60.34
-43.31
-29.55
-18.37
-8.51
1.47
12.63
25.4
39.51
54.06
67.96
80.17
90.04
97.37
102.34
105.37
106.96
107.53
107.41
106.81
105.85
104.59
103.03
101.28
99.5
97.98
96.81
95.78
94.28
91.45
86.43
78.67
68.05
54.9
39.98
24.46
9.92
-1.66
-8.32
-8.57
-1.94
10.62
26.85
43.73
58.15
67.58
70.5
66.55
56.52
42.17
25.79
9.77
-3.94
-14.23
-20.79
-23.95
-24.44
-23.02
-20.41
-17.16
-13.68
-10.17
-6.56
-2.6
2.03
7.51
13.76
20.43
26.99
32.84
37.44
40.39
41.49
40.88
39.02
36.54
33.94
31.29
28.08
23.38
16.35
6.74
-4.93
-17.41
-29.14
-38.76
-45.38
-48.71
-48.91
-46.66
-42.98
-39.3
-37.24
-38.34
-43.69
-53.65
-67.89
-85.53
-105.4
-126.07
-145.74
-162.04
-172.16
-173.27
-163.4
-142.2
-111.38
-74.38
-35.55
1.03
32.49
57.65
76.91
91.68
103.6
113.79
122.4
128.53
130.63
127.09
116.96
