89.99
91.95
92.09
90.37
87.27
83.64
80.6
79.08
79.58
81.99
85.64
89.5
92.61
94.38
94.9
94.99
95.92
98.99
104.92
113.35
122.69
130.33
133.3
129.09
116.26
94.86
66.28
32.85
-2.75
-38.1
-71.36
-101.35
-127.38
-148.95
-165.54
-176.63
-181.87
-181.49
-176.45
-168.44
-159.38
-151.01
-144.37
-139.67
-136.47
-134.02
-131.56
-128.51
-124.56
-119.56
-113.57
-106.75
-99.37
-91.79
-84.39
-77.52
-71.62
-67.2
-64.84
-65.02
-67.8
-72.59
-78.1
-82.51
-84.0
-81.28
-73.89
-62.27
-47.47
-30.7
-13.1
4.4
20.96
35.78
48.04
57.08
62.58
64.71
64.1
61.69
58.48
55.37
53.0
51.74
51.72
52.88
54.96
57.64
60.52
63.22
65.4
66.74
66.95
65.82
63.27
59.39
54.43
48.72
42.58
36.25
29.9
23.63
17.51
11.54
5.52
-0.91
-8.23
-16.82
-26.61
-36.98
-46.68
-54.12
-57.79
-56.68
-50.6
-40.21
-26.79
-11.89
3.09
17.12
29.52
39.83
47.69
52.8
55.08
54.8
52.65
49.67
46.89
45.07
44.48
44.99
46.23
47.86
49.59
51.23
52.63
53.55
53.78
53.14
51.56
49.01
45.49
41.07
35.88
30.18
24.34
18.74
13.55
8.7
3.83
-1.51
-7.74
-15.05
-23.42
-32.53
-41.71
-49.95
-55.94
-58.31
-56.02
-48.76
-37.09
-22.38
-6.39
9.23
23.18
34.76
43.68
49.98
53.85
55.64
55.75
54.74
53.16
51.48
50.1
49.19
48.81
48.9
49.33
49.96
50.62
51.15
51.38
51.14
50.3
48.79
46.63
43.96
40.96
37.75
34.34
30.68
26.66
22.33
17.85
13.48
9.4
5.6
1.78
-2.51
-7.75
-14.22
-21.85
-30.15
-38.18
-44.7
-48.44
-48.4
-44.18
-36.13
-25.37
-13.49
-2.18
7.21
13.87
17.66
18.97
18.53
17.1
15.35
13.74
12.52
11.81
11.71
12.29
13.65
15.77
18.53
21.67
24.85
27.74
30.07
31.71
32.66
33.0
32.8
32.08
30.74
28.58
25.35
20.92
15.35
8.97
2.37
-3.73
-8.61
-11.84
-13.4
-13.85
-14.15
-15.44
-18.58
-23.75
-30.33
-36.88
-41.56
-42.7
-39.28
-31.31
-19.82
-6.56
6.51
17.69
25.89
30.76
32.55
31.93
29.82
27.15
24.76
23.26
22.92
23.71
25.36
27.51
29.83
32.14
34.42
36.72
39.14
41.72
44.39
46.97
49.19
50.74
51.39
51.08
50.0
48.53
47.15
46.2
45.56
44.46
41.37
34.43
22.01
3.47
-20.3
-47.0
-73.37
-96.2
-113.04
-122.7
-125.13
-121.08
-111.74
-98.5
-82.84
-66.2
-49.8
-34.39
-20.09
-6.57
6.72
20.07
33.26
45.59
56.17
64.39
70.22
74.21
77.33
80.57
84.64
89.82
96.01
102.98
110.43
118.04
125.39
131.88
136.7
139.08
138.47
134.79
128.43
119.95
109.7
97.45
82.36
63.11
38.61
8.44
-26.72
-65.16
-104.53
-142.33
-176.21
-204.17
-224.42
-235.4
-235.94
-225.64
-205.31
-177.1
-144.29
-110.55
-79.19
-52.37
-30.92
-14.53
-2.3
6.73
13.25
17.63
20.11
21.0
20.8
20.18
19.76
20.0
21.03
22.73
24.84
27.12
29.46
31.9
34.48
37.05
39.26
40.57
40.46
38.68
35.33
30.89
26.02
21.32
17.11
13.39
9.87
6.2
2.11
-2.46
-7.36
-12.36
-17.23
-21.84
-26.1
-29.91
-33.01
-34.98
-35.26
-33.39
-29.14
-22.67
-14.6
-5.85
2.52
9.55
14.64
17.61
18.72
18.61
18.11
18.14
19.52
22.8
27.99
34.36
40.49
44.51
44.69
40.1
30.93
18.52
4.86
-8.09
-18.94
-27.18
-33.02
-37.11
-40.05
-42.31
-44.13
-45.62
-46.9
-48.18
-49.77
-52.03
-55.23
-59.39
-64.18
-68.84
-72.41
-73.96
-73.01
-69.69
-64.72
-59.12
-53.74
-49.01
-44.79
-40.66
-36.15
-31.03
-25.37
-19.42
-13.42
-7.57
-1.98
3.23
7.89
11.8
14.81
16.88
18.09
18.58
18.54
18.14
17.51
16.68
15.56
13.8
10.9
6.37
-0.09
-8.41
-18.12
-28.35
-38.07
-46.27
-52.22
-55.71
-57.07
-57.11
-56.77
-56.69
-56.82
-56.39
-54.18
-49.1
-40.71
-29.39
-16.26
-2.68
10.16
21.5
31.02
38.65
44.33
48.03
49.74
49.6
48.0
45.55
42.98
40.93
39.72
39.27
39.15
38.79
37.79
36.06
33.87
31.73
30.03
28.93
28.22
27.45
26.13
23.91
20.76
16.91
12.71
8.46
4.27
-0.03
-4.75
-10.18
-16.4
-23.13
-29.78
-35.56
-39.65
-41.44
-40.61
-37.27
-31.81
-24.94
-17.43
-10.05
-3.38
2.16
6.35
9.12
10.51
10.65
9.76
8.21
6.48
5.13
4.63
5.24
6.91
9.27
11.8
14.0
15.61
16.66
17.38
17.96
18.39
18.39
17.52
15.41
11.99
7.52
2.5
-2.55
-7.34
-11.91
-16.61
-22.0
-28.5
-36.32
-45.16
-54.3
-62.54
-68.48
-70.79
-68.53
-61.48
-50.22
-36.09
-20.77
-5.95
7.13
17.79
25.82
31.3
34.36
35.14
33.89
31.08
27.5
24.08
21.66
20.71
21.2
22.61
24.23
25.44
25.94
25.82
25.39
24.9
24.36
23.4
21.45
18.02
12.93
6.48
-0.67
-7.66
-13.77
-18.55
-21.93
-24.17
-25.79
-27.45
-29.81
-33.34
-38.1
-43.58
-48.66
-51.83
-51.61
-47.05
-38.03
-25.4
-10.65
4.41
18.16
29.36
37.31
41.75
42.71
40.52
35.77
29.34
22.3
15.79
10.69
7.42
5.93
5.74
6.26
7.07
8.05
9.43
11.54
14.56
18.28
22.11
25.28
27.09
27.29
26.16
24.38
22.69
21.54
20.85
20.08
18.45
15.28
10.34
3.88
-3.38
-10.43
-16.19
-19.76
-20.52
-18.31
-13.39
-6.47
1.52
9.57
16.72
22.25
25.67
26.82
25.89
23.43
20.29
17.43
15.65
15.36
16.49
18.57
21.05
23.55
26.04
28.71
31.83
35.56
39.79
44.27
48.5
51.86
53.58
52.96
49.59
43.54
35.42
26.11
16.29
6.13
-4.84
-17.42
-32.23
-49.25
-67.66
-85.96
-102.42
-115.36
-123.51
-125.95
-122.25
-112.49
-97.31
-77.96
-56.13
-33.77
-12.8
5.17
19.05
28.42
33.56
35.33
34.94
33.59
32.21
31.28
30.9
31.01
31.56
32.65
34.46
37.08
40.37
43.87
46.98
49.12
49.93
49.39
47.82
45.71
43.52
41.55
39.82
38.16
36.31
34.09
31.46
28.51
25.36
22.17
19.07
16.26
13.86
11.84
9.85
7.27
3.42
-2.11
-9.18
-17.13
-25.01
-31.94
-37.4
-41.26
-43.59
-44.48
-43.94
-42.04
-39.07
-35.55
-32.09
-29.1
-26.58
-24.06
-20.92
-16.65
-11.19
-5.02
1.08
6.38
10.51
13.64
16.36
19.34
23.0
27.31
31.84
35.92
38.97
40.57
40.48
38.51
34.46
28.14
19.45
8.45
-4.53
-18.97
-34.06
-48.8
-61.83
-71.68
-76.94
-76.71
-70.9
-60.38
-46.72
-31.76
-17.12
-3.87
7.48
16.83
24.25
29.8
33.6
35.77
36.61
36.6
36.37
36.62
38.0
40.86
45.11
50.13
54.89
58.2
59.09
57.09
52.34
45.42
37.06
27.87
18.21
8.21
-2.12
-12.69
-23.35
-33.87
-44.07
-53.93
-63.64
-73.56
-84.09
-95.5
-107.7
-120.08
-131.49
-140.29
-144.67
-143.18
-135.11
-120.85
-101.99
-80.83
-59.89
-41.23
-26.08
-14.77
-6.98
-2.1
0.5
1.39
1.13
0.38
-0.09
0.42
2.42
6.02
10.96
16.56
22.05
26.72
30.2
32.48
33.88
34.82
35.54
36.02
35.92
34.88
32.71
29.55
25.84
22.14
18.82
16.02
13.53
11.02
8.16
4.68
0.38
-4.93
-11.4
-19.05
-27.52
-35.9
-42.82
-46.65
-46.07
-40.52
-30.48
-17.36
-3.09
10.42
21.78
30.35
36.16
39.56
40.94
40.58
38.63
35.31
31.07
26.56
22.47
19.35
17.41
16.5
16.24
16.17
16.0
15.55
14.8
13.81
12.58
11.04
9.08
6.52
3.28
-0.66
-5.12
-9.77
-14.29
-18.39
-21.97
-25.09
-27.95
-30.82
-33.99
-37.79
-42.51
-48.25
-54.74
-61.19
-66.35
-68.72
-67.07
-60.78
-50.12
-36.15
-20.43
-4.62
9.87
22.1
31.63
38.37
42.48
44.27
44.09
42.38
39.65
36.47
33.45
31.1
29.76
29.53
30.2
31.41
32.73
33.79
34.4
34.5
34.09
33.12
31.45
28.84
25.16
20.43
14.98
9.31
3.94
-0.75
-4.71
-8.21
-11.74
-15.84
-20.93
-27.16
-34.27
-41.64
-48.24
-52.86
-54.34
-51.85
-45.21
-34.94
-22.22
-8.58
4.45
15.68
24.43
30.53
34.14
35.56
35.12
33.17
30.12
26.51
23.04
20.38
19.02
19.06
20.19
21.87
23.49
24.62
25.08
24.91
24.19
22.97
21.16
18.67
15.49
11.72
7.55
3.21
-1.12
-5.37
-9.46
-13.35
-17.03
-20.55
-24.09
-27.97
-32.58
-38.24
-45.03
-52.54
-59.92
-65.81
-68.73
-67.38
-61.15
-50.31
-36.04
-20.11
-4.36
9.7
21.17
29.74
35.51
38.78
39.93
39.44
37.81
35.63
33.44
31.61
30.3
29.52
29.24
29.41
30.02
30.99
32.11
33.03
33.31
32.58
30.68
27.74
24.08
20.13
16.23
12.51
8.91
5.24
1.3
-3.01
-7.6
-12.27
-16.8
-21.01
-24.89
-28.63
-32.64
-37.36
-43.21
-50.2
-57.84
-65.03
-70.21
-71.75
-68.48
-60.08
-47.28
-31.62
-15.04
0.67
14.18
24.82
32.47
37.32
39.79
40.36
39.52
37.78
35.6
33.38
31.45
30.01
29.13
28.79
28.87
29.19
29.58
29.86
29.95
29.77
29.19
28.09
26.35
23.91
20.83
17.31
13.6
9.94
6.4
2.93
-0.63
-4.43
-8.49
-12.67
-16.73
-20.46
-23.83
-27.06
-30.59
-34.98
-40.62
-47.55
-55.23
-62.51
-67.85
-69.63
-66.68
-58.69
-46.39
-31.34
-15.55
-0.8
11.65
21.26
28.09
32.47
34.8
35.44
34.74
33.09
30.94
28.71
26.77
25.36
24.53
24.33
24.72
25.66
27.0
28.5
29.79
30.47
30.23
28.88
26.45
23.12
19.22
15.03
10.82
6.69
2.68
-1.26
-5.16
-9.01
-12.74
-16.31
-19.74
-23.15
-26.78
-30.95
-35.98
-42.04
-48.93
-55.99
-62.0
-65.46
-64.97
-59.72
-49.9
-36.66
-21.75
-7.02
6.16
17.04
25.4
31.31
34.9
36.32
35.8
33.79
30.94
27.99
25.59
24.18
23.93
24.76
26.42
28.57
30.79
32.7
34.05
34.68
34.62
33.97
32.82
31.25
29.29
26.98
24.42
21.72
18.99
16.34
13.87
11.71
10.02
8.96
8.56
8.67
9.02
9.31
9.39
9.39
9.72
10.95
13.62
18.14
24.65
32.91
42.33
51.99
60.74
67.53
71.59
72.67
71.03
67.25
61.96
55.63
48.46
40.5
31.82
22.62
13.27
4.16
-4.37
-12.13
-19.07
-25.17
-30.43
-34.82
-38.34
-41.04
-43.13
-44.87
-46.48
-48.07
-49.52
-50.63
-51.23
-51.3
-51.06
-50.82
-50.8
-51.03
-51.27
-51.22
-50.72
-49.89
-49.08
-48.77
-49.25
-50.48
-52.05
-53.24
-53.17
-50.99
-45.99
-37.81
-26.61
-13.2
1.07
14.66
26.23
35.09
41.29
45.42
48.16
49.94
50.75
50.37
48.62
45.66
42.0
38.28
34.98
32.18
29.64
26.98
23.88
20.27
16.32
12.37
8.73
5.62
3.06
0.9
-1.08
-3.15
-5.44
-7.96
-10.61
-13.24
-15.84
-18.58
-21.8
-25.98
-31.43
-38.16
-45.77
-53.35
-59.72
-63.63
-64.12
-60.7
-53.55
-43.45
-31.57
-19.19
-7.44
2.85
11.2
17.38
21.29
22.92
22.37
19.95
16.21
11.91
7.89
4.79
2.94
2.24
2.36
2.82
3.29
3.59
3.71
3.72
3.59
3.2
2.31
0.75
-1.52
-4.29
-7.17
-9.73
-11.74
-13.27
-14.73
-16.67
-19.7
-24.16
-30.07
-37.05
-44.42
-51.21
-56.41
-59.12
-58.76
-55.25
-49.0
-40.87
-31.92
-23.24
-15.65
-9.69
-5.57
-3.24
-2.4
-2.68
-3.63
-4.82
-5.96
-6.91
-7.66
-8.3
-8.89
-9.46
-9.98
-10.41
-10.74
-11.02
-11.3
-11.7
-12.27
-13.03
-13.93
-14.91
-15.91
-16.93
-18.11
-19.7
-21.98
-25.12
-29.03
-33.3
-37.18
-39.69
-39.89
-37.07
-30.97
-21.92
-10.78
1.26
12.92
23.15
31.26
36.99
40.39
41.72
41.3
39.51
36.71
33.33
29.81
26.54
23.79
21.66
20.06
18.76
17.49
15.99
14.05
11.56
8.48
4.83
0.69
-3.72
-8.22
-12.55
-16.59
-20.35
-24.01
-27.89
-32.34
-37.54
-43.3
-48.93
-53.27
-54.89
-52.5
-45.35
-33.53
-18.0
-0.32
17.74
34.66
49.35
61.28
70.29
76.46
80.04
81.41
81.16
80.05
78.89
78.33
78.69
79.75
80.75
80.57
78.06
72.4
63.4
51.51
37.67
22.89
7.98
-6.63
-20.69
-33.95
-46.05
-56.63
-65.72
-73.99
-82.72
-93.3
-106.46
-121.77
-137.44
-150.89
-159.53
-161.59
-156.47
-144.7
-127.54
-106.6
-83.55
-59.96
-37.25
-16.54
1.4
16.27
28.16
37.47
44.67
50.21
54.44
57.68
60.17
62.06
63.48
64.48
65.08
65.3
65.14
64.61
63.59
62.0
59.71
56.74
53.23
49.53
46.1
43.33
41.44
40.28
39.36
37.9
35.08
30.25
23.12
13.85
3.08
-8.13
-18.46
-26.47
-30.97
-31.19
-27.13
-19.56
-9.84
0.46
9.92
17.58
23.01
26.21
27.47
27.15
25.67
23.42
20.77
18.06
15.58
13.61
12.33
11.77
11.84
12.32
12.86
13.16
13.07
12.57
11.78
10.85
9.77
8.44
6.62
4.12
0.87
-2.93
-6.91
-10.63
-13.77
-16.26
-18.38
-20.64
-23.64
-27.79
-33.11
-39.14
-44.99
-49.5
-51.58
-50.44
-45.82
-38.04
-27.95
-16.68
-5.45
4.68
13.04
19.28
23.43
25.7
26.41
25.88
24.5
22.63
20.72
19.19
18.35
18.32
18.99
20.03
21.04
21.72
21.93
21.72
21.25
20.59
19.73
18.53
16.79
14.44
11.52
8.2
4.73
1.31
-1.96
-5.05
-7.99
-10.85
-13.76
-16.88
-20.44
-24.62
-29.33
-34.19
-38.45
-41.13
-41.29
-38.36
-32.28
-23.62
-13.42
-2.89
6.85
15.03
21.29
25.6
28.16
29.21
29.0
27.83
26.0
23.95
22.09
20.77
20.15
20.16
20.55
21.01
21.3
21.28
20.94
20.28
19.31
17.96
16.17
13.86
11.06
7.86
4.42
0.95
-2.35
-5.35
-7.99
-10.38
-12.73
-15.3
-18.27
-21.7
-25.41
-29.04
-32.09
-34.05
-34.51
-33.22
-30.18
-25.51
-19.44
-12.2
-4.03
4.84
14.1
23.35
32.03
39.48
45.02
48.17
48.74
46.95
43.41
38.97
34.54
30.83
28.2
26.52
25.4
24.22
22.49
19.96
16.64
12.78
8.67
4.55
0.45
-3.86
-8.76
-14.67
-21.87
-30.25
-39.29
-48.04
-55.48
-60.85
-63.97
-65.28
-65.7
-66.26
-67.62
-69.86
-72.38
-74.05
-73.62
-70.04
-62.83
-52.26
-39.26
-25.19
-11.47
0.78
10.86
18.56
23.98
27.32
28.84
28.8
27.53
25.52
23.35
21.59
20.62
20.57
21.3
22.52
23.96
25.44
26.89
28.29
29.56
30.58
31.17
31.19
30.58
29.39
27.75
25.83
23.85
22.01
20.43
19.11
17.96
16.81
15.52
14.04
12.36
10.5
8.4
5.85
2.62
-1.4
-6.06
-10.8
-14.78
-17.08
-17.03
-14.42
-9.6
-3.42
3.04
8.79
13.13
15.73
16.61
15.97
14.1
11.27
7.77
3.96
0.22
-3.05
-5.55
-7.16
-7.89
-7.84
-7.15
-5.91
-4.12
-1.76
1.27
5.07
9.69
15.0
20.6
25.75
29.54
31.16
30.19
26.79
21.64
15.67
9.74
4.38
-0.28
-4.47
-8.56
-12.94
-17.93
-23.64
-29.89
-36.15
-41.58
-45.19
-46.13
-43.99
-38.93
-31.69
-23.3
-14.82
-7.11
-0.67
4.22
7.48
9.13
9.29
8.25
6.45
4.44
2.69
1.54
1.08
1.23
1.85
2.81
4.01
5.37
6.79
8.1
9.1
9.59
9.5
8.92
8.05
7.07
6.05
4.88
3.29
1.08
-1.84
-5.28
-8.91
-12.39
-15.56
-18.5
-21.53
-25.03
-29.29
-34.35
-39.9
-45.31
-49.75
-52.28
-52.08
-48.64
-41.82
-31.95
-19.75
-6.21
7.58
20.63
32.17
41.78
49.36
55.08
59.28
62.27
64.32
65.61
66.25
66.38
66.19
