15.7
11.64
7.89
4.67
1.8
-1.35
-5.8
-12.78
-23.36
-38.05
-56.29
-76.31
-95.34
-110.2
-118.19
-117.85
-109.29
-93.96
-74.13
-52.11
-29.79
-8.53
10.68
27.09
40.0
48.98
54.04
55.87
55.77
55.28
55.79
58.04
61.97
66.91
71.94
76.33
79.87
82.82
85.58
88.45
91.29
93.59
94.6
93.74
90.8
86.09
80.22
73.9
67.64
61.67
55.95
50.22
44.18
37.49
29.81
20.87
10.58
-0.74
-12.15
-22.09
-28.57
-29.68
-24.26
-12.34
4.68
24.32
43.68
60.24
72.39
79.58
82.1
80.64
76.03
69.12
60.89
52.49
45.06
39.44
35.85
33.85
32.64
31.56
30.56
30.25
31.5
34.92
40.39
46.99
53.34
58.15
60.56
60.26
57.37
52.16
44.89
35.87
25.58
14.66
3.9
-6.08
-15.04
-23.32
-31.73
-41.27
-52.85
-66.85
-82.78
-99.19
-113.69
-123.41
-125.69
-119.0
-103.5
-81.22
-55.53
-30.07
-7.75
9.92
22.83
31.78
37.74
41.34
42.88
42.55
40.8
38.5
36.73
36.37
37.75
40.52
43.86
46.89
49.06
50.29
50.85
51.11
51.2
50.89
49.75
47.39
43.75
39.14
34.07
28.94
23.81
18.4
12.3
5.29
-2.43
-10.28
-17.63
-24.14
-30.02
-36.01
-43.06
-51.93
-62.8
-75.09
-87.47
-98.1
-104.87
-105.9
-99.81
-86.2
-65.83
-40.67
-13.64
12.04
33.66
49.65
59.88
65.32
67.51
67.79
66.96
65.26
62.64
59.11
54.81
50.04
45.0
39.79
34.46
29.28
24.79
21.73
20.65
21.5
23.57
25.63
26.42
25.19
21.98
17.49
12.65
8.1
3.93
-0.26
-5.06
-10.84
-17.64
-25.2
-33.22
-41.56
-50.21
-59.18
-68.33
-77.32
-85.49
-91.95
-95.57
-95.02
-89.11
-77.12
-59.26
-36.96
-12.68
10.74
30.88
46.41
57.24
64.26
68.64
71.28
72.57
72.5
71.02
68.34
65.0
61.68
58.93
56.95
55.57
54.46
53.35
52.18
51.01
49.91
48.76
47.23
44.89
41.42
36.76
31.1
24.74
17.95
10.84
3.38
-4.44
-12.54
-20.69
-28.68
-36.42
-44.03
-51.86
-60.23
-69.28
-78.75
-87.87
-95.49
-100.19
-100.61
-95.79
-85.48
-70.32
-51.69
-31.49
-11.63
6.38
21.62
33.82
43.07
49.66
53.84
55.92
56.2
55.06
52.86
49.95
46.6
43.11
39.87
37.35
36.0
36.05
37.34
39.29
41.1
41.97
41.44
39.43
36.26
32.39
28.22
23.96
19.57
14.86
9.71
4.11
-1.74
-7.54
-13.02
-18.09
-22.9
-27.81
-33.22
-39.47
-46.6
-54.23
-61.56
-67.35
-70.27
-69.16
-63.44
-53.33
-39.87
-24.66
-9.43
4.35
15.72
24.31
30.2
33.72
35.31
35.4
34.43
32.87
31.16
29.74
28.9
28.76
29.23
30.07
31.04
31.97
32.9
33.94
35.19
36.63
38.03
39.02
39.21
38.32
36.23
33.01
28.82
23.83
18.17
11.77
4.47
-3.99
-13.8
-24.85
-36.58
-48.08
-58.26
-66.28
-71.78
-74.93
-76.29
-76.34
-75.23
-72.61
-67.8
-60.17
-49.49
-36.14
-21.15
-5.87
8.27
20.1
28.91
34.41
36.7
36.11
33.15
28.45
22.77
16.93
11.75
7.85
5.59
5.01
5.89
7.76
10.08
12.23
13.68
13.93
12.68
9.86
5.62
0.35
-5.43
-11.24
-16.68
-21.51
-25.63
-29.03
-31.79
-34.05
-36.04
-38.15
-40.79
-44.4
-49.22
-55.23
-61.93
-68.36
-73.21
-75.07
-72.85
-66.1
-55.3
-41.7
-26.97
-12.75
-0.26
9.89
17.61
23.09
26.6
28.42
28.85
28.27
27.15
25.94
25.0
24.47
24.34
24.49
24.85
25.42
26.23
27.29
28.49
29.6
30.28
30.2
29.13
27.06
24.16
20.76
17.23
13.87
10.79
7.89
4.92
1.62
-2.18
-6.46
-11.03
-15.57
-19.83
-23.76
-27.57
-31.69
-36.65
-42.71
-49.67
-56.73
-62.52
-65.53
-64.51
-58.97
-49.28
-36.63
-22.59
-8.75
3.69
14.01
21.97
27.62
31.15
32.89
33.15
32.32
30.82
29.03
27.27
25.78
24.69
24.06
23.89
24.16
24.84
25.89
27.14
28.35
29.16
29.27
28.45
26.72
24.31
21.55
18.78
16.2
13.79
11.35
8.68
5.61
2.14
-1.56
-5.25
-8.71
-11.8
-14.64
-17.54
-20.92
-25.22
-30.61
-36.85
-43.16
-48.33
-50.97
-49.87
-44.47
-35.0
-22.51
-8.57
5.12
17.2
26.84
33.86
38.46
41.11
42.28
42.39
41.86
41.12
40.6
40.71
41.65
43.38
45.56
47.69
49.27
50.01
49.94
49.37
48.65
48.02
47.43
46.54
44.97
42.5
39.24
35.58
32.03
28.97
26.49
24.34
22.11
19.5
16.33
12.63
8.47
3.77
-1.7
-8.29
-16.33
-25.82
-36.37
-47.18
-57.19
-65.41
-71.18
-74.29
-75.05
-73.99
-71.72
-68.73
-65.33
-61.81
-58.47
-55.67
-53.63
-52.25
-50.95
-48.84
-45.0
-38.94
-30.79
-21.26
-11.28
-1.6
7.46
16.0
24.27
32.32
39.87
46.23
50.63
52.42
51.27
47.21
40.64
32.14
22.42
12.16
1.91
-7.93
-17.1
-25.4
-32.6
-38.4
-42.52
-44.81
-45.39
-44.75
-43.66
-43.04
-43.69
-46.12
-50.33
-55.79
-61.36
-65.51
-66.66
-63.62
-55.99
-44.25
-29.63
-13.62
2.4
17.28
30.01
39.5
44.53
43.93
36.99
23.84
5.72
-15.11
-35.71
-52.87
-63.71
-66.33
-60.25
-46.61
-27.94
-7.53
11.44
26.65
37.01
42.59
44.28
43.22
40.47
36.82
32.81
28.85
25.32
22.6
21.05
20.9
22.09
24.33
27.12
29.94
32.3
33.82
34.16
32.96
29.82
24.43
16.87
7.79
-1.48
-9.08
-13.12
-12.24
-6.11
4.36
17.25
30.25
41.39
49.55
54.63
57.1
57.44
55.66
51.27
43.67
32.68
18.91
3.65
-11.58
-25.5
-37.34
-46.71
-53.31
-56.72
-56.62
-53.1
-47.05
-40.08
-34.06
-30.35
-29.27
-30.12
-31.5
-32.11
-31.24
-28.92
-25.72
-22.34
-19.27
-16.77
-14.98
-14.09
-14.51
-16.71
-21.05
-27.68
-36.46
-47.08
-59.07
-71.8
-84.35
-95.38
-103.27
-106.4
-103.67
-94.93
-81.22
-64.51
-47.21
-31.48
-18.73
-9.41
-3.12
0.94
3.64
5.73
7.7
9.93
12.72
16.34
20.92
26.44
32.66
39.22
45.68
51.68
56.98
61.47
65.11
67.93
69.96
71.21
71.61
70.98
69.12
65.72
60.51
53.31
44.09
32.96
20.18
6.15
-8.54
-23.15
-36.85
-48.92
-58.97
-67.1
-73.75
-79.32
-83.77
-86.26
-85.35
-79.45
-67.61
-49.98
-27.95
-3.77
20.22
42.21
61.26
77.25
90.5
101.43
110.37
117.45
122.64
125.63
125.75
122.01
113.34
99.03
79.2
55.03
28.6
2.31
-21.75
-42.39
-59.38
-73.26
-84.89
-94.97
-103.8
-111.24
-116.89
-120.41
-121.68
-120.92
-118.6
-115.22
-111.13
-106.49
-101.34
-95.82
-90.31
-85.45
-82.06
-80.85
-82.07
-85.33
-89.45
-92.73
-93.28
-89.52
-80.63
-66.79
-49.08
-29.22
-9.09
9.7
26.05
39.43
49.71
56.99
61.48
63.43
63.28
61.66
59.39
57.37
56.32
56.63
58.27
60.93
64.05
67.12
69.7
71.47
72.23
71.85
70.37
67.99
65.11
62.26
59.86
58.09
56.8
55.63
54.2
52.4
50.47
48.9
48.05
47.88
47.8
46.66
43.14
36.04
24.62
8.91
-10.22
-30.93
-50.66
-66.6
-76.31
-78.46
-73.16
-61.93
-47.16
-31.36
-16.57
-4.07
5.47
11.81
14.85
14.68
11.66
6.48
0.16
-6.21
-11.76
-15.95
-18.52
-19.29
-17.93
-14.0
-7.13
2.56
14.28
26.55
37.64
46.12
51.24
53.19
52.84
51.39
49.86
48.77
48.08
47.24
45.53
42.33
37.33
30.65
22.78
14.29
5.6
-3.17
-12.33
-22.31
-33.54
-46.05
-59.33
-72.29
-83.33
-90.75
-93.07
-89.48
-80.13
-66.2
-49.63
-32.67
-17.32
-4.83
4.41
10.71
14.69
16.97
17.92
17.81
16.89
15.59
14.42
13.89
14.36
15.9
18.32
21.22
24.15
26.64
28.31
28.98
28.64
27.52
25.95
24.22
22.47
20.68
18.69
16.35
13.64
10.66
7.63
4.74
2.12
-0.3
-2.74
-5.57
-9.21
-14.06
-20.37
-28.02
-36.39
-44.27
-50.01
-51.98
-49.09
-41.25
-29.55
-15.98
-2.75
8.29
16.21
20.97
23.22
23.83
23.53
22.7
21.38
19.42
16.67
13.24
9.62
6.74
5.84
8.03
13.93
23.25
34.78
46.68
56.99
64.22
67.68
67.56
64.64
59.98
54.57
49.12
43.95
39.05
34.19
29.11
23.61
17.67
11.39
4.9
-1.77
-8.71
-16.17
-24.37
-33.5
-43.54
-54.14
-64.47
-73.23
-78.86
-79.86
-75.4
-65.61
-51.67
-35.5
-19.2
-4.48
7.59
16.61
22.65
26.03
27.19
26.65
25.07
23.13
21.44
20.36
20.01
20.23
20.77
21.47
22.3
23.41
24.91
26.83
28.91
30.73
31.76
31.61
30.11
27.39
23.83
19.84
15.79
11.87
8.06
4.21
0.11
-4.35
-9.17
-14.2
-19.23
-24.09
-28.75
-33.38
-38.34
-44.04
-50.77
-58.47
-66.49
-73.64
-78.35
-79.14
-75.07
-66.18
-53.53
-38.95
-24.52
-11.96
-2.24
4.48
8.64
10.85
11.68
11.42
10.28
8.49
6.44
4.67
3.63
3.55
4.39
5.99
8.23
11.23
15.35
20.9
27.9
35.76
43.4
49.51
53.04
53.66
51.84
48.7
45.46
42.97
41.4
40.3
38.92
36.64
33.21
28.82
23.88
18.81
13.83
8.97
4.06
-1.08
-6.72
-13.1
-20.51
-29.1
-38.69
-48.55
-57.39
-63.53
-65.38
-61.98
-53.38
-40.77
-26.14
-11.65
1.01
10.91
17.97
22.56
25.18
26.23
25.99
24.77
23.02
21.34
20.27
20.11
20.8
22.05
23.47
24.79
25.9
26.78
27.36
27.43
26.7
24.93
22.07
18.32
14.07
9.71
5.51
1.62
-1.94
-5.2
-8.21
-11.04
-13.9
-17.08
-20.9
-25.53
-31.0
-37.16
-43.83
-50.84
-58.0
-64.96
-70.95
-74.82
-75.25
-71.18
-62.27
-49.14
-33.27
-16.6
-0.96
12.37
22.76
30.17
34.9
37.4
38.12
37.55
36.28
34.97
34.29
34.77
36.62
39.66
43.36
46.95
49.62
50.7
49.76
46.65
41.46
34.52
26.32
17.45
8.57
0.3
-6.99
-13.21
-18.55
-23.43
-28.24
-33.21
-38.39
-43.67
-48.95
-54.3
-59.93
-66.11
-72.83
-79.59
-85.24
-88.21
-87.06
-80.97
-70.23
-56.18
-40.81
-26.02
-13.16
-2.7
5.49
11.72
16.17
18.8
19.54
18.54
16.38
13.93
12.09
11.46
12.15
13.83
15.87
17.71
19.0
19.72
20.09
20.35
20.61
20.72
20.34
19.11
16.82
13.49
9.42
5.03
0.74
-3.17
-6.63
-9.71
-12.61
-15.68
-19.25
-23.65
-29.03
-35.22
-41.57
-46.97
-50.06
-49.63
-45.04
-36.48
-25.0
-12.13
0.61
12.09
21.8
29.64
35.67
39.91
42.26
42.69
41.4
38.96
36.24
34.19
33.52
34.46
36.68
39.39
41.61
42.56
42.0
40.32
38.44
37.44
38.16
40.84
45.08
49.94
54.16
56.51
56.0
52.12
44.93
35.17
24.08
13.12
3.56
-3.96
-9.51
-13.67
-17.06
-19.93
-21.88
-22.06
-19.68
-14.39
-6.53
2.99
13.13
23.1
32.55
41.43
49.7
57.04
62.79
66.11
66.42
63.57
58.04
50.66
42.35
33.81
25.4
17.23
9.24
1.39
-6.32
-13.84
-21.17
-28.36
-35.4
-42.27
-48.85
-54.97
-60.52
-65.41
-69.6
-73.02
-75.61
-77.34
-78.33
-78.93
-79.75
-81.52
-84.83
-89.93
-96.51
-103.73
-110.36
-115.01
-116.37
-113.48
-105.78
-93.35
-76.85
-57.55
-37.13
-17.36
0.26
14.81
26.05
34.31
40.12
43.99
46.24
47.09
46.82
45.89
44.92
44.53
45.12
46.8
49.37
52.47
55.72
58.79
61.44
63.41
64.44
64.3
62.82
59.97
55.83
50.69
45.01
39.41
34.48
30.66
28.05
26.41
25.2
23.81
21.75
18.72
14.62
9.49
3.48
-3.15
-9.89
-15.95
-20.4
-22.44
-21.81
-18.98
-15.19
-11.99
-10.68
-11.72
-14.58
-17.93
-20.35
-21.03
-20.18
-18.86
-18.35
-19.33
-21.48
-23.49
-23.78
-21.25
-15.86
-8.53
-0.62
6.85
13.65
20.23
27.29
35.1
43.27
50.78
56.47
59.45
59.34
56.19
50.27
41.9
31.33
18.82
4.62
-11.16
-28.51
-47.45
-67.62
-87.85
-105.99
-119.1
-124.26
-119.58
-105.03
-82.61
-55.82
-28.49
-3.59
17.41
34.53
48.56
60.3
69.94
77.04
81.1
82.23
81.51
80.69
81.5
84.54
88.76
91.6
89.87
81.13
64.64
41.74
15.22
-11.66
-36.23
-56.77
-72.44
-82.88
-87.97
-87.98
-83.86
-77.41
-70.87
-66.19
-64.28
-64.68
-66.04
-66.99
-66.98
-66.6
-67.07
-69.36
-73.3
-77.3
-78.88
-75.56
-65.89
-50.02
-29.59
-7.18
14.41
32.7
45.9
52.96
53.58
48.24
38.11
24.84
10.33
-3.64
-15.67
-24.86
-30.8
-33.51
-33.37
-30.88
-26.59
-20.8
-13.42
-4.01
8.01
22.87
40.14
58.61
76.57
92.29
104.51
112.65
116.7
116.88
113.39
106.43
96.41
84.27
71.58
60.32
52.33
48.78
49.71
53.87
58.8
61.23
57.77
45.9
24.96
-3.16
-34.11
-62.05
-81.35
-88.21
-81.89
-64.67
-41.06
-16.31
5.0
19.9
27.4
28.28
24.53
18.68
13.15
9.75
9.39
12.12
17.21
23.42
29.36
33.78
35.83
35.29
32.53
28.4
23.96
20.11
17.32
15.56
14.36
13.08
11.17
8.39
4.86
0.89
-3.21
-7.35
-11.78
-16.94
-23.2
-30.53
-38.35
-45.57
-50.88
-53.14
-51.78
-46.9
-39.31
-30.21
-20.96
-12.7
-6.24
-1.89
0.4
0.97
0.29
-1.17
-3.1
-5.35
-7.98
-11.11
-14.84
-19.09
-23.61
-28.01
-31.93
-35.23
-38.12
-41.11
-44.86
-49.87
-56.36
-64.16
-72.83
-81.87
-90.92
-99.82
-108.55
-117.25
-126.15
-135.67
-146.36
-158.67
-172.51
-186.73
-199.14
-206.95
-207.73
-200.33
-185.27
-164.4
-139.91
-113.59
-86.47
-59.17
-32.5
-7.85
13.11
28.92
39.0
43.66
43.74
40.09
33.3
23.84
12.48
0.61
-9.77
-16.51
-17.87
-13.06
-2.52
12.24
28.92
44.97
58.14
66.92
70.79
70.16
66.1
59.96
52.94
45.99
39.75
34.68
31.06
29.0
28.36
28.74
29.53
30.13
30.13
29.43
28.13
26.36
24.0
20.57
15.4
8.01
-1.5
-12.37
-23.32
-33.03
-40.53
-45.38
-47.64
-47.41
-44.7
-39.32
-31.12
-20.31
-7.6
5.86
18.79
30.1
39.15
45.75
50.1
52.66
53.98
54.65
55.23
56.11
57.47
59.26
61.2
62.94
64.14
64.57
64.12
62.7
60.3
56.93
52.72
47.94
42.96
38.11
33.53
29.13
24.6
19.53
13.55
6.48
-1.6
-10.41
-19.34
-27.57
-34.1
-37.94
-38.4
-35.3
-29.05
-20.58
-11.05
-1.51
7.18
14.49
20.11
23.86
25.73
25.8
24.4
21.93
18.9
15.83
13.23
11.54
11.14
12.19
14.55
17.73
21.01
23.63
25.15
25.46
24.85
23.7
22.24
20.44
18.05
14.85
10.81
6.15
1.29
-3.41
-7.75
-11.73
-15.56
-19.57
-24.18
-29.81
-36.78
-45.12
-54.35
-63.45
-70.92
-75.15
-74.79
-69.18
-58.58
-44.04
-27.3
-10.21
5.54
18.83
29.17
36.65
41.68
44.7
46.07
46.01
44.75
42.65
40.23
38.09
36.73
36.37
36.89
37.93
39.09
40.04
40.61
40.74
40.36
39.39
37.74
35.36
32.31
28.75
24.82
20.6
16.11
11.27
6.04
0.51
-5.11
-10.56
-15.66
-20.4
-25.03
-30.01
-35.85
-42.93
-51.17
-59.92
-67.92
-73.5
-74.98
-71.25
-62.16
-48.66
-32.54
-15.94
-0.72
12.0
21.83
28.97
33.85
36.83
38.15
37.99
36.63
34.56
32.38
30.69
29.9
30.11
31.2
32.84
34.68
36.37
37.69
38.46
38.58
37.95
36.41
33.83
30.09
25.26
19.6
13.58
7.75
2.58
-1.75
-5.4
-8.8
-12.51
-17.02
-22.65
-29.48
-37.28
-45.46
-53.0
-58.55
-60.63
-58.1
-50.6
-38.73
-24.01
-8.43
6.18
18.52
28.1
35.0
39.57
42.09
42.74
41.64
39.08
35.58
31.89
28.77
26.73
25.92
26.12
26.88
27.76
28.42
28.72
28.61
28.05
26.98
25.3
22.94
19.86
16.13
11.84
7.12
2.09
-3.08
-8.18
-13.04
-17.57
-21.85
-26.15
-30.86
-36.41
-43.05
-50.76
-59.13
-67.25
-73.82
-77.33
-76.44
-70.44
-59.53
-44.87
-28.28
-11.77
3.08
15.32
24.74
31.56
36.14
38.78
39.66
38.95
36.94
34.12
31.12
28.57
26.96
26.47
26.99
28.21
29.69
31.07
32.09
32.62
32.56
31.83
30.37
28.16
25.27
21.87
18.2
14.42
10.59
