16.22
7.98
0.88
-5.01
-10.21
-15.63
-22.25
-30.85
-41.7
-54.4
-67.79
-80.07
-89.07
-92.86
-90.43
-82.03
-69.14
-53.89
-38.2
-23.12
-8.71
5.54
20.02
34.43
47.75
58.75
66.49
70.85
72.49
72.46
71.81
71.16
70.7
70.29
69.71
68.83
67.68
66.32
64.7
62.52
59.15
53.89
46.22
36.14
24.26
11.77
-0.04
-10.19
-18.32
-24.7
-30.06
-35.28
-41.13
-48.14
-56.49
-65.85
-75.26
-83.12
-87.47
-86.48
-79.18
-65.86
-48.11
-28.35
-9.08
7.79
21.25
31.06
37.41
40.58
40.75
38.16
33.29
27.03
20.52
14.88
10.9
8.72
7.88
7.57
6.94
5.45
3.01
0.05
-2.65
-4.14
-3.58
-0.48
5.13
12.61
20.86
28.56
34.51
37.91
38.41
36.18
31.66
25.46
18.17
10.18
1.63
-7.64
-17.91
-29.23
-41.14
-52.47
-61.47
-66.31
-65.72
-59.43
-48.32
-34.13
-18.87
-4.28
8.46
18.81
26.68
32.21
35.65
37.27
37.42
36.56
35.25
34.11
33.6
34.03
35.37
37.43
39.89
42.47
44.92
46.98
48.25
48.26
46.5
42.67
36.87
29.57
21.58
13.7
6.52
0.32
-4.93
-9.39
-13.23
-16.57
-19.42
-21.71
-23.35
-24.33
-24.84
-25.34
-26.52
-29.04
-33.14
-38.41
-43.7
-47.44
-48.22
-45.24
-38.58
-29.13
-18.17
-6.95
3.53
12.67
20.12
25.74
29.46
31.35
31.57
30.44
28.36
25.84
23.38
21.52
20.73
21.23
22.92
25.36
27.85
29.71
30.46
30.01
28.55
26.42
23.89
21.1
18.02
14.58
10.82
6.92
3.13
-0.35
-3.48
-6.39
-9.3
-12.39
-15.59
-18.66
-21.26
-23.25
-24.84
-26.57
-29.04
-32.49
-36.54
-40.08
-41.66
-39.92
-34.17
-24.62
-12.26
1.41
14.9
26.99
36.93
44.39
49.32
51.86
52.25
50.84
48.06
44.4
40.4
36.57
33.35
31.01
29.6
28.93
28.64
28.28
27.55
26.33
24.8
23.25
21.95
20.91
19.93
18.59
16.54
13.54
9.71
5.32
0.74
-3.76
-8.04
-12.13
-16.16
-20.34
-24.85
-29.86
-35.47
-41.65
-48.07
-54.04
-58.61
-60.7
-59.46
-54.58
-46.45
-36.09
-24.85
-14.05
-4.67
2.79
8.13
11.31
12.29
11.06
7.77
2.92
-2.64
-7.88
-11.83
-13.84
-13.73
-11.72
-8.23
-3.76
1.29
6.48
11.31
15.22
17.61
18.16
16.82
13.87
9.75
4.84
-0.65
-6.69
-13.27
-20.28
-27.48
-34.62
-41.61
-48.66
-56.24
-64.89
-74.96
-86.34
-98.37
-109.76
-118.75
-123.39
-122.02
-113.76
-98.92
-79.03
-56.57
-34.18
-14.13
2.25
14.58
23.13
28.41
30.89
30.97
29.1
25.95
22.38
19.36
17.61
17.44
18.75
21.05
23.74
26.21
28.0
28.82
28.59
27.36
25.29
22.58
19.37
15.74
11.68
7.2
2.35
-2.71
-7.74
-12.51
-16.83
-20.71
-24.27
-27.83
-31.76
-36.48
-42.29
-49.31
-57.19
-65.09
-71.62
-75.06
-73.86
-67.11
-54.96
-38.68
-20.36
-2.3
13.59
26.17
35.18
41.01
44.37
46.06
46.78
47.1
47.38
47.83
48.45
49.13
49.75
50.19
50.44
50.54
50.59
50.61
50.53
50.18
49.29
47.61
45.01
41.45
37.0
31.76
25.82
19.27
12.23
4.95
-2.25
-9.01
-15.09
-20.44
-25.29
-30.07
-35.38
-41.79
-49.7
-59.1
-69.37
-79.25
-86.95
-90.6
-88.81
-81.12
-68.21
-51.74
-33.83
-16.51
-1.32
10.87
19.78
25.49
28.3
28.66
27.13
24.41
21.25
18.35
16.23
15.21
15.4
16.72
18.93
21.68
24.54
27.1
29.0
29.96
29.85
28.62
26.33
23.15
19.31
15.1
10.79
6.53
2.36
-1.77
-5.9
-10.0
-13.97
-17.72
-21.26
-24.77
-28.6
-33.17
-38.78
-45.51
-52.97
-60.28
-66.07
-68.76
-66.91
-59.74
-47.44
-31.26
-13.17
4.66
20.46
33.19
42.59
48.91
52.61
54.07
53.59
51.46
48.18
44.41
40.88
38.25
36.9
36.83
37.77
39.23
40.68
41.65
41.81
41.04
39.35
36.89
33.81
30.24
26.18
21.59
16.46
10.84
4.97
-0.85
-6.35
-11.43
-16.24
-21.09
-26.37
-32.42
-39.37
-47.06
-54.93
-62.02
-67.05
-68.67
-65.84
-58.18
-46.18
-31.19
-15.04
0.42
13.72
24.05
31.19
35.34
36.92
36.35
34.05
30.52
26.36
22.26
18.93
16.92
16.45
17.41
19.36
21.7
23.82
25.25
25.7
25.14
23.65
21.45
18.73
15.63
12.19
8.43
4.38
0.15
-4.06
-8.03
-11.63
-14.83
-17.79
-20.69
-23.76
-27.18
-31.08
-35.54
-40.56
-45.93
-51.15
-55.3
-57.27
-56.02
-50.92
-42.06
-30.22
-16.69
-2.94
9.74
20.44
28.69
34.38
37.66
38.88
38.48
36.97
34.87
32.65
30.68
29.2
28.36
28.22
28.83
30.15
32.04
34.18
36.04
37.09
36.89
35.32
32.62
29.32
25.97
22.94
20.29
17.76
15.06
11.98
8.62
5.31
2.46
0.37
-0.93
-1.73
-2.58
-4.17
-7.17
-12.12
-19.2
-28.06
-37.72
-46.65
-53.01
-55.06
-51.67
-42.56
-28.42
-10.7
8.74
28.01
45.48
59.96
70.92
78.52
83.65
87.79
92.68
99.87
110.28
123.97
140.2
157.77
175.52
192.73
209.38
226.28
245.08
267.99
296.93
332.44
372.6
412.67
446.06
466.32
469.36
454.82
425.95
387.94
345.81
302.96
260.87
219.95
180.53
143.38
109.48
79.22
51.97
26.17
-0.09
-28.26
-58.74
-90.76
-122.44
-151.35
-175.16
-192.34
-202.63
-207.07
-207.55
-205.96
-203.46
-200.22
-195.64
-189.13
-180.68
-171.13
-161.76
-153.72
-147.49
-142.75
-138.68
-134.43
-129.51
-123.98
-118.42
-113.66
-110.35
-108.69
-108.25
-108.1
-107.27
-105.17
-101.93
-98.39
-95.63
-94.44
-94.97
-96.69
-98.69
-100.19
-100.75
-100.33
-99.03
-96.94
-93.97
-90.12
-85.56
-80.84
-76.73
-73.93
-72.7
-72.68
-72.95
-72.34
-69.93
-65.35
-58.96
-51.8
-45.23
-40.69
-39.22
-41.34
-46.87
-54.98
-64.32
-73.45
-81.14
-86.73
-90.23
-92.07
-92.67
-92.2
-90.54
-87.52
-83.25
-78.22
-73.09
-68.34
-63.95
-59.5
-54.52
-48.97
-43.55
-39.43
-37.63
-38.44
-41.14
-44.32
-46.49
-46.76
-45.14
-42.46
-39.86
-38.36
-38.49
-40.23
-43.13
-46.61
-49.98
-52.45
-53.1
-50.86
-44.75
-34.29
-19.81
-2.58
15.47
32.21
46.06
56.39
63.51
68.33
71.84
74.68
77.07
78.93
80.08
80.38
79.61
77.44
73.48
67.47
59.54
50.36
41.0
32.44
25.17
18.89
12.55
4.71
-5.94
-20.2
-38.05
-58.66
-80.6
-102.36
-122.8
-141.41
-158.33
-174.13
-189.49
-204.79
-219.8
-233.54
-244.23
-249.55
-247.2
-235.46
-213.73
-182.88
-145.18
-103.95
-62.9
-25.46
5.77
29.38
45.23
54.25
58.05
58.49
57.2
55.32
53.5
52.03
50.96
50.21
49.62
48.99
48.14
46.96
45.45
43.64
41.49
38.82
35.45
31.25
26.22
20.5
14.3
7.73
0.84
-6.41
-14.04
-22.15
-30.9
-40.49
-51.03
-62.28
-73.51
-83.48
-90.8
-94.41
-93.86
-89.42
-81.8
-71.79
-60.09
-47.32
-34.16
-21.5
-10.3
-1.26
5.48
10.41
14.47
18.58
23.32
28.73
34.41
39.69
43.96
46.8
48.02
47.71
46.06
43.38
40.03
36.47
33.33
31.4
31.43
33.89
38.73
45.3
52.61
59.67
65.87
70.91
74.51
76.04
74.35
68.17
56.74
40.52
21.34
1.96
-14.84
-27.09
-34.19
-36.7
-35.85
-32.85
-28.52
-23.15
-16.84
-9.62
-1.79
6.17
13.72
20.4
26.0
30.6
34.43
37.82
40.96
43.86
46.38
48.27
49.39
49.75
49.53
48.97
48.19
47.11
45.45
42.85
39.02
33.91
27.72
20.89
13.91
7.19
0.99
-4.71
-10.17
-15.71
-21.7
-28.39
-35.84
-43.89
-52.09
-59.86
-66.32
-70.57
-71.79
-69.49
-63.73
-55.11
-44.7
-33.71
-23.23
-14.02
-6.51
-0.92
2.73
4.56
4.78
3.83
2.27
0.77
-0.03
0.33
2.03
4.97
8.79
13.02
17.19
20.98
24.22
26.81
28.66
29.56
29.27
27.57
24.44
20.1
14.99
9.56
4.14
-1.17
-6.46
-11.93
-17.75
-24.01
-30.72
-37.9
-45.54
-53.64
-62.02
-70.29
-77.82
-83.78
-87.31
-87.61
-84.12
-76.59
-65.17
-50.35
-32.99
-14.19
4.79
22.65
38.31
51.15
61.26
69.45
77.11
85.73
96.37
109.2
123.42
137.44
149.39
157.71
161.52
160.72
155.78
147.34
135.85
121.41
103.87
83.07
59.11
32.5
4.17
-24.49
-51.78
-75.91
-95.26
-108.89
-116.75
-119.64
-118.75
-115.08
-109.06
-100.61
-89.52
-75.95
-60.57
-44.39
-28.25
-12.58
2.62
17.42
31.51
44.08
54.07
60.63
63.45
62.97
60.21
56.48
52.91
50.31
49.0
48.85
49.43
50.2
50.66
50.4
49.2
46.97
43.82
39.99
35.84
31.66
27.65
23.73
19.63
15.0
9.58
3.4
-3.23
-9.79
-15.82
-21.14
-25.94
-30.78
-36.25
-42.71
-50.07
-57.68
-64.55
-69.56
-71.66
-70.09
-64.51
-55.14
-42.75
-28.52
-13.81
0.14
12.47
22.74
30.78
36.62
40.35
42.19
42.5
41.84
40.8
39.82
39.07
38.46
37.79
36.89
35.72
34.33
32.82
31.26
29.69
28.17
26.68
25.15
23.4
21.16
18.2
14.47
10.17
5.68
1.4
-2.44
-5.86
-9.15
-12.69
-16.9
-21.99
-28.02
-34.79
-41.73
-47.94
-52.14
-52.97
-49.26
-40.52
-27.15
-10.47
7.64
25.27
40.96
53.94
64.09
71.62
76.73
79.51
79.88
77.91
73.92
68.5
62.37
56.05
49.74
43.31
36.45
28.96
20.85
12.33
3.73
-4.63
-12.45
-19.47
-25.38
-29.84
-32.59
-33.5
-32.7
-30.47
-27.18
-23.08
-18.28
-12.71
-6.21
1.25
9.5
17.97
25.76
31.87
35.54
36.63
35.81
34.44
34.16
36.26
41.34
49.13
58.7
68.95
78.99
88.24
96.44
103.29
108.41
111.28
111.55
109.21
104.79
99.19
93.45
88.42
84.62
82.24
81.23
81.37
82.25
83.22
83.54
82.64
80.42
77.47
74.86
73.56
73.92
75.3
76.28
75.29
71.32
64.38
55.33
45.41
35.58
25.98
15.91
4.12
-10.65
-29.12
-51.25
-76.18
-102.44
-128.25
-151.85
-171.62
-186.26
-194.88
-197.25
-193.99
-186.56
-176.86
-166.68
-157.01
-147.84
-138.4
-127.92
-116.25
-104.19
-93.07
-84.03
-77.34
-72.17
-67.06
-60.56
-51.93
-41.32
-29.53
-17.55
-6.12
4.35
13.64
21.54
27.69
31.77
33.65
33.61
32.26
30.27
28.09
25.75
22.99
19.47
15.04
9.92
4.49
-0.88
-6.04
-11.13
-16.47
-22.38
-29.0
-36.25
-43.73
-50.74
-56.29
-59.27
-58.64
-53.8
-44.79
-32.43
-18.15
-3.62
9.68
20.66
28.88
34.34
37.35
38.37
37.82
36.13
33.75
31.18
28.94
27.5
27.11
27.77
29.2
30.93
32.47
33.41
33.48
32.6
30.8
28.16
24.81
20.89
16.53
11.88
7.12
2.38
-2.22
-6.6
-10.77
-14.74
-18.6
-22.45
-26.43
-30.75
-35.58
-41.13
-47.42
-54.14
-60.58
-65.63
-68.01
-66.57
-60.7
-50.62
-37.33
-22.47
-7.8
5.19
15.62
23.22
28.15
30.84
31.69
31.05
29.31
26.95
24.56
22.73
21.89
22.17
23.34
24.99
26.63
27.95
28.83
29.23
29.06
28.13
26.17
23.01
18.77
13.93
9.2
5.27
2.52
0.84
-0.26
-1.45
-3.21
-5.66
-8.62
-11.71
-14.75
-17.82
-21.3
-25.66
-31.26
-38.11
-45.72
-53.1
-58.92
-61.77
-60.44
-54.38
-43.87
-30.06
-14.62
0.67
14.38
25.64
34.17
40.01
43.35
44.42
43.51
41.08
37.8
34.42
31.57
29.58
28.44
27.9
27.65
27.49
27.44
27.58
27.99
28.59
29.13
29.26
28.64
27.11
24.7
21.67
18.34
15.04
11.99
9.26
6.72
4.12
1.19
-2.29
-6.34
-10.76
-15.27
-19.58
-23.58
-27.45
-31.6
-36.56
-42.66
-49.84
-57.48
-64.41
-69.21
-70.51
-67.42
-59.79
-48.25
-34.05
-18.79
-3.97
9.21
20.03
28.21
33.76
36.93
38.03
37.47
35.76
33.45
31.07
29.06
27.71
27.07
27.02
27.34
27.82
28.31
28.76
29.12
29.31
29.13
28.32
26.64
23.98
20.44
16.3
11.96
7.75
3.83
0.19
-3.36
-7.06
-11.01
-15.19
-19.44
-23.57
-27.42
-31.0
-34.44
-37.97
-41.83
-46.28
-51.44
-57.31
-63.59
-69.55
-74.07
-75.82
-73.63
-66.92
-56.03
-42.16
-27.04
-12.41
0.41
10.8
18.72
24.48
28.41
30.74
31.59
31.11
29.64
27.67
25.85
24.65
24.32
24.85
26.04
27.6
29.32
31.0
32.48
33.56
34.02
33.66
32.43
30.4
27.7
24.51
20.93
17.0
12.71
8.03
2.99
-2.35
-7.94
-13.71
-19.62
-25.72
-32.16
-39.18
-47.09
-56.12
-66.23
-76.95
-87.31
-96.01
-101.61
-102.97
-99.52
-91.44
-79.57
-65.11
-49.36
-33.42
-18.12
-4.09
8.18
18.17
25.47
29.83
31.39
30.68
28.6
26.14
24.16
23.17
23.27
24.28
25.89
27.79
29.82
31.86
33.83
35.59
36.92
37.58
37.34
36.0
33.45
29.63
24.72
19.12
13.53
8.78
5.62
4.43
4.98
6.48
7.81
7.97
6.44
3.37
-0.48
-4.0
-6.12
-6.05
-3.41
1.74
8.98
17.58
26.65
35.19
42.22
46.94
48.81
47.67
43.79
37.82
30.69
23.47
17.11
12.27
9.19
7.72
7.42
7.71
8.12
8.32
8.19
7.72
6.91
5.71
3.89
1.1
-3.0
-8.51
-15.12
-22.1
-28.52
-33.58
-37.06
-39.41
-41.65
-44.95
-50.14
-57.35
-65.98
-74.84
-82.43
-87.3
-88.22
-84.41
-75.71
-62.72
-46.72
-29.48
-12.81
1.86
13.76
22.77
29.24
33.66
36.43
37.9
38.39
38.29
38.05
38.06
38.54
39.49
40.76
42.16
43.54
44.83
45.99
46.98
47.71
47.98
47.49
45.86
42.77
38.05
31.86
24.64
17.05
9.71
3.06
-2.88
-8.43
-14.15
-20.63
-28.25
-36.93
-46.07
-54.5
-60.72
-63.26
-61.11
-54.05
-42.8
-28.78
-13.77
0.56
12.96
22.7
29.54
33.54
34.93
34.09
31.54
27.97
24.15
20.83
18.53
17.49
17.63
18.65
20.16
21.82
23.39
24.7
25.66
26.13
25.95
24.94
22.94
19.88
15.78
10.82
5.31
-0.36
-5.9
-11.12
-16.1
-21.17
-26.76
-33.18
-40.38
-47.77
-54.26
-58.49
-59.24
-55.79
-48.18
-37.18
-24.09
-10.41
2.47
13.45
21.87
27.45
30.32
30.93
29.94
28.09
26.03
24.21
22.86
22.0
21.55
21.41
21.56
21.98
22.65
23.5
24.37
25.02
25.2
24.64
23.16
20.65
17.17
12.92
8.23
3.48
-1.04
-5.23
-9.2
-13.26
-17.8
-23.13
-29.27
-35.75
-41.57
-45.35
-45.73
-41.93
-34.04
-23.08
-10.71
1.33
11.79
20.04
26.05
30.04
32.2
32.59
31.26
28.46
24.73
20.84
17.52
15.3
14.34
14.49
15.41
16.73
18.1
19.19
19.71
19.4
18.07
15.7
12.44
8.59
4.45
0.24
-4.02
-8.48
-13.39
-18.98
-25.36
-32.38
-39.53
-45.95
-50.48
-52.0
-49.69
-43.41
-33.76
-21.95
-9.49
2.27
12.37
20.3
25.95
29.45
31.04
31.1
30.06
28.43
26.69
25.21
24.22
23.8
23.95
24.57
25.52
26.58
27.43
27.75
27.21
25.62
22.93
19.28
14.97
10.31
5.6
0.99
-3.51
-8.05
-12.95
-18.52
-24.97
-32.21
-39.65
-46.22
-50.58
-51.45
-48.09
-40.53
-29.66
-16.87
-3.74
8.43
18.84
27.13
33.3
37.49
39.86
40.63
40.07
38.57
36.58
34.57
32.85
31.57
30.68
30.05
29.51
28.94
28.3
27.58
26.73
25.59
23.98
21.64
18.42
14.34
9.68
4.88
0.42
-3.41
-6.6
-9.56
-12.95
-17.44
-23.44
-30.87
-39.08
-46.91
-52.91
-55.73
-54.5
-49.09
-40.2
-29.13
-17.37
-6.24
3.43
11.37
17.64
22.45
25.97
28.27
29.4
29.5
28.85
27.8
26.75
26.0
25.72
25.93
26.49
27.17
27.72
27.97
27.82
27.29
26.41
25.18
23.56
21.46
18.82
15.62
11.95
7.97
3.89
-0.13
-3.98
-7.66
-11.28
-15.05
-19.21
-23.96
-29.43
-35.62
-42.24
-48.69
-54.0
-57.0
-56.56
-52.03
-43.51
-31.93
-18.74
-5.51
6.53
16.7
24.84
31.06
35.58
38.63
40.48
41.45
41.93
42.29
42.73
43.32
43.98
44.69
45.49
46.52
47.92
49.73
51.8
53.85
55.49
56.34
56.06
54.55
51.88
48.34
44.33
40.19
36.12
32.1
27.95
23.49
18.68
13.68
8.8
4.37
0.54
-2.77
-5.92
-9.38
-13.6
-18.69
-24.37
