-27.51
-25.55
-21.97
-17.77
-14.3
-12.5
-12.53
-13.73
-15.02
-15.28
-13.7
-10.15
-5.27
-0.45
2.61
2.43
-1.63
-9.2
-19.11
-29.93
-40.57
-50.42
-59.15
-66.29
-70.96
-72.09
-68.83
-61.0
-49.1
-34.1
-16.98
1.45
20.47
39.2
56.35
70.45
80.25
85.28
86.07
83.91
80.38
76.9
74.43
73.55
74.6
77.71
82.73
89.04
95.59
101.08
104.4
104.98
103.03
99.39
95.11
91.02
87.42
84.13
80.67
76.63
71.83
66.41
60.7
55.0
49.45
43.91
38.09
31.62
24.21
15.84
6.88
-1.81
-9.0
-13.21
-13.17
-8.2
1.57
15.11
30.74
46.6
60.98
72.66
81.02
85.99
87.91
87.48
85.58
83.12
80.85
79.27
78.61
78.97
80.42
82.94
86.37
90.23
93.89
96.69
98.25
98.63
98.19
97.32
96.16
94.51
91.98
88.19
82.91
76.01
67.38
56.86
44.46
30.48
15.64
0.77
-13.53
-27.17
-40.43
-53.34
-65.1
-73.78
-76.81
-71.98
-58.56
-37.92
-13.19
11.7
33.36
49.79
60.64
66.78
69.53
70.11
69.41
68.07
66.62
65.52
64.96
64.64
63.71
61.12
56.08
48.5
39.09
29.07
19.66
11.53
4.71
-1.3
-7.15
-13.41
-20.43
-28.39
-37.3
-46.97
-57.05
-67.01
-76.4
-85.11
-93.47
-102.22
-112.09
-123.46
-136.12
-149.25
-161.54
-171.41
-177.07
-176.58
-168.11
-150.41
-123.47
-88.97
-50.3
-11.81
22.23
48.78
66.7
76.73
80.79
81.19
79.8
77.85
75.93
74.33
73.2
72.69
72.8
73.25
73.46
72.65
70.15
65.65
59.43
52.32
45.36
39.4
34.71
30.83
26.78
21.57
14.67
6.33
-2.57
-10.97
-18.14
-24.05
-29.22
-34.36
-40.01
-46.37
-53.4
-61.02
-69.16
-77.52
-85.26
-90.9
-92.65
-89.06
-79.76
-65.69
-48.88
-31.68
-15.94
-2.69
7.92
16.18
22.43
26.82
29.44
30.47
30.35
29.71
29.2
29.3
30.18
31.79
34.0
36.63
39.59
42.67
45.57
47.83
48.99
48.68
46.88
43.77
39.74
35.13
30.09
24.64
18.67
12.1
5.02
-2.33
-9.57
-16.36
-22.52
-28.15
-33.62
-39.54
-46.59
-55.22
-65.45
-76.6
-87.28
-95.58
-99.51
-97.57
-89.2
-75.08
-56.9
-36.96
-17.46
-0.08
14.3
25.47
33.64
39.12
42.2
43.24
42.66
41.13
39.41
38.26
38.14
39.19
41.18
43.67
46.18
48.41
50.31
52.05
53.96
56.26
59.02
62.01
64.75
66.69
67.44
66.97
65.73
64.56
64.53
66.56
71.21
78.36
87.24
96.54
104.74
110.54
113.1
112.34
108.75
103.31
97.17
91.35
86.43
82.33
78.35
73.49
67.01
59.1
51.05
45.01
43.17
46.91
56.3
70.29
87.38
106.26
126.17
146.77
167.71
188.45
208.38
227.32
245.83
264.93
285.39
306.8
327.11
343.01
351.1
349.1
336.77
315.85
289.3
260.25
231.14
203.4
177.59
153.69
131.39
110.26
89.77
69.36
48.61
27.34
5.59
-16.45
-38.6
-60.77
-82.85
-104.69
-125.92
-145.97
-164.16
-179.81
-192.38
-201.52
-207.22
-209.75
-209.68
-207.83
-205.14
-202.56
-200.8
-200.29
-201.03
-202.58
-204.29
-205.44
-205.49
-204.18
-201.65
-198.36
-195.01
-192.31
-190.91
-191.21
-193.34
-197.07
-201.86
-206.94
-211.41
-214.46
-215.54
-214.45
-211.39
-206.8
-201.17
-194.83
-187.95
-180.54
-172.64
-164.44
-156.33
-148.87
-142.65
-138.24
-136.13
-136.71
-140.09
-145.97
-153.36
-160.53
-165.26
-165.3
-159.22
-146.93
-130.06
-111.51
-94.8
-82.95
-77.72
-79.27
-86.34
-96.99
-109.28
-121.86
-133.99
-145.33
-155.37
-162.9
-166.0
-162.29
-149.56
-126.38
-92.65
-49.83
-0.89
49.99
98.16
139.25
170.07
189.21
197.29
196.61
190.18
180.66
169.41
156.19
139.5
117.67
89.89
57.07
21.78
-12.37
-41.96
-64.6
-79.4
-86.64
-87.06
-81.4
-70.32
-54.74
-36.23
-16.95
0.88
15.85
27.8
37.83
47.49
57.92
69.23
80.64
90.99
99.45
105.88
110.73
114.53
117.42
118.99
118.51
115.43
109.82
102.44
94.52
87.29
81.63
77.93
76.13
75.91
76.87
78.48
80.03
80.74
79.92
77.25
72.87
67.26
60.89
53.94
46.26
37.6
27.97
17.81
7.75
-1.74
-10.72
-19.8
-29.86
-41.55
-54.96
-69.55
-84.22
-97.4
-107.21
-111.71
-109.38
-99.69
-83.49
-63.03
-41.33
-21.23
-4.62
7.86
16.56
22.2
25.39
26.39
25.36
22.66
18.93
15.12
12.21
10.9
11.41
13.51
16.61
19.95
22.88
25.0
26.25
26.85
27.04
26.92
26.31
24.77
21.93
17.68
12.33
6.51
0.91
-4.13
-8.7
-13.34
-18.73
-25.4
-33.64
-43.47
-54.74
-67.06
-79.71
-91.43
-100.5
-105.13
-103.98
-96.74
-84.36
-68.75
-52.27
-36.98
-24.21
-14.41
-7.35
-2.47
0.86
3.11
4.63
5.65
6.4
7.16
8.26
9.95
12.33
15.31
18.61
21.92
24.95
27.49
29.42
30.6
30.83
29.92
27.77
24.43
20.15
15.29
10.22
5.25
0.57
-3.8
-7.93
-11.99
-16.2
-20.78
-25.93
-31.9
-38.89
-47.09
-56.54
-66.9
-77.3
-86.27
-91.99
-92.72
-87.35
-75.83
-59.17
-39.26
-18.34
1.58
19.0
33.19
44.08
52.17
58.38
63.94
70.28
78.84
90.65
105.93
123.77
142.25
158.98
171.88
179.83
182.86
181.72
177.27
169.87
159.42
145.63
128.68
109.44
89.29
69.61
51.23
34.21
18.1
2.38
-13.01
-27.66
-40.85
-52.05
-61.28
-69.25
-77.2
-86.36
-97.47
-110.32
-123.54
-134.79
-141.29
-140.46
-130.67
-111.74
-85.08
-53.46
-20.23
11.47
39.54
63.29
83.41
101.3
118.32
134.92
150.34
162.91
170.82
173.14
170.44
164.62
158.13
152.71
148.61
144.52
138.35
128.41
114.24
96.65
77.07
56.67
35.68
13.62
-10.08
-35.36
-61.11
-85.55
-106.89
-124.19
-137.73
-148.83
-159.14
-169.9
-181.43
-193.26
-204.49
-214.23
-221.69
-225.98
-225.8
-219.52
-205.63
-183.65
-154.74
-121.62
-87.82
-56.55
-29.72
-7.77
9.87
24.03
35.2
43.54
49.15
52.48
54.36
55.81
57.57
59.92
62.73
65.79
69.08
72.88
77.54
83.12
89.24
95.12
99.97
103.31
105.12
105.71
105.4
104.18
101.71
97.5
91.22
82.92
73.04
62.25
51.28
40.82
31.56
24.11
18.9
15.87
14.38
13.34
11.74
9.22
6.46
5.05
6.77
12.76
22.82
35.51
48.69
60.46
69.77
76.58
81.38
84.63
86.37
86.33
84.21
80.12
74.71
68.95
63.68
59.33
55.81
52.75
49.79
46.77
43.76
40.92
38.32
35.93
33.62
31.27
28.79
26.13
23.21
19.91
16.13
11.76
6.81
1.34
-4.44
-10.34
-16.14
-21.68
-26.87
-31.75
-36.58
-41.73
-47.65
-54.58
-62.37
-70.4
-77.64
-82.96
-85.34
-84.22
-79.54
-71.73
-61.67
-50.46
-39.3
-29.32
-21.37
-15.84
-12.68
-11.41
-11.39
-11.99
-12.78
-13.45
-13.76
-13.43
-12.18
-9.86
-6.63
-3.06
-0.03
1.57
1.17
-1.23
-5.06
-9.47
-13.63
-17.0
-19.47
-21.05
-21.81
-21.72
-20.71
-18.84
-16.33
-13.67
-11.33
-9.71
-9.04
-9.44
-11.03
-13.93
-18.16
-23.49
-29.24
-34.27
-37.18
-36.62
-31.69
-22.27
-9.16
6.1
21.58
35.5
46.65
54.57
59.51
62.02
62.71
61.95
59.87
56.51
52.03
46.78
41.27
35.99
31.27
27.16
23.52
20.1
16.7
13.21
9.58
5.75
1.55
-3.28
-9.02
-15.87
-23.76
-32.41
-41.37
-50.18
-58.48
-66.05
-72.79
-78.68
-83.75
-88.1
-92.04
-96.01
-100.51
-105.91
-112.16
-118.73
-124.6
-128.48
-129.13
-125.72
-117.98
-106.32
-91.74
-75.63
-59.51
-44.76
-32.38
-22.84
-16.12
-11.74
-8.98
-7.08
-5.37
-3.45
-1.15
1.45
4.13
6.64
8.7
10.12
10.73
10.47
9.26
7.1
3.98
-0.09
-5.09
-10.96
-17.53
-24.61
-31.91
-39.19
-46.3
-53.22
-60.01
-66.74
-73.36
-79.69
-85.42
-90.22
-93.83
-96.16
-97.3
-97.51
-97.09
-96.21
-94.72
-92.17
-87.78
-80.85
-70.98
-58.33
-43.62
-27.87
-12.15
2.78
16.54
29.08
40.39
50.37
58.7
65.0
69.02
70.82
70.87
69.93
68.78
68.05
67.96
68.39
68.94
69.18
68.81
67.74
66.17
64.46
63.0
62.11
61.79
61.75
61.5
60.51
58.46
55.33
51.37
46.89
42.09
36.91
31.05
24.13
15.79
5.85
-5.67
-18.43
-31.78
-44.76
-56.2
-64.97
-70.21
-71.66
-69.68
-65.13
-59.08
-52.39
-45.55
-38.58
-31.25
-23.35
-14.92
-6.28
2.0
9.41
15.68
20.91
25.51
29.97
34.62
39.5
44.34
48.73
52.26
54.59
55.46
54.62
51.79
46.71
39.32
29.89
19.08
7.81
-3.0
-12.66
-20.85
-27.53
-32.79
-36.72
-39.37
-40.91
-41.76
-42.65
-44.32
-47.2
-50.89
-54.16
-55.2
-52.31
-44.52
-31.98
-15.82
2.29
20.73
38.24
54.01
67.44
78.02
85.2
88.61
88.2
84.46
78.31
70.92
63.46
56.82
51.57
47.9
45.63
44.36
43.6
42.9
41.99
40.82
39.52
38.3
37.3
36.47
35.55
34.23
32.21
29.42
26.02
22.34
18.76
15.48
12.5
9.55
6.21
1.97
-3.55
-10.5
-18.6
-27.05
-34.56
-39.58
-40.73
-37.29
-29.45
-18.28
-5.33
7.88
20.25
31.25
40.61
48.14
53.44
56.01
55.46
51.86
45.9
38.77
31.93
26.55
23.19
21.51
20.43
18.45
14.2
7.03
-2.64
-13.15
-21.98
-26.26
-23.65
-13.08
4.83
27.71
52.03
73.96
90.34
99.31
100.6
95.21
84.83
71.14
55.31
37.86
18.87
-1.55
-22.64
-42.8
-59.75
-71.16
-75.44
-72.41
-63.37
-50.62
-36.76
-23.95
-13.54
-6.11
-1.74
-0.25
-1.3
-4.41
-8.78
-13.39
-17.14
-19.2
-19.19
-17.4
-14.67
-12.07
-10.55
-10.54
-11.79
-13.59
-15.1
-15.83
-15.85
-15.76
-16.31
-18.04
-21.1
-25.24
-30.04
-35.23
-40.7
-46.54
-52.85
-59.66
-66.82
-74.01
-80.61
-85.74
-88.24
-86.95
-80.99
-70.26
-55.49
-38.23
-20.39
-3.72
10.53
21.78
30.0
35.44
38.36
39.01
37.63
34.65
30.72
26.7
23.42
21.46
20.98
21.71
23.12
24.65
25.93
26.79
27.2
27.1
26.36
24.76
22.15
18.56
14.21
9.48
4.75
0.25
-4.01
-8.24
-12.81
-18.15
-24.58
-32.17
-40.61
-49.12
-56.5
-61.36
-62.41
-58.9
-50.82
-38.96
-24.75
-9.81
4.41
16.88
27.07
34.85
40.31
43.64
45.07
44.91
43.6
41.68
39.75
38.32
37.7
37.91
38.77
39.93
41.03
41.82
42.16
42.04
41.49
40.44
38.74
36.2
32.67
28.21
23.09
17.77
12.71
8.2
4.2
0.39
-3.76
-8.78
-15.1
-22.84
-31.73
-41.02
-49.5
-55.66
-58.05
-55.68
-48.39
-36.95
-22.84
-7.85
6.46
19.02
29.36
37.36
43.08
46.56
47.86
47.23
45.12
42.28
39.52
37.52
36.65
36.91
37.99
39.51
41.07
42.41
43.4
43.93
43.91
43.17
41.53
38.79
34.89
29.89
24.04
17.67
11.2
4.96
-0.94
-6.59
-12.31
-18.56
-25.78
-34.17
-43.54
-53.14
-61.76
-68.0
-70.68
-69.22
-63.89
-55.74
-46.36
-37.37
-30.04
-25.04
-22.32
-21.28
-20.94
-20.24
-18.18
-14.02
-7.35
1.77
12.78
24.61
35.79
44.83
50.62
52.76
51.74
48.67
44.85
41.34
38.6
36.5
34.46
31.82
28.03
22.85
16.43
9.22
1.9
-4.9
-10.76
-15.6
-19.77
-23.75
-28.05
-32.87
-38.05
-42.97
-46.69
-48.11
-46.31
-40.75
-31.55
-19.53
-6.02
7.51
19.75
29.85
37.4
42.33
44.71
44.71
42.59
38.83
34.11
29.21
24.85
21.43
18.99
17.26
15.83
14.34
12.7
11.06
9.66
8.74
8.26
7.94
7.22
5.54
2.51
-1.95
-7.44
-13.29
-18.75
-23.31
-26.84
-29.69
-32.54
-36.16
-41.1
-47.47
-54.75
-61.89
-67.52
-70.29
-69.24
-64.06
-55.13
-43.47
-30.38
-17.16
-4.9
5.72
14.35
20.9
25.43
28.06
28.98
28.46
26.91
24.88
23.0
21.83
21.64
22.37
23.65
25.0
25.99
26.42
26.29
25.74
24.82
23.43
21.26
17.95
13.23
7.0
-0.6
-9.19
-18.24
-27.16
-35.3
-42.15
-47.47
-51.39
-54.48
-57.48
-60.99
-65.02
-68.78
-70.8
-69.39
-63.25
-52.08
-36.73
-19.0
-1.05
15.19
28.55
38.66
45.83
50.66
53.72
55.34
55.64
54.64
52.46
49.43
46.04
42.8
40.03
37.76
35.74
33.65
31.25
28.6
25.97
23.71
21.99
20.67
19.33
17.43
14.61
10.86
6.52
2.1
-1.96
-5.47
-8.52
-11.44
-14.55
-18.11
-22.21
-26.91
-32.22
-38.05
-44.08
-49.63
-53.65
-54.94
-52.6
-46.4
-36.93
-25.47
-13.62
-2.79
6.11
12.69
16.99
19.23
19.66
18.53
16.16
12.99
9.56
6.39
3.89
2.23
1.38
1.13
1.28
1.64
2.13
2.71
3.35
3.95
4.33
4.22
3.38
1.66
-0.91
-4.11
-7.59
-11.01
-14.23
-17.29
-20.43
-24.0
-28.27
-33.37
-39.14
-45.09
-50.37
-53.94
-54.77
-52.18
-46.06
-36.97
-26.01
-14.52
-3.69
5.66
13.09
18.43
21.65
22.75
21.84
19.23
15.51
11.45
7.84
5.31
4.12
4.06
4.58
4.97
4.59
3.14
0.78
-2.01
-4.54
-6.27
-6.94
-6.62
-5.66
-4.45
-3.26
-2.2
-1.21
-0.22
0.78
1.66
2.15
1.92
0.71
-1.5
-4.33
-6.98
-8.39
-7.52
-3.7
3.18
12.69
24.05
36.46
49.29
62.18
74.85
86.87
97.54
106.03
111.68
114.38
114.76
114.02
113.52
114.39
117.14
121.54
126.59
130.45
130.47
123.62
107.24
80.27
44.13
2.83
-38.0
-73.0
-98.94
-115.68
-125.68
-132.32
-137.92
-142.5
-143.82
-138.85
-125.62
-104.46
-78.11
-50.56
-25.44
-4.87
10.44
20.08
22.87
16.72
-0.03
-26.76
-59.34
-90.86
-114.08
-124.49
-122.16
-111.32
-97.78
-85.99
-77.17
-69.53
-60.17
-47.32
-31.48
-15.03
-0.65
10.29
18.38
25.72
34.63
46.29
60.2
74.6
87.55
97.88
105.48
110.7
113.29
111.76
103.59
86.55
60.17
26.64
-9.48
-42.89
-69.33
-86.98
-96.55
-100.44
-101.42
-101.64
-102.19
-103.28
-104.61
-105.58
-105.36
-103.02
-97.67
-88.78
-76.42
-61.35
-44.83
-28.3
-13.12
-0.35
9.37
15.78
19.1
19.88
18.97
17.27
15.54
14.26
13.53
13.18
12.97
12.79
12.75
13.23
14.71
17.58
21.87
27.2
32.8
37.76
41.44
43.7
45.08
46.5
48.87
52.61
57.32
61.76
64.08
62.18
54.15
38.74
15.97
-12.42
-42.84
-70.55
-90.8
-100.33
-98.43
-87.07
-69.95
-51.1
-33.61
-19.09
-8.0
-0.22
4.37
5.94
4.95
2.5
0.15
-0.61
1.1
5.15
10.53
15.82
19.88
22.21
23.03
22.96
22.56
22.1
21.36
19.95
17.51
13.95
9.58
4.97
0.77
-2.52
-4.69
-6.02
-7.16
-8.93
-11.91
-16.03
-20.33
-23.18
-22.78
-17.91
-8.42
4.64
19.45
34.06
47.01
57.61
65.83
72.02
76.63
80.05
82.63
84.73
86.69
88.78
91.05
93.33
95.17
96.04
95.31
92.48
87.29
79.89
70.97
61.7
53.51
47.6
44.57
44.11
45.17
46.41
46.72
45.6
43.23
40.16
36.99
34.13
31.86
30.5
30.5
32.25
35.82
40.73
46.07
51.02
55.43
59.98
65.89
74.24
85.37
98.84
113.91
130.27
148.21
168.11
189.43
209.98
225.98
233.24
228.83
212.36
186.05
153.75
119.44
86.14
55.74
29.6
9.13
-4.04
-8.63
-4.4
7.31
23.83
41.86
58.39
71.28
79.33
82.07
79.4
71.44
58.56
41.49
21.39
-0.45
-22.73
-44.43
-64.89
-83.83
-101.23
-117.16
-131.72
-145.0
-157.11
-168.21
-178.59
-188.63
-198.63
-208.63
-218.16
-226.17
-231.26
-232.15
-228.21
-219.84
-208.36
-195.4
-182.09
-168.45
-153.49
-135.88
-114.95
-91.43
-67.43
-45.82
-29.09
-18.44
-13.45
-12.5
-13.64
-15.38
-17.21
-19.44
-22.77
-27.59
-33.76
-40.47
-46.62
-51.25
-53.83
-54.4
-53.43
-51.61
-49.62
-48.01
-47.17
-47.36
-48.75
-51.43
-55.32
-60.15
-65.53
-70.93
-75.85
-79.83
-82.51
-83.59
-82.82
-80.07
-75.36
-69.0
-61.6
-53.91
-46.72
-40.54
-35.42
-30.9
-26.03
-19.67
-10.9
0.62
14.4
29.18
43.23
54.8
62.64
66.28
66.04
62.81
57.71
51.79
45.9
40.59
36.18
32.74
30.14
28.04
26.05
23.86
21.29
18.34
15.04
11.32
6.89
1.36
-5.62
-14.06
-23.58
-33.46
-42.83
-50.87
-56.95
-60.71
-62.02
-60.97
-57.89
-53.25
-47.61
-41.5
-35.35
-29.47
-24.1
-19.47
-15.83
-13.27
-11.62
-10.27
-8.36
-4.97
0.37
7.51
15.67
23.73
30.67
35.91
39.46
41.77
43.48
45.2
47.27
49.71
52.23
54.26
55.01
53.68
49.58
42.41
32.24
19.58
5.14
-10.32
-26.12
-41.63
-56.23
-69.14
-79.48
-86.39
-89.24
-87.9
-82.92
-75.51
-67.28
-59.83
-54.3
-51.07
-49.78
-49.53
-49.35
-48.49
-46.68
-44.04
-41.0
-37.98
-35.32
-33.14
-31.37
-29.75
-27.95
-25.64
-22.68
-19.22
-15.82
-13.21
-12.01
-12.37
-13.82
-15.42
-16.23
-15.69
-13.94
-11.67
-9.87
-9.4
-10.84
-14.58
-20.78
-29.27
-39.21
-48.88
-55.94
-58.15
-54.42
-45.42
-33.53
-21.99
-13.81
-10.74
-12.98
-19.53
-28.92
-39.95
-52.09
-65.44
-80.32
-96.71
-113.82
-130.0
-143.17
-151.49
-154.08
-151.36
-144.75
-135.93
-126.16
-115.95
-105.23
-93.87
-82.0
-70.11
-58.71
-47.98
-37.62
-26.99
-15.62
-3.47
8.92
20.67
30.97
39.48
46.33
52.01
56.99
61.51
65.66
69.55
73.64
78.72
85.79
95.53
108.01
122.54
138.0
153.56
169.36
186.61
207.08
231.88
260.25
289.14
313.7
329.03
332.04
322.74
304.23
281.46
259.2
240.34
225.17
211.75
197.23
179.25
156.96
131.07
103.36
75.67
49.25
24.54
1.6
-19.33
-37.56
-52.22
-62.99
-70.71
-77.55
-86.33
-99.4
-117.63
-139.99
-163.82
-185.55
-201.6
-209.08
-206.34
-193.38
-171.95
-145.35
-117.8
-93.39
-75.15
-64.47
-61.17
-64.02
-71.6
-82.83
-97.15
-114.29
-133.79
-154.56
-174.55
-190.77
-199.78
-198.46
-184.89
-158.98
-122.5
-78.77
-31.83
14.16
55.43
88.86
112.3
125.05
128.09
123.99
116.31
108.53
103.16
101.13
101.88
103.83
105.07
103.95
99.44
91.41
80.68
68.71
57.32
48.13
42.19
39.88
40.92
44.6
49.85
55.24
59.13
59.96
56.76
49.57
39.46
28.33
18.36
11.36
8.24
8.9
12.24
16.48
19.71
20.35
17.61
11.63
3.35
-5.99
-15.12
-23.02
-28.86
-32.1
-32.52
-30.43
-26.76
-22.84
-19.95
-18.78
-19.16
-20.27
-21.01
-20.34
-17.55
-12.09
-3.58
7.99
21.88
36.35
49.03
57.73
61.55
61.37
59.46
58.23
58.89
60.72
61.53
59.02
52.26
42.39
32.08
24.18
20.14
19.36
19.64
18.47
14.48
8.09
1.28
-3.64
-5.25
-3.91
-1.52
-0.53
-2.81
-8.7
-16.92
-25.21
-31.27
-33.72
-32.57
-29.05
-25.16
-22.67
-22.58
-24.66
-27.59
-29.4
-28.07
-22.22
-11.49
3.32
20.39
37.41
52.09
62.79
68.75
70.25
68.45
65.11
62.33
62.21
66.44
75.87
90.12
107.51
125.4
140.91
151.83
157.2
157.4
153.73
147.67
140.4
132.51
124.03
114.64
103.73
90.59
74.66
55.72
34.08
10.5
-14.2
-39.48
-65.26
-91.8
-119.26
-147.33
-175.13
-201.41
-224.9
-244.54
-259.21
-267.48
-267.46
-257.11
-235.04
-201.33
-157.88
-108.18
-56.38
-6.4
38.86
77.59
108.84
131.92
146.15
150.95
146.47
134.15
116.88
98.42
82.18
70.09
61.95
55.74
48.61
38.09
22.9
3.19
-19.92
-44.84
-69.61
-91.83
-108.67
-117.2
-115.42
-103.35
-83.56
-60.61
-39.57
-24.14
-15.39
-11.77
-10.32
-8.55
-5.82
-3.56
-4.25
-9.71
-19.77
-32.05
-42.95
-49.2
-49.37
-44.31
-36.59
-29.3
-24.62
-23.23
-24.42
-26.76
-28.99
-30.5
-30.99
-29.87
-25.73
-16.49
-0.22
23.68
53.58
85.81
115.51
138.05
150.21
150.56
139.34
117.92
88.45
53.66
16.72
-19.13
-51.18
-77.94
-99.45
-116.97
-132.21
-146.3
-159.23
-169.85
-176.51
-177.93
-173.98
-165.86
-155.7
-145.87
-138.12
-133.1
-130.39
-128.91
-127.58
-125.88
-124.07
-122.97
-123.39
-125.55
-128.7
-131.32
-131.57
-128.11
-120.68
-110.2
-98.23
-86.27
-75.12
-64.82
-54.98
-45.38
-36.33
-28.57
-22.88
-19.48
-17.9
-17.04
-15.75
-13.37
-10.05
-6.6
-4.03
-2.98
-3.32
-4.21
-4.54
-3.44
-0.73
3.15
7.52
12.07
17.19
23.96
33.57
46.62
62.65
80.07
96.64
110.24
119.51
124.16
124.81
122.58
118.72
114.38
110.54
107.94
106.85
106.85
106.74
104.89
100.0
92.01
82.6
74.84
71.9
75.49
84.77
96.25
104.97
106.19
96.7
75.54
43.65
3.32
-42.31
-89.27
-132.74
-167.22
-187.39
-189.35
-171.69
-136.07
-87.03
-31.15
24.32
72.99
110.86
137.16
154.15
165.74
175.58
185.13
193.07
195.98
190.18
173.52
146.28
110.99
71.48
31.86
-4.21
-33.8
-54.93
-66.81
-70.08
-66.64
-59.13
-50.24
-41.95
-35.17
-29.73
-24.81
-19.4
-12.7
-4.48
4.93
14.75
24.13
32.38
39.18
44.59
48.75
51.94
54.36
55.86
55.44
50.95
39.59
19.06
-10.85
-47.25
-84.28
-114.8
-132.76
-135.23
-122.96
-99.56
-69.7
-37.47
-5.56
24.68
52.48
77.19
97.99
113.93
124.22
128.46
126.78
119.99
109.53
97.08
84.26
72.2
61.38
51.69
42.81
34.58
27.17
20.94
16.04
12.25
8.84
5.06
0.55
-4.32
-8.75
-12.2
-15.06
-18.92
-26.11
-38.61
-57.05
-80.26
-105.61
-129.82
-149.74
-162.72
-166.67
-160.06
-142.33
-114.42
-79.13
-40.88
-4.7
25.19
46.4
58.5
62.32
58.9
48.85
32.57
11.0
-13.66
-37.96
-57.96
-70.43
-73.8
-68.55
-56.91
-42.1
-27.55
-16.1
-9.27
-6.69
-5.93
-3.13
5.49
21.8
44.38
68.62
88.18
97.42
93.46
76.99
51.51
21.62
-8.69
-36.97
-62.14
-83.87
-101.78
-115.3
-123.77
-126.89
-124.94
-118.72
-109.29
-97.54
-83.93
-68.51
-51.23
-32.4
-12.97
5.4
20.8
31.67
37.34
38.2
35.52
30.83
25.36
19.64
13.51
6.42
-1.9
-11.06
-19.84
-26.35
-28.82
-26.34
-19.37
-9.89
-0.89
4.4
3.62
-3.92
-16.58
-30.31
-39.3
-37.63
-21.1
11.03
55.46
105.45
152.63
189.18
209.6
211.7
196.57
167.89
131.15
92.65
58.66
34.37
23.0
25.08
38.37
58.58
80.38
98.82
110.35
113.5
109.02
99.35
87.76
77.13
69.32
64.69
62.42
61.25
60.21
59.11
58.59
59.77
63.55
70.13
78.57
86.9
92.51
92.75
85.79
71.14
49.94
24.55
-2.13
-27.57
-50.23
-69.63
-86.03
-99.94
-111.72
-121.49
-129.36
-135.53
-140.39
-144.34
-147.58
-149.94
-150.87
-149.55
-145.22
-137.33
-125.81
-110.96
-93.4
-73.94
-53.51
-33.17
-14.14
2.27
14.91
23.0
26.33
25.3
20.83
14.14
6.51
-0.87
-7.02
-11.18
-12.85
-11.95
-8.81
-4.15
1.13
6.31
10.99
15.25
19.29
23.16
26.47
28.41
28.19
25.47
20.68
15.01
10.01
7.13
7.35
11.05
17.99
27.38
37.84
47.45
54.05
55.81
51.81
42.45
29.44
15.26
2.41
-7.27
-12.95
-14.8
-13.65
-10.69
-7.15
-4.19
-2.76
-3.47
-6.49
-11.37
-17.11
-22.24
-25.24
-24.91
-20.77
-13.32
-3.95
5.32
12.32
15.45
14.45
10.91
8.02
9.58
18.32
34.42
54.82
74.07
86.39
88.16
79.37
63.47
45.57
29.97
18.54
10.43
3.41
-4.3
-12.78
-20.39
-24.9
-24.64
-19.46
-10.31
1.52
15.36
31.42
50.37
72.48
97.11
122.7
147.18
168.71
186.14
198.94
206.86
209.57
206.79
198.78
186.75
172.93
159.85
149.38
141.86
136.0
129.53
120.49
108.12
93.14
77.05
61.16
45.76
30.12
13.05
-6.3
-28.01
-51.46
-75.74
-100.06
-123.99
-147.43
-170.43
-193.05
-215.26
-236.89
-257.56
-276.46
-292.09
-302.11
-303.55
-293.53
-270.28
-234.27
-188.7
-139.19
-92.57
-55.13
-30.9
-20.53
-21.16
-27.4
-33.11
-33.19
-25.13
-9.5
10.46
30.19
45.39
53.35
53.6
47.61
37.98
27.32
17.54
9.46
3.11
-1.88
-5.76
-8.42
-9.35
-7.86
-3.49
3.67
12.92
22.93
32.08
38.68
41.31
38.96
31.18
18.27
1.39
-17.42
-35.45
-49.79
-58.05
-59.04
-53.24
-42.62
-30.02
-18.28
-9.3
-3.71
-0.97
0.14
0.9
2.09
3.7
4.95
4.51
0.92
-6.88
-19.06
-34.65
-51.61
-67.2
-78.64
-83.81
-81.8
-73.18
-59.89
-44.87
-31.27
-21.63
-16.99
-16.46
-17.46
-16.76
-11.89
-2.33
10.07
21.84
29.45
30.86
26.35
18.35
10.17
4.54
2.74
4.47
8.54
13.78
19.54
25.73
32.37
39.17
45.3
49.58
50.92
48.75
43.27
35.42
26.46
17.56
9.41
2.11
-4.74
-11.65
-19.01
-26.96
-35.34
-43.79
-51.81
-58.72
-63.65
-65.67
-64.06
-58.69
-50.32
-40.64
-32.01
-26.83
-26.86
-32.58
-42.96
-55.62
-67.4
-75.08
-76.11
-69.16
-54.41
-33.4
-8.67
16.8
40.15
59.07
72.18
79.04
80.11
76.42
69.29
60.01
49.65
39.06
28.88
19.63
11.67
5.3
0.67
-2.12
-3.13
-2.61
-1.11
0.53
1.34
0.46
-2.44
-7.04
-12.5
-17.81
-22.15
-25.21
-27.16
-28.41
-29.53
-31.09
-33.76
-38.11
-44.38
-52.13
-59.97
-65.74
-67.22
-63.01
-53.14
-39.19
-23.81
-9.77
0.72
6.43
7.16
3.35
-4.08
-13.93
-24.83
-35.27
-43.85
-49.54
-51.84
-50.71
-46.41
-39.34
-29.93
-18.69
-6.18
6.88
19.75
31.76
42.27
50.71
56.55
59.41
59.19
56.17
51.03
44.77
38.41
32.86
28.61
25.71
23.71
21.88
19.39
15.65
10.38
3.75
-3.76
-11.39
-18.11
-22.64
-23.59
-19.95
-11.53
0.67
14.59
27.8
38.29
45.06
48.21
48.53
46.87
43.77
39.39
33.66
26.67
18.8
10.9
4.2
0.05
-0.29
3.81
12.06
23.19
35.21
45.9
53.31
55.97
53.21
45.49
34.69
24.19
18.08
19.84
30.84
49.53
71.69
92.05
106.08
111.39
107.91
97.19
81.47
63.13
44.59
28.39
16.77
11.05
10.91
14.38
18.61
21.06
20.53
17.42
13.09
9.03
6.13
4.44
3.7
3.75
4.9
7.79
12.93
20.32
29.21
38.24
45.84
50.84
52.76
51.96
49.4
46.21
43.27
40.98
39.29
37.86
36.41
34.81
33.13
31.56
30.23
29.18
28.24
27.1
25.28
22.28
17.64
11.11
2.82
-6.76
-16.78
-26.15
-33.71
-38.47
-39.77
-37.58
-32.52
-25.79
-18.88
-13.15
-9.51
-8.29
-9.35
-12.21
-16.35
-21.23
-26.38
-31.31
-35.57
-38.9
-41.19
-42.6
-43.34
-43.55
-43.19
-42.11
-40.16
-37.38
-34.07
-30.68
-27.74
-25.69
-24.88
-25.54
-27.79
-31.55
-36.54
-42.19
-47.82
-52.71
-56.44
-58.93
-60.5
-61.67
-62.88
-64.29
-65.7
-66.64
-66.55
-64.98
-61.72
-56.84
-50.62
-43.53
-36.1
-28.94
-22.74
-18.19
-15.9
-16.16
-18.89
-23.52
-29.14
-34.67
-39.14
-41.87
-42.5
-41.04
-37.58
-32.31
-25.45
-17.34
-8.59
0.16
8.48
16.69
26.05
38.53
56.05
79.62
108.58
140.47
171.36
196.73
212.38
215.34
204.47
180.77
147.22
108.28
68.84
33.27
4.51
-16.24
-29.38
-36.26
-38.67
-38.44
-37.22
-36.41
-36.92
-39.07
-42.52
-46.57
-50.45
-53.71
-56.35
-58.74
-61.3
-64.15
-67.06
-69.41
-70.44
-69.43
-65.86
-59.44
-50.33
-39.25
-27.52
-16.91
-9.14
-5.26
-5.3
-8.13
-11.95
-14.91
-15.74
-14.01
-9.97
-4.2
2.64
9.91
16.86
22.53
25.83
25.85
22.17
15.13
5.74
-4.59
-14.54
-23.14
-29.94
-34.9
-38.17
-39.89
-40.15
-38.95
-36.36
-32.56
-27.8
-22.4
-16.63
-10.7
-4.87
0.6
5.36
9.14
11.74
13.2
13.62
13.07
11.46
8.72
5.12
1.64
0.01
2.33
10.29
24.26
42.74
62.53
79.44
89.37
89.32
77.99
55.91
25.13
-11.32
-50.06
-87.99
-122.73
-152.81
-177.5
-196.34
-208.65
-213.25
-208.61
-193.45
-167.48
-131.83
-89.1
-42.82
3.13
45.2
80.56
107.32
124.72
133.11
133.83
128.89
120.47
110.51
100.39
90.91
82.49
75.36
69.62
65.18
61.75
58.76
55.57
51.6
46.54
40.35
33.19
25.3
16.92
8.24
-0.45
-8.7
-15.8
-20.85
-22.9
-21.21
-15.52
-6.15
5.93
19.17
31.61
41.16
45.95
44.75
37.31
24.66
8.96
-7.07
-21.06
-31.91
-40.15
-47.7
-56.77
-68.64
-83.0
-98.01
-111.22
-120.62
-125.39
-125.84
-122.99
-118.25
-113.43
-110.83
-112.89
-121.12
-135.05
-151.88
-167.45
-178.14
-182.65
-182.43
-180.55
-179.7
-180.72
-182.41
-182.88
-181.13
-177.83
-174.9
-174.11
-175.91
-179.01
-181.08
-179.77
-173.52
-161.94
-145.48
-125.07
-101.61
-75.96
-48.95
-21.58
4.91
29.16
50.07
67.18
80.93
92.6
103.88
116.18
130.22
145.84
162.2
178.22
192.95
205.75
216.21
224.1
229.3
231.79
231.74
229.43
225.15
218.98
210.79
200.41
187.87
173.57
158.27
142.88
128.06
113.95
100.14
85.86
70.42
53.63
35.94
18.56
3.04
-8.96
-16.13
-17.81
-14.12
-5.96
5.18
17.49
29.29
39.26
46.7
51.44
53.7
53.84
52.2
49.07
44.74
39.56
33.96
28.36
23.09
18.36
14.24
10.67
7.62
5.1
3.17
2.01
1.64
1.92
2.4
2.49
1.64
-0.37
-3.26
-6.36
-9.01
-10.94
-12.48
-14.51
-17.91
-23.17
-29.96
-37.26
-43.7
-48.03
-49.46
-47.76
-43.23
-36.43
-28.05
-18.85
-9.56
-0.92
6.49
12.3
16.52
19.53
21.93
24.3
27.05
30.3
34.13
38.68
44.23
51.08
59.31
68.59
78.17
87.07
94.41
99.5
101.9
101.3
97.53
90.73
81.62
71.44
61.59
53.03
45.69
38.44
29.69
18.27
4.2
-11.15
-25.57
-36.8
-43.25
-44.22
-39.81
-30.63
-17.7
-2.5
13.09
26.94
37.25
43.1
44.68
43.18
40.12
36.84
34.02
31.75
29.86
28.3
27.3
27.26
28.5
30.94
34.2
37.65
40.73
43.11
44.73
45.75
46.36
46.73
46.82
46.51
45.6
43.92
41.43
38.19
34.29
29.7
24.29
17.79
10.09
1.4
-7.6
-15.88
-22.35
-26.22
-27.22
-25.59
-21.99
-17.36
-12.88
-9.86
-9.58
-12.98
-20.23
-30.6
-42.49
-54.08
-63.91
-71.35
-76.65
-80.42
-83.07
-84.41
-83.65
-79.98
-73.09
-63.57
-52.84
-42.69
-34.58
-29.2
-26.32
-25.08
-24.47
-23.86
-23.23
-23.07
-24.0
-26.37
-29.82
-33.36
-35.57
-35.18
-31.52
-24.7
-15.49
-4.92
6.07
16.9
27.35
37.26
46.39
54.31
60.5
64.63
66.67
66.93
65.96
64.35
62.55
60.83
59.26
57.76
56.28
54.7
52.99
51.11
49.06
46.76
44.1
41.01
37.52
33.74
29.93
26.27
22.84
19.45
15.74
11.3
5.92
-0.21
-6.45
-11.81
-15.25
-16.06
-14.08
-9.79
-4.1
1.93
7.36
11.35
13.11
11.72
6.24
-4.09
-19.41
-39.02
-61.4
-84.66
-106.88
-126.48
-142.23
-153.18
-158.59
-158.09
-151.91
-141.09
-127.28
-112.34
-97.82
-84.66
-73.24
-63.71
-56.28
-51.27
-48.97
-49.34
-51.84
-55.56
-59.42
-62.38
-63.56
-62.17
-57.58
-49.41
-37.76
-23.34
-7.39
8.7
23.75
37.06
48.42
57.96
65.9
72.47
77.88
82.35
86.05
89.08
91.37
92.8
93.26
92.81
91.7
90.19
88.35
85.86
82.03
76.02
67.24
55.63
41.72
26.46
10.8
-4.83
-20.77
-38.14
-58.46
-83.12
-112.74
-146.67
-182.7
-217.1
-245.08
-261.73
-263.41
-248.84
-219.86
-181.04
-138.5
-98.16
-64.24
-38.55
-20.76
-9.26
-2.05
2.58
5.99
9.27
13.26
18.53
25.18
32.74
40.39
47.21
52.59
56.31
58.56
59.64
59.72
58.76
56.5
52.65
47.12
40.07
31.97
23.47
15.22
7.64
0.74
-5.95
-13.24
-21.89
-32.1
-43.1
-53.05
-59.47
-60.01
-53.27
-39.38
-19.94
2.52
25.31
46.27
64.08
78.11
88.17
94.28
96.63
95.72
92.53
88.36
84.65
82.51
82.45
84.38
87.69
91.65
95.69
99.51
103.02
106.17
108.8
110.58
111.09
110.03
107.33
103.21
98.09
92.47
86.84
81.6
76.85
72.28
66.95
59.39
47.95
31.47
9.97
-14.9
