-22.85
0.51
24.38
45.92
63.04
74.77
81.24
83.5
83.1
81.51
79.75
78.22
76.7
74.59
71.26
66.19
59.05
49.64
37.92
24.17
9.17
-5.65
-18.35
-26.99
-30.19
-27.68
-20.46
-10.71
-1.25
5.13
6.4
1.84
-7.67
-19.93
-32.09
-41.8
-48.01
-51.37
-53.72
-57.01
-62.22
-68.61
-74.01
-75.68
-71.53
-60.86
-44.57
-24.53
-2.82
18.96
39.93
59.64
77.73
93.54
106.16
114.54
117.93
116.09
109.45
98.99
86.02
71.83
57.41
43.32
29.73
16.67
4.24
-7.23
-17.23
-25.24
-30.94
-34.24
-35.37
-34.77
-33.08
-31.03
-29.34
-28.54
-28.86
-30.13
-31.9
-33.79
-35.72
-38.13
-41.86
-47.67
-55.74
-65.32
-74.71
-81.73
-84.35
-81.38
-72.7
-59.15
-42.09
-22.97
-3.08
16.46
34.53
50.05
62.05
70.0
74.01
74.88
73.84
72.23
71.05
70.85
71.75
73.58
76.11
79.1
82.41
85.92
89.48
92.93
95.97
98.23
99.28
98.78
96.54
92.64
87.41
81.38
75.14
69.2
63.82
58.9
53.97
48.31
41.28
32.53
22.33
11.66
2.0
-4.98
-7.89
-5.9
1.0
12.1
26.09
41.41
56.44
69.79
80.42
87.76
91.71
92.63
91.21
88.32
84.78
81.2
77.9
74.88
71.96
68.94
65.71
62.42
59.44
57.29
56.47
57.16
59.06
61.2
62.14
60.3
54.53
44.54
31.09
15.75
0.27
-13.96
-26.36
-37.16
-47.07
-56.84
-66.81
-76.78
-86.0
-93.36
-97.66
-97.91
-93.62
-84.96
-72.81
-58.48
-43.47
-29.15
-16.66
-6.88
-0.42
2.54
2.41
0.39
-1.67
-1.64
2.13
10.2
21.82
35.04
47.45
56.96
62.43
63.93
62.42
59.28
55.65
52.12
48.67
44.96
40.65
35.6
29.79
23.17
15.5
6.38
-4.52
-17.24
-31.33
-45.98
-60.18
-72.98
-83.56
-91.23
-95.28
-95.0
-89.8
-79.49
-64.65
-46.59
-27.2
-8.42
8.23
21.98
32.76
40.93
46.86
50.76
52.68
52.71
51.25
49.03
46.98
45.84
45.89
46.85
48.09
48.95
49.12
48.73
48.17
47.75
47.44
46.79
45.14
42.03
37.51
32.14
26.79
22.2
18.57
15.5
12.2
7.83
1.89
-5.67
-14.45
-23.8
-32.9
-40.8
-46.44
-48.81
-47.19
-41.46
-32.3
-21.06
-9.38
1.31
10.13
16.77
21.28
23.72
24.03
22.12
18.13
12.67
6.8
1.72
-1.63
-2.97
-2.63
-1.36
0.09
1.28
2.15
2.85
3.54
4.17
4.5
4.14
2.7
-0.01
-3.96
-8.79
-13.77
-18.02
-20.61
-20.95
-18.99
-15.36
-11.19
-7.72
-5.83
-5.66
-6.58
-7.36
-6.65
-3.46
2.49
10.71
20.13
29.44
37.46
43.34
46.59
47.0
44.64
39.82
33.22
25.83
18.86
13.42
10.22
9.28
10.03
11.51
12.78
13.21
12.55
10.92
8.58
5.81
2.75
-0.52
-3.97
-7.54
-11.15
-14.66
-17.87
-20.65
-23.03
-25.26
-27.91
-31.62
-36.9
-43.8
-51.79
-59.79
-66.49
-70.66
-71.54
-69.01
-63.58
-56.22
-48.1
-40.34
-33.82
-29.03
-26.14
-25.02
-25.34
-26.51
-27.73
-27.9
-25.82
-20.46
-11.43
0.71
14.48
27.9
39.23
47.62
53.35
57.47
61.09
64.71
67.97
70.0
69.99
67.74
63.7
58.63
53.15
47.37
41.04
33.84
25.68
16.67
6.96
-3.47
-14.72
-26.68
-38.61
-49.03
-56.05
-58.07
-54.42
-45.78
-33.91
-21.14
-9.52
-0.32
6.13
10.18
12.42
13.33
13.13
11.9
9.82
7.29
4.88
3.17
2.46
2.67
3.4
4.18
4.72
5.02
5.3
5.8
6.53
7.27
7.56
6.92
5.06
1.98
-1.99
-6.36
-10.66
-14.51
-17.81
-20.69
-23.5
-26.71
-30.71
-35.67
-41.3
-46.85
-51.21
-53.22
-52.06
-47.57
-40.28
-31.3
-21.98
-13.54
-6.95
-2.82
-1.52
-3.07
-7.11
-12.68
-18.25
-21.9
-21.83
-16.93
-7.24
6.01
20.74
34.68
46.0
53.71
57.74
58.64
57.26
54.45
50.93
47.29
44.03
41.49
39.83
38.94
38.39
37.53
35.66
32.16
26.71
19.32
10.34
0.35
-9.97
-19.86
-28.54
-35.2
-38.96
-39.1
-35.24
-27.62
-17.11
-5.22
6.37
16.09
22.91
26.45
26.96
25.12
21.79
17.8
13.78
10.06
6.8
4.05
1.89
0.41
-0.28
-0.28
0.11
0.32
-0.26
-2.07
-5.27
-9.61
-14.66
-19.94
-25.04
-29.76
-34.07
-38.13
-42.16
-46.43
-51.14
-56.26
-61.43
-65.87
-68.51
-68.2
-64.11
-56.01
-44.49
-30.77
-16.48
-3.23
7.82
16.06
21.44
24.27
25.03
24.25
22.44
20.11
17.76
15.82
14.58
14.1
14.25
14.77
15.35
15.82
16.02
15.88
15.27
14.01
11.91
8.85
4.86
0.16
-4.95
-10.18
-15.43
-20.82
-26.73
-33.55
-41.5
-50.33
-59.27
-67.05
-72.27
-73.76
-71.04
-64.49
-55.34
-45.34
-36.24
-29.19
-24.47
-21.45
-18.97
-15.76
-10.92
-3.97
5.12
16.16
28.76
42.33
55.9
68.2
77.89
83.88
85.71
83.64
78.61
71.83
64.51
57.59
51.66
46.91
43.2
40.15
37.17
33.59
28.77
22.2
13.61
3.12
-8.78
-21.25
-33.18
-43.44
-50.98
-55.01
-55.05
-50.97
-43.06
-32.08
-19.29
-6.29
5.25
13.91
18.9
20.16
18.32
14.36
9.32
4.01
-1.05
-5.53
-9.17
-11.69
-12.82
-12.41
-10.66
-8.09
-5.52
-3.84
-3.69
-5.27
-8.32
-12.31
-16.64
-20.93
-25.08
-29.24
-33.63
-38.45
-43.8
-49.74
-56.15
-62.65
-68.44
-72.3
-72.85
-68.98
-60.35
-47.6
-32.26
-16.27
-1.43
11.0
20.36
26.55
29.78
30.37
28.75
25.42
21.02
16.27
11.8
8.13
5.51
4.02
3.53
3.81
4.54
5.33
5.78
5.48
4.08
1.38
-2.65
-7.81
-13.73
-19.99
-26.2
-32.15
-37.85
-43.51
-49.52
-56.27
-63.98
-72.47
-81.01
-88.35
-92.93
-93.37
-88.76
-79.08
-65.18
-48.48
-30.64
-13.14
2.99
17.18
29.21
39.01
46.54
51.74
54.68
55.66
55.35
54.68
54.6
55.72
58.03
60.92
63.42
64.65
64.14
61.99
58.58
54.26
49.08
42.8
35.12
26.04
16.14
6.37
-2.2
-8.83
-13.37
-16.34
-18.65
-21.35
-25.28
-30.86
-37.91
-45.66
-52.72
-57.41
-58.14
-53.83
-44.33
-30.46
-13.85
3.53
19.91
34.0
45.14
53.13
58.07
60.12
59.53
56.66
52.15
46.89
41.84
37.84
35.36
34.35
34.34
34.61
34.57
33.89
32.53
30.6
28.07
24.61
19.55
12.05
1.46
-12.38
-28.75
-46.03
-61.78
-73.16
-77.56
-73.26
-60.06
-39.55
-14.99
9.4
29.37
41.79
45.4
41.05
31.34
19.65
9.14
1.88
-1.39
-1.08
1.82
6.29
11.48
16.77
21.56
25.16
26.88
26.3
23.48
19.1
14.21
9.93
7.08
5.98
6.54
8.46
11.37
14.96
18.89
22.69
25.72
27.3
26.84
24.09
19.25
12.91
5.86
-1.05
-7.14
-12.03
-15.67
-18.32
-20.54
-23.03
-26.45
-31.22
-37.35
-44.25
-50.9
-56.01
-58.46
-57.55
-53.33
-46.54
-38.43
-30.46
-23.91
-19.57
-17.66
-17.8
-19.22
-21.01
-22.41
-22.99
-22.7
-21.71
-20.24
-18.3
-15.78
-12.48
-8.35
-3.64
1.2
5.67
9.36
12.05
13.74
14.43
14.11
12.72
10.28
6.99
3.25
-0.41
-3.6
-6.19
-8.44
-10.97
-14.49
-19.49
-25.99
-33.33
-40.21
-45.01
-46.22
-42.93
-35.13
-23.71
-10.25
3.49
15.97
26.18
33.66
38.39
40.6
40.65
38.96
36.05
32.51
29.01
26.15
24.34
23.77
24.31
25.59
27.16
28.6
29.63
30.14
30.1
29.53
28.36
26.42
23.54
19.73
15.21
10.52
6.27
2.93
0.54
-1.4
-3.81
-7.72
-13.91
-22.54
-32.97
-43.82
-53.25
-59.41
-60.9
-57.16
-48.6
-36.51
-22.6
-8.61
4.06
14.57
22.58
28.07
31.16
32.04
30.98
28.42
25.0
21.49
18.59
16.77
16.17
16.56
17.49
18.46
19.1
19.3
19.12
18.76
18.34
17.8
16.88
15.22
12.56
8.92
4.59
0.08
-4.16
-7.92
-11.27
-14.49
-17.98
-22.04
-26.91
-32.66
-39.18
-46.04
-52.42
-57.13
-58.84
-56.52
-49.78
-39.12
-25.81
-11.52
2.17
14.08
23.65
30.76
35.55
38.24
39.05
38.27
36.3
33.73
31.17
29.15
28.0
27.76
28.28
29.31
30.55
31.79
32.88
33.72
34.24
34.41
34.2
33.55
32.33
30.35
27.45
23.6
18.97
14.01
9.24
5.08
1.68
-1.23
-4.13
-7.61
-12.08
-17.63
-24.01
-30.67
-36.72
-41.07
-42.62
-40.48
-34.31
-24.57
-12.46
0.41
12.44
22.49
30.06
35.19
38.18
39.35
38.95
37.14
34.21
30.6
26.91
23.75
21.52
20.32
19.95
20.02
20.16
20.14
19.92
19.56
19.07
18.37
17.26
15.52
13.01
9.75
5.89
1.64
-2.74
-7.02
-11.0
-14.59
-17.75
-20.63
-23.5
-26.71
-30.66
-35.64
-41.73
-48.61
-55.46
-61.01
-63.79
-62.6
-56.94
-47.2
-34.6
-20.8
-7.41
4.38
13.92
20.99
25.6
27.89
28.08
26.54
23.81
20.5
17.28
14.66
12.92
12.17
12.26
12.94
13.89
14.78
15.39
15.5
15.03
13.91
12.16
9.83
7.01
3.85
0.47
-3.08
-6.86
-10.95
-15.44
-20.27
-25.28
-30.21
-34.85
-39.14
-43.23
-47.45
-52.11
-57.37
-62.93
-67.99
-71.2
-70.88
-65.48
-54.09
-36.89
-15.39
7.92
30.17
48.9
62.64
71.11
75.03
75.68
74.43
72.45
70.61
69.37
68.81
68.52
67.7
65.35
60.68
53.5
44.35
34.46
25.21
17.64
12.07
8.06
4.69
0.95
-3.85
-9.93
-17.06
-24.78
-32.62
-40.22
-47.45
-54.32
-60.95
-67.48
-74.1
-80.97
-88.3
-96.2
-104.51
-112.67
-119.63
-124.03
-124.57
-120.42
-111.42
-97.96
-80.67
-60.05
-36.5
-10.55
16.6
42.94
65.87
82.99
92.91
95.79
93.26
87.79
81.89
77.35
74.97
74.7
75.87
77.61
79.07
79.45
78.11
74.56
68.63
60.5
50.73
40.2
29.82
20.34
12.1
5.05
-1.09
-6.66
-11.82
-16.59
-20.96
-25.1
-29.45
-34.58
-41.02
-48.91
-57.72
-66.27
-72.85
-75.76
-73.73
-66.47
-54.7
-39.94
-24.11
-8.93
4.35
15.07
23.02
28.19
30.71
30.83
29.04
26.02
22.61
19.58
17.39
16.18
15.81
16.0
16.49
17.16
17.93
18.75
19.49
19.88
19.58
18.25
15.71
11.94
7.23
2.1
-2.85
-7.08
-10.32
-12.67
-14.64
-16.92
-20.21
-24.88
-30.77
-37.14
-42.78
-46.32
-46.55
-42.77
-34.98
-23.84
-10.48
3.73
17.53
29.82
39.75
46.68
50.2
50.26
47.27
42.11
36.08
30.46
26.19
23.51
21.87
20.19
17.2
11.95
4.18
-5.43
-15.2
-22.8
-25.9
-23.01
-14.25
-1.59
11.57
21.61
25.95
23.89
16.59
6.19
-5.33
-17.03
-29.06
-42.07
-56.41
-71.55
-86.05
-98.02
-105.71
-108.05
-104.75
-96.3
-83.73
-68.32
-51.48
-34.49
-18.48
-4.27
7.58
16.83
23.5
27.85
30.34
31.58
32.08
32.28
32.41
32.53
32.78
33.27
34.28
36.04
38.65
41.96
45.62
49.08
51.8
53.33
53.38
51.79
48.53
43.71
37.61
30.66
23.44
16.48
10.16
4.6
-0.39
-5.18
-10.21
-15.98
-22.83
-30.92
-39.98
-49.16
-57.09
-62.03
-62.48
-57.68
-47.98
-34.83
-20.3
-6.48
5.17
14.0
20.07
23.78
25.59
25.76
24.4
21.7
17.93
13.57
9.2
5.41
2.7
1.39
1.55
3.06
5.56
8.55
11.51
13.95
15.56
16.21
15.95
14.96
13.47
11.66
9.7
7.68
5.68
3.75
1.9
0.12
-1.67
-3.62
-5.95
-8.93
-12.88
-17.97
-24.14
-30.84
-37.0
-41.15
-41.85
-38.13
-29.87
-17.92
-3.86
10.49
23.55
34.34
42.48
48.08
51.41
52.77
52.37
50.42
47.21
43.26
39.33
36.26
34.74
35.02
36.77
39.06
40.73
40.72
38.47
34.02
27.87
20.6
12.5
3.45
-7.1
-19.77
-34.98
-52.62
-71.97
-91.73
-110.11
-125.1
-134.76
-137.61
-133.05
-121.69
-105.31
-86.57
-68.31
-52.74
-40.94
-32.65
-26.67
-21.41
-15.5
-8.12
1.01
11.8
23.87
36.58
48.86
59.22
65.95
67.65
63.8
55.1
43.43
31.27
20.99
14.12
11.0
10.88
12.38
14.07
14.97
14.69
13.41
11.58
9.53
7.28
4.52
0.84
-4.05
-10.01
-16.57
-23.09
-29.06
-34.32
-39.11
-43.8
-48.66
-53.69
-58.63
-63.12
-66.91
-69.76
-71.41
-71.28
-68.5
-62.11
-51.5
-36.84
-19.29
-0.71
16.81
31.59
42.72
50.2
54.6
56.77
57.4
56.89
55.38
52.94
49.73
46.14
42.73
40.09
38.6
38.26
38.78
39.66
40.4
40.69
40.43
39.63
38.33
36.5
34.01
30.77
26.81
22.25
17.36
12.4
7.65
3.32
-0.47
-3.69
-6.46
-9.05
-11.87
-15.39
-19.99
-25.84
-32.65
-39.68
-45.69
-49.21
-48.97
-44.18
-34.94
-22.22
-7.66
6.87
19.77
30.01
37.32
41.94
44.39
45.2
44.73
43.21
40.84
37.89
34.83
32.22
30.57
30.1
30.77
32.28
34.17
36.02
37.44
38.1
37.76
36.23
33.5
29.75
25.28
20.35
14.91
8.54
0.5
-9.86
-22.71
-37.46
-52.71
-66.57
-77.08
-82.75
-82.93
-78.01
-69.39
-59.3
-50.22
-44.21
-42.29
-44.1
-47.98
-51.55
-52.62
-49.82
-42.99
-32.98
-21.15
-8.83
3.02
13.84
23.23
30.78
35.95
38.26
37.53
34.14
29.1
23.84
19.67
17.46
17.3
18.58
20.38
21.82
22.4
22.06
21.02
19.53
17.73
15.62
13.18
10.46
7.65
4.92
2.36
-0.16
-2.88
-6.04
-9.66
-13.59
-17.47
-21.0
-24.08
-26.91
-29.98
-33.88
-39.04
-45.39
-52.21
-58.05
-61.12
-59.78
-53.19
-41.71
-26.81
-10.68
4.53
17.26
26.88
33.49
37.65
39.9
40.59
39.87
37.84
34.77
31.18
27.82
25.54
25.01
26.45
29.55
33.42
36.93
39.03
39.15
37.37
34.28
30.72
27.35
24.4
21.59
18.21
13.39
6.3
-3.56
-16.06
-30.16
-43.84
-54.46
-59.36
-57.01
-47.78
-34.29
-20.79
-11.9
-11.07
-19.41
-35.4
-55.43
-75.06
-90.33
-98.64
-99.13
-92.38
-79.94
-63.73
-45.6
-27.13
-9.55
6.2
19.41
29.55
36.34
39.86
40.6
39.41
37.34
35.31
33.9
33.21
33.08
33.29
33.75
34.46
35.24
35.58
34.57
31.29
25.3
16.97
7.56
-1.31
-8.24
-12.6
-14.66
-15.36
-15.79
-16.68
-18.25
-20.27
-22.37
-24.41
-26.57
-29.31
-33.1
-38.06
-43.7
-48.99
-52.51
-52.93
-49.39
-41.73
-30.48
-16.59
-1.19
14.69
30.11
44.19
56.1
65.05
70.49
72.24
70.57
66.19
60.05
53.14
46.36
40.34
35.39
31.48
28.34
25.65
23.25
21.28
20.14
20.3
22.08
25.36
29.68
34.27
38.39
41.46
43.16
43.43
42.36
40.13
36.89
32.8
28.01
22.58
16.57
9.98
2.79
-5.0
-13.41
-22.29
-31.21
-39.38
-45.72
-49.1
-48.8
-44.81
-37.87
-29.26
-20.31
-11.98
-4.78
1.13
5.56
8.19
8.68
6.97
3.52
-0.67
-4.43
-6.8
-7.42
-6.47
-4.49
-2.04
0.55
3.14
5.69
8.08
10.12
11.61
12.45
12.7
12.56
12.26
11.95
11.6
10.95
9.6
7.1
3.05
-2.71
-10.18
-19.19
-29.36
-40.15
-50.75
-60.0
-66.53
-69.05
-66.75
-59.67
-48.77
-35.61
-21.91
-9.0
2.31
11.72
19.13
24.35
27.18
27.47
25.34
21.3
16.16
10.75
5.79
1.67
-1.5
-3.86
-5.73
-7.54
-9.66
-12.32
-15.47
-18.79
-21.88
-24.44
-26.51
-28.49
-30.9
-34.18
-38.4
-43.29
-48.41
-53.41
-58.29
-63.27
-68.6
-74.18
-79.34
-82.91
-83.59
-80.33
-72.74
-61.19
-46.74
-30.85
-15.16
-1.18
9.88
17.31
21.04
21.53
19.69
16.54
12.96
9.58
6.85
5.13
4.74
5.87
8.41
11.92
15.56
18.45
19.9
19.6
17.69
14.58
10.77
6.67
2.55
-1.47
-5.37
-9.22
-13.19
-17.57
-22.75
-29.06
-36.58
-44.88
-52.93
-59.17
-61.94
-59.99
-52.92
-41.36
-26.79
-11.06
4.16
17.68
28.86
37.48
43.48
46.85
47.66
46.21
43.07
39.09
35.16
31.96
29.87
28.83
28.54
28.61
28.84
29.2
29.77
30.61
31.57
32.33
32.41
31.32
28.76
24.7
19.37
13.25
6.87
0.65
-5.18
-10.69
-16.17
-22.06
-28.83
-36.71
-45.53
-54.59
-62.69
-68.26
-69.78
-66.24
-57.45
-44.19
-27.99
-10.74
5.82
20.4
32.31
41.35
47.64
51.45
53.12
53.04
51.72
49.79
47.87
46.56
46.24
47.08
48.93
51.45
54.12
56.46
58.01
58.54
58.0
56.53
54.34
51.59
48.3
44.39
39.72
34.28
28.24
22.01
16.08
10.88
6.59
3.04
-0.2
-3.7
-7.99
-13.39
-19.99
-27.51
-35.27
-42.17
-46.78
-47.71
-44.03
-35.68
-23.55
-9.34
5.05
18.03
28.67
36.71
42.35
45.92
47.66
47.76
46.41
43.96
40.9
37.81
35.22
33.47
32.7
32.78
33.48
34.48
35.49
36.27
36.64
36.47
35.62
34.0
31.58
28.39
24.56
20.21
15.51
10.62
5.72
0.99
-3.46
-7.58
-11.43
-15.16
-18.95
-22.98
-27.41
-32.33
-37.77
-43.56
-49.29
-54.18
-57.18
-57.2
-53.43
-45.67
-34.46
-20.95
-6.61
7.13
19.21
28.98
36.22
41.05
43.75
44.85
44.98
44.86
45.17
46.35
48.58
51.76
55.57
59.71
64.04
68.7
74.06
80.65
88.84
98.52
108.91
118.59
125.78
128.82
126.51
118.42
104.75
86.26
64.1
39.75
14.98
-8.26
-28.22
-43.63
