15.86
14.72
14.45
15.04
16.19
17.49
18.54
19.04
18.92
18.19
16.9
15.01
12.4
8.95
4.66
-0.31
-5.67
-11.16
-16.59
-21.94
-27.3
-32.82
-38.71
-45.29
-52.95
-62.16
-73.17
-85.78
-99.08
-111.51
-121.1
-126.1
-125.45
-119.19
-108.43
-95.01
-80.94
-68.11
-57.97
-51.52
-49.4
-51.76
-58.33
-68.24
-80.13
-92.25
-102.7
-109.58
-111.19
-106.16
-93.63
-73.49
-46.59
-14.73
19.57
53.44
84.23
109.94
129.43
142.43
149.51
151.75
150.58
147.46
143.62
139.84
136.28
132.49
127.59
120.57
110.77
98.06
82.96
66.37
49.18
31.88
14.53
-3.01
-20.54
-37.07
-50.84
-59.66
-61.72
-56.27
-43.98
-26.74
-7.03
12.75
30.85
46.34
58.97
68.89
76.31
81.36
84.07
84.41
82.51
78.77
73.92
68.96
64.83
62.18
61.09
61.08
61.4
61.33
60.54
59.05
57.07
54.67
51.61
47.34
41.33
33.49
24.25
14.56
5.4
-2.58
-9.37
-15.6
-22.23
-30.24
-40.35
-52.83
-67.46
-83.46
-99.43
-113.43
-123.21
-126.71
-122.66
-110.98
-92.93
-70.77
-47.22
-24.81
-5.37
10.12
21.39
28.7
32.52
33.36
31.78
28.3
23.5
18.0
12.47
7.54
3.78
1.58
1.09
2.25
4.67
7.82
11.04
13.65
15.13
15.23
14.09
12.23
10.38
9.21
9.1
9.95
11.26
12.32
12.53
11.53
9.27
5.93
1.93
-2.05
-4.98
-5.54
-2.33
5.63
18.55
35.67
55.5
76.33
96.77
115.97
133.46
148.82
161.47
170.75
176.35
178.71
179.0
178.58
178.13
176.99
173.17
164.27
148.7
126.84
101.11
75.26
52.95
36.39
25.66
18.9
13.21
5.86
-4.74
-18.58
-34.29
-49.85
-63.47
-74.41
-83.22
-91.44
-100.87
-112.69
-126.86
-142.06
-156.12
-166.72
-172.11
-171.43
-164.84
-153.26
-138.15
-121.19
-104.06
-88.26
-74.91
-64.65
-57.62
-53.44
-51.55
-51.38
-52.49
-54.52
-56.92
-58.77
-58.83
-55.94
-49.63
-40.49
-30.15
-20.62
-13.51
-9.28
-7.2
-5.9
-4.27
-2.08
-0.1
0.29
-2.03
-7.39
-15.11
-23.91
-32.49
-40.12
-46.76
-52.93
-59.06
-65.1
-70.22
-73.05
-72.18
-66.71
-56.65
-42.91
-26.92
-10.19
6.05
20.98
33.92
44.19
51.01
53.75
52.37
47.72
41.46
35.65
31.96
31.16
32.96
36.31
39.95
42.94
44.92
46.01
46.52
46.71
46.59
45.95
44.42
41.59
37.12
30.86
23.05
14.33
5.73
-1.65
-6.97
-10.03
-11.41
-12.31
-14.17
-18.1
-24.53
-32.96
-42.1
-50.25
-55.8
-57.63
-55.43
-49.74
-41.72
-32.82
-24.36
-17.31
-12.14
-8.91
-7.33
-6.9
-7.03
-7.2
-7.06
-6.53
-5.73
-4.86
-4.11
-3.6
-3.35
-3.45
-3.94
-4.86
-6.13
-7.56
-9.05
-10.62
-12.58
-15.27
-18.89
-23.3
-28.06
-32.75
-37.23
-41.86
-47.36
-54.52
-63.73
-74.74
-86.61
-97.83
-106.56
-111.04
-109.81
-102.17
-88.28
-69.23
-46.71
-22.6
1.52
24.58
45.91
64.93
80.85
92.65
99.37
100.64
97.0
89.88
81.15
72.49
64.85
58.4
52.71
47.26
41.85
36.75
32.52
29.64
28.17
27.56
26.84
24.95
21.23
15.64
8.72
1.32
-5.87
-12.56
-18.94
-25.51
-32.84
-41.37
-51.33
-62.65
-74.88
-87.04
-97.6
-104.56
-105.93
-100.29
-87.37
-68.28
-45.31
-21.28
1.19
20.3
35.25
46.14
53.52
58.04
60.22
60.42
58.99
56.34
52.97
49.36
45.98
43.19
41.37
40.9
42.06
44.84
48.76
52.88
55.99
57.14
55.87
52.42
47.42
41.62
35.46
29.0
22.05
14.38
5.98
-2.94
-12.04
-21.09
-30.08
-39.32
-49.32
-60.62
-73.55
-87.95
-103.07
-117.42
-128.95
-135.31
-134.36
-124.81
-106.68
-81.52
-52.16
-22.04
5.68
28.82
46.52
58.99
67.03
71.51
73.07
72.16
69.23
64.95
60.17
55.9
52.88
51.49
51.56
52.41
52.99
52.22
49.35
44.21
37.24
29.35
21.5
14.27
7.73
1.43
-5.2
-12.61
-20.86
-29.64
-38.42
-46.66
-54.13
-60.86
-67.25
-73.94
-81.61
-90.78
-101.58
-113.6
-125.75
-136.43
-143.7
-145.76
-141.33
-130.15
-113.1
-92.15
-70.07
-49.94
-34.45
-25.32
-22.71
-25.14
-29.68
-32.79
-31.24
-22.99
-7.5
14.43
41.21
71.03
102.07
132.6
160.9
185.42
205.09
219.75
230.19
237.9
244.5
251.08
257.79
263.71
267.21
266.37
259.56
245.88
225.37
199.02
168.48
135.69
102.42
70.04
39.47
11.35
-13.84
-35.69
-53.97
-68.86
-81.03
-91.56
-101.61
-111.89
-122.2
-131.3
-137.32
-138.44
-133.74
-123.58
-109.58
-93.93
-78.68
-65.11
-53.77
-44.67
-37.74
-33.09
-30.91
-31.28
-33.92
-38.14
-43.06
-47.89
-52.09
-55.44
-57.97
-59.84
-61.17
-61.97
-62.08
-61.26
-59.36
-56.44
-52.92
-49.5
-46.86
-45.35
-44.79
-44.51
-43.67
-41.67
-38.43
-34.41
-30.39
-27.08
-24.91
-23.97
-24.07
-24.94
-26.33
-28.13
-30.35
-33.18
-36.99
-42.31
-49.49
-58.51
-68.56
-77.99
-84.58
-86.06
-80.8
-68.22
-49.06
-25.12
1.11
26.99
50.17
69.02
82.91
92.11
97.64
100.79
102.74
104.16
105.28
105.95
105.93
105.02
103.16
100.34
96.6
92.01
86.72
80.96
74.95
68.81
62.52
55.97
49.04
41.69
33.99
26.02
17.83
9.35
0.46
-8.98
-19.03
-29.61
-40.52
-51.39
-61.84
-71.53
-80.4
-88.67
-96.89
-105.65
-115.34
-125.77
-135.98
-144.32
-148.81
-147.6
-139.6
-124.77
-104.22
-80.0
-54.57
-30.29
-8.96
8.39
21.48
30.54
36.04
38.58
38.81
37.38
34.97
32.22
29.67
27.74
26.75
26.93
28.38
31.01
34.49
38.27
41.7
44.15
45.21
44.62
42.29
38.22
32.44
25.16
16.76
7.88
-0.72
-8.43
-14.88
-20.07
-24.32
-28.18
-32.31
-37.34
-43.84
-52.13
-62.12
-73.12
-83.8
-92.3
-96.6
-95.04
-86.74
-71.91
-51.88
-28.7
-4.74
17.83
37.41
53.14
64.9
73.05
78.22
81.03
81.93
81.24
79.26
76.39
73.14
70.12
67.86
66.77
66.99
68.49
71.03
74.27
77.77
81.06
83.7
85.4
86.07
85.78
84.75
83.2
81.31
79.15
76.69
73.9
70.79
67.48
64.17
61.16
58.71
56.95
55.73
54.47
52.18
47.71
40.16
29.47
16.75
4.25
-5.19
-9.01
-5.76
4.42
19.93
38.17
56.39
72.23
84.04
91.03
93.12
90.78
84.96
76.86
67.75
58.73
50.54
43.45
37.31
31.75
26.33
20.77
15.0
9.12
3.25
-2.59
-8.63
-15.26
-22.86
-31.59
-41.24
-51.28
-61.04
-69.9
-77.5
-83.73
-88.7
-92.61
-95.69
-98.17
-100.24
-102.06
-103.68
-105.02
-105.92
-106.22
-105.96
-105.5
-105.49
-106.76
-110.01
-115.42
-122.43
-129.62
-134.92
-136.07
-131.23
-119.52
-101.42
-78.61
-53.54
-28.73
-6.23
12.77
27.9
39.39
47.68
53.18
56.23
57.08
56.05
53.61
50.4
47.15
44.52
42.96
42.63
43.35
44.73
46.3
47.7
48.67
49.08
48.81
47.69
45.52
42.18
37.67
32.19
26.05
19.59
13.09
6.71
0.52
-5.46
-11.31
-17.23
-23.61
-30.99
-39.89
-50.57
-62.72
-75.36
-86.9
-95.49
-99.43
-97.67
-90.03
-77.21
-60.71
-42.3
-23.79
-6.66
8.03
19.77
28.42
34.2
37.49
38.79
38.64
37.57
36.08
34.57
33.33
32.56
32.39
32.9
34.12
35.92
38.04
40.05
41.48
41.97
41.35
39.66
37.04
33.67
29.61
24.86
19.43
13.42
7.0
0.4
-6.23
-12.84
-19.52
-26.51
-34.08
-42.6
-52.35
-63.44
-75.56
-87.8
-98.64
-106.2
-108.66
-104.81
-94.47
-78.51
-58.67
-37.04
-15.63
3.99
20.78
34.26
44.39
51.4
55.79
58.13
59.07
59.14
58.76
58.18
57.51
56.81
56.17
55.74
55.76
56.42
57.78
59.73
61.86
63.58
64.25
63.36
60.72
56.44
50.95
44.74
38.24
31.61
24.8
17.68
10.17
2.35
-5.53
-13.2
-20.49
-27.49
-34.48
-41.94
-50.37
-60.11
-71.18
-83.12
-94.91
-105.04
-111.77
-113.46
-109.07
-98.48
-82.61
-63.27
-42.64
-22.82
-5.23
9.45
21.23
30.46
37.49
42.5
45.56
46.81
46.55
45.34
43.8
42.45
41.6
41.39
41.86
43.11
45.24
48.26
51.97
55.85
59.15
61.1
61.19
59.32
55.89
51.59
47.12
42.92
39.06
35.32
31.38
27.03
22.28
17.34
12.53
8.09
4.03
0.15
-3.98
-8.89
-15.06
-22.69
-31.55
-40.78
-48.97
-54.39
-55.37
-50.81
-40.47
-25.18
-6.58
13.22
32.14
48.55
61.42
70.29
75.15
76.27
74.16
69.46
62.92
55.25
47.02
38.63
30.29
22.12
14.16
6.39
-1.36
-9.46
-18.32
-28.35
-39.67
-52.13
-65.25
-78.35
-90.68
-101.48
-110.13
-116.15
-119.33
-119.69
-117.42
-112.84
-106.33
-98.35
-89.54
-80.71
-72.83
-66.69
-62.62
-60.23
-58.38
-55.47
-49.92
-40.71
-27.64
-11.44
6.58
24.82
41.89
56.86
69.32
79.24
86.8
92.17
95.5
96.92
96.72
95.38
93.58
91.99
91.09
91.0
91.49
92.15
92.6
92.64
92.3
91.72
91.0
90.1
88.86
87.14
84.84
81.9
78.19
73.4
66.99
58.43
47.46
34.39
20.1
5.88
-7.05
-17.85
-26.39
-33.12
-38.86
-44.32
-49.8
-54.96
-58.77
-59.8
-56.55
-48.01
-33.99
-15.26
6.7
30.14
53.56
76.02
97.09
116.63
134.43
150.19
163.57
174.54
183.46
190.99
197.78
204.16
210.05
215.17
219.18
221.72
222.17
219.51
212.27
199.11
179.33
153.39
122.73
89.27
54.54
19.39
-16.04
-51.67
-86.95
-120.45
-150.05
-173.51
-189.3
-197.17
-198.34
-195.07
-189.73
-183.87
-177.75
-170.65
-161.69
-150.74
-138.73
-127.21
-117.42
-109.57
-102.66
-95.21
-86.08
-75.09
-62.99
-50.88
-39.57
-29.2
-19.45
-9.83
-0.17
9.28
17.87
24.93
30.0
33.14
34.87
35.93
36.83
37.53
37.22
34.64
28.63
18.73
5.58
-9.01
-22.49
-32.24
-36.31
-34.11
-26.8
-17.22
-9.2
-6.48
-11.49
-24.4
-43.05
-63.74
-82.55
-96.69
-105.16
-108.56
-108.42
-106.23
-103.02
-99.25
-95.17
-91.11
-87.51
-84.73
-82.66
-80.57
-77.29
-71.69
-63.27
-52.54
-40.94
-30.39
-22.46
-17.83
-16.0
-15.63
-15.17
-13.54
-10.54
-6.73
-2.99
0.09
2.45
4.64
7.35
11.05
15.69
20.74
25.48
29.3
31.89
33.08
32.68
30.34
25.49
17.63
6.55
-7.49
-23.78
-41.27
-58.82
-75.27
-89.5
-100.52
-107.61
-110.53
-109.73
-106.38
-102.1
-98.61
-97.22
-98.59
-102.58
-108.3
-114.11
-117.79
-116.81
-108.88
-92.63
-68.32
-37.98
-5.12
26.33
53.05
73.18
86.57
94.32
98.03
99.12
98.55
96.99
95.07
93.52
92.99
93.58
94.56
94.39
91.18
83.5
70.92
54.22
35.05
15.3
-3.49
-20.38
-34.98
-47.26
-57.44
-65.97
-73.74
-82.01
-92.17
-105.26
-121.33
-139.08
-156.05
-169.12
-175.44
-173.33
-162.7
-145.1
-123.21
-100.12
-78.59
-60.53
-46.59
-36.12
-27.3
-17.54
-4.15
14.78
39.76
69.49
101.19
131.4
157.04
176.16
188.42
194.68
196.55
195.64
193.19
189.93
186.12
181.64
176.01
168.48
158.19
144.66
128.23
110.21
92.61
77.32
65.34
56.29
48.63
40.38
30.11
17.38
2.76
-12.66
-27.86
-42.24
-55.62
-67.88
-78.78
-88.0
-95.33
-101.0
-105.69
-110.26
-115.41
-121.18
-126.87
-131.08
-132.14
-128.55
-119.41
-104.65
-85.05
-62.04
-37.41
-13.04
9.39
28.58
43.54
53.67
58.74
58.86
54.56
46.78
36.82
26.19
16.39
8.72
4.03
2.58
3.97
7.18
10.9
13.86
15.21
14.82
13.13
10.94
8.91
7.18
5.34
2.66
-1.49
-7.3
-14.36
-21.87
-29.03
-35.43
-41.18
-46.84
-53.19
-60.91
-70.47
-82.02
-95.26
-109.26
-122.22
-131.48
-134.01
-127.33
-110.53
-84.85
-53.61
-21.2
8.26
32.06
49.32
60.64
67.29
70.37
70.5
67.89
62.75
55.62
47.37
39.04
31.55
25.49
21.16
18.68
18.1
19.45
22.52
26.85
31.59
35.79
38.55
39.25
37.64
33.65
27.38
18.94
8.62
-3.06
-15.21
-26.77
-36.83
-44.86
-51.05
-56.15
-61.21
-67.22
-74.83
-84.22
-95.06
-106.48
-116.98
-124.46
-126.33
-120.07
-104.02
-78.12
-44.24
-5.86
32.78
67.82
96.54
117.73
131.4
138.25
139.34
135.73
128.56
118.97
108.1
96.92
86.17
76.34
67.81
60.88
55.65
51.99
49.39
47.16
44.59
41.17
36.76
31.44
25.4
18.75
11.57
3.93
-3.97
-11.9
-19.69
-27.41
-35.49
-44.47
-54.83
-66.7
-79.76
-93.35
-106.75
-119.45
-131.2
-141.84
-151.04
-158.03
-161.58
-160.25
-152.79
-138.49
-117.48
-90.76
-60.19
-28.23
2.49
29.66
51.85
68.97
82.32
94.11
106.79
122.0
139.89
158.86
175.91
187.58
191.0
184.8
169.48
147.06
120.29
91.59
62.27
32.47
1.72
-30.18
-62.43
-93.03
-119.23
-138.34
-148.5
-149.26
-141.54
-127.4
-109.53
-90.87
-74.21
-61.76
-54.83
-53.42
-56.18
-60.57
-63.59
-62.6
-56.09
-44.17
-28.39
-11.24
4.67
17.32
25.71
29.95
31.0
30.25
29.09
28.42
28.4
28.37
27.19
23.78
17.7
9.44
0.23
-8.52
-15.79
-21.27
-25.19
-27.77
-28.84
-27.65
-23.2
-14.71
-2.02
14.21
32.6
51.16
67.48
78.97
83.31
79.13
66.62
47.67
25.48
3.51
-15.75
-31.5
-44.56
-56.54
-68.74
-81.25
-92.75
-100.99
-103.65
-99.23
-87.42
-69.01
-45.48
-18.53
10.12
38.72
65.34
87.9
104.5
113.92
116.06
112.06
103.95
93.96
83.84
74.51
66.04
58.08
50.33
42.82
35.96
30.31
26.33
24.16
23.46
23.54
23.51
22.72
21.01
18.75
16.61
15.01
13.66
11.43
6.66
-2.05
-15.1
-31.41
-48.6
-63.84
-74.91
-81.08
-83.31
-83.79
-84.87
-88.06
-93.4
-99.55
-104.46
-106.16
-103.31
-95.31
-82.02
-63.59
-40.46
-13.66
14.82
42.13
65.01
80.74
87.94
86.97
79.65
68.57
56.25
44.57
34.6
26.73
21.0
17.28
15.44
15.21
16.24
18.02
20.06
22.0
23.59
24.7
25.15
24.69
23.07
20.14
16.06
11.28
6.32
1.59
-2.9
-7.5
-12.84
-19.53
-28.02
-38.39
-50.38
-63.24
-75.66
-85.87
-91.77
-91.45
-83.87
-69.23
-49.17
-26.34
-3.59
16.77
33.51
46.41
55.92
62.62
66.92
68.99
68.99
67.22
64.25
60.82
57.56
54.87
52.8
51.25
50.1
49.3
48.92
49.01
49.41
49.78
49.58
48.29
45.57
41.35
35.84
29.38
22.33
14.99
7.57
0.18
-7.11
-14.31
-21.6
-29.29
-37.88
-47.84
-59.33
-71.99
-84.68
-95.62
-102.69
-104.05
-98.6
-86.4
-68.66
-47.37
-24.82
-3.02
16.57
33.18
46.54
56.68
63.83
68.33
70.61
71.25
70.83
69.89
68.76
67.64
66.61
65.78
65.34
65.48
66.31
67.69
69.19
70.19
70.08
68.43
65.15
60.49
54.89
48.8
42.51
36.08
29.38
22.27
14.67
6.75
-1.24
-9.02
-16.43
-23.57
-30.77
-38.48
-47.14
-57.02
-68.09
-79.78
-90.98
-100.0
-104.92
-104.05
-96.44
-82.36
-63.25
-41.38
-19.17
1.45
19.36
34.23
46.17
55.33
61.77
65.47
66.54
65.42
62.82
59.59
56.43
53.78
51.8
50.49
49.81
49.86
50.72
52.37
54.6
56.89
58.55
58.9
57.54
54.46
50.1
45.2
40.49
36.47
33.18
30.26
27.12
23.23
18.37
12.66
6.5
0.28
-5.73
-11.54
-17.34
-23.47
-30.28
-38.11
-47.18
-57.48
-68.48
-79.06
-87.51
-91.84
-90.43
-82.57
-68.77
-50.74
-30.81
-11.29
6.11
20.54
31.88
40.4
46.46
50.29
52.06
51.98
50.41
47.88
44.98
42.25
40.05
38.54
37.79
37.76
38.39
39.51
40.82
41.89
42.25
41.47
39.38
36.03
31.68
26.64
21.13
15.26
9.04
2.53
-4.15
-10.77
-17.13
-23.14
-28.97
-34.94
-41.49
-48.95
-57.36
-66.35
-74.98
-81.89
-85.48
-84.36
-77.7
-65.57
-48.97
-29.61
-9.52
9.47
26.02
39.43
49.49
56.36
60.35
61.91
61.59
59.98
57.69
55.26
53.0
51.0
49.23
47.61
46.15
44.94
44.09
43.59
43.2
42.47
40.88
38.04
33.82
28.47
22.49
16.38
10.51
4.92
-0.56
-6.18
-12.1
-18.2
-24.26
-30.02
-35.44
-40.7
-46.22
-52.48
-59.81
-68.35
-77.88
-87.78
-97.03
-104.27
-107.9
-106.51
-99.24
-86.21
-68.63
-48.57
-28.37
-10.03
5.3
17.42
26.74
33.87
39.19
42.78
44.54
44.53
43.09
40.84
38.44
36.42
34.99
34.17
33.88
34.05
34.62
35.53
36.55
37.33
37.4
36.37
34.07
30.55
26.17
21.36
16.5
11.8
7.23
2.6
-2.28
-7.54
-13.1
-18.73
-24.21
-29.35
-34.1
-38.58
-43.03
-47.81
-53.36
-60.1
-68.21
-77.36
-86.52
-94.02
-97.92
-96.56
-89.18
-76.19
-59.09
-40.01
-21.05
-3.82
10.82
22.6
31.65
38.24
42.61
45.02
45.78
45.31
44.06
42.47
40.87
39.45
38.3
37.45
36.97
36.93
37.35
38.15
39.08
39.73
39.64
38.44
35.96
32.31
27.82
22.88
17.84
12.89
8.05
3.24
-1.59
-6.46
-11.28
-15.92
-20.33
-24.54
-28.72
-33.13
-38.13
-44.04
-51.06
-59.07
-67.42
-74.93
-80.02
-81.16
-77.32
-68.37
-55.23
-39.53
-23.19
-7.9
5.24
15.76
23.67
29.15
32.45
33.76
33.35
31.55
28.87
25.91
23.28
21.48
20.78
21.25
22.72
24.89
27.44
30.01
32.29
33.97
34.71
34.19
32.21
28.76
24.15
18.9
13.61
8.72
4.36
0.31
-3.88
-8.59
-13.99
-20.0
-26.34
-32.74
-39.07
-45.4
-51.95
-59.0
-66.78
-75.34
-84.37
-93.16
-100.55
-105.08
-105.33
-100.34
-90.0
-75.17
-57.48
-38.86
-21.05
-5.18
8.26
19.3
28.17
35.05
40.08
43.33
45.03
45.54
45.36
44.93
44.55
44.36
44.36
44.58
45.05
45.86
47.09
48.68
50.42
51.96
52.88
52.77
51.32
48.41
44.2
39.13
33.8
28.8
24.45
20.71
17.2
13.37
8.79
3.37
-2.59
-8.52
-13.9
-18.46
-22.35
-26.08
-30.34
-35.72
-42.51
-50.49
-58.9
-66.46
-71.64
-72.94
-69.33
-60.57
-47.32
-31.01
-13.49
3.43
18.38
30.53
39.61
45.74
49.28
50.7
50.5
49.09
46.84
43.99
40.73
37.28
33.97
31.23
29.49
28.99
29.68
31.17
32.89
34.23
34.74
34.16
32.44
29.7
26.12
21.94
17.39
12.68
7.93
3.24
-1.29
-5.56
-9.42
-12.75
-15.57
-18.09
-20.71
-23.96
-28.28
-33.88
-40.45
-47.11
-52.44
-54.73
-52.43
-44.55
-31.08
-12.98
7.98
29.7
50.26
68.2
82.74
93.68
101.19
105.61
107.27
106.44
103.34
98.21
91.36
83.19
74.16
64.67
55.13
45.98
37.72
30.82
25.65
22.17
19.85
17.73
14.72
10.04
3.52
-4.32
-12.54
-20.21
-26.87
-32.55
-37.79
-43.16
-49.07
-55.46
-62.0
-68.17
-73.56
-77.98
-81.49
-84.41
-87.24
-90.62
-95.17
-101.33
-108.98
-117.3
-124.65
-128.88
-127.87
-120.2
-105.66
-85.46
-61.91
-37.76
-15.52
3.15
17.69
28.38
36.01
41.43
45.21
47.62
48.67
48.3
46.5
43.46
39.48
35.05
30.74
27.13
24.68
23.59
23.76
24.7
25.75
26.22
25.58
23.6
20.31
15.89
10.6
4.64
-1.87
-8.8
-15.98
-23.14
-29.93
-35.98
-41.06
-45.26
-49.02
-53.05
-58.2
-65.03
-73.49
-82.78
-91.35
-97.25
-98.61
-94.15
-83.59
-67.78
-48.42
-27.71
-7.72
10.0
24.55
35.7
43.62
48.62
51.01
51.09
49.22
45.84
41.53
36.91
32.6
29.07
26.62
25.35
25.19
25.93
27.22
28.64
29.7
29.87
28.72
26.05
21.95
16.84
11.29
5.8
0.57
-4.52
-9.83
-15.7
-22.2
-29.1
-35.94
-42.26
-47.83
-52.82
-57.75
-63.32
-70.21
-78.73
-88.58
-98.76
-107.6
-113.09
-113.41
-107.45
-95.16
-77.66
-56.92
-35.22
-14.64
3.39
18.13
29.46
37.62
43.03
46.12
47.37
47.25
46.23
44.76
43.2
41.79
40.66
39.81
39.24
39.01
39.2
39.88
41.02
42.39
43.61
44.2
43.75
42.1
39.3
35.64
31.49
27.19
22.97
18.85
14.73
10.36
5.55
0.14
-5.81
-12.07
-18.29
-24.22
-29.84
-35.5
-41.9
-49.76
-59.56
-71.14
-83.46
-94.71
-102.66
-105.17
-100.9
-89.7
-72.7
-52.01
-30.11
-9.23
9.1
24.16
35.88
44.59
50.67
54.5
56.41
56.76
55.95
54.4
52.53
50.68
49.08
47.91
47.29
47.33
48.05
49.4
51.12
52.8
53.88
53.85
52.33
49.25
44.8
39.35
33.31
26.99
20.55
14.06
7.53
1.04
-5.34
-11.54
-17.62
-23.75
-30.26
-37.51
-45.76
-54.94
-64.51
-73.37
-80.05
-82.95
-80.82
-73.19
-60.49
-44.05
-25.74
-7.48
9.15
23.16
34.19
42.29
47.74
50.86
51.98
51.42
49.58
46.94
44.01
41.3
39.15
37.79
37.3
37.61
38.61
40.09
41.74
43.16
43.91
43.54
41.8
38.76
34.75
30.35
26.11
22.3
18.87
15.44
11.54
6.78
1.05
-5.45
-12.33
-19.05
-25.22
-30.68
-35.63
-40.62
-46.42
-53.68
-62.63
-72.65
-82.32
-89.58
-92.35
-89.02
-79.02
-62.93
-42.35
-19.45
3.55
24.78
43.09
57.99
69.57
