44.91
44.98
45.28
45.81
45.89
44.13
38.78
28.45
12.8
-7.03
-28.54
-48.49
-63.63
-71.48
-70.83
-61.89
-46.14
-26.02
-4.39
16.08
33.33
46.22
54.54
58.71
59.43
57.35
53.05
47.03
39.85
32.18
24.73
18.19
13.1
9.83
8.54
9.21
11.57
15.18
19.39
23.44
26.61
28.31
28.24
26.34
22.86
18.14
12.61
6.6
0.35
-6.01
-12.41
-18.74
-24.89
-30.68
-36.05
-41.12
-46.29
-52.16
-59.35
-68.14
-78.14
-88.1
-96.04
-99.64
-97.0
-87.2
-70.67
-49.14
-25.25
-1.96
18.0
32.55
40.56
42.02
37.93
30.12
20.73
11.66
4.16
-1.36
-5.19
-7.93
-10.05
-11.71
-12.69
-12.7
-11.51
-9.19
-6.11
-2.85
-0.05
1.75
2.32
1.76
0.52
-0.74
-1.43
-1.32
-0.66
-0.29
-1.39
-4.94
-11.14
-18.94
-26.09
-29.7
-27.23
-17.38
-0.66
20.56
42.53
60.96
71.89
72.62
62.4
42.8
17.32
-9.53
-33.65
-52.54
-65.77
-74.53
-80.62
-85.29
-88.85
-90.84
-90.65
-88.0
-82.83
-75.14
-64.65
-51.04
-34.29
-15.11
5.01
24.18
40.84
54.18
64.19
71.45
76.63
80.13
82.03
82.16
80.4
76.74
71.45
65.02
58.11
51.26
44.69
38.07
30.44
20.61
7.53
-9.23
-29.16
-50.99
-73.13
-94.11
-113.08
-129.97
-145.33
-160.1
-175.21
-191.21
-207.92
-224.28
-238.3
-247.31
-248.46
-239.61
-220.04
-191.07
-155.86
-118.68
-83.78
-54.32
-31.77
-15.98
-5.85
0.03
2.82
3.29
2.07
-0.23
-2.89
-5.21
-6.58
-6.58
-5.0
-1.77
3.05
9.19
16.14
23.19
29.49
34.31
37.15
37.93
36.95
34.74
31.76
28.27
24.21
19.34
13.45
6.57
-0.97
-8.67
-16.08
-23.1
-30.05
-37.63
-46.73
-57.96
-71.38
-86.18
-100.66
-112.4
-118.79
-117.66
-107.91
-89.85
-65.17
-36.53
-6.94
20.99
45.37
65.27
80.46
91.19
97.86
100.9
100.77
97.96
93.15
87.11
80.73
74.91
70.38
67.69
67.04
68.3
71.01
74.44
77.8
80.33
81.47
80.9
78.53
74.45
68.85
61.98
54.14
45.59
36.61
27.39
18.09
8.72
-0.8
-10.64
-21.06
-32.41
-45.0
-58.97
-73.97
-88.96
-102.05
-110.74
-112.45
-105.28
-88.64
-63.56
-32.45
1.52
35.19
65.89
91.75
111.63
125.07
132.33
134.39
132.8
129.29
125.23
121.21
117.04
112.15
106.18
99.46
92.98
87.94
85.08
84.36
84.87
85.32
84.58
82.13
78.15
73.34
68.55
64.41
61.06
58.12
54.8
50.19
43.51
34.41
23.05
10.1
-3.52
-16.85
-29.19
-40.26
-50.23
-59.73
-69.55
-80.41
-92.48
-105.07
-116.56
-124.69
-127.11
-122.17
-109.5
-90.14
-66.29
-40.57
-15.44
7.32
26.64
42.08
53.55
61.22
65.42
66.68
65.61
62.86
58.96
54.41
49.73
45.6
42.83
42.31
44.68
50.19
58.44
68.56
79.29
89.27
97.34
102.71
105.16
105.01
103.02
100.1
96.99
94.01
90.9
87.02
81.53
73.73
63.37
50.61
36.05
20.42
4.36
-11.83
-28.24
-45.18
-62.93
-81.35
-99.6
-116.17
-129.02
-136.11
-135.95
-128.04
-113.16
-93.21
-70.74
-48.3
-27.93
-10.79
2.77
12.96
20.2
24.85
27.12
27.23
25.5
22.4
18.55
14.58
11.0
8.21
6.44
5.79
6.27
7.73
9.89
12.25
14.14
14.87
13.9
11.07
6.72
1.73
-2.78
-5.81
-6.8
-5.89
-3.8
-1.64
-0.43
-0.94
-3.46
-7.95
-14.13
-21.6
-29.88
-38.3
-45.92
-51.52
-53.77
-51.58
-44.44
-32.77
-17.83
-1.48
14.37
28.22
39.32
47.56
53.31
57.03
59.17
59.98
59.63
58.28
56.14
53.49
50.7
48.22
46.48
45.8
46.28
47.71
49.65
51.54
52.85
53.19
52.34
50.17
46.65
41.81
35.87
29.12
21.91
14.51
7.01
-0.66
-8.68
-17.11
-25.93
-34.94
-43.89
-52.58
-60.91
-68.92
-76.76
-84.58
-92.43
-100.05
-106.7
-111.17
-111.95
-107.61
-97.29
-81.11
-60.3
-36.89
-13.17
8.79
27.65
42.88
54.57
63.17
69.1
72.69
74.19
73.92
72.28
69.87
67.27
64.94
63.09
61.75
60.86
60.4
60.42
60.96
61.89
62.82
63.19
62.37
59.92
55.72
50.02
43.33
36.26
29.37
23.09
17.69
13.3
9.89
7.28
5.17
3.17
0.86
-2.11
-5.98
-10.8
-16.43
-22.58
-28.81
-34.55
-39.12
-41.73
-41.59
-38.03
-30.62
-19.38
-4.9
11.76
29.12
45.62
59.89
70.98
78.45
82.36
83.06
80.99
76.52
69.87
61.32
51.26
40.4
29.61
19.83
11.73
5.53
1.01
-2.3
-4.91
-7.14
-9.09
-10.76
-12.21
-13.63
-15.36
-17.69
-20.84
-24.79
-29.33
-34.09
-38.76
-43.04
-46.82
-50.17
-53.37
-56.83
-61.1
-66.58
-73.5
-81.66
-90.4
-98.6
-104.8
-107.53
-105.57
-98.37
-86.21
-70.19
-51.98
-33.4
-15.99
-0.78
11.84
21.88
29.55
35.02
38.41
39.86
39.63
38.15
36.01
33.79
31.93
30.69
30.13
30.23
30.88
31.97
33.33
34.7
35.77
36.14
35.47
33.6
30.61
26.82
22.65
18.48
14.46
10.44
6.08
0.96
-5.13
-12.09
-19.58
-27.11
-34.28
-40.96
-47.25
-53.55
-60.33
-67.99
-76.66
-86.08
-95.4
-103.31
-108.19
-108.53
-103.34
-92.45
-76.72
-57.72
-37.43
-17.71
0.02
15.01
27.05
36.35
43.24
48.05
50.99
52.25
52.01
50.55
48.24
45.54
42.79
40.29
38.22
36.71
35.88
35.83
36.54
37.85
39.35
40.45
40.54
39.2
36.35
32.29
27.6
22.9
18.62
14.85
11.36
7.76
3.74
-0.84
-5.88
-11.15
-16.41
-21.53
-26.59
-31.8
-37.51
-44.1
-51.78
-60.47
-69.61
-78.07
-84.33
-86.83
-84.39
-76.64
-64.15
-48.34
-31.09
-14.21
0.93
13.58
23.53
30.94
36.06
39.12
40.31
39.88
38.2
35.76
33.16
30.92
29.41
28.79
29.04
30.0
31.48
33.29
35.25
37.19
38.85
39.93
40.13
39.19
37.06
33.82
29.74
25.15
20.41
15.83
11.63
7.87
4.46
1.11
-2.61
-7.1
-12.65
-19.22
-26.36
-33.24
-38.71
-41.5
-40.47
-34.86
-24.59
-10.27
6.81
24.96
42.46
57.92
70.39
79.43
85.0
87.33
86.89
84.33
80.5
76.37
72.86
70.68
70.21
71.38
73.79
76.9
80.15
83.14
85.68
87.74
89.39
90.68
91.66
92.37
92.92
93.57
94.66
96.45
98.85
101.19
102.28
100.74
95.6
86.84
75.53
63.49
52.58
43.85
37.14
31.17
24.1
14.3
0.95
-15.72
-34.53
-53.69
-71.25
-85.47
-95.12
-99.67
-99.34
-95.06
-88.14
-80.02
-71.88
-64.46
-57.97
-52.2
-46.71
-41.13
-35.27
-29.17
-23.09
-17.36
-12.3
-8.09
-4.84
-2.5
-0.91
0.28
1.5
3.13
5.27
7.56
9.16
9.03
6.44
1.32
-5.54
-12.88
-19.53
-24.88
-29.17
-33.08
-37.37
-42.33
-47.73
-53.08
-57.94
-62.29
-66.48
-71.09
-76.66
-83.48
-91.43
-99.92
-107.8
-113.52
-115.33
-111.78
-102.29
-87.44
-68.95
-49.2
-30.5
-14.49
-1.87
7.46
14.04
18.38
20.8
21.42
20.31
17.72
14.08
10.02
6.1
2.81
0.31
-1.41
-2.56
-3.32
-3.81
-4.09
-4.23
-4.5
-5.45
-7.89
-12.72
-20.61
-31.77
-45.81
-61.83
-78.66
-95.18
-110.54
-124.27
-136.24
-146.57
-155.46
-163.21
-170.24
-177.1
-184.41
-192.63
-201.69
-210.69
-217.83
-220.8
-217.46
-206.81
-189.45
-167.62
-144.47
-123.03
-105.25
-91.62
-81.36
-73.18
-65.94
-59.07
-52.39
-45.81
-38.95
-31.12
-21.57
-9.83
3.99
19.23
34.83
49.69
62.93
74.11
83.26
90.67
96.66
101.29
104.15
104.48
101.51
94.83
84.77
72.34
59.06
46.5
35.96
28.3
23.78
22.07
22.24
22.83
22.37
19.89
15.5
10.53
7.12
7.33
12.24
21.39
32.95
44.43
53.59
59.12
60.89
59.59
56.3
51.92
46.94
41.46
35.4
28.77
21.8
14.89
8.54
3.07
-1.39
-4.92
-7.67
-9.75
-11.31
-12.61
-14.03
-16.1
-19.23
-23.46
-28.34
-33.01
-36.55
-38.44
-38.79
-38.33
-38.11
-39.03
-41.45
-45.18
-49.69
-54.43
-59.19
-64.15
-69.84
-76.83
-85.5
-95.76
-106.92
-117.58
-125.86
-129.65
-127.17
-117.49
-100.92
-78.97
-53.96
-28.39
-4.37
16.78
34.53
48.9
60.1
68.32
73.7
76.44
76.89
75.6
73.21
70.33
67.34
64.42
61.55
58.72
55.97
53.45
51.25
49.3
47.29
44.74
41.16
36.31
30.29
23.53
16.56
9.79
3.38
-2.82
-9.05
-15.56
-22.41
-29.5
-36.59
-43.38
-49.71
-55.55
-61.12
-66.91
-73.54
-81.51
-90.9
-101.03
-110.4
-116.88
-118.17
-112.53
-99.27
-79.1
-53.93
-26.4
0.85
25.74
47.05
64.41
78.02
88.34
95.85
101.0
104.26
106.16
107.28
108.17
109.26
110.78
112.72
114.89
117.0
118.79
120.13
121.01
121.52
121.69
121.41
120.35
118.03
114.04
108.23
100.78
92.19
83.08
73.98
65.21
56.85
48.78
40.74
32.4
23.5
14.11
4.77
-3.37
-8.6
-9.08
-3.37
9.05
27.56
50.53
75.75
101.0
124.51
145.17
162.45
176.27
186.73
194.02
198.45
200.44
200.63
199.77
198.62
197.66
196.93
195.95
193.88
189.79
182.9
172.74
159.14
142.17
122.09
99.41
74.84
49.36
23.93
-0.65
-23.96
-45.93
-66.61
-85.97
-103.75
-119.55
-133.07
-144.37
-153.95
-162.65
-171.35
-180.77
-191.18
-202.29
-213.2
-222.49
-228.45
-229.37
-224.08
-212.24
-194.6
-172.86
-149.3
-126.24
-105.52
-88.19
-74.47
-63.88
-55.59
-48.74
-42.64
-36.87
-31.25
-25.68
-19.99
-13.83
-6.63
2.23
13.25
26.54
41.62
57.43
72.43
84.96
93.62
97.57
96.69
91.57
83.18
72.62
60.78
48.17
34.85
20.64
5.39
-10.88
-27.72
-44.34
-59.91
-73.82
-86.05
-97.28
-108.69
-121.51
-136.45
-153.2
-170.25
-185.12
-194.92
-197.15
-190.41
-174.78
-151.82
-124.17
-94.83
-66.54
-41.31
-20.33
-4.08
7.41
14.37
17.21
16.61
13.47
9.0
4.44
1.01
-0.39
0.77
4.54
10.5
17.9
25.84
33.42
39.9
44.75
47.52
47.83
45.32
39.76
31.23
20.22
7.61
-5.47
-18.0
-29.26
-38.99
-47.39
-54.91
-62.14
-69.61
-77.67
-86.35
-95.17
-102.97
-107.97
-108.11
-101.69
-88.01
-67.85
-43.34
-17.35
7.27
28.52
45.51
58.29
67.4
73.45
76.95
78.36
78.26
77.27
76.02
74.82
73.69
72.36
70.69
68.76
66.98
65.86
65.68
66.24
66.93
66.91
65.47
62.26
57.35
51.16
44.25
37.21
30.52
24.44
18.93
13.64
8.0
1.45
-6.3
-15.13
-24.45
-33.51
-41.67
-48.76
-55.14
-61.66
-69.33
-78.81
-90.01
-101.84
-112.3
-118.89
-119.32
-112.3
-97.93
-77.76
-54.3
-30.25
-7.81
11.65
27.59
39.99
49.04
54.99
58.14
58.93
57.94
55.85
53.32
50.83
48.72
47.19
46.35
46.29
47.07
48.69
51.06
53.98
57.07
59.83
61.67
62.01
60.55
57.34
52.9
48.02
43.58
40.11
37.64
35.64
33.3
29.88
25.04
19.01
12.4
5.96
0.15
-5.02
-9.96
-15.34
-21.83
-29.93
-39.84
-51.4
-63.89
-76.01
-85.97
-91.71
-91.55
-84.67
-71.48
-53.62
-33.42
-13.29
4.9
20.15
32.22
41.35
47.91
52.17
54.37
54.76
53.77
51.97
50.02
48.45
47.64
47.73
48.69
50.38
52.6
55.16
57.81
60.27
62.29
63.63
64.13
63.74
62.44
60.31
57.47
54.1
50.43
46.72
43.19
40.0
37.13
34.37
31.26
27.08
20.97
12.1
-0.02
-15.32
-32.92
-51.17
-67.87
-80.72
-87.83
-88.12
-81.54
-69.03
-52.29
-33.39
-14.34
3.18
18.15
30.2
39.54
46.8
52.72
58.09
63.5
69.38
76.01
83.47
91.72
100.66
110.2
120.28
130.86
141.8
152.8
163.21
172.21
178.83
182.23
181.95
178.0
170.95
161.77
151.65
141.61
132.34
124.16
117.1
111.21
106.62
103.53
102.14
102.48
104.39
107.41
110.84
113.56
114.02
110.38
100.97
84.84
62.24
34.69
4.56
-25.66
-54.03
-79.52
-101.9
-121.33
-138.0
-151.86
-162.56
-169.61
-172.54
-171.19
-165.71
-156.61
-144.63
-130.64
-115.58
-100.5
-86.6
-75.09
-66.93
-62.36
-60.7
-60.41
-59.71
-57.26
-52.8
-47.16
-41.87
-38.3
-37.11
-37.98
-39.94
-41.91
-43.24
-43.93
-44.52
-45.73
-48.11
-51.77
-56.33
-61.11
-65.37
-68.65
-70.88
-72.36
-73.59
-74.98
-76.59
-78.16
-79.14
-79.02
-77.46
-74.42
-69.98
-64.28
-57.48
-49.84
-41.95
-34.77
-29.49
-27.16
-28.32
-32.7
-39.28
-46.7
-53.74
-59.8
-64.99
-69.85
-74.95
-80.45
-85.97
-90.74
-93.91
-94.96
-93.78
-90.71
-86.19
-80.54
-73.75
-65.48
-55.22
-42.65
-27.89
-11.82
3.94
17.2
25.73
28.0
23.61
13.6
0.07
-14.42
-27.62
-38.17
-45.75
-50.94
-54.73
-58.18
-62.03
-66.52
-71.27
-75.25
-76.99
-74.95
-68.07
-56.28
-40.66
-23.13
-5.69
10.42
25.06
39.0
53.04
67.12
80.01
89.57
93.77
91.54
83.21
70.34
55.07
39.42
25.01
12.94
3.93
-1.75
-4.44
-5.23
-5.79
-7.86
-12.65
-20.36
-30.14
-40.45
-49.63
-56.41
-60.15
-60.93
-59.35
-56.32
-52.88
-49.95
-48.15
-47.67
-48.28
-49.44
-50.61
-51.54
-52.47
-54.13
-57.44
-63.14
-71.21
-80.62
-89.22
-94.16
-92.66
-82.95
-65.02
-40.77
-13.45
13.38
36.86
55.58
69.52
79.58
86.84
92.12
95.84
98.14
99.17
99.06
97.96
95.93
92.96
89.2
85.09
81.28
78.4
76.79
76.26
76.19
75.73
74.17
71.05
66.2
59.61
51.38
41.72
30.99
19.71
8.49
-2.05
-11.53
-19.88
-27.38
-34.58
-42.06
-50.31
-59.59
-69.89
-80.95
-92.26
-103.0
-111.92
-117.34
-117.38
-110.39
-95.59
-73.5
-46.08
-16.3
12.57
37.87
57.99
72.52
81.85
86.79
88.12
86.53
82.67
77.26
71.18
65.36
60.64
57.61
56.52
57.29
59.47
62.31
64.91
66.38
66.09
63.81
59.79
54.56
48.7
42.69
36.74
30.82
24.86
18.7
12.25
5.48
-1.61
-9.0
-16.71
-24.8
-33.51
-43.13
-53.92
-65.95
-78.8
-91.43
-102.12
-108.78
-109.33
-102.28
-87.31
-65.42
-38.88
-10.61
16.5
40.22
59.3
73.43
82.88
88.15
89.83
88.52
84.96
80.03
74.62
69.52
65.21
61.88
59.51
58.03
57.38
57.49
58.18
59.01
59.33
58.4
55.62
50.81
44.2
36.43
28.26
20.27
12.69
5.39
-1.99
-9.8
-18.19
-26.99
-35.85
-44.34
-52.21
-59.45
-66.37
-73.45
-81.19
-89.94
-99.7
-110.0
-119.84
-127.68
-131.64
-129.78
-120.72
-104.05
-80.74
-53.06
-23.99
3.53
27.44
46.85
61.93
73.38
81.81
87.53
90.51
90.77
88.56
84.48
79.35
73.95
68.9
64.65
61.49
59.6
59.02
59.5
60.46
61.07
60.4
57.78
52.98
46.31
38.51
30.48
22.85
15.88
9.31
2.66
-4.51
-12.38
-20.68
-29.0
-36.89
-44.18
-51.07
-57.99
-65.44
-73.71
-82.65
-91.49
-98.82
-102.79
-101.44
-93.34
-78.18
-57.09
-32.47
-7.39
15.35
33.88
47.57
56.7
61.99
64.06
63.3
59.98
54.53
47.66
40.31
33.4
27.65
23.47
20.96
20.02
20.4
21.65
23.26
24.64
25.36
25.16
23.95
21.74
18.58
14.45
9.42
3.71
-2.28
-8.06
-13.23
-17.65
-21.53
-25.35
-29.71
-35.08
-41.74
