-42.14
-38.12
-34.52
-31.55
-29.13
-27.01
-25.0
-22.99
-20.86
-18.53
-15.91
-12.98
-9.77
-6.41
-3.12
-0.1
2.49
4.7
6.81
9.2
12.24
16.07
20.56
25.32
29.82
33.55
36.14
37.39
37.34
36.21
34.36
32.24
30.2
28.38
26.65
24.68
22.0
18.28
13.35
7.32
0.52
-6.65
-13.66
-20.1
-25.67
-30.32
-34.31
-38.12
-42.3
-47.21
-52.87
-58.7
-63.71
-66.69
-66.58
-62.76
-55.2
-44.48
-31.61
-17.82
-4.32
7.96
18.37
26.68
32.9
37.24
39.98
41.38
41.69
41.08
39.73
37.81
35.53
33.18
31.13
29.72
29.22
29.7
30.98
32.64
34.22
35.29
35.63
35.17
34.0
32.27
30.04
27.36
24.23
20.66
16.73
12.53
8.21
3.86
-0.48
-4.83
-9.3
-14.03
-19.17
-24.78
-30.91
-37.42
-44.02
-50.21
-55.29
-58.37
-58.56
-55.22
-48.14
-37.69
-24.78
-10.69
3.19
15.71
26.1
34.04
39.57
42.98
44.63
44.86
43.95
42.14
39.68
36.89
34.14
31.82
30.28
29.73
30.17
31.38
32.99
34.52
35.52
35.62
34.63
32.57
29.58
25.91
21.87
17.67
13.46
9.23
4.93
0.49
-4.14
-8.91
-13.74
-18.52
-23.27
-28.17
-33.51
-39.6
-46.53
-54.01
-61.33
-67.41
-71.11
-71.48
-68.04
-60.9
-50.67
-38.34
-25.07
-11.97
0.11
10.62
19.39
26.45
31.98
36.06
38.78
40.17
40.43
39.88
38.92
37.94
37.1
36.39
35.67
34.94
34.32
34.1
34.52
35.54
36.82
37.76
37.76
36.46
33.85
30.25
26.13
21.91
17.8
13.78
9.63
5.08
-0.02
-5.64
-11.54
-17.38
-22.89
-27.94
-32.64
-37.24
-42.07
-47.42
-53.56
-60.58
-68.42
-76.69
-84.57
-90.9
-94.28
-93.52
-87.96
-77.75
-63.86
-47.8
-31.21
-15.44
-1.33
10.79
20.97
29.33
35.86
40.52
43.19
43.99
43.29
41.66
39.72
37.89
36.4
35.23
34.37
33.85
33.81
34.4
35.52
36.91
38.01
38.27
37.34
35.16
32.02
28.36
24.56
20.76
16.86
12.63
7.85
2.51
-3.18
-8.84
-14.14
-18.96
-23.43
-27.91
-32.83
-38.43
-44.72
-51.37
-57.72
-62.92
-66.02
-66.14
-62.7
-55.5
-44.88
-31.67
-17.06
-2.34
11.33
23.1
32.51
39.43
43.95
46.31
46.87
46.08
44.39
42.24
39.94
37.64
35.41
33.33
31.58
30.38
29.99
30.46
31.58
32.86
33.64
33.25
31.18
27.12
20.98
12.95
3.44
-6.83
-16.95
-26.03
-33.37
-38.78
-42.53
-45.22
-47.53
-50.01
-52.9
-56.32
-60.32
-65.03
-70.62
-77.12
-84.25
-91.22
-96.8
-99.44
-97.75
-90.84
-78.75
-62.51
-43.91
-24.93
-7.25
8.2
21.28
32.31
41.67
49.49
55.64
59.97
62.55
63.87
64.65
65.63
67.19
69.26
71.39
73.02
73.74
73.45
72.27
70.47
68.2
65.49
62.23
58.23
53.48
48.09
42.4
36.83
31.72
27.2
23.09
19.03
14.59
9.48
3.67
-2.64
-9.08
-15.35
-21.33
-27.16
-33.17
-39.8
-47.36
-55.89
-65.01
-73.85
-81.17
-85.65
-86.21
-82.29
-74.02
-62.15
-47.86
-32.47
-17.25
-3.19
8.97
18.85
26.3
31.41
34.39
35.58
35.3
33.92
31.83
29.45
27.2
25.44
24.44
24.31
24.96
26.18
27.66
29.06
30.06
30.42
29.98
28.68
26.5
23.54
19.89
15.73
11.21
6.51
1.78
-2.84
-7.27
-11.47
-15.46
-19.41
-23.56
-28.15
-33.34
-38.97
-44.49
-49.0
-51.44
-50.82
-46.58
-38.66
-27.6
-14.39
-0.3
13.43
25.76
36.0
43.78
49.04
51.89
52.59
51.48
49.06
45.93
42.71
39.92
37.88
36.66
36.14
36.17
36.65
37.51
38.7
40.02
41.16
41.7
41.3
39.74
37.01
33.24
28.67
23.6
18.26
12.89
7.6
2.36
-2.9
-8.33
-14.06
-20.1
-26.3
-32.48
-38.52
-44.52
-50.82
-57.85
-65.82
-74.41
-82.63
-88.98
-91.88
-90.13
-83.39
-72.18
-57.65
-41.21
-24.16
-7.56
7.83
21.44
32.87
41.89
48.5
52.94
55.64
57.1
57.84
58.23
58.59
59.08
59.82
60.88
62.27
64.0
65.93
67.85
69.4
70.22
70.06
68.86
66.76
64.02
60.81
57.19
53.1
48.49
43.47
38.18
32.79
27.29
21.44
14.97
7.66
-0.35
-8.73
-17.0
-24.88
-32.42
-39.88
-47.45
-54.95
-61.6
-66.23
-67.6
-64.93
-58.22
-48.26
-36.37
-23.93
-12.04
-1.37
7.76
15.21
20.9
24.76
26.88
27.52
27.14
26.24
25.18
24.08
22.79
20.97
18.37
14.93
10.88
6.73
3.01
0.18
-1.64
-2.68
-3.38
-4.3
-5.86
-8.25
-11.39
-14.99
-18.71
-22.27
-25.53
-28.58
-31.65
-35.12
-39.32
-44.53
-50.74
-57.55
-64.16
-69.44
-72.17
-71.38
-66.66
-58.33
-47.33
-34.99
-22.55
-10.96
-0.68
8.22
15.8
22.1
27.04
30.46
32.27
32.55
31.65
30.06
28.29
26.79
25.82
25.45
25.56
25.97
26.46
26.79
26.81
26.38
25.43
23.86
21.62
18.68
15.0
10.58
5.49
-0.13
-6.05
-12.04
-17.85
-23.35
-28.54
-33.49
-38.39
-43.52
-49.14
-55.52
-62.81
-70.84
-79.08
-86.53
-91.91
-93.94
-91.72
-85.06
-74.53
-61.33
-46.86
-32.43
-18.98
-7.07
3.03
11.22
17.45
21.75
24.29
25.38
25.43
24.87
24.04
23.1
22.07
20.93
19.68
18.43
17.36
16.61
16.21
16.06
15.92
15.52
14.6
13.03
10.77
7.92
4.6
0.96
-2.9
-6.87
-10.86
-14.79
-18.58
-22.23
-25.78
-29.41
-33.28
-37.56
-42.29
-47.45
-53.05
-59.12
-65.77
-73.03
-80.75
-88.38
-95.0
-99.42
-100.48
-97.32
-89.64
-77.84
-62.94
-46.32
-29.43
-13.52
0.59
12.56
22.36
30.23
36.42
41.17
44.69
47.13
48.67
49.54
50.01
50.39
50.92
51.78
53.05
54.72
56.7
58.86
60.93
62.56
63.29
62.67
60.45
56.63
51.44
45.28
38.53
31.46
24.19
16.85
9.58
2.6
-3.96
-10.06
-15.85
-21.61
-27.61
-34.04
-40.87
-47.86
-54.47
-59.84
-62.95
-62.83
-58.81
-50.86
-39.65
-26.49
-12.91
-0.29
10.49
19.08
25.59
30.28
33.36
34.98
35.24
34.35
32.63
30.55
28.52
26.78
25.4
24.33
23.51
23.01
22.92
23.23
23.74
24.02
23.55
21.95
19.13
15.35
11.07
6.73
2.56
-1.47
-5.58
-10.0
-14.85
-20.02
-25.25
-30.25
-34.78
-38.84
-42.57
-46.31
-50.48
-55.45
-61.37
-68.06
-74.92
-80.93
-84.82
-85.36
-81.65
-73.48
-61.33
-46.35
-30.06
-13.96
0.74
13.34
23.57
31.51
37.29
41.04
42.88
42.97
41.65
39.41
36.81
34.36
32.38
30.97
30.08
29.58
29.34
29.29
29.33
29.32
29.04
28.19
26.47
23.66
19.76
14.89
9.35
3.42
-2.69
-8.92
-15.32
-22.0
-29.05
-36.55
-44.5
-52.77
-61.12
-69.15
-76.42
-82.57
-87.53
-91.55
-95.19
-99.07
-103.6
-108.69
-113.7
-117.51
-118.89
-116.77
-110.6
-100.46
-86.93
-70.93
-53.47
-35.52
-17.96
-1.53
13.13
25.6
35.7
43.52
49.37
53.61
56.68
58.95
60.83
62.7
64.94
67.75
71.12
74.83
78.54
81.9
84.71
86.86
88.33
89.0
88.67
87.13
84.29
80.32
75.63
70.76
66.15
62.02
58.24
54.49
50.38
45.67
40.39
34.88
29.65
25.21
21.83
19.42
17.4
14.89
10.93
4.86
-3.31
-12.86
-22.38
-30.17
-34.67
-34.93
-30.79
-22.94
-12.7
-1.69
8.54
16.72
22.05
24.11
22.89
18.68
12.1
4.12
-4.11
-11.37
-16.71
-19.6
-20.06
-18.48
-15.4
-11.28
-6.34
-0.65
5.68
12.41
19.12
25.31
30.52
34.57
37.5
39.54
41.06
42.37
43.71
45.13
46.44
47.26
47.02
45.13
41.18
35.0
26.72
16.66
5.16
-7.54
-21.25
-35.66
-50.28
-64.28
-76.54
-85.89
-91.29
-92.07
-88.08
-79.79
-68.18
-54.61
-40.59
-27.43
-16.19
-7.53
-1.83
0.67
-0.1
-3.91
-10.17
-17.76
-25.22
-31.06
-34.19
-34.15
-31.13
-25.76
-18.81
-10.93
-2.59
5.82
13.91
21.3
27.62
32.66
36.4
39.01
40.72
41.76
42.26
42.24
41.62
40.31
38.3
35.77
33.15
31.04
29.97
30.06
30.87
31.32
30.0
25.63
17.49
5.65
-9.05
-25.25
-41.23
-55.23
-65.54
-70.77
-70.09
-63.53
-52.1
-37.59
-22.12
-7.58
4.79
14.52
21.7
26.66
29.62
30.64
29.76
27.05
22.89
17.86
12.63
7.79
3.77
0.7
-1.48
-2.89
-3.67
-3.96
-3.93
-3.8
-4.0
-5.09
-7.63
-12.06
-18.48
-26.53
-35.47
-44.35
-52.26
-58.58
-63.01
-65.66
-66.88
-67.16
-67.11
-67.34
-68.45
-70.94
-74.93
-80.11
-85.54
-89.74
-90.94
-87.46
-78.2
-63.06
-43.07
-20.2
3.14
24.76
43.28
58.26
70.09
79.44
86.8
92.24
95.49
96.27
94.67
91.19
86.61
81.72
77.05
72.77
68.82
65.02
61.19
57.25
53.16
48.97
44.74
40.53
36.34
32.02
27.36
22.19
16.44
10.29
4.01
-2.08
-7.81
-13.17
-18.39
-23.72
-29.51
-36.03
-43.51
-51.9
-60.82
-69.43
-76.44
-80.41
-80.04
-74.58
-64.04
-49.26
-31.63
-12.83
5.59
22.46
37.1
49.26
58.96
66.39
71.73
75.15
76.84
76.97
75.76
73.43
70.21
66.43
62.36
58.26
54.2
49.97
45.05
38.78
30.53
20.06
7.66
-5.88
-19.42
-31.85
-42.35
-50.65
-56.93
-61.7
-65.52
-68.77
-71.59
-73.94
-75.74
-77.07
-78.26
-79.93
-82.86
-87.78
-95.0
-104.15
-113.86
-121.89
-125.54
-122.26
-110.53
-90.27
-62.94
-31.09
2.31
34.64
64.0
89.33
110.21
126.59
138.62
146.53
150.66
151.46
149.45
145.13
138.97
131.33
122.57
113.1
103.32
93.57
83.95
74.23
63.9
52.38
39.35
24.86
9.52
-5.72
-19.84
-32.0
-41.76
-49.09
-54.29
-57.84
-60.28
-62.08
-63.63
-65.16
-66.74
-68.31
-69.8
-71.27
-73.03
-75.57
-79.31
-84.24
-89.53
-93.51
-93.91
-88.6
-76.21
-56.77
-31.69
-3.45
25.15
51.6
74.13
91.79
104.35
112.06
115.36
114.76
110.67
103.32
92.74
78.93
62.02
42.57
21.73
1.11
-17.45
-32.42
-42.83
-48.54
-50.03
-48.25
-44.2
-38.87
-33.06
-27.51
-22.79
-19.32
-17.27
-16.46
-16.47
-16.75
-16.91
-16.9
-17.0
-17.73
-19.6
-22.76
-26.94
-31.48
-35.46
-37.91
-38.0
-35.12
-28.89
-19.23
-6.41
8.93
25.85
43.15
59.63
74.2
86.09
94.86
100.4
102.88
102.64
100.08
95.58
89.45
82.0
73.48
64.22
54.55
44.76
35.04
25.45
15.9
6.26
-3.49
-13.18
-22.38
-30.51
-37.0
-41.49
-43.99
-44.86
-44.68
-44.07
-43.45
-43.09
-43.08
-43.55
-44.64
-46.55
-49.4
-53.11
-57.33
-61.47
-64.92
-67.21
-68.25
-68.36
-68.28
-68.84
-70.66
-73.86
-77.89
-81.57
-83.5
-82.4
-77.52
-68.79
-56.74
-42.25
-26.29
-9.8
6.45
21.83
35.91
48.43
59.42
69.07
77.66
85.42
92.4
98.55
103.82
108.21
111.84
114.78
116.96
118.13
118.01
116.45
113.48
109.32
104.23
98.27
91.38
83.42
74.42
64.69
54.7
44.96
35.71
26.88
18.17
9.25
-0.07
-9.74
-19.54
-29.16
-38.32
-46.78
-54.37
-61.02
-66.75
-71.79
-76.39
-80.85
-85.23
-89.25
-92.2
-93.03
-90.71
-84.49
-74.24
-60.57
-44.67
-27.94
-11.66
3.32
16.55
27.88
37.26
44.57
49.82
53.11
54.87
55.67
56.06
56.38
56.68
56.8
56.55
55.91
54.96
53.86
52.61
51.03
48.78
45.49
41.03
35.46
29.14
22.45
15.75
9.19
2.73
-3.86
-10.82
-18.39
-26.76
-36.05
-46.31
-57.51
-69.46
-81.81
-94.0
-105.44
-115.54
-123.81
-129.77
-132.98
-132.98
-129.44
-122.29
-111.86
-98.87
-84.23
-68.86
-53.44
-38.45
-24.28
-11.39
-0.32
8.39
14.45
17.99
19.52
19.87
19.92
20.47
22.15
25.46
30.78
38.3
47.93
59.16
71.05
82.31
91.59
97.78
100.31
99.28
95.38
89.65
83.09
76.43
70.03
63.83
57.54
50.73
42.87
33.37
21.72
7.55
-9.1
-27.74
-47.47
-67.25
-86.23
-103.86
-119.92
-134.19
-146.26
-155.33
-160.36
-160.41
-154.99
-144.24
-128.97
-110.41
-89.99
-69.1
-48.97
-30.61
-14.63
-1.19
10.08
19.93
29.3
38.9
49.05
59.62
70.15
80.07
88.93
96.45
102.54
107.21
110.58
112.72
113.75
113.8
112.96
111.34
108.97
105.84
101.85
96.86
90.68
83.23
74.59
65.03
55.0
44.93
35.09
25.49
15.95
6.19
-3.93
-14.39
-25.0
-35.59
-46.11
-56.65
-67.28
-77.84
-87.81
-96.43
-102.88
-106.61
-107.45
-105.62
-101.52
-95.57
-88.05
-79.17
-69.23
-58.78
-48.78
-40.41
-34.68
-31.97
-31.82
-32.91
-33.59
-32.51
-29.12
-23.69
-16.9
-9.27
-0.83
8.87
20.21
33.02
46.4
58.93
69.22
76.41
80.35
81.41
80.14
76.99
72.24
66.16
59.18
51.95
45.12
39.12
33.93
29.07
23.78
17.38
9.59
0.77
-8.1
-15.63
-20.32
-21.04
-17.35
-9.74
0.51
11.58
21.54
28.77
32.18
31.22
25.86
16.54
4.07
-10.39
-25.39
-39.5
-51.38
-60.07
-65.08
-66.37
-64.38
-59.92
-54.03
-47.77
-41.97
-37.08
-33.16
-30.04
-27.47
-25.37
-23.78
-22.88
-22.78
-23.53
-25.0
-26.89
-28.82
-30.45
-31.67
-32.77
-34.51
-37.88
-43.8
-52.65
-63.98
-76.52
-88.41
-97.63
-102.39
-101.44
-94.18
-80.71
-61.87
-39.2
-14.66
9.68
32.11
51.57
67.74
80.72
90.79
98.19
103.14
106.09
107.78
109.17
111.01
113.46
116.07
118.05
118.9
118.79
118.55
119.19
121.21
124.25
127.13
128.47
127.31
123.47
117.4
109.76
100.77
90.04
76.65
59.72
38.94
14.88
-11.02
-37.0
-61.44
-83.42
-102.8
-120.05
-135.79
-150.44
-164.0
-176.05
-185.9
-192.67
-195.48
-193.42
-185.8
-172.34
-153.44
-130.32
-104.84
-79.07
-54.86
-33.41
-15.26
-0.46
11.14
19.72
25.57
29.22
31.52
33.47
35.89
39.11
42.87
46.5
49.42
51.55
53.46
56.2
60.77
67.69
76.63
86.54
96.05
103.98
109.65
112.87
113.76
112.41
108.69
102.38
93.33
81.73
68.0
52.63
35.85
17.53
-2.73
-25.16
-49.46
-74.52
-98.48
-119.08
-134.14
-142.1
-142.34
-135.28
-122.23
-105.12
-86.02
-66.8
-48.91
-33.23
-20.17
-9.82
-2.07
3.31
6.52
7.82
7.55
6.33
5.1
5.18
7.96
14.48
24.99
38.69
54.0
69.08
82.36
92.99
100.7
105.59
107.74
107.16
103.78
97.83
89.75
80.21
69.88
59.14
48.1
36.72
24.89
12.5
-0.67
-14.97
-30.88
-48.66
-68.03
-87.94
-106.53
-121.54
-130.95
-133.59
-129.44
-119.64
-106.0
-90.53
-74.87
-60.18
-47.1
-35.9
-26.69
-19.5
-14.25
-10.76
-8.8
-8.08
-8.35
-9.33
-10.54
-11.28
-10.52
-7.25
-0.72
9.12
21.51
34.99
47.86
58.62
66.3
70.58
71.62
69.87
65.89
60.18
53.21
45.41
37.23
29.05
21.26
14.06
7.47
1.21
-5.28
-12.61
-21.14
-30.68
-40.22
-48.18
-52.67
-52.2
-46.06
-34.66
-19.36
-2.0
15.56
31.92
46.25
58.21
67.73
74.86
79.62
82.08
82.39
80.87
77.87
73.71
68.6
62.63
55.81
48.18
39.84
30.94
21.63
12.02
2.19
-7.8
-17.84
-27.77
-37.37
-46.4
-54.59
-61.74
-67.73
-72.58
-76.48
-79.77
-82.84
-85.99
-89.31
-92.69
-95.81
-98.3
-99.84
-100.12
-98.89
-95.86
-90.61
-82.73
-71.85
-57.8
-40.78
-21.39
-0.53
20.71
41.31
60.38
77.26
91.41
102.38
109.8
113.42
113.21
109.54
103.16
95.03
86.19
77.51
69.68
63.13
58.08
54.55
52.3
50.85
49.49
47.45
44.07
38.98
32.22
24.14
15.28
6.16
-2.86
-11.71
-20.5
-29.41
-38.59
-47.94
-57.07
-65.28
-71.62
-75.04
-74.63
-69.87
-60.9
-48.65
-34.82
-21.49
-10.59
-3.34
0.04
0.2
-1.74
-4.83
-8.64
-13.3
-19.19
-26.47
-34.72
-43.03
-50.22
-55.37
-58.14
-58.78
-58.04
-56.69
-55.3
-53.97
-52.35
-49.83
-45.69
-39.45
-31.03
-20.75
-9.23
2.87
14.93
26.51
37.11
45.95
51.89
53.57
49.8
40.01
24.49
4.47
-18.18
-41.32
-62.82
-80.83
-93.9
-101.15
-102.28
-97.7
-88.44
-75.98
-62.02
-48.25
-36.14
-26.76
-20.76
-18.26
-18.98
-22.26
-27.13
-32.3
-36.11
-36.69
-32.29
-21.86
-5.53
15.18
37.7
59.11
77.01
90.12
98.38
102.65
104.1
103.72
102.12
99.54
96.06
91.75
86.73
81.01
74.49
66.86
57.76
46.93
34.4
20.5
5.77
-9.29
-24.38
-39.39
-54.21
-68.41
-81.05
-90.78
-96.11
-95.98
-90.11
-79.23
-64.85
-48.84
-32.91
-18.24
-5.36
5.68
14.96
22.45
27.85
30.75
30.85
28.26
23.68
18.35
13.81
11.58
12.76
17.82
26.54
38.12
51.38
65.07
77.93
88.84
96.84
101.24
101.72
98.44
92.01
83.25
72.96
61.67
49.58
36.8
23.44
9.8
-3.72
-16.81
-29.44
