34.7
25.66
16.24
5.71
-6.33
-19.96
-34.97
-51.0
-67.57
-84.0
-99.49
-113.2
-124.38
-132.59
-137.79
-140.24
-140.22
-137.82
-132.81
-124.69
-113.03
-97.84
-79.91
-60.97
-43.51
-30.24
-23.23
-23.09
-28.56
-36.84
-44.57
-49.02
-49.11
-45.55
-40.25
-35.22
-31.64
-29.64
-28.51
-27.46
-26.06
-24.39
-22.74
-21.37
-20.35
-19.58
-19.05
-18.91
-19.42
-20.77
-23.0
-25.9
-29.08
-32.02
-34.14
-34.88
-33.85
-31.07
-27.12
-23.19
-20.78
-21.21
-25.3
-33.12
-44.03
-56.9
-70.17
-81.9
-89.83
-91.74
-86.01
-72.36
-52.24
-28.57
-4.95
15.39
30.44
39.69
43.79
44.09
42.05
39.01
36.03
33.81
32.7
32.65
33.4
34.61
36.07
37.67
39.23
40.4
40.63
39.42
36.66
32.74
28.47
24.73
22.09
20.71
20.32
20.53
20.86
20.83
19.76
16.65
10.39
0.07
-14.43
-32.11
-50.9
-68.09
-81.05
-87.84
-87.53
-80.2
-66.71
-48.42
-27.05
-4.52
17.17
36.3
51.7
62.91
70.01
73.38
73.45
70.75
66.19
61.25
57.84
57.72
61.78
69.66
79.97
91.08
101.87
111.82
120.43
126.24
126.34
117.04
95.55
61.79
19.34
-25.33
-65.05
-94.51
-112.03
-119.66
-121.79
-123.12
-127.02
-134.87
-146.31
-159.95
-174.01
-186.44
-195.01
-197.45
-191.86
-177.42
-154.99
-127.13
-97.57
-70.11
-47.62
-31.49
-21.68
-17.22
-16.82
-19.33
-23.8
-29.15
-33.91
-36.12
-33.73
-25.35
-10.97
7.65
27.41
44.94
57.9
65.88
70.34
73.66
77.89
83.78
90.67
97.25
102.57
106.69
110.54
115.12
120.7
126.44
130.75
132.07
129.77
124.51
117.9
111.79
107.34
104.47
101.89
97.74
90.55
80.11
67.75
55.94
47.29
43.61
45.11
50.45
57.3
63.31
66.88
67.69
66.47
64.58
63.3
63.47
65.23
68.16
71.35
73.73
74.28
72.26
67.48
60.46
52.27
44.32
37.93
33.93
32.37
32.52
33.01
32.25
28.75
21.64
10.9
-2.41
-16.38
-28.65
-37.2
-40.94
-40.05
-35.87
-30.27
-25.11
-21.79
-21.1
-23.36
-28.55
-36.26
-45.68
-55.5
-64.12
-69.99
-72.04
-69.99
-64.3
-56.02
-46.48
-36.98
-28.71
-22.6
-19.15
-18.29
-19.3
-20.99
-22.0
-21.27
-18.23
-12.8
-5.12
4.63
16.26
29.28
42.72
55.1
64.84
70.81
72.81
71.56
68.3
64.2
59.87
55.37
50.45
44.98
39.11
33.2
27.55
22.13
16.68
10.94
4.89
-1.08
-6.31
-10.14
-12.19
-12.51
-11.55
-9.92
-8.19
-6.72
-5.61
-4.74
-3.86
-2.69
-1.07
0.96
3.17
5.19
6.7
7.53
7.73
7.4
6.58
5.18
3.09
0.39
-2.54
-5.1
-6.65
-6.85
-5.84
-4.17
-2.51
-1.42
-1.12
-1.56
-2.63
-4.28
-6.63
-9.93
-14.32
-19.79
-26.12
-32.97
-39.9
-46.45
-52.12
-56.43
-58.96
-59.39
-57.63
-53.82
-48.33
-41.66
-34.33
-26.87
-19.73
-13.31
-7.86
-3.52
-0.25
2.1
3.77
4.98
5.88
6.54
7.01
7.38
7.81
8.47
9.46
10.76
12.24
13.67
14.83
15.55
15.7
15.2
13.98
12.04
9.4
6.22
2.69
-0.95
-4.54
-8.06
-11.58
-15.3
-19.4
-24.02
-29.15
-34.54
-39.7
-43.92
-46.41
-46.48
-43.78
-38.41
-30.94
-22.2
-13.08
-4.33
3.58
10.37
15.9
20.1
22.91
24.4
24.75
24.3
23.43
22.46
21.58
20.89
20.36
19.96
19.68
19.54
19.53
19.65
19.85
19.98
19.84
19.22
17.96
15.97
13.29
10.07
6.53
2.87
-0.72
-4.15
-7.43
-10.69
-14.18
-18.16
-22.82
-28.14
-33.72
-38.84
-42.54
-43.96
-42.53
-38.2
-31.45
-23.11
-14.13
-5.33
2.69
9.62
15.3
19.62
22.51
23.98
24.16
23.34
21.93
20.35
18.89
17.66
16.6
15.59
14.51
13.39
12.36
11.57
11.14
10.98
10.87
10.51
9.6
8.01
5.75
2.99
-0.03
-3.1
-6.13
-9.19
-12.44
-16.08
-20.23
-24.79
-29.45
-33.64
-36.66
-37.9
-36.95
-33.69
-28.37
-21.46
-13.63
-5.62
1.89
8.35
13.4
16.93
19.01
19.85
19.72
18.85
17.47
15.81
14.12
12.66
11.65
11.21
11.32
11.87
12.65
13.4
13.84
13.71
12.86
11.21
8.89
6.1
3.11
0.12
-2.76
-5.58
-8.48
-11.68
-15.35
-19.57
-24.28
-29.17
-33.67
-37.04
-38.49
-37.44
-33.71
-27.59
-19.82
-11.35
-3.06
4.32
10.41
15.04
18.16
19.81
20.06
19.05
17.05
14.43
11.58
8.9
6.63
4.91
3.75
3.06
2.74
2.67
2.71
2.73
2.62
2.23
1.44
0.18
-1.55
-3.71
-6.19
-8.91
-11.84
-15.02
-18.51
-22.33
-26.41
-30.5
-34.16
-36.78
-37.71
-36.38
-32.52
-26.31
-18.37
-9.61
-1.02
6.54
12.47
16.55
18.77
19.37
18.64
16.92
14.58
11.96
9.36
7.01
5.08
3.68
2.86
2.61
2.84
3.37
3.95
4.28
4.1
3.22
1.61
-0.6
-3.21
-5.95
-8.64
-11.3
-14.06
-17.18
-20.89
-25.27
-30.12
-35.01
-39.26
-42.08
-42.75
-40.77
-36.07
-29.03
-20.45
-11.32
-2.57
5.09
11.22
15.66
18.4
19.52
19.25
17.9
15.88
13.61
11.44
9.61
8.22
7.27
6.71
6.47
6.5
6.7
6.98
7.19
7.13
6.58
5.31
3.24
0.48
-2.69
-5.89
-8.82
-11.44
-13.95
-16.75
-20.28
-24.77
-30.18
-36.02
-41.48
-45.52
-47.16
-45.74
-41.2
-34.04
-25.2
-15.79
-6.71
1.45
8.41
14.08
18.41
21.3
22.71
22.72
21.58
19.72
17.6
15.68
14.23
13.35
13.01
13.07
13.42
13.97
14.72
15.59
16.44
16.98
16.86
15.74
13.48
10.18
6.22
2.08
-1.82
-5.25
-8.3
-11.31
-14.74
-18.95
-24.07
-29.91
-35.98
-41.55
-45.86
-48.14
-47.8
-44.56
-38.56
-30.34
-20.78
-10.89
-1.56
6.61
13.38
18.71
22.62
25.13
26.23
26.0
24.68
22.7
20.54
18.62
17.24
16.5
16.32
16.57
17.09
17.71
18.32
18.8
19.04
18.88
18.18
16.83
14.79
12.14
9.02
5.66
2.27
-1.02
-4.16
-7.22
-10.37
-13.81
-17.76
-22.33
-27.45
-32.81
-37.83
-41.75
-43.78
-43.25
-39.9
-33.9
-25.89
-16.72
-7.3
1.65
9.61
16.27
21.43
24.95
26.79
27.06
26.06
24.21
22.02
19.92
18.2
17.03
16.44
16.39
16.75
17.39
18.14
18.87
19.47
19.81
19.78
19.19
17.88
15.72
12.72
9.03
4.94
0.84
-2.99
-6.45
-9.66
-12.93
-16.64
-21.05
-26.11
-31.45
-36.33
-39.93
-41.49
-40.56
-37.1
-31.42
-24.11
-15.83
-7.27
0.99
8.43
14.63
19.25
22.12
23.23
22.83
21.3
19.15
16.86
14.85
13.39
12.6
12.47
12.83
13.48
14.19
14.79
15.12
15.1
14.63
13.62
12.01
9.82
7.15
4.14
0.97
-2.21
-5.34
-8.41
-11.5
-14.72
-18.25
-22.28
-26.86
-31.85
-36.76
-40.83
-43.2
-43.18
-40.51
-35.4
-28.46
-20.47
-12.14
-4.03
3.47
10.01
15.31
19.1
21.24
21.81
21.11
19.61
17.84
16.27
15.2
14.81
15.1
15.91
16.97
17.97
18.61
18.72
18.34
17.64
16.83
16.03
15.18
14.06
12.38
9.96
6.83
3.21
-0.6
-4.35
-7.94
-11.45
-15.07
-19.01
-23.41
-28.31
-33.58
-38.88
-43.69
-47.25
-48.77
-47.57
-43.36
-36.34
-27.25
-17.17
-7.23
1.72
9.19
15.05
19.36
22.29
23.97
24.56
24.3
23.56
22.7
22.08
21.87
22.11
22.73
23.6
24.63
25.82
27.12
28.49
29.85
31.01
31.76
31.94
31.39
30.1
28.18
25.85
23.48
21.42
19.92
19.07
18.74
18.68
18.61
18.39
18.07
17.84
17.95
18.63
20.05
22.38
25.94
31.23
38.9
49.57
63.59
80.85
100.69
122.03
143.61
164.34
183.54
201.17
217.83
234.68
253.2
274.85
300.67
330.75
363.81
397.0
426.21
446.91
455.38
449.84
430.94
401.47
365.39
326.54
287.78
250.65
215.69
182.98
152.64
124.86
99.83
77.47
57.42
39.1
21.95
5.55
-10.32
-25.76
-40.81
-55.5
-69.85
-83.86
-97.57
-111.04
-124.41
-137.91
-151.75
-166.07
-180.81
-195.79
-210.76
-225.54
-240.11
-254.64
-269.56
-285.57
-303.67
-324.9
-349.76
-377.32
-404.72
-427.33
-439.88
-438.2
-420.84
-389.63
-349.12
-305.1
-263.06
-227.15
-199.83
-181.98
-173.2
-171.93
-175.57
-180.94
-184.83
-184.8
-179.78
-170.27
-158.09
-145.87
-136.43
-132.2
-134.67
-143.98
-158.78
-176.53
-194.06
-208.39
-217.31
-219.46
-214.17
-201.11
-180.26
-152.15
-118.12
-80.41
-41.8
-4.99
28.03
56.05
78.56
95.25
105.88
110.43
109.41
104.1
96.31
87.79
79.75
72.57
66.05
59.75
53.37
46.83
40.18
33.5
26.89
20.48
14.55
9.46
5.49
2.69
0.87
-0.38
-1.51
-2.87
-4.7
-7.23
-10.71
-15.46
-21.68
-29.24
-37.45
-45.04
-50.45
-52.25
-49.63
-42.69
-32.36
-20.08
-7.32
4.75
15.46
24.54
31.98
37.91
42.45
45.79
48.12
49.68
50.73
51.49
52.21
53.07
54.15
55.37
56.48
57.12
57.03
56.16
54.73
53.14
51.66
50.32
48.8
46.56
43.11
38.23
32.04
24.94
17.35
9.52
1.52
-6.76
-15.36
-24.14
-32.72
-40.5
-46.81
-50.95
-52.39
-50.8
-46.14
-38.74
-29.27
-18.66
-7.92
2.04
10.6
17.48
22.65
26.26
28.49
29.5
29.5
28.72
27.45
26.04
24.76
23.81
23.27
23.17
23.53
24.39
25.85
27.94
30.55
33.4
35.97
37.67
37.96
36.54
33.47
29.16
24.18
19.04
14.0
8.99
3.71
-2.14
-8.73
-15.9
-23.16
-29.8
-34.94
-37.78
-37.67
-34.31
-27.84
-18.8
-8.13
3.11
13.97
23.75
32.1
38.92
44.32
48.41
51.36
53.3
54.44
54.96
55.03
54.81
54.42
53.92
53.36
52.76
52.13
51.46
50.68
49.65
48.22
46.2
43.36
39.47
34.4
28.1
20.74
12.68
4.37
-3.74
-11.39
-18.49
-25.1
-31.32
-37.09
-42.13
-45.95
-47.9
-47.37
-43.96
-37.66
-28.88
-18.4
-7.2
3.8
13.91
22.77
30.28
36.36
40.95
43.92
45.2
44.95
43.52
41.41
39.07
36.78
34.56
32.32
29.95
27.44
24.87
22.34
19.89
17.49
15.05
12.44
9.65
6.7
3.66
0.61
-2.43
-5.48
-8.61
-11.81
-15.06
-18.24
-21.23
-24.03
-26.79
-29.76
-33.14
-37.03
-41.21
-45.14
-48.1
-49.26
-47.95
-43.86
-37.14
-28.48
-18.95
-9.75
-1.91
3.96
7.74
9.7
10.3
9.91
8.77
7.02
4.84
2.56
0.66
-0.4
-0.31
0.94
3.09
5.73
8.39
10.68
12.32
13.09
12.89
11.72
9.7
7.08
4.17
1.22
-1.57
-4.16
-6.55
-8.78
-10.9
-12.98
-15.14
-17.51
-20.22
-23.28
-26.57
-29.9
-33.1
-36.12
-39.03
-42.01
-45.11
-48.11
-50.47
-51.5
-50.56
-47.34
-42.03
-35.25
-27.86
-20.71
-14.43
-9.31
-5.39
-2.54
-0.59
0.57
1.05
1.01
0.74
0.62
1.06
2.28
4.27
6.72
9.16
11.06
12.14
12.33
11.85
11.06
10.29
9.77
9.47
9.24
8.81
7.96
6.63
4.91
2.97
0.96
-1.07
-3.15
-5.36
-7.74
-10.34
-13.22
-16.52
-20.38
-24.81
-29.52
-33.87
-36.84
-37.42
-34.85
-28.94
-20.22
-9.73
1.19
11.31
19.74
26.06
30.28
32.6
33.37
32.86
31.35
29.09
26.35
23.47
20.8
18.63
17.19
16.61
16.91
17.97
19.59
21.43
23.12
24.31
24.68
24.09
22.55
20.2
17.33
14.22
11.08
8.01
4.95
1.82
-1.48
-4.93
-8.41
-11.77
-14.86
-17.73
-20.57
-23.7
-27.42
-31.87
-36.95
-42.25
-47.1
-50.66
-52.02
-50.49
-45.76
-38.1
-28.28
-17.48
-6.93
2.45
10.14
16.07
20.48
23.66
25.89
27.37
28.27
28.77
29.07
29.32
29.61
29.94
30.27
30.62
31.0
31.53
32.22
33.01
33.72
34.09
33.89
32.99
31.4
29.2
26.58
23.7
20.74
17.81
14.96
12.16
9.23
5.94
2.14
-2.14
-6.67
-11.0
-14.75
-17.69
-19.95
-21.91
-24.06
-26.89
-30.62
-35.23
-40.32
-45.22
-49.07
-50.97
-50.18
-46.35
-39.62
-30.64
-20.43
-10.1
-0.56
7.67
14.47
20.01
24.55
28.24
31.02
32.73
33.3
32.83
31.71
30.43
29.48
29.15
29.44
30.19
31.22
32.35
33.48
34.49
35.22
35.39
34.73
33.04
30.36
26.92
23.12
19.35
15.89
12.85
10.2
7.8
5.58
3.43
1.27
-1.0
-3.48
-6.17
-8.99
-11.77
-14.34
-16.64
-18.83
-21.24
-24.25
-28.12
-32.91
-38.35
-43.83
-48.51
-51.41
-51.66
-48.71
-42.53
-33.67
-23.2
-12.38
-2.36
6.06
12.53
17.03
19.7
20.81
20.59
19.38
17.51
15.35
13.23
11.39
10.01
9.23
9.2
10.01
11.66
13.99
16.74
19.56
22.12
24.17
25.55
26.17
26.02
25.15
23.69
21.8
19.57
17.09
14.32
11.27
7.96
4.47
0.91
-2.65
-6.27
-10.11
-14.38
-19.2
-24.49
-29.92
-34.9
-38.63
-40.35
-39.4
-35.51
-28.86
-20.09
-10.21
-0.3
8.72
16.24
22.0
26.03
28.47
29.5
29.26
27.91
25.67
22.86
19.87
17.13
14.97
13.63
13.18
13.56
14.63
16.16
17.94
19.68
21.15
22.12
22.43
22.02
20.97
19.45
17.68
15.85
14.05
12.24
10.3
8.08
5.49
2.56
-0.56
-3.67
-6.56
-9.16
-11.47
-13.63
-15.9
-18.47
-21.44
-24.62
-27.44
-29.03
-28.49
-25.07
-18.59
-9.48
1.34
12.75
23.75
33.67
42.13
48.98
54.14
57.54
59.26
59.51
58.72
57.48
56.36
55.77
55.8
56.28
56.85
57.08
56.6
55.13
52.49
48.59
43.42
37.06
29.7
21.65
13.29
4.97
-3.07
-10.79
-18.35
-26.0
-34.03
-42.61
-51.69
-60.96
-69.9
-77.87
-84.32
-89.03
-92.24
-94.62
-97.11
-100.52
-105.28
-111.28
-117.88
-124.18
-129.14
-131.79
-131.27
-126.86
-118.09
-104.98
-88.17
-68.9
-48.8
-29.52
-12.31
2.14
13.72
22.7
29.51
34.55
38.11
40.36
41.45
41.54
40.95
40.06
39.34
39.17
39.78
41.1
42.86
44.64
46.09
46.95
47.11
46.53
45.2
43.12
40.3
36.82
32.83
28.52
24.05
19.52
14.95
10.35
5.79
1.33
-2.95
-7.11
-11.37
-16.03
-21.37
-27.45
-34.0
-40.34
-45.51
-48.44
-48.26
-44.54
-37.47
-27.8
-16.65
-5.27
5.3
14.36
21.57
26.87
30.33
32.1
32.41
31.55
29.94
28.0
26.14
24.69
23.83
23.63
24.09
25.14
26.68
28.57
30.61
32.52
33.96
34.58
34.15
32.64
30.27
27.38
24.35
21.34
18.34
15.18
11.64
7.66
3.26
-1.39
-6.14
-10.89
-15.65
-20.53
-25.62
-31.03
-36.83
-43.09
-49.79
-56.73
-63.4
-68.96
-72.31
-72.36
-68.33
-60.15
-48.54
-34.89
-20.88
-7.95
2.97
11.64
18.27
23.23
26.89
29.39
30.77
31.15
30.74
29.91
29.04
28.43
28.17
28.22
28.48
28.88
29.5
30.51
31.98
33.88
35.92
37.67
38.66
38.57
37.29
35.02
32.09
28.89
25.74
22.82
20.1
17.45
14.67
11.59
8.1
4.26
0.23
-3.72
-7.31
-10.41
-13.04
-15.53
-18.38
-22.19
-27.41
-34.06
-41.62
-49.02
-54.88
-57.92
-57.27
-52.81
-45.11
-35.3
-24.71
-14.59
-5.8
1.36
7.09
11.97
16.64
21.55
26.63
31.47
35.48
38.21
39.68
40.36
40.96
42.13
44.23
47.18
50.6
53.93
56.5
57.58
56.54
52.95
46.78
38.59
29.5
20.89
13.95
9.33
6.97
6.24
6.41
7.03
8.1
9.88
12.57
15.91
19.13
21.21
21.27
19.01
14.85
9.86
5.5
3.18
3.93
8.13
15.36
24.47
33.84
41.82
47.14
49.21
48.24
44.96
40.38
35.45
30.89
27.07
24.0
21.35
18.67
15.54
11.88
7.97
4.4
1.77
0.39
0.23
0.98
2.26
3.81
5.43
6.88
7.63
6.86
3.58
-3.0
-13.18
-26.54
-42.03
-58.22
-73.71
-87.44
-98.91
-108.12
-115.51
-121.66
-127.18
-132.52
-138.06
-144.05
-150.71
-158.1
-166.02
-173.85
-180.46
-184.43
-184.36
-179.34
-169.29
-155.08
-138.29
-120.81
-104.42
-90.48
-79.7
-72.16
-67.3
-64.12
-61.46
-58.4
-54.75
-51.07
-48.3
-46.88
-45.95
-42.94
-34.07
-15.69
14.12
54.41
101.16
148.18
188.6
216.44
227.74
221.03
197.23
159.17
110.98
57.45
3.25
-47.71
-92.81
-130.7
-161.04
-183.81
-198.81
-205.67
-204.26
-195.34
-180.81
-163.26
-144.96
-126.77
-107.71
-85.31
-56.79
-20.33
24.05
74.29
126.75
176.89
220.08
252.28
270.8
274.84
265.98
247.98
226.14
206.1
192.48
187.78
191.94
202.58
215.94
228.03
235.65
237.02
231.83
220.98
206.18
189.36
172.34
156.36
141.77
127.9
113.22
96.0
75.07
50.59
24.41
-0.24
-19.64
-30.93
-33.16
-27.73
-17.91
-7.57
0.24
4.08
4.35
2.59
0.52
-0.59
-0.13
2.02
5.79
10.91
16.83
22.49
26.61
28.01
26.21
21.53
14.93
7.57
0.3
-6.51
-12.94
-19.23
-25.47
-31.48
-36.83
-41.08
-43.91
-45.29
-45.43
-44.73
-43.59
-42.37
-41.27
-40.47
-40.11
-40.32
-41.21
-42.77
-44.85
-47.14
-49.3
-50.98
-51.97
-52.23
-51.91
-51.39
-51.21
-52.05
-54.49
-58.85
-65.08
-72.63
-80.6
-87.87
-93.29
-95.97
-95.37
-91.58
-85.21
-77.37
-69.38
-62.46
-57.37
-54.3
-52.76
-51.76
-50.11
-46.82
-41.43
-34.21
-26.07
-18.09
-11.09
-5.22
-0.03
5.19
10.92
17.09
23.0
27.65
30.05
29.45
25.42
17.88
6.97
-6.87
-22.95
-40.41
-58.44
-76.49
-94.42
-112.42
-130.8
-149.67
-168.69
-187.09
-203.82
-218.11
-229.88
-240.06
-250.37
-262.6
-277.62
-294.54
-310.5
-321.3
-322.82
-312.29
-289.1
-254.72
-212.11
-165.09
-117.85
-74.73
-39.82
-16.3
-5.59
-6.88
-17.37
-33.31
-51.32
-69.18
-85.76
-100.24
-111.37
-117.29
-116.26
-107.59
-92.11
-72.01
-49.81
-27.35
-5.34
16.58
39.21
63.31
89.32
117.39
147.33
178.4
209.06
236.81
258.53
271.11
272.18
260.66
236.9
202.4
159.46
110.83
59.57
8.97
-37.59
-76.89
-106.32
-124.33
-130.62
-126.19
-112.88
-92.96
-68.72
-42.28
-15.68
8.93
29.47
44.21
52.27
54.01
50.89
45.05
38.75
33.84
31.62
32.92
38.21
47.6
60.7
76.6
94.01
111.53
128.06
143.01
156.28
168.09
178.65
187.97
195.77
201.54
204.73
204.84
201.54
194.65
184.11
170.0
152.63
132.52
110.4
87.03
63.08
39.04
15.31
-7.49
-28.37
-45.96
-58.78
-65.73
-66.52
-61.78
-52.8
-41.12
-28.06
-14.54
-1.15
11.51
22.72
31.63
37.61
40.63
41.48
41.61
42.72
46.07
52.18
60.77
71.08
82.34
93.95
105.48
116.31
125.51
131.91
134.47
132.86
127.56
119.77
110.71
101.16
91.18
80.33
68.24
54.91
40.95
27.32
14.9
4.08
-5.35
-14.11
-23.15
-33.36
-45.28
-58.96
-73.83
-88.69
-101.83
-111.26
-115.17
-112.34
-102.47
-86.3
-65.43
-41.97
-18.13
4.18
23.56
39.27
51.19
59.66
65.32
68.94
71.19
72.54
73.26
73.52
73.48
73.4
73.67
74.7
76.7
79.56
82.83
85.72
87.41
87.23
84.89
80.51
74.52
67.51
59.95
52.17
44.3
36.41
28.54
20.83
13.48
6.62
0.27
-5.89
-12.39
-19.9
-28.94
-39.55
-51.1
-62.24
-71.18
-76.14
-75.77
-69.55
-57.87
-41.88
-23.17
-3.5
15.53
32.55
46.58
57.03
63.73
66.86
66.88
64.46
60.3
55.15
49.62
44.23
39.33
35.08
31.53
28.64
26.47
25.12
24.72
25.26
26.46
27.78
28.6
