65.22
32.21
10.13
1.07
6.27
25.85
58.28
100.21
146.95
193.4
235.16
269.17
293.77
308.43
313.38
309.65
299.06
284.12
267.3
250.18
232.68
213.03
188.64
157.23
118.11
72.6
23.73
-24.7
-69.2
-107.43
-138.44
-162.55
-180.78
-194.35
-204.3
-211.19
-215.3
-216.75
-215.8
-212.87
-208.37
-202.4
-194.71
-184.75
-172.17
-157.17
-140.69
-124.14
-108.99
-96.09
-85.41
-76.24
-67.63
-59.02
-50.6
-43.11
-37.38
-33.7
-31.62
-30.11
-28.07
-24.87
-20.5
-15.47
-10.44
-6.05
-2.89
-1.59
-2.74
-6.68
-13.06
-20.74
-27.97
-33.01
-34.82
-33.49
-30.18
-26.57
-24.12
-23.58
-24.72
-26.54
-27.75
-27.17
-24.1
-18.41
-10.49
-1.12
8.81
18.42
26.98
33.9
38.72
41.2
41.29
39.28
35.74
31.48
27.39
24.2
22.3
21.71
22.12
23.1
24.23
25.26
26.07
26.61
26.85
26.72
26.17
25.21
23.93
22.42
20.71
18.71
16.32
13.49
10.36
7.25
4.52
2.35
0.66
-1.0
-3.25
-6.59
-11.2
-16.76
-22.56
-27.62
-30.97
-31.8
-29.59
-24.16
-15.68
-4.63
8.14
21.55
34.38
45.61
54.48
60.53
63.49
63.17
59.37
52.12
41.76
29.13
15.34
1.52
-11.48
-23.22
-33.65
-42.67
-49.87
-54.41
-55.24
-51.59
-43.48
-32.01
-19.15
-7.22
1.91
7.35
9.32
8.86
7.38
6.24
6.49
8.85
13.53
20.08
27.24
33.19
35.98
34.27
27.83
17.63
5.45
-6.7
-17.13
-24.7
-28.79
-29.24
-26.34
-20.79
-13.68
-6.24
0.47
5.83
9.78
12.67
15.04
17.3
19.52
21.58
23.2
24.23
24.65
24.65
24.45
24.22
24.02
23.83
23.58
23.2
22.62
21.78
20.59
18.99
16.93
14.45
11.49
7.91
3.36
-2.56
-10.15
-19.4
-29.87
-40.74
-51.02
-59.84
-66.63
-71.27
-74.06
-75.48
-76.12
-76.51
-77.15
-78.44
-80.77
-84.43
-89.52
-95.88
-103.1
-110.58
-117.82
-124.61
-131.23
-138.46
-147.41
-159.16
-174.41
-193.13
-214.53
-237.12
-259.16
-278.95
-295.15
-306.96
-314.15
-317.21
-317.27
-315.94
-314.72
-314.3
-313.98
-311.7
-304.68
-290.59
-268.6
-239.64
-205.95
-169.95
-133.25
-96.15
-57.97
-17.9
24.05
66.56
107.17
143.1
172.3
194.22
209.97
221.64
231.32
240.09
247.72
253.11
255.21
253.76
249.5
243.72
237.74
232.58
229.21
229.07
234.02
245.86
265.34
291.13
319.8
346.73
367.7
380.25
383.86
379.29
367.51
349.08
324.36
294.33
261.21
228.22
198.62
174.59
156.64
143.81
134.62
127.88
123.0
119.71
117.6
115.94
114.0
111.6
109.39
108.66
110.37
114.56
119.77
123.48
123.16
117.5
107.1
94.26
81.91
72.34
66.32
63.0
60.62
57.35
51.92
43.67
32.24
17.26
-1.85
-25.7
-54.73
-89.22
-129.48
-175.83
-228.09
-284.39
-339.98
-387.01
-416.35
-421.08
-400.09
-359.72
-312.0
-269.99
-242.44
-230.59
-228.82
-228.44
-222.35
-207.95
-186.95
-163.1
-139.53
-117.56
-97.17
-78.24
-61.36
-47.65
-37.91
-31.76
-27.62
-23.25
-16.69
-6.96
5.51
19.1
31.5
40.6
45.25
45.76
43.78
41.69
41.52
44.15
49.03
54.59
59.16
61.78
62.7
63.21
64.97
69.23
76.15
84.8
93.42
100.15
103.65
103.5
100.26
95.25
90.14
86.39
84.78
85.05
85.91
85.43
81.72
73.64
61.18
45.45
28.08
10.62
-6.01
-21.48
-35.81
-48.94
-60.61
-70.45
-78.31
-84.5
-89.71
-94.74
-100.0
-105.18
-109.25
-110.8
-108.57
-101.9
-91.02
-76.85
-60.76
-44.07
-27.83
-12.71
0.9
12.77
22.69
30.49
36.03
39.31
40.55
40.12
38.43
35.81
32.46
28.5
24.03
19.27
14.48
9.97
5.93
2.44
-0.54
-3.06
-5.16
-6.8
-8.01
-8.95
-9.96
-11.54
-14.16
-18.11
-23.44
-29.97
-37.39
-45.32
-53.28
-60.66
-66.56
-69.97
-69.89
-65.6
-56.89
-44.14
-28.21
-10.22
8.72
27.68
46.02
63.42
79.75
94.98
109.01
121.68
132.83
142.35
150.36
157.06
162.74
167.65
172.03
176.29
181.06
187.15
195.35
206.16
219.46
234.41
249.53
263.15
273.78
280.57
283.23
281.62
275.42
263.87
246.04
221.52
190.83
155.43
117.15
77.67
38.44
0.99
-32.75
-60.51
-80.41
-91.78
-95.53
-93.88
-89.53
-84.92
-81.98
-82.18
-86.79
-96.72
-112.17
-132.17
-154.6
-176.72
-196.18
-211.77
-223.76
-233.44
-242.43
-251.88
-261.86
-271.22
-278.01
-280.22
-276.67
-267.54
-254.29
-239.18
-224.47
-211.88
-202.28
-195.81
-192.11
-190.63
-190.88
-192.63
-195.84
-200.38
-206.1
-212.54
-219.15
-225.35
-230.48
-233.65
-233.58
-229.06
-219.6
-206.12
-190.9
-176.52
-164.21
-152.91
-139.6
-121.14
-96.43
-67.53
-38.85
-14.89
2.16
13.35
22.05
31.71
44.0
58.37
73.18
87.33
101.22
116.4
134.06
153.93
173.67
189.92
199.67
201.5
195.92
184.69
169.76
152.42
133.24
112.41
90.43
68.33
47.34
28.46
11.99
-2.38
-15.34
-27.48
-39.24
-50.83
-62.36
-73.73
-84.22
-92.39
-96.18
-93.56
-83.51
-66.59
-45.05
-22.0
-0.37
18.15
33.46
46.67
59.27
72.27
85.78
99.04
110.78
119.67
124.64
125.1
121.04
113.21
103.1
92.73
84.14
78.85
77.28
78.69
81.47
83.81
84.36
82.68
79.22
75.0
71.03
67.81
65.18
62.45
58.95
54.47
49.61
45.6
43.78
44.9
48.62
53.65
58.28
61.36
63.09
65.22
70.57
82.04
101.49
128.96
162.32
197.43
228.78
250.5
257.59
247.27
220.2
180.96
137.17
97.22
67.26
48.61
37.28
25.87
7.23
-21.96
-59.55
-99.11
-133.1
-156.29
-167.5
-169.15
-165.05
-158.25
-150.04
-140.46
-129.62
-118.58
-109.28
-103.5
-101.9
-103.53
-106.23
-107.75
-106.67
-102.97
-97.75
-92.78
-89.57
-88.79
-89.86
-90.92
-89.38
-82.76
-69.7
-50.76
-28.53
-6.97
9.89
19.24
20.25
13.89
2.21
-12.58
-28.45
-43.41
-55.16
-61.33
-60.14
-51.48
-37.41
-21.69
-8.3
0.35
4.52
6.87
11.02
19.64
33.1
49.4
65.13
77.02
83.25
83.89
80.66
76.08
72.35
70.57
70.34
70.03
67.6
61.71
52.52
42.04
33.54
30.45
35.07
47.76
66.68
88.38
108.8
124.3
132.5
132.67
125.57
112.91
96.73
78.85
60.79
43.75
28.69
16.15
5.92
-3.26
-13.45
-26.65
-43.78
-63.89
-84.18
-101.02
-111.32
-113.83
-109.42
-100.54
-89.88
-79.29
-69.26
-59.42
-49.38
-39.68
-32.08
-28.92
-31.98
-41.39
-55.16
-69.55
-80.39
-84.69
-81.99
-74.75
-67.4
-64.34
-67.81
-76.62
-86.61
-92.68
-91.23
-81.83
-67.1
-51.14
-37.37
-27.35
-20.72
-16.37
-13.48
-11.95
-11.87
-12.85
-13.66
-12.64
-8.48
-0.96
8.79
18.58
25.79
28.28
25.14
17.11
6.43
-3.93
-11.46
-15.1
-15.63
-15.11
-15.71
-18.57
-23.3
-28.48
-32.69
-35.45
-37.5
-40.1
-44.04
-48.78
-52.47
-52.71
-47.71
-37.21
-22.62
-6.47
8.53
20.44
28.45
32.85
34.6
34.85
34.57
34.36
34.33
34.13
33.09
30.4
25.46
18.15
9.09
-0.25
-7.79
-11.36
-9.4
-1.76
10.04
23.01
33.8
39.83
40.28
36.22
29.84
23.29
17.66
12.69
7.2
-0.13
-10.08
-22.6
-36.76
-51.02
-63.44
-72.0
-75.03
-71.71
-62.45
-48.8
-33.08
-17.65
-4.33
5.71
12.04
14.75
14.35
11.85
8.67
6.41
6.33
8.92
13.66
19.36
24.67
28.7
31.13
32.13
32.1
31.44
30.59
29.99
29.93
30.27
30.27
28.85
25.17
19.39
12.99
8.38
7.68
11.52
18.19
24.13
25.3
18.95
4.89
-14.43
-34.94
-52.36
-63.51
-66.96
-62.7
-51.46
-33.93
-10.41
19.03
53.91
92.73
132.76
170.4
202.12
225.48
239.75
245.81
245.43
240.31
231.33
218.59
201.8
181.09
157.27
131.77
106.18
81.72
59.12
38.83
21.36
7.34
-2.53
-7.92
-9.23
-7.61
-4.97
-3.53
-5.33
-11.7
-22.85
-37.81
-54.71
-71.41
-86.25
-98.57
-108.85
-118.25
-127.87
-138.16
-148.53
-157.66
-164.09
-166.7
-165.2
-160.03
-152.25
-143.23
-134.26
-126.39
-120.24
-116.02
-113.55
-112.45
-112.23
-112.5
-112.9
-113.19
-113.13
-112.48
-110.93
-108.23
-104.11
-98.42
-91.11
-82.24
-72.05
-61.03
-49.95
-39.75
-31.3
-25.13
-21.12
-18.6
-16.46
-13.7
-9.68
-4.51
1.01
5.7
8.41
8.53
6.42
3.5
1.94
4.1
11.74
25.42
44.35
66.63
89.98
112.43
132.78
150.74
166.74
181.49
195.43
208.13
217.99
222.51
219.24
206.97
186.62
161.31
135.35
112.88
96.64
87.48
84.73
87.04
93.09
101.85
112.47
123.86
134.48
142.2
144.51
138.78
122.88
95.93
59.13
16.08
-27.79
-66.53
-95.48
-112.54
-118.51
-116.26
-109.1
-99.45
-88.06
-74.38
-57.41
-36.48
-11.57
16.87
48.04
80.61
112.15
139.02
156.94
162.32
153.86
133.28
104.88
73.99
45.19
21.21
2.89
-10.16
-18.71
-23.39
-24.85
-23.9
-21.66
-19.29
-17.6
-16.83
-16.71
-16.68
-16.23
-15.19
-13.85
-12.96
-13.55
-16.67
-23.0
-32.62
-44.95
-59.0
-73.79
-88.61
-103.14
-117.22
-130.6
-142.88
-153.58
-162.34
-169.04
-173.53
-175.29
-173.28
-166.19
-153.03
-134.0
-110.71
-85.89
-62.44
-42.44
-26.59
-14.37
-4.62
3.73
11.26
17.97
23.48
27.2
28.44
26.48
20.73
10.98
-2.4
-18.47
-36.05
-54.04
-71.87
-89.54
-107.32
-125.41
-143.52
-160.89
-176.51
-189.57
-199.8
-207.6
-213.9
-219.83
-226.38
-234.06
-242.71
-251.36
-258.23
-261.0
-257.38
-245.91
-226.75
-202.17
-176.19
-153.42
-137.44
-129.42
-127.77
-128.86
-128.75
-124.8
-116.34
-104.36
-90.25
-74.77
-57.66
-38.18
-16.07
7.75
31.2
51.78
67.32
76.51
78.91
74.64
64.13
48.18
28.01
5.41
-17.23
-37.23
-51.97
-59.28
-57.85
-47.48
-29.16
-4.85
22.86
51.18
77.56
100.16
118.33
132.71
144.97
156.95
169.47
181.35
189.39
189.35
177.67
153.11
117.57
75.76
33.94
-1.73
-26.5
-37.87
-35.72
-21.92
0.37
27.7
57.12
86.77
115.83
144.12
171.74
198.79
225.47
252.12
278.94
305.43
330.01
350.38
364.85
373.64
379.07
384.44
391.83
400.18
405.11
400.55
381.23
344.69
292.12
227.82
158.27
91.03
33.76
-6.95
-27.07
-26.38
-8.89
18.22
46.84
70.33
84.96
90.05
87.01
78.24
66.32
53.47
41.28
30.41
20.55
10.61
-0.4
-12.64
-25.13
-36.11
-43.83
-47.38
-47.14
-44.54
-41.47
-39.58
-39.92
-42.85
-48.22
-55.47
-63.67
-71.42
-77.13
-79.42
-77.56
-71.83
-63.34
-53.49
-43.32
-33.32
-23.59
-14.6
-7.64
-4.77
-7.86
-17.21
-30.68
-43.96
-52.13
-51.91
-43.42
-30.37
-18.61
-13.57
-18.21
-32.11
-52.38
-75.31
-97.98
-118.96
-138.11
-155.72
-171.84
-186.02
-197.58
-206.04
-211.67
-215.4
-218.71
-223.08
-229.29
-237.09
-244.93
-250.3
-250.41
-243.06
-227.41
-204.21
-175.62
-144.53
-113.79
-85.64
-61.54
-42.16
-27.56
-17.16
-9.75
-3.44
4.22
15.57
32.2
54.19
80.02
106.83
131.29
150.49
162.56
166.85
163.65
153.92
138.89
120.0
98.79
76.86
55.61
35.93
17.92
1.01
-15.76
-33.07
-50.75
-67.6
-81.51
-90.02
-90.98
-83.25
-66.94
-43.46
-15.13
15.24
44.96
71.86
94.6
112.67
126.14
135.29
140.24
140.89
137.11
129.04
117.44
103.72
89.7
77.22
67.74
62.1
60.49
62.6
67.62
74.3
81.04
86.06
87.73
85.04
77.85
67.02
54.14
41.15
29.71
20.87
14.83
11.06
8.52
6.0
2.34
-3.43
-11.95
-23.44
-37.6
-53.54
-69.84
-84.75
-96.56
-103.9
-106.0
-102.79
-94.7
-82.52
-67.17
-49.62
-30.96
-12.44
4.59
18.82
29.29
35.65
38.21
37.9
35.85
33.16
30.51
28.03
25.27
21.44
15.77
7.97
-1.31
-10.35
-16.73
-18.02
-12.76
-1.11
15.05
32.74
48.92
61.7
71.06
78.68
87.21
98.9
114.65
133.53
153.24
170.86
183.63
189.42
186.73
174.63
152.73
121.47
82.38
38.39
-6.34
-47.04
-79.26
-99.98
-108.18
-104.99
-93.01
-75.36
-54.64
-32.52
-9.87
12.5
33.35
50.94
63.74
71.22
74.23
74.57
73.98
73.13
71.33
67.22
59.96
50.16
39.93
31.99
28.21
28.47
30.6
31.3
27.67
18.52
4.79
-11.04
-25.96
-37.55
-44.45
-46.47
-44.29
-39.24
-33.03
-27.55
-24.52
-24.98
-29.01
-35.69
-43.54
-51.01
-56.98
-60.79
-62.09
-60.63
-56.19
-48.8
-38.87
-27.36
-15.51
-4.51
4.86
12.28
17.79
21.43
22.96
21.88
17.64
9.99
-0.47
-12.11
-22.39
-28.44
-27.98
-20.36
-7.07
8.48
22.04
30.03
30.83
25.25
15.98
6.3
-1.16
-5.16
-5.86
-4.28
-1.58
1.27
3.66
5.31
6.24
6.78
7.42
8.5
9.83
10.47
8.9
3.58
-6.22
-19.88
-35.28
-49.22
-58.37
-60.38
-54.79
-43.39
-29.85
-18.55
-13.19
-15.49
-24.71
-37.99
-51.55
-62.02
-67.6
-68.33
-65.76
-62.1
-59.35
-58.65
-60.15
-63.24
-67.02
-70.78
-74.39
-78.27
-83.1
-89.32
-96.68
-104.23
-110.56
-114.4
-115.25
-113.57
-110.56
-107.47
-105.03
-103.03
-100.61
-96.89
-91.64
-85.53
-79.83
-75.71
-73.51
-72.55
-71.49
-69.07
-64.74
-58.95
-52.82
-47.54
-43.85
-41.93
-41.71
-43.23
-46.84
-53.01
-61.69
-71.84
-81.24
-86.92
-85.89
-76.1
-57.15
-30.5
0.69
32.3
60.17
81.06
93.42
97.57
95.44
89.72
82.91
76.52
70.89
65.5
59.66
53.19
46.64
41.15
37.75
36.89
38.12
40.34
42.43
43.75
44.44
45.11
46.31
48.01
49.43
49.41
46.94
41.74
34.42
26.19
18.42
11.99
7.1
3.16
-0.84
-5.99
-13.12
-22.52
-33.88
-46.35
-58.59
-68.88
-75.28
-75.93
-69.47
-55.45
-34.64
-8.91
19.17
47.03
72.58
94.49
112.01
124.76
132.56
135.45
133.79
128.38
120.43
111.27
102.11
93.81
86.83
81.33
77.22
74.31
72.25
70.57
68.73
66.07
62.05
56.29
48.67
39.49
29.33
18.94
8.95
-0.33
-8.97
-17.32
-25.71
-34.25
-42.71
-50.71
-57.89
-64.22
-70.03
-75.98
-82.83
-91.26
-101.71
-114.13
-127.84
-141.34
-152.4
-158.38
-156.97
-146.91
-128.52
-103.69
-75.25
-46.24
-19.09
4.79
24.89
41.28
54.22
63.88
70.41
74.04
75.28
74.85
73.61
72.25
71.17
70.41
69.76
69.02
68.17
67.43
67.11
67.4
68.1
68.67
68.36
66.56
63.08
58.2
52.57
46.92
41.74
37.2
33.19
29.47
25.88
22.41
19.1
15.95
12.75
9.08
4.41
-1.69
-9.43
-18.69
-28.96
-39.46
-49.16
-56.97
-61.8
-62.83
-59.62
-52.29
-41.54
-28.54
-14.63
-1.06
11.27
21.85
30.56
37.44
42.55
45.99
47.88
48.47
48.21
47.67
47.41
47.83
49.01
50.77
52.76
54.68
56.42
58.08
59.84
61.77
63.72
65.32
66.12
65.88
64.74
63.19
61.92
61.49
62.04
63.32
64.77
65.89
66.55
67.08
68.23
70.75
75.17
81.59
89.9
100.11
112.54
127.91
147.09
170.66
198.76
231.27
267.95
308.33
351.13
393.48
430.73
457.17
467.79
460.1
435.28
397.65
353.03
306.64
261.69
219.29
179.31
141.42
105.68
72.37
41.42
12.14
-16.6
-45.87
-76.12
-107.07
-137.91
-167.72
-195.8
-221.83
-245.82
-267.97
-288.5
-307.43
-324.36
-338.37
-348.3
-353.21
-353.06
-349.05
-343.35
-338.37
-335.72
-335.66
-337.04
-338.07
-337.24
-333.93
-328.49
-321.8
-314.45
-306.3
-296.25
-282.53
-263.34
-237.49
-205.02
-167.31
-126.78
-86.16
-47.65
-12.37
19.66
49.04
76.4
102.02
125.85
147.82
168.13
187.2
205.39
222.4
237.21
248.2
253.76
252.86
245.43
232.34
215.06
195.22
174.37
153.73
134.16
116.12
99.64
84.31
69.44
54.31
38.39
21.58
4.18
-13.3
-30.37
-46.7
-62.16
-76.67
-90.06
-102.02
-112.17
-120.25
-126.21
-130.34
-133.09
-135.03
-136.68
-138.45
-140.73
-143.8
-147.76
-152.34
-156.58
-158.8
-156.78
-148.22
-131.37
-105.5
-71.33
-30.91
12.56
55.32
93.65
124.48
145.85
157.06
158.53
151.63
138.33
120.99
102.32
85.09
71.94
64.73
64.16
69.52
78.99
90.29
101.41
111.08
118.76
124.45
128.29
130.44
131.13
130.73
129.81
128.9
128.26
127.61
126.15
122.69
116.0
105.19
89.9
70.48
47.85
23.29
-1.89
-26.64
-50.32
-72.72
-93.83
-113.65
-131.98
-148.56
-163.09
-175.46
-185.71
-194.01
-200.46
-205.2
-208.38
-210.34
-211.53
-212.35
-212.94
-213.07
-212.35
-210.57
-207.97
-205.36
-203.74
-203.89
-206.09
-210.05
-215.25
-221.21
-227.59
-234.14
-240.44
-245.82
-249.38
-250.23
-247.66
-241.26
-230.87
-216.56
-198.46
-176.79
-151.84
-124.02
-93.96
-62.63
-31.35
-1.65
25.03
47.84
66.71
82.38
96.02
108.76
121.22
133.44
145.01
155.37
163.95
170.15
173.24
172.31
166.45
155.08
138.33
117.23
93.59
69.57
47.11
27.47
10.91
-3.18
-15.97
-28.67
-42.11
-56.59
-71.86
-87.39
-102.63
-117.17
-130.8
-143.42
-154.99
-165.5
-175.02
-183.65
-191.54
-198.71
-204.96
-209.71
-212.06
-210.98
-205.63
-195.73
-181.55
-163.6
-142.02
-116.24
-85.08
-47.52
-3.74
44.21
92.54
136.68
172.66
198.21
213.14
218.86
217.56
211.55
202.91
193.42
184.63
177.69
173.14
170.77
169.73
168.81
166.82
162.84
156.32
147.2
135.84
122.94
109.32
95.56
81.6
66.69
49.65
29.59
6.69
-17.3
-39.31
-55.93
-64.71
-65.16
-59.05
-49.74
-41.0
-35.76
-35.33
-39.3
-45.87
-52.54
-56.73
-56.38
-50.28
-38.39
-21.82
-2.54
17.14
35.03
49.51
59.53
64.6
64.59
59.78
50.89
39.14
26.03
13.1
1.81
-6.51
-10.5
-8.84
-0.66
13.92
33.38
54.79
74.57
89.44
97.39
98.1
92.77
83.5
72.62
62.17
53.52
47.34
43.53
41.36
39.71
37.37
33.43
27.43
19.44
10.01
-0.08
-10.01
-19.26
-27.8
-36.11
-44.88
-54.42
-64.2
-72.6
-77.32
-76.2
-68.18
-53.82
-35.28
-15.43
3.03
18.48
30.51
39.67
46.72
52.12
55.82
57.44
56.7
53.7
49.05
43.8
39.08
35.8
34.35
34.48
35.28
35.51
33.93
29.71
22.7
13.47
3.17
-6.56
-13.87
-16.9
-14.31
-5.79
7.46
22.66
36.14
44.42
45.39
39.04
27.32
13.32
0.03
-10.5
-17.61
-21.73
-23.82
-24.97
-26.03
-27.74
-30.68
-35.27
-41.49
-48.67
-55.43
-60.04
-61.13
-58.22
-52.05
-44.15
-36.12
-28.94
-22.6
-16.45
-9.84
-2.78
3.76
8.17
8.85
4.93
-3.39
-14.78
-27.24
-38.48
-46.46
-49.56
-46.81
-38.0
-23.96
-6.6
11.2
26.17
35.55
37.97
33.87
25.28
14.98
5.47
-1.79
-6.58
-9.64
-12.07
-14.93
-19.04
-24.91
-32.89
-43.12
-55.59
-70.04
-86.08
-103.13
-120.66
-138.11
-154.88
-170.15
-182.67
-190.65
-192.01
-184.85
-168.16
-142.36
-109.55
-73.08
-36.82
-4.24
22.38
42.15
55.52
63.74
68.36
70.69
71.59
71.38
70.09
67.72
64.51
61.01
57.9
55.78
54.89
55.08
55.91
56.9
57.74
58.33
58.77
59.18
59.68
60.25
60.85
61.4
61.82
62.14
62.39
62.74
63.44
64.8
67.02
70.01
73.13
75.14
74.41
69.32
58.89
43.35
24.38
4.92
-11.57
-22.02
-24.58
-18.99
-6.44
11.0
31.02
51.63
71.32
89.09
104.35
116.87
126.63
133.69
137.81
138.35
134.36
125.1
110.68
92.49
73.02
55.24
41.62
33.39
30.34
31.04
33.39
35.17
34.43
29.74
20.42
6.75
-9.78
-26.7
-41.02
-50.1
-52.5
-48.52
-40.06
-29.97
-21.09
-15.36
-13.47
-14.93
-18.61
-23.32
-28.25
-33.14
-38.3
-44.33
-51.88
-61.32
-72.43
-84.24
-95.12
-103.09
-106.37
-103.87
-95.53
-82.32
-65.88
-48.09
-30.62
-14.6
-0.61
11.25
21.09
29.11
35.46
40.3
43.86
46.52
48.78
51.18
54.16
57.93
62.46
67.56
73.03
78.8
84.92
91.54
98.67
106.02
112.99
118.79
122.67
124.2
123.4
120.78
117.13
113.3
109.96
107.44
105.59
103.86
101.5
97.76
92.13
84.56
75.33
64.94
53.86
42.36
30.42
17.87
4.56
-9.49
-23.87
-37.79
-50.11
-59.53
-64.87
-65.39
-61.08
-52.76
-42.03
-30.89
-21.4
-15.24
-13.45
-16.37
-23.56
-33.96
-46.01
-57.79
-67.36
-73.05
-73.82
-69.44
-60.42
-47.81
-32.85
-16.71
-0.45
14.97
28.55
39.41
46.92
51.01
52.16
51.22
49.05
46.13
42.32
37.12
29.87
20.22
8.37
-4.95
-18.73
-32.01
-44.18
-55.2
-65.51
-75.95
-87.47
-100.79
-116.07
-132.56
-148.57
-161.67
-169.37
-169.92
-162.93
-149.57
-132.2
-113.5
-95.64
-79.84
-66.38
-54.96
-45.2
-36.85
-29.91
-24.35
-20.16
-17.19
-15.26
-14.19
-13.8
-13.86
-14.08
-14.13
-13.77
-12.86
-11.38
-9.49
-7.35
-5.23
-3.42
-2.21
-1.83
-2.4
-3.83
-5.83
-7.98
-9.89
-11.4
-12.62
-13.98
-15.99
-18.96
-22.89
-27.4
-32.06
-36.69
-41.58
-47.33
-54.59
-63.6
-73.97
-84.64
-94.11
-100.76
-103.08
-99.95
-90.84
-75.99
-56.54
-34.3
-11.49
9.9
28.45
43.55
55.22
63.76
69.41
72.22
72.2
69.54
64.75
58.68
52.35
46.62
42.07
38.97
37.38
37.28
38.62
41.27
44.89
48.85
52.29
54.31
54.24
51.75
47.02
40.58
33.16
25.48
18.0
10.88
3.97
-2.95
-10.09
-17.41
-24.77
-32.05
-39.3
-46.83
-55.05
-64.11
-73.66
-82.68
-89.66
-93.0
-91.43
-84.4
-72.19
-55.94
-37.39
-18.49
-1.01
13.8
25.45
34.11
40.38
44.89
48.1
50.19
51.23
51.31
50.8
50.18
49.97
50.55
51.96
54.06
56.59
59.36
62.29
65.3
68.24
70.75
72.33
72.42
70.67
67.1
62.1
56.3
50.31
44.52
39.0
33.62
28.19
22.55
16.7
10.77
5.02
-0.14
-4.12
-6.19
-5.7
-2.29
3.83
11.84
20.49
28.45
34.66
38.59
40.24
39.99
38.36
35.8
32.59
28.84
24.6
19.93
15.07
10.42
6.55
3.99
3.07
3.75
5.65
8.18
10.77
13.01
14.71
15.86
16.41
16.26
15.25
13.21
10.09
5.93
0.85
-4.96
-11.35
-18.14
-25.16
-32.3
-39.5
-46.88
-54.67
-63.2
-72.67
-82.95
-93.41
-102.88
-109.78
-112.47
-109.76
-101.25
-87.54
-70.11
-51.0
-32.19
-15.27
-1.13
9.95
18.15
23.86
27.54
29.61
30.49
30.55
30.1
29.36
28.5
27.67
27.06
26.86
27.22
28.14
29.45
30.89
32.13
32.88
32.9
31.99
30.01
26.9
22.74
17.75
12.31
6.83
1.66
-2.97
-7.02
-10.59
-13.91
-17.27
-20.95
-25.15
-29.92
-35.05
-40.06
-44.21
-46.64
-46.57
-43.51
-37.39
-28.55
-17.73
-5.82
6.23
17.58
27.6
35.87
42.26
46.9
50.04
51.99
53.02
53.25
52.76
51.65
50.13
48.49
47.06
46.08
45.69
45.88
46.53
47.43
48.29
48.79
48.62
47.62
45.84
43.52
40.96
38.41
35.89
33.29
30.34
26.8
22.58
17.71
12.37
6.77
1.1
-4.48
-9.96
-15.4
-21.01
-27.08
-33.92
-41.64
-49.98
-58.24
-65.28
-69.82
-70.77
-67.61
-60.56
-50.5
-38.71
-26.51
-14.96
-4.73
3.89
10.83
16.16
19.97
22.43
23.72
24.11
23.86
23.25
22.52
21.9
21.61
21.77
22.47
23.57
24.83
25.92
26.51
26.42
25.61
24.2
22.35
20.13
17.54
14.5
11.0
7.11
3.01
-1.04
-4.83
-8.26
-11.38
-14.37
-17.49
-21.03
-25.23
-30.24
-36.02
-42.22
-48.1
-52.68
-54.88
-53.92
-49.49
-41.96
-32.16
-21.22
-10.19
0.07
9.05
16.46
22.21
26.32
28.93
30.27
30.64
30.31
29.51
28.39
27.06
25.69
24.46
23.55
23.07
23.04
23.4
24.02
24.76
25.48
26.0
26.16
25.77
24.7
22.89
20.42
17.43
14.14
10.71
7.21
3.59
-0.27
-4.48
-9.04
-13.82
-18.57
-23.03
-27.0
-30.46
-33.59
-36.72
-40.25
-44.44
-49.34
-54.6
-59.58
-63.36
-64.97
-63.7
-59.2
-51.67
-41.75
-30.41
-18.68
-7.51
2.4
10.66
17.09
21.77
24.91
26.84
27.93
28.54
28.93
29.26
29.58
29.89
30.2
30.57
31.13
31.98
33.12
34.4
35.57
36.31
36.34
35.55
33.92
31.51
28.41
24.69
20.46
15.92
11.35
7.05
3.2
-0.26
-3.59
-7.1
-10.96
-15.09
-19.19
-22.95
-26.16
-28.86
-31.24
-33.54
-35.92
-38.49
-41.32
-44.54
-48.25
-52.37
-56.52
-59.97
-61.87
-61.43
-58.32
-52.73
-45.35
-37.15
-29.05
-21.73
-15.49
-10.32
-6.04
-2.42
0.69
3.37
5.62
7.45
8.9
10.04
11.02
12.05
13.34
15.1
17.42
20.24
23.43
26.78
30.08
33.21
36.04
38.43
40.11
40.78
40.13
38.05
34.64
30.27
25.35
20.19
14.89
9.35
3.43
-2.92
-9.49
-15.94
-21.85
-26.9
-30.96
-34.13
-36.66
-38.96
-41.42
-44.45
-48.24
-52.69
-57.22
-60.87
-62.41
-60.75
-55.3
-46.19
-34.28
-20.92
-7.55
4.68
15.08
23.37
29.56
33.71
35.88
36.15
34.8
32.33
29.47
27.0
25.53
25.34
26.34
28.21
30.52
32.91
35.15
37.06
38.48
39.18
38.89
37.4
34.62
30.72
26.07
21.12
16.23
11.58
7.08
2.52
-2.35
-7.67
-13.36
-19.21
-24.92
-30.3
-35.29
-40.04
-44.83
-50.01
-55.91
-62.77
-70.62
-79.19
-87.74
-95.1
-99.77
-100.31
-95.73
-85.94
-71.84
-55.08
-37.56
-20.89
-6.03
6.7
17.42
26.41
33.86
39.92
44.75
48.56
51.65
54.31
56.74
58.98
60.97
62.55
63.58
63.97
63.74
63.01
61.89
60.48
58.73
56.51
53.67
50.14
45.98
41.36
36.54
31.71
27.05
22.7
18.8
15.52
12.96
11.1
9.72
8.43
6.87
4.74
2.03
-1.13
-4.5
-7.96
-11.62
-15.82
-20.99
-27.34
-34.69
-42.3
-49.04
-53.63
-55.02
-52.68
-46.73
-37.83
-27.05
-15.57
-4.42
5.63
14.17
21.05
26.42
30.53
