-83.32
-65.41
-44.99
-24.23
-4.95
11.63
25.03
35.24
42.51
47.19
49.67
50.45
50.13
49.35
48.6
48.16
48.02
48.03
48.07
48.2
48.63
49.63
51.31
53.5
55.79
57.63
58.55
58.29
56.87
54.48
51.46
48.15
44.77
41.41
37.97
34.29
30.19
25.65
20.8
15.89
11.17
6.71
2.36
-2.16
-7.15
-12.71
-18.71
-24.85
-30.82
-36.47
-41.92
-47.51
-53.67
-60.72
-68.68
-77.06
-84.84
-90.54
-92.57
-89.58
-80.82
-66.35
-47.09
-24.64
-0.86
22.34
43.41
61.3
75.52
86.11
93.48
98.21
100.94
102.23
102.53
102.17
101.38
100.26
98.85
97.15
95.27
93.41
91.85
90.83
90.41
90.39
90.33
89.61
87.58
83.68
77.6
69.39
59.49
48.65
37.75
27.49
18.19
9.69
1.48
-7.11
-16.6
-27.28
-39.02
-51.39
-63.56
-74.42
-82.77
-87.64
-88.73
-86.69
-83.12
-80.08
-79.4
-82.04
-87.67
-94.75
-101.0
-104.02
-101.8
-93.21
-78.24
-58.07
-34.89
-11.54
9.2
25.27
35.76
40.95
41.94
40.06
36.48
31.99
27.22
22.75
19.21
17.17
16.82
17.96
19.92
21.91
23.3
23.83
23.54
22.71
21.62
20.4
19.02
17.38
15.37
12.99
10.37
7.74
5.35
3.32
1.64
0.1
-1.61
-3.76
-6.49
-9.88
-13.95
-18.82
-24.69
-31.73
-39.76
-48.13
-55.63
-60.75
-62.14
-59.01
-51.37
-40.08
-26.56
-12.39
1.0
12.57
21.75
28.28
32.16
33.49
32.54
29.75
25.71
21.14
16.64
12.63
9.32
6.72
4.78
3.53
3.02
3.26
4.16
5.4
6.54
7.11
6.8
5.52
3.37
0.62
-2.41
-5.42
-8.21
-10.75
-13.2
-15.81
-18.87
-22.54
-26.74
-31.22
-35.62
-39.64
-43.2
-46.47
-49.87
-53.88
-58.92
-65.2
-72.44
-79.89
-86.27
-89.96
-89.44
-83.66
-72.48
-56.71
-37.96
-18.27
0.47
16.84
30.12
40.23
47.49
52.39
55.42
56.99
57.44
57.17
56.58
56.04
55.85
56.11
56.82
58.0
59.7
62.08
65.25
69.15
73.38
77.28
80.09
81.24
80.43
77.8
73.83
69.16
64.42
60.14
56.58
53.8
51.54
49.34
46.55
42.48
36.57
28.5
18.26
6.11
-7.59
-22.57
-38.71
-56.09
-74.64
-93.89
-112.71
-129.27
-141.34
-146.86
-144.46
-133.88
-116.18
-93.46
-68.47
-44.07
-22.72
-6.08
5.2
11.49
13.99
14.28
13.91
13.9
14.6
15.73
16.75
17.1
16.57
15.27
13.56
11.85
10.43
9.44
8.88
8.65
8.58
8.45
7.98
6.94
5.16
2.63
-0.52
-4.09
-7.87
-11.7
-15.51
-19.3
-23.13
-27.19
-31.72
-37.06
-43.58
-51.48
-60.64
-70.44
-79.73
-86.96
-90.54
-89.21
-82.47
-70.69
-55.11
-37.42
-19.42
-2.61
12.03
23.98
33.09
39.43
43.17
44.55
43.97
41.96
39.12
36.15
33.63
32.07
31.75
32.69
34.67
37.23
39.8
41.87
43.08
43.38
42.94
42.06
40.99
39.84
38.5
36.73
34.32
31.09
27.0
22.15
16.68
10.8
4.72
-1.39
-7.45
-13.6
-20.16
-27.57
-36.29
-46.47
-57.83
-69.58
-80.59
-89.64
-95.83
-98.75
-98.45
-95.26
-89.55
-81.5
-71.08
-58.33
-43.57
-27.58
-11.59
3.11
15.44
24.91
31.62
36.12
39.13
41.32
43.15
44.95
46.95
49.28
51.94
54.76
57.36
59.26
59.9
58.9
56.09
51.66
46.12
40.17
34.52
29.64
25.6
22.01
18.25
13.73
8.2
1.84
-4.88
-11.39
-17.36
-22.82
-28.06
-33.58
-39.84
-47.17
-55.65
-65.01
-74.56
-83.1
-89.05
-90.71
-86.75
-76.72
-61.22
-41.89
-20.91
-0.43
17.93
33.25
45.28
54.15
60.17
63.74
65.35
65.54
64.92
63.97
63.0
62.12
61.3
60.53
59.94
59.72
60.1
61.19
62.88
64.82
66.48
67.27
66.6
64.04
59.38
52.64
44.12
34.3
23.79
13.15
2.77
-7.19
-16.79
-26.07
-34.91
-42.87
-49.33
-53.73
-55.87
-56.07
-55.08
-53.89
-53.4
-54.31
-56.98
-61.43
-67.28
-73.59
-78.84
-81.09
-78.55
-70.14
-56.07
-37.88
-17.99
0.92
16.76
28.44
35.93
39.9
41.3
41.0
39.54
37.27
34.44
31.31
28.26
25.65
23.81
22.85
22.72
23.18
23.87
24.47
24.67
24.26
23.15
21.38
19.1
16.58
14.15
12.13
10.76
10.07
9.85
9.66
8.93
7.14
4.0
-0.51
-6.12
-12.43
-19.13
-26.03
-33.23
-40.84
-48.84
-56.78
-63.71
-68.29
-69.14
-65.27
-56.48
-43.48
-27.68
-10.83
5.43
19.84
31.65
40.5
46.36
49.38
49.92
48.54
45.91
42.73
39.59
36.9
34.83
33.42
32.6
32.31
32.49
33.12
34.11
35.29
36.39
37.02
36.76
35.25
32.4
28.39
23.73
19.03
14.83
11.33
8.34
5.4
2.01
-2.1
-6.84
-11.88
-16.84
-21.42
-25.54
-29.26
-32.75
-36.22
-40.0
-44.52
-50.24
-57.36
-65.53
-73.68
-80.11
-82.95
-80.75
-72.97
-60.06
-43.42
-24.89
-6.33
10.71
25.29
37.01
46.03
52.73
57.63
61.11
63.41
64.69
65.14
65.01
64.66
64.41
64.44
64.88
65.75
67.11
68.97
71.22
73.53
75.42
76.38
76.03
74.22
70.97
66.46
60.93
54.68
48.1
41.65
35.71
30.4
25.54
20.64
15.16
8.75
1.37
-6.71
-15.16
-23.72
-32.43
-41.65
-52.01
-64.16
-78.57
-95.27
-113.64
-132.35
-149.39
-162.35
-168.86
-167.09
-156.3
-137.14
-111.63
-82.81
-53.98
-27.98
-6.67
9.3
20.22
26.92
30.28
31.05
29.92
27.58
24.95
22.99
22.51
23.9
26.96
31.03
35.27
38.89
41.43
42.71
42.81
41.94
40.32
38.14
35.59
32.78
29.73
26.36
22.52
18.11
13.12
7.75
2.33
-2.77
-7.34
-11.35
-15.11
-19.1
-23.89
-29.88
-37.14
-45.35
-53.69
-61.01
-65.99
-67.43
-64.5
-56.97
-45.41
-31.05
-15.57
-0.71
12.11
22.09
29.06
33.31
35.22
35.02
32.65
27.84
20.46
10.66
-0.99
-13.67
-26.46
-38.45
-48.72
-56.25
-59.96
-58.95
-52.86
-42.29
-28.74
-14.33
-1.19
9.14
16.09
19.94
21.43
21.33
20.2
18.27
15.63
12.37
8.61
4.52
0.19
-4.42
-9.45
-15.04
-21.33
-28.35
-36.13
-44.57
-53.45
-62.26
-70.12
-75.84
-78.14
-75.99
-68.89
-57.13
-41.74
-24.3
-6.59
9.76
23.62
34.39
42.04
46.93
49.64
50.77
50.84
50.27
49.34
48.26
47.15
46.09
45.17
44.55
44.4
44.91
46.1
47.82
49.7
51.29
52.2
52.13
51.0
48.82
45.71
41.81
37.3
32.39
27.26
22.03
16.71
11.19
5.35
-0.84
-7.18
-13.29
-18.74
-23.28
-26.96
-30.16
-33.44
-37.36
-42.29
-48.25
-54.79
-61.04
-65.77
-67.58
-65.25
-58.03
-46.01
-30.21
-12.35
5.58
21.79
35.12
45.12
51.95
56.01
57.7
57.26
54.82
50.48
44.5
37.31
29.45
21.42
13.56
5.87
-1.9
-10.13
-19.02
-28.33
-37.22
-44.45
-48.65
-48.81
-44.65
-36.75
-26.43
-15.42
-5.53
1.68
5.17
4.59
0.38
-6.35
-14.03
-21.08
-26.43
-29.77
-31.63
-33.08
-35.29
-39.05
-44.43
-50.72
-56.62
-60.52
-60.96
-57.03
-48.56
-36.2
-21.28
-5.51
9.43
22.19
31.97
38.52
42.07
43.1
42.16
39.79
36.48
32.73
28.99
25.66
23.01
21.15
20.02
19.46
19.3
19.39
19.62
19.83
19.78
19.16
17.7
15.28
12.01
8.19
4.19
0.28
-3.49
-7.26
-11.25
-15.62
-20.31
-25.11
-29.77
-34.14
-38.28
-42.48
-47.13
-52.69
-59.43
-67.27
-75.65
-83.49
-89.3
-91.51
-88.83
-80.65
-67.31
-50.02
-30.6
-11.04
6.93
22.16
34.14
42.91
48.85
52.52
54.48
55.3
55.52
55.57
55.74
56.15
56.78
57.52
58.37
59.36
60.64
62.28
64.25
66.37
68.27
69.52
69.69
68.41
65.51
61.1
55.57
49.49
43.49
38.02
33.18
28.73
24.22
19.18
13.33
6.71
-0.38
-7.49
-14.29
-20.61
-26.65
-32.88
-39.88
-48.1
-57.58
-67.81
-77.69
-85.65
-90.03
-89.52
-83.53
-72.41
-57.46
-40.59
-23.81
-8.79
3.48
12.74
19.29
23.65
26.33
27.72
28.09
27.66
26.65
25.3
23.81
22.29
20.88
19.7
18.96
18.83
19.38
20.47
21.72
22.63
22.75
21.81
19.83
17.04
13.81
10.48
7.24
4.18
1.21
-1.77
-4.88
-8.2
-11.77
-15.64
-19.86
-24.57
-29.95
-36.21
-43.48
-51.65
-60.24
-68.29
-74.44
-77.18
-75.26
-68.2
-56.45
-41.46
-25.23
-9.73
3.55
13.9
21.24
25.9
28.32
28.86
27.89
25.79
23.06
20.24
17.81
16.13
15.44
15.86
17.4
19.97
23.31
26.99
30.49
33.27
35.02
35.65
35.37
34.49
33.29
31.87
30.12
27.77
24.52
20.25
15.05
9.19
2.96
-3.48
-10.22
-17.61
-26.13
-36.25
-48.29
-62.18
-77.4
-92.84
-106.88
-117.59
-123.13
-122.18
-114.3
-100.07
-80.9
-58.59
-34.93
-11.49
10.48
29.92
45.84
57.48
64.51
67.31
67.09
65.61
64.72
65.74
69.06
74.16
79.92
85.2
89.26
91.9
93.21
93.28
91.89
88.65
83.29
76.03
67.66
59.42
52.36
46.94
42.83
39.06
34.57
28.69
21.44
13.43
5.53
-1.52
-7.42
-12.36
-16.96
-21.88
-27.66
-34.45
-41.87
-49.0
-54.53
-57.06
-55.54
-49.66
-40.04
-28.16
-15.91
-5.09
3.12
8.37
11.22
12.89
14.89
18.71
25.44
35.55
48.56
63.15
77.27
88.73
95.76
97.44
93.84
85.87
74.86
62.12
48.73
35.4
22.53
10.34
-1.08
-11.62
-21.21
-29.7
-36.92
-42.69
-46.89
-49.58
-51.05
-51.89
-52.89
-54.85
-58.33
-63.44
-69.74
-76.36
-82.3
-86.9
-90.04
-92.17
-93.96
-95.89
-97.8
-98.87
-97.86
-93.52
-85.13
-72.72
-57.09
-39.55
-21.56
-4.43
10.91
23.9
34.24
41.83
46.68
48.91
48.87
47.16
44.56
41.93
39.95
39.02
39.2
40.3
41.96
43.81
45.49
46.74
47.44
47.56
47.12
46.12
44.46
41.99
38.61
34.35
29.44
24.27
19.23
14.62
10.58
7.08
3.93
0.76
-2.93
-7.75
-14.13
-22.05
-30.79
-38.96
-44.78
-46.79
-44.47
-38.56
-30.98
-24.22
-20.57
-21.35
-26.54
-34.81
-43.96
-51.53
-55.58
-55.11
-50.38
-42.72
-34.1
-26.51
-21.34
-19.02
-19.02
-20.12
-20.87
-20.04
-16.95
-11.55
-4.41
3.54
11.25
17.91
23.1
26.87
29.62
31.88
34.02
36.22
38.42
40.49
42.27
43.68
44.61
44.87
44.22
42.42
39.29
34.8
29.03
22.13
14.3
5.84
-2.76
-10.74
-17.17
-21.07
-21.75
-18.99
-13.19
-5.34
3.28
11.33
17.8
22.19
24.55
25.33
25.18
24.63
23.98
23.26
22.27
20.69
18.26
14.85
10.63
6.07
1.92
-0.98
-1.98
-0.84
2.29
6.98
12.77
19.32
26.36
33.55
40.2
45.22
47.19
44.67
36.35
21.37
-0.52
-28.57
-60.85
-94.18
-124.61
-148.41
-163.1
-168.29
-165.69
-158.34
-149.32
-140.67
-132.91
-125.29
-116.54
-105.57
-91.86
-75.28
-55.85
-33.64
-9.02
16.92
42.22
64.2
80.21
88.28
87.76
79.24
64.33
45.13
23.97
3.24
-14.69
-27.75
-34.61
-34.95
-29.52
-19.73
-6.9
8.18
25.37
44.74
65.91
87.74
108.5
126.41
140.19
149.28
153.54
152.75
146.21
132.72
110.95
80.15
40.99
-4.06
-50.7
-93.48
-127.11
-147.87
-154.82
-149.96
-137.5
-122.13
-107.33
-94.32
-82.22
-69.21
-53.75
-35.39
-14.8
6.91
28.8
50.2
70.34
87.8
100.39
105.65
101.75
88.27
66.48
39.01
9.25
-19.26
-43.2
-59.91
-67.69
-66.32
-57.17
-42.85
-26.35
-9.94
5.38
19.86
34.1
48.23
61.4
72.13
79.17
82.24
82.28
80.99
80.0
79.99
80.49
80.16
77.63
72.25
64.38
55.19
46.09
38.16
31.9
27.43
24.73
23.84
24.73
27.0
29.9
32.58
34.65
36.45
38.72
41.88
45.38
47.71
47.13
42.65
34.68
24.67
14.34
4.85
-3.43
-10.4
-15.61
-18.0
-16.49
-10.86
-2.36
6.6
13.37
16.39
15.66
12.53
8.81
5.76
3.64
1.84
-0.59
-4.34
-9.66
-16.5
-24.72
-34.27
-45.08
-56.79
-68.64
-79.6
-88.85
-96.28
-102.45
-108.28
-114.3
-120.3
-125.46
-128.74
-129.5
-127.61
-123.34
-116.92
-108.42
-97.96
-86.05
-73.74
-62.45
-53.34
-46.87
-42.66
-39.9
-37.82
-36.15
-34.95
-34.36
-34.24
-34.1
-33.25
-31.05
-27.05
-21.01
-12.76
-2.21
10.6
25.41
41.61
58.32
74.6
89.64
102.9
114.14
123.29
130.41
135.7
139.64
142.98
146.68
151.49
157.64
164.42
170.24
172.96
170.45
161.21
144.85
122.25
95.39
66.94
39.74
16.27
-1.78
-13.68
-19.8
-21.36
-20.21
-18.4
-17.83
-19.93
-25.46
-34.46
-46.3
-59.94
-74.06
-87.35
-98.61
-106.84
-111.4
-111.98
-108.67
-101.91
-92.44
-81.13
-68.95
-56.79
-45.42
-35.35
-26.8
-19.73
-13.86
-8.93
-4.81
-1.76
-0.45
-1.83
-6.86
-16.12
-29.57
-46.5
-65.77
-86.21
-106.95
-127.63
-148.32
-169.31
-190.59
-211.5
-230.41
-244.81
-251.93
-249.68
-237.64
-217.43
-192.37
-166.3
-142.28
-121.68
-104.08
-87.96
-71.62
-53.95
-34.77
-14.72
4.97
22.77
37.08
46.59
50.97
51.39
50.63
52.36
59.59
73.27
91.47
109.95
123.75
129.17
125.12
113.18
96.52
78.47
61.21
45.55
31.24
17.67
4.21
-9.75
-24.93
-42.13
-61.81
-83.67
-106.25
-126.96
-142.52
-149.71
-146.21
-131.32
-106.32
-74.33
-39.62
-6.55
21.57
43.28
58.96
70.27
79.06
86.53
92.88
97.61
100.2
100.71
99.85
98.68
98.2
99.04
101.68
106.69
114.86
126.76
142.22
159.85
177.18
191.5
200.85
204.8
204.42
201.73
198.82
197.16
197.42
199.45
202.35
204.42
203.22
196.04
180.66
156.28
124.04
86.72
47.81
10.35
-23.73
-53.69
-79.3
-100.18
-115.37
-123.76
-124.6
-118.25
-106.26
-91.19
-75.97
-63.32
-55.33
-53.17
-57.06
-66.11
-78.53
-91.9
-103.68
-111.89
-115.57
-114.99
-111.43
-106.7
-102.34
-99.1
-96.62
-93.67
-88.79
-81.13
-71.04
-60.07
-50.43
-44.08
-42.07
-44.31
-50.07
-58.62
-69.79
-83.91
-101.37
-122.02
-144.91
-168.45
-190.82
-210.34
-225.61
-235.43
-238.82
-235.18
-224.74
-208.76
-189.38
-169.0
-149.44
-131.27
-113.8
-95.65
-75.57
-53.16
-28.98
-4.14
20.24
43.45
65.07
84.65
101.34
113.89
121.2
122.95
120.08
114.65
109.18
105.72
105.15
107.06
110.24
113.47
116.11
118.28
120.67
124.19
129.7
137.89
149.24
163.69
180.5
198.33
215.7
231.71
246.51
260.87
275.33
289.05
299.49
303.15
297.12
280.64
255.68
226.25
196.73
170.28
147.94
128.88
111.46
94.37
77.43
61.55
48.04
37.87
31.1
26.74
23.32
19.59
14.97
9.68
4.31
-0.7
-5.39
-10.35
-16.32
-23.75
-32.55
-42.11
-51.59
-60.3
-68.05
-75.16
-82.15
-89.17
-95.72
-100.56
-102.33
-100.22
-94.58
-86.97
-79.49
-73.87
-70.78
-69.75
-69.61
-69.31
-68.36
-67.01
-65.96
-65.96
-67.59
-71.17
-76.85
-84.65
-94.35
-105.5
-117.32
-128.84
-139.11
-147.33
-153.08
-156.37
-157.59
-157.46
-156.74
-156.01
-155.4
-154.53
-152.7
-149.15
-143.53
-136.05
-127.54
-119.12
-111.77
-105.96
-101.51
-97.69
-93.56
-88.28
-81.32
-72.52
-62.03
-50.22
-37.64
-24.99
-13.08
-2.74
5.4
11.02
14.24
15.61
16.01
16.39
17.6
20.23
24.5
30.33
37.26
44.5
51.02
55.85
58.27
58.19
56.23
53.66
52.07
53.04
57.76
66.82
80.07
96.61
115.0
133.51
150.55
165.09
176.86
186.39
194.74
203.14
212.57
223.5
235.7
248.24
259.76
268.91
274.84
277.68
278.65
279.87
283.83
292.75
307.9
329.17
354.88
381.88
406.02
422.94
428.94
421.81
401.35
369.38
329.43
285.8
242.55
202.48
166.5
133.65
101.85
68.97
33.86
-3.17
-40.72
-77.02
-110.93
-142.38
-172.36
-202.24
-232.91
-264.17
-294.49
-321.2
-341.11
-351.31
-349.99
-337.06
-314.4
-285.59
-255.08
-227.2
-205.09
-190.23
-182.4
-180.32
-182.47
-187.58
-194.81
-203.33
-211.84
-218.4
-220.78
-217.26
-207.4
-192.41
-174.9
-158.08
-144.82
-137.04
-135.44
-139.5
-147.61
-156.97
-163.93
-164.64
-156.26
-138.27
-113.05
-85.14
-59.26
-37.99
-20.46
-3.0
18.62
46.48
78.92
111.09
137.12
152.64
156.13
148.58
131.98
107.88
77.03
40.4
0.39
-38.31
-69.28
-85.96
-83.73
-61.36
-21.46
30.25
86.33
139.24
182.41
211.14
222.78
217.01
195.9
163.54
125.33
86.82
52.45
24.74
4.3
-9.53
-17.47
-19.74
-15.99
-6.03
9.37
28.06
46.96
62.85
73.32
77.09
73.95
64.44
49.57
30.8
10.02
-10.73
-29.95
-47.26
-63.54
-80.36
-98.79
-118.51
-137.62
-153.57
-164.52
-170.37
-172.71
-173.85
-175.5
-177.92
-180.16
-180.88
-179.25
-175.36
-169.79
-162.87
-154.26
-142.87
-127.47
-107.28
-82.22
-52.99
-20.58
13.73
48.25
80.54
107.62
126.73
136.54
138.01
134.24
129.23
126.06
125.52
125.95
124.18
117.04
102.51
80.01
50.17
14.33
-25.44
-66.15
-103.67
-133.25
-150.63
-153.46
-142.17
-120.04
-92.14
-63.74
-38.85
-19.43
-5.6
3.57
9.13
11.71
11.5
8.7
3.99
-1.45
-6.25
-9.48
-10.96
-11.22
-11.12
-11.25
-11.61
-11.65
-10.67
-8.32
-4.83
-0.99
2.2
3.92
3.86
2.22
-0.33
-3.06
-5.25
-6.51
-6.84
-6.62
-6.57
-7.54
-10.3
-15.23
-22.12
-30.09
-37.68
-43.29
-45.64
-44.21
-39.49
-32.76
-25.65
-19.58
-15.39
-13.33
-13.32
-15.23
-19.02
-24.63
-31.72
-39.58
-47.22
-53.56
-57.7
-59.06
-57.35
-52.52
-44.69
-34.05
-20.84
-5.36
12.0
30.59
49.38
66.93
81.58
91.87
97.08
97.41
93.95
88.15
81.32
74.17
66.73
58.68
49.69
39.71
28.92
17.51
5.42
-7.67
-22.04
-37.42
-52.73
-66.15
-75.73
-80.23
-79.88
-76.44
-72.69
-71.42
-74.31
-81.17
-89.7
-95.91
-95.25
-84.06
-60.92
-27.43
12.14
52.07
86.96
113.24
129.9
138.05
139.98
137.98
133.77
128.36
122.39
116.32
110.41
104.59
98.46
91.47
83.26
73.93
64.01
54.23
45.18
37.14
29.98
23.43
17.19
11.09
5.12
-0.7
-6.4
-12.14
-18.26
-25.27
-33.73
-43.94
-55.51
-67.17
-76.91
-82.56
-82.71
-77.43
-68.45
-58.66
-51.22
-48.51
-51.43
-59.17
-69.31
-78.48
-83.1
-80.41
-69.35
-50.94
-28.11
-4.78
15.28
29.4
36.4
36.4
30.28
19.19
4.36
-12.92
-31.3
-49.33
-65.53
-78.42
-86.58
-88.71
-83.97
-72.35
-54.83
-33.31
-10.16
12.33
32.51
49.53
63.18
73.56
80.81
84.97
86.05
84.16
79.79
73.85
67.71
63.0
61.27
63.55
69.91
79.33
89.7
98.37
102.93
102.06
96.35
88.17
81.02
78.34
82.26
92.85
108.11
124.75
139.25
148.78
151.72
147.78
137.69
122.9
105.26
86.63
68.69
52.66
39.25
28.67
20.76
15.08
10.94
7.45
3.72
-0.86
-6.24
-11.53
-15.17
-15.32
-10.4
0.28
16.44
36.63
58.44
78.76
94.33
102.41
101.42
91.38
73.89
51.62
27.41
3.48
-19.04
-39.87
-59.2
-77.04
-93.07
-106.68
-117.21
-124.19
-127.44
-127.2
-124.03
-118.79
-112.15
-104.11
-93.78
-79.59
-60.14
-35.22
-6.61
22.04
46.06
61.23
64.94
56.74
38.15
11.98
-18.37
-49.32
-77.45
-99.78
-114.22
-119.98
-117.86
-109.91
-99.03
-88.08
-79.23
-73.52
-70.83
-70.2
-70.43
-70.55
-70.16
-69.41
-68.78
-68.71
-69.36
-70.61
-72.29
-74.23
-76.4
-78.72
-80.98
-82.72
-83.41
-82.71
-80.7
-77.89
-75.11
-73.17
-72.67
-73.79
-76.23
-79.23
-81.66
-82.16
-79.49
-72.82
-62.08
-48.01
-32.01
-15.68
-0.5
12.59
23.31
31.91
38.9
44.72
49.51
53.14
55.39
56.23
55.95
55.12
54.38
54.21
54.83
56.17
58.09
60.38
62.9
65.42
67.58
68.89
68.89
67.26
64.01
59.41
53.95
48.12
42.32
36.7
31.21
25.65
19.87
13.84
7.83
2.29
-2.27
-5.43
-7.08
-7.44
-6.86
-5.62
-3.71
-0.71
4.09
11.44
21.69
34.56
48.96
63.17
75.19
83.37
86.71
85.09
79.05
69.4
56.82
41.66
24.11
4.51
-16.35
-37.22
-56.69
-73.63
-87.52
-98.54
-107.24
-114.13
-119.39
-122.74
-123.75
-122.08
-117.86
-111.6
-104.09
-96.06
-88.05
-80.32
-73.02
-66.36
-60.72
-56.58
-54.43
-54.48
-56.56
-60.09
-64.29
-68.42
-71.89
-74.4
-75.74
-75.58
-73.31
-68.04
-58.92
-45.61
-28.64
-9.46
9.96
27.73
42.59
54.24
63.09
69.96
75.51
80.04
83.51
85.72
86.61
86.41
85.58
84.66
84.06
83.99
84.36
84.91
85.37
85.55
85.43
85.02
84.3
83.13
81.2
78.14
73.66
67.66
60.27
51.82
42.78
33.64
24.86
16.79
9.65
3.52
-1.67
-6.17
-10.33
-14.56
-19.17
-24.19
-29.16
-33.07
-34.56
-32.26
-25.23
-13.34
2.69
21.49
41.47
61.27
79.89
96.77
111.52
123.83
133.44
140.25
144.4
146.4
146.94
146.77
146.44
146.26
146.33
146.64
147.21
148.2
149.74
151.95
154.74
157.82
160.81
163.33
165.19
166.37
166.96
167.03
166.57
165.51
163.72
161.12
157.6
153.0
146.98
139.14
129.14
116.84
102.49
86.69
70.27
54.18
39.4
26.84
17.15
10.52
6.46
3.8
0.96
-3.49
-10.41
-19.84
-31.15
-43.45
-55.93
-68.05
-79.37
-89.35
-97.37
-102.92
-105.91
-106.81
-106.47
-105.74
-105.09
-104.46
-103.49
-101.85
-99.46
-96.55
-93.41
-90.24
-87.04
-83.79
-80.49
-77.34
-74.55
-72.19
-70.13
-68.17
-66.26
-64.69
-64.03
-64.91
-67.62
-71.92
-77.05
-81.94
-85.56
-87.2
-86.57
-83.84
-79.56
-74.48
-69.42
-65.1
-61.94
-60.05
-59.32
-59.62
-61.02
-63.86
-68.57
-75.54
-84.8
-95.98
-108.36
-120.95
-132.58
-141.97
-147.83
-149.14
-145.35
-136.65
-123.93
-108.55
-91.99
-75.49
-60.01
-46.32
-35.12
-27.05
-22.54
-21.62
-23.76
-28.07
-33.62
-39.7
-45.95
-52.14
-57.85
-62.3
-64.35
-62.93
-57.44
-48.04
-35.64
-21.61
-7.31
6.22
18.32
28.68
37.08
43.3
47.22
48.87
48.62
47.19
45.43
44.16
43.98
45.16
47.65
51.18
55.32
59.58
63.5
66.75
69.12
70.59
71.18
70.83
69.34
66.41
61.79
55.58
48.25
40.59
33.35
26.97
21.36
16.11
10.88
5.77
1.64
-0.18
1.71
8.27
19.65
35.25
53.93
74.39
95.41
115.88
134.71
150.84
163.26
171.36
175.06
174.86
171.65
166.31
159.34
150.67
139.82
126.22
109.57
90.16
68.88
46.98
25.67
5.68
-12.99
-31.12
-49.96
-70.71
-94.04
-119.62
-146.01
-170.91
-191.58
-205.54
-211.09
-207.69
-196.03
-177.79
-155.21
-130.49
-105.33
-80.49
-55.85
-30.59
-3.63
25.89
58.29
93.19
129.48
165.57
199.64
229.82
254.42
272.09
281.81
283.07
275.83
260.52
237.93
209.15
175.54
138.72
100.54
62.81
26.99
-5.96
-35.45
-60.76
-80.49
-92.49
-94.41
-84.88
-64.49
-36.36
-5.54
22.33
42.47
52.11
50.82
40.14
22.8
1.97
-19.31
-38.64
-54.51
-66.51
-75.28
-82.13
-88.51
-95.41
-102.99
-110.64
-117.15
-121.29
-122.16
-119.46
-113.62
-105.64
-96.94
-89.12
-83.59
-81.19
-81.85
-84.5
-87.41
-88.74
-87.33
-83.07
-76.84
-70.0
-63.63
-58.06
-52.85
-47.09
-40.01
-31.25
-20.99
-9.77
1.73
12.65
21.96
28.45
30.84
28.22
20.29
7.5
-9.18
-28.58
-49.58
-71.09
-91.93
-110.74
-126.1
-136.93
-142.83
-144.18
-141.94
-137.21
-130.74
-122.56
-111.86
-97.29
-77.56
-52.22
-22.4
8.86
36.99
57.06
65.24
60.11
43.09
18.01
-10.11
-36.38
-57.05
-70.13
-75.48
-74.6
-70.1
-64.97
-61.66
-61.32
-63.47
-66.22
-67.04
-63.64
-54.67
-40.06
-20.87
1.01
23.28
43.5
59.38
69.05
71.41
66.39
55.19
40.18
24.5
11.44
3.64
2.42
7.39
16.66
27.45
37.01
43.44
46.04
45.31
42.46
38.98
36.39
36.14
39.58
47.92
61.87
81.2
104.34
128.37
149.61
164.66
171.35
169.38
160.14
146.05
129.69
113.04
97.33
83.07
70.47
59.49
49.99
41.62
33.9
26.56
19.67
13.75
9.51
7.45
7.45
8.86
10.67
11.95
12.15
10.99
8.4
4.25
-1.59
-9.14
-18.11
-27.83
-37.51
-46.49
-54.51
