-64.53
-44.53
-21.03
3.32
26.26
46.2
62.22
73.92
81.28
84.63
84.65
82.28
78.63
74.7
71.27
68.77
67.27
66.56
66.31
66.2
65.99
65.69
65.47
65.58
66.14
67.03
67.89
68.15
67.34
65.2
61.77
57.31
52.18
46.74
41.3
36.11
31.37
27.17
23.44
19.96
16.45
12.71
8.71
4.55
0.34
-3.97
-8.67
-14.22
-21.08
-29.51
-39.37
-50.06
-60.5
-69.18
-74.44
-74.82
-69.46
-58.51
-43.13
-25.32
-7.29
9.06
22.5
32.57
39.36
43.26
44.75
44.32
42.45
39.66
36.38
33.01
29.85
27.11
24.98
23.64
23.2
23.67
24.92
26.67
28.49
29.93
30.55
30.06
28.33
25.49
21.86
17.85
13.86
10.16
6.86
3.9
1.14
-1.61
-4.5
-7.64
-11.09
-14.83
-18.91
-23.4
-28.58
-34.83
-42.47
-51.42
-60.99
-69.8
-76.0
-77.83
-74.18
-64.99
-51.28
-34.87
-17.86
-2.08
11.2
21.37
28.4
32.65
34.65
34.97
34.09
32.4
30.21
27.78
25.37
23.22
21.49
20.24
19.47
19.14
19.23
19.75
20.63
21.72
22.69
23.1
22.48
20.5
17.13
12.64
7.53
2.39
-2.28
-6.24
-9.55
-12.52
-15.53
-18.9
-22.79
-27.06
-31.43
-35.55
-39.19
-42.34
-45.29
-48.53
-52.63
-58.03
-64.83
-72.65
-80.53
-87.08
-90.71
-89.98
-84.06
-73.03
-57.93
-40.5
-22.81
-6.65
6.77
16.94
23.95
28.19
30.14
30.28
29.06
26.99
24.59
22.38
20.78
19.98
20.03
20.81
22.14
23.86
25.82
27.87
29.89
31.71
33.14
33.93
33.83
32.62
30.26
26.93
23.08
19.25
15.9
13.24
11.12
9.11
6.63
3.28
-1.09
-6.28
-11.93
-17.67
-23.28
-28.75
-34.25
-40.07
-46.45
-53.65
-61.77
-70.82
-80.49
-90.14
-98.68
-104.76
-107.12
-104.95
-98.28
-88.03
-75.8
-63.47
-52.7
-44.55
-39.38
-36.91
-36.48
-37.29
-38.65
-39.99
-40.95
-41.33
-41.02
-40.02
-38.35
-36.03
-32.99
-29.05
-23.99
-17.54
-9.67
-0.62
8.99
18.26
26.21
32.02
35.32
36.16
35.09
32.91
30.4
28.16
26.4
24.96
23.41
21.26
18.2
14.18
9.44
4.39
-0.62
-5.41
-10.08
-14.94
-20.39
-26.79
-34.2
-42.3
-50.29
-57.02
-61.22
-61.77
-58.04
-50.06
-38.48
-24.46
-9.37
5.42
18.73
29.71
37.87
43.11
45.64
45.99
44.78
42.64
40.09
37.52
35.17
33.24
31.86
31.18
31.28
32.15
33.65
35.53
37.4
38.85
39.43
38.76
36.68
33.28
28.89
23.97
18.99
14.22
9.64
5.08
0.23
-5.06
-10.81
-16.8
-22.79
-28.53
-33.98
-39.25
-44.67
-50.67
-57.62
-65.66
-74.46
-83.09
-90.09
-93.73
-92.5
-85.55
-73.04
-56.1
-36.56
-16.39
2.67
19.37
32.99
43.23
50.09
53.8
54.91
54.17
52.42
50.45
48.81
47.75
47.27
47.32
47.79
48.69
49.98
51.62
53.47
55.25
56.62
57.21
56.67
54.77
51.49
47.06
41.91
36.54
31.35
26.49
21.85
17.16
12.21
6.96
1.6
-3.53
-8.15
-12.23
-16.08
-20.31
-25.63
-32.68
-41.72
-52.49
-64.05
-74.84
-82.88
-86.28
-83.69
-74.77
-60.35
-42.16
-22.41
-3.19
13.9
27.96
38.66
46.12
50.69
52.88
53.3
52.62
51.5
50.44
49.77
49.59
49.82
50.32
50.95
51.65
52.46
53.46
54.64
55.87
56.85
57.14
56.29
54.01
50.25
45.33
39.82
34.44
29.71
25.83
22.54
19.31
15.54
10.93
5.53
-0.25
-5.9
-11.11
-15.96
-20.9
-26.55
-33.46
-41.81
-51.24
-60.81
-69.09
-74.41
-75.24
-70.65
-60.53
-45.81
-28.19
-9.81
7.28
21.58
32.32
39.48
43.54
45.2
45.13
43.82
41.6
38.77
35.61
32.48
29.7
27.54
26.1
25.35
25.17
25.35
25.65
25.85
25.67
24.87
23.2
20.46
16.48
11.23
4.9
-2.06
-8.98
-15.14
-20.01
-23.49
-25.96
-28.12
-30.81
-34.64
-39.86
-46.27
-53.27
-59.92
-65.05
-67.39
-65.81
-59.59
-48.71
-34.02
-17.11
0.09
15.79
28.76
38.54
45.29
49.51
51.75
52.4
51.72
49.99
47.58
44.98
42.72
41.21
40.62
40.87
41.72
42.84
43.84
44.38
44.15
42.97
40.81
37.83
34.26
30.38
26.34
22.14
17.7
12.9
7.74
2.34
-3.09
-8.28
-13.02
-17.26
-21.08
-24.77
-28.76
-33.54
-39.47
-46.54
-54.17
-61.22
-66.15
-67.45
-64.14
-56.11
-44.2
-29.97
-15.25
-1.6
9.96
19.01
25.65
30.18
32.97
34.35
34.66
34.23
33.42
32.54
31.81
31.29
31.0
30.9
30.97
31.26
31.83
32.66
33.65
34.6
35.22
35.18
34.24
32.27
29.33
25.7
21.75
17.81
14.07
10.44
6.64
2.3
-2.79
-8.55
-14.6
-20.44
-25.64
-30.05
-33.88
-37.65
-41.96
-47.3
-53.78
-61.04
-68.14
-73.76
-76.45
-75.06
-69.04
-58.69
-45.09
-29.79
-14.46
-0.45
11.36
20.64
27.5
32.35
35.66
37.9
39.47
40.7
41.86
43.14
44.6
46.13
47.53
48.6
49.29
49.82
50.55
51.79
53.6
55.66
57.41
58.22
57.62
55.5
52.0
47.45
42.24
36.73
31.26
26.09
21.44
17.43
14.13
11.5
9.39
7.57
5.65
3.14
-0.55
-5.94
-13.27
-22.3
-32.21
-41.65
-48.99
-52.78
-52.14
-47.03
-38.19
-26.93
-14.7
-2.72
8.16
17.51
25.1
30.82
34.58
36.33
36.21
34.53
31.8
28.55
25.22
22.02
19.02
16.21
13.68
11.63
10.34
10.0
10.54
11.56
12.45
12.52
11.28
8.63
4.82
0.38
-4.04
-7.99
-11.26
-13.95
-16.3
-18.63
-21.14
-23.95
-27.02
-30.24
-33.49
-36.66
-39.83
-43.22
-47.21
-52.12
-58.03
-64.46
-70.43
-74.51
-75.35
-71.97
-64.18
-52.55
-38.25
-22.73
-7.34
6.87
19.26
29.57
37.76
43.93
48.21
50.81
52.07
52.46
52.51
52.74
53.46
54.68
56.2
57.7
58.95
59.87
60.58
61.23
61.91
62.46
62.52
61.53
58.93
54.34
47.71
39.45
30.25
20.92
12.08
3.97
-3.65
-11.27
-19.42
-28.4
-38.12
-48.2
-58.01
-66.96
-74.67
-81.1
-86.61
-91.88
-97.69
-104.58
-112.55
-120.86
-128.19
-132.99
-134.02
-130.82
-123.85
-114.38
-104.16
-94.96
-88.18
-84.73
-84.86
-88.15
-93.58
-99.68
-104.72
-107.12
-105.85
-100.69
-92.22
-81.56
-69.93
-58.36
-47.39
-37.16
-27.56
-18.5
-9.97
-2.08
5.0
11.1
16.12
19.96
22.53
23.78
23.68
22.21
19.35
15.08
9.41
2.43
-5.64
-14.45
-23.61
-32.75
-41.51
-49.65
-56.98
-63.42
-69.11
-74.38
-79.71
-85.44
-91.47
-97.01
-100.66
-100.83
-96.28
-86.63
-72.54
-55.55
-37.64
-20.67
-5.99
5.76
14.6
20.94
25.38
28.43
30.42
31.58
32.11
32.3
32.54
33.2
34.6
36.83
39.81
43.34
47.16
50.94
54.27
56.72
57.86
57.43
55.36
51.86
47.34
42.29
37.16
32.19
27.4
22.59
17.52
11.99
5.99
-0.32
-6.7
-13.02
-19.38
-26.16
-33.83
-42.67
-52.55
-62.74
-71.99
-78.74
-81.57
-79.48
-72.24
-60.44
-45.34
-28.59
-11.84
3.51
16.58
27.0
34.92
40.75
45.01
48.12
50.37
51.9
52.86
53.44
53.92
54.61
55.81
57.68
60.27
63.52
67.33
71.48
75.62
79.25
81.78
82.7
81.75
79.02
75.01
70.45
66.04
62.24
59.03
56.03
52.63
48.27
42.75
36.24
29.19
22.14
15.41
8.98
2.51
-4.51
-12.55
-21.83
-32.1
-42.58
-52.0
-58.75
-61.22
-58.21
-49.32
-35.19
-17.41
1.85
20.43
36.74
50.08
60.56
68.77
75.37
80.76
85.0
88.03
89.85
90.7
91.04
91.3
91.7
92.13
92.26
91.78
90.64
89.06
87.42
85.94
84.43
82.28
78.63
72.76
64.43
54.05
42.51
30.86
19.96
10.13
1.2
-7.32
-15.97
-25.04
-34.38
-43.52
-51.84
-58.79
-64.13
-67.99
-70.86
-73.45
-76.57
-80.93
-87.01
-94.91
-104.16
-113.71
-122.0
-127.33
-128.25
-124.12
-115.28
-103.02
-89.16
-75.51
-63.41
-53.53
-45.93
-40.43
-36.75
-34.68
-33.92
-34.05
-34.55
-34.83
-34.55
-33.63
-32.28
-30.81
-29.39
-27.97
-26.25
-23.83
-20.45
-16.07
-11.0
-5.81
-1.14
2.43
4.57
5.27
4.78
3.43
1.61
-0.37
-2.29
-4.01
-5.54
-7.01
-8.64
-10.67
-13.23
-16.28
-19.59
-22.87
-25.9
-28.7
-31.52
-34.87
-39.3
-45.23
-52.64
-60.82
-68.42
-73.55
-74.38
-69.64
-59.09
-43.61
-24.98
-5.38
13.28
29.66
43.17
53.8
61.85
67.66
71.52
73.64
74.26
73.74
72.52
71.06
69.73
68.72
68.05
67.7
67.63
67.83
68.31
68.95
69.5
69.58
68.77
66.76
63.46
59.0
53.71
48.02
42.31
36.86
31.71
26.81
21.99
17.17
12.35
7.63
3.09
-1.3
-5.8
-10.82
-16.78
-23.94
-32.11
-40.57
-48.12
-53.29
-54.76
-51.69
-44.01
-32.38
-18.08
-2.64
12.51
26.23
37.83
46.98
53.7
58.22
60.98
62.51
63.37
64.08
65.04
66.52
68.64
71.4
74.77
78.74
83.29
88.39
93.92
99.63
105.04
109.51
112.34
112.94
111.08
106.91
100.92
93.72
85.78
77.23
67.94
57.66
46.25
33.87
20.99
8.21
-3.96
-15.29
-25.86
-36.05
-46.4
-57.44
-69.58
-82.82
-96.57
-109.62
-120.2
-126.43
-126.85
-121.05
-109.76
-94.81
-78.5
-63.08
-50.2
-40.79
-35.11
-32.96
-33.86
-37.14
-42.0
-47.62
-53.26
-58.33
-62.44
-65.37
-66.97
-67.12
-65.73
-62.84
-58.58
-53.29
-47.48
-41.81
-36.96
-33.51
-31.74
-31.42
-31.73
-31.53
-29.64
-25.37
-18.72
-10.45
-1.76
6.24
12.94
18.35
22.99
27.48
32.19
36.95
41.24
44.38
45.77
45.06
42.2
37.33
30.77
23.12
15.31
8.53
4.11
3.23
6.7
14.8
27.28
43.33
61.48
79.46
94.31
102.81
102.33
91.93
73.12
49.72
26.78
8.92
-1.3
-4.0
-1.56
2.75
6.23
7.6
6.96
5.08
2.64
-0.28
-3.95
-8.58
-13.91
-19.25
-23.71
-26.72
-28.32
-29.17
-30.26
-32.49
-36.3
-41.31
-46.49
-50.43
-51.87
-50.11
-45.28
-38.2
-30.22
-23.1
-19.01
-20.38
-29.47
-47.55
-73.91
-105.27
-136.21
-160.61
-173.66
-173.39
-161.14
-140.67
-116.45
-92.08
-69.49
-49.2
-31.08
-15.13
-1.67
8.93
16.78
22.71
28.09
34.27
41.99
51.17
61.02
70.54
79.15
87.05
95.2
104.87
117.03
131.73
148.01
164.22
178.76
190.78
200.52
208.92
216.92
224.73
231.61
236.39
238.13
236.68
232.57
226.28
217.63
205.59
188.73
166.06
137.62
104.37
67.44
27.41
-15.73
-61.65
-108.46
-152.02
-186.62
-206.76
-209.39
-195.34
-169.22
-137.82
-107.89
-84.29
-69.2
-62.4
-62.26
-66.74
-73.91
-82.14
-90.11
-96.81
-101.56
-104.16
-104.86
-104.32
-103.37
-102.79
-103.01
-103.94
-104.97
-105.09
-103.27
-98.83
-91.77
-82.78
-73.09
-64.02
-56.6
-51.34
-48.28
-47.2
-47.93
-50.46
-54.89
-61.2
-69.05
-77.76
-86.39
-94.07
-100.18
-104.41
-106.84
-107.73
-107.39
-106.11
-103.97
-100.81
-96.21
-89.68
-80.87
-69.97
-57.83
-45.99
-36.38
-30.86
-30.66
-36.15
-46.73
-61.11
-77.67
-94.86
-111.48
-126.79
-140.61
-153.3
-165.72
-179.07
-194.53
-212.72
-233.23
-254.27
-272.89
-285.6
-289.33
-282.33
-264.57
-237.57
-203.71
-165.39
-124.67
-83.22
-42.78
-5.36
26.77
51.6
68.13
76.7
79.01
77.36
73.87
69.85
65.66
60.94
55.15
47.78
38.55
27.28
13.91
-1.33
-17.62
-33.35
-46.23
-53.66
-53.53
-44.8
-27.92
-4.79
21.8
48.85
73.79
94.93
111.51
123.55
131.58
136.36
138.77
139.77
140.33
141.37
143.62
147.42
152.7
158.95
165.49
171.69
177.09
181.49
184.76
186.75
187.19
185.74
182.08
176.04
167.68
157.3
145.44
132.73
119.83
107.17
94.94
82.89
70.56
57.48
43.47
28.88
14.49
1.2
-10.4
-20.3
-29.06
-37.46
-46.13
-55.18
-64.15
-72.22
-78.52
-82.35
-83.32
-81.34
-76.61
-69.48
-60.57
-50.65
-40.72
-31.88
-25.17
-21.38
-20.87
-23.36
-28.03
-33.75
-39.49
-44.73
-49.71
-55.31
-62.63
-72.27
-83.84
-95.62
-104.88
-108.37
-103.14
-87.27
-60.49
-24.57
16.67
57.97
93.61
118.82
131.15
131.0
121.37
106.68
91.29
78.32
69.13
63.58
60.73
59.38
58.31
56.35
52.33
45.29
34.98
22.19
8.95
-1.88
-7.36
-5.46
4.35
20.92
41.85
64.37
86.16
105.85
123.03
137.91
150.73
161.49
169.91
175.71
178.89
179.94
179.83
179.64
180.35
182.51
186.19
191.05
196.54
202.04
207.0
210.99
213.75
215.2
215.5
214.92
213.75
212.11
209.88
206.73
202.25
196.09
187.93
177.42
164.08
147.33
126.74
102.38
75.05
46.25
17.95
-7.81
-29.29
-45.22
-54.88
-58.15
-55.55
-48.34
-38.47
-28.26
-19.92
-15.06
-14.31
-17.34
-23.13
-30.43
-38.2
-45.88
-53.43
-61.04
-68.87
-76.69
-83.81
-89.22
-91.9
-91.27
-87.41
-81.1
-73.58
-66.14
-59.82
-55.19
-52.42
-51.37
-51.84
-53.6
-56.47
-60.24
-64.63
-69.32
-73.97
-78.28
-82.13
-85.58
-88.86
-92.32
-96.27
-100.89
-106.11
-111.56
-116.63
-120.5
-122.24
-120.95
-115.93
-106.84
-93.91
-77.88
-59.98
-41.62
-24.12
-8.52
4.61
15.01
22.68
27.69
30.16
30.29
28.43
25.12
21.05
16.95
13.33
10.41
8.07
5.91
3.45
0.28
-3.81
-8.82
-14.65
-21.19
-28.39
-36.29
-45.0
-54.64
-65.22
-76.57
-88.31
-99.85
-110.5
-119.68
-127.13
-133.02
-137.86
-142.3
-146.66
-150.56
-152.86
-151.87
-145.95
-134.06
-116.36
-94.24
-70.12
-46.85
-27.07
-12.69
-4.55
-2.42
-5.29
-11.72
-20.18
-29.38
-38.34
-46.34
-52.93
-57.79
-60.68
-61.46
-60.02
-56.3
-50.26
-42.05
-32.0
-20.76
-9.2
1.7
11.06
18.27
23.06
25.46
25.82
24.61
22.34
19.53
16.54
13.55
10.56
7.31
3.34
-1.81
-8.38
-16.16
-24.37
-31.73
-36.83
-38.44
-35.92
-29.28
-19.18
-6.65
7.12
20.94
33.76
44.78
53.51
59.84
63.95
66.19
66.92
66.37
64.69
61.99
58.47
54.44
50.3
46.39
42.87
39.73
36.82
33.98
31.16
28.43
25.86
23.49
21.2
18.81
16.19
13.46
10.97
9.25
8.77
9.66
11.63
14.03
16.04
16.96
16.4
14.37
11.27
7.79
4.79
3.21
3.91
7.51
14.23
23.8
35.5
48.34
61.25
73.34
83.98
92.79
99.52
104.04
106.36
106.76
105.8
104.24
102.79
101.95
101.89
102.52
103.68
105.3
107.21
109.05
109.92
108.47
103.14
92.68
76.67
55.77
31.55
6.02
-18.94
-42.07
-63.01
-82.15
-100.32
-118.47
-137.18
-156.4
-175.35
-192.45
-205.63
-212.74
-212.17
-203.31
-186.92
-164.88
-139.78
-114.24
-90.31
-69.26
-51.6
-37.32
-26.14
-17.6
-11.09
-5.86
-1.16
3.63
8.84
14.46
20.21
25.68
30.61
34.85
38.39
41.27
43.46
44.79
44.93
43.48
40.15
34.85
27.87
19.84
11.62
4.0
-2.52
-8.02
-13.09
-18.61
-25.48
-34.17
-44.54
-55.72
-66.24
-74.26
-78.02
-76.25
-68.57
-55.56
-38.66
-19.74
-0.64
17.26
33.09
46.37
56.76
63.88
67.34
66.97
63.08
56.52
48.63
40.84
34.3
29.62
26.85
25.57
25.27
25.51
25.98
26.53
26.91
26.75
25.6
23.02
18.81
13.17
6.61
-0.2
-6.63
-12.32
-17.21
-21.45
-25.28
-28.97
-32.8
-37.09
-42.21
-48.43
-55.6
-62.95
-69.05
-72.12
-70.58
-63.65
-51.65
-36.0
-18.67
-1.65
13.54
26.1
35.73
42.47
46.45
47.8
46.74
43.69
39.29
34.39
29.88
26.51
24.73
24.63
25.99
28.34
31.18
34.06
36.69
38.88
40.45
41.12
40.48
38.11
33.73
27.45
19.88
11.96
4.7
-1.2
-5.65
-9.17
-12.68
-17.13
-23.08
-30.56
-39.0
-47.31
-54.09
-57.86
-57.21
-51.16
-39.41
-22.53
-1.95
20.41
42.46
62.43
79.11
91.97
101.0
106.62
109.55
110.7
111.03
111.41
112.46
114.35
116.7
118.59
118.8
116.22
110.33
101.57
91.39
81.87
75.02
72.06
72.91
76.25
79.92
81.67
79.89
73.98
64.46
52.78
40.87
30.64
23.46
19.85
19.23
20.15
20.71
19.21
14.76
7.48
-1.56
-10.81
-18.81
-24.56
-27.61
-27.93
-25.71
-21.26
-15.03
-7.84
-0.79
4.92
8.3
8.95
7.04
3.08
-2.56
-9.96
-19.59
-31.83
-46.35
-61.75
-75.73
-85.87
-90.62
-90.04
-85.85
-80.78
-77.6
-78.21
-83.27
-92.24
-103.77
-116.06
-127.19
-135.35
-139.21
-138.3
-133.33
-126.17
-119.38
-115.56
-116.41
-122.09
-130.95
-139.85
-144.99
-143.07
-132.37
-113.41
-88.77
-62.25
-37.67
-17.68
-3.31
5.83
10.92
13.1
13.12
11.36
8.18
4.23
0.49
-2.0
-2.49
-0.87
2.36
6.29
9.97
12.78
14.49
15.25
15.32
14.86
13.79
11.9
9.02
5.19
0.76
-3.61
-7.19
-9.4
-10.07
-9.47
-8.22
-7.08
-6.7
-7.55
-9.73
-13.01
-16.7
-19.64
-20.3
-17.02
-8.53
5.57
24.48
46.2
68.02
87.25
101.97
111.48
116.33
117.88
117.62
116.62
115.21
113.18
110.16
106.11
101.46
96.99
93.39
90.92
89.23
87.58
85.15
81.29
75.61
67.8
57.58
44.73
29.3
11.86
-6.42
-24.03
-39.64
-52.55
-62.95
-71.79
-80.35
-89.6
-99.83
-110.61
-120.97
-129.93
-136.92
-141.83
-144.79
-145.72
-143.85
-137.68
-125.37
-105.48
-77.75
-43.47
-5.51
32.19
65.37
90.3
104.5
107.25
99.71
84.6
65.37
45.27
26.63
10.48
-3.15
-14.69
-24.38
-32.02
-37.03
-38.78
-36.79
-30.83
-20.9
-7.19
9.77
29.0
49.06
68.17
84.67
97.28
105.34
108.69
107.36
101.46
91.11
76.71
59.17
39.98
20.77
2.88
-13.08
-27.19
-39.82
-51.04
-60.24
-66.24
-67.72
-63.89
-54.71
-40.9
-23.65
-4.3
15.6
34.17
49.17
58.34
60.18
54.85
44.58
33.29
25.35
24.01
30.05
41.42
53.95
62.9
64.7
58.17
44.76
28.03
12.37
1.79
-1.16
4.13
16.28
32.45
49.25
63.75
74.38
81.21
85.72
89.97
95.69
103.69
113.75
124.98
136.35
147.07
156.61
164.54
170.62
174.95
178.1
181.0
184.29
187.8
190.29
189.91
185.24
176.12
163.85
150.52
137.8
126.1
114.49
101.57
86.51
69.77
52.91
37.7
25.2
15.25
6.61
-2.44
-13.53
-27.68
-45.11
-65.31
-87.27
-109.77
-131.72
-152.38
-171.46
-189.11
-205.7
-221.54
-236.6
-250.19
-260.76
-266.01
-263.38
-250.85
-227.82
-195.58
-157.19
-116.79
-78.63
-46.17
-21.69
-6.35
-0.38
-3.34
-14.26
-31.65
-53.61
-78.0
-102.66
-125.67
-145.33
-160.28
-169.56
-172.79
-170.38
-163.54
-154.2
-144.59
-136.76
-132.17
-131.47
-134.52
-140.61
-148.71
-157.74
-166.62
-174.25
-179.47
-181.09
-178.0
-169.25
-154.13
-132.15
-103.12
-67.5
-26.75
16.31
57.89
94.14
122.38
141.98
154.34
161.96
167.1
170.86
173.08
172.88
169.39
162.06
150.53
134.52
114.19
90.81
67.28
47.76
36.44
35.82
45.66
62.97
83.25
101.99
115.83
122.82
122.05
113.25
96.82
74.1
47.67
21.08
-2.11
-19.42
-30.25
-35.96
-39.08
-42.21
-47.2
-54.81
-64.95
-77.25
-91.44
-107.37
-124.79
-142.96
-160.52
-175.52
-185.78
-189.34
-185.02
-172.76
-153.78
-130.29
-105.0
-80.45
-58.59
-40.54
-26.73
-17.01
-10.67
-6.46
-2.68
2.44
10.2
20.88
33.63
46.85
58.84
68.35
74.8
78.17
78.72
76.83
73.04
68.1
63.01
58.76
56.09
55.34
56.4
58.94
62.61
67.16
72.41
78.18
84.24
90.26
95.94
101.1
105.69
109.83
113.69
117.44
121.11
124.57
127.65
130.18
132.21
134.06
136.33
139.7
144.63
150.96
157.83
163.61
166.31
164.05
155.64
140.75
120.03
94.81
66.76
37.63
8.95
-18.06
-42.62
-64.4
-83.41
-99.85
-113.79
-124.96
-132.65
-135.95
-134.3
-127.99
-118.48
-108.15
-99.58
-94.62
-93.84
-96.51
-101.15
-106.26
-110.86
-114.49
-116.99
-118.06
-117.32
-114.48
-109.81
-104.16
-98.78
-94.66
-92.12
-90.7
-89.48
-87.65
-84.94
-81.84
-79.35
-78.49
-79.82
-83.16
-87.69
-92.26
-95.75
-97.39
-96.77
-93.97
-89.46
-84.18
-79.4
-76.42
-76.09
-78.48
-82.83
-87.94
-92.77
-96.9
-100.54
-104.22
-108.15
-111.86
-114.29
-114.19
-110.66
-103.48
-93.19
-80.91
-68.04
-56.01
-46.0
-38.71
-34.16
-31.86
-30.95
-30.62
-30.45
-30.43
-30.79
-31.6
-32.47
-32.56
-30.88
-26.71
-19.8
-10.5
0.47
12.16
23.55
33.75
42.16
48.6
53.35
57.08
60.58
64.43
68.87
73.79
78.87
83.71
87.8
90.47
90.84
88.02
81.41
71.08
58.03
44.06
31.52
22.69
19.25
21.75
29.47
40.55
52.63
63.62
72.34
78.68
83.38
87.3
90.84
93.71
95.21
94.64
91.9
87.58
82.84
78.89
76.64
76.5
78.47
82.38
88.1
95.47
104.14
113.3
121.59
127.13
128.1
123.19
112.2
96.32
77.86
59.71
44.38
33.18
25.72
20.09
13.67
4.08
-9.8
-27.51
-47.24
-66.55
-83.11
-95.36
-102.92
-107.06
-110.8
-118.61
-135.09
-162.95
-200.99
-243.37
-280.77
-303.57
-305.36
-285.28
-248.02
-201.54
-153.94
-111.1
-75.9
-49.01
-30.14
-18.77
-14.1
-14.64
-18.07
-21.75
-23.47
-22.24
-18.42
-13.27
-8.17
-4.06
-1.04
1.43
4.24
8.2
13.6
20.05
26.51
31.59
34.04
33.18
29.15
22.8
15.35
7.82
0.69
-6.16
-13.31
-21.32
-30.55
-40.88
-51.85
-62.71
-72.56
-80.38
-85.1
-85.79
-81.91
-73.55
-61.47
-46.88
-30.99
-14.67
1.71
18.01
33.99
48.99
61.97
71.88
78.03
80.47
79.97
77.81
75.35
73.67
73.3
74.21
75.92
77.77
79.21
79.97
80.13
79.89
79.33
78.21
76.0
72.05
65.86
57.41
47.09
35.63
23.84
12.5
2.17
-6.88
-14.81
-22.27
-30.36
-40.23
-52.61
-67.22
-82.51
-95.82
-104.14
-104.99
-97.25
-81.54
-59.94
-35.36
-10.69
11.88
31.07
46.49
58.27
66.76
72.25
74.96
75.06
72.73
68.22
61.82
53.89
44.87
35.32
25.92
17.3
9.84
3.55
-1.81
-6.57
-10.75
-14.06
-15.85
-15.52
-12.83
-8.05
-1.89
4.81
11.42
17.58
23.18
28.08
31.89
34.01
33.75
30.63
24.68
16.56
7.48
-1.06
-7.58
-11.06
-11.16
-8.29
-3.47
1.97
6.86
10.6
13.36
16.11
20.19
26.86
36.8
49.86
65.06
81.02
96.38
110.3
122.56
133.49
143.6
153.24
162.43
170.96
178.63
185.53
192.03
198.61
205.47
212.06
216.97
217.93
212.3
197.75
173.06
138.8
97.53
53.43
11.29
-24.78
-52.44
-71.69
-84.55
-94.14
-103.51
-114.74
-128.53
-144.39
-161.14
-177.47
-192.39
-205.39
-216.39
