13.67
33.61
53.69
70.41
79.93
79.74
70.04
54.05
36.84
23.23
15.76
13.97
15.07
15.72
13.78
9.06
2.86
-3.17
-8.18
-12.49
-17.09
-22.84
-29.71
-36.61
-41.88
-44.2
-43.34
-40.44
-37.62
-37.2
-40.75
-48.59
-59.73
-72.37
-84.61
-94.83
-101.82
-104.52
-101.88
-92.91
-77.27
-55.8
-30.75
-5.41
16.8
33.28
42.91
46.06
44.23
39.46
33.91
29.56
27.98
30.22
36.61
46.78
59.71
74.03
88.18
100.66
110.36
116.94
121.13
124.7
129.84
138.25
150.22
164.26
177.73
187.83
192.67
191.7
185.35
174.12
157.99
136.3
108.39
74.43
35.81
-5.06
-45.68
-84.39
-120.76
-155.11
-187.65
-217.53
-242.7
-260.4
-268.17
-264.55
-249.5
-224.33
-191.55
-154.63
-117.73
-85.02
-59.69
-42.96
-33.62
-28.6
-24.38
-18.34
-9.58
1.31
13.21
25.24
37.09
48.7
59.75
69.61
77.63
83.78
88.98
94.87
102.92
113.66
125.97
137.45
145.21
147.08
142.44
132.42
119.33
105.61
92.83
81.18
69.57
56.24
39.67
19.19
-4.76
-30.72
-56.69
-80.53
-100.45
-115.31
-124.8
-129.28
-129.69
-127.08
-122.34
-115.99
-108.25
-99.18
-88.97
-78.06
-67.15
-56.89
-47.52
-38.62
-29.21
-18.09
-4.62
10.8
26.5
40.07
49.16
52.32
49.48
41.74
30.81
18.4
5.9
-5.63
-15.25
-21.99
-24.94
-23.45
-17.37
-7.11
6.37
21.72
37.32
51.53
62.98
70.85
75.01
75.96
74.36
70.54
64.32
55.1
42.55
27.17
10.46
-5.48
-18.91
-29.26
-37.44
-45.38
-55.05
-67.41
-81.89
-96.43
-108.11
-113.87
-111.35
-99.31
-77.93
-48.83
-14.76
21.03
55.59
86.94
114.34
137.95
158.09
174.67
186.91
193.73
194.35
188.86
178.29
164.3
148.58
132.41
116.47
101.0
85.99
71.31
56.6
41.27
24.45
5.19
-17.1
-42.42
-70.07
-98.83
-127.29
-154.31
-179.28
-201.97
-222.36
-240.11
-254.37
-263.78
-266.89
-262.79
-251.55
-234.44
-213.58
-191.36
-169.69
-149.57
-131.03
-113.35
-95.43
-76.21
-54.84
-30.82
-4.22
24.33
53.52
81.48
106.06
125.23
137.58
142.75
141.57
135.83
127.92
120.14
114.24
111.11
110.87
113.12
117.3
122.95
129.73
137.38
145.49
153.46
160.47
165.73
168.75
169.54
168.66
166.99
165.33
163.98
162.55
160.14
155.74
148.7
138.96
127.06
113.79
99.9
85.76
71.31
56.06
39.24
20.01
-2.11
-26.87
-52.92
-77.87
-98.62
-112.34
-117.15
-112.83
-100.76
-83.49
-64.02
-45.04
-28.48
-15.44
-6.27
-0.81
1.44
1.12
-0.96
-3.95
-7.01
-9.51
-11.09
-11.8
-12.01
-12.24
-12.93
-14.28
-16.29
-18.84
-21.92
-25.69
-30.48
-36.62
-44.21
-53.07
-62.7
-72.46
-81.6
-89.38
-95.0
-97.69
-96.8
-92.11
-84.13
-74.14
-63.95
-55.29
-49.16
-45.58
-43.73
-42.6
-41.66
-41.13
-41.83
-44.47
-49.02
-54.48
-59.14
-61.2
-59.44
-53.5
-43.82
-31.32
-17.03
-1.95
13.02
27.1
39.65
50.33
59.1
66.26
72.25
77.41
81.9
85.66
88.52
90.36
91.24
91.44
91.45
91.85
93.19
95.7
99.12
102.57
104.72
104.26
100.57
94.11
86.52
80.22
77.52
79.73
86.45
95.27
102.24
102.78
93.12
71.58
39.52
1.22
-37.26
-70.01
-93.25
-106.47
-112.27
-114.95
-118.41
-124.65
-133.21
-141.9
-148.07
-149.7
-145.87
-136.48
-121.68
-101.62
-76.69
-47.97
-17.54
11.73
36.97
56.2
68.78
75.27
76.96
75.31
71.62
67.24
63.69
62.76
66.09
74.54
87.59
103.15
117.9
128.21
131.24
125.76
112.48
93.71
72.51
51.81
33.7
19.19
8.36
0.73
-4.37
-7.67
-9.97
-12.13
-14.93
-18.98
-24.54
-31.46
-39.2
-47.07
-54.3
-60.2
-64.13
-65.5
-63.7
-58.26
-48.94
-35.94
-19.96
-2.13
16.25
34.11
50.79
66.07
79.86
91.88
101.41
107.35
108.71
105.12
97.26
86.76
75.73
66.12
59.19
55.41
54.6
56.22
59.56
63.91
68.54
72.8
76.25
78.64
79.91
79.85
78.02
73.65
65.9
54.18
38.54
19.81
-0.51
-20.56
-38.66
-53.74
-65.6
-74.88
-82.62
-89.77
-96.67
-102.96
-107.86
-110.64
-111.06
-109.39
-106.25
-102.25
-97.72
-92.75
-87.4
-81.95
-76.89
-72.83
-70.17
-69.02
-69.05
-69.74
-70.43
-70.58
-69.85
-68.1
-65.42
-62.05
-58.33
-54.58
-51.05
-47.88
-45.13
-42.8
-40.91
-39.5
-38.56
-37.99
-37.58
-37.09
-36.28
-35.02
-33.42
-31.68
-30.17
-29.16
-28.89
-29.33
-30.35
-31.67
-32.95
-33.86
-34.06
-33.24
-31.16
-27.75
-23.17
-17.85
-12.37
-7.25
-2.86
0.68
3.36
5.23
6.24
6.4
5.79
4.62
3.24
1.98
1.08
0.64
0.58
0.79
1.11
1.43
1.62
1.63
1.43
1.03
0.44
-0.34
-1.33
-2.48
-3.68
-4.81
-5.78
-6.67
-7.7
-9.14
-11.22
-13.99
-17.32
-20.99
-24.73
-28.18
-30.93
-32.43
-32.2
-29.94
-25.83
-20.54
-15.08
-10.47
-7.39
-6.03
-6.1
-7.02
-8.23
-9.29
-9.97
-10.21
-10.08
-9.64
-9.02
-8.3
-7.48
-6.54
-5.35
-3.78
-1.69
0.95
4.14
7.74
11.58
15.46
19.17
22.57
25.54
28.05
30.07
31.59
32.61
33.15
33.22
32.86
32.16
31.21
30.19
29.31
28.8
28.84
29.47
30.63
32.1
33.61
34.82
35.4
35.0
33.34
30.12
25.2
18.58
10.38
0.93
-9.34
-19.91
-30.14
-39.39
-47.09
-52.87
-56.71
-58.93
-60.07
-60.59
-60.74
-60.42
-59.36
-57.28
-54.06
-49.74
-44.42
-38.09
-30.7
-22.28
-13.08
-3.7
5.13
12.74
18.8
23.36
26.77
29.49
31.85
34.01
35.98
37.68
39.05
40.06
40.7
40.96
40.79
40.04
38.6
36.34
33.25
29.33
24.67
19.37
13.52
7.23
0.57
-6.36
-13.49
-20.67
-27.66
-34.15
-39.76
-44.15
-47.18
-48.87
-49.47
-49.26
-48.48
-47.25
-45.58
-43.42
-40.74
-37.54
-33.93
-30.07
-26.25
-22.74
-19.77
-17.39
-15.42
-13.51
-11.27
-8.36
-4.6
0.06
5.54
11.67
18.21
24.89
31.32
37.12
41.87
45.21
46.94
46.99
45.51
42.8
39.26
35.26
31.12
27.07
23.32
20.03
17.36
15.37
13.98
13.0
12.14
11.15
9.79
7.99
5.73
3.05
0.08
-3.06
-6.25
-9.35
-12.25
-14.83
-17.05
-18.96
-20.71
-22.52
-24.52
-26.62
-28.46
-29.48
-29.15
-27.17
-23.58
-18.74
-13.17
-7.39
-1.82
3.22
7.49
10.81
13.07
14.32
14.71
14.49
13.95
13.32
12.84
12.66
12.89
13.56
14.63
15.9
17.08
17.85
17.96
17.31
15.95
14.1
12.01
9.89
7.8
5.66
3.35
0.73
-2.18
-5.27
-8.32
-11.13
-13.57
-15.65
-17.47
-19.24
-21.19
-23.52
-26.32
-29.52
-32.87
-35.94
-38.17
-39.02
-38.02
-34.98
-30.03
-23.63
-16.5
-9.41
-2.97
2.47
6.87
10.37
13.15
15.3
16.83
17.67
17.86
17.5
16.83
16.05
15.36
14.82
14.46
14.33
14.49
15.0
15.88
17.0
18.15
19.01
19.35
19.02
18.03
16.59
14.93
13.24
11.66
10.17
8.69
7.08
5.27
3.24
1.08
-1.13
-3.28
-5.33
-7.27
-9.16
-11.12
-13.28
-15.84
-18.91
-22.51
-26.41
-30.17
-33.18
-34.85
-34.75
-32.65
-28.6
-22.91
-16.06
-8.65
-1.34
5.25
10.66
14.67
17.33
18.86
19.6
19.81
19.66
19.23
18.52
17.62
16.65
15.8
15.24
15.09
15.31
15.81
16.44
17.08
17.62
18.01
18.18
18.02
17.44
16.37
14.81
12.88
10.78
8.71
6.78
4.97
3.24
1.57
-0.02
-1.5
-2.87
-4.31
-6.12
-8.64
-12.12
-16.6
-21.86
-27.49
-32.95
-37.64
-40.97
-42.44
-41.73
-38.7
-33.54
-26.73
-18.87
-10.71
-2.88
4.04
9.69
13.86
16.52
17.73
17.67
16.64
15.03
13.26
11.74
10.76
10.42
10.66
11.3
12.15
13.05
13.88
14.51
14.8
14.58
13.74
12.28
10.33
8.15
5.99
3.98
2.14
0.33
-1.59
-3.69
-5.89
-8.01
-9.81
-11.21
-12.2
-12.95
-13.72
-14.73
-16.26
-18.42
-21.2
-24.31
-27.23
-29.29
-29.79
-28.26
-24.6
-19.09
-12.35
-5.12
1.87
8.08
13.13
16.89
19.36
20.64
20.93
20.42
19.27
17.7
15.93
14.23
12.87
12.08
11.95
12.45
13.46
14.8
16.29
17.77
19.13
20.25
21.06
21.49
21.47
20.94
19.87
18.3
16.36
14.21
12.0
9.8
7.57
5.17
2.48
-0.5
-3.6
-6.58
-9.16
-11.24
-12.9
-14.46
-16.31
-18.78
-22.01
-25.79
-29.6
-32.7
-34.33
-33.89
-31.15
-26.23
-19.63
-12.05
-4.26
3.08
9.47
14.61
18.39
20.81
21.98
22.1
21.42
20.23
18.76
17.19
15.58
13.97
12.42
11.01
9.85
9.01
8.48
8.21
8.12
8.16
8.3
8.45
8.48
8.17
7.38
6.08
4.45
2.78
1.33
0.26
-0.49
-1.11
-1.85
-2.84
-4.09
-5.5
-6.87
-8.03
-8.84
-9.29
-9.51
-9.73
-10.25
-11.35
-13.14
-15.52
-18.14
-20.46
-21.91
-21.98
-20.45
-17.36
-13.07
-8.11
-3.06
1.59
5.52
8.56
10.72
12.04
12.56
12.34
11.42
9.96
8.18
6.34
4.67
3.3
2.29
1.64
1.38
1.52
2.09
3.02
4.18
5.4
6.48
7.32
7.88
8.19
8.29
8.18
7.83
7.26
6.49
5.55
4.47
3.26
1.95
0.57
-0.76
-1.92
-2.82
-3.43
-3.86
-4.31
-5.03
-6.25
-8.08
-10.44
-13.0
-15.24
-16.55
-16.38
-14.45
-10.85
-6.06
-0.78
4.27
8.53
11.7
13.77
14.81
14.97
14.34
13.07
11.34
9.44
7.68
6.27
5.31
4.71
4.36
4.12
3.99
4.0
4.17
4.42
4.57
4.45
3.9
2.98
1.83
0.66
-0.33
-1.05
-1.48
-1.68
-1.74
-1.83
-2.16
-2.93
-4.23
-6.01
-8.02
-9.99
-11.69
-13.08
-14.36
-15.79
-17.56
-19.66
-21.88
-23.8
-24.98
-25.01
-23.63
-20.76
-16.52
-11.22
-5.34
0.54
5.87
10.25
13.44
15.42
16.38
16.51
16.1
15.28
14.21
12.94
11.57
10.16
8.89
7.87
7.18
6.85
6.77
6.87
7.05
7.24
7.42
7.53
7.52
7.29
6.81
6.08
5.2
4.28
3.39
2.55
1.69
0.76
-0.34
-1.61
-3.01
-4.49
-5.96
-7.41
-8.77
-10.05
-11.29
-12.57
-14.0
-15.7
-17.72
-19.94
-22.04
-23.53
-23.83
-22.51
-19.36
-14.57
-8.64
-2.27
3.93
9.42
13.98
17.52
20.08
21.69
22.4
22.3
21.56
20.41
19.11
17.83
16.67
15.62
14.68
13.88
13.38
13.35
13.92
15.06
16.63
18.34
19.92
21.18
22.0
22.32
22.05
21.04
19.12
16.32
12.85
9.09
5.44
2.11
-1.01
-4.25
-7.94
-12.22
-16.93
-21.66
-26.02
-29.74
-32.76
-35.15
-36.95
-38.15
-38.76
-38.89
-38.75
-38.5
-38.04
-36.96
-34.58
-30.32
-24.07
-16.31
-8.03
-0.36
5.91
10.53
13.78
16.17
18.17
19.98
21.56
22.78
23.61
24.22
24.92
25.98
27.45
29.03
30.14
30.19
28.8
26.06
22.45
18.66
15.28
12.58
10.51
8.81
7.28
5.82
4.48
3.3
2.29
1.38
0.59
0.01
-0.15
0.35
1.62
3.51
5.65
7.46
8.39
8.03
6.37
3.71
0.67
-2.04
-3.83
-4.46
-4.06
-3.12
-2.21
-1.79
-1.94
-2.36
-2.55
-2.08
-0.9
0.68
2.05
2.65
2.19
0.68
-1.64
-4.54
-7.87
-11.47
-15.07
-18.15
-20.0
-20.03
-18.02
-14.31
-9.7
-5.17
-1.58
0.64
1.48
1.28
0.61
-0.01
-0.24
-0.0
0.46
0.77
0.49
-0.63
-2.52
-4.91
-7.35
-9.45
-11.09
-12.4
-13.74
-15.49
-17.8
-20.48
-23.01
-24.68
-24.86
-23.26
-20.02
-15.56
-10.57
-5.73
-1.65
1.22
2.68
2.86
2.14
1.07
0.14
-0.38
-0.53
-0.58
-0.83
-1.34
-2.0
-2.56
-2.77
-2.53
-1.88
-0.93
0.31
1.81
3.52
5.3
6.85
7.86
8.1
7.56
6.5
5.29
4.26
3.61
3.28
3.05
2.6
1.71
0.26
-1.68
-3.94
-6.3
-8.55
-10.58
-12.4
-14.1
-15.88
-17.94
-20.45
-23.42
-26.67
-29.76
-32.12
-33.12
-32.32
-29.57
-25.13
-19.56
-13.5
-7.57
-2.17
2.47
6.35
9.48
11.97
13.86
15.19
15.98
16.23
16.03
15.48
14.79
14.2
13.95
14.14
14.77
15.69
16.71
17.66
18.39
18.79
18.79
18.36
17.5
16.35
15.03
13.7
12.44
11.19
9.86
8.3
6.41
4.17
1.62
-1.11
-3.83
-6.34
-8.48
-10.16
-11.49
-12.76
-14.32
-16.52
-19.5
-23.12
-26.96
-30.42
-32.84
-33.73
-32.78
-29.94
-25.43
-19.64
-13.1
-6.38
-0.01
5.55
10.03
13.29
15.34
16.29
16.31
15.62
14.44
13.08
11.79
10.86
10.47
10.7
11.44
12.44
13.45
14.25
14.73
14.91
14.83
14.5
13.92
13.01
11.72
10.09
8.19
6.15
4.01
1.84
-0.38
-2.67
-5.02
-7.37
-9.66
-11.79
-13.71
-15.46
-17.24
-19.37
-22.19
-25.95
-30.57
-35.56
-40.16
-43.41
-44.47
-42.83
-38.37
-31.41
-22.51
-12.47
-2.14
7.58
15.99
22.6
27.27
30.14
31.58
31.98
31.72
31.04
30.17
29.34
28.75
28.53
28.68
29.03
29.34
29.42
29.24
28.83
28.31
27.71
26.93
25.77
24.04
21.62
18.6
15.22
11.8
8.61
5.78
3.26
0.87
-1.58
-4.13
-6.73
-9.22
-11.5
-13.57
-15.64
-17.95
-20.74
-24.16
-28.24
-32.89
-37.87
-42.72
-46.77
-49.12
-48.9
-45.45
-38.68
-29.15
-17.95
-6.42
4.25
13.27
20.33
25.52
29.06
31.27
32.4
32.64
32.2
31.27
30.01
28.57
27.06
25.6
24.33
23.36
22.78
22.58
22.68
22.96
23.24
23.34
23.05
22.2
20.67
18.51
15.85
12.94
10.02
7.24
4.6
2.0
-0.7
-3.58
-6.6
-9.6
-12.34
-14.61
-16.31
-17.55
-18.61
-19.88
-21.75
-24.49
-28.08
-32.26
-36.45
-39.87
-41.61
-40.93
-37.4
-31.12
-22.66
-13.06
-3.43
5.21
12.2
17.3
20.63
22.53
23.38
23.48
23.06
22.23
21.08
19.74
18.44
17.37
16.73
16.58
16.86
17.4
18.07
18.75
19.34
19.7
19.66
19.06
17.83
16.11
14.18
12.42
11.11
10.26
9.66
8.92
7.74
6.06
4.13
2.4
1.25
0.84
0.96
1.14
0.82
-0.34
-2.36
-4.8
-6.83
-7.39
-5.43
-0.14
8.66
20.29
33.11
44.89
53.44
57.31
56.28
51.38
44.33
36.81
29.96
24.13
19.15
14.76
10.92
7.76
5.42
3.79
2.5
1.06
-0.9
-3.45
-6.42
-9.51
-12.49
-15.33
-18.14
-21.07
-24.15
-27.31
-30.3
-32.84
-34.6
-35.35
-34.91
-33.21
-30.28
-26.34
-21.78
-17.14
-12.97
-9.75
-7.72
-6.82
-6.84
-7.5
-8.69
-10.43
-12.89
-16.18
-20.17
-24.46
-28.44
-31.46
-33.11
-33.28
-32.16
-30.03
-27.08
-23.29
-18.5
-12.63
-5.84
1.36
8.2
13.87
17.82
19.89
20.37
19.79
18.77
17.72
16.9
16.34
16.01
15.85
15.81
15.84
15.84
15.7
15.3
14.59
13.7
12.96
12.89
13.99
16.46
20.0
23.72
26.41
26.9
24.54
19.37
12.03
3.38
-5.77
-14.86
-23.52
-31.34
-37.82
-42.51
-45.21
-46.16
-46.02
-45.58
-45.36
-45.44
-45.39
-44.57
-42.43
-38.8
-33.9
-28.24
-22.34
-16.61
-11.27
-6.33
-1.8
2.34
6.07
9.33
12.06
14.23
15.83
16.91
17.58
18.0
18.34
18.75
19.35
20.12
21.03
21.97
22.83
23.46
23.66
23.18
21.82
19.5
16.32
12.59
8.68
4.94
1.53
-1.55
-4.33
-6.89
-9.19
-11.14
-12.71
-13.91
-14.89
-15.83
-16.97
-18.5
-20.54
-22.99
-25.59
-27.87
-29.29
-29.42
-27.99
-24.96
-20.52
-14.96
-8.71
-2.3
3.7
8.76
12.52
14.91
16.12
16.44
16.17
15.51
14.55
13.41
12.27
11.33
10.78
10.67
10.93
11.43
12.02
12.63
13.19
13.59
13.7
13.36
12.49
11.1
9.31
7.33
5.34
3.48
1.84
0.39
-0.93
-2.23
-3.63
-5.19
-6.86
-8.5
-9.93
-10.98
-11.65
-12.07
-12.54
-13.38
-14.8
-16.75
-18.9
-20.68
-21.45
-20.73
-18.34
-14.45
-9.44
-3.76
2.15
7.92
13.16
17.52
20.71
22.62
23.38
23.35
22.94
22.47
21.96
21.3
20.34
19.03
17.5
15.96
14.5
13.09
11.52
9.57
7.1
4.15
0.95
-2.24
-5.2
-7.84
-10.13
-12.12
-13.8
-15.16
-16.19
-16.92
-17.4
-17.75
-18.07
-18.44
-18.89
-19.37
-19.8
-20.02
-19.93
-19.47
-18.78
-18.09
-17.72
-17.92
-18.79
-20.21
-21.81
-23.1
-23.61
-22.94
-20.91
-17.56
-13.13
-7.99
-2.51
2.93
8.09
12.72
16.64
19.67
21.69
22.7
22.9
22.6
22.22
22.03
22.14
22.49
22.97
23.44
23.94
24.56
25.43
26.58
27.92
29.2
30.18
30.63
30.42
29.59
28.26
26.62
24.88
23.2
21.69
20.33
18.99
17.35
15.02
11.58
6.76
0.6
-6.49
-13.85
-20.76
-26.76
-31.73
-35.9
-39.58
-42.93
-45.75
-47.57
-47.82
-46.17
-42.67
-37.73
-31.95
-25.95
-20.11
-14.68
-9.77
-5.48
-1.95
0.74
2.55
3.56
3.97
4.01
3.92
3.85
3.87
3.99
4.2
4.49
4.93
5.56
6.42
7.45
8.5
9.37
9.85
9.83
9.31
8.39
7.22
5.92
4.56
3.18
1.81
0.52
-0.63
-1.65
-2.58
-3.54
-4.64
-5.89
-7.17
-8.32
-9.16
-9.71
-10.14
-10.74
-11.85
-13.65
-16.11
-18.89
-21.53
-23.45
-24.19
-23.45
-21.21
-17.66
-13.14
-8.05
-2.79
2.3
6.94
10.93
14.11
16.43
17.89
18.52
18.45
17.81
16.78
15.54
14.27
13.11
12.17
11.55
11.39
11.8
12.8
14.23
15.84
17.31
18.4
19.05
19.35
19.43
19.34
19.02
18.38
17.31
15.79
13.87
11.61
9.07
6.36
3.64
1.14
-0.88
-2.27
-3.12
-3.77
-4.74
-6.53
-9.46
-13.56
-18.49
-23.72
-28.55
-32.34
-34.55
-34.87
-33.19
-29.61
-24.38
-17.91
-10.69
-3.23
3.97
10.48
15.95
20.15
23.0
24.55
25.01
24.68
23.86
22.75
21.48
20.07
18.5
16.71
14.65
12.28
9.6
6.62
3.47
0.27
-2.75
-5.38
-7.38
-8.61
-9.02
-8.72
-7.97
-7.15
-6.6
-6.56
-7.03
-7.79
-8.53
-8.96
-8.97
-8.6
-8.0
-7.39
-6.96
-6.92
-7.41
-8.47
-10.01
-11.67
-12.92
-13.16
-11.96
-9.24
-5.3
-0.73
3.82
7.9
11.28
13.94
15.97
17.46
18.42
18.82
18.66
17.98
16.92
15.68
14.52
13.61
13.1
13.03
13.36
13.9
14.36
14.32
13.34
11.14
7.68
3.29
-1.45
-5.84
-9.34
-11.67
-12.87
-13.23
-13.11
-12.83
-12.59
-12.47
-12.52
-12.74
-13.1
-13.54
-13.96
-14.27
-14.43
-14.47
-14.56
-14.87
-15.57
-16.78
-18.47
-20.53
-22.69
-24.59
-25.78
-25.85
-24.49
-21.62
-17.44
-12.34
-6.81
-1.28
3.9
8.54
12.5
15.63
17.77
18.83
18.87
18.07
16.85
15.61
14.71
14.33
14.47
14.98
15.65
16.37
17.07
17.79
18.48
19.04
19.35
19.23
18.64
17.71
16.71
15.95
15.68
15.83
16.03
15.69
14.21
11.23
6.79
1.34
-4.48
-10.01
-14.84
-18.89
-22.31
-25.32
-28.1
-30.72
-33.12
-35.26
-37.16
-38.86
-40.4
-41.72
-42.62
-42.76
-41.83
-39.72
-36.59
-32.84
-28.94
-25.29
-22.0
-18.91
-15.72
-12.11
-7.96
-3.38
1.35
5.96
10.28
14.34
18.22
21.98
25.53
28.71
31.33
33.42
35.17
36.7
37.9
38.21
36.81
33.09
27.1
19.6
11.88
5.07
-0.4
-4.81
-8.87
-13.04
-17.14
-20.31
-21.54
-20.15
-16.33
-11.1
-5.98
-2.45
-1.53
-3.51
-7.83
-13.27
-18.18
-20.96
-20.52
-16.64
-10.07
-2.21
5.4
11.59
15.8
18.13
18.99
18.88
18.28
17.59
17.23
17.62
18.94
21.03
23.33
25.04
25.49
24.35
21.84
18.54
15.23
12.55
10.86
10.2
10.35
10.93
11.63
12.22
12.61
12.79
12.73
12.35
11.5
10.06
8.07
5.76
3.48
1.51
-0.12
-1.62
-3.34
-5.53
-8.15
-10.9
-13.45
-15.56
-17.25
-18.62
-19.58
-19.74
-18.46
-15.16
-9.69
-2.57
5.13
12.16
17.57
21.01
22.64
22.96
22.42
21.23
19.31
16.56
12.97
8.71
4.1
-0.56
-5.02
-9.1
-12.59
-15.23
-16.71
-16.79
-15.41
-12.74
-9.1
-4.9
-0.56
3.43
6.49
8.03
7.62
5.22
1.31
-3.27
-7.6
-11.07
-13.59
-15.49
-17.27
-19.29
-21.65
-24.16
-26.59
-28.66
-30.18
-31.02
-31.1
-30.47
-29.32
-27.91
-26.43
-24.81
-22.7
-19.54
