-41.59
-35.55
-26.35
-15.56
-4.12
7.28
17.76
26.01
30.5
30.28
25.65
18.51
11.92
8.98
11.69
20.17
32.87
47.52
62.32
76.75
91.61
108.39
128.17
150.77
174.03
194.1
206.13
205.7
190.36
160.71
120.69
76.7
35.86
3.94
-16.12
-24.57
-23.89
-17.29
-7.38
4.34
17.03
29.63
40.31
46.72
46.94
40.62
29.48
16.72
5.55
-2.25
-6.98
-10.57
-15.19
-21.95
-30.34
-38.66
-45.19
-49.37
-52.44
-57.06
-66.37
-82.63
-106.2
-135.14
-165.57
-192.75
-212.55
-222.62
-222.86
-214.94
-201.23
-183.7
-163.48
-141.09
-117.18
-93.03
-70.46
-51.12
-35.71
-23.76
-13.89
-4.65
4.79
14.45
23.82
32.4
40.22
47.88
56.29
66.24
77.96
90.85
103.54
114.3
121.64
124.99
125.04
123.59
122.64
123.41
125.44
126.66
124.14
115.5
99.99
78.99
55.39
32.31
11.89
-5.41
-20.58
-35.26
-50.66
-67.07
-83.85
-99.81
-113.7
-124.4
-130.94
-132.37
-128.03
-117.79
-102.49
-83.92
-64.43
-46.1
-30.09
-16.43
-4.47
6.35
15.9
23.34
27.68
28.59
26.89
24.25
22.42
22.34
23.68
25.23
25.74
24.66
22.52
20.41
19.35
19.59
20.57
21.25
20.75
18.74
15.47
11.52
7.37
3.25
-0.91
-5.33
-10.19
-15.65
-21.95
-29.47
-38.72
-50.1
-63.56
-78.42
-93.22
-106.02
-114.77
-117.89
-114.63
-105.32
-91.25
-74.37
-56.84
-40.57
-26.9
-16.41
-9.08
-4.47
-2.03
-1.25
-1.77
-3.3
-5.54
-8.23
-11.01
-13.51
-15.39
-16.31
-16.05
-14.6
-12.17
-9.24
-6.41
-4.26
-3.19
-3.31
-4.5
-6.49
-9.01
-11.87
-15.04
-18.63
-22.78
-27.59
-33.05
-38.94
-44.96
-50.91
-56.83
-63.07
-70.31
-79.22
-90.16
-102.85
-116.2
-128.35
-137.01
-139.88
-135.18
-122.17
-101.39
-74.61
-44.54
-14.18
13.78
37.41
55.73
68.54
76.15
79.11
78.08
73.87
67.47
60.11
52.94
46.91
42.53
39.88
38.84
39.23
41.01
44.06
48.08
52.38
55.93
57.63
56.72
53.11
47.37
40.56
33.77
27.7
22.46
17.62
12.45
6.31
-1.15
-9.84
-19.35
-29.11
-38.53
-47.25
-55.18
-62.61
-70.14
-78.58
-88.64
-100.44
-113.19
-124.99
-133.2
-135.06
-128.66
-113.55
-90.94
-63.44
-34.15
-5.96
19.1
40.0
56.52
68.92
77.67
83.28
86.38
87.71
88.08
88.24
88.71
89.66
91.03
92.66
94.44
96.43
98.73
101.37
104.16
106.65
108.21
108.29
106.54
102.89
97.59
91.04
83.7
76.01
68.37
61.04
54.13
47.59
41.16
34.54
27.46
19.83
11.81
3.7
-4.1
-11.31
-17.9
-24.2
-30.81
-38.47
-47.73
-58.7
-70.8
-82.75
-92.78
-98.97
-99.69
-93.99
-81.84
-64.14
-42.58
-19.28
3.64
24.44
41.97
55.75
65.78
72.38
75.98
77.04
76.07
73.66
70.49
67.25
64.48
62.51
61.37
60.91
60.93
61.3
62.02
63.16
64.67
66.24
67.33
67.36
65.94
63.12
59.28
54.99
50.64
46.36
41.97
37.23
32.02
26.41
20.63
14.88
9.18
3.36
-2.82
-9.64
-17.32
-25.95
-35.47
-45.42
-54.85
-62.29
-65.98
-64.34
-56.48
-42.58
-23.9
-2.45
19.53
40.15
58.16
73.0
84.64
93.37
99.58
103.65
106.03
107.2
107.71
108.11
108.86
110.27
112.47
115.48
119.3
123.93
129.3
135.21
141.23
146.66
150.65
152.46
151.54
147.75
141.35
132.97
123.44
113.63
104.3
95.83
88.23
81.18
74.2
66.89
59.16
51.18
43.23
35.54
28.03
20.37
12.13
2.99
-7.03
-17.52
-27.69
-36.53
-42.93
-45.96
-45.04
-40.24
-32.33
-22.73
-13.11
-4.88
1.12
4.78
6.41
6.45
5.15
2.49
-1.49
-6.55
-12.14
-17.53
-22.12
-25.63
-28.12
-29.79
-30.75
-30.9
-30.04
-28.01
-24.84
-20.85
-16.51
-12.37
-8.88
-6.35
-4.83
-4.07
-3.52
-2.48
-0.26
3.44
8.34
13.43
17.19
17.97
14.55
6.56
-5.44
-20.16
-36.08
-51.88
-66.77
-80.48
-93.03
-104.42
-114.35
-122.16
-126.88
-127.48
-123.33
-114.51
-102.01
-87.55
-73.14
-60.35
-49.89
-41.48
-34.27
-27.37
-20.36
-13.49
-7.48
-3.13
-1.02
-1.25
-3.47
-6.95
-10.83
-14.28
-16.73
-17.94
-17.99
-17.15
-15.64
-13.57
-11.01
-8.08
-5.07
-2.5
-0.9
-0.66
-1.8
-3.97
-6.56
-8.95
-10.74
-11.84
-12.52
-13.21
-14.25
-15.78
-17.69
-19.74
-21.79
-23.89
-26.25
-29.02
-32.09
-34.87
-36.38
-35.54
-31.54
-24.22
-14.2
-2.84
8.13
17.11
23.02
25.53
25.02
22.32
18.39
13.95
9.38
4.79
0.17
-4.35
-8.47
-11.67
-13.44
-13.54
-12.18
-10.02
-8.01
-7.12
-8.01
-10.84
-15.2
-20.27
-24.94
-28.14
-29.0
-27.31
-23.71
-19.86
-18.11
-20.88
-29.77
-44.9
-64.89
-87.39
-109.97
-130.96
-149.67
-166.06
-180.19
-191.65
-199.54
-202.68
-200.2
-191.75
-177.61
-158.48
-135.28
-108.99
-80.55
-50.83
-20.75
8.79
36.8
62.25
84.21
102.11
115.87
125.91
133.02
137.96
141.18
142.65
142.11
139.35
134.62
128.8
123.25
119.26
117.5
117.61
118.26
117.67
114.36
107.77
98.32
87.12
75.26
63.38
51.41
38.86
25.14
9.93
-6.73
-24.52
-43.02
-61.99
-81.33
-101.2
-121.87
-143.54
-165.97
-188.16
-208.0
-222.41
-227.9
-221.56
-202.22
-171.2
-132.32
-91.05
-52.88
-21.7
1.34
17.82
30.91
43.76
58.07
73.49
88.17
99.81
106.8
108.83
106.64
101.37
93.84
84.36
72.98
59.97
46.21
32.97
21.33
11.63
3.27
-4.87
-13.66
-23.05
-31.92
-38.57
-41.55
-40.32
-35.56
-28.77
-21.65
-15.65
-11.62
-10.05
-11.24
-15.47
-23.07
-34.16
-48.53
-65.27
-82.61
-97.98
-108.32
-110.89
-104.04
-87.84
-63.99
-35.34
-4.98
24.43
51.05
73.68
91.59
104.42
112.19
115.56
115.84
114.71
113.79
114.2
116.35
119.96
124.32
128.58
131.97
134.14
135.12
135.38
135.5
135.83
136.11
135.44
132.5
126.19
116.16
103.02
88.02
72.37
56.46
39.68
20.75
-1.35
-26.56
-53.63
-80.64
-106.1
-129.74
-152.53
-175.95
-200.76
-226.23
-249.94
-268.48
-278.33
-276.83
-262.79
-236.96
-202.09
-162.65
-123.94
-90.76
-66.07
-50.28
-41.6
-37.31
-35.05
-33.69
-33.18
-33.72
-34.99
-35.97
-35.37
-32.44
-27.42
-21.44
-15.87
-11.66
-8.97
-7.28
-5.74
-3.68
-0.89
2.36
5.47
7.77
8.78
8.35
6.75
4.51
2.22
0.39
-0.78
-1.43
-2.1
-3.62
-6.95
-12.89
-21.68
-32.68
-44.25
-54.01
-59.45
-58.67
-50.96
-37.01
-18.56
2.16
23.04
42.48
59.43
73.26
83.56
90.04
92.6
91.49
87.45
81.7
75.68
70.7
67.53
66.15
65.76
65.24
63.62
60.67
57.01
53.89
52.54
53.51
56.34
59.63
61.52
60.44
55.49
46.69
34.83
21.24
7.7
-3.85
-11.7
-15.14
-15.11
-14.55
-17.67
-28.53
-49.14
-78.26
-111.56
-143.24
-168.36
-184.64
-192.93
-195.9
-196.02
-193.85
-187.75
-174.95
-153.55
-123.96
-89.15
-53.66
-21.84
3.52
21.63
33.15
39.23
40.94
39.3
35.63
31.83
29.97
31.46
36.28
43.18
50.71
58.62
68.45
82.74
103.14
128.58
154.83
175.95
186.86
185.6
173.82
155.48
134.5
113.0
91.05
67.81
43.05
17.96
-5.19
-24.28
-38.3
-47.47
-52.73
-54.86
-54.09
-50.26
-43.33
-33.87
-23.07
-12.34
-2.76
5.14
11.32
15.95
19.19
21.3
22.68
24.02
26.07
29.29
33.68
38.72
43.77
48.51
53.27
58.91
66.32
75.63
85.86
95.05
101.0
102.35
99.16
93.1
86.73
82.47
81.64
83.93
87.65
90.48
90.4
86.36
78.52
67.97
56.26
44.86
34.91
27.08
21.52
17.9
15.34
12.51
7.86
0.21
-10.78
-24.17
-37.92
-49.39
-56.26
-57.28
-52.69
-44.18
-34.32
-25.76
-20.35
-18.59
-19.58
-21.35
-21.72
-19.11
-12.98
-3.93
6.7
17.32
26.42
32.79
35.54
34.2
29.0
20.91
11.64
3.18
-2.75
-5.33
-4.72
-1.94
1.68
5.06
7.74
9.97
12.39
15.59
19.72
24.19
27.79
29.02
26.66
20.17
10.01
-2.53
-15.72
-27.93
-38.01
-45.5
-50.57
-53.68
-55.38
-56.08
-56.01
-55.13
-53.26
-50.06
-45.12
-38.09
-28.83
-17.58
-5.04
7.73
19.52
29.27
36.48
41.29
44.47
47.08
50.08
53.97
58.7
63.92
69.24
74.69
80.75
88.14
97.42
108.59
121.03
133.66
145.46
155.92
165.26
174.38
184.41
196.35
210.46
226.04
241.34
253.79
260.6
259.59
249.86
232.29
209.28
183.97
159.1
136.02
114.29
92.19
67.72
39.75
8.84
-22.83
-52.25
-76.73
-94.9
-107.05
-114.66
-119.47
-122.5
-123.64
-121.74
-115.47
-104.09
-88.25
-70.25
-53.59
-42.14
-39.24
-46.83
-64.94
-91.56
-122.92
-154.27
-181.07
-200.27
-211.09
-215.07
-215.1
-214.07
-213.64
-213.93
-214.16
-213.6
-212.33
-211.2
-211.0
-211.64
-211.99
-210.62
-206.95
-201.99
-198.09
-197.73
-202.13
-210.45
-220.16
-228.35
-233.19
-234.75
-234.71
-235.16
-237.1
-239.64
-239.94
-234.25
-219.28
-193.49
-157.83
-115.69
-72.19
-33.06
-3.26
14.21
18.95
13.17
0.93
-13.01
-24.42
-30.4
-29.48
-21.19
-5.57
17.15
46.3
80.4
116.88
152.32
183.24
207.12
223.19
232.43
236.8
238.18
237.47
234.43
228.12
217.76
203.2
185.09
164.45
142.34
119.48
96.26
72.81
49.1
25.03
0.51
-24.32
-48.83
-71.74
-91.22
-105.32
-112.6
-112.66
-106.34
-95.46
-82.34
-69.18
-57.68
-48.83
-42.96
-39.84
-38.9
-39.46
-40.95
-43.01
-45.53
-48.51
-51.83
-55.19
-58.07
-59.96
-60.62
-60.23
-59.23
-58.09
-57.01
-55.85
-54.33
-52.33
-50.15
-48.49
-48.17
-49.82
-53.59
-59.21
-66.17
-74.02
-82.47
-91.32
-100.33
-109.16
-117.52
-125.4
-133.31
-142.09
-152.48
-164.43
-176.6
-186.37
-190.36
-185.37
-169.46
-142.58
-106.65
-64.97
-21.43
20.43
57.93
89.43
114.34
133.01
146.49
156.38
164.35
171.72
179.13
186.43
193.02
198.39
202.49
205.84
209.17
213.0
217.33
221.71
225.67
228.93
231.39
232.75
232.2
228.55
220.63
207.98
191.11
171.31
150.05
128.34
106.51
84.32
61.41
37.5
12.53
-13.39
-39.92
-66.26
-91.01
-112.21
-127.81
-136.31
-137.16
-130.98
-119.28
-104.21
-88.14
-73.46
-62.16
-55.51
-53.72
-55.93
-60.51
-65.68
-70.07
-72.91
-73.93
-73.05
-70.19
-65.3
-58.58
-50.72
-42.83
-36.16
-31.64
-29.41
-28.74
-28.21
-26.35
-22.34
-16.39
-9.66
-3.77
-0.04
0.92
-0.71
-4.52
-10.31
-18.52
-30.05
-45.77
-66.03
-90.39
-117.81
-147.02
-176.92
-206.51
-234.6
-259.31
-278.04
-287.84
-286.36
-272.78
-248.24
-215.55
-178.08
-138.59
-98.6
-58.56
-18.72
19.98
55.54
85.41
107.45
120.98
127.1
128.41
128.12
129.01
132.61
139.03
147.14
155.33
162.03
166.31
167.87
166.93
163.84
158.88
152.25
144.37
135.99
128.09
121.42
116.01
111.01
104.98
96.6
85.41
72.12
58.29
45.57
34.9
26.18
18.41
10.3
0.99
-9.72
-21.47
-33.7
-46.04
-58.24
-69.87
-79.95
-86.78
-88.34
-83.01
-70.33
-51.4
-28.58
-4.75
17.65
37.3
54.07
68.55
81.4
92.84
102.64
110.35
115.75
119.16
121.39
123.51
126.39
130.46
135.59
141.29
146.98
152.3
157.15
161.74
166.35
171.22
176.42
181.84
187.38
193.05
199.05
205.75
213.49
222.29
231.72
240.74
247.93
251.75
250.91
244.7
233.08
216.64
196.45
173.95
150.74
128.43
108.37
91.37
77.55
66.32
56.74
47.81
38.84
29.51
19.83
9.96
0.11
-9.52
-18.7
-27.24
-34.98
-41.87
-47.93
-53.14
-57.32
-60.09
-60.91
-59.28
-55.08
-48.69
-41.03
-33.34
-26.93
-22.84
-21.68
-23.61
-28.38
-35.38
-43.75
-52.49
-60.6
-67.36
-72.54
-76.45
-79.71
-82.95
-86.52
-90.33
-94.08
-97.43
-100.21
-102.36
-103.92
-104.89
-105.18
-104.75
-103.53
-101.53
-98.66
-94.81
-89.73
-83.21
-75.12
-65.59
-55.08
-44.46
-34.9
-27.54
-23.19
-21.94
-23.13
-25.54
-27.94
-29.43
-29.71
-28.91
-27.31
-25.13
-22.43
-19.29
-15.93
-12.76
-10.2
-8.52
-7.66
-7.38
-7.4
-7.56
-7.9
-8.59
-9.84
-11.79
-14.46
-17.78
-21.54
-25.44
-29.15
-32.39
-35.07
-37.29
-39.38
-41.73
-44.73
-48.59
-53.35
-58.73
-64.17
-68.79
-71.51
-71.31
-67.5
-59.96
-49.28
-36.54
-23.12
-10.42
0.44
8.68
13.9
16.04
15.32
12.17
7.2
1.2
-4.96
-10.43
-14.5
-16.78
-17.34
-16.53
-14.94
-13.02
-11.06
-9.09
-7.07
-5.01
-3.07
-1.5
-0.45
0.11
0.56
1.59
4.08
8.81
16.16
25.96
37.53
49.84
61.88
72.86
82.34
90.15
96.29
100.81
103.73
105.1
105.05
103.85
101.83
99.25
96.25
92.74
88.5
83.17
76.36
67.68
56.86
43.7
28.09
10.06
-10.29
-32.58
-56.2
-80.2
-103.33
-124.16
-141.16
-152.87
-157.98
-155.59
-145.45
-128.37
-106.39
-82.74
-61.16
-44.94
-35.83
-33.56
-36.1
-40.74
-45.15
-48.08
-49.24
-48.65
-46.06
-40.86
-32.57
-21.46
-8.77
3.58
13.77
20.74
24.45
25.63
25.2
23.84
21.76
18.83
14.76
9.32
2.41
-5.73
-14.54
-23.03
-30.09
-34.77
-36.78
-36.66
-35.64
-35.22
-36.51
-39.85
-44.77
-50.3
-55.53
-59.97
-63.67
-66.95
-70.09
-73.05
-75.53
-77.15
-77.75
-77.44
-76.59
-75.62
-74.83
-74.29
-73.9
-73.5
-72.98
-72.32
-71.62
-71.03
-70.69
-70.65
-70.83
-70.95
-70.54
-69.05
-65.97
-60.99
-54.14
-45.78
-36.51
-26.98
-17.75
-9.2
-1.58
4.98
10.32
14.28
16.8
17.95
17.99
17.35
16.52
15.89
15.68
15.95
16.69
17.87
19.49
21.48
23.71
25.94
27.91
29.49
30.67
31.57
32.31
32.95
33.39
33.48
33.1
32.17
30.7
28.66
26.02
22.75
18.91
14.68
10.38
6.38
3.06
0.78
-0.17
0.38
2.44
5.83
10.22
15.14
20.14
24.86
29.05
32.65
35.65
38.08
39.99
41.41
42.32
42.74
42.67
42.14
41.19
39.92
38.4
36.73
34.93
32.97
30.77
28.28
25.46
22.38
19.17
16.02
13.1
10.56
8.5
6.93
5.78
4.87
3.92
2.61
0.71
-1.9
-5.11
-8.65
-12.14
-15.2
-17.52
-18.92
-19.33
-18.77
-17.32
-15.17
-12.56
-9.82
-7.31
-5.43
-4.52
-4.77
-6.18
-8.54
-11.41
-14.32
-16.89
-18.96
-20.52
-21.69
-22.58
-23.18
-23.39
-23.14
-22.39
-21.18
-19.56
-17.55
-15.18
-12.53
-9.82
-7.31
-5.24
-3.71
-2.57
-1.58
-0.5
0.75
2.09
3.33
4.31
4.99
5.42
5.74
6.13
6.72
7.66
9.0
10.69
12.57
14.4
15.92
16.86
16.95
15.87
13.29
9.02
3.13
-3.97
-11.58
-19.0
-25.77
-31.76
-37.13
-42.08
-46.62
-50.51
-53.32
-54.59
-53.97
-51.26
-46.42
-39.68
-31.56
-22.93
-14.82
-8.22
-3.7
-1.28
-0.45
-0.41
-0.42
-0.02
0.88
2.11
3.35
4.22
4.37
3.48
1.36
-1.97
-6.14
-10.45
-13.94
-15.61
-14.75
-11.14
-5.14
2.43
10.51
18.12
24.57
29.59
33.29
36.06
38.31
40.34
42.18
43.64
44.41
44.26
43.12
41.17
38.7
36.03
33.37
30.87
28.57
26.48
24.54
22.68
20.84
18.95
17.07
15.35
13.98
13.11
12.79
12.9
13.2
13.36
13.07
12.03
9.98
6.81
2.59
-2.29
-7.11
-10.99
-13.09
-12.9
-10.4
-6.05
-0.65
4.93
9.97
13.97
16.76
18.33
18.82
18.4
17.21
15.4
13.11
10.56
8.02
5.76
4.05
2.99
2.53
2.46
2.56
2.64
2.61
2.49
2.34
2.21
2.08
1.82
1.25
0.17
-1.5
-3.66
-6.08
-8.46
-10.57
-12.34
-13.89
-15.46
-17.31
-19.65
-22.58
-25.99
-29.54
-32.68
-34.75
-35.13
-33.4
-29.53
-23.87
-17.04
-9.8
-2.81
3.43
8.67
12.79
15.82
17.85
19.01
19.43
19.29
18.71
17.86
16.87
15.86
14.96
14.29
13.97
14.02
14.42
15.03
15.7
16.26
16.62
16.77
16.74
16.56
16.26
15.85
15.31
14.73
14.18
13.8
13.72
13.99
14.56
15.26
15.84
15.98
15.42
14.04
12.01
9.81
8.2
8.05
10.08
14.61
21.43
29.98
39.55
49.65
60.1
70.96
82.28
93.84
105.07
115.28
124.0
131.13
136.99
141.9
145.84
148.32
148.64
146.29
141.25
133.78
123.88
110.91
93.76
71.69
45.22
16.49
-11.26
-35.06
-53.32
-66.21
-75.04
-81.05
-84.69
-85.64
-83.69
-79.59
-75.13
-72.44
-72.78
-75.63
-78.66
-78.81
-73.83
-63.81
-51.64
-42.42
-41.82
-54.09
-80.45
-118.48
-162.65
-205.82
-241.13
-263.57
-270.76
-262.78
-241.59
-210.09
-171.63
-129.77
-88.22
-50.72
-20.46
0.71
12.99
18.73
21.67
25.31
31.29
38.56
43.73
42.81
33.06
14.55
-9.66
-34.58
-55.09
-67.67
-71.16
-66.63
-56.38
-42.9
-28.13
-13.33
0.89
14.36
27.4
40.84
55.76
73.06
92.76
113.64
133.17
148.23
155.99
154.92
145.11
128.18
106.62
83.07
59.78
38.43
20.16
5.7
-4.58
-10.82
-13.71
-14.58
-15.09
-16.74
-20.39
-25.92
-32.32
-38.17
-42.15
-43.47
-41.94
-37.76
-31.26
-22.77
-12.67
-1.52
9.86
20.45
29.29
35.69
39.44
40.74
40.0
37.71
34.21
29.7
24.26
17.95
10.95
3.58
-3.82
-10.96
-17.83
-24.7
-32.04
-40.32
-49.74
-60.16
-71.13
-82.06
-92.36
-101.65
-109.72
-116.54
-122.14
-126.62
-130.18
-133.1
-135.76
-138.61
-142.12
-146.71
-152.54
-159.14
-165.01
-167.48
-163.09
-148.5
-121.78
-83.39
-36.47
13.72
61.1
100.06
126.41
137.67
132.86
112.32
77.79
32.54
-18.68
-70.3
-117.17
-155.74
-184.62
-204.15
-215.26
-218.52
-213.83
-201.2
-181.69
-158.08
-134.18
-113.4
-97.23
-84.85
-73.91
-62.18
-48.94
-35.33
-23.47
-14.97
-9.77
-5.9
-0.2
10.49
28.48
54.95
90.05
132.78
180.52
228.68
270.99
301.09
314.75
311.92
297.2
278.36
263.49
257.84
261.99
271.92
280.9
282.13
271.03
246.48
210.76
168.53
125.28
85.87
53.6
29.93
14.86
7.39
5.84
7.82
10.33
10.18
4.9
-6.36
-22.29
-39.82
-55.21
-65.5
-69.4
-67.47
-61.67
-54.6
-48.67
-45.71
-46.68
-51.56
-59.26
-67.59
-73.44
-73.29
-63.94
-43.35
-11.31
30.14
76.69
122.2
159.67
182.77
187.61
174.1
146.21
110.86
75.77
47.12
28.08
18.61
16.6
19.27
24.36
30.26
35.61
39.0
39.07
35.14
27.84
19.03
11.28
6.6
5.62
7.29
9.47
9.93
7.35
1.74
-5.81
-13.77
-20.8
-26.12
-29.42
-30.59
-29.53
-26.15
-20.51
-12.97
-4.12
5.4
15.06
24.61
34.01
43.34
52.63
61.8
70.62
78.88
86.37
93.08
99.19
105.1
111.24
117.9
124.87
131.35
136.08
137.79
135.7
129.82
120.82
109.58
96.7
82.28
66.01
47.53
26.69
3.63
-21.38
-48.1
-76.23
-105.16
-133.73
-160.3
-183.11
-200.94
-213.4
-220.87
-224.18
-223.86
-219.86
-211.63
-198.73
-181.56
-161.66
-141.43
-123.21
-108.32
-96.66
-86.96
-77.7
-68.06
-58.38
-49.89
-44.03
-41.77
-43.34
-48.28
-55.83
-65.09
-75.1
-84.74
-92.8
-98.17
-100.27
-99.12
-95.38
-90.18
-84.71
-79.9
-76.26
-73.8
-72.16
-70.78
-69.18
-67.03
-64.18
-60.55
-56.08
-50.69
-44.39
-37.28
-29.56
-21.47
-13.17
-4.77
3.56
11.5
18.52
23.97
27.29
28.2
26.79
23.6
19.58
16.0
14.36
15.97
21.63
31.3
44.02
58.16
71.97
84.05
93.67
100.71
105.38
107.83
107.92
105.36
99.84
91.44
80.71
68.73
56.88
46.46
38.33
32.59
28.61
25.35
21.87
17.87
13.82
10.72
9.6
11.02
14.94
20.83
28.05
35.92
43.85
51.13
57.04
61.0
62.92
63.31
62.99
62.58
62.06
60.69
57.46
51.57
42.85
31.63
18.46
3.82
-11.84
-27.85
-42.99
-55.6
-64.14
-67.8
-66.89
-62.61
-56.34
-48.94
-40.36
-29.93
-17.03
-1.75
14.91
31.32
45.94
57.75
66.56
72.71
76.67
78.78
79.07
77.56
74.32
69.63
63.92
57.55
50.74
43.5
35.7
27.23
18.15
8.73
-0.51
-9.03
-16.44
-22.7
-28.15
-33.34
-38.75
-44.47
-50.25
-55.69
-60.57
-65.09
-69.84
-75.56
-82.85
-91.94
-102.68
-114.54
-126.66
-137.78
-146.36
-150.77
-149.67
-142.55
-130.02
-113.7
-95.84
-78.64
-63.77
-52.08
-43.78
-38.67
-36.37
-36.31
-37.55
-38.62
-37.62
-32.63
-22.34
-6.65
13.2
34.98
56.24
75.16
90.91
103.66
114.14
123.09
130.93
137.72
143.35
147.71
150.72
152.21
151.77
148.79
142.67
133.19
120.74
106.26
90.97
75.86
61.41
47.52
33.85
20.17
6.65
-6.27
-18.25
-29.35
-40.13
-51.41
-63.89
-77.77
-92.69
-107.81
-122.0
-134.01
-142.42
-145.78
-142.95
-133.45
-117.88
-97.94
-76.03
-54.53
-35.25
-19.11
-6.41
2.85
8.6
10.76
9.47
5.5
0.46
-3.29
-3.02
3.9
19.38
44.16
77.44
116.81
158.54
198.19
231.42
254.82
266.43
266.03
254.88
235.24
209.75
180.83
150.24
119.11
88.06
57.59
28.21
0.47
-25.32
-49.26
-71.8
-93.36
-113.87
-132.47
-147.81
-158.65
-164.54
-166.23
-165.38
-164.02
-163.84
-165.69
-169.43
-174.06
-177.98
-179.31
-176.35
-167.97
-153.97
-135.19
-113.26
-90.15
-67.6
-46.81
-28.38
-12.59
0.38
10.24
16.83
20.25
21.04
20.1
18.42
16.77
15.52
14.66
14.05
13.67
13.67
14.29
15.55
17.16
18.5
18.88
17.75
14.85
10.28
4.32
-2.64
-10.23
-18.14
-26.14
-34.07
-41.9
-49.61
-57.19
-64.59
-71.74
-78.68
-85.57
-92.74
-100.43
-108.71
-117.27
-125.5
-132.5
-137.21
-138.54
-135.47
-127.23
-113.54
-94.83
-72.21
-47.32
-21.87
2.66
25.28
45.3
62.25
75.77
85.72
92.47
97.04
101.01
105.98
113.06
122.52
133.77
145.78
157.5
168.14
177.21
184.38
189.42
192.2
192.85
191.7
189.2
185.69
181.27
175.8
169.15
161.43
153.01
144.34
135.72
127.09
118.09
108.36
97.78
86.51
74.88
63.15
51.35
39.31
26.94
14.57
3.03
-6.48
-12.88
-15.75
-15.7
-14.32
-13.58
-14.98
-18.89
-24.36
-29.57
-32.74
-32.99
-30.76
-27.59
-25.29
-25.26
-27.94
-32.89
-39.16
-45.84
-52.21
-57.88
-62.64
-66.41
-69.22
-71.3
-73.09
-75.06
-77.58
-80.67
-83.92
-86.53
-87.59
-86.38
-82.61
-76.64
-69.36
-61.98
-55.66
-51.17
-48.73
-48.08
-48.69
-50.05
-51.84
-54.01
-56.66
-59.91
-63.86
-68.61
-74.19
-80.55
-87.34
-93.7
-98.22
-99.14
-94.78
-84.12
-67.26
-45.52
-21.07
3.63
26.49
46.19
62.11
74.11
82.14
86.18
86.37
83.24
77.9
71.83
66.43
62.54
60.31
59.2
58.43
57.35
55.67
53.43
50.8
47.85
44.52
40.62
35.97
30.47
24.13
17.1
9.62
2.05
-5.16
-11.57
-16.85
-20.98
-24.38
-27.87
-32.44
-38.99
-47.94
-59.01
-71.15
-82.69
-91.6
-95.98
-94.43
-86.44
-72.54
-54.24
-33.59
-12.77
6.5
23.1
36.56
46.88
54.3
59.17
61.88
62.87
62.62
61.57
60.09
58.46
56.85
55.52
54.8
55.01
56.37
58.79
61.85
64.84
67.07
68.07
67.74
66.28
63.97
60.99
57.34
52.93
47.76
42.02
36.05
30.15
24.49
19.0
13.47
7.72
1.7
-4.58
-11.14
-18.22
-26.07
-34.79
-43.85
-52.0
-57.41
-58.2
-53.09
-41.94
-25.81
-6.62
13.5
32.75
49.97
64.56
76.22
84.82
90.39
93.23
94.13
94.16
94.36
95.34
96.99
98.7
99.7
99.68
99.06
98.98
100.89
105.88
114.08
124.43
134.83
142.64
145.42
141.59
130.75
113.75
92.43
69.16
46.39
26.12
9.46
-3.57
-14.08
-23.81
-34.42
-46.83
-60.74
-74.82
-87.31
-96.78
-102.63
-105.17
-105.22
-103.62
-100.86
-97.1
-92.2
-85.99
-78.33
-69.22
-58.88
-47.75
-36.49
-25.75
-15.96
-7.22
0.74
8.17
15.14
21.4
26.56
30.35
32.91
34.75
36.44
38.39
40.66
43.02
45.22
47.1
48.68
49.91
50.62
50.44
48.98
46.03
41.67
36.14
29.65
22.28
13.96
4.7
-5.25
-15.36
-25.02
-33.77
-41.53
-48.56
-55.28
-62.08
-69.24
-76.93
-85.17
-93.75
-102.02
-108.77
-112.46
-111.68
-105.76
-95.15
-81.3
-66.19
-51.57
-38.54
-27.42
-18.08
-10.38
-4.32
-0.13
2.1
2.64
2.18
1.7
2.1
3.92
7.21
11.54
16.3
20.94
25.19
29.08
32.79
36.39
39.61
41.9
42.64
41.5
38.61
34.57
30.14
25.85
21.79
17.64
12.89
7.18
0.36
-7.43
-15.99
-25.17
-35.0
-45.7
-57.58
-70.85
-85.29
-99.91
-112.78
-121.13
-122.02
-113.09
-93.5
-64.32
-28.48
9.91
46.33
76.66
97.79
107.98
107.11
96.76
79.82
59.8
39.89
22.15
7.24
-5.26
-16.13
-25.81
-34.19
-40.86
-45.55
-48.47
-50.26
-51.61
-52.94
-54.27
-55.4
-56.2
-56.79
-57.52
-58.8
-60.84
-63.64
-66.99
-70.58
-74.08
-77.14
-79.41
-80.54
-80.31
-78.7
-76.0
-72.76
-69.76
-67.83
-67.68
-69.75
-73.98
-79.67
-85.47
-89.42
-89.38
-83.52
-70.87
-51.63
-27.29
-0.24
26.81
51.45
72.07
88.0
99.49
107.3
112.4
115.72
117.97
119.7
121.38
123.45
126.33
130.24
135.12
140.59
146.08
151.02
155.0
157.89
159.7
160.35
159.45
156.32
150.09
140.19
126.61
110.16
92.19
74.24
57.43
42.16
28.13
14.72
1.45
-11.64
-24.03
-35.06
-44.34
-52.0
-58.56
-64.58
-70.23
-75.18
-78.77
-80.4
-79.94
-77.83
-74.88
-71.87
-69.22
-66.79
-64.14
-60.77
-56.46
-51.38
-45.97
-40.76
-36.1
-32.18
-29.08
-26.89
-25.72
-25.61
-26.43
-27.75
-29.01
-29.77
-29.92
-29.77
-29.84
-30.66
-32.48
-35.27
-38.92
-43.31
-48.36
-53.94
-59.63
-64.76
-68.57
-70.46
-70.33
-68.65
-66.45
-65.07
-65.86
-69.92
-77.75
-89.03
-102.62
-116.64
-128.79
-136.8
-138.78
-133.56
-120.87
-101.44
-76.88
-49.47
-21.72
4.16
26.61
44.91
59.08
69.52
76.75
81.3
83.61
84.16
83.48
82.1
80.45
78.82
77.42
76.39
75.95
76.28
77.53
79.69
82.53
85.63
88.4
90.23
90.58
89.16
85.94
81.21
75.43
69.11
62.56
55.83
48.71
40.92
32.24
22.73
12.67
2.46
-7.58
-17.31
-26.72
-35.89
-44.88
-53.68
-62.2
-70.25
-77.51
-83.41
-87.16
-87.79
-84.42
-76.51
-64.11
-47.97
-29.35
-9.87
8.91
25.67
39.47
49.79
56.49
59.83
60.46
59.37
57.67
56.31
55.84
56.13
56.53
56.18
54.5
51.54
48.04
45.2
44.18
45.59
49.27
54.26
58.94
61.35
59.67
52.62
39.9
22.4
1.99
-18.92
-38.1
-54.05
-66.17
-74.66
-80.07
-83.06
-84.33
-84.74
-85.53
-88.14
-93.83
-103.07
-115.07
-127.83
-138.58
-144.55
-143.8
-135.71
-121.02
-101.5
-79.36
-56.73
-35.24
-15.94
0.65
14.35
25.19
33.37
39.19
43.08
45.52
46.91
47.55
47.59
47.19
46.6
46.3
46.9
48.87
52.24
56.48
60.53
63.26
63.93
62.6
60.11
57.68
56.3
56.24
56.9
57.16
55.92
52.51
46.91
39.47
30.6
20.46
9.02
-3.82
-17.92
-32.81
-47.78
-62.0
-74.57
-84.54
-90.81
-92.28
-88.2
-78.54
-64.23
-47.07
-29.24
-12.72
1.25
12.3
20.75
27.18
32.04
35.47
37.38
37.63
36.23
33.48
29.87
26.07
22.79
20.67
20.31
22.12
26.36
32.99
41.57
51.22
60.76
68.86
74.43
76.81
75.89
71.88
65.14
55.92
44.37
30.75
15.64
0.14
-14.3
-26.25
-34.74
-39.6
-41.55
-42.05
-43.04
-46.47
-53.84
-65.69
-81.24
-98.28
-113.63
-123.96
-126.77
-121.14
-107.96
-89.51
-68.66
-48.09
-29.66
-14.31
-2.28
6.65
12.84
16.69
18.64
19.2
18.98
18.64
18.79
19.92
22.22
25.68
30.18
35.54
41.61
48.31
55.44
62.6
69.22
74.66
78.49
80.71
81.8
82.36
82.71
82.52
80.72
76.01
67.48
55.15
40.18
24.47
10.0
-1.76
-10.33
-16.11
-20.18
-23.91
-28.56
-34.91
-42.87
-51.22
-57.81
-60.09
-55.99
-44.7
-27.07
-5.34
17.51
38.64
55.88
67.99
74.54
75.64
71.72
63.43
51.61
37.35
21.96
6.92
-6.25
-16.14
-21.7
-22.52
-18.91
-11.9
-3.04
5.86
13.15
17.63
18.78
16.8
12.58
7.36
2.42
-1.32
-3.51
-4.27
-4.04
-3.33
-2.55
-2.0
-2.0
-2.9
-5.0
-8.38
-12.8
-17.72
-22.45
-26.4
-29.13
-30.4
-30.11
-28.25
-24.95
-20.45
-15.17
-9.64
-4.3
0.59
5.15
9.78
15.06
21.5
29.34
38.38
48.13
57.99
67.63
77.05
86.48
95.96
105.03
112.65
117.51
118.51
115.05
107.03
94.55
77.69
56.58
31.82
4.91
-21.85
-45.89
-65.32
-79.68
-89.95
-97.95
-105.53
-113.88
-123.46
-134.44
-147.12
-162.25
-180.86
-203.77
-230.85
-260.46
-289.12
-311.85
-323.28
-319.19
-298.07
-261.83
-215.36
-164.93
-116.19
-72.74
-35.75
-4.8
20.97
42.01
58.18
69.36
76.09
79.82
82.63
86.51
92.63
100.93
110.15
118.28
123.31
123.89
119.78
111.9
101.94
91.61
82.08
73.69
66.08
58.7
51.3
44.07
37.5
31.92
27.19
22.71
17.7
11.7
4.85
-2.16
-8.45
-13.43
-17.13
-20.31
-24.13
-29.7
-37.58
-47.42
-57.84
-66.66
-71.45
-70.24
-62.18
-47.86
-29.23
-9.05
9.91
25.49
36.59
43.18
45.98
46.07
44.49
42.05
39.22
36.17
32.92
29.46
25.85
22.26
18.96
16.19
14.16
13.0
12.72
13.3
14.66
16.7
19.2
21.84
24.16
25.64
25.82
24.43
21.47
17.24
12.24
7.07
2.2
-2.16
-6.16
-10.22
-14.96
-20.92
-28.41
-37.29
-46.94
-56.25
-63.77
-68.0
-67.68
-62.16
-51.6
-36.99
-19.98
-2.46
13.89
27.9
39.04
47.31
52.96
56.32
57.7
57.44
55.98
53.9
51.79
50.18
49.39
49.53
50.52
52.19
54.37
56.87
59.56
62.32
65.07
67.71
70.12
72.06
73.25
73.35
72.07
69.23
64.88
59.32
53.06
46.79
41.15
36.53
32.93
29.96
27.01
23.54
19.31
14.47
9.46
4.88
1.35
-0.47
0.03
3.18
8.68
15.3
20.81
22.52
18.04
6.18
-12.6
-36.36
-62.36
-87.96
-111.27
-131.42
-148.16
-161.53
-171.3
-176.98
-177.91
-173.72
-164.6
-151.38
-135.34
-117.81
-99.83
-82.01
-64.66
-48.09
-32.83
-19.65
-9.25
-1.98
2.44
4.8
6.2
7.6
9.59
12.26
15.38
18.64
21.79
24.8
27.75
30.74
33.75
36.45
38.11
37.65
33.87
25.86
13.53
-2.06
-18.74
-33.67
-44.18
-48.5
-46.31
-38.66
