33.37
23.89
13.31
1.25
-12.45
-27.42
-42.53
-56.03
-65.88
-70.33
-68.52
-60.72
-48.3
-33.31
-17.93
-3.89
7.75
16.67
22.96
26.92
28.77
28.7
26.89
23.69
19.6
15.26
11.31
8.22
6.3
5.58
5.97
7.22
9.04
11.11
13.07
14.54
15.14
14.58
12.75
9.76
6.0
1.97
-1.81
-5.01
-7.52
-9.45
-11.02
-12.36
-13.45
-14.23
-14.63
-14.81
-15.15
-16.16
-18.18
-21.19
-24.68
-27.72
-29.25
-28.4
-24.8
-18.62
-10.53
-1.5
7.48
15.55
22.14
26.93
29.79
30.72
29.78
27.13
23.04
17.89
12.15
6.35
1.01
-3.37
-6.43
-7.93
-7.93
-6.76
-4.98
-3.24
-2.03
-1.55
-1.65
-2.03
-2.42
-2.79
-3.4
-4.62
-6.77
-9.86
-13.56
-17.3
-20.44
-22.54
-23.48
-23.43
-22.71
-21.63
-20.33
-18.89
-17.36
-15.91
-14.71
-13.73
-12.58
-10.44
-6.35
0.44
10.05
21.84
34.61
47.02
58.06
67.24
74.65
80.65
85.7
90.19
94.48
98.85
103.49
108.29
112.74
115.81
116.13
112.31
103.41
89.27
70.68
49.24
26.82
5.06
-15.19
-34.01
-52.13
-70.4
-89.15
-107.82
-125.07
-139.33
-149.43
-155.11
-157.01
-156.36
-154.41
-152.01
-149.45
-146.63
-143.26
-139.07
-133.92
-127.85
-121.0
-113.68
-106.36
-99.58
-93.79
-89.12
-85.24
-81.35
-76.41
-69.45
-59.94
-48.0
-34.38
-20.3
-7.11
4.05
12.46
18.01
21.1
22.54
23.2
23.76
24.52
25.44
26.32
27.09
28.03
29.68
32.62
37.05
42.6
48.34
53.08
55.75
55.81
53.28
48.6
42.34
35.03
26.96
18.29
9.16
-0.19
-9.34
-17.69
-24.56
-29.44
-32.21
-33.41
-34.3
-36.74
-42.73
-53.93
-71.08
-93.57
-119.43
-145.62
-168.74
-185.9
-195.54
-197.73
-193.96
-186.33
-176.68
-165.88
-153.85
-140.01
-123.99
-106.15
-87.57
-69.67
-53.69
-40.37
-29.87
-21.96
-16.27
-12.24
-9.07
-5.71
-0.93
6.11
15.48
26.24
36.67
44.85
49.31
49.43
45.42
37.98
27.92
16.04
3.05
-10.26
-23.05
-34.63
-44.7
-53.43
-61.33
-68.88
-76.3
-83.54
-90.36
-96.54
-101.86
-105.91
-107.95
-106.93
-101.68
-91.47
-76.45
-57.85
-37.69
-18.28
-1.56
11.32
20.15
25.41
27.83
28.05
26.5
23.5
19.46
15.07
11.23
8.88
8.76
11.18
16.05
22.87
30.88
39.17
46.85
53.06
57.19
58.9
58.18
55.31
50.79
45.15
38.89
32.43
26.0
19.68
13.39
7.01
0.48
-6.17
-12.85
-19.5
-26.31
-33.72
-42.25
-52.26
-63.51
-74.94
-84.76
-90.83
-91.29
-85.14
-72.62
-55.11
-34.74
-13.79
5.82
22.89
36.88
47.71
55.57
60.66
63.29
63.94
63.28
62.18
61.46
61.72
63.19
65.7
68.86
72.28
75.69
79.06
82.46
85.92
89.26
92.0
93.51
93.22
90.88
86.75
81.53
76.1
71.25
67.33
64.22
61.38
58.17
54.05
48.72
42.25
35.01
27.75
21.5
17.53
17.02
20.73
28.68
40.06
53.42
67.17
80.04
91.42
101.36
110.27
118.6
126.56
134.05
140.84
146.67
151.42
155.11
157.82
159.58
160.39
160.26
159.22
157.42
155.12
152.58
150.02
147.43
144.37
140.0
133.14
122.68
107.85
88.41
64.5
36.33
4.0
-32.45
-72.5
-114.61
-156.14
-193.79
-224.69
-247.47
-262.72
-272.61
-279.82
-286.44
-293.35
-300.18
-305.71
-308.26
-305.89
-296.64
-278.91
-252.04
-216.97
-176.41
-134.35
-94.93
-61.3
-34.82
-15.11
-0.72
9.98
18.14
24.24
28.28
30.22
30.19
28.63
26.14
23.29
20.55
18.24
16.65
16.1
16.89
19.13
22.57
26.51
29.97
32.03
32.23
30.7
28.06
25.09
22.29
19.75
17.17
14.22
10.69
6.68
2.52
-1.43
-4.9
-7.82
-10.33
-12.81
-15.74
-19.68
-24.92
-31.28
-37.86
-43.15
-45.39
-43.24
-36.27
-25.14
-11.33
3.39
17.58
30.37
41.4
50.59
57.8
62.84
65.57
66.15
65.07
63.07
60.83
58.82
57.18
55.94
55.08
54.69
54.85
55.49
56.29
56.72
56.31
54.83
52.42
49.45
46.25
42.87
39.11
34.64
29.31
23.28
16.95
10.73
4.84
-0.81
-6.52
-12.58
-19.2
-26.5
-34.56
-43.37
-52.72
-61.93
-69.74
-74.53
-74.69
-69.26
-58.26
-42.87
-24.98
-6.77
9.93
23.85
34.41
41.48
45.27
46.13
44.6
41.37
37.25
33.07
29.48
26.78
24.95
23.71
22.74
21.75
20.53
18.99
17.03
14.54
11.46
7.77
3.49
-1.35
-6.79
-12.87
-19.55
-26.66
-33.79
-40.49
-46.37
-51.38
-55.88
-60.52
-66.0
-72.79
-80.86
-89.52
-97.49
-103.09
-104.6
-100.7
-90.78
-75.18
-55.17
-32.71
-10.04
10.83
28.42
42.07
51.81
58.14
61.75
63.28
63.25
62.01
59.9
57.27
54.55
52.16
50.54
50.01
50.75
52.7
55.53
58.68
61.41
63.07
63.23
61.86
59.18
55.59
51.4
46.74
41.59
35.91
29.76
23.34
16.93
10.78
4.96
-0.59
-6.05
-11.67
-17.76
-24.59
-32.31
-40.78
-49.35
-56.88
-61.82
-62.65
-58.3
-48.54
-34.04
-16.31
2.77
21.35
37.98
51.78
62.45
70.08
74.97
77.51
78.07
77.08
75.03
72.42
69.67
67.06
64.68
62.53
60.62
59.06
57.99
57.47
57.38
57.32
56.7
55.01
51.93
47.5
42.11
36.27
30.42
24.81
19.39
13.89
8.05
1.75
-4.86
-11.4
-17.42
-22.58
-26.89
-30.67
-34.51
-39.05
-44.76
-51.68
-59.31
-66.6
-72.13
-74.42
-72.28
-65.21
-53.54
-38.35
-21.2
-3.72
12.66
26.97
38.7
47.74
54.23
58.47
60.77
61.41
60.64
58.67
55.77
52.3
48.76
45.69
43.55
42.63
42.88
43.98
45.44
46.7
47.36
47.17
46.09
44.19
41.58
38.37
34.67
30.61
26.35
22.05
17.89
13.99
10.5
7.48
4.97
2.85
0.77
-1.8
-5.42
-10.39
-16.41
-22.43
-26.77
-27.6
-23.52
-14.07
0.03
17.12
35.18
52.4
67.66
80.64
91.54
100.77
108.56
114.86
119.38
121.81
122.01
119.92
115.57
108.93
100.02
88.95
76.01
61.57
45.78
28.4
8.81
-13.53
-38.58
-65.27
-91.73
-115.92
-136.49
-153.19
-166.72
-177.99
-187.33
-194.13
-197.2
-195.43
-188.48
-176.98
-162.34
-146.24
-130.33
-116.07
-104.84
-97.96
-96.39
-100.34
-108.87
-119.83
-130.19
-136.77
-137.06
-129.87
-115.58
-95.87
-73.13
-49.72
-27.4
-7.22
10.44
25.43
37.64
46.91
53.18
56.69
57.99
57.81
56.85
55.55
54.24
53.16
52.66
53.15
54.97
58.13
62.28
66.76
70.93
74.38
77.1
79.29
81.14
82.66
83.58
83.54
82.31
79.96
76.87
73.57
70.51
67.81
65.18
61.96
57.32
50.62
41.71
31.01
19.44
8.16
-1.94
-10.58
-18.34
-26.61
-37.3
-52.25
-72.62
-98.24
-127.22
-156.01
-180.18
-195.56
-199.61
-192.25
-175.87
-154.34
-131.62
-110.47
-91.9
-75.49
-60.2
-45.24
-30.44
-16.18
-2.93
9.07
19.88
29.67
38.36
45.61
50.88
53.84
54.55
53.5
51.42
48.93
46.37
43.82
41.25
38.72
36.4
34.56
33.32
32.49
31.62
30.07
27.26
22.81
16.59
8.76
-0.3
-10.02
-19.72
-28.66
-36.3
-42.52
-47.61
-52.26
-57.14
-62.49
-67.8
-71.83
-73.06
-70.26
-63.09
-52.24
-39.33
-26.23
-14.53
-5.19
1.6
6.09
8.78
10.09
10.26
9.49
8.0
6.13
4.43
3.53
3.99
6.1
9.73
14.25
18.73
22.21
24.1
24.38
23.57
22.49
21.78
21.61
21.59
21.02
19.26
16.11
11.88
7.3
3.15
0.04
-1.85
-2.69
-3.07
-3.8
-5.83
-9.99
-16.67
-25.6
-35.64
-44.98
-51.52
-53.47
-49.85
-40.88
-27.9
-13.03
1.37
13.37
21.78
26.39
27.71
26.55
23.66
19.53
14.42
8.54
2.36
-3.48
-8.22
-11.32
-12.58
-12.17
-10.43
-7.66
-3.98
0.66
6.21
12.38
18.56
23.89
27.59
29.22
28.94
27.42
25.63
24.34
23.87
23.9
23.66
22.35
19.55
15.42
10.67
6.27
2.98
1.06
0.19
-0.4
-1.59
-4.03
-7.94
-13.06
-18.76
-24.18
-28.33
-30.27
-29.13
-24.43
-16.14
-4.84
8.37
22.18
35.34
46.96
56.57
64.0
69.19
72.07
72.54
70.61
66.46
60.49
53.26
45.44
37.58
30.25
23.9
18.94
15.62
13.88
13.28
13.0
12.11
9.9
6.23
1.54
-3.45
-8.24
-12.97
-18.53
-26.16
-36.77
-50.43
-66.21
-82.59
-98.06
-111.75
-123.63
-134.22
-144.14
-153.54
-161.93
-168.24
-171.18
-169.63
-162.9
-150.95
-134.34
-114.15
-91.83
-68.97
-47.13
-27.61
-11.27
1.48
10.68
16.73
20.21
21.81
22.19
21.94
21.55
21.38
21.6
22.26
23.27
24.47
25.69
26.72
27.37
27.41
26.65
24.96
22.3
18.71
14.26
8.95
2.76
-4.44
-12.61
-21.58
-30.93
-40.17
-48.85
-56.83
-64.27
-71.58
-79.25
-87.63
-96.69
-105.94
-114.36
-120.49
-122.6
-119.12
-109.1
-92.58
-70.75
-45.76
-20.08
4.06
25.27
43.04
57.54
69.19
78.23
84.59
88.09
88.63
86.53
82.56
77.73
73.08
69.39
67.02
66.01
66.15
67.14
68.64
70.26
71.51
71.85
70.78
68.04
63.66
58.03
51.68
45.15
38.76
32.51
26.18
19.47
12.25
4.65
-2.87
-9.67
-15.13
-18.88
-20.99
-22.0
-22.93
-24.95
-29.08
-35.77
-44.62
-54.3
-62.77
-67.78
-67.5
-60.93
-48.22
-30.59
-9.95
11.5
31.69
49.06
62.67
72.26
78.17
81.14
82.06
81.71
80.66
79.17
77.29
75.01
72.45
69.87
67.68
66.24
65.76
66.15
67.03
67.89
68.22
67.71
66.36
64.34
61.91
59.2
56.1
52.33
47.61
41.9
35.49
28.9
22.71
17.28
12.65
8.56
4.58
0.32
-4.53
-10.15
-16.53
-23.41
-30.16
-35.71
-38.72
-37.9
-32.47
-22.48
-8.91
6.61
22.27
36.49
48.22
57.0
62.78
65.75
66.17
64.41
60.9
56.24
51.08
46.09
41.77
38.37
35.83
33.91
32.31
30.81
29.35
27.96
26.63
25.22
23.45
21.04
17.84
13.91
9.5
4.86
0.1
-4.88
-10.36
-16.57
-23.49
-30.87
-38.22
-45.06
-51.13
-56.45
-61.37
-66.41
-72.17
-79.01
-86.92
-95.33
-103.09
-108.62
-110.32
-106.96
-98.08
-84.19
-66.68
-47.46
-28.49
-11.42
2.73
13.56
21.17
25.98
28.51
29.31
28.87
27.64
26.06
24.56
23.56
23.38
24.19
25.92
28.25
30.72
32.88
34.47
35.43
35.9
35.95
35.4
33.92
31.12
26.93
21.65
15.9
10.31
5.16
0.27
-4.84
-10.61
-17.14
-24.08
-30.8
-36.65
-41.34
-44.95
-48.0
-51.22
-55.36
-60.95
-68.04
-76.09
-83.87
-89.68
-91.72
-88.64
-79.95
-66.28
-49.21
-30.75
-12.88
2.95
16.0
26.12
33.54
38.69
42.02
44.0
45.07
45.59
45.79
45.76
45.52
45.12
44.71
44.55
44.88
45.73
46.9
47.99
48.54
48.18
46.76
44.27
40.81
36.45
31.21
25.13
18.33
11.08
3.76
-3.2
-9.5
-15.02
-19.84
-24.17
-28.29
-32.45
-36.91
-41.92
-47.63
-53.96
-60.39
-65.95
-69.29
-69.08
-64.41
-55.25
-42.42
-27.48
-12.17
1.96
13.95
23.43
30.49
35.42
38.52
40.01
40.04
38.86
36.8
34.33
31.93
30.0
28.72
28.1
28.04
28.38
29.04
29.95
31.0
32.02
32.67
32.58
31.43
29.11
25.76
21.73
17.47
13.34
9.51
5.89
2.22
-1.83
-6.53
-11.95
-17.95
-24.19
-30.3
-35.98
-41.13
-45.86
-50.41
-55.09
-60.16
-65.73
-71.66
-77.49
-82.44
-85.41
-85.23
-80.96
-72.22
-59.39
-43.61
-26.54
-9.9
4.91
17.03
26.19
32.53
36.42
38.32
38.75
38.27
37.56
37.22
37.69
39.08
41.13
43.38
45.31
46.68
47.44
47.78
47.91
47.92
47.75
47.2
46.0
43.86
40.63
36.29
31.14
25.68
20.49
16.02
12.33
9.17
6.04
2.52
-1.51
-5.84
-10.09
-13.92
-17.22
-20.16
-23.11
-26.42
-30.41
-35.29
-41.13
-47.78
-54.79
-61.31
-66.11
-67.85
-65.39
-58.3
-47.04
-32.93
-17.81
-3.46
8.86
18.61
25.88
30.99
34.22
35.67
35.34
33.3
29.89
25.65
21.15
16.86
13.06
9.92
7.6
6.29
6.07
6.9
8.42
10.09
11.35
11.83
11.49
10.57
9.44
8.37
7.46
6.61
5.64
4.4
2.84
0.96
-1.22
-3.72
-6.59
-9.87
-13.62
-17.9
-22.84
-28.58
-35.14
-42.23
-49.04
-54.27
-56.46
-54.34
-47.34
-35.83
-21.06
-4.84
10.93
24.76
35.72
43.56
48.52
51.22
52.43
52.93
53.36
54.05
54.88
55.43
55.07
53.3
50.01
45.58
40.77
36.46
33.35
31.65
31.09
30.99
30.6
29.31
26.86
23.41
19.37
15.18
11.17
7.44
3.87
0.22
-3.71
-7.98
-12.5
-17.08
-21.53
-25.81
-30.07
-34.66
-39.97
-46.33
-53.85
-62.3
-71.06
-79.14
-85.29
-88.22
-86.9
-80.85
-70.36
-56.5
-40.94
-25.5
-11.84
-1.03
6.45
10.69
12.18
11.6
9.72
7.29
4.97
3.24
2.39
2.46
3.26
4.46
5.67
6.5
6.73
6.27
5.23
3.78
2.11
0.33
-1.58
-3.72
-6.21
-9.12
-12.45
-16.1
-19.91
-23.69
-27.25
-30.43
-33.17
-35.54
-37.71
-40.04
-42.94
-46.83
-51.99
-58.35
-65.42
-72.14
-77.05
-78.59
-75.56
-67.51
-54.98
-39.32
-22.3
-5.58
9.66
22.85
33.88
42.9
50.05
55.41
59.02
61.05
61.89
62.11
62.35
63.18
64.94
67.67
71.17
75.12
79.18
83.08
86.68
89.87
92.55
94.49
95.4
95.01
93.16
90.09
86.4
83.04
81.08
81.38
84.31
89.58
96.3
103.25
109.24
113.45
115.58
115.91
115.23
114.74
115.88
119.91
127.43
137.77
148.75
156.92
158.42
150.25
131.21
102.37
66.56
27.51
-11.12
-46.21
-75.13
-95.56
-105.64
-104.38
-92.43
-72.31
-47.89
-23.12
-0.6
19.3
38.17
58.18
80.31
103.17
123.09
135.55
137.2
127.37
108.51
85.27
62.83
45.27
34.61
30.72
31.95
35.99
40.73
44.62
46.92
47.5
46.56
44.21
40.19
33.92
24.8
12.69
-1.76
-17.21
-32.01
-44.79
-54.84
-62.23
-67.53
-71.42
-74.41
-76.79
-78.72
-80.45
-82.38
-85.01
-88.79
-93.92
-100.3
-107.67
-115.67
-124.05
-132.59
-140.98
-148.73
-155.1
-159.4
-161.33
-161.18
-159.84
-158.34
-157.47
-157.41
-157.9
-158.67
-159.81
-161.89
-165.54
-170.97
-177.6
-184.15
-189.31
-192.38
-193.71
-194.5
-196.4
-200.87
-208.9
-221.01
-237.29
-257.39
-280.42
-304.73
-328.05
-347.71
-361.09
-366.14
-361.57
-347.05
-323.16
-291.24
-253.24
-211.32
-167.36
-122.41
-76.56
-29.27
19.62
69.06
116.25
157.28
188.38
207.36
214.41
211.79
202.7
189.9
175.02
158.59
140.85
122.48
104.97
90.15
79.51
73.64
72.04
73.55
76.82
80.74
84.65
88.2
91.14
93.16
93.81
92.58
89.05
83.1
74.92
65.07
54.33
43.63
34.03
26.69
22.83
23.54
29.44
40.49
55.7
73.29
90.94
106.3
117.48
123.47
124.28
120.84
114.61
107.12
99.56
92.57
86.34
80.77
75.88
71.79
68.77
66.98
66.35
66.5
66.82
66.69
65.55
62.97
58.69
52.53
44.33
34.04
21.72
7.66
-7.55
-23.13
-38.34
-52.71
-66.3
-79.6
-93.41
-108.38
-124.79
-142.52
-161.21
-180.65
-200.88
-222.12
-244.23
-266.15
-285.52
-298.88
-302.5
-293.43
-270.48
-234.61
-188.81
-137.32
-84.72
-35.1
8.53
44.48
72.3
92.47
106.0
114.0
117.45
117.18
113.97
108.82
102.89
97.41
93.31
90.91
89.85
89.25
88.08
85.42
80.73
73.99
65.6
56.35
47.08
38.46
30.72
23.62
16.61
9.24
1.48
-6.24
-13.16
-18.66
-22.63
-25.64
-28.76
-33.21
-39.85
-48.84
-59.51
-70.35
-79.25
-83.91
-82.37
-73.54
-57.67
-36.31
-11.95
12.66
35.27
54.59
70.26
82.59
92.06
98.96
103.34
105.13
104.47
101.81
97.95
93.79
90.08
87.19
85.06
83.35
81.67
79.71
77.43
74.89
72.21
69.43
66.41
62.95
58.85
53.97
48.3
41.96
35.1
27.95
20.72
13.61
6.79
0.31
-5.9
-12.09
-18.6
-25.89
-34.29
-43.95
-54.51
-65.02
-73.87
-79.14
-79.08
-72.8
-60.6
-44.05
-25.47
-7.19
9.05
22.49
33.16
41.45
47.75
52.16
54.6
55.07
53.81
51.34
48.32
45.36
42.88
41.08
40.08
39.94
40.72
42.43
44.87
47.56
49.83
50.96
50.5
48.41
45.08
41.13
37.06
33.06
28.93
24.24
18.64
12.11
5.04
-1.98
-8.34
-13.7
-18.07
-21.77
-25.38
-29.51
-34.62
-40.8
-47.56
-53.79
-57.92
-58.3
-53.67
-43.64
-28.81
-10.7
8.71
27.42
43.9
57.28
67.33
74.3
78.58
80.47
80.16
77.69
73.25
67.26
60.44
53.61
47.49
42.44
38.38
34.92
31.56
27.94
23.91
19.57
15.05
10.41
5.58
0.4
-5.22
-11.22
-17.23
-22.76
-27.23
-30.19
-31.35
-30.65
-28.24
-24.43
-19.76
-14.96
-10.84
-8.03
-6.67
-6.32
-5.9
-4.01
0.55
8.43
19.34
32.21
45.5
57.7
67.69
74.94
79.33
80.97
80.03
76.68
71.28
64.43
57.03
49.98
44.02
39.39
35.88
32.99
30.19
27.14
23.77
20.17
16.48
12.77
9.04
5.25
1.35
-2.73
-7.05
-11.67
-16.63
-21.94
-27.51
-33.24
-38.98
-44.6
-50.03
-55.24
-60.21
-65.02
-69.84
-74.99
-80.82
-87.51
-94.73
-101.54
-106.44
-107.7
-104.02
-94.95
-81.17
-64.25
-46.18
-28.74
-13.12
0.18
11.18
20.11
27.22
32.67
36.66
39.42
41.31
42.71
43.9
45.02
46.09
47.09
48.04
49.07
50.33
51.92
53.76
55.57
56.93
57.42
56.8
55.13
52.74
50.07
47.49
45.12
42.82
40.26
37.17
33.41
29.07
24.44
19.82
15.47
11.51
7.9
4.44
0.76
-3.6
-8.97
-15.37
-22.22
-28.43
-32.59
-33.42
-30.25
-23.25
-13.38
-2.14
8.95
18.71
26.41
31.87
35.16
36.51
36.11
34.13
30.7
26.05
20.49
14.47
8.49
2.96
-1.88
-5.97
-9.42
-12.45
-15.2
-17.79
-20.31
-22.84
-25.48
-28.38
-31.67
-35.48
-39.86
-44.83
-50.29
-56.09
-61.96
-67.54
-72.47
-76.4
-79.12
-80.68
-81.36
-81.69
-82.21
-83.22
-84.52
-85.33
-84.44
-80.63
-73.16
-62.19
-48.81
-34.67
-21.43
-10.27
-1.58
4.87
9.59
13.0
15.18
16.0
15.33
13.33
10.58
7.93
6.24
6.02
7.34
9.79
12.72
15.55
17.84
19.45
20.37
20.68
20.41
19.57
18.15
16.19
13.78
11.01
7.95
4.63
1.05
-2.78
-6.75
-10.66
-14.31
-17.6
-20.78
-24.39
-29.15
-35.51
-43.33
-51.61
-58.71
-62.79
-62.46
-57.26
-47.7
-35.1
-21.08
-7.09
5.78
16.93
26.11
33.31
38.67
42.37
44.67
45.87
46.28
46.26
46.11
46.08
46.33
46.92
47.88
49.23
51.01
53.16
55.48
57.59
58.99
59.28
58.28
56.14
53.25
50.03
46.73
43.32
39.65
35.58
31.13
26.44
21.63
16.71
11.58
6.15
0.51
-5.1
-10.38
-15.29
-20.16
-25.57
-32.01
-39.4
-46.78
-52.49
-54.69
-52.05
-44.37
-32.68
-18.9
-5.16
6.86
16.36
23.4
28.5
32.19
34.69
35.93
35.72
34.11
31.48
28.49
25.82
23.92
22.87
22.39
22.01
21.31
19.98
18.01
15.59
13.12
11.08
9.98
10.16
11.67
14.2
17.09
19.44
20.4
19.35
16.12
11.03
4.82
-1.61
-7.45
-12.2
-15.79
-18.55
-20.96
-23.49
-26.36
-29.44
-32.37
-34.77
-36.51
-37.88
-39.56
-42.34
-46.71
-52.52
-58.95
-64.77
-68.95
-71.07
-71.58
-71.53
-72.14
-74.14
-77.48
-81.3
-84.31
-85.22
-83.23
-78.23
-70.79
-61.99
-53.01
-44.91
-38.3
-33.31
-29.69
-27.03
-24.98
-23.39
-22.28
-21.79
-22.04
-23.04
-24.68
-26.8
-29.25
-31.84
-34.4
-36.78
-38.89
-40.82
-42.91
-45.66
-49.54
-54.65
-60.42
-65.57
-68.33
-66.98
-60.39
-48.42
-31.98
-12.72
7.48
26.92
44.47
59.55
72.06
82.19
90.32
96.86
102.24
106.87
111.01
114.74
117.96
120.45
122.03
122.69
122.67
122.42
122.39
122.97
124.24
126.05
127.95
129.39
129.78
128.64
125.81
121.53
116.38
111.07
106.14
101.72
97.45
92.74
87.1
80.46
73.22
66.03
59.38
53.15
46.34
37.17
23.55
3.6
-23.55
-57.39
-95.8
-135.35
-171.95
-201.66
-221.58
-230.4
-228.59
-218.1
-201.67
-182.01
-161.17
-140.29
-119.81
-99.92
-81.03
-63.93
-49.53
-38.51
-30.93
-26.23
-23.35
-21.16
-18.72
-15.43
-11.01
-5.45
0.87
7.27
12.74
16.21
16.87
14.48
9.49
2.82
-4.43
-11.27
-17.05
-21.41
-24.27
-25.81
-26.47
-27.05
-28.55
-31.84
-37.23
-44.17
-51.25
-56.62
-58.56
-56.05
-49.03
-38.24
-24.98
-10.71
3.15
15.37
25.03
31.73
35.65
37.57
38.65
39.97
42.11
45.01
48.1
50.62
52.05
52.32
51.72
50.72
49.68
48.76
47.88
46.88
45.55
43.78
41.52
38.81
35.67
32.11
28.06
23.43
18.18
12.47
6.65
1.18
-3.61
-7.7
-11.62
-16.27
-22.49
-30.68
-40.32
-49.97
-57.6
-61.22
-59.49
-52.21
-40.25
-25.29
-9.18
6.43
20.46
32.27
41.6
48.35
52.54
54.36
54.21
52.66
50.32
47.73
45.21
42.9
40.87
39.18
37.99
37.5
37.89
39.16
41.11
43.35
45.31
46.49
46.52
45.28
42.92
39.77
36.16
32.28
28.1
23.43
18.03
11.8
4.9
-2.32
-9.41
-15.98
-21.78
-26.81
-31.31
-35.75
-40.74
-46.82
-54.14
-62.09
-69.19
-73.33
-72.31
-64.67
-50.23
-30.17
-6.67
17.85
41.43
62.87
81.72
97.94
111.61
122.76
131.37
137.38
140.79
141.68
140.33
137.41
133.9
130.81
128.81
127.74
126.64
124.08
118.66
109.45
96.02
78.16
55.62
28.16
-3.98
-39.62
-76.38
-111.11
-140.85
-163.74
-179.71
-190.24
-197.69
-204.41
-211.99
-221.08
-231.38
-242.02
-251.64
-258.47
-260.45
-255.53
-242.31
-220.72
-192.35
-160.19
-127.67
-97.46
-70.58
-46.21
-22.43
2.64
29.74
58.0
85.32
109.23
127.88
140.66
148.24
152.08
153.81
154.64
155.16
155.37
154.95
153.49
150.65
146.27
140.32
132.86
124.0
113.82
102.36
89.59
75.5
60.03
43.07
24.52
4.37
-17.09
-39.22
-60.93
-81.01
-98.39
-112.59
-123.82
-132.94
-141.16
-149.64
-159.09
-169.48
-179.82
-188.28
-192.47
-190.09
-179.71
-161.42
-136.89
-109.03
-81.15
-56.05
-35.41
-19.76
-8.73
-1.54
2.63
4.52
4.74
3.92
2.66
1.5
0.87
1.04
2.16
4.24
7.23
10.88
14.78
18.37
21.05
22.33
21.88
19.72
16.07
11.36
6.07
0.65
-4.62
-9.68
-14.6
-19.57
-24.65
-29.73
-34.52
-38.73
-42.18
-45.05
-47.79
-51.06
-55.48
-61.45
-68.95
-77.48
-86.02
-93.08
-96.82
-95.51
-87.95
-73.93
-54.44
-31.41
-7.25
15.89
36.52
54.0
68.32
79.79
88.74
95.4
99.94
102.55
103.59
103.49
102.81
102.07
101.74
102.1
103.29
105.24
107.82
110.9
114.48
118.6
123.34
128.58
133.97
138.92
142.76
144.94
145.29
144.04
141.81
139.36
137.4
136.28
135.86
135.52
134.16
130.39
122.74
109.95
91.35
67.17
38.67
8.09
-21.92
-48.98
-71.64
-89.67
-103.92
-115.78
-126.54
-136.9
-146.73
-155.17
-160.75
-161.78
-156.68
-144.44
-125.05
-99.7
-70.81
-41.5
-14.97
6.35
21.23
29.85
33.49
34.03
33.34
32.85
33.28
34.61
36.26
37.27
36.63
33.44
27.25
18.22
7.18
-4.51
-15.4
-24.34
-30.89
-35.29
-38.22
-40.34
-42.02
-43.34
-44.31
-45.14
-46.32
-48.44
-51.88
-56.51
-61.65
-66.17
-68.76
-68.26
-63.81
-55.04
-42.25
-26.5
-9.57
6.38
19.33
28.12
32.75
34.38
34.77
35.61
37.85
41.5
45.82
49.73
52.37
53.32
52.67
50.78
48.1
45.01
41.76
