17.62
-11.6
-35.59
-55.47
-73.89
-92.78
-111.94
-129.21
-141.79
-147.74
-146.68
-139.33
-126.64
-109.12
-86.97
-60.72
-31.85
-2.86
23.41
44.62
59.57
68.41
72.26
72.73
71.57
70.49
71.05
74.43
81.36
91.8
104.93
119.4
133.62
146.19
156.25
163.54
168.32
171.0
171.7
170.0
164.91
155.25
140.31
120.51
97.54
74.12
53.1
36.51
24.91
17.31
11.84
6.52
0.01
-8.19
-17.83
-28.29
-38.71
-47.99
-54.69
-57.14
-53.92
-44.36
-29.09
-10.0
10.22
28.93
44.18
55.01
61.34
63.61
62.43
58.56
52.83
46.23
39.75
34.11
29.68
26.4
23.97
21.92
19.84
17.33
14.2
10.65
7.36
5.27
5.09
6.63
8.44
8.17
3.44
-7.01
-22.78
-41.82
-61.34
-78.8
-92.55
-102.13
-107.88
-110.66
-111.47
-111.41
-111.54
-112.75
-115.5
-119.59
-124.06
-127.28
-127.3
-122.32
-111.22
-94.03
-72.01
-47.51
-23.21
-1.43
16.53
30.57
41.45
50.17
57.46
63.46
67.9
70.45
71.14
70.52
69.48
69.01
69.75
71.9
75.14
78.88
82.42
85.18
86.68
86.68
85.07
81.88
77.3
71.64
65.21
58.23
50.67
42.27
32.67
21.67
9.42
-3.45
-15.91
-26.84
-35.41
-41.35
-45.19
-48.04
-51.24
-55.92
-62.5
-70.48
-78.47
-84.44
-86.31
-82.41
-71.99
-55.47
-34.44
-11.25
11.41
31.27
46.98
58.32
66.1
71.62
76.1
80.19
83.86
86.64
88.08
88.09
87.09
85.88
85.21
85.55
86.89
88.95
91.29
93.52
95.19
95.73
94.55
91.2
85.82
79.21
72.67
67.24
63.04
58.89
52.76
42.7
27.89
9.11
-11.61
-31.94
-50.38
-66.66
-81.5
-95.76
-109.67
-122.47
-132.67
-138.75
-139.74
-135.5
-126.51
-113.54
-97.22
-77.91
-55.79
-31.26
-5.24
20.76
44.8
65.13
80.86
92.47
101.91
112.16
126.49
147.72
177.38
215.12
258.27
301.98
340.0
366.22
376.47
369.89
349.18
319.43
286.26
254.02
224.87
199.11
176.21
155.72
137.62
122.09
108.99
97.69
87.26
76.91
66.28
55.56
45.25
35.82
27.53
20.31
13.83
7.69
1.69
-4.03
-8.84
-11.71
-11.57
-7.77
-0.33
9.94
21.81
33.94
45.41
55.67
64.53
71.88
77.53
81.19
82.56
81.39
77.56
70.97
61.58
49.47
34.93
18.56
1.2
-16.38
-33.74
-50.89
-68.25
-86.36
-105.59
-125.79
-146.29
-165.96
-183.44
-197.43
-207.05
-212.0
-212.71
-210.2
-205.82
-200.84
-196.11
-192.0
-188.41
-185.14
-182.04
-179.15
-176.59
-174.45
-172.67
-171.07
-169.47
-167.76
-165.83
-163.47
-160.24
-155.49
-148.63
-139.44
-128.29
-116.18
-104.45
-94.34
-86.57
-81.18
-77.54
-74.73
-71.9
-68.56
-64.66
-60.47
-56.36
-52.54
-48.99
-45.48
-41.71
-37.57
-33.17
-28.89
-25.15
-22.21
-20.0
-18.24
-16.6
-14.95
-13.48
-12.64
-12.82
-14.15
-16.36
-18.88
-21.13
-22.75
-23.76
-24.41
-25.07
-26.04
-27.53
-29.78
-33.04
-37.58
-43.44
-50.22
-57.07
-62.79
-66.31
-66.96
-64.74
-60.25
-54.35
-47.82
-41.08
-34.16
-26.83
-18.86
-10.19
-0.99
8.44
17.76
26.78
35.37
43.44
50.84
57.32
62.57
66.33
68.44
68.99
68.23
66.52
64.2
61.47
58.37
54.8
50.57
45.51
39.51
32.62
24.97
16.75
8.19
-0.45
-8.88
-16.83
-24.07
-30.51
-36.28
-41.66
-47.0
-52.55
-58.39
-64.31
-69.86
-74.49
-77.59
-78.71
-77.64
-74.4
-69.33
-62.89
-55.66
-48.15
-40.76
-33.62
-26.64
-19.59
-12.27
-4.58
3.28
10.94
17.96
24.01
29.03
33.15
36.66
39.79
42.61
45.0
46.74
47.65
47.68
46.97
45.71
44.08
42.16
39.89
37.12
33.7
29.56
24.7
19.12
12.82
5.8
-1.9
-10.11
-18.53
-26.84
-34.69
-41.81
-47.87
-52.5
-55.27
-55.94
-54.58
-51.62
-47.72
-43.34
-38.57
-33.05
-26.26
-17.89
-8.2
2.1
12.06
20.92
28.31
34.25
38.99
42.64
45.16
46.3
45.85
43.81
40.48
36.51
32.61
29.36
26.99
25.35
24.0
22.47
20.52
18.17
15.66
13.15
10.61
7.71
4.06
-0.57
-6.04
-11.79
-17.11
-21.29
-23.95
-25.05
-24.83
-23.65
-21.91
-20.02
-18.33
-17.18
-16.69
-16.72
-16.77
-16.06
-13.81
-9.41
-2.73
5.96
15.99
26.62
37.18
47.19
56.32
64.34
71.02
76.16
79.66
81.61
82.29
82.09
81.29
80.02
78.26
75.92
72.98
69.51
65.63
61.29
56.32
50.32
42.92
33.91
23.39
11.7
-0.62
-13.0
-24.97
-36.23
-46.67
-56.39
-65.59
-74.5
-83.23
-91.76
-99.86
-107.18
-113.33
-118.02
-121.17
-122.95
-123.69
-123.62
-122.67
-120.37
-115.96
-108.8
-98.73
-86.29
-72.49
-58.54
-45.3
-33.09
-21.76
-10.97
-0.48
9.65
19.14
27.71
35.15
41.45
46.7
51.01
54.5
57.26
59.41
61.09
62.38
63.24
63.53
62.99
61.39
58.68
54.98
50.6
45.97
41.47
37.34
33.71
30.56
27.82
25.42
23.25
21.24
19.25
17.23
15.13
12.97
10.76
8.48
6.05
3.36
0.35
-3.05
-6.74
-10.56
-14.21
-17.29
-19.39
-20.22
-19.71
-18.12
-15.93
-13.74
-12.03
-11.01
-10.68
-10.87
-11.42
-12.22
-13.19
-14.28
-15.36
-16.32
-17.04
-17.43
-17.38
-16.78
-15.52
-13.63
-11.26
-8.71
-6.29
-4.15
-2.24
-0.24
2.23
5.54
9.91
15.38
21.82
28.93
36.3
43.43
49.8
54.9
58.38
60.05
59.93
58.23
55.24
51.34
46.89
42.15
37.28
32.36
27.43
22.54
17.82
13.35
9.18
5.2
1.18
-3.17
-7.96
-13.17
-18.6
-24.11
-29.63
-35.27
-41.09
-46.94
-52.32
-56.51
-58.86
-59.09
-57.46
-54.62
-51.29
-47.89
-44.42
-40.59
-36.14
-31.04
-25.59
-20.23
-15.37
-11.22
-7.73
-4.76
-2.22
-0.13
1.34
2.04
1.92
1.1
-0.18
-1.62
-3.04
-4.43
-5.95
-7.92
-10.6
-14.03
-17.99
-21.93
-25.22
-27.27
-27.77
-26.75
-24.56
-21.76
-18.9
-16.43
-14.59
-13.41
-12.78
-12.49
-12.29
-11.97
-11.39
-10.62
-9.84
-9.35
-9.39
-9.96
-10.76
-11.21
-10.68
-8.62
-4.77
0.76
7.56
15.07
22.66
29.77
35.95
40.89
44.49
46.85
48.27
49.04
49.34
49.15
48.27
46.47
43.57
39.7
35.1
30.11
24.99
19.86
14.63
9.19
3.47
-2.5
-8.39
-13.72
-17.84
-20.13
-20.22
-18.13
-14.34
-9.72
-5.25
-1.67
0.58
1.51
1.38
0.56
-0.63
-1.88
-2.91
-3.52
-3.62
-3.38
-3.16
-3.37
-4.26
-5.59
-6.77
-6.95
-5.42
-1.9
3.36
9.72
16.41
22.8
28.54
33.53
37.78
41.29
43.89
45.34
45.37
43.88
40.99
37.04
32.46
27.67
22.91
18.25
13.57
8.73
3.74
-1.21
-5.68
-9.18
-11.32
-11.99
-11.4
-9.99
-8.31
-6.79
-5.74
-5.27
-5.42
-6.18
-7.55
-9.41
-11.59
-13.77
-15.62
-16.93
-17.69
-18.11
-18.57
-19.34
-20.52
-21.84
-22.79
-22.82
-21.51
-18.77
-14.79
-9.85
-4.23
1.95
8.65
15.79
23.09
30.02
35.85
39.94
41.83
41.5
39.28
35.64
31.06
25.82
20.07
14.04
8.12
2.94
-0.93
-3.18
-3.96
-3.91
-3.85
-4.43
-5.87
-8.02
-10.44
-12.83
-15.09
-17.32
-19.65
-22.02
-24.07
-25.31
-25.35
-24.07
-21.69
-18.58
-15.1
-11.56
-8.23
-5.48
-3.72
-3.19
-3.67
-4.41
-4.38
-2.78
0.56
4.98
9.36
12.71
14.62
15.37
15.58
15.7
15.7
15.17
13.64
11.01
7.64
4.11
0.88
-2.06
-5.11
-8.78
-13.24
-18.1
-22.44
-25.18
-25.54
-23.31
-18.88
-13.1
-6.95
-1.27
3.34
6.66
8.82
10.23
11.5
13.14
15.31
17.68
19.53
19.98
18.5
15.12
10.53
5.8
2.01
-0.04
-0.07
1.78
5.1
9.33
13.83
17.99
21.24
23.23
23.78
23.02
21.27
18.94
16.49
14.29
12.52
11.14
9.86
8.22
5.79
2.47
-1.42
-5.12
-7.76
-8.6
-7.29
-3.96
0.86
6.48
12.14
17.15
20.93
23.15
23.8
23.19
21.88
20.48
19.42
18.79
18.33
17.69
16.58
14.96
13.03
11.0
8.92
6.62
3.68
-0.22
-5.25
-11.25
-17.98
-25.22
-32.97
-41.26
-49.95
-58.43
-65.66
-70.56
-72.45
-71.52
-68.67
-65.13
-61.84
-59.06
-56.4
-53.34
-49.64
-45.57
-41.66
-38.25
-35.1
-31.39
-26.13
-18.71
-9.19
1.66
12.86
23.6
33.49
42.54
50.75
57.78
62.96
65.48
64.8
61.0
54.78
47.27
39.66
32.86
27.37
23.32
20.62
19.08
18.49
18.58
19.06
19.59
19.88
19.68
18.95
17.71
16.13
14.37
12.51
10.57
8.46
6.12
3.54
0.85
-1.77
-4.15
-6.22
-8.07
-9.89
-11.92
-14.34
-17.21
-20.31
-23.25
-25.43
-26.2
-25.03
-21.7
-16.42
-9.8
-2.65
4.25
10.36
15.5
19.73
23.21
26.07
28.32
29.96
31.05
31.72
32.21
32.68
33.21
33.78
34.34
34.91
35.64
36.7
38.17
39.88
41.44
42.34
42.08
40.36
37.09
32.39
26.47
19.62
12.1
4.17
-4.0
-12.39
-21.15
-30.66
-41.31
-53.37
-66.82
-81.17
-95.61
-108.99
-120.05
-127.56
-130.61
-128.71
-122.08
-111.5
-98.2
-83.54
-68.76
-54.75
-42.01
-30.7
-20.66
-11.55
-2.93
5.63
14.41
23.41
32.38
40.87
48.41
54.66
59.42
62.63
64.32
64.56
63.51
61.41
58.53
55.15
51.45
47.47
43.17
38.44
33.23
27.58
21.7
15.86
10.39
5.53
1.36
-2.18
-5.31
-8.32
-11.51
-15.04
-18.86
-22.64
-25.79
-27.6
-27.44
-25.01
-20.45
-14.33
-7.44
-0.63
5.52
10.69
14.78
17.8
19.75
20.64
20.57
19.71
18.37
16.91
15.65
14.81
14.53
14.89
15.88
17.43
19.38
21.51
23.56
25.31
26.67
27.67
28.42
29.05
29.62
30.1
30.43
30.55
30.45
30.11
29.56
28.67
27.29
25.18
22.13
18.0
12.75
6.39
-1.02
-9.31
-18.14
-26.94
-34.96
-41.37
-45.56
-47.29
-46.79
-44.7
-41.91
-39.31
-37.61
-37.23
-38.32
-40.7
-44.0
-47.73
-51.35
-54.45
-56.83
-58.5
-59.6
-60.23
-60.35
-59.73
-58.04
-55.0
-50.59
-45.01
-38.64
-31.82
-24.8
-17.75
-10.77
-4.09
2.04
7.39
11.88
15.68
19.08
22.26
25.28
27.92
29.92
31.11
31.53
31.44
31.16
30.9
30.7
30.39
29.71
28.54
26.94
25.21
23.9
23.64
24.93
28.01
32.71
38.5
44.6
50.22
54.78
57.95
59.72
60.19
59.47
57.61
54.55
50.26
44.89
38.71
32.13
25.58
19.34
13.51
8.0
2.69
-2.45
-7.36
-11.86
-15.77
-19.05
-21.81
-24.26
-26.64
-29.16
-31.88
-34.77
-37.72
-40.61
-43.33
-45.82
-47.97
-49.62
-50.58
-50.7
-49.95
-48.45
-46.42
-44.08
-41.55
-38.94
-36.37
-34.18
-32.81
-32.6
-33.42
-34.47
-34.41
-31.83
-25.8
-16.35
-4.42
8.49
20.95
32.1
41.72
50.11
57.6
64.24
69.69
73.37
74.76
73.68
70.42
65.64
60.13
54.57
49.38
44.74
40.68
37.22
34.38
32.11
30.3
28.72
27.11
25.28
23.16
20.8
18.24
15.46
12.39
8.92
5.04
0.86
-3.43
-7.7
-11.88
-15.96
-19.85
-23.38
-26.26
-28.35
-29.76
-30.99
-32.81
-35.97
-40.89
-47.51
-55.31
-63.51
-71.28
-77.85
-82.47
-84.5
-83.38
-78.85
-71.16
-61.14
-50.08
-39.35
-30.07
-22.75
-17.28
-13.05
-9.28
-5.32
-0.81
4.34
10.08
16.36
23.17
30.46
37.99
45.41
52.17
57.83
62.13
65.06
66.8
67.51
67.21
65.79
63.11
59.21
54.38
49.08
43.8
38.8
34.02
29.2
24.0
18.24
11.98
5.43
-1.16
-7.7
-14.33
-21.23
-28.58
-36.33
-44.21
-51.84
-58.82
-64.73
-69.17
-71.65
-71.66
-68.78
-62.98
-54.77
-45.19
-35.51
-26.85
-19.79
-14.28
-9.85
-5.91
-2.08
1.7
5.35
8.84
12.36
16.22
20.68
25.72
31.03
36.13
40.64
44.44
47.61
50.23
52.14
52.95
52.2
49.64
45.51
40.43
35.18
30.37
26.24
22.67
19.42
16.31
13.36
10.74
8.53
6.67
4.82
2.63
-0.17
-3.62
-7.46
-11.2
-14.29
-16.2
-16.57
-15.2
-12.09
-7.49
-1.79
4.38
10.33
15.33
18.76
20.26
19.7
17.25
13.19
7.92
1.73
-5.13
-12.5
-20.27
-28.3
-36.43
-44.49
-52.37
-59.93
-67.05
-73.48
-78.77
-82.36
-83.8
-83.01
-80.36
-76.66
-72.71
-69.03
-65.58
-61.89
-57.38
-51.66
-44.75
-36.98
-28.89
-21.04
-13.92
-7.92
-3.31
-0.15
1.82
3.15
4.56
6.74
10.16
14.96
20.99
27.89
35.15
42.23
48.59
53.86
58.02
61.46
64.91
69.03
74.04
79.46
84.14
86.65
85.93
81.69
74.54
65.79
56.88
48.97
42.6
37.78
34.15
31.27
28.77
26.38
23.96
21.42
18.68
15.73
12.6
9.41
6.29
3.42
0.86
-1.42
-3.52
-5.6
-7.77
-10.06
-12.45
-15.0
-17.89
-21.48
-26.06
-31.66
-37.84
-43.69
-48.14
-50.34
-50.15
-48.14
-45.43
-43.19
-42.21
-42.71
-44.44
-46.92
-49.68
-52.33
-54.5
-55.79
-55.81
-54.37
-51.52
-47.62
-43.09
-38.25
-33.14
-27.66
-21.61
-14.9
-7.63
-0.08
7.41
14.44
20.64
25.76
29.72
32.65
34.85
36.68
38.4
40.07
41.54
42.56
42.87
42.2
40.35
37.2
32.73
27.24
21.36
16.05
12.32
10.96
12.25
15.87
21.03
26.74
32.15
36.66
40.0
42.06
42.83
42.27
40.4
37.3
33.2
28.43
23.4
18.54
14.2
10.63
7.91
6.01
4.74
3.92
3.38
3.04
2.91
2.96
3.09
3.14
2.83
2.02
0.61
-1.29
-3.5
-5.82
-8.13
-10.38
-12.64
-15.06
-17.79
-21.1
-25.16
-30.1
-35.78
-41.81
-47.5
-52.1
-55.01
-56.0
-55.3
-53.56
-51.58
-50.17
-49.88
-50.91
-53.01
-55.57
-57.77
-58.8
-58.15
-55.8
-52.24
-48.23
-44.36
-40.81
-37.16
-32.57
-26.22
-17.65
-6.99
5.11
17.74
30.07
41.53
51.79
60.7
68.1
73.82
77.75
79.85
80.23
79.16
76.89
73.7
69.75
65.19
60.09
54.54
48.6
42.39
35.97
29.39
22.65
15.68
8.47
1.15
-5.81
-11.75
-15.9
-17.69
-16.99
-14.15
-9.91
-5.08
-0.4
3.69
7.0
9.54
11.33
12.46
12.99
12.99
12.54
11.72
10.6
9.32
8.02
6.83
5.82
4.97
4.14
3.24
2.25
1.18
0.13
-0.85
-1.79
-2.75
-3.79
-4.94
-6.17
-7.43
-8.7
-9.99
-11.32
-12.66
-13.96
-15.15
-16.22
-17.3
-18.61
-20.41
-22.79
-25.59
-28.31
-30.2
-30.5
-28.67
-24.62
-18.84
-12.22
-5.75
-0.21
4.12
7.42
10.17
12.75
15.15
17.02
17.74
16.9
14.52
11.09
7.42
4.23
1.88
0.22
-1.23
-3.05
-5.71
-9.35
-13.88
-19.0
-24.25
-29.04
-32.63
-34.35
-33.94
-31.9
-29.44
-28.2
-29.49
-33.54
-39.21
-44.36
-46.67
-44.77
-38.71
-29.93
-20.53
-12.33
-6.28
-2.46
-0.33
0.79
1.52
2.35
3.78
6.34
10.36
15.82
22.19
28.51
33.76
37.19
38.64
38.5
37.42
36.11
34.98
34.06
33.13
31.87
30.06
27.74
25.11
22.55
20.38
18.79
17.79
17.26
17.03
16.95
16.95
16.97
16.98
16.88
16.51
15.71
14.4
12.63
10.59
8.44
6.26
3.94
1.28
-1.91
-5.65
-9.77
-13.86
-17.52
-20.42
-22.42
-23.66
-24.51
-25.48
-27.03
-29.4
-32.4
-35.33
-37.18
-36.97
-34.16
-28.75
-21.3
-12.68
-3.87
4.13
10.32
13.82
14.01
10.94
5.45
-0.97
-6.59
-10.16
-11.21
-10.14
-7.67
-4.4
-0.51
4.22
9.94
16.48
23.17
29.19
33.92
37.19
39.3
40.72
41.74
42.19
41.57
39.34
35.24
29.51
22.81
15.93
9.51
3.93
-0.74
-4.55
-7.59
-9.91
-11.69
-13.23
-14.94
-17.16
-19.95
-22.94
-25.47
-26.72
-26.0
-22.97
-17.72
-10.78
-2.99
4.71
11.46
16.75
20.44
22.79
24.14
24.78
24.78
24.02
22.46
20.27
17.95
16.07
15.04
14.84
15.07
15.18
14.76
13.76
12.42
11.07
9.85
8.64
7.2
5.36
3.2
0.96
-1.09
-2.88
-4.63
-6.69
-9.42
-12.92
-17.04
-21.45
-25.83
-30.07
-34.24
-38.59
-43.31
-48.44
-53.68
-58.48
-62.0
-63.45
-62.17
-57.81
-50.41
-40.38
-28.55
-16.15
-4.75
4.05
9.02
9.81
7.12
2.57
-1.9
-4.64
-4.86
-2.61
1.47
6.68
12.51
18.74
25.21
31.6
37.43
42.17
45.53
47.51
48.41
48.58
48.2
47.17
45.12
41.72
36.81
30.63
23.74
16.85
10.6
5.3
1.0
-2.58
-5.74
-8.83
-12.07
-15.59
-19.47
-23.62
-27.89
-31.99
-35.52
-38.02
-39.1
-38.48
-36.16
-32.39
-27.61
-22.34
-17.03
-12.0
-7.42
-3.41
-0.13
2.22
3.47
3.68
3.24
2.84
3.23
4.87
7.69
10.96
13.59
14.58
13.47
10.55
6.76
3.33
1.26
1.09
2.83
6.11
10.36
15.03
19.58
23.54
26.42
27.86
27.59
25.55
21.86
16.92
11.22
5.33
-0.25
-5.24
-9.55
-13.24
-16.35
-18.73
-20.06
-19.97
-18.18
-14.75
-10.03
-4.68
0.62
5.32
9.07
11.82
13.64
14.65
14.92
14.44
13.17
11.16
8.63
5.91
3.41
1.49
0.3
-0.18
-0.09
0.41
1.21
2.22
3.37
4.48
5.37
5.85
5.79
5.13
3.85
2.01
-0.32
-2.95
-5.68
-8.26
-10.57
-12.62
-14.65
-16.93
-19.75
-23.15
-26.8
-30.03
-31.95
-31.75
-28.96
-23.72
-16.74
-9.1
-1.9
4.07
8.41
11.03
11.98
11.39
9.59
7.08
4.54
2.55
1.24
0.21
-1.39
-4.35
-8.92
-14.65
-20.46
-25.14
-27.82
-28.17
-26.38
-22.9
-18.22
-12.83
-7.23
-1.94
2.6
6.16
8.87
11.13
13.37
15.74
17.93
19.22
18.83
16.19
11.41
5.21
-1.16
-6.35
-9.25
-9.3
-6.64
-1.9
3.95
9.93
15.28
19.54
22.47
24.0
24.17
23.17
21.28
18.95
16.64
14.73
13.45
12.78
12.51
12.34
12.01
11.33
10.31
9.12
7.99
7.11
6.61
6.41
6.37
6.28
5.95
5.2
3.84
1.67
-1.45
-5.44
-10.0
-14.65
-18.87
-22.4
-25.23
-27.5
-29.26
-30.28
-30.12
-28.3
-24.63
-19.4
-13.35
-7.3
-1.96
2.38
5.77
8.47
10.67
12.39
13.43
13.53
12.52
10.54
7.97
5.4
3.34
2.13
1.77
2.05
2.61
3.13
3.38
3.31
3.06
2.87
2.96
3.4
4.04
4.54
4.47
3.57
1.79
-0.73
-3.72
-6.93
-10.09
-12.87
-14.82
-15.42
-14.31
-11.44
-7.28
-2.64
1.54
4.51
5.95
5.94
4.84
3.13
1.18
-0.76
-2.61
-4.36
-6.0
-7.53
-8.85
-9.91
-10.66
-11.12
-11.34
-11.4
-11.36
-11.28
-11.16
-11.01
-10.86
-10.75
-10.74
-10.88
-11.26
-11.92
-12.83
-13.93
-15.06
-16.17
-17.26
-18.59
-20.47
-23.13
-26.36
-29.52
-31.52
-31.23
-27.92
-21.48
-12.51
-2.02
8.85
19.1
27.89
34.52
38.47
39.49
37.8
34.12
29.59
25.45
22.62
21.5
21.93
23.44
25.51
27.76
30.0
32.02
33.49
33.95
32.96
30.37
26.35
21.47
16.39
11.61
7.33
3.48
-0.15
-3.71
-7.2
-10.49
-13.47
-16.15
-18.69
-21.39
-24.53
-28.25
-32.45
-36.68
-40.26
-42.41
-42.48
-40.18
-35.73
-29.74
-23.07
-16.54
-10.72
-5.92
-2.2
0.5
2.26
3.2
3.47
3.28
2.91
2.59
2.51
2.76
3.35
4.28
5.57
7.3
9.52
12.2
15.19
18.18
20.76
22.51
23.13
22.54
20.93
18.67
16.24
14.0
12.12
10.53
9.0
7.15
4.73
1.54
-2.44
-7.04
-11.81
-16.04
-18.82
-19.31
-17.05
-12.19
-5.51
1.8
8.56
13.97
17.72
19.95
21.03
21.27
20.88
19.92
18.45
16.55
14.26
11.67
8.89
6.18
3.94
2.62
2.55
3.67
5.53
7.34
8.39
8.3
7.26
5.74
4.25
2.91
1.46
-0.5
-3.07
-5.81
-7.91
-8.64
-7.9
-6.3
-5.0
-5.03
-6.82
-10.07
-14.01
-17.8
-20.87
-22.92
-23.71
-22.92
-20.17
-15.21
-8.25
0.02
8.62
16.65
23.58
29.35
34.15
38.11
41.11
42.72
42.52
40.28
36.21
30.89
25.07
19.43
14.4
10.16
6.71
3.96
1.79
0.03
-1.52
-3.11
-4.92
-6.92
-8.86
-10.31
-10.81
-10.15
-8.44
-6.18
-4.05
-2.71
-2.5
-3.43
-5.21
-7.43
-9.78
-12.13
-14.49
-17.03
-19.9
-23.29
-27.29
-31.89
-36.82
-41.45
-44.83
-45.91
-43.89
-38.52
-30.35
-20.5
-10.34
-0.94
7.21
14.18
20.33
25.82
30.41
33.51
34.48
33.09
29.74
25.32
20.9
17.27
14.73
13.13
12.07
11.16
10.21
9.18
8.02
6.65
4.9
2.62
-0.25
-3.57
-7.08
-10.38
-13.13
-15.09
-16.29
-17.03
-17.81
-19.17
-21.46
-24.7
-28.55
-32.37
-35.46
-37.24
-37.36
-35.71
-32.41
-27.77
-22.16
-15.99
-9.69
-3.66
1.77
6.3
9.71
11.93
13.11
13.56
13.66
13.74
14.01
14.56
15.33
16.21
16.83
16.63
14.96
11.35
5.89
-0.61
-6.83
-11.37
-13.34
-12.69
-10.1
-6.5
-2.66
1.05
4.59
7.9
10.74
12.66
13.24
12.25
9.81
6.27
2.08
-2.43
-7.04
-11.6
-16.03
-20.16
-23.81
-26.72
-28.59
-29.14
-28.11
-25.41
-21.16
-15.75
-9.73
-3.66
2.03
7.11
11.55
15.4
18.68
21.32
23.16
24.07
24.03
23.25
22.06
20.87
20.04
19.78
20.14
20.99
22.19
23.62
25.22
26.93
28.56
29.86
30.45
30.04
28.54
26.21
23.49
20.94
18.83
17.12
15.48
13.49
10.9
7.79
4.54
1.65
-0.58
-2.13
-3.3
-4.59
-6.45
-9.04
-12.11
-15.13
-17.29
-17.93
-16.61
-13.4
-8.77
-3.51
1.43
5.23
7.29
7.34
5.52
2.43
-1.08
-4.15
-6.36
-7.85
-9.35
-11.71
-15.31
-19.73
-23.9
-26.62
-27.24
-25.89
-23.36
-20.48
-17.62
-14.56
-10.82
-6.18
-1.0
3.82
7.42
9.36
9.92
9.86
9.97
10.68
11.82
12.71
12.52
10.6
6.71
1.19
-5.29
-11.85
-17.77
-22.57
-26.06
-28.24
-29.08
-28.41
-26.01
-21.73
-15.73
-8.62
-1.29
5.31
10.49
13.95
15.75
16.23
15.75
14.63
13.07
11.24
9.33
7.58
6.25
5.6
5.7
6.32
6.95
6.94
5.84
3.71
1.1
-1.17
-2.46
-2.7
-2.34
-2.06
-2.4
-3.44
-4.84
-6.14
-7.12
-7.87
-8.77
-10.17
-12.15
-14.46
-16.67
-18.31
-19.14
-19.32
-19.37
-19.99
-21.72
-24.66
-28.31
-31.68
-33.61
-33.2
-30.08
-24.47
-17.06
-8.73
-0.3
7.58
14.42
19.91
23.81
26.01
26.59
25.81
24.1
21.96
19.83
17.94
16.4
15.18
14.24
13.55
13.13
12.92
12.89
12.93
12.95
12.91
12.79
12.54
12.1
11.31
10.04
8.18
5.75
2.84
-0.38
-3.76
-7.23
-10.76
-14.37
-18.05
-21.72
-25.23
-28.39
-31.16
-33.66
-36.14
-38.79
-41.5
-43.7
-44.42
-42.71
-38.09
-30.89
-22.28
-13.74
-6.45
-0.84
3.54
7.52
11.76
16.37
20.79
24.26
26.25
26.82
26.53
26.17
26.41
27.52
29.43
31.81
34.28
36.42
37.88
38.31
37.4
34.98
31.17
26.34
21.14
16.23
12.14
9.03
6.78
5.01
3.31
1.38
-0.9
-3.51
-6.34
-9.3
-12.31
-15.36
-18.44
-21.54
-24.69
-27.76
-30.42
-32.06
-31.91
-29.31
-23.96
-16.19
-6.8
3.09
12.44
20.55
27.13
32.17
35.75
37.99
38.93
38.73
37.73
36.33
34.94
33.78
32.85
31.95
30.9
29.55
27.87
25.89
23.64
21.09
18.19
14.92
11.28
7.3
2.94
-1.93
-7.49
-13.88
-21.08
-28.87
-36.9
-44.77
-52.23
-59.22
-65.73
-71.62
-76.6
-80.13
-81.82
-81.62
-80.08
-78.17
-76.88
-76.77
-77.63
-78.55
-78.3
-75.86
-70.74
-63.03
-53.26
-42.03
-29.9
-17.39
-5.07
6.47
16.63
25.08
31.82
37.2
41.74
45.91
50.04
54.25
58.56
63.01
67.73
72.89
78.57
84.69
90.9
96.6
101.02
103.35
102.94
99.48
93.18
84.7
75.05
65.26
56.01
47.5
39.41
31.16
22.22
12.34
1.66
-9.41
-20.43
-31.07
-41.18
-50.76
-59.86
-68.42
-76.17
-82.59
-87.0
-88.73
-87.42
-83.11
-76.3
-67.63
-57.71
-46.99
-35.78
-24.42
-13.43
-3.42
5.19
12.31
18.25
23.52
28.54
33.44
38.12
42.52
46.69
50.97
55.71
61.11
67.02
72.91
78.08
81.87
83.85
83.87
82.04
78.63
73.94
68.18
61.45
53.7
44.85
34.88
23.91
12.19
0.06
-12.17
-24.24
-35.99
-47.25
-57.89
-67.82
-76.99
-85.37
-92.88
-99.37
-104.52
-107.98
-109.43
-108.76
-106.05
-101.61
-95.87
-89.39
-82.81
-76.71
-71.52
-67.3
-63.73
-60.11
-55.67
-49.81
-42.36
-33.68
-24.47
-15.57
-7.55
-0.65
5.27
10.53
15.41
20.07
24.47
28.62
32.61
36.69
41.16
46.17
51.59
57.05
62.07
66.37
69.96
73.24
76.79
81.16
86.5
92.47
98.24
102.7
104.72
103.47
98.63
90.47
79.78
67.74
55.6
44.42
34.83
26.96
20.43
14.58
8.63
1.96
-5.78
-14.56
-24.08
-33.85
-43.41
-52.41
-60.74
-68.48
-75.72
-82.38
-88.09
-92.25
-94.27
-93.81
-90.99
-86.29
-80.35
-73.71
-66.64
-59.15
-51.23
-42.97
-34.67
-26.86
-20.07
-14.66
-10.78
-8.33
-7.07
-6.68
-6.9
-7.49
-8.41
-9.65
-11.31
-13.45
-15.97
-18.62
-21.02
-22.76
-23.49
-23.01
-21.21
-18.05
-13.44
-7.3
0.32
9.09
18.34
27.12
34.48
39.76
42.78
43.77
43.2
41.51
39.05
36.03
32.62
29.05
25.69
22.85
20.81
19.63
19.16
19.16
19.27
19.25
18.95
18.39
17.68
16.87
15.94
14.68
12.89
10.42
7.35
3.9
0.35
-3.13
-6.53
-9.92
-13.42
-17.03
-20.75
-24.5
-28.16
-31.54
-34.27
-35.87
-35.85
-33.89
-30.0
-24.58
-18.24
-11.6
-5.19
0.69
5.85
10.21
13.72
16.38
18.25
19.55
20.55
21.53
22.76
24.4
26.54
29.17
32.25
35.71
39.48
43.53
47.82
52.3
56.77
60.91
64.32
66.57
67.4
66.71
64.6
61.29
57.02
52.07
46.68
41.17
35.88
31.12
27.04
23.61
20.54
17.33
13.45
8.49
2.38
-4.53
-11.53
-17.66
-21.98
-23.9
-23.28
-20.59
-16.73
-12.9
-10.25
-9.62
-11.35
-15.33
-21.12
-28.21
-36.18
-44.63
-53.09
-60.91
-67.31
-71.67
-73.79
-73.95
-72.78
-70.82
-68.25
-64.82
-60.18
-54.24
-47.45
-40.67
-34.77
-30.23
-26.93
-24.27
-21.61
-18.62
-15.46
-12.62
-10.57
-9.37
-8.69
-7.92
-6.56
-4.54
-2.26
-0.38
0.52
0.24
-0.87
-2.09
-2.55
-1.52
1.44
6.34
12.89
20.62
28.92
37.31
45.32
52.58
58.75
63.51
66.58
67.77
67.05
64.58
60.69
55.84
50.5
45.17
40.28
36.19
33.1
31.02
29.67
28.65
27.45
25.67
23.2
20.17
16.94
13.92
11.42
9.44
7.81
6.19
4.3
2.07
-0.44
-3.03
-5.59
-8.17
-10.95
-14.18
-17.99
-22.32
-26.95
-31.55
-35.74
-39.15
-41.39
-42.11
-41.02
-38.08
-33.57
-28.05
-22.18
-16.56
-11.48
-6.98
-2.95
0.76
4.15
7.08
9.32
10.64
10.94
10.29
9.0
7.52
6.28
5.58
5.49
5.75
5.95
5.64
4.57
2.73
0.4
-2.09
-4.51
-6.88
-9.42
-12.49
-16.39
-21.24
-26.99
-33.43
-40.23
-46.81
-52.44
-56.38
-58.3
-58.57
-58.39
-59.31
-62.54
-68.3
-75.46
-81.89
-85.27
-83.9
-77.22
-65.84
-51.04
-34.38
-17.21
-0.51
15.02
28.9
40.81
50.61
58.3
64.06
68.19
71.01
72.78
73.68
73.77
73.09
71.68
69.69
67.42
65.18
63.22
61.61
60.19
58.66
56.72
54.2
51.19
47.91
44.63
41.52
38.59
35.75
32.8
29.57
25.91
21.7
16.91
11.63
6.0
0.25
-5.41
-10.94
-16.36
-21.83
-27.39
-32.93
-38.08
-42.28
-44.9
-45.44
-43.66
-39.63
-33.78
-26.77
-19.42
-12.48
-6.59
-2.09
0.96
2.72
3.49
3.57
3.26
2.73
2.11
1.45
0.81
0.26
-0.12
-0.2
0.14
0.98
2.25
3.71
4.99
5.63
5.33
4.05
2.01
-0.34
-2.58
-4.49
-6.12
-7.74
-9.75
-12.45
-15.95
-20.18
-24.85
-29.51
-33.59
-36.49
-37.87
-37.82
-36.97
-36.28
-36.67
-38.42
-40.97
-43.01
-43.05
-40.05
-33.86
-25.16
-15.08
-4.65
5.6
15.53
25.26
34.68
43.46
51.09
57.1
61.33
63.91
65.25
65.8
65.9
65.79
65.51
65.03
64.17
62.69
60.37
57.15
53.15
48.68
44.16
39.89
36.0
32.28
28.37
23.85
18.43
12.1
5.1
-2.1
-8.97
-15.05
-20.18
-24.5
-28.49
-32.77
-37.85
-43.89
-50.66
-57.54
-63.7
-68.35
-70.9
-71.12
-69.2
-65.63
-61.14
-56.45
-52.1
-48.26
-44.75
-41.17
-37.15
-32.77
-28.62
-25.72
-25.0
-26.78
-30.45
-34.46
-36.84
-35.99
-31.19
-22.81
-12.05
-0.28
11.35
22.22
32.01
40.5
47.37
52.21
54.76
55.02
53.34
50.25
46.33
41.97
37.34
32.45
27.2
21.54
15.56
9.43
3.35
-2.54
-8.2
-13.61
-18.65
-23.0
-26.13
-27.41
-26.34
-22.79
-17.07
-9.92
-2.27
4.96
10.98
15.32
17.84
18.75
18.47
17.55
16.52
15.68
15.05
14.49
13.79
12.85
11.71
10.56
9.64
9.1
8.96
9.16
9.55
10.0
10.38
10.51
10.26
9.46
8.02
5.95
3.38
0.51
-2.46
-5.36
-8.17
-10.89
-13.51
-16.02
-18.34
-20.46
-22.47
-24.64
-27.25
-30.51
-34.33
-38.21
-41.33
-42.81
-41.95
-38.5
-32.77
-25.46
-17.4
-9.35
-1.82
5.0
11.08
16.41
20.89
24.32
26.53
27.6
27.89
27.93
28.24
29.05
30.19
31.27
31.9
31.88
31.23
30.02
28.17
25.41
21.57
16.77
11.61
6.88
3.1
0.18
-2.64
-6.29
-11.33
-17.52
-23.96
-29.6
-33.78
-36.48
-38.16
-39.24
-39.74
-39.3
-37.48
-34.15
-29.7
-24.92
-20.52
-16.84
-13.7
-10.49
-6.52
-1.26
5.39
13.18
21.59
30.02
37.89
44.68
50.07
53.75
55.52
55.29
53.17
49.54
45.02
40.39
36.43
33.66
32.2
31.83
32.07
32.45
32.68
32.74
32.8
32.99
33.19
32.84
31.12
27.13
20.4
11.19
0.56
-9.86
-18.45
-24.06
-26.43
-26.09
-24.04
-21.26
-18.43
-15.85
-13.57
-11.66
-10.2
-9.27
-8.84
-8.65
-8.33
-7.33
-5.11
-1.12
5.08
13.68
24.36
36.19
47.67
57.11
63.06
64.69
61.94
55.39
45.87
34.22
21.16
7.35
-6.57
-19.87
-31.81
-41.82
-49.62
-55.2
-58.81
-60.84
-61.66
-61.65
-61.15
-60.52
-60.07
-60.01
-60.38
-61.13
-62.2
-63.67
-65.75
-68.65
-72.36
-76.51
-80.49
-83.64
-85.57
-86.24
-85.78
-84.28
-81.54
-77.1
-70.54
-61.74
-51.09
-39.42
-27.79
-17.27
-8.74
-2.81
0.21
0.33
-2.03
-6.1
-10.81
-15.07
-18.0
-19.15
-18.62
-16.97
-14.88
-12.81
-10.61
-7.45
-2.05
6.73
19.33
35.1
52.42
69.15
83.36
93.76
99.78
101.46
99.06
92.97
83.69
72.0
59.05
46.12
34.33
24.31
16.2
9.76
4.67
0.6
-2.74
-5.77
-9.06
-13.15
-18.29
-24.23
-30.12
-34.73
-36.81
-35.5
-30.56
-22.45
-12.15
-0.88
10.21
20.19
28.53
35.07
39.96
43.54
46.19
48.34
50.31
52.2
53.82
54.76
54.55
52.86
49.79
45.75
41.32
37.0
32.98
29.05
24.8
19.8
13.77
6.73
-1.01
-8.87
-16.1
-22.03
-26.18
-28.55
-29.94
-31.75
-35.71
-43.21
-54.61
-68.8
-83.34
-95.07
-101.05
-99.43
-89.93
-73.79
-53.26
-30.94
-9.23
10.09
25.88
37.58
45.15
49.02
49.99
49.17
47.7
46.51
46.01
46.01
45.79
44.34
40.68
34.12
24.45
12.03
-2.21
-16.96
-30.73
-42.13
-50.26
-54.82
-56.11
-54.93
-52.3
-49.19
-46.37
-44.35
-43.46
-43.94
-45.9
-49.3
-53.72
-58.27
-61.76
-62.97
-61.16
-56.33
-49.24
-41.02
-32.6
-24.31
-15.78
-6.25
4.98
18.03
32.36
46.91
60.42
71.89
80.69
86.71
90.22
91.67
91.56
90.24
87.93
84.74
80.8
76.35
71.74
67.36
63.5
60.25
57.42
54.77
52.08
49.38
46.86
44.82
43.39
42.48
41.76
40.86
39.51
37.66
35.42
32.91
30.01
26.4
21.57
15.3
7.84
0.08
-6.63
-11.03
-12.39
-10.91
-7.59
-3.93
-1.25
-0.3
-1.02
-2.69
-4.33
-5.12
-4.6
-2.8
-0.19
2.54
4.5
4.76
2.44
-3.18
-12.43
-25.1
-40.35
-56.79
-72.69
-86.41
-96.63
-102.56
-104.1
-101.8
-96.74
-90.35
-84.14
-79.42
-77.13
-77.71
-81.18
-87.27
-95.43
-104.97
-115.18
-125.32
-134.82
-143.38
-151.02
-157.89
-164.09
-169.66
-174.8
-180.13
-186.83
-196.3
-209.48
-226.12
-244.52
-261.83
-274.88
-280.99
-278.62
-267.37
-247.82
-221.08
-188.59
-151.95
-112.86
-72.92
-33.29
5.61
44.1
82.84
122.15
161.4
198.71
231.37
256.71
273.05
280.16
278.99
270.88
256.69
236.48
209.95
177.32
140.03
100.75
62.53
27.76
-2.52
-28.63
-51.44
-71.49
-88.52
-101.59
-109.72
-112.68
-111.23
-106.77
-100.67
-93.57
-85.18
-74.67
-61.32
-45.24
-27.4
-9.19
8.39
25.43
43.14
63.16
86.48
112.59
139.34
163.56
182.36
194.09
198.68
197.32
191.66
183.16
172.87
161.62
150.25
139.69
130.6
123.04
116.38
109.64
102.12
93.95
86.16
80.37
77.99
79.67
84.93
92.43
100.41
107.38
112.47
115.53
116.91
116.91
115.24
110.63
100.87
83.3
55.83
17.93
-28.49
-79.02
-127.33
-166.64
-191.33
-198.45
-188.22
-163.76
-129.88
-91.68
-53.48
-18.36
11.78
35.91
53.58
65.0
71.07
73.34
73.68
73.79
74.75
76.86
79.91
83.53
87.45
91.59
95.96
100.39
104.27
106.39
104.97
97.94
83.58
61.26
