66.26
55.77
49.39
46.24
44.95
44.31
43.7
43.16
43.14
44.24
46.89
51.24
57.05
63.87
71.07
77.91
83.65
87.63
89.34
88.73
86.21
82.62
79.1
76.86
77.01
80.56
88.45
101.49
120.09
144.03
172.18
202.6
232.82
260.45
283.47
300.32
309.79
310.92
303.15
286.69
262.78
233.67
202.04
170.2
139.39
109.69
80.34
50.56
20.13
-10.37
-39.72
-66.48
-89.23
-106.66
-117.38
-120.09
-113.76
-98.22
-74.54
-45.17
-13.7
15.68
38.87
52.46
54.38
44.34
24.14
-2.63
-31.31
-57.52
-78.39
-93.26
-103.48
-111.38
-118.99
-127.11
-135.2
-141.89
-145.89
-146.52
-143.98
-139.07
-132.79
-126.05
-119.45
-113.4
-108.09
-103.54
-99.63
-96.04
-92.25
-87.64
-81.69
-74.17
-65.37
-56.1
-47.51
-40.71
-36.41
-34.62
-34.7
-35.5
-35.84
-34.81
-31.99
-27.46
-21.57
-14.81
-7.64
-0.56
5.86
11.09
14.95
17.77
20.39
23.67
27.85
32.27
35.51
36.2
33.87
29.27
23.91
19.25
15.93
13.6
11.51
9.23
7.1
6.08
7.17
10.9
17.13
25.25
34.5
44.1
53.25
61.05
66.54
68.89
67.65
62.84
54.93
44.81
33.57
22.5
12.88
5.81
1.87
1.03
2.6
5.61
9.19
12.86
16.62
20.7
25.3
30.41
35.93
41.75
47.93
54.54
61.44
68.1
73.65
77.3
78.66
78.01
76.05
73.4
70.19
65.99
60.19
52.61
43.87
35.21
27.94
22.7
19.16
16.13
12.26
6.64
-0.76
-9.17
-17.48
-24.73
-30.45
-34.84
-38.53
-42.43
-47.34
-53.68
-61.32
-69.58
-77.44
-83.91
-88.34
-90.57
-90.83
-89.5
-86.89
-83.1
-78.21
-72.47
-66.4
-60.79
-56.47
-53.97
-53.29
-53.89
-54.93
-55.61
-55.56
-54.97
-54.5
-54.94
-56.84
-60.27
-64.75
-69.57
-74.05
-77.87
-81.0
-83.53
-85.36
-86.19
-85.53
-83.07
-78.86
-73.44
-67.64
-62.17
-57.26
-52.58
-47.34
-40.69
-32.03
-21.08
-7.85
7.61
25.33
45.33
67.28
90.09
111.82
129.84
141.52
145.08
140.33
128.87
113.73
98.4
85.82
77.43
72.95
70.71
68.55
64.68
58.35
49.89
40.33
30.74
21.92
14.25
7.91
3.06
-0.16
-1.8
-2.43
-3.12
-5.18
-9.65
-16.79
-25.8
-35.09
-42.79
-47.42
-48.48
-46.54
-43.19
-40.32
-39.45
-41.1
-44.54
-48.04
-49.46
-47.13
-40.43
-29.94
-17.24
-4.36
6.88
15.21
20.06
21.47
19.89
15.92
10.16
3.18
-4.5
-12.39
-20.03
-27.01
-33.1
-38.25
-42.57
-46.16
-48.99
-50.82
-51.21
-49.76
-46.26
-40.76
-33.62
-25.27
-16.13
-6.47
3.56
13.82
23.91
33.1
40.31
44.35
44.28
39.71
30.97
19.06
5.33
-8.79
-22.07
-33.56
-42.5
-48.29
-50.43
-48.64
-43.05
-34.3
-23.51
-12.08
-1.43
7.31
13.47
16.92
17.89
16.86
14.35
10.81
6.62
2.05
-2.75
-7.66
-12.63
-17.53
-22.18
-26.42
-30.13
-33.3
-36.03
-38.42
-40.43
-41.85
-42.37
-41.83
-40.35
-38.43
-36.79
-36.11
-36.71
-38.34
-40.24
-41.35
-40.65
-37.55
-32.22
-25.71
-19.92
-17.11
-19.3
-27.55
-41.49
-59.22
-77.81
-94.05
-105.28
-109.92
-107.77
-99.7
-87.23
-72.04
-55.41
-37.92
-19.48
0.42
22.18
45.55
69.3
91.45
109.73
122.43
128.8
129.25
124.96
117.32
107.5
96.27
84.14
71.68
59.58
48.69
39.7
32.86
27.79
23.55
18.93
12.91
5.08
-4.09
-13.45
-21.66
-27.8
-31.83
-34.48
-36.89
-39.98
-44.01
-48.62
-53.28
-57.66
-61.94
-66.59
-71.88
-77.54
-82.64
-86.07
-87.03
-85.55
-82.48
-79.13
-76.68
-75.72
-76.21
-77.68
-79.62
-81.72
-83.71
-85.12
-85.01
-82.14
-75.47
-64.77
-50.86
-35.43
-20.18
-6.05
7.24
20.8
35.82
52.59
70.22
86.93
100.88
111.0
117.23
120.19
120.43
117.93
112.04
101.95
87.44
69.23
48.91
28.35
8.99
-8.6
-24.59
-39.48
-53.5
-66.32
-76.97
-84.32
-87.44
-86.09
-80.72
-72.16
-61.19
-48.09
-32.58
-14.1
7.54
31.68
56.65
80.19
100.15
115.17
125.09
130.71
133.41
134.65
135.64
137.11
139.29
141.91
144.18
145.13
143.97
140.53
135.41
129.85
125.3
122.87
122.94
125.09
128.27
131.02
131.77
128.98
121.46
108.65
90.86
69.36
45.95
22.38
-0.28
-21.9
-43.1
-64.62
-86.57
-108.13
-127.57
-142.84
-152.21
-154.73
-150.34
-139.71
-123.84
-103.94
-81.35
-57.64
-34.63
-14.23
2.02
13.24
19.41
21.16
19.4
14.85
8.07
-0.31
-9.23
-16.95
-21.38
-20.8
-14.76
-4.57
6.88
16.02
19.8
16.67
6.92
-7.59
-24.24
-40.45
-54.24
-64.37
-70.2
-71.54
-68.51
-61.58
-51.69
-40.2
-28.83
-19.18
-12.38
-8.78
-7.92
-8.88
-10.67
-12.58
-14.21
-15.25
-15.15
-12.91
-7.27
2.86
17.87
37.14
59.05
81.43
101.99
118.86
130.91
137.75
139.72
137.64
132.53
125.36
116.9
107.69
98.13
88.67
79.8
72.0
65.61
60.71
57.11
54.44
52.28
50.26
48.06
45.33
41.76
37.1
31.32
24.69
17.78
11.3
5.81
1.56
-1.76
-4.87
-8.66
-13.93
-21.02
-29.67
-39.13
-48.34
-56.22
-61.83
-64.42
-63.48
-58.78
-50.47
-39.27
-26.35
-13.21
-1.18
8.8
16.42
21.86
25.5
27.69
28.67
28.62
27.75
26.38
24.86
23.47
22.42
21.81
21.77
22.44
24.01
26.7
30.69
35.92
41.99
47.98
52.5
53.87
50.57
41.77
27.59
9.17
-11.68
-33.0
-53.13
-71.05
-86.41
-99.37
-110.31
-119.74
-128.12
-135.83
-143.06
-149.71
-155.16
-158.08
-156.63
-148.9
-133.6
-110.85
-82.43
-51.51
-21.78
3.7
23.21
36.74
45.57
51.61
56.63
61.67
66.94
71.91
75.8
78.03
78.58
78.03
77.17
76.52
75.9
74.56
71.62
66.74
60.37
53.55
47.25
41.77
36.53
30.5
22.84
13.5
3.18
-7.02
-16.3
-24.62
-32.55
-40.97
-50.52
-61.29
-72.92
-84.9
-96.77
-108.13
-118.44
-126.78
-131.83
-132.13
-126.51
-114.57
-96.84
-74.67
-49.83
-24.13
0.83
23.76
43.56
59.39
70.53
76.49
77.11
72.71
64.35
53.97
44.26
38.21
38.32
45.73
59.71
77.64
95.7
109.89
117.19
116.37
108.31
95.74
82.45
72.05
66.72
66.44
68.98
70.82
68.63
60.55
46.83
29.29
10.38
-7.95
-24.71
-39.74
-53.16
-64.87
-74.57
-82.01
-87.36
-91.32
-94.8
-98.43
-102.17
-105.18
-106.1
-103.65
-97.18
-86.99
-74.35
-60.96
-48.46
-37.74
-28.86
-21.11
-13.63
-5.95
1.78
8.78
14.17
17.39
18.53
18.24
17.45
16.98
17.32
18.61
20.74
23.53
26.67
29.73
32.15
33.39
33.02
31.0
27.62
23.46
19.09
14.88
10.96
7.18
3.34
-0.73
-5.07
-9.64
-14.36
-19.26
-24.39
-29.87
-35.73
-41.74
-47.51
-52.41
-55.81
-57.18
-56.29
-53.24
-48.5
-42.81
-37.05
-32.04
-28.38
-26.21
-25.13
-24.18
-22.02
-17.28
-8.98
3.09
18.18
34.68
50.42
63.21
71.29
73.82
71.04
64.29
55.67
47.56
42.04
40.39
42.76
48.22
55.1
61.38
65.23
65.33
61.11
52.9
42.03
30.64
21.21
15.61
14.15
15.19
15.66
12.38
3.55
-10.39
-27.11
-43.51
-56.85
-65.39
-68.12
-64.51
-54.46
-38.86
-20.08
-1.73
12.52
20.54
22.64
21.23
19.36
19.05
20.46
22.25
22.72
20.9
17.01
12.04
7.15
2.98
-0.38
-3.19
-5.82
-8.53
-11.39
-14.33
-17.18
-19.77
-21.98
-23.86
-25.51
-27.05
-28.51
-29.79
-30.91
-32.05
-33.56
-35.69
-38.17
-40.03
-39.79
-36.26
-29.31
-20.39
-12.15
-7.41
-7.85
-13.23
-21.55
-30.09
-36.69
-40.68
-42.92
-45.1
-48.68
-54.19
-61.01
-67.83
-73.2
-76.09
-76.1
-73.51
-69.22
-64.59
-61.05
-59.49
-59.74
-60.31
-58.71
-52.41
-39.87
-21.34
1.06
23.96
43.77
57.67
64.23
63.56
57.04
47.0
36.27
27.69
23.51
24.84
31.26
40.78
50.41
56.95
57.91
52.32
40.75
25.03
7.33
-10.47
-27.21
-42.26
-55.19
-65.28
-71.61
-73.3
-69.93
-61.7
-49.32
-33.77
-16.13
2.39
20.39
36.28
48.57
56.24
59.1
57.78
53.45
47.4
40.71
34.14
28.27
23.53
20.25
18.46
17.78
17.52
16.81
14.9
11.33
5.87
-1.37
-10.16
-20.12
-30.7
-41.33
-51.44
-60.65
-68.81
-76.04
-82.62
-88.87
-95.04
-101.27
-107.62
-114.14
-120.83
-127.69
-134.52
-140.91
-146.23
-149.77
-150.91
-149.27
-144.71
-137.16
-126.38
-111.83
-92.79
-68.86
-40.43
-8.9
23.37
53.8
80.25
101.64
117.96
130.02
138.79
144.95
148.81
150.49
150.27
148.77
146.79
144.87
142.97
140.36
135.91
128.65
118.31
105.5
91.5
77.65
64.89
53.5
43.26
33.85
25.13
17.22
10.35
4.61
-0.16
-4.35
-8.33
-12.38
-16.62
-21.06
-25.56
-29.84
-33.48
-35.86
-36.36
-34.47
-29.93
-22.74
-13.14
-1.7
10.67
22.65
32.72
39.44
41.95
40.23
35.12
27.85
19.65
11.35
3.37
-4.05
-10.72
-16.51
-21.54
-26.2
-30.96
-35.91
-40.48
-43.58
-44.12
-41.74
-37.09
-31.53
-26.41
-22.28
-18.63
-14.28
-8.2
-0.14
9.16
18.35
26.09
31.59
34.85
36.58
37.96
40.28
44.66
51.65
61.12
72.12
83.06
92.02
97.32
97.98
93.94
85.99
75.39
63.52
51.53
40.23
30.13
21.4
13.97
7.51
1.55
-4.35
-10.38
-16.39
-21.95
-26.67
-30.46
-33.65
-36.88
-40.78
-45.69
-51.63
-58.38
-65.64
-73.17
-80.77
-88.31
-95.75
-103.17
-110.99
-119.82
-130.34
-142.91
-157.26
-172.23
-185.87
-195.58
-198.58
-192.52
-176.03
-149.23
-113.85
-72.86
-29.9
11.6
48.98
80.77
106.52
126.55
141.58
152.52
160.41
166.44
171.68
176.93
182.37
187.46
191.07
191.79
188.45
180.37
167.56
150.65
130.67
108.88
86.6
65.15
45.66
28.86
14.9
3.34
-6.76
-16.41
-26.25
-36.3
-45.85
-53.68
-58.57
-59.81
-57.55
-52.85
-47.32
-42.65
-40.01
-39.84
-41.88
-45.44
-49.8
-54.51
-59.47
-64.87
-70.98
-78.0
-85.94
-94.45
-102.75
-109.53
-113.08
-111.59
-103.69
-89.0
-68.37
-43.77
-17.72
7.38
29.78
48.58
63.53
74.88
83.19
89.3
94.28
99.15
104.45
109.89
114.37
116.53
115.48
111.35
105.33
99.06
93.9
90.32
87.77
85.04
80.74
73.76
63.37
49.32
31.74
11.27
-10.88
-32.92
-52.65
-67.9
-77.07
-79.5
-75.7
-67.03
-55.21
-41.77
-27.76
-13.73
-0.17
12.32
22.91
30.88
36.14
39.45
42.14
45.44
49.7
54.1
57.04
56.98
53.17
45.95
36.33
25.39
13.81
1.83
-10.3
-21.94
-32.05
-39.42
-43.39
-44.04
-42.25
-39.26
-36.1
-33.36
-31.15
-29.35
-27.86
-26.75
-26.15
-26.07
-26.28
-26.28
-25.56
-23.9
-21.52
-19.07
-17.32
-16.77
-17.35
-18.58
-19.88
-21.08
-22.62
-25.43
-30.43
-38.01
-47.63
-57.89
-66.92
-72.99
-75.01
-72.77
-66.91
-58.59
-49.12
-39.6
-30.78
-22.98
-16.13
-9.73
-3.01
4.88
14.59
26.2
39.06
51.91
63.34
72.28
78.33
81.63
82.55
81.27
77.73
71.78
63.63
54.09
44.46
36.11
29.98
26.27
24.53
24.01
24.1
24.49
25.11
25.9
26.56
26.55
25.31
22.5
18.22
12.97
7.45
2.29
-2.19
-6.01
-9.49
-13.2
-17.76
-23.81
-31.81
-41.82
-53.29
-64.97
-75.02
-81.41
-82.31
-76.53
-63.87
-45.21
-22.37
2.18
25.85
46.32
61.96
71.92
76.16
75.35
70.66
63.46
55.03
46.2
37.32
28.35
19.37
10.92
4.28
1.12
2.76
9.27
19.1
29.32
36.79
39.29
36.34
29.11
19.57
9.52
-0.06
-8.95
-17.23
-24.79
-31.26
-36.33
-40.13
-43.31
-46.77
-50.98
-55.71
-60.01
-62.62
-62.48
-59.1
-52.66
-43.84
-33.7
-23.46
-14.36
-7.37
-2.98
-1.0
-0.71
-1.02
-1.03
-0.28
1.06
2.45
3.26
3.24
2.56
1.8
1.64
2.48
4.21
6.34
8.18
9.15
9.03
7.89
5.96
3.42
0.31
-3.44
-7.83
-12.66
-17.51
-21.89
-25.42
-28.02
-29.93
-31.69
-33.87
-36.86
-40.76
-45.28
-49.81
-53.51
-55.49
-55.02
-51.72
-45.76
-37.87
-29.19
-20.91
-13.84
-8.25
-3.9
-0.35
2.65
5.02
6.35
6.33
4.94
2.58
-0.1
-2.58
-4.72
-6.89
-9.66
-13.51
-18.45
-23.88
-28.81
-32.1
-32.88
-30.79
-25.96
-18.89
-10.26
-0.81
8.64
17.13
23.67
27.37
27.72
24.71
18.8
10.67
1.02
-9.64
-20.96
-32.66
-44.47
-56.09
-67.18
-77.34
-85.93
-91.97
-94.18
-91.37
-82.78
-68.58
-49.94
-28.73
-7.15
12.84
29.68
42.32
50.22
53.39
52.65
49.61
46.43
45.25
47.43
53.04
60.84
68.84
75.15
78.65
79.22
77.5
74.35
70.46
66.2
61.7
57.04
52.24
47.25
41.76
35.32
27.52
18.27
7.86
-3.12
-14.04
-24.46
-34.08
-42.54
-49.21
-53.22
-53.78
-50.62
-44.25
-35.9
-27.01
-18.75
-11.61
-5.47
0.12
5.47
10.52
14.85
17.94
19.45
19.34
17.91
15.58
12.81
10.0
7.56
6.04
5.99
7.91
12.02
18.03
25.23
32.62
39.23
44.29
47.4
48.48
47.74
45.56
42.46
39.02
35.78
33.15
31.34
30.29
29.69
29.03
27.66
24.98
20.58
14.42
6.88
-1.29
-9.23
-16.13
-21.42
-24.69
-25.7
-24.3
-20.54
-14.79
-7.75
-0.38
6.36
11.75
15.46
17.51
18.19
17.8
16.6
14.68
12.06
8.77
4.94
0.82
-3.25
-6.96
-10.05
-12.41
-14.06
-15.06
-15.57
-15.73
-15.85
-16.3
-17.48
-19.64
-22.7
-26.16
-29.24
-31.19
-31.62
-30.66
-28.95
-27.37
-26.62
-27.0
-28.25
-29.75
-30.72
-30.56
-29.02
-26.24
-22.68
-18.85
-15.04
-11.2
-6.79
-0.92
7.38
18.8
33.38
50.35
68.16
84.91
98.88
109.07
115.4
118.6
119.76
119.64
118.36
115.34
109.7
100.89
89.1
75.23
60.54
46.06
32.15
18.46
4.29
-10.78
-26.55
-42.1
-56.16
-67.65
-76.14
-81.96
-85.97
-89.13
-91.98
-94.52
-96.34
-96.96
-96.15
-94.02
-90.86
-86.84
-81.87
-75.69
-68.14
-59.29
-49.62
-39.69
-29.9
-20.29
-10.67
-0.78
9.4
19.53
29.05
37.3
43.61
47.46
48.45
46.52
42.03
35.84
29.13
23.05
18.36
15.19
13.09
11.36
9.42
7.07
4.51
2.16
0.34
-0.88
-1.69
-2.37
-3.17
-4.13
-5.13
-6.03
-6.76
-7.39
-8.1
-9.11
-10.49
-12.19
-14.03
-15.78
-17.27
-18.57
-19.95
-21.79
-24.33
-27.5
-30.74
-33.19
-33.95
-32.49
-28.78
-23.34
-17.02
-10.68
-4.92
0.03
4.1
7.28
9.42
10.24
9.44
6.89
2.71
-2.68
-8.65
-14.57
-19.98
-24.66
-28.55
-31.72
-34.17
-35.96
-37.16
-38.03
-38.92
-40.14
-41.66
-43.01
-43.34
-41.72
-37.51
-30.64
-21.58
-11.11
-0.01
11.09
21.69
31.25
39.29
45.46
49.86
53.11
56.12
59.68
63.93
68.25
71.52
72.7
71.41
68.07
63.67
59.15
54.97
50.94
46.49
41.11
34.67
27.5
20.17
13.18
6.83
1.16
-3.81
-8.02
-11.28
-13.37
-14.24
-14.09
-13.41
-12.79
-12.75
-13.54
-15.18
-17.5
-20.27
-23.35
-26.63
-30.1
-33.62
-36.96
-39.78
-41.84
-43.1
-43.81
-44.47
-45.61
-47.61
-50.46
-53.69
-56.53
-58.07
-57.5
-54.45
-49.05
-41.92
-34.04
-26.44
-19.94
-14.83
-10.81
-7.13
-2.93
2.43
9.09
16.62
24.25
31.17
36.76
40.78
43.22
44.24
44.05
42.86
41.01
38.99
37.4
36.85
37.67
39.79
42.55
44.9
45.54
43.4
37.96
29.42
18.72
7.19
-3.68
-12.73
-19.24
-23.05
-24.49
-24.3
-23.43
-22.96
-23.82
-26.61
-31.4
-37.66
-44.37
-50.24
-54.04
-54.95
-52.7
-47.65
-40.53
-32.24
-23.67
-15.46
-8.14
-2.05
2.48
5.09
5.48
3.51
-0.57
-5.95
-11.31
-15.09
-15.92
-13.16
-7.09
1.22
10.33
19.0
26.47
32.44
36.91
39.89
41.39
41.55
40.79
39.77
39.08
38.97
39.2
39.09
37.97
35.39
31.33
26.06
19.93
13.14
5.71
-2.41
-11.14
-20.12
-28.64
-35.77
-40.5
-42.01
-39.91
-34.46
-26.49
-17.23
-7.96
0.33
7.14
12.37
16.17
18.65
19.78
19.44
17.65
14.76
11.44
8.51
6.6
5.96
6.36
7.3
8.31
9.18
9.96
10.84
11.92
13.13
14.25
14.96
15.11
14.71
13.93
12.98
12.05
11.26
10.61
9.94
8.95
7.23
4.3
-0.24
-6.59
-14.57
-23.58
-32.6
-40.29
-45.31
-46.71
-44.19
-38.28
-30.03
-20.58
-10.68
-0.4
10.59
22.69
35.82
49.23
61.72
71.98
78.93
81.91
80.66
75.31
66.43
55.08
42.77
31.16
21.51
14.35
9.36
5.72
2.6
-0.38
-3.13
-5.34
-6.78
-7.55
-7.94
-8.2
-8.44
-8.56
-8.53
-8.46
-8.77
-9.88
-12.1
-15.41
-19.46
-23.76
-27.94
-31.88
-35.59
-39.08
-42.07
-44.01
-44.15
-41.85
-36.92
-29.69
-20.88
-11.37
-1.85
7.23
15.67
23.23
29.67
34.64
37.94
39.51
39.6
38.54
36.65
34.1
30.93
27.16
22.91
18.5
14.3
10.66
7.73
5.43
3.54
1.72
-0.3
-2.72
-5.66
-9.13
-13.07
-17.32
-21.65
-25.81
-29.6
-33.01
-36.21
-39.46
-43.09
-47.22
-51.75
-56.29
-60.41
-63.73
-66.08
-67.46
-67.91
-67.37
-65.65
-62.64
-58.47
-53.68
-49.17
-45.83
-44.27
-44.58
-46.53
-49.75
-54.04
-59.39
-65.68
-72.43
-78.58
-82.66
-83.22
-79.22
-70.31
-56.81
-39.42
-18.99
3.61
27.34
50.85
72.55
90.85
104.69
113.92
119.33
122.32
124.11
125.14
124.83
121.91
115.13
103.98
89.01
71.55
53.19
35.24
18.72
4.58
-5.97
-11.63
-11.48
-5.77
3.92
14.95
24.77
31.79
35.95
38.35
40.34
42.75
45.5
47.88
49.1
48.73
46.8
43.58
39.3
34.13
28.26
22.08
16.16
11.12
7.28
4.53
2.3
-0.17
-3.61
-8.39
-14.44
-21.28
-28.16
-34.34
-39.37
-43.23
-46.41
-49.82
-54.43
-60.77
-68.59
-76.78
-83.62
-87.45
-87.23
-82.88
-75.17
-65.32
-54.48
-43.45
-32.65
-22.27
-12.41
-3.12
5.72
14.5
23.71
33.77
44.58
55.48
65.28
72.58
76.25
75.71
71.07
63.05
52.72
41.36
30.17
20.19
12.16
6.44
2.98
1.39
1.14
1.71
2.75
4.06
5.48
6.83
7.82
8.12
7.5
5.95
3.68
1.06
-1.54
-3.84
-5.77
-7.4
-8.9
-10.48
-12.4
-14.88
-18.12
-22.0
-26.11
-29.61
-31.53
-31.0
-27.67
-21.86
-14.43
-6.5
0.95
7.28
12.21
15.69
17.72
18.32
17.53
15.57
12.82
9.77
6.86
4.38
2.37
0.74
-0.7
-2.07
-3.44
-4.78
-6.02
-7.1
-8.04
-8.96
-10.05
-11.46
-13.26
-15.35
-17.51
-19.46
-21.03
-22.25
-23.32
-24.57
-26.28
-28.67
-31.79
-35.61
-39.99
-44.68
-49.24
-53.07
-55.49
-55.97
-54.28
-50.67
-45.74
-40.2
-34.57
-29.01
-23.31
-17.09
-10.03
-2.12
6.32
14.7
22.26
28.33
32.44
34.49
34.8
34.0
32.88
32.07
31.89
32.23
32.71
32.85
32.25
30.66
27.92
23.91
18.53
11.93
4.54
-2.89
-9.47
-14.45
-17.47
-18.75
-18.94
-18.9
-19.43
-21.1
-24.15
-28.51
-33.86
-39.73
-45.45
-50.3
-53.55
-54.55
-52.85
-48.29
-41.04
-31.65
-21.01
-10.15
-0.06
8.59
15.45
20.38
23.29
23.9
21.93
17.37
10.88
3.99
-1.19
-2.64
0.84
9.08
20.67
33.45
45.33
54.88
61.65
65.99
68.73
70.84
73.11
75.92
79.15
82.16
83.9
83.27
79.55
72.63
63.1
51.96
40.25
28.69
17.59
6.96
-3.24
-12.95
-22.0
-30.23
-37.6
-44.19
-49.97
-54.63
-57.51
-57.77
-54.73
-48.29
-39.08
-28.32
-17.55
-8.05
-0.64
4.48
7.57
9.17
9.84
10.08
10.24
10.49
10.77
10.78
10.08
8.28
5.37
2.03
-0.53
-0.82
2.23
8.67
17.38
26.38
33.65
37.9
39.05
38.01
36.23
34.94
34.71
35.31
35.95
35.68
33.67
29.5
23.15
14.99
5.62
-4.19
-13.57
-21.53
-26.96
-28.92
-26.88
-21.15
-12.96
-4.25
2.77
6.41
5.93
1.69
-5.15
-13.11
-20.95
-27.83
-33.37
-37.41
-39.82
-40.54
-39.62
-37.36
-34.31
-31.12
-28.23
-25.81
-23.72
-21.73
-19.79
-18.06
-16.78
-15.99
-15.35
-14.33
-12.42
-9.54
-6.03
-2.5
0.57
3.14
5.6
8.39
11.61
14.78
16.94
17.05
14.5
9.41
2.57
-4.77
-11.33
-16.09
-18.37
-17.83
-14.45
-8.47
-0.49
8.55
17.49
25.13
30.62
33.62
34.37
33.5
31.78
29.81
27.87
25.97
24.02
21.98
19.96
18.16
16.79
15.92
15.51
15.43
15.49
15.53
15.38
14.87
13.84
12.17
9.86
7.05
4.02
1.05
-1.71
-4.29
-6.95
-10.03
-13.8
-18.31
-23.41
-28.74
-33.87
-38.47
-42.37
-45.61
-48.49
-51.45
-54.88
-58.91
-63.2
-67.0
-69.37
-69.61
-67.63
-64.11
-60.26
-57.51
-56.96
-59.12
-63.59
-68.93
-72.73
-71.92
-63.65
-46.18
-19.79
13.04
48.25
81.33
108.62
128.13
139.65
144.2
143.26
138.23
130.14
119.71
107.49
93.87
79.14
63.51
47.27
30.96
15.34
1.35
-10.24
-19.06
-25.34
-29.75
-33.21
-36.55
-40.34
-44.78
-49.75
-54.92
-59.73
-63.59
-65.96
-66.47
-64.93
-61.33
-55.72
-48.19
-38.96
-28.48
-17.44
-6.75
2.72
10.35
15.82
19.08
20.25
19.76
18.52
17.97
19.85
25.5
35.18
47.59
60.12
69.78
74.29
72.94
66.55
56.8
45.31
33.09
20.44
7.47
-5.63
-18.45
-30.54
-41.74
-52.2
-62.17
-71.65
-80.19
-87.01
-91.39
-93.08
-92.5
-90.75
-89.12
-88.8
-90.3
-93.08
-95.41
-94.66
-87.99
-73.35
-50.23
-20.01
14.44
49.58
82.1
109.54
130.32
143.64
149.2
147.2
138.4
124.2
106.48
87.28
68.4
50.97
35.45
21.77
9.66
-0.98
-9.91
-16.61
-20.63
-21.82
-20.6
-17.91
-14.94
-12.83
-12.32
-13.56
-15.9
-18.02
-18.2
-14.87
-7.34
3.7
16.07
26.64
32.3
30.94
22.08
6.81
-12.74
-34.06
-54.85
-73.33
-88.34
-99.39
-106.66
-110.95
-113.47
-115.51
-118.06
-121.54
-125.57
-129.04
-130.33
-127.84
-120.53
-108.44
-92.96
-76.55
-62.08
-51.8
-46.52
-45.16
-45.18
-43.46
-37.38
-25.63
-8.48
12.61
35.59
58.43
79.53
97.83
112.89
124.86
134.45
142.76
150.94
159.71
169.02
177.98
185.17
189.05
188.46
182.78
172.06
156.74
137.55
115.41
91.27
66.14
40.97
16.8
-5.04
-22.84
-34.58
-38.59
-34.28
-22.69
-6.43
11.08
26.71
38.49
45.89
49.26
49.24
46.22
40.33
31.88
21.61
10.74
0.55
-8.13
-15.12
-20.87
-26.0
-30.9
-35.65
-40.09
-44.12
-47.82
-51.48
-55.39
-59.75
-64.56
-69.74
-75.23
-81.0
-86.88
-92.35
-96.57
-98.54
-97.52
-93.29
-86.27
-77.15
-66.7
-55.39
-43.54
-31.37
-19.12
-6.86
5.78
19.71
36.09
55.73
78.51
103.23
128.02
151.16
171.79
189.93
205.93
219.69
230.07
235.07
232.64
221.64
202.43
176.87
147.7
117.66
88.92
62.76
39.74
19.93
3.18
-10.73
-22.1
-31.27
-38.65
-44.68
-49.74
-54.07
-57.68
-60.4
-61.96
-62.24
-61.34
-59.67
-57.83
-56.39
-55.68
-55.76
-56.36
-57.09
-57.63
-57.91
-58.1
-58.56
-59.66
-61.58
-64.19
-67.04
-69.46
-70.77
-70.56
-68.83
-66.09
-63.18
-61.1
-60.63
-62.11
-65.25
-69.3
-73.21
-75.95
-76.8
-75.6
-72.79
-69.29
-66.3
-64.84
-65.38
-67.58
-70.37
-72.32
-72.13
-69.25
-64.04
-57.57
-51.06
-45.25
-39.87
-33.57
-24.12
-9.05
13.53
44.12
81.17
120.99
158.26
187.16
202.89
202.97
188.02
161.52
128.79
95.46
65.98
42.75
25.93
14.07
5.17
-2.35
-9.11
-14.8
-18.75
-20.55
-20.57
-19.85
-19.74
-21.3
-24.84
-29.64
-34.04
-35.79
-32.61
-23.01
-7.0
13.57
35.15
53.43
64.55
66.24
58.56
43.7
25.19
6.75
-8.7
-19.64
-25.93
-28.46
-28.63
-27.77
-26.92
-26.71
-27.43
-29.24
-32.26
-36.49
-41.85
-47.96
-54.35
-60.45
-65.79
-70.07
-73.03
-74.43
-73.94
-71.28
-66.37
-59.47
-51.19
-42.25
-33.26
-24.49
-16.01
-7.77
0.23
7.84
14.93
21.5
27.75
33.87
39.87
45.39
49.69
51.91
51.37
47.77
41.35
32.77
23.01
13.16
4.2
-3.12
-8.45
-11.93
-14.11
-15.81
-17.69
-19.85
-21.64
-21.89
-19.48
-14.15
-6.88
0.21
4.54
4.05
-1.97
-12.65
-25.8
-38.62
-48.55
-53.85
-53.95
-49.36
-41.44
-31.93
-22.51
-14.42
-8.16
-3.56
0.07
3.64
7.9
13.21
19.46
26.05
32.05
36.44
38.51
38.05
35.49
31.83
28.33
26.08
25.59
26.6
28.23
29.33
29.03
27.04
23.78
19.96
16.27
13.03
10.19
7.57
5.09
2.78
0.66
-1.53
-4.43
-8.84
-15.23
-23.29
-31.77
-38.84
-42.68
-42.21
-37.33
-28.87
-18.09
-6.25
5.74
17.31
28.02
37.47
45.24
51.15
55.41
58.6
61.47
64.57
67.96
71.24
73.76
75.0
74.78
73.33
70.94
67.65
63.13
56.72
47.8
36.17
22.28
7.19
-7.79
-21.4
-32.79
-41.58
-47.85
-51.99
-54.5
-55.8
-56.19
-55.79
-54.72
-53.01
-50.72
-47.84
-44.31
-40.0
-34.83
-28.9
-22.61
-16.52
-11.09
-6.38
-1.91
3.24
9.92
18.37
27.79
36.38
41.84
42.1
36.13
24.37
8.65
-8.28
-23.6
-35.09
-41.61
-43.23
-41.1
-37.0
-32.8
-29.96
-29.08
-29.86
-31.23
-31.89
-30.86
-27.98
-23.96
-20.07
-17.55
-17.0
-18.19
-20.22
-21.99
-22.75
-22.3
-20.93
-19.06
-17.03
-15.01
-13.05
-11.28
-9.76
-8.3
-6.23
-2.32
4.89
16.55
32.88
52.66
73.35
91.59
104.04
108.33
103.81
91.84
75.37
58.09
43.26
32.78
26.76
23.9
22.35
20.56
17.93
14.69
11.49
8.75
6.3
3.51
-0.26
-5.21
-10.85
-16.22
-20.37
-22.78
-23.59
-23.46
-23.18
-23.36
-24.14
-25.32
-26.56
-27.71
-28.84
-30.22
-32.01
-34.09
-35.9
-36.7
-35.79
-32.84
-28.0
-21.9
-15.29
-8.95
-3.44
0.86
3.79
5.27
5.36
4.27
2.33
-0.01
-2.34
-4.37
-5.97
-7.15
-8.04
-8.74
-9.33
-9.82
-10.26
-10.63
-10.95
-11.24
-11.49
-11.67
-11.77
-11.83
-11.94
-12.3
-13.15
-14.66
-16.88
-19.61
-22.49
-25.13
-27.3
-29.07
-30.79
-32.92
-35.77
-39.35
-43.25
-46.76
-48.97
-49.12
-46.7
-41.59
-34.18
-25.23
-15.66
-6.32
2.26
9.88
16.54
22.26
26.9
30.25
32.11
32.54
31.92
30.78
29.62
28.82
28.47
28.47
28.59
28.55
28.07
26.92
24.95
22.22
18.9
15.31
11.72
8.26
5.0
1.9
-1.1
-4.02
-6.85
-9.56
-12.11
-14.5
-16.73
-18.83
-20.94
-23.28
-26.16
-29.78
-34.22
-39.19
-44.15
-48.26
-50.64
-50.53
-47.53
-41.75
-33.7
-24.24
-14.21
-4.32
4.96
13.43
